timestamp,emg1,emg2,emg3,emg4,emg5,emg6,emg7,emg8
1517188455502034,-2,-2,-1,-1,1,1,-3,-1
1517188455502034,-2,0,0,0,-2,0,-1,-2
1517188455503003,-2,-1,-1,-2,0,0,0,0
1517188455503003,-3,-8,-2,-2,-1,-2,0,-3
1517188455524020,0,-1,1,-2,-1,0,-2,0
1517188455524020,-1,-1,-1,1,-1,-1,-1,-3
1517188455526011,-1,-2,-3,-2,-1,-2,-1,1
1517188455526011,-2,0,0,0,-1,-1,-1,-3
1517188455539035,-1,-1,0,1,-1,-1,-2,-2
1517188455539035,0,0,0,-1,0,-2,0,-2
1517188455553029,-1,-2,-1,0,-2,-1,-1,0
1517188455553029,-1,1,0,-1,-2,0,-2,-1
1517188455562035,0,-1,-1,-1,-2,-1,-2,-2
1517188455562035,-1,1,0,-1,0,-1,0,-1
1517188455563037,1,-3,0,-2,-1,-2,-1,1
1517188455563037,-1,-1,-1,0,1,0,-1,0
1517188455584052,-1,0,1,2,-2,-3,0,-2
1517188455584052,-2,-3,-2,-2,-1,-1,1,0
1517188455586066,0,-1,-1,-2,0,1,-1,-3
1517188455586066,0,2,0,-1,-3,-2,-2,-1
1517188455598071,-1,0,1,-1,1,0,-1,0
1517188455598071,0,1,-1,-1,0,0,0,-1
1517188455605067,-2,-3,-1,0,-1,0,-1,-3
1517188455605067,-1,-1,-2,-1,0,-1,1,-3
1517188455622079,-2,1,-1,-2,-2,-1,0,-1
1517188455622079,0,-1,0,-1,-3,-3,-1,0
1517188455623086,0,-1,-3,-3,1,-1,0,0
1517188455623086,2,6,2,-1,-1,0,-1,0
1517188455644105,-1,-2,-1,-1,-1,-1,-1,-1
1517188455644105,0,-3,-1,-1,0,0,-2,-1
1517188455646105,-2,0,-1,2,-1,-2,0,0
1517188455646105,1,-4,-1,-1,-1,0,-1,0
1517188455658113,-1,0,-2,-2,0,1,-1,-1
1517188455658113,-1,3,-1,0,1,-1,-1,-3
1517188455665123,-1,-1,-1,-3,-1,-1,-1,-1
1517188455665123,-2,-2,0,0,0,0,0,0
1517188455682131,-1,-4,2,0,0,-2,-1,-2
1517188455682131,0,-2,-4,0,-1,-1,-2,-2
1517188455683131,0,0,0,-1,-1,-3,-1,-2
1517188455683131,-1,-1,-3,0,0,0,0,0
1517188455704138,-1,-1,-1,0,-1,-2,-1,-1
1517188455704138,-3,-3,0,-1,-2,-2,0,-1
1517188455706137,1,1,-1,-3,-2,-3,-1,-3
1517188455706137,0,0,0,-1,1,-3,0,-2
1517188455719177,-2,-2,-2,0,-2,-2,-1,0
1517188455719177,0,0,0,-2,-3,-4,0,1
1517188455725161,-1,-3,0,-1,-2,1,1,-1
1517188455725161,-1,-3,-1,1,-2,0,-1,-2
1517188455741172,-1,-2,-1,-3,-2,-3,-1,-2
1517188455741172,-1,-1,-2,-1,0,0,-2,-3
1517188455743163,-3,1,-3,-2,-1,-1,-1,-1
1517188455743163,-2,-1,0,1,-1,-3,0,-1
1517188455764199,0,-1,-2,0,-2,1,-1,0
1517188455764199,0,0,0,-2,-4,0,-1,-2
1517188455766200,-1,-4,-4,-1,0,0,-1,-1
1517188455766200,0,-2,0,-3,0,-1,-1,-1
1517188455778204,-3,-1,0,-2,0,0,1,0
1517188455778204,0,-3,-2,-1,1,-2,1,1
1517188455785196,-1,-1,-2,0,-2,0,-2,0
1517188455785196,-1,0,-3,-1,-1,-2,-1,-2
1517188455801233,-1,0,-1,0,-2,-2,-2,-3
1517188455801233,-3,0,0,-2,0,1,-2,-1
1517188455803219,-1,-1,-2,0,-2,-1,0,0
1517188455803219,-2,-2,1,-1,-1,0,-3,0
1517188455824222,0,-1,1,-1,-3,-1,-2,-1
1517188455824222,-1,-3,-1,-2,-1,-1,0,0
1517188455826223,-2,1,0,-1,-1,-2,-2,-3
1517188455826223,-1,-1,-1,1,-1,1,-1,-1
1517188455838231,-1,1,-2,-1,0,-1,1,-3
1517188455838231,0,-2,-3,-2,-2,-2,1,-1
1517188455847250,0,0,0,-1,0,-1,0,0
1517188455847250,0,-1,-1,-2,-1,0,-1,0
1517188455861260,-1,1,-1,-2,-1,-2,-3,-2
1517188455861260,0,-1,-2,1,-2,-1,-1,0
1517188455863248,-2,-1,-3,-3,-1,0,-1,-1
1517188455863248,-3,-1,-1,-1,-1,-2,-2,-1
1517188455884264,0,-3,0,0,-1,2,0,0
1517188455884264,-1,1,0,-2,0,-2,-1,-2
1517188455885264,-1,0,-2,-1,-1,0,1,-1
1517188455885264,-1,-1,-1,-1,-1,-2,0,-2
1517188455897286,-2,-1,2,-2,0,0,-1,1
1517188455897286,-2,-2,-2,-1,0,0,-1,-2
1517188455906291,0,-1,-1,0,-1,-2,-3,-1
1517188455906291,0,-1,-1,-1,-1,-2,0,-1
1517188455921291,-1,-2,1,-2,-2,-2,-1,-2
1517188455921291,-1,-1,-2,-1,-2,-1,-3,-1
1517188455923291,-2,-2,0,-1,0,-2,-1,-2
1517188455923291,0,-1,0,-2,-1,-3,-1,-2
1517188455944319,-1,0,-1,-1,-1,-1,-2,1
1517188455944319,-1,1,-1,-2,-2,-2,-3,-1
1517188455945319,0,-2,-2,-2,-3,0,0,-1
1517188455945319,1,-3,1,-3,0,-1,1,-1
1517188455957315,1,-1,-1,1,0,0,-1,0
1517188455957315,0,0,-2,-3,0,-2,-1,-1
1517188455966361,-1,-1,0,0,-1,0,-1,-2
1517188455966361,-2,0,1,0,-2,2,-3,-2
1517188455981358,-1,-1,-1,-1,-3,-1,0,-1
1517188455981358,-2,0,-3,0,0,0,0,-1
1517188455983333,0,-1,-2,0,1,0,0,-1
1517188455983333,-2,2,2,-3,-1,0,-1,0
1517188456004349,-1,-1,0,-2,0,-1,0,-3
1517188456004349,-3,-4,-2,0,-1,0,-1,-2
1517188456005350,-2,-2,-1,-1,-3,-1,0,-2
1517188456005350,0,-2,0,-1,-2,-2,-3,-1
1517188456017383,-2,1,-1,-2,-1,-1,-2,-1
1517188456017383,0,-1,0,-2,-2,-2,-1,-1
1517188456026381,-2,-1,0,-2,2,0,-2,1
1517188456026381,-1,-1,0,-2,-2,2,-1,-3
1517188456041398,-2,-3,-1,0,-1,-3,2,-2
1517188456041398,-1,-2,-1,0,-1,-2,-3,0
1517188456043377,-2,-1,-3,-2,-1,-1,-1,1
1517188456043377,-2,-1,0,-4,0,1,-1,0
1517188456064412,-1,0,0,0,0,-2,-2,-2
1517188456064412,-1,-6,-3,0,-1,-1,-1,-1
1517188456065413,0,3,-1,-1,-1,-5,-3,-1
1517188456065413,0,-2,-2,1,1,-3,-1,-1
1517188456077410,-1,-2,0,-2,-3,1,-1,0
1517188456077410,-1,-3,-1,-1,-2,1,1,-1
1517188456086445,-1,-1,-1,-1,-2,1,-1,-1
1517188456086445,-1,-1,-2,0,-2,-2,-1,-2
1517188456101476,-1,-1,-3,0,-1,-1,-1,-1
1517188456101476,-1,1,-1,-2,-1,-2,-1,0
1517188456107434,-1,-1,-2,-2,0,-2,-1,-2
1517188456107434,-2,0,0,-2,-2,-1,0,0
1517188456124446,0,-2,0,-1,-1,-1,-1,0
1517188456124446,1,-1,-1,-1,-1,-2,-1,-1
1517188456125447,-1,-8,-2,0,0,-1,-1,-2
1517188456125447,1,3,-2,0,-3,1,-1,0
1517188456138445,1,0,-1,0,-2,0,0,1
1517188456138445,-1,-1,-2,-3,0,-2,-1,0
1517188456146470,-2,-2,-4,-1,-2,-1,0,1
1517188456146470,-3,-2,0,0,1,-1,-1,-2
1517188456161482,0,0,1,1,-1,-1,-1,1
1517188456161482,-1,1,0,-2,0,-1,-1,-1
1517188456163466,-2,0,0,0,1,0,-1,0
1517188456163466,0,-3,-2,-1,-2,0,1,-2
1517188456184533,-2,-2,1,0,0,1,-2,-1
1517188456184533,0,-2,-2,-1,0,-3,0,1
1517188456185478,0,1,-1,-3,-3,-2,-2,1
1517188456185478,-1,-1,-1,-1,-1,-1,-1,-1
1517188456197491,-2,-3,-2,-3,1,-2,-3,-2
1517188456197491,-1,1,-1,0,-5,0,0,-3
1517188456206496,0,0,-1,0,-2,0,-2,-2
1517188456206496,-1,-2,1,1,1,-2,-1,0
1517188456221508,0,0,-1,-1,0,-3,-1,-2
1517188456221508,-1,0,-1,-1,0,-1,-2,-1
1517188456227521,0,2,-2,-1,-2,-1,0,-2
1517188456227521,-1,-1,0,0,-3,-1,0,1
1517188456244529,-2,-1,1,-1,-2,-2,1,-2
1517188456244529,-1,-3,-3,0,2,0,1,0
1517188456245520,-2,-3,-1,-1,0,-2,-1,-1
1517188456245520,-1,-1,0,-2,2,-1,-2,0
1517188456266539,-1,-2,-1,-1,-1,-2,-1,0
1517188456266539,-2,-2,-2,-1,0,0,-2,0
1517188456268536,-1,0,0,-1,-2,-1,0,-1
1517188456268536,-1,-1,0,-1,-1,-3,-1,-1
1517188456281557,-2,1,-1,-2,-3,1,-1,-1
1517188456281557,0,0,-2,0,-1,-2,1,0
1517188456283560,-2,-3,0,0,1,-2,-1,-2
1517188456283560,1,-3,0,-1,0,0,-2,-3
1517188456304566,0,-1,-2,1,-1,0,-2,-2
1517188456304566,-1,-2,1,-1,-2,-2,-2,-1
1517188456305563,-1,-1,-1,0,0,-3,-3,1
1517188456305563,1,-1,-2,-3,-1,1,-1,-2
1517188456326576,-2,-2,-2,-1,0,1,-1,1
1517188456326576,-1,-1,0,-2,-1,0,0,-1
1517188456328579,-1,3,1,-3,0,0,-1,1
1517188456328579,-2,0,0,-1,-1,-3,1,-2
1517188456342604,-1,0,0,-1,-3,-1,-2,-4
1517188456342604,0,-1,-2,0,-3,-2,-2,0
1517188456343606,1,-2,-1,-1,-2,-3,-3,-3
1517188456343606,-1,-1,-3,0,-2,0,-2,-1
1517188456364619,-2,-2,-1,0,0,-2,-1,3
1517188456364619,-2,-1,-1,0,-1,-1,-2,-2
1517188456365605,-2,-1,-1,0,-1,1,0,-1
1517188456365605,-1,1,1,1,-1,-3,0,-3
1517188456386631,1,0,0,-2,-2,-2,2,-2
1517188456386631,-1,0,-2,-4,0,0,-2,-1
1517188456388623,0,-2,-1,-2,-1,0,0,-1
1517188456388623,-1,-1,0,-2,-1,1,0,0
1517188456401653,-1,-1,-1,-2,-3,1,-2,-1
1517188456401653,-4,-1,-1,-1,-1,0,-1,0
1517188456407656,0,-1,-2,0,-1,1,1,0
1517188456407656,-1,2,0,-2,-3,-2,-2,-2
1517188456424669,0,-1,1,-1,-2,-1,0,-2
1517188456424669,0,0,-2,-1,0,-2,1,0
1517188456425647,-3,-2,-1,0,-2,0,-1,-2
1517188456425647,0,-2,1,-1,-4,0,-3,-1
1517188456446676,-1,-3,0,0,0,-2,-2,-1
1517188456446676,0,-1,-4,0,-1,-1,0,-2
1517188456447662,-1,-2,-1,-1,0,-3,-1,-2
1517188456447662,-4,0,-1,-2,-1,-1,-2,-2
1517188456460685,0,-2,-3,0,-3,0,-2,0
1517188456460685,0,0,-2,-1,1,-2,1,-2
1517188456467692,1,-3,-2,-1,-2,0,-1,-1
1517188456467692,0,-1,1,0,-1,-2,0,-2
1517188456484698,-1,-1,-1,-1,-1,-2,-1,-1
1517188456484698,-1,-3,-1,0,0,0,-4,0
1517188456486689,0,-2,0,-1,-2,-1,0,-2
1517188456486689,0,-1,-1,-1,-1,0,-1,2
1517188456506705,-1,0,-2,-3,1,-2,2,-2
1517188456506705,0,0,-1,0,-1,-1,0,-1
1517188456508706,1,1,-5,-1,0,-1,-1,-3
1517188456508706,-3,-1,-1,0,1,0,-2,0
1517188456521738,0,0,1,-4,1,0,-1,-1
1517188456521738,-2,-1,-2,-1,-2,1,-1,0
1517188456527786,-2,-1,0,-1,0,-1,-4,0
1517188456527786,-2,-2,-2,-2,-2,-2,0,-2
1517188456543798,-2,-1,-2,0,1,-1,-1,1
1517188456543798,-1,0,-1,-2,-1,-1,-1,-1
1517188456545795,-2,-1,-1,0,-1,-3,-1,-1
1517188456545795,-2,0,-1,0,-2,-1,2,-2
1517188456566840,-1,0,-1,-1,-1,2,-1,-1
1517188456566840,1,0,-1,-2,-1,-2,0,0
1517188456567815,-3,1,-2,-1,-2,-2,-1,-2
1517188456567815,1,-3,-1,1,1,1,-4,0
1517188456580823,0,-1,1,0,0,-4,-1,-3
1517188456580823,-1,-2,-2,-3,0,-2,-1,-1
1517188456587828,0,0,-2,0,-2,-3,0,0
1517188456587828,-1,-1,-1,-2,-1,0,0,-1
1517188456603826,-2,-1,0,-1,-2,1,-1,-1
1517188456603826,-1,0,1,-1,-2,-1,-2,-2
1517188456605829,0,-3,-2,-1,0,-1,-1,-1
1517188456605829,0,-2,1,-1,1,-1,-1,-1
1517188456626842,-1,-2,-2,-1,-1,-1,-1,-1
1517188456626842,0,-2,-2,0,-1,-1,0,-1
1517188456627844,-2,0,-2,-1,-1,0,1,0
1517188456627844,0,1,0,-1,-2,0,-2,-1
1517188456640893,-2,-1,-1,1,0,0,0,0
1517188456640893,-1,-1,-2,-1,0,0,0,-1
1517188456647867,0,0,1,1,-3,0,-2,-1
1517188456647867,0,-1,0,-2,-1,-1,-3,-2
1517188456663894,-3,1,-1,-2,0,-2,-2,-1
1517188456663894,1,0,-2,-1,-1,-1,-1,-1
1517188456665894,-3,-2,-1,-2,0,-2,-3,-1
1517188456665894,-1,-2,0,1,-2,-2,1,0
1517188456686899,0,-2,-1,1,-3,-1,-1,-1
1517188456686899,-2,0,-1,-2,-2,0,-1,0
1517188456687887,-1,-2,-1,-2,-2,-2,0,-2
1517188456687887,-1,-2,0,-2,-1,-2,-1,0
1517188456700935,-1,-3,-2,-1,0,-3,-1,0
1517188456700935,-1,-1,-2,0,0,-1,-1,-1
1517188456707900,1,0,2,-3,1,1,0,-1
1517188456707900,-1,-1,0,-2,-3,1,-1,-1
1517188456723911,-1,-3,-2,-1,-3,-1,-1,-2
1517188456723911,-1,-3,-2,-1,-2,-1,-2,-2
1517188456725912,-1,0,0,0,-2,-1,-1,0
1517188456725912,0,0,-3,0,0,0,0,0
1517188456746938,2,0,-1,-1,-1,-2,-2,-2
1517188456746938,-1,-1,0,-1,-1,-2,0,-2
1517188456747938,-1,-2,-1,0,0,0,-2,-1
1517188456747938,-2,-1,1,-1,1,-2,1,0
1517188456768967,-3,-2,-1,0,-1,0,0,-2
1517188456768967,-1,-2,-3,-1,0,0,-1,-1
1517188456770944,0,0,-1,-2,-3,0,0,-1
1517188456770944,0,-1,0,1,0,-3,-2,-1
1517188456783977,-1,0,-1,1,-2,1,-1,-1
1517188456783977,-2,-1,-1,-1,-1,-1,-1,0
1517188456785956,-3,-2,-1,-1,1,1,2,-2
1517188456785956,-1,-1,0,0,-1,-1,-1,-3
1517188456806981,0,0,-1,-2,0,-4,0,-2
1517188456806981,-1,0,-3,1,-1,1,0,1
1517188456807970,0,-1,-1,-1,-1,-1,-3,-1
1517188456807970,-3,0,0,-1,-3,0,-1,-2
1517188456820001,2,-3,-1,-2,0,-1,-3,-1
1517188456820001,-1,-2,-2,-3,-1,-3,-1,-2
1517188456828986,1,0,-2,1,1,-2,-1,0
1517188456828986,-3,-2,0,-3,0,0,-1,0
1517188456844027,-4,-2,0,-1,-3,-1,0,0
1517188456844027,0,0,-1,1,-1,0,-1,-1
1517188456846000,-3,-1,0,-1,-1,0,-2,-1
1517188456846000,2,0,-2,0,-2,-3,-3,-1
1517188456867043,-1,-1,-1,-2,-2,0,-1,1
1517188456867043,-3,-1,-1,-1,-1,0,-2,0
1517188456868014,-1,-1,0,-1,-2,-2,-1,1
1517188456868014,-1,0,0,0,0,-2,0,0
1517188456880053,0,-2,-3,-2,0,0,1,-3
1517188456880053,0,-1,-2,0,-2,-2,0,-3
1517188456889028,2,-1,0,0,-1,2,0,-1
1517188456889028,0,-1,1,2,-2,2,-1,-1
1517188456904039,-1,1,-1,1,-3,0,-3,-2
1517188456904039,-2,0,-1,-2,0,-1,-2,-1
1517188456906042,-1,-2,1,-1,-2,-4,-1,-1
1517188456906042,-1,0,-1,-2,1,0,-1,-3
1517188456927055,0,-2,-2,-2,-1,-4,-2,-1
1517188456927055,0,-2,-2,0,-1,-1,1,0
1517188456928056,-2,-1,-2,0,-1,-1,1,1
1517188456928056,-2,-3,-3,0,-1,-1,-1,0
1517188456940065,-3,-2,0,-1,-2,1,-2,-1
1517188456940065,0,-2,0,-1,-2,1,-2,0
1517188456949081,-1,-2,-2,0,2,0,-1,0
1517188456949081,1,-1,0,-1,-2,-1,1,0
1517188456964106,0,-1,1,0,-1,-2,1,1
1517188456964106,0,-1,-3,-1,-2,-3,0,-2
1517188456966108,-1,0,1,-1,-1,0,0,-3
1517188456966108,0,-1,0,-3,-1,-1,-2,0
1517188456987097,-1,0,-2,-2,1,-3,1,0
1517188456987097,-2,-1,0,-1,-2,-2,-1,-1
1517188456988099,-1,-1,-1,0,-2,-2,-2,-2
1517188456988099,1,-1,0,0,-2,-1,-2,-1
1517188457000117,-1,-1,-1,-2,-1,-1,-2,0
1517188457000117,-1,0,-2,-1,0,-1,0,0
1517188457009113,1,-2,-1,-3,-1,-1,0,-1
1517188457009113,-1,-3,-1,-1,-2,0,1,-2
1517188457024125,-1,-1,0,1,-3,-2,0,-2
1517188457024125,-2,-1,-1,-1,-2,-1,0,0
1517188457026125,-2,-1,-2,-2,-2,0,-2,-1
1517188457026125,0,1,-1,-1,-2,0,0,-1
1517188457046148,-1,-1,1,1,0,2,-3,-2
1517188457046148,-2,-2,0,-2,1,-3,0,-1
1517188457048140,-3,-2,0,-1,-2,1,0,-1
1517188457048140,-2,-2,0,-2,-1,-1,-2,0
1517188457060158,0,0,-2,0,-3,-2,0,0
1517188457060158,0,-3,0,-1,-1,0,-3,-2
1517188457069166,0,-2,-1,-1,-1,-1,-1,-2
1517188457069166,-1,0,-1,0,0,-2,0,0
1517188457084177,0,0,-1,1,-1,0,0,0
1517188457084177,3,-1,-2,-3,-2,-2,-1,1
1517188457086178,-2,0,2,-1,1,0,1,-1
1517188457086178,0,-3,-1,-1,-2,-1,0,-1
1517188457107182,-1,-1,-1,-3,-2,-3,-1,-2
1517188457107182,0,-2,-1,-1,-2,1,-2,-2
1517188457108183,-1,-1,0,-1,-3,-3,-3,-3
1517188457108183,-3,0,-1,1,0,-1,-3,-1
1517188457120195,0,-1,0,-1,0,-2,0,0
1517188457120195,-1,0,-3,-1,-1,0,-1,-2
1517188457129199,-2,-1,-2,0,-3,0,-1,1
1517188457129199,-1,-1,1,0,-1,-1,1,-1
1517188457144223,-3,-2,-3,0,-4,0,-1,0
1517188457144223,-2,1,0,-1,-1,-1,-1,0
1517188457146209,-1,0,1,-2,-2,-2,0,-1
1517188457146209,-2,-3,0,-1,-1,-3,0,-1
1517188457166225,-2,-2,-2,-4,-1,-1,-1,0
1517188457166225,0,-1,0,0,-2,-1,-1,0
1517188457168228,0,-1,-1,0,-2,-2,-2,0
1517188457168228,-2,-2,-3,0,0,-2,0,-1
1517188457180236,0,-2,1,0,2,-3,0,0
1517188457180236,-2,-2,-2,-1,1,0,-1,-3
1517188457189290,-2,0,-1,-2,0,-2,-3,-2
1517188457189290,1,1,-1,0,-2,0,-2,1
1517188457204345,-1,-2,0,-2,0,-2,-1,-1
1517188457204345,-3,-1,-1,-1,-1,-1,0,1
1517188457205333,1,-1,1,0,0,0,-1,0
1517188457205333,-1,-3,-3,-1,0,1,-1,-2
1517188457226351,-2,1,-2,1,-3,-1,-3,-1
1517188457226351,0,-2,-1,-3,0,-1,-2,-1
1517188457228352,-2,1,0,-1,-2,0,0,1
1517188457228352,-1,0,-1,-2,-1,0,-1,0
1517188457249375,0,-1,-3,0,-2,2,1,-2
1517188457249375,0,-1,-4,0,0,-3,-2,-1
1517188457250376,0,-1,-2,0,-1,-1,-1,-1
1517188457250376,0,-1,2,-2,-1,-4,-4,1
1517188457264378,-3,-2,-1,2,0,-1,-1,-1
1517188457264378,-1,-1,0,-1,0,-1,0,0
1517188457265376,1,-2,-2,1,-1,-1,-1,-1
1517188457265376,-2,0,1,-2,-2,-1,-1,-1
1517188457286506,-2,0,-2,0,0,-2,-1,-3
1517188457286506,-2,0,-2,-2,0,-1,-1,-2
1517188457288453,-1,0,-1,-1,-1,-2,-1,-1
1517188457288453,-1,-1,0,-1,-1,-2,-2,0
1517188457309462,-1,-1,-1,-2,0,0,1,0
1517188457309462,0,-2,-1,-1,-3,0,-1,0
1517188457310466,-1,0,-1,-2,-1,0,1,0
1517188457310466,0,-1,-1,-1,-1,0,-3,-2
1517188457324483,0,0,-1,-2,0,0,-1,-1
1517188457324483,1,1,-1,-1,-1,-3,2,-1
1517188457325478,-1,-1,1,-1,-3,0,1,-2
1517188457325478,-2,0,-1,-1,-1,-1,0,-1
1517188457346488,-2,-1,-4,-1,-2,-1,-2,-2
1517188457346488,-2,-2,0,-2,-1,0,0,-3
1517188457348490,-1,-1,-1,0,-1,1,-1,-5
1517188457348490,0,-2,-2,2,-2,-2,-1,-1
1517188457369506,-1,-2,-2,0,0,-2,0,-2
1517188457369506,-3,1,-3,0,-2,-2,-1,-2
1517188457370507,-2,-2,-2,-2,-2,-3,-3,-1
1517188457370507,-2,-1,-1,-3,1,2,-2,-1
1517188457383565,-1,-1,0,-3,-1,1,-1,-1
1517188457383565,0,-2,-1,-1,-2,-3,0,0
1517188457390548,1,-3,0,0,0,-1,1,-2
1517188457390548,-1,-2,1,1,-1,1,-1,-3
1517188457405558,1,-1,-1,-1,0,0,-1,2
1517188457405558,-2,0,-2,-2,0,0,-3,-1
1517188457406535,0,-2,-3,-1,-1,-3,0,1
1517188457406535,-2,1,1,-1,-1,-2,-1,-1
1517188457428562,-2,-1,-1,-1,-2,-1,-2,-1
1517188457428562,1,-1,-1,-1,-1,0,-2,-1
1517188457429547,0,2,-1,-2,-1,-1,-2,1
1517188457429547,-1,0,-2,-1,-1,-3,2,-1
1517188457442556,-2,-1,-2,0,1,-2,-2,-2
1517188457442556,-1,0,-2,0,0,-1,0,-1
1517188457458567,-2,0,-1,-2,1,1,-1,-1
1517188457458567,2,-3,0,-1,-2,2,-2,-1
1517188457465587,-1,-2,-2,0,-3,-4,-3,0
1517188457465587,0,-2,-1,-2,-1,-2,0,0
1517188457466588,-2,-1,-1,0,-1,2,-2,0
1517188457466588,-2,1,-3,0,0,0,1,1
1517188457488593,0,-1,-2,-3,-1,0,0,-1
1517188457488593,-2,-2,-1,-3,-2,0,0,-1
1517188457489591,-2,-1,-1,-1,-2,0,-1,-3
1517188457489591,0,-1,1,-1,-3,-3,-3,0
1517188457502609,-1,-2,0,-2,-1,0,0,1
1517188457502609,0,1,0,-1,0,-3,0,-2
1517188457511607,-2,-1,0,-1,-1,0,0,-3
1517188457511607,0,-1,0,1,-2,0,-1,-1
1517188457525616,-2,0,-2,0,1,-1,0,-1
1517188457525616,-2,-2,-1,-1,1,0,-1,0
1517188457526617,0,-1,1,-1,-1,0,-1,0
1517188457526617,1,1,0,-1,-2,1,-1,0
1517188457548658,1,-1,0,-1,-1,-1,0,-1
1517188457548658,-2,-2,-2,-2,1,-2,2,-1
1517188457549650,-1,-1,-1,0,0,-1,-2,-1
1517188457549650,0,-2,-3,-3,-1,-2,0,0
1517188457562667,-2,1,0,-2,-1,0,-2,-1
1517188457562667,0,-2,0,-1,-2,-2,0,0
1517188457570648,0,1,-2,-1,-3,-2,-1,-2
1517188457570648,-2,-1,-1,0,0,-1,-2,-1
1517188457585667,0,-2,-2,-1,-3,1,-2,-3
1517188457585667,-2,-2,1,2,-2,-1,-2,-3
1517188457586671,-1,-1,0,0,1,-2,0,0
1517188457586671,-1,-1,-2,-1,-1,-3,-2,0
1517188457608684,0,-3,-1,0,1,-1,-1,-2
1517188457608684,-3,2,-2,-1,-2,0,-2,0
1517188457608684,1,-1,-1,-1,-2,0,1,-1
1517188457608684,-2,-2,0,0,2,-2,0,-2
1517188457622684,-1,0,-2,-1,-1,0,1,1
1517188457622684,-1,-1,-3,-1,-2,-2,-1,1
1517188457630700,1,-2,-1,0,2,-3,-1,-2
1517188457630700,-1,-1,1,-3,-3,-2,-2,0
1517188457645710,-2,-1,0,-1,-2,-5,-2,0
1517188457645710,0,-3,-2,-1,1,0,-1,0
1517188457646700,0,1,2,0,-3,-1,-2,-1
1517188457646700,-1,-1,-1,0,-2,-2,0,0
1517188457668726,-4,0,-2,-1,0,0,1,-1
1517188457668726,-1,1,-2,-2,0,0,-1,0
1517188457668726,-1,-1,-2,-2,-1,-3,-3,-3
1517188457668726,1,-1,1,-3,-1,0,-2,-3
1517188457682736,-1,-1,0,-1,0,-1,0,-2
1517188457682736,0,1,-3,-1,-1,-1,0,-1
1517188457690743,-2,0,1,1,-4,1,0,-1
1517188457690743,-1,0,0,0,-2,-1,0,-2
1517188457705743,-1,-1,-3,-1,-2,-1,-2,1
1517188457705743,0,-1,0,-2,-2,-3,-2,-2
1517188457706743,-1,-1,2,-2,1,1,-2,0
1517188457706743,-1,-1,0,-2,-1,-2,0,-3
1517188457728769,0,0,-1,-1,-2,-5,-1,-1
1517188457728769,-2,-2,-3,0,0,0,-2,-2
1517188457728769,-2,-2,0,0,-1,-2,0,0
1517188457728769,-2,-1,-2,-1,0,0,-2,-2
1517188457742771,0,-1,-1,-2,-2,-1,-1,-3
1517188457742771,-1,-1,-1,-3,-2,1,2,-1
1517188457750774,0,1,0,0,0,-2,0,0
1517188457750774,-2,0,0,-1,-2,-1,0,0
1517188457765790,0,-2,-2,-1,-2,-1,0,-1
1517188457765790,1,1,-1,0,0,1,-2,0
1517188457766788,-1,-3,-1,1,-1,-4,1,-1
1517188457766788,-2,-3,-2,-3,-2,0,-1,0
1517188457788804,-2,0,-3,-2,0,-2,-3,0
1517188457788804,-3,-3,-3,1,-2,-1,-1,-3
1517188457788804,-1,0,2,-3,-3,-1,0,-2
1517188457788804,-2,-1,2,0,-1,0,-2,0
1517188457802836,0,-1,-1,-2,-1,-1,0,0
1517188457802836,1,-3,-1,1,1,-2,-2,-1
1517188457810842,0,-1,-2,-1,1,0,-1,0
1517188457810842,-2,0,-1,1,-1,-1,-1,-2
1517188457825827,-1,-1,-2,-1,0,1,0,0
1517188457825827,-2,0,-1,-2,-2,-1,-1,0
1517188457826830,-1,-3,1,0,-2,0,-2,0
1517188457826830,2,-2,-2,0,0,1,-1,-2
1517188457848861,-1,0,-2,-1,0,0,0,-2
1517188457848861,0,-1,1,-2,-1,-2,-1,-1
1517188457848861,-2,0,-3,0,-3,-3,-1,0
1517188457848861,0,1,-1,-2,-1,-2,1,1
1517188457862871,0,0,0,0,-1,-1,-1,0
1517188457862871,-2,-1,-2,-3,0,0,0,-1
1517188457870877,-1,-2,0,-1,-2,0,2,-1
1517188457870877,0,-1,-2,-1,-3,0,-1,-1
1517188457885883,0,-2,-1,0,0,2,-2,-2
1517188457885883,0,-2,-1,1,-1,-3,-3,-3
1517188457886871,-1,-1,-1,-3,1,-2,-2,1
1517188457886871,1,0,-1,-1,-1,-1,-1,-1
1517188457908888,0,0,0,-3,-3,-1,-3,-1
1517188457908888,0,-2,-2,2,-1,0,-2,0
1517188457908888,1,-2,2,-1,-3,-1,-3,-1
1517188457908888,-1,-1,0,1,-1,-2,0,-1
1517188457922922,-2,-1,-3,-2,-1,-3,1,0
1517188457922922,1,-1,0,-2,-2,0,0,-3
1517188457930904,-2,1,-1,-3,-1,-1,-1,-2
1517188457930904,-1,0,-1,0,-1,-2,-3,-1
1517188457946000,-2,-1,-1,0,2,-3,1,-2
1517188457946000,-2,-2,-2,-1,-1,-4,0,0
1517188457946981,-1,-2,1,-1,-2,0,-1,-1
1517188457946981,-1,-3,0,0,1,0,-3,-1
1517188457968008,1,-4,0,-2,-2,-1,-2,-2
1517188457968008,-2,-1,-2,-2,-2,-2,1,1
1517188457969008,-2,-2,-1,-1,-1,2,-2,-2
1517188457969008,0,-1,-2,-3,0,0,0,-1
1517188457983041,-3,-1,-3,-1,0,1,-1,1
1517188457983041,-1,-1,0,0,0,-3,1,-1
1517188457991017,-1,-2,-1,0,-1,0,-1,-1
1517188457991017,-2,0,-1,0,-1,-2,-1,1
1517188458006030,0,-1,1,-1,0,-3,-2,-1
1517188458006030,0,-2,-1,-2,-1,0,0,-1
1517188458007020,1,0,0,0,2,-3,-1,-1
1517188458007020,-1,-1,-2,0,-2,-1,-1,-1
1517188458028049,0,-2,-3,-2,0,-1,-2,0
1517188458028049,-1,-1,-1,0,-1,-1,-1,-2
1517188458029033,-2,-1,-1,0,-2,-2,-2,-2
1517188458029033,1,-2,0,-1,0,0,0,-1
1517188458043055,0,1,-1,0,-2,0,-1,0
1517188458043055,-1,-1,-2,-1,-3,-2,-2,-2
1517188458051058,-3,-1,-1,0,-1,-3,0,-1
1517188458051058,-1,0,-1,-1,-1,-1,2,-3
1517188458066061,-2,0,-3,-1,-1,-2,3,-1
1517188458066061,-1,-2,-1,-1,1,0,-2,-1
1517188458067061,-1,-1,2,-1,-3,1,1,0
1517188458067061,-2,-2,1,-2,-4,-2,-1,0
1517188458089078,-1,-1,-2,-2,0,1,-2,-2
1517188458089078,-1,1,-3,-2,-2,-2,-3,-1
1517188458089078,-1,-2,-2,-1,1,-2,0,-1
1517188458089078,1,1,-1,-2,-2,-2,-1,0
1517188458103096,0,-1,-2,0,-2,-2,-3,-2
1517188458103096,-3,-1,-3,-1,-2,0,-1,-2
1517188458111091,0,1,0,-1,-1,0,-2,-1
1517188458111091,-2,-3,-1,-1,-3,1,2,-1
1517188458126104,-2,-3,-1,0,0,-2,1,-1
1517188458126104,1,-1,0,-2,0,1,-1,1
1517188458127103,-1,0,-1,0,-1,-2,-2,-2
1517188458127103,-1,-2,-3,-2,1,-4,-1,-2
1517188458149204,-1,0,-4,-2,-2,1,0,0
1517188458149204,-2,-1,1,-1,0,1,1,0
1517188458150190,-2,0,-2,0,0,0,-1,1
1517188458150190,-1,-1,1,1,-2,-1,-1,-1
1517188458172202,-1,1,-2,-2,-1,0,-1,-2
1517188458172202,0,-1,-2,0,-2,-2,-3,-1
1517188458172202,-1,-1,-1,0,0,-1,-2,-1
1517188458172202,-1,-1,2,0,-1,-1,0,-1
1517188458186226,-1,-1,-1,-1,-1,-5,-1,-1
1517188458186226,1,-1,1,-1,-1,0,-1,-2
1517188458187212,-1,-2,-1,-1,-1,-2,-2,-2
1517188458187212,0,0,-1,-1,-2,-1,0,-1
1517188458208253,-1,-1,-3,-4,-1,-1,-1,0
1517188458208253,-1,0,2,-2,1,0,2,0
1517188458209229,0,-1,0,-2,-2,-1,-1,-1
1517188458209229,-1,0,-1,-2,-2,-1,-2,-1
1517188458231245,-2,0,-1,-1,1,-2,0,-2
1517188458231245,-3,1,-1,0,-2,-2,2,1
1517188458232251,0,-2,0,-1,-1,-1,-1,-1
1517188458232251,-2,-2,-2,0,-1,0,-1,-1
1517188458246280,-1,-3,0,-2,-2,-1,-1,-1
1517188458246280,-2,-1,-2,-3,-2,-1,-1,-1
1517188458247256,-1,-2,-1,-1,0,-3,0,-1
1517188458247256,0,-2,-1,-1,0,-1,-2,-1
1517188458268289,-1,-1,-3,-1,0,0,0,-1
1517188458268289,0,1,-1,0,0,0,-5,-2
1517188458269271,0,-1,2,-2,-2,0,0,-1
1517188458269271,-1,-2,-1,0,1,-2,-1,-1
1517188458291287,-1,-2,-1,2,0,0,0,0
1517188458291287,-3,-2,0,-3,-3,-3,-2,0
1517188458292288,1,-1,-2,0,0,-2,1,-2
1517188458292288,-1,-2,-1,0,1,-1,-2,0
1517188458306299,0,0,0,1,0,1,-2,-2
1517188458306299,-1,-1,-1,-1,-1,-1,0,-1
1517188458306299,0,0,0,-2,-2,-2,-1,-1
1517188458306299,-2,-1,0,-1,0,-4,0,-1
1517188458329316,-1,-1,-1,-1,-1,-1,-1,1
1517188458329316,0,-1,2,0,2,-4,-3,0
1517188458329316,-2,0,-2,-1,-1,1,0,0
1517188458329316,0,0,-3,-1,0,0,-2,-2
1517188458351384,0,1,-4,-1,-3,-3,-1,1
1517188458351384,0,-1,-1,0,-2,0,1,-1
1517188458352384,-1,0,0,0,-3,-1,-1,-2
1517188458352384,-1,-2,-1,0,-2,0,-1,-1
1517188458366388,-1,-3,0,-2,0,0,0,0
1517188458366388,-2,-2,-2,-2,0,-2,-1,1
1517188458366388,-1,-2,0,-2,-1,0,-2,-2
1517188458366388,-1,-2,0,-2,1,-1,-1,0
1517188458388400,-2,0,-1,0,0,0,0,-3
1517188458388400,0,-2,-2,0,1,0,0,-1
1517188458389413,-1,-3,-1,0,-3,-1,0,0
1517188458389413,0,1,-1,-1,-3,-2,0,-1
1517188458411424,0,-1,-1,-2,-3,-2,-1,-2
1517188458411424,1,-2,-4,0,1,-2,-1,-2
1517188458412414,0,-1,-1,-2,2,-2,-3,-2
1517188458412414,0,-1,-1,0,1,-2,0,-2
1517188458426434,-1,-1,0,-2,0,-1,-1,-1
1517188458426434,0,0,0,1,-3,3,1,-2
1517188458433444,-1,-1,0,-2,-1,0,0,-2
1517188458433444,-1,0,-1,-1,-2,-1,-3,0
1517188458448466,-2,-2,-3,-2,1,-1,-3,-1
1517188458448466,0,0,0,-3,-1,-2,-1,-1
1517188458449441,-1,-2,-1,3,0,0,-2,-2
1517188458449441,0,-1,-2,-1,-1,-3,-1,-1
1517188458471482,1,1,-2,-3,-2,-1,-1,-1
1517188458471482,-1,-1,-2,-2,-2,-2,-1,-1
1517188458472482,0,0,0,0,-2,1,-2,0
1517188458472482,1,-1,-2,-1,1,-1,1,1
1517188458486468,-2,-3,-2,-1,0,1,0,-1
1517188458486468,-1,0,-1,-1,-1,-2,1,-3
1517188458486468,0,-2,-3,-2,-1,-1,-2,-2
1517188458486468,-1,0,-2,-1,-1,-1,1,-2
1517188458508509,-1,-2,-2,-2,-1,0,-1,0
1517188458508509,-1,-1,1,1,-1,3,-2,0
1517188458509484,-2,-3,0,-2,1,-1,0,-1
1517188458509484,-2,-1,-1,0,-1,1,-1,-3
1517188458531514,0,-1,-4,-1,-2,-3,1,-1
1517188458531514,-1,0,-1,-1,0,0,0,-1
1517188458532501,0,-1,1,-1,-2,0,0,1
1517188458532501,-1,0,-1,0,-1,1,0,0
1517188458545509,-2,0,-3,-1,0,-1,-2,0
1517188458545509,-1,0,-2,-1,-1,-1,0,-2
1517188458546511,1,0,0,-1,-2,0,1,-3
1517188458546511,-1,-2,-1,0,-1,-2,-2,0
1517188458568538,-3,0,-1,-1,-3,-1,-2,-1
1517188458568538,0,-1,-1,-2,0,1,0,-2
1517188458569534,-1,0,0,-1,0,0,-3,-1
1517188458569534,-2,0,-2,-2,-1,-2,-2,-1
1517188458591554,1,1,-2,1,0,-2,-1,0
1517188458591554,-2,-3,-2,0,-1,-1,-1,0
1517188458592541,-1,-1,-1,-1,-2,-1,0,-2
1517188458592541,-1,-1,-1,-1,-1,1,0,-1
1517188458605550,-1,-2,1,-1,-1,-1,-2,-1
1517188458605550,-3,0,0,0,0,1,1,0
1517188458606552,0,0,0,-1,-3,-1,-1,0
1517188458606552,-1,-1,0,-2,-2,-1,-1,1
1517188458628574,-2,-2,-3,-1,0,-3,0,-3
1517188458628574,-2,0,-1,-2,-2,0,-2,-1
1517188458629570,0,0,-1,2,-3,-2,-1,1
1517188458629570,1,-2,-1,-1,-1,-1,-2,-1
1517188458651609,1,-1,0,0,0,0,1,1
1517188458651609,0,-1,-2,0,1,-2,-3,-3
1517188458652591,-2,-1,-1,-1,1,-2,-1,-2
1517188458652591,-1,-1,-1,0,1,-1,0,0
1517188458665619,-2,0,0,1,0,1,-2,-1
1517188458665619,-2,-2,-1,-1,-3,-1,0,-2
1517188458666598,-1,-2,2,-2,-1,1,-1,1
1517188458666598,0,0,0,-2,0,0,-1,-1
1517188458688611,1,-1,-1,-1,-2,-1,-2,-3
1517188458688611,-1,1,-1,-2,-2,-1,-1,1
1517188458689611,-1,1,1,0,-3,-3,-2,1
1517188458689611,0,-1,-2,-1,-1,-2,0,-1
1517188458711625,-2,-2,0,-1,-1,-2,1,-1
1517188458711625,-1,-1,-1,1,1,-1,-1,1
1517188458712626,0,-1,-1,0,-1,-1,0,-2
1517188458712626,-2,-1,-2,-1,0,0,-1,-2
1517188458725635,1,0,-1,-1,0,-1,-1,-1
1517188458725635,-1,-4,-2,0,-3,-1,-3,-1
1517188458726637,0,-1,-1,-3,0,-3,0,0
1517188458726637,-1,0,0,-1,-3,-2,1,-1
1517188458748666,-1,-2,-3,-1,0,-2,1,-1
1517188458748666,0,0,2,-2,-1,0,0,0
1517188458748666,0,-1,-1,0,0,1,2,0
1517188458748666,-2,-2,-2,-1,-4,1,0,-3
1517188458771669,-2,-1,-3,-2,0,-4,-4,-1
1517188458771669,2,1,0,-1,-2,0,-1,0
1517188458772699,-2,-1,-2,-1,-3,-1,-1,-4
1517188458772699,0,-2,-2,0,-2,-1,-2,-1
1517188458785707,-1,0,1,0,-1,1,0,0
1517188458785707,0,0,-4,0,0,0,-1,1
1517188458793709,0,0,-1,-2,1,0,-1,-3
1517188458793709,-2,0,-1,0,-1,-2,-2,0
1517188458808720,-3,0,-5,0,0,-1,-2,1
1517188458808720,-1,-2,0,-2,-3,-2,-1,-2
1517188458808720,0,-3,1,1,-1,-1,2,0
1517188458808720,0,0,-1,-1,1,-1,-1,-1
1517188458831728,-1,-2,-1,-2,0,1,-1,-1
1517188458831728,-1,-1,1,0,-1,-1,0,-1
1517188458832714,-1,0,-2,0,1,-2,-1,-3
1517188458832714,-1,-1,-3,-2,0,0,-1,0
1517188458844731,-1,0,-2,-1,-2,-2,1,-1
1517188458844731,0,-2,-2,-2,-3,0,-1,-2
1517188458853737,-2,-2,2,-3,-2,-1,-2,-1
1517188458853737,-1,-3,2,0,-1,-2,0,-1
1517188458868751,-1,-2,-4,-3,-1,1,1,-2
1517188458868751,-1,-2,-1,-1,0,-1,-1,-1
1517188458868751,0,-1,-1,-2,-2,1,-4,0
1517188458868751,-2,0,-2,0,-1,-2,-1,0
1517188458891794,1,0,0,-1,-1,-3,-2,-1
1517188458891794,0,0,-1,-1,1,-2,-1,-4
1517188458892757,0,0,-1,2,-2,-1,-1,0
1517188458892757,-3,-1,-2,-2,0,-1,-1,-2
1517188458905765,0,-1,-3,-2,-1,-2,-1,-1
1517188458905765,-3,1,2,0,0,-2,-2,0
1517188458913787,-2,0,-1,0,-1,-3,0,0
1517188458913787,1,-1,-2,0,-3,1,-2,0
1517188458928831,-1,-2,-1,-1,-1,-2,-1,-1
1517188458928831,-1,-2,-1,-2,-1,0,-1,-2
1517188458928831,1,-1,2,0,-1,-1,-1,0
1517188458928831,0,-3,1,-1,-1,-3,0,0
1517188458951813,-1,1,0,2,-2,0,-1,-1
1517188458951813,-2,-1,-2,0,-2,0,-1,0
1517188458952799,-1,1,-1,-3,-1,-4,1,-1
1517188458952799,-2,-1,0,0,0,-1,0,-2
1517188458964816,1,-1,-1,-3,-1,-1,0,-3
1517188458964816,-1,-1,0,-1,-1,-1,1,-1
1517188458973823,0,0,0,0,-2,0,-2,-1
1517188458973823,-1,-1,-2,-1,-2,-1,-2,-1
1517188458988824,0,1,-2,-3,-1,0,0,0
1517188458988824,0,-1,-1,-1,1,0,0,0
1517188458988824,-1,-2,-2,-2,0,1,0,0
1517188458988824,0,0,-3,1,-1,0,0,1
1517188459011850,0,0,-1,-1,0,0,-1,-1
1517188459011850,-1,-1,0,-2,-3,-2,0,-1
1517188459012851,-1,0,1,-3,-3,-2,-3,1
1517188459012851,-1,-1,0,0,0,-2,1,-1
1517188459024859,-2,-2,-2,-1,-2,-1,-1,0
1517188459024859,0,0,0,0,-1,-2,-2,0
1517188459033865,-2,-2,-2,1,0,0,-2,-2
1517188459033865,0,2,-1,-1,-3,-1,0,-1
1517188459048868,-1,-1,-1,-3,-1,-1,1,-1
1517188459048868,-1,-2,0,0,-1,-2,1,-1
1517188459048868,-1,-2,1,-1,-2,-2,2,-1
1517188459048868,-1,-1,-2,-3,0,0,-1,-1
1517188459071901,-1,0,-1,1,1,-1,-2,0
1517188459071901,1,-1,0,-2,-3,-1,-2,-1
1517188459071901,0,0,1,-2,-2,0,-2,1
1517188459071901,-1,0,-1,-1,0,2,-1,-1
1517188459093908,-3,-2,1,-2,-3,-1,0,0
1517188459093908,-2,-3,-2,-3,-2,-1,-2,-1
1517188459094909,0,-1,-1,-1,0,-4,-2,-2
1517188459094909,-1,-1,-2,-2,-1,-1,-1,-1
1517188459108907,-2,0,-1,2,-2,1,-1,-2
1517188459108907,0,-1,0,0,-1,1,1,1
1517188459108907,-2,0,-2,0,0,-1,-2,0
1517188459108907,-1,-3,-1,-1,1,0,0,0
1517188459131944,-1,-2,0,-1,-2,0,-1,-1
1517188459131944,0,1,-2,-1,0,0,0,0
1517188459131944,0,-3,-1,0,0,-2,1,-1
1517188459131944,1,-3,-2,0,-1,-5,-1,-1
1517188459153952,-2,-2,-2,-2,-3,-2,-1,-1
1517188459153952,-1,-2,1,-1,-2,1,-1,-3
1517188459154941,-1,-1,-2,1,-2,0,2,-1
1517188459154941,-2,0,-2,-2,2,0,-1,-1
1517188459167962,0,-3,-2,0,0,0,-2,-1
1517188459167962,0,1,-2,-1,-3,-2,-2,-2
1517188459168950,0,-1,-1,-1,-2,0,-1,-1
1517188459168950,1,-1,-2,-3,-4,-1,0,-1
1517188459191966,-1,-2,-2,-3,-1,0,-1,-2
1517188459191966,-3,1,0,0,-2,-1,-4,0
1517188459191966,0,-3,-1,-2,-3,-1,1,-1
1517188459191966,-1,-3,-1,-1,-1,-2,0,0
1517188459213991,0,-1,-2,-1,0,-1,-3,-1
1517188459213991,-1,-2,-2,-3,0,-1,-2,1
1517188459214983,0,-1,-2,-2,-2,1,-1,-1
1517188459214983,-2,0,1,-2,0,0,-4,2
1517188459228001,-3,-1,-2,-3,-1,-1,-1,-1
1517188459228001,-1,-2,0,-1,-2,-2,1,-1
1517188459228992,-2,-3,0,0,-2,0,-3,-1
1517188459228992,-1,-1,-2,-1,-2,1,2,-3
1517188459252018,-1,-1,-1,0,0,-3,-1,-2
1517188459252018,-2,-2,-1,-1,-2,-2,0,-2
1517188459252018,0,-2,-1,-2,0,0,-1,-2
1517188459252018,1,0,-1,-1,-1,0,-2,-1
1517188459274034,0,0,-1,-3,-1,-1,1,0
1517188459274034,0,-2,0,0,-2,0,-1,-3
1517188459275026,-1,-1,0,1,0,-2,-2,0
1517188459275026,-1,-2,1,1,-3,-2,-1,-1
1517188459288043,-1,-1,1,-1,-2,1,2,0
1517188459288043,0,-1,-1,0,0,-1,-3,-2
1517188459289035,-2,0,-2,-1,-1,-1,-1,0
1517188459289035,-1,-1,-2,0,-2,-3,-3,-1
1517188459312050,-1,-2,-2,1,-1,-2,0,0
1517188459312050,0,0,-1,-3,-2,-1,0,0
1517188459312050,0,0,0,0,0,2,-1,-1
1517188459312050,-1,-3,-3,0,-1,2,2,-2
1517188459334092,0,1,0,0,1,-1,0,1
1517188459334092,-3,-1,0,-1,-1,0,1,0
1517188459335068,1,-1,0,-2,-2,-3,-3,0
1517188459335068,-1,-1,-1,-3,0,-2,0,-2
1517188459348086,-2,-1,0,0,-2,-1,-1,-3
1517188459348086,1,0,1,0,-1,0,-2,-1
1517188459349076,-2,-2,1,-1,0,0,1,-1
1517188459349076,0,-2,-2,-1,-1,-4,-1,-1
1517188459372095,-1,-1,-2,0,1,-2,-3,-2
1517188459372095,-1,0,-2,-1,1,-1,0,-2
1517188459372095,-1,-2,0,-3,-3,0,0,1
1517188459372095,-1,0,-2,-1,-1,1,0,0
1517188459394171,-1,-3,-1,-1,-1,1,-2,-2
1517188459394171,-1,-1,1,1,-1,-3,-2,-1
1517188459396112,-1,-1,0,0,-1,1,-2,-1
1517188459396112,0,1,-2,-1,-1,-2,-2,-1
1517188459408120,-1,2,-1,-2,-4,0,-1,-1
1517188459408120,-1,-1,-1,-1,0,0,1,-2
1517188459417132,0,1,-2,-2,2,-2,0,-3
1517188459417132,-3,0,-2,0,-1,0,-1,0
1517188459431143,1,-2,1,-2,-1,-1,-2,-1
1517188459431143,-2,-2,1,0,-1,-1,-1,1
1517188459433136,0,-1,-2,-1,-2,-2,-2,0
1517188459433136,-2,-3,-1,-1,0,0,-1,0
1517188459454170,0,-1,1,0,-1,-1,0,0
1517188459454170,-2,-4,-2,-2,-2,1,1,1
1517188459455152,-3,0,-2,-2,-2,-1,-1,-1
1517188459455152,1,-2,-1,-2,-1,-3,0,-1
1517188459468174,0,0,-1,-2,-2,0,0,0
1517188459468174,-1,0,0,-2,-1,0,-2,0
1517188459477167,-1,0,-1,0,-1,-2,-2,-1
1517188459477167,0,-4,-1,-2,-1,-1,0,-1
1517188459491177,-2,0,-3,0,2,-1,0,0
1517188459491177,-1,0,0,-1,-1,-1,-4,-2
1517188459493178,-1,-2,0,-2,-3,-2,-1,-2
1517188459493178,-2,0,0,-2,-1,0,0,1
1517188459514203,-2,0,-2,-2,-1,0,-1,-2
1517188459514203,0,0,-2,1,0,1,0,-2
1517188459515194,0,-1,-2,-1,-1,0,0,-2
1517188459515194,-1,-1,1,-2,-2,0,-2,-1
1517188459528215,-1,-5,-2,-1,-2,-1,-1,-2
1517188459528215,0,-1,-2,-2,-2,-1,0,-1
1517188459537213,-1,0,0,-2,-1,-2,-1,-3
1517188459537213,-1,-1,-2,-3,-1,-2,0,-3
1517188459551242,-1,0,-2,-3,1,-3,-1,0
1517188459551242,-1,-3,0,-2,-1,0,-1,-1
1517188459553222,0,1,1,1,-2,0,-2,1
1517188459553222,-2,0,-1,-1,-1,0,1,0
1517188459574258,-1,0,-1,-1,-3,-1,1,-2
1517188459574258,0,-1,2,-1,-1,-1,-1,-1
1517188459576239,-1,-1,-2,-1,1,-1,-1,-1
1517188459576239,-2,-2,-3,-1,-3,-1,-4,-1
1517188459587284,-1,0,0,-3,0,0,-1,2
1517188459587284,-2,-2,1,-1,-2,-1,-3,-1
1517188459596253,-1,-1,-1,-1,-1,-3,-1,-2
1517188459596253,-1,-1,-1,-1,0,-2,-1,0
1517188459611264,-1,-2,-2,-1,-1,0,-2,-1
1517188459611264,0,0,-3,0,0,-2,0,-1
1517188459613265,-1,-2,0,-1,-3,-2,-1,0
1517188459613265,0,-2,-3,-2,0,-2,-1,-1
1517188459634289,0,-2,-1,-1,-1,0,0,-2
1517188459634289,-2,-1,-1,-2,0,-1,-1,1
1517188459635283,0,-2,-1,-3,1,1,-1,0
1517188459635283,-1,-2,-1,-1,-2,-1,-1,1
1517188459648288,-2,-2,-1,0,0,-2,0,-4
1517188459648288,-2,0,0,-1,-2,-1,1,-3
1517188459656298,-2,-1,1,0,0,-1,-2,1
1517188459656298,-1,0,-1,0,0,1,0,-1
1517188459671327,-2,-1,-1,-2,0,0,-2,-1
1517188459671327,0,0,-2,0,-2,-4,0,-1
1517188459673306,-2,-3,1,0,-1,0,-1,-2
1517188459673306,0,0,-1,-1,-3,-1,-2,0
1517188459694332,-2,0,-2,0,-1,-1,-3,1
1517188459694332,2,-1,-1,-1,1,0,1,-2
1517188459695323,-1,-3,-1,-2,0,-2,0,-2
1517188459695323,-2,0,-2,0,0,-1,-2,0
1517188459707331,0,1,-1,-1,-1,-1,-1,1
1517188459707331,-1,-1,0,-3,-4,1,-1,-1
1517188459716359,0,-2,-1,0,-2,1,-2,0
1517188459716359,-2,-1,-1,-1,4,-1,-2,-2
1517188459731357,-1,-3,1,-1,2,-1,-1,-2
1517188459731357,0,-2,0,1,-1,-2,-1,0
1517188459733349,-1,2,-1,0,-3,-2,1,-1
1517188459733349,0,-1,-3,0,-2,0,-1,0
1517188459753378,0,-3,-1,0,-3,-1,-1,1
1517188459753378,-2,-3,0,-1,0,2,-1,-1
1517188459761369,-3,-1,-2,0,-1,-2,1,-1
1517188459761369,0,-2,-2,-3,1,-2,-1,-1
1517188459767388,-1,0,-2,-2,0,-2,0,0
1517188459767388,-1,-1,0,-1,-2,0,-1,-2
1517188459776379,-2,-2,-2,-1,-4,-3,-1,-2
1517188459776379,-2,-2,-2,-1,-2,-1,-1,-2
1517188459792400,-1,0,0,-1,0,0,0,-1
1517188459792400,0,0,1,0,-1,-2,-1,0
1517188459794391,0,0,-2,0,0,3,-1,2
1517188459794391,-1,1,-3,-1,0,-3,-1,-1
1517188459814416,0,-1,-1,-1,-3,0,-2,-1
1517188459814416,-2,-1,0,1,-1,1,-1,-1
1517188459815422,-2,-1,1,-2,-1,0,-1,0
1517188459815422,-2,-4,-3,0,0,-3,-1,-2
1517188459827414,0,-3,-3,1,-1,-2,-2,-1
1517188459827414,-2,-1,0,0,1,-1,0,-1
1517188459836421,0,0,-1,-2,-2,-1,0,1
1517188459836421,-4,0,-1,-1,-3,0,-2,0
1517188459851445,-2,0,-1,-2,-1,0,1,-2
1517188459851445,-1,-1,0,1,-2,-4,0,-1
1517188459853446,1,-3,0,0,1,1,0,-1
1517188459853446,1,-1,-1,-2,0,-1,-3,-1
1517188459874457,0,-2,0,-2,0,-1,-2,-3
1517188459874457,0,-1,-2,-2,-1,0,-2,0
1517188459875449,0,0,0,-2,0,-2,-1,-1
1517188459875449,-2,0,-2,-1,0,1,0,-1
1517188459887470,-1,-1,-1,0,-2,-1,-2,-2
1517188459887470,-1,-1,0,0,-2,-1,0,-1
1517188459896479,0,0,-3,-1,0,-2,-1,-1
1517188459896479,-2,0,-1,0,-3,-4,-2,-2
1517188459911477,-2,-1,0,-1,-2,-1,-2,0
1517188459911477,-2,-1,-1,-2,-1,0,-1,2
1517188459913475,-1,0,1,-2,1,0,-1,1
1517188459913475,1,-1,-1,-1,0,0,1,-2
1517188459934490,0,-1,-2,-2,0,-1,-1,-1
1517188459934490,-1,-1,0,0,-2,-1,-2,0
1517188459935501,-2,-2,-1,-1,-2,-1,-2,-1
1517188459935501,-2,0,-3,-2,-2,0,-2,-1
1517188459947511,0,-2,-2,-1,-1,-2,-1,0
1517188459947511,-1,0,-1,0,-1,0,2,-1
1517188459956506,-1,-1,-3,-3,-2,1,1,-1
1517188459956506,0,-2,1,0,-1,-2,0,-2
1517188459971533,1,0,-1,-1,-2,0,1,-2
1517188459971533,-1,1,-1,-3,-1,0,-2,1
1517188459973518,-2,-1,-2,0,-1,-1,-3,-1
1517188459973518,1,-2,-1,-2,-1,-1,0,1
1517188459994534,0,-1,-1,0,-1,-2,-2,-2
1517188459994534,0,-1,-1,0,0,-3,-1,-2
1517188459996535,0,-1,-1,0,-4,0,0,1
1517188459996535,-1,-1,-3,0,-1,-2,0,0
1517188460007552,-1,0,-1,-2,0,0,-3,0
1517188460007552,0,-1,0,0,-1,1,-3,1
1517188460016551,-3,0,0,-1,-2,-3,-1,-2
1517188460016551,-2,0,-1,-1,0,-2,0,-2
1517188460031562,-1,-2,-1,-1,-3,-2,-2,-1
1517188460031562,-1,-2,0,0,0,-2,-1,-2
1517188460033561,1,0,-2,0,0,-1,0,-1
1517188460033561,-1,-1,-2,0,0,-1,0,1
1517188460053634,-2,-1,-3,0,-1,-1,-2,-1
1517188460053634,-1,1,0,0,-2,1,1,-2
1517188460055581,-1,-2,-1,-2,-2,-1,0,-3
1517188460055581,-1,1,-1,-2,-2,-2,-1,-3
1517188460076592,0,1,-1,-2,-1,-1,-2,1
1517188460076592,0,-2,0,-1,-2,-1,-1,-1
1517188460078592,-1,0,-1,0,-1,0,0,-1
1517188460078592,0,-2,-3,-1,-1,0,1,-1
1517188460091617,-3,-1,-1,0,0,1,-1,-2
1517188460091617,-2,-2,0,-2,-2,1,-1,-2
1517188460093618,0,-3,3,1,1,-2,-2,0
1517188460093618,1,0,-3,0,-1,-1,0,-1
1517188460113620,-1,0,-1,-2,-1,0,-1,-1
1517188460113620,-2,0,-1,-3,-1,0,0,1
1517188460115619,-1,0,-1,1,-1,-2,-2,-1
1517188460115619,-2,-2,-2,0,0,0,-1,0
1517188460136706,0,1,-1,1,-2,0,-1,0
1517188460136706,1,-2,-2,1,-2,-1,-2,-1
1517188460138636,0,1,-2,-2,-1,0,-1,1
1517188460138636,-1,0,1,-3,-3,0,0,1
1517188460151659,-1,-1,0,0,-2,-1,0,-2
1517188460151659,-1,-2,-1,-2,-1,-2,-1,-2
1517188460152659,0,-3,-1,-2,-1,-1,0,-2
1517188460152659,-2,-3,-1,-1,1,-1,-1,-1
1517188460173662,-3,-3,-1,-3,2,0,1,0
1517188460173662,0,-1,0,-1,-1,-1,-1,0
1517188460175663,-1,-2,-1,-1,-3,-3,-2,-1
1517188460175663,0,0,-2,-3,0,-2,1,-1
1517188460196676,0,-1,-1,-1,0,-1,2,-1
1517188460196676,-1,0,0,1,0,-1,-2,-3
1517188460197692,0,0,0,-3,-2,-1,0,-1
1517188460197692,0,-2,-2,-1,-2,1,-1,0
1517188460210697,-2,-2,0,-1,-3,-4,0,0
1517188460210697,0,1,1,0,0,-2,-2,-2
1517188460217781,-1,-2,-2,-1,0,2,-1,-1
1517188460217781,-1,1,-1,0,-1,-1,-3,0
1517188460233805,0,0,-3,0,-3,-2,-1,-2
1517188460233805,0,-1,-1,-3,2,-1,-2,0
1517188460235784,-2,-1,-1,-1,-2,-2,-1,0
1517188460235784,-2,-3,-1,0,-1,0,-2,-1
1517188460256787,0,0,-2,0,0,0,-1,-1
1517188460256787,-1,-2,0,0,-2,-2,-1,0
1517188460257789,1,-3,-2,-2,-2,-3,-1,-3
1517188460257789,-1,-2,-3,-3,1,-1,0,-2
1517188460270855,-1,-1,0,-1,1,-2,-2,-1
1517188460270855,-3,-1,-1,-1,-2,0,0,-2
1517188460277811,0,-2,2,-2,-2,0,-1,-2
1517188460277811,-2,-1,-2,-2,-1,-1,-1,0
1517188460294813,0,-1,-2,0,0,-1,-1,-1
1517188460294813,-2,0,-2,-1,0,0,-2,1
1517188460296825,-1,0,-1,0,-2,0,2,-1
1517188460296825,-2,-2,0,2,0,-1,0,-2
1517188460316852,0,-2,-2,-3,-2,0,0,-1
1517188460316852,0,-1,0,-2,-3,-2,-1,-1
1517188460317829,-1,-1,-2,-2,-1,-3,-2,1
1517188460317829,-1,0,-1,-3,-4,-1,-1,-1
1517188460330853,0,-1,1,-2,-1,-1,-1,-2
1517188460330853,1,-1,-2,1,-1,-2,0,-2
1517188460337846,0,-3,-1,-1,0,-2,-2,0
1517188460337846,-1,-2,0,-1,0,-2,-3,0
1517188460353964,-3,-3,0,-1,-1,0,-1,-1
1517188460353964,0,0,-1,-1,-2,0,-1,-1
1517188460355913,-2,1,-1,1,0,1,0,-1
1517188460355913,0,-1,-1,-2,0,0,0,-1
1517188460376922,-1,-1,0,-2,-1,-2,1,-1
1517188460376922,0,0,0,0,0,-4,0,-2
1517188460377923,-1,0,-1,-2,-1,0,-2,0
1517188460377923,0,0,-3,1,1,-1,-1,0
1517188460390950,0,1,1,0,-1,1,0,-1
1517188460390950,-1,-2,-1,-2,-2,0,2,0
1517188460397938,-1,-2,-3,0,1,-1,-1,-1
1517188460397938,-2,-1,-2,0,-1,-3,-1,-3
1517188460413989,-2,-1,0,0,0,-2,-1,0
1517188460413989,-1,-2,0,-3,-1,1,-1,-1
1517188460415962,-1,-2,-2,-1,-1,-1,-2,-3
1517188460415962,0,-1,-2,-2,0,-1,-1,0
1517188460436974,0,-3,0,0,0,0,-1,-2
1517188460436974,-1,-1,2,-3,-2,0,-1,-1
1517188460437967,-1,-1,-2,0,0,0,0,-1
1517188460437967,-1,1,-1,-1,0,-1,0,-2
1517188460451033,-1,0,-3,0,0,-1,-1,-2
1517188460451033,0,-2,-2,-1,0,-2,-2,-2
1517188460457989,0,0,-4,-3,-1,-2,-1,-2
1517188460457989,-2,1,0,-1,-1,-3,0,-1
1517188460473992,-2,0,-2,1,-1,-2,-3,0
1517188460473992,-1,-1,-1,0,0,-2,1,0
1517188460476003,-2,0,-1,-2,1,-1,-3,-1
1517188460476003,0,0,-1,0,0,-2,0,-2
1517188460496008,-1,0,-2,-1,-1,-2,-1,-1
1517188460496008,-1,-1,1,-1,-2,0,-2,-1
1517188460498009,-1,-1,0,0,-2,-1,-1,0
1517188460498009,0,0,-2,-3,0,0,0,1
1517188460511022,-2,-2,0,-2,-3,-1,-3,-2
1517188460511022,0,0,2,1,-2,-1,-3,-1
1517188460518055,-1,-1,0,-2,1,-1,1,-2
1517188460518055,-2,-4,0,-2,-3,0,-1,0
1517188460534033,1,-2,-1,-2,-3,-1,-1,-1
1517188460534033,-1,-1,-2,-1,0,0,-2,-1
1517188460536050,-1,-1,-1,-1,-3,-2,-1,-1
1517188460536050,-1,-1,0,0,-2,0,-2,-3
1517188460556067,0,1,-1,-1,-1,-1,2,-2
1517188460556067,1,0,2,0,-1,0,-3,-2
1517188460558050,0,0,-1,-1,-1,0,0,0
1517188460558050,-3,-2,-2,-2,-3,-1,-2,0
1517188460570075,0,-2,1,0,-2,-2,0,-2
1517188460570075,0,-1,-1,-2,-1,0,-1,-1
1517188460579075,0,0,-3,-3,1,-3,-1,-1
1517188460579075,-2,-1,-1,-2,-3,-3,-3,-1
1517188460594077,-1,-1,2,-2,1,-1,-2,0
1517188460594077,-2,-1,-1,-1,-1,-1,0,-2
1517188460597079,-1,-1,1,1,0,-2,-1,0
1517188460597079,-1,-1,-1,-3,-3,-1,0,-1
1517188460616117,-1,-2,-1,-1,0,-1,-1,1
1517188460616117,-2,-1,-1,-2,0,-3,0,0
1517188460618103,0,-1,0,0,-1,0,-3,1
1517188460618103,-1,-2,-2,-2,-1,-3,-3,-2
1517188460630117,-2,-2,0,-1,-1,-1,-1,0
1517188460630117,-3,-1,-4,-1,-1,-2,0,-1
1517188460639160,-1,0,-3,-2,-1,-1,0,0
1517188460639160,-1,0,0,-1,0,-2,-2,1
1517188460654229,0,0,0,-2,-1,0,0,-2
1517188460654229,-1,-3,-1,0,-2,-2,0,0
1517188460655171,-2,-2,-3,-1,-2,1,2,0
1517188460655171,0,0,-1,-2,1,0,1,-1
1517188460676197,0,0,-2,1,-2,-4,-2,-2
1517188460676197,-1,-1,-1,-2,-2,0,-2,-1
1517188460678187,1,-4,-2,-1,-2,-3,-3,-1
1517188460678187,-1,-1,-2,-1,-1,-1,-2,-2
1517188460690194,-2,-1,-1,0,0,1,0,-2
1517188460690194,0,-1,0,1,0,-1,0,-1
1517188460699201,-1,0,-1,0,-2,0,0,-1
1517188460699201,1,-4,-2,-1,-2,-1,0,0
1517188460714223,-2,-2,-2,-2,0,-2,1,-1
1517188460714223,-1,-2,0,-2,-3,1,0,-2
1517188460716213,-2,0,0,-1,0,-2,1,-1
1517188460716213,-1,-1,0,-2,1,-3,1,0
1517188460736273,-1,-1,0,-1,1,0,-1,-1
1517188460736273,-1,-1,0,-1,-1,2,-1,-1
1517188460738230,-3,-1,-1,0,-1,-1,-4,-3
1517188460738230,-1,-1,-2,-1,-2,-2,-2,-2
1517188460750239,-1,0,1,0,-2,-1,-2,1
1517188460750239,-2,1,-1,0,2,-3,-1,0
1517188460759245,-1,0,1,-2,1,0,0,-1
1517188460759245,-2,0,-2,-1,-2,0,-1,-2
1517188460774260,0,0,-1,0,-1,0,0,-3
1517188460774260,-2,-1,-1,0,-2,-3,-2,-1
1517188460775279,1,-1,-1,0,0,-1,-1,-3
1517188460775279,-1,-1,-2,0,0,-1,0,-2
1517188460796270,-1,-1,-2,1,-3,0,0,0
1517188460796270,0,-1,0,0,-1,-1,1,-2
1517188460798271,-2,-1,-1,-2,-2,-2,-1,1
1517188460798271,0,-2,-2,-2,1,1,0,0
1517188460810280,-1,0,0,0,-2,-2,-3,-1
1517188460810280,0,-3,-2,-1,-2,-3,-2,-1
1517188460819286,-1,-2,0,-1,1,1,-1,-2
1517188460819286,0,0,-3,0,-1,-3,-1,-2
1517188460834296,-1,0,-1,-2,-1,0,0,-1
1517188460834296,-1,0,-3,-1,-3,0,0,-1
1517188460835298,-1,-2,-2,-1,-2,-3,0,-3
1517188460835298,-2,-1,-1,0,-1,1,-1,-2
1517188460856316,-3,-1,0,0,0,0,-2,0
1517188460856316,0,-1,3,0,-2,-2,-2,0
1517188460858317,1,0,-1,-4,0,0,0,0
1517188460858317,1,1,0,-2,-1,0,0,-1
1517188460870325,1,-1,-3,0,0,-2,1,-2
1517188460870325,-1,0,0,-1,0,0,-1,0
1517188460879329,-3,0,-2,1,1,-1,-2,-2
1517188460879329,-1,-2,1,0,-3,-1,-2,-1
1517188460894371,0,-2,0,-2,-1,-1,0,0
1517188460894371,-1,-2,-3,-1,1,0,-1,0
1517188460896384,0,-2,0,0,-1,0,0,1
1517188460896384,-2,-1,-2,-1,1,2,-2,0
1517188460916397,-1,0,1,-1,-2,-2,1,-1
1517188460916397,-1,-1,-3,-1,-1,-1,-3,-4
1517188460918389,0,-1,-2,-2,-1,-2,0,0
1517188460918389,-1,0,-1,1,-2,-1,0,-1
1517188460930407,0,-2,0,-1,0,1,-2,-1
1517188460930407,0,-2,1,-2,0,0,1,0
1517188460939409,1,0,-1,-1,-3,-3,0,-2
1517188460939409,-2,-1,-2,-1,2,0,-2,0
1517188460954430,-1,-1,0,0,-2,0,0,-3
1517188460954430,-2,0,0,-1,-2,-3,0,-2
1517188460955416,-2,-1,0,3,-2,-1,-2,-2
1517188460955416,-1,-1,0,-2,-2,-4,-1,0
1517188460976429,0,-3,-2,-2,0,0,0,-2
1517188460976429,2,1,1,0,0,-1,0,-1
1517188460978430,-1,-1,-1,-2,-1,-1,-1,1
1517188460978430,-2,-2,-2,-1,-1,-2,0,-1
1517188460999462,0,-2,-1,-1,0,0,-3,-1
1517188460999462,-1,-1,-2,-1,0,-2,0,0
1517188461000463,-1,-2,-1,-2,0,-4,0,-1
1517188461000463,0,-1,-1,2,-2,-1,-1,0
1517188461014467,-1,-1,-1,-1,0,0,0,1
1517188461014467,1,-2,2,0,-1,-1,-2,-2
1517188461015456,0,-1,-3,-2,-1,1,-3,-2
1517188461015456,-1,0,-1,-1,-1,1,-1,-1
1517188461036480,-3,-1,0,-1,-3,-2,-3,-2
1517188461036480,-2,-1,2,-1,-1,-1,-3,1
1517188461038481,0,-2,-2,2,0,1,0,0
1517188461038481,-1,-2,-3,-2,-2,1,1,-1
1517188461059500,-1,0,-3,0,-1,-2,0,0
1517188461059500,-2,-1,-1,0,0,-1,-2,-2
1517188461060492,-1,0,-1,-2,-1,-2,0,-3
1517188461060492,0,2,0,1,-1,-3,-1,0
1517188461074499,-1,1,-2,-3,-2,-1,-3,-1
1517188461074499,0,0,-3,-1,-1,0,-1,-2
1517188461075499,-2,0,0,-1,0,-1,-1,0
1517188461075499,-2,-1,-1,-1,0,-2,-2,-3
1517188461103534,-2,-2,2,0,-2,-3,0,0
1517188461103534,-1,-1,-2,-2,-3,-2,0,-1
1517188461105521,-1,-1,-2,-1,-1,-1,-2,2
1517188461105521,-2,-1,-2,-1,-1,-2,-1,0
1517188461118543,-1,-2,-1,0,0,-1,-1,-2
1517188461118543,-1,-2,-1,-2,1,-1,1,1
1517188461120532,0,-5,-1,-2,-1,-1,-1,1
1517188461120532,-1,-1,-3,-3,0,-2,-3,1
1517188461133580,-1,2,1,-2,-1,-2,-2,-2
1517188461133580,-1,0,1,-1,-2,0,-1,-1
1517188461140556,-2,0,-3,-3,-2,-2,0,-1
1517188461140556,0,-2,-1,0,-2,2,-2,-2
1517188461156557,0,-2,1,-2,-3,1,0,-3
1517188461156557,1,-1,0,0,-5,-1,-2,-2
1517188461158558,-2,0,0,-1,0,0,-4,0
1517188461158558,-1,-1,-1,-1,-1,-3,1,0
1517188461178572,-2,-1,-2,-1,2,-1,0,0
1517188461178572,-5,0,0,-2,1,-2,-1,1
1517188461180574,0,-2,-2,0,0,1,0,-2
1517188461180574,2,0,-1,-2,-1,1,0,-2
1517188461193635,4,1,-1,0,-2,-3,-2,1
1517188461193635,-12,-4,-2,0,-2,-1,-3,0
1517188461199639,-1,-1,-2,0,-2,0,1,-2
1517188461199639,-3,0,-3,-3,0,-2,0,-1
1517188461216655,1,-1,-1,1,-2,-3,-2,0
1517188461216655,2,0,-1,-1,0,1,0,-1
1517188461217656,-1,-2,-1,-2,1,-1,0,0
1517188461217656,-2,-3,0,-2,-1,-1,-2,-2
1517188461239657,-2,-1,2,-2,-2,1,0,-2
1517188461239657,2,-1,-2,-3,0,-1,-3,-3
1517188461240659,-7,-1,-3,1,-3,-1,-1,-2
1517188461240659,2,-2,0,-1,0,1,-1,-3
1517188461253724,-1,-3,0,1,0,-1,-1,-1
1517188461253724,-2,-2,1,1,0,-2,-1,-2
1517188461259685,4,0,0,-1,-1,-2,-1,0
1517188461259685,-2,4,-1,-1,-2,-1,-1,0
1517188461276683,-4,-3,0,0,-1,1,0,-1
1517188461276683,5,0,-1,0,-2,-1,0,-1
1517188461277685,-8,-6,-1,-2,-1,-2,1,-1
1517188461277685,-2,1,-4,-1,-3,-2,-1,0
1517188461298709,1,0,-1,-2,0,1,-1,0
1517188461298709,2,-2,-1,-1,-2,-2,1,0
1517188461300710,2,0,-2,1,-1,2,0,-4
1517188461300710,-3,-4,0,-1,-2,-2,-1,1
1517188461313714,-1,-2,1,-1,-2,-1,-2,-1
1517188461313714,4,1,-1,-1,0,-2,-3,0
1517188461319738,2,3,-1,-1,-1,-3,-2,-3
1517188461319738,0,-3,1,-1,1,0,2,1
1517188461336785,-3,0,-1,-1,-3,-2,-1,-5
1517188461336785,-5,0,-3,-1,1,0,-2,-1
1517188461337730,-2,-3,-1,-1,-3,0,1,-1
1517188461337730,-14,-10,-4,0,-1,0,-1,-1
1517188461358752,12,1,-1,-4,-2,-2,-1,-2
1517188461358752,-3,9,2,1,1,0,0,0
1517188461360744,3,4,-2,-3,-2,-1,-4,-2
1517188461360744,5,-2,-2,-2,0,-2,-1,-2
1517188461372753,-7,1,1,1,1,0,1,1
1517188461372753,-3,-11,-4,-3,-3,0,1,-1
1517188461381758,-6,-3,-1,-3,-1,0,-4,-3
1517188461381758,-7,2,-3,0,-1,-2,-1,-1
1517188461396810,6,4,1,-1,-2,-1,-1,-3
1517188461396810,0,-5,0,-1,-2,-1,1,1
1517188461397810,-2,-3,-3,-3,-1,-3,-1,0
1517188461397810,-2,-2,0,-2,0,-1,0,-1
1517188461418836,-6,-7,-2,1,0,-1,-1,0
1517188461418836,5,-3,-1,-4,-3,-2,0,-1
1517188461420816,-1,3,1,1,0,-1,-2,0
1517188461420816,-8,6,2,14,-4,-3,-1,-2
1517188461432838,4,1,-4,-7,8,-1,0,0
1517188461432838,0,-5,-1,-15,-2,2,-2,1
1517188461439829,2,1,-1,3,-2,1,3,0
1517188461439829,3,3,-3,-4,1,1,-1,4
1517188461456854,-17,-15,4,7,-4,-4,-4,-3
1517188461456854,3,10,-1,4,-1,0,-3,-3
1517188461457840,-2,-7,-1,-4,0,-1,-2,-1
1517188461457840,7,-2,0,-1,0,1,-1,-1
1517188461477865,4,-4,-2,-3,-2,0,0,0
1517188461477865,-10,3,-1,0,0,0,3,1
1517188461486870,-10,-11,-5,-3,-2,-5,-5,-4
1517188461486870,10,-2,-1,-2,-1,-1,0,1
1517188461492889,-4,3,3,-5,-1,1,0,-1
1517188461492889,-3,2,-3,2,-1,-1,-1,-1
1517188461501873,6,12,0,3,1,0,1,0
1517188461501873,-11,-11,-1,-4,-1,-1,-3,-5
1517188461516898,-2,-4,-2,-1,-3,-2,-3,2
1517188461516898,-3,4,-2,-1,-1,-3,0,-1
1517188461517890,13,-4,-1,0,1,0,0,0
1517188461517890,-2,-1,-2,-4,-1,-3,-3,-1
1517188461538911,5,0,-1,2,0,1,2,0
1517188461538911,1,-4,0,1,-1,0,-1,-2
1517188461540900,-11,-2,0,-1,0,-1,-4,2
1517188461540900,-3,-7,-1,-4,0,1,-2,-3
1517188461552921,-4,-3,0,1,-1,0,3,0
1517188461552921,-2,-5,-2,-3,-2,-1,-3,-4
1517188461561914,1,-2,-2,-4,-2,0,1,4
1517188461561914,5,9,-1,0,-3,-1,-3,-5
1517188461576925,1,2,-2,0,2,1,3,2
1517188461576925,-11,-4,-1,1,-2,-3,-3,1
1517188461577926,2,-7,-4,2,2,-1,1,-2
1517188461577926,11,2,4,-1,-2,-1,-3,7
1517188461598956,-3,1,-2,-3,-3,1,-2,-4
1517188461598956,-9,1,-1,-1,0,-2,-1,-4
1517188461600942,12,-3,-3,-1,-1,-1,0,-4
1517188461600942,-10,-7,-4,-3,-1,-1,1,-3
1517188461612960,9,6,-1,-1,-1,-3,-2,1
1517188461612960,6,-3,2,1,-1,0,-2,-6
1517188461621961,-43,-1,-2,-3,-2,2,0,4
1517188461621961,-12,-17,0,-1,-1,-1,-2,-5
1517188461636981,6,8,-2,1,-1,-2,-1,-1
1517188461636981,28,-6,-2,-4,-3,-3,1,8
1517188461637973,17,12,-1,-1,-2,0,-1,-13
1517188461637973,-6,2,-3,-3,1,-1,-3,-3
1517188461660014,3,-1,3,-1,0,-2,0,6
1517188461660014,5,0,1,2,0,1,0,7
1517188461660991,-1,2,-2,-2,-2,-2,-7,-37
1517188461660991,4,7,0,2,1,1,2,0
1517188461672999,0,-2,-1,-2,-2,2,-3,-4
1517188461672999,8,8,0,-2,1,0,3,5
1517188461682002,-37,-24,-1,-1,-3,0,-2,2
1517188461682002,7,3,1,-1,1,0,0,0
1517188461696011,-17,-7,3,-1,-2,-1,-4,-10
1517188461696011,11,-5,-1,0,-1,-2,-4,4
1517188461698011,-14,15,2,-2,-2,-1,5,11
1517188461698011,-3,-11,-2,0,-3,-3,0,-9
1517188461719028,-7,-8,-4,-2,-2,-3,-1,-1
1517188461719028,-15,-1,1,-1,-2,0,-3,-8
1517188461721049,20,2,1,2,1,-1,3,10
1517188461721049,10,5,2,-3,-6,-2,-2,7
1517188461733038,6,18,-2,-2,-2,-3,0,3
1517188461733038,-29,-30,0,2,0,-3,-2,-8
1517188461742042,22,6,-2,1,3,-1,2,20
1517188461742042,-30,-16,4,-6,-5,-2,-10,-45
1517188461756068,8,5,-4,0,1,-1,8,20
1517188461756068,4,10,-1,0,1,0,-1,-12
1517188461758063,-19,-4,-1,2,-2,-1,1,6
1517188461758063,15,7,-1,-3,-2,-5,-5,-4
1517188461779074,-16,-9,3,1,-2,-1,-1,0
1517188461779074,-3,1,-2,-4,-2,-2,-1,-2
1517188461781071,5,1,-1,-3,0,-1,-3,-9
1517188461781071,-4,-8,-6,2,2,0,1,16
1517188461793104,-14,3,5,0,-1,-2,-3,-17
1517188461793104,7,8,2,4,1,0,2,12
1517188461802090,4,-9,-7,-7,-2,-4,-4,-7
1517188461802090,0,-3,-9,-3,0,1,1,4
1517188461816119,16,-2,2,2,-2,-1,-2,-3
1517188461816119,-16,3,4,5,1,-1,3,4
1517188461818101,10,5,-4,0,-1,-2,-1,17
1517188461818101,-25,10,3,5,3,1,4,0
1517188461839113,-8,-7,-4,-4,2,0,0,-2
1517188461839113,7,-4,2,-6,-2,-1,-2,-6
1517188461840114,-3,0,1,-1,-4,-2,-2,2
1517188461840114,17,8,3,-1,0,-1,1,14
1517188461853120,8,5,1,3,2,3,-1,9
1517188461853120,10,4,-1,0,0,0,0,10
1517188461861138,-2,-5,-5,1,-3,-3,5,-15
1517188461861138,0,-3,-2,-5,1,2,3,13
1517188461876137,-5,-11,3,1,-1,-2,-9,-26
1517188461876137,-5,-6,-6,-3,-3,-3,-1,-14
1517188461878138,15,8,-2,3,0,1,-4,1
1517188461878138,-33,-2,-1,-2,-3,-2,1,5
1517188461899169,25,-5,0,-2,-4,-2,-6,13
1517188461899169,-36,-19,1,-4,-4,-1,-6,-35
1517188461900155,5,-2,-3,-2,0,-2,-2,-9
1517188461900155,0,2,-2,2,0,1,-3,-1
1517188461912173,19,6,-2,-4,1,3,5,15
1517188461912173,5,1,1,-1,0,-2,-2,2
1517188461922182,-7,0,-1,2,1,-2,-1,0
1517188461922182,10,1,-3,-13,-3,-2,-1,-5
1517188461936190,-20,-11,-2,5,-2,-2,-4,-1
1517188461936190,18,12,-4,-3,1,2,-1,-1
1517188461938180,-4,1,2,-3,0,0,2,5
1517188461938180,18,10,-2,4,-1,-2,0,1
1517188461959196,-33,-9,2,-9,-1,1,1,6
1517188461959196,15,1,1,0,-2,0,-4,-1
1517188461960198,-13,3,-1,-1,-1,-2,-7,-8
1517188461960198,9,-1,-2,6,2,1,1,4
1517188461981226,-5,1,1,-4,-1,-2,2,-13
1517188461981226,-8,-2,2,7,1,-3,3,28
1517188461983214,12,-5,-9,-4,-1,-2,1,3
1517188461983214,0,-2,5,0,-1,-1,-5,-4
1517188461996233,21,18,-1,-1,-2,-1,0,-7
1517188461996233,-20,-10,-14,-5,-3,-4,-2,3
1517188461998240,-8,-13,4,0,0,0,-2,-4
1517188461998240,24,7,0,1,-1,-1,2,-10
1517188462019268,-5,-4,-4,-2,-3,-2,2,20
1517188462019268,1,16,9,0,0,-1,-11,-35
1517188462020240,7,8,-5,-4,-1,-2,-3,5
1517188462020240,-5,-32,-8,2,1,3,-1,0
1517188462041257,4,1,4,0,-1,-5,-4,-14
1517188462041257,-2,2,-5,-7,-5,-5,-2,9
1517188462043258,-44,-12,-6,1,2,0,3,18
1517188462043258,14,13,0,-1,0,0,-2,4
1517188462056268,-25,-37,-17,0,0,-2,0,-2
1517188462056268,10,22,6,2,0,1,6,12
1517188462062272,9,-10,5,-4,-4,1,-4,-8
1517188462062272,-6,15,-3,-2,1,0,1,8
1517188462079293,0,-7,-7,-1,-2,-2,-2,-4
1517188462079293,-9,-4,-7,-3,-3,-1,-2,2
1517188462080294,17,-1,9,-1,-1,-4,-6,-23
1517188462080294,-6,-13,-16,2,-2,-1,-6,-7
1517188462101309,19,13,23,2,1,-1,0,1
1517188462101309,-12,-1,-9,-4,-2,-4,-2,-12
1517188462103299,28,13,5,-2,1,0,2,3
1517188462103299,-12,-21,-19,-6,-2,-2,4,-2
1517188462116332,-13,28,8,0,-1,-2,-4,-10
1517188462116332,28,-13,2,6,-1,2,3,1
1517188462122321,-20,4,1,3,-2,-4,-1,6
1517188462122321,14,-2,6,-6,-3,-2,2,10
1517188462139323,0,-13,-6,0,-1,-2,-8,-8
1517188462139323,-25,-21,-11,-1,-3,-2,0,13
1517188462140325,2,20,5,-4,-2,0,-5,-9
1517188462140325,-6,10,2,3,3,-2,-1,-4
1517188462161353,7,-10,-1,-2,-2,1,7,14
1517188462161353,11,-17,0,0,1,1,0,-25
1517188462163341,-3,8,-20,-4,-1,-3,4,4
1517188462163341,-20,-13,7,-3,-4,-4,-2,5
1517188462176349,23,10,0,-2,2,-1,-1,-7
1517188462176349,-12,-4,5,2,2,1,7,7
1517188462182364,5,-13,-1,1,1,1,-1,1
1517188462182364,8,16,-5,2,-2,-2,-5,-6
1517188462198427,-13,-9,2,-5,-1,0,-1,-1
1517188462198427,25,0,-12,0,0,-3,0,-5
1517188462205431,-35,-27,-3,-3,-5,-3,0,11
1517188462205431,0,17,6,-2,-1,-1,-7,14
1517188462221449,-18,-6,-4,1,-2,-3,-13,-41
1517188462221449,13,3,5,-5,-1,1,-4,7
1517188462223436,-7,-1,-11,-1,-1,-3,6,-10
1517188462223436,16,-2,2,-5,-3,1,-4,7
1517188462235442,-21,8,-2,-2,-3,0,6,4
1517188462235442,2,3,5,1,-1,0,-2,-4
1517188462242449,4,15,9,3,0,-2,-3,-10
1517188462242449,-14,-21,-29,5,0,-2,1,-9
1517188462259459,-1,-22,-8,-3,-5,-5,0,25
1517188462259459,15,34,20,-4,2,-4,-5,2
1517188462260463,-4,-16,-11,8,2,6,0,-5
1517188462260463,-23,3,7,-4,0,-3,2,-9
1517188462281491,14,17,-18,13,1,2,0,-6
1517188462281491,-37,-42,10,1,0,1,0,13
1517188462283500,33,-9,-29,-4,-5,-1,3,14
1517188462283500,-17,23,20,-14,-2,-4,-7,11
1517188462295495,6,12,24,9,7,3,11,-13
1517188462295495,-11,-14,-31,-9,-4,1,10,-4
1517188462302500,34,25,15,-8,-1,-3,-11,-14
1517188462302500,11,6,24,4,0,3,2,15
1517188462320525,5,4,-43,-5,-3,-3,2,15
1517188462320525,-7,-8,1,11,5,1,3,-8
1517188462322516,3,-2,-3,-9,-4,-3,-6,1
1517188462322516,-13,4,13,8,2,0,7,-8
1517188462341522,5,-35,-1,-5,-3,2,2,-1
1517188462341522,13,23,17,6,3,4,-2,-17
1517188462343519,6,5,-28,3,2,0,5,34
1517188462343519,-49,-40,-4,-11,-5,-6,-8,-83
1517188462356532,2,63,34,2,-3,-4,-8,14
1517188462356532,13,16,-8,5,2,1,2,13
1517188462362553,-22,-5,23,-23,-5,-3,-1,-3
1517188462362553,2,15,-16,23,6,4,6,13
1517188462378583,8,-21,-30,-23,-9,-4,-10,-25
1517188462378583,-1,-1,-9,-8,-2,2,1,9
1517188462380544,-29,-25,-20,-8,-6,-6,-7,-32
1517188462380544,34,45,54,12,5,2,9,31
1517188462401599,-27,-98,-79,-3,-1,2,12,-7
1517188462401599,20,68,-21,-2,-5,-6,-8,25
1517188462403564,-35,-69,29,-8,0,0,-1,-34
1517188462403564,4,-11,-34,-6,-2,-4,-7,-7
1517188462415569,-1,11,46,-1,2,3,6,32
1517188462415569,9,45,54,25,6,3,8,8
1517188462423603,-1,-7,5,12,1,6,14,22
1517188462423603,23,32,-33,-29,-4,-2,-8,29
1517188462439614,-46,-10,52,15,1,-2,-9,-84
1517188462439614,10,-30,-24,-25,-13,-7,-10,10
1517188462440615,-3,10,-19,12,6,3,-3,-18
1517188462440615,-2,24,53,7,2,1,1,-13
1517188462461642,17,22,-60,5,-8,-3,-11,21
1517188462461642,7,13,21,-6,-2,-3,10,39
1517188462462631,-4,-13,0,-6,-1,-3,-2,-34
1517188462462631,9,22,-1,-3,3,3,4,15
1517188462475660,-12,15,-7,12,6,-1,-17,-21
1517188462475660,22,55,68,9,1,-2,1,8
1517188462491656,-42,-61,-22,5,-5,-1,1,17
1517188462491656,4,14,-75,-45,-11,-6,-5,-6
1517188462498676,13,-1,58,12,0,2,2,39
1517188462498676,-27,-54,5,5,-4,-1,1,-57
1517188462500658,25,19,-7,7,1,3,6,14
1517188462500658,-19,-5,27,30,5,0,-4,-21
1517188462521686,-9,-75,-72,-31,0,3,4,28
1517188462521686,5,-2,-57,-30,-12,-11,-12,-25
1517188462522674,-6,24,59,24,6,-4,-1,-3
1517188462522674,11,-31,-36,4,-8,-1,-4,-24
1517188462534695,3,-23,-12,10,5,-2,16,48
1517188462534695,-32,-13,23,2,-1,-3,-26,-61
1517188462543697,17,21,-24,-17,1,6,-1,12
1517188462543697,29,52,61,24,3,-2,-13,-8
1517188462558707,-16,-24,-58,-32,-9,-3,-3,-8
1517188462558707,-25,-112,-48,6,2,-1,-12,-39
1517188462560700,-8,42,2,7,0,2,7,22
1517188462560700,3,-22,2,-15,-7,-7,-8,-10
1517188462581725,7,57,33,6,0,-4,-7,15
1517188462581725,-4,-24,6,-1,2,5,9,-13
1517188462582725,13,18,-31,7,-3,-2,3,15
1517188462582725,-28,-107,-23,-19,-2,1,-1,11
1517188462594733,15,44,24,-2,-1,-4,9,3
1517188462594733,-1,-37,-22,-7,-1,3,8,33
1517188462603740,44,18,-17,-1,6,5,10,50
1517188462603740,-42,-32,20,13,-5,-6,-7,-46
1517188462618751,36,100,98,15,11,9,1,-1
1517188462618751,-16,-50,-87,-24,-8,-4,0,25
1517188462620752,-19,22,35,13,-1,-2,-13,-24
1517188462620752,-7,-29,-13,-21,0,1,5,9
1517188462641769,15,14,5,2,-1,0,0,5
1517188462641769,-18,51,50,2,1,1,-2,-14
1517188462642758,28,-58,-76,-25,-9,-4,-4,7
1517188462642758,-19,-5,9,10,-4,-5,-4,28
1517188462654787,30,18,21,25,0,0,1,-13
1517188462654787,-5,11,-57,-20,-1,-3,-4,26
1517188462663793,4,-26,21,-18,-1,0,4,-35
1517188462663793,4,-2,-35,-1,-2,-3,6,35
1517188462678795,-15,-7,-22,-28,-7,-2,-11,-64
1517188462678795,9,61,25,20,0,-6,1,3
1517188462680798,20,30,-5,5,-1,0,0,32
1517188462680798,-4,-29,9,14,-4,-3,13,-24
1517188462701821,0,-50,-15,6,4,2,0,11
1517188462701821,3,30,-43,-33,-6,1,7,13
1517188462702800,-36,40,66,-5,-6,-8,-19,-48
1517188462702800,19,-4,20,3,3,5,3,13
1517188462714829,18,21,-12,16,0,-2,3,44
1517188462714829,-16,23,10,32,6,2,-2,-59
1517188462723817,19,-22,-8,-34,-9,-2,3,25
1517188462723817,3,36,-16,-7,-8,-4,-2,4
1517188462738846,13,57,70,14,4,0,-8,18
1517188462738846,-12,-13,-27,-6,0,-1,7,17
1517188462740828,-21,39,35,17,6,0,1,11
1517188462740828,36,4,8,-2,-7,-3,-1,-7
1517188462761857,-8,-62,-18,-21,0,0,1,-19
1517188462761857,-4,1,42,13,0,-3,-9,7
1517188462762858,-4,-45,-12,3,0,-6,3,12
1517188462762858,2,8,-6,19,0,0,0,23
1517188462774863,-22,-1,-35,-3,-3,-2,-12,-5
1517188462774863,2,-59,-7,-38,-10,-3,-2,-1
1517188462783867,4,-51,-20,-9,-7,-2,2,26
1517188462783867,5,33,-31,-6,6,4,-4,-20
1517188462798878,-20,6,29,30,6,-1,6,13
1517188462798878,-3,26,-30,3,-1,0,-13,-22
1517188462800879,12,-3,-16,5,7,5,2,9
1517188462800879,-1,-12,-11,-3,-3,0,-3,-10
1517188462821928,-34,58,0,-5,0,1,6,-8
1517188462821928,-3,-58,-9,4,-3,-3,4,16
1517188462822887,2,42,33,2,1,-3,4,14
1517188462822887,-24,-34,2,23,11,6,-3,0
1517188462834933,-12,5,0,-46,-21,-11,-17,-77
1517188462834933,13,-12,-5,28,7,4,4,15
1517188462843900,-13,-15,13,-22,-12,-3,2,-10
1517188462843900,-7,-15,-45,-4,1,0,-5,-5
1517188462858932,3,21,-8,5,0,-3,-6,-42
1517188462858932,-6,-29,27,-1,-1,0,1,7
1517188462860913,9,33,-18,11,2,2,1,-34
1517188462860913,-1,-7,25,10,3,0,-4,37
1517188462881954,4,9,2,-18,-5,2,-5,-5
1517188462881954,10,47,46,2,-5,-6,-2,15
1517188462882927,-20,-40,-69,3,-4,-1,-9,-58
1517188462882927,-44,23,17,-19,1,-1,2,0
1517188462903982,42,-15,-15,-6,3,3,10,27
1517188462903982,15,28,10,14,4,1,-2,1
1517188462905945,-13,-19,-6,10,-1,-6,-22,-59
1517188462905945,45,83,47,-2,-3,-1,6,-13
1517188462918966,-61,-121,-74,-20,-9,-4,-14,3
1517188462918966,15,20,10,1,4,1,5,10
1517188462920969,3,41,27,1,2,1,-1,19
1517188462920969,6,-9,-13,21,4,3,1,-6
1517188462941978,8,-13,-2,-31,-1,-3,0,15
1517188462941978,8,28,7,13,3,3,9,28
1517188462942970,-9,-4,23,5,1,-1,-1,-10
1517188462942970,12,-55,-65,-13,-12,-8,-9,-34
1517188462963986,15,38,18,16,4,6,7,21
1517188462963986,-14,0,39,-7,-1,0,1,6
1517188462965997,23,27,3,-15,-6,-5,5,23
1517188462965997,-4,-3,30,12,2,2,6,2
1517188462979008,10,-15,43,0,-3,-9,-3,-12
1517188462979008,3,10,13,0,2,0,-17,-36
1517188462981002,-34,-28,-13,1,-2,4,-4,3
1517188462981002,43,31,34,-12,-1,0,13,23
1517188463002037,-9,16,24,36,6,1,5,12
1517188463002037,-1,37,-56,-14,-3,-4,-2,12
1517188463003017,13,-30,-2,-6,-4,-4,0,11
1517188463003017,-34,-6,22,-1,0,-4,-6,26
1517188463025032,-6,-31,-48,-18,-10,1,-8,-63
1517188463025032,-7,-29,-18,-5,-3,-3,-2,-7
1517188463030057,13,25,17,-7,-2,-6,-8,-20
1517188463030057,-20,-13,9,9,1,0,-10,5
1517188463038052,4,2,9,3,-1,-3,1,19
1517188463038052,24,-3,25,7,3,2,3,7
1517188463045041,-33,-18,-24,5,1,1,2,13
1517188463045041,9,6,9,-24,-7,3,2,-20
1517188463061064,-33,2,25,16,3,-1,0,31
1517188463061064,19,-47,-36,-19,-5,-5,-1,-16
1517188463063054,28,47,25,16,9,4,7,-2
1517188463063054,-18,-2,-1,5,3,2,3,14
1517188463091075,-34,-57,-19,-16,-13,-6,-1,31
1517188463091075,-19,-22,-6,18,3,2,-8,-10
1517188463094091,14,4,-5,-7,0,2,-1,16
1517188463094091,2,-2,8,-5,-2,-2,-4,-28
1517188463098089,16,-8,-26,-5,-2,-4,7,23
1517188463098089,-9,35,25,18,4,3,9,0
1517188463105095,-5,-7,9,-15,-1,-2,-7,2
1517188463105095,17,16,-36,-12,-3,0,3,8
1517188463121106,22,-7,24,17,8,2,1,-4
1517188463121106,-12,9,-20,0,0,-1,-3,14
1517188463123098,13,-7,-73,2,1,5,10,1
1517188463123098,13,23,8,-6,-2,-4,-5,-3
1517188463144122,7,-48,-22,0,-7,-4,-10,-7
1517188463144122,-8,-19,4,-24,-2,0,-4,-21
1517188463145112,11,24,46,21,4,0,2,39
1517188463145112,-27,-26,-14,-19,-4,-6,-7,5
1517188463158132,38,50,11,7,-2,-4,-11,-16
1517188463158132,2,31,8,14,3,2,7,8
1517188463165139,-26,0,-1,-22,-7,-5,-9,10
1517188463165139,-50,-44,-2,1,-4,-4,-2,-57
1517188463181154,30,63,6,15,5,0,5,1
1517188463181154,-57,-28,-31,-28,-6,0,-1,5
1517188463183139,14,-2,-2,11,-2,-4,-11,-26
1517188463183139,-15,-13,10,1,-2,-1,-4,5
1517188463204170,37,44,11,-1,4,5,13,24
1517188463204170,-13,-8,-27,-1,-1,-1,6,-38
1517188463205165,-8,-1,27,1,-1,0,-2,16
1517188463205165,15,15,-14,4,0,0,0,16
1517188463218165,-34,-4,20,3,1,4,1,-41
1517188463218165,24,1,1,3,1,-2,-9,-4
1517188463225170,-23,-66,-24,-12,-8,-3,-7,-17
1517188463225170,32,37,15,4,2,-2,8,-1
1517188463241182,-23,-18,20,5,-2,-1,-3,8
1517188463241182,-1,18,18,-4,1,2,5,1
1517188463243183,2,-10,3,10,-1,0,0,-9
1517188463243183,-9,5,-16,-14,7,5,0,22
1517188463264223,-21,16,22,4,0,-3,-1,27
1517188463264223,17,40,27,5,-3,1,12,33
1517188463266205,9,1,-4,3,0,-2,-6,4
1517188463266205,-3,-14,-21,-1,-7,-4,-3,2
1517188463278210,-10,-15,-2,-4,-1,2,-2,-6
1517188463278210,5,-12,-14,2,-3,-4,-1,18
1517188463285228,-4,28,30,-4,-2,-1,5,-10
1517188463285228,-3,7,2,12,2,2,-7,-32
1517188463301223,11,6,-9,-22,-8,-9,-1,7
1517188463301223,6,-25,16,4,2,1,-1,-10
1517188463303224,1,2,6,3,3,0,-3,-19
1517188463303224,-37,27,33,-2,-4,-4,5,17
1517188463324242,-10,-33,-21,24,9,5,0,-18
1517188463324242,5,16,-24,-20,-7,-7,-7,1
1517188463325240,-14,-12,16,10,5,2,0,-2
1517188463325240,36,5,0,10,4,6,5,5
1517188463337289,6,10,-3,2,0,1,9,6
1517188463337289,2,14,44,7,-2,-5,-5,17
1517188463346265,-37,-87,-76,-13,-4,-2,8,-9
1517188463346265,-2,-16,-5,-9,-3,0,-9,-41
1517188463361265,-14,-12,-23,-2,1,0,2,-2
1517188463361265,-4,10,-5,-15,0,-1,-12,-21
1517188463363267,24,-27,-53,-7,-7,-1,3,37
1517188463363267,4,22,13,5,0,1,-6,-29
1517188463384335,-12,-64,-23,-6,-1,-3,-15,-22
1517188463384335,11,67,10,4,1,2,9,16
1517188463385300,-12,13,8,9,0,0,-4,-3
1517188463385300,9,-6,-49,-12,-10,-5,3,2
1517188463397300,0,26,10,1,-1,1,5,12
1517188463397300,-16,-63,-32,-9,-4,-3,-7,-6
1517188463406297,20,53,21,-19,2,2,-6,15
1517188463406297,-9,-63,-31,13,-1,0,-1,43
1517188463421319,32,73,21,-6,3,-1,0,32
1517188463421319,-18,-57,-32,-8,-8,-6,2,6
1517188463423311,3,-6,11,0,-2,0,-3,5
1517188463423311,-5,1,-56,-10,-4,-7,3,8
1517188463444347,-17,-2,-3,-8,-4,-2,-2,-15
1517188463444347,-6,-33,38,10,-1,0,-10,-22
1517188463445326,5,72,21,11,4,1,4,3
1517188463445326,8,41,59,11,2,1,2,13
1517188463457341,-8,-43,-57,-33,-10,-4,-1,-3
1517188463457341,-18,-22,-9,6,2,-2,-16,-58
1517188463466363,-4,43,50,26,5,1,-1,-19
1517188463466363,28,-34,-8,-20,-7,-4,2,4
1517188463481352,-46,-1,21,8,-1,-2,-8,10
1517188463481352,-4,0,5,-12,-8,-5,0,-10
1517188463483368,6,36,9,11,3,3,3,-31
1517188463483368,16,-16,25,-17,-4,-6,-8,-8
1517188463504381,19,8,-23,-5,0,-3,19,15
1517188463504381,20,32,3,25,5,3,6,25
1517188463505368,-14,-36,-10,-25,-12,-10,-9,25
1517188463505368,-4,14,24,15,7,4,4,-24
1517188463517386,-7,3,22,-8,-3,-1,-6,-22
1517188463517386,16,-29,6,6,0,1,7,13
1517188463526383,22,-5,-29,-6,-4,-3,6,10
1517188463526383,-37,-31,10,11,4,1,-2,34
1517188463540395,1,32,1,-1,-1,1,-5,-31
1517188463540395,-3,-69,-39,-3,-2,1,-1,7
1517188463541393,-38,8,10,-19,-8,-6,-12,-16
1517188463541393,-5,19,7,-1,0,4,-1,-13
1517188463563424,11,45,-3,9,-1,-1,-7,-6
1517188463563424,15,-59,-30,2,1,4,3,33
1517188463564425,17,-9,-10,-16,-3,1,5,-17
1517188463564425,-28,-20,10,9,0,-2,-3,37
1517188463585434,11,-1,-20,4,3,2,1,14
1517188463585434,-6,81,9,-6,2,0,-1,11
1517188463586434,1,-78,5,6,-1,-5,-2,31
1517188463586434,22,-4,-5,-9,0,2,4,-30
1517188463610441,1,-7,10,17,4,2,4,19
1517188463610441,-8,15,-1,-7,-4,-6,-4,10
1517188463611447,3,-12,-3,-15,-4,0,-1,5
1517188463611447,11,23,6,7,1,-1,9,-1
1517188463623466,-32,-37,-22,-10,-7,-2,-14,-26
1517188463623466,19,45,15,-4,2,-1,2,-7
1517188463624456,-12,-4,19,18,6,5,9,-3
1517188463624456,25,21,14,27,2,0,-3,-9
1517188463645483,-10,-27,-10,-42,-9,-1,2,4
1517188463645483,-2,34,5,4,1,-4,-14,-65
1517188463646470,43,19,5,7,2,1,11,53
1517188463646470,-49,-25,-18,2,-2,-1,-15,-55
1517188463660493,43,42,40,9,-2,-4,2,19
1517188463660493,11,-14,-18,-8,-4,-4,-5,10
1517188463661479,-15,63,22,10,8,2,3,12
1517188463661479,29,7,1,-1,-7,-6,-7,-4
1517188463683516,5,-28,10,-27,-1,-1,-3,-15
1517188463683516,7,34,-44,-13,-4,-2,2,22
1517188463684516,-19,-5,-4,6,0,-2,-9,-55
1517188463684516,19,49,16,-7,-6,-4,-2,32
1517188463705523,-12,-28,3,27,1,-1,-4,-19
1517188463705523,-13,-28,-16,-16,-3,0,-8,5
1517188463706513,6,-26,21,-8,-4,-4,-3,-12
1517188463706513,-26,-35,-8,-15,-4,-3,-4,-15
1517188463720547,3,4,-31,0,-3,-6,1,5
1517188463720547,16,-12,45,19,6,1,1,6
1517188463721520,-34,-5,-43,7,-2,-2,-6,-5
1517188463721520,15,36,26,-1,3,-1,4,-46
1517188463743552,-26,-56,-25,8,1,2,-4,4
1517188463743552,7,12,19,1,-3,-2,6,23
1517188463744547,20,8,-11,13,1,0,-12,-86
1517188463744547,-7,-11,2,-11,-4,-2,5,39
1517188463765574,-36,8,-10,11,-1,-1,-1,-47
1517188463765574,-2,26,-10,-4,0,-6,-9,-21
1517188463766553,-3,0,7,-1,2,1,12,32
1517188463766553,-2,-18,-19,-3,1,1,4,6
1517188463780563,8,-19,-17,4,1,2,0,-6
1517188463780563,-11,3,21,-10,-7,-1,4,13
1517188463781564,4,1,-6,8,1,2,-1,11
1517188463781564,-3,57,-17,-1,1,0,7,6
1517188463803601,10,2,8,-12,-7,-2,-8,14
1517188463803601,-14,-37,-18,12,4,1,16,7
1517188463804580,-12,-4,6,-5,0,-3,-2,16
1517188463804580,6,-73,-72,-19,-7,1,-4,23
1517188463825594,-2,0,39,12,5,-4,-18,-34
1517188463825594,-21,20,-5,-6,1,2,0,2
1517188463826597,5,-36,-3,-12,-10,-5,-8,-29
1517188463826597,-7,10,31,4,0,-2,-2,13
1517188463840609,11,21,11,7,2,1,9,44
1517188463840609,-7,-39,-24,-4,1,2,-3,-6
1517188463841606,-5,16,-21,6,5,5,0,-3
1517188463841606,-22,-25,-9,-2,-4,-3,-6,3
1517188463863638,28,30,-4,-12,-3,-3,7,29
1517188463863638,-2,5,-7,8,0,2,-3,-46
1517188463863638,-15,32,33,-10,-3,-1,-2,-38
1517188463863638,-14,-59,-7,0,-3,-4,-14,-12
1517188463885650,10,-27,-32,2,-1,-1,-4,-14
1517188463885650,0,33,29,8,-2,2,2,2
1517188463886637,21,50,25,2,0,-2,8,34
1517188463886637,-11,-52,-61,-19,-9,0,8,39
1517188463900661,-2,55,13,-5,-3,0,7,26
1517188463900661,-19,-46,-8,6,0,0,-3,-1
1517188463901657,9,-13,19,-5,0,1,-6,10
1517188463901657,17,45,23,6,-1,-1,4,-12
1517188463923678,-35,-2,-12,-17,0,-2,-1,-6
1517188463923678,20,26,18,6,2,2,8,11
1517188463923678,-17,-39,0,-14,-8,-7,-1,9
1517188463923678,20,11,32,9,1,-5,-7,0
1517188463946694,-5,-40,-10,5,2,4,3,16
1517188463946694,5,28,15,-5,-1,-3,-2,0
1517188463947692,-2,19,-45,2,-2,0,-7,-28
1517188463947692,-22,-8,9,-6,0,3,-5,4
1517188463960689,27,78,66,-2,1,0,-4,-22
1517188463960689,-6,-69,-34,-4,-1,-2,3,12
1517188463961690,3,6,-15,-15,-2,0,-1,28
1517188463961690,-12,18,7,15,2,-3,-6,-39
1517188463983716,12,-4,-25,7,2,3,7,17
1517188463983716,-19,-36,-4,-18,-10,-6,-10,-20
1517188463983716,20,12,-6,9,-2,-2,-10,-12
1517188463983716,-1,-17,20,-10,5,0,5,-5
1517188464006723,-21,-8,11,-6,-5,-2,-5,-16
1517188464006723,6,56,29,-3,-1,-1,-2,-20
1517188464006723,6,-73,-34,4,1,-2,4,31
1517188464006723,5,42,24,-3,-1,-1,2,3
1517188464020742,19,-7,-28,-12,-6,-5,1,-2
1517188464020742,-19,-59,-15,-6,-3,-4,-12,20
1517188464021742,0,9,5,-5,-6,0,5,-27
1517188464021742,-5,-8,-10,-9,1,0,-7,-15
1517188464042757,14,-10,-4,2,0,-1,0,-7
1517188464042757,0,-11,-32,-8,-3,-2,7,14
1517188464043749,-1,21,17,9,-4,0,0,0
1517188464043749,-13,-11,-5,4,-1,0,6,0
1517188464066765,4,2,-18,-2,0,-1,0,24
1517188464066765,-1,40,0,8,3,0,2,-20
1517188464067766,-7,-13,-20,8,0,1,1,-24
1517188464067766,-10,32,26,-5,-1,0,0,5
1517188464080797,4,8,24,20,6,4,2,27
1517188464080797,-22,50,36,1,4,5,4,4
1517188464081776,20,-13,-18,-12,-4,-3,-2,-39
1517188464081776,-12,-3,-5,-6,-3,-4,-5,-5
1517188464102792,-12,-24,0,-2,-4,-1,-7,-19
1517188464102792,27,32,23,22,8,2,6,23
1517188464103792,-28,6,31,-10,-4,0,-1,7
1517188464103792,49,15,-8,10,1,2,6,24
1517188464126807,-9,0,-1,-16,-9,-5,-15,-44
1517188464126807,-3,-39,-22,-1,-2,-3,3,5
1517188464126807,2,44,-22,-12,-1,-4,-1,18
1517188464126807,2,-9,-13,7,2,4,0,-12
1517188464140819,12,0,27,5,-2,-5,1,14
1517188464140819,-22,0,-29,-16,-10,-1,-11,-28
1517188464141818,-18,-86,-9,-2,-2,0,0,5
1517188464141818,-2,-15,-14,0,2,-3,-8,10
1517188464162832,3,-21,-2,5,3,3,3,-4
1517188464162832,22,34,-4,-5,-2,-2,2,2
1517188464163833,5,17,30,21,4,3,3,17
1517188464163833,0,0,-15,-19,-4,-2,-7,-23
1517188464186850,-16,-19,-12,6,3,3,10,3
1517188464186850,-2,-43,-1,0,-6,-7,-14,-7
1517188464186850,4,59,28,10,2,2,4,15
1517188464186850,32,14,-22,-5,-5,0,-3,28
1517188464200860,-32,-50,-22,0,1,2,0,-16
1517188464200860,13,24,16,-7,0,-1,2,21
1517188464201859,-12,-30,-11,4,1,1,0,-25
1517188464201859,14,-3,40,2,0,1,-3,14
1517188464223879,-5,-3,-6,-14,-6,-6,-3,1
1517188464223879,28,31,11,18,7,2,3,9
1517188464223879,-8,5,6,-9,-6,-4,-4,-6
1517188464223879,1,-4,-10,8,3,-1,5,-10
1517188464246901,-11,-10,10,-2,-4,-1,0,-9
1517188464246901,9,1,13,5,6,3,7,13
1517188464246901,11,34,0,-1,2,-3,-10,8
1517188464246901,4,-18,-20,4,-4,0,1,9
1517188464260901,-16,31,-28,-15,-3,-5,-5,-56
1517188464260901,17,18,4,-11,-1,-2,-7,15
1517188464261902,-46,-57,31,-5,-6,-2,2,-23
1517188464261902,-12,1,14,4,0,1,1,-11
1517188464282920,16,53,7,12,2,0,-2,20
1517188464282920,-20,-13,25,7,-1,-4,-5,-15
1517188464283930,21,27,-42,-34,-7,-8,-3,6
1517188464283930,-17,-38,-6,-4,-5,-3,-7,9
1517188464306944,-5,-1,-7,3,-3,-3,-11,-50
1517188464306944,-29,11,-28,-10,-4,-1,7,-3
1517188464306944,4,18,24,15,0,-4,-12,5
1517188464306944,11,-3,-17,-4,0,-3,-1,5
1517188464320971,-5,20,33,0,-4,0,-4,32
1517188464320971,-51,-96,-17,2,-3,-2,-6,-35
1517188464321944,18,25,19,0,2,0,-4,1
1517188464321944,7,40,-6,-16,-5,1,5,11
1517188464342961,-40,-49,-23,10,0,-3,-3,-15
1517188464342961,33,55,-8,-5,1,1,5,13
1517188464343962,-27,-54,0,-3,-4,-1,6,34
1517188464343962,-10,-9,-10,7,2,-2,-17,-87
1517188464366977,8,8,-22,1,3,-1,-1,51
1517188464366977,19,-40,-14,-7,-8,-6,-9,9
1517188464366977,-40,-12,-9,9,6,5,0,-6
1517188464366977,11,25,-10,-9,-6,-2,4,-26
1517188464380997,11,7,13,1,0,-3,5,27
1517188464380997,12,38,-11,7,3,0,-6,-46
1517188464382001,10,-46,-28,-19,-5,-2,3,3
1517188464382001,-17,6,14,-3,-2,0,0,36
1517188464403028,12,42,53,19,5,1,6,2
1517188464403028,-20,-46,7,-31,-7,-3,0,10
1517188464404029,-2,-44,-13,12,0,2,1,2
1517188464404029,-33,24,17,11,5,5,4,-8
1517188464427037,14,13,-2,-10,-1,0,-3,-5
1517188464427037,2,15,8,3,2,0,0,5
1517188464427037,-5,28,10,2,-4,1,-4,-10
1517188464427037,27,-28,5,-8,-2,-1,0,25
1517188464440030,-14,-13,-15,-4,0,1,-2,-29
1517188464440030,12,39,48,4,1,0,-1,-24
1517188464448054,18,1,-6,2,0,-2,0,4
1517188464448054,24,-22,-11,11,-3,-5,5,21
1517188464463057,-14,-17,26,-2,-2,-1,5,23
1517188464463057,26,3,-39,-6,0,1,-2,21
1517188464464047,1,-23,-28,-10,-2,-1,-7,-60
1517188464464047,3,26,23,0,-5,-6,-8,15
1517188464486074,-7,-47,-38,-24,-4,0,-2,2
1517188464486074,8,-19,-27,3,-2,-2,-7,-7
1517188464487062,-12,1,-1,4,3,-3,0,22
1517188464487062,-36,-28,19,12,6,4,8,-14
1517188464500083,16,6,-29,-3,-5,-3,-5,-12
1517188464500083,0,14,31,14,1,-2,1,29
1517188464508088,11,52,32,3,3,1,1,24
1517188464508088,-29,-49,-45,-11,-7,-4,-7,-53
1517188464523110,20,22,25,11,5,3,6,10
1517188464523110,-11,-3,20,-6,0,1,-7,4
1517188464524090,14,-20,-30,5,-2,-1,1,25
1517188464524090,10,56,12,11,4,3,4,3
1517188464546105,-24,10,13,-19,-6,-4,-2,27
1517188464546105,-22,-75,-30,5,-8,-5,-11,-24
1517188464547106,12,43,15,-12,-3,-1,0,-9
1517188464547106,-15,-29,18,10,4,3,-2,3
1517188464560114,1,-18,-21,6,2,1,4,10
1517188464560114,-16,8,-30,-29,-6,-4,1,-1
1517188464568137,9,22,26,9,5,4,6,38
1517188464568137,2,0,-61,-24,-9,-6,-3,10
1517188464583171,19,4,17,8,2,3,2,3
1517188464583171,-17,-16,15,12,1,0,0,-21
1517188464584144,-11,17,-1,9,-1,-4,-1,13
1517188464584144,-5,-32,19,-9,-2,-3,0,-39
1517188464607147,-13,-26,-6,1,-5,-3,-3,6
1517188464607147,27,34,-9,-20,0,1,-3,-13
1517188464607147,-5,-4,21,5,-1,-2,0,-9
1517188464607147,21,34,17,2,1,1,7,26
1517188464629162,8,-9,6,-2,0,0,-6,-28
1517188464629162,14,-17,-3,14,3,0,2,5
1517188464630179,-37,41,25,2,2,-1,3,-16
1517188464630179,9,-47,-50,-9,-1,-5,0,12
1517188464643230,21,45,32,8,3,2,-11,-7
1517188464643230,8,-31,-26,-11,-5,-2,-1,16
1517188464644231,9,1,-30,-17,-2,-1,-6,-11
1517188464644231,-10,35,15,9,2,1,-1,10
1517188464666235,-16,-23,3,3,1,-2,1,-9
1517188464666235,-1,16,-2,-1,-1,-4,-2,21
1517188464667250,3,-32,3,-8,0,1,6,-13
1517188464667250,-9,-4,-28,11,5,1,-5,-1
1517188464680256,29,45,-10,0,2,-1,-1,8
1517188464680256,-41,-41,-55,-8,-4,-2,7,-19
1517188464688300,13,14,-4,0,-1,-3,-7,-14
1517188464688300,22,29,63,5,1,2,5,21
1517188464703310,-18,-53,-55,-11,-5,0,0,7
1517188464703310,-2,-18,3,1,-5,-3,-4,5
1517188464704302,-1,64,14,7,2,0,-8,-69
1517188464704302,6,-71,-50,-7,-6,-2,-8,-15
1517188464726329,-14,1,28,11,4,1,6,-5
1517188464726329,-8,9,-18,-6,-4,-1,1,-3
1517188464727318,-9,-52,-24,-6,-2,-2,0,9
1517188464727318,-1,55,30,5,1,0,-1,9
1517188464740331,2,-38,7,-9,-6,-1,5,-21
1517188464740331,4,34,-25,-6,3,1,-5,-6
1517188464748344,6,-24,23,3,-4,-2,8,26
1517188464748344,-3,16,-15,0,3,1,1,5
1517188464763366,-19,38,25,5,-1,-4,1,6
1517188464763366,0,-4,21,-3,-4,-2,-10,1
1517188464764347,3,-16,1,4,-4,-1,-6,19
1517188464764347,-17,7,12,-8,-5,-4,-3,-20
1517188464786374,8,10,-23,4,5,2,-4,4
1517188464786374,-4,1,56,11,2,2,4,5
1517188464787359,5,-1,-14,4,-1,1,1,13
1517188464787359,-12,-18,37,-12,-4,-6,-10,-6
1517188464809377,-7,-13,-12,0,-2,0,-4,-8
1517188464809377,22,-9,-24,11,0,-2,8,15
1517188464809377,-10,-18,-14,-25,-6,-4,-10,-19
1517188464809377,-3,2,-6,8,3,-1,4,1
1517188464823385,12,8,-19,-8,3,-2,4,16
1517188464823385,-4,-5,29,6,-2,1,-7,-47
1517188464830393,5,-23,-8,-2,-5,1,2,9
1517188464830393,2,39,-3,7,1,1,-6,0
1517188464846415,-23,-57,-56,-19,-7,-2,5,-7
1517188464846415,7,68,28,8,-1,0,1,9
1517188464847403,-5,-8,17,-2,0,-3,-5,-8
1517188464847403,11,-9,30,10,2,0,4,17
1517188464869447,-11,24,-12,4,-3,-2,-10,-32
1517188464869447,24,-21,-6,11,5,5,7,22
1517188464869447,-9,-61,-37,-4,-3,0,-5,-55
1517188464869447,-4,-11,-11,-21,-4,-4,-6,1
1517188464883430,11,4,25,11,2,0,3,-1
1517188464883430,-9,1,27,-12,-2,-3,0,21
1517188464884428,-12,-3,-47,5,0,-3,-2,13
1517188464884428,-1,1,22,15,3,4,3,-22
1517188464906482,12,6,-14,-12,-5,-7,-6,2
1517188464906482,-17,31,3,4,-1,-2,4,-6
1517188464907484,20,-41,11,5,1,0,-9,30
1517188464907484,-55,-16,3,-9,-7,-2,-3,-10
1517188464928497,17,33,-1,-2,2,-1,6,14
1517188464928497,-23,-9,-53,-6,-3,-1,-1,-3
1517188464935527,13,38,30,-8,-1,2,1,-5
1517188464935527,9,-30,-14,18,3,3,6,35
1517188464943533,-18,-57,2,-19,-9,-2,-16,-9
1517188464943533,0,-27,21,5,5,1,-3,-31
1517188464944509,-9,25,8,13,-1,-2,4,7
1517188464944509,16,17,-24,-14,-3,1,0,10
1517188464966542,-2,-7,-20,-8,-3,-3,2,3
1517188464966542,0,2,10,0,1,0,-5,2
1517188464967546,-6,-18,0,0,-5,-2,1,12
1517188464967546,-19,-20,-17,-3,-3,-4,-1,-2
1517188464988549,8,6,18,14,3,-1,-1,-13
1517188464988549,21,6,-35,-28,-8,-5,-1,-13
1517188464989540,15,62,22,10,7,1,-4,-8
1517188464989540,-29,-6,-13,-13,-10,-4,4,1
1517188465003559,12,21,-5,-8,-1,1,1,7
1517188465003559,-13,-45,-23,18,5,1,5,5
1517188465003559,-5,6,-21,-8,-3,2,2,0
1517188465003559,46,35,26,-1,0,-3,-3,2
1517188465026584,-26,20,18,13,1,-1,-7,-28
1517188465026584,-7,-6,1,-5,-4,-7,-4,8
1517188465027573,15,-3,17,-7,-7,-5,-2,-44
1517188465027573,14,2,-18,4,6,4,5,-3
1517188465048600,-6,-8,10,-12,-2,-3,1,15
1517188465048600,-18,17,25,12,2,5,-7,-17
1517188465049586,4,57,-3,-8,-2,-4,3,19
1517188465049586,-11,-92,-61,-4,-5,-2,-8,-12
1517188465063611,15,55,46,17,4,0,10,11
1517188465063611,-9,-20,-10,-18,-7,-8,-7,19
1517188465063611,7,-2,7,15,3,2,-2,-3
1517188465063611,20,42,59,-10,0,-1,2,0
1517188465086621,-2,-63,-40,-5,-1,0,1,19
1517188465086621,-6,20,13,-7,-4,-5,-5,-11
1517188465087609,-12,-24,8,7,3,2,1,12
1517188465087609,-11,20,26,10,0,0,-4,-44
1517188465108624,24,-40,-19,-22,-7,-3,-7,0
1517188465108624,-25,7,40,13,0,2,0,5
1517188465109625,-12,-17,-43,-12,-1,-1,1,-18
1517188465109625,15,-20,-21,9,1,-3,-3,45
1517188465123638,5,46,24,10,4,1,0,-58
1517188465123638,9,-17,-47,-3,-2,2,-2,-12
1517188465123638,-15,10,27,-19,-5,-5,-3,-11
1517188465123638,-5,-7,9,11,6,4,0,3
1517188465146663,44,68,-12,-8,-3,-7,10,13
1517188465146663,-6,-26,24,11,1,-1,5,4
1517188465147663,8,16,2,-10,0,1,1,23
1517188465147663,-5,12,-5,-4,-2,-4,3,-19
1517188465168682,-14,8,12,8,3,0,-6,13
1517188465168682,8,23,9,1,2,0,1,-31
1517188465169667,-18,-30,-18,2,0,0,-10,23
1517188465169667,3,32,23,4,1,0,4,11
1517188465183678,-16,-17,-24,4,1,-1,2,7
1517188465183678,-5,16,-7,-17,-6,-4,-2,33
1517188465183678,-7,-6,0,15,1,-5,0,-34
1517188465183678,-3,-15,-5,-9,-3,-1,-14,-13
1517188465206695,-11,-33,13,4,-5,0,4,20
1517188465206695,17,-69,-26,-10,-3,-3,-8,14
1517188465206695,3,11,-4,-10,-1,-2,1,-10
1517188465206695,-10,-13,-3,13,2,-2,-2,-18
1517188465228719,-13,10,17,-4,-3,-2,2,14
1517188465228719,-2,14,23,6,4,2,8,18
1517188465229710,17,-33,-3,-2,-6,-3,-9,-3
1517188465229710,-25,12,-21,-10,-1,-2,-3,-28
1517188465242817,-1,-27,-12,0,3,3,-2,3
1517188465242817,13,53,18,20,4,5,9,-5
1517188465243779,-8,-51,-29,-24,-9,-3,2,33
1517188465243779,-3,-20,-17,-3,0,-1,4,9
1517188465266804,2,18,1,-2,1,-3,-4,13
1517188465266804,-15,6,10,2,2,1,4,-28
1517188465266804,-3,-14,1,10,0,3,6,6
1517188465266804,66,42,-33,-10,-1,-3,-2,22
1517188465288819,-21,-32,4,-9,-6,-3,5,-36
1517188465288819,23,2,-18,0,7,1,1,4
1517188465289809,1,50,29,21,6,3,6,23
1517188465289809,-2,26,7,-4,-4,-3,-3,-37
1517188465302831,-7,-8,22,8,2,1,0,4
1517188465302831,21,-17,-14,-12,-10,-7,-6,4
1517188465303836,-12,23,-9,0,2,-1,-3,-11
1517188465303836,15,-4,29,-9,-3,-3,-1,27
1517188465326841,-8,40,7,6,-2,-1,-7,-26
1517188465326841,-41,-8,28,0,1,4,8,6
1517188465326841,7,-13,-12,6,-3,-1,5,4
1517188465326841,-2,8,29,-3,-1,1,-2,-3
1517188465348851,10,6,-36,-4,-1,-2,-5,10
1517188465348851,7,18,-3,-5,-2,-2,-3,-8
1517188465349852,-11,-23,28,11,-2,-3,-4,8
1517188465349852,-3,18,-19,-20,-2,-1,0,-41
1517188465362863,-2,-41,15,-2,0,0,-4,-8
1517188465362863,-27,-35,7,20,6,3,-5,-5
1517188465370877,23,41,-23,-8,-2,1,11,5
1517188465370877,5,-22,-24,-18,-4,-1,-4,17
1517188465386901,15,0,13,6,2,0,-5,0
1517188465386901,-16,-23,-35,-8,-5,-5,-5,-15
1517188465386901,-3,25,44,7,1,-1,-5,-16
1517188465386901,-50,-25,15,6,-1,-5,-2,22
1517188465408895,-3,0,-20,-3,-2,2,5,-10
1517188465408895,29,2,-18,-8,-2,-1,8,18
1517188465409896,-22,31,5,-3,-3,-4,-17,-23
1517188465409896,-5,-48,-18,12,0,-2,3,9
1517188465422909,-10,-23,-48,-41,-10,-5,-15,-10
1517188465422909,-1,11,41,7,-1,-2,-3,24
1517188465430911,0,20,-8,-1,-2,-6,-11,-22
1517188465430911,4,-11,-24,10,-1,-1,0,-4
1517188465445920,-2,40,30,6,-2,-5,-1,11
1517188465445920,21,32,-3,-4,-1,-1,4,7
1517188465452925,12,-27,0,-2,1,5,7,20
1517188465452925,-21,-9,-12,-4,-4,-3,-7,-8
1517188465468937,-9,-5,-30,6,3,1,-3,3
1517188465468937,1,-67,-19,-10,-7,-3,-6,-18
1517188465469937,-34,-4,15,7,0,0,3,5
1517188465469937,18,20,8,-11,-1,-2,-3,-3
1517188465482947,15,4,7,8,4,3,7,11
1517188465482947,28,25,15,2,-1,-2,-7,-11
1517188465490952,12,-23,-32,2,-2,0,-6,4
1517188465490952,-13,-23,-25,-13,-1,-1,1,0
1517188465506966,-1,-14,4,4,1,2,2,9
1517188465506966,-3,10,13,9,2,-1,-1,3
1517188465507964,-13,-13,-1,-10,-4,-2,-3,-7
1517188465507964,19,-17,-22,5,-2,2,2,9
1517188465528993,-16,-28,-1,6,-2,-3,-12,-9
1517188465528993,-16,-3,-10,-1,1,2,-1,-5
1517188465529994,10,-31,-8,-9,-2,0,6,22
1517188465529994,-14,47,25,20,2,1,-10,-76
1517188465550994,-4,4,-20,-12,-6,-4,2,15
1517188465550994,4,-19,-4,-9,-3,0,1,0
1517188465553013,-8,-10,18,-11,-3,-4,-1,-14
1517188465553013,26,-17,-1,2,3,-1,2,19
1517188465566019,7,11,22,4,0,3,2,16
1517188465566019,-17,43,-21,-3,-3,-2,-3,-19
1517188465568007,-4,-35,31,4,-4,-2,2,-1
1517188465568007,-10,-17,16,8,-2,1,0,19
1517188465589031,-3,-36,-42,-17,-2,-2,-2,-11
1517188465589031,-2,39,6,-2,-1,0,1,6
1517188465590022,16,22,-25,8,0,-2,-1,-1
1517188465590022,-32,16,21,-10,-3,-1,-7,-5
1517188465603043,10,5,24,11,3,0,-1,-2
1517188465603043,-9,-9,-19,-4,-1,1,3,-5
1517188465612053,23,31,-3,5,3,0,-6,-7
1517188465612053,-7,-4,-22,-37,-11,-6,4,15
1517188465626050,-19,54,28,1,2,2,8,43
1517188465626050,5,-41,-47,4,-2,-1,-11,-64
1517188465628057,-1,-17,11,-8,-3,-1,-2,-4
1517188465628057,13,18,7,11,3,2,2,10
1517188465649067,-5,-3,0,-4,-2,-4,6,10
1517188465649067,-5,11,19,-1,-1,-3,-2,16
1517188465651068,-4,-4,-11,1,4,3,4,7
1517188465651068,11,31,18,9,-1,-3,-13,-19
1517188465663075,22,12,11,-4,0,1,4,14
1517188465663075,-16,-38,-23,-4,-5,-4,3,-2
1517188465672080,-20,28,7,10,2,-2,5,-28
1517188465672080,-2,7,-4,-18,-4,0,-3,8
1517188465686090,3,15,11,16,3,-4,-15,-46
1517188465686090,-3,-2,5,-17,-7,1,1,37
1517188465688092,11,-2,-11,-14,-2,0,-1,32
1517188465688092,-32,17,40,12,-1,0,5,-54
1517188465709108,-9,-28,-13,-2,-3,-4,-4,1
1517188465709108,5,-3,0,8,2,0,-3,-5
1517188465710108,-9,19,23,-5,0,-2,-4,-19
1517188465710108,22,-64,-74,-9,-4,-4,1,17
1517188465731139,-24,-9,-5,-8,-1,-1,-1,0
1517188465731139,6,24,20,7,3,2,-3,-11
1517188465733135,-15,-26,3,1,-1,2,-3,20
1517188465733135,13,18,22,15,3,-2,0,23
1517188465746133,2,-15,-13,-25,-6,-2,1,-22
1517188465746133,4,-2,-8,3,1,1,1,21
1517188465748134,22,13,4,-4,-2,-1,-2,-12
1517188465748134,-4,7,0,8,3,0,2,0
1517188465769166,-3,-11,-9,4,1,0,0,1
1517188465769166,-12,7,26,-1,-1,2,1,0
1517188465770173,2,-29,-17,-2,-4,-3,-4,-9
1517188465770173,-1,0,-1,0,-2,0,-3,4
1517188465791174,7,-8,-9,-3,-2,-2,2,0
1517188465791174,0,-2,10,-3,-2,-2,2,6
1517188465793169,-2,-1,-19,-2,-2,-1,0,-11
1517188465793169,8,1,-3,-4,1,1,4,12
1517188465806192,1,3,10,7,2,-1,-5,-7
1517188465806192,-5,0,-2,-4,-4,-6,-7,-9
1517188465808178,-1,-6,-14,3,2,2,0,4
1517188465808178,0,17,11,-12,-1,0,2,3
1517188465829217,2,-23,-3,10,-3,-4,-4,-9
1517188465829217,-3,0,11,-13,-2,-1,1,1
1517188465830199,1,2,-4,-2,0,-3,-3,2
1517188465830199,-8,-1,-12,3,-2,-1,1,-8
1517188465851209,5,12,-4,0,-1,-2,-3,-9
1517188465851209,4,6,19,9,0,-2,0,13
1517188465853209,4,-7,-15,-1,0,0,2,-8
1517188465853209,0,-2,10,2,0,-3,-7,-3
1517188465866218,-5,0,-14,-6,-2,-1,-3,-3
1517188465866218,1,12,7,9,0,0,-1,-7
1517188465872223,-1,-1,-4,-21,-3,0,-2,-4
1517188465872223,6,-4,7,9,2,-1,2,12
1517188465890235,-5,-1,-12,-1,-1,0,1,0
1517188465890235,3,-3,-9,0,-1,1,-3,-3
1517188465892237,1,-12,8,2,0,-5,-4,-2
1517188465892237,-4,3,-8,-1,-4,-2,-2,1
1517188465911249,1,-9,-15,-6,-1,-2,2,10
1517188465911249,-3,16,18,-1,4,1,2,-31
1517188465913250,-10,-24,-10,0,-5,-3,-5,-2
1517188465913250,6,-3,-2,3,0,-1,4,8
1517188465925259,4,7,5,4,1,0,-2,1
1517188465925259,0,-12,-7,-1,0,-3,1,7
1517188465932278,0,17,1,1,0,-1,-4,-14
1517188465932278,0,4,4,-1,0,-3,0,8
1517188465949276,-3,-1,-7,3,0,0,1,-6
1517188465949276,2,-12,-2,-8,-1,1,0,10
1517188465950281,-3,6,5,-2,-2,0,2,-2
1517188465950281,-5,-3,-6,-4,-2,0,0,1
1517188465971302,0,5,6,1,-1,-2,-2,-6
1517188465971302,-3,-6,2,3,0,-2,-1,2
1517188465973303,1,-2,-5,8,1,0,-2,4
1517188465973303,3,0,-3,-8,1,0,-4,-4
1517188465985312,-4,-5,3,-1,0,-1,2,0
1517188465985312,2,11,6,0,-5,-5,-2,0
1517188465992306,-4,-2,-1,10,3,1,2,2
1517188465992306,1,-5,-10,-21,-3,-1,-2,1
1517188466009320,-1,0,0,-4,-1,-1,-4,-4
1517188466009320,-2,-13,-1,0,-2,-1,-1,3
1517188466010321,-5,-2,4,7,2,1,3,-2
1517188466010321,0,-5,-4,5,1,1,0,2
1517188466031340,-6,-6,8,-2,1,-1,4,-1
1517188466031340,-1,8,4,-3,-2,2,-1,-1
1517188466033336,-8,-11,-1,3,-2,-3,-1,-2
1517188466033336,-7,-2,-7,-5,-2,-2,0,-4
1517188466045345,1,1,0,0,-1,-1,-1,-3
1517188466045345,2,-8,-8,7,0,-1,-3,1
1517188466060356,1,8,1,-15,-5,-2,-2,1
1517188466060356,-6,1,8,10,5,0,0,1
1517188466069364,1,2,-2,-6,0,1,0,1
1517188466069364,-1,1,-3,-1,-1,-1,-2,1
1517188466070375,4,3,-2,0,0,0,-1,2
1517188466070375,-3,-4,-5,9,-2,0,-1,-3
1517188466091378,5,6,5,-13,-3,1,-2,-1
1517188466091378,-7,-2,-2,-6,-2,0,-3,0
1517188466093381,-4,-24,1,2,-1,-1,0,-2
1517188466093381,1,-1,-8,0,-3,-1,-1,-2
1517188466105403,-3,-4,-3,1,0,0,-2,-3
1517188466105403,3,3,1,-4,-1,-1,1,-2
1517188466112392,1,1,-2,-5,-2,0,-1,0
1517188466112392,-2,4,11,5,1,0,2,0
1517188466128407,1,-4,-2,1,-3,0,-2,1
1517188466128407,-1,-4,-4,-1,1,-2,1,0
1517188466130407,3,8,0,1,-3,-2,-3,2
1517188466130407,3,-1,-2,-2,-3,-2,-2,-2
1517188466151483,4,5,-2,-4,-3,0,-1,16
1517188466151483,-4,-3,1,-3,5,3,-1,-44
1517188466153469,10,8,-2,-2,0,-2,-2,1
1517188466153469,-3,-3,0,2,-3,0,4,5
1517188466165478,-17,-8,0,11,-1,-3,-5,-9
1517188466165478,2,0,-5,-18,-2,1,-1,19
1517188466172493,4,9,2,3,3,-1,-1,-29
1517188466172493,-4,-10,1,-5,2,-1,-4,-4
1517188466188504,15,9,-2,1,1,0,2,-1
1517188466188504,-4,-13,-2,15,-2,-3,0,0
1517188466190496,-8,-13,-5,-16,0,-2,2,9
1517188466190496,-2,1,9,15,-3,-3,-1,5
1517188466211570,-3,0,-3,0,1,0,-1,-8
1517188466211570,0,5,-1,-5,1,2,-2,10
1517188466217578,-4,-5,3,2,-2,0,-2,5
1517188466217578,6,6,-7,-2,1,-2,-1,-5
1517188466224580,1,-2,-3,-4,0,-1,-1,2
1517188466224580,-6,-6,1,3,-3,-1,0,-1
1517188466233597,1,-1,-3,-2,-1,-1,4,5
1517188466233597,-7,-6,-1,-5,0,2,1,-4
1517188466248608,0,2,1,-3,-1,-2,-3,-2
1517188466248608,-1,1,2,-2,-4,-4,-2,4
1517188466250609,0,5,-4,2,-1,0,-2,-2
1517188466250609,1,2,-2,-5,-2,-3,-2,1
1517188466271623,-3,-4,0,0,0,-2,-1,-1
1517188466271623,-1,-2,5,6,1,-1,0,3
1517188466272625,-2,4,-6,-3,-1,-2,-1,1
1517188466272625,-1,-4,-6,-1,-1,0,-1,-5
1517188466285622,-1,-6,-4,-2,-1,-1,1,-3
1517188466285622,0,1,0,-4,-1,-1,-2,-2
1517188466294629,-2,2,1,0,-1,2,-3,1
1517188466294629,1,5,-2,-3,-1,-1,0,0
1517188466308650,0,1,10,5,2,-1,0,0
1517188466308650,-1,-4,-21,-7,-3,0,0,2
1517188466310642,-1,-2,0,1,-2,-2,-1,-1
1517188466310642,0,1,-1,-2,0,-1,-1,-3
1517188466331657,-2,-1,1,-1,-1,-2,0,-2
1517188466331657,2,-1,8,3,0,-2,1,-1
1517188466332662,-5,0,2,0,-1,-1,0,1
1517188466332662,4,-1,-5,-2,-1,-1,0,-1
1517188466344676,-6,-5,2,0,0,-2,-1,-2
1517188466344676,0,4,-1,-1,0,-1,-1,0
1517188466353670,2,-3,-5,-4,-1,-1,-1,1
1517188466353670,-2,-1,1,-1,-1,-3,-2,0
1517188466368692,1,3,-6,-4,-2,1,0,1
1517188466368692,1,-3,-3,0,0,1,-1,-1
1517188466370694,-2,-1,1,0,-3,-3,-1,0
1517188466370694,0,-3,1,0,-1,-1,-3,-1
1517188466391699,3,0,-3,-3,-1,0,-1,0
1517188466391699,-7,0,2,-1,-2,0,1,-1
1517188466392698,0,-19,-5,1,1,-1,1,-1
1517188466392698,-1,4,0,-2,-2,-2,-2,-2
1517188466404718,0,-1,-5,-1,-3,-2,0,0
1517188466404718,1,-3,1,0,-1,-3,-1,-2
1517188466413713,3,-11,5,0,-1,1,0,0
1517188466413713,-8,-3,-2,-2,1,-1,0,0
1517188466428738,-1,1,0,-1,0,0,-2,-2
1517188466428738,1,-2,2,0,-2,-2,-1,0
1517188466430728,1,7,-2,-2,-1,0,-1,-1
1517188466430728,3,-3,-3,-2,0,1,-2,-1
1517188466451765,-1,1,0,-1,-1,-1,-1,-2
1517188466451765,-4,3,0,2,-1,3,0,-2
1517188466452742,-4,4,-1,-3,-2,-4,-1,-1
1517188466452742,0,2,-1,-3,-1,-1,0,-2
1517188466464776,-2,-4,-4,1,0,-1,-3,-3
1517188466464776,3,0,-1,-3,-1,-1,-4,-1
1517188466474759,1,3,-2,0,0,0,-2,1
1517188466474759,-1,14,3,0,0,-2,-1,0
1517188466488781,0,-2,-2,-2,-1,0,0,-2
1517188466488781,1,-2,0,0,-5,-2,0,-1
1517188466490773,-2,10,1,1,-1,1,-1,-2
1517188466490773,-2,-7,-3,-3,0,-2,-1,-1
1517188466511783,-1,-1,0,-1,-1,-2,-1,-1
1517188466511783,-1,0,0,0,2,0,-2,0
1517188466512784,-2,-5,-3,-1,-3,-2,0,0
1517188466512784,1,2,1,1,0,2,-1,2
1517188466524793,-1,-1,-2,-1,-1,-4,1,0
1517188466524793,-4,-4,-4,-1,0,-2,-2,-1
1517188466533800,-1,5,-2,-1,-1,0,-1,0
1517188466533800,-1,-6,-2,-1,-1,0,-1,-2
1517188466548819,0,2,0,-3,-1,1,-2,1
1517188466548819,0,-2,1,-1,-1,-3,0,-1
1517188466550821,-1,1,0,-2,0,-2,-1,-2
1517188466550821,-2,-4,-5,-1,-2,0,-1,-1
1517188466571825,-2,-2,-5,-1,1,0,0,-1
1517188466571825,1,-2,0,-2,1,-1,-1,-1
1517188466572828,-2,-1,-2,-3,-1,0,0,-2
1517188466572828,-2,-3,-2,0,0,0,-2,-2
1517188466584850,-5,2,0,0,-2,-2,-3,-1
1517188466584850,-1,0,1,-1,-3,-1,2,0
1517188466594902,-1,0,1,-2,0,-1,0,1
1517188466594902,-1,-4,-1,0,-1,-3,0,0
1517188466608915,-1,-2,1,1,-2,0,0,1
1517188466608915,0,-1,-1,-2,-1,-2,-2,-1
1517188466610908,-2,-1,-1,0,-2,-3,-3,-3
1517188466610908,-2,-2,-2,-3,0,1,0,-2
1517188466630943,-1,-2,0,-3,-1,1,-3,-2
1517188466630943,-2,0,1,0,-2,-1,0,0
1517188466632922,1,2,-1,-1,-1,-3,0,0
1517188466632922,0,-7,1,-2,-2,-1,0,-1
1517188466653955,-2,-1,-3,-1,-1,-1,2,0
1517188466653955,0,-13,-1,0,0,-1,-1,-1
1517188466655957,-1,-4,-2,-1,-1,1,-1,-4
1517188466655957,2,-5,-3,0,-3,-3,0,0
1517188466667945,0,4,0,-1,-2,-1,0,-1
1517188466667945,-2,-3,-1,-2,-2,1,-2,1
1517188466674950,-2,-4,0,0,0,1,-2,-2
1517188466674950,-1,2,-3,-2,-1,-1,-1,-1
1517188466691962,-1,-7,-3,1,0,-3,-1,-1
1517188466691962,1,4,-1,-1,-1,-3,1,1
1517188466692963,-2,0,-2,-1,-2,-2,-1,-1
1517188466692963,-2,2,0,-1,-1,-1,-1,-1
1517188466713992,-2,-1,0,0,-1,-2,1,-1
1517188466713992,-2,4,-1,-2,-1,-1,-2,-2
1517188466714978,-1,1,-2,0,0,-1,2,1
1517188466714978,-2,-3,-2,-1,-1,-1,0,-2
1517188466728988,0,0,-1,0,-2,0,-4,0
1517188466728988,1,-2,-1,-1,-2,1,-2,-2
1517188466729989,0,-4,-1,-3,-1,1,-1,0
1517188466729989,-6,0,-1,-1,1,-2,0,-1
1517188466759019,1,-1,0,-2,-2,-2,-1,-2
1517188466759019,1,0,-1,1,0,1,1,-2
1517188466760019,1,1,0,0,-1,-1,0,-1
1517188466760019,-1,-1,-1,0,-2,-1,-1,-1
1517188466774031,-3,7,2,-3,1,1,-2,-1
1517188466774031,-3,0,0,-2,-3,-3,0,-1
1517188466775021,-2,-2,-3,-1,-1,0,0,-1
1517188466775021,1,-1,0,0,-1,-1,-2,0
1517188466788040,0,-5,-1,-2,-1,-1,-3,-2
1517188466788040,-3,-4,-4,-2,0,1,-3,-2
1517188466795046,-2,1,-3,-1,-1,-1,-2,-1
1517188466795046,4,26,2,-1,-1,-1,1,1
1517188466811049,1,-4,-2,-2,0,-2,2,0
1517188466811049,-3,-1,1,1,0,-1,-2,0
1517188466813047,-1,-1,-1,-3,-3,-3,-3,0
1517188466813047,-3,-8,-4,-2,1,-2,-3,-1
1517188466834073,-1,1,-3,0,-1,-2,-1,-1
1517188466834073,1,5,3,-2,-2,-1,0,-2
1517188466835065,-2,-3,-1,-1,-2,1,-1,-1
1517188466835065,-1,-5,-3,0,0,-2,-3,0
1517188466848083,0,0,2,-4,-3,-1,-2,-1
1517188466848083,0,0,-2,-2,-3,-1,-2,0
1517188466855095,-1,0,1,1,0,0,-2,-1
1517188466855095,-1,-3,-2,-2,-1,-1,0,0
1517188466870114,0,-3,-1,1,-1,1,-2,-1
1517188466870114,1,2,2,0,1,-1,-1,-1
1517188466879097,0,-2,-1,-1,0,-2,1,0
1517188466879097,-1,-3,0,-1,0,-1,0,-2
1517188466894116,1,-5,-2,1,-3,-1,-2,-1
1517188466894116,-2,0,-1,-1,0,-2,0,-1
1517188466896106,-1,-1,-1,-1,0,-1,-2,-2
1517188466896106,-2,-7,-3,-2,-3,2,0,-2
1517188466908118,0,-3,0,-2,-1,0,1,-1
1517188466908118,-1,0,-2,-1,-1,0,-1,-1
1517188466915126,-1,6,-1,-2,0,-2,-1,-2
1517188466915126,-2,-1,-3,1,1,-2,-3,1
1517188466931144,-2,-1,-1,2,-1,-2,-1,-2
1517188466931144,1,-2,-1,0,-2,1,0,0
1517188466933135,-1,-2,-1,-1,-2,0,0,-2
1517188466933135,-2,-1,-2,-3,-2,1,-1,-3
1517188466954149,1,2,0,-1,-2,-2,0,-2
1517188466954149,-1,-2,2,1,0,-1,0,-1
1517188466955149,0,-4,-1,-1,-1,0,0,0
1517188466955149,1,-2,-1,-1,0,-2,-1,-2
1517188466968175,-3,1,0,-1,0,-3,-1,-1
1517188466968175,0,-1,0,-1,0,0,-1,-1
1517188466975164,-1,-2,0,-1,1,1,0,-1
1517188466975164,-1,0,-1,-1,-2,-3,1,-1
1517188466991177,-2,0,0,-1,2,0,-1,-1
1517188466991177,1,-2,-2,0,-2,-3,-1,-1
1517188466993175,-2,-1,-1,-2,-1,-3,0,0
1517188466993175,-1,-2,0,-1,-3,0,-1,-1
1517188467014189,-1,6,-1,-1,-2,-3,-2,-1
1517188467014189,-2,-1,-1,-3,1,0,-2,0
1517188467015190,-2,-2,-1,-1,0,-1,1,1
1517188467015190,-2,-1,-3,-1,-1,-1,-2,0
1517188467028200,-1,-8,0,-1,0,1,-1,-1
1517188467028200,-3,0,0,-2,0,1,1,-3
1517188467035223,0,-2,-1,1,0,-1,-1,-2
1517188467035223,2,1,0,-3,1,-2,-2,-1
1517188467051227,-1,-3,-3,1,-2,1,-1,1
1517188467051227,-1,-2,-1,-1,0,-1,-2,0
1517188467053220,-1,-3,-1,-2,-4,-3,-3,1
1517188467053220,-2,-2,-2,-1,0,-3,1,0
1517188467074235,-1,-2,-2,-1,0,-1,-3,-2
1517188467074235,-1,-1,-1,-2,-1,1,1,-1
1517188467075232,-3,0,-3,-2,-1,-4,0,-1
1517188467075232,0,-1,-2,-2,-2,1,-1,-1
1517188467088253,-1,1,-2,0,-2,1,1,0
1517188467088253,5,-3,-3,-1,-2,-3,-1,0
1517188467095258,0,-2,2,0,1,-1,-1,-3
1517188467095258,-1,-1,-1,-1,-1,2,1,1
1517188467111264,0,-2,-1,-1,0,-1,0,1
1517188467111264,-1,-2,-1,1,0,-3,-1,0
1517188467113261,-2,-1,-1,-2,1,0,-1,-1
1517188467113261,-1,0,0,1,0,-2,0,-1
1517188467134306,0,-1,0,0,-1,0,-1,-3
1517188467134306,-2,1,-2,-1,-2,0,0,-1
1517188467135277,-1,-2,-3,-1,-3,-2,0,-1
1517188467135277,0,-2,-1,1,0,-2,0,-2
1517188467147313,-1,-2,-1,-2,-2,-1,0,1
1517188467147313,-2,-2,0,-2,-1,-2,0,0
1517188467156319,-2,-4,-3,0,-2,-1,0,-3
1517188467156319,-2,-1,-4,0,-2,2,-3,-2
1517188467171319,0,-1,-2,-1,-3,-4,-2,-1
1517188467171319,-1,-1,1,0,0,1,-2,-1
1517188467173305,0,-2,1,1,-2,-2,-2,-1
1517188467173305,0,-3,-2,-3,1,-1,-1,-2
1517188467194329,-2,0,-1,0,-4,0,0,-1
1517188467194329,-1,4,-1,-1,-3,-2,-3,-2
1517188467195320,-1,1,0,-1,1,0,-2,0
1517188467195320,-2,0,0,-1,-4,0,-1,-1
1517188467208328,-2,1,0,-2,0,-3,0,-1
1517188467208328,0,-1,-1,-2,0,0,-1,-1
1517188467216331,0,0,0,-3,-1,-2,0,-1
1517188467216331,-2,-2,0,-2,-1,-2,-2,-2
1517188467231345,1,-3,0,-3,1,-3,-1,-1
1517188467231345,-1,-2,0,-1,-4,1,-3,0
1517188467233360,1,1,-1,-2,-2,1,-2,-1
1517188467233360,1,2,-3,-1,-1,1,-1,1
1517188467254358,-1,-1,-1,0,0,1,-3,0
1517188467254358,-1,-2,1,-1,-1,-4,0,-2
1517188467255374,-2,0,-1,-1,-2,-1,-1,0
1517188467255374,-2,-3,-1,0,-1,-1,-1,-1
1517188467267371,-1,-1,0,-1,-1,1,1,-1
1517188467267371,-1,-2,0,-1,-3,0,1,-3
1517188467276375,0,-3,-2,-1,-1,0,-2,-3
1517188467276375,-3,-1,-3,-2,-2,-3,-2,-3
1517188467291400,0,3,-1,1,-1,-1,-2,0
1517188467291400,0,3,-1,-1,-2,-1,-2,-1
1517188467293389,-1,-1,-2,-3,-1,0,-2,-1
1517188467293389,0,-1,-3,-1,0,0,0,-2
1517188467314412,-2,0,-1,-3,0,-2,-1,-1
1517188467314412,-1,-2,1,1,1,-2,-2,-1
1517188467315402,0,0,-1,-1,0,-1,-1,0
1517188467315402,1,-1,1,-1,0,-2,0,0
1517188467327436,-1,-3,1,0,-1,1,-2,-1
1517188467327436,-1,-2,-1,0,0,-1,1,0
1517188467336443,-2,1,-2,-1,0,-1,1,-1
1517188467336443,0,-1,-2,0,-3,-2,-2,-3
1517188467351453,0,-1,0,-2,0,0,0,0
1517188467351453,-1,-2,1,-2,0,-2,0,-1
1517188467353435,-1,0,-1,-2,-1,-3,-3,-1
1517188467353435,0,-1,2,0,-2,0,2,0
1517188467374471,-1,-2,-1,1,-3,-1,1,-2
1517188467374471,0,-1,-2,0,-2,-1,-3,-1
1517188467375446,0,-1,-2,-1,0,-1,0,-3
1517188467375446,-1,0,-1,-1,-1,-3,-1,-1
1517188467387463,-1,0,0,0,0,-2,-1,-2
1517188467387463,-2,-2,0,-3,0,-2,1,-1
1517188467396460,0,-3,-1,0,-2,0,0,-1
1517188467396460,0,-2,-2,-1,1,-1,-1,0
1517188467411471,-1,-2,1,-1,-2,-1,-2,-2
1517188467411471,-1,-1,-1,1,-2,0,-1,-2
1517188467413473,0,-6,-2,0,0,0,-4,0
1517188467413473,-4,-5,1,0,0,0,1,0
1517188467434493,0,2,-1,1,-2,0,0,-1
1517188467434493,-1,1,-2,0,-2,-1,0,0
1517188467435488,-1,1,0,-2,-2,-1,-1,1
1517188467435488,-3,0,-2,-1,-1,-1,-2,0
1517188467447502,1,-2,-1,-3,-1,-2,-1,-2
1517188467447502,-3,-3,0,-1,-1,0,0,-2
1517188467456508,3,-2,-4,0,-1,-2,0,0
1517188467456508,-3,-2,-2,-1,1,-1,-3,-2
1517188467471515,-1,-1,-1,-1,-1,1,-2,-1
1517188467471515,1,1,-1,1,0,-1,-3,0
1517188467472516,0,3,0,-3,1,-2,-1,0
1517188467472516,0,0,-2,-4,-3,0,-1,0
1517188467493538,1,-1,-2,-3,-1,-2,-2,-3
1517188467493538,0,-2,0,1,0,1,-1,-2
1517188467495529,-2,-1,-2,0,-3,-2,1,-2
1517188467495529,1,0,-1,-2,0,0,-1,-1
1517188467507538,-1,0,1,-2,-2,-3,-2,-1
1517188467507538,0,-1,-1,-3,-1,-1,-2,-2
1517188467516545,-2,4,0,1,0,0,2,-1
1517188467516545,1,0,-2,0,-3,-1,0,-1
1517188467531565,0,-2,-2,0,-3,0,1,0
1517188467531565,0,-1,-1,-3,-1,-1,-3,0
1517188467532565,-5,-2,0,-1,-2,-1,-1,1
1517188467532565,-1,-1,-1,-1,0,-2,-1,0
1517188467553584,2,8,4,0,-1,-2,-1,-2
1517188467553584,-1,1,0,0,-1,-2,-2,-2
1517188467555585,-1,-1,-4,-3,0,0,-1,-1
1517188467555585,0,0,-2,0,-1,-3,-1,-1
1517188467567580,-1,-2,-2,0,0,1,-1,0
1517188467567580,-1,-1,-2,-2,0,-2,-1,0
1517188467576587,0,0,-1,-2,0,-2,-2,-2
1517188467576587,0,1,0,-1,-2,-1,-2,-3
1517188467591599,-2,-4,-2,-1,-4,-2,0,-3
1517188467591599,-2,-1,0,0,-3,1,1,-1
1517188467592598,-4,-5,-1,-2,1,-2,0,-1
1517188467592598,0,-2,-2,-1,-2,-1,0,-1
1517188467613630,-2,-2,-2,0,0,0,0,0
1517188467613630,-2,5,2,0,-2,-1,0,0
1517188467615624,1,-1,-2,-2,-1,2,-1,0
1517188467615624,-3,2,0,-3,0,-2,-1,-2
1517188467636643,-2,-1,-1,0,-1,-1,0,-2
1517188467636643,1,-5,-4,0,-2,1,-2,-1
1517188467637630,-2,-1,0,0,-1,-2,-1,0
1517188467637630,-3,-2,-2,-1,-1,0,-1,-1
1517188467651650,2,-3,0,-1,0,-2,-3,-3
1517188467651650,0,-4,-1,0,1,-4,-1,-3
1517188467652641,0,-3,-1,-2,-4,-1,-1,-2
1517188467652641,-1,-2,-2,1,-2,3,-1,-1
1517188467673665,-1,1,0,-2,0,2,-1,-1
1517188467673665,-2,0,0,-1,-1,0,0,0
1517188467675656,-2,-1,-3,0,1,0,-3,-3
1517188467675656,-1,-3,-1,-2,-1,-2,-1,-1
1517188467696672,-4,0,-2,-1,0,0,0,1
1517188467696672,0,-2,-1,-1,0,-3,-3,1
1517188467697691,0,0,-2,0,1,-2,-1,0
1517188467697691,0,-1,-2,-1,-1,-2,-2,-4
1517188467711683,1,0,0,0,-1,-3,-2,-1
1517188467711683,0,-5,-2,-2,-2,0,-1,-2
1517188467712684,1,3,0,0,-3,-1,2,0
1517188467712684,1,-2,0,-2,0,2,0,1
1517188467733712,-3,-3,-1,-2,-1,-1,-1,-1
1517188467733712,0,0,-2,-1,-2,-1,-1,-2
1517188467735699,1,-3,-3,-3,-1,-2,-3,-2
1517188467735699,-4,1,-1,-1,0,-2,0,0
1517188467756774,0,-1,0,0,0,1,-1,-1
1517188467756774,-2,-1,1,-1,-1,-1,0,-1
1517188467757715,-3,-3,-2,-1,-3,0,-1,0
1517188467757715,-2,-1,-2,0,-1,0,1,-3
1517188467770737,-1,-1,0,0,-2,-1,-1,-4
1517188467770737,-2,-1,-2,-1,1,-2,-3,-2
1517188467777743,2,0,-4,-2,-2,-1,0,-1
1517188467777743,1,1,-3,-3,-1,-1,-2,0
1517188467793742,-2,-3,0,-2,0,1,-1,1
1517188467793742,-1,-1,0,-2,-2,-1,-1,-2
1517188467796757,-2,-3,-1,1,1,0,0,-3
1517188467796757,-1,-2,-4,-1,-1,-1,0,-2
1517188467816763,0,-2,0,-2,0,-4,-2,-2
1517188467816763,-1,-1,-3,-1,-4,0,0,-1
1517188467817759,-2,-3,-2,-1,0,-1,-1,0
1517188467817759,-1,0,-1,-2,-1,-3,-2,-1
1517188467830794,0,-2,3,0,-1,-1,-1,1
1517188467830794,-1,-7,2,0,2,0,-1,0
1517188467837772,-1,0,-1,-1,-1,-1,0,-1
1517188467837772,-2,-5,-1,0,-1,-2,-2,-2
1517188467853798,-2,0,0,-2,-1,2,-2,0
1517188467853798,-2,0,-3,-1,-1,-2,-1,0
1517188467855795,-1,0,-2,-1,-2,-2,-2,0
1517188467855795,-1,2,-4,0,0,-1,-1,0
1517188467876810,-3,-5,-3,-1,-1,-1,0,-2
1517188467876810,0,0,0,0,-1,-2,0,-2
1517188467877799,-3,-5,-2,-2,-2,-1,0,-2
1517188467877799,-2,-1,0,-1,-2,-1,-2,-1
1517188467890810,-1,-1,0,1,0,0,0,-1
1517188467890810,1,0,0,-3,-1,-1,-1,-3
1517188467897830,-1,-1,-2,-1,2,-1,-1,0
1517188467897830,-1,-4,-1,-1,1,1,-1,-1
1517188467913854,-3,1,-1,-3,-3,-1,0,0
1517188467913854,0,-3,-1,-1,-1,-3,0,-3
1517188467915832,-2,-2,-4,-5,-2,0,-2,-3
1517188467915832,0,5,-2,1,-1,-1,0,-2
1517188467936842,0,-2,0,-3,-1,0,-1,-3
1517188467936842,-1,0,-1,0,1,1,-2,-1
1517188467937857,0,0,-1,0,0,-1,-1,0
1517188467937857,-2,-1,-1,0,0,-1,-1,-1
1517188467950866,-1,-1,0,-3,0,1,-1,0
1517188467950866,-1,1,-2,-1,-3,-1,0,0
1517188467957856,-3,-2,0,0,2,1,-1,-2
1517188467957856,-1,-3,0,0,-2,-1,0,-2
1517188467973883,-1,-2,-1,1,1,-2,-1,0
1517188467973883,-2,-5,1,0,-1,0,-1,-1
1517188467975869,0,0,-1,-1,-2,-1,-4,-1
1517188467975869,0,-3,-1,-2,-1,-3,-1,-1
1517188467995893,-2,-2,-2,-2,-2,-3,1,-1
1517188467995893,-5,3,0,-1,-2,0,0,0
1517188467997887,0,-2,-1,0,-2,-2,0,-2
1517188467997887,1,-3,1,-3,-3,1,-1,0
1517188468010904,1,-1,0,1,-1,0,0,0
1517188468010904,0,-1,0,-1,1,-4,-2,1
1517188468017914,-1,0,0,0,-4,-2,-2,1
1517188468017914,-3,-7,2,1,1,0,-2,0
1517188468033910,0,-1,-2,0,-2,-1,0,0
1517188468033910,1,-2,0,-2,-3,-1,-1,-1
1517188468035913,-2,2,1,-2,0,0,1,-2
1517188468035913,-2,-2,-3,-2,-2,-3,-1,-1
1517188468056927,-2,1,-1,-1,0,-3,-2,-2
1517188468056927,0,-1,-1,0,-1,1,-1,-2
1517188468057928,-1,-3,-3,0,-3,-2,-2,-1
1517188468057928,0,-1,-3,-1,-2,0,1,-1
1517188468070962,-2,0,0,-1,2,-1,0,-2
1517188468070962,-1,2,-3,1,-1,-1,-2,0
1517188468077966,0,1,-1,-2,-1,-1,-1,-3
1517188468077966,0,2,-1,-1,-2,-2,-1,-1
1517188468093959,-1,2,-1,-2,-2,2,-4,-1
1517188468093959,2,0,-2,-2,-2,-1,1,0
1517188468095955,-1,-1,-3,-1,0,-1,-1,-2
1517188468095955,-1,-2,-3,-1,-1,0,-3,0
1517188468115987,0,-3,0,0,-1,-2,0,-1
1517188468115987,-3,-1,2,-2,-1,2,-3,-2
1517188468117972,-2,-2,-2,0,-1,-2,0,-1
1517188468117972,1,0,-1,-3,-2,0,-3,-2
1517188468129983,-1,-1,-1,-1,0,-1,0,-1
1517188468129983,-3,-7,-1,-4,-2,-2,0,-2
1517188468139073,-1,0,-4,0,0,-1,0,1
1517188468139073,-1,-1,0,0,-1,-1,0,-2
1517188468154085,-2,0,-1,-2,-3,1,-2,-2
1517188468154085,-2,-2,-2,-1,-2,-3,-1,0
1517188468155094,0,-2,-1,-3,-1,-1,0,-1
1517188468155094,-2,1,0,0,-1,-1,2,-1
1517188468176117,1,-2,0,0,-3,-2,-1,-1
1517188468176117,-5,4,0,1,0,-4,1,1
1517188468178103,-3,-2,1,-1,-1,-2,-2,-1
1517188468178103,1,1,0,-1,-1,0,1,0
1517188468190127,-1,-1,0,1,1,-2,2,0
1517188468190127,1,-1,-4,-1,-1,0,-3,0
1517188468199115,0,0,-3,0,0,-1,0,1
1517188468199115,-4,0,0,-1,-2,-2,-1,-2
1517188468214128,-2,0,0,-1,-1,0,-3,-1
1517188468214128,1,-1,-1,0,0,-1,-4,-2
1517188468215145,-1,-2,-3,0,-1,2,-2,-2
1517188468215145,0,-1,-3,-2,-2,-1,-1,0
1517188468236152,0,-2,-1,-1,-1,-2,0,-1
1517188468236152,0,5,2,-2,-1,1,1,0
1517188468238155,-3,0,-2,-1,-2,-3,0,-2
1517188468238155,-3,2,0,-2,-2,0,-1,-2
1517188468250163,-1,0,-2,-2,-2,-4,-2,1
1517188468250163,-1,-5,-2,-2,1,-2,-2,-2
1517188468259157,0,-1,-1,-3,-1,0,0,-1
1517188468259157,3,-3,-1,-2,-2,0,-2,-2
1517188468274169,-1,-3,-3,0,-1,2,-2,0
1517188468274169,-1,-2,-1,0,-1,-1,-1,1
1517188468275169,-1,-1,-1,0,1,-3,-2,0
1517188468275169,-1,-3,-2,0,-1,-1,2,-1
1517188468304200,0,-1,0,0,0,-4,-1,-1
1517188468304200,0,-3,-1,1,-2,-1,-1,-1
1517188468305193,-2,1,-2,-4,-2,2,0,-1
1517188468305193,-2,-1,0,-1,-1,0,2,-1
1517188468310206,-2,0,0,-1,-1,-1,0,-1
1517188468310206,-1,-2,-1,-4,0,-2,1,-1
1517188468319201,-1,-3,-1,1,0,1,0,-1
1517188468319201,-1,-1,-2,-1,0,-4,-2,1
1517188468334213,-1,-1,4,-2,-2,0,-1,-3
1517188468334213,0,0,-2,-2,-2,-1,0,-3
1517188468335214,4,1,-2,-1,0,-1,-1,1
1517188468335214,-4,1,-1,-1,1,-1,-3,-2
1517188468356245,0,-2,0,1,-3,-1,-2,0
1517188468356245,0,-1,0,-2,-1,0,-1,1
1517188468358233,0,-3,0,-2,-1,-2,1,0
1517188468358233,-1,-3,-1,0,1,-1,-1,-2
1517188468370240,0,0,-4,0,-3,-2,-3,0
1517188468370240,-3,-2,0,-1,0,-2,1,-1
1517188468379247,1,-1,-1,-3,-2,-1,-1,-1
1517188468379247,1,-1,1,-1,-2,0,-1,0
1517188468394271,-1,-2,2,-2,1,1,-1,-2
1517188468394271,0,0,-5,0,-3,-1,-1,-2
1517188468396254,-4,2,0,-3,-1,-1,-1,-1
1517188468396254,0,0,-2,-1,-1,-3,-1,0
1517188468416270,-2,-2,-1,-1,-1,-1,0,0
1517188468416270,2,-3,-3,-1,-2,0,0,1
1517188468418288,-3,-2,0,-1,0,2,0,-1
1517188468418288,-4,-8,1,0,-2,1,1,-1
1517188468430280,-1,-1,-2,-1,0,-1,0,-3
1517188468430280,1,-1,-1,-1,-1,-3,-2,-1
1517188468439292,-1,-1,-2,0,-1,-3,-1,-1
1517188468439292,-1,-1,0,-2,-1,2,-2,-1
1517188468454296,-1,1,-2,-1,0,-1,-2,0
1517188468454296,-2,1,-1,0,-1,0,-1,-1
1517188468455298,-2,-2,-1,1,0,-3,-1,-1
1517188468455298,-1,-1,-1,0,1,-2,-1,-1
1517188468476314,-7,-1,1,0,-1,-1,2,-2
1517188468476314,-2,-1,1,-2,-1,0,-4,0
1517188468478313,-2,-2,-3,-2,-2,-1,-2,2
1517188468478313,-1,1,0,-1,0,-1,-2,0
1517188468490325,0,-3,-1,0,-1,0,-1,-1
1517188468490325,-2,-1,-1,-1,1,-3,-2,-1
1517188468499329,-3,2,-2,-3,1,0,-1,-2
1517188468499329,0,-2,-1,-1,-2,-3,-1,-1
1517188468514337,0,1,-1,0,-3,0,-2,-1
1517188468514337,-1,-1,-1,0,0,-2,1,-1
1517188468515352,1,-3,-2,-1,0,-3,0,-1
1517188468515352,0,6,-1,-1,-1,-1,0,1
1517188468536366,1,-3,-1,0,-1,-1,0,0
1517188468536366,-6,0,-1,-2,1,1,-1,-1
1517188468538365,0,0,-2,-3,-2,1,-1,-3
1517188468538365,-1,-2,-2,0,-2,-1,-1,0
1517188468559370,0,-1,-2,-1,0,-2,-2,-1
1517188468559370,0,-2,0,1,-1,0,-2,0
1517188468560371,-2,-2,-1,1,0,-2,-1,-2
1517188468560371,-2,-2,-2,-2,-2,-2,-2,-3
1517188468574381,0,0,1,-1,-1,-1,-1,-1
1517188468574381,-1,-3,-1,-1,-1,-4,0,-2
1517188468575383,-1,-2,1,-3,-2,0,-3,0
1517188468575383,-1,-3,-2,-1,0,-3,-1,0
1517188468596398,-2,-2,1,0,-1,-1,0,0
1517188468596398,0,-1,0,0,0,-1,1,0
1517188468599398,-1,-4,-3,-1,-1,-1,-1,-1
1517188468599398,-5,2,1,-2,-3,1,-2,-3
1517188468618429,2,-1,-1,-4,-1,-1,1,1
1517188468618429,-1,-2,-3,-2,-2,-3,-2,1
1517188468620416,0,0,-2,1,0,-2,-1,1
1517188468620416,-3,-3,1,-4,-1,0,1,-1
1517188468633433,0,1,-1,0,0,-1,-2,0
1517188468633433,0,0,-3,-2,0,0,-1,-3
1517188468635434,0,-1,-3,-2,-1,-2,-2,-1
1517188468635434,3,-2,-1,-3,1,0,-2,1
1517188468656456,-4,-7,1,1,0,-2,-1,-2
1517188468656456,1,-2,-3,-2,-2,0,0,1
1517188468658440,0,-2,0,-1,-1,-1,1,-2
1517188468658440,-5,-1,-1,0,1,0,1,-2
1517188468678454,0,-2,0,-3,0,2,-1,-2
1517188468678454,-1,-3,0,-2,0,-1,-1,-1
1517188468680456,-3,1,0,-1,0,-2,-4,1
1517188468680456,0,0,0,-2,-1,0,-4,-4
1517188468693464,2,2,2,-1,-1,-1,-3,1
1517188468693464,-2,1,-1,-2,-2,-2,1,-2
1517188468700471,2,0,-3,0,-4,1,0,0
1517188468700471,2,-1,-2,0,-1,-1,0,0
1517188468716481,-2,0,-3,0,-1,-1,-2,-1
1517188468716481,0,-2,1,0,-1,2,0,-1
1517188468718482,-3,-2,0,-2,-1,-3,1,-1
1517188468718482,-2,-3,1,-1,-2,-2,-2,-1
1517188468738526,-1,-2,-1,-3,-1,0,-1,-1
1517188468738526,-1,1,-1,-2,1,-1,-1,-1
1517188468740506,-1,0,0,-1,2,-2,-1,-3
1517188468740506,0,-1,0,-1,-2,-3,-1,-1
1517188468753536,-2,1,-1,0,-2,-2,-1,-2
1517188468753536,1,2,2,-1,-1,-1,-3,2
1517188468760513,0,-1,-1,-1,-1,0,-3,-3
1517188468760513,1,-3,1,0,-1,-2,-1,-1
1517188468776543,-1,0,-2,-3,-3,-1,-1,0
1517188468776543,-3,-5,-3,-1,-1,0,-1,-4
1517188468777525,4,1,-1,-2,1,-2,-1,-2
1517188468777525,0,0,-1,-2,0,0,-1,-1
1517188468798549,-3,-2,0,-2,-1,-2,-1,-3
1517188468798549,-1,-4,-3,0,-2,-3,-2,2
1517188468800551,-1,2,-3,-1,-3,-2,0,-1
1517188468800551,-1,-1,-1,-1,1,-1,-2,-1
1517188468813563,0,0,0,0,-1,-1,0,-1
1517188468813563,-1,2,-2,1,-2,-1,-1,-1
1517188468819553,-2,2,1,0,0,-1,-1,0
1517188468819553,0,0,0,2,-3,-1,-1,-1
1517188468836576,-2,-1,-1,-2,1,-1,-2,0
1517188468836576,0,-1,-1,-4,-3,-1,1,-1
1517188468837567,-1,-4,-3,-2,-1,-3,-2,0
1517188468837567,0,-1,0,-1,-1,1,0,0
1517188468858583,0,-1,-1,-2,0,0,0,0
1517188468858583,0,-2,-1,-1,-2,0,-2,-1
1517188468860584,-4,6,3,-1,0,1,0,1
1517188468860584,2,-3,-1,-1,-2,-4,-1,-1
1517188468873621,-4,-2,-1,-1,0,-1,0,-1
1517188468873621,0,0,0,-1,1,-1,-2,0
1517188468879598,-1,-3,-4,-3,-4,-1,-2,0
1517188468879598,1,0,0,-1,0,0,-1,0
1517188468896608,1,0,1,1,-2,1,0,-2
1517188468896608,-2,-4,-2,-1,0,-3,-1,0
1517188468897609,-4,-4,-3,-2,0,0,0,-2
1517188468897609,-2,-1,-2,-2,1,-1,0,0
1517188468918645,0,-5,0,0,-2,-2,-2,1
1517188468918645,-3,0,-2,0,-2,-1,0,-1
1517188468920630,0,-5,-2,-1,-1,0,0,0
1517188468920630,-2,-6,-1,-2,-1,-2,0,0
1517188468933634,0,0,-1,-3,-2,-1,-1,-2
1517188468933634,0,0,-1,-1,-1,0,-2,-3
1517188468939652,1,-3,-1,-1,-1,-1,0,0
1517188468939652,-1,-1,-2,1,-2,1,0,-2
1517188468956650,-1,3,-1,-2,1,-1,0,-1
1517188468956650,-2,-2,-1,-4,1,1,1,-2
1517188468957652,-4,-2,-2,0,-1,-2,-2,-4
1517188468957652,-1,0,0,0,-2,-1,-2,-3
1517188468978668,-4,2,0,-1,-1,-1,-1,0
1517188468978668,1,1,0,-1,0,-1,-1,0
1517188468980670,-1,-3,-1,-1,-2,-2,-3,-2
1517188468980670,-1,0,-2,-2,-3,0,0,0
1517188468992680,1,-1,-1,-2,0,0,2,-3
1517188468992680,-3,-1,-1,-1,-1,0,0,0
1517188469001683,-1,1,-1,-1,1,-1,1,0
1517188469001683,1,-2,-2,0,-2,0,-3,-3
1517188469016714,-1,-4,-1,1,-1,-4,-1,-2
1517188469016714,-1,0,-2,-1,0,-1,2,0
1517188469017694,1,-2,-1,1,-2,-1,-2,1
1517188469017694,-3,1,-2,0,0,-1,0,0
1517188469038710,-1,-1,-1,1,-1,-1,-2,0
1517188469038710,-1,-3,-1,-1,0,-1,-1,-1
1517188469040710,0,-4,-2,-3,0,-1,-1,-3
1517188469040710,-6,-9,2,-1,-1,2,-2,-1
1517188469052780,1,-1,0,0,-3,0,-1,-1
1517188469052780,-2,0,-2,-1,-1,1,-2,-1
1517188469061763,-1,1,-1,-1,-1,-1,0,0
1517188469061763,-3,1,-1,-3,-1,0,-1,-1
1517188469076768,1,-3,-3,-1,-2,-1,-2,1
1517188469076768,-1,0,-1,-1,-1,2,-1,-2
1517188469077757,-2,-1,-1,0,0,0,-1,-2
1517188469077757,-1,0,-1,-2,1,-4,0,-1
1517188469098789,-3,-1,-2,-1,-4,-1,0,-1
1517188469098789,-1,-1,-1,0,-2,-2,-3,1
1517188469100790,-2,-1,-1,0,-1,-1,-1,-1
1517188469100790,-1,5,1,1,-1,-1,0,-2
1517188469112796,-4,1,3,0,1,0,-3,-2
1517188469112796,-1,-2,-2,-1,-1,-1,-2,-1
1517188469121791,-1,1,4,-1,-1,1,0,2
1517188469121791,2,-1,-1,-1,1,1,-2,1
1517188469136811,-1,-3,-1,0,-1,-1,-1,-2
1517188469136811,-1,0,0,-1,-2,-3,-1,-3
1517188469137800,-1,-3,-4,0,-2,0,-3,-2
1517188469137800,-1,0,-1,-2,-2,0,-2,-1
1517188469158816,0,-1,-1,0,0,-2,0,0
1517188469158816,1,-3,-1,-2,0,-2,1,2
1517188469160818,-1,-2,-3,-2,-2,-1,0,-1
1517188469160818,1,0,-2,0,-3,-2,-4,-6
1517188469172851,0,-2,-2,1,-2,-1,-2,-2
1517188469172851,-1,-1,-1,0,-2,-2,-2,0
1517188469181835,-2,-2,-2,-2,-1,-1,0,1
1517188469181835,-4,4,1,0,-1,2,0,-1
1517188469196845,2,-2,-1,-2,-2,-2,-1,-1
1517188469196845,-1,-2,-1,-3,0,-3,-2,-3
1517188469198847,-1,0,0,-2,-1,-2,-1,-1
1517188469198847,-2,0,0,1,-3,-2,0,-1
1517188469218875,-1,-1,-1,-2,0,-1,-2,-1
1517188469218875,-1,-7,-2,0,0,-2,1,-3
1517188469220860,0,0,0,0,-2,0,-3,0
1517188469220860,-1,-3,-1,-2,0,-2,0,1
1517188469232886,0,-1,-1,-2,-2,-1,-2,2
1517188469232886,-1,-1,-2,-1,-1,0,-2,-1
1517188469241877,-1,-6,0,0,0,-2,-1,-3
1517188469241877,-1,-2,0,-3,-1,-2,-2,-2
1517188469255896,-3,0,0,-1,1,0,0,-1
1517188469255896,0,2,-1,-2,0,0,-1,-1
1517188469257887,1,0,-1,1,2,-3,0,-2
1517188469257887,0,-1,-1,-2,1,0,-2,0
1517188469278909,-2,-1,-1,-1,0,-3,2,-1
1517188469278909,-1,-2,-2,-1,-3,0,-1,1
1517188469280911,-1,0,-1,-2,0,1,0,0
1517188469280911,4,-6,-2,-2,0,-2,-1,-1
1517188469292910,0,-1,-1,-1,-1,-2,-1,-2
1517188469292910,-7,2,-1,0,-2,1,1,-1
1517188469301927,-1,1,-3,-2,-1,-3,0,1
1517188469301927,-1,-3,0,0,-1,1,-2,-2
1517188469315940,3,5,3,0,-3,-1,-2,1
1517188469315940,0,2,-2,-1,0,-1,-1,-2
1517188469317937,0,-1,-2,-1,-2,-2,-4,-3
1517188469317937,-3,-8,1,1,-1,-2,2,1
1517188469339960,-3,-1,-2,-1,-3,-1,0,0
1517188469339960,-1,1,0,0,0,1,0,-1
1517188469340944,2,-2,-3,-2,-1,-2,-1,-3
1517188469340944,3,-3,-1,-2,1,-2,1,0
1517188469352970,-4,-5,-2,-3,-2,-1,-1,-1
1517188469352970,0,0,-3,-1,1,-3,-1,-2
1517188469360958,-2,0,-1,-1,-1,0,-1,-1
1517188469360958,1,0,-2,0,-1,-1,-4,-1
1517188469375969,0,-5,-1,-1,-1,0,1,-1
1517188469375969,4,23,1,0,-1,0,-2,2
1517188469377970,-1,-2,-1,-1,1,0,-1,-1
1517188469377970,-2,3,-2,0,0,1,-1,1
1517188469398985,-3,-1,-2,-1,-1,-2,-2,-1
1517188469398985,0,-5,-3,-1,-1,-2,0,-1
1517188469399999,-4,0,-1,0,-2,-1,-2,-2
1517188469399999,0,4,0,1,-2,-2,-2,0
1517188469412996,0,0,-2,-3,0,-1,-1,-1
1517188469412996,-4,-3,-2,-1,-2,-2,-1,-3
1517188469427015,-1,1,0,-2,0,-1,-1,-1
1517188469427015,-2,-3,0,-1,-2,-2,-1,0
1517188469436021,0,-10,-3,2,-2,-1,-1,-2
1517188469436021,1,6,-1,-1,-1,-3,0,1
1517188469438022,-2,-1,-1,-1,0,1,0,-1
1517188469438022,-4,-2,-3,-1,-3,-1,-2,-2
1517188469459029,-1,-4,0,-2,1,0,-2,0
1517188469459029,-1,-9,-2,-3,-3,-1,0,1
1517188469460028,-1,-2,-3,-1,1,-1,-3,-2
1517188469460028,1,1,0,-1,-3,-1,-1,-1
1517188469481043,0,3,1,0,0,0,0,-3
1517188469481043,-2,-8,-2,-1,-1,1,1,-1
1517188469483073,-3,2,0,-1,0,1,-2,1
1517188469483073,-1,-3,0,-2,-1,-2,0,-1
1517188469495066,-4,2,2,-1,0,-1,-3,-2
1517188469495066,2,2,1,-1,-1,-1,-1,-1
1517188469504060,-3,-7,-3,1,-2,0,-1,-2
1517188469504060,1,1,0,-1,0,1,-3,-2
1517188469519083,1,1,-1,-1,-1,-3,0,0
1517188469519083,-2,-4,-2,-1,2,-2,-1,-2
1517188469520082,-1,0,0,-1,-2,1,1,1
1517188469520082,-1,1,2,1,-3,1,-1,-2
1517188469542087,1,0,0,-2,-1,-3,0,-1
1517188469542087,-2,-15,-4,-2,0,1,-2,-2
1517188469543086,1,12,-1,1,0,-1,-1,-2
1517188469543086,-1,2,-1,0,0,-2,-1,-2
1517188469556109,-3,1,-1,-2,0,1,0,-2
1517188469556109,1,-8,-5,-3,-1,-3,-3,0
1517188469558104,-2,-5,0,-3,-2,-4,-1,-1
1517188469558104,-2,-7,-2,-2,-1,0,0,0
1517188469579111,1,3,-3,1,-2,-1,-2,0
1517188469579111,1,2,0,-1,-1,0,0,0
1517188469580113,-2,-1,0,-2,-2,-3,0,-2
1517188469580113,0,2,-2,-2,0,-3,-1,-2
1517188469601137,-2,-8,-2,-1,-1,1,-2,-1
1517188469601137,-1,-2,-1,0,-2,-2,-2,-1
1517188469603138,-1,-4,-2,-1,-1,0,-1,-1
1517188469603138,-2,-2,-2,0,-3,-3,-2,-1
1517188469616150,0,-3,2,0,1,0,-1,-2
1517188469616150,-2,-17,-4,-2,-1,-1,-1,-1
1517188469622163,-3,-2,0,-1,0,0,-2,-1
1517188469622163,0,1,0,-1,-1,1,2,-1
1517188469639176,2,8,1,-2,-1,-1,-1,0
1517188469639176,-3,1,-2,-2,0,-4,-2,-3
1517188469640164,1,-1,-3,-2,-1,0,-2,0
1517188469640164,-1,-3,-2,0,-1,-1,1,0
1517188469661179,-3,-5,-4,0,0,-3,0,1
1517188469661179,-4,3,1,1,-1,0,-1,-3
1517188469663181,0,-1,0,-3,1,-1,-1,-2
1517188469663181,-1,4,0,-1,0,-2,-1,-2
1517188469675181,1,2,0,-3,-2,-2,1,-2
1517188469675181,1,5,-1,-1,-1,1,-2,0
1517188469683209,-1,-2,-1,1,0,0,0,-1
1517188469683209,-2,-4,-3,0,-1,0,-1,-1
1517188469698258,5,0,1,-1,-1,-1,1,2
1517188469698258,-3,1,-1,0,0,0,-2,-2
1517188469699257,-1,-5,-4,-1,-2,-1,-1,-1
1517188469699257,1,-6,1,-2,1,0,-1,-1
1517188469720290,-2,8,-1,0,-1,1,-1,-1
1517188469720290,0,3,-3,0,-2,-1,0,1
1517188469721277,1,-2,-2,-2,-1,-1,2,-1
1517188469721277,-5,-4,-2,0,0,-2,0,1
1517188469735297,-1,-4,-1,-2,1,-2,-1,-1
1517188469735297,-2,3,0,-2,1,1,-1,-1
1517188469750315,-2,2,1,-1,0,-4,-1,-2
1517188469750315,1,2,-2,1,-3,0,-1,1
1517188469758292,-1,-3,-2,-2,-1,-1,-1,-2
1517188469758292,-1,-6,-6,-2,-1,-3,-2,-3
1517188469759292,-3,7,-2,-1,-1,0,-2,-3
1517188469759292,0,0,-1,-1,-2,-2,-2,-2
1517188469780317,5,25,3,0,-1,-1,-1,-1
1517188469780317,0,-7,-4,0,3,-1,0,1
1517188469781316,-4,-4,1,-1,1,-1,0,-1
1517188469781316,-1,1,1,-2,1,0,-2,-3
1517188469795317,-5,-7,-3,-2,0,-1,1,-1
1517188469795317,0,2,1,-1,-2,-2,1,-1
1517188469803363,-1,0,1,0,-1,-1,0,0
1517188469803363,-3,0,1,-2,0,-1,-1,-2
1517188469818361,-4,-9,-4,1,-1,-2,0,-1
1517188469818361,-2,2,1,-3,-1,-1,-1,-1
1517188469819359,0,-6,-3,-1,-1,-1,-2,-2
1517188469819359,-5,-3,-2,-1,-1,-1,-1,-2
1517188469840349,0,-3,3,0,-1,-1,0,0
1517188469840349,-1,1,-2,-1,-2,-1,0,-1
1517188469841352,1,0,-1,-1,0,0,0,-2
1517188469841352,0,-3,2,-2,-1,-3,-1,-2
1517188469855417,-3,-20,-6,0,-2,-3,-2,-2
1517188469855417,1,5,1,-2,-3,-1,0,0
1517188469863365,-1,-3,-2,-3,0,1,0,1
1517188469863365,1,-2,1,0,-1,-2,-1,-1
1517188469878387,-3,-6,-2,0,-2,0,-2,0
1517188469878387,-1,-1,0,-1,-2,0,-2,-2
1517188469879385,-2,2,-1,-2,-3,0,-1,-1
1517188469879385,-1,2,-2,0,1,0,0,-2
1517188469900408,0,5,-1,-2,-1,-1,0,-2
1517188469900408,2,1,1,0,-2,-2,-2,0
1517188469901392,0,2,-1,-1,-2,-1,-1,-4
1517188469901392,-1,0,-2,-3,-1,0,1,1
1517188469915472,-7,3,2,1,-1,0,0,-1
1517188469915472,-3,-4,-3,-1,-1,0,-1,-2
1517188469930487,0,-4,0,-1,-1,-3,0,-1
1517188469930487,1,-2,0,-1,-3,0,-1,-1
1517188469938526,3,27,7,-1,1,-1,1,2
1517188469938526,1,-2,-3,-1,-1,-2,-2,-1
1517188469939490,-1,-2,-1,0,-2,-3,-2,-1
1517188469939490,1,2,2,-1,-1,-2,-2,-2
1517188469960514,-1,-7,-1,-3,-1,0,-2,-2
1517188469960514,-3,-1,-1,-2,0,0,-1,-1
1517188469961515,2,3,-1,-1,-1,-1,-1,0
1517188469961515,-2,-2,-3,0,-2,1,0,-1
1517188469974524,2,-10,-3,-2,-1,-1,-1,-1
1517188469974524,0,-2,-1,-1,1,0,-1,-2
1517188469983526,-2,-3,-4,-3,0,-2,-1,-2
1517188469983526,1,7,0,-3,2,-1,0,0
1517188469998531,1,-4,-3,-1,-1,1,-1,-3
1517188469998531,0,1,1,1,-1,-3,-1,-2
1517188469998531,0,0,0,-1,-1,0,1,-1
1517188469998531,-4,-3,0,0,-2,-4,-4,-1
1517188470020551,-2,-2,-2,-1,-2,-3,-1,-5
1517188470020551,5,26,3,-1,0,-2,-2,0
1517188470021550,-3,-7,-2,-1,-1,-1,-3,-1
1517188470021550,-1,0,-2,-2,0,-1,1,1
1517188470034580,-3,-3,-3,-3,0,0,-1,-1
1517188470034580,-4,-5,-2,-1,-1,2,-2,1
1517188470043567,0,0,1,0,1,0,0,0
1517188470043567,-1,2,0,0,-2,-1,-2,1
1517188470058586,-1,-9,-1,0,0,-2,-1,1
1517188470058586,-11,6,1,-1,-2,0,-1,-2
1517188470059587,2,-1,0,-1,-1,-2,-1,-1
1517188470059587,0,-7,1,-1,0,-1,-2,-3
1517188470080600,0,-3,-2,0,-1,-1,0,-1
1517188470080600,-1,-9,-2,-3,-2,0,0,-1
1517188470081590,-1,1,-2,0,-1,1,0,-2
1517188470081590,-3,1,1,-1,-3,-2,2,-1
1517188470094600,-2,-2,-2,-3,-2,-1,-1,0
1517188470094600,1,-5,-3,0,0,-1,-1,-1
1517188470103607,-4,-18,-1,-3,-1,-1,-2,-3
1517188470103607,3,4,-1,0,-2,0,-2,-2
1517188470117619,-1,1,-2,-1,-1,-2,-2,-2
1517188470117619,-1,-13,-7,-1,-1,-1,0,-1
1517188470118616,-1,-1,-1,-1,0,-1,0,-1
1517188470118616,0,-3,0,0,-1,0,-1,0
1517188470140651,-2,0,1,-2,-1,0,-1,-1
1517188470140651,-8,3,1,0,-1,-2,1,-1
1517188470141636,1,4,0,-1,-2,1,-3,-1
1517188470141636,0,1,1,-1,-2,0,-3,-2
1517188470154700,-1,3,-3,-1,0,1,0,0
1517188470154700,0,-5,-3,-2,1,-1,-2,0
1517188470163649,-2,3,0,1,-2,-2,1,1
1517188470163649,-2,-1,1,-2,0,0,1,-2
1517188470177658,-2,-7,1,0,-1,-1,-1,-1
1517188470177658,0,-4,1,0,1,-1,-1,-1
1517188470178659,1,1,0,-2,0,-1,-3,-1
1517188470178659,-1,-1,-2,0,-2,0,-2,-1
1517188470200725,-1,0,-1,0,1,0,0,0
1517188470200725,-1,-2,-2,-2,-1,1,2,-1
1517188470201753,1,19,5,-1,-1,-1,2,1
1517188470201753,-1,-6,-3,-1,-1,0,0,-1
1517188470214743,-1,-1,-1,-1,-2,-1,0,-2
1517188470214743,3,6,-1,0,-2,-3,0,0
1517188470222770,-4,-4,-3,-1,-1,0,-3,-3
1517188470222770,0,2,-1,-1,-2,-2,-1,-2
1517188470237775,0,-1,-2,-2,-1,-1,-1,-2
1517188470237775,0,-12,-3,-2,-2,1,-3,-1
1517188470238752,0,-4,-2,0,-2,-1,-1,-1
1517188470238752,1,-3,-2,-2,-2,-1,-2,1
1517188470260766,-4,-6,-2,1,2,-3,0,-1
1517188470260766,0,-3,-1,-1,-1,-4,0,-1
1517188470261767,0,-3,-2,-2,-1,-2,2,1
1517188470261767,-1,1,1,-1,-1,-2,-1,-1
1517188470274777,0,-1,0,-1,-1,-2,1,0
1517188470274777,1,0,-2,0,-2,-1,-1,-1
1517188470282804,-2,0,-2,1,-1,0,-1,0
1517188470282804,-2,-3,1,-2,1,-1,-1,0
1517188470297792,-1,1,-1,-1,-2,-2,-3,-2
1517188470297792,-1,-1,0,-1,1,-2,1,1
1517188470298793,-1,-2,0,-1,0,1,1,0
1517188470298793,0,-9,-3,0,-1,1,-1,-1
1517188470320832,-1,19,0,1,-1,-2,0,0
1517188470320832,4,-3,-1,-1,-1,0,0,0
1517188470321831,1,3,0,-1,-2,0,-2,1
1517188470321831,0,-3,-1,-1,-1,-2,0,0
1517188470334841,-1,-7,-2,-1,-2,1,-2,-2
1517188470334841,-1,-2,-3,-1,1,-1,-3,-2
1517188470342835,-1,1,0,0,-1,0,-2,-1
1517188470342835,-2,2,3,0,-1,-2,-1,0
1517188470357844,-1,-3,-1,-2,1,-1,-1,-2
1517188470357844,-3,4,-2,-1,-1,0,0,-2
1517188470358835,-1,-3,-2,0,-1,-2,-2,-1
1517188470358835,-2,3,-1,-2,-2,-1,-2,-1
1517188470380866,-1,-4,-3,-1,1,-1,-2,1
1517188470380866,-2,-2,-2,-1,-1,0,-1,-2
1517188470381862,-3,-8,0,0,-2,0,-3,-2
1517188470381862,-1,-1,-5,-1,-2,0,-1,-2
1517188470403895,0,-1,0,0,-1,-1,1,0
1517188470403895,-2,1,-2,-2,0,-2,2,2
1517188470404894,1,0,-1,0,0,-2,0,0
1517188470404894,-1,-2,1,-1,1,0,-1,-1
1517188470417899,-7,-1,0,-1,0,-1,-1,-1
1517188470417899,0,-1,-5,-1,-1,0,-2,-1
1517188470418878,-3,0,0,-1,2,-2,-2,-3
1517188470418878,-5,-22,-3,0,0,0,0,-3
1517188470440914,0,-3,0,-1,-2,-2,-3,0
1517188470440914,1,-3,-2,-2,-1,-1,-2,-3
1517188470441896,0,1,0,-1,-2,0,-1,1
1517188470441896,-1,3,0,0,-1,0,0,-1
1517188470463919,-2,-5,0,-1,-1,-1,0,0
1517188470463919,-1,0,-1,-1,1,-2,0,0
1517188470464912,0,-5,-2,0,-2,0,-3,0
1517188470464912,0,4,0,-2,-1,1,-1,-1
1517188470477920,1,1,1,-1,1,2,0,-1
1517188470477920,-3,0,-1,1,-2,0,-3,0
1517188470485940,-2,1,-2,-2,-1,-1,-1,-1
1517188470485940,3,1,1,0,-2,-1,-1,0
1517188470500991,-4,-1,0,0,0,-1,-2,0
1517188470500991,-1,-1,-1,1,-3,-2,0,0
1517188470501955,-1,3,2,0,-2,1,2,0
1517188470501955,-3,1,1,-1,0,-4,-2,-1
1517188470523975,2,-5,-4,-1,-2,-2,-2,-1
1517188470523975,-3,-16,-1,-3,-2,0,-1,-3
1517188470524953,-3,-2,-3,1,2,0,0,-3
1517188470524953,1,3,0,-1,-2,-2,-1,0
1517188470537986,1,3,0,1,-1,-1,-1,-2
1517188470537986,-1,1,0,-2,0,-3,-2,-1
1517188470538973,2,0,-2,-2,-3,-2,1,1
1517188470538973,-2,1,0,-2,0,-2,-1,1
1517188470560979,-3,-6,-4,-3,0,0,-2,-2
1517188470560979,0,2,-2,0,-1,0,-1,-1
1517188470560979,0,-1,0,-1,1,-1,-2,-2
1517188470560979,1,3,-1,-2,-1,-1,0,1
1517188470584067,1,1,-1,-2,0,-3,-1,-2
1517188470584067,0,1,-1,-1,0,0,0,0
1517188470585053,0,-2,-1,-1,1,-3,-2,-1
1517188470585053,-6,1,1,-1,-3,-2,0,-1
1517188470598075,2,1,0,-1,0,-1,-1,-2
1517188470598075,-1,0,2,0,-2,1,1,2
1517188470599081,-2,-5,0,-2,-3,-1,-2,-2
1517188470599081,0,-2,0,0,-1,-2,1,-1
1517188470621091,5,1,-1,0,-3,0,-1,0
1517188470621091,-3,4,-1,-1,-2,-1,-1,0
1517188470621091,-2,-1,0,-1,0,-1,0,-1
1517188470621091,0,0,-2,-1,0,-2,-2,-2
1517188470644095,-5,-11,-3,-2,0,-2,-2,-2
1517188470644095,0,-3,-2,-2,-1,-1,-1,0
1517188470645097,-1,1,-1,-3,-3,-2,-2,0
1517188470645097,2,2,1,-1,-1,0,-2,-2
1517188470658110,1,-9,-5,0,0,-2,-1,1
1517188470658110,-2,-1,-1,1,-2,-2,-2,-4
1517188470659115,-1,-4,-2,-1,-1,-1,1,-1
