timestamp,emg1,emg2,emg3,emg4,emg5,emg6,emg7,emg8
1513487657932337,-1,-2,0,-1,-2,1,0,-1
1513487657932337,-2,-3,-1,-1,-1,1,-2,0
1513487657939343,-2,0,-1,-2,1,-1,-1,-1
1513487657939343,-2,0,0,0,-2,-1,2,-2
1513487657955351,-1,-1,-1,0,-3,-1,1,2
1513487657955351,-1,-1,-1,-1,-2,-1,-2,-1
1513487657957351,-1,-2,0,0,-2,1,-2,-2
1513487657957351,-1,-2,-2,-2,0,-2,-4,-1
1513487657978366,-2,0,1,-2,0,0,0,-1
1513487657978366,2,-1,0,-1,-3,-3,-2,0
1513487657979367,-1,-2,-2,-1,-2,-4,-2,0
1513487657979367,0,0,0,-2,-1,-1,-2,-2
1513487657992390,-2,0,-2,0,-2,-2,-3,-1
1513487657992390,-3,-1,-2,-1,1,-1,-3,-4
1513487657999381,-3,0,0,-2,-1,-1,0,0
1513487657999381,0,-2,-2,1,-1,-1,0,-2
1513487658015392,-1,-1,-1,-1,-1,-2,-1,-1
1513487658015392,0,0,-1,-1,-1,1,1,-1
1513487658017393,0,-1,-1,-1,-2,-1,-1,0
1513487658017393,-2,-1,-1,0,-2,-1,0,0
1513487658038409,-1,-2,-1,0,-1,-2,-2,0
1513487658038409,-2,-3,-1,-2,-2,-2,-1,-2
1513487658039421,-2,-1,-2,-3,1,-1,0,-1
1513487658039421,-1,1,0,-1,-2,-1,-2,1
1513487658052430,-2,0,-2,-1,-2,-2,0,-1
1513487658052430,-1,-2,0,1,-1,-1,-3,-2
1513487658059424,0,-1,-1,0,-1,-1,-2,0
1513487658059424,-2,-1,-2,0,-2,-1,-1,-1
1513487658075448,0,-2,0,0,0,-2,-1,-1
1513487658075448,-1,0,-2,-2,0,-1,-1,-2
1513487658077438,-1,-2,-1,-2,-1,-1,0,-2
1513487658077438,0,-2,-2,0,-1,-2,-2,-2
1513487658098453,-2,0,0,0,-2,-1,-1,-3
1513487658098453,-1,0,-2,-1,-1,-2,1,1
1513487658099455,0,-1,-1,-1,-1,-2,-2,0
1513487658099455,-3,0,-1,-3,-2,0,-2,0
1513487658112473,1,-1,-1,-1,0,-2,-1,-1
1513487658112473,-2,-1,-1,-2,0,-1,-1,-1
1513487658119486,-2,-1,-1,-2,-1,-3,1,-1
1513487658119486,-1,-1,-2,-2,1,0,-3,-2
1513487658135477,0,0,-1,0,0,-2,0,-1
1513487658135477,-1,-1,-1,0,0,1,0,-2
1513487658137478,-1,-2,-1,-2,-1,-1,-1,1
1513487658137478,0,-3,0,0,-1,-2,1,1
1513487658158494,-1,-3,0,-1,-2,-1,0,-1
1513487658158494,-1,-2,-3,-2,-2,-2,-2,-2
1513487658159494,-1,-1,-3,0,-1,1,0,-1
1513487658159494,-2,0,-1,-1,0,1,1,-1
1513487658172560,-1,-1,-1,-1,-2,-1,1,-1
1513487658172560,-1,-1,-1,-2,-2,-4,-3,-1
1513487658179520,-1,-2,-1,-1,-1,-1,0,-1
1513487658179520,-1,-2,-2,0,0,0,-2,0
1513487658195538,-1,0,-1,-1,-1,1,-2,-1
1513487658195538,0,-1,1,-1,0,-1,-1,-1
1513487658197525,-2,0,-2,-1,-2,0,-1,1
1513487658197525,0,-2,0,-1,-1,-2,0,-1
1513487658218554,0,-1,-1,-2,-1,0,-1,0
1513487658218554,-1,-1,0,0,-2,-2,0,-2
1513487658219537,-2,-2,-1,-1,0,-2,-3,-2
1513487658219537,1,0,1,-1,-1,-2,-4,-1
1513487658231563,0,0,-3,0,0,-1,1,-1
1513487658231563,-2,0,-3,-1,-1,0,-2,1
1513487658240552,-2,-3,-2,0,0,0,-1,-4
1513487658240552,-2,-2,-1,-1,-1,-2,0,-1
1513487658255563,-2,-2,1,-1,-1,-1,-1,-1
1513487658255563,-2,-1,0,-2,-2,-1,1,1
1513487658257577,0,-1,-2,0,-2,0,-2,-1
1513487658257577,-1,-1,-2,-1,-2,0,-2,-2
1513487658278578,-1,-1,-1,0,2,-2,-1,-2
1513487658278578,1,-3,-1,1,-1,1,-2,-1
1513487658279579,-2,-1,-1,-1,0,-2,-2,0
1513487658279579,2,1,-1,0,1,-1,-1,-1
1513487658291603,-1,-3,0,0,-2,0,-3,-1
1513487658291603,-1,-3,-2,-1,-1,-1,-2,-2
1513487658300593,-2,-1,-2,-1,-1,-2,-1,-1
1513487658300593,-2,0,0,-2,-2,1,-3,-2
1513487658315616,-3,0,-1,-1,-2,0,-2,-1
1513487658315616,-1,-3,-2,-2,-1,-2,0,0
1513487658317609,-2,0,-1,0,-1,-1,0,-1
1513487658317609,0,0,-1,0,0,-2,1,1
1513487658338621,0,0,0,-1,-3,0,-1,-1
1513487658338621,-2,-1,-1,0,0,-1,1,-2
1513487658340623,0,-2,-2,-3,1,-2,0,-1
1513487658340623,-1,-2,-1,-3,-2,0,0,-1
1513487658351643,-4,-1,1,-1,-1,-1,-1,-1
1513487658351643,1,0,-2,-2,-2,-3,-2,-1
1513487658360636,-1,0,-1,-1,-2,-1,-1,0
1513487658360636,-1,-2,0,-2,-2,-1,-2,0
1513487658375665,2,0,-1,0,-2,1,-1,0
1513487658375665,-3,-3,0,0,-1,-1,-1,-3
1513487658377652,-2,-3,-1,-3,-2,0,-2,-1
1513487658377652,0,-2,-2,-1,-1,-1,1,-1
1513487658398665,-1,-1,-1,-1,0,-1,-1,-1
1513487658398665,-2,0,-1,-1,-3,-2,-3,0
1513487658399682,1,0,-1,-1,-2,-4,-3,-1
1513487658399682,-3,-2,0,-1,-1,-1,0,-3
1513487658411683,1,-1,-2,-3,0,-1,0,0
1513487658411683,1,-1,-2,-1,-1,-2,-2,-2
1513487658420679,0,-3,0,-2,-2,0,-2,-2
1513487658420679,0,-1,-1,-2,-1,0,0,0
1513487658435703,-1,0,-1,0,-2,-2,-2,-2
1513487658435703,-3,0,-1,-3,0,-1,-2,-2
1513487658437690,-1,-1,0,-2,-2,0,-1,1
1513487658437690,-3,0,-1,0,-1,-1,-3,-3
1513487658458705,0,-1,-1,-2,-2,-1,-1,-3
1513487658458705,1,-1,0,1,1,2,2,0
1513487658459707,-1,-2,-1,-1,0,-1,-1,-3
1513487658459707,0,-2,1,-2,-2,0,1,-1
1513487658471743,-1,-2,-1,-1,-2,1,0,0
1513487658471743,-2,0,-2,-1,-2,-2,-1,-1
1513487658480740,0,-1,-1,1,0,-1,1,1
1513487658480740,1,-2,-2,-1,-2,-2,-1,0
1513487658495733,-2,0,-1,-2,-2,-3,-1,-1
1513487658495733,-1,-2,-2,-1,-2,-2,1,0
1513487658496732,-4,-1,-2,0,-2,-1,-3,-2
1513487658496732,-1,0,-2,0,-1,-1,-1,0
1513487658517769,-2,-1,0,-1,0,1,-2,-1
1513487658517769,-1,0,0,-1,-2,0,-1,-3
1513487658519749,0,0,-2,-1,-3,-1,-2,-1
1513487658519749,-2,1,-1,-2,-2,-1,1,-2
1513487658531789,-1,-1,-1,-1,2,1,0,-1
1513487658531789,-1,-2,0,-1,-2,-2,-2,-1
1513487658540764,1,-1,-1,0,-1,-2,-1,0
1513487658540764,-1,-1,0,-1,-1,0,-1,-1
1513487658555783,-1,0,-1,-1,-2,-1,-2,-1
1513487658555783,-2,-1,-3,-1,1,0,1,-2
1513487658556804,0,-1,-1,-3,0,-1,0,1
1513487658556804,0,-2,-3,-2,-3,-3,-1,-2
1513487658577803,-1,-2,-1,-2,-2,-1,1,0
1513487658577803,-1,-1,-1,-1,-2,0,-1,0
1513487658579791,-1,-2,-1,-1,-1,-1,-3,0
1513487658579791,-2,-1,-2,-2,0,0,0,0
1513487658600809,0,-1,-1,-2,0,-2,-1,-1
1513487658600809,-2,-2,-2,-1,0,0,-1,-1
1513487658602861,-3,-1,-2,-1,-1,-3,1,0
1513487658602861,-3,-1,-1,-1,-2,-2,-2,0
1513487658615826,0,0,-2,0,-1,-1,-2,-1
1513487658615826,-2,-1,-2,-1,1,-1,0,-1
1513487658617818,-1,-1,-1,1,0,0,-1,-1
1513487658617818,2,0,0,0,-1,-1,-1,0
1513487658637892,-2,-2,-1,1,-1,-1,0,-2
1513487658637892,0,0,-1,-1,-2,-2,-4,-1
1513487658639894,-2,-1,-1,-2,-2,-1,0,-1
1513487658639894,-1,-2,-1,-1,-2,-1,-2,-1
1513487658660900,-1,-2,-2,-3,-1,0,1,-2
1513487658660900,-1,-2,0,-2,-1,0,-1,-2
1513487658661903,-2,-1,-1,-1,-1,0,-2,-3
1513487658661903,-1,-1,0,0,-1,-2,-2,2
1513487658675927,0,0,-1,-2,-2,-2,0,1
1513487658675927,-1,-3,-1,-1,-1,-2,-2,1
1513487658676911,-2,-1,-2,0,-1,-1,1,-1
1513487658676911,0,-2,-1,0,-2,-1,0,-3
1513487658697929,-1,1,0,0,-1,-2,-2,-1
1513487658697929,-2,0,-1,-1,-1,0,1,-1
1513487658699944,-1,-2,0,-1,-1,-1,-1,0
1513487658699944,-1,-1,-1,0,0,-2,-2,0
1513487658727964,0,0,1,-1,-2,-1,-1,-2
1513487658727964,-1,-1,0,-2,-1,0,-3,-2
1513487658729951,-1,-2,-3,0,-1,-2,-1,0
1513487658729951,1,-2,-2,-2,-1,1,-1,-1
1513487658735958,1,-1,-3,-1,-2,-1,-2,1
1513487658735958,-1,-1,-1,-1,0,-1,0,0
1513487658737957,-1,0,-1,-1,-1,0,0,-1
1513487658737957,-3,1,-1,0,-1,0,0,-1
1513487658757969,-1,-1,-1,1,-4,-2,-2,-3
1513487658757969,-1,0,-3,-2,0,-2,0,-3
1513487658759973,-1,0,-2,-1,-1,0,-5,0
1513487658759973,1,-1,0,-1,-1,-4,-1,-2
1513487658780984,0,-2,-1,-2,0,-1,-1,-1
1513487658780984,-1,-1,-1,-1,-1,-1,-3,-1
1513487658781985,1,-1,-1,0,-2,-1,-2,-2
1513487658781985,-1,-1,0,0,0,-1,-1,0
1513487658794994,-4,-2,-1,-1,0,-1,-1,0
1513487658794994,-1,1,-2,-1,-2,-2,-1,-1
1513487658802003,-1,-1,-1,-1,-1,-2,-1,-1
1513487658802003,0,0,0,0,-2,-1,-1,-2
1513487658818026,-2,0,0,-1,0,-1,0,0
1513487658818026,-1,-3,0,1,-1,-1,-1,0
1513487658820012,0,-2,-1,-1,-1,-2,-4,0
1513487658820012,-1,-1,-2,-1,-2,-2,1,-4
1513487658841042,-1,0,-1,-1,-2,1,1,-1
1513487658841042,0,-1,0,0,-1,-1,0,0
1513487658842027,-3,-2,-2,-2,-3,-1,-1,-2
1513487658842027,-2,-1,-1,-2,-2,0,-1,-1
1513487658855072,1,-2,0,0,0,-2,-2,0
1513487658855072,-2,-2,-1,-2,-1,0,-1,-2
1513487658862056,0,-2,-3,0,-2,-1,-2,-2
1513487658862056,2,-1,-1,-2,0,-2,-1,-2
1513487658878065,-2,1,-1,-2,1,-1,-2,1
1513487658878065,0,0,-3,-1,1,-1,-3,2
1513487658880055,-2,-1,-1,-1,0,-2,0,-1
1513487658880055,-1,-1,-1,-1,-1,-1,0,0
1513487658901072,0,-2,-1,-2,-2,-2,-1,-1
1513487658901072,-1,-1,-2,-1,-1,-2,-2,-1
1513487658902070,-2,0,-3,-2,0,-2,0,-1
1513487658902070,-1,0,-3,-1,-1,-1,-1,0
1513487658915080,0,-1,0,-1,-3,0,0,-3
1513487658915080,-1,-1,-1,-2,-1,-1,-2,-1
1513487658929101,-1,-1,-1,-1,-1,-1,-1,0
1513487658929101,-2,1,-1,-2,0,0,0,0
1513487658938096,0,-1,-2,-1,-1,-2,-1,-1
1513487658938096,-2,-1,-2,-2,-2,-1,-1,-1
1513487658944100,0,-1,1,0,-2,-2,-1,1
1513487658944100,-1,-2,0,1,0,-1,-3,1
1513487658961124,-1,0,1,-4,-1,0,0,0
1513487658961124,-1,-1,-1,-1,-2,-2,-3,-2
1513487658962113,1,0,-2,-2,-1,-1,-1,-3
1513487658962113,-1,-2,0,-1,-1,-1,1,1
1513487658975136,-2,0,0,1,-1,-2,0,-4
1513487658975136,-1,-3,-1,-1,0,-2,-1,-3
1513487658982141,-2,0,-2,-1,-1,-1,2,-1
1513487658982141,-1,-2,-1,-1,-2,-2,-2,-2
1513487658999152,0,0,0,0,-2,1,0,-1
1513487658999152,0,0,-1,-3,0,-2,-1,0
1513487659004165,-1,-3,2,-1,-2,-2,-2,1
1513487659004165,1,-1,0,0,0,-2,2,-1
1513487659020190,-1,0,0,-2,-1,0,0,0
1513487659020190,-3,-2,0,0,-2,0,-1,-1
1513487659022154,0,-1,-2,0,0,-1,0,-3
1513487659022154,-1,0,0,-1,-1,0,-1,-1
1513487659035168,-1,-2,-2,-1,1,-1,-1,-1
1513487659035168,-1,-2,0,-1,0,0,-2,-2
1513487659042174,0,0,-1,-2,-1,1,0,-2
1513487659042174,-1,0,-2,-1,-2,-1,0,-1
1513487659058186,-1,-3,-3,-1,-2,-1,-3,0
1513487659058186,-2,-1,-2,-2,-2,-1,-1,-1
1513487659060186,-1,-2,-1,-1,2,1,-1,0
1513487659060186,1,-1,-1,-1,-1,0,-2,-1
1513487659080210,-1,-1,-1,0,-1,0,1,-1
1513487659080210,-2,0,-1,-3,-2,-2,-1,-1
1513487659082198,-1,-1,-1,-1,-2,-1,-2,-1
1513487659082198,0,-2,-1,-2,-1,0,-1,0
1513487659095208,-3,-1,-1,-1,0,0,-1,0
1513487659095208,0,-2,-2,0,-1,-1,-1,0
1513487659102222,-3,-1,-1,-1,-1,-2,-2,-1
1513487659102222,-4,-1,-2,-3,-3,-1,2,1
1513487659118224,-1,-1,-1,-2,-2,0,-1,-2
1513487659118224,0,-3,-2,-1,-1,0,0,0
1513487659120239,0,-3,0,-1,-2,-1,-1,-2
1513487659120239,-1,-1,-1,0,-2,-1,0,-2
1513487659148245,0,-1,0,-1,-2,-2,-2,-1
1513487659148245,-2,-2,-3,0,0,-2,0,-2
1513487659149246,0,-1,-1,-1,-2,-2,-1,0
1513487659149246,-2,0,0,-1,-1,-2,1,-1
1513487659154261,-1,0,-3,-1,-1,-2,-1,-1
1513487659154261,0,-2,-2,0,-1,0,-3,-2
1513487659163257,-3,-1,-2,-2,0,1,1,-1
1513487659163257,-1,0,-3,0,-1,0,-2,-1
1513487659178266,-1,1,1,-2,-1,-1,1,0
1513487659178266,-1,0,0,0,-1,-3,-2,1
1513487659179280,-2,0,0,-1,-1,-1,-1,-2
1513487659179280,-1,-2,0,-1,0,1,0,1
1513487659200281,-2,-4,-1,-2,0,-1,0,-2
1513487659200281,-1,1,-1,0,-2,-2,0,-1
1513487659202282,-2,-2,-2,-1,-2,-4,-2,-3
1513487659202282,-1,0,-1,-3,-2,-1,-2,-1
1513487659214292,-2,-2,-1,-1,0,-1,-3,-1
1513487659214292,-2,0,-1,-1,-1,-1,-2,0
1513487659223297,-1,-1,-3,-1,-1,-1,-3,1
1513487659223297,1,-2,-1,1,-1,-2,-2,-2
1513487659238308,0,0,-1,-1,0,-1,-2,-1
1513487659238308,-1,-2,0,-2,-2,-2,-1,-1
1513487659239308,0,-2,-1,0,-1,-2,-1,-3
1513487659239308,1,-2,0,-1,-3,-1,0,1
1513487659261323,0,-1,0,0,-1,-1,0,-2
1513487659261323,-2,-1,-2,-2,0,0,-1,-2
1513487659262326,0,-2,-1,-2,-2,-2,0,0
1513487659262326,-2,0,0,-1,1,-1,-2,0
1513487659274334,-1,-1,-1,1,0,1,0,-1
1513487659274334,0,-4,-1,-2,-1,-1,-1,-1
1513487659283339,-2,0,-2,-2,-1,-2,0,0
1513487659283339,-1,-1,-1,-2,-3,-3,-3,-1
1513487659298350,-1,-2,1,0,0,2,1,1
1513487659298350,-1,-1,-2,0,-1,-1,-2,0
1513487659300352,0,-2,-2,-2,0,1,1,0
1513487659300352,0,-1,-1,-1,-1,-1,0,-1
1513487659320369,0,0,-1,-1,-2,-4,-2,-2
1513487659320369,-1,0,0,0,0,0,-3,-1
1513487659322370,0,-3,-2,-2,-1,-1,0,-2
1513487659322370,-1,-1,0,-2,-2,2,-1,-1
1513487659334380,-2,-1,-1,-2,-1,-1,-3,-2
1513487659334380,-4,-3,-2,-3,-2,-3,-2,-3
1513487659343402,0,-1,-1,-1,0,1,-3,-1
1513487659343402,1,0,-1,0,-1,-1,0,-3
1513487659358413,1,0,-2,-1,-3,-2,-1,-1
1513487659358413,-1,-2,0,-2,-2,-2,-3,-1
1513487659359399,0,-1,-1,1,-1,-1,-1,-1
1513487659359399,-1,-1,-2,1,-1,-1,0,0
1513487659380422,-1,-1,1,-2,-1,-2,-1,-3
1513487659380422,0,-2,-2,0,-2,0,0,-1
1513487659382409,0,-1,0,0,-1,0,-1,-1
1513487659382409,-1,0,-1,-1,0,-1,0,-2
1513487659394422,0,1,-1,-1,-1,-2,-2,1
1513487659394422,-1,1,-1,-2,-2,-1,1,-1
1513487659403444,-1,-2,2,-3,-1,-1,-2,-1
1513487659403444,0,0,-1,-1,-3,-1,-1,0
1513487659417439,-3,-3,-1,0,-1,-1,-2,0
1513487659417439,-3,-3,-1,-2,-1,-1,-5,-3
1513487659425443,-2,-2,-2,0,-1,-2,1,1
1513487659425443,0,-1,-2,-1,-1,-2,1,-1
1513487659439452,-2,-1,-1,-2,-2,-2,0,0
1513487659439452,0,0,-2,0,-4,-2,-1,-1
1513487659448456,-2,-1,-2,1,-3,1,0,-1
1513487659448456,-1,-1,0,-2,-1,1,-2,-2
1513487659454461,-2,-1,-1,-1,0,0,-2,-1
1513487659454461,0,-2,-2,-1,3,0,3,1
1513487659463473,1,1,-1,-1,-1,-2,-2,-1
1513487659463473,1,-1,-2,0,1,0,-1,1
1513487659478478,-2,0,-1,0,-3,1,0,2
1513487659478478,-1,-1,-1,-3,0,0,-2,0
1513487659480491,0,-1,-1,-1,-1,-2,-1,0
1513487659480491,-1,-1,0,-1,-1,-2,0,0
1513487659500522,-1,-1,-2,-2,-2,-1,-5,-3
1513487659500522,-1,-2,-1,1,-2,-2,0,-2
1513487659502506,-2,-2,-1,-4,-1,-2,-2,-1
1513487659502506,0,-3,-1,-1,-2,-1,-1,-1
1513487659514504,-1,-2,0,0,-1,-1,0,-1
1513487659514504,-2,2,-1,-1,-1,-3,1,-1
1513487659523511,-2,0,0,0,-1,-1,-2,-1
1513487659523511,-1,-2,-1,0,-2,-2,-3,-1
1513487659538521,1,-1,-2,-3,-1,1,2,-1
1513487659538521,-1,-2,-2,-2,-1,-1,-1,0
1513487659539522,-2,-1,-1,-1,-1,-3,0,0
1513487659539522,0,1,0,-2,0,0,-2,-1
1513487659560536,0,-1,-1,1,0,-1,1,-3
1513487659560536,0,-2,-1,-2,-2,-2,-2,-1
1513487659562546,-3,-2,-2,-3,-1,0,-2,-3
1513487659562546,-2,0,0,-2,-2,-1,0,0
1513487659574559,0,-1,-1,-2,0,-2,-2,0
1513487659574559,-3,-1,-1,-2,-1,-2,-1,-2
1513487659583561,-2,-2,-1,-1,0,-1,-3,0
1513487659583561,-1,-2,-2,-1,-1,0,-1,0
1513487659598574,0,-1,0,-2,-1,-1,1,1
1513487659598574,0,-3,-2,-1,0,-1,-2,-1
1513487659600563,-1,-1,-2,-2,-1,-1,-2,0
1513487659600563,0,0,-1,0,-2,0,0,-2
1513487659620582,-2,-1,0,-1,-1,-2,-2,-1
1513487659620582,0,-1,0,-1,1,2,1,-2
1513487659622583,-1,0,-1,-1,-1,-1,0,-1
1513487659622583,-2,-1,0,-2,-2,-1,0,-2
1513487659643611,-1,2,-1,-2,-2,-2,-2,-3
1513487659643611,-1,0,0,1,1,0,1,0
1513487659644596,0,-3,-1,-1,-2,0,-1,-2
1513487659644596,-3,-1,-1,-1,1,-1,0,-1
1513487659658620,-1,-2,0,0,-1,-1,-1,-3
1513487659658620,-2,-3,0,-1,-2,-1,-3,-1
1513487659659606,0,-2,-1,-1,-1,-1,0,-1
1513487659659606,0,-2,-1,-1,-4,-2,-1,0
1513487659680622,-1,-2,-1,0,1,-2,1,1
1513487659680622,-3,-1,-2,-1,-2,-2,0,-2
1513487659682639,0,-1,-1,0,0,-1,-1,-1
1513487659682639,-1,-1,-1,-2,2,-1,-2,1
1513487659703650,-2,-1,-2,0,-1,-1,-3,-3
1513487659703650,-2,-1,-2,-2,-1,1,-2,-1
1513487659704649,-1,-1,1,-2,0,1,-1,-1
1513487659704649,-1,-1,-2,-1,-1,0,0,-2
1513487659717690,0,-2,-2,-2,-3,-1,0,1
1513487659717690,-1,0,-2,-1,-1,-1,-1,-1
1513487659719648,-2,2,-1,-1,-1,-1,-3,-2
1513487659719648,-1,1,0,-1,-2,0,1,-1
1513487659740671,-1,-1,0,-2,-1,-2,-2,-2
1513487659740671,0,-2,-2,1,-2,-1,-1,0
1513487659742676,-1,-2,-2,1,1,-2,-2,0
1513487659742676,-1,-1,0,-1,-1,-1,-1,0
1513487659762692,0,-2,-1,-1,-1,-1,0,-1
1513487659762692,-3,1,-1,-2,-1,-3,-2,-2
1513487659764680,-2,-1,-1,-1,-3,-1,-1,-1
1513487659764680,-1,0,-2,-1,-1,0,-2,-1
1513487659777692,-1,-3,-2,-2,-2,0,2,-2
1513487659777692,-1,-3,-1,-1,-1,-4,-2,0
1513487659784697,-2,-1,-2,-1,-1,1,1,-1
1513487659784697,0,0,-1,-1,0,-1,-1,-2
1513487659800705,-3,1,-2,-1,-1,-1,-5,-1
1513487659800705,0,-1,-1,-1,0,-2,2,-1
1513487659802710,-2,-1,-2,-1,-1,-1,0,-2
1513487659802710,-1,-2,-2,0,0,-1,1,-1
1513487659822721,1,1,-1,-1,1,-1,-2,0
1513487659822721,-3,-2,-2,0,0,1,-1,0
1513487659824725,-2,-2,0,0,0,0,0,-3
1513487659824725,-2,1,0,-2,-2,-1,-1,-1
1513487659837731,-1,-1,-2,-2,-2,0,1,0
1513487659837731,0,-2,-1,0,0,0,-1,0
1513487659844736,0,0,0,-2,-2,0,0,-1
1513487659844736,-1,-3,-1,-2,-2,-3,0,-1
1513487659860747,-3,-2,-1,0,0,-1,-2,0
1513487659860747,-1,1,-2,0,-2,0,-4,-2
1513487659861748,-2,0,0,-1,-3,0,-1,0
1513487659861748,-1,-2,0,-1,-2,-1,-2,-1
1513487659882766,-1,-2,-2,-2,-2,0,-1,-1
1513487659882766,0,-2,0,-3,-1,0,-3,-3
1513487659884765,0,-1,-2,0,1,0,0,-1
1513487659884765,-2,0,1,-1,0,0,-1,0
1513487659897777,-2,0,0,0,0,-2,-4,-1
1513487659897777,-2,1,-2,-1,-1,-2,-2,-3
1513487659903779,2,-1,-4,-2,1,-1,-1,0
1513487659903779,-2,-2,1,0,-1,-1,0,-1
1513487659920794,0,-3,0,-1,0,1,0,1
1513487659920794,-1,-2,-2,1,-1,-2,1,1
1513487659921791,0,-2,-2,-2,-2,-2,-2,1
1513487659921791,-1,0,-1,0,0,-1,-1,0
1513487659942807,-2,-2,0,0,-2,-2,-2,-1
1513487659942807,-2,-2,0,-1,-1,0,-1,-1
1513487659944808,-1,-1,-1,0,-1,0,0,-1
1513487659944808,-1,0,-2,-1,-1,-1,-2,-1
1513487659957816,0,1,-1,1,-2,-4,-2,0
1513487659957816,-1,-4,-2,-2,-2,-1,-1,-1
1513487659963821,-3,-1,0,-1,-2,-2,-2,-2
1513487659963821,-1,0,0,0,-1,0,-1,0
1513487659980845,-3,-1,-1,-1,2,1,-1,-2
1513487659980845,0,-3,0,-2,1,-2,-2,-1
1513487659982836,0,-1,-1,-2,-3,-2,-1,-1
1513487659982836,-1,-2,0,-2,-2,0,0,0
1513487660002852,1,0,-1,0,-1,-1,0,-1
1513487660002852,0,-1,0,0,-3,-1,-4,-1
1513487660004850,0,0,0,-1,-1,1,0,0
1513487660004850,-2,-2,-1,-2,-1,-1,-2,-1
1513487660017863,-3,-2,-1,0,1,0,1,1
1513487660017863,-1,-2,1,-2,-1,-1,0,-1
1513487660023867,-2,-1,-1,-1,-1,-1,0,0
1513487660023867,1,-1,0,0,-3,-1,-1,-2
1513487660040875,-3,-1,-1,-2,-2,0,-2,-2
1513487660040875,-1,0,-3,-1,-2,-2,-2,-1
1513487660041876,0,-1,0,-1,0,0,-2,1
1513487660041876,-1,0,0,1,0,-2,1,-1
1513487660062905,-1,0,-1,-3,0,-1,-2,-1
1513487660062905,1,1,-1,-1,-1,-2,1,-2
1513487660064907,-2,-3,-1,-2,-1,-2,0,-1
1513487660064907,-1,-1,-3,-2,1,-1,-1,-2
1513487660076915,-2,-4,1,0,-2,0,-1,-2
1513487660076915,-3,-3,-1,-1,-1,-3,-1,1
1513487660083905,-1,-1,-2,0,0,-1,-1,0
1513487660083905,-1,-1,-2,0,-3,-1,-2,-1
1513487660100931,0,-1,0,0,-1,0,0,-2
1513487660100931,-1,-1,-2,-2,-2,-2,-2,1
1513487660101917,-1,-1,0,0,-1,1,0,-4
1513487660101917,0,-1,-1,-2,0,-1,0,-1
1513487660122987,-2,-1,-3,-3,-1,0,-1,-2
1513487660122987,-3,-1,-4,-1,1,1,-1,-2
1513487660124937,-1,-2,-2,-1,0,-2,-1,0
1513487660124937,-1,0,3,-2,1,-2,-1,-3
1513487660136945,0,1,-1,1,-1,-1,-3,-2
1513487660136945,-2,-1,-2,-1,-2,-2,-1,-1
1513487660145949,-2,-1,-2,-1,-2,-1,-1,-1
1513487660145949,0,-3,-1,-2,-2,1,0,-1
1513487660160963,-1,0,-1,0,0,-3,-1,0
1513487660160963,-1,-1,0,-1,-2,0,-1,-1
1513487660161964,0,-1,-2,-1,-1,-1,0,-1
1513487660161964,-2,0,-1,-1,-2,0,-2,1
1513487660182979,0,-1,-1,0,1,0,0,0
1513487660182979,-2,-2,0,0,-2,-1,0,0
1513487660184994,0,-2,1,-2,-2,-2,0,-2
1513487660184994,-2,-1,-1,-1,-2,0,-1,0
1513487660197002,-1,-1,-2,-2,0,0,0,-3
1513487660197002,-1,0,-3,-2,-1,-1,-1,-1
1513487660206006,0,-1,-1,-1,-1,-2,-2,-1
1513487660206006,-1,-1,0,1,-2,-1,-2,-1
1513487660221058,0,-1,-1,0,-1,-2,-2,2
1513487660221058,0,-2,-1,-2,0,-1,0,-3
1513487660222016,-1,0,0,-1,-2,1,-4,1
1513487660222016,0,0,0,-2,-1,-1,0,0
1513487660259034,-1,-3,-1,0,-4,-3,0,-1
1513487660259034,-2,0,0,1,0,0,-1,0
1513487660260034,-2,-2,-2,-1,0,-2,-1,-1
1513487660260034,0,0,-1,-1,-2,-3,1,0
1513487660261035,-2,-1,-1,-2,-2,-1,-2,0
1513487660261035,-1,-1,-3,0,0,-4,-1,-1
1513487660266036,-1,-2,-1,-2,-2,-2,0,-3
1513487660266036,-1,0,0,-1,-1,-1,-1,-1
1513487660281046,-1,-2,-1,-4,-1,-1,0,1
1513487660281046,0,-1,-1,-1,-1,-1,-2,-1
1513487660282047,1,0,-1,-2,-1,-1,1,-1
1513487660282047,0,-3,-2,-1,1,3,0,-2
1513487660303070,-2,0,0,0,-1,-2,-1,-2
1513487660303070,-3,-3,-1,-2,-1,-2,0,-2
1513487660305078,1,0,0,0,1,-3,-3,-1
1513487660305078,0,0,-2,0,-1,0,-1,-1
1513487660317071,0,-1,-1,-3,-1,-1,-3,-2
1513487660317071,-1,-2,-1,-1,-1,0,-2,0
1513487660326077,0,0,0,-1,0,-2,-1,-2
1513487660326077,0,-1,-1,-2,0,-3,-1,1
1513487660341088,-1,0,-2,-3,-2,-1,-1,1
1513487660341088,-1,-1,-2,-1,0,-2,-2,-3
1513487660342091,-1,0,-2,-1,-1,-1,-3,-1
1513487660342091,-2,0,1,-2,0,0,-1,-2
1513487660363104,1,-1,-1,-1,-1,-1,-2,-1
1513487660363104,1,-1,-2,0,-2,0,-2,-1
1513487660365105,0,0,-2,-1,-2,1,-1,-1
1513487660365105,0,-1,-1,-2,-1,-1,0,-3
1513487660377113,-1,-1,-1,-1,-2,-2,0,0
1513487660377113,-2,-3,-1,-1,-1,-1,-1,-1
1513487660386120,-2,-2,-1,0,-2,0,-1,-2
1513487660386120,-1,-1,-1,1,0,-1,-1,1
1513487660400129,-1,-1,-1,1,0,0,-3,-2
1513487660400129,-1,1,-2,-1,0,-1,-1,-2
1513487660402131,0,0,-2,-1,0,2,2,0
1513487660402131,-1,0,-1,-2,-2,-1,-3,-1
1513487660423167,-1,-2,-1,0,-1,0,-1,-2
1513487660423167,0,1,-1,-1,-3,-2,-2,-3
1513487660425146,-1,-2,0,0,0,-1,2,-1
1513487660425146,-2,-1,-1,-2,-1,-1,-2,-1
1513487660437167,-1,0,-2,-2,0,-2,-2,-2
1513487660437167,-1,-2,-1,-1,-1,0,-3,-2
1513487660446173,-2,-1,0,-2,0,-2,0,-1
1513487660446173,0,0,-2,-1,-2,-1,2,0
1513487660460186,-3,-2,-2,-3,-2,-3,-2,-4
1513487660460186,-2,-1,0,-2,-1,-2,-1,1
1513487660462173,1,-1,0,-2,-1,0,-2,1
1513487660462173,-3,-2,0,0,-1,-2,-1,-1
1513487660483227,-1,-1,-2,-3,1,1,-1,1
1513487660483227,0,1,-1,-1,0,-1,0,-1
1513487660485190,2,-1,-1,-3,-1,-2,0,0
1513487660485190,-1,0,-1,-2,-4,-1,0,-2
1513487660497198,0,-1,-1,-1,-1,-2,0,-3
1513487660497198,-1,-1,0,0,-1,0,0,-2
1513487660506205,-1,0,-2,-1,-1,-1,-1,-1
1513487660506205,1,0,-2,-1,-1,1,0,-1
1513487660520218,-1,-3,-1,0,-2,-1,-1,1
1513487660520218,-1,-2,-1,-2,0,1,0,0
1513487660522218,0,0,0,0,-4,-1,-4,-2
1513487660522218,-2,0,-1,0,1,-2,-3,-1
1513487660544235,-1,-2,-1,-1,-2,0,0,0
1513487660544235,0,-1,0,-1,0,0,-1,0
1513487660545236,1,0,-2,-3,-2,-2,0,1
1513487660545236,0,0,-2,-1,-2,1,0,-2
1513487660565259,-3,-1,-1,0,0,-2,-1,-2
1513487660565259,0,-2,-2,1,0,-2,-1,-1
1513487660565259,-1,2,-1,1,0,-1,-2,0
1513487660565259,-1,-1,2,0,0,-3,1,1
1513487660580269,-2,0,-3,-1,-1,1,-1,-1
1513487660580269,-1,-3,-2,-2,-1,-1,-3,0
1513487660580269,-2,-1,0,0,-1,1,0,-1
1513487660580269,0,-2,-1,-1,1,-2,-2,0
1513487660602281,1,0,1,0,-1,-1,-1,-2
1513487660602281,-2,-1,0,0,-1,-2,1,-1
1513487660603273,-2,-1,-2,1,-2,0,0,0
1513487660603273,-1,-1,-1,-1,-1,1,-2,-1
1513487660625303,0,-1,-1,-1,-1,-2,-1,0
1513487660625303,-1,-1,-2,-1,-2,-1,0,-1
1513487660625303,-3,-2,0,-1,0,-1,1,-3
1513487660625303,0,1,-1,-1,-1,-1,-1,-2
1513487660640300,-3,0,-2,-1,-1,-3,-2,0
1513487660640300,0,0,-2,-1,-1,-2,-3,-2
1513487660640300,-3,-3,-1,-1,-2,-2,0,0
1513487660640300,1,-2,-1,0,-2,-1,0,0
1513487660662315,-1,-1,-1,0,-1,0,-2,0
1513487660662315,0,-1,-1,-2,-2,-2,0,-3
1513487660663316,0,-1,0,-2,-1,-1,0,-2
1513487660663316,-1,-2,-1,0,-2,0,3,1
1513487660685331,-2,-2,-2,0,-1,-1,-1,-1
1513487660685331,-2,-2,-2,-1,-2,-2,-3,2
1513487660685331,0,-1,-1,-1,-1,-2,-2,-2
1513487660685331,-1,0,-1,-2,-1,-2,-2,-1
1513487660700357,-1,-2,-1,0,-1,-1,-2,0
1513487660700357,-2,-2,-2,-1,0,-2,0,-2
1513487660700357,0,0,-1,-1,0,-1,-1,0
1513487660700357,-3,0,-1,-1,2,1,-2,-1
1513487660722414,-1,-2,0,-1,-1,0,0,-2
1513487660722414,-1,-2,2,-2,0,1,-3,0
1513487660723358,-1,0,0,-2,0,-1,0,-2
1513487660723358,-2,-2,0,-1,-2,-1,0,-1
1513487660745374,-3,-1,0,-1,0,-1,-4,-1
1513487660745374,0,-1,-3,-1,-2,1,0,0
1513487660745374,-1,-1,-2,0,-2,-2,0,-1
1513487660745374,0,0,0,-2,-1,-2,-1,-3
1513487660759383,-1,-1,-1,0,-1,1,2,0
1513487660759383,-3,1,-1,0,-1,-1,-1,0
1513487660760395,1,-1,-2,-1,-3,1,-1,0
1513487660760395,-1,-1,-2,-2,-1,1,-2,-1
1513487660782409,0,-2,0,0,-1,-2,-3,-2
1513487660782409,-2,0,-1,-2,-1,-1,-1,-2
1513487660783400,-2,0,0,1,1,0,0,0
1513487660783400,-1,-1,-1,1,-1,-2,-1,1
1513487660804456,0,-3,-2,-2,0,-1,-1,-2
1513487660804456,1,-1,-2,0,-1,0,-1,-2
1513487660805434,-2,-1,-1,-2,-1,-1,-2,-2
1513487660805434,-1,0,-1,-1,0,-1,-2,-3
1513487660820430,-2,-1,-4,-1,-2,-1,-2,-3
1513487660820430,-1,-1,-3,2,-1,-1,-2,-1
1513487660820430,-4,-1,1,-3,0,-1,-1,1
1513487660820430,0,0,-2,-2,-2,-2,-2,-3
1513487660842458,-1,1,-1,-1,-1,-1,-2,-1
1513487660842458,0,-1,-1,-3,0,-3,-1,-4
1513487660843456,-1,-1,-1,0,0,0,0,0
1513487660843456,-1,-2,-1,0,-1,-1,-2,0
1513487660864471,-1,-2,0,-2,-1,-2,-1,0
1513487660864471,-2,-3,-2,-3,-1,-3,0,-1
1513487660865458,-2,-1,0,-1,-2,-2,-1,-2
1513487660865458,0,-1,0,-1,-1,-2,0,-1
1513487660879481,-2,-1,-1,-3,0,-4,-3,1
1513487660879481,-1,-2,-1,-1,0,-1,-1,-1
1513487660880469,-2,0,-1,0,-1,0,-1,-2
1513487660880469,-2,0,-1,-2,-1,2,1,-1
1513487660902494,-1,-2,-1,0,0,-4,-2,-2
1513487660902494,-2,0,-2,-2,0,-2,2,1
1513487660903488,1,0,-1,-1,-3,1,-3,0
1513487660903488,-2,-1,-2,-1,-1,1,0,0
1513487660925516,-1,-1,-1,-2,-2,1,-1,1
1513487660925516,0,-2,0,-1,-1,1,-1,0
1513487660925516,-1,0,1,-2,0,-2,2,0
1513487660925516,-3,0,-1,-1,-1,-2,1,-1
1513487660939534,-3,0,-2,-1,-1,0,-2,-2
1513487660939534,2,-1,-2,-1,-1,-2,-3,0
1513487660940523,1,-3,-1,-1,-1,-2,0,-3
1513487660940523,1,-2,0,-1,0,-1,-1,1
1513487660962542,-2,-1,0,-1,-1,-2,0,-2
1513487660962542,-2,-1,-1,0,-2,-2,-3,-1
1513487660963528,-1,-2,-2,1,-1,0,-2,2
1513487660963528,0,0,-2,-1,-1,-1,-1,0
1513487660984612,1,-2,-1,-1,-1,1,-1,-1
1513487660984612,-2,-1,0,-1,0,1,-1,0
1513487660985613,-1,0,-1,-1,-1,-2,-1,1
1513487660985613,-1,-2,-1,1,-1,-2,-1,0
1513487660999620,0,-1,-1,-1,0,0,-2,-2
1513487660999620,-2,-1,0,2,-1,0,0,-1
1513487661000612,-1,1,-1,1,-2,-1,-3,-1
1513487661000612,-2,-1,0,-1,-1,-2,0,-1
1513487661022627,-1,-1,-2,-1,1,-3,0,0
1513487661022627,-1,-1,0,-1,-3,-2,-2,0
1513487661022627,0,-1,-1,-1,-2,-1,-1,-2
1513487661022627,-2,-1,-2,-1,-1,-3,-2,-2
1513487661044654,-2,-2,-2,-2,-1,-3,-1,-2
1513487661044654,-1,-1,-1,-2,0,0,0,-3
1513487661045642,0,-2,-2,0,-1,0,-3,-1
1513487661045642,-2,0,0,-1,-3,-1,-2,-1
1513487661059662,-1,0,-1,-2,-2,-1,1,1
1513487661059662,0,-1,-2,-2,-1,-1,0,-1
1513487661060653,1,-1,0,0,0,0,1,-1
1513487661060653,0,-4,0,-1,-2,0,-3,-1
1513487661090697,-4,-3,-1,-1,-2,-2,0,-2
1513487661090697,0,-1,-1,0,-1,-2,-1,-1
1513487661092687,-2,-2,-2,-2,-2,-2,1,-2
1513487661092687,0,2,1,-1,1,-1,-1,-1
1513487661104688,0,-2,-2,-1,-2,-2,-1,-1
1513487661104688,0,0,-2,-1,-1,-3,-2,-2
1513487661105685,-1,-1,0,-2,-1,-2,1,1
1513487661105685,0,-2,-2,-1,-1,1,1,-2
1513487661119713,0,-2,-1,0,-2,-1,0,0
1513487661119713,-2,0,-2,-2,-1,0,-1,-1
1513487661127731,1,0,0,-1,-2,0,-3,-1
1513487661127731,-3,-1,-1,-1,0,-1,1,0
1513487661142729,-2,-2,-1,-1,0,1,0,-1
1513487661142729,0,-1,-2,0,-2,-2,-4,-2
1513487661143733,-3,-1,-1,0,-2,-1,-2,-1
1513487661143733,0,0,-1,-3,-2,-2,2,1
1513487661164728,-1,0,-2,-2,1,0,-2,-1
1513487661164728,-1,-1,1,0,0,0,-2,-3
1513487661165727,1,-1,-2,0,-1,0,-1,-2
1513487661165727,-1,-1,-2,0,-1,-1,-3,-1
1513487661179738,1,0,-2,-2,-1,-1,-1,0
1513487661179738,-3,-2,-1,-1,-2,-1,1,-2
1513487661187755,0,1,0,-2,-1,-3,0,0
1513487661187755,-1,-1,0,-2,0,-1,-1,-3
1513487661202776,-2,-2,-2,0,0,-2,-2,0
1513487661202776,-1,-3,-2,-1,0,-1,-1,-1
1513487661203755,-2,-1,-1,0,0,1,1,0
1513487661203755,0,-1,-1,-1,0,-1,-1,1
1513487661224779,-1,-1,-1,-3,-2,0,0,-1
1513487661224779,0,-1,0,-2,-1,-1,-2,-1
1513487661225772,0,-1,-1,-2,-3,-2,0,0
1513487661225772,-2,-2,0,0,0,1,1,0
1513487661238789,-2,-1,-2,0,1,-1,-1,-3
1513487661238789,-1,-2,-2,0,0,-1,-1,-1
1513487661247798,-1,0,-1,-1,-1,0,0,-1
1513487661247798,-1,-1,-1,-2,-1,-3,-2,-3
1513487661262812,-2,-2,0,0,0,-1,-3,-1
1513487661262812,-1,-2,-2,-1,-1,0,0,1
1513487661262812,-2,-1,0,0,-1,-3,-1,0
1513487661262812,-2,-1,-2,0,-3,1,0,-2
1513487661284821,0,0,-2,0,-3,-1,-2,-1
1513487661284821,-1,-1,-2,-1,-1,-3,-2,2
1513487661285827,0,1,-1,-2,0,1,-1,-2
1513487661285827,-2,0,0,-2,-1,0,-3,-2
1513487661298831,0,-1,-1,0,-1,-1,-1,-1
1513487661298831,1,0,-1,-2,-2,-1,-1,-1
1513487661307828,0,-1,-1,0,2,-1,1,-1
1513487661307828,0,-1,-1,-2,-1,-2,-3,-1
1513487661322848,-1,0,-2,-1,-1,0,-4,-3
1513487661322848,-1,0,-1,-1,-1,0,0,-2
1513487661322848,-4,-1,-1,-1,-1,0,-1,0
1513487661322848,-1,1,1,-1,-1,-1,0,-1
1513487661344867,1,-2,-1,-3,-1,-3,-2,-4
1513487661344867,-3,-1,0,0,1,-2,0,0
1513487661345860,1,-1,0,-1,-2,-1,-1,-1
1513487661345860,-1,0,-2,0,-1,-2,0,1
1513487661358877,-4,-2,0,-1,-3,0,-1,-1
1513487661358877,-2,-1,-1,-2,-2,0,0,-2
1513487661367881,0,0,-2,-2,0,-1,0,-1
1513487661367881,0,-1,0,-1,0,-2,-2,0
1513487661390950,-2,-2,0,-1,-1,-1,0,-1
1513487661390950,-2,-1,-2,0,-1,0,0,-1
1513487661390950,-3,-1,0,-1,-1,-1,-1,-1
1513487661390950,0,-2,0,0,-2,-3,-1,-3
1513487661404948,-1,-1,-1,-1,-1,0,-3,0
1513487661404948,-2,-1,-1,-1,2,-1,-2,-2
1513487661405974,-1,-2,-1,-1,-2,0,-3,-1
1513487661405974,-1,-1,-4,-1,-2,0,-1,0
1513487661418979,-1,-2,-3,-2,0,-2,-1,-1
1513487661418979,-2,-1,-1,-3,-3,-2,0,-3
1513487661426970,-1,0,-1,0,-1,-1,1,-1
1513487661426970,-2,0,-1,-1,-1,-1,-2,-1
1513487661442983,-1,-1,0,1,1,1,-1,-1
1513487661442983,0,-2,-2,-2,-1,-2,-2,-1
1513487661443973,0,-2,-1,-1,-3,-2,0,-3
1513487661443973,-2,-2,1,-1,0,0,1,-1
1513487661464996,-3,-2,-3,0,-2,-2,0,2
1513487661464996,-1,-1,-1,-2,0,1,0,0
1513487661465998,2,-3,1,-2,-1,1,-1,0
1513487661465998,1,-1,-2,0,-1,-2,-2,-1
1513487661488017,-1,-1,-1,-2,-2,-2,-2,-2
1513487661488017,-1,-1,0,0,-3,-2,-3,-2
1513487661489017,-1,0,-1,-1,-1,0,-2,1
1513487661489017,-1,0,1,0,-2,0,0,-2
1513487661502023,-1,-2,0,-1,1,0,0,-3
1513487661502023,-2,-2,-2,-1,-1,-1,0,-2
1513487661503023,-1,0,1,-1,-1,0,-1,1
1513487661503023,-2,-1,-2,-2,0,-1,-2,0
1513487661525030,0,0,-1,1,-2,-3,-2,1
1513487661525030,-1,0,0,1,0,0,2,-1
1513487661526042,-1,0,-1,-2,-1,-2,0,-2
1513487661526042,-2,-1,-2,-2,0,-2,1,0
1513487661548058,0,-2,-2,-2,-1,-4,-2,-1
1513487661548058,0,-1,-3,0,-2,-2,-4,0
1513487661549046,-1,-1,-1,-1,-1,-1,-1,0
1513487661549046,0,0,-1,1,-1,-1,-3,-1
1513487661562066,-1,-2,-2,-1,-1,0,-2,-3
1513487661562066,2,0,-2,-1,-1,0,-1,0
1513487661563067,0,0,-1,-1,-1,-1,-1,-1
1513487661563067,-1,-1,0,0,0,1,0,0
1513487661585081,0,-1,-2,-2,-1,-1,-3,1
1513487661585081,-2,-1,0,-1,0,-2,0,-3
1513487661586083,-2,1,-2,-1,0,-3,1,1
1513487661586083,-1,-1,-1,0,0,0,-2,-3
1513487661616094,-2,0,-2,0,0,-1,1,-3
1513487661616094,0,-2,-1,-3,-1,-1,-1,0
1513487661616094,-1,-2,-3,-2,0,-1,-2,-1
1513487661616094,-2,-2,-2,0,-1,-2,-2,0
1513487661622125,-1,0,-2,-1,-2,1,-1,-1
1513487661622125,-1,0,-1,1,1,0,0,-1
1513487661623100,0,-1,-1,0,-1,-2,-2,-1
1513487661623100,0,0,-1,-3,-1,-1,-1,-1
1513487661645133,-2,-2,1,-2,-1,-1,-3,-2
1513487661645133,-1,-1,-1,0,-2,-2,-1,-1
1513487661646134,0,-3,0,-2,1,1,0,0
1513487661646134,-1,-1,-1,-1,-2,1,0,-1
1513487661668142,-1,0,-1,-1,1,-2,-3,-1
1513487661668142,-1,0,-1,-2,-1,-1,-2,-2
1513487661669132,-2,0,1,0,-2,2,-1,-3
1513487661669132,0,0,-1,-3,-3,-2,-2,-1
1513487661682141,-2,0,0,-1,-1,-1,-2,-1
1513487661682141,-3,-1,0,-1,-2,-3,-1,0
1513487661683142,-1,1,1,0,0,0,1,-1
1513487661683142,-1,-1,-2,-1,-2,-1,-2,-1
1513487661705170,1,-1,-1,-2,-1,-2,-1,-1
1513487661705170,1,-3,-2,-2,-2,-3,-2,-1
1513487661706157,0,-1,-1,-1,0,-2,0,-2
1513487661706157,-2,-1,-2,0,1,-1,-1,-1
1513487661728183,-1,-1,-1,-1,0,0,2,0
1513487661728183,1,1,-3,-2,-2,-1,-2,-1
1513487661729183,-1,-1,0,-1,-2,-1,0,-1
1513487661729183,1,-2,1,0,-1,-1,0,-1
1513487661742195,-2,-1,-2,-2,-1,-2,-1,-1
1513487661742195,-1,-1,-1,-1,-1,-1,-1,0
1513487661743185,2,-1,-2,0,0,-1,1,-2
1513487661743185,0,-1,-1,-1,1,-1,0,0
1513487661765214,-1,1,-2,1,-2,-1,0,1
1513487661765214,-1,-2,-2,-1,0,0,1,-1
1513487661766215,-2,-2,-2,-2,-1,-2,-1,-1
1513487661766215,-2,-3,-1,-2,-1,0,-1,-3
1513487661788230,1,-2,-2,-2,-2,-1,-2,-2
1513487661788230,-1,-1,0,-1,-3,-1,-1,0
1513487661789231,-2,-1,-2,-2,-3,0,-1,-1
1513487661789231,0,-2,-1,-1,0,-2,0,2
1513487661802252,-2,-1,1,0,-1,-2,0,0
1513487661802252,0,-2,0,0,1,-1,-1,-3
1513487661804253,0,-1,-1,-2,-1,-1,-1,-1
1513487661804253,-2,1,-2,-1,0,-2,-1,-2
1513487661825246,0,-1,-2,-2,0,1,-4,-1
1513487661825246,-1,0,0,0,-2,0,-1,-1
1513487661825246,-2,0,0,-1,-2,-3,-2,0
1513487661825246,1,-2,1,1,-2,-2,-1,-2
1513487661848270,-2,-2,-1,-2,-2,-3,0,-1
1513487661848270,0,0,-1,-2,-2,-1,1,-2
1513487661849260,-1,0,0,0,-2,-2,0,0
1513487661849260,-2,0,0,-2,-2,0,-1,-2
1513487661862278,-2,-3,0,0,0,1,-1,0
1513487661862278,-1,-1,0,-1,0,-1,-1,0
1513487661863268,0,-1,1,1,0,-1,0,-1
1513487661863268,-1,1,0,0,0,0,0,0
1513487661885294,0,2,-1,-2,-1,-1,-2,-3
1513487661885294,-1,0,-3,0,-2,1,-1,1
1513487661885294,0,-1,-3,-1,0,-1,-1,-1
1513487661885294,-1,-3,-2,-1,-3,0,-1,-1
1513487661908310,-2,-2,-1,0,0,-2,0,0
1513487661908310,-2,-2,-2,0,1,-2,-1,0
1513487661909304,-1,-1,-2,-1,-1,-1,-2,-1
1513487661909304,-1,-3,0,-1,-2,-2,-2,-2
1513487661923334,0,0,-2,0,0,-1,2,-1
1513487661923334,0,-1,0,-2,0,-2,-2,-1
1513487661923334,0,0,-2,-1,-1,-1,-1,1
1513487661923334,0,-1,0,-1,-2,-1,-1,-1
1513487661945336,-1,-2,-1,-1,0,0,-1,-1
1513487661945336,-1,0,0,0,-1,-2,-2,0
1513487661945336,2,0,0,-1,0,-2,1,-2
1513487661945336,1,0,-1,-1,-3,-1,-2,-1
1513487661968367,-3,-2,-2,0,0,-1,-2,-1
1513487661968367,1,0,-2,0,0,-2,-2,0
1513487661969354,-2,0,-2,-1,-1,0,-1,-1
1513487661969354,-1,1,-1,-1,0,-2,0,1
1513487661982363,-1,0,0,-1,-1,-1,-1,-1
1513487661982363,-3,-1,0,-1,0,-2,-1,0
1513487661983353,0,-1,0,0,-1,-1,-1,0
1513487661983353,-2,-2,-2,-2,0,-1,-2,-3
1513487662005390,-1,-1,-2,-1,-1,-2,-2,-2
1513487662005390,0,0,-1,-1,-1,0,-2,-2
1513487662005390,-3,0,0,0,-2,-1,-1,-1
1513487662005390,-1,-1,-2,-1,-1,0,-1,-4
1513487662028407,0,-1,-2,-1,0,-1,-1,-1
1513487662028407,1,-2,-2,-2,-1,1,0,-2
1513487662029387,0,-2,-1,-2,-2,1,-2,-1
1513487662029387,-2,-1,0,0,-1,0,-2,-1
1513487662042400,-1,-1,-3,-1,-2,-1,-1,-1
1513487662042400,-1,0,-2,1,-1,-1,1,-2
1513487662043397,0,1,0,-1,-1,0,-1,0
1513487662043397,-1,1,1,0,0,-2,1,-1
1513487662064426,-1,-1,-1,-2,0,-2,0,0
1513487662064426,-2,-1,-1,-2,-1,-2,-2,-2
1513487662065422,1,-3,0,0,0,1,0,-2
1513487662065422,-2,-2,-2,-1,-3,0,-1,0
1513487662088456,-2,-1,-1,-1,-1,-1,-3,-2
1513487662088456,-2,0,-1,-1,-2,0,-3,-1
1513487662088456,-1,-2,-1,-3,-1,-3,0,-2
1513487662088456,0,-2,-1,-1,-2,-1,-1,-1
1513487662101447,0,-2,0,-2,-1,-2,-2,0
1513487662101447,0,-1,-2,0,2,2,1,-1
1513487662109444,-2,-1,-2,-2,-3,-2,-1,-2
1513487662109444,-1,-1,-2,-1,0,0,0,-1
1513487662124517,-1,-2,-2,1,-3,-2,2,-1
1513487662124517,0,-2,-1,0,-1,0,1,-1
1513487662125475,0,1,-1,0,-1,-1,-1,0
1513487662125475,-1,-1,-2,-1,0,-1,-2,0
1513487662148491,0,-2,-3,-1,-4,0,0,-2
1513487662148491,-1,-3,-1,0,0,0,-3,-1
1513487662148491,-2,0,0,1,-1,-1,0,-2
1513487662148491,-2,-1,0,-2,-2,-1,-1,-1
1513487662170506,-1,-2,-1,-1,-1,0,-1,-2
1513487662170506,-1,0,0,-2,-3,-2,1,0
1513487662171487,-4,0,0,-3,0,0,0,-1
1513487662171487,-1,-1,-1,0,0,-1,0,-1
1513487662184510,0,-1,-1,-3,1,-1,-3,-2
1513487662184510,-1,-2,-2,-3,0,-1,-1,-1
1513487662185497,-2,-1,-1,0,-2,0,-1,1
1513487662185497,-2,-1,-2,-1,0,0,0,0
1513487662207535,-2,0,-3,-2,-1,0,-1,1
1513487662207535,0,-1,-2,-1,-1,0,-1,-2
1513487662208514,0,-1,0,-1,-1,-1,-1,-2
1513487662208514,-1,0,-1,0,0,-1,-1,-1
1513487662221564,-1,-1,0,-1,-1,-2,0,-1
1513487662221564,-2,-1,0,-1,-2,-1,-1,-3
1513487662229537,0,-2,-1,0,-2,-1,-2,2
1513487662229537,-1,-1,-3,1,0,-1,0,0
1513487662244548,-2,0,-1,-1,-1,-1,0,-1
1513487662244548,1,-1,0,-2,-2,0,-1,0
1513487662245549,0,-1,-2,-3,0,-3,0,-2
1513487662245549,-1,-3,0,0,-1,-2,-2,-1
1513487662267569,0,-1,-1,-1,-2,-1,0,-3
1513487662267569,-2,-1,-1,0,-2,0,2,-1
1513487662268557,-2,-2,0,0,-2,0,1,0
1513487662268557,-1,0,-2,-1,0,-1,-1,-1
1513487662281574,-1,-1,-1,0,-2,0,-2,-2
1513487662281574,-1,-1,-1,-1,-1,-2,-2,-2
1513487662297576,0,-1,-1,-1,-1,0,0,-1
1513487662297576,-1,1,0,-2,-2,-3,-1,-3
1513487662304603,-2,-2,-2,0,1,-2,-1,0
1513487662304603,0,0,-1,-1,-1,1,-1,0
1513487662305582,-1,0,-1,0,-2,-3,-1,-2
1513487662305582,0,-2,-1,-1,-3,-2,-2,-2
1513487662327610,-1,-1,-3,-2,-3,0,-1,-2
1513487662327610,-2,0,-1,-1,-3,-1,-1,-1
1513487662328610,-1,-2,-1,-2,-3,0,-1,-2
1513487662328610,-1,0,-1,0,1,0,0,0
1513487662341616,1,-2,1,-2,-3,-2,-2,1
1513487662341616,-1,0,-2,1,-1,0,-1,0
1513487662349612,-3,-2,-1,-2,-3,1,-1,-1
1513487662349612,0,-2,-2,0,-1,-1,-1,-1
1513487662364633,-2,-1,-1,0,0,0,0,-1
1513487662364633,-2,-1,-1,0,-1,-3,0,-1
1513487662365623,-1,-1,0,-1,-1,0,0,-1
1513487662365623,-1,-1,0,-2,-1,0,-2,-2
1513487662387648,-1,1,-3,-1,0,-2,-2,0
1513487662387648,-3,-2,-1,-2,-2,-3,0,-1
1513487662388640,0,0,-3,0,0,1,1,-2
1513487662388640,0,-2,-2,-1,-1,-2,1,1
1513487662401649,-2,-2,-1,0,-1,0,-2,-3
1513487662401649,-1,0,-2,-1,-1,-3,-2,-1
1513487662409671,0,-1,0,0,-1,-5,0,-1
1513487662409671,-1,0,-1,-1,0,-1,-3,-2
1513487662424695,-3,0,0,-1,-1,-1,0,-1
1513487662424695,0,-2,0,-1,-1,-3,-2,-1
1513487662425666,-1,-1,-2,-1,-1,-2,-1,1
1513487662425666,-2,0,0,0,-1,-1,-2,0
1513487662447683,-3,-2,-2,-1,0,-2,0,0
1513487662447683,0,-2,1,-1,0,-1,1,1
1513487662448696,0,1,1,-2,-1,-1,-2,-1
1513487662448696,0,-1,-1,0,-2,-2,-1,-3
1513487662470755,-2,1,-2,-2,0,1,-1,-2
1513487662470755,-1,-2,-3,0,0,0,1,-1
1513487662471714,0,-1,-2,1,-1,-2,-2,0
1513487662471714,-1,0,0,-1,-2,-1,-1,-1
1513487662484709,-1,0,-2,-1,-1,-2,-3,-2
1513487662484709,-1,1,-1,-2,-1,-2,-1,-1
1513487662485709,-1,-1,1,0,1,1,-1,-1
1513487662485709,0,-3,-1,0,-2,0,-1,1
1513487662507741,1,-2,-1,0,-1,-1,0,1
1513487662507741,-3,-2,0,-2,-1,1,-1,-1
1513487662508726,-2,0,-2,-2,-3,-1,-1,-1
1513487662508726,-2,-1,-1,-3,-2,0,0,-1
1513487662530758,0,-2,0,-2,-2,-2,-2,-2
1513487662530758,1,1,-2,-1,-1,-3,-2,0
1513487662531742,-2,0,-1,-1,-2,-2,-1,0
1513487662531742,-2,0,-1,-1,1,-2,-1,1
1513487662544762,-2,-2,-2,0,-1,0,-1,0
1513487662544762,1,-2,0,1,-2,-1,-1,0
1513487662545752,0,1,-2,0,0,0,-1,-3
1513487662545752,-1,-1,-2,0,-1,0,0,-2
1513487662567806,-1,-2,0,-2,0,-2,-1,-2
1513487662567806,-1,-2,-2,-1,0,-1,-1,-2
1513487662568786,0,-3,-1,-1,0,-2,1,1
1513487662568786,-2,-2,0,-1,-2,0,-1,-2
1513487662597789,-1,-2,-2,-2,-1,-1,-1,-2
1513487662597789,-2,0,-2,-2,-2,0,2,0
1513487662598789,1,-1,0,-2,-2,-2,-1,-2
1513487662598789,-3,-1,-1,-1,-1,-2,1,0
1513487662604796,-1,-2,-2,1,0,1,0,-1
1513487662604796,-2,1,-1,-1,-2,0,-2,-2
1513487662605794,-2,-1,-2,-1,0,-3,1,-1
1513487662605794,0,-2,-2,-1,-1,-1,-2,-2
1513487662627809,-1,-1,-2,0,0,-2,-1,0
1513487662627809,1,0,-1,-1,0,-1,0,1
1513487662628810,-2,0,-2,-2,-1,1,-1,-1
1513487662628810,-1,-1,-3,0,-1,-4,-3,-2
1513487662650838,-1,-2,-1,0,-2,-1,-2,-1
1513487662650838,-2,-3,0,-1,0,0,-1,0
1513487662651827,0,0,-1,-1,-1,0,-1,-1
1513487662651827,-2,0,-2,-2,0,0,-1,1
1513487662663836,0,0,-2,-1,-3,-1,-1,-2
1513487662663836,0,1,-1,-2,-1,-1,0,0
1513487662672862,0,-1,1,-1,-1,-1,-3,0
1513487662672862,-2,0,-2,-1,-1,0,0,-3
1513487662687854,1,-1,0,-1,-1,-2,-1,1
1513487662687854,-2,0,-1,-1,-2,0,2,-2
1513487662689857,-1,0,0,-1,-2,0,-2,-1
1513487662689857,-1,-1,-1,-2,-2,-2,-2,1
1513487662710882,-2,-1,-1,0,0,1,-2,0
1513487662710882,-1,-2,0,0,-1,-1,0,1
1513487662711870,-1,-2,-3,-2,-2,1,0,-1
1513487662711870,-2,-2,-1,-2,-1,-2,1,-2
1513487662723903,-1,-1,-2,-2,-2,-1,-2,-4
1513487662723903,-1,0,-1,0,-1,1,-1,0
1513487662733885,-2,-1,-2,-1,0,-2,-2,-1
1513487662733885,0,-1,0,-1,0,-1,-2,-2
1513487662755942,0,-2,-1,-2,0,-1,0,-1
1513487662755942,0,-2,0,0,-2,-1,0,-2
1513487662756902,-2,-2,0,0,-1,1,0,-3
1513487662756902,-1,-2,-2,0,-3,-2,-1,-3
1513487662770925,-3,-3,0,0,0,-1,-1,1
1513487662770925,-1,0,-1,-1,-2,-2,0,0
1513487662771911,0,-2,0,0,-1,-1,1,2
1513487662771911,-1,1,-4,-2,-1,-3,-3,-1
1513487662783934,-1,2,-1,-2,-1,-2,-2,-3
1513487662783934,0,1,-3,-2,-1,0,-1,-1
1513487662792943,-1,0,-1,-2,-1,-2,0,-1
1513487662792943,-1,-2,-1,-1,1,0,0,-2
1513487662815958,-3,-1,-2,0,1,-3,0,-1
1513487662815958,0,-3,-1,-1,-2,-3,-1,1
1513487662816942,-2,2,0,-1,0,1,-1,-1
1513487662816942,-1,0,-1,-2,-1,-1,0,-2
1513487662831020,1,-2,-1,-2,-2,0,0,2
1513487662831020,0,-2,0,0,0,0,-2,-3
1513487662833018,-2,0,-2,0,-2,-2,-1,-1
1513487662833018,-1,-2,-2,-1,-1,0,1,0
1513487662845029,0,0,-2,0,0,0,1,0
1513487662845029,1,-2,0,-1,-1,-2,-3,0
1513487662852030,0,-1,-1,0,-3,-1,1,1
1513487662852030,-1,-1,0,0,-1,-2,-2,-2
1513487662868033,-2,-1,-2,-1,-1,-2,2,0
1513487662868033,-3,0,0,-1,-1,-1,-1,0
1513487662870055,0,-1,-2,0,-1,-2,-2,0
1513487662870055,-2,-2,-1,0,-2,-1,-1,0
1513487662890070,-3,-1,-2,-1,-2,-2,-2,-3
1513487662890070,1,0,-1,-2,-1,-3,-3,-3
1513487662892051,-2,-1,0,-2,-1,1,1,-1
1513487662892051,0,-1,1,-1,-2,-2,-3,0
1513487662913066,-1,-2,-1,0,-1,-1,-2,-1
1513487662913066,0,-1,-1,-1,-3,-3,-3,-1
1513487662915067,0,-2,-1,-1,0,-2,-2,-1
1513487662915067,0,-3,-2,-1,0,0,-1,0
1513487662928076,-2,-1,1,-2,0,-1,0,-1
1513487662928076,0,1,-1,-1,-2,-1,1,0
1513487662930078,0,-2,-2,0,-1,-1,0,0
1513487662930078,0,0,-1,-2,-1,0,-3,-2
1513487662950090,-1,-1,-2,-3,-1,-2,-2,-1
1513487662950090,-2,-1,-1,-1,1,0,0,-1
1513487662952092,0,0,0,-2,-2,-2,-2,-2
1513487662952092,-1,-2,-1,-1,-2,-1,-2,-3
1513487662964103,-1,0,-3,-1,-1,1,-3,-1
1513487662964103,1,0,-1,-1,0,0,3,-2
1513487662973124,-1,-1,0,-2,1,0,-2,-1
1513487662973124,-1,-1,-2,-2,0,-2,-3,0
1513487662988135,-2,-1,-1,-1,-1,-3,-2,-2
1513487662988135,-2,-1,0,-1,-1,-1,-1,-1
1513487662989119,1,-1,-1,-1,-2,-2,0,0
1513487662989119,-2,-1,-1,0,0,2,1,-2
1513487663011134,1,-1,-2,-2,-2,-3,-1,-1
1513487663011134,-1,-1,-1,-3,-2,-2,-2,-1
1513487663012137,0,0,0,0,-2,-2,-1,-1
1513487663012137,-3,-1,-3,-2,1,-1,0,-1
1513487663024203,-2,0,0,0,0,1,-1,-1
1513487663024203,1,-1,-2,-1,-3,0,-1,1
1513487663033170,-1,-2,0,-1,-2,0,0,-3
1513487663033170,-1,-1,0,0,-2,-2,-2,-1
1513487663048165,-2,-3,-2,-1,1,0,0,-4
1513487663048165,-2,-2,-1,-3,-1,0,0,-2
1513487663054169,-1,-1,-1,-2,-2,-2,-3,-2
1513487663054169,-1,-3,-2,-1,-1,-1,-1,-1
1513487663070180,1,-2,-1,-2,0,-2,0,0
1513487663070180,0,1,1,0,-1,-1,-2,0
1513487663072181,-1,-2,-2,-1,-1,0,-2,0
1513487663072181,-2,-1,-1,-1,-2,-1,-1,-2
1513487663084187,-2,-2,-1,-1,0,-2,-3,-1
1513487663084187,-3,-1,-2,0,0,2,1,-1
1513487663093194,-1,1,0,0,-2,-3,1,-2
1513487663093194,-2,-2,0,-1,-1,0,-1,-1
1513487663108229,-1,-1,-1,0,-3,-2,-2,-1
1513487663108229,0,-3,-1,-3,-1,-1,-2,0
1513487663109218,-1,0,-1,0,1,1,0,-3
1513487663109218,0,0,-1,-1,1,1,-4,-1
1513487663130231,-2,1,-2,-2,-2,-1,-1,-3
1513487663130231,-1,0,0,-1,0,-1,0,-1
1513487663132219,1,-1,1,-1,-2,0,0,0
1513487663132219,-1,-2,-3,1,-1,-1,-1,-1
1513487663144229,-1,-1,-1,-1,-4,-1,0,-3
1513487663144229,-1,-2,0,-1,0,0,-3,-1
1513487663153234,-2,-1,-1,-2,-2,-2,-2,-2
1513487663153234,-2,0,0,-1,1,-2,1,-2
1513487663168309,-1,-2,-1,-1,-2,-2,-2,1
1513487663168309,-1,1,0,-1,-1,-1,1,-2
1513487663169311,0,-1,-1,-1,0,-1,-1,0
1513487663169311,-2,-1,-1,0,-2,-2,0,-1
1513487663204347,-1,1,-1,-1,1,1,1,1
1513487663204347,1,0,1,0,-2,-2,-1,-2
1513487663215334,-3,-4,-2,0,-1,0,-2,0
1513487663215334,-1,-2,-3,-1,-2,-2,-2,-2
1513487663216343,-1,-1,-2,-1,-1,-2,-1,0
1513487663216343,-1,-2,-2,-1,-2,-2,1,-1
1513487663219392,0,0,-1,-2,-2,-3,-1,-1
1513487663219392,-1,0,-1,0,-3,-1,-1,0
1513487663228465,1,-1,0,-1,-1,0,-3,-1
1513487663228465,-2,-1,-2,-1,-2,-1,-1,-2
1513487663229466,-2,-1,0,-2,-1,-1,1,0
1513487663229466,-2,-3,-1,-2,0,-1,1,-1
1513487663250481,1,1,-1,0,0,-1,0,0
1513487663250481,-1,1,-2,-1,-1,-1,0,-1
1513487663252484,-2,-2,-1,1,-1,2,-1,-2
1513487663252484,-2,-3,-1,-2,-1,-2,-4,-1
1513487663264501,-2,-1,-1,0,-1,-1,-2,0
1513487663264501,-1,-2,-1,-1,-2,1,1,-1
1513487663273514,-2,-2,-3,-2,-1,1,0,0
1513487663273514,-1,-1,-2,1,0,-2,-2,-4
1513487663288520,-1,-3,-2,-2,-2,-2,1,-3
1513487663288520,-1,0,-1,-2,-1,-2,-2,-1
1513487663289509,0,-1,-2,-1,0,-1,0,-2
1513487663289509,0,-1,-2,-1,0,0,-1,-1
1513487663311524,-2,0,-2,-1,-1,-2,-2,-1
1513487663311524,0,-2,-1,-1,0,0,0,0
1513487663312527,-1,-1,-1,-1,0,-2,0,0
1513487663312527,-1,0,0,-2,-2,-2,0,0
1513487663324589,0,-1,2,-1,0,2,0,-1
1513487663324589,0,-1,-1,-2,-1,-1,-2,-1
1513487663334541,-2,0,1,0,0,-2,-2,-2
1513487663334541,-3,-2,-1,-2,-2,0,1,1
1513487663348552,-2,-3,-3,-1,-3,-3,0,-1
1513487663348552,-1,-1,0,-1,-1,2,0,-1
1513487663349551,-2,-1,-2,0,0,-1,-3,-2
1513487663349551,0,0,-1,-2,-2,-2,-2,-1
1513487663370590,-1,0,-1,-1,-1,-2,-1,0
1513487663370590,-2,-1,0,1,-1,0,0,1
1513487663372580,0,-1,1,0,-2,-2,0,1
1513487663372580,-1,-2,-2,0,0,0,1,-1
1513487663393604,-1,-2,-1,0,-1,-1,-2,-3
1513487663393604,-2,-2,-1,-1,-3,-2,-2,-1
1513487663395584,-1,0,-2,-2,0,0,-2,0
1513487663395584,-2,0,-1,-1,0,-2,-2,0
1513487663407615,-1,0,-2,-2,-2,-2,-3,-1
1513487663407615,0,-2,-1,0,-1,-2,-1,-2
1513487663409602,1,0,0,-1,-1,-1,-2,-1
1513487663409602,-2,-1,-2,-1,0,-1,-1,0
1513487663430627,-2,-2,-1,-3,0,-1,0,-3
1513487663430627,-1,2,0,-1,0,0,-1,1
1513487663431610,-1,-1,-1,-1,-2,-1,-2,0
1513487663431610,1,-3,-1,0,-3,-1,-3,-2
1513487663452648,-1,-2,-1,-1,0,-1,-1,-1
1513487663452648,-2,0,-1,-1,-1,-3,0,0
1513487663454626,0,1,-2,-2,0,-1,1,0
1513487663454626,-1,-1,-3,-2,-2,-2,0,-2
1513487663467658,-2,-1,-2,-2,-1,-2,0,0
1513487663467658,1,-1,-1,-2,0,0,-1,-1
1513487663473654,-1,0,0,-1,-2,0,-1,-1
1513487663473654,0,-2,0,0,-1,0,-1,-3
1513487663490662,-2,-1,-3,-1,-2,0,-2,-1
1513487663490662,-1,-1,-1,-1,-1,-2,-1,1
1513487663491653,-1,-2,-1,-1,-1,-1,-2,-3
1513487663491653,-1,-3,-2,-3,-2,-1,0,-1
1513487663512682,0,-2,-1,0,-1,0,-3,-1
1513487663512682,-1,0,-1,-2,-1,-3,0,0
1513487663514676,0,-1,-1,-3,-1,-1,-3,-2
1513487663514676,-2,0,0,0,1,-1,-1,0
1513487663527693,-1,-2,-2,-1,0,-1,2,-2
1513487663527693,0,0,0,-1,-2,-1,-1,-2
1513487663534683,0,-1,0,0,-1,-1,-1,-3
1513487663534683,-2,-3,-1,-1,-1,-1,-2,0
1513487663550695,-2,-1,-3,1,-2,-1,-2,0
1513487663550695,-2,-2,-1,-2,-1,1,2,-1
1513487663557736,0,0,-1,-1,-1,-1,3,1
1513487663557736,0,-2,-2,-2,-1,-1,-4,-2
1513487663572723,2,-1,-1,-3,-1,-1,0,-2
1513487663572723,-1,-2,-1,2,-1,2,0,0
1513487663574711,0,-1,0,-2,-2,-4,-3,0
1513487663574711,-2,0,1,0,-1,-1,-2,-1
1513487663587729,-1,0,0,-2,-1,-4,-3,1
1513487663587729,1,-1,1,-1,-1,0,1,-3
1513487663593762,0,-2,0,-1,-3,0,1,-1
1513487663593762,-1,-1,-1,-3,-3,-2,-1,0
1513487663610746,0,0,-2,-1,0,-1,-2,0
1513487663610746,0,0,1,-2,-2,-2,0,0
1513487663611738,-3,-1,-1,2,4,1,-1,0
1513487663611738,-3,-1,-2,-3,-1,-3,-1,-2
1513487663632764,-1,-2,-1,1,-1,-2,1,-1
1513487663632764,1,-1,-2,-5,1,0,-3,0
1513487663634755,-2,-3,-1,4,-3,-2,-2,1
1513487663634755,-1,-1,-4,-3,-2,0,-3,-1
1513487663647782,-2,-2,-4,-5,-1,-1,0,1
1513487663647782,2,0,-2,-1,0,1,0,-1
1513487663653792,3,1,-2,-2,-1,-1,1,-1
1513487663653792,1,2,3,5,-1,0,0,-3
1513487663670799,-1,-1,18,3,-3,-1,-2,0
1513487663670799,-2,0,-28,-8,-1,1,-1,-2
1513487663671780,-2,-4,0,-5,-3,-2,-2,-2
1513487663671780,-1,-2,4,0,-1,0,-1,-1
1513487663692811,-3,1,-2,3,0,-2,-3,-1
1513487663692811,-2,1,21,4,-2,-2,-1,1
1513487663694796,0,-1,-10,-4,-1,-1,0,0
1513487663694796,-1,-2,-8,3,2,1,-1,-1
1513487663707818,-4,-4,3,0,-4,-2,-1,-2
1513487663707818,1,-1,4,0,1,-2,-3,-2
1513487663713821,2,6,20,10,2,1,2,1
1513487663713821,-1,-1,7,3,6,0,0,0
1513487663730841,-1,-3,-15,-7,-10,1,2,-1
1513487663730841,-2,3,4,2,-3,1,1,3
1513487663731842,1,1,1,-11,-3,0,-1,1
1513487663731842,1,-3,9,5,2,-5,-3,-3
1513487663752836,-8,0,5,5,4,1,-1,-2
1513487663752836,2,0,-12,0,-2,-5,0,-1
1513487663754848,13,1,5,5,1,1,0,0
1513487663754848,-29,-8,-15,-2,-5,-3,-3,-3
1513487663767867,-2,-7,-6,-15,-5,-3,-3,-3
1513487663767867,-5,-2,1,1,-3,0,-2,-1
1513487663773908,-3,-2,-11,-6,2,0,-2,-1
1513487663773908,12,6,3,-7,-1,-2,-2,4
1513487663790877,0,-2,-10,8,2,2,1,-1
1513487663790877,0,-3,-17,2,4,2,1,1
1513487663791873,-5,4,24,12,-3,-1,-1,-2
1513487663791873,0,-7,-51,-25,0,4,0,-2
1513487663820924,0,-1,-2,-5,0,-1,-3,0
1513487663820924,3,4,-28,10,-3,-3,-1,-1
1513487663821886,-8,-9,-5,-1,-3,-4,-5,-4
1513487663821886,-6,1,7,-19,-6,-3,0,1
1513487663826889,16,11,-4,4,3,1,0,2
1513487663826889,-16,-12,0,-6,-3,-3,-5,-10
1513487663833895,-21,-9,-5,0,0,-1,0,-1
1513487663833895,11,-3,2,8,-4,0,0,-2
1513487663850905,-7,-2,2,-8,2,1,0,2
1513487663850905,15,13,20,1,-2,-3,2,4
1513487663851907,-28,-3,0,2,1,0,-2,-5
1513487663851907,1,12,-2,0,1,-1,-4,-3
1513487663872961,-7,-10,-14,3,-2,-2,-2,-2
1513487663872961,-6,-19,22,0,0,3,4,3
1513487663874949,15,3,-25,-11,-3,-1,-1,1
1513487663874949,-10,9,14,11,-1,-2,-1,-4
1513487663886941,5,-5,9,-3,-2,0,0,-4
1513487663886941,19,18,-16,-4,0,-1,-8,2
1513487663895950,0,-15,-2,-6,-4,-3,8,3
1513487663895950,18,-1,5,3,-2,-1,-3,4
1513487663910960,-17,11,31,6,-1,0,-2,-3
1513487663910960,10,-4,0,-3,-3,-1,-2,-6
1513487663911961,0,3,-9,3,1,-2,-2,-3
1513487663911961,-28,-11,-7,-11,0,-3,-2,-3
1513487663932963,7,2,-2,3,-3,-5,-9,-3
1513487663932963,2,-8,3,-9,-2,0,15,5
1513487663935966,20,7,-1,3,0,1,-7,-1
1513487663935966,11,-7,28,15,2,-2,-7,-2
1513487663946983,-24,-21,-60,-13,-3,-1,11,-2
1513487663946983,-10,10,14,5,0,0,-1,-1
1513487663955989,6,-3,-17,-10,-4,-5,-6,-1
1513487663955989,-6,-2,-26,-14,-3,1,2,3
1513487663971007,13,7,17,5,4,1,-3,1
1513487663971007,-27,-7,15,4,2,-3,6,-4
1513487663971992,-10,-2,5,1,-1,-2,-9,-6
1513487663971992,9,11,-15,-5,4,4,4,4
1513487663993007,-4,4,56,23,-3,-6,-47,-7
1513487663993007,20,-5,-64,-16,-1,-2,55,10
1513487663996008,-19,-22,7,-6,-5,0,3,-4
1513487663996008,13,3,-5,-2,0,-2,-3,-4
1513487664007066,-5,-2,1,2,-1,0,-1,-8
1513487664007066,21,-3,31,-2,-1,0,-20,2
1513487664016023,-36,31,1,9,3,0,3,-7
1513487664016023,59,-8,-48,-8,-6,-3,-2,11
1513487664030032,-23,-4,-8,-11,-8,-3,7,-1
1513487664030032,-12,-1,-3,9,3,2,-11,-1
1513487664032052,13,-6,9,-2,-2,-3,1,2
1513487664032052,-3,5,51,27,5,3,-5,-7
1513487664053048,17,20,-5,-13,-1,-1,9,8
1513487664053048,-18,-17,-39,-11,-8,-6,-11,-7
1513487664055082,-24,6,2,-9,0,2,-5,3
1513487664055082,-22,-22,6,8,-2,-4,2,-7
1513487664067068,48,11,-1,3,0,-1,-5,4
1513487664067068,-43,19,19,-9,-2,1,-27,-34
1513487664075175,15,-10,7,13,-1,2,57,35
1513487664075175,-19,-27,-8,-17,-9,-7,-14,-28
1513487664090171,-1,-7,-15,-17,1,1,24,8
1513487664090171,-5,-5,25,2,2,3,-6,2
1513487664092146,-60,11,-34,4,0,-4,-9,-19
1513487664092146,28,13,-1,-3,-3,4,0,23
1513487664113159,10,-28,18,7,1,2,0,-7
1513487664113159,-3,16,-1,-11,-4,-1,-5,10
1513487664114163,49,14,10,2,1,1,-5,-3
1513487664114163,-76,4,0,-16,1,-2,7,-2
1513487664126183,63,-5,-9,-7,2,0,-2,3
1513487664126183,-70,-14,-27,0,-3,-2,3,-1
1513487664143199,33,-23,-2,-10,-1,-1,-9,-6
1513487664143199,-14,18,15,17,0,-2,-9,-2
1513487664150203,-6,27,19,2,0,-1,17,11
1513487664150203,-12,-17,5,5,3,-1,0,-18
1513487664152188,49,-13,-4,-9,-8,-2,-5,30
1513487664152188,31,19,-31,-6,1,-3,-22,-18
1513487664173203,-66,-27,0,20,-2,-3,-4,0
1513487664173203,76,8,-48,-34,-11,-4,7,-8
1513487664174219,-36,-22,19,1,1,-2,-36,-15
1513487664174219,35,12,33,0,2,3,12,21
1513487664186212,15,-13,-31,-15,-6,1,-19,-8
1513487664186212,-29,18,15,16,3,0,1,-9
1513487664195217,60,-4,-20,4,3,1,-4,12
1513487664195217,63,18,10,5,-6,-4,16,-2
1513487664210242,-47,-31,14,13,6,4,-9,-13
1513487664210242,100,17,-17,9,-5,-4,-2,8
1513487664216232,-64,-5,18,-1,-6,-10,3,-23
1513487664216232,-55,11,-44,-13,-4,-2,6,3
1513487664233244,54,8,0,4,5,-1,9,-5
1513487664233244,-1,17,1,-3,0,3,1,30
1513487664235252,-25,-10,13,12,5,4,8,5
1513487664235252,16,-6,-5,-6,-7,-3,-13,-23
1513487664246266,-53,-10,0,-8,-1,1,4,21
1513487664246266,-29,9,21,12,7,5,6,-1
1513487664255301,40,33,-11,-6,-2,5,-10,-3
1513487664255301,-2,1,7,19,2,0,19,6
1513487664270295,-48,-4,-4,-6,-5,-6,5,2
1513487664270295,-13,-26,-14,8,-1,-3,-11,5
1513487664272295,-23,-25,26,-6,-4,-1,7,-11
1513487664272295,-33,19,-49,-29,1,-1,-9,2
1513487664293289,22,33,6,15,-1,-3,10,5
1513487664293289,10,-10,-8,-32,-15,-12,-19,-19
1513487664295303,-30,-45,14,11,9,4,-8,-18
1513487664295303,-56,-22,7,5,-3,-3,-2,-14
1513487664315313,15,36,28,4,-1,2,-2,7
1513487664315313,-33,-3,-18,-1,-6,-2,0,10
1513487664317314,47,24,26,12,9,0,-6,-7
1513487664317314,32,-37,13,6,1,-1,-3,3
1513487664331314,14,-52,-13,-4,-2,-1,-7,-1
1513487664331314,-11,60,27,-1,3,3,7,11
1513487664337332,-20,-24,-16,-10,-7,-3,-3,-11
1513487664337332,70,19,32,15,8,2,-6,6
1513487664353343,1,25,-9,1,-2,-2,0,-5
1513487664353343,-34,-57,2,7,3,1,-7,-8
1513487664354330,-60,25,4,-4,-5,-4,7,3
1513487664354330,80,-15,-20,-7,-12,-6,-5,-19
1513487664375362,-16,-31,-5,-18,-1,0,5,15
1513487664375362,27,12,-14,-15,-7,-4,-3,-2
1513487664377348,-3,42,15,16,6,1,7,7
1513487664377348,-51,-47,-6,-28,-8,-3,8,37
1513487664390386,-46,20,22,20,9,1,-9,-2
1513487664390386,91,-60,-24,-7,-3,2,-9,-41
1513487664393373,-30,54,-7,24,-2,0,3,23
1513487664393373,42,37,-42,-14,-2,-5,-8,-53
1513487664420400,-7,-38,20,-2,-2,-2,4,17
1513487664420400,27,-37,12,-2,3,-4,-3,-22
1513487664422401,60,60,-46,-16,-10,-2,30,71
1513487664422401,52,-53,-12,14,6,7,-9,7
1513487664435397,-83,26,51,-3,2,1,-12,-78
1513487664435397,12,-29,-10,-13,-8,-3,14,19
1513487664437398,18,26,-24,9,7,3,-8,4
1513487664437398,-128,-13,18,-9,-7,-8,-1,-4
1513487664450410,4,-31,-24,-1,-4,-4,-9,4
1513487664450410,-4,13,3,17,2,-1,-7,-21
1513487664452400,3,-11,-18,-31,-4,1,4,28
1513487664452400,-42,-6,8,-4,0,-3,-5,-2
1513487664473451,62,-16,-25,3,-18,-11,-1,-39
1513487664473451,-15,82,21,30,21,9,-2,78
1513487664474415,39,-87,5,-16,2,0,-14,-80
1513487664474415,1,85,34,14,0,1,14,50
1513487664495429,-56,-41,-45,-11,-3,-6,-4,-58
1513487664495429,-27,-24,6,-4,-10,-4,19,18
1513487664497432,13,-46,6,1,-8,-9,-32,-39
1513487664497432,-24,4,23,-3,-1,-1,2,21
1513487664509454,1,22,-2,10,4,-3,-5,-33
1513487664509454,-45,-26,8,-30,-11,-4,9,14
1513487664516457,75,84,16,4,7,7,2,13
1513487664516457,20,-37,-37,-9,-11,-10,-5,18
1513487664540473,-9,13,-30,-22,-3,2,-3,21
1513487664540473,-22,5,46,35,-3,-5,-11,-13
1513487664542473,-27,54,-9,-45,-5,-2,11,1
1513487664542473,-84,-89,13,19,9,3,-11,-39
1513487664555482,72,119,47,5,5,3,16,37
1513487664555482,39,13,16,2,3,1,-9,-23
1513487664557477,-100,-122,-48,-5,-6,-3,-14,8
1513487664557477,61,53,22,9,-5,-5,-5,33
1513487664569494,-84,-64,-73,-39,-11,0,-3,-48
1513487664569494,78,33,4,10,0,0,4,52
1513487664576501,-39,-14,-32,5,0,-8,-17,-108
1513487664576501,29,25,15,-1,4,4,18,49
1513487664593513,-31,-63,-8,5,-2,-1,18,80
1513487664593513,-43,1,2,-7,-5,0,-15,-56
1513487664594499,58,28,41,17,6,0,16,88
1513487664594499,-10,-15,-49,-11,-7,1,20,-73
1513487664615525,21,50,-11,9,3,-7,-34,-53
1513487664615525,-4,8,29,5,2,4,19,107
1513487664617526,-41,-8,-29,-26,-16,-5,-36,-71
1513487664617526,-10,12,-22,1,18,6,4,42
1513487664629524,-37,-62,61,13,-3,2,16,104
1513487664629524,-43,15,-84,-18,-3,0,22,-122
1513487664636542,77,23,63,24,-9,-6,-32,60
1513487664636542,-18,10,-34,16,-1,-3,-22,33
1513487664652553,73,40,-40,-6,6,6,16,-40
1513487664652553,-28,-53,31,2,-4,-4,-18,-6
1513487664654542,-9,3,18,-3,0,-3,33,65
1513487664654542,26,10,18,-2,8,4,-6,-16
1513487664675566,53,43,13,-34,15,-1,-19,18
1513487664675566,-41,-15,59,28,-9,-2,9,2
1513487664677558,2,15,-25,-23,-4,-8,-7,14
1513487664677558,-41,7,-2,2,7,3,-9,-27
1513487664698575,31,6,2,18,-9,-7,4,44
1513487664698575,5,-23,-3,-5,6,-1,-20,-38
1513487664700580,-39,-21,-16,-5,-1,2,34,86
1513487664700580,-17,-16,35,0,-17,-8,-30,-125
1513487664712596,-6,16,-1,0,4,8,0,39
1513487664712596,-4,29,-4,9,7,0,-3,47
1513487664714586,-5,6,13,-9,-1,1,4,-2
1513487664714586,40,-30,28,-9,6,3,11,-20
1513487664735620,16,22,-20,-6,-13,-6,25,51
1513487664735620,70,80,7,-2,8,-1,-8,81
1513487664737602,-28,-54,-48,-1,-11,0,-12,-99
1513487664737602,33,22,19,19,10,-5,-4,-63
1513487664749630,14,-3,28,22,-16,-2,-19,48
1513487664749630,-13,-38,-18,-53,3,2,23,23
1513487664765621,34,37,28,5,-1,-3,-3,17
1513487664765621,68,17,-26,6,3,10,9,4
1513487664772626,12,-62,-56,-4,0,2,-12,-24
1513487664772626,13,41,39,12,-4,-4,-1,-72
1513487664774627,-10,-16,-16,16,-4,0,6,56
1513487664774627,-92,-36,-7,-1,-7,-9,-14,-9
1513487664795654,29,7,1,2,7,-2,-3,13
1513487664795654,-13,-11,-40,9,3,4,-2,-20
1513487664796655,-19,-9,5,-2,-9,-9,-23,-3
1513487664796655,-5,14,13,-3,-6,1,36,-15
1513487664808676,-33,-16,-13,-5,3,2,-17,-116
1513487664808676,43,33,8,-14,-7,-4,-6,26
1513487664817657,28,18,41,39,9,2,10,48
1513487664817657,-65,-106,-43,-26,-15,-4,-8,26
1513487664832681,-20,46,55,4,15,2,16,82
1513487664832681,-4,-35,-40,2,7,8,1,-118
1513487664835680,14,7,40,19,-6,-5,3,-42
1513487664835680,29,61,-40,-27,24,6,4,29
1513487664855697,-69,-83,-7,-6,-16,-2,2,-35
1513487664855697,-22,-24,21,-2,10,-4,-20,5
1513487664856688,-36,-13,-41,-21,-9,-4,-4,-25
1513487664856688,5,49,34,17,-8,-8,-22,-57
1513487664868703,75,14,-18,14,3,2,30,95
1513487664868703,-49,11,-20,-11,2,-1,-12,86
1513487664877710,-36,-72,14,-1,1,3,-3,-50
1513487664877710,14,58,-3,-6,-4,-3,2,55
1513487664892710,-18,6,35,0,-2,1,21,51
1513487664892710,-21,-37,-4,7,-16,-10,-13,-44
1513487664895712,5,6,-25,-9,9,7,24,45
1513487664895712,-3,-14,62,9,-3,-2,-16,-25
1513487664915727,24,-3,-55,-23,-4,-6,11,-18
1513487664915727,1,-4,-73,6,23,5,7,61
1513487664916729,-6,10,-16,2,6,2,-13,27
1513487664916729,13,-28,8,-18,-14,-14,5,41
1513487664928754,1,5,-32,-16,5,14,16,50
1513487664928754,-54,9,53,10,-13,-4,-12,3
1513487664945749,32,10,-16,-4,13,5,2,-23
1513487664945749,-19,-8,4,11,-2,2,8,36
1513487664952754,35,33,24,-12,-11,-9,-16,-38
1513487664952754,-6,-4,10,-8,-7,1,18,125
1513487664954755,-6,-7,-7,3,-10,-6,-21,-97
1513487664954755,-13,8,86,13,6,7,14,111
1513487664975781,54,20,-27,-7,-5,-7,-20,-63
1513487664975781,-89,-43,28,6,-4,-1,-9,-120
1513487664977771,82,48,-29,-19,-5,-6,-7,66
1513487664977771,81,-24,-18,11,14,2,-2,12
1513487664988791,11,-11,42,30,1,-6,-34,-53
1513487664988791,41,-5,-7,-16,-5,1,17,67
1513487665005791,-51,-37,-19,-15,0,-1,-1,-60
1513487665005791,21,39,-19,-3,1,0,3,38
1513487665012796,-43,-6,32,-10,-14,1,5,45
1513487665012796,35,22,0,40,9,2,4,-52
1513487665014806,-31,18,72,-7,0,2,11,-60
1513487665014806,-18,-38,20,-2,-15,0,-9,-12
1513487665035821,-7,4,-36,-7,-2,-1,-2,39
1513487665035821,3,-7,-1,7,-6,-5,-5,-38
1513487665036820,13,-8,1,-16,7,1,10,25
1513487665036820,-32,39,-26,7,-5,-2,-12,-35
1513487665048834,16,-26,23,5,0,-6,13,-28
1513487665048834,-26,-30,-46,-29,0,8,0,-40
1513487665057837,-17,-16,4,33,1,-6,-8,53
1513487665057837,51,16,-25,-23,-7,2,26,26
1513487665072853,-51,-28,22,-3,6,-2,-1,28
1513487665072853,46,-4,-43,-10,-6,-2,-4,11
1513487665074855,-13,8,-20,3,-4,-2,1,80
1513487665074855,-26,-21,-40,-21,5,1,2,44
1513487665095865,4,54,9,3,1,-3,-24,-64
1513487665095865,25,-35,11,-22,-7,-6,3,74
1513487665097871,-36,-23,68,22,-18,-4,-12,-118
1513487665097871,19,-21,-8,9,16,5,1,110
1513487665109883,-38,9,-20,-5,2,4,10,15
1513487665109883,63,33,3,17,-5,-5,-5,-87
1513487665117869,-11,2,-17,-3,-7,-1,6,78
1513487665117869,-6,-27,-20,-1,-5,-4,-5,24
1513487665132895,-49,0,13,9,0,0,-10,-31
1513487665132895,36,17,49,-3,-2,2,4,79
1513487665135895,-10,-21,29,-22,16,2,-6,-30
1513487665135895,19,19,12,11,-11,-7,-9,-51
1513487665155897,-17,21,-27,-6,9,0,-8,-10
1513487665155897,-12,-28,74,4,-2,-5,7,34
1513487665156897,6,19,-11,-12,-8,-9,-6,1
1513487665156897,-39,-10,6,10,-1,-5,-18,-107
1513487665168918,29,0,35,-4,9,3,-3,74
1513487665168918,-19,41,4,-5,-4,-5,-5,-53
1513487665177912,-32,-25,-67,-10,7,-6,-10,7
1513487665177912,30,-7,-5,-15,-20,2,6,-20
1513487665192953,34,-34,-17,17,-6,-5,9,72
1513487665192953,-28,-35,-13,16,0,2,-3,-84
1513487665194924,-16,6,-17,-9,-8,-3,2,62
1513487665194924,46,11,-19,4,2,-6,-21,72
1513487665215949,-1,30,-3,18,-11,-6,-4,-54
1513487665215949,10,-1,-41,-13,11,9,14,115
1513487665216950,38,31,9,19,1,-1,3,-23
1513487665216950,-22,-22,-15,-1,1,-3,-1,-12
1513487665237964,-2,-3,-43,-6,-5,0,-4,-81
1513487665237964,34,34,24,10,-9,-10,-13,-43
1513487665260970,6,-9,-2,-43,21,7,8,17
1513487665260970,-7,22,25,15,3,3,16,-14
1513487665261977,-7,-17,-18,-27,0,2,3,-18
1513487665261977,43,41,10,8,0,0,17,117
1513487665263983,17,-3,-12,-10,-7,-2,-14,-101
1513487665263983,-27,-11,-2,7,-4,-1,7,59
1513487665282987,11,-15,-11,-16,-2,2,3,-37
1513487665282987,4,24,-4,-19,-2,-8,-12,14
1513487665284989,-8,11,27,33,2,0,16,89
1513487665284989,10,-49,28,1,-3,-3,-2,-45
1513487665298015,-14,8,56,-5,-1,-1,-4,-43
1513487665298015,19,7,-44,-10,-6,-9,-23,-128
1513487665300017,-18,-28,4,-19,-1,2,-11,-40
1513487665300017,28,32,-20,13,2,0,10,70
1513487665313022,-53,-23,-10,-8,-4,-6,-20,-42
1513487665313022,-12,-24,-57,-10,-4,-1,2,89
1513487665315023,12,3,6,25,2,-4,15,-3
1513487665315023,-40,-33,-26,-4,12,11,11,-13
1513487665335023,30,23,-11,-18,-6,-2,-11,-18
1513487665335023,-26,-4,1,20,1,-1,2,-18
1513487665337025,34,9,-15,17,1,7,2,0
1513487665337025,-17,32,31,-14,-13,-6,-19,-80
1513487665358054,-6,4,-36,22,8,3,33,126
1513487665358054,21,-35,52,-4,-2,-2,-18,-42
1513487665360058,-23,-4,-19,22,4,1,3,5
1513487665360058,3,17,12,-50,-4,1,-2,-72
1513487665373062,13,17,-8,23,-4,-12,-23,-65
1513487665373062,-19,-23,33,-5,2,4,4,73
1513487665375073,29,-3,-13,4,-4,2,-1,-24
1513487665375073,1,-5,-31,-2,-2,-3,-2,-30
1513487665395078,1,-14,11,6,-3,-2,0,54
1513487665395078,-42,-6,0,-5,-2,6,18,-41
1513487665397084,51,46,44,-19,4,-6,-33,45
1513487665397084,-9,-30,-56,8,4,5,3,39
1513487665418092,-12,19,32,-6,0,-1,-23,-82
1513487665418092,22,13,11,-5,3,-1,-1,58
1513487665419095,-22,22,-3,-31,0,-1,10,8
1513487665419095,3,-7,18,6,-1,-1,3,-15
1513487665432092,18,-24,5,-24,-9,-4,13,61
1513487665432092,-21,2,-9,11,3,3,2,-40
1513487665439106,8,-4,-15,0,-8,1,4,-21
1513487665439106,-10,18,-2,14,1,-5,-15,-89
1513487665455123,52,12,20,9,3,4,-1,-36
1513487665455123,-24,15,-4,-17,-3,8,24,18
1513487665457123,-89,-31,37,-10,6,2,0,17
1513487665457123,23,38,-55,4,-7,-6,3,82
1513487665478124,-28,-49,58,7,-10,1,9,36
1513487665478124,16,25,-24,-9,8,0,-17,-50
1513487665479125,41,7,-13,11,-16,-7,3,-26
1513487665479125,-5,8,9,-6,6,4,1,7
1513487665500154,-41,-31,24,10,-1,-3,-12,6
1513487665500154,27,3,-34,-11,10,-2,6,30
1513487665502142,30,20,51,-2,-3,4,3,-1
1513487665502142,-37,-47,10,0,-4,1,4,-26
1513487665515161,17,4,-54,-16,-3,0,-2,6
1513487665515161,46,33,11,25,-6,-3,-1,50
1513487665517164,-6,-12,35,8,-4,-8,-20,5
1513487665517164,-7,3,8,-16,8,3,10,28
1513487665538177,-5,-13,-26,-10,-1,3,16,33
1513487665538177,1,6,-6,-6,-3,-4,-13,-46
1513487665539177,-33,1,-30,12,1,0,10,48
1513487665539177,44,-27,50,0,0,-3,-5,-33
1513487665552187,21,21,17,-7,1,0,-5,31
1513487665552187,7,-23,9,11,-4,-2,10,23
1513487665559193,0,-8,-35,1,2,1,-3,-34
1513487665559193,-38,-6,12,9,0,2,-4,29
1513487665575234,45,31,-28,8,-4,-6,-7,-103
1513487665575234,3,7,-6,-19,-9,-8,1,50
1513487665577195,-55,2,25,1,3,-3,-4,19
1513487665577195,-29,-25,-52,-11,-8,0,1,24
1513487665597208,24,55,-17,-2,7,0,-1,50
1513487665597208,-31,-46,28,-7,-13,-6,-5,-17
1513487665605227,3,6,-43,2,3,4,6,0
1513487665605227,31,31,39,17,-12,-6,-10,-9
1513487665612219,-21,-28,-52,-17,10,2,-2,5
1513487665612219,-3,15,-16,7,2,0,6,-111
1513487665619234,35,-10,2,-4,-3,-1,-3,17
1513487665619234,-19,-17,34,28,3,-1,0,23
1513487665636250,-11,-37,-33,-27,10,5,2,-53
1513487665636250,13,16,2,7,-4,1,-11,24
1513487665637249,13,-26,-29,4,-7,-9,-10,-50
1513487665637249,-7,15,-14,-12,0,5,-5,-17
1513487665658262,-12,-11,15,15,-2,-3,-2,25
1513487665658262,-42,3,3,-5,-2,0,1,-52
1513487665659253,17,13,-18,-3,-4,-2,7,-7
1513487665659253,-7,-38,-6,-7,1,-4,-7,30
1513487665672300,-20,-23,-6,9,-4,0,0,4
1513487665672300,-3,1,-1,2,6,8,1,85
1513487665679276,-5,-4,54,0,-6,-4,1,-1
1513487665679276,0,-8,-17,7,0,-6,-1,-17
1513487665696278,21,29,18,-22,3,1,8,36
1513487665696278,-22,-40,8,9,2,1,-8,-6
1513487665698280,48,30,2,-21,2,3,-2,34
1513487665698280,-4,-2,-38,-15,-8,-7,0,-20
1513487665718305,-1,-7,24,6,0,-2,-2,48
1513487665718305,10,24,9,8,-1,0,6,-33
1513487665719295,0,-34,-40,-20,-2,-1,-1,68
1513487665719295,-35,-9,28,14,8,3,5,-8
1513487665731303,35,32,-17,-8,-16,-8,-7,3
1513487665731303,-44,-13,-58,-6,1,-2,8,-105
1513487665740329,17,-31,27,5,0,-1,-2,-5
1513487665740329,-18,10,-25,-29,-8,-4,-5,1
1513487665755320,18,15,39,4,2,4,4,1
1513487665755320,-24,-15,-40,-15,-7,-4,2,73
1513487665757345,-3,23,-1,25,-2,-5,-6,-28
1513487665757345,46,33,10,-18,1,1,1,7
1513487665778336,-32,-15,31,4,-5,-4,-2,-53
1513487665778336,43,22,14,-2,-3,0,3,48
1513487665779337,-28,-28,-39,-11,-3,1,3,11
1513487665779337,44,26,16,12,1,0,2,20
1513487665791360,-21,9,-3,8,0,-2,-7,9
1513487665791360,5,-16,15,9,-3,1,1,15
1513487665808370,16,14,7,2,8,-2,0,-14
1513487665808370,-19,5,-16,10,0,-4,-4,-21
1513487665815372,6,-22,-6,-14,1,3,3,9
1513487665815372,-36,-33,7,-18,-3,-1,0,-34
1513487665817374,-16,-5,-83,13,-7,-5,-11,-19
1513487665817374,0,5,64,-25,8,5,3,49
1513487665838389,-33,7,-3,19,-7,-3,-9,-52
1513487665838389,-44,-22,-11,-3,2,-1,-5,16
1513487665839389,45,0,-9,2,2,3,3,-20
1513487665839389,13,-8,-6,-3,-5,-7,0,13
1513487665851400,-5,5,-17,7,-2,2,11,9
1513487665851400,-2,8,54,4,4,-1,-8,-8
1513487665860398,-45,13,-83,-5,-7,-2,4,-6
1513487665860398,4,-15,4,13,1,-2,-3,32
1513487665883426,-18,-2,11,-5,8,8,13,24
1513487665883426,27,8,-2,-3,-11,-10,-17,5
1513487665884411,7,-6,19,14,17,5,6,4
1513487665884411,35,11,-13,6,-4,-1,8,-9
1513487665898439,-25,-7,-41,7,-3,0,-1,2
1513487665898439,-7,2,13,9,12,4,-4,-32
1513487665899422,-4,-18,21,2,-7,-4,-1,-14
1513487665899422,-26,-8,-2,-11,-1,5,7,37
1513487665911441,3,1,11,-2,-8,1,7,-32
1513487665911441,6,14,-44,25,20,3,1,28
1513487665920447,-17,-14,54,1,-4,-2,-1,-52
1513487665920447,-25,-6,-8,-7,-4,-6,-17,-1
1513487665935448,6,-20,-53,-13,-15,-9,1,-23
1513487665935448,1,13,-4,14,-12,-3,4,22
1513487665937449,34,2,30,-8,2,-1,-14,13
1513487665937449,-17,5,-28,-1,8,2,-5,-28
1513487665958474,14,-7,6,-18,-8,-6,1,20
1513487665958474,16,7,11,-3,5,3,0,17
1513487665959465,-16,-12,-6,-9,-5,-3,-9,13
1513487665959465,17,-7,-27,15,11,1,7,-7
1513487665971499,25,28,21,17,4,3,-8,-82
1513487665971499,-20,2,17,-17,-5,1,8,6
1513487665980479,5,-15,-31,-6,-8,-3,-2,-24
1513487665980479,3,2,16,-3,-7,-6,-7,7
1513487665995502,-6,9,11,2,5,2,5,8
1513487665995502,10,-5,5,5,0,0,-4,9
1513487665996503,-15,-4,24,2,-5,-5,18,2
1513487665996503,-3,14,-15,-17,-9,2,-5,70
1513487666017521,0,-18,-4,2,4,-3,-9,-39
1513487666017521,-29,-15,-24,-7,-11,-4,-3,-29
1513487666019508,47,17,23,-2,7,4,4,91
1513487666019508,-51,-20,9,12,-6,-5,8,-102
1513487666031516,3,-3,13,-15,3,2,-4,38
1513487666031516,5,-29,-11,3,-2,-1,-4,-28
1513487666040522,-1,4,-34,7,-10,-4,-1,20
1513487666040522,-21,-12,-56,13,35,12,7,2
1513487666055532,21,-1,2,-10,-9,-6,-3,-33
1513487666055532,4,18,14,21,-1,-2,-3,-2
1513487666056535,-7,9,12,-25,-3,0,-1,-53
1513487666056535,20,-24,-9,-12,-11,-7,-5,-1
1513487666077559,-5,22,12,17,3,-1,5,68
1513487666077559,18,5,7,-8,0,-4,-6,-13
1513487666085553,-51,-33,13,-11,-2,1,-4,-9
1513487666085553,24,15,-34,-2,-9,-5,-5,-5
1513487666091568,-1,-1,-13,3,-2,0,-2,16
1513487666091568,23,-5,-18,-5,0,0,16,77
1513487666100564,24,27,5,9,8,4,-2,-41
1513487666100564,-18,0,75,-7,-14,-6,-10,-49
1513487666115584,-18,-7,-7,12,2,0,8,-6
1513487666115584,15,5,20,-3,0,-3,-5,32
1513487666116585,-6,3,-22,7,-4,-1,-1,-57
1513487666116585,6,-4,-13,-7,4,2,-5,38
1513487666136609,0,-20,-62,-3,-6,-4,-4,5
1513487666136609,-15,17,38,-4,-5,-3,-7,-8
1513487666145604,-56,-20,14,-6,-2,0,-9,26
1513487666145604,78,29,13,3,-18,-16,-16,-18
1513487666151612,-8,-32,27,-5,19,14,4,-5
1513487666151612,15,4,-45,-18,-6,-3,-2,-1
1513487666160622,-22,3,-48,1,-3,-2,4,17
1513487666160622,-12,-4,-7,18,7,2,4,4
1513487666175619,-11,-1,-1,7,-6,-6,-7,-55
1513487666175619,17,-12,-18,-14,0,2,-1,1
1513487666176620,-13,9,38,4,8,1,6,16
1513487666176620,-20,19,-3,4,4,1,0,-5
1513487666198634,-8,-24,-2,-6,-6,-5,1,47
1513487666198634,-22,-12,-1,-9,-2,1,-3,-20
1513487666199647,31,12,8,15,5,-5,-8,40
1513487666199647,-17,-17,-3,-22,0,5,12,-16
1513487666220668,14,27,13,2,1,-2,-7,11
1513487666220668,-31,-13,10,10,-1,4,1,-21
1513487666221654,47,-4,-19,-18,-4,-8,-12,-46
1513487666221654,-6,-25,42,-9,-7,0,15,91
1513487666235680,7,13,1,5,3,4,-4,-52
1513487666235680,-20,6,46,-3,-4,-2,-5,-29
1513487666236661,33,14,-4,-9,3,-1,-2,16
1513487666236661,-38,11,19,14,-1,2,14,-9
1513487666257696,-16,-12,-18,-5,4,-2,-3,18
1513487666257696,5,3,7,11,-6,-3,9,-22
1513487666259682,-44,3,-6,-32,3,2,-10,-11
1513487666259682,16,-38,-89,6,0,-3,-9,-33
1513487666280713,-10,25,41,4,-1,1,6,31
1513487666280713,18,16,-15,7,-2,-2,-5,7
1513487666281713,-27,-19,21,8,0,-1,11,45
1513487666281713,-3,-31,41,-18,4,4,-6,-58
1513487666294701,14,8,12,-9,-6,-4,-4,19
1513487666294701,5,-3,-14,-13,-2,-6,-8,1
1513487666301719,24,27,9,5,-3,-4,1,-57
1513487666301719,-51,-13,1,7,5,3,5,52
1513487666317720,16,6,12,3,-3,-4,-5,-57
1513487666317720,-11,0,9,-7,-3,-1,-2,1
1513487666319729,-11,-9,-24,7,-2,0,8,31
1513487666319729,-16,33,1,-7,-1,-3,-11,-41
1513487666340745,12,-19,7,1,-5,-1,2,66
1513487666340745,0,-5,-15,-5,-1,-4,-7,-18
1513487666341735,10,25,11,3,4,4,12,8
1513487666341735,-30,-39,16,-2,-7,-6,-2,-7
1513487666362750,11,5,-18,-5,-6,0,2,1
1513487666362750,14,-2,-5,7,1,-3,-5,-7
1513487666364761,5,-10,11,0,-7,2,-4,-6
1513487666364761,8,26,-8,8,-1,0,0,-4
1513487666377772,33,10,-4,-10,-7,-8,-6,54
1513487666377772,-19,-14,-9,-5,-1,-3,6,-64
1513487666379761,-2,-17,10,2,-1,-3,-5,-3
1513487666379761,9,11,5,13,-9,-6,-7,-10
1513487666400791,10,-2,-3,-6,11,6,5,41
1513487666400791,23,18,-71,-5,-2,-1,-4,2
1513487666401777,-4,1,2,3,2,-1,-6,-9
1513487666401777,11,-2,22,-3,-1,0,3,1
1513487666414796,-7,-10,-7,0,-1,-1,5,-4
1513487666414796,-8,1,1,-1,-2,1,2,4
1513487666421814,-8,-5,36,6,3,-1,-4,-13
1513487666421814,4,-16,-72,-4,0,0,-3,12
1513487666437817,-1,12,0,8,-3,-3,2,-33
1513487666437817,0,-12,0,-28,-4,-2,0,23
1513487666439814,-6,3,25,4,-4,-3,-1,10
1513487666439814,11,26,35,3,-4,-4,-6,-4
1513487666460829,-19,-8,8,2,1,-1,-1,-19
1513487666460829,0,0,-4,2,-5,-2,1,33
1513487666461828,9,6,-1,-9,4,0,3,11
1513487666461828,-5,-6,7,-6,1,-3,-2,-7
1513487666474844,-22,2,-20,1,-8,-4,-7,-19
1513487666474844,2,2,42,6,5,2,3,10
1513487666482844,-21,-31,-1,-8,-7,-4,-8,3
1513487666482844,23,10,15,3,1,1,9,-10
1513487666497845,-19,-2,-8,-9,0,0,0,-28
1513487666497845,16,5,27,8,0,-2,1,-5
1513487666499846,-1,-7,-11,3,-1,-2,-7,37
1513487666499846,8,-17,-39,-4,-3,-2,-7,3
1513487666520880,-14,1,7,2,0,0,10,-11
1513487666520880,11,18,53,16,0,-2,-10,-2
1513487666521863,-15,-24,-64,-3,3,0,4,4
1513487666521863,4,-1,0,-14,1,2,-5,-14
1513487666534890,-3,-12,20,6,1,-1,-7,34
1513487666534890,3,-1,-1,-12,-6,-3,-3,-6
1513487666541895,-18,28,-12,3,-3,1,14,3
1513487666541895,18,5,48,17,8,0,-5,-1
1513487666557906,-2,1,-7,-3,-4,-2,-2,-14
1513487666557906,-21,-4,8,1,4,-2,-1,-15
1513487666559908,21,2,-18,5,-7,-7,-13,8
1513487666559908,9,5,5,-26,3,2,1,-11
1513487666580904,-5,-7,-34,7,-3,-2,-6,-5
1513487666580904,-3,9,-14,3,1,0,-2,31
1513487666581904,-14,1,-14,-7,-1,0,-2,-94
1513487666581904,13,-5,14,10,-2,-2,-4,16
1513487666594914,-13,-22,-12,-6,0,-3,0,-18
1513487666594914,-24,10,-25,-17,-5,-1,-3,-1
1513487666601930,-3,-14,-41,3,3,-3,-8,30
1513487666601930,19,11,12,6,-3,0,15,-17
1513487666617940,-8,26,-3,18,2,0,-10,-58
1513487666617940,6,-51,-18,-11,5,4,0,19
1513487666619941,25,10,20,-13,-3,-2,0,4
1513487666619941,-35,-6,-10,3,-10,-4,-2,-15
1513487666640947,42,20,-14,-10,-3,1,3,54
1513487666640947,-4,7,31,8,1,-5,-1,4
1513487666642948,-16,-22,12,1,-2,2,3,-36
1513487666642948,-31,2,-23,-5,0,-1,-7,53
1513487666654970,14,6,14,-5,0,-1,-5,-20
1513487666654970,-20,-27,-20,0,2,0,0,-27
1513487666661975,26,-14,11,3,-3,-1,-2,-6
1513487666661975,4,7,-15,-12,-4,-3,-8,-25
1513487666677985,-14,6,-10,-3,1,1,18,12
1513487666677985,14,0,-5,3,-8,-5,-6,39
1513487666679987,-33,-11,5,3,6,3,-2,19
1513487666679987,-3,-6,1,4,1,0,-2,11
1513487666700989,-15,-21,-4,1,-11,-3,-1,-21
1513487666700989,7,15,-16,-2,7,2,1,41
1513487666701989,23,4,27,-7,-8,-6,-11,-50
1513487666701989,-16,4,25,1,-3,0,-3,17
1513487666714009,-26,-1,-43,0,4,-2,0,34
1513487666714009,-19,24,12,0,-5,-1,3,-23
1513487666723009,7,-5,-24,-1,-1,-3,-4,17
1513487666723009,-7,-7,-14,1,-1,1,4,-11
1513487666738032,-6,0,21,-5,0,0,3,-6
1513487666738032,16,-2,-8,5,0,-2,2,-20
1513487666740026,15,28,1,0,3,1,-6,40
1513487666740026,15,-12,0,-4,3,2,7,-36
1513487666761032,-37,-20,25,17,-4,-4,4,-16
1513487666761032,25,17,-9,-20,5,7,5,56
1513487666762032,-28,-4,6,-1,-7,-6,-2,-46
1513487666762032,21,-1,16,-1,-1,-2,0,28
1513487666774053,5,-25,31,-2,0,1,-16,8
1513487666774053,16,-7,-61,-1,-5,-4,3,26
1513487666783059,-6,1,5,-6,3,7,13,-72
1513487666783059,-7,17,19,4,-6,-8,-5,34
1513487666798057,6,-20,-35,-22,2,-4,-11,-28
1513487666798057,8,5,36,8,-4,-2,-1,17
1513487666800059,-3,-3,28,-8,2,-1,1,78
1513487666800059,-44,-6,-48,1,-7,0,-2,-78
1513487666820073,10,7,39,3,-7,1,10,21
1513487666820073,-23,-17,-10,2,12,2,-4,-33
1513487666822074,24,-6,23,-2,-5,-5,-2,37
1513487666822074,-1,7,-9,-12,-3,-2,0,-18
1513487666834083,6,4,-4,1,-1,-2,-1,15
1513487666834083,-6,3,15,5,-3,-1,1,-21
1513487666843089,-7,-20,-21,-2,2,-3,-11,-4
1513487666843089,8,-5,-3,3,2,4,7,51
1513487666858112,1,42,5,-7,2,3,1,-42
1513487666858112,34,0,18,-4,-5,-6,-13,-39
1513487666859129,-13,2,-31,4,-2,0,0,-5
1513487666859129,3,5,5,-8,-1,-3,-2,14
1513487666880128,-18,-4,61,9,1,4,-1,-36
1513487666880128,-27,-3,-55,9,1,1,9,13
1513487666882129,26,14,8,-29,1,0,2,4
1513487666882129,-7,-15,9,0,-1,-2,-5,-23
1513487666894140,24,2,29,0,-3,-1,1,20
1513487666894140,-9,2,49,8,5,2,-1,-14
1513487666903141,-7,5,-10,4,-9,-4,4,27
1513487666903141,-4,-13,-7,-2,14,5,6,-44
1513487666918152,44,-8,-41,8,6,0,-5,20
1513487666918152,-47,-15,18,-7,-3,-5,-13,-41
1513487666920154,1,-22,-6,7,4,1,0,-7
1513487666920154,9,27,12,-4,-3,-1,3,49
1513487666940157,-4,-6,-7,-5,-7,-6,-2,16
1513487666940157,-19,-8,-39,-6,-6,-7,-9,-14
1513487666942159,9,22,26,8,10,2,9,4
1513487666942159,10,7,-12,-1,-8,-5,-13,-15
1513487666954168,-16,-43,-57,-1,2,1,-5,-10
1513487666954168,4,29,11,-9,-8,-3,-1,14
1513487666963236,-1,7,38,14,-8,2,10,26
1513487666963236,-37,-52,-2,-13,10,-3,-4,-8
1513487666978255,-12,22,1,-4,-1,2,0,-21
1513487666978255,22,-30,-22,0,0,-2,-2,-1
1513487666979247,-38,14,-7,1,-3,-3,3,-34
1513487666979247,11,4,-18,1,-4,-4,-2,53
1513487667000272,12,12,11,3,0,5,7,64
1513487667000272,4,-17,3,-8,-4,-2,4,-38
1513487667002287,-39,-9,5,2,0,1,2,-20
1513487667002287,6,-4,-26,1,-4,-3,-4,20
1513487667014276,4,12,24,-1,-1,-3,0,61
1513487667014276,14,16,4,1,-5,-1,4,-19
1513487667023289,-15,-35,-6,-5,0,-1,-13,-82
1513487667023289,-2,14,9,0,-7,-3,2,33
1513487667038311,2,2,-10,-2,0,3,3,-31
1513487667038311,13,12,-9,-1,-4,-7,-7,1
1513487667039289,-10,-6,-4,-2,2,-2,-1,34
1513487667039289,28,5,12,8,-2,2,1,-21
1513487667060324,0,0,39,1,-4,-4,1,-34
1513487667060324,-15,2,9,9,3,2,1,72
1513487667060324,15,0,-16,-17,4,2,-2,-17
1513487667060324,-19,3,33,2,-1,2,5,21
1513487667082320,11,13,15,4,-2,-1,0,-9
1513487667082320,-2,-11,1,0,7,6,1,-9
1513487667083321,23,0,27,5,-7,-9,-10,72
1513487667083321,-23,23,31,10,9,6,4,-31
1513487667097341,23,-2,-28,-6,-2,-3,0,-9
1513487667097341,-18,-9,0,-1,-3,1,-3,-2
1513487667098343,5,-5,-26,-4,-5,-3,-5,-1
1513487667098343,10,-8,-25,-2,-3,1,3,-1
1513487667119354,-20,28,14,3,-1,-4,-3,6
1513487667119354,4,-13,-8,1,-3,0,7,5
1513487667120361,22,20,15,-5,1,1,-7,45
1513487667120361,-16,-22,-6,-8,-8,-4,2,-36
1513487667142376,-34,-32,-15,2,3,-2,-9,8
1513487667142376,10,5,0,-11,2,1,3,-41
1513487667143378,-37,18,27,-11,-8,-7,-7,7
1513487667143378,9,11,-56,0,0,2,2,-8
1513487667157387,2,13,-22,-5,1,1,5,17
1513487667157387,-40,-5,-6,-2,-7,-7,-13,-12
1513487667158388,42,6,-19,23,11,4,6,26
1513487667158388,1,8,21,-24,-3,-1,-3,-43
1513487667179400,3,-5,1,-7,-1,1,5,24
1513487667179400,6,-6,-7,-3,-4,-1,-6,2
1513487667180406,11,4,-10,6,-4,-4,-5,-10
1513487667180406,-24,11,8,1,-8,-3,4,35
1513487667202417,28,4,22,-10,6,4,2,-12
1513487667202417,-8,-8,-44,2,-2,-4,2,-12
1513487667203414,-13,-11,-12,-5,-3,-4,1,-7
1513487667203414,33,3,4,8,5,1,-10,-29
1513487667217424,-1,-9,-9,-7,-13,-6,1,-29
1513487667217424,-30,0,-1,9,2,3,-1,-17
1513487667218425,10,4,-15,-17,0,0,-1,-3
1513487667218425,17,15,-16,-5,-3,-3,-3,25
1513487667239440,-8,-1,0,1,-7,-5,-8,-20
1513487667239440,-49,11,-15,2,12,5,8,-22
1513487667240431,-14,-55,5,6,-8,-6,-7,-7
1513487667240431,9,-16,-8,0,-4,-6,-7,15
1513487667270462,2,13,25,-13,-2,-1,-4,7
1513487667270462,-16,-12,25,0,-4,-3,-5,-20
1513487667271453,18,23,-15,-2,-2,0,8,-5
1513487667271453,-12,11,22,14,3,-2,-1,35
1513487667277457,13,-25,-74,6,-14,-9,-7,-14
1513487667277457,-23,-8,9,-6,6,5,2,11
1513487667278458,-15,1,14,-3,-6,-3,-5,-28
1513487667278458,-6,-19,-13,3,4,2,4,-5
1513487667299485,-12,13,-11,-1,-7,-2,-1,22
1513487667299485,39,-9,14,-19,-1,-6,-4,5
1513487667300473,1,-3,-46,5,-3,0,-6,-10
1513487667300473,3,-18,6,-3,-2,1,-1,-8
1513487667330495,-43,-9,-8,1,8,-1,0,-34
1513487667330495,47,11,5,-16,-12,-5,-6,-56
1513487667331512,59,32,-25,-1,4,4,6,32
1513487667331512,-35,-16,6,10,-2,-2,-2,5
1513487667337514,29,16,10,10,12,8,-2,-11
1513487667337514,-9,-4,-7,-10,-14,-7,-12,40
1513487667337514,-43,-13,24,15,8,3,7,-60
1513487667337514,11,16,-17,-2,-1,-1,7,-8
1513487667359518,-6,-7,15,7,4,3,3,11
1513487667359518,9,0,7,9,-3,-7,-4,59
1513487667360515,-10,-7,-4,7,1,0,1,9
1513487667360515,-1,-19,-1,-11,-2,-2,-7,-84
1513487667382532,-34,17,43,2,-1,1,2,-1
1513487667382532,10,-4,-8,-9,-2,0,-1,-3
1513487667382532,-35,6,25,-12,-5,-3,4,6
1513487667382532,12,-7,-17,-3,-1,1,-14,-26
1513487667398553,-24,-3,-20,-12,-5,-2,-3,-41
1513487667398553,56,1,19,18,7,5,9,8
1513487667398553,-2,-20,-2,-3,-6,-4,-20,11
1513487667398553,5,-2,9,-16,-3,-2,1,19
1513487667419619,3,-7,17,-4,-1,0,13,41
1513487667419619,-41,-13,-7,-5,-6,-2,-13,-33
1513487667420608,-13,-5,5,6,1,3,10,41
1513487667420608,41,19,-2,5,-2,-4,-6,10
1513487667442642,-3,-21,-19,-3,3,0,-5,10
1513487667442642,-11,19,-21,-1,1,-1,9,-28
1513487667442642,-15,-10,-19,13,4,0,-9,-47
1513487667442642,13,-2,27,-22,-3,-4,-3,32
1513487667457634,-5,-3,-39,-3,0,0,3,-29
1513487667457634,-21,12,26,13,7,2,8,1
1513487667457634,-42,3,-23,-3,-11,-11,-11,22
1513487667457634,13,0,-1,-14,0,1,-6,-36
1513487667479649,18,-17,-1,19,-1,2,4,-15
1513487667479649,5,9,12,-8,3,-2,-1,63
1513487667480650,50,4,-2,-1,1,4,2,-69
1513487667480650,-27,-1,25,10,3,-5,2,35
1513487667502665,13,18,-57,-7,-6,-2,-1,48
1513487667502665,5,-9,32,12,0,0,0,-7
1513487667502665,-4,-1,6,-6,-8,-4,-2,11
1513487667502665,17,-7,-30,5,-2,0,6,33
1513487667517686,2,27,7,-17,-3,-5,-5,-9
1513487667517686,12,-26,-1,6,-1,5,6,6
1513487667517686,-10,-11,6,-4,1,-2,-2,-17
1513487667517686,19,14,-5,9,-3,-2,5,49
1513487667539702,-20,-14,30,-6,3,-6,-12,-5
1513487667539702,-26,-21,-67,-1,-9,-5,1,8
1513487667547720,45,12,14,-11,8,4,3,35
1513487667547720,-33,-21,-4,17,4,4,3,-12
1513487667562708,3,10,26,2,0,0,0,-16
1513487667562708,16,4,11,-9,-2,-3,-11,-23
1513487667562708,10,-18,-39,-12,-2,0,5,10
1513487667562708,-26,15,20,1,-4,-6,-5,-18
1513487667576728,16,15,32,8,17,5,-2,23
1513487667576728,-23,-50,-13,4,-1,2,-1,-44
1513487667584733,-15,1,10,-18,-7,-8,-10,-51
1513487667584733,15,11,-9,5,-5,3,2,-29
1513487667599735,1,-1,10,-2,-1,-3,0,16
1513487667599735,-22,-2,8,-2,1,2,-2,-10
1513487667600735,31,4,7,8,3,2,5,52
1513487667600735,-8,-15,-14,-7,-6,-4,-2,-6
1513487667621770,7,15,9,12,5,3,-8,6
1513487667621770,4,5,9,-26,-5,-3,-3,-55
1513487667622771,14,11,-20,16,2,0,2,4
1513487667622771,-26,-8,16,-3,-2,2,-6,-1
1513487667636780,30,18,-4,4,-5,-3,2,-14
1513487667636780,4,-3,0,-4,2,-8,-9,28
1513487667637782,-51,-15,2,2,-5,-2,0,47
1513487667637782,-16,16,-24,-12,-2,1,4,-28
1513487667659804,-2,-46,-13,-5,4,3,-1,-28
1513487667659804,58,37,-14,-2,-8,-3,3,36
1513487667660780,-18,-6,16,-1,-4,0,2,-41
1513487667660780,-9,-5,-18,-7,8,2,0,43
1513487667681814,-23,-11,-22,-7,-13,-9,-2,17
1513487667681814,44,27,19,15,1,1,2,41
1513487667682815,-7,1,-2,-22,3,1,-1,-1
1513487667682815,11,-3,-27,6,-7,-3,3,-27
1513487667696825,-10,-9,10,-2,-3,-6,-2,30
1513487667696825,9,6,-6,8,3,3,1,-25
1513487667697808,0,-22,3,-9,-9,-7,-14,-14
1513487667697808,-7,8,55,12,6,0,-2,11
1513487667719832,-41,-7,-9,-2,-5,-2,-8,-32
1513487667719832,-5,12,5,2,4,1,4,2
1513487667720833,6,18,4,0,1,1,13,40
1513487667720833,-13,-6,-12,3,-7,-1,-4,-80
1513487667749854,-13,-11,-4,-6,-1,-1,1,-10
1513487667749854,-11,-14,1,-3,-6,-5,-4,-12
1513487667750855,3,4,26,2,3,0,0,10
1513487667750855,22,-17,-7,0,-2,0,1,22
1513487667756845,12,12,-8,-1,-7,-1,4,-9
1513487667756845,-23,-4,-3,10,-4,-3,-4,38
1513487667764851,15,0,-25,9,15,4,5,-57
1513487667764851,4,2,29,-1,2,-3,-4,18
1513487667779873,29,-8,-12,-10,-9,-4,-6,-9
1513487667779873,-24,-12,-27,-6,7,2,1,14
1513487667780874,-7,15,19,11,-4,-2,-1,-11
1513487667780874,26,-26,-31,-7,-5,-1,-4,5
1513487667801877,1,0,11,2,-1,-1,-2,30
1513487667801877,-5,-1,-9,-8,1,-1,-2,-17
1513487667802879,-1,3,10,0,-1,0,-3,-4
1513487667802879,-15,3,1,-7,-1,-3,-4,-1
1513487667824949,-4,2,11,4,2,5,19,2
1513487667824949,15,-2,-1,-2,0,-4,-32,16
1513487667825906,-11,-5,0,-9,-6,-2,21,-3
1513487667825906,-13,-9,1,0,-2,-2,-18,7
1513487667839913,7,-3,-4,6,2,1,1,-25
1513487667839913,-1,10,3,-3,-2,1,7,0
1513487667840920,-4,-4,-19,-3,-1,-2,7,4
1513487667840920,13,11,7,0,-5,-7,0,1
1513487667861929,-13,-5,-11,0,-1,2,-2,-1
1513487667861929,-2,-4,0,0,1,-2,1,-1
1513487667862920,12,9,17,-6,-5,-5,-13,6
1513487667862920,-7,0,-13,6,-2,-1,9,-12
1513487667876940,-7,-3,8,-8,0,4,-4,16
1513487667876940,-9,-5,17,-4,1,1,6,-1
1513487667884945,-4,10,31,14,1,-1,-8,-23
1513487667884945,1,-15,-54,-8,-3,-2,-2,-22
1513487667899956,-2,-1,15,-4,-4,-6,-7,-5
1513487667899956,7,23,-12,4,-2,0,8,13
1513487667899956,-8,-28,-13,-5,-2,-2,-4,-3
1513487667899956,-9,18,28,-1,4,3,1,14
1513487667921984,10,-14,-26,2,-2,-2,3,-3
1513487667921984,20,3,-8,-4,-3,-1,6,-10
1513487667922964,-9,11,2,1,1,1,-10,-5
1513487667922964,-2,6,-1,0,-2,0,7,41
1513487667944992,12,-2,0,-6,-1,-3,-10,5
1513487667944992,-6,-3,20,4,1,-1,-1,-7
1513487667945981,10,-5,-53,-9,-2,2,0,11
1513487667945981,-4,-2,9,2,0,1,-6,-8
1513487667960001,-19,-6,-6,-3,0,-1,10,5
1513487667960001,-4,-6,32,1,1,0,-5,-4
1513487667960001,-3,-4,-22,0,-5,-5,-6,-6
1513487667960001,1,-1,-6,0,4,0,4,-5
1513487667982004,5,8,14,-3,-1,-2,-4,3
1513487667982004,1,-33,-18,-2,-2,-1,0,-6
1513487667983006,-16,-1,5,0,1,3,1,-4
1513487667983006,3,5,19,0,-1,2,2,4
1513487667997027,10,-8,-16,-3,-1,-4,-3,-4
1513487667997027,-1,10,-6,0,-1,-1,0,-5
1513487668005024,6,-5,9,-1,0,-2,0,2
1513487668005024,-20,-3,1,-4,-1,-1,-1,-3
1513487668028036,24,16,3,0,-2,-1,-1,-7
1513487668028036,-12,-9,-12,-2,-3,-2,-1,-3
1513487668029037,-3,0,3,-4,-2,-3,-4,-1
1513487668029037,-6,8,27,1,0,-1,6,-4
1513487668042047,10,-5,-11,-1,-2,-4,-6,-1
1513487668042047,-9,7,2,1,1,-3,-4,-6
1513487668043048,8,-2,8,-3,-1,2,-4,0
1513487668043048,-3,-8,-21,-2,-3,-1,-4,-1
1513487668057067,-15,-6,7,0,1,-1,1,2
1513487668057067,5,0,-8,0,-3,-2,8,-2
1513487668065073,5,-3,-15,0,0,-2,-2,2
1513487668065073,6,4,2,-3,-1,1,-1,-3
1513487668080083,-10,-4,-5,-1,1,0,-2,0
1513487668080083,-5,1,10,0,-1,-3,-6,-4
1513487668080083,11,1,4,0,-1,0,0,0
1513487668080083,-23,-4,-2,-1,-1,-1,1,-1
1513487668102107,-14,3,7,-2,-1,0,-4,-3
1513487668102107,22,2,1,1,0,-2,-1,5
1513487668103107,-5,-2,-7,-4,0,-2,-4,-3
1513487668103107,10,-1,4,1,-1,0,0,-3
1513487668125118,-3,-1,-5,1,-1,-1,2,0
1513487668125118,-1,-4,-7,-1,-2,-2,-3,-1
1513487668126109,2,8,0,-1,-2,-3,1,-1
1513487668126109,4,0,0,-2,-1,0,0,0
1513487668139125,-7,-2,-3,-2,-3,-1,4,-2
1513487668139125,-4,2,-4,-2,0,1,-5,-1
1513487668140117,-3,-1,2,1,-1,-1,-2,1
1513487668140117,0,2,13,0,-2,-1,2,-1
1513487668162131,6,-2,-22,-1,0,1,-8,-1
1513487668162131,-8,6,33,12,3,-4,11,1
1513487668163132,-8,-9,-57,-12,-4,-2,-1,-1
1513487668163132,6,8,36,-1,-1,3,-1,-2
1513487668185160,-3,-8,-38,-10,-2,-5,-1,1
1513487668185160,-4,-4,6,-8,-3,-1,-7,0
1513487668186148,-3,4,35,10,2,-1,1,0
1513487668186148,8,4,-10,3,1,-1,0,0
1513487668200180,0,4,17,4,0,0,-1,-2
1513487668200180,-6,-1,-9,-1,-3,1,-2,2
1513487668200180,1,-1,-1,1,-2,-2,-1,-5
1513487668200180,4,0,6,-8,-2,2,-2,-1
1513487668222189,-1,0,13,5,-1,-1,0,0
1513487668222189,-6,-3,-25,-10,-3,-1,0,-1
1513487668223184,-1,-1,13,0,0,0,1,0
1513487668223184,0,-2,-13,-3,-2,-4,0,0
1513487668245192,-3,1,17,5,2,1,-1,-2
1513487668245192,-1,-4,-28,-5,-2,-1,-4,-3
1513487668246193,0,-2,-3,-5,-2,0,0,1
1513487668246193,-1,-3,-20,-8,-3,-3,-7,0
1513487668260201,0,0,-1,-4,-1,2,11,0
1513487668260201,-2,-2,10,0,0,-3,-6,-3
1513487668260201,0,2,27,7,2,0,-1,0
1513487668260201,3,2,-5,11,4,2,2,1
1513487668283231,-3,-2,25,1,1,-1,-4,1
1513487668283231,-6,-13,-76,-33,-10,-3,-9,-3
1513487668284218,-3,1,26,-2,0,0,5,-1
1513487668284218,0,0,-24,4,1,0,-1,0
1513487668306248,-2,0,20,2,1,2,-2,-3
1513487668306248,-1,1,20,12,2,0,3,0
1513487668306248,0,-4,-19,-5,1,-3,-15,1
1513487668306248,-1,0,-14,-4,-3,1,14,0
1513487668319256,-2,-1,16,0,-2,-3,-3,-2
1513487668319256,-1,1,0,0,0,2,-2,-2
1513487668320243,-1,-3,2,-2,-2,0,1,-2
1513487668320243,-1,1,30,7,0,-3,0,-1
1513487668342259,0,0,-17,-6,-2,-2,0,0
1513487668342259,-5,-8,-39,-7,-5,-4,1,-2
1513487668343261,-1,1,-26,-4,0,0,1,3
1513487668343261,-4,-6,15,-6,-6,-5,-8,-3
1513487668365275,1,4,25,5,1,-2,-8,0
1513487668365275,3,5,7,17,6,2,8,0
1513487668366276,-1,-2,14,-8,-5,-3,1,0
1513487668366276,-5,-7,-26,-10,-2,0,-11,-4
1513487668380295,0,-1,-5,-1,-4,-4,6,0
1513487668380295,1,3,32,12,3,1,0,0
1513487668381296,-3,0,-6,0,-1,-2,-5,-3
1513487668381296,1,0,9,-1,-1,0,5,0
1513487668402311,1,3,14,13,3,3,0,-1
1513487668402311,-4,-15,-51,-36,-11,-3,-4,-3
1513487668403302,0,-2,7,-4,-2,-1,3,-2
1513487668403302,4,6,26,19,5,-1,-2,1
1513487668425423,-3,-6,-53,-19,1,2,2,-2
1513487668425423,1,8,42,20,3,-1,-2,0
1513487668426354,-6,-12,-39,-32,-10,-7,-4,-4
1513487668426354,0,2,33,13,-3,-2,0,-2
1513487668439375,-1,-4,-4,-1,0,-1,9,-1
1513487668439375,4,10,36,24,7,3,-2,0
1513487668440373,-2,1,0,3,1,2,-1,0
1513487668440373,-3,-3,-13,-7,0,-3,-9,-1
1513487668462392,0,-1,-3,1,-2,-1,6,-1
1513487668462392,-2,-4,-5,-14,-4,-1,-3,-2
1513487668463392,2,6,21,16,5,2,2,0
1513487668463392,-1,-1,-2,-7,-2,-3,-5,-1
1513487668484399,-3,-7,-31,3,-3,2,7,-2
1513487668484399,-6,-10,-2,-30,-8,-8,-10,-4
1513487668492413,3,9,42,15,6,3,-2,3
1513487668492413,-7,-15,-61,-16,-6,-5,2,-2
1513487668499425,1,7,29,13,0,0,-7,0
1513487668499425,-2,-5,1,-3,-2,-2,2,-4
1513487668500426,-1,3,-2,7,0,-1,3,-1
1513487668500426,1,2,7,-4,1,2,0,0
1513487668522436,-2,-3,5,-3,-2,-2,-7,-1
1513487668522436,-1,0,3,0,0,-1,-1,-2
1513487668523424,-2,-3,-10,-6,-1,-2,-1,0
1513487668523424,1,0,4,0,-1,-1,3,-1
1513487668545452,-1,-4,-14,-11,-3,-1,-8,-1
1513487668545452,3,8,32,11,3,2,-1,1
1513487668546451,-2,-12,-43,-4,-5,-1,1,-3
1513487668546451,-2,-2,-14,-6,-3,0,1,-2
1513487668559476,1,0,3,-8,0,-1,-5,-2
1513487668559476,0,3,13,3,1,-3,-4,2
1513487668560448,-2,-2,17,5,-2,-1,-2,-2
1513487668560448,0,0,-17,-2,1,0,12,-1
1513487668582465,-5,-8,-9,-11,-6,-4,-8,-3
1513487668582465,-1,-1,-5,-1,-2,-3,12,1
1513487668583465,0,0,7,0,-1,-1,-2,-1
1513487668583465,1,2,11,3,-1,0,-3,1
1513487668605572,2,2,1,2,-1,-1,-4,-3
1513487668605572,-2,-6,-8,3,-1,1,-2,-3
1513487668606570,-1,-1,-1,-2,-2,-2,-1,-1
1513487668606570,-2,-1,1,-3,-2,-1,-4,-2
1513487668619568,-1,-1,-5,-1,1,-2,1,-2
1513487668619568,-2,-3,-7,-3,-2,0,-4,-1
1513487668620570,0,-2,-5,-2,-2,-1,-1,-1
1513487668620570,2,1,3,1,-2,2,-2,-1
1513487668642595,-2,-1,0,-4,-1,-2,-1,-1
1513487668642595,0,-1,-4,2,1,-1,0,1
1513487668643579,-1,-1,-2,0,0,-2,-1,1
1513487668643579,-3,1,2,0,-1,-1,0,-2
1513487668665592,0,-1,-4,-2,-2,-1,-1,-2
1513487668665592,-1,-2,-3,-1,-1,-2,-4,-3
1513487668666592,-3,-1,-9,-4,-2,-1,0,-1
1513487668666592,0,-1,3,-1,-1,1,0,-2
1513487668679611,-1,1,-3,-1,-1,-1,-2,0
1513487668679611,-1,-3,-3,-1,0,0,-3,-2
1513487668680602,0,0,1,-2,0,-1,-1,-2
1513487668680602,0,0,0,-2,-1,-2,1,-1
1513487668702628,0,-1,0,-2,0,-1,0,-2
1513487668702628,0,-1,1,0,0,0,0,0
1513487668703619,2,-1,-3,-2,-2,0,-1,-1
1513487668703619,0,0,2,0,-2,-2,-2,-1
1513487668725688,-1,-1,-2,-1,-2,-2,0,-1
1513487668725688,-3,0,-5,-2,-1,-1,-1,0
1513487668726684,-1,-1,-3,-3,0,0,0,0
1513487668726684,1,-2,0,-2,-1,-1,0,-2
1513487668738643,-1,1,4,2,-1,-1,-2,0
1513487668738643,-2,-8,-14,-4,-1,-4,-2,-3
1513487668747649,-1,-1,1,0,-1,-1,-1,2
1513487668747649,-1,-1,1,-2,-1,-2,0,1
1513487668762670,-2,-2,-4,0,-3,-1,-2,1
1513487668762670,0,-1,2,0,1,-3,-1,-3
1513487668763661,-2,-1,1,0,-2,0,-1,-2
1513487668763661,-1,-3,-1,-3,-1,0,-1,0
1513487668785688,0,1,-1,-1,-2,-2,0,-1
1513487668785688,-1,0,-1,1,-2,0,-1,1
1513487668786677,0,-1,-2,-1,-2,-1,-1,-2
1513487668786677,1,-1,5,0,0,-2,-2,1
1513487668798695,-3,-2,-5,-2,-1,0,-1,0
1513487668798695,-2,0,1,0,-1,-1,-2,-3
1513487668807691,-1,0,-2,0,-2,-1,0,-2
1513487668807691,-2,-3,2,0,0,-2,-1,0
1513487668822704,-2,-1,-2,-2,0,-2,2,1
1513487668822704,0,0,-1,-1,-1,-2,0,0
1513487668823705,-1,-1,1,-1,1,0,2,-1
1513487668823705,-1,0,-2,-1,-1,0,-1,-2
1513487668851743,0,-3,-3,1,-1,-1,-3,-2
1513487668851743,-1,-1,-3,-1,-1,-1,0,1
1513487668859749,-2,0,-1,-2,-1,-2,-2,-1
1513487668859749,-1,0,-1,-2,-1,-1,-1,1
1513487668869756,2,-1,-2,-1,-1,0,-1,-2
1513487668869756,-1,-3,0,-1,-3,0,-3,-2
1513487668869756,0,-1,0,0,-1,-3,-1,0
1513487668869756,-2,-1,-3,-1,-1,-2,0,-1
1513487668882759,-2,0,0,-3,0,-1,-1,-2
1513487668882759,-2,-1,-1,-1,-1,-2,-1,-2
1513487668883745,-2,-2,-1,-1,-1,0,-1,-1
1513487668883745,-1,-2,-3,-1,-3,-1,-1,-1
1513487668905780,-3,-2,0,-2,-2,0,-1,-2
1513487668905780,-1,0,0,-2,1,-1,-1,-1
1513487668905780,0,1,-1,-1,-2,-2,-1,-3
1513487668905780,-1,-1,0,-1,-2,-1,-2,-2
1513487668918770,1,-2,-1,-2,0,-1,-1,-1
1513487668918770,-2,-1,-1,-1,-2,0,-2,0
1513487668926795,-1,0,-1,-2,-3,0,-1,0
1513487668926795,0,1,0,-2,-1,1,-3,-1
1513487668942799,-1,-2,-1,-2,-1,-2,-1,-2
1513487668942799,-1,-1,-2,-1,-1,-2,0,-2
1513487668943789,1,-1,0,-1,-1,-1,0,-1
1513487668943789,-2,-1,-1,1,-1,0,0,0
1513487668965803,-2,2,-2,0,-2,-1,-1,0
1513487668965803,-1,-1,-2,-1,-2,-1,-2,-1
1513487668965803,1,-3,-1,-2,-1,-1,-2,-1
1513487668965803,0,-2,-1,-2,-2,0,1,-2
1513487668978826,-2,-1,0,0,-1,-1,-2,-2
1513487668978826,-1,-2,-2,-2,-1,-2,-3,0
1513487668986819,-1,0,-1,-1,-1,0,0,-1
1513487668986819,1,0,-1,-1,-1,-3,-1,-2
1513487669002846,0,-2,-1,-2,0,-1,-1,0
1513487669002846,0,0,0,-1,-1,-1,0,-2
1513487669003831,0,-3,-1,0,0,-1,0,-2
1513487669003831,-1,0,-3,-1,0,-2,-1,2
1513487669025897,-2,0,-2,-2,-2,1,-3,-2
1513487669025897,1,-1,-2,1,-1,-2,0,-2
1513487669025897,0,-2,-2,-1,-3,0,-1,1
1513487669025897,-1,-2,1,0,-2,-2,-1,-3
1513487669047890,-1,-2,-1,-3,-2,-2,-1,-2
1513487669047890,-2,-1,-2,0,0,-1,-2,0
1513487669048891,0,0,-2,-1,0,-2,1,0
1513487669048891,1,0,-2,0,-1,-1,-2,0
1513487669062901,0,-2,-1,-1,1,-2,0,-1
1513487669062901,0,0,-1,-1,-1,0,0,-4
1513487669063902,1,1,-1,-2,-1,-1,0,-3
1513487669063902,-2,0,0,0,0,-1,-2,-1
1513487669084917,-3,-3,0,-1,0,0,0,-1
1513487669084917,-2,-1,0,0,-1,-1,0,1
1513487669085918,-2,0,-1,0,-1,0,-3,-1
1513487669085918,-1,-1,-1,-2,-3,-2,-1,-1
1513487669107933,-2,-1,-2,2,0,-2,-3,0
1513487669107933,-1,-2,-2,-1,-1,-1,0,0
1513487669108934,-2,0,-1,-1,-3,-2,0,1
1513487669108934,0,-2,-1,-2,0,-2,1,-1
1513487669121943,-2,-1,0,-1,0,-1,-2,-2
1513487669121943,-1,-2,-1,-2,-1,-1,-2,-2
1513487669122943,0,0,-1,1,-1,-1,0,-1
1513487669122943,0,-1,-1,1,-2,1,-2,-2
1513487669144970,1,-3,-2,-1,-1,-2,-3,0
1513487669144970,-1,-2,-1,-1,-1,-1,-2,-2
1513487669146960,0,-1,0,-2,-1,-1,-1,-3
1513487669146960,-1,0,-1,-1,-3,0,1,0
1513487669167975,1,-1,-2,-1,-1,-1,1,-2
1513487669167975,0,0,-1,-1,-1,-1,-1,-3
1513487669168976,-1,-1,-1,-1,-1,-2,-2,0
1513487669168976,-2,0,-1,-2,-1,0,0,-2
1513487669181986,-2,0,0,-2,-2,0,-1,-2
1513487669181986,0,-1,-3,0,-1,-2,-1,0
1513487669197005,-1,1,-2,0,-2,-1,0,0
1513487669197005,-1,-1,-3,-2,0,0,0,-1
1513487669205040,1,0,-2,2,-2,-2,1,-1
1513487669205040,-1,-1,-1,-1,0,-1,-3,-1
1513487669207013,-3,-2,-2,-1,-1,-2,-3,1
1513487669207013,0,-1,-1,-3,-2,-1,-1,-1
1513487669228057,-2,-3,-1,-3,-1,0,-2,0
1513487669228057,-1,-3,-1,-2,-1,-1,1,-2
1513487669229044,-1,-1,-1,-1,0,1,0,-2
1513487669229044,-2,-1,-1,1,0,0,-1,-2
1513487669250059,-2,-1,-1,1,0,-3,-2,-1
1513487669250059,-1,1,0,-2,-2,1,-2,-1
1513487669252062,-1,-1,0,-2,-1,-2,-1,0
1513487669252062,-1,0,1,-2,1,0,0,-1
1513487669265072,-1,-2,0,-2,-1,-1,-1,0
1513487669265072,-2,-2,-1,-1,-1,-2,0,-1
1513487669267074,0,-2,-2,-1,1,-3,0,-3
1513487669267074,1,0,-1,-1,-2,-2,0,1
1513487669288087,0,0,-1,0,-2,-4,-2,-3
1513487669288087,-1,-2,-1,0,0,-2,-3,0
1513487669289088,0,-3,-2,0,-1,-1,-1,0
1513487669289088,-1,-1,-1,0,0,-2,-1,-3
1513487669302106,-1,-2,-2,-1,0,-1,-1,-2
1513487669302106,-1,-1,-4,-2,0,-1,-1,-1
1513487669309177,-1,0,-1,-1,-2,-1,0,-1
1513487669309177,-1,1,0,2,-2,-1,-2,-1
1513487669325186,-1,-1,-1,-2,-1,2,-2,-1
1513487669325186,-2,0,0,-2,0,-2,-2,-2
1513487669327177,-1,-2,-3,-3,-1,2,-1,0
1513487669327177,-1,-2,-1,-1,-1,-1,-1,0
1513487669348193,-3,-1,0,1,-1,-1,-1,-2
1513487669348193,1,-2,1,0,0,-1,-1,-1
1513487669349183,-1,0,1,0,-1,-2,0,-2
1513487669349183,0,-1,0,-2,-1,0,-1,-2
1513487669362204,-1,-1,-1,-1,-1,0,1,0
1513487669362204,0,-1,-2,-1,-1,-2,0,-1
1513487669369207,1,-1,-1,-1,-1,-3,-2,-1
1513487669369207,0,0,-1,-2,0,-1,-3,0
1513487669385210,-4,-2,-2,-2,-3,-2,-1,-2
1513487669385210,-2,-2,-2,-1,-2,-1,0,-1
1513487669387213,1,-1,-1,0,-2,-1,-1,1
1513487669387213,-3,-1,-1,-1,-1,0,-2,-1
1513487669415243,-2,-2,1,-1,0,-2,0,-1
1513487669415243,-2,-1,-1,-2,-1,-1,-2,-1
1513487669418245,0,1,0,-2,0,0,0,-1
1513487669418245,-2,1,-1,-2,-2,-2,0,-2
1513487669422234,0,-2,-1,-2,-1,-1,-1,-1
1513487669422234,-1,-3,-1,-1,-2,-2,-2,-2
1513487669429253,-3,-2,0,-1,-1,-1,-1,0
1513487669429253,-2,-1,-1,-1,-2,-1,0,-1
1513487669445265,-1,0,0,-2,-1,-1,-1,-1
1513487669445265,-2,0,-2,0,-1,0,1,0
1513487669447263,-2,-1,-1,-3,-1,0,-1,-2
1513487669447263,0,-1,-1,-1,-2,2,-2,0
1513487669468291,-1,-2,-3,-2,-1,-2,0,-2
1513487669468291,0,0,-2,0,-3,0,-1,-1
1513487669469268,-1,1,-2,0,-1,-1,-3,-2
1513487669469268,-2,-1,-1,0,0,-1,0,0
1513487669482278,-1,-1,-2,-1,-1,0,-4,-2
1513487669482278,-3,-2,-1,-1,-1,-1,-1,-1
1513487669496286,0,0,0,-1,-1,0,2,1
1513487669496286,-1,-1,1,-1,-1,1,-1,-1
1513487669505310,-2,-1,-2,-2,0,0,0,0
1513487669505310,-1,0,-2,0,0,-1,1,-2
1513487669507318,-2,-1,-1,0,-1,0,-2,-1
1513487669507318,-1,-1,-3,-2,-1,-3,-1,-1
1513487669528312,-2,-1,-2,0,-2,-1,-2,-1
1513487669528312,-1,-2,-1,-2,-1,-1,0,-1
1513487669529310,0,0,0,-1,-1,0,0,-2
1513487669529310,0,-2,0,0,-1,-2,-1,-2
1513487669541340,-1,-1,-2,0,-1,-2,-1,-1
1513487669541340,-2,-2,0,-2,-1,0,-3,-1
1513487669550330,0,-1,-1,-1,0,-1,-1,-1
1513487669550330,-3,-4,0,-1,0,-1,0,0
1513487669565346,0,-1,-1,-3,-1,-2,-2,-3
1513487669565346,-1,0,-1,-2,0,0,-1,-2
1513487669567351,0,-2,0,-1,-1,0,-1,1
1513487669567351,0,-1,0,0,0,0,1,-1
1513487669588351,-1,-2,-3,-1,1,-1,-2,-2
1513487669588351,0,-2,0,-1,0,2,-2,-2
1513487669589354,-1,-1,-2,0,-3,-1,-2,-3
1513487669589354,0,-1,0,-1,-1,-3,0,-1
1513487669601383,-1,-1,-1,-1,-2,-1,-1,0
1513487669601383,0,0,-2,-1,-1,-3,-2,1
1513487669610368,-2,-1,-1,0,1,-2,0,-1
1513487669610368,0,0,-2,0,-1,-1,-2,-1
1513487669625391,-1,1,-1,-2,-1,0,-1,-1
1513487669625391,1,0,-1,-2,0,-3,-2,-3
1513487669627380,-2,0,-2,-1,-1,0,0,0
1513487669627380,0,-1,0,-1,-2,-3,-1,-1
1513487669647407,-2,0,-1,-1,-2,-1,0,0
1513487669647407,-3,-2,-2,1,-2,-1,-2,2
1513487669649395,-1,0,-1,-1,-1,-1,-2,-2
1513487669649395,0,-1,-1,-1,-1,-1,1,-2
1513487669661419,-1,-2,0,0,-2,0,-1,-1
1513487669661419,-1,-2,-2,0,-2,-3,0,-1
1513487669670419,-1,0,-1,-2,-3,-1,-1,2
1513487669670419,-2,-1,-2,-1,-2,0,-2,0
1513487669693425,-2,-2,-2,-2,0,-2,-2,0
1513487669693425,0,1,-2,-1,-2,0,-1,-1
1513487669695439,0,-1,-1,-1,-1,-1,-1,0
1513487669695439,-2,0,0,-2,1,-2,-1,-2
1513487669707460,-2,-1,-2,0,-1,1,-1,-1
1513487669707460,-1,-2,1,-2,-2,-1,2,-1
1513487669714455,-1,0,-2,0,0,0,0,1
1513487669714455,0,0,-2,0,-1,-1,-1,0
1513487669721468,-1,0,-2,-2,-1,-2,-2,-1
1513487669721468,-1,-1,-1,-1,-1,-1,0,-1
1513487669730474,-1,-2,-1,-2,-1,-1,0,-2
1513487669730474,-1,0,-2,-1,-4,-1,0,-1
1513487669745463,-2,-3,-1,0,-1,-1,0,-2
1513487669745463,0,-3,-1,-1,-1,0,-1,0
1513487669747479,0,1,-1,0,-2,1,0,-2
1513487669747479,0,-2,0,-1,1,-1,-3,-1
1513487669767493,-1,-2,-2,-2,-1,-2,-1,-2
1513487669767493,-1,-2,-2,-2,0,-1,-1,-1
1513487669769481,-1,-2,-1,0,-1,-3,1,-1
1513487669769481,-3,-1,0,-2,-2,1,1,-2
1513487669781503,0,-1,0,-2,0,-2,-2,-1
1513487669781503,-2,0,-3,0,0,0,-2,0
1513487669790494,0,-3,-1,-1,-1,-1,0,0
1513487669790494,-2,0,-3,-2,0,1,-1,-1
1513487669805520,-1,-4,0,2,-2,-1,0,-1
1513487669805520,-2,-1,-2,-2,-2,-2,-1,-1
1513487669806521,-2,0,-1,0,-3,0,-1,0
1513487669806521,-1,-2,-1,-1,-1,-2,0,0
1513487669828522,-1,-1,-2,-2,1,-2,-1,-3
1513487669828522,0,-2,0,-1,-2,-2,0,-1
1513487669829537,-1,-2,0,-2,-2,-1,0,-1
1513487669829537,-1,-1,-2,-2,-1,-2,-2,-1
1513487669841545,-1,-1,-1,0,-2,-2,-3,0
1513487669841545,-1,-2,-2,-1,-2,-1,-1,-1
1513487669850538,0,0,-1,-1,-1,-1,-2,-3
1513487669850538,-3,-1,-1,-1,-1,0,1,-2
1513487669865559,0,0,0,0,-1,-2,0,0
1513487669865559,-2,-1,-1,-1,-1,0,0,-2
1513487669866579,1,-3,-1,-1,-2,0,-1,-1
1513487669866579,-1,-2,-1,-2,-2,-1,-3,2
1513487669887575,-1,0,-3,-1,-3,-1,-3,-2
1513487669887575,0,1,-3,-2,-1,-1,-2,0
1513487669889577,-2,-1,1,-2,0,1,0,1
1513487669889577,0,0,-1,-2,-2,-1,0,0
1513487669901593,-1,-1,-2,-1,0,-1,-2,-2
1513487669901593,0,-2,-2,-1,-2,-2,-3,-1
1513487669910598,0,0,1,-2,-1,-3,-1,-2
1513487669910598,0,-1,1,0,-2,0,0,0
1513487669925600,-2,-1,-1,-2,0,-1,1,-1
1513487669925600,-2,-2,-2,0,1,-3,-1,-2
1513487669926611,-1,0,-3,0,0,-2,-2,-1
1513487669926611,0,0,-1,-2,-2,-1,-1,-2
1513487669947616,-1,-1,0,0,-1,-1,-1,-2
1513487669947616,-1,0,-1,0,-1,-1,0,-2
1513487669949608,-1,-1,0,-1,-1,-2,0,2
1513487669949608,0,-1,-1,0,-1,-2,-2,-2
1513487669961626,-1,-1,-1,-1,0,0,-3,-2
1513487669961626,-2,-2,-2,-2,-2,0,-1,0
1513487669970635,-3,0,-1,-3,-2,-1,-1,-2
1513487669970635,-1,-1,0,-1,-1,-1,0,-2
1513487669992650,-3,-3,-1,0,-2,-1,0,-1
1513487669992650,-1,-2,0,2,-1,-2,-1,-2
1513487669994641,-1,-1,0,-2,0,0,0,0
1513487669994641,1,-1,-2,0,0,-2,-2,-2
1513487670007652,-1,-2,-2,1,0,-1,-1,0
1513487670007652,0,-1,-1,-1,-1,-2,-3,-2
1513487670009651,1,1,-3,-1,-1,-1,-1,-2
1513487670009651,-2,-1,-1,-1,-1,-2,-2,0
1513487670030664,0,-1,0,-3,-1,0,0,0
1513487670030664,-3,-2,0,-2,-1,0,-1,-1
1513487670031665,-2,0,0,-2,0,-1,-3,-1
1513487670031665,-2,0,-1,-2,-2,-1,0,0
1513487670045688,1,-2,-2,0,0,-2,-1,-2
1513487670045688,-1,-1,-1,0,-2,-3,-1,-1
1513487670046698,0,-1,0,2,-2,-2,1,0
1513487670046698,-2,-1,-1,-3,0,0,0,-1
1513487670067703,-3,-1,-2,-1,-1,-2,-1,0
1513487670067703,-1,-1,0,-2,-1,-1,1,1
1513487670069698,-2,0,-1,-1,-2,-1,-2,-2
1513487670069698,0,-1,6,0,-2,-1,-2,0
1513487670090721,0,-1,-12,-1,-1,-1,-2,-2
1513487670090721,-2,-1,-2,-2,-1,-1,0,-2
1513487670092708,-3,-2,-2,-1,-3,-1,0,-3
1513487670092708,0,-1,0,0,-2,-1,-1,-1
1513487670105739,0,-1,1,-2,-1,-1,-2,-1
1513487670105739,2,-3,-2,-1,0,-1,-3,1
1513487670106734,0,-2,-1,-1,-1,-2,0,1
1513487670106734,0,-2,-2,-1,1,-2,-1,-2
1513487670127733,-1,-1,0,-2,-2,-3,0,1
1513487670127733,-1,0,-1,-2,-2,-1,-3,0
1513487670129734,0,-1,1,-2,-2,-1,0,0
1513487670129734,-1,-1,-3,-1,-1,0,-1,0
1513487670150750,-3,0,0,-1,-1,-2,-2,1
1513487670150750,-1,-1,-1,-1,1,-1,-3,-1
1513487670151752,-1,1,-1,-2,-2,0,0,-1
1513487670151752,-2,-1,-3,-2,0,-2,0,-1
1513487670164761,-1,0,1,0,-2,-1,0,-3
1513487670164761,-1,0,-1,-2,-2,-1,-2,-4
1513487670171787,0,-3,-1,-1,0,0,-2,0
1513487670171787,-2,-2,-2,-1,-1,-2,-4,-1
1513487670187785,0,-2,-1,-1,0,-1,-2,-1
1513487670187785,0,-1,-1,0,-2,-2,1,-1
1513487670189786,-1,0,-1,-1,-2,0,-1,-3
1513487670189786,1,0,0,0,-2,-1,2,0
1513487670217808,-1,-1,1,0,-1,-1,-3,2
1513487670217808,-1,-1,0,1,-1,-1,1,-1
1513487670219810,-1,0,-2,-3,-1,0,-3,1
1513487670219810,-1,1,-1,-1,-1,-1,-1,-1
1513487670224845,0,-2,-1,-2,0,-1,-1,-2
1513487670224845,-2,0,0,-1,1,-1,0,-1
1513487670231826,0,-1,-2,0,0,0,1,-2
1513487670231826,-1,-1,-2,-1,-2,-2,-1,-1
1513487670248839,-1,-2,-1,-2,-1,-1,-4,-3
1513487670248839,-2,0,-1,0,-2,-1,-2,-2
1513487670249824,-1,-1,1,-1,-3,-2,-2,-1
1513487670249824,-1,-2,-1,-1,-2,0,-2,0
1513487670270854,-3,-1,-3,-1,1,-1,-2,-1
1513487670270854,-2,-2,-2,-3,-2,-1,-2,0
1513487670271835,-1,0,-1,0,0,1,1,0
1513487670271835,-2,-3,-2,-1,-1,-1,0,-1
1513487670284862,0,-1,-1,-1,-1,-2,-1,-2
1513487670284862,0,-2,-1,-1,-1,-1,-1,-2
1513487670291869,0,-2,-2,-2,0,-1,-1,1
1513487670291869,-1,-1,-1,-1,2,-1,-1,-2
1513487670307882,-1,-1,-1,-1,1,0,-1,-2
1513487670307882,-1,1,-2,0,-1,0,0,0
1513487670309883,0,2,-2,-1,0,-3,-1,-2
1513487670309883,-2,-1,-1,0,0,0,0,-1
1513487670329875,0,-3,-1,-1,-2,-2,1,0
1513487670329875,0,-1,-1,-1,-3,-1,0,-2
1513487670331877,-2,-1,0,-2,-1,-2,-1,0
1513487670331877,-1,-1,0,-2,-1,-2,-3,0
1513487670344894,0,-1,-1,-1,-1,-2,0,-2
1513487670344894,-1,-2,-2,-1,0,0,-3,-1
1513487670351892,2,0,-2,0,-1,-1,0,-1
1513487670351892,-2,0,-1,-1,-4,-1,1,-2
1513487670367912,-1,-2,0,-3,-2,-2,-3,-2
1513487670367912,1,-2,-2,0,-1,-2,0,0
1513487670369914,-2,-2,-1,-1,-2,-1,0,0
1513487670369914,-2,-1,-1,-2,1,-1,1,-2
1513487670390932,-2,0,-1,1,-2,-1,-2,0
1513487670390932,-1,-1,-1,-2,-1,0,-2,-3
1513487670392928,-1,0,1,0,1,0,-1,-1
1513487670392928,-1,0,-1,0,0,0,-1,-2
1513487670404967,-2,-1,-2,1,-3,-1,-1,-1
1513487670404967,-2,-2,-2,-1,-2,-2,0,0
1513487670411945,-2,-1,-2,-1,-2,-1,-1,-1
1513487670411945,-2,-1,-2,0,-1,-1,0,-1
1513487670427955,-2,-2,1,-3,1,-1,-1,-1
1513487670427955,-1,-1,-2,-2,1,0,0,2
1513487670428957,0,-2,1,-1,-2,-1,-1,-1
1513487670428957,0,-1,0,-2,1,0,-3,0
1513487670449974,-1,-1,-2,-2,-1,-2,0,-2
1513487670449974,1,0,-1,-2,0,-2,-2,-2
1513487670451975,-1,-1,-1,-1,0,-2,-1,0
1513487670451975,0,-2,0,-1,0,-1,-1,-1
1513487670464972,0,0,0,1,-1,-1,-3,0
1513487670464972,-1,-1,-2,0,0,0,0,-1
1513487670478981,-2,-1,-1,0,-1,-1,1,-1
1513487670478981,0,-2,-1,-2,-3,-1,-2,-2
1513487670487997,-1,-2,-1,-2,-1,-1,-1,-2
1513487670487997,-1,-2,-1,0,0,-2,-1,-4
1513487670488998,-2,-1,0,-1,0,-1,0,-1
1513487670488998,-2,0,-2,-3,-2,-2,-1,0
1513487670510045,-4,0,-3,-2,-1,-3,-2,0
1513487670510045,0,1,-1,-1,-2,-1,1,-1
1513487670512005,0,-1,-1,-3,-2,-3,-2,-1
1513487670512005,-1,-2,-1,-1,-2,-1,-1,0
1513487670524033,-1,-2,-1,0,1,-1,-1,-1
1513487670524033,-2,-2,0,-1,-2,-1,-1,-1
1513487670533040,0,0,-1,0,-3,0,-1,1
1513487670533040,0,-1,-1,0,-1,0,-1,1
1513487670548031,-2,-3,-3,-1,-3,-1,-2,-2
1513487670548031,-1,-1,-2,-2,-1,-1,-1,0
1513487670549036,-2,0,-1,1,-1,0,0,-1
1513487670549036,0,0,-1,0,-2,-2,0,-2
1513487670570061,0,-1,0,0,-1,-1,-2,-2
1513487670570061,-3,0,-1,0,-2,-1,-1,0
1513487670572062,-1,-1,-1,-2,-1,1,-1,-2
1513487670572062,-1,2,0,-1,-1,1,1,0
1513487670584076,0,-1,0,-1,-1,-1,0,-2
1513487670584076,-3,-1,-2,-1,-1,-2,-2,-1
1513487670593082,-1,-2,0,-1,-2,-1,-1,-1
1513487670593082,-2,-1,-2,-2,-1,0,-1,0
1513487670608092,-1,1,-1,-1,0,-3,-1,-1
1513487670608092,0,0,-1,-2,-1,-2,-1,0
1513487670609074,0,-1,-1,-1,-1,-1,-2,-2
1513487670609074,0,-2,1,0,-2,-1,-1,-2
1513487670630101,-1,-1,-2,-3,-1,-1,-1,0
1513487670630101,0,-2,-1,-2,-1,0,0,-1
1513487670632103,1,-1,-1,-1,0,-1,1,0
1513487670632103,0,0,-2,0,0,-2,-1,0
1513487670644107,-1,-2,-1,-1,-1,-2,-1,-2
1513487670644107,-2,-1,4,-1,-2,-3,-2,-2
1513487670653114,1,-1,-4,-1,0,-1,0,0
1513487670653114,0,-1,6,-1,-2,-2,1,-2
1513487670668124,-1,-3,-6,0,0,-1,-2,-1
1513487670668124,-1,-1,2,0,-1,0,0,0
1513487670669125,-2,2,1,0,-3,-1,-1,0
1513487670669125,-2,-1,0,-2,-1,-3,-2,-2
1513487670690150,-2,-4,-1,-1,1,0,0,0
1513487670690150,-1,-1,0,-2,-1,-1,-1,-1
1513487670693150,0,-3,0,-3,0,-2,-1,-1
1513487670693150,-2,0,-4,-1,-2,0,-1,-2
1513487670713147,-1,-2,1,-1,-2,-1,-2,0
1513487670713147,0,-3,-6,-2,-1,0,0,-3
1513487670714152,-2,-2,-2,-1,-1,1,-2,-3
1513487670714152,-1,-3,-1,-1,0,-2,0,0
1513487670728162,-3,-1,-4,-3,-2,1,-2,0
1513487670728162,-1,-1,-2,-1,-1,-1,-2,1
1513487670729160,-2,2,0,-1,-2,-1,1,0
1513487670729160,-1,-1,-3,0,-1,0,-1,-4
1513487670750189,0,-1,2,1,0,-4,-2,-3
1513487670750189,-1,1,-2,-2,0,-1,0,2
1513487670752190,-1,1,-1,-2,-2,0,-1,-1
1513487670752190,-1,-1,-3,-2,0,-1,-2,0
1513487670764199,-2,-2,0,0,-3,-1,-1,0
1513487670764199,1,-1,0,0,-2,-3,2,-1
1513487670773189,-1,-3,-2,0,0,-2,-2,0
1513487670773189,-1,-2,0,0,0,-1,-1,-1
1513487670787201,-1,1,0,-1,-1,-2,-1,-1
1513487670787201,-1,-2,-2,-1,0,-1,-2,-1
1513487670801225,-1,-1,-2,0,-1,-2,2,-2
1513487670801225,-2,-1,-2,-1,-3,-2,-2,0
1513487670810275,-2,-3,-1,-1,0,-1,-2,0
1513487670810275,0,-2,-1,1,-1,0,-1,-2
1513487670812222,-1,-1,0,-1,-1,2,0,-2
1513487670812222,-1,-2,-3,-2,0,-3,-1,1
1513487670824242,1,1,-2,-2,-1,1,-2,-2
1513487670824242,-2,-1,-2,-1,-2,-2,-2,-1
1513487670833243,-1,-1,-1,-1,-1,-1,-3,-1
1513487670833243,-1,-1,-1,0,0,-1,-2,-1
1513487670848253,-1,-1,-2,-3,1,-1,0,-1
1513487670848253,1,-2,-1,0,-2,-1,0,-2
1513487670849243,0,0,0,0,-2,-1,0,-1
1513487670849243,-1,1,-1,-1,-2,0,-2,0
1513487670878285,-3,-3,-1,-1,-1,-2,-1,0
1513487670878285,0,1,-2,-1,-1,-1,-2,-2
1513487670879265,0,-1,-1,-1,-1,-2,-1,-2
1513487670879265,0,-3,-1,1,-2,1,0,-4
1513487670884279,-1,-1,0,-1,-3,-3,-1,-3
1513487670884279,-2,0,-1,-1,-2,1,1,0
1513487670900279,0,-2,-1,-2,-2,-1,-1,0
1513487670900279,-1,0,-2,-1,-1,-3,-2,0
1513487670908297,0,-2,-1,-2,-2,-2,-3,0
1513487670908297,-1,-1,-1,-2,-1,-1,0,-1
1513487670909286,0,-1,-2,0,0,0,1,-2
1513487670909286,-3,-1,2,0,-2,0,-1,-3
1513487670930300,-1,0,-1,-2,-2,0,-1,0
1513487670930300,-1,-2,-3,-1,0,-2,-2,0
1513487670932313,-1,-1,0,-2,-1,-2,-1,-1
1513487670932313,2,-3,-2,-1,0,0,0,-1
1513487670953316,0,-1,-2,0,0,-2,0,-1
1513487670953316,0,0,0,0,-2,-1,-2,0
1513487670954317,-1,1,2,-1,-3,-1,-1,0
1513487670954317,-2,0,-2,0,-1,-3,-2,-2
1513487670968342,0,-2,-2,0,0,0,-1,-2
1513487670968342,-1,0,-1,-1,-2,-1,-3,-2
1513487670969338,-1,-1,-1,0,0,-1,1,1
1513487670969338,-4,0,-1,-1,-1,-1,-2,-1
1513487670990358,0,-1,-2,0,-1,-2,-1,-1
1513487670990358,-2,-1,-2,-2,0,-1,-1,-1
1513487670993360,0,-1,-1,1,-1,0,1,-2
1513487670993360,-2,-1,0,-2,-1,-1,-1,0
1513487671013360,-2,0,-1,-2,-2,-1,0,-1
1513487671013360,0,-3,-1,0,-2,-2,-1,-1
1513487671014366,0,-1,0,-1,1,-1,0,0
1513487671014366,0,-1,0,0,-1,-2,-1,-1
1513487671028380,-2,-2,-1,0,-2,-1,-1,-2
1513487671028380,-2,-1,0,-3,-1,-1,-1,-2
1513487671029371,-1,0,0,-1,0,0,-2,0
1513487671029371,-1,-2,-1,1,-1,-3,-2,-2
1513487671050395,-1,-2,-2,-2,-2,-1,-1,-2
1513487671050395,-1,-1,0,0,-2,0,0,0
1513487671052396,0,-1,-2,-1,-2,1,-2,-1
1513487671052396,-1,0,-1,-2,-1,-1,-1,-1
1513487671080426,-1,-2,-1,-1,-1,-1,-2,-2
1513487671080426,0,1,-2,-1,0,-2,0,-1
1513487671082414,-1,-1,0,-1,-1,-2,-1,-1
1513487671082414,0,-1,-1,-2,-1,1,0,1
1513487671087415,-2,-2,-2,0,0,-2,-3,-2
1513487671087415,-2,-1,0,-2,-1,0,-1,-1
1513487671089413,0,-1,-2,-1,-2,-2,0,1
1513487671089413,-1,-2,-1,-1,-1,-2,0,1
1513487671110450,-3,-1,-1,0,0,-1,1,-1
1513487671110450,-1,-1,-1,-1,0,-1,-1,-1
1513487671112445,2,1,-1,0,-2,0,-3,-1
1513487671112445,0,-1,-1,-2,-1,-1,-1,-2
1513487671132443,-2,0,-2,0,-1,1,-4,-1
1513487671132443,-1,-2,-1,0,-1,-2,-1,-1
1513487671135445,-1,-2,-2,0,-1,-3,-1,-1
1513487671135445,-1,0,-2,-2,-2,-1,-2,0
1513487671147466,-1,-2,0,-1,1,0,-1,-1
1513487671147466,-1,-1,-2,-2,-1,-2,0,-1
1513487671154475,-1,-1,-2,1,-1,-1,-1,-2
1513487671154475,-1,-1,-1,-1,-1,-1,-2,-2
1513487671170549,-1,-2,-1,-2,-4,0,-1,0
1513487671170549,-2,-1,-1,-2,-2,-1,-1,2
1513487671171538,-1,1,-1,-2,0,-1,-1,-1
1513487671171538,0,-1,0,0,-2,0,-1,-4
1513487671200562,-2,0,-1,-1,0,-2,-1,-1
1513487671200562,1,-2,1,1,-2,-1,0,-3
1513487671201559,0,-2,-1,-1,-3,0,-1,0
1513487671201559,-2,-3,-2,-1,-2,-2,-2,1
1513487671207576,0,-2,-1,-3,-1,-3,-1,0
1513487671207576,-1,0,0,-1,-3,1,-1,-1
1513487671221583,0,-2,-1,-2,-1,-1,-1,0
1513487671221583,-2,-3,0,-1,-1,0,0,-1
1513487671230590,-1,-2,1,0,-1,1,-1,-1
1513487671230590,-2,-2,-7,-2,-2,-3,-2,1
1513487671231580,0,1,-1,-1,-1,-1,1,-2
1513487671231580,-1,-1,-2,-1,-2,-1,-1,-2
1513487671252606,-1,-1,-2,-2,-1,-1,-1,0
1513487671252606,-2,0,0,0,-2,1,1,-1
1513487671254598,-2,-1,-2,0,-2,0,-2,0
1513487671254598,-2,0,-1,-1,0,-1,-2,-2
1513487671267606,-4,-1,-2,0,-1,0,-1,-2
1513487671267606,1,-2,0,0,1,-1,0,-2
1513487671273624,-3,-1,1,-1,0,-1,0,0
1513487671273624,-1,-1,-2,-1,-2,-1,-2,-2
1513487671290632,0,-2,-2,-1,-1,-3,-1,0
1513487671290632,-1,0,-2,-2,-2,-1,0,-2
1513487671291624,-1,-1,0,-1,-1,-1,-1,-2
1513487671291624,-2,-3,-2,1,-1,-1,-1,0
1513487671312648,-1,-1,-1,-1,-2,-2,-2,0
1513487671312648,0,-1,0,0,-1,-2,-1,0
1513487671314650,-1,-2,-1,-2,-2,0,-1,-2
1513487671314650,-3,-2,-1,-2,-2,-1,-1,-1
1513487671326666,0,-2,-2,-1,0,-2,0,-3
1513487671326666,0,-1,0,0,-2,-1,-2,-2
1513487671333657,-2,0,1,-3,-1,-3,-2,0
1513487671333657,0,-2,-1,-1,-2,-3,0,-1
1513487671357674,-3,-1,-1,0,-2,-1,-1,0
1513487671357674,-1,-1,-3,0,0,-1,0,0
1513487671359675,-1,-1,0,1,-1,0,-1,0
1513487671359675,-2,-1,-2,0,0,-1,0,-1
1513487671371680,1,-1,-2,-1,-1,1,-2,0
1513487671371680,-1,0,0,-1,-1,-2,-1,-1
1513487671380685,-1,-1,-2,-1,-2,-3,0,-1
1513487671380685,0,-2,-2,-1,-1,0,-2,0
1513487671386690,-2,0,-5,-1,-2,-3,0,-1
1513487671386690,-2,1,0,-2,-2,-1,-3,-2
1513487671393704,2,-2,0,1,-1,-2,-2,-2
1513487671393704,0,-2,-2,1,0,0,-1,-2
1513487671409729,1,-2,0,-2,1,-2,-3,0
1513487671409729,-1,-1,-1,-4,-2,0,1,-1
1513487671417711,-3,0,-1,-1,0,-1,0,-1
1513487671417711,-1,-1,-1,-2,-2,-1,-3,-2
1513487671440740,0,-1,-2,0,-4,0,0,-1
1513487671440740,1,-1,0,0,0,-1,1,0
1513487671441729,-1,-1,0,-1,0,0,0,-2
1513487671441729,-2,-1,-1,-2,-1,-1,-1,0
1513487671446734,-1,-1,-1,-1,-1,1,-1,-1
1513487671446734,0,-2,0,-1,0,-2,0,-1
1513487671455770,0,0,-1,0,-3,-2,-2,-1
1513487671455770,-1,0,0,-2,1,-1,0,-3
1513487671470759,0,-3,-2,-1,-1,-2,-2,-3
1513487671470759,0,0,-1,1,-2,0,-1,-3
1513487671471752,-2,0,-1,0,0,0,-1,-1
1513487671471752,-1,0,-2,-1,0,-1,1,-1
1513487671492782,-2,-1,-2,-2,-2,-1,2,-1
1513487671492782,1,-2,0,-2,-1,-1,-1,0
1513487671494776,-1,-1,0,-2,-1,-2,-1,0
1513487671494776,-1,0,0,-1,-2,-1,-4,-1
1513487671515781,-2,-1,-1,-1,-1,0,-1,-3
1513487671515781,-1,1,-1,0,-1,-1,-1,-1
1513487671516783,0,-1,-3,1,-1,-1,-1,-1
1513487671516783,-1,-2,-2,0,0,-1,-1,-2
1513487671530791,-2,-1,-1,-2,1,-4,-2,-3
1513487671530791,-2,-1,-2,-2,-2,-3,-1,-2
1513487671531792,0,-3,0,-1,-2,-1,-1,-1
1513487671531792,-2,-1,-2,-2,-1,-2,-1,0
1513487671552808,1,-2,-1,-1,-1,0,-2,-1
1513487671552808,-1,0,-1,-1,1,-1,1,-1
1513487671554823,-1,-1,-1,-2,0,-2,-2,-1
1513487671554823,-2,-2,-1,-3,-1,-2,-1,1
1513487671566827,-1,0,-2,0,-1,-1,-1,0
1513487671566827,0,0,0,-2,-1,0,-2,1
1513487671575845,-1,-2,-2,-3,-1,0,1,0
1513487671575845,0,-2,-2,0,-2,-2,-1,-1
1513487671590834,-2,0,-1,-2,-1,-2,-2,-2
1513487671590834,-1,-2,-1,0,-3,0,-1,0
1513487671591835,-3,1,-2,-1,-2,-2,1,-2
1513487671591835,-2,-2,-2,0,-1,-1,-1,-2
1513487671612864,-2,-1,0,-1,-2,-2,-2,-1
1513487671612864,0,0,-1,-1,-1,-2,0,-1
1513487671614851,-1,1,-2,-2,-1,0,-1,0
1513487671614851,-1,-3,0,-3,0,0,-1,0
1513487671626911,0,-1,-2,-1,-2,0,-1,0
1513487671626911,0,-2,-2,-1,-1,-1,-2,-1
1513487671635875,0,-3,-1,-1,-2,-1,-1,-1
1513487671635875,-1,-1,-3,-1,-1,-2,-1,-1
1513487671649885,-1,-2,-1,-1,-1,0,-1,-2
1513487671649885,-1,-2,0,0,-1,1,-1,-1
1513487671651882,-3,-1,-2,-1,-3,-2,-1,0
1513487671651882,0,-3,0,-3,-2,-2,-2,0
1513487671672893,-1,-1,-3,-1,1,-1,1,-1
1513487671672893,-1,-1,0,-2,-2,-2,-1,-1
1513487671674900,0,-2,-1,-1,0,0,0,-1
1513487671674900,-1,1,-1,0,-2,-2,-3,-2
1513487671686901,-1,-3,-1,0,-1,-2,-1,-2
1513487671686901,-1,1,0,-1,-1,-3,-1,-1
1513487671695919,-1,-2,0,-1,-1,-2,-2,-1
1513487671695919,-2,-1,-2,-2,-1,0,-1,-1
1513487671709974,-1,-3,-3,-3,0,0,-1,-1
1513487671709974,-3,-2,-1,0,-3,-1,-1,-2
1513487671711943,0,0,0,-1,0,-2,-2,-2
1513487671711943,-1,0,-1,-1,0,-2,-1,0
1513487671732957,-1,-2,0,-1,0,-1,-1,0
1513487671732957,-2,-1,1,-1,0,0,0,-1
1513487671734945,0,-1,0,-1,-2,0,0,-1
1513487671734945,-2,-1,-2,0,-2,-3,0,-4
1513487671746944,0,1,-1,-1,-1,-2,-2,-1
1513487671746944,-2,1,-2,-2,-2,-1,-1,1
1513487671755954,0,-3,-2,0,-1,-1,-4,-1
1513487671755954,-2,-1,-1,0,0,-1,-4,-2
1513487671769983,0,-2,0,-1,-2,-1,0,-2
1513487671769983,-1,-2,-2,0,-1,-1,2,0
1513487671771964,0,0,-3,-2,1,0,0,-2
1513487671771964,-1,-1,-1,-1,-1,0,1,0
1513487671792978,0,-1,-1,-1,-2,-3,-2,-2
1513487671792978,-1,0,0,0,-2,-1,-2,-2
1513487671793978,-1,1,0,1,-2,-1,-1,-2
1513487671793978,1,-2,-2,-1,-1,-1,-2,-1
1513487671806988,-1,-1,0,-1,-2,0,1,-1
1513487671806988,-1,-2,0,-1,-1,-1,-2,-1
1513487671815005,-1,-1,-1,-2,-2,0,0,0
1513487671815005,-4,0,0,-1,-1,0,-2,0
1513487671830019,0,0,-2,-1,-2,0,-2,1
1513487671830019,0,0,-1,-2,0,-2,-1,0
1513487671832017,-2,0,-2,0,-2,-2,0,0
1513487671832017,-1,-3,-1,-2,-1,-2,-1,-1
1513487671853019,-2,-1,-2,0,-1,0,0,0
1513487671853019,0,-2,1,0,0,1,0,-1
1513487671854020,-1,1,-1,-2,1,0,-2,-1
1513487671854020,-2,-1,-1,0,-2,0,1,-2
1513487671867060,-2,-1,-1,-2,-2,-3,0,0
1513487671867060,1,-1,-1,-2,-1,-1,-1,-2
1513487671875075,-1,0,-2,-1,-1,-1,0,0
1513487671875075,-2,-3,-1,1,1,-1,0,-1
1513487671891076,-2,-1,-1,-1,-1,-2,-2,-1
1513487671891076,-1,-1,0,-1,-1,0,0,0
1513487671893092,2,-2,-1,-1,0,-1,0,0
1513487671893092,-1,-1,-2,-2,-1,0,-2,0
1513487671913104,-2,0,-2,-1,-2,-1,-2,-3
1513487671913104,0,0,-2,-2,-2,-1,-1,0
1513487671915093,-1,0,-1,0,-3,-1,-1,-3
1513487671915093,-2,-1,-3,-3,-1,-2,-2,-1
1513487671935129,0,-1,-2,0,-1,-1,-2,-2
1513487671935129,-3,1,-1,-1,-3,-1,-2,-1
1513487671937109,-2,-2,0,-2,-1,-2,-1,-2
1513487671937109,-1,-1,-2,-1,-1,-1,1,-2
1513487671950140,-4,-1,-1,-1,1,1,0,-1
1513487671950140,-1,0,-1,-1,-2,-1,-1,0
1513487671956144,1,0,0,-2,-1,-2,-1,0
1513487671956144,1,-2,-1,-2,0,-1,-1,1
1513487671973150,0,-2,-1,-1,-1,-3,-2,1
1513487671973150,-1,-2,-2,0,-1,0,1,0
1513487671974135,-2,-1,0,0,-2,1,0,-2
1513487671974135,-1,-1,0,-1,0,1,-3,-1
1513487671995167,0,0,-2,-1,-1,-1,0,-1
1513487671995167,-1,-1,-2,-1,-1,-2,-2,0
1513487671997151,-1,-1,-2,-2,-1,-2,0,-2
1513487671997151,0,-3,-2,-2,-1,-1,1,-2
1513487672010196,-2,-1,-1,0,-1,-1,-2,-2
1513487672010196,1,-1,-1,0,-1,0,2,0
1513487672012163,-3,1,0,-2,-4,1,-1,-1
1513487672012163,-1,0,-1,0,0,-2,-3,-1
1513487672033190,-1,-2,-1,-1,-2,-2,0,-1
1513487672033190,-2,-1,-1,-1,0,-1,-1,-1
1513487672034177,-1,-1,1,1,-1,-1,-3,1
1513487672034177,-2,-2,-2,0,-1,-2,-2,-2
1513487672055191,-1,-2,0,1,-1,0,-2,0
1513487672055191,0,0,-1,0,-1,0,0,1
1513487672057194,-1,0,-2,-1,0,-1,-1,-1
1513487672057194,0,-1,-2,-1,-2,-2,-2,-3
1513487672069214,-3,0,-2,-1,-2,-1,-1,-2
1513487672069214,-1,0,-1,-3,-1,-2,-3,-1
1513487672076229,0,-2,-1,0,0,-2,0,-1
1513487672076229,-2,-1,-1,0,-2,-2,-1,-1
1513487672093239,0,-5,0,-1,-1,1,0,0
1513487672093239,0,0,1,-1,0,0,-1,-1
1513487672094220,-3,-1,0,-2,-2,-2,-2,-2
1513487672094220,-1,-2,-1,0,-1,-2,-2,-2
1513487672115244,1,-1,1,0,-1,-1,0,-1
1513487672115244,-1,0,-1,-1,-1,-1,0,-1
1513487672117245,0,-1,-1,0,0,1,-1,0
1513487672117245,-2,0,-2,-2,0,1,-1,-3
1513487672129256,-2,-2,-2,-1,-1,-2,-3,-1
1513487672129256,0,-2,-1,0,-2,-1,1,-1
1513487672136249,1,-1,-2,-3,-2,0,-2,-1
1513487672136249,-2,-1,-2,0,-1,-1,-1,0
1513487672152261,-2,-1,0,-1,0,-1,0,0
1513487672152261,-2,2,1,-1,-2,-2,-1,-1
1513487672154262,-2,-2,0,-1,-1,1,0,-2
1513487672154262,1,-1,-1,0,-2,-2,0,-2
1513487672175295,0,0,-3,-1,-1,-2,-1,0
1513487672175295,0,-2,-3,-2,-1,-2,-2,-1
1513487672177297,-1,-1,0,-1,-2,-2,0,-2
1513487672177297,0,0,0,-2,-2,0,-1,-1
1513487672189288,0,0,-1,-1,0,0,0,-1
1513487672189288,-1,0,-2,1,-2,0,-1,1
1513487672196301,0,-1,-1,-1,-1,-2,1,1
1513487672196301,-2,-2,-2,-3,-1,-1,-4,0
1513487672213303,1,-1,-1,-1,-2,-2,-1,0
1513487672213303,-2,0,0,-2,0,-1,-1,-1
1513487672214305,-1,0,-2,0,-1,0,1,-1
1513487672214305,-2,-1,-1,-1,-2,-2,-3,-1
1513487672235319,-2,-1,-2,-1,0,-2,1,-1
1513487672235319,-2,-2,0,-1,-1,-1,-3,0
1513487672237341,-1,0,-1,-1,-2,1,-1,-1
1513487672237341,-2,-2,-2,-2,0,-2,-2,-1
1513487672249349,0,-1,0,-2,-3,-1,-2,0
1513487672249349,-1,-1,0,-1,-1,0,-1,-1
1513487672256354,1,0,-1,-2,-2,0,-1,-2
1513487672256354,-1,0,-1,0,0,1,-1,1
1513487672272358,-1,-1,-1,-1,0,-2,-1,-2
1513487672272358,-1,-2,0,-2,-1,0,0,0
1513487672274347,0,-1,-1,-1,-1,-1,-1,-1
1513487672274347,-1,-3,-1,0,0,-1,-2,-2
1513487672295374,-2,-2,-3,1,0,-2,-2,-1
1513487672295374,-2,-1,-2,0,-2,-2,0,-4
1513487672297372,-3,-1,-1,-2,0,-1,-2,-1
1513487672297372,0,-1,-1,-1,0,-1,-1,-2
1513487672309375,-1,-1,-1,0,-2,-1,-2,1
1513487672309375,0,-1,0,0,0,0,-1,-2
1513487672324419,-1,0,-2,-1,-2,-3,-2,-1
1513487672324419,-1,-3,-3,0,0,-1,0,-1
1513487672332406,0,-2,0,-2,0,0,-1,-1
1513487672332406,1,0,-1,-1,-2,-1,-1,-1
1513487672334406,-2,-1,0,0,-1,0,-2,-1
1513487672334406,-1,-2,0,-2,-2,-1,-1,-2
1513487672355418,-2,-1,0,-3,-1,-1,-1,-5
1513487672355418,-1,-1,-3,-3,-2,0,-2,0
1513487672356418,-2,-1,0,0,-2,-1,-2,-1
1513487672356418,-1,0,-1,0,-3,-1,-1,0
1513487672369427,-2,-1,-3,-3,-1,-1,-2,-3
1513487672369427,0,-1,0,-1,-1,-2,0,-2
1513487672376419,0,-2,-1,-1,-1,-3,0,-3
1513487672376419,-1,-1,-1,-1,-1,-2,-1,-1
1513487672393431,-2,-1,0,-1,-2,-1,-2,1
1513487672393431,0,0,-1,-1,-1,0,0,-1
1513487672395476,-2,-1,-2,-1,-1,-2,0,1
1513487672395476,0,-1,-1,0,-1,-1,-1,-1
1513487672422490,0,-1,-2,0,-3,-2,-2,-2
1513487672422490,-1,-2,0,0,-2,-1,1,0
1513487672424466,-2,-2,-1,0,-1,-1,-1,0
1513487672424466,-1,0,-2,-1,1,-2,-1,-1
1513487672429457,-2,0,-2,0,1,0,-1,-2
1513487672429457,-1,-1,0,-1,0,-1,-2,-1
1513487672437482,0,-1,-2,-1,-1,0,-2,-1
1513487672437482,-1,-4,-1,0,-3,0,-2,0
1513487672452473,1,-2,-1,0,-1,-1,-3,-1
1513487672452473,0,-1,-1,0,-3,-3,-1,1
1513487672454484,-1,-1,-1,-2,0,-1,-3,1
1513487672454484,-2,0,-1,-3,-1,0,0,-2
1513487672475505,-1,-2,-1,-1,-1,-2,0,0
1513487672475505,-2,0,-1,-1,-3,1,1,-2
1513487672476517,2,-1,0,-1,-2,-1,-2,-2
1513487672476517,0,-2,-2,-2,-1,-1,-1,-1
1513487672488513,-1,-1,-1,-2,-1,-1,-2,-1
1513487672488513,-2,0,0,-1,0,-1,-2,-2
1513487672497519,-3,0,0,-1,0,0,0,-1
1513487672497519,-3,-2,-1,-1,-1,-2,-2,-1
1513487672512529,0,-1,-1,0,-1,-1,-1,0
1513487672512529,0,0,-1,-1,0,-4,0,0
1513487672514533,0,-2,-2,-1,0,0,-2,-2
1513487672514533,-2,-3,0,-3,0,0,-1,-3
1513487672535532,-2,-1,-1,-1,-2,-1,-2,-1
1513487672535532,-1,-2,0,-2,0,0,1,1
1513487672541550,-1,-1,-1,-2,-2,-1,-1,-2
1513487672541550,-1,-1,-2,-1,-1,-3,-2,0
1513487672557561,-1,0,-3,-1,-1,-2,-3,0
1513487672557561,0,0,0,-2,0,1,0,-3
1513487672559558,0,-1,-1,-2,-1,0,0,-2
1513487672559558,0,0,-1,-1,-1,0,-2,-2
1513487672572558,0,-1,-1,-2,-2,-1,-1,1
1513487672572558,1,0,-2,0,-2,-1,-2,0
1513487672574559,0,-1,0,-1,-1,-1,-1,-1
1513487672574559,-2,-3,-2,-2,1,1,-1,0
1513487672595586,0,-2,0,-1,-1,-2,0,-1
1513487672595586,-2,-2,-1,-2,-3,-2,0,0
1513487672596575,-1,-1,-1,-3,-1,-1,-2,0
1513487672596575,0,-1,0,0,-2,-3,-3,-1
1513487672608600,0,0,-1,-1,-2,0,-1,1
1513487672608600,-1,-1,-1,-1,-1,0,-1,-1
1513487672617589,-1,-1,0,-1,0,-2,-1,-2
1513487672617589,-3,-1,-1,-2,-1,-1,-1,-2
1513487672632612,1,0,-2,-2,0,-1,-1,-1
1513487672632612,-1,-1,-1,-1,0,0,-2,0
1513487672634602,2,-2,-1,-1,-1,-1,1,0
1513487672634602,0,0,-1,-3,-1,-4,0,-2
1513487672655626,-2,-1,-1,-2,-2,1,-1,-3
1513487672655626,0,0,-1,-1,-1,-1,-1,0
1513487672656627,-2,-1,-3,-2,-2,-1,-2,-2
1513487672656627,-2,0,-1,0,-1,0,-2,1
1513487672668626,-3,0,-3,1,-3,-1,1,-2
1513487672668626,-1,0,-2,-1,-1,-2,-3,-2
1513487672677647,-2,-1,0,-2,-2,1,0,0
1513487672677647,0,0,-1,-2,-2,-2,0,-1
1513487672692665,-1,-1,-1,0,0,-1,0,1
1513487672692665,-1,1,1,-1,-2,-3,0,0
1513487672694644,-1,0,-3,-1,0,-2,-1,0
1513487672694644,0,-2,-1,-2,-1,0,-3,-3
1513487672715669,-1,-3,1,-2,0,-2,0,-2
1513487672715669,-1,-2,-1,0,-1,-1,1,0
1513487672716659,-1,-1,-1,0,0,-1,0,1
1513487672716659,-1,-3,-1,-2,-3,-1,-3,0
1513487672728683,0,-1,-1,-2,-2,0,-2,-3
1513487672728683,0,-3,-1,-1,-2,0,1,0
1513487672745692,-1,1,0,-1,-1,-1,0,-2
1513487672745692,1,-1,-2,-1,-1,-1,1,-1
1513487672752696,0,-3,0,0,0,-1,-2,-1
1513487672752696,-1,-1,-1,-1,-2,-1,-2,-3
1513487672754707,-3,-1,-1,-2,-1,-1,-2,-2
1513487672754707,-3,-1,-2,1,0,-1,1,-1
1513487672775769,-1,0,-1,-3,-2,-3,-1,0
1513487672775769,-1,-1,-2,1,-2,0,-1,-2
1513487672776748,0,-1,-1,-2,-1,-2,-1,0
1513487672776748,-1,-2,-1,-1,-1,-3,-2,-1
1513487672788767,-1,-3,-1,-1,1,-1,0,-1
1513487672788767,-1,-1,-1,-1,-2,0,-2,-1
1513487672797764,-1,-1,-1,0,-1,-1,-1,-2
1513487672797764,-1,-2,-1,-2,-1,-1,-2,1
1513487672812786,-1,1,-2,-1,-2,-2,-2,-3
1513487672812786,1,3,0,-2,-1,-1,0,-1
1513487672818782,-1,-2,-1,0,-1,-1,-1,0
1513487672818782,-3,-3,-2,-1,0,-2,0,-2
1513487672835792,-2,-1,-1,0,-2,0,1,0
1513487672835792,0,0,0,-1,0,-1,0,0
1513487672836793,-1,-2,-1,0,-3,0,-1,-1
1513487672836793,0,-1,1,-1,0,-1,-2,0
1513487672857835,-2,-1,-3,1,-1,-1,0,0
1513487672857835,-1,-3,0,-1,-2,-2,0,-1
1513487672859813,2,-1,-2,-2,0,-1,-2,0
1513487672859813,-2,-3,-2,-2,-2,0,-1,-2
1513487672872817,0,2,-1,0,0,-1,-1,-1
1513487672872817,-1,0,-1,0,-1,-1,0,0
1513487672874819,-1,-2,0,-1,-2,-2,1,-1
1513487672874819,-2,0,-1,0,0,0,0,-3
1513487672894833,-1,-2,-1,-2,-1,-1,-4,-3
1513487672894833,-1,0,-1,-2,-1,-1,-1,0
1513487672902839,0,0,-1,-1,0,0,-2,-1
1513487672902839,-1,-1,0,-2,-2,-1,-1,-1
1513487672917849,1,-1,0,-1,-1,0,1,0
1513487672917849,-2,-1,0,-1,-1,0,0,-1
1513487672919851,-2,0,-3,-1,-2,-1,-1,-1
1513487672919851,0,-1,-3,-1,-2,-3,-1,0
1513487672932874,-1,-1,-2,-1,-2,-1,0,-2
