timestamp,emg1,emg2,emg3,emg4,emg5,emg6,emg7,emg8
1514959784194368,0,-1,-1,-1,-1,-3,3,0
1514959784194368,-2,1,-1,-2,-2,-2,-3,-1
1514959784195367,3,1,-2,-2,1,1,-3,-3
1514959784195367,-2,1,-2,0,-2,0,1,-2
1514959784201370,-1,-1,-1,0,0,0,-3,2
1514959784201370,-2,-2,-1,0,0,0,1,-2
1514959784202371,-1,0,-1,-1,-1,-2,-3,-2
1514959784202371,-2,-2,-2,0,0,-2,0,-2
1514959784223385,0,0,-2,-1,-2,-1,-1,1
1514959784223385,0,-3,-1,-1,0,-2,-1,-2
1514959784224387,-1,-1,-2,0,-2,-1,-1,-2
1514959784224387,-2,0,-1,-1,0,1,1,1
1514959784248403,0,-3,-2,0,-1,0,-3,-3
1514959784248403,-2,-1,-2,-1,-2,-1,-1,0
1514959784249404,-1,0,-2,-1,-3,-4,-1,-1
1514959784249404,-1,-2,-2,0,-3,-2,-3,-1
1514959784261413,0,-1,-1,-1,0,0,-1,-2
1514959784261413,-1,-1,-1,-2,-2,0,0,0
1514959784261413,-1,-1,-1,1,-3,-3,-1,2
1514959784261413,-1,-1,1,-1,-2,-2,-1,-2
1514959784283487,1,-1,-1,0,0,-2,-1,0
1514959784283487,1,-1,0,0,-1,-1,1,-2
1514959784284431,-3,1,-2,-2,0,1,0,0
1514959784284431,-1,-1,-1,-2,0,-2,-1,0
1514959784307452,-3,-2,0,-3,-1,-2,-1,0
1514959784307452,1,0,-2,-1,-1,-2,-4,-1
1514959784307452,-2,-1,1,-1,1,-3,-1,-1
1514959784307452,-2,-1,-2,-2,-1,-1,-3,-1
1514959784321462,1,0,2,1,-1,-1,-2,0
1514959784321462,0,-1,0,0,-2,-3,-1,-1
1514959784321462,0,0,-2,-2,-2,0,-1,-2
1514959784321462,-2,0,-1,0,0,-1,-1,-1
1514959784343470,-1,-1,-1,-1,-1,0,-3,-3
1514959784343470,-1,0,0,0,0,0,-2,-3
1514959784344481,-2,-2,1,0,-2,1,-4,0
1514959784344481,0,-2,-1,-2,0,-2,0,-2
1514959784366541,1,-3,0,-2,1,-2,0,2
1514959784366541,-2,-1,-2,-1,-2,-1,-2,-1
1514959784367500,1,-1,-2,-1,0,-2,0,-2
1514959784367500,-1,-1,-2,0,-2,1,-2,-3
1514959784381498,-1,-2,-1,-1,0,0,-2,1
1514959784381498,-2,-2,-2,-4,0,0,1,-1
1514959784381498,-1,-1,-2,-1,-1,1,-1,-1
1514959784381498,0,0,0,-3,0,-1,-2,0
1514959784403512,-2,-1,-2,0,-3,-1,-1,0
1514959784403512,-2,-1,-1,-1,1,-1,-2,1
1514959784404516,-2,-3,-1,-1,-1,-1,0,-1
1514959784404516,-1,-1,-2,0,-3,-3,-2,0
1514959784427530,2,1,-1,-1,-1,-1,-1,0
1514959784427530,0,-2,-1,-1,-3,-1,-3,-2
1514959784428540,-3,-1,0,-1,1,0,-1,-2
1514959784428540,0,-3,1,0,-1,-1,1,-2
1514959784440539,-2,-1,-1,-3,-1,0,1,0
1514959784440539,-3,-1,-3,-1,0,-1,0,0
1514959784441540,0,-1,-2,-2,-1,-1,-2,-1
1514959784441540,1,-2,-2,-2,-2,0,-1,2
1514959784463612,0,-1,1,-1,0,0,-3,-2
1514959784463612,-4,-2,0,0,-2,-2,1,-2
1514959784464557,-4,0,-2,0,0,-3,0,-2
1514959784464557,-1,0,-2,0,-2,0,-1,2
1514959784486584,0,-1,-3,-3,-3,-2,-2,1
1514959784486584,1,0,-2,-2,-2,-1,0,-1
1514959784487573,0,-1,-3,-2,-1,-1,0,-1
1514959784487573,-2,0,-1,-1,0,-2,-1,1
1514959784500604,-3,-1,-1,0,-1,0,0,-2
1514959784500604,3,-2,0,-1,-2,-2,-2,-2
1514959784501583,1,-1,-1,0,0,-1,0,-2
1514959784501583,1,-1,-3,0,-1,0,-2,-4
1514959784523663,-1,-3,-1,0,-2,-2,0,0
1514959784523663,-1,-2,0,-1,-1,-3,-2,-2
1514959784524666,0,-2,-1,-3,-2,0,0,-1
1514959784524666,-2,-2,-2,-1,0,-3,-1,-1
1514959784546661,-1,1,-4,-3,0,-2,-3,-1
1514959784546661,0,0,1,1,-1,0,-1,-2
1514959784547660,-2,1,-2,-1,-1,0,0,0
1514959784547660,0,-1,0,-1,-2,-1,-1,-2
1514959784560671,0,-1,-1,-1,-2,0,0,-2
1514959784560671,-3,-1,-4,-2,0,-1,1,1
1514959784561669,-2,-2,-1,0,-1,-1,-1,-2
1514959784561669,-1,-2,-2,0,0,-2,0,0
1514959784583736,1,0,-1,-2,0,0,-2,0
1514959784583736,-1,2,0,-2,0,-1,-1,-2
1514959784584721,1,-1,-1,-1,-2,-3,0,-3
1514959784584721,-2,-1,-2,-1,-1,0,-1,0
1514959784606747,1,-2,0,1,-1,-1,1,0
1514959784606747,0,-2,-1,0,-3,-1,-1,1
1514959784607734,-2,-3,-1,-2,0,-3,0,-1
1514959784607734,-4,0,-1,-1,-1,0,-4,-3
1514959784620747,-1,-1,-2,-1,-1,-2,1,0
1514959784620747,-1,-2,0,0,-1,-1,-1,1
1514959784621750,1,-1,-1,0,-1,-1,-2,1
1514959784621750,-1,-1,-1,-2,-2,0,0,-3
1514959784643789,-1,-1,-2,-1,0,0,0,0
1514959784643789,-3,-1,0,-1,-1,-2,0,-1
1514959784644762,1,-2,-1,-2,-1,0,1,1
1514959784644762,-2,0,-2,-3,-2,-4,-1,0
1514959784667799,-2,0,0,-1,-2,-2,-1,-2
1514959784667799,-1,-2,-1,-2,-1,-1,-1,-3
1514959784667799,-1,-1,-1,1,-1,-1,-2,-4
1514959784667799,1,-4,0,1,-2,0,-3,0
1514959784680791,-3,1,1,-2,-2,1,0,0
1514959784680791,-2,-2,-4,0,-1,0,0,-3
1514959784681791,1,1,0,-2,-3,-2,-4,-1
1514959784681791,-1,-1,-3,0,2,-1,0,0
1514959784703823,-1,-1,-2,-1,-1,-1,0,-1
1514959784703823,-1,-1,0,-1,-1,0,0,1
1514959784704804,-2,-2,-1,-1,-1,-1,-1,-1
1514959784704804,-2,-1,-1,0,1,0,1,-2
1514959784726819,1,0,-2,0,0,-1,-2,0
1514959784726819,-1,-2,-1,-3,0,0,1,-2
1514959784727820,-3,0,0,0,-1,-2,2,0
1514959784727820,0,-1,0,-3,0,-2,-1,1
1514959784740849,-1,-4,-1,0,-1,0,-1,-1
1514959784740849,-2,-1,-1,-1,-1,0,-4,-4
1514959784748856,-2,-3,-1,0,-1,0,0,0
1514959784748856,1,-1,-2,-1,-2,0,-2,-1
1514959784763863,0,-1,-1,0,-2,-2,-1,1
1514959784763863,1,0,-1,-1,-1,-2,0,0
1514959784770850,2,-2,0,-1,-1,0,-2,-2
1514959784770850,-1,0,-2,-1,-1,-1,-2,-2
1514959784786865,0,-1,0,-1,0,1,-2,-2
1514959784786865,0,0,-1,0,0,-1,-1,2
1514959784787865,-4,-1,-3,-3,0,-1,-1,-1
1514959784787865,1,0,-2,1,-1,-1,2,1
1514959784800871,1,-1,-1,0,0,-1,-1,-2
1514959784800871,0,-3,-1,0,0,0,-1,1
1514959784808878,-1,-1,-1,-1,0,-2,-2,-4
1514959784808878,-1,-2,0,-2,-2,-2,0,0
1514959784823887,-3,0,-1,0,-1,-3,-2,1
1514959784823887,-1,0,-2,-1,1,-2,-3,-1
1514959784823887,-3,0,-2,-1,0,-1,-2,-2
1514959784823887,-3,-1,-1,-1,-1,-2,-2,-4
1514959784846919,-1,-1,-1,-2,-2,0,-1,-4
1514959784846919,-1,0,1,-1,-2,-1,0,1
1514959784846919,-2,-1,-1,0,-3,-2,-3,0
1514959784846919,0,-2,-1,-2,-1,0,0,1
1514959784860913,-1,-1,-3,-3,-1,0,1,2
1514959784860913,-2,-2,-2,0,-2,-3,-1,-1
1514959784868935,0,0,-1,0,-2,-3,-2,-3
1514959784868935,-1,-1,0,0,-3,0,0,-2
1514959784883932,-3,-2,1,-1,-1,-1,-1,-4
1514959784883932,-2,0,-1,-1,-1,0,-1,-1
1514959784883932,1,-1,-2,0,-1,-2,0,-2
1514959784883932,-1,-1,-2,0,-1,-1,-1,-1
1514959784906945,0,-1,-1,-1,0,-3,-1,1
1514959784906945,2,-2,-1,-2,0,-1,-3,1
1514959784907948,-1,-1,-2,-2,-2,0,0,-2
1514959784907948,-1,-1,-1,-1,1,-1,0,-1
1514959784919955,-1,1,-1,-2,-2,-1,0,-1
1514959784919955,0,0,-2,-1,-2,0,1,1
1514959784928961,-1,-1,-1,-1,-2,-2,-1,-2
1514959784928961,-1,-2,0,-1,-1,-1,-2,-2
1514959784943985,-1,-1,-3,1,0,-1,0,-1
1514959784943985,-1,0,0,-2,0,0,-1,0
1514959784943985,0,-2,2,-1,-1,-1,-2,1
1514959784943985,-2,0,0,-1,-1,0,-1,-1
1514959784967009,-3,-1,-1,0,-3,-1,-3,-1
1514959784967009,-2,-3,1,-2,0,0,-1,-1
1514959784967988,-2,-1,-1,-1,0,0,0,-1
1514959784967988,0,-2,1,-2,0,-1,-1,-4
1514959784980040,0,-1,0,0,-1,1,-2,-1
1514959784980040,-1,-2,-2,0,-1,-2,-2,-1
1514959784988045,-2,-2,0,-1,-1,0,2,-1
1514959784988045,1,-3,-2,-1,-1,-1,-2,-1
1514959785003074,-3,1,-1,-2,0,0,-3,-3
1514959785003074,0,-2,-2,0,-2,-2,1,-1
1514959785004056,-3,1,-3,-1,-1,0,-1,2
1514959785004056,-2,-2,-2,0,-1,-2,-2,-2
1514959785027086,1,-4,-2,-2,-2,0,1,1
1514959785027086,0,-1,-1,0,-2,0,-4,-1
1514959785028074,-3,-2,-1,-2,-1,-2,-1,-1
1514959785028074,1,0,-1,0,0,0,2,-2
1514959785040102,-1,-1,-1,-2,-1,-2,-1,-5
1514959785040102,-1,-1,-1,-1,-3,0,0,-2
1514959785048089,2,1,-1,-1,0,-1,2,1
1514959785048089,0,0,-2,-2,-1,-4,-4,-2
1514959785064123,-1,-1,-3,-2,-1,-4,-2,0
1514959785064123,-4,-2,1,-1,-2,2,-2,-1
1514959785064123,-2,-1,-1,-1,-1,0,0,1
1514959785064123,-1,-1,-1,0,-1,1,-1,-1
1514959785087130,-2,1,-2,0,0,-2,1,-2
1514959785087130,1,0,0,-3,0,0,-2,-2
1514959785087130,-1,-2,-1,-1,-2,-1,-2,-1
1514959785087130,-1,-1,0,-1,-1,-1,0,0
1514959785109142,-2,-1,-2,0,-1,0,0,0
1514959785109142,-1,2,-1,-2,1,-1,3,1
1514959785110131,2,-2,0,-1,-2,-1,0,-4
1514959785110131,-3,-2,-2,0,-1,-3,-1,-1
1514959785123199,-1,-1,-1,0,-2,-2,-3,2
1514959785123199,0,-1,-1,-1,0,-4,-1,-2
1514959785124158,-1,0,-1,-2,0,0,0,1
1514959785124158,-1,-3,0,-1,1,-1,1,-1
1514959785147232,0,-2,-1,-2,0,-1,-1,0
1514959785147232,-1,1,0,0,-1,0,-3,0
1514959785147232,-1,0,0,-1,-3,1,-3,-1
1514959785147232,-1,-1,-1,-1,-1,-1,-3,0
1514959785169174,-1,-2,0,-1,-1,-1,0,-1
1514959785169174,-2,-1,0,-1,0,-3,0,-1
1514959785170180,-1,-2,-1,-3,-1,-2,-1,-2
1514959785170180,1,-1,-2,-1,0,0,0,-1
1514959785183185,1,0,0,-1,-2,0,-1,-2
1514959785183185,-2,-4,-2,-2,-2,-1,0,1
1514959785184184,-1,-1,-1,1,-2,-1,0,-3
1514959785184184,-3,0,-2,-2,-2,-2,-1,1
1514959785207222,-1,-1,-1,-1,0,0,-3,-3
1514959785207222,1,-1,-1,-1,-2,0,-3,-1
1514959785207222,0,-2,-1,-1,-1,-1,0,0
1514959785207222,1,-4,-1,-1,-2,-1,0,-1
1514959785229235,0,1,0,-1,-2,0,-1,-1
1514959785229235,-2,-2,-2,-1,-1,-1,0,-1
1514959785230220,0,-1,-1,0,0,-2,-4,-2
1514959785230220,0,2,-1,0,-1,1,0,-1
1514959785243246,-3,-2,0,0,-1,0,0,0
1514959785243246,0,-1,-1,-2,-2,-2,-2,0
1514959785244227,-1,-1,-1,-2,-1,0,1,-1
1514959785244227,-1,1,-1,-1,0,-1,-2,0
1514959785267243,0,-1,-2,-2,-2,-2,0,1
1514959785267243,1,-1,-1,1,-2,-1,-1,-2
1514959785267243,0,-2,-3,-1,0,0,0,-1
1514959785267243,0,-1,0,-1,-2,-1,-3,-1
1514959785289273,0,-1,0,-1,-2,0,-2,0
1514959785289273,-3,0,0,-1,-1,-1,0,0
1514959785291274,-1,0,-2,-2,-2,-2,0,-1
1514959785291274,0,-1,-2,0,-2,0,2,-2
1514959785303279,0,-1,-1,0,0,-2,0,0
1514959785303279,-1,-2,-2,0,-1,0,-1,-3
1514959785312276,0,-2,-1,-1,-1,0,-3,1
1514959785312276,-3,-1,-2,-3,-2,-1,0,-2
1514959785327285,-1,-3,-3,-2,0,-2,-2,1
1514959785327285,-3,-1,0,-1,-1,-1,-2,2
1514959785329287,-1,-1,-1,0,0,-2,0,1
1514959785329287,0,-1,-4,-1,-2,0,-2,1
1514959785349315,-2,0,0,-1,-1,0,-3,-2
1514959785349315,0,-1,-2,0,-1,1,1,0
1514959785350311,-3,-2,-1,-1,-1,0,1,-2
1514959785350311,-1,-1,0,-1,0,-1,-2,-2
1514959785363325,-1,0,-1,0,-1,0,-2,-1
1514959785363325,1,0,-2,-2,-2,0,-3,-1
1514959785372328,-2,-1,0,-1,-4,-1,0,0
1514959785372328,-3,-1,0,-2,-1,-2,-2,-2
1514959785386328,-3,-1,-4,0,0,-2,0,-1
1514959785386328,0,-1,-1,0,0,-1,-1,1
1514959785388328,-2,0,-2,-1,-1,-3,-1,-2
1514959785388328,-1,-1,-2,-2,-2,0,-2,-1
1514959785409360,-3,-2,-1,-2,-1,1,-1,-1
1514959785409360,0,0,0,-2,-1,-1,-1,-1
1514959785410347,-2,0,-1,0,-1,0,-2,-4
1514959785410347,-1,-1,1,1,-1,-3,1,-1
1514959785423438,-1,-1,0,-2,0,-1,-2,-3
1514959785423438,-1,0,-3,-2,0,-2,-1,0
1514959785430432,-1,-3,0,-1,-1,0,-2,2
1514959785430432,-1,-1,-1,-1,0,-2,2,-2
1514959785446443,2,-2,-1,-1,-2,-2,0,-1
1514959785446443,-2,-1,-1,-1,-1,-1,0,-1
1514959785448433,-1,0,-3,-2,0,0,-1,-3
1514959785448433,-1,-1,0,0,0,-1,-1,0
1514959785469458,-1,-2,-1,0,-1,-2,0,-1
1514959785469458,0,0,-1,-2,-1,-1,0,-3
1514959785470449,-3,-1,-2,-2,-3,-1,-1,-1
1514959785470449,-1,0,-2,-2,-1,0,-2,-1
1514959785483515,1,1,-2,-1,0,0,-2,-2
1514959785483515,0,-1,1,-1,-2,-2,-1,1
1514959785490463,0,1,-1,0,0,1,-1,-2
1514959785490463,-4,-1,1,-1,0,-1,0,-1
1514959785506491,2,-1,0,1,-3,0,0,2
1514959785506491,-3,-3,-1,-1,-1,0,-3,-3
1514959785508475,-2,0,-1,-1,-1,-3,1,-1
1514959785508475,0,-1,-1,-1,-2,0,0,-1
1514959785529519,-2,0,-2,-3,0,-2,-1,-1
1514959785529519,-2,-2,-1,-1,0,0,-1,1
1514959785530502,-1,-3,-2,-1,-1,-1,-1,-1
1514959785530502,0,0,-3,-2,-2,-1,-2,0
1514959785543530,-3,0,-2,0,-1,-3,1,-2
1514959785543530,-1,-1,-2,0,-1,-1,-1,0
1514959785550525,-1,-1,-2,-2,0,-2,0,-4
1514959785550525,0,-2,2,-1,-1,-1,0,3
1514959785566581,-1,-3,-1,-3,-2,-1,-2,0
1514959785566581,-1,0,-1,-2,-2,-1,0,-2
1514959785568518,0,-1,-1,-1,0,-1,-2,-1
1514959785568518,-1,-2,-1,-1,-2,0,-2,-4
1514959785589536,-2,-2,-1,-1,-2,-2,1,0
1514959785589536,-1,0,0,-2,-2,-1,0,0
1514959785590537,0,0,-1,-1,-1,0,-2,0
1514959785590537,-2,-2,-2,-1,-1,0,-2,-1
1514959785602545,0,0,-1,0,-1,0,-2,0
1514959785602545,0,-2,-1,-2,-1,0,0,-4
1514959785611567,1,-2,0,-1,-1,0,0,1
1514959785611567,-1,-2,-3,-2,0,-2,1,0
1514959785626570,-1,-2,-1,-2,0,-1,-2,-1
1514959785626570,-2,2,-1,-1,-1,-2,-2,1
1514959785629574,-2,-2,0,-3,-2,-1,-2,-2
1514959785629574,-2,-2,0,-1,-1,-1,-3,-3
1514959785649578,-2,-1,1,0,-2,-1,0,1
1514959785649578,2,0,-1,-3,-1,0,1,-2
1514959785650577,-5,-2,-2,0,-2,-3,0,-2
1514959785650577,-1,0,-3,-2,-2,1,-2,-4
1514959785662593,0,-2,-3,-1,-1,-1,-2,0
1514959785662593,-2,-3,0,0,0,-2,-1,2
1514959785671623,1,-1,1,-2,0,-3,1,-2
1514959785671623,-2,-1,0,-1,-2,-1,-3,-1
1514959785686609,-1,1,0,0,-1,0,0,1
1514959785686609,0,0,-1,0,-1,-2,0,-2
1514959785688604,-2,-1,-3,-1,-1,-1,-1,-2
1514959785688604,-3,-2,0,0,1,-1,0,-2
1514959785709619,-1,-1,1,-3,-2,-1,0,-1
1514959785709619,-2,-2,-2,0,0,-1,-2,0
1514959785710620,0,0,1,-1,-2,-2,0,-2
1514959785710620,-1,-1,-3,-1,-2,-3,1,-3
1514959785724642,0,-1,-1,-2,0,-1,-3,-1
1514959785724642,1,1,-1,1,-1,0,0,0
1514959785731633,-2,-2,-2,-3,-1,0,-1,-1
1514959785731633,-2,-2,-1,-2,-1,0,-1,-1
1514959785747645,-1,-2,-3,-1,-3,0,0,-3
1514959785747645,-2,-1,0,0,-1,-1,0,1
1514959785748645,-1,0,-1,0,-1,-1,-1,2
1514959785748645,2,0,0,0,-1,0,-2,0
1514959785769659,1,-2,0,-1,-1,1,0,-2
1514959785769659,0,0,-1,-1,-2,0,-1,-1
1514959785770660,-3,-1,-2,-1,-1,-1,-1,-2
1514959785770660,-2,-1,-1,-1,-1,1,0,-2
1514959785782672,-4,0,-1,-2,0,0,0,0
1514959785782672,0,-1,-1,-2,-2,-1,-2,-2
1514959785791694,1,0,-1,0,0,0,-1,-2
1514959785791694,-1,-2,-1,0,0,-2,-2,-2
1514959785806687,-1,1,-1,-1,-3,-1,-2,0
1514959785806687,-1,-2,0,-1,-1,0,-1,1
1514959785808688,-2,-2,-1,-1,-1,0,-1,1
1514959785808688,0,-3,-1,-2,-1,0,-1,-2
1514959785829703,-2,1,-3,-1,0,-1,-1,-3
1514959785829703,0,-1,-1,0,-1,0,0,-2
1514959785831704,1,-1,0,-1,-2,-2,0,-2
1514959785831704,-1,0,-2,-2,0,-2,0,-2
1514959785842713,-1,-3,0,-2,0,-1,-3,0
1514959785842713,-1,-2,-2,-3,-1,-2,-1,-2
1514959785851718,0,0,-1,1,-2,0,-2,0
1514959785851718,-1,1,-2,-1,0,0,0,0
1514959785866729,-3,-3,-1,0,0,-3,1,-2
1514959785866729,-1,-1,-1,-1,-1,-2,1,0
1514959785868730,-2,-2,-1,-3,-1,1,0,-2
1514959785868730,0,-2,-1,0,-3,0,-1,1
1514959785889746,0,-1,-1,-1,-1,-2,-1,-1
1514959785889746,-2,-1,-1,1,-1,-2,-2,-1
1514959785890748,-3,-2,-1,-1,0,0,-2,-2
1514959785890748,-3,-1,-2,0,-2,-2,-3,-1
1514959785902755,1,0,0,-2,-3,-1,1,0
1514959785902755,-2,-1,0,-1,-1,1,-1,-2
1514959785911764,0,-1,-4,-2,0,0,-2,1
1514959785911764,0,0,0,0,0,-2,-1,-2
1514959785926775,-2,1,0,-1,0,-2,-1,-2
1514959785926775,1,1,0,-2,0,-2,0,0
1514959785928772,-2,-1,0,-1,-1,0,-4,1
1514959785928772,-1,0,-2,0,1,-1,0,0
1514959785948786,-2,-2,-1,-1,1,0,-3,0
1514959785948786,2,-3,-1,-1,-1,-2,-2,2
1514959785950789,-1,-1,-1,-2,-1,0,1,-4
1514959785950789,1,0,-2,0,-2,0,-1,-3
1514959785962800,-2,0,0,1,-2,-2,-1,-1
1514959785962800,-1,-1,0,-1,-2,-1,-1,-1
1514959785971803,-1,0,-3,-1,-2,-3,0,-4
1514959785971803,-1,-1,-1,-1,0,0,-3,2
1514959785986815,1,-2,1,-2,-1,-2,-1,-1
1514959785986815,0,-2,0,-2,-1,-1,-2,-1
1514959785988818,-2,0,0,0,0,-1,0,1
1514959785988818,-1,-2,-2,-1,-3,1,1,0
1514959786009836,-2,0,-2,-1,-1,-1,-4,-1
1514959786009836,0,0,-2,-2,-1,-2,-1,0
1514959786010838,0,-3,-2,-1,-2,-2,2,-1
1514959786010838,0,-1,-2,-1,-3,-3,-2,-3
1514959786031845,1,-1,-2,0,-1,0,-1,1
1514959786031845,-1,-2,-1,0,-2,0,-1,0
1514959786033846,-1,-3,-2,-1,-1,0,0,-1
1514959786033846,-3,0,-1,-1,1,-1,0,-1
1514959786045855,1,0,-2,0,-3,-1,0,-2
1514959786045855,-1,-1,0,-2,-2,-1,-2,-1
1514959786052862,-2,-1,-1,-1,0,-1,-1,0
1514959786052862,-2,-2,0,0,0,0,0,1
1514959786068871,0,-1,-2,0,-2,-2,-3,-1
1514959786068871,-2,-2,-3,0,0,-2,2,-1
1514959786070873,-3,-3,1,-1,-2,-2,-1,-3
1514959786070873,-2,-1,0,-2,0,-1,1,-1
1514959786091888,0,-1,-1,-2,0,2,-1,1
1514959786091888,-1,0,-1,0,-1,-1,-2,-1
1514959786092892,-1,-1,-4,-1,-2,0,-3,-1
1514959786092892,0,-1,-1,-2,-1,-2,2,-1
1514959786106904,0,0,-1,-1,-3,-3,-1,0
1514959786106904,-3,-1,-2,-1,-1,-1,-2,-3
1514959786108901,0,-2,1,-1,0,-1,0,-3
1514959786108901,-1,0,-2,-2,-3,-1,0,-1
1514959786128916,-2,-2,0,0,-1,-1,-1,-2
1514959786128916,2,-1,-1,-1,0,-1,-2,0
1514959786130915,-2,0,0,-1,-1,-2,-3,-1
1514959786130915,-3,0,0,-1,-2,-2,-3,-1
1514959786151930,-1,1,-1,-1,-2,0,-4,-1
1514959786151930,-1,0,-1,-1,0,-1,0,-4
1514959786152930,1,0,-2,0,0,-1,0,-2
1514959786152930,0,-3,-1,-1,-2,-2,2,1
1514959786165941,-2,1,-1,-1,-1,-2,2,0
1514959786165941,-1,-1,-1,1,-1,1,-1,0
1514959786172945,0,1,-2,-2,-4,-1,-1,-2
1514959786172945,0,-2,-2,-3,-1,-1,-3,-4
1514959786188957,-1,-1,0,0,-1,-2,1,1
1514959786188957,-1,-1,-2,0,-2,-1,-2,-2
1514959786190958,-1,-1,0,-2,-2,-2,-1,-1
1514959786190958,-2,-1,-1,-2,-1,0,0,0
1514959786212012,0,-3,1,0,-2,-2,-2,-2
1514959786212012,-2,-2,-1,-1,-2,-3,2,2
1514959786212997,1,-1,-1,-1,-1,0,0,-1
1514959786212997,-2,-2,-1,0,0,-2,-2,-1
1514959786226993,0,-1,-2,-1,-1,-1,-3,-2
1514959786226993,-1,-1,-1,-1,-1,-1,-1,-2
1514959786232991,0,-1,0,0,-1,-1,-3,-1
1514959786232991,-2,-1,-3,0,-2,-2,-1,-3
1514959786249028,1,-1,-1,-1,0,-1,0,-2
1514959786249028,-4,-1,-1,-1,-2,-1,1,1
1514959786251000,0,0,0,-1,0,-1,2,-1
1514959786251000,1,-2,1,-2,-1,0,-2,-1
1514959786272027,-2,0,-1,0,1,-1,-1,0
1514959786272027,1,0,-1,-2,0,-1,0,-1
1514959786273015,-2,-1,-1,-2,0,0,0,-1
1514959786273015,-1,-1,-1,-1,-1,-1,1,-1
1514959786286039,1,0,1,-2,0,-1,-3,0
1514959786286039,-3,-1,0,-1,-1,0,-3,-3
1514959786293099,0,-2,-1,0,-2,-3,-3,0
1514959786293099,0,-1,-1,0,0,0,0,0
1514959786309064,-3,-1,-1,-1,-1,-1,1,0
1514959786309064,2,0,-2,-1,0,0,0,2
1514959786311066,-2,-2,-3,0,0,-3,0,0
1514959786311066,-1,-1,-2,-1,-1,-1,-2,-3
1514959786332084,-1,-2,-1,-2,-1,0,0,1
1514959786332084,-2,-1,-2,-1,-2,0,0,-2
1514959786333071,-3,0,-3,-1,-1,-1,1,-3
1514959786333071,-1,0,-1,0,-1,-1,-1,-1
1514959786346095,-2,-1,-1,-2,-1,0,1,-2
1514959786346095,0,-2,0,-2,1,0,-2,-2
1514959786353074,-1,-2,-3,-1,1,1,0,-1
1514959786353074,-1,-1,-2,-1,-1,-1,-1,-1
1514959786369109,0,0,-3,-1,-1,0,-1,-3
1514959786369109,-3,-1,-2,-1,-1,0,0,1
1514959786371086,0,-2,-1,0,0,-2,2,-1
1514959786371086,-1,-1,1,0,-2,-1,-1,1
1514959786392124,-2,-4,-1,-3,-1,-3,-1,-2
1514959786392124,-1,0,0,-2,1,0,-3,0
1514959786393105,-1,-1,-2,-4,-2,-1,-2,-3
1514959786393105,-2,0,0,2,-2,0,-2,0
1514959786406134,-2,-1,0,0,-1,0,-1,1
1514959786406134,0,0,0,-1,-1,-1,0,-3
1514959786413140,-2,-1,0,0,-2,0,-1,0
1514959786413140,-1,-1,-1,-1,-1,-3,0,-4
1514959786429143,0,-1,-3,-1,0,-1,-2,-1
1514959786429143,-2,0,-3,-1,0,-3,0,1
1514959786431144,-1,-1,0,0,-1,0,1,-1
1514959786431144,0,0,-1,-3,1,-1,-4,0
1514959786452141,-2,1,0,-1,-1,0,3,1
1514959786452141,1,-2,-1,1,-2,-3,-1,-1
1514959786453143,1,-1,-1,-1,-2,-1,-1,-1
1514959786453143,-2,-2,-2,-1,-2,-1,-1,0
1514959786466166,-1,-1,0,-1,-1,-1,-2,-2
1514959786466166,-1,-1,-2,-1,-1,-3,0,-2
1514959786473168,-4,0,-1,-1,0,-3,-1,1
1514959786473168,0,-1,-2,0,-1,-1,-2,-2
1514959786489181,-4,-2,-1,-2,-2,0,-1,-4
1514959786489181,0,-1,1,0,-2,0,-2,-2
1514959786491195,-2,-4,-1,-1,0,0,-4,-2
1514959786491195,-1,0,-1,-1,-1,-2,0,-2
1514959786520190,0,0,-2,-2,-2,-2,1,1
1514959786520190,-2,-2,0,-2,-2,-3,0,0
1514959786521191,1,-1,-2,0,-4,-1,-3,-3
1514959786521191,-1,-2,-1,-1,0,-1,-1,-1
1514959786525196,-2,0,-1,-1,-2,-1,-2,2
1514959786525196,-2,-1,0,-2,-2,-1,0,2
1514959786534201,-2,-1,0,0,-1,0,0,0
1514959786534201,-1,-2,-1,-1,0,0,0,-1
1514959786549267,0,-2,0,-2,1,-1,-1,-2
1514959786549267,-1,-1,-1,-2,-1,-1,-2,-2
1514959786551227,-1,-1,-1,-2,-1,-1,-1,0
1514959786551227,-2,-2,-2,-2,1,0,0,0
1514959786572228,0,0,0,1,-1,-2,-1,0
1514959786572228,0,-2,-1,-1,-1,-1,-2,-1
1514959786573228,-3,0,-1,-1,-2,0,-1,-1
1514959786573228,-1,-1,-1,-1,-1,-1,0,-1
1514959786585297,1,1,-1,-1,-1,-2,-1,-1
1514959786585297,-2,-1,-2,-1,-2,-1,-1,-2
1514959786594248,-1,-1,0,-2,0,-1,-4,-1
1514959786594248,-1,-2,-1,-2,-2,2,-1,1
1514959786609275,0,-1,-1,0,-2,-1,-2,0
1514959786609275,-1,1,-2,0,-3,-1,-2,-4
1514959786611264,-1,0,-2,-1,-1,-1,0,2
1514959786611264,-2,0,-1,-1,-3,-2,0,-2
1514959786631281,0,-3,0,0,-1,-1,-2,-2
1514959786631281,-2,-2,-2,0,0,1,-2,-2
1514959786633282,-2,-2,-2,-2,-1,-2,-3,-2
1514959786633282,1,-1,-1,-2,1,-2,-2,-2
1514959786645349,-3,-1,-1,-1,0,0,-1,1
1514959786645349,-1,-3,0,-2,-1,0,0,-2
1514959786654285,0,0,-2,0,-1,1,1,1
1514959786654285,-1,-1,0,-1,-1,-1,-2,1
1514959786669312,0,-2,-2,-1,0,-3,-2,-1
1514959786669312,-3,-2,-1,0,-1,-1,-1,0
1514959786670300,-1,-3,0,-2,-1,-3,-2,-1
1514959786670300,-1,-1,-2,-1,-2,-1,-2,0
1514959786691324,-1,-2,-2,-2,-4,-1,-2,-1
1514959786691324,-2,1,0,-1,0,-2,-1,1
1514959786693312,1,-2,-2,0,-1,1,-1,-1
1514959786693312,-3,0,0,0,-1,-1,2,-1
1514959786705321,-1,-3,-1,-1,0,-1,-1,0
1514959786705321,0,0,-3,-1,-1,-2,-2,-1
1514959786714327,-4,-2,-2,-3,-1,-1,-1,-5
1514959786714327,-2,0,-1,-1,-1,-1,-1,-1
1514959786729369,-1,0,0,-1,0,1,-5,1
1514959786729369,0,-1,-1,-2,-2,-1,-1,-1
1514959786730340,0,-2,0,0,-1,0,-2,-1
1514959786730340,0,-2,-2,-1,-2,-1,-3,0
1514959786751372,-2,-1,-1,-1,-1,-1,2,-4
1514959786751372,1,-3,-2,-2,-1,0,-2,-2
1514959786753355,-1,1,-2,-2,0,-1,0,-1
1514959786753355,-1,-1,-1,-1,-4,-2,-1,-2
1514959786765407,0,1,-1,-1,-2,-1,-3,1
1514959786765407,0,-1,0,0,-2,-1,-2,-2
1514959786774382,-1,0,0,-1,-1,-3,1,-2
1514959786774382,0,-1,0,-1,-2,-1,-2,0
1514959786789393,-1,-2,-1,-1,-1,-3,0,-3
1514959786789393,-1,-1,-1,0,-2,-1,-1,0
1514959786790393,-2,-1,0,-2,0,-2,-2,0
1514959786790393,-1,-1,-1,0,0,0,0,0
1514959786811454,0,-2,0,-2,-2,-1,0,-1
1514959786811454,-1,0,-1,0,-2,-2,1,-1
1514959786813398,1,-2,-2,-1,-1,0,-3,-1
1514959786813398,2,-3,-3,-1,0,-1,-1,-2
1514959786825421,-1,-1,-2,1,-1,0,-3,1
1514959786825421,-1,-1,-2,-2,1,-1,-1,-1
1514959786834412,0,0,1,0,-2,-2,-2,-4
1514959786834412,-2,-1,0,-1,-2,-1,-2,-1
1514959786856438,-1,-3,-1,-1,-1,-2,1,-1
1514959786856438,-1,-1,0,-1,-1,0,-4,0
1514959786858429,-1,-3,-3,0,-2,-2,0,1
1514959786858429,-1,-2,-1,0,0,-2,-1,-2
1514959786871444,1,0,-1,-1,-1,-1,-2,1
1514959786871444,-2,1,-1,-1,-1,0,1,0
1514959786873443,0,-1,-2,-1,-3,1,-1,1
1514959786873443,-2,-2,0,-1,-2,-2,-4,-2
1514959786885450,-3,-1,-1,-1,-2,-3,2,-2
1514959786885450,-3,-2,1,0,0,0,0,-1
1514959786894462,-1,0,-1,-1,1,-2,0,-4
1514959786894462,-2,1,-3,0,-1,-1,2,0
1514959786909494,1,-2,-2,-2,-1,-2,-1,-1
1514959786909494,-1,-3,-2,-1,-1,0,-1,2
1514959786910471,1,1,-1,0,-2,-1,-1,0
1514959786910471,0,0,0,-2,0,-3,-1,-1
1514959786931500,-1,-1,-2,-2,-3,-1,-4,-2
1514959786931500,0,-1,-2,-1,-1,-2,0,-2
1514959786933482,-2,0,-2,-1,-2,-2,-1,-2
1514959786933482,-3,-1,-1,-1,-2,0,-3,-1
1514959786945510,1,-1,-1,-1,-1,-2,1,0
1514959786945510,0,-1,-1,-2,0,-3,-5,-1
1514959786954505,-1,-2,-1,0,1,-1,-2,2
1514959786954505,3,-2,-1,-2,-1,0,1,0
1514959786969523,-1,-1,1,-1,0,0,-2,0
1514959786969523,-1,-1,0,-2,-3,-2,0,-1
1514959786970511,0,0,-1,-1,-2,-1,0,-1
1514959786970511,-3,-2,-1,0,-1,-1,-1,-3
1514959786991523,-1,-3,-1,0,-1,-1,-2,-2
1514959786991523,1,1,-2,0,-1,-1,0,0
1514959786993525,0,-2,0,-2,-1,0,-1,-2
1514959786993525,-1,-2,-2,-1,-2,-1,-1,-2
1514959787014596,-2,0,-1,-3,-1,0,-1,1
1514959787014596,-1,0,-1,0,1,-1,-2,-3
1514959787015539,-3,0,-2,0,-2,-1,0,-3
1514959787015539,0,2,1,-1,-3,-1,-1,1
1514959787029563,0,0,0,0,-1,-1,1,0
1514959787029563,-2,-2,-2,0,-1,-2,-2,-1
1514959787030552,1,-1,-1,-1,-2,-2,0,-2
1514959787030552,0,-1,-1,-2,-1,-1,-4,-2
1514959787051582,-1,-1,-2,-1,-2,-2,1,1
1514959787051582,-1,-1,-1,-2,1,-1,-1,-1
1514959787053584,-1,-1,-3,0,-2,-3,-1,0
1514959787053584,-3,0,-1,-1,0,-2,0,0
1514959787074583,0,-1,-1,-1,-1,-1,-1,-1
1514959787074583,2,-2,0,-2,0,2,-1,-1
1514959787075585,-3,-1,0,-2,1,-2,-3,0
1514959787075585,0,-1,-1,-1,-1,-1,1,-1
1514959787088591,-2,1,0,0,-1,-3,-1,1
1514959787088591,0,-1,-1,1,-1,-2,1,-3
1514959787095656,-1,-3,1,0,-2,-2,-2,1
1514959787095656,1,1,-1,0,0,0,-1,-1
1514959787111631,1,0,-2,-2,-1,0,-1,-1
1514959787111631,-2,-2,-1,-1,-1,-1,-1,-2
1514959787113632,-1,-3,0,-1,0,-2,-1,-1
1514959787113632,-2,-1,-2,-1,-1,-1,2,-2
1514959787133692,-1,-2,0,-1,-1,0,-2,-3
1514959787133692,1,1,0,-1,-1,0,0,0
1514959787135694,-2,0,-1,1,-1,0,1,-1
1514959787135694,0,-2,-1,-2,-2,-2,0,0
1514959787148717,0,-3,-1,-1,-2,-2,-2,-1
1514959787148717,0,0,-1,-1,-2,-2,0,-2
1514959787155698,-1,-2,1,-2,-2,-1,-2,-1
1514959787155698,2,-1,-3,-1,-1,2,0,2
1514959787171704,-3,-2,-3,-1,0,0,0,0
1514959787171704,-3,0,-3,1,-2,-1,-2,-2
1514959787173706,1,-2,0,-1,-1,0,0,-4
1514959787173706,0,0,0,2,0,-1,-3,0
1514959787193730,0,-1,-1,-2,-2,-1,-2,-3
1514959787193730,-2,-1,-1,-1,-1,-2,-1,1
1514959787195723,-1,-1,-2,-1,0,0,0,-2
1514959787195723,1,-1,-1,-3,-2,-3,-3,1
1514959787208739,-2,0,-1,-1,-2,-2,-3,-1
1514959787208739,-1,-1,-2,-2,-1,-2,-2,-1
1514959787215766,-2,-2,-1,0,-2,-1,1,-2
1514959787215766,0,-2,-1,-1,-1,-1,2,-1
1514959787231786,-2,-1,-2,1,1,-2,1,-1
1514959787231786,-2,0,0,-2,-1,-1,-5,-3
1514959787232787,0,1,-2,-2,-3,-1,0,1
1514959787232787,-2,0,-2,1,0,0,-1,-3
1514959787253803,0,-1,-1,-2,-2,0,0,-1
1514959787253803,-2,-3,-2,-1,0,0,-1,-1
1514959787255803,-1,-1,-2,-1,0,-2,-2,-2
1514959787255803,-1,-1,-2,-2,-1,-1,-2,-2
1514959787268831,0,-1,0,-1,-2,0,0,0
1514959787268831,-2,0,0,-1,-1,-2,-1,-1
1514959787274857,-1,-1,-1,-1,-2,-1,-2,-3
1514959787274857,0,0,1,-2,-2,-3,0,0
1514959787291879,-2,-2,0,-1,-1,-1,0,-1
1514959787291879,-1,-2,-1,0,-2,-2,2,-3
1514959787292870,0,0,0,0,-1,-1,-4,1
1514959787292870,-2,-1,-3,-2,-1,-1,-2,-1
1514959787313906,-1,0,0,-2,-2,0,-3,-2
1514959787313906,-2,-2,-1,-1,0,0,3,0
1514959787315896,-3,0,1,-1,-2,0,2,0
1514959787315896,-2,0,-1,1,0,-2,-3,-1
1514959787327894,0,-1,-2,1,0,-1,-3,1
1514959787327894,-2,-3,-2,-2,-2,-1,-1,1
1514959787336901,1,-1,-2,-1,-1,-2,-2,-1
1514959787336901,-1,-2,-1,0,0,-1,0,-1
1514959787351935,-1,0,-1,1,-2,0,1,-2
1514959787351935,0,0,-1,0,-2,0,-2,-1
1514959787352914,-1,-1,-2,-1,1,-2,-1,0
1514959787352914,-1,-3,-1,-1,-2,1,-1,0
1514959787373956,-3,-1,-3,-1,0,-3,0,1
1514959787373956,-3,-1,-1,0,-1,-1,-2,-2
1514959787375929,-1,-1,-1,-1,0,-1,-4,-4
1514959787375929,1,-2,1,-2,-1,0,0,-2
1514959787388953,-2,0,0,-2,-1,1,-2,0
1514959787388953,0,-1,-2,-2,0,-1,0,-1
1514959787394971,-2,-2,-1,1,-1,-1,-1,0
1514959787394971,-2,-1,-1,0,-2,-4,-1,2
1514959787411970,2,-2,0,-2,0,-1,0,-1
1514959787411970,-2,1,0,-3,-3,-1,1,1
1514959787412965,-1,-2,-2,-3,0,0,0,0
1514959787412965,0,0,-2,-1,-2,-2,-3,-1
1514959787433969,0,-2,-1,0,-2,-2,-1,-1
1514959787433969,0,-2,-1,-2,1,0,-1,-2
1514959787435970,0,0,-1,-2,-2,-1,2,-2
1514959787435970,-3,0,1,-3,-2,0,-4,-1
1514959787448996,0,-2,-2,-2,-1,-1,-1,-2
1514959787448996,1,-1,-2,-1,-2,-2,-1,-1
1514959787454984,-3,-3,-1,-1,-1,0,1,-1
1514959787454984,0,1,-1,0,-2,1,-1,-1
1514959787472013,-1,1,-3,0,-1,-2,0,-1
1514959787472013,-1,-1,-1,-1,-2,0,-1,2
1514959787473008,0,-1,1,-2,-1,-1,-2,-2
1514959787473008,-2,0,-2,0,-1,-1,0,-1
1514959787494012,-1,-2,-1,-1,-1,-4,-3,-4
1514959787494012,1,-4,-1,-1,-1,-2,-1,-2
1514959787496015,-2,-3,-2,-2,-1,-1,-1,0
1514959787496015,-1,-1,1,-1,-1,-1,0,-1
1514959787508142,-2,0,0,0,-3,-1,-3,-1
1514959787508142,-1,-2,-3,-2,-2,-3,0,-2
1514959787517120,0,-1,-1,0,-1,-2,0,0
1514959787517120,-1,0,-2,0,-1,-1,2,2
1514959787532131,-1,-1,-1,0,-2,0,-2,-2
1514959787532131,-2,-1,-1,-2,-2,-2,-2,-1
1514959787533132,-2,-1,-3,-1,-1,1,-1,-2
1514959787533132,1,-1,-2,-1,-1,-2,1,-5
1514959787554146,2,-1,0,-2,-2,-1,0,1
1514959787554146,0,-1,0,0,0,0,-1,-1
1514959787556147,-2,-1,-1,-1,-3,-2,-2,-2
1514959787556147,-3,-2,-1,-2,-1,-1,-1,-1
1514959787568190,-2,0,-2,1,-1,0,0,0
1514959787568190,-2,-2,-1,0,0,-2,0,-2
1514959787577172,0,0,-1,-1,-1,0,0,-1
1514959787577172,-1,-2,-2,-2,-1,0,-3,2
1514959787592188,1,-1,0,-2,0,-2,-2,0
1514959787592188,-1,-1,-1,-2,-1,-1,-1,-2
1514959787593188,-1,0,2,0,-1,-2,1,-1
1514959787593188,-2,-1,0,-1,-1,0,-2,-1
1514959787614209,-2,-1,1,-1,-1,0,-1,-1
1514959787614209,-2,-1,-2,0,-2,-1,-2,-2
1514959787628208,-1,-1,-1,-2,-3,-1,-3,-1
1514959787628208,2,-1,-2,-2,-1,-1,-2,0
1514959787629198,-3,-1,-2,0,0,0,0,0
1514959787629198,-1,-1,-1,-1,-1,-2,0,-1
1514959787637215,-2,1,-1,-2,1,-2,-2,0
1514959787637215,0,-2,-2,-1,0,-1,-1,-1
1514959787652217,-2,-1,0,-1,-1,-1,0,-3
1514959787652217,0,-2,-1,-1,0,-1,-1,-1
1514959787653218,-1,0,-2,-1,-2,0,-1,0
1514959787653218,-1,-2,-1,-1,-1,0,0,0
1514959787674289,0,-2,-1,-1,-1,0,-1,-2
1514959787674289,-4,-2,-1,-1,-2,-1,-1,-2
1514959787676239,2,1,-2,-2,-2,-2,-1,1
1514959787676239,-2,-2,1,0,-1,-2,-2,-1
1514959787688245,-3,-1,-1,-2,0,-2,-2,-1
1514959787688245,-3,0,-2,0,-2,0,-2,-3
1514959787697252,0,0,-1,0,-1,0,-2,-2
1514959787697252,1,-2,-1,-1,-2,0,-1,-4
1514959787719261,2,0,0,0,-2,-1,-1,2
1514959787719261,-2,1,0,0,-1,2,-2,0
1514959787720263,-1,-1,-2,-1,-2,0,0,-2
1514959787720263,-1,-2,-2,-1,-2,-2,-1,0
1514959787733271,0,0,-1,-2,-4,0,-2,-2
1514959787733271,0,1,-1,-1,-1,-1,-3,2
1514959787742280,-2,-3,-2,-2,0,0,0,-3
1514959787742280,-4,-1,0,-1,-2,-2,1,0
1514959787748293,-3,1,0,-1,0,-2,-1,-2
1514959787748293,0,-3,0,-1,-2,-3,-2,-1
1514959787756298,0,-1,-2,-2,-1,0,1,-1
1514959787756298,-2,1,-1,-2,0,-1,-2,-1
1514959787772300,1,-2,-2,-1,-1,0,-1,2
1514959787772300,-1,-1,-1,0,-3,0,-1,-2
1514959787773330,0,0,-1,-1,-1,0,-1,-2
1514959787773330,0,-1,-1,-2,-1,-1,0,-2
1514959787794344,-3,-1,1,-2,-1,-1,1,1
1514959787794344,0,0,0,-2,0,0,-1,-1
1514959787796317,-1,-3,-1,0,-2,-2,-1,-1
1514959787796317,-1,0,-1,1,-2,-1,-3,0
1514959787807342,0,-3,1,-1,-2,-1,-2,-1
1514959787807342,0,-3,-1,-1,0,-1,-2,-2
1514959787824336,-2,-1,-1,-2,-1,-2,0,-3
1514959787824336,0,2,-2,-1,0,1,-2,0
1514959787831340,-1,0,-3,-1,0,-1,0,-1
1514959787831340,2,-2,-1,-2,-1,-1,1,-3
1514959787833343,-2,-2,-1,0,0,-1,-2,-2
1514959787833343,-2,-2,0,0,-1,0,2,-1
1514959787854357,-1,-3,0,0,-2,-1,2,-2
1514959787854357,-3,-1,0,-2,-1,-2,1,-1
1514959787855357,-1,-1,-1,-2,-2,-3,-3,0
1514959787855357,-1,-2,-1,0,0,-4,-3,0
1514959787867378,-1,-1,-2,-2,0,-1,-3,-1
1514959787867378,-2,-2,-2,-1,-2,-2,2,-1
1514959787876384,-1,-1,-1,-1,-1,0,-2,-1
1514959787876384,0,1,0,-1,-1,2,-1,-1
1514959787891384,-3,-1,0,-3,-2,-1,-1,-2
1514959787891384,-2,1,-1,-1,1,-2,-2,-5
1514959787893384,-1,-1,0,-2,-1,1,-1,0
1514959787893384,0,-1,-1,-1,-1,0,2,-1
1514959787914400,3,1,-1,-2,-2,0,-1,0
1514959787914400,0,-1,-3,-1,0,0,-2,-1
1514959787915400,-3,-1,-1,0,0,-3,1,-1
1514959787915400,-1,-1,-2,-2,-3,-2,-4,0
1514959787936415,0,-2,0,0,-1,-1,0,-2
1514959787936415,-1,-1,-1,-2,-2,-2,0,-1
1514959787938416,1,-1,-3,-1,-2,-1,-2,0
1514959787938416,-3,0,1,-1,-2,0,-1,-2
1514959787951465,0,0,-2,-2,-3,-2,0,-2
1514959787951465,-1,-1,0,0,-1,-1,-3,0
1514959787953426,-2,-2,-1,-1,1,1,1,-2
1514959787953426,0,-3,-1,-1,0,-2,1,-2
1514959787974455,-1,1,-3,0,0,-2,-3,-1
1514959787974455,-2,0,-2,0,-2,0,-1,-1
1514959787975464,-1,-1,-1,-1,-1,-1,-2,-1
1514959787975464,-2,0,-2,0,-2,-1,-3,-2
1514959787996495,0,-2,-1,0,1,-1,0,-1
1514959787996495,-2,-3,-2,-1,-2,-1,-1,-1
1514959787998459,-2,-1,1,0,-2,-1,0,0
1514959787998459,-1,-2,0,-2,0,0,-2,-1
1514959788011490,1,-1,-2,-3,0,1,0,-1
1514959788011490,-3,0,-1,-1,-2,-1,0,0
1514959788013475,-1,0,-2,-2,0,-1,-2,-1
1514959788013475,2,-1,-1,-1,-1,-2,-1,0
1514959788034510,-1,-1,0,-1,0,2,-4,-1
1514959788034510,-2,-1,-1,-1,0,-2,-1,0
1514959788035491,-3,1,-1,0,-2,-2,-1,-1
1514959788035491,-1,-1,-2,0,-2,-2,2,1
1514959788056525,0,0,1,-1,-1,-3,-1,0
1514959788056525,-1,-2,0,-2,-1,0,0,-2
1514959788058502,-1,-3,-2,-1,0,0,-1,-3
1514959788058502,-1,0,-2,-2,-1,0,1,-1
1514959788070540,-3,-2,-2,-2,-1,-1,1,0
1514959788070540,-3,-1,-2,-1,-1,1,1,0
1514959788077525,3,0,-1,-2,-1,-2,0,0
1514959788077525,1,-1,0,0,0,-2,0,0
1514959788094529,-1,-2,-1,-1,-1,0,0,0
1514959788094529,-2,-3,2,-1,-1,-1,1,-1
1514959788095530,-1,-2,-2,-2,-1,-2,-3,-2
1514959788095530,-1,1,1,-2,-1,-1,-1,-1
1514959788116577,-3,1,0,0,-1,-2,0,-1
1514959788116577,1,-1,-1,0,-1,-2,-1,0
1514959788118577,-1,-2,-1,0,-2,0,-1,-1
1514959788118577,0,-1,-1,0,0,-1,-2,1
1514959788130568,-1,-1,-2,-1,0,0,-1,1
1514959788130568,-2,-1,-1,0,0,1,-1,0
1514959788137556,-1,0,0,-2,-1,0,0,-1
1514959788137556,0,-1,-3,-1,-1,-2,-1,-2
1514959788154585,-2,-1,-2,-1,-1,1,-2,-3
1514959788154585,0,1,-1,0,-2,-1,-2,-3
1514959788155569,-1,-3,-2,-1,-1,-1,0,0
1514959788155569,-1,-1,-1,0,-2,-2,-3,0
1514959788176587,0,-1,-1,-2,0,-1,0,0
1514959788176587,-3,-1,-1,-3,0,-2,-1,1
1514959788178587,0,-2,0,-1,-2,0,-2,-1
1514959788178587,-2,-1,-2,-2,0,0,0,1
1514959788190610,-3,-2,-1,-2,0,-1,-1,0
1514959788190610,1,-1,1,-1,-1,-2,-2,-1
1514959788197602,-1,0,0,-1,-3,-1,1,-3
1514959788197602,-2,0,0,-1,-1,0,0,-1
1514959788214646,-1,0,-1,-2,-1,-2,-2,-1
1514959788214646,0,-1,-1,-1,0,-2,-1,0
1514959788215646,-1,0,0,0,-2,-2,0,1
1514959788215646,-3,-2,-1,-2,-3,0,-1,-3
1514959788243682,0,-1,-1,-1,-2,0,-1,0
1514959788243682,0,-1,-3,-2,-1,-1,0,-1
1514959788245669,-1,-2,-2,-1,1,-2,-1,0
1514959788245669,-2,-1,-1,-1,-1,-1,0,-2
1514959788250694,-2,0,-2,-1,-1,-1,-2,0
1514959788250694,-1,-1,-2,0,-2,-2,-2,-1
1514959788257682,-2,1,-2,0,-2,0,0,0
1514959788257682,1,-1,0,-1,0,-3,-2,-2
1514959788274720,-3,-1,1,1,-1,-2,0,-1
1514959788274720,-2,-2,-2,-2,-1,-2,-2,0
1514959788275690,0,-2,-3,-2,-2,1,-3,-3
1514959788275690,-1,-2,-1,1,-1,-2,2,0
1514959788296734,0,-1,-2,0,-2,-1,-4,-1
1514959788296734,-2,-1,0,0,-2,1,0,-1
1514959788298712,-1,-3,-1,0,0,-2,0,-1
1514959788298712,0,-4,-1,-2,0,-1,1,-1
1514959788310713,1,-1,0,-2,-3,-3,0,2
1514959788310713,-1,-1,-2,0,-1,-1,0,-2
1514959788317740,-2,-1,-1,-3,-1,-1,-2,-1
1514959788317740,0,-1,-2,0,-1,-1,-4,-1
1514959788333740,0,-2,0,-4,-1,-1,0,-2
1514959788333740,-1,0,-1,-1,0,1,-1,-1
1514959788335741,-2,-2,-1,1,0,-1,-1,2
1514959788335741,-1,-1,0,-1,-2,-1,-1,0
1514959788356757,0,-1,-2,0,0,-3,-4,-2
1514959788356757,0,-1,-1,-2,-1,-1,-1,-1
1514959788358746,-4,-1,0,1,0,-3,-1,-1
1514959788358746,0,-2,-1,-1,-2,0,-2,-1
1514959788370786,-2,0,-2,0,-1,0,0,2
1514959788370786,-1,-2,-1,-2,-1,-1,-2,-1
1514959788377791,1,-1,-2,-1,-2,-1,-1,-2
1514959788377791,0,-1,-1,0,-1,-1,0,0
1514959788393800,-2,0,-1,-2,0,1,1,-2
1514959788393800,0,1,-1,0,0,0,1,-4
1514959788395774,0,-1,0,-1,-1,0,0,1
1514959788395774,-1,-1,-2,0,-1,1,-1,-1
1514959788416800,-1,-2,-1,0,-1,-1,-2,-2
1514959788416800,-2,-1,0,0,-1,-3,-3,1
1514959788417788,-2,-1,-1,-1,0,0,0,-1
1514959788417788,0,0,-1,-1,-1,-2,-1,0
1514959788429808,0,-1,0,-1,-1,-1,-1,0
1514959788429808,-1,-3,-1,1,-2,0,-2,0
1514959788438821,0,-2,-2,-3,0,0,-1,-2
1514959788438821,1,-1,-1,-2,-2,-1,0,-1
1514959788453827,0,-1,-2,-1,0,-3,-2,-2
1514959788453827,-1,-2,0,-3,0,-1,0,-1
1514959788455818,-1,0,-2,-1,-1,-2,-1,1
1514959788455818,-2,0,-1,0,0,1,0,1
1514959788476855,0,-1,-1,-1,-2,0,-1,-2
1514959788476855,-1,-2,-3,-1,-1,0,-1,-3
1514959788477831,-1,-2,2,-1,-2,-1,-1,1
1514959788477831,2,1,-1,-1,0,-1,-2,-3
1514959788489850,0,0,0,2,-1,-1,2,0
1514959788489850,-2,1,-1,0,0,1,-2,1
1514959788498856,-1,-1,-2,-1,-1,-2,-2,0
1514959788498856,-1,0,-1,-1,-3,0,-2,-1
1514959788513918,0,-2,-2,-2,0,-3,-2,0
1514959788513918,0,0,0,-2,-1,0,0,-3
1514959788515858,-2,-2,-1,-1,-1,-1,-1,-2
1514959788515858,-1,-2,-1,-2,-1,-1,-1,-1
1514959788536884,-1,-1,-1,-2,-3,0,0,1
1514959788536884,1,0,-2,-2,-1,-2,-1,0
1514959788537873,2,-2,-1,-2,1,-1,-1,-2
1514959788537873,1,1,1,0,-2,0,1,-2
1514959788549940,-2,-1,0,-1,-1,0,0,-2
1514959788549940,-3,-1,-1,-1,-1,-2,-3,0
1514959788558905,1,0,-2,1,-2,-2,-1,-2
1514959788558905,-2,-1,-1,-1,-1,-3,-6,0
1514959788573970,0,-1,-1,-2,-1,-1,-1,2
1514959788573970,-1,0,-1,0,0,-1,-1,1
1514959788575929,-2,-1,-2,-2,1,0,-2,-1
1514959788575929,-2,-1,-1,-2,-2,-2,0,-2
1514959788596918,-1,-2,0,0,-2,-3,1,-2
1514959788596918,2,-1,-1,-1,0,0,-3,1
1514959788597916,-2,-2,-2,0,-1,-1,-1,-1
1514959788597916,-1,-2,0,-2,0,-2,-1,1
1514959788609955,-1,-2,0,-2,-2,-2,-3,-2
1514959788609955,0,-1,-2,-2,-4,-1,0,-2
1514959788618985,1,-2,-1,0,-3,-2,0,0
1514959788618985,-1,-1,1,-2,1,0,-1,-1
1514959788633943,0,-2,0,-2,0,-2,0,-2
1514959788633943,-3,-2,1,-1,-1,-3,0,-2
1514959788635944,0,0,-1,-2,-1,-2,-1,0
1514959788635944,0,-2,-1,1,0,0,-1,-2
1514959788663970,-3,2,-1,0,-1,1,-1,-2
1514959788663970,-2,-1,-1,-2,-1,-1,0,-2
1514959788665965,0,1,-1,0,1,-1,0,0
1514959788665965,-1,-1,-2,-1,-3,-2,-1,1
1514959788670987,0,-1,-2,-1,-1,-2,0,-2
1514959788670987,-2,-2,0,-1,-2,-4,-1,-2
1514959788678984,-2,1,-1,-1,-2,0,-1,-4
1514959788678984,-1,0,-2,-1,-2,0,-1,0
1514959788694000,-1,1,-1,-1,0,0,-1,0
1514959788694000,0,-1,-3,0,-1,1,-1,0
1514959788696002,-1,-1,-2,-1,-1,-3,1,0
1514959788696002,-2,-3,-1,-2,-2,-1,-1,-1
1514959788717056,0,-1,-1,-2,-3,0,0,-3
1514959788717056,0,-2,-1,0,0,0,-1,-2
1514959788719058,-2,0,-3,-1,-2,-1,-2,-2
1514959788719058,-2,-1,-1,0,0,-2,0,-3
1514959788730018,-1,0,0,-1,-2,-1,-1,1
1514959788730018,-1,-3,-1,0,-2,-1,-1,-3
1514959788739016,-3,-2,-1,-2,0,0,-2,-1
1514959788739016,1,0,0,-1,-2,-1,-1,0
1514959788754040,-3,-2,-2,0,0,-2,-1,0
1514959788754040,-1,-1,-1,0,-1,-2,0,-2
1514959788756028,0,-2,-1,-1,-2,-2,-2,-1
1514959788756028,-2,-2,-2,-1,0,-1,-2,-1
1514959788777042,-1,0,-2,-2,-1,-1,-1,-2
1514959788777042,-1,1,-1,-4,-2,-2,0,-1
1514959788778043,-4,-1,-1,-1,0,-2,2,-1
1514959788778043,-2,1,-1,-1,-2,0,0,1
1514959788790077,-2,-1,1,-1,0,0,-2,-2
1514959788790077,-2,-1,-2,-2,-2,0,-2,-1
1514959788799083,-1,-2,0,0,-1,-1,0,-2
1514959788799083,-1,2,0,-1,-2,-2,-1,-1
1514959788814089,0,-4,-2,-3,0,1,1,-1
1514959788814089,1,-1,-1,0,0,-1,0,-1
1514959788816073,-1,-3,2,-1,0,0,-2,0
1514959788816073,0,-1,-2,-1,0,-1,0,-2
1514959788837107,0,1,0,1,-2,-1,-2,-1
1514959788837107,0,-2,0,-1,-1,-1,1,-2
1514959788838094,1,0,-3,0,0,-1,-3,-1
1514959788838094,-1,-3,0,-2,1,-2,-3,1
1514959788859125,-2,-1,-2,-2,-1,0,-2,-2
1514959788859125,-2,-1,-1,-2,-1,-3,-2,-3
1514959788861102,-1,0,0,-2,-1,0,-1,-2
1514959788861102,1,1,1,-1,-2,-1,-1,0
1514959788874137,-1,-1,-1,-1,-1,-2,2,1
1514959788874137,-1,0,-1,0,-1,0,0,-1
1514959788876114,-2,-1,-2,-2,-1,1,1,-3
1514959788876114,-1,-1,-3,0,-1,0,-1,0
1514959788896151,-1,2,-2,-1,0,-2,0,-2
1514959788896151,0,1,0,-1,0,0,-2,2
1514959788904160,-3,0,0,-2,-1,-2,1,1
1514959788904160,2,-1,-1,0,-1,0,0,-2
1514959788919218,-1,-2,0,0,0,-1,-1,0
1514959788919218,0,-2,-3,-2,-1,0,-2,-2
1514959788921161,-2,0,-1,0,-1,-2,-3,-2
1514959788921161,-1,0,-1,0,0,0,-1,2
1514959788934170,-1,-2,1,0,-2,-1,-2,-1
1514959788934170,-1,0,-3,-1,-2,-1,0,1
1514959788936171,0,0,0,0,-1,-2,-1,0
1514959788936171,-2,-1,0,-1,-2,-1,0,-2
1514959788956180,1,-1,-1,-2,1,-1,-1,0
1514959788956180,-2,0,-3,-1,-1,-1,-3,0
1514959788964174,0,-1,-4,-2,-1,0,-1,0
1514959788964174,-1,1,1,-2,-1,-2,0,-2
1514959788979196,-1,-1,-1,-2,-2,0,0,0
1514959788979196,0,-2,-1,-1,-1,-1,-1,-2
1514959788981197,1,-1,-1,-2,-2,-2,0,-2
1514959788981197,0,-2,-2,0,0,-3,-2,1
1514959788994196,2,-2,-2,-1,-1,-3,0,0
1514959788994196,-4,1,-1,0,0,1,1,-3
1514959788996199,-1,1,0,0,-2,-1,-1,-1
1514959788996199,0,0,0,-1,0,-1,0,-2
1514959789016265,-1,0,0,-1,-1,-3,-3,-2
1514959789016265,-1,-3,-1,-1,-1,-2,0,-1
1514959789018219,0,0,-1,-3,-1,-1,-1,0
1514959789018219,-1,-3,-2,0,-1,-1,1,-2
1514959789039239,-3,-3,-3,-2,-1,-1,-2,-1
1514959789039239,-3,-1,0,0,-1,-2,-2,0
1514959789041230,-1,-2,-1,0,-1,-1,-2,-2
1514959789041230,-3,-1,-2,0,-2,0,0,0
1514959789053237,-1,-1,-2,-2,-2,0,0,1
1514959789053237,3,2,-2,-1,0,-3,0,-3
1514959789060251,-2,-3,-1,-1,-2,0,-1,-1
1514959789060251,0,0,0,-3,-1,-2,-1,-2
1514959789076273,-1,-1,-2,-3,-2,-2,0,-3
1514959789076273,-2,-2,-1,-2,-2,-1,-1,-1
1514959789078265,-2,-1,0,0,-1,-2,-3,-2
1514959789078265,-2,0,-1,0,0,1,-3,1
1514959789099290,-3,-1,-1,0,-2,-1,2,1
1514959789099290,1,-3,0,-1,-3,-1,-3,-1
1514959789100294,1,-3,-1,-1,0,-2,-2,-3
1514959789100294,-2,-3,-1,-1,-3,-3,0,-2
1514959789113305,-1,0,-1,-1,0,-2,-3,-3
1514959789113305,-2,-1,-1,-1,1,0,0,2
1514959789120287,1,1,-2,1,-2,0,-1,0
1514959789120287,-1,2,2,-3,-2,1,-1,-2
1514959789136298,-1,-2,-1,-1,-2,0,1,-2
1514959789136298,-1,0,-2,0,0,-1,-1,0
1514959789138299,-1,-2,-3,-2,-1,-2,0,-3
1514959789138299,0,-2,-2,-3,-1,-2,-3,0
1514959789159331,-1,-1,-1,-3,1,0,-1,0
1514959789159331,-1,-2,-1,0,0,-1,-1,-4
1514959789160331,1,-3,-1,-1,-1,-1,-1,1
1514959789160331,0,-1,0,0,-2,-2,-2,0
1514959789173341,-1,0,-1,-2,-2,-1,-3,-2
1514959789173341,-2,1,-3,-2,-1,1,-2,1
1514959789187351,-1,-1,-1,0,-1,-1,0,0
1514959789187351,0,-1,-4,-2,-1,-1,1,-2
1514959789196350,-1,-1,0,1,-1,1,0,-2
1514959789196350,0,0,0,-1,0,-1,-3,0
1514959789198340,-2,0,-1,-2,-2,-1,-1,1
1514959789198340,-3,-2,-1,2,-1,1,1,-1
1514959789219377,0,-2,-2,1,-2,-1,-1,-2
1514959789219377,-2,-1,-1,-3,-3,0,-2,0
1514959789220355,1,-2,0,-1,-1,0,0,-1
1514959789220355,-3,1,0,-2,-1,-2,-1,0
1514959789233390,-1,-1,-2,1,0,1,0,-2
1514959789233390,-2,-1,-1,1,-2,-3,2,-3
1514959789240381,-1,0,-2,-2,-1,0,-3,0
1514959789240381,-2,-1,-1,0,-1,0,1,-2
1514959789256393,-3,0,-2,0,-1,-1,0,0
1514959789256393,1,-2,-1,-2,-1,-1,-2,-2
1514959789258395,-1,1,-1,-2,-1,0,-1,-2
1514959789258395,1,-1,-2,-1,0,-2,1,0
1514959789279426,-1,-2,0,-2,-2,-2,-3,-1
1514959789279426,2,-1,-2,0,-2,-4,-2,0
1514959789281400,-2,-1,-2,1,0,-2,1,-1
1514959789281400,1,-2,-1,-1,-2,-2,-3,-3
1514959789293438,-1,1,-2,-2,0,-1,-1,0
1514959789293438,-1,-1,-2,-1,-2,-1,0,-1
1514959789300430,-2,-1,-1,-1,-1,-2,-2,0
1514959789300430,0,-1,-2,-3,-1,0,-1,2
1514959789316485,1,-2,0,0,0,-1,-1,-1
1514959789316485,-1,-2,0,-3,0,0,1,-1
1514959789318443,0,0,-2,-1,1,-2,1,0
1514959789318443,-2,-2,0,-1,0,-1,0,-3
1514959789339441,-2,1,-2,0,-2,-1,0,-3
1514959789339441,-2,0,0,-3,0,-1,0,-1
1514959789340440,0,-2,0,-1,-3,-1,-1,0
1514959789340440,-1,-1,0,-2,-2,-1,0,1
1514959789352510,1,-2,-2,0,0,-3,0,-1
1514959789352510,-3,-3,-1,0,-1,-1,-2,-3
1514959789361458,-1,-2,-1,-1,-2,0,0,-1
1514959789361458,-1,-2,-1,-2,0,-1,0,-2
1514959789376488,-2,1,-1,-3,-2,-2,1,-1
1514959789376488,1,-1,-2,-3,0,-1,-2,-3
1514959789378467,0,0,-1,-2,-3,-2,-3,0
1514959789378467,-1,-2,-1,2,1,-1,0,-2
1514959789406516,-4,-3,-1,-1,-1,-1,-2,0
1514959789406516,1,-2,-2,-1,-1,-2,0,1
1514959789408499,0,-1,-2,-2,0,0,0,-3
1514959789408499,-1,0,-2,-1,-2,0,-5,0
1514959789412492,0,-2,0,-1,-2,-1,-3,-2
1514959789412492,-3,2,0,-1,-2,-1,2,-1
1514959789421518,-1,-1,-1,-2,0,-2,-2,0
1514959789421518,-2,0,-2,-1,-2,-1,-2,0
1514959789436526,-2,-3,-1,0,-1,0,1,-2
1514959789436526,-3,-3,0,0,-2,-3,-3,-2
1514959789438512,-1,0,-1,-1,-1,-1,-2,-4
1514959789438512,1,0,-3,-2,-1,-2,-1,-1
1514959789459526,0,-1,-1,-3,-3,0,-3,0
1514959789459526,-1,-1,-2,-1,-2,0,1,0
1514959789460525,-1,-2,-1,0,0,0,-2,2
1514959789460525,-2,0,0,0,-2,0,-3,-1
1514959789472545,0,1,0,4,-2,-2,2,-1
1514959789472545,1,-3,-3,-10,2,0,0,-1
1514959789481570,-2,-1,0,8,-5,-3,0,-1
1514959789481570,1,-1,1,-6,2,1,0,-1
1514959789496580,-1,-2,-3,1,2,1,-1,1
1514959789496580,-1,-1,-9,-26,-4,2,0,1
1514959789498553,-3,-2,-1,-4,-3,-1,-1,1
1514959789498553,-2,-2,0,2,-3,-2,1,-2
1514959789519570,0,1,2,8,-1,-2,0,-1
1514959789519570,0,-2,0,10,0,-2,-3,-1
1514959789520568,1,2,0,-2,0,0,0,0
1514959789520568,-1,1,-1,1,-2,0,1,-2
1514959789532596,-4,-3,-6,-8,-2,-1,0,-4
1514959789532596,-2,-1,0,4,-1,-3,0,-2
1514959789541583,0,-2,-1,-5,-1,-1,-3,-1
1514959789541583,0,0,2,0,1,0,-1,0
1514959789556594,-1,1,5,-2,-1,-2,-1,2
1514959789556594,-1,-1,-4,2,-1,-1,-1,-3
1514959789558605,-2,-6,-3,11,-1,0,-3,-3
1514959789558605,-1,1,2,-6,-3,-2,-3,-2
1514959789579624,-1,-1,-2,-14,1,0,0,-2
1514959789579624,-1,0,19,33,-8,-4,0,-1
1514959789580610,-1,-5,-16,-25,8,0,1,-2
1514959789580610,0,-3,-24,-20,-8,-2,-2,2
1514959789592633,-2,-2,2,3,-2,-3,-1,-1
1514959789592633,-2,2,1,-1,2,-1,-1,0
1514959789601625,0,0,14,11,-2,-2,1,-1
1514959789601625,-2,-3,6,8,2,-3,-1,-1
1514959789616636,-1,-1,-8,-7,0,0,-1,-3
1514959789616636,-2,0,8,13,-1,0,-2,-4
1514959789618637,1,2,-5,-7,0,-1,0,2
1514959789618637,1,-4,-20,-6,-1,-2,-2,0
1514959789638665,1,-5,-21,-5,-6,-4,-1,-3
1514959789638665,-1,-1,16,1,3,1,0,2
1514959789640654,-2,-3,-16,-2,-2,0,1,0
1514959789640654,-2,1,11,-2,1,0,-1,0
1514959789660683,-1,1,10,2,-5,-3,-1,-1
1514959789660683,0,-3,-1,1,3,0,-3,-2
1514959789661681,0,3,6,18,-2,-4,-1,0
1514959789661681,-2,-3,-5,-13,-3,-2,-1,-2
1514959789675705,-3,-2,9,-8,0,0,-3,-1
1514959789675705,-2,-1,-3,-8,-4,-1,-1,-2
1514959789676708,-2,-4,-16,-2,-5,-1,-1,-1
1514959789676708,-3,-2,-6,0,3,-1,0,0
1514959789698727,-1,-3,-10,7,-4,-1,-1,-2
1514959789698727,-1,1,14,-6,1,0,-2,-2
1514959789699696,-3,1,-7,1,-1,-1,-2,-3
1514959789699696,1,4,16,10,0,1,1,0
1514959789720726,1,0,-8,-2,2,0,0,1
1514959789720726,2,-2,-15,-8,0,-1,0,1
1514959789721726,-2,-4,20,-3,-1,0,-1,0
1514959789721726,1,1,-1,-2,-3,-3,-1,-3
1514959789735737,0,4,10,11,3,2,-2,2
1514959789735737,-3,-2,-3,-5,-2,0,-1,-2
1514959789736721,-1,-1,-8,-19,-3,-1,1,-1
1514959789736721,7,2,8,10,1,-1,-1,0
1514959789758735,0,-1,6,12,-3,-2,-1,-3
1514959789758735,-4,1,-9,-9,1,-2,-1,-1
1514959789758735,-1,-2,0,-1,-2,-2,0,-1
1514959789758735,0,-7,1,-3,0,-3,-3,-2
1514959789780764,-10,0,6,0,-2,-1,0,0
1514959789780764,6,-3,-19,-6,-3,-3,-3,0
1514959789781753,4,7,15,12,-1,-1,-1,-3
1514959789781753,4,5,8,0,-2,0,-2,-1
1514959789795763,-1,2,-41,-10,-1,-2,-1,2
1514959789795763,2,-8,-13,-5,0,-1,-1,-1
1514959789796763,-5,0,7,4,0,0,-1,-2
1514959789796763,-3,-10,-3,3,-2,-2,0,-1
1514959789818779,0,0,15,-5,1,1,-4,0
1514959789818779,0,4,-4,5,0,0,-2,-1
1514959789818779,1,-5,-3,-10,-2,-2,-2,0
1514959789818779,-7,2,12,2,-1,0,-2,-4
1514959789840810,-4,-3,-16,-8,0,-2,1,-1
1514959789840810,0,-4,9,-1,-2,1,0,-2
1514959789841794,-3,0,5,5,-1,-1,-4,-1
1514959789841794,5,-5,-21,-2,-1,-3,-1,-4
1514959789855817,-3,-5,9,-6,-1,-3,-1,0
1514959789855817,16,8,-3,-2,1,-1,1,1
1514959789856807,-8,14,2,14,-2,0,-1,5
1514959789856807,-8,5,-4,-16,-1,-3,-5,-6
1514959789878833,0,-21,-2,5,1,-1,0,-5
1514959789878833,-7,7,23,2,-2,-1,-1,-2
1514959789878833,-5,-25,-40,-25,-4,-1,-1,2
1514959789878833,3,4,6,11,1,1,5,4
1514959789900837,-5,5,1,1,-2,-2,-4,-1
1514959789900837,-6,-1,4,-2,-2,0,3,-1
1514959789901838,15,9,10,5,1,-2,-4,-2
1514959789901838,-13,2,-3,1,0,3,0,1
1514959789915849,14,-4,-3,-3,-2,-1,-1,-3
1514959789915849,-10,5,-1,-3,-2,-1,0,1
1514959789916847,-4,-13,-52,-14,-3,-1,-3,-7
1514959789916847,13,-2,-3,-11,-4,-4,-2,-3
1514959789938866,-15,2,18,17,2,4,3,6
1514959789938866,6,-13,-2,2,-4,-7,-2,-6
1514959789938866,16,17,26,-6,-1,1,1,2
1514959789938866,-13,1,6,2,5,3,1,6
1514959789960896,6,-10,-20,-12,-4,-2,-2,-2
1514959789960896,5,-5,-21,-12,-4,-3,-5,-2
1514959789961879,-22,-8,17,6,-1,-1,-1,-2
1514959789961879,11,4,6,6,-1,-4,-2,-1
1514959789975892,5,17,12,1,2,5,2,-3
1514959789975892,-14,-6,5,-3,-1,1,0,0
1514959789976889,-8,-12,7,-3,0,0,1,1
1514959789976889,24,7,-2,6,0,0,-4,-2
1514959789998921,-13,5,-4,-6,-1,-3,2,3
1514959789998921,-1,-8,5,3,-2,-3,-3,-8
1514959789998921,17,13,-26,2,1,-2,3,2
1514959789998921,-18,-9,9,-6,-5,-3,-1,0
1514959790020935,-8,-12,9,-2,-3,0,-4,-9
1514959790020935,15,1,-10,-1,0,-4,-2,1
1514959790021921,3,6,21,1,1,1,1,-4
1514959790021921,-29,-17,-14,6,0,3,-1,0
1514959790036989,1,7,15,0,0,-1,-1,-3
1514959790036989,-8,1,-31,-1,-1,-1,3,1
1514959790037933,11,3,16,6,0,-2,0,4
1514959790037933,9,0,11,-5,-4,-4,-3,-2
1514959790058962,-22,-1,-2,9,0,-4,-4,-2
1514959790058962,-28,-8,-13,-17,-2,0,1,-3
1514959790058962,-6,4,-4,-4,2,-1,-1,1
1514959790058962,7,20,-8,-2,-3,-2,0,-2
1514959790080988,8,7,11,7,1,4,3,4
1514959790080988,0,-12,10,12,2,1,-1,-2
1514959790081970,-32,6,-9,-1,-1,-3,-3,0
1514959790081970,-23,-13,14,2,-1,3,3,-6
1514959790095999,35,0,-9,-7,-2,-15,-17,-1
1514959790095999,3,7,-38,-5,-2,3,3,1
1514959790096976,13,-8,-5,-1,-1,0,-4,-6
1514959790096976,-10,-2,-24,-10,0,1,4,2
1514959790118006,4,1,4,-2,0,2,0,1
1514959790118006,-2,12,19,3,-3,-2,-1,-2
1514959790119002,-10,-11,13,0,-2,1,-3,0
1514959790119002,9,-3,-13,0,0,3,2,1
1514959790141018,3,-2,2,-4,-2,0,-1,-2
1514959790141018,9,0,-8,1,0,-2,-5,2
1514959790142019,12,3,13,1,0,-2,2,-1
1514959790142019,-26,-3,-3,4,0,-5,-4,-3
1514959790156027,0,-14,-79,-25,-6,-2,0,-3
1514959790156027,13,27,28,10,2,1,-1,7
1514959790157028,9,-15,-15,-8,-7,-4,-5,-3
1514959790157028,13,-5,-10,-8,-2,-1,-2,3
1514959790178044,13,12,29,14,2,1,1,1
1514959790178044,-53,-17,-4,-3,-2,-3,-3,-7
1514959790179046,15,3,-8,-4,1,0,0,-5
1514959790179046,-2,8,23,3,1,0,-3,2
1514959790201071,-10,1,-7,-4,-3,-1,2,-1
1514959790201071,5,-18,-5,-2,-1,-1,-4,-6
1514959790202048,-11,-1,19,1,-1,1,2,2
1514959790202048,0,-2,-11,-2,-2,-1,-1,9
1514959790217060,-2,4,5,1,-1,2,1,0
1514959790217060,-2,-7,-1,-6,-3,-6,-6,-24
1514959790217060,0,2,9,-5,-2,-1,2,7
1514959790217060,10,-2,-2,2,-3,-2,-1,1
1514959790238104,-11,-8,-4,-4,1,-1,2,4
1514959790238104,26,14,16,12,2,2,3,8
1514959790239081,-41,-12,-16,-3,1,2,-2,-6
1514959790239081,25,0,4,5,-2,-4,-2,-8
1514959790261121,-3,-9,9,8,-1,0,-3,-3
1514959790261121,-10,-7,-1,-11,-1,-4,0,-3
1514959790262093,23,15,-5,-7,1,-1,-1,3
1514959790262093,3,-6,0,3,0,3,1,3
1514959790276102,-14,3,6,8,-4,0,2,0
1514959790276102,0,-4,11,12,7,3,1,2
1514959790277103,-31,0,-43,-26,-4,0,-2,-4
1514959790277103,15,0,7,10,1,-4,0,-2
1514959790298133,14,-8,-10,-30,-2,-2,-3,-6
1514959790298133,-30,5,0,-11,-2,2,-1,11
1514959790299135,46,3,14,33,-2,-2,0,-7
1514959790299135,-44,-7,0,-21,3,3,1,5
1514959790321150,10,-1,-7,1,-4,-5,-4,-13
1514959790321150,-3,6,-3,-2,-6,-4,-1,-2
1514959790322134,-37,-8,9,5,5,4,5,14
1514959790322134,-26,-10,-4,4,-5,-3,-4,-21
1514959790336160,61,27,10,9,1,0,2,14
1514959790336160,-2,-28,-9,-13,0,0,1,1
1514959790336160,-2,-22,0,1,-4,-4,-5,-14
1514959790336160,-3,15,-5,-4,-2,0,-4,-23
1514959790358161,-18,-15,0,-8,1,-1,-1,2
1514959790358161,8,10,-4,4,-2,-1,3,8
1514959790359160,27,11,6,2,-1,1,0,6
1514959790359160,11,-13,-1,-14,-1,1,0,9
1514959790381186,6,11,3,10,0,-3,-5,-10
1514959790381186,-9,-10,-1,19,-4,0,0,-1
1514959790382178,4,-7,-8,-28,2,-1,-4,-3
1514959790382178,22,17,2,-12,3,-1,-1,3
1514959790395201,-7,-30,-6,-9,-8,-7,-1,-3
1514959790395201,22,24,2,19,-1,-2,1,-4
1514959790403192,-38,-28,5,4,3,-3,-1,-7
1514959790403192,30,8,-8,-16,-5,-4,-9,-16
1514959790418222,-25,11,3,6,3,5,3,16
1514959790418222,-22,-12,-2,-1,-2,-3,-7,5
1514959790419202,38,24,5,9,-4,-3,0,-16
1514959790419202,-29,-28,-6,2,2,1,2,-1
1514959790441227,5,12,1,1,2,1,-2,4
1514959790441227,19,-31,-4,-11,-2,0,0,7
1514959790441227,22,30,4,4,-2,-1,0,13
1514959790441227,-1,9,1,1,-1,-1,-2,-3
1514959790455237,-30,-19,3,-2,-1,1,1,-11
1514959790455237,34,17,-1,-7,-1,-4,-2,8
1514959790463236,8,43,2,9,-1,-1,-3,1
1514959790463236,-10,-63,-8,23,-6,-6,1,-3
1514959790478257,-16,11,6,-34,6,3,2,-10
1514959790478257,-29,-24,-29,-10,-5,-3,-1,10
1514959790479245,-8,-13,14,-3,-8,-5,-8,-38
1514959790479245,23,33,15,8,4,-1,-1,21
1514959790502284,3,-6,-36,5,-4,-1,-2,2
1514959790502284,-3,3,9,-7,0,1,1,6
1514959790503271,7,-15,-2,8,0,-2,4,2
1514959790503271,47,37,-2,-12,2,-1,0,19
1514959790515273,-45,-29,14,16,-4,-5,-6,-13
1514959790515273,-17,2,-2,-17,4,1,-6,-18
1514959790523336,9,-2,-11,9,1,1,4,22
1514959790523336,-21,-6,18,6,0,3,-1,-9
1514959790538296,35,-14,-6,1,0,-2,0,-6
1514959790538296,61,32,1,4,-3,-4,-2,-7
1514959790539297,-35,-32,1,-5,0,1,-3,-9
1514959790539297,-61,6,-12,1,1,1,5,15
1514959790561319,-7,-13,6,17,-8,-5,-12,-36
1514959790561319,41,8,3,-2,2,-1,-6,-13
1514959790561319,-4,8,-3,-12,2,2,5,14
1514959790561319,27,-5,-6,-11,-7,-4,-7,-24
1514959790575329,-7,-34,-13,17,-3,1,5,16
1514959790575329,4,12,15,12,4,1,-2,-5
1514959790583328,-32,-30,-20,-16,-2,-2,-7,-12
1514959790583328,-9,29,0,-18,0,-5,-4,9
1514959790598329,21,3,-15,-2,-1,-1,-2,-11
1514959790598329,-16,2,27,4,-7,-6,-3,0
1514959790599329,-67,-21,-5,-17,-2,0,0,13
1514959790599329,20,-34,0,24,4,1,-1,-8
1514959790621355,-7,64,22,-7,1,-1,-1,5
1514959790621355,-9,31,1,-3,2,4,8,18
1514959790621355,4,14,-2,13,-4,-5,-8,2
1514959790621355,-15,-9,-7,-10,-7,-5,0,0
1514959790635379,-22,-1,0,-8,2,-2,-6,-10
1514959790635379,-8,9,-6,2,0,3,2,-11
1514959790643361,8,-14,-1,-3,-2,-2,1,2
1514959790643361,1,-9,1,11,-1,0,0,14
1514959790658371,42,33,-3,-5,7,4,8,17
1514959790658371,-47,-63,-14,-3,-8,-2,-5,-22
1514959790659373,14,-4,10,-16,0,-2,-6,-14
1514959790659373,29,91,-4,19,-5,1,2,8
1514959790681388,21,-5,10,-6,2,-3,-1,-1
1514959790681388,4,77,-14,-30,-6,-6,-1,5
1514959790681388,8,-17,-8,10,10,5,3,2
1514959790681388,18,1,7,7,-1,1,-1,-14
1514959790695397,-31,-4,45,8,-4,2,6,21
1514959790695397,13,6,-13,3,0,-1,3,2
1514959790703410,41,-14,19,-5,-10,-8,-8,-12
1514959790703410,-17,-16,-25,-7,-1,0,1,8
1514959790718426,30,31,-1,0,4,5,12,33
1514959790718426,-27,-77,1,-3,-3,-3,-14,-70
1514959790719432,-7,10,-12,1,-4,0,0,11
1514959790719432,-16,-22,5,-7,-1,-1,-2,-8
1514959790741447,-10,-7,-3,-12,-5,-1,-5,-14
1514959790741447,-26,-14,-9,11,-2,-5,-2,-9
1514959790742433,-40,5,10,-3,1,4,5,6
1514959790742433,4,3,-12,-19,-3,-2,0,17
1514959790764448,-54,-15,-14,4,-6,-4,-9,-26
1514959790764448,22,-1,7,2,8,3,6,21
1514959790765448,20,7,-8,3,-5,1,-1,-10
1514959790765448,-24,-29,-10,-2,0,0,0,30
1514959790778457,-37,-43,-6,-33,-2,-5,-9,-16
1514959790778457,-1,18,-13,25,-4,-2,3,27
1514959790779459,2,10,-21,-19,8,4,4,-7
1514959790779459,-27,2,-8,-13,-1,-1,0,-1
1514959790800490,40,-3,-2,5,-4,0,-1,-7
1514959790800490,15,-25,0,-4,1,-1,-4,9
1514959790801472,-14,6,-4,2,-2,-2,6,29
1514959790801472,30,0,2,6,3,2,-6,-3
1514959790824489,-33,-33,0,-3,-1,-3,-6,-26
1514959790824489,43,14,8,0,3,5,13,24
1514959790825490,-31,-41,-4,12,-3,-7,-9,-30
1514959790825490,27,-19,13,-1,2,-1,-3,-21
1514959790838499,10,28,0,9,0,2,5,15
1514959790838499,-43,-32,2,-3,-1,-1,-2,-4
1514959790839499,-5,-24,-26,-2,-9,-5,-3,1
1514959790839499,-15,9,31,10,2,2,-4,-23
1514959790861515,-44,-8,-16,7,-6,-1,-1,-13
1514959790861515,13,5,-12,-19,8,5,4,25
1514959790861515,4,7,34,12,-5,-5,-6,-38
1514959790861515,-8,-11,-9,-47,-5,-4,4,14
1514959790883532,45,22,-11,19,-7,-2,-4,-16
1514959790883532,2,-24,11,9,3,-2,-5,5
1514959790884531,50,50,10,-7,3,2,3,31
1514959790884531,-4,-12,-16,7,-3,-6,0,-10
1514959790906548,-17,-15,3,-9,1,-3,-4,8
1514959790906548,5,24,-4,2,-5,0,-3,7
1514959790907556,15,19,3,3,6,3,5,17
1514959790907556,-46,-10,8,13,-3,1,2,-3
1514959790920560,48,-7,-6,-9,2,-4,-4,-18
1514959790920560,-17,19,0,2,-1,0,-4,-14
1514959790921559,37,-4,8,4,-5,-3,4,23
1514959790921559,1,-8,5,15,-2,-1,0,5
1514959790944577,7,48,15,-25,-1,2,-1,-9
1514959790944577,-19,-7,6,-24,-7,-5,-2,-8
1514959790944577,-49,-47,-26,-4,-11,-7,-9,-18
1514959790944577,-9,-5,11,-1,-5,2,3,27
1514959790966592,1,-5,-24,16,6,-4,2,20
1514959790966592,33,7,5,-18,-1,2,3,0
1514959790967590,22,70,12,7,4,4,-3,-25
1514959790967590,-28,12,-6,14,2,-2,3,2
1514959790981599,-4,-49,-7,-14,-5,0,-4,-1
1514959790981599,16,25,-5,-10,-4,-2,-2,17
1514959790982605,7,6,-12,1,4,3,5,24
1514959790982605,-7,-15,5,-2,-3,-2,0,-3
1514959791004618,11,-3,-15,2,7,6,-5,-42
1514959791004618,-66,-18,6,12,-2,-1,0,5
1514959791004618,22,-43,2,0,-6,-6,0,1
1514959791004618,36,27,17,-19,-1,-2,-5,-14
1514959791018626,-6,17,0,6,6,7,10,21
1514959791018626,-16,-19,4,7,3,-1,-1,5
1514959791019627,-25,19,26,7,-4,-3,-2,11
1514959791019627,35,16,-36,-12,0,-1,0,-4
1514959791041643,-21,-29,5,44,-4,-7,-2,13
1514959791041643,33,7,19,-57,-6,3,-8,-41
1514959791042647,-5,-17,-26,5,-1,-3,-2,13
1514959791042647,15,39,23,4,1,1,-6,-44
1514959791063662,43,14,-3,1,4,5,8,35
1514959791063662,-32,-49,-8,17,-4,-5,-8,-25
1514959791064658,1,12,-24,-7,-1,1,-2,-22
1514959791064658,39,-43,-3,3,0,2,8,35
1514959791078669,2,0,0,-16,-8,-7,-6,-33
1514959791078669,-21,-5,-6,-4,3,0,-3,2
1514959791078669,-41,-1,7,0,7,5,5,29
1514959791078669,-15,-9,-21,-7,-9,-5,-2,-1
1514959791101685,-5,18,16,3,4,3,4,32
1514959791101685,26,14,-15,11,-7,-5,0,1
1514959791102685,30,-7,-26,-14,5,1,-1,5
1514959791102685,-13,17,-9,9,3,2,-2,0
1514959791124702,6,-21,14,-13,-4,-5,-5,-17
1514959791124702,0,-22,-42,-9,1,5,4,17
1514959791124702,8,10,35,1,-1,-2,-4,-11
1514959791124702,-35,-34,-37,20,-2,-2,-5,-10
1514959791138712,13,26,12,-18,-4,-4,4,27
1514959791138712,12,45,6,4,0,-4,-12,-60
1514959791139712,18,-25,11,2,-4,-1,3,16
1514959791139712,2,-25,-4,-21,-4,-9,-18,-50
1514959791162729,-14,48,15,4,0,1,4,26
1514959791162729,-71,-73,-15,18,-3,-2,2,5
1514959791162729,26,51,30,-7,-2,-2,0,-13
1514959791162729,0,11,33,14,-3,-4,-6,-10
1514959791183742,4,1,-39,-15,0,-1,-3,2
1514959791183742,13,29,1,9,1,-2,2,19
1514959791184743,-4,4,-12,-2,3,1,-4,-16
1514959791184743,-45,-25,24,17,-4,-3,-7,-19
1514959791198754,-27,-33,-7,-30,-9,-2,5,4
1514959791198754,-17,1,9,3,8,-1,-1,7
1514959791205758,-15,-21,-13,-3,-6,-4,-6,-49
1514959791205758,25,30,29,9,4,4,3,19
1514959791221769,-22,-66,-36,-18,-8,-5,-6,0
1514959791221769,16,11,12,4,-3,-3,-4,3
1514959791222769,-44,-26,-14,-2,0,0,-3,-4
1514959791222769,-11,-9,-1,-12,1,-1,5,2
1514959791243797,43,33,42,26,6,1,1,20
1514959791243797,-4,-50,-34,4,-8,-5,-4,0
1514959791244799,-3,4,0,-12,-2,-1,-2,-2
1514959791244799,3,3,-18,-10,-4,-2,-1,28
1514959791257794,-20,-16,-8,0,5,-1,-4,-48
1514959791257794,39,39,35,15,-3,-2,-1,2
1514959791265818,17,25,-1,-7,-1,0,1,7
1514959791265818,5,-12,-11,-4,1,0,-1,-11
1514959791281824,-17,10,18,-13,-5,-3,-2,-1
1514959791281824,39,-7,16,-13,0,2,10,25
1514959791282825,-20,11,5,17,2,3,-1,-9
1514959791282825,2,16,-38,-7,-2,-3,-5,37
1514959791304828,7,-7,-5,7,0,-3,-5,-21
1514959791304828,31,34,17,1,1,-1,6,14
1514959791304828,4,-41,-4,0,-2,-1,0,-2
1514959791304828,2,23,3,-6,2,1,-1,-9
1514959791318873,-9,9,13,3,-2,-4,-7,1
1514959791318873,-2,29,-25,-5,-3,-2,0,4
1514959791318873,-14,-26,-9,-1,1,-1,-4,-6
1514959791318873,27,-42,-8,11,-2,-2,-5,-66
1514959791341902,-5,8,-9,-16,1,3,0,3
1514959791341902,-33,-31,-2,-1,-1,-1,-5,-16
1514959791341902,-20,26,-5,-5,-2,1,1,12
1514959791341902,17,-31,-2,27,1,-3,2,4
1514959791363938,10,-18,-21,-9,-2,-1,-1,8
1514959791363938,-3,-1,2,0,2,2,-4,5
1514959791364903,5,10,20,-14,-6,-2,-1,6
1514959791364903,-17,3,-17,-13,-1,1,5,17
1514959791377966,26,26,2,20,5,4,8,64
1514959791377966,-58,-33,-1,12,-1,-3,4,19
1514959791385975,7,4,-8,-8,-6,-4,-1,5
1514959791385975,-3,11,18,-19,2,3,3,11
1514959791401974,-5,13,13,-8,-3,-5,-2,2
1514959791401974,-3,-51,-15,5,2,1,-3,1
1514959791401974,24,5,16,14,-4,-5,-6,-20
1514959791401974,6,19,8,-7,4,-1,5,6
1514959791423991,-11,-5,-45,1,-2,-2,-7,10
1514959791423991,-4,26,7,-6,-3,-1,1,-22
1514959791424977,11,-6,16,2,0,-3,-4,-2
1514959791424977,30,-5,6,-8,-1,-3,-2,5
1514959791438003,-44,-42,-6,8,-4,-4,-4,-9
1514959791438003,48,43,2,4,-1,0,-7,-37
1514959791446001,4,18,-11,-4,-2,-1,1,-7
1514959791446001,-39,-19,17,-1,-3,0,-1,18
1514959791462037,-15,-28,23,2,-2,-4,-2,-22
1514959791462037,28,21,-27,-26,-1,1,2,14
1514959791462037,-50,-11,19,11,-4,-1,-2,6
1514959791462037,7,3,-31,2,1,-1,-1,-7
1514959791484057,28,3,-1,3,-3,0,3,-11
1514959791484057,-51,-27,-7,-1,0,-3,-2,-7
1514959791485057,32,-1,-4,-10,2,1,2,15
1514959791485057,-50,5,2,5,-1,2,-5,-48
1514959791498067,21,0,-3,7,-1,-2,-2,-19
1514959791498067,56,15,-2,2,2,3,6,6
1514959791506090,-4,-21,4,-4,-1,-3,-3,-11
1514959791506090,-11,6,-68,-5,-5,-4,2,24
1514959791522079,-4,0,25,0,2,1,-7,-49
1514959791522079,1,23,28,-4,-3,-5,-4,-14
1514959791522079,8,4,-25,-7,5,4,7,31
1514959791522079,1,14,20,-13,-2,-1,-11,-51
1514959791544096,7,-9,-14,10,-3,-6,2,21
1514959791544096,4,51,-17,-4,3,1,-3,-15
1514959791545097,-14,-18,10,8,1,1,3,-4
1514959791545097,27,20,-5,-4,-4,-1,1,37
1514959791558121,-29,12,15,6,-5,0,3,9
1514959791558121,-23,0,3,0,11,5,2,-7
1514959791566164,-29,-32,-9,-5,-4,-4,-4,-1
1514959791566164,15,53,33,8,5,2,6,8
1514959791581135,-27,5,-21,-14,0,3,0,-3
1514959791581135,2,8,29,10,-3,-1,4,21
1514959791582135,18,27,17,13,-2,-5,-9,-30
1514959791582135,1,-51,-11,-24,0,-3,-10,-56
1514959791604205,-10,-5,-12,-22,8,4,5,28
1514959791604205,10,-1,-3,3,-3,0,1,17
1514959791605139,4,-21,-5,-11,-4,-3,-7,4
1514959791605139,-30,20,21,23,-4,-1,3,12
1514959791627216,19,-11,-6,-4,3,2,-2,-8
1514959791627216,-1,-20,-7,-1,-2,-4,-3,-6
1514959791628159,19,5,-3,-15,0,-1,0,-3
1514959791628159,-21,-9,-7,9,-2,2,1,24
1514959791642164,13,4,2,-11,-5,-5,0,-9
1514959791642164,-22,-3,18,5,-1,-3,0,8
1514959791642164,-28,14,-8,14,1,1,4,23
1514959791642164,23,-25,-12,-13,-2,-4,-1,2
1514959791664201,-6,38,21,9,-3,-2,1,-4
1514959791664201,12,-31,-46,-7,-1,0,0,12
1514959791665181,6,59,-14,13,-2,0,-2,-27
1514959791665181,-21,-65,20,-16,1,-3,0,-11
1514959791686196,-9,9,8,-11,5,2,0,1
1514959791686196,-1,-21,-11,-8,-5,-4,-2,0
1514959791687197,2,-11,-6,4,-1,-2,3,1
1514959791687197,15,24,-5,12,-1,1,-4,-6
1514959791701262,-18,-37,-5,-7,-3,-1,-3,2
1514959791701262,-49,-17,-10,19,-1,-3,-5,4
1514959791702221,56,16,6,-20,1,1,4,6
1514959791702221,-7,10,13,15,-3,3,1,-2
1514959791724231,6,-18,-23,-16,-3,-3,0,25
1514959791724231,3,-23,16,7,-7,-4,-8,-36
1514959791725223,-11,-26,0,-18,3,2,-1,-3
1514959791725223,16,39,10,18,-3,0,7,32
1514959791746243,-51,11,-13,13,-2,0,-13,-45
1514959791746243,7,-14,11,-21,-2,-2,-3,3
1514959791747260,-13,-5,0,6,-3,1,-1,-6
1514959791747260,24,-8,-7,-11,2,0,-1,0
1514959791760247,-30,28,12,7,-3,-2,0,10
1514959791760247,18,-9,30,7,-1,-3,-9,-34
1514959791769255,-31,-8,-31,1,-1,-3,3,33
1514959791769255,9,-8,-11,-11,2,2,2,13
1514959791784265,7,-15,-21,-2,-5,-3,-4,-5
1514959791784265,5,19,29,-3,-1,1,5,22
1514959791785292,7,-7,-23,-6,-1,-3,-4,-27
1514959791785292,4,-2,-2,20,-1,-1,-5,-20
1514959791806279,-45,-14,4,-5,-2,-1,2,11
1514959791806279,35,9,-19,-5,-4,-3,0,3
1514959791808281,-2,-32,3,-2,4,2,0,3
1514959791808281,-20,-11,-11,-7,-4,-3,-6,-33
1514959791820291,38,12,8,5,1,-2,-6,-32
1514959791820291,-4,-27,-20,0,1,0,2,4
1514959791829301,-25,4,-18,-1,-4,-1,-2,-8
1514959791829301,15,15,13,-1,-5,-4,-1,13
1514959791844311,18,-60,-21,-21,-1,-3,-4,7
1514959791844311,-20,28,-16,-7,-2,1,1,-9
1514959791845308,-35,21,20,7,0,-3,0,14
1514959791845308,3,-21,-13,-6,-3,-2,-2,2
1514959791866359,16,37,40,9,-2,-1,-4,-14
1514959791866359,-32,16,4,2,-1,-2,-5,-10
1514959791868323,-4,7,-5,1,-3,0,-1,8
1514959791868323,26,10,10,-8,-1,1,1,2
1514959791881332,10,28,7,12,5,2,6,-8
1514959791881332,-1,-1,6,-9,-2,-3,1,8
1514959791887351,32,7,19,7,5,3,-2,8
1514959791887351,-34,-1,-3,-7,-3,0,1,22
1514959791904404,44,12,6,3,-3,0,3,20
1514959791904404,-45,-32,-20,-6,-4,-1,-4,-18
1514959791905349,13,-11,-18,-3,-7,-3,2,16
1514959791905349,-6,-3,10,-1,2,-1,3,-10
1514959791927367,7,31,-10,-1,0,-1,-1,5
1514959791927367,-22,-10,6,24,1,-2,0,7
1514959791929369,-2,20,3,-28,-1,-2,-1,-14
1514959791929369,5,25,22,-9,-2,-6,-3,27
1514959791940377,23,-28,-24,12,-4,-1,-3,9
1514959791940377,8,25,16,2,3,1,0,7
1514959791949380,5,-15,13,3,-2,-4,-6,-18
1514959791949380,-16,-14,-17,-2,-4,-1,-5,-17
1514959791964427,-3,5,11,-6,6,3,4,9
1514959791964427,8,-9,1,-3,-5,-1,-1,-12
1514959791965393,11,6,5,-5,-1,0,-2,7
1514959791965393,28,-5,-19,-8,-2,-6,-7,-12
1514959791986409,-29,-34,6,24,-2,-5,-5,-21
1514959791986409,19,10,-57,-8,-1,-2,-3,-8
1514959791988413,-4,2,11,-22,1,0,2,17
1514959791988413,-3,-6,-1,-1,0,-2,-2,-8
1514959792000473,5,-27,-4,7,-1,-1,3,3
1514959792000473,8,4,23,0,1,3,5,10
1514959792009423,9,-2,-15,6,-2,-1,-5,7
1514959792009423,-9,-22,-28,-5,-1,1,3,6
1514959792024435,-5,-10,5,0,2,0,2,9
1514959792024435,20,-2,14,2,-1,0,-8,-9
1514959792026445,-9,-31,-15,-5,5,5,5,22
1514959792026445,8,-4,14,7,4,3,5,10
1514959792046505,-20,15,-5,0,-3,-4,0,8
1514959792046505,12,19,-22,1,-8,-3,1,13
1514959792048460,11,25,7,-3,-8,-5,-5,-8
1514959792048460,-11,-18,-2,16,-2,0,-1,-13
1514959792060481,0,17,1,-7,4,0,1,4
1514959792060481,17,-9,-3,-21,-5,-5,0,26
1514959792067485,-4,-11,-3,12,-3,-2,-2,-16
1514959792067485,-16,5,3,-4,0,5,0,9
1514959792084491,14,26,-1,18,-6,-2,-3,7
1514959792084491,-31,-3,9,-7,4,1,-3,-17
1514959792085479,-8,9,-7,3,0,-1,3,-3
1514959792085479,5,15,9,-7,-1,-1,6,14
1514959792106518,-15,-2,3,-2,0,-1,-7,-48
1514959792106518,-8,-20,-1,-17,3,0,-1,6
1514959792108495,0,-8,3,9,0,-2,1,5
1514959792108495,-41,-35,1,1,1,-1,-2,-1
1514959792121503,2,72,15,-9,-1,-1,1,12
1514959792121503,-13,-30,2,4,-5,-2,-3,3
1514959792127510,9,29,11,-5,-1,-2,-6,-44
1514959792127510,19,-34,-51,-12,-4,-4,-3,2
1514959792144519,-58,-92,-28,-6,-1,-1,-4,6
1514959792144519,22,29,18,-6,5,3,1,6
1514959792145522,11,33,36,12,-2,-1,4,1
1514959792145522,1,-6,-11,-6,-1,0,0,-7
1514959792166559,13,7,5,0,-6,-3,-4,8
1514959792166559,-7,14,-19,17,2,1,-6,-38
1514959792168556,-8,-35,-7,-8,-2,-3,3,61
1514959792168556,-22,23,24,-4,0,0,-4,-13
1514959792180545,28,1,-3,-4,-2,-3,3,11
1514959792180545,8,-27,3,0,-4,-1,0,2
1514959792189550,2,20,-15,3,3,4,4,5
1514959792189550,-5,-12,17,-1,-2,-3,-7,-20
1514959792204562,11,-1,8,-14,-5,-2,1,-12
1514959792204562,-1,4,-6,3,-2,-1,-1,13
1514959792205564,21,-10,0,8,1,-1,-4,-16
1514959792205564,-12,5,-36,5,-5,-4,-1,8
1514959792226599,-3,-13,0,5,-1,2,-1,-22
1514959792226599,27,30,-17,-14,-1,1,7,14
1514959792229578,-35,-23,0,6,-1,0,-4,-8
1514959792229578,-22,-23,16,1,-4,-1,4,19
1514959792240587,7,-13,-8,-11,3,2,1,13
1514959792240587,-18,14,20,1,0,-1,-1,3
1514959792249594,-18,-17,-37,7,-3,0,-3,-4
1514959792249594,25,45,7,-4,-1,0,1,0
1514959792264604,0,-13,-11,-3,-1,1,-1,-18
1514959792264604,2,-18,2,0,-3,-3,-2,-2
1514959792265605,14,-17,-2,-9,-2,-1,-2,-9
1514959792265605,-38,27,17,8,6,1,4,24
1514959792286621,1,18,5,-5,-6,-7,-7,-16
1514959792286621,25,-6,-7,3,1,-1,1,5
1514959792288622,-13,-16,1,-3,-7,-5,-9,-34
1514959792288622,9,1,-2,-18,0,2,-3,-5
1514959792300629,-9,16,2,6,3,2,2,12
1514959792300629,-21,11,5,-7,-1,-1,2,-3
1514959792315640,-4,34,29,10,0,-1,0,10
1514959792315640,27,-45,-11,16,-2,-1,-4,5
1514959792323703,18,14,0,-18,1,1,1,13
1514959792323703,-23,-35,-2,-5,-1,-2,-4,-10
1514959792325646,32,5,3,4,-2,-1,1,-3
1514959792325646,-7,53,8,1,6,1,-1,2
1514959792346661,10,-40,-24,8,-2,-4,-4,-3
1514959792346661,-3,-31,-23,0,-2,-2,-7,-2
1514959792348665,-18,11,-3,-9,-2,-4,3,20
1514959792348665,-2,2,13,1,-1,-1,-4,-17
1514959792359671,6,-11,14,8,4,2,2,-4
1514959792359671,-19,22,2,-5,-3,-1,1,5
1514959792369745,2,-11,-19,2,1,-2,-1,-11
1514959792369745,16,6,8,-13,0,-3,-1,0
1514959792383755,-24,-14,12,8,1,-2,-4,6
1514959792383755,7,-8,-21,-7,-5,-2,-3,-14
1514959792385756,24,12,4,-8,1,2,2,20
1514959792385756,-39,5,-17,-3,-4,-4,-9,-23
1514959792406789,-3,5,22,-3,-1,-1,-1,-11
1514959792406789,1,11,7,16,-2,0,1,5
1514959792407773,0,6,8,-13,-2,-4,-4,-6
1514959792407773,14,-14,-9,-5,8,3,5,-8
1514959792419798,-2,16,-37,-9,-5,-5,0,21
1514959792419798,9,6,8,11,-1,1,-5,-4
1514959792428794,-4,3,1,-2,4,2,-2,-10
1514959792428794,21,-7,-6,10,-3,0,3,-3
1514959792443804,-8,0,1,-1,3,-1,4,6
1514959792443804,-11,5,9,3,3,2,3,3
1514959792445788,-6,-25,-17,4,-2,-1,-7,-20
1514959792445788,24,5,10,-3,-2,-1,1,11
1514959792466817,-12,7,-34,-2,-3,0,-2,3
1514959792466817,-1,-41,12,-11,-1,-4,-2,2
1514959792467817,12,-10,7,-1,-3,-2,-1,2
1514959792467817,-9,0,5,7,-2,-2,1,0
1514959792479823,20,40,30,5,2,1,4,-8
1514959792479823,4,-3,-23,-13,0,-4,-1,-8
1514959792488838,-14,11,-5,-6,-1,0,-1,-3
1514959792488838,-16,-25,4,-4,-5,-4,-4,-11
1514959792503830,16,-21,0,7,-4,0,-1,-2
1514959792503830,-4,-1,-13,0,3,1,1,9
1514959792505836,-22,19,0,8,-5,-2,-4,-1
1514959792505836,-1,22,-24,-13,1,0,0,1
1514959792526902,-18,-14,-8,-6,-3,-2,0,21
1514959792526902,-4,14,11,-1,1,0,-3,-31
1514959792528847,3,-6,2,3,1,0,-1,-7
1514959792528847,-4,-10,19,17,-7,-2,0,5
1514959792539884,8,-5,-11,-10,-3,-2,-1,-10
1514959792539884,7,23,7,-12,-4,-3,1,12
1514959792548890,-13,-6,-12,-8,-1,-2,-4,8
1514959792548890,25,9,10,8,-2,-2,0,-9
1514959792563901,22,-16,-3,4,1,-2,-3,-6
1514959792563901,-6,-16,2,3,2,2,0,16
1514959792565874,-7,3,6,16,-2,-2,1,-2
1514959792565874,12,-13,-9,-12,2,2,2,15
1514959792586918,10,-15,4,4,-4,-4,-8,-30
1514959792586918,15,-12,-29,-3,0,-1,4,12
1514959792587890,-23,19,13,4,-3,-2,1,14
1514959792587890,-3,52,20,-13,2,-1,-3,0
1514959792599914,6,-17,-10,-1,0,0,3,4
1514959792599914,17,21,29,17,2,1,-3,-15
1514959792608924,-9,-17,-31,-16,0,1,3,11
1514959792608924,-16,-38,-31,1,-3,-3,-11,-38
1514959792623925,0,-22,-5,-5,-1,-3,-3,6
1514959792623925,-11,9,-5,-4,-4,-3,-5,-4
1514959792625918,18,-13,4,-3,2,1,1,-4
1514959792625918,2,10,6,-4,-2,-2,-4,6
1514959792645932,-33,1,-5,2,1,-1,1,-5
1514959792645932,16,-6,-11,4,1,1,1,8
1514959792653942,4,14,23,3,-1,-1,-2,-10
1514959792653942,-49,1,-4,-10,-5,1,0,-8
1514959792669002,1,11,0,1,-1,-3,-4,3
1514959792669002,-16,7,-6,-7,1,0,2,1
1514959792670960,9,-17,-4,-4,-3,-1,-1,1
1514959792670960,24,7,21,7,-1,-1,6,5
1514959792683978,-5,5,-6,5,-2,2,3,10
1514959792683978,-10,-6,-32,-14,-6,-2,-3,-3
1514959792685981,14,-2,-3,-2,1,2,-3,-14
1514959792685981,33,-42,-71,-5,-3,-5,0,3
1514959792707002,1,23,20,0,0,2,1,3
1514959792707002,6,6,19,4,-2,-2,-3,-8
1514959792707979,20,3,22,-2,-2,0,1,6
1514959792707979,10,10,11,6,4,3,4,15
1514959792730007,-25,25,-4,-1,0,0,-2,-4
1514959792730007,-23,-30,12,-2,2,1,1,-8
1514959792730993,10,13,12,-10,-3,-3,-2,-1
1514959792730993,-18,-10,0,5,3,3,0,-2
1514959792744017,22,14,3,2,0,0,2,4
1514959792744017,16,7,13,-1,-3,0,-1,-4
1514959792746003,-16,13,10,20,-2,-3,3,2
1514959792746003,4,-11,15,-18,-6,0,0,1
1514959792767015,-5,-10,13,-15,14,3,1,-4
1514959792767015,11,13,-14,-2,-7,-5,0,14
1514959792768015,11,1,-11,-6,-2,-3,-2,-1
1514959792768015,-25,-2,21,10,-3,-4,-4,-10
1514959792797046,-5,13,-6,15,-2,0,-3,-10
1514959792797046,-14,9,18,-5,2,-1,-7,-21
1514959792798037,-12,-32,-14,-18,-1,-4,-2,1
1514959792798037,9,26,-1,5,1,0,3,12
1514959792811066,-21,-20,-15,-15,-5,-2,-7,-33
1514959792811066,3,15,-21,6,2,-1,2,7
1514959792813047,6,-18,-40,1,-4,-3,-4,-13
1514959792813047,-19,-22,-2,-5,0,-1,4,-6
1514959792827057,6,0,9,-13,-3,-3,-6,-8
1514959792827057,9,31,24,10,-2,0,2,15
1514959792829059,-8,-20,-15,-1,5,4,1,-5
1514959792829059,-9,15,1,5,-3,-3,-3,-13
1514959792849099,0,-15,-4,-5,-3,-1,-1,-2
1514959792849099,-2,-15,-1,-3,-1,-1,-2,10
1514959792851090,-2,-2,4,-11,1,-2,0,9
1514959792851090,4,1,6,20,1,-1,-2,-9
1514959792863085,20,7,8,-22,-1,-1,4,7
1514959792863085,-17,-27,-9,-4,-4,-2,-10,-5
1514959792870150,12,44,-15,5,3,5,5,21
1514959792870150,-2,-36,-24,-2,0,-1,-6,-1
1514959792886102,-11,-8,12,12,-2,-2,3,-4
1514959792886102,-11,-4,17,-20,-5,-2,0,12
1514959792888102,20,6,-19,0,-1,-2,-1,-1
1514959792888102,-13,-6,-27,-8,-3,-6,-5,-13
1514959792909116,0,14,-2,8,1,2,1,31
1514959792909116,-1,-11,0,13,0,-3,-7,-26
1514959792911127,6,-16,-10,-6,0,2,2,-4
1514959792911127,-3,52,35,-12,-2,0,-2,0
1514959792923131,-8,-42,-27,5,2,-2,-3,3
1514959792923131,11,40,12,0,-1,0,2,-5
1514959792930139,-37,-1,16,7,0,0,-2,8
1514959792930139,5,-7,-22,4,-5,-1,-1,4
1514959792946143,11,-6,-14,-13,0,-3,1,4
1514959792946143,0,-1,13,7,4,2,-1,-13
1514959792948144,-4,-22,3,-5,-1,-2,-3,0
1514959792948144,13,13,27,-8,-2,-3,0,-1
1514959792969181,-34,-5,-6,9,-1,-2,-2,-7
1514959792969181,1,-6,-7,3,-3,2,4,25
1514959792970159,-17,-15,3,-1,-1,-2,-5,-17
1514959792970159,8,-23,-6,-15,3,-2,-7,1
1514959792983168,-12,5,-20,-6,-7,-3,-4,-29
1514959792983168,13,2,26,2,-2,-2,0,16
1514959792990173,-65,2,-4,-7,-1,-1,-6,-24
1514959792990173,1,-2,-5,10,0,1,1,1
1514959793006198,25,22,39,-3,-2,3,0,3
1514959793006198,-18,-25,-16,12,2,1,1,-8
1514959793008186,29,2,16,-9,-8,-2,-2,3
1514959793008186,-12,-11,-11,-11,1,0,0,2
1514959793029200,25,-10,5,12,0,-3,-5,0
1514959793029200,-6,48,15,-1,-2,-3,0,-6
1514959793030210,19,-29,-11,3,0,2,1,-5
1514959793030210,20,10,6,-5,-1,-3,5,23
1514959793043211,-5,-40,-10,-4,-1,-2,-1,-18
1514959793043211,2,-2,-7,2,-4,-3,-5,17
1514959793050236,4,13,-5,-10,1,2,2,-14
1514959793050236,-8,-15,5,5,0,2,0,4
1514959793066249,-4,4,-6,-1,0,0,-4,-1
1514959793066249,6,-5,2,-2,-4,-2,-1,-9
1514959793068237,-18,5,3,4,-1,-2,-3,5
1514959793068237,1,10,3,-3,-5,-4,-1,-8
1514959793089258,1,-13,9,12,-2,-3,-6,-27
1514959793089258,-4,-22,-21,-12,5,1,2,3
1514959793091250,15,19,20,3,-5,-4,2,17
1514959793091250,0,-7,11,0,1,1,-1,-21
1514959793103282,21,17,-15,-3,-3,-1,3,24
1514959793103282,14,-6,10,-7,-4,-5,-6,-14
1514959793110274,-32,1,1,6,-2,-4,-6,-12
1514959793110274,48,14,13,0,2,0,0,12
1514959793126270,-21,13,-36,-10,-4,0,2,22
1514959793126270,-21,-32,-18,0,0,2,3,-13
1514959793129283,20,56,41,-3,0,0,1,9
1514959793129283,-3,-12,-17,0,-2,-2,-4,-2
1514959793156301,-7,15,3,-5,0,1,0,5
1514959793156301,5,-12,-32,6,-2,0,3,4
1514959793158293,-4,-15,-4,-4,-1,-2,-4,0
1514959793158293,-16,-8,3,5,0,1,0,-4
1514959793163296,-3,8,21,-2,-6,-4,0,1
1514959793163296,-13,-1,-3,-9,5,0,-3,3
1514959793172351,-4,3,-20,0,0,2,0,-1
1514959793172351,-10,14,19,3,-2,-3,-1,6
1514959793186370,-20,-12,-12,-1,3,3,2,8
1514959793186370,31,9,-32,-2,-3,-3,-5,-15
1514959793188360,9,-36,8,1,-3,-1,4,17
1514959793188360,-32,13,-28,-7,2,2,-7,-30
1514959793209386,18,26,24,5,1,-1,0,10
1514959793209386,-17,14,8,1,-3,-1,4,10
1514959793210390,19,-4,-21,-8,3,3,3,7
1514959793210390,6,-7,7,5,-1,-4,-7,-30
1514959793222395,1,-6,9,4,1,1,0,-1
1514959793222395,0,27,48,9,-3,0,-1,-2
1514959793231403,-9,3,-30,-19,-2,1,-2,2
1514959793231403,-8,-26,-42,-3,-2,-2,2,11
1514959793246436,-4,-13,4,2,-4,-2,-3,0
1514959793246436,-1,-11,-10,4,3,1,-1,-6
1514959793248436,-7,15,-19,-18,-3,-3,-4,-15
1514959793248436,9,-15,7,-4,-1,1,0,8
1514959793269473,-2,-2,-18,5,-4,-3,2,0
1514959793269473,4,13,7,4,5,2,0,5
1514959793270420,14,-22,21,17,2,0,0,-6
1514959793270420,-6,4,-14,-8,-2,-2,3,6
1514959793282439,-11,-5,10,-15,1,1,-7,-29
1514959793282439,13,10,-2,8,0,0,3,4
1514959793291435,4,-11,-4,2,-3,-1,-4,-9
1514959793291435,7,28,17,-2,-2,-8,-10,3
1514959793306454,-2,-47,-12,2,-2,-4,-2,6
1514959793306454,6,15,16,-3,0,3,-4,-6
1514959793308446,-12,-14,-2,9,0,-3,-6,-1
1514959793308446,6,3,-20,0,-1,4,7,5
1514959793329470,7,-8,-12,-7,-3,-3,-1,4
1514959793329470,5,-9,-25,-11,-2,1,1,6
1514959793330461,-10,7,3,10,1,-3,1,5
1514959793330461,0,-19,20,-1,-3,-1,-3,-7
1514959793342469,20,10,-32,-1,8,1,-1,-1
1514959793342469,-29,-21,10,-8,-3,-2,0,7
1514959793351489,19,15,8,4,-2,2,0,-16
1514959793351489,-19,-5,-7,12,-5,-4,-1,5
1514959793366489,-5,8,22,-15,4,2,3,2
1514959793366489,4,-16,-13,-9,-2,-1,-2,-5
1514959793368489,-11,-8,-1,-6,1,-3,3,3
1514959793368489,-7,-9,8,9,-2,-6,-9,-9
1514959793389528,-20,-5,21,1,-2,3,5,12
1514959793389528,-15,9,-2,-3,-4,-3,-3,-25
1514959793390509,9,-19,8,2,-1,1,0,23
1514959793390509,13,33,29,-3,2,5,5,0
1514959793402537,9,-16,-40,5,-6,-1,-1,4
1514959793402537,-8,14,1,-11,0,-3,-3,0
1514959793411518,-2,-17,6,-4,-6,-1,0,-1
1514959793411518,1,4,-2,-5,1,-3,2,10
1514959793426541,3,-38,-13,1,0,-2,-6,-13
1514959793426541,1,35,32,2,-3,-1,2,-5
1514959793428531,31,-18,-24,3,-2,-4,-4,1
1514959793428531,-14,-36,8,-7,-2,0,1,-3
1514959793449545,-5,13,-11,2,0,-3,-5,-20
1514959793449545,2,-12,3,-16,2,2,7,13
1514959793450547,-32,23,4,-3,1,-3,-6,12
1514959793450547,4,6,29,6,1,4,-1,-9
1514959793462566,0,1,-5,11,-3,-1,2,0
1514959793462566,16,-18,-13,-1,-3,0,-4,6
1514959793479577,-33,23,5,4,-2,-3,-1,-20
1514959793479577,14,-4,-20,-7,1,2,3,21
1514959793486582,-17,41,23,1,-2,-2,0,-3
1514959793486582,-6,7,1,9,1,-1,-2,8
1514959793488584,-14,-38,-20,0,-4,-1,0,-12
1514959793488584,-3,19,-16,-2,-2,-6,-4,-8
1514959793508587,11,35,35,-5,-2,0,-1,2
1514959793508587,-8,-38,-37,-3,-4,-1,-5,2
1514959793510588,8,1,-18,1,-1,-1,0,-10
1514959793510588,-12,6,-12,6,2,2,-3,-8
1514959793522605,23,4,19,-15,1,-1,-1,11
1514959793522605,-5,5,16,2,6,-2,-2,-4
1514959793531603,-5,4,4,2,-5,-4,-3,-5
1514959793531603,4,11,1,-6,-2,-2,0,3
1514959793546635,-7,-16,-26,6,-5,-5,-1,-1
1514959793546635,10,-17,-35,2,-7,-7,-2,-11
1514959793547638,-6,-9,-5,-18,-4,0,-3,5
1514959793547638,9,7,-12,2,1,0,-1,-7
1514959793568682,-5,9,34,-6,1,-1,-1,7
1514959793568682,-15,-28,-14,9,-3,-2,-2,-20
1514959793570682,4,7,3,-1,-1,-1,-5,3
1514959793570682,4,-4,-8,-1,0,1,1,-2
1514959793591715,14,-12,-9,4,-2,-1,-2,-2
1514959793591715,-14,1,28,-7,-1,-1,-4,-8
1514959793592715,34,12,-6,7,7,5,3,3
1514959793592715,-37,-19,2,-5,-4,-3,-6,7
1514959793606725,3,7,-4,1,4,1,14,-12
1514959793606725,-4,2,0,3,-5,-2,-9,15
1514959793607737,1,-2,7,3,-3,-9,-1,0
1514959793607737,8,14,-27,-17,4,9,5,-1
1514959793628750,-18,15,3,5,-6,-8,-11,9
1514959793628750,11,-25,-22,-3,-1,0,11,8
1514959793630750,-24,14,22,11,2,3,-6,-8
1514959793630750,5,-22,-13,-10,1,3,3,5
1514959793651759,-21,-2,-4,3,-2,-3,-6,5
1514959793651759,5,26,29,7,1,-1,1,-7
1514959793652757,-3,-2,-15,1,-4,-4,-2,6
1514959793652757,-9,-3,8,-21,-4,-1,3,4
1514959793666782,13,20,16,-6,-1,-1,-8,-4
1514959793666782,-5,-26,-16,-4,-7,-6,-3,4
1514959793667767,12,-14,8,0,2,3,13,-3
1514959793667767,-12,1,0,9,-6,-8,-8,-3
1514959793688833,20,4,-7,4,1,-3,0,13
1514959793688833,-5,-27,13,-11,1,1,-2,1
1514959793690796,38,33,29,-11,-5,-2,-6,-6
1514959793690796,14,-19,-10,18,0,-2,-1,-6
1514959793711816,-8,11,-16,0,-1,3,0,1
1514959793711816,-10,18,21,-1,3,1,-4,-6
1514959793712811,-9,2,2,5,3,5,4,14
1514959793712811,-23,0,5,7,-4,-1,2,-9
1514959793726824,31,-18,-4,-9,-1,-4,-5,0
1514959793726824,-10,22,3,-6,2,0,-4,-17
1514959793728811,-44,-17,-24,-2,-4,0,3,3
1514959793728811,23,1,-6,-13,-2,-3,-2,-7
1514959793748850,-14,-10,-8,7,0,6,7,5
1514959793748850,10,-1,-10,-6,0,1,-4,3
1514959793750852,3,-10,7,-13,-4,-3,-3,-15
1514959793750852,-28,-15,14,13,-4,-6,-7,-3
1514959793771851,-12,-11,-24,-7,-3,0,1,-16
1514959793771851,-4,16,3,-1,-1,1,-3,7
1514959793772842,36,22,2,10,1,-3,2,-5
1514959793772842,-5,-20,-6,-7,-2,-1,-5,6
1514959793793896,-7,-1,32,-2,-4,-3,-7,-20
1514959793793896,25,7,-4,3,0,0,5,0
1514959793795859,-17,-28,-8,-1,-2,-3,-4,7
1514959793795859,10,-11,3,-1,2,1,-3,-2
1514959793808873,-28,8,-6,0,1,1,-2,-11
1514959793808873,-5,-11,-12,0,0,1,3,-1
1514959793810878,15,13,34,2,-4,-3,-2,9
1514959793810878,-20,-22,-26,2,4,0,-5,-23
1514959793831893,3,46,25,10,-3,-3,-1,-5
1514959793831893,-16,18,4,-17,2,4,5,9
1514959793832884,9,-21,-15,-3,0,-5,-8,6
1514959793832884,6,24,9,3,-1,2,9,5
1514959793845903,11,-2,-8,4,-1,-3,0,-1
1514959793845903,-7,-3,20,-1,-6,-4,-4,5
1514959793852964,-10,1,6,2,-3,-1,-6,-11
1514959793852964,38,10,11,-7,-1,-1,-1,2
1514959793869029,-5,-8,-44,-11,-2,1,10,13
1514959793869029,-6,-1,15,6,-2,-2,-7,-18
1514959793870975,9,-1,-21,1,0,1,4,-8
1514959793870975,-13,-12,-8,-7,-6,-3,-3,10
1514959793891989,-7,-40,-49,-11,0,-2,-1,-3
1514959793891989,16,9,-1,34,-5,-3,-4,3
1514959793892994,-4,-20,-12,-39,7,5,3,-3
1514959793892994,-22,-28,12,3,-2,-5,-1,4
1514959793905998,-11,-15,17,6,2,-2,-3,-4
1514959793905998,12,6,-18,1,-2,-5,-1,4
1514959793913023,-26,10,4,18,-4,-3,-4,-13
1514959793913023,35,-17,-9,-6,1,3,3,13
1514959793929024,-40,20,36,-7,1,2,0,-1
1514959793929024,0,-26,-14,2,0,-1,2,17
1514959793931025,8,18,13,2,-3,-2,2,5
1514959793931025,-7,23,3,-2,-1,-1,-4,-14
1514959793952044,16,-6,22,5,1,2,-1,0
1514959793952044,28,-15,-23,-14,2,0,1,2
1514959793953033,-7,11,-5,-6,-4,-5,-8,-15
1514959793953033,-9,-11,-2,3,-4,-7,2,-4
1514959793966041,-1,5,18,5,4,4,2,7
1514959793966041,-20,-29,-35,-13,0,-3,-5,1
1514959793973072,2,-11,11,14,5,3,3,-4
1514959793973072,8,15,-1,-3,2,1,0,-2
1514959793989058,0,-18,15,2,-4,-4,-4,0
1514959793989058,18,-17,-28,-8,-3,-1,2,-7
1514959793991058,-40,-1,-7,2,-1,-1,-4,-20
1514959793991058,-1,19,-12,2,-5,-1,1,10
1514959794012087,19,4,21,-2,-2,0,-4,7
1514959794012087,-29,29,-25,-12,-5,-6,-3,1
1514959794013074,-14,-13,-21,1,-4,-4,-2,-13
1514959794013074,6,6,3,0,-2,1,6,-7
1514959794026084,-8,-2,-14,-12,2,-1,-10,-9
1514959794026084,1,8,17,8,-1,2,0,10
1514959794033088,16,9,-3,-1,0,2,-3,17
1514959794033088,5,6,31,0,-3,-7,-2,-6
1514959794049128,-4,-12,-54,-10,-3,-2,-1,4
1514959794049128,4,5,33,8,4,1,3,-22
1514959794051112,-11,-14,-32,-1,-3,1,6,16
1514959794051112,-5,-19,-7,2,3,2,-4,3
1514959794072117,-6,-27,-9,4,-4,-4,0,-3
1514959794072117,-4,35,16,-1,-1,-3,-1,2
1514959794073118,5,4,9,-6,-1,0,-1,-6
1514959794073118,-16,-7,-23,-1,-2,-1,-5,-11
1514959794085139,-11,15,6,-2,1,-1,3,13
1514959794085139,-4,-29,12,7,2,3,-2,-13
1514959794094131,20,0,-2,4,-1,-4,1,3
1514959794094131,11,18,1,-1,-3,-3,-3,6
1514959794109143,6,13,-5,10,4,3,6,3
1514959794109143,-27,-8,11,2,0,4,2,5
1514959794110157,-2,10,22,-17,-6,-9,-4,-4
1514959794110157,-11,10,18,-8,1,1,-1,-5
1514959794131157,-1,-3,-1,2,-4,-2,-2,-7
1514959794131157,44,14,-35,-7,-1,-3,0,10
1514959794133158,-16,-22,23,0,2,1,-4,-20
1514959794133158,-16,-2,-15,9,-3,-2,2,9
1514959794145167,-5,11,11,-5,1,0,-4,-9
1514959794145167,-11,-17,11,-1,-2,-3,-2,0
1514959794154173,3,-7,-7,2,2,4,3,-7
1514959794154173,15,11,-27,-2,0,-5,-5,15
1514959794169188,10,2,29,-1,-3,-4,-2,-13
1514959794169188,-21,2,-8,-3,-1,1,-7,2
1514959794170185,10,2,12,-8,-4,-1,1,-4
1514959794170185,24,-1,-5,4,2,2,3,-5
1514959794191199,-9,-6,5,-1,0,-2,2,10
1514959794191199,-10,-3,-10,0,-3,-4,-9,-19
1514959794193201,4,11,1,3,0,3,1,8
1514959794193201,7,-25,-9,-7,1,-4,-2,0
1514959794205224,14,-7,-9,-1,-1,-2,0,0
1514959794205224,-14,-1,4,8,-2,4,9,-6
1514959794214216,9,11,-10,-3,-2,-6,-9,5
1514959794214216,12,-8,3,-2,-1,0,2,-7
1514959794229251,6,-12,-19,-5,-5,-2,-4,-2
1514959794229251,11,20,13,7,0,-2,3,-3
1514959794230228,-31,-21,-2,-1,-2,1,-1,7
1514959794230228,-7,3,15,1,0,3,-2,-19
1514959794259273,-7,-7,-24,-2,-1,-1,1,-5
1514959794259273,7,1,48,-8,-2,2,0,6
1514959794260250,-3,-12,-25,-2,1,-6,-5,4
1514959794260250,-4,17,18,3,1,0,-5,-26
1514959794265301,-21,-10,-1,2,-1,-1,-2,7
1514959794265301,2,35,-26,-12,-1,-3,-3,2
1514959794274263,5,-1,5,2,0,2,3,0
1514959794274263,-12,-9,-3,-1,-3,-1,0,9
1514959794289294,0,17,3,-1,2,-6,-3,0
1514959794289294,11,-17,-5,-7,-4,-4,-3,-6
1514959794290294,-16,4,-10,1,-1,1,5,6
1514959794290294,1,39,-7,1,-3,-5,-10,0
1514959794319321,-4,-10,1,-7,0,2,9,-3
1514959794319321,5,-6,6,4,2,-3,-5,8
1514959794320292,-5,3,-4,-1,-2,0,1,-3
1514959794320292,11,0,12,0,3,3,9,2
1514959794325297,15,9,1,7,-2,-2,-12,-2
1514959794325297,-15,-17,-13,-13,-2,2,-1,-1
1514959794334303,9,8,4,1,3,-4,4,-3
1514959794334303,-11,-8,-10,-1,-3,-1,-12,5
1514959794349346,11,-2,-7,-1,-2,-3,0,-1
1514959794349346,-2,-8,-8,6,-2,-2,-6,2
1514959794350337,-4,7,10,2,1,0,-2,3
1514959794350337,-7,-11,2,-6,0,1,3,6
1514959794371340,-3,7,-1,-1,-1,1,5,-2
1514959794371340,-4,-21,3,2,0,-6,-8,1
1514959794373332,4,-4,-17,-2,-1,1,2,-3
1514959794373332,-7,5,10,1,-3,-4,0,-1
1514959794385343,-17,-3,3,1,0,3,0,3
1514959794385343,8,-2,-7,-1,-1,1,8,0
1514959794394349,9,-1,-16,-2,-3,1,3,-2
1514959794394349,-10,-11,-4,-4,-2,-7,-7,0
1514959794409357,3,6,-7,-4,-2,0,-1,-6
1514959794409357,-2,9,-1,0,-1,0,5,-5
1514959794410355,0,-8,-2,0,-1,-5,-2,1
1514959794410355,-1,0,-6,-1,-2,-1,-12,-2
1514959794431386,2,-4,6,-6,0,1,0,-1
1514959794431386,3,7,5,10,-1,0,-1,-2
1514959794433387,2,3,5,-2,-2,-4,-6,0
1514959794433387,-5,-20,-7,3,1,-1,-10,0
1514959794455389,-5,5,-6,-5,-6,-3,-5,1
1514959794455389,11,-5,6,-4,-1,-1,2,-4
1514959794457388,-7,1,-7,0,0,2,-9,1
1514959794457388,-1,-5,2,2,-1,1,12,0
1514959794469451,-2,-14,-8,-3,0,2,-4,-1
1514959794469451,-2,3,3,-3,1,-6,-3,-2
1514959794470399,-7,-14,-41,-1,0,2,1,-3
1514959794470399,-1,-15,-4,2,-2,0,5,-1
1514959794491412,11,28,2,-8,0,0,-1,1
1514959794491412,-9,-1,3,-3,0,3,4,-1
1514959794493414,3,-6,7,-1,-1,-5,-2,-1
1514959794493414,3,10,-3,-1,-2,0,-4,-2
1514959794514430,-3,-13,-4,3,0,0,6,-2
1514959794514430,0,0,-6,-1,0,-1,-8,-4
1514959794515430,-1,5,24,0,0,-1,3,-1
1514959794515430,4,3,-4,-4,-2,-5,-7,1
1514959794529439,-2,0,5,3,-1,0,5,1
1514959794529439,-4,-4,-6,-4,-3,0,-1,0
1514959794530439,3,1,17,0,-3,2,4,-2
1514959794530439,-3,8,13,3,2,-3,-2,-1
1514959794551455,3,-10,-17,-11,-1,0,-5,-2
1514959794551455,-14,-14,-31,-3,-2,-1,-2,1
1514959794553456,-7,-9,-15,-5,-3,-2,0,-4
1514959794553456,10,13,7,-2,0,3,5,-3
1514959794574472,-3,9,15,8,0,-3,-3,0
1514959794574472,8,-14,16,-2,-2,1,-2,-1
1514959794575472,0,-5,10,0,0,0,-1,-2
1514959794575472,-6,-2,-4,2,1,-1,4,-1
1514959794589498,3,-9,-17,-6,-3,-2,-1,-1
1514959794589498,1,25,2,2,1,-2,1,-2
1514959794590482,0,3,3,3,0,-2,-3,-1
1514959794590482,-3,-7,3,-7,-1,2,2,-2
1514959794611535,2,3,50,22,3,0,-5,-4
1514959794611535,-9,-6,-50,-20,-4,6,12,3
1514959794613521,-5,-16,-81,-36,-11,-18,-27,-6
1514959794613521,4,8,-19,0,2,5,9,-3
1514959794633549,-3,0,52,6,1,1,-5,3
1514959794633549,5,9,8,14,4,6,13,-1
1514959794635514,-10,1,35,14,2,-6,-5,2
1514959794635514,-12,-5,-13,-5,-4,-4,-13,-1
1514959794649531,14,12,-6,3,0,-4,2,3
1514959794649531,-6,-20,17,5,-1,-4,-3,-5
1514959794650526,9,5,10,2,0,4,8,2
1514959794650526,-9,-9,-3,-9,-3,-2,0,-1
1514959794671554,-2,0,-23,-1,-2,-3,-2,-2
1514959794671554,-3,4,15,-9,-2,-3,-8,1
1514959794673543,3,3,14,6,2,3,7,0
1514959794673543,-2,0,33,10,0,-3,-1,-3
1514959794694585,0,-2,5,-5,-1,1,0,-1
1514959794694585,-3,12,-27,-9,-6,-5,-4,1
1514959794695558,-2,-5,-2,4,1,2,-1,0
1514959794695558,4,18,8,4,0,3,1,2
1514959794708586,-4,-7,30,-6,-3,-6,-2,-2
1514959794708586,0,-9,-16,9,5,6,0,-1
1514959794715592,2,0,4,-7,-3,2,2,-3
1514959794715592,1,5,8,5,2,3,7,3
1514959794731581,-2,-6,-46,-11,-2,-4,-19,-2
1514959794731581,6,6,38,0,-1,-8,-4,0
1514959794737585,-15,5,19,13,4,6,7,-2
1514959794737585,1,-6,-27,-10,-2,-8,-4,-2
1514959794753660,8,-7,-16,-7,-4,2,5,-3
1514959794753660,6,1,12,-5,-1,-2,-6,-1
1514959794755616,-6,8,8,5,1,0,3,2
1514959794755616,7,-9,8,2,-1,3,3,-4
1514959794767611,-7,2,-4,3,1,-1,1,0
1514959794767611,-1,3,-8,-3,-3,-3,-2,-1
1514959794776628,3,-5,2,-2,-3,-3,-5,-2
1514959794776628,-4,-1,-16,-1,-1,-2,-1,-1
1514959794791634,-1,-3,-17,-13,-4,-2,2,0
1514959794791634,-2,0,-9,-3,0,-1,-5,-2
1514959794792626,0,-6,-5,-8,-5,0,0,-2
1514959794792626,-3,-1,1,1,-1,1,0,1
1514959794813674,-7,-7,-33,-8,-3,1,1,-2
1514959794813674,-1,1,29,11,1,-1,5,2
1514959794815643,4,-1,-13,-11,-3,-9,-8,-1
1514959794815643,0,-3,-1,2,0,-1,3,-3
1514959794828660,-4,-12,-5,8,0,4,9,-1
1514959794828660,-1,0,4,2,-1,-3,-11,-2
1514959794842670,4,1,5,0,0,6,17,3
1514959794842670,-3,-5,-15,-5,-2,-9,-22,-3
1514959794851669,-5,0,16,-2,1,-1,2,-1
1514959794851669,-3,-1,-7,-4,-3,-2,-1,-3
1514959794852668,2,0,1,2,-1,0,1,-3
1514959794852668,-4,-5,-4,-7,-4,-2,-2,-1
1514959794873696,0,3,-2,3,1,0,-3,3
1514959794873696,-1,-1,1,1,-1,-1,0,-1
1514959794875684,-3,-4,-22,-10,-2,-2,-3,-5
1514959794875684,-2,2,7,1,-3,1,4,2
1514959794888695,3,2,3,-1,0,-2,-6,0
1514959794888695,0,3,36,8,3,-1,-1,1
1514959794894697,-3,-10,-42,-21,-6,-3,-1,-3
1514959794894697,3,12,16,0,0,-1,2,0
1514959794911725,-5,2,3,2,0,1,1,-2
1514959794911725,-1,0,5,1,-1,2,5,1
1514959794912709,0,3,8,10,2,-2,-17,-3
1514959794912709,-1,-8,-10,-6,-2,-2,6,0
1514959794933734,-2,-1,0,-2,-3,-2,-11,-2
1514959794933734,-1,-4,-18,-6,-3,-3,-1,-2
1514959794935749,-2,9,10,5,2,3,4,1
1514959794935749,-2,-6,-20,-4,-1,1,1,-1
1514959794948749,2,1,25,4,-1,-1,-1,-1
1514959794948749,-4,-9,-35,-9,-4,-3,-6,0
1514959794954765,3,3,32,9,2,-1,1,1
1514959794954765,-2,-8,-42,-11,-1,-3,-3,-2
1514959794971770,1,1,-8,-2,-2,-1,1,-2
1514959794971770,-1,1,2,-4,-1,-3,-2,-2
1514959794972753,-1,1,9,2,-1,-1,1,-2
1514959794972753,-3,1,33,5,1,1,-2,0
1514959794993786,0,-2,-13,-2,0,0,2,0
1514959794993786,-2,-1,-14,-4,-2,-1,2,1
1514959794995770,0,0,14,6,2,4,3,-2
1514959794995770,-2,-4,4,1,-2,-7,-3,-3
1514959795007778,-1,-2,1,-1,-2,-2,-2,0
1514959795007778,0,2,14,2,0,-1,5,0
1514959795016783,-1,-2,-8,-5,-3,-2,-2,1
1514959795016783,-1,-3,-4,-2,-1,2,-2,-1
1514959795031804,-2,-2,-4,-5,-1,-6,-7,0
1514959795031804,-2,1,-4,1,0,-1,2,-1
1514959795032795,-1,1,-8,-3,-1,-3,-3,-2
1514959795032795,-3,-5,-10,-2,-2,-2,0,-2
1514959795053832,-1,3,13,2,-1,2,3,0
1514959795053832,0,-1,15,2,-1,-1,-4,-2
1514959795055811,-3,-11,-57,-19,-5,-4,-2,-4
1514959795055811,-1,3,11,11,0,0,3,-1
1514959795067844,-1,-5,-23,-29,-4,-2,-1,0
1514959795067844,-2,5,8,7,1,0,-2,-1
1514959795076836,-1,-3,19,5,0,-1,0,1
1514959795076836,-2,-1,-7,-4,-3,-2,-3,2
1514959795091850,-2,0,-9,4,-3,-1,0,-3
1514959795091850,0,0,-10,-2,-2,-3,-5,-1
1514959795092838,-1,0,8,1,0,2,-5,-1
1514959795092838,-1,0,0,0,0,-1,5,-1
1514959795113881,-2,-1,9,6,0,-1,-1,-1
1514959795113881,0,-2,-3,-6,-4,1,-5,0
1514959795115855,1,1,1,6,1,0,1,-1
1514959795115855,0,-2,3,-3,-3,-2,-2,-2
1514959795127863,0,-1,-7,-1,-1,0,-1,2
1514959795127863,-2,-5,4,-4,-2,0,2,-3
1514959795136886,-4,0,3,-2,-1,-4,-1,-2
1514959795136886,2,-1,-2,-2,-1,0,-3,-1
1514959795151892,-1,4,8,5,1,-1,0,0
1514959795151892,-2,-2,-8,-4,-3,-3,-2,-2
1514959795152879,0,1,7,2,-1,-1,1,0
1514959795152879,-3,-1,-2,2,-1,-1,-2,-3
1514959795173894,-2,-1,18,-1,-2,0,2,0
1514959795173894,0,-3,-47,-9,-3,-3,-1,-1
1514959795175925,-1,-2,21,-3,-1,-2,-1,-3
1514959795175925,3,2,6,2,2,2,2,0
1514959795187926,0,0,-5,4,0,3,0,-1
1514959795187926,0,-1,11,2,-1,-5,-4,0
1514959795196911,-1,-3,-11,1,-1,-3,1,0
1514959795196911,-2,-3,-8,-3,-1,-3,-6,-1
1514959795211929,-2,0,2,3,0,-2,-5,0
1514959795211929,1,-2,-3,1,1,2,2,-1
1514959795212924,-1,0,2,-3,-4,-3,0,-1
1514959795212924,-2,0,13,0,-2,-4,-1,-2
1514959795233939,-2,-2,-1,-1,0,-4,-2,-1
1514959795233939,-1,0,-2,0,0,2,1,-1
1514959795235940,-1,-2,-3,0,0,-2,-5,-1
1514959795235940,0,-3,-6,-4,0,1,0,-1
1514959795247947,0,-3,-3,-1,0,-2,1,2
1514959795247947,-15,-1,3,-1,-1,-5,-3,-6
1514959795256954,-5,0,1,-1,-2,1,0,-3
1514959795256954,3,1,0,-2,-1,-2,-1,1
1514959795271964,1,0,-8,0,0,-1,-2,-2
1514959795271964,0,-1,2,0,0,0,-1,0
1514959795272964,-4,1,5,0,0,-1,-2,-3
1514959795272964,-4,-2,0,0,-1,1,1,0
1514959795293979,0,-1,-6,-1,-1,-1,0,-3
1514959795293979,2,0,5,-1,-2,0,0,2
1514959795295982,1,-2,-6,-1,-2,0,-3,1
1514959795295982,-1,-1,1,-2,-1,-1,-2,-2
1514959795307989,-1,-2,-2,1,0,-1,2,-1
1514959795307989,1,-1,0,-2,-2,-1,-5,2
1514959795317015,-1,-1,-4,0,1,0,4,1
1514959795317015,-1,2,6,-1,-1,-3,1,0
1514959795331015,-2,-2,-11,-4,-2,-3,-4,-2
1514959795331015,-3,-1,-6,-2,-1,1,0,-2
1514959795333022,-2,-3,-4,0,-1,4,-3,1
1514959795333022,-7,-5,0,-1,-3,-7,-2,-10
1514959795354082,-12,-1,-1,-1,-1,-3,-2,2
1514959795354082,4,1,3,0,-1,-2,2,-3
1514959795356054,-4,-1,-8,0,0,0,0,-2
1514959795356054,2,-5,-12,-4,-1,2,-2,2
1514959795368047,-2,0,3,0,0,0,0,-15
1514959795368047,0,0,-1,1,-1,-3,-2,0
1514959795377041,-2,-3,1,-1,-2,-2,-3,0
1514959795377041,-1,1,0,-1,-1,0,-1,1
1514959795391075,2,-1,-2,-4,-1,-2,-1,2
1514959795391075,1,0,1,-1,0,1,-1,1
1514959795393050,2,-2,-2,-2,0,-3,-1,-3
1514959795393050,-2,0,-3,-2,0,1,1,3
1514959795414065,4,-1,2,1,-1,-1,-2,2
1514959795414065,-5,0,2,-1,-2,-2,1,-3
1514959795416090,0,0,-2,0,-1,-3,-3,2
1514959795416090,-1,0,-4,0,-1,0,-2,-2
1514959795428084,0,-1,-2,-3,-2,-1,0,0
1514959795428084,1,-1,1,-1,-2,-2,-3,-2
1514959795437092,-2,0,-4,-1,-1,0,-1,-3
1514959795437092,1,-4,-4,-2,-1,-1,2,0
1514959795459096,1,-1,2,-3,-2,0,1,0
1514959795459096,1,-4,-2,0,-1,-2,-2,0
1514959795461111,2,1,7,0,-1,-1,1,-2
1514959795461111,-2,-4,-11,-1,-1,0,-4,-2
1514959795474106,1,-3,-2,-1,-1,0,-3,3
1514959795474106,-2,1,1,0,0,1,2,-1
1514959795475117,-1,-4,0,-2,-1,-2,0,-2
1514959795475117,3,2,6,1,-1,0,-1,-2
1514959795496136,0,-2,-6,0,-1,-2,0,-2
1514959795496136,-2,0,-1,-2,-1,1,0,-2
1514959795498123,2,-2,-2,-1,1,-1,-1,-1
1514959795498123,-2,0,3,-1,-1,-2,1,1
1514959795511146,-2,0,-1,2,1,-2,-2,-1
1514959795511146,-1,-1,-1,-3,0,-2,-1,0
1514959795513134,-1,0,-4,-2,-1,0,-2,-1
1514959795513134,-2,-3,0,-2,-2,1,-1,0
1514959795534150,-1,-2,1,1,-1,1,-1,0
1514959795534150,-4,-2,-2,0,-1,-2,-3,0
1514959795536152,-1,-1,-2,-1,-2,-4,-1,0
1514959795536152,-3,-1,0,0,-1,-1,-2,0
1514959795564196,1,-1,-2,-3,-2,-1,0,0
1514959795564196,-1,-2,-2,0,-1,-2,0,-2
1514959795565172,-1,-2,-3,-1,-1,-1,0,-3
1514959795565172,-1,-1,1,-1,0,-3,-1,0
1514959795571197,-2,-1,1,-1,-3,-3,-2,-1
1514959795571197,-1,-1,-2,-1,-2,0,0,-1
1514959795573179,1,0,0,-2,-2,-2,1,1
1514959795573179,0,-1,-2,-1,-1,-1,2,-1
1514959795594206,-1,1,0,0,0,-1,-2,-1
1514959795594206,-2,-1,-3,-1,-2,-1,-3,-1
1514959795596208,-3,-1,-2,0,0,-2,-1,-2
1514959795596208,1,0,0,0,-1,-1,-1,2
1514959795617225,-1,-2,0,-2,0,-1,0,0
1514959795617225,-1,-3,-1,-2,0,-1,0,0
1514959795622221,-2,-3,0,0,-1,-2,0,-1
1514959795622221,-2,-1,-2,0,-2,0,-5,0
1514959795631217,1,-1,-2,-1,-3,-2,0,2
1514959795631217,1,-2,-3,-1,-1,-2,-1,-1
1514959795645243,2,-1,-1,-1,0,2,-3,0
1514959795645243,-3,-1,-1,-2,0,-1,-2,-2
1514959795654246,-1,-1,0,-2,-1,0,-1,-2
1514959795654246,-2,-1,-2,-2,0,-2,0,-1
1514959795655234,-1,0,-2,0,-2,0,0,-2
1514959795655234,0,-1,-1,0,-1,-1,-1,1
1514959795676254,0,-1,-1,-1,0,1,1,-1
1514959795676254,0,1,1,-1,-2,0,-2,-1
1514959795684255,1,-1,-1,-1,-1,-1,-3,-2
1514959795684255,0,-2,-2,-1,-1,0,0,0
1514959795691271,-2,-1,-1,-1,-2,-1,-3,-1
1514959795691271,-1,0,-1,-2,-2,0,-1,-1
1514959795697278,-1,-1,-3,-1,-2,-2,-2,0
1514959795697278,-2,0,0,-1,-1,-1,0,-1
1514959795714276,-2,-2,0,-2,-1,-2,-1,0
1514959795714276,-1,-1,-2,0,-1,0,0,-2
1514959795715277,-2,0,0,-1,0,0,-3,0
1514959795715277,-2,1,-1,0,-1,-2,-1,-2
1514959795736292,3,0,-2,-1,-1,0,0,2
1514959795736292,1,-2,-2,0,-1,-2,-2,-2
1514959795738293,-2,-4,-1,-2,-2,2,0,-1
1514959795738293,0,1,1,-1,1,0,-2,-2
1514959795751311,-2,-1,0,0,-1,-1,0,-2
1514959795751311,-1,0,-2,-1,-1,-3,-2,-1
1514959795758310,-1,0,-3,-1,-1,-3,-1,-1
1514959795758310,0,-1,-2,-1,-1,-2,-1,0
1514959795774319,-3,-1,-1,1,0,0,-2,0
1514959795774319,0,-1,0,-2,0,0,0,-1
1514959795775322,-1,-2,-2,-3,-2,-1,1,-2
1514959795775322,-1,-1,0,0,-1,-2,-1,-1
1514959795796335,1,-1,-1,-2,0,-1,-3,-3
1514959795796335,-2,-3,-2,-2,-1,-1,-1,-2
1514959795798340,-1,-2,-2,-2,1,1,-1,-1
1514959795798340,1,-1,-2,0,-2,-1,-3,-2
1514959795811347,-1,-1,-1,0,0,-2,-1,1
1514959795811347,0,-2,-1,-3,-1,0,-1,-1
1514959795817349,-1,0,-1,0,0,-1,2,-1
1514959795817349,-2,-1,-1,-2,-1,-1,-1,-3
1514959795834361,0,-1,-2,0,-2,-1,0,-2
1514959795834361,-2,-2,1,-2,-2,0,0,0
1514959795835362,-1,-1,0,-1,-3,-2,-1,-1
1514959795835362,-2,-2,-1,-1,-2,1,-1,0
1514959795856379,0,0,-2,-2,-1,-2,-1,-2
1514959795856379,-1,-1,-2,1,0,-1,1,-4
1514959795858380,-1,-2,-1,0,0,0,0,-3
1514959795858380,-3,-3,0,0,-2,0,-2,0
1514959795870386,-2,-1,-2,-1,-1,-1,-1,1
1514959795870386,-1,-2,-1,-1,0,-1,-2,-1
1514959795878400,2,-3,-1,-1,-1,-3,-2,-1
1514959795878400,-1,-1,-3,-1,0,-3,-1,0
1514959795894405,-2,-1,1,-2,-1,-1,-1,-2
1514959795894405,-3,0,-1,-1,-1,-1,0,1
1514959795895407,-2,0,-1,1,1,1,-3,0
1514959795895407,-1,1,-1,-1,-2,-1,1,0
1514959795916419,1,0,-2,-1,0,-2,-1,-2
1514959795916419,0,1,-1,-2,0,0,-2,-2
1514959795918421,-1,-3,-1,-2,-3,-1,-3,-1
1514959795918421,0,0,0,-1,0,-1,-3,0
1514959795930432,-1,-2,1,0,0,1,-1,0
1514959795930432,-1,-1,-1,-1,-1,-2,0,-2
1514959795937436,0,0,-1,-1,0,-1,1,-1
1514959795937436,2,0,-1,0,0,-1,-1,-2
1514959795954447,-3,2,0,0,0,-1,-1,-3
1514959795954447,-1,-2,-3,-2,-1,0,0,-1
1514959795955450,-1,-1,-2,-1,-1,-2,-1,-2
1514959795955450,-2,-1,0,-1,-2,-1,-1,-2
1514959795976467,-1,-1,-3,-1,-2,0,-1,1
1514959795976467,-1,0,-2,0,0,0,-1,1
1514959795978466,-4,-2,0,-3,-2,-1,0,-1
1514959795978466,3,-2,-1,-1,-1,-1,-1,-2
1514959795990474,-1,0,-1,-1,-2,-2,-2,-1
1514959795990474,0,0,-1,1,-1,-2,-3,-3
1514959795999478,-2,-1,-1,0,-1,0,0,0
1514959795999478,-1,0,-1,-2,0,-3,0,2
1514959796013489,0,-1,0,-3,-1,-2,-1,-1
1514959796013489,-2,1,0,-1,-1,-1,-1,-1
1514959796015489,0,-1,0,-1,-1,-1,0,-1
1514959796015489,-3,-2,-2,-2,-2,0,-2,-2
1514959796036504,1,-3,0,-1,-1,0,-2,0
1514959796036504,-1,-2,-3,0,-1,-2,2,-2
1514959796038519,-1,0,-1,-1,-3,-2,-2,-2
1514959796038519,-2,0,-1,0,1,1,-1,1
1514959796050514,1,-3,1,-2,0,-3,0,1
1514959796050514,-1,-2,-1,-2,-1,0,-3,-1
1514959796059520,0,-1,0,0,-1,0,0,-1
1514959796059520,-1,-3,-1,-1,-2,1,0,-3
1514959796074536,0,0,1,-2,0,3,-2,-1
1514959796074536,-1,-2,1,-1,0,-2,-1,-1
1514959796075535,-1,-1,-3,-1,-3,-1,-2,0
1514959796075535,-1,1,-2,-2,-2,0,-2,1
1514959796096547,-1,0,-1,0,-3,-3,-2,1
1514959796096547,-1,1,-4,-1,-1,-1,-1,-1
1514959796098558,-3,-2,-2,-1,-2,-1,-1,0
1514959796098558,0,0,-1,-2,-2,-2,1,-1
1514959796110559,0,0,-2,-1,-1,0,0,-1
1514959796110559,-1,-1,-2,-2,-2,-1,-2,-1
1514959796119562,0,0,-1,0,-2,-3,-1,-3
1514959796119562,-1,0,-2,-2,-3,0,0,-2
1514959796133576,-1,-2,0,-2,1,1,-1,0
1514959796133576,-2,-2,0,-1,-1,0,0,-1
1514959796136578,0,-1,-1,0,1,0,0,1
1514959796136578,-3,-1,0,0,0,-1,-1,-1
1514959796156591,0,-1,-4,-1,-2,-4,-2,-1
1514959796156591,-1,-2,-1,-1,-1,1,-1,0
1514959796156591,1,-3,-2,-2,1,-1,1,-2
1514959796156591,0,-1,-2,1,0,-3,-1,0
1514959796178614,0,-1,-1,-2,-1,-1,3,0
1514959796178614,-1,0,-1,-2,-1,-1,0,-2
1514959796178614,-4,0,-2,-2,0,0,-2,-2
1514959796178614,1,-2,0,0,0,-2,-2,0
1514959796193629,1,0,-1,0,1,1,-1,0
1514959796193629,-1,-3,-1,-3,0,-1,0,-2
1514959796200629,-2,1,-1,-1,0,-2,-1,-3
1514959796200629,0,-1,-1,-2,0,-1,1,-2
1514959796215667,-2,0,-3,0,-2,-2,0,-2
1514959796215667,2,-2,-2,1,1,-1,-1,0
1514959796216630,-1,-2,-3,0,-1,-2,-2,-1
1514959796216630,-2,-2,1,-1,0,0,0,0
1514959796238647,-4,0,1,-2,-2,-2,-1,-3
1514959796238647,-3,-2,-1,-1,-2,-2,0,0
1514959796238647,2,-1,-1,-1,0,0,-2,-3
1514959796238647,-1,0,-1,-1,0,0,-2,0
1514959796253712,2,-2,-3,-2,-1,-2,-1,-1
1514959796253712,-3,-2,-1,0,-2,-1,-1,-3
1514959796253712,0,-2,-1,-2,-1,-1,-1,-2
1514959796253712,-4,-1,-1,-4,-2,-2,-2,0
1514959796275695,-2,-1,1,-1,-2,-2,0,-1
1514959796275695,0,-2,-1,-2,-4,-1,-1,-1
1514959796276683,-1,-2,-1,-1,0,-1,0,2
1514959796276683,2,-1,0,-1,-2,-1,-1,-2
1514959796298710,0,-2,-1,-1,-2,-1,-3,-3
1514959796298710,-2,-1,-2,-2,-1,-2,-1,0
1514959796299689,-1,-1,-2,-1,-1,-1,0,-1
1514959796299689,-1,-1,-2,-1,-3,-1,0,0
1514959796312777,-2,-2,0,-1,0,0,-4,0
1514959796312777,0,-2,-1,0,-1,0,-3,-3
1514959796313771,-2,-1,-1,-1,-1,-1,0,-3
1514959796313771,-1,0,-2,0,0,-1,-1,-1
1514959796335818,-1,0,-1,0,-1,-3,0,0
1514959796335818,-1,-2,0,-1,-1,-1,-2,1
1514959796336779,0,1,-1,-2,-1,-1,-2,-1
1514959796336779,2,-1,-2,-1,-2,-1,0,0
1514959796358804,-4,-2,-1,0,-1,0,-2,0
1514959796358804,-3,-1,-1,-1,0,-3,0,-1
1514959796358804,-1,-1,1,-3,-1,0,0,-1
1514959796358804,0,-1,-1,-2,-1,-1,0,-1
1514959796372798,0,-1,-1,-2,-1,-1,-2,-3
1514959796372798,-3,0,-1,0,-2,0,-1,-3
1514959796373796,-1,-2,0,-1,-1,-3,-4,-2
1514959796373796,-1,-3,0,-1,-1,-1,-1,0
1514959796395866,-1,0,-1,-1,-1,1,-3,-1
1514959796395866,-2,-1,-3,-1,-2,0,0,-1
1514959796396814,0,-1,-2,1,-2,-1,0,1
1514959796396814,0,-2,1,0,1,-1,-2,-1
1514959796417874,0,-1,1,-1,-3,0,-1,0
1514959796417874,-1,0,-2,-2,0,-1,-2,-2
1514959796418874,-3,0,-2,-2,-2,-2,-2,0
1514959796418874,-2,-1,0,-2,-1,0,-1,-2
1514959796432926,0,0,-2,-1,0,0,1,-1
1514959796432926,2,-1,0,-2,-1,0,-1,-1
1514959796433887,-2,-2,-2,0,0,-1,-1,-1
1514959796433887,-1,0,-3,-1,-1,0,-1,-3
1514959796455920,-1,0,-3,0,-1,-2,1,1
1514959796455920,-1,-3,-2,0,-2,0,-2,-2
1514959796456920,-3,-2,-1,-1,-1,0,0,0
1514959796456920,2,0,0,-1,0,-1,-1,0
1514959796477933,-1,-1,-1,-2,-2,-1,-1,-1
1514959796477933,-3,0,-2,0,-1,-2,-1,-2
1514959796478918,-1,-1,1,-2,-1,0,0,-3
1514959796478918,-1,0,-1,-2,0,0,-2,-2
1514959796492937,1,0,1,-1,-1,-1,0,-1
1514959796492937,-1,-2,0,0,0,-3,-2,-1
1514959796493932,0,0,0,-3,-2,0,-3,2
1514959796493932,-1,-1,-2,0,0,-1,-2,0
1514959796515968,-2,0,-4,-1,-1,-1,-2,0
1514959796515968,-1,-4,-3,-2,-1,-1,-1,-1
1514959796516957,-1,-1,-2,-1,-1,-1,-4,-1
1514959796516957,-1,0,-1,0,-2,-2,0,0
1514959796537983,-1,-1,0,-2,-2,0,1,-1
1514959796537983,-3,-1,-2,-1,-2,-3,-1,-1
1514959796538962,0,-2,-2,-1,-1,2,0,-1
1514959796538962,0,-3,-1,-2,-2,-3,-2,0
1514959796552970,-3,0,1,-1,1,-1,-2,-2
1514959796552970,1,1,-2,-2,0,-1,0,-1
1514959796553971,0,1,-1,0,-1,-2,0,-1
1514959796553971,-2,0,-1,-1,-2,0,-1,-2
1514959796575987,1,-1,0,-1,0,0,-1,-2
1514959796575987,0,0,1,1,0,1,1,-2
1514959796576987,-2,0,-2,0,1,-2,-1,-1
1514959796576987,0,0,-2,-1,0,-2,0,-3
1514959796598020,-1,-2,-2,-1,-2,0,-2,3
1514959796598020,-2,-1,-1,-1,-1,-1,-1,-1
1514959796599006,1,-1,-1,-1,0,0,0,-4
1514959796599006,-3,1,1,-2,-1,-1,-1,-3
1514959796614032,0,-1,0,-1,-2,-2,-2,0
1514959796614032,0,0,-2,-1,-1,-2,-2,1
1514959796621041,0,-3,0,0,-2,0,-1,0
1514959796621041,1,-2,-2,-2,-1,-2,-1,-1
1514959796635030,-4,-1,0,-1,0,-1,0,-2
1514959796635030,-1,-1,-1,-1,-1,0,0,-1
1514959796643033,0,0,0,-1,-2,-2,-3,-3
1514959796643033,-2,-3,-3,0,-2,0,-2,-1
1514959796658057,-1,-1,0,-1,-2,0,0,0
1514959796658057,0,-1,-1,-1,0,-2,-2,-3
1514959796659060,0,-3,-4,-1,0,-2,0,-1
1514959796659060,0,-2,-2,-1,0,-2,-3,1
1514959796673068,2,0,-1,-3,0,-2,-3,-1
1514959796673068,0,-1,-1,-1,-1,0,-1,-2
1514959796674056,-2,-1,0,-2,-2,-1,0,-1
1514959796674056,-4,-1,0,-2,-1,1,-2,-2
1514959796696082,0,-2,-3,1,0,-1,-2,-3
1514959796696082,1,-2,-2,-2,1,0,0,-1
1514959796696082,0,-2,0,0,-3,-1,-2,-2
1514959796696082,2,0,-2,0,-1,1,2,0
1514959796735125,-1,-2,0,-1,-1,0,-1,0
1514959796735125,-1,-1,-1,1,-1,-1,0,-2
1514959796736112,0,-2,-3,-1,0,-1,-1,0
1514959796736112,0,1,0,-1,-2,-1,-2,1
1514959796738116,0,-1,-3,-1,-2,0,2,0
1514959796738116,-2,-1,0,-1,-3,-3,1,-2
1514959796741103,-3,-3,-1,0,-2,-1,-2,-1
1514959796741103,-2,-1,0,-2,0,0,2,-1
1514959796756123,-1,0,-1,-2,1,-1,0,0
1514959796756123,-1,-1,-1,1,0,-2,-2,-1
1514959796756123,0,-1,-1,-2,-2,-1,-1,0
1514959796756123,0,-2,0,-2,-3,-1,-2,1
1514959796779130,-3,-11,-1,-2,0,-2,-1,-2
1514959796779130,2,2,-1,-2,-2,0,-1,0
1514959796780143,-1,-2,-2,-1,0,-2,-1,-2
1514959796780143,-4,-14,-2,1,-2,0,0,0
1514959796793149,-4,-46,-4,0,-2,-2,0,-4
1514959796793149,-3,-1,3,1,0,0,0,0
1514959796794149,-3,-20,-7,-2,-1,-3,-1,-1
1514959796794149,-1,-3,-1,0,0,-1,-1,-2
1514959796816230,1,-6,-3,-1,0,-1,-1,1
1514959796816230,-1,-9,-2,-3,-1,-1,-3,-2
1514959796816230,0,-1,-1,-1,0,0,-1,-1
1514959796816230,0,7,0,-1,-1,-3,0,0
1514959796846329,0,15,2,-1,-2,-1,-3,2
1514959796846329,-2,-2,-3,-1,-2,-3,-1,-1
1514959796847322,0,13,2,0,1,-1,1,1
1514959796847322,1,2,-1,-1,-2,-1,0,-1
1514959796853346,2,15,0,1,-1,-1,-2,-2
1514959796853346,-2,-2,-1,-2,-2,1,-1,-2
1514959796854326,-1,-4,1,-1,-1,-1,0,-3
1514959796854326,-2,1,0,0,-1,-2,-1,-1
1514959796875343,-1,5,-1,-2,-1,0,0,2
1514959796875343,1,3,-1,-1,0,-2,-1,-2
1514959796876341,-1,3,0,-1,-1,-2,-2,-3
1514959796876341,0,0,1,-1,-1,-3,-1,1
1514959796899372,-1,7,0,-2,0,1,0,-2
1514959796899372,-1,-2,-3,0,-2,-1,1,-1
1514959796899372,-1,0,-1,0,-1,0,-1,1
1514959796899372,0,-1,0,-2,0,-1,1,0
1514959796913387,0,0,0,-1,1,-2,-2,-2
1514959796913387,0,-5,-1,-3,-1,1,-2,2
1514959796921396,-1,-1,0,0,-3,-2,-2,-2
1514959796921396,-1,1,-3,1,0,0,-2,-1
1514959796935417,-1,0,0,-1,-1,-2,0,-3
1514959796935417,-3,-1,-2,-1,-1,0,0,-3
1514959796936393,1,1,-1,-1,-1,-1,-2,-1
1514959796936393,0,-2,-1,-2,-2,-2,-2,-5
1514959796959405,-3,2,1,-2,-1,-1,0,-1
1514959796959405,1,-2,0,-1,-1,-2,-2,-1
1514959796959405,-3,0,-2,-1,-3,1,0,-1
1514959796959405,1,1,-1,-1,-1,-1,0,0
1514959796972412,-1,1,-2,0,0,-1,-1,-2
1514959796972412,-1,-2,-1,0,-2,-1,-1,-1
1514959796980445,0,-1,-1,-1,-1,-1,1,0
1514959796980445,0,1,1,-2,-1,-1,-1,0
1514959796995429,-2,2,-3,-1,0,0,-2,1
1514959796995429,-1,-2,-2,0,1,-2,-1,0
1514959796996430,-1,-1,-1,-2,-1,-3,1,-3
1514959796996430,-1,0,0,0,-1,-1,1,-2
1514959797019458,0,-1,1,1,-2,0,0,0
1514959797019458,-1,-2,0,-2,-3,-1,-2,-2
1514959797019458,-3,0,-2,-2,-1,-1,-3,1
1514959797019458,-2,-1,-2,-1,-1,-2,-1,0
1514959797032462,-1,1,-1,0,-2,-1,-2,-1
1514959797032462,0,1,-2,0,0,-1,1,-2
1514959797040466,-2,-1,1,-1,0,1,-2,-1
1514959797040466,-2,0,-1,-2,-1,-1,-1,-1
1514959797063497,2,-2,-1,0,-1,-3,-1,2
1514959797063497,-3,-1,-1,-2,0,-2,-1,-2
1514959797064474,-4,-2,-1,-1,-1,1,0,-1
1514959797064474,0,-4,0,-1,0,-3,-2,0
1514959797078483,-2,-2,-1,0,-3,0,-3,-2
1514959797078483,0,0,-2,-1,-1,0,-1,-2
1514959797079484,2,-2,-1,1,0,-1,-1,-1
1514959797079484,0,0,0,-2,0,1,0,-1
1514959797092493,-1,-1,-1,-2,-2,-2,0,0
1514959797092493,-3,2,0,-1,-1,-2,0,-1
1514959797100557,0,0,-2,-3,-2,-3,-1,-2
1514959797100557,-2,0,-2,-1,-1,0,0,1
1514959797115539,0,0,1,-2,-1,0,-1,-2
1514959797115539,-2,-2,-1,0,0,-1,0,0
1514959797116518,-2,-1,-2,0,-2,0,0,-3
1514959797116518,-1,-1,-2,-1,-2,-2,0,-1
1514959797138555,0,-1,-2,0,0,-1,-2,0
1514959797138555,-1,-1,-2,0,0,0,1,-1
1514959797139529,-1,-1,0,-1,0,-1,0,2
1514959797139529,0,1,0,-2,-1,0,-3,1
1514959797152565,-1,0,-2,-1,-1,0,0,-3
1514959797152565,1,0,2,0,-2,-1,-2,0
1514959797160558,-2,-2,-1,1,-2,-1,-1,1
1514959797160558,-1,-1,0,-1,0,-1,1,0
1514959797175563,-2,0,-1,0,0,-2,0,0
1514959797175563,0,-1,-4,0,-1,0,-2,-2
1514959797176553,0,0,0,-2,-3,0,0,0
1514959797176553,1,-2,-3,0,-1,1,-2,-1
1514959797198583,-1,-1,-1,0,-2,-1,-4,-1
1514959797198583,2,-2,0,-1,-2,-1,2,-1
1514959797199571,-1,-1,-1,0,-1,-1,-2,-2
1514959797199571,-1,-1,-1,0,-3,-3,-2,-1
1514959797212582,-1,0,-1,-1,-2,-1,1,1
1514959797212582,-4,1,-1,-2,1,-1,-2,-1
1514959797220607,-2,-2,0,-1,1,0,0,-1
1514959797220607,0,-3,-1,0,-2,0,1,-2
1514959797235605,-2,0,0,-1,-1,-2,1,-2
1514959797235605,-2,-3,-1,-3,-3,-1,-1,-2
1514959797236606,-1,1,-3,0,-1,-2,-1,0
1514959797236606,-4,1,-2,0,0,-1,0,-1
1514959797258613,1,-1,-2,-1,-1,1,-1,0
1514959797258613,-1,-3,-2,-1,0,-3,-5,-1
1514959797259612,-1,-1,-1,-3,-1,0,-3,-2
1514959797259612,-2,-1,0,0,-1,0,-2,-1
1514959797272623,0,-1,0,-2,-2,-1,2,2
1514959797272623,-3,-1,-1,-1,-3,-1,0,0
1514959797280656,-1,-2,-1,1,-2,-3,-1,-2
1514959797280656,0,1,-2,-2,-3,-2,-3,-2
1514959797295666,1,-2,-1,0,-1,-2,0,-3
1514959797295666,1,0,-2,-1,0,-1,0,0
1514959797296667,-2,-1,-2,0,-2,-1,0,-1
1514959797296667,1,-1,0,-1,-1,-1,0,0
1514959797318669,-3,-2,-2,-2,-1,0,1,-1
1514959797318669,0,0,-1,-2,-1,-2,-2,-2
1514959797319665,1,-2,-2,-1,-1,-1,-1,-1
1514959797319665,-2,-2,-3,-1,0,-1,-1,1
1514959797341681,-4,-1,-1,0,-1,0,-1,-2
1514959797341681,-1,-4,-1,0,0,-1,-2,-3
1514959797342682,-2,-1,0,-1,0,0,-1,-1
1514959797342682,0,0,1,-2,-2,1,-1,0
1514959797355680,1,-1,0,-2,-1,-2,0,-2
1514959797355680,-4,-3,1,-1,-2,1,-3,0
1514959797356694,0,12,-1,-2,0,0,0,0
1514959797356694,-1,-2,-1,-1,-2,-1,0,-2
1514959797378707,-2,-1,-3,0,0,-2,0,-1
1514959797378707,1,-1,-2,-1,1,0,0,-2
1514959797379708,0,-5,0,-3,-2,-1,0,0
1514959797379708,-2,-1,-1,-1,-1,-1,-1,0
1514959797401713,2,2,-1,-2,-2,-1,-5,-3
1514959797401713,-3,-2,-2,-1,-1,-1,-2,0
1514959797402730,1,5,0,-1,-2,-1,1,-2
1514959797402730,1,10,3,2,0,0,-1,-1
1514959797415784,-1,-4,0,-1,0,0,-1,0
1514959797415784,-3,-29,-4,0,-2,0,-1,-2
1514959797416732,-3,-9,-2,-1,-2,-3,-1,1
1514959797416732,1,-6,-2,-1,-1,-2,0,-2
1514959797438739,-2,2,1,0,1,1,1,1
1514959797438739,-1,3,-2,-2,-2,0,-1,-1
1514959797439739,-3,-4,0,0,0,-1,0,-1
1514959797439739,-1,-4,-3,-2,-2,-2,0,-1
1514959797461765,-1,-5,-1,-1,0,-2,0,-2
1514959797461765,1,4,-5,-2,-1,-2,-2,1
1514959797462757,-1,-2,-2,-1,0,0,-3,-2
1514959797462757,-2,2,-1,-1,-1,0,-2,1
1514959797476766,-1,-3,-4,-1,-1,-3,-2,-2
1514959797476766,-2,4,1,0,-2,-1,-1,1
1514959797476766,1,1,0,-2,-1,1,-2,-2
1514959797476766,-2,-6,0,-3,0,0,-2,0
1514959797498789,-1,-1,0,-1,-3,1,-1,1
1514959797498789,-1,5,0,-1,-1,-2,-1,-1
1514959797499789,-1,-3,-1,0,-2,-1,-1,-1
1514959797499789,-5,-1,-1,-2,-2,0,0,0
1514959797521842,-1,-2,-2,-1,-2,-1,-3,-2
1514959797521842,3,3,-1,-1,0,-1,1,-1
1514959797521842,-2,-4,-3,-2,0,-1,-1,-1
1514959797521842,1,-1,-1,1,0,-2,-3,-3
1514959797535825,0,2,0,-3,0,-1,0,-2
1514959797535825,-1,1,0,-3,-2,-2,1,-2
1514959797536807,2,-2,-2,-2,-3,0,0,-1
1514959797536807,-2,0,-1,0,0,-2,1,1
1514959797558835,-2,-1,-1,0,0,-2,-1,-1
1514959797558835,-3,-1,-2,-2,0,-1,-1,0
1514959797559824,-2,0,0,0,-1,-1,-1,-1
1514959797559824,0,1,0,-3,-3,-1,-1,-2
1514959797581853,-2,-2,-2,-1,-2,-2,-1,-1
1514959797581853,-1,1,1,1,-1,-1,-1,-2
1514959797582844,-1,0,-1,-1,-2,-2,-1,-1
1514959797582844,1,-4,-2,0,-1,-1,-1,0
1514959797595849,0,0,-1,-2,-2,-3,-1,-1
1514959797595849,1,-1,0,-1,-1,0,0,0
1514959797596850,-1,0,0,-1,-1,-3,-2,3
1514959797596850,-1,-1,-2,-1,-1,-3,-2,-2
1514959797618867,-1,-1,-1,-1,-2,-1,-1,-1
1514959797618867,-2,0,-2,0,-2,-2,0,-2
1514959797619869,-3,1,0,-1,0,-2,1,0
1514959797619869,0,-2,-1,-1,-1,0,-2,-1
1514959797640900,-2,0,-3,-1,0,0,0,1
1514959797640900,-1,-2,-1,-1,-2,2,-1,-2
1514959797641900,-2,0,-2,-1,0,-2,-1,-1
1514959797641900,-1,-1,-2,-1,-1,-1,0,-4
1514959797655892,-3,-1,0,0,-1,0,-1,-1
1514959797655892,-2,-1,1,0,-2,-3,-2,-3
1514959797656913,0,-1,0,-1,-1,-2,-1,-1
1514959797656913,-1,-1,-2,-1,-1,-2,-2,-1
1514959797678919,-2,1,-1,0,-2,0,0,-2
1514959797678919,0,-3,-3,0,-1,-2,-1,0
1514959797679921,1,-2,0,-1,-3,-1,-2,-1
1514959797679921,-1,-1,1,0,-1,1,1,-1
1514959797701940,-1,-1,0,-2,0,-1,0,-2
1514959797701940,-2,-2,-1,-2,-1,1,-1,0
1514959797701940,0,-1,-2,0,-1,-1,-2,-2
1514959797701940,0,-2,-2,1,0,-1,-2,0
1514959797715998,-1,-4,-1,-1,-1,1,-2,0
1514959797715998,0,0,1,-1,-2,-1,1,1
1514959797716966,-4,-1,-1,-2,-1,0,-2,-4
1514959797716966,-2,-2,-2,-2,-2,-1,0,-2
1514959797738980,-1,0,-2,-1,0,1,-1,-2
1514959797738980,-1,0,-2,-2,0,-2,1,-1
1514959797739952,-1,0,0,-2,0,-1,-1,0
1514959797739952,1,-2,0,-1,-2,-2,-1,1
1514959797760984,-1,-2,1,-2,-2,0,1,-2
1514959797760984,-4,-1,-1,-2,-1,-1,-3,0
1514959797761984,0,-2,-1,1,-1,-1,1,1
1514959797761984,0,-3,-1,0,-1,-1,-2,0
1514959797775994,0,-2,-3,-2,-1,-1,-2,0
1514959797775994,-2,-2,-1,2,-1,0,-3,-3
1514959797776981,-1,-3,-1,-1,0,0,-1,-1
1514959797776981,-2,0,-2,-2,-2,-1,-1,-2
1514959797799004,0,-2,-2,0,0,-2,0,0
1514959797799004,-1,1,-1,-1,0,-2,-3,-2
1514959797799993,0,-2,0,-1,0,0,-2,-1
1514959797799993,0,1,-1,-2,0,0,-1,0
1514959797821020,-4,-2,0,1,-1,-1,0,0
1514959797821020,1,-2,-3,-1,-2,-1,-2,-3
1514959797822021,1,-2,-1,-1,-2,1,-1,-1
1514959797822021,-1,1,0,-3,-2,-1,-1,-1
1514959797836037,-3,-1,-1,-1,0,-3,-1,-1
1514959797836037,-1,-2,0,0,-1,-1,1,-2
1514959797836037,0,0,-2,-1,-1,0,-1,-2
1514959797836037,-3,-1,-1,1,-2,-1,0,-1
1514959797859035,-1,-1,-1,-1,-2,-1,0,-2
1514959797859035,-2,-1,-1,-2,0,-2,0,-1
1514959797860035,-1,1,-2,-2,-2,-1,1,-1
1514959797860035,-1,0,-1,-1,1,-1,-2,-1
1514959797881067,0,-1,-1,-2,0,0,-1,-3
1514959797881067,1,-2,-2,-1,-2,0,-1,0
1514959797882051,-3,0,-2,-1,-1,-1,-2,1
1514959797882051,0,-1,-1,0,-2,0,-2,0
1514959797896061,0,1,-2,0,-1,-1,-3,-1
1514959797896061,-3,-2,-3,-2,-3,-2,1,0
1514959797897062,-1,0,0,0,0,0,-2,-2
1514959797897062,-3,-3,1,-2,1,-2,2,0
1514959797919087,0,-2,-2,1,0,-2,-1,0
1514959797919087,-2,-1,-3,-1,-2,0,-2,-2
1514959797920089,-2,0,-2,-1,-2,-1,-2,0
1514959797920089,-2,-1,-1,0,-1,-1,-2,-2
1514959797949098,0,-3,-2,-1,-2,1,0,0
1514959797949098,-3,-1,-2,-2,-1,-1,-2,0
1514959797949098,0,-1,-1,-3,-2,-2,1,0
1514959797949098,1,1,-1,-1,0,0,-1,0
1514959797956116,0,-2,-1,-2,-3,-1,-1,-1
1514959797956116,-3,-2,0,0,0,-1,-3,-1
1514959797963121,1,0,-2,-1,-2,-1,-1,-1
1514959797963121,-2,-1,0,-1,-2,-1,0,0
1514959797979132,-3,-2,-2,-1,-1,-2,0,-2
1514959797979132,-1,0,-2,-1,-1,-2,-3,-4
1514959797980132,0,-4,1,1,-1,-1,-2,1
1514959797980132,-1,2,-1,-2,-1,0,0,-1
1514959798001149,0,-3,-1,-2,0,1,1,-1
1514959798001149,1,-2,1,-2,0,-2,1,-2
1514959798002135,0,0,-1,0,-1,-2,-1,1
1514959798002135,0,-1,-1,-2,-2,-4,-3,-1
1514959798015159,-1,1,-1,1,-1,0,-1,-3
1514959798015159,-1,-1,-3,-2,-1,0,0,-1
1514959798023175,-2,-2,-1,-1,-2,-1,-1,-1
1514959798023175,0,-1,-1,-2,-1,-2,1,-1
1514959798038179,-2,0,-1,-1,-2,-2,-3,-1
1514959798038179,-1,-2,1,-2,0,-1,0,-1
1514959798039162,0,-1,-2,0,1,-1,0,0
1514959798039162,-2,-2,-1,0,-2,0,-1,-3
1514959798069195,-2,-2,0,-1,1,-3,-2,-1
1514959798069195,0,0,-1,0,-3,-2,0,-1
1514959798070196,0,-3,-1,0,-2,1,-4,-1
1514959798070196,2,0,-3,-2,-2,-2,0,0
1514959798075197,-1,-2,-1,-2,0,0,-2,2
1514959798075197,-3,-2,-1,-1,-2,-2,-2,1
1514959798083205,-1,0,0,-2,-1,-1,1,-4
1514959798083205,0,-1,1,-1,-2,-2,-1,2
1514959798099217,-4,-2,-2,-2,-3,-3,-1,-3
1514959798099217,-1,-1,-2,0,0,0,-1,0
1514959798100225,0,-1,-1,-2,-2,-3,-1,-2
1514959798100225,-1,-2,-1,-1,-1,0,-2,0
1514959798121232,0,0,0,-3,0,-1,-1,0
1514959798121232,0,0,0,-1,-2,-1,-2,-1
1514959798122222,-3,-1,-2,0,-2,-2,1,0
1514959798122222,0,-1,-1,-1,-1,-2,-1,-2
1514959798144237,-1,0,-2,-1,-2,-2,-2,-3
1514959798144237,-3,-2,-2,0,-2,0,0,-1
1514959798144237,-1,-2,-1,-1,0,-1,-1,-1
1514959798144237,-1,-1,0,0,-1,0,-1,-2
1514959798159259,-1,1,-1,1,-2,-1,-2,-1
1514959798159259,-2,-2,-1,-2,0,-2,0,-1
1514959798159259,1,-1,-1,-1,-1,-3,-1,0
1514959798159259,-2,0,0,0,-2,0,-1,-1
1514959798181263,0,-1,-1,-3,-2,0,-1,0
1514959798181263,1,-2,-1,-2,-2,-1,0,0
1514959798182263,1,-3,-2,-1,0,1,-1,0
1514959798182263,-1,0,-3,-1,0,-1,0,-1
1514959798195283,1,-2,-1,-1,0,1,0,-4
1514959798195283,-1,0,-3,-1,-1,-2,1,-2
1514959798203294,-1,0,0,-2,-1,-1,-2,1
1514959798203294,-3,-1,0,0,-2,-1,-2,-1
1514959798219289,-4,-1,-2,-1,-1,-2,0,-1
1514959798219289,-1,-1,-1,-1,1,0,0,-1
1514959798219289,1,-2,-2,-1,-1,-1,-3,0
1514959798219289,1,-2,-1,0,-2,-1,-1,-2
1514959798241336,2,0,-2,-2,0,-3,-1,-2
1514959798241336,0,0,0,-1,-1,-2,0,-1
1514959798243308,-2,1,0,-1,-2,-1,0,-3
1514959798243308,-4,-2,-1,-3,-1,-1,-2,1
1514959798255344,0,-1,0,0,-1,0,-1,1
1514959798255344,-1,-2,-2,1,-1,-1,-1,-1
1514959798264323,1,-1,-1,-1,-2,0,-2,-2
1514959798264323,-2,0,0,-2,-1,-2,0,-1
1514959798278334,-1,-2,0,1,-2,0,-1,-3
1514959798278334,-1,-2,0,-1,0,1,-2,-3
1514959798294343,-1,-1,-1,-1,-1,0,-1,0
1514959798294343,1,-1,-1,-1,0,-1,-1,-1
1514959798301358,-3,0,-1,-1,-2,0,0,-1
1514959798301358,1,-1,-3,-1,-3,-1,-1,-2
1514959798303365,-2,-1,-2,0,1,-1,-1,0
1514959798303365,0,0,-2,0,-1,0,-3,0
1514959798323365,-1,-2,0,-1,1,-1,-4,0
1514959798323365,0,-1,-1,-1,-2,-1,-2,-1
1514959798326365,0,1,-1,-1,-1,-1,-1,-2
1514959798326365,-1,-1,-3,-1,0,-2,-1,0
1514959798338432,-2,-1,0,0,0,0,0,-2
1514959798338432,-3,0,-1,-2,-2,-2,-2,-1
1514959798345378,-2,-1,0,-1,1,-1,-3,0
1514959798345378,0,0,-1,0,-2,-1,-1,0
1514959798361401,0,-3,-1,1,0,-1,-2,-1
1514959798361401,-2,-3,-1,0,-2,1,-2,0
1514959798363401,-1,-2,-1,-1,-2,-1,-2,0
1514959798363401,3,-1,-1,-2,-2,1,-2,-2
1514959798383416,-2,0,-3,-2,-2,-3,1,-2
1514959798383416,-1,-2,-1,-1,-1,-1,0,-1
1514959798399432,-3,-2,-2,-3,-1,-2,0,0
1514959798399432,-1,-3,-1,-2,-1,-3,-2,0
1514959798399432,0,-2,-2,1,1,0,-2,-1
1514959798399432,0,0,-3,0,-1,0,-1,0
1514959798405423,-2,0,1,-1,-1,-1,-1,0
1514959798405423,-1,1,0,0,-2,1,1,-2
1514959798421477,-1,0,-1,-1,-1,-1,0,-3
1514959798421477,-2,-2,-1,-2,0,-3,-1,-2
1514959798423436,0,-2,-3,-1,-2,-1,-1,0
1514959798423436,-4,0,0,-1,0,1,1,0
1514959798444449,-1,-1,-1,-1,-2,-1,1,0
1514959798444449,1,-1,-1,-1,1,-1,-2,-2
1514959798445451,-1,-1,-2,0,-2,-2,0,-1
1514959798445451,-2,-2,-1,-1,0,-2,-2,0
1514959798458466,1,-1,-2,0,-2,0,-1,-3
1514959798458466,-2,1,-1,-1,-1,1,-5,-1
1514959798465483,3,0,0,0,-1,-1,0,-1
1514959798465483,0,-1,0,-1,-1,-1,-2,-1
1514959798481486,-2,0,-1,0,0,0,-3,-3
1514959798481486,1,0,0,-1,-2,-1,-1,1
1514959798483476,0,-1,-1,0,-1,-1,0,-1
1514959798483476,-1,-1,-3,0,-1,-2,-4,-1
1514959798503495,-3,0,-1,-2,-3,-1,-1,0
1514959798503495,-3,-1,-1,-1,0,-2,-1,-1
1514959798505504,1,0,-1,-3,-1,0,0,-1
1514959798505504,-3,-1,0,-2,-3,0,2,-1
1514959798518504,0,-2,-1,-2,-1,-4,-2,-1
1514959798518504,-1,-4,-1,1,-2,-2,0,-2
1514959798525558,-2,0,-1,0,0,0,0,-1
1514959798525558,2,-1,-3,0,-1,-1,-2,-1
1514959798541531,0,-3,-2,-2,-1,1,0,-2
1514959798541531,1,-1,-1,-1,-2,-1,0,-1
1514959798543520,-2,-2,1,0,-1,-1,-1,0
1514959798543520,-2,-2,-2,-1,1,0,1,1
1514959798563562,-2,0,-1,0,-2,-1,-2,-3
1514959798563562,-1,-2,-1,-1,-1,-1,-1,-2
1514959798565541,1,0,-1,-1,-1,-1,-2,0
1514959798565541,-1,1,0,0,-3,-1,0,-1
1514959798578544,-3,-1,-1,-1,-2,-1,2,-1
1514959798578544,-1,-3,-1,-1,0,-1,-3,0
1514959798586549,-1,-2,0,-1,-3,-2,-1,-1
1514959798586549,0,-2,-1,-1,-1,-1,-2,-1
1514959798601559,-2,-1,0,-2,-1,0,0,-1
1514959798601559,-2,0,-2,-2,-1,0,0,-1
1514959798602560,0,-1,0,0,-2,-1,-2,-1
1514959798602560,1,-1,-2,0,0,-1,-2,-2
1514959798623589,-3,-2,-2,0,0,-1,-1,-2
1514959798623589,2,-1,-3,-2,-1,-2,1,0
1514959798626587,-2,-4,0,-1,-2,-1,-2,0
1514959798626587,-1,-2,2,0,0,-3,-1,-1
1514959798638606,0,-1,-2,-1,-1,-2,0,-2
1514959798638606,-1,-1,-2,-2,-1,0,-1,-1
1514959798644601,-2,0,-2,-2,-2,0,0,-1
1514959798644601,-2,-4,-1,-4,-3,-1,0,-1
1514959798661622,-1,-1,-2,-2,-1,-1,-3,-2
1514959798661622,-2,-2,-1,0,-1,-3,2,-1
1514959798662603,0,0,0,-1,-2,-2,-1,-1
1514959798662603,-1,-2,0,0,-1,-1,-1,0
1514959798683639,-3,-1,1,-1,1,-1,-2,-2
1514959798683639,-1,0,0,1,-3,-1,-2,0
1514959798685627,-2,-1,-2,0,-2,-2,-1,0
1514959798685627,0,0,-1,0,-1,-2,0,-3
1514959798698643,0,-2,-2,-2,-1,0,-1,-1
1514959798698643,-1,-1,-1,0,0,-1,-2,-1
1514959798704635,-1,-2,-2,0,1,-1,3,0
1514959798704635,-1,-1,0,-1,-1,-1,-2,-1
1514959798721697,-1,-2,-2,-3,-2,-2,1,-1
1514959798721697,-3,1,-1,-1,1,-1,-1,-4
1514959798722645,-1,-1,-1,-1,-1,0,-1,2
1514959798722645,0,0,0,0,-1,-2,-2,2
1514959798743673,-1,-1,0,-2,-2,0,-2,-1
1514959798743673,-3,-3,-2,0,-1,0,-1,0
1514959798745663,-3,0,-3,0,-1,0,-3,-2
1514959798745663,-2,-2,-1,-1,0,-1,-1,-4
1514959798758672,1,0,0,-2,-2,-2,1,3
1514959798758672,0,-3,-2,-2,-1,-3,-1,-1
1514959798764692,-2,-1,-1,-2,-2,0,-1,0
1514959798764692,-1,-1,0,-2,-1,0,0,1
1514959798781686,-4,-1,-2,0,-2,-1,-2,-3
1514959798781686,1,0,-1,-1,0,-2,-1,-1
1514959798787748,0,-1,-1,-1,-1,-3,-1,0
1514959798787748,0,-3,-1,0,0,-2,-1,-2
1514959798804712,-4,-2,-1,-2,-2,-2,-1,-2
1514959798804712,0,0,-1,-1,0,-2,0,-2
1514959798806706,-2,1,-1,1,-2,-2,-1,-2
1514959798806706,0,1,-1,-1,-1,-1,0,-3
1514959798817734,-1,-2,-2,0,-1,-1,-1,-1
1514959798817734,-1,-2,0,-1,-1,-1,0,-2
1514959798827729,1,-2,-1,-2,-1,1,0,0
1514959798827729,-2,0,0,-1,-2,-1,0,0
1514959798841739,-1,-3,0,1,0,-3,-1,-2
1514959798841739,-3,1,-1,-1,-2,-2,1,-1
1514959798842739,-2,-1,0,-2,-1,0,-3,-2
1514959798842739,0,1,-2,-2,0,0,-1,-2
1514959798863748,1,-3,-2,1,0,0,-1,2
1514959798863748,0,0,-2,-2,-1,0,-3,1
1514959798865746,-1,0,0,-1,-1,-2,0,0
1514959798865746,0,-1,0,-2,-1,0,0,-3
1514959798877768,-2,-1,-2,-1,0,-3,0,-3
1514959798877768,-2,-2,-2,-2,-2,-1,-1,2
1514959798892778,-2,-1,-1,-1,0,-1,-2,2
1514959798892778,-1,0,-2,1,-1,0,-1,0
1514959798901788,0,-1,0,-3,-1,-1,1,-1
1514959798901788,0,-2,0,0,-1,0,-3,-1
1514959798902773,0,0,-2,0,0,-1,0,-1
1514959798902773,-3,0,-2,-1,-3,-1,-3,-1
1514959798923798,0,-1,-1,0,-2,-1,0,-3
1514959798923798,-2,-3,-2,-2,-2,-1,0,1
1514959798925812,1,-1,0,0,-2,-1,0,-1
1514959798925812,-1,0,-1,-2,-1,-1,-2,0
1514959798937798,-2,0,-1,0,-1,1,-1,0
1514959798937798,-2,-1,-1,-2,-2,-1,1,-1
1514959798953809,0,-1,-1,1,-1,-2,-2,0
1514959798953809,-2,-2,-2,-1,-2,0,0,-1
1514959798961831,0,0,-1,-2,-1,0,-3,-1
1514959798961831,-3,-2,-1,1,-1,0,-1,-1
1514959798962831,0,0,-1,-1,0,0,-1,-2
1514959798962831,1,-2,1,-1,0,-1,-3,0
1514959798983830,-3,-1,-1,0,0,0,-2,-2
1514959798983830,2,-1,-3,-1,-1,1,-1,-1
1514959798985833,0,-1,-2,-2,-2,-3,-2,0
1514959798985833,1,-2,1,-2,-2,-1,-1,-1
1514959798997856,-2,-1,-3,-1,-2,-1,-3,-3
1514959798997856,-1,-2,2,-1,-2,-1,-2,-1
1514959799006867,-2,0,-2,-1,1,-1,-1,-2
1514959799006867,-2,0,0,-1,-1,-3,0,-2
1514959799021874,-2,-2,0,0,0,-1,0,0
1514959799021874,2,-1,-4,0,-1,-1,-1,-1
1514959799023873,-3,0,-1,-1,-3,-2,0,0
1514959799023873,-2,0,-1,-1,-1,-1,-2,-1
1514959799043883,0,-3,-1,-2,0,-2,1,-1
1514959799043883,-1,0,0,-1,0,-4,1,-1
1514959799045885,-3,0,0,-1,-1,0,-1,-3
1514959799045885,-1,-2,-3,0,-1,-2,-3,-1
1514959799057893,-2,0,-1,-2,-2,-3,-2,-1
1514959799057893,0,0,-2,-1,0,-1,1,0
1514959799066890,0,-2,0,-3,-1,0,1,0
1514959799066890,0,-1,0,-1,-1,-1,0,-1
1514959799080909,0,-2,0,-1,-1,0,-2,-1
1514959799080909,-1,0,-2,1,-1,-1,-3,-3
1514959799082916,0,0,1,-2,-1,-3,-2,2
1514959799082916,-3,-2,-2,-2,-1,-1,2,-2
1514959799103936,-4,-2,-3,-2,-1,0,-2,-1
1514959799103936,-2,-1,-2,-1,-1,-1,0,-2
1514959799105916,-2,-2,-2,0,1,-1,-1,0
1514959799105916,-1,0,-2,-1,-1,-1,0,0
1514959799126946,0,0,-2,-1,0,-3,0,-2
1514959799126946,-1,1,2,-3,-1,-2,-3,-2
1514959799128949,0,0,0,-2,-1,-1,-2,-3
1514959799128949,-2,-2,-1,0,-1,-1,-1,-1
1514959799140957,-1,-2,-2,0,-1,-1,-1,-2
1514959799140957,-1,-2,0,0,-2,-2,-1,-1
1514959799142943,2,0,-3,0,-2,-1,-1,-1
1514959799142943,-4,-1,-1,-2,0,-2,-1,0
1514959799170992,-1,-2,0,0,-1,0,0,0
1514959799170992,1,-3,0,-1,0,0,-1,0
1514959799177967,-2,-3,-1,-1,-1,0,-1,-2
1514959799177967,-3,-1,-2,-1,-2,0,-1,-1
1514959799178968,-1,-1,-1,-2,-1,-3,0,-3
1514959799178968,-1,0,-1,0,-1,-2,-2,-1
1514959799185989,-1,-2,-2,-1,0,-2,1,0
1514959799185989,1,-1,0,2,-1,-1,-1,-1
1514959799200985,-1,-1,0,0,-2,0,1,-2
1514959799200985,-1,-2,-1,-1,-2,-1,-1,-1
1514959799202985,-1,0,0,-1,-1,-1,-3,-1
1514959799202985,-1,0,0,0,-2,-1,-1,0
1514959799222999,-1,-2,-1,-1,0,-1,1,-1
1514959799222999,-3,-1,-1,-1,-2,-1,-2,0
1514959799231013,-1,0,-1,0,-2,-1,-1,0
1514959799231013,2,0,0,-2,1,-1,-2,0
1514959799246014,1,-2,-2,0,0,-1,-1,-3
1514959799246014,-1,-2,-2,-2,-2,-2,0,-1
1514959799248016,-3,-3,-2,-2,0,0,-3,-1
1514959799248016,-1,-1,-1,-1,0,0,1,-1
1514959799261036,-1,-1,-3,0,-1,-1,-3,1
1514959799261036,2,-1,-2,-2,-1,0,0,-2
1514959799263027,1,-1,0,-1,-1,-1,0,-1
1514959799263027,0,-2,-2,-1,-2,-4,-2,-3
1514959799291047,-1,0,-1,-2,0,-1,1,0
1514959799291047,-2,0,-1,-1,-1,-1,-1,1
1514959799293048,0,-2,-2,-1,-3,-3,-1,-2
1514959799293048,-3,-3,-2,-2,0,0,-4,-2
1514959799306057,-2,-1,-2,1,-1,-3,-2,0
1514959799306057,0,-2,-3,-1,-1,-1,-1,1
1514959799308060,-1,-2,0,-1,-2,1,1,-1
1514959799308060,0,0,-1,0,-1,-1,-1,-3
