timestamp,emg1,emg2,emg3,emg4,emg5,emg6,emg7,emg8
1517203503401754,-1,-2,-1,-2,0,0,-1,-4
1517203503401754,2,0,-3,-3,0,1,-2,2
1517203503411258,0,0,-2,0,-1,0,0,-4
1517203503411258,-2,-1,-2,3,0,-1,0,8
1517203503425268,-3,-1,-1,0,-2,-2,-1,-7
1517203503425268,-4,0,-2,-3,-1,0,-2,1
1517203503426771,-1,0,-2,-1,1,-1,-2,1
1517203503426771,1,-2,-1,-3,-2,-1,-2,0
1517203503447785,1,-2,1,-2,-4,-2,-2,-6
1517203503447785,-1,-1,1,10,4,-2,-1,2
1517203503449286,1,-1,-3,-6,0,0,-1,-1
1517203503449286,-2,-1,1,0,-1,-2,-1,0
1517203503461295,-2,-2,-3,-7,-4,-1,1,-5
1517203503461295,-1,-1,-1,1,-4,-1,-1,2
1517203503470301,-2,-3,-1,0,0,0,-1,-4
1517203503470301,-2,-1,0,-2,-2,0,0,0
1517203503485313,0,1,-1,-1,1,-1,-1,-2
1517203503485313,-3,-2,-1,-3,-2,-1,-1,0
1517203503486814,0,-1,1,0,-3,-3,-2,-1
1517203503486814,-2,-1,-1,-4,-2,-1,-2,0
1517203503507333,-1,-3,0,2,0,-2,0,0
1517203503507333,0,-2,-2,-4,-1,-2,-1,-2
1517203503509328,-3,2,-3,-1,-2,-1,1,-2
1517203503509328,-2,-1,0,2,0,-1,0,0
1517203503521336,1,3,-3,1,-1,0,1,-1
1517203503521336,1,-1,0,-3,0,1,1,0
1517203503530344,-2,-2,0,-2,-3,0,-2,-3
1517203503530344,0,-1,0,-2,0,-1,-2,-1
1517203503544853,-3,-3,-2,1,-1,-2,0,-5
1517203503544853,-3,-1,-2,-3,-1,0,-3,-1
1517203503546857,1,-1,-1,-4,-4,-2,-1,-1
1517203503546857,0,0,-2,-1,-1,-2,-1,-1
1517203503567909,-2,-2,-1,4,2,1,-1,-2
1517203503567909,-2,-1,-2,-1,-1,-2,-1,-1
1517203503569410,-3,-3,0,1,-2,0,0,0
1517203503569410,-2,-1,-1,-2,-2,-2,-1,-1
1517203503589923,-1,0,-1,-5,-3,-3,-1,-3
1517203503589923,-1,-1,1,-2,-1,-1,0,0
1517203503596431,0,-1,0,3,2,1,-1,0
1517203503596431,-2,0,-1,0,-2,-1,-1,-2
1517203503604935,-2,-4,1,2,2,-2,-1,0
1517203503604935,0,0,-2,-2,-3,-1,-3,-1
1517203503606435,1,-1,-1,0,-1,0,-4,-2
1517203503606435,1,-2,-1,-1,-1,1,0,1
1517203503627450,-3,0,-1,0,-4,-1,0,-4
1517203503627450,0,-1,0,-2,1,-2,1,-1
1517203503628951,0,-2,0,-1,0,-3,-1,0
1517203503628951,0,-1,-2,1,-1,0,-1,0
1517203503650466,-4,-1,1,-3,-1,-2,-1,0
1517203503650466,-2,-2,-1,-2,-1,0,-1,-2
1517203503651468,0,0,-2,1,-1,-1,-1,0
1517203503651468,0,-1,-3,1,0,-2,0,0
1517203503665478,-1,0,-1,-2,-2,-1,-1,-1
1517203503665478,-2,1,-1,0,0,-1,0,-1
1517203503666478,-2,0,-2,-3,-2,-2,0,-1
1517203503666478,-1,-2,0,-1,-2,-2,-2,-2
1517203503687492,0,0,-2,2,-1,1,-2,-2
1517203503687492,-2,-1,-1,-3,-2,-1,-1,-3
1517203503688993,-1,-1,-1,-1,-1,-1,-1,-1
1517203503688993,-2,-1,0,-1,-3,-1,0,0
1517203503710010,0,-2,1,2,1,0,1,1
1517203503710010,1,-1,0,-2,0,0,-2,0
1517203503711510,-1,-1,0,-1,-2,0,1,-1
1517203503711510,-2,0,-1,-1,0,-1,0,0
1517203503724518,0,-1,-2,-4,-1,0,-2,0
1517203503724518,-3,-1,-2,-2,0,-2,-2,-2
1517203503725019,0,0,-1,-1,0,-1,-1,0
1517203503725019,-2,-1,-1,0,1,0,0,-1
1517203503747039,-1,-1,-1,-1,-2,-2,-2,-1
1517203503747039,-1,-1,-3,-1,-2,0,-1,-1
1517203503747535,-2,0,-1,-2,-2,-2,-3,-2
1517203503747535,-1,-2,-1,-2,0,-1,-1,-2
1517203503769551,-1,-1,-2,-1,-1,-2,-1,-1
1517203503769551,-1,-1,1,-2,0,-2,-1,0
1517203503770051,0,-2,0,-1,-1,-1,-1,-2
1517203503770051,1,0,-1,-1,0,0,-3,0
1517203503784561,-1,0,-1,4,1,-1,-1,0
1517203503784561,1,1,-1,0,-3,-1,-2,0
1517203503785062,-1,-1,0,0,-2,1,0,-2
1517203503785062,0,-3,1,-1,0,-1,0,0
1517203503806611,1,-1,-2,-4,-2,-1,-2,-1
1517203503806611,-4,0,0,2,-1,-2,-1,-1
1517203503807611,-1,-1,-1,-2,-2,-2,-1,-1
1517203503807611,0,3,0,0,-1,-1,0,-1
1517203503829126,0,1,0,-1,-1,0,-2,-1
1517203503829126,1,6,-4,-1,0,0,0,-1
1517203503830128,-2,-2,-1,0,-1,0,-1,-2
1517203503830128,-2,-2,-4,-2,-2,-3,1,-1
1517203503844137,0,-1,3,-2,-3,-3,-1,-1
1517203503844137,-1,0,-2,-3,2,-1,0,-3
1517203503845138,0,-1,0,2,-3,-2,-2,-1
1517203503845138,-1,-12,-7,-8,-1,-2,-1,-1
1517203503867154,-3,15,2,1,0,-2,-1,-1
1517203503867154,0,-1,7,-2,-4,-1,0,0
1517203503867655,-2,-8,-15,-1,1,2,-2,0
1517203503867655,-1,-3,2,0,-3,0,-1,-1
1517203503889168,-1,-7,-4,-4,-3,-1,-1,-1
1517203503889168,-1,-3,0,-1,-1,-1,0,-1
1517203503890169,-1,-1,3,2,2,-2,1,-2
1517203503890169,-1,2,0,-3,-3,-2,-3,-2
1517203503903679,-1,-4,-3,-2,0,0,0,-3
1517203503903679,-1,0,-1,-1,-2,-1,-2,-1
1517203503911684,-1,2,1,-1,-3,-2,-3,-1
1517203503911684,-1,1,-3,1,1,0,-3,-3
1517203503926695,-2,-5,4,0,1,0,1,1
1517203503926695,-1,-5,-3,0,-2,-1,0,0
1517203503927696,0,2,0,-3,-1,0,-3,-2
1517203503927696,-2,0,0,1,-2,-2,-2,-2
1517203503949714,-1,-2,-3,-1,0,0,-1,-1
1517203503949714,1,-2,-4,-2,-3,-2,1,-1
1517203503950212,1,0,1,0,0,-2,1,-1
1517203503950212,-1,2,4,1,0,-1,0,0
1517203503964722,-1,-2,-1,-2,-1,0,-2,-1
1517203503964722,-2,-2,-2,1,0,-1,0,-1
1517203503965224,1,2,0,-2,0,-4,0,-1
1517203503965224,-1,0,0,2,-2,-1,-1,-1
1517203503986783,-1,-2,-3,0,-1,0,-1,0
1517203503986783,-2,-1,4,-1,0,-1,-2,-1
1517203503987783,-1,0,-1,-2,-1,-1,0,0
1517203503987783,0,1,-3,0,1,0,0,1
1517203504009298,1,-3,-1,-2,0,-2,-2,-2
1517203504009298,-1,-1,-3,-1,0,0,-2,0
1517203504010299,-1,-1,-1,0,0,-1,-3,-2
1517203504010299,1,0,0,-1,0,0,-2,-1
1517203504024309,-1,-1,-1,-1,0,-1,-2,0
1517203504024309,-1,-3,-3,-2,-3,-2,-1,-3
1517203504024812,-1,-2,2,-1,-2,-1,0,0
1517203504024812,0,1,-3,-3,-2,-2,0,0
1517203504047326,-1,-2,-1,-1,0,-1,0,-3
1517203504047326,-1,-1,-1,-2,-2,-2,-1,0
1517203504047326,0,0,0,-2,-2,0,-1,-1
1517203504047326,0,0,-1,-1,-2,-2,-2,-1
1517203504069341,-3,-1,-3,-1,-2,-1,-1,-1
1517203504069341,-1,-2,-3,-1,-2,-1,-2,0
1517203504069841,-2,-4,1,-1,0,-1,0,-2
1517203504069841,-2,-1,-1,-1,0,-1,0,-2
1517203504084353,0,-2,-1,-1,-1,-3,-1,1
1517203504084353,-1,-1,-2,-1,-1,-1,-1,-2
1517203504085354,-2,0,-1,-1,0,-2,-1,-1
1517203504085354,0,0,-2,-1,-1,0,0,0
1517203504106868,0,-3,-2,0,-1,-1,-1,-1
1517203504106868,-5,-1,0,-1,-2,-1,-1,0
1517203504107869,-1,-1,-3,-1,0,0,-3,-2
1517203504107869,-3,-3,-1,-1,-1,-2,-1,-1
1517203504129383,0,-1,-2,-2,-3,0,-1,0
1517203504129383,1,-1,-1,0,1,0,-2,0
1517203504129884,-1,-1,-1,-2,-1,-1,0,-1
1517203504129884,0,-1,-1,-1,-1,-1,-2,-3
1517203504143894,-1,-1,0,-1,-2,0,-1,-1
1517203504143894,-3,-3,1,-2,-1,0,0,1
1517203504151902,0,0,-1,0,-1,-2,0,0
1517203504151902,1,-1,-2,0,-2,-1,-2,-1
1517203504166912,-1,0,1,-2,-1,-1,-1,-1
1517203504166912,0,-1,-1,-2,1,-2,0,-2
1517203504167912,0,-2,-3,-2,-2,-1,-2,0
1517203504167912,-2,-3,-1,-1,0,-1,-1,-1
1517203504189427,0,-2,-1,-1,0,0,-2,-2
1517203504189427,-1,-1,-2,-1,-2,-1,-1,-1
1517203504189927,1,-2,0,-1,-1,-1,1,0
1517203504189927,-1,0,1,-2,-2,-1,0,0
1517203504203476,-1,-1,-1,-1,0,-2,-1,0
1517203504203476,-1,-2,-2,-1,0,-2,-1,0
1517203504211982,0,-1,-3,-1,-1,-2,-1,-1
1517203504211982,-4,0,0,0,-2,0,-1,-2
1517203504226993,-1,0,-1,-1,1,-1,-2,-1
1517203504226993,1,-2,-2,-2,-1,-2,0,-1
1517203504227493,-2,-1,-1,0,-1,-1,0,-1
1517203504227493,-1,0,0,-1,0,0,-2,-1
1517203504249509,-1,-1,-3,-2,-1,-2,0,-1
1517203504249509,0,0,0,0,0,0,-2,-1
1517203504250022,-2,-2,-2,-3,-2,-1,-3,-2
1517203504250022,0,-2,-3,0,0,-1,-2,0
1517203504263519,0,-1,0,0,-2,-2,0,0
1517203504263519,-1,-1,-2,-2,-3,-3,-1,-1
1517203504272025,0,1,-3,0,0,-1,-1,-1
1517203504272025,0,-2,0,0,0,-2,0,-1
1517203504287035,-2,-2,-1,-1,0,0,0,-2
1517203504287035,-1,-1,-1,0,0,-2,0,-1
1517203504287536,0,-2,0,0,0,-1,-1,0
1517203504287536,-1,-1,-3,-2,-3,-1,-1,-1
1517203504317558,-1,-1,-2,1,-2,-1,-1,-1
1517203504317558,-1,1,-2,-1,-2,0,-6,-3
1517203504318057,-1,1,-1,-1,-2,-1,1,1
1517203504318057,-2,0,0,-1,-2,-3,0,-1
1517203504323561,0,-2,-1,-4,0,-1,0,-1
1517203504323561,0,0,0,0,-1,-2,2,0
1517203504332069,-1,-2,-1,-1,-1,-1,-3,-2
1517203504332069,-1,-2,-3,-2,0,-1,2,1
1517203504355083,0,0,-2,-1,-1,-2,-1,-2
1517203504355083,2,-2,-2,-1,0,0,0,-2
1517203504356084,-1,-2,-2,-2,-1,-2,-1,-1
1517203504356084,0,-1,-1,-2,1,-1,-1,-2
1517203504369594,0,-1,0,-1,-2,0,-1,-1
1517203504369594,0,-2,-1,-1,0,0,-2,1
1517203504370095,-2,-2,0,-2,-1,-1,0,-2
1517203504370095,-1,-1,-1,-2,-2,0,-2,-1
1517203504384105,-1,-1,-3,-2,-3,-2,1,-1
1517203504384105,-2,-2,-3,-2,-1,-3,-1,-3
1517203504391609,-1,0,0,-1,-3,-1,0,0
1517203504391609,-1,-1,-3,0,0,-1,-1,-1
1517203504406622,-1,-1,1,0,-1,-1,-1,-2
1517203504406622,-1,-2,-2,-2,-1,-1,-2,-1
1517203504407621,-1,0,-2,-1,-2,-2,-3,-1
1517203504407621,0,0,-1,0,-1,-1,-1,-3
1517203504429136,-1,-1,-1,0,-1,-3,-1,-1
1517203504429136,0,-1,1,0,-2,-2,0,-2
1517203504430138,1,0,0,-2,-1,0,0,-1
1517203504430138,-1,0,1,-2,-2,-1,0,0
1517203504443649,-1,-4,-1,-1,2,-2,0,-2
1517203504443649,-3,-2,0,0,-2,-1,0,0
1517203504451652,-2,0,-2,-1,-1,-1,0,-2
1517203504451652,-1,-2,-3,0,-1,-3,0,0
1517203504467164,-2,-1,0,-2,-2,0,-2,0
1517203504467164,0,0,-1,-3,0,-1,0,0
1517203504467665,0,-1,-2,-1,0,0,0,-1
1517203504467665,-3,-1,1,-1,-1,-2,-3,-3
1517203504489179,-1,0,-3,-2,-3,-2,-2,-1
1517203504489179,-1,-1,-2,1,0,0,-2,-1
1517203504490179,-1,-1,-1,-1,0,-2,0,1
1517203504490179,-1,-1,-1,-1,-1,-2,-1,-2
1517203504503702,-2,-1,-2,-1,0,-2,-1,-2
1517203504503702,0,-1,-1,-1,-2,-2,-1,-2
1517203504511709,1,-2,-1,-1,0,-3,-1,-2
1517203504511709,-1,-2,-2,-1,-1,0,0,0
1517203504526705,-1,0,0,-1,0,0,-2,-1
1517203504526705,-3,-2,-2,-1,-1,-1,-1,-2
1517203504527705,0,-1,-2,1,0,0,0,0
1517203504527705,0,-2,-1,-2,0,-2,0,-1
1517203504549240,0,-1,-1,-1,0,0,-1,0
1517203504549240,0,0,-3,0,0,-1,-1,-2
1517203504550240,-1,-1,-1,-2,-2,-3,-2,0
1517203504550240,-2,-1,-2,0,-1,-2,-3,0
1517203504572770,0,0,-1,-1,-3,-3,-1,-3
1517203504572770,0,-1,0,-3,-2,0,-2,0
1517203504573272,-1,0,-2,-2,0,-1,-1,-2
1517203504573272,0,-1,0,-2,-3,-1,-3,0
1517203504586780,-2,-1,-2,0,-2,0,-1,-1
1517203504586780,-2,-2,-1,-2,0,-2,0,0
1517203504587781,-1,0,0,-1,-1,0,0,0
1517203504587781,0,-2,-1,-2,0,0,-2,0
1517203504609296,0,-3,0,-1,-1,0,0,-2
1517203504609296,0,-1,0,-1,-2,1,-2,-2
1517203504609797,-2,-2,0,0,-2,0,0,-2
1517203504609797,0,-2,-1,-2,-3,-2,-1,0
1517203504632813,0,0,-1,-1,-1,-1,-1,1
1517203504632813,-1,0,-2,0,-1,-1,-2,-1
1517203504633316,0,-1,-1,-1,-1,-1,-1,-3
1517203504633316,0,0,-2,-1,-1,-3,0,-2
1517203504647326,0,0,-1,-1,-2,-1,-1,-2
1517203504647326,-1,-1,-1,-1,0,-1,-2,0
1517203504648325,-2,0,-1,0,-1,0,-3,-1
1517203504648325,-2,-1,0,0,1,1,-1,0
1517203504669340,-1,-2,-1,-2,-1,1,0,1
1517203504669340,-2,-1,-1,1,-2,-2,0,-3
1517203504669840,-1,-1,-1,-1,-1,-1,0,-1
1517203504669840,-2,-2,-3,-1,-2,-2,-1,-2
1517203504692355,0,0,0,-2,-1,0,1,-1
1517203504692355,-1,-1,-2,1,0,-1,0,0
1517203504693356,0,-1,0,-2,-1,0,-1,-1
1517203504693356,-1,-1,0,0,-2,0,-2,-1
1517203504706867,-1,0,-2,-2,-1,0,-3,0
1517203504706867,-3,-2,-1,-2,-2,-2,0,0
1517203504707878,-1,-1,-1,0,-3,-1,-2,-1
1517203504707878,-1,0,0,-2,-2,-2,0,-2
1517203504729394,-1,-2,-1,0,1,-3,-1,-1
1517203504729394,0,-1,-2,-2,-2,-1,-2,0
1517203504729882,-2,-1,-1,-1,0,-2,0,0
1517203504729882,-1,0,-1,-1,-1,0,-1,-1
1517203504752398,0,-2,0,0,-2,-2,1,-1
1517203504752398,-1,1,-2,-1,-1,-1,-1,-1
1517203504753399,-1,-1,-1,-2,0,-2,0,-1
1517203504753399,0,0,-2,0,0,-1,1,-1
1517203504766911,-1,0,-2,-1,-1,-1,-2,-3
1517203504766911,0,-3,0,-2,-2,-2,-1,-1
1517203504767409,0,-1,-1,-1,-1,1,-2,0
1517203504767409,-2,-3,-2,-1,-2,1,-1,-1
1517203504789424,-2,-1,0,-2,-1,-1,-1,-1
1517203504789424,-1,-1,0,-1,-1,0,0,-3
1517203504789924,-2,0,-2,-2,-1,-2,0,-2
1517203504789924,1,-1,0,-1,-1,-2,0,-2
1517203504812440,0,0,-1,-2,-1,-3,-1,-1
1517203504812440,-1,-2,0,-1,-1,-1,-1,0
1517203504813441,0,-2,0,-2,-1,-1,-3,-1
1517203504813441,-2,-3,0,1,0,1,0,-2
1517203504826950,-3,-2,0,-3,-3,-2,-1,-2
1517203504826950,0,0,-1,-1,0,-1,-1,0
1517203504827451,1,-2,-2,0,-2,-2,-2,-1
1517203504827451,-2,-1,-1,-2,-2,-2,-1,-2
1517203504849467,0,-2,-1,-1,0,-1,-1,-1
1517203504849467,-1,0,-1,-1,-1,-2,0,-3
1517203504849969,-2,-2,-3,0,-1,-2,-3,0
1517203504849969,-1,0,-2,-1,-1,0,-2,0
1517203504872483,-2,0,-1,0,-2,-1,1,-1
1517203504872483,-1,-1,-2,-2,-1,-2,0,0
1517203504873483,0,-1,0,-1,-1,-2,0,-2
1517203504873483,-1,-3,-2,-1,-2,-2,-1,-1
1517203504887036,-1,-1,-1,-1,-1,-1,1,-1
1517203504887036,-3,-2,-2,-3,0,-2,-2,0
1517203504887537,-1,-1,0,-1,0,-1,-2,-1
1517203504887537,1,-1,1,-3,-2,-1,-1,0
1517203504909551,-1,-1,0,-2,-2,0,0,-1
1517203504909551,-1,-3,-2,-2,-1,0,1,-1
1517203504910052,-3,-2,-2,1,-1,-2,0,0
1517203504910052,1,-1,-2,-1,-1,0,-1,-2
1517203504932569,-2,-1,-2,-1,-2,0,-2,0
1517203504932569,-2,1,-1,0,-1,0,-3,0
1517203504933569,-1,1,-1,-3,-1,0,0,-2
1517203504933569,0,-1,-1,-2,-1,-1,0,0
1517203504947080,0,-1,-1,-1,0,-2,-1,-1
1517203504947080,-1,-1,-2,0,-1,-1,0,-2
1517203504948582,0,-1,-1,-2,-1,0,-2,-2
1517203504948582,-1,-1,0,0,1,-1,1,-1
1517203504969595,0,0,-2,-1,-2,-1,0,-2
1517203504969595,-1,0,0,-1,-1,-1,1,0
1517203504970097,-2,-1,-3,0,0,0,0,-1
1517203504970097,-2,0,-2,-1,-2,-1,-1,0
1517203504992610,1,-2,0,-1,-1,-1,-2,-1
1517203504992610,0,0,-1,0,-1,-1,-1,-2
1517203504993111,-2,-1,-1,-1,-3,-2,-1,0
1517203504993111,-1,0,0,-1,0,-2,-2,-1
1517203505007121,1,-1,1,0,-2,-3,-1,-3
1517203505007121,1,-1,-1,0,0,-1,0,-1
1517203505007621,0,-2,-2,-2,-2,0,0,0
1517203505007621,-2,-1,-1,0,-1,-1,-1,0
1517203505029136,-2,-1,0,-2,-2,1,-1,0
1517203505029136,0,-1,-1,-1,-1,-2,-2,-3
1517203505030139,-1,-2,0,-1,-1,-1,-1,0
1517203505030139,-1,-2,-1,-2,-3,-2,0,-1
1517203505052653,-1,-1,-2,0,-1,-1,-1,0
1517203505052653,-1,0,-2,-2,-2,-2,-1,1
1517203505053155,0,-1,0,0,-1,-1,-1,-2
1517203505053155,-2,-1,2,-2,-1,-1,-1,-2
1517203505067164,0,-2,0,0,-1,-1,-1,-1
1517203505067164,-1,-1,-1,-2,-1,-1,-1,-1
1517203505067665,-1,-2,-1,-1,-1,-1,0,-1
1517203505067665,0,-2,0,-1,0,-1,-1,-1
1517203505089179,-2,-2,1,0,-1,-2,0,-1
1517203505089179,-2,-1,-1,-1,-1,0,-3,0
1517203505090180,0,-2,-2,-1,0,0,-2,-1
1517203505090180,0,0,-2,0,0,0,1,-1
1517203505112695,-1,-1,-1,-2,0,-1,1,-2
1517203505112695,1,-1,-1,0,0,-2,-1,0
1517203505113196,-1,1,1,-1,-2,-1,-1,-1
1517203505113196,-1,-1,-3,-1,-2,-1,-2,0
1517203505126705,0,-2,-2,-3,0,-2,-2,1
1517203505126705,-2,-1,1,-1,-1,0,-1,-2
1517203505127706,-1,0,-1,0,-1,-2,-1,-1
1517203505127706,-1,-1,-1,-1,-1,-1,-2,-1
1517203505149221,0,0,-1,-2,0,0,-1,0
1517203505149221,0,-1,-1,-2,-2,-1,0,0
1517203505150224,-1,-2,-1,-2,-1,-3,0,0
1517203505150224,0,0,-2,-2,-3,0,0,0
1517203505172238,0,0,-3,-1,-3,-1,-1,-1
1517203505172238,0,-1,-1,-1,-2,-2,-1,-2
1517203505173238,-1,0,-2,-1,-1,0,-2,0
1517203505173238,0,-1,1,-2,-1,-1,-3,-1
1517203505186248,-1,0,0,-1,-3,-2,-2,-1
1517203505186248,-1,0,0,0,-1,-1,-1,-1
1517203505194253,-3,-1,-3,-1,-1,-2,-1,1
1517203505194253,-2,1,-2,-2,-1,-2,-2,-2
1517203505209263,1,1,-2,0,1,-3,0,-1
1517203505209263,-1,-2,-2,-1,-1,-1,-1,-1
1517203505210264,0,-1,0,-2,0,-1,-1,-2
1517203505210264,-2,-1,-2,0,-1,-2,0,-1
1517203505232782,-1,-2,-1,0,-2,0,-1,-1
1517203505232782,-1,-2,-1,-2,0,-1,-1,-2
1517203505233282,0,-1,-1,-1,0,-3,-1,-2
1517203505233282,-1,-2,0,0,-1,-1,-1,1
1517203505246290,0,-2,-1,0,-2,-2,1,0
1517203505246290,-1,1,0,-2,-2,1,-1,0
1517203505254297,-1,-1,-1,-1,-1,0,0,-1
1517203505254297,-1,-1,-1,-1,-1,-1,-1,-1
1517203505269306,-1,-1,-1,0,-1,-1,-1,-2
1517203505269306,-4,-2,-2,-1,-2,-1,0,-1
1517203505269806,-1,-1,0,0,-2,-2,0,-1
1517203505269806,-1,0,-1,0,1,-2,0,-1
1517203505292322,-2,-2,-2,-2,0,0,-2,-1
1517203505292322,1,-2,-3,-1,0,0,-1,-1
1517203505293323,-1,-1,-2,0,-1,1,-1,0
1517203505293323,-1,-1,-1,-1,-1,-1,-3,0
1517203505306334,-2,-1,-1,-2,0,-1,-2,0
1517203505306334,-1,0,0,-1,0,-1,-1,-2
1517203505314339,-1,-1,1,-1,-1,-1,0,-1
1517203505314339,-1,-3,-2,-2,-2,-1,0,-1
1517203505329348,-1,0,-1,2,0,-1,-1,-3
1517203505329348,-1,0,0,-1,-2,-1,-2,-1
1517203505329849,1,-1,-1,1,-2,-1,-2,1
1517203505329849,0,-1,-1,0,-1,-2,-1,-1
1517203505352384,1,-2,-1,0,-4,0,-3,-1
1517203505352384,-2,0,-1,1,0,-2,-1,0
1517203505353367,-2,-1,-1,0,-3,-3,-1,-2
1517203505353367,-1,-2,0,-2,-2,0,0,-1
1517203505366375,-1,-1,-1,-1,-1,-2,-1,1
1517203505366375,-1,0,1,-1,-1,-1,0,-1
1517203505374406,0,0,-2,-2,-2,-1,-2,-3
1517203505374406,0,-1,0,-2,0,0,0,0
1517203505389401,-4,-1,-1,-1,0,-2,-3,-2
1517203505389401,-1,-2,-1,-2,-1,-1,-1,-1
1517203505389891,-1,-2,-2,-1,0,0,-2,0
1517203505389891,-1,-2,0,1,-1,-1,0,-1
1517203505412432,0,-2,-3,0,-1,0,0,0
1517203505412432,-2,-1,0,-1,-1,-1,-1,-2
1517203505413409,0,1,-2,0,-1,-1,0,-1
1517203505413409,-1,1,-2,0,-3,-1,-1,-1
1517203505426417,1,-1,0,-1,1,1,-1,1
1517203505426417,-1,-1,-2,0,-4,-2,0,-1
1517203505434426,-1,-2,-2,-2,-1,-1,-1,-2
1517203505434426,-1,-2,-2,-2,-2,-2,-1,0
1517203505449434,-1,-1,-1,-1,0,-1,0,-1
1517203505449434,0,-1,0,-1,-1,-1,-2,-1
1517203505449937,-2,-1,-1,-3,-1,-1,-2,2
1517203505449937,-1,-1,-1,0,0,0,-2,-2
1517203505472450,-1,0,0,-1,-1,0,-1,1
1517203505472450,-1,-1,-2,0,3,2,-1,0
1517203505473451,-1,0,0,-1,-1,0,-2,-1
1517203505473451,0,0,-1,-2,-1,1,-2,-1
1517203505494966,-1,-1,-2,-3,-1,-1,-1,-1
1517203505494966,0,-2,-1,-1,-3,-1,-1,0
1517203505495980,-1,0,-1,-1,-1,-1,0,-2
1517203505495980,-1,0,-2,-1,-1,-1,-1,-1
1517203505509485,0,-1,1,0,1,0,-2,-3
1517203505509485,0,-1,-1,0,-2,-2,0,-1
1517203505509977,0,-1,-2,-1,-1,-1,0,-1
1517203505509977,-1,-1,-1,-2,-1,-2,0,-1
1517203505532494,-2,0,-3,-1,-3,-1,1,-1
1517203505532494,-1,0,-1,-2,0,-1,-3,-1
1517203505533493,0,-1,0,-1,-1,-2,0,-1
1517203505533493,-1,0,-1,-1,-1,0,-1,-1
1517203505555011,-1,0,-3,-2,-1,-2,-1,0
1517203505555011,-2,-1,0,-2,0,-3,-1,0
1517203505556009,-1,-1,-1,-1,0,-1,-1,-2
1517203505556009,-1,-1,0,-1,-1,-1,-1,-1
1517203505569518,-1,-1,0,0,-2,-3,-2,-2
1517203505569518,-1,-1,-3,-1,-1,-2,0,-1
1517203505570020,-1,-2,0,-2,0,0,0,-3
1517203505570020,-1,-1,-1,-1,-2,-2,-2,-1
1517203505600042,-3,-1,-1,-4,-2,0,0,-1
1517203505600042,-1,1,-2,-1,-1,-1,-1,0
1517203505601041,-1,-1,-1,0,-2,0,-1,0
1517203505601041,0,0,0,-1,1,0,-2,-2
1517203505615050,-1,-2,-1,0,-1,-1,0,0
1517203505615050,-1,-3,0,-1,-1,1,0,-2
1517203505616053,-1,-1,-2,-1,0,-1,-1,-1
1517203505616053,-1,-2,-2,-1,1,0,0,0
1517203505629060,-1,2,0,-1,-1,-3,-1,-1
1517203505629060,0,0,-2,0,-1,-3,0,-2
1517203505630062,1,-1,-2,-2,-2,0,-2,0
1517203505630062,0,0,-1,-1,-1,-1,-1,-1
1517203505652577,-2,-2,-2,-1,-3,0,0,-1
1517203505652577,-2,-2,0,-2,-2,0,-1,-2
1517203505653077,-1,0,0,0,0,-2,-1,0
1517203505653077,-2,-2,-1,-1,-1,-1,-1,0
1517203505675093,-1,-1,-2,-1,0,-2,-1,-2
1517203505675093,0,0,-1,0,-3,-1,-1,-2
1517203505675593,-1,-2,-2,-2,0,-1,-2,0
1517203505675593,-2,0,0,-1,-1,0,0,-1
1517203505689104,0,-2,0,-1,-1,-1,0,-2
1517203505689104,2,-1,-2,-2,0,-1,0,-1
1517203505690104,-2,-1,-1,-2,1,-2,-1,0
1517203505690104,-1,-3,-2,0,-1,-2,-1,0
1517203505712625,0,-2,-1,-1,0,1,0,-2
1517203505712625,-1,0,-2,-1,-2,0,0,-2
1517203505713120,0,0,-2,-1,0,-1,-2,0
1517203505713120,-2,-1,1,-1,0,-1,-1,1
1517203505735135,-2,0,-2,0,0,-1,-3,-2
1517203505735135,-1,-3,0,-1,-1,-3,0,-1
1517203505735637,-2,-1,0,1,-2,-2,0,0
1517203505735637,-2,0,0,-1,-3,-2,1,0
1517203505749147,-1,1,-1,-2,-1,-1,0,1
1517203505749147,0,-1,-3,-1,-2,1,0,-1
1517203505750147,-2,-1,-1,0,-2,0,-1,-1
1517203505750147,2,-1,-2,0,0,-1,-3,-1
1517203505772662,0,-2,-1,1,-2,1,0,-1
1517203505772662,-2,1,-3,-1,-1,-2,2,-1
1517203505773163,0,-2,1,-2,-2,-1,0,-2
1517203505773163,-2,-2,-1,-1,0,-2,1,-2
1517203505795178,0,-1,-3,-2,0,-1,-3,0
1517203505795178,-2,0,-2,-1,-1,-1,-3,1
1517203505795680,-1,0,-2,0,0,-2,-2,-2
1517203505795680,-1,-2,0,0,-2,0,-2,-1
1517203505808688,-2,-1,0,-2,-2,-3,-1,-2
1517203505808688,-1,0,-2,0,-1,-3,0,-1
1517203505823699,-1,0,-1,-2,-2,-1,-1,0
1517203505823699,-1,0,-2,-1,-1,0,0,-1
1517203505832705,-1,1,-2,1,0,-1,-1,1
1517203505832705,0,-2,1,0,-1,0,-1,-1
1517203505834206,-2,-1,-1,-1,-1,-2,-1,-2
1517203505834206,-1,0,-3,-1,-1,-1,0,-2
1517203505855221,-1,-1,-1,-1,-2,0,-2,-1
1517203505855221,-1,-1,1,-2,0,-2,-1,1
1517203505856722,-1,-1,0,-1,-1,0,0,-2
1517203505856722,1,-3,-1,-2,0,1,-1,-2
1517203505868653,-2,0,1,-3,0,-3,-1,0
1517203505868653,0,0,-1,-1,-1,0,-1,-1
1517203505877660,-1,-2,-2,-1,-1,-1,0,-1
1517203505877660,-1,-2,-2,-1,0,-2,-1,-2
1517203505892670,0,0,-3,0,-1,0,-1,1
1517203505892670,-1,-1,0,-1,-1,-1,-1,0
1517203505894171,-1,0,-1,0,-2,0,-1,0
1517203505894171,-1,-1,-1,-1,-1,-2,-2,1
1517203505915186,-2,-1,-2,0,0,-2,-1,-2
1517203505915186,0,-1,0,0,0,-1,-2,-2
1517203505916689,0,0,-2,-2,0,-1,0,-2
1517203505916689,0,-1,-1,-1,-2,-2,-3,0
1517203505929195,-1,-2,0,-2,-2,0,-2,-3
1517203505929195,-1,-2,-2,-1,-1,-2,-2,-1
1517203505937701,-1,-1,-2,-1,-1,-1,-1,1
1517203505937701,-1,-1,-2,-1,0,0,0,-1
1517203505952712,0,-1,-3,0,0,-1,-1,-2
1517203505952712,-1,-1,-1,0,-1,0,-2,-2
1517203505954214,1,0,-2,-2,0,-1,0,-2
1517203505954214,-3,-1,-1,-1,-1,-3,-1,-1
1517203505982733,0,1,-1,-2,-3,0,-1,-1
1517203505982733,-1,0,-2,-1,-3,-2,-1,-1
1517203505984235,-1,-2,-1,-1,-1,1,-3,-2
1517203505984235,-1,-2,-3,0,-2,0,-1,-1
1517203505988738,0,-1,0,0,0,-2,-1,-3
1517203505988738,-1,1,-1,0,-2,0,0,-1
1517203505997744,-1,-1,1,-2,-1,0,-2,-3
1517203505997744,0,-1,0,-1,-2,-1,-1,0
1517203506012254,-1,-2,0,0,-1,0,-1,0
1517203506012254,-1,-1,-1,-1,0,0,0,0
1517203506014261,-1,0,0,0,-1,-2,-3,1
1517203506014261,-3,1,-1,-1,-2,-2,0,-2
1517203506035271,-1,-1,-2,-2,-3,-2,-3,0
1517203506035271,0,-2,-1,-1,-2,-2,-1,-1
1517203506036771,1,-2,-2,-2,0,-3,0,-2
1517203506036771,-2,-1,-1,1,-1,-1,0,-1
1517203506048790,-2,-3,-3,-1,0,-1,1,0
1517203506048790,-1,-1,-1,-2,-1,-1,-1,-1
1517203506057786,-1,0,-1,0,-2,-1,1,-1
1517203506057786,-1,-1,-1,-1,0,-2,-2,-1
1517203506072297,1,-1,-1,-1,-1,-2,-1,-2
1517203506072297,-1,0,-2,-1,-2,-2,-1,0
1517203506074798,-1,0,-2,-2,-1,-2,0,0
1517203506074798,0,0,0,0,0,-1,-1,-2
1517203506094812,-2,0,1,-1,-1,-1,-1,0
1517203506094812,-1,-1,0,0,-2,-1,-2,-1
1517203506096314,-1,0,0,0,0,0,0,0
1517203506096314,-1,0,-1,-2,-1,-1,-1,-1
1517203506108822,-1,-1,-1,-1,-1,0,-1,1
1517203506108822,0,-2,0,0,-2,-1,0,-1
1517203506117830,-3,-2,-1,-1,-1,-1,0,1
1517203506117830,-1,-1,0,-1,0,-2,-1,-2
1517203506132840,-1,0,-2,-1,-1,0,0,-2
1517203506132840,0,-2,-2,-3,0,0,-2,-2
1517203506133844,1,-2,0,0,-1,-3,-2,-1
1517203506133844,1,-1,-1,0,0,0,-1,-1
1517203506154879,0,-3,-1,-2,-1,-2,0,-2
1517203506154879,-1,-2,-2,0,-1,0,0,-1
1517203506156880,0,0,-1,-2,-1,1,-1,-1
1517203506156880,-1,0,0,-2,-2,0,1,0
1517203506168888,1,-3,-1,-2,0,-1,1,-1
1517203506168888,-1,-1,-1,-1,0,-2,0,1
1517203506177895,-1,-2,-1,-3,-2,0,-1,0
1517203506177895,-1,0,0,0,-1,-3,-1,-1
1517203506192405,-2,-1,-2,0,-1,0,-2,-1
1517203506192405,-2,0,-1,0,-2,0,-2,0
1517203506193906,-1,0,-3,0,0,-2,-2,0
1517203506193906,-1,-2,-1,0,0,0,-1,-2
1517203506214973,-1,1,-1,-2,-2,-3,0,-1
1517203506214973,-1,0,0,0,-1,-2,-1,-1
1517203506216474,-2,-1,-1,-1,-1,-1,-1,-2
1517203506216474,0,-3,-1,-2,-3,-1,-2,-1
1517203506228481,-1,-2,0,0,-1,-1,0,1
1517203506228481,-2,0,-1,-1,-2,0,-1,-1
1517203506237491,-1,0,0,0,-2,-2,0,-1
1517203506237491,0,0,-1,0,2,-1,-2,0
1517203506252499,0,-2,0,-1,-1,0,-3,-1
1517203506252499,0,-1,0,-1,-2,-1,-2,-1
1517203506258502,-1,-2,-1,-1,0,-2,-1,0
1517203506258502,-2,-2,-1,-1,-2,-2,-2,-2
1517203506275015,-3,-1,-1,0,-1,-1,-1,1
1517203506275015,-2,-1,0,0,-1,-1,1,0
1517203506276515,-2,-3,-1,-2,-2,-1,-2,-1
1517203506276515,-3,-2,-1,0,-1,-1,0,-1
1517203506288536,-1,-1,-1,0,-1,1,-1,-1
1517203506288536,-1,-1,-2,-1,-2,-1,0,-3
1517203506297530,-2,-1,-1,-1,0,-1,-1,-2
1517203506297530,0,0,0,-2,-2,-1,1,-1
1517203506312557,-1,-2,-1,-2,-1,-4,-3,-2
1517203506312557,-1,-1,-2,-2,-2,-1,-2,0
1517203506314042,-1,-1,-2,-1,-2,1,-1,0
1517203506314042,-1,-1,-1,-2,-1,0,-1,-2
1517203506335057,-1,1,0,-1,-1,-2,0,-3
1517203506335057,-1,-1,-1,0,0,0,-1,-2
1517203506336559,-3,-1,-1,-2,-1,-1,-1,-2
1517203506336559,-1,-2,0,1,-1,0,-1,0
1517203506349067,-1,0,-2,-3,-1,0,-2,-1
1517203506349067,0,-1,-1,-1,-1,-1,-1,-1
1517203506358574,0,-2,-1,0,-2,0,-3,-1
1517203506358574,0,-1,-1,-1,0,-1,-2,-1
1517203506372584,0,1,0,-1,-3,-2,-1,-1
1517203506372584,-1,0,-1,-3,2,-1,-1,-2
1517203506375098,0,0,-3,0,-1,-2,0,-3
1517203506375098,-1,-2,-1,0,-1,0,-3,-1
1517203506395099,-2,-3,-2,-2,-1,-1,-1,1
1517203506395099,0,-2,-1,0,-2,-2,-2,0
1517203506396608,0,-2,0,-2,-2,-2,-1,-1
1517203506396608,-1,-1,-1,0,0,-1,-1,1
1517203506408618,-1,0,-1,-1,-1,-1,0,-1
1517203506408618,-2,-1,0,-1,-2,-2,0,0
1517203506417618,-1,-2,0,-2,-1,-2,0,-1
1517203506417618,-2,-1,-2,-3,0,-3,0,-1
1517203506432625,-2,0,-1,-2,0,0,0,-1
1517203506432625,-2,-1,-2,-2,-1,0,0,0
1517203506434128,0,0,-1,0,-2,-1,-1,-1
1517203506434128,-3,-1,-2,-1,-2,0,0,0
1517203506455142,0,-1,1,-1,0,1,-2,0
1517203506455142,1,-1,-2,0,0,-1,0,-2
1517203506456643,0,-2,-1,-2,-3,-1,-3,1
1517203506456643,1,-2,-2,-3,-1,-1,-1,0
1517203506477658,-2,-2,-1,0,-1,-1,-1,-2
1517203506477658,-3,-1,-1,-2,-3,-1,-1,-3
1517203506479158,-3,-1,-2,1,-1,-1,-1,-1
1517203506479158,-1,0,1,-1,-1,-2,-1,0
1517203506492668,1,0,-3,0,-2,0,-1,0
1517203506492668,0,-1,0,0,0,1,1,-2
1517203506494169,0,1,-2,-1,0,-1,0,-1
1517203506494169,-1,0,-1,-1,-1,-2,-1,-1
1517203506515184,0,-1,-3,0,0,-2,-1,-1
1517203506515184,-1,1,0,-1,0,1,-1,0
1517203506516686,-1,-1,-1,-2,0,1,-1,-1
1517203506516686,-2,-2,-1,-1,-3,1,-2,-2
1517203506537715,0,-1,-2,0,-1,-1,0,-1
1517203506537715,-2,-2,-3,0,0,-2,-2,0
1517203506539204,-1,-2,1,0,0,-2,0,-1
1517203506539204,0,-2,-1,-2,0,-1,-1,-2
1517203506552710,-3,-1,-2,-1,0,-3,0,-2
1517203506552710,-2,-1,-1,0,-1,-3,-1,0
1517203506554225,-2,0,-2,0,-2,0,1,0
1517203506554225,-1,0,-2,-1,-1,-1,-1,-1
1517203506575239,-1,-1,-2,-1,-1,0,-3,0
1517203506575239,0,-1,-2,-1,-1,-2,-1,0
1517203506577752,-1,-2,-2,-1,-2,-2,-2,-1
1517203506577752,-1,0,-1,-1,-2,-2,1,-1
1517203506597743,-1,0,1,-2,-1,0,0,-1
1517203506597743,-1,0,-2,-2,-1,0,0,-2
1517203506599244,0,-1,-1,-1,1,-1,-2,0
1517203506599244,-1,-2,-2,0,-1,-2,-1,-2
1517203506611765,0,-2,-1,-1,-3,-2,-3,-2
1517203506611765,1,-2,-2,-1,0,0,-1,1
1517203506618757,0,0,-1,-2,-1,0,-2,1
1517203506618757,-2,0,-1,1,1,-2,-2,-2
1517203506634961,-1,0,0,1,0,-2,0,-2
1517203506634961,-1,-1,0,-3,-2,-2,-2,-3
1517203506636462,-1,-1,-1,-1,0,-2,1,-2
1517203506636462,-1,-1,-2,-2,-2,-2,0,-1
1517203506657477,-2,-1,0,-1,-2,2,0,0
1517203506657477,-1,0,2,-1,-2,-1,-1,0
1517203506658978,-1,-1,0,-2,-1,-2,-2,-1
1517203506658978,1,-3,-1,-2,-1,0,-1,-1
1517203506671989,0,-1,-3,0,-2,2,1,-1
1517203506671989,0,0,-2,-1,-2,-1,1,-1
1517203506678493,-1,0,1,0,-2,-2,0,0
1517203506678493,0,-1,0,-1,0,-2,-2,0
1517203506695003,-1,-1,-2,-1,-2,-2,-2,-1
1517203506695003,-1,-1,-2,-1,-2,-2,0,0
1517203506696504,0,-1,0,-1,0,0,-1,0
1517203506696504,-1,0,2,0,-1,-2,-1,-1
1517203506717522,0,-3,-1,-2,0,-1,0,-2
1517203506717522,-1,-2,0,-1,-2,-1,-2,-3
1517203506719022,0,-1,-1,-1,-2,-1,-1,-2
1517203506719022,-1,-1,-1,-1,0,1,-1,0
1517203506732030,-1,-2,0,-1,-1,-3,-2,-2
1517203506732030,-1,-2,-1,-2,-1,-3,0,-1
1517203506738535,0,-1,-2,-2,-3,-2,0,0
1517203506738535,0,-1,-1,0,-1,2,-3,0
1517203506755046,-1,1,-3,-2,-1,-3,-1,-1
1517203506755046,0,-2,-2,0,0,0,-1,-1
1517203506756547,-1,-2,0,-2,-3,-1,-1,0
1517203506756547,-1,-2,-4,-2,-2,-2,0,1
1517203506777562,-2,0,-2,-1,0,0,0,1
1517203506777562,0,0,-1,0,0,0,0,-1
1517203506779063,-1,-1,-2,0,0,-1,0,-2
1517203506779063,-1,-1,1,-1,-1,-3,-1,-1
1517203506791571,-1,0,0,-1,-1,-1,0,-1
1517203506791571,-2,-1,-1,0,-1,-1,-2,-1
1517203506798578,-1,-1,-1,-1,-2,-1,-2,-1
1517203506798578,-3,-1,-1,-1,2,0,0,0
1517203506815089,1,-1,-2,-1,-2,-3,-2,-1
1517203506815089,1,1,-2,-2,-1,-2,0,1
1517203506816591,0,-1,-2,-2,0,1,0,-1
1517203506816591,-1,-2,-3,-2,-1,-1,-1,-2
1517203506837605,0,-3,-1,-1,0,0,-2,1
1517203506837605,-2,0,0,0,-1,0,0,0
1517203506839105,-2,-2,-2,0,0,-3,-2,-2
1517203506839105,-2,-3,-1,-1,-2,-1,-1,-2
1517203506852115,-2,-1,0,-1,0,-1,0,-2
1517203506852115,0,-2,-2,-1,-2,0,-2,-1
1517203506858619,-1,-2,-2,0,-1,-1,-1,-1
1517203506858619,-2,-1,-2,-1,-3,-2,-1,-1
1517203506875131,-1,-1,1,-4,-1,-1,-1,-1
1517203506875131,-3,-3,-1,0,-2,0,-1,-1
1517203506877633,0,1,1,-1,-2,0,0,-1
1517203506877633,-1,-1,0,-2,-1,1,-1,-2
1517203506897647,1,0,-2,-1,0,-1,0,-2
1517203506897647,-1,0,0,-1,1,-1,-1,-1
1517203506899148,-2,-2,-2,0,1,-3,-2,-1
1517203506899148,1,2,-2,0,-3,-1,-2,0
1517203506911656,-1,-1,-3,-2,-1,-1,0,2
1517203506911656,-1,-2,-1,1,-1,-2,1,-1
1517203506918662,1,-1,-2,0,-2,-1,0,-1
1517203506918662,-1,-1,0,-1,-1,-2,0,-2
1517203506935173,-1,-1,0,-1,-1,-2,-2,-2
1517203506935173,-1,-1,-1,-3,-1,-2,-2,0
1517203506936675,-2,-3,-2,-1,0,1,1,-1
1517203506936675,-1,-2,0,-1,-1,-2,-1,1
1517203506957688,0,-1,-1,0,0,-1,-1,-2
1517203506957688,-1,1,-2,-1,-1,-1,-2,-1
1517203506959190,-1,-2,-1,-2,-1,-1,-1,-1
1517203506959190,-2,-1,0,-1,-1,0,1,0
1517203506971199,-3,-1,-1,0,-3,1,-1,-1
1517203506971199,0,0,0,-1,-2,-2,-1,-2
1517203506980205,-2,-1,-1,-2,-1,-2,-2,-1
1517203506980205,0,-1,-2,-1,-1,-1,-1,-1
1517203506994717,-2,0,1,-1,0,-1,-1,0
1517203506994717,-3,-1,0,-1,-1,0,-1,-1
1517203506996719,-1,-1,0,-2,0,-2,-3,-2
1517203506996719,-1,-1,-1,-1,0,-2,0,0
1517203507017732,-2,-1,-2,1,-3,-2,-1,-2
1517203507017732,0,-2,-1,-1,-2,-1,-1,0
1517203507019236,-1,-1,0,0,-2,1,-1,1
1517203507019236,-1,-1,-1,-2,-1,-1,-2,-1
1517203507031241,-2,-1,0,0,0,0,-1,0
1517203507031241,-1,-1,-2,-3,-2,0,0,-2
1517203507040247,-2,-1,-2,-1,0,-1,0,-2
1517203507040247,1,-1,-2,-2,-2,0,-2,-2
1517203507055258,-1,-3,0,-3,-1,0,-1,-1
1517203507055258,0,0,-1,0,-1,0,-2,-1
1517203507056758,-2,-1,-2,-1,-1,-1,-2,-1
1517203507056758,0,-1,-3,-1,-1,-1,-1,-2
1517203507077294,0,-1,-2,-1,-2,0,0,-2
1517203507077294,-1,-2,0,-2,-1,0,1,-1
1517203507078795,-2,-3,1,-1,0,1,-1,0
1517203507078795,-2,-1,-1,-1,0,-3,-2,0
1517203507091303,-2,-3,-1,-2,-1,0,0,0
1517203507091303,0,-2,-1,-1,-1,-1,-1,-1
1517203507100310,0,0,-2,0,-3,-1,0,0
1517203507100310,0,-1,-1,-1,0,-1,0,-1
1517203507114820,0,-2,-2,-1,-2,-1,-1,-1
1517203507114820,-3,-1,-2,-1,-2,-2,-3,-1
1517203507116821,-2,-1,0,-1,-3,-2,-1,-1
1517203507116821,-2,-1,-1,-1,-2,-1,0,-2
1517203507137351,-1,-1,-1,-2,0,-1,-2,0
1517203507137351,1,-2,-2,0,1,1,0,0
1517203507138840,0,0,-1,-1,0,-1,-1,1
1517203507138840,-1,-1,-1,0,-2,0,-1,0
1517203507151346,0,0,-3,-1,-1,-2,-2,-1
1517203507151346,0,-1,0,0,-2,-4,0,-1
1517203507159852,0,-2,-3,-2,-1,-2,-2,-1
1517203507159852,0,0,0,-2,-1,1,-1,-2
1517203507174872,0,-1,-1,-1,-1,-2,-2,-1
1517203507174872,-2,-1,-2,-2,-1,-1,-1,-1
1517203507176364,-1,-2,-1,-1,-2,0,1,-2
1517203507176364,0,-2,-2,-1,-1,-1,-1,-2
1517203507197403,-2,0,-1,-1,-1,-2,-2,0
1517203507197403,-1,-2,-2,-1,-1,-1,-2,0
1517203507198880,-2,-2,-1,0,-1,-3,-2,-2
1517203507198880,-2,-3,-1,-1,0,-1,-2,0
1517203507210912,-1,0,-1,-1,-2,0,1,-1
1517203507210912,-1,0,-1,-2,-1,-1,-1,-1
1517203507219896,-1,0,0,-1,-1,0,-1,-1
1517203507219896,0,0,-2,-1,-3,0,-1,-2
1517203507234919,0,-1,-2,-3,0,-1,-2,-1
1517203507234919,0,-2,-1,0,-1,-1,0,-1
1517203507236409,-1,-2,-1,-1,-1,-1,0,-1
1517203507236409,0,-2,0,0,-2,0,0,-1
1517203507257421,-1,-2,-1,-1,-2,1,0,-1
1517203507257421,-1,-1,-2,-2,-1,-2,-2,-1
1517203507258923,-1,-2,-2,-4,-1,-1,-2,-1
1517203507258923,-1,-2,-1,-1,-2,-2,-1,-1
1517203507270930,-1,-1,-2,0,-2,-2,0,-1
1517203507270930,-2,-2,0,0,-1,-3,0,-1
1517203507279947,0,-2,-1,0,0,-1,-1,-1
1517203507279947,-2,-1,-2,-3,-1,-1,-2,-1
1517203507294947,-1,-1,-2,0,-2,-1,-1,-2
1517203507294947,-1,-1,-1,-2,0,0,-1,-2
1517203507296449,-2,-1,-2,-1,0,-1,-1,-1
1517203507296449,-3,0,-2,-1,-2,-1,-1,-1
1517203507317464,1,0,0,-2,-1,-2,-2,-2
1517203507317464,-1,0,-1,-1,0,0,-1,0
1517203507318966,0,-1,-2,-1,-1,-1,-1,-1
1517203507318966,-1,-2,-2,-2,0,-1,-3,-1
1517203507330977,-2,0,-2,-1,-1,-1,0,-2
1517203507330977,1,2,-1,-1,-3,-1,-1,-3
1517203507339980,0,0,-1,-2,0,-1,-1,0
1517203507339980,-1,0,0,0,-3,-2,0,-1
1517203507354995,-1,0,-1,-3,-2,-1,-2,-1
1517203507354995,-1,-1,-1,-1,-1,0,-1,-1
1517203507356503,-2,-1,0,-1,0,0,-1,0
1517203507356503,-2,0,-1,0,0,-1,-1,-1
1517203507377506,-2,-1,1,-1,0,0,-1,0
1517203507377506,-1,-3,-1,0,-1,-3,-2,-1
1517203507379007,0,0,0,-1,-2,-1,1,-2
1517203507379007,-1,-1,0,-2,-1,-1,-1,-1
1517203507407547,0,-2,-2,-1,0,0,-2,1
1517203507407547,-1,-1,-1,-1,0,-1,-2,-1
1517203507409053,1,0,-1,0,-2,-3,0,0
1517203507409053,0,-2,-1,-3,-1,-1,-1,-1
1517203507415033,-1,-2,-2,0,-2,-3,-1,-1
1517203507415033,-1,0,-1,-1,-1,0,-1,-1
1517203507416535,-1,-1,0,0,-1,-1,-1,-1
1517203507416535,-2,1,0,0,-1,0,1,-2
1517203507437558,-3,-2,-1,-1,-2,-2,-1,-2
1517203507437558,-2,-1,1,-1,1,-1,-1,-1
1517203507439050,-2,-1,-2,-1,-2,-4,-2,-1
1517203507439050,0,1,-1,-2,0,-3,-2,0
1517203507460068,-2,0,-2,-3,2,2,0,-1
1517203507460068,-1,0,-2,0,-2,-1,-2,-1
1517203507461566,-1,-2,-1,-1,-2,1,-1,-1
1517203507461566,1,0,-2,-1,-1,-2,-1,0
1517203507475088,2,-1,0,1,-1,-1,-1,0
1517203507475088,-2,-1,-1,-1,-2,0,-2,-2
1517203507476588,-1,-2,-3,-2,-3,-1,-1,-1
1517203507476588,-1,-1,-1,1,0,0,-2,-2
1517203507497655,-1,-1,-1,0,-3,-2,0,0
1517203507497655,0,1,-2,-3,-1,-2,1,-1
1517203507499160,0,0,1,0,0,0,-1,0
1517203507499160,-2,-2,-2,0,-1,0,-1,-2
1517203507520171,-1,-1,-1,0,-2,-2,-2,0
1517203507520171,0,-1,-1,-1,0,1,0,1
1517203507521678,0,-1,0,1,-2,-1,0,-1
1517203507521678,-1,-1,0,0,-2,-1,-1,0
1517203507535182,-1,0,-2,-2,0,1,-2,-1
1517203507535182,-1,-2,-1,-1,-2,0,-1,-2
1517203507536702,-1,-2,-1,-2,-2,-1,-1,-2
1517203507536702,-1,-2,0,0,-2,-2,-1,0
1517203507557698,0,-1,-1,0,-2,-1,-1,-3
1517203507557698,-1,-1,-3,1,-1,-2,-1,0
1517203507559199,-1,-2,-2,0,-1,-2,-2,-2
1517203507559199,-1,-1,-1,-2,-1,-2,-2,-1
1517203507580214,-1,0,-1,-1,0,1,-1,-1
1517203507580214,0,-1,0,-1,1,-1,-2,-2
1517203507581716,-1,-2,-3,0,0,-2,0,-1
1517203507581716,-2,0,-2,0,-1,-2,-1,-1
1517203507594236,0,-1,-1,1,0,-2,-2,0
1517203507594236,-2,-2,0,-1,0,0,0,0
1517203507601229,-2,0,0,1,-2,-2,-2,-2
1517203507601229,0,-2,-2,-3,-1,0,0,-1
1517203507617740,-1,-2,-2,-2,0,-2,1,0
1517203507617740,-1,-1,0,-2,-2,-1,-1,-2
1517203507619242,0,0,0,-1,0,0,-1,0
1517203507619242,-1,-1,-2,-1,-2,1,0,0
1517203507639764,0,-1,0,-2,-1,-1,-1,-2
1517203507639764,0,0,0,0,-2,-3,-2,-3
1517203507641760,-3,0,-1,-3,0,-1,-1,-1
1517203507641760,-1,-1,0,0,-1,-2,-2,-1
1517203507654266,-3,-2,-2,1,0,0,-3,-1
1517203507654266,-1,-1,2,-1,-2,-2,-1,0
1517203507661273,0,0,-1,-2,-2,-1,-1,-1
1517203507661273,-2,0,-2,-1,0,-1,-2,-1
1517203507677341,-1,1,-1,-2,0,-2,-2,-1
1517203507677341,-1,-1,-4,0,-1,0,-3,-1
1517203507678833,0,1,-1,-1,-1,-1,-1,-1
1517203507678833,0,0,-1,-2,1,-1,1,0
1517203507700348,-1,0,-1,0,-3,-1,-1,-2
1517203507700348,0,-2,-1,1,-1,-2,1,0
1517203507701360,-1,-2,-1,-3,-1,-2,-1,0
1517203507701360,-1,-1,0,0,-2,-1,1,-1
1517203507714358,1,-2,0,1,-1,-1,0,-3
1517203507714358,-2,0,-3,-1,0,1,0,-1
1517203507720862,-1,-2,-2,-1,-3,0,-1,-2
1517203507720862,-1,0,-1,-2,0,-1,-2,-1
1517203507737383,-2,-2,-1,-1,-1,-2,-1,-1
1517203507737383,-2,-1,-2,-1,-1,0,-1,0
1517203507738875,0,-2,0,-2,0,-1,0,0
1517203507738875,-2,-2,-2,-1,0,-1,-1,-3
1517203507760403,0,-1,-3,-1,-1,0,-1,0
1517203507760403,0,-1,-1,0,-1,-1,-2,-2
1517203507761914,-3,-1,0,-2,-2,0,-2,0
1517203507761914,-1,-1,-1,0,-2,0,-1,-1
1517203507774910,0,-1,-1,-1,1,-1,-1,-1
1517203507774910,-1,-1,-2,0,-1,-1,0,-2
1517203507780906,-1,-2,0,-1,0,0,-1,-1
1517203507780906,-1,-1,1,-1,0,0,0,0
1517203507797426,-1,0,-1,-1,-4,-2,-2,-1
1517203507797426,-1,-2,-2,-1,-1,-2,-1,-1
1517203507798917,-2,-1,-1,-2,1,-2,0,0
1517203507798917,-1,-2,-2,-1,-3,-1,0,-2
1517203507819933,-1,-2,1,-1,0,-1,-3,-1
1517203507819933,0,1,1,-2,-2,-3,-2,-1
1517203507821433,-1,-1,-2,-1,0,-1,-1,-1
1517203507821433,0,0,-2,0,1,1,-1,0
1517203507834453,-2,-2,-1,0,0,-2,1,-1
1517203507834453,-2,0,-2,-2,-1,1,1,0
1517203507840959,-2,-1,0,1,-2,0,-1,-1
1517203507840959,-1,-2,0,-2,-2,-2,-1,0
1517203507857468,0,-1,-1,-1,-2,1,-1,0
1517203507857468,-2,-1,-1,-1,0,-1,-3,-1
1517203507858971,-1,0,-1,-1,0,-3,-1,-1
1517203507858971,-1,-1,1,-1,-1,-1,-2,-4
1517203507879974,-1,0,-1,-2,-3,0,-1,-1
1517203507879974,-2,-1,-2,0,0,-1,0,0
1517203507881979,0,-1,0,-2,-1,-1,-1,-1
1517203507881979,-1,-2,-1,0,-1,-2,-3,0
1517203507893496,-1,-1,-1,1,0,-1,-1,0
1517203507893496,-1,-1,0,-1,-1,0,-1,-1
1517203507902491,-1,-1,0,0,0,0,0,-2
1517203507902491,-1,-1,-3,-1,-2,-1,0,-1
1517203507917502,1,-1,-1,0,0,0,-1,-2
1517203507917502,-1,-2,0,-2,-2,0,-1,-2
1517203507919003,-1,0,-1,0,-2,-2,0,0
1517203507919003,-1,-2,-1,0,-1,-1,2,-1
1517203507940072,1,-2,-2,-1,-3,-2,0,1
1517203507940072,1,-2,1,0,-1,1,-1,-2
1517203507941541,-1,-1,-2,0,0,1,-2,-2
1517203507941541,-2,-1,0,0,-2,1,-1,-2
1517203507953577,-1,-2,-1,0,0,-1,-1,-2
1517203507953577,-2,-3,-1,-2,-1,0,-1,-2
1517203507962592,-1,-2,-1,-1,-1,-1,0,-1
1517203507962592,-2,-1,-2,-1,-1,-1,-1,-1
1517203507976604,-1,-1,-1,-1,-1,-1,1,-1
1517203507976604,-1,-2,-2,-1,-3,-3,-1,-1
1517203507985608,1,-1,-1,-1,0,0,-1,-2
1517203507985608,-2,-1,-1,-1,-1,-1,-1,0
1517203508000120,-2,-1,-2,-1,-2,0,-2,-1
1517203508000120,-1,0,-1,1,-2,-2,-1,-1
1517203508001610,-1,-1,-1,0,-1,0,0,-2
1517203508001610,1,0,-1,0,0,-3,0,1
1517203508013657,0,0,-1,-1,-1,0,-3,-2
1517203508013657,-1,-1,-1,-1,0,-2,-1,-1
1517203508022626,0,-2,-2,-1,-2,-3,-1,-1
1517203508022626,-2,0,-1,-3,-1,-1,-2,-3
1517203508045153,-2,-1,-1,0,-1,-1,-1,-1
1517203508045153,-1,-1,-2,-2,-1,1,-2,-3
1517203508048146,-1,0,1,0,-1,0,-2,-1
1517203508048146,0,0,-2,0,-2,0,-1,-1
1517203508060164,0,1,-2,0,-2,-2,0,0
1517203508060164,-2,-2,-2,-1,-1,-1,-1,-1
1517203508061678,-2,-1,-2,0,-1,-1,-1,-1
1517203508061678,-1,0,-1,-1,0,0,0,0
1517203508073662,-2,0,-2,0,-1,-1,-2,-2
1517203508073662,-2,0,-3,-2,0,-1,-1,0
1517203508082711,0,0,0,-1,0,-3,0,1
1517203508082711,-1,-2,-2,-1,0,-2,-1,-2
1517203508097723,-2,-2,0,-3,0,1,0,-1
1517203508097723,-1,0,0,-1,-2,-1,1,-1
1517203508099220,0,-1,-2,-1,-3,-1,-3,-4
1517203508099220,1,0,-1,-1,-2,-1,-2,0
1517203508120236,-1,1,-1,-1,0,0,-1,0
1517203508120236,-2,0,0,-1,0,1,0,-2
1517203508121747,0,-2,-1,-1,-1,-2,-2,-2
1517203508121747,-1,-1,-1,-1,-1,-2,-1,-1
1517203508133788,0,-2,-1,-1,-1,-3,-1,-1
1517203508133788,-1,-1,-1,0,0,-1,-1,-1
1517203508142294,-1,-2,0,0,-1,0,0,-2
1517203508142294,-2,-1,-2,-2,-2,0,-2,-1
1517203508157317,0,0,-2,0,-1,-1,-1,-1
1517203508157317,-1,-1,-1,-1,-2,-3,-3,1
1517203508158806,-2,0,0,-1,-3,0,-1,-1
1517203508158806,0,-3,-2,0,-1,-1,-1,-1
1517203508179858,-1,-3,0,1,0,-1,0,-1
1517203508179858,-2,-1,1,0,-1,0,0,0
1517203508181361,-1,0,-2,-1,0,0,-1,-2
1517203508181361,-1,-2,0,0,-1,1,0,-1
1517203508193381,-2,1,-2,-3,-2,-3,-1,0
1517203508193381,-1,-2,-1,-4,0,-2,0,0
1517203508202375,0,-1,-2,-2,-2,0,-1,1
1517203508202375,-2,0,-3,-1,-2,-2,-2,-2
1517203508217397,-1,0,0,-2,-1,-3,-2,-1
1517203508217397,-2,-1,-1,-2,0,-2,-1,-1
1517203508218887,-2,-2,-1,-2,0,-2,0,-2
1517203508218887,0,0,0,-1,-2,-2,-1,0
1517203508239902,-1,-2,0,-1,0,0,1,-1
1517203508239902,-1,0,-2,-1,-1,-1,-1,-3
1517203508241403,0,-3,0,0,-1,-2,-2,-3
1517203508241403,-1,-1,-1,0,-2,-1,-3,-2
1517203508253412,0,0,-3,0,-3,-1,1,0
1517203508253412,0,0,-1,1,-1,-2,-2,0
1517203508262918,-1,0,-1,0,0,-1,-3,0
1517203508262918,-1,-3,1,-2,-1,-3,-1,-1
1517203508277440,-1,0,-3,0,-1,-1,-3,-3
1517203508277440,0,0,0,-2,-2,-1,-1,-1
1517203508278943,-2,0,-2,-1,-2,0,0,-1
1517203508278943,-1,-1,-1,0,-1,-1,-2,1
1517203508299944,0,-1,-1,-1,1,-1,-1,-1
1517203508299944,1,-1,-2,0,-2,-2,0,1
1517203508301447,-1,0,-2,-1,-2,-1,-1,0
1517203508301447,-1,1,-2,0,-1,-2,0,-1
1517203508313476,-1,-1,0,0,-3,-1,0,-1
1517203508313476,-1,-2,0,0,-1,-1,0,-1
1517203508322460,-1,0,0,-2,0,-4,0,-1
1517203508322460,0,-2,-2,0,-4,0,-1,-2
1517203508337486,-2,-2,-1,-3,0,-3,-2,-2
1517203508337486,-1,-1,0,-1,1,0,-1,-2
1517203508338973,0,-2,-1,1,0,-2,-1,0
1517203508338973,0,1,0,-3,-1,0,-2,0
1517203508359986,-2,-1,-1,-1,1,0,-1,-1
1517203508359986,-1,-3,-3,-2,-1,-1,-2,0
1517203508361488,-1,-2,-1,-1,0,-1,-1,-2
1517203508361488,-1,-1,-1,-2,-1,-2,-1,0
1517203508382582,0,0,-1,-1,-1,-2,0,-1
1517203508382582,0,0,0,-1,-1,0,-1,-2
1517203508384083,-1,-1,0,0,1,0,-1,-2
1517203508384083,-3,0,-3,0,0,-2,-1,-2
1517203508397092,-1,0,-1,-1,-3,-2,-2,0
1517203508397092,-2,0,-2,0,-2,-1,1,-3
1517203508399095,-1,-1,-1,-2,0,-1,0,-1
1517203508399095,0,-1,-1,0,-1,0,-2,-2
1517203508420108,0,-1,-1,0,-1,-1,1,-2
1517203508420108,0,-2,-2,-2,0,-2,-1,1
1517203508421609,0,0,0,0,-1,0,-1,1
1517203508421609,-2,-2,-1,0,1,0,0,-1
1517203508442126,-1,-1,-2,-2,-3,-1,-1,-2
1517203508442126,-1,-1,-1,0,-2,-1,-2,0
1517203508444144,-2,-2,-1,-2,-2,0,-1,-1
1517203508444144,0,-1,-1,-2,-2,0,-1,-2
1517203508457635,-1,-1,-2,0,0,-1,-1,-1
1517203508457635,-1,-2,-3,0,-2,-2,-2,-1
1517203508459149,0,0,-2,-1,-1,-1,-2,-1
1517203508459149,-1,-1,-1,-1,0,-1,-2,-1
1517203508487665,-1,0,-1,-1,-2,-2,-1,1
1517203508487665,-1,0,0,-1,1,-1,-2,0
1517203508489157,0,-2,-3,-1,0,-1,0,0
1517203508489157,-1,-2,-1,-1,-1,-3,-2,-1
1517203508502667,0,-2,-2,-1,-2,-1,-1,0
1517203508502667,0,0,-2,-2,-2,-1,-3,-2
1517203508504167,-1,-1,0,-1,-2,-1,-1,-1
1517203508504167,-1,1,-1,-1,-2,-1,-2,-1
1517203508517178,-2,1,0,-2,-1,0,-1,-1
1517203508517178,-1,-2,0,-1,-1,0,-1,0
1517203508523685,-1,-1,0,-1,0,-2,-2,0
1517203508523685,-1,-1,-1,-1,-3,-2,-1,-1
1517203508540194,-1,-3,0,-1,-1,-2,-2,-1
1517203508540194,-3,0,0,-2,0,-2,-1,-3
1517203508541695,-1,-2,-1,0,0,0,-1,-1
1517203508541695,-1,-1,-2,-2,-1,-1,0,0
1517203508562719,0,-2,-1,-1,0,-1,-2,0
1517203508562719,0,0,0,-1,-2,-2,0,0
1517203508564220,-1,-3,-2,-1,-1,-1,-2,-1
1517203508564220,-1,0,-1,-1,-3,0,0,0
1517203508576729,-1,-1,-3,-1,-1,-1,-2,-1
1517203508576729,-2,-4,-1,0,-1,-1,-1,1
1517203508583727,-2,0,-1,0,-2,-2,-2,-2
1517203508583727,-2,-1,0,0,0,-2,-1,0
1517203508600237,-1,0,1,-1,-3,-1,1,2
1517203508600237,0,0,-2,0,-2,0,-1,0
1517203508601750,-2,-1,-2,-3,-1,0,0,0
1517203508601750,-2,-2,-1,-1,-1,-2,-1,-2
1517203508622273,-2,0,-2,1,-1,-2,-2,-2
1517203508622273,-1,0,-1,-1,-1,-1,-2,-2
1517203508623774,0,-1,1,0,-1,-1,1,-1
1517203508623774,-1,1,0,-2,-1,-1,0,-1
1517203508636809,-1,-2,-3,-2,1,0,-1,0
1517203508636809,0,0,-1,-1,-1,1,0,-1
1517203508643814,-1,-1,-4,-1,-2,-1,-1,-3
1517203508643814,-1,-2,-1,0,-1,1,-1,-1
1517203508659827,-1,0,1,-1,0,-1,-1,-1
1517203508659827,-1,-2,0,1,0,-2,0,-2
1517203508661328,-2,-3,-1,-1,0,-2,-1,1
1517203508661328,-1,-3,0,-1,0,-1,0,0
1517203508682844,-1,0,1,-3,-1,0,-2,-2
1517203508682844,0,-1,-2,-2,-1,-1,-2,-1
1517203508683843,-2,0,0,0,-2,-1,-1,-2
1517203508683843,1,-1,-2,1,0,-1,-1,-2
1517203508696878,0,0,0,0,-1,-2,-2,0
1517203508696878,1,0,-1,0,0,-1,-1,1
1517203508703382,0,0,-1,-1,1,-1,0,1
1517203508703382,-1,0,-2,-1,1,-2,0,-3
1517203508719898,-1,-1,-1,-1,-1,-2,0,-2
1517203508719898,-2,-1,-3,1,-1,-1,0,0
1517203508721400,-1,-2,-2,-2,-2,1,-3,1
1517203508721400,0,-1,-2,-1,-3,-2,-1,0
1517203508742436,-1,-2,-1,0,-2,-1,-1,-2
1517203508742436,-2,-2,0,-2,-4,0,-1,-1
1517203508743937,-1,-1,0,-1,0,-1,0,0
1517203508743937,0,-2,0,0,0,-1,0,-2
1517203508756924,-1,-4,-3,-1,-1,-1,-1,-2
1517203508756924,-1,-3,-2,-1,-2,-2,-2,-1
1517203508763456,-1,0,-1,-2,-1,-1,1,-1
1517203508763456,-1,1,-1,0,-2,-1,-3,0
1517203508779961,-1,-1,-2,-3,0,0,1,-1
1517203508779961,-1,0,-1,0,-2,-2,-2,-2
1517203508781452,1,-1,-2,0,-2,0,-2,-2
1517203508781452,-2,-1,-1,-1,-2,-1,-1,-1
1517203508802456,0,0,0,0,-1,-1,-2,-1
1517203508802456,-2,-3,0,-3,2,0,1,-2
1517203508803958,-1,-2,0,-3,-1,-1,0,0
1517203508803958,-1,-3,-2,-1,0,-1,-1,0
1517203508816968,-2,-1,-2,-1,-1,-1,-3,-2
1517203508816968,2,1,-1,-2,-2,-1,0,-2
1517203508823482,-1,0,-2,-2,0,1,0,0
1517203508823482,-4,-4,0,-2,-1,-2,0,-1
1517203508847503,0,2,1,1,-1,0,-2,0
1517203508847503,-3,-1,-2,-2,-2,-2,-1,0
1517203508848989,2,-2,-3,-2,-1,0,0,-2
1517203508848989,-1,-1,-2,0,-1,-1,-3,1
1517203508862556,1,-2,-1,0,-2,-3,2,0
1517203508862556,1,2,-2,-2,0,-1,-2,-2
1517203508864059,1,1,0,1,-1,-2,-1,-1
1517203508864059,-4,-2,-3,-3,0,1,-1,-2
1517203508876010,-3,-4,-3,-2,-1,-1,1,-2
1517203508876010,3,4,1,-1,-1,0,-2,-8
1517203508885016,-5,1,3,-1,-2,-2,1,1
1517203508885016,7,-4,-2,-1,-2,0,-2,-3
1517203508900026,-2,-3,-2,0,-1,-2,-1,1
1517203508900026,-2,-3,-1,-1,-2,-1,-1,2
1517203508901528,-3,2,0,-1,0,-2,-1,-2
1517203508901528,0,4,-1,0,-1,-1,1,1
1517203508922542,2,3,1,0,0,1,-2,2
1517203508922542,-12,-6,-2,0,-1,0,1,0
1517203508924046,-2,7,-3,-3,-1,-4,-4,-3
1517203508924046,-7,-8,-2,-1,0,0,0,0
1517203508936051,-5,-4,0,-2,-1,0,0,-3
1517203508936051,-6,-2,0,-1,0,1,0,0
1517203508945058,15,-5,-2,-2,-1,-2,-2,0
1517203508945058,-7,0,-2,-2,-2,-2,-2,-2
1517203508959577,-3,3,-1,0,-1,2,-1,-2
1517203508959577,4,2,-1,-1,0,-3,-3,1
1517203508961593,1,2,0,-2,-1,-1,-1,0
1517203508961593,-9,-8,-2,-1,-1,-1,-1,-3
1517203508982598,-1,0,-1,-2,-1,-1,-1,7
1517203508982598,-3,0,0,1,0,1,4,-3
1517203508984085,4,1,-4,-2,-3,-2,-5,-4
1517203508984085,-4,-7,-4,-1,-3,-1,-2,-2
1517203508996103,-1,4,1,-1,-1,-2,-1,-3
1517203508996103,7,-5,-1,-1,-3,0,0,5
1517203509005100,-7,-3,-2,1,1,-1,0,-2
1517203509005100,0,5,1,0,0,0,-1,0
1517203509020110,-2,-3,-2,-1,-2,-1,-1,-3
1517203509020110,12,12,2,0,0,-2,-2,0
1517203509021613,-15,-3,0,2,0,-1,0,-3
1517203509021613,-1,-7,-3,-1,-2,-1,-3,-2
1517203509042141,-1,-3,-1,-3,-1,-2,-1,-2
1517203509042141,-2,-2,-2,-1,-1,-2,-2,-1
1517203509044127,1,-1,-1,-2,-2,-1,-2,2
1517203509044127,1,7,1,0,0,-3,0,1
1517203509056173,-3,-11,-2,-1,0,-2,-2,-6
1517203509056173,-1,-6,-3,-3,-2,-1,-3,-5
1517203509065191,-2,0,0,0,0,0,0,1
1517203509065191,4,-3,-1,-2,-1,-1,-1,1
1517203509079701,-2,2,-1,-1,-2,-1,-1,-1
1517203509079701,4,-4,-1,-2,0,-2,-2,-1
1517203509081690,1,-2,-2,0,-1,1,2,11
1517203509081690,-2,5,-1,-1,-1,-1,-1,-10
1517203509102706,7,-1,-1,0,-1,-1,0,1
1517203509102706,-2,1,-5,-8,-3,-1,-3,-2
1517203509103707,-4,2,1,5,0,-1,-4,-4
1517203509103707,2,5,-1,-1,2,1,2,0
1517203509116225,5,-2,3,4,2,1,2,5
1517203509116225,-14,-8,-4,-6,-5,-2,2,-5
1517203509125221,17,2,0,3,0,0,-7,3
1517203509125221,-12,0,-3,-2,-4,-2,-6,-5
1517203509139737,2,-6,-1,5,0,-1,2,-2
1517203509139737,3,4,-2,-7,3,-1,-2,-2
1517203509141732,-11,0,-2,-5,-2,-1,3,0
1517203509141732,19,-4,-3,-3,-3,-1,0,-2
1517203509161264,-2,2,0,0,-1,0,-2,1
1517203509161264,-5,-4,1,8,-1,-2,0,1
1517203509170254,-7,-1,0,-3,-1,1,0,-7
1517203509170254,9,9,2,4,0,2,1,7
1517203509176258,-2,-2,-2,-6,-4,-4,2,-3
1517203509176258,12,2,0,1,-2,0,-2,2
1517203509185265,-14,2,0,2,2,1,2,-3
1517203509185265,-12,-5,-1,-3,-1,-1,1,0
1517203509199775,8,-2,-3,-3,-3,-2,-5,-7
1517203509199775,7,7,3,1,1,2,4,9
1517203509201776,-4,-1,-2,-2,-1,-2,0,-5
1517203509201776,-23,-22,-4,-6,-1,-3,-9,-11
1517203509222289,-11,-4,2,10,-3,-1,-5,-7
1517203509222289,2,0,-1,-6,-2,-4,-8,-6
1517203509224290,20,4,3,1,3,6,17,15
1517203509224290,10,12,1,3,-3,-5,-2,3
1517203509236316,5,0,-8,-5,1,1,11,10
1517203509236316,-11,-7,-2,6,-3,-4,-11,-11
1517203509244805,-7,-5,-2,-12,-5,-4,-9,-9
1517203509244805,11,-11,-5,-5,-1,2,1,2
1517203509259817,-14,2,12,11,3,-1,-3,-4
1517203509259817,13,1,0,4,-1,1,9,12
1517203509261318,-17,-8,-9,4,-3,-4,-4,-5
1517203509261318,11,7,-6,-7,-2,-2,-1,-2
1517203509282849,-7,0,6,-16,-4,-1,-1,2
1517203509282849,-4,-1,2,-1,1,1,-1,-1
1517203509284333,-5,-3,7,2,-4,-4,-4,-3
1517203509284333,4,19,-1,1,1,1,-1,2
1517203509304857,-27,-37,-10,-1,-2,-1,-5,-7
1517203509304857,-7,2,3,-2,-2,-5,-5,-8
1517203509306349,4,-9,-1,-2,-4,-1,-5,-1
1517203509306349,-4,9,7,9,3,1,11,11
1517203509319869,6,16,-11,0,0,-2,-15,-7
1517203509319869,-11,-14,2,-11,-4,-3,-8,-13
1517203509321359,2,-1,-2,6,1,0,9,19
1517203509321359,-2,-2,2,-5,-1,0,10,0
1517203509342374,9,1,-12,-6,-3,-3,-18,-11
1517203509342374,0,6,6,9,-1,3,6,11
1517203509343875,12,-24,-1,-5,-2,0,-4,-8
1517203509343875,-3,2,-8,-6,-3,-2,-3,-2
1517203509364910,21,12,2,0,0,-1,8,9
1517203509364910,-20,-11,-8,2,1,-1,0,-3
1517203509366403,13,11,1,-3,-3,-2,-2,-4
1517203509366403,-1,-15,-1,1,-2,-2,-2,0
1517203509379910,5,5,-1,12,3,1,1,-2
1517203509379910,4,4,-4,-11,-1,-3,5,10
1517203509381412,0,9,3,-8,-1,-4,-19,-20
1517203509381412,-5,-4,-4,-1,-3,-2,-5,-4
1517203509402426,-20,-12,-2,-2,-3,-4,7,8
1517203509402426,-13,-19,3,5,0,-3,-25,-21
1517203509403928,2,7,-2,-1,2,2,12,7
1517203509403928,10,-2,0,2,0,-1,-8,-5
1517203509424942,1,8,1,1,-2,-1,4,-2
1517203509424942,8,3,-2,-5,1,1,13,20
1517203509426444,-10,-4,-13,2,1,0,-2,-1
1517203509426444,-13,5,0,-1,-1,1,-4,-16
1517203509439453,14,-5,-2,8,0,-1,-8,0
1517203509439453,-6,16,1,-22,-6,-1,3,-3
1517203509445971,-1,-12,-4,-3,-3,-2,-5,-6
1517203509445971,-6,-5,8,8,1,-2,4,7
1517203509462469,1,7,15,-5,1,0,5,4
1517203509462469,-1,2,-25,6,-1,-2,-8,-18
1517203509463970,1,-1,3,-2,0,1,10,17
1517203509463970,5,-9,-4,3,-2,0,15,1
1517203509484988,5,4,8,-4,-2,-3,-29,0
1517203509484988,6,22,8,1,-1,0,6,6
1517203509486493,-24,-21,-11,5,-3,-4,-2,13
1517203509486493,-1,-7,2,-4,-1,-3,-21,-22
1517203509499497,-5,1,-14,-11,-1,2,7,-4
1517203509499497,13,-4,-6,-5,-1,3,4,11
1517203509506000,-17,18,2,-3,-3,0,7,-12
1517203509506000,-8,-9,2,6,2,0,0,-2
1517203509522511,14,1,-2,-10,0,-2,3,10
1517203509522511,-26,9,22,18,1,2,-3,-6
1517203509524022,2,-27,-10,-4,-1,-2,5,-2
1517203509524022,5,-11,-18,-4,-4,-1,-9,5
1517203509545042,-2,-16,-10,-5,-2,-1,10,8
1517203509545042,-3,-6,-7,-3,-5,-5,-18,-20
1517203509547545,9,41,31,8,1,2,-4,-5
1517203509547545,2,2,-6,-15,-2,-4,-3,-18
1517203509559037,-1,-2,-11,-8,-1,0,-3,9
1517203509559037,20,24,-10,4,0,1,9,15
1517203509566042,-15,-35,-25,-11,-4,-3,-8,-8
1517203509566042,2,20,19,17,1,0,17,22
1517203509590078,2,18,21,-6,-5,-5,-25,-20
1517203509590078,-15,-46,-41,-11,-4,-3,6,5
1517203509591573,13,-18,-6,7,2,-2,-16,-30
1517203509591573,41,13,10,-15,-5,4,11,14
1517203509605070,-1,-33,1,5,3,0,15,2
1517203509605070,-14,-11,-8,-5,-7,-7,-9,-7
1517203509606572,9,21,22,12,2,-1,10,11
1517203509606572,-27,-31,-42,-3,-1,-4,-14,15
1517203509619581,8,34,4,7,-2,0,-5,-28
1517203509619581,10,2,10,-9,-1,1,17,30
1517203509626098,-24,-16,-9,0,3,3,-1,-11
1517203509626098,-6,13,11,-12,-5,-4,16,1
1517203509642109,-2,-16,1,14,2,-2,-20,-6
1517203509642109,7,15,13,13,3,-2,-1,3
1517203509644109,8,15,-14,-31,-2,3,10,15
1517203509644109,-35,5,25,3,-5,-7,-19,-20
1517203509665116,0,2,28,16,2,4,24,16
1517203509665116,2,8,-53,-16,-2,-2,-2,-17
1517203509666614,8,2,-9,-8,-5,-6,4,5
1517203509666614,-4,-34,-10,8,-2,0,18,53
1517203509679635,6,19,-28,-17,-2,-2,-17,-50
1517203509679635,2,6,90,24,1,-3,3,8
1517203509686140,0,-2,-42,-16,-4,-4,-43,-45
1517203509686140,0,13,-14,-17,-6,-2,6,7
1517203509702640,-10,-31,-52,-9,-1,-2,-13,0
1517203509702640,24,-2,32,11,6,7,-24,-33
1517203509704149,-19,-38,1,27,0,1,27,4
1517203509704149,24,32,69,-12,0,2,-6,-34
1517203509725154,8,-33,-37,-5,1,0,9,57
1517203509725154,-13,55,21,13,3,1,16,3
1517203509726666,11,28,63,2,0,0,-31,1
1517203509726666,-25,-24,-41,5,8,6,12,-25
1517203509739175,-1,11,30,-1,-7,-1,4,-17
1517203509739175,-8,-25,-48,-4,-4,0,5,17
1517203509746170,-12,1,25,-27,-5,-1,7,15
1517203509746170,9,8,5,19,5,0,-1,-3
1517203509762193,-30,-14,-26,-11,-3,1,4,-8
1517203509762193,3,-34,37,20,2,-4,22,19
1517203509764184,8,32,-10,9,0,-3,-24,-3
1517203509764184,-7,-48,-25,-16,-8,-10,-31,-35
1517203509786199,-25,7,23,-1,0,2,6,2
1517203509786199,2,-82,-36,-33,-8,-4,-27,10
1517203509788202,14,8,46,21,0,2,39,-15
1517203509788202,19,-15,-89,-29,-11,-9,2,24
1517203509798708,2,23,49,37,9,5,-7,2
1517203509798708,0,28,24,7,-2,-1,-27,-21
1517203509807715,-5,-18,-62,-24,2,0,-18,-4
1517203509807715,9,49,127,40,10,7,-3,-4
1517203509822224,17,-51,-58,-23,-13,-10,31,12
1517203509822224,-34,-66,-54,-29,-1,7,-10,-2
1517203509824225,26,13,10,17,9,9,23,0
1517203509824225,38,68,14,0,1,2,14,36
1517203509844767,10,26,-8,4,-7,-11,-32,-20
1517203509844767,14,16,3,-11,-2,-1,-3,-5
1517203509847241,-58,-21,70,31,7,0,7,5
1517203509847241,-2,15,-49,-6,-1,7,7,5
1517203509858754,-19,20,25,-5,-5,0,13,5
1517203509858754,0,-37,-77,-20,-11,-11,2,22
1517203509867757,17,40,79,15,4,-4,-36,-37
1517203509867757,-10,-56,-94,13,4,5,25,20
1517203509882767,-14,29,54,-8,-2,-3,-30,-2
1517203509882767,-12,13,19,-12,-7,-3,4,40
1517203509883768,-18,-10,-25,-27,-11,-9,8,-48
1517203509883768,0,20,8,9,-5,-7,-26,-33
1517203509904783,35,-17,-42,21,8,5,15,4
1517203509904783,-30,-36,17,18,0,-2,5,-16
1517203509906284,34,16,7,-28,-11,-1,15,52
1517203509906284,-50,-50,-48,8,1,0,11,-9
1517203509918810,30,69,9,-12,-1,0,0,6
1517203509918810,-11,-7,11,5,-1,5,18,-18
1517203509927298,-36,-15,-28,5,3,0,24,32
1517203509927298,-9,16,35,-3,-2,-8,-58,-40
1517203509942318,-13,-1,7,1,3,1,1,17
1517203509942318,15,3,-21,4,6,1,5,-20
1517203509943822,3,-3,-12,9,1,4,11,19
1517203509943822,12,-11,-8,-2,0,0,13,38
1517203509964835,-12,38,32,-2,1,1,-23,-30
1517203509964835,-6,23,16,-4,-5,-7,-11,2
1517203509966327,52,17,-25,5,-3,0,-7,-42
1517203509966327,-2,-13,34,35,12,6,9,17
1517203509987340,-10,-32,-12,-45,-12,-6,13,25
1517203509987340,29,36,-11,31,8,5,19,-50
1517203509988842,-9,-68,-61,-36,-9,-3,-14,3
1517203509988842,-56,-29,29,6,2,1,14,2
1517203510002362,-7,-19,-36,20,7,-1,-42,-54
1517203510002362,35,19,-45,-7,1,8,17,17
1517203510003854,-40,-25,9,0,-2,-4,-4,23
1517203510003854,29,25,-10,-21,-9,-4,-14,-44
1517203510024866,-20,-10,16,21,-2,-3,29,64
1517203510024866,5,29,17,-16,-1,-5,-36,-60
1517203510026368,24,10,-2,-6,-4,0,5,22
1517203510026368,8,8,32,-13,-6,-4,-24,-7
1517203510038377,-16,18,-6,3,4,6,21,32
1517203510038377,-13,-10,26,-19,-9,-6,4,9
1517203510047913,-3,11,-43,38,6,3,-12,-19
1517203510047913,-20,9,15,-9,-2,-6,-7,-19
1517203510062403,21,35,36,-37,-7,2,34,43
1517203510062403,12,-58,-48,6,3,0,-10,7
1517203510063904,11,21,34,17,6,2,-13,-7
1517203510063904,13,74,43,1,-5,-4,6,10
1517203510084911,-3,-13,-31,32,5,3,15,-28
1517203510084911,26,6,23,-24,-6,-13,-22,11
1517203510086410,-24,-31,64,-2,-2,7,4,10
1517203510086410,30,1,-51,-2,1,1,7,20
1517203510098418,-15,-31,-52,-24,-8,-1,-2,-59
1517203510098418,-13,13,60,29,11,9,22,8
1517203510107427,4,3,-30,-37,-14,-11,-17,-18
1517203510107427,28,-20,43,7,8,7,11,46
1517203510122445,21,28,17,20,-3,-11,-23,-53
1517203510122445,-49,-42,-49,-34,-6,-1,27,27
1517203510123955,5,-2,7,5,-3,-4,-13,-7
1517203510123955,2,-1,-38,-2,-1,4,31,27
1517203510144966,14,4,36,-3,2,0,-14,-6
1517203510144966,-12,17,-8,32,6,3,-11,-3
1517203510146456,-5,-21,1,-50,-11,-8,-28,-18
1517203510146456,-19,-15,25,8,-2,0,10,-8
1517203510166968,15,11,-14,-18,-2,-2,-6,-16
1517203510166968,-10,44,3,1,0,-4,-5,66
1517203510167469,6,-6,-64,9,-1,-3,-9,-36
1517203510167469,-16,-6,10,-10,-3,-6,10,15
1517203510181995,-2,14,36,-4,0,3,-1,33
1517203510181995,-15,-75,-36,-9,-7,-3,-25,-48
1517203510182483,-13,61,4,32,7,-3,16,71
1517203510182483,45,2,39,-31,-1,7,4,-36
1517203510203993,-13,-40,-74,0,0,-1,12,9
1517203510203993,7,80,54,1,-2,-2,-5,17
1517203510204994,-5,-30,15,6,3,0,5,-68
1517203510204994,-1,-1,-5,0,-6,-2,-10,5
1517203510226509,-19,-27,-12,-6,-3,-3,-16,4
1517203510226509,15,45,33,30,10,7,22,20
1517203510227510,4,12,21,7,3,5,25,46
1517203510227510,-14,0,3,-17,-4,-6,-23,-13
1517203510241520,3,-59,-46,1,1,1,7,-9
1517203510241520,-15,-33,38,-7,-2,-3,-2,0
1517203510242520,24,-1,5,8,1,0,0,-11
1517203510242520,-9,6,-19,-1,2,1,8,-23
1517203510264036,-33,-18,-4,19,2,-4,-25,4
1517203510264036,20,0,-2,-12,-2,2,12,-21
1517203510265038,3,-38,-38,-19,-4,-1,12,50
1517203510265038,-54,-3,-20,19,4,-5,-19,-31
1517203510286552,-5,-38,-19,-8,-5,1,26,-1
1517203510286552,3,-33,-12,0,0,-1,4,-17
1517203510287553,30,4,18,2,-5,-6,-12,-7
1517203510287553,7,47,1,-6,0,1,-2,1
1517203510302064,-3,-13,-11,10,-2,-1,35,65
1517203510302064,-3,-19,-11,-11,0,3,-22,-48
1517203510302565,-11,8,-42,-2,5,0,6,0
1517203510302565,0,-17,-30,13,-2,-2,-1,3
1517203510324078,-7,-24,-3,-32,-1,2,3,3
1517203510324078,3,43,19,14,2,0,38,19
1517203510325079,5,-22,31,25,9,8,1,11
1517203510325079,-22,-6,-32,-38,-8,-1,-17,11
1517203510346594,5,36,47,10,3,-1,-7,-18
1517203510346594,21,-6,-11,16,0,-2,-24,-25
1517203510347595,-43,15,0,-28,-6,2,17,101
1517203510347595,29,31,48,15,2,-5,-40,-95
1517203510361617,-13,-6,16,-14,-4,-4,-19,-20
1517203510361617,6,6,5,1,-5,-3,2,7
1517203510362618,-33,26,-14,2,0,0,-15,-36
1517203510362618,33,-6,17,-1,1,4,7,45
1517203510384122,33,58,47,37,7,3,5,-13
1517203510384122,-1,1,-58,-45,-15,-11,-36,-22
1517203510385123,2,-16,8,13,4,4,8,16
1517203510385123,-37,-34,-19,-4,-6,-5,24,-46
1517203510406636,-9,7,36,2,3,2,-18,-18
1517203510406636,24,-5,16,10,5,3,21,36
1517203510407637,-4,-33,-56,-41,-14,-10,-37,-32
1517203510407637,31,24,30,16,7,6,5,19
1517203510421652,-18,-20,-20,-3,-7,-9,-26,-16
1517203510421652,-22,-11,-8,23,4,3,11,31
1517203510422648,20,32,16,0,-4,-3,-3,31
1517203510422648,-11,-39,-32,-38,-14,-9,-4,-23
1517203510444163,3,-5,1,6,-2,-1,-5,4
1517203510444163,-4,7,18,-5,-1,-2,-4,15
1517203510444668,-4,-59,-56,18,4,-1,9,-26
1517203510444668,-4,4,-33,15,2,2,-7,23
1517203510466695,-15,-10,23,-21,-1,4,45,46
1517203510466695,-5,22,-5,-11,-9,-9,-58,-79
1517203510467686,19,19,3,-3,2,-1,11,6
1517203510467686,-4,-37,-43,-6,-5,-3,-19,-9
1517203510481689,-27,-20,-19,8,1,1,27,36
1517203510481689,-7,0,-58,-2,1,2,-51,-44
1517203510482191,1,41,46,23,8,0,6,-22
1517203510482191,-29,-45,4,-26,-11,-7,-9,-1
1517203510504205,25,12,0,3,4,0,4,8
1517203510504205,21,5,53,0,-4,-1,32,52
1517203510505206,15,25,2,2,1,-1,-21,-44
1517203510505206,31,4,14,12,5,5,12,8
1517203510526731,-20,0,-56,-27,-6,-5,-27,-28
1517203510526731,4,-20,11,23,3,2,13,7
1517203510527222,-12,-25,-25,-25,-7,-4,-3,-20
1517203510527222,31,32,54,3,7,2,18,23
1517203510541732,-7,-21,-48,-10,-7,-6,9,-7
1517203510541732,-4,29,-9,-11,-8,-9,-26,-66
1517203510542233,1,-28,3,-8,-2,2,29,75
1517203510542233,-20,-17,7,21,6,1,-33,-35
1517203510564258,5,40,-1,0,-1,3,6,7
1517203510564258,-29,-41,-16,-7,-4,-3,-12,8
1517203510564748,5,-3,38,18,7,3,18,7
1517203510564748,-11,7,-18,-17,-4,-1,8,18
1517203510586781,-12,-16,30,11,0,0,-9,-19
1517203510586781,23,43,63,4,-1,3,25,12
1517203510587265,15,13,-4,-1,-8,-10,-28,-38
1517203510587265,-8,-6,-6,7,8,2,8,39
1517203510601779,8,-10,-10,-1,-2,-5,-10,-38
1517203510601779,-15,39,4,-9,0,-1,-14,-46
1517203510602279,6,40,-31,23,-6,-2,38,20
1517203510602279,1,-39,22,-19,-6,-4,6,23
1517203510624303,15,-12,4,-11,-7,-4,-18,-15
1517203510624303,-59,7,15,-12,-2,1,-3,17
1517203510624792,8,-3,3,9,4,2,-5,-9
1517203510624792,-40,35,1,-11,-8,-10,-35,-51
1517203510646819,15,-31,22,12,8,10,23,26
1517203510646819,12,6,37,22,-1,-3,16,32
1517203510647320,-52,-17,-47,-34,-3,0,-26,-42
1517203510647320,-7,-25,1,19,4,4,16,14
1517203510661830,-4,-36,-26,-11,-3,1,9,38
1517203510661830,8,18,-15,0,-2,0,-6,-57
1517203510662317,9,-5,51,10,6,-1,-8,10
1517203510662317,-14,1,-43,2,-7,-5,11,21
1517203510684333,4,26,28,-1,1,3,4,-23
1517203510684333,-24,-47,-20,-2,1,1,23,23
1517203510684834,-11,-28,11,-9,-2,-1,-10,6
1517203510684834,63,32,-19,-27,-2,2,2,-24
1517203510706861,-19,5,11,13,3,-3,-21,-11
1517203510706861,11,64,28,15,1,1,13,27
1517203510707350,27,4,-20,-28,-3,-2,-16,-48
1517203510707350,-33,-8,90,28,2,2,16,14
1517203510721862,17,32,-48,-13,-13,-10,-19,-2
1517203510721862,35,-2,8,-32,2,4,12,-9
1517203510722360,-32,46,39,15,-5,-1,24,22
1517203510722360,29,-10,-55,9,1,-3,-36,7
1517203510743875,9,12,-11,-5,-2,2,-10,-34
1517203510743875,-34,-34,10,-2,-1,-4,7,19
1517203510744876,19,84,47,4,3,1,1,11
1517203510744876,-24,-63,-37,-4,-2,-1,12,13
1517203510766892,-33,-38,10,21,5,-4,-19,-17
1517203510766892,-4,10,-47,-30,-10,0,0,7
1517203510767398,-33,-83,9,-5,-4,-5,35,-2
1517203510767398,6,80,33,-5,-4,0,-25,-34
1517203510781923,-36,-52,-74,-1,-2,-1,19,37
1517203510781923,26,-10,43,14,2,-6,-22,-40
1517203510782405,0,-22,-36,-3,-3,-1,-23,23
1517203510782405,5,15,1,18,1,-2,8,48
1517203510812463,47,63,103,-5,-2,-2,-13,-26
1517203510812463,-7,-30,-24,-18,-1,-1,7,19
1517203510812925,-10,-56,1,-1,0,-2,-27,5
1517203510812925,10,4,-25,1,-3,-3,2,-8
1517203510826443,4,23,-43,-1,-1,1,6,-2
1517203510826443,19,11,27,5,-1,1,-17,3
1517203510827443,-5,13,26,11,3,4,6,-17
1517203510827443,-10,4,-64,-46,-9,-4,-4,-11
1517203510849950,26,39,52,7,-1,3,15,22
1517203510849950,-33,-33,-94,7,-2,-2,-6,-4
1517203510850453,-6,-27,35,34,13,7,1,-13
1517203510850453,5,18,27,-2,0,-3,20,8
1517203510863973,-23,-38,-10,-30,-2,-3,-12,-42
1517203510863973,22,32,-33,-5,0,-2,13,50
1517203510864963,-9,41,91,29,9,5,16,-23
1517203510864963,-24,-20,-59,8,-1,-1,-21,-33
1517203510886476,31,25,115,23,2,2,-23,6
1517203510886476,37,30,-16,-15,1,1,6,1
1517203510887478,-14,2,-28,15,2,-6,-10,10
1517203510887478,-53,-37,77,-15,-8,-1,15,11
1517203510900988,-9,28,-40,-5,-3,-2,22,63
1517203510900988,0,14,44,14,3,2,-19,-52
1517203510908992,-25,-28,-26,-25,-8,-6,-37,-39
1517203510908992,31,4,11,42,10,1,15,13
1517203510924012,15,39,29,-7,-1,-2,-4,17
1517203510924012,-25,-36,-8,4,1,-2,-10,21
1517203510925003,22,31,-57,-10,-7,0,13,32
1517203510925003,7,-12,0,3,-3,-2,-20,-25
1517203510946520,-21,-1,15,20,3,0,12,16
1517203510946520,2,-31,-62,-42,-5,-2,7,-4
1517203510947519,-37,-80,-13,-9,-4,1,0,-33
1517203510947519,-36,12,-3,-6,0,0,-7,-9
1517203510961038,-3,10,-27,4,0,-2,9,23
1517203510961038,12,-29,57,31,7,7,19,17
1517203510969037,-21,44,-46,-37,-15,-9,-17,-22
1517203510969037,6,-19,-26,-19,2,0,22,27
1517203510984567,2,-54,-33,-6,-1,-1,-7,-63
1517203510984567,-16,7,3,-1,-2,-2,5,10
1517203510985047,42,26,15,8,0,0,-4,-22
1517203510985047,7,-3,-34,12,4,6,16,39
1517203511007064,-42,-28,-11,-37,-14,-12,-8,-54
1517203511007064,7,21,-35,10,-1,-3,-3,-1
1517203511007563,45,19,45,-2,-5,-1,5,40
1517203511007563,-9,-7,-8,-17,-5,-3,-5,-30
1517203511021072,2,-43,2,7,2,3,2,32
1517203511021072,1,33,57,-1,-4,-6,11,22
1517203511029078,5,43,7,13,0,-6,-29,-44
1517203511029078,1,-24,-15,-2,1,-2,-2,11
1517203511044089,-13,19,-52,-31,-10,-8,-7,-34
1517203511044089,17,16,35,23,3,6,21,48
1517203511045089,-17,-29,-27,0,4,5,-1,-25
1517203511045089,7,13,-13,6,0,1,-22,-13
1517203511067104,-18,-22,22,4,-2,-4,12,31
1517203511067104,-2,-26,-42,1,4,3,11,-10
1517203511067605,-24,19,18,-1,-8,-8,-20,10
1517203511067605,9,-47,-15,-5,-4,-2,-11,-29
1517203511081114,7,43,63,22,9,2,-1,9
1517203511081114,-8,-40,-24,-19,-7,-3,-16,-9
1517203511089119,31,3,22,10,6,6,7,10
1517203511089119,23,5,22,-5,-3,-4,13,23
1517203511104130,27,41,41,12,1,6,-3,5
1517203511104130,-22,7,18,2,-1,-2,-5,-15
1517203511105130,9,12,-46,-9,-6,-5,14,-2
1517203511105130,1,23,31,-6,-4,-5,-13,9
1517203511126646,13,-18,-46,-1,0,-1,-11,-5
1517203511126646,-1,-8,23,4,-1,-3,3,-43
1517203511127646,-30,-79,-47,-15,-3,2,10,38
1517203511127646,4,14,18,19,2,-2,10,-9
1517203511150164,-1,26,-13,-12,-7,-4,-15,-34
1517203511150164,-36,-11,0,19,4,5,-1,2
1517203511151665,11,-12,9,-22,-2,0,21,48
1517203511151665,-15,9,2,12,-1,-2,-22,-52
1517203511164185,-12,-24,-33,-37,-5,-1,7,4
1517203511164185,16,20,-28,-2,-5,-3,-8,-22
1517203511165173,-1,19,1,7,-5,-6,4,7
1517203511165173,-2,4,25,-4,1,5,6,20
1517203511186708,-8,-50,-65,12,-2,-4,11,9
1517203511186708,12,8,19,-28,-8,-10,-56,-17
1517203511187192,2,-19,-45,10,-2,-1,28,26
1517203511187192,5,23,36,-10,-3,-1,-7,-10
1517203511210215,-54,-2,5,-22,-8,-4,0,-15
1517203511210215,-15,-26,19,4,-4,-1,19,-2
1517203511211215,-6,-10,3,-2,0,0,-19,-23
1517203511211215,25,7,31,14,4,-2,-3,2
1517203511224215,19,12,23,24,6,5,-2,12
1517203511224215,5,-12,-17,-13,-3,1,14,-4
1517203511224715,-3,-58,-3,-17,-5,-4,10,25
1517203511224715,42,38,-65,25,6,-1,-4,-16
1517203511246732,18,23,29,-31,-6,2,-21,-2
1517203511246732,-12,-13,50,29,5,1,2,15
1517203511247232,18,43,14,-27,-2,-2,-13,-14
1517203511247232,-18,-6,47,4,1,3,10,18
1517203511270247,4,-36,-31,5,-4,-6,3,5
1517203511270247,5,24,-19,12,5,-1,2,-13
1517203511270748,9,-19,-1,-5,-4,-4,12,-11
1517203511270748,-25,8,-17,-1,3,4,15,57
1517203511284265,-6,41,69,9,1,-1,-52,-61
1517203511284265,-3,-12,-30,-4,0,3,14,6
1517203511284770,12,21,23,24,3,1,-6,12
1517203511284770,-47,-79,-64,-50,-13,-9,-12,-18
1517203511306773,39,29,32,47,17,13,60,95
1517203511306773,17,-7,-9,-25,-2,-2,-53,-35
1517203511307275,-22,19,42,20,5,5,9,0
1517203511307275,21,12,-18,5,-2,-4,-23,-27
1517203511329802,-1,1,4,1,0,-3,10,-17
1517203511329802,-4,19,11,-4,0,-2,11,18
1517203511330803,-26,-13,19,18,0,-3,11,-24
1517203511330803,8,6,-26,-34,-7,-1,-1,11
1517203511344300,7,-4,28,16,6,3,16,9
1517203511344300,7,-6,-65,-6,-4,-1,11,26
1517203511344799,21,17,20,-1,4,0,-17,-11
1517203511344799,21,-7,7,-9,-6,0,29,1
1517203511366816,6,-5,-24,-7,-1,-2,-19,3
1517203511366816,3,22,-5,-6,-6,-5,-10,7
1517203511367316,8,36,12,20,0,0,-15,-39
1517203511367316,1,2,6,-10,-2,1,-5,7
1517203511389832,19,23,-12,-7,-1,0,-9,-1
1517203511389832,-22,16,3,-9,-3,-1,-10,-22
1517203511390833,18,-28,-46,-15,-1,0,8,18
1517203511390833,-28,22,49,23,1,-3,-18,-10
1517203511404342,1,-14,-43,-8,-3,0,-6,-16
1517203511404342,-13,-18,23,7,1,-3,20,10
1517203511404843,31,39,4,-5,-1,-1,-31,23
1517203511404843,-9,-6,-8,21,7,7,26,5
1517203511426858,-25,-39,-13,-9,0,-3,-4,-15
1517203511426858,10,-19,-26,-6,-5,-3,-23,9
1517203511427358,-24,-25,7,17,3,-1,-27,-64
1517203511427358,-6,-51,-56,-25,-8,-3,19,45
1517203511449875,26,19,11,-7,-3,-3,-25,-31
1517203511449875,8,16,27,19,5,-2,9,14
1517203511450875,10,-3,-39,-17,-3,0,5,-21
1517203511450875,-21,-22,-15,-2,-5,-4,-12,0
1517203511464386,24,-7,13,-2,-4,-4,23,0
1517203511464386,-18,-15,-21,9,2,2,1,-1
1517203511464885,18,-20,-9,-25,-1,0,0,13
1517203511464885,10,55,46,8,1,-1,6,-8
1517203511486900,-13,-26,-46,-23,-10,-8,-19,-11
1517203511486900,10,-2,16,15,2,5,18,15
1517203511487401,-45,-11,11,19,2,0,18,20
1517203511487401,7,-16,-26,-16,-4,-1,10,16
1517203511509917,-9,8,31,-6,-2,-1,-12,25
1517203511509917,28,-15,-25,2,0,1,-14,-33
1517203511510419,-13,32,7,4,-1,-5,-10,-16
1517203511510419,-1,-3,13,-13,-3,0,-4,-7
1517203511523926,-5,1,-22,11,1,-3,11,21
1517203511523926,6,42,51,2,1,2,12,0
1517203511524927,-6,-10,-41,-23,-9,-5,11,14
1517203511524927,-14,-16,-1,-1,0,-3,-10,-36
1517203511546443,3,-4,17,10,4,3,10,41
1517203511546443,11,13,4,-14,-5,-3,-11,1
1517203511547456,23,-2,-28,-1,2,3,15,2
1517203511547456,-4,-24,-12,13,1,-3,-3,-2
1517203511569960,6,-8,46,-2,0,-2,2,-2
1517203511569960,-46,-13,-51,-11,-4,-4,11,-10
1517203511570960,6,-4,43,-19,-8,-1,-5,26
1517203511570960,14,10,-4,6,-1,-5,-23,-19
1517203511584470,-1,-8,-33,1,-1,-1,-20,-21
1517203511584470,-30,-23,2,2,3,0,-2,1
1517203511584971,-3,-8,-8,9,0,0,8,-1
1517203511584971,13,28,7,-19,0,4,35,53
1517203511606485,24,13,54,25,4,2,-26,-23
1517203511606485,-38,-17,4,-10,-8,-5,-8,-29
1517203511607486,11,5,-37,-21,-3,-3,-9,-11
1517203511607486,4,26,31,30,7,3,12,8
1517203511630001,-19,10,1,-17,-5,-5,23,19
1517203511630001,6,-7,-3,-18,-9,-7,-38,1
1517203511630502,-10,-16,-15,-6,-4,-5,-10,-3
1517203511630502,-5,29,48,9,3,-2,2,27
1517203511644011,-27,2,-16,17,6,0,-17,-8
1517203511644011,21,-1,-17,-10,-8,-3,-16,-51
1517203511645012,-4,-11,2,-9,-2,-1,-2,-8
1517203511645012,3,-15,-41,-12,-6,-8,-16,-6
1517203511667028,-5,2,45,19,4,2,4,-14
1517203511667028,1,-4,-79,-29,-6,-3,25,29
1517203511667530,-1,23,23,-5,-1,-1,-11,4
1517203511667530,2,7,42,18,2,0,-15,-26
1517203511690044,-15,-18,-61,-24,-8,-8,5,-12
1517203511690044,29,41,110,31,3,0,-8,15
1517203511690546,1,-30,-49,-24,-6,-3,47,53
1517203511690546,-10,-21,-10,-4,-1,-1,-53,-99
1517203511704057,-1,17,32,-1,-2,-1,6,-18
1517203511704057,-27,-50,-21,5,2,1,10,13
1517203511705056,-6,13,22,24,4,5,32,60
1517203511705056,18,-10,13,-21,-6,-3,-30,-25
1517203511726570,25,-6,-45,-13,-4,4,7,21
1517203511726570,9,-4,19,18,4,-1,1,-13
1517203511727571,-41,13,-18,2,-2,-1,-11,-11
1517203511727571,0,-40,17,-13,-2,-1,10,-7
1517203511750587,-5,11,13,10,3,2,-2,4
1517203511750587,22,-32,-74,-20,1,3,39,73
1517203511751589,-13,-24,4,18,0,-4,-45,-54
1517203511751589,-35,18,36,19,3,-1,7,6
1517203511763608,9,-29,-68,-28,-8,-2,8,8
1517203511763608,0,-8,52,15,2,2,11,6
1517203511771614,2,12,15,-13,0,-2,-2,-10
1517203511771614,-16,21,-11,17,6,6,16,32
1517203511787114,-22,-5,-24,-13,-7,-3,15,-14
1517203511787114,3,21,10,12,4,-3,-20,-8
1517203511787615,6,2,54,13,3,4,13,29
1517203511787615,-19,-37,-98,-7,-4,-5,-36,-68
1517203511809638,5,25,36,13,1,2,31,27
1517203511809638,-1,-33,-8,-29,-9,-7,-20,-40
1517203511810639,-24,5,10,-3,-1,0,-9,-13
1517203511810639,6,-6,-5,-9,-2,3,35,47
1517203511823651,-18,-23,22,24,6,0,-4,-9
1517203511823651,12,-2,-59,-8,1,1,1,-13
1517203511831653,25,-13,-2,6,0,-1,-7,-2
1517203511831653,-1,11,17,20,0,-3,-18,-39
1517203511847156,-23,-25,-56,-35,-9,-6,-15,-41
1517203511847156,34,19,28,-9,1,2,3,6
1517203511848156,-16,32,-34,11,5,2,-20,-28
1517203511848156,7,16,0,-29,-6,1,27,54
1517203511869671,8,0,9,17,1,-3,-26,-37
1517203511869671,-20,7,15,2,0,0,13,13
1517203511870673,5,14,16,16,1,-2,-35,-19
1517203511870673,-30,-28,-15,-10,-6,-7,-7,-20
1517203511883681,-2,-26,-24,-8,-3,4,33,35
1517203511883681,-5,-4,15,10,5,1,-19,0
1517203511891691,2,-5,-23,-16,-9,-9,-13,-34
1517203511891691,19,18,21,23,7,2,-2,2
1517203511907199,7,62,60,-10,-3,1,9,27
1517203511907199,-8,10,21,-1,-2,0,-5,-18
1517203511908199,-19,13,13,5,2,1,6,-7
1517203511908199,7,-8,23,0,3,2,29,36
1517203511929737,12,1,-20,-4,-4,-3,-27,-14
1517203511929737,-9,-21,-21,20,1,-1,-2,-4
1517203511930738,25,33,-12,-35,-4,-3,40,62
1517203511930738,7,-46,-35,-3,-5,0,-15,-23
1517203511943247,-8,3,31,9,4,-1,-21,8
1517203511943247,-1,1,-5,5,-1,-1,-11,-14
1517203511951765,-6,-76,-16,13,1,0,23,40
1517203511951765,15,80,19,-9,-7,-4,4,10
1517203511967764,-9,-35,-1,-5,-4,-4,-22,-21
1517203511967764,-5,26,-22,-21,-7,-4,6,-6
1517203511968264,2,11,-2,15,0,0,-3,-10
1517203511968264,13,-12,-1,0,1,-4,-2,11
1517203511989778,-19,27,1,4,-2,-2,13,25
1517203511989778,4,23,11,-2,-3,-1,-2,-5
1517203511990279,7,-46,39,-4,-6,-1,-6,-24
1517203511990279,-20,7,-4,6,1,0,-11,-12
1517203512003790,-5,-32,-29,8,4,6,30,31
1517203512003790,26,11,51,-8,0,-3,-2,-13
1517203512011794,-7,13,-68,-3,-3,-1,-9,3
1517203512011794,2,-24,0,-14,-2,2,23,41
1517203512027317,11,4,-20,-4,-1,-2,-17,-24
1517203512027317,-11,10,1,4,0,0,-3,12
1517203512028316,6,2,16,9,4,0,-11,-26
1517203512028316,-19,-8,-14,8,2,2,18,-15
1517203512049821,-13,24,0,-17,-7,-12,-29,13
1517203512049821,3,-30,-11,-2,1,1,-5,9
1517203512050822,17,42,14,-11,-4,-1,-18,-14
1517203512050822,-2,-5,39,14,2,4,11,16
1517203512063369,23,6,-45,-15,-1,-1,-11,-12
1517203512063369,-6,-4,19,11,-1,-3,-2,-2
1517203512071836,-41,-47,-52,-19,-6,-4,14,20
1517203512071836,25,27,23,12,2,-1,-34,-30
1517203512087347,-4,-1,-22,2,0,1,5,-10
1517203512087347,19,-2,15,11,4,3,20,41
1517203512088349,-3,-14,-29,-29,-5,0,-4,-16
1517203512088349,5,18,32,16,3,-1,22,22
1517203512109864,-15,-43,-28,10,2,-1,-39,-18
1517203512109864,-30,-33,-72,-38,-14,-8,-10,-1
1517203512110864,-2,5,18,2,1,0,2,-4
1517203512110864,21,-5,-19,-5,0,3,18,49
1517203512132389,19,19,31,13,2,-2,-34,-58
1517203512132389,-25,-27,9,-2,2,3,9,-8
1517203512133380,16,11,18,9,-1,-3,-12,-4
1517203512133380,4,26,21,-2,-4,-3,13,-12
1517203512147390,-3,-5,-37,-5,-3,0,18,18
1517203512147390,-20,11,-30,-8,-6,-4,-11,-11
1517203512148391,21,19,27,4,2,1,1,-8
1517203512148391,-41,-20,-5,14,5,-2,4,-10
1517203512169928,-16,11,49,-25,-5,-2,24,-1
1517203512169928,3,-37,-58,2,2,2,7,18
1517203512170911,-1,-10,10,16,0,2,-5,-6
1517203512170911,-13,8,-27,-20,-3,-2,-27,-77
1517203512192435,8,-28,55,-1,-4,-2,13,17
1517203512192435,-12,-28,-53,1,2,-1,-5,-4
1517203512192922,2,10,-8,-2,-1,0,10,12
1517203512192922,3,-50,14,13,-1,-6,5,26
1517203512207433,11,31,1,-10,3,6,-3,-13
1517203512207433,12,33,16,4,-2,0,6,0
1517203512207933,-26,-9,23,-6,-7,-7,-9,30
1517203512207933,9,-8,-12,-18,-3,-4,-39,-71
1517203512229966,10,-8,36,19,4,-1,40,34
1517203512229966,0,28,11,-14,-6,-6,-22,-22
1517203512230449,17,11,0,13,7,6,3,-7
1517203512230449,17,48,38,-1,-4,-2,22,56
1517203512252466,-43,-86,-35,-11,-4,-7,-39,-61
1517203512252466,3,-5,28,-5,-2,-1,-4,-11
1517203512253965,-1,37,21,13,5,2,12,-21
1517203512253965,-19,-14,-9,-22,-7,-5,-27,5
1517203512265974,44,4,-13,12,4,8,39,21
1517203512265974,-15,33,1,9,3,-2,-28,-20
1517203512275025,-19,-37,-27,-26,-11,-5,-1,-12
1517203512275025,9,23,35,33,10,5,-2,-6
1517203512290036,-23,-36,-4,7,-4,-1,1,39
1517203512290036,21,23,-8,-33,-7,-5,1,-20
1517203512291537,14,-18,-3,6,1,0,4,-6
1517203512291537,-26,-6,-22,-7,2,2,2,-14
1517203512312553,-2,31,10,7,-2,0,4,29
1517203512312553,3,-52,12,0,-2,2,31,55
1517203512314053,8,15,10,16,5,1,-22,-22
1517203512314053,-4,-19,-41,-17,-9,-8,-26,-36
1517203512326062,-14,33,26,10,3,-1,1,-9
1517203512326062,-27,-29,-34,-10,-7,-1,5,-1
1517203512335069,-1,-15,-1,2,-1,-4,-11,-10
1517203512335069,5,-6,-6,-3,-2,-2,7,24
1517203512350082,-17,16,45,8,0,4,-2,-2
1517203512350082,18,42,33,7,0,0,19,-11
1517203512351580,6,-9,-61,-14,-1,0,-25,-2
1517203512351580,15,33,14,-9,-12,-15,-36,-12
1517203512372595,9,-17,-33,13,3,1,14,-29
1517203512372595,-9,-1,47,-12,1,4,14,11
1517203512374109,6,33,22,2,-1,0,21,23
1517203512374109,-16,-43,-74,-6,-1,0,0,-2
1517203512386606,-4,-22,-24,-20,-4,-5,-1,15
1517203512386606,9,22,17,20,3,-5,-36,-23
1517203512393610,7,-7,43,8,2,3,-7,-8
1517203512393610,-9,-25,4,7,-3,-1,19,48
1517203512409621,4,27,-29,-12,-3,-2,-12,-26
1517203512409621,7,-30,-5,17,2,3,5,-4
1517203512411622,-29,-27,-40,-32,-11,-11,0,-5
1517203512411622,6,6,-1,-2,3,4,-3,-9
1517203512432639,19,-7,26,4,-2,-1,6,19
1517203512432639,15,-3,-34,-18,-5,-5,-7,3
1517203512434138,-16,33,21,14,1,-2,-2,2
1517203512434138,-13,-38,15,4,1,3,26,25
1517203512446657,-23,-16,-41,-24,-6,-8,-20,-57
1517203512446657,9,11,39,17,4,1,3,-2
1517203512453656,7,-7,-3,13,5,5,28,20
1517203512453656,-8,-23,-31,-21,-6,0,3,6
1517203512470167,8,15,9,6,1,0,4,6
1517203512470167,-3,-2,41,25,5,1,-18,6
1517203512471166,10,-38,-66,-29,-9,-7,1,-5
1517203512471166,10,29,41,17,6,5,15,26
1517203512492180,4,-26,-59,-9,-7,-7,-26,-18
1517203512492180,-17,-13,6,-7,0,1,8,7
1517203512493681,15,14,12,-12,-10,-4,-4,1
1517203512493681,2,28,-7,14,5,0,-12,-7
1517203512506704,-7,10,-29,-21,-6,-3,20,4
1517203512506704,-4,51,68,21,2,-5,-19,-3
1517203512513194,-7,-45,-27,-7,1,3,9,12
1517203512513194,4,0,14,7,1,0,4,-8
1517203512529715,-14,20,39,-2,-1,1,-14,-13
1517203512529715,4,-33,-49,-10,-4,-3,5,-5
1517203512531217,-8,9,51,-5,-4,-4,13,13
1517203512531217,30,17,-7,2,2,5,-26,-22
1517203512552234,-51,-19,-16,16,6,3,21,51
1517203512552234,-11,2,5,-5,-4,-5,-16,-24
1517203512553723,10,6,-61,12,0,-4,-10,-6
1517203512553723,-9,-22,-46,-32,-5,-4,-3,-22
1517203512566732,28,-7,33,16,3,2,11,39
1517203512566732,-15,20,-19,-10,-8,-6,-9,-16
1517203512573739,-9,-12,-2,22,7,4,-18,-39
1517203512573739,0,-5,22,-11,-1,-7,0,22
1517203512589748,17,3,-10,2,-1,1,4,14
1517203512589748,14,-23,-39,-14,-4,-2,16,3
1517203512591262,15,21,29,7,1,1,-14,-4
1517203512591262,0,-4,-27,8,2,2,24,21
1517203512612264,-25,6,24,-10,-3,-4,-34,-69
1517203512612264,4,16,5,-7,-1,0,5,24
1517203512613765,-15,24,11,7,-2,1,8,-9
1517203512613765,-7,-28,-28,-28,-10,-7,-5,-13
1517203512625774,6,9,21,15,0,-3,11,15
1517203512625774,15,19,-4,-12,2,6,7,-4
1517203512650792,-3,1,-5,1,4,1,7,-4
1517203512650792,-7,-1,-17,8,0,-3,-12,-1
1517203512652294,15,21,16,-17,-4,-2,-1,14
1517203512652294,0,10,11,13,1,-2,-11,-6
1517203512653794,10,5,-15,-7,-1,3,22,43
1517203512653794,-6,11,21,13,3,1,-23,-50
1517203512672307,32,-23,11,16,2,-1,17,18
1517203512672307,-32,-7,-58,-34,-9,-2,-7,-12
1517203512674821,15,24,12,0,-3,-5,4,18
1517203512674821,17,-12,13,3,1,1,6,-4
1517203512686318,18,15,-27,-24,-5,-1,-21,-5
1517203512686318,-12,-31,47,36,7,3,21,17
1517203512694835,10,38,28,-26,-3,-2,-20,-17
1517203512694835,-16,-4,17,3,-8,-4,2,-17
1517203512709843,-12,-1,2,-23,1,-1,36,46
1517203512709843,21,-14,-8,20,4,0,-30,-56
1517203512711344,-9,20,21,10,-1,-1,-1,10
1517203512711344,-6,18,56,31,4,3,0,-11
1517203512732359,11,-16,-39,-44,-7,-4,-2,19
1517203512732359,14,17,25,18,1,-2,14,14
1517203512733853,-9,-21,-10,-15,-3,-6,-8,-11
1517203512733853,9,32,1,11,5,4,12,56
1517203512754865,-23,-6,-3,6,-4,-3,-36,-60
1517203512754865,2,-28,-25,5,3,5,19,-1
1517203512756367,-18,2,27,2,-3,-5,-12,-27
1517203512756367,-1,-13,-23,-18,-1,0,13,15
1517203512769877,13,11,-15,9,2,2,21,22
1517203512769877,2,3,-19,4,-2,-5,-37,-8
1517203512771377,9,2,18,3,2,4,13,26
1517203512771377,-26,-19,-55,-49,-14,-7,-17,-30
1517203512792401,16,13,11,23,4,2,1,-11
1517203512792401,-14,-27,-7,-6,1,1,25,3
1517203512793909,14,-4,32,36,6,0,-19,16
1517203512793909,3,8,-11,-36,-8,-6,-8,-22
1517203512805917,-37,11,27,3,-4,-4,-13,-13
1517203512805917,6,-30,-8,20,7,9,14,20
1517203512814923,-23,9,-42,-48,-12,-5,-2,-27
1517203512814923,-28,30,40,14,2,2,17,14
1517203512829947,8,-53,-82,1,-1,-4,-23,-7
1517203512829947,-9,-3,-2,-10,-5,-10,-38,-16
1517203512831448,12,-6,6,7,2,1,17,10
1517203512831448,8,15,-17,4,1,3,-7,-9
1517203512852450,12,18,67,8,1,7,32,18
1517203512852450,6,10,-45,-6,-2,-6,-27,-18
1517203512853951,-2,-17,-51,-15,-6,-7,-14,-4
1517203512853951,-4,-3,7,10,0,-10,-7,-23
1517203512865970,2,-1,11,10,6,13,29,19
1517203512865970,6,36,13,-24,-5,1,17,27
1517203512874966,4,10,17,18,0,3,8,-14
1517203512874966,12,-16,8,-17,-1,-3,-14,29
1517203512889985,-13,-8,2,34,4,-2,-8,-10
1517203512889985,8,16,-14,-25,-6,0,12,4
1517203512891490,11,-35,11,4,2,5,2,11
1517203512891490,-2,-7,-5,7,-1,0,17,25
1517203512912513,-3,8,17,-14,-4,-5,-42,-19
1517203512912513,-9,-10,-28,-2,-5,-4,5,-20
1517203512914008,11,-1,33,4,4,-2,-26,10
1517203512914008,-14,-27,-17,-12,-3,-3,-13,-39
1517203512926002,-4,19,33,1,1,4,6,8
1517203512926002,-43,6,-3,2,-1,-2,22,20
1517203512935009,-21,0,-6,12,2,3,-3,-10
1517203512935009,30,26,36,10,-1,1,12,23
1517203512950019,-30,-18,-56,-8,-7,-8,-6,-10
1517203512950019,6,-12,41,-12,-2,1,-2,9
1517203512951520,42,12,-7,8,3,3,9,-17
1517203512951520,1,-4,-35,0,2,-2,38,33
1517203512972535,10,5,29,8,-3,-5,-33,-16
1517203512972535,-15,10,-11,-9,-2,0,9,11
1517203512975036,-17,-20,2,0,-7,-8,-21,-20
1517203512975036,14,-3,-10,15,4,7,24,8
1517203512986045,14,5,24,-11,2,-2,12,9
1517203512986045,11,-34,-32,23,1,-2,-4,-3
1517203512995050,-37,-15,-67,-27,-5,-1,3,19
1517203512995050,-6,-11,5,-10,-6,-1,-13,-12
1517203513009570,6,2,-20,5,-1,-3,22,-12
1517203513009570,36,19,37,21,6,1,-17,-10
1517203513011571,-5,-29,1,-21,-5,0,34,39
1517203513011571,-11,-22,9,26,4,-5,-62,-78
1517203513032076,4,8,-31,-24,-6,-5,-7,-30
1517203513032076,-10,-9,-31,-40,-11,-4,6,30
1517203513034078,5,49,60,13,2,0,7,10
1517203513034078,-9,-14,-57,-3,0,1,-3,-20
1517203513046086,-18,-8,31,8,1,-1,-22,6
1517203513046086,20,24,51,17,3,1,-18,-6
1517203513055093,-7,-17,-54,-4,-2,-4,-2,-12
1517203513055093,18,25,23,-1,0,1,-3,10
1517203513070106,10,11,-3,-4,-5,-6,7,4
1517203513070106,-10,-4,-19,12,3,2,15,6
1517203513071606,-7,-18,6,-7,1,0,-3,16
1517203513071606,-16,-17,41,11,-4,-2,-14,-29
1517203513092131,8,-15,-46,-15,-2,-2,-1,2
1517203513092131,22,-8,20,-12,-3,-5,-4,-7
1517203513094133,-7,11,-1,16,3,0,3,0
1517203513094133,-8,14,-1,-10,-3,-4,6,11
1517203513114666,3,2,8,-15,-2,0,-4,13
1517203513114666,11,29,-4,6,-1,-1,11,-3
1517203513116648,-7,-28,27,6,1,7,8,16
1517203513116648,16,9,20,-2,-5,-8,-25,3
1517203513129645,7,5,-44,-12,2,4,18,-20
1517203513129645,-38,-15,-7,-4,-3,-2,26,27
1517203513131647,6,4,50,10,-1,1,-34,-22
1517203513131647,-1,3,-42,-35,-12,-9,-10,7
1517203513152662,5,1,35,23,4,-1,18,15
1517203513152662,-14,-10,-9,4,2,1,9,0
1517203513154164,-4,-3,-10,-5,-1,-2,-15,-25
1517203513154164,-2,-28,2,0,1,5,-6,15
1517203513174678,-9,9,4,11,-2,-6,-8,-17
1517203513174678,-9,-34,-8,-3,-2,0,-13,-4
1517203513176181,-4,24,-3,-2,3,1,-1,-7
1517203513176181,4,-13,22,-6,-1,0,24,-8
1517203513197204,9,-12,5,-4,-3,-7,-13,-8
1517203513197204,-11,11,43,28,7,1,0,15
1517203513198695,-9,-22,-59,-39,-11,-9,-8,-24
1517203513198695,29,7,-19,9,2,-3,5,20
1517203513212205,-33,1,28,-1,1,6,-5,4
1517203513212205,8,-35,13,4,1,-3,-1,-9
1517203513213710,-14,-10,-102,-27,-15,-9,-24,-53
1517203513213710,8,14,15,10,6,-1,22,18
1517203513234720,-2,0,-53,7,-1,2,-1,13
1517203513234720,1,-22,-37,-31,-8,-4,-30,5
1517203513236723,23,-10,35,18,7,3,3,-34
1517203513236723,-4,18,37,15,2,3,7,17
1517203513249230,10,-15,-41,32,7,5,3,4
1517203513249230,-1,24,-33,-27,-7,-9,-18,-16
1517203513255735,22,22,4,1,0,2,8,24
1517203513255735,-28,-37,10,6,1,-5,-17,-8
1517203513272249,-12,28,23,-1,1,7,24,46
1517203513272249,12,11,24,-3,-3,-2,-34,-77
1517203513273748,-10,-35,-11,-13,-5,-6,17,27
1517203513273748,4,29,-19,5,-3,-2,-17,-16
1517203513294762,-17,-22,25,5,2,-4,-11,-27
1517203513294762,-1,-2,-22,-6,-4,0,-5,-9
1517203513296264,-23,20,2,10,4,4,21,31
1517203513296264,9,4,27,9,1,1,-1,0
1517203513309773,-13,-12,-8,-54,-12,-9,-4,0
1517203513309773,12,31,9,2,1,4,10,-7
1517203513316279,-7,0,22,11,4,1,-6,-16
1517203513316279,-24,-23,-5,-1,-2,0,17,10
1517203513332298,-11,-17,54,-2,-5,-4,8,-13
1517203513332298,1,6,1,11,2,2,-17,11
1517203513333791,-22,-6,-24,4,0,-4,-6,-5
1517203513333791,5,0,17,-9,-5,0,11,-17
1517203513354874,6,23,-5,13,4,2,-9,-12
1517203513354874,-27,-22,-28,-22,-6,0,12,23
1517203513356367,14,34,43,9,0,-5,-1,-1
1517203513356367,38,17,28,5,4,8,9,49
1517203513369374,-2,-7,-48,-1,0,-1,-11,-44
1517203513369374,-1,15,-16,-2,-3,-9,-19,10
1517203513376379,7,-4,37,10,3,10,24,0
1517203513376379,3,11,-43,-4,0,0,5,5
1517203513392392,6,-2,22,-8,-1,-1,0,29
1517203513392392,15,15,11,15,5,5,8,4
1517203513393893,-19,-20,-38,-19,-9,-12,-17,-14
1517203513393893,-1,-7,-44,-16,-5,-3,1,-1
1517203513414907,25,13,15,14,4,4,5,23
1517203513414907,-24,-21,-35,7,0,-4,2,-10
1517203513416410,14,-6,13,-13,-6,-2,-5,1
1517203513416410,-22,30,6,8,2,0,2,5
1517203513428916,-22,-5,12,-19,-12,-10,-15,-28
1517203513428916,17,20,23,15,6,6,30,30
1517203513436008,-2,-23,-11,18,5,1,-24,-14
1517203513436008,-2,5,12,-24,-3,-2,0,-7
1517203513452521,-14,-12,-17,3,-3,-3,-6,-6
1517203513452521,6,0,-9,-16,-4,-1,7,13
1517203513454020,-13,12,-10,1,-3,-1,28,-5
1517203513454020,-6,-17,23,22,4,-1,-11,-13
1517203513475035,24,2,-18,-11,-5,-4,-2,9
1517203513475035,-7,1,-42,-2,-1,-2,-9,-19
1517203513476037,9,-8,-6,-5,0,2,9,21
1517203513476037,-20,-18,-19,-3,-2,-5,-19,-25
1517203513489051,6,-10,5,9,0,4,22,8
1517203513489051,11,7,35,6,3,4,23,28
1517203513496064,10,3,17,-8,-2,-2,-27,-24
1517203513496064,-16,-7,-19,-13,1,3,6,0
1517203513512073,29,-23,-6,6,-1,-4,-14,-1
1517203513512073,-15,11,20,15,1,0,-6,-1
1517203513514072,4,-18,-21,-21,-3,-2,4,15
1517203513514072,9,-1,11,12,0,-3,-6,-16
1517203513535079,-10,10,-20,-27,1,2,5,4
1517203513535079,7,2,-1,6,-3,-1,5,4
1517203513536581,6,16,46,21,4,0,-5,4
1517203513536581,-20,-33,-42,-28,-12,-6,3,5
1517203513549109,6,15,0,11,4,0,-13,-14
1517203513549109,-6,-21,21,-11,-3,-4,-6,-8
1517203513556092,-6,3,1,7,0,0,1,-2
1517203513556092,5,-6,2,7,3,2,-3,5
1517203513572605,-11,10,15,2,-2,-1,4,3
1517203513572605,-4,7,33,0,-3,-3,-15,-20
1517203513574105,-5,-22,-57,-32,-8,-7,-5,3
1517203513574105,5,18,-16,3,-1,1,6,1
1517203513594632,1,-20,28,13,3,2,4,34
1517203513594632,-10,-19,-19,-10,-3,-4,-19,-63
1517203513596629,1,15,2,19,1,-1,3,5
1517203513596629,1,2,-10,-16,-2,-1,-3,0
1517203513608642,-5,13,3,-1,-3,-3,-6,-4
1517203513608642,2,4,7,-3,-1,-2,1,13
1517203513617638,0,2,-10,1,-1,1,2,2
1517203513617638,-5,-16,4,-5,-2,-2,-8,-14
1517203513632175,0,8,-2,1,0,-1,3,3
1517203513632175,1,-3,-12,-1,0,-1,4,6
1517203513634151,-1,3,3,-3,0,-2,-4,-5
1517203513634151,0,2,2,2,-2,0,1,7
1517203513654662,-3,-4,-2,-1,-3,-5,-5,-10
1517203513654662,1,-5,-2,8,-2,0,3,9
1517203513656667,0,1,12,-6,1,0,-1,2
1517203513656667,1,-5,0,8,1,1,1,-1
1517203513668672,-6,-1,-15,-2,0,1,0,-7
1517203513668672,4,-1,10,5,0,1,0,0
1517203513677196,2,0,6,-3,-4,0,4,7
1517203513677196,-2,-1,-14,-5,-3,-2,-2,-4
1517203513692201,0,1,-1,8,4,2,-1,-7
1517203513692201,-4,0,5,-11,-3,-3,2,6
1517203513693700,0,1,4,2,-1,-1,0,0
1517203513693700,2,-1,-12,4,3,1,1,1
1517203513714704,2,3,-9,-3,-3,-4,-4,-4
1517203513714704,-3,-9,3,3,-2,-2,0,1
1517203513716206,3,-1,-2,1,7,1,1,3
1517203513716206,-3,-5,-1,13,-2,-2,-2,-3
1517203513728226,2,5,5,-25,-1,-1,2,2
1517203513728226,0,-1,-5,-5,-2,0,1,2
1517203513737222,-2,3,3,-1,-3,-1,-2,-2
1517203513737222,-1,-6,2,14,3,0,-2,0
1517203513752231,-4,-1,-14,-10,-3,0,-3,-5
1517203513752231,-3,-3,6,-1,-1,-2,0,-1
1517203513753733,1,3,-10,-1,-3,-1,-2,-2
1517203513753733,-1,5,12,0,2,-2,1,-1
1517203513775247,1,0,1,2,-4,-4,-2,-1
1517203513775247,-1,-2,-1,2,1,0,1,0
1517203513776249,0,-3,-7,-6,-2,0,0,-1
1517203513776249,-3,-3,7,-12,-6,-1,-2,-1
1517203513798773,-1,-5,0,3,1,-1,-1,-2
1517203513798773,-1,2,-4,3,-1,1,-1,1
1517203513800265,-1,-3,7,6,-2,-2,-1,0
1517203513800265,-1,1,0,-9,-1,-2,-3,-3
1517203513812786,-2,-2,0,5,0,-2,-2,0
1517203513812786,2,-2,-1,-1,-1,0,0,-2
1517203513814277,-2,-2,2,0,-1,-3,0,-1
1517203513814277,-2,-1,1,2,-3,1,0,0
1517203513834793,-3,-2,-3,-2,-1,2,0,0
1517203513834793,0,1,-3,-5,-1,-3,-2,-1
1517203513836290,-1,-4,-1,-2,-2,-3,-1,-1
1517203513836290,0,0,0,-3,2,-2,-1,-1
1517203513848313,-2,0,4,6,-1,-2,0,-1
1517203513848313,-2,-4,-7,-7,-3,-1,-2,-1
1517203513857305,-3,-2,2,-2,-3,0,-1,-1
1517203513857305,-2,-2,-6,-5,-1,0,-1,0
1517203513872316,-2,-1,-1,2,-1,0,-2,-3
1517203513872316,-1,0,0,-1,-1,0,0,-1
1517203513873818,0,-1,-4,-1,0,-1,-1,-1
1517203513873818,-1,3,0,-3,-2,-1,1,-1
1517203513894841,0,-1,1,0,-2,-1,-2,0
1517203513894841,0,-1,-3,-2,-1,-2,1,-2
1517203513896333,-1,-2,-2,1,0,1,-2,-1
1517203513896333,0,-1,0,-3,-2,-1,-1,0
1517203513908341,-1,-3,-1,1,1,-1,0,-1
1517203513908341,0,0,0,0,0,0,-1,0
1517203513917348,-2,-1,-2,-2,-1,-3,-3,0
1517203513917348,0,0,-1,-2,-2,1,-2,-1
1517203513932373,0,-1,-1,2,-2,-1,-3,0
1517203513932373,0,1,-1,-1,-1,0,-2,0
1517203513933864,1,0,0,-1,1,0,0,-2
1517203513933864,-4,-3,-2,-3,-4,-5,-3,-3
1517203513954874,-1,-1,-1,1,0,1,0,-1
1517203513954874,-3,-1,-2,-2,-2,-3,0,-2
1517203513956375,0,-1,-2,1,0,2,0,1
1517203513956375,0,-1,0,0,-2,-3,-1,-1
1517203513968386,-1,-1,-2,-2,-2,0,0,-1
1517203513968386,-2,-3,-1,-1,-2,-2,-1,0
1517203513977402,-2,-1,-2,-1,-1,-2,0,-1
1517203513977402,0,-2,-2,-1,1,-1,0,0
1517203513992410,-2,0,0,-1,0,-2,0,-1
1517203513992410,-1,0,-2,-2,-1,0,-2,0
1517203513993911,-1,-2,0,-1,0,-3,-2,-1
1517203513993911,0,2,-1,-2,-1,1,-2,-2
1517203514014926,1,0,0,-1,1,-2,-2,-2
1517203514014926,-2,-1,-2,-1,-2,-1,-1,1
1517203514016418,-4,-3,-4,-3,-2,-3,-2,-3
1517203514016418,2,1,0,0,-1,4,0,0
1517203514037434,-1,-2,-5,-1,-2,-4,-3,-1
1517203514037434,-3,0,1,1,1,1,-1,0
1517203514038936,-1,-1,1,2,-4,0,-1,0
1517203514038936,-2,-2,-1,-1,-1,-3,0,-3
1517203514052443,0,0,0,-2,-3,-1,-1,-2
1517203514052443,0,1,0,0,0,0,0,0
1517203514053947,-3,-2,-2,-5,-2,-2,0,-2
1517203514053947,-1,-1,-1,0,0,0,0,-1
1517203514074959,-1,0,0,0,0,0,0,-2
1517203514074959,-1,-2,-3,-1,0,-3,0,-3
1517203514076461,0,-1,-1,0,-1,-1,0,1
1517203514076461,1,-2,-1,-2,0,-2,-2,-1
1517203514096976,-2,0,-2,-3,0,-2,0,-1
1517203514096976,-1,-2,-1,1,-1,1,-2,0
1517203514098977,-1,-1,0,0,0,2,-1,-2
1517203514098977,0,-1,0,0,-1,-3,-2,-1
1517203514111985,-2,-2,0,1,-2,-1,-2,0
1517203514111985,1,-1,-1,-2,0,0,0,-1
1517203514113987,0,-1,-2,-1,-1,-3,0,-1
1517203514113987,-2,-1,-1,-1,-1,-1,-2,-2
1517203514135004,-1,-2,-1,0,-1,-1,0,-1
1517203514135004,0,-1,0,-1,0,0,0,0
1517203514136503,-1,-1,-1,0,-1,-1,-1,-1
1517203514136503,-1,-1,-2,-2,-1,1,-1,0
1517203514157529,0,-1,-1,-1,-1,-1,-1,0
1517203514157529,-1,-2,0,-3,-1,-3,-1,-1
1517203514159019,-1,-1,-1,-1,-2,0,0,-3
1517203514159019,-1,-2,-1,0,-1,-2,0,-1
1517203514171529,-1,-2,-3,-1,0,-1,-2,-1
1517203514171529,-2,-1,-2,-2,-1,1,-1,-2
1517203514178531,-2,0,-1,-3,1,-2,-2,0
1517203514178531,-1,0,-1,1,-4,-2,-2,-1
1517203514195045,-2,-1,0,0,-1,-2,-1,-1
1517203514195045,-1,-2,-1,-2,-2,-1,-1,-2
1517203514196545,-1,-2,-2,-1,-1,-2,-1,-2
1517203514196545,-2,0,0,-1,0,0,-1,0
1517203514217560,-2,-3,-2,-1,-3,-3,-2,-1
1517203514217560,-1,-2,-2,-1,-1,-1,-2,0
1517203514219062,-3,-2,-2,-3,-2,0,-3,-1
1517203514219062,-2,-2,0,-2,0,-1,-1,-3
1517203514231629,-1,0,-1,-1,0,-1,-1,-1
1517203514231629,-2,-1,-1,0,-2,-1,0,-1
1517203514238575,-2,1,-1,-1,0,-1,-1,0
1517203514238575,0,0,-2,-1,0,0,-2,0
1517203514254586,-1,-2,-1,-1,-1,1,-1,0
1517203514254586,-1,-2,-1,-1,-1,-3,-2,-1
1517203514256087,1,0,0,-1,-1,-3,-3,1
1517203514256087,-1,-3,-1,0,-1,0,1,-1
1517203514277105,-2,-2,0,-2,-1,-1,-1,0
1517203514277105,-2,0,1,-2,-2,0,-1,-1
1517203514279103,-1,-2,-1,0,-2,2,-1,-1
1517203514279103,-1,-1,0,-1,-1,-2,0,-1
1517203514291612,-1,-2,-2,-1,0,0,0,-1
1517203514291612,-1,0,0,-1,-1,-2,-1,0
1517203514298617,-1,-1,0,-1,1,-2,-1,1
1517203514298617,-1,0,-2,-2,-2,-1,-2,0
1517203514314630,0,0,-1,-1,-1,0,-1,-3
1517203514314630,-2,0,-3,-1,0,-2,-1,-1
1517203514316629,-2,-1,0,-1,-2,-2,0,-2
1517203514316629,-2,-1,-2,-1,-1,-2,-1,-1
1517203514336143,-1,0,-2,0,-1,-1,-2,-1
1517203514336143,-3,-2,-1,-1,-2,-1,-1,-2
1517203514345150,-1,-1,-1,-2,0,1,-1,-2
1517203514345150,-1,0,-2,-2,1,-3,-1,-1
1517203514351655,-1,-2,-1,-1,-2,0,-1,1
1517203514351655,1,-1,-1,-1,0,-2,-2,-3
1517203514358600,0,0,-4,-1,-3,-1,-2,-2
1517203514358600,-1,-2,-1,0,-2,0,-1,-2
1517203514374614,-1,-1,-2,0,1,-1,-2,0
1517203514374614,-1,-2,-1,-2,-1,-2,-3,-2
1517203514376112,-1,-1,0,1,1,-1,2,1
1517203514376112,-2,-1,-2,-2,-2,-2,-1,-2
1517203514397130,-1,1,0,0,-2,-2,-1,0
1517203514397130,-1,-3,-3,-2,-2,-2,-1,-1
1517203514399144,-1,-2,-1,-1,0,0,-1,0
1517203514399144,-2,-1,-2,-1,-1,-2,0,-1
1517203514411650,-1,-2,-1,-1,0,-1,0,0
1517203514411650,0,1,0,0,-1,-2,-1,1
1517203514426147,-1,-2,-2,-1,0,-1,0,-1
1517203514426147,-1,-2,-2,-1,-1,0,0,0
1517203514434654,-1,0,-2,-3,-1,-2,-1,-1
1517203514434654,0,-2,-1,1,1,0,0,-2
1517203514436657,-2,-2,-1,-1,-1,-1,-2,-2
1517203514436657,1,-3,1,-1,-1,-1,-1,-1
1517203514457169,-1,-4,-1,-1,-1,-2,-1,0
1517203514457169,-1,-1,-2,0,-1,-2,0,-1
1517203514458671,-1,-1,-1,0,-1,-1,-4,-2
1517203514458671,-1,-1,-1,-2,-2,1,-1,0
1517203514471690,0,0,-4,-2,-2,0,0,-1
1517203514471690,-1,1,-2,-1,-1,0,-1,-1
1517203514478199,0,1,-1,-2,-2,-2,0,-1
1517203514478199,-1,1,-2,0,0,-1,-2,-1
1517203514494706,-1,-1,0,0,-1,-1,0,-2
1517203514494706,-2,-2,-2,0,0,-1,-1,-1
1517203514496207,0,-1,0,-1,-1,1,-1,-1
1517203514496207,-1,-1,-2,-1,-1,-2,-2,0
1517203514517213,-1,0,0,1,-2,1,1,-1
1517203514517213,-1,-2,1,-3,-2,1,-1,-1
1517203514518715,-2,-3,-2,1,-1,-1,-1,1
1517203514518715,-1,-2,-1,-2,-1,-1,-1,-1
1517203514530734,-1,0,0,0,-1,0,-1,0
1517203514530734,1,-1,-2,-2,-1,-1,1,-1
1517203514539727,0,-1,-2,-2,0,-2,0,-1
1517203514539727,-1,0,-1,-1,-1,0,-1,-1
1517203514554751,-1,1,-1,0,0,-2,-2,-2
1517203514554751,0,-1,0,-1,0,-1,0,-1
1517203514556239,-1,0,-2,-1,-2,-4,-1,-2
1517203514556239,1,-1,-3,-1,0,0,0,-1
1517203514576253,0,-1,-1,-3,-1,-1,-1,-2
1517203514576253,-1,-2,-2,-1,-2,-1,-2,0
1517203514584764,-2,-1,-3,-4,-1,-3,-2,-2
1517203514584764,-1,-1,-1,-1,-1,-1,-1,-2
1517203514590765,0,-2,-3,0,-1,-2,-2,-4
1517203514590765,-2,-1,-2,-1,-1,-1,-1,-2
1517203514599770,-2,0,1,0,-2,-2,1,-2
1517203514599770,-3,-2,-1,0,-1,-3,0,1
1517203514614808,0,-2,-1,-3,-1,-2,0,0
1517203514614808,-1,-1,0,-2,-2,0,-2,-1
1517203514616550,-1,-3,-2,-1,-1,0,-2,0
1517203514616550,1,-2,-1,-2,0,-2,1,-2
1517203514637551,-2,-1,0,0,-1,-1,-2,-1
1517203514637551,0,-2,0,-1,-1,-2,-1,0
1517203514639051,-1,-1,-1,0,0,-1,-1,-1
1517203514639051,-2,-1,0,-1,-2,0,-1,-1
1517203514651061,0,-1,-2,-1,-2,-2,0,-1
1517203514651061,-1,-1,-1,-1,-1,-2,-2,-1
1517203514660065,-1,-2,0,0,-1,-1,-1,-2
1517203514660065,-1,-2,-1,-1,-2,0,0,-2
1517203514674576,-2,1,-1,0,-1,0,-1,0
1517203514674576,-1,-1,-2,0,-1,0,0,0
1517203514676077,-1,0,-2,-1,-1,1,-1,0
1517203514676077,-1,0,0,-2,-1,0,-1,-2
1517203514697092,-2,0,-2,-2,-1,-2,0,0
1517203514697092,0,-1,-1,1,0,-3,-1,0
1517203514699107,0,-1,-2,-1,-1,-2,0,0
1517203514699107,-1,-1,0,-1,0,0,-1,-2
1517203514711101,1,-2,-1,-1,-1,1,-2,-2
1517203514711101,-2,-1,0,-2,-1,0,-1,-1
1517203514720108,-2,-2,1,-1,-1,-1,1,-2
1517203514720108,-1,-2,-2,-2,-3,-2,-2,-2
1517203514735118,-2,-2,-2,-1,0,0,-1,-2
1517203514735118,-2,1,-2,-1,0,0,-1,1
1517203514736620,-1,-1,-1,-1,-2,0,1,-1
1517203514736620,0,-1,-2,0,0,-3,-1,-3
1517203514757134,-3,-2,0,-1,-2,-3,-2,1
1517203514757134,-1,-1,0,-1,-1,-2,-2,-1
1517203514759135,-2,0,-1,-3,0,1,-2,-1
1517203514759135,1,0,-2,0,0,-2,-1,-1
1517203514771155,-1,0,-2,-1,-2,-4,-1,0
1517203514771155,0,-3,0,-3,-2,-1,0,-1
1517203514779649,-1,-3,-2,-1,-2,-1,0,-1
1517203514779649,-2,-2,-2,0,-1,0,-1,0
1517203514794661,-1,0,-1,-1,1,0,-1,0
1517203514794661,-1,-1,-1,-3,-2,0,-1,-2
1517203514796162,-1,1,0,-3,-2,-2,0,-2
1517203514796162,-3,-1,-1,0,-2,0,-1,0
1517203514817719,-1,-4,-1,-2,0,1,0,-1
1517203514817719,0,0,-2,1,-1,1,0,-2
1517203514818721,0,-1,-2,0,-1,-2,-3,0
1517203514818721,-1,-1,-1,-1,0,-1,-2,1
1517203514830740,-2,0,0,-2,-1,0,-2,-2
1517203514830740,-2,-3,0,-1,-1,-3,-2,-1
1517203514839734,0,-1,0,-2,0,-1,0,-2
1517203514839734,-2,-1,0,-2,-2,-2,0,-1
1517203514854744,0,0,-2,1,-1,-4,-3,-1
1517203514854744,-1,-2,-2,0,0,0,0,-2
1517203514856259,-1,-1,-2,0,-1,0,-1,0
1517203514856259,-1,-2,0,-2,-2,0,-2,0
1517203514877261,0,-2,0,-2,0,-1,1,-2
1517203514877261,-3,-2,-1,-1,-3,-3,-2,-1
1517203514878761,-2,1,0,-2,1,-2,-1,0
1517203514878761,0,-2,-1,-1,-2,-1,-1,-1
1517203514890782,-1,-2,-1,-1,-2,1,-1,-1
1517203514890782,0,0,-2,0,0,-1,0,-2
1517203514899776,-1,-4,0,0,0,-2,-2,0
1517203514899776,-2,0,1,-2,0,-2,0,-1
1517203514914790,-2,-2,-2,-3,-3,-1,-2,-1
1517203514914790,-2,0,-2,-3,0,0,-1,1
1517203514916288,-1,-3,0,-1,-2,0,-2,-2
1517203514916288,-1,-1,-1,0,1,0,-1,-1
1517203514937303,-2,-2,-1,-1,-1,0,1,1
1517203514937303,0,1,-1,1,0,1,0,-2
1517203514938804,-1,-3,0,-1,-2,-2,0,-2
1517203514938804,-2,0,-1,0,-1,0,-1,-1
1517203514959831,-1,0,-1,-1,-1,-1,-1,0
1517203514959831,-1,-1,-2,-1,-1,-1,-2,-1
1517203514961329,1,0,0,-2,-2,-1,-1,-1
1517203514961329,-2,-1,-1,-1,-2,0,-2,0
1517203514975399,-1,-1,-1,0,0,-1,-1,-1
1517203514975399,0,-1,0,-1,-1,-2,-1,-1
1517203514976910,-1,1,-1,-2,0,-1,-2,-2
1517203514976910,-1,0,-3,-1,-1,-1,0,-1
1517203514997414,-2,-1,-1,-2,-1,-2,0,-1
1517203514997414,1,-1,-2,-2,-2,1,0,-2
1517203514998917,-4,-1,-2,0,-1,-1,-1,-1
1517203514998917,0,-2,-1,-2,-2,-1,-1,-2
1517203515020432,0,-1,-1,0,0,-2,-1,-1
1517203515020432,-1,0,0,1,0,-1,-1,1
1517203515021932,-1,-1,-2,-2,-1,-1,1,0
1517203515021932,-1,0,-1,0,-2,-1,0,0
1517203515034942,-1,-1,-3,-2,-1,-1,0,-2
1517203515034942,0,0,-1,-3,-1,1,-3,-2
1517203515036444,0,-3,0,0,-2,-2,-1,0
1517203515036444,-2,-2,-1,0,0,-1,-3,-2
1517203515056969,2,-1,-2,-3,0,-1,-1,0
1517203515056969,-1,0,-1,-1,-2,-2,0,-2
1517203515058971,0,0,-1,-1,1,-2,-2,-1
1517203515058971,0,-1,-2,0,0,0,0,-1
1517203515079973,0,0,0,1,-1,-2,-3,-2
1517203515079973,-2,-3,-3,-1,-1,1,-1,-3
1517203515081489,-1,0,-2,-1,-2,-1,-1,1
1517203515081489,0,-2,-1,-2,-3,0,-1,0
1517203515093995,0,-1,-1,-2,-2,-1,-2,-1
1517203515093995,-1,0,-2,-2,-1,-2,-1,0
1517203515100987,-1,-2,-1,-1,0,0,0,-3
1517203515100987,-2,0,-1,0,-2,-2,-1,-1
1517203515117501,-2,-1,-2,1,0,0,-1,-1
1517203515117501,-1,-2,0,1,-2,-3,-1,0
1517203515119002,0,-1,0,-1,-3,0,-2,-2
1517203515119002,0,-1,-2,0,-2,-2,-2,0
1517203515139515,-1,0,-2,-2,-1,-2,-2,-2
1517203515139515,0,-3,1,-1,0,0,0,0
1517203515141516,-1,0,-1,-1,-1,-1,-1,0
1517203515141516,-1,-1,-1,-2,-1,-1,-2,-1
1517203515154025,0,-3,0,0,-3,-1,-2,-3
1517203515154025,0,-1,0,-2,-1,-2,0,-2
1517203515160539,-1,-1,-2,-1,-2,-1,1,-1
1517203515160539,-1,-2,-1,-1,-1,-1,0,-1
1517203515177041,-2,-1,-2,-1,-1,-4,0,-3
1517203515177041,-2,0,0,0,0,1,-2,0
1517203515179043,-2,-3,-2,-2,-1,-1,-2,0
1517203515179043,0,-2,-2,-2,-1,-2,-2,-3
1517203515199596,-2,-2,-1,-2,-3,-1,-1,-1
1517203515199596,-2,-1,-2,-1,-1,0,-1,-2
1517203515201061,-2,-1,-2,-2,-2,-2,-1,-2
1517203515201061,0,-2,-2,-1,-1,-2,-1,0
1517203515214107,0,-1,0,-3,-1,-2,-2,1
1517203515214107,0,0,-2,-2,-1,1,1,-2
1517203515221084,0,0,0,0,0,-1,-1,-1
1517203515221084,-1,-2,-2,-2,-3,-1,0,-3
1517203515237585,-1,1,-2,-2,-2,1,-1,1
1517203515237585,-1,-3,-2,-1,0,-2,-2,0
1517203515239086,-1,-1,0,1,-1,-2,-2,-1
1517203515239086,-2,0,-1,-1,-1,-1,-1,-2
1517203515259600,-1,-2,1,1,0,1,-1,-1
1517203515259600,-1,0,-2,0,-2,-1,-1,-1
1517203515261101,-3,-1,-1,-1,-1,0,0,0
1517203515261101,-1,1,1,0,0,-2,-2,-1
1517203515274111,0,-1,-1,0,-1,-1,-1,0
1517203515274111,-2,-1,-2,-2,-1,-3,0,0
1517203515281116,0,-3,-1,0,-1,-2,0,-1
1517203515281116,0,0,-2,-1,-2,-1,-1,-1
1517203515297127,-1,0,1,-2,-1,-1,0,0
1517203515297127,0,1,0,0,-3,-2,-3,0
1517203515298627,-1,-1,-3,-2,-1,2,0,-1
1517203515298627,0,-1,-1,-1,1,-1,-1,0
1517203515319645,0,-2,-2,-1,-2,1,-1,-2
1517203515319645,-3,-1,-2,0,-1,-2,-1,-1
1517203515321144,-1,-1,-1,-1,-1,-1,-2,-1
1517203515321144,-2,0,0,-2,0,-1,-2,0
1517203515334153,0,-1,-2,0,0,-3,-1,-2
1517203515334153,-1,-1,1,-2,-3,-2,-1,-1
1517203515341161,-2,-1,-2,-1,0,-1,-1,-3
1517203515341161,-3,-3,-1,1,0,1,0,0
1517203515357170,-1,0,-2,-1,1,-2,-1,-2
1517203515357170,-2,0,-3,-2,-2,-2,-1,-1
1517203515358671,-1,-2,-2,-2,-2,-2,0,0
1517203515358671,0,-1,-2,-1,-2,0,0,-1
1517203515379697,-2,-2,-1,-1,-1,-1,-2,-1
1517203515379697,0,-1,0,1,0,0,-1,0
1517203515381196,-1,-1,-1,1,-1,-1,-2,-2
1517203515381196,0,0,-2,-2,-1,0,-2,-1
1517203515394254,0,-2,0,-1,0,-2,-1,0
1517203515394254,0,-1,-1,-2,0,0,-1,-1
1517203515401250,-1,-1,-1,-2,0,-1,-2,-2
1517203515401250,-2,-2,-1,0,-1,-2,0,1
1517203515417260,-2,-1,0,1,-2,-1,0,0
1517203515417260,0,-2,-2,-2,-1,-1,-1,-2
1517203515418762,0,0,-1,-2,0,0,-1,-2
1517203515418762,0,-1,0,1,-2,1,-1,-1
1517203515439780,-2,-1,-2,0,0,-1,-3,0
1517203515439780,-1,-1,-2,-1,1,0,-2,-1
1517203515441279,-1,-2,-2,-2,0,-1,-2,0
1517203515441279,-1,0,-1,-3,0,-3,-2,-1
1517203515453287,-2,-1,-2,-2,-1,-1,-1,0
1517203515453287,-1,-2,-1,-2,-1,0,-2,0
1517203515462305,0,0,0,-1,-2,-2,0,0
1517203515462305,-1,-1,-2,-2,-1,-2,-1,-1
1517203515477323,-1,-2,-1,0,-3,0,0,0
1517203515477323,-1,-1,1,-1,0,-1,-1,-1
1517203515478813,-1,-1,-1,0,-1,-2,-1,-2
1517203515478813,-2,-3,-2,-2,0,1,0,0
1517203515499818,-1,-1,-1,-1,-1,-1,0,-2
1517203515499818,-2,-2,-2,-1,0,0,-2,-1
1517203515501331,1,-2,-3,-1,-1,0,-1,0
1517203515501331,0,0,-2,-1,-2,-3,-3,-3
1517203515513331,-1,-1,0,-2,0,-2,-2,-2
1517203515513331,-1,-2,0,-1,-1,-2,0,-1
1517203515522346,-1,-1,-1,-2,-2,-2,-1,0
1517203515522346,-1,-1,-1,0,0,0,-1,-1
1517203515537362,-1,-2,-2,-1,-2,-1,0,-4
1517203515537362,-2,0,-2,0,-1,-2,-2,-3
1517203515538848,0,-1,-2,-1,-1,-1,-2,-1
1517203515538848,-1,0,-2,1,-1,-3,0,-2
1517203515559861,-2,0,-1,-2,-2,-2,0,1
1517203515559861,-1,-1,-1,0,-2,-1,0,-2
1517203515561363,-3,0,0,-1,-2,-1,-1,0
1517203515561363,-1,-2,-1,1,-1,-2,0,0
1517203515573372,0,0,0,-1,-1,-2,0,-1
1517203515573372,-1,-2,-2,-1,-1,-2,-1,-3
1517203515582390,-2,0,-1,-2,-1,1,-2,-1
1517203515582390,-2,-1,-2,-2,-1,0,-2,-1
1517203515597398,0,-2,-1,-2,0,1,-1,-2
1517203515597398,0,-1,0,-2,-3,-1,-2,0
1517203515598889,-2,-1,-1,-2,-2,-2,2,0
1517203515598889,0,-1,-2,-1,-1,-1,-1,-1
1517203515619905,0,1,-2,-3,-1,-1,-2,0
1517203515619905,-1,-1,0,-1,0,-1,2,0
1517203515621408,-1,-2,0,0,-1,-1,-1,-3
1517203515621408,-1,0,0,-2,-1,-1,-2,-1
1517203515633423,-2,-2,-1,-1,0,0,-1,-2
1517203515633423,-1,-1,-1,0,0,-2,-1,0
1517203515642420,0,0,0,0,-1,-2,-1,-2
1517203515642420,-1,-1,-2,-1,-1,0,-2,0
1517203515656931,1,-1,-2,-1,0,-1,-1,-1
1517203515656931,0,1,-2,-1,-1,1,-1,0
1517203515658932,-1,-2,-1,-3,-1,0,2,-1
1517203515658932,0,-1,1,0,0,-1,-1,-1
1517203515679456,0,-2,-1,-1,-1,0,-1,0
1517203515679456,-1,-1,-1,0,-1,-2,0,-2
1517203515681447,-1,-1,0,-2,0,-1,-3,0
1517203515681447,-2,0,-1,-1,-2,0,0,-2
1517203515693468,-2,0,-2,-1,-1,-2,-1,-2
1517203515693468,1,-2,-2,-2,0,-2,0,-2
1517203515702463,-1,-1,-2,-3,-1,-1,0,-1
1517203515702463,0,-2,-1,-1,0,0,0,-1
1517203515717474,-3,-1,-1,1,-1,-1,-2,-1
1517203515717474,-1,-1,-2,-1,-2,-2,0,0
1517203515718974,-2,-1,-2,1,-2,-3,-2,0
1517203515718974,-3,-1,-1,0,-2,0,1,1
1517203515739488,-2,-1,-4,-2,-1,-2,1,-1
1517203515739488,0,-3,-1,0,-1,0,-2,-2
1517203515741500,0,-3,-2,-2,0,-2,-1,-1
1517203515741500,0,-2,-2,0,-2,-2,-1,-1
1517203515753502,-1,-3,-2,1,-1,0,-1,0
1517203515753502,-1,-2,0,-1,0,-1,-1,-1
1517203515762005,-1,0,-1,0,-1,0,0,-1
1517203515762005,0,-1,-1,0,-2,-1,0,-1
1517203515777027,0,0,1,-2,0,-2,-1,-1
1517203515777027,-1,0,-2,-1,-1,-2,-2,-1
1517203515778516,-2,-3,0,-1,-1,-1,0,-2
1517203515778516,-1,-1,-1,-1,-1,-1,1,-1
1517203515799031,-1,-1,-1,0,-2,1,-2,-2
1517203515799031,-2,-2,-1,-2,-1,-1,0,0
1517203515807536,-1,-2,-2,0,-1,-1,-1,0
1517203515807536,-2,-4,-1,-2,-2,-1,-3,0
1517203515813541,0,-1,0,1,-1,-1,-1,1
1517203515813541,-2,-1,-1,0,-1,-2,-1,-1
1517203515822062,-1,-1,0,-2,-1,-1,-1,-1
1517203515822062,0,1,-2,-1,0,-1,-1,-2
1517203515837559,-3,0,-1,-3,-1,-2,0,-1
1517203515837559,-1,-1,-1,-2,-2,-1,0,0
1517203515838559,0,-1,-1,0,-1,-1,-1,-1
1517203515838559,1,-1,0,-1,-2,0,-2,-3
1517203515859644,-1,-2,-1,-2,-1,-1,0,-1
1517203515859644,-2,-1,1,-1,0,-2,-2,-1
1517203515861146,-1,1,0,-2,-1,-1,0,0
1517203515861146,-1,0,0,-1,0,-2,-1,-1
1517203515882158,1,-1,-2,0,-2,-1,-1,-2
1517203515882158,-1,-1,-2,-1,1,0,1,0
1517203515883650,0,-2,-2,0,-2,1,-1,0
1517203515883650,-1,1,-1,-1,-1,-1,-1,-1
1517203515897168,0,0,1,0,0,-2,-2,-1
1517203515897168,0,0,-1,-1,-2,-1,-2,-2
1517203515898661,-1,-1,-2,-1,-2,0,-1,0
1517203515898661,-1,-2,-2,-1,-2,0,0,0
1517203515919677,0,-2,-1,-1,-2,-1,-1,-2
1517203515919677,-1,0,-1,-1,-1,-1,0,0
1517203515921177,-1,-3,0,-1,0,-1,-1,-3
1517203515921177,-1,-2,-2,-1,-1,-2,-1,-2
1517203515942203,-2,-1,0,-1,-1,-1,-1,0
1517203515942203,-1,-2,-2,-1,-3,-1,-2,-2
1517203515943701,0,0,-2,-2,-2,-1,-1,0
1517203515943701,0,0,0,0,-2,-2,-2,0
1517203515957201,-1,-1,-2,0,-1,0,-1,-2
1517203515957201,-2,-1,-2,-1,0,-1,0,0
1517203515958702,-2,0,-1,-2,0,-1,-2,0
1517203515958702,0,-1,-2,-2,0,-2,-1,0
1517203515979719,-2,0,-1,-1,0,0,-2,-2
1517203515979719,1,-1,-1,-2,-1,-1,-1,-1
1517203515981228,0,-1,-2,0,-1,-1,-2,-2
1517203515981228,-2,-1,-3,0,0,0,2,-1
1517203516002734,0,-3,-2,-2,-1,-2,-1,-1
1517203516002734,0,-2,-1,0,0,1,1,-2
1517203516003736,-1,-1,0,-1,0,-2,-1,-1
1517203516003736,-1,0,-2,-1,-2,-2,-1,-2
1517203516017254,-1,-1,-1,0,0,-3,-1,-1
1517203516017254,0,-2,-1,0,-2,-1,0,-2
1517203516018747,-1,0,-1,-1,-1,-1,0,-1
1517203516018747,-2,-1,-1,-1,-2,0,-1,-1
1517203516039860,-1,-2,-2,-1,-3,-1,0,-1
1517203516039860,-1,0,-1,-1,-1,-1,-2,0
1517203516041362,-1,0,0,0,-1,-1,-1,-1
1517203516041362,-2,-1,-1,-1,0,1,0,0
1517203516062390,-1,-1,-1,0,0,-2,-1,0
1517203516062390,-1,-3,-1,-2,-2,-1,-1,0
1517203516063891,-1,-1,-1,0,-1,-2,-1,-1
1517203516063891,0,-1,-2,-2,-2,-1,0,-1
1517203516084892,1,-1,-2,-3,-1,-1,-2,-2
1517203516084892,-1,0,1,-2,0,-1,-1,0
1517203516086393,-1,0,-1,0,-2,-1,0,-2
1517203516086393,-1,-2,1,-1,-2,-2,-1,-2
1517203516099915,-1,0,-3,-1,-2,0,-1,0
1517203516099915,-1,0,-3,-1,1,-3,-1,-1
1517203516101404,-2,-3,-2,-1,-1,-2,-2,-1
1517203516101404,-1,0,-2,0,0,-1,-1,0
1517203516122418,-1,-2,-1,0,0,-1,0,-1
1517203516122418,-1,0,-1,-1,-2,0,-1,-1
1517203516123920,-1,-1,-1,-1,1,0,-1,-2
1517203516123920,0,-2,0,-1,-2,-1,-1,-2
1517203516136929,-2,-2,0,-1,-1,-2,-1,-2
1517203516136929,-1,-1,-1,-1,-3,-3,0,-2
1517203516143433,-1,-3,0,-2,-2,-2,-2,0
1517203516143433,-1,-1,-2,0,1,-1,-1,-2
1517203516159444,-1,0,-1,0,-2,0,-1,-1
1517203516159444,1,-2,0,0,1,-1,0,-2
1517203516161446,-2,0,-1,0,-2,-2,-1,-1
1517203516161446,-1,-2,-2,-2,-1,0,-1,-1
1517203516181999,-2,-1,-1,-1,-2,-1,-2,0
1517203516181999,-2,-2,-2,-2,-1,1,-1,-1
1517203516183962,-1,-1,-2,0,-2,-1,0,-2
1517203516183962,0,-1,-1,0,-2,-1,-1,0
1517203516196483,-2,-2,-2,-3,-1,-2,0,-2
1517203516196483,-1,-2,-1,-1,0,-1,-1,-1
1517203516203478,-1,-1,-3,-1,0,-1,-1,0
1517203516203478,-2,0,-1,-1,-1,-2,-1,-1
1517203516219987,0,-3,0,-3,-1,-3,-1,1
1517203516219987,-1,0,-2,0,-2,0,-2,-2
1517203516221488,-2,0,-1,-2,0,0,0,-2
1517203516221488,-1,-2,-1,-1,-2,-2,0,-2
1517203516242008,-1,-1,-1,-2,-2,1,-1,-1
1517203516242008,-1,-3,0,0,0,-2,-1,-1
1517203516244017,-1,-2,-3,-1,-1,-1,0,-1
1517203516244017,-3,0,-3,-1,-2,-4,-1,-2
1517203516256527,0,1,0,0,0,-1,0,-2
1517203516256527,0,0,-2,0,-3,-1,-1,-1
1517203516263019,-1,-1,0,-1,-2,0,-1,-1
1517203516263019,0,-1,0,-3,0,-1,-1,-1
1517203516279529,-1,0,-1,1,-1,0,0,-1
1517203516279529,-1,0,-2,-2,-1,-1,-2,0
1517203516281039,-1,-1,0,1,-1,1,-1,-1
1517203516281039,-1,-2,0,0,0,0,-1,-2
1517203516302547,-2,-2,-3,0,-2,-1,2,0
1517203516302547,-1,-1,-1,-2,-1,0,0,-1
1517203516303546,-2,0,-1,-1,-3,-3,-2,0
1517203516303546,-1,-2,1,-2,-2,0,-1,1
1517203516316570,-2,0,1,-1,-3,-2,-2,-2
1517203516316570,-1,-1,-1,0,-1,-1,1,0
1517203516330565,0,-1,-2,0,0,0,-1,0
1517203516330565,1,-2,0,-2,-1,-2,-1,-1
1517203516339573,-3,-2,-2,-1,-1,0,-3,0
1517203516339573,-2,-2,0,-1,-1,-1,-2,-3
1517203516341073,0,0,-1,-2,0,-1,0,-2
1517203516341073,-2,0,-2,1,-1,-2,-1,-1
1517203516362091,0,-1,-2,-2,0,0,-1,-2
1517203516362091,-3,-2,-2,-1,-1,-1,-2,-1
1517203516363593,0,-3,1,0,0,-1,0,-1
1517203516363593,-1,-2,-1,-2,-1,-1,-2,0
1517203516375597,-1,0,-2,-1,-1,0,-2,1
1517203516375597,-2,1,0,-1,-1,-1,1,-2
1517203516384608,0,-1,-2,-2,0,-1,-2,-1
1517203516384608,-1,-1,-2,-2,-3,0,0,-1
1517203516399623,-4,0,0,0,-1,-3,-1,-2
1517203516399623,-1,-1,0,-4,0,-1,-2,0
1517203516401116,0,0,-2,1,-2,-2,-1,-3
1517203516401116,-2,-1,0,0,-1,0,0,-2
1517203516422130,0,-2,0,-1,-1,-1,0,-1
1517203516422130,-1,-2,-1,-1,0,-1,0,2
1517203516423641,-1,-3,-2,-3,-1,-1,0,0
1517203516423641,-2,-3,-1,-2,0,-1,0,-2
1517203516436140,-1,-1,-2,1,-2,1,-1,-1
1517203516436140,-2,0,-1,0,-2,-1,-1,-1
1517203516444647,1,-1,-1,-2,-1,-3,-3,0
1517203516444647,-1,0,-2,-2,-2,-2,-2,-2
1517203516459656,-1,-1,0,-2,0,-2,-1,-1
1517203516459656,-1,-1,-1,-3,-1,-3,-1,-1
1517203516461157,1,0,1,-1,-3,-2,0,-2
1517203516461157,-1,-2,0,-1,0,0,0,0
1517203516482700,0,0,0,-3,-2,-1,-2,-1
1517203516482700,-1,-1,-1,0,-1,-1,-1,1
1517203516488679,-2,0,-1,0,0,-1,-2,-2
1517203516488679,-1,0,-1,-1,-1,-2,-1,-2
1517203516495682,-1,-2,-1,-1,-1,-1,0,-1
1517203516495682,-1,-1,-1,-1,-2,0,-2,-2
1517203516504689,-2,-3,-1,-2,-1,0,-3,1
1517203516504689,-2,0,-2,0,-1,-1,-1,0
1517203516520200,0,0,-2,0,-1,-1,-1,-2
1517203516520200,0,0,-1,-1,-1,-1,-1,0
1517203516521200,-1,-1,-1,0,0,1,1,-1
1517203516521200,-1,-2,1,0,0,-1,-3,-1
1517203516542215,-1,0,-1,0,0,0,-1,-2
1517203516542215,0,-1,-1,0,-1,-2,-2,-1
1517203516543716,-1,-1,-1,0,0,1,-2,-1
1517203516543716,-2,-2,-1,0,0,-2,0,0
1517203516564730,1,-3,0,-2,1,-2,-1,-1
1517203516564730,-2,0,-1,0,-2,-2,1,-2
1517203516566232,-2,-1,-1,-1,-1,-1,0,-2
1517203516566232,0,-1,0,0,0,-2,-2,-1
1517203516579741,-1,-1,0,-1,-1,0,-3,-1
1517203516579741,0,-2,-1,-1,0,2,-3,0
1517203516581244,-2,0,-2,-2,-2,-3,1,-2
1517203516581244,0,-1,0,-2,-1,0,-1,-1
1517203516601757,-3,-2,0,-1,-1,-2,0,0
1517203516601757,-1,0,-1,-1,-1,-1,-1,-1
1517203516602259,-1,-1,0,0,-1,0,-1,0
1517203516602259,0,0,0,0,-1,0,1,-2
1517203516624276,-1,0,-3,0,-2,0,0,-1
1517203516624276,-3,-2,-1,0,1,-2,-2,-3
1517203516624776,-1,-1,-2,-2,0,0,-2,0
1517203516624776,-2,1,-2,-1,-1,0,-3,-2
1517203516639286,-2,-2,-1,-1,-1,-1,0,-1
1517203516639286,-1,0,0,-2,-3,-1,0,0
1517203516639786,0,-1,0,1,-2,-2,-2,-1
1517203516639786,1,-2,-3,0,-2,-2,0,0
1517203516661800,-2,-1,-2,-2,-1,-1,0,-2
1517203516661800,-2,-1,-1,-2,1,0,-1,-2
1517203516662299,0,-1,-1,-1,-1,-2,-2,0
1517203516662299,-1,-1,0,-1,-1,0,0,-1
1517203516683824,0,-1,-2,0,-1,-2,-2,-2
1517203516683824,0,-3,-2,0,0,-1,-1,0
1517203516684816,-2,-1,-2,-2,0,0,-1,-3
1517203516684816,-2,-2,-3,-1,0,0,-2,-1
1517203516699326,0,0,-1,-2,-2,-1,0,-2
1517203516699326,0,0,0,-2,1,-2,-1,0
1517203516699826,-1,-2,0,-1,-1,0,0,-1
1517203516699826,-1,-1,-1,0,-2,-2,-1,-1
1517203516721342,-2,-2,-1,-1,0,-1,-1,0
1517203516721342,0,0,-1,-2,-2,-2,0,-1
1517203516722352,-1,-2,0,-2,1,-1,-1,0
1517203516722352,-1,0,-2,-1,1,-1,-1,-2
1517203516743859,-2,0,-1,-1,0,-2,-1,-1
1517203516743859,-1,-1,-1,-1,-3,-4,0,-2
1517203516744858,-1,0,0,1,0,0,-1,0
1517203516744858,-1,-2,-2,-3,-3,-1,-1,0
1517203516758880,1,1,-1,-1,0,0,-1,0
1517203516758880,0,-1,-3,0,-1,0,0,-1
1517203516759881,0,0,-2,-1,-1,-2,0,-1
1517203516759881,-1,0,-1,-1,0,-1,-1,-2
1517203516781413,-2,-2,-1,-2,-2,-1,-1,-1
1517203516781413,-1,-2,-1,-1,-1,0,0,-1
1517203516782398,-1,0,0,1,0,-1,0,0
1517203516782398,0,-2,-1,-1,0,-1,-1,-1
1517203516804423,-1,-1,0,-1,-1,-1,-1,0
1517203516804423,-1,0,-1,-1,-1,-1,-1,0
1517203516805404,0,-2,-2,0,-2,0,-1,-2
1517203516805404,-2,-1,-2,-1,-2,-1,-2,-1
1517203516818913,0,-3,-1,0,-3,0,0,1
1517203516818913,-2,-1,0,0,0,0,-3,-2
1517203516819915,-1,-1,-2,-1,-2,-2,-2,-1
1517203516819915,0,-1,0,-1,-2,-1,-1,-3
1517203516841426,-2,0,-1,0,-1,0,0,-2
1517203516841426,-1,0,0,-4,-3,0,-1,-2
1517203516842427,0,-1,0,-2,-2,-4,-1,-2
1517203516842427,-1,-1,-1,1,-1,-2,-1,-1
1517203516863942,-2,-1,-2,-1,-1,0,0,-1
1517203516863942,-1,-2,-2,-1,1,-2,-1,-1
1517203516864968,-2,-2,0,-1,-1,-1,-2,0
1517203516864968,-1,-1,-2,-2,-1,0,-2,0
1517203516878952,-1,1,0,0,0,-1,-1,-1
1517203516878952,-2,-2,-3,1,-2,0,0,0
1517203516879953,0,-1,-2,0,-1,1,-2,-2
1517203516879953,-2,-1,-1,-2,-2,0,1,0
1517203516901469,-1,-1,-1,-1,-1,0,-2,-2
1517203516901469,1,-1,-1,-1,0,-1,-1,-2
1517203516902470,-1,-1,-2,0,-2,-2,0,0
1517203516902470,1,-2,-2,1,-3,-2,-1,-1
1517203516923997,0,0,-1,0,-2,-2,-2,-1
1517203516923997,0,-1,-1,-2,1,-1,-1,0
1517203516924985,-2,-1,-1,-2,0,-1,-1,-1
1517203516924985,-2,0,-1,-2,-1,-2,-1,0
1517203516939007,0,0,-1,-1,-2,-1,-1,-1
1517203516939007,-1,-2,-1,1,0,-1,-1,-1
1517203516939996,-1,-2,0,-3,-1,-1,-2,0
1517203516939996,-3,1,0,-1,-1,0,-2,-1
1517203516961511,1,-1,-2,-1,-1,-3,-2,-3
1517203516961511,-1,-2,-2,-1,-2,-1,-2,-2
1517203516962012,-1,-1,0,0,-1,-2,-2,-1
1517203516962012,0,0,-1,2,-2,0,-1,0
1517203516984039,-2,-1,0,-1,-1,0,0,0
1517203516984039,-1,-2,0,-1,-1,0,0,-1
1517203516984539,0,-1,-1,-3,-1,2,-1,-2
1517203516984539,0,1,0,-1,-1,0,1,-1
1517203516999038,0,-1,-1,-2,-1,-2,1,-1
1517203516999038,-2,-1,-1,-1,-1,0,0,-1
1517203516999539,0,-1,0,-1,-1,-1,0,0
1517203516999539,1,-1,-2,-2,1,-3,-1,1
1517203517021557,0,-2,-2,-2,-1,-1,0,-1
1517203517021557,0,0,0,-4,-1,-1,-2,-1
1517203517022058,0,-1,-2,-1,0,-2,0,-1
1517203517022058,-2,-1,0,0,-2,-1,-2,-1
1517203517052576,-2,0,0,0,-1,-1,-3,-1
1517203517052576,-1,-1,-1,-2,-2,-1,-2,0
1517203517053076,-2,0,-2,-1,-2,0,-1,-1
1517203517053076,0,-2,0,-2,-1,0,1,-2
1517203517059081,-2,-1,-2,-1,0,-1,-1,-2
1517203517059081,0,0,-1,-1,-2,-1,1,0
1517203517059582,-1,-1,-1,-3,-2,-1,-1,-1
1517203517059582,-1,-1,0,0,-2,-1,0,0
1517203517089813,-1,-2,-1,1,-1,0,-2,-1
1517203517089813,0,0,-1,-2,-4,-1,-1,-2
1517203517090314,0,0,0,-1,-2,-2,-1,0
1517203517090314,-1,-2,0,-2,0,-2,-2,-2
1517203517104322,-1,-1,-2,0,0,-1,-2,-1
1517203517104322,-2,-1,-2,-1,0,-1,-2,-1
1517203517104824,-3,0,0,-2,-1,-1,-1,-2
1517203517104824,-2,-1,-2,0,0,0,-3,-2
1517203517119412,2,-1,-2,-2,-1,-2,-2,-1
1517203517119412,-2,-1,-1,-1,0,-2,-1,-1
1517203517119912,0,0,-2,1,1,-1,-1,-3
1517203517119912,0,-2,-2,-1,0,-2,-1,1
1517203517141426,0,-1,0,0,0,-2,-1,0
1517203517141426,1,0,-2,2,0,0,0,-3
1517203517142427,1,-1,-3,-1,-2,1,1,-1
1517203517142427,0,-1,-2,-2,-2,0,-1,-1
1517203517163955,0,-2,-2,-2,-1,1,-1,1
1517203517163955,-1,-1,1,-2,-2,-2,0,-2
1517203517164943,-2,-1,-3,-1,0,-2,0,-2
1517203517164943,-2,1,-1,0,-2,0,-1,-3
1517203517178953,-2,-1,-1,-3,-3,-2,0,-2
1517203517178953,-3,-2,-1,0,0,0,0,0
1517203517179954,-1,-1,-2,-1,-1,-1,-2,0
1517203517179954,-1,-1,0,-1,-2,-2,-1,-2
1517203517201469,-1,-2,0,-2,-1,-2,-1,0
1517203517201469,-1,-2,-1,-3,-3,-1,-2,0
1517203517202471,0,-1,-2,-2,-2,-1,-1,-1
1517203517202471,-1,0,-1,-1,-1,-2,0,-2
1517203517224485,-1,0,0,0,-1,0,-1,-2
1517203517224485,0,-2,-2,-2,-2,-3,-1,0
1517203517225486,-1,-2,-1,-1,-1,1,-1,-1
1517203517225486,0,-1,-2,0,-1,0,-2,-2
1517203517238996,-1,0,-1,-1,-1,0,0,-3
1517203517238996,-1,-2,-1,0,0,-3,-1,-1
1517203517239996,-2,0,-1,-1,-3,-3,0,-2
1517203517239996,0,-1,0,-3,-1,-2,0,-1
1517203517261524,0,-1,-1,0,0,-1,1,-1
1517203517261524,0,-1,-2,0,0,-1,-3,0
1517203517262029,-1,-1,-2,0,-1,-2,-1,1
1517203517262029,-1,-2,-1,-1,-1,-1,0,-1
1517203517284541,-3,-1,-2,-1,-2,0,-3,-1
1517203517284541,-2,0,-2,0,0,-1,-1,-1
1517203517285531,-2,0,-1,-1,1,-4,-2,-1
1517203517285531,-1,-2,-3,-1,-1,-1,-1,-1
1517203517299060,-1,-1,-1,-1,1,-2,-1,-1
1517203517299060,-1,-1,0,0,-2,-1,-2,-1
1517203517299538,0,-2,1,-1,-2,2,-2,-3
1517203517299538,0,0,-2,1,-2,-2,-2,0
1517203517321555,-2,-2,0,0,-2,-1,0,0
1517203517321555,-1,0,0,-1,-1,-1,1,-1
1517203517322554,0,-1,-2,-2,0,-2,0,-1
1517203517322554,-1,-1,-1,-1,0,-1,0,0
1517203517344570,0,-1,1,-2,-2,-1,0,-1
1517203517344570,-1,-1,0,-1,-1,0,-1,-1
1517203517345583,-1,-1,1,0,-1,-2,0,-1
1517203517345583,0,-2,-2,-1,0,1,-1,-2
1517203517367086,-1,0,-2,-1,0,0,-3,0
1517203517367086,-1,-2,-2,1,-1,-1,-2,0
1517203517368090,-1,-2,-2,0,-1,-1,0,-1
1517203517368090,-2,0,-1,-2,-1,-1,-2,-1
1517203517381624,-1,-3,-1,-2,0,-2,1,0
1517203517381624,0,-1,-2,-2,-2,-2,-3,-1
1517203517382097,-2,-2,-2,-1,-2,-2,1,-1
1517203517382097,-1,0,1,-2,-1,-1,0,1
1517203517405114,-1,0,-2,-1,-2,-1,0,0
1517203517405114,-1,0,-1,-1,-1,0,-1,0
1517203517405616,0,-2,0,0,-1,-1,-2,-1
1517203517405616,-2,-2,0,0,-1,0,-2,-1
1517203517419123,-1,-2,-1,-2,0,-1,-1,0
1517203517419123,-3,-3,-1,-1,-1,-1,0,-1
1517203517419625,-3,0,-2,-1,-2,-1,-1,-2
1517203517419625,-1,-2,-2,-1,-1,0,0,-1
1517203517441638,0,0,-2,-1,0,-1,-1,-2
1517203517441638,0,-2,-2,0,-1,-1,0,-1
1517203517442139,-1,-1,-2,-1,-2,-2,-2,-2
1517203517442139,0,-1,-1,0,-2,-2,0,0
1517203517464668,0,-2,-3,-1,0,0,0,-1
1517203517464668,-1,0,1,-1,1,-1,1,-2
1517203517465168,-1,0,1,-1,0,0,-1,0
1517203517465168,-1,-1,-1,-2,-2,-1,-2,-1
1517203517478179,-1,-1,0,0,0,-1,-2,-1
1517203517478179,-1,-1,0,-1,-2,0,-1,-2
1517203517486673,0,-3,0,0,0,-1,0,0
1517203517486673,0,1,-2,0,-2,-1,1,-2
1517203517501684,0,0,0,-2,-3,-1,0,-2
1517203517501684,-1,-1,-1,-3,-1,-1,-1,2
1517203517502182,-1,-2,0,-1,-1,1,-2,-1
1517203517502182,-1,-2,0,-3,0,-1,-1,0
1517203517524710,-2,-2,-2,-1,0,-2,-1,0
1517203517524710,-1,0,-3,-2,-1,-1,-1,-2
1517203517525698,-2,-2,-2,-2,-1,0,-1,-2
1517203517525698,-1,1,-1,-1,-1,2,0,-1
1517203517538207,-2,-1,-1,-2,-2,-2,-3,-2
1517203517538207,-2,0,1,-1,-2,-1,-2,0
1517203517546729,-1,-1,-1,-2,-2,0,0,-2
1517203517546729,-1,-1,-2,-1,-1,-3,-2,1
1517203517561223,-2,-1,0,0,-1,1,-1,1
1517203517561223,-1,1,-1,-1,-2,-1,1,0
1517203517562233,0,-1,-1,0,-1,0,0,-2
1517203517562233,-2,-1,-1,-1,-1,-1,-1,-3
1517203517584740,-2,-2,-1,0,-2,0,-1,0
1517203517584740,0,-2,-3,0,0,-4,-3,-2
1517203517585243,0,0,-1,-1,-1,-1,-1,-1
1517203517585243,0,-2,0,-2,-2,-1,-2,-1
1517203517598264,-2,0,-1,0,1,0,-1,-2
1517203517598264,-2,-1,-2,-2,-1,-1,-1,-1
1517203517606756,0,-1,-1,-1,-1,-2,0,0
1517203517606756,0,-2,-1,0,-1,0,-2,-1
1517203517621769,-1,0,-1,-1,-1,-1,-1,-1
1517203517621769,-2,-2,-1,0,0,0,0,-1
1517203517622268,-2,-1,-3,0,-1,-1,0,-2
1517203517622268,0,0,-2,-1,-1,-1,-2,-2
1517203517644792,0,-2,-1,-2,-1,-1,0,-1
1517203517644792,-1,-2,0,-1,-1,-1,-1,-2
1517203517645282,0,-2,-2,-1,-1,-1,-1,0
1517203517645282,-2,0,-3,0,-1,-2,1,1
1517203517658292,-1,-2,-2,-1,-2,-2,0,0
1517203517658292,-1,0,0,-1,0,0,-1,-1
1517203517666318,0,0,-2,-2,-2,0,-2,-1
1517203517666318,-1,-1,0,-2,0,-2,-1,-2
1517203517681321,0,0,-1,-2,-1,-4,-2,1
1517203517681321,0,-1,-1,-2,0,0,0,-1
1517203517682321,-1,-1,-1,0,0,0,-1,-1
1517203517682321,1,-2,-1,0,-2,0,-2,-1
1517203517705826,-1,1,-1,-1,-2,0,0,-2
1517203517705826,-1,-3,-1,-2,0,-1,-2,-1
1517203517705826,-2,0,-2,1,-1,-2,0,0
1517203517705826,-2,-1,-1,-1,0,0,-1,-2
1517203517727354,-2,0,-1,-1,-1,-1,0,-2
1517203517727354,-1,-2,-2,-4,-1,-2,-2,0
1517203517728111,0,0,-1,-2,-1,-1,0,0
1517203517728111,0,-2,1,1,-1,-1,0,1
1517203517749623,0,-2,0,-2,-1,1,-1,-1
1517203517749623,-2,-1,0,0,-2,-1,-2,1
1517203517750614,-2,-2,0,-2,-1,-2,0,-1
1517203517750614,-2,-1,-1,-2,-1,0,-1,0
1517203517772130,-1,0,-2,1,1,0,-2,0
1517203517772130,-1,-1,-2,-1,-1,-1,0,0
1517203517773131,-1,0,0,-2,0,0,-1,-1
1517203517773131,-1,-2,-3,0,-1,-3,-1,-2
1517203517787142,-2,-1,0,-1,0,-1,0,-1
1517203517787142,-1,-1,-3,-1,0,-2,-1,-2
1517203517788142,-1,-1,-2,-1,-1,0,-2,-1
1517203517788142,-2,0,0,-1,-1,-1,-1,1
1517203517801652,0,-3,-1,-2,-1,-1,0,0
1517203517801652,-1,-1,-1,1,0,-2,0,-1
1517203517802152,1,1,0,-2,-1,1,-1,-2
1517203517802152,-1,-2,-2,-2,0,-1,-1,-1
1517203517824667,-2,-1,0,0,-2,-2,0,-3
1517203517824667,-1,2,-1,-3,-1,0,-1,-2
1517203517825168,1,-2,1,-1,-1,-1,0,-1
1517203517825168,0,1,-1,-2,-1,-1,0,0
1517203517847217,-1,-1,-1,-1,-1,-2,-1,-1
1517203517847217,-2,-1,-2,0,-1,1,-1,-1
1517203517848684,-2,-2,-1,-1,-2,-1,-1,0
1517203517848684,1,-2,-1,0,0,-1,0,0
1517203517861705,1,-1,-1,0,1,0,0,-2
1517203517861705,0,-1,-1,-1,-2,0,-2,-1
1517203517862193,-1,-2,-2,-1,-2,-3,-2,0
1517203517862193,-1,-1,0,0,-1,-2,-1,-2
1517203517884710,-2,-2,0,-1,-2,0,-2,-1
1517203517884710,0,-1,0,-2,-1,-3,-1,-1
1517203517885712,0,-1,-1,-1,-1,0,-1,1
1517203517885712,1,-1,-2,-1,-1,0,0,-1
1517203517907225,-2,0,-2,-1,-1,0,-1,-1
1517203517907225,-2,-1,-2,-1,-2,-2,-1,-1
1517203517907729,0,-2,-1,-2,-1,0,-2,0
1517203517907729,-3,-1,0,-2,-1,1,-1,-2
1517203517921747,0,-1,0,0,-2,-1,-1,-1
1517203517921747,-1,-1,-1,-1,0,0,-2,-1
1517203517922237,-1,0,-2,0,1,-1,-1,-1
1517203517922237,-2,0,-1,-2,-2,-1,-1,-1
1517203517944764,-1,0,-1,-1,0,-2,-1,-2
1517203517944764,0,-1,0,-1,-1,-1,1,-2
1517203517945252,-1,-1,-1,0,1,-3,-1,0
1517203517945252,-2,-2,-1,-2,0,0,-2,0
1517203517967295,-1,-2,-2,-2,-2,1,0,0
1517203517967295,-2,-1,0,-2,-1,-1,-1,-2
1517203517968769,-1,-2,0,0,-1,-2,0,-4
1517203517968769,-1,-1,-2,0,-1,0,-1,-1
1517203517981300,0,-1,-1,-1,-1,0,-2,-3
1517203517981300,-1,-1,1,-1,-3,-1,0,0
1517203517982288,-1,-1,0,-2,-3,-2,-1,0
1517203517982288,0,-2,-1,-2,-2,-1,0,-1
1517203518004796,1,-2,0,0,-1,0,0,0
1517203518004796,-1,-1,-1,0,0,-1,-2,0
1517203518005295,-1,1,-2,1,-1,-2,0,-1
1517203518005295,0,-1,-1,-1,0,-2,0,0
1517203518027310,-3,0,-1,0,-1,-1,0,-1
1517203518027310,0,-2,-1,-1,0,-2,1,-1
1517203518027817,-2,-2,0,-2,-1,0,0,-1
1517203518027817,-1,-1,0,-1,0,-2,-3,-1
1517203518041332,0,-1,-2,0,-2,-2,-2,-1
1517203518041332,0,-1,-1,-1,-2,-1,-1,-2
1517203518042333,0,-1,-1,-2,-3,0,0,-2
1517203518042333,-1,-2,-1,-1,0,-2,-2,-3
1517203518064849,-1,-1,-2,-2,1,-2,-1,-2
1517203518064849,-2,-2,-2,-1,-1,0,-1,1
1517203518065337,-1,1,-2,-2,0,-1,-1,-1
1517203518065337,-2,1,-1,-1,-1,-2,-1,0
1517203518087354,0,0,1,-2,0,0,0,-1
1517203518087354,-2,0,-1,0,0,-1,-2,-2
1517203518087856,-2,-2,1,-1,-1,-1,0,-2
1517203518087856,-1,-1,0,-1,-2,-1,0,-2
1517203518101363,-1,-2,-1,0,-1,-2,-1,1
1517203518101363,-1,-2,0,-1,0,-1,0,0
1517203518102366,-2,0,-1,-1,-1,-2,-3,-2
1517203518102366,-1,-1,-1,-1,0,-2,0,-1
1517203518124879,0,-2,-2,-2,0,0,0,-1
1517203518124879,-2,0,-1,-2,-2,-1,-1,-2
1517203518125380,-1,0,-1,-2,-2,1,-1,-1
1517203518125380,0,-1,-1,-1,-2,-1,0,-2
1517203518147411,-2,0,-1,-1,-2,-1,-1,0
1517203518147411,1,-2,-2,-1,-1,-1,1,-2
1517203518148896,-1,-1,0,-1,-1,2,-1,-1
1517203518148896,-1,-2,-2,0,0,-1,-1,1
1517203518161423,0,-1,-1,-3,-1,-1,1,-1
1517203518161423,-1,1,0,-1,-2,-2,0,-1
1517203518161906,-2,-2,-1,-1,-1,-4,1,-1
1517203518161906,-1,-1,-1,-1,-2,0,0,0
1517203518184421,-1,-1,-1,-1,-1,-2,-2,-2
1517203518184421,-1,-1,-1,-1,2,0,0,0
1517203518185424,-1,-2,-1,0,0,0,-1,-1
1517203518185424,0,-1,-1,-1,0,-3,-2,-2
1517203518206950,0,-1,-1,-1,-1,-1,-1,-3
1517203518206950,-1,-1,-1,-1,-1,1,-2,1
1517203518207938,-2,-1,0,0,-1,-1,-1,-2
1517203518207938,-2,-2,0,-1,-1,-3,0,-1
1517203518221448,-2,-2,-2,0,-1,-4,0,1
1517203518221448,0,-1,-2,-2,-2,-2,-1,-2
1517203518222449,-1,-1,-1,0,0,-1,-1,0
1517203518222449,-2,0,-2,-1,-1,0,0,-1
1517203518244464,0,-1,0,-1,-1,0,-1,0
1517203518244464,-1,-1,-1,0,-2,-1,-2,-1
1517203518245465,-2,-1,-1,0,-1,-2,-1,-2
1517203518245465,-1,-1,1,-1,0,-1,-1,0
1517203518266983,-2,-1,-1,0,-2,0,-2,-2
1517203518266983,-1,-1,-1,0,0,-1,-1,-1
1517203518267980,0,-1,-1,-1,-1,-1,-1,0
1517203518267980,-1,0,0,-1,-3,0,-1,-1
1517203518280989,-1,0,-1,-2,1,-3,1,1
1517203518280989,-1,-2,-1,-2,-1,-1,-1,-2
1517203518289008,-1,0,-2,-3,0,-2,-1,-3
1517203518289008,0,-1,-2,-2,-1,-1,-2,-1
1517203518305507,-1,-1,-1,-1,-2,-2,-1,0
1517203518305507,-2,-2,-1,-1,0,0,-1,-2
1517203518306009,0,0,0,1,1,-3,0,0
1517203518306009,-3,-2,-2,-2,-1,-1,0,-1
1517203518327032,-1,0,-1,0,-1,0,-1,-1
1517203518327032,0,-2,-1,-2,-1,0,-2,-2
1517203518328033,-2,-2,-1,-2,-2,0,-2,-1
1517203518328033,0,-2,0,0,-1,0,-1,-1
1517203518341532,-2,-1,-1,0,0,-1,1,-1
1517203518341532,0,-2,-2,0,-2,-1,-1,-1
1517203518342032,-1,-2,-1,-3,0,-1,-1,0
1517203518342032,-1,0,-2,-3,0,0,-2,0
1517203518364558,0,-1,0,-1,-1,-1,-2,-1
1517203518364558,-2,-1,-1,-1,-2,-1,0,0
