timestamp,emg1,emg2,emg3,emg4,emg5,emg6,emg7,emg8
1513227498369898,-2,0,-2,0,0,-1,-2,-1
1513227498369898,1,-2,-3,-1,1,-1,-3,-1
1513227498376403,-7,-3,0,-1,1,1,-1,-1
1513227498376403,2,0,0,0,-1,-1,1,-2
1513227498392435,-5,-4,0,-1,-2,-1,-1,-2
1513227498392435,-1,2,1,-2,-1,-2,1,0
1513227498393917,-1,-1,-2,-1,-3,-1,0,-2
1513227498393917,1,0,-2,-2,-1,-3,-1,0
1513227498406924,0,-1,-1,-2,0,-1,-1,-2
1513227498406924,-2,-3,-1,-1,-4,-1,-3,1
1513227498413929,-2,-2,1,-2,-2,-2,-3,0
1513227498413929,-1,0,-3,-2,-1,-1,-2,-2
1513227498429940,0,-1,-1,-2,-3,-1,-1,-1
1513227498429940,-3,-3,-1,1,-2,1,-2,-3
1513227498431448,2,-1,-2,-1,-2,-2,1,-1
1513227498431448,-1,0,-2,-1,0,-2,-1,-3
1513227498452466,1,1,-1,-4,1,-2,-1,-1
1513227498452466,0,0,-1,-4,-2,-1,-3,-1
1513227498453958,-2,-1,-2,-2,-2,0,-1,-1
1513227498453958,0,1,-1,0,-2,0,-3,-1
1513227498466970,1,-2,-2,-1,-2,0,-2,-1
1513227498466970,1,-1,-1,0,0,0,-1,-2
1513227498473976,1,-1,-2,-1,-2,0,-1,-1
1513227498473976,-1,0,-1,-1,-1,0,-2,0
1513227498489984,-3,2,-1,0,0,-2,0,-1
1513227498489984,1,1,-3,-2,0,-1,-1,0
1513227498491484,-1,-3,-1,-2,1,0,-1,-2
1513227498491484,-1,-1,0,-3,0,-2,-1,0
1513227498512509,-1,-2,-1,-1,-1,-1,0,-2
1513227498512509,-1,-3,0,-2,-1,-2,0,-2
1513227498514001,1,-1,0,-1,0,-1,0,0
1513227498514001,-5,-1,0,-1,-1,0,0,-1
1513227498527019,0,-1,-2,-2,-1,-1,-1,-2
1513227498527019,1,0,-4,-1,-4,0,-1,-1
1513227498533523,0,0,1,-1,0,-1,-2,-2
1513227498533523,1,0,-3,-1,-2,-1,-1,0
1513227498550028,0,-1,-1,2,-2,-1,-2,0
1513227498550028,-2,-1,-1,-1,-2,-1,0,-2
1513227498551527,-2,-1,0,-2,-1,-1,-3,-1
1513227498551527,-2,-3,-2,0,-1,0,-1,-1
1513227498572545,-2,-3,-2,0,1,-1,-2,0
1513227498572545,-2,1,-1,0,-1,-2,-2,0
1513227498574048,2,1,-2,0,-2,-1,-1,1
1513227498574048,1,-2,1,-1,-2,-1,-1,-1
1513227498587053,1,-2,-1,-2,-2,-1,0,-1
1513227498587053,0,0,-1,-2,0,-1,-1,1
1513227498593557,-1,-2,-1,-1,-1,-1,-1,-1
1513227498593557,-1,0,-2,-1,-2,-2,-2,-1
1513227498617588,-2,0,-1,0,-1,0,0,0
1513227498617588,1,1,-4,0,-2,-2,-1,-1
1513227498619074,-4,1,-1,-1,-1,-2,-1,-3
1513227498619074,-1,1,-1,-1,-2,-1,-2,-1
1513227498632629,0,-1,-1,-3,-2,-1,-2,-1
1513227498632629,-4,-2,-1,1,0,-1,-1,-1
1513227498634130,0,0,-1,0,0,0,-1,0
1513227498634130,1,0,1,0,-1,0,-1,-1
1513227498654646,-1,-2,-1,-2,1,-1,0,-2
1513227498654646,-6,-3,0,0,-1,-3,0,-1
1513227498670644,-2,-2,-1,-1,0,-3,0,0
1513227498670644,0,-1,-1,-3,-1,-2,0,-1
1513227498671642,-1,2,-1,-2,-1,-1,-2,-1
1513227498671642,-1,-1,-1,-1,-2,-2,-2,0
1513227498673143,-1,-3,-3,0,-1,-1,-2,-1
1513227498673143,-1,-2,-2,-1,0,0,-1,-2
1513227498692657,-2,-2,-1,-1,0,-3,-2,-1
1513227498692657,0,-2,0,0,0,-2,-3,-1
1513227498694158,1,-2,-4,-1,0,-1,0,-1
1513227498694158,-2,-1,0,-1,0,0,0,-1
1513227498706209,-1,-1,0,-2,-2,0,-1,-1
1513227498706209,1,0,0,-1,-1,0,-1,-1
1513227498722722,0,-4,-5,-4,-2,-1,-1,-2
1513227498722722,-1,-1,-1,-2,-1,-2,-1,0
1513227498729726,0,0,-3,-2,-2,0,-3,0
1513227498729726,-5,-2,-1,-1,0,-1,-1,-1
1513227498731728,-2,-2,0,0,-1,-2,0,-1
1513227498731728,-3,-4,-1,0,-1,0,-1,0
1513227498752240,-3,-1,0,-2,-1,-1,0,-1
1513227498752240,1,-2,-2,-2,-2,-1,0,0
1513227498758746,-2,-1,1,-1,-1,0,-1,-1
1513227498758746,1,-1,-1,-2,-2,-2,-1,-2
1513227498774760,2,1,-1,0,-1,0,-1,-2
1513227498774760,1,-1,-1,1,-1,1,-2,0
1513227498776758,-3,0,2,1,0,-2,0,-1
1513227498776758,0,-1,-2,-1,-1,0,0,1
1513227498789767,-1,-1,1,0,-1,0,-1,-3
1513227498789767,-2,0,-1,-2,-3,2,-1,-2
1513227498791775,-1,-1,-1,0,-1,-1,0,-1
1513227498791775,0,1,-2,-2,-3,1,-2,-1
1513227498812283,-1,-2,0,1,1,-2,0,-2
1513227498812283,0,0,0,-1,-2,1,0,0
1513227498814300,-2,-2,0,1,-2,-1,-2,-1
1513227498814300,0,1,-5,-5,-1,-2,-1,0
1513227498826296,-1,-2,2,-1,0,0,0,0
1513227498826296,-1,2,-2,0,-1,-1,-2,-1
1513227498835300,-1,0,0,-3,-1,1,-1,0
1513227498835300,0,0,1,1,0,-1,-2,-2
1513227498849835,-1,-3,-2,0,-2,0,-1,-1
1513227498849835,1,-2,0,0,-1,-2,-1,-3
1513227498851812,-2,0,-1,0,-1,-1,-1,0
1513227498851812,-4,0,-1,2,-1,-1,-1,-1
1513227498879831,-1,0,-2,-2,-1,-2,-1,0
1513227498879831,-2,-1,-1,0,-1,-1,-1,-1
1513227498881832,1,-2,-3,-2,-4,-3,-1,-3
1513227498881832,-2,-3,1,0,-1,0,-1,-4
1513227498886336,0,-1,-3,-1,-2,-1,0,-1
1513227498886336,0,-3,1,-2,-2,-2,1,-1
1513227498895354,0,-1,-2,-2,-2,-1,-1,-2
1513227498895354,-4,0,0,0,-3,-1,0,0
1513227498909852,-1,0,-2,-2,-2,-1,-2,0
1513227498909852,0,-3,-5,-3,0,-2,-2,-1
1513227498911353,0,-3,0,-1,-2,-2,0,0
1513227498911353,-2,-1,-2,0,0,-1,0,-2
1513227498932868,-1,-1,-1,-2,-2,-2,-1,0
1513227498932868,0,1,-3,-4,-2,0,-3,-1
1513227498934370,-2,-1,-1,-1,-1,-1,-1,-1
1513227498934370,0,-3,-1,-1,-1,-2,1,-1
1513227498946377,-3,4,0,1,-2,-1,0,-3
1513227498946377,0,-3,-4,0,-2,-2,-3,2
1513227498955384,-2,2,1,0,0,2,-3,0
1513227498955384,0,4,-1,-1,-2,-2,0,0
1513227498969897,-5,-18,2,-1,0,-1,-2,0
1513227498969897,-1,-2,-2,-1,0,-1,-1,-3
1513227498971398,0,-2,2,0,-1,0,-3,-1
1513227498971398,-1,0,-4,-3,-1,-3,-2,-1
1513227498992426,-1,0,0,-1,0,-1,0,0
1513227498992426,-3,-1,1,-1,-2,-1,1,0
1513227498993914,0,-6,-1,-2,-1,0,-1,-1
1513227498993914,1,-4,-4,-2,-2,-3,-2,-4
1513227499006424,4,2,-2,-1,-3,-1,-2,-1
1513227499006424,-5,0,2,0,-1,0,0,-1
1513227499022934,-1,4,-4,-2,-3,0,0,0
1513227499022934,-1,-2,0,-1,0,0,-2,0
1513227499037467,0,1,-1,-1,-1,-1,0,-1
1513227499037467,-7,-4,0,0,1,0,0,0
1513227499039443,-1,0,0,-2,0,-1,-1,0
1513227499039443,-4,-4,-2,0,0,-1,-1,-2
1513227499052457,-1,-3,-3,-2,-1,-2,0,-2
1513227499052457,2,2,2,-1,-2,-2,-1,0
1513227499053955,-3,-3,-1,0,-1,-2,-1,-3
1513227499053955,-3,-1,1,0,0,1,-1,-1
1513227499065966,0,2,-2,0,-1,-1,-1,-1
1513227499065966,2,0,-2,-1,-1,-1,-3,-2
1513227499074970,0,0,-1,-2,-1,-2,-2,1
1513227499074970,-1,-1,1,1,-2,-1,-1,-1
1513227499089996,0,-1,-2,0,-1,0,-1,-1
1513227499089996,1,-2,-1,-1,-1,0,-1,-3
1513227499091493,-2,-3,-4,-1,-1,1,-1,-1
1513227499091493,-2,1,0,-1,-2,-1,-2,0
1513227499112008,-3,-5,-5,-1,-2,-1,-2,0
1513227499112008,-1,2,1,0,0,-3,-2,-1
1513227499118512,-1,-1,-3,-2,0,-2,-1,-2
1513227499118512,-4,-3,0,-1,0,-1,-1,-1
1513227499135014,-1,2,-1,-3,-1,0,-1,0
1513227499135014,0,-3,0,0,0,2,-1,-2
1513227499136512,-1,-2,0,0,-1,-1,0,0
1513227499136512,0,-1,-1,-3,-2,-2,0,0
1513227499150025,-1,-2,0,-1,-2,-1,2,0
1513227499150025,-1,-2,-1,0,-3,-2,-1,-1
1513227499151526,1,2,1,-1,-1,-2,-2,-1
1513227499151526,2,-2,-1,-3,-1,0,0,-2
1513227499172538,-4,1,1,0,0,0,-1,-4
1513227499172538,0,-2,-3,-1,-1,-1,-1,2
1513227499174044,0,-2,-3,0,-2,0,0,0
1513227499174044,-1,-3,-2,0,-1,-2,-2,-1
1513227499195073,-1,-2,-3,0,0,-1,-2,1
1513227499195073,-2,0,0,-2,0,0,0,-3
1513227499196555,-3,-2,0,-2,-2,0,-1,-1
1513227499196555,0,0,-2,-1,0,0,-2,0
1513227499210064,2,-2,-1,-2,-2,-2,-1,-1
1513227499210064,-2,0,-1,-3,-1,-1,-2,0
1513227499211566,-2,-3,0,-1,-2,-2,-1,-1
1513227499211566,-1,0,0,-2,-2,-1,0,-1
1513227499232580,0,-1,0,-1,-1,-2,-1,-1
1513227499232580,1,1,0,-1,-2,1,0,0
1513227499234081,2,1,-4,-5,0,-2,-2,-3
1513227499234081,0,-1,-1,-1,-1,0,1,-1
1513227499255096,-2,3,0,-1,-1,-1,0,-1
1513227499255096,-1,-2,-2,-1,-1,-1,1,-2
1513227499256598,0,0,0,1,-1,-2,-1,-1
1513227499256598,-1,-3,-1,0,0,0,-2,1
1513227499269109,0,-2,-2,-3,-1,0,-1,-1
1513227499269109,-1,3,3,0,0,-1,-1,1
1513227499276111,-2,-2,-3,-1,0,-1,1,-1
1513227499276111,-1,-2,-2,-3,0,0,-2,-2
1513227499292635,-2,-2,1,-1,0,0,-2,-1
1513227499292635,-1,-3,-2,0,-2,-1,-3,-1
1513227499300130,-3,-3,-1,-1,-1,-1,-1,-2
1513227499300130,1,2,0,-1,-2,-2,-1,-1
1513227499315640,-7,-2,-1,-2,0,-2,0,0
1513227499315640,0,-2,-1,-2,-1,-1,1,-1
1513227499317140,-3,-3,0,-2,0,0,-1,-1
1513227499317140,-2,-3,-2,1,0,0,-2,0
1513227499329161,1,-4,-2,-1,-2,-2,-2,-2
1513227499329161,0,-1,0,-2,-2,-1,-1,-1
1513227499336166,-1,-3,0,0,0,-1,-1,-1
1513227499336166,-2,-3,-2,0,-1,-2,1,-2
1513227499352668,1,2,-1,-2,-1,-1,-1,0
1513227499352668,0,-1,-3,-1,-1,-2,-3,0
1513227499354166,2,1,-3,-1,-1,0,0,1
1513227499354166,0,-5,-6,-3,-1,-2,-2,-3
1513227499374692,2,-3,0,0,-1,-3,-1,-2
1513227499374692,-3,-1,-2,-1,0,0,0,-1
1513227499376682,-2,0,0,-2,-1,0,-1,-1
1513227499376682,0,-1,-1,-1,-1,0,-1,-1
1513227499397714,0,-1,0,-2,-1,-2,0,-1
1513227499397714,-1,-1,-1,-1,0,-2,0,-1
1513227499399223,-2,-1,0,1,0,-1,-1,-1
1513227499399223,-1,0,0,-1,-3,-1,-2,0
1513227499412722,-3,0,0,0,-3,0,-2,-1
1513227499412722,-3,-2,-2,0,1,1,0,-2
1513227499414221,-1,-1,-2,-2,-1,0,1,-2
1513227499414221,1,2,1,-1,-2,0,0,0
1513227499434736,-2,-1,-3,-3,0,1,0,0
1513227499434736,0,0,-1,-1,-1,0,-2,-3
1513227499436738,0,-2,-1,0,-1,-1,-2,-2
1513227499436738,-2,-1,0,1,-1,-1,1,-1
1513227499449246,-2,0,-3,-1,-2,-2,-1,0
1513227499449246,-2,-1,-2,-1,-2,-1,0,-1
1513227499456241,3,-2,-1,-1,-2,-1,-1,-1
1513227499456241,-3,-1,0,0,0,-1,-2,-1
1513227499472753,1,0,0,1,0,-1,-2,-1
1513227499472753,0,-2,-2,-2,0,-1,0,3
1513227499474264,1,1,-1,-2,0,0,-2,-2
1513227499474264,1,-4,-3,0,-2,-2,-1,0
1513227499494778,0,1,-1,0,2,0,0,0
1513227499494778,0,-3,0,-1,-1,-2,0,-2
1513227499496770,-2,1,0,-1,-1,-1,-3,-1
1513227499496770,-2,0,0,0,-1,-1,-2,0
1513227499509317,-2,-1,-1,-1,-2,0,-1,-3
1513227499509317,-1,-2,-1,0,-1,-1,0,0
1513227499515896,-4,-3,-1,-2,-1,-1,-1,0
1513227499515896,-2,1,-1,0,-1,0,-1,-1
1513227499539893,2,-1,-1,-1,0,0,0,1
1513227499539893,0,1,-1,0,-1,-1,-2,-3
1513227499541393,-1,-2,0,-1,-1,-2,0,-2
1513227499541393,-2,-2,-1,-2,-1,0,0,-3
1513227499554912,0,2,1,-3,-1,-2,-1,0
1513227499554912,0,-1,-1,0,0,-2,-1,0
1513227499556406,1,0,-3,-1,0,-1,-2,-2
1513227499556406,-2,-2,-2,-2,-1,-1,0,0
1513227499568414,0,-1,-4,2,0,-1,-1,-1
1513227499568414,-2,1,0,-2,-1,-1,-1,1
1513227499577919,-1,-1,0,0,-1,-1,0,1
1513227499577919,0,0,-1,-1,0,-1,-1,-2
1513227499592940,0,-2,-4,-3,-2,-2,-2,-2
1513227499592940,-1,0,-1,-1,-2,-1,0,-1
1513227499594440,-2,-1,-2,-2,-1,-3,0,-1
1513227499594440,-2,-1,2,0,2,-1,-1,-1
1513227499615448,-2,0,1,-2,-1,0,1,-1
1513227499615448,-1,-2,-4,-1,-2,-2,-1,-1
1513227499620952,-1,-2,0,0,-2,-1,-1,-2
1513227499620952,0,-1,-1,-1,-1,-1,0,-1
1513227499628455,-2,-2,0,1,-2,-2,-2,-2
1513227499628455,-1,-2,-2,0,-1,1,-1,-2
1513227499637462,-2,0,-2,0,-1,0,-3,-1
1513227499637462,0,1,0,-1,-2,-1,-1,0
1513227499659977,-2,-6,-3,1,-1,-1,0,-1
1513227499659977,1,-1,0,-1,-1,-2,-2,-1
1513227499661478,3,0,-4,0,-2,-1,-1,-2
1513227499661478,-2,0,-2,0,-1,-1,-1,-2
1513227499674990,-2,1,0,-3,0,-1,0,-3
1513227499674990,-3,-2,-1,-3,-2,-2,0,0
1513227499676489,-2,0,-4,-3,-1,-2,-1,-1
1513227499676489,-1,-4,-2,-1,0,-2,-1,-2
1513227499697504,1,2,-1,0,-3,-1,-1,-1
1513227499697504,1,-1,0,1,-1,-1,-2,1
1513227499699005,-1,1,0,-2,-1,0,-1,-1
1513227499699005,1,-1,-3,-3,-1,-4,-1,0
1513227499712517,-2,-3,-2,-2,1,-1,-1,0
1513227499712517,-1,-2,-1,-1,-1,0,0,-1
1513227499714015,-3,0,-1,-1,-1,0,-1,-1
1513227499714015,-2,-1,-2,-1,-2,1,-1,0
1513227499735041,-3,-1,0,-1,-2,-2,-1,0
1513227499735041,-2,-1,-1,0,-1,0,-1,-1
1513227499736533,0,-2,-1,-1,2,-1,0,-1
1513227499736533,-2,-6,-2,-2,-2,-1,0,-2
1513227499748760,-1,2,0,-1,0,-1,-2,-1
1513227499748760,0,2,-3,-2,-1,-1,-1,-2
1513227499763778,-4,-1,2,-1,1,-2,-2,-2
1513227499763778,0,0,-2,-2,-2,0,-1,-1
1513227499772778,-1,-3,1,1,-1,-1,-2,-2
1513227499772778,-1,-1,-2,0,-1,0,0,-2
1513227499774280,-2,-2,-3,-1,-2,-2,0,2
1513227499774280,0,-1,1,-1,-2,-1,2,-1
1513227499795294,1,-2,-2,-1,-2,-1,-1,-1
1513227499795294,-3,0,4,0,-1,-1,-2,0
1513227499796795,-2,-2,-2,1,-2,-2,-1,-1
1513227499796795,-2,0,-1,-1,0,2,0,-2
1513227499808803,0,-2,-2,-3,-1,-2,2,-2
1513227499808803,-1,-4,-2,-2,1,0,0,0
1513227499817809,-1,-2,0,-1,-2,0,-3,0
1513227499817809,-2,-2,-1,0,-1,-1,-1,-1
1513227499832331,-1,-1,-2,-1,0,-1,-1,0
1513227499832331,0,-1,-2,-2,-2,-2,-1,-1
1513227499834320,-2,-1,-2,-1,-1,0,1,-2
1513227499834320,1,0,-2,-1,-1,-2,0,-1
1513227499854853,-3,-1,-1,0,1,-2,-1,-1
1513227499854853,-2,-5,-2,1,-1,-2,-1,-2
1513227499856339,-2,3,1,-1,-1,0,-1,-3
1513227499856339,-1,-5,-4,-1,1,-2,-2,-3
1513227499868345,-2,0,1,-1,-2,0,-2,0
1513227499868345,-3,-1,-2,-1,-1,-2,-1,-1
1513227499892877,0,0,1,-2,-1,-1,0,-1
1513227499892877,-2,0,-2,0,-2,-2,-1,-1
1513227499893874,-1,-1,-1,-1,-1,1,-1,-1
1513227499893874,1,-1,0,-1,-2,-1,-3,-1
1513227499895374,0,0,-1,-2,-2,-1,-2,0
1513227499895374,0,1,1,-1,-1,-1,-1,-1
1513227499914880,1,-3,-2,0,-1,0,-2,-2
1513227499914880,-1,-1,0,-1,0,-1,-1,-2
1513227499916379,-2,-3,-2,0,-3,-1,-2,-1
1513227499916379,-2,0,0,-1,-2,-1,-1,1
1513227499928386,0,1,-2,-2,-2,-1,-1,-1
1513227499928386,0,0,-2,-2,1,-2,-1,-1
1513227499937893,-2,-2,-1,-1,-1,-2,-1,1
1513227499937893,-1,-2,-1,-1,-2,-1,-1,-1
1513227499952907,2,-2,-1,-2,-1,0,1,-1
1513227499952907,-1,0,-1,0,-2,0,-2,0
1513227499954406,1,-3,-2,0,-2,0,-3,-1
1513227499954406,0,0,-1,0,1,-1,-1,-1
1513227499974935,-2,1,-1,-1,0,-1,-2,-2
1513227499974935,-1,-1,0,-1,-1,-1,0,-2
1513227499976421,-2,-2,-3,-1,-2,-2,-1,-2
1513227499976421,-2,-1,0,-2,-1,-3,-2,-2
1513227499988470,1,-3,-4,-1,-2,-2,0,-1
1513227499988470,-4,-2,1,-1,0,-1,-1,-2
1513227500003463,-2,-2,0,0,0,0,0,-2
1513227500003463,-3,-2,-2,-2,0,-3,-2,0
1513227500012448,0,0,-1,-1,-2,-3,-2,-1
1513227500012448,0,0,-1,0,-2,0,1,-1
1513227500013950,0,-1,-2,-2,-1,-3,-1,0
1513227500013950,-1,-2,-1,-1,-2,-1,-1,0
1513227500034982,-4,0,1,-1,-1,-1,0,-1
1513227500034982,0,-1,-1,-1,1,0,-2,0
1513227500036467,-4,-1,-1,0,0,0,-2,-1
1513227500036467,-1,2,-1,0,0,-1,-1,-1
1513227500057492,-2,-1,-1,-1,-2,0,-1,0
1513227500057492,-1,0,-2,-4,-3,0,-3,-1
1513227500058980,3,-1,-2,-2,-2,-1,-3,-3
1513227500058980,-1,-2,-2,-1,-2,0,-1,0
1513227500071990,-1,-2,-1,1,0,0,1,-1
1513227500071990,0,-2,0,-1,-1,-4,0,0
1513227500078493,2,-2,-3,-1,-1,-2,-1,-1
1513227500078493,1,2,0,-2,-1,-2,-2,-1
1513227500095016,0,-1,0,-1,0,-1,-3,-1
1513227500095016,-1,-2,0,-1,-1,0,0,-1
1513227500096506,1,1,-2,-1,-1,0,0,-1
1513227500096506,-1,-2,-1,-1,2,-1,-2,-2
1513227500117521,-1,1,-1,-2,-2,-1,-2,1
1513227500117521,-2,0,-1,0,-2,-1,-1,-2
1513227500119022,-4,-2,0,0,0,1,-1,0
1513227500119022,-3,-1,0,-1,-2,0,-2,-3
1513227500132532,4,0,-3,-2,0,-1,-1,-1
1513227500132532,-2,-1,1,1,-1,-2,-1,0
1513227500134033,0,0,-1,-1,-2,-2,-2,1
1513227500134033,1,-1,-2,-1,-1,1,0,0
1513227500155063,-2,0,1,-1,0,0,0,-1
1513227500155063,0,-2,-2,-1,-1,-1,-1,-1
1513227500156549,-2,-4,0,-1,-2,0,0,-1
1513227500156549,2,0,0,1,-1,1,-1,0
1513227500177564,-1,-2,-1,0,-1,-1,0,-1
1513227500177564,0,-2,-2,-1,-2,0,2,-1
1513227500179076,-2,-1,0,-3,0,-1,0,-1
1513227500179076,-1,-1,-1,-2,-2,-1,-1,-1
1513227500191574,-3,-1,-2,-1,-3,-3,-1,-1
1513227500191574,1,-2,-3,-3,0,-2,-2,-1
1513227500198579,1,1,-2,-3,-1,-1,0,-1
1513227500198579,-2,-3,-2,-1,-1,-1,-2,0
1513227500215090,-3,-2,0,-1,-2,-1,-1,-2
1513227500215090,-6,-3,0,1,1,0,-1,0
1513227500216592,-1,0,-1,-2,-1,-1,-2,-1
1513227500216592,0,-2,-1,-2,-1,0,-2,-2
1513227500237641,-1,-1,1,0,-2,0,-1,-2
1513227500237641,4,0,-2,-2,-2,-1,0,0
1513227500239108,-2,-3,0,0,0,-1,0,-2
1513227500239108,-2,-3,0,0,1,-2,1,-1
1513227500252117,-4,-4,1,0,1,-1,1,-1
1513227500252117,1,0,-3,-1,-2,-1,0,-1
1513227500258650,-1,-2,-1,-2,-2,-1,-2,0
1513227500258650,0,-1,-2,-3,-2,-3,-2,0
1513227500275133,0,-1,-2,-2,0,-1,-1,-1
1513227500275133,-1,0,-1,-1,-1,-3,0,1
1513227500276635,-1,-2,0,0,-1,-2,0,-2
1513227500276635,-2,0,-2,-1,-1,0,1,0
1513227500297649,-1,0,-2,-1,-1,-1,0,-1
1513227500297649,0,0,0,0,-1,-1,-1,-2
1513227500299151,-1,-2,-1,-1,-1,-2,-1,-1
1513227500299151,-7,-4,0,1,0,-1,-1,-3
1513227500311658,-1,-2,-1,-1,1,-1,-2,-1
1513227500311658,1,1,-3,-2,0,-2,-1,0
1513227500318663,0,1,-1,-1,-2,-1,0,0
1513227500318663,-1,-1,-2,-3,-3,-2,-1,-2
1513227500335174,-2,0,0,-1,0,-1,-1,-1
1513227500335174,-2,-3,-2,-2,-2,-1,-1,-1
1513227500336687,-2,-3,-1,-2,1,-1,-2,0
1513227500336687,2,-2,-1,-2,0,-1,-1,0
1513227500357690,-1,2,0,-2,-2,-2,0,0
1513227500357690,-1,0,-1,0,-2,1,1,-1
1513227500359202,0,-2,-1,-1,0,-1,-1,-2
1513227500359202,-3,-4,1,1,-1,0,2,-2
1513227500371725,0,-1,-2,-2,-1,-2,-3,-1
1513227500371725,-1,-1,-1,-1,0,0,-2,-3
1513227500378705,0,0,-2,0,-3,-1,-2,1
1513227500378705,0,0,0,0,-1,1,0,0
1513227500394733,0,0,-2,-2,-3,0,1,0
1513227500394733,-1,-2,-2,-1,0,-2,-2,0
1513227500396735,-2,-1,-2,-1,0,-1,-1,-2
1513227500396735,-1,0,0,0,-3,-2,-1,0
1513227500417235,0,-1,-1,-2,0,-2,-1,0
1513227500417235,1,-3,-1,-1,1,0,0,-1
1513227500419250,-1,-3,-1,0,-1,-3,0,-1
1513227500419250,1,0,-1,0,1,-1,-1,-1
1513227500431755,-3,-2,-3,1,0,-1,-1,0
1513227500431755,1,2,-2,-4,-3,-2,1,-1
1513227500438747,-4,-1,-1,0,-2,-1,-1,-2
1513227500438747,-1,-1,-1,-3,-1,-2,0,-2
1513227500454759,-1,-2,-1,-2,-3,0,-1,-1
1513227500454759,-1,-1,0,-1,-1,0,-1,-1
1513227500456760,-1,0,-2,-2,-2,-1,-1,0
1513227500456760,-1,1,-2,0,-2,-1,-2,-1
1513227500477275,-1,-1,-1,-2,0,0,-2,0
1513227500477275,-2,-4,0,0,-2,0,0,-2
1513227500479276,-1,0,-3,-2,-2,-1,-2,0
1513227500479276,0,-1,-2,-1,0,-3,-1,0
1513227500491797,-1,-3,1,0,0,-3,-1,-3
1513227500491797,-3,-1,2,0,-2,0,0,1
1513227500498790,-1,-2,1,0,-1,1,0,-2
1513227500498790,1,0,-2,-2,-1,-1,-2,-1
1513227500515881,1,-1,-2,1,-1,-1,-1,0
1513227500515881,2,2,-3,-2,-1,-2,-1,0
1513227500520884,1,1,0,-1,-1,-1,0,-2
1513227500520884,-1,0,-2,0,-1,1,-2,0
1513227500537390,0,0,-1,-3,-2,-2,-1,-2
1513227500537390,-1,-2,-1,0,0,1,-3,0
1513227500538891,-1,1,-2,-1,-2,-3,-2,0
1513227500538891,-1,0,-1,0,0,-1,-1,-1
1513227500550899,0,-1,-2,0,0,-2,-1,0
1513227500550899,-2,-3,-1,0,-2,-2,1,-1
1513227500559894,-2,-2,-1,-1,-1,-2,1,-2
1513227500559894,0,-3,-2,-1,-1,-2,1,-1
1513227500574904,-1,-2,0,-2,0,0,0,1
1513227500574904,-3,0,2,0,0,-2,-2,-1
1513227500576405,-2,1,-1,-1,-1,0,-1,-1
1513227500576405,-2,-1,-1,-1,-3,-2,-1,0
1513227500597435,2,-1,0,-1,-2,-1,0,-1
1513227500597435,-1,-2,-2,0,-2,-1,-2,-3
1513227500598921,-2,-2,-2,-2,-2,-1,-2,0
1513227500598921,-3,-1,-1,-1,0,-1,0,-1
1513227500611431,-2,-1,0,-1,-2,-1,0,1
1513227500611431,-2,-3,-1,-2,-1,1,-1,-2
1513227500619965,-2,-1,-1,1,0,-1,0,-1
1513227500619965,-1,-2,-3,-2,-1,-2,-1,-1
1513227500635028,-7,-2,2,0,0,2,-1,-1
1513227500635028,0,0,0,0,-2,-3,0,0
1513227500636476,0,-1,0,-2,0,0,-1,-1
1513227500636476,0,-2,-1,-1,-2,-1,-1,-1
1513227500657491,0,0,-3,1,-2,1,-2,-2
1513227500657491,-1,0,0,-1,1,-2,0,-1
1513227500658992,-1,-1,-1,-1,-3,-4,-3,-1
1513227500658992,-2,-1,-1,1,0,0,1,-2
1513227500671003,-3,0,-2,-1,0,-1,-1,-3
1513227500671003,-2,-2,-2,-1,-2,-2,0,-1
1513227500680007,0,-1,-1,-3,-2,-1,0,-1
1513227500680007,-1,0,1,-2,-1,-1,-2,0
1513227500702525,-1,-1,-1,-1,-2,-1,-1,-2
1513227500702525,-1,-1,-1,-2,0,0,-1,-3
1513227500704039,0,-2,-1,-1,0,0,-1,-2
1513227500704039,0,0,0,-2,-2,0,-2,-2
1513227500718034,-1,-2,-2,0,-3,-1,-1,-1
1513227500718034,-1,-1,0,-2,-2,-2,-1,-1
1513227500719535,-2,-2,-2,0,0,-1,-2,-1
1513227500719535,-1,-1,0,-2,-1,-2,-1,-1
1513227500731055,0,-1,-2,-1,-1,-3,-2,0
1513227500731055,-2,1,-2,-2,-2,0,-1,-1
1513227500740050,-1,-2,-1,-2,1,0,-1,1
1513227500740050,-1,-1,-1,-1,-2,-3,-2,-1
1513227500755062,-5,-3,3,0,-1,1,0,1
1513227500755062,0,-2,-2,-1,-2,-1,-1,1
1513227500756561,-1,-2,-1,0,-3,0,0,1
1513227500756561,-3,0,1,2,-1,1,-2,-2
1513227500777575,1,0,-2,-2,-2,-2,-1,-2
1513227500777575,0,-1,1,-1,1,-1,-2,-1
1513227500779077,0,-1,0,-1,-2,-1,1,-1
1513227500779077,0,-2,-2,-1,0,0,-2,-1
1513227500791098,2,-1,-2,-2,-1,-3,0,-2
1513227500791098,-2,-2,-2,0,1,-1,-3,-2
1513227500800093,-1,-1,-3,-2,-2,-2,-2,-1
1513227500800093,-1,-3,-2,-1,-2,-3,-1,-1
1513227500815115,0,-2,-2,1,-2,-2,-3,-1
1513227500815115,0,0,-2,-2,-2,0,-1,-1
1513227500816604,-3,-1,-2,0,-2,-2,-1,-2
1513227500816604,-1,0,-2,-1,-1,-1,0,0
1513227500837618,1,-1,-2,-1,1,-1,0,-2
1513227500837618,-1,0,-2,0,-2,-1,0,-2
1513227500839119,-1,-1,-1,-1,0,0,1,1
1513227500839119,1,-3,-1,-1,-1,-1,0,0
1513227500851146,-2,0,-1,-2,-2,-2,0,-2
1513227500851146,-2,-2,0,-2,-2,0,-1,-1
1513227500860135,-3,-3,1,-3,-1,-1,-2,-2
1513227500860135,-2,-1,-2,-1,-1,-1,-1,0
1513227500875144,0,0,-2,1,-1,-2,1,-1
1513227500875144,0,-1,-2,0,-1,-2,1,-1
1513227500876646,-2,-1,-2,0,-1,0,0,-1
1513227500876646,-1,-1,-2,-1,-2,0,-2,1
1513227500897660,-2,-2,-1,-2,-1,-2,-2,0
1513227500897660,-1,-1,-3,0,-2,0,-2,-1
1513227500899162,0,-1,-3,-1,-1,-2,-1,-2
1513227500899162,-3,1,0,-1,0,-2,1,-1
1513227500910670,-1,-1,-2,-1,1,1,-2,0
1513227500910670,-2,-1,-1,0,-2,-1,-2,-2
1513227500920180,0,-1,2,0,0,-1,0,-1
1513227500920180,0,1,-1,0,-2,-1,0,-1
1513227500935198,-3,-1,-1,-1,-2,-1,-1,-2
1513227500935198,-2,-2,-1,-1,1,-1,1,-1
1513227500941203,3,2,-3,-2,0,-3,-1,-2
1513227500941203,-2,-3,0,-1,-1,0,-1,-2
1513227500957703,0,0,0,-1,0,-1,-2,-1
1513227500957703,1,-2,-4,-1,-2,-1,-1,0
1513227500959228,-1,0,-1,-1,-1,-1,-1,-2
1513227500959228,-1,1,-1,-1,-1,-2,-1,-2
1513227500979719,-2,0,-2,-1,-1,0,-1,-3
1513227500979719,-1,2,-2,-2,-1,-1,-1,1
1513227500981736,0,-1,0,-1,2,0,0,1
1513227500981736,-1,-2,-1,-1,1,0,-3,-1
1513227500994745,0,-3,-1,-1,-2,-1,-1,-1
1513227500994745,-1,-3,-1,0,-2,-1,-1,-2
1513227500996743,-2,-1,-1,-2,-2,0,0,-1
1513227500996743,1,-1,-1,-1,-2,-1,-2,0
1513227501017245,-2,-2,-2,0,-1,-2,0,0
1513227501017245,-2,0,2,-2,-1,-1,0,0
1513227501019251,-5,-3,0,0,0,1,-2,-1
1513227501019251,1,-2,-2,-1,-1,-1,0,-3
1513227501039783,1,0,1,-1,-2,0,-2,-2
1513227501039783,-3,-1,-1,0,0,-1,-1,-2
1513227501041763,-1,-3,-2,0,-1,-2,0,-2
1513227501041763,-2,-2,0,-1,-1,0,-1,-2
1513227501053771,0,-4,1,-1,-3,0,-1,-1
1513227501053771,-1,0,-2,-1,-1,-2,-1,0
1513227501062777,-2,1,-1,-1,-2,-1,-2,-1
1513227501062777,-2,-2,-2,0,-2,-1,-1,-1
1513227501077359,1,-2,0,-1,-1,-1,-1,0
1513227501077359,-1,-1,-2,-2,0,-1,-2,-1
1513227501078865,0,-2,-1,-2,0,1,-1,-1
1513227501078865,0,1,-1,-2,-2,-1,-2,-1
1513227501099866,-2,-2,0,-2,-1,-2,-1,-1
1513227501099866,0,-1,0,-1,0,-2,-2,2
1513227501101365,1,1,-1,-1,-3,-1,0,0
1513227501101365,1,-3,0,0,-1,-2,0,-1
1513227501114875,1,2,-3,1,0,-1,-2,-2
1513227501114875,-1,-2,-2,-1,-1,0,-3,-2
1513227501116376,-2,0,-1,-1,-2,-2,0,0
1513227501116376,-3,0,-1,0,-1,0,-1,-1
1513227501137393,1,-1,-3,-2,0,-3,-1,1
1513227501137393,-3,-1,0,-1,-2,0,-1,-1
1513227501138892,0,-3,-1,-1,-2,0,-1,-2
1513227501138892,0,-2,0,-2,-1,-1,0,-1
1513227501159919,-1,-1,0,-2,-1,0,-1,-1
1513227501159919,-1,0,-1,-2,0,-1,-1,-2
1513227501161420,-1,0,0,-1,-1,-1,-1,0
1513227501161420,-1,1,-1,-1,-1,-1,-3,-1
1513227501174429,-1,-1,-2,0,-1,0,0,-1
1513227501174429,1,-2,0,-2,-4,-1,-1,-2
1513227501180933,0,0,-4,-1,-2,-2,-1,-2
1513227501180933,0,-1,-2,0,-1,-2,-2,-2
1513227501198437,-2,0,0,-1,-2,0,-1,-1
1513227501198437,0,-1,1,-1,-1,-1,0,-1
1513227501199938,-2,-4,-2,-1,0,-1,-1,-1
1513227501199938,-1,-2,-1,-2,-1,0,0,0
1513227501219952,0,0,-2,-1,-2,0,-1,-2
1513227501219952,-1,-1,-3,0,-1,0,-2,0
1513227501221451,-3,-3,-1,1,-1,-1,-1,-2
1513227501221451,-2,-2,-1,1,-2,-1,-2,-2
1513227501233959,-5,-2,2,3,-1,-1,-1,0
1513227501233959,-3,-2,0,-2,-1,0,0,-2
1513227501240981,-1,0,-2,-1,-2,-1,-2,0
1513227501240981,1,1,0,-3,0,-1,-1,0
1513227501257481,-1,-2,-1,-1,1,-1,-1,-1
1513227501257481,1,0,-3,-2,-1,-2,-1,-2
1513227501258983,1,-3,1,-2,-2,-1,-1,-1
1513227501258983,-2,-1,0,-1,-2,-1,1,-1
1513227501279995,2,-1,-2,-1,-1,-2,-1,1
1513227501279995,-1,-2,0,-1,0,1,-1,0
1513227501281500,0,-1,-3,-1,-1,-1,-1,1
1513227501281500,-3,-1,-1,0,2,0,-2,0
1513227501294013,0,-1,-2,0,-3,-2,-2,-1
1513227501294013,0,-1,-1,-1,-2,-2,-1,-1
1513227501301018,-4,-1,0,-1,-1,-1,-1,-2
1513227501301018,0,-2,-1,-2,-2,-2,-1,-2
1513227501317530,-1,-1,-1,-2,-1,-1,-1,-1
1513227501317530,-1,-2,-1,-1,0,1,-1,0
1513227501319030,-1,0,-1,-1,0,-1,-1,-1
1513227501319030,1,-1,-2,-1,-1,-2,-1,1
1513227501339033,-5,-2,2,-1,-1,0,-1,-1
1513227501339033,-2,0,-2,0,-1,-2,-1,-2
1513227501340037,-1,-4,-1,-2,-2,1,-1,-1
1513227501340037,-3,-2,-3,-1,-1,-1,0,-1
1513227501353555,-1,-2,-3,-2,0,-1,0,-2
1513227501353555,0,-1,0,-1,-1,0,-1,0
1513227501362059,-1,-1,-2,0,-2,-3,0,0
1513227501362059,0,-1,-1,0,-2,0,-1,-2
1513227501376603,0,0,-2,-1,-2,-1,-2,0
1513227501376603,-2,0,-1,-2,-1,-3,1,-1
1513227501377597,-2,-1,1,-2,0,-1,-1,-2
1513227501377597,-1,0,0,1,-1,0,0,1
1513227501399113,-1,-1,-3,-3,-1,0,-1,-1
1513227501399113,-1,-1,-2,0,-3,-2,0,-2
1513227501400114,-1,1,-2,-2,0,-1,-1,0
1513227501400114,-1,-1,-1,-1,-1,-1,-1,-2
1513227501413644,-2,-1,0,-1,-2,-1,-2,0
1513227501413644,0,-1,0,-2,-1,-1,-1,-1
1513227501422151,1,-1,0,-3,-2,-2,-2,-1
1513227501422151,-2,-2,-1,0,0,0,-1,0
1513227501437153,-2,-1,-1,-2,0,-1,0,0
1513227501437153,-1,-1,0,0,-2,-3,-1,-1
1513227501438142,-1,0,1,-1,-1,1,0,0
1513227501438142,1,0,-1,-1,-2,1,0,-3
1513227501467663,0,-2,-2,-1,0,-2,0,-1
1513227501467663,-1,1,0,0,0,-2,-3,-2
1513227501468158,0,-1,-1,-1,0,0,-1,-1
1513227501468158,-1,-2,-1,-2,0,-1,0,-1
1513227501473674,-2,0,0,-1,-1,1,0,0
1513227501473674,0,-1,0,-1,-2,-1,-2,0
1513227501481668,-1,-1,-3,0,-1,-1,-1,-1
1513227501481668,-2,0,0,-2,-1,-2,-2,0
1513227501496678,-1,0,-1,-2,-2,-2,-2,-2
1513227501496678,-2,0,-3,-1,-1,0,0,-1
1513227501497679,-2,-1,0,-2,0,-1,-2,-2
1513227501497679,-3,1,-2,0,-1,-1,-1,-2
1513227501519215,2,1,-1,-1,-3,-2,-1,-1
1513227501519215,-1,0,-2,-1,0,-1,-1,0
1513227501520217,-2,0,-2,1,-2,-2,0,-2
1513227501520217,2,-2,0,-1,-1,-1,-1,-1
1513227501535206,1,-3,-1,0,1,-1,0,-1
1513227501535206,-1,-3,-1,-3,0,-1,-2,-2
1513227501541712,2,1,-1,-1,-2,-2,-2,-2
1513227501541712,1,-1,0,-1,-1,-3,-1,1
1513227501556744,-1,1,-1,-1,-2,-1,0,-3
1513227501556744,0,-1,-2,-2,-1,0,0,-2
1513227501557722,-1,-1,-1,-3,-2,-3,-2,-1
1513227501557722,0,2,-2,-2,-2,-2,-2,-1
1513227501579236,-3,-1,1,-2,-1,1,-2,0
1513227501579236,0,-2,0,-1,1,-2,-1,0
1513227501580238,0,-1,-1,-2,-1,2,-2,0
1513227501580238,1,-2,-2,0,1,0,-2,0
1513227501593758,2,0,-4,-2,-1,-3,-3,-1
1513227501593758,-2,0,-1,0,-1,-2,1,-2
1513227501601763,-2,-1,-1,0,-1,-2,-1,1
1513227501601763,-1,-3,-1,-1,0,-2,0,-3
1513227501617266,-1,-3,-1,-2,0,2,-2,-2
1513227501617266,-1,0,0,-1,-2,0,-1,-2
1513227501618264,-2,-2,-1,-3,-1,-2,-1,-1
1513227501618264,-1,0,-2,-1,-2,-1,-1,-2
1513227501639279,-2,-2,1,1,0,-2,-1,0
1513227501639279,0,-2,-2,0,-2,0,-1,0
1513227501639780,0,-1,-2,0,-1,0,-1,0
1513227501639780,-1,-2,-2,-1,-2,0,1,-1
1513227501653789,-2,-2,-1,-1,0,1,-1,-2
1513227501653789,-2,-1,0,-3,0,-2,-2,0
1513227501661805,1,-2,-1,-2,0,-1,-2,-2
1513227501661805,-3,-3,0,-1,-1,0,0,0
1513227501676806,0,1,-1,-2,-1,-2,-1,-1
1513227501676806,0,-1,-2,-2,-1,0,0,-1
1513227501677305,-2,0,0,0,0,-2,-2,-1
1513227501677305,-6,-3,2,0,0,-1,-1,-2
1513227501699324,-2,-3,-1,0,-3,0,0,-1
1513227501699324,-1,-1,-1,0,-1,-2,-3,-1
1513227501699822,1,-2,-1,-1,0,0,1,-1
1513227501699822,1,-3,-3,-1,-2,-1,-1,-1
1513227501713331,-1,-2,-1,0,-1,-1,-1,-1
1513227501713331,-4,-2,0,0,-1,-3,-1,-2
1513227501721840,-3,-1,0,-1,-1,-2,0,-1
1513227501721840,0,1,0,-2,-2,-2,-1,0
1513227501736869,0,-2,-1,-1,-1,0,-3,-1
1513227501736869,0,-2,-3,-2,-3,-1,-1,-2
1513227501737351,-1,-2,0,0,-1,-1,-2,-3
1513227501737351,1,0,-2,-1,-2,-2,0,0
1513227501759365,0,0,1,-2,0,-3,1,1
1513227501759365,3,-2,0,-2,-1,-2,0,-1
1513227501759865,-2,0,0,-1,-1,1,-2,0
1513227501759865,3,0,-3,1,0,-1,-3,0
1513227501773875,-1,1,-1,-1,0,-2,-2,-3
1513227501773875,-1,0,0,-1,0,0,-1,-1
1513227501781881,0,-1,-1,-1,-1,-1,0,-1
1513227501781881,1,-1,0,-3,0,-2,-2,1
1513227501796911,-1,-2,-3,-3,-2,-3,-1,0
1513227501796911,-2,1,-1,0,-1,-1,-1,-2
1513227501797392,1,0,-3,-1,0,-2,1,-2
1513227501797392,-3,-1,-1,-2,-2,-2,-1,-4
1513227501818999,-1,-1,-1,0,0,0,-2,-1
1513227501818999,-2,-2,0,1,0,-1,-1,-2
1513227501819960,-1,-1,0,-1,-2,-2,-2,0
1513227501819960,-2,0,1,-1,0,-2,0,0
1513227501833469,0,0,-1,-2,-2,-1,0,-1
1513227501833469,0,-2,-2,0,-3,-1,-2,-1
1513227501841476,3,1,-1,-2,-1,-1,-1,-3
1513227501841476,1,-2,0,-1,0,-1,-2,-1
1513227501856987,-2,0,0,-1,-1,-1,0,1
1513227501856987,-1,-2,-1,0,-2,-2,-1,-1
1513227501857487,1,1,0,0,-1,0,-1,0
1513227501857487,-2,0,0,-2,-1,-1,-2,-3
1513227501879063,-2,-1,0,-1,-1,-2,-2,-2
1513227501879063,-2,-1,-3,-2,0,-2,0,-1
1513227501880064,-3,-1,-2,-2,-2,-2,0,-2
1513227501880064,0,-1,-2,0,0,-2,-1,-1
1513227501893630,0,-3,0,0,-1,-1,-1,-1
1513227501893630,2,-1,-1,0,-1,0,0,-1
1513227501901642,-1,-3,-1,-1,-3,-2,-2,-1
1513227501901642,0,-2,-1,0,-1,-1,-1,0
1513227501916636,-2,0,-1,-2,0,1,-2,-1
1513227501916636,-2,-3,-2,-2,0,-1,-1,-1
1513227501917640,-2,-2,-1,0,-2,0,-2,-1
1513227501917640,-1,-2,-1,-2,-2,-1,0,-1
1513227501939156,1,1,-1,0,-1,-2,-3,0
1513227501939156,-1,-2,-2,-2,0,0,-1,-1
1513227501940154,-1,-2,-3,0,1,-1,-1,0
1513227501940154,-8,-5,0,1,-1,0,-1,-1
1513227501970174,-2,-3,-1,-1,-2,-2,0,-1
1513227501970174,0,-1,0,-1,0,-3,1,-1
1513227501970676,0,-3,-1,-1,-2,-1,0,-1
1513227501970676,0,1,-3,-3,-2,-1,-1,0
1513227501976691,-1,-1,1,-1,-1,0,0,-1
1513227501976691,-1,-1,-1,-4,-2,1,-1,-2
1513227501977682,-3,-1,0,0,-1,0,0,-2
1513227501977682,2,0,-3,0,-1,-1,-2,-2
1513227501999194,-2,-2,-1,0,-1,-1,-1,-1
1513227501999194,-1,-1,-2,0,-2,1,-3,1
1513227502000194,-1,0,-1,-2,-1,-1,0,-1
1513227502000194,0,0,-1,-1,-2,-1,0,0
1513227502021227,0,0,-2,1,-1,-1,2,-1
1513227502021227,-2,-1,0,-2,-1,-2,0,-4
1513227502029224,4,-1,-3,-2,-1,0,-2,1
1513227502029224,-1,0,1,0,0,0,-1,-2
1513227502036720,0,-1,-3,-2,0,-1,0,-2
1513227502036720,-1,-1,-1,-1,-2,-1,-1,0
1513227502037731,-2,0,-2,-1,-2,-1,0,-2
1513227502037731,0,-1,-3,0,-2,-2,-2,0
1513227502059236,0,-3,1,-1,-4,0,-1,-1
1513227502059236,-1,0,-1,0,-2,0,-1,-1
1513227502060237,-4,-4,-1,-2,0,0,-2,-2
1513227502060237,-3,-2,-1,-1,-1,-1,0,0
1513227502082270,0,0,-3,0,0,-2,-1,-2
1513227502082270,0,-2,0,-1,-1,1,0,0
1513227502083264,-2,-1,-2,-1,-1,-2,-2,-1
1513227502083264,0,0,-1,0,-2,-2,0,-2
1513227502096763,-1,1,0,-1,-1,-2,-4,-2
1513227502096763,-1,1,0,-1,0,-2,0,-2
1513227502097264,-2,-1,-1,-1,0,-2,0,-2
1513227502097264,1,-1,3,0,-2,-1,-1,0
1513227502119317,0,0,0,-1,2,0,0,0
1513227502119317,-4,-1,1,-2,-1,-1,-1,-1
1513227502119779,-3,-3,0,-1,-1,1,-1,0
1513227502119779,-1,0,-1,-1,0,0,-1,-1
1513227502142295,-1,-2,-2,-1,0,0,1,-1
1513227502142295,1,-2,-3,-1,-1,-2,-1,-2
1513227502143301,-1,-1,0,-1,-3,-2,-2,-1
1513227502143301,-1,0,-3,-1,0,0,-2,-1
1513227502156808,-2,-1,-2,-2,-1,-1,-2,0
1513227502156808,0,0,-1,-3,-1,-3,-4,-1
1513227502157305,-2,-2,-1,-1,0,-1,-1,-1
1513227502157305,0,0,-3,-2,-1,-2,-2,-1
1513227502179321,0,-1,-1,-2,-2,-1,0,-2
1513227502179321,-2,0,-2,0,-1,-1,-4,-1
1513227502179822,-1,-2,-2,-2,-1,-1,-3,-3
1513227502179822,-1,0,-1,-1,-2,-2,-1,-1
1513227502202337,0,-2,-2,-2,-1,-1,0,0
1513227502202337,-2,-1,-1,1,-1,-1,0,-1
1513227502203349,-1,-2,-1,-2,-2,-3,0,-3
1513227502203349,-2,-1,0,-1,-1,0,-1,-1
1513227502216850,2,-1,-3,-1,0,-1,-3,0
1513227502216850,-3,-3,1,0,-2,0,0,1
1513227502217349,1,0,-1,-1,0,-1,-2,0
1513227502217349,2,-1,-2,-2,-2,-2,-2,-1
1513227502239364,-2,-1,-2,0,0,0,-2,0
1513227502239364,0,0,-4,1,-1,0,0,-2
1513227502239865,-1,0,-2,-2,-1,-1,-2,0
1513227502239865,-1,-2,-2,0,0,-2,0,1
1513227502269906,-2,2,0,-1,-2,0,-1,-1
1513227502269906,1,0,-3,-2,-1,-2,0,-2
1513227502270890,0,-1,-1,-1,0,-1,0,-1
1513227502270890,-1,-4,-2,-2,-1,-1,0,0
1513227502276890,-1,-4,-2,-1,-1,-2,-1,-3
1513227502276890,-4,-3,2,-1,-2,1,-1,-1
1513227502277390,-1,-1,0,-1,-2,-3,-2,-1
1513227502277390,-2,0,-1,-1,-1,0,-2,-2
1513227502299417,-1,-2,0,1,-1,-1,-1,1
1513227502299417,0,-1,-2,0,1,-3,-3,0
1513227502299908,-2,1,-2,-1,-2,0,-1,0
1513227502299908,-2,-2,1,0,0,0,1,0
1513227502322496,-1,0,-1,0,-3,-2,-1,1
1513227502322496,-1,0,-3,-2,-2,0,1,-3
1513227502323478,-1,0,-1,1,0,-1,0,-1
1513227502323478,0,-1,-2,-1,0,-2,-1,-2
1513227502336501,0,-2,-1,-3,1,-3,-1,-1
1513227502336501,-2,-3,-1,-1,-2,-2,-1,0
1513227502337490,0,0,-1,0,-1,-3,-1,-2
1513227502337490,-3,-1,-1,0,0,1,0,-2
1513227502359012,-2,-1,-2,0,-2,-1,1,-2
1513227502359012,-2,-1,-1,0,-1,-2,-2,-1
1513227502366523,-2,-3,-1,-2,-2,0,0,0
1513227502366523,1,-1,-2,-1,-1,-2,-2,0
1513227502383033,-5,-1,1,0,0,1,-1,-2
1513227502383033,1,-1,-3,-2,-3,-2,-1,-1
1513227502383519,0,-1,-2,-1,-3,-1,-1,-1
1513227502383519,0,-2,-2,-1,-1,-3,1,0
1513227502396529,-1,-3,-1,-2,-1,0,-1,-1
1513227502396529,0,-2,-1,-1,-1,0,-2,-3
1513227502397534,-2,-3,2,-1,1,-1,-1,-1
1513227502397534,0,-1,-1,-2,-1,0,-3,0
1513227502419068,0,0,0,-3,-1,-1,-1,0
1513227502419068,-2,0,-1,0,-1,-2,0,-1
1513227502420058,0,0,-1,-1,-2,0,0,-3
1513227502420058,-1,1,-2,0,-1,1,0,-1
1513227502441575,-2,-1,-3,0,-3,-3,-4,-1
1513227502441575,1,2,-2,-2,-1,0,-1,1
1513227502449077,-5,-2,-2,1,1,0,-1,1
1513227502449077,1,2,0,-1,-2,-1,-2,-1
1513227502472582,0,-2,-1,-1,-1,-1,0,0
1513227502472582,-1,-1,-1,0,1,-2,-1,-1
1513227502473083,1,0,0,-1,-2,-2,-1,-1
1513227502473083,-2,-3,-2,-1,0,-1,0,-1
1513227502479087,-1,-1,-1,1,-1,1,-1,-3
1513227502479087,-2,-2,-1,-2,-2,-3,-2,-2
1513227502486634,-1,-2,-2,0,-2,-2,-1,-1
1513227502486634,-1,-1,0,-2,-2,-1,0,-2
1513227502502106,1,0,-2,-2,-2,0,-1,-1
1513227502502106,-2,-3,-1,-1,1,-1,0,-1
1513227502503104,-2,-1,-1,-1,0,-1,0,1
1513227502503104,-1,-1,-3,0,-2,-2,-3,-1
1513227502516617,1,-3,-2,-1,-3,-2,1,0
1513227502516617,-1,0,-1,-1,-3,0,-2,-1
1513227502517615,5,-1,-3,1,0,-2,-3,-2
1513227502517615,-2,-1,-2,-2,-1,-2,-2,-1
1513227502539151,-3,-1,-2,-1,-1,-2,-2,0
1513227502539151,-1,0,-1,-1,-1,-2,-1,0
1513227502540152,-2,-2,-2,-3,-2,-2,-3,-1
1513227502540152,-2,-1,0,1,-1,0,-3,1
1513227502562159,-3,0,1,1,-3,-1,-2,-1
1513227502562159,-1,0,-1,0,1,1,1,0
1513227502563147,-4,-1,-2,-1,-1,-2,0,-1
1513227502563147,-1,0,-2,-1,-2,-2,0,-1
1513227502576159,0,-3,-2,-3,-2,-2,-1,0
1513227502576159,1,-2,-1,-3,-1,1,1,-1
1513227502584189,-1,-1,0,-2,-2,-1,1,0
1513227502584189,-2,-2,-1,-2,-1,-2,0,0
1513227502599245,0,0,-1,0,0,-1,-2,0
1513227502599245,-3,0,0,-1,0,-2,0,0
1513227502599728,-1,-1,-2,-1,-1,0,-2,-1
1513227502599728,0,0,-1,-2,-1,-2,-1,-2
1513227502622783,-2,-1,-1,-1,0,-1,-2,-2
1513227502622783,0,-1,-1,0,1,0,1,-1
1513227502623280,2,-2,-2,-1,-2,-2,-1,-1
1513227502623280,-1,-2,-1,-1,-1,0,-2,-2
1513227502644817,-1,-1,1,-1,-1,-1,0,-1
1513227502644817,1,0,0,-3,-2,-2,-2,1
1513227502645817,-3,1,-2,-1,0,-1,-1,-3
1513227502645817,-1,-4,1,0,-2,1,-1,-2
1513227502659320,-3,-1,1,0,0,0,2,0
1513227502659320,-1,-1,-1,-1,-2,-3,0,-2
1513227502660306,-1,-1,0,0,-1,0,-1,-2
1513227502660306,-1,0,0,-1,-1,-1,-1,0
1513227502682336,-3,0,-4,-1,-2,0,-2,-1
1513227502682336,0,-3,0,-1,-1,-3,-2,-2
1513227502683335,-1,0,0,-2,-1,0,0,0
1513227502683335,-2,-1,-2,0,-2,-1,-1,0
1513227502696330,-2,0,-1,-2,-1,-2,-1,1
1513227502696330,-2,-1,-2,-1,-2,0,-3,-1
1513227502704339,-2,1,-2,-2,-2,1,0,-1
1513227502704339,-3,-3,-2,-2,0,-1,-1,-1
1513227502718861,1,-2,-1,-2,-1,-1,-2,0
1513227502718861,-1,-2,-3,-2,-1,-2,-1,-1
1513227502726355,0,0,1,-1,0,-1,-1,0
1513227502726355,-1,-2,0,-1,-1,-2,0,-2
1513227502742875,0,-1,-1,-1,-1,-2,0,-3
1513227502742875,1,0,-3,-1,-2,0,-1,-1
1513227502743368,-2,-2,-1,1,0,0,-1,-3
1513227502743368,-1,0,-1,-2,-2,-1,-1,0
1513227502755884,1,-1,0,1,-2,0,0,-1
1513227502755884,1,-2,0,-1,-1,0,-3,0
1513227502764392,-4,-5,3,-1,0,-1,0,1
1513227502764392,-2,0,-2,-1,0,1,-2,-2
1513227502779393,-2,-1,0,-1,0,0,0,-2
1513227502779393,-2,1,-1,-1,-3,0,1,-2
1513227502779895,-1,-2,-1,0,-1,-2,-2,-1
1513227502779895,-1,0,0,1,0,0,-2,-2
1513227502802407,-2,0,-2,-1,-1,-1,-2,0
1513227502802407,-1,0,-2,-1,0,-1,-3,-1
1513227502803406,1,0,-3,0,-2,0,-2,0
1513227502803406,1,-1,-1,-2,1,-1,0,0
1513227502816442,0,-2,-2,0,-2,-1,1,-2
1513227502816442,-1,-1,-1,-2,-3,-1,-1,-2
1513227502824433,0,0,0,-2,-3,-2,-1,-1
1513227502824433,0,-1,0,-1,0,-1,-2,-1
1513227502839432,-1,1,-2,0,0,-2,-3,-3
1513227502839432,2,1,-3,-1,0,-3,-2,0
1513227502839934,-2,-2,-2,-1,-2,-2,-2,0
1513227502839934,-2,0,1,0,-1,-1,0,1
1513227502869991,-3,-2,-1,-2,-2,-2,1,-1
1513227502869991,-1,-2,-2,1,-1,-1,1,-3
1513227502870457,-1,0,0,-3,0,-1,-2,-2
1513227502870457,-1,-1,-3,-2,1,1,-1,-2
1513227502876019,-1,-1,-2,0,-1,0,-1,-1
1513227502876019,-1,-1,0,-1,0,-2,-1,0
1513227502884467,-1,-1,-2,-3,-2,-2,0,0
1513227502884467,-2,0,-1,-2,-3,-2,-2,-1
1513227502899491,0,-1,-1,-3,0,-2,0,-1
1513227502899491,-1,-1,-1,-1,-2,-1,-1,-1
1513227502899979,0,-1,-2,-1,0,0,-1,-2
1513227502899979,0,-3,-1,0,-1,-1,-1,-2
1513227502922500,-1,-2,0,0,-2,-1,0,0
1513227502922500,-1,-1,-1,-1,1,0,1,-1
1513227502924006,2,1,-2,-2,-2,-3,-1,-2
1513227502924006,0,-3,-2,1,-1,-1,-1,-2
1513227502945016,0,0,0,-1,-2,-1,-1,-1
1513227502945016,-3,-2,-1,-1,0,-1,-1,-1
1513227502945508,0,0,0,-1,0,-1,-2,2
1513227502945508,0,-1,-3,-3,-3,-3,-3,0
1513227502959017,-1,-1,-2,-2,-2,1,-1,-1
1513227502959017,-2,-3,-1,-2,0,-1,-1,-1
1513227502960018,0,-3,-4,-1,0,1,-1,-2
1513227502960018,0,0,-1,-1,-1,-3,-1,-1
1513227502982533,-1,-2,-1,-2,-1,-2,-1,0
1513227502982533,-3,-3,0,-1,-1,-1,-2,-2
1513227502983034,-2,-1,0,0,-2,-1,0,0
1513227502983034,-2,0,-1,-1,0,0,-1,-1
1513227503005049,-1,0,0,-2,0,0,0,0
1513227503005049,-2,-1,0,0,0,-1,-1,0
1513227503005551,-2,0,-1,-1,0,-1,-2,-1
1513227503005551,1,0,-2,-2,-1,-1,-1,1
1513227503019086,-2,-2,-1,0,0,-2,-1,0
1513227503019086,0,0,-1,0,-2,-1,-1,-1
1513227503020070,-1,-3,0,-1,-1,-1,-1,-1
1513227503020070,-1,0,-1,1,-1,-1,-1,1
1513227503042579,1,-2,-3,-1,-2,-1,-2,-2
1513227503042579,-2,-1,-1,0,-2,0,-1,-1
1513227503043076,-2,-2,-1,-1,-2,-1,-2,-3
1513227503043076,-2,-2,-1,-1,1,0,1,-2
1513227503072597,-2,-1,-1,0,-2,-2,-2,0
1513227503072597,0,-1,-2,-1,-1,-1,-2,-1
1513227503073097,-2,-1,-1,-1,-1,-4,-1,-3
1513227503073097,-2,-1,-2,-2,-2,-1,-1,-1
1513227503079112,-1,-1,-1,-2,-1,-2,-1,-1
1513227503079112,2,1,-3,-1,-3,0,0,-1
1513227503080104,-2,0,-1,-1,0,0,1,-1
1513227503080104,0,-2,-1,-1,-1,-1,-3,-1
1513227503102118,0,-2,-1,-1,0,-1,-3,-1
1513227503102118,0,0,0,-1,-1,-1,-1,-3
1513227503103119,-1,-2,-1,1,-2,-1,-2,-1
1513227503103119,-1,-2,0,-2,-2,-1,0,-2
1513227503125134,-2,0,-1,-1,-1,-1,1,-1
1513227503125134,-4,-4,-1,-1,-3,0,0,-1
1513227503125636,1,-1,-2,-1,-3,-1,0,-2
1513227503125636,1,1,0,-1,-3,-1,0,-2
1513227503139144,0,-2,-1,1,0,0,1,-1
1513227503139144,0,-1,0,-1,-1,-1,-1,0
1513227503140151,0,-1,-1,-2,-2,0,-1,1
1513227503140151,-2,-1,-1,0,-1,-3,-2,2
1513227503162163,-2,-1,-1,0,0,0,-1,-2
1513227503162163,0,0,0,-1,-1,0,0,-1
1513227503163164,-1,0,-1,-3,0,-1,-1,0
1513227503163164,-3,-4,-1,0,-2,-2,-2,-2
1513227503184687,-1,-3,-1,-2,-1,-1,-1,-1
1513227503184687,0,-2,-2,-1,0,-2,-1,0
1513227503185677,0,-2,-2,0,-1,-1,-1,-2
1513227503185677,1,0,0,1,0,0,1,-2
1513227503199198,1,2,1,-3,-1,-3,-2,-2
1513227503199198,-3,0,-1,-1,-2,0,-2,-2
1513227503199687,-2,0,-1,-1,0,-2,-1,-1
1513227503199687,-2,-1,-3,-2,-1,0,1,-1
1513227503222716,-2,-1,-1,-1,-2,-1,0,0
1513227503222716,-3,-1,1,0,2,-1,1,1
1513227503223208,0,-3,-1,-1,-1,0,1,-2
1513227503223208,0,-2,-2,-1,-1,0,-1,-1
1513227503244724,0,-2,-2,-1,-2,-1,-1,-2
1513227503244724,2,-1,-2,-2,-2,-2,-2,-1
1513227503245724,-2,0,0,0,0,-1,-2,0
1513227503245724,0,0,-2,-1,-2,0,-1,1
1513227503259229,0,-1,-2,-2,-2,-2,-1,-1
1513227503259229,-2,1,-2,-1,-1,-1,-2,-1
1513227503259729,1,0,-2,-1,0,0,-1,-1
1513227503259729,-3,-2,-1,0,0,-2,-2,-3
1513227503282255,-3,1,-2,0,-2,0,0,-1
1513227503282255,-3,-2,-1,-2,0,-1,-1,-2
1513227503283245,-1,-1,1,1,-1,-1,0,-1
1513227503283245,-3,-3,-2,1,-1,-2,1,0
1513227503304785,-2,-2,-2,-2,0,-2,0,-1
1513227503304785,0,-3,-2,-2,-2,0,0,-2
1513227503305774,1,-2,-4,-2,-3,-1,-2,-1
1513227503305774,1,0,-1,-3,-1,0,-1,-2
1513227503319330,-1,0,-1,-1,-1,0,0,-2
1513227503319330,-2,-2,-3,-1,-2,-1,1,-1
1513227503319774,-5,-3,2,0,0,0,-1,0
1513227503319774,0,0,1,-1,-1,-1,-2,1
1513227503342301,1,-1,-1,-1,-1,-1,-1,0
1513227503342301,-2,-1,-1,-2,-1,-2,-1,-1
1513227503343302,-1,1,-1,-2,-1,-1,-2,-1
1513227503343302,-3,-1,1,-2,0,-1,0,-1
1513227503364804,-1,0,-2,0,-2,0,-2,-1
1513227503364804,-1,-2,-2,-2,0,0,-1,-2
1513227503365806,0,-2,0,1,-1,0,-2,0
1513227503365806,-2,-1,-1,0,-1,-1,-1,0
1513227503379313,-1,-2,-2,-3,0,0,0,0
1513227503379313,1,1,0,-2,-2,-1,-2,-2
1513227503379814,0,-1,-4,0,-2,-2,-1,-3
1513227503379814,-3,-1,-1,-2,-2,-1,-1,-1
1513227503402390,-1,-1,-3,1,-1,-1,0,-1
1513227503402390,-2,-3,-1,-1,0,-2,-1,0
1513227503403356,-1,-1,0,-2,-1,-1,1,-2
1513227503403356,1,-1,0,0,-1,1,0,-1
1513227503424853,-3,-2,0,1,0,-2,-1,-1
1513227503424853,1,0,-1,-1,0,-1,0,-1
1513227503426848,0,-2,-1,-2,0,-3,-1,0
1513227503426848,-2,-1,0,0,1,0,-1,-1
1513227503439381,-2,-2,-1,-2,-1,0,-1,1
1513227503439381,-1,-1,1,-1,0,-3,-2,-2
1513227503439863,-2,-2,0,0,0,0,-1,-1
1513227503439863,-1,-2,-2,0,-1,0,-2,-1
1513227503462386,-2,-2,-3,-1,-2,-2,0,-2
1513227503462386,-1,-3,-1,-1,-2,-2,-1,0
1513227503463884,1,0,-2,-2,-3,-1,-2,-1
1513227503463884,-2,-2,0,-1,0,-1,-1,0
1513227503484890,-2,1,-4,-3,-2,-1,-3,-2
1513227503484890,-7,-5,1,1,0,-1,-2,-1
1513227503486391,-2,-2,1,-2,-1,1,-1,-1
1513227503486391,1,-1,-2,-2,-1,-3,-2,-1
1513227503498948,0,-1,0,0,-1,-1,1,-2
1513227503498948,0,1,-2,0,-1,0,0,-2
1513227503507452,-1,-2,-1,0,0,-1,-1,-2
1513227503507452,-2,0,-1,-2,0,-1,-2,-1
1513227503522513,-1,-1,0,-3,-1,-1,-2,-1
1513227503522513,1,-1,-1,-1,-3,-1,-1,0
1513227503524966,-1,0,-1,0,0,0,0,0
1513227503524966,-2,0,-3,-1,-2,-1,0,0
1513227503552499,0,-2,-1,-2,-1,-1,0,0
1513227503552499,0,-2,-1,-1,-1,-1,0,-1
1513227503553985,-1,-1,-3,-2,-2,-2,-1,-2
1513227503553985,-2,-2,-2,-1,-1,-3,-1,0
1513227503558498,-3,-2,0,-2,0,-1,-4,-2
1513227503558498,0,2,-1,0,-1,-1,-2,0
1513227503567495,-4,0,1,0,-2,-1,-1,0
1513227503567495,0,-3,-2,0,0,-1,1,-1
1513227503581514,-1,-1,1,-1,-1,-2,-1,-1
1513227503581514,1,-1,-2,1,0,-1,0,0
1513227503597515,0,-3,-1,-1,-2,-1,-1,-2
1513227503597515,2,-1,0,-2,-2,-1,0,-2
1513227503605021,-1,-1,-1,-1,-1,-2,-1,-1
1513227503605021,-1,0,-3,-2,-2,-1,-3,0
1513227503606522,-2,-1,1,-1,-1,1,-2,-1
1513227503606522,-2,-1,-2,-1,-2,0,-2,-2
1513227503618577,-1,0,0,0,-1,0,0,-2
1513227503618577,-2,-2,-2,-1,-2,0,0,0
1513227503627547,-1,0,-2,1,1,-1,0,-1
1513227503627547,-2,0,0,-1,1,0,-1,0
1513227503641573,-1,-2,0,-1,-1,-2,-2,-1
1513227503641573,-1,-1,0,-3,-1,0,-3,-2
1513227503650071,0,0,-2,-3,-1,-2,0,-1
1513227503650071,-3,-2,-2,-1,-1,-1,0,-2
1513227503665081,-3,0,0,1,-2,-1,-1,0
1513227503665081,0,-1,-3,-1,-1,0,0,0
1513227503666564,-1,0,-1,-1,-2,-2,-2,-1
1513227503666564,-1,-2,-1,-1,-1,-1,0,-1
1513227503678583,1,-2,-2,-1,0,1,1,-1
1513227503678583,-1,-3,-1,-1,-2,-1,0,0
1513227503687615,-2,-1,-1,-1,0,-2,1,-1
1513227503687615,0,1,-3,-1,-1,-1,-1,-1
1513227503702092,0,-3,-1,1,-2,-1,-2,0
1513227503702092,-2,0,0,0,-1,-2,-3,-1
1513227503704106,-2,-3,-1,-1,-1,-1,0,-2
1513227503704106,0,-1,-2,-3,-1,0,-1,-2
1513227503724607,-2,-2,0,0,-1,-3,0,-1
1513227503724607,-1,-1,0,-2,-2,-3,0,-2
1513227503726606,-1,-2,-1,-1,-2,-1,-1,1
1513227503726606,-1,1,-1,-1,-1,-2,-1,-1
1513227503738616,0,3,-2,-2,0,-2,-1,-2
1513227503738616,-1,-1,-1,-1,-2,-2,0,-2
1513227503747624,-1,0,-2,1,0,-1,0,0
1513227503747624,1,0,0,-1,-1,1,-1,-1
1513227503762132,0,0,-2,-1,-2,0,-2,0
1513227503762132,-1,-2,-4,-2,-2,-1,-2,-1
1513227503768662,0,0,-1,-2,0,0,-2,-2
1513227503768662,0,-1,-1,-2,-1,-2,-2,-1
1513227503785148,-1,-2,0,-1,-1,0,-2,0
1513227503785148,-1,0,0,-2,0,-1,-1,-1
1513227503786654,-1,-1,0,0,0,0,0,0
1513227503786654,0,0,-1,-1,-1,0,-2,-1
1513227503807671,0,-2,-2,-1,-2,-2,-1,0
1513227503807671,-1,-3,-1,0,0,1,-1,0
1513227503809167,0,0,-2,-1,-1,-1,-3,0
1513227503809167,-2,-1,0,0,-3,-1,-1,-1
1513227503822196,-3,-1,-1,-1,0,0,-2,-2
1513227503822196,-2,0,-1,-2,-1,-2,1,0
1513227503824676,-1,-1,0,-2,-2,-1,-1,0
1513227503824676,-4,-2,0,-1,0,0,0,-1
1513227503844702,1,-1,-1,-1,-2,0,-1,-3
1513227503844702,-1,0,0,-1,-1,-1,-1,-2
1513227503846702,-1,-1,-1,-2,0,0,-3,-3
1513227503846702,-2,-2,-3,1,-2,-2,-1,-1
1513227503867208,-4,0,0,-1,1,0,0,-2
1513227503867208,-1,-3,0,-3,0,-1,-1,-1
1513227503868707,2,-1,-2,-2,-2,-2,0,-2
1513227503868707,1,-3,-1,-2,-2,-1,-1,-1
1513227503883220,0,-2,-1,-2,-3,-1,0,0
1513227503883220,1,-2,-2,0,-1,0,0,0
1513227503884718,-3,0,0,-1,0,-2,-1,-1
1513227503884718,0,-1,-1,0,-2,-1,-1,-1
1513227503905235,-2,-2,-1,-1,0,-2,0,0
1513227503905235,-2,1,1,0,-2,-2,-1,-3
1513227503910736,-1,-2,0,-1,-1,-2,0,-1
1513227503910736,0,-1,0,-1,0,-2,-2,-1
1513227503943759,1,0,-2,-3,-2,0,-2,0
1513227503943759,-2,-1,-1,-1,0,0,-1,0
1513227503945261,0,-2,-1,-1,0,-2,0,-1
1513227503945261,1,1,-1,0,-1,-2,-1,-1
1513227503946261,1,0,-2,0,-1,0,0,0
1513227503946261,-2,0,-1,-2,0,-1,-2,-1
1513227503950264,-4,-3,0,-1,-2,-1,-1,-1
1513227503950264,-2,1,1,-2,0,0,-2,-2
1513227503964774,-3,-2,0,-2,0,-1,-1,-3
1513227503964774,-2,1,-2,0,-1,0,-2,0
1513227503966276,0,1,0,0,1,0,0,0
1513227503966276,0,-3,-2,-1,-1,-1,-1,-1
1513227503987341,-1,-3,-1,-1,0,1,-2,0
1513227503987341,-1,0,0,-1,-1,-4,-2,0
1513227503989336,0,-1,-3,-1,-2,-2,0,-1
1513227503989336,-1,0,-1,-1,-1,-2,1,0
1513227504001863,-1,-1,-2,-1,-2,-1,1,-1
1513227504001863,0,-3,0,-1,-1,-1,0,-1
1513227504008339,-2,-2,0,0,-1,-2,-2,-1
1513227504008339,1,0,-3,-2,-1,0,-1,-2
1513227504032366,-2,-3,-1,-3,-2,-2,-2,0
1513227504032366,-1,-3,-3,-2,0,0,0,-1
1513227504033857,-2,-2,-1,0,-1,-2,0,-1
1513227504033857,-3,-2,-1,-2,-2,-1,-2,0
1513227504047376,0,0,-2,-2,0,-3,-1,-1
1513227504047376,1,0,-1,-1,0,-1,2,0
1513227504048866,-1,0,-1,-1,-1,-1,-1,-1
1513227504048866,-2,-2,-1,-1,1,-1,-2,0
1513227504061874,-2,1,0,0,-1,-2,-1,-1
1513227504061874,1,-1,-2,-1,-1,-1,-2,-1
1513227504068454,0,-1,-2,-2,0,-2,-2,-1
1513227504068454,-4,-2,0,-1,-1,0,0,-1
1513227504092461,-1,0,-1,-1,-1,-1,-2,1
1513227504092461,-1,0,-1,0,1,-1,-1,-3
1513227504093960,1,-1,-1,-1,0,0,-2,0
1513227504093960,1,0,-3,-1,-2,-1,-1,-1
1513227504114980,0,-1,-3,-2,-2,-1,1,-1
1513227504114980,-1,-1,-3,-1,-2,-1,-1,-1
1513227504116470,-4,-2,0,-1,-1,-1,0,-1
1513227504116470,-2,-1,0,-2,-1,-1,1,-1
1513227504129999,0,0,0,0,0,0,-1,-2
1513227504129999,-1,2,-1,-2,-1,-1,-2,-1
1513227504131500,-1,1,-3,-2,-2,-1,-2,-1
1513227504131500,0,1,-1,0,0,-1,-1,-2
1513227504145010,0,0,-1,0,-1,0,0,-1
1513227504145010,2,0,-5,-2,-1,-1,-1,-2
1513227504146512,-2,-1,1,-1,0,0,-2,-2
1513227504146512,-1,2,-1,-1,0,-1,-1,-1
1513227504167526,-1,-1,0,-3,-1,0,0,0
1513227504167526,-3,-2,-7,-1,-1,-1,-1,-1
1513227504169027,0,-2,3,0,-2,-2,1,-1
1513227504169027,-2,-3,-1,-1,0,-1,0,-2
1513227504190042,-3,-1,-3,-3,-1,-2,-2,-3
1513227504190042,0,-2,-6,-5,0,1,-1,-1
1513227504191548,0,2,21,4,-3,-2,-1,-2
1513227504191548,1,-1,-9,14,6,0,1,1
1513227504205553,0,0,-5,0,-2,-1,-2,0
1513227504205553,-3,0,-3,-9,-5,-4,-3,-3
1513227504207055,0,-1,8,-6,-3,-1,-2,-1
1513227504207055,2,0,8,8,0,0,-1,1
1513227504227569,-1,-3,-28,-3,0,0,-1,1
1513227504227569,-2,1,46,8,-2,1,-2,-2
1513227504229083,-2,-2,-22,-3,1,0,0,-1
1513227504229083,-4,-1,2,-10,-5,-2,-1,-2
1513227504242081,-4,0,5,1,0,-1,-2,-1
1513227504242081,-1,-5,-29,-3,-2,-1,1,-1
1513227504248584,-2,-1,5,0,0,-1,1,0
1513227504248584,0,-2,-7,-1,0,-2,0,0
1513227504265096,1,1,12,-2,-2,-1,-1,-3
1513227504265096,0,-2,-9,-1,-1,-1,-1,2
1513227504271163,2,0,0,1,-1,-2,-3,-2
1513227504271163,1,-1,-1,-3,-2,-1,-3,0
1513227504287122,-3,-3,-7,-4,-1,-2,-1,-1
1513227504287122,-4,-1,5,1,1,0,-1,0
1513227504289112,-2,-4,-13,-2,-2,-2,1,0
1513227504289112,-3,5,4,-2,-2,-1,-1,-2
1513227504301644,1,2,11,1,-4,-3,-2,-2
1513227504301644,3,-1,-11,2,1,-1,1,0
1513227504308626,0,0,13,0,-1,2,1,1
1513227504308626,7,-3,-22,1,-4,-2,-2,0
1513227504325139,-5,3,-4,-17,-2,-2,0,0
1513227504325139,-1,-1,47,25,3,-1,-2,-1
1513227504327139,-1,-2,-28,8,6,-1,-3,-1
1513227504327139,1,-1,0,2,1,-1,0,-1
1513227504347155,2,-3,-13,-2,-2,0,-1,-1
1513227504347155,1,-4,0,-14,-5,-1,-2,0
1513227504349155,1,7,17,-2,-5,-2,-4,-2
1513227504349155,-9,-4,0,-6,-2,-1,-2,-6
1513227504361164,-2,-8,-6,-2,-1,0,0,3
1513227504361164,1,-1,-9,-9,-1,-1,1,3
1513227504370182,0,5,-16,0,-2,0,-1,-1
1513227504370182,-14,-10,-10,-12,-3,0,1,1
1513227504384695,-9,-11,24,8,-2,-4,-6,-9
1513227504384695,-2,2,-14,-3,-1,-2,1,-1
1513227504386183,7,8,2,-1,1,0,1,1
1513227504386183,2,-4,11,2,2,-1,-2,1
1513227504407696,7,7,-6,2,-1,-1,0,-2
1513227504407696,-14,-11,-1,0,-1,-2,-3,-3
1513227504409197,15,7,-5,-2,-2,-1,-1,3
1513227504409197,-13,-6,1,-2,0,-1,0,-2
1513227504429712,-5,-4,4,2,0,-2,-2,-1
1513227504429712,3,2,-15,-2,-1,-3,-2,-3
1513227504431213,-4,-6,1,-4,-2,-2,-1,-2
1513227504431213,-4,0,-1,-1,-2,-1,1,2
1513227504452240,3,7,10,3,2,0,-1,1
1513227504452240,3,3,-4,-6,-6,-3,-3,-5
1513227504453729,-19,-8,-6,5,3,1,3,-1
1513227504453729,18,-1,5,2,0,-2,0,5
1513227504467241,-21,-13,-5,-6,-1,-2,1,-2
1513227504467241,14,14,5,9,1,-1,-1,2
1513227504468739,-7,-10,8,-13,-7,-1,-2,-4
1513227504468739,-7,10,-7,5,2,-1,-2,2
1513227504489819,-6,-19,-8,-3,-3,-2,-3,-5
1513227504489819,5,-6,-5,-2,-3,-1,-2,-1
1513227504491256,10,16,3,-4,1,1,4,6
1513227504491256,12,-8,-1,-6,-2,-1,-4,-2
1513227504504765,-3,1,-5,0,1,0,1,1
1513227504504765,-7,-8,7,-2,-1,-2,-2,-5
1513227504506266,-2,-2,-10,-2,-2,-2,-2,-3
1513227504506266,-11,2,10,-1,0,1,0,-3
1513227504527286,9,6,-8,0,-1,-2,-2,0
1513227504527286,-15,-6,8,-2,2,1,1,-3
1513227504528783,9,-6,-3,6,2,1,2,4
1513227504528783,-5,6,0,2,0,2,0,-4
1513227504550301,1,-2,-7,-2,-2,-2,-2,-2
1513227504550301,5,5,-9,-4,-1,0,-1,1
1513227504556302,-20,-11,-4,-3,-4,-2,-5,-7
1513227504556302,4,-2,-5,-4,-2,-1,-1,-2
1513227504564811,-4,7,7,5,0,1,2,3
1513227504564811,-1,-6,-7,-3,1,-1,-2,-4
1513227504566312,8,-1,1,0,-1,-3,-3,0
1513227504566312,-2,-4,-2,-2,-3,-3,0,0
1513227504587337,2,2,-1,-5,-1,-2,-3,-2
1513227504587337,-4,-7,-3,2,-1,2,3,2
1513227504588825,-25,-17,-5,-7,-7,-6,-5,-12
1513227504588825,3,3,-2,-5,1,-1,-1,2
1513227504600859,6,3,1,14,3,0,-1,2
1513227504600859,2,3,-4,-1,-3,-2,-3,-5
1513227504609839,20,1,-3,2,4,0,-1,7
1513227504609839,-2,-7,-1,-11,-4,-2,-2,-4
1513227504624850,12,15,4,1,-3,-1,4,5
1513227504624850,-13,-22,-9,-2,0,-1,1,4
1513227504626350,1,9,9,-3,0,0,-1,-3
1513227504626350,5,-1,-3,1,-1,-3,-7,-12
1513227504647865,4,-8,0,-7,0,0,1,3
1513227504647865,9,14,-6,3,-1,-2,-2,1
1513227504653390,-3,-12,-3,-9,-3,-4,0,-4
1513227504653390,-22,-8,-1,13,1,0,2,0
1513227504660945,-3,-12,-3,-8,-3,-2,-1,-4
1513227504660945,-1,7,0,-3,0,0,-1,0
1513227504669944,3,10,-2,1,1,-1,2,8
1513227504669944,32,-4,-4,-7,-6,-4,-7,-10
1513227504692457,-11,-13,1,6,0,-1,0,-2
1513227504692457,-1,-1,-1,-7,0,-1,-3,-3
1513227504693961,6,10,1,0,-1,1,1,2
1513227504693961,7,7,0,1,0,3,13,26
1513227504707472,-2,-8,-2,-2,-3,-1,3,-10
1513227504707472,-1,-5,0,0,-2,-4,-20,-15
1513227504708958,1,2,-1,0,-1,-3,-4,-8
1513227504708958,-22,-2,-1,-3,-1,-2,-3,-4
1513227504720985,-14,-9,-3,-3,-1,-2,-2,1
1513227504720985,2,12,3,-1,0,1,6,6
1513227504729984,-4,-3,-2,3,-2,-2,-3,-3
1513227504729984,5,-14,-2,-10,-2,-2,-2,-2
1513227504744984,-11,6,3,7,-1,-2,8,9
1513227504744984,2,5,-1,-3,-1,-3,-8,-3
1513227504746499,-12,-10,-4,4,-2,-1,-2,-2
1513227504746499,-32,-18,-1,-3,0,-1,4,-2
1513227504767506,11,1,-2,3,-1,-3,-7,-9
1513227504767506,1,0,0,-5,-2,-2,9,7
1513227504769002,7,0,0,0,2,2,-14,-2
1513227504769002,9,10,-2,-1,-1,-4,-5,-2
1513227504790017,2,5,1,-3,0,1,2,-3
1513227504790017,-1,-7,3,2,1,1,5,6
1513227504791518,-2,-4,-4,-1,0,1,6,3
1513227504791518,7,7,6,2,-1,2,10,7
1513227504812532,4,12,0,-2,-4,-4,-23,-15
1513227504812532,-1,1,4,-3,0,-1,-9,-10
1513227504814035,-7,0,-8,-4,-2,0,11,-2
1513227504814035,11,-6,0,3,-2,-2,9,3
1513227504827542,5,3,-5,-3,-2,-3,-8,-1
1513227504827542,-7,-4,-2,0,-1,0,12,11
1513227504829044,1,-5,3,-1,-1,-2,-28,-15
1513227504829044,0,15,-3,2,-1,-1,4,8
1513227504850058,-1,-16,-3,-8,-2,-2,-1,24
1513227504850058,-5,1,-1,1,-2,-1,13,-5
1513227504851561,5,0,2,-1,-3,-1,18,-6
1513227504851561,-5,4,7,4,4,-1,-24,-13
1513227504865070,-5,13,-5,-1,1,0,-1,-9
1513227504865070,-1,-3,-6,4,0,0,-1,5
1513227504866585,0,0,5,-2,-2,-1,8,9
1513227504866585,-6,-7,-2,0,-3,-2,-1,-7
1513227504887598,-2,-7,4,-2,1,1,2,0
1513227504887598,3,7,2,1,0,-1,19,12
1513227504889100,-3,-10,-11,0,-1,-4,-15,-11
1513227504889100,6,19,-1,-1,0,3,-2,4
1513227504909601,-1,-1,-4,0,-2,-2,-8,0
1513227504909601,-5,-6,-6,-3,-2,-2,0,-6
1513227504911602,0,5,13,-3,-2,-3,-4,3
1513227504911602,-3,-20,-20,-5,-3,-2,5,-15
1513227504924612,-2,-12,-2,1,1,3,9,4
1513227504924612,1,3,-5,-2,-3,0,-10,-8
1513227504926612,-8,-1,1,1,0,0,2,6
1513227504926612,5,9,18,-2,-2,-3,-7,2
1513227504947127,5,3,-12,2,0,-1,4,-1
1513227504947127,-8,-15,-13,-3,-4,-4,-7,-10
1513227504949128,0,0,10,-4,-2,1,5,8
1513227504949128,-5,11,-15,1,-1,-2,-11,-5
1513227504969646,-8,3,14,-4,-2,-2,-1,-11
1513227504969646,5,-3,16,3,1,-3,-26,1
1513227504971644,-4,-17,-17,1,0,-1,6,-3
1513227504971644,7,10,2,1,-1,-3,9,15
1513227504984182,8,11,12,2,-2,-1,-12,-6
1513227504984182,-9,2,-30,-9,-6,-3,-6,-11
1513227504991158,8,-10,21,-1,0,1,4,6
1513227504991158,5,-3,-1,-2,-2,0,2,-3
1513227505007671,-6,-21,-15,0,-2,-3,5,6
1513227505007671,-8,31,25,-2,-2,0,18,8
1513227505008671,2,-3,-9,3,-2,-4,-35,2
1513227505008671,-11,6,-6,-10,-4,-6,-28,-39
1513227505029208,1,-31,-2,-2,-1,0,14,9
1513227505029208,9,-9,-9,1,-1,-7,-19,-30
1513227505046198,7,11,-10,-5,-1,1,4,17
1513227505046198,0,-1,1,7,1,0,21,5
1513227505047220,-1,12,11,2,1,-1,-35,-26
1513227505047220,-5,-11,-9,3,0,-1,2,8
1513227505051201,-9,-12,-12,-9,-3,-3,-1,-9
1513227505051201,-11,-8,-17,2,0,2,9,11
1513227505067234,-2,-15,0,-1,3,4,-8,-7
1513227505067234,7,10,21,-2,-1,2,14,45
1513227505068713,-17,5,3,8,0,-3,-9,-49
1513227505068713,-4,-14,8,-2,-2,2,13,39
1513227505090229,-4,9,-26,-8,-7,-6,12,-30
1513227505090229,-13,-8,-5,1,-2,-2,-11,1
1513227505091729,8,2,11,2,1,0,9,-8
1513227505091729,32,-2,-1,4,3,0,-3,5
1513227505104249,1,20,-14,-7,-5,-4,-1,6
1513227505104249,7,-7,-17,5,2,3,13,13
1513227505110746,-16,-10,-2,-7,-2,-2,8,4
1513227505110746,-23,13,15,8,1,-1,3,-15
1513227505127256,-6,13,21,-3,-1,-1,-23,-5
1513227505127256,15,-20,-39,-13,-5,0,20,9
1513227505128756,4,21,22,1,-1,-4,-42,-28
1513227505128756,-2,-23,-1,-6,-4,-3,-7,1
1513227505149781,-15,-4,10,12,3,1,10,0
1513227505149781,-3,9,7,2,-3,-1,-1,-5
1513227505151275,0,-12,5,3,0,0,2,14
1513227505151275,-13,-20,-19,-13,-8,-5,-10,-8
1513227505164292,8,74,46,1,-2,1,15,12
1513227505164292,-24,-83,-63,-22,-6,-6,-18,-13
1513227505170796,-3,44,23,9,0,1,10,-19
1513227505170796,-31,-18,-12,0,1,-3,-7,-19
1513227505187296,32,-14,7,17,3,0,3,20
1513227505187296,3,30,47,-12,-3,-1,2,-7
1513227505188797,-4,-39,-32,1,-4,0,1,10
1513227505188797,-3,22,16,-5,-3,-3,-15,-3
1513227505209814,-2,19,21,-2,1,2,20,13
1513227505209814,-9,1,-4,2,1,3,-24,-36
1513227505211313,10,-41,-26,-2,2,2,5,28
1513227505211313,-12,1,-2,-3,-4,0,21,-8
1513227505224333,4,2,-40,-15,-2,-2,10,28
1513227505224333,-42,-24,25,15,3,0,-35,-79
1513227505230827,10,57,-6,5,5,4,16,5
1513227505230827,9,-35,-22,6,4,1,-20,-6
1513227505247356,-5,5,4,-15,-4,-3,0,15
1513227505247356,-17,4,-5,-4,-5,-5,10,20
1513227505248841,-6,-21,-12,-13,-5,0,11,10
1513227505248841,7,7,-23,22,6,0,1,-6
1513227505268857,2,-20,-25,-16,-10,-5,-4,-15
1513227505268857,25,3,-22,-2,4,3,11,19
1513227505277372,-17,-26,-26,-2,-7,-6,-7,-26
1513227505277372,24,-10,33,-3,1,2,17,32
1513227505283364,-5,26,8,0,-6,-6,-20,-23
1513227505283364,-15,-18,-26,6,1,-3,0,10
1513227505292372,14,32,54,7,0,2,7,26
1513227505292372,-15,8,-45,-8,-8,-4,-2,-21
1513227505308905,-2,-49,-22,-28,-5,0,-6,-12
1513227505308905,8,22,43,13,4,3,14,20
1513227505310384,-3,20,-13,-6,-4,-8,9,19
1513227505310384,11,-13,-13,-9,-1,-2,-12,-24
1513227505330398,16,36,82,32,9,6,9,6
1513227505330398,26,-3,-65,-4,-4,1,2,44
1513227505331899,-32,-10,-7,-30,-10,-8,-7,-62
1513227505331899,11,29,57,21,6,8,23,44
1513227505343407,-13,16,-23,5,-1,-6,-40,-36
1513227505343407,-6,5,35,-15,0,1,11,-10
1513227505352413,19,-59,-34,-2,0,0,-7,7
1513227505352413,-6,34,23,-3,-3,-4,7,16
1513227505367425,-15,-27,-24,7,1,1,11,-22
1513227505367425,-4,26,30,6,-4,-7,-9,-3
1513227505368932,12,1,4,3,1,2,-9,12
1513227505368932,1,8,32,8,1,-3,-13,-20
1513227505389940,-6,-47,-33,-7,-2,0,8,21
1513227505389940,-3,27,-53,-9,-5,-5,-10,-15
1513227505391459,18,3,17,-1,0,1,22,33
1513227505391459,-15,-11,16,-6,-2,-1,-32,-59
1513227505403481,-22,-67,-70,-5,-9,-9,3,-5
1513227505403481,8,10,38,-12,-1,1,-13,-9
1513227505418482,-15,-11,-38,0,-3,-2,-1,9
1513227505418482,13,57,28,2,0,-2,1,17
1513227505427466,5,-26,57,5,5,4,14,25
1513227505427466,16,5,-38,-6,-8,-2,3,17
1513227505428967,-15,10,25,-13,-1,-2,-2,-15
1513227505428967,14,3,-70,-11,-3,-2,-12,-4
1513227505449982,-7,-1,25,10,5,4,-14,-21
1513227505449982,-13,1,40,17,4,1,44,43
1513227505455996,1,13,34,8,3,-2,-18,-8
1513227505455996,6,-8,-31,-13,-5,5,23,22
1513227505463514,-17,33,64,4,1,-5,-52,-53
1513227505463514,12,10,-66,-12,-6,-2,19,19
1513227505472499,10,15,11,15,4,5,16,9
1513227505472499,-13,23,-6,-26,-8,-5,-12,-25
1513227505487524,9,-19,10,13,5,5,25,21
1513227505487524,15,-24,-54,-13,-4,-2,-20,-27
1513227505489039,-5,18,10,2,0,-1,4,27
1513227505489039,1,-38,23,40,9,4,12,28
1513227505510025,33,47,13,-10,9,7,10,-20
1513227505510025,-48,-47,27,3,-6,-6,-9,0
1513227505511540,12,42,-39,2,-4,-5,-31,-37
1513227505511540,-2,-75,-16,-21,-5,1,11,9
1513227505523585,-11,-19,-21,6,-5,-5,7,18
1513227505523585,-4,31,-19,-6,2,3,-12,-9
1513227505532590,-19,-18,42,26,5,-2,-19,-31
1513227505532590,14,28,24,2,-2,-2,-6,-4
1513227505547593,5,3,-77,-33,-11,-1,17,13
1513227505547593,53,40,77,29,8,2,-21,4
1513227505549094,-35,-25,-20,-5,-3,1,13,24
1513227505549094,-7,13,-1,-1,-3,-9,-33,-36
1513227505570096,8,-32,-24,0,0,3,5,-2
1513227505570096,3,-14,22,0,0,-3,-10,-19
1513227505576100,19,63,2,16,5,4,8,6
1513227505576100,-44,-98,4,-26,-8,-5,-10,-3
1513227505583606,-13,-22,-7,-4,-5,-2,19,36
1513227505583606,-3,15,3,-1,1,-2,-11,-7
1513227505592613,-15,12,13,-4,-4,-2,5,23
1513227505592613,-17,-40,-56,-7,-1,-2,-13,-56
1513227505607132,16,72,45,4,-5,-6,-8,-14
1513227505607132,-2,-79,52,-9,-6,-1,3,-17
1513227505609124,-7,-36,-40,6,1,1,-3,0
1513227505609124,10,64,2,-16,-7,-3,12,29
1513227505637144,-4,7,-22,-2,3,3,-13,0
1513227505637144,-4,10,31,1,-2,-5,17,18
1513227505638645,9,10,-3,-13,0,-2,-9,-27
1513227505638645,9,-10,-30,13,1,0,1,-3
1513227505643649,0,-45,15,1,-1,0,17,15
1513227505643649,3,34,71,8,5,3,-18,-21
1513227505652654,-43,-82,-72,-12,-5,-3,-9,0
1513227505652654,1,40,79,15,1,-2,9,16
1513227505667680,-3,29,-24,-32,-9,-3,5,64
1513227505667680,-4,-11,-2,27,11,5,-22,-91
1513227505673680,4,-38,-48,-32,-10,-5,11,4
1513227505673680,15,1,40,25,9,5,-7,9
1513227505690195,-2,39,-4,8,2,3,-10,1
1513227505690195,1,4,3,3,-1,-2,8,16
1513227505695699,10,10,5,-7,-2,-1,-11,-3
1513227505695699,0,5,5,2,1,0,15,2
1513227505703690,0,24,49,20,4,1,13,40
1513227505703690,-18,-4,-82,-25,-6,-3,-23,-44
1513227505712197,34,27,43,17,1,-2,-7,-19
1513227505712197,-20,-54,-52,-29,-10,-5,4,13
1513227505726706,14,43,27,14,1,-6,-15,-17
1513227505726706,-1,11,-10,10,1,3,7,12
1513227505733211,-10,-25,15,-11,-2,1,13,3
1513227505733211,31,18,-11,-10,-6,-5,0,11
1513227505749729,12,-15,-31,-12,-7,-6,-12,-28
1513227505749729,9,-33,2,4,0,-2,18,36
1513227505751237,23,46,26,-1,2,-1,-17,-32
1513227505751237,-13,41,40,7,1,1,-4,19
1513227505772242,-13,-30,-39,-2,-1,-4,-8,-44
1513227505772242,-9,-29,0,-4,-3,-1,14,40
1513227505773742,15,-52,-78,-1,0,0,1,1
1513227505773742,11,4,2,5,0,-2,-3,21
1513227505787770,-20,-5,54,-13,-1,-2,-7,-41
1513227505787770,6,37,-4,-10,-4,-4,-4,16
1513227505800771,-18,-20,50,26,9,8,10,16
1513227505800771,-4,65,-8,-8,-3,0,1,-15
1513227505809775,-21,-64,-23,-1,-4,-6,-5,3
1513227505809775,3,-76,-66,-15,-6,-2,18,4
1513227505811276,-12,25,20,2,-2,-2,11,20
1513227505811276,11,-18,5,8,6,3,-31,-21
1513227505832281,-26,-38,25,6,-2,-6,7,-12
1513227505832281,2,81,33,-7,-5,-3,6,-2
1513227505833782,7,15,19,2,-1,-1,8,14
1513227505833782,-18,-13,-12,-5,2,1,0,-15
1513227505847305,4,6,22,2,-2,0,3,32
1513227505847305,5,-3,0,-3,-1,-1,-12,-24
1513227505848794,-26,17,-8,-8,-6,-9,-1,-1
1513227505848794,-2,19,45,24,9,4,15,30
1513227505869854,30,5,-14,-6,1,1,-15,-3
1513227505869854,14,61,34,3,7,6,17,-5
1513227505871314,-15,-53,-63,-10,-8,-3,-12,-9
1513227505871314,6,19,-28,-9,-4,-6,-25,-21
1513227505892334,2,-12,17,-3,-1,2,-3,5
1513227505892334,-7,-30,8,12,0,1,-16,4
1513227505893836,-18,8,32,-3,2,2,3,4
1513227505893836,5,-8,-20,-5,-1,1,23,-1
1513227505906837,-2,26,-10,0,-3,3,-7,34
1513227505906837,-8,-68,14,-3,-2,-5,-22,-33
1513227505913344,13,20,-6,-1,-2,-2,-5,-20
1513227505913344,-11,-19,16,27,8,6,24,46
1513227505929853,-54,-41,-25,-10,-2,-5,-24,-53
1513227505929853,20,-9,-51,-11,-3,-2,8,19
1513227505931353,11,2,7,-9,-4,-3,-5,-8
1513227505931353,-4,-3,7,-14,-7,-7,-28,-12
1513227505951377,13,15,-8,9,2,1,17,13
1513227505951377,-12,30,43,13,-1,-3,0,6
1513227505959871,-7,0,-14,-11,-7,-1,-8,-5
1513227505959871,3,-28,-5,0,2,1,28,53
1513227505966375,24,14,-40,-15,-6,-4,-34,-80
1513227505966375,-7,-8,-1,1,-4,-3,1,11
1513227505974884,-4,48,-13,3,-2,2,0,47
1513227505974884,4,-38,26,0,0,3,1,-74
1513227505989907,16,71,35,-3,-6,-5,-4,-7
1513227505989907,-33,-7,3,-9,-3,0,11,14
1513227505991398,7,-12,-27,1,-1,0,7,72
1513227505991398,-26,-47,-30,-7,-5,-9,-23,-60
1513227506012420,5,24,-4,2,-2,0,-23,-38
1513227506012420,-13,-31,-3,5,0,-1,7,-17
1513227506013915,19,12,46,-3,3,-2,2,-14
1513227506013915,21,38,5,-1,0,5,18,25
1513227506026932,9,-9,-80,-11,-2,-2,12,36
1513227506026932,-12,9,21,13,3,-1,-1,2
1513227506033435,28,24,0,-12,-1,0,8,-24
1513227506033435,0,18,6,19,2,0,5,18
1513227506057452,-15,-25,35,-25,-6,-3,1,4
1513227506057452,13,34,-21,1,3,2,9,8
1513227506058953,0,-23,-28,4,2,2,0,9
1513227506058953,0,32,58,4,-5,-7,-15,-11
1513227506072454,20,-51,-19,22,12,4,1,2
1513227506072454,8,-16,-6,1,0,1,-5,-4
1513227506073952,-13,-16,18,7,-1,0,-2,-9
1513227506073952,-15,8,-29,-18,-4,-6,7,-18
1513227506086475,-14,-39,-21,-4,-1,4,44,79
1513227506086475,8,27,30,6,1,-10,-64,-61
1513227506093475,7,-2,-12,14,3,1,-8,-51
1513227506093475,2,-41,-33,-20,-7,-1,2,11
1513227506109978,10,24,21,6,1,3,13,16
1513227506109978,2,10,-44,-28,-3,1,17,7
1513227506115985,-8,-21,33,18,6,2,-5,17
1513227506115985,15,-8,-85,-18,-8,-4,-14,-6
1513227506132506,-21,-58,-8,0,-4,-3,-3,-11
1513227506132506,18,77,18,5,-3,0,7,20
1513227506134007,-10,-43,-15,-21,-4,-4,-11,-18
1513227506134007,-9,8,45,19,6,7,3,13
1513227506146513,13,38,18,-6,-2,-1,6,11
1513227506146513,5,-40,26,21,4,0,-1,1
1513227506153528,14,10,-53,-6,3,2,7,-9
1513227506153528,-11,-52,-8,-19,-8,-4,9,48
1513227506170020,-31,7,22,19,4,-5,-45,-50
1513227506170020,-34,-72,-44,-21,-8,-3,5,18
1513227506171524,19,81,49,29,2,-3,-10,-6
1513227506171524,13,-26,-34,-34,-3,-2,-1,-23
1513227506192545,6,28,17,13,1,-1,7,26
1513227506192545,-32,46,41,1,1,3,1,-33
1513227506194047,-14,-73,-11,10,2,-1,-4,12
1513227506194047,-9,58,-34,-10,-2,2,20,20
1513227506206549,-40,-37,-20,3,-2,-4,-18,-36
1513227506206549,18,27,38,-11,-2,-5,8,19
1513227506221079,-6,12,24,6,0,-1,-2,-14
1513227506221079,4,-16,-2,1,0,-1,-12,-14
1513227506230063,13,4,18,4,2,3,20,8
1513227506230063,32,-17,-47,-1,-2,0,-2,21
1513227506231584,-24,-76,-49,-16,-7,-6,-19,-26
1513227506231584,-29,34,82,29,2,-2,7,-5
1513227506252588,-18,4,-45,-24,-3,-1,-8,-17
1513227506252588,-8,-1,5,7,0,-1,-3,9
1513227506254589,1,83,21,-20,-5,-4,8,16
1513227506254589,29,-39,-36,-12,-9,-6,-33,-9
1513227506266108,-12,-3,31,5,0,-1,37,2
1513227506266108,-34,10,2,13,3,1,-13,-12
1513227506275095,19,-23,14,-13,0,1,10,-17
1513227506275095,-11,-6,-12,10,4,-1,-2,-16
1513227506289619,17,31,-43,-6,-3,-2,1,14
1513227506289619,12,-19,-9,-4,1,-1,5,-1
1513227506291606,-3,14,34,13,-1,0,23,42
1513227506291606,-24,-49,-43,-10,1,3,-8,-63
1513227506312125,39,0,41,3,2,-3,-11,4
1513227506312125,-28,-40,-32,1,1,3,8,-6
1513227506314125,10,18,32,25,3,4,2,33
1513227506314125,-2,-2,-38,-22,-4,-6,-2,-22
1513227506326146,-1,22,-52,-6,-2,1,13,12
1513227506326146,6,-2,51,19,3,4,3,0
1513227506335138,-14,-3,-24,-34,-13,-7,-13,-23
1513227506335138,-26,30,62,25,6,2,-16,21
1513227506349648,2,-31,-32,-9,-5,-5,1,-10
1513227506349648,10,-3,-13,6,2,0,5,20
1513227506351649,3,14,24,6,-3,-2,-8,-23
1513227506351649,-1,-10,-32,-17,-4,-3,4,21
1513227506372176,-12,-2,27,-7,-5,-4,-15,-8
1513227506372176,-6,-19,-8,-7,-8,-7,10,14
1513227506373664,-9,13,-23,-1,2,2,-8,-15
1513227506373664,23,7,40,16,3,3,17,41
1513227506385672,-3,-18,6,-1,-4,0,-22,-17
1513227506385672,27,26,-33,-19,-10,-9,-15,-19
1513227506394678,0,22,-10,-11,-2,-2,3,-18
1513227506394678,-6,4,26,15,4,2,1,21
1513227506410190,15,36,1,2,4,3,6,3
1513227506410190,-12,-16,-1,-1,-3,0,3,1
1513227506411690,-1,3,-9,-5,1,1,19,-11
1513227506411690,8,8,-20,17,3,0,-11,-6
1513227506432228,1,-14,-16,-17,-3,0,12,24
1513227506432228,-21,-13,3,3,0,-1,-26,-36
1513227506433723,0,44,30,-6,-1,0,3,3
1513227506433723,9,-10,-17,-14,-8,-4,2,1
1513227506446216,-13,-26,8,21,6,3,8,4
1513227506446216,19,34,15,-16,-5,-4,-27,-15
1513227506454722,-8,-37,3,14,2,1,6,17
1513227506454722,-1,15,-12,-11,-2,2,0,6
1513227506469732,41,18,67,10,3,5,7,10
1513227506469732,-7,-43,-42,-16,-2,-5,-6,-36
1513227506471233,20,-29,21,-6,-6,-6,0,7
1513227506471233,13,17,-2,-7,-7,-7,-11,3
1513227506492248,10,-29,-2,4,2,3,-2,-10
1513227506492248,-18,17,14,17,7,7,36,98
1513227506493749,-4,11,-12,-2,-7,-7,-35,-69
1513227506493749,-8,-10,-15,-25,-5,-1,2,-17
1513227506506272,-3,-40,-25,14,-1,-2,-17,-5
1513227506506272,-3,29,35,-4,0,-2,-7,-12
1513227506514764,-17,-15,-36,0,-3,-2,2,23
1513227506514764,-2,-23,3,9,4,2,20,6
1513227506530276,-21,4,-19,-4,-2,-4,-8,-14
1513227506530276,18,7,1,-12,-6,-2,14,16
1513227506531777,-19,49,17,4,1,-1,-15,-34
1513227506531777,16,-16,13,12,2,-2,-9,7
1513227506552305,-10,10,-10,-2,3,2,11,2
1513227506552305,-7,26,32,-1,1,-1,-10,-16
1513227506553802,29,-23,-39,-10,-3,-2,2,19
1513227506553802,-11,9,21,4,1,3,-3,2
1513227506565802,-6,-17,-50,-19,-6,-5,-9,-21
1513227506565802,13,3,26,12,4,1,25,0
1513227506582312,-11,-15,16,-27,-5,-1,4,40
1513227506582312,26,36,-22,19,6,0,0,-8
1513227506589851,-26,-14,26,-15,-12,-12,-11,0
1513227506589851,-6,-3,0,0,-1,0,-4,-1
1513227506591318,0,-37,21,12,5,0,2,15
1513227506591318,-11,1,21,2,-4,-4,-9,0
1513227506612833,-4,39,15,-19,-6,-4,0,-40
1513227506612833,18,2,-18,5,1,2,0,4
1513227506614334,-16,21,31,11,1,-5,2,-14
1513227506614334,2,-12,1,-7,-6,-3,0,18
1513227506625852,9,36,4,22,3,0,-4,-21
1513227506625852,-3,-22,-42,-30,-3,-2,-4,-9
1513227506634855,9,-49,18,12,0,2,-9,7
1513227506634855,-9,-1,-39,-12,-1,1,2,-14
1513227506650363,24,27,36,16,4,1,2,19
1513227506650363,-12,-37,-23,-2,0,3,2,-3
1513227506651864,21,21,9,0,0,0,25,15
1513227506651864,3,-4,10,-5,0,-1,-12,-24
1513227506672378,4,-32,-7,4,5,5,11,26
1513227506672378,-6,9,29,1,-4,-2,-23,-37
1513227506673877,-5,8,-8,-10,-5,-4,6,18
1513227506673877,-20,-15,-17,8,-2,-3,0,-10
1513227506693910,19,38,-3,-22,-4,3,16,30
1513227506693910,-12,-39,-4,9,-1,-4,-8,-18
1513227506711903,-13,9,1,-17,-3,-2,-10,-14
1513227506711903,14,22,17,10,0,-1,15,0
1513227506712921,-29,-37,-17,-6,0,1,-9,9
1513227506712921,19,24,-73,-3,-3,-3,3,9
1513227506715909,-9,-60,-2,5,2,0,-11,-29
1513227506715909,-30,-30,49,-12,-1,3,-3,-9
1513227506739964,10,3,-17,9,3,-1,7,12
1513227506739964,3,6,-6,4,3,0,-9,-19
1513227506741439,-16,-1,8,6,-3,-3,-16,-17
1513227506741439,33,-32,20,-1,-2,1,8,25
1513227506761439,-37,-26,-83,-18,-9,-7,-6,-23
1513227506761439,34,37,83,7,0,1,8,33
1513227506771946,-27,-28,-70,14,6,5,11,1
1513227506771946,0,20,3,-3,4,1,-18,-5
1513227506772446,-29,-41,-27,-42,-17,-10,-6,3
1513227506772446,16,22,0,11,2,4,29,54
1513227506775954,-13,-16,-26,4,4,-1,-34,-67
1513227506775954,-10,-14,0,-13,-8,-3,-2,-16
1513227506792471,-9,0,52,32,11,5,4,-5
1513227506792471,-4,-13,-23,-5,-5,-6,-7,4
1513227506793965,-10,-3,38,-5,-1,0,3,16
1513227506793965,12,2,-45,-5,-4,-5,-1,1
1513227506821999,14,21,6,7,1,-1,-16,-3
1513227506821999,-24,-22,-19,-9,-3,-2,-1,-20
1513227506824986,7,14,33,13,4,2,6,-1
1513227506824986,-4,40,26,6,1,-2,10,9
1513227506828987,5,11,-7,-5,-3,-1,4,17
1513227506828987,-11,7,19,17,3,0,0,2
1513227506835990,31,9,-71,-41,-13,-6,11,9
1513227506835990,-1,5,-6,-5,-2,-4,-25,-24
1513227506852513,27,27,88,22,5,1,-1,1
1513227506852513,-13,-40,-77,-12,-2,-2,-7,9
1513227506854014,22,21,3,6,2,5,16,30
1513227506854014,-14,0,-5,-5,-4,-3,6,-5
1513227506875033,-3,-50,-77,-8,-3,-2,-2,-22
1513227506875033,34,22,1,10,3,2,0,-10
1513227506876520,-9,-18,14,-1,0,-1,1,5
1513227506876520,27,40,28,3,2,4,1,-1
1513227506889043,-22,14,-46,-2,-1,-3,-2,4
1513227506889043,-8,-5,60,2,-1,0,0,-7
1513227506896048,0,9,-8,-16,-2,-3,-6,-10
1513227506896048,-4,3,44,6,0,3,27,27
1513227506912045,-3,-17,24,-10,-7,-9,-31,1
1513227506912045,-11,-3,-23,-11,-2,-1,-2,-13
1513227506914047,5,-13,-44,1,-3,-3,-12,-29
1513227506914047,-23,53,67,8,-1,-2,7,6
1513227506934575,10,15,2,-11,-3,-2,-13,-21
1513227506934575,-38,-47,-53,-11,-5,-5,-4,6
1513227506936577,1,5,-5,0,-5,-3,3,2
1513227506936577,-13,-23,-24,0,1,1,-4,-14
1513227506949080,-13,-10,-19,-4,-5,-2,4,12
1513227506949080,-3,9,0,-4,-3,-2,10,30
1513227506956103,12,-16,14,11,6,7,-13,-53
1513227506956103,1,61,10,-9,-4,-1,-1,16
1513227506972104,-1,-37,1,1,1,-2,-9,-5
1513227506972104,2,6,-12,-16,-2,0,-3,-16
1513227506973588,-4,31,47,14,1,-2,1,30
1513227506973588,11,-31,-48,-13,-2,-1,-1,-8
1513227507002133,2,33,95,26,5,2,12,11
1513227507002133,20,-32,-54,0,-2,-4,-15,-23
1513227507003621,13,-29,-10,-4,1,5,29,28
1513227507003621,-27,-15,16,14,-2,-5,-8,36
1513227507009116,-3,-29,-2,-13,-4,-6,-16,-67
1513227507009116,-29,27,41,23,-2,-2,3,-10
1513227507016131,-1,0,-26,-20,-5,-1,1,7
1513227507016131,26,-21,-42,5,4,2,0,5
1513227507032142,15,5,23,16,3,6,21,35
1513227507032142,-7,41,24,-11,-1,1,4,44
1513227507034132,-8,27,-19,4,1,-1,4,-16
1513227507034132,7,-32,-27,-11,-5,-9,-32,-43
1513227507054666,-5,-4,31,21,10,7,-14,-26
1513227507054666,-23,-36,-48,-14,-4,-3,6,5
1513227507056660,1,8,36,19,1,-4,-2,14
1513227507056660,9,6,-16,-18,-5,2,8,4
1513227507069170,-12,36,-5,7,4,1,21,23
1513227507069170,7,-25,37,-6,-2,-3,-34,-47
1513227507083179,-2,20,41,-5,-3,-3,0,20
1513227507083179,1,-43,-47,8,0,0,5,-12
1513227507092172,-5,13,35,14,2,1,21,39
1513227507092172,16,24,-6,-11,-1,-1,-15,-38
1513227507098186,-17,-38,-2,2,-1,-1,-7,-7
1513227507098186,8,-31,31,2,0,2,1,4
1513227507113690,6,-6,-22,-15,1,4,13,10
1513227507113690,-10,15,0,-7,-5,-3,-3,-7
1513227507122708,10,43,54,28,2,-5,2,-1
1513227507122708,-18,4,9,-9,1,1,1,3
1513227507129198,-13,-25,-18,-9,-7,-8,-13,-21
1513227507129198,-1,22,5,12,3,3,21,51
1513227507135729,-13,-36,-29,-7,0,-3,-28,-30
1513227507135729,-9,12,-5,1,3,1,2,6
1513227507152230,6,28,-45,-8,-7,-4,-20,-32
1513227507152230,41,-18,3,-21,-1,-1,10,20
1513227507153726,-4,13,-3,-5,-3,-1,-2,13
1513227507153726,-18,-2,22,21,4,0,5,-15
1513227507174775,14,14,-12,-5,0,3,-6,15
1513227507174775,5,9,22,9,0,-2,-9,-7
1513227507176275,5,-43,-41,-6,-3,1,19,22
1513227507176275,15,-7,-35,-6,0,-3,-24,-47
1513227507188824,15,31,18,-13,-5,-4,-14,-14
1513227507188824,-10,-18,1,10,7,2,2,-21
1513227507197292,-5,64,18,-2,-6,-4,13,10
1513227507197292,-9,-20,-18,-1,-1,0,-8,16
1513227507212301,12,7,46,2,-1,-1,7,9
1513227507212301,-3,-8,-21,-17,-10,-6,7,16
1513227507213802,-6,3,-5,2,2,1,-25,-14
1513227507213802,37,24,-5,9,1,-2,8,16
1513227507234817,-1,-30,37,-12,-4,-2,-5,-11
1513227507234817,-10,-28,-16,-14,-3,0,8,-4
1513227507236353,-11,4,-3,2,-1,-1,1,7
1513227507236353,-18,27,25,-4,-2,-1,2,3
1513227507257435,1,16,47,4,-1,-2,7,22
1513227507257435,-22,-10,-26,11,2,-1,4,0
1513227507258913,6,12,2,-12,-4,-3,-11,-39
1513227507258913,-15,-44,-13,0,-2,-1,1,-5
1513227507272426,-20,-2,-70,4,2,2,4,15
1513227507272426,-4,12,19,-1,-1,-1,10,-8
1513227507273924,-22,-11,-7,10,-2,0,12,9
1513227507273924,-2,-12,-20,-15,-4,-6,-14,-7
1513227507302474,-2,-45,13,5,3,6,5,-3
1513227507302474,10,10,-36,18,5,1,-17,-39
1513227507303974,-6,-14,27,3,-2,-1,6,16
1513227507303974,-7,-20,-32,-29,-6,-2,1,-16
1513227507308450,-1,10,-12,-9,-5,-5,-3,-1
1513227507308450,1,-13,11,10,3,2,2,4
1513227507317241,15,25,6,37,16,8,0,12
1513227507317241,-5,10,-7,-17,-10,-7,-3,-25
1513227507332252,-2,-16,-4,-16,-2,-1,6,13
1513227507332252,16,17,13,22,3,1,-8,-7
1513227507333753,10,15,26,-1,0,6,7,6
1513227507333753,22,-19,-45,20,4,0,8,18
1513227507354777,-7,20,-6,-6,-1,-4,-3,-5
1513227507354777,19,23,39,-21,-4,1,0,-8
1513227507361272,-11,-38,-8,-32,-7,-4,-5,3
1513227507361272,11,-7,-77,-17,-4,2,2,23
1513227507378284,-2,-12,8,19,4,3,10,7
1513227507378284,-18,6,14,9,2,0,-27,-33
1513227507379786,21,-34,-4,-7,-4,0,14,26
1513227507379786,-30,42,16,13,4,2,-19,-24
1513227507392309,20,-25,-48,6,0,-2,14,-6
1513227507392309,-14,19,15,9,-2,-1,8,20
1513227507393796,19,1,-13,-34,-6,-5,-18,2
1513227507393796,-15,13,24,5,-2,-3,-9,-22
1513227507414812,7,-7,-9,2,2,1,-6,-10
1513227507414812,5,-8,-7,-2,-2,-5,1,6
1513227507416312,-17,11,19,15,1,-1,-1,-1
1513227507416312,9,37,20,3,-3,-3,8,17
1513227507428321,-40,2,-50,-20,-6,-2,0,-10
1513227507428321,-1,-14,-12,-15,-4,-1,3,14
1513227507445332,-22,-27,39,8,2,-1,6,-15
1513227507445332,3,-11,-14,11,3,3,-27,-10
1513227507452337,9,-15,-4,0,1,-1,18,2
1513227507452337,-35,17,24,0,1,2,11,25
1513227507453838,-9,-27,-81,-24,-13,-9,-19,-63
1513227507453838,-2,0,76,21,4,1,11,15
1513227507474853,-29,-2,12,-12,-2,-1,-13,-16
1513227507474853,15,-13,-3,8,0,0,2,2
1513227507476354,16,37,-52,-8,-2,-3,-4,-2
1513227507476354,8,-5,-20,-37,-10,-6,12,23
1513227507488363,-5,21,-1,16,3,-1,-14,-10
1513227507488363,8,-16,13,-16,-3,-1,1,7
1513227507497369,-11,10,17,0,-4,-2,6,20
1513227507497369,10,45,11,9,-2,-2,-25,-59
1513227507512380,10,-12,-19,-11,-3,-4,1,12
1513227507512380,13,10,-9,28,9,5,-1,1
1513227507513884,8,3,-28,-37,-10,-3,15,31
1513227507513884,17,0,53,3,0,-4,-31,-37
1513227507534917,-18,5,14,10,-1,-4,-9,-4
1513227507534917,15,-12,37,8,6,4,-3,-17
1513227507536401,-20,20,7,-2,-4,-3,0,-2
1513227507536401,-22,-7,48,-2,2,2,29,45
1513227507548550,23,17,-33,0,-4,-3,-20,-10
1513227507548550,12,-19,2,-11,-6,-6,0,-6
1513227507557559,-6,-24,-19,6,4,4,-7,-19
1513227507557559,1,-7,-28,-21,-6,-3,16,19
1513227507572075,-5,-1,40,14,2,1,-1,-3
1513227507572075,-14,25,19,5,-2,-3,-3,-5
1513227507580072,0,-18,-6,0,0,-1,20,13
1513227507580072,9,31,6,13,1,5,3,19
1513227507602090,-3,-1,-29,-18,-5,-5,-14,-11
1513227507602090,-18,10,6,-8,-4,-5,-4,2
1513227507604101,3,-13,1,7,0,-2,-7,-12
1513227507604101,-26,-12,-18,-17,-7,-4,18,25
1513227507617101,19,2,38,18,5,5,12,-12
1513227507617101,-22,-1,-26,-19,-8,-3,1,9
1513227507619103,6,-12,-10,2,-1,-1,-13,-5
1513227507619103,2,7,3,9,4,2,-16,-15
1513227507639633,-7,-22,-9,-25,-8,-7,7,28
1513227507639633,0,-1,9,7,1,-4,-14,-58
1513227507641115,26,29,-1,10,2,3,5,10
1513227507641115,7,-42,-12,-10,-1,0,13,21
1513227507656137,-23,6,0,13,3,-4,-8,-18
1513227507656137,15,3,-21,-4,0,3,3,4
1513227507657626,-32,-63,19,0,-3,-6,-11,-5
1513227507657626,-3,76,58,13,2,1,4,-19
1513227507677140,20,-65,-52,-19,-4,-2,1,-3
1513227507677140,-10,-21,-1,-9,-5,-3,-4,13
1513227507679142,-9,9,-18,11,6,4,-2,8
1513227507679142,14,-37,-6,-8,0,-3,-9,-25
1513227507692152,-6,52,61,20,1,4,11,-1
1513227507692152,17,-43,-44,-18,-6,-5,-14,-6
1513227507694153,-7,54,-4,-7,1,0,0,5
1513227507694153,-20,12,42,23,3,-1,1,9
1513227507714666,11,-32,-33,12,3,4,-10,-29
1513227507714666,-9,-16,-11,-34,-12,-7,9,9
1513227507716668,-1,32,35,2,-2,-1,-3,-7
1513227507716668,24,-36,-24,-4,-2,-4,-17,-15
1513227507737183,-11,-6,-42,8,-4,-3,1,19
1513227507737183,-8,30,21,-15,0,3,5,-13
1513227507738684,18,-22,6,13,5,-2,-5,4
1513227507738684,-1,11,-12,8,0,0,7,-9
1513227507752694,-13,-35,-20,-21,-8,-5,-2,3
1513227507752694,7,30,27,1,3,1,-11,4
1513227507758700,-4,2,3,-18,-7,-2,-3,4
1513227507758700,12,-19,-20,10,3,4,9,-2
1513227507774709,-4,10,35,0,-2,-4,1,8
1513227507774709,-35,-21,-66,10,4,3,1,-2
1513227507776211,12,43,88,-3,0,-1,-4,3
1513227507776211,-44,-54,-92,-3,-10,-2,19,41
1513227507797224,-14,12,50,-8,1,3,-12,-26
1513227507797224,-13,-38,-17,4,1,1,16,-3
1513227507798726,26,35,50,18,2,0,-11,-4
1513227507798726,-6,-81,-42,-8,-5,-4,4,11
1513227507811737,6,52,50,-6,3,5,5,10
1513227507811737,15,-35,-33,40,6,2,11,11
1513227507818257,-19,3,-63,-28,-9,-4,-1,-2
1513227507818257,5,-16,53,9,10,3,1,5
1513227507842257,3,10,-73,-15,-7,-7,-11,-10
1513227507842257,10,17,43,2,1,0,-9,9
1513227507843758,7,-28,-74,4,-1,1,3,-25
1513227507843758,-2,10,10,11,-1,2,-8,15
1513227507857270,13,21,39,2,1,-4,18,3
1513227507857270,-13,28,-5,-29,-10,-5,-3,-3
1513227507858769,-7,-39,-2,21,1,-5,-6,8
1513227507858769,-4,25,-3,-7,7,3,-4,-16
1513227507871777,-26,7,39,9,1,2,5,26
1513227507871777,-9,-19,-20,-23,-4,-6,-26,-41
1513227507878282,14,-14,5,14,0,-1,13,27
1513227507878282,-14,20,5,-28,-5,-3,-11,-31
1513227507902802,27,-30,3,15,4,3,-11,17
1513227507902802,3,-27,-3,23,2,-1,15,14
1513227507904300,-10,-29,-15,-25,-3,-2,-18,-20
1513227507904300,-18,-4,-1,17,0,-2,11,5
1513227507916809,5,38,32,20,3,6,8,26
1513227507916809,1,-38,-35,-45,-9,-7,-18,-32
1513227507917309,12,27,39,20,7,7,12,2
1513227507917309,-8,48,22,-12,-2,-5,-12,-22
1513227507930819,0,-14,-48,-3,-3,2,18,0
1513227507930819,-2,6,23,0,-1,-3,-7,27
1513227507938825,10,35,19,-9,-2,-3,-11,-14
1513227507938825,-35,-2,-4,11,2,1,7,3
1513227507953838,10,-5,4,-8,-3,-3,-10,-14
1513227507953838,20,24,28,25,3,6,12,14
1513227507954836,-12,-17,-27,-20,-1,1,0,6
1513227507954836,41,-11,22,9,5,5,3,12
1513227507976352,-39,-38,-34,-6,-6,-4,-1,-16
1513227507976352,8,34,7,-3,-1,3,7,3
1513227507977352,0,13,27,10,1,-2,-11,-3
1513227507977352,5,-27,-48,7,2,1,-5,-4
1513227507990864,14,22,-31,-14,-5,-1,9,11
1513227507990864,-8,10,13,10,3,0,-9,8
1513227507998868,-1,36,1,-9,-5,-2,-1,-28
1513227507998868,-11,-27,10,-20,-7,-5,7,20
1513227508013891,-9,44,-10,-6,2,1,-13,-15
1513227508013891,-14,12,-9,21,1,-4,4,-11
1513227508014882,6,28,17,-5,-1,-1,2,8
1513227508014882,-9,-23,-3,-2,-2,-5,2,8
1513227508036405,23,3,17,-1,-7,-10,-26,-35
1513227508036405,-16,-29,-20,-11,-2,3,5,5
1513227508037398,-9,3,24,-7,-2,-2,5,-1
1513227508037398,22,11,-17,-3,-4,-1,0,-6
1513227508050916,1,1,9,0,0,-3,-4,-1
1513227508050916,6,-15,5,18,-2,-3,-7,-6
1513227508058910,-9,-34,-65,-15,-1,-2,2,1
1513227508058910,1,2,-29,-20,-6,2,4,-2
1513227508074421,-14,-1,-20,5,2,0,2,25
1513227508074421,24,33,44,-2,-3,-3,-21,-32
1513227508074922,-10,-72,-51,-16,-6,-3,-4,10
1513227508074922,-7,35,42,34,2,-3,-6,-8
1513227508096936,-25,-14,1,-12,-1,0,3,-6
1513227508096936,-18,4,-21,-10,-3,0,7,19
1513227508097938,24,13,8,18,-1,-4,11,-2
1513227508097938,-14,-69,29,4,0,-2,-17,-21
1513227508110946,4,-8,20,-24,-9,-2,23,4
1513227508110946,-8,49,-14,-19,-8,-5,-13,3
1513227508118955,-11,16,14,9,7,5,9,11
1513227508118955,15,-14,-17,-3,-7,-8,-20,-11
1513227508133974,-8,-37,-85,7,0,-2,-15,-24
1513227508133974,7,3,24,14,1,2,6,-3
1513227508134964,-14,-5,37,-7,0,1,11,9
1513227508134964,9,-12,-68,-30,-9,-6,1,1
1513227508156479,4,17,35,19,6,1,-8,-1
1513227508156479,-7,-35,-3,-11,-3,-2,4,-2
1513227508157480,17,54,8,10,3,1,3,5
1513227508157480,6,-9,12,5,2,1,-5,9
1513227508179009,20,42,75,1,2,2,5,6
1513227508179009,-6,8,-36,-13,-2,-1,7,-4
1513227508179996,-13,-28,-14,4,-2,-1,3,12
1513227508179996,-10,-1,23,-8,-1,2,-1,-25
1513227508194018,22,25,-3,5,-3,2,-2,13
1513227508194018,2,-16,-6,-17,0,0,4,-13
1513227508195006,24,-90,-46,1,-4,1,4,16
1513227508195006,-26,86,2,-1,-2,-4,-15,-19
1513227508216522,2,-62,-18,-8,2,1,11,14
1513227508216522,12,21,103,51,14,4,-4,4
1513227508217523,-11,-8,-106,-33,-13,-6,0,-15
1513227508217523,11,33,21,14,6,0,-10,17
1513227508231031,-7,-1,18,-7,-7,-4,-20,-23
1513227508231031,-12,-40,-50,-9,4,-1,-21,-10
1513227508239038,-6,31,69,26,3,3,-8,-23
1513227508239038,4,19,-4,-10,-3,1,11,17
1513227508254048,-3,-10,-29,-18,-1,-1,-11,2
1513227508254048,36,27,32,4,-4,-4,4,11
1513227508254548,-9,-10,0,8,1,-1,-2,1
1513227508254548,-28,-29,-42,-9,-5,-5,-18,-18
1513227508276565,12,-17,28,-2,-4,-4,8,4
1513227508276565,-1,32,40,-1,3,2,-1,-7
1513227508277063,-7,-40,-29,-1,0,0,-2,15
1513227508277063,-6,-40,-10,-9,-6,-2,-1,6
1513227508291099,-1,0,1,14,2,1,0,-24
1513227508291099,13,9,4,-3,-4,0,11,26
1513227508299089,-20,23,18,4,4,0,-11,-5
1513227508299089,12,17,24,0,1,3,8,-1
1513227508314156,-21,-22,-25,-26,-5,-2,5,12
1513227508314156,12,-16,-2,3,-1,-1,3,0
1513227508314653,-15,-3,3,-12,-3,-2,-7,-15
1513227508314653,22,55,27,12,5,2,21,16
1513227508336670,1,-27,-25,15,0,-1,-5,-17
1513227508336670,-8,-17,-41,-37,-6,-4,-17,19
1513227508337169,4,27,10,-6,-3,-6,9,-3
1513227508337169,26,-1,32,14,3,3,-3,-1
1513227508351179,-16,53,21,-9,-3,-1,6,-2
1513227508351179,-7,24,12,1,-1,0,-1,-5
1513227508366704,20,-32,-6,1,-1,-1,-3,5
1513227508366704,-9,-32,-50,-12,-6,-4,8,4
1513227508374198,16,3,19,24,7,5,-9,2
1513227508374198,-7,-9,-12,10,0,-3,0,2
1513227508374696,-6,1,7,-23,-5,0,-8,-4
1513227508374696,26,15,22,25,5,-2,-6,-18
1513227508396711,-30,-6,-14,-22,-4,-3,3,10
1513227508396711,-11,-1,10,2,-1,-2,7,-19
1513227508397212,-13,3,-28,1,-1,-3,-7,-2
1513227508397212,-4,-4,24,8,2,3,1,-1
1513227508410722,14,2,-52,-19,-3,-4,10,20
1513227508410722,-17,-29,-19,5,-4,-3,6,-19
1513227508419279,4,-20,7,-11,-2,-2,-4,10
1513227508419279,-12,10,0,2,-2,-1,6,13
1513227508434238,4,-7,-2,-13,-7,-5,-19,-19
1513227508434238,0,-12,-23,3,3,2,11,19
1513227508441743,9,-12,6,19,4,-2,-10,-21
1513227508441743,-8,39,25,4,2,2,12,2
1513227508456764,26,12,11,-4,3,2,6,14
1513227508456764,-26,-23,-12,-1,0,0,0,18
1513227508457255,0,-17,-35,9,1,-1,-19,-34
1513227508457255,-9,-19,-47,-14,-7,-6,-13,-14
1513227508470767,12,51,45,8,5,1,7,4
1513227508470767,-2,4,-69,4,-4,-1,5,18
1513227508486789,-12,0,22,-7,2,1,-22,-28
1513227508486789,-5,-21,-43,-30,-7,-5,-1,2
1513227508493816,-6,-33,-16,20,4,2,-11,-6
1513227508493816,6,28,36,-2,-4,-4,5,7
1513227508494817,-1,1,21,13,-1,-2,10,12
1513227508494817,0,-27,-9,-14,-1,2,-1,-11
1513227508516352,24,24,-4,1,-5,-2,-10,7
1513227508516352,-6,-10,38,7,-1,-3,-1,1
1513227508517352,12,10,-35,-24,-9,-5,1,-23
1513227508517352,17,9,37,6,-1,-4,-7,1
1513227508539860,-15,-13,-50,-9,-3,-4,4,6
1513227508539860,20,-20,5,2,1,3,15,8
1513227508540349,8,25,10,-5,-5,-2,-19,2
1513227508540349,-4,-11,24,-6,-3,-4,-6,2
1513227508553870,-1,14,30,13,-1,-1,0,-8
1513227508553870,5,-10,-22,-26,-3,-2,-10,-11
1513227508554859,-13,-4,34,25,2,0,23,25
1513227508554859,-1,-4,-54,-30,-2,-1,-6,-15
1513227508576375,-15,-4,12,0,-2,-2,4,9
1513227508576375,2,24,-5,4,0,-2,-13,-20
1513227508577376,-7,-6,6,-2,3,4,12,9
1513227508577376,-4,16,23,20,0,0,1,-2
1513227508599906,-3,-15,-12,-22,-5,-1,-1,-9
1513227508599906,-6,12,15,10,4,2,-3,-2
1513227508600394,5,-5,-1,-12,-2,1,3,16
1513227508600394,-1,3,-2,14,1,-2,4,-4
1513227508613902,-18,-27,2,3,0,-3,-2,-3
1513227508613902,15,1,17,-1,-3,-5,-9,-11
1513227508614902,-2,17,-1,9,2,2,5,7
1513227508614902,-6,-23,26,-4,-4,-3,-7,-5
1513227508644438,-6,-25,-76,-6,-2,-3,1,0
1513227508644438,-5,3,14,5,3,2,-3,-9
1513227508645425,-3,-14,-41,-13,-8,-10,-7,-4
1513227508645425,3,7,1,-4,1,5,9,7
1513227508659933,7,1,1,11,1,1,-2,-6
1513227508659933,-13,-44,-16,1,-4,-5,-4,-3
1513227508660433,-2,24,18,-5,0,-1,-6,-1
1513227508660433,-2,-13,10,3,2,1,1,2
1513227508673943,-3,2,20,11,-2,-2,-5,2
1513227508673943,-5,-1,-20,-6,-4,-3,-3,-4
1513227508674944,4,8,16,-2,-2,0,2,-2
1513227508674944,-3,-5,-10,1,1,-2,1,2
1513227508696459,-2,11,16,-3,0,-1,-2,-3
1513227508696459,3,8,-4,1,-1,1,0,1
1513227508697462,-8,-9,0,0,-1,0,1,-6
1513227508697462,-1,8,3,-1,-2,-2,0,1
1513227508719478,-4,-20,-3,-3,0,1,2,-1
1513227508719478,-3,4,5,-1,1,0,-3,-1
1513227508720476,-1,-1,-6,2,-1,-2,0,2
1513227508720476,-4,-2,-6,1,-1,-1,-4,-2
1513227508733985,2,4,17,-7,1,-1,0,-1
1513227508733985,-4,-1,-6,-4,-2,-2,-3,-1
1513227508734987,-1,4,-4,2,-1,0,0,-1
1513227508734987,-4,1,-12,1,-1,-1,-1,0
1513227508758003,-4,-5,23,-5,-2,-2,0,-1
1513227508758003,2,8,11,3,2,0,0,-1
1513227508759014,0,-9,-14,-4,-3,-1,0,0
1513227508759014,0,-4,-6,2,2,1,0,1
1513227508780043,-2,-1,-11,2,-3,-2,-3,1
1513227508780043,-1,-1,2,-5,-3,-1,-2,-2
1513227508780519,1,2,8,1,-1,-1,0,-1
1513227508780519,-1,-2,8,-5,-3,-3,-1,-2
1513227508810039,1,1,-2,3,-1,-2,-1,-1
1513227508810039,-1,-1,-1,1,0,-2,-1,-1
1513227508810540,-2,0,-10,0,1,1,0,-2
1513227508810540,-3,4,24,0,-4,-3,-1,-1
1513227508816560,-3,-6,0,1,-1,-2,0,0
1513227508816560,-1,1,9,5,-1,1,-1,1
1513227508817548,-1,2,-1,-8,-1,-1,0,1
1513227508817548,-1,1,-17,-4,-3,-1,-1,-1
1513227508839560,0,4,-1,-1,-1,0,-1,-3
1513227508839560,-5,-6,-24,0,-3,-1,-1,-2
1513227508840561,1,-5,-11,-6,-1,-2,-1,-4
1513227508840561,0,4,2,4,-1,-1,-3,-5
1513227508854073,1,-2,0,-7,-1,-2,-3,0
1513227508854073,-3,6,11,-11,-1,-2,2,-3
1513227508854573,0,-4,-38,1,2,2,3,0
1513227508854573,0,-4,14,-11,-3,-5,-3,-1
1513227508876587,0,2,2,13,-1,0,0,-2
1513227508876587,-2,-2,8,-2,1,3,0,1
1513227508877086,0,3,14,-4,-2,-1,-4,2
1513227508877086,0,-3,-14,5,0,-1,2,-2
1513227508899628,-1,-4,12,-8,-1,-1,-9,0
1513227508899628,1,1,-3,1,-3,-1,5,-1
1513227508900605,-2,-6,2,2,0,-2,-1,-2
1513227508900605,1,-3,-8,-3,0,1,1,0
1513227508914125,-6,-3,1,3,0,0,-1,-1
1513227508914125,5,-1,-10,0,-1,-3,-4,-2
1513227508914627,-2,0,15,0,2,0,1,-1
1513227508914627,-5,-1,-5,-6,-2,-1,-5,-1
1513227508936630,-1,-1,-10,0,0,0,1,-2
1513227508936630,1,-2,-3,0,0,0,-1,2
1513227508937129,-3,1,9,-1,-3,-1,-2,-9
1513227508937129,0,-1,-4,0,-1,-1,-1,0
1513227508959658,-3,-1,-2,-2,-1,0,1,-1
1513227508959658,-2,-2,-9,-4,-1,-1,-2,-2
1513227508960646,1,2,7,-1,-2,-2,-2,2
1513227508960646,-2,-2,-4,-3,-1,-2,-2,-1
1513227508974169,2,-1,-2,0,-1,-3,1,-1
1513227508974169,-1,-1,-2,-1,-2,-3,-5,-1
1513227508974655,-1,-1,3,-2,-1,-1,-2,-2
1513227508974655,-3,1,-2,0,-1,0,-1,-1
1513227508998172,1,-2,-4,0,-1,-1,0,0
1513227508998172,-2,-3,-3,-2,-2,-1,-1,-2
1513227508998673,-2,2,4,2,-1,-4,1,0
1513227508998673,1,-2,-2,-1,-3,-2,0,0
1513227509019687,-3,-3,-3,0,-1,-1,0,-2
1513227509019687,0,-1,-3,-3,-1,-2,-1,-1
1513227509020688,-3,-2,0,-2,0,-1,-1,0
1513227509020688,-3,-2,-2,-3,-2,-1,-1,-3
1513227509042204,-1,0,-2,0,-1,-2,-2,-1
1513227509042204,-1,1,-1,-1,1,-3,0,-1
1513227509043205,-1,-2,1,0,-3,-1,-2,-2
1513227509043205,0,0,0,0,0,0,-3,-1
1513227509056770,0,-2,-3,-1,-1,0,-1,-1
1513227509056770,0,-2,-3,-1,-1,1,-1,-1
1513227509057214,-1,-1,1,-1,2,-2,-1,0
1513227509057214,-1,1,-3,-1,-1,0,0,0
1513227509079731,0,-2,0,-2,-1,-1,1,-2
1513227509079731,-2,-1,-1,0,0,-1,-1,-1
1513227509080732,-1,-1,2,0,-2,-1,-1,-1
1513227509080732,-1,-3,-4,-3,-2,0,-1,-1
1513227509094242,-1,-1,-4,-1,0,0,-1,0
1513227509094242,0,-1,-2,-1,-1,-1,-2,-1
1513227509094742,-3,-2,-1,-2,-2,-2,-2,-1
1513227509094742,-1,-1,-1,-2,0,-1,1,-1
1513227509116756,-2,-1,-2,0,-2,-1,-1,-1
1513227509116756,-3,1,-2,-1,-2,-1,-1,0
1513227509117257,0,0,-1,-1,0,0,-1,-1
1513227509117257,-1,-1,0,-1,1,-1,-3,-1
1513227509139830,0,-1,-1,-2,0,-2,0,0
1513227509139830,0,-1,-1,1,-2,-3,-1,-1
1513227509140787,-2,-2,-1,-1,-1,0,-1,-1
1513227509140787,-2,-2,0,-1,-1,-1,1,-2
1513227509153302,-2,-1,-1,0,0,0,-1,-1
1513227509153302,-1,0,-2,0,-2,-1,-1,1
1513227509161802,0,-1,1,-1,-1,-2,0,-1
1513227509161802,0,0,-1,-1,-1,-2,-2,1
1513227509176803,-1,0,-1,0,-1,-1,-1,-2
1513227509176803,0,-2,-2,-2,-1,-1,-1,-2
1513227509177300,0,0,-1,-1,-1,1,-2,-1
1513227509177300,-1,-2,-2,-2,-2,-3,0,-1
1513227509199834,-1,1,-1,-1,0,-1,0,0
1513227509199834,-1,0,-1,-1,0,-1,-1,0
1513227509200320,0,1,-1,-1,0,-1,-2,-1
1513227509200320,0,1,-2,-2,-1,-1,0,-1
1513227509213337,-1,0,-1,-2,-1,0,0,-2
1513227509213337,-1,-2,-2,0,0,1,-1,-1
1513227509221342,0,-3,-1,1,0,-2,0,-1
1513227509221342,0,-3,-2,-1,-1,-1,0,0
1513227509236532,0,-2,-2,-2,-3,-1,-1,-1
1513227509236532,-2,-2,1,-3,-2,-2,-1,-2
1513227509237017,-1,-1,-1,-2,-1,1,0,-2
1513227509237017,0,0,-3,0,-2,-2,-2,-1
1513227509260036,-1,-1,-2,-1,1,-1,-1,1
1513227509260036,-1,1,0,-1,-2,-1,-1,-2
1513227509260541,-2,-2,-1,-1,-2,-2,-1,-1
1513227509260541,0,-1,-1,-2,0,1,-1,-3
1513227509273559,-2,-1,-1,-1,0,-3,-1,0
1513227509273559,-1,-1,-2,-1,1,-2,0,0
1513227509281549,-1,-2,-1,-2,-2,0,-1,-2
1513227509281549,-3,-1,0,0,-1,-2,0,0
1513227509296560,0,-3,-1,-2,-2,0,-1,1
1513227509296560,-1,1,-1,0,-3,0,-2,-2
1513227509304064,0,-2,-1,0,-2,-2,-1,0
1513227509304064,-2,-2,-1,-3,-1,-1,-3,-1
1513227509319595,-2,-1,-2,-1,-1,0,0,-1
1513227509319595,-1,-3,-1,0,-2,-1,-2,-2
1513227509320587,-2,-3,-1,-1,-2,-1,-1,0
1513227509320587,0,0,-2,-3,0,-1,-2,0
1513227509333145,0,-1,-1,0,-1,-3,-1,-2
1513227509333145,-2,0,0,-1,-1,-1,-1,-1
1513227509341653,-1,-1,-1,0,-1,-1,-1,-1
1513227509341653,-1,-1,-1,-2,-2,2,-1,-1
1513227509356651,-1,1,0,-1,-1,-1,-1,-1
1513227509356651,0,-1,-1,-2,0,-2,-1,0
1513227509357152,0,0,-1,0,-1,-1,-1,-2
1513227509357152,-1,0,-1,0,-1,-2,-2,-2
1513227509387183,-1,-2,-1,-1,-1,-1,0,-2
1513227509387183,-1,-2,-2,-1,-1,-1,0,-1
1513227509388184,-2,0,-3,-2,0,-1,-2,0
1513227509388184,-1,-1,-2,-1,-1,0,0,-2
1513227509393178,-1,-2,0,-1,0,0,-1,0
1513227509393178,-2,-1,-1,-3,-1,-2,-1,-2
1513227509401720,0,0,0,-2,-1,-2,0,-1
1513227509401720,0,-2,0,-1,-1,0,0,0
1513227509416703,-3,0,-1,-1,0,-3,-1,1
1513227509416703,-1,-1,-2,-1,-2,-2,0,-1
1513227509417206,0,1,-2,-2,-1,-1,-1,-1
1513227509417206,0,0,-1,-1,-1,-1,0,-1
1513227509440267,-1,-2,1,-1,0,0,0,-2
1513227509440267,-1,-1,0,-2,0,-1,-1,0
1513227509440710,-2,-2,-1,-2,-1,0,-2,-1
1513227509440710,0,-1,0,-1,-2,-3,-2,-2
1513227509453238,0,0,-1,-1,0,-1,-2,-1
1513227509453238,0,0,-1,-1,-1,-1,-2,-1
1513227509461725,-1,-2,-1,-2,-1,-2,2,-2
1513227509461725,-2,1,-1,-2,-1,-2,-2,-1
1513227509476769,1,-1,-1,0,-3,-1,-2,0
1513227509476769,-3,-2,-1,0,0,1,-2,0
1513227509477269,-2,0,2,-1,-1,-1,-2,-1
1513227509477269,-1,-2,0,0,-1,-1,-1,-2
1513227509500296,-1,1,-1,-2,-2,0,-1,-1
1513227509500296,-1,-1,0,1,-2,-1,0,-1
1513227509501290,0,-2,-1,-2,-1,0,-1,-2
1513227509501290,-1,-1,-2,-1,-1,-1,-2,-1
1513227509522341,-3,-2,-1,0,-2,-1,-1,-2
1513227509522341,-2,-2,-1,-2,0,-1,-1,0
1513227509523303,-1,-1,-3,-1,-3,0,1,0
1513227509523303,-2,-2,0,-2,-1,-2,-1,-2
1513227509536326,2,-3,-1,-1,0,-2,0,-1
1513227509536326,0,0,0,0,-2,-1,2,-1
1513227509537327,0,-1,0,-1,-2,-3,-2,-1
1513227509537327,-1,0,-2,-1,0,-1,-1,1
1513227509559829,-2,0,0,-2,-2,-3,-1,-1
1513227509559829,-1,-1,1,-3,-1,0,-2,-2
1513227509560329,-2,0,0,-1,-2,0,-1,0
1513227509560329,-2,-2,0,-1,-2,-2,0,0
1513227509582358,-1,-1,-3,-1,1,0,-1,1
1513227509582358,-1,-1,-2,-1,-1,-3,-2,-1
1513227509582843,0,-3,-1,-1,-1,-1,0,-2
1513227509582843,-1,-3,-1,-1,-1,-1,0,0
1513227509596363,-1,-2,0,-1,-1,-2,-1,-2
1513227509596363,-1,-1,-2,-2,-1,1,-1,0
1513227509597353,0,0,-1,0,-1,-1,-1,-3
1513227509597353,0,0,-1,-1,-1,-1,1,-3
1513227509619870,-1,0,-1,0,-2,0,-1,-1
1513227509619870,-1,-1,-2,-1,0,0,-2,0
1513227509620369,-1,-1,-2,-1,0,-1,-1,-1
1513227509620369,-1,-1,-2,1,-1,-1,-2,0
1513227509642401,-3,-3,-2,-2,-1,0,1,-1
1513227509642401,-2,-1,1,-2,-1,-1,0,0
1513227509642887,0,1,-1,0,-1,-1,-1,1
1513227509642887,-1,0,-1,0,-1,0,-1,0
1513227509664931,-1,0,-1,-2,-2,-1,-2,-2
1513227509664931,-1,-2,-3,-1,0,-2,0,-1
1513227509665407,0,-2,0,0,-1,1,-2,-1
1513227509665407,0,-2,0,-1,-2,-1,-1,-1
1513227509679923,1,-1,-2,-2,-1,-1,-1,0
1513227509679923,0,-1,0,-1,-3,-1,-1,0
1513227509680413,0,0,0,0,-1,-1,0,-1
1513227509680413,-3,-1,0,-3,-1,0,-1,-1
1513227509702937,-2,-1,0,0,1,0,0,2
1513227509702937,-2,0,-2,0,-1,-1,-1,0
1513227509703430,0,0,-3,0,-1,-1,-1,0
1513227509703430,-2,-2,-1,-2,0,0,-1,-1
1513227509716464,0,-1,-1,-1,-2,-2,-1,-2
1513227509716464,2,-3,0,-2,0,-2,-1,-2
1513227509717465,0,-3,-1,-2,0,-1,-1,-2
1513227509717465,1,0,0,0,-2,-1,-1,-1
1513227509739472,-1,0,0,0,-2,-2,-3,0
1513227509739472,0,0,-1,0,0,-1,0,0
1513227509740455,-2,0,-3,-1,-3,-2,0,-2
1513227509740455,-1,0,-1,0,0,-1,0,-2
1513227509761969,0,0,-1,-1,1,-2,0,-2
1513227509761969,-2,-1,-2,0,0,-1,-2,0
1513227509762970,-1,-3,0,-2,-2,-2,-2,-1
1513227509762970,-1,-1,-1,-2,-1,0,-2,-1
1513227509776494,-2,-1,-3,-1,-2,0,-1,-1
1513227509776494,-2,-1,-1,-1,-1,0,0,-2
1513227509777481,-3,-1,-1,-1,-2,0,-2,-1
1513227509777481,0,0,-1,0,-2,1,-1,-1
1513227509799508,1,-1,0,-1,-2,-1,-2,0
1513227509799508,-3,-1,-1,-3,-2,1,0,1
1513227509800497,-2,-2,-1,-1,-1,-2,-1,-1
1513227509800497,0,-1,-1,-3,1,-3,0,-3
1513227509822036,-1,0,-3,-1,-1,-1,0,-2
1513227509822036,0,1,-1,0,-2,-2,-2,-2
1513227509823013,0,-1,0,-2,-1,0,-1,-1
1513227509823013,-1,-2,-2,-2,-2,-1,-2,0
1513227509836535,-2,-1,-2,-1,-2,-1,0,-1
1513227509836535,-1,-3,0,0,-2,-1,-2,-1
1513227509837536,-2,0,-1,-1,-1,-1,-1,-1
1513227509837536,-2,0,-2,-1,-3,0,-1,-1
1513227509860039,-1,0,0,-3,-1,-1,-1,-1
1513227509860039,-1,-1,0,-3,-2,-1,-2,1
1513227509861040,-1,-1,-3,-2,-1,0,-1,-2
1513227509861040,-1,0,-2,0,-1,0,-1,0
1513227509882066,-1,-3,-1,1,-1,-2,-1,0
1513227509882066,-1,-1,-1,-1,0,0,-1,-2
1513227509883055,0,0,-2,1,-2,0,-1,0
1513227509883055,1,-2,-1,-1,-1,-1,-2,-1
1513227509896576,1,-2,1,-2,-1,0,-2,1
1513227509896576,-1,-1,-3,-1,-1,-2,-1,-2
1513227509897068,1,-1,-1,0,0,0,-1,-2
1513227509897068,0,0,-2,0,-1,0,-1,0
1513227509919598,-1,0,-2,0,-2,-1,-1,-1
1513227509919598,0,1,-3,0,-2,0,-1,0
1513227509920583,0,-1,-1,0,-2,-1,-1,-2
1513227509920583,-1,1,0,-2,-2,-3,-2,-1
1513227509943611,-2,0,-1,-2,0,0,0,-3
1513227509943611,-1,-1,2,-2,-1,-1,-2,1
1513227509944102,-2,-1,-1,-1,-1,-2,-1,-1
1513227509944102,0,-3,-2,-1,-2,-1,0,-1
1513227509956630,-1,-3,-3,-2,-2,0,0,0
1513227509956630,0,-1,0,-1,-1,0,0,0
1513227509957118,-1,-1,-2,-2,1,-3,-1,-1
1513227509957118,-1,0,-1,-3,-2,-2,0,-1
1513227509980128,-2,0,-1,-1,1,0,-2,-1
1513227509980128,0,-3,-3,-1,-2,-2,-3,-2
1513227509981128,-2,-2,-1,0,1,0,-1,-1
1513227509981128,-2,-2,-2,0,0,-3,1,-1
1513227510002153,0,-2,0,1,-2,-1,0,0
1513227510002153,0,0,-2,0,0,0,-1,-2
1513227510003655,-1,-1,-1,-1,-1,-2,0,1
1513227510003655,-3,-1,-2,0,0,-2,-1,0
1513227510016160,-2,-1,-1,0,-2,-2,0,0
1513227510016160,-1,-1,-2,0,0,-1,-1,-1
1513227510025166,0,0,-2,-3,-1,-2,-2,-2
1513227510025166,0,-2,-1,-1,1,0,-1,-3
1513227510039692,1,-2,-1,-2,-2,-2,-1,-2
1513227510039692,-1,-1,0,-1,-1,-1,-1,-2
1513227510041168,-2,-3,-1,0,-2,0,-1,-1
1513227510041168,-3,-1,0,-1,-1,-1,-1,-1
1513227510062196,-2,-1,0,0,0,0,-3,-2
1513227510062196,0,-1,-1,1,-1,-2,-1,-1
1513227510063701,-1,0,0,-1,-2,-1,-1,-1
1513227510063701,0,-1,-2,0,0,-1,-1,0
1513227510076192,1,-2,-1,-2,-1,1,-1,-2
1513227510076192,-2,-2,0,-1,-1,0,-2,-2
1513227510084712,0,-1,-1,-2,-1,0,-2,0
1513227510084712,-2,-1,0,-2,0,-1,-1,-2
1513227510099711,-2,-1,-2,-1,-1,-2,0,-1
1513227510099711,-1,1,-1,-2,-1,-1,0,-1
1513227510101211,-2,-2,-1,-2,0,-2,-1,-1
1513227510101211,-1,1,-1,-2,0,-1,-1,-2
1513227510122792,-2,-1,1,-2,1,-2,0,0
1513227510122792,-2,-2,-1,-2,-1,-1,0,-1
1513227510125272,0,-1,-1,0,-1,-2,0,-1
1513227510125272,-1,-3,1,0,-2,1,-2,-1
1513227510135779,-1,-1,0,0,-2,0,-2,-2
1513227510135779,-2,0,-1,-2,0,-1,0,0
1513227510144786,0,0,-3,-1,-2,2,-1,0
1513227510144786,-1,-1,-2,-2,-1,0,-2,0
1513227510159796,-2,-2,-2,-2,0,-2,-1,-1
1513227510159796,-1,0,-2,-2,-1,-2,-1,-1
1513227510161307,-1,-1,-1,-2,-1,0,-1,0
1513227510161307,-1,0,0,-2,-2,-2,-3,-1
1513227510182324,-1,0,0,-1,0,-1,-1,-1
1513227510182324,-1,-2,-2,-1,0,-1,-2,-1
1513227510183826,-2,-2,-1,-1,-1,-1,0,-2
1513227510183826,-1,-3,-1,-1,-2,0,0,1
1513227510195888,0,-2,0,0,0,1,1,-1
1513227510195888,1,-3,-1,0,-1,1,-1,-1
1513227510204895,-1,-1,-1,0,-1,-2,-2,-2
1513227510204895,0,-1,-1,-1,-1,-1,-1,0
1513227510219894,-1,-3,-2,-1,0,-1,0,-1
1513227510219894,-2,-1,-2,-3,-2,-2,1,0
1513227510221395,-1,-3,-2,-2,-1,0,0,-1
1513227510221395,-1,-4,-2,0,1,-1,-2,-1
1513227510242411,-1,5,-1,-2,-3,-3,-3,-1
1513227510242411,-1,-2,-4,-2,-1,-1,-1,-1
1513227510243918,0,0,2,0,-3,-2,-3,-2
1513227510243918,1,-1,-1,-1,-1,-2,-1,-2
1513227510255921,2,-3,-2,-1,-1,0,-2,0
1513227510255921,0,6,7,0,-2,-2,0,0
1513227510272451,-3,-5,-13,-4,0,1,-1,-2
1513227510272451,-1,-5,-1,0,-2,0,0,-3
1513227510287442,-2,-6,-3,0,0,-1,-1,0
1513227510287442,0,7,2,-1,-1,-1,-1,-1
1513227510288956,-1,-1,2,-1,-1,-2,1,-2
1513227510288956,-1,0,1,-2,0,1,0,-2
1513227510301962,-2,-4,-3,0,-2,0,0,0
1513227510301962,-2,-6,-3,0,-1,-1,-1,-1
1513227510303961,-1,0,3,-1,-3,-1,-1,1
1513227510303961,-1,-1,-3,-2,0,-1,0,0
1513227510315968,-2,2,0,1,-1,-2,-1,-1
1513227510315968,-2,-5,-3,0,-2,1,-1,-1
1513227510341980,0,0,-1,-1,-1,0,-2,0
1513227510341980,-1,1,0,-2,0,-1,-1,0
1513227510342483,0,-2,0,-2,-1,-1,1,-1
1513227510342483,1,-3,-1,-1,-1,-2,0,-1
1513227510345983,0,-2,-1,0,0,-2,0,-2
1513227510345983,0,3,0,-1,-3,-2,-1,-1
1513227510362006,0,-4,-1,-2,-1,-1,-1,0
1513227510362006,-1,2,-2,-1,-2,-2,-1,-2
1513227510363996,-1,0,2,-2,-1,-1,0,-1
1513227510363996,-1,0,-1,-1,-1,-2,-2,0
1513227510375563,-1,-2,1,-2,0,-2,0,-1
1513227510375563,-2,-4,-3,-1,-2,0,-1,-1
1513227510385069,-1,0,-2,1,0,0,-1,-1
1513227510385069,-2,1,0,-1,-1,-1,-1,-1
1513227510399586,-1,1,-2,0,-2,-3,-2,-1
1513227510399586,-1,-6,-2,-1,0,-1,-1,1
1513227510401580,0,2,0,-2,-2,-1,-1,0
1513227510401580,-2,0,-3,-1,-2,0,0,1
1513227510422597,-2,-1,-2,0,-1,-1,0,0
1513227510422597,-2,-1,-1,0,1,-2,-2,-2
1513227510428622,-3,-1,-2,-3,-1,0,-1,0
1513227510428622,0,0,0,-2,0,-1,-1,-2
1513227510444626,0,2,-1,-1,-1,-1,0,0
1513227510444626,-2,-2,-2,0,-1,-1,0,0
1513227510446112,-1,-2,0,-3,-2,0,-1,-2
1513227510446112,0,1,-2,-1,-2,-2,0,-1
1513227510459640,-1,0,-1,-3,-1,0,-1,-3
1513227510459640,1,2,1,-2,-2,-2,-1,0
1513227510461122,0,-3,-2,-1,-2,-2,0,-1
1513227510461122,-2,-1,-1,-1,0,0,-1,-1
1513227510482146,-1,-2,0,1,-1,0,-2,-2
1513227510482146,1,-3,-1,-2,-2,0,0,-2
1513227510483638,-3,-1,1,-1,0,0,0,0
1513227510483638,0,-3,-3,-1,-1,-1,-1,1
1513227510504674,-1,1,-2,-2,-2,1,1,1
1513227510504674,0,-1,-1,-1,-2,-1,0,-1
1513227510506153,-1,-1,-2,0,-1,-1,0,-1
1513227510506153,-1,-2,-1,1,-2,-3,-1,-3
1513227510520666,-2,-3,-2,-1,0,-1,-3,0
1513227510520666,-1,0,0,0,-1,0,-2,-1
1513227510522166,-1,-1,-3,-1,0,-1,-2,-1
1513227510522166,-1,-2,-1,0,-1,1,0,-1
1513227510541200,-1,-2,-2,0,-1,-2,-2,-3
1513227510541200,-1,2,0,-1,1,-1,-1,-3
1513227510550189,-1,-3,-1,-2,0,-2,0,-1
1513227510550189,-3,-1,0,-2,1,-2,-3,-1
1513227510564696,0,-2,-1,-2,-1,0,0,-1
1513227510564696,-1,0,-3,0,-2,0,-1,-2
1513227510566197,-2,2,0,2,-2,1,0,-3
1513227510566197,0,-2,0,0,-1,-3,-2,0
1513227510578706,-1,-1,1,-3,-1,-1,1,-1
1513227510578706,-1,-3,-3,-2,-1,-1,-4,0
1513227510587212,1,-1,2,-1,0,0,-1,-2
1513227510587212,-1,-1,-1,-1,-2,-1,0,-1
1513227510602244,-1,-1,-2,-1,1,-2,-2,-2
1513227510602244,-2,-2,-1,-1,-1,-2,1,0
1513227510603738,-1,-5,-3,0,-2,-3,0,0
1513227510603738,-2,-1,-2,-1,-2,-2,0,-1
1513227510624737,-2,-1,-3,-1,-3,-1,-2,0
1513227510624737,-1,-2,-1,-2,-2,-3,-2,-1
1513227510626239,-1,0,-2,-1,-1,-1,-2,-3
1513227510626239,-2,-1,0,-1,-1,-1,-2,-1
1513227510639267,0,1,0,-1,-3,-2,-1,1
1513227510639267,0,-2,-2,-1,-1,0,0,-1
1513227510645754,0,-1,-4,1,0,-2,-2,-1
1513227510645754,-1,-1,-2,-2,-1,0,-1,-2
1513227510662276,-3,-1,0,-2,0,-1,-1,-3
1513227510662276,-2,-1,0,-1,-1,-2,-1,0
1513227510663769,-1,-2,1,-1,0,1,-2,-2
1513227510663769,-1,-3,-1,0,0,0,-1,-1
1513227510692290,0,-1,-1,-2,-1,-2,-3,-1
1513227510692290,-6,-3,0,-1,-1,0,1,0
1513227510693793,-4,-1,0,-1,-1,0,-2,0
1513227510693793,-3,-2,-2,-2,-3,-1,-1,-2
1513227510699295,0,2,1,0,0,-2,-1,-1
1513227510699295,0,-2,-1,-2,1,-1,-1,-2
1513227510705799,0,1,-2,-2,-2,-1,-1,-1
1513227510705799,1,-4,-3,1,0,-2,1,-2
1513227510722353,0,-3,-4,1,-1,-2,1,-1
1513227510722353,0,0,-2,0,-1,-2,0,0
1513227510724809,-1,-3,-2,-2,-1,1,-2,0
1513227510724809,1,1,-1,-3,0,-1,-2,0
1513227510744838,0,-1,0,-1,-3,-3,-1,-1
1513227510744838,0,-1,-2,0,-1,-3,-1,0
1513227510746334,-2,-1,-2,-1,-2,-1,0,-2
1513227510746334,0,0,1,0,0,0,-1,-1
1513227510758843,-1,-2,-2,0,0,0,-1,0
1513227510758843,-2,-2,-3,-2,-1,0,-1,-2
1513227510765848,0,-2,-2,-2,-1,0,0,-1
1513227510765848,0,-1,-3,-1,-1,-1,-2,0
1513227510782351,-1,-3,0,-2,0,-1,0,1
1513227510782351,-1,-4,-3,0,-3,-1,-2,-1
1513227510783850,0,2,0,-1,-3,-1,0,-1
1513227510783850,-1,-3,-1,0,-2,1,0,-3
1513227510804866,-1,2,2,-2,0,1,-1,-2
1513227510804866,-1,-4,-1,-1,-2,0,-2,-1
1513227510806367,-2,-1,-1,-2,-1,0,-1,-2
1513227510806367,-3,-2,-1,-3,-2,-1,-1,1
1513227510827380,-1,0,-2,-1,-1,-2,-1,-2
1513227510827380,-1,-2,0,0,-1,-2,-1,-3
1513227510828882,1,-2,-2,-2,-1,-2,-2,0
1513227510828882,1,1,-1,-3,0,-1,0,0
1513227510842405,-3,-4,-4,-1,-2,0,-1,0
1513227510842405,-1,3,-1,-2,-1,1,-1,-2
1513227510843898,-1,-1,-2,-2,-2,-3,-2,0
1513227510843898,-1,0,-1,-1,-2,0,-2,0
1513227510864921,1,-2,0,1,-1,-1,-2,0
1513227510864921,0,-1,-2,-1,-2,-2,-1,-1
1513227510866410,-2,-1,0,-2,-2,-2,-1,-1
1513227510866410,-2,0,-1,-1,-1,-2,-1,-1
1513227510878917,-1,0,-1,0,0,0,-2,0
1513227510878917,-1,-1,-1,-2,-1,-3,1,0
1513227510885938,-3,0,-2,-1,0,-1,-1,-1
1513227510885938,0,-4,-2,-1,-2,-1,0,0
1513227510901934,-2,1,-4,-2,-1,0,-1,-1
1513227510901934,-1,3,2,-3,-1,-2,0,0
1513227510903938,-1,-2,-1,-2,1,-2,0,-1
1513227510903938,-1,4,0,-1,0,-1,0,-1
1513227510924449,-1,-2,-1,-2,0,-1,-1,-3
1513227510924449,-1,-3,-3,0,-1,1,-1,-2
1513227510926451,-3,-1,0,0,0,-1,-1,0
1513227510926451,-3,-2,-2,-1,-1,-1,-2,-2
1513227510938459,1,-2,-1,-1,-1,-1,-1,-1
1513227510938459,0,1,-2,-1,-1,-1,-1,-1
1513227510947489,1,-2,-2,-1,-4,0,-1,0
1513227510947489,-1,1,0,0,-1,-1,-1,-1
1513227510969503,-3,-2,-1,-3,-2,0,-2,-1
1513227510969503,-1,-3,-1,1,-1,0,-2,-1
1513227510971488,0,0,-3,-2,0,-1,0,-1
1513227510971488,-2,-2,-1,0,-3,-1,-2,-2
1513227510984505,-2,-1,-1,1,-1,-3,-1,1
1513227510984505,-2,0,2,-2,-1,0,-3,-1
1513227510986494,-3,1,-1,-1,-2,-2,-1,-1
1513227510986494,-1,2,-1,-2,-2,-1,-1,-2
1513227510998516,2,5,-3,-1,-3,0,-1,-2
1513227510998516,0,0,-3,-1,-1,-1,0,-2
1513227511007524,-1,-4,-2,-2,-1,-1,0,-1
1513227511007524,-1,-4,-2,-1,0,-1,0,0
1513227511022034,0,0,-2,-1,-1,0,0,-2
1513227511022034,0,-1,-2,0,-1,-1,-1,-1
1513227511024020,0,-1,1,1,-1,-1,-1,-2
1513227511024020,1,-2,-2,-1,-1,0,0,-1
1513227511052107,-2,-4,0,0,-1,1,-1,1
1513227511052107,-1,-1,1,-2,-2,1,0,-2
1513227511054060,1,0,-1,0,0,1,-1,-2
1513227511054060,-2,-2,0,1,-2,-2,-2,0
1513227511058544,-1,-1,2,-1,-1,-1,0,1
1513227511058544,-1,0,-2,0,-1,0,-2,0
1513227511067553,-1,-2,-1,0,-1,-2,-1,0
1513227511067553,-3,-1,1,2,-1,0,-1,-2
1513227511081132,0,0,1,-1,0,-2,-1,-2
1513227511081132,-1,-2,-3,-2,-1,0,-2,0
1513227511089653,-3,-1,-2,-1,-2,0,-3,-2
1513227511089653,-1,-1,-1,-1,0,-1,-1,0
1513227511104650,-6,-2,1,0,0,-3,-1,-1
1513227511104650,-2,0,-1,0,0,-1,1,0
1513227511106149,0,3,0,-4,0,-1,-1,-1
1513227511106149,-1,0,1,-2,-3,-1,-1,-1
1513227511118157,-2,-3,-2,-2,-2,0,-1,-3
1513227511118157,0,2,0,-2,-2,-2,-1,-1
1513227511127167,-4,-3,0,0,0,1,-1,0
1513227511127167,-1,-2,-2,0,-1,0,-1,0
1513227511142189,0,-1,-2,-1,-2,-3,-1,-2
1513227511142189,-1,-1,0,0,-1,0,0,-1
1513227511143682,-1,-1,0,-1,-2,-2,-2,1
1513227511143682,1,-1,-2,-2,0,-3,-1,-2
1513227511164697,0,-1,-2,0,0,0,1,1
1513227511164697,2,-3,-3,-2,-3,-1,-2,1
1513227511166193,-1,-5,-2,1,0,-1,0,0
1513227511166193,-1,4,1,-2,-3,-1,0,-2
1513227511178199,-1,-1,-3,-3,0,-1,-1,0
1513227511178199,-2,3,1,-3,-1,-2,-1,-3
1513227511187206,-2,-1,-2,-1,-2,0,-1,-1
1513227511187206,-4,0,-2,-1,-2,-2,-2,0
1513227511202227,-2,-4,-4,0,-3,-1,-1,-1
1513227511202227,-1,1,2,0,1,-2,0,0
1513227511203734,-2,-3,-2,-2,0,-1,-1,-2
1513227511203734,1,0,-2,0,0,1,-1,0
1513227511232239,-1,0,-1,-1,-2,-2,-1,-2
1513227511232239,0,-4,-3,0,0,0,-1,1
1513227511233742,0,2,1,-1,0,-1,-1,-1
1513227511233742,-2,-4,-2,-3,-1,0,0,0
1513227511247260,-1,1,-1,0,-1,-1,-2,-2
1513227511247260,0,-3,-2,0,-1,-1,0,-3
1513227511248753,2,1,-2,-2,-1,-3,0,-1
1513227511248753,-4,-4,-1,1,-1,-2,-1,-3
1513227511261262,1,-2,-1,-3,-1,-1,-1,0
1513227511261262,-2,-1,-2,-1,0,1,1,-1
1513227511269777,0,-1,-2,-3,0,-1,-1,0
1513227511269777,-1,-1,-1,-2,0,-2,0,0
1513227511284786,1,0,0,-1,-2,-1,-1,0
1513227511284786,-4,-2,-3,-1,-2,-2,-3,-2
1513227511286279,-1,0,-2,-1,-3,-1,-1,-1
1513227511286279,1,-4,-2,0,-2,-2,-2,0
1513227511298289,-2,1,1,0,-1,0,-1,1
1513227511298289,-3,-2,-2,-4,-2,-1,1,0
1513227511307296,-1,-3,-2,1,-2,1,-1,-1
1513227511307296,-1,2,1,-3,-2,-2,-3,-1
1513227511322310,0,-1,-1,-2,1,-1,0,-1
1513227511322310,-1,-1,-1,1,-2,-3,0,-1
1513227511328306,-2,0,0,1,-1,-1,0,-2
1513227511328306,0,0,-1,-2,-1,0,0,-1
1513227511344823,0,-2,0,-1,0,0,-1,0
1513227511344823,-1,-1,-3,-2,-1,-1,-2,-1
1513227511346323,-1,-1,-1,-2,-2,-1,-2,1
1513227511346323,-1,-1,-1,0,-1,-1,-2,-1
1513227511358329,-5,1,1,-1,-1,0,-2,-3
1513227511358329,-1,-1,-1,-1,-1,-1,-2,-1
1513227511367333,1,-1,-1,-2,-1,0,-3,-2
1513227511367333,-4,-2,0,-1,0,-1,0,0
1513227511382357,0,-1,-1,0,-1,-1,-1,-2
1513227511382357,0,-3,0,0,-1,0,0,0
1513227511383845,0,-1,0,-2,-2,-1,0,-1
1513227511383845,0,-4,-3,-1,0,-2,-1,0
1513227511404870,1,-1,0,0,-3,-2,-1,-1
1513227511404870,-3,-2,0,1,0,0,-2,-1
1513227511406385,-2,0,-1,-3,-2,-1,-2,-2
1513227511406385,0,-2,-3,-1,-1,-1,0,-2
1513227511427377,-1,1,0,-1,-1,0,-2,0
1513227511427377,0,-2,-4,-2,-3,0,-2,-1
1513227511428882,-4,-1,2,-1,2,-2,-2,-1
1513227511428882,-1,-3,-1,-1,-1,0,-3,-2
1513227511442410,0,2,-2,0,-1,-1,0,-3
1513227511442410,-1,-3,-1,-1,-2,-2,-1,-2
1513227511443890,0,-2,-2,-1,-2,-2,-1,0
1513227511443890,0,0,1,-2,-1,-1,0,-1
1513227511464904,-1,-3,-2,-1,-1,-2,-2,0
1513227511464904,-1,-2,0,-2,0,-1,-2,-1
1513227511466404,-2,0,0,-1,-1,-1,0,-2
1513227511466404,0,2,0,-2,0,-2,-3,-2
1513227511486928,-2,-4,-2,-2,-1,0,1,0
1513227511486928,-1,0,-1,-1,-1,-1,-1,-1
1513227511488930,0,-4,-1,1,0,-4,-1,0
1513227511488930,-1,1,0,-1,-1,-3,0,-1
1513227511502433,-1,-3,-2,-2,-1,-1,-3,0
1513227511502433,1,0,-2,-3,-3,-1,-1,0
1513227511503943,0,-2,-1,-2,-1,1,0,-2
1513227511503943,-5,-4,-2,-1,-2,-1,-1,0
1513227511525449,0,0,0,0,0,0,-2,1
1513227511525449,1,-1,-1,-1,-1,-2,-1,0
1513227511526951,-2,2,-2,-2,-3,-1,-3,-1
1513227511526951,-1,3,1,0,-1,0,0,-1
1513227511546972,-1,-2,-2,-1,-2,-1,-1,0
1513227511546972,-1,1,0,-3,-1,-2,0,-1
1513227511548975,-1,-5,-1,0,-1,-1,-1,-1
1513227511548975,1,3,-1,-1,-1,0,-1,-1
1513227511561483,-1,-4,-2,-2,-2,-1,-3,-4
1513227511561483,-4,-2,-2,-1,-1,-1,-1,-2
1513227511568486,1,0,-2,-2,-2,0,0,-1
1513227511568486,-2,-2,-3,-2,-1,0,1,0
1513227511584500,0,-1,0,-1,-1,-1,-3,1
1513227511584500,-1,-3,-1,0,0,0,-1,-1
1513227511585988,-2,-2,-1,-1,0,-1,-3,-1
1513227511585988,0,-1,-1,2,-1,-2,-2,0
1513227511607017,-2,1,0,-3,-1,0,-1,0
1513227511607017,-1,-2,-2,-1,0,0,-1,-2
1513227511608506,0,0,-1,0,-1,0,0,2
1513227511608506,0,0,0,-2,0,-1,-2,-2
1513227511621524,3,1,-3,-3,-1,-3,0,-2
1513227511621524,-2,1,2,-1,0,1,0,-3
1513227511628520,2,3,-2,-1,-1,0,1,-2
1513227511628520,-1,-2,-3,-1,-2,0,-1,1
1513227511645063,-5,-2,1,0,-1,-1,-1,-1
1513227511645063,-3,-5,0,-1,0,-1,-2,0
1513227511646533,-2,4,0,-1,-2,-3,1,-1
1513227511646533,-2,-4,-3,-1,0,-2,-1,-1
1513227511667058,-1,3,-1,1,-1,0,1,-1
1513227511667058,2,-3,-1,0,-2,-1,0,0
1513227511668547,-3,1,0,-1,-2,-2,-3,-3
1513227511668547,1,-1,1,0,-1,-1,-1,-1
1513227511681567,-4,-4,-1,-1,-2,-1,-2,-2
1513227511681567,0,-1,-1,1,-2,-2,-1,0
1513227511688073,-2,-2,-1,0,0,0,-2,-3
1513227511688073,-2,-1,-1,-2,-2,-2,-3,-2
1513227511704590,-2,0,0,-1,0,0,-1,1
1513227511704590,1,2,-4,-3,-2,-2,0,-1
1513227511706077,-3,-4,1,0,-1,1,-2,0
1513227511706077,0,0,-1,-1,-1,1,-1,-1
1513227511727089,-1,-2,0,0,-2,-2,1,1
1513227511727089,-1,0,-3,-2,-2,-2,-1,-2
1513227511728590,2,0,-2,-2,-2,-2,0,-1
1513227511728590,-3,-5,0,-1,0,0,-1,-1
1513227511741637,0,1,1,0,-2,-1,-2,0
1513227511741637,-2,0,2,0,-2,-1,-1,1
1513227511748608,-3,-2,-4,-1,-1,-1,-1,-1
1513227511748608,-1,-1,0,-2,0,-2,0,-2
1513227511764627,-4,-2,-3,0,-1,-1,-1,-2
1513227511764627,-1,3,4,0,-1,-2,0,-2
1513227511766116,0,-4,-2,-2,-1,-1,-2,0
1513227511766116,1,1,-2,1,-2,-1,-1,0
1513227511787142,1,-1,-2,0,1,-2,-2,-1
1513227511787142,-3,-1,-3,0,-2,0,-2,-2
1513227511788635,0,-5,-3,0,-1,-1,-1,0
1513227511788635,1,2,2,-1,-2,-1,-1,-2
1513227511802142,0,-4,-1,-1,0,0,-1,-2
1513227511802142,0,-4,-1,0,0,-2,-1,0
1513227511808161,-2,-4,3,0,1,-1,-1,-1
1513227511808161,0,0,-2,1,-1,-1,-1,-2
1513227511825158,-2,1,-2,-2,0,-2,-1,-3
1513227511825158,-1,0,-1,0,-2,-1,0,0
1513227511827160,-2,2,-1,-1,-3,-1,0,0
1513227511827160,-4,-4,-2,-1,-1,-1,-1,-1
1513227511847187,-2,-1,0,0,-1,-1,-1,0
1513227511847187,0,-3,-3,0,0,-2,0,-2
1513227511848674,2,1,0,-1,-2,0,-1,-1
1513227511848674,0,-4,-1,-1,-1,-1,-2,-1
1513227511862188,0,0,-2,-2,-2,0,-2,-2
1513227511862188,-2,-1,0,-1,1,0,-1,0
1513227511868214,-3,-1,-1,1,0,-1,-2,-2
1513227511868214,-2,-2,-1,-2,-1,0,-2,0
1513227511884712,0,-5,-3,0,-1,1,-1,-1
1513227511884712,0,1,1,-3,0,-1,0,-3
1513227511886202,-2,-1,-3,-2,-2,-3,0,0
1513227511886202,-1,-3,-1,-1,-1,-1,0,0
1513227511907216,-1,-1,-1,-1,0,-1,0,0
1513227511907216,-3,-3,-3,0,-2,-2,-2,-1
1513227511908719,-1,3,-1,-1,-1,0,0,-2
1513227511908719,1,0,-2,-3,-2,-1,-1,-1
1513227511920728,-4,-4,1,0,1,0,2,-3
1513227511920728,-1,-3,-1,-1,0,-1,-2,-1
1513227511929785,-3,0,-1,-1,-1,0,-1,0
1513227511929785,-1,-1,-1,0,-2,-1,-2,0
1513227511944809,2,1,-1,-2,-2,-1,-1,0
1513227511944809,-1,1,-2,0,-2,-2,-1,-2
1513227511946295,-1,-7,-3,-1,-1,-3,-1,-1
1513227511946295,-3,-3,-2,-2,0,-1,-1,-1
1513227511967332,-1,-1,-2,-2,-2,-2,0,-2
1513227511967332,-3,-4,-1,-1,-1,-3,1,-2
1513227511968812,-1,-1,-1,-3,-1,0,-2,-2
1513227511968812,1,3,2,0,0,-1,1,1
1513227511980819,-2,6,1,-3,-2,-2,-1,0
1513227511980819,-2,-3,-1,0,0,-1,-1,0
1513227511989829,-2,-1,-1,-2,-1,0,0,-2
1513227511989829,-1,-4,-3,-1,0,-1,-1,-2
1513227512004890,-3,-5,1,-1,-1,-2,-1,0
1513227512004890,1,1,-1,-3,-1,1,-2,1
1513227512006340,0,-1,-2,-1,0,-1,1,-1
1513227512006340,-1,0,-3,0,-1,0,-1,-2
1513227512027353,0,2,-2,-3,-2,-1,-3,-2
1513227512027353,-1,-3,0,-1,-1,-1,-1,-2
1513227512028854,0,-3,-1,-2,0,-1,0,-2
1513227512028854,-1,0,-1,-1,0,-2,-1,-2
1513227512040863,0,0,0,0,-1,-1,-2,0
1513227512040863,-1,-2,-1,-1,0,-1,-1,0
1513227512049890,-1,3,0,-2,-1,-1,-2,-1
1513227512049890,-3,0,1,2,-1,0,0,-3
1513227512064899,0,-4,-3,0,-3,-1,0,-1
1513227512064899,0,-1,-2,-1,-3,-2,-1,-2
1513227512066399,-4,4,1,-1,-2,-1,0,0
1513227512066399,0,0,-3,-3,-1,-1,-2,0
1513227512093911,3,-2,-4,0,1,-2,0,-2
1513227512093911,-1,-2,-1,-1,-1,-2,-1,-1
1513227512102923,0,-2,-2,0,-2,-1,-1,0
1513227512102923,-1,-2,-4,-1,-1,-2,-2,-1
1513227512103928,-1,-1,-2,-2,-2,0,-1,0
1513227512103928,-1,1,-2,-2,-2,-1,0,1
1513227512109911,0,-2,-1,-1,0,-2,-2,-2
1513227512109911,-1,-3,-1,-1,-1,0,-2,-1
1513227512124423,-1,-2,-5,-2,-1,-1,-3,-1
1513227512124423,-1,-3,-1,1,-1,0,-1,0
1513227512126424,-2,-2,-1,-1,-1,0,0,0
1513227512126424,-2,0,-1,0,-3,-1,0,-1
1513227512146956,0,-2,-2,-1,-2,-2,0,-1
1513227512146956,1,0,-2,-2,-1,-1,-1,0
1513227512148950,-1,1,-1,-1,-2,-2,-2,-2
1513227512148950,-3,-1,-3,-2,-2,0,-1,-1
1513227512160964,-3,-3,-1,-1,-1,-2,-1,-2
1513227512160964,-1,2,-2,-1,-1,0,-1,-2
1513227512169969,1,-4,-1,-1,1,1,1,0
1513227512169969,0,0,1,-2,-1,-1,-3,0
1513227512184477,1,0,0,-1,0,1,-1,1
1513227512184477,-1,-1,-2,-2,0,-3,-2,-1
1513227512186478,2,-1,0,-1,-1,-1,-2,-2
1513227512186478,-2,-1,-2,0,-2,-1,-1,-1
1513227512207501,-7,-4,4,0,-1,1,1,-2
1513227512207501,0,-1,-2,-2,-2,-1,-1,-2
1513227512209003,-2,-3,-2,-3,-1,-2,-1,0
1513227512209003,-3,-2,-1,-1,-1,-1,-1,-2
1513227512221027,-2,2,0,0,0,-1,0,-1
1513227512221027,-4,-2,-2,-1,-2,2,0,-2
1513227512229996,-1,0,0,0,-1,-3,-2,0
1513227512229996,0,-1,-1,0,-1,-2,-1,0
1513227512244519,0,-2,-4,-1,-1,-2,-1,0
1513227512244519,0,-2,-2,0,-1,-1,-1,0
1513227512246520,1,-2,-2,0,-1,1,0,-1
1513227512246520,1,-3,0,-1,-2,-1,0,1
1513227512267022,-1,-3,-2,-2,-1,0,-2,0
1513227512267022,-2,-1,0,-2,-1,-2,-2,0
1513227512268523,-2,-3,-1,1,-2,0,-1,-2
1513227512268523,2,-1,0,-1,-1,-3,0,-1
1513227512281033,-3,1,1,0,-1,0,-1,-2
1513227512281033,1,2,-3,-3,-3,0,-2,-2
1513227512289540,-2,-1,0,0,-2,-1,-1,-1
1513227512289540,0,1,-1,-2,0,-2,-1,1
1513227512304622,2,-3,-1,-2,-1,-1,-1,-3
1513227512304622,-2,-1,-1,1,0,0,-1,-4
1513227512306101,1,3,-1,-1,-2,-2,0,-1
1513227512306101,-1,-1,0,-1,1,-1,-1,-2
1513227512327118,1,-5,-4,-2,-1,0,0,2
1513227512327118,1,4,4,0,-2,-1,-1,-1
1513227512328628,1,-1,-2,-1,0,-1,-2,0
1513227512328628,-2,-2,-1,0,0,0,1,0
1513227512348652,-1,-1,-1,-1,-2,-3,-1,-1
1513227512348652,-1,2,1,0,0,-1,0,0
1513227512365147,-1,-4,-4,-1,-1,-3,0,-2
1513227512365147,-1,-2,-2,-1,-1,0,-2,0
1513227512366143,1,-2,-1,0,0,-2,-2,-1
1513227512366143,-3,-5,-1,0,0,-1,-2,-1
1513227512367645,-1,-1,-3,-2,-2,-1,-2,1
1513227512367645,-3,-1,-1,-2,-1,-1,-3,-1
1513227512386167,1,3,-2,-1,-1,-1,0,-1
1513227512386167,-3,-6,0,-1,-1,-1,-1,-1
1513227512394663,0,2,0,-1,-1,-2,-2,-1
1513227512394663,-1,-1,-4,0,0,-1,-1,-2
1513227512409675,-1,0,-3,-1,-1,-2,-2,-1
1513227512409675,1,-1,-2,-3,0,-3,-2,0
1513227512411176,-1,-2,-3,-1,-1,-1,0,0
1513227512411176,-1,0,0,1,-1,-1,0,-2
1513227512425196,-1,-1,1,0,-1,-1,0,-2
1513227512425196,-1,-1,-1,-3,-3,0,1,-1
1513227512426690,-3,-4,0,-1,-2,-3,-2,-1
1513227512426690,-1,-2,0,-1,-1,-1,1,0
1513227512447212,-3,-1,-2,1,0,-2,-1,-2
1513227512447212,0,1,0,0,-1,-1,0,0
1513227512448714,-1,-2,-2,-2,-2,-1,-2,-1
1513227512448714,1,-3,-1,0,0,-1,-2,-2
1513227512469730,-3,5,-1,-2,-1,0,-2,0
1513227512469730,0,-2,-2,-1,-1,0,1,1
1513227512471227,-2,1,-2,0,1,-1,0,-1
1513227512471227,-3,-2,-2,-1,-2,-2,-1,-1
1513227512483726,1,-5,-1,-1,0,-1,-3,0
1513227512483726,0,-3,-1,-1,-2,0,-1,0
1513227512492241,0,0,2,-1,-1,0,-2,-1
1513227512492241,2,6,0,-5,-2,-2,-1,-4
1513227512507257,0,-4,-2,-1,-2,-3,-2,0
1513227512507257,-2,-1,0,-1,-2,1,-1,-3
1513227512508753,-1,-2,-3,0,-2,0,0,-2
1513227512508753,-1,-1,-2,0,-1,-1,-1,1
1513227512530259,-3,2,-1,-2,0,0,-1,0
1513227512530259,-1,-1,-1,-1,-1,-2,-1,-2
1513227512531760,-1,-8,-3,-2,-1,-3,0,-1
1513227512531760,-2,5,1,-1,-1,-1,-2,1
1513227512544769,-1,1,0,-1,0,-1,0,-2
1513227512544769,-1,-3,-2,-2,0,-2,-2,0
1513227512558356,0,1,1,0,-1,0,-2,0
1513227512558356,-1,-5,-2,-1,-3,-1,-1,-3
1513227512567286,0,-6,-2,-1,-1,-2,0,0
1513227512567286,0,-1,-2,-2,-1,-2,-1,0
1513227512568791,-1,1,1,-2,-1,0,0,-1
1513227512568791,-1,-1,-2,-1,1,0,-1,-2
1513227512589878,-3,2,0,1,-2,-1,-1,-1
1513227512589878,-7,-6,1,1,-1,-1,-1,0
1513227512591379,-1,-2,-1,-2,0,-2,0,-1
1513227512591379,-1,-5,-2,-1,-1,0,-2,0
1513227512603899,-3,0,0,-1,-2,0,-1,-1
1513227512603899,1,-7,-3,-1,-1,0,-2,-1
1513227512610893,1,5,1,-1,-1,-1,-1,-2
1513227512610893,1,-1,0,0,-2,-1,1,-2
1513227512634409,0,-3,1,-2,0,-3,0,-1
1513227512634409,0,5,1,0,-1,-2,0,0
1513227512636410,-3,-4,-2,-3,-2,0,0,0
1513227512636410,1,-2,-1,-1,-1,-1,0,-1
1513227512649920,-2,-1,-1,0,-1,0,0,0
1513227512649920,-4,-1,-3,-1,-2,-3,-1,-1
1513227512651422,-4,0,1,0,0,-1,-1,-2
1513227512651422,0,-1,-2,-3,-2,-1,-2,0
1513227512663952,-1,-1,0,0,-3,1,-1,-3
1513227512663952,0,1,-2,-2,0,-1,-1,-3
1513227512670957,-1,1,-2,2,0,-1,0,1
1513227512670957,-5,-7,-4,0,0,-2,-1,0
1513227512687078,-1,3,-1,-2,0,0,-1,0
1513227512687078,0,1,-1,-1,-3,-2,1,-1
1513227512688578,-9,-7,2,0,-2,0,-1,-2
1513227512688578,0,1,1,1,-1,0,-1,-1
1513227512717119,1,-2,-1,-2,-1,-2,-2,-2
1513227512717119,-1,-1,-2,0,0,-1,1,-2
1513227512718599,0,0,-3,-2,-2,-1,-1,-1
1513227512718599,-2,-1,-1,-2,0,-3,-2,-1
1513227512724605,-2,-2,-2,-1,-2,0,0,0
1513227512724605,-1,-4,-2,-2,-1,-2,-2,1
1513227512730608,0,0,0,-1,0,-1,-1,0
1513227512730608,-2,-2,-1,-3,-1,-1,-2,-1
1513227512747130,-1,0,-2,-2,-1,-3,-1,-1
1513227512747130,-2,2,-1,-3,-1,0,-2,-2
1513227512748620,-1,-4,-2,-2,-1,-2,-3,-1
1513227512748620,-2,0,2,1,-2,1,-1,-1
1513227512769638,-1,-3,-1,-2,-1,-1,-2,0
1513227512769638,-4,-1,-1,0,-2,0,-1,-2
1513227512771137,0,-7,-4,-2,-2,-2,-1,-3
1513227512771137,0,2,-1,-2,-1,-1,-1,-2
1513227512783690,-1,-3,-1,0,-1,0,-1,1
1513227512783690,-2,-3,1,-1,-1,-1,-1,-1
1513227512792186,3,4,-2,0,-2,-1,-1,0
1513227512792186,-2,-4,-1,-1,-1,0,-1,-2
1513227512807215,0,1,-1,1,1,0,-1,-2
1513227512807215,-2,0,0,-2,0,-2,0,-1
1513227512808715,-1,1,0,-1,-1,0,0,0
1513227512808715,0,-2,-2,-2,0,-1,-1,-2
1513227512829790,-1,1,-1,-2,-2,-1,-1,-1
1513227512829790,0,-3,-1,-1,-2,0,-2,0
1513227512831286,0,-2,0,-1,-3,-2,-2,-3
1513227512831286,-1,-1,-1,0,0,-2,-1,-1
1513227512843294,-2,-3,-1,-2,0,0,0,-1
1513227512843294,-2,-1,-2,0,1,-1,0,-1
1513227512852315,-1,0,-1,-1,-3,-2,-1,-2
1513227512852315,-2,-3,-1,1,-2,-1,0,-1
1513227512867347,0,-2,-1,-2,-1,-3,-1,-2
1513227512867347,0,-1,-2,-2,-1,1,-1,-1
1513227512868846,-1,1,-1,-1,1,1,-2,0
1513227512868846,-1,2,-1,-2,-2,-1,0,-1
1513227512889826,-2,-1,-2,-2,-2,-1,0,0
1513227512889826,1,-1,-1,-2,0,-1,-1,-1
1513227512891327,-1,-4,-3,-1,-1,-1,-1,-1
1513227512891327,2,2,-2,-2,-3,-2,-2,-1
1513227512912342,-1,0,-1,-1,0,-1,-2,-1
1513227512912342,-1,0,-2,-2,-3,-2,-2,-1
1513227512913843,-2,1,-3,-1,-2,0,-1,1
1513227512913843,-4,-1,1,0,1,1,-1,0
1513227512927353,0,-3,-1,-1,-1,-1,-1,-1
1513227512927353,0,-1,-1,-2,-1,0,-1,-3
1513227512928854,0,-1,-1,-3,0,-1,0,1
1513227512928854,-2,-2,-1,-2,-2,-2,-1,0
1513227512949879,-1,-2,-1,-2,0,0,-1,-1
1513227512949879,-2,-1,0,0,-2,-2,-1,1
1513227512951384,-2,-2,-5,-2,-2,1,0,-3
1513227512951384,-1,-3,0,-1,0,-1,-2,-1
1513227512963388,-1,1,-2,1,0,-1,0,0
1513227512963388,0,-1,-1,-1,-1,-2,-1,-1
1513227512979910,0,-4,0,-2,-2,-1,-1,-1
1513227512979910,-2,-5,-3,-1,-1,-1,-1,-1
1513227512987416,-3,-1,-1,-1,-3,0,-1,-2
1513227512987416,-2,1,-2,-1,-2,-2,-1,-1
1513227512988900,-1,-1,-1,2,-1,-1,-2,-1
1513227512988900,2,1,-3,-1,-2,-1,-2,-2
1513227513009911,0,-1,3,-1,0,-1,-1,1
1513227513009911,0,0,0,-1,-1,0,-1,0
1513227513011412,-3,0,0,-3,-1,-1,0,1
1513227513011412,1,0,0,0,0,-2,3,9
1513227513031937,-3,-1,-3,-1,-1,-1,-4,-11
1513227513031937,0,-3,-2,-1,-1,-2,-2,0
1513227513033938,-2,-4,0,-1,-2,0,-1,-3
1513227513033938,-2,-2,-1,-2,-2,1,-1,-1
1513227513046948,-3,1,-2,-3,-1,0,1,0
1513227513046948,-1,-2,-1,-1,-3,-1,0,-2
1513227513048949,-1,-2,-4,-2,-2,-1,-2,-2
1513227513048949,-2,1,0,0,-1,-1,-1,-3
1513227513069978,0,-1,-1,-1,0,0,0,-1
1513227513069978,-2,-1,-1,0,0,-2,-2,-2
1513227513071467,-3,-2,-1,0,1,-3,0,1
1513227513071467,-1,-2,-1,-2,-1,-3,-3,-2
1513227513083543,0,-1,-2,0,-1,-2,-3,1
1513227513083543,-1,-3,0,-2,-1,0,0,0
1513227513099556,0,-1,1,0,-2,0,-1,0
1513227513099556,-4,-1,2,0,0,-1,3,4
1513227513107062,-1,0,-1,-1,-2,-2,-1,-8
1513227513107062,-1,-3,-2,-1,1,-1,-4,-1
1513227513108560,1,3,1,0,-1,-2,-4,0
1513227513108560,0,1,0,0,-4,1,-3,-5
1513227513129576,-1,-3,-1,-1,-1,1,2,6
1513227513129576,-4,-1,1,1,-1,-1,1,-4
1513227513131076,0,0,-2,-2,-1,-2,0,-4
1513227513131076,-1,-1,-1,-1,0,-1,-3,0
1513227513143095,0,-1,-3,-2,-2,-1,-3,1
1513227513143095,0,1,-3,-1,0,-2,-2,-3
1513227513152092,-1,-1,1,0,-1,-1,0,1
1513227513152092,0,0,-4,-2,0,-2,-1,-1
1513227513167102,1,-1,0,-1,-2,-1,-2,-1
1513227513167102,-2,-5,-2,-1,-1,0,0,0
1513227513168603,-1,2,-1,-2,-1,-1,0,-1
1513227513168603,-1,-3,-2,-2,-1,-1,-3,-3
1513227513189675,-2,-2,-2,-2,-2,-1,-2,-2
1513227513189675,0,2,-1,-3,0,-1,0,2
1513227513191160,-2,-3,0,-1,-1,0,0,1
1513227513191160,-2,-3,0,-1,-1,-1,0,-3
1513227513203127,-2,-1,0,-1,0,-2,-1,2
1513227513203127,-1,-2,-1,0,-1,-2,0,-1
1513227513212134,-3,-3,-5,-1,-1,0,-2,-2
1513227513212134,-2,-1,-3,-2,-1,-3,-1,-1
1513227513227145,-2,6,4,-1,-2,-1,-2,-1
1513227513227145,-1,-3,-1,1,-3,-1,1,-1
1513227513228646,-3,-1,2,-1,1,-1,-1,-2
1513227513228646,-1,-4,-2,-1,-2,-2,-2,0
1513227513249674,0,-3,-1,-1,0,-2,1,0
1513227513249674,1,1,-1,-2,-2,-2,-2,0
1513227513251167,3,-1,-2,0,-2,-2,-1,0
1513227513251167,0,1,-1,-1,-2,0,0,-2
1513227513272192,1,1,-1,-1,-2,-2,-2,1
1513227513272192,-3,-2,-2,0,1,0,-2,-1
1513227513273677,0,-2,-3,-2,1,1,0,-3
1513227513273677,-2,-4,0,-1,0,0,-2,-2
1513227513287197,0,2,1,1,-2,-1,-3,0
1513227513287197,-2,-1,-3,-1,-3,-1,0,0
1513227513288689,0,-1,0,0,0,-3,0,-1
1513227513288689,-2,-1,-1,-1,1,-1,0,-3
1513227513309702,-4,-6,-2,0,0,-1,-1,-1
1513227513309702,-2,-1,0,-2,-1,0,0,-2
1513227513311205,-2,-1,0,-2,-2,-2,0,-2
1513227513311205,0,2,-2,-1,-2,-1,0,0
1513227513332719,-5,-2,-2,0,0,0,0,-1
1513227513332719,-1,2,-5,-1,-1,-2,-1,-3
1513227513334220,0,-1,0,-2,-1,0,-1,0
1513227513334220,-3,0,0,0,-1,1,-2,-4
1513227513347268,0,-3,-2,-1,-1,-1,-1,0
1513227513347268,0,-1,1,-2,0,-1,0,-1
1513227513348770,-2,-2,-2,0,-2,0,-3,-1
1513227513348770,-1,-5,-1,1,-1,-2,0,0
1513227513369777,0,5,-2,-3,-1,-3,0,-1
1513227513369777,-1,-1,1,-1,0,-3,-1,-1
1513227513371276,0,-2,-2,1,0,-2,-1,-1
1513227513371276,0,2,0,-2,-2,-2,0,1
1513227513392326,-1,-4,-2,-3,-2,0,0,-2
1513227513392326,-2,-1,-3,-1,-1,-1,-1,-2
1513227513393793,-2,0,2,0,-2,-2,0,0
1513227513393793,1,2,1,0,-1,-1,-1,0
