timestamp,emg1,emg2,emg3,emg4,emg5,emg6,emg7,emg8
1514896220649280,-2,0,-1,-2,0,-1,-2,0
1514896220649280,-2,-2,0,0,1,1,-1,-2
1514896220650280,-1,-1,-1,-1,0,0,-1,-2
1514896220650280,-1,-1,-2,-1,-1,-2,0,-2
1514896220673299,0,-1,-2,0,-1,-2,-1,1
1514896220673299,-2,-3,-1,-1,-1,-3,0,1
1514896220673800,-1,0,-1,-2,-1,-1,-1,-1
1514896220673800,0,2,-5,-4,-1,-1,-2,-2
1514896220686306,-2,-3,0,0,0,-1,-2,-3
1514896220686306,-1,0,-2,-1,0,0,-1,0
1514896220687307,0,0,0,1,1,0,-1,-2
1514896220687307,-1,0,-2,-2,-1,-2,0,-1
1514896220702817,0,-1,0,-2,0,0,-1,-2
1514896220702817,-2,-2,-1,1,-3,-1,-1,-1
1514896220703818,-3,0,-1,0,-1,1,0,-1
1514896220703818,0,0,0,-1,0,-1,-1,-1
1514896220723833,-1,1,-1,-1,-2,-1,0,0
1514896220723833,-2,-2,0,-1,-2,-2,-3,0
1514896220724836,0,-1,-2,-1,-1,-1,-1,-1
1514896220724836,-1,-2,-2,-1,-1,0,-1,-1
1514896220746348,-1,-3,-1,-2,-1,-2,0,0
1514896220746348,-2,-3,-1,-1,-1,-1,-1,-2
1514896220746848,-1,-2,-1,-2,0,-1,-1,-2
1514896220746848,-1,1,-1,0,-2,-2,-1,-1
1514896220770366,1,-1,-1,-2,-1,-1,0,0
1514896220770366,-1,-1,-1,-2,-2,0,-1,-1
1514896220770868,-1,-1,-1,-2,0,-2,-2,-1
1514896220770868,-1,-2,-1,-1,0,-2,-1,-3
1514896220793382,-1,-1,-1,-2,-1,-1,-1,-1
1514896220793382,0,-3,-2,1,-1,-1,1,-1
1514896220794382,-2,-1,-1,-2,0,0,0,0
1514896220794382,-1,2,0,0,0,-2,1,-2
1514896220806391,-2,-1,-2,-3,-2,1,-3,-2
1514896220806391,0,-2,1,-1,0,-1,-1,-3
1514896220807392,-2,1,-1,-1,-2,-2,-1,-2
1514896220807392,0,0,1,-2,-2,-1,-1,0
1514896220821903,-3,-4,0,-1,0,-2,-1,-1
1514896220821903,-1,-3,-2,0,-1,0,-2,-2
1514896220828906,-1,0,-3,-2,-3,-2,-1,-1
1514896220828906,-1,-1,-1,-1,-1,-1,-2,-1
1514896220843918,-1,-1,-1,0,-3,-1,-1,-2
1514896220843918,-1,-1,-1,-1,-1,-1,-1,-2
1514896220844918,-1,0,-2,0,-1,-2,0,0
1514896220844918,-2,-1,1,-3,-1,-1,-1,0
1514896220866432,-1,-1,0,-1,0,-2,0,-1
1514896220866432,-2,-1,1,-3,0,0,0,0
1514896220867459,0,0,-1,-1,1,-1,-2,0
1514896220867459,-1,0,-3,-2,-2,0,0,0
1514896220881457,0,-1,-1,0,-2,-1,0,1
1514896220881457,-3,-2,-1,0,-2,-1,0,2
1514896220881944,0,0,-3,-1,-2,0,-1,-1
1514896220881944,0,2,-1,-1,-2,-2,-1,-3
1514896220903960,-3,-1,1,-1,-1,-2,-2,-1
1514896220903960,-4,-2,-1,-1,-2,-2,0,-2
1514896220904460,0,0,-1,-1,-2,-1,-1,-1
1514896220904460,1,0,-1,-1,1,0,-2,0
1514896220926985,-1,-3,-2,-1,-1,-1,0,0
1514896220926985,0,-2,-1,-1,-1,0,-1,0
1514896220927477,-1,0,-2,-1,-1,0,-2,-1
1514896220927477,-2,0,-1,0,-1,-1,0,0
1514896220949501,1,0,-1,0,-1,0,-1,-2
1514896220949501,-2,-1,-2,-1,1,-3,-1,-2
1514896220950502,-1,0,-1,-1,-3,-2,-1,-2
1514896220950502,-2,-2,-2,-2,-2,-1,-3,-2
1514896220964002,0,-2,-1,0,0,0,-1,-2
1514896220964002,1,-2,0,0,0,0,-3,-2
1514896220964502,-1,-1,-1,-1,-2,0,-1,-1
1514896220964502,-2,0,-2,-2,-2,-2,-1,0
1514896220994535,-2,0,-4,-3,-3,-2,-2,-1
1514896220994535,0,0,0,0,-1,-1,0,-2
1514896220995524,0,-2,0,-2,-1,-1,0,0
1514896220995524,-1,-2,0,-1,-1,0,-1,-2
1514896221001528,-1,-2,-2,-3,-1,0,-1,0
1514896221001528,-2,-2,0,-2,-1,0,-1,-1
1514896221002028,-1,0,-2,-1,-1,-2,-1,-1
1514896221002028,0,2,-1,-1,-1,-1,0,-1
1514896221024054,-3,-1,2,-2,0,0,-1,-1
1514896221024054,-1,0,-2,1,0,-1,-1,-1
1514896221024545,0,-1,0,-2,1,-1,-2,0
1514896221024545,0,1,-2,-1,-2,-1,-2,0
1514896221046579,1,-2,0,-1,0,-3,1,-2
1514896221046579,-1,-2,-2,0,-2,-2,-2,-1
1514896221047061,-1,-1,-2,-2,-2,-2,-1,-1
1514896221047061,-1,-1,-1,-1,1,-2,0,0
1514896221062572,-1,-3,-1,-1,0,-1,-1,-3
1514896221062572,1,-2,-2,-2,-1,-1,1,0
1514896221063573,-1,0,-3,-1,-1,-1,0,-3
1514896221063573,0,-1,-1,-2,-1,-2,0,-1
1514896221084098,-1,-3,-2,-1,-1,-1,0,-1
1514896221084098,-2,-2,0,0,-2,-2,-2,-2
1514896221084588,1,1,-3,-3,0,-2,-2,0
1514896221084588,-2,-3,-1,-1,-3,1,-1,-1
1514896221106102,-1,-2,-2,-1,0,-1,-1,-2
1514896221106102,-1,-1,-1,-1,-1,0,-3,-2
1514896221107105,-2,1,0,1,-2,-1,-1,1
1514896221107105,0,-2,-2,0,-1,-2,0,-1
1514896221122615,-1,-1,0,-1,-1,0,0,1
1514896221122615,-1,0,1,-2,0,-1,-1,0
1514896221123615,-2,0,0,-3,0,1,-1,1
1514896221123615,2,0,-2,-1,1,-1,-1,-2
1514896221143629,-1,-4,-2,-1,0,-1,-2,0
1514896221143629,0,-1,-2,0,-1,-1,0,0
1514896221144630,-1,-1,-1,0,0,-1,0,-1
1514896221144630,0,0,-2,-2,0,-3,0,-1
1514896221166682,0,-2,-2,-1,0,0,0,0
1514896221166682,0,-4,1,-2,-3,0,-2,0
1514896221168193,-1,-2,-1,-1,-2,-2,-3,1
1514896221168193,-1,-2,-1,-1,-1,-1,0,-2
1514896221181158,-1,1,-2,-1,-2,-2,-1,-3
1514896221181158,-3,-1,-1,-1,0,-2,-2,0
1514896221182156,-1,-2,0,-2,0,-1,-1,-3
1514896221182156,-2,2,-1,-1,-1,-1,-2,0
1514896221204676,0,-2,-2,0,0,-3,-1,0
1514896221204676,-1,0,-1,0,-1,0,0,-2
1514896221205172,-1,1,-1,-1,-1,-2,0,-2
1514896221205172,-1,0,-2,-2,-1,-2,-1,-1
1514896221226192,-1,-2,-1,1,0,1,0,1
1514896221226192,1,-1,-2,-1,1,-1,-1,-1
1514896221227188,-3,0,1,-1,-1,-2,-1,0
1514896221227188,0,0,-1,-1,-2,0,-1,-1
1514896221248720,-1,-1,-1,0,-1,0,-2,0
1514896221248720,-4,-1,-3,0,-1,0,0,-2
1514896221256208,-2,0,-1,-1,0,-2,-2,-1
1514896221256208,-2,-3,-1,-1,-1,-3,-2,0
1514896221263731,-1,0,-1,-2,-2,2,-1,-2
1514896221263731,-1,0,-2,-1,-2,-1,-1,-1
1514896221264731,-1,0,-2,1,-2,-1,-1,0
1514896221264731,-4,0,0,-2,-1,-1,-1,-2
1514896221286244,-1,-3,0,0,-1,-1,-3,-1
1514896221286244,-1,1,-3,-1,-2,0,-1,-4
1514896221287230,0,-1,-1,-1,-2,0,2,-2
1514896221287230,-2,-3,-1,-1,-1,-2,-1,0
1514896221300741,-3,0,-1,-1,-1,-2,-1,-1
1514896221300741,-2,-2,1,0,-1,-1,0,0
1514896221308747,-2,0,-1,0,-2,-2,-1,-2
1514896221308747,0,0,-2,-1,-2,-1,0,0
1514896221324256,-2,-1,-1,-1,0,-2,-1,-2
1514896221324256,-2,-3,-1,-1,-2,0,-1,0
1514896221331261,-2,-1,-2,0,0,2,0,-1
1514896221331261,-2,-3,1,0,0,-1,0,-1
1514896221354780,1,-1,-2,-1,0,-1,0,-1
1514896221354780,-1,-3,-2,-2,1,-2,-2,0
1514896221355280,1,-1,-2,-1,-2,-1,0,-1
1514896221355280,1,0,0,-2,0,-3,-1,-1
1514896221360783,-3,-1,0,-1,-1,0,-1,0
1514896221360783,-3,-4,-3,-1,0,-1,-1,0
1514896221369289,0,0,-3,-2,-2,-1,0,1
1514896221369289,-1,0,0,-1,-2,0,0,0
1514896221383798,-1,0,-4,-2,-3,-2,-1,-1
1514896221383798,-1,0,0,0,0,-1,1,-1
1514896221384799,-1,-1,-2,0,-1,-2,0,-1
1514896221384799,-1,-1,0,-1,-1,0,-2,-2
1514896221406815,-1,-4,-1,0,1,-1,-2,-1
1514896221406815,1,1,-2,-1,-1,1,0,-1
1514896221407816,0,0,-1,-1,0,-1,-2,-3
1514896221407816,-3,-2,-3,0,-2,0,-2,-2
1514896221420840,-1,-2,1,-1,-2,-1,0,-2
1514896221420840,0,-1,-1,-2,-2,-1,-1,0
1514896221428842,0,-1,-1,-2,1,0,-1,-2
1514896221428842,0,-1,-1,-3,-1,-2,0,1
1514896221443841,0,-3,0,0,-2,-2,1,-2
1514896221443841,-2,-3,-1,-2,-1,0,-1,0
1514896221444344,-1,1,-4,-2,-2,-1,-1,-2
1514896221444344,0,-1,-4,0,-2,-2,0,-2
1514896221466357,-1,-2,-1,-1,0,0,-2,-1
1514896221466357,-3,-2,0,-1,0,-1,-2,-1
1514896221467370,-2,0,-1,-1,-1,-1,0,-1
1514896221467370,-1,-1,-2,-3,-2,0,-2,-1
1514896221482371,-1,-3,-2,0,-1,0,-2,-1
1514896221482371,-2,0,-1,-1,-1,-1,-2,-1
1514896221488873,-1,-2,0,0,0,-2,-2,-1
1514896221488873,-1,-1,-1,0,-1,-3,-1,0
1514896221503884,-2,-2,-1,0,1,-2,0,0
1514896221503884,-1,0,-1,-1,-1,-2,-1,-3
1514896221504385,0,0,-1,-1,-1,0,-2,0
1514896221504385,1,0,2,-2,-1,0,1,-1
1514896221525899,-4,-3,-1,0,-1,0,-1,-2
1514896221525899,0,-1,0,-1,0,-1,-1,-1
1514896221533905,-2,-1,0,0,-2,-2,0,-2
1514896221533905,-3,-4,-2,-1,1,0,-1,-2
1514896221549415,-1,-1,-3,-1,-1,2,1,0
1514896221549415,-2,0,-1,0,-2,-3,-3,-2
1514896221550416,-1,0,-1,-2,-1,-1,-1,-2
1514896221550416,-1,-3,-2,-2,0,-1,-1,1
1514896221563938,-1,-1,-1,-1,-1,-2,0,-2
1514896221563938,-1,0,-1,-1,-2,-2,0,0
1514896221565439,-1,-1,-1,-3,1,0,-2,-1
1514896221565439,-1,0,-1,-1,-1,-1,-3,0
1514896221601953,0,-4,0,-1,-1,-2,-2,-1
1514896221601953,-1,1,-2,-1,-1,0,1,-1
1514896221602954,-3,3,-3,-1,-2,-2,-2,-1
1514896221602954,-1,-3,-1,-2,-1,-3,-1,-1
1514896221608457,-3,-2,0,0,0,-2,-1,-3
1514896221608457,-1,0,-1,1,1,0,-1,-1
1514896221616463,-2,0,-2,-1,-1,1,-1,0
1514896221616463,0,-2,-1,-1,-3,-1,-1,-1
1514896221623969,-1,0,-3,-3,-3,-1,-1,-1
1514896221623969,1,0,-2,-2,0,-1,0,-1
1514896221625480,-1,-1,-1,-1,0,0,-1,0
1514896221625480,0,-1,-2,0,-2,0,-1,-2
1514896221646496,-1,-3,0,1,-2,0,-4,-1
1514896221646496,-2,-1,-2,-1,-1,0,0,0
1514896221646984,0,-2,-1,-2,-1,0,-1,1
1514896221646984,-1,0,-1,-1,-1,-2,-1,0
1514896221669501,-1,-2,-1,-2,0,0,0,0
1514896221669501,-1,-1,0,-2,-2,-2,-1,-2
1514896221670502,-1,-1,0,-1,-2,-3,-1,0
1514896221670502,0,-2,2,1,0,-2,-1,-2
1514896221685012,-1,0,-1,1,-1,-1,-1,1
1514896221685012,-1,-2,0,-1,-1,-2,-1,-3
1514896221686012,0,-2,-2,0,0,0,0,-2
1514896221686012,-2,-2,-3,-1,-2,0,-1,-2
1514896221706527,-1,-3,-2,-1,-1,0,0,0
1514896221706527,-1,-1,-1,-1,-1,0,-1,-1
1514896221707028,-2,1,-1,-1,-2,-3,0,1
1514896221707028,-1,-2,-2,-4,-1,0,0,-1
1514896221746056,-1,-2,-1,-2,0,-1,-1,-1
1514896221746056,-1,-2,-3,-1,-3,-1,-1,-2
1514896221746557,-1,0,-1,-2,0,-1,-1,-1
1514896221746557,-2,-3,1,2,-1,0,1,0
1514896221748055,0,-2,-1,-2,-3,-1,-4,0
1514896221748055,-2,-1,-1,-1,0,-1,0,-1
1514896221751070,-2,0,-1,-1,-1,-1,-2,0
1514896221751070,0,2,-2,-2,-1,-1,-3,-2
1514896221766586,-1,-2,-2,-1,0,-1,-1,0
1514896221766586,-1,0,0,1,-1,0,0,-2
1514896221767070,0,-1,-1,-1,-1,-1,-1,-2
1514896221767070,-1,-2,-1,-4,-1,0,0,-1
1514896221790098,-1,-1,-2,0,0,-1,-1,0
1514896221790098,-2,1,-2,-1,-1,-2,-1,1
1514896221791087,-1,-1,0,1,-1,-3,0,-1
1514896221791087,-1,-3,-1,-2,-3,0,-2,0
1514896221804097,-2,-3,0,-1,-1,-1,-2,-2
1514896221804097,-1,0,-2,0,0,-1,-2,0
1514896221804596,0,0,-1,0,-2,-1,0,-1
1514896221804596,-1,-1,-1,-1,0,-1,-1,-2
1514896221826110,-1,-4,4,1,-2,-1,0,0
1514896221826110,0,-2,0,-3,-1,-1,-2,-2
1514896221827111,1,0,0,0,-1,1,-1,-1
1514896221827111,-2,-1,-1,0,0,-1,-1,-3
1514896221850138,1,-1,-1,-2,-1,0,0,1
1514896221850138,-1,1,-1,-1,-1,-1,-1,-1
1514896221851138,-1,1,0,-1,-1,-2,0,-1
1514896221851138,0,-1,-2,-1,-2,-1,0,-1
1514896221863647,0,-1,-4,-1,0,-2,0,-2
1514896221863647,-1,-1,-2,-2,-2,-2,-1,-1
1514896221864638,-2,0,-1,-2,-1,0,-1,-2
1514896221864638,-2,-4,-1,0,-2,-1,-1,1
1514896221887156,-1,-1,0,0,-1,-2,-1,-2
1514896221887156,1,1,0,0,0,0,-1,0
1514896221887655,-3,0,-2,0,-1,-2,0,-1
1514896221887655,0,-2,-1,-2,-1,-1,-1,-2
1514896221909679,-3,-3,-2,1,0,1,-1,-2
1514896221909679,-1,0,0,-1,-2,-2,1,0
1514896221910672,0,-1,1,-1,-1,-1,0,-1
1514896221910672,-2,-3,-1,0,1,-2,-1,-1
1514896221924183,-1,-3,-2,-2,-2,-2,-2,-2
1514896221924183,-1,-1,-2,-1,0,-1,-3,-2
1514896221924685,-1,-1,-1,-1,0,0,-2,-1
1514896221924685,-1,-2,-2,-2,-1,-2,-1,-2
1514896221947197,1,-3,-2,-1,1,0,-1,-1
1514896221947197,-3,0,-1,0,-2,0,-1,1
1514896221948199,-1,0,-3,0,-3,-2,-2,-1
1514896221948199,0,-1,1,-1,-2,-1,-1,1
1514896221969714,-3,-3,-2,0,-1,0,-1,0
1514896221969714,0,-1,-1,0,-2,0,0,1
1514896221970215,-1,1,-2,-1,-1,0,-1,0
1514896221970215,0,-1,-2,-1,-1,0,-1,0
1514896221984229,0,-3,-2,-1,-2,-1,-3,0
1514896221984229,0,0,0,-1,-1,-1,-2,0
1514896221984726,-2,-1,-2,-1,0,0,0,-1
1514896221984726,-1,-1,-3,-3,0,-1,-1,-1
1514896222007239,-1,-1,1,-2,-3,0,2,-1
1514896222007239,-3,-1,-3,-1,0,-3,-3,-2
1514896222007740,1,0,0,-2,0,-1,1,0
1514896222007740,0,-2,-1,-1,0,-1,-1,0
1514896222036760,-1,-3,0,-1,0,-1,-2,-1
1514896222036760,-1,0,-2,-1,0,-1,1,-1
1514896222038265,-1,0,-2,-2,-1,-2,-3,0
1514896222038265,-3,-3,-1,-1,-1,1,-1,-1
1514896222043266,-3,-2,-1,0,-1,-2,-2,-1
1514896222043266,1,-1,-1,0,-1,0,-1,-1
1514896222051272,-2,0,-2,-1,-1,-1,-1,0
1514896222051272,0,-3,0,-2,-1,0,-1,0
1514896222066281,-2,-2,-1,0,0,-1,-2,-2
1514896222066281,0,0,0,-1,-1,0,1,-1
1514896222073787,1,0,-5,-2,-2,-3,-1,-2
1514896222073787,-3,-3,-1,-1,0,-3,-1,-2
1514896222089798,-2,-1,-1,-2,0,-2,-1,-1
1514896222089798,0,2,1,-2,-1,0,-2,0
1514896222090299,-2,1,-1,0,0,-1,-1,-1
1514896222090299,-1,-1,-2,-1,-1,-1,-2,-1
1514896222103809,0,-3,-1,-1,-2,-3,-2,-1
1514896222103809,0,0,-1,-2,-2,-2,-2,-2
1514896222104810,0,-1,0,0,-2,-2,-2,0
1514896222104810,1,-1,0,0,-1,-2,0,-1
1514896222127324,0,-3,1,0,-2,-1,1,-1
1514896222127324,-1,0,-1,-1,-1,-2,-1,0
1514896222128327,-1,1,-1,-1,-2,0,0,-2
1514896222128327,-3,-2,-1,-2,0,0,-1,-1
1514896222149340,-1,-2,-2,-1,-1,-1,-1,0
1514896222149340,-1,-1,-1,0,-1,-1,0,-1
1514896222150340,-1,2,-3,-2,-1,-2,-2,-3
1514896222150340,0,-2,-1,-1,-2,1,1,-2
1514896222179863,-1,0,-2,-2,0,1,-3,-2
1514896222179863,-1,0,-1,-1,0,-2,-1,-2
1514896222180362,0,-2,0,-2,1,-1,-1,-2
1514896222180362,-2,0,-1,1,-2,-1,0,-1
1514896222186866,-1,-1,-3,-1,0,-1,-1,0
1514896222186866,-1,2,-1,-1,-2,-1,-1,-1
1514896222188870,-1,-2,-1,-2,-1,-1,-1,-2
1514896222188870,1,-2,-2,-2,-1,-2,1,-2
1514896222209883,-2,-2,2,1,-1,0,-2,0
1514896222209883,-1,2,-2,-1,-1,-1,-1,-1
1514896222210384,-1,-1,1,-2,-2,0,-1,-1
1514896222210384,0,-2,0,0,-2,-1,0,1
1514896222223393,0,0,-1,0,1,1,-1,-1
1514896222223393,-1,-2,0,-1,0,-1,-1,-1
1514896222232401,-2,0,-3,-2,0,0,-1,-2
1514896222232401,0,-2,-1,-1,0,0,-1,1
1514896222247409,-1,0,-1,-1,-2,-1,0,0
1514896222247409,-1,-1,-1,0,-2,-1,0,-1
1514896222248409,0,0,-2,-1,-1,-1,-3,0
1514896222248409,-2,-3,-1,1,1,0,-2,-2
1514896222269424,0,-1,0,0,0,-1,0,-1
1514896222269424,0,-2,-1,-1,0,-1,-1,-1
1514896222270428,2,-1,-1,-1,-1,-3,1,0
1514896222270428,-1,-2,-1,-1,0,-1,-1,-1
1514896222282934,-2,-3,-1,-3,-2,-1,0,-2
1514896222282934,-2,0,-2,-1,-1,-1,-1,0
1514896222291440,-3,-1,-1,-1,-3,0,-2,-1
1514896222291440,-1,-2,-2,-2,-1,-1,-1,0
1514896222314457,0,-2,-1,0,1,-2,-1,-3
1514896222314457,0,0,-1,-1,-1,0,-2,-2
1514896222315457,-1,-1,-1,0,0,-2,0,0
1514896222315457,-1,-1,-1,-2,-1,-1,-1,-1
1514896222329466,-1,-3,0,-2,-1,-1,-2,0
1514896222329466,2,2,-3,-2,-2,-2,-2,-1
1514896222331469,-2,-1,0,0,-2,-1,-1,-2
1514896222331469,-1,-2,-2,-1,-2,-1,-1,-1
1514896222352482,-1,-2,-1,0,-3,-2,0,-1
1514896222352482,-2,-1,-1,-2,-1,-1,0,0
1514896222353484,0,1,0,-2,-1,0,0,0
1514896222353484,-3,-2,-1,-1,0,-2,-1,-2
1514896222367493,0,-1,0,-1,-1,0,-2,-2
1514896222367493,-3,-1,-1,-1,0,-1,-2,-2
1514896222369495,-1,0,-1,0,-2,0,0,-2
1514896222369495,0,-1,-1,0,0,0,-1,-1
1514896222389510,-2,-1,-2,-2,-1,-1,0,1
1514896222389510,-1,0,-1,0,-2,0,0,-1
1514896222391512,-1,-1,-1,-2,-2,0,-1,-1
1514896222391512,0,-2,-2,-1,1,0,0,0
1514896222412032,-1,0,-1,0,-1,-1,-1,-1
1514896222412032,-1,-2,-1,-2,-1,-1,1,-1
1514896222413025,-4,-5,1,0,-1,-1,-1,1
1514896222413025,0,-3,0,0,0,-1,-3,-1
1514896222451065,0,-1,-2,-1,-3,1,-1,-1
1514896222451065,-2,0,0,0,0,-1,-1,-1
1514896222451565,-2,-3,-2,-3,-2,-1,-1,-2
1514896222451565,-1,-1,0,-2,-3,-1,-2,-1
1514896222453055,0,1,1,0,-2,-1,-3,-2
1514896222453055,0,1,-1,-3,-1,-2,-1,-1
1514896222464562,-1,-2,-3,-2,-1,-1,-1,-2
1514896222464562,-3,1,0,0,-1,-2,-2,-1
1514896222466063,0,0,-4,-2,0,-1,0,-1
1514896222466063,-2,0,-1,-4,-2,-1,-1,-1
1514896222471568,0,0,-2,-3,-1,-1,0,-1
1514896222471568,-1,-6,-1,-1,0,-1,-1,-3
1514896222487088,1,2,0,-1,-2,-3,-2,-2
1514896222487088,1,1,-3,-1,-1,-1,-2,-1
1514896222488078,-2,0,-2,-1,0,-1,-2,0
1514896222488078,1,4,0,-1,-2,-2,-1,0
1514896222508603,-4,-2,1,0,-1,-1,0,-2
1514896222508603,-1,-1,-1,-2,-2,-1,-1,-1
1514896222516108,0,0,-2,-3,0,-3,0,-1
1514896222516108,-3,-4,0,-1,-2,-1,-1,-1
1514896222532122,-1,-4,-2,-1,-2,1,-2,-2
1514896222532122,-1,-3,1,-1,-1,-2,0,-1
1514896222532610,0,3,-2,0,-1,0,0,1
1514896222532610,0,-2,-3,-2,-1,-1,0,-2
1514896222547133,0,-4,-1,-2,0,-1,-2,-2
1514896222547133,-3,0,0,1,-2,-2,0,-1
1514896222547622,-1,-1,-1,-1,-1,-2,-1,-2
1514896222547622,-1,-1,-2,-2,-2,-1,0,-1
1514896222568645,-2,-4,-2,-1,-1,2,0,0
1514896222568645,-1,2,-5,-1,-2,0,-2,0
1514896222576150,-1,1,-2,-2,-2,-2,-2,-3
1514896222576150,-1,-2,-1,-1,-2,-1,0,-2
1514896222592162,0,-2,0,-2,1,-2,-1,0
1514896222592162,-1,1,0,-1,1,-3,-1,1
1514896222592653,0,2,-1,-2,-2,-1,1,1
1514896222592653,1,-2,-1,-1,-2,-1,-1,0
1514896222607163,-2,-4,-2,0,-1,-1,-2,0
1514896222607163,-1,-2,-1,0,-1,-1,1,0
1514896222607664,-1,0,1,-1,-2,-1,-3,-1
1514896222607664,-2,-2,2,2,-1,0,0,0
1514896222630679,-1,-2,-2,-2,1,0,0,0
1514896222630679,0,-2,0,0,0,0,-1,-3
1514896222634182,0,-1,-1,-1,-1,-3,0,-1
1514896222634182,-2,0,-3,-2,0,-1,-1,-1
1514896222659701,-1,-1,-1,0,0,-2,1,1
1514896222659701,-1,0,-1,-1,-2,1,-1,-2
1514896222661211,-1,1,-4,0,-3,-2,-1,-1
1514896222661211,-2,-3,-1,-2,0,-2,-2,-1
1514896222665704,-1,-2,0,-2,0,0,-1,-1
1514896222665704,1,-3,-1,-1,-1,-3,-3,-2
1514896222674711,0,2,-1,-1,-1,0,-2,-1
1514896222674711,-2,-1,-2,-1,0,-1,-1,-1
1514896222689232,-1,-3,0,1,-2,0,-1,-2
1514896222689232,-1,-2,0,-1,0,-1,-1,0
1514896222691232,-1,-2,-1,0,-1,0,0,0
1514896222691232,1,-1,-3,-1,0,-2,0,-2
1514896222711236,-2,-2,-3,-2,-3,0,-2,-2
1514896222711236,-1,-1,-1,-1,-2,-2,-1,-1
1514896222726247,-1,0,-2,0,-2,-1,-1,-2
1514896222726247,-1,-3,0,0,-2,-2,-2,0
1514896222727247,-1,-2,-2,-3,-1,-3,-2,-2
1514896222727247,-1,0,-1,-1,0,-1,-2,0
1514896222735754,-2,2,0,-1,-1,-1,-2,0
1514896222735754,-1,-1,-1,-2,-2,-1,0,-2
1514896222749276,-1,-3,-1,1,-1,-2,0,0
1514896222749276,0,-1,-1,-3,-2,1,-2,-1
1514896222751280,1,0,-2,-2,0,-3,0,-1
1514896222751280,-1,-2,-2,-3,-1,0,-1,-1
1514896222771779,-2,-2,0,0,-3,-2,-2,-2
1514896222771779,-1,0,-1,-1,0,-2,0,-1
1514896222773781,1,-2,-1,0,-2,0,0,-1
1514896222773781,0,-2,0,-1,-1,-1,-1,-2
1514896222786797,-1,-4,-2,-1,0,-1,0,-1
1514896222786797,-2,-1,-1,0,-1,-2,-2,-1
1514896222793309,-2,0,0,0,1,0,-2,-1
1514896222793309,1,-2,-2,-2,-2,-2,0,0
1514896222809306,0,-1,-1,-2,-1,0,-2,-1
1514896222809306,-1,-2,-2,-3,-3,-2,1,-1
1514896222811307,-1,2,-5,-3,-1,-2,-2,-2
1514896222811307,-2,-2,-2,-1,-1,-1,-2,-1
1514896222832831,0,-2,-1,-2,-1,0,0,-1
1514896222832831,-2,1,-2,0,-1,0,-2,-2
1514896222836326,-1,-1,0,-2,-1,0,-2,-2
1514896222836326,-1,-1,-1,0,-1,-2,-1,-1
1514896222846332,-3,-5,-1,0,-2,-1,0,-1
1514896222846332,-2,-1,1,-1,-3,0,-1,-1
1514896222853339,-2,-1,-1,-2,-2,-1,-1,0
1514896222853339,1,-2,-2,-2,-1,0,0,-2
1514896222869348,-1,-1,-1,-1,0,-2,-1,-1
1514896222869348,-1,-2,-2,-1,0,-1,1,-2
1514896222871350,-2,-1,1,-1,-1,0,0,-2
1514896222871350,-2,-1,-1,0,0,-1,-1,0
1514896222891873,-1,-2,-1,-1,-1,-2,-2,0
1514896222891873,-1,-1,-1,0,-2,-2,-1,-1
1514896222893366,-1,-1,-1,-2,-1,-1,0,-2
1514896222893366,-1,-3,1,-1,-1,0,0,-2
1514896222906383,0,-2,-1,-1,-1,0,-1,-1
1514896222906383,0,0,0,-1,0,-2,-1,-1
1514896222920887,-2,0,0,-1,-1,-3,-2,-1
1514896222920887,-1,-1,-2,-1,-1,0,-1,0
1514896222929400,0,0,-2,-1,-1,-1,0,-1
1514896222929400,-1,-1,-1,-2,0,1,-1,-2
1514896222932893,-1,2,-2,0,-3,-1,-1,-1
1514896222932893,1,-2,-1,-1,-2,-2,-1,-1
1514896222951918,-1,-1,0,-1,-1,0,-1,0
1514896222951918,0,1,-1,-1,-1,-2,-1,1
1514896222954408,0,-1,-1,0,-1,-1,-1,-1
1514896222954408,-1,0,0,-2,0,0,0,-2
1514896222974433,-2,-3,-2,-1,-2,0,0,-1
1514896222974433,0,1,-1,-1,0,-2,-1,0
1514896222975924,0,-1,0,-1,-1,-1,-1,-3
1514896222975924,-1,-2,-2,-2,-2,0,-2,-1
1514896222995948,-1,-1,0,1,-1,-1,-2,-1
1514896222995948,0,-3,-1,-2,-1,-1,-2,-2
1514896223023457,1,-2,-1,-2,-1,-3,-1,-1
1514896223023457,0,-2,0,0,-2,-2,-1,-3
1514896223025459,-1,0,-2,-1,-1,-1,-2,0
1514896223025459,-2,-1,-1,-1,-1,-1,-1,0
1514896223028961,-2,-2,0,-2,0,-1,-1,0
1514896223028961,-4,0,-2,-2,-1,0,-2,-1
1514896223029962,-2,-3,-1,-1,1,0,-1,-2
1514896223029962,-2,1,-1,-1,-1,0,-1,-1
1514896223034465,-1,-1,-1,0,-1,1,0,1
1514896223034465,-1,-3,-1,0,-1,-2,-2,-1
1514896223049487,0,-2,-2,1,-2,-1,-3,0
1514896223049487,-1,-2,-2,-1,-1,1,0,0
1514896223050977,0,-1,-2,-2,1,-2,-1,-2
1514896223050977,1,-1,-1,0,-2,0,0,-1
1514896223072000,-1,2,-4,-1,-1,0,-1,-4
1514896223072000,-3,0,1,1,-2,-1,-1,-2
1514896223073495,-2,-1,-2,0,-1,-2,-1,-1
1514896223073495,-1,-1,0,-1,-1,-1,-2,-1
1514896223085510,-1,-1,-1,1,0,-2,-2,-1
1514896223085510,0,-1,0,-2,-1,-2,-1,-1
1514896223094508,-1,0,-2,-2,-1,0,0,-1
1514896223094508,-3,-1,-2,0,-1,0,-2,-2
1514896223109527,-1,-1,0,-2,-1,0,0,-1
1514896223109527,1,0,-2,-1,-1,-2,-1,-1
1514896223111019,-1,0,0,1,-1,-1,0,-1
1514896223111019,-1,-2,-1,-2,-1,0,-1,-1
1514896223133035,-2,-1,-1,-1,-2,-1,-2,-1
1514896223133035,-2,-1,-1,-2,-1,0,-2,-2
1514896223146544,-1,-2,-1,-1,0,-2,-1,-1
1514896223146544,-1,-1,-2,0,-1,-1,-1,0
1514896223147044,-2,-1,0,-1,-1,-1,1,1
1514896223147044,0,0,-2,-1,1,-1,-1,1
1514896223154552,-1,-2,-2,1,-1,0,-1,-1
1514896223154552,-1,-1,-1,-1,0,-1,1,-1
1514896223168560,-1,-1,-2,-2,0,-1,-1,0
1514896223168560,1,0,-2,1,-1,-2,-1,-1
1514896223177066,0,-1,-3,-2,-2,-1,-1,0
1514896223177066,-1,-1,-4,-2,-2,0,1,-3
1514896223191576,-2,-1,-1,-2,0,0,-1,-2
1514896223191576,0,-1,-1,-3,-1,0,0,-2
1514896223198581,-2,-1,-2,-1,0,-2,-2,0
1514896223198581,-2,-2,-1,-2,0,-2,-3,-1
1514896223205585,0,-2,-1,-1,-1,0,0,-2
1514896223205585,1,0,0,0,-2,-1,-2,-1
1514896223214592,-1,-2,0,-1,-1,-1,-1,0
1514896223214592,-3,-4,-1,1,-1,0,-2,-1
1514896223230106,-1,-3,-3,1,0,-2,-1,1
1514896223230106,-1,-1,-1,-1,-1,-2,0,0
1514896223233606,-2,-1,-1,-3,-2,-2,-1,-3
1514896223233606,-2,-2,-1,-1,1,-1,0,0
1514896223252131,1,0,1,-1,0,-1,-2,-2
1514896223252131,0,0,-4,1,-1,0,0,-1
1514896223254620,-1,0,-1,0,-2,-1,0,-2
1514896223254620,-1,-3,-1,-2,-2,-2,1,0
1514896223265643,-3,0,-2,-1,-4,-1,-2,-2
1514896223265643,0,0,0,-1,-1,-1,0,-1
1514896223280691,-2,-2,0,-2,-2,-1,0,-1
1514896223280691,0,-3,-1,0,0,-1,-2,-2
1514896223289676,-1,0,-1,0,-1,-2,0,0
1514896223289676,-1,-1,-1,-2,0,-1,-2,-2
1514896223291177,-1,-1,0,0,-1,-2,0,-2
1514896223291177,-1,-1,1,-1,-1,0,-2,0
1514896223312193,-1,1,-1,-3,0,-1,-1,-1
1514896223312193,-3,-1,-2,0,-1,-1,-2,-1
1514896223313703,-1,-1,-3,-2,1,-1,-2,-1
1514896223313703,-2,-4,0,-2,-3,-1,1,0
1514896223334708,-1,0,-1,-1,0,0,-1,-2
1514896223334708,0,0,-1,-3,-2,0,-2,-3
1514896223336715,0,-2,-1,-1,0,1,-1,-2
1514896223336715,-1,-1,-1,1,-1,-1,-1,0
1514896223349218,-1,-1,-1,0,-1,-1,-1,1
1514896223349218,-2,-1,-3,-1,-2,-2,0,-1
1514896223351219,-1,-1,-3,-1,0,-1,-1,2
1514896223351219,1,-2,-2,-1,-2,-1,-3,0
1514896223372273,-1,1,-1,-2,-2,-1,0,1
1514896223372273,-1,1,0,-2,-2,0,1,-1
1514896223378269,0,1,0,-2,-2,1,1,-1
1514896223378269,-1,-3,0,-2,0,0,-1,-3
1514896223385774,0,-1,-2,0,-1,-1,-1,-1
1514896223385774,-3,1,-2,-1,-1,-1,-1,0
1514896223400784,-1,-1,-4,-2,-1,-1,-2,-1
1514896223400784,0,0,-1,1,-2,-1,-1,-3
1514896223409302,0,0,2,0,-1,-2,-1,-3
1514896223409302,-1,0,0,-2,-1,-1,-2,-1
1514896223411297,-1,-2,0,0,-3,-1,0,0
1514896223411297,-2,0,0,0,-1,-1,0,0
1514896223433307,-2,-2,-2,-3,-1,-1,-2,-1
1514896223433307,0,-1,-1,-2,0,-2,-1,0
1514896223434809,1,-3,-1,-3,-1,-1,-2,-1
1514896223434809,-1,-2,-2,-2,-1,-2,0,-2
1514896223445818,-1,-1,-1,-1,-1,-2,0,-2
1514896223445818,-2,-1,0,-1,-2,0,-3,-3
1514896223461827,-3,-2,-3,0,-1,-1,-1,-1
1514896223461827,-1,-2,-3,0,0,-1,-2,-1
1514896223476838,-2,-3,0,1,-1,-1,-1,1
1514896223476838,-1,-1,-2,-1,0,-3,-1,-1
1514896223479350,-1,-3,-2,0,-2,1,-1,-2
1514896223479350,-1,-2,-1,-2,-1,0,0,-2
1514896223500355,0,-2,-1,1,-1,-2,0,-1
1514896223500355,-1,-1,-1,-1,-1,-1,0,-1
1514896223501856,0,-1,0,-2,-3,-1,0,-1
1514896223501856,-4,1,-2,-1,-3,-2,-2,1
1514896223522872,0,0,-1,-3,0,-1,-2,-3
1514896223522872,0,0,-1,-1,-1,-1,-1,-1
1514896223526383,-2,-2,0,-1,0,-1,-1,-3
1514896223526383,-1,-2,-3,-2,-1,0,0,-2
1514896223529379,-3,0,-2,1,-1,-2,-2,1
1514896223529379,-1,0,-2,0,-2,0,-2,0
1514896223530876,-2,-1,-2,0,-2,-1,-1,-1
1514896223530876,-1,-1,-2,0,0,-1,-1,-1
1514896223559409,-1,0,-1,-2,-1,-1,-2,-1
1514896223559409,-2,-2,0,-1,-1,-1,1,-3
1514896223560898,-1,-3,-1,1,0,-1,-1,0
1514896223560898,0,-1,-1,-2,-2,-1,-2,0
1514896223574909,-1,1,0,-1,0,-1,0,-2
1514896223574909,-2,0,-2,-1,0,0,-1,0
1514896223580449,-1,-1,-1,-1,-1,-2,-1,0
1514896223580449,0,-2,-1,0,0,-2,-2,-1
1514896223588926,-2,0,-2,-2,0,0,-3,-1
1514896223588926,0,2,-1,-2,-2,-2,0,-2
1514896223595423,-3,-1,0,0,1,-1,-2,-3
1514896223595423,-2,-3,0,1,0,-2,-2,-3
1514896223612447,-1,-2,0,-1,0,1,0,-2
1514896223612447,0,0,-1,0,-2,1,-1,-2
1514896223617947,-2,-3,-1,0,0,-2,-1,0
1514896223617947,0,-1,-1,1,-1,0,-2,0
1514896223635450,-1,1,-1,-2,1,-1,1,-1
1514896223635450,-1,1,0,-1,-1,-1,-1,-1
1514896223638953,0,-2,-1,-1,-1,1,-1,0
1514896223638953,1,-2,-1,-2,-1,-1,0,-1
1514896223648967,-1,-1,-1,-1,-2,0,-1,-1
1514896223648967,0,1,-1,-2,-1,-1,0,-1
1514896223655480,0,-1,-3,-2,-2,-2,-2,-1
1514896223655480,-1,-6,1,-2,-1,0,0,0
1514896223680485,-1,0,1,-2,-3,0,-1,0
1514896223680485,-1,0,-1,0,-1,-2,1,-1
1514896223682984,0,-2,-1,-1,0,0,-2,-2
1514896223682984,-3,-2,-1,-1,-1,0,-1,-1
1514896223702007,-2,0,-3,-1,-1,-2,0,-2
1514896223702007,0,-1,-1,-2,0,-1,0,1
1514896223703498,-1,-1,0,-3,-1,-2,-1,-1
1514896223703498,-2,-1,-2,2,-1,1,-1,-2
1514896223709514,1,1,-1,-2,-1,-1,-2,-2
1514896223709514,-2,1,-2,0,0,-1,0,-1
1514896223715518,-2,-2,-2,-2,-3,-2,0,-2
1514896223715518,-2,-3,0,-2,-1,-1,-2,0
1514896223732519,-1,-2,-1,0,0,-1,-2,-3
1514896223732519,0,1,-2,-1,-1,0,-2,1
1514896223736022,0,-1,-1,-3,-1,0,-1,-1
1514896223736022,-1,-3,-1,-1,-1,0,-1,1
1514896223754546,-1,0,-2,-1,-2,-1,-1,-1
1514896223754546,0,-2,2,-1,0,-2,-1,0
1514896223756047,-1,-2,0,0,-2,0,-1,-1
1514896223756047,-1,-2,-2,-1,-1,-1,-1,-1
1514896223769044,1,0,0,-2,-3,-1,-1,0
1514896223769044,-1,1,-3,-4,-2,-1,-1,-2
1514896223775579,-1,-2,-1,-2,-2,-2,-1,-1
1514896223775579,1,-4,-1,-2,-3,-2,-1,-3
1514896223792097,-2,0,-2,-1,0,0,-1,-2
1514896223792097,0,1,-1,0,0,-2,0,-1
1514896223793589,1,-1,-2,0,0,0,-1,1
1514896223793589,-2,-2,-1,-1,-1,-1,0,-1
1514896223814603,0,-2,-1,0,-1,0,0,-2
1514896223814603,-2,-2,-2,-1,-2,-1,0,-1
1514896223816117,-1,-1,0,-1,-1,-1,0,-1
1514896223816117,-1,-1,0,0,0,0,-1,-2
1514896223828623,-1,1,-1,-2,-1,-1,-1,-2
1514896223828623,-1,2,-2,-1,-1,-1,-1,-2
1514896223837631,-2,-2,-1,0,-1,-2,-2,1
1514896223837631,-2,-2,0,-2,-1,-1,-1,-1
1514896223852631,-2,-3,0,-2,0,-1,1,0
1514896223852631,-1,-1,-3,-1,-1,-1,-1,-1
1514896223854134,-2,-3,-3,-2,0,1,0,-1
1514896223854134,0,-1,-2,-1,-2,-2,-1,-2
1514896223874656,-1,0,-1,1,0,1,-1,-1
1514896223874656,1,-1,-2,0,-1,-1,-1,-1
1514896223876157,0,-3,0,-1,-2,-2,-1,-2
1514896223876157,-1,-3,-2,0,0,-1,0,-2
1514896223888669,-3,-2,-1,0,-1,-2,-2,-1
1514896223888669,-3,0,-2,-1,-2,-2,-2,-1
1514896223895661,-1,-1,0,-1,-1,-1,0,-2
1514896223895661,1,-3,0,-3,-1,-1,-2,0
1514896223912173,-1,0,-2,-2,-2,-4,0,0
1514896223912173,-1,1,-2,-2,1,-1,-2,1
1514896223913690,-1,-2,1,1,-1,1,0,0
1514896223913690,-2,-1,0,-1,0,-2,-1,-1
1514896223935189,-2,0,0,-1,-1,-1,-1,-1
1514896223935189,1,-1,0,-2,1,-1,-1,-2
1514896223938692,0,-2,-2,-1,0,-2,-1,-1
1514896223938692,-3,-3,-1,-1,0,-2,0,0
1514896223948726,0,1,-2,1,-2,1,1,1
1514896223948726,0,1,0,-2,-2,-1,-1,0
1514896223963208,-1,-1,-1,0,-1,-3,-2,-1
1514896223963208,-2,-2,-3,-1,-1,0,-1,-2
1514896223979720,-1,-2,0,-2,-3,-2,-2,0
1514896223979720,0,-1,-2,0,-1,1,-1,-1
1514896223981223,-3,-1,-1,-1,-2,-1,-2,-1
1514896223981223,0,-1,-2,-1,-2,0,-2,0
1514896223994731,-1,-1,0,-2,-1,-1,0,-2
1514896223994731,-1,-1,0,0,1,-1,0,1
1514896223996249,0,-3,-2,-3,-1,-1,-1,-1
1514896223996249,-1,-3,-2,-1,-1,0,0,-1
1514896224008753,-2,1,-1,-1,0,-1,-1,-3
1514896224008753,-1,-1,1,-1,-2,-2,-1,-1
1514896224017256,-1,-1,-3,-1,-1,-1,-1,0
1514896224017256,-1,-2,0,-2,-1,0,1,0
1514896224032758,0,0,-2,-1,-2,-1,0,-2
1514896224032758,-2,2,-1,-1,-2,-1,-2,0
1514896224035769,0,-1,-1,0,-1,0,-1,0
1514896224035769,-1,-2,0,0,-2,0,-1,-2
1514896224054773,0,-1,-3,0,0,-3,-1,1
1514896224054773,0,1,-3,-1,-1,-2,-1,-3
1514896224056274,-2,-2,1,-2,-1,-1,-1,-2
1514896224056274,-1,-2,0,-1,-1,-2,-3,-3
1514896224068283,-1,0,-1,-1,-1,-1,-2,1
1514896224068283,0,0,-2,-2,-3,-1,-1,-2
1514896224084338,-1,-2,-1,0,-1,-2,1,0
1514896224084338,0,-3,-1,-1,-3,-2,0,0
1514896224091831,-1,-1,-2,-1,0,0,-1,-3
1514896224091831,-2,0,0,0,-2,-2,1,0
1514896224093331,-2,-1,0,-2,-2,-1,-3,-2
1514896224093331,0,-2,-1,0,-1,-1,-2,0
1514896224114368,-2,0,-1,0,-1,0,-3,-1
1514896224114368,0,0,-2,-1,-2,0,-1,-2
1514896224116353,-2,-3,-3,-2,-1,-2,-2,0
1514896224116353,-1,-1,-1,-2,0,0,-1,0
1514896224127866,0,1,-2,-4,-3,1,0,1
1514896224127866,-3,0,0,-2,0,2,-1,-1
1514896224137365,0,-1,-1,0,-1,0,1,0
1514896224137365,-1,-1,-1,-1,-2,-1,-1,-1
1514896224151873,-1,-1,0,0,0,-1,-2,0
1514896224151873,0,0,-1,-2,-1,-2,1,0
1514896224159378,0,-2,-2,-1,-1,-2,1,-1
1514896224159378,-1,-3,1,1,-1,0,0,-2
1514896224174389,1,1,-3,0,-3,-1,-1,-2
1514896224174389,0,2,-1,-2,-1,0,-1,-2
1514896224175890,0,-1,-1,-1,-1,-2,-2,-1
1514896224175890,-1,-2,-1,-1,0,0,0,0
1514896224188401,-2,-2,-1,-1,-2,-2,-1,0
1514896224188401,-1,-1,-1,0,-1,-1,0,0
1514896224197906,-1,0,-2,-1,-1,-1,-1,0
1514896224197906,-2,-4,-3,0,-1,-1,-3,-2
1514896224211915,-1,0,0,-3,-2,-1,-1,-1
1514896224211915,-1,-2,-3,-1,-2,-2,-1,0
1514896224213417,-1,-3,-1,-1,-2,1,0,-1
1514896224213417,-1,-3,-1,-3,-1,-1,-1,0
1514896224234436,-2,-1,-2,0,-2,-1,1,-2
1514896224234436,-2,-1,-1,-3,-1,-2,-1,-2
1514896224241937,-2,-1,0,-1,-1,-1,-3,0
1514896224241937,0,-2,0,-1,-1,0,0,-1
1514896224247946,-2,-2,-1,0,0,-1,-3,-1
1514896224247946,-2,-1,-1,-1,-1,-1,-2,0
1514896224256948,0,-2,-2,0,-1,-3,0,-1
1514896224256948,-2,-4,0,0,0,0,1,-1
1514896224272460,-1,-1,2,0,-1,-2,0,-1
1514896224272460,-1,-1,-3,-1,0,-1,-2,-1
1514896224273480,-1,-2,-1,-3,1,-1,-1,0
1514896224273480,-1,1,-3,0,-1,-1,-2,0
1514896224294974,-1,0,0,-2,1,0,0,0
1514896224294974,-1,0,0,-1,-1,-2,-1,-1
1514896224296977,-1,-3,-1,-2,-1,0,-1,-2
1514896224296977,0,-1,-2,0,-1,1,0,-1
1514896224308489,-1,0,0,-2,0,0,-1,-1
1514896224308489,-1,0,-1,-2,-2,-1,0,0
1514896224316989,-2,-1,0,-1,0,-1,-2,-3
1514896224316989,0,0,0,-1,-1,-1,-2,-1
1514896224332021,-1,0,-3,-2,-2,0,0,-2
1514896224332021,-2,0,0,-1,-2,-2,-1,-1
1514896224333501,-1,-3,1,-1,-1,-2,0,-1
1514896224333501,-1,-2,-1,-2,-1,-2,-1,-1
1514896224355031,0,0,-1,0,-1,-1,0,1
1514896224355031,-1,-2,-2,-1,0,-2,-2,-2
1514896224356518,1,1,-3,-1,-3,0,0,-1
1514896224356518,-3,-3,-2,0,-1,-2,-1,-3
1514896224368029,1,0,-2,-1,1,-2,-1,-2
1514896224368029,-1,-1,-3,-2,-1,0,-1,-2
1514896224377033,-1,-2,-1,0,1,-2,-2,-2
1514896224377033,-1,-2,-1,0,0,1,-1,-1
1514896224392555,-2,0,-2,-4,-3,-2,-2,-3
1514896224392555,0,1,0,-2,-1,0,0,-1
1514896224399048,-2,-2,0,-1,-3,-1,-2,0
1514896224399048,-1,-1,-1,-1,-2,-1,-3,1
1514896224414560,-1,-1,-2,0,0,-2,-1,-1
1514896224414560,-1,2,-4,0,-1,0,-1,-2
1514896224416060,-3,-2,-2,-2,-1,0,-1,0
1514896224416060,0,-1,-1,-1,-1,-1,0,-3
1514896224437575,-1,-1,-1,-1,-2,-2,0,1
1514896224437575,0,-2,-1,-1,-1,-2,-1,-1
1514896224441077,-1,-2,-3,0,-1,0,-1,0
1514896224441077,-1,-2,-2,-1,-1,0,-1,-1
1514896224459600,0,0,-2,-2,-1,-2,0,-2
1514896224459600,-1,-1,0,0,-1,-1,-3,0
1514896224461093,-1,-3,-2,-1,-1,0,-2,-2
1514896224461093,0,-2,0,-1,0,1,-2,-1
1514896224474603,-1,-2,-2,1,-3,-1,0,-1
1514896224474603,0,-1,-1,-1,-2,-1,1,0
1514896224476118,-1,-2,0,1,-2,-1,-1,0
1514896224476118,-3,0,-2,-2,-1,-1,1,-2
1514896224498118,0,-1,-1,-1,-1,1,-2,-1
1514896224498118,-1,0,-1,-1,0,-2,-2,-2
1514896224503121,-2,-2,-1,-3,0,-2,-2,-1
1514896224503121,-1,-2,-3,-2,-1,-2,1,-3
1514896224512128,-2,-2,1,-1,-2,0,-2,0
1514896224512128,0,-1,-2,-1,-2,1,-3,1
1514896224513629,-2,-2,-2,-2,-2,-1,-1,-1
1514896224513629,0,-1,-2,-1,0,-1,-2,0
1514896224534644,0,0,-2,0,-1,-3,0,-1
1514896224534644,-1,1,-1,1,-1,-1,1,0
1514896224536645,-1,-1,0,-2,-1,0,1,-2
1514896224536645,-2,0,-1,-1,-1,-1,-1,-1
1514896224557170,-1,-1,-1,0,-2,-1,-1,-2
1514896224557170,1,1,-1,-2,-2,-1,0,0
1514896224558662,0,-2,-1,0,-1,-1,-1,-2
1514896224558662,-1,0,1,0,0,-1,-3,0
1514896224572170,-3,0,-1,-2,0,-2,-1,-1
1514896224572170,-2,-3,-1,-2,-1,-2,0,-2
1514896224573679,0,-2,1,-1,-1,-1,-1,-1
1514896224573679,0,-2,1,-2,0,-1,-1,-1
1514896224594687,0,0,1,-1,-1,0,-1,-1
1514896224594687,-1,1,-1,-2,-2,-2,-4,0
1514896224596188,0,-3,-3,-1,-1,-1,-1,1
1514896224596188,0,-3,-1,1,-1,0,0,0
1514896224617705,-1,1,0,0,-2,0,0,2
1514896224617705,0,0,-3,0,-2,-2,0,-1
1514896224619207,1,0,-1,-1,0,-1,-2,0
1514896224619207,-1,0,-1,2,-2,-1,-2,0
1514896224631231,1,0,0,-3,-1,0,0,-1
1514896224631231,-1,-3,0,-2,-1,0,-2,-3
1514896224638233,0,-1,0,0,-3,-2,-2,-1
1514896224638233,0,-2,-1,-2,0,-1,0,0
1514896224669251,0,0,-1,-2,-1,-2,-2,-1
1514896224669251,-3,1,0,-1,1,0,-1,0
1514896224671244,-2,-1,0,0,-1,-4,-2,-1
1514896224671244,-1,-1,-2,-1,-2,-2,0,-3
1514896224676745,1,-1,-3,-3,-1,-1,-2,-1
1514896224676745,-1,0,0,-1,-1,-1,0,-1
1514896224679246,-1,-3,-1,-1,-2,-1,0,-2
1514896224679246,-3,0,-1,0,-2,-2,0,0
1514896224691254,0,0,-1,-3,-1,0,-1,-2
1514896224691254,-1,-1,-2,-1,-1,-2,-2,-2
1514896224698769,-2,-2,-2,-1,-1,0,-2,0
1514896224698769,-1,1,0,-2,-2,-1,-2,-1
1514896224714271,-2,0,0,0,-2,-1,-1,-1
1514896224714271,0,-3,-2,-3,-1,1,-1,-1
1514896224716284,0,-3,-2,0,-1,-1,0,-2
1514896224716284,-1,1,-3,-1,0,-1,0,0
1514896224738289,-2,1,-2,-1,-2,-1,-1,-1
1514896224738289,-1,-3,-1,0,-1,-1,0,-2
1514896224742291,-1,-1,-1,1,0,1,-3,-1
1514896224742291,-2,-1,0,0,0,0,-1,-1
1514896224751297,-1,-2,-2,1,0,-3,-1,-1
1514896224751297,-2,-1,-1,-2,1,-1,0,0
1514896224758302,-2,0,-1,-2,0,0,-1,-1
1514896224758302,0,-1,-1,-3,-2,-1,-2,0
1514896224774313,-2,0,-1,-2,-1,-2,-2,-2
1514896224774313,0,0,0,0,-3,-2,0,0
1514896224780856,-1,-2,-3,-2,-1,0,0,0
1514896224780856,-1,-1,0,0,-1,0,-1,-2
1514896224797830,-1,-3,-1,0,-2,-1,-1,-1
1514896224797830,0,-1,-2,-2,-1,0,-3,-1
1514896224801332,0,-1,-1,-3,-1,-2,-1,-2
1514896224801332,-1,-1,0,-1,-1,0,1,-2
1514896224811840,-1,-2,0,-3,-1,0,-1,-2
1514896224811840,0,-3,0,-1,0,-2,0,-1
1514896224817844,-2,-2,0,0,-2,-1,1,-1
1514896224817844,0,-1,-1,-1,-1,-1,-3,0
1514896224834355,-1,0,-2,0,0,-2,-1,1
1514896224834355,-1,0,-1,-1,0,-1,-2,0
1514896224835857,-1,-3,0,-1,-2,0,-3,-3
1514896224835857,-2,0,-1,0,-2,-1,-1,-2
1514896224855871,-1,2,0,-2,-1,0,-1,-1
1514896224855871,-3,-3,1,-2,-2,-2,1,-1
1514896224871883,-2,-1,1,0,-1,-2,0,-1
1514896224871883,-4,0,-1,0,2,-1,-1,-3
1514896224872883,-2,1,-2,-1,0,-1,-2,-1
1514896224872883,-1,1,-3,-1,-1,0,0,-4
1514896224878446,-1,-2,-2,-1,-1,-1,-1,0
1514896224878446,-1,-3,-1,1,0,-1,-1,-1
1514896224894409,-3,-2,-2,-2,-2,-1,0,-2
1514896224894409,-1,-2,-2,-2,-1,0,-1,-1
1514896224895901,-2,-2,0,-1,0,-2,-2,0
1514896224895901,0,-1,-2,-1,-1,-2,-2,0
1514896224916915,-1,0,0,0,-1,-3,-1,0
1514896224916915,-1,-3,-2,0,-1,-1,-1,0
1514896224918416,-2,-3,-2,0,-1,-2,0,-1
1514896224918416,0,-1,-1,-3,-2,-2,-2,-1
1514896224930425,-1,0,-1,1,-2,-1,-1,-3
1514896224930425,-2,0,-1,-1,1,0,-1,0
1514896224946935,0,-1,-2,-3,0,0,-1,-1
1514896224946935,-1,-1,-2,-3,-2,-2,0,-2
1514896224954449,1,1,-1,-1,0,1,0,0
1514896224954449,0,0,0,-2,-1,-1,-2,-1
1514896224956942,-2,-2,2,0,-1,-1,1,1
1514896224956942,-1,-2,-1,-1,-3,-2,-1,0
1514896224984461,-1,-2,-1,-1,-2,-1,0,0
1514896224984461,-1,-3,-3,-1,-1,1,-1,-2
1514896224985963,-1,-2,-1,-1,0,1,-1,-2
1514896224985963,-1,0,0,0,0,-2,-1,-1
1514896224990466,-2,-1,0,-1,-1,1,-1,-1
1514896224990466,-2,-1,-1,0,-1,-1,-1,0
1514896225001974,-2,-1,-3,-1,-1,-1,-1,-2
1514896225001974,0,0,0,0,0,0,-1,-1
1514896225014983,-2,0,-1,-3,0,-1,-2,-2
1514896225014983,-1,-1,-1,-2,0,0,-1,0
1514896225016484,-1,-1,-2,-2,-2,-1,-2,-2
1514896225016484,-2,-1,-2,-1,0,-1,-1,-1
1514896225038500,0,0,-1,-1,1,-1,-1,0
1514896225038500,0,-1,0,0,-1,-2,0,1
1514896225041003,0,-2,-1,0,-1,0,-2,-2
1514896225041003,-1,0,-1,-1,-1,-1,-1,-2
1514896225050520,-2,0,-1,-1,1,-1,-1,-2
1514896225050520,-1,-3,-3,0,-1,-2,-2,-2
1514896225059515,-1,-3,-1,-1,-1,-2,-1,-2
1514896225059515,-1,1,-1,-2,0,1,-2,0
1514896225074535,-1,-1,-1,-1,-1,-2,-1,-1
1514896225074535,-1,-3,-1,-1,0,-1,-1,-2
1514896225076035,-2,-2,-1,-1,-1,-1,0,0
1514896225076035,-1,-1,-2,-1,0,-2,0,-2
1514896225097061,-1,-1,-1,1,-2,0,1,1
1514896225097061,-1,-1,-2,-1,-1,-2,0,-1
1514896225100544,0,-4,0,-1,-2,-1,-1,1
1514896225100544,-2,2,-2,-2,0,0,-1,0
1514896225119557,2,1,-1,-1,0,0,0,0
1514896225119557,-1,-1,-2,-3,-2,-2,-1,-1
1514896225121061,-2,-2,-2,0,0,0,-1,-2
1514896225121061,1,-1,1,-1,-1,-2,-2,-1
1514896225134568,-1,-2,-2,-4,-1,-3,-2,-3
1514896225134568,-1,-1,0,-1,-2,-1,-2,-1
1514896225136069,0,-1,-3,-1,-1,-2,-1,-1
1514896225136069,-1,-1,-1,0,-2,-1,-2,-2
1514896225157084,-1,-1,-1,0,-1,0,-1,-1
1514896225157084,-1,-2,-1,0,-1,-1,0,-1
1514896225158584,0,-2,-1,-1,-1,0,-2,-1
1514896225158584,0,0,-1,1,0,0,-1,-2
1514896225170596,-1,-1,-1,0,-1,-2,-1,1
1514896225170596,0,-1,-3,-1,0,-1,0,-2
1514896225180100,-2,-1,0,-2,-1,-2,-1,-1
1514896225180100,0,-1,-2,-1,-2,0,0,0
1514896225194611,-2,0,-1,-2,0,-1,-3,0
1514896225194611,0,-4,-1,-1,-3,0,-2,0
1514896225197113,-2,-2,-1,0,-1,-2,-1,0
1514896225197113,-2,0,-4,-2,-1,-1,-1,-2
1514896225217125,-2,0,-2,-1,-1,-1,1,-2
1514896225217125,-1,-2,-2,-1,0,-1,0,0
1514896225218628,-1,-1,-2,1,0,0,-2,-2
1514896225218628,-2,-1,-1,-1,0,-1,-1,-1
1514896225240143,-1,0,-3,-1,-1,-1,0,-2
1514896225240143,-2,-3,-1,-2,0,0,0,-2
1514896225243654,-2,0,-1,-3,-1,0,-2,-1
1514896225243654,0,1,-1,0,0,-2,-2,1
1514896225253663,-1,0,-1,-1,-1,-1,0,-3
1514896225253663,-1,-4,-2,-1,0,-2,0,-1
1514896225262158,-2,-3,0,0,-2,0,0,-1
1514896225262158,0,-1,-2,-1,-2,-1,-1,-3
1514896225276690,-1,1,0,-1,-2,-2,-1,0
1514896225276690,-1,-1,-2,-2,-2,-3,-2,-2
1514896225279670,-1,-2,-1,-3,1,0,-2,-2
1514896225279670,-1,-2,-1,0,0,0,-2,0
1514896225300185,-2,0,-1,-2,0,-1,-2,-3
1514896225300185,0,-2,0,-1,-1,-1,-1,-1
1514896225302686,0,-2,-1,-1,-2,-2,-1,-2
1514896225302686,0,0,-1,-2,-1,0,-1,-2
1514896225322701,-1,-1,-2,-1,-2,-1,-1,-1
1514896225322701,0,0,-3,0,0,-2,-1,-3
1514896225326718,-1,-3,2,-1,0,0,0,-1
1514896225326718,-2,0,-1,-1,-2,-1,-3,-1
1514896225337244,-1,1,-3,-1,-2,-3,-2,2
1514896225337244,0,-2,0,0,-1,-1,-1,-1
1514896225338744,-2,-2,-2,0,0,-2,-1,0
1514896225338744,-1,-1,-1,-1,0,-1,0,1
1514896225350752,1,0,0,0,-1,0,0,0
1514896225350752,-2,-3,-2,-2,-2,-1,-2,0
1514896225367277,-1,-2,-3,-2,-2,-1,-1,-2
1514896225367277,-1,-1,-1,-1,-2,-1,-1,-2
1514896225374278,0,-1,-3,-1,0,0,-1,0
1514896225374278,-1,0,1,-2,0,0,-1,-1
1514896225376280,-1,-3,-1,-1,-1,0,0,-3
1514896225376280,0,-1,-2,-2,0,-1,0,0
1514896225396285,-2,-1,-2,0,0,0,-1,-3
1514896225396285,-3,-1,1,-1,-2,0,-2,-1
1514896225404791,-1,-2,-2,-2,-1,-1,-1,1
1514896225404791,-2,0,0,1,-1,0,-1,2
1514896225419300,1,0,-2,-2,-1,0,-1,-1
1514896225419300,-1,-1,-1,-2,1,-1,-2,0
1514896225422804,0,0,-1,0,-2,-1,-1,-1
1514896225422804,0,-1,0,-3,-1,-1,-1,-1
1514896225434321,1,1,-2,-2,0,-3,-1,0
1514896225434321,-1,-2,0,-2,-2,-1,-1,-2
1514896225435822,-2,-2,-1,1,-1,0,-3,-1
1514896225435822,0,-1,0,1,-1,-1,0,-2
1514896225456828,-2,-1,1,0,-3,-1,-2,-2
1514896225456828,0,-2,-4,0,-2,0,-2,-1
1514896225458329,-2,-3,-1,-1,-1,0,-2,-1
1514896225458329,-1,2,-2,0,-1,-1,-1,0
1514896225479368,-2,1,-1,-1,-1,0,-1,-2
1514896225479368,0,-2,-1,0,-2,-2,1,-1
1514896225480884,-1,-4,-1,0,0,-1,0,-1
1514896225480884,-2,-2,-3,-3,-2,-2,-1,-2
1514896225501859,1,-1,-1,-2,-1,-1,-1,1
1514896225501859,-1,-2,-1,-1,-1,0,-1,0
1514896225503360,-2,-3,0,-2,-2,0,-2,0
1514896225503360,-3,-2,0,-1,-2,0,-2,-2
1514896225516870,-2,-1,0,-1,-1,-2,-1,-3
1514896225516870,-2,-2,-2,0,1,-2,-1,-1
1514896225518371,0,-3,-2,-2,-3,-1,0,-1
1514896225518371,-2,0,-2,-1,-1,-2,-1,-2
1514896225539395,0,-1,-2,-2,-1,-1,-2,-1
1514896225539395,-1,-1,-2,-1,-2,-1,-2,-1
1514896225540897,-1,-3,-3,-3,-1,0,-1,0
1514896225540897,-2,-1,-1,-1,0,-2,-3,-2
1514896225553908,-2,0,0,-1,0,1,0,0
1514896225553908,-1,-2,-1,-1,-1,-1,-1,-3
1514896225560400,0,-1,-2,0,-1,-2,0,-1
1514896225560400,-1,-1,-2,0,-2,-1,-1,-1
1514896225576915,1,-1,0,-2,-1,-2,-1,-3
1514896225576915,-2,-2,0,-1,-2,-1,0,0
1514896225579414,0,-2,-1,-1,-1,-1,-1,-1
1514896225579414,-1,0,-1,-2,-1,-2,-2,0
1514896225600431,-2,0,-1,1,0,-3,0,-1
1514896225600431,0,-2,-2,-2,-2,-1,-1,1
1514896225602931,-1,-3,-1,-2,0,0,-2,-2
1514896225602931,-1,-3,-1,-2,-2,1,-2,-1
1514896225614439,-1,-1,-2,-1,-3,-2,-3,-3
1514896225614439,0,-1,-1,0,-1,-2,-2,-3
1514896225620443,-1,-1,-1,0,-1,-1,0,0
1514896225620443,-1,1,0,-1,0,-1,0,0
1514896225644460,-2,1,-1,-2,0,-1,-1,0
1514896225644460,-2,-1,-2,-1,-1,-1,-3,0
1514896225645961,-1,-1,-1,-2,1,0,0,-1
1514896225645961,-1,1,-1,-3,-1,-1,1,0
1514896225659471,1,0,-3,0,-2,-1,0,-2
1514896225659471,-2,-3,-1,-2,-1,-1,0,0
1514896225660972,-3,-1,0,-1,0,-2,-1,-2
1514896225660972,0,0,-1,-1,-1,0,-2,-1
1514896225674494,-1,1,-2,-1,-1,-2,0,0
1514896225674494,-2,-3,-1,-1,-1,-1,-1,-2
1514896225680485,-2,-3,0,-3,-2,-2,-1,0
1514896225680485,-1,0,-1,0,-4,-1,-1,-2
1514896225697997,-1,-1,0,-3,-1,-2,0,0
1514896225697997,-1,-2,-2,-2,0,-1,0,0
1514896225701500,-2,-3,0,-1,-1,-1,-2,-1
1514896225701500,0,-2,0,-2,2,-1,-2,-3
1514896225719513,-1,-2,3,0,0,0,-1,0
1514896225719513,-1,-1,0,0,0,-2,-2,-2
1514896225722016,0,-3,-2,-1,-2,-2,-1,-2
1514896225722016,-2,-1,-3,-1,-1,-1,-1,0
1514896225734023,-2,0,-3,-2,0,-1,-1,-3
1514896225734023,0,-1,-2,-2,0,1,0,-2
1514896225740527,-1,-2,0,-1,0,-1,0,0
1514896225740527,-1,1,0,2,-2,-1,0,-1
1514896225757039,-1,1,-2,-1,-2,-1,-1,1
1514896225757039,0,-2,-2,-1,-2,-1,-1,-2
1514896225758540,-1,-3,-1,-2,-2,-1,-2,-1
1514896225758540,0,-2,-1,-2,0,-1,0,-1
1514896225780055,-2,1,0,-1,-1,0,-1,-1
1514896225780055,-3,-2,0,-2,-1,1,-1,-1
1514896225781592,-2,-2,0,0,-1,0,-2,-1
1514896225781592,-2,0,-3,-1,-2,-2,0,-3
1514896225793577,-1,1,-1,0,-1,-1,-1,-2
1514896225793577,-2,1,-2,-1,0,-1,-1,0
1514896225800570,-1,-2,-2,2,0,-1,-1,0
1514896225800570,-2,0,0,-2,-2,-2,-1,0
1514896225817582,-1,1,-3,-3,0,0,0,-1
1514896225817582,0,-2,-1,0,-1,0,0,0
1514896225821086,-1,-2,-2,0,-2,0,-1,-1
1514896225821086,0,-2,-1,-1,-2,-2,0,-1
1514896225839600,-2,1,0,-1,-2,-2,0,-1
1514896225839600,-1,-2,0,-3,-2,0,-2,0
1514896225841101,-2,-2,0,-1,1,-2,-1,1
1514896225841101,0,-2,1,1,-2,1,-2,0
1514896225853609,0,-2,-1,-2,-1,-2,-1,-2
1514896225853609,1,-1,1,-1,1,-2,0,-1
1514896225860615,0,0,-1,-2,-2,0,-2,-2
1514896225860615,1,0,-1,-2,0,0,-1,-1
1514896225877142,-2,-1,-2,-2,-1,0,-2,-1
1514896225877142,-1,-3,0,-1,-1,-1,2,-1
1514896225878627,-1,-2,-2,-1,0,0,-1,-1
1514896225878627,-1,0,-4,-2,-1,-2,0,-1
1514896225899654,-1,-2,-1,-2,0,-1,-2,-1
1514896225899654,-1,-2,-1,-1,-2,0,-2,-2
1514896225903153,-1,-1,-1,-2,0,-1,0,-1
1514896225903153,-2,0,-2,-1,-3,0,-2,-1
1514896225922159,-2,-2,-2,-2,-3,0,-3,1
1514896225922159,-3,-1,-2,-1,-1,-2,-2,-1
1514896225923659,-2,-1,0,-1,-1,0,-1,-2
1514896225923659,-2,1,-1,-2,-1,-1,1,0
1514896225938669,0,2,-1,-2,-1,-4,-1,-1
1514896225938669,-2,-3,0,0,-1,0,-1,0
1514896225942171,-1,-3,-1,-2,-1,-1,-2,-1
1514896225942171,-2,0,-1,-1,0,0,-3,-2
1514896225959182,-2,-1,-2,-1,-2,-2,0,-2
1514896225959182,-2,-1,-1,-1,0,-1,-3,-1
1514896225960688,-1,-3,-1,-1,0,-1,0,1
1514896225960688,0,1,0,-2,1,-2,-1,-1
1514896225973222,-1,1,0,-1,-1,-1,-1,-1
1514896225973222,0,1,-3,-2,-2,0,-1,-1
1514896225982208,-1,1,-4,-1,-1,-2,-2,-1
1514896225982208,-1,-1,0,-1,-2,-1,0,-1
1514896225996708,0,-1,-1,-2,-1,1,-2,0
1514896225996708,-1,-1,0,-2,-2,0,-1,0
1514896225998212,0,-2,-2,-1,-1,-2,0,-1
1514896225998212,-1,-1,-1,-1,-1,-1,-1,-2
1514896226019746,-1,0,-2,0,-1,0,0,-1
1514896226019746,0,-2,-1,-1,-1,-1,-1,-2
1514896226022742,-2,-1,-2,-1,-2,-1,-1,0
1514896226022742,0,0,0,-3,1,-1,-1,-2
1514896226032734,-3,0,0,0,-3,-1,-1,0
1514896226032734,0,-3,0,1,0,-2,-1,-1
1514896226042261,-2,-2,0,-1,-2,0,-2,-1
1514896226042261,-1,-1,-1,-1,0,-2,-2,1
1514896226056751,-1,0,-2,-1,0,-1,-2,-1
1514896226056751,-2,-1,-2,0,-1,-3,-1,-1
1514896226058752,-1,-4,-1,0,1,0,0,-3
1514896226058752,-1,-2,-2,0,-2,0,1,-2
1514896226079277,0,1,-2,-1,1,-1,0,0
1514896226079277,0,-3,-1,-1,-2,0,0,-1
1514896226081278,-1,-1,0,0,-1,-1,0,-1
1514896226081278,-2,-1,2,0,-1,-1,0,0
1514896226093277,0,1,0,0,-2,-1,-2,-1
1514896226093277,-2,0,-1,-2,-1,0,-1,0
1514896226102283,-1,-1,-1,0,-1,-1,-1,0
1514896226102283,-1,-1,-3,-2,0,-1,-1,0
1514896226115807,-2,-1,0,-3,0,-2,-1,-1
1514896226115807,-2,-2,-1,-1,-2,-2,0,0
1514896226124799,-2,-1,-1,-1,-2,-2,-3,-2
1514896226124799,-1,1,-1,-1,1,-2,1,-1
1514896226140310,-2,-1,-3,-1,-2,0,0,-2
1514896226140310,-1,-2,-2,-1,-2,1,-2,0
1514896226142312,0,-3,0,-3,-2,-2,-1,0
1514896226142312,-3,-2,-1,-1,-3,-2,-1,1
1514896226152833,-1,-2,-1,-1,-2,-1,0,-1
1514896226152833,-1,-3,0,-1,-2,-2,-1,0
1514896226169330,-1,-1,-1,-1,0,0,0,-2
1514896226169330,-2,2,-1,-2,-2,-1,-3,-1
1514896226176836,-2,-1,-1,1,0,-3,0,-2
1514896226176836,-1,0,-2,-2,0,-1,0,-1
1514896226178337,-1,-3,-1,-1,-1,-1,-1,0
1514896226178337,3,0,-3,-1,-2,0,-2,-1
1514896226199352,0,0,-1,-1,-1,0,-2,0
1514896226199352,0,-2,-4,-2,-1,-1,-3,-2
1514896226202854,-2,-1,-2,-1,-2,-1,1,-2
1514896226202854,-1,-1,1,-1,-2,0,0,0
1514896226212871,1,-1,-1,-2,-2,-2,1,-1
1514896226212871,-2,0,0,0,0,-1,0,0
1514896226222368,-2,-2,0,0,0,0,-1,-1
1514896226222368,-1,0,-2,-1,-2,-2,-2,-3
1514896226237880,0,0,-2,0,0,-2,-1,-1
1514896226237880,-1,-1,-2,-1,-1,1,0,-2
1514896226239380,0,-1,0,-1,0,-1,-1,-1
1514896226239380,-1,1,0,-1,-1,-1,0,0
1514896226259405,-1,-2,-1,-1,-1,-2,0,-1
1514896226259405,-1,-3,0,-2,0,-1,-2,-1
1514896226260905,-1,0,-1,2,-2,0,-2,0
1514896226260905,-1,-1,-2,-3,-2,-2,-1,0
1514896226273404,-1,0,-2,-2,-1,-1,-1,0
1514896226273404,0,-2,-1,-1,-2,-2,0,0
1514896226281911,-1,0,-1,-2,-1,0,-1,-2
1514896226281911,-3,-1,-1,-1,1,-2,-1,-2
1514896226297421,-2,-1,-1,-1,-1,0,-3,-3
1514896226297421,-1,-3,0,0,0,-2,-1,-2
1514896226300924,0,-1,1,1,0,-1,-1,0
1514896226300924,0,2,-2,-2,-1,0,0,-1
1514896226319437,0,-1,-1,-3,-1,1,-1,1
1514896226319437,-1,-3,3,-2,0,1,-1,0
1514896226322942,-2,-1,-1,-1,-3,-1,-1,0
1514896226322942,-1,-1,-1,0,-2,-2,-2,-1
1514896226341965,-2,-1,-2,-1,0,-1,-2,-1
1514896226341965,-1,-1,-1,-1,-2,-2,-2,-1
1514896226343454,0,-1,-1,-2,0,0,0,0
1514896226343454,0,1,-1,-1,-1,-1,-1,-2
1514896226356973,-1,-2,-1,-2,-1,-1,0,-3
1514896226356973,-2,-2,-3,-1,-1,-2,-1,-1
1514896226358474,-1,-3,-1,-1,-2,-1,-1,-1
1514896226358474,0,-1,-2,-2,0,-2,0,0
1514896226379479,-2,-1,-3,0,-1,-2,-1,0
1514896226379479,-1,-3,-2,-1,-2,-2,-1,-1
1514896226380981,-2,-2,-2,-2,-2,-2,-1,0
1514896226380981,-1,0,0,-1,-2,1,-2,-2
1514896226401995,-1,0,0,-1,-2,-2,-1,-1
1514896226401995,0,0,-1,-2,0,-3,-1,-1
1514896226403496,-1,0,-3,-2,-1,0,-1,-1
1514896226403496,-2,1,0,1,-2,-1,-1,-3
1514896226415517,1,-1,0,-3,-1,-1,0,0
1514896226415517,-1,-1,-3,-2,-1,-1,-1,-2
1514896226424511,0,-2,1,1,-1,-1,-2,-1
1514896226424511,-1,-1,-2,-1,0,0,1,0
1514896226439522,-1,0,-1,0,-1,0,0,-2
1514896226439522,-3,-3,0,0,-2,-2,-1,-1
1514896226441022,-1,-1,-1,-2,-1,0,-1,-2
1514896226441022,-2,-1,-2,0,1,0,-1,-1
1514896226462538,-1,-1,0,1,-1,-2,-1,-2
1514896226462538,-1,-3,-2,-1,2,1,-2,-1
1514896226464049,-2,-1,0,-1,0,0,-1,-3
1514896226464049,-1,-3,-2,-1,-2,-2,-1,0
1514896226476051,-2,-2,0,-3,-1,-1,0,-1
1514896226476051,-1,-3,-1,-2,-3,0,-1,2
1514896226483100,-1,-2,-1,-2,0,-1,0,0
1514896226483100,-1,0,-1,-1,-2,-1,-3,-2
1514896226500099,-1,-2,-2,-1,-1,-2,-3,1
1514896226500099,-1,0,-1,0,-1,-1,-1,-3
1514896226502600,0,-1,-1,-1,-1,-2,1,-1
1514896226502600,0,0,0,-1,-1,-2,-2,0
1514896226522114,-1,0,-2,-1,0,-1,-1,-1
1514896226522114,-3,-2,0,-1,-2,-1,-1,-2
1514896226523616,-3,0,0,0,-1,1,-1,-1
1514896226523616,-2,-2,0,-3,-2,-2,0,-1
1514896226536124,-1,-3,-1,-1,-2,0,0,-1
1514896226536124,1,-4,-2,0,-1,0,-2,1
1514896226543130,0,1,-2,0,-2,-2,-3,-2
1514896226543130,-1,1,-3,0,-1,0,1,-1
1514896226559642,0,0,-2,-1,-1,-1,0,-1
1514896226559642,0,-1,-2,-1,-1,-1,-2,-1
1514896226561154,-1,-1,-1,-2,-1,-1,-3,-2
1514896226561154,-3,-1,-2,-1,-1,1,-1,-1
1514896226581659,-1,2,-1,-2,-1,-1,-1,-2
1514896226581659,1,-1,-1,-1,0,-1,-1,1
1514896226583658,-1,-2,-2,-2,-1,-2,0,-2
1514896226583658,-2,0,-1,-1,-1,-1,-1,-2
1514896226596167,-1,-1,-1,0,-2,-1,0,0
1514896226596167,-1,-1,-2,-1,-1,0,-1,-2
1514896226610686,1,-2,-1,0,0,-2,0,-2
1514896226610686,1,0,0,0,0,0,-2,0
1514896226619192,-1,-3,-2,-2,-2,-1,-3,-1
1514896226619192,-1,-1,-1,0,-1,0,-3,-2
1514896226621191,0,0,-3,-2,0,-2,0,-1
1514896226621191,0,-1,-2,0,-1,-3,-3,-1
1514896226642208,-1,-2,-2,-1,-1,0,-1,1
1514896226642208,-3,-2,-1,-2,1,0,1,0
1514896226656709,-1,0,-1,-1,-1,-1,0,0
1514896226656709,-1,-2,-1,-3,-1,-1,0,-2
1514896226657710,-1,1,-2,-1,-1,-1,-3,0
1514896226657710,-2,-2,-2,-2,-3,-2,0,-2
1514896226663214,-1,0,-1,0,-2,0,-2,-2
1514896226663214,0,1,1,-1,0,1,1,-2
1514896226679260,-1,-2,0,-2,0,-1,-2,-1
1514896226679260,-1,-2,-1,-1,0,0,-2,-1
1514896226681259,-2,1,0,0,0,-1,-1,1
1514896226681259,-1,0,-3,-1,-1,-1,-1,-2
1514896226701772,-1,-2,-1,-2,-1,-2,0,-2
1514896226701772,-2,-1,-2,-1,0,-1,-1,-1
1514896226703774,-1,-1,-2,-3,-2,-2,-1,0
1514896226703774,-1,0,-1,-2,0,0,0,0
1514896226715782,0,-2,-1,-1,-1,0,1,-1
1514896226715782,-1,-2,1,-2,2,0,-1,-1
1514896226726290,-2,0,0,-1,-2,-1,-1,0
1514896226726290,-2,0,-2,-1,-1,-1,-1,0
1514896226739323,-3,0,-1,-2,-1,-2,-1,-2
1514896226739323,0,-2,-2,-2,-1,-1,-1,-1
1514896226740824,-1,-1,-1,-1,0,-1,-2,-1
1514896226740824,-2,-3,0,-2,0,-2,-1,0
1514896226761878,-1,-2,-1,-3,-2,0,-1,-2
1514896226761878,-1,-3,-2,-3,-1,-1,0,0
1514896226763360,-1,-1,-1,-2,-1,1,0,0
1514896226763360,-2,1,-4,-2,0,-3,-2,-1
1514896226776378,-2,0,-1,-1,0,0,-1,-1
1514896226776378,-3,-3,-1,-1,0,-1,0,0
1514896226782906,-3,0,0,-1,-1,-2,-2,-2
1514896226782906,-1,0,-1,-1,-1,-2,-1,-1
1514896226799896,-1,-1,-1,1,-2,-1,-1,-1
1514896226799896,-1,-2,-1,0,-1,0,0,-1
1514896226801901,-1,-3,-2,-1,-1,0,-2,-1
1514896226801901,0,0,-2,0,-1,0,0,-3
1514896226822411,-2,0,0,-2,0,0,0,0
1514896226822411,1,-1,0,-1,-1,-2,1,-1
1514896226825932,0,-2,-2,-2,0,-1,-2,0
1514896226825932,-2,-2,-1,-2,-1,-2,-2,-1
1514896226835420,0,-2,0,-1,1,0,-1,-1
1514896226835420,-1,-2,-1,-1,-1,-2,-1,-3
1514896226861440,-1,1,-2,0,-1,-1,-1,-2
1514896226861440,-1,-2,-1,-1,-2,0,-1,0
1514896226862463,-2,-2,-3,0,-1,-1,-1,-1
1514896226862463,-1,0,-1,-2,-3,-2,-1,-1
1514896226865458,-1,-1,-2,-1,-1,0,-2,1
1514896226865458,0,1,-1,-1,-1,0,-3,-1
1514896226889459,0,-3,-1,-2,-2,-1,-1,-2
1514896226889459,-1,-1,-2,-1,-1,-1,-1,-3
1514896226890962,-1,-2,-2,-1,-1,-1,0,0
1514896226890962,0,-2,1,0,0,-2,1,0
1514896226904492,0,-2,-2,-1,0,0,0,0
1514896226904492,-2,-2,-2,1,0,-1,-2,-1
1514896226905971,-1,-2,-2,-1,-2,-1,-2,-2
1514896226905971,0,0,-1,-2,-1,-2,0,-2
1514896226919481,0,-2,-2,-1,-2,-1,-1,-1
1514896226919481,0,-1,0,1,-1,2,-1,0
1514896226920981,-1,1,-1,-1,-1,-1,0,-2
1514896226920981,-1,1,-1,-1,0,-1,-1,-1
1514896226942500,-1,-1,-2,-1,-3,-3,0,-1
1514896226942500,1,-2,-1,-1,-1,-1,-2,1
1514896226943500,-3,1,-2,-2,0,0,0,0
1514896226943500,-1,0,1,-1,-2,0,-1,-2
1514896226956009,0,-1,-1,-1,-1,-1,-1,-2
1514896226956009,-1,-3,-1,0,-1,1,-3,-1
1514896226964512,-1,-1,0,-1,-1,0,-1,0
1514896226964512,-1,-1,-1,-2,-1,-1,-2,0
1514896226987029,-1,-2,-1,-2,-1,-2,-1,0
1514896226987029,-3,-2,1,-1,-2,0,-2,0
1514896226990539,0,-2,0,0,-2,-4,-2,-1
1514896226990539,0,0,-2,0,-1,-1,-1,-1
1514896227002059,-2,-1,-1,-1,-1,-1,-1,-1
1514896227002059,-2,-1,-2,-2,-1,-2,-1,-1
1514896227003540,-2,-1,-1,-1,-2,0,-1,-1
1514896227003540,-2,0,-1,-1,-1,-1,-2,0
1514896227015550,-1,-2,0,1,-1,0,-1,-2
1514896227015550,-1,-2,-1,0,-1,-2,1,0
1514896227024554,-1,0,-1,0,-3,0,0,-1
1514896227024554,-2,1,-1,-2,-1,-1,-1,-1
1514896227039566,-1,-2,-3,-1,0,-1,-1,-1
1514896227039566,-1,-1,-1,-1,0,-1,-1,-1
1514896227041067,-2,-2,-1,-1,-1,-2,0,-1
1514896227041067,0,-2,0,-2,-2,-1,1,-1
1514896227069587,-1,-2,0,0,0,0,-1,-2
1514896227069587,-1,-3,0,-2,-2,-1,-2,-3
1514896227071088,0,0,-3,-2,-2,-2,-2,-2
1514896227071088,0,2,-2,-1,0,0,0,0
1514896227076092,-3,0,-1,-2,1,-2,-2,-1
1514896227076092,0,-2,-1,0,0,-1,-1,-2
1514896227084597,-2,0,-1,0,-1,0,-1,0
1514896227084597,-1,-1,-2,-1,-2,-3,-2,-2
1514896227098607,-1,-1,0,0,-3,0,-2,-1
1514896227098607,0,-1,-2,-2,-2,-1,0,-3
1514896227099609,-1,-1,-1,0,1,0,-1,-2
1514896227099609,-1,-2,-1,-2,-1,-2,-1,-1
1514896227122128,0,-3,-2,0,-1,-2,1,0
1514896227122128,-2,-1,-2,-1,-1,-1,-1,-1
1514896227124126,-2,0,-1,-1,-1,0,0,0
1514896227124126,-1,2,-3,-1,-1,0,-2,-1
1514896227144140,-1,-3,-1,-2,-1,-2,-3,0
1514896227144140,-1,-2,-1,-2,-2,0,-1,-1
1514896227144640,1,0,0,-2,0,-1,-3,-2
1514896227144640,-2,1,1,0,0,0,-2,-1
1514896227158649,0,-2,0,-2,-2,-1,-1,-1
1514896227158649,-1,-1,-2,-1,0,-1,0,0
1514896227159651,-2,0,-2,1,0,0,0,-3
1514896227159651,1,0,0,-3,-3,-1,-2,-1
1514896227181165,-1,0,-2,-1,0,-2,-2,0
1514896227181165,-2,-4,0,-1,0,-2,-2,1
1514896227182167,0,-2,-1,-1,-1,-2,-2,-1
1514896227182167,-1,0,-1,-2,0,-1,-1,-1
1514896227203681,0,-2,-1,-2,-3,1,-1,-1
1514896227203681,-2,-2,-1,0,-2,-2,-2,-1
1514896227204182,-1,-2,-1,-1,-1,-2,-1,-1
1514896227204182,1,0,-2,0,1,-2,0,-2
1514896227218692,1,-1,-2,-2,-1,-2,0,-2
1514896227218692,-1,-3,-1,-2,-2,-3,-1,0
1514896227219196,-1,0,-2,-2,-1,0,0,-1
1514896227219196,-1,0,-1,1,-1,-1,-1,-1
1514896227241715,-1,-1,-2,-1,-2,1,0,-1
1514896227241715,-1,-2,0,-1,1,-1,-2,-2
1514896227242208,1,0,0,-1,-3,-3,-1,0
1514896227242208,-3,-1,0,-1,-1,0,-2,1
1514896227263725,-2,-1,-1,0,1,-1,1,-1
1514896227263725,-2,-2,-1,0,-1,-2,-1,-1
1514896227264225,-3,1,-5,0,0,-3,-2,-3
1514896227264225,0,1,-1,-2,0,1,-1,0
1514896227278737,-1,-2,0,-1,0,0,-1,-1
1514896227278737,0,-1,0,-1,-1,-2,-1,0
1514896227286242,-1,-1,-1,-1,-1,0,0,-1
1514896227286242,-1,1,-3,0,0,-1,-1,-2
1514896227301251,0,-2,-1,-1,-1,0,-1,-1
1514896227301251,-3,-2,-2,-2,-2,0,-1,-2
1514896227301750,0,-2,-2,0,0,0,0,-1
1514896227301750,-2,0,0,1,0,-1,1,-2
1514896227331772,-1,-2,-2,-2,-1,-2,-1,-1
1514896227331772,0,-3,-2,0,0,0,-1,-1
1514896227332772,0,0,0,-2,-2,-1,-2,-1
1514896227332772,1,-1,-2,-2,-1,-1,0,-3
1514896227339778,-1,0,0,-2,1,-1,1,-1
1514896227339778,-1,-2,-1,-2,-1,0,-1,0
1514896227341288,-2,0,0,-1,0,-1,0,-2
1514896227341288,-1,0,-1,-1,-1,-2,-2,0
1514896227361292,-2,-2,-2,-1,0,0,-4,-2
1514896227361292,-3,0,-6,-2,-3,-2,-3,-3
1514896227362295,-1,-2,-1,-1,0,-1,-1,0
1514896227362295,-1,2,-1,-2,-1,-1,0,-1
1514896227384308,-1,-2,1,-1,-1,-2,-2,0
1514896227384308,0,-1,0,-1,-1,0,-1,-2
1514896227385809,-1,-2,-1,-1,-1,0,-1,0
1514896227385809,0,-2,-1,-2,-2,-3,0,2
1514896227398822,-1,-1,0,-1,0,0,-1,-1
1514896227398822,-1,-2,0,-2,-2,1,-2,-1
1514896227400320,-2,1,-2,-1,0,-2,-2,-2
1514896227400320,0,-2,-2,-1,-1,-2,-1,-1
1514896227421336,-1,-3,0,-2,-2,-2,-1,0
1514896227421336,-1,-3,1,-1,1,0,1,-2
1514896227422339,-1,0,0,-1,-1,-1,-1,-2
1514896227422339,-1,-1,-2,-1,0,-1,-1,-1
1514896227450870,-1,1,-2,-1,-2,0,-2,0
1514896227450870,0,-4,0,1,-1,0,-2,0
1514896227460362,-1,1,-2,-3,-1,-2,-2,0
1514896227460362,-2,1,0,1,-1,-1,0,-2
1514896227461867,-1,-3,-2,-1,-1,-1,0,0
1514896227461867,0,-4,-1,-1,0,-3,-1,-1
1514896227462367,-1,-1,0,-1,0,-1,-1,0
1514896227462367,0,-1,-1,-3,-1,-1,-2,-2
1514896227480880,-1,-3,-1,0,-1,-1,-2,-3
1514896227480880,-2,-2,0,0,-1,-1,0,2
1514896227481878,-1,1,-1,-3,-1,-2,-1,-1
1514896227481878,-1,0,-1,-1,-2,-1,-1,-2
1514896227503893,-2,-4,-2,0,-2,-1,-1,-3
1514896227503893,-1,-3,-2,-2,-3,-1,-2,-2
1514896227504401,-1,1,1,0,-2,-2,-1,0
1514896227504401,-2,0,-3,-1,1,0,0,0
1514896227518903,-1,0,-2,-2,-1,-1,-1,-2
1514896227518903,0,-2,0,-1,0,-1,0,-1
1514896227519404,-1,-3,0,-1,-1,-1,-2,-1
1514896227519404,-1,-1,0,0,-1,-2,-3,-1
1514896227540919,-1,-1,-2,0,-1,0,0,-1
1514896227540919,-2,-1,-2,-1,0,0,-2,0
1514896227541925,0,0,-1,-1,1,-1,-1,-2
1514896227541925,-1,-1,-1,-2,-1,-2,0,-1
1514896227563439,-1,-1,0,-2,1,-1,0,0
1514896227563439,-1,-1,-1,-2,0,-1,1,1
1514896227564446,-1,-1,-1,-1,-1,-2,0,-1
1514896227564446,-2,0,0,-2,-1,-1,-2,-1
1514896227578949,-2,-2,-1,-1,-1,-1,-2,0
1514896227578949,0,-1,-1,0,-2,-2,-1,-2
1514896227579450,-2,-2,-1,-2,-2,-1,-1,-1
1514896227579450,-1,1,-1,-1,-2,-1,-1,-2
1514896227601462,-1,-2,0,-2,0,-5,-1,-1
1514896227601462,-2,-2,0,-2,-1,-1,-1,-2
1514896227608466,-2,1,-5,0,-2,-2,1,-1
1514896227608466,-1,-1,-2,0,-1,0,0,-2
1514896227623477,-1,-1,-4,-2,-1,-2,-1,1
1514896227623477,-1,-3,1,0,0,-2,-1,-2
1514896227624478,0,2,-3,-1,-1,-1,0,-1
1514896227624478,0,-1,-1,-2,-1,-2,-2,-1
1514896227638988,-1,-2,0,0,-2,-1,-1,-1
1514896227638988,-1,-2,-1,1,-3,-1,-3,-2
1514896227639489,-2,0,-3,0,-2,0,-1,0
1514896227639489,0,-1,-1,-3,-2,-2,1,0
1514896227669511,-1,-3,-1,-1,0,-1,-1,-3
1514896227669511,1,-1,1,-1,0,0,-2,-2
1514896227671024,-1,-1,1,0,-1,0,0,-2
1514896227671024,0,1,-1,-1,-1,-2,-2,2
1514896227683567,-1,-2,-1,-1,-2,0,-1,-1
1514896227683567,-3,-2,-4,-1,0,0,-1,0
1514896227684568,-1,-1,-2,0,1,-2,-1,-2
1514896227684568,0,0,0,-1,-1,-1,0,0
1514896227698578,0,-2,1,0,-2,-1,-1,-1
1514896227698578,-2,-3,-1,1,0,-1,0,0
1514896227706083,-1,0,-2,-1,0,0,-2,0
1514896227706083,-1,1,-2,-2,-1,-2,-1,-2
1514896227729112,0,-1,-2,-2,-1,-1,-1,-2
1514896227729112,-1,-4,-1,-2,0,0,0,0
1514896227730102,2,-2,2,0,-1,0,0,1
1514896227730102,-1,-1,-1,0,-1,-1,1,0
1514896227743609,0,-1,-1,-3,-1,0,1,0
1514896227743609,-2,-2,-2,0,-3,-1,-1,-2
1514896227744610,0,-1,0,-2,-1,-2,-1,-2
1514896227744610,0,0,-1,-1,-1,-3,-2,-2
1514896227758621,-1,0,0,0,-1,0,-2,-2
1514896227758621,-2,-2,-2,0,-1,0,-2,0
1514896227760122,-1,-1,-2,0,-1,0,-2,-2
1514896227760122,-1,0,-1,-1,-1,-1,-1,0
1514896227781145,-2,-3,-2,-1,0,-1,0,0
1514896227781145,0,-2,-1,-3,-1,-1,0,-1
1514896227782136,-2,-1,-1,-3,-3,-1,-4,-1
1514896227782136,0,-1,0,-2,-1,0,-1,-2
1514896227811667,-1,-3,-1,-1,-1,0,-1,-1
1514896227811667,-2,2,-2,0,0,2,0,-1
1514896227812668,-1,-1,-2,-2,-1,0,-1,0
1514896227812668,-1,1,0,-1,-1,-1,0,-2
1514896227818672,-1,-1,0,-1,0,0,-1,0
1514896227818672,-1,0,-2,-1,0,-2,-2,0
1514896227819162,1,-2,-2,0,-2,-2,-1,0
1514896227819162,-1,-1,-3,-2,0,-2,-1,-2
1514896227841231,0,-2,0,-1,-2,0,-1,1
1514896227841231,-2,-2,-2,-1,-3,-2,1,-1
1514896227841724,0,0,0,0,1,-1,-1,-1
1514896227841724,-1,-3,-2,-1,-2,-2,-2,0
1514896227863747,0,-3,-1,-1,-2,-2,-2,0
1514896227863747,0,0,-1,-2,0,1,-1,-2
1514896227865248,-2,2,-2,-3,-1,-1,1,-3
1514896227865248,-1,1,-1,-1,0,0,-1,-3
1514896227878265,-2,-2,-2,-2,0,-1,-3,-1
1514896227878265,-1,-3,0,0,-2,0,-2,1
1514896227886253,0,0,-1,-1,0,-1,-1,-2
1514896227886253,0,0,-2,-2,-2,-1,0,-1
1514896227901774,0,-2,-1,-1,-1,1,1,-1
1514896227901774,-1,-2,0,0,-1,-2,-1,-4
1514896227903275,-2,0,-1,0,-2,-1,-1,-1
1514896227903275,1,-1,-2,0,-1,-3,1,1
1514896227923289,-1,-1,-1,0,-1,-1,-1,0
1514896227923289,-1,-4,-1,-3,0,-1,-2,0
1514896227931785,-2,-2,-4,-2,-2,-2,0,-1
1514896227931785,-1,-2,0,-1,-1,-1,-1,-1
1514896227938292,-1,-2,-2,-1,0,0,0,-2
1514896227938292,0,-1,-1,0,1,-2,0,-2
1514896227946310,-2,0,-2,0,0,0,-3,-2
1514896227946310,-2,0,-1,-2,-1,-1,-2,-2
1514896227960806,-2,0,0,-1,0,1,-1,0
1514896227960806,-1,-1,1,-1,-2,-1,-3,0
1514896227961807,-2,1,0,-1,-1,0,-1,-1
1514896227961807,-2,-1,-2,0,-1,-1,-2,0
1514896227984322,0,-1,0,-1,-2,-3,0,0
1514896227984322,1,-3,-2,-1,0,-2,-1,-1
1514896227984823,0,-1,-2,-1,-1,0,-1,0
1514896227984823,-2,0,-1,-2,-2,-1,1,0
1514896227999334,-1,0,-3,-2,-2,-2,-2,0
1514896227999334,-2,-1,-1,0,-2,0,0,-1
1514896228006353,-1,0,0,-3,-2,1,0,0
1514896228006353,-1,-1,-1,-2,-1,1,-1,0
1514896228021360,-2,-1,-1,-2,1,0,0,-1
1514896228021360,-2,0,-3,-1,-1,1,-1,0
1514896228021850,-3,0,-1,-1,-1,0,0,-1
1514896228021850,-1,-1,-1,-2,0,0,-1,-2
1514896228043364,-4,-3,-1,-1,0,-2,-1,-1
1514896228043364,0,-2,3,0,1,0,-1,-1
1514896228044365,0,1,-1,-2,-2,-2,0,-2
1514896228044365,0,-1,-2,-2,-2,-3,0,-1
1514896228057887,-2,-1,-1,1,-1,-3,-2,-1
1514896228057887,-2,-2,-2,-1,-2,-1,-1,-1
1514896228066390,-2,0,-1,-1,-1,-1,-3,-1
1514896228066390,-1,0,0,-1,0,-2,-1,-3
1514896228081406,1,0,-2,-1,-1,0,1,-1
1514896228081406,0,-2,-2,0,0,-1,-1,-2
1514896228081893,-1,-2,0,-1,-2,-1,1,-2
1514896228081893,-1,0,-2,-2,-2,0,-2,-2
1514896228103416,0,-3,0,0,-2,-1,-1,-2
1514896228103416,-1,1,-2,0,-1,-2,0,0
1514896228104422,0,-2,-3,0,0,-1,-2,0
1514896228104422,-1,-4,-1,0,-2,-1,1,-1
1514896228117927,-2,-2,0,-1,1,-1,0,-2
1514896228117927,-3,-1,0,-1,0,-2,-1,-1
1514896228126439,0,-3,-1,-1,0,-1,-3,-2
1514896228126439,-3,0,-1,0,-1,-1,-1,-2
1514896228141933,0,-3,1,0,-1,0,0,-1
1514896228141933,-2,-1,-1,-1,-3,-1,0,-2
1514896228142449,1,1,-1,-2,0,-1,0,-2
1514896228142449,-2,1,-2,-1,-1,0,0,0
1514896228163459,-1,-1,-2,-1,-2,0,-1,0
1514896228163459,0,-2,-1,0,-2,0,-1,-1
1514896228164459,-1,0,-1,0,-1,-1,-1,0
1514896228164459,1,-1,0,-1,-2,-1,-2,-1
1514896228177959,0,-2,-1,-1,-2,-1,-2,0
1514896228177959,0,1,-2,-3,-1,-1,0,0
1514896228185965,-1,-1,-1,0,-2,-1,-1,0
1514896228185965,-1,-1,-1,-1,0,-2,-2,-1
1514896228201485,0,-1,-1,-2,-2,-3,-3,-1
1514896228201485,-1,1,0,-2,0,-1,-1,-1
1514896228201986,-1,1,-2,-2,-2,0,-1,0
1514896228201986,-2,-2,1,-2,-1,0,0,-1
1514896228224492,-3,-3,-1,1,-1,-2,0,0
1514896228224492,-1,0,-1,0,-1,0,0,-1
1514896228224995,-2,1,-3,-3,-1,-3,-1,-2
1514896228224995,0,-1,-2,-1,-1,-1,-1,-1
1514896228247008,0,-1,-2,-2,1,-1,-1,-1
1514896228247008,-1,-1,-1,-1,-1,-1,-1,0
1514896228247513,-2,-1,1,-2,0,-1,-1,-2
1514896228247513,-1,-2,-1,0,0,-2,0,1
1514896228261029,-1,-2,0,0,-2,0,0,-2
1514896228261029,-1,-1,-2,-2,-1,-1,-2,-1
1514896228262030,-2,0,0,0,-1,-2,0,-2
1514896228262030,-1,1,1,-1,-1,-1,-2,-1
1514896228284535,-2,1,-1,-3,-3,-3,-2,-3
1514896228284535,-1,-3,-4,-1,-1,-1,-1,-2
1514896228285035,0,0,0,-1,-1,-1,-2,-2
1514896228285035,-1,-2,-3,-5,-2,-1,-3,-2
1514896228307062,-1,-2,-1,2,2,2,4,1
1514896228307062,-3,-2,0,-1,-1,-2,0,-3
1514896228307560,-3,-2,-1,-2,0,0,-1,-1
1514896228307560,0,0,-5,-3,-1,-2,-1,-3
1514896228321570,1,0,0,-4,-2,0,-2,2
1514896228321570,0,5,0,0,-3,-2,-2,1
1514896228322062,0,1,0,-1,0,0,0,0
1514896228322062,-2,-1,-1,-1,0,-1,-1,-2
1514896228344077,-2,-2,-1,1,0,-2,-2,-3
1514896228344077,-1,-2,0,-1,-1,0,0,-2
1514896228345078,1,1,-1,-1,-2,-3,0,-1
1514896228345078,1,-1,0,0,-2,-2,0,-1
1514896228366631,-2,-3,-3,-1,-1,0,-3,1
1514896228366631,-1,-3,-2,-1,-1,0,0,0
1514896228367594,-1,-1,-1,-1,1,-2,-2,-2
1514896228367594,-1,-3,-2,-1,-1,0,-2,0
1514896228381106,1,2,-1,-2,-2,-2,-1,-3
1514896228381106,-2,-1,-1,2,1,-2,-2,0
1514896228382107,-1,1,0,-3,-1,0,1,1
1514896228382107,-1,0,-1,-3,-3,0,-1,1
1514896228412625,-5,0,0,1,0,-2,-1,-2
1514896228412625,1,-3,-4,10,7,0,-1,-1
1514896228418629,-2,-3,-3,-6,2,-1,1,-2
1514896228418629,0,-1,0,-3,-1,-1,-1,1
1514896228426635,-2,-3,-1,-4,-4,0,-2,-1
1514896228426635,0,3,-4,-2,-3,-2,-2,-1
1514896228427635,-4,0,3,4,-1,-2,-2,-1
1514896228427635,-3,-2,0,-5,-5,-2,-1,3
1514896228441155,1,0,1,-7,-10,-3,-3,-12
1514896228441155,3,3,-4,13,17,6,4,6
1514896228442166,-12,-14,0,1,-4,-2,-4,-8
1514896228442166,-5,7,3,2,2,1,1,7
1514896228465176,5,-3,-9,-15,-6,-4,-6,0
1514896228465176,8,6,5,0,-3,2,4,8
1514896228466162,-19,-9,-7,1,-1,-1,-1,2
1514896228466162,-14,-22,1,6,-2,-3,-4,-11
1514896228494186,-3,10,2,0,1,1,2,4
1514896228494186,-18,-14,-8,-13,-10,-6,-7,-12
1514896228495183,15,10,8,20,6,6,5,8
1514896228495183,-20,-15,-18,-35,-8,-5,-3,-5
1514896228501197,7,-12,1,15,5,2,6,17
1514896228501197,-3,-5,4,-10,-5,-3,-3,-11
1514896228501688,-23,-34,-25,-14,-7,-3,-10,-16
1514896228501688,33,7,33,23,-1,-1,-1,7
1514896228524204,-2,43,-17,-27,1,-4,-6,-14
1514896228524204,70,-16,11,15,3,3,14,30
1514896228525205,17,12,8,-2,-3,-1,3,10
1514896228525205,-29,15,-24,-6,5,2,-7,-33
1514896228555227,-22,-26,5,17,-6,-11,-11,-14
1514896228555227,-14,-49,6,1,-3,-2,-9,-5
1514896228555749,5,39,-7,-19,-9,-10,-7,-15
1514896228555749,-1,-13,8,13,3,-1,2,8
1514896228561245,-39,-24,-20,-6,0,5,5,3
1514896228561245,-29,10,1,-3,1,1,3,-3
1514896228562232,43,10,-9,-4,-4,-1,8,27
1514896228562232,38,38,23,6,3,7,5,6
1514896228584281,-23,-62,-9,-1,-1,-1,-2,-8
1514896228584281,-36,-15,-14,2,-3,-1,1,-10
1514896228585282,33,8,16,-10,3,1,0,0
1514896228585282,25,14,10,4,-2,-2,0,8
1514896228606797,-8,17,-12,11,1,-1,-2,-1
1514896228606797,26,42,23,-2,2,5,10,15
1514896228607297,-43,-24,-12,1,-5,-5,-18,-20
1514896228607297,-22,5,-12,-10,-5,-7,-5,-5
1514896228621307,25,-7,0,-3,-2,-5,-1,22
1514896228621307,-2,24,-15,-12,-5,-2,-4,-24
1514896228621809,-22,-8,1,10,4,2,-3,-12
1514896228621809,35,13,-10,-3,-5,-4,1,10
1514896228644824,-20,-23,-39,-6,-3,-2,-2,-6
1514896228644824,11,29,14,-10,-2,-2,-3,4
1514896228645325,-13,-12,1,8,1,-1,1,-7
1514896228645325,-22,-2,12,-1,1,-1,-11,-20
1514896228666841,11,33,13,-4,-2,2,17,52
1514896228666841,-7,-43,-21,-10,-4,-5,-10,-21
1514896228667340,5,-1,14,13,5,4,2,-6
1514896228667340,-14,7,-21,-6,1,-1,11,18
1514896228681380,15,-9,7,4,1,3,1,-12
1514896228681380,-18,14,25,10,2,0,-20,-7
1514896228681889,44,8,-1,-2,-5,-6,-1,-7
1514896228681889,-4,2,-8,-3,3,2,-6,-6
1514896228711907,19,13,8,6,6,2,0,-36
1514896228711907,-5,23,0,-14,-7,4,18,48
1514896228712410,-17,-30,-9,3,0,0,5,26
1514896228712410,30,-11,-2,-1,0,0,-4,-19
1514896228726913,10,1,11,-7,0,-1,-15,-19
1514896228726913,3,0,-3,8,3,-1,5,4
1514896228727916,-6,-14,-18,-9,1,4,9,3
1514896228727916,-25,-4,7,8,-1,-1,9,39
1514896228749437,-7,1,47,6,-1,-3,-9,-20
1514896228749437,-21,-36,-74,-9,-8,-7,3,-2
1514896228750429,-12,40,2,-21,0,6,4,-10
1514896228750429,-3,-51,-24,12,3,0,-9,4
1514896228764447,10,-1,-6,-5,-3,-1,-2,9
1514896228764447,-17,2,2,-1,-5,-6,23,56
1514896228764948,36,-7,-30,9,0,-7,-20,-38
1514896228764948,-3,12,-20,-10,-3,2,-2,-10
1514896228787455,14,20,32,-7,-2,0,-14,-22
1514896228787455,-4,-27,-6,11,1,-1,-4,-14
1514896228788956,2,13,-22,-3,-6,-5,-1,12
1514896228788956,-6,29,11,-8,-1,-1,12,10
1514896228800973,-15,-5,-21,4,-5,-6,-5,6
1514896228800973,29,2,-2,-17,-4,0,-4,9
1514896228801975,-13,0,21,18,5,-2,7,-3
1514896228801975,9,1,-7,-12,-3,-1,-2,3
1514896228824990,1,11,16,19,7,2,-4,-6
1514896228824990,27,-2,-35,3,0,-2,-14,-12
1514896228825481,-50,18,22,-18,-7,-3,-5,-11
1514896228825481,-32,-26,-42,-8,-3,-4,-1,16
1514896228846996,28,23,12,10,3,2,1,7
1514896228846996,2,-14,34,-8,3,-1,-12,-31
1514896228847497,36,38,45,8,-1,1,-2,20
1514896228847497,-59,-70,-2,-4,-3,-1,12,-46
1514896228860506,-18,-34,-70,-12,-2,-1,10,10
1514896228860506,-6,28,51,16,4,2,-2,-20
1514896228868512,5,-10,-14,-3,-1,1,1,-11
1514896228868512,35,30,64,28,10,10,21,52
1514896228892037,-17,17,-36,-24,-9,-8,-22,-11
1514896228892037,-3,1,-7,6,-2,-4,5,-16
1514896228892538,-3,-16,27,-3,2,-1,9,64
1514896228892538,17,-1,-9,23,5,0,-24,-97
1514896228907041,-1,-28,-2,-36,-7,-1,18,31
1514896228907041,22,7,-17,0,-1,5,12,-10
1514896228907549,-29,6,23,2,0,0,-2,-7
1514896228907549,-13,19,3,17,-1,-6,-9,-1
1514896228920558,-18,-22,23,6,2,-3,18,40
1514896228920558,-7,1,-10,-8,-5,0,-28,-69
1514896228936069,43,16,-15,-4,6,7,17,26
1514896228936069,-8,-31,-17,-12,-6,-5,-18,-27
1514896228945577,40,18,14,16,3,1,3,-14
1514896228945577,-11,29,13,6,-5,-7,-4,29
1514896228946578,-14,-11,8,-17,-3,1,10,-11
1514896228946578,9,-17,-12,12,2,1,-7,16
1514896228974095,25,50,46,-6,-1,0,5,-18
1514896228974095,-19,-62,-29,-4,2,-3,-5,6
1514896228975088,-25,-36,-3,2,-10,-3,11,8
1514896228975088,-2,15,-4,-11,5,9,13,12
1514896228989625,-3,-40,13,23,5,3,-7,-12
1514896228989625,-4,-6,13,-8,-4,-3,1,-6
1514896228990098,11,38,-1,14,4,3,8,1
1514896228990098,-13,-25,-12,-18,-8,-5,-5,-5
1514896229004117,2,15,-33,-1,0,0,-4,-4
1514896229004117,-11,-32,11,-21,-4,1,-6,16
1514896229005119,4,-22,-12,22,3,-4,-9,-10
1514896229005119,18,58,40,-12,-2,-2,8,9
1514896229027124,-7,-12,21,14,-1,-4,5,32
1514896229027124,11,-4,5,5,2,1,-8,-37
1514896229028124,-9,-3,-37,-10,-6,-11,-39,-23
1514896229028124,16,-7,-6,3,-4,-1,21,6
1514896229048138,-38,-20,-7,-16,2,2,-3,-5
1514896229048138,15,7,23,15,-1,-3,-5,2
1514896229056155,42,-2,7,-14,-5,2,17,57
1514896229056155,-44,13,16,12,3,-4,-27,-18
1514896229064150,-25,-29,-63,-12,-9,-4,12,-4
1514896229064150,3,16,3,-3,-1,-2,-6,-22
1514896229065160,-3,11,-9,10,4,0,-1,27
1514896229065160,17,2,7,-11,-6,-5,-6,10
1514896229086705,12,58,5,0,-1,2,-7,7
1514896229086705,-23,-10,-7,-2,1,-3,8,-3
1514896229087706,-32,-7,-53,-32,-13,-7,8,1
1514896229087706,0,-21,24,6,1,-3,-12,4
1514896229109221,-7,-4,41,-5,0,-1,-15,-33
1514896229109221,-9,11,-78,8,-3,-2,4,18
1514896229110221,35,49,38,-7,5,1,5,12
1514896229110221,-2,-15,12,12,3,4,22,-11
1514896229125232,14,-3,-11,0,4,3,9,18
1514896229125232,8,36,27,2,0,-3,-4,15
1514896229126733,-23,-11,21,10,4,2,-11,-22
1514896229126733,10,38,-7,6,-5,0,-1,-28
1514896229146747,-3,-10,19,-15,-5,-4,-7,-26
1514896229146747,23,22,30,0,-2,0,14,36
1514896229147747,-30,-31,-10,6,1,2,15,13
1514896229147747,23,-1,-30,-15,-3,-9,-14,19
1514896229160266,-12,7,53,23,4,9,8,56
1514896229160266,-10,8,1,-5,-3,-12,-55,-75
1514896229176267,-13,4,-8,-11,-5,3,7,-30
1514896229176267,-34,-15,1,-4,-1,3,26,31
1514896229191779,31,-9,-45,-3,-5,-6,-11,-17
1514896229191779,-32,12,49,19,8,8,6,37
1514896229192779,-9,-8,3,-13,-2,-5,-18,-29
1514896229192779,27,3,-51,-11,-4,2,10,13
1514896229206791,-1,17,-8,-5,0,-3,8,-18
1514896229206791,13,-12,-12,-6,-5,-1,1,3
1514896229207791,-13,-46,-23,-1,-4,-8,-23,-42
1514896229207791,-5,7,21,20,4,-1,-12,5
1514896229229315,11,-3,3,-17,1,1,-9,-6
1514896229229315,-11,-49,23,-9,-5,-1,19,36
1514896229230806,3,44,-18,3,-3,-1,-12,-32
1514896229230806,-7,-40,16,10,3,-6,-15,1
1514896229243316,-1,-1,-7,5,0,4,17,12
1514896229243316,-31,-31,-63,-13,-5,-8,-5,-13
1514896229251822,1,-7,2,0,-6,0,-6,-17
1514896229251822,32,-4,-19,-16,-1,3,-3,-11
1514896229266833,-15,12,16,12,-2,-3,-11,-22
1514896229266833,10,34,-34,-17,1,6,29,55
1514896229268334,-27,-49,29,6,-9,-11,-14,13
1514896229268334,5,26,6,-18,-1,1,-2,-49
1514896229289348,3,-6,-39,10,-2,-4,-4,-7
1514896229289348,6,-7,36,-13,-2,-1,3,17
1514896229290849,27,58,-11,29,7,4,0,-18
1514896229290849,-27,-81,-3,-32,-8,-1,11,21
1514896229303859,6,7,-24,20,8,5,-13,-7
1514896229303859,2,-13,4,4,-2,3,2,-28
1514896229317869,0,30,-14,-19,-1,-2,7,46
1514896229317869,3,17,10,-14,-6,-2,-9,-7
1514896229326875,-14,-9,-33,-1,1,1,20,11
1514896229326875,24,27,20,16,1,2,4,3
1514896229328376,-18,-22,15,1,3,5,4,-13
1514896229328376,15,38,28,19,1,-2,2,17
1514896229349390,-36,-102,-41,-28,-11,-10,-4,-49
1514896229349390,10,33,26,12,4,0,-1,7
1514896229350892,12,-6,-38,-1,6,11,48,94
1514896229350892,-21,12,-8,3,0,1,-43,-97
1514896229363900,-5,5,40,10,0,-5,-7,17
1514896229363900,-46,-9,-68,-5,-1,-3,-5,-20
1514896229370405,-18,-18,44,-2,1,-2,1,24
1514896229370405,4,-27,1,1,0,0,1,45
1514896229394421,-6,-5,12,30,3,-3,-22,-42
1514896229394421,11,2,-23,-46,-8,-2,-3,11
1514896229395923,-4,3,-32,-16,-5,-6,0,-13
1514896229395923,-10,-32,-32,4,0,2,2,1
1514896229409433,9,38,69,3,2,2,4,17
1514896229409433,-12,-37,-51,5,-1,2,26,72
1514896229410934,8,3,-1,4,-3,-5,-21,-89
1514896229410934,-2,-7,-17,-5,-4,-6,-16,-18
1514896229423943,34,41,-10,-15,-6,0,19,22
1514896229423943,-14,-23,26,12,0,-3,-6,-7
1514896229430448,15,-11,6,21,7,1,2,14
1514896229430448,-9,5,15,1,-4,-4,25,88
1514896229446460,2,5,24,-23,-4,2,-29,-73
1514896229446460,11,23,-16,21,0,2,-6,-9
1514896229452973,-7,-39,41,-14,3,1,-10,-18
1514896229452973,34,13,-50,6,-2,-5,21,22
1514896229469476,5,-34,-14,-1,-1,-3,-19,-6
1514896229469476,2,14,21,3,3,2,-4,-15
1514896229470976,-1,27,12,14,-5,-7,-7,-71
1514896229470976,-14,9,1,-21,-5,-6,-1,11
1514896229483985,-3,-6,-20,1,-1,3,5,32
1514896229483985,17,48,15,10,2,-1,-24,-49
1514896229490491,-18,7,24,-10,-2,2,27,71
1514896229490491,44,10,-12,-16,-2,-2,-4,-13
1514896229507001,-28,10,-13,-1,-2,-2,2,61
1514896229507001,-5,-15,40,-6,3,-3,-10,-97
1514896229508512,10,-16,-76,8,1,3,9,47
1514896229508512,24,10,63,-2,-4,3,4,-11
1514896229529517,-22,-12,-68,-18,-5,-7,1,50
1514896229529517,-4,-14,-14,15,3,2,1,-45
1514896229531018,10,7,4,-25,-6,-7,-14,-1
1514896229531018,5,5,50,21,1,-1,-8,-3
1514896229543545,-10,-58,-48,-15,0,1,6,31
1514896229543545,-3,4,23,7,4,0,9,5
1514896229550532,15,-7,-41,-16,-7,-4,-14,-16
1514896229550532,-14,32,14,16,2,6,0,-14
1514896229567554,-4,-1,-9,-3,0,1,15,13
1514896229567554,1,-24,17,5,2,1,7,71
1514896229569056,1,26,31,-12,-3,0,-17,-111
1514896229569056,-37,-24,-49,-19,-8,-7,-1,30
1514896229589559,19,21,45,30,8,5,14,25
1514896229589559,-2,-27,-56,-32,-11,-3,-13,-47
1514896229592567,-13,-11,35,12,-1,-3,1,31
1514896229592567,-32,-23,-28,10,2,-2,6,-3
1514896229604571,33,30,-2,-18,-5,-2,-3,-15
1514896229604571,-22,0,-7,11,0,1,10,37
1514896229612077,-9,25,23,-3,-2,-2,-3,-51
1514896229612077,8,-35,13,1,2,2,-2,22
1514896229634091,-60,-25,-45,-35,-14,-11,-5,-14
1514896229634091,22,-25,49,17,3,-3,-19,-33
1514896229636093,-28,27,-21,-1,-1,1,15,40
1514896229636093,14,-49,-39,1,1,1,-5,-32
1514896229665653,-15,-10,12,10,4,5,11,-18
1514896229665653,14,35,-26,-34,-14,-8,5,39
1514896229667127,14,-24,-15,9,1,0,-2,11
1514896229667127,-35,10,-5,-20,-4,-7,-29,-1
1514896229668124,16,29,79,20,4,2,4,-50
1514896229668124,-23,-38,-55,-14,-6,-5,-8,-8
1514896229672124,31,29,20,16,5,1,-9,22
1514896229672124,16,9,8,1,2,1,-4,-5
1514896229686628,-7,4,-5,-8,-9,-3,0,-11
1514896229686628,0,15,-4,-15,-4,-5,-9,-2
1514896229688630,-33,-25,20,17,-1,-3,-1,40
1514896229688630,11,8,-8,3,1,4,21,-54
1514896229709145,7,-8,36,-2,4,4,-17,-22
1514896229709145,10,17,-14,5,-1,-1,5,15
1514896229711145,-28,-17,-4,-21,-6,-4,-13,-6
1514896229711145,-11,1,10,6,0,-4,-5,9
1514896229723154,13,7,50,20,5,0,-4,-2
1514896229723154,5,13,-35,-12,-6,-5,7,-9
1514896229738677,24,17,-11,-1,2,1,-4,24
1514896229738677,-24,15,5,2,-1,5,8,-70
1514896229746678,21,-2,6,-11,0,5,24,43
1514896229746678,10,26,42,22,6,2,-6,-8
1514896229748184,18,-17,-10,1,-2,0,-1,2
1514896229748184,7,20,26,3,1,-4,-2,60
1514896229769186,-34,-49,-66,-15,-13,-9,-10,28
1514896229769186,-28,-49,10,0,3,-1,-5,-48
1514896229770697,35,18,-38,-20,-3,1,1,-9
1514896229770697,-20,31,72,24,7,6,2,12
1514896229783196,-16,-70,-96,-28,-7,-6,-7,-3
1514896229783196,-2,26,62,6,0,6,5,8
1514896229791704,-21,3,-41,-6,-1,0,14,36
1514896229791704,10,-9,-20,-13,-9,-12,-32,-73
1514896229806714,50,45,69,43,14,9,9,9
1514896229806714,-33,-23,-36,-41,-16,-10,-10,-1
1514896229808215,-11,-24,-5,-10,-1,-3,0,-44
1514896229808215,-4,-10,24,29,7,6,21,44
1514896229836736,23,-4,9,-13,-8,-8,-10,-53
1514896229836736,-10,-35,-68,-8,-2,-1,0,15
1514896229840238,27,36,108,36,6,6,15,2
1514896229840238,19,-38,-83,-38,-13,-16,-11,90
1514896229843739,-14,31,-10,9,4,7,11,-55
1514896229843739,2,9,9,4,-3,-3,32,76
1514896229857749,-6,-31,-7,-13,-6,-4,-6,-4
1514896229857749,-14,-17,1,19,7,7,6,-19
1514896229866757,12,39,66,-5,-6,-6,13,115
1514896229866757,5,49,-29,-22,-4,-7,-44,-106
1514896229868258,18,2,13,15,4,1,11,10
1514896229868258,24,-1,1,22,8,10,16,11
1514896229889274,-36,19,12,-48,-12,-9,-14,14
1514896229889274,-2,-19,17,24,2,0,12,-7
1514896229890773,0,-18,-13,-14,-6,-7,-8,1
1514896229890773,32,47,13,-25,-2,2,-8,-10
1514896229903783,-11,-31,-65,10,-5,-3,7,-9
1514896229903783,31,7,46,-9,-3,1,7,30
1514896229919294,-8,29,-58,1,-2,-1,-3,11
1514896229919294,-18,18,43,-2,-4,-4,-1,-2
1514896229942810,15,12,7,28,11,5,3,-6
1514896229942810,9,-15,-15,-2,1,-2,-9,47
1514896229944310,-40,-1,28,8,5,1,-37,-96
1514896229944310,-8,-4,-90,-19,-11,-9,2,11
1514896229949314,9,3,3,14,4,2,-21,-33
1514896229949314,12,43,44,3,-1,0,25,44
1514896229950815,-22,-97,-20,-14,-3,-3,-7,-3
1514896229950815,7,23,19,4,2,1,-7,-31
1514896229962824,-25,-8,28,-17,0,7,21,37
1514896229962824,12,8,-43,8,-1,-5,8,-5
1514896229971831,16,22,16,-6,-5,-1,13,7
1514896229971831,-7,-35,-4,-11,-4,0,-17,-39
1514896229986841,-34,-34,3,8,-4,-4,11,41
1514896229986841,13,17,14,14,5,1,-28,-65
1514896229988342,-11,13,13,-14,-4,-5,1,-64
1514896229988342,4,31,-32,7,1,0,0,20
1514896230009356,-2,-26,-56,-39,-15,-11,-15,-32
1514896230009356,-7,-13,21,25,5,2,3,-4
1514896230010858,-16,-4,-5,-18,-6,-3,7,34
1514896230010858,8,-53,-36,-10,-5,-4,6,11
1514896230031873,13,-5,30,29,2,-5,-27,-48
1514896230031873,9,73,41,-19,1,2,3,16
1514896230033390,31,36,1,4,0,2,12,8
1514896230033390,-13,-25,-21,-1,-3,0,4,-16
1514896230046882,5,43,31,17,6,5,11,20
1514896230046882,-18,-64,-38,8,-2,-5,-16,-21
1514896230048384,39,1,58,-5,-1,0,-2,27
1514896230048384,-8,-3,0,13,1,1,30,2
1514896230069400,26,-29,-75,-11,-1,-7,-39,-82
1514896230069400,-11,43,-1,3,-2,4,19,11
1514896230070901,1,34,-29,10,2,0,-1,1
1514896230070901,-26,-36,48,-2,-4,-3,-8,11
1514896230083410,0,45,25,9,4,0,0,3
1514896230083410,2,-23,41,6,3,4,3,2
1514896230092416,18,-33,-50,-10,-5,-3,1,5
1514896230092416,11,20,-51,-6,2,1,-1,-45
1514896230106939,-11,18,46,-2,7,5,18,28
1514896230106939,18,-9,-43,-15,-7,-7,-25,-24
1514896230114431,12,21,6,7,3,4,0,40
1514896230114431,10,43,62,23,4,0,13,36
1514896230137457,-14,-79,-1,-15,-3,-1,3,-28
1514896230137457,-6,-30,-22,1,1,4,24,63
1514896230140950,-13,-10,1,9,5,-2,-19,-17
1514896230140950,4,15,50,-1,4,5,2,22
1514896230151958,40,54,-6,43,6,1,3,9
1514896230151958,-18,-16,-25,-16,-9,-10,-10,-8
1514896230153459,-24,-52,-33,-66,-14,-4,-6,-5
1514896230153459,17,-2,45,8,0,-1,-12,-13
1514896230166969,-25,-68,15,-1,-1,4,30,73
1514896230166969,-19,32,-69,4,0,-5,-20,-26
1514896230168470,-56,-22,15,-7,-10,-11,-6,-13
1514896230168470,-15,15,-16,-15,-2,-1,-7,6
1514896230196988,32,-6,79,12,3,2,-9,-12
1514896230196988,6,9,-73,-12,2,4,-1,-25
1514896230198491,-24,2,55,32,6,0,10,43
1514896230198491,42,48,-7,-10,-6,0,-3,-16
1514896230210998,13,34,16,8,3,6,6,-5
1514896230210998,-24,24,27,2,0,-1,-3,4
1514896230219505,3,42,-20,-13,-7,-6,-11,23
1514896230219505,-30,14,-45,9,5,2,2,2
1514896230227010,-4,-41,-98,-35,-11,-6,3,21
1514896230227010,-7,5,126,9,-8,-10,-11,28
1514896230228512,6,-60,-50,3,2,2,-11,-72
1514896230228512,-47,-19,-12,-11,-8,-13,-9,15
1514896230249026,11,58,33,-29,-12,-5,-17,-39
1514896230249026,7,16,-35,31,12,7,21,17
1514896230251028,-12,10,25,9,3,3,-1,-11
1514896230251028,-7,-30,-34,6,-2,-8,-12,6
1514896230272043,-3,34,10,-12,8,6,-6,-2
1514896230272043,27,-54,-41,-36,-8,-3,-1,-2
1514896230273555,24,15,-1,30,6,-1,-4,-38
1514896230273555,-15,-16,0,7,0,0,9,27
1514896230294059,-13,23,-72,-5,1,-2,1,-6
1514896230294059,-30,-68,8,-23,-10,-2,-4,10
1514896230296060,17,16,-50,-9,-6,-9,-14,6
1514896230296060,9,34,29,10,8,7,18,83
1514896230309069,-34,-50,72,31,6,2,-24,-87
1514896230309069,19,6,-44,-9,-2,-1,-6,-8
1514896230311071,-48,-27,-24,-26,-14,-8,3,20
1514896230311071,-3,20,39,53,12,4,-9,-16
1514896230340094,-7,-52,-89,-87,-21,-12,-11,-1
1514896230340094,14,59,127,72,11,5,0,-11
1514896230343592,25,49,14,-23,2,6,6,11
1514896230343592,-27,-87,-54,-34,-8,-5,1,-44
1514896230346595,16,38,42,58,12,8,17,50
1514896230346595,-23,-24,4,-33,-13,-12,-10,6
1514896230360604,11,0,39,7,6,7,-1,-1
1514896230360604,6,-51,-44,-1,-15,-8,-11,-33
1514896230369110,-45,-17,-29,-39,-14,-15,-16,-21
1514896230369110,-19,-36,14,3,0,-2,1,43
1514896230371111,12,49,0,37,9,3,7,-41
1514896230371111,13,-24,4,-34,-5,0,0,-21
1514896230391628,35,52,11,-6,-14,-9,3,42
1514896230391628,-12,37,-7,-24,-8,2,-10,-54
1514896230393627,6,-1,8,19,5,-2,2,31
1514896230393627,-2,12,-35,-22,-9,-6,-10,-10
1514896230414152,-16,0,8,36,15,5,1,0
1514896230414152,28,27,35,21,3,2,-2,35
1514896230416151,30,-17,-2,4,-3,1,1,-41
1514896230416151,-20,12,-17,-14,-7,-9,-9,1
1514896230429162,27,72,-1,7,14,9,9,7
1514896230429162,-27,-74,-17,14,-9,-5,-17,3
1514896230430654,-7,-1,17,-48,-5,0,-7,18
1514896230430654,8,21,8,41,15,3,6,-3
1514896230452179,-22,-30,25,-49,-18,-8,-9,-1
1514896230452179,24,43,-45,2,6,-2,30,57
1514896230453680,-24,3,12,10,-1,-3,-17,-62
1514896230453680,-23,6,30,-4,1,3,6,-1
1514896230466179,11,-31,-29,32,-4,-9,-31,-62
1514896230466179,-13,23,-8,-22,-1,2,29,56
1514896230473184,-11,-2,-21,17,5,1,2,8
1514896230473184,31,32,64,18,14,13,14,-4
1514896230488697,-24,8,-59,12,-5,0,1,-2
1514896230488697,39,21,51,-9,1,-1,-11,-35
1514896230496704,-15,0,13,-11,-12,-11,11,49
1514896230496704,6,2,18,-37,-15,-8,-20,-82
1514896230511712,-22,2,5,7,-5,-11,7,13
1514896230511712,-9,-73,-33,-20,-4,0,-14,-51
1514896230513213,23,-6,-40,22,5,3,4,5
1514896230513213,-2,20,0,-4,-12,-3,6,19
1514896230525733,-4,-7,53,43,15,5,3,46
1514896230525733,0,17,-2,-2,3,2,-7,-20
1514896230544234,11,-16,10,-36,8,1,-9,-50
1514896230544234,-14,16,-76,16,12,8,16,50
1514896230549251,50,44,95,15,-4,-2,-10,-28
1514896230549251,0,-27,-52,5,0,1,11,7
1514896230550749,12,-5,12,-30,-11,-4,-13,11
1514896230550749,-13,-17,-16,-16,-7,-2,-6,11
1514896230570776,-17,-10,6,-4,-8,-3,-3,-27
1514896230570776,2,-7,32,13,10,6,8,7
1514896230580269,-7,-15,-42,-6,-7,-1,28,100
1514896230580269,25,48,23,-2,0,-7,-64,-97
1514896230586263,-6,-101,-99,-1,5,7,16,9
1514896230586263,24,96,77,-25,-5,-1,13,10
1514896230592769,-19,-17,19,44,5,3,-7,-4
1514896230592769,13,-32,28,-43,-6,-5,6,79
1514896230609281,-45,-7,1,-5,-9,-7,3,-38
1514896230609281,17,43,71,25,10,6,-14,-28
1514896230610783,-5,-27,-84,10,0,-5,-11,-28
1514896230610783,-4,-29,-35,-31,-14,-6,8,25
1514896230640303,14,7,52,10,5,2,-4,7
1514896230640303,1,27,-75,9,-2,-2,12,48
1514896230644306,1,18,78,-40,-4,0,-8,-52
1514896230644306,-7,7,16,11,-6,-1,13,34
1514896230646307,8,15,-20,27,18,9,-2,-13
1514896230646307,-11,-10,-31,-20,4,2,-4,-22
1514896230654313,-3,-50,1,30,0,1,-1,5
1514896230654313,-5,27,52,22,15,5,14,14
1514896230676828,12,11,22,-13,-7,-3,2,13
1514896230676828,-2,-45,-29,38,18,9,5,-5
1514896230678330,0,7,21,-7,1,3,5,-6
1514896230678330,-12,-52,-83,-27,-8,-3,-1,-22
1514896230691839,-5,-3,-26,-6,-2,0,16,71
1514896230691839,-3,11,17,5,-8,-6,-18,-97
1514896230693341,-14,-43,-14,-20,-8,-7,5,14
1514896230693341,4,-24,46,36,6,2,10,15
1514896230705349,19,35,-43,-6,5,3,-20,-31
1514896230705349,-8,3,32,-15,-11,-8,1,57
1514896230714355,4,40,95,17,5,2,-13,-30
1514896230714355,-9,-31,-86,-35,-12,-11,-4,-19
1514896230729366,27,4,97,20,13,10,13,23
1514896230729366,-23,6,-54,-36,-12,-7,0,9
1514896230730867,1,-26,1,10,2,-1,4,18
1514896230730867,17,-31,7,-15,-2,5,2,4
1514896230750880,-1,10,27,-2,-7,-4,-17,-10
1514896230750880,3,-15,-25,15,4,3,-4,-20
1514896230776404,-13,-17,-47,-8,-2,-6,2,9
1514896230776404,17,9,60,11,8,5,10,-4
1514896230777399,8,12,-69,-10,-6,-6,5,16
1514896230777399,-19,-46,-3,-2,-1,-2,-12,-19
1514896230780411,7,79,19,26,1,1,6,8
1514896230780411,-13,9,1,-35,-9,-8,-11,-31
1514896230789428,13,25,49,4,4,3,13,27
1514896230789428,-24,-81,34,4,-5,-8,-16,-12
1514896230790909,5,19,-57,-27,-5,-2,-11,-33
1514896230790909,8,20,34,4,0,3,6,47
1514896230812434,-12,-37,-18,-18,-7,-6,10,-48
1514896230812434,12,34,-55,5,5,4,-4,14
1514896230814435,-19,-16,3,-10,-5,-3,-4,-10
1514896230814435,11,36,-11,19,6,7,4,12
1514896230825443,-15,-17,-41,-15,-6,-7,-9,14
1514896230825443,34,9,10,12,0,-3,2,21
1514896230849961,-15,8,5,2,-6,-8,-5,-88
1514896230849961,-12,-2,-43,-34,1,4,10,5
1514896230850450,14,24,66,9,4,4,1,22
1514896230850450,-8,16,-13,17,-2,-2,4,-41
1514896230852461,-16,-18,-5,-13,-6,0,4,40
1514896230852461,13,-1,73,16,3,1,5,2
1514896230871966,-1,0,-69,-9,-4,0,3,20
1514896230871966,-24,2,64,-3,-1,-2,-1,-24
1514896230873467,22,36,30,41,13,5,5,25
1514896230873467,-10,-75,-116,-39,-14,-9,-24,-108
1514896230885475,4,24,51,-6,-5,-3,11,37
1514896230885475,1,56,54,31,12,7,-2,3
1514896230901987,-3,-1,-19,-23,-4,1,9,20
1514896230901987,2,29,26,38,9,0,11,24
1514896230908492,2,-4,-9,3,-6,-3,-27,-53
1514896230908492,5,3,10,-44,-13,-6,4,-18
1514896230916999,4,-7,60,-9,14,5,9,9
1514896230916999,1,10,-13,22,3,0,-6,19
1514896230932008,-10,-17,-69,-21,-5,0,12,35
1514896230932008,1,0,57,27,8,6,6,19
1514896230933519,-8,13,-13,-4,-14,-8,-14,-2
1514896230933519,14,7,20,-7,-5,-6,13,6
1514896230945528,-35,-19,8,16,0,-1,-19,-29
1514896230945528,-3,10,-44,-42,-15,-12,-13,-20
1514896230954524,1,-37,27,4,2,-2,-2,27
1514896230954524,-32,-28,-82,-11,-5,-2,-14,-11
1514896230969536,3,13,13,9,0,-3,4,-18
1514896230969536,2,-30,12,-20,2,4,18,30
1514896230971045,-4,-41,-68,3,-3,-2,-1,5
1514896230971045,-6,35,57,-5,-7,-8,-15,-19
1514896230992050,-7,23,39,14,2,0,7,6
1514896230992050,-10,-17,-35,1,0,-3,-6,-29
1514896230993554,20,19,62,22,4,6,21,47
1514896230993554,-31,-54,-64,-23,-6,-9,-34,-47
1514896231005562,16,10,34,3,4,1,8,-13
1514896231005562,-12,7,22,20,5,3,-6,4
1514896231022073,-6,18,-71,-26,-15,-8,3,1
1514896231022073,28,41,59,29,9,5,1,14
1514896231028577,-16,-45,-75,-49,-11,-6,-12,4
1514896231028577,1,-1,38,6,0,0,7,12
1514896231035582,20,-12,-77,3,-1,-2,-26,-32
1514896231035582,-1,-36,6,-4,-3,1,13,31
1514896231052094,-1,32,56,6,1,-4,-6,-6
1514896231052094,11,-24,-44,2,-8,-5,-2,7
1514896231058098,-10,3,0,-4,10,3,7,2
1514896231058098,-2,46,88,14,3,-1,-3,-4
1514896231074110,-11,-60,-76,-8,-5,-4,-12,-23
1514896231074110,11,6,17,7,1,0,7,20
1514896231076119,1,44,105,9,7,3,1,-5
1514896231076119,-16,-84,-90,-9,-4,-3,-2,5
1514896231089136,0,-1,-2,-16,-7,-4,5,-16
1514896231089136,-12,3,-19,17,6,2,4,-3
1514896231091120,12,-15,-30,-29,-11,-4,-6,0
1514896231091120,6,45,50,22,15,8,-8,-16
1514896231119141,5,-10,-2,-1,-3,0,15,50
1514896231119141,-9,-27,14,-26,-4,1,-5,-28
1514896231120642,14,44,39,30,5,5,22,28
1514896231120642,-17,-54,-36,-12,-8,-3,6,1
1514896231134151,18,-10,0,2,3,3,-22,-28
1514896231134151,-4,24,-6,-21,-9,-8,0,-8
1514896231135652,11,-24,12,2,-1,-1,-4,6
1514896231135652,-10,33,29,0,-4,0,0,6
1514896231149162,5,-12,-17,12,6,1,6,7
1514896231149162,-13,-2,10,-6,-2,-4,7,22
1514896231150663,-8,14,42,16,1,-2,-15,21
1514896231150663,3,-28,-18,-3,-3,-6,-16,-43
1514896231172180,0,-17,8,2,2,0,6,-15
1514896231172180,-6,-12,-83,-22,-3,-1,8,-5
1514896231173679,-15,2,6,-8,-5,-6,-22,-11
1514896231173679,-2,5,11,11,4,3,4,7
1514896231194695,5,51,40,35,8,2,-17,-16
1514896231194695,9,1,16,-14,-2,1,2,28
1514896231196196,2,-8,-14,0,0,-4,8,-18
1514896231196196,2,38,33,-6,-7,-4,7,66
1514896231209205,10,50,30,7,2,-2,-18,-96
1514896231209205,-9,-45,-54,-2,0,-3,-7,6
1514896231210706,-6,-13,-16,-6,-1,1,-5,6
1514896231210706,-4,-1,41,0,-2,0,0,-1
1514896231230719,-14,1,0,-22,-6,1,9,27
1514896231230719,16,-12,8,-4,-6,-5,-10,-4
1514896231241227,-14,-25,7,21,0,0,10,-27
1514896231241227,4,15,-22,4,-3,-2,-9,-6
1514896231254237,-23,-44,-48,-14,-7,-4,8,27
1514896231254237,10,26,11,7,4,0,-23,-28
1514896231256237,0,-7,-15,0,0,-1,4,20
1514896231256237,19,55,32,1,2,4,8,20
1514896231268746,-6,-39,2,-6,-1,-2,-6,-63
1514896231268746,2,35,16,-6,-3,2,-5,5
1514896231275251,-2,-4,-18,-4,-1,-2,17,14
1514896231275251,-15,-54,-38,4,-1,-2,-6,-6
1514896231291774,7,34,15,10,3,2,4,18
1514896231291774,-10,-17,6,-17,-4,-1,-5,-29
1514896231300279,-7,5,-20,7,4,3,-11,-28
1514896231300279,5,-5,35,7,3,2,10,8
1514896231321783,-21,-29,-95,-27,-15,-12,-13,26
1514896231321783,5,3,-3,14,8,2,-5,-45
1514896231323286,-6,-18,-19,-11,-1,3,2,12
1514896231323286,0,15,5,-2,5,4,-13,-32
1514896231328788,-8,-46,-55,6,0,-1,3,13
1514896231328788,4,11,22,4,-2,-1,5,-2
1514896231335303,-2,2,-7,-6,-3,0,-11,11
1514896231335303,-2,-29,-24,-16,-4,-3,-3,-21
1514896231351806,0,24,33,0,-1,1,17,93
1514896231351806,-8,-32,6,-5,-8,-9,-27,-64
1514896231353807,-2,1,18,17,3,0,-3,-16
1514896231353807,6,9,-38,-20,-10,-5,12,27
1514896231374321,4,22,28,-5,4,1,-9,-17
1514896231374321,-4,-33,28,25,8,3,4,10
1514896231375838,5,54,-8,-41,-16,-11,-15,-4
1514896231375838,-8,-3,-19,9,-1,-2,2,-13
1514896231388831,19,29,41,-2,1,0,10,32
1514896231388831,1,-6,-39,-10,-5,1,4,25
1514896231395345,2,-5,-6,0,-2,-5,-22,-56
1514896231395345,5,34,78,21,4,5,16,3
1514896231411856,13,-10,-44,-4,-3,-1,12,8
1514896231411856,-23,-42,-29,-5,-5,-5,1,13
1514896231413358,6,-13,-33,-9,2,5,12,4
1514896231413358,-14,2,0,3,1,-4,3,73
1514896231441878,3,-23,65,10,-1,-3,-44,-99
1514896231441878,-3,50,54,9,4,1,7,23
1514896231443379,6,-32,1,20,0,1,-1,3
1514896231443379,-7,-16,-44,-48,-9,-4,14,-1
1514896231456880,-4,11,-24,9,7,7,-1,3
1514896231456880,3,40,50,-4,-3,-2,4,9
1514896231458381,-14,0,-13,-2,-1,-4,1,32
1514896231458381,8,-8,34,29,10,4,-7,-77
1514896231471890,-9,8,14,-10,-5,0,8,14
1514896231471890,9,27,24,-13,-1,2,4,-5
1514896231473392,-3,-1,-10,-6,4,2,8,9
1514896231473392,7,26,-10,19,1,2,-7,64
1514896231494458,-10,-18,-17,-15,-5,-8,-17,-73
1514896231494458,22,9,23,12,1,1,6,20
1514896231500952,-5,14,5,-3,-1,2,10,21
1514896231500952,-3,-74,-32,-11,-6,-7,-15,-22
1514896231508468,-2,15,-5,11,5,-1,7,19
1514896231508468,-10,38,49,7,-4,-2,6,14
1514896231515472,4,-32,-65,-20,-6,-9,-17,-15
1514896231515472,-7,19,-29,10,1,0,4,5
1514896231531974,-17,-32,-14,-10,0,-2,-5,-17
1514896231531974,8,17,6,9,-1,-5,11,58
1514896231538978,-12,-29,6,8,0,1,-5,-37
1514896231538978,7,-4,18,-8,1,0,-1,-17
1514896231554499,5,55,61,3,-3,-2,4,15
1514896231554499,10,-50,-64,-2,7,1,14,29
1514896231557021,12,40,38,14,0,-1,-14,9
1514896231557021,-5,-5,-20,8,1,-1,-5,-32
1514896231568002,-5,-20,-37,-5,1,4,-3,-7
1514896231568002,10,13,-31,-5,-2,-2,15,22
1514896231577006,-3,-7,41,-23,-7,-4,-12,-52
1514896231577006,13,22,0,-1,1,1,9,8
1514896231600022,-2,-3,32,12,0,0,-6,4
1514896231600022,-14,-11,-2,-4,-3,0,-11,-26
1514896231603024,15,21,14,15,2,-1,11,34
1514896231603024,-5,-9,-3,-40,-11,-3,-1,35
1514896231613531,-8,0,-4,1,-1,-4,9,-17
1514896231613531,4,7,-1,16,3,-3,-41,-89
1514896231622037,-3,-5,25,-15,-1,2,15,22
1514896231622037,5,-21,-40,-2,-6,-5,-11,-24
1514896231629042,4,30,49,5,3,1,8,34
1514896231629042,-6,-18,-12,-9,-6,-4,-5,-4
1514896231637048,-1,2,-14,2,0,3,14,19
1514896231637048,6,11,-23,-1,0,-2,-5,-6
1514896231651570,-2,3,27,-7,-2,-2,-20,14
1514896231651570,-2,-7,-41,-4,-2,-4,-7,-83
1514896231653572,-3,-16,-30,8,1,-4,-15,-18
1514896231653572,6,0,57,0,-5,-3,0,7
1514896231674075,14,15,8,6,-1,1,15,19
1514896231674075,-15,1,19,-14,-2,-3,-12,25
1514896231676077,8,23,7,-6,2,1,3,-11
1514896231676077,-5,6,12,20,7,2,-2,-26
1514896231688084,-4,-17,-32,-32,-10,-1,3,-2
1514896231688084,-2,-8,-29,4,-2,-2,-3,15
1514896231697100,-8,-3,19,6,2,0,4,14
1514896231697100,21,32,36,9,3,0,-18,-10
1514896231711610,4,-45,-48,-1,-4,-1,4,-66
1514896231711610,2,9,-10,-1,-1,4,11,20
1514896231713111,-7,-13,28,-8,-4,-6,-8,-5
1514896231713111,-14,-41,-13,-3,-1,-1,19,29
1514896231734127,0,22,-48,6,4,-1,-18,-5
1514896231734127,-4,10,-13,-20,-10,-4,-6,-7
1514896231736117,-7,-45,2,-3,-1,-1,5,57
1514896231736117,-9,15,9,16,-2,-2,-8,-56
1514896231748141,0,-52,16,1,1,0,-5,8
1514896231748141,-1,37,10,1,0,2,11,20
1514896231757133,-7,0,-3,10,-2,-2,-6,8
1514896231757133,2,-29,-9,-11,-1,-4,-5,-12
1514896231771652,3,29,26,1,-2,-1,4,22
1514896231771652,-9,24,19,11,6,3,0,-4
1514896231778162,-7,-42,-50,-14,-7,-1,16,33
1514896231778162,-1,7,0,2,-1,1,-15,-40
1514896231801664,-9,18,34,24,1,1,12,18
1514896231801664,6,-29,-46,-43,-5,-3,-9,-28
1514896231804166,5,41,16,2,4,2,5,0
1514896231804166,-23,-38,10,-6,-3,-2,4,3
1514896231824693,6,23,-13,4,1,0,9,21
1514896231824693,-22,-30,-40,12,2,-3,-3,15
1514896231833186,4,6,-11,-10,-1,1,2,-25
1514896231833186,1,0,31,8,4,1,-12,-5
1514896231834187,-10,-22,-38,-5,-5,-6,4,7
1514896231834187,17,5,-12,-8,-7,-2,10,40
1514896231835688,-18,-25,-14,-1,-3,-4,-8,-48
1514896231835688,-5,-19,14,17,4,3,7,25
1514896231854213,3,-24,34,-11,-4,-4,-1,-12
1514896231854213,-2,7,34,10,3,2,0,-4
1514896231855712,-12,-23,-34,-4,-2,-4,-7,-18
1514896231855712,-7,9,15,1,2,5,29,103
1514896231877235,-4,-11,-96,-26,-8,-9,-42,-85
1514896231877235,2,2,38,11,-2,-3,0,3
1514896231878720,14,1,19,4,2,1,7,42
1514896231878720,-9,-9,-23,2,-1,-1,-15,-45
1514896231892230,3,1,-2,-6,-4,-2,12,22
1514896231892230,-7,2,11,-5,-2,1,8,15
1514896231893729,-5,5,-14,9,2,-3,-12,-2
1514896231893729,0,2,4,-6,-4,0,2,-5
1514896231921749,8,18,49,-15,-4,-1,3,13
1514896231921749,-5,0,-32,-5,-3,-2,-9,-5
1514896231923760,-4,13,19,16,2,-3,3,-7
1514896231923760,-6,5,9,-8,-8,-6,-18,-19
1514896231936762,1,5,-26,-6,3,5,26,47
1514896231936762,-2,-5,50,5,1,1,-17,-13
1514896231938262,-4,-14,-19,3,0,0,0,-14
1514896231938262,8,72,34,0,-1,-4,-7,-29
1514896231952772,-8,-23,-46,0,1,5,22,63
1514896231952772,6,7,-9,3,1,-2,-3,-12
1514896231953773,15,5,39,-16,0,2,7,-32
1514896231953773,-8,9,14,-14,-3,0,7,8
1514896231981791,-11,-11,8,-12,-3,-3,-6,-25
1514896231981791,2,5,19,18,6,3,8,14
1514896231984296,-17,2,-13,1,-4,-1,-12,-16
1514896231984296,29,-32,-24,-2,0,0,15,19
1514896231988302,-4,6,26,6,1,0,-10,-31
1514896231988302,3,-1,-23,4,-4,-6,4,6
1514896231996802,6,17,-6,-28,-8,-3,-5,-7
1514896231996802,-9,5,-2,1,1,-2,0,12
1514896232011812,-5,13,18,14,2,0,-5,-5
1514896232011812,6,-38,-70,-9,-1,-2,-2,-7
1514896232013314,-11,-16,2,10,0,1,5,13
1514896232013314,-10,1,-15,7,-1,0,-10,-14
1514896232033329,4,-10,-17,-7,-3,-4,-4,5
1514896232033329,15,50,51,2,2,1,3,3
1514896232042336,-5,-4,2,4,-1,0,-13,13
1514896232042336,-4,-10,-7,-14,-2,1,-8,-35
1514896232057849,2,23,19,21,3,-2,-7,-7
1514896232057849,-8,-35,-31,-1,0,2,-2,2
1514896232059348,3,8,4,-5,-2,-3,13,2
1514896232059348,5,-7,-11,14,4,3,0,13
1514896232079361,9,-7,-21,-22,-3,-1,-4,19
1514896232079361,-1,2,-4,4,-1,-1,3,-24
1514896232080864,7,4,-24,-3,0,-3,-7,-5
1514896232080864,-2,-11,-8,-4,-4,-2,1,4
1514896232094376,-1,-5,3,9,7,2,-2,-5
1514896232094376,3,-4,-17,-10,-5,-3,10,57
1514896232095872,8,-2,-2,9,-5,-4,-20,-62
1514896232095872,1,-3,13,-12,-1,0,6,13
1514896232116887,6,43,-20,-3,-3,-2,-1,15
1514896232116887,-5,-20,34,3,3,4,11,-11
1514896232118390,-5,-9,-14,6,-3,-3,-11,-14
1514896232118390,7,19,-39,-19,-7,-5,-2,4
1514896232131900,-9,-30,9,11,3,2,-1,-22
1514896232131900,12,21,2,-5,-4,-2,-2,11
1514896232133398,-8,9,2,0,-3,-3,1,11
1514896232133398,-6,-9,-15,0,-1,-3,-1,-18
1514896232161920,-10,-8,18,5,-1,2,-1,2
1514896232161920,-10,-5,-38,-16,-7,-8,-10,-17
1514896232167923,-4,-3,17,-8,-1,3,6,-3
1514896232167923,3,13,11,17,4,-1,5,35
1514896232176929,-6,-1,-33,-20,-8,-7,-6,-12
1514896232176929,-4,-8,14,4,-1,-3,-5,18
1514896232178431,-8,4,10,0,2,3,-4,-13
1514896232178431,6,17,17,0,3,5,-3,-6
1514896232191440,4,12,50,18,2,-1,-1,-5
1514896232191440,-2,-38,-57,-4,-2,0,14,28
1514896232198446,9,19,5,13,3,0,-13,-40
1514896232198446,-5,-15,-22,-19,-7,-6,-3,-3
1514896232213457,0,-16,1,-10,-4,-3,-5,-13
1514896232213457,-3,14,21,4,-1,-2,-8,-4
1514896232227967,8,2,3,6,4,2,11,29
1514896232227967,-4,-20,-21,0,-2,-1,-4,-16
1514896232236971,4,2,-6,0,-5,-5,2,2
1514896232236971,-15,-23,6,-14,-6,-4,-9,-28
1514896232239473,6,-3,-21,5,2,-3,4,18
1514896232239473,6,17,58,-2,-2,1,-5,11
1514896232250983,5,0,-55,-7,-4,-3,-7,-9
1514896232250983,-5,3,12,10,8,5,4,-7
1514896232258119,1,-9,-24,-27,-7,-4,-14,-10
1514896232258119,14,41,54,27,9,5,0,5
1514896232289138,-11,-13,-5,-6,-6,-6,0,3
1514896232289138,3,8,14,0,0,-1,-3,-19
1514896232291141,5,11,-23,7,2,2,3,-6
1514896232291141,-16,-25,-2,-4,0,-1,13,23
1514896232296145,6,7,9,-8,4,2,0,-8
1514896232296145,-1,11,41,2,-1,-1,2,-1
1514896232305151,-3,-20,-49,-4,-2,-1,-1,30
1514896232305151,-2,-17,-5,-3,-3,-2,-2,-27
1514896232311153,-5,11,19,11,0,-3,-10,7
1514896232311153,3,-5,-24,6,2,1,0,-4
1514896232318160,2,-12,4,-21,-7,-6,5,14
1514896232318160,3,12,2,7,3,0,-12,-9
1514896232333170,-3,-15,-24,-9,-7,-4,8,2
1514896232333170,-3,-6,-6,-9,-3,0,-6,-17
1514896232342178,-5,23,55,20,4,1,14,27
1514896232342178,-14,-45,-31,-10,-5,-6,-12,-24
1514896232357688,-1,-6,-1,-8,0,3,6,10
1514896232357688,3,-2,-25,5,2,1,-3,-15
1514896232360189,-5,17,47,11,1,-1,2,25
1514896232360189,12,5,11,-1,2,0,4,-7
1514896232371196,-12,2,-20,-23,-4,0,1,0
1514896232371196,1,-3,-18,-14,-6,-6,-9,8
1514896232377701,0,6,2,11,0,2,6,-11
1514896232377701,2,13,-8,7,-1,-4,-7,4
1514896232393713,0,10,20,0,2,1,-3,-4
1514896232393713,0,7,8,4,0,1,-2,-1
1514896232401719,-1,18,13,-14,-7,-4,-9,-11
1514896232401719,-8,-14,-6,3,-6,-3,-3,36
1514896232417241,11,-13,-37,10,3,-1,-8,-40
1514896232417241,1,-16,2,-7,-3,-2,0,4
1514896232418742,-10,-19,23,2,-1,-3,-1,-17
1514896232418742,-9,-17,-70,-10,-4,-2,1,20
1514896232431739,1,11,27,5,0,1,-16,-18
1514896232431739,4,4,-12,16,2,0,-1,-6
1514896232437743,-1,-6,0,-18,-1,-2,-5,-17
1514896232437743,0,29,4,2,2,0,1,-9
1514896232454271,9,-24,-34,-1,-2,-1,11,29
1514896232454271,-7,-15,-15,-1,-4,-3,-9,-8
1514896232455774,-3,-4,15,-2,-2,-1,-2,11
1514896232455774,-4,3,-19,-5,-1,0,5,29
1514896232476280,-5,19,36,6,1,-1,-12,-71
1514896232476280,13,9,5,5,1,-1,4,11
1514896232482774,-6,-50,-29,-9,-5,0,-1,7
1514896232482774,0,8,30,-2,-1,-1,-1,-8
1514896232491281,2,-4,-5,9,2,-3,2,20
1514896232491281,0,1,-41,-6,0,-1,2,-3
1514896232505291,-5,2,10,-4,2,2,-5,-16
1514896232505291,8,-21,26,-1,-4,-3,-3,-12
1514896232514309,-11,-6,-43,4,-2,-1,0,14
1514896232514309,3,30,33,-1,-1,-1,-3,-5
1514896232515812,4,3,-22,-15,-2,1,20,61
1514896232515812,-20,-53,-33,-5,-4,-5,-31,-72
1514896232537314,10,31,52,10,2,1,8,27
1514896232537314,-7,-28,9,-2,0,0,-5,-5
1514896232540816,-1,-9,-68,13,0,-1,-2,-1
1514896232540816,-2,12,14,-22,-3,-1,10,10
1514896232550332,-2,-1,15,6,0,-2,0,-2
1514896232550332,-9,8,22,0,1,0,-1,5
1514896232559330,2,-3,6,3,-2,0,-1,-14
1514896232559330,4,8,5,5,1,-1,1,6
1514896232582346,4,-1,-9,-3,-2,-5,-11,-4
1514896232582346,-9,1,11,-7,-2,0,4,9
1514896232584847,26,3,12,10,2,2,5,-9
1514896232584847,-15,5,-12,-2,-5,-11,-18,57
1514896232597369,-26,3,5,-11,-2,5,29,-27
1514896232597369,16,-5,-1,0,-3,-4,-5,-2
1514896232599858,-23,-1,13,-17,-1,1,-7,-42
1514896232599858,20,10,4,1,-1,-1,5,-2
1514896232610365,6,-10,-14,-13,-3,-3,-12,18
1514896232610365,-2,1,10,8,1,-2,0,-8
1514896232619372,-5,-3,-3,7,-2,-3,-2,2
1514896232619372,-5,11,2,3,2,2,2,-9
1514896232634894,-7,2,11,9,-1,-3,-6,5
1514896232634894,4,-2,-11,-12,-2,1,2,-9
1514896232636395,4,2,-1,-5,-2,0,-4,11
1514896232636395,-5,4,7,-4,0,1,6,-12
1514896232656899,14,0,-1,7,0,2,1,8
1514896232656899,-5,-7,0,7,-1,-1,-2,9
1514896232658400,-4,-2,-2,-6,-4,-3,-6,-3
1514896232658400,2,3,-11,-5,0,1,3,-12
1514896232670415,-6,-3,5,-2,1,-2,2,5
1514896232670415,-6,-3,3,-6,-1,-2,-3,0
1514896232679415,-2,1,-4,8,0,-3,-3,-5
1514896232679415,7,6,-12,7,2,3,5,-8
1514896232693924,-4,-10,-60,-18,-5,-1,-2,7
1514896232693924,-4,1,25,-9,-2,-1,0,-2
1514896232695926,5,-8,-16,-7,0,1,-1,0
1514896232695926,-1,5,34,18,-2,-3,1,-2
1514896232716940,-1,2,10,5,-2,-1,-2,2
1514896232716940,-2,0,7,3,1,-1,-4,-5
1514896232718942,-5,-2,0,-1,11,1,-1,-3
1514896232718942,-3,-3,-17,-13,-5,1,-1,-1
1514896232730968,-2,3,20,-1,0,-2,-2,-2
1514896232730968,2,4,-5,5,-4,-1,1,-3
1514896232740970,-1,0,25,4,-2,-4,-6,0
1514896232740970,-2,-1,-16,-3,2,1,2,-1
1514896232753967,1,0,8,0,-3,-3,-3,1
1514896232753967,-1,-1,-7,-6,0,-1,-2,-1
1514896232756985,4,3,1,7,-1,-2,1,-1
1514896232756985,-4,-2,-6,-2,-2,-2,-1,-5
1514896232775998,2,1,1,-1,0,1,1,3
1514896232775998,-3,-1,-8,-4,0,-1,-1,0
1514896232784498,-2,-4,0,1,-2,-1,-2,-2
1514896232784498,0,-3,-5,-4,-3,-4,-4,-4
1514896232802510,1,2,12,-2,1,2,1,3
1514896232802510,0,0,-3,0,-2,-1,0,-1
1514896232806506,2,-4,-3,-3,-5,-3,-4,-2
1514896232806506,-4,-2,-2,-1,-1,0,-2,-3
1514896232814010,-2,0,0,3,-1,0,-1,0
1514896232814010,0,-1,-5,-3,0,-1,1,-1
1514896232816012,0,-2,-2,-2,-2,-2,1,-1
1514896232816012,2,4,-2,-2,1,0,1,0
1514896232836539,-1,0,1,-1,0,-3,0,-1
1514896232836539,-2,-3,-5,-4,-1,-1,-1,-1
1514896232838027,-1,-1,2,-1,-1,1,1,0
1514896232838027,0,-1,0,1,-1,-2,-2,-2
1514896232859041,-2,-1,-1,-1,-2,-3,-3,0
1514896232859041,0,-4,-3,-1,-1,-2,-3,-1
1514896232860541,-2,-3,-1,0,-2,-1,-2,0
1514896232860541,0,-1,-3,-2,0,-1,0,-2
1514896232873567,0,-2,0,-3,1,0,0,-3
1514896232873567,-1,-3,-2,-3,-2,-1,-1,-1
1514896232881558,1,-2,-1,-1,-1,0,-2,-1
1514896232881558,-1,0,-4,-2,-1,-2,0,-1
1514896232897568,2,7,2,0,-1,-2,-1,0
1514896232897568,-2,4,-4,-1,-2,-2,-3,-3
1514896232899571,-1,3,-1,-2,0,1,-2,-3
1514896232899571,0,1,1,1,0,0,0,-1
1514896232910077,0,-5,1,-2,0,-3,-1,-1
1514896232910077,-2,-7,-2,-2,0,-1,-3,-2
1514896232919584,-2,-6,-1,-1,-2,-1,0,-1
1514896232919584,-1,-6,-3,-1,0,0,0,-2
1514896232934095,-3,-3,0,-3,0,-1,0,-1
1514896232934095,-1,-3,-1,-2,1,-2,-1,1
1514896232936605,0,-3,0,-1,-1,-1,-1,-1
1514896232936605,-2,-1,0,-1,0,-2,-2,0
1514896232956620,1,-1,-1,1,0,1,0,-1
1514896232956620,-2,-1,-2,0,-1,-1,0,-1
1514896232958116,-2,-2,-2,-1,-1,-2,-1,0
1514896232958116,1,2,1,-2,-1,-2,-1,0
1514896232995638,-2,1,-2,0,-1,0,0,0
1514896232995638,-2,1,-2,-3,-3,-3,-2,-2
1514896232997144,0,0,-3,0,-1,0,-2,-1
1514896232997144,-2,1,-1,-2,-2,-2,1,0
1514896232999140,-2,1,1,0,-1,-1,-1,0
1514896232999140,0,-3,-1,0,0,0,0,1
1514896233008146,-1,-3,-1,-1,0,-2,-1,0
1514896233008146,0,1,-3,-3,-1,0,0,-1
1514896233016652,-1,-2,-2,0,-1,0,0,-1
1514896233016652,-1,-1,-2,-2,0,1,0,-1
1514896233018153,-2,-2,-2,0,-2,-1,-2,0
1514896233018153,-1,-1,-1,-1,-1,0,-2,0
1514896233039168,1,-1,-1,-2,-2,-3,-1,-2
1514896233039168,-1,0,0,0,-1,-1,-1,-1
1514896233041170,-1,-2,0,-1,-1,-2,-2,-1
1514896233041170,-3,0,-2,-1,-3,-1,-2,0
1514896233054700,0,2,-2,-2,-2,-2,-2,-2
1514896233054700,-2,-1,-2,-1,-2,-2,-2,-1
1514896233056191,-2,-1,0,0,-1,-1,-1,-2
1514896233056191,0,0,1,-1,-1,1,1,-1
1514896233076695,-1,-2,0,0,0,-3,0,0
1514896233076695,-2,-1,-2,-3,1,0,-1,-2
1514896233078195,-1,-2,-1,0,-1,-2,-2,-2
1514896233078195,-1,0,0,-2,-1,-1,-2,-1
1514896233099711,-1,0,1,-2,-2,-1,0,-1
1514896233099711,-1,-1,-1,0,-2,-1,-1,-1
1514896233103714,-1,-2,0,-1,-2,-1,-2,0
1514896233103714,0,1,-1,0,-1,-2,1,-1
1514896233113220,1,1,-2,-1,-1,-3,-1,0
1514896233113220,0,-1,-2,1,0,-1,-1,-2
1514896233121727,-1,-1,-1,0,0,0,-1,0
1514896233121727,-2,0,-3,-2,-1,-1,0,0
1514896233137237,-2,1,0,-1,-2,0,0,2
1514896233137237,0,-3,-2,0,-4,0,-1,-2
1514896233138738,-2,-3,-2,-2,-1,-1,-1,-1
1514896233138738,-1,-1,-1,0,0,-1,-3,-1
1514896233159254,-1,-1,-2,-2,-1,-2,-2,-1
1514896233159254,-1,-2,-1,-2,-2,0,-1,-2
1514896233160755,-1,-2,0,-1,-1,-2,-1,-1
1514896233160755,-3,0,0,-1,-1,-1,-1,-1
1514896233181772,-2,0,-2,-3,-3,-2,-2,-1
1514896233181772,-1,-1,0,0,-1,-2,0,-1
1514896233183270,0,-2,-1,-3,-1,0,-1,-1
1514896233183270,0,-1,-1,0,0,0,0,0
1514896233196779,-2,0,0,0,1,1,-1,-3
1514896233196779,-1,-3,-1,-3,0,-3,-2,-1
1514896233199294,1,-2,-1,-2,-2,-3,0,0
1514896233199294,0,-2,0,0,1,-2,-1,-2
1514896233220796,-1,1,-1,-2,-1,-1,-1,1
1514896233220796,-1,-2,-1,1,-1,-1,0,0
1514896233224300,-3,-1,-1,-1,-1,-1,0,-1
1514896233224300,0,0,-1,-2,-2,-2,-2,-2
1514896233233806,-2,1,-1,0,-2,1,0,-1
1514896233233806,-1,-1,-2,-1,-1,-1,-2,0
1514896233241812,-1,-1,0,-1,0,0,-2,1
1514896233241812,-2,0,-2,-1,-1,-2,0,-1
1514896233256942,-2,0,0,-1,0,-1,-1,-1
1514896233256942,-1,0,-2,1,0,-1,-1,-2
1514896233258446,-2,-3,-1,1,0,2,-2,-3
1514896233258446,0,0,-2,-1,-1,-2,-1,-1
1514896233279460,-2,0,-2,-1,-2,-3,-1,-2
1514896233279460,-1,-1,0,-1,0,0,-1,1
1514896233280958,-1,-1,-2,-1,-1,-2,-1,-1
1514896233280958,-1,0,-1,1,0,-2,0,-2
1514896233294468,0,-2,-2,-1,0,-1,-1,-2
1514896233294468,-3,-2,-1,-2,-2,-1,0,0
1514896233300472,-1,-2,0,0,-1,0,-3,-1
1514896233300472,-2,-3,-2,-1,-1,0,0,-1
1514896233316984,1,0,-1,-2,-2,-1,-1,-1
1514896233316984,0,-2,-2,0,-1,-1,-2,-1
1514896233319986,-1,-1,-2,-1,1,0,-2,-1
1514896233319986,-1,-2,0,-1,-2,0,-2,0
1514896233340001,0,-1,-1,0,-1,-1,-3,0
1514896233340001,0,0,-3,-2,-2,-1,0,1
1514896233341503,-1,-1,-1,-1,-1,-3,1,-2
1514896233341503,-1,1,-1,-3,-2,-1,-1,-1
1514896233353510,-1,0,0,-1,-1,-1,0,-1
1514896233353510,-1,-3,0,-2,0,-1,0,-1
1514896233360544,0,-3,-2,0,-2,0,0,0
1514896233360544,-3,0,-2,-2,0,-1,0,-3
1514896233377026,0,-4,-2,0,0,-1,-1,0
1514896233377026,0,-1,-1,-1,-2,0,-1,-2
1514896233378530,-3,-4,0,-1,0,-1,0,1
1514896233378530,-2,-2,-2,-1,-2,-1,0,-1
1514896233399042,-2,1,-2,-1,0,-2,-2,-2
1514896233399042,-1,-2,0,-1,-1,-2,-1,-2
1514896233400543,1,-1,-1,-2,-1,-2,-1,-1
1514896233400543,-1,0,-1,0,-2,0,0,-1
1514896233414053,-2,1,-2,-1,-2,-2,-2,-2
1514896233414053,-1,0,-2,-2,-2,-1,-1,-2
1514896233420066,-1,-2,-1,0,-1,-1,-1,-2
1514896233420066,-1,0,0,-1,-2,1,1,-1
1514896233438084,-1,-1,-3,-1,-3,-1,0,-1
1514896233438084,-3,-3,-1,0,-1,1,-1,1
1514896233441572,-1,-1,-1,-1,-1,0,-1,1
1514896233441572,-3,-2,0,0,0,0,-2,-1
1514896233459084,2,-1,0,-1,1,-1,-1,-2
1514896233459084,0,-1,-1,0,-2,-1,-1,-1
1514896233460595,-1,-3,0,-2,-1,1,-1,-2
1514896233460595,-1,-1,0,-1,-1,-3,-3,-2
1514896233472603,-4,-2,-2,-3,-2,-1,-2,-2
1514896233472603,-1,-2,-2,-1,-1,0,0,-3
1514896233487604,-1,-1,0,-1,-2,-2,0,-3
1514896233487604,-1,-2,-2,0,-1,-1,-1,0
1514896233496610,-2,-2,0,-3,-2,1,-1,-1
1514896233496610,-2,0,0,-1,-1,-3,-2,1
1514896233498111,-1,-1,-2,-1,-2,0,-1,-2
1514896233498111,1,2,-2,0,1,-1,-1,-2
1514896233519127,0,1,-1,0,-1,0,1,0
1514896233519127,-2,-1,-1,-1,-1,0,-2,1
1514896233521628,-1,-2,-2,-1,-2,0,0,0
1514896233521628,-1,-1,1,0,-3,-2,-2,1
1514896233532636,0,0,-1,0,0,-1,-1,-2
1514896233532636,-1,-2,-1,-2,0,-3,0,-1
1514896233541643,-2,1,-1,-1,0,-1,0,0
1514896233541643,0,0,-1,-1,-1,0,-1,0
1514896233556654,0,-1,-1,-2,-1,-2,-1,-1
1514896233556654,-3,-3,-2,-2,-3,0,-2,-3
1514896233558156,-1,-1,-1,-1,0,-2,0,0
1514896233558156,-3,-1,-1,-2,-1,-3,-1,-2
1514896233579178,0,-1,-1,0,0,0,-1,1
1514896233579178,-1,-1,-3,-1,0,1,1,-2
1514896233580679,-3,-6,-2,0,-1,0,-2,-1
1514896233580679,-1,-1,-2,-2,-2,0,-1,-1
1514896233592688,-1,-1,-2,-1,0,-2,-2,-1
1514896233592688,0,-1,0,-1,-1,1,-1,-1
1514896233602685,-1,1,-1,-1,-2,-1,-1,0
1514896233602685,-1,0,-1,0,-1,-1,-1,-2
1514896233616695,-2,0,-2,-3,-1,-3,-2,0
1514896233616695,0,-1,-1,-1,0,-1,-1,-2
1514896233618196,-1,-2,-3,-2,-1,0,-2,-2
1514896233618196,-1,-1,-3,-1,1,-1,-1,-1
1514896233639211,-2,0,-2,0,-1,-1,0,0
1514896233639211,0,-1,-1,-1,-1,0,-2,1
1514896233640713,-1,0,-2,-3,-3,-2,-1,-1
1514896233640713,1,-2,-1,-2,-1,1,-1,-3
1514896233652721,-3,-2,-1,0,-1,0,1,-2
1514896233652721,-1,-2,-2,0,-1,-1,0,-1
1514896233661728,-1,-1,0,0,0,0,-1,-1
1514896233661728,-1,0,-2,0,0,-2,0,-1
1514896233675782,-1,-1,0,-3,-3,-1,-2,0
1514896233675782,0,-2,-1,0,-1,-1,-2,-3
1514896233676780,-2,-2,-2,0,-1,-1,-1,-1
1514896233676780,0,-2,-1,-1,-1,-1,-4,-2
1514896233698314,0,0,-1,-2,-1,-1,0,-1
1514896233698314,-2,-2,0,0,-1,-1,0,-1
1514896233699315,-1,-1,-2,0,0,0,-1,-1
1514896233699315,2,4,0,0,-1,-2,-1,1
1514896233720850,-1,-4,-3,-1,-2,-1,-1,-3
1514896233720850,-3,-5,-2,-2,-2,-1,-1,-1
1514896233722842,-1,-1,-1,-1,-1,-1,1,-1
1514896233722842,-1,0,-1,-1,-1,-1,1,-1
1514896233735841,2,3,-1,-2,-1,0,0,-1
1514896233735841,-3,-2,-1,-1,0,-1,-1,1
1514896233736842,0,-2,0,-1,-1,-1,-2,-1
1514896233736842,-2,1,-2,-2,0,-2,-1,0
1514896233758369,-1,-1,-1,-1,-1,0,-1,-1
1514896233758369,-1,-2,-1,0,-1,-2,-2,-1
1514896233759367,0,-1,-2,-1,-2,1,-1,-1
1514896233759367,-1,-2,-2,-2,-2,0,0,-2
1514896233780876,-2,1,-2,0,1,-3,-2,0
1514896233780876,-2,0,-1,-2,0,-2,0,-2
1514896233781877,-1,0,0,-1,-2,-1,-1,-1
1514896233781877,-1,-1,-1,-2,-2,-1,-1,-1
1514896233795884,-1,1,-2,1,0,-1,-1,-2
1514896233795884,-1,-2,-2,-1,-1,-1,-1,-2
1514896233796896,-2,-1,-2,-2,-1,-1,-1,-1
1514896233796896,-3,-2,-1,-1,-2,0,-1,-1
1514896233818909,-1,-3,-1,-2,-1,-2,-1,-1
1514896233818909,0,-1,-1,-1,-1,0,-1,-1
1514896233826406,-1,-3,1,-1,-1,-2,-1,-1
1514896233826406,-1,-2,0,-1,-1,0,-1,0
1514896233840916,-2,1,0,0,-2,-2,1,-2
1514896233840916,0,-1,-1,2,-1,-2,-1,0
1514896233841917,0,-2,-1,-2,-1,-1,-3,-1
1514896233841917,0,0,0,-1,-1,-1,0,0
1514896233855926,-2,-1,-1,-3,-1,0,1,0
1514896233855926,-1,-1,-1,-1,0,-2,-2,-3
1514896233856928,0,-1,-1,0,1,-1,1,1
1514896233856928,0,-1,-2,-1,-1,-2,-1,-1
1514896233878451,-1,-2,-1,-2,-1,-4,-1,-1
1514896233878451,-1,-2,0,-1,0,-1,0,0
1514896233879453,-1,-2,-2,0,-1,-1,-1,-2
1514896233879453,0,-1,-2,-1,-1,0,0,-3
1514896233900957,0,-1,0,0,-1,-2,-1,-1
1514896233900957,-1,-1,-2,-1,-2,0,-1,0
1514896233901958,-1,0,1,0,1,-2,-1,-1
1514896233901958,-1,-1,-2,-2,0,-1,-1,-1
1514896233924492,-2,-1,1,-1,-1,-1,-2,0
1514896233924492,1,-1,-2,-2,0,-1,-1,1
1514896233924974,-2,-1,1,-1,-3,-1,-2,-2
1514896233924974,-1,-1,0,0,-1,-1,0,-2
1514896233938494,-2,-1,-2,-2,-2,-2,-1,-1
1514896233938494,-2,-1,-1,-3,-2,0,-1,-2
1514896233939495,-1,-2,-2,-1,-1,0,0,0
1514896233939495,-3,2,-2,-2,-1,-2,-1,1
1514896233961015,-1,0,-2,-1,-1,0,-1,-1
1514896233961015,-2,-2,0,2,-1,-2,0,-1
1514896233968520,-2,-1,-1,-1,0,-1,-2,-1
1514896233968520,-1,0,-1,1,-2,-2,-2,-2
1514896233976014,1,-1,1,0,0,0,-1,-1
1514896233976014,-2,-2,-1,-2,-2,1,-2,-2
1514896233977012,-1,-2,0,-1,-1,-3,0,-1
1514896233977012,-1,-2,-1,-1,0,-1,0,0
1514896233998557,0,-1,1,-1,-1,-1,0,0
1514896233998557,-1,-5,1,0,1,-2,-1,-1
1514896233999057,-1,0,-2,-1,-1,0,-3,1
1514896233999057,-2,-1,-1,-3,-1,-1,-1,-1
1514896234021074,-2,-2,-3,-1,-2,-2,-2,-2
1514896234021074,-2,-3,-1,-1,-3,-2,-1,0
1514896234022573,0,-1,-1,-2,-2,-1,0,-2
1514896234022573,1,1,-1,1,-1,-1,-1,-2
1514896234036083,-1,1,-2,-2,-3,-1,-2,-3
1514896234036083,-1,-2,0,-2,-1,-1,0,-1
1514896234036583,-2,0,-2,0,-3,-2,-2,0
1514896234036583,-1,0,0,-1,-4,-2,-3,1
1514896234058598,-3,0,1,-3,0,-2,1,0
1514896234058598,0,0,-2,-2,-1,-2,-2,0
1514896234059100,-1,-2,-1,-1,0,0,-2,-2
1514896234059100,0,-1,-1,-2,0,-1,-1,-3
1514896234081143,-1,-2,-3,0,-1,0,-2,-1
1514896234081143,1,-2,-1,-2,-1,-1,1,-1
1514896234081640,-1,0,0,1,0,0,0,-2
1514896234081640,-1,-1,-1,0,-3,-1,-2,0
1514896234096150,-1,0,-2,0,-2,-3,-2,-2
1514896234096150,-2,1,-2,0,-2,0,-2,-2
1514896234096650,-1,-2,0,-1,-1,-1,-3,-2
1514896234096650,-2,0,-2,-1,-1,-2,-1,-2
1514896234118671,1,0,-1,-1,-2,0,-1,0
1514896234118671,-1,1,-1,1,-2,-1,1,-1
1514896234119166,-1,-2,-2,-1,-1,-1,0,-1
1514896234119166,-1,-2,0,0,-2,1,1,-2
1514896234141182,-2,-3,-2,-1,0,-2,0,0
1514896234141182,-2,-3,-2,-2,0,-3,-2,-2
1514896234141683,0,-1,-1,-1,-1,0,0,0
1514896234141683,0,0,-1,-1,-1,-1,-1,-1
1514896234156203,0,-1,-1,0,1,1,0,-1
1514896234156203,0,-3,1,-1,-1,-1,-1,1
1514896234156694,-2,0,-3,-1,-1,1,-1,-2
1514896234156694,-2,2,-2,0,0,0,-2,-3
1514896234178709,-1,-2,-1,-1,-1,0,0,-1
1514896234178709,-2,-1,-1,-4,0,-2,-2,1
1514896234179224,0,-1,-1,-2,-1,-2,-3,0
1514896234179224,-1,0,-3,-2,0,-2,-2,0
1514896234200726,0,-2,0,-4,0,-1,-1,-2
1514896234200726,-1,0,0,0,-1,0,-2,-1
1514896234201734,-1,0,-1,0,-1,-1,1,-1
1514896234201734,0,1,-2,-2,-2,-2,0,-2
1514896234216234,0,0,-2,-1,-1,0,0,-1
1514896234216234,-1,-2,-3,-1,-2,0,-2,-2
1514896234216735,-1,-1,-2,-2,-2,-1,-3,0
1514896234216735,-1,-1,1,0,0,-1,-1,-1
1514896234238750,2,-1,-1,-2,-1,-1,-1,-3
1514896234238750,-2,-1,0,-1,0,-1,-1,-1
1514896234239257,-1,-1,0,-1,0,-2,-1,0
1514896234239257,0,-1,-1,0,-1,0,-1,0
1514896234261266,-1,-1,-1,-1,-1,-1,0,1
1514896234261266,0,-3,-1,1,0,-1,-1,-3
1514896234261768,-2,-1,-2,-1,-2,0,-1,0
1514896234261768,-1,-2,1,0,0,0,2,1
1514896234275777,-1,-1,1,0,-2,-1,-1,0
1514896234275777,-4,-1,-1,1,-2,-1,-1,0
1514896234283282,-1,-2,0,-1,-1,-2,-1,-1
1514896234283282,-1,-1,-1,-1,-1,-1,-2,-1
1514896234298298,-2,-1,0,-1,-1,0,-2,-1
1514896234298298,0,-2,-1,-1,-1,0,0,-1
1514896234299294,0,-1,-1,-2,-2,-1,0,-3
1514896234299294,-2,1,-1,-2,1,-1,-3,0
1514896234320808,0,-3,-3,-1,-1,-1,-2,0
1514896234320808,-3,-3,-1,-1,-2,-1,-2,-1
1514896234322810,0,1,-2,-1,-1,-2,0,-1
1514896234322810,-1,-1,-2,0,-1,-2,-1,0
1514896234335820,-2,0,-1,-3,0,-2,-1,-1
1514896234335820,-2,-2,-1,-2,0,-1,-2,-2
1514896234336821,0,0,-1,-1,-2,-1,-1,-1
1514896234336821,-3,0,0,-2,-2,-1,-1,-1
1514896234358835,-1,-1,-2,0,-1,-1,-1,1
1514896234358835,0,-1,-1,-2,-2,-1,-3,-1
1514896234359336,-3,0,1,0,0,0,-1,-2
1514896234359336,0,1,-1,-1,0,0,0,-1
1514896234381354,0,-3,-1,0,-2,-3,0,-3
1514896234381354,-2,-1,-2,-1,0,-1,1,-2
1514896234382367,-2,-1,-2,-1,0,-2,-1,-1
1514896234382367,0,0,-1,-2,-1,-3,0,0
1514896234395861,-2,-2,-1,-1,-2,1,1,-3
1514896234395861,-1,-2,-2,-1,-1,-1,-1,-1
1514896234396863,0,0,-2,-2,0,-1,-1,-2
1514896234396863,-1,-1,0,-1,-1,0,0,-2
1514896234418889,-2,-4,-2,-1,-1,-1,-1,-1
1514896234418889,-1,-1,-1,-3,-1,0,-1,-1
1514896234425895,-1,-1,-1,-1,0,-1,-1,-1
1514896234425895,0,-1,-3,-1,-1,-2,-1,0
1514896234440904,-2,0,1,-1,0,-1,0,0
1514896234440904,0,-2,1,0,-1,-2,-2,0
1514896234448401,-2,-1,-3,-1,0,-1,-1,-1
1514896234448401,1,-2,-1,-2,-1,2,0,0
1514896234455905,-1,-1,-1,-3,0,-2,-1,-2
1514896234455905,0,-1,-1,-1,-2,0,0,-2
1514896234463410,-1,1,1,-2,-2,-1,0,1
1514896234463410,-2,-2,-2,-2,-1,-2,-1,-2
1514896234478432,-1,-2,-3,-1,-2,0,0,-2
1514896234478432,-1,0,-1,0,1,0,-1,2
1514896234479430,-1,-2,-2,0,-1,0,-2,-1
1514896234479430,-1,0,-2,-1,-3,0,-2,0
1514896234500937,-1,0,-1,-2,0,0,-2,-1
1514896234500937,-1,-1,-2,-3,-2,-2,-1,-2
1514896234501949,-1,-1,0,0,-1,-3,1,-1
1514896234501949,-1,-2,-1,-3,0,-2,-1,-1
1514896234515447,-2,-2,-3,0,-2,-1,-1,-1
1514896234515447,-2,-2,0,0,-2,-2,-1,-1
1514896234523462,0,-2,-2,-1,0,-1,-2,-2
1514896234523462,-2,0,-1,0,-1,-2,1,-2
1514896234538463,1,-3,-1,-1,0,-2,-2,1
1514896234538463,1,-2,-2,1,-1,-1,0,-1
1514896234539473,-1,-1,0,-1,-2,-2,0,-1
1514896234539473,-1,-2,-1,0,-2,-1,-1,-1
1514896234561488,-1,-1,-1,-1,0,-1,-1,-1
1514896234561488,-1,0,-1,-1,-1,-1,-2,-1
1514896234562489,-3,-1,-1,-2,-2,0,-1,-1
1514896234562489,0,-1,-1,0,-1,-1,-2,0
1514896234575488,0,-2,0,-1,-1,-1,-1,0
1514896234575488,-1,-2,-1,0,-1,0,0,1
1514896234583494,0,0,-1,1,0,0,-2,0
1514896234583494,-2,0,-2,-1,-1,-2,-1,-2
1514896234598517,-1,-1,0,0,-1,0,-1,1
1514896234598517,0,-2,-2,-1,-3,-2,-1,-2
1514896234599506,-1,0,0,-1,1,0,0,-2
1514896234599506,0,-1,-1,-2,-1,-2,0,-2
1514896234621021,-2,-2,-2,0,-1,-2,-1,-1
1514896234621021,-3,-2,0,-1,-1,-1,-2,0
1514896234622527,1,0,-1,-1,-1,-1,0,-1
1514896234622527,-2,1,-1,-1,-1,1,-2,-3
1514896234635032,-4,0,-1,0,1,0,1,-1
1514896234635032,0,-1,-1,-3,0,0,0,-1
1514896234643036,-1,-3,-4,-2,-1,-1,-2,-1
1514896234643036,0,-3,-3,0,-2,-1,-2,0
1514896234660049,-2,0,-1,-2,-1,-1,-1,-1
1514896234660049,-1,-2,-1,0,-2,-2,-2,-3
1514896234660549,0,-1,-3,0,-1,0,-1,-1
1514896234660549,-1,0,0,-1,0,-2,-1,0
1514896234681566,-1,-1,-2,-2,-1,-1,-2,-2
1514896234681566,-1,0,-2,0,-2,-1,-2,-2
1514896234682579,-1,-1,-1,-1,-2,-1,0,-1
1514896234682579,-1,0,-2,-1,-1,-1,-1,-1
1514896234695074,-1,-3,0,-1,-1,0,1,0
1514896234695074,-2,-3,-2,-2,-2,0,-1,-1
1514896234703580,-1,-2,0,-2,-3,-2,-1,-1
1514896234703580,-1,0,-1,0,0,0,-2,-1
1514896234718591,0,-1,0,0,-2,-2,0,-1
1514896234718591,-1,-3,-2,0,-2,-1,0,0
1514896234719091,-2,0,0,0,-2,0,-1,0
1514896234719091,-3,-1,1,-2,-3,-1,-1,-1
1514896234741607,0,0,-2,-1,-1,-1,-2,-2
1514896234741607,-1,-2,0,-1,-1,0,-1,0
1514896234742606,0,-1,-1,-2,-1,-3,-2,-1
1514896234742606,-3,0,-1,-1,0,0,-1,0
1514896234755119,-2,-2,-2,-2,-1,1,-2,1
1514896234755119,-1,0,0,-3,1,-3,0,-1
1514896234763622,-2,1,-1,-2,-1,-2,-1,0
1514896234763622,1,0,0,-2,1,-2,0,-2
1514896234778636,0,-3,-1,1,-3,-2,-1,-2
1514896234778636,-1,-1,-2,-2,-1,-1,-1,-1
1514896234780151,-1,0,0,-1,0,-2,0,0
1514896234780151,1,1,0,-1,-3,-2,-2,-1
1514896234803150,-1,-2,0,-1,0,-1,-1,-1
1514896234803150,-2,-2,0,0,-1,0,-1,-2
1514896234804150,-2,-1,-1,0,-1,-2,-2,-1
1514896234804150,0,2,-2,0,0,-1,-1,1
1514896234815159,0,-2,-1,1,0,-2,-1,-1
1514896234815159,-1,-4,-1,-1,-1,-1,0,-1
1514896234823665,-1,-2,-3,-3,-2,0,-1,-2
1514896234823665,-2,-1,-1,-1,-1,0,-1,-3
1514896234839175,1,1,-1,-3,-2,-1,0,-2
1514896234839175,-3,-3,-1,-1,0,-1,-2,1
1514896234840177,-2,1,-1,-1,-2,-1,0,-1
1514896234840177,0,0,-1,-1,0,0,1,0
1514896234869196,-1,-1,-1,-1,0,-2,0,-1
1514896234869196,-1,-2,-1,-2,1,1,-2,0
1514896234870697,-2,0,-1,-1,-1,-2,-1,-1
1514896234870697,0,-1,-2,-2,-1,-1,-1,0
1514896234884220,-2,0,-1,-3,-1,-2,-2,-1
1514896234884220,-1,-2,-1,-1,-2,0,0,-1
1514896234884707,-1,-1,0,0,0,-1,-2,-2
1514896234884707,0,1,0,-2,-1,-2,-1,-1
1514896234898229,-1,-2,0,-2,-1,-3,-2,0
1514896234898229,0,-3,0,0,-1,-1,1,-1
1514896234899220,0,-1,-2,1,1,0,-2,0
1514896234899220,-2,-1,-2,0,-2,-2,-1,-1
1514896234922245,0,-2,-2,-2,0,0,1,0
1514896234922245,0,-1,-1,0,-2,-2,-3,-1
1514896234922734,-1,0,1,0,-1,-3,-1,-1
1514896234922734,-1,0,0,-3,-2,-1,-2,1
1514896234944250,-4,-2,-1,-2,0,1,-2,-1
1514896234944250,-2,-2,0,-1,0,0,0,-1
1514896234944750,-1,-1,-2,0,-1,0,-1,-1
1514896234944750,-1,0,-2,-1,0,-1,-2,-1
1514896234958260,-2,-1,-1,-1,-2,-2,-1,-3
1514896234958260,-1,-1,-1,-1,0,-1,-2,-3
1514896234959261,-2,-1,-2,-2,-1,-1,0,-2
1514896234959261,-2,-1,0,-2,-3,-2,-2,-2
1514896234981820,-1,-3,-2,-1,0,0,-2,0
1514896234981820,-1,-2,-2,-1,-2,-1,0,-1
1514896234982307,0,0,-1,-1,-1,-1,-1,-2
1514896234982307,1,1,-3,0,-3,-2,0,-2
1514896235004337,-1,-3,1,1,0,0,-2,-1
1514896235004337,-1,-2,-1,0,0,-2,-1,-2
1514896235005843,-1,0,-1,0,-2,-3,-3,0
1514896235005843,-1,-1,-3,-2,0,0,2,0
1514896235018332,-1,-2,-1,-3,-1,-3,-2,-2
1514896235018332,-1,-3,-1,1,0,1,-2,-2
1514896235019333,-2,0,0,-2,0,-1,-1,-1
1514896235019333,0,0,1,0,0,0,-1,-1
1514896235041861,0,-1,-1,1,-1,-1,-1,-3
1514896235041861,-2,-2,0,0,0,-2,0,-1
1514896235042361,0,1,-2,-1,-2,1,-1,-1
1514896235042361,-2,2,-1,0,-1,-1,-1,-1
1514896235064878,-1,-1,0,0,-1,1,-1,0
1514896235064878,-1,-3,-1,0,0,-2,-1,0
1514896235065875,-2,-2,-2,-2,-2,-1,0,-1
1514896235065875,-1,-1,0,-1,-1,0,-1,-1
1514896235079376,-1,-2,-3,-1,-2,-2,-3,-2
1514896235079376,0,-1,-2,-3,-2,-1,-1,-1
1514896235080377,-1,-2,0,-1,0,-2,-1,-2
1514896235080377,0,-1,-1,-2,0,-1,-2,0
1514896235101908,-2,-1,0,-2,-1,-2,0,-1
1514896235101908,-2,-2,-2,-1,-1,0,-1,-1
1514896235102391,-2,1,0,-2,-2,0,-1,-1
1514896235102391,-2,1,0,0,-1,0,-2,-2
1514896235132916,0,0,-2,-1,1,0,-1,0
1514896235132916,-2,-2,-2,-2,0,0,-1,-2
1514896235134414,-1,-1,-1,0,-1,-1,0,-2
1514896235134414,0,0,0,-1,-2,-2,-1,-1
1514896235138416,-2,-4,-3,1,-3,-2,-2,-1
1514896235138416,0,-2,-1,0,-2,0,-1,0
1514896235139417,-2,-2,-1,0,-2,0,-1,-1
1514896235139417,-1,0,-1,-3,0,-1,1,-2
1514896235161445,0,1,-1,-1,-3,-2,-2,0
1514896235161445,-2,-2,0,-1,-2,-2,0,-1
1514896235162451,0,0,-1,-1,-1,-2,-1,-2
1514896235162451,0,-1,0,0,-3,0,-1,0
1514896235184004,-1,-2,0,-1,-1,-3,0,0
1514896235184004,0,-2,-2,0,0,-2,-2,0
1514896235185000,-1,0,-2,-2,-1,0,-1,-1
1514896235185000,-1,2,-3,-2,-1,0,-1,-3
1514896235198501,-1,0,-1,-1,-2,-1,-2,-1
1514896235198501,0,-1,-1,1,-1,-1,0,-2
1514896235199500,-1,-1,-1,-1,-2,0,-3,-2
1514896235199500,0,-1,-1,-1,-1,-3,1,-1
1514896235223018,-1,-1,0,-2,0,0,-1,-2
1514896235223018,-2,-2,-3,-1,-1,-2,-1,0
1514896235224520,-1,-1,-2,-1,0,-1,-1,0
1514896235224520,-1,-3,0,-1,-1,-1,0,-3
1514896235244044,-2,-1,0,0,-1,0,-1,-1
1514896235244044,-1,-1,0,0,-1,0,-1,0
1514896235245045,1,0,-2,-2,-2,-2,0,-1
1514896235245045,-1,-1,-1,-1,-1,-1,-2,0
1514896235258547,0,0,-1,-2,0,0,-2,-3
1514896235258547,-1,-1,-3,-2,-2,0,-2,-2
1514896235259044,-1,-1,-1,-1,0,-1,0,0
1514896235259044,-1,0,-2,-1,-1,-2,-1,0
1514896235282062,-2,-4,-3,-1,-1,-1,0,-1
1514896235282062,-1,-2,-2,-1,-2,0,0,1
1514896235283061,0,-1,-1,1,1,0,-2,1
1514896235283061,0,-1,-2,0,0,-1,-1,-2
1514896235304085,-2,-2,-1,-1,-2,-1,1,0
1514896235304085,0,-2,0,-2,-1,0,-1,-1
1514896235306076,-1,0,-1,-2,0,-2,-1,-1
1514896235306076,-1,1,-2,-2,-1,-2,-2,-1
1514896235318599,-3,1,-2,-2,0,0,-2,-1
1514896235318599,-2,-1,-1,-2,0,-1,0,-1
1514896235319586,2,-1,-3,-1,-2,-1,-1,-1
1514896235319586,-1,-2,-3,-1,-1,0,0,-1
1514896235341602,0,-1,-2,-1,-1,-1,0,0
1514896235341602,0,-2,-1,-1,-1,-3,-1,-2
1514896235342602,-3,-1,-1,-1,-1,1,-2,0
1514896235342602,-1,0,-1,-1,-3,-1,0,-1
1514896235364126,0,-2,-2,-1,-1,-2,0,-1
1514896235364126,0,-1,0,-1,1,-2,-3,0
1514896235365117,-1,0,-1,-1,-3,-1,1,-1
1514896235365117,0,0,-2,-2,-1,-1,-1,-1
1514896235378628,0,-3,0,-2,-2,-1,0,0
1514896235378628,0,-5,-2,-2,-1,-1,-3,-1
1514896235380129,-2,-1,-1,-1,0,-2,-2,-2
1514896235380129,-1,0,-1,-1,-1,-1,-2,0
1514896235401645,0,0,-2,-1,0,-1,-1,0
1514896235401645,-1,-1,1,-2,-1,-1,0,0
1514896235402145,0,1,0,-1,-2,-1,0,0
1514896235402145,-1,0,-1,-2,-1,-2,0,-1
1514896235424660,0,-1,0,0,-1,-1,-2,-3
1514896235424660,-2,-1,-1,-1,-1,-1,-1,-1
1514896235426662,0,-1,-2,0,0,-1,0,-2
1514896235426662,-2,0,-1,0,-1,-3,-2,-1
1514896235437670,-2,-1,-2,-1,1,-2,0,0
1514896235437670,1,-7,0,-1,-1,0,-1,0
1514896235446175,-2,-6,-1,-2,-1,-3,0,1
1514896235446175,0,-1,-3,-2,-1,-1,0,-1
1514896235461686,0,-2,2,0,-1,0,0,-1
1514896235461686,-2,2,-3,-2,-1,-2,0,0
1514896235462187,-2,3,-3,-3,0,-1,1,-1
1514896235462187,0,2,1,0,1,-2,-1,-2
1514896235483712,0,1,-1,-1,-2,0,0,0
1514896235483712,0,1,0,0,0,0,-1,-1
1514896235492208,1,2,-1,0,0,-2,-3,-2
1514896235492208,-1,0,-1,-1,-1,0,-1,-1
1514896235497712,-1,-3,-1,-1,0,0,-3,-1
1514896235497712,-2,-2,-2,0,-1,-1,-2,-2
1514896235506218,-3,-1,-2,-1,-2,-1,-1,1
1514896235506218,0,0,0,-1,-2,-3,-2,-1
1514896235521729,-1,-3,0,0,-1,-1,-1,-1
1514896235521729,-1,-1,-2,0,-1,-1,0,-2
1514896235523232,0,2,-1,0,0,1,-1,0
1514896235523232,1,-3,-2,-1,-1,0,-1,1
1514896235544244,-1,-2,-1,-1,-2,0,0,-3
1514896235544244,-1,-2,0,-2,-2,-2,-1,-1
1514896235544745,-1,-1,1,0,-3,-1,-1,-2
1514896235544745,-3,-3,-2,-1,-1,-1,-1,-2
1514896235557755,-1,-2,-2,0,0,0,-2,-1
1514896235557755,1,-2,0,0,0,-1,-1,-3
1514896235565779,0,0,-2,-2,0,-1,-1,-1
1514896235565779,0,-2,-1,-2,-1,-2,0,0
1514896235581396,-2,-1,-1,-1,0,-2,-1,0
1514896235581396,-3,-1,-1,-2,-1,-1,-1,-1
1514896235582372,1,0,-1,-1,0,-3,-1,-3
1514896235582372,-2,1,-1,-3,0,-1,0,0
1514896235604405,-2,-2,-2,-1,-1,-1,1,-1
1514896235604405,-1,-3,0,-1,-1,-1,-1,0
1514896235604890,0,-2,0,-1,-2,-2,-3,0
1514896235604890,0,-1,-1,0,1,0,-2,0
