timestamp,emg1,emg2,emg3,emg4,emg5,emg6,emg7,emg8
1514894084625786,-2,-2,-1,-1,0,0,-1,0
1514894084625786,2,0,-2,-1,0,-1,-1,0
1514894084627286,-3,0,-2,-1,-2,-2,0,-1
1514894084627286,-2,-2,-1,-1,0,-2,2,0
1514894084631790,-1,-2,0,-1,-1,-2,-1,0
1514894084631790,-2,-2,0,-1,-2,-1,-1,0
1514894084639795,2,-1,0,0,-1,-2,-2,1
1514894084639795,0,-1,-1,-2,-1,-1,-2,-2
1514894084655306,-2,-1,-2,-1,0,0,0,-1
1514894084655306,1,1,-1,0,0,-2,-1,-2
1514894084656307,-2,-1,-2,-2,-1,-1,-2,-2
1514894084656307,-1,0,-2,-2,0,-2,-1,-2
1514894084678324,-1,-2,-2,-1,-1,-2,-2,-1
1514894084678324,-2,1,-2,-1,-3,1,0,-1
1514894084679325,0,0,1,-1,0,-2,0,0
1514894084679325,0,-2,-1,-1,0,-1,0,-1
1514894084691833,0,-3,0,-3,-1,-2,0,-1
1514894084691833,-1,-1,-2,0,-1,0,-2,-1
1514894084699838,-1,-2,-1,-1,-2,-1,0,-1
1514894084699838,-1,-2,-1,-1,0,-2,-2,0
1514894084715349,-3,-1,0,-2,0,1,0,0
1514894084715349,0,-1,0,0,-1,0,-2,0
1514894084715849,0,0,-1,-1,0,0,-1,-2
1514894084715849,0,-2,0,-2,-1,-2,-1,1
1514894084737364,-2,-1,-2,-1,-2,-1,0,0
1514894084737364,-1,0,-1,-1,1,-2,1,-2
1514894084738364,-2,0,-1,-2,-1,-1,0,-1
1514894084738364,-1,-1,-2,-1,0,0,-1,-2
1514894084760882,-2,-1,-1,0,0,0,-2,-2
1514894084760882,-2,0,0,-4,-1,-1,0,-2
1514894084761883,-1,-1,0,-2,-1,-1,0,-1
1514894084761883,1,-3,-1,-2,-1,-2,0,-1
1514894084775391,-2,-3,-2,0,-1,-1,-1,0
1514894084775391,-2,0,-2,-1,-2,-2,-1,0
1514894084776392,-2,1,-1,0,-1,-2,-3,-2
1514894084776392,0,-1,1,0,-1,-2,-1,-2
1514894084797420,0,-1,-1,-2,-2,-2,-2,0
1514894084797420,-2,-1,-2,-1,-1,-1,-3,-1
1514894084798423,-3,1,-1,-2,0,-1,-1,-1
1514894084798423,-2,-3,-1,0,-3,0,-1,-2
1514894084820923,0,-1,-1,-1,0,-1,0,0
1514894084820923,-1,-1,0,-2,0,-1,-2,1
1514894084827428,-1,-2,0,0,0,0,-1,0
1514894084827428,-1,-1,-1,-1,0,-1,-1,0
1514894084834933,-2,-2,-2,0,-2,-1,-1,0
1514894084834933,0,-1,-1,0,-2,0,1,0
1514894084835935,1,1,-3,-1,-2,0,0,-1
1514894084835935,0,-3,-1,-1,1,-2,-1,-2
1514894084857450,-1,-3,1,-3,0,0,-1,-3
1514894084857450,0,1,0,0,-4,-1,-1,1
1514894084859451,-1,0,-2,-2,-1,-1,-1,-1
1514894084859451,0,-1,-2,1,-1,-1,-2,0
1514894084880966,0,-1,-1,-2,-2,0,-1,-1
1514894084880966,-1,-1,-3,-1,0,0,-1,-2
1514894084881467,1,-1,-2,-1,0,-2,-1,-1
1514894084881467,-2,-4,0,-2,-2,-2,-1,0
1514894084894977,-2,-1,0,1,-1,-1,-1,-3
1514894084894977,-3,1,-1,-2,-1,-1,-1,0
1514894084895980,-2,1,-2,-2,-1,-1,-1,-1
1514894084895980,-1,0,-1,0,0,-1,1,-1
1514894084917992,-3,-2,-1,-2,-1,-2,-1,-2
1514894084917992,-1,1,0,-1,-1,-1,0,-2
1514894084925006,0,-1,-2,0,0,0,-2,1
1514894084925006,-2,-3,-1,-2,-2,1,0,-1
1514894084940523,-1,-2,-2,-1,-1,-2,-1,-2
1514894084940523,-1,1,-1,-1,1,-2,-1,-2
1514894084942524,0,-1,-1,-1,-1,-3,-1,-1
1514894084942524,0,0,-2,-2,-2,-1,1,-1
1514894084955018,-1,-2,-1,-1,-1,0,-1,1
1514894084955018,-1,-1,-2,0,-2,-1,-1,-2
1514894084956519,-1,-1,0,1,-3,-1,0,-1
1514894084956519,-2,-3,0,-1,-2,-2,-2,-2
1514894084978037,-1,-1,-1,-2,-1,0,-3,-1
1514894084978037,-1,-1,0,-1,-1,-2,-2,-1
1514894084979036,-1,0,1,-2,0,-1,-1,-1
1514894084979036,0,-1,-2,0,-1,1,-2,0
1514894085000560,2,-2,-2,0,0,-1,-2,0
1514894085000560,0,-2,-1,-2,-2,0,-3,-2
1514894085001566,-2,0,-1,-1,-2,-1,-1,-3
1514894085001566,-3,-3,-1,0,-2,-3,-1,-2
1514894085016063,-1,-2,0,-1,0,-1,0,-1
1514894085016063,-1,0,-2,-2,-1,-1,0,0
1514894085017066,0,1,0,0,-2,0,0,0
1514894085017066,-1,0,-2,-2,-2,-1,-1,-2
1514894085037588,-3,-3,0,0,0,0,0,0
1514894085037588,-1,0,0,-1,-1,-2,-1,-1
1514894085038079,-1,-1,-2,-1,-1,-1,-1,-1
1514894085038079,0,-1,-1,-1,-1,-1,-1,0
1514894085068108,-1,-2,-1,-2,-1,-1,0,-1
1514894085068108,-2,-1,-1,0,-1,-1,-2,-2
1514894085069098,-1,1,-1,-3,0,-3,-2,0
1514894085069098,-1,-2,0,-2,-1,0,-2,0
1514894085075112,-1,-4,-2,-1,-1,-2,0,-1
1514894085075112,-1,1,0,-1,-1,0,-1,-1
1514894085076104,-2,0,-1,-1,-2,0,-1,-3
1514894085076104,-1,-4,-2,0,1,0,-2,-1
1514894085097620,-2,-2,1,0,-2,-1,0,2
1514894085097620,0,0,-1,1,-2,-1,0,-1
1514894085098119,0,-2,-1,-1,-2,-2,-1,-1
1514894085098119,-2,-2,-2,-1,-1,-2,1,-2
1514894085120636,0,0,-1,1,-1,-2,0,-1
1514894085120636,-1,2,-2,-1,-1,-1,0,0
1514894085121636,-2,1,-2,-2,0,-1,-1,-1
1514894085121636,-3,-5,-1,-2,1,0,0,-1
1514894085135146,-1,-1,0,-1,0,-1,-3,-1
1514894085135146,-1,1,-1,-2,-1,-1,-1,0
1514894085135645,0,-2,-1,-2,-2,-1,-1,-2
1514894085135645,0,-4,-1,-1,-2,-2,-1,1
1514894085157661,0,0,0,-1,-2,0,1,0
1514894085157661,2,3,-2,-1,-2,-1,-3,-2
1514894085158162,0,1,-1,-1,-1,1,-1,0
1514894085158162,-1,-3,-1,0,1,-1,0,-1
1514894085180714,-1,-3,0,-2,-1,-1,-1,-1
1514894085180714,-1,-1,0,-1,-1,-1,-1,1
1514894085182215,-1,-1,-1,0,-1,-2,0,0
1514894085182215,0,-1,1,-2,-1,-3,-1,-3
1514894085203230,-1,-1,-1,-1,0,0,-2,-2
1514894085203230,-2,-2,-1,0,0,-2,-1,0
1514894085204244,-1,6,0,-2,-2,0,0,-1
1514894085204244,-1,-9,-2,-3,-1,-1,-1,2
1514894085217741,0,-1,-1,0,-2,-1,-2,0
1514894085217741,-1,-2,-2,-2,1,-2,1,-1
1514894085218240,-1,-3,-3,0,-1,-1,0,0
1514894085218240,-1,4,-3,-1,-1,0,-1,-2
1514894085240771,-1,-4,0,-5,-3,-1,-1,0
1514894085240771,-1,-4,-1,-2,-3,-2,-1,-2
1514894085242257,-1,5,-2,-1,-1,-3,-1,-1
1514894085242257,-1,1,-1,0,-3,-2,-2,-2
1514894085263272,-2,-6,-3,1,-2,-3,-2,-1
1514894085263272,-2,0,-1,-1,0,0,-1,0
1514894085264773,-1,-1,-2,-2,-2,0,0,-3
1514894085264773,-2,-2,0,-2,-1,0,-1,-2
1514894085278783,-2,-4,-2,-1,0,-1,-1,-3
1514894085278783,-1,0,0,-1,0,0,-1,0
1514894085279783,0,0,-1,-1,-1,0,-2,0
1514894085279783,-1,1,-1,-1,-2,-1,-1,1
1514894085300808,-1,0,0,-2,-2,-1,0,-1
1514894085300808,0,-2,-1,0,-2,-3,0,-1
1514894085301299,-1,0,-2,-2,0,-1,-1,-1
1514894085301299,-2,2,-1,-1,-1,-2,-1,0
1514894085314814,-2,-3,-1,-1,0,-1,-1,-1
1514894085314814,-1,-2,0,-1,-1,-1,0,-1
1514894085315811,-1,0,-2,-1,0,-1,-1,-1
1514894085315811,0,1,-4,-1,-1,0,0,0
1514894085345842,-1,-3,-3,1,1,0,-2,-1
1514894085345842,-1,-1,-1,-2,-1,1,-2,-2
1514894085346331,-1,2,0,1,-2,-1,0,-1
1514894085346331,0,-2,-1,-1,0,-1,-2,-2
1514894085360842,0,-3,-2,-1,-1,-1,0,1
1514894085360842,-2,0,0,0,-1,-2,0,-1
1514894085361342,-1,0,-2,-2,-1,-2,0,0
1514894085361342,-1,-1,-2,-2,-3,-1,0,0
1514894085375361,-1,-2,0,0,0,-2,0,-3
1514894085375361,-2,0,-2,-3,-1,0,-1,-2
1514894085382358,-1,0,-1,-2,-2,-2,-2,-1
1514894085382358,-1,0,0,-1,-4,-3,0,0
1514894085397366,0,-2,-1,-1,-1,-2,0,1
1514894085397366,-1,-1,-2,0,-2,-2,1,0
1514894085398367,-2,1,1,-1,0,-1,0,-1
1514894085398367,-1,0,-1,-2,0,0,-1,-2
1514894085420897,-2,-3,-1,-2,0,0,1,-1
1514894085420897,-1,1,-2,1,0,-1,0,-1
1514894085421383,1,0,-4,-1,-2,-1,-1,-1
1514894085421383,-1,-2,-2,-1,1,1,-2,-1
1514894085434402,-2,-4,-1,-2,0,-1,-2,-2
1514894085434402,-1,0,-3,-1,-2,-2,-2,-2
1514894085442398,0,0,-1,-1,1,-1,-1,0
1514894085442398,-1,-1,0,-1,-2,-1,0,0
1514894085457422,-2,-4,-3,-1,-1,-1,0,0
1514894085457422,0,-1,-1,1,0,-1,-1,0
1514894085458410,0,0,0,-1,-1,0,0,-1
1514894085458410,-1,-2,0,0,-1,-2,-2,-2
1514894085489932,-3,-3,0,-2,-2,0,-2,-1
1514894085489932,-1,0,1,-2,-2,0,-2,0
1514894085491433,0,1,-1,0,-1,-1,-2,-1
1514894085491433,-1,-3,-1,0,-2,-2,0,0
1514894085494447,-1,-3,0,-1,-1,-1,-2,0
1514894085494447,-1,0,-2,-2,0,-1,-1,-2
1514894085502441,0,1,-1,-3,-2,0,-1,-2
1514894085502441,-1,-1,0,-2,-3,1,0,-1
1514894085517462,-1,-2,1,1,-1,-1,0,-2
1514894085517462,-2,-2,-1,-1,-2,0,-1,0
1514894085518461,-1,1,-1,0,-1,-1,0,-1
1514894085518461,0,-2,0,-2,0,0,-1,0
1514894085540968,-2,-3,-2,-2,-1,-1,-1,0
1514894085540968,-2,-1,-1,-1,0,-1,-1,-2
1514894085541469,-1,1,-1,0,-1,-3,-3,0
1514894085541469,-1,-4,-1,0,-1,-1,0,-1
1514894085554477,1,-5,-1,-2,-1,0,-2,-1
1514894085554477,-2,-2,0,-1,-1,-1,0,-2
1514894085569990,-2,1,-1,-2,-2,-3,-2,-1
1514894085569990,-1,-1,-1,-1,-1,-2,-1,-2
1514894085577997,-3,-3,1,-1,-1,-1,-1,0
1514894085577997,1,-2,-1,-1,-1,-1,-2,1
1514894085578507,-1,3,-3,-1,-1,-1,1,-1
1514894085578507,0,-2,-3,-2,0,-2,-2,-1
1514894085600510,0,-1,-2,0,0,0,-1,0
1514894085600510,-1,1,0,-1,-1,-2,0,-1
1514894085601511,0,0,-1,-2,0,-1,1,-1
1514894085601511,0,-1,-1,-1,-2,-2,0,-1
1514894085614520,0,-3,-2,-1,-1,-3,-2,-1
1514894085614520,-2,1,-1,0,-2,-3,-2,-1
1514894085623527,-2,1,-1,-2,-2,0,-1,0
1514894085623527,-1,-2,-1,-1,-1,-2,-1,-1
1514894085637549,-2,-3,-1,0,-2,1,0,0
1514894085637549,0,-1,0,0,0,0,0,0
1514894085638549,0,-1,0,-2,-2,-1,-1,1
1514894085638549,-3,-3,-2,-1,-2,-3,-1,-1
1514894085661056,-2,-2,-1,0,-2,1,1,-2
1514894085661056,1,-1,-2,-3,-2,1,0,0
1514894085661554,0,1,-2,0,-2,-2,0,-1
1514894085661554,-1,-2,0,0,1,-1,-1,0
1514894085675064,-1,-3,0,0,0,-1,-1,0
1514894085675064,-1,-1,-2,-3,-1,-1,-1,-1
1514894085682568,-2,0,-1,-3,-1,-1,-1,-1
1514894085682568,-1,-3,0,-2,-2,1,-1,0
1514894085697579,-2,-3,0,-1,0,-1,-1,0
1514894085697579,0,0,-1,0,-2,-2,-3,-2
1514894085698592,-1,1,-1,-2,-1,-1,-2,-1
1514894085698592,0,-2,0,-1,0,-2,-1,-1
1514894085720595,1,-3,-1,-1,0,-1,-1,-3
1514894085720595,-1,0,0,0,0,-1,1,0
1514894085722597,0,0,-2,-2,-2,-1,0,-1
1514894085722597,-4,-1,0,0,-1,0,0,-1
1514894085743111,-2,-3,-1,-2,-2,-3,-2,-1
1514894085743111,-1,-1,-1,0,-1,-1,-2,0
1514894085744113,0,0,-2,0,0,0,-2,-1
1514894085744113,0,0,-2,-1,-1,-1,-1,-1
1514894085757624,-1,-1,-2,-2,0,-1,-1,-1
1514894085757624,-2,-1,-3,-2,0,-2,-1,-2
1514894085758122,-2,0,1,-2,0,-1,-1,-1
1514894085758122,-2,-2,-2,0,-1,-1,-1,-1
1514894085780637,-1,0,-1,0,-1,-1,0,0
1514894085780637,0,-1,-2,-3,-1,0,-1,-1
1514894085781638,-2,0,0,1,-2,-1,0,-3
1514894085781638,-1,-2,0,-1,-1,-2,0,1
1514894085803163,-2,-2,-1,1,0,1,-1,-1
1514894085803163,0,-1,-1,1,-1,-2,1,-1
1514894085804164,-2,-1,-1,-2,0,-1,-1,0
1514894085804164,-2,-4,-1,-1,-1,-2,-2,0
1514894085817676,-1,-2,0,-2,-1,0,-1,-1
1514894085817676,-1,2,-1,-1,0,-2,-1,-1
1514894085818176,0,2,0,-1,0,0,0,-2
1514894085818176,-1,0,0,-2,-1,-1,-1,-3
1514894085840681,0,-2,-2,-1,-2,-1,-2,-2
1514894085840681,-2,2,0,-1,-2,-2,-2,-1
1514894085842181,0,0,-2,1,-2,-2,0,-1
1514894085842181,0,-2,-3,-2,-1,-1,-1,-1
1514894085863196,-1,-3,0,-1,-3,0,-1,-2
1514894085863196,-1,0,0,-1,0,-2,-2,0
1514894085864698,-1,1,0,-1,-1,-2,-1,1
1514894085864698,0,-2,-1,-3,-2,-1,-2,1
1514894085878206,-3,-2,-1,-1,0,-1,-3,-3
1514894085878206,0,-3,-1,-2,-2,-1,-1,-1
1514894085879207,0,-1,-3,-1,-1,0,-1,0
1514894085879207,-1,-3,0,2,0,-1,0,-3
1514894085901222,-2,0,-1,1,0,-3,0,-1
1514894085901222,-1,1,-1,-2,0,-1,-1,-1
1514894085902224,-1,0,-1,-1,-2,0,-2,0
1514894085902224,1,-1,-1,-2,0,-1,-2,-1
1514894085923238,1,-2,-1,0,0,-1,-1,0
1514894085923238,0,-1,-1,0,-2,-3,0,-1
1514894085923738,0,1,-2,-2,-2,-2,-2,0
1514894085923738,-2,-2,-1,-1,-2,2,0,-2
1514894085937748,-1,-4,-1,-2,-2,-1,0,0
1514894085937748,-1,2,-3,0,0,-1,2,1
1514894085938249,-2,-1,-2,-1,-2,-1,0,-1
1514894085938249,-1,-3,-2,0,-1,-2,-2,-2
1514894085960765,-4,-4,-1,-1,-1,-1,-1,-3
1514894085960765,-2,-1,-1,-2,-1,0,-3,-3
1514894085961766,-1,-1,-2,-2,-2,-4,-2,-1
1514894085961766,1,0,-2,-1,-1,0,-1,2
1514894085983280,0,-2,-1,-1,-2,1,0,0
1514894085983280,1,1,-2,-1,-1,-1,0,0
1514894085984284,-2,-1,-1,-2,-1,-1,-1,-2
1514894085984284,-3,-2,0,-1,-2,-2,-2,-2
1514894085997792,0,-3,-1,-1,2,0,-1,-3
1514894085997792,3,0,0,-2,-2,0,-1,-1
1514894085998292,-2,3,-2,-1,0,-1,-2,-3
1514894085998292,-3,-8,-1,1,-1,-2,-2,-1
1514894086020819,-3,-4,-2,-2,-2,-2,0,1
1514894086020819,-2,-1,0,1,-2,0,-1,-3
1514894086021310,1,4,-1,-1,-2,-1,0,0
1514894086021310,0,-1,-1,-2,-1,-1,-1,0
1514894086043323,-1,-2,-1,0,0,-2,-2,0
1514894086043323,-1,-1,-1,-1,1,0,-2,-1
1514894086044850,-1,-2,-1,-1,-1,-1,-2,0
1514894086044850,0,-1,-3,-1,-1,1,-1,-2
1514894086057348,-1,-1,-1,-1,-2,-2,-1,-2
1514894086057348,-2,0,-1,-1,-2,-1,-1,-1
1514894086058333,0,-1,0,0,1,-1,0,-1
1514894086058333,2,-1,1,-1,-1,-3,-1,1
1514894086080850,-2,-1,0,-2,-1,0,-1,1
1514894086080850,-2,-1,-1,-1,0,-2,0,-1
1514894086082351,-1,-3,-1,-2,-3,-1,0,-2
1514894086082351,0,-3,0,0,0,0,-1,-1
1514894086102865,0,0,0,-1,0,-2,0,-1
1514894086102865,0,1,-1,0,1,-2,-2,0
1514894086104867,-2,1,-1,-1,-1,-2,-1,-1
1514894086104867,0,-1,-2,-2,-1,0,-1,-1
1514894086116875,0,-1,-1,0,-1,0,-2,0
1514894086116875,-1,0,-2,-2,-1,-1,-1,1
1514894086128383,0,-1,0,-2,0,-3,0,-2
1514894086128383,0,-1,-1,-1,-3,2,0,-1
1514894086140892,-2,-1,0,-1,0,-1,-2,-2
1514894086140892,-1,-1,-3,-1,-2,-1,-3,-1
1514894086142393,0,-1,-2,-2,-2,2,0,0
1514894086142393,-3,-1,0,-2,-1,-2,-1,-1
1514894086162908,1,-3,-3,-1,-2,-1,0,-1
1514894086162908,-2,0,-2,-1,0,-2,-1,-3
1514894086164909,0,0,-3,-2,-1,-1,-1,-1
1514894086164909,-1,-2,-2,-2,-1,-1,0,-1
1514894086176917,-2,-2,-1,-1,-1,0,0,0
1514894086176917,-1,-3,-1,-2,-2,0,-1,-2
1514894086185925,0,1,-3,-1,-2,1,0,-1
1514894086185925,-1,-1,-1,-1,0,-2,-3,-2
1514894086200439,-3,0,-1,0,-2,-1,1,-1
1514894086200439,-1,1,-2,-1,-1,0,0,-1
1514894086202438,-1,-1,-1,1,0,-2,-1,1
1514894086202438,0,-3,0,-1,0,-1,-1,-1
1514894086223008,-2,-3,-1,0,0,1,-2,0
1514894086223008,-2,-1,0,-2,-2,-1,-2,-3
1514894086224952,-1,-1,1,-3,-1,-2,-3,0
1514894086224952,-2,-2,-2,-1,0,-1,1,-1
1514894086236959,-2,-1,-1,-1,0,-1,-2,-1
1514894086236959,-2,-2,0,-2,-2,0,-2,-1
1514894086253484,1,0,-2,-1,1,-2,-1,-1
1514894086253484,-2,-2,-2,0,-2,-2,-2,-1
1514894086261479,-1,-2,-1,-1,-1,-2,-2,-3
1514894086261479,-2,1,-3,-2,0,-1,1,0
1514894086262979,-1,-1,-2,-1,-2,0,0,-1
1514894086262979,-2,-2,0,-3,1,-2,0,0
1514894086283005,0,-2,-1,0,-1,0,-1,0
1514894086283005,-1,-1,-1,-3,-1,0,-1,-1
1514894086285014,-2,0,-2,-1,-2,-1,-3,-1
1514894086285014,-2,-1,-1,-1,-1,0,-2,-2
1514894086297002,-1,-2,0,0,-3,0,-2,0
1514894086297002,0,0,-1,0,1,0,0,-2
1514894086306011,-1,1,0,-2,-1,0,1,-1
1514894086306011,0,-1,0,0,-2,-1,-1,-2
1514894086321021,0,-1,0,1,-1,-2,-1,0
1514894086321021,-2,-1,-1,-1,-1,-1,-2,-1
1514894086322525,-1,-3,-1,-2,-1,-1,-1,-3
1514894086322525,-1,-1,-2,0,0,-2,-3,-1
1514894086343035,-1,-2,-1,-1,0,-1,-1,0
1514894086343035,0,0,-1,0,-1,-2,0,-2
1514894086345036,0,1,0,-2,-2,0,-1,-2
1514894086345036,0,-3,-1,-1,-1,-1,0,-1
1514894086366055,0,-1,-1,-1,0,0,-1,-1
1514894086366055,-1,-1,1,-1,1,0,-1,-1
1514894086367554,-2,-1,-2,-2,0,-2,-1,-2
1514894086367554,-1,-2,-1,-1,-3,-1,-1,-2
1514894086382066,-2,-1,0,0,-2,-2,-2,-2
1514894086382066,-1,0,-2,-2,-2,-1,1,-1
1514894086383069,-1,0,0,0,-1,0,-2,-2
1514894086383069,0,-1,0,0,-1,0,-1,0
1514894086403080,-1,-2,0,-1,-1,-3,-2,-1
1514894086403080,0,0,-1,-2,-1,-1,-2,0
1514894086405081,-2,-1,-2,1,0,-1,0,0
1514894086405081,-2,-4,-1,-1,1,1,0,-1
1514894086417590,-1,-1,-1,0,-2,0,-1,-2
1514894086417590,-1,0,-1,1,-2,-2,-3,-1
1514894086426095,-1,-1,0,-2,-1,-2,-1,0
1514894086426095,-2,-1,-2,0,-1,0,-3,0
1514894086441108,-1,-2,-1,1,-1,1,-1,-2
1514894086441108,-2,1,-4,-1,-1,-1,-2,-1
1514894086442605,0,-2,-1,0,-2,-2,-1,-2
1514894086442605,-1,-2,0,0,0,-2,0,-1
1514894086463122,-3,-1,-1,-5,-2,0,0,-2
1514894086463122,-1,-1,0,-1,-2,-2,-1,0
1514894086464625,-2,-2,-2,-1,-1,-1,0,0
1514894086464625,0,-2,0,-2,-1,-1,1,-1
1514894086477131,-2,-1,-2,0,-1,-2,-1,-1
1514894086477131,-1,0,0,-2,-1,-1,-2,-1
1514894086485637,0,0,-2,-2,-1,-2,0,0
1514894086485637,-2,0,-1,-1,-1,-1,-1,-1
1514894086500648,-1,-1,-1,0,-1,-1,-1,-1
1514894086500648,-3,-1,0,-1,-2,0,0,-1
1514894086502147,-1,-2,1,0,0,0,-2,-2
1514894086502147,-1,-3,-2,-2,0,-1,-3,-2
1514894086523164,0,0,-2,-1,0,-1,-2,-1
1514894086523164,-1,0,-1,-1,-1,0,-1,-3
1514894086529669,-2,-1,-2,-2,1,-1,-1,0
1514894086529669,-1,-3,-1,-1,-2,0,-1,-3
1514894086536671,-1,-1,0,-1,-2,0,0,1
1514894086536671,-1,-1,-1,-1,-2,-2,-1,-1
1514894086546183,0,0,-3,-2,-1,0,0,-1
1514894086546183,0,-2,0,1,0,-1,0,-1
1514894086560690,-2,-2,-1,-2,-1,-1,0,1
1514894086560690,-2,0,-1,-1,-1,-1,-2,0
1514894086562692,0,0,-1,-2,-2,-3,-1,-2
1514894086562692,-2,-1,-2,-1,-1,-1,0,0
1514894086590712,-2,-1,-2,-1,-1,0,-1,-2
1514894086590712,0,0,-1,-1,0,-2,-1,-1
1514894086592211,0,-2,-3,0,-1,-1,-1,0
1514894086592211,-1,-2,0,-2,1,0,-3,1
1514894086597216,-1,-2,1,-1,-1,-3,-2,-2
1514894086597216,0,2,-1,-2,0,-3,-2,0
1514894086605721,-1,-1,-1,-1,-2,-2,0,-2
1514894086605721,0,-3,0,-1,-2,-2,-1,-2
1514894086620731,0,-1,-2,-2,-1,-1,0,-2
1514894086620731,0,-2,-1,0,-1,0,0,-1
1514894086622234,-1,-1,-1,-1,-1,-1,-1,0
1514894086622234,0,-3,-1,-2,-3,-3,-1,-2
1514894086643750,-2,-2,-1,-1,-2,-2,-2,-2
1514894086643750,1,1,0,-1,-2,-1,-1,-2
1514894086644756,-1,-1,0,-1,0,-1,-1,-2
1514894086644756,-1,-2,-1,-1,-1,0,-1,0
1514894086656756,-1,-1,-1,-1,0,1,-1,1
1514894086656756,0,-1,-3,-1,0,-1,2,1
1514894086666765,-1,-1,0,-2,-1,-1,1,-1
1514894086666765,-1,-2,0,0,-2,1,-1,-2
1514894086680775,1,-1,-2,-1,-2,-3,-1,-2
1514894086680775,-1,-1,-1,-2,0,-1,-2,-1
1514894086682276,-2,-1,-2,0,0,-1,-3,0
1514894086682276,-1,-2,-1,-2,-1,-3,1,-1
1514894086703291,-2,0,-1,1,-1,1,0,0
1514894086703291,-3,1,-3,-2,-1,0,1,0
1514894086705793,1,0,-1,-2,-1,1,2,-2
1514894086705793,-2,-2,-1,0,0,1,-1,-2
1514894086733311,0,-2,1,-1,0,-1,-2,-2
1514894086733311,-1,0,0,-2,-1,-1,-2,-1
1514894086734815,-2,-1,-2,-2,-2,-2,-2,1
1514894086734815,-1,-2,0,-1,-2,-1,-1,1
1514894086740817,0,-1,-1,0,0,-2,-1,-3
1514894086740817,-2,1,-2,0,-1,-3,-1,-3
1514894086742318,0,-1,-2,-2,-2,-2,-1,-5
1514894086742318,-3,-1,-2,-2,-2,-1,0,-2
1514894086763834,-2,1,-2,-1,-2,0,0,0
1514894086763834,-2,0,-1,-1,-3,-2,-3,-2
1514894086764835,-1,-2,-2,0,-1,-1,0,-1
1514894086764835,0,-2,0,-1,0,0,-3,-1
1514894086785350,-2,-1,-2,-2,-1,-1,-2,0
1514894086785350,1,0,0,-1,-1,1,-1,-1
1514894086787349,-2,-1,0,-1,-2,0,0,0
1514894086787349,-1,-1,-2,-1,0,-2,0,0
1514894086799857,-2,0,0,-2,0,-1,-1,0
1514894086799857,-2,-2,-1,0,-3,0,-1,-1
1514894086806862,-2,-1,-2,-1,-2,-1,-1,-1
1514894086806862,0,-1,-2,-1,-2,-1,-2,0
1514894086822873,0,0,-1,0,0,1,-1,-3
1514894086822873,0,0,-1,-2,-1,-2,0,2
1514894086824875,0,-2,-1,-2,-2,-1,-1,0
1514894086824875,-2,-2,-2,-3,-3,0,-2,0
1514894086845891,-1,0,0,0,-1,-1,-1,-1
1514894086845891,-1,-1,-2,1,1,-3,-1,0
1514894086847391,-1,-2,-1,-1,0,0,0,-1
1514894086847391,-2,-4,-1,0,-2,-2,-3,-2
1514894086859900,-2,-1,-1,-1,-1,-1,-1,-2
1514894086859900,-3,2,-1,-1,0,-1,0,-2
1514894086868414,-1,-1,-2,-3,0,-1,-3,-1
1514894086868414,-2,-3,-2,0,-1,-1,0,-2
1514894086883416,0,-1,-1,-1,-2,0,-2,1
1514894086883416,0,-1,0,0,-1,-1,1,-1
1514894086884918,0,-2,-2,-1,-2,-1,-1,-3
1514894086884918,0,0,-1,0,-2,-2,-2,-2
1514894086905432,0,0,-1,-2,-2,-1,-2,1
1514894086905432,-2,1,-1,-1,0,-2,-2,0
1514894086911937,0,-1,0,-1,0,-1,-1,-1
1514894086911937,1,-2,0,-2,1,-1,0,-1
1514894086919942,-3,-2,-1,-1,0,-1,-3,0
1514894086919942,-1,-1,-1,-1,-1,1,-1,-1
1514894086934453,-2,-1,-1,-1,-2,-1,-1,-2
1514894086934453,-1,-2,-1,-2,-2,1,0,-2
1514894086942959,-1,-1,-1,-1,0,-1,-1,-2
1514894086942959,-1,0,-1,-1,0,0,0,-1
1514894086944963,-1,0,-1,0,-1,0,-1,1
1514894086944963,-3,0,-1,-1,0,-1,-1,0
1514894086965474,0,0,-1,0,-2,-1,-1,-1
1514894086965474,2,-3,-2,-2,-1,-2,-1,0
1514894086966976,-1,-3,-1,-1,-1,-2,-1,-1
1514894086966976,-1,-3,-1,-1,-1,0,-1,-1
1514894086979985,-1,0,0,0,-1,-2,1,-1
1514894086979985,1,1,-1,-1,0,-2,0,-3
1514894086986990,0,-1,-2,-1,-3,0,-1,-2
1514894086986990,-1,-3,-1,-2,-1,-1,-1,0
1514894087010506,-2,-1,0,0,-1,-2,-2,-1
1514894087010506,-1,1,-1,-1,-2,-1,-2,0
1514894087012520,-1,-2,-1,-1,0,0,-2,0
1514894087012520,-2,-3,-2,-2,-1,-1,0,-1
1514894087026518,-1,0,-2,0,0,1,0,0
1514894087026518,-1,-2,-2,-3,0,-1,0,-1
1514894087029520,0,-1,-1,-1,-1,-1,-1,-1
1514894087029520,0,-2,0,-1,-1,0,0,-2
1514894087040027,-1,-1,-2,-2,-2,0,0,0
1514894087040027,-1,0,-3,0,-1,-1,-1,-3
1514894087046533,0,-1,-2,-1,0,-1,0,-3
1514894087046533,-2,-4,-1,0,-1,0,-3,-2
1514894087063543,0,-1,-1,-1,0,-1,0,-2
1514894087063543,-1,1,1,-1,-1,-1,0,-1
1514894087065047,-1,0,-1,-2,-2,-2,0,0
1514894087065047,-1,-1,0,0,-3,-1,0,-3
1514894087085572,-1,-1,0,-2,0,0,-2,-2
1514894087085572,0,0,-1,-1,-1,-2,-1,-1
1514894087087063,-1,-3,-1,1,-1,-1,-1,-2
1514894087087063,-1,-1,-1,0,-1,-1,-2,0
1514894087100079,-1,-1,-1,-2,-1,0,0,0
1514894087100079,-1,-1,-1,-3,0,0,-2,-1
1514894087107074,-2,-2,0,0,-1,-2,-1,-1
1514894087107074,-1,-3,-2,0,0,-2,-3,-1
1514894087123126,0,-1,-1,1,-1,-2,-1,-2
1514894087123126,-1,0,-1,0,0,-2,-2,-2
1514894087124606,-1,0,-3,-2,-2,-2,-1,-1
1514894087124606,-2,-2,-3,-1,-2,-1,1,-1
1514894087145604,-3,1,0,-1,0,-2,-1,-1
1514894087145604,-2,-1,-1,-1,-2,-1,-2,-1
1514894087147113,1,-1,-2,-2,-1,-1,-1,0
1514894087147113,-1,-1,-2,-1,0,-2,-1,-1
1514894087160115,0,-1,-4,-1,-1,0,-1,-3
1514894087160115,-1,2,-1,-2,-3,2,0,0
1514894087166629,-1,-3,0,-1,0,0,-2,-2
1514894087166629,-1,-3,0,0,-1,0,-1,-1
1514894087183141,-1,-1,-2,1,-1,-1,-2,-1
1514894087183141,-2,1,-3,0,0,-2,-1,1
1514894087184632,-2,-3,-1,0,-1,0,-1,0
1514894087184632,0,-4,0,-2,-3,-2,1,-1
1514894087205646,1,-2,0,-1,-3,-1,-1,-1
1514894087205646,0,-2,-2,-1,-1,0,-1,-2
1514894087207158,-1,-1,-2,-2,0,-1,-2,-1
1514894087207158,-2,-3,-2,-1,0,-1,-2,-1
1514894087219154,-2,-1,-2,-1,-2,-2,0,0
1514894087219154,0,2,-4,0,-2,0,-1,-1
1514894087228661,-1,-2,-2,0,-1,-1,0,-1
1514894087228661,-2,-3,0,1,-1,-1,-2,-3
1514894087243171,-1,1,1,-3,0,-3,1,-1
1514894087243171,-2,0,-1,0,-2,0,-1,0
1514894087244673,-1,-3,-2,0,-2,-3,-1,-2
1514894087244673,-1,-1,-2,-1,0,-1,-2,-1
1514894087273192,-2,1,-1,0,0,-1,-2,0
1514894087273192,-1,-1,-1,-1,0,-1,-1,-1
1514894087274693,0,-1,-1,-3,-2,-2,-1,1
1514894087274693,1,-3,0,0,-2,-1,0,-1
1514894087279698,-1,0,-1,-1,-2,-2,-3,0
1514894087279698,0,0,2,0,-1,0,-2,-1
1514894087288202,-1,-1,-1,-1,0,-2,-1,0
1514894087288202,0,-1,-1,-2,-1,-1,-2,-1
1514894087311234,-1,-1,-1,-1,-1,-1,1,-1
1514894087311234,-1,0,1,-1,0,0,-1,0
1514894087314731,0,-3,0,-2,-1,-1,-1,-1
1514894087314731,-2,-3,0,1,-1,0,0,-1
1514894087325739,-2,0,-1,-4,-2,1,0,0
1514894087325739,-2,-1,-3,-2,-1,0,-2,-2
1514894087327242,-1,-2,-1,0,-1,-1,-2,0
1514894087327242,-2,-1,-1,-1,-1,-1,-1,-1
1514894087339241,-1,0,-1,-1,0,-1,-1,-3
1514894087339241,-1,0,-1,1,-1,-3,-1,0
1514894087348257,-2,-2,-1,-3,-1,0,-1,-1
1514894087348257,-1,-2,-2,1,1,-1,-1,0
1514894087363256,-2,1,-1,0,-2,-1,-1,0
1514894087363256,0,1,-3,-3,-3,-2,0,-2
1514894087364757,1,-2,0,-1,-1,1,0,-3
1514894087364757,0,-2,-1,-2,0,-2,-3,-1
1514894087385772,1,-1,-2,0,-1,0,-1,-1
1514894087385772,-1,1,-1,-1,-1,-2,-1,0
1514894087387275,-1,-1,-3,0,-2,-1,-2,-1
1514894087387275,-1,0,-1,-2,-2,0,0,1
1514894087399291,-1,0,-2,-1,0,0,-1,-1
1514894087399291,-3,1,-1,-2,-3,-1,0,-1
1514894087408288,-3,-3,-2,-3,-1,-1,-1,-3
1514894087408288,-1,-4,0,-1,-1,-2,-3,-1
1514894087423311,-1,-2,-1,-1,0,-1,-1,-1
1514894087423311,-1,-1,1,0,-1,0,0,-1
1514894087424813,-1,-1,-1,-2,0,-1,-2,-1
1514894087424813,-2,-2,0,-1,-1,-2,-2,-1
1514894087445815,-1,0,-1,-2,-1,0,1,-1
1514894087445815,0,0,-2,-1,0,-3,-1,-1
1514894087447328,-2,-2,-2,-1,0,-2,0,-2
1514894087447328,1,-3,0,-2,-1,2,1,-2
1514894087459327,-1,-1,-1,0,-2,0,-1,-2
1514894087459327,-1,-1,-3,-2,0,-1,1,2
1514894087468330,-1,-2,0,1,-1,0,-2,-2
1514894087468330,-2,-2,-2,-1,-1,-1,-1,0
1514894087490846,-1,0,-1,-1,-1,-1,-3,-2
1514894087490846,0,1,-2,-1,-2,-1,-1,-2
1514894087492357,0,-1,-2,-1,-1,0,0,-1
1514894087492357,-1,-2,-1,0,-1,-1,-2,-1
1514894087521367,-1,0,-2,-2,-1,-1,-1,0
1514894087521367,0,2,1,-1,-2,-1,-2,-1
1514894087522869,-1,-3,0,-1,-1,-1,-1,0
1514894087522869,-1,-2,0,-2,-2,0,-1,0
1514894087524871,-2,0,-1,-2,0,-2,-1,-2
1514894087524871,-1,0,0,-3,-1,-1,-1,-1
1514894087528373,-1,1,-1,-1,-1,-1,0,-1
1514894087528373,-1,-4,-2,0,-2,-2,-1,-2
1514894087543884,-1,0,-1,0,-1,-2,-2,0
1514894087543884,-3,-1,0,0,-1,-2,-1,-3
1514894087545386,-1,-2,-1,-1,-1,-1,-1,-1
1514894087545386,-3,-3,-1,-2,-2,-2,-1,0
1514894087565899,0,-1,1,-2,-1,-1,-1,-1
1514894087565899,-1,1,-2,-2,-1,-2,0,-1
1514894087567900,-2,-2,-1,0,-2,-2,-3,-1
1514894087567900,0,-2,-2,-2,0,-1,0,-2
1514894087579424,-2,0,-1,-3,-1,-1,0,0
1514894087579424,-1,0,-1,-3,-2,0,-1,0
1514894087588415,0,-2,-1,-1,-2,-1,-1,0
1514894087588415,-2,-2,-1,0,-2,1,-1,-1
1514894087602935,0,0,-2,-1,-3,-2,-1,-2
1514894087602935,0,-1,-2,-2,0,-2,-1,-2
1514894087604929,-3,-2,-1,-1,0,-1,0,-1
1514894087604929,0,-3,-2,-1,0,-2,-1,-1
1514894087625441,-1,0,-2,-1,-1,1,0,0
1514894087625441,-2,2,-2,0,-1,-1,-1,-1
1514894087627443,0,-3,-2,-1,0,0,0,-1
1514894087627443,-1,-3,0,0,-1,-2,0,-2
1514894087647970,-1,1,0,0,-3,-1,-1,-1
1514894087647970,0,0,-1,-2,-2,-3,-1,0
1514894087649961,-1,-2,0,-1,-1,0,0,-1
1514894087649961,-3,-3,1,-1,0,-1,0,-1
1514894087670473,0,-1,-3,0,0,-2,-1,-1
1514894087670473,-1,-2,-2,-1,-2,-1,0,-1
1514894087672474,-1,-4,-1,-2,-1,-3,-1,-1
1514894087672474,-1,-3,-1,-1,-2,-1,-1,-1
1514894087685483,-2,3,-1,-2,0,-1,-1,-1
1514894087685483,-1,0,-1,-1,-2,0,-1,-1
1514894087686984,-1,-3,-1,-1,-1,-2,-1,-1
1514894087686984,0,-2,-1,-1,-2,-2,-1,0
1514894087708014,-1,-1,-2,0,0,-3,0,0
1514894087708014,0,0,0,0,-1,0,0,-1
1514894087710005,-2,-1,0,-2,0,0,-1,-1
1514894087710005,-1,-2,0,-3,1,-1,-1,-1
1514894087723035,-1,1,-2,-2,-2,0,-1,0
1514894087723035,1,1,-2,-1,0,-1,-1,-1
1514894087724512,-2,-2,-3,-1,0,-1,0,0
1514894087724512,-3,-3,0,0,0,-1,-2,-1
1514894087745526,-1,-1,1,-2,0,0,-1,-3
1514894087745526,-1,0,-1,-3,-1,0,-1,-2
1514894087747043,0,-2,0,0,-3,-2,0,-1
1514894087747043,-1,-5,1,0,-1,-1,0,0
1514894087768051,0,0,-1,0,0,-1,-1,-1
1514894087768051,-2,0,-1,0,0,-3,-1,0
1514894087769544,-1,-1,-1,-1,-2,-1,-1,0
1514894087769544,-2,-1,-3,0,-2,1,-3,-1
1514894087790570,0,-2,-2,-2,-1,-2,0,-1
1514894087790570,-1,1,-2,-2,-1,-1,0,0
1514894087793070,0,-3,-2,-1,0,-2,-1,-2
1514894087793070,0,-3,-1,0,-2,-1,0,-1
1514894087805569,0,-1,-1,0,-3,0,0,-1
1514894087805569,0,2,-2,-1,-1,-2,0,-1
1514894087807070,0,-3,-1,-1,-1,0,-1,0
1514894087807070,-2,-3,-2,-1,-2,-1,-1,0
1514894087828085,-2,1,0,-1,-1,-1,-2,-1
1514894087828085,1,1,-1,-1,0,-3,-2,1
1514894087829586,-1,-1,-2,-1,-3,-1,-2,-1
1514894087829586,0,-1,-1,-2,0,0,-1,-2
1514894087842612,1,0,0,0,-1,-2,0,-2
1514894087842612,-2,0,-2,-2,-3,1,-2,-3
1514894087849116,0,-2,-1,-1,0,-2,-1,0
1514894087849116,-1,-3,0,-1,-1,-2,-1,-1
1514894087865621,-1,0,0,-1,-2,-2,-2,-1
1514894087865621,-2,2,-1,-1,-2,0,-1,-1
1514894087867122,0,-3,-1,-1,-2,0,-1,0
1514894087867122,0,-3,-2,-1,0,-2,0,0
1514894087888127,-2,-1,0,-1,-2,-2,1,-1
1514894087888127,1,-1,-2,-2,-2,-1,-1,-1
1514894087890629,-2,-2,-1,-1,-1,1,-2,-1
1514894087890629,-2,-2,-2,0,-1,-2,0,-1
1514894087902637,-3,0,-3,-1,0,-3,1,-1
1514894087902637,-2,0,-3,0,-1,-2,-1,-2
1514894087909642,0,0,-1,0,-2,0,-1,-2
1514894087909642,0,-2,-1,-2,1,1,-2,-1
1514894087933159,-1,-1,-2,-1,0,1,-1,0
1514894087933159,0,-1,0,-1,-2,-3,0,-1
1514894087934660,-1,-3,-2,-1,-2,0,1,-2
1514894087934660,-3,-3,-1,-1,-2,-1,-1,-2
1514894087948183,-1,1,0,-1,-1,-1,-2,0
1514894087948183,1,0,-1,-1,-1,-2,-1,1
1514894087949683,-1,-2,0,-2,-2,0,-1,-2
1514894087949683,0,-1,-1,-2,0,0,-1,-1
1514894087963180,1,1,-2,-2,0,-1,-2,-1
1514894087963180,0,1,-1,-1,-2,-1,1,-2
1514894087976698,1,-2,0,-2,1,-2,-1,0
1514894087976698,-1,-2,0,-2,-2,0,0,1
1514894087985705,-2,0,-2,0,-2,1,-1,-1
1514894087985705,-3,0,0,-3,0,-2,0,0
1514894087987197,-1,-3,-2,-2,-1,-1,-2,-1
1514894087987197,-2,-3,-2,0,0,-2,-1,-2
1514894088008229,-1,0,0,-3,-1,0,-2,-2
1514894088008229,-1,0,0,-1,0,0,0,0
1514894088009722,-2,-1,0,1,-1,-2,-2,-1
1514894088009722,2,-2,-2,-1,-1,-2,0,-2
1514894088022722,-1,-1,0,-1,-2,-1,-2,-3
1514894088022722,-1,0,-1,-2,0,-1,0,-1
1514894088030228,-1,-3,1,-1,-1,-2,0,-1
1514894088030228,-3,-4,0,-1,-1,-2,-1,0
1514894088045753,1,0,0,0,-1,-1,1,0
1514894088045753,0,1,-2,0,-3,-4,-2,0
1514894088047252,0,-2,-1,-1,-2,1,-1,-1
1514894088047252,-1,-2,0,-1,-1,-1,-1,-1
1514894088068266,-1,0,0,-2,0,-1,0,-1
1514894088068266,-2,1,-3,-2,-1,1,-1,-1
1514894088070765,-1,-1,0,-1,0,-1,-2,0
1514894088070765,-3,-2,-1,0,1,-1,-2,0
1514894088081763,-1,-3,-1,0,-1,-3,-2,0
1514894088081763,-2,1,-1,-3,-1,-1,0,0
1514894088090770,-2,-2,-1,-1,-1,-2,-2,-2
1514894088090770,-1,-1,0,-3,-2,1,-2,-2
1514894088105780,0,0,0,0,-2,-2,-2,-1
1514894088105780,-1,0,0,-1,-3,0,-1,-1
1514894088108302,-1,-3,-1,-2,1,-3,-1,-1
1514894088108302,-1,-2,-1,-1,0,-1,-1,1
1514894088128296,-1,1,-1,-3,0,0,0,0
1514894088128296,0,-1,-1,0,-2,-3,-1,0
1514894088129798,-3,-2,-1,0,-1,1,-1,-1
1514894088129798,-2,-1,-3,0,-2,-1,0,-1
1514894088141806,-1,-2,0,-1,-2,-1,-1,-1
1514894088141806,0,-1,-2,-1,-1,-3,-1,0
1514894088150817,-1,-3,-1,-2,0,-2,0,-1
1514894088150817,-1,-4,0,-1,-1,-1,-1,-1
1514894088165822,-2,0,-2,-2,-1,-2,-2,-2
1514894088165822,0,1,-1,-1,-1,-1,0,-1
1514894088167326,-1,-2,-2,-2,2,-2,-2,-1
1514894088167326,0,-1,-2,1,-1,0,-2,-1
1514894088188338,-1,1,-2,0,0,0,0,0
1514894088188338,-1,0,0,-1,-2,1,-2,-2
1514894088189840,0,-3,-2,-1,-3,-1,1,-2
1514894088189840,0,-3,-1,0,-2,-2,0,0
1514894088201849,0,-1,-3,-2,-2,-2,0,-3
1514894088201849,0,0,-2,-1,-1,-1,-3,-1
1514894088210854,-1,-1,0,-1,-2,0,0,-1
1514894088210854,-2,-2,-2,-1,-1,-2,0,-3
1514894088225866,-2,0,-1,-3,-2,0,-1,-1
1514894088225866,-1,1,-1,-2,0,-2,-1,-1
1514894088227366,-2,-4,-1,-1,-1,-2,-2,0
1514894088227366,0,-1,-1,-1,-1,0,-2,-4
1514894088247386,-1,0,-2,-1,-1,-2,-1,1
1514894088247386,1,-1,0,-2,0,-1,-1,-3
1514894088255886,-1,-2,-3,0,0,-1,-1,-1
1514894088255886,-1,-2,-2,-1,-1,-1,0,-2
1514894088261891,-2,1,-2,1,-2,0,0,0
1514894088261891,-2,1,-1,-2,1,0,-1,1
1514894088270897,-1,-1,-1,-1,-1,1,-1,-1
1514894088270897,-1,-2,1,-2,-2,0,-1,0
1514894088285407,-1,1,0,-1,-1,0,-1,-2
1514894088285407,-2,1,-3,2,0,-2,0,-3
1514894088287408,-1,-2,-2,-1,-2,0,0,-3
1514894088287408,0,-2,0,-1,-2,-1,-1,0
1514894088315428,-2,-3,1,-1,-2,-1,-2,2
1514894088315428,-1,1,-2,-2,-3,-2,1,0
1514894088317430,-1,-2,-2,-1,-2,-1,-1,0
1514894088317430,0,-1,0,-1,-1,0,-1,-3
1514894088321933,-2,0,-1,-2,-1,-1,0,1
1514894088321933,-2,-2,-1,-2,-2,-1,-2,-1
1514894088332941,-1,-3,0,-2,-1,-3,-2,0
1514894088332941,-2,-3,-1,0,-2,-1,-1,0
1514894088345951,-1,1,-2,2,-1,-1,0,-2
1514894088345951,0,1,-2,-2,-2,-1,1,-1
1514894088347451,0,-1,0,0,0,-2,0,1
1514894088347451,-3,-2,0,-3,0,0,-1,-1
1514894088367991,0,0,-1,-1,1,-2,0,0
1514894088367991,-1,0,-1,0,-1,-1,-2,-2
1514894088369500,0,-3,0,2,-2,0,-1,-2
1514894088369500,-3,-2,-3,-1,0,-2,-1,-1
1514894088382000,-2,1,1,-3,-1,-1,-2,-2
1514894088382000,-2,1,0,-1,0,-1,-3,-2
1514894088397011,-2,-2,-2,-1,0,-1,-2,-1
1514894088397011,-1,-2,0,-1,-1,-1,-1,0
1514894088405517,0,-1,-3,-1,-2,-1,0,0
1514894088405517,-1,1,-1,-2,-1,-1,-1,-1
1514894088407018,-2,-1,0,-2,-2,-1,0,-2
1514894088407018,-1,-2,0,1,-1,-2,0,-1
1514894088428548,-1,0,-1,-2,-1,-1,-2,-2
1514894088428548,-1,0,1,-1,-1,-1,-1,-3
1514894088430035,-1,0,-1,-1,1,-2,-1,0
1514894088430035,-2,0,-3,-1,0,-1,-1,0
1514894088441552,0,-1,-1,-2,-1,-1,-3,0
1514894088441552,-2,-1,-2,-1,-1,-2,0,1
1514894088450550,-1,-2,-3,-1,-1,-2,-1,-1
1514894088450550,-2,-2,-1,0,-1,-1,0,-1
1514894088465605,1,0,-3,-1,1,-1,0,-3
1514894088465605,0,0,-2,-1,-2,0,-2,-2
1514894088467607,-1,-1,0,-2,-2,1,0,0
1514894088467607,-1,-3,-1,-1,-2,-2,-2,-2
1514894088489130,-1,0,-1,-2,-1,0,0,-1
1514894088489130,-1,-2,-1,-2,0,0,0,-2
1514894088490645,-2,-3,-2,-1,-1,-1,-1,0
1514894088490645,-1,-2,-1,-1,0,0,-2,0
1514894088501630,-1,-2,0,0,0,-1,-1,-1
1514894088501630,-1,-1,-1,0,-2,-2,0,3
1514894088512640,-2,-1,-1,0,-2,-2,0,-2
1514894088512640,-1,-2,-1,0,-1,1,-1,0
1514894088525650,-2,0,-2,1,-2,-1,0,-2
1514894088525650,-1,-1,0,-3,-2,-1,-1,0
1514894088527148,-2,-3,-2,-2,-2,-1,-3,-1
1514894088527148,-1,-2,0,-1,0,-2,-4,0
1514894088548162,-1,0,-1,-1,-1,-2,-1,0
1514894088548162,-2,0,-1,0,-1,-1,0,-3
1514894088549674,-1,-1,-2,-2,0,1,-1,-1
1514894088549674,-3,-1,-1,-1,-1,-1,-1,-1
1514894088570691,0,0,-2,-1,-2,-1,0,-1
1514894088570691,-2,0,-1,-3,-1,-2,-1,0
1514894088572192,1,-2,-1,-2,-2,-2,-1,-2
1514894088572192,0,0,0,0,-2,0,0,0
1514894088585690,0,1,0,0,-1,-1,-1,-1
1514894088585690,-1,0,-3,0,-1,-2,-3,-1
1514894088587190,-1,-1,0,-1,-1,-1,-1,-1
1514894088587190,-2,-1,-1,0,0,-1,0,-1
1514894088609205,-1,0,0,0,-1,-4,-1,-1
1514894088609205,0,0,-3,1,1,-2,-1,1
1514894088612708,0,-2,-1,0,-2,-2,-1,0
1514894088612708,-2,-2,-1,-2,-1,-1,-1,-1
1514894088630727,0,-2,-1,-2,0,-1,1,-2
1514894088630727,-1,-2,-1,-2,0,-1,0,-1
1514894088632224,-1,-1,0,1,-1,-1,-1,-1
1514894088632224,0,-3,-1,-1,-2,-1,-1,-2
1514894088645732,-2,-3,-1,1,0,-2,-3,-1
1514894088645732,-1,-2,-1,-2,-1,-1,-2,0
1514894088647232,-1,-1,1,-1,-1,0,-1,1
1514894088647232,-2,0,-1,-1,-2,0,-1,-2
1514894088675760,-1,0,-1,-2,-1,-1,-1,-1
1514894088675760,-2,3,-2,-1,-1,-1,-2,-2
1514894088679255,-2,-1,-2,-1,0,0,0,0
1514894088679255,1,-1,-3,-2,0,-1,-2,1
1514894088691263,-1,0,0,-2,0,-1,-1,0
1514894088691263,0,-1,0,0,-2,-1,-1,-1
1514894088692765,-2,-2,0,0,0,0,-2,-4
1514894088692765,0,-2,0,0,-1,1,0,0
1514894088705786,-1,2,-3,0,0,-1,-1,-3
1514894088705786,-1,0,0,0,-1,1,2,-2
1514894088707285,-1,-2,-2,-1,-1,-1,0,-1
1514894088707285,-2,0,0,-1,-1,-2,0,-1
1514894088729316,-2,2,-1,-2,0,0,-1,-1
1514894088729316,1,0,-1,-1,-2,-1,0,-1
1514894088732808,-1,-2,-2,0,0,-1,-2,-2
1514894088732808,1,-1,-3,0,-1,0,-1,-1
1514894088750819,-1,-1,-1,-1,-2,-2,0,-1
1514894088750819,-2,0,-2,-2,-1,0,0,-1
1514894088752330,-1,-1,-2,0,-1,0,-1,-1
1514894088752330,-2,-2,-1,-3,-1,-1,0,-1
1514894088764816,-2,1,-3,-1,0,-1,-3,0
1514894088764816,0,-1,-2,-2,0,-1,-2,-2
1514894088771824,-1,-3,0,1,-1,-1,1,-1
1514894088771824,-1,0,-1,1,-1,-2,-1,-1
1514894088788332,1,0,-1,0,-3,1,1,-1
1514894088788332,-1,-3,0,-1,-1,-2,-3,-1
1514894088790846,-1,-2,-1,-2,-3,0,-1,-2
1514894088790846,-3,-1,-1,-1,0,-2,-2,-3
1514894088811358,-1,-1,0,-1,-1,-2,-4,-2
1514894088811358,-1,-1,-2,-2,-2,-2,0,-1
1514894088814851,-2,-2,-1,1,-1,-1,-2,-1
1514894088814851,-1,0,0,-1,0,1,0,-2
1514894088824858,0,0,-2,-2,-1,-2,-1,0
1514894088824858,0,-3,-1,-1,-1,-2,0,1
1514894088831875,-1,-3,0,-2,1,0,-1,0
1514894088831875,-1,-2,0,-1,-2,0,-2,0
1514894088848375,0,-1,-2,0,-2,-1,-1,-2
1514894088848375,-1,-3,-3,-1,-1,-1,-2,0
1514894088849876,1,-3,-1,-2,0,-2,1,0
1514894088849876,-1,0,1,-1,-1,-1,-1,-1
1514894088870390,-2,0,0,-1,-2,-1,0,-2
1514894088870390,-1,-2,-2,1,-2,0,0,0
1514894088872392,-2,-3,-1,-1,-1,-1,-2,-1
1514894088872392,0,-1,0,-1,1,1,0,1
1514894088885911,-2,0,-1,-1,-2,0,-2,0
1514894088885911,1,0,-1,-2,0,0,-1,1
1514894088892416,-1,-2,-2,0,-3,-2,-1,-2
1514894088892416,-1,-2,-2,0,-1,-1,-2,-3
1514894088908417,0,-1,-1,-3,-2,1,-1,0
1514894088908417,2,-1,0,-1,0,-1,0,-1
1514894088909928,1,-2,-1,-2,-2,0,0,0
1514894088909928,-3,-1,0,0,-2,-2,-1,-1
1514894088930447,-2,0,-3,-1,1,-2,0,-1
1514894088930447,-2,1,-1,-1,-2,1,-3,-1
1514894088932444,-3,-2,0,-1,-2,-1,-3,1
1514894088932444,-1,-1,-1,-1,0,0,-1,-1
1514894088944453,-2,0,1,-1,0,-1,0,-1
1514894088944453,-1,0,-1,0,-1,-1,1,0
1514894088953449,-1,-1,0,-2,-3,-1,-2,-1
1514894088953449,-1,-1,-1,-1,-2,-2,1,-2
1514894088967959,1,1,1,-1,1,0,0,0
1514894088967959,-1,-2,-3,-1,-2,-2,-2,-1
1514894088970965,-1,-3,0,-1,-1,-1,0,-2
1514894088970965,-1,-3,-2,-1,0,0,-2,2
1514894088990484,-1,0,-2,-2,-1,0,-1,0
1514894088990484,0,-1,-1,-2,0,-3,-2,-3
1514894088991986,-1,-2,-1,0,-1,-1,-3,0
1514894088991986,-1,0,0,-1,-2,-1,-2,-3
1514894089004986,0,0,0,-2,-2,-1,-1,-1
1514894089004986,-1,-1,-1,-3,-1,-1,-1,-1
1514894089012491,-2,-4,-3,-2,1,1,1,0
1514894089012491,-1,-1,-2,-2,-1,-1,0,0
1514894089028504,-1,0,-2,-2,-1,-1,-2,1
1514894089028504,-2,-2,0,-1,-3,-2,-1,-1
1514894089030005,0,-2,-2,-1,-1,-3,-3,-1
1514894089030005,-1,-1,-1,0,-1,-2,-1,-1
1514894089051018,0,-1,-1,0,-1,-3,-1,0
1514894089051018,-1,0,-1,0,-2,-1,-1,-1
1514894089052519,-2,-1,1,1,-1,-2,0,-2
1514894089052519,-2,0,-1,0,-1,0,-1,-2
1514894089064028,-1,-1,-2,0,-2,-1,0,-2
1514894089064028,-2,-2,1,-2,2,0,-1,-1
1514894089073034,-1,-2,-2,0,-1,-2,-2,0
1514894089073034,-2,0,-1,-2,-1,-1,0,0
1514894089088544,1,2,-1,-1,0,-1,-2,1
1514894089088544,0,-3,-4,-2,0,-1,1,-2
1514894089090046,-1,-1,0,1,-2,0,-1,-2
1514894089090046,-3,1,-3,1,-2,-1,-1,-1
1514894089110579,-2,0,-1,-1,-2,-2,0,-2
1514894089110579,-1,-1,-1,-1,-2,-1,-1,0
1514894089114072,-1,-1,-1,-1,-1,-1,-1,-1
1514894089114072,-1,-2,-1,0,-1,-1,-1,-1
1514894089124070,-1,0,0,-1,0,0,-1,0
1514894089124070,-1,-3,-3,0,-2,-2,1,-1
1514894089133077,-2,-2,-1,0,0,0,-2,0
1514894089133077,-3,1,-1,-1,-2,-2,-2,0
1514894089155604,-1,-1,-2,-2,-1,0,-2,-1
1514894089155604,-1,-1,0,0,-1,0,0,-2
1514894089157094,-2,-4,-2,-2,-2,-1,1,0
1514894089157094,0,-1,-2,-2,-1,0,-1,-1
1514894089170613,-1,-1,-1,-1,1,-3,1,0
1514894089170613,-1,0,-1,-1,-1,-2,-2,0
1514894089172114,-1,-2,-1,-2,-1,-1,-2,-1
1514894089172114,-1,0,1,1,0,-1,-2,-1
1514894089184122,-1,1,-1,-1,-1,-2,-2,-3
1514894089184122,0,-2,0,0,-2,1,-1,-1
1514894089200624,-2,-1,-2,0,1,-1,0,-2
1514894089200624,0,-2,-1,0,-2,-1,-2,-1
1514894089207129,0,2,-2,-1,-2,-1,0,-1
1514894089207129,-1,-1,-2,-1,-1,-3,-2,-2
1514894089217135,-1,-2,-1,0,-2,-2,-1,0
1514894089217135,-1,0,-2,0,0,-1,0,-1
1514894089230646,-1,0,-2,0,-1,-1,0,-1
1514894089230646,0,-3,1,-1,1,0,0,-2
1514894089236650,0,-1,-1,0,-2,-1,0,0
1514894089236650,-1,1,-1,-2,0,-1,-1,0
1514894089244164,-2,-1,-2,-1,-2,1,-1,-1
1514894089244164,-2,-1,-2,-1,-3,-2,-2,0
1514894089260667,-2,-2,-2,-2,1,-1,1,-1
1514894089260667,-1,0,-1,-1,0,-1,-2,-2
1514894089268171,-1,0,-1,0,-2,-1,-1,-1
1514894089268171,-1,-2,-1,-1,-2,1,-2,-2
1514894089270673,0,-4,-2,-2,-3,1,-1,-3
1514894089270673,0,-2,-1,-1,-1,-3,-1,1
1514894089290687,0,0,0,-2,-1,-3,0,0
1514894089290687,-2,0,-1,0,-1,-1,0,0
1514894089292188,-1,-1,0,-2,-1,-1,-1,-1
1514894089292188,-1,-1,-1,-1,-1,-1,0,-2
1514894089304197,1,-1,-1,0,0,0,-1,-1
1514894089304197,-2,-2,0,-2,0,-2,-1,-1
1514894089314705,-1,-1,-1,-1,-1,-2,0,-1
1514894089314705,-1,0,-1,1,-1,-2,-1,-1
1514894089328214,0,-1,0,0,-1,-3,-1,-2
1514894089328214,0,-2,-1,-2,-1,-1,-2,-1
1514894089329716,-1,-1,0,-2,-2,-1,-2,-1
1514894089329716,-2,0,-1,-2,0,-1,0,2
1514894089350739,-1,1,-1,-2,-1,0,-2,-1
1514894089350739,1,-1,-1,-1,-2,-2,-1,-1
1514894089352241,-3,-4,1,-2,-1,-3,-1,0
1514894089352241,-1,0,1,-1,-1,-2,0,-2
1514894089373746,-2,1,-1,-2,-2,-1,1,-1
1514894089373746,-1,-1,-1,-1,-1,-1,0,-1
1514894089375247,-1,-2,-1,-1,0,-1,-2,-2
1514894089375247,-1,-2,0,-1,-3,-1,-2,-1
1514894089388257,0,3,-1,-1,-2,0,-2,1
1514894089388257,1,0,0,-1,-1,-2,0,0
1514894089389770,-2,-1,-1,-1,-1,-2,0,-1
1514894089389770,-2,-1,-3,0,-2,2,0,-2
1514894089410772,-1,-1,-1,-3,-1,-1,-1,-1
1514894089410772,-2,-1,-1,-1,0,0,-1,-1
1514894089414284,0,-1,-1,-1,0,-1,-1,-1
1514894089414284,-1,-1,-3,-2,-1,-1,-1,0
1514894089424292,-2,-1,-1,-1,-2,-1,1,0
1514894089424292,-1,-3,0,-2,0,-1,-1,-1
1514894089433298,0,-3,1,-1,0,0,-2,-1
1514894089433298,-1,0,-2,-2,0,-1,-1,-2
1514894089448309,-2,0,-2,-1,-2,-3,-1,-2
1514894089448309,0,-1,0,-2,0,0,-1,-1
1514894089449810,-1,-2,-1,-1,-1,0,-2,-1
1514894089449810,-1,0,1,-2,-2,-1,0,-1
1514894089470815,0,2,-1,-1,-1,-2,0,0
1514894089470815,-1,-2,-3,0,-2,-1,0,-2
1514894089472316,-1,-3,-3,0,-2,2,0,-1
1514894089472316,-1,-1,-1,-1,-1,0,0,-4
1514894089493346,-1,0,1,0,1,-3,-2,0
1514894089493346,-2,-1,0,-2,-2,-1,-2,0
1514894089494832,-1,-3,-1,-2,-2,-3,-3,0
1514894089494832,-2,0,-2,-1,-2,-2,-2,-1
1514894089508841,-1,0,-1,-1,0,-2,0,1
1514894089508841,1,0,0,0,-1,-2,-1,0
1514894089512361,-1,-3,0,-1,-1,0,-1,1
1514894089512361,-1,3,-1,0,0,-1,0,0
1514894089530857,-1,0,-2,0,-2,1,-1,-2
1514894089530857,-1,-3,-3,-2,-1,0,0,-1
1514894089532359,-1,-3,-2,-1,-1,-1,-1,-1
1514894089532359,0,-1,-1,-2,-2,-1,0,-1
1514894089560381,-1,-1,-2,-2,-1,-2,-1,-1
1514894089560381,-3,-2,-1,-2,-1,0,-1,-2
1514894089562380,-1,-3,-1,0,0,-2,-1,-2
1514894089562380,-1,-2,0,-1,-1,-3,-2,0
1514894089567883,0,1,-1,-1,-3,-3,-2,-3
1514894089567883,-1,-2,-1,-1,1,-2,-1,-1
1514894089569885,-1,-2,0,-1,-2,-1,-2,-1
1514894089569885,0,1,1,0,-2,-2,-1,-1
1514894089590399,-1,0,1,-3,-1,-1,-2,1
1514894089590399,-1,-2,-1,-1,-2,-1,0,-1
1514894089592413,-1,-1,-2,-1,1,-1,0,-2
1514894089592413,-2,-1,-1,-2,0,0,-2,-1
1514894089614418,0,1,-1,-1,-1,1,0,-1
1514894089614418,-1,-1,1,0,0,0,-1,0
1514894089617919,-1,-2,0,-3,-2,-1,0,1
1514894089617919,-1,2,-3,-1,-2,-2,-2,0
1514894089635443,-1,1,-1,-1,0,-1,-1,0
1514894089635443,0,-4,-2,0,-1,-2,-3,-3
1514894089636932,0,-3,-1,-1,-2,1,-2,-2
1514894089636932,-1,1,0,-2,-1,-1,-2,0
1514894089650442,0,1,-2,-2,-2,-1,-1,-1
1514894089650442,-1,-2,-2,1,-4,-3,-2,-1
1514894089652443,-2,-4,-2,0,-2,-1,0,-2
1514894089652443,0,-1,-1,0,-1,0,0,-2
1514894089680477,0,-1,-1,-2,-1,-1,-1,-1
1514894089680477,-1,-2,-2,-3,-1,0,-1,0
1514894089682475,0,-2,-1,0,-2,0,-1,-1
1514894089682475,-2,1,-2,-3,0,0,0,1
1514894089687468,-2,1,-2,-1,1,-3,0,-2
1514894089687468,-1,-2,-2,-2,1,-2,0,-1
1514894089701487,-3,-2,-2,-1,-1,-1,0,-1
1514894089701487,0,-2,-2,0,-1,0,-1,-2
1514894089710485,-1,1,-1,-3,-1,-1,-2,-1
1514894089710485,-2,-3,-4,-2,-1,-1,-1,-1
1514894089712491,0,-1,-1,-2,-3,-2,-1,-2
1514894089712491,0,0,-1,-1,-1,-2,-2,-3
1514894089733010,-1,0,-1,1,-1,0,-1,-3
1514894089733010,0,-3,-1,0,0,-2,-2,-2
1514894089734501,-2,-2,-2,-3,-1,-2,-1,0
1514894089734501,-2,0,-2,-1,-1,-2,1,-1
1514894089747511,-3,1,-1,-1,-2,0,0,-1
1514894089747511,-1,-1,0,-2,-1,-1,-2,0
1514894089754015,0,-4,0,-2,-2,-1,0,-1
1514894089754015,-2,0,-1,-1,-1,-1,-2,-1
1514894089770526,-1,0,-2,0,-1,-1,-1,1
1514894089770526,-1,-3,-2,0,-1,0,-1,-2
1514894089772028,-4,-3,-2,1,0,-3,-1,0
1514894089772028,-1,-1,-2,0,-2,-1,-2,-1
1514894089793042,0,0,-1,0,0,-1,0,0
1514894089793042,-1,-3,1,-2,-2,1,-2,0
1514894089794543,-1,-3,0,0,-2,-1,-2,-1
1514894089794543,0,0,-1,-1,-3,-1,-2,-2
1514894089807553,-1,-1,-2,-2,-3,-2,-3,-1
1514894089807553,-2,-2,0,0,-2,-1,-2,-1
1514894089815058,0,-1,-2,0,1,-1,-3,-3
1514894089815058,-2,-2,-2,-1,0,-2,0,0
1514894089830568,0,3,-2,-1,-1,-1,0,0
1514894089830568,0,1,-2,0,0,-1,1,-2
1514894089832081,-1,-3,0,0,-1,0,0,-1
1514894089832081,0,1,-1,-1,0,0,-1,-1
1514894089853095,-1,2,-2,0,0,-1,-1,0
1514894089853095,-1,-4,-3,0,-2,-2,-2,0
1514894089854587,-2,-4,0,-1,-1,1,0,1
1514894089854587,-1,-1,-2,0,-1,-2,-1,-1
1514894089867596,-1,0,0,-1,0,-2,-2,-1
1514894089867596,-1,0,0,-1,-1,0,0,-1
1514894089874100,-1,-2,-2,-1,-1,-1,-1,-1
1514894089874100,0,0,-1,-2,1,-1,-1,0
1514894089890623,0,1,0,-2,-1,-1,-2,0
1514894089890623,-1,-2,-1,-1,0,-1,-1,0
1514894089892122,-2,-3,-1,-2,0,-2,-3,-1
1514894089892122,1,0,-2,-3,-4,-2,-1,-1
1514894089912627,2,0,-2,-2,-3,-3,-1,-1
1514894089912627,0,-1,-1,-1,-2,-1,0,-1
1514894089921142,-2,-1,-1,1,-1,0,-1,-2
1514894089921142,-3,-2,-1,-1,0,-1,0,1
1514894089927652,-2,1,-2,0,-2,-2,0,-2
1514894089927652,-2,-2,-2,-2,-2,-1,0,0
1514894089934142,-2,-2,-2,0,0,-2,-1,-1
1514894089934142,-2,-1,-1,0,0,0,-2,-1
1514894089951154,-2,0,-1,0,-1,-3,1,-1
1514894089951154,0,-1,-2,-2,0,-1,-2,-1
1514894089952655,0,-2,-2,-1,-1,-2,-1,-1
1514894089952655,1,3,0,0,-1,-1,1,-1
1514894089973176,0,2,0,-3,0,-1,-1,-1
1514894089973176,1,-1,-1,-1,2,1,-1,0
1514894089974672,-2,-4,-1,-1,-1,-1,0,-1
1514894089974672,-2,0,0,-2,-2,-1,0,-3
1514894089986689,-2,-2,-2,-3,-1,0,0,-1
1514894089986689,-1,-4,0,-1,-3,-1,-1,-1
1514894089996688,0,0,0,-2,0,-2,-2,-1
1514894089996688,-1,1,-2,1,-2,-1,-2,0
1514894090010706,0,2,0,-2,0,0,-1,-2
1514894090010706,-1,-3,-2,0,0,-2,-2,-2
1514894090012211,-1,-4,-1,-1,-2,0,-1,-2
1514894090012211,-2,0,-1,0,-1,-2,-1,-2
1514894090033224,-2,1,0,0,-1,-3,0,-1
1514894090033224,0,-2,0,0,-2,-1,-2,1
1514894090034725,-1,-2,0,2,0,0,0,-2
1514894090034725,-1,4,-1,-1,0,1,0,0
1514894090046722,0,0,-3,-1,-2,-2,0,-1
1514894090046722,-3,-1,0,0,0,-1,0,-2
1514894090063234,-3,-3,-2,-1,-2,0,-1,-2
1514894090063234,-1,-1,-1,-3,-1,-2,0,-1
1514894090070748,-1,-1,-3,-2,0,-2,-1,1
1514894090070748,0,-3,-1,-2,-3,-2,0,-1
1514894090072249,-1,-2,0,0,-2,0,-1,-3
1514894090072249,-2,-3,-2,-2,-2,0,-1,-1
1514894090093255,-1,-1,-2,-1,-1,-1,-3,-1
1514894090093255,-1,-3,-1,-2,-1,-2,-2,-1
1514894090094756,0,-2,1,-2,-1,-2,-1,1
1514894090094756,1,0,-1,0,-1,0,-1,-1
1514894090106776,0,1,-1,-3,-2,0,-2,0
1514894090106776,0,0,-2,-1,0,-1,0,-1
1514894090117272,-2,-2,-4,-1,-1,-2,-1,0
1514894090117272,0,0,-1,-2,-1,-1,-3,-3
1514894090130781,0,1,-2,-1,-1,-2,-1,-1
1514894090130781,-3,0,0,-1,-1,0,-1,-1
1514894090132294,-1,-3,-1,-1,-3,1,-1,0
1514894090132294,-1,1,-1,0,-3,-3,0,-1
1514894090153306,-1,0,-1,-1,-2,0,0,-2
1514894090153306,-2,-3,-1,-1,-2,-1,-1,-3
1514894090154798,-2,-3,-1,0,0,-1,1,-1
1514894090154798,-2,0,-1,-1,-2,-2,0,-1
1514894090166806,0,0,-1,0,-2,0,-2,-3
1514894090166806,0,-2,-2,1,-2,-1,-2,1
1514894090183329,-3,-3,-1,-2,-2,0,-2,0
1514894090183329,1,0,-1,-1,-1,-2,-1,-1
1514894090189823,-1,1,0,-2,-1,-2,0,-1
1514894090189823,-2,-2,-3,-1,1,-2,-1,0
1514894090198332,1,-3,-1,0,-1,-1,-1,-2
1514894090198332,-2,-2,-3,-2,-1,-2,-1,0
1514894090213352,-1,2,-1,-2,-1,-1,-2,-2
1514894090213352,-1,-3,-1,-2,-1,-1,0,-3
1514894090214841,-2,-2,-1,-1,-1,0,-3,-2
1514894090214841,-2,1,1,-1,-1,-1,-2,0
1514894090226887,0,1,-2,1,-3,0,0,-1
1514894090226887,1,-2,-1,-1,-1,-1,-2,-2
1514894090235870,-2,-2,-1,0,-1,-2,0,0
1514894090235870,-1,-2,-2,-2,-1,-1,-3,-1
1514894090250365,-2,1,-3,1,-2,0,-1,0
1514894090250365,0,0,0,-3,-1,0,-1,-2
1514894090252377,0,-3,-2,-1,-1,-1,-1,0
1514894090252377,-1,1,-1,-1,-3,-1,0,-1
1514894090272881,-2,-1,0,0,0,-3,-3,0
1514894090272881,-1,-4,-1,1,-3,-1,0,-1
1514894090274882,-1,-3,0,-1,-1,0,-1,-2
1514894090274882,-1,1,0,-1,0,0,0,-1
1514894090286892,-2,1,0,0,-1,-1,-1,-1
1514894090286892,-1,-3,-1,0,-2,-2,0,0
1514894090295913,1,0,1,-2,-1,-1,-2,0
1514894090295913,0,0,-1,0,0,0,1,-1
1514894090310418,-1,0,-2,-6,-3,-4,-5,-2
1514894090310418,-2,-3,-3,1,2,3,1,0
1514894090312411,0,0,0,-1,-4,-3,-2,-2
1514894090312411,-1,4,3,-6,-3,-4,-4,-1
1514894090340429,-1,-1,0,5,3,3,2,-1
1514894090340429,-2,-4,-1,-1,-3,-3,-1,-1
1514894090342430,-3,-6,-3,-5,-5,-2,-3,-1
1514894090342430,0,0,-3,2,1,1,2,0
1514894090346934,-2,2,1,-4,-4,-4,-2,-2
1514894090346934,-2,-3,-1,-1,1,-1,-1,-2
1514894090355940,1,1,0,1,-1,0,0,1
1514894090355940,-2,-2,-1,-1,-2,-3,-4,-2
1514894090370460,0,1,-1,-2,0,0,-2,1
1514894090370460,3,3,-1,-1,-1,0,1,3
1514894090372473,-2,-5,1,-1,0,-1,0,0
1514894090372473,-1,-1,-2,1,0,0,-1,0
1514894090392976,7,3,-2,-2,0,1,4,6
1514894090392976,-6,-5,-2,-1,-2,-3,-3,-6
1514894090394968,-4,-2,-2,0,0,-3,-3,-5
1514894090394968,1,2,1,-1,2,1,3,-2
1514894090406976,-2,0,0,-3,-3,-4,-3,-5
1514894090406976,0,-2,-2,-3,-2,-1,-1,1
1514894090415982,-4,-6,-1,0,-1,0,-1,-3
1514894090415982,2,3,-1,-2,-2,0,0,1
1514894090430511,-3,0,-3,-2,-1,-3,-1,0
1514894090430511,1,1,0,-3,-2,0,-1,0
1514894090432009,-3,-4,-1,-3,-2,-2,-3,-1
1514894090432009,-1,2,0,-1,-1,-1,-2,0
1514894090460517,-4,-1,2,-1,-1,1,-2,-3
1514894090460517,-1,1,-3,-1,0,0,-1,-3
1514894090461514,5,7,1,2,-1,-3,-3,-4
1514894090461514,-12,-8,-6,-2,-3,-1,4,2
1514894090475024,-3,-7,-2,0,-1,-4,-3,-5
1514894090475024,-5,-6,-2,1,5,0,-3,-4
1514894090475524,-5,1,-1,2,-2,1,1,3
1514894090475524,0,2,1,0,-2,-4,-3,-4
1514894090490044,-8,-1,-2,-4,-1,-1,0,-3
1514894090490044,-1,-11,-2,-4,-5,-5,-2,-5
1514894090490535,4,8,-2,0,3,0,0,0
1514894090490535,18,1,-1,2,2,1,2,3
1514894090513053,-9,-6,-1,-1,-1,-3,0,-1
1514894090513053,10,3,2,0,-4,-1,-4,-3
1514894090514563,-9,-24,-5,-5,0,1,2,2
1514894090514563,9,18,0,-1,-1,0,-2,-1
1514894090543146,5,-6,-4,-5,-2,-2,-1,4
1514894090543146,-7,3,2,1,-1,-4,-2,-5
1514894090544107,14,0,-1,2,1,3,3,8
1514894090544107,-12,-16,-4,3,1,-3,-4,-5
1514894090550113,15,9,-5,-6,-5,0,3,4
1514894090550113,-5,15,1,1,-2,-3,-4,0
1514894090550613,-20,-23,-7,-2,-3,-2,-4,-7
1514894090550613,-5,-3,-1,-3,-4,-2,-4,-7
1514894090572139,5,11,-1,-4,-2,1,3,7
1514894090572139,-23,-23,-3,0,-3,-3,-1,7
1514894090573140,3,2,1,-7,-3,-2,-4,-17
1514894090573140,0,-4,2,6,0,0,-1,2
1514894090596145,-21,-7,1,-3,-3,-4,-4,-13
1514894090596145,14,6,0,-3,1,3,4,5
1514894090597646,-13,-9,-4,0,1,-1,-1,3
1514894090597646,22,3,1,-7,-6,-4,-2,2
1514894090609654,-12,13,3,3,-2,-2,-4,-3
1514894090609654,13,-6,-4,2,2,0,-1,0
1514894090617660,-2,8,-4,-7,-3,-2,-1,-1
1514894090617660,-23,-6,-1,-2,1,-1,1,-2
1514894090632170,19,-15,-2,4,0,-2,-1,2
1514894090632170,-3,9,-1,-2,-5,-2,0,0
1514894090633171,8,14,8,7,2,2,4,16
1514894090633171,-9,-26,3,-7,-4,-3,-2,-11
1514894090663192,-7,5,0,1,0,-1,0,1
1514894090663192,-10,-22,-8,-8,-1,-3,-4,-7
1514894090663692,22,24,7,2,-1,2,1,8
1514894090663692,-27,-5,-8,3,-1,-4,-3,9
1514894090671705,-6,-8,-3,-5,-1,0,-1,-18
1514894090671705,-2,-17,-6,-10,-3,-2,-5,-7
1514894090672208,7,-4,-1,1,1,-1,0,5
1514894090672208,15,36,11,7,4,5,5,7
1514894090692212,-13,-20,-6,6,-1,-3,-4,-5
1514894090692212,16,21,11,-10,-2,0,4,13
1514894090693213,13,12,-5,-1,1,-1,3,11
1514894090693213,-13,-13,-1,-2,0,1,1,-1
1514894090715730,16,28,-11,-8,-3,-4,-6,-13
1514894090715730,0,-24,4,8,1,-2,-1,-3
1514894090716231,9,2,4,0,0,2,-8,-18
1514894090716231,-19,-12,-14,-12,-3,-5,-5,-8
1514894090729740,18,15,6,5,-1,1,2,9
1514894090729740,-22,-11,-7,3,-1,-2,0,-5
1514894090730740,1,-20,5,7,0,-1,6,7
1514894090730740,-28,-1,-8,-6,-4,-2,1,-2
1514894090752756,8,-12,-3,-9,-2,-1,-1,17
1514894090752756,4,15,-1,3,4,4,-2,-3
1514894090753756,-10,-4,0,2,-1,-3,-9,-44
1514894090753756,20,1,10,0,0,2,-4,7
1514894090774785,-9,4,-12,-7,-2,0,6,-7
1514894090774785,-6,-4,-1,4,0,-2,7,21
1514894090775771,5,4,-2,-3,-1,1,0,8
1514894090775771,-1,5,-1,0,0,0,2,-5
1514894090798288,19,9,-4,-3,1,2,15,50
1514894090798288,0,3,3,6,-3,-4,-37,-48
1514894090798790,-5,-18,-16,-11,-2,-3,2,7
1514894090798790,9,26,16,-2,-3,0,-2,-7
1514894090820813,-11,-13,8,5,2,-1,-8,-14
1514894090820813,-4,-7,-6,-4,0,5,17,23
1514894090821304,-3,10,9,5,0,-1,-1,-4
1514894090821304,4,-15,-8,-4,-4,-5,-9,-32
1514894090834813,-17,1,-15,5,2,0,12,24
1514894090834813,11,-1,-1,-6,-4,-3,-21,-49
1514894090836821,-22,-17,-11,-5,-4,-4,-4,-2
1514894090836821,16,12,1,5,4,0,10,18
1514894090849823,1,15,5,0,0,-2,-4,-27
1514894090849823,-14,-24,-8,1,-1,-2,5,17
1514894090850824,-6,7,14,-7,-4,-2,-7,0
1514894090850824,18,8,-2,1,3,4,3,9
1514894090872349,-1,-7,-9,-4,-2,-3,-10,-15
1514894090872349,-7,16,7,1,1,1,7,2
1514894090873350,0,-3,-4,0,-2,-3,7,15
1514894090873350,0,-7,-4,1,0,-1,-3,-3
1514894090895355,-6,8,5,0,1,-1,-9,-30
1514894090895355,2,10,11,-2,-1,3,15,27
1514894090896357,-3,-1,-14,3,-1,0,7,12
1514894090896357,-7,-8,-6,0,-3,-4,1,-8
1514894090909378,9,-7,8,-2,3,3,7,21
1514894090909378,4,8,0,3,1,-1,-4,-23
1514894090917371,-3,0,-2,-4,1,4,8,8
1514894090917371,9,-7,-12,-1,-3,-5,-13,-33
1514894090932382,2,-2,10,3,-1,1,-8,-4
1514894090932382,5,14,3,-2,-2,2,10,11
1514894090933383,2,-11,-5,-2,-4,-5,-7,12
1514894090933383,3,5,-12,-6,-2,1,2,9
1514894090955403,-7,-16,28,2,0,-4,1,5
1514894090955403,-3,1,10,3,0,1,-8,-37
1514894090956416,-1,4,9,2,1,1,0,6
1514894090956416,-20,3,-15,-12,-6,-7,-17,-5
1514894090969918,9,0,-14,0,-1,2,3,15
1514894090969918,-20,-24,-21,-5,-3,-4,-3,-5
1514894090970408,4,5,23,7,3,2,0,1
1514894090970408,0,8,20,10,-1,2,-2,-17
1514894091000430,4,2,-4,-6,-1,-1,-12,-24
1514894091000430,-1,2,12,0,-2,-5,-6,5
1514894091001430,9,13,-20,-8,-4,0,11,34
1514894091001430,-15,-6,-13,-5,-1,0,-7,-15
1514894091014940,-21,-14,12,4,1,2,9,17
1514894091014940,13,-27,-17,-4,0,-1,-3,-8
1514894091015941,2,4,6,2,-1,-5,-16,-27
1514894091015941,15,19,16,6,2,1,8,16
1514894091030452,-9,-42,-5,-3,-2,-2,-2,-1
1514894091030452,-20,-2,0,-6,-3,-4,-1,-20
1514894091031952,-3,-2,-27,-1,-2,-3,2,19
1514894091031952,5,0,9,-7,-3,-4,-4,3
1514894091052466,-5,26,42,5,-1,1,-6,-14
1514894091052466,5,36,3,3,2,3,22,47
1514894091053967,-25,-55,-27,-13,-8,-8,-32,-57
1514894091053967,16,-4,4,6,5,3,8,29
1514894091075483,0,1,-24,-7,-5,-6,-10,-33
1514894091075483,-3,6,41,9,1,4,9,32
1514894091075984,-6,38,-21,-13,-3,-4,-18,-37
1514894091075984,34,12,-17,-2,1,5,20,61
1514894091089002,-21,-42,-12,-2,-1,-1,-2,-49
1514894091089002,15,-18,21,5,-2,-3,-10,5
1514894091097999,-17,-5,6,3,0,0,-4,-26
1514894091097999,-18,-16,-5,-9,-3,-2,11,21
1514894091112523,10,24,-1,9,4,2,-3,19
1514894091112523,6,-20,-10,-3,-4,-5,-16,-20
1514894091113510,11,18,-4,0,-1,-2,-16,-17
1514894091113510,-4,16,4,-2,0,0,10,25
1514894091143034,-7,-23,-11,-4,-4,-3,-9,-25
1514894091143034,3,14,-36,-10,-6,-6,2,30
1514894091144034,0,-5,32,10,1,3,9,2
1514894091144034,-25,-4,-10,-4,-5,-5,4,-22
1514894091149035,-6,11,-30,-12,-7,-4,15,47
1514894091149035,-20,-38,15,-10,-3,-4,-31,-55
1514894091173552,-6,-2,-34,-5,-1,-2,4,-26
1514894091173552,-7,-25,-18,-1,-4,-4,-10,17
1514894091175554,9,8,5,6,3,2,-2,9
1514894091175554,5,25,0,2,1,0,12,21
1514894091176060,-5,-24,21,4,2,3,4,20
1514894091176060,-9,-2,-5,4,6,2,-7,-31
1514894091203082,10,11,14,-11,-4,-2,-3,-16
1514894091203082,2,-12,-3,15,5,1,10,12
1514894091204091,-11,15,-3,-9,0,-1,6,15
1514894091204091,2,6,20,3,1,5,10,17
1514894091209087,5,1,-57,-10,-3,-6,-20,-31
1514894091209087,24,46,57,14,6,5,10,3
1514894091218585,30,-7,-60,-3,-3,-2,18,36
1514894091218585,-35,-23,64,-10,-6,-6,-9,-29
1514894091232612,15,36,-50,6,2,2,6,15
1514894091232612,-10,-55,-4,-13,-4,0,-2,22
1514894091233101,-6,-48,-16,3,3,4,15,28
1514894091233101,16,41,-3,10,1,-5,-28,-18
1514894091254619,5,-25,40,-6,1,5,9,-9
1514894091254619,5,35,-43,-1,-3,-4,-8,-57
1514894091255620,-6,-1,41,13,3,3,5,59
1514894091255620,-25,-73,-33,-7,-6,-4,-5,-6
1514894091270626,-7,21,100,14,8,3,2,18
1514894091270626,-15,15,-59,-7,-2,-6,-5,-23
1514894091277125,-10,1,-60,-16,-6,-3,-5,11
1514894091277125,46,107,42,-2,0,2,7,-39
1514894091292646,-26,-70,-33,16,6,0,6,4
1514894091292646,-51,-121,-103,-50,-20,-17,-4,39
1514894091293646,35,76,122,38,12,7,-7,-87
1514894091293646,-9,20,-101,-17,-6,-4,8,36
1514894091315176,35,117,31,-9,-6,0,7,7
1514894091315176,8,-38,43,23,8,4,-6,-12
1514894091315662,-37,-48,-17,-28,-12,-8,-7,-22
1514894091315662,33,-38,33,25,11,7,7,29
1514894091339670,-6,-10,-7,-10,-9,-6,-1,-24
1514894091339670,-18,-9,-44,1,0,2,13,3
1514894091340671,23,100,13,12,5,3,5,0
1514894091340671,26,-61,22,4,2,2,6,70
1514894091352693,-38,16,-56,-19,-8,-10,-15,-31
1514894091352693,42,70,70,8,2,6,-1,-4
1514894091353182,-28,-39,-23,-4,-5,-6,1,0
1514894091353182,-4,6,76,9,2,-3,-13,-28
1514894091375196,-22,-85,-60,-11,-8,-5,8,14
1514894091375196,39,41,28,1,0,3,4,30
1514894091375695,3,6,28,-4,2,3,-2,-42
1514894091375695,-11,19,-17,-13,-8,-6,8,-50
1514894091405716,22,42,50,15,7,7,-1,18
1514894091405716,-17,-2,-42,12,9,5,-2,18
1514894091406217,6,17,18,15,0,-3,2,34
1514894091406217,19,-3,-8,-11,-3,1,7,52
1514894091412221,-7,19,56,14,-10,-9,-21,-90
1514894091412221,-44,-26,-23,-18,-1,0,9,-4
1514894091414222,31,4,-13,16,4,1,19,30
1514894091414222,-19,5,-19,-14,1,-2,-23,-61
1514894091435241,2,-39,-56,-20,-3,-1,9,66
1514894091435241,-17,35,24,-3,-9,-9,-34,-59
1514894091435740,23,2,11,2,-2,0,4,40
1514894091435740,-13,13,4,11,1,-2,-5,-52
1514894091466266,-20,-75,-71,-3,-3,0,-3,46
1514894091466266,28,8,122,2,1,0,9,9
1514894091466763,-10,3,-67,-36,-11,-7,0,70
1514894091466763,-11,-36,-25,6,1,2,-9,-101
1514894091472264,16,13,74,13,2,-1,15,36
1514894091472264,17,19,7,7,8,6,0,10
1514894091473264,-15,-41,-30,-9,-8,-7,-14,-43
1514894091473264,7,-10,-29,-10,0,0,7,27
1514894091503286,2,45,5,23,10,8,14,-7
1514894091503286,10,-75,-9,-16,-9,-7,-5,1
1514894091503786,0,24,69,-3,-6,-2,6,21
1514894091503786,-22,37,-67,-20,-6,-5,-10,1
1514894091518300,3,-15,27,5,8,2,-3,-18
1514894091518300,-4,-15,-55,4,-5,-1,23,93
1514894091519298,3,-10,67,24,4,0,-24,-88
1514894091519298,3,8,27,4,2,-3,7,32
1514894091532809,-4,1,-10,-10,-4,0,-12,-23
1514894091532809,-15,-14,-20,-17,-9,-7,5,-17
1514894091533311,8,-38,-44,-17,1,2,1,5
1514894091533311,-1,73,28,35,-2,-1,8,10
1514894091555325,28,-6,-5,-4,-2,-4,-12,13
1514894091555325,15,21,22,4,4,6,2,-12
1514894091555823,-28,-45,-4,9,2,1,-2,8
1514894091555823,-14,14,-47,-22,-8,-10,-14,-85
1514894091594352,4,20,54,14,6,0,14,56
1514894091594352,-2,29,-51,0,2,4,-10,16
1514894091595353,0,11,-4,6,5,2,-5,-6
1514894091595353,7,-30,17,7,1,2,13,57
1514894091596854,-16,-36,15,-4,-4,-5,-27,-57
1514894091596854,18,31,23,10,0,-2,0,-3
1514894091599855,-15,13,-2,-14,-2,-1,-9,-63
1514894091599855,-6,5,37,3,-2,-2,0,55
1514894091623372,0,-11,-108,-8,-3,1,-7,-4
1514894091623372,3,3,16,-8,1,0,8,-38
1514894091623870,-27,-20,-29,4,-2,-2,-1,21
1514894091623870,-12,-73,29,-18,-3,-2,-4,-10
1514894091639889,20,45,35,25,8,4,12,41
1514894091639889,-26,-37,-70,-5,-11,-6,-16,-27
1514894091640384,16,54,-18,-3,-3,-7,-2,16
1514894091640384,11,-10,66,-14,1,5,-11,-46
1514894091652393,-1,-29,-11,3,-2,0,5,20
1514894091652393,18,25,23,-3,1,-1,1,48
1514894091653395,-14,0,-29,-1,-4,-5,-5,-51
1514894091653395,1,30,32,17,4,1,12,32
1514894091674907,1,-12,-37,-19,-5,-8,-38,-84
1514894091674907,-4,30,-27,6,-2,-1,-3,-5
1514894091675907,9,-19,35,-2,1,4,6,-20
1514894091675907,-17,-26,-5,-8,-5,-5,-7,25
1514894091698924,17,40,-12,-31,-5,-3,3,6
1514894091698924,-14,-21,-26,6,2,4,28,21
1514894091699428,-4,-1,18,3,-1,0,-7,11
1514894091699428,15,-12,-20,12,4,2,-2,9
1514894091712433,24,79,-25,-6,-4,-3,-1,-28
1514894091712433,-69,-87,51,-8,-2,-2,4,41
1514894091713436,-5,-29,15,2,1,2,-12,-73
1514894091713436,8,32,-62,2,3,3,-2,-21
1514894091742956,7,-24,44,-8,-3,3,30,100
1514894091742956,29,30,31,7,1,-4,-18,-112
1514894091743958,-7,-9,23,-3,-4,-5,1,16
1514894091743958,-29,-88,-29,-10,-4,-2,10,-15
1514894091757965,8,27,0,5,1,2,4,85
1514894091757965,2,19,-6,-4,-2,-2,-34,-115
1514894091758966,-9,46,67,10,0,-3,-5,82
1514894091758966,-29,16,-77,2,-8,-7,-3,-34
1514894091780983,-18,-44,6,-52,-12,-9,-14,-17
1514894091780983,20,45,40,28,1,1,4,67
1514894091781484,27,31,-49,-17,17,12,1,-20
1514894091781484,-3,28,25,-4,-5,-4,21,112
1514894091795495,-49,-99,49,25,-1,-6,-21,-128
1514894091795495,-15,-25,-41,-2,-4,-3,1,35
1514894091797494,43,96,17,-12,3,5,15,30
1514894091797494,-6,-81,-25,-11,-2,0,4,59
1514894091818010,-10,26,-23,8,-3,-7,8,-52
1514894091818010,23,-15,20,5,-2,0,7,-30
1514894091819008,-10,-21,-12,3,-15,-6,14,28
1514894091819008,33,73,30,-2,6,-2,-23,-58
1514894091832520,2,48,-14,-4,1,6,9,17
1514894091832520,-12,-36,-2,0,0,-1,6,58
1514894091833019,-8,19,26,16,-1,-3,-11,-16
1514894091833019,36,55,-14,-28,-11,-1,12,56
1514894091855040,-20,-26,-31,10,0,-1,-16,-115
1514894091855040,15,35,-11,4,12,7,5,-49
1514894091855534,10,-53,-59,-19,-8,-2,13,87
1514894091855534,16,25,43,38,12,9,-7,-81
1514894091878062,36,39,1,-8,4,0,-14,67
1514894091878062,-27,9,-53,9,-8,-1,-5,-34
1514894091879065,-15,-40,-9,-19,5,-6,1,20
1514894091879065,-21,-46,-24,7,-12,-3,-19,-65
1514894091892570,21,14,17,4,9,5,58,127
1514894091892570,13,9,27,-16,9,10,-19,-40
1514894091893060,-2,-26,41,-13,-11,-3,-13,-16
1514894091893060,-8,-3,-40,-22,1,1,-4,-12
1514894091915090,-31,-12,27,15,-6,-5,16,40
1514894091915090,18,26,15,-1,-6,-4,7,58
1514894091915582,-11,1,6,-3,-1,-3,5,-20
1514894091915582,-11,-30,-25,-7,-5,-4,-5,-5
1514894091938092,2,39,-7,-1,-5,-3,-8,-9
1514894091938092,-4,-20,30,13,9,0,-5,14
1514894091939593,13,33,-68,-8,-6,-1,-1,-36
1514894091939593,-3,-22,17,6,-1,-2,27,55
1514894091952112,-3,-19,-11,8,6,2,-11,-21
1514894091952112,-10,16,-90,-39,-12,-9,0,9
1514894091953114,9,-29,78,42,12,4,0,-37
1514894091953114,-4,-4,29,3,4,6,12,42
1514894091974618,-7,13,-61,2,-2,0,-7,-57
1514894091974618,40,39,73,-3,1,3,3,0
1514894091975619,-83,-93,-116,-22,-9,-7,4,25
1514894091975619,55,100,49,6,4,-2,-30,-61
1514894091997145,-28,-42,-40,-13,-5,-4,-10,8
1514894091997145,-14,-10,-1,0,-1,0,-2,-55
1514894092004649,3,16,30,30,6,-1,-6,24
1514894092004649,21,84,-21,-51,-9,-1,14,-1
1514894092011646,-1,-29,31,0,-5,-3,3,-1
1514894092011646,-6,-47,7,1,-3,-5,-2,25
1514894092019660,18,70,48,12,5,1,-12,-6
1514894092019660,-7,-48,7,19,6,4,-10,-50
1514894092036175,2,3,22,-13,-5,-4,-1,113
1514894092036175,-16,-16,-28,11,3,0,-21,-112
1514894092037672,24,38,23,-6,-3,2,23,98
1514894092037672,-21,-56,-16,-16,-9,-11,-25,-38
1514894092058678,43,12,-3,8,8,10,21,28
1514894092058678,-9,-17,31,2,-1,2,14,49
1514894092060679,-21,-14,-12,-6,-6,-10,-44,-73
1514894092060679,-2,30,41,21,4,4,19,36
1514894092072187,-15,-23,-50,-10,0,1,-1,-40
1514894092072187,21,21,14,-6,-5,-9,17,14
1514894092079707,41,34,-32,-22,0,8,33,58
1514894092079707,-22,48,14,-3,-1,-7,-9,-36
1514894092102713,-5,29,69,10,1,-1,-4,1
1514894092102713,-25,-89,-67,-11,-4,-4,-2,91
1514894092103710,18,44,58,18,8,2,-44,-105
1514894092103710,-10,-36,-45,-17,-4,-2,7,69
1514894092118234,-3,-13,-5,4,2,0,-20,-21
1514894092118234,10,55,23,7,0,-1,-10,6
1514894092118730,-25,-71,-6,-12,-8,-5,21,-46
1514894092118730,6,-24,-58,4,-1,-2,-16,38
1514894092148243,-10,-3,41,0,-1,-1,4,-10
1514894092148243,12,19,-12,-5,-2,-1,1,0
1514894092148741,-12,-18,1,16,6,2,-22,-28
1514894092148741,-12,0,-32,-9,-4,2,23,37
1514894092154758,-21,-34,-85,-5,-6,-6,-34,-66
1514894092154758,-27,-11,13,-4,1,-1,-7,-39
1514894092155747,-17,-9,-25,-23,-12,-10,-13,7
1514894092155747,40,35,54,35,12,7,5,-3
1514894092178266,-44,-40,-19,-25,-16,-14,-10,-5
1514894092178266,3,-8,-44,0,8,1,-1,13
1514894092178764,-13,-3,-5,-18,-8,-5,8,-45
1514894092178764,21,53,34,9,4,-1,-14,-47
1514894092200778,-1,-19,10,4,0,-1,7,9
1514894092200778,6,26,53,19,1,-4,3,29
1514894092201791,-18,-81,-72,-44,-13,-5,-9,-14
1514894092201791,-6,6,35,20,5,1,14,53
1514894092214788,-1,23,15,9,7,-3,-36,-96
1514894092214788,-20,-36,9,-9,-8,-1,4,29
1514894092215788,16,56,15,13,5,6,23,55
1514894092215788,-31,-16,-5,4,-3,-2,-20,-66
1514894092237804,14,-2,-29,-9,-2,0,12,28
1514894092237804,-13,17,37,5,1,-4,6,-61
1514894092238817,-3,-5,-42,13,2,0,2,-4
1514894092238817,-26,-100,-80,-18,-9,-8,-5,0
1514894092251819,10,26,43,3,6,8,24,54
1514894092251819,8,27,45,3,-2,-3,-15,-59
1514894092259829,19,13,-49,-2,-3,-2,7,33
1514894092259829,11,17,17,-17,-2,0,20,24
1514894092275831,9,3,23,10,1,-1,-19,12
1514894092275831,0,-50,-50,-3,2,3,3,35
1514894092276832,-9,9,32,4,0,-2,2,2
1514894092276832,1,24,16,8,3,-1,-21,-46
1514894092297863,-12,-2,-16,-5,-6,-9,-4,2
1514894092297863,15,45,43,1,7,5,-5,-20
1514894092298847,9,-15,37,15,1,3,13,38
1514894092298847,-28,-1,-44,-27,-11,-9,-11,13
1514894092311366,31,11,38,11,2,3,1,-30
1514894092311366,-11,-2,-6,-15,-5,-4,-8,17
1514894092319872,13,25,12,-12,0,4,9,6
1514894092319872,-4,-24,8,7,-2,-7,-10,-9
1514894092334873,16,14,-59,-6,1,3,18,29
1514894092334873,-6,-5,-16,2,-3,1,-1,-2
1514894092335373,4,38,29,13,4,-2,-6,36
1514894092335373,3,-19,-17,-4,-3,2,12,6
1514894092357889,8,19,-1,-16,0,-3,-18,-61
1514894092357889,-25,-74,-25,-2,-6,-3,-2,29
1514894092358890,3,-4,1,-10,3,2,0,15
1514894092358890,10,12,-5,9,-3,-2,-3,23
1514894092380906,-4,-1,25,0,3,-2,10,-24
1514894092380906,-6,7,2,-8,-2,2,6,17
1514894092381405,-16,-16,-35,16,1,1,-7,-44
1514894092381405,4,18,18,8,1,-5,1,-23
1514894092395415,-16,-1,14,-6,-3,0,22,12
1514894092395415,4,-15,-36,-9,-4,-3,-5,-24
1514894092396919,6,16,34,8,0,-4,3,33
1514894092396919,-13,-45,26,-6,2,2,-9,12
1514894092417942,3,24,-48,2,0,1,8,-17
1514894092417942,7,11,24,7,2,-1,0,-25
1514894092418933,-16,-26,15,-12,-11,-8,-15,-15
1514894092418933,-3,2,-72,-18,-1,-2,-14,-33
1514894092440447,12,14,45,19,3,4,22,83
1514894092440447,-9,3,6,7,-2,-1,-5,-23
1514894092441448,-10,-11,39,-22,-7,-9,-11,2
1514894092441448,0,42,33,-4,-3,1,10,11
1514894092462964,-20,-68,66,23,-4,-6,-18,-19
1514894092462964,-3,23,-82,-19,2,1,1,30
1514894092464465,-18,13,-24,-5,-2,-2,15,2
1514894092464465,5,-10,-24,0,-4,-2,-2,-8
1514894092478987,4,18,29,11,2,5,8,9
1514894092478987,5,12,13,0,-5,1,12,1
1514894092479990,4,3,-19,11,4,3,-3,-28
1514894092479990,1,19,26,14,3,3,29,69
1514894092500499,-10,-32,-31,-22,-4,0,-7,-49
1514894092500499,14,-19,32,16,0,-8,-18,20
1514894092501491,3,36,-14,-17,-1,0,-1,-4
1514894092501491,10,1,-25,-2,0,-1,14,-7
1514894092515000,3,-10,46,17,5,-2,-26,-35
1514894092515000,8,7,-47,-12,0,3,12,23
1514894092515500,-7,-59,-5,-8,-5,1,6,-1
1514894092515500,6,12,2,5,-2,-4,-24,-20
1514894092538529,-2,-5,-49,-26,-2,-1,8,83
1514894092538529,30,53,41,16,2,1,-8,-48
1514894092540030,-2,-6,-10,9,1,2,4,21
1514894092540030,-9,-4,1,-6,-3,-3,-13,-37
1514894092561042,-14,-14,-12,6,-3,-1,8,4
1514894092561042,8,17,6,12,6,2,-8,16
1514894092562544,12,-3,27,-18,1,-1,-1,13
1514894092562544,6,10,8,9,2,2,5,45
1514894092574051,0,-22,-46,-34,-13,-5,1,35
1514894092574051,-23,-21,24,7,-3,-2,9,10
1514894092590554,7,12,-5,15,2,-2,-9,-31
1514894092590554,17,49,68,-8,-3,-5,-21,-23
1514894092598060,37,-13,-62,19,6,2,4,3
1514894092598060,-33,-87,-37,-52,-15,-8,2,28
1514894092601565,7,12,-7,8,-4,-7,-8,-32
1514894092601565,-10,-18,9,12,3,-1,-1,-16
1514894092620575,11,38,16,-5,-2,3,8,33
1514894092620575,-14,-13,20,1,3,1,-11,-15
1514894092622076,5,-1,-89,-9,-3,-2,2,-16
1514894092622076,-5,-15,-41,-5,1,3,11,1
1514894092634084,-15,-5,30,-6,-3,-6,-16,22
1514894092634084,10,10,-8,1,0,-1,-13,-78
1514894092645092,-8,-4,33,4,1,0,-3,5
1514894092645092,1,-25,-29,1,0,0,19,61
1514894092658113,4,15,31,0,1,1,-11,-72
1514894092658113,0,-53,10,7,-2,-1,3,39
1514894092660613,15,37,16,12,5,1,-2,-25
1514894092660613,-19,6,-12,-13,-6,-8,-19,21
1514894092680618,-1,-21,27,-5,-2,-3,2,33
1514894092680618,-22,8,-19,6,1,0,-8,-16
1514894092683129,25,19,-13,2,-1,-2,-1,-46
1514894092683129,-24,-51,28,-9,0,1,4,4
1514894092695628,9,41,69,14,5,-2,3,25
1514894092695628,10,-2,-113,-16,-2,4,8,-19
1514894092701632,-25,-71,84,8,1,3,28,74
1514894092701632,24,35,39,-3,4,1,-41,-70
1514894092718646,-7,-15,-95,10,-2,-2,9,-26
1514894092718646,9,56,58,-9,-3,-2,4,32
1514894092722647,-42,-51,-26,-21,-4,-1,-8,-40
1514894092722647,1,-31,-42,-1,-5,-6,15,0
1514894092740659,-13,-10,37,13,6,4,-4,-23
1514894092740659,3,4,-29,8,-3,-6,-7,35
1514894092742160,-3,33,1,-22,-5,-3,-20,-45
1514894092742160,-17,-14,5,9,0,0,4,2
1514894092754669,-6,9,26,4,2,2,7,6
1514894092754669,4,21,-26,7,-1,-1,11,10
1514894092761680,-4,-30,-6,-17,-3,-1,2,23
1514894092761680,12,30,-17,5,1,-4,-3,-1
1514894092777695,-19,-23,7,-3,0,1,7,-12
1514894092777695,31,-2,15,-5,2,6,8,11
1514894092779700,-2,14,-4,19,2,2,19,43
1514894092779700,-7,19,28,-17,-3,0,-25,-72
1514894092800717,-16,-16,-51,-20,-8,-6,-15,-55
1514894092800717,-2,-32,50,24,3,-1,20,66
1514894092802213,-4,-2,-24,-6,-3,-1,2,64
1514894092802213,4,-33,7,5,2,2,1,-62
1514894092815213,13,37,-14,-22,-7,-5,2,59
1514894092815213,-11,13,20,10,4,3,-5,-19
1514894092846236,12,17,4,-9,-4,-6,-27,-29
1514894092846236,-11,26,12,4,-2,1,32,42
1514894092847234,32,15,29,-4,2,-2,-24,-60
1514894092847234,-17,-20,-66,-16,-6,-4,-6,-10
1514894092848736,-1,8,21,-21,-6,-4,-12,-8
1514894092848736,3,-31,16,8,2,0,0,30
1514894092860253,-8,6,-24,-10,-2,-1,-8,27
1514894092860253,-11,-28,-22,21,1,-2,-16,-59
1514894092862245,1,21,15,7,6,5,23,39
1514894092862245,18,-7,-55,-25,-6,-4,-21,-61
1514894092874264,-13,-20,6,2,-5,-2,3,21
1514894092874264,-20,11,39,-29,-5,-6,-21,-41
1514894092884271,10,40,81,35,7,6,29,53
1514894092884271,-19,-50,-2,17,6,0,-15,-47
1514894092905285,-9,-9,-57,-32,-9,-1,17,8
1514894092905285,-4,33,34,24,6,1,-3,25
1514894092907287,16,-13,-62,-19,-8,-4,-20,-109
1514894092907287,-2,12,19,0,0,-2,20,81
1514894092920788,10,-14,15,15,2,-2,-10,-30
1514894092920788,-3,9,-4,-7,2,6,13,12
1514894092923790,3,9,-17,3,2,0,-6,74
1514894092923790,17,23,0,-15,-9,-6,-4,3
1514894092950308,-8,-11,-10,9,2,2,-14,-59
1514894092950308,15,20,24,1,-2,-2,7,43
1514894092951809,-13,-36,-12,27,8,7,17,44
1514894092951809,2,17,-25,-28,-8,-5,-14,-27
1514894092957825,1,23,33,12,-2,-5,1,37
1514894092957825,-3,-37,37,-4,-4,-5,-10,-46
1514894092959314,11,14,-14,22,8,5,-2,-11
1514894092959314,-17,1,-37,-9,-9,-6,-4,35
1514894092980829,14,-13,-8,2,4,4,18,27
1514894092980829,-14,-27,-89,-29,-9,-5,-7,-30
1514894092981832,20,30,15,26,2,1,16,44
1514894092981832,-6,-21,54,4,3,5,-9,-12
1514894092993848,-8,-28,-53,-31,-9,-7,-4,24
1514894092993848,12,7,29,13,4,3,2,-17
1514894093003346,-11,-23,0,-16,-6,-5,-10,24
1514894093003346,21,41,12,31,13,7,2,-24
1514894093017855,-18,14,7,-9,-2,2,10,51
1514894093017855,14,-12,27,7,2,0,-3,-44
1514894093020357,-16,-6,7,12,0,-4,-15,-76
1514894093020357,-7,13,-27,-35,-9,-6,7,17
1514894093040388,15,8,40,19,5,2,10,14
1514894093040388,-23,12,-7,-16,-10,-9,-5,41
1514894093041874,-15,-27,-77,-16,-1,1,14,-2
1514894093041874,11,-13,39,9,-1,-3,-8,-35
1514894093063388,-14,-1,18,16,2,-1,1,-20
1514894093063388,0,12,-26,-26,-4,-2,-9,-6
1514894093064388,5,-14,5,6,1,-3,-3,9
1514894093064388,-7,-30,5,2,-4,1,15,11
1514894093077898,0,5,-6,-14,-6,-3,-8,-11
1514894093077898,2,-12,-19,18,4,2,12,39
1514894093079399,8,27,35,-10,-6,-7,-23,-22
1514894093079399,-10,-14,26,2,3,1,2,11
1514894093100414,8,1,52,20,5,2,-15,-76
1514894093100414,4,9,-1,-11,-3,-4,-1,-13
1514894093101915,-6,-5,-35,-10,-6,-5,-12,10
1514894093101915,-14,-4,-7,-3,3,2,5,-41
1514894093114435,-1,5,16,13,2,0,-2,10
1514894093114435,-2,0,-27,-9,-4,-2,1,18
1514894093122930,1,37,70,15,6,3,-3,-46
1514894093122930,-14,-31,-91,-17,-8,-9,-4,42
1514894093145445,-12,-2,-18,-1,0,1,4,13
1514894093145445,19,25,28,3,2,5,-4,-28
1514894093146946,-6,-56,-1,-5,-3,0,25,8
1514894093146946,2,9,12,32,6,2,-5,4
1514894093160456,1,-14,-8,-34,-7,-1,9,-2
1514894093160456,14,31,38,13,1,1,4,20
1514894093161957,19,-5,-10,3,-2,2,0,17
1514894093161957,11,34,39,-19,1,1,-4,34
1514894093173965,-7,-49,-7,10,2,1,-6,-40
1514894093173965,-17,6,-16,2,-1,-2,20,82
1514894093182972,-12,-4,-89,-23,-6,-7,-40,-88
1514894093182972,-9,-1,21,-5,-3,2,21,42
1514894093197983,6,17,-27,-5,-5,-9,-11,-13
1514894093197983,5,-12,43,14,6,4,-2,11
1514894093199484,-5,-2,-6,-2,-3,-3,2,20
1514894093199484,-16,-15,-24,-9,-4,-1,1,-41
1514894093220499,11,3,7,2,1,3,8,-8
1514894093220499,-3,-48,16,15,2,2,6,20
1514894093224001,12,44,39,5,2,0,6,57
1514894093224001,-4,-10,-40,-11,-1,0,-8,-82
1514894093234020,-5,-27,25,-21,-3,-3,-9,34
1514894093234020,8,25,-32,5,1,5,24,-8
1514894093250526,-2,-16,5,5,-1,4,0,4
1514894093250526,26,16,41,-5,-3,-2,-1,31
1514894093265531,7,25,12,23,2,0,-8,-6
1514894093265531,-15,-56,-57,-30,-10,-10,-40,-74
1514894093267041,-10,2,-21,-15,-7,-5,6,6
1514894093267041,-6,30,5,14,-2,-6,-19,-49
1514894093280541,1,-17,-79,15,2,-1,-2,22
1514894093280541,-3,27,52,-29,-10,-7,-8,16
1514894093282043,5,6,3,16,8,4,-9,-39
1514894093282043,-23,-16,-7,-3,-5,-6,-11,24
1514894093303067,0,2,-4,15,3,9,14,41
1514894093303067,6,27,47,4,4,-1,-13,-26
1514894093304572,-12,-15,-65,-21,-10,-12,-12,-17
1514894093304572,10,14,10,2,-15,0,-1,7
1514894093325586,-4,-3,18,-6,7,0,16,6
1514894093325586,-9,6,4,8,7,4,-3,22
1514894093327087,27,12,8,-2,-4,0,-15,-87
1514894093327087,3,-29,3,4,2,3,18,34
1514894093341583,-11,-4,-47,-41,-27,-12,-21,-29
1514894093341583,-10,-23,-22,-6,7,4,11,-4
1514894093344085,5,49,52,33,22,14,18,46
1514894093344085,-3,-17,-4,-9,-5,-9,0,-26
1514894093364100,-17,-21,-17,2,0,-1,8,18
1514894093364100,8,-3,-11,14,1,-1,0,-18
1514894093367104,-12,-10,91,4,-4,1,-3,38
1514894093367104,26,19,-72,-20,-1,0,13,31
1514894093378111,-13,-22,-28,-11,-1,-4,-20,47
1514894093378111,22,-15,-13,8,-3,-2,-6,-55
1514894093380612,-3,3,23,1,1,-2,8,-3
1514894093380612,-9,11,7,17,3,2,-6,-1
1514894093400625,3,28,14,-10,-1,-3,3,24
1514894093400625,3,-19,-28,22,0,1,-6,-20
1514894093402127,-13,7,67,-13,-3,-6,-2,5
1514894093402127,-4,-4,-43,-7,-2,-4,-1,4
1514894093430648,-12,15,8,-6,4,4,-5,-15
1514894093430648,13,5,0,9,-3,0,29,83
1514894093432148,-9,-17,-45,-11,-3,-3,-23,-66
1514894093432148,7,22,13,11,9,6,10,-15
1514894093445662,-12,-32,-9,-8,-8,-7,-20,-60
1514894093445662,-3,5,64,24,4,2,11,76
1514894093447161,6,0,-34,9,-8,-5,-6,-80
1514894093447161,-1,3,-32,-21,0,0,6,49
1514894093460668,1,-55,3,-17,1,0,-4,-12
1514894093460668,-9,7,-36,-31,-6,-5,-3,-20
1514894093462169,10,22,18,23,4,1,-6,45
1514894093462169,-11,-26,39,19,0,-5,-4,-10
1514894093483686,-3,40,-30,-11,-5,0,10,1
1514894093483686,-6,-11,-9,-21,-2,1,-3,-64
1514894093486186,-7,-2,22,-12,-5,-5,12,30
1514894093486186,15,3,-21,-2,-1,0,-6,-7
1514894093498696,8,-5,43,18,4,2,0,-23
1514894093498696,-14,7,-15,7,-1,-1,-8,9
1514894093511714,16,-13,-44,-5,-1,-1,10,14
1514894093511714,2,-15,3,-16,1,1,1,34
1514894093520211,2,10,28,8,-2,-4,6,11
1514894093520211,-2,-41,-59,-18,-2,2,-4,-45
1514894093526715,-7,3,35,2,-1,-3,6,20
1514894093526715,13,26,26,15,4,1,14,64
1514894093543227,18,28,23,19,2,1,-24,-34
1514894093543227,-5,-23,9,-15,-7,-6,-5,0
1514894093545240,-12,-2,-58,-14,-6,-4,-10,-19
1514894093545240,-12,-15,39,13,4,2,2,9
1514894093557246,9,10,16,19,0,-2,-2,-53
1514894093557246,-3,24,-3,-14,-1,-1,-3,2
1514894093564242,15,-20,-41,0,3,3,6,83
1514894093564242,-7,1,26,-4,-5,-5,-21,-128
1514894093581254,-13,-19,-6,8,3,3,22,26
1514894093581254,4,27,45,13,2,-1,-2,50
1514894093584767,-14,-34,-4,-10,-4,-3,-6,-71
1514894093584767,-3,7,-6,-17,-1,3,4,28
1514894093602769,11,-19,-34,-5,-3,-5,-5,8
1514894093602769,-8,-3,-15,-14,-9,-3,10,-1
1514894093609290,13,25,22,5,7,5,-8,-15
1514894093609290,-3,-13,-26,6,-1,-1,-1,-2
1514894093617280,9,15,14,-8,-2,-5,1,63
1514894093617280,-11,-4,5,2,-1,1,-4,-43
1514894093624296,17,57,42,17,5,1,-15,-23
1514894093624296,1,-31,-20,-3,-3,-4,-9,-6
1514894093640304,-13,1,19,-13,2,5,-3,10
1514894093640304,1,-7,-57,7,-7,-5,20,54
1514894093642297,-15,-13,22,17,2,-1,-11,-19
1514894093642297,17,-3,-11,-12,-2,-1,-2,15
1514894093662811,-16,-1,-31,-1,0,-2,-14,-57
1514894093662811,11,23,49,14,7,3,-2,-14
1514894093669316,-19,1,-32,-15,-4,-3,9,39
1514894093669316,-6,-6,-6,-1,-7,-4,-7,2
1514894093677331,-10,-25,-51,-13,-10,-2,14,28
1514894093677331,2,17,20,7,5,-2,-9,-37
1514894093684827,-14,13,-5,-16,-8,-4,-4,-5
1514894093684827,6,6,46,15,6,2,3,21
1514894093700338,-2,0,-1,-11,-4,1,2,19
1514894093700338,-11,-30,8,1,-2,-3,-10,-30
1514894093701838,3,-6,-23,-16,-7,-4,23,54
1514894093701838,-18,-4,-1,4,1,2,8,19
1514894093722863,-1,13,13,15,3,0,-15,-35
1514894093722863,-1,9,-1,-22,-10,-5,-7,9
1514894093724374,7,21,-25,13,2,0,-2,26
1514894093724374,-10,-38,54,-4,3,2,-2,-24
1514894093745369,33,9,-41,-24,-3,-4,-8,-41
1514894093745369,-18,6,-17,1,-3,-2,-12,-7
1514894093746871,3,0,39,18,9,6,6,63
1514894093746871,-4,31,-3,5,-3,-4,-6,-87
1514894093760380,6,-18,-27,-5,1,6,14,18
1514894093760380,0,4,14,-13,-8,-6,2,25
1514894093766396,10,11,-8,2,-6,-6,-21,-91
1514894093766396,1,-12,-20,19,4,-1,-2,31
1514894093782906,-10,-19,2,7,4,2,4,35
1514894093782906,2,-6,10,12,-2,-5,-13,-45
1514894093784396,-10,8,-37,-21,-2,1,13,61
1514894093784396,-6,-14,-9,10,-5,-5,-1,-11
1514894093805412,3,-7,25,-12,-6,-4,-12,-43
1514894093805412,-7,-28,-23,-3,8,1,8,21
1514894093806913,-10,-8,19,-35,-13,-2,4,-43
1514894093806913,22,34,-39,11,2,1,-4,44
1514894093820435,-17,-9,35,-7,-3,-2,-1,11
1514894093820435,-2,20,-8,11,-4,-3,0,-8
1514894093821942,7,-20,11,8,7,6,22,33
1514894093821942,-34,-1,-49,-25,-9,-7,-21,-83
1514894093842938,19,5,34,24,4,4,2,-4
1514894093842938,-3,3,-16,-13,-5,1,12,50
1514894093844439,1,-14,-17,-1,-4,-3,-6,-35
1514894093844439,8,24,77,-6,-2,1,8,24
1514894093856447,-17,-25,-22,12,2,0,7,2
1514894093856447,-10,19,27,1,6,1,-8,-7
1514894093865454,3,5,-35,-21,-11,-8,1,-63
1514894093865454,-32,-45,-6,7,-1,-2,-8,26
1514894093880465,-14,-3,42,12,2,-1,4,-1
1514894093880465,30,11,-1,-21,-1,4,-9,11
1514894093881967,0,11,8,22,0,0,-4,12
1514894093881967,-9,-27,-37,-25,1,-4,-5,8
1514894093902980,-2,38,20,-7,-7,-5,-4,-19
1514894093902980,-14,-13,8,3,-4,-2,2,3
1514894093904481,-2,20,5,-3,3,0,7,16
1514894093904481,22,-19,-6,-4,-2,0,-31,-93
1514894093916490,-1,1,36,14,2,-2,5,36
1514894093916490,-2,-8,38,-15,-3,0,5,-27
1514894093925498,4,-14,-40,-11,-1,0,17,23
1514894093925498,6,22,-16,35,-4,-2,2,25
1514894093939519,-10,-4,-5,-47,-3,-1,-5,-33
1514894093939519,19,-36,-9,20,4,4,12,40
1514894093948013,-16,-1,-2,-9,-3,-3,-8,-14
1514894093948013,11,11,-18,-17,2,3,4,10
1514894093963023,-3,0,-24,21,4,0,5,35
1514894093963023,-8,5,-20,-8,-2,-2,-18,-84
1514894093964536,-11,-27,-23,3,1,-1,-4,6
1514894093964536,10,12,63,7,-1,-2,13,27
1514894093976545,16,3,17,3,-5,-3,-4,17
1514894093976545,0,-13,-85,-22,-2,-2,-8,-19
1514894093993044,9,23,69,18,2,0,-1,-23
1514894093993044,-17,-25,-17,14,3,4,14,43
1514894094000551,-1,4,29,-36,-4,-4,5,31
1514894094000551,0,1,-16,-8,-7,-5,-23,-75
1514894094002052,-16,-84,-43,8,3,-2,-11,-21
1514894094002052,2,34,17,-26,-4,-1,-4,34
1514894094023072,3,-9,-20,21,5,4,24,26
1514894094023072,6,24,25,4,-3,-4,-7,40
1514894094025571,9,1,35,27,4,1,-11,-5
1514894094025571,-6,-9,-36,-40,-6,0,20,37
1514894094036575,-4,-10,-46,-3,-4,1,-23,-71
1514894094036575,11,-7,16,3,0,1,11,4
1514894094045593,-1,6,18,-4,-4,-3,3,44
1514894094045593,-7,-14,36,23,7,1,-13,-72
1514894094060592,2,-7,-39,-10,-6,-2,-7,12
1514894094060592,-1,10,18,20,2,0,3,25
1514894094062093,3,19,23,1,5,1,-9,2
1514894094062093,10,1,-27,-2,-8,-5,-3,-18
1514894094083618,-4,-16,-23,-43,-6,-3,2,-12
1514894094083618,-14,-12,6,17,2,2,5,-13
1514894094085119,5,7,-29,-6,-2,0,9,60
1514894094085119,-3,8,37,29,2,-4,-25,-69
1514894094096618,-13,-10,18,15,-2,-5,2,10
1514894094096618,-15,13,4,-21,-1,2,11,48
1514894094105625,19,31,-23,-12,-3,-3,-27,-53
1514894094105625,-18,-31,-26,-11,-3,-1,-4,-26
1514894094121135,11,6,37,27,2,1,-10,-6
1514894094121135,-4,13,2,-17,2,1,9,5
1514894094124638,-5,-15,4,21,4,0,1,3
1514894094124638,-4,10,-5,-26,-5,-3,6,0
1514894094150668,8,-1,-5,17,7,5,6,8
1514894094150668,-5,-1,18,33,2,-2,-5,5
1514894094152157,-8,1,-3,-28,-11,-6,-11,-1
1514894094152157,15,-4,-8,4,2,4,7,-36
1514894094165666,4,-5,-10,-18,-3,-5,-3,-43
1514894094165666,-15,-8,-9,9,-4,-4,0,22
1514894094167180,22,9,-4,12,6,8,17,-4
1514894094167180,6,-5,46,16,-3,-4,-14,43
1514894094180687,7,12,4,-19,1,1,6,28
1514894094180687,20,-18,-77,-4,0,0,3,-43
1514894094182189,17,6,0,-2,-1,-4,-1,5
1514894094182189,11,16,-6,4,-3,4,24,33
1514894094210698,1,3,-13,-4,1,0,-18,-36
1514894094210698,-10,36,3,0,0,-3,-10,-10
1514894094212209,-6,-22,8,-11,-7,-2,-4,-25
1514894094212209,-6,20,-44,-10,0,-3,-6,7
1514894094225208,-14,-33,22,17,-2,-2,9,28
1514894094225208,8,3,18,1,0,-3,2,51
1514894094227210,-6,12,-27,-19,-9,-6,-4,-20
1514894094227210,-5,10,-7,-2,4,3,-6,-43
1514894094239736,-2,-6,-15,8,0,0,-7,23
1514894094239736,4,2,59,5,-3,-3,-7,5
1514894094246724,-16,-27,1,1,2,1,10,8
1514894094246724,4,-1,-50,-27,-6,-3,14,56
1514894094270252,14,13,30,5,-2,-3,-16,-68
1514894094270252,-33,-48,-35,14,5,2,8,-11
1514894094272253,-1,27,-9,-20,-9,-6,-11,0
1514894094272253,-5,-17,-8,-2,0,0,7,27
1514894094292768,11,38,76,21,1,-3,-5,-57
1514894094292768,5,0,-83,-28,-6,-2,11,27
1514894094294770,-17,15,50,11,-1,-2,-1,-45
1514894094294770,-11,-31,14,0,-3,-3,-7,15
1514894094300763,-14,-10,-55,-39,-9,-1,12,15
1514894094300763,6,15,71,18,3,2,-5,-17
1514894094303764,-18,-17,-41,-11,-6,-11,-26,-46
1514894094303764,17,24,17,4,0,-1,7,75
1514894094322790,-17,-17,5,8,-3,1,-1,-47
1514894094322790,15,26,38,2,7,3,-9,-25
1514894094324791,4,-5,-31,-5,-5,2,35,31
1514894094324791,-11,-16,16,-4,-2,-8,-15,27
1514894094345293,-2,4,24,36,5,4,-15,-42
1514894094345293,9,-21,-66,-52,-4,-1,5,47
1514894094347297,-12,4,-46,-17,-8,-3,-17,-33
1514894094347297,37,-1,20,-1,1,-2,6,30
1514894094360304,-53,-20,-87,30,8,0,-3,-55
1514894094360304,6,-2,27,4,-3,-5,-11,-12
1514894094362305,-18,12,45,9,5,3,14,64
1514894094362305,2,-3,-39,-2,-2,3,-1,-62
1514894094382836,2,-5,-55,-18,-4,1,-8,61
1514894094382836,4,30,57,30,1,0,-7,-20
1514894094385821,11,-11,7,-6,3,3,-7,-19
1514894094385821,4,6,35,-3,-7,-3,-4,-16
1514894094405336,12,7,33,4,5,0,28,112
1514894094405336,-15,-25,-40,-14,-9,-5,-6,-49
1514894094407840,27,5,-22,-10,-2,-3,-16,-54
1514894094407840,-26,-11,11,2,-2,-1,0,-18
1514894094419355,13,16,-12,-3,-2,2,0,-2
1514894094419355,-8,7,-14,19,2,-1,22,81
1514894094427852,-2,-17,36,-5,0,-4,-15,35
1514894094427852,-24,-4,37,-7,-3,-1,-2,-68
1514894094442875,-22,-18,-36,-8,-5,-5,-12,-19
1514894094442875,-13,13,13,6,1,3,14,33
1514894094444381,-6,-6,-24,6,-3,-4,-11,3
1514894094444381,7,15,-7,-1,1,1,-11,-39
1514894094465379,7,-10,74,-9,4,2,9,21
1514894094465379,13,18,-6,13,-3,-3,-18,-10
1514894094466879,-6,-19,12,21,2,0,-3,-2
1514894094466879,-15,-2,-40,-34,-6,1,21,31
1514894094479888,-1,-18,36,7,-2,1,-16,-34
1514894094479888,19,-9,-14,-5,0,0,0,1
1514894094486893,2,24,17,-20,-4,-4,-5,-82
1514894094486893,0,-9,-5,12,0,2,17,88
1514894094503414,6,-7,27,-3,1,1,-2,24
1514894094503414,3,-6,-60,-8,-4,-1,-2,-30
1514894094504916,1,-3,-15,8,0,-2,2,72
1514894094504916,22,10,40,14,3,0,4,-13
1514894094526421,-3,6,-48,5,-3,-2,4,49
1514894094526421,-6,-12,19,-29,-4,0,12,22
1514894094528923,-7,-4,11,1,1,1,-6,-95
1514894094528923,-4,-7,-1,4,1,3,0,11
1514894094539949,0,-6,-51,3,-4,-4,6,43
1514894094539949,-13,-10,27,4,-3,-5,0,-6
1514894094546450,9,19,5,-5,1,6,16,12
1514894094546450,1,-26,-48,-15,-7,-10,-10,-19
1514894094577958,9,21,30,25,3,0,-12,-77
1514894094577958,-3,-2,33,-9,-3,-3,16,7
1514894094579459,6,24,-9,-27,-2,1,5,35
1514894094579459,-4,-17,7,1,-1,-4,-5,74
1514894094585463,-12,-25,-41,-13,-1,-3,-7,-58
1514894094585463,1,5,19,13,2,1,-21,-19
1514894094586964,-7,10,10,14,1,-2,5,-14
1514894094586964,3,2,15,11,-1,1,-13,4
1514894094599512,11,-3,-26,-30,-2,1,11,13
1514894094599512,6,9,6,1,-3,-2,-2,30
1514894094606493,-14,-27,14,18,4,0,-12,-17
1514894094606493,-11,10,-21,3,7,9,5,27
1514894094622999,14,13,36,-13,-11,-8,-26,-68
1514894094622999,-3,2,15,24,5,0,-1,-10
1514894094624509,-21,-17,-20,-34,-16,-12,2,38
1514894094624509,13,21,17,33,8,6,6,15
1514894094645505,10,-13,-8,-47,-7,-4,-10,-1
1514894094645505,-2,20,41,1,0,2,5,2
1514894094647007,4,-8,-25,3,3,1,10,84
1514894094647007,-3,-9,-25,1,0,-1,-14,-119
1514894094660028,-12,17,-10,20,6,5,5,48
1514894094660028,3,-17,1,-6,-2,-2,-6,-18
1514894094666520,19,36,11,9,-1,-2,8,-21
1514894094666520,-35,-30,-1,-1,3,-2,-1,-18
1514894094683547,7,25,32,13,-3,-1,2,20
1514894094683547,-15,-19,-48,-43,-9,-3,-4,-20
1514894094685034,-1,4,-21,7,0,-1,-9,-19
1514894094685034,17,27,29,4,-4,-2,11,73
1514894094705558,-19,-32,-55,-4,-6,-6,-15,-63
1514894094705558,-1,16,22,-14,-1,1,24,99
1514894094707059,18,-9,-12,16,0,3,-2,-51
1514894094707059,12,-1,-19,-36,-9,-11,-29,-31
1514894094720064,-14,-1,31,16,4,1,12,37
1514894094720064,-18,-17,-12,12,-1,-2,-8,-2
1514894094727563,6,6,39,-22,1,-4,-3,-8
1514894094727563,10,-2,-48,-10,-10,-8,-15,-34
1514894094743081,-7,-12,-7,5,0,0,8,-2
1514894094743081,1,3,-51,0,0,1,0,-20
1514894094745576,-11,-23,14,-6,1,0,8,12
1514894094745576,-17,-19,-16,2,-3,0,12,-9
1514894094765592,5,32,30,15,1,-1,11,7
1514894094765592,-5,-28,24,9,3,-3,-26,-71
1514894094767092,-9,-17,-80,-13,-4,0,10,48
1514894094767092,10,22,29,-2,1,3,7,-9
1514894094779101,-5,-17,-15,0,-2,-4,11,69
1514894094779101,-1,17,55,16,6,-2,-12,-61
1514894094789108,-1,9,-13,1,0,-2,4,-9
1514894094789108,4,17,9,-2,-3,-1,-16,15
1514894094803617,-1,-27,5,-8,0,1,6,-53
1514894094803617,14,-1,-17,-7,-3,-4,-13,-7
1514894094805619,-32,-7,-36,-2,-2,-4,-1,17
1514894094805619,9,25,47,0,0,1,5,1
1514894094825633,6,-11,-38,-3,-5,-4,-6,37
1514894094825633,-3,4,-8,-32,-7,-5,-3,-21
1514894094827134,2,9,48,23,4,6,5,50
1514894094827134,-6,-25,-3,8,4,0,3,-77
1514894094839642,0,14,32,1,2,3,0,-4
1514894094839642,-2,8,10,-4,-3,3,8,0
1514894094848150,4,-21,-68,-16,-9,-7,0,75
1514894094848150,-25,1,-6,-1,1,1,-1,-23
1514894094863160,9,14,5,41,5,1,-14,3
1514894094863160,-17,-31,-25,-36,-6,-4,-2,-32
1514894094864669,19,24,47,9,5,5,9,49
1514894094864669,6,-8,48,6,-5,-7,-4,28
1514894094885686,-8,-9,-53,-21,-1,1,-1,-18
1514894094885686,6,7,6,33,6,0,4,36
1514894094887186,-4,4,22,-4,-2,-1,-12,-52
1514894094887186,-4,-9,-33,-8,0,-1,-4,-3
1514894094899203,6,3,12,1,1,1,4,32
1514894094899203,2,13,9,0,-5,-6,-5,-48
1514894094915706,-2,-7,-9,4,1,1,2,-27
1514894094915706,-1,-1,8,11,0,-1,-3,6
1514894094923712,5,-1,17,-15,-2,0,2,6
1514894094923712,11,4,-26,7,1,0,5,31
1514894094927205,-4,-8,13,1,-3,-3,-10,-37
1514894094927205,-1,-5,-15,3,2,0,0,5
1514894094945229,-4,1,8,-11,-4,-3,1,9
1514894094945229,-1,-1,-18,1,-3,-2,1,9
1514894094947233,3,-1,7,-2,-1,-1,-7,-24
1514894094947233,-7,-4,-2,-5,0,-1,4,15
1514894094968234,2,-5,-2,-3,-3,-2,0,-4
1514894094968234,0,5,-1,4,0,-1,0,8
1514894094969734,3,0,3,-5,-3,-1,0,-6
1514894094969734,3,-6,-11,-1,-2,-1,-1,6
1514894094982745,-3,-3,9,-4,-3,-3,-3,-12
1514894094982745,2,4,-10,2,1,2,-1,6
1514894094984758,0,-4,6,-4,-3,-4,-1,-4
1514894094984758,-3,-9,-8,-2,0,-1,-2,-3
1514894095005770,0,1,6,2,2,0,-1,-2
1514894095005770,-3,4,-1,-4,-4,-1,1,11
1514894095007771,2,-3,-4,-2,6,1,-3,-7
1514894095007771,-2,0,1,-6,-8,-6,-2,-2
1514894095028791,0,1,3,3,0,-2,-2,-2
1514894095028791,2,2,-2,8,-8,-3,-1,6
1514894095031278,1,-2,-2,-9,9,5,-1,-8
1514894095031278,-1,-7,-6,-1,1,5,2,0
1514894095042803,-3,-3,-6,-10,-4,-3,-2,-1
1514894095042803,-1,0,-6,0,-3,-2,-2,-1
1514894095044789,-3,1,12,2,-6,-2,-2,-5
1514894095044789,-1,0,-2,-3,2,0,-1,5
1514894095072817,-3,-2,-3,-2,-4,-2,-1,-2
1514894095072817,-1,0,5,-1,-1,-1,-1,0
1514894095074309,3,1,0,-1,-4,-1,0,-3
1514894095074309,0,-2,-3,2,2,0,1,1
1514894095078811,0,-2,0,0,-4,-2,-1,-3
1514894095078811,0,1,3,2,1,-1,0,0
1514894095088318,-3,-4,-3,-4,-4,-1,0,-2
1514894095088318,-1,-4,-2,2,0,0,0,-2
1514894095104329,1,2,10,3,-2,-2,-1,-2
1514894095104329,-2,1,-9,-9,1,-1,-1,1
1514894095110834,-1,-5,-25,-1,-2,-5,-5,-2
1514894095110834,-3,-4,14,2,-2,-2,-2,0
1514894095125354,-2,-2,-25,-8,0,0,0,0
1514894095125354,1,0,8,2,0,0,-2,2
1514894095131849,0,0,7,-2,-2,-3,-2,-3
1514894095131849,-1,-2,-4,0,0,-1,1,0
1514894095138854,-1,0,8,1,1,0,-1,-1
1514894095138854,1,1,-4,-1,0,1,2,0
1514894095148362,-3,-1,1,-2,-5,-4,-4,-2
1514894095148362,-2,-2,-6,0,-1,-1,-2,0
1514894095162370,-1,-1,5,-4,-1,0,-1,-1
1514894095162370,0,-1,-12,-3,0,0,0,0
1514894095171388,0,-1,20,2,-1,0,0,-1
1514894095171388,0,-1,-30,-5,0,-2,-1,-2
1514894095192892,-2,0,16,-1,-1,-2,-1,0
1514894095192892,-1,1,-3,-1,1,-1,-1,-1
1514894095194393,0,-2,-1,-1,-2,-3,-1,0
1514894095194393,-2,-1,10,1,0,0,0,0
1514894095207915,-2,-1,-7,-1,-1,-1,-1,-2
1514894095207915,-1,-1,-5,-2,-3,-1,0,-1
1514894095209418,-1,0,4,2,0,-1,0,-2
1514894095209418,-1,-4,-3,-1,-2,-1,-1,-1
1514894095222926,0,0,-4,1,-1,0,1,-1
1514894095222926,1,0,1,-1,0,-1,-2,0
1514894095224414,1,-2,-6,-1,-2,2,-1,-1
1514894095224414,-1,-1,0,-1,0,-2,-2,-1
1514894095260443,1,1,-2,-3,-1,2,-1,-1
1514894095260443,0,0,-1,1,0,-1,-1,-1
1514894095261941,-1,-2,-3,0,-1,-1,-1,-4
1514894095261941,-1,-3,1,-1,-1,0,0,1
1514894095267945,-2,-1,3,1,-1,-2,-2,1
1514894095267945,-1,1,-4,-1,-1,-2,-1,-2
1514894095269446,-2,-1,-5,-3,-1,-2,-1,-2
1514894095269446,-1,-4,2,-1,-2,-2,-1,-3
1514894095282955,-1,1,-5,1,1,1,1,0
1514894095282955,-1,-1,-2,-2,-2,-1,-1,0
1514894095284456,-2,-4,-3,-2,-2,-1,-2,0
1514894095284456,-2,-2,1,-1,-2,-3,-2,0
1514894095305471,0,0,-2,-2,0,-2,-2,0
1514894095305471,-1,-1,0,-1,-1,0,0,-1
1514894095306972,-2,-1,2,-1,-1,-2,-1,-3
1514894095306972,-2,-2,-1,1,-2,-1,-2,-1
1514894095327487,0,-1,-1,-2,-1,-1,0,0
1514894095327487,1,1,-2,-1,-1,-1,-1,-2
1514894095333991,-1,-1,-4,-2,-2,0,-2,-1
1514894095333991,-1,-3,1,-1,-2,-1,0,-2
1514894095342498,0,2,0,1,-1,-1,-2,-4
1514894095342498,0,1,0,-1,2,0,-2,-1
1514894095349002,-2,-3,-1,-1,0,-1,-2,-1
1514894095349002,-1,-2,0,0,1,0,-1,-1
1514894095365514,-3,-1,-1,-1,-2,-1,0,1
1514894095365514,-1,0,-1,-1,-2,-1,1,-1
1514894095367025,-1,-1,-1,-1,0,-2,-1,-1
1514894095367025,0,-4,1,-1,-1,-1,-2,0
1514894095388039,-2,-2,-1,-1,-3,-2,-1,-2
1514894095388039,-1,1,-2,-2,0,-3,1,-1
1514894095389540,-1,-3,-2,0,0,-2,-1,-2
1514894095389540,-1,-3,-1,-2,-1,-1,-1,-1
1514894095402540,-1,-1,-1,-1,-3,-3,-2,-2
1514894095402540,-2,1,-2,-1,-3,0,-2,-1
1514894095409045,-1,-1,-1,-1,-1,-2,-1,0
1514894095409045,-1,-3,-1,-1,-1,-1,-1,0
1514894095425561,0,0,0,-2,-1,-2,-3,-1
1514894095425561,-1,1,-1,0,-1,-3,-1,1
1514894095427059,0,-2,0,-1,-3,1,-1,-1
1514894095427059,-1,-1,-2,0,-1,0,-1,-3
1514894095448077,-1,-1,-1,0,0,-1,1,-1
1514894095448077,-2,-2,-1,-2,0,-1,0,-1
1514894095454077,-3,-4,-3,-1,-1,-2,0,0
1514894095454077,-1,-2,-1,0,-2,-1,-1,-1
1514894095462082,0,2,1,0,0,-2,-1,-2
1514894095462082,-1,0,-1,-2,0,1,-1,-1
1514894095469097,0,-2,-2,-1,-1,-1,1,-3
1514894095469097,-2,-3,-1,0,-1,-2,0,-1
1514894095485609,-2,-1,-1,2,0,0,-1,0
1514894095485609,0,1,-2,-1,-2,-3,-2,-1
1514894095487601,-2,-2,-1,-1,-1,-1,-2,0
1514894095487601,-1,-3,-1,-1,-1,0,-2,-1
1514894095516621,-2,-1,-1,-3,-2,-1,-2,-1
1514894095516621,0,0,-1,0,-1,-1,-1,0
1514894095523126,-1,-2,-1,-1,-2,0,-1,-2
1514894095523126,-1,-3,-1,-2,-1,-1,-2,-1
1514894095523626,0,0,-1,-3,-1,-1,0,-1
1514894095523626,1,0,0,0,-2,0,0,-2
1514894095529130,0,-1,-1,-2,0,0,-1,-1
1514894095529130,-2,-2,-1,0,1,-2,-1,-2
1514894095545658,0,0,-2,-1,0,-3,0,-1
1514894095545658,-1,1,-1,-2,-2,-4,-1,-2
1514894095547142,0,-2,-2,0,0,1,0,0
1514894095547142,-2,-4,0,-2,-1,0,-3,-1
1514894095567667,-2,2,-3,-1,-2,-1,-1,-3
1514894095567667,-2,-1,-1,-1,-2,-1,-1,-2
1514894095569668,-1,-2,-2,-1,-2,-1,0,-1
1514894095569668,-1,-4,0,0,-1,0,1,-1
1514894095582167,0,0,0,-1,1,0,-1,1
1514894095582167,0,2,-1,-2,0,1,-1,1
1514894095589182,-2,-1,-2,0,-2,-1,-1,-2
1514894095589182,-1,-4,-3,0,-2,-2,-1,-1
1514894095613204,-1,-2,-2,0,-3,-1,-1,-1
1514894095613204,-1,2,0,-2,0,-1,-2,1
1514894095614690,-2,-5,0,-2,1,-2,0,0
1514894095614690,0,-2,-1,-2,-2,-1,-2,-2
1514894095629200,-2,0,-2,-1,-2,-1,0,-1
1514894095629200,0,1,-1,-1,-1,0,-2,-2
1514894095630704,-1,-2,-1,1,-3,0,-1,0
1514894095630704,-2,-2,-3,-2,-1,-1,-2,0
1514894095642222,-4,-2,-3,-2,-2,0,-1,-1
1514894095642222,-1,1,-1,-1,-1,-1,-1,-1
1514894095649215,0,-1,1,-2,0,-3,-3,-2
1514894095649215,-2,-4,-1,0,-1,-2,2,1
1514894095665726,-1,1,-1,-1,0,-2,0,-1
1514894095665726,-3,-1,-2,-1,0,-1,-1,-1
1514894095667243,0,-2,-2,-2,0,0,-1,-1
1514894095667243,0,-3,0,-1,-1,0,-2,1
1514894095688251,-1,0,0,-2,-2,-1,-2,0
1514894095688251,-1,0,-2,-1,-1,0,-1,0
1514894095689753,-1,-3,-2,-1,-1,-2,-3,-1
1514894095689753,-1,-3,1,0,0,0,-2,-1
1514894095701761,-1,1,-1,1,-1,-1,-2,0
1514894095701761,-3,0,-3,-2,-1,-1,-1,-4
1514894095720264,0,-1,-1,-1,-2,0,1,4
1514894095720264,-1,-2,0,0,-1,-1,0,-1
1514894095732774,-1,-1,-1,-1,-2,-2,0,-1
1514894095732774,0,1,-1,-1,-1,-2,-1,-1
1514894095734787,-3,-3,-1,-1,0,0,-2,-3
1514894095734787,0,-2,-3,-2,-3,0,-2,0
1514894095748786,0,1,-1,-1,0,-1,-1,-1
1514894095748786,1,1,0,-1,-3,0,0,1
1514894095750286,-3,-1,0,-2,0,-2,0,-2
1514894095750286,-1,-3,-1,0,0,-1,-1,-3
1514894095761794,1,0,-1,-2,-1,0,1,-3
1514894095761794,-1,0,-2,-1,-1,-1,0,-1
1514894095770801,0,-2,-1,-1,-1,-2,-1,0
1514894095770801,-3,-4,0,-1,-2,-1,-2,-1
1514894095785323,-2,0,-2,-2,0,0,-2,-1
1514894095785323,0,1,-1,0,0,-2,0,0
1514894095786827,-1,-3,-1,1,-2,-2,-2,-2
1514894095786827,-2,-4,-1,-1,0,-1,0,-3
1514894095807838,-1,0,-1,0,-2,0,2,0
1514894095807838,-1,-1,-1,-3,-2,-2,-2,0
1514894095810338,-2,-2,-2,0,0,1,-1,-1
1514894095810338,-1,-3,-1,-1,0,-1,-1,-1
1514894095831344,-1,1,-2,0,-1,-2,-2,-2
1514894095831344,1,1,-1,-1,-3,-1,0,-1
1514894095834856,-1,-2,-2,-1,-1,-2,-1,0
1514894095834856,-1,-3,-1,0,-1,0,-1,0
1514894095845853,-1,-1,0,-2,0,-1,-1,-2
1514894095845853,0,3,0,-1,0,-2,-1,-2
1514894095851358,-1,-1,-2,-2,-1,-1,-1,-2
1514894095851358,-1,-2,-1,-1,-2,-1,-2,-1
1514894095867869,-1,0,-1,1,0,-1,-1,-1
1514894095867869,-1,1,-2,-1,-1,-1,1,-1
1514894095869370,-2,-3,1,-3,-3,1,-1,0
1514894095869370,-2,-4,-1,0,-1,0,-1,0
1514894095891396,0,-1,-2,0,-1,0,0,-1
1514894095891396,-2,1,-2,-1,1,-2,-3,0
1514894095894397,-1,0,0,1,-1,-2,0,-2
1514894095894397,0,-1,-1,-1,-1,-2,-1,-2
1514894095905405,-1,0,-1,-2,-2,1,-1,0
1514894095905405,-1,1,-3,-1,-2,-2,-1,-1
1514894095906907,-1,-3,-1,-1,1,-3,-2,-1
1514894095906907,-1,-4,0,1,-2,-1,0,-1
1514894095927911,1,1,0,-2,-1,-1,0,0
1514894095927911,0,-2,-2,-1,-2,-2,-1,-1
1514894095929413,0,-2,-1,-1,-1,0,-1,0
1514894095929413,-3,-1,1,-1,-1,0,-1,-2
1514894095941433,-1,0,0,0,0,0,0,1
1514894095941433,0,0,-1,-2,-1,-1,-2,-2
1514894095950429,-1,-3,-1,-1,-1,-1,-1,-1
1514894095950429,0,-2,-1,-3,-2,-1,-3,1
1514894095965448,0,0,-1,-1,-1,0,0,-3
1514894095965448,-2,2,-1,-2,-2,-1,-2,-1
1514894095966939,0,-3,-2,0,-2,-1,0,0
1514894095966939,0,-3,-2,-1,-1,1,2,-2
1514894095987964,-1,0,-2,-2,0,-2,-3,-2
1514894095987964,-1,1,0,0,-2,0,-1,0
1514894095990465,0,-1,-1,-1,-2,-1,-2,-2
1514894095990465,-2,-4,-1,0,-2,-2,0,-1
1514894096001463,-1,0,-2,-1,-2,-1,0,-1
1514894096001463,-2,-1,-1,-2,-1,0,-2,-1
1514894096010482,0,-3,-1,-2,1,0,-1,-1
1514894096010482,0,-2,0,0,0,0,-2,-2
1514894096026491,-1,-1,-1,-1,-2,-3,-2,1
1514894096026491,-1,1,0,-2,0,-2,-1,1
1514894096028492,-3,-2,-2,0,-2,0,0,0
1514894096028492,-2,-4,-3,-1,0,-1,-1,-1
1514894096047997,-1,1,-2,-3,-2,-2,-1,-3
1514894096047997,0,2,-2,-2,-3,0,0,-2
1514894096049497,-1,-2,-1,-2,-1,-3,-1,-1
1514894096049497,-2,-2,-1,1,0,0,-2,-2
1514894096062021,1,0,-1,-2,-2,1,-1,-1
1514894096062021,1,1,0,-2,-3,-1,-1,-1
1514894096070512,0,-2,-1,-2,-3,-1,-1,0
1514894096070512,0,-1,0,-2,-1,0,-2,-1
1514894096085523,-4,-1,-1,0,-1,-1,-1,-1
1514894096085523,-1,-1,-3,-1,-1,-2,1,-2
1514894096087024,-1,-2,-1,1,-3,0,-2,-1
1514894096087024,-2,-3,-2,-2,0,0,-3,1
1514894096108049,2,0,-2,0,-2,0,0,0
1514894096108049,0,-1,-2,-4,0,0,1,-1
1514894096110552,-2,-2,-1,-2,0,-1,0,-1
1514894096110552,-2,-3,-1,0,-1,-2,-1,0
1514894096131558,-3,1,-1,-2,-1,-1,-1,-2
1514894096131558,0,1,-2,0,-1,-1,0,0
1514894096138069,0,-2,-1,0,0,-1,-1,-3
1514894096138069,-2,-2,-1,-1,-1,-2,0,-3
1514894096153080,-2,0,-1,-1,-1,0,0,-1
1514894096153080,1,1,0,-1,-1,0,-3,-2
1514894096154582,-2,-1,0,-1,-1,0,-1,-1
1514894096154582,0,-2,-1,-1,-1,-1,-1,-1
1514894096168089,-2,-1,-3,-2,-1,-1,-3,-1
1514894096168089,-3,1,-1,-2,0,-1,-2,-1
1514894096169590,-1,-1,-2,-2,0,0,0,-1
1514894096169590,-1,-3,-1,-2,-1,-1,0,0
1514894096191106,-1,1,-2,0,-1,-3,-2,-1
1514894096191106,-1,0,-2,-2,-2,-2,0,-2
1514894096192606,-1,-2,0,-1,-2,-2,-1,-2
1514894096192606,-2,-2,0,-1,-2,0,-1,-1
1514894096213121,-1,1,-1,-2,-2,-1,0,0
1514894096213121,-1,1,-1,-1,0,-2,0,-1
1514894096214624,0,-1,-2,0,-1,-1,0,-1
1514894096214624,-1,-1,-2,0,-3,-1,-1,-2
1514894096228132,-1,-1,-2,1,-2,-1,0,0
1514894096228132,-2,-1,-2,-2,-2,-1,-1,-2
1514894096229633,-1,-5,0,-2,-2,-1,-3,-1
1514894096229633,-1,-3,-1,0,-1,-1,-2,0
1514894096250647,0,0,-1,-1,-1,-2,-1,-2
1514894096250647,-1,-1,-1,-1,-2,-2,-1,0
1514894096253149,0,-2,-2,-2,-1,0,-2,-2
1514894096253149,-1,-1,-2,-2,-1,0,-1,-1
1514894096265658,-2,-1,0,-2,-2,-2,-3,-2
1514894096265658,-3,0,-2,-2,-1,0,1,0
1514894096267159,-3,-2,1,-1,0,0,-1,-1
1514894096267159,-3,-1,1,-1,-1,-1,0,0
1514894096288179,0,1,-1,-1,0,-2,-1,-1
1514894096288179,-1,-1,-2,0,-2,-1,-1,0
1514894096289688,-1,-3,-1,-1,-1,0,-2,0
1514894096289688,-1,-3,-1,0,0,2,-1,-1
1514894096311193,0,1,0,1,-2,0,-1,1
1514894096311193,-1,-1,-1,-2,-2,-2,-3,1
1514894096312694,0,-3,-1,1,-1,0,-2,-2
1514894096312694,-1,-1,-2,-1,-1,1,0,-2
1514894096324701,0,0,-1,-2,-1,-1,-1,0
1514894096324701,1,1,-1,0,1,-1,1,-2
1514894096339212,-2,-3,-1,0,-1,-1,0,-2
1514894096339212,-1,-2,-1,-3,-1,-1,-2,0
1514894096348219,-2,0,-2,-1,0,0,-1,0
1514894096348219,0,0,-2,0,-2,0,-1,-2
1514894096349718,-2,-2,-1,-1,0,-2,0,-1
1514894096349718,0,-2,-2,0,-2,-1,-1,-1
1514894096370733,0,0,0,-2,0,-1,-1,-1
1514894096370733,0,1,-1,-2,-1,0,0,0
1514894096372236,-2,-2,-1,-1,-2,-1,0,-1
1514894096372236,-1,-3,-1,0,0,1,-1,-1
1514894096384745,1,0,0,-3,-2,-1,-1,-2
1514894096384745,0,-2,-1,-1,0,-1,-1,-2
1514894096391748,1,0,-2,-1,-2,-1,0,-1
1514894096391748,-2,-2,-2,-1,0,-3,-2,-1
1514894096407763,-1,-1,0,1,-1,0,-1,0
1514894096407763,0,-1,-3,-2,0,0,0,-1
1514894096422271,-1,-2,0,-2,0,-1,-1,-1
1514894096422271,-1,-2,-1,-1,0,0,0,-2
1514894096430777,-2,0,-3,-1,-1,-1,-3,-1
1514894096430777,-1,1,-1,-2,-1,-1,-1,0
1514894096432277,0,-2,-3,-1,-1,-1,-2,0
1514894096432277,0,-2,-1,-1,-1,-2,-1,-1
1514894096444785,0,-1,-2,-1,-1,-2,-1,-2
1514894096444785,-1,-1,0,-3,-2,-2,-2,-1
1514894096451791,0,-3,-2,-2,0,-1,-1,-1
1514894096451791,0,-1,-1,0,-1,-3,0,0
1514894096468806,0,0,-1,-2,-1,0,-1,-2
1514894096468806,-2,0,-1,-1,-1,-1,-2,-1
1514894096472310,-2,-2,0,1,-2,0,-1,-1
1514894096472310,-3,-2,0,-1,-1,0,-1,-2
1514894096490317,-2,0,-1,-2,0,-2,0,-1
1514894096490317,-1,0,-3,-1,-1,-1,0,0
1514894096491820,0,-2,-2,-2,-3,-2,0,-1
1514894096491820,-1,-1,-1,-2,-1,-2,0,-1
1514894096504831,-1,0,-2,-1,-1,-1,0,0
1514894096504831,1,1,-1,-1,0,-1,-3,-1
1514894096511833,-1,-1,0,-1,0,0,-1,0
1514894096511833,-1,-1,-1,-1,-1,-1,0,0
1514894096527843,-1,2,-3,-3,0,-1,-1,-1
1514894096527843,-3,0,0,-2,-2,-3,0,-1
1514894096529345,0,-1,-1,-1,0,0,-1,-1
1514894096529345,-3,-1,2,-1,-2,0,-1,-2
1514894096550861,-2,-1,0,1,0,-2,-1,-2
1514894096550861,0,-2,-2,-1,-2,-2,-1,-2
1514894096552363,-1,-2,-1,-1,-2,-1,-2,-1
1514894096552363,0,-2,-2,-1,-1,-3,0,0
1514894096564869,1,0,-1,-1,-1,0,1,-1
1514894096564869,1,-1,0,-1,-1,0,-2,-1
1514894096571375,-2,-1,0,-2,0,-1,-1,-1
1514894096571375,-1,-2,-2,0,-1,0,-2,-1
1514894096587887,-2,0,-1,-1,0,-1,-1,1
1514894096587887,-2,-2,-3,0,-2,2,0,-2
1514894096589388,-2,-3,-1,-1,-2,-1,0,-2
1514894096589388,1,-3,-1,-1,-1,0,-1,-1
1514894096610402,-1,1,0,-1,-2,-3,-1,-1
1514894096610402,-1,1,-1,-2,-1,0,-1,-2
1514894096611904,-2,-2,-1,-1,0,0,-3,0
1514894096611904,0,-2,-3,-1,-1,0,-2,-2
1514894096623911,-2,1,-2,0,-1,0,-1,-1
1514894096623911,-1,-2,-3,-3,-2,-1,-1,0
1514894096632920,1,-3,-1,0,-2,-1,-2,-2
1514894096632920,-2,1,-1,0,0,0,-1,0
1514894096648429,-2,1,-1,-2,0,0,-1,-2
1514894096648429,-1,0,0,0,-1,-3,-1,0
1514894096649930,-3,-2,-1,-1,-2,0,-2,0
1514894096649930,0,0,-1,-1,-1,-1,-1,0
1514894096670947,0,1,-1,-1,-1,-1,0,-2
1514894096670947,-1,-2,-1,-2,0,-3,-1,0
1514894096672447,0,0,-1,0,0,-1,0,0
1514894096672447,0,-1,-1,-1,-3,-1,-2,-2
1514894096683954,0,-1,-1,-1,-2,0,-1,0
1514894096683954,-1,-1,-2,-1,1,0,-1,0
1514894096693463,-1,-4,-2,0,0,-2,-1,0
1514894096693463,-1,-1,-3,0,-1,-1,-1,-1
1514894096707972,-1,-1,-1,-2,-1,0,0,0
1514894096707972,-1,0,0,-1,0,-3,-1,0
1514894096710474,0,-1,-1,-1,-2,-2,1,-2
1514894096710474,-2,-1,-1,-2,-1,-1,0,-1
1514894096730487,0,0,-1,-1,0,-3,-1,0
1514894096730487,0,-1,-1,-2,0,1,0,-1
1514894096731989,-2,-2,-1,-1,1,-1,-1,-1
1514894096731989,0,-3,1,1,0,0,-2,0
1514894096743997,-2,-1,0,-2,-2,0,-2,-1
1514894096743997,-2,0,0,0,0,-1,0,-2
1514894096753003,0,0,-2,-1,1,-1,-2,-3
1514894096753003,-3,1,0,1,0,-2,1,-2
1514894096768016,-2,-2,-3,-2,-2,-2,0,-2
1514894096768016,-3,0,-1,0,-1,-2,-2,0
1514894096769514,-1,-2,-1,-2,-2,-1,-2,0
1514894096769514,-1,0,-2,-1,0,-3,0,-2
1514894096791530,2,0,-1,-1,-1,-2,-1,-1
1514894096791530,1,-1,-1,-2,-3,-1,-2,-1
1514894096795032,-3,-1,-1,0,-2,-1,-1,-1
1514894096795032,-2,-1,0,-2,-1,-1,-2,0
1514894096805041,-1,0,0,-1,-1,1,0,-3
1514894096805041,-1,-2,-1,-3,-1,-1,0,-1
1514894096820550,-3,-2,0,-1,-1,-1,0,-1
1514894096820550,-2,-1,0,-2,-1,-1,0,0
1514894096828055,-3,-1,-3,0,-2,-2,0,0
1514894096828055,-2,-2,-3,0,0,0,-1,-1
1514894096830557,-1,-2,0,-1,-2,-1,-1,0
1514894096830557,-2,-1,-2,0,-2,1,0,0
1514894096850572,-1,2,-1,-1,-1,0,-1,0
1514894096850572,-1,-2,-3,0,-3,0,-1,0
1514894096853075,0,-4,-1,-3,-2,-1,-3,-2
1514894096853075,1,-1,-1,-1,-1,0,-1,1
1514894096864083,1,0,-1,0,0,-2,-2,-1
1514894096864083,0,-1,-1,-2,-2,-2,1,0
1514894096873087,-1,-4,-1,0,0,-1,-1,0
1514894096873087,-1,-1,-2,-1,0,-1,-2,-2
1514894096888598,-1,0,-1,-1,-1,-3,-1,0
1514894096888598,-2,-1,0,0,-2,-2,-3,-1
1514894096890100,1,-1,-2,-1,0,-1,0,-2
1514894096890100,-1,1,0,-1,-1,-2,-1,-1
1514894096910614,1,-2,-1,0,-2,-2,0,0
1514894096910614,-1,-2,-3,-2,0,-2,-1,-2
1514894096912115,-1,-2,0,-1,-1,-2,-1,0
1514894096912115,0,-1,-2,0,0,-1,-1,-2
1514894096932632,-2,0,0,-1,-2,-1,-1,-1
1514894096932632,1,-1,0,-2,-1,-1,-2,0
1514894096934131,0,-3,0,-2,-2,0,-1,-2
1514894096934131,-2,1,-2,0,-1,-2,0,-1
1514894096947154,0,2,0,-1,1,-2,-2,0
1514894096947154,-3,-2,0,2,0,-1,-1,-3
1514894096948163,-1,-2,-1,0,0,-1,-2,-1
1514894096948163,-1,-2,-2,-1,-2,0,-2,-1
1514894096969666,-2,-1,-2,-2,0,-1,0,-1
1514894096969666,-1,-2,-2,-2,-1,-2,0,0
1514894096970657,-2,-2,-1,0,0,-3,0,0
1514894096970657,1,-1,1,-1,0,-3,-1,-1
1514894097001179,1,0,0,-1,-2,0,-1,-2
1514894097001179,-1,0,-2,-1,0,0,0,0
1514894097003180,-1,-4,0,-2,-2,-3,2,1
1514894097003180,-2,0,-1,-1,-2,0,-1,0
1514894097007183,0,0,-2,-3,0,-1,-1,0
1514894097007183,-1,-1,-1,-3,-1,-1,0,-2
1514894097008199,-1,-2,-2,0,0,-2,-2,-2
1514894097008199,-1,-2,-2,-2,-1,-2,0,-1
1514894097029698,0,1,0,0,-2,-1,-1,0
1514894097029698,0,-1,0,-1,-2,-2,-1,-1
1514894097030199,1,-2,-1,-2,-1,1,-1,-1
1514894097030199,-1,0,-1,-2,-4,-1,-1,-2
1514894097052731,-1,0,-1,-1,-1,0,-2,-1
1514894097052731,-1,-3,-1,-1,0,-2,-1,-1
1514894097053721,-2,-2,1,-1,-1,0,-2,-2
1514894097053721,-1,0,0,-1,-2,-1,-2,-1
1514894097066736,1,-1,-3,0,-1,0,1,0
1514894097066736,-1,-2,-1,-1,0,0,0,-1
1514894097074730,0,-2,0,-1,-1,-2,-2,-1
1514894097074730,-1,2,0,0,-1,0,-1,0
1514894097089741,-2,1,-2,-3,1,-1,-1,-2
1514894097089741,0,0,-1,-3,-1,0,-2,-1
1514894097091242,-2,-3,0,0,0,-1,-3,0
1514894097091242,-1,1,-1,0,0,-2,0,-1
1514894097112256,-1,0,0,-1,-1,-2,-2,-1
1514894097112256,-1,-2,-1,-1,-1,-2,0,0
1514894097112759,-2,-4,-3,-1,0,1,0,0
1514894097112759,-1,-1,0,-1,1,-2,-1,-1
1514894097126779,-1,1,-1,0,-2,-1,0,-1
1514894097126779,-1,-1,-1,-2,-2,-2,-3,-1
1514894097151286,0,-2,0,-2,-1,-1,-1,-2
1514894097151286,-1,-1,-2,-1,0,0,-1,0
1514894097152785,-2,0,-1,-1,-1,-1,-1,-2
1514894097152785,-1,-2,-2,-1,-2,-1,0,-1
1514894097153286,0,-2,-1,1,-2,0,0,0
1514894097153286,-1,-1,-1,0,-1,-2,-1,-1
1514894097172309,-1,2,-1,0,1,-1,-1,0
1514894097172309,-1,-3,-2,0,0,-1,0,-1
1514894097172799,-1,-3,-1,-3,-1,1,-2,0
1514894097172799,0,2,0,0,-2,1,-1,0
1514894097187309,-1,0,-1,-1,-1,-2,-1,-2
1514894097187309,-2,0,-2,-1,-1,-1,-3,-1
1514894097187810,-1,-2,-3,0,-1,-3,-1,-2
1514894097187810,-1,0,-2,-2,-1,0,0,-1
1514894097209834,0,-1,1,-1,-1,-3,-1,0
1514894097209834,-1,-3,0,-2,-2,-1,-1,0
1514894097210326,-2,-3,-2,0,-1,-1,-2,-2
1514894097210326,-2,0,-2,-2,-2,-3,-2,-1
1514894097232341,0,1,-2,-1,0,0,-1,-1
1514894097232341,-1,-2,0,-2,-1,-2,-1,0
1514894097232841,-1,-2,0,1,-1,-3,-2,2
1514894097232841,-1,0,1,-1,-1,-2,-2,-1
1514894097247352,-1,1,-1,-1,-2,-1,-1,-1
1514894097247352,-2,-3,-2,0,1,0,-1,-3
1514894097247852,-1,-4,-1,-1,-1,-2,-2,-2
1514894097247852,-2,0,0,-1,-1,-1,-2,-1
1514894097269377,-2,2,-2,-1,-2,-2,0,-2
1514894097269377,-2,-3,-2,-3,-1,0,-2,-3
1514894097277373,-2,-2,0,0,-3,-2,-1,-3
1514894097277373,-1,0,-1,-1,-1,0,0,-2
1514894097292396,1,0,-2,-2,0,-1,-1,-1
1514894097292396,-1,-4,-1,-1,-2,-1,-1,-2
1514894097292884,-3,-3,-2,-2,-1,1,-1,0
1514894097292884,-2,0,-2,-1,-1,-1,-1,-1
1514894097307395,-1,0,-2,-1,0,-3,-1,-1
1514894097307395,0,-3,0,-1,-2,-1,-2,0
1514894097307895,-1,-2,0,-1,-1,-2,-1,0
1514894097307895,-2,0,-1,-1,0,-1,-2,-1
1514894097329910,0,3,-1,-2,-2,-2,-1,0
1514894097329910,-1,-1,-1,0,-1,-1,-1,-1
1514894097330410,0,-3,-1,0,1,0,-2,-4
1514894097330410,0,-1,-3,-1,0,-1,-2,-1
1514894097352428,-1,1,-2,0,-1,1,-1,-3
1514894097352428,-1,-2,-2,-2,0,-1,0,-1
1514894097352928,-1,-2,-1,-1,0,-2,0,-1
1514894097352928,-1,1,0,-1,-1,-1,0,0
1514894097367439,-2,0,0,-2,-1,-1,-2,-1
1514894097367439,0,-2,-2,-1,-2,-1,0,-1
1514894097367939,0,-2,-2,0,-1,0,0,-1
1514894097367939,-1,1,-2,-1,-2,-1,0,-1
1514894097389453,0,0,-1,-1,0,-2,-3,-2
1514894097389453,-1,-1,-2,1,0,-1,-1,0
1514894097390454,-1,-5,0,-2,-1,0,-1,-2
1514894097390454,-2,1,-1,0,-1,-1,-1,-1
1514894097412469,0,1,0,-1,-1,0,0,-1
1514894097412469,-1,-2,-1,-1,-1,0,-1,0
1514894097412969,-1,-2,-2,0,-1,-2,-1,0
1514894097412969,0,-1,-2,-3,0,-2,-1,-3
1514894097426991,-2,-1,-2,-1,-2,-1,-1,1
1514894097426991,-2,-1,-1,-1,1,0,-2,-3
1514894097427992,-3,-4,-1,-1,-4,0,0,-1
1514894097427992,-1,0,-1,-2,-2,-1,-2,-1
1514894097449499,0,0,-3,-2,0,-3,0,0
1514894097449499,-1,-1,1,-2,0,-2,-1,-3
1514894097450496,-1,-4,-1,-2,-1,-1,0,-2
1514894097450496,0,0,-1,0,-1,-3,0,0
1514894097472520,-1,-2,-3,-1,-2,0,0,-2
1514894097472520,-1,-2,0,-1,0,-1,-2,0
1514894097473521,-1,-2,0,-2,0,-1,-3,-1
1514894097473521,-2,1,-1,-1,0,-1,-1,-2
1514894097487022,-1,1,-1,0,-1,-1,0,0
1514894097487022,0,-1,-1,-1,-2,-1,-1,0
1514894097488022,0,-3,-1,-3,0,-2,-2,0
1514894097488022,-1,1,0,-2,-2,0,-1,0
1514894097509547,-1,1,-1,-2,0,0,0,-1
1514894097509547,-2,-2,-1,-1,-3,-2,-3,-2
1514894097510538,-3,-4,-3,-2,0,0,0,-1
1514894097510538,0,0,-1,-2,0,-2,0,-1
1514894097532053,-1,2,-1,-2,-1,-2,1,0
1514894097532053,-1,-3,-1,1,0,-2,-2,0
1514894097533054,0,1,-2,-1,1,-2,-2,-2
1514894097533054,0,1,-2,-1,-1,-1,-2,-2
1514894097555574,-2,1,-2,-1,-1,0,-1,-1
1514894097555574,0,-2,-2,-1,-2,-2,-2,0
1514894097556070,-1,-4,-2,0,-1,0,-1,-1
1514894097556070,0,0,-2,0,0,-1,0,2
1514894097569580,-1,0,-2,-1,-1,-3,-2,-1
1514894097569580,0,-3,-1,-1,-1,-1,0,-1
1514894097570581,-2,-3,-2,-1,-1,-1,-1,-2
1514894097570581,-1,1,0,-2,-2,1,-1,0
1514894097592108,1,1,-1,-1,-1,0,-2,0
1514894097592108,-2,-2,-2,0,-1,-1,-2,-1
1514894097593096,-1,-2,0,0,0,-1,0,0
1514894097593096,0,-1,0,1,0,0,0,-1
1514894097607116,-1,2,-1,-2,-1,-1,0,-1
1514894097607116,0,-2,-1,-1,0,0,-1,-2
1514894097615112,-2,-3,-2,-1,-1,-2,0,-1
1514894097615112,-2,-2,-2,-1,-2,-2,0,-1
1514894097630132,0,-1,-2,-2,-3,-1,-1,0
1514894097630132,-1,-3,-1,-2,-1,0,-1,-2
1514894097631134,-2,-2,0,0,-1,1,-2,0
1514894097631134,-3,-1,-2,-2,-1,-1,1,-3
1514894097653148,-1,3,0,-2,1,-2,-2,-3
1514894097653148,-2,-2,-1,0,0,-2,0,-1
1514894097653640,0,-2,-1,-1,-2,-2,-1,-1
1514894097653640,-1,1,-1,-1,0,-1,-1,-1
1514894097675168,-2,0,-2,-1,1,-2,1,-1
1514894097675168,-2,-2,-1,0,-1,-1,1,0
1514894097676167,-1,-3,0,-1,-3,-1,-1,0
1514894097676167,0,0,-1,1,-2,-2,0,0
1514894097689674,-1,-1,-2,-2,-1,0,-1,-2
1514894097689674,0,-1,-1,-3,-1,-1,-1,-3
1514894097690165,-2,-5,-1,1,-1,1,-1,1
1514894097690165,-1,1,-1,-1,0,1,-2,-1
1514894097712181,-1,1,1,0,-1,-2,-2,1
1514894097712181,-1,-1,-2,-2,-2,-1,0,1
1514894097713182,0,-2,-1,-1,-1,0,-2,0
1514894097713182,-1,0,-2,-1,-2,-2,-2,1
1514894097728200,-1,1,-2,-4,-2,1,-1,-1
1514894097728200,-3,-2,0,-1,0,-2,0,-2
1514894097734706,-1,-2,-2,-1,0,0,-1,0
1514894097734706,-2,-2,-1,-1,-2,0,-1,-2
1514894097749709,-2,0,-1,-2,0,-2,0,-1
1514894097749709,0,-3,-1,0,-2,0,-2,0
1514894097750209,-1,-3,-1,-1,2,-1,-1,-2
1514894097750209,1,1,-1,0,-1,-1,0,-3
1514894097772227,-1,2,-1,-1,-1,-1,-1,-2
1514894097772227,-2,-3,-2,-1,0,0,-3,1
1514894097773224,-2,-5,0,1,-1,-1,0,-2
1514894097773224,-1,0,-2,-2,-2,-1,-2,0
1514894097786743,-2,0,-1,-1,-1,1,-3,-2
1514894097786743,-2,-2,-2,-1,-3,-2,-1,-1
1514894097794738,-1,-2,-1,0,-3,-1,0,-1
1514894097794738,-1,1,-1,0,-1,-1,0,1
1514894097809762,-1,0,-3,-1,-2,-2,-1,0
1514894097809762,-3,-4,-1,-1,-1,1,-3,-1
1514894097810250,0,-3,-1,-1,-1,-1,-1,-1
1514894097810250,1,-2,-1,-2,-1,-1,0,-2
1514894097832766,0,2,-3,-1,0,-1,0,-1
1514894097832766,0,-3,-1,-1,0,0,-1,-1
1514894097833267,-1,-2,0,-1,-2,-1,-1,-1
1514894097833267,-2,1,-2,-3,-1,-1,-1,-1
1514894097846794,0,2,-2,0,-3,0,0,-1
1514894097846794,0,-2,-1,-2,-1,-2,-1,0
1514894097862296,-3,-2,-1,-1,-3,-1,0,0
1514894097862296,-1,1,0,-2,-1,-2,0,-2
1514894097869793,-2,3,-1,-1,-2,-4,1,-1
1514894097869793,0,-1,-1,-1,-2,-2,1,-1
1514894097870293,-1,-5,0,-1,-1,-1,-1,-2
1514894097870293,-3,1,-3,-1,-1,0,-1,-1
1514894097892320,0,0,-2,-2,-1,-2,0,-1
1514894097892320,-2,-1,1,0,-1,-1,0,-2
1514894097892808,-2,-3,-2,-1,-1,-1,-1,-1
1514894097892808,-4,-2,-1,-2,-1,-1,0,-2
1514894097906828,-2,-2,0,-1,0,-1,-1,0
1514894097906828,-1,-1,-2,0,-2,-1,-1,1
1514894097914827,-1,-2,-1,-1,-1,-1,-1,-1
1514894097914827,1,2,-1,-2,0,-2,0,-2
1514894097929334,0,1,-2,-2,-2,-1,-2,-3
1514894097929334,-1,-2,-2,-1,-1,-2,-1,-2
1514894097930334,-3,-1,0,0,-2,0,-2,-1
1514894097930334,-1,-1,-1,-1,-1,-1,-1,-2
1514894097952362,1,1,-1,0,-1,-1,0,-1
1514894097952362,-2,-4,-1,-1,1,0,-2,-1
1514894097953352,-2,-2,-2,-1,-1,-1,-1,-1
1514894097953352,0,-1,-2,-1,-2,-1,-1,-3
1514894097969862,0,1,0,-1,-1,-1,-1,-2
1514894097969862,0,-3,-1,-2,-1,-1,0,-2
1514894097983372,0,-4,-2,0,0,-1,0,-1
1514894097983372,-1,1,-1,-1,-2,-1,-2,0
1514894097989877,0,1,0,-1,-3,-1,-2,-1
1514894097989877,0,-2,0,-2,-1,-1,0,-1
1514894097991378,-1,-2,0,1,0,0,-1,0
1514894097991378,-1,0,0,0,-1,1,-1,0
1514894098012393,-2,1,-1,-2,-1,-2,0,-1
1514894098012393,-1,-2,-2,-2,-2,-1,-1,-2
1514894098012895,-2,-3,-1,-1,-1,-2,-1,-3
1514894098012895,-1,1,0,-3,-1,-1,0,-1
1514894098035909,-1,1,-2,-2,1,-2,-1,-1
1514894098035909,-1,-2,-1,0,-1,-1,-1,1
1514894098036409,-1,-4,-2,0,-1,0,0,0
1514894098036409,-2,0,-2,0,0,-1,-1,-2
1514894098049919,-1,0,-1,-2,-2,0,-2,-2
1514894098049919,-2,0,0,-2,-2,0,-3,-3
1514894098050419,0,-2,-1,-1,0,0,-1,-1
1514894098050419,0,-1,-1,-1,0,-2,0,1
1514894098072435,-2,-1,-2,-3,-2,-1,0,-1
1514894098072435,1,-3,-2,-2,0,1,-2,1
1514894098072936,-2,-2,0,-1,-2,-1,0,1
1514894098072936,-1,0,-2,0,-2,-2,0,-1
1514894098095451,-1,0,-1,0,-1,0,-2,-1
1514894098095451,0,-1,-2,1,-2,-1,-1,-2
1514894098096452,-1,-1,-1,-2,-2,-2,-1,-1
1514894098096452,0,-1,-1,-1,-2,-2,-1,-1
1514894098109961,-1,0,-2,-3,0,0,-1,-2
1514894098109961,-2,-1,0,-1,0,-1,-1,1
1514894098110962,0,-1,-2,0,1,0,-1,-1
1514894098110962,-2,1,0,0,-1,-2,0,-1
1514894098140983,0,1,0,-1,-1,0,-1,-1
1514894098140983,-2,-2,-2,-1,-1,-2,0,-1
1514894098141984,0,-1,-2,0,-2,0,-1,-2
1514894098141984,-1,-1,-2,-3,-3,-2,-2,-1
1514894098163028,-1,0,0,-2,-1,-1,-1,-1
1514894098163028,-2,-1,-1,-2,-1,-2,0,-2
1514894098164531,-2,-2,-1,1,0,-1,-1,0
1514894098164531,-1,1,-1,0,0,0,-2,-1
1514894098169534,-1,-2,0,-1,-1,-2,0,-1
1514894098169534,-1,-3,-1,0,0,-2,0,-2
1514894098170535,-2,-1,1,-1,1,0,-1,-2
1514894098170535,0,1,-1,-1,-2,0,0,-1
1514894098192050,1,1,0,0,-1,-1,-1,-2
1514894098192050,-1,-2,-1,-2,-1,-1,-2,-1
1514894098193050,-2,-3,-4,-2,0,-2,-1,-2
1514894098193050,-2,-1,0,-1,1,-1,-1,-2
1514894098215580,-1,1,-2,0,-1,-1,-1,-1
1514894098215580,-2,-3,-1,-1,-1,-2,-2,-1
1514894098217066,-1,-1,1,-1,-2,-2,-1,0
1514894098217066,-1,-1,-1,-1,-1,-1,-2,-1
1514894098229585,-3,-3,-3,0,-1,-3,0,0
1514894098229585,1,3,-2,-2,-1,-3,-1,-3
1514894098230576,-1,-4,0,0,-2,-3,-1,1
1514894098230576,0,2,-1,-2,-2,-2,0,1
1514894098253593,-1,-1,-1,-1,2,-1,-1,0
1514894098253593,-1,-3,0,-1,0,0,-2,0
1514894098254093,-1,-1,-1,0,-1,0,-1,-1
1514894098254093,-1,0,-1,-1,-2,-1,0,0
1514894098275117,0,0,0,-2,-4,0,-2,0
1514894098275117,-2,-2,-1,-1,-1,2,-1,1
1514894098276118,1,-1,-1,-1,0,0,0,-1
1514894098276118,-3,-1,-3,0,-1,-1,0,-1
1514894098289618,-2,-1,-1,-2,-2,-3,0,-2
1514894098289618,-2,-3,0,-1,0,-2,-1,-2
1514894098290619,-3,-2,-1,-1,-1,-1,-2,-2
1514894098290619,-1,1,-2,0,-1,-1,-2,-2
1514894098313636,-1,0,-2,-1,0,0,-1,0
1514894098313636,-1,-1,1,-1,-2,-2,-3,-2
1514894098315637,-1,0,-2,-2,0,-1,-2,1
1514894098315637,0,0,-2,-2,-1,-1,0,-1
1514894098335662,-1,0,-1,0,-2,-1,-1,-2
1514894098335662,-2,-3,-2,0,0,-1,0,0
1514894098336152,-2,0,1,-1,-1,-1,-1,1
1514894098336152,1,1,0,0,-1,-1,0,-1
1514894098349678,0,-1,-1,-3,-2,-2,1,1
1514894098349678,0,-2,-1,1,1,-1,-2,-2
1514894098350661,0,-2,-2,0,-1,-1,-3,-3
1514894098350661,0,1,0,0,-2,-1,-1,0
1514894098380192,-1,-1,1,-2,-2,-1,0,1
1514894098380192,-1,-4,-1,-2,-2,-1,3,-1
1514894098381184,-2,0,-1,-1,-1,0,0,-1
1514894098381184,-2,-1,-2,-3,-1,-2,-2,-2
1514894098402708,-2,0,-2,-1,1,-1,-1,-2
1514894098402708,-2,-1,0,0,-1,0,0,0
1514894098403709,-1,-2,-1,-2,-2,-1,-1,-2
1514894098403709,-1,0,-2,-1,-1,-1,-2,-1
1514894098409713,-2,-2,-2,-3,-3,-2,-2,-1
1514894098409713,-2,-3,0,-2,-3,-2,0,-1
1514894098410203,-1,-1,-1,-1,-2,-2,-1,1
1514894098410203,-1,2,-2,-2,-2,-1,-2,-1
1514894098432732,0,-1,0,-1,-1,-1,0,-2
1514894098432732,-1,-3,0,-3,-1,1,-1,-2
1514894098433732,0,-1,0,0,-2,-2,-1,-3
1514894098433732,-2,-1,-1,-1,-1,-1,0,0
1514894098462741,-1,0,0,-1,0,-2,0,-1
1514894098462741,0,0,-3,0,-1,-1,-2,0
1514894098464743,1,-1,-1,-1,0,0,-1,-2
1514894098464743,0,0,-2,-1,0,-1,-1,-1
1514894098469746,0,0,0,-1,-2,-2,-2,0
1514894098469746,-2,-1,-1,-2,0,-2,-1,-1
1514894098470246,-2,-2,0,1,0,-1,-2,-2
1514894098470246,-1,0,0,-1,-1,-1,0,0
1514894098492762,0,-2,-2,0,-1,-1,0,0
1514894098492762,-2,-1,-1,0,-2,-2,-1,-1
1514894098493775,-2,-3,0,-1,-2,-3,0,-2
1514894098493775,-2,-1,-1,-2,1,0,-1,0
1514894098515289,-1,-2,-1,0,-2,-1,-2,-1
1514894098515289,-1,-1,-2,-1,0,0,-2,-1
1514894098516780,-2,1,-1,0,-1,-1,-2,0
1514894098516780,-1,0,0,1,-2,-2,-2,-1
1514894098531290,0,-1,-1,0,-1,-2,0,-1
1514894098531290,-2,-4,-1,-2,-2,-2,0,-2
1514894098531793,-1,0,-1,-1,0,-4,-1,1
1514894098531793,-2,-2,0,-2,-2,-1,1,-2
1514894098553314,-2,0,-2,-2,-1,1,0,-2
1514894098553314,-1,-2,0,-1,1,0,-1,-1
1514894098553805,-2,-1,0,-1,-1,0,0,-1
1514894098553805,-1,1,0,-3,0,-3,-2,-1
1514894098575330,-1,-1,0,1,1,-2,-3,0
1514894098575330,0,-2,-1,-3,0,-2,0,-2
1514894098576321,1,0,-1,-1,0,-1,-1,0
1514894098576321,-1,1,-1,0,0,0,0,-1
1514894098588840,-1,-1,-1,-3,-1,-1,1,-2
1514894098588840,-1,-3,0,0,-2,-2,-1,-2
1514894098597345,-1,0,-3,-1,0,-1,-1,-3
1514894098597345,0,0,-2,-1,-1,-2,0,0
1514894098612857,-2,0,0,-1,-3,-2,-3,1
1514894098612857,-1,-3,0,0,0,1,-1,0
1514894098613347,-2,-2,-1,-3,-2,-1,-2,-2
1514894098613347,-1,0,-2,-1,-2,0,0,-2
1514894098635387,-1,-3,-2,-1,-2,-2,-1,0
1514894098635387,0,-2,-1,-2,-2,0,-1,-1
1514894098635878,-1,0,0,0,0,-1,-1,0
1514894098635878,-1,2,-1,0,-1,-2,-2,-1
1514894098649373,-1,-1,-2,-1,-1,-1,-1,-1
1514894098649373,0,-2,-3,0,-2,-2,0,-1
1514894098656878,-1,-2,-3,-2,-2,-2,-1,-2
1514894098656878,-1,1,0,-1,-1,-1,-1,-2
1514894098672890,-2,0,-2,-2,0,0,0,0
1514894098672890,-1,-2,0,-1,0,0,-2,-1
1514894098673902,-2,-1,0,1,-1,0,1,0
1514894098673902,-1,-3,0,0,0,-2,-2,0
1514894098695915,-1,-2,-1,-1,0,-1,-1,-3
1514894098695915,-1,-2,-1,1,-2,-1,0,-2
1514894098696917,-1,-2,0,-1,0,0,0,-2
1514894098696917,0,2,-1,-1,0,-2,-1,-1
1514894098708924,-2,0,-1,-1,-1,-3,-1,-2
1514894098708924,0,-1,-1,-2,0,0,-1,-1
1514894098718431,0,1,-1,-2,-2,0,0,-2
1514894098718431,-1,1,-2,-2,-2,0,-1,0
1514894098732944,-1,-2,-1,-2,0,0,-1,0
1514894098732944,-1,-3,-2,0,0,-2,0,0
1514894098733934,-1,-2,0,-1,-1,1,-1,-1
1514894098733934,-1,0,0,-2,-1,0,0,-1
1514894098755948,0,0,-1,-1,-1,1,0,0
1514894098755948,-1,-2,-1,-1,-2,1,-2,0
1514894098756975,-1,0,-1,0,-1,-3,-2,-1
1514894098756975,0,0,-1,1,-1,-1,-1,1
1514894098768958,0,-4,-3,0,-3,-2,-2,-2
1514894098768958,-1,-2,0,-1,-1,-1,-2,-3
1514894098776979,-2,0,0,0,-2,-1,0,0
1514894098776979,-1,0,-2,-1,-1,-2,-1,-3
1514894098792474,1,-1,0,-1,-2,-1,-2,-2
1514894098792474,-1,-3,-1,-1,-1,-2,-1,-1
1514894098793484,-1,-1,-2,-2,0,-1,-3,0
1514894098793484,0,0,-1,0,-2,-1,-1,0
1514894098815493,-1,-1,0,-1,-3,1,1,-1
1514894098815493,-2,-1,0,-1,-2,0,-1,-1
1514894098816491,-2,-1,-1,0,-3,-2,-2,0
1514894098816491,0,1,-1,-1,-2,-1,-3,1
1514894098830010,-1,-2,0,-1,-1,-1,-1,-1
1514894098830010,-3,-4,0,-1,-3,-1,-1,0
1514894098837005,-2,-1,-2,-2,0,0,1,1
1514894098837005,0,0,-1,-2,-2,-1,-2,-2
1514894098853027,-1,0,-1,-1,1,-1,-2,-4
1514894098853027,-2,-2,-2,-2,-1,-1,-1,0
1514894098853516,-1,0,-1,-1,0,-1,2,-1
1514894098853516,-1,0,0,-2,-2,-2,0,-1
1514894098875541,-2,-1,-2,-2,0,-2,-2,0
1514894098875541,0,-2,-1,1,-2,-1,-3,-3
1514894098877043,0,-1,0,-1,-3,-2,-3,-1
1514894098877043,-1,0,1,0,1,-1,0,0
1514894098889051,-2,-1,-3,-2,-1,0,-2,0
1514894098889051,-2,-2,0,-1,-1,0,-3,-1
1514894098898549,0,0,-2,0,-1,-1,-1,1
1514894098898549,0,0,0,0,0,-1,0,1
1514894098913058,-1,-1,-1,-1,-1,-1,0,-2
1514894098913058,-1,-4,0,-2,-2,-1,0,-1
1514894098913559,0,1,1,-1,-1,-1,-1,-2
1514894098913559,-2,-2,-6,-2,-1,-1,-2,-1
1514894098942596,-1,-2,-2,1,0,-2,0,0
1514894098942596,-1,-1,-2,-1,-1,-1,-1,-1
1514894098943580,-2,0,-1,-3,0,-2,-3,-1
1514894098943580,0,2,0,-1,-1,0,-1,-1
1514894098957593,-2,-3,0,-1,-3,-1,0,-2
1514894098957593,0,-1,-1,-2,-1,-2,-1,0
1514894098958591,-1,0,-1,-1,-1,0,-2,0
1514894098958591,0,1,-1,-1,-1,0,1,0
1514894098972601,-1,-3,-1,-2,0,-3,0,1
1514894098972601,-2,-3,2,0,-1,0,2,0
1514894098973601,-1,0,-2,0,-1,-1,1,-2
1514894098973601,0,0,-2,-1,-1,1,-1,-2
1514894098996130,1,-1,-1,1,0,-1,1,-2
1514894098996130,-3,-4,0,-1,-1,-1,-2,-1
1514894098999120,0,1,0,-2,-3,-1,-2,-1
1514894098999120,-1,1,-1,-1,0,-1,-1,-1
1514894099018634,-1,-2,0,0,-1,0,-3,1
1514894099018634,-2,-2,-1,0,0,-1,0,0
1514894099022145,-1,0,-1,0,-1,-1,0,0
1514894099022145,0,2,-1,-2,-1,-1,-2,-1
1514894099031645,-2,-2,0,-2,-2,1,0,-2
1514894099031645,-2,-3,-3,-1,0,-2,-3,-2
1514894099041658,-2,-2,-1,0,-2,-1,-2,-1
1514894099041658,0,2,-1,-1,-1,-2,0,-1
1514894099055159,0,0,-2,-3,0,-1,-1,-1
1514894099055159,1,-3,-1,-2,0,-1,-1,0
1514894099057170,-1,2,-1,0,0,-1,0,1
1514894099057170,0,1,-2,-2,-2,-1,-2,2
1514894099077675,-1,-2,-1,-1,-2,-1,-1,-2
1514894099077675,0,-3,1,1,-1,-1,-1,-1
1514894099079176,-1,0,-1,-2,1,-1,-2,-1
1514894099079176,-3,1,-1,0,0,-1,0,-1
1514894099091685,-1,-1,-1,-1,0,-1,-3,-1
1514894099091685,0,-3,0,0,-3,-1,0,-1
1514894099100695,-1,0,-2,-1,-1,0,0,-1
1514894099100695,0,0,0,0,-1,0,-2,0
1514894099116205,-1,-1,0,0,-1,-3,-2,0
1514894099116205,-3,-4,-1,0,-1,-2,0,1
1514894099119704,1,-1,-1,0,-2,0,-1,-1
1514894099119704,-1,-1,-1,-1,-1,-2,0,-1
1514894099137727,0,-2,-1,-2,0,0,-2,-1
1514894099137727,-1,-2,-1,0,0,0,-1,-2
1514894099139219,0,0,-2,-1,-1,-2,0,-2
1514894099139219,-1,0,-1,-2,-2,-1,0,1
1514894099152237,0,-1,0,0,-1,-2,-1,-1
1514894099152237,-2,-4,-3,-4,-2,-2,-3,-2
1514894099159238,-1,0,0,-2,0,-1,-2,-1
1514894099159238,0,-1,0,-3,0,-2,-2,-2
1514894099175249,-1,-2,-2,0,-2,-3,0,-1
1514894099175249,0,-4,-2,0,0,0,-2,0
1514894099176744,-2,-1,0,-2,-2,-2,-1,-2
1514894099176744,-1,1,0,-1,-1,-1,-1,0
1514894099198764,-1,-2,0,0,-1,-2,1,-2
1514894099198764,-2,-2,-1,0,-1,0,-1,-2
1514894099203774,-3,1,-1,0,-1,-1,0,-1
1514894099203774,-1,0,-1,-2,-1,-2,-1,-3
1514894099221277,-1,-2,-1,-2,-2,1,-1,-2
1514894099221277,-2,-2,0,-1,-1,-1,-1,0
1514894099224779,0,1,-1,-2,-1,-2,0,-2
1514894099224779,0,2,-1,0,-2,-2,-1,-2
1514894099235786,-1,-3,3,0,0,-1,-1,-1
1514894099235786,1,-3,-8,0,-1,-2,-1,-2
1514894099241303,-1,0,-1,0,-2,0,0,0
1514894099241303,-2,1,0,-1,-2,-1,-2,-2
1514894099257803,-1,-3,-7,-2,-1,-3,-3,0
1514894099257803,-1,-2,3,0,0,0,0,-1
1514894099259304,0,1,-3,-2,-1,-2,-2,-1
1514894099259304,-1,0,-1,-2,0,-2,0,0
1514894099272312,0,-1,0,-2,-1,0,0,-1
1514894099272312,-1,-3,-2,-1,-1,-2,-1,-1
1514894099278817,-1,1,0,-1,-1,0,-1,0
1514894099278817,-1,1,-2,-1,-2,0,-1,-1
1514894099294328,-2,-2,-3,-1,-1,0,-3,-2
1514894099294328,-2,-2,0,-2,-1,1,0,0
1514894099302834,0,-1,1,0,0,-1,-1,1
1514894099302834,0,3,1,0,-1,0,0,0
1514894099317870,-3,-2,0,-2,0,-1,-1,-2
1514894099317870,-1,-2,0,0,0,-1,-2,-4
1514894099320347,-1,-1,0,-1,-1,-2,0,-1
1514894099320347,2,1,-3,-2,-1,-1,-1,0
1514894099332365,0,-3,1,0,-2,0,-1,1
1514894099332365,-1,-3,-1,-1,1,-1,-1,-1
1514894099338870,-2,0,-3,0,-1,-1,-1,0
1514894099338870,-1,1,-3,-1,-1,-3,-2,-1
1514894099355381,0,-2,-1,-1,-1,0,0,0
1514894099355381,0,-1,1,1,-1,0,-1,1
1514894099356882,-2,0,-1,-1,-1,-2,-2,-1
1514894099356882,-1,0,-2,-2,0,0,-1,-2
1514894099377919,-1,-2,-1,-2,-1,-1,1,1
1514894099377919,-2,-3,-2,-1,0,0,-2,-1
1514894099379420,-1,2,-1,-1,-1,-1,-2,-2
1514894099379420,-2,2,0,0,-1,-1,-1,-2
1514894099392429,-1,-4,-1,0,1,-2,-1,-2
1514894099392429,-1,-4,-2,0,-1,-1,0,-1
1514894099398935,-1,-2,0,-1,-2,-1,0,-3
1514894099398935,-1,1,3,-1,0,-1,-1,-1
1514894099415960,0,-2,-5,-1,-2,0,-1,-2
1514894099415960,-4,-1,1,-1,-1,-1,-1,-2
1514894099419450,-2,2,-1,-3,-1,-1,-1,-1
1514894099419450,-2,1,-2,-2,-1,-3,-1,-1
1514894099437971,-2,-2,1,-1,-2,-1,0,-1
1514894099437971,-1,-3,-1,-1,-1,-1,-1,0
1514894099439462,0,-1,-3,1,-1,0,-2,-1
1514894099439462,1,1,1,-2,-1,1,-1,0
1514894099451480,-1,-2,0,-1,-2,-1,-1,-2
1514894099451480,-2,-2,-2,-2,-1,-1,0,-1
1514894099461481,0,-2,1,-2,-1,0,0,-1
1514894099461481,-1,0,-3,-2,-1,-1,-2,-2
1514894099475488,-2,-3,0,-1,-1,-2,-3,0
1514894099475488,-1,-1,2,-1,-1,-1,-1,-2
1514894099477001,-1,0,-2,-1,1,-1,0,1
1514894099477001,-1,1,0,-2,-2,-3,1,-1
1514894099498513,0,-2,-3,-2,-2,-2,-1,-1
1514894099498513,0,-2,0,-2,-1,0,0,-1
1514894099500010,-1,0,-1,-2,0,0,-1,-1
1514894099500010,0,0,-2,-1,0,0,-1,0
1514894099511523,-1,-3,-1,-1,-1,-1,-3,1
1514894099511523,-1,-4,0,-1,-1,0,-1,0
1514894099521521,-2,0,0,0,-2,-2,-1,-1
1514894099521521,0,2,-2,0,1,-1,-1,-1
1514894099543045,0,-3,0,-1,-1,-2,0,-1
1514894099543045,2,-6,-1,-1,-2,-1,-2,-2
1514894099544537,-1,0,1,-2,-1,-2,0,1
1514894099544537,-1,-1,-7,-1,-2,-2,-2,-4
1514894099558046,-2,-1,1,0,-1,0,0,-3
1514894099558046,-4,-2,-2,-2,-1,-1,-1,0
1514894099559547,-1,2,0,-2,-2,-1,-1,-1
1514894099559547,0,0,-1,-2,0,-3,0,0
1514894099571556,-1,-2,0,-1,0,0,-1,0
1514894099571556,-2,-1,0,0,-1,-1,-1,-1
1514894099580562,0,0,-2,0,-2,1,-3,-1
1514894099580562,0,0,-3,-3,-2,0,-1,0
1514894099603078,-1,-2,-2,-2,1,0,-2,-1
