timestamp,emg1,emg2,emg3,emg4,emg5,emg6,emg7,emg8
1514949418039899,-2,-2,0,-3,0,0,-2,-3
1514949418039899,-1,-4,0,1,2,-1,-2,-2
1514949418040902,-1,-1,-1,0,-1,-1,1,-2
1514949418040902,-2,0,0,0,-1,-2,0,0
1514949418052909,-1,-2,-1,-1,-2,-1,0,-1
1514949418052909,-1,-1,-2,-2,-2,-1,-3,-2
1514949418062920,-1,-1,0,0,-2,-2,-1,-1
1514949418062920,1,-2,-2,-2,-2,-2,-1,-1
1514949418077929,2,-3,-2,0,-1,-2,0,0
1514949418077929,0,-2,-1,1,0,-2,-1,-2
1514949418078932,1,-2,-1,-2,-2,-1,-3,0
1514949418078932,-1,0,-2,0,-1,-1,-1,-1
1514949418099945,-2,-1,0,-3,-1,-2,-1,1
1514949418099945,0,-1,-1,0,-3,-3,-1,-1
1514949418100943,-1,-2,-2,0,0,-1,-1,-1
1514949418100943,-2,1,-2,0,-1,0,-1,-1
1514949418113952,-1,-3,-2,-1,-2,-3,-2,0
1514949418113952,-2,0,-2,-1,0,-2,-1,0
1514949418120959,-2,2,-1,-3,-1,-2,0,-1
1514949418120959,0,0,-1,-3,1,0,-2,-2
1514949418136967,0,0,0,-2,-1,0,-1,0
1514949418136967,1,-3,0,-1,0,-1,1,0
1514949418138969,-1,-2,-1,-1,0,-1,-3,-2
1514949418138969,-3,-1,-2,-1,-1,-1,-2,0
1514949418159987,-2,0,-2,-3,-3,-1,-1,-2
1514949418159987,-2,-2,1,-2,-1,-1,0,-1
1514949418160987,-1,-1,-1,-1,-3,1,1,-1
1514949418160987,-1,-2,-2,0,-1,-3,0,-1
1514949418173994,-2,-2,0,-1,1,0,-1,-1
1514949418173994,-3,1,-1,0,-1,-2,-1,-2
1514949418181000,-1,-1,0,-2,1,-4,-1,0
1514949418181000,1,-1,-1,0,-2,-2,0,-1
1514949418197010,-1,0,-2,-2,0,-1,1,0
1514949418197010,0,-1,-2,-1,-2,0,-2,0
1514949418199012,-1,-1,0,1,-2,-2,-3,-1
1514949418199012,-1,-1,0,-1,2,-1,-2,0
1514949418220026,-2,0,0,1,-1,1,0,0
1514949418220026,0,-1,-1,-1,0,-1,0,-2
1514949418221026,-1,0,-1,0,-1,0,-1,1
1514949418221026,-2,0,0,-1,-1,-1,-2,-2
1514949418234037,-2,-1,-2,0,0,-1,0,-2
1514949418234037,-2,0,-1,-2,-2,0,-1,-3
1514949418241042,-3,-3,-1,0,-2,2,0,1
1514949418241042,1,-1,-1,-2,-1,-2,-2,-1
1514949418257052,0,0,-2,1,-2,-1,-1,-1
1514949418257052,-1,0,0,0,-1,-2,0,-1
1514949418259053,-1,0,-2,-2,-3,0,0,-2
1514949418259053,-3,-1,0,-2,-2,1,-1,0
1514949418280068,-1,-4,-2,-1,-1,-2,-2,-3
1514949418280068,-2,-3,0,-2,0,-3,-2,0
1514949418281069,0,-2,-1,0,1,-2,-2,-1
1514949418281069,0,1,-2,-1,-2,0,0,-1
1514949418295080,-1,1,-2,-3,-2,1,-3,-2
1514949418295080,-1,0,-1,-1,-1,-1,-1,-1
1514949418301082,-1,-2,-2,-1,-1,-1,0,-1
1514949418301082,-1,-2,-2,-1,-1,-1,-2,-1
1514949418317106,-3,-2,-1,0,0,-2,-1,-1
1514949418317106,-1,-1,-1,-3,0,1,1,-1
1514949418319108,-1,-1,-1,0,0,-3,-1,-1
1514949418319108,0,-2,-1,-1,-2,-2,-1,-2
1514949418339130,-1,2,1,-1,-2,0,0,1
1514949418339130,-1,-2,-2,1,-3,0,-2,-1
1514949418341111,0,0,-2,0,-1,-2,-1,-1
1514949418341111,0,-1,0,-2,-1,-3,-1,1
1514949418354130,0,-3,-2,-3,-1,-1,-1,-3
1514949418354130,1,-3,-1,0,-1,0,-2,-2
1514949418361151,-2,-1,-1,-1,-3,-3,-1,-1
1514949418361151,-1,-1,-1,-1,0,0,2,-1
1514949418377146,0,-3,-2,-2,0,-2,0,-1
1514949418377146,-2,0,-2,0,0,-1,1,-2
1514949418379138,-1,-2,0,0,-2,1,-1,-2
1514949418379138,-3,0,-3,-2,-2,-2,-2,0
1514949418399152,-2,-1,2,-1,0,-1,-3,-1
1514949418399152,1,1,-1,0,-2,-3,1,-2
1514949418401153,0,1,-2,-2,0,0,-3,1
1514949418401153,0,1,-1,-1,1,0,-2,-1
1514949418413162,0,-2,-2,-1,-1,0,-1,-2
1514949418413162,-2,-2,0,-1,0,-2,1,0
1514949418422172,-2,-2,-1,0,-2,-1,-2,-1
1514949418422172,0,-2,-2,-1,-2,-1,0,-1
1514949418437194,-1,-3,-3,-1,-2,-1,-3,0
1514949418437194,-1,-4,0,-1,-2,0,-3,-1
1514949418439191,1,-2,0,-1,-3,-2,0,-3
1514949418439191,-4,-3,0,0,-2,-1,-2,-1
1514949418459212,-2,1,-1,-1,-1,-2,-1,0
1514949418459212,-1,-3,-2,-2,-1,0,-2,2
1514949418461206,-3,-1,-1,-2,0,-1,0,1
1514949418461206,-1,-1,-1,0,-3,-1,-1,1
1514949418473205,-2,-1,1,0,-2,-2,-2,-1
1514949418473205,1,-2,-2,0,-1,-2,-1,-3
1514949418484212,0,-1,-2,-1,-2,0,0,-3
1514949418484212,1,-1,0,0,0,-1,-1,-3
1514949418497221,-1,-1,-2,0,-2,-2,-2,-1
1514949418497221,-1,2,0,-2,-2,-1,1,-1
1514949418498222,-1,-2,-1,0,-2,-2,0,-1
1514949418498222,-1,2,-2,-1,-2,0,-3,-1
1514949418519295,-2,0,-1,-1,-1,-2,-1,-1
1514949418519295,0,-2,1,1,-1,-1,-1,-2
1514949418521267,-1,-3,0,-1,1,0,-2,-1
1514949418521267,-2,0,-1,-2,-2,-2,-3,0
1514949418533247,0,-4,0,-2,-1,-1,0,-2
1514949418533247,-2,-3,-2,-2,-1,0,-3,-1
1514949418542254,-2,0,-3,-1,0,0,1,-2
1514949418542254,0,-1,-1,-1,0,-2,0,0
1514949418557274,0,1,-1,1,-2,-2,-3,0
1514949418557274,-1,-2,-1,-1,-1,-1,-2,-1
1514949418558265,1,-3,2,-2,-1,-3,-2,0
1514949418558265,-2,-1,-1,-2,-1,-2,0,-2
1514949418580290,-2,0,-2,-2,-2,-2,1,-2
1514949418580290,-1,1,-2,-1,-1,0,0,-1
1514949418584293,-2,-2,-1,0,-1,-1,0,0
1514949418584293,2,-3,-1,-1,0,0,2,0
1514949418593290,-1,0,-1,-1,-1,0,-2,-1
1514949418593290,0,-1,-1,0,-1,-2,-2,-2
1514949418602308,0,1,-3,0,-1,0,-3,-1
1514949418602308,-2,0,-1,2,0,-2,-1,1
1514949418617316,-1,-4,-1,-2,1,0,0,-1
1514949418617316,-3,-2,1,-2,-1,1,-2,-1
1514949418618308,-1,0,-2,-1,-1,-2,0,-1
1514949418618308,0,-2,-2,-1,-3,-3,-2,0
1514949418640328,-1,-2,-3,-2,-1,-1,-2,-3
1514949418640328,-1,-3,0,0,2,0,0,-2
1514949418644326,-1,1,-1,-3,0,-1,-1,0
1514949418644326,-1,-1,1,-2,-1,-1,-1,-2
1514949418653331,-3,-3,-1,-2,0,-3,-1,1
1514949418653331,-1,0,-1,-1,-3,-2,0,-1
1514949418662338,-1,0,-1,0,-2,-2,-1,1
1514949418662338,-1,1,-1,0,0,0,-3,-2
1514949418677363,1,1,-1,0,-1,0,-1,1
1514949418677363,-1,-2,-2,-2,-1,-2,1,-1
1514949418678350,-2,0,1,0,-1,-1,0,-3
1514949418678350,-1,-3,-1,0,-3,-1,0,-1
1514949418699374,1,-2,0,0,-1,-2,-2,-2
1514949418699374,-1,-2,-2,0,-1,-1,-3,-2
1514949418701376,-2,-2,-2,-2,0,-1,0,-1
1514949418701376,-3,-1,0,-2,-1,-1,-1,-1
1514949418713387,-3,0,1,-1,-2,0,-1,0
1514949418713387,0,-1,0,0,-1,-2,-2,1
1514949418722398,-3,0,-2,-2,-3,0,-3,-1
1514949418722398,-1,-2,0,-1,0,-2,0,-1
1514949418737413,-1,-2,0,0,-2,0,0,-1
1514949418737413,-1,-1,0,-2,-2,-1,-1,-1
1514949418738400,-1,-2,-1,1,-2,-1,1,-1
1514949418738400,-1,0,-2,-2,-2,0,-2,-1
1514949418759423,1,-2,-2,1,0,-1,-1,-1
1514949418759423,-1,-1,-1,-1,-2,-3,-2,-2
1514949418759423,1,-3,-1,-2,-2,-2,-1,-1
1514949418759423,-1,1,-2,-1,-1,0,0,0
1514949418782423,-1,1,0,-2,-1,-2,1,1
1514949418782423,0,0,-2,-3,-2,0,-2,0
1514949418784428,1,-3,-3,0,1,0,-3,-2
1514949418784428,-3,-2,0,-1,-1,0,-1,-2
1514949418796433,1,-3,-2,-2,-1,-1,2,-2
1514949418796433,-1,-4,-2,-1,-1,-2,-1,-1
1514949418797434,0,0,0,-3,-1,-3,-2,-1
1514949418797434,0,-2,-1,-1,-3,-1,-1,-2
1514949418818463,-1,-2,-1,0,-1,0,-2,-2
1514949418818463,-1,-2,1,0,-2,-1,0,1
1514949418819450,-1,-1,0,0,0,0,0,-1
1514949418819450,-1,-2,-1,-1,0,-1,0,0
1514949418841476,0,0,0,0,-1,1,1,-3
1514949418841476,0,-2,-2,-1,1,-1,0,-1
1514949418842478,-2,-2,-1,0,0,0,-2,0
1514949418842478,-1,0,-1,-1,-1,-3,-5,0
1514949418856476,-2,-1,-1,-1,-2,-1,-2,0
1514949418856476,-1,1,-2,0,0,-2,-1,-2
1514949418857476,0,-1,0,-2,-1,-1,-1,-2
1514949418857476,0,0,-2,-1,-3,-1,-1,-2
1514949418878502,0,-1,-1,-3,-3,-2,-3,-1
1514949418878502,-2,0,-2,0,-2,-1,-1,-1
1514949418879491,-1,1,-2,-1,-1,0,-1,1
1514949418879491,0,1,-1,-2,-1,-1,-2,-1
1514949418901520,-1,-1,-1,-1,0,0,0,0
1514949418901520,0,-1,1,-1,-1,-1,-1,-2
1514949418902520,1,-1,-1,0,-1,-2,0,-2
1514949418902520,-2,-2,-1,-1,0,1,-1,0
1514949418916517,-1,-3,0,0,-1,-1,-1,0
1514949418916517,0,-3,-1,-2,0,1,0,-1
1514949418917518,-1,1,0,0,0,1,-2,0
1514949418917518,0,1,-1,1,-2,-3,-2,-2
1514949418939535,-1,-1,-2,-2,-1,0,0,-3
1514949418939535,-2,-4,-2,0,-2,-1,-1,0
1514949418941536,0,0,-1,-3,-2,0,-2,-2
1514949418941536,-2,0,-2,-1,-1,0,-1,0
1514949418961549,1,-1,-2,-3,-1,0,1,-2
1514949418961549,0,-1,-1,-1,0,-2,-1,-2
1514949418962550,-3,-1,-1,-2,-1,-1,-2,-1
1514949418962550,-3,-2,-1,1,0,-2,-2,1
1514949418976573,-2,-3,-2,-1,-1,-2,-2,-1
1514949418976573,-2,-2,-1,-1,-2,-2,0,-1
1514949418976573,0,0,0,0,-1,-1,0,-1
1514949418976573,1,0,-2,-1,-1,0,-2,-1
1514949418999577,0,-3,-1,0,-1,-1,-2,0
1514949418999577,-2,-2,-1,-1,-2,-2,-2,-2
1514949419000577,-2,-1,-2,0,-1,-4,1,0
1514949419000577,-1,-1,1,-1,-1,-1,-1,-1
1514949419021592,0,0,-2,-3,-1,-1,1,-1
1514949419021592,-1,-2,0,-1,-1,-2,-2,-3
1514949419022610,0,2,-1,-1,0,-2,-3,0
1514949419022610,0,-2,-1,-1,-2,1,-1,0
1514949419036620,-1,-2,0,0,0,-1,-2,-1
1514949419036620,0,-1,0,0,-1,1,1,-2
1514949419036620,-1,-2,-2,0,-1,0,-2,0
1514949419036620,-1,-2,-2,-2,-2,-1,3,-2
1514949419058618,-2,-1,-2,-2,-2,-2,-3,1
1514949419058618,-1,-2,-2,0,-2,-2,0,0
1514949419059622,-1,-2,0,-1,-1,-3,-1,-2
1514949419059622,-1,-1,-2,-3,0,-1,-1,-2
1514949419081634,-1,-1,0,0,-1,0,-2,-1
1514949419081634,0,0,1,-1,0,-2,0,0
1514949419082635,-2,-4,-1,0,-1,0,1,-1
1514949419082635,0,-3,0,-1,-1,-1,0,-1
1514949419097646,1,0,-1,-1,-1,0,1,-3
1514949419097646,-1,0,-1,0,0,-1,0,-1
1514949419099647,-1,-2,-1,-1,-1,-1,-2,0
1514949419099647,-1,1,-1,-2,0,0,-2,1
1514949419118661,-1,-2,0,1,-2,0,0,-2
1514949419118661,-1,-4,-1,1,-1,-1,1,0
1514949419119661,-3,-2,0,-1,-2,-2,-2,-3
1514949419119661,0,1,-3,-1,-2,-2,0,-2
1514949419141687,-1,2,0,-3,-1,-1,-2,-1
1514949419141687,-2,-2,-1,-2,1,0,-2,0
1514949419141687,-1,-2,1,0,-1,0,1,-3
1514949419141687,0,-1,-1,-2,-2,-2,-2,0
1514949419156690,-2,-2,-2,0,-1,-3,1,-2
1514949419156690,0,-1,-2,-2,-1,-1,-1,-1
1514949419156690,1,0,-2,0,-1,-2,-1,0
1514949419156690,-1,-2,1,-2,-2,0,2,-2
1514949419178703,1,-3,-1,-1,-2,-3,1,-1
1514949419178703,-3,-1,1,-2,-2,-1,-1,-1
1514949419179703,-2,-3,-2,-2,-2,-2,0,-2
1514949419179703,-1,-1,-3,-1,0,-1,-3,0
1514949419201735,-1,-1,-1,0,0,-2,-2,-1
1514949419201735,0,0,-2,-1,0,0,0,-2
1514949419201735,-2,-1,0,-2,0,-1,-3,1
1514949419201735,-3,1,-1,-1,0,-2,-2,0
1514949419216739,-2,-1,-1,-2,-3,0,0,-1
1514949419216739,-2,0,-1,-1,-1,0,0,-1
1514949419216739,-2,-1,-2,-1,-3,0,0,-3
1514949419216739,-2,-2,0,-2,-1,-2,1,0
1514949419239757,-1,-3,0,-2,-1,-1,-1,-1
1514949419239757,0,-2,-2,1,-2,-1,-2,-2
1514949419241748,0,1,0,-1,-1,0,-2,0
1514949419241748,-1,0,-1,-1,-3,-1,0,-1
1514949419261776,-3,0,-3,-2,-3,-1,-1,0
1514949419261776,1,0,-1,-2,-2,-3,0,-3
1514949419262762,0,1,0,-1,0,-2,-1,-1
1514949419262762,-1,0,-1,1,-1,0,-3,-2
1514949419276784,-2,-2,-1,-1,-1,-1,-2,-1
1514949419276784,-2,0,-2,-1,-1,1,-2,-2
1514949419276784,0,-3,-1,-1,-2,0,-2,-2
1514949419276784,0,1,0,-1,-2,0,-2,0
1514949419298801,1,0,-2,-1,-2,-1,1,-2
1514949419298801,1,-2,-1,-2,0,-1,-3,1
1514949419299789,-1,-2,0,0,-2,-1,2,0
1514949419299789,-1,-1,-1,-1,-1,-1,-1,1
1514949419321804,0,-1,-1,-2,0,0,-3,-1
1514949419321804,0,-1,-3,0,-1,-2,-2,0
1514949419321804,-1,1,-2,-2,-1,0,-4,-1
1514949419321804,-1,-2,-1,-2,-1,-2,1,-2
1514949419335837,0,0,-1,-1,-1,0,-2,-2
1514949419335837,-2,-1,0,-2,-1,-1,-2,-1
1514949419343829,0,-1,-3,0,1,-1,-1,-1
1514949419343829,-1,-2,-2,-1,-2,-1,-1,-3
1514949419358830,0,-1,-2,1,0,-2,-2,-3
1514949419358830,-2,-3,-1,0,-1,0,1,-1
1514949419359831,-1,0,-1,0,-3,-1,1,1
1514949419359831,-1,-2,-1,0,0,-1,-1,0
1514949419382863,0,-1,0,-2,0,-1,-2,-1
1514949419382863,-1,-2,0,-2,-3,-3,1,2
1514949419384863,-1,0,-1,-2,0,-1,0,-5
1514949419384863,0,-1,-2,0,-1,-2,0,-2
1514949419397875,0,-1,-2,-1,-1,-2,-1,-1
1514949419397875,0,-1,-2,-2,-2,1,-1,0
1514949419398876,1,1,-1,-2,0,-3,-4,-2
1514949419398876,0,0,-2,-1,-2,-1,-1,-2
1514949419418873,-2,-3,1,-2,-1,-1,-1,-2
1514949419418873,-1,0,-1,-2,-1,-1,1,-1
1514949419419873,-1,-1,-2,0,-2,-3,-2,-1
1514949419419873,-2,1,-2,-1,0,-1,-2,-2
1514949419440889,0,0,0,0,0,-1,0,-1
1514949419440889,-2,-1,-1,-2,-2,-2,-1,-2
1514949419441889,-1,0,0,-2,-1,0,-2,-1
1514949419441889,-2,-3,0,0,-1,-1,0,0
1514949419455899,0,-2,-2,-1,-1,-2,1,-1
1514949419455899,0,-2,-2,-2,-1,-3,-4,-3
1514949419463914,-3,-2,0,-2,-1,-1,-1,-1
1514949419463914,0,-3,0,-2,0,0,1,-1
1514949419478915,-1,-2,0,-2,-1,0,-2,0
1514949419478915,1,0,0,0,-1,0,0,-3
1514949419479916,-2,-1,-1,-1,-2,-1,-1,1
1514949419479916,0,-1,-2,0,-1,-1,-2,-1
1514949419500943,1,-4,-2,1,-1,0,1,-3
1514949419500943,-2,-3,-2,-1,0,-1,-2,-2
1514949419501931,-2,-1,0,1,-1,-1,-2,0
1514949419501931,-2,0,-1,-1,-1,-1,-3,-2
1514949419515942,0,-1,-1,1,-3,-2,-1,-1
1514949419515942,0,1,0,-1,-2,-2,1,-3
1514949419523960,0,0,-3,-1,-1,0,0,-1
1514949419523960,-2,-3,0,-2,-2,-2,-1,-2
1514949419538957,-2,-2,0,-2,-1,0,-1,0
1514949419538957,1,-1,0,-1,-1,-2,-2,0
1514949419539972,0,0,-1,-2,0,-1,0,-2
1514949419539972,-2,1,0,0,-1,-1,-1,1
1514949419560986,0,-3,-2,-2,-1,-2,0,1
1514949419560986,-2,-1,0,1,-2,-1,-1,-3
1514949419561973,1,0,0,-1,-1,-1,-2,-3
1514949419561973,0,-1,-1,-3,-1,-2,0,1
1514949419575983,-2,-1,0,-1,-1,-2,-1,0
1514949419575983,-2,0,0,1,0,0,-1,0
1514949419583989,0,-1,-1,-2,-2,0,-2,1
1514949419583989,0,-1,0,-1,-1,0,-1,-1
1514949419599000,-2,-2,-1,-1,-1,-1,0,-3
1514949419599000,-2,-3,-2,-2,0,0,-1,1
1514949419600003,-1,-2,-2,0,-1,-1,-1,-1
1514949419600003,0,0,-1,-1,-1,-3,-2,-1
1514949419621015,1,-1,-2,-1,1,0,-1,-2
1514949419621015,-2,-2,-2,0,-2,0,-1,-2
1514949419622025,-2,0,-1,-1,0,-1,-1,0
1514949419622025,-2,3,-1,-3,0,0,-3,-1
1514949419636026,-1,-2,-3,-2,-1,-2,-1,0
1514949419636026,-2,-1,0,0,0,0,-2,-2
1514949419644032,-1,0,-1,-1,0,0,-2,-1
1514949419644032,-2,-1,-2,-2,-1,0,1,-2
1514949419659042,-1,-2,-1,0,0,0,-2,-2
1514949419659042,0,-2,0,-1,-1,0,-2,1
1514949419660043,-2,0,-1,-2,-1,-2,-2,0
1514949419660043,1,-3,-2,0,-2,-3,0,0
1514949419681063,0,1,0,-2,-2,-2,0,-2
1514949419681063,-3,-2,0,-3,-2,1,1,-1
1514949419683059,1,-1,-2,-1,-1,-2,2,0
1514949419683059,0,-2,-2,-1,-1,-1,-1,0
1514949419696068,-3,1,-1,-1,-3,-2,-1,-2
1514949419696068,1,-2,-2,-1,0,-2,-1,-1
1514949419704074,-1,0,0,-1,-1,-1,-2,-1
1514949419704074,0,-1,-1,-1,1,0,-2,-2
1514949419719087,-2,-1,-1,0,-3,-2,0,0
1514949419719087,-1,-1,-3,-1,0,-1,0,-2
1514949419719087,-3,-2,-1,-1,-2,-1,-2,-1
1514949419719087,-1,0,-1,-2,-1,-1,-2,-1
1514949419742122,-2,-2,-1,-1,-2,1,-2,-3
1514949419742122,0,-1,0,-2,-1,-2,0,-2
1514949419744115,1,-1,-3,-1,0,-3,-1,-1
1514949419744115,-1,0,-1,-2,-1,-2,-1,-2
1514949419765118,-2,-2,0,-1,-1,0,0,0
1514949419765118,-2,-1,1,0,-1,-3,-2,0
1514949419765118,1,1,-1,0,-2,-1,-1,-1
1514949419765118,-2,-2,0,0,0,-1,0,-1
1514949419779127,-1,-2,-1,1,-1,0,-1,-1
1514949419779127,-2,-2,-2,-3,-1,-1,-2,-1
1514949419780129,-2,-1,0,-1,-2,0,-1,-1
1514949419780129,-1,-1,-2,-1,-2,-1,-1,-1
1514949419801143,-2,-2,-2,0,-1,0,-2,-1
1514949419801143,1,1,-2,-2,-1,0,2,0
1514949419802143,-3,-2,-2,-2,-1,-1,-1,-1
1514949419802143,-2,-2,-1,-1,-1,-2,-1,-1
1514949419824174,1,-3,-1,-1,0,-1,-1,-1
1514949419824174,-1,-1,-1,-1,-2,-3,-2,-1
1514949419825173,1,1,-4,-2,-2,-1,-3,-1
1514949419825173,-1,0,-1,-1,-2,-3,0,-1
1514949419840172,-2,-1,1,-1,0,-1,-1,-3
1514949419840172,-3,0,0,1,0,0,0,-3
1514949419841172,0,-1,1,0,-1,-1,0,-2
1514949419841172,-3,-2,-2,-1,0,-2,-1,1
1514949419861197,-1,1,-3,-3,-1,0,0,0
1514949419861197,0,-2,-1,0,-1,-2,-1,0
1514949419862185,-2,-2,-1,-1,-1,-1,-3,-1
1514949419862185,1,-2,0,-1,-2,-1,-3,0
1514949419885202,-1,-2,-2,-1,-1,-2,0,-2
1514949419885202,-2,0,-1,-3,0,-1,-1,-1
1514949419887207,-2,0,-1,-2,-1,0,-2,-1
1514949419887207,-2,-2,-2,0,-1,-1,-1,-2
1514949419899224,-1,-3,0,1,0,-3,-2,0
1514949419899224,-1,-2,-1,-1,0,0,-1,-2
1514949419899224,0,-3,-1,0,-2,-2,-1,0
1514949419899224,0,0,-1,-1,-2,1,0,0
1514949419921258,1,1,0,-3,-2,0,1,-1
1514949419921258,-2,0,-1,0,-1,0,-2,-3
1514949419922228,-1,-1,-1,0,1,-2,-2,-1
1514949419922228,-1,0,-1,-2,-3,-2,1,-3
1514949419944244,-1,-4,-3,-2,0,-1,0,-1
1514949419944244,-1,-2,0,-1,-3,-3,-2,1
1514949419945244,-2,-1,-1,0,-1,-1,-1,-1
1514949419945244,-1,-1,-1,-3,-2,-1,-1,-4
1514949419959264,-1,-2,-2,-2,-1,-2,0,-4
1514949419959264,0,1,0,-2,-2,0,-1,0
1514949419960270,-1,-1,0,0,0,-2,-1,0
1514949419960270,-1,-3,0,-1,0,-1,-2,0
1514949419982271,1,1,1,1,0,-2,-1,0
1514949419982271,-2,-2,0,-1,-1,-1,0,-2
1514949419983272,-2,-2,-1,0,-1,-2,2,1
1514949419983272,-2,0,-2,-1,-1,0,-3,1
1514949420004286,-1,0,0,-1,-1,-1,0,0
1514949420004286,2,-2,-1,0,-1,-1,-1,0
1514949420005287,0,0,-1,-1,-1,0,-1,-1
1514949420005287,-2,-3,-1,0,-1,-1,-1,-1
1514949420019297,0,0,0,-2,-2,-2,-5,-3
1514949420019297,-2,0,-1,-1,0,-1,1,-2
1514949420019297,1,1,-1,-2,-1,-2,0,-1
1514949420019297,0,0,0,-1,0,0,-2,2
1514949420041313,-1,-1,-1,-1,-2,0,1,-1
1514949420041313,-2,-2,-1,-1,0,-2,-1,-1
1514949420042314,-2,-1,-2,-1,-2,-2,-1,-2
1514949420042314,-1,0,-1,-1,-1,0,-1,-2
1514949420064342,-1,-1,0,0,-1,0,-1,-1
1514949420064342,-1,-2,-2,0,-1,1,-1,-2
1514949420065338,-1,2,-2,-1,-1,-1,0,-2
1514949420065338,1,-2,-3,-2,-1,-3,0,-4
1514949420078338,-2,-4,-2,-1,-2,-1,0,1
1514949420078338,-2,-2,-2,0,-1,-1,-2,-1
1514949420080340,-2,2,0,-2,-1,-2,-2,1
1514949420080340,-1,-1,-2,-1,-2,-3,2,-2
1514949420101354,-2,-2,-1,0,-1,1,0,-1
1514949420101354,0,-1,0,-1,-1,-2,-1,-2
1514949420102355,-1,-2,-2,-2,-2,-1,-2,-2
1514949420102355,-1,-1,0,0,-1,0,0,-1
1514949420124383,-1,-1,0,-1,-1,-2,2,-3
1514949420124383,1,-1,0,0,1,-2,-1,-1
1514949420125372,-2,0,-2,-1,0,-2,-2,1
1514949420125372,-2,0,-2,-2,0,0,-2,-1
1514949420139384,-2,-3,-2,-1,-1,0,-3,0
1514949420139384,-1,0,-3,-2,-2,-2,1,-2
1514949420141395,0,0,0,-1,0,-1,-1,0
1514949420141395,-1,2,-1,-1,0,-3,-1,0
1514949420161397,-1,-1,-1,-2,-1,0,-2,-3
1514949420161397,-3,-3,-1,-2,-2,-2,-2,0
1514949420162400,0,1,-2,1,-1,0,-1,-2
1514949420162400,0,1,-1,-1,-1,0,-1,2
1514949420185430,0,1,-1,0,-2,-1,0,-1
1514949420185430,-1,-1,-2,0,-2,-1,1,0
1514949420187416,-1,-3,-2,-1,-2,0,-2,-3
1514949420187416,0,-2,-3,0,-2,-1,-1,1
1514949420198424,0,-4,0,1,0,-1,1,-2
1514949420198424,0,-2,-1,-1,0,-2,-2,-1
1514949420199424,-2,-3,1,-3,1,-2,-1,-2
1514949420199424,-4,-2,0,-1,-2,-2,1,-2
1514949420230447,0,0,-2,-2,-1,-1,-3,0
1514949420230447,-1,1,-1,0,-2,-2,-1,0
1514949420232448,-1,-1,0,0,-1,0,0,-1
1514949420232448,-1,-2,-1,-2,-1,-1,-1,-1
1514949420244456,-1,-2,-1,-2,0,-2,0,-1
1514949420244456,1,-2,-1,-1,-2,0,-5,-2
1514949420245469,0,2,-2,-4,-1,-3,-1,0
1514949420245469,-1,0,-1,-1,-1,0,-1,0
1514949420258476,-2,-1,-2,-1,-2,0,-2,-1
1514949420258476,1,-1,0,0,1,0,0,1
1514949420259482,-1,-3,0,-1,0,1,-4,0
1514949420259482,-2,-3,-1,0,1,-1,1,-4
1514949420282483,1,1,-2,-2,0,-1,0,-1
1514949420282483,-1,-1,-1,-1,0,1,-1,-2
1514949420284488,-1,-1,-2,-1,-1,-1,0,-1
1514949420284488,0,-3,-1,-1,-1,0,-2,1
1514949420304508,-1,-1,0,-1,-2,-3,-3,-1
1514949420304508,-1,-2,-1,-3,-1,-3,-1,-1
1514949420305509,0,-2,-2,-2,-3,0,1,1
1514949420305509,0,-1,-2,-2,-2,-3,-2,-2
1514949420318520,-2,-2,0,1,0,-2,-1,-1
1514949420318520,-2,-1,-1,-2,1,0,-1,-1
1514949420319509,-2,-1,-1,0,-2,-2,-3,-1
1514949420319509,-1,-1,-1,0,-1,-1,-1,-1
1514949420342535,-1,0,-2,0,-2,-2,-2,-1
1514949420342535,-2,-1,-1,0,-2,-2,1,0
1514949420343526,1,-2,0,0,0,-1,-1,-2
1514949420343526,0,1,0,-2,-2,0,-2,0
1514949420364553,0,0,-2,-1,-2,-1,0,0
1514949420364553,-3,-1,0,1,-2,-1,-1,-1
1514949420365554,-1,-2,-2,-1,-1,0,-2,0
1514949420365554,-2,-1,-2,0,0,-1,0,-1
1514949420378563,1,-3,0,-1,0,-1,0,-1
1514949420378563,-1,0,-1,-3,-1,-1,-2,-1
1514949420379562,-2,-1,-2,-1,-1,0,0,-1
1514949420379562,-1,0,0,-2,0,-2,-2,-2
1514949420401576,-1,-1,-2,-2,-2,-1,0,-1
1514949420401576,-1,-2,0,-1,-1,0,0,0
1514949420401576,-1,0,-1,0,-1,-2,1,0
1514949420401576,-1,-1,-2,-2,0,1,-2,0
1514949420424596,1,-4,0,0,-2,0,-3,-2
1514949420424596,-3,0,-1,-1,0,-2,0,-2
1514949420425594,-2,-1,-2,-1,-1,-2,-4,-2
1514949420425594,-1,-1,-1,-1,-2,0,0,-3
1514949420439595,-3,-2,-2,-1,-1,-1,0,0
1514949420439595,1,-2,1,0,-1,1,-1,0
1514949420446599,0,-1,0,-1,-2,0,0,1
1514949420446599,0,-1,-2,-1,-1,-3,-2,0
1514949420461610,1,-1,-2,-1,-1,0,-3,-2
1514949420461610,-2,-1,-2,-2,-1,-1,-3,0
1514949420461610,-1,-1,0,-2,0,-1,-1,-2
1514949420461610,0,-2,-1,-2,-1,-1,1,0
1514949420485626,0,-1,-3,-2,0,-2,2,-1
1514949420485626,1,-2,-1,-1,0,-3,-1,-1
1514949420487631,0,0,0,-1,-2,-1,-1,-1
1514949420487631,-2,2,0,0,0,0,-3,-1
1514949420498635,-1,-2,-1,0,-1,0,-2,0
1514949420498635,-2,0,-1,0,0,0,0,1
1514949420506641,-2,-1,-1,0,-2,-1,-1,1
1514949420506641,-2,0,-2,-2,-2,-2,-1,-1
1514949420521683,0,-3,-1,-2,0,0,-1,-3
1514949420521683,1,-1,-2,-3,-2,-1,0,-2
1514949420522667,-2,-1,-1,0,-2,-1,0,-2
1514949420522667,-2,-1,-1,-1,0,-1,1,-2
1514949420544667,-1,-1,0,-2,-1,0,0,-1
1514949420544667,0,-2,-3,-1,-2,-1,-1,-1
1514949420545669,0,1,-2,-2,-2,-1,-1,2
1514949420545669,-1,-2,1,-1,-1,0,-1,2
1514949420558682,-2,0,-1,1,0,0,0,-1
1514949420558682,-4,-1,-1,-1,-1,-1,-1,-3
1514949420566683,2,0,-2,-2,1,-1,0,-1
1514949420566683,0,-3,-1,-2,-1,-1,-1,0
1514949420582697,-2,-3,-1,-1,-2,-1,-1,-1
1514949420582697,-2,-3,-1,-1,-1,0,-1,1
1514949420584696,-3,-1,-1,0,-1,0,-2,-2
1514949420584696,-1,0,-2,-1,-1,-3,0,-2
1514949420604727,-1,-1,0,-1,1,1,-1,-1
1514949420604727,-1,0,-1,-1,-1,-2,0,-3
1514949420605711,0,-2,-1,-3,-1,-2,-1,0
1514949420605711,-2,-1,-1,-1,-2,-1,0,-1
1514949420617732,-1,-1,-1,0,-2,-1,2,-2
1514949420617732,-1,0,-1,-1,0,0,-2,1
1514949420626736,0,-2,0,-1,-1,-2,0,0
1514949420626736,-2,-2,-2,-3,-2,-1,-2,-1
1514949420642738,-1,-1,0,-2,-2,-3,1,-1
1514949420642738,0,-1,1,0,-1,-2,-1,-2
1514949420643738,0,0,-2,-1,1,0,-2,-3
1514949420643738,1,2,-1,-1,-1,0,-1,0
1514949420664753,-2,-2,-2,-1,-1,0,-3,2
1514949420664753,-2,-1,0,-1,-2,0,-1,-2
1514949420665770,-3,-1,-3,0,-2,-1,-2,0
1514949420665770,0,-5,-1,1,-1,0,-1,-2
1514949420677777,-1,0,-2,-2,-1,-2,-3,0
1514949420677777,1,-2,-3,-3,-3,1,1,2
1514949420686769,-1,0,2,-2,-2,0,0,-1
1514949420686769,0,-1,-1,0,0,-1,-1,-1
1514949420701783,0,-1,0,-1,-1,-1,-1,0
1514949420701783,0,-1,0,-1,-1,0,-2,-3
1514949420702780,-1,-1,-1,-3,-2,-2,0,0
1514949420702780,-2,1,-2,-1,-1,-1,0,-1
1514949420724805,0,-2,-1,-1,-2,-1,-2,-3
1514949420724805,0,0,-1,1,-3,-1,-1,-2
1514949420724805,-2,0,0,0,-1,0,-2,-2
1514949420724805,1,-1,0,-1,-2,-3,-1,-2
1514949420746823,-3,0,0,0,0,1,-1,-3
1514949420746823,-2,-2,-3,1,0,0,0,1
1514949420747812,-1,-1,-2,0,0,-1,0,0
1514949420747812,-1,-3,-1,-2,-2,-1,-1,0
1514949420761824,-1,-2,-1,0,-1,0,-3,0
1514949420761824,0,-2,0,-1,-2,0,-5,-2
1514949420762823,-3,-1,-1,0,-2,-1,-1,-1
1514949420762823,1,-2,-1,-2,0,-1,2,0
1514949420785839,-1,-4,-2,-1,-1,-2,0,-1
1514949420785839,-1,0,-1,-2,-2,-1,-1,0
1514949420786855,1,-1,0,-1,-2,-2,-3,0
1514949420786855,-2,-1,-2,-1,-3,0,-2,-3
1514949420806881,0,-2,-3,0,0,0,-1,-2
1514949420806881,-2,-1,-2,-2,0,-2,0,-1
1514949420807874,-2,-1,-1,-1,-1,-1,-1,-1
1514949420807874,0,-2,-1,-1,-1,0,1,0
1514949420821884,-1,0,1,-1,0,-2,0,1
1514949420821884,0,-1,-1,1,-2,-2,-2,-1
1514949420822869,-1,-2,-4,-1,0,-1,-1,-1
1514949420822869,-2,-1,-1,-1,0,0,-1,-1
1514949420844890,-2,-2,0,-1,-2,-2,2,-1
1514949420844890,0,0,-1,-1,0,-1,1,-3
1514949420844890,0,-1,-2,-3,-1,-1,-3,0
1514949420844890,0,-3,-1,-1,-1,-1,-2,1
1514949420866896,0,0,-3,-3,-1,-1,2,-1
1514949420866896,-3,-1,-3,-1,0,-1,-2,1
1514949420867897,-2,1,-1,-3,0,0,-1,-2
1514949420867897,-2,-1,-3,-2,-2,0,-2,-2
1514949420881907,-2,-3,1,1,-1,-1,0,-2
1514949420881907,0,-2,0,0,-1,-1,-1,0
1514949420890916,-1,-2,-3,0,-2,-1,0,-2
1514949420890916,0,-1,-1,0,-1,-1,-3,-3
1514949420904922,0,0,-3,-2,-1,-2,2,0
1514949420904922,-1,-1,0,-1,-3,0,-1,-1
1514949420905933,0,-1,-1,-2,-1,-1,-3,-1
1514949420905933,-3,-2,-1,-1,-2,-1,1,-1
1514949420926938,1,-2,-1,0,1,-2,-3,-3
1514949420926938,0,-2,-2,-1,-1,0,-1,-3
1514949420929962,-2,0,0,-2,-1,0,1,1
1514949420929962,-1,-3,-1,-1,0,-2,0,-1
1514949420940962,-3,-1,0,0,-2,0,-2,-2
1514949420940962,1,-2,-2,-2,-3,0,-3,-1
1514949420949966,1,-2,-1,0,-3,-1,-1,-4
1514949420949966,0,-1,-3,-1,-1,-2,0,1
1514949420964979,-1,-2,-2,0,-3,-1,-1,-2
1514949420964979,-2,1,-1,0,-1,-1,0,-1
1514949420966976,0,-2,-2,-1,-1,-2,-3,-3
1514949420966976,-1,-1,0,0,0,0,-1,-1
1514949420987985,1,-1,-1,-3,-2,-1,0,-1
1514949420987985,-4,-1,-1,-3,0,-1,-2,-1
1514949420990987,-2,2,-3,-1,-1,1,1,-1
1514949420990987,-3,0,-1,-1,0,-1,-1,-2
1514949421000990,-1,-2,-2,-1,0,-1,-2,-1
1514949421000990,-3,-1,-2,-1,0,-1,0,-1
1514949421010009,-1,-1,-2,-1,0,-1,-1,1
1514949421010009,-1,-2,0,-2,-2,-1,1,0
1514949421024038,0,0,-1,-2,-1,0,0,-3
1514949421024038,-1,0,-1,0,-2,-1,2,0
1514949421028019,1,-2,-2,0,-1,-2,0,-1
1514949421028019,0,-1,-1,0,-1,0,-2,-1
1514949421047023,0,-2,-2,-3,-2,-1,-1,-1
1514949421047023,0,-3,-3,0,0,-1,0,-1
1514949421049024,-2,-3,0,-1,-1,-1,-1,-2
1514949421049024,0,0,-1,0,-1,-1,-1,-3
1514949421061045,-1,-2,-1,0,0,-3,-2,-2
1514949421061045,1,-2,-1,-1,-1,-1,0,-1
1514949421068050,-2,0,0,-1,0,-1,1,-1
1514949421068050,-1,-2,-1,-1,-2,-2,-2,-1
1514949421085050,-3,0,-1,-1,0,1,-1,1
1514949421085050,0,-1,-1,-1,0,-1,-2,-3
1514949421089065,1,1,-1,-1,0,-2,-2,1
1514949421089065,-3,-1,0,-2,1,-1,-2,-3
1514949421107070,-4,-1,0,-2,-2,-1,-1,1
1514949421107070,-2,-1,-1,-1,0,-1,-3,0
1514949421108070,1,-2,-1,-1,0,-2,-2,0
1514949421108070,0,-1,-2,-2,-1,-2,-1,-1
1514949421121076,0,-2,-1,0,-1,-1,-1,0
1514949421121076,-1,-1,-1,-3,0,-1,-1,-1
1514949421128080,-3,0,-1,0,0,-1,1,-2
1514949421128080,0,-2,-1,-1,-1,-1,-1,0
1514949421144105,0,-1,1,0,0,-1,0,-1
1514949421144105,-1,-3,0,0,-3,-2,1,-3
1514949421150096,0,-1,-1,0,-2,-2,-1,-1
1514949421150096,-1,-2,-1,-1,-1,0,1,-3
1514949421167109,-1,0,0,-2,-1,0,0,0
1514949421167109,1,-1,-1,-2,-1,-1,-1,0
1514949421169120,-2,0,-1,-1,-1,-1,0,2
1514949421169120,-3,0,-1,0,0,-2,-3,-1
1514949421182119,1,1,-1,1,-1,-1,-1,-2
1514949421182119,-3,0,-2,-1,-2,1,-2,-1
1514949421189124,-1,-1,-2,-3,-3,1,-1,-1
1514949421189124,0,-2,-3,-2,-2,-1,-1,-1
1514949421204146,-2,-1,-3,-1,1,-2,-1,-1
1514949421204146,0,0,-1,-2,-2,-3,-2,-1
1514949421206136,-2,-1,-2,-1,-1,-1,1,-1
1514949421206136,-2,-2,-1,-1,-2,0,-1,-1
1514949421227150,0,0,-1,-2,-2,-1,-1,0
1514949421227150,-1,-1,-1,-1,0,-1,-2,-1
1514949421229153,0,-2,-1,0,-2,0,-3,-1
1514949421229153,1,0,-2,-1,0,1,-1,0
1514949421241162,0,-4,-1,0,0,-2,1,-2
1514949421241162,-2,-1,-2,0,0,-2,-1,1
1514949421250166,-4,-1,0,-2,-1,-2,0,-3
1514949421250166,-1,-2,0,1,-1,-1,1,-1
1514949421265177,-1,-1,-2,-1,-3,-1,-3,-2
1514949421265177,1,-1,1,0,-1,-1,1,-2
1514949421266194,-2,-1,1,-2,0,0,-3,-1
1514949421266194,-1,0,0,0,0,0,-3,-3
1514949421288193,0,-1,-1,-1,-3,-2,-1,-2
1514949421288193,-1,0,-1,-1,-1,0,-3,0
1514949421290196,-1,-2,-3,-1,-1,1,0,0
1514949421290196,-1,-2,-2,-1,-2,-1,1,2
1514949421300214,0,-1,0,-1,0,0,-2,-2
1514949421300214,-1,0,0,-2,0,-1,-2,0
1514949421309221,-1,0,-2,-1,-2,-2,-1,-1
1514949421309221,0,-1,0,-1,-1,-1,1,-3
1514949421324232,-1,-2,0,0,0,-2,-2,0
1514949421324232,-1,-2,-2,-2,-1,-2,-1,0
1514949421327231,-2,-1,0,-1,0,0,-1,0
1514949421327231,0,0,-2,-1,-2,-2,-1,1
1514949421347235,-1,-2,0,-2,-2,-1,-1,-3
1514949421347235,-1,-2,0,0,0,-1,-1,-1
1514949421348238,0,0,-4,-1,-1,0,-1,0
1514949421348238,-3,-2,-1,0,-2,0,0,-1
1514949421361269,0,-2,1,1,-2,-1,0,-1
1514949421361269,-2,-2,-1,-1,-1,-2,0,-3
1514949421369250,1,-1,-1,-1,0,-2,-2,-1
1514949421369250,0,-4,-1,-1,-2,-1,-1,-2
1514949421384265,-3,0,0,-1,-1,1,-2,-1
1514949421384265,-2,-1,1,-1,-2,0,1,-2
1514949421387276,0,-1,1,0,-1,-2,-2,-2
1514949421387276,-1,-1,-1,-1,0,0,-1,0
1514949421407295,-2,0,-2,-3,0,0,-2,-1
1514949421407295,-1,-2,0,-1,-2,-1,1,-2
1514949421408289,-1,-3,-1,-2,-2,-3,-2,-2
1514949421408289,0,0,-1,0,-1,-3,-1,1
1514949421420299,-1,-1,0,-1,0,-1,0,-1
1514949421420299,1,-1,-2,-2,1,-3,-1,-1
1514949421429296,-1,-4,-1,-1,-1,0,-1,0
1514949421429296,0,-2,1,0,-1,-1,-1,-1
1514949421444303,-1,-4,-2,-2,-2,0,0,1
1514949421444303,-3,-1,-1,1,-3,-1,1,-1
1514949421446308,-1,-2,1,-2,-1,-2,0,-2
1514949421446308,-3,0,-2,-1,-2,-1,0,-1
1514949421467330,-2,-1,-1,1,-3,-2,-1,0
1514949421467330,-1,-2,-3,-1,-1,-1,-2,-1
1514949421469325,-1,-1,-1,-2,-1,-3,-2,-2
1514949421469325,-2,-1,-1,-4,-2,0,-2,-1
1514949421481331,0,0,-2,-1,-1,-3,-2,-1
1514949421481331,-2,0,0,-1,-3,-3,-2,1
1514949421490336,-4,-1,-3,-1,0,1,1,0
1514949421490336,-2,0,-1,-2,-2,-3,-2,-2
1514949421504346,0,-3,-1,2,-1,-1,-1,-2
1514949421504346,1,-1,0,-3,-1,0,-2,-3
1514949421506349,0,-1,-1,-1,-1,0,-2,0
1514949421506349,-3,-1,0,-1,-1,-2,-1,-2
1514949421527365,-1,-4,-1,-2,0,-1,1,1
1514949421527365,-1,-1,0,-2,-1,-1,0,-2
1514949421528364,0,2,-1,-3,0,0,1,2
1514949421528364,-1,-1,0,-1,-1,-1,0,-2
1514949421540373,-2,0,-1,-2,0,-2,-3,1
1514949421540373,-1,1,-1,-1,-2,0,-2,-1
1514949421557391,-2,-2,-2,0,-1,-2,-1,-2
1514949421557391,-2,-3,-1,0,1,-2,0,-1
1514949421564388,1,-1,0,-1,1,0,0,-2
1514949421564388,-4,-1,-2,-1,-2,-1,0,0
1514949421566390,0,-2,-1,-3,-1,-2,-1,-1
1514949421566390,-1,0,0,-2,-2,-1,-2,-2
1514949421587404,-2,2,-1,-2,-1,-2,-1,-2
1514949421587404,0,0,-2,-2,-2,0,-1,1
1514949421591426,-1,0,-2,-2,0,0,-4,-2
1514949421591426,1,-3,0,-2,-1,-3,-1,0
1514949421600429,-2,-3,-2,-1,-1,0,-1,0
1514949421600429,-3,1,-1,1,-1,0,-2,-2
1514949421609423,-2,0,-2,0,0,-1,0,-1
1514949421609423,0,-1,0,-2,-2,0,0,-1
1514949421624455,-1,0,-1,-1,-1,-1,-1,-2
1514949421624455,-1,-1,0,0,-1,-1,0,-1
1514949421626435,-3,1,-2,-1,-3,-2,-3,-2
1514949421626435,-1,0,-3,0,-2,0,0,-3
1514949421647447,-1,-1,-1,-1,-1,-2,-2,-2
1514949421647447,0,-2,-1,-1,0,1,-2,-1
1514949421650462,-2,0,0,-1,0,-2,1,-2
1514949421650462,-1,-3,-3,0,0,-1,-2,-1
1514949421660467,1,-3,0,-1,-2,-2,0,-2
1514949421660467,0,-2,-1,-1,0,-1,-2,-1
1514949421669464,-2,-1,1,-1,-2,0,-2,-1
1514949421669464,-2,-2,-1,-2,-2,1,0,-2
1514949421684473,0,-1,-2,0,0,1,0,-1
1514949421684473,-1,-2,-1,-1,0,0,-2,-1
1514949421688476,1,0,0,0,-1,0,0,-1
1514949421688476,0,-2,0,0,-2,-2,-2,-2
1514949421707508,0,-1,0,0,-1,0,-1,0
1514949421707508,0,-1,-1,0,-1,-1,-2,-2
1514949421708491,-2,-3,-1,-1,-1,-2,0,0
1514949421708491,-1,2,-1,-1,-1,0,-3,0
1514949421729507,0,-2,-2,-1,-2,-1,-2,-2
1514949421729507,-2,1,-1,-2,-1,-1,-1,0
1514949421732508,0,-2,-2,-1,-1,-1,0,-1
1514949421732508,-1,-2,-1,-2,-1,-1,-2,-1
1514949421744516,-3,1,-1,-1,-1,-2,0,0
1514949421744516,-4,-1,-1,0,0,0,-1,0
1514949421746525,-1,-2,0,1,-2,-1,-2,-2
1514949421746525,0,-1,-3,-1,-1,-1,0,0
1514949421766542,-2,-2,0,-2,-1,-1,-1,0
1514949421766542,0,-2,0,-2,2,-2,-1,-2
1514949421768542,-2,0,-2,-1,-1,0,-3,0
1514949421768542,-1,-1,0,0,-1,-1,1,-2
1514949421790549,-1,0,-2,-1,-1,-1,0,-2
1514949421790549,0,-1,-2,-1,-2,-2,2,0
1514949421791563,0,-1,-2,-3,-1,-3,-1,-1
1514949421791563,-1,0,0,-2,1,0,-1,0
1514949421804571,0,-3,-1,-2,-2,-1,1,-2
1514949421804571,-2,0,-1,-1,-2,-2,-3,-2
1514949421806574,0,-1,-2,-2,-2,0,-2,-1
1514949421806574,-1,-3,-2,-2,-1,0,-3,-2
1514949421827576,-2,0,-2,-1,-2,-1,-1,-4
1514949421827576,-1,-2,-1,-1,-1,-1,1,0
1514949421830577,-1,1,-2,-1,0,1,-1,-2
1514949421830577,-4,0,-3,0,-2,0,0,0
1514949421849590,-1,-2,-4,0,0,0,-1,-1
1514949421849590,-2,0,-1,-2,-1,-1,-2,-2
1514949421850592,-1,-1,-2,-2,-1,-2,1,0
1514949421850592,0,-2,1,0,0,-1,0,-2
1514949421863600,-2,-2,-2,-1,0,0,-2,-2
1514949421863600,0,1,-2,-1,-2,-1,-2,-2
1514949421870620,-1,-3,0,0,-1,-1,0,1
1514949421870620,-2,-1,-1,0,0,-1,-2,0
1514949421888621,1,0,-1,-3,-1,-1,0,1
1514949421888621,0,-2,-2,-1,-1,-2,-2,-1
1514949421889619,-3,-1,-1,0,-3,-1,0,-1
1514949421889619,-2,-1,-2,0,0,-3,0,0
1514949421909653,-1,-1,-1,-1,0,0,-2,0
1514949421909653,-1,0,0,0,-3,1,-2,-1
1514949421910634,0,-2,-1,-2,-2,0,-2,-2
1514949421910634,-2,1,-2,-2,-1,-2,-1,-1
1514949421923663,-3,-3,-1,0,-1,-2,-1,-1
1514949421923663,-2,-1,-2,-2,-2,0,-1,0
1514949421930662,1,-1,0,0,-2,0,-2,-1
1514949421930662,-2,0,-1,-1,-3,-1,-1,0
1514949421946673,1,1,-1,-1,-2,0,-1,-2
1514949421946673,-1,1,-2,-1,1,-3,-1,-1
1514949421948661,0,-2,-2,-1,-1,0,-1,-1
1514949421948661,-1,-1,-2,-1,0,-2,-2,-1
1514949421969688,-2,-2,0,-1,-2,-2,0,0
1514949421969688,1,1,-1,0,-1,-1,0,-1
1514949421970688,-2,0,-1,-1,0,-2,-1,-2
1514949421970688,1,-4,0,-1,-1,1,3,-3
1514949421983697,0,0,-2,-1,-3,0,-3,-1
1514949421983697,-2,-2,-2,0,-2,-1,-2,-2
1514949421990713,-2,-1,-2,-1,-1,0,-2,0
1514949421990713,0,0,-1,-2,-2,1,-1,0
1514949422007705,-1,-1,-1,-1,-1,0,-2,-1
1514949422007705,-1,-1,-3,-4,-1,-1,0,-1
1514949422010705,0,-1,-1,0,-1,-1,-1,-3
1514949422010705,-1,-2,-2,1,-1,-3,-2,-1
1514949422029721,0,-1,-1,-2,-2,-1,1,0
1514949422029721,-2,-1,0,0,-1,-1,0,-1
1514949422030719,-1,-3,0,-1,-3,-1,-2,-1
1514949422030719,1,-3,1,0,-2,0,-2,-2
1514949422043739,1,-2,2,0,0,0,-1,-1
1514949422043739,-1,-2,0,0,-1,-1,-2,-2
1514949422050733,-2,-1,0,1,-1,-1,-1,-2
1514949422050733,0,-2,-2,0,1,0,0,-1
1514949422066745,-3,0,-1,-2,-1,-1,-2,-1
1514949422066745,-2,0,0,-2,-1,-1,-2,2
1514949422069746,-2,0,-1,0,0,-1,0,-1
1514949422069746,-1,-1,-2,-2,-2,1,-3,-5
1514949422089770,-1,-3,-4,-2,0,0,0,-2
1514949422089770,0,-2,-1,0,0,-1,-2,-3
1514949422090773,1,-1,-1,-1,-1,-1,-1,2
1514949422090773,-2,-1,0,-2,0,-3,1,1
1514949422103770,-3,-2,0,-1,-1,-2,0,-4
1514949422103770,0,0,-1,-1,0,-1,-2,-1
1514949422110775,-1,-2,-2,-3,-1,-2,0,-2
1514949422110775,-2,-1,-2,-1,-1,-3,-1,0
1514949422127799,-2,-3,0,0,0,-1,0,0
1514949422127799,0,0,-1,-2,-1,-1,-1,-1
1514949422130791,-1,-1,-1,0,-1,0,0,-3
1514949422130791,-1,-1,0,-2,-1,-2,0,-2
1514949422149802,-1,-3,0,0,-2,-1,0,-3
1514949422149802,-2,-1,-1,-1,0,-2,1,1
1514949422150803,-1,-1,-1,-2,-1,-1,0,0
1514949422150803,-1,-2,-1,-1,0,-1,-2,-1
1514949422162821,-1,1,-2,0,-2,-1,-3,2
1514949422162821,0,0,-3,-2,-2,-2,0,-1
1514949422171831,1,2,-3,-2,0,-2,-2,-2
1514949422171831,-1,-4,0,-1,-1,0,0,-2
1514949422187838,-1,-1,-2,-2,-1,-1,-1,-1
1514949422187838,0,0,-1,1,-2,0,-2,-1
1514949422190846,-1,-3,-3,0,0,0,1,1
1514949422190846,-1,-2,-2,-2,-2,-1,-2,0
1514949422209844,1,2,-1,-1,1,-3,-1,-1
1514949422209844,-2,-3,-3,-1,-1,0,-1,-1
1514949422210845,-1,-1,-1,-2,0,-2,-3,-2
1514949422210845,0,-1,0,-1,0,0,0,-3
1514949422222854,-1,-3,0,0,-2,1,-1,-1
1514949422222854,-1,0,-1,-3,0,-2,-1,1
1514949422233861,-1,1,0,-1,-1,-1,-3,-1
1514949422233861,0,-1,-2,-1,-2,-1,1,-2
1514949422245883,0,0,-1,-2,-1,0,-1,1
1514949422245883,-1,0,-1,0,-2,1,-1,-2
1514949422254889,-1,-3,1,-2,-1,0,0,0
1514949422254889,-1,2,-2,-1,-1,-3,-3,0
1514949422276904,-2,-2,0,-2,-2,-3,1,-1
1514949422276904,-2,-2,-1,-1,-2,-2,0,0
1514949422278895,-1,-1,-3,-1,-1,-3,-1,0
1514949422278895,0,-1,-1,0,-2,-1,-1,0
1514949422283909,-2,0,-1,-1,-1,-1,-2,-4
1514949422283909,-1,-1,-1,-2,1,-1,-1,2
1514949422291903,-2,-3,-3,-3,-1,-1,0,-3
1514949422291903,-1,-1,0,-2,-3,-1,0,-1
1514949422306926,-2,-1,-3,1,1,-1,-4,-1
1514949422306926,-1,1,1,-3,-1,-1,0,0
1514949422308916,0,0,0,0,-1,-1,0,1
1514949422308916,-1,-2,0,-1,-2,0,-1,0
1514949422329940,-2,-1,0,-2,-1,-3,0,0
1514949422329940,-1,-4,-2,-1,0,-2,-2,-4
1514949422332931,0,0,-1,-1,-4,-1,2,-3
1514949422332931,-1,-1,-2,-2,-1,0,1,-1
1514949422342939,0,0,-1,2,-2,0,-1,-1
1514949422342939,-2,-3,-1,-1,0,-1,-1,1
1514949422351946,-1,-2,0,-3,0,-1,-1,-1
1514949422351946,-1,-1,-1,-2,0,-1,-1,-1
1514949422366970,-1,0,-1,-3,-1,-1,-1,-2
1514949422366970,1,0,-2,-1,-1,-1,-1,-2
1514949422368974,-2,-1,-1,0,-1,-2,-1,0
1514949422368974,-3,-2,0,-2,-3,-2,-1,-1
1514949422390973,0,-1,-1,-1,-2,-2,-3,0
1514949422390973,0,-1,-1,0,-3,0,0,-3
1514949422391974,-2,-1,-2,0,-2,-1,-1,0
1514949422391974,-3,0,-2,0,1,-1,-2,-2
1514949422402983,-1,-4,-1,1,0,0,1,-2
1514949422402983,-1,0,-1,0,-1,-1,-2,-1
1514949422411988,-2,1,-1,-3,0,0,-2,0
1514949422411988,-2,-3,-2,0,0,0,0,-2
1514949422427012,0,-2,-1,-1,0,-1,0,-1
1514949422427012,-1,1,-2,-1,0,-1,-1,-1
1514949422429011,-1,-1,-1,-3,0,-3,-1,-4
1514949422429011,0,-3,-2,0,-1,-1,-1,0
1514949422449026,1,-1,-1,0,0,-2,0,-1
1514949422449026,0,-1,0,0,-1,-1,0,-3
1514949422451015,-2,-3,0,2,-3,1,-3,-2
1514949422451015,-2,-1,-2,0,-1,-1,1,-1
1514949422463023,0,-2,-2,0,-1,0,2,-1
1514949422463023,-2,3,0,-1,-2,-2,0,0
1514949422472030,1,0,-2,-1,-2,-2,-1,0
1514949422472030,2,-1,0,-2,0,-2,-3,-2
1514949422488041,0,-1,0,-1,0,1,-2,-1
1514949422488041,-2,-1,0,-2,-1,-3,-2,0
1514949422492047,-1,-2,-3,-1,-1,-2,-1,-1
1514949422492047,0,-2,-1,0,-1,-1,-2,-2
1514949422509066,-1,-2,-2,-2,-1,-1,-1,1
1514949422509066,-2,-1,-1,-1,-2,-2,-2,-1
1514949422511068,1,-3,-1,-1,1,-1,0,0
1514949422511068,-2,-1,-1,-2,0,0,-1,-3
1514949422523082,-2,0,-2,0,-2,-1,-2,-2
1514949422523082,-2,1,-2,-1,0,0,-2,0
1514949422541081,-3,0,-3,-1,-3,-1,-1,-2
1514949422541081,0,-1,-1,-3,-2,0,-2,-2
1514949422547084,-2,-3,-2,-2,-2,-2,-3,0
1514949422547084,0,-2,-1,-2,-1,0,1,-3
1514949422548084,-2,-2,-2,-3,1,1,-1,-2
1514949422548084,-1,-4,-1,0,-2,-2,-1,-2
1514949422569128,0,-2,-2,-1,-2,0,0,1
1514949422569128,-2,-2,0,-1,-3,-1,-1,2
1514949422571133,-2,-2,0,-2,-2,-1,0,-2
1514949422571133,-2,-2,-1,-2,-1,-1,-2,0
1514949422584141,0,-2,0,-1,-2,-1,1,-4
1514949422584141,-3,0,-2,0,-1,-1,-2,-2
1514949422592146,1,2,-1,-1,-1,-2,0,1
1514949422592146,-2,-1,0,0,-1,0,1,-1
1514949422607158,-1,-1,-1,-3,0,-2,-2,-3
1514949422607158,0,-2,-2,-2,0,0,-1,1
1514949422608163,-3,-2,0,-1,-2,-1,-1,0
1514949422608163,-1,-2,-2,0,0,-2,1,0
1514949422629173,-3,1,1,-1,0,0,0,2
1514949422629173,-1,0,0,-1,-1,-2,-2,-2
1514949422633186,-2,-2,-1,-1,-1,-2,-2,-2
1514949422633186,-1,-1,-1,-1,0,-2,-1,-1
1514949422652190,-2,-3,-2,-1,-2,-1,-1,-1
1514949422652190,0,-1,-2,-2,0,0,0,-1
1514949422653193,1,-1,0,-1,-1,-1,-1,0
1514949422653193,-2,-1,0,-2,-3,-2,-1,-2
1514949422666217,-3,-2,-1,-1,-2,-5,-3,-1
1514949422666217,0,-2,-1,0,-2,-2,-3,-1
1514949422673205,-1,-2,-1,-1,0,-1,0,-1
1514949422673205,2,-1,-1,0,-1,-2,0,-3
1514949422690217,-3,0,0,-1,-1,1,0,-4
1514949422690217,-1,-1,-1,-2,0,0,-3,-1
1514949422693219,-3,1,0,-1,0,0,-1,-1
1514949422693219,-2,-4,-1,-1,-2,-1,-4,0
1514949422712249,0,0,-1,-1,1,0,0,1
1514949422712249,-1,1,0,-1,-2,-2,1,0
1514949422713233,0,-1,-3,0,0,0,0,-2
1514949422713233,0,1,-1,0,-1,-1,-1,-1
1514949422727254,-1,-3,0,-2,-2,-1,-2,-1
1514949422727254,-1,-2,-2,-1,0,-1,-1,-2
1514949422728255,-2,0,-2,-1,-1,-2,0,0
1514949422728255,-1,0,0,-2,0,-1,-1,-1
1514949422749277,0,-2,-2,0,-2,-1,-2,-2
1514949422749277,-4,-4,-1,-2,0,-2,-1,-1
1514949422751262,0,-1,0,-2,-1,0,0,1
1514949422751262,-2,0,-2,-2,-1,-1,2,0
1514949422772274,1,-1,0,0,-1,-1,-1,-4
1514949422772274,1,0,0,-1,0,-1,-1,-1
1514949422775276,-2,0,0,0,-1,-2,-2,0
1514949422775276,-2,-3,-1,-1,-1,-1,-3,-1
1514949422786285,-2,-1,-1,0,-1,-2,1,3
1514949422786285,-4,-2,-2,-2,-3,0,1,-2
1514949422794294,0,-2,-2,-1,-2,-1,0,-2
1514949422794294,1,-3,0,0,-1,0,-2,0
1514949422809301,0,0,0,-1,1,-1,0,-1
1514949422809301,-1,0,-1,-1,1,-2,-3,0
1514949422811302,-2,-2,0,-1,-1,0,0,0
1514949422811302,0,0,-3,-2,0,1,-1,-2
1514949422832317,-2,-2,-1,-1,-1,-2,-2,-2
1514949422832317,0,3,-1,-2,-3,-1,-1,1
1514949422833318,0,-2,0,-2,-1,-1,2,-2
1514949422833318,0,-4,-1,-1,-1,0,1,0
1514949422846328,-2,-3,-1,-1,-2,0,0,0
1514949422846328,-1,-3,-2,-1,-1,-1,-1,-1
1514949422853331,1,-2,-2,-1,-3,-1,-1,1
1514949422853331,-2,0,-1,0,-1,-1,-2,-1
1514949422869346,-2,1,-2,-3,-1,-1,2,-2
1514949422869346,-2,0,-3,-3,-1,-3,1,-1
1514949422873345,-1,-2,0,0,0,1,-1,-2
1514949422873345,0,0,0,-2,-1,0,-2,-2
1514949422892373,1,-3,-1,0,-2,-1,-2,-3
1514949422892373,-2,-1,-1,-1,1,-1,0,-2
1514949422893367,-1,1,-2,-1,-1,-1,-2,1
1514949422893367,-3,-1,-1,-1,0,1,1,-1
1514949422906369,-1,-2,-3,0,1,-1,1,-1
1514949422906369,0,-1,0,0,0,0,-1,1
1514949422913378,-1,-2,0,0,-2,-2,-3,-2
1514949422913378,-1,-3,0,-1,-2,-1,-2,-2
1514949422929391,-2,-1,-2,-2,-2,-2,-2,-2
1514949422929391,0,-3,-1,0,-3,0,-2,-3
1514949422931393,-1,0,-1,0,0,-2,1,0
1514949422931393,1,-1,0,-1,-1,-2,0,-2
1514949422952403,1,-3,-1,-1,-1,0,1,0
1514949422952403,-1,-1,-1,-2,-2,-1,-1,-1
1514949422953403,1,-1,-2,-2,-1,0,-1,-2
1514949422953403,-3,-4,-1,1,0,-4,-1,-1
1514949422966413,-2,0,-1,-2,-1,0,-3,0
1514949422966413,0,1,0,-2,-1,-1,0,-1
1514949422973417,-2,-1,-2,-1,-1,0,-2,-3
1514949422973417,-2,-2,-2,-2,-1,-1,1,-3
1514949422989428,0,-1,0,0,1,-1,-1,-1
1514949422989428,0,-2,-1,2,-2,-1,-2,1
1514949422991432,0,-1,0,1,0,-1,-3,-1
1514949422991432,-1,-1,-2,-1,-1,0,1,1
1514949423012447,-3,-1,-1,-1,-1,-1,-1,0
1514949423012447,-1,1,-2,-2,-1,-1,-2,-2
1514949423013446,0,-1,-1,-1,-2,-2,-2,-1
1514949423013446,-1,0,-1,0,0,-1,0,-1
1514949423027459,-1,-2,-1,-2,-1,0,-1,-1
1514949423027459,0,-1,-2,-2,-1,2,-1,-1
1514949423033460,0,-3,-1,-2,0,-1,1,-1
1514949423033460,-1,-1,-2,0,0,0,0,-1
1514949423049477,0,1,-1,0,-1,-2,0,-2
1514949423049477,-1,0,-1,0,-1,-2,0,-3
1514949423051471,-2,1,-3,-2,-1,-1,0,-2
1514949423051471,0,-2,-1,-1,-1,-1,-2,-1
1514949423071486,0,-1,-1,-1,-1,0,0,-1
1514949423071486,-1,-1,0,-2,0,0,-1,0
1514949423073490,-2,-1,-1,-2,-2,-3,0,0
1514949423073490,-1,1,-1,-2,-2,-1,0,1
1514949423086497,-1,-2,-2,1,-1,1,-1,0
1514949423086497,-1,-1,-3,-2,-1,0,-1,-1
1514949423093507,-2,-1,-1,0,1,1,-1,-3
1514949423093507,0,-3,-2,0,-2,-2,0,-1
1514949423109518,-2,-1,0,-1,-2,-2,-2,-1
1514949423109518,-2,-3,-1,-2,-1,-2,-2,-2
1514949423111518,0,-2,-1,-2,-1,-1,-2,0
1514949423111518,-1,1,-1,0,0,-1,0,-2
1514949423132532,1,-1,-3,-1,0,0,1,1
1514949423132532,0,0,-1,-1,0,-2,1,-2
1514949423133530,-3,-1,0,-2,-2,-2,2,-2
1514949423133530,0,-2,-1,-1,-4,-1,-1,0
1514949423146541,-2,-2,-2,-1,-2,-1,-2,1
1514949423146541,-1,2,-1,-1,-1,1,0,-1
1514949423154544,2,0,-2,2,1,1,-2,-1
1514949423154544,-1,-2,-1,-1,-2,-1,-2,-4
1514949423169555,-2,-1,-1,-3,-2,-2,-1,-3
1514949423169555,-2,-3,0,-2,-1,-1,1,0
1514949423170556,-2,-2,0,-2,0,-2,1,-1
1514949423170556,-1,-1,-1,-1,-1,-1,-1,-2
1514949423192574,-2,-1,-2,-2,0,-1,-2,-3
1514949423192574,1,-1,-2,-1,0,-2,-3,-1
1514949423193576,-3,1,-1,-3,-3,-2,0,-1
1514949423193576,-1,-1,0,-1,1,-1,-2,1
1514949423205582,1,0,0,-1,-1,0,3,1
1514949423205582,-3,0,-1,-3,-1,0,2,1
1514949423214590,-1,-1,0,-1,-1,-1,-2,0
1514949423214590,-1,-2,-1,-1,-1,-2,-1,-1
1514949423229600,-2,-1,0,-2,-2,-1,-1,-2
1514949423229600,-1,-2,-2,0,-1,0,-1,-1
1514949423230599,0,-1,-1,0,-1,-2,-2,0
1514949423230599,-3,0,-2,-1,-2,-1,0,-2
1514949423251613,-1,-2,-1,-1,0,-1,-2,-2
1514949423251613,-2,-1,-1,-1,-1,-2,-2,0
1514949423258619,0,-1,-1,-2,-2,0,-1,-3
1514949423258619,2,0,0,-2,-2,0,-1,-1
1514949423265623,1,-2,0,0,0,-1,-1,-2
1514949423265623,-1,-1,0,-1,-1,-1,-1,1
1514949423274634,-1,-1,-2,0,-2,1,-1,-1
1514949423274634,0,0,-1,-1,0,0,1,-1
1514949423289657,0,-2,0,1,1,-1,0,-1
1514949423289657,-1,-1,-1,-1,-1,-3,-1,0
1514949423291656,-1,-2,-1,-1,-1,-1,0,2
1514949423291656,-2,-3,-1,-1,-2,1,-1,-1
1514949423311655,-1,-1,-1,-2,-1,-1,-2,-1
1514949423311655,-1,-1,-1,0,-1,-1,0,0
1514949423313667,-2,-2,-1,-2,-2,-4,-2,-1
1514949423313667,-2,-1,-1,-1,-1,0,0,-2
1514949423325665,-2,-2,0,-1,-1,-1,-2,-2
1514949423325665,-2,0,-2,0,-1,-1,0,-2
1514949423334671,0,0,1,-1,-1,-2,-1,-3
1514949423334671,-2,0,-1,-1,0,-2,-1,-1
1514949423349691,-1,-1,-2,-1,-1,-2,-1,-1
1514949423349691,-2,-1,-3,-1,-1,-2,0,-2
1514949423350682,2,-2,-2,-1,0,-1,-1,-3
1514949423350682,-2,-4,-1,-2,-1,0,-3,0
1514949423372757,-1,-1,0,1,-3,0,-1,0
1514949423372757,-2,-2,0,-1,-2,0,-2,-2
1514949423373698,-3,0,-2,-1,-2,0,-1,0
1514949423373698,2,-2,-1,-2,-3,-3,-3,0
1514949423386708,-2,1,-2,-2,-1,-2,-2,-1
1514949423386708,-1,-1,-1,-1,-3,-1,-2,0
1514949423394721,-2,-1,-2,0,0,1,-1,-1
1514949423394721,-1,-1,-2,0,-1,-3,0,-1
1514949423409734,-3,-2,-1,0,-2,-2,1,0
1514949423409734,1,0,-1,-2,1,0,-2,-2
1514949423410725,-2,-2,-2,-1,-1,-1,0,-3
1514949423410725,-2,-1,0,-1,0,0,0,-1
1514949423432753,0,1,-1,-3,1,-1,-2,0
1514949423432753,-1,-1,-2,-3,-1,-2,0,-2
1514949423433741,0,-1,-1,-2,-2,-3,-1,2
1514949423433741,-1,-2,-2,1,0,-2,-1,-1
1514949423445759,0,-2,-1,-2,-4,-1,1,-1
1514949423445759,0,-2,-2,-1,-2,-1,-2,0
1514949423454766,-1,0,-1,0,-2,-3,-2,-2
1514949423454766,0,0,1,-2,-4,-1,-1,-4
1514949423469787,0,-1,-1,-3,-1,-1,-3,0
1514949423469787,0,1,-2,0,1,-4,-2,-1
1514949423470767,-1,-5,-2,-8,-4,2,3,-1
1514949423470767,-1,-1,-1,-2,-3,-2,-2,-1
1514949423491786,0,1,-1,-1,0,-1,0,1
1514949423491786,-1,-2,0,0,-1,-2,-1,-2
1514949423493784,-1,-1,-1,1,-1,-3,-1,1
1514949423493784,0,0,0,-1,1,-1,1,-1
1514949423505792,-3,-1,0,-5,-1,-1,-2,-3
1514949423505792,-2,-1,-1,-1,-1,1,-3,2
1514949423514798,-1,-3,1,5,1,-1,1,-1
1514949423514798,-3,-1,-1,12,0,0,-1,2
1514949423530819,0,-5,-4,-19,-4,-3,-1,-3
1514949423530819,-1,0,2,0,-1,0,-1,-3
1514949423531810,2,-1,-2,-6,3,3,-1,-1
1514949423531810,1,-1,0,6,1,-3,-2,-1
1514949423551826,1,1,1,8,-2,-5,-2,-2
1514949423551826,-2,-3,-3,-4,4,4,-1,2
1514949423553865,0,0,0,0,-2,-3,3,0
1514949423553865,-2,-3,3,22,-3,-3,-4,-3
1514949423574855,-2,-1,-3,-37,-3,0,-1,-1
1514949423574855,2,1,-1,1,1,-1,-1,-2
1514949423575841,-1,0,-1,1,-1,0,-2,-1
1514949423575841,-1,-2,-3,-8,1,0,1,-1
1514949423590854,-1,1,-1,13,-2,0,-1,-2
1514949423590854,0,-1,1,1,-4,-2,-1,-1
1514949423592862,0,-1,1,-2,-2,0,0,-2
1514949423592862,-1,-3,-4,-16,-4,-3,0,-1
1514949423611880,-2,2,2,17,1,0,-3,-2
1514949423611880,-2,0,-2,-5,0,-1,0,-1
1514949423613868,-1,-4,-4,-15,-4,-2,-3,-4
1514949423613868,-1,-1,1,6,2,0,2,0
1514949423634893,-3,-1,0,-1,-6,-2,-1,-1
1514949423634893,-2,1,-2,-2,6,1,1,0
1514949423635885,0,-1,-1,6,-3,-2,-5,1
1514949423635885,-1,-1,5,25,4,1,0,-3
1514949423649906,-1,-6,-7,-17,-18,-9,-1,-3
1514949423649906,1,5,10,12,-1,-7,-2,0
1514949423650895,-5,-13,-11,-6,-10,8,3,-5
1514949423650895,0,2,-2,-46,-5,1,-1,0
1514949423671932,1,-1,2,18,10,5,1,2
1514949423671932,-3,-3,-6,5,-8,-4,-2,-6
1514949423673915,-1,2,4,2,2,-2,1,1
1514949423673915,-2,0,-2,5,2,0,-5,-4
1514949423694926,-2,-3,0,-2,-5,-2,0,1
1514949423694926,2,3,5,8,0,-1,0,0
1514949423695927,-3,0,-11,-2,2,-3,-4,-2
1514949423695927,-2,-1,1,3,-2,1,2,0
1514949423709936,-1,1,-5,-14,6,1,0,0
1514949423709936,1,-2,-5,-15,-4,0,0,-1
1514949423710938,1,-1,4,8,2,-4,-3,-1
1514949423710938,2,0,6,-12,-2,-2,-2,-3
1514949423731952,-3,0,-12,4,-2,-2,-3,-2
1514949423731952,-1,-3,2,2,-2,2,1,-1
1514949423734955,0,2,3,-17,-2,-3,1,2
1514949423734955,-4,-4,-4,10,1,-2,-3,1
1514949423753982,0,-1,2,33,5,0,-1,0
1514949423753982,-5,-6,-10,-50,-9,-4,-3,-5
1514949423756980,1,4,7,22,4,-4,-6,-2
1514949423756980,3,3,-4,-22,-5,0,3,2
1514949423768993,-7,-5,2,5,0,-2,1,-2
1514949423768993,-1,-19,-7,-8,-1,1,0,-2
1514949423775984,-1,14,-4,10,-4,-4,-3,-1
1514949423775984,-5,-19,-1,-2,-5,-3,-4,-3
1514949423791997,2,10,4,10,-2,-3,-3,1
1514949423791997,0,-3,-2,2,0,1,-2,-1
1514949423793997,-3,-7,3,-3,4,0,1,0
1514949423793997,2,9,-3,11,0,-1,2,0
1514949423814010,1,1,3,-13,0,-2,1,1
1514949423814010,-1,0,2,5,-1,0,-2,2
1514949423816011,1,-7,-7,-14,-5,-2,1,-1
1514949423816011,-3,2,-2,0,0,-3,-3,-3
1514949423837066,1,-6,-2,-8,0,5,1,-1
1514949423837066,-3,2,-1,12,-1,-2,0,-3
1514949423839040,-3,-1,-6,-14,1,1,0,1
1514949423839040,-2,-2,0,-8,-5,-2,2,-5
1514949423852056,2,-2,4,4,-4,-2,-2,-3
1514949423852056,-2,-4,0,8,3,-4,-1,-2
1514949423854039,3,23,2,-9,-5,0,0,1
1514949423854039,-6,-22,-6,10,0,0,-1,-2
1514949423875055,-5,-26,-8,-14,1,0,-4,-4
1514949423875055,2,13,-1,9,-1,-1,1,1
1514949423876054,0,-7,3,11,-2,-2,-2,-1
1514949423876054,1,11,-2,-14,0,-1,0,0
1514949423890074,-2,5,-3,-7,-2,1,3,-1
1514949423890074,-2,-2,2,3,3,-1,-2,-1
1514949423896078,-1,-7,-4,-12,-1,1,2,-1
1514949423896078,1,6,-1,-4,-6,-2,-3,-1
1514949423912091,-1,1,1,9,3,-2,1,-1
1514949423912091,1,3,-2,-6,-1,-1,-4,1
1514949423913092,-4,-7,1,4,-1,-2,2,-1
1514949423913092,-1,8,-4,6,5,0,-3,0
1514949423934106,2,9,4,-12,0,0,-1,-1
1514949423934106,1,-11,2,9,-5,0,0,0
1514949423936108,-1,18,-1,12,4,-1,-2,-4
1514949423936108,-7,-46,-8,-15,-7,-2,0,-2
1514949423949106,1,15,8,11,5,2,-1,2
1514949423949106,0,4,-6,-17,-2,0,-1,-1
1514949423957111,-1,-18,-1,5,-1,-1,-3,-5
1514949423957111,-4,10,0,9,-6,-5,-3,-3
1514949423972123,0,5,-5,-16,-2,1,-1,-3
1514949423972123,-3,-5,2,9,-5,-2,3,-4
1514949423973123,-2,-6,2,2,-4,-2,-2,1
1514949423973123,4,12,2,-1,11,0,-1,2
1514949423995138,-4,-18,-4,0,-1,-1,-3,-3
1514949423995138,1,12,-2,-12,-1,1,2,0
1514949423999151,-2,-3,-1,-8,-4,-2,-1,-1
1514949423999151,3,5,-2,5,-2,0,1,0
1514949424009148,-2,15,3,4,-4,-2,0,2
1514949424009148,-3,-17,-6,-11,0,-1,-3,-3
1514949424015152,1,-5,-1,16,2,-1,-2,2
1514949424015152,1,6,-1,-30,-6,-2,2,-2
1514949424032173,0,-14,-3,-4,-1,-1,-2,-1
1514949424032173,1,-11,-1,3,3,2,2,0
1514949424033175,-2,6,-1,3,2,-1,-1,-3
1514949424033175,-2,1,1,8,1,-1,-1,-2
1514949424054202,0,1,1,-2,0,1,-1,1
1514949424054202,1,11,3,8,-6,-3,-2,0
1514949424057182,-4,-19,-6,-7,4,-1,-1,-2
1514949424057182,1,-1,-3,-8,-3,3,3,-2
1514949424069191,0,5,0,0,0,-2,2,-1
1514949424069191,-7,-17,1,1,-1,-1,-2,-1
1514949424075195,-2,12,-2,5,-4,-1,-2,-3
1514949424075195,-7,-5,-6,-9,-3,0,-2,-3
1514949424092207,-2,-23,-3,5,-2,-3,-2,-2
1514949424092207,-2,6,-3,-11,2,0,-2,2
1514949424094218,4,16,0,-1,-6,-3,1,0
1514949424094218,-1,-6,5,17,4,-1,-3,-1
1514949424114232,0,8,2,3,-7,-2,-3,1
1514949424114232,-2,-4,-7,-24,-2,-3,-1,0
1514949424116223,-6,-7,-6,-13,-4,-2,-2,-2
1514949424116223,3,5,10,27,3,-1,-1,0
1514949424128236,-3,-4,-20,-31,-6,-3,1,-6
1514949424128236,1,10,4,9,1,0,-2,-1
1514949424137251,6,-2,7,7,3,2,2,4
1514949424137251,-2,-7,-2,-1,-2,-1,1,-1
1514949424152249,-3,-11,-1,7,2,0,-2,-1
1514949424152249,-1,-8,-5,1,-2,-2,0,-4
1514949424153262,-5,4,2,-2,1,-1,-5,1
1514949424153262,2,-8,0,1,-4,-3,2,2
1514949424174284,1,16,3,2,-1,-2,-2,-1
1514949424174284,-2,1,-8,-16,-4,-3,-1,-3
1514949424176266,0,-7,-4,-3,-2,0,1,-3
1514949424176266,-2,0,1,0,3,1,-4,0
1514949424189275,0,-2,-1,-5,-2,-1,-2,-1
1514949424189275,1,4,5,8,2,-1,0,0
1514949424197293,0,-2,5,20,-3,-4,-2,3
1514949424197293,-1,4,-1,-6,0,0,-1,-3
1514949424219309,2,-1,0,-6,1,-1,1,1
1514949424219309,8,15,5,-5,0,0,-3,3
1514949424221298,-8,-15,0,5,6,2,1,-6
1514949424221298,0,-4,-11,1,-14,-3,-2,-1
1514949424234307,-1,-9,3,34,6,1,-2,0
1514949424234307,-4,4,0,-16,-7,-3,0,-3
1514949424238326,1,-8,-6,-1,-5,-1,0,-6
1514949424238326,-7,-6,-2,-14,0,-1,1,-3
1514949424257323,2,12,5,-18,4,2,-1,12
1514949424257323,-5,-25,-2,23,1,0,0,-8
1514949424258326,-2,13,-5,-25,-7,-4,1,3
1514949424258326,-8,-10,-3,-4,3,1,-2,-12
1514949424272357,-1,3,0,-2,-4,-4,0,19
1514949424272357,-15,-7,-2,24,1,-2,-3,0
1514949424274337,1,-7,-1,7,-1,-1,-2,-2
1514949424274337,3,1,-2,-9,-1,0,2,-2
1514949424294362,-2,4,-1,-5,-2,-1,0,-4
1514949424294362,4,0,3,17,5,2,0,-2
1514949424296363,-6,-7,-10,-30,-4,-3,-2,0
1514949424296363,0,0,4,32,11,0,-3,-1
1514949424308375,-4,-10,-23,-63,-15,-7,-3,-12
1514949424308375,3,14,-5,-4,-5,-4,1,4
1514949424317377,-2,-9,2,8,2,1,5,-3
1514949424317377,1,4,-4,7,-1,-2,-10,5
1514949424332379,-3,0,0,5,6,1,13,-7
1514949424332379,0,9,-4,-2,-9,-5,-9,-1
1514949424334389,-5,-27,16,-10,2,4,-14,-8
1514949424334389,1,0,-2,-2,1,-6,-25,-1
1514949424354392,1,9,-3,8,5,6,31,27
1514949424354392,5,5,-2,-7,-9,-7,-28,-25
1514949424356404,-1,-2,7,81,1,-8,-13,1
1514949424356404,-2,-9,-15,-84,-13,-2,20,4
1514949424368402,-3,-8,8,32,-2,-1,-10,-12
1514949424368402,30,16,14,-8,10,4,23,17
1514949424377425,-40,15,-6,-24,-2,4,12,2
1514949424377425,1,-4,7,39,2,-1,-1,-5
1514949424393429,-14,-52,2,31,1,-4,-6,-8
1514949424393429,-12,-38,-29,-42,-18,-4,2,2
1514949424397437,11,-6,29,-54,-1,0,-3,-4
1514949424397437,7,14,11,14,4,2,2,2
1514949424414434,-1,20,3,-17,-5,-2,-8,-8
1514949424414434,-4,-12,-11,-1,5,2,-2,4
1514949424416436,28,-23,-26,-18,-5,-3,-2,0
1514949424416436,-30,37,-12,-10,-3,-1,3,-2
1514949424428456,19,7,17,28,4,0,2,2
1514949424428456,-11,17,1,-8,4,1,-11,-3
1514949424437468,20,21,0,-11,3,0,9,4
1514949424437468,9,10,4,-14,-8,-5,-6,1
1514949424451460,41,19,-17,-3,-4,-3,32,-11
1514949424451460,-30,-5,16,34,3,-3,-43,-16
1514949424458483,-40,9,-9,3,6,3,10,0
1514949424458483,2,-5,13,61,6,0,-6,1
1514949424482482,-4,-6,-15,-79,-16,-4,1,-4
1514949424482482,13,2,-9,-8,-2,1,18,6
1514949424486486,12,2,15,0,7,4,-5,2
1514949424486486,3,1,-9,-4,-1,0,2,-4
1514949424489487,-17,36,0,-12,12,1,-18,0
1514949424489487,3,3,-6,13,-11,-3,11,0
1514949424497505,-8,8,-8,-17,-9,-2,-14,-5
1514949424497505,10,-20,-5,16,5,2,9,5
1514949424511503,-13,-1,6,-3,2,0,-12,-2
1514949424511503,2,28,-4,-18,1,-2,0,0
1514949424513504,3,15,-5,18,-4,-6,5,-7
1514949424513504,6,32,-3,-14,0,2,3,4
1514949424535535,12,14,7,21,0,0,-21,-3
1514949424535535,-10,-10,-10,-17,0,-3,9,2
1514949424538532,8,-14,6,4,0,0,7,6
1514949424538532,12,-65,12,36,11,3,-12,7
1514949424557539,-18,4,-9,-34,-4,-5,-11,-12
1514949424557539,-1,16,3,7,0,5,17,1
1514949424558536,10,30,-8,29,-7,-1,3,-2
1514949424558536,-1,-48,0,1,2,-3,-14,1
1514949424571555,6,2,13,77,6,1,1,11
1514949424571555,-16,-65,-14,-33,-15,-8,-1,-2
1514949424574560,9,103,5,14,3,-1,-5,2
1514949424574560,-20,-46,-11,-15,-3,2,7,-24
1514949424594571,8,28,23,111,21,7,-1,6
1514949424594571,8,32,8,-41,-13,-6,-4,-6
1514949424597564,3,-30,-12,-48,-1,-1,0,9
1514949424597564,-4,48,-3,-18,-8,-3,4,5
1514949424616590,12,7,-7,-23,-6,-4,-4,-9
1514949424616590,-2,-9,32,21,16,8,6,5
1514949424618590,10,-49,-16,15,3,0,-1,5
1514949424618590,-9,2,-6,-98,-13,-6,-5,-1
1514949424631601,-14,4,-15,-29,-9,-3,-10,-7
1514949424631601,9,46,7,107,12,2,7,7
1514949424633589,-25,-109,-18,-71,-9,-4,-5,-11
1514949424633589,0,56,-22,22,-11,-4,19,-2
1514949424654604,5,-20,1,-14,-5,-4,-19,3
1514949424654604,10,-59,14,23,13,6,3,-1
1514949424655614,-1,77,0,-45,-3,-2,-8,-4
1514949424655614,-23,-78,-19,-37,-5,-3,4,-4
1514949424676619,7,-11,17,63,9,4,8,8
1514949424676619,-12,59,-21,-19,-10,-3,-13,-16
1514949424679622,3,-37,26,55,2,-2,0,-1
1514949424679622,0,21,-7,18,-2,1,0,3
1514949424691648,-11,-7,-19,17,-10,-10,-3,-6
1514949424691648,-12,-52,-11,88,-1,-1,-5,-5
1514949424697644,1,62,-5,-63,-9,-2,3,-2
1514949424697644,-5,-47,5,12,-12,-8,-8,-6
1514949424721664,-3,-24,-13,-17,9,0,-5,-3
1514949424721664,-6,16,1,-13,0,-5,-3,-4
1514949424723653,2,54,16,88,4,-3,-2,-9
1514949424723653,9,14,-8,-13,-7,-2,-8,1
1514949424736661,-17,-3,-5,-28,-7,-3,5,-3
1514949424736661,6,-1,3,-24,1,1,4,1
1514949424738664,-1,-40,-2,33,3,3,-2,6
1514949424738664,5,76,5,23,12,3,1,4
1514949424752686,-26,-13,-2,4,-14,-5,-4,-22
1514949424752686,0,25,-2,-33,-3,-4,-4,1
1514949424758697,-8,-65,0,-17,-1,-2,-2,-5
1514949424758697,12,52,48,56,6,6,4,6
1514949424774700,-2,24,-55,-107,-8,0,3,3
1514949424774700,5,-29,-6,-32,-18,-8,0,5
1514949424775691,-6,-19,-5,10,-5,-1,-3,-11
1514949424775691,23,85,31,26,10,6,4,15
1514949424797705,-1,53,-5,16,7,3,1,-1
1514949424797705,-12,-80,-17,-42,-6,-4,-6,2
1514949424800707,7,25,-32,18,0,-3,0,3
1514949424800707,5,28,35,-27,-5,-1,-2,-6
1514949424811725,-7,-93,23,-1,6,2,6,12
1514949424811725,-34,-59,-42,-53,-11,-6,-13,-25
1514949424817731,-1,9,10,24,-1,-3,0,0
1514949424817731,10,-21,-17,12,-2,0,0,-9
1514949424834732,-6,-25,14,22,-4,-9,-10,-1
1514949424834732,9,19,8,-22,-4,-2,2,-5
1514949424835734,3,71,23,19,8,6,9,13
1514949424835734,-4,-74,-25,-27,-11,-8,-12,-17
1514949424856747,14,-18,8,15,5,4,6,1
1514949424856747,-15,4,25,26,16,7,7,17
1514949424858748,-19,-38,-25,-34,-20,-9,-13,-17
1514949424858748,6,38,11,-3,5,0,4,19
1514949424871769,-13,-40,-36,-16,-12,-3,-5,-15
1514949424871769,-4,38,4,5,4,-2,-5,-7
1514949424877773,9,-8,4,-28,-5,3,6,11
1514949424877773,-25,-110,-23,3,6,0,1,-1
1514949424895784,8,-4,14,-11,6,0,-5,6
1514949424895784,-8,-16,6,14,-1,-3,-1,2
1514949424898776,2,22,38,17,9,7,6,9
1514949424898776,13,9,-4,-16,0,1,-3,-3
1514949424916798,-19,15,-63,-28,-7,-2,2,-16
1514949424916798,29,-12,28,20,2,4,4,12
1514949424918800,-2,40,-33,8,11,2,1,0
1514949424918800,4,-18,-11,-11,-5,1,-1,2
1514949424931799,-2,-13,28,13,-7,-5,-1,6
1514949424931799,21,23,-8,-38,3,3,0,4
1514949424937807,-10,50,-28,10,-2,-5,-8,-13
1514949424937807,-6,40,-16,15,1,-1,0,-4
1514949424954827,12,5,1,13,-1,3,5,5
1514949424954827,-7,51,4,3,2,2,2,-6
1514949424956817,10,-86,3,-23,-8,-5,2,9
1514949424956817,-18,22,0,29,-6,-3,-8,-14
1514949424976831,0,35,2,-49,-8,-9,-4,-10
1514949424976831,16,-5,7,30,8,5,-3,9
1514949424978833,-6,-61,0,-25,-6,1,5,16
1514949424978833,-28,17,-21,6,9,-10,-9,-37
1514949424991843,23,36,35,38,5,13,14,21
1514949424991843,9,-29,7,-14,1,-2,2,6
1514949424997859,-23,-57,-19,-3,-5,-8,-12,-25
1514949424997859,19,-15,-7,-21,-3,-3,-3,0
1514949425013870,-6,-42,-28,1,-3,-1,0,7
1514949425013870,-6,14,-2,14,1,-4,-6,-8
1514949425015859,-4,-13,9,-25,-8,1,3,0
1514949425015859,-1,-64,11,-1,-1,-1,0,5
1514949425037885,-23,0,0,-4,-3,-6,-7,-16
1514949425037885,1,57,-4,-27,-1,2,4,11
1514949425038876,-10,39,8,21,1,1,1,-7
1514949425038876,12,8,3,-28,0,4,5,13
1514949425050901,-2,-13,10,-2,-1,-2,-4,7
1514949425050901,11,36,-2,21,-6,-4,-9,-26
1514949425059890,11,34,-14,-1,-10,0,-2,-2
1514949425059890,-26,-58,1,-25,4,-2,2,-6
1514949425074907,23,43,39,29,12,5,-1,7
1514949425074907,1,8,-37,3,-13,0,9,7
1514949425076902,5,-9,90,20,8,0,-12,-14
1514949425076902,-19,-4,-23,-21,-19,-5,-1,-1
1514949425096929,5,-32,-6,2,-1,-3,-5,-9
1514949425096929,-15,0,49,-13,8,2,12,-1
1514949425098930,-18,28,-8,-8,6,4,-11,-4
1514949425098930,31,32,-2,27,2,1,0,12
1514949425110939,-39,11,-4,-35,3,2,1,-5
1514949425110939,17,79,28,30,-3,0,2,8
1514949425119945,-2,-49,-50,14,-2,-2,2,1
1514949425119945,14,104,17,1,-4,0,1,9
1514949425133943,-12,-84,-10,8,16,4,3,-3
1514949425133943,1,33,-29,-12,-1,1,-5,-4
1514949425135944,4,3,21,-10,-6,-6,0,-9
1514949425135944,-6,-63,11,12,1,4,1,5
1514949425156971,19,81,-2,12,2,5,8,10
1514949425156971,-21,-37,-41,-62,-9,-10,-8,-2
1514949425158964,4,-10,10,23,4,-2,1,4
1514949425158964,-8,-11,-15,-14,-1,1,7,-12
1514949425170981,3,-7,6,-53,-10,-3,-11,-2
1514949425170981,5,0,8,82,6,0,-9,-3
1514949425179976,0,24,-8,17,-4,-4,2,-11
1514949425179976,-5,26,6,-4,-6,-4,-1,14
1514949425194002,24,27,6,-16,1,-1,-3,-6
1514949425194002,3,-62,-18,15,8,7,23,10
1514949425195987,-1,-17,3,-45,2,-1,-22,2
1514949425195987,-9,-23,12,10,7,2,4,-8
1514949425217001,3,7,10,25,-3,-1,-6,-4
1514949425217001,0,-27,6,15,-7,-3,-5,-1
1514949425218014,-2,-19,-4,22,-3,0,6,-1
1514949425218014,-12,27,20,-11,10,-2,-7,-11
1514949425231024,-2,28,-20,6,-8,-2,8,4
1514949425231024,-7,-67,-4,-23,-4,-1,-3,0
1514949425240017,2,5,-25,-4,1,0,1,2
1514949425240017,7,39,-6,-8,-5,-4,-9,-2
1514949425254040,1,12,48,11,-4,-2,4,2
1514949425254040,2,33,28,36,8,1,-7,1
1514949425256042,-2,-26,-36,-74,-7,3,10,6
1514949425256042,-13,-14,-7,3,-7,-3,2,-6
1514949425277048,2,4,28,30,-4,-5,-4,-2
1514949425277048,-3,-10,-17,4,3,-2,-4,-1
1514949425278045,5,29,-10,-10,-2,2,6,10
1514949425278045,-6,-61,-15,9,12,0,-3,-9
1514949425299059,-8,34,18,-18,-1,2,-6,-1
1514949425299059,7,35,-24,-20,-8,-4,-2,1
1514949425299059,-1,2,5,33,1,-2,-1,5
1514949425299059,11,-9,-6,-27,-7,-3,1,-5
1514949425314082,11,11,12,22,4,0,-2,11
1514949425314082,-14,-2,-16,-23,-7,-2,7,-13
1514949425314082,15,28,20,14,6,-2,-10,-2
1514949425314082,10,53,10,23,3,0,-2,12
1514949425336095,-28,-18,-43,-25,-22,-11,-2,6
1514949425336095,-9,-9,-6,-10,-1,-2,-2,-29
1514949425337087,14,25,15,5,3,1,-1,5
1514949425337087,3,24,25,39,6,-1,-3,2
1514949425359111,-6,-1,-52,-24,-7,-2,-2,-11
1514949425359111,-1,37,7,17,2,1,0,9
1514949425359111,-19,12,-4,-30,-9,-5,-5,-10
1514949425359111,7,5,-25,-19,3,2,2,-3
1514949425374130,1,20,15,45,6,-1,-3,8
1514949425374130,-12,-67,-32,-6,-20,-7,-4,-7
1514949425374130,5,8,7,9,17,5,6,-23
1514949425374130,-14,-15,64,5,-3,-2,-9,0
1514949425397132,7,16,-17,-17,2,-1,2,-2
1514949425397132,1,-2,1,-10,-1,0,-2,7
1514949425399130,9,28,-7,8,-4,-2,3,6
1514949425399130,-3,-11,-33,-5,-10,-1,9,-5
1514949425419157,1,20,18,19,7,1,-14,1
1514949425419157,1,3,29,-47,-1,2,-2,-6
1514949425419157,-4,-1,-29,15,-10,-7,-2,1
1514949425419157,7,73,-14,0,1,0,1,4
1514949425434167,-17,-76,-11,-16,-1,-1,2,-7
1514949425434167,6,43,13,24,6,-3,-6,13
1514949425434167,4,-15,14,-13,-1,1,9,-6
1514949425434167,-21,-54,-37,-17,-18,-11,-23,-19
1514949425456180,9,-2,-16,4,1,0,9,15
1514949425456180,12,-52,13,-21,2,4,2,7
1514949425457171,-27,16,-24,-13,3,-4,1,-12
1514949425457171,21,23,24,20,7,8,9,21
1514949425478196,-14,3,-6,-19,-7,-6,-6,-18
1514949425478196,0,-34,-40,19,4,0,1,4
1514949425479215,9,13,37,17,-2,5,-1,7
1514949425479215,-8,-45,-23,-28,-3,-2,1,-6
1514949425493206,-12,-60,-4,11,4,-2,-2,-5
1514949425493206,5,79,-6,-8,-6,-3,0,4
1514949425502203,6,-4,47,20,5,1,-1,12
1514949425502203,-21,13,-11,-12,12,1,-1,-23
1514949425516225,7,-11,0,16,-2,-2,1,4
1514949425516225,3,-23,14,-6,0,1,2,5
1514949425517235,0,23,-18,-19,0,-1,-3,4
1514949425517235,3,-30,4,17,-5,1,1,14
1514949425538241,0,88,5,-23,-1,0,-2,-5
1514949425538241,-3,-4,9,1,1,-1,-1,-9
1514949425539248,-6,-70,-9,13,3,-2,2,-4
1514949425539248,2,32,6,7,-11,-4,-3,-4
1514949425555240,8,-23,13,2,3,1,7,1
1514949425555240,-5,15,4,0,-3,-4,-17,0
1514949425557253,-13,-16,27,33,1,-3,6,-26
1514949425557253,10,-44,-31,-11,-8,-3,-4,2
1514949425576256,-7,29,-4,-23,-6,-2,-4,-3
1514949425576256,-3,9,28,-22,-2,-2,-1,-6
1514949425577256,-10,-16,-9,8,-4,2,-1,1
1514949425577256,25,93,41,-1,6,0,0,1
1514949425598283,-16,-69,-49,-1,-6,-6,-3,-8
1514949425598283,3,17,8,25,9,5,5,5
1514949425599271,-20,52,-57,-63,-20,-13,-8,0
1514949425599271,3,8,34,24,5,2,4,8
1514949425613281,13,-11,3,2,-7,3,-1,3
1514949425613281,3,30,-8,18,4,-6,1,-2
1514949425614282,-11,-42,0,12,8,6,0,11
1514949425614282,-6,-31,-5,-8,-3,2,5,-11
1514949425636337,8,2,11,-9,-4,-2,1,1
1514949425636337,-7,-10,-16,-16,-6,-2,-6,1
1514949425638299,7,13,7,20,3,0,-3,-4
1514949425638299,-2,-19,-14,-27,-6,-2,3,6
1514949425659317,-3,13,-4,18,-9,-4,-10,-3
1514949425659317,0,8,12,30,10,-1,4,-4
1514949425659317,-12,-29,-23,-60,-7,-1,-3,1
1514949425659317,15,-19,2,33,1,-1,-1,1
1514949425673333,-5,-30,-65,-43,-2,-1,2,-1
1514949425673333,-15,-8,6,32,-5,0,-2,-4
1514949425674325,20,12,28,0,13,5,-2,3
1514949425674325,-10,9,-70,-8,-8,-3,-2,2
1514949425697341,9,30,-2,14,4,-2,-3,8
1514949425697341,4,0,23,-12,-1,0,-3,-4
1514949425698342,9,-2,-10,8,2,0,-5,-66
1514949425698342,-17,46,11,-8,1,0,2,74
1514949425726363,14,29,20,19,10,2,2,27
1514949425726363,-15,-15,-17,-6,-5,-2,0,-12
1514949425727362,0,-3,-3,-15,-12,-6,-6,-12
1514949425727362,-13,-40,47,24,8,-2,-8,-18
1514949425733378,-1,12,8,3,-2,0,2,-8
1514949425733378,-3,-5,4,-61,-11,-1,-1,9
1514949425734366,16,26,-1,33,0,-2,-2,30
1514949425734366,1,4,-11,-30,-4,-1,2,-30
1514949425756382,-2,5,15,44,8,4,5,-9
1514949425756382,-9,-8,-16,-5,-7,-3,-2,-8
1514949425758384,5,-50,7,-33,-5,2,-1,12
1514949425758384,-4,13,8,11,16,5,0,-2
1514949425778407,10,7,-1,-7,-11,-3,-4,-1
1514949425778407,0,7,-38,-3,4,0,0,-5
1514949425779401,-13,20,19,10,-1,0,0,-3
1514949425779401,3,-17,-3,51,-1,-7,-9,-4
1514949425793408,-6,-75,-11,-48,-11,-3,2,2
1514949425793408,-14,-13,-47,-32,-6,-3,-2,-15
1514949425794409,11,40,25,35,8,0,1,28
1514949425794409,-9,-12,1,9,1,2,-3,-18
1514949425816434,-17,4,-3,-5,2,-2,-4,-17
1514949425816434,7,-17,-16,1,-2,-6,-4,6
1514949425816434,7,2,5,18,-2,-2,0,-10
1514949425816434,10,24,-21,-28,-7,1,1,9
1514949425838440,11,-1,10,-8,8,0,-2,14
1514949425838440,-10,19,14,21,5,1,0,-34
1514949425839441,7,13,6,-5,-5,-2,0,12
1514949425839441,-4,-12,17,3,-1,0,0,-24
1514949425853454,-8,-65,-17,-31,-7,-2,2,-5
1514949425853454,10,2,10,34,5,0,-3,15
1514949425854453,-16,-19,-13,7,2,-3,1,-3
1514949425854453,17,-20,-3,-18,-14,-2,1,-3
1514949425876486,-11,62,-21,9,5,-4,-5,-8
1514949425876486,4,-12,18,-22,-12,-3,0,11
1514949425877468,0,-23,-15,-5,-5,3,0,-9
1514949425877468,0,36,18,-5,1,-2,-2,13
1514949425898493,0,-14,18,32,2,-1,-6,2
1514949425898493,-1,48,38,24,9,4,1,-14
1514949425899483,0,-54,-68,-76,-21,-10,-6,0
1514949425899483,-12,-5,4,2,-6,-4,-2,-16
1514949425913493,7,11,38,3,2,2,0,-2
1514949425913493,7,-27,5,16,-6,-4,0,21
1514949425921499,-14,-21,14,11,9,1,-2,-10
1514949425921499,-12,7,-20,-20,0,-2,-2,-7
1514949425936521,-2,-3,5,-5,-9,-4,-2,-4
1514949425936521,-1,-2,-5,6,1,0,1,-1
1514949425937521,-4,7,-13,-16,0,-2,-4,2
1514949425937521,2,-78,-12,-9,-6,-2,-1,-2
1514949425958545,-5,34,1,14,4,-2,-1,3
1514949425958545,-3,-5,-9,-7,-3,-1,0,-12
1514949425959531,7,39,32,38,3,1,-1,13
1514949425959531,7,4,21,-7,2,2,4,-3
1514949425973536,2,-31,5,0,2,0,-1,-4
1514949425973536,1,5,-17,-11,-3,-2,3,5
1514949425974538,7,3,-34,-17,1,0,-3,0
1514949425974538,5,49,41,40,-1,-1,2,9
1514949425996570,1,16,-31,-41,-1,0,-1,-10
1514949425996570,5,7,24,-2,-2,0,-5,8
1514949425998568,4,19,-9,-2,0,1,4,1
1514949425998568,6,20,-12,20,6,1,-1,4
1514949426018580,-9,-93,-8,-5,-10,0,0,5
1514949426018580,3,47,2,-8,17,-5,-4,5
1514949426019569,1,27,7,21,-1,-1,-3,-25
1514949426019569,-2,-23,-14,-25,-6,-4,-3,-4
1514949426033579,4,71,7,30,1,-1,-3,-5
1514949426033579,1,-47,-27,-38,-13,-4,-2,2
1514949426034579,1,-2,0,17,0,-1,6,5
1514949426034579,-6,1,11,1,1,-2,-1,15
1514949426056622,-20,-17,8,8,0,-1,1,-23
1514949426056622,-2,-18,-22,11,-5,-1,-6,-1
1514949426056622,-11,-21,1,0,3,-3,-3,-4
1514949426056622,5,-49,-31,20,0,2,0,2
1514949426078620,-6,46,-10,-13,-2,-3,1,1
1514949426078620,-8,-2,-8,-22,-3,0,1,0
1514949426079611,-12,32,17,34,1,-1,-4,-3
1514949426079611,-1,-39,-19,-51,-6,-3,-2,2
1514949426092621,0,35,1,14,3,-1,1,-4
1514949426092621,-3,-2,3,0,1,2,4,2
1514949426101626,4,-11,-10,3,1,-2,-2,9
1514949426101626,-10,36,-9,-5,-1,0,1,-14
1514949426116649,13,-12,-7,-1,-4,-3,-2,8
1514949426116649,-2,-13,20,0,6,3,-1,-2
1514949426116649,0,4,19,-10,-8,0,1,-2
1514949426116649,-6,5,-7,8,-6,-5,-3,-3
1514949426138662,4,-20,-5,-10,6,-1,-2,20
1514949426138662,14,25,6,16,-7,-1,1,-6
1514949426139663,14,13,-4,-6,-1,-3,-3,30
1514949426139663,-20,-52,5,5,3,0,0,-25
1514949426152672,-9,-19,-3,-6,1,0,-4,-7
1514949426152672,9,49,7,14,-1,0,1,11
1514949426160669,-12,-38,7,-7,-3,-2,-1,-10
1514949426160669,5,37,15,19,-2,-5,-4,2
1514949426176679,8,-41,-21,-34,-5,-2,1,13
1514949426176679,-16,-23,22,9,3,3,0,-23
1514949426176679,0,-3,-8,2,4,2,4,7
1514949426176679,5,9,19,19,5,5,4,10
1514949426198706,-3,21,36,-5,4,-5,-6,-7
1514949426198706,-2,3,-26,-20,-9,-4,1,-9
1514949426199707,-11,-47,-18,-16,-6,-7,-1,-11
1514949426199707,-14,-3,-11,-12,3,0,-6,3
1514949426221721,-5,13,7,12,-4,0,0,-6
1514949426221721,9,23,10,8,7,1,1,10
1514949426222717,33,5,7,1,0,-1,0,45
1514949426222717,-46,-21,-19,-37,-7,-7,-8,-52
1514949426235730,10,1,-3,-3,2,1,3,11
1514949426235730,-3,-31,2,-8,-5,-2,-3,-3
1514949426236721,6,19,-3,-25,-4,0,2,7
1514949426236721,28,48,6,3,0,1,2,12
1514949426258738,-14,-16,11,17,-2,-1,-1,-24
1514949426258738,9,-52,-69,-11,4,1,3,9
1514949426259739,-20,17,15,16,-5,3,-4,-25
1514949426259739,-2,-38,-4,-25,-3,-4,-1,3
1514949426272747,4,52,-8,10,-11,-4,0,-1
1514949426272747,-4,-15,39,2,2,-2,-2,5
1514949426280765,-3,4,-13,-52,0,0,-3,-19
1514949426280765,13,4,-1,9,3,-2,-2,4
1514949426295773,2,-8,-7,9,3,-1,-2,6
1514949426295773,-13,25,7,-12,-7,-6,-3,-10
1514949426296764,4,-19,-20,22,0,-1,0,-9
1514949426296764,-8,-30,-8,-18,-1,0,-2,11
1514949426318792,-1,2,-7,17,1,-1,0,-2
1514949426318792,-8,-29,24,-12,-2,-7,-4,-13
1514949426319792,8,36,11,-4,-2,1,3,15
1514949426319792,0,30,-20,0,-2,-1,-2,-8
1514949426332799,0,-23,7,6,0,0,0,7
1514949426332799,13,15,7,20,2,2,2,16
1514949426340805,-21,13,-9,17,1,2,1,-24
1514949426340805,-1,-34,15,-4,-8,-5,-3,10
1514949426355815,8,36,-9,-7,4,3,2,-1
1514949426355815,-12,17,-13,3,-1,-4,-6,1
1514949426356806,-1,-60,11,-43,-4,2,2,-9
1514949426356806,-1,6,-2,13,-5,-2,-4,-1
1514949426378825,-10,0,0,20,12,2,-3,-4
1514949426378825,0,-30,-15,17,1,2,-1,2
1514949426379833,-3,7,3,-47,-13,-7,-2,-6
1514949426379833,-9,-11,13,19,2,0,2,-5
1514949426392834,2,-11,-52,-7,-4,-1,0,6
1514949426392834,-1,23,-8,-23,-5,-2,-2,0
1514949426400838,-1,-26,46,25,7,-3,-5,3
1514949426400838,11,26,-56,6,2,2,5,7
1514949426415858,1,13,30,-8,2,-1,-5,0
1514949426415858,-2,-29,-18,9,-4,-2,1,14
1514949426416849,-12,-4,-14,8,-7,-6,-4,-32
1514949426416849,2,9,26,20,13,2,0,4
1514949426438877,0,-24,-16,-42,-13,-5,-6,0
1514949426438877,21,27,8,7,1,-1,-3,16
1514949426439874,-48,-26,2,17,2,1,-2,-32
1514949426439874,8,8,11,19,5,2,-1,0
1514949426461891,1,-8,8,-22,-9,-5,5,-4
1514949426461891,-1,-30,13,-3,1,0,-5,-2
1514949426462882,10,27,-16,24,3,-5,-1,31
1514949426462882,-3,-9,2,-10,-5,-3,0,-19
1514949426475907,-1,1,-33,-41,-12,-1,-1,-6
1514949426475907,4,20,-3,-45,-12,-4,-1,-8
1514949426476891,14,-27,15,52,13,7,1,8
1514949426476891,11,20,-9,-13,1,1,2,15
1514949426499908,-9,-22,10,24,2,-1,-5,-32
1514949426499908,2,12,8,19,3,1,-1,12
1514949426501924,8,25,2,-17,-5,-2,0,-6
1514949426501924,7,-10,19,-4,0,-1,-1,17
1514949426521935,-3,-10,5,26,-1,2,1,-6
1514949426521935,-6,-33,8,0,-2,0,-2,-2
1514949426522924,4,26,17,4,-4,-1,-1,-7
1514949426522924,-6,-28,-54,-27,-10,-5,-2,10
1514949426535933,5,35,25,45,12,2,3,9
1514949426535933,-14,-24,7,17,1,-1,0,-11
1514949426536940,12,5,-15,-19,-4,-3,0,19
1514949426536940,-41,-2,21,15,-4,-1,-2,-32
1514949426558959,2,11,13,-4,-5,-3,-4,3
1514949426558959,-4,-13,-9,21,10,3,3,-5
1514949426559951,2,29,1,-18,-5,-4,-3,2
1514949426559951,7,-21,15,20,11,4,2,3
1514949426581966,-8,9,-51,-13,-14,-8,-2,-1
1514949426581966,-7,-4,20,13,0,0,1,-14
1514949426583977,-2,-16,-31,-6,-2,1,0,10
1514949426583977,5,23,1,-11,-2,-3,-5,-15
1514949426595975,-1,-13,8,-19,-5,0,-1,1
1514949426595975,1,14,36,40,2,-3,-1,6
1514949426596977,-10,-15,-9,-25,-10,-2,-2,-22
1514949426596977,-10,10,19,-7,-1,-3,-4,-9
1514949426619004,-1,-5,9,9,7,2,-2,8
1514949426619004,6,24,-10,-39,-8,-2,4,2
1514949426620005,5,-43,5,13,7,1,3,16
1514949426620005,1,21,-1,-16,-6,-3,-5,-2
1514949426642021,2,3,24,14,7,2,-2,-3
1514949426642021,-4,2,-22,4,-2,2,1,0
1514949426644011,7,22,12,4,-1,-2,-2,14
1514949426644011,-7,-11,-46,-38,-1,-1,4,-21
1514949426656033,-2,-9,25,63,-3,-8,-4,-2
1514949426656033,5,8,-25,2,1,3,-2,-7
1514949426657020,-9,0,6,-75,-4,-3,-2,-6
1514949426657020,0,-17,13,2,-7,-2,-1,15
1514949426679034,-2,12,-56,-16,2,-3,-3,-12
1514949426679034,-12,-13,-25,-1,-6,-5,-3,-15
1514949426680035,1,26,-12,29,4,1,-1,-2
1514949426680035,1,1,2,7,3,1,-3,0
1514949426703051,10,-5,2,-6,1,3,1,3
1514949426703051,-1,1,2,-17,-2,-1,3,4
1514949426705065,-8,-14,-29,-15,5,3,-3,-11
1514949426705065,9,15,19,10,-11,-3,-2,8
1514949426716073,-4,-3,8,-4,4,2,3,13
1514949426716073,-1,12,-20,11,1,-4,-5,-21
1514949426717061,0,0,45,11,-5,-2,-1,4
1514949426717061,8,-13,-21,-4,0,-2,2,13
1514949426739089,-17,-17,21,-34,-3,-1,-4,-11
1514949426739089,3,17,1,17,1,-1,-4,2
1514949426740077,-4,-10,-9,20,-6,-4,-2,-4
1514949426740077,15,10,7,-15,-2,0,3,3
1514949426762109,-1,11,24,-10,2,2,0,15
1514949426762109,1,-19,-5,-11,-4,-2,2,7
1514949426763094,0,28,5,24,1,0,-1,-14
1514949426763094,-8,-43,-13,-5,-4,-1,-2,1
1514949426776104,8,25,0,17,2,-4,2,-6
1514949426776104,-9,-5,1,-77,-4,0,-5,-5
1514949426777104,12,5,8,45,1,-3,2,5
1514949426777104,1,-6,2,-1,-4,-3,-4,-6
1514949426799119,1,8,3,47,5,1,-2,9
1514949426799119,0,-8,-21,-29,-13,-6,-4,-18
1514949426800119,-11,-37,-1,-8,7,2,0,-25
1514949426800119,4,3,8,30,3,0,-5,3
1514949426822136,0,-14,-20,-34,-9,-3,-2,-4
1514949426822136,0,25,11,18,5,-3,-4,5
1514949426823138,7,-1,-7,11,-5,-1,1,-1
1514949426823138,-4,8,8,3,5,1,1,-1
1514949426836145,-7,-16,10,9,-2,-1,0,-3
1514949426836145,5,16,9,-29,-1,-2,0,3
1514949426837145,-5,-15,-10,-24,-1,1,0,5
1514949426837145,4,-14,-4,5,-4,-3,-1,3
1514949426860163,2,12,-3,0,4,2,2,1
1514949426860163,-13,-4,-3,-16,-7,-3,-3,-19
1514949426862164,5,11,13,41,3,0,-1,13
1514949426862164,-15,-6,-3,-23,-8,-3,-4,-22
1514949426883188,-6,-12,-7,-34,-4,-1,-1,-3
1514949426883188,-1,-19,-2,42,4,3,3,1
1514949426884189,7,2,5,-4,-1,-3,-2,9
1514949426884189,5,24,-11,2,-5,-4,-2,-3
1514949426896188,-6,6,6,-10,1,1,-1,-32
1514949426896188,2,-17,14,47,4,2,1,13
1514949426897189,5,-18,-15,-60,-6,-2,2,11
1514949426897189,-8,-12,13,-7,-3,-1,-1,-5
1514949426919213,-12,-15,-23,24,-9,-8,-4,5
1514949426919213,7,0,-11,8,6,4,2,1
1514949426920205,-6,8,11,-8,-4,0,-3,-9
1514949426920205,4,11,3,11,7,3,-1,5
1514949426943222,2,-11,-1,13,3,0,-1,5
1514949426943222,-4,6,-9,-1,-2,-3,0,-1
1514949426944221,-2,3,24,1,0,0,1,1
1514949426944221,-1,1,0,-1,7,2,2,6
1514949426956230,1,11,-8,-6,-6,-1,-2,-6
1514949426956230,-1,5,13,-1,-2,-1,-3,-5
1514949426957230,12,10,-4,-12,3,2,0,24
1514949426957230,-17,-17,0,1,-5,-5,-4,-24
1514949426980247,6,11,15,-9,-5,-2,-2,6
1514949426980247,4,-9,11,-29,3,-1,1,8
1514949426980247,-6,-4,-7,25,-6,-6,-5,-13
1514949426980247,-3,-10,-8,9,6,2,0,12
1514949427002262,11,-5,32,5,3,-2,0,-3
1514949427002262,-14,8,-11,-54,-14,-6,-5,-11
1514949427004264,-1,-15,7,11,5,0,-2,-3
1514949427004264,5,6,-3,4,-2,-2,0,-4
1514949427015272,-3,-20,-3,-26,1,-2,-3,12
1514949427015272,-3,-7,11,43,-2,0,1,-5
1514949427023277,-11,-4,13,4,3,2,-2,-14
1514949427023277,7,10,-1,-20,-3,0,-2,7
1514949427039306,2,8,-2,18,7,2,0,9
1514949427039306,-1,0,-6,4,-6,-3,1,5
1514949427040307,4,6,-26,-33,-1,0,0,2
1514949427040307,-1,-3,-10,6,3,-2,-4,-6
1514949427061305,7,24,2,-1,0,2,1,-1
1514949427061305,-10,-18,-16,-42,0,-2,-1,-4
1514949427062310,5,5,-18,24,-4,-4,-4,-5
1514949427062310,-2,-2,18,-4,-4,-1,1,9
1514949427075338,0,10,-13,-19,-7,-5,-3,-17
1514949427075338,-6,-12,2,32,3,0,-5,0
1514949427083332,6,7,-18,-6,3,2,4,14
1514949427083332,-1,5,5,9,-8,-3,-1,-10
1514949427100332,2,0,-6,-27,-3,1,1,12
1514949427100332,-1,10,16,-5,7,1,1,-8
1514949427102333,-10,-15,-18,5,-8,-4,-2,-14
1514949427102333,12,16,-2,26,6,1,-4,10
1514949427121347,0,0,11,-50,-7,-5,0,-3
1514949427121347,-5,-9,-16,31,0,0,0,9
1514949427122347,-5,-12,15,-5,-3,1,-2,-12
1514949427122347,0,2,11,-11,-1,-1,-1,3
1514949427135357,-3,-2,4,-23,1,4,2,6
1514949427135357,1,9,5,26,2,-1,-1,-4
1514949427144363,-3,-3,-22,-36,-13,-6,-2,-4
1514949427144363,1,-9,15,23,7,2,1,1
1514949427159375,6,-8,-44,-13,-3,-1,0,1
1514949427159375,-13,-9,26,-14,-3,-2,-3,-9
1514949427160376,-10,-16,-28,-12,-3,-2,0,-14
1514949427160376,5,26,2,-1,-3,-2,-2,6
1514949427182405,-7,-18,3,33,2,-4,1,1
1514949427182405,6,-26,3,8,-3,-2,-1,-4
1514949427183409,-5,9,2,-26,-6,-2,-4,2
1514949427183409,-15,-21,-24,-41,-4,0,-3,-27
1514949427195409,-10,-1,-3,18,2,1,0,-4
1514949427195409,11,29,12,81,7,2,-2,9
1514949427203415,-3,-17,-5,-67,-13,-9,-4,-11
1514949427203415,1,-29,-35,-33,-14,-7,0,2
1514949427219428,-8,15,2,23,-6,-4,-6,-4
1514949427219428,11,11,0,-11,5,3,1,0
1514949427220429,-9,-22,1,24,4,2,1,0
1514949427220429,2,36,10,20,-1,-4,-6,4
1514949427241432,-7,-23,12,-20,-11,-4,-3,-6
1514949427241432,0,-25,-37,-10,-2,-1,2,-2
1514949427242434,3,38,29,-7,7,3,-3,7
1514949427242434,-7,-24,-14,-4,-6,-1,1,2
1514949427255454,-3,-8,22,34,6,1,2,-8
1514949427255454,-6,10,0,-9,-2,-3,-3,1
1514949427263457,2,-2,5,12,0,-1,-2,-1
1514949427263457,8,19,5,12,3,2,-2,3
1514949427279458,-5,-10,-6,16,4,4,-2,7
1514949427279458,5,-10,-23,-49,-12,-3,-1,0
1514949427280459,2,-10,-1,31,4,0,0,2
1514949427280459,1,39,-3,5,1,-1,-3,5
1514949427309498,3,-16,-9,-1,-1,1,0,-4
1514949427309498,5,-7,11,9,3,1,0,1
1514949427310491,-2,-14,-18,-5,-11,-4,1,2
1514949427310491,6,24,2,-1,-4,2,0,2
1514949427315499,-2,-7,-6,-10,-4,-2,-2,-8
1514949427315499,-8,-16,4,-33,-2,0,-2,1
1514949427323489,11,26,19,39,8,1,1,-5
1514949427323489,-6,-18,18,13,7,3,2,7
1514949427339511,-1,18,-12,30,3,-1,-2,-5
1514949427339511,-4,-5,-19,-87,-18,-7,1,4
1514949427340502,5,10,26,15,3,4,2,1
1514949427340502,-2,-8,-46,-6,1,-1,-1,0
1514949427361516,-6,-34,15,9,5,1,-4,2
1514949427361516,6,29,38,16,5,-2,1,-3
1514949427362517,-1,6,-40,20,0,-1,-1,2
1514949427362517,-5,-26,15,-6,1,-3,0,-5
1514949427385534,-6,4,-8,-13,-6,-1,0,3
1514949427385534,0,10,5,7,3,1,-2,-9
1514949427387535,-5,-23,-13,19,-3,-5,-2,-6
1514949427387535,3,-8,6,-21,-3,0,3,6
1514949427399556,8,15,-8,-18,0,0,0,-2
1514949427399556,1,-15,15,26,2,1,1,13
1514949427399556,-9,0,26,-5,-1,-1,-1,-23
1514949427399556,2,1,3,-4,-4,-4,-4,0
1514949427421559,-7,-19,-8,15,-3,-3,0,-1
1514949427421559,0,6,-12,-27,0,-1,-2,-2
1514949427423560,0,-11,-12,6,-9,-5,1,5
1514949427423560,-4,-9,8,2,-1,-2,-1,-5
1514949427444576,-2,24,-8,13,1,0,1,-4
1514949427444576,-1,-5,-3,-6,-1,-1,0,-5
1514949427445576,0,-7,-18,-17,-1,-2,-4,0
1514949427445576,-1,1,-3,-36,-7,-4,-2,-6
1514949427457611,4,24,6,12,0,0,-1,-2
1514949427457611,-4,-14,-16,-2,-3,-3,-2,0
1514949427466591,-5,2,21,33,5,-1,1,-15
1514949427466591,3,11,-6,-16,0,-1,2,4
1514949427482603,8,6,11,-57,-2,-2,-2,5
1514949427482603,-3,2,4,29,-8,-1,-3,-12
1514949427486605,2,6,-1,-5,7,6,1,14
1514949427486605,3,4,37,32,9,5,-2,-1
1514949427504629,-12,-9,-47,-37,-19,-11,-4,-17
1514949427504629,1,-2,-16,-2,2,0,1,4
1514949427505630,-4,-13,9,12,4,0,0,5
1514949427505630,-1,6,-36,-5,4,3,0,-5
1514949427517636,-3,-32,9,-13,-1,-1,-1,6
1514949427517636,0,13,-7,10,-9,-2,0,2
1514949427532638,-6,-20,-3,-15,-7,-5,-4,-9
1514949427532638,-4,6,9,23,9,-1,-1,-2
1514949427541643,5,7,-7,-3,-4,-1,-1,1
1514949427541643,-1,-6,-2,-14,0,-1,-2,2
1514949427549660,-11,8,6,8,2,0,-1,-14
1514949427549660,3,-1,14,30,-1,-2,-2,7
1514949427564670,-6,-8,-11,-11,-6,-3,-2,-14
1514949427564670,12,33,22,28,6,5,3,10
1514949427565661,0,-35,1,1,-3,-2,-2,2
1514949427565661,-14,-4,18,3,-4,-5,-1,-4
1514949427578680,7,8,-20,-11,0,0,-1,4
1514949427578680,-4,-11,2,-10,-1,-1,-1,0
1514949427586685,8,43,8,15,1,1,0,-1
1514949427586685,-3,3,-6,-25,-7,-3,-4,-8
1514949427601687,2,-9,-47,14,1,2,-1,6
1514949427601687,-4,-3,8,7,-2,-1,-2,-7
1514949427603688,3,2,-13,-13,5,1,2,16
1514949427603688,-6,-10,-10,-21,-8,-2,-1,-17
1514949427624702,6,6,27,4,-2,0,-2,3
1514949427624702,-4,3,-16,-2,2,0,-3,-7
1514949427625704,1,-1,3,6,-3,0,-1,2
1514949427625704,-1,-3,-24,-11,-2,-4,-3,-5
1514949427639713,-3,4,28,73,13,1,0,-3
1514949427639713,-2,-19,-29,-99,-16,-5,0,-4
1514949427645717,5,14,24,-3,-2,-1,-1,7
1514949427645717,2,-13,-11,-4,-3,-1,-1,13
1514949427661741,-13,-4,13,3,3,1,-2,-13
1514949427661741,9,13,-6,40,2,-4,-6,4
1514949427663740,3,16,-15,-13,-1,2,-1,-11
1514949427663740,-1,-5,-23,-32,-11,-2,3,22
1514949427684745,-3,-4,19,18,6,0,1,-10
1514949427684745,-11,-10,13,41,3,0,2,1
1514949427687747,18,1,-19,-41,-10,-4,-4,2
1514949427687747,-36,-16,16,22,6,4,0,-3
1514949427698755,5,14,7,-12,0,0,-1,3
1514949427698755,-9,-14,-17,9,0,-2,1,-7
1514949427705772,2,5,21,11,-1,-1,-2,-1
1514949427705772,12,-1,4,14,0,1,2,-2
1514949427721783,1,9,-5,-42,-7,-4,-2,6
1514949427721783,-4,-11,17,-22,-8,0,1,-5
1514949427723785,-4,0,-14,18,8,2,1,9
1514949427723785,4,31,26,6,-3,-3,-3,-7
1514949427744796,-8,-50,-4,-6,-2,0,1,0
1514949427744796,6,13,2,0,2,-3,-3,-6
1514949427745790,-6,2,5,-3,-1,-4,-2,7
1514949427745790,-2,-21,-6,15,1,1,-2,-3
1514949427758798,-2,14,-10,-16,-7,-4,-2,-3
1514949427758798,-2,-5,-2,-13,4,2,0,-2
1514949427765809,-4,-22,-7,-8,-6,-4,-2,1
1514949427765809,3,0,-8,38,9,4,1,7
1514949427781818,-1,-3,-16,-44,-12,-4,-2,-4
1514949427781818,-6,13,-2,4,4,3,1,6
1514949427783817,-9,-3,4,-4,0,0,-2,-12
1514949427783817,10,-1,-4,-9,-2,1,-2,1
1514949427803849,5,11,2,31,3,-1,0,7
1514949427803849,-6,-15,11,18,3,-1,-2,-3
1514949427805840,6,12,-18,-30,-5,2,-1,-3
1514949427805840,-5,7,2,-12,-2,-3,-2,-2
1514949427818843,3,-6,-3,11,3,2,3,8
1514949427818843,-2,8,-35,-25,-1,0,1,-8
1514949427825845,-9,-24,0,25,-2,-2,-1,-1
1514949427825845,3,0,-13,-11,-2,-2,-1,3
1514949427842862,-12,-6,21,9,2,-1,-3,-9
1514949427842862,11,0,9,-2,-2,-1,-1,2
1514949427845863,1,0,-12,16,0,-1,-2,-2
1514949427845863,0,5,-4,4,-2,-2,0,-5
1514949427864875,4,-11,25,-5,4,4,2,11
1514949427864875,-3,4,-11,45,0,-5,-1,5
1514949427865876,-1,-1,13,-22,0,4,0,-1
1514949427865876,-10,-18,-12,-17,-3,-6,-5,-17
1514949427877884,5,12,-19,-5,-4,-4,-1,2
1514949427877884,-1,-14,27,20,5,0,-3,0
1514949427887889,-1,-1,8,-12,0,5,5,5
1514949427887889,9,-6,33,33,0,1,0,8
1514949427901902,-10,24,-35,-67,-10,-4,-1,-5
1514949427901902,-2,-29,13,6,-1,0,1,1
1514949427902900,2,9,15,-2,1,-4,-1,9
1514949427902900,-9,-7,-26,1,-1,0,-1,-4
1514949427924914,17,45,29,0,4,0,-1,7
1514949427924914,-10,-36,17,11,-2,0,0,-4
1514949427925917,-5,5,-28,-54,-14,-6,-3,-1
1514949427925917,3,-25,-36,-22,-1,-2,1,1
1514949427937926,0,-5,14,29,3,2,0,-8
1514949427937926,5,22,0,-15,-5,-2,-2,0
1514949427947935,6,-7,16,60,11,2,0,6
1514949427947935,-7,-1,-7,-56,-13,-6,-2,-18
1514949427961943,-1,9,-16,-2,-3,-5,-3,0
1514949427961943,-7,17,27,12,2,-1,-3,-8
1514949427963945,-5,-20,-69,-20,-4,-3,0,-4
1514949427963945,11,39,-1,7,3,1,0,-12
1514949427983964,-1,-18,7,20,2,-3,-3,5
1514949427983964,0,4,-20,-7,-7,-2,0,-10
1514949427985959,1,21,25,12,1,-2,0,-1
1514949427985959,-4,-25,7,0,1,-1,0,10
1514949427997968,-13,-37,-22,-15,-1,1,-1,-4
1514949427997968,2,-6,-19,-2,0,-3,-2,-3
1514949428008978,-6,8,-9,-12,-5,1,0,-3
1514949428008978,6,3,21,-1,5,-1,-1,4
1514949428021983,-4,-9,5,-8,-4,-3,-3,-1
1514949428021983,-6,-17,-18,-6,-5,-4,-1,1
1514949428023985,1,-10,12,-6,2,1,0,-4
1514949428023985,1,7,0,16,2,0,-2,1
1514949428046006,-5,-5,25,27,2,0,-1,-1
1514949428046006,2,10,-11,-23,-10,-2,1,0
1514949428049004,-3,1,13,-19,-5,-2,-4,-3
1514949428049004,-8,-29,-46,-18,-3,-2,-1,12
1514949428058010,5,16,6,11,4,-1,-2,-2
1514949428058010,-2,11,-8,-45,-4,-3,0,-2
1514949428067018,0,-16,8,32,4,-3,-1,3
1514949428067018,0,18,31,2,-6,-2,-2,-1
1514949428082026,-5,-14,-8,3,-2,1,3,0
1514949428082026,12,19,12,23,6,3,0,4
1514949428083030,-7,-8,-13,-8,-10,-6,-4,-8
1514949428083030,1,-6,4,-6,-1,-1,-1,-2
1514949428104045,3,4,7,27,2,0,-1,-1
1514949428104045,3,2,-16,-19,-3,-1,-2,3
1514949428106043,-2,-2,-19,-21,-1,1,2,-6
1514949428106043,8,7,35,23,3,2,-1,1
1514949428118053,-2,9,-11,-21,-5,-3,-2,5
1514949428118053,-9,-18,-4,16,2,-2,-4,2
1514949428127062,13,18,10,5,2,-1,-1,-3
1514949428127062,-5,-4,-4,3,-3,-1,0,-3
1514949428143070,4,18,-12,-34,3,0,0,-1
1514949428143070,0,-11,6,12,-2,-1,-1,-7
1514949428146075,-6,7,-18,-1,3,1,1,4
1514949428146075,2,3,1,13,-3,-4,-5,-6
1514949428164090,-1,-1,8,-11,1,-2,0,-2
1514949428164090,10,11,-9,-24,-2,-1,1,11
1514949428166088,-11,-12,9,6,-2,0,-1,-18
1514949428166088,-3,0,-4,6,2,0,-3,-4
1514949428178094,-2,2,19,19,0,1,3,2
1514949428178094,-2,-3,-13,-24,-6,-4,-3,0
1514949428187101,4,9,-31,-2,-3,-2,0,6
1514949428187101,-7,-16,-3,-17,-3,-1,0,-8
1514949428202115,2,-1,6,18,3,0,-1,-5
1514949428202115,-3,0,18,37,7,3,-1,-8
1514949428203114,5,1,41,-43,0,0,-2,3
1514949428203114,-8,-6,-41,-9,-3,1,2,2
1514949428224126,2,-9,-18,-16,-8,-4,-3,3
1514949428224126,-12,-14,10,14,3,0,5,-8
1514949428228132,-3,1,-22,2,-4,-4,-8,0
1514949428228132,-2,2,5,5,3,0,-2,2
1514949428238135,-1,1,6,-2,-5,0,-2,-3
1514949428238135,-8,1,0,6,1,-1,-1,-5
1514949428247142,-7,-11,-10,12,-1,-3,0,1
1514949428247142,3,8,6,-24,-5,-3,-4,3
1514949428262165,2,0,-8,-2,0,-1,-4,-3
1514949428262165,-7,2,-9,-17,-6,-2,-2,-2
1514949428263153,2,0,7,12,-1,0,0,-2
1514949428263153,-2,-12,-4,-1,1,-1,-1,-2
1514949428284169,0,-11,-4,-9,-3,-2,-1,0
1514949428284169,5,10,-4,6,1,0,1,3
1514949428286180,-5,-2,3,4,0,0,0,-2
1514949428286180,-3,3,6,8,-2,-1,3,1
1514949428307197,-5,-6,-14,8,-1,-1,-5,-5
1514949428307197,6,4,5,-12,0,0,2,6
1514949428309189,-5,-1,-1,-6,-3,0,-1,-15
1514949428309189,5,3,4,8,0,-3,-4,0
1514949428321207,-2,-9,0,5,-1,1,3,2
1514949428321207,-2,-8,0,13,-1,-1,-1,-2
1514949428328212,5,2,8,12,2,-1,1,8
1514949428328212,-7,1,3,-5,2,0,1,-9
1514949428345212,1,-5,1,9,0,-1,1,-1
1514949428345212,-2,8,-2,-9,-3,-2,-2,-4
1514949428347222,5,-2,-3,3,1,-2,-3,3
1514949428347222,-3,4,0,11,-2,-1,-1,0
1514949428367240,-4,-3,-8,-32,-4,-3,-1,-2
1514949428367240,1,-1,-1,-15,1,0,-1,-2
1514949428369230,-6,-7,-2,1,-5,-3,-2,-2
1514949428369230,4,7,5,8,3,2,-2,3
1514949428382237,-1,2,0,15,3,-1,-1,-4
1514949428382237,-2,-9,-2,0,0,1,-2,-1
1514949428384250,1,-3,5,3,1,0,-1,-1
1514949428384250,-1,-2,-2,-14,-1,1,0,0
1514949428404263,-1,-1,0,3,-2,-1,-2,0
1514949428404263,-1,-6,-4,0,0,-1,1,-1
1514949428406254,1,-4,5,12,2,0,0,2
1514949428406254,-4,11,-10,-16,-5,-4,-6,-1
1514949428427272,-1,20,-2,-5,-1,0,-2,-1
1514949428427272,-4,-37,-1,12,1,-2,0,3
1514949428431282,-1,6,2,8,-2,-2,0,-1
1514949428431282,-5,-31,-14,-9,-3,-3,-1,-3
1514949428442293,0,0,0,-2,-3,-1,0,-3
1514949428442293,2,16,2,-2,-2,-1,-2,-1
1514949428443282,1,-7,-3,-8,-1,-2,0,1
1514949428443282,0,6,9,25,1,-1,-1,0
1514949428464296,-2,-5,-14,-44,-5,-2,-3,-1
1514949428464296,1,1,-3,2,0,-1,-1,-2
1514949428466298,-4,-3,5,8,1,0,-1,-2
1514949428466298,0,9,-2,4,-2,-2,1,0
1514949428487317,1,2,0,-27,-1,-2,0,1
1514949428487317,-3,-11,-2,22,-2,-3,-3,-3
1514949428489314,-4,-11,-8,-22,0,0,-2,-2
1514949428489314,2,8,8,15,1,1,0,1
1514949428501322,-4,-11,-7,8,-8,-5,2,-3
1514949428501322,1,4,-2,-15,1,0,-4,1
1514949428508327,-3,3,2,13,-2,-2,0,-2
1514949428508327,0,-1,-4,-28,0,-1,-1,0
1514949428524350,-1,-8,3,13,3,-1,-3,-1
1514949428524350,-1,4,-3,-3,-5,-2,0,-1
1514949428526362,0,-1,-4,0,-1,-2,0,1
1514949428526362,0,2,3,-22,-5,-1,0,-2
1514949428546355,-2,-2,-7,4,-5,-3,-2,-4
1514949428546355,1,1,6,10,3,1,0,0
1514949428548356,0,-1,-4,6,-3,-2,-3,-1
1514949428548356,-2,0,-7,-18,-3,-4,-4,-2
1514949428561376,1,-7,7,27,6,3,0,3
1514949428561376,-3,-2,-4,14,-5,-2,0,-5
1514949428568380,0,0,-8,-47,-3,1,-2,-1
1514949428568380,2,4,10,14,5,0,-2,2
1514949428584381,-5,-3,3,-13,2,-2,-2,-3
1514949428584381,-4,-4,-18,14,-13,-7,-3,-4
1514949428586383,-2,-4,-9,-12,-3,-1,0,-1
1514949428586383,1,3,4,18,2,1,0,0
1514949428606408,0,-3,-1,-23,0,-1,-1,-1
1514949428606408,-1,2,8,4,4,1,-2,2
1514949428608398,1,2,0,20,-1,-1,0,-3
1514949428608398,-2,-4,0,4,-4,-1,-2,-1
1514949428621419,0,-1,-2,-1,1,-1,0,1
1514949428621419,1,0,2,-4,0,0,-2,0
1514949428628411,-2,-1,4,1,0,-1,-1,0
1514949428628411,-2,-1,-5,-3,-4,-1,-1,-2
1514949428644424,-2,-2,-1,23,-2,0,5,-3
1514949428644424,0,4,8,-6,1,-2,-8,-3
1514949428645423,-1,-3,-5,-1,-5,-2,0,-1
1514949428645423,1,-1,-1,0,-1,-2,2,1
1514949428668458,-1,-1,2,8,-1,-1,-3,3
1514949428668458,2,0,6,10,2,1,-1,0
1514949428669458,-5,-3,-9,-50,-7,-3,-1,-2
1514949428669458,-7,-3,-5,14,2,-1,-4,-9
1514949428681449,1,-4,0,3,3,-2,-2,1
1514949428681449,3,2,-1,-13,-5,-1,2,2
1514949428688468,3,1,6,30,8,3,1,5
1514949428688468,0,0,-2,-5,-1,-2,0,2
1514949428705479,-6,-2,-3,-9,-5,-2,-1,-5
1514949428705479,-3,-3,-3,-10,0,0,-2,-1
1514949428707467,-1,0,-2,-7,-1,-2,-3,-2
1514949428707467,-2,-3,-4,-6,-4,-3,-2,-2
1514949428726482,-2,1,3,20,2,0,-1,-2
1514949428726482,-2,-2,-3,-15,-2,-1,1,-2
1514949428728482,-2,1,2,1,-1,0,-2,-2
1514949428728482,1,2,5,0,4,0,-1,3
1514949428741491,-3,-8,-12,5,-10,-4,-3,-3
1514949428741491,-4,-6,-7,-17,-4,-1,0,-4
1514949428747508,1,3,2,0,0,0,-3,-1
1514949428747508,0,0,-3,-7,-3,1,1,-1
1514949428764508,1,5,12,22,9,3,0,1
1514949428764508,-5,-10,-13,-14,-9,-3,1,-6
1514949428765519,-3,-3,5,8,-1,-2,-4,-2
1514949428765519,-4,-1,-2,23,-1,-1,0,1
1514949428787534,-1,-1,-6,-55,-4,1,3,-2
1514949428787534,1,1,2,9,4,1,-1,1
1514949428791526,0,-2,-3,6,-5,-3,-3,-2
1514949428791526,0,-3,-4,-1,-1,-1,-2,-1
1514949428800543,-1,-2,-3,1,1,0,-2,0
1514949428800543,-1,3,6,1,2,1,0,1
1514949428809560,-2,-4,-3,4,-3,-2,-1,-1
1514949428809560,-3,-1,0,-11,0,0,2,0
1514949428831555,0,1,2,16,-2,-1,-2,-2
1514949428831555,0,-2,-1,-30,-2,0,-1,-2
1514949428833557,-1,-2,-3,21,1,-1,-2,0
1514949428833557,0,-2,-7,0,-3,-1,-1,-3
1514949428846578,-1,-2,3,-22,1,1,0,-2
1514949428846578,-1,2,-9,9,3,0,0,2
1514949428848579,-3,-2,4,-5,-3,-1,0,0
1514949428848579,0,0,1,-9,-1,-1,-1,0
1514949428860575,-4,-1,-5,14,-2,-1,-1,-3
1514949428860575,1,0,6,10,1,1,-1,0
1514949428869583,-1,1,-1,-10,1,2,0,0
1514949428869583,0,-4,-5,-9,-4,-2,-2,0
1514949428885603,-1,-2,1,3,-1,-1,-1,0
1514949428885603,-1,0,-1,1,0,0,0,1
1514949428888605,0,0,0,-5,1,-1,0,-1
1514949428888605,0,1,3,-5,0,-2,-2,1
1514949428906621,2,0,1,2,0,-1,-4,0
1514949428906621,-3,-8,-13,5,-8,-4,-1,-4
1514949428908611,2,3,10,9,4,2,0,0
1514949428908611,-3,-5,-17,-9,-4,-1,-1,-2
1514949428920630,-1,-2,0,-14,-2,-2,0,-3
1514949428920630,-2,-1,11,31,2,-1,2,0
1514949428930625,-2,0,-10,-19,-4,-1,-1,-2
1514949428930625,1,0,5,-4,0,0,-3,0
1514949428944648,-4,-5,-8,-8,-5,-1,1,-2
1514949428944648,-1,0,-1,0,-1,-1,-3,-2
1514949428945650,-1,-1,10,18,2,-1,2,-1
1514949428945650,-4,-4,-13,-30,-5,-2,-2,0
1514949428966660,-1,1,-1,-4,3,1,-2,2
1514949428966660,-4,-6,-7,7,-10,-4,1,-4
1514949428968662,3,0,4,-25,2,1,0,0
1514949428968662,-3,-4,-4,5,-6,-4,-2,-4
1514949428981673,-1,0,0,6,-1,-1,-2,-1
1514949428981673,-1,1,2,-15,1,0,-1,0
1514949428989668,-2,-2,-5,7,-1,-1,-2,-2
1514949428989668,-1,1,5,7,1,1,7,-2
1514949429004678,-1,-4,-4,0,-4,-3,-8,-3
1514949429004678,0,0,-2,-19,1,0,0,0
1514949429005678,-3,-5,-3,6,-2,-1,-1,-3
1514949429005678,0,1,4,2,3,0,-1,0
1514949429026709,-3,-2,0,7,-2,-1,2,0
1514949429026709,2,-2,1,-5,1,0,-2,1
1514949429028707,-1,-2,-1,4,-2,-1,-3,-1
1514949429028707,-1,3,5,0,3,0,0,-3
1514949429040704,-2,-5,-11,0,-6,-4,-2,-3
1514949429040704,-2,-3,-7,-8,0,-1,-1,-3
1514949429049719,-3,0,-2,0,-2,-3,1,2
1514949429049719,-2,-2,-1,-1,-1,-1,-2,-1
1514949429064729,1,2,7,11,4,-1,0,1
1514949429064729,-2,0,-2,-1,-6,-2,-2,-1
1514949429065721,0,-2,-7,-6,-1,0,-1,-2
1514949429065721,-2,-1,-1,-1,-1,-1,-2,0
1514949429086736,0,-4,1,6,-2,-1,1,-1
1514949429086736,1,0,2,0,2,0,-2,-2
1514949429088737,0,0,1,3,0,0,-1,0
1514949429088737,-2,-2,-1,2,-2,0,-1,-1
1514949429100763,-2,1,-1,-11,1,-1,1,-1
1514949429100763,-2,0,3,-2,-2,-1,0,1
1514949429109753,-1,2,1,4,-2,-2,-3,0
1514949429109753,-1,0,-2,-1,-1,-1,-2,0
1514949429124777,-1,-1,-6,-5,0,0,1,-4
1514949429124777,0,-1,-1,-2,1,-1,-1,-2
1514949429127764,-3,-3,1,4,1,-1,-2,-1
1514949429127764,-1,-1,3,4,0,0,-1,-1
1514949429146790,-4,1,5,24,1,0,-2,-3
1514949429146790,0,-2,-1,-40,-4,1,0,-1
1514949429148780,-2,-3,-8,-2,-4,-3,-1,-2
1514949429148780,1,2,0,4,0,0,-2,0
1514949429160800,-1,-2,0,-1,-2,-1,0,1
1514949429160800,-1,0,2,7,2,-1,-2,0
1514949429169806,-1,0,-1,1,-1,-2,-1,0
1514949429169806,-1,-1,-2,-5,-2,-2,-2,-3
1514949429184819,3,-1,-1,-4,-2,0,1,0
1514949429184819,-2,0,-3,4,0,-1,-2,-1
1514949429188833,1,-1,0,-6,-2,-1,0,-4
1514949429188833,-1,1,-1,3,-2,-1,2,-1
1514949429213841,-1,-2,-1,-10,-3,-2,-3,1
1514949429213841,0,0,14,14,3,1,0,-1
1514949429215843,-3,-4,-25,-19,-5,-4,1,0
1514949429215843,-2,-1,-3,-5,-1,-3,-2,-1
1514949429228862,-2,-3,2,-3,-2,0,0,-1
1514949429228862,-2,-5,-3,1,-1,-1,-2,-1
1514949429230854,0,2,13,6,2,-1,-1,2
1514949429230854,-1,-3,-6,-4,-1,-2,-2,-1
1514949429244876,0,0,-6,-7,-3,-1,-3,-2
1514949429244876,0,-1,-1,6,0,-1,0,-2
1514949429246865,-1,-1,0,0,-2,0,-1,1
1514949429246865,0,-2,1,-1,0,0,-1,0
1514949429266879,-1,-1,3,3,-1,-2,1,-1
1514949429266879,-1,-2,-9,-6,-3,0,-1,-2
1514949429268889,0,-1,-1,0,-2,-1,-1,-3
1514949429268889,-1,-1,-1,0,-1,-1,-1,0
1514949429289895,0,-2,-2,-3,0,0,-1,-2
1514949429289895,0,1,-2,-2,-1,0,1,0
1514949429293912,0,-2,0,-1,-1,0,-1,-1
1514949429293912,-4,0,3,4,-2,-1,0,-2
1514949429303905,1,-2,2,-1,-1,-1,-2,0
1514949429303905,-1,0,2,2,-1,-1,-2,0
1514949429305907,-3,-1,-3,-3,-1,0,0,-2
1514949429305907,0,-2,1,0,1,-1,1,-1
1514949429327923,0,-1,-2,-2,0,-1,0,-2
1514949429327923,-3,-3,0,1,-1,0,-3,0
1514949429330926,-3,0,1,1,-2,-1,-2,-1
1514949429330926,0,1,-1,-2,-1,-3,-1,-1
1514949429348952,-4,-3,-4,-4,-2,0,-2,-2
1514949429348952,0,-3,-2,-1,0,-1,-2,-3
1514949429350940,0,-2,-2,-1,-1,-2,-1,-1
1514949429350940,0,0,5,1,0,0,-1,-1
1514949429363948,-3,-5,-15,-7,-4,-4,1,-1
1514949429363948,1,0,-2,0,-3,-4,1,0
1514949429365969,-2,0,-1,-1,0,-1,-1,0
1514949429365969,1,0,1,-2,0,0,-2,0
1514949429386973,-1,0,1,-2,-1,0,-2,0
1514949429386973,-2,-3,-2,-1,0,-2,-1,-1
1514949429388966,-1,-2,-4,-2,-1,-2,0,-1
1514949429388966,-3,0,-3,-1,0,-2,0,-2
1514949429408994,-1,-1,2,0,0,-2,2,0
1514949429408994,0,0,-3,-1,-2,-3,-2,-1
1514949429410981,-1,0,0,2,-2,-1,-3,1
1514949429410981,0,-3,-3,-3,-1,0,-2,-1
1514949429424000,0,-3,-2,0,-1,-2,-1,-2
1514949429424000,0,0,-1,-1,0,0,0,-1
1514949429429994,-1,-2,2,-1,-2,-1,0,-4
1514949429429994,-3,-1,-4,-2,-2,-1,-3,-1
1514949429447006,0,0,4,2,-1,0,0,-2
1514949429447006,-2,0,0,-1,-2,0,2,-1
1514949429448007,1,-1,3,1,0,0,-1,-1
1514949429448007,0,-3,-14,-8,-3,-3,0,-2
1514949429469044,0,0,2,1,0,-1,-2,0
1514949429469044,-3,-1,-1,0,-1,0,0,0
1514949429471046,-1,0,-2,-3,0,-2,-1,-1
1514949429471046,-1,-1,5,2,0,0,-1,0
1514949429485034,0,2,1,2,-2,-2,-1,-3
1514949429485034,-2,-2,-9,-5,-2,-1,0,-2
1514949429490037,1,0,0,0,-1,-1,-1,3
1514949429490037,-1,1,1,-1,0,0,0,-2
1514949429507061,-1,0,-1,-3,-1,-1,0,-1
1514949429507061,-3,-1,1,2,-1,-2,-1,0
1514949429508080,-1,-2,-2,0,-1,-1,-1,-2
1514949429508080,-2,-1,-2,0,-1,-1,-1,-1
1514949429529064,-1,-4,-1,-3,-1,-2,-1,0
1514949429529064,-2,-3,-1,-1,-1,-1,-1,-1
1514949429531075,-1,0,-2,-5,0,0,-3,-1
1514949429531075,1,-1,-1,-2,-2,-3,-1,0
1514949429544083,-1,-2,-1,-1,0,-1,-1,-2
1514949429544083,-1,-1,-1,-1,1,0,-1,-4
1514949429550088,-2,-1,-1,0,-1,1,0,-1
1514949429550088,-1,-1,-1,-1,0,-1,-2,-1
1514949429567108,-2,-1,-1,-2,-3,0,0,-1
1514949429567108,0,-2,-1,-2,-2,-1,-3,-1
1514949429568105,1,-1,-4,-2,0,-1,-2,-3
1514949429568105,0,-1,-2,-1,0,-1,-3,2
1514949429589110,-1,-2,-2,-1,-1,-2,0,0
1514949429589110,-2,-3,-4,-4,-2,0,1,-1
1514949429591109,-3,-1,-2,0,-2,-1,-2,-1
1514949429591109,-2,-1,0,0,-2,-1,-1,-3
1514949429603129,0,-1,3,0,0,1,-1,-3
1514949429603129,0,-4,-1,0,-1,0,0,-2
1514949429610123,0,0,0,0,-1,-2,1,0
1514949429610123,-1,-1,-2,-2,-1,-3,-1,0
1514949429628134,0,-2,-4,-3,-1,-1,-2,-1
1514949429628134,-2,-1,2,2,0,-2,-2,-2
1514949429631137,-2,-2,2,2,0,0,-2,-1
1514949429631137,-1,-5,0,-1,-1,-2,-2,0
1514949429649162,-1,-2,0,1,1,0,-1,-3
1514949429649162,0,-1,-2,-2,-1,-1,0,-1
1514949429651151,-3,-3,-3,-2,-2,-1,-1,-3
1514949429651151,-2,1,1,-1,-1,0,0,0
1514949429663171,-3,-2,-2,-1,-1,0,-3,-1
1514949429663171,1,-1,-1,-2,-2,-1,-3,-1
1514949429670176,-1,0,-1,-1,-1,-3,-2,-1
1514949429670176,1,0,-1,-1,0,-1,-1,2
1514949429687176,0,-1,-2,-3,-2,-2,2,0
1514949429687176,-2,-1,0,0,1,-2,1,-2
1514949429694186,-2,0,0,-2,-1,-1,1,-3
1514949429694186,-1,1,-2,-2,-2,-1,0,-2
1514949429709194,0,-3,0,-2,-1,-2,-1,0
1514949429709194,-1,-2,0,-1,-1,0,-4,-2
1514949429711193,-1,-1,-2,-1,-1,-2,-3,2
1514949429711193,-1,-2,-3,1,-1,0,-2,0
1514949429723204,-1,-3,0,1,-1,-2,-2,-1
1514949429723204,1,-1,-1,0,-1,1,0,-3
1514949429732220,1,-2,-1,-2,0,-1,0,-2
1514949429732220,-4,-2,-1,-2,-2,-2,0,-1
1514949429747229,-1,0,-2,-4,-1,-1,-3,-2
1514949429747229,0,0,8,6,0,-2,0,1
1514949429748241,-2,-5,-13,-6,-2,-1,-2,-1
1514949429748241,2,0,0,1,-1,1,-1,0
1514949429769247,0,-2,-1,-1,1,0,-1,6
1514949429769247,-9,-3,0,-2,-1,-2,-2,-28
1514949429771255,2,2,2,-2,0,0,-2,3
1514949429771255,-3,0,0,-2,0,-2,1,-3
1514949429783245,-1,-3,-3,-2,-3,0,-2,0
1514949429783245,0,-1,-1,0,0,0,0,6
1514949429793253,-2,0,3,2,-1,0,-2,-2
1514949429793253,-1,-2,-4,-5,-1,-3,-1,-3
1514949429806261,0,-1,-1,-2,1,-2,1,-2
1514949429806261,3,-1,-4,-1,-2,0,-1,4
1514949429808274,-2,-3,-2,-3,-1,0,-1,-4
1514949429808274,0,-3,-4,-1,-2,1,-1,2
1514949429830278,-2,-1,1,2,-2,-2,-1,-2
1514949429830278,-1,-3,-2,-2,-1,-1,0,1
1514949429831287,-1,1,-1,-1,0,-2,-1,2
1514949429831287,0,-1,1,0,-2,-1,-2,-3
1514949429843297,-2,-1,-1,0,-1,-1,1,-3
1514949429843297,-1,-1,-4,-3,-2,-4,0,1
1514949429852303,0,1,3,2,1,0,-3,0
1514949429852303,-1,-2,-4,-4,-1,-1,-1,-3
1514949429867314,-1,-2,-3,-1,-1,-1,-2,-1
1514949429867314,0,-1,-3,-2,-1,-1,1,2
1514949429868304,0,-1,-1,-1,-1,-1,0,-2
1514949429868304,-2,-1,0,0,0,-1,-2,-2
1514949429889322,-2,0,-1,-2,-2,-2,-1,-3
1514949429889322,0,-2,1,1,0,-1,-1,1
1514949429893323,-3,-2,-5,-1,-2,-2,-1,-2
1514949429893323,0,-1,-1,-1,-2,-2,0,0
1514949429903329,0,-4,0,0,-1,0,-1,0
1514949429903329,-1,1,-2,-1,-2,0,-1,1
1514949429912335,-1,-1,1,0,-2,-2,0,-2
1514949429912335,-1,-1,-1,0,0,0,-3,0
1514949429927362,0,-2,-1,-1,-2,1,1,-2
1514949429927362,-2,-4,-2,-3,-2,0,-2,0
1514949429928347,-1,-1,0,0,0,-1,-1,-1
1514949429928347,-2,1,0,-1,1,-1,1,1
1514949429949362,-1,-2,0,1,-1,-2,-1,-2
1514949429949362,-2,0,-1,-2,-1,0,-2,-2
1514949429950376,-1,0,-1,-2,-2,-1,1,-2
1514949429950376,1,-1,0,-1,-2,-2,-3,-2
1514949429963384,0,-2,-3,-1,-2,-1,-2,-1
1514949429963384,0,-1,-1,0,0,-1,2,0
1514949429972405,-2,2,-2,-3,-1,-2,-1,-1
1514949429972405,-1,-1,-1,1,-1,-2,-1,-1
1514949429987388,-1,-1,-2,-1,-1,0,2,-3
1514949429987388,0,0,-2,-2,-1,-1,-3,-2
1514949429991391,0,-2,0,0,-2,0,-1,-1
1514949429991391,0,-1,-3,-2,0,-2,-1,1
1514949430009415,-2,-1,-1,-1,-1,-1,0,-2
1514949430009415,-2,-2,0,0,-1,-1,-2,-1
1514949430010414,-1,-1,0,0,0,0,-2,-2
1514949430010414,-2,-3,-2,-2,-2,-1,1,-2
1514949430023414,0,0,-2,-1,-1,-1,-1,-1
1514949430023414,-1,-1,0,-1,-1,-1,-1,0
1514949430031420,1,-2,0,-1,0,-3,-3,0
1514949430031420,0,-2,-1,-2,-1,-1,1,-1
1514949430046443,0,-1,-1,1,1,0,-1,-3
1514949430046443,0,-2,-1,-1,-2,-1,0,-1
1514949430048444,-2,-1,0,1,-2,-1,1,1
1514949430048444,-3,-4,-6,-3,-1,-2,-3,0
1514949430069464,-3,-2,-2,-3,-2,-2,0,0
1514949430069464,0,-3,-2,-1,-1,-1,1,-1
1514949430070465,-1,-1,-1,-2,-2,-1,-2,-2
1514949430070465,-1,1,0,0,-1,-2,-2,-2
1514949430084474,-1,0,-1,-1,-2,-2,0,0
1514949430084474,1,-2,-2,-1,0,-1,-2,-1
1514949430092462,0,0,0,0,0,-1,1,-2
1514949430092462,-1,1,3,2,-2,-1,-1,-2
1514949430106486,0,-2,-2,-2,-1,-1,0,0
1514949430106486,-2,1,0,-1,-2,-1,-3,1
1514949430108488,-2,0,-3,-1,-1,-1,-1,-1
1514949430108488,0,-1,0,-1,-2,-1,-1,-1
1514949430130490,0,-3,1,2,-1,-1,-2,1
1514949430130490,-3,0,-1,-2,-1,-2,-1,2
1514949430133492,-1,-2,0,-3,0,2,-4,1
1514949430133492,-1,-2,-2,-1,-1,-1,0,0
1514949430143517,-1,-4,1,0,-1,-2,0,-3
1514949430143517,-2,-1,-2,-1,-1,-1,-2,-2
1514949430151509,-1,0,-1,-1,-2,-2,-1,-1
1514949430151509,-1,0,0,-4,-1,-1,0,0
1514949430166515,-1,-1,-1,0,0,-1,-3,-1
1514949430166515,1,-1,0,-2,0,-1,0,-1
1514949430168516,-2,0,-3,-2,-1,-1,-2,-2
1514949430168516,-1,-1,-1,-2,-2,1,-2,-1
1514949430189546,-1,0,-1,-2,-1,-1,2,-1
1514949430189546,-2,-4,-2,-1,-2,-2,0,0
1514949430190533,-1,0,-1,-2,0,-1,-2,-1
1514949430190533,1,-1,-2,1,-1,-1,-3,-1
1514949430211557,-2,-3,-2,-1,-1,-1,-1,-1
1514949430211557,0,2,1,-1,0,0,1,0
1514949430213558,-1,-2,-3,-1,0,-1,-2,0
1514949430213558,-2,-1,-1,-1,-1,1,0,0
1514949430227564,-1,-2,0,-1,-2,-1,-1,-4
1514949430227564,-1,-1,-1,0,-1,-2,-2,-4
1514949430231573,-2,-1,1,-1,-1,0,-2,-32
1514949430231573,-2,-2,1,0,0,-1,0,35
1514949430249583,-2,-3,-6,-2,-2,0,-2,-2
1514949430249583,0,-3,-1,0,-1,-1,-1,2
1514949430250574,-2,1,-3,-1,0,-3,0,-6
1514949430250574,0,1,1,0,1,-2,-2,-11
1514949430271608,0,0,-1,0,0,0,-1,-2
1514949430271608,1,-2,-2,-1,-3,1,0,-2
1514949430273609,1,0,-1,-1,-1,-1,-1,7
1514949430273609,-2,0,-2,-3,-2,-2,0,-7
1514949430287601,-1,2,-1,-1,-1,-1,1,7
1514949430287601,0,-3,-2,0,-2,-1,-2,-8
1514949430289602,-1,-2,-1,-2,-2,-2,2,10
1514949430289602,0,-2,-3,-2,-3,0,-2,-3
1514949430309628,-2,-3,2,-1,0,-1,-3,-6
1514949430309628,0,-2,1,1,-1,0,0,2
1514949430310619,-1,0,-1,0,1,-1,-2,6
1514949430310619,-2,-2,-4,-1,-1,-1,-2,-7
1514949430331632,0,-1,1,-1,-2,-1,-2,-1
1514949430331632,-2,0,-2,-3,-1,-2,-3,0
1514949430333633,-1,1,-3,-3,-1,1,-2,8
1514949430333633,-1,0,-2,-1,-1,-1,1,-6
1514949430345641,0,-1,1,1,0,0,-2,-1
1514949430345641,-4,-4,-1,-1,-1,0,-1,0
1514949430352647,-2,-2,-2,-2,-1,0,0,-3
1514949430352647,1,-1,0,-1,-1,-1,-4,-3
1514949430369659,0,0,-2,-3,0,-2,1,-1
1514949430369659,0,-1,0,-2,-1,0,0,-2
1514949430370660,-2,-1,1,-1,-1,-1,0,1
1514949430370660,-3,-2,-1,0,-1,0,-1,-1
1514949430391674,-1,-1,-3,-2,0,-1,-3,0
1514949430391674,0,1,-1,0,1,0,0,-2
1514949430393678,-1,0,-2,-2,0,-2,-2,1
1514949430393678,-1,-1,0,-1,0,-2,-1,-3
1514949430406697,1,-2,-1,-1,-2,-1,0,-1
1514949430406697,-1,-1,-1,-1,-1,-1,-2,-1
1514949430412701,-2,-4,-2,-1,-1,-2,-1,1
1514949430412701,-2,1,-1,0,-1,-1,-2,-2
1514949430429700,-3,-2,-2,0,-2,-1,0,-1
1514949430429700,2,-1,-1,-1,-2,-1,0,-1
1514949430432703,-1,-1,-1,0,-2,-1,-1,-1
1514949430432703,-1,-2,-3,-1,-1,-2,-2,-2
1514949430451716,-2,-3,-1,-2,-2,-2,-1,0
1514949430451716,-1,-2,0,-1,-2,0,-1,0
1514949430453718,0,-1,-2,0,-2,0,-2,0
1514949430453718,-2,-3,-2,-3,0,-1,-1,-2
1514949430465739,0,-2,1,-2,0,1,1,-3
1514949430465739,-5,-4,-1,-2,1,-2,-1,-1
1514949430472735,-2,0,0,0,-2,0,-1,0
1514949430472735,-2,0,-2,-2,-1,-2,-2,0
1514949430488758,1,-1,-1,2,-3,0,-1,-1
1514949430488758,-2,-3,-1,-3,-1,0,-1,-2
1514949430490744,0,0,-2,2,-2,-1,-1,-1
1514949430490744,-3,-1,-2,-2,-1,-1,2,-2
1514949430511772,-1,0,-1,-2,-1,-2,-1,1
1514949430511772,-1,-1,0,1,-1,-3,0,-1
1514949430513777,-2,-1,-2,-5,-2,-1,-2,-2
1514949430513777,-1,-2,-1,0,-2,-1,-3,-3
1514949430526770,-1,-2,1,2,-1,0,-2,-2
1514949430526770,0,-1,-6,-5,-1,-1,-1,0
1514949430532774,-1,-1,2,0,-2,-2,-1,-1
1514949430532774,0,3,-2,0,0,-1,0,-2
1514949430548785,-1,-1,-2,-1,0,0,-1,-1
1514949430548785,0,-2,2,2,-1,-1,-2,0
1514949430550786,1,-2,-1,-1,-1,0,-1,-1
1514949430550786,0,-1,0,-1,0,-1,-1,0
1514949430571801,-4,0,0,-2,-3,0,-2,-2
1514949430571801,0,1,-1,0,-1,0,-1,-1
1514949430572802,0,-2,-3,-2,1,-1,0,1
1514949430572802,-1,-4,1,1,-2,0,0,0
1514949430586812,-3,0,-2,-2,0,-2,0,-1
1514949430586812,-2,-1,2,1,-1,-2,-2,-1
1514949430592816,-2,1,1,-3,-2,-1,-1,1
1514949430592816,1,-1,-3,-3,0,0,-1,-1
1514949430609845,-1,-3,-2,2,-2,-1,1,-1
1514949430609845,-2,-2,-2,0,-1,-1,-2,-1
1514949430610829,-2,2,-3,0,0,1,0,-1
1514949430610829,0,-1,-2,-5,-2,-1,-3,0
1514949430631844,-3,-3,-1,4,-2,-1,-3,-2
1514949430631844,0,-3,-2,-3,-1,-1,-1,-2
1514949430633846,1,-2,-1,-2,-1,-3,-3,1
1514949430633846,-3,0,0,-1,0,0,0,0
1514949430645866,-2,-1,-2,-4,0,-2,-1,-2
1514949430645866,0,-1,0,0,-1,0,-1,-3
1514949430652859,-2,-1,0,1,-1,-1,-2,-1
1514949430652859,-1,-2,-2,-3,-2,-3,0,-1
1514949430669871,-1,-2,-3,-2,0,-2,0,0
1514949430669871,-3,-1,0,1,1,0,2,-1
1514949430670872,0,-4,-3,-6,-4,-1,-2,-1
1514949430670872,-2,-1,-1,1,0,-1,-1,-2
1514949430691886,0,0,-1,2,0,-2,-1,-3
1514949430691886,-2,-3,0,-1,1,0,-2,0
1514949430693888,-1,-1,-4,0,-1,-2,-2,-1
1514949430693888,-1,-2,-1,-1,0,0,2,-1
1514949430705915,2,-3,-1,-4,-2,1,-1,-2
1514949430705915,-1,-2,-2,-1,-1,0,1,-1
1514949430713911,-1,0,2,-4,-1,0,-2,-1
1514949430713911,-1,-1,-1,3,-1,-2,0,0
1514949430729913,-1,-3,0,-4,-2,-2,0,-2
1514949430729913,-1,-1,-3,0,-1,-1,0,-2
1514949430730914,0,-2,-2,1,-1,0,2,-2
1514949430730914,0,-1,-2,-1,-2,0,-1,-2
1514949430751939,0,-2,-2,-2,1,0,0,-2
1514949430751939,0,1,0,1,-2,-2,-2,-1
1514949430752929,-3,1,-1,-2,1,-1,-1,-2
1514949430752929,-2,-2,-1,-1,-2,-2,-2,-2
1514949430764950,0,-3,-1,-2,-1,-2,-1,0
1514949430764950,0,-3,-2,-3,-2,0,-2,-1
1514949430773953,-1,0,-2,1,1,-2,0,0
1514949430773953,0,-4,1,-1,-1,0,2,-1
1514949430788958,-2,-2,-2,-1,1,-2,-1,-1
1514949430788958,-2,-1,0,-1,-2,-2,-4,0
1514949430790957,-1,-3,-2,-2,-1,0,-2,-3
1514949430790957,-1,1,-1,-1,-1,-2,0,-1
1514949430811981,-1,-1,3,-1,-1,1,2,0
1514949430811981,-3,-4,-6,-3,-3,-1,-1,-1
1514949430812984,-2,-1,-1,-2,-1,-2,0,-1
1514949430812984,0,-1,-2,-2,-2,0,-1,0
1514949430824983,2,-3,-2,-1,0,1,-2,-1
1514949430824983,-1,0,1,0,1,-1,-1,0
1514949430833991,-1,-1,0,-3,-1,-2,1,1
1514949430833991,-1,-3,-3,0,-3,-2,-2,-2
1514949430848997,-3,0,-2,0,-3,0,-1,0
1514949430848997,-1,0,0,-1,-2,-2,-1,0
1514949430850998,-1,-3,-2,-2,0,0,-2,0
1514949430850998,-1,0,0,0,0,-2,-3,-1
1514949430872025,-1,1,-2,0,0,-2,-2,2
1514949430872025,0,-2,0,-2,-1,1,2,-1
1514949430873024,-1,-2,-1,1,-3,-1,-3,-1
1514949430873024,0,0,-1,-3,-1,-3,0,-2
1514949430886023,-2,-2,-2,-2,-2,-1,-1,-3
1514949430886023,-1,0,-2,0,-1,-1,-2,-1
1514949430894041,0,0,-1,-1,-1,-1,-1,-1
1514949430894041,-1,0,-2,1,0,0,-1,-2
1514949430909041,-3,-3,-1,0,-2,-2,0,-2
1514949430909041,0,-2,1,-1,-1,-2,-2,-2
1514949430911043,-1,-1,-1,0,-1,0,-2,-3
1514949430911043,-2,2,0,-2,-1,-3,-2,1
1514949430932070,-1,-1,0,-2,1,0,2,-2
1514949430932070,1,-1,-2,0,0,0,1,-3
1514949430933056,-1,-1,0,0,-1,-1,-1,-2
1514949430933056,0,-1,-2,-3,-1,1,-1,0
1514949430945080,-1,-2,0,-2,-3,-3,-1,-2
1514949430945080,-2,0,-3,0,-2,0,-4,-1
1514949430954072,-1,0,0,0,0,-1,-1,-1
1514949430954072,-3,-5,0,-3,-1,0,-1,0
1514949430969082,0,-1,-2,-2,-1,-1,0,-1
1514949430969082,-1,-1,-1,-2,-3,-2,-1,-1
1514949430971083,-2,-1,-1,2,-2,-1,0,-1
1514949430971083,-2,-2,-3,1,-1,-2,1,1
1514949430993099,-2,-3,-2,-1,0,-1,-2,0
1514949430993099,1,-2,0,0,1,-3,0,-1
1514949430996107,1,-1,0,-4,-1,-2,1,0
1514949430996107,-1,0,-1,5,0,-1,0,-1
1514949431005107,0,0,-2,-2,-1,-2,-3,-1
1514949431005107,-2,-2,-2,-2,0,0,-1,-1
1514949431014114,0,0,-1,-3,-1,0,-2,-1
1514949431014114,0,-2,-1,-3,-2,0,0,1
1514949431029125,0,0,0,-1,-2,-1,0,-4
1514949431029125,-1,-1,0,0,-1,-4,-3,-1
1514949431031127,-1,0,-2,0,0,-2,-1,-2
1514949431031127,0,-2,-2,-4,0,0,0,-1
1514949431052147,-2,-3,0,1,-1,0,-2,-2
1514949431052147,-2,-2,0,0,-1,-1,0,-2
1514949431053158,-2,-1,-2,-1,-2,-1,0,0
1514949431053158,-1,1,0,0,0,0,-1,-2
1514949431065162,-2,-2,-2,-6,-1,0,-2,0
1514949431065162,0,-1,-1,-1,-1,0,-2,-1
1514949431084164,-2,-2,-2,-2,-2,-1,-3,0
1514949431084164,-2,-2,-3,-1,-2,-1,-2,-3
1514949431089167,0,-2,-1,0,-2,-3,-1,-1
1514949431089167,-4,0,-1,-1,-2,-1,1,-3
1514949431091168,-1,-3,-2,-1,0,0,2,-1
1514949431091168,0,0,-1,-2,-1,-2,-2,-3
1514949431112184,1,-1,0,1,0,-1,0,0
1514949431112184,-1,-3,-1,0,-3,-1,0,-2
1514949431113185,-1,2,-2,-2,1,-2,2,0
1514949431113185,-1,0,5,2,0,-1,-2,-1
1514949431133199,-2,-2,-2,-1,-1,-2,0,1
1514949431133199,-2,0,0,0,-1,0,0,0
1514949431142208,-2,-5,-2,-2,-2,1,-2,-3
1514949431142208,-1,0,-2,-1,-2,-1,-1,-2
1514949431148221,-1,-1,0,1,-1,2,-2,-1
1514949431148221,-2,0,-2,-1,0,-2,0,-1
1514949431155214,-1,-2,0,2,0,-1,-2,-1
1514949431155214,-1,-2,-3,-2,-2,-1,-1,1
1514949431172236,1,-1,-1,-2,-2,0,-2,-2
1514949431172236,1,-2,0,-1,-1,1,-3,-2
1514949431173237,-1,1,-1,0,-1,-1,0,1
1514949431173237,-2,-2,-3,-3,-1,-2,2,0
1514949431194258,-1,-1,-1,-1,-1,-1,-2,0
1514949431194258,0,-1,-1,-1,0,-2,-1,0
1514949431196255,-1,0,-1,0,0,-3,0,-2
1514949431196255,-1,-1,-1,1,-1,1,-2,-4
1514949431209262,-1,-2,-1,-1,-1,0,2,-1
1514949431209262,0,-1,1,0,-1,-2,-1,-1
1514949431211253,1,-2,-3,-1,-1,-1,0,-1
1514949431211253,0,-2,-2,-2,-2,-2,-2,-1
1514949431231293,0,-2,-1,0,-1,-2,0,-2
1514949431231293,-1,1,1,0,-2,-1,-2,-1
1514949431233297,-1,0,-1,-2,-1,-3,-1,-3
1514949431233297,-2,-2,-2,-1,-2,-2,1,0
1514949431254364,-3,0,-1,1,1,0,-2,0
1514949431254364,-3,-3,-2,0,-2,1,-1,1
1514949431256337,-3,1,0,-2,-1,0,-1,-1
1514949431256337,-2,0,-1,0,-1,-1,-3,-2
1514949431269326,0,-2,-1,-2,-1,-2,1,-1
1514949431269326,2,-1,-3,-2,1,-1,-1,-2
1514949431271326,-2,-1,-2,1,-2,1,-1,-1
1514949431271326,0,-1,0,-1,0,-1,0,0
1514949431291338,-1,1,-1,0,-2,-3,-3,-1
1514949431291338,-1,0,-4,-3,-1,0,-2,-2
1514949431293340,-1,-1,0,-1,-2,0,-1,0
1514949431293340,-2,-3,-1,-3,0,-1,-2,-1
1514949431314355,-2,-1,-1,0,-1,0,0,-2
1514949431314355,-1,1,-1,-1,-1,-3,0,1
1514949431316357,-1,0,-1,-1,-2,-2,-2,0
1514949431316357,-2,-2,-1,-2,-1,-1,-1,-1
1514949431329380,-1,0,-3,-2,-1,-2,-2,-2
1514949431329380,-3,-2,-1,-1,0,0,0,0
1514949431335396,0,-1,-3,-2,-1,-1,-1,0
1514949431335396,-1,-1,-2,0,-1,0,-1,-2
1514949431359395,0,-1,-1,0,-1,-1,0,-2
1514949431359395,0,-2,-1,-2,-1,-1,-1,-2
1514949431360397,-1,-2,1,0,-1,-1,-3,1
1514949431360397,1,0,-3,-3,0,1,0,-1
1514949431374400,0,0,-1,-1,-3,-1,1,0
1514949431374400,-1,-2,-3,0,-1,-1,2,-1
1514949431375412,-1,-3,0,-2,-2,-2,1,-1
1514949431375412,-1,-3,0,-1,0,0,-1,-1
1514949431388429,-2,-1,-1,-1,-1,-1,-2,-1
1514949431388429,0,0,1,1,-1,-1,0,0
1514949431395433,-3,-3,-5,-3,-1,-1,-2,-2
1514949431395433,2,0,-1,-1,-2,-2,3,-1
1514949431410438,0,-1,-2,0,0,-2,-1,0
1514949431410438,-1,-1,1,0,-1,-1,-1,-2
1514949431419430,0,-2,0,-1,0,0,-2,-2
1514949431419430,-3,0,-1,-1,-1,-2,-3,-2
1514949431434454,-2,-1,0,-2,-1,0,1,-2
1514949431434454,-1,-1,-1,-3,-2,-3,-1,0
1514949431435454,0,1,-2,-1,-1,-1,-1,-2
1514949431435454,-1,-1,0,-1,-2,-2,0,-1
1514949431448452,-2,0,-1,-2,0,-3,-1,-1
1514949431448452,0,-2,-2,-2,1,-1,-2,1
1514949431455466,0,0,0,-1,-2,-2,-1,-3
1514949431455466,-1,-1,-2,-1,-1,-2,-1,0
1514949431471466,-3,-3,-3,-2,-1,0,1,0
1514949431471466,-2,1,0,-2,-2,0,0,1
1514949431474480,-2,-2,-4,-4,-1,0,0,0
1514949431474480,-2,-3,-1,0,0,-1,1,0
1514949431495487,1,-2,0,-2,-1,1,-4,-2
1514949431495487,0,0,-2,-2,0,-1,-1,-2
1514949431496488,-3,0,0,-2,-3,-2,-2,1
1514949431496488,-1,-2,-2,-3,1,-1,0,-1
1514949431508501,0,-2,2,6,-1,-1,0,0
1514949431508501,-3,-1,-2,-7,0,-1,-2,-3
1514949431515511,-2,-1,-1,3,-1,-2,-2,-2
1514949431515511,1,0,-3,-4,-1,-1,-2,-3
1514949431531508,1,-2,-1,-3,-1,-1,-1,-2
1514949431531508,-2,-1,0,1,0,0,-2,-2
1514949431533522,0,-1,1,1,1,-1,0,0
1514949431533522,-2,0,1,1,-1,-1,-3,0
1514949431554524,-2,-2,-3,-2,-1,-1,-1,-1
1514949431554524,-1,-2,-1,-1,-2,-1,-2,-2
1514949431556525,0,0,-1,-2,0,1,0,0
1514949431556525,-1,-1,2,1,-1,0,2,-1
1514949431568533,-1,1,-2,-1,-1,-2,-1,-2
1514949431568533,0,1,-1,0,-1,-2,-1,0
1514949431575554,0,0,-1,-1,-2,-2,-1,-2
1514949431575554,-1,-1,-1,0,-1,0,-2,-2
1514949431591550,0,0,-1,-3,-1,-1,-1,-1
1514949431591550,-2,-1,-1,-3,-2,-1,0,-2
1514949431593552,-1,-2,-2,1,-3,-2,-1,-4
1514949431593552,0,0,-2,-4,-1,-1,0,-1
1514949431614577,-1,-2,0,-1,-1,-2,-1,-1
1514949431614577,0,-1,-1,0,-2,-2,-2,0
1514949431615571,0,0,-1,-2,-1,-1,-1,0
1514949431615571,-3,-2,-3,-1,-1,-1,0,-2
1514949431628592,-2,-4,-2,-1,-2,-2,0,0
1514949431628592,0,1,0,2,-1,-2,-3,0
1514949431636584,0,-3,-7,-6,-2,0,-2,-1
1514949431636584,1,-1,-1,-1,-2,-3,-2,0
1514949431651593,-2,-2,0,-1,0,0,0,-1
1514949431651593,0,-1,0,-1,-1,-1,1,-1
1514949431653620,-2,0,2,1,-1,-2,-1,-1
1514949431653620,0,-3,-1,-2,-1,0,-3,-1
1514949431674610,-1,0,-1,-2,0,-1,-2,-1
1514949431674610,-2,-2,-3,0,-2,-1,-1,-1
1514949431675609,-1,-2,0,-1,-1,-2,1,1
1514949431675609,-3,-1,-2,1,-1,-2,2,0
1514949431687621,0,1,0,0,-1,0,-2,-2
1514949431687621,-1,-1,-2,-2,0,-1,-2,0
1514949431696624,-2,-3,0,0,0,-2,-2,-1
1514949431696624,-1,-3,-2,0,-1,0,0,2
1514949431711648,-1,-1,-2,0,-2,-2,-1,-1
1514949431711648,-2,1,-3,-2,-1,-3,-3,-2
1514949431717652,-1,-1,0,-2,0,-1,-1,-2
1514949431717652,-1,0,-3,-3,-2,-1,-2,-1
1514949431734651,-1,-1,-1,-1,-2,-1,0,0
1514949431734651,-1,-1,-2,-1,0,-2,1,0
1514949431736653,-1,-1,0,0,-2,-1,-2,1
1514949431736653,-2,-4,1,-1,-1,-2,0,-2
1514949431747660,-1,-1,-2,-3,0,0,-1,-2
1514949431747660,-3,-2,-2,1,-1,-1,-3,-2
1514949431756666,-2,1,-2,0,0,0,-1,0
1514949431756666,-2,-3,-1,0,-3,0,1,-1
1514949431771690,-1,-2,0,-2,-2,-1,-3,-4
1514949431771690,-1,-2,0,-2,0,-1,2,0
1514949431773680,0,1,-1,0,-1,-2,-2,-3
1514949431773680,-1,-1,-1,0,-1,-1,-3,-1
1514949431794694,-3,-2,-2,-1,-1,0,-1,-1
1514949431794694,0,-2,-1,1,-1,2,-1,-2
1514949431798696,-3,-2,-2,-2,0,0,-2,0
1514949431798696,-1,1,1,-1,-1,-2,1,-3
1514949431807702,-1,-3,-1,1,-2,-3,0,0
1514949431807702,-1,0,0,-1,0,0,-2,-1
1514949431816709,-1,-1,-1,-1,-1,-2,1,-2
1514949431816709,0,-2,0,-2,0,0,1,-1
1514949431831720,1,-2,-2,-3,2,-2,-2,2
1514949431831720,-1,1,-2,-1,-2,-1,-1,-1
1514949431833721,0,1,-2,-1,0,-1,-1,0
1514949431833721,0,-2,-1,0,0,0,-3,-3
1514949431853749,-3,-2,0,2,-1,0,1,-2
1514949431853749,-2,-3,-1,-2,0,-2,-2,-1
1514949431854737,-2,-1,-2,-1,0,0,0,-1
1514949431854737,-1,-1,-2,-1,0,0,0,1
1514949431875761,-1,-2,0,-2,-1,1,0,0
1514949431875761,-2,1,-1,0,-2,-3,-2,0
1514949431877753,0,1,-1,-1,0,-1,-2,-2
1514949431877753,0,-2,0,1,0,-1,-1,-1
1514949431890761,0,-1,-2,-1,-3,-1,-1,-1
1514949431890761,-3,-1,-1,-3,-1,0,-2,-1
1514949431891762,-1,-2,-1,-3,-1,-1,-1,0
1514949431891762,-1,-2,-2,-1,-2,-1,-3,-1
1514949431913777,0,1,-1,-2,-1,0,1,-1
1514949431913777,0,-2,-1,-2,-1,1,0,-2
1514949431913777,0,1,0,0,0,-1,-1,-1
1514949431913777,-1,-1,-2,1,0,-2,-2,-3
1514949431936803,1,0,-1,-1,-1,0,-2,0
1514949431936803,-2,-2,-1,1,-1,-3,1,0
1514949431938795,-1,-3,1,-1,-1,-1,-3,-1
1514949431938795,1,-2,-1,-3,0,0,1,0
1514949431950804,-1,-3,1,1,-1,-2,-1,-3
1514949431950804,-1,-1,-1,-1,0,-1,0,-1
1514949431951805,0,-2,-3,0,-2,-1,-1,1
1514949431951805,-3,1,1,-1,-2,0,-2,-2
1514949431973820,-2,-1,-3,-1,-1,0,-1,1
1514949431973820,-3,-2,1,1,-1,-2,0,-2
1514949431974827,-2,-2,-2,0,-2,-2,-2,-3
1514949431974827,-3,-1,0,1,-1,-2,0,-2
1514949431995835,-1,-2,-1,-1,-2,-1,-1,-1
1514949431995835,0,-3,-3,-3,0,-1,-2,-1
1514949431996836,-1,-2,-1,-1,-2,0,1,0
1514949431996836,0,-1,0,-1,0,-2,-1,-1
1514949432010848,-2,-1,1,-1,-1,-3,-2,-2
1514949432010848,-1,1,-1,-2,0,0,-1,0
1514949432011847,-2,0,-2,-1,0,-2,1,-2
1514949432011847,-3,-2,-1,-1,-1,-1,0,-1
1514949432033863,-1,-2,-1,0,-1,-2,2,-2
1514949432033863,-1,-3,-1,0,-2,-2,-1,-2
1514949432034864,-1,0,-2,-3,0,1,-2,1
1514949432034864,-1,-1,-1,0,-2,-2,-1,-1
1514949432055878,-1,0,-1,-3,0,2,-3,0
1514949432055878,-1,1,-2,-2,-2,0,-2,1
1514949432056879,-3,-2,-1,-1,-2,-1,0,-1
1514949432056879,1,-1,-2,0,-3,-1,-1,-2
1514949432070888,-1,-1,3,3,1,-1,-4,-1
1514949432070888,0,-1,-9,-7,-2,0,-1,-2
1514949432071889,-2,-2,0,-2,0,0,0,0
1514949432071889,-1,-1,0,-1,0,-1,-1,-1
1514949432093906,2,-2,-3,0,-2,-1,1,-1
1514949432093906,0,0,2,0,-2,-1,-1,0
1514949432095906,-2,0,-2,-2,-3,-2,-2,-1
1514949432095906,-2,-3,-2,-2,0,0,-2,-1
1514949432115930,0,-2,-2,0,-1,-1,-2,-3
1514949432115930,0,-1,-1,-1,-1,-1,-1,0
1514949432116922,-2,-1,-1,-1,-1,-1,-1,0
1514949432116922,-1,0,1,1,-2,-1,-1,-3
1514949432130943,-2,1,-1,-3,-2,-1,-3,-2
1514949432130943,0,0,0,1,0,-1,-1,-2
1514949432131931,-1,-1,0,-2,-1,-2,0,-1
1514949432131931,-2,-2,-1,-3,0,-1,-1,0
1514949432153955,-2,0,-2,-2,-1,0,0,-2
1514949432153955,-1,0,0,0,-3,-1,-1,-1
1514949432153955,-1,0,-2,0,-1,-1,-3,-1
1514949432153955,0,-1,-3,0,-3,-1,0,-1
1514949432175975,-3,-2,0,0,0,0,0,-4
1514949432175975,-1,0,1,1,-3,-1,-2,-1
1514949432176965,1,-2,0,0,-3,0,-2,-2
1514949432176965,-1,-1,-2,-2,-1,-2,0,-1
1514949432191976,-1,-4,-1,-3,-1,-2,1,-2
1514949432191976,-2,-1,-1,-2,0,-1,0,-1
1514949432193979,-1,1,0,0,-1,-1,-3,-2
1514949432193979,1,-2,-1,-2,-1,0,-1,-2
1514949432213991,1,0,-2,0,-2,-2,0,0
1514949432213991,-2,-2,-1,-2,1,-2,1,-2
1514949432213991,-1,-1,-1,0,-1,0,0,1
1514949432213991,0,-3,0,2,-2,-1,-3,0
1514949432236005,0,1,-3,-3,-2,-2,-1,-2
1514949432236005,-1,2,0,-1,-2,-2,1,1
1514949432237006,-2,-2,1,-1,-1,-1,-3,1
1514949432237006,-2,2,-2,-3,0,0,3,-3
1514949432251029,0,-1,0,1,1,1,-2,-3
1514949432251029,0,-1,-1,-2,-2,-1,-3,-2
1514949432252017,-1,1,-2,0,-1,-1,-1,-4
1514949432252017,0,-2,0,-1,0,-1,1,-1
1514949432274045,-1,-1,-1,-1,-1,-2,-1,0
1514949432274045,-1,-2,0,1,-1,-1,-1,0
1514949432275034,-1,-2,-1,-2,-1,-2,0,-1
1514949432275034,-1,0,-2,0,-3,0,0,-1
1514949432296047,0,-2,-3,-1,0,0,0,-1
1514949432296047,-1,-2,-3,-1,-1,0,0,0
1514949432297048,-1,-2,-1,0,-1,-2,-3,-1
1514949432297048,0,-1,-2,-1,-2,-1,0,-3
1514949432311059,-2,-2,0,-1,0,-1,-2,0
1514949432311059,-2,0,-1,-2,0,-1,0,-1
1514949432312059,-1,-1,-2,-2,0,0,1,-3
1514949432312059,-3,-4,-2,-1,-1,-2,0,0
1514949432333074,0,-5,-1,-1,0,0,-2,-2
1514949432333074,0,-3,0,-2,-2,-1,-2,-2
1514949432334076,1,-1,-2,-1,-2,0,-1,0
1514949432334076,-2,-2,0,-1,-1,-2,-4,-2
1514949432356090,-2,-1,-1,-1,-2,0,1,1
1514949432356090,-1,-1,0,0,-1,1,-1,-1
1514949432357091,-1,-2,-1,-1,-3,0,1,-2
1514949432357091,-1,0,1,0,-1,-1,-1,-1
1514949432371101,0,-2,-1,-3,-1,-2,0,-1
1514949432371101,0,1,-2,-1,-1,-2,-2,-2
1514949432372101,0,-2,0,-1,0,1,0,-2
1514949432372101,0,0,-6,-5,-1,0,-1,-1
1514949432394119,-2,-3,0,-1,-1,1,-2,2
1514949432394119,-2,1,-4,-1,-3,-2,-1,1
1514949432396118,-1,0,-2,-1,-2,-2,-1,-2
1514949432396118,-4,-3,0,1,-1,-2,0,-1
1514949432416132,1,1,1,-1,0,-1,-1,-2
1514949432416132,-2,0,-1,-1,1,-2,-1,0
1514949432417133,-1,-1,-4,-1,-2,-2,-1,1
1514949432417133,-1,-1,-1,0,-1,-1,-2,-2
1514949432439148,-1,-3,-1,-1,-3,-2,-2,-2
1514949432439148,-1,-3,0,-1,-1,1,0,-2
1514949432440149,-2,-1,-2,-1,-1,-1,1,0
1514949432440149,-1,-2,1,-1,-1,-2,-2,0
1514949432453159,-3,-2,-2,-1,-2,-1,-2,0
1514949432453159,2,-1,1,-2,-1,-2,-2,-3
1514949432454170,-3,0,-1,-2,-1,-2,0,-3
1514949432454170,1,-3,1,-1,-1,1,-1,0
1514949432477176,2,1,0,-2,0,0,-1,-1
1514949432477176,-2,-2,-1,-1,-2,-1,-3,0
1514949432479177,1,1,-3,-1,-2,0,-3,-1
1514949432479177,-2,-2,-1,1,-1,-1,-2,-1
1514949432491185,0,0,0,-1,-2,-2,-1,-3
1514949432491185,1,-2,-1,-2,0,-2,-2,0
1514949432492186,0,-1,-1,-2,-2,-1,-1,-3
1514949432492186,0,-2,-2,-1,-2,0,0,-1
1514949432513211,-2,-2,0,-1,0,1,1,-1
1514949432513211,0,-1,-1,-1,0,-1,-1,-2
1514949432514203,-2,0,-1,-3,0,0,-1,-1
1514949432514203,-1,0,-1,-1,0,-1,0,-2
1514949432536218,-2,-2,0,0,0,-2,-2,0
1514949432536218,0,1,-2,-1,0,-2,-2,-1
1514949432537219,0,-2,1,0,1,-1,-2,-1
1514949432537219,-1,0,-3,-1,-2,1,-2,-1
1514949432551230,0,-3,-2,-1,-3,-3,-1,-1
1514949432551230,-2,1,1,-2,-2,-1,1,-1
1514949432552229,-2,0,0,0,-1,-1,0,1
1514949432552229,-1,-2,1,0,-1,-1,-2,0
1514949432574257,-4,-1,-3,-1,-1,-1,-1,-1
1514949432574257,-1,-1,-2,-1,-1,0,-1,1
1514949432575257,-2,-2,-2,-2,0,-3,-1,-1
1514949432575257,1,0,-1,-1,-1,-1,1,-1
1514949432596259,-2,-1,-1,-1,0,-1,0,-1
1514949432596259,-1,-1,-1,1,0,0,-1,0
1514949432596259,-1,0,-3,-1,-2,-1,0,-1
1514949432596259,1,-1,-3,-2,-1,-1,-3,-1
1514949432611284,-3,0,0,-2,-2,-1,-1,-2
1514949432611284,-1,2,-2,-1,-1,-2,0,-2
1514949432612282,-1,-2,-1,-1,0,-1,-3,0
1514949432612282,-1,-2,-2,-1,-2,1,0,-3
1514949432633287,1,-2,-2,-1,0,0,-2,0
1514949432633287,0,-1,-1,-3,-2,-1,-1,-1
1514949432635287,0,0,-2,-2,-2,0,0,0
1514949432635287,1,-1,-1,0,-1,-2,-1,-1
1514949432656302,1,-2,0,0,-2,1,-2,-1
1514949432656302,-1,-3,-1,0,-1,-2,-4,-3
1514949432657303,-2,-2,0,-1,-1,-2,0,-1
1514949432657303,-1,-1,-2,-3,-1,-2,3,-2
1514949432670312,-1,0,-1,-1,-1,0,0,-3
1514949432670312,-1,-2,-1,-2,0,-1,1,0
1514949432678319,0,-2,-1,-2,-2,-1,-3,-1
1514949432678319,-2,-2,2,-1,-1,-3,1,0
1514949432694332,1,0,-2,-1,-2,0,-1,0
1514949432694332,-1,-2,-1,-1,-1,1,0,-1
1514949432696330,-3,1,-2,-1,-1,0,-1,-2
1514949432696330,-1,-3,-3,-1,-1,0,-1,0
1514949432716385,-1,-3,-1,0,-1,-2,-1,-3
1514949432716385,-2,-1,-1,-2,-2,-3,0,-1
1514949432717351,-1,-1,-2,-2,0,-1,1,0
1514949432717351,0,-1,-1,-2,-1,1,-2,-3
1514949432730366,-1,1,0,-1,-1,-2,-1,-1
1514949432730366,0,-1,-1,0,-1,-1,0,0
1514949432738362,-1,-1,-2,-1,1,-2,-1,0
1514949432738362,-3,-2,-1,0,-3,-1,1,-1
1514949432753388,0,-1,0,1,-1,-1,-2,-3
1514949432753388,-1,-1,-2,-1,-1,-2,-2,-1
1514949432754375,-1,-3,3,1,-1,-2,-1,-1
1514949432754375,-2,-4,-4,-4,-2,-1,-1,0
1514949432776400,-2,-1,-2,0,0,-1,2,-1
1514949432776400,1,0,-1,-2,-2,1,-1,0
1514949432777391,-2,0,-1,0,0,-1,0,0
1514949432777391,0,0,-1,1,0,-1,-4,-2
1514949432790402,-2,-4,-1,-1,-2,-1,1,1
1514949432790402,0,0,-1,-2,1,-1,0,0
1514949432798408,0,-2,-3,-2,-1,-1,1,-1
1514949432798408,-3,-1,1,-1,0,-2,0,-2
1514949432813431,-3,-2,-2,0,0,-1,-2,0
1514949432813431,-2,-1,-1,1,-1,-2,-2,-1
1514949432814416,-1,-2,-2,-2,-1,1,0,-3
1514949432814416,1,-3,0,-1,-1,-2,-4,-2
1514949432836431,-3,-2,2,-2,-1,-2,-2,-2
1514949432836431,-2,-4,-2,-1,-1,-1,0,0
1514949432837431,-1,0,-3,-3,0,-3,-3,-1
1514949432837431,-2,0,1,-1,-2,-2,1,-1
1514949432850443,-1,0,-1,-3,-1,-2,-1,0
1514949432850443,-2,-2,0,1,-1,0,-3,-2
1514949432859449,-2,0,-2,-1,-1,-1,-3,-1
1514949432859449,0,1,1,-2,-2,0,-1,0
1514949432873474,2,0,-2,-1,-3,0,0,-1
1514949432873474,-1,-1,-3,-1,-1,-1,1,-1
1514949432874458,0,-1,1,-1,-2,-1,0,0
1514949432874458,-2,-3,-2,-1,1,-2,-3,-1
1514949432896478,0,0,1,-1,-1,-2,-2,-3
1514949432896478,-1,-3,-1,-2,-1,0,-1,-1
1514949432897474,-2,-2,-3,-1,-1,1,-2,-2
1514949432897474,-2,-1,2,2,-1,1,1,-2
1514949432910484,-2,0,-7,-4,-1,0,-2,-1
1514949432910484,-1,1,-1,-2,0,-1,-1,-1
1514949432919493,-1,0,1,-1,-2,-2,-1,-1
1514949432919493,0,0,-1,-1,-1,1,1,-1
1514949432933500,0,-2,-1,1,-2,-1,-3,-2
1514949432933500,-1,-2,-1,-2,0,0,-4,-1
1514949432934503,-3,-2,-1,0,0,-2,2,-1
1514949432934503,0,-2,-1,-1,-1,-3,-2,-1
1514949432956515,-2,-1,1,-1,0,0,-1,-1
1514949432956515,-2,1,-2,0,-1,-2,-1,-1
1514949432957516,-1,-2,-2,-1,-1,-2,0,-1
1514949432957516,-1,-3,1,0,0,1,-1,-2
1514949432970528,-2,-3,0,0,0,0,-1,-1
1514949432970528,-3,0,-1,-1,-4,-1,0,-1
1514949432979537,-2,0,-1,-1,-1,0,-2,0
1514949432979537,1,0,-1,-2,-1,-3,-1,-1
1514949432993542,-2,0,-1,-1,-1,0,-1,-1
1514949432993542,-3,0,-1,-2,0,0,-1,0
1514949432994549,0,-2,0,-1,-1,-1,-1,-1
1514949432994549,-1,-1,-3,-1,0,-1,-3,-1
1514949433016558,2,-1,1,0,-1,-1,-2,0
1514949433016558,1,1,0,0,-2,-1,0,-2
1514949433017561,-1,1,1,-1,-3,0,-2,-1
1514949433017561,-1,-3,-3,-1,-1,-2,1,0
1514949433039575,-2,-2,-1,0,-3,-1,1,-1
1514949433039575,1,0,-1,-1,-1,-1,-2,-3
1514949433040579,0,-2,0,-2,-1,-3,-1,-1
1514949433040579,-3,1,-1,0,-2,-2,1,0
1514949433053586,-1,-1,-1,-1,-2,-1,-2,-2
1514949433053586,-1,-2,0,-1,-2,-1,1,0
1514949433054585,-2,-1,0,-2,-1,0,-2,-1
1514949433054585,-2,-2,-2,-1,-1,-1,-3,-3
1514949433077603,-2,-1,-2,-2,1,-2,-2,0
1514949433077603,0,0,-2,-3,-1,-2,-2,-2
1514949433079604,0,-2,-1,-1,0,-1,0,0
1514949433079604,-1,-2,-2,0,-1,-1,1,-2
1514949433099626,1,0,-2,0,1,-1,0,-2
1514949433099626,-1,-2,-2,-1,-1,-1,-2,2
1514949433099626,-2,-1,-1,0,-1,0,-2,-2
1514949433099626,-1,-1,0,0,0,-2,-3,0
1514949433113629,-1,-1,-1,-3,0,-1,1,0
1514949433113629,0,-2,-2,-1,0,1,-2,0
1514949433114629,-1,-2,-2,-1,-1,-1,0,-1
1514949433114629,0,-3,-1,-1,-2,0,1,-1
1514949433136645,-2,-1,0,0,-2,-2,-1,0
1514949433136645,-2,-3,0,-1,1,-1,-2,-1
1514949433138648,-1,-3,-1,-1,-2,-1,-2,-1
1514949433138648,0,-4,0,-1,0,-1,1,-2
1514949433159660,-1,0,-1,-1,-1,1,-1,-1
