timestamp,emg1,emg2,emg3,emg4,emg5,emg6,emg7,emg8
1513227647001320,-2,1,0,-1,-1,-1,0,0
1513227647001320,0,-2,-1,0,0,-1,0,-1
1513227647002322,0,-1,-1,0,-3,-1,0,-1
1513227647002322,-1,-1,-2,-1,1,-2,-1,-1
1513227647015329,0,-1,-1,-1,-2,0,-3,-1
1513227647015329,1,1,-1,-2,-1,0,-3,0
1513227647016330,-1,1,0,-1,-2,-1,-1,-1
1513227647016330,-1,-1,-1,-1,-1,-3,0,-1
1513227647046352,-1,-1,0,2,0,0,1,-1
1513227647046352,-4,-2,0,-2,-3,-1,0,-3
1513227647046852,0,-1,-1,-1,-1,-2,1,-1
1513227647046852,0,-1,-2,-1,-1,-1,-2,1
1513227647061362,1,-4,-1,-1,-2,0,-1,0
1513227647061362,0,-2,-1,0,0,-1,-2,-1
1513227647061863,-1,-1,1,0,-1,-1,-3,-1
1513227647061863,-1,-1,-1,1,0,-2,-2,0
1513227647075872,-2,-1,-2,-1,-1,-2,0,-1
1513227647075872,0,-4,-1,-1,-1,-1,0,0
1513227647076873,-2,-1,-2,-1,-2,-1,-1,-1
1513227647076873,0,-2,-2,-2,0,-1,0,-1
1513227647097891,-3,0,-1,-2,-1,-1,-1,-2
1513227647097891,-2,1,-3,-2,-2,0,-2,-2
1513227647098889,-1,-1,-2,0,0,-1,1,-3
1513227647098889,2,-1,-3,-5,-2,0,0,-2
1513227647121405,-1,-1,-1,-2,0,0,-1,-2
1513227647121405,-2,-1,1,-1,-1,-1,0,-1
1513227647121906,0,0,-2,-2,-1,-1,-2,1
1513227647121906,-1,-2,-1,1,-1,0,0,1
1513227647135917,-1,-3,-1,-1,-2,0,-1,-2
1513227647135917,-1,0,-1,-1,-2,-2,-2,0
1513227647136417,0,-1,-2,-3,0,-2,-2,0
1513227647136417,-3,0,0,2,0,-2,0,-1
1513227647157929,-1,-1,-2,-2,-1,-1,-1,-2
1513227647157929,-1,-3,0,-1,-1,-2,-2,0
1513227647158931,-2,-2,-2,-2,-2,-1,-1,-3
1513227647158931,-2,-1,-1,-2,1,-2,-2,-2
1513227647180947,-1,0,0,0,-4,-2,0,0
1513227647180947,-2,0,0,0,0,-1,1,-2
1513227647181948,-2,-1,-1,0,-1,-2,-1,-1
1513227647181948,1,0,-2,-1,-1,-3,-2,-3
1513227647195460,0,1,-2,-1,-1,0,-1,-1
1513227647195460,1,-1,-2,-3,-2,-2,0,-3
1513227647196457,-5,-4,1,1,-1,1,0,-2
1513227647196457,0,-2,0,-1,-2,-2,-1,0
1513227647218472,-1,-2,-1,-2,0,-3,-1,1
1513227647218472,-1,-2,0,0,0,0,-2,-1
1513227647219474,0,-1,-1,-1,1,1,-1,-1
1513227647219474,-1,-2,-3,-1,-3,-2,-2,-1
1513227647240489,-1,-1,-1,-1,0,-1,-1,-1
1513227647240489,0,0,-2,-1,-3,0,-1,-3
1513227647247996,-1,-1,-1,-1,-1,-3,0,-1
1513227647247996,-1,1,-2,-2,-2,-1,0,-2
1513227647254999,-3,1,-2,0,-1,0,-1,-2
1513227647254999,-2,-2,-2,-3,-1,-2,-1,-1
1513227647263027,0,-2,-1,-1,-1,-2,-1,-1
1513227647263027,0,-2,-2,-1,-1,-1,-2,-2
1513227647278017,-1,-3,-1,-1,-2,-1,-2,-2
1513227647278017,1,-2,-3,-3,-1,-1,-3,-1
1513227647278516,-1,0,-2,0,0,-2,-1,-1
1513227647278516,-1,-1,-1,-1,0,-1,0,1
1513227647301535,-1,0,-1,-2,0,-1,0,-1
1513227647301535,-2,-2,-1,0,-1,-1,1,0
1513227647302032,-1,0,1,-1,-1,0,-1,-1
1513227647302032,3,2,-3,-1,-1,1,-1,1
1513227647315043,0,-1,-1,-3,0,-2,0,0
1513227647315043,-1,-1,0,-1,-1,-1,-1,0
1513227647323046,-1,-2,-1,1,-2,-2,-1,-2
1513227647323046,-1,-1,1,-1,-1,0,-2,1
1513227647338058,-1,-2,-2,-1,-1,1,0,0
1513227647338058,-2,0,-1,-2,-1,0,-1,-2
1513227647338566,-1,1,0,-1,0,-1,-1,-2
1513227647338566,-1,0,0,0,-1,-1,-2,-2
1513227647361076,-3,-1,-2,1,-3,-1,-1,0
1513227647361076,-3,1,0,0,-1,-2,0,0
1513227647362074,-1,-1,-1,-2,0,0,0,-1
1513227647362074,-2,-3,0,-2,-1,-2,1,-2
1513227647374639,-2,0,1,0,-1,-2,0,-3
1513227647374639,0,0,-1,1,-2,-1,-3,-1
1513227647383134,0,1,-1,-2,-2,0,-1,-1
1513227647383134,0,-4,-1,-1,-1,-2,0,-1
1513227647398145,4,-1,-3,-1,-3,-1,-3,-2
1513227647398145,0,-2,-1,-1,-1,-1,-2,-2
1513227647398633,-2,0,-1,-2,-2,-2,-2,0
1513227647398633,-2,-1,0,0,0,0,-2,1
1513227647421159,-3,-1,-2,-3,1,0,-1,0
1513227647421159,-3,1,-1,-1,0,-2,-2,-1
1513227647422150,-1,-1,-2,0,0,-1,-2,0
1513227647422150,-1,0,-1,-2,-2,0,0,-1
1513227647435161,-2,-2,0,-2,-1,0,0,-2
1513227647435161,0,-2,-2,1,1,0,-1,-1
1513227647443178,1,-3,-1,0,0,-1,-1,0
1513227647443178,-2,1,-2,-1,-1,-1,-1,-1
1513227647458185,1,0,-2,-2,0,-1,-2,-3
1513227647458185,-2,-2,0,-1,-2,-1,1,0
1513227647458675,-3,-2,-1,-2,-2,0,-1,0
1513227647458675,-2,-5,-2,-3,-2,-1,-2,-4
1513227647481203,-3,-3,-1,-1,-3,-2,0,0
1513227647481203,-2,-2,-1,-1,0,-1,-1,-1
1513227647482202,0,0,-2,0,-1,-1,-3,0
1513227647482202,-1,0,0,-2,-2,0,-1,-3
1513227647495201,-3,-1,0,-1,2,1,-1,-1
1513227647495201,0,-3,-2,0,-2,-1,-1,-1
1513227647503207,-1,-1,-1,-1,-2,-1,0,0
1513227647503207,-6,-1,1,0,-2,-1,0,-1
1513227647518237,-2,1,-2,0,-2,0,-1,-1
1513227647518237,1,0,-1,-1,0,0,0,1
1513227647518718,-2,-1,0,0,0,1,1,-2
1513227647518718,0,0,0,-1,0,0,-2,-2
1513227647541247,0,-1,-2,-2,0,-2,0,-1
1513227647541247,-2,-2,-2,-3,1,-1,-1,-1
1513227647542239,0,0,-3,-3,-2,-2,-3,0
1513227647542239,0,-1,-1,0,1,0,-2,-2
1513227647564261,0,-2,1,0,0,-1,-1,0
1513227647564261,-1,0,-1,0,-1,-1,0,-2
1513227647564751,-2,-2,0,-2,-1,-2,-1,0
1513227647564751,-1,0,-2,-1,-3,-1,1,-1
1513227647577776,-2,-2,-2,1,2,-2,0,-2
1513227647577776,-1,-2,1,1,-2,0,1,0
1513227647578771,-1,-2,-3,-1,1,0,0,-3
1513227647578771,-1,-2,-1,-2,0,-1,-2,0
1513227647601287,-1,-2,-1,-2,-1,1,-2,0
1513227647601287,-1,-1,-2,-1,-2,-2,-1,-1
1513227647602279,0,0,-2,-1,-2,-1,-2,0
1513227647602279,0,0,0,1,-1,-1,0,-1
1513227647622794,-1,-1,-1,-1,-1,-3,-1,0
1513227647622794,0,-1,-1,0,1,-1,0,0
1513227647630299,0,-1,1,0,0,-3,0,-1
1513227647630299,0,-1,-2,-3,-2,-1,-1,0
1513227647637805,-1,-2,-2,-1,-2,-1,-2,-1
1513227647637805,-2,-1,0,-1,-3,-1,-2,-2
1513227647638805,0,1,-2,-1,0,-1,-2,-3
1513227647638805,-3,-1,-2,-1,-2,-1,-1,-1
1513227647661336,-1,-2,0,-1,-2,-1,-3,-1
1513227647661336,0,-1,-1,-1,0,-1,-1,-1
1513227647661819,-2,0,0,0,0,0,-1,-1
1513227647661819,-2,-1,-2,-1,0,-2,-1,-1
1513227647683835,1,-2,-1,-2,0,-2,0,-1
1513227647683835,-2,-1,-2,0,-2,-2,-2,-2
1513227647684393,-1,-1,3,-1,-2,-2,-2,1
1513227647684393,-1,-2,0,-2,0,0,1,-1
1513227647697904,-2,-1,1,-1,-2,-2,-2,-3
1513227647697904,-1,-1,-3,-1,-2,-1,0,-1
1513227647698904,1,-2,-3,-1,1,-1,-1,-1
1513227647698904,0,-1,1,0,0,-1,-1,-1
1513227647721420,0,-1,-1,1,-2,1,0,0
1513227647721420,-5,-2,0,-2,-2,1,-1,1
1513227647721923,-3,-3,-1,-2,-2,1,0,-2
1513227647721923,0,-2,-2,-1,-1,-2,-1,0
1513227647743446,1,1,0,-2,-2,-1,-1,0
1513227647743446,-2,2,-3,-3,0,-2,-2,-3
1513227647744448,-1,-2,-4,-2,-2,-2,1,1
1513227647744448,0,-1,-2,-1,1,-1,-2,0
1513227647757946,-2,-1,-3,1,-1,-1,-1,0
1513227647757946,-1,-2,-1,0,0,0,-2,1
1513227647758949,1,-4,-4,-2,-3,-1,-2,-2
1513227647758949,1,-1,-1,0,-2,-2,-2,-2
1513227647780490,-5,-1,0,0,-1,-2,0,-1
1513227647780490,0,0,-2,-1,-1,0,-3,-1
1513227647787995,-2,0,-1,-1,0,1,-1,0
1513227647787995,1,-1,-1,0,-2,0,1,0
1513227647803506,-2,-2,-1,-1,-1,0,-2,-1
1513227647803506,-1,-2,0,-2,-1,-2,-1,0
1513227647804507,-1,-1,0,-1,1,0,-1,-2
1513227647804507,-3,-1,0,-4,0,0,-1,-1
1513227647818017,0,-1,-1,-3,-1,-2,-1,-2
1513227647818017,-1,0,0,-1,0,0,0,-1
1513227647819019,0,0,-2,-2,-2,-1,-1,0
1513227647819019,-3,-2,1,0,-2,-1,-1,0
1513227647841033,0,-1,-3,0,-1,-1,-1,-2
1513227647841033,0,-3,-1,-1,0,-2,-2,1
1513227647842034,-1,-2,0,1,-1,-1,-4,-1
1513227647842034,0,-1,-1,-1,0,-1,-1,1
1513227647863572,-5,-1,1,0,1,-1,-2,-2
1513227647863572,0,1,-1,1,-2,-1,1,-2
1513227647864579,-2,0,-2,-1,-1,-2,0,0
1513227647864579,0,1,-2,-1,-1,0,-1,0
1513227647878059,-1,0,-2,0,-2,0,-1,-1
1513227647878059,0,-2,-1,-1,0,0,0,-2
1513227647878561,-1,-2,-1,-1,-1,-1,-1,0
1513227647878561,-3,-1,-2,-1,-1,-1,-1,0
1513227647908581,1,0,-2,-3,-1,-1,-1,-1
1513227647908581,-1,-2,-3,-2,0,-2,-1,-1
1513227647909582,1,-3,-2,-1,-2,-2,0,0
1513227647909582,-2,-1,-2,-1,-3,0,-1,0
1513227647923612,0,1,-2,-2,-2,0,-1,-1
1513227647923612,-1,2,-1,-1,-1,-1,0,-2
1513227647925614,-1,0,-1,0,-2,-1,-1,-2
1513227647925614,-2,-1,1,-1,0,-1,-2,-2
1513227647938102,-1,0,0,-3,-1,-1,-2,-2
1513227647938102,0,-2,1,-1,-2,0,-1,0
1513227647953126,-2,-1,-1,-2,-2,-2,-1,-1
1513227647953126,-1,-1,-2,0,-2,-1,0,-2
1513227647961118,1,-1,0,-3,-1,0,0,-1
1513227647961118,1,-1,-1,-2,-1,1,0,1
1513227647963119,-2,-2,-1,-1,1,-1,-2,-2
1513227647963119,-2,-2,-1,0,-2,-2,0,-3
1513227647983634,-3,-2,0,0,0,0,-2,-3
1513227647983634,0,1,-3,0,-2,-2,-1,-2
1513227647985135,-1,1,0,-2,-1,0,0,-1
1513227647985135,0,-2,-3,-3,-1,-1,-3,-1
1513227647997654,-4,-3,-2,0,-2,-1,0,-1
1513227647997654,-3,-2,-2,2,-1,-1,-1,-1
1513227648014156,-1,-2,0,-1,-1,0,-1,0
1513227648014156,1,1,-1,-2,1,-2,0,-1
1513227648021212,2,0,-2,0,0,-2,0,-1
1513227648021212,-2,-1,0,-1,-1,0,-3,-2
1513227648022701,-2,1,0,0,0,-1,-1,-1
1513227648022701,-1,-1,0,-1,0,1,-1,-1
1513227648042775,-1,0,0,-1,0,-3,1,2
1513227648042775,-1,0,-2,-1,-1,-2,-2,-1
1513227648051271,0,-2,-4,-3,-3,-1,-3,-1
1513227648051271,-1,-1,-3,-1,-2,-1,-2,0
1513227648057285,0,-1,0,0,-2,-1,-3,0
1513227648057285,-3,-3,1,-2,-2,-2,-1,-1
1513227648066282,-2,-1,-2,-2,-1,0,-1,-1
1513227648066282,0,-2,-1,1,-2,0,-1,-2
1513227648081292,1,0,-3,-2,-2,0,-1,-2
1513227648081292,0,-1,0,-1,-1,-1,0,-1
1513227648082793,-1,-3,1,0,1,0,1,-1
1513227648082793,-1,-1,-2,-1,-1,-1,-2,-1
1513227648111322,-1,-2,-2,-1,0,-1,1,-1
1513227648111322,-1,-1,-1,-2,0,0,1,-2
1513227648112815,-2,-1,-2,0,-1,-1,-1,0
1513227648112815,-1,-1,-1,-1,-2,-3,-1,1
1513227648117320,-1,0,0,-1,-2,1,-1,0
1513227648117320,0,-1,-1,0,-1,-1,-2,-2
1513227648126324,1,1,1,0,0,-1,0,-1
1513227648126324,-2,0,-1,-1,-2,-1,0,-1
1513227648141335,0,-3,-5,-2,-1,0,-3,-1
1513227648141335,-1,-1,0,-1,-1,-1,0,1
1513227648142839,-1,-2,0,-1,-2,-3,-3,-2
1513227648142839,-1,-3,-1,-2,-1,-1,-1,-2
1513227648171356,-2,-3,0,0,-1,-2,-1,-3
1513227648171356,-1,-1,-1,0,-1,1,-1,-2
1513227648172857,-1,-1,-1,0,-1,-2,-1,-2
1513227648172857,1,1,-2,-2,-1,-3,-1,-1
1513227648177369,0,-2,-1,0,0,0,0,0
1513227648177369,-3,1,-2,-2,0,0,-1,-1
1513227648186370,-2,0,0,-1,-2,0,0,1
1513227648186370,0,-1,-2,-1,0,-1,-2,-1
1513227648201377,0,-1,-1,-1,0,-2,-2,-1
1513227648201377,-1,-1,-1,-1,-1,-4,0,-1
1513227648202878,-2,-1,-1,-1,-1,0,0,-1
1513227648202878,-1,-3,1,0,-1,0,1,0
1513227648223893,-1,-3,-2,-2,-2,-2,-1,-2
1513227648223893,-3,-2,0,0,-1,0,-1,0
1513227648225894,-1,-1,-1,-2,-2,-3,-3,-2
1513227648225894,-2,-2,-1,-1,0,-1,-2,-2
1513227648237415,-1,0,-3,-2,-1,0,-2,1
1513227648237415,-1,0,-2,-1,0,-3,0,-1
1513227648246410,-1,-2,-1,-1,-2,-3,1,-1
1513227648246410,-2,-1,-1,-2,0,0,0,-3
1513227648260919,3,0,-2,0,0,-1,-2,-1
1513227648260919,0,-1,-2,0,-2,-1,-2,0
1513227648262933,1,0,-1,-1,0,-1,-4,-1
1513227648262933,-1,-1,-2,0,0,-1,-1,-1
1513227648283444,-3,2,-1,-2,-2,-1,0,0
1513227648283444,-1,-2,-1,-2,-2,-1,-2,-1
1513227648285439,-1,-1,-1,0,-1,-1,-2,-1
1513227648285439,-2,-2,-2,0,-1,0,-1,-2
1513227648297444,-1,1,2,1,-1,0,-1,0
1513227648297444,-1,-1,-3,0,0,0,-1,0
1513227648306452,-1,-3,0,-1,-1,-1,0,0
1513227648306452,-2,0,0,-1,-2,-1,-1,-2
1513227648320962,-2,-2,0,-2,-2,-1,-1,-2
1513227648320962,-1,0,-1,-1,-2,1,-1,-2
1513227648322962,-2,1,-4,-2,0,0,-2,-1
1513227648322962,-3,0,-1,-3,-1,-3,0,0
1513227648343495,-1,1,1,0,-2,-1,1,-1
1513227648343495,0,0,-1,-2,-3,0,-1,-2
1513227648345479,0,-1,-2,1,-2,-1,0,-1
1513227648345479,1,-1,-1,-2,-1,-2,0,0
1513227648357487,-3,-4,-2,-2,0,-2,0,1
1513227648357487,1,-3,-1,-2,-1,-1,-1,0
1513227648366493,-1,0,0,-1,-2,-1,-1,-1
1513227648366493,-1,-1,0,-1,0,1,-1,-2
1513227648388510,-2,0,-1,0,0,-1,-1,-1
1513227648388510,-1,-1,0,1,-1,-2,0,0
1513227648390010,-2,-2,-1,0,-1,0,-1,-3
1513227648390010,-1,-2,-2,0,-2,-1,-3,0
1513227648403520,-1,0,0,-1,-1,0,-1,-1
1513227648403520,-4,-1,1,-1,0,-1,-2,-3
1513227648405021,0,-2,-1,-2,-2,-2,-1,-1
1513227648405021,-2,0,-2,-1,-1,-1,0,0
1513227648417533,-1,-3,-2,-2,0,-1,-1,-2
1513227648417533,2,0,-2,0,-1,0,-1,-1
1513227648426552,1,-1,0,-2,-2,-1,-1,1
1513227648426552,1,-1,0,-1,0,0,-1,0
1513227648441047,-1,-2,-1,-1,-2,-1,-2,-1
1513227648441047,-1,-1,-2,0,0,-2,-3,0
1513227648442547,-2,-4,-1,-2,0,-1,-2,-2
1513227648442547,-1,-2,-1,0,-1,-1,0,0
1513227648462565,-2,-1,-1,-2,-2,-2,-1,-2
1513227648462565,-3,0,-2,-1,-2,-2,-1,0
1513227648478106,-1,1,-2,-2,0,-2,0,2
1513227648478106,-1,-2,-3,-2,-3,-1,-2,-1
1513227648478606,3,1,-3,-1,-2,-1,-2,-1
1513227648478606,-1,-2,-2,-2,-2,-2,-1,0
1513227648486115,-1,-1,-2,0,-1,0,0,0
1513227648486115,-2,-2,-1,-2,-1,-2,-1,-1
1513227648502128,0,-1,-1,1,-1,-1,0,0
1513227648502128,1,-2,-1,-1,-2,-1,-1,0
1513227648503637,-1,-1,-1,0,1,0,0,-2
1513227648503637,0,0,0,-3,-2,-1,-1,-2
1513227648523501,-3,0,-2,-1,-1,-2,0,0
1513227648523501,-4,-1,0,-1,2,0,-2,-2
1513227648531004,-1,0,1,0,-1,1,-1,-1
1513227648531004,1,7,-1,0,0,-2,-1,-1
1513227648546028,-8,-13,0,-1,-1,-1,-1,-1
1513227648546028,-1,-2,1,-1,-1,-1,-2,-1
1513227648548017,-3,-1,-1,-1,-2,-2,-1,-2
1513227648548017,-1,0,0,0,0,0,0,0
1513227648561050,0,2,-1,-2,-1,-2,-2,-2
1513227648561050,0,-2,-2,-1,-2,-2,-1,-1
1513227648563032,0,-4,0,-1,-2,-1,-1,-2
1513227648563032,1,-3,1,-1,-3,-2,-2,-1
1513227648582647,0,1,-3,1,0,0,-1,-1
1513227648582647,-2,-1,-2,-1,0,-1,1,1
1513227648591154,-3,2,0,-1,-1,-3,0,-1
1513227648591154,-2,-1,-1,-2,-1,0,-1,0
1513227648606664,1,-2,-2,-1,0,-2,-1,0
1513227648606664,0,-1,-3,-2,-2,-1,0,-1
1513227648608165,-4,-1,-1,1,-1,-1,-1,0
1513227648608165,-2,-3,-1,0,0,-2,-2,-1
1513227648621185,0,1,0,-1,-1,-1,-1,-1
1513227648621185,0,-1,-2,-2,-3,0,-1,0
1513227648622676,1,-1,-3,0,-1,0,-1,-2
1513227648622676,-2,-1,-3,-1,-1,0,-1,-2
1513227648643701,-3,3,2,-1,0,1,-1,-1
1513227648643701,-1,-1,0,0,-1,-1,0,0
1513227648645203,0,-1,-2,-1,-2,0,-2,-1
1513227648645203,0,2,0,-3,0,1,-1,-1
1513227648666230,0,0,-3,-2,-1,-2,0,-2
1513227648666230,-2,-2,-1,0,-2,-2,-1,-1
1513227648667717,0,-3,-1,-1,0,0,0,-1
1513227648667717,0,-3,-1,-1,0,-1,-1,-1
1513227648688724,-1,-1,-2,2,0,0,-1,-2
1513227648688724,0,-1,-1,-1,-1,-2,-1,1
1513227648690223,-3,0,-2,-1,-2,-1,-2,-1
1513227648690223,-3,-3,0,0,-2,-1,-2,-1
1513227648703733,-4,0,2,1,0,0,-2,0
1513227648703733,-1,1,-1,-1,0,0,-1,-2
1513227648705234,2,-1,-1,-3,-2,-2,0,0
1513227648705234,-2,-3,-1,-1,0,0,-2,0
1513227648742761,1,-4,-2,-2,-1,0,0,0
1513227648742761,-1,0,-1,-2,1,1,0,-1
1513227648744262,-3,-1,0,-2,-1,0,0,-1
1513227648744262,-1,-1,-2,-1,-1,-3,0,-1
1513227648744762,0,-2,-1,-1,0,-3,-2,-1
1513227648744762,-3,-1,0,-1,-1,0,-1,-1
1513227648748791,3,1,-2,-3,-1,-3,-3,-1
1513227648748791,-1,1,2,0,0,-1,-2,0
1513227648763778,0,-1,-2,-1,-3,-1,0,-1
1513227648763778,1,0,-1,-1,-3,-1,-3,-2
1513227648765286,0,-2,-2,-1,-1,0,-2,-1
1513227648765286,0,-1,0,0,-1,-1,0,-1
1513227648786291,-1,-1,0,-2,-1,-1,-1,-2
1513227648786291,0,-1,0,-2,0,-1,1,0
1513227648787792,-2,-2,0,-3,-1,0,-2,0
1513227648787792,-1,-2,-1,-3,-1,-2,-2,-2
1513227648800304,-2,-2,-2,-2,0,-2,-1,0
1513227648800304,1,0,-2,-1,0,-2,-2,0
1513227648808807,-1,1,-1,-1,0,-3,-1,-2
1513227648808807,-6,-2,-1,1,-1,1,-1,-2
1513227648822817,4,1,-2,0,-1,-1,-1,-1
1513227648822817,-3,-3,-1,-1,-2,-2,-1,-2
1513227648831322,-1,-3,-3,1,-2,-1,-2,-1
1513227648831322,0,-1,-3,0,-1,-2,-2,-1
1513227648846333,0,0,2,0,0,1,-2,1
1513227648846333,-1,0,-1,-2,0,-1,-1,0
1513227648847849,-2,-1,-1,-1,1,-1,1,-1
1513227648847849,-1,-2,-2,-1,-2,-2,-1,-1
1513227648860366,-1,-2,-1,-3,0,0,-1,-1
1513227648860366,-1,-2,0,-2,-1,-2,-3,0
1513227648867420,-1,-1,-2,0,-2,0,-1,1
1513227648867420,2,1,-2,-1,-1,-1,0,0
1513227648883430,-1,1,-1,-2,-1,-1,-1,-1
1513227648883430,0,-1,-3,1,0,-1,0,-1
1513227648885414,0,-1,-2,0,-2,-2,1,-1
1513227648885414,-1,-2,-2,-2,1,-1,1,-1
1513227648906428,-1,-1,-1,0,-3,-2,-2,-3
1513227648906428,-2,-1,1,-1,0,-1,-2,-3
1513227648907929,-2,-1,0,0,0,-1,-3,-2
1513227648907929,-2,0,-3,0,0,-1,-1,-2
1513227648920437,-1,-1,-3,-3,-1,-1,0,-1
1513227648920437,0,0,-2,0,0,-1,1,-1
1513227648927442,1,-1,-4,-3,-1,-1,0,0
1513227648927442,1,-2,0,-2,-1,-1,-1,-2
1513227648943464,-2,-3,-3,-1,-1,-1,-2,0
1513227648943464,-4,-1,-1,-1,-3,0,-1,-1
1513227648945466,-1,0,0,-2,0,-1,-2,-1
1513227648945466,-1,-2,-1,-2,-2,0,-1,0
1513227648966491,-3,-1,-1,0,-1,-1,0,-2
1513227648966491,0,-1,-2,0,-2,-1,-1,0
1513227648968483,-2,-1,2,-2,-1,-1,0,-1
1513227648968483,-1,-2,-1,-2,0,-1,1,-3
1513227648980479,-3,-1,0,-1,-2,-2,0,-2
1513227648980479,-1,-1,-1,-1,-2,-3,-1,-1
1513227648987484,-1,-1,0,-1,-2,0,-2,-1
1513227648987484,-2,-2,-1,1,-1,-2,-2,-1
1513227649003502,1,-2,-1,-1,-1,-1,-1,-1
1513227649003502,-1,-2,-1,-3,-1,0,1,0
1513227649005497,-1,-1,-1,0,-1,-1,-1,-1
1513227649005497,2,0,-2,-1,-1,-2,-2,-1
1513227649026512,-4,-2,-2,1,0,0,-1,-1
1513227649026512,0,0,-1,-1,0,-2,-2,-1
1513227649028013,-1,0,-1,-2,-2,-1,-1,-1
1513227649028013,-1,0,-1,1,-2,0,0,-1
1513227649040021,1,2,-1,-2,-1,-2,-1,0
1513227649040021,-1,-1,-1,-2,-1,-3,0,-1
1513227649056546,-3,-3,-3,-1,-2,0,0,1
1513227649056546,-4,1,1,-3,-1,0,-2,0
1513227649063567,-3,-1,2,1,0,-2,-2,0
1513227649063567,-1,-2,-1,1,-1,1,-2,0
1513227649065048,0,-2,0,-2,-1,-2,0,-1
1513227649065048,0,-1,-2,-2,-2,-1,2,0
1513227649086054,-1,-2,0,-2,-1,0,-2,0
1513227649086054,0,0,-2,-2,0,-1,-2,-1
1513227649088055,-1,-2,-1,1,-1,-1,-2,-2
1513227649088055,0,-2,-1,-3,0,0,-2,0
1513227649099566,2,-1,-2,-2,0,0,0,-2
1513227649099566,-1,0,-3,0,-2,-1,-3,-1
1513227649108570,-1,0,-1,-2,-1,-2,0,-1
1513227649108570,0,-2,0,0,-2,0,0,-2
1513227649123604,0,-1,-1,-1,-2,-3,-2,-1
1513227649123604,-2,-3,-2,-1,-2,-1,0,-2
1513227649125589,-2,0,-2,2,0,-2,-1,-1
1513227649125589,0,0,0,0,-2,-1,-2,-1
1513227649146108,-4,0,1,-1,-2,0,-1,-2
1513227649146108,-1,1,-1,-3,-1,0,-2,-1
1513227649147597,-3,-2,-1,-1,-3,-1,-2,-3
1513227649147597,-3,-1,-1,0,-1,-1,-3,-1
1513227649160118,0,-2,-1,-1,-1,-2,-1,0
1513227649160118,-1,-3,-1,0,-1,-1,0,0
1513227649168689,-1,-1,-2,0,0,0,-1,-1
1513227649168689,1,-1,-2,-1,0,-1,0,-1
1513227649183711,0,-2,-2,0,-1,-1,-1,0
1513227649183711,0,-1,-1,-1,-1,-1,0,-2
1513227649185203,-5,-3,0,-2,1,1,-1,1
1513227649185203,-3,1,1,-1,0,-1,-4,0
1513227649206217,0,-1,-2,0,-3,-1,-2,2
1513227649206217,0,0,1,-1,-1,-1,-1,1
1513227649207718,1,0,0,-3,-2,-2,0,-1
1513227649207718,-2,-3,-2,-3,-1,-2,1,-3
1513227649219735,-1,-1,0,-1,0,-2,-1,0
1513227649219735,-3,-1,-1,0,-1,-2,-1,-2
1513227649228731,-2,-3,0,0,0,-2,-1,1
1513227649228731,-1,0,-3,-1,-1,-1,-1,0
1513227649243741,-2,-1,-1,-1,0,-2,-1,-2
1513227649243741,-1,1,1,1,-1,0,0,0
1513227649245244,-1,0,-1,0,0,-1,0,0
1513227649245244,0,-1,-1,1,-2,-1,0,-1
1513227649272763,0,-3,-2,-1,1,0,-1,-2
1513227649272763,-2,-2,-1,-1,0,1,-1,0
1513227649282269,0,-2,-3,-1,1,0,-1,-2
1513227649282269,-1,-2,0,1,-2,-1,-2,-1
1513227649282770,-2,-2,-1,0,-1,0,-2,-1
1513227649282770,0,-3,-2,-2,-1,1,-2,-1
1513227649288774,2,2,1,1,-2,-3,-1,-2
1513227649288774,-2,-1,1,-2,-1,-2,-1,-1
1513227649303284,-3,1,-1,-3,-1,-1,-1,-1
1513227649303284,-1,0,-2,-1,-1,0,-1,0
1513227649311290,1,0,-2,-2,-2,0,-1,-1
1513227649311290,0,0,-3,-1,0,-3,-3,-1
1513227649325301,1,1,-1,-2,0,-1,0,0
1513227649325301,-1,-2,0,-1,-2,-3,-1,-2
1513227649333805,-2,-2,-2,-1,-2,-3,-1,-1
1513227649333805,-2,-2,-2,-1,0,-2,-1,-2
1513227649339810,0,-1,-2,-1,-2,-2,-1,-1
1513227649339810,-2,-1,-2,1,-1,-1,0,-1
1513227649348815,-2,-1,-2,-1,-1,-1,-2,-2
1513227649348815,-1,-2,-2,-2,-1,1,-1,-1
1513227649364346,0,-3,-2,-1,0,-1,0,-2
1513227649364346,1,-5,-2,-4,-1,-1,-2,-1
1513227649365851,-1,0,-1,-3,-1,0,0,-2
1513227649365851,-1,-1,-2,-1,-2,-2,-3,1
1513227649386346,-2,-1,-1,-2,-1,0,-1,1
1513227649386346,0,-4,-3,-3,0,-2,-3,-1
1513227649387846,-1,-1,0,-2,-1,-1,-1,-1
1513227649387846,0,-1,0,-2,0,-2,-1,-2
1513227649399852,0,-1,-1,0,-1,-1,0,-2
1513227649399852,-1,-1,0,-1,-1,-1,-1,-2
1513227649409359,-1,-3,-1,-2,-2,-1,-2,-1
1513227649409359,-2,-1,0,-2,0,-1,0,0
1513227649423869,-1,-2,-1,0,-2,-1,-2,-2
1513227649423869,-2,-1,-1,-1,0,1,0,0
1513227649426371,-2,-1,-3,-2,-2,-2,-2,0
1513227649426371,-1,-1,-1,0,-2,-2,0,-1
1513227649445386,-3,-1,-1,0,-1,-2,0,-1
1513227649445386,0,-1,0,-1,0,-2,0,-1
1513227649453891,-2,-2,-1,-1,1,-1,-1,0
1513227649453891,-1,-3,-1,-2,1,1,0,-1
1513227649468901,0,0,0,-1,-3,-2,0,-1
1513227649468901,-1,0,-1,0,-2,0,-1,-2
1513227649470403,-1,0,-1,-1,0,-1,1,-2
1513227649470403,0,1,-1,0,-2,-1,-1,-2
1513227649483411,1,0,-1,-1,-2,0,-2,-1
1513227649483411,1,-1,-3,-3,-1,-1,0,-2
1513227649485412,1,0,-1,-1,-4,1,0,0
1513227649485412,-1,-1,-2,0,0,-2,1,0
1513227649506439,-1,0,-2,-1,0,-1,-1,-2
1513227649506439,-1,0,-1,1,-1,-2,-1,0
1513227649507932,-1,1,-2,-2,-1,-1,-2,-1
1513227649507932,0,-1,-2,-1,-3,0,-1,-2
1513227649529448,0,0,-1,-1,-2,0,-2,-2
1513227649529448,-1,-1,1,-1,1,-2,-1,0
1513227649530957,-2,-3,-2,1,-1,-2,-1,0
1513227649530957,-2,1,-1,-2,-2,-1,-2,0
1513227649543465,-1,0,0,-2,0,0,-1,1
1513227649543465,-4,-2,0,-1,-3,-2,-1,-2
1513227649545456,1,-2,-2,-2,0,1,0,0
1513227649545456,2,-1,-3,-2,0,-2,-2,-1
1513227649565479,-2,-3,-2,1,-2,-1,-1,0
1513227649565479,0,1,-2,0,0,0,0,2
1513227649573476,-1,-1,-2,-2,0,-1,0,0
1513227649573476,-1,-2,-1,-1,-2,-1,0,-1
1513227649588485,-1,1,-2,0,0,-2,0,-2
1513227649588485,-1,-1,-2,1,0,-1,0,-1
1513227649589986,0,-1,-1,0,-2,-2,-1,-2
1513227649589986,-2,-2,-2,-1,0,-1,-1,-2
1513227649611015,0,-1,-2,-2,0,-1,1,-2
1513227649611015,-2,-1,-1,0,-2,-1,-2,-3
1513227649613012,-1,0,-1,-1,-1,-1,0,-2
1513227649613012,-1,0,-2,-1,-2,-1,-2,-1
1513227649626524,2,1,-2,-1,-1,-1,-1,-2
1513227649626524,-1,1,-1,-1,-2,-1,-1,-1
1513227649629026,-2,-2,-2,-1,-1,0,-1,0
1513227649629026,-5,-2,0,1,0,-2,-2,-2
1513227649648539,0,0,0,-1,0,-2,-2,0
1513227649648539,0,-1,-1,-2,-1,0,-2,0
1513227649650029,-2,-1,0,-1,-1,0,-1,-1
1513227649650029,1,-2,0,-2,-1,0,-1,1
1513227649663038,-2,-2,-2,-2,-1,-1,1,0
1513227649663038,1,0,-4,-2,-2,-3,-2,-1
1513227649670044,0,0,-1,1,-1,-3,-3,-2
1513227649670044,1,-1,-1,-2,0,-1,0,-2
1513227649686066,-1,-2,1,0,-1,-1,-2,-1
1513227649686066,0,1,0,-2,0,-2,0,0
1513227649687555,-1,-2,-1,-3,1,-2,-2,-3
1513227649687555,0,-3,-1,-2,-2,-1,-3,0
1513227649707575,0,-3,-1,-2,-2,-3,-2,-3
1513227649707575,-1,0,-2,0,-1,-1,0,-1
1513227649716090,-3,-1,0,-1,-2,0,0,-1
1513227649716090,-1,0,0,-1,0,-2,1,-1
1513227649723081,-1,-2,-2,-3,-2,-2,-2,-1
1513227649723081,-3,-2,2,-2,-3,-1,-2,-2
1513227649730111,-1,2,-1,-1,-1,-3,-1,-2
1513227649730111,-2,0,-2,-1,-1,-2,-1,2
1513227649746123,-2,0,-1,0,-2,-1,-2,0
1513227649746123,-1,-1,-1,-1,-1,-1,-1,0
1513227649748103,-1,-1,-2,-3,-1,0,0,0
1513227649748103,-2,-1,-1,0,0,0,0,-2
1513227649768616,0,-2,-3,-1,-1,-1,0,0
1513227649768616,-4,0,0,0,-1,0,0,-1
1513227649770121,-2,-1,-3,-1,-2,-1,0,0
1513227649770121,-1,-1,-2,-1,-2,-2,-2,0
1513227649783130,-2,-1,-2,-1,-1,0,0,-2
1513227649783130,-2,0,-2,-1,-2,-1,-2,-1
1513227649789629,1,-1,-2,-1,-1,-1,-1,1
1513227649789629,-2,-4,0,-3,1,0,-1,-1
1513227649813669,-2,0,0,-2,-2,-1,-1,-1
1513227649813669,1,-3,1,-2,0,-2,-1,0
1513227649815147,-2,0,0,-2,0,-2,-1,-2
1513227649815147,1,0,-3,-1,-3,-1,-1,0
1513227649836170,-1,-1,0,-1,-1,-1,0,-1
1513227649836170,-1,-2,-1,-1,-2,0,0,-2
1513227649837662,-1,-1,-3,-1,-2,-2,-2,0
1513227649837662,-4,-2,1,1,0,-2,-1,-2
1513227649843175,-3,0,0,0,-1,-1,-2,-1
1513227649843175,0,0,-2,-1,-1,0,0,-1
1513227649849679,2,-3,-2,-1,0,0,1,-1
1513227649849679,-1,-2,0,-1,-1,-1,0,0
1513227649866198,1,-2,0,0,0,-2,-2,-2
1513227649866198,0,-1,-3,-1,-1,-1,-1,0
1513227649867683,2,-1,0,1,-2,0,-2,-1
1513227649867683,-1,2,-1,-1,-1,-1,0,-3
1513227649888709,1,-2,0,-1,1,0,-2,0
1513227649888709,1,-3,1,-2,-1,-1,-1,-2
1513227649890199,0,-3,-3,0,-3,0,-3,0
1513227649890199,-2,-1,-1,-1,-1,-2,0,-1
1513227649903222,-2,-2,-3,-1,-1,-3,0,0
1513227649903222,-1,-3,0,-2,-1,-3,-1,-2
1513227649909713,-1,-1,1,-2,-2,-2,0,-3
1513227649909713,-2,0,-2,-2,-1,0,-1,-1
1513227649926334,-2,0,0,-3,-1,0,0,0
1513227649926334,-1,0,-2,-2,0,-1,-1,-1
1513227649927839,-4,0,0,0,0,-4,-3,-1
1513227649927839,0,0,-2,-1,-1,-1,-2,-1
1513227649948850,-2,-2,-2,-1,-1,0,-1,1
1513227649948850,0,-1,-2,-1,-2,-2,-1,-1
1513227649950354,-1,0,1,0,-2,-2,-1,-2
1513227649950354,-1,-1,1,-1,-2,-1,-1,-1
1513227649962378,0,-2,-2,0,0,-1,-1,-1
1513227649962378,-1,-2,-3,-1,-2,-1,-2,-1
1513227649971366,0,-2,-1,-1,-1,0,-1,0
1513227649971366,1,1,-1,0,-2,-1,-2,-2
1513227649993882,-2,0,0,-1,-1,-2,0,-2
1513227649993882,-3,-1,1,-1,-2,-3,-1,-1
1513227649995401,1,0,-2,-3,-1,-1,0,-1
1513227649995401,-4,-3,1,-1,1,0,-1,-2
1513227650008895,-3,0,-2,-1,-1,-2,0,1
1513227650008895,-2,0,0,-1,-1,0,-1,0
1513227650010419,-1,-2,-1,-2,-1,0,0,-1
1513227650010419,-1,-5,-4,-2,-3,0,-2,-4
1513227650022402,-1,-3,-2,-1,-1,-1,-1,-1
1513227650022402,-1,-2,0,-1,0,-2,-1,-1
1513227650031409,-3,0,-2,0,-1,-2,-1,1
1513227650031409,0,-1,-1,-1,-1,1,0,1
1513227650045920,1,0,-1,0,0,-2,0,-1
1513227650045920,1,0,0,-1,-1,-1,0,-2
1513227650047921,0,-3,-2,-2,-2,-1,-1,-2
1513227650047921,0,0,-1,-1,-1,-3,0,-1
1513227650068435,-1,0,-1,-1,-2,-1,-1,-2
1513227650068435,1,-1,-2,-1,0,-1,0,-1
1513227650074939,-3,-1,-1,0,0,-1,0,-1
1513227650074939,0,0,-2,-2,-1,-1,-1,-1
1513227650082444,0,-1,-1,0,-1,1,-2,-2
1513227650082444,0,-2,-2,1,0,-2,-1,0
1513227650097458,-3,1,2,0,-1,-1,0,-2
1513227650097458,-2,-1,-2,0,-1,-2,-1,-1
1513227650113479,-1,-2,-2,-2,-2,-1,1,0
1513227650113479,-1,-2,-1,-2,0,0,0,-1
1513227650115468,0,-2,-3,-1,-2,-3,-2,-2
1513227650115468,-1,0,1,-2,0,-1,-2,-1
1513227650128478,-1,0,1,-1,-3,-2,-3,-1
1513227650128478,-8,-3,0,0,-1,-1,-1,1
1513227650131480,1,-3,-1,0,-1,-1,-1,-3
1513227650131480,-1,-2,-2,0,-1,-1,0,0
1513227650142487,-2,-4,0,0,0,-3,0,0
1513227650142487,0,-1,-2,-2,-1,0,-1,0
1513227650151493,0,-2,-1,-1,-1,-1,0,0
1513227650151493,-3,-3,1,0,0,0,-2,-1
1513227650166015,-1,0,-1,-1,-2,-1,-1,-1
1513227650166015,0,0,-1,0,-2,-2,-2,1
1513227650168005,-1,1,-1,-1,1,2,-1,-1
1513227650168005,-1,-2,-5,-4,-2,-2,-2,-2
1513227650188531,1,-2,-1,0,-1,-1,-2,-2
1513227650188531,-2,-2,-2,-1,-1,-1,0,-2
1513227650190021,-3,-2,-1,-2,-1,-2,-2,0
1513227650190021,1,0,3,1,1,0,-1,0
1513227650211050,-2,-3,-7,-5,-2,-3,-2,-2
1513227650211050,0,-1,-2,-3,-2,1,1,-1
1513227650212537,2,-1,-2,-4,-2,-2,-2,-1
1513227650212537,-1,-2,-3,0,-1,-2,1,-2
1513227650226139,2,-1,2,1,-1,-1,-1,1
1513227650226139,-3,0,-2,0,-3,-1,-2,-2
1513227650228636,-2,-2,-3,-1,-2,-1,-2,-1
1513227650228636,-1,0,-1,-2,-2,-1,-2,0
1513227650248650,-2,0,1,0,1,1,-1,-3
1513227650248650,1,-1,-1,-1,-1,-1,0,0
1513227650250139,-1,-1,0,-1,-1,0,-1,-2
1513227650250139,-1,-1,-3,-2,-1,-3,0,0
1513227650271154,-2,-2,-1,0,-1,1,-2,-1
1513227650271154,-1,-1,-1,0,0,-1,-2,-1
1513227650272655,-3,-4,-2,-3,-2,-1,0,-3
1513227650272655,0,-1,0,-1,-1,0,1,-2
1513227650286236,-3,-1,-1,-3,-1,-1,-1,0
1513227650286236,1,-1,1,1,0,-1,-1,1
1513227650287728,-1,-1,-3,0,0,-1,-2,-1
1513227650287728,-1,-1,-3,0,-1,-2,-2,-1
1513227650308745,0,0,0,1,0,0,-1,0
1513227650308745,1,0,0,-2,-3,-2,-1,0
1513227650310263,-1,-1,0,-1,0,-1,0,-1
1513227650310263,-1,0,-1,-3,-2,-1,-1,-2
1513227650322259,1,0,0,-3,-2,-1,-1,-2
1513227650322259,-1,-1,-1,-1,-2,0,-1,0
1513227650337260,-1,-2,-1,1,-3,-1,0,0
1513227650337260,0,-1,-1,1,-1,-1,-1,0
1513227650346268,-1,-2,-3,-1,-1,0,-1,-1
1513227650346268,-2,-1,-2,-2,-1,-1,0,-2
1513227650347792,-2,1,-1,-1,-2,-2,-2,0
1513227650347792,-3,-1,-2,-2,-2,-1,-2,-2
1513227650368783,0,0,-1,-2,0,-3,-2,-1
1513227650368783,-1,-1,-2,0,-1,-2,0,-2
1513227650370285,1,-1,-3,-2,-1,0,0,-1
1513227650370285,-1,-2,-1,0,-2,0,-2,0
1513227650391299,-2,0,-1,-2,-1,1,1,0
1513227650391299,-1,-2,0,-3,-1,-1,-1,-1
1513227650392800,1,0,-1,-3,-2,-1,0,-1
1513227650392800,1,-1,-2,-1,0,1,0,0
1513227650406355,-1,-1,-4,-1,0,-2,-3,-1
1513227650406355,-2,-2,-1,-1,0,-2,-2,-2
1513227650407856,-3,0,0,-2,1,1,-1,-2
1513227650407856,0,-3,1,-1,-2,-3,0,0
1513227650428434,-3,-2,0,0,-1,0,0,-2
1513227650428434,0,0,0,-1,0,0,0,-1
1513227650430402,-3,0,0,-1,-1,0,-1,0
1513227650430402,1,0,1,-1,1,0,-1,-1
1513227650450936,2,-1,-1,0,-1,-2,-1,0
1513227650450936,-1,-1,-2,-2,-2,-3,0,-1
1513227650452918,0,-3,0,0,-2,0,0,-2
1513227650452918,-1,-2,-1,-2,-1,-1,-3,0
1513227650465946,-1,-2,-1,-1,-1,0,-1,-1
1513227650465946,0,-2,-3,-1,0,0,0,-1
1513227650467932,-2,-2,1,-2,-1,-1,1,-2
1513227650467932,-2,0,0,-2,-1,-1,-1,-1
1513227650488444,0,0,-2,0,-1,0,0,-1
1513227650488444,-1,2,-1,-1,-2,-1,-2,-2
1513227650490445,0,-1,0,-3,-1,0,-3,-1
1513227650490445,-1,0,-1,1,-1,0,-1,-3
1513227650510964,-3,-2,-1,-2,-1,0,0,-1
1513227650510964,-1,-2,-1,-1,-1,-1,-2,-1
1513227650512981,-1,0,-1,0,0,-2,-2,1
1513227650512981,-2,-3,-1,-2,-1,-2,-2,-1
1513227650525983,0,-3,-1,-3,-4,0,0,0
1513227650525983,1,-2,-3,-3,0,0,0,-3
1513227650527973,1,-3,-2,0,0,-1,0,0
1513227650527973,-2,-2,-2,-1,-1,-2,-1,-1
1513227650548498,-1,0,-2,0,0,-2,-1,-2
1513227650548498,-3,1,-1,0,-1,-1,-1,-1
1513227650550500,-2,0,0,-2,-2,-2,-1,-2
1513227650550500,-1,0,-2,0,-1,-1,-1,-1
1513227650571001,0,0,1,-2,-1,-1,-1,-1
1513227650571001,-1,-2,-2,-3,-1,-1,0,0
1513227650572502,-2,1,-3,-2,1,-3,1,-1
1513227650572502,-1,-1,-1,-1,-1,0,-1,-2
1513227650585522,-2,-1,0,-2,0,-1,-1,0
1513227650585522,0,0,0,-1,-2,-1,-2,-1
1513227650592517,1,-1,-2,0,-1,-1,-1,0
1513227650592517,-3,-3,-1,-1,-1,-2,-2,0
1513227650609039,0,-1,0,0,-2,-1,-1,0
1513227650609039,-3,-5,-3,-2,0,-1,-1,0
1513227650611046,-2,-1,-2,0,-1,-1,0,-1
1513227650611046,0,0,-1,-2,0,1,-1,0
1513227650631096,-2,0,0,0,-1,0,-1,0
1513227650631096,0,0,-1,0,-1,-2,0,0
1513227650632586,-2,-2,0,-1,0,-1,1,-2
1513227650632586,-1,1,-1,-1,-1,-1,0,0
1513227650645606,1,0,-2,0,-1,-2,-2,-1
1513227650645606,-1,-1,0,-1,-2,0,-2,0
1513227650652103,-1,-1,0,-1,1,0,0,0
1513227650652103,0,-1,-1,-1,-2,-2,-1,0
1513227650668645,-2,-2,-2,-2,-2,-2,-2,1
1513227650668645,-1,0,0,0,-1,-2,-1,-1
1513227650670112,0,0,-1,0,-1,-1,-2,-1
1513227650670112,-1,1,-1,-2,0,-2,0,-2
1513227650691137,-2,0,1,0,-1,-1,-1,-3
1513227650691137,-2,0,-1,-1,0,-1,-1,-1
1513227650692639,0,-3,-2,-1,0,0,-1,0
1513227650692639,-5,-2,-1,-1,0,0,0,1
1513227650705663,-1,0,-1,-1,-2,-3,-3,0
1513227650705663,1,0,-2,-1,-1,1,-1,-1
1513227650712141,0,-2,-1,-2,-1,-3,-1,-1
1513227650712141,2,-1,0,-3,-1,-2,-1,-1
1513227650728653,-3,-1,0,-3,0,-3,0,-1
1513227650728653,-2,-2,-1,0,-2,-2,-2,1
1513227650730155,-4,-1,0,0,-1,-1,-1,-1
1513227650730155,-2,-1,-1,-1,-1,-1,-2,-2
1513227650751179,-1,1,-2,-1,-2,-2,1,-2
1513227650751179,-2,0,-1,-1,0,0,-1,0
1513227650752670,0,-2,-2,0,0,0,-2,1
1513227650752670,0,-3,0,-1,-1,0,0,1
1513227650765194,2,-2,-1,-2,1,-1,-1,0
1513227650765194,-1,-3,0,-1,-1,0,-1,-1
1513227650772185,0,-1,-1,-2,-2,-1,-1,-2
1513227650772185,0,-2,-1,0,-2,0,-1,-1
1513227650788705,-3,-4,0,0,0,0,-1,-3
1513227650788705,-2,0,-1,-1,-1,-1,-1,-1
1513227650790209,-1,-1,-4,-2,-3,0,-1,-2
1513227650790209,-7,-2,1,1,0,0,-1,-2
1513227650811227,2,0,-4,-3,-2,-1,0,1
1513227650811227,0,2,3,1,-1,-2,-2,-1
1513227650812713,-2,-1,-1,-1,-1,-2,0,-1
1513227650812713,1,-2,-1,2,-1,-2,-2,-2
1513227650825725,-1,-1,-3,0,-1,-1,-3,-2
1513227650825725,-2,-3,-1,-2,-2,-2,-3,-1
1513227650839743,2,-2,-2,-1,-2,-1,-2,-1
1513227650839743,-2,-3,-4,-4,-1,0,-1,-1
1513227650848761,0,0,-1,-2,0,-1,-1,0
1513227650848761,0,2,-2,-1,-2,-1,0,-2
1513227650850262,-2,-2,-1,0,-2,-2,-2,-1
1513227650850262,1,-2,-2,-1,-2,0,0,-3
1513227650871254,-3,-2,-1,-1,-2,0,-1,-1
1513227650871254,-3,-1,-3,-2,-1,-1,-3,-1
1513227650872755,-3,-6,-2,-1,-1,-2,-3,-2
1513227650872755,-2,4,0,-1,0,-5,-1,0
1513227650884808,2,-1,-1,0,-2,-1,-1,-1
1513227650884808,0,-1,0,1,0,-1,0,-1
1513227650893815,-1,0,1,-1,-2,-1,2,0
1513227650893815,0,-2,-1,-2,-1,0,-1,0
1513227650908813,-2,0,-1,1,-1,-1,0,0
1513227650908813,-3,-4,-4,-2,-2,0,-1,0
1513227650910315,-3,1,1,0,0,-1,-1,-3
1513227650910315,0,-2,-1,-1,-1,-1,-2,-1
1513227650938381,-2,-2,0,0,-1,-1,-1,-1
1513227650938381,0,-1,-2,0,-3,0,0,-1
1513227650940382,2,-2,-1,-2,-2,-2,-2,1
1513227650940382,1,0,-1,-2,-2,0,-1,-2
1513227650944885,-3,-2,0,-1,-1,-2,-1,1
1513227650944885,0,-2,-2,-3,1,-3,-2,1
1513227650953893,-2,0,-2,-1,-1,0,-2,-1
1513227650953893,-2,-1,-1,-1,-1,-2,-2,0
1513227650968405,-1,-3,0,-2,-1,1,-2,-3
1513227650968405,-1,-4,-1,-2,-1,0,-1,-1
1513227650970404,2,1,0,-1,1,0,-2,-1
1513227650970404,0,1,-1,-1,-2,-2,-2,-1
1513227650991418,-1,0,-1,-1,-2,0,-1,0
1513227650991418,0,-2,0,-2,1,-2,0,-1
1513227650992919,-3,-1,-1,0,-2,1,-1,0
1513227650992919,-1,0,-2,1,-3,-2,-1,-1
1513227651004928,-1,-3,-1,-1,0,-2,0,0
1513227651004928,0,-1,-1,-1,-1,0,-1,-2
1513227651013948,-2,-2,-1,-2,-2,-2,-1,0
1513227651013948,-1,0,-1,-2,-2,-1,0,-2
1513227651028445,-2,-5,-6,-2,-2,-3,-2,-1
1513227651028445,-2,2,0,-1,-2,-1,0,-1
1513227651034949,-2,-1,-2,-1,-1,-1,-3,-1
1513227651034949,-2,-1,0,-2,0,-1,-1,0
1513227651051018,-5,0,2,2,0,-1,-3,-1
1513227651051018,-1,-1,-2,-2,-1,-1,0,-2
1513227651052963,-1,-1,-1,1,0,-1,0,-2
1513227651052963,-1,-3,-1,-1,-1,1,-2,-1
1513227651073500,3,0,0,0,0,1,0,0
1513227651073500,-2,-1,-1,0,0,0,-1,-2
1513227651075478,0,2,1,-1,1,1,-1,-1
1513227651075478,-2,-4,-3,-1,-1,1,0,0
1513227651088486,0,0,1,0,-1,-2,-1,-2
1513227651088486,-3,-1,1,2,0,-1,-2,0
1513227651089988,-2,-4,-6,-4,0,-3,0,-1
1513227651089988,1,5,4,2,0,1,0,1
1513227651110016,-2,-2,-2,-2,-2,0,-2,-2
1513227651110016,3,-1,0,-1,0,-2,-1,-1
1513227651118517,0,-2,-4,-3,-2,-2,-1,-2
1513227651118517,-2,-4,-5,-3,-3,-2,-1,-2
1513227651125014,-2,2,-1,-2,1,-1,0,0
1513227651125014,1,-1,0,0,0,-1,-1,0
1513227651134019,-2,-2,2,-1,0,-1,-2,-3
1513227651134019,1,-2,-2,0,-1,-2,0,-1
1513227651148529,-1,-4,-4,-1,-1,0,-1,-3
1513227651148529,-1,0,-3,-2,-2,0,-1,-2
1513227651150030,-2,-2,-1,1,-1,-1,-1,0
1513227651150030,-1,-1,-1,1,-1,-1,-1,-2
1513227651171045,0,-2,-1,-3,-1,-2,-1,-1
1513227651171045,-1,-3,-2,-1,0,-2,-2,1
1513227651172547,-2,-1,1,-1,-2,-1,0,0
1513227651172547,1,0,0,-2,1,-1,-3,-1
1513227651184554,-1,-2,0,1,-1,0,-1,-3
1513227651184554,-2,-2,-4,0,-3,-3,-3,-1
1513227651199635,3,0,-2,-3,0,-1,-1,1
1513227651199635,-1,-2,-2,-1,0,-1,0,-2
1513227651208621,0,0,-3,-3,0,-2,0,-1
1513227651208621,-2,0,-1,1,-2,-2,-2,-2
1513227651210122,-4,-1,0,-1,-2,-1,0,-3
1513227651210122,-3,1,-2,-4,-1,-2,-2,-1
1513227651231136,0,1,-4,0,-2,-1,-2,0
1513227651231136,0,-1,-1,-2,-1,-1,0,0
1513227651232638,-1,-3,-2,-2,-1,0,0,-1
1513227651232638,1,1,-1,0,0,-2,-1,-1
1513227651244648,-1,-2,0,-1,-2,-2,-1,0
1513227651244648,-2,-2,-1,-3,-2,0,0,0
1513227651253653,-1,2,-1,-1,-1,-1,-1,-1
1513227651253653,-1,-2,-1,-2,-1,0,0,-1
1513227651267687,2,-1,0,2,-1,1,-1,0
1513227651267687,-3,-1,1,-1,-1,1,0,-2
1513227651276168,0,-2,0,-1,0,0,0,-1
1513227651276168,-2,-2,-3,-1,-2,-3,-1,-2
1513227651290189,-5,-1,0,0,-1,0,-1,-2
1513227651290189,-3,-3,-1,0,-1,-1,0,-2
1513227651298687,0,-1,-2,-2,-3,-2,-2,-1
1513227651298687,-2,0,0,0,-2,-1,0,0
1513227651304688,0,-1,-1,-2,0,1,-2,-1
1513227651304688,0,1,-2,-1,1,-1,-1,-2
1513227651313695,-1,-1,-1,-1,-1,-3,-1,0
1513227651313695,-1,-1,0,-1,-1,-2,-2,0
1513227651328783,-1,0,-1,-1,-1,-2,0,0
1513227651328783,-1,-1,-1,-3,-2,1,-2,-1
1513227651330257,-1,0,-2,0,-1,-1,-2,-2
1513227651330257,-1,-2,-1,-3,-1,0,-2,1
1513227651351305,0,-2,-1,-1,-1,-2,-2,0
1513227651351305,-2,-1,-1,1,-2,0,0,-1
1513227651352787,-1,-1,0,0,-2,-1,0,0
1513227651352787,-1,-2,-1,-2,-1,-1,-1,-1
1513227651381794,-1,1,-1,0,-2,-1,-1,-1
1513227651381794,1,1,-1,-2,0,-1,-1,-1
1513227651383295,-5,1,0,-1,-2,0,-1,-2
1513227651383295,0,0,-1,0,-2,0,-1,-2
1513227651396309,0,1,3,0,-1,0,-1,0
1513227651396309,-1,-3,-3,-1,-2,-2,0,-2
1513227651397820,-4,-3,1,0,-1,0,2,-2
1513227651397820,0,-1,-1,-1,-1,-1,-2,-2
1513227651411318,-4,-1,-3,-2,-2,0,0,-3
1513227651411318,-1,1,-2,-1,0,-1,-1,0
1513227651412831,-1,1,-1,-1,-1,-2,-2,-2
1513227651412831,-3,0,0,-1,-1,-3,-1,-1
1513227651433851,0,0,0,-1,-2,-3,0,-1
1513227651433851,-1,-1,-2,-1,-1,-1,0,0
1513227651435346,0,-1,-1,0,-1,0,-1,0
1513227651435346,0,-1,0,1,0,-1,-2,1
1513227651448853,0,-2,-2,-1,0,-1,-1,-1
1513227651448853,0,-1,-1,0,1,-2,-2,-2
1513227651450346,1,0,-2,-2,-1,-1,-2,-2
1513227651450346,-2,-3,-1,-1,-2,0,1,-1
1513227651471357,2,-1,-2,-1,-1,0,-1,0
1513227651471357,0,-2,-1,-1,-1,-1,0,-1
1513227651472858,1,-2,-1,0,0,-1,-2,0
1513227651472858,0,-1,0,-2,-1,0,-1,-2
1513227651493387,-2,-2,-2,-2,-1,-1,-1,1
1513227651493387,2,-4,-3,-3,-1,-1,-1,-2
1513227651495387,-2,-1,1,-1,1,-1,-1,-3
1513227651495387,0,-1,-3,-2,-1,-1,-2,0
1513227651516390,-3,-1,-1,-2,-2,-2,-1,-3
1513227651516390,-3,-1,1,0,-2,-1,-2,-2
1513227651517893,-2,-1,-2,-2,-1,-1,-1,-1
1513227651517893,-2,-1,-1,0,0,-2,-1,-1
1513227651538906,-1,-1,-1,-1,-1,-1,-1,-1
1513227651538906,-3,0,0,-2,-2,-1,-1,0
1513227651540407,-2,-3,-2,-2,-2,-1,0,1
1513227651540407,-1,-4,0,1,0,0,-2,-2
1513227651553915,-1,0,-1,-2,0,1,-1,1
1513227651553915,0,-1,-2,-1,-1,-2,-1,-2
1513227651555417,-2,0,-2,0,-2,-3,0,-2
1513227651555417,0,-1,-1,-3,-2,0,-1,-1
1513227651567926,-1,-1,-2,-2,-1,-2,-1,1
1513227651567926,-1,0,2,-2,-1,-2,-1,-2
1513227651574941,1,-2,-1,-1,-1,0,-1,-3
1513227651574941,0,1,-2,1,-1,-1,-1,-2
1513227651598462,2,-2,-3,0,-2,-1,0,-2
1513227651598462,2,0,-2,-1,0,-1,-1,-1
1513227651600463,-2,-2,-1,-2,-2,-3,-1,-1
1513227651600463,-1,-1,-3,-3,-1,0,0,0
1513227651613480,-1,2,2,0,-1,-2,-2,-3
1513227651613480,-2,0,-3,0,-3,-1,-1,0
1513227651615459,0,-2,-1,-2,0,0,-1,-1
1513227651615459,0,-3,-1,-2,-1,-1,-2,0
1513227651627981,1,-3,-2,-1,-1,-2,-1,0
1513227651627981,-2,-3,-1,-1,0,-2,-1,0
1513227651634975,-1,1,0,-1,-2,1,-1,0
1513227651634975,-2,1,-1,0,-1,-2,-1,-1
1513227651658511,0,-1,-1,-1,0,-1,-1,-1
1513227651658511,-1,1,0,0,0,-1,0,0
1513227651660491,-2,-2,-4,-2,-1,-1,0,-2
1513227651660491,1,-1,-1,-3,0,-2,-2,0
1513227651673511,-2,-2,-1,-2,0,-2,-1,-1
1513227651673511,-2,-2,-3,-1,-2,0,-2,0
1513227651675502,2,1,-2,-3,-2,-2,-1,1
1513227651675502,-2,0,1,-1,-2,-1,-1,-2
1513227651688011,-2,-2,1,-2,-1,0,-1,-3
1513227651688011,-2,0,0,-2,-2,-1,0,-1
1513227651695016,0,0,-2,-1,1,-2,-1,0
1513227651695016,-2,-2,-1,0,-1,-2,0,0
1513227651711027,-2,-1,0,-2,-1,0,0,0
1513227651711027,-1,-3,0,-2,-2,0,0,0
1513227651713029,-1,-1,-1,1,-2,-1,-3,-2
1513227651713029,-1,0,0,-2,-2,-2,0,-3
1513227651732542,-2,-1,-1,0,-2,-2,-1,-1
1513227651732542,-2,-2,-1,-1,0,0,-2,-2
1513227651741047,-5,-2,0,-1,-1,-2,0,0
1513227651741047,-1,-1,-2,1,-1,-2,-1,-1
1513227651747562,0,-1,-2,-1,0,-2,-2,0
1513227651747562,0,1,-2,-2,-1,-2,-1,0
1513227651756059,-1,-1,-3,-1,-2,-1,0,-1
1513227651756059,3,-1,-3,-3,-1,0,-1,-2
1513227651771069,-1,-1,-3,-1,-3,0,-2,-1
1513227651771069,0,-3,-2,-1,0,-1,-2,-2
1513227651772569,0,0,0,-1,1,0,1,-3
1513227651772569,-2,-2,-1,0,-1,-1,0,1
1513227651793585,-1,-2,0,0,-1,0,0,0
1513227651793585,0,-1,0,-1,-2,0,-2,1
1513227651795086,1,-1,-3,-2,-3,-1,0,-1
1513227651795086,-1,-3,0,-2,1,-1,-1,-1
1513227651816125,-4,1,3,0,0,-1,0,-1
1513227651816125,-3,-1,-1,1,-3,-3,-1,-2
1513227651817602,0,-3,-1,1,0,1,-1,-1
1513227651817602,-1,0,0,-1,-1,-1,-3,0
1513227651831612,-2,-4,-3,-1,-1,0,-1,-1
1513227651831612,0,-1,-1,-2,-2,-2,-1,0
1513227651833113,-1,-2,1,0,-1,-1,-1,-1
1513227651833113,-2,1,-1,-2,-2,-1,0,-2
1513227651853628,0,1,-2,0,-1,-1,-2,-2
1513227651853628,-3,0,0,0,0,1,0,-2
1513227651855129,-1,-2,0,-2,-1,0,-2,-1
1513227651855129,-7,-3,0,0,-1,1,0,0
1513227651867140,0,0,-2,-3,-1,0,-1,-1
1513227651867140,-2,-2,-2,-2,0,0,0,0
1513227651876143,-2,0,-1,-1,-3,0,-1,0
1513227651876143,1,-2,-1,-1,-2,-1,-1,0
1513227651891155,-1,-1,0,-1,0,0,-1,-1
1513227651891155,0,-1,0,0,-3,-1,-2,-2
1513227651892655,-1,1,-2,1,-2,-3,-1,-2
1513227651892655,0,1,-1,-1,0,-1,-2,-2
1513227651914225,-1,-1,-2,-1,-1,-1,1,-1
1513227651914225,0,-2,-4,-3,-2,-1,-1,-2
1513227651915726,0,1,0,-2,-3,0,-1,-2
1513227651915726,-1,0,-2,0,-1,-2,-1,-1
1513227651936241,-2,-1,-3,-1,0,-2,-1,2
1513227651936241,-1,0,-2,0,1,-1,-1,0
1513227651937743,-2,-1,-1,-2,-1,-2,-3,1
1513227651937743,-2,-1,-1,-1,-3,-2,-2,0
1513227651950261,-1,-1,0,-2,-2,-1,0,0
1513227651950261,-1,-1,-3,-1,-1,0,-1,-1
1513227651966285,-1,-2,-2,-1,-1,-2,-2,-1
1513227651966285,0,-2,-2,-1,0,0,1,0
1513227651973770,0,-1,-1,0,1,0,0,-2
1513227651973770,-1,0,1,-1,-1,-2,1,-1
1513227651975283,-2,-1,-1,-2,-1,0,0,-2
1513227651975283,3,1,-2,-2,0,0,0,0
1513227651987277,-3,-2,0,0,-3,-3,-1,-1
1513227651987277,0,-2,-1,-1,-1,0,-1,0
1513227651996283,0,-2,0,0,-1,-2,-1,0
1513227651996283,-2,-1,-1,-2,-2,-2,-2,-1
1513227652010296,2,-1,0,-1,-2,0,-1,-2
1513227652010296,-3,0,-1,0,0,-2,-1,0
1513227652018811,-2,-1,-1,0,-1,-2,-1,0
1513227652018811,-3,-1,-1,-2,0,-2,1,-1
1513227652032391,-1,2,-2,-1,0,-2,-2,-1
1513227652032391,0,1,0,-2,-1,-2,-1,-1
1513227652041397,1,0,-2,-1,0,-2,0,-2
1513227652041397,-2,-2,0,0,-1,-2,0,-2
1513227652047404,0,-2,-3,-1,-2,-3,0,-1
1513227652047404,-1,-2,-3,-2,-1,0,-1,0
1513227652056407,-1,-2,-2,-2,0,-2,-1,-1
1513227652056407,-2,-1,-1,-1,-2,0,0,1
1513227652071419,0,-1,-1,-1,0,-1,-1,0
1513227652071419,0,-1,0,-2,-1,-2,0,-2
1513227652072919,-1,-1,-2,1,-1,0,-3,-1
1513227652072919,-1,-4,-2,0,-2,-1,-3,-1
1513227652093445,0,0,-2,-1,-3,-1,-3,0
1513227652093445,0,0,-1,-1,-2,-2,1,0
1513227652095435,-3,-1,-1,-1,-1,0,-1,-1
1513227652095435,0,0,-1,-1,1,-1,-1,-1
1513227652107944,-1,-1,-2,0,-1,-1,-1,-1
1513227652107944,-3,-2,-1,-1,-2,-1,-2,-2
1513227652116450,-1,0,0,-1,-2,0,-1,-2
1513227652116450,1,2,-1,-1,-2,-1,-1,-2
1513227652130970,-1,-1,-1,-2,-2,0,0,-1
1513227652130970,-3,-1,-2,-1,-1,-2,0,-2
1513227652132961,-3,-1,-1,-2,-1,-3,1,-1
1513227652132961,-1,-4,-1,1,-1,0,-1,-1
1513227652153487,-3,1,3,0,1,-1,-2,0
1513227652153487,-1,0,0,-1,-2,-1,-1,-2
1513227652154978,1,0,-3,-2,0,0,-2,0
1513227652154978,-1,2,-1,-1,-2,-1,-1,-2
1513227652167486,3,-1,-2,-2,-2,-2,-2,0
1513227652167486,1,-1,-4,-2,-1,0,-3,1
1513227652175992,0,-2,-1,-2,-2,-1,0,0
1513227652175992,-2,-1,0,-1,1,-1,1,-1
1513227652191503,-2,-3,-1,-1,-2,-1,-2,0
1513227652191503,-1,0,-1,-1,-1,-1,-2,0
1513227652193004,-1,-1,0,-1,-2,0,-3,0
1513227652193004,1,-1,-2,-2,-1,-1,-1,-1
1513227652214059,-2,-1,-3,-2,0,1,2,-4
1513227652214059,-2,-2,0,0,-1,-1,1,-1
1513227652215547,-4,-1,-1,-2,-2,-2,-1,-3
1513227652215547,-3,-4,0,-3,-1,-3,-2,0
1513227652227575,-1,0,-1,0,0,-1,-2,1
1513227652227575,-1,-2,-2,0,-3,-1,-3,-1
1513227652236065,-1,-2,-3,-1,0,-1,0,-3
1513227652236065,-3,1,0,-2,-1,-1,-2,-1
1513227652250585,0,-1,-1,-1,-1,-2,0,0
1513227652250585,-6,-2,1,-2,0,-1,1,-2
1513227652257089,-1,0,-1,0,0,-2,-3,0
1513227652257089,-2,-2,-3,0,-3,-2,0,-1
1513227652273589,-2,-1,-2,-2,-3,-1,-2,-1
1513227652273589,1,-1,-1,0,0,-1,-1,0
1513227652275090,0,-3,-1,-2,0,-1,0,0
1513227652275090,1,-3,-2,-1,-2,-1,-1,0
1513227652296107,0,-3,-2,1,-1,-1,-3,-1
1513227652296107,-2,-2,-1,-3,0,-1,-3,-1
1513227652297605,-1,0,-4,0,-1,-1,-1,-2
1513227652297605,-1,1,-2,-1,-2,0,-3,0
1513227652310134,0,0,-2,-1,0,-1,-1,-1
1513227652310134,-1,0,-1,-2,-2,0,-1,-2
1513227652318672,-2,-3,-2,-1,-2,-1,-1,-1
1513227652318672,-1,-1,-1,-1,-1,-1,-1,-2
1513227652333682,-1,-1,-2,-1,-1,-1,0,-2
1513227652333682,0,-1,-2,0,0,-1,0,1
1513227652335184,0,0,1,-1,-2,-2,-1,0
1513227652335184,-1,-2,-3,-1,0,-1,-1,0
1513227652356211,-2,-1,-1,-1,-2,0,-1,-1
1513227652356211,-3,-1,-1,0,-2,0,0,-1
1513227652357713,0,0,-1,-3,-3,-2,-2,0
1513227652357713,-1,-1,-1,-2,-1,0,-1,-1
1513227652371222,-1,0,0,0,-1,-3,-2,1
1513227652371222,1,-1,-2,-1,-1,-2,-1,-1
1513227652372720,1,-2,-2,-2,1,-1,-1,0
1513227652372720,0,-1,0,-1,-1,1,0,0
1513227652393727,1,-3,-1,-2,-1,-3,0,-4
1513227652393727,0,-2,-3,-2,-1,-1,0,0
1513227652395226,-2,-2,0,-1,-2,-2,0,-1
1513227652395226,-2,-1,-1,-1,-1,0,-1,-1
1513227652415240,-3,-3,-1,-1,-1,-1,1,0
1513227652415240,-1,-2,-1,0,-1,-2,-1,-1
1513227652416241,-2,0,0,-2,-1,0,-1,-1
1513227652416241,-2,0,-1,0,-2,-2,-3,-1
1513227652430250,-2,1,-1,-1,-2,-2,0,-1
1513227652430250,0,0,-2,-1,-1,-2,0,0
1513227652431251,0,0,-2,-1,-1,0,0,-1
1513227652431251,-2,-1,-1,-2,0,-1,1,0
1513227652452782,0,-2,-1,-2,-1,-1,-1,0
1513227652452782,-2,-1,-1,-2,-2,-1,-3,-2
1513227652453767,0,-1,-1,-1,0,0,0,0
1513227652453767,0,-2,0,1,-1,0,-2,-2
1513227652475282,0,-1,0,1,0,0,-2,-1
1513227652475282,-1,-2,-1,-2,-2,-1,-1,0
1513227652476283,0,1,1,-1,0,-1,0,0
1513227652476283,-1,1,-1,-1,0,-2,1,-2
1513227652491793,-2,0,0,-1,-3,0,-1,0
1513227652491793,-4,0,0,1,0,1,-2,-2
1513227652492809,-2,-3,-2,-1,-2,-1,0,-2
1513227652492809,-1,-2,-1,-2,-2,-1,-1,0
1513227652512811,-1,0,-2,-3,-1,0,-1,-2
1513227652512811,-1,-2,-1,0,0,-1,0,0
1513227652513810,0,-4,-2,0,0,-1,-3,-2
1513227652513810,-2,-2,-2,-2,0,-1,-1,-1
1513227652543830,-1,-2,-1,0,-1,-1,-1,0
1513227652543830,-3,-2,-2,-1,-1,-1,-1,0
1513227652544330,-1,-2,-1,-3,-1,-3,-2,-1
1513227652544330,0,-2,-1,-2,-1,-2,-1,-1
1513227652549853,-1,-2,-1,-2,-1,1,-1,-1
1513227652549853,0,0,-1,0,-1,0,0,-1
1513227652557852,0,-1,-1,-1,-1,-1,-2,-2
1513227652557852,0,1,-2,0,-2,-2,-2,0
1513227652581357,-6,-1,1,-2,-2,-1,0,0
1513227652581357,0,-1,-2,-4,-2,-2,-2,-3
1513227652581857,0,-2,-3,-1,-2,-1,0,0
1513227652581857,-1,0,-2,0,-2,-1,0,-1
1513227652595394,-1,-2,-2,0,-1,0,-2,-1
1513227652595394,-1,2,2,0,1,-1,0,0
1513227652595868,-2,-1,-1,0,1,-1,-1,-1
1513227652595868,1,-3,0,-1,-1,-1,-2,-1
1513227652610380,-2,1,0,-2,0,-2,0,-2
1513227652610380,0,0,-1,-1,-1,0,-1,-1
1513227652610878,-2,-2,-2,-1,0,-1,-2,-1
1513227652610878,-2,0,0,0,0,0,-2,-2
1513227652632929,0,0,-1,-2,-1,-3,-2,0
1513227652632929,0,-4,-3,-1,-2,-1,-2,0
1513227652633914,-4,-2,-1,-1,-3,-2,-2,-2
1513227652633914,-1,-2,-1,-2,-1,-1,-1,-1
1513227652654934,2,0,-2,0,-2,-2,-1,-1
1513227652654934,0,-1,0,-3,-2,-2,0,0
1513227652662933,0,-1,0,-2,-1,1,-1,-2
1513227652662933,-2,-1,-1,-2,-1,-2,-1,-1
1513227652670439,-1,-1,0,0,0,0,-2,0
1513227652670439,-2,-2,-2,-2,0,-3,0,-1
1513227652671436,0,-1,-2,-2,0,-1,-1,-2
1513227652671436,0,1,-1,-1,-1,-1,-1,-1
1513227652692952,-1,-1,0,0,-1,-2,0,1
1513227652692952,-4,-2,0,-1,-1,0,0,-1
1513227652693453,-1,-2,-1,-1,-1,0,0,-1
1513227652693453,0,0,2,1,-1,-1,-1,-1
1513227652715527,0,0,-3,-2,-2,-1,0,-3
1513227652715527,0,-3,-2,-2,-1,-1,0,-3
1513227652716027,-1,0,-2,-2,-1,-2,-2,-1
1513227652716027,-3,-1,0,-3,1,-1,-4,0
1513227652730538,0,-1,-2,0,-1,1,-1,-2
1513227652730538,-3,0,0,-2,-1,-2,-1,1
1513227652731039,-1,-1,-1,0,-1,0,0,0
1513227652731039,-2,-4,-2,-2,-2,0,-2,-2
1513227652753054,0,-1,-1,-1,0,-1,-2,-2
1513227652753054,-5,-4,0,-1,0,-1,-1,-4
1513227652753559,-2,-1,0,0,-2,0,-2,0
1513227652753559,-2,-1,0,-2,-2,0,-1,-2
1513227652775570,-2,-1,-1,-2,-2,-3,0,0
1513227652775570,0,-3,-4,1,-1,0,-2,-1
1513227652776070,-3,-1,-1,-1,0,-1,-2,-2
1513227652776070,0,-1,-3,-2,-1,-1,0,0
1513227652791095,0,0,-1,-1,-3,-2,-2,-3
1513227652791095,1,-2,-3,-2,-2,-1,-1,-3
1513227652797586,-1,1,0,-1,-1,-2,0,-2
1513227652797586,-2,0,0,0,-1,-2,-1,-2
1513227652813097,0,-1,-2,-2,-1,-1,-2,1
1513227652813097,-1,-1,-1,-2,-1,-1,-3,0
1513227652813597,-1,0,-1,-1,-2,-1,-1,0
1513227652813597,1,-1,-1,0,-1,1,0,1
1513227652835155,3,0,-3,0,-1,1,0,0
1513227652835155,0,0,-1,-2,-3,-1,-4,0
1513227652836144,-1,-1,-2,-1,-1,-1,-1,-1
1513227652836144,-1,0,-1,1,0,-1,0,-1
1513227652850176,-1,-2,-2,-2,0,0,-2,-1
1513227652850176,1,0,-1,-3,0,-1,0,1
1513227652851152,-1,-2,-1,0,0,0,-1,-2
1513227652851152,0,1,-3,-2,-2,-2,-1,-1
1513227652888681,-1,0,0,0,-1,0,0,-1
1513227652888681,-1,1,-1,0,-1,-2,-3,-2
1513227652889181,0,-1,-2,-1,-1,-1,0,0
1513227652889181,0,-2,-2,0,-1,-2,-2,-1
1513227652895184,-2,-2,0,-3,0,1,0,-1
1513227652895184,0,0,0,0,-1,0,0,-1
1513227652896185,0,0,-2,-1,0,-1,1,0
1513227652896185,0,-3,-2,-1,0,0,0,-3
1513227652909694,-1,1,-1,0,-1,-3,2,-1
1513227652909694,0,0,-1,-2,-1,-2,0,0
1513227652918220,-3,0,2,1,-1,-1,-1,-1
1513227652918220,1,1,-1,-4,0,-2,-3,2
1513227652932741,0,-1,-1,1,-1,-2,-2,-1
1513227652932741,-2,0,-2,-1,-1,-3,0,-1
1513227652933744,-1,-1,-2,-1,-2,0,0,-1
1513227652933744,-1,-3,0,-1,-1,0,0,-1
1513227652955746,0,-1,0,1,-1,1,0,0
1513227652955746,1,0,-1,0,2,0,0,-1
1513227652956747,1,0,-2,-1,0,-3,-1,1
1513227652956747,-3,-1,0,-2,-3,-1,1,-2
1513227652969755,-2,-1,-1,0,-1,-1,-3,-2
1513227652969755,-4,-2,0,0,-2,0,0,0
1513227652985281,-2,-1,-1,-3,1,0,-2,-1
1513227652985281,-2,0,0,1,-1,-1,-1,-1
1513227652992786,0,-2,-1,-2,-2,-1,-1,0
1513227652992786,-1,1,-3,-2,-1,-4,0,-1
1513227652993774,0,-1,0,-2,-1,-1,-1,-1
1513227652993774,-2,0,-1,0,0,-1,-2,0
1513227653015803,0,-1,-2,-1,-1,-1,-1,-1
1513227653015803,-1,-3,-1,-1,-2,0,-2,-1
1513227653022802,-3,-1,1,-1,-1,0,-1,-2
1513227653022802,1,0,-1,-2,-2,-2,-1,-2
1513227653029797,-2,-1,-1,-2,0,-1,0,0
1513227653029797,-2,0,0,-2,0,-2,0,-1
1513227653045320,-1,-2,-1,-2,-1,-1,-1,-2
1513227653045320,-2,-4,-2,-1,-1,-2,1,-2
1513227653052814,-3,-1,1,-1,0,-1,-2,-1
1513227653052814,0,-2,-3,-2,-1,-2,-1,0
1513227653053816,-1,0,-2,0,-2,-1,-2,-1
1513227653053816,-2,-1,0,-2,-2,-1,-2,0
1513227653075330,-2,-2,-2,-3,-3,-3,0,-3
1513227653075330,0,-2,0,-1,1,0,-1,0
1513227653076331,1,-1,-3,-1,-2,-2,-2,0
1513227653076331,0,1,-1,0,-1,0,-2,0
1513227653089839,-1,-1,0,-1,-2,-3,0,-1
1513227653089839,-1,-2,-1,-1,-1,0,-1,-2
1513227653097861,0,-3,-1,-2,0,-1,0,0
1513227653097861,-1,-1,-1,-1,0,-2,1,-2
1513227653112859,0,-2,-2,1,0,0,-1,0
1513227653112859,-1,-1,-2,-1,-2,-2,-1,-1
1513227653113357,-1,-3,-1,0,-1,-1,0,0
1513227653113357,0,-2,-2,-1,-2,-1,-1,-1
1513227653135412,0,0,1,-2,0,1,0,-1
1513227653135412,-3,1,1,2,-3,-1,-1,-1
1513227653136403,-1,0,-1,0,-2,-2,-3,-2
1513227653136403,-1,0,-1,0,0,-2,-1,-1
1513227653158389,-2,0,0,-2,-1,-4,-2,0
1513227653158389,1,-1,-2,0,0,0,-1,-2
1513227653158889,0,0,-1,0,-2,-1,0,0
1513227653158889,0,-1,-1,-1,0,0,-1,-2
1513227653172401,2,-3,-2,-2,0,0,-1,0
1513227653172401,-3,-1,-2,-1,0,1,0,-1
1513227653180404,-1,0,-2,-4,0,-1,-2,-1
1513227653180404,0,-2,-3,-2,-2,-1,-1,0
1513227653194960,-2,-3,0,-1,-1,0,1,-1
1513227653194960,-1,-3,-2,-1,-4,-3,-2,-1
1513227653202965,-1,-2,0,0,-1,1,0,-2
1513227653202965,-1,-2,-3,0,-1,0,-1,0
1513227653218498,-3,-1,1,0,-1,-1,-1,-1
1513227653218498,-1,1,-2,-2,-1,0,0,0
1513227653218990,-1,1,0,-2,-1,0,0,-2
1513227653218990,-1,0,0,1,-1,-1,-1,0
1513227653232998,-2,-1,-2,0,-1,-2,-2,-1
1513227653232998,-1,-1,-1,0,0,-2,-2,-1
1513227653233506,1,-1,-3,0,-3,-1,-2,-1
1513227653233506,-2,-3,0,-2,0,0,-2,-2
1513227653255514,-3,-2,-2,0,1,3,-1,-1
1513227653255514,-1,0,2,-1,1,0,-1,0
1513227653256003,-3,-2,-1,-1,-1,0,-3,-1
1513227653256003,-1,-3,-3,-4,-2,-3,-1,-2
1513227653278518,2,-3,-4,-2,-3,-1,-1,1
1513227653278518,-2,-2,-1,-3,-2,-1,0,-1
1513227653279520,0,0,1,-1,-1,-1,-1,0
1513227653279520,-1,0,-2,0,-2,0,0,-1
1513227653293052,0,1,-1,0,-1,0,-2,-2
1513227653293052,-1,-1,-1,0,0,1,-2,-2
1513227653293531,-2,-2,0,0,-1,0,-1,-1
1513227653293531,-2,-1,1,-1,-1,0,0,-1
1513227653331056,-2,-1,1,-2,-1,-1,0,-4
1513227653331056,-2,-1,-2,-2,-1,-1,0,-1
1513227653332057,-2,-2,-1,-1,0,-1,0,-1
1513227653332057,0,1,-1,0,-1,0,-1,0
1513227653338561,2,-1,-2,-1,-2,-1,0,-1
1513227653338561,-2,-1,0,-1,-1,0,-2,0
1513227653339561,0,0,-2,-1,-2,-1,-1,-1
1513227653339561,0,-1,-1,-2,1,-2,-1,-2
1513227653353071,-1,-1,0,-1,-1,-2,-3,0
1513227653353071,3,-1,-1,-1,-2,-2,-1,-1
1513227653353572,0,-1,-2,-1,-1,-2,-1,0
1513227653353572,-2,-1,-1,-2,-1,-2,-1,0
1513227653375601,-1,0,-1,0,-1,0,-1,-2
1513227653375601,-2,-1,-2,-1,0,-1,0,-2
1513227653376088,-3,-2,-1,-1,-1,-2,-1,-2
1513227653376088,-1,0,-2,0,0,-2,0,-1
1513227653398617,-2,-3,-2,-2,-1,-3,-2,-1
1513227653398617,1,-2,-1,0,-2,-3,-1,-1
1513227653399609,0,-1,-2,-1,-1,-1,0,-1
1513227653399609,0,-1,1,-1,-3,0,-1,0
1513227653413114,0,0,-3,-1,-3,-3,0,-2
1513227653413114,-1,-2,1,-1,-2,0,-2,-2
1513227653413615,-1,-1,1,-2,-1,-2,-2,-1
1513227653413615,-1,-1,0,0,-2,-1,-1,-2
1513227653435642,-3,0,2,-2,0,-1,0,-1
1513227653435642,-1,0,-1,-1,-2,-1,-1,-2
1513227653436142,-2,-2,-1,0,-1,-1,0,-1
1513227653436142,-2,-3,-2,-1,-2,-1,-1,-2
1513227653458673,-4,-4,2,1,0,0,-2,-2
1513227653458673,-2,-3,-1,-1,0,-1,-2,-2
1513227653459146,-2,-1,-1,-1,-1,0,-2,-1
1513227653459146,-2,-4,-2,0,-2,0,-1,0
1513227653472666,-1,-1,-2,-2,-1,-2,1,-2
1513227653472666,-1,-1,-2,-1,1,-3,-1,-2
1513227653473667,-1,0,-1,0,-1,-1,1,-2
1513227653473667,0,1,-2,-1,0,-1,-2,-1
1513227653495173,0,0,-2,-1,-1,0,-3,-1
1513227653495173,-1,-1,-1,-1,-1,-1,1,-1
1513227653496173,-2,0,-3,-2,-2,0,-1,-1
1513227653496173,-1,-2,-2,-1,1,-2,-1,-1
1513227653518691,-1,-2,0,0,0,1,-2,2
1513227653518691,1,-1,0,-1,1,0,-1,0
1513227653519189,1,-2,-2,-3,-2,-1,-2,-1
1513227653519189,0,-1,1,-3,-1,-1,0,-1
1513227653532700,-1,-1,-2,-1,-1,0,-1,-1
1513227653532700,0,-2,-2,1,-2,1,-1,-1
1513227653533703,-2,-1,1,-1,-2,-1,-1,-2
1513227653533703,-2,-1,0,0,-1,-1,0,-2
1513227653555225,1,1,0,-1,-1,-4,-3,-1
1513227653555225,1,0,-1,-2,-1,-2,-2,0
1513227653556226,0,-3,0,-1,-1,-2,0,-1
1513227653556226,-3,-2,1,-1,-2,-1,-2,-2
1513227653578746,-1,0,-1,-2,-2,-1,0,1
1513227653578746,-1,0,-1,-1,-2,-2,-2,-3
1513227653579231,-3,-2,-1,-1,-2,-2,-2,0
1513227653579231,-1,1,-1,0,0,0,0,1
1513227653601259,-3,-1,-2,-1,-2,-3,1,0
1513227653601259,-2,-2,-3,-2,-1,-1,-2,-1
1513227653601749,-1,-3,-1,-1,0,-3,-1,0
1513227653601749,-1,-2,1,-2,-1,-1,-1,-2
1513227653623773,1,-2,-1,0,-1,-1,-1,-3
1513227653623773,-4,-1,-2,-1,-2,-2,-2,-1
1513227653624264,0,1,0,1,-1,0,-1,-1
1513227653624264,0,-1,-1,-2,-1,-2,-1,-2
1513227653638774,-3,0,-2,0,-1,0,1,1
1513227653638774,-2,0,1,-1,-2,-1,-1,0
1513227653639275,-1,-2,-2,-2,-2,-1,0,0
1513227653639275,-4,-1,0,-1,-1,-1,-1,-1
1513227653652794,0,-1,-1,-2,-4,-2,-2,0
1513227653652794,0,-1,-1,-1,0,-1,-1,-3
1513227653653787,0,0,-2,-2,-2,0,-2,0
1513227653653787,0,-1,-1,0,-2,-1,-1,1
1513227653675310,2,-2,-4,0,0,-3,-1,-2
1513227653675310,-4,0,0,-1,-1,0,1,0
1513227653682819,-2,0,-1,0,-1,1,-1,-1
1513227653682819,0,1,-3,-1,-2,0,-1,-1
1513227653698327,-2,-1,-3,-1,-1,-1,-1,0
1513227653698327,0,-3,-1,1,-1,-1,-1,-2
1513227653699318,0,-2,-1,-1,0,0,-2,-1
1513227653699318,-1,-1,-1,-1,0,-1,-2,-1
1513227653712829,-2,0,1,-2,-2,-1,0,-1
1513227653712829,0,-2,-1,-2,1,-2,-1,-1
1513227653713827,-1,-2,-1,-3,-1,-2,-2,-1
1513227653713827,0,-2,-1,0,-2,-1,0,-1
1513227653735356,-1,-2,-2,-1,0,-1,-1,1
1513227653735356,-1,-3,-1,1,-1,-3,0,-1
1513227653736357,0,0,-1,-1,-1,-2,0,-2
1513227653736357,2,-2,-1,-3,-1,-2,-1,-2
1513227653758359,-4,-1,0,-1,-1,1,0,-2
1513227653758359,-2,-1,-2,-3,-2,1,-2,1
1513227653759360,-2,-1,-1,0,0,-2,0,-1
1513227653759360,-3,0,-1,-1,-2,0,-1,-1
1513227653773371,1,0,-2,-3,-1,-2,-2,-2
1513227653773371,-2,0,-1,-2,-1,-3,-1,-1
1513227653774369,0,-2,-2,-2,-1,-1,-1,-1
1513227653774369,-2,1,-1,-2,0,-1,-2,0
1513227653795387,-1,0,1,0,0,0,-1,-3
1513227653795387,0,-1,-2,-2,-1,-1,-1,0
1513227653795884,-1,0,-1,1,0,-2,0,-2
1513227653795884,0,-2,-2,-1,-2,-3,1,0
1513227653818400,-2,-3,0,-2,-1,0,-2,1
1513227653818400,-1,-1,-1,-1,-2,0,-2,1
1513227653819401,-1,-1,0,-2,-1,0,0,-1
1513227653819401,-1,-2,-1,-2,-1,-1,-2,-1
1513227653831910,-1,-1,0,-1,-1,-2,-2,-3
1513227653831910,0,-1,-1,-2,-1,-1,-2,0
1513227653840446,-1,-1,-1,-3,-2,-1,0,0
1513227653840446,-1,-2,-2,-2,0,0,0,-1
1513227653854944,0,-1,0,-3,-1,-1,1,0
1513227653854944,-3,0,-3,-2,-2,0,1,-1
1513227653862950,2,-1,-2,-2,-4,0,-2,-1
1513227653862950,-4,-2,-1,2,-2,-1,-1,-1
1513227653878964,-1,-4,-1,-3,-3,0,-3,-1
1513227653878964,0,-2,-1,-1,-1,-2,0,-1
1513227653879962,-2,-1,-1,-2,0,-2,-1,-1
1513227653879962,2,1,-1,-1,0,-2,-1,-1
1513227653892471,1,1,0,-2,0,1,1,-1
1513227653892471,-1,-1,2,0,-1,-1,0,-1
1513227653900479,-1,-2,-3,-2,1,-1,-2,-1
1513227653900479,-1,-1,-1,-1,-2,-1,0,0
1513227653915487,-3,-2,-1,0,1,-1,-2,-2
1513227653915487,-2,-2,-1,-1,-1,0,-1,0
1513227653915987,-2,1,2,-1,0,0,0,-2
1513227653915987,2,0,-1,0,1,-1,-2,-2
1513227653938503,-1,-3,-1,0,0,-1,1,-1
1513227653938503,0,0,-2,-1,-2,-2,-1,-4
1513227653939516,-1,-1,-2,1,-1,-3,-2,-1
1513227653939516,-2,-2,0,0,-1,0,-2,1
1513227653952016,-2,1,1,-2,-4,-2,-1,-1
1513227653952016,-1,-1,-1,-1,-1,-1,0,-2
1513227653960544,1,-3,-1,0,-2,-2,0,-1
1513227653960544,1,0,-3,-1,-1,0,0,-1
1513227653975559,0,-2,-3,0,-2,-3,-1,0
1513227653975559,-1,0,-1,-1,-2,0,-3,-1
1513227653976060,1,0,-1,-3,-1,0,-1,-1
1513227653976060,-1,-2,-2,-2,0,-2,-1,0
1513227653999099,-1,-1,-3,-1,-2,0,-2,-1
1513227653999099,-4,-2,2,-1,-1,-3,0,1
1513227653999576,-1,0,-2,0,-1,-1,-2,-1
1513227653999576,-1,-1,1,-2,-3,-2,-3,-1
1513227654012088,-1,0,-2,-1,-1,-1,-1,-3
1513227654012088,-1,-1,-1,-1,-1,-1,-1,-1
1513227654020591,-1,-1,0,-1,1,-1,0,0
1513227654020591,-2,-3,-1,-1,-1,0,0,-3
1513227654035101,-2,-1,0,-1,0,-1,-3,-2
1513227654035101,0,-2,-2,-3,0,-2,-1,-1
1513227654036102,-1,-2,-1,-3,-1,-1,-1,-1
1513227654036102,0,-2,-4,0,-2,-2,-1,-4
1513227654058618,0,0,-2,0,0,0,-2,0
1513227654058618,-1,0,-1,0,-1,-1,0,-1
1513227654059119,-3,-1,-1,-1,-1,-2,0,0
1513227654059119,-1,-1,-2,0,1,-1,-1,0
1513227654072128,-3,-2,-1,-1,-1,-2,-1,0
1513227654072128,-1,0,1,-2,-2,-1,-2,-2
1513227654080174,-1,-2,-1,-1,-3,-1,-2,0
1513227654080174,-1,-1,0,-1,-1,0,0,1
1513227654095176,-1,0,-1,0,-2,-1,1,-1
1513227654095176,0,-1,-2,-3,0,-2,0,-1
1513227654096176,-3,-1,1,-1,-1,-3,-1,-2
1513227654096176,1,0,-3,-1,-2,0,-2,-1
1513227654118692,-1,-1,0,-2,1,0,-1,0
1513227654118692,1,-2,-2,-2,-2,0,-1,0
1513227654119193,-1,-2,0,-1,-2,-1,-2,-3
1513227654119193,-1,-1,-1,0,-2,-2,-3,-1
1513227654132202,2,-2,-2,-1,0,1,0,0
1513227654132202,-2,-1,-2,-1,-1,-2,-1,-1
1513227654140275,1,-1,-1,-1,1,-3,-2,1
1513227654140275,-1,1,0,0,-2,-1,0,-1
1513227654155787,1,-1,0,-1,-2,-1,-2,-2
1513227654155787,-3,-2,-2,0,-1,0,-2,-2
1513227654156779,-2,-1,-2,-1,0,1,0,-2
1513227654156779,-2,1,0,-1,-2,-1,-1,0
1513227654178308,-2,1,-3,0,-2,-2,0,-1
1513227654178308,-1,-1,0,-1,-1,-1,-1,-2
1513227654179303,-1,0,1,-1,-1,-2,-1,0
1513227654179303,-2,-1,1,-2,0,-1,-1,0
1513227654200809,0,-2,-1,-2,2,-1,1,-1
1513227654200809,-1,0,-1,-1,0,-1,-1,0
1513227654201810,-1,-3,-2,-1,-1,0,-2,-2
1513227654201810,-1,-1,-1,0,0,-2,-3,0
1513227654215342,4,-1,-4,-2,-3,-2,-2,-1
1513227654215342,2,-1,-3,0,0,-2,-1,-2
1513227654216322,0,-1,-2,0,-2,0,-1,-1
1513227654216322,-2,-1,-2,0,-1,-2,-1,0
1513227654238335,-4,-1,-1,-1,-2,-1,-1,-1
1513227654238335,0,-2,-1,0,0,0,0,-1
1513227654239336,1,0,-1,0,-2,0,-1,-1
1513227654239336,0,1,-1,-1,0,-2,-1,-1
1513227654260852,-2,-1,-1,0,-1,-2,-1,0
1513227654260852,-1,-1,0,-1,-2,-1,1,-1
1513227654261855,-2,-1,0,-1,0,0,-2,1
1513227654261855,0,-1,-1,-1,-1,0,-1,-1
1513227654275448,-1,0,-1,0,0,0,-1,0
1513227654275448,1,-4,-1,-2,-2,-2,0,0
1513227654275947,-1,-1,-2,-1,-2,-2,-2,-2
1513227654275947,1,-3,-3,-3,-1,-2,-1,-2
1513227654298464,-1,-1,0,0,-1,1,-1,-2
1513227654298464,-2,-1,-1,-2,0,-1,-2,-2
1513227654299465,1,0,-1,0,-2,0,-2,-1
1513227654299465,-5,-2,0,0,0,1,1,-1
1513227654320978,-3,-1,-2,-2,-1,-1,-1,0
1513227654320978,-1,1,1,-1,-1,1,-3,1
1513227654321979,1,0,-2,0,-1,-3,0,-1
1513227654321979,1,-2,-2,-1,0,0,-1,0
1513227654335489,0,-3,-3,-1,-3,-2,-2,0
1513227654335489,-3,-2,-1,-1,-1,-1,-1,-2
1513227654335990,0,-1,-2,-1,-1,-1,-1,-3
1513227654335990,-1,-2,0,-2,-2,0,-1,0
1513227654358504,-3,-1,-1,-2,-1,0,-1,-2
1513227654358504,0,-1,-3,0,-1,-1,-1,1
1513227654359005,-2,-2,-1,-1,-3,-1,1,0
1513227654359005,0,0,-1,-1,0,-1,0,-2
1513227654381020,0,0,0,-2,0,-1,1,-1
1513227654381020,0,-1,-1,-2,-1,-1,-3,-3
1513227654381521,-2,-2,-1,0,-1,-2,-3,0
1513227654381521,-1,-1,-1,0,-1,-1,-1,-1
1513227654395533,0,-3,-2,-1,-3,0,-2,-1
1513227654395533,-1,0,0,-1,-2,-1,-1,-1
1513227654396030,-1,0,-1,-1,-1,-1,-1,-1
1513227654396030,1,-4,-1,-1,-1,0,-2,0
1513227654418549,-5,-1,1,1,-1,-2,0,-1
1513227654418549,-3,-1,-2,-1,-2,-2,0,-1
1513227654419047,-3,-1,-1,-1,-1,-1,-1,-2
1513227654419047,-1,0,0,-2,0,-1,-1,-1
1513227654449071,0,-2,-2,0,-2,-2,-1,0
1513227654449071,1,-3,-3,-2,-1,-2,0,-1
1513227654449571,-1,-2,-2,-2,-1,-3,1,-1
1513227654449571,-2,-1,-1,-1,-2,-1,-1,-2
1513227654455573,-1,-3,-1,0,0,-1,-2,-1
1513227654455573,-1,-1,-1,-3,-2,-3,0,3
1513227654456072,-1,-1,-3,0,-1,-3,0,0
1513227654456072,2,-1,-2,-1,-2,-2,0,0
1513227654478614,-2,-1,-1,-3,-1,-2,-1,0
1513227654478614,-2,-2,-3,0,-1,-2,0,-3
1513227654479112,-1,0,-1,-1,-1,0,-1,-2
1513227654479112,-1,-1,-1,-1,-2,-2,-1,-1
1513227654501130,-1,0,-1,-3,-1,0,-2,-2
1513227654501130,-1,-1,0,0,0,-1,-1,-2
1513227654501627,0,0,0,-1,0,-1,-1,0
1513227654501627,-3,-2,-1,-1,0,0,0,0
1513227654515168,-2,-1,0,-2,-1,-3,0,-2
1513227654515168,-1,-1,0,-1,-1,1,-2,-1
1513227654516138,0,-2,0,-1,-1,-1,0,-1
1513227654516138,-1,0,-1,-2,-2,-1,0,0
1513227654538686,-1,0,-3,0,0,-2,-1,-1
1513227654538686,0,-1,-3,-3,-2,-1,-1,-1
1513227654540187,-3,-1,1,0,0,0,0,0
1513227654540187,0,1,-1,-1,-1,0,-2,-2
1513227654561217,0,-1,0,-1,-2,1,-2,-3
1513227654561217,-4,0,-2,1,-1,1,-1,-3
1513227654567209,-1,-2,-1,-2,-1,-1,-2,-2
1513227654567209,-2,-2,-2,-1,-1,-3,-1,-2
1513227654574715,0,-2,-2,-2,-2,-1,1,-1
1513227654574715,0,-4,-1,-2,0,-2,0,-1
1513227654583719,-4,-1,0,-1,-1,-4,-2,-1
1513227654583719,-2,1,1,-2,-2,0,-2,-2
1513227654598731,-1,-1,-3,1,-1,-1,-3,-1
1513227654598731,-6,-2,2,0,0,-1,0,0
1513227654600254,2,-3,-2,-2,0,1,1,0
1513227654600254,-1,0,-1,-1,-1,-2,0,-2
1513227654621251,-1,-1,0,-2,-1,-1,0,0
1513227654621251,0,-1,-1,0,-1,-1,-1,-2
1513227654622746,5,0,-1,-1,-1,0,-2,-2
1513227654622746,-2,6,2,-1,1,-1,-1,-1
1513227654634766,-1,2,-1,-1,-1,1,2,4
1513227654634766,23,-3,-5,-3,-4,-4,-6,-6
1513227654643761,-7,-7,-3,-3,-1,-2,-3,0
1513227654643761,4,-6,-2,-1,-1,-2,-1,-2
1513227654658783,-4,-7,-1,-2,-1,-1,2,1
1513227654658783,-5,5,2,1,0,0,2,4
1513227654660284,7,9,0,0,-1,0,-2,-1
1513227654660284,2,-1,-1,1,-1,-1,-3,0
1513227654680787,-6,-2,1,-1,-1,-2,-2,-1
1513227654680787,-4,-1,-1,-1,0,2,0,0
1513227654682788,10,2,1,0,-1,-1,0,-1
1513227654682788,-6,-3,-5,-3,-1,0,-1,-2
1513227654694826,5,-2,2,0,1,-2,0,0
1513227654694826,-5,-1,-1,-1,-1,-1,0,-1
1513227654709819,-11,-4,-1,1,0,-2,-1,-2
1513227654709819,-2,0,0,2,0,0,1,3
1513227654725822,1,-1,-6,-7,-3,0,-3,-5
1513227654725822,1,2,-5,-1,-2,-1,-1,2
1513227654727821,1,-2,3,0,0,-1,1,-1
1513227654727821,-2,1,5,2,0,0,0,-1
1513227654740851,-4,-4,-6,-1,-3,-1,-1,-1
1513227654740851,-2,3,2,-4,0,-2,1,1
1513227654742853,-5,-5,-7,-3,-3,-2,-2,-1
1513227654742853,2,-6,3,3,-2,-1,0,-2
1513227654754862,-5,2,-4,-3,-3,-3,-4,-6
1513227654754862,-6,-11,-11,-7,-4,-2,-3,-2
1513227654763868,14,6,-1,-6,0,-1,3,5
1513227654763868,3,1,0,2,0,-1,0,-3
1513227654778357,0,2,-3,0,0,-2,-5,-4
1513227654778357,-3,-2,1,2,-2,-1,-3,0
1513227654780358,3,0,-1,2,-2,-2,-3,-2
1513227654780358,0,5,-1,-2,0,-2,1,6
1513227654800872,-16,-10,5,5,-1,-2,-4,-8
1513227654800872,3,3,-2,1,0,-3,-1,-1
1513227654802873,-10,-8,-6,-6,-1,-1,-2,1
1513227654802873,-3,-1,-2,-3,-1,0,-2,0
1513227654814392,-21,-3,7,0,-1,-1,-1,-4
1513227654814392,1,-1,5,4,-1,1,-1,0
1513227654823887,-8,-5,-1,1,-1,-1,0,-1
1513227654823887,-4,-3,-9,-4,-2,-2,0,0
1513227654838408,6,-2,-1,1,1,0,-3,-3
1513227654838408,0,5,2,-3,0,0,-1,-3
1513227654839909,14,4,1,0,-2,0,0,0
1513227654839909,-10,-15,-2,-3,-1,-4,-3,-4
1513227654860914,20,6,-1,0,0,2,4,6
1513227654860914,-15,-5,-3,0,-2,-1,-2,-4
1513227654862416,-1,1,-2,0,-1,-1,-1,-1
1513227654862416,0,-5,0,0,-2,-1,1,1
1513227654874926,-6,1,-1,-1,-1,0,2,1
1513227654874926,-4,-1,0,-1,1,-1,-3,-3
1513227654889435,-25,-9,-3,-2,-2,-3,-2,-7
1513227654889435,12,5,0,0,-1,0,-2,0
1513227654898441,-6,-2,-1,-1,-1,-2,3,5
1513227654898441,4,0,-1,-1,-1,-1,0,0
1513227654899943,3,5,3,3,-1,0,-7,-3
1513227654899943,-14,-6,-3,-4,-2,-1,-2,-8
1513227654920957,4,9,0,-1,1,2,2,3
1513227654920957,8,-7,0,-1,2,1,3,8
1513227654922458,-5,-2,1,-2,-1,0,1,-1
1513227654922458,8,-1,-6,-2,0,-1,-1,4
1513227654934466,-3,-2,-5,-2,-2,-2,-5,-9
1513227654934466,-5,3,-3,-2,-2,-1,0,0
1513227654943472,-5,-7,6,2,2,1,-2,-2
1513227654943472,2,-2,-4,0,-2,-1,2,3
1513227654958484,4,-2,-5,-6,-2,-2,-1,-1
1513227654958484,5,3,-3,-1,-1,-2,-3,-3
1513227654959984,-11,-5,-6,-4,-3,-1,0,-6
1513227654959984,1,7,3,2,0,0,0,-2
1513227654988504,-3,-13,-4,0,-3,-2,0,-2
1513227654988504,1,-3,-4,-4,-3,-1,-14,-4
1513227654990005,14,4,1,2,0,1,2,7
1513227654990005,-2,-5,-4,-5,-4,-2,-5,-4
1513227654994508,0,7,0,1,-2,-2,0,2
1513227654994508,1,-5,-2,-4,-1,-1,2,-4
1513227655003515,-3,-3,0,-1,-4,-2,-6,-1
1513227655003515,-5,3,1,1,1,0,1,1
1513227655018528,5,-1,-6,-2,-3,-2,-1,1
1513227655018528,-6,-2,2,4,-2,-1,5,4
1513227655020028,-4,-1,-8,-10,-1,-2,-1,-3
1513227655020028,3,6,2,0,0,0,-1,-3
1513227655041041,5,-9,0,-2,0,-2,-4,3
1513227655041041,-2,5,3,4,0,1,2,0
1513227655042543,-6,-7,-1,3,0,-3,-2,-4
1513227655042543,-3,1,-8,-13,-3,-1,2,1
1513227655054550,11,11,3,-1,0,-1,-2,-2
1513227655054550,-8,-21,-8,-4,-2,-4,-7,-8
1513227655063558,0,3,5,6,1,2,6,5
1513227655063558,-5,-8,-4,1,-1,-3,2,-5
1513227655078568,-1,5,3,-1,-1,3,-1,6
1513227655078568,2,8,-5,-5,-3,-1,-1,-1
1513227655080069,-6,-1,4,0,0,-4,-2,-2
1513227655080069,-11,-9,-4,2,-1,-2,11,5
1513227655101100,-5,-4,-9,-5,0,-2,3,-3
1513227655101100,-8,-6,-1,-1,-1,-2,-25,-16
1513227655102616,16,7,-4,-3,-3,0,4,10
1513227655102616,-7,1,4,4,1,1,-7,-4
1513227655122599,4,-7,1,4,1,-1,0,-5
1513227655122599,6,0,1,-1,-2,-2,12,12
1513227655140680,-6,-4,-3,-1,-2,-3,-4,-5
1513227655140680,-3,1,2,-1,-1,1,1,4
1513227655141673,-3,-1,-1,0,-1,0,5,-1
1513227655141673,-5,-1,0,-3,-2,-2,-3,-5
1513227655144678,-2,-9,0,-3,0,0,-4,-1
1513227655144678,7,4,-5,-2,-1,-3,-4,-2
1513227655161190,-5,1,3,-3,-1,-2,5,3
1513227655161190,-8,3,7,1,0,0,4,-2
1513227655162679,8,5,-4,0,-1,1,2,-1
1513227655162679,-4,-5,10,4,1,-1,-8,-7
1513227655183694,-3,-2,-3,2,-1,-1,-4,-2
1513227655183694,0,-1,-1,-3,0,0,6,4
1513227655185195,-4,-2,-9,-3,-2,-1,-1,-2
1513227655185195,12,0,0,-2,-1,0,0,1
1513227655198704,3,-2,-8,-1,-2,-3,-3,5
1513227655198704,0,1,10,1,0,0,6,-1
1513227655200205,-5,-1,-10,-1,-1,0,11,-13
1513227655200205,3,8,23,4,1,-2,1,-1
1513227655220219,-5,-10,-16,-5,-1,-2,-26,-12
1513227655220219,-2,0,-5,-2,-1,-2,-2,1
1513227655228725,0,5,3,-3,-2,-1,-3,-6
1513227655228725,-3,-4,-3,4,0,2,6,2
1513227655242735,8,2,-2,-17,-3,0,9,7
1513227655242735,-2,-11,-6,-2,1,0,-3,-6
1513227655251263,-1,-3,9,2,0,0,-8,-1
1513227655251263,1,-1,-1,-2,-1,-2,7,-6
1513227655257745,-12,4,3,3,-3,-1,-1,-1
1513227655257745,5,2,1,1,0,-2,-6,0
1513227655264775,-3,0,-8,-2,-1,-2,6,8
1513227655264775,2,-1,0,-4,0,-1,-5,-8
1513227655280762,-18,-5,11,-1,0,-2,-10,-1
1513227655280762,-4,14,0,-1,-3,0,13,5
1513227655282763,8,1,-8,1,-1,-2,-8,-1
1513227655282763,-8,-11,-3,-7,-3,-3,-19,-2
1513227655303278,14,6,-1,6,1,-1,4,-6
1513227655303278,1,2,-5,-4,-4,-1,5,2
1513227655305290,-3,3,8,0,-2,-4,-4,5
1513227655305290,7,2,-9,0,-2,1,0,-2
1513227655317803,10,-2,7,2,2,-1,1,10
1513227655317803,-27,-5,8,1,1,2,11,1
1513227655325296,5,-7,-11,-3,-1,-2,-2,-2
1513227655325296,-13,-4,-10,-4,-6,-4,-7,-2
1513227655340305,8,-8,-7,-8,-2,1,5,-2
1513227655340305,4,5,18,11,1,1,-4,-2
1513227655348811,-16,-10,-23,-21,-4,-3,19,1
1513227655348811,-8,-9,8,2,-1,-4,-15,-7
1513227655363322,-5,-3,-11,-1,-2,0,14,3
1513227655363322,6,4,10,0,0,1,26,17
1513227655365323,-5,-1,-2,1,-4,-5,-59,-30
1513227655365323,7,0,-2,3,2,0,-6,-2
1513227655385836,-11,23,21,0,-1,0,1,-11
1513227655385836,6,-43,-30,2,1,1,11,10
1513227655387855,-8,-6,4,2,0,1,28,10
1513227655387855,-13,23,5,0,1,0,-43,-28
1513227655400370,12,29,8,-1,-5,-7,4,31
1513227655400370,11,-8,-16,-7,-4,-2,-28,-28
1513227655408852,-20,-7,-3,8,0,3,36,34
1513227655408852,6,1,13,-8,-1,-2,-8,-2
1513227655423363,-6,-38,-6,9,4,2,-36,-9
1513227655423363,-14,44,26,-8,-4,-5,-16,-23
1513227655425865,-2,-10,-22,-11,-3,-1,-7,-7
1513227655425865,-5,-8,-30,-7,-3,1,38,20
1513227655445878,-1,8,23,7,1,1,22,25
1513227655445878,-10,-37,-35,-9,-3,-9,-42,-40
1513227655447379,10,13,22,7,3,2,-1,1
1513227655447379,1,14,14,5,0,0,8,22
1513227655460919,-5,-16,-19,-4,-5,-1,1,-11
1513227655460919,-1,8,7,1,1,1,7,10
1513227655462392,0,12,6,1,-1,-7,-8,-19
1513227655462392,-6,3,-11,0,3,7,33,44
1513227655483472,5,-24,1,-6,-4,-6,-9,-51
1513227655483472,-12,1,-1,-1,1,2,-17,6
1513227655484960,10,31,0,6,2,1,-12,-5
1513227655484960,-15,-29,-14,-14,-6,-8,17,6
1513227655497968,-11,-2,0,-2,0,-2,-26,-31
1513227655497968,-15,0,-20,-6,-2,-2,6,4
1513227655504476,48,9,11,-3,-2,-2,-14,-1
1513227655504476,-19,-32,-15,1,-2,-2,11,-1
1513227655520988,7,17,12,14,1,1,0,-4
1513227655520988,2,-6,0,-6,0,2,36,25
1513227655522486,-11,-1,28,4,0,-1,-7,4
1513227655522486,7,21,-33,-1,-6,-7,-41,-36
1513227655543545,-4,-6,23,-2,-2,-2,7,21
1513227655543545,-1,5,5,20,8,7,4,1
1513227655545046,-13,-34,-13,-25,-10,-7,9,10
1513227655545046,4,15,-3,4,2,5,38,-8
1513227655558068,-3,1,-1,-5,2,-7,-82,-20
1513227655558068,1,-10,-5,8,-1,0,-5,1
1513227655564581,-24,27,27,-9,-4,-2,-3,-14
1513227655564581,-12,-34,-46,-18,-9,-3,-5,-7
1513227655583591,-3,33,52,10,1,2,28,38
1513227655583591,16,-21,-17,-7,-5,-5,-10,-26
1513227655585084,15,-20,-51,3,-1,0,8,-2
1513227655585084,3,47,34,-17,-1,-3,2,4
1513227655604089,9,-15,-19,4,1,5,15,-2
1513227655604089,15,6,28,-7,-7,-5,-2,7
1513227655609612,-3,-35,-20,7,5,5,20,2
1513227655609612,1,7,29,14,-1,0,-12,-10
1513227655618110,-20,30,-2,-12,-9,-5,31,22
1513227655618110,10,19,-3,1,3,2,-20,-19
1513227655625606,-11,-9,-9,6,3,1,1,11
1513227655625606,31,-43,-23,-1,0,-1,-3,-2
1513227655641115,8,6,-7,11,1,2,24,-12
1513227655641115,3,-12,-22,0,1,-2,-19,2
1513227655642616,-8,23,2,-16,-7,-3,-4,17
1513227655642616,-4,-12,27,3,1,-7,-20,-22
1513227655663645,10,8,12,12,5,9,15,11
1513227655663645,6,-14,-41,-13,-4,-2,33,15
1513227655665132,-1,29,41,-3,-1,-3,-20,11
1513227655665132,-10,-6,-34,-1,-2,-1,-17,-33
1513227655677154,-4,-27,2,6,1,-2,-12,-6
1513227655677154,-4,52,42,2,0,0,12,1
1513227655686160,-28,6,-5,12,3,3,-6,-5
1513227655686160,15,21,33,13,3,4,14,16
1513227655701160,-2,-41,-33,-12,-4,-3,-9,15
1513227655701160,-31,-21,16,-4,-2,-5,0,-13
1513227655702658,17,4,18,-9,-7,-6,10,-4
1513227655702658,-20,-26,-2,-1,3,1,4,22
1513227655723673,32,-2,-21,6,3,3,14,-13
1513227655723673,-5,26,0,-1,-11,-13,-69,4
1513227655726191,2,-10,10,-19,-3,0,-26,-33
1513227655726191,-10,-2,-48,-3,0,-1,21,15
1513227655737196,0,-53,-9,-26,-9,-6,-20,0
1513227655737196,9,50,23,3,-4,-2,16,-18
1513227655746199,2,-9,-11,8,-1,-1,10,6
1513227655746199,21,21,15,1,-3,1,9,18
1513227655761212,-22,44,70,6,4,2,8,15
1513227655761212,-17,-30,-51,-13,-3,-4,-25,-20
1513227655762701,22,-5,25,20,9,8,9,2
1513227655762701,1,14,5,-22,-3,0,-37,-12
1513227655783716,-9,10,-40,-2,2,2,1,-10
1513227655783716,12,-16,12,12,4,3,25,32
1513227655785217,11,42,24,-9,1,2,22,26
1513227655785217,19,-19,-7,3,-5,-9,-43,-23
1513227655797238,-10,15,-23,-14,-6,-5,-28,-22
1513227655797238,10,0,10,14,6,8,26,21
1513227655806231,-4,19,-24,-2,-3,-7,14,22
1513227655806231,4,-6,-59,-21,-6,6,6,-35
1513227655821742,-22,-20,-11,1,2,-3,34,-2
1513227655821742,0,-25,2,4,4,1,1,1
1513227655823262,-4,19,28,19,5,4,16,-1
1513227655823262,4,-22,-5,-16,-6,-5,12,9
1513227655843758,-8,-11,22,13,5,-9,-52,-24
1513227655843758,5,6,42,-7,-1,16,64,17
1513227655845259,-27,8,-92,3,-2,-9,-79,-52
1513227655845259,15,28,77,16,4,4,12,14
1513227655857267,8,-72,-115,-22,-6,-7,3,4
1513227655857267,13,24,27,9,3,-4,-11,-17
1513227655866293,14,-48,-6,4,1,3,-13,-21
1513227655866293,14,9,29,8,2,2,22,19
1513227655880784,11,52,43,0,-2,1,30,30
1513227655880784,-28,-16,-62,4,2,0,-56,-24
1513227655882785,20,-13,27,9,1,1,36,20
1513227655882785,5,86,94,12,6,-2,-42,-23
1513227655903317,-15,-68,-78,-33,-15,-2,15,-11
1513227655903317,-9,-5,0,-4,-4,-9,2,8
1513227655905326,-20,-33,20,-10,-5,-2,4,10
1513227655905326,-4,-34,-25,19,8,5,4,11
1513227655917320,7,66,96,9,0,-1,-19,-10
1513227655917320,-8,8,-59,-37,-10,-5,-9,-15
1513227655926318,1,-42,-5,3,-4,-10,-11,-11
1513227655926318,-9,15,16,8,1,1,14,11
1513227655940827,17,33,-23,5,3,7,25,-12
1513227655940827,16,-76,3,6,0,-1,0,15
1513227655942828,3,27,5,-6,0,4,-5,-1
1513227655942828,-16,5,-24,-5,-5,-2,15,-5
1513227655963345,14,62,55,19,3,-1,-15,11
1513227655963345,20,-33,-4,-26,-4,-5,-21,-34
1513227655965343,-26,10,1,-14,-2,4,23,1
1513227655965343,-18,-39,-9,-14,-11,-10,-22,-15
1513227655977352,-16,-40,-42,-8,-11,-8,0,6
1513227655977352,59,127,82,8,5,8,18,49
1513227655985858,-35,-38,13,1,1,2,-7,-18
1513227655985858,7,-6,-34,-12,-7,-7,-25,-10
1513227656000872,-11,13,0,7,6,1,4,-1
1513227656000872,-13,25,29,11,9,5,16,8
1513227656002369,1,-52,-23,-1,-4,-8,-19,-38
1513227656002369,-7,-3,4,8,6,6,22,23
1513227656023394,-2,-4,24,11,1,3,-7,-19
1513227656023394,-25,-38,-43,-22,-5,-2,15,22
1513227656024886,4,60,-4,4,3,3,-17,1
1513227656024886,4,-17,-13,5,-2,-5,4,-3
1513227656036909,-9,53,59,-5,3,6,-2,-8
1513227656036909,-2,-34,-26,10,-3,-4,-7,-11
1513227656045901,-7,-30,-17,-13,-9,-7,19,21
1513227656045901,-14,33,68,24,8,3,-45,-30
1513227656060911,0,-33,-53,-45,-12,-4,12,16
1513227656060911,-7,52,1,4,0,0,29,8
1513227656062412,22,12,36,12,4,-3,-28,-11
1513227656062412,-16,-33,-15,-6,-5,-4,7,21
1513227656083427,27,-53,-64,10,1,-3,8,19
1513227656083427,-27,2,21,-13,-6,-3,-51,-39
1513227656084928,6,47,-36,-4,-2,3,38,34
1513227656084928,9,-16,-6,-17,0,-3,-14,-24
1513227656105953,-11,-15,10,7,0,1,-6,7
1513227656105953,-14,-12,-10,1,-3,-3,1,8
1513227656111957,4,13,-9,-18,-9,-6,9,4
1513227656111957,-7,3,-38,6,0,6,-1,-11
1513227656120997,0,29,5,0,4,3,26,6
1513227656120997,-17,-34,-3,2,-3,-4,-29,-40
1513227656122489,24,25,16,-19,-4,0,18,19
1513227656122489,-26,-43,-40,-7,-2,2,30,11
1513227656143564,22,31,20,-6,-7,-12,-43,-42
1513227656143564,8,17,-2,-13,-3,-4,8,9
1513227656145054,-7,54,7,4,2,4,0,16
1513227656145054,8,-62,-16,-8,-1,-3,-1,19
1513227656166078,-22,35,19,10,0,2,27,13
1513227656166078,3,-21,15,-15,-6,-5,-11,-10
1513227656167579,-9,-50,-71,-15,-7,-3,-1,-16
1513227656167579,-7,83,91,11,4,1,6,17
1513227656181594,-5,-83,-37,15,3,-2,-19,-4
1513227656181594,20,-2,-15,7,-1,1,46,44
1513227656183580,-21,-9,23,0,0,-7,-67,-60
1513227656183580,9,-36,-34,-1,-4,-2,3,-13
1513227656203605,12,16,1,-15,-6,-4,-1,-5
1513227656203605,-23,-10,-13,13,3,2,-2,-16
1513227656205095,-1,-21,4,-10,2,6,29,67
1513227656205095,3,25,-23,6,-6,-11,-12,-27
1513227656225625,-14,24,44,-8,1,3,-6,-24
1513227656225625,25,2,-17,3,1,1,7,24
1513227656232124,-18,-25,-44,1,-3,1,17,-10
1513227656232124,4,20,29,6,3,0,-25,-9
1513227656240130,1,-40,-9,8,2,-5,-1,10
1513227656240130,-14,-51,-28,-6,-5,-2,-12,-10
1513227656247135,1,10,35,-2,-2,-2,7,3
1513227656247135,24,46,-24,-14,-3,-1,11,11
1513227656263650,-19,-27,38,9,5,3,-7,-15
1513227656263650,-8,4,-61,-1,-2,-6,2,-2
1513227656265138,26,-10,-28,-10,-1,-2,-3,-2
1513227656265138,-14,-50,3,3,-2,2,-3,-15
1513227656286152,7,54,-17,-22,-7,1,2,15
1513227656286152,-18,5,48,14,6,-1,17,-35
1513227656287657,4,5,6,12,1,2,0,-2
1513227656287657,0,-15,3,-5,-3,-4,-18,1
1513227656300162,-1,-16,-31,2,2,-1,-3,-3
1513227656300162,-7,1,37,-11,-3,-1,13,6
1513227656307167,-21,3,-11,-1,-3,-8,-8,-3
1513227656307167,-25,-49,-33,-9,-2,2,53,38
1513227656323678,6,-10,1,7,-3,-5,-31,-39
1513227656323678,32,36,-25,-10,-2,1,-11,8
1513227656326180,-7,-48,12,43,18,6,2,-39
1513227656326180,14,26,12,-17,-7,2,8,20
1513227656346194,-1,2,-35,-17,-7,-1,13,3
1513227656346194,-2,-15,51,25,8,-3,-47,8
1513227656347712,5,13,1,-3,-4,-2,-20,-19
1513227656347712,16,10,-33,-7,-3,-2,3,5
1513227656360226,-3,-3,31,29,7,4,3,10
1513227656360226,-6,5,-33,-30,-10,-10,-4,0
1513227656374733,36,-5,62,19,6,7,-9,5
1513227656374733,-21,-15,-14,-28,-11,-6,-9,-16
1513227656383221,-8,-16,-11,-6,-2,-5,-9,0
1513227656383221,-3,-16,19,18,5,4,4,2
1513227656389726,-26,20,8,0,-3,-2,16,21
1513227656389726,14,20,13,4,3,-1,-9,-3
1513227656405236,4,-23,45,28,12,7,1,3
1513227656405236,-19,21,-62,-45,-19,-7,-4,1
1513227656413769,-12,-26,-11,12,4,6,26,-1
1513227656413769,14,15,24,-2,2,1,3,-1
1513227656420256,-18,-62,-24,-16,-8,-6,-10,-12
1513227656420256,8,50,36,19,6,4,14,20
1513227656427255,-7,-30,-65,-27,-12,-11,-25,-19
1513227656427255,-23,-24,-20,15,5,3,23,34
1513227656443263,29,15,-5,-24,-12,-6,0,7
1513227656443263,-1,21,2,7,1,2,13,-19
1513227656445265,13,-20,18,14,1,-1,-1,7
1513227656445265,-30,-32,-2,-13,-2,-2,-8,-12
1513227656465782,-9,63,-15,-2,-2,-1,14,38
1513227656465782,0,9,42,28,6,4,-24,-32
1513227656467780,22,4,19,6,6,5,4,11
1513227656467780,-14,46,-35,-10,-11,-14,-25,-32
1513227656480289,-8,-7,5,4,3,7,32,26
1513227656480289,29,-23,-18,8,1,1,-20,-2
1513227656487294,-12,51,21,-24,-5,-2,-2,8
1513227656487294,28,-46,10,10,2,1,-9,-26
1513227656503324,7,-19,9,3,4,0,7,19
1513227656503324,-18,-51,-12,8,5,2,-10,-35
1513227656505308,-21,-27,-3,5,-2,-2,-17,10
1513227656505308,-10,28,-16,-15,-7,-6,34,-26
1513227656525833,34,-8,-1,-24,-5,-3,-38,-17
1513227656525833,-6,-17,-13,5,-4,-4,-1,19
1513227656527823,1,45,-5,-26,-11,-9,-20,-42
1513227656527823,0,17,46,-1,3,4,14,19
1513227656540344,-18,45,-6,5,-2,-4,0,-13
1513227656540344,16,32,72,-7,-3,-2,2,-10
1513227656554352,15,-10,-66,-10,-4,0,-7,10
1513227656554352,-5,8,42,18,4,3,15,15
1513227656563351,-13,-6,-40,-24,-6,-5,-12,-23
1513227656563351,35,-6,23,-2,1,6,23,39
1513227656564850,-21,28,34,13,2,-3,-9,-37
1513227656564850,13,-39,-15,6,0,2,-3,2
1513227656585866,10,12,3,19,6,-4,-40,4
1513227656585866,-28,-49,-29,12,0,0,22,18
1513227656587866,7,-50,-5,-21,-5,0,7,6
1513227656587866,-2,35,-24,-8,-4,-3,-19,-6
1513227656599455,-5,-1,-62,-5,-8,-7,-17,-7
1513227656599455,-12,-4,-36,-14,-7,-6,1,-8
1513227656608440,9,16,50,26,9,4,13,14
1513227656608440,-10,8,2,-4,-4,-1,-5,23
1513227656623465,-7,4,27,2,-1,2,17,-44
1513227656623465,-6,-22,-14,2,-2,-5,-45,-19
1513227656624952,-4,13,-20,-25,-8,-5,-7,-12
1513227656624952,3,-1,36,16,8,2,18,6
1513227656653480,5,3,10,-15,-5,0,20,21
1513227656653480,-6,1,-16,13,6,0,-20,-19
1513227656654974,14,-13,-22,-12,-7,-5,3,9
1513227656654974,-4,23,3,4,-2,1,3,-20
1513227656659475,-7,13,38,16,6,3,9,-10
1513227656659475,-4,-26,-15,-22,-8,-7,4,-1
1513227656668482,-9,14,-27,2,-1,0,40,73
1513227656668482,14,2,15,9,9,2,-66,-40
1513227656683492,-7,-45,12,-6,-4,-4,-2,-8
1513227656683492,3,78,41,17,5,1,17,6
1513227656684993,7,-15,-37,-15,-4,-9,-30,-3
1513227656684993,3,-30,-19,-10,-3,3,16,8
1513227656706044,-6,-6,-6,10,3,5,0,3
1513227656706044,0,13,20,-19,-6,-6,-3,18
1513227656707546,16,33,55,20,6,2,3,-28
1513227656707546,-1,-14,-7,-4,0,-5,-18,37
1513227656719557,-21,-37,-14,-5,-2,7,-9,-57
1513227656719557,9,25,28,-21,-7,-3,33,15
1513227656734564,11,-37,-41,9,5,6,16,16
1513227656734564,-32,-2,3,-11,-8,-6,-9,-13
1513227656743571,7,23,13,16,-1,-3,3,22
1513227656743571,-2,-33,-37,7,7,2,-7,-9
1513227656745072,1,23,58,0,0,4,5,18
1513227656745072,-2,-33,-41,5,0,-4,12,-15
1513227656766087,-5,-34,-15,-4,1,-1,2,15
1513227656766087,11,8,-33,-5,-4,0,-1,-3
1513227656767588,-6,-20,0,6,1,-4,0,5
1513227656767588,9,45,57,18,7,7,35,52
1513227656779596,4,-21,-15,-14,-15,-17,-34,-24
1513227656779596,1,-2,9,5,4,6,16,12
1513227656788606,-19,9,6,1,-3,-2,-43,-37
1513227656788606,27,14,40,8,1,-1,9,6
1513227656803616,-23,-8,-62,-54,-12,-7,-9,4
1513227656803616,21,-15,25,12,4,-3,-9,0
1513227656805124,-9,-12,-48,-6,-4,-4,-7,-1
1513227656805124,-2,-15,17,12,2,1,-9,-30
1513227656826633,28,25,3,18,5,5,23,36
1513227656826633,-12,35,7,-15,-14,-11,-15,-26
1513227656828146,11,-19,13,-2,1,4,9,0
1513227656828146,-2,1,-3,3,2,-2,-10,-14
1513227656839638,-23,17,-5,4,-2,-4,-3,12
1513227656839638,-14,-31,-33,-13,-4,1,17,11
1513227656848662,-14,55,48,16,2,-2,-17,-15
1513227656848662,-10,-48,-41,-12,-6,-4,-12,-2
1513227656862671,16,23,62,14,9,3,-3,3
1513227656862671,-21,-27,-22,-12,-9,-4,6,10
1513227656871171,-11,10,-14,5,2,0,-19,-13
1513227656871171,-10,-34,-17,-28,-8,-4,8,16
1513227656886690,-3,10,15,32,12,7,-17,-24
1513227656886690,0,-26,-53,-16,-5,-1,-4,-18
1513227656888174,13,29,35,-6,-1,1,22,-2
1513227656888174,-11,-4,-11,-1,-7,-10,-25,-19
1513227656899693,4,-4,12,9,4,5,29,20
1513227656899693,2,31,44,-14,-2,-1,-20,-4
1513227656908688,-6,-43,-31,-4,-7,-4,12,2
1513227656908688,-6,18,4,24,12,7,-13,-23
1513227656922711,14,20,19,-8,-2,-3,17,6
1513227656922711,-17,-53,-37,-11,-11,-8,-3,1
1513227656931204,-14,-14,-17,-2,-4,-6,-15,-32
1513227656931204,11,40,4,-3,-2,0,1,21
1513227656946715,-5,-20,-51,-13,-7,-2,-9,-2
1513227656946715,29,-29,-1,-8,-1,-7,-12,-4
1513227656948217,2,19,49,14,6,3,10,24
1513227656948217,-14,-48,-74,-15,-3,-3,2,-17
1513227656959724,12,25,17,6,-2,1,-7,-3
1513227656959724,-3,35,43,9,8,6,0,-2
1513227656968768,19,-36,-39,-10,-7,-5,14,8
1513227656968768,-20,50,69,12,6,5,20,17
1513227656983278,1,-45,-66,-37,-11,-8,-16,-24
1513227656983278,-1,-10,28,25,8,2,-15,-5
1513227656989782,0,12,10,-13,-4,-6,-3,-11
1513227656989782,21,49,35,11,2,7,11,31
1513227657005793,-10,-28,-19,-5,-2,-4,20,21
1513227657005793,19,1,27,8,0,2,8,2
1513227657007808,-10,-3,-21,-3,-2,0,-1,-31
1513227657007808,-4,-19,-62,-22,-10,-10,-21,-11
1513227657028335,-11,30,55,10,2,2,9,19
1513227657028335,-15,-52,-22,2,4,0,-15,-29
1513227657030311,-12,22,6,2,5,7,36,46
1513227657030311,-5,-34,-13,-12,-6,-3,-15,-24
1513227657043321,-7,-18,-10,3,-1,-5,-33,-21
1513227657043321,-5,46,19,12,5,6,16,12
1513227657045323,-4,10,-41,-9,-8,-6,7,38
1513227657045323,-7,-20,16,-4,1,-1,-17,-32
1513227657065859,35,31,12,8,1,2,16,7
1513227657065859,-13,-56,-52,2,2,0,-7,-26
1513227657067847,-8,16,-5,-13,-5,-2,-4,22
1513227657067847,32,7,30,17,4,-2,-6,-29
1513227657088868,-7,-10,-15,-25,-10,-7,-2,-1
1513227657088868,5,14,-29,-10,-3,2,28,37
1513227657089865,-17,3,25,6,1,0,-20,-63
1513227657089865,-14,-34,8,6,0,1,30,36
1513227657103386,-16,18,16,3,4,2,-20,-28
1513227657103386,12,-6,22,11,-1,-4,-21,2
1513227657104864,13,-48,-35,-16,-1,-1,-15,-20
1513227657104864,20,25,-16,12,4,0,13,34
1513227657125895,-25,13,7,-17,-10,-7,-19,-42
1513227657125895,-23,0,-41,-4,2,2,14,8
1513227657127381,0,34,43,6,2,0,-5,-8
1513227657127381,-3,6,7,-8,-4,-3,1,5
1513227657148412,25,-21,-4,17,6,6,5,5
1513227657148412,-43,33,24,-4,2,1,16,-6
1513227657149898,24,-31,-26,9,6,4,-5,13
1513227657149898,1,49,-3,-12,-6,-3,1,-25
1513227657161907,-8,-20,-6,3,5,0,23,13
1513227657161907,14,10,29,1,-3,-2,3,-4
1513227657170956,-13,-22,47,18,4,-1,-46,-5
1513227657170956,10,7,-68,-22,-9,-6,-6,-6
1513227657185969,-5,-9,60,22,4,0,12,21
1513227657185969,9,-2,-53,-21,-8,-6,-11,-8
1513227657187470,-2,-1,-4,1,-2,-1,20,19
1513227657187470,4,-35,5,-7,0,0,-10,3
1513227657208483,-13,-9,-31,-1,-2,1,8,20
1513227657208483,15,38,19,14,5,0,-14,-29
1513227657209985,-18,30,12,-8,-9,-6,2,-4
1513227657209985,-12,24,4,-16,-4,-6,3,-5
1513227657223003,18,-29,-37,-10,-2,2,14,11
1513227657223003,34,-10,27,2,-2,-1,-9,-8
1513227657229498,-16,14,9,5,-1,-1,14,-5
1513227657229498,-3,-14,34,21,6,5,-21,-10
1513227657246009,17,38,-1,6,1,1,11,15
1513227657246009,-16,-53,-64,-3,-5,-3,-17,2
1513227657247511,22,24,24,-7,1,0,2,-7
1513227657247511,-9,-2,-18,-5,-5,-1,0,-6
1513227657268535,-10,7,6,9,2,-3,-2,13
1513227657268535,-16,-28,-8,-7,-2,-3,-14,-1
1513227657270027,8,6,-16,-5,0,1,4,-2
1513227657270027,-2,-2,-17,0,1,-2,-3,7
1513227657282536,-12,-2,14,0,-1,-2,-8,-8
1513227657282536,-7,4,6,4,-2,0,28,12
1513227657289541,-15,-31,-22,-5,-4,-3,-1,20
1513227657289541,0,21,13,-7,-3,-2,-12,-6
1513227657305053,15,-31,-5,-2,-1,-3,5,-22
1513227657305053,-28,-7,-3,2,3,4,-12,2
1513227657313562,21,30,47,-2,-3,-3,0,9
1513227657313562,-7,-13,-44,-7,-2,-1,3,7
1513227657328581,0,11,-10,2,4,4,19,-5
1513227657328581,11,-15,-30,-2,-5,-5,-2,3
1513227657330072,19,43,4,-9,-4,-2,4,-5
1513227657330072,-12,-2,35,12,4,1,-16,-3
1513227657342578,-12,26,-33,-29,-10,-5,-6,-6
1513227657342578,-1,20,23,14,4,3,11,-14
1513227657349596,-2,-37,15,11,4,1,-4,-13
1513227657349596,-4,-8,-11,-5,-7,-6,8,-1
1513227657366095,-17,22,19,7,6,5,8,35
1513227657366095,-8,5,17,1,0,-1,-5,3
1513227657367595,11,-31,-24,-3,-2,-2,10,6
1513227657367595,6,-18,20,11,2,1,-19,-2
1513227657388613,-6,-2,-5,-1,-1,-3,-18,-15
1513227657388613,6,15,5,-1,-1,0,3,11
1513227657390111,-27,-34,-29,2,-1,-1,4,-24
1513227657390111,14,27,3,-8,-5,-1,4,8
1513227657402646,17,11,12,8,0,-1,-3,-7
1513227657402646,-12,5,19,-17,-4,-4,-15,7
1513227657409649,24,-5,2,16,8,4,1,-4
1513227657409649,2,23,20,-2,-3,2,17,6
1513227657425159,-7,-8,-34,-14,-6,-3,-17,-8
1513227657425159,21,0,25,7,0,-2,-1,-16
1513227657433665,-16,-14,-4,-3,-5,-7,-23,-4
1513227657433665,-7,-12,-38,-2,1,2,6,12
1513227657448691,10,-10,36,12,0,2,23,19
1513227657448691,-5,29,4,0,1,1,-7,12
1513227657450195,-21,-25,-20,-9,-4,-3,-19,-18
1513227657450195,9,7,37,-5,-3,-3,-4,-13
1513227657462699,-10,-25,-47,-1,1,2,-6,-9
1513227657462699,-12,32,-6,-5,-6,-2,13,22
1513227657469704,8,41,29,5,2,2,-1,-4
1513227657469704,-19,-20,-15,1,-1,-2,10,9
1513227657494219,-10,-23,0,3,-4,-7,-23,-20
1513227657494219,26,9,25,-2,3,3,4,-8
1513227657495721,-14,-34,-53,-17,-7,-3,28,18
1513227657495721,1,-4,41,8,4,3,-21,-16
1513227657508729,-9,38,-6,0,-3,-3,19,-2
1513227657508729,-1,-6,25,-20,-6,-6,-14,-22
1513227657510242,-5,-9,6,3,1,2,2,8
1513227657510242,-10,-22,-35,-4,-1,-2,8,17
1513227657522288,13,-14,29,3,3,3,-3,-26
1513227657522288,6,3,-15,8,2,3,11,9
1513227657531281,7,10,11,0,0,0,-3,-2
1513227657531281,20,43,59,8,-1,-1,5,8
1513227657546295,-18,-23,-62,-25,-9,-5,-27,-1
1513227657546295,-8,-9,-11,5,3,0,23,43
1513227657548298,8,20,5,1,-1,0,-34,-47
1513227657548298,0,-44,-11,3,-1,-3,-17,-22
1513227657568329,18,49,41,-16,-5,0,19,40
1513227657568329,-6,-30,-44,-12,-7,-3,13,-9
1513227657570309,-3,-6,-8,3,2,-2,1,13
1513227657570309,-5,5,6,-3,-3,-4,2,-12
1513227657582317,7,4,19,7,1,1,-6,10
1513227657582317,-13,-51,-69,-23,-10,-7,-3,-17
1513227657591323,4,24,12,2,4,3,14,5
1513227657591323,3,-3,-17,1,-1,0,-5,-15
1513227657605834,-16,-7,-9,-6,-2,-3,0,-30
1513227657605834,5,30,57,22,8,5,4,1
1513227657607334,-8,-13,-2,-4,-4,-4,-30,-18
1513227657607334,11,12,28,12,7,7,20,38
1513227657628350,3,23,-21,-11,-2,-4,-7,-3
1513227657628350,0,-7,-16,11,2,-2,-18,-12
1513227657629851,20,-15,-31,-5,-1,-1,15,3
1513227657629851,-27,13,-8,5,-2,-1,15,1
1513227657642359,8,-2,23,-1,0,1,-27,-5
1513227657642359,17,-20,-16,-8,-5,-5,7,-1
1513227657650865,-13,-35,81,21,4,3,1,-2
1513227657650865,1,-14,-66,-21,-7,-7,-4,7
1513227657673392,1,2,-20,3,2,3,24,-11
1513227657673392,-11,-14,21,-2,-4,-10,-58,-18
1513227657674883,-6,11,-22,-9,-1,0,9,19
1513227657674883,9,-26,28,3,4,3,-11,-14
1513227657688408,-5,-18,-44,-2,-2,1,13,16
1513227657688408,-10,36,8,-2,0,-1,-8,-3
1513227657689906,24,-2,28,8,6,3,11,14
1513227657689906,-3,-3,-74,-17,-7,-9,-26,-35
1513227657702415,-22,18,20,9,4,0,-11,-4
1513227657702415,-4,-12,20,12,5,6,28,21
1513227657711409,-1,2,-43,-19,-10,-7,-11,-4
1513227657711409,12,10,15,5,2,1,9,14
1513227657726432,2,40,61,13,0,-3,-9,-5
1513227657726432,-21,-54,3,-18,-5,1,-9,-19
1513227657728421,-4,24,15,8,1,-1,16,6
1513227657728421,-10,-26,-8,2,-1,-1,-3,4
1513227657748457,-8,5,-6,-10,-6,-4,-8,-2
1513227657748457,4,27,23,10,5,3,4,-1
1513227657762956,-3,7,-1,-7,-3,-2,-3,-17
1513227657762956,5,33,30,0,-1,-1,6,26
1513227657763447,-3,-64,-28,-1,1,-1,0,-15
1513227657763447,2,-9,-18,-6,-2,0,3,9
1513227657778457,-6,0,21,-2,-1,1,9,10
1513227657778457,-2,-50,-56,-16,-5,-2,-24,-2
1513227657785972,10,29,-12,0,-2,-4,-23,-3
1513227657785972,12,8,22,2,-3,-2,2,5
1513227657787464,-1,8,9,10,1,0,13,20
1513227657787464,5,9,20,4,-2,0,-12,-16
1513227657808477,-16,0,22,-11,-5,-2,17,4
1513227657808477,-6,-2,-19,6,1,1,-13,-24
1513227657809979,-9,-12,-11,-4,-2,-2,-8,9
1513227657809979,-10,-1,-39,-8,-3,-1,33,14
1513227657830992,-8,-35,10,4,-2,-5,-4,-5
1513227657830992,-7,21,-17,3,-2,-4,5,-3
1513227657832494,-9,-22,-13,-25,-4,-1,-7,3
1513227657832494,-4,1,-4,-7,-2,-3,10,-9
1513227657846004,9,4,22,12,4,3,-10,-11
1513227657846004,4,5,-5,-10,-2,0,11,18
1513227657847506,13,1,-17,-2,-4,-4,-10,-18
1513227657847506,-6,26,16,11,4,3,-5,-13
1513227657868520,8,-4,13,0,-2,-1,9,15
1513227657868520,-27,11,-28,-11,-3,-1,-4,14
1513227657870022,14,32,20,12,0,-5,-8,-32
1513227657870022,-7,-54,-39,-12,-2,3,9,1
1513227657882029,-8,-31,6,2,0,-4,-16,7
1513227657882029,6,9,20,13,4,0,11,23
1513227657891035,-45,-10,-56,-17,-8,-5,-30,-31
1513227657891035,-1,-12,30,3,-1,-4,-13,-5
1513227657913563,10,-23,-34,-5,0,2,-9,-8
1513227657913563,4,-34,9,0,-1,-4,4,-3
1513227657915068,3,-3,-42,-4,1,2,4,12
1513227657915068,-10,32,41,2,-4,-5,5,-6
1513227657928061,2,2,-24,-9,-2,3,-1,3
1513227657928061,26,46,2,-9,-5,-4,-11,-17
1513227657944073,-4,-55,8,13,-1,0,9,7
1513227657944073,0,-6,20,-2,1,3,15,10
1513227657945073,-3,6,-27,-1,2,-1,-10,-14
1513227657945073,-4,-9,6,0,-2,1,13,-1
1513227657951078,18,7,23,6,6,2,4,12
1513227657951078,-8,-5,-60,-9,-3,0,-1,3
1513227657966124,-8,-11,26,6,2,-2,11,4
1513227657966124,-5,-13,-33,-5,-5,-2,4,0
1513227657967624,12,-4,-39,-9,-2,-3,-17,-4
1513227657967624,16,13,-4,3,-3,-2,-7,-18
1513227657988638,-9,41,38,-10,-2,-1,22,4
1513227657988638,2,-23,-10,-2,1,1,-9,-3
1513227657990139,-5,-1,31,5,2,4,17,5
1513227657990139,11,9,-1,-7,-7,-6,-13,-2
1513227658011231,-19,-7,-28,-5,-7,-5,4,-2
1513227658011231,12,23,32,10,4,1,4,4
1513227658012724,-13,-4,-7,2,-2,-2,-8,-9
1513227658012724,20,3,37,13,8,4,10,16
1513227658025809,-4,-35,-31,-10,-2,2,7,-5
1513227658025809,2,11,2,3,-3,-5,-30,6
1513227658027798,-3,20,3,-1,2,1,0,-18
1513227658027798,-6,-21,-5,3,3,-1,-6,3
1513227658048324,13,-15,-4,-3,3,3,9,12
1513227658048324,-12,-8,25,2,2,1,3,-8
1513227658050314,9,26,1,7,0,1,9,-1
1513227658050314,-31,-8,-16,-21,-6,-3,0,1
1513227658070828,-10,15,-17,-6,-5,-5,-17,-11
1513227658070828,12,0,26,6,1,-2,4,0
1513227658072830,-4,-7,16,1,0,-2,5,9
1513227658072830,29,-10,-3,5,0,-2,-1,2
1513227658084838,9,22,25,3,-6,-7,-8,4
1513227658084838,-3,-17,-15,-5,0,-1,-4,0
1513227658093344,-5,20,-34,-14,-7,-5,20,13
1513227658093344,6,-9,12,9,2,-1,-20,-5
1513227658108355,12,-12,8,1,2,-1,-19,-13
1513227658108355,-1,39,-18,-13,-8,-4,-5,3
1513227658109857,-12,13,39,12,3,3,15,9
1513227658109857,1,-7,-19,-16,-2,-1,1,10
1513227658130872,1,14,16,7,1,-1,-4,-12
1513227658130872,-3,13,10,2,-1,-1,0,-17
1513227658132372,1,9,1,-2,-2,-2,3,27
1513227658132372,-7,28,10,1,-3,-3,-13,-20
1513227658145399,-2,1,7,4,0,1,10,7
1513227658145399,-3,-18,0,1,2,3,7,-9
1513227658151904,-3,-15,-8,-4,-1,-1,-23,-8
1513227658151904,-4,40,36,2,-2,-2,9,-5
1513227658168409,-8,-39,-57,-9,-4,-2,-20,6
1513227658168409,0,-13,-4,-3,1,-3,-4,0
1513227658174412,-2,-14,-7,2,-2,0,-12,-9
1513227658174412,-18,-15,-20,-8,-3,2,15,6
1513227658189924,27,27,36,13,2,2,13,-1
1513227658189924,-21,-14,-14,6,0,1,4,-12
1513227658198418,-7,-21,-6,-27,-5,-3,-1,-3
1513227658198418,12,26,5,13,5,2,-11,-17
1513227658205423,-3,-7,34,-6,-5,-3,14,6
1513227658205423,9,-23,-60,4,2,1,-2,9
1513227658211928,13,1,12,18,4,1,0,1
1513227658211928,-25,-25,-51,-40,-14,-8,5,12
1513227658228470,20,10,27,11,7,2,-6,-4
1513227658228470,22,27,-22,-5,0,1,16,1
1513227658229971,-44,-30,-4,-3,-4,-6,-23,-2
1513227658229971,23,37,24,15,3,-1,-25,5
1513227658250986,-20,-48,-48,-14,-5,-3,1,17
1513227658250986,11,5,36,-1,-3,-4,-23,-42
1513227658252487,11,-14,-25,-8,1,1,-5,0
1513227658252487,-2,12,17,12,3,0,9,0
1513227658265510,-2,23,5,8,2,3,9,-5
1513227658265510,-18,-3,14,-5,3,3,-1,13
1513227658272512,5,-27,-10,-6,-6,-4,1,2
1513227658272512,4,9,23,8,2,-1,0,-1
1513227658288512,22,12,2,0,1,1,1,9
1513227658288512,-13,-1,10,8,1,-1,11,5
1513227658290014,-3,-35,0,-4,0,-3,-5,-14
1513227658290014,-13,-45,-12,-7,-4,0,23,18
1513227658318548,-10,-4,-14,-4,-3,-5,-27,-31
1513227658318548,-7,-13,12,3,-3,-6,-2,0
1513227658320035,14,19,7,-7,-3,-2,14,13
1513227658320035,0,39,7,7,3,-2,-21,-2
1513227658333556,-3,-14,-2,2,-4,-5,-23,0
1513227658333556,-22,-24,-20,-3,-2,-2,-10,-11
1513227658335057,2,78,45,-4,-2,-2,9,-13
1513227658335057,3,-3,-11,-7,-2,0,-2,5
1513227658348567,-5,-2,7,2,0,-2,5,5
1513227658348567,48,53,12,3,-1,-1,-18,-18
1513227658350056,-27,-26,-34,5,-1,0,3,12
1513227658350056,-4,-3,36,-3,-3,-6,-14,-20
1513227658371071,-5,0,-24,-9,-3,-1,2,-7
1513227658371071,5,-12,7,5,-1,3,24,11
1513227658372573,2,-26,-18,-2,-2,-4,-21,-5
1513227658372573,-9,15,2,-11,0,-1,-1,-22
1513227658385081,-8,-29,-34,-5,-1,0,10,8
1513227658385081,-6,-2,44,13,5,3,-8,-2
1513227658392085,22,15,-15,-2,2,3,26,29
1513227658392085,-14,-31,16,-3,-3,-2,-13,-21
1513227658409099,-6,-1,1,12,8,7,3,5
1513227658409099,-5,-7,-31,-17,-7,-4,1,7
1513227658410626,-15,-5,24,5,-2,-4,-18,-20
1513227658410626,13,17,-17,14,5,4,18,12
1513227658431113,13,2,-21,-12,-4,0,13,15
1513227658431113,-20,36,4,-4,-1,-3,-9,-13
1513227658432614,9,5,1,-4,-2,1,9,10
1513227658432614,9,4,-21,7,2,-1,17,12
1513227658445624,3,41,54,2,4,-1,-26,-25
1513227658445624,-37,-76,-53,-25,-10,-9,0,11
1513227658461136,6,-9,13,3,1,2,-9,2
1513227658461136,0,12,9,14,6,7,20,6
1513227658468652,-15,-2,9,-3,-2,-4,-32,-22
1513227658468652,19,11,12,2,-2,0,2,-4
1513227658470141,12,50,-6,5,4,5,15,-2
1513227658470141,-30,-95,-56,-16,-4,-2,-7,-5
1513227658491668,-14,4,26,7,1,-1,16,3
1513227658491668,19,-12,4,-10,-5,-2,-12,-4
1513227658493159,7,26,-2,7,-3,-6,0,-5
1513227658493159,16,-12,-33,7,-2,-1,1,9
1513227658504675,-5,7,-10,-14,-2,-2,1,-7
1513227658504675,-12,10,2,-1,-1,-1,4,-1
1513227658513673,9,4,8,-4,-4,-1,4,2
1513227658513673,-9,-10,-21,-3,-3,-5,-10,-5
1513227658528692,-12,39,2,3,0,3,26,16
1513227658528692,5,33,6,4,2,-2,-30,-6
1513227658531184,-28,11,-16,-2,0,0,-8,-24
1513227658531184,-3,10,20,-13,-4,-6,-17,-11
1513227658551208,-3,-22,25,8,-3,-1,11,9
1513227658551208,14,-15,-18,11,1,1,12,13
1513227658552699,-13,-5,10,-21,-7,-7,-18,0
1513227658552699,1,-8,21,1,2,2,6,-19
1513227658564711,13,8,-12,-5,0,3,32,27
1513227658564711,-18,-38,-16,-10,-8,-11,-44,-39
1513227658573714,8,-42,-3,12,2,2,-4,-1
1513227658573714,20,38,39,0,-1,3,14,13
1513227658595775,4,8,-3,0,-3,-5,-19,3
1513227658595775,19,-15,-13,7,5,6,13,12
1513227658597767,-18,-10,13,0,-5,-6,5,-2
1513227658597767,2,20,-5,-13,1,-3,-13,-2
1513227658610790,-7,-28,-34,-1,-3,-4,-11,-10
1513227658610790,5,15,30,-1,0,1,35,23
1513227658612794,2,4,-4,14,5,1,-9,24
1513227658612794,-8,50,4,-15,-8,-6,-35,-47
1513227658624785,-1,-28,4,-4,-4,-3,1,-1
1513227658624785,-17,-9,-21,-3,3,2,6,0
1513227658633791,3,-28,-11,-4,-1,2,9,1
1513227658633791,-20,-29,-20,10,0,-2,1,7
1513227658648311,-22,13,-5,0,-1,1,-4,-9
1513227658648311,-8,18,65,-2,-1,-1,-5,0
1513227658650313,1,15,-43,6,2,1,-11,-19
1513227658650313,15,-8,-11,-7,-7,-3,17,13
1513227658670817,-3,-23,-20,-15,-3,-4,-3,-4
1513227658670817,-3,-1,5,1,-1,0,11,-8
1513227658672823,-5,25,34,2,1,2,23,12
1513227658672823,19,-15,-14,4,-4,-3,-49,-25
1513227658684327,14,44,3,1,-3,-4,-9,3
1513227658684327,-11,-21,-45,-5,-2,-1,-8,-6
1513227658693333,11,-19,17,5,3,0,9,9
1513227658693333,-7,-11,5,-1,1,-1,6,1
1513227658708344,2,-49,1,0,-3,-1,13,8
1513227658708344,14,24,-16,-17,-3,0,-2,5
1513227658709845,-10,-1,31,2,-1,-1,-9,-1
1513227658709845,-3,-17,-10,7,-1,-2,11,12
1513227658730859,-7,-27,-25,-8,-3,-2,-10,-25
1513227658730859,-5,18,8,4,0,-2,5,5
1513227658732361,-3,-7,-15,-2,-5,-4,8,9
1513227658732361,14,2,7,-2,1,1,-12,-4
1513227658744369,-23,-19,12,-1,-3,-7,2,4
1513227658744369,7,4,-5,-6,-5,-4,-8,-9
1513227658753376,2,-3,-15,6,3,1,-10,-7
1513227658753376,-10,23,17,-3,-6,-5,26,11
1513227658769390,13,6,36,-6,1,1,-14,-13
1513227658769390,-8,-3,-14,1,0,0,17,19
1513227658774891,18,10,2,-9,-5,-5,-31,-27
1513227658774891,-8,-26,-13,10,1,1,18,7
1513227658790914,21,49,25,8,2,4,1,3
1513227658790914,-23,-15,-36,-6,-2,-1,3,-4
1513227658792418,4,-31,-33,-3,0,1,9,4
1513227658792418,-6,53,15,2,1,2,-5,-1
1513227658804412,-1,-30,-42,4,-2,-3,-2,-4
1513227658804412,8,6,25,9,2,0,0,14
1513227658813418,-9,6,16,-18,-3,0,3,-8
1513227658813418,-4,15,7,5,2,0,-12,-4
1513227658828429,1,-9,-42,-5,-3,-4,-7,13
1513227658828429,-17,-45,-13,-3,-6,-4,-14,-11
1513227658829930,25,19,-18,-15,-3,-6,-5,2
1513227658829930,-32,-36,32,3,2,1,16,-13
1513227658849959,12,29,2,9,4,0,-11,13
1513227658849959,4,4,1,-7,-1,-2,-31,-37
1513227658858453,-11,18,68,11,1,2,3,-3
1513227658858453,-5,-20,-97,-20,-7,-5,-8,11
1513227658873460,-1,0,-14,0,-1,-3,-1,-2
1513227658873460,-3,2,39,3,4,3,18,10
1513227658874961,3,-5,-50,-6,-5,-3,-36,-15
1513227658874961,-2,-11,-2,-4,0,2,24,10
1513227658888499,-10,8,20,2,1,-3,-8,-16
1513227658888499,8,-6,-23,4,1,-1,5,12
1513227658889984,-4,36,47,3,1,-2,5,0
1513227658889984,-9,-23,-5,6,1,1,9,17
1513227658910986,-4,-6,-3,-13,-5,-2,-12,-10
1513227658910986,-1,-19,-4,7,1,1,9,1
1513227658912488,-10,-8,-44,-9,-1,-1,-5,1
1513227658912488,-7,-8,-11,-13,-3,1,-13,-18
1513227658933503,10,18,55,12,1,-2,-24,-2
1513227658933503,1,-8,-26,-5,-1,0,-1,6
1513227658935016,-12,-23,-9,1,-1,-5,1,3
1513227658935016,8,-8,-9,-1,0,1,10,-10
1513227658956019,8,69,18,-6,-4,-1,18,22
1513227658956019,-15,-18,-25,-5,-1,-2,-4,-16
1513227658957520,-7,-17,8,7,-3,-2,2,-7
1513227658957520,-1,-17,-13,0,2,4,13,22
1513227658971529,2,-10,-35,-7,-1,-1,16,-9
1513227658971529,1,30,18,-1,-2,0,-5,4
1513227658973031,11,8,20,-1,1,0,11,5
1513227658973031,21,-31,20,6,-2,-1,-14,-10
1513227659001063,-21,-15,-16,4,1,1,13,11
1513227659001063,9,48,13,-3,-3,-2,-15,2
1513227659001553,15,19,-7,6,3,4,6,-15
1513227659001553,6,0,25,0,-4,-7,-14,4
1513227659007557,-17,-27,-14,-8,1,2,-6,-12
1513227659007557,8,-6,2,3,-2,-4,10,-1
1513227659008556,13,15,-18,-1,-3,-4,6,7
1513227659008556,-1,20,8,1,1,-1,-10,4
1513227659030071,5,-19,-2,-17,-2,3,14,-3
1513227659030071,6,20,24,4,0,0,5,16
1513227659031072,-12,-8,-9,-1,0,0,-10,-23
1513227659031072,-8,16,-17,-2,-2,-3,13,6
1513227659052598,17,-3,35,14,1,2,1,0
1513227659052598,-2,15,-33,-14,-5,-1,-1,-22
1513227659053588,-1,-19,-12,-7,-3,-4,4,14
1513227659053588,-7,14,-24,-8,-4,-4,-6,-22
1513227659067622,-13,-26,-9,-3,-2,-1,-11,-13
1513227659067622,-9,-22,-4,1,0,2,4,6
1513227659068599,-2,-20,9,-1,-6,-7,-4,-9
1513227659068599,-1,18,-22,-12,-1,-3,-12,6
1513227659090124,9,17,23,7,0,-1,15,13
1513227659090124,7,-46,-19,-6,0,0,-15,-30
1513227659097630,-10,1,29,4,4,3,-9,4
1513227659097630,16,14,32,9,-1,1,8,10
1513227659112632,-6,11,-45,-9,-6,-7,-17,-22
1513227659112632,-4,-9,7,-4,-1,0,14,12
1513227659113630,9,30,27,9,1,-1,-8,15
1513227659113630,-15,-50,-15,-13,-1,-2,3,0
1513227659127686,-1,-16,6,6,2,0,-8,-5
1513227659127686,1,29,22,-1,-2,-2,-9,5
1513227659128673,-5,31,-23,-5,-3,-2,22,5
1513227659128673,-4,-37,-1,-1,-2,-1,-32,-3
1513227659150201,5,-1,-15,8,2,-2,-5,-7
1513227659150201,-23,6,6,1,0,-3,-5,-7
1513227659151188,12,-42,-23,-1,-1,-1,14,16
1513227659151188,-16,14,14,-2,-1,-2,-18,-22
1513227659172705,8,4,11,5,3,1,3,13
1513227659172705,1,-26,-6,4,0,-1,-2,-13
1513227659173204,-5,-13,-7,-4,1,2,-4,-11
1513227659173204,14,-31,-17,12,5,3,17,13
1513227659187747,12,55,19,-12,-8,-5,-6,-9
1513227659187747,21,13,11,0,-1,0,7,12
1513227659188247,-12,-34,9,4,3,3,-1,-7
1513227659188247,2,6,-6,1,-2,-1,0,0
1513227659210263,1,15,26,-8,1,1,5,2
1513227659210263,-12,-37,-31,-2,-4,-3,1,2
1513227659210763,6,-7,6,-10,-4,-1,-9,-5
1513227659210763,-1,24,-12,2,-1,-1,3,-3
1513227659240802,-11,-30,-23,-1,-2,0,-1,-6
1513227659240802,5,23,22,3,2,-1,-5,6
1513227659241785,-18,-49,-40,-5,-1,0,-6,-4
1513227659241785,-6,5,-19,-3,-1,-1,5,2
1513227659247807,0,-11,-2,7,0,-1,5,4
1513227659247807,-1,13,-6,-10,-2,-2,-5,-3
1513227659248293,-8,-5,8,-4,-4,-2,-6,-6
1513227659248293,8,31,17,-2,-1,-1,1,3
1513227659270328,-5,-23,14,-1,1,0,-1,-6
1513227659270328,-2,0,-26,4,0,-1,-2,1
1513227659270806,-2,22,12,-4,-4,-3,-4,-3
1513227659270806,-6,5,11,-5,-2,-1,-3,-4
1513227659292821,-8,-26,-11,-1,-2,-1,0,2
1513227659292821,-4,6,22,4,2,1,2,1
1513227659293322,1,8,-13,1,0,-1,-2,-1
1513227659293322,3,6,14,-4,-2,-2,-1,-3
1513227659307832,-4,-18,-3,0,-2,-1,2,0
1513227659307832,3,-2,2,3,-1,-1,3,3
1513227659308332,-4,4,-7,-2,-1,-1,-3,-4
1513227659308332,-2,-5,13,2,0,0,2,0
1513227659330348,5,9,-2,-1,1,0,0,0
1513227659330348,-2,-1,0,-4,-2,-2,-2,-1
1513227659330848,-2,-3,-6,0,-2,0,-3,-3
1513227659330848,1,7,9,2,1,-3,-1,1
1513227659353867,1,2,-12,-7,-1,-2,-2,-2
1513227659353867,-1,-5,5,2,0,1,-2,-1
1513227659354866,1,0,-4,0,1,-1,-2,0
1513227659354866,1,5,3,-3,-5,0,-2,1
1513227659367877,-3,1,0,3,-3,-1,-1,0
1513227659367877,-2,-4,-8,-3,0,-2,2,-1
1513227659368375,1,5,-10,-5,-4,-2,0,-1
1513227659368375,2,0,-4,0,1,1,-3,-1
1513227659390390,-4,-6,-8,0,1,-2,0,-2
1513227659390390,3,9,21,3,-1,-2,-1,1
1513227659397895,-5,-4,-5,3,-1,-2,-2,-3
1513227659397895,1,3,-35,-9,-3,-3,-3,-3
1513227659412909,1,6,32,0,0,0,1,-3
1513227659412909,3,6,-6,8,-1,0,0,1
1513227659413407,-5,-5,9,2,3,0,-2,-1
1513227659413407,-1,0,-11,1,-3,-1,1,-2
1513227659427450,3,5,67,2,-1,0,1,2
1513227659427450,-6,4,-90,-2,0,0,-1,-2
1513227659428448,2,-1,48,-8,-5,0,0,1
1513227659428448,3,12,68,15,3,-1,0,1
1513227659450463,-6,-20,-97,-22,-9,-4,0,-1
1513227659450463,-3,-9,14,0,2,0,-2,-2
1513227659450965,-5,-13,-14,-16,-6,-4,-3,-6
1513227659450965,-2,5,104,8,0,0,0,2
1513227659472479,2,6,-77,-6,1,1,1,-1
1513227659472479,-2,-6,44,0,-2,-1,-3,-1
1513227659473480,0,3,-38,-2,-1,1,-2,-1
1513227659473480,1,-6,7,-2,-1,-3,-1,0
1513227659486989,-3,9,22,6,-1,0,-3,-4
1513227659486989,-5,-1,-13,-5,-2,-2,0,1
1513227659494995,1,1,2,2,-2,-3,-1,-3
1513227659494995,4,2,-21,-1,0,-2,1,4
1513227659510505,2,-1,0,2,0,0,2,1
1513227659510505,11,-3,-2,-6,-2,-1,-2,5
1513227659511006,-9,7,13,5,-1,-1,-1,-3
1513227659511006,-2,-8,-27,-3,0,0,-1,-4
1513227659540054,2,-2,-4,0,0,0,-2,1
1513227659540054,1,1,29,1,0,1,-1,1
1513227659548570,2,-1,-4,-1,-2,-4,-3,0
1513227659548570,1,-5,-30,-5,-1,-1,-2,-1
1513227659550065,-3,-1,18,2,2,1,-2,0
1513227659550065,-4,-1,9,-1,-4,-4,-2,-6
1513227659555065,1,-1,-12,-1,-1,-1,-1,0
1513227659555065,-3,-3,-16,-3,-3,-3,-2,-1
1513227659570079,-1,-1,15,3,0,-1,-2,-1
1513227659570079,-2,-1,1,0,0,0,0,-2
1513227659571076,1,1,-10,-2,2,0,0,0
1513227659571076,-3,0,1,-2,-1,-2,-1,-3
1513227659592591,-2,-1,5,0,0,1,0,0
1513227659592591,1,0,-5,-2,-1,-2,-1,-1
1513227659593605,-1,1,2,-2,1,-1,-1,0
1513227659593605,0,1,-4,-1,0,2,0,-2
1513227659607101,-2,-2,-1,0,-1,-3,-2,-2
1513227659607101,-3,0,2,-1,-1,0,-1,0
1513227659615107,-2,0,1,1,0,1,0,-1
1513227659615107,0,-2,-7,-3,-2,-1,-1,-4
1513227659630118,1,-1,-4,1,-2,-2,-1,-1
1513227659630118,0,0,6,-1,-1,-2,-1,0
1513227659637642,-1,-1,-2,0,0,-2,-1,-1
1513227659637642,-1,-2,-7,-2,-2,-1,-3,-2
1513227659652634,-3,-3,3,-2,-2,-1,2,0
1513227659652634,0,-1,2,1,-2,0,-2,0
1513227659653639,0,-1,-3,1,-2,-1,0,-1
1513227659653639,-4,-2,-5,-1,0,-2,-1,-1
1513227659667163,-2,-1,2,0,-1,-2,-2,-2
1513227659667163,-2,0,0,-2,0,0,0,-3
1513227659675243,0,-1,-2,-2,-4,-1,-2,-1
1513227659675243,-1,-1,-1,-2,-1,0,1,-3
1513227659690217,-3,-1,0,1,0,-2,-1,-1
1513227659690217,-1,1,-1,1,-1,-3,0,-2
1513227659690727,-2,-2,-2,-1,-1,-3,-2,-2
1513227659690727,0,0,-1,-1,-3,1,-1,0
1513227659712733,-1,0,1,-1,0,1,0,1
1513227659712733,-2,-2,-1,-1,-1,0,0,0
1513227659713745,0,-1,0,0,0,0,1,-1
1513227659713745,-1,-2,-2,-2,-1,-3,0,-1
1513227659727752,0,1,-2,-1,-1,-1,-1,-1
1513227659727752,-1,-2,0,-1,0,0,-2,-1
1513227659735246,0,1,-2,-1,0,0,-1,0
1513227659735246,-1,-2,-5,-1,-2,-2,-2,-2
1513227659750260,-2,-1,0,0,1,-2,0,-3
1513227659750260,-1,-1,0,-1,0,-2,-1,-1
1513227659750758,-2,-2,0,-2,0,2,-1,0
1513227659750758,-2,0,-1,-2,1,-1,1,0
1513227659772803,0,-2,0,-1,-2,0,-1,-3
1513227659772803,-2,-2,-1,0,0,-2,-2,-2
1513227659773303,-2,0,-1,0,-2,-2,-1,-1
1513227659773303,2,-1,-1,-2,-1,0,-1,1
1513227659787312,0,-3,0,-2,0,-1,-1,0
1513227659787312,-3,0,-3,-2,-1,1,1,-1
1513227659795819,-1,-2,0,1,-1,-3,-1,-1
1513227659795819,-1,-2,-2,0,-1,-1,-1,-2
1513227659810329,0,-1,0,1,-2,-1,1,-2
1513227659810329,-1,-1,-2,0,0,-2,-1,1
1513227659810830,-1,0,-2,0,-2,-2,-2,0
1513227659810830,-1,-1,-1,-1,-1,-1,1,-2
1513227659832879,0,-2,-2,-2,-2,1,-1,-1
1513227659832879,0,-1,-1,-2,-1,-2,-1,-1
1513227659833379,-1,-2,-1,-2,0,0,0,-2
1513227659833379,-2,-1,0,0,-1,-2,-1,-2
1513227659854893,-2,-2,-3,-2,-2,-2,-3,-2
1513227659854893,-1,-1,-2,-2,-2,-1,-2,-2
1513227659862932,-1,-3,-2,-3,-1,-2,-1,-1
1513227659862932,-1,0,-1,-1,-2,0,-1,-1
1513227659870417,1,1,1,0,0,-2,-1,-1
1513227659870417,-2,-1,0,-3,0,0,0,-1
1513227659870906,0,-2,0,-1,1,-1,-2,0
1513227659870906,-1,0,0,-1,-1,-1,-2,-1
1513227659892921,-3,0,-3,0,-1,-2,-1,-1
1513227659892921,0,-1,-1,-2,-2,-1,-2,-1
1513227659893421,-1,-2,-2,0,-1,0,-1,0
1513227659893421,-2,-3,-2,-2,0,-3,-1,-1
1513227659915937,-2,0,-1,0,-2,0,0,-1
1513227659915937,-1,-2,0,-1,0,-1,-2,-1
1513227659916938,-1,1,0,2,-2,-1,0,-1
1513227659916938,-2,-1,-1,0,0,-2,-2,0
1513227659930447,-2,-1,0,-2,1,1,0,-1
1513227659930447,-2,-3,-3,-2,-2,-1,-1,-1
1513227659930947,-1,-3,-2,-2,-2,1,1,-1
1513227659930947,0,-2,-1,-2,-1,1,-1,-1
1513227659952973,1,0,-1,-2,-2,-1,-1,1
1513227659952973,-2,1,0,1,-1,0,1,-1
1513227659953474,1,2,-2,-2,0,-1,-1,-1
1513227659953474,-2,2,-1,-1,0,0,2,-1
1513227659974979,1,-1,-1,0,-1,-1,-1,-2
1513227659974979,0,0,-2,1,0,0,-1,0
1513227659982484,-1,-2,0,0,-1,-1,-1,-2
1513227659982484,1,1,0,0,-1,0,-3,-2
1513227659990003,-2,-3,14,-1,0,0,0,-3
1513227659990003,-1,-2,-30,-2,1,-2,-1,2
1513227659997505,1,5,84,10,1,0,-1,0
1513227659997505,-7,-21,-69,-20,-5,-4,-3,-8
1513227660013006,-2,0,32,-1,-3,-2,-1,-3
1513227660013006,4,-1,-1,0,-1,-1,-1,2
1513227660013507,-10,-5,2,-8,-4,-4,-1,0
1513227660013507,0,0,39,4,0,0,-1,-2
1513227660036062,3,3,-40,1,1,-2,-1,8
1513227660036062,-3,6,13,0,-2,-1,-1,-14
1513227660036565,-4,-12,11,-5,-3,-2,-2,8
1513227660036565,-1,6,19,5,-1,-3,-4,-5
1513227660050083,-8,-13,-39,-8,-2,-3,2,31
1513227660050083,12,3,14,3,0,1,-2,-26
1513227660051076,3,2,-35,-3,-2,-9,-6,-10
1513227660051076,-15,1,-13,-5,1,14,14,18
1513227660072588,24,2,14,3,0,-4,-6,-7
1513227660072588,-2,-1,12,-3,0,2,5,12
1513227660073588,0,-3,-17,-3,-1,-3,-4,-2
1513227660073588,-1,2,31,2,-1,-5,-7,0
1513227660095604,-8,1,-29,0,0,2,-1,-9
1513227660095604,-7,-7,-8,-3,-4,-2,-2,2
1513227660102611,4,1,-13,1,1,1,2,-6
1513227660102611,4,1,14,4,-1,-4,-1,1
1513227660118136,-8,-2,7,1,-1,1,0,-6
1513227660118136,-1,-5,-6,-3,-3,-5,-2,0
1513227660119120,-5,-1,-2,0,0,1,2,6
1513227660119120,3,-1,-13,2,0,-1,-1,-4
1513227660132631,-2,0,10,-4,-2,-3,-5,-7
1513227660132631,-4,-1,1,-2,-1,0,-3,4
1513227660133631,-1,3,-9,1,0,1,1,-3
1513227660133631,0,0,-3,0,-2,-3,-5,-5
1513227660155648,-1,-1,4,-2,-1,0,0,-6
1513227660155648,-3,-1,6,1,-1,-1,-1,3
1513227660156649,-2,-1,-10,-2,-1,2,-1,-1
1513227660156649,3,-2,-7,-2,-1,-3,-2,-4
1513227660170657,-5,-2,8,0,-1,0,-1,2
1513227660170657,-1,-1,-4,-1,0,-1,0,0
1513227660171658,-1,-1,-5,-2,0,-1,-2,-3
1513227660171658,-1,-1,-1,0,-2,-2,-2,-2
1513227660192684,-2,1,5,1,-1,-1,0,-3
1513227660192684,-3,-3,-2,-1,-1,-1,-2,1
1513227660193673,0,0,-6,-1,-1,0,0,-1
1513227660193673,0,-1,2,0,-2,-1,0,0
1513227660215710,-2,-2,0,-2,-1,-2,1,-2
1513227660215710,0,-2,-4,-1,0,0,0,-2
1513227660216690,-2,-2,-1,-2,-1,0,-1,1
1513227660216690,-2,-1,-3,0,0,-2,-1,-1
1513227660230199,-2,-2,2,-2,-2,-3,-2,-2
1513227660230199,-4,-1,-2,0,-3,0,-1,1
1513227660230699,-1,-2,-4,0,-1,0,0,-3
1513227660230699,0,-1,-1,-1,-1,-1,-1,-1
1513227660252729,-1,-2,0,-1,-1,-2,-1,-2
1513227660252729,-1,-1,1,1,-1,-2,-2,2
1513227660253215,-1,-1,-3,-2,0,-1,-1,-2
1513227660253215,-1,-1,-3,-1,-1,0,-2,-2
1513227660275734,-2,-1,2,0,-1,0,-1,0
1513227660275734,-1,0,-2,-1,-1,-3,0,1
1513227660276732,0,1,-2,-2,-2,0,-2,-1
1513227660276732,0,0,-2,-1,0,-2,-1,-1
1513227660290241,1,1,0,-1,-1,1,-1,-3
1513227660290241,-2,-1,-1,0,-1,0,-1,-2
1513227660290741,0,0,-2,0,-1,-2,-1,-1
1513227660290741,-1,-2,-1,0,-1,-2,0,-1
1513227660312759,-1,-1,-1,-1,-1,-1,-2,-2
1513227660312759,0,0,-1,-1,1,-2,-2,-2
1513227660313261,-2,-2,-1,-1,-1,-2,-1,-1
1513227660313261,-1,1,-2,-1,-1,0,-2,-1
1513227660335273,-1,-1,-1,-2,-1,-1,0,0
1513227660335273,0,-2,1,0,-2,-2,-2,-2
1513227660342791,1,0,-2,-1,-2,0,2,-1
1513227660342791,-1,-1,0,-1,-1,-1,0,0
1513227660358302,-1,0,1,-1,-2,-2,1,0
1513227660358302,1,0,-2,-2,-2,-1,-2,0
1513227660359291,-2,1,-2,-2,0,-2,-1,-1
1513227660359291,-2,-3,-2,-3,-1,-1,-1,-1
1513227660372800,0,-1,-1,0,-1,0,-2,-3
1513227660372800,-1,-2,-2,-2,-1,0,0,-1
1513227660373300,-2,-2,-3,0,-2,-2,-2,-1
1513227660373300,-2,-2,-1,0,-1,-2,-1,-1
1513227660395818,-2,-1,0,-3,0,-1,-2,0
1513227660395818,-1,0,-1,-2,-1,-1,1,0
1513227660396831,-2,0,-2,-1,-1,-2,-1,0
1513227660396831,0,1,0,0,0,-2,-2,0
1513227660410336,-1,-1,-3,0,0,-1,0,0
1513227660410336,0,1,-2,0,-1,-1,-1,0
1513227660410826,0,-1,-1,1,-1,-1,0,-2
1513227660410826,-1,-2,-3,-1,-1,0,0,-1
1513227660432842,-1,-1,-1,0,-1,-1,-1,-1
1513227660432842,-2,-1,-1,0,0,-1,-2,-2
1513227660440361,-1,-2,-1,-2,-2,1,0,-2
1513227660440361,-1,1,-1,-1,-2,1,-1,-1
1513227660456859,1,-2,-2,-3,0,-1,0,0
1513227660456859,-2,-2,0,-1,-2,0,1,-1
1513227660457360,-1,-2,-1,0,-2,0,-2,0
1513227660457360,0,-2,0,-1,0,-2,-1,-3
1513227660469370,-1,0,-1,-2,-1,-3,-1,-1
1513227660469370,-2,0,1,-1,-1,0,0,-1
1513227660477877,-2,1,0,-1,-2,-1,-1,1
1513227660477877,-1,0,-1,0,-1,-1,0,0
1513227660493385,0,-1,-1,0,0,0,0,-1
1513227660493385,-1,-2,-2,-2,0,-1,0,0
1513227660500406,0,-3,0,-1,-3,-2,-1,0
1513227660500406,-1,-2,-2,0,-2,-1,-1,-1
1513227660515911,-3,-1,-1,0,0,0,-2,0
1513227660515911,-1,1,-2,0,-2,-2,-2,-3
1513227660516905,-1,0,-1,-1,0,0,0,-2
1513227660516905,-2,0,-1,-2,0,-2,-2,-1
1513227660538483,-1,-1,-2,0,-1,-2,-1,0
1513227660538483,0,0,0,0,-1,-1,-1,0
1513227660539474,1,0,-2,-1,-1,-3,-2,0
1513227660539474,0,-1,-1,0,-2,-1,0,-1
1513227660552995,0,-1,-1,-1,-3,0,-2,-2
1513227660552995,-2,-2,-2,-2,0,0,0,-2
1513227660553485,0,-1,0,-3,0,0,0,-1
1513227660553485,-2,-1,-1,-3,-2,1,-2,-2
1513227660576012,-2,-3,0,-1,-2,0,0,0
1513227660576012,0,-1,0,0,-1,-1,-3,-1
1513227660576501,-1,-2,0,-1,-2,-2,-1,-1
1513227660576501,0,-1,0,-2,-1,-2,-1,1
1513227660589523,-1,-1,-2,-1,-1,-1,-1,0
1513227660589523,-1,-1,-3,-2,-1,-1,-2,0
1513227660597527,1,-2,-2,1,-1,-1,-1,-2
1513227660597527,-1,-2,0,1,-3,-1,-1,-2
1513227660612551,-1,-1,-2,-2,-2,0,1,-2
1513227660612551,-4,-1,-1,-1,-2,0,-1,0
1513227660613529,-2,-1,-1,-1,0,-2,-2,0
1513227660613529,0,1,-2,0,1,-2,-1,0
1513227660636043,-1,0,1,-1,-1,-1,-1,-1
1513227660636043,0,-1,-1,-1,-2,-1,0,-4
1513227660636543,0,-3,-1,-1,-1,-1,1,0
1513227660636543,-2,-2,-1,-1,-2,-2,-1,-1
1513227660649555,-1,-1,-2,0,-1,1,-2,0
1513227660649555,-2,-3,-1,-2,0,0,-2,-2
1513227660657557,-1,0,-1,-1,-1,0,-1,0
1513227660657557,1,-1,-1,-1,-1,-1,-2,-1
1513227660672570,1,-1,-3,-1,-1,-1,0,-1
1513227660672570,2,1,-1,-1,-1,-2,1,-1
1513227660673570,0,-1,-2,-1,-1,-1,-1,0
1513227660673570,-2,0,-1,-3,0,-1,0,-2
1513227660695595,-3,0,-1,-2,-1,-1,-1,-1
1513227660695595,-1,-2,0,-1,-1,-2,-3,-2
1513227660696587,-1,-2,-2,-2,-1,0,-1,-1
1513227660696587,0,-1,-1,-1,-1,0,-2,-1
1513227660710096,-1,0,0,1,-2,-3,-2,-2
1513227660710096,0,-2,-1,0,1,-1,0,0
1513227660717615,-1,-1,-2,-2,0,0,-2,0
1513227660717615,-2,-2,-2,-1,-1,-1,-1,-2
1513227660732611,0,0,0,-1,-1,-1,0,-2
1513227660732611,0,0,-3,0,-2,-1,0,-1
1513227660733612,-1,0,0,-1,-1,-3,0,-4
1513227660733612,-2,0,0,0,-1,-1,0,0
1513227660756628,0,-1,-2,-1,0,0,0,-1
1513227660756628,-2,0,-1,-1,-2,-1,-1,-1
1513227660757128,-2,-1,-2,-2,-2,0,1,-1
1513227660757128,-1,-1,-2,0,-1,-1,-1,-2
1513227660769658,-2,-2,0,-1,-1,-2,-3,-2
1513227660769658,-1,-1,-2,-1,0,-1,-2,-1
1513227660777658,-1,-1,-2,0,-1,-1,-3,-2
1513227660777658,-1,-1,0,-1,-1,-2,1,1
1513227660792666,-3,-1,0,-1,-1,0,-1,0
1513227660792666,0,-2,-1,-2,-2,1,0,-1
1513227660793667,1,-3,-1,-1,0,1,-2,-2
1513227660793667,-2,-2,-2,-1,0,-1,0,-2
1513227660816316,0,-3,1,-1,-1,-2,0,-1
1513227660816316,-1,-2,1,-2,-1,-2,-2,-2
1513227660817306,-2,-1,-2,-1,-1,-1,0,0
1513227660817306,-1,-1,1,-2,-2,-2,-2,-1
1513227660838308,-2,-1,-2,-1,-1,-1,-1,0
1513227660838308,-3,0,-2,0,0,-2,-1,-2
1513227660839309,2,0,-3,-2,0,-2,-1,-1
1513227660839309,1,-1,-2,-2,0,1,0,-1
1513227660852820,1,0,-2,0,0,-2,-1,-3
1513227660852820,-1,0,0,0,-1,-1,-1,1
1513227660853320,0,0,0,-1,0,-2,-1,0
1513227660853320,0,0,-1,0,-1,-2,0,1
1513227660883354,0,-1,0,0,0,0,-1,0
1513227660883354,-1,-1,-3,0,-2,-1,-1,0
1513227660884355,-3,-1,0,0,-2,-1,0,-2
1513227660884355,-3,-1,-1,-2,-1,-1,-2,-2
1513227660898349,-4,0,0,-1,-3,-2,0,-3
1513227660898349,-2,-1,-1,-1,-1,-1,-1,1
1513227660899356,-1,-1,-2,-1,-2,-2,0,-1
1513227660899356,-2,-3,-1,-3,-2,0,-1,-2
1513227660913366,-2,-2,0,-1,-2,-1,-2,-2
1513227660913366,-2,-3,-1,-2,-1,-3,-1,-1
1513227660920370,-1,-3,0,-1,-4,-1,-1,-2
1513227660920370,-1,-2,-1,-1,-1,-1,-1,0
1513227660935889,2,-1,-1,-2,-1,-1,0,-1
1513227660935889,0,0,-2,-2,-1,-1,-1,0
1513227660936891,0,0,-1,0,-1,-2,0,-2
1513227660936891,0,-3,-2,-1,-2,-1,-1,-1
1513227660958395,-1,0,-1,-1,0,-1,0,1
1513227660958395,-1,0,-1,0,-2,0,-1,-1
1513227660958893,-1,0,-2,-2,-2,0,-1,0
1513227660958893,0,1,0,-2,-1,-1,-2,-2
1513227660972919,-1,-1,-3,-2,-2,-1,-2,-2
1513227660972919,-1,-2,-2,-1,-1,0,1,-2
1513227660973403,-2,-1,-1,-1,-1,-2,-2,-2
1513227660973403,0,-1,-1,0,0,-2,-2,-1
1513227660995928,-1,-2,1,-1,0,-2,-2,1
1513227660995928,0,-2,-1,-1,-2,-1,-1,1
1513227660996420,-2,-4,-1,0,-1,-1,-2,-1
1513227660996420,-2,-1,-1,-2,-1,-2,-1,-3
1513227661018435,-1,-2,-2,-4,-2,-1,-1,-1
1513227661018435,-2,-1,0,-1,-1,-2,-2,-1
1513227661019936,-1,0,0,-2,0,-2,-1,-1
1513227661019936,0,0,0,-2,-2,-1,-1,0
1513227661040960,-1,-1,-1,-1,-2,0,-1,-1
1513227661040960,-1,0,0,-2,-2,0,-1,-1
1513227661041452,-2,0,-1,-2,-1,1,0,-1
1513227661041452,-2,1,0,1,-2,-2,1,1
1513227661055975,-1,0,-4,0,-2,-3,-3,-3
1513227661055975,-1,-1,-2,-1,-2,-2,0,-1
1513227661056463,0,-4,-3,0,-2,0,0,-1
1513227661056463,1,-4,-3,0,0,-1,-1,-2
1513227661078488,0,-2,1,0,-1,0,-1,-1
1513227661078488,-1,-2,-1,-1,0,-2,-1,-1
1513227661078978,-2,-1,0,-1,-1,-2,-2,-2
1513227661078978,-1,-1,-1,0,-2,1,0,0
1513227661092496,-1,-1,-2,-1,-1,-2,0,1
1513227661092496,0,-2,-1,-2,0,-1,0,-2
1513227661093489,-1,0,-3,-2,-1,-1,1,0
1513227661093489,0,-2,-1,-1,-1,-2,-1,-1
1513227661116006,1,0,-1,0,-2,-1,-1,-3
1513227661116006,-1,-1,-1,0,-1,-1,0,0
1513227661117505,-1,-2,0,-1,0,2,0,-1
1513227661117505,-3,-3,-1,-2,-1,-1,-1,0
1513227661138519,-3,0,-1,-1,0,-1,-1,0
1513227661138519,-2,-2,-2,1,-3,0,-1,-1
1513227661140022,-1,-1,0,-2,-2,-2,0,0
1513227661140022,-3,-2,-1,-1,-1,-1,-2,0
1513227661152030,-1,-1,-2,0,-1,1,-1,-2
1513227661152030,1,0,-2,-2,0,0,-2,0
1513227661161088,1,0,0,-1,1,-2,-2,-1
1513227661161088,0,0,-1,-1,-2,-2,0,-1
1513227661176082,-2,-1,0,1,1,-2,-1,2
1513227661176082,0,1,-2,0,-2,-1,-1,-1
1513227661177583,1,0,-1,-2,-1,0,1,-2
1513227661177583,2,-1,-1,-3,-2,-1,-1,-1
1513227661198609,0,-1,-1,-3,0,-3,0,0
1513227661198609,-1,-1,-1,-2,-2,-1,0,-2
1513227661200119,-1,-1,-1,-1,0,-3,-1,-1
1513227661200119,-2,-1,-3,0,0,0,0,-1
1513227661212119,-1,-3,-1,-1,-3,1,-1,-2
1513227661212119,-2,-1,0,-2,0,-1,0,-1
1513227661221143,-1,0,-2,-1,-2,-1,-2,1
1513227661221143,-2,-1,-1,-1,0,0,-2,-2
1513227661235622,-1,-3,0,-2,-3,-1,-2,-1
1513227661235622,0,0,-2,-2,0,-1,-2,-1
1513227661237639,-2,-2,1,0,0,-1,-2,0
1513227661237639,-1,0,-1,-2,-1,-1,0,1
1513227661258637,0,-1,0,-2,-1,0,-1,0
1513227661258637,0,-1,0,-1,-2,0,-1,0
1513227661260141,1,-1,-3,-2,-1,-1,0,-2
1513227661260141,0,1,-3,-1,-1,-1,-1,-2
1513227661272196,-2,1,-2,1,0,-2,1,-1
1513227661272196,-2,-2,1,0,-1,-2,0,-1
1513227661281192,-2,-3,0,0,0,-1,-1,-1
1513227661281192,-1,-1,-1,0,0,-2,-3,0
1513227661295715,0,-1,-3,-3,-1,1,-2,0
1513227661295715,-1,-2,-2,1,-1,-1,-3,0
1513227661302213,-2,-2,-1,-1,-2,-2,-2,0
1513227661302213,1,-1,-1,-2,-2,-2,-1,-2
1513227661318223,-1,0,-1,-1,-1,-1,-2,0
1513227661318223,-2,0,-1,-2,0,-1,-1,-2
1513227661320225,0,-1,-3,-2,-2,-1,-2,-2
1513227661320225,-1,-1,-2,-1,-1,0,1,-1
1513227661340760,1,-2,0,-2,0,-3,-1,-1
1513227661340760,-1,-2,-2,-2,-2,-1,0,0
1513227661342741,-3,0,-2,-2,-1,0,0,-1
1513227661342741,-2,-1,-2,0,-1,0,-1,-1
1513227661355746,0,-1,-2,0,1,-2,-2,-3
1513227661355746,-1,-2,-2,-1,-2,-1,-1,-2
1513227661357761,1,0,-3,-2,-2,-2,0,-1
1513227661357761,-1,-3,0,-1,0,0,-2,-2
1513227661378274,-3,0,1,-1,-2,-1,1,-1
1513227661378274,-2,-2,-1,0,0,0,-1,0
1513227661384265,-2,1,-2,-1,0,-2,0,-1
1513227661384265,-2,-1,-1,-1,0,0,0,-2
1513227661391769,-2,-3,-1,-1,-1,-1,-1,0
1513227661391769,0,-2,0,-2,-2,0,-1,-3
1513227661401308,0,-2,-1,-1,-1,-2,-2,-1
1513227661401308,0,-1,0,-2,0,0,-1,0
1513227661424295,-1,-2,-2,-2,0,0,0,0
1513227661424295,-2,1,-2,-1,-1,-1,0,0
1513227661426795,-1,-1,-1,-1,-1,1,0,-2
1513227661426795,0,-1,0,-1,-2,-1,-1,-2
1513227661445819,-2,-1,-1,-2,0,-2,-1,-1
1513227661445819,-1,-2,-1,-1,0,-2,0,0
1513227661447309,-1,-2,1,-2,-1,0,-2,-1
1513227661447309,-2,-1,-2,-1,-2,-2,-3,-2
1513227661468324,2,1,-2,-2,0,1,-1,-2
1513227661468324,0,-1,-3,-2,-1,-1,-1,-1
1513227661469826,-1,0,-1,-1,-1,-2,-1,-2
1513227661469826,-2,0,-2,-1,0,0,-1,-2
1513227661475832,-1,0,-1,0,0,-1,-3,0
1513227661475832,-1,0,-2,-1,0,-1,-2,-1
1513227661477831,-1,-1,-1,1,0,-3,0,1
1513227661477831,-2,-2,-1,-2,-1,-2,0,-1
1513227661505909,-1,0,-2,0,-2,-1,-2,0
1513227661505909,-1,-2,0,0,0,0,0,-1
1513227661507419,-1,-1,-2,-1,-2,0,-1,-1
1513227661507419,0,-2,0,-1,-1,-3,-1,0
1513227661511913,-1,-2,-1,-1,-1,-1,0,-1
1513227661511913,-2,-1,-1,-1,0,0,-1,-1
1513227661520948,0,-3,-1,-1,-2,-1,-1,-1
1513227661520948,-1,-1,-1,-1,-1,-1,-2,-2
1513227661542477,-1,-1,0,-1,-3,-2,-1,-1
1513227661542477,-1,-2,-1,-2,-1,-2,-2,1
1513227661550968,-3,-1,-1,-1,-1,0,-2,0
1513227661550968,-3,0,-2,-2,0,0,-1,0
1513227661558472,-2,2,-2,-2,-3,-1,-1,-2
1513227661558472,-1,0,-1,-1,-3,-1,0,-2
1513227661559974,0,0,0,-2,-1,-2,-2,-2
1513227661559974,-2,-1,-1,0,-2,-1,-1,-1
1513227661588494,0,-2,-1,1,-1,-1,0,-1
1513227661588494,0,-2,-1,-1,-3,-3,0,0
1513227661590011,0,-1,-2,-1,-1,-1,0,0
1513227661590011,2,-1,-1,-2,-1,-1,-3,0
1513227661596000,-2,-3,-2,-1,1,-2,-2,-3
1513227661596000,-2,-1,-2,0,-1,2,-2,-1
1513227661597503,-2,-1,-1,-1,-1,-1,-1,0
1513227661597503,-1,-2,-1,-1,-1,0,0,0
1513227661626525,0,-1,-2,-1,-1,-2,0,-2
1513227661626525,-1,-1,0,-2,0,-1,-1,-1
1513227661628047,-2,-3,-1,-2,-2,-1,-1,-2
1513227661628047,0,-1,0,-1,-2,-1,1,-2
1513227661632050,-1,0,1,-2,-1,-1,-1,-1
1513227661632050,-1,-1,-1,-1,-2,0,0,0
1513227661664559,0,1,-1,-1,-2,-2,-1,0
1513227661664559,1,-2,-2,1,-1,0,-2,-1
1513227661665050,0,-3,0,0,-1,-1,0,-1
1513227661665050,-2,-2,0,0,-1,-1,0,-1
1513227661669574,-2,1,-2,-1,-1,-2,0,-1
1513227661669574,-2,-1,-1,-1,-1,-2,0,-1
1513227661678565,-2,-1,-1,1,0,-1,-1,2
1513227661678565,-1,0,-2,-1,-1,-2,-2,1
1513227661680059,-1,-2,0,-3,0,-1,-2,-1
1513227661680059,-1,-2,-1,-1,-3,-1,-1,-1
1513227661708092,-3,-2,-1,0,-1,0,-2,-2
1513227661708092,-1,0,-2,0,0,-1,1,-1
1513227661710081,-1,-2,-1,1,-1,1,0,-2
1513227661710081,-2,-1,-1,1,1,-1,0,0
1513227661716086,-1,0,0,-2,-1,-1,0,-1
1513227661716086,0,-2,-1,-1,0,-2,-1,-3
1513227661717586,-1,-3,-4,-3,-1,0,0,-2
1513227661717586,-1,-2,-2,-2,-1,-2,-3,-2
1513227661746106,0,-1,-1,-1,-2,-1,-3,-1
1513227661746106,1,0,0,-2,0,-2,-2,1
1513227661747607,-1,0,0,-2,-2,-1,-2,-1
1513227661747607,-2,0,-1,-2,-1,-2,0,-3
1513227661784633,0,1,-1,-3,-1,-1,-1,0
1513227661784633,-1,0,-1,3,-2,-1,-1,-2
1513227661786134,-1,-1,-1,0,1,-1,-1,-1
1513227661786134,-2,1,-1,1,-1,0,-1,0
1513227661787135,-1,-2,-1,-1,0,0,0,-1
1513227661787135,-3,-2,-2,-1,-1,-3,0,-2
1513227661791153,-1,-3,0,-1,-1,-1,-1,-1
1513227661791153,1,0,-1,-1,-1,1,0,-1
1513227661798142,-1,0,-1,-1,0,0,-2,-1
1513227661798142,-1,0,1,-1,-1,-1,-2,-2
1513227661800160,-3,-1,-2,0,-1,-1,-2,-1
1513227661800160,-1,1,-1,-3,-2,-1,-1,-1
1513227661828164,-1,-2,-1,1,-2,0,0,-1
1513227661828164,1,1,0,0,0,0,-2,1
1513227661830165,-1,-1,-2,-2,0,-2,1,-1
1513227661830165,0,-1,0,-1,-3,-2,0,0
1513227661835670,0,1,-1,0,-2,-1,-1,-1
1513227661835670,-2,-2,-2,-1,-2,0,-2,0
1513227661837671,-1,0,0,1,-2,0,-4,-3
1513227661837671,-1,-1,0,-2,0,-3,-1,-1
1513227661857184,0,-2,-1,-1,-1,0,0,-1
1513227661857184,-1,-3,-3,-1,-1,0,1,-2
1513227661865691,1,4,1,-2,-1,0,0,0
1513227661865691,0,-1,-1,-2,1,0,-2,-1
1513227661880701,-3,-2,-3,0,-1,0,-2,-2
1513227661880701,-1,0,-1,-3,-1,-3,-1,0
1513227661882202,-2,-3,-2,0,0,-1,-1,-1
1513227661882202,-1,0,0,0,-1,-2,-3,-2
1513227661903238,-1,-1,-1,0,0,-2,-1,1
1513227661903238,1,-3,-2,-1,-1,-1,1,-2
1513227661904719,-2,-2,-2,-1,-1,-1,-1,-1
1513227661904719,0,-1,-2,0,0,-1,-1,0
1513227661917736,1,-1,-1,0,-1,-3,0,-2
1513227661917736,-1,-2,0,-1,-1,-1,-1,0
1513227661926744,-2,-1,-1,-3,-1,-1,-1,0
1513227661926744,-3,-3,-1,-1,-1,0,1,-1
1513227661948773,-2,-1,-1,-2,1,1,-2,-1
1513227661948773,-1,-1,-1,-1,-1,0,0,-1
1513227661950769,0,-4,-1,-1,0,0,0,-2
1513227661950769,0,3,-1,-1,-1,-1,-2,-1
1513227661955267,0,-1,-2,-2,-1,-1,-1,-1
1513227661955267,0,-3,-2,-1,0,-1,0,-2
1513227661961759,0,2,0,0,-2,-2,-1,0
1513227661961759,0,-1,-1,-1,-1,0,-3,0
1513227661978273,-2,1,-1,-1,0,-1,0,0
1513227661978273,-4,-3,-1,0,-3,0,-1,-1
1513227661979772,-2,-6,-1,-1,-1,-2,0,-1
1513227661979772,1,-5,0,-2,-1,-1,0,-1
1513227662000791,1,0,-1,1,-2,-2,-1,-1
1513227662000791,-1,0,0,-1,-1,-1,0,0
1513227662002792,0,-1,0,-2,-2,0,-1,0
1513227662002792,-1,-1,-1,-1,0,0,1,0
1513227662015298,0,-2,-2,-3,-2,0,0,-2
1513227662015298,0,0,0,-2,0,-1,-2,-2
1513227662021824,-1,2,0,0,-2,0,-1,0
