timestamp,emg1,emg2,emg3,emg4,emg5,emg6,emg7,emg8
1514900104714086,-2,-1,-2,0,-1,-2,-1,0
1514900104714086,-1,-2,-2,0,-1,-2,-1,0
1514900104715587,0,5,3,2,-1,1,1,0
1514900104715587,-2,0,0,-3,-2,-1,-2,-1
1514900104728597,0,-2,-1,-1,-2,-1,-1,0
1514900104728597,-1,0,0,0,-1,1,-1,0
1514900104735603,-3,-1,-2,-2,-2,-2,-3,0
1514900104735603,-1,0,0,-1,0,-1,-1,-1
1514900104753115,0,0,0,-2,-1,-2,0,-3
1514900104753115,1,-1,-2,-1,-1,-1,-1,0
1514900104756118,-2,-2,0,-1,-1,-2,-2,-3
1514900104756118,-1,-3,-3,-1,0,-2,-1,-1
1514900104774129,-1,-2,-2,1,-1,-1,-2,-1
1514900104774129,-2,-1,-1,-1,-2,-1,-1,-2
1514900104776130,-1,0,-3,-1,-2,0,-1,-1
1514900104776130,0,-2,0,-1,-1,0,0,2
1514900104788639,0,-2,0,-1,-1,-1,-2,0
1514900104788639,-2,0,-1,-2,0,-1,-1,-1
1514900104795645,-2,-1,-2,-2,-2,-1,-1,-1
1514900104795645,-1,-2,-2,-2,-2,-2,-2,-2
1514900104811655,-1,-1,-2,-3,-1,-2,0,0
1514900104811655,-1,-3,-3,0,-2,-1,-2,-2
1514900104813157,-2,-2,-2,-1,-1,0,0,-1
1514900104813157,-2,-3,-1,0,-1,-1,-1,-1
1514900104834171,-1,-2,-1,-2,-2,-2,-1,-2
1514900104834171,0,1,-2,0,1,1,-2,0
1514900104836173,0,-1,-1,0,-1,-3,0,0
1514900104836173,-2,-1,-2,-1,0,-2,-1,-1
1514900104848681,-1,-3,-1,-1,-1,-2,-1,-1
1514900104848681,-1,0,1,-2,-2,-2,-2,-1
1514900104855688,0,-1,-2,-1,-1,0,-3,0
1514900104855688,-2,0,-1,0,-1,-1,0,-1
1514900104871699,-1,0,-2,-1,-1,-1,0,0
1514900104871699,-1,-1,0,-2,1,-1,2,-1
1514900104873699,-1,0,0,-2,-2,-1,0,-1
1514900104873699,-1,-3,-2,-1,-1,-2,-2,0
1514900104894214,-1,-1,-1,0,1,1,-2,-1
1514900104894214,-1,-1,-1,-2,-2,-2,0,-2
1514900104895714,-1,-1,-1,-1,-1,-1,-1,-2
1514900104895714,0,0,-1,-3,-1,-2,0,-1
1514900104908733,0,0,0,1,0,-2,1,-1
1514900104908733,0,-1,-1,1,-2,-2,-2,-1
1514900104915228,-1,-2,-4,0,-1,-1,1,-1
1514900104915228,0,-3,0,-2,-1,1,-1,0
1514900104932240,-2,-2,-2,-1,-2,0,-2,-1
1514900104932240,1,0,-1,-1,-2,-1,1,-1
1514900104935763,-2,0,-1,-1,0,-1,-1,-2
1514900104935763,0,-1,-1,-1,0,-1,-2,-2
1514900104954255,0,-2,0,0,-1,-1,0,-1
1514900104954255,-2,-2,-2,0,-2,-1,0,-4
1514900104955757,0,0,1,0,-1,-1,-2,-2
1514900104955757,-3,-1,-1,-2,-1,-2,1,-2
1514900104968266,-3,-2,-1,-2,-1,0,-3,0
1514900104968266,-2,-1,-2,-1,1,-2,-3,0
1514900104976784,0,1,-1,-1,-1,-1,0,-2
1514900104976784,-2,-2,-1,-1,-1,-2,0,-1
1514900104991783,-2,-1,-3,-2,-1,-3,-1,-2
1514900104991783,-1,-1,-1,-1,-2,-1,0,-2
1514900104993294,1,-3,-2,-3,0,0,-3,0
1514900104993294,1,1,-1,2,0,-2,-1,-1
1514900105021804,-2,-1,-1,-2,-2,-1,-1,-2
1514900105021804,0,1,-1,-1,0,0,-1,0
1514900105023306,0,-2,-1,-1,-2,-1,0,0
1514900105023306,-1,-4,-2,0,-1,0,-2,-3
1514900105027820,-1,1,0,0,-1,-2,-1,-2
1514900105027820,-1,0,-2,-1,-2,2,-2,-2
1514900105036814,-1,0,-1,-2,-1,-2,-1,-1
1514900105036814,-1,-2,-2,0,-1,0,-1,0
1514900105051825,1,-2,-2,-1,-1,0,0,-1
1514900105051825,-2,-1,-1,0,-1,-1,-1,-1
1514900105053326,-2,0,-2,-1,-1,-1,0,0
1514900105053326,-1,-1,-1,-3,-1,0,-2,-1
1514900105074841,-2,-3,-1,-1,-3,-1,-1,-1
1514900105074841,0,-2,-1,-1,-3,-2,-1,-3
1514900105077343,-2,0,0,1,-1,-1,0,-1
1514900105077343,-3,-2,-1,0,-1,-1,-2,-2
1514900105087850,-2,-2,1,-1,0,0,-2,0
1514900105087850,0,-2,-2,-1,-2,-2,0,0
1514900105096858,-2,-1,-2,-1,0,-1,0,-2
1514900105096858,-1,0,0,-1,-1,-1,0,-1
1514900105111868,0,-2,0,-1,-2,0,-1,0
1514900105111868,-2,-7,-4,-3,-1,-1,-2,0
1514900105113369,-2,0,-1,-1,-2,-1,-2,-2
1514900105113369,-1,-1,-2,-2,0,-1,-3,-1
1514900105134384,0,0,-1,1,-1,-1,-1,-3
1514900105134384,-1,0,0,-1,-1,-3,-1,0
1514900105135885,0,-1,-1,0,-2,0,-1,-1
1514900105135885,0,-3,-2,2,-3,-3,-1,-2
1514900105147896,-2,-3,-1,0,0,-2,-2,-2
1514900105147896,-2,0,-2,0,-2,1,-1,0
1514900105156899,-1,-1,-1,-1,-1,-1,0,-3
1514900105156899,0,-2,-2,-1,-2,0,-1,-1
1514900105171963,0,0,-2,-1,-1,-2,0,0
1514900105171963,-1,1,-1,-2,0,-2,-1,-2
1514900105173455,0,-1,-2,-1,-3,0,-1,-1
1514900105173455,0,-2,-1,-2,-2,0,0,0
1514900105194470,0,0,-2,-1,-2,-1,-1,-2
1514900105194470,-2,0,-2,-2,-2,-1,-1,0
1514900105196011,-1,1,-2,-1,-2,-1,-1,-3
1514900105196011,1,-1,1,-1,-1,1,-2,-2
1514900105207990,-1,-2,0,0,0,-1,0,0
1514900105207990,0,1,0,0,0,-1,-1,0
1514900105218992,-1,-1,-2,0,-2,-1,-2,-1
1514900105218992,-2,-2,-2,-1,-2,-2,0,-2
1514900105231529,0,-1,1,-3,-1,-1,-1,-1
1514900105231529,-1,-1,1,-2,0,-1,0,0
1514900105233512,-1,-2,1,-2,-1,-1,-1,0
1514900105233512,-2,-1,-2,-1,0,0,-1,-2
1514900105254022,-1,-3,-2,1,-2,-1,0,-2
1514900105254022,-1,-1,-1,-1,-1,-1,0,0
1514900105260533,0,0,-1,-1,1,0,0,-2
1514900105260533,-1,-1,-1,-1,-1,-1,0,0
1514900105268033,-1,-1,0,-1,-2,-1,-2,0
1514900105268033,0,0,0,-1,-1,-2,-1,0
1514900105277028,-2,-6,-5,-1,-1,-2,-2,-2
1514900105277028,-1,0,-1,-1,0,-1,-2,-2
1514900105299045,-1,-1,-3,-1,1,-1,-1,-2
1514900105299045,-1,1,-1,-1,0,-2,-2,0
1514900105305549,-1,-1,-1,0,0,-2,-2,0
1514900105305549,-1,-2,0,-3,-2,-1,0,-1
1514900105315056,0,-2,-1,-3,0,-1,-1,1
1514900105315056,-2,-1,0,-1,-2,0,-1,-3
1514900105318571,-2,0,0,-2,-2,-2,-2,-1
1514900105318571,0,-2,-1,1,-1,-1,-2,-1
1514900105328065,-2,-1,-2,-1,-1,-1,1,0
1514900105328065,-1,1,0,0,-2,0,-1,-2
1514900105337070,-2,0,0,0,1,-1,-2,-2
1514900105337070,-1,-3,0,-2,-1,-1,-1,0
1514900105352083,0,-1,-1,0,-2,0,-1,0
1514900105352083,-2,0,-2,-4,-2,-1,0,0
1514900105353594,-1,0,-1,-2,0,-2,-2,-2
1514900105353594,-2,-5,1,-1,-1,-2,-2,-1
1514900105374096,-2,-2,-1,-2,0,0,-2,0
1514900105374096,-1,1,-3,-1,-3,2,-2,-2
1514900105376608,-1,-4,-1,-2,-1,-1,0,0
1514900105376608,-1,-2,-1,0,0,-1,0,-1
1514900105388116,-2,-1,-1,-1,0,-1,-1,-1
1514900105388116,-2,0,-1,-1,-2,-1,-1,-1
1514900105396613,2,1,-2,-1,-1,0,-1,-3
1514900105396613,0,-1,-2,1,1,-1,-1,0
1514900105413151,-1,-2,-2,-1,-2,0,0,-1
1514900105413151,-1,-2,-1,-1,0,-1,0,0
1514900105416627,-2,0,-1,-2,-3,0,1,-2
1514900105416627,-2,-1,-1,-1,-1,-1,-2,-2
1514900105434144,-1,-1,0,0,-1,-3,-1,-2
1514900105434144,-1,-2,1,2,-1,-2,0,0
1514900105440161,-2,0,-1,-1,-1,-2,0,0
1514900105440161,1,1,-1,-3,-3,-1,0,-1
1514900105456655,-1,-2,-1,-1,-2,-3,-2,2
1514900105456655,-1,-3,-2,-1,-1,-1,-2,-1
1514900105458156,-1,0,-1,0,-1,-2,0,-1
1514900105458156,-1,1,-2,-2,-1,0,-1,-2
1514900105471675,0,-3,-2,0,0,-2,-1,-3
1514900105471675,1,-1,-2,-1,-1,-2,-1,-1
1514900105473180,0,2,-1,0,-1,-1,-1,0
1514900105473180,-1,1,-1,-2,-1,-2,0,0
1514900105494205,0,-3,0,-2,-1,1,-1,1
1514900105494205,0,-2,0,-1,0,-1,-1,0
1514900105500686,-1,0,0,1,-1,0,-1,-1
1514900105500686,-2,-1,-2,0,0,0,-3,-1
1514900105518700,-1,-3,0,-1,0,-2,-1,-1
1514900105518700,0,-2,-1,0,0,-2,0,-3
1514900105522701,0,0,0,-2,-2,1,-2,0
1514900105522701,-1,1,-1,0,-2,-2,1,-1
1514900105531708,-4,-2,0,-1,-2,-1,-3,-1
1514900105531708,-2,0,-3,-1,-1,0,-3,0
1514900105533209,-1,0,-1,-3,-1,-1,-2,-1
1514900105533209,-1,0,0,-2,-2,-2,-1,0
1514900105554233,-1,-2,-1,-1,0,-1,0,0
1514900105554233,-2,-1,0,-1,-1,-2,0,-1
1514900105555725,-2,1,-1,-2,-2,0,0,-1
1514900105555725,-2,-1,-1,-1,-2,-2,-1,-1
1514900105576739,1,-3,-1,0,-2,-2,-1,-1
1514900105576739,0,-2,-2,-1,-1,-2,-1,0
1514900105578241,0,1,-2,-1,-1,-1,-1,-1
1514900105578241,-1,-1,-1,-2,-1,0,0,0
1514900105591250,0,-3,-1,-1,-2,-1,-1,0
1514900105591250,-1,-2,-1,-1,0,1,-3,-1
1514900105599257,-2,0,-1,-2,0,1,-2,-1
1514900105599257,-3,0,0,-1,-1,-2,-2,-2
1514900105614767,-2,-1,-2,-3,-1,1,-1,-3
1514900105614767,0,0,0,-2,-2,-2,-2,-1
1514900105621772,-1,-1,-2,0,-1,-1,-1,-1
1514900105621772,1,-2,-1,-1,1,0,-1,-1
1514900105636782,-1,0,0,-3,-1,-1,2,-2
1514900105636782,-2,-1,-1,-2,-1,-2,-1,-1
1514900105638283,-1,2,-1,0,1,-1,0,-1
1514900105638283,0,-1,-4,-1,-1,1,0,-1
1514900105651792,-2,-3,-3,0,-1,-3,-2,-1
1514900105651792,0,-1,-1,-2,-1,-1,-1,-1
1514900105657797,-3,-1,0,-1,-1,-1,0,0
1514900105657797,1,-2,-2,0,-2,0,0,-3
1514900105674309,-2,-2,-2,-1,-2,-1,-1,0
1514900105674309,-2,0,1,-1,0,0,-2,0
1514900105675812,-1,-2,-1,0,-2,-1,-1,-1
1514900105675812,-2,-2,-1,-1,-1,1,0,-1
1514900105696824,0,-3,-1,-1,-2,-2,-1,1
1514900105696824,-1,-1,-2,0,-2,-1,-1,-3
1514900105698326,-1,1,-1,-1,-2,-1,-1,1
1514900105698326,-1,-2,-3,-1,-1,-3,-1,-1
1514900105711335,0,-1,-2,0,-3,-2,-1,-2
1514900105711335,0,0,-2,1,-1,-2,0,0
1514900105718841,0,-2,0,-1,-1,-1,-3,-1
1514900105718841,-1,-1,0,-2,-1,-1,-1,-1
1514900105734352,-2,-1,0,-2,0,-2,-1,-1
1514900105734352,-2,0,-2,-1,-1,1,0,0
1514900105735852,-2,-1,-3,0,-2,-1,-1,-2
1514900105735852,0,-2,-1,-2,-2,-1,-2,-1
1514900105756876,-1,-2,-2,-1,-1,1,0,-3
1514900105756876,-1,-1,-2,0,-2,0,0,-1
1514900105758378,-1,1,-2,-1,0,0,-1,-2
1514900105758378,-1,0,-2,0,-1,-1,0,-2
1514900105770879,0,0,1,-1,1,-1,-1,0
1514900105770879,-2,-1,0,-2,-2,1,0,1
1514900105777891,-1,0,0,0,-1,-1,-1,-1
1514900105777891,-1,-2,0,0,-1,-1,0,0
1514900105794413,1,-3,-2,-2,0,0,-1,-2
1514900105794413,0,-1,-1,-1,0,-2,-2,-3
1514900105795912,-1,0,-1,-2,-1,-2,-1,-1
1514900105795912,-1,-2,-1,0,-2,0,0,0
1514900105817912,-2,-1,0,0,-2,-2,0,1
1514900105817912,-2,-1,0,-1,-1,-1,1,-1
1514900105823914,1,0,-2,0,-3,-1,-1,-3
1514900105823914,-1,-1,0,-1,-1,-2,-3,-1
1514900105830919,0,-2,-3,0,1,0,-1,0
1514900105830919,-1,-2,-1,-2,-2,-1,1,-1
1514900105837937,0,2,-1,-2,0,-1,0,-1
1514900105837937,1,-1,-1,-1,0,0,-2,-1
1514900105861944,-1,-1,-1,-2,-2,-1,-1,0
1514900105861944,-2,1,0,-1,-1,-2,0,0
1514900105863446,-2,-1,0,-1,0,0,-1,-3
1514900105863446,-2,0,-3,-2,-3,-1,-1,-1
1514900105876953,-1,-2,1,0,-1,-3,-1,-1
1514900105876953,-1,-2,-1,-1,-1,0,-2,-1
1514900105878454,1,-1,-2,-2,-2,-2,0,-2
1514900105878454,-2,0,0,-3,1,-1,0,0
1514900105890974,-1,-1,0,-1,-1,-1,0,-2
1514900105890974,0,1,-2,-2,-1,-2,-2,0
1514900105897966,-2,-1,0,1,-1,0,-2,-2
1514900105897966,0,-2,-1,-1,-2,0,-1,-1
1514900105914488,0,-3,-4,-2,1,-1,-1,1
1514900105914488,-1,-2,-2,-1,0,-1,-1,-2
1514900105917983,0,1,-2,-1,0,1,-1,0
1514900105917983,-2,-2,0,-1,0,-1,-1,-1
1514900105936994,-1,0,-1,-2,-1,0,-1,-2
1514900105936994,-2,-2,0,-1,-1,-1,-2,-1
1514900105938500,0,-3,0,-2,-2,-1,-2,-2
1514900105938500,-1,-1,-1,-2,0,-3,-1,0
1514900105950507,-2,-1,-2,0,0,-1,-2,0
1514900105950507,-1,1,-1,-2,-2,-1,-1,0
1514900105959523,-1,0,0,-2,0,0,-1,0
1514900105959523,1,0,-1,0,-1,0,-2,-1
1514900105974021,1,-2,-2,-1,-1,0,-1,-1
1514900105974021,-1,0,-2,0,-2,0,0,-3
1514900105976022,0,-1,-1,-1,-1,-1,-2,1
1514900105976022,0,-1,-1,0,-2,-2,-3,-1
1514900105996546,-2,-2,-1,-2,-1,0,-1,0
1514900105996546,-2,-1,-1,0,-1,-2,-2,-2
1514900105998554,-2,1,-3,-3,-3,-2,0,-3
1514900105998554,-1,-1,-2,0,0,-2,-1,-2
1514900106010557,0,-1,-1,0,-2,-2,-2,-2
1514900106010557,0,-2,-1,-1,-2,-1,-2,-1
1514900106021554,0,0,0,-2,-1,0,0,-2
1514900106021554,-1,-2,-2,-2,-2,-2,-1,-2
1514900106034578,-2,-2,-1,-1,-2,-1,-2,1
1514900106034578,-1,-2,-3,-1,0,-1,-1,-1
1514900106035564,-2,-2,-2,-1,-2,-1,-2,-1
1514900106035564,-1,-3,-2,0,0,0,0,-1
1514900106056589,-1,-2,-1,0,-1,0,-1,-1
1514900106056589,-2,1,-2,0,-1,0,-1,-1
1514900106058098,-3,2,-1,-2,0,-1,-2,0
1514900106058098,1,1,0,-1,-1,-2,-1,-1
1514900106070088,-2,-3,-2,-1,-1,-2,-1,-3
1514900106070088,-1,0,-2,-3,-1,-1,-1,-1
1514900106079094,-2,-1,-2,1,-3,1,0,-1
1514900106079094,-1,-2,-1,1,-3,0,0,0
1514900106094106,-1,-2,1,-2,-2,-2,-2,-1
1514900106094106,1,0,-3,-2,-2,-3,1,-1
1514900106095606,-2,-2,-1,-2,-1,-3,-1,-2
1514900106095606,-1,-3,-1,0,-1,-1,0,-1
1514900106117122,-1,-2,-2,0,-2,0,-1,0
1514900106117122,-2,-2,-1,0,0,-1,-2,-1
1514900106120624,-1,1,-3,-1,-2,1,-1,-1
1514900106120624,-1,-2,-1,-1,1,-2,-2,-1
1514900106130131,0,-1,-2,-2,-1,-2,-1,-2
1514900106130131,-2,0,-1,-1,0,-3,0,-1
1514900106139638,-2,0,-1,-2,-1,1,-1,-2
1514900106139638,0,-1,-1,-1,-2,-2,-2,-2
1514900106162688,1,-1,-1,0,0,-1,1,-1
1514900106162688,0,0,0,-1,-1,0,-1,-1
1514900106168160,1,-1,0,0,0,-2,-2,1
1514900106168160,-2,-2,-1,-2,0,-1,0,-1
1514900106176664,0,-1,-1,-3,-1,0,1,0
1514900106176664,0,0,-1,-1,0,-1,-1,-1
1514900106178164,-1,-2,-1,-1,-1,-1,-2,-1
1514900106178164,-2,-2,-2,-1,-1,0,-3,-1
1514900106190173,-1,1,-1,1,-1,-3,-2,0
1514900106190173,0,0,-2,-1,-2,2,-2,-1
1514900106199185,-1,0,-1,-1,-1,-2,-2,-2
1514900106199185,-1,-1,0,-2,-2,-1,0,-2
1514900106214691,0,-3,-2,0,-1,0,-1,-1
1514900106214691,-1,-2,-2,-2,-1,-1,0,0
1514900106218694,0,-1,-1,0,1,-1,-1,0
1514900106218694,0,-2,-1,-1,0,0,-2,-1
1514900106236706,-1,-1,-1,-2,-1,0,-3,0
1514900106236706,1,0,-1,-1,-1,-2,-3,-2
1514900106238207,-1,0,0,-2,-2,-2,0,-1
1514900106238207,-1,-1,-2,0,-2,-4,0,-2
1514900106251219,-1,-2,-2,1,-2,-2,-2,0
1514900106251219,-2,0,-1,-2,0,0,-2,-1
1514900106259222,0,0,-2,-1,0,-1,-1,-2
1514900106259222,0,-3,-1,-2,0,-2,0,1
1514900106274232,-2,-2,-1,0,-2,-1,-1,-1
1514900106274232,0,-1,0,-1,0,-1,0,0
1514900106275740,0,0,-1,0,-1,-2,-2,0
1514900106275740,-1,-2,-1,-1,-1,0,-2,-1
1514900106296758,-2,-3,-1,-1,1,-2,0,-1
1514900106296758,-1,-2,-1,0,-1,-1,-2,-3
1514900106298259,-2,0,-2,-2,-2,0,0,-1
1514900106298259,0,-2,0,-1,-1,1,-1,0
1514900106310268,0,-1,0,0,-1,0,-1,-1
1514900106310268,0,-2,-2,-2,-3,0,-1,-1
1514900106321281,-2,2,-1,-1,0,-1,-3,-2
1514900106321281,0,-2,-1,-2,-1,-1,-1,0
1514900106334279,0,-1,0,-2,-1,-1,-1,-1
1514900106334279,-1,-2,-1,-1,0,-3,-1,0
1514900106335786,-1,-2,-2,1,-1,-2,-1,-1
1514900106335786,-2,-1,-2,0,-1,-2,-1,0
1514900106356792,0,-2,-1,-1,1,-1,-2,0
1514900106356792,1,0,1,-2,0,-1,0,-1
1514900106358292,-1,-2,-1,-2,-1,0,-1,-2
1514900106358292,0,0,0,-1,-2,-1,0,-1
1514900106379319,-2,-1,-1,-1,-1,-1,-1,-1
1514900106379319,-1,-1,-1,0,-2,-1,0,-1
1514900106380820,-1,-1,-2,-3,-1,-1,-1,-1
1514900106380820,-2,0,-2,0,-1,-1,-1,-1
1514900106394327,0,-2,-2,1,-1,-1,0,-1
1514900106394327,-1,-1,-1,0,-1,-2,0,-1
1514900106395828,1,-3,1,-2,-1,-1,-1,-1
1514900106395828,0,-2,-1,-1,2,-1,0,-1
1514900106417334,-1,-1,-1,-1,-1,-3,0,-1
1514900106417334,0,0,-2,0,-1,0,-2,-1
1514900106420837,0,-1,0,0,-2,0,-1,0
1514900106420837,0,0,-1,-1,-1,-2,-2,-2
1514900106439361,-2,-1,-1,-2,-2,-1,-2,-1
1514900106439361,-2,-1,-2,-2,-2,-2,-1,-2
1514900106440851,-1,-3,0,-2,0,-1,-1,-2
1514900106440851,-1,-1,-3,-1,-1,-1,-1,-2
1514900106454360,0,-1,0,-2,-2,-1,-1,-2
1514900106454360,-2,-1,-2,-1,-2,1,-2,-1
1514900106455862,-3,-1,-4,1,-1,0,1,-3
1514900106455862,-2,-1,-1,-1,-2,-1,-2,-1
1514900106476889,0,-1,1,-1,-2,-1,-2,-1
1514900106476889,-1,-2,-1,-2,-1,-1,-2,1
1514900106478377,-1,-1,-2,-1,-2,-1,-1,0
1514900106478377,0,0,-2,1,-2,-1,0,0
1514900106499408,-3,-1,-1,0,0,0,-2,0
1514900106499408,-3,-2,1,-1,0,-2,-2,0
1514900106500894,-2,-2,0,-1,0,-1,-2,0
1514900106500894,1,-2,0,-1,-1,0,-1,-1
1514900106514419,-1,-2,-1,-3,0,0,-2,-1
1514900106514419,-1,0,-4,-2,-1,1,-1,-3
1514900106521407,-2,0,-2,-2,-2,-1,-1,-1
1514900106521407,1,0,-1,-2,-2,-1,-1,-1
1514900106536918,0,-4,0,-2,-1,0,0,0
1514900106536918,-1,-1,-1,-1,-1,-2,-1,0
1514900106538419,-1,0,-1,-1,-2,-1,-1,-1
1514900106538419,-1,-2,-1,0,-1,-1,-1,-1
1514900106559434,1,-1,-1,0,-2,-2,-1,-2
1514900106559434,-1,-1,0,-1,-2,-2,0,-1
1514900106560435,-1,-1,-3,0,-1,-2,-1,-2
1514900106560435,-4,0,-1,-1,-1,-2,0,-1
1514900106573444,-1,-2,-3,-1,-2,0,-1,-1
1514900106573444,-1,0,1,-2,-2,-1,-1,-2
1514900106580449,-1,0,0,-3,-3,0,-1,-2
1514900106580449,-2,-5,-1,-1,-2,0,-1,-2
1514900106596462,-1,-1,-1,0,0,-1,0,-1
1514900106596462,0,-1,-1,0,0,0,0,-1
1514900106598501,-2,0,0,0,-1,1,-1,0
1514900106598501,-2,-1,0,-2,0,-1,-1,0
1514900106619977,0,-2,0,-2,-1,-3,0,0
1514900106619977,0,-2,-1,0,-3,-2,-2,-2
1514900106622479,-1,0,0,-2,-2,0,0,-2
1514900106622479,-1,-4,-4,-1,0,0,-1,-1
1514900106633486,0,-2,-1,-1,-1,-1,0,-2
1514900106633486,-2,-2,-2,-1,-1,-1,-1,0
1514900106640491,-1,-1,-2,-1,0,-2,0,-2
1514900106640491,0,-1,-1,-2,-2,1,-2,-1
1514900106656502,-2,-1,-2,-2,-3,-2,-1,-2
1514900106656502,-2,0,0,-2,-2,-2,-2,-1
1514900106658504,-1,-3,0,-2,-1,-3,-2,0
1514900106658504,-1,0,-1,0,-1,-1,-1,-1
1514900106679018,-1,-1,0,0,-1,-1,1,-2
1514900106679018,-1,0,-1,-1,-1,0,1,-1
1514900106681020,-2,-1,0,0,-1,0,-1,-2
1514900106681020,-1,-1,-2,-1,-2,-1,0,-1
1514900106693528,-1,-3,-1,0,-1,-1,0,0
1514900106693528,0,-2,-1,0,-2,-1,-2,-1
1514900106700548,-1,0,-2,-2,0,-1,-1,-2
1514900106700548,0,-2,-2,0,-2,-3,-4,-1
1514900106716546,0,0,-2,-2,0,-2,-2,0
1514900106716546,-1,0,-1,-2,-1,0,0,-1
1514900106718548,0,0,-2,-2,-2,0,-1,-1
1514900106718548,0,-2,0,1,-1,-2,0,-1
1514900106739061,-2,0,-1,-2,-1,-2,-1,-1
1514900106739061,0,0,-1,-2,-2,-1,-1,-3
1514900106740574,-1,-2,-2,-1,-1,-1,-1,-1
1514900106740574,-2,-1,-1,-2,0,-1,-1,-1
1514900106753583,0,0,-1,1,-1,0,0,-2
1514900106753583,0,0,-2,-1,-2,-1,0,-1
1514900106761076,0,0,-1,-1,-1,-2,0,-2
1514900106761076,0,-3,0,-1,-1,-3,0,-1
1514900106776587,0,-3,-1,1,2,2,-1,-2
1514900106776587,-1,-1,-1,1,1,-2,-2,-1
1514900106778088,-2,-2,-1,0,-1,0,-1,-2
1514900106778088,-2,-1,-2,-1,-1,-1,-1,0
1514900106799104,-2,0,-1,-2,0,-1,-2,1
1514900106799104,0,-1,-2,-1,-3,-1,1,-1
1514900106801106,-1,0,-2,-1,-1,-1,-1,0
1514900106801106,1,-1,0,-1,1,-1,-1,-2
1514900106815115,1,-2,1,0,0,0,-1,-1
1514900106815115,-1,-2,0,-2,0,0,-1,0
1514900106821129,-2,-1,-1,-1,-1,-3,-3,0
1514900106821129,-1,-2,-2,-2,-2,-1,0,-1
1514900106836630,-1,-2,-2,1,-3,-2,-1,-3
1514900106836630,-1,-2,0,-1,-1,-1,-2,-1
1514900106838131,0,0,-1,-2,-1,-2,-1,-2
1514900106838131,-2,-2,-1,-1,0,0,-1,0
1514900106859146,-1,-2,-2,-1,-1,-2,-2,-2
1514900106859146,0,1,-1,-1,-1,-1,-1,-2
1514900106860647,-1,-1,0,0,-1,-1,-1,-2
1514900106860647,-1,-1,-1,-2,-1,-1,-1,0
1514900106872659,-2,-1,-1,-2,-2,-2,-1,0
1514900106872659,-2,-1,-1,0,0,-1,-2,0
1514900106881667,-1,-1,-1,-1,-1,-1,-1,0
1514900106881667,-3,-2,0,-1,-2,0,-1,-2
1514900106896673,0,-1,-1,-2,0,-1,-1,-1
1514900106896673,0,-1,-2,-2,-1,-1,0,-1
1514900106898187,1,-2,0,-2,-1,-1,-1,-3
1514900106898187,0,-1,-1,-2,-2,-1,-2,-3
1514900106920189,-2,0,1,-1,-1,-1,0,-1
1514900106920189,-1,-1,0,-1,-1,-1,-2,-2
1514900106921690,-1,-2,-2,-2,-2,-2,0,-1
1514900106921690,-1,-1,-3,0,-1,0,0,1
1514900106941704,0,-1,-2,-2,-1,-2,-1,-2
1514900106941704,0,0,-4,0,-2,-1,-2,0
1514900106943723,-1,0,-1,-1,-1,-1,0,-2
1514900106943723,-2,-2,-1,-1,-2,-1,-2,-2
1514900106956714,-2,-2,-2,-1,0,0,-1,0
1514900106956714,-1,-1,-1,1,-2,-4,-1,-2
1514900106958216,-2,-2,-1,-1,2,-2,1,1
1514900106958216,1,-2,-1,0,0,0,0,-2
1514900106979232,-1,0,-1,-2,0,0,-1,-2
1514900106979232,-1,0,-1,-1,-1,2,-1,-3
1514900106980732,-2,-2,-1,0,-3,1,-2,-1
1514900106980732,-3,0,0,0,0,-1,-1,-1
1514900106992742,-1,-1,0,-1,-1,-2,-1,-1
1514900106992742,-3,-2,-1,-1,-1,-2,-1,-2
1514900107002748,-1,-2,-1,-2,-1,-1,1,-1
1514900107002748,0,-2,-2,-1,0,0,-1,1
1514900107016758,2,-2,-2,-1,-2,0,-2,0
1514900107016758,0,-1,-1,-2,-1,0,-1,0
1514900107018259,0,-1,-1,-1,-3,-1,-2,-2
1514900107018259,1,-3,0,-2,-2,0,-1,-2
1514900107039273,-1,-1,-2,-1,-1,-2,1,-2
1514900107039273,0,-1,-1,0,-1,0,0,0
1514900107040774,-2,0,-1,-1,1,-1,0,-1
1514900107040774,0,-1,-2,-2,-1,-2,0,-1
1514900107052782,-2,0,0,-1,-1,-1,0,-1
1514900107052782,-2,-1,-3,-1,-2,0,0,-1
1514900107068294,-1,-1,-1,-2,-2,0,-2,-2
1514900107068294,-2,-2,-1,-3,-1,-2,-1,-2
1514900107076800,0,-3,-3,-1,-2,-1,-2,-1
1514900107076800,-1,0,1,-2,0,-2,-2,-1
1514900107078301,0,-2,-1,1,-1,0,-3,0
1514900107078301,-1,-3,-3,-2,-2,-1,-2,1
1514900107099315,-2,0,-2,-1,-1,0,1,0
1514900107099315,-1,0,0,-1,0,-1,0,-1
1514900107100818,-1,0,-1,-1,-1,-1,-2,-1
1514900107100818,1,-1,1,-2,1,-2,-2,-2
1514900107113336,-1,-1,0,-1,-2,1,-1,1
1514900107113336,-1,1,-2,-1,-1,-1,-1,0
1514900107123332,-3,-2,0,-2,0,-2,-1,-2
1514900107123332,-2,-3,-2,0,-3,-2,0,-2
1514900107136851,-1,0,-1,-2,0,-2,-2,-1
1514900107136851,0,-2,0,-2,0,-2,0,0
1514900107138352,1,-1,-3,-1,0,-1,-1,0
1514900107138352,-1,1,0,0,-2,-3,-2,1
1514900107159368,0,-1,-2,0,-3,-1,-2,-1
1514900107159368,-1,1,0,-1,-1,0,-2,-1
1514900107160869,-1,-1,-2,-1,0,-1,0,-1
1514900107160869,0,-2,-2,-1,-1,0,0,-1
1514900107172868,-2,-1,-4,0,-2,-2,0,-1
1514900107172868,-1,-2,-1,-1,-1,-1,-1,-1
1514900107181886,0,-2,0,-2,-2,-2,-1,-2
1514900107181886,-1,0,-1,-1,-1,-1,-1,-1
1514900107196885,-1,0,1,-2,-1,-2,-1,-1
1514900107196885,-1,-1,-2,-1,-1,-3,-3,0
1514900107198401,-1,0,-1,-1,-1,-2,0,0
1514900107198401,-1,-3,-2,-1,-2,-1,0,0
1514900107220401,-3,-1,-1,0,0,-1,0,0
1514900107220401,0,1,-2,-1,-2,0,0,-1
1514900107223903,-1,0,0,-1,0,0,-1,-2
1514900107223903,-2,-2,0,-1,-1,0,-1,0
1514900107232910,0,-1,0,0,-2,-1,-1,-1
1514900107232910,-2,-1,-1,-2,0,-1,-1,-1
1514900107241916,0,-1,-1,-1,-2,1,-3,-1
1514900107241916,0,0,0,-1,0,-2,-1,0
1514900107256958,-1,-1,-1,-3,0,0,-1,-3
1514900107256958,-1,0,-1,-2,-2,-2,-1,-2
1514900107258428,-2,0,-1,-1,-2,0,-1,-2
1514900107258428,-1,-1,0,-1,-1,0,-1,-2
1514900107279442,-1,-2,0,-1,1,0,-1,1
1514900107279442,-1,-1,-2,0,-2,-1,-2,-1
1514900107280943,0,-1,-1,0,0,-3,-1,-1
1514900107280943,1,-2,-1,2,0,-1,-1,0
1514900107292953,-1,-2,-1,-2,-1,-3,-1,-1
1514900107292953,0,-1,-2,-2,-1,0,1,-3
1514900107301960,-1,-2,-1,-1,-2,-2,-2,0
1514900107301960,-1,-2,-2,0,-2,0,-2,-1
1514900107317970,1,0,-2,0,-2,-1,-1,-2
1514900107317970,-2,-1,0,-1,-1,-2,-1,-3
1514900107321472,-1,-2,-1,0,-2,-1,-2,-1
1514900107321472,-1,-1,-1,-2,0,-1,-1,-2
1514900107339985,-1,0,-1,-1,0,-1,-1,-1
1514900107339985,0,1,-1,-2,0,1,-2,1
1514900107341487,-1,-2,-1,-1,-2,-1,-1,0
1514900107341487,-2,-3,-1,-2,-1,-3,-1,-1
1514900107361502,-3,-1,-1,-1,-1,-2,-1,-1
1514900107361502,0,0,-1,-2,-1,-1,-1,-1
1514900107363502,0,-1,-1,-3,-1,-2,0,-2
1514900107363502,-1,-1,-1,-2,-3,-3,-1,-1
1514900107376511,0,-1,-2,-1,-1,0,-2,-1
1514900107376511,-2,0,-2,-1,-1,-1,-1,-2
1514900107378512,0,-2,-1,0,-2,0,-1,-2
1514900107378512,-1,0,0,-1,-1,-1,-1,-2
1514900107399029,1,-1,1,0,-2,-1,0,0
1514900107399029,-2,0,-1,-2,0,0,0,-2
1514900107401030,-2,-3,-2,0,-1,-1,0,-2
1514900107401030,-1,-3,0,-1,-2,-2,-1,-2
1514900107422544,0,-1,-3,0,-1,-1,1,-2
1514900107422544,0,-1,0,-1,-2,-1,-2,-2
1514900107428048,-1,0,0,-1,-1,0,-1,-1
1514900107428048,-1,0,-1,-1,0,-1,0,0
1514900107436554,-3,0,-1,-2,0,-2,-1,-2
1514900107436554,-2,-1,-2,0,-1,-2,-1,-2
1514900107438555,-1,-2,-3,-2,0,-1,-1,0
1514900107438555,1,-2,-1,-1,0,0,0,1
1514900107459071,-1,-1,-1,-1,-2,0,0,-1
1514900107459071,-2,0,-1,-1,0,-1,-1,-1
1514900107460571,-1,-2,-1,-1,0,0,-1,-2
1514900107460571,1,-2,0,0,-1,-1,0,0
1514900107481624,-2,-2,-2,-1,-1,-2,0,-1
1514900107481624,-2,0,0,-2,-2,0,0,0
1514900107483099,-1,1,-2,-2,0,-2,-1,-1
1514900107483099,-2,-3,-1,0,-1,1,-1,-1
1514900107496110,2,-2,0,-1,-2,-1,-2,0
1514900107496110,0,0,-1,0,-2,0,-1,-2
1514900107503101,-1,0,0,1,-1,1,-2,1
1514900107503101,-1,0,-1,-1,-1,-1,-1,-1
1514900107520613,-3,-1,0,-2,0,1,-1,0
1514900107520613,0,-1,-1,-1,0,-1,0,-1
1514900107524116,0,-3,0,-2,0,-1,0,0
1514900107524116,-1,-3,-2,-1,-2,0,-3,-1
1514900107541628,0,-2,-2,-2,-1,-1,-2,-2
1514900107541628,0,-1,0,-2,-1,-1,-1,-1
1514900107544131,-1,-2,-1,-1,-2,-2,-1,-1
1514900107544131,-3,-2,-2,-1,-1,0,-2,-1
1514900107564161,-2,-1,-2,-2,-1,-3,-2,0
1514900107564161,-1,0,-1,-1,-1,0,-1,-1
1514900107565645,0,-2,-1,0,-2,-2,-1,-1
1514900107565645,-2,-2,-1,-2,-1,-2,0,-1
1514900107578154,-1,1,0,0,-2,-1,0,-1
1514900107578154,-1,0,-2,-1,-2,-1,-1,0
1514900107592672,-1,-1,0,-1,-2,-1,-2,-1
1514900107592672,-1,-1,-1,-1,0,-1,-1,0
1514900107601671,-1,0,-1,1,-1,-2,-1,-1
1514900107601671,-1,-1,0,0,0,-1,0,0
1514900107603171,-1,-2,-2,-1,-1,-2,-1,-1
1514900107603171,0,-2,-1,-2,0,-1,-1,-1
1514900107617181,-2,1,-2,-2,-2,-2,-1,-2
1514900107617181,-2,-1,-1,0,-2,-1,0,-2
1514900107623686,-1,-1,0,0,-1,-2,-1,-2
1514900107623686,0,-1,0,0,-2,-1,1,0
1514900107639197,-1,-2,-1,-2,-1,0,0,-1
1514900107639197,-1,-1,-2,-1,-1,-2,-1,-1
1514900107640698,-2,-3,-1,-3,-1,-2,-1,0
1514900107640698,-1,-1,-3,0,-2,-3,-2,-1
1514900107661713,-1,-2,-1,-1,-2,0,0,-1
1514900107661713,0,2,-2,0,-1,1,-1,-2
1514900107663214,1,-1,-2,0,0,0,-1,-1
1514900107663214,-2,-3,-2,-2,1,-2,-2,-1
1514900107676272,-1,-1,-1,-1,0,-1,-3,0
1514900107676272,-2,-1,-2,0,-2,-1,-2,0
1514900107682789,-2,-2,-1,0,-1,-2,-1,-3
1514900107682789,0,-2,-1,0,-2,0,-1,-1
1514900107699309,0,-1,-2,-2,-1,0,0,-2
1514900107699309,-2,1,-1,-1,0,-1,0,-1
1514900107700790,-2,1,-1,0,0,-2,-3,0
1514900107700790,-2,-2,-1,-1,-3,-2,-2,-1
1514900107721804,-1,0,0,0,0,-1,-1,-1
1514900107721804,0,0,-2,-2,-3,0,-2,-1
1514900107723306,-2,0,-2,-2,-1,0,0,-2
1514900107723306,-1,0,0,-2,-1,-1,-1,-2
1514900107736315,-1,-1,-2,-1,-1,0,0,0
1514900107736315,-1,-2,0,-1,0,-1,-2,-2
1514900107742820,0,-2,-1,0,-1,-1,-1,0
1514900107742820,-2,-2,0,0,-1,0,1,-1
1514900107759330,-2,-1,-1,0,0,-1,-1,-1
1514900107759330,-1,-1,-2,-2,-2,-1,-1,-1
1514900107760832,0,-2,0,-2,-1,0,0,0
1514900107760832,0,-2,-1,1,-1,0,-2,-2
1514900107781859,-2,0,0,-2,-2,0,-2,0
1514900107781859,-3,1,-3,-1,-1,0,-1,-1
1514900107783359,-1,-1,-2,-2,-2,-3,-2,-1
1514900107783359,0,0,-1,-2,0,0,-1,-1
1514900107795865,0,1,0,-1,1,0,-2,-4
1514900107795865,-1,-2,-1,0,0,0,-1,-1
1514900107802862,-2,-1,0,0,-2,0,0,-1
1514900107802862,0,-3,0,0,-2,-1,0,-2
1514900107819875,-1,-1,-1,-1,-3,-3,0,2
1514900107819875,-1,-1,0,-2,-2,-1,-2,0
1514900107823386,-2,-2,-2,-1,0,0,0,-1
1514900107823386,-1,-2,-2,-1,-2,-3,-2,-1
1514900107841907,1,-1,-2,-2,-1,-2,0,-2
1514900107841907,-1,-1,0,0,0,-1,-1,-1
1514900107843400,-1,-2,0,-2,-2,-1,-1,-1
1514900107843400,-1,-2,-1,-1,-2,-1,-1,2
1514900107864414,0,0,-1,-1,0,-1,-1,1
1514900107864414,-2,0,-2,-2,0,-1,-2,-1
1514900107865906,-1,-1,-1,-1,0,-1,-1,-1
1514900107865906,-1,-3,-1,-1,0,0,-1,-1
1514900107879415,-1,-2,0,0,-2,-1,-2,0
1514900107879415,0,0,-1,-1,-1,-1,0,-2
1514900107880929,-1,0,-1,0,-2,-1,-4,-1
1514900107880929,-3,-4,-3,-2,0,-1,-1,-2
1514900107901936,0,-1,0,-1,-1,0,-1,-2
1514900107901936,-1,-1,-1,-2,-2,-3,-1,-2
1514900107903933,-1,0,-1,0,-1,-1,-3,-2
1514900107903933,1,0,0,-1,-1,-2,0,-1
1514900107915441,-2,0,-2,0,-1,1,1,-2
1514900107915441,-1,-1,0,-1,-2,-3,-1,0
1514900107924447,0,0,-1,-1,-2,-1,1,1
1514900107924447,-1,-1,1,-1,-1,-3,1,0
1514900107939458,0,-1,-3,-2,-1,-2,-2,0
1514900107939458,-1,-2,0,-2,0,-1,0,-1
1514900107940969,-2,-3,-2,0,-1,-2,0,-3
1514900107940969,-1,-1,-3,0,-1,-1,-2,1
1514900107961976,-1,-1,-2,-2,-1,-1,-1,-3
1514900107961976,-1,0,-2,0,-1,0,0,-2
1514900107963484,0,-2,-1,-2,-2,-2,-1,-3
1514900107963484,-1,-1,-1,-2,-2,0,-1,-2
1514900107975483,-3,-1,0,0,0,0,-2,-1
1514900107975483,-1,0,-2,-1,0,-1,-2,0
1514900107984490,0,-2,-2,-1,-2,-1,0,1
1514900107984490,-2,-1,-1,0,-2,-1,0,-1
1514900107999000,-1,0,-2,0,-2,0,0,-1
1514900107999000,-2,0,-1,-1,-1,-1,0,0
1514900108001002,-1,1,-2,-1,-1,-3,0,-1
1514900108001002,-1,-3,0,-4,-1,0,-2,1
1514900108021517,0,-2,-1,-1,-1,-1,-2,-2
1514900108021517,0,0,-1,-3,-1,-1,-2,-1
1514900108023519,-1,-2,0,-1,-2,-1,-1,-1
1514900108023519,-2,-2,0,0,0,-1,0,0
1514900108036028,-1,-2,-1,-2,-2,-1,-1,-1
1514900108036028,0,-3,-1,-1,-3,-1,0,-2
1514900108044535,0,-1,-2,-1,0,-1,-2,0
1514900108044535,-2,-1,0,0,-4,-2,-1,-1
1514900108059544,-1,0,0,0,-2,-2,-2,-1
1514900108059544,0,1,-2,0,-1,-2,1,-3
1514900108061043,-1,-3,-1,-1,-1,-3,-1,-1
1514900108061043,0,-2,-2,-1,-1,-1,-1,-1
1514900108082559,-1,1,-1,-1,-1,0,-1,-1
1514900108082559,-1,-1,-1,-1,-1,-1,-1,-1
1514900108086062,-2,-2,-2,-1,-1,-1,0,-2
1514900108086062,-1,-2,-2,0,-1,-2,0,-2
1514900108095569,-2,-2,-1,-1,-1,-1,-1,0
1514900108095569,-1,-1,-2,0,-1,-2,-1,-2
1514900108110579,-1,-2,-1,-3,-1,2,-2,-1
1514900108110579,-2,-2,0,-1,-2,0,0,-2
1514900108119585,-1,1,1,-1,-1,-1,0,-1
1514900108119585,-1,2,-1,-1,-1,-1,-1,-1
1514900108121088,0,-1,0,-1,0,0,-1,-1
1514900108121088,0,-2,-2,0,1,-2,-4,-1
1514900108142101,-1,-1,0,-1,-1,-1,-1,0
1514900108142101,-2,-1,-2,-1,-2,-3,-3,0
1514900108143603,-1,0,-2,-1,-1,-1,-1,1
1514900108143603,-2,-1,0,0,1,-2,-2,-1
1514900108155613,0,-1,-2,-1,-2,-2,-1,-2
1514900108155613,-2,-1,-1,-3,-1,-1,-1,1
1514900108172626,0,-3,0,0,-1,0,-1,1
1514900108172626,-2,-1,-3,0,0,1,-2,-1
1514900108179129,-1,-1,-1,-1,-1,-2,0,-2
1514900108179129,-1,-1,-1,-1,-2,0,-1,-2
1514900108180628,-2,-2,0,0,0,-3,0,-1
1514900108180628,-2,-2,2,-1,-2,0,0,0
1514900108202146,-1,-1,-3,-2,-1,-2,0,-1
1514900108202146,-1,-2,-1,-2,-2,0,-1,-1
1514900108205647,-2,-1,-3,-3,0,-1,-2,-1
1514900108205647,1,-2,-1,-1,0,-1,0,-2
1514900108215153,-1,1,-1,-1,-1,0,-2,-2
1514900108215153,-1,-1,0,-1,-1,-1,-2,-1
1514900108224660,1,-1,1,-1,-2,-1,-1,0
1514900108224660,1,-2,-1,-2,-1,-1,1,0
1514900108239170,-2,0,-2,-2,-1,-2,-1,1
1514900108239170,-2,0,0,-1,0,-1,-1,-1
1514900108240671,-1,-2,-2,1,0,-1,-1,-1
1514900108240671,-1,-1,-2,-1,1,-1,-2,-1
1514900108261687,0,-1,1,-1,-1,-1,-2,-2
1514900108261687,0,-1,-1,-2,-1,-1,-1,0
1514900108263187,0,-1,-1,-1,-2,-2,0,-2
1514900108263187,-1,-2,-1,0,-1,-2,-1,0
1514900108284201,-3,-2,-2,0,-1,-1,0,0
1514900108284201,-1,-2,-2,-1,-1,-2,-2,-2
1514900108286204,-1,-1,0,-1,-1,0,-1,-1
1514900108286204,-1,-1,-1,-1,-2,-1,-2,-2
1514900108299212,0,-3,-1,0,-2,-2,0,-2
1514900108299212,-2,-3,-2,1,-3,-1,0,-1
1514900108300713,0,-1,-2,-1,-2,0,-1,-2
1514900108300713,-1,-1,0,-2,-1,-1,-2,-1
1514900108322731,-1,0,0,-2,-1,-1,0,-1
1514900108322731,0,0,0,-1,-2,-1,-2,-1
1514900108327732,-3,-2,-2,-2,0,-2,-1,-1
1514900108327732,-2,-1,-1,0,-2,0,0,-1
1514900108344244,-1,0,-3,0,0,-1,-1,-1
1514900108344244,-2,-1,-2,-1,-2,-1,0,0
1514900108346246,-1,0,0,-2,-1,-2,-2,-2
1514900108346246,-1,-3,0,-1,-1,0,0,-1
1514900108359255,-2,1,0,0,0,-2,0,-1
1514900108359255,-2,1,-1,-2,-1,-1,-1,-2
1514900108360755,-2,-4,-1,-1,-1,-2,-1,0
1514900108360755,-1,-2,-2,-2,-2,-2,-2,0
1514900108381771,0,-1,-2,-1,-3,-1,-2,-1
1514900108381771,-2,2,-3,-2,0,-1,0,-2
1514900108383272,-1,-3,0,-2,0,-1,-1,-2
1514900108383272,0,-2,-1,0,0,0,-1,1
1514900108404790,-1,0,0,0,0,0,-3,-1
1514900108404790,-1,0,-1,-1,-2,-1,-2,-1
1514900108405791,0,-2,-1,-2,-2,-1,-1,-1
1514900108405791,0,-4,-2,0,0,-3,0,-1
1514900108418797,-1,-2,-1,-2,-2,0,-2,-2
1514900108418797,0,0,-1,1,0,-1,-2,-1
1514900108425301,-1,-1,-1,0,0,-3,0,-1
1514900108425301,-1,0,0,-2,-1,-2,-1,0
1514900108441814,-1,-1,-1,-1,-1,0,0,-1
1514900108441814,-1,0,0,-1,-1,0,-1,-1
1514900108443318,-3,0,-2,0,-3,-2,-1,0
1514900108443318,-1,-2,-3,-1,-1,-2,-1,-2
1514900108464329,-1,-1,-2,-2,0,-2,-1,-1
1514900108464329,-1,-1,-2,-3,-2,-1,0,-3
1514900108465829,0,-2,0,0,-1,0,-1,0
1514900108465829,0,-1,1,0,-2,-1,-2,0
1514900108478338,-2,-1,-2,-1,-1,-1,-1,-2
1514900108478338,0,0,0,-1,-1,-2,-2,-1
1514900108485345,-1,1,-1,-2,-1,-2,0,-2
1514900108485345,0,-1,-1,0,-2,-2,-2,-3
1514900108501857,-1,-1,-1,-2,-1,-1,-2,-2
1514900108501857,-2,-1,-1,0,-1,-1,-1,-1
1514900108503357,-1,-3,-2,0,0,-1,1,-1
1514900108503357,-2,-3,-2,0,-1,1,-1,0
1514900108524873,-1,1,0,0,0,-1,-1,-2
1514900108524873,0,1,-2,-1,-2,0,-1,-1
1514900108530376,1,-2,-1,0,-1,-1,-1,-1
1514900108530376,-2,-1,1,-2,-1,-2,1,0
1514900108538391,-1,-1,-1,-2,-2,-1,-1,0
1514900108538391,0,0,0,-2,-1,-2,0,0
1514900108545396,-1,-4,1,-2,0,-1,0,-1
1514900108545396,-1,-1,0,-1,0,0,-2,1
1514900108561410,-1,-1,-1,-3,-3,2,-2,0
1514900108561410,-3,-2,-1,-2,-1,0,-1,-1
1514900108563408,-1,-1,-2,-1,-1,-2,-2,-1
1514900108563408,-3,-2,-1,-2,0,1,0,-2
1514900108584929,0,-1,-1,-2,-2,0,-1,-1
1514900108584929,-1,-1,-3,-1,-2,-2,-2,-3
1514900108586415,0,-1,-2,-1,-2,-2,-2,-1
1514900108586415,0,-2,-1,-2,-1,-1,-1,0
1514900108598433,-1,-2,-1,0,-1,-1,-1,0
1514900108598433,-1,-1,0,0,-1,0,0,-1
1514900108605430,0,0,-1,-1,-1,1,-1,0
1514900108605430,-1,0,-1,0,-1,-3,1,2
1514900108621440,-2,1,-2,0,-2,-3,-1,-2
1514900108621440,0,-1,-1,0,-1,-3,-2,-3
1514900108623442,-2,-2,-1,-1,0,0,-3,-1
1514900108623442,-1,-2,-1,0,-2,-2,-1,0
1514900108644957,-1,-1,0,-1,0,-2,-1,-1
1514900108644957,0,-1,-1,-2,-3,-1,-1,-1
1514900108646958,-1,-2,-2,0,-2,0,-2,-2
1514900108646958,-1,-2,-1,0,0,0,0,-1
1514900108658466,-2,-1,-1,-2,-2,-2,1,1
1514900108658466,-2,0,-4,-2,-2,-2,0,-1
1514900108664973,-1,-2,0,-1,-1,-1,-1,-1
1514900108664973,-1,-1,0,-3,-2,0,-1,-1
1514900108681482,-1,-1,-1,-1,-3,-1,-2,-1
1514900108681482,-1,-2,-2,-2,-3,1,0,-1
1514900108682984,0,-1,-1,-1,0,-1,1,-1
1514900108682984,-1,-1,-1,-1,-2,-1,-2,-2
1514900108703998,-1,1,-2,-1,-1,1,-2,-1
1514900108703998,0,-1,0,-1,-1,-2,-1,-1
1514900108706000,0,-2,-2,0,-3,-2,0,-3
1514900108706000,0,-3,-1,-2,-1,-1,-1,-2
1514900108719510,-2,-2,-1,-1,0,-1,-1,1
1514900108719510,-1,2,-1,0,0,-1,-1,-2
1514900108726514,-3,-1,1,-1,0,-2,-1,-2
1514900108726514,1,-2,0,0,-2,-3,-2,0
1514900108741525,-1,-2,-2,0,-1,-1,0,-2
1514900108741525,-1,-1,-2,-2,-1,-1,-1,0
1514900108743027,-2,-2,-3,-1,0,-1,-2,0
1514900108743027,-2,-1,-2,-2,-2,-1,0,0
1514900108764041,-1,0,0,-1,-1,0,-1,0
1514900108764041,0,-3,-1,-2,-1,1,0,0
1514900108765542,1,-1,-1,-1,0,-1,-1,-1
1514900108765542,-2,1,0,-2,1,0,-2,-2
1514900108777562,-1,0,-1,-1,0,-3,-1,-1
1514900108777562,-1,-1,0,-2,-1,0,0,-1
1514900108787558,-2,-1,-1,-2,-2,0,0,0
1514900108787558,-1,-3,-2,0,-1,0,0,0
1514900108801067,-1,0,-1,-1,1,-2,-1,-3
1514900108801067,0,-2,-1,-1,-1,-1,-2,-2
1514900108802072,-1,-3,0,0,-2,-2,0,-1
1514900108802072,0,-1,0,-1,-2,-1,0,-2
1514900108824095,-1,-1,0,-1,-1,-1,-1,0
1514900108824095,-1,0,-1,-1,-2,-1,-1,0
1514900108826096,0,-1,-1,0,-1,-1,-1,0
1514900108826096,-1,-2,-2,0,-1,-1,-2,-1
1514900108847102,-2,-1,-2,1,-2,0,0,-1
1514900108847102,0,0,-1,-1,-2,-2,-1,-2
1514900108847599,-1,0,-2,-1,0,-3,0,0
1514900108847599,1,-1,-1,-1,0,1,0,0
1514900108861109,-1,0,-2,-3,-2,-1,-1,-2
1514900108861109,-2,-1,-3,-2,0,0,-1,-1
1514900108861620,0,0,-1,0,-2,-1,-1,-1
1514900108861620,-3,-1,-3,-1,-1,-3,1,1
1514900108883639,-1,-2,-2,-1,-1,-1,-1,-1
1514900108883639,-2,-2,-1,-1,-1,0,0,0
1514900108884125,-1,-1,0,-2,0,-1,-1,-1
1514900108884125,-1,-1,-1,-2,-1,-1,-1,0
1514900108906642,-3,0,1,-2,-1,-1,0,-3
1514900108906642,-1,1,-1,-1,0,-1,-1,0
1514900108907643,0,-1,-2,0,-1,-1,-2,0
1514900108907643,0,-1,0,-1,-1,-2,-1,-1
1514900108921655,0,-1,-1,-1,-1,0,-1,-1
1514900108921655,0,1,-1,-1,0,-2,-2,-2
1514900108923655,-2,-2,0,-2,1,0,0,-3
1514900108923655,0,0,-2,0,-1,-1,0,-1
1514900108943686,0,0,-2,-1,-1,-2,0,-2
1514900108943686,-2,-2,-1,-2,-1,-1,-1,-2
1514900108944172,-1,-1,-2,-2,-2,0,-1,0
1514900108944172,-1,-1,0,-2,-1,-2,-1,0
1514900108966687,0,-1,1,-1,-2,-1,-1,-1
1514900108966687,-1,-1,-1,0,-1,-2,0,-1
1514900108967685,-1,-2,-1,-1,-1,-1,-1,-2
1514900108967685,0,-1,-1,-1,-1,-1,1,-2
1514900108981194,-1,1,-1,-2,-1,-1,-1,1
1514900108981194,0,-1,-1,-2,-2,-2,-2,-1
1514900108981694,-2,-2,-1,-1,-3,-2,-1,-2
1514900108981694,-1,-2,-2,-1,-2,0,-1,-1
1514900109004211,-1,-1,-2,0,0,0,0,1
1514900109004211,-1,0,0,-2,-1,-2,-1,-1
1514900109005211,0,-1,1,-1,-1,0,-1,0
1514900109005211,-1,-2,-1,-1,0,0,-2,-3
1514900109027727,0,-2,-1,-1,-1,-1,-1,-1
1514900109027727,-2,-1,0,0,-2,1,-1,-2
1514900109029729,-1,-1,0,0,-1,0,0,0
1514900109029729,-1,-2,-2,-1,-1,0,0,-1
1514900109040736,-1,0,0,-2,-2,-1,-2,-2
1514900109040736,-1,-1,-3,-1,-3,-1,-2,-2
1514900109041737,0,-1,-2,-2,0,-2,-1,-2
1514900109041737,-1,-1,-1,-1,-1,-2,-1,0
1514900109063253,-1,0,-1,-1,-1,-1,-2,-1
1514900109063253,-2,0,-1,1,0,0,-1,0
1514900109064253,-1,-2,-1,-2,-1,-1,-1,-1
1514900109064253,-1,-2,0,-2,-1,-1,-2,0
1514900109086772,-2,-1,-2,0,-1,-2,-1,0
1514900109086772,0,0,-2,-1,-1,-2,-1,-1
1514900109087769,-1,-1,-2,-2,-2,0,-1,-1
1514900109087769,0,0,-1,0,-1,-1,-2,0
1514900109101292,1,0,-1,-2,0,-3,-1,-1
1514900109101292,-1,-1,0,-1,-1,-1,-1,1
1514900109102791,-1,-3,-3,-2,-1,-1,-2,-1
1514900109102791,-1,-1,0,-1,-1,-3,-2,-2
1514900109131811,-2,-1,-2,0,-1,-1,-1,-1
1514900109131811,-1,0,-1,-1,0,-2,-2,-2
1514900109132323,-1,-1,0,0,-1,-2,-1,-1
1514900109132323,-2,0,0,-1,-1,-1,-1,-2
1514900109146821,-1,0,-2,0,-1,0,1,-1
1514900109146821,-1,0,-2,-3,-3,-1,0,-1
1514900109147322,-1,-2,-1,-2,-2,-2,-2,0
1514900109147322,0,0,1,-1,0,-1,0,0
1514900109160842,0,0,-1,-2,-1,-1,0,-1
1514900109160842,-1,-1,-1,-1,-2,-2,-1,-3
1514900109161842,-2,-3,-1,-3,-1,-2,-1,0
1514900109161842,-1,0,0,-1,-2,-1,-2,2
1514900109183360,0,-3,0,-3,0,-1,0,-3
1514900109183360,0,-2,-1,-3,-1,0,-1,0
1514900109184358,0,0,0,0,1,-1,0,-2
1514900109184358,-1,-2,-1,1,0,-1,0,-1
1514900109206864,0,0,-1,0,-2,-2,0,-1
1514900109206864,-1,-1,0,0,-1,-2,-1,-3
1514900109207365,-1,0,-1,-2,-1,-2,-1,-1
1514900109207365,-2,-2,-2,-1,1,-1,-2,0
1514900109222376,-1,1,-1,1,-1,-1,-3,-1
1514900109222376,0,-1,0,0,-1,1,-1,-2
1514900109223889,0,0,-1,0,-1,0,-2,0
1514900109223889,-1,-1,0,-1,-2,-2,0,-3
1514900109243400,-1,0,0,-1,0,-2,-1,-1
1514900109243400,-1,-1,0,-1,-1,-2,0,-2
1514900109244392,1,-1,0,-1,-3,-1,-2,-1
1514900109244392,0,-1,-1,-2,-1,-2,-1,0
1514900109266917,0,0,0,-2,-2,0,-2,1
1514900109266917,0,-2,-1,-2,0,0,0,1
1514900109267407,0,-3,-1,0,-1,-3,-1,-1
1514900109267407,-1,-1,-1,-3,-1,-2,-1,0
1514900109280943,0,-1,-1,-2,-1,-2,0,-1
1514900109280943,-1,-2,-2,0,-1,-1,-2,-1
1514900109281930,-1,-1,-1,-1,-2,-2,-1,1
1514900109281930,-1,-1,0,1,-1,0,-2,-1
1514900109303432,-1,1,1,-1,-2,-2,0,0
1514900109303432,-1,-1,-3,-2,0,-2,-2,-1
1514900109303932,-1,-1,-1,-1,-2,-1,-1,-1
1514900109303932,-1,-1,-1,0,-1,0,0,-2
1514900109326449,0,-2,-1,0,-1,0,-2,-2
1514900109326449,-1,0,-1,-2,-2,-1,0,-1
1514900109327450,-1,-2,-2,-1,1,-3,-1,-2
1514900109327450,-2,-1,-1,0,-2,-2,-3,1
1514900109340971,-1,1,-2,-2,-2,-1,-2,-3
1514900109340971,0,0,-1,-1,-2,-1,-1,1
1514900109341960,0,-1,-1,-3,1,0,-2,-1
1514900109341960,0,-1,-1,-1,-1,-1,0,-1
1514900109363478,-2,-1,-1,-1,-1,-1,-2,0
1514900109363478,0,-2,-2,0,0,0,-1,-2
1514900109363976,-2,-2,-1,-1,-2,0,-1,-4
1514900109363976,-1,-1,-1,-2,-2,-1,-1,-1
1514900109386992,-2,0,0,-2,-1,-1,-2,-1
1514900109386992,-1,-2,-1,-1,-1,-2,0,-1
1514900109387491,-1,-2,-2,-1,-2,-2,0,0
1514900109387491,0,-1,-2,-1,0,-1,-1,-1
1514900109401011,0,-1,-2,-2,-1,0,0,-1
1514900109401011,-1,-3,0,-1,-1,-2,-1,-2
1514900109402503,-1,-2,-1,0,-1,0,0,-1
1514900109402503,-3,2,-2,-3,-1,-1,-1,-1
1514900109424018,-2,0,-1,-3,-1,-1,-1,0
1514900109424018,0,0,0,-3,-1,-1,-1,0
1514900109425018,0,-1,-1,0,-1,-2,0,0
1514900109425018,-2,-1,-1,2,-2,1,-1,-1
1514900109446545,1,-2,-3,0,-1,0,0,-1
1514900109446545,1,-1,0,0,0,-1,0,-3
1514900109447535,-1,-2,-1,-1,-3,-1,-1,-1
1514900109447535,0,-1,-2,-1,-1,-1,0,0
1514900109461056,-1,-1,-2,-2,-2,-1,-2,-2
1514900109461056,-2,-2,-2,-2,0,0,-1,0
1514900109461557,-1,0,-2,-1,0,0,-3,-1
1514900109461557,0,1,-1,-1,0,-1,0,-1
1514900109483560,-2,-1,-3,-1,0,0,0,1
1514900109483560,-1,0,-2,-2,-1,-1,1,-1
1514900109484060,-1,-1,-2,-2,0,0,0,-1
1514900109484060,-1,-2,0,-2,-1,-1,-1,-1
1514900109506576,-1,0,0,-1,-1,-3,0,-1
1514900109506576,-1,0,-1,-1,-2,0,-3,-1
1514900109507077,0,-2,-1,-1,-2,-1,-1,0
1514900109507077,-2,-1,-3,-1,-1,-2,-1,-2
1514900109529092,-2,0,-1,0,-1,-1,-1,0
1514900109529092,-3,-3,-2,-2,-1,-2,-1,-2
1514900109530093,0,-3,1,-2,-1,-1,-1,-2
1514900109530093,0,-1,-2,0,-2,-1,-2,0
1514900109543601,-1,0,0,1,-2,-1,-3,-2
1514900109543601,-1,-1,-1,-1,-1,-1,-2,0
1514900109544103,0,-2,-1,-2,-1,-2,-1,-2
1514900109544103,0,-1,-1,-2,-1,0,-1,-1
1514900109567619,0,0,0,-2,-1,-1,0,0
1514900109567619,0,0,-1,0,-1,1,-1,-1
1514900109569621,-2,-2,-1,-1,-1,-2,0,-2
1514900109569621,-1,-3,0,-2,-1,-2,-2,0
1514900109581142,-1,0,-2,-2,-1,0,0,-4
1514900109581142,-1,-2,-2,-1,-1,0,-1,-1
1514900109581629,-1,0,-1,1,-2,-1,-1,-1
1514900109581629,0,0,-3,0,-1,-1,0,-1
1514900109603645,-1,-2,-2,0,-2,-1,-2,-1
1514900109603645,-1,-1,-1,-2,-2,-2,0,2
1514900109604145,-1,-1,-1,-1,-2,-1,-1,-1
1514900109604145,-2,0,-1,0,-1,-2,-1,-1
1514900109626663,0,0,-1,-2,0,0,0,0
1514900109626663,-1,-2,-2,0,-1,-2,-2,-1
1514900109628162,-2,-1,-3,0,-1,-2,-1,0
1514900109628162,-1,-1,-1,-1,-1,-1,-2,-4
1514900109641171,0,0,0,-2,0,-1,-2,-1
1514900109641171,-1,-1,0,-1,-3,-1,-2,-2
1514900109641671,-2,-1,-3,-2,-1,-3,0,0
1514900109641671,-2,0,0,-1,1,0,-1,1
1514900109663701,-1,-1,-2,-1,-1,1,-1,-1
1514900109663701,-1,-1,0,-2,0,-1,-2,-1
1514900109664187,-1,-2,1,-3,-1,-2,0,-1
1514900109664187,-1,1,-1,-1,-1,-1,1,0
1514900109686705,-2,0,-2,-1,-1,-2,-2,-2
1514900109686705,-1,-1,-1,0,-1,-3,-1,-2
1514900109687203,-1,-2,-1,-2,-1,-2,-2,0
1514900109687203,-1,-2,-2,0,-2,0,-1,-2
1514900109701230,-1,0,0,0,-1,-2,-2,0
1514900109701230,-1,-1,-2,-2,0,-2,-1,-1
1514900109708228,0,-2,-1,-2,0,0,0,-1
1514900109708228,-1,-1,-2,-1,-1,-1,-1,-1
1514900109723229,0,-1,-2,-1,-3,-1,-1,0
1514900109723229,0,-1,0,-2,-1,-2,-2,-1
1514900109725230,0,-1,1,-1,-3,0,-2,-1
1514900109725230,0,0,0,-1,-1,1,-1,-1
1514900109747245,-1,0,-2,0,-2,-1,0,-3
1514900109747245,0,1,0,0,-1,-2,0,0
1514900109749250,-1,-2,-3,0,0,-2,-1,0
1514900109749250,0,0,0,0,0,-1,0,-2
1514900109760769,-3,-1,-3,-2,-2,-1,-2,-1
1514900109760769,-1,-1,-1,-2,-1,-1,-1,0
1514900109761756,-1,-1,-3,-1,-1,-2,-1,0
1514900109761756,-1,0,-1,-2,-2,-3,-1,-1
1514900109783318,0,1,-2,-1,0,0,-1,-2
1514900109783318,-2,-3,-2,-1,-1,-1,0,-2
1514900109784304,-1,-2,-2,-1,-1,0,-1,-2
1514900109784304,0,-1,-2,-1,-2,-1,-2,-2
1514900109806811,-2,1,-3,-1,0,-3,1,-1
1514900109806811,-1,-1,-2,-2,-3,-1,0,-2
1514900109807312,-1,-1,0,-1,-1,0,-2,-2
1514900109807312,-1,-2,-2,-1,-1,-1,-2,-2
1514900109821322,0,0,0,0,-1,-1,0,-2
1514900109821322,0,-2,-2,-1,-1,-1,-1,-1
1514900109828327,-2,-1,0,0,-2,-3,0,-1
1514900109828327,-1,0,-1,-2,-2,-1,0,2
1514900109843346,0,-1,-1,-1,0,-2,-1,-2
1514900109843346,-2,-1,-2,-1,0,-1,-3,-2
1514900109845362,-1,-4,-1,0,-2,0,-1,-1
1514900109845362,-1,0,-1,-2,0,-1,-2,-1
1514900109866378,-2,-1,-3,-3,0,0,-2,-1
1514900109866378,0,0,-1,-1,0,-2,0,-1
1514900109867355,0,-2,1,-1,0,-2,-1,-1
1514900109867355,0,-1,-1,-1,-1,-2,-2,-1
1514900109889370,-2,-2,-1,-1,-3,-1,-2,1
1514900109889370,-1,0,-2,-1,-3,-2,0,-3
1514900109889869,0,-2,-2,-1,-1,-1,-1,-3
1514900109889869,0,-3,-2,-1,0,-1,-1,-1
1514900109903882,0,-1,0,-1,-1,-1,0,-2
1514900109903882,-1,-1,-1,0,1,-1,1,0
1514900109904381,-1,-1,-1,-2,0,-1,-1,-2
1514900109904381,-2,0,-2,-2,-1,0,-1,-2
1514900109927397,-1,1,-1,-2,-1,-1,-1,-1
1514900109927397,-2,-1,-1,0,-1,-1,-1,0
1514900109927897,0,-1,-1,-1,-3,0,0,0
1514900109927897,-2,-1,-1,-2,0,-1,0,-1
1514900109940406,-1,0,0,0,-3,-1,-3,0
1514900109940406,0,-1,-3,-2,-1,-1,-2,-1
1514900109948421,-1,1,0,0,0,-1,-1,1
1514900109948421,-2,-1,-1,-1,-2,-2,-1,-1
1514900109964437,-2,0,-2,0,0,-1,0,-1
1514900109964437,-1,-2,1,-2,-1,-2,-2,-1
1514900109965423,-1,-3,-1,1,-2,-1,-2,0
1514900109965423,-1,-1,-1,0,-2,-2,-1,-2
1514900109986439,-1,-1,1,-4,-1,-2,0,0
1514900109986439,-1,0,-2,-1,0,-2,-2,0
1514900109987439,-2,-1,-3,-2,-2,-1,-2,1
1514900109987439,-1,-1,-2,-1,-1,0,-1,1
1514900110000448,0,0,-1,-2,-2,0,-2,-2
1514900110000448,-1,-1,-2,-1,-2,-1,-1,-1
1514900110008466,0,0,-2,-2,0,-1,-1,-1
1514900110008466,0,1,-1,-2,-1,-1,0,0
1514900110031470,-1,0,0,0,-1,0,-1,-2
1514900110031470,-2,-1,0,-1,-1,-1,-2,-2
1514900110032471,-2,-3,0,1,0,-2,-1,-1
1514900110032471,-1,0,-1,-1,1,-2,-2,-1
1514900110046490,0,0,-1,-1,-1,-1,-2,0
1514900110046490,-1,-1,-2,-2,-2,0,-1,0
1514900110047490,-1,-3,-1,-1,-1,-1,0,-1
1514900110047490,-2,-2,-1,1,0,-2,-2,0
1514900110060503,1,0,-1,0,-1,0,0,-2
1514900110060503,0,-1,-3,0,-2,-2,0,-1
1514900110068498,0,-2,-1,-2,0,-1,-1,-2
1514900110068498,0,0,-1,-1,-1,-1,0,-2
1514900110091522,-1,-1,-2,-3,0,-2,-1,-2
1514900110091522,0,-2,0,0,0,0,-2,1
1514900110092514,0,-2,-2,-2,-1,-2,0,-1
1514900110092514,-1,0,-1,0,-1,-2,-1,-1
1514900110106522,-1,-1,-1,-1,-1,-1,-1,-2
1514900110106522,-1,-1,0,1,0,-2,0,-1
1514900110107526,-1,-1,-3,-3,0,-2,-1,0
1514900110107526,-2,-1,-1,0,-1,0,-3,-2
1514900110121033,-1,0,-1,-1,-3,0,0,0
1514900110121033,-2,-1,0,-2,-1,0,0,-1
1514900110128539,-1,0,-1,1,-2,1,0,0
1514900110128539,0,0,0,-1,-1,-1,0,0
1514900110143549,0,0,-2,-1,1,0,-2,0
1514900110143549,-1,-3,-2,-1,-1,-2,0,-1
1514900110145050,-1,-2,-1,-1,-2,-1,0,-1
1514900110145050,-1,1,-1,-2,-1,0,0,-1
1514900110166568,-1,-2,-1,-1,-1,0,-1,-3
1514900110166568,0,-3,0,-1,-1,-1,-2,0
1514900110167065,-1,-2,-2,-2,-1,-3,-1,-2
1514900110167065,-1,-1,-2,-1,-2,0,0,0
1514900110189081,-1,1,-2,-2,-1,0,0,-2
1514900110189081,-1,-1,-1,-1,-1,-2,-1,-1
1514900110190082,1,-1,-2,-2,-2,-2,-1,2
1514900110190082,-1,0,-1,0,-1,1,-1,-1
1514900110204092,0,-1,-1,1,-2,-2,-1,-1
1514900110204092,0,-2,-2,0,-1,0,-2,-2
1514900110205093,1,-2,0,-1,0,-2,-3,-1
1514900110205093,-1,-1,-2,-1,-2,-2,1,-1
1514900110226608,0,-1,-1,0,-3,1,-2,0
1514900110226608,-1,-2,-1,-2,-1,-1,-1,0
1514900110227609,-2,-1,-1,0,-1,0,0,0
1514900110227609,0,0,-1,-1,-1,-1,-1,-2
1514900110249124,0,1,-2,0,-2,-4,-1,-1
1514900110249124,0,-2,-1,-2,-2,-1,-1,-2
1514900110250128,-1,-3,0,-2,-2,-1,-1,-1
1514900110250128,-1,0,-2,-1,-2,-1,-1,-1
1514900110263637,-2,-1,-1,-1,1,-1,0,-1
1514900110263637,-1,-2,-2,-2,-1,-2,-1,-1
1514900110264134,-1,-2,-1,-1,0,-1,-1,-2
1514900110264134,0,0,-3,-2,-1,-1,1,-1
1514900110286682,-1,0,-2,-1,-1,-1,-1,-2
1514900110286682,-2,0,-1,0,0,0,0,-1
1514900110287184,-1,-3,-1,0,0,0,-1,-2
1514900110287184,0,-1,-1,-1,-1,-2,-2,-2
1514900110309198,-1,1,0,0,-1,0,-1,-2
1514900110309198,1,0,0,-1,-1,0,-1,-1
1514900110309698,0,-1,-1,0,-1,-2,-1,0
1514900110309698,-1,-2,0,0,-2,0,0,-1
1514900110324210,-3,-2,-1,-2,1,-2,-2,0
1514900110324210,-2,-2,-1,-2,-2,-1,-1,-1
1514900110325210,-1,-2,1,0,1,-1,-3,-2
1514900110325210,-1,0,-1,-2,0,-1,-1,-2
1514900110347226,-2,1,-1,-2,-1,0,0,-1
1514900110347226,1,-1,-2,0,-1,-1,-1,0
1514900110348253,-2,-3,-2,-1,0,-1,-1,0
1514900110348253,-1,0,-3,0,-1,-2,-1,1
1514900110369242,-1,-1,-1,-2,-2,-1,1,-1
1514900110369242,-1,-3,0,-2,-1,-1,-1,0
1514900110370241,-2,-2,-2,0,-2,-2,0,-1
1514900110370241,0,-1,-1,0,0,0,-2,-1
1514900110383270,-4,0,-1,1,-2,-2,-2,-2
1514900110383270,-2,-1,-2,-1,-3,-1,-1,-1
1514900110384267,-2,-1,-1,-3,0,-1,0,-2
1514900110384267,-2,0,-1,-2,-1,-2,-1,0
1514900110406767,1,0,-3,0,-1,-3,0,-1
1514900110406767,-1,-2,0,-2,0,-1,-1,-1
1514900110407269,0,-2,-1,0,-1,-1,-1,0
1514900110407269,-2,0,1,-1,-2,-1,-1,0
1514900110429286,-1,0,-1,-1,-2,-1,-2,0
1514900110429286,0,-1,0,-1,-1,-2,-1,-2
1514900110429784,0,-3,-2,-1,-1,-2,0,2
1514900110429784,-1,-1,0,0,-1,-1,-2,-1
1514900110443306,-2,-1,0,-2,-1,0,-2,-2
1514900110443306,-1,-2,-1,0,-1,0,-1,1
1514900110444293,0,-2,0,0,0,-1,0,-1
1514900110444293,-3,-1,-1,-2,-1,-2,-1,-1
1514900110466333,0,-2,-3,-2,-1,0,1,-1
1514900110466333,0,-1,-1,-2,-1,-2,-1,-3
1514900110467332,0,0,-1,-1,-2,-1,-1,-1
1514900110467332,0,1,-1,-2,0,-2,-1,-2
1514900110489325,-1,0,0,-1,-1,-2,-3,-1
1514900110489325,-2,-1,0,-1,-3,-2,-2,-3
1514900110489826,-1,-1,-1,-2,-1,0,0,-1
1514900110489826,-1,-2,-2,1,-1,0,-1,-2
1514900110503335,0,-1,-2,-1,-2,0,-1,-1
1514900110503335,0,0,-2,-1,-1,-1,-1,-2
1514900110504336,-1,0,0,0,-1,-2,-1,0
1514900110504336,0,-1,-1,0,-2,1,-1,0
1514900110526369,-3,-1,-3,-2,-2,0,-1,0
1514900110526369,-1,-1,-1,-1,-1,-2,0,-1
1514900110526869,-1,-2,-3,-2,-2,-1,-2,-4
1514900110526869,0,0,-1,-1,-1,-3,0,-1
1514900110548882,0,0,-1,-2,-1,-2,-1,-1
1514900110548882,-2,-2,-1,0,-1,1,0,-1
1514900110549878,-1,-2,-2,-1,-1,-2,-2,0
1514900110549878,-2,-2,-2,-2,-1,-1,-2,-1
1514900110563378,-1,1,-1,0,-1,0,-1,-3
1514900110563378,0,-1,-1,-2,0,-1,-1,-2
1514900110564378,1,0,-1,0,-1,-2,-1,-1
1514900110564378,-1,-1,-1,-1,-1,0,-1,-1
1514900110586396,-2,-1,-1,-2,-4,-1,1,0
1514900110586396,-1,-1,-2,-1,-2,-1,-1,1
1514900110587396,-1,-3,-1,0,-2,-1,-2,-2
1514900110587396,1,-1,-3,-1,-1,-1,-2,-2
1514900110608920,0,0,-2,-2,1,-1,0,-1
1514900110608920,-1,-2,0,0,-3,0,-1,-2
1514900110609920,-1,-3,-3,-1,-2,-1,0,1
1514900110609920,-1,0,-1,0,-1,-3,-1,-1
1514900110623422,-1,-2,-2,-1,-3,-2,-2,-1
1514900110623422,-2,-2,-2,-2,1,-3,0,-1
1514900110624923,1,-1,0,0,0,-2,0,0
1514900110624923,-2,-2,0,0,-3,1,-2,-2
1514900110646437,-2,-1,0,1,-1,-1,-1,-3
1514900110646437,-2,-4,-1,1,0,0,-2,1
1514900110648450,0,-5,-2,-1,-1,-1,-2,0
1514900110648450,-1,-1,-1,-2,-1,-2,-2,-1
1514900110669453,-1,0,1,-3,-1,-3,-2,-3
1514900110669453,1,-1,-1,-1,-2,1,1,-1
1514900110669953,0,0,-3,0,-2,-2,0,-1
1514900110669953,-3,2,0,0,-3,-1,0,-2
1514900110683466,-2,-4,-2,-2,-1,-1,0,1
1514900110683466,-1,-3,-1,-1,1,-2,-2,-2
1514900110683964,0,-2,-2,-1,-1,-2,-2,-1
1514900110683964,0,0,-1,-1,0,1,-1,0
1514900110706491,-1,2,-1,-2,-2,-1,-1,-2
1514900110706491,-1,-1,-1,-1,-3,-1,0,-2
1514900110707491,1,0,2,0,-3,0,0,0
1514900110707491,0,-2,-1,0,-3,-1,0,-1
1514900110728996,-1,-2,-11,-4,-1,-1,-1,-1
1514900110728996,-3,1,10,0,-1,-1,-2,0
1514900110729996,-2,-3,-4,-5,-2,-3,-5,-3
1514900110729996,-3,-1,-1,-1,0,-1,1,1
1514900110743506,-1,0,2,0,0,-2,-2,0
1514900110743506,1,-3,-5,0,-1,0,1,0
1514900110744006,1,1,-1,0,-1,1,0,-2
1514900110744006,3,-1,3,2,-1,-2,-1,-2
1514900110766525,-1,0,-3,-2,0,-1,1,0
1514900110766525,-6,-5,-2,-3,-2,-1,-2,-1
1514900110767522,-5,-1,2,-1,0,-1,-1,-2
1514900110767522,-1,-2,-4,-3,0,-1,0,-1
1514900110789037,0,2,2,-1,-3,-1,-1,-2
1514900110789037,0,-3,-6,-2,-2,-2,-2,-1
1514900110790038,-2,-2,6,-1,0,0,-1,0
1514900110790038,0,0,0,1,-2,-1,-3,-1
1514900110803049,1,0,-1,0,0,-2,0,-1
1514900110803049,0,1,0,-2,0,-2,-1,-2
1514900110811070,-2,-2,-4,-3,-1,0,0,-1
1514900110811070,-2,1,0,-2,-2,-2,-2,-2
1514900110826575,-2,-1,1,0,-1,-2,1,-1
1514900110826575,1,-1,-2,-1,-3,-2,-3,-2
1514900110827576,4,2,-3,2,-1,-1,2,4
1514900110827576,-9,-2,1,-1,1,1,0,-1
1514900110849092,-1,2,-3,0,-1,2,-3,-3
1514900110849092,2,2,-4,-5,-4,-3,-2,-3
1514900110850083,-6,-6,-6,0,-1,-1,0,-1
1514900110850083,-4,1,8,-2,-2,-2,-3,-2
1514900110862600,-1,-3,-3,-1,-1,0,-1,0
1514900110862600,0,-4,0,2,1,1,0,-1
1514900110871107,5,0,-2,-2,0,0,-1,0
1514900110871107,2,1,-8,-4,-2,0,3,1
1514900110886616,5,-3,2,0,-4,-2,-2,-3
1514900110886616,-7,-4,-3,-2,1,-3,-2,-1
1514900110887117,-9,-8,-2,0,1,-3,-3,-8
1514900110887117,2,-2,-1,0,1,-1,0,5
1514900110910626,-6,2,1,-2,-3,-2,-2,4
1514900110910626,13,8,-2,-2,1,2,1,0
1514900110913128,1,-2,2,-2,-5,-4,-4,-4
1514900110913128,-7,-10,-2,-3,-1,-2,-5,-6
1514900110932177,5,0,-3,-2,-1,-1,-1,-2
1514900110932177,0,-2,-1,2,-1,-2,0,2
1514900110937643,-5,-1,3,0,-1,1,1,1
1514900110937643,3,4,-7,-7,-2,-1,-2,-2
1514900110946649,-1,0,-9,-1,0,0,-1,1
1514900110946649,1,3,10,3,1,1,0,1
1514900110948650,-2,-3,6,-1,-2,-2,0,-3
1514900110948650,-2,0,-1,1,-1,-1,0,-3
1514900110969167,-1,-4,-7,-2,-1,0,-1,2
1514900110969167,-1,0,-1,3,-1,1,2,2
1514900110970666,-3,-3,-7,-2,-1,-1,-1,-1
1514900110970666,1,-3,-2,-2,-3,-2,-4,-4
1514900110982677,-3,7,5,1,1,0,1,2
1514900110982677,0,-9,-1,-3,-3,-2,-4,-2
1514900110991683,-3,2,-4,-2,0,0,1,3
1514900110991683,-3,-1,-3,2,0,0,0,-4
1514900111006694,13,-7,0,-3,-1,-1,-1,-2
1514900111006694,-10,1,-1,1,-1,-1,0,1
1514900111008196,7,1,-1,-4,-2,-2,-3,-1
1514900111008196,-6,-1,-2,0,-2,-2,-3,-3
1514900111029207,-14,-6,-10,-4,-2,-1,-2,-7
1514900111029207,-1,-12,11,2,-5,-4,-3,-2
1514900111031709,0,-1,-6,-1,4,1,1,5
1514900111031709,1,11,3,0,-2,2,3,6
1514900111042717,-1,-7,3,0,-3,-3,-4,1
1514900111042717,2,-2,-5,-4,-2,-2,-8,-12
1514900111051724,-6,4,1,3,-1,-2,-1,-2
1514900111051724,12,-5,-5,-8,0,-1,0,0
1514900111074239,0,3,3,3,-1,3,4,7
1514900111074239,1,1,-9,-6,-3,-2,-1,-3
1514900111075741,3,-1,3,1,-1,-1,-1,1
1514900111075741,-6,1,-3,1,-1,-1,-2,-7
1514900111089250,7,-2,4,1,-1,-1,-1,1
1514900111089250,-9,-3,-3,-2,1,1,4,6
1514900111090751,4,0,-3,0,-2,2,1,0
1514900111090751,0,2,-1,2,0,0,3,3
1514900111111765,-8,1,1,-2,-3,-3,-4,-7
1514900111111765,-5,-7,1,6,2,1,1,0
1514900111113267,-7,-7,1,-7,-1,-1,-3,2
1514900111113267,3,-3,-2,-6,-2,-1,-3,-5
1514900111134297,-9,-2,0,-3,-2,-4,-3,-9
1514900111134297,-2,5,-4,-1,1,-1,-1,-3
1514900111135793,14,5,-3,-3,-4,-2,-2,2
1514900111135793,-5,-1,1,6,-1,0,-2,1
1514900111149292,-15,-13,-6,-6,0,0,0,-9
1514900111149292,-3,-4,-1,-1,-1,0,1,2
1514900111150794,1,1,7,0,1,2,3,0
1514900111150794,4,5,-19,-11,-3,-4,-2,7
1514900111171317,2,6,8,6,2,2,-4,-3
1514900111171317,-3,0,-4,-2,-3,-2,-3,-3
1514900111177823,-2,-2,-2,-5,-3,-3,-2,-5
1514900111177823,-1,12,7,5,0,1,3,3
1514900111186819,-4,-4,-1,1,0,-1,1,3
1514900111186819,11,5,-3,-3,-1,-2,-3,-2
1514900111188320,2,-5,-4,2,-2,-2,-3,-1
1514900111188320,-21,-15,4,-2,-1,-1,-2,-1
1514900111209346,-4,-3,-4,7,-3,1,-2,-2
1514900111209346,3,1,-6,-8,-1,-2,1,5
1514900111212840,-2,3,-3,1,0,-2,-6,-12
1514900111212840,-7,-15,0,2,1,-1,-1,-5
1514900111231351,18,13,4,-5,-4,-2,-6,0
1514900111231351,-4,-7,2,0,0,0,4,1
1514900111233375,-6,3,3,2,0,-1,5,1
1514900111233375,5,1,3,0,0,-1,-4,-3
1514900111245863,-4,-3,6,2,-3,0,-2,2
1514900111245863,-2,-5,-9,-1,-1,-2,-10,-9
1514900111252866,-2,4,1,-9,-3,-1,2,-3
1514900111252866,0,1,-3,3,1,1,1,-4
1514900111269878,2,-10,0,-8,-1,0,3,6
1514900111269878,6,6,5,9,0,1,4,5
1514900111271378,-6,-3,-7,1,0,-1,0,0
1514900111271378,-5,-23,-12,-7,-5,-6,-6,-6
1514900111291401,10,27,-2,-15,0,0,1,0
1514900111291401,-17,-35,-1,1,-1,-2,-4,-2
1514900111293395,-3,2,2,10,0,0,0,2
1514900111293395,-1,0,-1,-2,-4,-3,-2,-10
1514900111313946,1,-6,0,12,1,-2,0,3
1514900111313946,5,3,-7,-9,-1,-1,-5,-8
1514900111317949,-3,5,2,-4,0,1,5,6
1514900111317949,-3,-7,-2,2,-1,1,9,5
1514900111328966,-3,-13,-15,-15,-3,-2,-24,-14
1514900111328966,-5,29,8,7,2,-2,2,-3
1514900111330459,1,-29,-5,-2,-3,0,-2,0
1514900111330459,3,7,7,4,1,-1,-1,-1
1514900111351973,-3,20,5,5,-1,0,7,5
1514900111351973,2,-17,-10,-4,-3,-2,0,3
1514900111353974,-2,16,-5,-5,-3,-2,-3,-5
1514900111353974,15,21,14,1,0,3,-1,6
1514900111366022,-27,-52,-15,6,1,-1,5,-3
1514900111366022,-2,-3,-3,-6,-2,-2,-4,-9
1514900111372488,5,19,11,-2,-1,-2,-3,-2
1514900111372488,-2,-2,-1,2,-2,-1,-2,0
1514900111388999,3,23,-13,-4,-3,-4,1,0
1514900111388999,-1,-11,8,6,-1,0,1,7
1514900111390501,-17,6,5,4,1,-1,-4,11
1514900111390501,23,-23,-7,-5,-3,-1,3,-28
1514900111411515,12,-9,5,0,-1,0,-19,-19
1514900111411515,-2,2,-3,-5,-2,-3,0,1
1514900111413016,4,-3,13,10,2,1,0,3
1514900111413016,1,23,-13,1,1,3,2,-2
1514900111426025,-3,-20,-5,5,0,-1,3,6
1514900111426025,-7,-4,3,-3,1,2,2,-1
1514900111432530,-2,-2,-25,-11,-4,-2,-2,-3
1514900111432530,-11,8,11,3,3,1,2,9
1514900111449051,2,-2,-2,-6,-2,-1,7,8
1514900111449051,6,2,-5,1,0,-3,-9,-5
1514900111455046,1,9,6,5,1,1,6,-5
1514900111455046,-12,-34,-5,-3,-2,-3,-5,2
1514900111471567,3,8,-4,-4,-2,0,6,4
1514900111471567,3,31,17,2,1,2,1,18
1514900111473058,6,-6,-16,-3,-3,-4,-5,-39
1514900111473058,-3,-11,-1,-11,-3,-3,-2,6
1514900111486080,5,40,9,7,4,4,14,2
1514900111486080,-26,-26,-21,-10,-4,-5,-19,-18
1514900111492587,7,-11,17,13,1,-1,-3,4
1514900111492587,-12,-33,-28,-14,-2,-1,-6,2
1514900111509084,-7,11,8,1,-2,-1,0,0
1514900111509084,30,-3,2,7,2,1,9,5
1514900111511591,4,6,2,-9,-3,-3,-5,-8
1514900111511591,-7,39,21,8,1,3,-3,12
1514900111531599,-15,-18,-11,-2,-6,-5,-10,-15
1514900111531599,-7,-24,-24,-16,-2,0,1,-2
1514900111533101,-3,-8,11,-2,0,1,1,18
1514900111533101,11,15,-9,7,3,0,-5,-23
1514900111554126,-6,-36,6,2,2,2,1,-16
1514900111554126,-37,-12,3,2,-3,-3,10,6
1514900111555617,15,25,-26,-3,-2,-1,1,10
1514900111555617,-1,-30,-23,-25,-7,-7,-12,1
1514900111569130,-2,-24,-12,4,3,0,-2,4
1514900111569130,-18,10,-2,-4,-5,-5,-33,-14
1514900111575130,-1,-7,23,-1,5,0,21,15
1514900111575130,-1,33,-2,-7,-4,-1,5,-3
1514900111591655,-5,-13,9,-1,1,0,-9,4
1514900111591655,-7,-15,-3,4,0,-4,8,0
1514900111593157,9,17,6,-3,-1,0,-9,-6
1514900111593157,7,30,23,16,1,0,-4,3
1514900111605152,-5,-33,-9,-11,-4,-5,4,7
1514900111605152,4,12,-7,13,4,6,17,9
1514900111614158,4,1,-11,-17,-5,-5,-22,-35
1514900111614158,7,39,-12,10,5,2,19,-1
1514900111629169,-8,-20,-11,-12,-4,-5,-25,-11
1514900111629169,30,32,17,9,5,3,8,2
1514900111630682,3,-36,10,2,-1,5,-7,25
1514900111630682,-17,23,13,5,-5,-5,15,-29
1514900111651685,17,57,14,7,4,4,13,6
1514900111651685,33,34,-13,-18,-6,-7,-11,13
1514900111653186,-53,-50,12,7,1,3,-14,-36
1514900111653186,7,-23,6,-9,-3,-7,-1,20
1514900111665194,-9,-11,-18,0,-3,-4,-3,1
1514900111665194,11,13,30,8,2,3,6,-4
1514900111674201,-5,14,-25,4,-6,-3,10,24
1514900111674201,16,33,13,7,0,2,0,45
1514900111689211,-11,-20,-1,-14,-9,-6,-25,-83
1514900111689211,-7,-22,-5,-7,-2,-3,14,16
1514900111690712,3,2,-9,18,3,-1,7,-14
1514900111690712,-6,11,-6,-16,-4,-1,-15,2
1514900111712728,29,33,-3,6,3,1,3,26
1514900111712728,-7,55,25,-3,-1,4,18,6
1514900111716244,5,14,19,12,2,-3,3,11
1514900111716244,-2,-59,-56,-18,-7,-4,-16,-20
1514900111725236,24,55,51,17,3,3,4,46
1514900111725236,-24,-90,-73,-19,-8,-10,-24,-35
1514900111734281,14,7,-15,9,7,7,34,17
1514900111734281,-19,-31,40,20,4,3,-18,-16
1514900111749755,6,-4,-49,-46,-11,-2,-8,-2
1514900111749755,-26,-41,13,14,5,2,-7,-21
1514900111751256,22,63,13,-6,-5,-8,-12,7
1514900111751256,-1,-75,-6,3,1,0,12,49
1514900111771770,-19,13,23,15,3,3,-7,-59
1514900111771770,1,30,37,8,7,11,8,-2
1514900111773275,24,8,-43,-16,-2,-2,-15,-18
1514900111773275,6,-25,47,2,-4,-1,16,9
1514900111785296,1,1,-45,-11,-1,-2,10,17
1514900111785296,4,-50,12,8,-1,-4,-3,4
1514900111794303,30,23,34,-8,0,-1,-9,-2
1514900111794303,-15,15,-6,3,-1,0,5,4
1514900111810297,11,-15,-57,-8,-4,-7,-9,2
1514900111810297,-13,39,-5,2,-2,-2,8,14
1514900111812298,-2,-20,-4,4,1,1,-23,-46
1514900111812298,-13,15,-40,9,0,-5,-16,-10
1514900111831327,-12,42,52,2,-1,-1,9,15
1514900111831327,1,-74,-21,-27,-8,-6,-8,15
1514900111833313,-25,-24,21,-5,-3,-1,15,-3
1514900111833313,4,-25,-14,-3,-1,2,-5,-18
1514900111853827,-18,3,29,16,8,3,10,-21
1514900111853827,8,20,-22,10,2,-2,-12,13
1514900111855829,-19,4,-6,-23,-6,-6,7,32
1514900111855829,15,-6,6,-9,-2,-3,-6,-66
1514900111869338,-11,-23,-6,0,-1,0,7,8
1514900111869338,7,11,-16,1,0,3,-5,-19
1514900111870839,-27,-9,26,9,-5,-7,-1,10
1514900111870839,4,50,8,-7,-1,0,-2,2
1514900111891354,-18,-29,3,-8,-2,0,6,23
1514900111891354,21,-11,-44,-13,-7,-6,4,-1
1514900111905865,-32,-20,-18,-6,-4,-3,-6,-9
1514900111905865,-2,-8,-5,11,5,3,2,10
1514900111906865,1,24,6,3,-1,0,0,-5
1514900111906865,-17,73,38,-2,-1,-1,-10,-9
1514900111914370,-2,22,6,11,3,3,11,36
1514900111914370,-15,-23,-19,-6,-3,-4,-4,-74
1514900111928880,10,23,17,-23,-3,-2,0,8
1514900111928880,4,-26,-19,2,-2,-1,-6,-9
1514900111930882,24,-8,9,9,6,3,9,28
1514900111930882,-13,66,31,-2,-4,0,7,10
1514900111951400,12,-67,-7,12,0,-4,1,26
1514900111951400,-8,18,6,14,5,1,13,-12
1514900111953399,-31,18,-26,-26,-7,-2,-12,-21
1514900111953399,1,-21,8,7,5,6,-1,8
1514900111965420,-2,1,-28,-7,-5,-7,-13,-16
1514900111965420,-22,-53,-3,-3,0,-1,9,22
1514900111973912,-10,-79,-13,-4,1,4,0,0
1514900111973912,27,11,4,0,-3,-7,21,12
1514900111988923,-37,78,38,13,2,0,4,9
1514900111988923,-1,-25,13,-17,-7,-4,-23,-34
1514900111990424,-6,24,4,13,1,0,0,-2
1514900111990424,-2,-4,-13,-35,-5,-1,-16,2
1514900112011451,8,-16,-3,0,-3,1,-1,14
1514900112011451,5,44,26,11,2,1,13,23
1514900112013440,24,-2,-22,-5,0,-5,-25,-21
1514900112013440,-13,-71,-31,5,0,0,-6,8
1514900112033967,8,13,-2,-4,-4,-4,15,21
1514900112033967,7,27,17,-18,-3,4,-13,-16
1514900112035982,-24,-55,-17,-17,-9,-7,-4,-18
1514900112035982,13,1,-4,4,2,1,-4,19
1514900112048975,3,15,6,12,2,1,3,-21
1514900112048975,6,11,40,30,7,4,1,-10
1514900112050482,-7,-32,-50,-40,-11,-4,29,0
1514900112050482,-13,33,22,-7,3,1,12,7
1514900112071483,-17,-18,-37,-8,-1,4,9,6
1514900112071483,35,57,55,27,5,-4,5,6
1514900112073483,8,0,-3,-9,-3,0,-4,-4
1514900112073483,-8,-35,-20,2,1,-2,8,54
1514900112094003,-9,-27,29,12,1,-1,-9,-36
1514900112094003,-10,-21,-10,-9,-3,-2,2,20
1514900112095508,-1,5,-19,4,-2,-3,8,-5
1514900112095508,8,84,9,-5,-4,-1,0,3
1514900112109007,7,10,-4,5,1,-5,-25,-19
1514900112109007,-4,-57,-14,-1,2,-4,0,7
1514900112110509,18,79,11,-1,-8,-5,-8,16
1514900112110509,14,19,14,3,1,2,-2,-8
1514900112132524,3,-58,42,16,1,-3,-10,-22
1514900112132524,-24,23,-55,-10,-2,-5,-20,-17
1514900112136029,6,29,0,15,3,0,-6,5
1514900112136029,-3,-32,6,-15,-3,-3,-28,-5
1514900112154040,-12,-4,0,7,-1,-4,6,-19
1514900112154040,13,14,25,-24,-5,0,12,13
1514900112155541,-17,-91,21,22,-1,1,-5,4
1514900112155541,-5,20,-17,-7,-3,-3,-1,-38
1514900112169051,-7,-23,11,3,2,1,-3,6
1514900112169051,-7,-22,-26,-16,-8,-6,-3,1
1514900112172553,-9,-37,-7,2,3,0,-9,-20
1514900112172553,31,11,37,11,2,1,3,26
1514900112191566,-2,-41,-58,-14,-7,-2,14,8
1514900112191566,-15,13,2,-5,-2,1,7,18
1514900112193067,25,-19,-25,2,-4,-1,-5,-11
1514900112193067,-25,-7,-23,-29,-7,-8,-18,-18
1514900112215082,20,23,-6,1,0,0,-9,0
1514900112215082,4,42,-16,9,2,3,4,14
1514900112218595,-11,-51,2,-10,1,3,22,28
1514900112218595,-15,-47,-8,10,5,-1,-26,-41
1514900112228092,1,5,-16,-8,-4,-5,-2,-15
1514900112228092,11,-5,0,-5,-2,1,2,-11
1514900112242611,28,79,42,22,7,6,1,3
1514900112242611,-38,9,-7,-11,-7,-2,3,-5
1514900112251608,24,-5,-31,-5,0,1,-3,18
1514900112251608,-26,-16,-4,5,-2,-4,-4,-21
1514900112253610,24,55,40,5,6,5,3,-3
1514900112253610,-32,-63,-38,2,-7,-3,-5,32
1514900112274134,-14,32,11,-14,-5,-3,-6,-43
1514900112274134,27,-7,-2,7,2,-1,7,8
1514900112275635,-11,29,23,-1,-1,1,-1,2
1514900112275635,-13,-17,-69,0,-5,-3,-8,-27
1514900112288644,9,37,25,1,-1,-2,-6,14
1514900112288644,2,-38,3,-4,0,-1,-10,-2
1514900112295149,-18,-23,-25,-37,-13,-11,13,-31
1514900112295149,40,89,50,9,2,1,14,22
1514900112311660,-31,-77,-39,11,2,4,6,18
1514900112311660,-3,-9,-2,2,0,0,-3,-16
1514900112313162,-4,-4,-7,11,4,1,0,12
1514900112313162,46,55,2,-19,-8,-1,4,9
1514900112334176,7,-1,13,-3,1,-2,-6,-2
1514900112334176,-5,-8,40,19,4,2,0,-5
1514900112335668,-24,20,-14,-17,-3,-4,-13,-3
1514900112335668,14,-8,2,20,4,1,19,8
1514900112348189,2,11,17,-5,-1,3,0,35
1514900112348189,3,-33,-38,-2,-1,-1,-1,-20
1514900112355181,-15,8,16,9,1,-1,-2,26
1514900112355181,-16,-14,-2,-6,-1,0,-9,-68
1514900112371193,18,22,-10,-5,-2,-2,17,11
1514900112371193,5,-20,-6,17,2,1,9,20
1514900112385203,9,17,-18,-28,-10,-6,-9,-14
1514900112385203,-12,-16,33,16,0,0,2,15
1514900112394209,5,21,27,6,1,0,8,-3
1514900112394209,7,-19,8,-7,-9,-8,-17,-29
1514900112395710,-1,-3,3,5,4,3,4,9
1514900112395710,-18,-67,-55,-4,-1,-1,-4,3
1514900112416725,14,36,18,-14,-4,-5,-3,-11
1514900112416725,3,0,-17,-5,0,-1,4,18
1514900112418232,-4,9,10,7,2,5,-2,-4
1514900112418232,-11,-50,13,11,4,2,12,12
1514900112431735,-8,-22,2,14,4,2,0,14
1514900112431735,-3,15,-10,-19,-6,-4,-6,8
1514900112435238,3,-24,-26,8,1,2,-8,-16
1514900112435238,11,38,23,-9,3,2,7,6
1514900112454752,2,-15,-9,-1,-1,-1,-10,4
1514900112454752,5,-2,38,-9,-7,-7,3,6
1514900112456255,-17,-2,-42,0,0,1,-7,-17
1514900112456255,6,-65,12,19,3,0,4,13
1514900112468261,-1,-2,16,-21,-5,-1,8,33
1514900112468261,-22,-49,-25,0,-2,-4,-17,-68
1514900112475280,6,13,24,25,5,-2,3,9
1514900112475280,-3,12,9,-18,-3,-1,-2,-8
1514900112491786,-5,-33,-27,10,4,2,23,20
1514900112491786,15,49,34,-7,-6,-3,-5,16
1514900112493289,6,-16,-14,1,1,-1,2,8
1514900112493289,7,-59,-32,-7,-4,-3,-11,-21
1514900112514319,-16,2,7,1,2,2,-8,-16
1514900112514319,-10,21,-14,3,-1,2,6,9
1514900112515795,3,-55,3,1,-1,-1,2,3
1514900112515795,-4,68,31,-5,-4,-2,-3,10
1514900112528814,-7,-8,-33,-4,-5,-4,-10,-17
1514900112528814,0,30,11,10,7,6,0,1
1514900112536810,1,-47,-28,-2,-4,-6,-4,-7
1514900112536810,8,7,-16,-12,-5,-3,1,11
1514900112551330,0,-13,-28,-1,1,0,-5,6
1514900112551330,3,69,29,-4,-2,-4,-6,-27
1514900112553325,24,38,19,2,-1,0,1,3
1514900112553325,0,40,13,-2,-2,-5,4,0
1514900112574349,-19,3,36,3,0,0,-2,-13
1514900112574349,3,-18,-33,-8,-1,-4,-12,14
1514900112575850,-5,2,27,-11,-3,-3,0,-1
1514900112575850,-8,36,-31,-1,-4,0,-1,-7
1514900112587847,19,5,4,8,4,4,1,-12
1514900112587847,-11,-55,-39,-5,-3,-5,17,15
1514900112596863,-17,-13,5,0,1,0,0,-3
1514900112596863,-5,21,11,23,4,2,-8,-10
1514900112611863,-17,-8,7,-31,-7,-4,-5,1
1514900112611863,1,0,-19,10,4,5,2,-9
1514900112613374,6,-13,-16,-15,-6,-5,2,8
1514900112613374,-20,31,-3,1,-1,1,8,3
1514900112633878,10,-6,-40,1,-1,0,-2,-2
1514900112633878,0,-27,-17,-8,0,0,-8,7
1514900112635881,14,22,20,-8,-1,1,9,-3
1514900112635881,7,71,13,13,0,-4,1,-3
1514900112647888,-19,-75,9,-1,-2,0,1,7
1514900112647888,-24,-60,-6,-18,-7,-7,-5,9
1514900112656905,-9,13,-41,-3,1,2,-9,1
1514900112656905,4,-20,-18,-16,-8,-5,-4,8
1514900112671405,9,34,-8,14,0,-2,20,0
1514900112671405,-12,-17,30,3,3,3,-2,38
1514900112674408,-10,1,4,19,1,2,1,-40
1514900112674408,29,2,2,-17,-2,-3,-4,12
1514900112693921,8,71,20,6,5,1,0,3
1514900112693921,-36,-83,-31,-8,-7,-5,-1,-4
1514900112695422,-3,14,-3,14,3,0,-19,-21
1514900112695422,12,17,15,-19,-7,-2,-1,-7
1514900112716437,7,25,-9,-2,-2,-3,1,6
1514900112716437,-8,22,-6,14,3,2,3,-7
1514900112719940,-13,-9,11,-12,-3,-2,1,10
1514900112719940,12,3,11,15,5,2,1,5
1514900112731447,-3,7,15,8,1,-2,-15,-6
1514900112731447,10,22,7,-3,-2,2,26,5
1514900112732948,21,43,19,-1,-1,0,9,19
1514900112732948,14,34,10,16,6,5,7,49
1514900112753965,-31,-57,4,-14,-9,-11,-10,-42
1514900112753965,18,27,11,-5,-3,-3,-7,-1
1514900112759978,32,15,-25,0,1,3,5,-4
1514900112759978,-22,-38,-3,-1,0,-3,6,21
1514900112767974,10,64,28,6,4,5,-10,2
1514900112767974,6,-23,13,-4,-3,0,-5,-14
1514900112776482,-11,15,23,-1,-4,-3,9,26
1514900112776482,-41,-38,-43,-13,-5,-1,-33,-43
1514900112791521,7,6,3,7,0,-1,3,0
1514900112791521,2,25,-14,10,4,5,7,-2
1514900112797494,-4,-80,47,-6,-3,-2,3,4
1514900112797494,1,-2,-25,-3,-2,-1,-10,-17
1514900112814006,13,6,2,-7,3,-2,-2,-21
1514900112814006,8,31,39,3,1,-2,0,25
1514900112820012,-22,-34,-1,6,-1,0,-8,0
1514900112820012,-6,-25,-22,-2,-3,-4,16,-13
1514900112828516,30,-34,-17,-4,-6,-3,-28,-19
1514900112828516,3,-32,-38,9,4,0,8,0
1514900112838033,-4,22,-2,-8,-3,-4,-5,7
1514900112838033,-14,-1,29,2,-1,5,4,-17
1514900112851542,-5,46,-19,-16,-6,-5,-6,13
1514900112851542,4,30,3,2,-1,0,-6,-5
1514900112853035,-4,-11,-43,-18,-3,-5,-20,-19
1514900112853035,-3,28,13,10,3,2,15,7
1514900112874558,19,12,6,-3,-2,2,12,10
1514900112874558,7,22,10,-2,0,0,-19,-26
1514900112876049,-47,-26,-36,2,-3,-4,2,-1
1514900112876049,36,-12,22,2,-2,-2,5,3
1514900112887568,-7,-5,10,10,4,1,-9,-32
1514900112887568,-18,-14,-44,-27,-14,-12,-7,-1
1514900112896565,11,23,15,15,3,4,6,9
1514900112896565,-10,-40,-10,-11,-5,-6,-15,-12
1514900112911575,-41,-35,-2,10,-2,-3,19,9
1514900112911575,-3,-4,35,-9,0,-2,3,-5
1514900112914089,-1,-4,-19,-2,2,3,-4,-2
1514900112914089,24,53,33,-1,-3,-3,2,5
1514900112934603,-5,3,-4,-1,0,0,-4,1
1514900112934603,-26,-55,27,15,1,-4,-8,-7
1514900112936095,-6,-8,-9,4,-2,-3,5,-9
1514900112936095,-52,-25,-6,-22,-4,-1,-9,8
1514900112947601,18,-64,-38,2,2,1,-3,24
1514900112947601,-2,44,28,9,3,-1,1,-28
1514900112956607,15,18,53,-14,-4,-3,17,5
1514900112956607,-16,-36,-49,0,4,1,-14,-13
1514900112972120,-18,-29,-6,4,2,-2,3,-7
1514900112972120,5,-15,-32,-20,-6,0,-3,10
1514900112973118,3,-29,17,16,5,4,2,10
1514900112973118,-13,5,-14,-13,-4,-4,-10,-39
1514900112994133,37,49,62,13,1,4,16,4
1514900112994133,-17,-58,-47,-18,-2,2,24,34
1514900112995634,14,9,-22,-6,-3,-1,8,9
1514900112995634,8,11,36,9,-2,1,-1,1
1514900113016651,23,22,-7,5,0,-1,-7,11
1514900113016651,12,2,42,17,3,-1,-8,-9
1514900113018153,-10,24,-37,-23,-6,-6,2,-2
1514900113018153,6,-48,-27,8,2,1,21,42
1514900113031665,-19,26,6,-12,-7,-7,-7,-16
1514900113031665,6,43,20,21,6,2,-3,-30
1514900113033162,-4,-13,-14,-2,0,-2,-1,-6
1514900113033162,11,-8,5,7,0,-2,-5,4
1514900113054176,-23,16,22,8,1,2,3,0
1514900113054176,26,-3,-33,-13,-1,0,9,3
1514900113055680,-23,47,18,6,1,-2,-41,-15
1514900113055680,-9,7,-22,2,-3,2,7,-23
1514900113076695,22,-1,21,-26,-7,-6,2,21
1514900113076695,-5,39,17,12,0,-1,-8,-2
1514900113078193,25,34,83,9,3,3,7,14
1514900113078193,2,55,-57,-7,1,-2,-11,-17
1514900113091702,-15,-23,-26,-11,-5,-2,-1,1
1514900113091702,16,50,37,1,-1,-2,10,25
1514900113093204,-25,-56,-43,-16,-10,-9,-17,-22
1514900113093204,14,8,46,23,5,2,1,8
1514900113114218,-9,-39,-7,-3,1,2,-2,-23
1514900113114218,-16,-41,-36,-14,-6,-6,-8,21
1514900113115719,-2,34,25,31,4,2,2,7
1514900113115719,-10,-68,-69,-33,-8,-6,-4,-2
1514900113136735,-7,16,-33,-12,-1,-2,-10,-10
1514900113136735,9,-43,-15,20,5,2,-1,4
1514900113138238,-17,38,1,-12,-6,-5,-2,-21
1514900113138238,33,37,22,12,-1,-3,0,12
1514900113150744,19,44,12,3,1,-2,9,20
1514900113150744,-40,-25,-46,-6,0,3,-15,-13
1514900113157750,33,-14,-33,10,2,2,4,-3
1514900113157750,-1,55,48,4,-4,-2,4,-13
1514900113174265,-20,13,2,-16,-1,0,-6,12
1514900113174265,1,23,4,-11,-8,-5,-13,-8
1514900113175764,5,-39,-19,-4,-1,-1,0,-2
1514900113175764,-1,2,2,-8,-4,0,12,9
1514900113196777,0,-43,11,19,8,3,-4,-19
1514900113196777,6,35,18,3,-1,1,23,34
1514900113200779,-4,-70,-34,-26,-10,-6,-5,25
1514900113200779,1,-5,33,26,10,4,-5,-30
1514900113211287,-11,-29,-28,-15,-8,-6,-8,-10
1514900113211287,-18,34,16,-20,-7,-3,-1,-17
1514900113217792,8,53,38,14,2,-2,-8,-7
1514900113217792,17,-14,-29,-9,0,-1,-6,2
1514900113234303,7,-7,-27,4,0,2,11,18
1514900113234303,8,6,29,-3,3,-1,-18,-9
1514900113235805,6,13,-19,-2,-2,-1,15,4
1514900113235805,-29,-5,35,12,4,0,-27,-26
1514900113256820,5,29,28,17,0,0,-1,-8
1514900113256820,12,18,-12,-18,-5,-4,1,-1
1514900113258322,2,-29,-19,6,4,3,1,-1
1514900113258322,-4,37,12,-13,-8,-9,2,16
1514900113270831,-8,-18,-16,1,0,2,5,4
1514900113270831,-33,0,-29,3,0,-2,-4,-3
1514900113277834,-6,-5,5,0,1,2,-1,-5
1514900113277834,-33,-36,-7,3,-1,0,8,5
1514900113294847,10,-60,-21,2,-5,-5,-11,-9
1514900113294847,15,10,13,-28,-7,-4,14,24
1514900113298348,-14,-36,-29,-6,1,0,-8,-2
1514900113298348,22,-4,9,6,0,2,17,5
1514900113316361,-11,22,27,2,-6,-6,-10,-24
1514900113316361,14,-7,-41,6,1,1,-3,8
1514900113318363,16,-31,-4,-10,-4,-2,-4,-5
1514900113318363,27,28,-22,-12,-1,0,10,2
1514900113331376,-8,-17,-27,-7,-2,-3,-8,17
1514900113331376,19,4,11,22,2,0,-1,-18
1514900113337878,-6,45,25,-11,-5,-2,1,0
1514900113337878,23,-12,16,8,-1,-1,2,-7
1514900113355890,-2,34,13,10,5,0,-6,4
1514900113355890,21,-9,4,-5,-5,-1,3,-1
1514900113356393,-6,-11,-4,7,4,3,-1,-15
1514900113356393,-10,21,23,-6,-2,1,0,24
1514900113376905,-12,-3,-14,-11,0,2,5,5
1514900113376905,-3,-15,18,19,6,1,1,-15
1514900113378405,-10,-7,-2,1,-5,-4,1,12
1514900113378405,-25,-61,-36,-21,-1,0,-4,-8
1514900113391415,2,4,10,1,-4,-3,-13,-13
1514900113391415,-31,-14,5,10,3,3,-5,-6
1514900113397919,18,26,14,6,0,-2,12,0
1514900113397919,7,-18,-17,-6,-2,-3,-6,37
1514900113414935,-4,10,37,-9,-6,-3,15,-4
1514900113414935,-10,-69,-36,19,2,0,-6,-4
1514900113418436,8,39,-47,-34,-6,-4,-2,-39
1514900113418436,-32,0,0,12,-2,-2,4,13
1514900113436950,4,-23,-10,-6,-2,-3,-5,9
1514900113436950,11,15,23,-1,0,-1,3,-4
1514900113438450,-7,3,46,19,5,2,3,15
1514900113438450,2,9,-28,-7,-2,-3,-20,-30
1514900113450956,19,19,28,0,-3,-3,0,-6
1514900113450956,0,31,-48,-29,-7,-5,0,2
1514900113457962,3,-40,28,8,2,-2,-9,-12
1514900113457962,-24,24,5,4,2,2,-7,12
1514900113473972,-40,-70,-39,-4,-6,-9,2,-22
1514900113473972,-2,8,13,8,-1,0,-2,-4
1514900113477475,-8,-1,-3,-17,-3,-2,5,19
1514900113477475,1,21,1,12,3,3,-1,-10
1514900113496488,-14,6,-14,-1,1,1,-16,0
1514900113496488,-7,-17,-29,-12,-6,-8,16,9
1514900113497989,-10,-3,-8,2,-2,-2,-6,9
1514900113497989,7,-26,17,8,-3,-2,2,-4
1514900113509999,-8,36,19,8,4,4,6,-1
1514900113509999,-8,-18,-4,1,3,0,-3,20
1514900113519005,27,38,-1,-5,-4,-1,-9,-17
1514900113519005,-45,-36,-17,-5,-3,-1,3,-16
1514900113534515,11,29,8,6,1,3,12,15
1514900113534515,-4,-29,-10,-7,-5,-3,-3,-1
1514900113537017,-2,81,71,17,3,2,6,5
1514900113537017,1,-14,-56,-15,-3,-3,-9,-5
1514900113556532,-1,-5,-8,2,-1,-1,-1,-8
1514900113556532,4,52,33,3,3,2,18,-9
1514900113558032,-3,-109,-64,-6,0,1,-12,6
1514900113558032,-7,-2,2,-19,-5,-7,6,-15
1514900113571042,12,4,34,6,5,4,7,15
1514900113571042,9,3,11,9,-1,1,-4,0
1514900113579548,-11,-13,-21,-8,-4,-1,0,-4
1514900113579548,21,9,7,6,0,-4,-12,-13
1514900113601563,7,-16,-36,-11,-4,0,3,8
1514900113601563,-30,6,14,-8,0,1,-3,-4
1514900113603565,-12,-7,-41,-6,-2,-2,-5,-11
1514900113603565,14,25,32,5,1,5,15,10
1514900113616574,-5,-48,-23,-10,-6,-10,-16,3
1514900113616574,7,30,18,-1,-1,1,15,20
1514900113618075,5,28,-2,5,-2,-4,-19,-39
1514900113618075,11,-61,17,-6,2,-1,-8,1
1514900113630083,9,26,10,7,-2,-1,1,0
1514900113630083,-7,-14,-39,3,0,0,-7,-18
1514900113639089,3,-6,11,-9,-4,0,1,21
1514900113639089,24,13,20,14,0,-5,-20,-9
1514900113654601,3,12,-14,-3,2,2,0,-13
1514900113654601,-21,-65,15,-12,-5,-3,-11,-2
1514900113655602,-4,24,-4,6,-1,0,-4,3
1514900113655602,-19,30,10,4,-1,1,5,9
1514900113676615,-3,-41,6,9,3,1,2,0
1514900113676615,12,23,18,-18,-2,-3,-13,-11
1514900113678118,9,-3,6,-5,-3,-3,3,21
1514900113678118,0,-48,-40,-12,-5,0,7,-5
1514900113690135,-16,45,4,1,-1,-3,0,0
1514900113690135,19,-26,13,17,2,0,-11,-13
1514900113699141,6,11,17,-2,1,1,8,8
1514900113699141,-7,26,53,9,-1,-2,14,14
1514900113714144,22,44,-40,-23,-9,-4,-13,-21
1514900113714144,-23,-8,-25,-15,-2,-3,4,-19
1514900113716644,33,1,23,1,-1,-4,8,29
1514900113716644,-9,8,-3,-4,-3,-3,-17,-10
1514900113736659,-11,-3,29,18,5,5,1,-1
1514900113736659,24,28,-36,-25,-8,-1,5,12
1514900113738159,-41,-39,3,9,-1,-1,-3,-21
1514900113738159,2,-13,-41,-9,-2,-2,-1,-3
1514900113750178,17,5,19,4,1,2,9,25
1514900113750178,18,8,-12,-1,2,0,-5,-2
1514900113759183,-21,-7,-36,-19,-4,-2,11,-1
1514900113759183,7,-28,10,9,4,3,-2,6
1514900113774194,-27,14,-7,0,-3,-4,-7,-1
1514900113774194,0,-30,-49,-11,-10,-8,-5,0
1514900113775696,10,52,13,8,4,5,14,7
1514900113775696,-15,25,24,6,3,4,9,-6
1514900113797201,-4,-51,-8,-5,-1,0,6,5
1514900113797201,1,25,42,5,3,0,-10,-9
1514900113798701,-4,25,-1,4,-1,-2,-9,-10
1514900113798701,11,23,10,-20,-5,0,5,8
1514900113810222,2,2,-14,-1,0,1,6,-6
1514900113810222,-10,5,13,13,4,2,-9,6
1514900113819226,-27,-82,-35,8,-2,-2,-7,-10
1514900113819226,-4,24,-4,-1,-2,-5,-6,-3
1514900113834727,34,9,13,-12,-1,-2,-9,-21
1514900113834727,-11,-21,-51,-4,-2,0,13,5
1514900113837230,20,35,26,0,1,3,-1,3
1514900113837230,4,-20,-12,10,2,-1,0,5
1514900113856755,-7,0,20,13,2,-2,2,6
1514900113856755,-1,36,4,-25,-10,-8,1,1
1514900113858258,-5,-26,20,5,1,-1,-3,2
1514900113858258,17,4,-30,-9,-4,-1,13,-2
1514900113870254,-33,-25,-18,-5,-1,0,-5,14
1514900113870254,6,-12,30,20,5,3,-3,-12
1514900113879259,8,79,-8,-2,-2,-3,-2,-3
1514900113879259,2,-5,44,-5,-1,4,3,-6
1514900113901283,8,-9,-28,-11,-4,-1,5,12
1514900113901283,-3,0,6,8,1,-1,-6,-10
1514900113903278,-15,-2,7,-3,-1,2,3,12
1514900113903278,-2,0,-3,25,6,1,-2,1
1514900113916785,9,19,-3,-13,-3,-2,-11,-18
1514900113916785,-5,-5,2,-7,-3,-3,-6,1
1514900113920288,-9,-6,40,12,2,-1,1,-10
1514900113920288,0,25,-39,-13,-6,-6,-10,-17
1514900113938800,-15,-60,-26,-10,-3,-2,-8,-1
1514900113938800,12,28,20,24,5,1,28,12
1514900113940802,-8,-75,1,-6,-5,-4,-5,-10
1514900113940802,-6,6,-43,-13,-5,-1,-2,5
1514900113953812,30,34,22,9,4,4,0,-2
1514900113953812,-18,-30,-2,3,-1,-2,-8,-3
1514900113955813,19,18,9,-1,0,-3,0,0
1514900113955813,-29,-37,-29,-25,-7,-3,5,1
1514900113976342,-7,-25,12,0,-3,-5,-18,-34
1514900113976342,4,-14,-28,3,0,3,1,12
1514900113978329,2,0,8,0,1,2,0,-28
1514900113978329,-18,-19,9,1,-4,-3,-12,5
1514900113998844,10,13,11,9,3,-2,17,17
1514900113998844,25,21,-9,-8,-4,-3,-3,1
1514900114000844,-19,-43,-14,-15,-7,-2,-12,-1
1514900114000844,16,19,22,20,6,1,2,-4
1514900114013866,-5,35,-20,-31,-6,-3,-1,0
1514900114013866,-3,13,12,3,-2,-2,-11,-7
1514900114017356,11,29,-1,5,1,-1,18,28
1514900114017356,18,-4,2,-1,-1,0,-18,-47
1514900114036877,-20,0,-26,9,1,-1,6,4
1514900114036877,-19,19,6,-10,0,2,-1,1
1514900114038371,5,8,-2,1,2,2,-10,-3
1514900114038371,-15,25,22,-2,-4,-3,8,21
1514900114058898,-17,22,-6,-2,-1,-2,13,1
1514900114058898,26,-41,-18,-4,-3,-4,-8,-11
1514900114060899,-18,11,-6,-3,1,1,3,3
1514900114060899,11,74,46,15,7,1,14,20
1514900114081401,-14,-87,-80,-30,-12,-9,-38,-59
1514900114081401,-1,16,32,8,4,4,13,31
1514900114082902,1,-2,13,4,-2,-3,8,-6
1514900114082902,-5,-35,-36,-1,0,2,-2,-1
1514900114096412,22,26,14,3,1,0,-4,11
1514900114096412,-5,-11,22,14,4,0,-2,-14
1514900114097913,-6,-17,-11,-7,-4,-2,3,-13
1514900114097913,30,-30,-15,-4,3,4,5,13
1514900114120931,10,-44,39,10,2,1,8,8
1514900114120931,-6,-29,-39,-4,-3,-1,4,-8
1514900114124432,38,58,43,4,-2,-2,-19,-5
1514900114124432,14,11,-32,-13,-6,-3,4,11
1514900114133438,-17,-21,48,6,-1,0,15,5
1514900114133438,22,45,-2,1,-1,-2,-9,-12
1514900114140443,-8,-42,-21,1,-1,-1,0,6
1514900114140443,-2,-13,1,-3,-5,-6,-14,-10
1514900114156454,-2,51,-14,-16,-4,-2,-6,-1
1514900114156454,6,9,36,0,1,0,4,20
1514900114157956,-15,27,-16,4,3,1,5,-9
1514900114157956,-21,-12,4,-9,-3,-2,17,9
1514900114178980,-2,-16,16,21,5,2,-8,3
1514900114178980,0,-36,-9,-4,-5,-3,-16,-27
1514900114180481,-7,50,-14,-20,-4,-3,6,0
1514900114180481,17,-10,26,11,2,2,-2,-1
1514900114193491,-58,-18,-26,-8,-3,-1,-1,6
1514900114193491,14,30,12,5,1,-2,7,8
1514900114199986,-25,-20,-36,-1,-2,-1,-16,-18
1514900114199986,9,13,24,3,-3,-4,0,1
1514900114216505,18,65,35,5,0,2,11,14
1514900114216505,-13,-60,-8,4,1,2,-11,-8
1514900114223002,-10,-14,-5,9,-1,1,9,3
1514900114223002,1,-43,-66,-29,-8,-5,-6,-2
1514900114239012,1,29,30,19,6,1,-11,-19
1514900114239012,-9,2,4,-21,-5,-3,10,-4
1514900114240516,22,-27,-7,7,1,1,3,7
1514900114240516,6,15,39,16,3,1,-3,1
1514900114253524,-3,3,-32,-15,-9,-4,2,13
1514900114253524,-18,21,9,-9,-3,-2,-13,1
1514900114260028,-2,-39,-44,-5,-2,-2,0,-5
1514900114260028,-17,-17,23,1,0,1,-8,-14
1514900114276539,56,-30,-50,-10,-1,3,14,18
1514900114276539,-11,23,6,17,4,1,-6,-12
1514900114278040,-1,-3,26,-11,-2,0,-13,-1
1514900114278040,-9,8,-20,5,1,-5,-10,-5
1514900114299055,16,-9,1,-3,0,-1,0,-9
1514900114299055,-4,-32,8,3,-2,1,0,3
1514900114300556,7,-6,-14,0,-2,-2,2,6
1514900114300556,-1,49,15,8,3,3,2,-3
1514900114313567,-16,-13,1,-9,-4,-4,2,3
1514900114313567,21,9,-7,1,-1,-2,3,11
1514900114321070,-29,2,-4,0,-1,-2,-6,1
1514900114321070,14,-18,5,-8,-5,-3,0,4
1514900114336583,-9,-24,-23,-11,0,-3,-4,2
1514900114336583,1,9,6,-2,-1,-3,-9,4
1514900114338084,12,26,12,8,3,1,4,-15
1514900114338084,-34,-39,-22,-9,-2,-3,-5,-12
1514900114359098,2,-2,-2,12,2,-2,1,0
1514900114359098,11,-19,-8,2,-1,-1,4,3
1514900114361599,-10,-4,-31,-20,-5,-1,0,9
1514900114361599,-5,18,5,4,-2,-2,-4,-3
1514900114373608,-8,5,15,3,-3,-1,-10,-15
1514900114373608,2,18,24,19,3,4,28,14
1514900114381613,-1,-13,-41,-12,-3,0,-3,5
1514900114381613,3,1,-9,-4,0,-1,-5,-17
1514900114397625,-27,-53,7,8,5,4,19,20
1514900114397625,-9,-24,-14,-10,-4,-4,-26,-33
1514900114402629,8,-9,11,4,0,0,6,-6
1514900114402629,9,1,29,-2,-2,-3,-10,2
1514900114420642,18,6,-6,-6,-3,-2,-4,-2
1514900114420642,-19,5,-8,-6,0,2,4,11
1514900114424644,7,-9,-9,9,-1,1,1,-13
1514900114424644,-5,-5,-11,-25,-2,-1,0,0
1514900114432649,5,22,33,9,1,-1,-4,-1
1514900114432649,-8,-46,-23,-7,-3,-3,6,6
1514900114441656,6,33,32,13,3,-1,-6,2
1514900114441656,-4,-19,-19,1,-1,-1,3,2
1514900114456667,-8,3,0,1,-1,-2,0,10
1514900114456667,-6,-1,-30,-6,0,-2,5,10
1514900114458168,-4,28,27,1,0,-1,4,6
1514900114458168,-13,-14,-20,6,1,2,-3,-3
1514900114479184,6,3,4,-16,-6,-4,-10,-17
1514900114479184,0,-13,15,7,1,0,7,4
1514900114480683,24,-12,-10,5,0,4,2,6
1514900114480683,7,8,3,-4,-2,-2,-2,-4
1514900114492692,5,-16,-26,6,0,0,-2,5
1514900114492692,6,44,7,-12,0,-1,-5,0
1514900114501699,-3,-31,-21,-14,-6,-4,-10,1
1514900114501699,-12,-24,15,8,-1,-1,-6,-21
1514900114516209,-2,24,-22,7,1,-3,-7,3
1514900114516209,4,-1,-12,-8,-3,-4,4,3
1514900114518211,15,19,28,2,2,0,-4,12
1514900114518211,14,25,15,7,-1,1,9,16
1514900114540227,-18,-14,-28,-12,-8,-5,-8,-8
1514900114540227,11,10,23,-8,-2,-1,-5,-11
1514900114543729,-7,-21,-39,-9,-4,-3,-1,-9
1514900114543729,7,5,43,16,6,3,7,7
1514900114552735,5,18,18,-1,1,1,-3,1
1514900114552735,23,30,-13,-1,-2,-2,-5,5
1514900114561741,-27,-17,-13,7,-1,0,-3,3
1514900114561741,2,8,1,-12,-2,-2,-5,-26
1514900114577252,11,11,19,10,3,1,3,-6
1514900114577252,-21,-19,-23,-5,-2,-1,-1,0
1514900114579253,-11,15,17,3,-2,-5,-22,-10
1514900114579253,5,10,-6,16,4,1,3,9
1514900114599267,-25,-11,24,0,1,-1,-2,-3
1514900114599267,11,-5,-20,-4,-3,-4,-8,-19
1514900114600769,4,0,-1,-9,-4,0,1,8
1514900114600769,-4,6,2,8,-1,-3,-3,-23
1514900114612777,-38,-44,-24,-6,0,1,-8,-7
1514900114612777,6,14,20,3,0,2,7,11
1514900114621783,-15,-59,-12,-10,-6,-7,-4,-13
1514900114621783,-3,1,-37,-13,-4,-3,-7,8
1514900114636294,6,0,8,5,3,4,14,2
1514900114636294,-13,-13,12,3,2,-2,1,2
1514900114637796,34,40,17,3,1,4,14,12
1514900114637796,-24,-91,-23,-13,-3,-1,-9,8
1514900114658809,-7,14,13,4,1,-3,8,11
1514900114658809,-3,25,-29,-10,-7,-6,-2,-35
1514900114660811,-1,27,31,11,4,0,-10,1
1514900114660811,3,18,7,-9,0,-2,2,10
1514900114672820,1,13,12,2,-2,0,5,5
1514900114672820,-13,-33,-3,-4,-6,-4,-16,-24
1514900114681826,-14,50,18,4,-1,-3,-4,-9
1514900114681826,-4,-45,-54,-14,-7,-3,2,0
1514900114696346,16,-1,8,-2,-1,-3,-10,-6
1514900114696346,0,36,7,20,6,4,7,2
1514900114697837,-4,-48,-16,-16,-7,-4,1,-16
1514900114697837,2,74,24,7,5,1,-3,4
1514900114719864,3,-45,-12,-2,-1,0,5,-11
1514900114719864,0,30,22,4,-2,-1,-11,2
1514900114723355,3,19,2,2,0,-1,7,15
1514900114723355,10,-5,15,0,-1,-1,3,3
1514900114733362,8,-16,-3,0,1,-2,-9,-7
1514900114733362,-1,10,-10,-8,-3,-2,0,6
1514900114741868,-10,-58,-47,-11,-2,-1,11,2
1514900114741868,-4,13,8,4,-1,-1,-5,0
1514900114763894,-1,24,-11,-2,-2,0,-1,-2
1514900114763894,10,-30,-7,-4,-2,0,-6,6
1514900114765385,-25,19,29,4,2,-1,3,-1
1514900114765385,12,-8,-6,7,2,1,6,0
1514900114778904,-7,-20,18,3,-1,-1,2,5
1514900114778904,-5,16,-18,-7,-1,0,-3,0
1514900114780396,-4,0,-5,3,-3,2,4,2
1514900114780396,4,19,-1,-5,-1,-4,-22,-24
1514900114792912,12,21,24,-4,-2,1,5,0
1514900114792912,-11,-27,-20,-5,-2,-1,0,12
1514900114802410,12,18,8,-3,0,-2,-4,-5
1514900114802410,0,53,23,15,3,1,2,3
1514900114817422,-21,-8,-36,-20,-7,-7,-6,-2
1514900114817422,-19,-25,-11,0,-2,-1,-1,-1
1514900114820924,11,-1,7,9,4,1,-2,-10
1514900114820924,3,50,33,-5,-4,-1,8,14
1514900114838937,8,-22,-31,0,2,2,6,12
1514900114838937,-40,18,39,12,2,0,-14,-17
1514900114840440,5,18,-27,-11,-8,-7,-11,-2
1514900114840440,-1,-5,31,0,2,2,6,-6
1514900114852946,6,0,-5,3,-1,-2,3,17
1514900114852946,8,-6,-40,-14,-7,-5,1,-5
1514900114861465,6,-2,16,8,6,4,-2,5
1514900114861465,-16,-22,-28,2,-3,-3,2,-15
1514900114876473,23,22,44,-7,-2,-1,-2,-1
1514900114876473,6,-3,-21,-4,-1,-1,5,-4
1514900114877964,-15,-14,15,1,-3,-1,-16,-7
1514900114877964,26,-1,-22,-6,-2,0,5,10
1514900114898994,-5,-27,-16,2,-1,0,-5,-10
1514900114898994,1,-18,33,6,2,0,-1,0
1514900114900480,-10,-6,-26,-11,-4,-4,4,0
1514900114900480,8,-30,2,-4,-2,2,6,23
1514900114921996,-2,-27,-15,9,2,-1,-19,-33
1514900114921996,-28,31,8,-2,0,0,4,-3
1514900114924498,-9,7,2,6,1,-1,-2,-13
1514900114924498,-22,-7,0,-10,-3,-2,-14,9
1514900114936507,28,7,-6,-14,-5,-5,20,13
1514900114936507,15,6,-3,1,2,4,4,9
1514900114938008,16,22,37,9,2,2,7,-6
1514900114938008,-19,-9,-19,0,-3,-5,-7,-13
1514900114959021,19,3,-7,7,1,2,-3,5
1514900114959021,5,-10,-18,-4,-1,-2,-1,-19
1514900114960522,37,47,15,0,-2,3,19,26
1514900114960522,-8,-33,-6,-2,0,-3,-20,-11
1514900114981537,-27,-8,-9,-3,-2,-4,-10,-17
1514900114981537,12,14,0,-1,-4,-5,1,11
1514900114983038,-3,5,25,10,1,-2,-7,4
1514900114983038,-32,-13,-60,-17,-3,-3,4,-12
1514900114996048,26,26,3,-4,1,1,-3,1
1514900114996048,-20,-8,43,7,1,0,-5,0
1514900115002564,11,24,-16,-6,-2,-2,5,-5
1514900115002564,14,-32,-17,-1,-2,-1,2,12
1514900115019064,-13,52,19,9,-1,-3,3,6
1514900115019064,3,13,37,-1,0,1,-3,5
1514900115020565,-13,-2,-4,-4,0,-1,-25,-24
1514900115020565,13,18,-2,-2,-4,-6,8,-12
1514900115042080,3,-29,-27,-15,-4,-3,-5,7
1514900115042080,10,22,-15,-1,2,4,3,0
1514900115043581,-23,-25,-14,-14,-5,-6,-9,-10
1514900115043581,18,30,25,14,3,1,1,18
1514900115055589,-27,-53,20,1,0,-1,-6,-19
1514900115055589,-13,-19,-24,-7,-4,0,12,18
1514900115062594,17,19,-3,-6,-2,-3,-3,-10
1514900115062594,2,-20,6,4,1,0,0,4
1514900115079106,2,9,-1,4,-2,-1,9,18
1514900115079106,-7,-22,11,6,3,-1,-22,-18
1514900115081610,-4,26,-38,-13,-1,2,-6,12
1514900115081610,-10,-8,31,10,1,-1,19,15
1514900115101622,-22,18,3,-4,-1,-1,-3,-10
1514900115101622,21,-19,-1,2,-4,-1,7,12
1514900115104136,-33,-32,3,-3,-2,-3,-3,4
1514900115104136,-4,6,-14,1,1,1,7,4
1514900115125139,-10,17,34,10,3,1,-7,6
1514900115125139,15,-2,-8,-4,-2,-2,6,-7
1514900115128642,7,-21,11,-13,-4,-5,0,-10
1514900115128642,11,-16,19,3,0,0,3,1
1514900115139161,-31,-36,-41,-20,-6,-5,-1,-11
1514900115139161,9,25,17,7,-1,-1,-4,-3
1514900115140663,-7,-9,-4,2,-1,0,2,-3
1514900115140663,-29,-50,-4,-7,-5,-2,-3,-18
1514900115161665,46,26,-21,0,-1,-2,-7,7
1514900115161665,-30,-2,-10,-7,-5,-5,-6,-2
1514900115163166,11,-11,27,8,3,3,20,20
1514900115163166,-5,-1,-25,5,-1,-1,-21,-27
1514900115183680,-21,-28,-8,-17,-5,-3,-17,-8
1514900115183680,13,11,-2,2,3,0,7,7
1514900115185682,14,13,-4,-1,-2,-3,1,0
1514900115185682,8,25,-4,-11,-7,-5,-13,-2
1514900115199191,-16,5,-33,-1,-4,-3,0,-5
1514900115199191,3,-9,2,1,-1,-1,-5,3
1514900115200692,-10,-53,-40,-6,-4,-5,-26,-13
1514900115200692,11,26,21,-5,-1,-4,14,2
1514900115221709,6,11,24,8,1,2,16,12
1514900115221709,15,43,-12,2,1,1,-1,8
1514900115223208,-40,-9,-1,-10,-3,-2,-13,-28
1514900115223208,6,6,5,-3,-1,1,-2,4
1514900115236720,29,8,-1,4,2,2,6,4
1514900115236720,-21,-46,17,23,5,1,-3,-5
1514900115250227,-15,-15,-43,-23,-8,-2,12,8
1514900115250227,4,37,16,-4,0,-1,-3,0
1514900115259233,-13,-32,7,2,0,-1,10,6
1514900115259233,0,-7,24,2,-1,0,-15,-26
1514900115260734,27,15,26,11,1,1,2,16
1514900115260734,-28,-35,-38,-10,-5,-6,-11,-18
1514900115280748,0,33,13,4,0,-1,-3,9
1514900115280748,-2,2,-5,-8,-1,-2,4,-1
1514900115289254,-7,33,20,15,3,2,5,9
1514900115289254,3,31,-14,-11,-3,3,-5,10
1514900115304267,-9,-35,14,11,1,0,2,-11
1514900115304267,35,25,2,-19,-6,0,-1,6
1514900115305766,9,-14,19,4,-1,-5,-8,-10
1514900115305766,8,24,-1,4,-1,0,-1,6
1514900115319776,-20,0,-4,0,-3,-5,-14,-20
1514900115319776,6,12,-17,-8,-4,-3,0,1
1514900115323279,1,-7,16,-3,1,0,1,-6
1514900115323279,-15,-15,4,3,0,1,11,8
1514900115341792,7,-6,-18,-5,-1,-2,-28,-22
1514900115341792,-11,-31,-42,-4,-2,-2,3,6
1514900115343293,-9,-4,-22,-17,-3,1,-2,-8
1514900115343293,5,54,27,11,4,1,5,-2
1514900115355801,22,-21,-2,-3,-5,-7,-5,0
1514900115355801,-6,10,10,4,0,0,4,10
1514900115364308,16,27,-2,-10,0,1,-3,1
1514900115364308,-1,-16,-3,-2,1,3,14,5
1514900115378330,18,24,23,0,2,2,3,-20
1514900115378330,-10,-26,4,4,-2,-4,-13,1
1514900115378834,20,34,12,10,-2,-4,2,-15
1514900115378834,1,-32,-17,-2,1,-1,-15,-13
1514900115400834,7,38,13,4,0,1,6,18
1514900115400834,-45,-61,-39,-15,-4,-4,6,-6
1514900115401337,10,12,24,14,6,4,7,7
1514900115401337,-13,-6,-1,-8,-4,-5,-4,12
1514900115431355,7,-2,27,2,-2,2,0,-2
1514900115431355,-15,38,-73,-10,-2,1,1,-9
1514900115431855,2,-6,17,0,-3,-2,-6,14
1514900115431855,-20,-11,-43,-6,-1,0,16,15
1514900115439861,17,11,22,8,1,1,9,12
1514900115439861,7,39,32,-7,-6,-5,-11,-10
1514900115440361,-18,-45,-20,-2,-2,1,2,-9
1514900115440361,-1,11,4,5,-1,-2,-5,0
1514900115460876,-7,-56,-29,-14,-4,-4,1,8
1514900115460876,-18,14,33,6,1,2,6,5
1514900115461378,-20,-37,-53,-8,-4,-2,-7,3
1514900115461378,3,-20,-2,1,0,-1,11,6
1514900115475387,-8,1,18,6,2,0,-5,-16
1514900115475387,13,-5,-11,-1,1,-1,4,5
1514900115490897,-5,12,9,8,-1,-4,1,7
1514900115490897,3,-27,13,-6,2,1,-4,-9
1514900115498402,-30,35,-18,-11,-3,-1,-8,3
1514900115498402,38,-57,1,2,0,-3,7,6
1514900115498903,21,38,6,3,-2,-2,-3,-28
1514900115498903,-6,-71,6,6,-2,-2,-15,-9
1514900115529424,-5,44,34,9,4,3,7,-6
1514900115529424,2,-26,32,0,2,4,-6,1
1514900115530425,-4,19,-65,-12,-2,-3,8,3
1514900115530425,12,0,36,4,-1,-1,2,10
1514900115543935,15,15,-5,2,0,0,-11,-12
1514900115543935,-30,25,16,6,1,3,8,6
1514900115544936,39,-22,-9,11,2,1,-3,-10
1514900115544936,-5,13,-9,-9,-2,1,-2,0
1514900115558445,-19,-44,-21,4,2,0,8,19
1514900115558445,17,6,-7,-3,-6,-3,-3,-27
1514900115558945,-19,-2,-5,-6,0,1,5,20
1514900115558945,4,17,-2,-1,-2,-3,2,2
1514900115580971,-16,51,5,1,1,-3,-15,-11
1514900115580971,12,-10,-12,-4,1,-2,4,9
1514900115581461,-10,0,22,0,-3,-3,8,14
1514900115581461,-21,-20,-21,0,-2,-1,-9,-15
1514900115594970,-13,-8,-15,-3,-2,-3,-6,-11
1514900115594970,0,21,15,4,0,-2,-2,7
1514900115603488,-30,-20,-33,-16,-5,-2,-5,-35
1514900115603488,25,22,9,2,4,3,-3,8
1514900115619488,19,13,-8,-1,-1,-1,0,18
1514900115619488,20,-22,3,-3,-1,1,-8,-7
1514900115620992,4,26,15,11,2,4,-3,1
1514900115620992,-11,-14,22,-4,0,-3,-9,-18
1514900115641027,-16,-26,-40,-17,-8,-8,6,-4
1514900115641027,8,21,15,3,1,2,11,24
1514900115641504,-17,-2,14,10,4,1,-22,-11
1514900115641504,20,-17,-6,4,-4,-6,-4,-16
1514900115655014,12,36,31,8,4,4,5,13
1514900115655014,1,-1,-42,-11,-5,-1,-1,-12
1514900115671024,3,-2,-8,-10,-5,0,-1,-10
1514900115671024,-5,27,13,2,0,-1,-2,-1
1514900115678530,-16,-45,12,0,-2,0,1,-3
1514900115678530,-18,-10,-27,-8,-5,-5,-6,-7
1514900115680031,12,-61,6,15,6,1,-5,-7
1514900115680031,5,-3,-27,-12,0,3,4,3
1514900115700545,2,12,-4,-22,-9,-5,4,3
1514900115700545,-7,-5,10,9,3,1,-6,-18
1514900115701546,-34,3,-3,-15,-7,-3,9,28
1514900115701546,6,22,-6,6,2,1,5,2
1514900115724062,-10,4,-10,0,1,-1,-8,-24
1514900115724062,11,12,26,4,2,3,-2,5
1514900115724562,9,1,-31,-9,-4,-2,26,20
1514900115724562,-11,5,9,13,3,3,-5,0
1514900115738576,15,20,-23,-11,1,1,13,14
1514900115738576,3,0,13,-3,-1,-3,-11,-5
1514900115739074,3,-22,-8,-3,-3,-3,-2,-7
1514900115739074,1,7,9,-3,0,-1,-1,9
1514900115760588,11,-17,-7,7,-1,-2,0,5
1514900115760588,-19,-52,5,4,1,-1,2,3
1514900115768096,6,21,-1,-13,-5,-4,-6,14
1514900115768096,-8,-10,-6,-12,-6,-4,-7,-13
1514900115784139,-5,-26,-17,-1,-1,0,0,-2
1514900115784139,0,31,-10,-8,-7,-7,-6,-13
1514900115784642,-8,-8,37,14,6,5,4,27
1514900115784642,15,-5,-27,0,-9,-11,-9,-10
1514900115798162,-5,-13,-21,-11,-1,1,2,1
1514900115798162,-20,1,43,0,-2,-3,-4,-3
1514900115799152,-1,7,-17,-8,-2,-2,-2,-2
1514900115799152,18,4,27,12,4,2,-5,-7
1514900115821666,-20,26,5,1,-4,-5,-9,-14
1514900115821666,-1,-16,-21,-1,1,0,3,7
1514900115823679,15,52,5,-1,-3,-5,0,-9
1514900115823679,-10,-20,17,-19,-5,-6,-1,8
1514900115844182,6,-6,0,19,7,5,-2,-12
1514900115844182,0,14,-15,-9,-4,0,-4,2
1514900115844682,0,17,33,9,1,0,-3,-10
1514900115844682,1,-21,-25,-1,1,0,-5,-11
1514900115858201,8,-5,-5,9,-1,0,3,16
1514900115858201,14,-36,-24,-3,2,1,-16,-12
1514900115859202,-8,-12,-21,-11,-4,-2,5,-7
1514900115859202,10,63,40,21,7,5,11,13
1514900115881208,-8,-29,0,-6,-1,-1,-1,-2
1514900115881208,7,26,-11,4,1,-2,2,2
1514900115882208,34,-13,22,10,2,-1,-8,-1
1514900115882208,5,1,-15,-4,-3,2,4,14
1514900115904228,-26,-9,1,-5,-4,-4,0,0
1514900115904228,-6,-2,-12,3,-3,-1,15,7
1514900115904728,0,4,-4,5,2,-1,-14,-11
1514900115904728,-11,-39,-23,-7,-1,1,3,-8
1514900115919245,36,3,21,0,-2,0,0,12
1514900115919245,-1,12,1,-4,-1,1,11,5
1514900115920736,4,-16,42,12,-2,-1,0,-11
1514900115920736,-15,-23,-50,-19,-4,-3,-9,-4
1514900115940750,8,9,-51,-13,-5,-7,-2,-6
1514900115940750,-32,-49,-10,-8,-3,-3,-2,-7
1514900115941250,17,18,1,-2,-2,-2,-12,-5
1514900115941250,-19,11,35,6,-3,-3,1,-18
1514900115963766,-14,-21,-25,-19,-1,-2,-23,-31
1514900115963766,7,25,13,12,1,0,6,5
1514900115964767,-12,-3,1,-12,-3,-3,-3,-3
1514900115964767,22,-35,-14,0,0,1,-2,4
1514900115978777,-7,24,47,9,3,0,8,12
1514900115978777,2,-13,1,7,2,0,-5,-11
1514900115979277,1,-15,-36,-3,-2,-1,5,5
1514900115979277,-32,49,25,-14,-5,-1,1,3
1514900116000792,14,-6,18,12,4,4,2,-3
1514900116000792,17,33,-17,-15,-8,-5,-7,6
1514900116001294,-15,8,3,-12,-1,-1,15,17
1514900116001294,1,1,-17,3,-1,-2,-7,-21
1514900116024309,8,-10,4,5,-1,-4,-3,6
1514900116024309,-13,8,14,-3,-2,1,1,-11
1514900116025810,2,-33,0,4,2,3,0,2
1514900116025810,18,73,44,10,0,-2,-5,11
1514900116038319,-44,-48,-80,-24,-7,-3,-8,-7
1514900116038319,8,6,22,13,3,-1,4,-16
1514900116038819,19,5,1,-10,0,1,12,23
1514900116038819,-7,-41,-15,-2,-5,-4,-3,-21
1514900116060849,3,31,16,2,1,1,2,4
1514900116060849,-30,-39,36,4,0,-2,1,10
1514900116061335,5,-26,-77,-8,-2,-2,-14,-15
1514900116061335,7,0,8,5,4,-1,4,5
1514900116084361,20,3,13,-1,-3,-1,13,19
1514900116084361,-12,10,1,-1,-2,-1,-18,-12
1514900116085362,-3,28,-4,5,-1,-4,-15,-13
1514900116085362,-1,6,-9,-17,-7,-5,2,0
1514900116098372,-11,-16,0,4,1,0,3,2
1514900116098372,23,30,42,23,5,-2,-4,9
1514900116098862,-16,-9,-48,-35,-5,0,-2,0
1514900116098862,-8,65,2,2,0,-2,1,3
1514900116120879,-9,-92,-17,1,-3,0,-8,-9
1514900116120879,-2,5,-15,-12,-5,-3,-2,-1
1514900116121377,-10,14,34,12,-1,1,2,2
1514900116121377,-5,-24,-2,3,-1,-2,-6,3
1514900116143894,29,61,33,7,4,4,14,13
1514900116143894,-13,-7,-3,-6,-3,0,-18,-26
1514900116144895,11,-15,4,-5,-4,-5,-4,-9
1514900116144895,26,-3,46,10,3,2,1,4
1514900116158416,-1,22,-63,-16,-11,-9,-11,-10
1514900116158416,-40,7,-21,-6,-1,-3,-3,4
1514900116158912,-17,-13,12,6,0,-1,9,5
1514900116158912,-15,-24,-8,0,1,1,-13,-24
1514900116180920,-3,-2,7,-1,-1,-4,-8,-9
1514900116180920,14,2,4,0,0,-1,1,8
1514900116181420,-3,19,9,-2,-2,-2,-1,-2
1514900116181420,-20,-56,-45,-5,-1,-1,8,20
1514900116204438,0,-4,22,2,-1,-3,-1,-5
1514900116204438,9,25,-14,-1,0,1,4,1
1514900116205439,-2,24,20,7,-1,-1,0,-9
1514900116205439,0,-14,4,-5,-3,-1,3,3
1514900116218946,10,13,0,3,3,1,-3,1
1514900116218946,-22,-56,13,-8,-7,-4,2,0
1514900116220949,-1,-7,3,12,2,1,0,-3
1514900116220949,-4,0,-41,-21,-6,-4,1,7
1514900116240462,0,29,28,4,-2,-1,6,-11
1514900116240462,5,-2,-8,1,-1,0,-10,-14
1514900116241463,0,-12,-2,-1,-4,0,-1,2
1514900116241463,2,-3,5,4,0,0,-1,0
1514900116263988,-8,0,19,11,1,-1,-1,9
1514900116263988,14,10,-10,-12,-1,2,17,6
1514900116264479,-15,-11,-16,-11,-2,-1,-3,-12
1514900116264479,3,8,10,12,2,0,-3,-6
1514900116277988,-8,-7,8,-16,-1,0,0,0
1514900116277988,4,2,-3,1,-1,-2,-2,1
1514900116285993,-1,-10,-16,-2,-1,-1,-3,-3
1514900116285993,-1,-12,-9,10,-1,-1,-2,-3
1514900116301005,-7,-6,-11,-4,-3,-2,-2,2
1514900116301005,7,0,-5,-6,-1,-1,-2,-4
1514900116301505,4,0,24,1,0,0,3,4
1514900116301505,-2,15,32,10,1,-1,-1,0
1514900116325522,-3,-17,-20,-1,-3,-2,-3,-4
1514900116325522,4,8,-3,-6,-2,1,3,5
1514900116326523,2,10,7,6,0,-2,-5,-2
1514900116326523,2,-11,14,0,0,2,3,2
1514900116338531,-5,-1,-9,-11,-5,-3,-6,-1
1514900116338531,2,3,-4,3,-1,0,5,1
1514900116339032,-1,-7,4,-2,0,-2,-1,-3
1514900116339032,-3,2,-8,-8,-1,0,-1,-2
1514900116360546,-1,2,12,5,1,2,0,1
1514900116360546,4,-9,-10,16,2,2,0,-1
1514900116361547,-2,2,-13,-19,-5,-1,-1,0
1514900116361547,-1,7,1,0,-2,-2,0,0
1514900116384063,-1,0,-6,6,1,2,3,1
1514900116384063,2,16,0,-6,-1,-2,3,4
1514900116384565,2,-1,6,8,2,1,1,-1
1514900116384565,-3,-4,-3,-3,-1,-1,-2,5
1514900116398073,0,-1,14,5,1,-1,-6,-23
1514900116398073,2,-6,-27,-5,-1,0,1,-1
1514900116399074,-2,5,6,2,-2,-3,-7,-2
1514900116399074,1,-11,-16,-7,-3,-6,-5,-1
1514900116421090,-2,-5,8,2,-1,2,1,3
1514900116421090,-6,-2,6,-4,-1,-1,0,3
1514900116421590,0,3,3,1,-1,0,-2,-4
1514900116421590,-2,-7,-10,-3,1,1,-1,-4
1514900116444105,-1,2,4,0,-2,-1,0,5
1514900116444105,-2,5,-3,-6,-3,-2,-3,-5
1514900116444606,-1,-1,-1,2,1,-1,0,3
1514900116444606,2,-1,-1,1,-1,-1,2,-3
1514900116457615,-5,-2,-2,-2,-1,-1,1,2
1514900116457615,1,-3,2,0,-1,-1,-2,-1
1514900116465621,-1,-2,7,5,1,1,2,-1
1514900116465621,-1,-1,6,-4,-3,0,0,0
1514900116480632,0,-6,-13,-3,0,-3,-2,-1
1514900116480632,2,-4,4,0,-1,-1,-1,1
1514900116482633,0,-2,0,-3,0,0,-1,2
1514900116482633,-2,-3,-9,-3,-2,-3,-2,-1
1514900116504149,3,10,8,1,-1,0,0,4
1514900116504149,-2,-2,2,2,-2,-1,-1,-1
1514900116504650,0,-1,-7,-1,0,0,0,0
1514900116504650,-1,-1,-1,-3,-3,1,-1,-3
1514900116517657,-3,-2,-1,0,1,-1,-2,-1
1514900116517657,-1,-2,-1,-3,-1,-1,-1,1
1514900116526664,-1,0,6,0,-1,0,0,-3
1514900116526664,-1,-2,-8,2,1,-2,0,0
1514900116540674,-3,-5,0,4,4,0,-2,-1
1514900116540674,0,-1,-5,5,-2,0,0,-3
1514900116541675,-4,-2,-2,-4,-1,1,1,0
1514900116541675,-1,-1,0,-7,-4,-1,0,-2
1514900116563690,0,-2,-2,2,-3,-3,0,-1
1514900116563690,0,-2,-3,-4,0,1,-3,0
1514900116564692,-1,-3,0,2,0,-1,-1,0
1514900116564692,0,-4,-3,3,-2,-3,-2,-2
1514900116577710,0,0,-1,-6,-3,-1,-2,-1
1514900116577710,0,-5,-4,-3,0,-2,1,-3
1514900116585716,0,1,1,-1,0,-1,1,0
1514900116585716,-5,-2,-3,-1,0,-1,-1,-3
1514900116600717,1,0,-3,-3,-2,-2,-4,0
1514900116600717,-1,-1,0,-2,-1,-1,-2,-1
1514900116601733,0,-2,-4,2,0,-1,-1,-2
1514900116601733,0,-3,-4,-2,-1,-2,-1,0
1514900116625243,-1,-1,2,-1,-3,1,1,-2
1514900116625243,-1,1,-1,-1,-1,-1,-3,-2
1514900116627235,-1,0,-1,-2,-3,-2,-2,-2
1514900116627235,0,-2,-2,0,0,-1,0,0
1514900116637744,-1,-3,1,-3,-1,-1,-1,-1
1514900116637744,0,-2,-5,-3,-3,-1,0,-2
1514900116645748,-1,-2,-2,0,0,0,1,-1
1514900116645748,-3,-2,-1,0,0,0,-2,0
1514900116660771,-2,-1,-1,-1,-2,-2,-3,0
1514900116660771,-3,1,-1,-3,0,-2,0,0
1514900116661760,0,-1,-2,-1,-2,-2,-1,-2
1514900116661760,0,0,-1,0,-1,0,0,-2
1514900116683775,-1,-1,-2,-3,-1,0,-1,-2
1514900116683775,0,-1,0,-1,0,-3,-1,-1
1514900116684294,-2,-1,-2,1,0,-1,-1,-2
1514900116684294,0,-1,0,-2,-1,-2,-1,1
1514900116697285,-1,-1,-2,-1,-2,-2,1,-1
1514900116697285,0,2,0,-1,-2,0,-1,-2
1514900116705792,-2,-3,-1,-2,-3,-3,-1,-2
1514900116705792,0,-1,0,-1,1,1,-1,-1
1514900116721303,0,-1,-2,-3,-1,-3,-2,-1
1514900116721303,-2,-1,-1,-2,-1,-1,-1,-2
1514900116723304,1,-2,-1,-1,0,0,-2,-2
1514900116723304,-1,-3,-1,0,-1,0,0,0
1514900116743830,-1,1,-2,-1,-1,0,0,1
1514900116743830,-1,0,-1,0,0,0,-2,0
1514900116744828,-1,-2,-1,-2,-1,-2,-3,-1
1514900116744828,0,-3,0,-2,-1,-4,-2,-2
1514900116767334,-3,0,-1,0,0,1,1,-1
1514900116767334,-1,-1,-1,-2,-1,-1,-1,-3
1514900116768335,-1,0,-1,-1,-1,-2,0,0
1514900116768335,-1,-3,0,-2,-2,-2,-2,-2
1514900116780843,-1,0,-1,-2,-2,-2,-2,-1
1514900116780843,-1,0,-4,-2,-2,0,0,-2
1514900116781344,-1,-2,-2,-1,-1,-1,0,-1
1514900116781344,-2,-3,-2,0,-2,-1,0,-1
1514900116803860,-2,-1,0,0,-2,0,1,-1
1514900116803860,-1,-1,-1,1,-1,-1,-1,0
1514900116804861,-2,-1,0,-2,0,0,-1,-1
1514900116804861,-2,-1,-2,-1,0,-1,-2,-1
1514900116827376,-1,-2,-3,-1,-2,0,-2,0
1514900116827376,-1,0,1,-2,-1,-1,-2,-1
1514900116828878,-1,-3,-3,0,0,-1,-2,0
1514900116828878,-1,-1,-1,-1,-1,-1,-2,-1
1514900116840886,-2,-2,-1,1,-2,-2,-1,-2
1514900116840886,-1,0,-1,-3,-2,0,-1,1
1514900116841386,0,-1,-1,-1,-2,0,-1,0
1514900116841386,1,-1,-1,0,-1,-3,-1,0
1514900116864903,-1,1,-1,-4,-1,-2,-1,-1
1514900116864903,-1,0,-2,0,0,-1,-2,0
1514900116866404,-1,-1,0,0,-3,-2,0,0
1514900116866404,-3,-3,-2,-2,0,-1,-2,0
1514900116886418,1,-4,-1,-1,0,0,0,-2
1514900116886418,-1,0,-2,-1,-1,-1,0,-2
1514900116887420,2,-2,1,-1,0,0,-1,-1
1514900116887420,-2,-2,-1,0,0,-3,1,-2
1514900116900428,-1,-2,-1,-3,-1,-2,-2,-1
1514900116900428,-1,0,-1,-2,-2,-2,-2,-1
1514900116901429,-1,-4,-2,-1,0,-1,0,-1
1514900116901429,0,-2,-1,0,-2,-1,-2,-1
1514900116924946,-1,-1,-2,-1,-1,-1,-2,-1
1514900116924946,0,1,-1,-1,-1,-2,-2,-3
1514900116925446,-1,0,-1,-2,-1,-2,-1,-1
1514900116925446,1,-1,-1,0,0,-1,-1,-1
1514900116946482,-1,-1,-1,-1,-1,-2,0,0
1514900116946482,0,-1,0,-1,-1,-2,-1,-2
1514900116947484,-1,-1,-2,-1,-1,-2,-1,-2
1514900116947484,-1,-2,0,-1,-1,-1,-1,1
1514900116960471,-1,-1,-1,-2,-2,-2,-1,-1
1514900116960471,-1,-1,0,-1,-2,0,-1,-2
1514900116961472,-1,-2,0,-1,-1,-2,-2,-2
1514900116961472,-1,-1,-2,-2,-2,-1,0,-1
1514900116983990,-1,1,0,-1,-1,-2,0,1
1514900116983990,-2,-2,-1,0,-1,-1,0,0
1514900116984488,-1,0,-2,-1,-2,-1,0,0
1514900116984488,-3,-3,0,-2,-1,0,-1,-3
1514900117006513,0,-2,-1,-1,-1,0,-1,-1
1514900117006513,0,-1,-2,-2,-2,1,-1,-1
1514900117007503,-2,-2,-1,0,-1,0,-2,-1
1514900117007503,-1,-1,0,-2,0,-1,-2,0
1514900117029019,0,-1,0,-2,-1,-1,-1,-3
1514900117029019,-1,1,-2,-2,-1,0,-1,-1
1514900117029520,-2,-1,-2,-2,1,-1,0,0
1514900117029520,-1,0,-1,-1,-1,-1,-1,-1
1514900117044029,-2,0,0,0,0,0,-2,-3
1514900117044029,-1,2,-1,0,-2,0,0,-2
1514900117044530,1,-3,0,0,1,-2,-2,-1
1514900117044530,-1,-3,-1,-1,-2,-2,-2,-2
1514900117074061,-2,0,-3,0,-1,-2,0,-1
1514900117074061,-1,-2,0,0,0,-2,-3,0
1514900117074554,-2,0,0,-1,-2,1,-1,-1
1514900117074554,-1,-1,-2,-2,0,-2,-1,1
1514900117080565,-1,-2,-1,0,-2,1,-2,0
1514900117080565,-1,0,-1,-4,-3,2,-1,0
1514900117081566,0,-2,1,-1,-1,-2,0,-2
1514900117081566,1,-2,0,0,-1,0,0,-1
1514900117104576,-1,-1,-3,-1,-1,-1,-1,-1
1514900117104576,-1,-1,-2,0,-1,-3,-1,0
1514900117106083,-1,-1,-3,-2,-1,-1,-1,-1
1514900117106083,0,-2,-2,-2,-2,-1,-1,0
1514900117127089,-3,-1,-1,0,-1,-1,-1,0
1514900117127089,-1,-1,-1,-1,0,-2,-2,-2
1514900117128090,0,0,-1,0,-2,-1,-1,0
1514900117128090,-1,-2,1,1,-2,-1,-1,-1
1514900117140611,-1,1,-1,-1,-2,2,0,-1
1514900117140611,-2,-2,-2,-1,-1,-2,0,-2
1514900117141598,-1,-3,-1,0,-2,-2,0,0
1514900117141598,1,-1,-3,-1,-1,-1,-1,-1
1514900117164114,-2,1,-1,-1,-2,-2,-2,-1
1514900117164114,-1,0,-2,-1,2,0,-1,0
1514900117164615,-1,-1,1,-3,-1,-1,-1,-2
1514900117164615,0,-2,-2,-1,-1,-2,-1,0
1514900117186641,-2,1,0,0,-1,-1,0,-1
1514900117186641,0,1,0,-1,0,-2,0,-2
1514900117187131,-1,-3,-2,-2,-1,-2,0,-1
1514900117187131,-2,-2,-2,-1,1,-1,-1,-1
1514900117200160,0,0,0,0,-2,0,-2,-1
1514900117200160,1,0,-2,-1,-2,-1,0,-1
1514900117208156,-1,0,-1,-1,-2,-1,-1,0
1514900117208156,0,-1,-2,-2,0,-1,-1,0
1514900117223658,1,-2,-3,-2,0,-1,0,-2
1514900117223658,-1,0,-2,0,0,-1,-2,-1
1514900117224658,0,-1,-2,-3,-1,-2,-1,-1
1514900117224658,-2,-2,-1,-1,-1,0,-3,1
1514900117246674,-2,-2,-1,-2,-1,0,0,0
1514900117246674,-1,-1,-1,-2,-2,-3,0,-1
1514900117247174,-1,-2,-1,-2,0,0,-2,-1
1514900117247174,-3,-2,0,0,-1,0,-1,-2
1514900117260684,0,-1,-1,-1,1,-1,-1,-3
1514900117260684,-1,-1,-1,0,-3,-2,-1,-1
1514900117262694,-1,-1,-2,-1,-1,-3,0,-1
1514900117262694,0,-1,-2,0,-1,-1,-1,-1
1514900117283709,0,-1,0,0,-1,-1,-1,-1
1514900117283709,-2,-2,-1,-1,-2,2,-1,0
1514900117284699,-1,-3,0,0,-1,-1,-1,-2
1514900117284699,-1,-4,0,0,-2,0,1,0
1514900117306215,0,0,-1,-2,-1,-2,-1,-2
1514900117306215,-1,0,0,0,-1,0,0,0
1514900117307215,0,-2,-1,-2,0,2,0,-1
1514900117307215,0,-1,0,-1,-2,0,-1,-2
1514900117321728,0,0,-1,0,0,-2,-1,-1
1514900117321728,0,-2,-1,-3,-1,-3,-3,-3
1514900117323728,0,-1,-1,0,-1,-1,-1,-1
1514900117323728,-1,-3,-2,-1,0,-3,0,-1
1514900117343747,-2,-1,-1,-1,-1,-1,0,0
1514900117343747,-1,1,-1,-1,-2,-2,-1,0
1514900117344749,-3,0,-2,0,-3,0,-3,0
1514900117344749,3,-2,-1,-2,-1,-1,-2,-1
1514900117366296,-1,0,-3,-1,-2,-3,-3,0
1514900117366296,0,-1,-1,-1,0,0,0,-2
1514900117367267,-2,-3,0,-1,-2,0,-1,1
1514900117367267,-1,-2,-1,0,0,-2,0,1
1514900117380277,-1,0,-1,-1,0,-1,0,-1
1514900117380277,-1,0,0,-1,1,-1,-2,-1
1514900117388275,-1,-2,-1,-2,0,-2,-2,-1
1514900117388275,-1,-2,-2,-2,0,-1,-2,0
1514900117403793,1,-2,0,-4,0,-1,0,-1
1514900117403793,-1,-1,-1,0,-3,-1,-1,-2
1514900117404794,-1,0,-1,-2,0,-1,0,-2
1514900117404794,-1,-1,0,-1,1,-1,0,0
1514900117426300,-1,1,-2,1,-2,0,-2,-4
1514900117426300,0,1,-1,-2,-2,-2,-1,-1
1514900117427301,0,-2,-3,-1,-2,-1,-1,0
1514900117427301,0,-2,-2,-1,-1,-2,-1,-2
1514900117440312,-1,-1,0,-2,-2,-3,-2,1
1514900117440312,-3,-1,-1,0,0,-1,-2,-2
1514900117448834,-1,-1,-1,-1,-3,1,-2,-1
1514900117448834,-3,-1,-1,0,-2,0,-2,-2
1514900117463844,-1,-2,-3,-1,-1,1,-3,1
1514900117463844,0,-1,-1,0,1,0,-2,0
1514900117464846,0,-2,-2,-2,0,-2,1,-1
1514900117464846,-1,-3,-2,-1,-1,0,0,-1
1514900117486354,-2,1,-2,-1,-1,-1,0,-1
1514900117486354,-2,-1,-1,-2,0,0,0,0
1514900117488345,-1,-1,-1,1,0,-3,-2,-1
1514900117488345,-2,-1,1,-1,-1,0,-2,-1
1514900117508858,-2,-1,-2,0,-1,-1,-2,1
1514900117508858,1,0,-1,-3,-1,-2,-1,-1
1514900117510359,1,-1,1,-2,-1,-2,-1,-1
1514900117510359,-1,0,-1,-1,-1,1,0,-1
1514900117524369,0,-2,-1,-2,-1,0,-2,-1
1514900117524369,-1,-1,-2,-2,-1,-1,-1,-2
1514900117525870,-1,-3,-1,0,0,-2,-1,-2
1514900117525870,-1,-1,-2,-1,-2,-3,-1,-1
1514900117554392,-1,-1,-1,-1,-1,1,0,-3
1514900117554392,-2,1,-1,-2,-2,0,-1,-2
1514900117557402,-1,-2,-1,-1,0,1,-2,-1
1514900117557402,-1,-1,0,-1,-1,0,-2,0
1514900117559894,-1,0,-2,-2,0,-3,-2,-2
1514900117559894,-1,-1,-2,-1,0,-2,-2,-1
1514900117569901,0,0,0,-1,0,0,0,-2
1514900117569901,-2,-2,-2,-2,0,-1,0,-3
1514900117583927,1,0,0,-1,-2,-1,-1,-1
1514900117583927,-1,-2,0,-1,-2,-1,-2,-1
1514900117589941,0,-3,0,0,-1,0,-2,-1
1514900117589941,-1,-4,-1,-2,-2,0,0,0
1514900117606427,-1,1,-1,0,0,0,0,-1
1514900117606427,-1,-1,-2,-1,-2,-1,-1,-2
1514900117607928,-2,-2,-1,-2,-1,-1,-1,-1
1514900117607928,0,-1,0,-1,-1,-2,0,-2
1514900117621440,-2,-1,0,-2,-1,-2,-2,-1
1514900117621440,-1,0,-2,-1,-2,0,-1,-1
1514900117628944,1,-1,-3,-2,-2,1,-1,-1
1514900117628944,1,-1,-1,-2,-1,0,-1,0
1514900117643964,-1,2,-1,0,-1,-2,-1,0
1514900117643964,-2,-2,-1,-1,-1,-1,-1,-1
1514900117645464,-1,0,0,-2,-1,-1,0,0
1514900117645464,-2,0,-2,-1,-1,-1,-1,-2
1514900117666473,0,-2,-1,-1,-1,0,0,-2
1514900117666473,-1,0,-2,-3,0,1,-2,-1
1514900117667970,-2,0,-1,-2,0,-2,0,-1
1514900117667970,0,-3,-1,0,-1,-2,-2,1
1514900117679979,-1,-1,-1,-2,-1,-1,-1,0
1514900117679979,-1,0,-2,0,-1,-1,0,-1
1514900117688986,0,-2,-2,1,0,-2,-2,-1
1514900117688986,0,-1,-1,1,-2,0,-2,-1
1514900117704008,-1,-1,-1,-1,-1,-2,-2,-1
1514900117704008,-1,-1,-1,-1,-1,-2,-1,-2
1514900117705499,-1,-1,-1,-2,-1,-2,-2,-1
1514900117705499,-1,-1,-3,0,0,1,-1,-1
1514900117726513,0,-2,-2,-1,-1,-1,-2,-2
1514900117726513,-1,-1,0,0,-2,-3,-1,-1
1514900117728014,0,-2,-2,-3,0,-3,-2,0
1514900117728014,0,-1,-1,0,-2,-1,0,1
1514900117749528,-2,0,-1,1,-2,-1,2,-1
1514900117749528,0,0,-1,-1,-1,-1,1,-1
1514900117752030,-1,-2,-1,-2,-1,1,-1,-2
1514900117752030,-1,-3,-2,-2,-1,-2,-1,-1
1514900117764038,-2,-2,0,-1,-1,2,-4,0
1514900117764038,-1,-1,-2,1,-2,0,-1,-2
1514900117765556,0,0,0,-1,-1,-2,0,-2
1514900117765556,-2,-1,-1,-2,-2,-1,-1,0
1514900117786556,-2,0,-2,0,-2,-2,0,0
1514900117786556,-1,-2,-1,-2,-2,0,0,-1
1514900117788056,-1,-2,-1,1,-3,1,-2,0
1514900117788056,0,-1,0,-1,-1,-2,-1,-2
1514900117809080,-1,0,-2,-2,-1,-2,0,-2
1514900117809080,-1,1,-1,-2,-1,0,-1,-1
1514900117810571,-2,-2,-1,0,-1,-1,-1,-1
1514900117810571,0,-1,0,-1,-1,0,-1,0
1514900117823580,-2,0,0,-1,0,-2,-1,-2
1514900117823580,-1,0,-1,1,-1,-2,-1,-1
1514900117830085,0,0,-3,-2,-2,-2,-1,-2
1514900117830085,-1,0,0,-1,0,-2,-1,-1
1514900117846598,-1,-1,-2,-2,-1,0,0,1
1514900117846598,1,2,-1,-1,-1,-1,-3,-1
1514900117848110,-1,-1,0,-1,-2,-2,-1,-1
1514900117848110,-1,-2,-2,-1,-1,0,1,-2
1514900117869122,-2,-2,-2,-2,-2,0,-2,-2
1514900117869122,-1,-3,-1,0,-1,0,-1,-3
1514900117871626,-2,-2,-1,-3,-1,-1,-1,-1
1514900117871626,0,-1,0,-1,0,-2,-2,0
1514900117883633,0,0,-2,-2,0,-1,-1,-2
1514900117883633,-1,0,-2,0,-1,-1,0,-1
1514900117891631,0,-1,0,0,-1,-2,0,-1
1514900117891631,-3,0,-1,-1,-1,0,1,0
1514900117906651,1,1,-1,0,-1,1,-2,-2
1514900117906651,-1,0,-1,-3,-1,-2,-2,-1
1514900117908152,0,-2,-2,0,-1,-1,-1,-2
1514900117908152,-2,-2,-1,-2,-1,-2,-1,-1
1514900117929157,-2,-3,-2,0,-1,-2,0,-1
1514900117929157,-1,-2,-1,-2,-1,0,-1,-1
1514900117930658,-1,-1,-1,0,1,-1,0,0
1514900117930658,0,0,0,-1,-1,-1,0,-1
1514900117943666,1,1,0,-1,-1,-3,-1,-1
1514900117943666,-2,-2,-1,-2,-2,-3,-1,-3
1514900117950170,-2,-1,0,-1,0,-1,0,-1
1514900117950170,-1,-2,0,1,0,-1,0,-1
1514900117974189,-3,-1,0,-3,0,-1,-1,-1
1514900117974189,1,1,-3,-2,-1,-2,-1,1
1514900117975690,-1,-2,-2,-2,-1,-1,-3,-1
1514900117975690,-1,0,-1,0,-1,1,-2,-1
1514900117989201,-1,-1,-2,-3,0,-2,-1,0
1514900117989201,-2,0,-1,0,-2,-3,-1,-2
1514900117990701,-2,0,-2,0,-1,0,0,0
1514900117990701,-1,-3,-2,0,-2,-2,-2,-1
1514900118011713,-1,0,-2,0,-2,1,-1,-2
1514900118011713,-2,-1,-2,-1,-1,0,0,-4
1514900118013215,-1,-1,-1,0,0,-1,-1,-2
1514900118013215,0,-1,0,0,-1,-2,0,0
1514900118026224,-2,-1,-1,1,-1,-1,0,0
1514900118026224,0,-2,-3,-1,-1,-2,-2,-1
1514900118028226,-1,-2,-1,-1,-1,0,-2,0
1514900118028226,-1,-2,-2,-1,-1,-1,-1,1
1514900118048739,-1,-2,-1,-2,-1,0,-1,1
1514900118048739,-1,-1,0,-2,-3,0,-2,-1
1514900118050742,-1,-2,0,-1,0,-2,0,0
1514900118050742,-2,-2,-2,0,-2,-2,-3,-1
1514900118063251,-1,-1,-2,0,0,-1,0,-1
1514900118063251,-3,-3,0,0,-2,0,0,-1
1514900118070255,-1,-2,-1,-1,-2,-3,-2,-1
1514900118070255,-3,1,0,-2,1,0,-1,-3
1514900118086767,0,1,0,-1,-1,-2,0,-2
1514900118086767,-2,-3,-2,-3,0,-1,-1,-1
1514900118088268,1,-1,-2,-1,-1,-1,-1,-1
1514900118088268,0,-3,-1,-2,0,-1,-1,-2
1514900118109286,-2,-2,-1,-1,-2,1,-3,-2
1514900118109286,-1,-1,-2,1,0,-3,-2,0
1514900118110787,-1,-3,-3,-1,-1,-1,0,-1
1514900118110787,0,0,-2,-1,-1,0,-1,-1
1514900118123294,-1,-1,1,0,-1,1,-1,-1
1514900118123294,-1,0,0,-2,-1,0,0,-1
1514900118130309,-3,-1,-2,-1,-1,-1,-2,-1
1514900118130309,-3,1,-2,-1,-1,-1,0,0
1514900118146809,-3,0,-2,-2,-3,-2,-1,0
1514900118146809,0,-2,-2,-3,-2,-1,1,-1
1514900118148314,-1,0,-1,-1,0,-1,-1,-3
1514900118148314,-1,-3,-2,-1,0,1,-1,0
1514900118169326,0,-1,-2,-3,-2,-2,-2,0
1514900118169326,0,-1,-1,0,-1,1,-2,0
1514900118172829,-1,-2,0,-2,-2,0,0,-1
1514900118172829,1,-1,0,-1,-1,-2,0,-1
1514900118183335,0,-2,-3,0,0,-1,-1,-1
1514900118183335,0,-2,-2,-1,0,-1,-1,1
1514900118190344,1,-2,0,-2,-1,0,-2,-1
1514900118190344,-2,-1,0,0,-2,0,-1,-1
1514900118206855,-2,-1,-3,-1,-3,-4,-1,0
1514900118206855,-1,-1,-1,0,-1,-3,0,-1
1514900118208355,-3,-2,-1,-1,0,-2,0,0
1514900118208355,-1,-2,-1,-2,-2,0,-1,-1
1514900118229373,-1,1,-1,-3,0,-1,-1,-3
1514900118229373,-2,-2,0,0,-1,0,-2,-1
1514900118230369,-1,-3,-3,-1,-1,-1,-1,-1
1514900118230369,-1,-2,-1,0,-3,-2,0,0
1514900118242879,-1,-4,-2,-1,0,-1,0,-2
1514900118242879,-1,-2,0,-1,-1,-1,-1,-1
1514900118253385,-1,1,-1,1,-2,-1,-3,-1
1514900118253385,-1,1,-2,-1,-2,-2,-1,-1
1514900118266393,0,0,-2,-1,-2,1,-2,-1
1514900118266393,-2,-1,-1,-1,-2,-4,0,-2
1514900118267894,-1,-3,-1,1,-2,-2,0,-2
1514900118267894,0,-1,0,-2,-1,-2,1,-1
1514900118289411,-2,0,0,-1,0,0,0,-3
1514900118289411,-1,-1,-2,-2,-1,0,-1,-2
1514900118290413,-2,-2,0,-3,0,-3,-2,1
1514900118290413,0,-1,-2,-2,-1,-1,-1,-2
1514900118302418,-2,-1,0,-1,1,-1,-1,-2
1514900118302418,-1,1,-2,0,-2,-1,-1,-1
1514900118311932,0,-2,-1,0,-1,-1,-1,1
1514900118311932,-2,-1,0,-1,-2,0,-2,-2
1514900118326937,-1,-1,0,-3,0,-1,0,0
1514900118326937,-2,-4,0,-2,-2,-1,-2,-1
1514900118327937,-1,-2,-2,1,-3,0,0,0
1514900118327937,-1,-1,-2,-1,0,0,-2,-2
1514900118349455,-2,-2,0,1,0,0,0,-2
1514900118349455,0,0,-1,-1,0,0,-1,0
1514900118352955,0,-1,-2,-3,-1,-2,0,-2
1514900118352955,-1,-1,-2,0,-2,-1,-1,-1
1514900118371971,0,0,-1,1,-1,-3,-1,-1
1514900118371971,-1,-2,0,-2,1,-3,-1,-1
1514900118372970,0,-2,0,0,0,1,-2,-2
1514900118372970,0,-1,-2,-1,-2,0,-1,-1
1514900118386478,0,1,-2,0,-3,-1,-2,0
1514900118386478,-2,-1,-3,-2,-1,0,-1,-1
1514900118387980,1,-2,-1,-2,0,-1,1,-2
1514900118387980,-2,-1,-2,-1,0,-2,-1,-1
1514900118408998,-1,-1,-1,-1,-1,-1,0,-1
1514900118408998,0,-1,-1,-1,-2,-3,-3,0
1514900118410498,-2,-2,-1,0,-2,1,-2,-2
1514900118410498,0,0,0,0,-1,-1,0,1
1514900118423511,-2,-1,0,0,-1,-1,-1,0
1514900118423511,-1,-1,-2,-1,-2,-1,-1,-1
1514900118431511,-1,-1,-2,-1,-1,-2,-2,1
1514900118431511,-1,-2,-3,-2,0,-2,-1,-2
1514900118446521,-2,-3,0,-2,-1,0,-1,-1
1514900118446521,-2,-1,0,0,-1,-1,-1,-2
1514900118452525,0,-2,-1,-1,0,-1,-2,-2
1514900118452525,1,-1,0,-2,-2,-1,-1,-2
1514900118470039,-2,1,-3,-2,-2,0,-2,-2
1514900118470039,0,-1,0,-1,0,-3,-2,-1
1514900118473540,-1,-1,-1,0,-2,-1,-2,-2
1514900118473540,-1,-1,-1,0,-1,-2,-1,-1
1514900118491052,-2,0,-2,1,0,1,1,-1
1514900118491052,-1,-1,-2,-2,-3,-2,-2,-2
1514900118497556,-3,-2,-1,-3,-2,-2,-1,0
1514900118497556,-2,-1,0,-2,0,-2,-1,-1
1514900118506579,1,3,7,-1,-1,0,0,-2
1514900118506579,-1,-2,-10,-1,0,-2,0,-1
1514900118508074,-1,-2,3,0,-1,0,-3,-2
1514900118508074,-1,2,6,1,0,1,-2,-1
1514900118529079,-1,0,-4,-1,-2,-3,-2,0
1514900118529079,-5,-10,-16,-5,-1,-2,-2,-1
1514900118530580,0,0,3,-2,-1,-2,0,-1
1514900118530580,1,1,-2,0,-1,0,-2,0
1514900118543101,0,0,4,-2,-1,-2,-2,-3
1514900118543101,-1,3,7,1,1,2,-1,0
1514900118551595,-2,-4,-6,-2,-1,-1,0,-2
1514900118551595,-2,0,5,0,-1,-1,-1,-2
1514900118566629,0,-1,-5,-1,-2,-1,-1,0
1514900118566629,0,1,-1,-2,-1,-1,-2,-2
1514900118569118,-2,-1,-2,-1,-1,-2,-1,0
1514900118569118,-1,0,-3,-1,0,1,-1,-1
1514900118589121,-1,-3,-5,-2,0,-1,-3,-2
1514900118589121,-2,0,2,0,-2,-1,1,-2
1514900118590632,0,1,0,-1,0,-2,0,1
1514900118590632,-2,-4,-3,-2,-1,-2,-1,-1
1514900118602640,-2,-3,-4,-2,-1,-1,0,0
1514900118602640,-1,1,4,1,-1,0,-2,-2
1514900118611647,-1,-1,-1,-1,-2,-1,-1,-1
1514900118611647,-1,-2,-6,-2,-2,-1,0,-2
1514900118626147,-2,-1,-1,-1,-2,-2,0,0
1514900118626147,1,1,2,-2,0,-2,1,0
1514900118628149,-3,-1,-2,-1,0,0,-1,0
1514900118628149,-1,-3,-4,-1,-2,-1,-2,-1
1514900118649176,0,0,-1,-1,-2,0,0,-1
1514900118649176,-1,-1,1,0,0,0,-1,0
1514900118651165,1,-3,-2,0,-2,-2,-2,-3
1514900118651165,0,-1,2,-1,0,0,-2,0
1514900118671684,2,-2,-1,-1,0,-2,0,0
1514900118671684,-3,2,1,0,0,1,0,-1
1514900118673191,-1,-2,-4,0,-1,-1,-1,0
1514900118673191,-1,3,2,0,-2,-1,0,0
1514900118686199,-4,-2,-2,-5,-1,-2,-1,-2
1514900118686199,0,-4,-5,-1,-2,-2,-2,-2
1514900118688192,0,0,1,-1,-2,0,0,-1
1514900118688192,-1,-1,-1,0,-1,-1,0,-1
1514900118708705,-1,1,4,1,-1,-2,-2,-2
1514900118708705,-2,0,3,1,-1,0,-2,-1
1514900118710207,0,-2,-1,-1,-3,-1,-2,0
1514900118710207,-2,0,-2,-1,-1,0,-3,0
1514900118731234,-1,-1,-2,-1,2,-2,-2,-1
1514900118731234,0,-1,-1,-2,-2,-2,-1,-2
1514900118733223,0,-2,-2,-2,-1,1,0,-1
1514900118733223,-2,-3,-3,-1,-1,-1,0,-1
1514900118746233,-2,0,-3,-1,-2,-1,-4,-2
1514900118746233,-3,-3,-2,0,-2,0,-1,-1
1514900118748239,-2,1,2,-1,-1,-2,0,-1
1514900118748239,0,-1,-1,-2,-1,0,-2,-1
1514900118769749,-1,0,-3,0,0,0,0,-2
1514900118769749,-2,-2,4,-3,-1,-2,0,-1
1514900118771261,-1,-1,1,0,-1,-3,-2,-2
1514900118771261,-1,0,-1,-1,0,-2,-2,-1
1514900118791277,-2,-4,-9,-2,-1,2,0,-3
1514900118791277,0,1,0,0,-3,-1,-2,1
1514900118793282,-1,-3,-5,-1,-2,0,-1,-1
1514900118793282,-2,0,2,-2,-1,-2,-1,-2
1514900118805785,0,-1,-2,0,-3,-2,-1,1
1514900118805785,-1,-1,0,-2,-2,0,-1,-2
1514900118812779,-2,-1,-2,-1,-2,-2,-1,-1
1514900118812779,-1,-2,-2,-2,-1,-1,-1,-2
1514900118828803,-1,0,1,-1,-1,-2,0,-1
1514900118828803,0,0,-1,-1,-1,-3,0,-1
1514900118830302,-1,-1,1,0,-3,-1,-1,-1
1514900118830302,-2,-1,-7,1,-1,-2,0,-3
1514900118851307,-1,0,2,0,-1,-2,-1,0
1514900118851307,0,-2,-2,-2,0,0,-2,-2
1514900118854310,-1,-2,-1,-1,1,0,-1,-1
1514900118854310,-2,-1,-2,-1,-2,-2,0,0
1514900118865843,-1,-2,-2,-2,-2,0,-2,-2
1514900118865843,-1,-1,-3,0,0,-1,0,-1
1514900118872323,-1,-2,-2,-1,0,-1,-3,-1
1514900118872323,-3,-2,2,-1,-1,0,-1,0
1514900118889334,-1,2,-1,0,-2,0,0,-1
1514900118889334,-2,-1,-1,-2,0,0,-1,-1
1514900118890334,0,-3,-1,0,-1,0,0,-2
1514900118890334,-1,-2,-1,-2,0,-1,-2,0
1514900118911352,-2,-1,-1,-3,-1,-1,0,0
1514900118911352,0,0,0,0,-1,0,-1,-1
1514900118912850,-3,1,1,-1,1,-3,-2,1
1514900118912850,0,-2,-4,0,-2,-2,-2,-3
1514900118926373,0,2,3,-2,-1,-1,-2,0
1514900118926373,0,-1,0,-1,-1,-1,-1,-2
1514900118932376,-2,-2,-6,-2,0,-1,1,-1
1514900118932376,-2,0,0,-1,-1,0,0,-2
1514900118948891,-2,0,-1,-2,0,-1,0,-1
1514900118948891,1,0,2,1,-1,-2,-2,0
1514900118952387,0,-2,-5,-1,-1,-2,-2,-1
1514900118952387,-2,-1,-3,-2,-1,0,1,-1
1514900118971399,-1,-3,-2,0,-1,1,0,-1
1514900118971399,-1,-4,-2,-3,-2,-1,0,-1
1514900118977396,0,-2,0,0,-1,-2,-1,-1
1514900118977396,0,-1,-2,-3,1,-1,-2,0
1514900118985413,1,1,0,-1,-2,1,-1,-2
1514900118985413,-1,-1,-2,-1,-1,-1,-2,0
1514900118992419,-1,-3,1,0,-1,1,-1,-1
1514900118992419,-2,-2,-1,-1,-2,-2,-2,0
1514900119008928,-1,-2,-1,0,-1,0,-2,-2
1514900119008928,-1,-2,-2,-2,0,-1,-1,-1
1514900119010429,0,-2,0,-2,-3,-1,1,-2
1514900119010429,-1,2,0,-2,-2,-1,-1,-1
1514900119030946,-2,1,-1,-1,0,-2,-1,0
1514900119030946,0,-1,-3,-2,-2,-2,0,-1
1514900119037439,-1,-2,-2,0,-1,-2,1,0
1514900119037439,1,0,-1,-2,-1,-1,0,-3
1514900119045945,-1,0,-1,-1,-1,1,0,-2
1514900119045945,-2,-3,-4,-2,0,-1,-2,-1
1514900119052461,-2,-1,0,-3,0,-1,-2,-2
1514900119052461,0,-1,-1,0,-2,-1,-1,-2
1514900119068982,0,0,1,-1,-2,-3,-1,-1
1514900119068982,-2,-2,-1,-1,1,-1,0,-2
1514900119071462,-1,-1,-2,-1,-2,-1,-2,0
1514900119071462,-2,1,0,0,0,0,-1,-2
1514900119091486,0,-1,-1,-3,0,-1,-1,1
1514900119091486,-2,-2,-2,0,-1,-3,-1,0
1514900119092977,1,-3,-2,-1,-1,-2,0,0
1514900119092977,-1,-2,-1,-3,-2,-2,1,0
1514900119106488,0,0,-2,-1,-1,-1,0,-3
1514900119106488,0,-2,-1,0,0,0,0,0
1514900119112494,0,0,-2,-2,-1,-3,-2,-2
1514900119112494,-1,1,3,0,-1,-3,-1,1
1514900119129003,0,1,-4,-1,1,-1,-1,0
1514900119129003,-2,-4,-4,-3,-1,-1,0,-1
1514900119130504,-1,-2,3,1,0,0,1,0
1514900119130504,-1,-2,-5,-1,1,-2,1,0
1514900119151519,-2,1,-5,-1,-2,-1,-1,-1
1514900119151519,0,0,2,0,-1,-2,-3,-1
1514900119155021,-2,-3,-1,-2,-1,-3,-3,-3
1514900119155021,-1,-1,2,1,-1,0,-1,-1
1514900119165051,0,-1,-1,-1,-2,-1,0,-1
1514900119165051,0,0,-1,-1,-1,0,-1,-1
1514900119174044,-1,-3,-1,0,-1,0,0,1
1514900119174044,-2,-2,-2,-1,-1,-2,-3,-2
1514900119189045,-2,0,-1,0,-2,1,-1,-1
1514900119189045,0,-1,-1,0,-1,-1,-1,-1
1514900119190547,-1,-2,0,-1,0,-2,0,1
1514900119190547,-1,-2,-2,-1,-3,0,-2,-4
1514900119211060,0,-1,-1,0,-2,-1,-2,-2
1514900119211060,-2,-1,0,0,-1,0,1,-2
1514900119213092,-1,-2,0,-2,-1,-1,-1,0
1514900119213092,-1,0,-1,-1,-1,-1,-2,-1
1514900119225071,-2,-1,1,-1,0,-2,-2,-2
1514900119225071,-1,0,3,1,-1,-1,-2,0
1514900119234089,1,-3,-7,-1,-2,-1,1,0
1514900119234089,-1,-2,-2,-2,-2,-2,-1,1
1514900119249100,0,0,-1,-2,-1,-3,-2,-2
1514900119249100,0,-3,-2,-2,-1,-1,-1,-1
1514900119250588,-3,-2,-1,-2,-1,-1,-3,-1
1514900119250588,0,0,-1,0,0,0,-1,-1
1514900119271606,-2,0,-1,-1,-1,0,0,1
1514900119271606,-2,-3,-1,-2,-2,-2,-1,0
1514900119273104,-1,-2,0,-1,-2,-1,-1,-3
1514900119273104,0,-1,-2,0,-1,-2,0,-1
1514900119285123,-2,1,2,-2,0,-2,-1,-1
1514900119285123,-1,-2,-7,-1,-2,2,-2,0
1514900119294129,0,-1,0,-2,-1,0,0,0
1514900119294129,-2,0,0,-3,0,-2,-2,-1
1514900119308629,-1,-4,-6,-3,-2,-1,-1,-1
1514900119308629,0,-2,1,0,-1,-1,-2,-1
1514900119310130,-3,-3,-1,-1,-2,0,-2,-3
1514900119310130,0,0,1,0,-1,1,-1,1
1514900119331146,-1,0,0,-3,-1,-1,-3,-1
1514900119331146,1,1,-2,0,0,-2,-1,-3
1514900119333147,2,1,-1,0,1,1,1,2
1514900119333147,-1,-1,-2,-1,-1,-1,-2,-2
1514900119345167,-2,-1,-1,0,-3,-1,0,-2
1514900119345167,-3,-2,0,-2,-1,-2,-1,0
1514900119354162,0,-2,-1,0,-1,-1,-2,-1
1514900119354162,-2,-2,-3,-2,-1,1,0,-1
1514900119376187,1,0,-2,0,0,-2,-2,2
1514900119376187,-1,-1,-1,-2,0,-2,1,1
1514900119378188,-2,0,0,1,0,0,0,-2
1514900119378188,-2,2,-1,-2,-3,-2,-2,-1
1514900119391689,-1,-1,0,0,-3,0,-1,0
1514900119391689,-1,-2,0,-1,-1,-3,0,-2
1514900119393189,1,-1,-2,0,-1,-2,-1,-2
1514900119393189,0,-1,2,1,0,-2,-1,-1
1514900119406198,-1,1,-5,-1,-1,0,1,-3
1514900119406198,0,-3,-2,-3,-2,0,-2,-2
1514900119422211,0,-3,-1,-2,-2,-1,-1,1
1514900119422211,0,-2,-2,-1,-1,-2,-1,0
1514900119428715,0,1,1,1,0,-2,-1,-2
1514900119428715,-2,-3,-1,0,-3,-1,-1,-2
1514900119430716,-2,0,-1,-1,0,-1,-1,-1
1514900119430716,-2,1,-1,-1,-1,0,0,-3
1514900119451241,-3,-1,-1,-1,-2,-1,-1,-1
1514900119451241,1,-2,-2,0,-1,0,-2,-1
1514900119454233,-1,-2,-1,-1,-1,-1,-1,0
1514900119454233,-1,-2,-3,-1,-2,-1,-2,-1
1514900119465250,0,-3,-2,-3,-1,-1,-1,-1
1514900119465250,-1,0,2,-1,0,-1,0,-1
1514900119474258,-1,-1,2,0,0,-1,0,1
1514900119474258,-1,-6,-7,-2,-1,-2,-2,-2
1514900119489264,-1,2,-3,0,-2,-1,1,-1
1514900119489264,-1,-3,-1,-4,-1,-2,-2,-3
1514900119490762,-3,-2,0,-1,0,-1,-1,-1
1514900119490762,0,2,4,-1,1,1,-1,3
1514900119511274,-1,0,1,-2,0,-1,0,0
1514900119511274,0,0,-1,-1,-1,-2,0,0
1514900119513275,0,-2,-4,-2,-1,0,-2,-2
1514900119513275,-1,-1,-2,-2,-1,-1,-2,-2
1514900119525783,-1,-1,-1,-1,0,-1,-1,-3
1514900119525783,-2,-1,0,0,-1,0,-2,0
1514900119534807,-1,-2,-1,-1,-1,-3,-1,-2
1514900119534807,1,0,-3,0,-1,-1,1,-2
1514900119548812,0,0,0,-3,0,-2,0,-2
1514900119548812,0,0,-3,0,-2,-3,0,0
1514900119550310,-2,-4,-1,0,-2,-3,-1,-1
1514900119550310,1,1,0,-1,-2,-1,-3,-3
1514900119571327,-1,-3,1,-1,1,0,1,-3
1514900119571327,0,-2,-2,0,0,1,-2,-2
1514900119572829,0,-2,-2,-2,0,-1,0,-1
1514900119572829,-2,-1,-2,-1,-2,-1,-2,0
1514900119593841,-2,-2,-3,0,-2,0,-3,-1
1514900119593841,-2,-1,-1,-1,0,-2,-1,0
1514900119595332,-1,-1,2,0,-1,-1,-1,3
1514900119595332,0,-3,-4,-2,0,-1,0,-2
1514900119608842,-1,-1,-1,1,-2,0,-1,-1
1514900119608842,-1,-1,-1,-2,-2,-1,-1,0
1514900119610343,0,-2,-1,-1,-2,0,-2,-1
1514900119610343,-3,-1,0,0,-1,0,0,-1
1514900119631358,-2,0,-6,-1,-2,-2,-2,-2
1514900119631358,1,-2,0,-1,0,-1,1,0
1514900119632859,-1,-3,-4,0,-1,-2,0,0
1514900119632859,-2,1,2,-1,-1,-2,0,-1
1514900119653874,-1,1,1,0,0,-1,0,-1
1514900119653874,-2,-2,1,-1,0,-2,-1,-2
1514900119655380,0,-2,-1,-2,-3,-2,-2,-1
1514900119655380,-1,-1,1,-2,-1,0,-2,-1
1514900119668899,-1,-2,0,-1,-2,-1,-3,-1
1514900119668899,-2,-2,-1,-2,-2,0,0,-1
1514900119671386,0,-2,-1,-1,-1,-2,0,-1
1514900119671386,-2,-1,-4,-1,-3,-2,0,-2
1514900119691414,-1,0,0,-3,-1,0,-2,-1
1514900119691414,-1,-1,-1,-1,-1,0,0,0
1514900119692915,-1,-2,-2,0,-1,0,-1,-2
1514900119692915,0,2,-3,-1,1,-1,-1,-1
1514900119715417,-1,-1,-2,-2,-1,-3,0,0
