timestamp,emg1,emg2,emg3,emg4,emg5,emg6,emg7,emg8
1514894720375009,-1,0,0,-1,-1,-1,0,1
1514894720375009,0,1,-1,-1,-1,0,-1,-1
1514894720389519,0,0,-2,-1,-2,0,-1,-1
1514894720389519,-2,-1,-2,0,-2,-2,0,1
1514894720398525,-1,-1,-2,-1,-1,-1,-2,-2
1514894720398525,-2,-1,-2,-1,-1,0,-1,0
1514894720400028,0,0,-2,-1,-1,-2,-1,-1
1514894720400028,0,-4,0,-3,0,0,0,-2
1514894720421042,-2,0,0,-2,0,-2,-2,-1
1514894720421042,-1,-2,-1,-2,-1,-2,-2,0
1514894720422543,-1,0,0,0,0,-1,0,-2
1514894720422543,-3,-1,-2,0,-2,0,0,0
1514894720444059,-1,-2,-2,-1,-1,0,-2,-3
1514894720444059,-1,1,-1,0,-1,-1,-1,-2
1514894720449562,-1,-1,-1,-2,-1,-2,-1,0
1514894720449562,0,0,-2,-1,0,-1,-1,-1
1514894720459570,0,0,-3,-1,-1,-2,0,-3
1514894720459570,-1,-1,-2,-2,-1,-1,1,1
1514894720461073,-1,-2,-1,-1,-2,-1,-2,1
1514894720461073,0,-4,0,-3,0,-2,-2,0
1514894720481084,0,0,-3,0,-2,-1,-3,-1
1514894720481084,-1,-1,0,0,-2,0,-1,-1
1514894720482585,-1,-3,2,1,0,0,0,-1
1514894720482585,-2,-2,-1,-2,-2,0,-2,1
1514894720502612,0,0,-1,-2,0,-1,0,1
1514894720502612,-1,-1,-2,-1,-1,-1,-1,-2
1514894720511106,-1,0,-3,-2,0,-1,-1,-1
1514894720511106,0,0,-1,0,-2,-2,-1,-2
1514894720526116,0,-1,-2,0,-1,-1,0,-2
1514894720526116,-2,-1,-1,-2,-1,-1,0,-1
1514894720527617,-1,-3,-1,-3,0,-1,-2,-1
1514894720527617,-1,-2,-2,0,-1,-1,-1,-2
1514894720541128,-2,0,1,-2,-2,-1,-2,-1
1514894720541128,-1,1,-1,-1,-1,-1,-2,-1
1514894720542628,-1,-1,-2,-2,-1,0,-2,-1
1514894720542628,-1,-1,-1,1,-1,-2,-1,-2
1514894720563642,-1,-3,0,-2,-1,-1,0,-1
1514894720563642,0,0,0,1,-1,0,-1,0
1514894720565654,-1,-2,-2,-1,-2,0,0,-2
1514894720565654,0,-2,-2,-2,-1,-3,0,-1
1514894720578154,-1,-1,-1,0,-1,-1,-1,-1
1514894720578154,-1,-1,-1,-2,-1,0,-1,0
1514894720579653,-1,1,0,-1,-1,0,0,-2
1514894720579653,-1,-2,0,-2,0,0,-1,0
1514894720600678,-1,0,-1,-1,-1,-1,1,0
1514894720600678,-1,2,-4,-3,-3,-1,-1,-3
1514894720602170,0,0,-3,-2,-1,-1,-2,-1
1514894720602170,-1,-2,0,-1,-1,-1,0,-1
1514894720623685,-2,0,0,0,-1,-2,-2,0
1514894720623685,0,-1,-2,0,-2,-1,0,0
1514894720626687,-3,-2,0,1,0,-3,1,-1
1514894720626687,-2,-1,-1,0,-1,1,-3,-1
1514894720637707,2,0,-3,-3,-1,0,-1,-1
1514894720637707,-1,-2,-1,-1,-1,0,-2,-1
1514894720644209,0,-2,-3,-2,-1,0,-1,0
1514894720644209,0,-1,0,0,-1,0,-2,-1
1514894720660721,-1,-3,0,1,0,-1,-1,0
1514894720660721,0,0,-1,-1,-2,-2,0,0
1514894720662227,-2,-1,-2,-3,-2,-1,0,-2
1514894720662227,-3,-2,-2,-2,-2,-1,-3,-1
1514894720683239,-1,0,-1,-2,-3,0,-2,-1
1514894720683239,-1,0,-1,0,-1,1,-1,-1
1514894720684734,1,-1,0,-1,-3,0,-3,1
1514894720684734,-2,-2,-1,-1,0,-2,-1,-1
1514894720697747,0,0,-4,-2,-1,-1,-3,-3
1514894720697747,-1,-1,0,0,1,-3,0,-1
1514894720704742,1,-1,-2,-1,-2,-1,1,-1
1514894720704742,0,-2,-1,0,-1,0,-2,-1
1514894720720753,-1,-2,-1,-1,-1,1,-2,-1
1514894720720753,0,-2,-2,0,-2,-3,-1,0
1514894720726759,0,-2,1,1,-1,0,-2,-1
1514894720726759,0,-2,-2,-1,-1,-3,-1,-2
1514894720743269,-2,0,-1,-2,-1,-1,-1,1
1514894720743269,0,-2,-1,-1,0,-1,-2,-1
1514894720744771,-2,0,0,-2,0,-2,-1,-2
1514894720744771,0,-2,-1,-1,-2,-1,1,-1
1514894720757780,-2,-1,-2,-1,0,-2,0,-1
1514894720757780,0,1,-2,-2,0,-1,-1,-3
1514894720764284,0,-1,-2,-2,1,-2,-2,-1
1514894720764284,-2,-1,0,0,-1,-1,-2,-2
1514894720780796,-1,-1,-2,-1,0,-3,-1,1
1514894720780796,0,0,-2,-1,-2,-2,-2,0
1514894720782297,-1,-4,-3,2,-2,-2,0,-2
1514894720782297,0,-2,0,-1,-1,-1,-1,-1
1514894720803812,-3,0,0,0,-2,-1,-1,-1
1514894720803812,-2,0,0,-3,-2,-1,-2,-1
1514894720805314,-1,0,-1,-1,0,-2,-1,0
1514894720805314,0,-2,-4,-2,0,0,0,-1
1514894720817823,0,-1,-1,-3,0,-2,-1,-2
1514894720817823,-1,0,-2,-2,-1,0,-2,-2
1514894720824828,-2,-3,-1,-1,-1,-1,-2,-1
1514894720824828,-2,-2,0,1,0,-2,-1,-1
1514894720840840,-1,2,-1,0,-1,0,-1,-2
1514894720840840,-2,-1,0,-1,-1,0,0,-2
1514894720842339,-1,-2,-2,-1,-2,-1,-1,0
1514894720842339,-1,-2,1,1,-1,-1,0,-1
1514894720870861,-1,-1,-1,-2,0,1,-1,-1
1514894720870861,-1,1,0,-1,-1,-1,1,0
1514894720872361,-2,-2,1,1,-2,1,-1,-1
1514894720872361,-1,-3,0,0,-1,-1,0,-1
1514894720877864,0,0,-1,-1,0,-2,0,-2
1514894720877864,0,-1,-2,1,0,-2,0,-2
1514894720885370,-2,0,-4,-1,0,-1,-2,-1
1514894720885370,0,-2,-2,0,-1,0,-2,0
1514894720900880,-1,-1,-1,-1,-2,0,-3,-1
1514894720900880,-2,0,-1,-2,0,-2,-1,-2
1514894720904387,0,0,-1,-2,0,-2,0,0
1514894720904387,-1,-3,-1,-1,-2,-1,-1,-1
1514894720923899,0,-3,-1,2,-1,-3,1,0
1514894720923899,-1,-1,-1,0,0,0,-1,-1
1514894720925399,-1,0,-2,-1,-1,-1,-1,-1
1514894720925399,-1,-1,-1,0,0,0,-2,0
1514894720936918,-1,-2,0,-1,-1,1,-1,-1
1514894720936918,-1,-1,-2,-2,-1,-1,0,0
1514894720945913,0,-1,0,-2,0,-2,1,-1
1514894720945913,0,-1,-2,-1,-3,-1,0,0
1514894720960924,-1,-1,-2,-1,-1,0,-2,-1
1514894720960924,0,1,-1,-1,0,-3,-2,-1
1514894720962424,0,-1,-1,-1,0,-1,-1,0
1514894720962424,-1,-4,0,-4,-1,-1,0,-2
1514894720983452,-1,-2,0,-1,-1,-1,-1,-1
1514894720983452,0,0,-2,-1,-2,1,0,0
1514894720986951,0,-1,0,-1,-1,-1,-2,-1
1514894720986951,-2,1,-1,0,1,0,-2,-2
1514894720996949,1,2,1,-1,-1,-2,-3,1
1514894720996949,-1,1,0,-2,-4,-2,0,-1
1514894721007457,-1,-1,-2,-2,-2,-1,-1,-2
1514894721007457,-1,-3,-3,-1,0,-3,-1,0
1514894721020965,-2,-3,-1,1,0,-1,0,-2
1514894721020965,-1,0,-3,-2,0,-2,-2,-2
1514894721022474,0,0,-3,-2,-2,-1,0,-2
1514894721022474,-1,-6,1,-1,0,-2,-2,0
1514894721043481,-2,-2,0,1,-1,-1,1,1
1514894721043481,-3,-1,0,0,-1,-1,0,-1
1514894721044984,-3,-1,-3,-2,-1,-2,0,0
1514894721044984,-2,-1,-2,-1,0,-2,-1,-1
1514894721056993,-2,-2,-2,-2,0,0,-2,-1
1514894721056993,0,0,0,-1,-1,-1,-1,1
1514894721066015,0,1,-3,-1,0,-1,-3,-2
1514894721066015,-2,-2,-1,-1,-1,-1,-2,0
1514894721081008,-3,-3,-1,-1,0,-3,-1,-3
1514894721081008,0,0,-1,-1,0,0,-1,-2
1514894721084020,-1,0,0,-1,-1,-2,-1,-1
1514894721084020,-1,-3,-1,-1,-2,0,-1,-1
1514894721104024,-1,-1,-1,0,-3,0,0,-1
1514894721104024,-1,0,0,-2,0,-1,-2,-1
1514894721107528,2,-1,-1,0,-1,0,-1,-1
1514894721107528,-1,-1,0,-1,-1,0,0,-3
1514894721117034,-1,-1,1,-2,-3,-2,-1,-2
1514894721117034,0,-1,-1,0,-1,-2,-1,-2
1514894721126041,1,-1,0,-1,0,-1,-2,1
1514894721126041,-3,-2,-1,-2,-2,0,-1,-1
1514894721141051,0,-2,-1,-1,0,-1,-2,-2
1514894721141051,-2,0,-3,-2,-1,-2,0,-1
1514894721142552,-2,-4,1,-1,-1,-3,0,-2
1514894721142552,0,-4,-2,0,-1,-1,-1,-1
1514894721163566,0,1,0,-3,-1,-1,-1,-2
1514894721163566,-1,1,-1,0,0,0,-2,-2
1514894721165067,-2,-1,-2,-3,-1,0,-2,0
1514894721165067,-2,-2,-2,-1,0,-2,-1,-1
1514894721177079,-1,-3,-1,-1,1,-2,1,1
1514894721177079,0,1,0,-1,-3,-3,0,-3
1514894721186083,0,-1,-1,-2,-2,-2,-1,-1
1514894721186083,-1,-1,-2,0,-1,0,0,-1
1514894721201094,-2,0,-2,-3,-2,-2,-1,-1
1514894721201094,0,1,0,-1,-2,-3,-1,-1
1514894721203094,-1,-3,-3,-2,-1,-1,-2,1
1514894721203094,-1,-2,-2,0,-1,-2,0,-1
1514894721231615,-2,-1,-3,-1,1,-1,-1,0
1514894721231615,-2,1,-3,-1,-2,-1,0,-1
1514894721234117,-1,0,0,-2,-1,-2,0,-2
1514894721234117,0,-3,0,-1,-1,-1,-2,-2
1514894721237118,-2,-2,1,-1,0,0,-1,0
1514894721237118,1,-1,-3,-1,1,-1,-1,-1
1514894721246126,-1,-3,-3,-1,-1,-2,-1,-2
1514894721246126,-1,-3,-1,-2,0,-2,0,-1
1514894721260635,-1,0,-1,0,-1,2,-3,0
1514894721260635,-2,0,-2,-1,-3,0,0,-1
1514894721262636,-2,-2,2,1,0,0,0,-2
1514894721262636,-1,-2,0,0,-3,1,-1,0
1514894721283152,-1,0,-2,-1,-2,-3,-2,0
1514894721283152,-1,0,-1,-3,1,0,-2,-1
1514894721285153,-1,-3,-2,-1,-1,-1,-2,-1
1514894721285153,-1,-2,0,-2,-1,-1,-1,0
1514894721306167,-2,0,-1,-2,-2,-1,0,-1
1514894721306167,-2,0,-1,-1,-2,1,-1,-1
1514894721307669,-1,0,-1,-2,-1,-1,1,-1
1514894721307669,-2,-3,-1,-2,0,-1,-2,-2
1514894721320678,0,-2,-3,-2,0,0,-1,1
1514894721320678,0,1,-1,0,-1,-2,-3,-2
1514894721322178,-1,-2,-2,-1,0,-1,-1,-1
1514894721322178,-1,-2,-1,-3,-2,-2,-3,-1
1514894721343194,-2,1,-1,-2,0,-2,0,-1
1514894721343194,-1,-1,0,-1,0,-1,0,0
1514894721344695,-1,-1,-1,-2,-1,-2,-1,0
1514894721344695,-2,-4,-1,-1,-3,0,0,0
1514894721356703,-1,-1,-2,-1,1,-2,0,-2
1514894721356703,1,2,-1,-2,-2,-1,-2,-1
1514894721365716,-2,-1,-2,0,-2,0,0,-2
1514894721365716,-2,-3,-1,0,1,0,0,-4
1514894721380720,-1,-1,0,-1,-2,-2,-1,-1
1514894721380720,-1,-1,0,-1,-1,-2,0,0
1514894721382220,0,-3,-2,-1,-1,-1,-2,1
1514894721382220,1,-1,-3,-1,-1,-2,-3,-1
1514894721403236,0,1,0,0,-1,-1,-1,0
1514894721403236,0,-1,-1,0,0,-1,0,-1
1514894721405750,-2,-1,0,0,-2,-2,-2,0
1514894721405750,-2,-3,0,-2,-2,0,0,-2
1514894721426752,-1,-2,-2,-2,0,0,0,-3
1514894721426752,-3,1,-3,-2,-2,-1,-1,-1
1514894721432265,-1,-1,-2,-2,-2,0,-2,-2
1514894721432265,-1,-3,-2,0,-1,-1,-1,-2
1514894721440773,1,-1,0,0,-1,-1,-1,0
1514894721440773,0,-1,-1,-2,-2,-1,0,0
1514894721442273,-1,-2,-1,-1,0,-2,-2,-2
1514894721442273,0,-4,-1,-1,-1,-3,-1,-2
1514894721463278,-2,1,-1,1,0,-2,-1,0
1514894721463278,0,0,-2,0,-1,-1,0,-1
1514894721464780,-1,-1,-1,-3,-1,-2,1,0
1514894721464780,-2,-1,-1,-2,-1,-3,-1,1
1514894721493301,-1,-1,-1,0,-1,-2,-1,-1
1514894721493301,0,1,-1,0,1,-1,-1,0
1514894721494802,-2,-1,-2,0,-2,-2,-1,-1
1514894721494802,-2,-2,-2,0,-1,-1,1,0
1514894721500808,0,0,-1,-3,-1,0,0,0
1514894721500808,-2,-1,-3,-1,-2,-2,-1,-1
1514894721502307,-1,-3,0,1,-1,-2,-2,-2
1514894721502307,0,-3,0,0,-1,-1,-2,-1
1514894721523321,-1,-2,-1,0,-1,-2,-2,0
1514894721523321,-2,1,-2,-1,-1,-2,-1,-1
1514894721525324,-1,-2,-2,-2,-1,0,0,0
1514894721525324,-1,-3,-1,-1,-1,0,-1,1
1514894721552341,-2,0,-1,-2,0,0,-2,-1
1514894721552341,0,-1,-1,-1,-3,-1,0,-1
1514894721562350,-1,-3,-1,-2,-2,0,-1,-2
1514894721562350,0,-3,-1,-1,-1,-1,0,-3
1514894721563350,-1,-2,-1,0,-1,0,-1,0
1514894721563350,-1,0,0,-3,1,-1,-1,0
1514894721566853,0,0,0,0,-3,-1,0,0
1514894721566853,-2,-1,-1,-2,-1,-1,-2,0
1514894721583365,-1,-1,-1,-1,-2,-2,-1,-3
1514894721583365,-1,0,-1,-1,-2,-2,-1,-1
1514894721584865,0,-1,0,-2,0,0,-2,-2
1514894721584865,-2,-2,-1,-1,-2,-2,-2,-2
1514894721605880,-1,0,-1,-1,-1,-1,-1,0
1514894721605880,-2,1,-1,-1,-2,-2,-3,-2
1514894721607380,-1,-3,-4,-1,0,-1,-2,-1
1514894721607380,-2,-4,0,-1,0,0,-2,-1
1514894721620390,0,-1,-1,-3,-1,-1,-4,-2
1514894721620390,-1,1,0,0,-3,0,0,-1
1514894721626899,-2,-1,-2,-2,-1,-2,0,-1
1514894721626899,-2,-4,-1,-1,0,0,-2,0
1514894721643408,-2,-1,-2,-2,-2,-1,-1,-1
1514894721643408,-1,2,0,-1,0,-1,-1,-1
1514894721644908,2,1,0,0,0,-1,-1,-2
1514894721644908,1,-4,-1,0,-1,-1,0,-1
1514894721665921,-1,-1,0,-2,-1,0,-1,-2
1514894721665921,0,1,-2,-2,-1,-2,-3,0
1514894721667422,-2,-3,-1,-2,-3,-1,-2,1
1514894721667422,0,-3,-1,0,-2,-2,-1,0
1514894721679932,0,0,-3,-1,-1,-1,1,0
1514894721679932,-4,0,-1,-2,-1,-1,0,0
1514894721686937,-1,-2,0,-1,1,0,-1,-2
1514894721686937,-1,-1,1,0,-1,1,-1,-2
1514894721703449,0,0,-1,2,-1,-1,1,0
1514894721703449,1,-1,-1,-1,0,-1,0,1
1514894721704949,-1,-4,-2,-2,-1,-2,-1,-2
1514894721704949,-1,-3,-1,-1,0,-1,-1,-2
1514894721725964,-1,1,-2,-1,0,-2,-1,-2
1514894721725964,1,1,-1,-2,-2,-1,2,-2
1514894721727466,-2,-1,-2,-1,-1,0,-1,-1
1514894721727466,-3,-2,-3,-2,-3,-1,-1,-1
1514894721739974,0,0,0,0,-2,1,0,-1
1514894721739974,-1,1,-1,-3,-2,0,-1,-1
1514894721746979,-1,-3,-1,-2,-2,-1,-1,-2
1514894721746979,0,-2,0,-1,0,-1,-2,-2
1514894721770996,-1,-2,0,-1,-2,0,-1,0
1514894721770996,0,1,-1,0,0,-2,-2,0
1514894721772497,-1,-2,-2,-1,0,-3,0,-2
1514894721772497,-1,-2,0,-1,-2,-1,0,1
1514894721786006,-1,0,-1,0,-1,-1,-1,-1
1514894721786006,-1,0,-1,0,-2,0,-1,-3
1514894721787508,-2,-3,-2,-1,-1,1,-2,1
1514894721787508,0,-2,-2,-2,-1,0,-2,-2
1514894721800016,-1,-1,0,-1,-1,0,0,-2
1514894721800016,-1,1,-2,-1,0,-1,-1,-1
1514894721807021,-3,0,-2,0,0,-1,-1,-1
1514894721807021,-1,-4,0,-1,-2,-2,-1,-1
1514894721824033,-3,0,-2,0,-2,-1,-2,-1
1514894721824033,0,-1,-2,-1,-1,-1,0,-1
1514894721827537,1,-2,-1,-1,-2,-1,0,0
1514894721827537,-1,-3,-1,-1,0,0,0,1
1514894721846050,-2,0,-3,-2,-1,-2,0,-1
1514894721846050,-1,-1,-1,-1,-1,-2,-1,1
1514894721847552,0,-2,-1,-1,-1,-1,-2,-2
1514894721847552,-2,-2,0,-1,-1,-3,-3,0
1514894721860561,-1,-1,1,-1,0,-1,-2,-1
1514894721860561,-1,2,-2,-2,-2,-2,-1,0
1514894721867065,0,-2,0,1,-2,0,-1,0
1514894721867065,-1,-3,-3,0,-1,-2,0,-1
1514894721884077,0,1,-1,-1,0,0,-2,-1
1514894721884077,1,0,-1,-1,-1,-1,-2,-1
1514894721887079,-2,-2,-1,-3,-2,-1,-1,-1
1514894721887079,1,-1,-1,1,0,0,-1,-2
1514894721905092,0,0,-2,-1,-2,-2,2,-2
1514894721905092,-2,-1,-2,0,0,-2,0,-2
1514894721913596,-2,-2,-1,-2,1,-2,-1,0
1514894721913596,0,-3,0,-1,-1,1,-1,-1
1514894721920101,-1,-1,-1,0,-1,-2,-2,-1
1514894721920101,-2,2,-1,-2,-2,0,-2,-1
1514894721928609,-1,-3,0,-2,-2,-2,-1,-1
1514894721928609,-1,-3,-1,-2,0,0,-2,-1
1514894721952125,-1,1,-1,-2,-1,0,-1,-1
1514894721952125,-1,1,-1,-1,-1,0,-1,-1
1514894721955627,0,-1,-1,-2,-3,-1,-1,0
1514894721955627,-3,-2,0,-1,-1,-3,1,-1
1514894721965634,-1,-1,-1,-1,-2,-1,-1,0
1514894721965634,-2,1,-2,-1,-1,-1,-1,-3
1514894721967637,-2,-2,-3,-1,-2,-1,-1,-2
1514894721967637,-2,-2,-3,0,-2,0,-3,-2
1514894721979643,-1,0,-1,0,-1,-1,-1,1
1514894721979643,-1,0,-1,-2,-3,-2,0,0
1514894721988649,0,-3,-1,0,1,-1,2,-2
1514894721988649,-1,-3,-3,-3,-2,-1,0,-1
1514894722004160,-1,2,-1,-2,0,-1,0,0
1514894722004160,1,-1,-1,-2,0,0,-2,-1
1514894722007663,-2,0,0,0,1,0,-1,-2
1514894722007663,-1,-3,-1,-1,-2,0,-1,0
1514894722034196,-2,-2,-2,-1,-1,-2,0,-2
1514894722034196,-1,1,-1,-3,-1,-2,-1,-2
1514894722036183,-1,-1,0,0,-1,0,-3,0
1514894722036183,-1,-2,-1,0,-1,-1,-1,-1
1514894722039184,0,0,0,-3,0,0,-2,-2
1514894722039184,0,-2,-2,1,-1,-1,0,-2
1514894722048192,-1,-2,0,-2,-2,0,-2,-3
1514894722048192,-2,-3,1,-2,-3,0,-2,-1
1514894722063203,-1,-1,0,-1,-1,-3,1,-1
1514894722063203,-1,-1,0,-1,-1,-2,-1,1
1514894722064704,-1,0,-2,0,-2,0,0,1
1514894722064704,-2,-2,-1,1,0,-2,1,-1
1514894722085727,-1,0,-1,-3,-1,0,-1,-1
1514894722085727,-2,1,-2,0,0,0,-1,0
1514894722087229,-1,-4,-1,1,-3,-2,0,-1
1514894722087229,0,1,-1,-1,0,1,0,-1
1514894722099729,-1,1,-3,-1,-2,-2,-2,-2
1514894722099729,-2,-1,-1,-1,0,-1,0,0
1514894722108734,-1,-3,-1,-2,-1,-2,-1,-1
1514894722108734,-2,0,-1,0,-2,-1,-1,-1
1514894722123254,0,-1,0,-1,-1,-2,0,0
1514894722123254,0,2,-1,-2,-2,-1,-3,-1
1514894722125246,-2,-1,-2,-1,0,-2,-2,-1
1514894722125246,-1,-3,-1,-1,0,-1,-2,-3
1514894722153265,-2,-1,-1,1,0,0,-1,-2
1514894722153265,-1,1,-2,-1,-1,-2,-1,-2
1514894722155267,-1,-2,-2,-1,-1,2,-1,-1
1514894722155267,-2,-3,-2,-2,-1,-1,-1,0
1514894722167777,-1,-1,-1,-2,-2,0,-2,-1
1514894722167777,-3,-1,-3,-1,-2,0,-1,-2
1514894722169278,1,-2,-1,0,-1,0,-1,-1
1514894722169278,-1,-2,-2,0,-2,-1,-1,-1
1514894722190804,1,-1,-1,-1,-2,1,-1,-2
1514894722190804,0,-1,-1,0,-1,0,0,-2
1514894722191793,0,-3,-1,0,0,0,0,-2
1514894722191793,-2,-2,0,0,1,1,-1,-2
1514894722204803,-2,1,-1,0,0,-2,-1,0
1514894722204803,-2,0,0,0,-2,1,-1,-1
1514894722205803,-3,-3,-2,-1,0,0,-1,-2
1514894722205803,0,-2,-1,-1,-2,-2,0,0
1514894722228319,-1,1,-2,-1,-1,-1,-2,0
1514894722228319,-1,-1,-2,-2,-1,-2,-3,-1
1514894722230334,-2,-3,0,-2,1,-2,-1,-1
1514894722230334,0,-2,1,-2,-1,-1,-1,0
1514894722242330,-1,2,0,-1,-1,-2,-2,-2
1514894722242330,0,1,-1,-2,-1,-2,-1,2
1514894722243330,0,-2,-2,-1,-1,-1,0,-2
1514894722243330,-2,-1,-1,-1,0,-1,0,-2
1514894722264845,-1,-1,-1,-2,-1,-3,0,-1
1514894722264845,-1,-1,-2,-2,-1,1,0,-1
1514894722265846,-1,-1,-2,0,-1,-1,-1,0
1514894722265846,-1,-2,-1,1,-1,-2,-1,-3
1514894722287860,0,-1,-1,0,-2,0,0,-1
1514894722287860,-1,-3,0,0,0,-4,-1,-2
1514894722288361,-1,-1,-1,-1,0,-2,-1,-1
1514894722288361,-1,-2,0,0,-2,2,-2,1
1514894722302371,0,2,-1,0,-2,1,-2,0
1514894722302371,-2,0,-2,-2,1,-2,0,0
1514894722303375,0,0,-2,0,-2,-1,-1,0
1514894722303375,-1,-2,-1,0,-1,-3,-1,-1
1514894722325387,-3,0,-1,-3,-2,-3,0,-1
1514894722325387,0,0,-2,-3,-2,1,-1,1
1514894722325887,-2,-3,-1,-3,0,0,-2,0
1514894722325887,1,-2,-2,-1,-1,-2,-1,-1
1514894722347412,0,0,-1,-1,-2,0,0,-1
1514894722347412,0,0,1,-1,-2,-2,0,-3
1514894722348403,0,-2,-2,0,-1,-1,-1,1
1514894722348403,-1,-1,-1,-1,-2,0,-1,-1
1514894722362413,-1,-2,-1,-1,-1,-1,0,0
1514894722362413,-2,2,0,-1,1,0,0,-1
1514894722363414,-1,-1,2,-1,-1,-1,-1,-1
1514894722363414,-2,-1,0,-1,1,-1,-2,0
1514894722384930,-1,0,-3,0,0,-2,-1,-2
1514894722384930,-1,-1,-2,-3,-2,-1,-1,-2
1514894722385931,-1,-3,0,-2,-1,1,0,-2
1514894722385931,0,-2,-2,-1,0,-1,-1,-1
1514894722407460,-2,-1,-1,-1,0,0,0,-2
1514894722407460,1,-1,-2,0,0,-3,0,-1
1514894722408447,0,-3,0,-1,-2,0,-1,-1
1514894722408447,-1,-2,0,-1,0,0,-1,-3
1514894722422468,0,1,-1,-1,0,-2,-1,0
1514894722422468,-1,2,-1,0,-2,-2,-2,-1
1514894722423456,-1,-2,-1,-1,-2,-1,0,1
1514894722423456,-1,-2,-1,1,0,0,1,-1
1514894722444972,0,-1,-1,-1,-2,1,-2,-1
1514894722444972,-1,-1,-2,-2,-1,-2,0,-1
1514894722445973,0,-2,-1,-2,0,-1,-2,-1
1514894722445973,-1,-1,-1,-2,-3,-2,0,-2
1514894722470515,-1,0,-1,-1,-2,-1,-2,-1
1514894722470515,-2,-2,-2,-1,-1,-1,-1,0
1514894722471506,0,-1,0,1,-1,-1,-2,-2
1514894722471506,-1,2,-1,-1,0,-1,0,0
1514894722482510,-1,1,-1,0,-1,-1,-1,0
1514894722482510,-1,-2,0,0,-2,-1,-2,-1
1514894722483509,-1,-2,0,-1,0,-2,-2,-2
1514894722483509,-1,-2,-1,-1,-3,1,-1,-1
1514894722505015,1,-1,-2,0,-2,-2,-1,-3
1514894722505015,0,0,-2,-2,-2,-1,-1,-3
1514894722506016,-1,-1,0,-2,-2,0,0,-1
1514894722506016,-3,-1,-1,0,-1,-2,-2,-1
1514894722527530,0,1,0,-2,-1,0,-1,-1
1514894722527530,-1,0,-1,-1,-2,-1,-1,-1
1514894722528530,-1,-2,-1,-2,-1,-1,-1,-2
1514894722528530,-1,-2,-2,-1,-1,-2,-1,-2
1514894722542547,0,-2,-1,-2,-1,-3,0,0
1514894722542547,1,-2,-4,-2,0,-1,0,-1
1514894722543542,-2,-4,-1,-2,-2,0,-1,0
1514894722543542,-1,-1,-2,-1,-1,1,-1,-1
1514894722565068,-1,1,-1,-1,0,-1,-1,-1
1514894722565068,-1,1,0,0,-2,-1,-2,-1
1514894722566069,-1,-1,0,0,0,-1,-1,-1
1514894722566069,-2,-2,1,-1,0,-2,-3,-3
1514894722587573,-2,0,-1,-3,-1,-1,0,-1
1514894722587573,-1,-2,0,-1,-1,-1,0,-2
1514894722588574,-2,0,-3,2,-1,0,-1,-1
1514894722588574,-1,0,-1,-2,-1,-2,-1,-1
1514894722604085,-1,-1,-2,1,-1,0,-2,-1
1514894722604085,-2,-1,0,-2,0,-2,-2,0
1514894722606089,-1,-3,-1,-2,-2,-1,-1,-1
1514894722606089,0,-1,0,-1,-1,0,0,-1
1514894722625101,0,2,-3,-2,-1,0,0,-2
1514894722625101,-1,1,-1,0,-1,-2,0,-1
1514894722626100,-1,-1,-2,-1,-1,-2,-1,-1
1514894722626100,-1,-1,-2,-1,-1,0,0,1
1514894722647616,1,-1,0,-1,-2,0,-1,0
1514894722647616,-1,-1,-1,-1,-1,0,-1,-1
1514894722648615,0,-3,-2,-1,-1,-2,-1,-1
1514894722648615,-1,1,-1,-2,-1,-1,-1,-2
1514894722662627,-2,-3,-3,-3,-1,0,-2,-2
1514894722662627,2,-1,-1,-1,-1,-1,-1,-2
1514894722663128,-2,-2,-2,-3,-1,-1,-2,0
1514894722663128,-2,0,-1,0,-2,0,-1,0
1514894722685142,-2,0,-1,0,1,-3,0,-1
1514894722685142,-2,0,-1,-1,-3,-1,0,-2
1514894722686643,-1,-1,-2,-2,0,0,-2,-1
1514894722686643,1,-1,0,0,-1,-1,-3,0
1514894722707659,0,1,-2,-1,-2,0,-2,-1
1514894722707659,0,-1,0,-3,-1,0,-2,-2
1514894722708715,-1,-1,-1,1,0,-3,-2,-2
1514894722708715,-1,-1,-2,-1,-2,0,0,-1
1514894722722724,-2,0,0,0,-1,-3,1,0
1514894722722724,-2,-1,-2,-2,0,-1,-1,-3
1514894722723225,0,-3,-3,-1,-1,0,0,-1
1514894722723225,-2,0,0,-1,-2,0,0,-1
1514894722745740,-2,1,-1,-1,-1,-2,-2,-2
1514894722745740,-2,-1,-2,1,-3,0,-1,-1
1514894722746244,-2,-1,1,-1,-1,-1,-1,-2
1514894722746244,0,-2,-1,-1,-1,-1,-2,-1
1514894722768257,-3,-1,0,-1,-1,0,-1,-2
1514894722768257,0,-2,-2,-1,0,-1,-3,0
1514894722769257,-1,-2,0,-2,1,0,0,-1
1514894722769257,-1,0,-1,-2,-1,-1,0,-1
1514894722782767,0,0,-1,-2,-1,-1,-1,-2
1514894722782767,-1,-2,-1,-3,-2,-1,0,-2
1514894722783268,-1,-3,1,-2,-2,-1,-1,-2
1514894722783268,0,-1,0,-2,0,-1,-1,0
1514894722805292,-2,1,-1,-2,0,1,-1,-1
1514894722805292,0,-2,0,0,-3,1,2,1
1514894722805791,-1,-1,-2,-1,-3,0,-2,-1
1514894722805791,-3,1,-1,0,-1,-2,0,-3
1514894722827298,-2,-1,-1,-1,-2,0,-2,0
1514894722827298,-1,-2,-1,-2,1,-2,-1,-1
1514894722829328,0,-3,-2,-1,-1,0,-1,0
1514894722829328,0,-1,-3,-1,-2,1,-1,0
1514894722842309,-1,1,-1,-1,-1,-1,-1,2
1514894722842309,-2,-1,-1,-2,1,-1,-3,0
1514894722843310,0,-2,-2,1,0,-2,0,-1
1514894722843310,-3,-1,-1,-2,0,-3,0,-1
1514894722864825,0,-2,-1,-1,-1,-1,0,-2
1514894722864825,-2,-1,0,-1,-2,0,0,-1
1514894722865826,-2,-1,0,-1,-1,-1,0,0
1514894722865826,-2,1,-1,0,-2,-1,-1,0
1514894722887341,0,-2,-1,-2,-3,-1,0,-3
1514894722887341,-2,-3,-1,0,1,-2,-1,-1
1514894722888342,-3,-3,0,0,-2,-1,0,-1
1514894722888342,-3,-1,0,-1,0,0,-2,-3
1514894722903352,-2,3,-1,0,-2,-2,-1,2
1514894722903352,1,0,-3,-1,-2,-2,-1,-2
1514894722903853,-2,-1,-1,-2,-1,0,-1,-1
1514894722903853,0,-2,0,-1,0,-1,-1,-1
1514894722925868,0,-2,-1,-2,0,-1,-1,-2
1514894722925868,-1,-1,-1,-1,-1,-1,0,0
1514894722927870,-1,-3,-2,-1,-1,-3,-1,-1
1514894722927870,-1,1,-2,-1,-2,-2,-2,-2
1514894722947398,-2,-1,-1,0,0,-1,-2,-1
1514894722947398,-2,0,-1,0,1,-1,0,-1
1514894722948384,-1,-1,-2,-1,-2,-1,-2,-2
1514894722948384,0,-1,-1,1,-2,-1,-1,0
1514894722961903,-1,-1,-2,-2,-1,-1,-1,0
1514894722961903,-1,-2,0,-3,-2,-1,-1,1
1514894722969901,-1,-2,0,0,0,-3,-1,0
1514894722969901,-4,-2,-1,0,-1,-1,-2,0
1514894722985411,-2,0,-1,1,0,-2,-2,-1
1514894722985411,0,-1,-1,-2,-1,-1,0,-2
1514894722985911,-1,-1,-1,-3,-1,0,1,-1
1514894722985911,-1,-1,-1,-1,-1,-2,-2,-1
1514894723007430,-2,1,-2,-1,0,1,0,0
1514894723007430,-1,-3,-1,-1,-3,-1,-1,-3
1514894723008428,-1,-2,-2,-2,-2,-1,0,0
1514894723008428,-1,0,-1,-1,-1,-2,1,-1
1514894723021937,-2,0,-1,0,-1,1,-1,-2
1514894723021937,-1,0,0,-1,0,-1,-1,-2
1514894723031444,0,-3,0,0,-3,0,-1,-1
1514894723031444,0,-1,-1,1,-2,-1,0,-4
1514894723044962,1,-1,1,-1,-1,-2,-1,0
1514894723044962,1,0,-1,0,0,-1,-2,0
1514894723045963,-1,-2,-1,0,0,-1,0,2
1514894723045963,-1,1,0,-2,0,0,-2,0
1514894723075974,0,0,-2,-3,-1,0,0,-2
1514894723075974,-3,-2,0,-1,0,0,-1,1
1514894723076475,-2,-3,-1,-1,-1,-2,-2,-1
1514894723076475,0,-1,-2,-2,-1,-1,0,1
1514894723081988,-1,0,-1,2,-1,-1,-1,0
1514894723081988,0,-1,-1,0,-2,0,-1,-2
1514894723089984,-2,-2,-2,-2,-1,-1,-2,0
1514894723089984,-2,0,-2,-1,-2,-1,0,-1
1514894723105008,1,1,0,-1,-1,-1,-2,-2
1514894723105008,-1,-1,-2,-3,-2,-1,-1,-1
1514894723106007,-2,-3,0,-1,-1,-2,-1,1
1514894723106007,-1,0,-1,-1,-1,-1,0,-1
1514894723127511,-2,1,-1,-1,-1,0,-1,-1
1514894723127511,-1,-2,0,0,-2,0,0,0
1514894723128512,-2,-2,-1,-1,-1,-1,-2,-2
1514894723128512,0,-2,0,-1,-1,1,-2,-2
1514894723142023,0,1,-2,-2,0,-2,-1,-1
1514894723142023,-1,-3,-1,1,1,-1,0,0
1514894723150027,-1,-1,-1,0,-2,-1,1,-1
1514894723150027,0,-1,-2,-1,0,-1,0,1
1514894723165049,-1,0,0,-2,0,-2,0,-2
1514894723165049,0,-1,-1,-3,0,-1,-2,0
1514894723173044,-2,-2,0,0,-1,0,0,0
1514894723173044,-2,1,-1,-2,0,-2,0,0
1514894723187563,0,0,-1,-2,-2,0,0,-1
1514894723187563,-2,-2,-1,-1,0,-2,-1,-1
1514894723188054,-2,-4,-2,-1,-1,1,-2,-2
1514894723188054,-1,-1,-2,-1,0,-3,-1,-1
1514894723202064,0,0,-2,-1,-1,0,-2,0
1514894723202064,-1,-2,-1,-1,-2,-1,-2,-3
1514894723210069,0,-2,-1,-1,-1,0,-3,-2
1514894723210069,-2,0,-1,0,-2,-1,-2,-1
1514894723226581,0,0,0,-1,0,-2,0,-1
1514894723226581,0,-2,0,-3,0,-1,0,0
1514894723228092,0,0,-2,-1,0,-2,-1,-2
1514894723228092,0,0,0,-1,-1,-1,-1,-1
1514894723248097,-2,1,0,0,-1,-2,0,-1
1514894723248097,-1,-3,-1,-2,-1,-1,-2,0
1514894723249097,-2,-3,-2,-3,-1,-2,-2,-1
1514894723249097,-1,-2,0,-2,-1,0,1,0
1514894723270613,-1,1,-2,-1,-3,0,-1,-1
1514894723270613,0,-2,-2,0,-4,-2,1,-1
1514894723271612,-2,-2,0,1,-1,-1,1,0
1514894723271612,0,0,-1,-2,-1,-2,-2,-2
1514894723285122,-1,0,-1,-2,-2,-2,-1,-1
1514894723285122,0,0,0,0,-2,-1,-2,-2
1514894723286122,-1,-2,-1,-1,-1,0,-2,0
1514894723286122,-2,1,0,0,-2,-1,-1,0
1514894723308139,-1,2,-1,-1,0,-1,-2,-1
1514894723308139,-2,-1,0,0,0,-2,-1,0
1514894723309140,-1,-4,-1,-3,-1,0,-1,-1
1514894723309140,-2,-1,-2,-1,-1,-1,-1,-2
1514894723330667,0,-1,-1,-1,-1,0,-2,-1
1514894723330667,-2,-4,-2,0,-1,-1,-1,-1
1514894723331656,-2,-2,-1,1,0,-2,0,-1
1514894723331656,-2,2,0,-1,-1,-1,1,0
1514894723353173,-1,1,-2,-1,-2,-1,1,1
1514894723353173,-3,-3,-1,-2,-1,-1,-1,0
1514894723354174,-2,-1,1,0,0,-2,-1,0
1514894723354174,0,0,-1,-2,0,-1,-2,-3
1514894723368682,-1,-1,-1,-1,-1,-2,-2,-1
1514894723368682,1,-3,-1,-2,-1,-2,0,-1
1514894723369683,1,-3,-2,-1,-2,-2,-1,-1
1514894723369683,0,0,-1,-3,-2,0,-2,-1
1514894723390698,-2,1,0,-2,0,-2,0,-1
1514894723390698,-1,-1,-2,0,-2,0,-1,-2
1514894723391699,-1,-2,0,0,1,0,-1,-1
1514894723391699,-1,0,-2,-1,0,-2,-1,-1
1514894723404708,1,-1,-3,-2,-1,-2,-3,-2
1514894723404708,0,-1,-2,-1,-1,-1,0,-2
1514894723412724,-1,-3,-1,0,-2,-2,-2,-2
1514894723412724,-1,0,-1,0,0,-1,-1,-2
1514894723435729,0,1,-1,0,-2,0,0,-1
1514894723435729,-2,-2,-1,-1,0,0,-1,1
1514894723436728,1,-3,0,-1,-2,0,-1,-1
1514894723436728,-2,1,-1,-1,-3,0,0,-1
1514894723450740,-2,1,-2,-1,-1,0,0,-2
1514894723450740,0,-3,0,-1,0,-1,-1,0
1514894723451739,-2,-3,-1,-1,-1,-1,-4,-1
1514894723451739,-2,0,-1,-1,0,0,-1,-1
1514894723465249,0,2,-2,-2,-2,-1,-2,-3
1514894723465249,-1,-1,-1,1,0,1,-3,-2
1514894723465762,-3,-2,-1,0,1,-3,-2,0
1514894723465762,0,-1,-2,-1,0,-1,-2,-1
1514894723488776,-1,-1,1,0,0,-2,0,-1
1514894723488776,-2,-3,-2,-2,-1,-1,0,-1
1514894723489776,-1,-4,-1,-1,-2,0,1,0
1514894723489776,-2,0,-1,0,-3,-2,-1,-1
1514894723511284,-1,0,-1,0,-1,0,0,0
1514894723511284,0,-1,-1,-1,-2,0,-1,0
1514894723512783,-2,-1,0,-2,-1,0,0,-3
1514894723512783,0,0,-1,0,-1,-1,-1,-2
1514894723525291,-2,0,-2,-1,-2,-2,-1,-1
1514894723525291,2,-1,-1,-2,0,-1,0,-2
1514894723525793,-1,-3,-4,-2,-2,1,-1,-1
1514894723525793,-1,0,-3,0,-3,-1,-1,-2
1514894723548308,0,1,-1,-1,-2,-2,1,0
1514894723548308,-2,-1,-1,-2,-1,-1,-2,-1
1514894723548808,0,-1,-1,-1,0,-1,-1,-2
1514894723548808,-2,-2,-2,-1,0,-1,-1,0
1514894723570827,-2,-1,-1,-1,-1,-1,-1,-2
1514894723570827,-2,-1,-1,-1,-1,0,-1,0
1514894723571840,-1,-4,1,0,-2,-1,-1,0
1514894723571840,-2,-1,1,-1,-2,-2,-2,0
1514894723584834,1,1,-1,-2,0,-1,-1,-1
1514894723584834,-1,-2,0,-2,-2,0,-1,0
1514894723585844,-2,-2,-1,0,-1,-1,1,-1
1514894723585844,-1,0,-2,-1,-2,-1,0,-1
1514894723608351,0,-1,1,-1,0,-2,-1,-1
1514894723608351,-1,-2,-2,-1,1,-2,-1,-1
1514894723608854,-2,-2,-1,-1,-1,-1,-2,-1
1514894723608854,0,1,-2,0,-1,-1,-1,0
1514894723631366,-1,1,-4,-1,0,-2,-1,0
1514894723631366,-3,-4,-2,-2,0,-1,1,-1
1514894723631876,-1,-3,-2,-2,-2,0,-1,-2
1514894723631876,0,-1,1,-3,-1,0,-2,-1
1514894723644886,0,1,0,-2,-1,0,0,-1
1514894723644886,-1,-1,-2,0,-2,-2,-2,-1
1514894723645878,-2,0,-2,0,-1,-1,0,0
1514894723645878,-1,0,-1,-1,0,-1,-1,-1
1514894723668394,-1,0,-1,-1,-1,0,-2,-3
1514894723668394,-1,-2,0,-1,-2,-1,0,-1
1514894723668893,0,-4,-2,-2,-1,-1,-2,0
1514894723668893,-1,3,-2,-1,-1,-1,-1,-2
1514894723690909,0,0,-1,-1,-1,0,-1,-1
1514894723690909,-1,-3,-3,-1,0,0,-1,-3
1514894723691411,-2,-3,0,-2,0,0,0,-2
1514894723691411,-1,-1,0,0,-1,-1,-2,0
1514894723705419,-1,-1,-3,-3,-2,0,0,-2
1514894723705419,-1,-3,-2,-1,-2,-2,-1,0
1514894723712439,0,-5,0,0,-1,0,-2,-1
1514894723712439,-2,-1,-1,-1,-2,-1,2,0
1514894723728936,1,0,-1,-2,-1,-1,-1,0
1514894723728936,-1,-1,0,-2,-2,-2,-4,-2
1514894723729437,-1,-2,-1,0,-3,0,-1,0
1514894723729437,0,0,-2,0,-2,-1,-1,-1
1514894723750452,-1,0,-1,-1,-1,-2,0,1
1514894723750452,0,-3,-3,-2,0,-1,-1,2
1514894723751452,-1,-3,0,-1,-1,-2,-2,-2
1514894723751452,0,1,-3,-1,-1,-1,0,-1
1514894723764971,-2,2,-1,-1,-1,-2,1,-1
1514894723764971,0,-2,-1,0,1,-3,-1,-1
1514894723765972,-2,-4,0,-2,-1,-2,-1,-3
1514894723765972,1,-1,1,-1,0,-1,-1,-2
1514894723788977,-3,1,0,-2,-2,-2,0,2
1514894723788977,-1,-2,0,-3,-1,0,0,-1
1514894723789978,-2,-2,-1,-1,-1,0,-1,-2
1514894723789978,-2,1,-1,-2,0,-2,-1,-2
1514894723811994,1,1,-1,-1,-2,-1,-1,-1
1514894723811994,-2,-1,-2,-1,-2,-1,-1,-2
1514894723813505,-2,0,-1,-1,-1,-1,-1,0
1514894723813505,-2,0,-2,-2,0,-1,-1,-1
1514894723825017,-1,0,-2,-1,-1,-1,-1,1
1514894723825017,-2,-2,-3,-1,-2,-1,0,-3
1514894723826004,0,-3,-1,1,-2,0,0,-1
1514894723826004,-1,-1,-2,-1,-1,0,1,1
1514894723847519,-1,0,1,-1,0,-2,0,-2
1514894723847519,0,-1,1,-2,-1,-1,-1,-2
1514894723855025,-1,-2,-1,-1,-1,-1,-2,-1
1514894723855025,-2,0,-2,-1,-3,-1,-2,0
1514894723871036,-1,0,-1,-2,0,-1,-1,-2
1514894723871036,-1,-4,-1,1,-1,0,-1,0
1514894723872037,-3,-2,1,0,1,-1,0,-1
1514894723872037,-2,2,-1,-1,-1,-2,0,-2
1514894723893066,-2,1,-2,0,-1,-2,0,-1
1514894723893066,-3,-2,-3,-1,-1,-1,-3,-2
1514894723894052,1,-3,0,0,0,-2,-1,0
1514894723894052,-2,-1,-2,-1,-3,0,-1,-1
1514894723909065,0,0,-1,-1,-1,0,0,-2
1514894723909065,1,-1,0,-2,-1,-1,1,0
1514894723911065,0,-4,-1,-1,0,-1,-1,-1
1514894723911065,-1,-1,-1,-1,-1,0,-1,-1
1514894723931079,-2,0,0,-2,0,1,-2,-1
1514894723931079,-1,-1,-1,-1,-1,0,0,-1
1514894723932079,-2,0,-1,-2,1,0,-1,-2
1514894723932079,-1,1,-1,-2,0,-2,-1,-2
1514894723944588,-2,1,-2,-2,-2,-1,-1,-3
1514894723944588,-1,-2,-2,-1,-1,-2,-1,-2
1514894723952594,0,-1,-2,0,-2,-1,-1,-2
1514894723952594,2,-1,-2,-1,0,-1,-2,-2
1514894723968104,0,-1,-3,-2,-2,-1,-1,0
1514894723968104,0,-2,0,0,1,-2,-1,1
1514894723970106,-1,-3,-2,-1,-1,-1,0,-1
1514894723970106,-3,-1,0,0,-1,-1,-2,-2
1514894723990622,-2,0,-1,-1,0,1,-1,-1
1514894723990622,0,-3,0,0,-2,0,-1,0
1514894723991626,-2,-1,0,0,-1,0,-2,0
1514894723991626,0,0,0,-1,-2,-1,0,0
1514894724004630,0,0,-1,0,-1,-2,0,0
1514894724004630,-2,-2,0,-2,-1,-2,1,-1
1514894724012638,-1,-4,-1,-2,0,-1,0,-1
1514894724012638,1,-1,-2,-1,-2,-1,0,-1
1514894724028147,-1,-1,-1,-1,0,0,-1,-1
1514894724028147,-1,-1,0,0,0,0,-1,0
1514894724029148,-1,-2,0,0,-1,-1,-2,-1
1514894724029148,-2,0,0,-2,0,-2,-2,0
1514894724050663,0,1,-2,-2,-1,-3,-2,-1
1514894724050663,0,-2,-2,-2,-2,-2,-2,0
1514894724051664,-1,-2,-1,1,0,0,-3,-1
1514894724051664,-3,-1,-2,0,-1,-1,0,0
1514894724064172,0,1,-1,-1,-1,-1,-2,0
1514894724064172,-2,-2,0,-2,-1,0,0,-2
1514894724073179,-1,-1,-1,-1,-1,-1,-2,0
1514894724073179,-1,-1,-1,0,0,-2,1,0
1514894724088189,0,2,-1,-1,-1,-2,-1,-4
1514894724088189,-3,-1,-2,-1,-2,-2,-2,-1
1514894724089190,0,-3,-2,0,-1,-1,0,-2
1514894724089190,0,-2,1,0,-2,-1,-2,0
1514894724110706,-1,0,0,-1,-2,0,-1,-1
1514894724110706,-2,-2,0,-1,-1,0,-2,-2
1514894724111707,-1,-1,-2,-2,-1,-2,-1,-2
1514894724111707,-1,1,-1,0,-2,-1,1,-2
1514894724124717,-2,0,-3,0,0,-2,-1,0
1514894724124717,0,-4,-1,0,0,0,1,0
1514894724132720,-1,-1,-2,-3,-1,-1,-2,0
1514894724132720,-1,-1,-2,-2,-1,-1,-1,0
1514894724148233,0,-1,-1,-1,-1,-2,-1,1
1514894724148233,-1,-3,-1,-1,-1,0,-1,-2
1514894724149232,0,-3,0,-1,-1,0,0,-1
1514894724149232,0,2,-2,-1,-2,0,-2,-2
1514894724170758,-1,1,-1,0,0,-1,-1,-1
1514894724170758,-3,-1,-3,-1,-2,-2,-2,1
1514894724171748,-2,-3,-1,-1,-1,0,0,-1
1514894724171748,-1,0,-1,-1,-1,-1,-2,-1
1514894724184758,0,-3,-1,-1,-1,-1,-1,-1
1514894724184758,-1,-1,-1,-2,-1,-1,-2,-2
1514894724192763,-1,-1,-1,-1,-2,-2,0,-1
1514894724192763,-1,-1,-1,-2,0,-1,-1,0
1514894724208278,0,0,0,-2,0,-1,0,1
1514894724208278,-1,-3,-2,-1,0,-1,0,1
1514894724209276,-2,-2,0,-1,-2,0,0,0
1514894724209276,-1,0,-3,-2,-2,-1,-1,-1
1514894724238305,-3,1,-2,-1,0,-1,0,-3
1514894724238305,-1,-1,1,0,0,-1,0,0
1514894724239806,-1,0,-1,-1,-2,-1,-1,1
1514894724239806,0,-1,-1,-2,-1,-3,0,-1
1514894724259810,0,1,-1,-2,-4,-1,-1,-1
1514894724259810,-1,-3,-1,-1,-1,-1,-2,-3
1514894724268817,-2,-2,0,0,-1,-1,-1,-2
1514894724268817,-1,-3,1,-1,-1,-1,-1,-2
1514894724269818,0,-1,-1,-1,-2,-1,-1,-2
1514894724269818,-1,-1,-1,0,0,-2,-1,0
1514894724275823,0,-2,0,-1,0,-2,-1,0
1514894724275823,-1,1,0,-1,0,-3,-2,0
1514894724290847,-1,-1,-2,0,-2,0,-3,-3
1514894724290847,-1,-2,-2,-1,-2,0,-1,-2
1514894724292334,-2,-2,0,-1,-1,-2,-1,1
1514894724292334,0,-1,-2,-1,-1,0,0,0
1514894724313348,-2,-1,-1,-3,0,-1,0,1
1514894724313348,-2,-3,-2,0,-2,0,-1,-2
1514894724314859,-2,-1,0,-3,-2,-2,-2,-4
1514894724314859,-1,0,-2,-1,-3,-3,-2,-2
1514894724327860,0,-1,-2,-2,-2,-1,-1,-2
1514894724327860,0,-3,-2,0,0,-1,-2,-1
1514894724335865,1,-2,-1,-1,0,0,-2,0
1514894724335865,0,1,0,0,2,0,-2,0
1514894724350875,0,-2,-3,0,-1,-3,-3,0
1514894724350875,0,-1,-2,-2,-2,-2,-2,-2
1514894724352377,-1,-1,0,-1,0,0,-2,-3
1514894724352377,-2,0,-2,-3,0,1,0,-1
1514894724373391,-1,0,0,0,-2,-3,0,-2
1514894724373391,-3,-3,-1,-1,-1,-1,0,-1
1514894724376903,-1,-1,-3,-1,-1,-2,-2,1
1514894724376903,0,1,0,-1,-1,0,0,-1
1514894724387413,0,0,-1,0,-1,0,-2,-1
1514894724387413,0,-1,-1,-2,-1,-1,0,-2
1514894724394416,-1,-1,-1,-1,-1,-1,-2,-1
1514894724394416,1,1,-2,-1,-1,-3,-2,-1
1514894724410929,0,-1,-1,-1,-2,0,-1,-1
1514894724410929,0,-3,-2,-2,0,-3,-1,-2
1514894724416923,-2,-2,-2,0,0,1,-1,-1
1514894724416923,-1,-1,-1,0,-1,-1,0,-1
1514894724432933,0,0,0,-2,-2,-2,0,0
1514894724432933,0,-3,-1,-1,0,-1,-1,0
1514894724434947,-1,0,-1,-1,-1,0,1,-1
1514894724434947,-3,0,-2,-1,-1,-1,-1,-2
1514894724447443,-1,0,-2,-1,-3,-1,-1,-1
1514894724447443,-2,-2,-2,0,-2,0,-2,-1
1514894724454950,-2,-1,-2,0,-2,0,-1,-1
1514894724454950,1,-2,0,0,-1,-1,-1,-1
1514894724470459,-2,-1,-1,-2,0,-2,-4,-1
1514894724470459,-1,-1,-1,0,-1,-1,-1,-2
1514894724473474,-1,0,-1,0,-2,-2,1,0
1514894724473474,0,1,0,-2,0,-1,-1,-2
1514894724493475,-1,-3,1,0,0,0,-1,-2
1514894724493475,0,-4,-1,-2,-2,0,0,-1
1514894724494987,0,-3,0,-1,-1,0,0,-2
1514894724494987,-1,-1,-3,-1,0,-2,-1,-2
1514894724507486,-1,0,-1,-2,-1,-3,0,0
1514894724507486,-1,-1,1,-2,0,1,-2,-1
1514894724514490,0,-1,-3,-1,0,-2,-2,-2
1514894724514490,-2,0,-1,-1,-1,0,-1,-2
1514894724530503,-1,-1,-1,-2,-1,0,0,-1
1514894724530503,-2,-1,-2,-1,-1,-1,-1,-2
1514894724532503,-1,-2,2,-1,-3,0,1,-1
1514894724532503,-1,2,-1,-2,-1,0,0,-1
1514894724553518,-1,0,-1,0,-1,-1,-1,-2
1514894724553518,0,-2,-1,-1,1,-2,-1,0
1514894724555029,-1,-2,-1,-1,-2,0,0,-1
1514894724555029,0,0,-2,-1,-3,-1,0,-1
1514894724567529,-2,-4,-3,-1,-2,0,0,1
1514894724567529,0,-3,-3,-1,-2,0,-1,-1
1514894724575040,-2,-2,-2,0,-1,-2,-3,-1
1514894724575040,-1,-2,-1,0,1,-1,-1,1
1514894724590554,0,-1,-1,-2,-1,-1,1,-1
1514894724590554,-2,-1,1,-1,-1,-1,1,-3
1514894724592545,-1,-1,-1,-2,-1,-3,-1,-2
1514894724592545,-1,1,0,-1,-1,-1,-1,-1
1514894724613061,-2,-2,-2,0,-1,-1,-1,-1
1514894724613061,0,-3,-1,-1,-1,-2,-1,0
1514894724619065,-1,-2,0,-1,0,1,-1,-1
1514894724619065,-1,1,0,-2,0,-1,-1,-1
1514894724628571,0,-2,-1,-1,-1,-2,-1,-1
1514894724628571,-2,-3,0,-2,-1,0,-2,-1
1514894724634575,-1,-1,0,-1,1,-2,-1,0
1514894724634575,-1,-1,0,-1,-2,-1,-1,0
1514894724651604,-2,-1,-1,-2,0,0,-2,0
1514894724651604,0,-1,0,-1,-4,-3,-1,0
1514894724653091,0,-1,-2,0,-1,1,-1,-1
1514894724653091,1,0,-2,-1,-2,-1,-1,-2
1514894724689617,0,0,-2,-1,-2,-2,0,-1
1514894724689617,-2,-1,0,-2,-1,-1,0,-3
1514894724691117,-1,-2,-2,-1,1,1,0,0
1514894724691117,-2,-1,-1,-1,-1,-2,-1,0
1514894724692116,0,-1,-2,-1,-1,-1,0,-1
1514894724692116,-1,-4,-2,0,-1,-1,0,-1
1514894724696119,-2,2,-2,-1,-2,-2,0,-2
1514894724696119,-1,-1,0,-1,-1,1,-2,-1
1514894724711630,0,-1,0,-1,0,0,-2,-1
1514894724711630,0,-1,-1,0,1,-1,-1,0
1514894724713631,-1,-2,-1,0,0,-1,0,-1
1514894724713631,-1,1,-2,0,0,-2,0,-2
1514894724740650,-3,-1,-2,-1,0,0,-1,0
1514894724740650,0,-3,-3,0,-2,-1,0,-1
1514894724742652,0,-1,0,-1,0,0,-2,-1
1514894724742652,-1,0,-1,-2,-1,-2,-3,0
1514894724747155,-1,-4,0,-2,-1,-2,0,0
1514894724747155,-2,-2,0,-1,-1,-2,0,0
1514894724756162,-1,1,-2,0,-2,-1,-1,-1
1514894724756162,-2,1,0,-2,-1,-1,1,-3
1514894724770673,0,0,1,0,-2,-1,-1,0
1514894724770673,-1,-1,-2,-1,1,-1,-1,0
1514894724772173,-1,0,-1,0,-2,-2,-2,-1
1514894724772173,-2,1,-2,-1,-2,-1,0,0
1514894724793187,-1,-1,-1,-1,-1,-2,0,0
1514894724793187,-1,-4,0,-1,-2,0,-2,-3
1514894724794689,0,0,-1,0,-2,-2,-1,1
1514894724794689,-1,-1,-2,0,0,-1,0,-1
1514894724807198,0,-1,-1,-2,-1,-2,-2,-1
1514894724807198,-1,-1,-1,-2,-2,-1,-2,0
1514894724815704,-1,0,-2,-1,-1,-2,-2,-2
1514894724815704,0,1,0,0,-3,-1,0,1
1514894724831215,0,-1,-1,0,-2,-1,-3,-1
1514894724831215,-2,-3,-1,-1,1,-1,-1,-1
1514894724834218,-1,-2,-1,-2,0,-1,-1,-1
1514894724834218,0,1,-1,-1,-3,0,-2,-2
1514894724853229,-1,-3,-2,0,-1,-1,-1,-1
1514894724853229,-1,-2,-1,-1,-1,-2,-3,-1
1514894724854731,-2,0,-1,-2,-3,-1,-1,-1
1514894724854731,0,0,-1,-2,-1,-2,0,0
1514894724866743,-1,-2,-2,-3,-1,-1,0,-2
1514894724866743,-2,-2,-1,-1,-1,-2,0,-1
1514894724876246,0,-1,-2,-2,-2,-1,-1,0
1514894724876246,-2,-1,-3,0,-1,-2,-1,-1
1514894724890756,0,-2,0,-1,-1,-1,-2,0
1514894724890756,-2,-2,-2,0,-1,-1,-1,1
1514894724892257,-3,-1,0,0,-1,1,1,-1
1514894724892257,0,1,0,-1,0,-2,-4,0
1514894724913282,-2,-2,-3,-1,-1,-2,0,-1
1514894724913282,-1,-3,0,1,-2,-1,-2,-2
1514894724914783,1,-2,1,-1,-2,-1,0,-1
1514894724914783,1,1,-1,-2,-1,-1,-1,0
1514894724926782,-1,0,-1,-1,1,-1,-1,-1
1514894724926782,-1,-2,-1,-1,-1,1,0,0
1514894724935788,-2,2,-4,-1,0,-1,1,0
1514894724935788,1,-1,-1,-1,-1,-1,-1,0
1514894724950799,-1,-1,-1,-2,-3,0,0,-1
1514894724950799,-1,-2,0,-2,-1,-2,-1,-1
1514894724953301,-2,-1,0,-1,0,-2,-1,-1
1514894724953301,1,-1,-1,-1,-2,-2,-2,-1
1514894724973329,-2,-1,-1,0,-2,-1,-1,-2
1514894724973329,-1,-4,-1,-3,-2,1,-2,-1
1514894724974831,0,0,-1,-2,-1,-3,0,-1
1514894724974831,-2,0,-2,0,-1,-2,0,0
1514894724986834,1,-2,-3,-2,-1,-1,-2,-1
1514894724986834,-1,-2,-4,-1,-2,-1,-1,-2
1514894724995841,-2,0,-1,-2,-1,0,-2,-1
1514894724995841,-2,0,-2,-2,-1,-1,-1,-2
1514894725010841,-2,-1,-1,-1,0,-2,-1,-1
1514894725010841,-2,-2,0,-1,-2,-1,-1,-1
1514894725012342,-1,-2,-1,0,-1,0,-1,-1
1514894725012342,-1,1,-2,-1,1,-2,0,0
1514894725033357,-1,-2,1,-1,-2,-2,0,-1
1514894725033357,-3,-2,-1,-1,-2,-2,-2,-2
1514894725034859,-2,-1,0,0,-1,-1,0,0
1514894725034859,-2,0,1,-2,-2,0,-1,-3
1514894725046868,-1,-3,-1,-1,-2,1,0,-2
1514894725046868,0,-3,-1,-1,1,-1,0,-2
1514894725055873,-1,0,-1,-2,-1,0,-1,-2
1514894725055873,-1,-1,-1,-2,-1,-1,-3,0
1514894725070383,-1,-2,-1,-1,0,-1,-1,-1
1514894725070383,0,-2,-1,-1,-1,0,-1,-2
1514894725078390,-1,0,-1,-1,-1,0,-3,-1
1514894725078390,-1,0,-2,-1,-1,-1,0,-1
1514894725093399,-1,-2,-1,-1,-1,0,-1,1
1514894725093399,0,-4,-3,-1,-1,-1,-1,-2
1514894725095408,-2,0,-2,-1,-1,-1,0,1
1514894725095408,0,0,-2,-1,-1,-3,-2,-1
1514894725106927,-2,-3,-2,-2,0,-1,-2,0
1514894725106927,-1,-3,-3,-1,-1,-1,0,-1
1514894725115925,1,-1,0,-1,-2,-2,0,-1
1514894725115925,0,0,-2,0,-2,0,1,0
1514894725130936,-1,-1,-1,-1,-1,-1,1,-2
1514894725130936,-2,-1,0,0,-3,0,-1,1
1514894725132427,-2,-2,-2,-1,-1,0,-2,-2
1514894725132427,-1,1,-3,-2,-1,-1,-2,0
1514894725152969,1,-2,0,1,-2,-1,-2,0
1514894725152969,-1,-2,-1,0,-1,-2,-3,0
1514894725154946,-1,1,0,-1,-2,0,-2,1
1514894725154946,0,2,-1,-1,-1,-1,1,-2
1514894725175959,0,-1,-1,-2,-2,-2,-1,2
1514894725175959,-2,-2,-1,-2,-2,-1,-1,-1
1514894725177460,0,-1,-2,-1,0,-1,0,-2
1514894725177460,-2,-2,-1,0,-1,-1,-1,-2
1514894725190473,-2,-2,-2,-1,-1,0,0,-3
1514894725190473,-2,-4,-1,0,1,-1,-1,0
1514894725192470,0,-1,-1,-1,1,0,-2,-1
1514894725192470,-2,-2,-1,-2,-2,-2,0,0
1514894725212985,-2,-3,-2,0,0,-2,-1,-2
1514894725212985,-2,-2,-3,-1,-1,-2,0,0
1514894725214987,-2,1,-3,-1,-1,-2,-2,-1
1514894725214987,0,2,0,0,0,-2,-1,0
1514894725243017,-2,-2,-1,-2,-2,-2,-2,-1
1514894725243017,-2,-2,-1,-2,-2,0,1,-3
1514894725245016,-1,0,-1,0,-1,-2,0,-2
1514894725245016,0,0,-2,0,-1,-2,-2,0
1514894725250520,-1,-1,-1,-2,-1,0,-2,-1
1514894725250520,0,-3,-1,1,0,-2,0,-1
1514894725252521,-1,0,-1,-2,-1,-1,-1,1
1514894725252521,-2,1,-2,-2,-1,0,0,-1
1514894725273043,-1,-1,-2,0,-1,1,1,-2
1514894725273043,-2,-3,-1,-1,-1,-1,-3,1
1514894725275031,1,0,0,1,-1,-1,-1,-2
1514894725275031,-1,-1,0,-2,-1,0,-1,-1
1514894725295543,-2,-3,-1,-1,-1,-2,-1,-1
1514894725295543,1,-2,-1,0,-1,-1,0,-1
1514894725297544,-1,-1,-1,-1,-2,-3,-1,-2
1514894725297544,1,1,0,-2,-1,-3,-2,-2
1514894725310053,0,-2,1,0,-2,0,-1,-2
1514894725310053,-2,-2,-1,-1,-1,-1,-2,0
1514894725317058,-1,-2,-1,-2,-1,-1,-1,0
1514894725317058,-2,0,-1,-2,-3,-1,-1,-1
1514894725333070,-2,-2,-2,-3,-3,-2,0,-2
1514894725333070,-2,-4,0,-2,-1,0,-1,-2
1514894725335083,0,1,-1,-1,1,0,2,-1
1514894725335083,0,0,-3,-2,0,-1,-1,-1
1514894725355588,-1,-2,-2,-2,0,-3,-2,1
1514894725355588,-1,-2,-2,-2,-2,0,-1,-2
1514894725357086,-2,1,0,-1,0,0,1,-2
1514894725357086,0,1,0,-1,0,0,-1,-2
1514894725370095,1,-2,-2,1,-2,-2,-1,-1
1514894725370095,-1,-4,0,-2,0,-1,-1,-1
1514894725377104,-1,0,-2,-1,-2,-1,-1,-1
1514894725377104,-2,0,0,-1,-2,-1,0,-2
1514894725393111,-1,-4,-1,0,0,-2,-4,-1
1514894725393111,0,-2,1,0,-3,-1,-1,-1
1514894725395112,-2,-1,-2,0,-2,-1,-3,0
1514894725395112,-1,2,-2,0,0,-2,-1,0
1514894725415667,-1,-3,-1,0,0,-1,0,0
1514894725415667,-1,-3,0,0,0,-2,-3,-2
1514894725417168,-2,2,-2,0,-1,-3,-1,0
1514894725417168,-1,0,-1,-2,-1,-2,0,-1
1514894725430185,0,-1,-1,0,-1,1,-1,-3
1514894725430185,-1,-5,-1,0,-1,0,0,-3
1514894725444187,-1,-1,-2,-1,-2,-2,-1,-2
1514894725444187,-2,1,-1,-2,-1,-3,0,-2
1514894725453192,-2,0,-1,0,0,0,-2,-2
1514894725453192,-2,-2,-2,-1,0,1,0,-1
1514894725454694,-2,0,-2,-2,-1,-1,-2,0
1514894725454694,0,0,0,-1,-2,-1,-2,1
1514894725475708,-2,-1,-1,-2,-1,-1,-2,0
1514894725475708,-3,-3,0,-1,-1,-1,-2,-1
1514894725477211,-1,-1,-1,-2,-1,-3,-1,-4
1514894725477211,-1,1,-1,0,-3,-1,0,-2
1514894725490218,-1,-2,0,-2,0,-1,-1,-1
1514894725490218,-1,-2,0,0,0,-1,-1,1
1514894725496733,-1,0,-2,-3,-1,0,-1,-1
1514894725496733,-1,1,-1,-1,-1,0,-2,-4
1514894725512743,-1,-2,-1,0,-2,-2,-2,-1
1514894725512743,-2,-2,-2,-2,0,0,0,-2
1514894725519248,1,-1,1,-1,-2,-1,-1,0
1514894725519248,-1,0,-1,-1,-1,0,0,1
1514894725543757,-3,-2,0,-2,0,-3,1,1
1514894725543757,-1,-3,-2,0,1,0,-2,-2
1514894725545258,-2,2,-2,-2,1,0,0,-2
1514894725545258,0,3,-3,-1,-1,-2,-2,-3
1514894725549761,-2,-3,-1,0,-3,0,-2,-1
1514894725549761,-3,-2,-2,-1,-3,-1,0,-2
1514894725556768,-2,0,-1,-2,-2,-1,-1,-2
1514894725556768,0,1,-1,-1,0,-2,-1,1
1514894725573780,0,-2,-1,-2,-1,-2,-1,-1
1514894725573780,0,-2,-1,1,0,-1,0,0
1514894725575279,1,2,-2,-1,-3,-1,0,-1
1514894725575279,-1,0,-2,-2,1,0,0,0
1514894725595806,0,-2,-2,-2,1,-4,-2,-2
1514894725595806,-1,-4,-1,-1,0,-2,0,-1
1514894725597306,-1,-1,0,-1,0,-1,-1,0
1514894725597306,-2,0,-2,-1,-3,0,-1,0
1514894725610303,-2,-2,-2,0,-1,-1,-1,0
1514894725610303,0,-2,1,-1,-3,-1,-2,-1
1514894725616808,-1,0,-2,0,0,-1,0,-2
1514894725616808,0,1,-1,-1,-1,0,-2,1
1514894725633320,-1,-3,-1,-2,-1,1,-2,-1
1514894725633320,-1,-1,-2,-2,0,0,-1,-1
1514894725634821,-1,0,0,0,-1,-1,0,-1
1514894725634821,-2,-1,-2,-1,-2,-2,-1,-1
1514894725656342,-1,-2,0,-1,-2,-1,-1,-2
1514894725656342,-1,-3,0,-1,-3,-2,-1,-1
1514894725657837,-2,1,-2,-2,-2,-1,-2,0
1514894725657837,-1,1,-2,0,-1,-1,-2,-2
1514894725669346,-2,-2,-2,-1,-1,0,-1,0
1514894725669346,-2,-3,0,-1,0,-1,-2,-2
1514894725678353,-1,2,0,1,-1,-1,-2,1
1514894725678353,-2,-1,-1,-1,-1,-1,-1,0
1514894725693363,-2,-1,0,0,0,-1,0,1
1514894725693363,-2,-3,-1,-1,2,0,-1,-1
1514894725694875,-1,0,-1,-1,-1,-1,-2,-2
1514894725694875,1,0,-1,-1,-2,-2,-1,-1
1514894725715878,-1,-2,-3,0,0,0,1,-2
1514894725715878,-1,-3,0,-1,-3,0,-2,-1
1514894725718381,-1,-2,0,-3,-1,-4,-2,-2
1514894725718381,-1,1,-3,-1,-3,0,-1,-2
1514894725729388,0,-1,0,-1,-1,-1,-1,0
1514894725729388,-1,-1,-2,0,-4,0,-2,0
1514894725738406,-1,0,-1,-1,-2,-1,0,-1
1514894725738406,-1,2,-1,-1,-2,-1,-1,0
1514894725753404,0,-2,0,-1,0,0,-1,-1
1514894725753404,-1,-1,-4,1,0,-1,-1,-2
1514894725754933,-1,-1,-2,-2,0,-1,0,-1
1514894725754933,-2,2,-1,-1,-1,-3,1,0
1514894725775422,-1,0,-1,0,0,-1,-1,0
1514894725775422,-1,-2,0,2,-1,-2,0,-1
1514894725798938,-1,-1,-2,-2,-1,0,-1,0
1514894725798938,1,-1,-1,-2,0,-2,-3,-1
1514894725799438,-1,-2,-1,-2,-1,-2,-1,-2
1514894725799438,-1,-3,0,-1,0,0,-2,0
1514894725801439,-1,-1,-2,1,-2,0,-1,-2
1514894725801439,-2,0,-2,-2,0,-3,-2,-2
1514894725813459,0,-3,-1,-3,-1,0,-1,-3
1514894725813459,-1,-2,-1,0,0,0,-1,-2
1514894725814948,0,0,-3,-1,-1,-1,0,-1
1514894725814948,0,2,-1,-2,0,-1,-1,-2
1514894725835475,-2,-3,-1,-1,-1,-2,-3,0
1514894725835475,-1,0,0,0,1,-2,1,-1
1514894725837463,-1,0,-1,-2,-2,-3,-1,-1
1514894725837463,-1,-2,-1,-1,0,-1,0,-2
1514894725849472,-2,-3,-2,0,-1,-1,-1,-3
1514894725849472,-2,-4,-1,-2,-1,-1,-1,-1
1514894725858478,-1,0,-2,-1,-1,-1,0,-1
1514894725858478,-1,1,-1,-2,1,-2,-1,0
1514894725873012,0,-2,-1,0,-1,-1,-1,0
1514894725873012,0,-1,-2,0,-3,0,-1,-1
1514894725874990,-1,0,-3,-2,0,-2,-1,-2
1514894725874990,1,-1,-3,-1,-3,-2,-1,-1
1514894725895514,-1,-1,0,1,-1,-1,-1,0
1514894725895514,-1,-3,-3,-5,0,-1,0,0
1514894725897016,0,-1,3,5,1,-1,-2,-1
1514894725897016,1,0,-1,-1,-2,-1,-1,-2
1514894725909515,-3,0,-1,-5,-3,-2,0,0
1514894725909515,-2,-1,-2,0,-1,0,1,0
1514894725920023,-1,1,-5,-5,-1,-1,-2,1
1514894725920023,0,-1,0,1,1,-2,-2,0
1514894725933033,-1,-3,-2,1,-2,-2,-2,-2
1514894725933033,-2,-3,-1,-1,-4,-1,-1,-1
1514894725935042,-2,0,-3,0,-3,-2,-1,-2
1514894725935042,0,0,-1,-6,-1,-3,-1,-3
1514894725955548,-1,-2,2,2,-1,-2,-1,-1
1514894725955548,0,-2,3,2,-1,-3,-1,0
1514894725957049,-2,1,-4,-5,-2,-1,-1,-2
1514894725957049,-4,0,3,-5,-3,-1,-2,-2
1514894725970059,1,-4,-2,-1,2,1,0,-2
1514894725970059,-1,-3,-2,3,1,0,-1,1
1514894725978565,1,0,0,0,-2,-1,0,-1
1514894725978565,-1,-1,-4,-3,-3,-2,-1,-1
1514894725993078,-2,-2,-5,-4,-1,-1,-1,1
1514894725993078,-1,-2,1,2,0,-1,-2,-1
1514894725999078,-1,-1,-2,-4,-2,-1,0,0
1514894725999078,-1,0,-2,-2,-1,0,0,-3
1514894726015590,1,3,-2,-2,-2,-3,0,-1
1514894726015590,-2,-4,0,2,0,-2,0,-2
1514894726017095,-7,-4,2,2,-2,-2,-2,-1
1514894726017095,-1,1,-1,4,1,-1,0,-1
1514894726029099,4,1,-3,1,0,1,-2,0
1514894726029099,1,0,3,-4,-2,-2,-3,-1
1514894726038106,-2,0,-1,-3,-2,-1,0,0
1514894726038106,-1,-2,-2,-2,-1,-2,0,0
1514894726060674,-4,-4,-1,2,-4,-1,-1,-1
1514894726060674,-3,-1,0,-4,2,1,-2,-4
1514894726062175,3,3,0,4,3,0,-1,-1
1514894726062175,-2,0,3,-2,-1,-2,-1,0
1514894726076203,-2,-2,3,6,-4,-1,-1,-2
1514894726076203,-2,-2,-4,-3,0,-1,-1,2
1514894726077686,1,-2,-3,-7,1,0,0,-1
1514894726077686,0,0,-3,3,0,-1,-1,-1
1514894726089195,-4,-4,-1,-4,-1,0,-2,-2
1514894726089195,-2,0,0,1,-4,-3,0,-3
1514894726098201,2,1,-1,-1,-1,0,0,1
1514894726098201,-1,-1,-4,-4,-2,-1,-1,0
1514894726113211,-2,-6,0,-1,-2,-1,-1,1
1514894726113211,-3,-2,0,-1,0,-1,0,-1
1514894726114725,-3,-2,-2,-3,-3,-1,-2,-2
1514894726114725,-4,1,-1,0,2,0,-1,-4
1514894726135731,10,0,-1,1,2,0,1,4
1514894726135731,7,2,-6,-7,-3,-1,0,0
1514894726137229,-8,-5,2,6,1,0,1,0
1514894726137229,0,-3,-16,-3,-4,-2,0,-2
1514894726158248,-1,3,16,-2,1,-2,0,-1
1514894726158248,-6,-3,2,6,0,-2,-4,-4
1514894726159766,-2,-1,-1,-3,-2,-2,-1,-2
1514894726159766,-2,-3,-2,-3,-1,0,-1,-1
1514894726171753,-2,-5,-13,-1,0,0,1,-1
1514894726171753,5,2,6,1,-2,0,-1,4
1514894726180764,-1,1,3,4,0,-1,-1,-3
1514894726180764,0,0,-3,1,-1,-2,0,-2
1514894726195770,-2,-2,-2,-8,-3,-2,-1,-2
1514894726195770,-4,-2,-3,-2,0,0,-1,-2
1514894726197271,-1,-2,-5,-6,-1,0,-1,0
1514894726197271,3,3,1,-1,3,1,-2,1
1514894726225793,-5,-8,-3,0,-1,-2,-2,-4
1514894726225793,-4,-2,-1,-1,-3,0,-2,-1
1514894726227293,-2,1,-4,-3,-4,-1,-3,-1
1514894726227293,8,3,1,7,3,-2,-1,-2
1514894726233296,-8,1,-5,-2,-2,-1,1,0
1514894726233296,0,-12,3,1,-1,0,0,-1
1514894726234799,10,13,-1,-2,-2,-2,-1,-1
1514894726234799,-5,2,1,-7,-5,0,1,-1
1514894726255825,-1,-11,-5,-2,4,0,-4,-3
1514894726255825,-3,-1,-6,-3,-2,-2,-2,0
1514894726257326,-2,-5,8,5,-1,-1,-3,-2
1514894726257326,10,6,6,6,-1,0,0,3
1514894726278329,2,3,0,-1,-1,0,0,0
1514894726278329,-4,-1,-9,-5,-1,0,-1,0
1514894726279830,-1,0,-3,-4,-1,-1,-2,0
1514894726279830,-1,-2,-3,-7,-7,-2,-1,-3
1514894726293340,1,-2,-3,4,-1,0,-3,-1
1514894726293340,-6,-2,9,0,0,-2,-1,-2
1514894726299343,2,3,-3,3,0,-1,-2,-4
1514894726299343,4,-4,0,-5,-1,-1,-2,2
1514894726315866,-3,-5,-4,-3,0,0,-1,1
1514894726315866,-3,3,-1,2,1,0,-2,-3
1514894726317367,-9,1,-3,-6,-4,-2,1,-3
1514894726317367,-2,-5,-2,1,-1,-2,-2,-4
1514894726338871,4,0,-1,0,-1,0,-1,2
1514894726338871,0,-7,-2,-2,-4,-2,0,0
1514894726340372,-3,-4,-3,-4,-1,0,-2,1
1514894726340372,-12,-5,0,0,1,0,-1,0
1514894726352893,-9,0,-2,-3,-4,-3,-2,-3
1514894726352893,0,11,6,7,3,0,-1,-4
1514894726359386,13,8,-2,4,-2,0,2,6
1514894726359386,-8,-20,-2,-7,-2,-3,-3,-5
1514894726375911,5,0,-7,-7,-5,0,0,0
1514894726375911,-2,-4,0,-3,2,-1,0,0
1514894726377410,0,-3,0,-3,0,-3,-2,-2
1514894726377410,11,22,4,4,0,1,1,2
1514894726396924,-7,-10,-14,-15,-3,3,-2,-4
1514894726396924,-2,-8,2,9,-2,-4,-3,-2
1514894726405928,1,-3,0,0,1,0,-1,2
1514894726405928,1,-1,-1,-3,-3,-2,-1,3
1514894726413439,-15,-6,-1,5,-1,-5,-4,-7
1514894726413439,10,14,-15,-7,-1,1,0,-1
1514894726419940,-6,-11,8,-1,-1,0,-1,-1
1514894726419940,-13,-6,-5,-3,-1,-1,-1,-2
1514894726435440,-1,7,6,-2,-4,-2,-1,-4
1514894726435440,0,-14,0,0,0,-3,-1,0
1514894726437441,2,15,-1,1,1,-1,1,0
1514894726437441,-9,-27,-9,-3,0,-3,-4,-4
1514894726458480,3,-3,1,-1,-2,-1,-1,0
1514894726458480,-3,5,0,2,-1,-1,1,-1
1514894726459958,-2,2,-2,-4,1,0,0,0
1514894726459958,7,1,0,6,-2,-1,-2,-2
1514894726472475,-6,-4,2,-3,0,-1,-1,-1
1514894726472475,-1,4,-4,-7,0,1,-1,-2
1514894726486979,4,-6,-4,-3,-3,0,-1,2
1514894726486979,16,11,4,-1,0,-2,2,5
1514894726495485,-15,-15,-1,9,-3,-6,-4,-5
1514894726495485,-2,4,1,-6,-1,-2,-3,-4
1514894726497485,-5,-2,1,6,1,-1,-1,-3
1514894726497485,-5,6,-1,-1,-3,0,-1,0
1514894726518012,-1,-18,2,5,1,1,-2,3
1514894726518012,-15,3,-11,-6,-3,-4,-6,-7
1514894726520000,6,2,-2,-2,0,-1,-1,-1
1514894726520000,0,26,1,-1,1,-1,1,-1
1514894726533011,5,-6,3,3,1,2,3,0
1514894726533011,3,-13,5,8,0,1,1,4
1514894726539514,9,14,-1,-7,-2,-2,-1,-2
1514894726539514,-2,-11,-6,-6,-2,0,2,4
1514894726555542,-15,-6,1,1,0,0,1,-4
1514894726555542,-4,-6,3,7,0,0,1,1
1514894726557026,6,8,-1,-3,-3,-1,1,3
1514894726557026,11,6,0,-8,2,0,-2,-4
1514894726578543,-10,-10,-1,3,4,-1,-1,0
1514894726578543,6,9,-6,-8,-4,-2,-2,1
1514894726580043,-13,-26,2,1,-4,-5,-4,-5
1514894726580043,-5,3,1,3,0,3,3,-1
1514894726600556,8,2,-4,-6,-3,-4,-3,-13
1514894726600556,-6,-9,-4,-2,-2,0,0,8
1514894726602057,-7,2,-3,0,-2,-2,-8,-13
1514894726602057,-2,1,9,3,-1,-1,2,7
1514894726615569,1,5,-5,-6,-2,1,0,-4
1514894726615569,-8,-24,-10,-5,-1,-3,0,-2
1514894726617069,-16,-7,-7,-4,-1,-1,-3,1
1514894726617069,14,-4,3,7,1,-1,1,7
1514894726638083,2,17,8,-5,0,0,1,10
1514894726638083,1,1,-1,-2,-1,-3,-3,-12
1514894726639585,6,3,-6,-1,1,0,5,7
1514894726639585,-14,3,-5,-6,-5,-4,-7,-9
1514894726652095,-5,11,0,1,0,0,-1,-4
1514894726652095,24,-11,3,4,-3,-2,-8,10
1514894726661104,5,9,7,-3,1,0,4,7
1514894726661104,4,-2,-8,-5,1,1,-2,-2
1514894726675613,18,10,3,6,-5,-4,-8,0
1514894726675613,0,2,-2,4,4,1,0,-12
1514894726677613,-6,8,1,-4,-2,-5,-8,-17
1514894726677613,1,-7,4,6,1,2,12,24
1514894726698125,5,-13,0,-14,0,-2,0,1
1514894726698125,-3,-6,-13,4,2,2,0,1
1514894726699627,2,4,3,0,-3,-2,-5,0
1514894726699627,-13,-19,3,1,1,1,3,-12
1514894726712136,9,14,11,8,1,2,7,27
1514894726712136,4,23,-15,-12,-8,-6,-4,-14
1514894726721642,-36,-58,-28,-3,0,-1,-4,-25
1514894726721642,-14,7,43,-2,-4,-3,-7,1
1514894726735652,-9,-6,-10,0,-3,0,0,6
1514894726735652,10,19,12,-7,0,-3,-1,-1
1514894726737153,-5,-18,-11,7,-3,-4,-8,-10
1514894726737153,-14,-8,-42,-31,-10,-8,-9,-30
1514894726766175,23,23,46,14,6,3,18,22
1514894726766175,-14,14,-18,-7,-3,1,-8,3
1514894726769175,11,0,-7,6,2,3,1,4
1514894726769175,11,-4,-11,3,-3,-5,-20,-42
1514894726772177,-21,1,0,-6,-2,-1,4,12
1514894726772177,2,4,8,-2,0,2,20,5
1514894726780683,13,20,18,1,0,1,0,18
1514894726780683,10,4,-4,-2,0,-1,-1,0
1514894726795694,-15,1,3,-6,-2,-3,-16,-14
1514894726795694,6,-26,12,10,2,1,-1,-14
1514894726797198,12,22,-12,-8,-1,-1,13,13
1514894726797198,5,0,0,-3,-1,-1,5,13
1514894726818210,5,6,-4,12,3,0,4,3
1514894726818210,10,-5,2,-14,-3,1,0,-28
1514894726819712,-14,57,31,3,0,1,21,16
1514894726819712,-15,-37,-23,-2,-4,-4,-20,-12
1514894726832221,13,-12,-13,1,0,4,4,1
1514894726832221,-45,4,34,2,-3,-4,12,10
1514894726841226,43,-23,-51,-4,-1,-1,-15,-4
1514894726841226,5,17,21,15,7,6,3,10
1514894726855736,-15,-15,9,-11,-10,-14,-31,-24
1514894726855736,19,3,-14,5,1,2,4,12
1514894726858239,-25,-25,-9,-9,-6,-4,-2,-12
1514894726858239,8,11,-6,1,0,0,15,1
1514894726878758,-4,-4,-15,-9,-3,-2,-13,-12
1514894726878758,14,-1,9,13,2,-1,-1,18
1514894726879757,4,13,51,-14,-2,-1,-2,-1
1514894726879757,-7,-8,-30,-8,-6,-7,-11,-18
1514894726891762,-9,7,13,5,2,-1,4,5
1514894726891762,9,21,-14,-4,-1,1,6,2
1514894726908275,-16,-40,-5,9,2,-3,-19,-16
1514894726908275,-17,-45,27,-12,-8,-5,3,10
1514894726915780,40,61,-3,16,3,5,19,32
1514894726915780,-40,-65,-46,-19,0,1,-28,-45
1514894726917281,6,16,-44,-1,-3,-2,27,-3
1514894726917281,-12,-34,25,6,3,0,22,28
1514894726938295,20,-23,-32,10,0,-3,-12,-8
1514894726938295,-10,-17,7,-20,-10,-8,-16,-47
1514894726940796,21,51,-4,2,2,6,23,48
1514894726940796,-7,-12,1,-7,-9,-9,-27,-42
1514894726952309,-17,-5,8,-6,-1,4,3,-27
1514894726952309,5,45,14,28,6,2,41,59
1514894726960816,0,8,-4,-24,-5,-1,-21,66
1514894726960816,18,33,17,20,12,19,10,-10
1514894726975821,-5,-38,-18,0,-6,-17,-58,-82
1514894726975821,-9,7,-14,-2,1,-1,-20,4
1514894726978325,-33,-44,-28,3,-4,-4,41,76
1514894726978325,0,16,42,11,13,12,-28,-51
1514894726998338,-9,16,-76,-19,-3,8,63,-77
1514894726998338,41,-12,54,-2,-4,-9,-7,78
1514894726999838,11,19,37,20,1,-7,-44,-52
1514894726999838,-19,11,-6,-22,-8,-11,-17,16
1514894727011847,-13,-11,3,9,5,4,20,78
1514894727011847,-11,5,-65,-26,-14,-10,-8,-49
1514894727020853,-23,-75,24,-6,3,5,-13,-51
1514894727020853,1,-13,-33,2,-2,2,47,76
1514894727034862,6,-25,23,8,-7,-4,-11,30
1514894727034862,-4,40,55,7,6,0,16,42
1514894727043368,-14,13,-3,-1,12,5,3,-58
1514894727043368,26,11,-73,-13,-3,-5,-9,31
1514894727058883,-8,-29,74,-17,-10,-1,7,3
1514894727058883,0,33,-21,23,3,7,52,31
1514894727060389,-8,-33,-39,-13,-5,-5,-25,-64
1514894727060389,-3,36,28,10,4,-1,-13,-25
1514894727080404,13,23,-45,4,-3,-1,-15,-52
1514894727080404,-7,-26,36,-25,-5,0,0,18
1514894727082396,-2,53,-12,-4,-5,-5,9,13
1514894727082396,-6,29,0,9,1,6,23,17
1514894727095905,3,-30,12,1,6,3,-17,-5
1514894727095905,-2,13,1,4,-5,0,-7,-7
1514894727097907,-9,-56,-29,-4,2,-3,-5,23
1514894727097907,22,18,40,2,-4,-2,-6,-39
1514894727117922,-30,-50,-39,-4,-4,-8,-6,2
1514894727117922,6,1,-18,5,11,12,19,57
1514894727119923,-9,32,6,8,-6,-2,-15,9
1514894727119923,20,-40,14,1,1,-4,-15,-16
1514894727140437,-4,19,2,-8,0,-2,12,27
1514894727140437,11,33,-16,-14,-20,-11,-45,-80
1514894727142441,-25,-49,16,18,5,-1,5,-59
1514894727142441,-2,0,-17,24,-5,-4,-5,-8
1514894727155448,1,-15,29,-59,41,21,18,43
1514894727155448,-13,-18,-25,3,-3,-7,-43,-56
1514894727157480,29,40,-22,-24,-15,-5,5,65
1514894727157480,-20,-11,16,8,-27,-14,-16,-71
1514894727176963,-14,22,-9,-2,4,-5,11,78
1514894727176963,-5,64,50,13,7,6,40,21
1514894727185969,-2,-33,-34,3,-2,-5,-27,-52
1514894727185969,-24,-36,9,-10,0,-1,21,53
1514894727201991,-6,-6,-19,4,-21,-9,-6,-44
1514894727201991,10,7,-8,-3,4,1,8,45
1514894727203994,-5,27,69,30,5,7,19,-28
1514894727203994,14,-23,-48,-10,6,-5,9,-28
1514894727215491,-3,-23,-28,-2,-8,0,-2,11
1514894727215491,-28,-32,-6,-4,-3,-4,-16,-17
1514894727221531,4,-6,25,7,-2,-1,-3,-5
1514894727221531,3,7,-23,-31,-1,3,7,0
1514894727238052,-2,16,9,1,-3,0,-7,-16
1514894727238052,7,16,-23,24,7,-1,-20,-59
1514894727239545,0,-63,16,-13,-6,-9,5,86
1514894727239545,-19,62,-1,-23,-6,-2,-14,-31
1514894727260562,-15,-25,-74,11,-10,-11,-14,-7
1514894727260562,-8,24,34,-7,0,-2,-25,-84
1514894727263062,37,71,-32,-31,7,4,18,110
1514894727263062,-4,-4,40,17,5,3,4,30
1514894727275069,8,16,4,15,-4,-5,-34,-57
1514894727275069,9,-15,57,1,4,-2,11,2
1514894727281586,24,84,6,9,2,-3,1,-17
1514894727281586,-8,-20,29,2,-4,-4,-12,-20
1514894727298097,17,12,67,10,11,11,3,24
1514894727298097,-1,-59,-58,-24,-11,-10,9,18
1514894727299587,9,43,83,21,2,5,-9,-74
1514894727299587,-18,-30,-66,-25,-4,-9,9,23
1514894727320611,24,67,55,13,-7,-9,-40,-81
1514894727320611,-6,-26,12,8,4,7,6,94
1514894727322112,-1,-36,-64,-17,-11,-1,25,-57
1514894727322112,-3,-44,0,-4,9,-4,-18,15
1514894727335612,-21,27,-35,0,-3,4,45,92
1514894727335612,12,3,-53,-5,-4,-3,-44,-107
1514894727341616,-24,15,-13,14,3,0,6,27
1514894727341616,27,-23,-14,-23,-2,8,-2,21
1514894727358629,-2,-23,34,3,8,0,4,-16
1514894727358629,2,-41,-6,0,-5,3,18,58
1514894727361631,-2,-21,29,8,-2,0,-2,-25
1514894727361631,13,58,8,16,1,-9,-33,-15
1514894727380656,-4,-9,39,-11,0,8,43,23
1514894727380656,-22,-67,-35,-18,-13,-11,-17,-4
1514894727382155,-1,-8,50,4,1,-3,-1,25
1514894727382155,-13,27,-22,7,1,0,-16,-23
1514894727403159,9,9,-47,-32,-10,-8,-1,14
1514894727403159,-16,-13,-23,14,1,-1,1,73
1514894727404662,-23,35,-14,-14,-4,-4,-24,-100
1514894727404662,4,-2,75,43,8,5,35,85
1514894727418169,-1,-25,-56,-18,6,2,-1,40
1514894727418169,-28,-66,-1,0,-2,-3,-22,-75
1514894727419671,11,-15,-18,-30,-12,-9,-9,47
1514894727419671,-11,40,32,31,-11,-4,9,0
1514894727440686,10,-41,8,-5,9,3,9,48
1514894727440686,12,22,-6,-18,-1,-1,-6,-20
1514894727442191,-22,-18,-30,4,3,3,17,-6
1514894727442191,0,-61,-77,-16,-14,-8,-6,-36
1514894727463206,1,54,27,15,-2,-3,-2,-29
1514894727463206,7,1,7,-4,4,5,12,44
1514894727465706,9,42,78,-4,-9,-7,-6,-60
1514894727465706,-7,-17,44,0,5,2,1,37
1514894727478224,-22,-31,-63,0,-8,-3,-9,17
1514894727478224,5,32,-7,4,-2,-6,-28,-92
1514894727479726,-7,-19,-16,16,10,5,2,47
1514894727479726,7,6,-13,-32,-4,-1,5,2
1514894727500728,-25,-3,49,21,1,3,-9,-94
1514894727500728,14,16,28,-10,4,5,14,13
1514894727502229,-20,8,-2,22,3,4,0,16
1514894727502229,6,30,-18,-26,1,-1,2,15
1514894727514739,-10,-59,-66,-8,-7,-7,-13,-63
1514894727514739,-3,56,32,8,-6,-5,12,45
1514894727523245,-7,-30,6,-1,2,0,-13,-27
1514894727523245,5,-5,5,15,7,7,10,-34
1514894727538255,13,23,-2,-16,-12,-8,-12,12
1514894727538255,0,-23,6,10,8,5,16,3
1514894727539756,4,-2,-57,5,-2,-3,-15,34
1514894727539756,13,-40,-24,-15,7,4,19,68
1514894727561271,-1,57,100,17,-8,-5,-4,8
1514894727561271,5,-7,-61,6,9,4,-13,-85
1514894727563782,4,-23,-34,-30,-13,-2,-9,-17
1514894727563782,-35,-1,-25,-11,-3,-3,8,23
1514894727574292,10,-7,31,9,1,-3,17,9
1514894727574292,13,41,-36,5,3,3,0,-2
1514894727583287,-6,18,12,-2,-2,1,12,33
1514894727583287,0,-8,29,-11,-2,-3,-7,-22
1514894727598798,0,-26,15,21,4,2,-20,-58
1514894727598798,-9,29,34,-14,-1,2,-1,7
1514894727600311,16,-20,13,-8,-4,-9,21,39
1514894727600311,-12,-8,-7,2,-4,-1,-2,-5
1514894727620823,5,12,16,-7,-1,-1,-2,9
1514894727620823,36,31,-6,10,-8,-5,-7,53
1514894727622324,-26,-50,-58,-2,1,-1,-14,-21
1514894727622324,-4,35,3,-4,-1,-1,3,10
1514894727635323,-9,-13,-35,-7,-4,-1,19,81
1514894727635323,-23,-50,23,-3,-4,-10,-53,-40
1514894727643330,9,27,-16,-11,-3,-1,0,8
1514894727643330,-2,-4,11,13,-5,-3,-2,12
1514894727658355,36,-7,-97,-19,-2,1,-17,-14
1514894727658355,-10,21,44,-1,-6,-3,29,15
1514894727659842,15,-18,-35,-9,5,2,7,-3
1514894727659842,14,-3,-4,16,3,4,0,-48
1514894727680856,-1,20,24,-11,3,4,14,14
1514894727680856,1,55,36,15,4,4,38,67
1514894727683367,-14,-7,-22,0,1,0,-11,-31
1514894727683367,-12,-11,-28,-9,-7,-3,3,-4
1514894727694365,11,-28,-33,8,1,3,-10,-10
1514894727694365,-16,-7,17,-6,3,4,9,39
1514894727703372,39,56,30,-5,-4,2,-7,-83
1514894727703372,-34,-22,17,14,6,5,13,46
1514894727718398,-12,-12,12,5,-1,-4,-9,-1
1514894727718398,10,-16,-34,-2,0,1,3,-7
1514894727720899,3,28,91,2,1,-3,2,21
1514894727720899,20,39,-30,3,0,-1,4,-12
1514894727740410,-9,-51,-12,-8,-5,-2,11,6
1514894727740410,-5,-31,-37,-3,-4,-3,-6,11
1514894727742401,0,-7,23,3,5,0,-14,19
1514894727742401,15,16,16,-8,-6,-1,-13,-61
1514894727754417,-12,22,47,11,9,1,8,49
1514894727754417,-8,5,-69,-11,-7,-5,6,-41
1514894727763418,13,-12,55,24,9,8,26,36
1514894727763418,-1,22,16,-7,-6,-7,-18,-34
1514894727777934,-10,-30,18,-11,2,6,13,8
1514894727777934,-9,4,15,-3,-2,-2,1,-8
1514894727779935,-3,-3,3,4,0,0,-6,2
1514894727779935,-21,-37,-34,4,-2,-3,-14,-14
1514894727800458,-9,-15,19,-3,-5,-6,-2,-31
1514894727800458,9,28,11,15,5,2,12,27
1514894727802454,-22,-21,-57,-21,-7,-1,10,-1
1514894727802454,3,-14,7,0,-4,-9,-16,-21
1514894727814463,12,19,-54,5,1,-1,6,35
1514894727814463,-6,-10,9,-9,-10,-9,-19,4
1514894727823474,10,44,-30,-8,3,0,-5,-28
1514894727823474,7,-29,13,2,2,-1,9,42
1514894727837966,-5,-5,-33,-6,-5,-4,-26,-66
1514894727837966,5,-8,28,13,8,3,1,-14
1514894727839968,-18,12,7,-22,-15,-10,8,19
1514894727839968,-6,-27,-66,-8,2,2,9,22
1514894727860483,-5,30,68,20,3,3,-1,-2
1514894727860483,-1,-37,-55,-5,-6,-4,4,12
1514894727862485,16,6,34,2,9,0,-16,-44
1514894727862485,-3,-2,-22,-6,1,3,12,3
1514894727874008,0,11,-19,-10,-8,-4,-8,-26
1514894727874008,5,-8,43,4,0,-1,-4,0
1514894727883499,-13,5,-3,4,-5,-4,4,49
1514894727883499,-2,-5,-7,-4,-1,-3,-27,-49
1514894727898020,26,22,2,0,2,-1,-1,26
1514894727898020,-9,-1,16,2,-5,-5,6,-29
1514894727899510,8,3,-23,4,4,1,-1,70
1514894727899510,18,12,31,8,5,1,-3,30
1514894727920538,-21,-37,-20,-18,-12,-7,-15,-54
1514894727920538,6,3,14,0,0,-3,-9,-35
1514894727922039,-3,-19,2,12,-1,1,3,9
1514894727922039,11,45,35,13,3,4,6,-3
1514894727935036,-10,-17,8,1,1,0,7,19
1514894727935036,1,24,29,-4,-3,-6,-4,-64
1514894727943544,-10,-44,-38,-23,-8,-3,3,-8
1514894727943544,-5,9,3,8,3,2,-7,6
1514894727959063,-9,18,45,9,0,-5,-13,-42
1514894727959063,7,-17,20,9,4,8,18,29
1514894727960563,-4,33,-12,-4,-6,-3,6,-4
1514894727960563,14,21,7,6,3,1,-12,-6
1514894727981068,5,-37,-9,-18,-2,2,15,29
1514894727981068,-14,-8,7,14,1,-5,-33,-46
1514894727982569,29,-5,0,-2,1,1,4,36
1514894727982569,-11,0,32,-17,-6,-3,5,-28
1514894727994077,-5,8,-25,5,-3,-5,-8,-63
1514894727994077,-22,43,-27,-19,-1,5,14,21
1514894728010599,10,-36,-8,17,5,6,2,20
1514894728010599,12,7,-32,1,-4,-4,-9,-25
1514894728018103,-2,-49,33,8,5,1,9,68
1514894728018103,3,-10,-80,-24,-6,-1,-6,-54
1514894728019604,-9,0,32,2,0,-3,-17,-32
1514894728019604,3,3,11,21,4,0,28,73
1514894728041110,5,67,39,7,2,6,-3,-24
1514894728041110,-2,-29,2,-12,-1,-2,-6,18
1514894728046614,-13,7,-35,-10,-7,-3,11,8
1514894728046614,1,-2,-15,-3,0,1,-7,-14
1514894728063127,1,28,-16,-5,-8,-4,17,93
1514894728063127,14,-7,11,28,26,13,-14,-34
1514894728066629,3,-21,-30,-22,-13,-8,-1,-28
1514894728066629,-9,-3,13,0,-1,0,5,45
1514894728078148,-9,-38,-10,-16,-5,-7,-32,-61
1514894728078148,8,21,9,-11,-13,-8,14,28
1514894728079650,-12,14,41,23,7,-1,-4,-12
1514894728079650,-4,-11,-3,-36,-6,3,11,32
1514894728100652,-16,-23,34,11,3,4,0,-27
1514894728100652,-3,-82,-55,-19,-9,-5,2,16
1514894728102154,-2,14,15,15,8,3,-16,-35
1514894728102154,3,41,-56,-5,-10,-10,-25,-16
1514894728123181,-36,-59,3,-8,-1,-1,14,62
1514894728123181,-7,31,44,11,2,3,-4,58
1514894728124697,-11,-15,24,-14,-7,-3,-7,-62
1514894728124697,10,-1,-22,-6,0,6,19,17
1514894728138178,0,-4,-37,2,2,-4,-25,-41
1514894728138178,-11,13,15,4,-5,-5,18,-14
1514894728139680,31,13,15,4,2,3,17,45
1514894728139680,-30,-12,-13,-1,-4,-7,-5,0
1514894728160707,2,12,-5,9,-4,-7,-14,-34
1514894728160707,10,53,13,-30,-5,1,8,32
1514894728163196,-13,-67,-9,2,6,-6,-3,-29
1514894728163196,4,20,8,-12,-2,1,-4,-10
1514894728183211,8,36,-25,16,4,3,12,43
1514894728183211,-8,-3,-23,-4,-10,-6,-13,-20
1514894728184711,3,48,40,-6,0,4,19,26
1514894728184711,11,0,-18,2,-2,-6,-23,-67
1514894728197721,8,-18,-75,-17,-2,-3,-18,15
1514894728197721,-6,-24,29,18,5,5,-11,2
1514894728204225,-5,70,9,3,-4,-7,-13,39
1514894728204225,-14,-61,-22,-14,-8,-7,-21,-93
1514894728220737,23,34,91,34,8,7,12,11
1514894728220737,-22,-4,-71,-15,8,3,4,-15
1514894728222238,17,52,25,0,-4,0,0,66
1514894728222238,-12,-83,-38,18,6,2,-2,29
1514894728243253,-8,-16,-52,-29,-7,-1,20,-32
1514894728243253,17,-2,-5,9,3,3,-8,26
1514894728244754,4,37,25,5,0,-5,2,-62
1514894728244754,-32,20,45,3,-4,-3,1,-5
1514894728257263,14,14,5,-3,0,1,17,18
1514894728257263,17,12,15,0,-13,-12,-8,11
1514894728264268,-11,-27,13,-1,10,6,-26,-52
1514894728264268,10,20,41,6,-5,-1,16,41
1514894728280780,10,7,-33,-7,8,5,-5,-14
1514894728280780,-23,-60,33,-31,-14,-11,6,98
1514894728283295,-29,-47,-73,13,0,-4,-9,-22
1514894728283295,4,-17,8,-19,-4,0,-8,-4
1514894728303308,-1,7,-10,2,0,0,3,7
1514894728303308,52,96,88,29,8,4,15,-61
1514894728304809,-29,-54,-64,-33,-11,-6,-10,31
1514894728304809,38,-14,9,6,2,-1,-3,-41
1514894728317315,-5,33,-26,15,5,8,1,-11
1514894728317315,-5,17,19,-14,-3,-5,-13,-13
1514894728324311,12,-16,-28,5,-4,-3,-1,13
1514894728324311,11,47,-13,4,0,0,7,-24
1514894728340834,-14,-67,-4,-21,-8,-10,-9,29
1514894728340834,4,-33,2,-4,-4,2,4,-11
1514894728342360,-14,-6,6,14,5,5,10,43
1514894728342360,4,3,6,18,8,1,-5,-44
1514894728362847,-13,-30,-23,-27,-7,-4,1,16
1514894728362847,-19,-5,-12,-3,-4,-3,-24,-26
1514894728364854,30,-44,-81,-16,-8,-4,-5,-75
1514894728364854,1,12,52,9,3,3,-3,22
1514894728377349,8,42,26,31,8,8,21,21
1514894728377349,51,107,19,6,3,-1,-5,-12
1514894728384354,-36,-86,1,-5,-7,-5,1,-12
1514894728384354,-1,-28,43,2,8,6,16,29
1514894728400365,-30,35,-85,-25,-13,-12,-7,-33
1514894728400365,-23,7,-3,24,9,10,11,7
1514894728402367,7,14,-11,-21,-15,-8,0,10
1514894728402367,1,9,13,-1,2,1,5,9
1514894728430386,-6,-61,-1,4,-2,-5,-19,-15
1514894728430386,-21,-27,-27,-8,2,0,14,40
1514894728433388,-8,58,23,-1,-2,-3,-5,-2
1514894728433388,-5,-21,1,4,6,7,5,-23
1514894728438392,11,6,3,-2,-9,-7,-26,-18
1514894728438392,2,11,24,21,5,-3,-12,24
1514894728444395,15,1,17,-6,2,3,3,-8
1514894728444395,11,16,-36,-8,0,2,1,71
1514894728460406,26,-9,59,27,3,2,0,12
1514894728460406,13,54,74,-8,2,2,20,3
1514894728462408,-26,12,-38,-5,1,3,-12,-24
1514894728462408,-25,-50,0,-5,-2,-5,-6,-15
1514894728490431,8,-19,34,11,3,5,11,17
1514894728490431,19,-9,-20,7,-5,-6,-7,-42
1514894728492432,17,5,29,-8,4,4,17,82
1514894728492432,-8,36,2,4,-8,-8,-33,-92
1514894728497433,9,64,39,1,7,2,-3,75
1514894728497433,-16,-64,-60,-20,-14,-11,-4,-37
1514894728504451,24,44,60,26,4,2,-3,44
1514894728504451,-22,-5,-36,-5,-8,-6,4,-37
1514894728520461,-4,23,12,-17,-2,-4,-2,-22
1514894728520461,-39,-28,-17,-7,-2,2,-12,20
1514894728521950,33,53,-1,10,6,1,-2,-20
1514894728521950,-26,-7,16,13,-5,-5,-2,23
1514894728543975,8,37,43,9,0,0,19,1
1514894728543975,7,-26,-101,-25,-9,-10,-25,-58
1514894728544970,8,-16,29,18,2,3,4,-20
1514894728544970,14,27,19,-13,-3,-7,7,27
1514894728556988,-5,11,27,1,-6,1,15,26
1514894728556988,-8,-30,-58,-12,-5,-3,-36,7
1514894728573486,-8,4,15,-4,-1,-3,4,-2
1514894728573486,-18,2,-29,-8,-4,-3,4,23
1514894728581496,-9,-74,-23,-6,-2,-1,-2,-1
1514894728581496,-7,55,19,2,3,0,20,10
1514894728583993,-6,-12,10,2,-2,1,-11,-23
1514894728583993,29,-3,12,6,5,5,6,34
1514894728603008,-10,2,-50,-24,-13,-7,2,-26
1514894728603008,-11,4,-32,-1,0,0,8,-62
1514894728604509,2,-5,42,2,-1,-6,-13,9
1514894728604509,12,5,-12,1,-1,3,12,22
1514894728616529,-4,16,26,5,1,-2,-19,-39
1514894728616529,13,-11,39,25,4,4,19,28
1514894728626024,-11,21,-47,-42,-12,-7,-3,-9
1514894728626024,6,-20,33,11,5,3,0,-21
1514894728640546,-19,-21,-20,9,1,-1,-2,-40
1514894728640546,2,19,-61,-24,-6,-3,11,26
1514894728642047,8,-35,35,25,9,10,12,12
1514894728642047,-3,-30,3,-5,3,3,-1,31
1514894728663059,1,14,5,5,-2,-2,-25,-39
1514894728663059,-8,3,23,2,2,3,5,4
1514894728664560,0,16,7,-4,-5,-1,5,24
1514894728664560,-3,-44,4,-7,1,4,9,32
1514894728685065,4,-32,-20,0,4,4,-14,-7
1514894728685065,-5,-11,83,21,1,-2,-8,-11
1514894728685565,12,25,-108,-3,-2,-3,7,-29
1514894728685565,-14,-17,24,-7,-6,-2,12,37
1514894728700077,16,38,0,-4,0,-4,-17,-17
1514894728700077,4,4,49,-2,0,1,-9,-31
1514894728700577,-24,-29,-10,11,-3,-6,1,-3
1514894728700577,3,-18,-47,4,2,-1,-9,-6
1514894728722609,3,-1,-21,-16,-2,3,7,-24
1514894728722609,-18,1,3,11,6,7,22,25
1514894728723092,27,14,78,15,2,-1,-3,6
1514894728723092,-17,4,-65,-20,-9,-10,-23,-31
1514894728745127,19,7,4,7,3,0,1,-12
1514894728745127,3,-4,-4,-19,-7,-1,11,52
1514894728745608,4,-29,1,12,4,0,13,3
1514894728745608,-9,-3,-35,-14,-5,-1,-12,-5
1514894728760118,-14,-12,-27,3,-9,-8,5,-30
1514894728760118,1,16,1,-33,-4,-4,-20,7
1514894728760620,-6,-1,-84,7,0,-1,2,-11
1514894728760620,1,5,14,-34,-7,-1,4,2
1514894728782634,1,-11,47,18,6,4,6,-13
1514894728782634,13,38,16,10,3,3,1,7
1514894728783135,0,3,40,-12,-8,-8,-23,-12
1514894728783135,-5,-14,-42,9,-1,-3,4,24
1514894728805151,-5,-2,-24,-6,-2,1,11,21
1514894728805151,-22,-39,9,1,2,-2,-22,-11
1514894728805656,3,7,-4,-9,-2,0,-11,32
1514894728805656,9,15,0,15,-1,-5,-13,-49
1514894728819661,-7,18,40,-16,-2,1,16,66
1514894728819661,3,-7,-100,-10,-12,-13,-17,-26
1514894728820661,-22,-22,-11,-19,-1,-2,-12,-23
1514894728820661,15,33,50,20,5,4,10,30
1514894728850692,-8,5,-14,-2,-4,-2,-9,-17
1514894728850692,0,-7,-12,-1,1,1,-10,-15
1514894728851182,0,10,35,8,4,6,6,20
1514894728851182,4,-15,-91,-14,-10,-11,-13,-46
1514894728864702,15,40,42,4,5,7,6,0
1514894728864702,-1,-47,23,4,-2,-4,8,50
1514894728865694,-6,-1,-24,-7,-6,-8,-24,-54
1514894728865694,6,10,115,24,11,10,23,36
1514894728880703,-6,-31,-125,-10,-7,-7,-16,-11
1514894728880703,1,4,10,-4,1,-3,5,18
1514894728881203,11,35,19,1,4,5,9,-69
1514894728881203,-20,-32,62,-15,-9,-5,-9,-12
1514894728902228,-19,-22,-37,-6,2,-2,-10,-1
1514894728902228,-2,12,14,12,4,3,13,-6
1514894728903220,24,16,29,-12,-6,0,10,25
1514894728903220,15,34,-58,-1,0,2,-2,-31
1514894728924744,13,26,29,-4,-6,-4,6,59
1514894728924744,-5,-17,-42,20,1,-2,-10,-76
1514894728925735,-23,-17,-11,-31,0,4,15,-12
1514894728925735,3,0,45,9,0,-3,-11,7
1514894728939755,0,1,18,-3,-3,-1,9,40
1514894728939755,17,18,26,7,2,5,16,26
1514894728940756,-14,-3,-64,3,-1,-6,-16,13
1514894728940756,-4,-29,23,-12,-7,-8,-23,-40
1514894728962270,-12,-54,-4,1,-1,-3,12,-8
1514894728962270,-12,13,-17,-4,-3,-4,-3,9
1514894728963263,-3,2,2,-14,-10,-5,-6,3
1514894728963263,-6,-9,6,7,7,5,10,26
1514894728985278,5,26,43,9,1,1,-1,30
1514894728985278,-1,-25,-11,-11,-7,-8,-8,-56
1514894728987279,-23,-10,-7,11,1,-3,-11,-36
1514894728987279,-2,-25,-47,3,2,1,3,12
1514894728999788,5,39,24,1,-1,-3,-2,-20
1514894728999788,8,-9,-34,-6,0,4,15,48
1514894729000788,3,-14,57,6,-1,0,5,17
1514894729000788,-8,6,-14,-6,0,1,-3,-33
1514894729022316,20,1,67,-1,-1,-1,12,47
1514894729022316,-5,-16,-53,3,-2,-4,-20,-44
1514894729023305,6,8,-4,12,1,-2,9,27
1514894729023305,-10,14,44,-5,0,2,-2,0
1514894729044820,-14,-7,-104,-6,-3,-2,-11,1
1514894729044820,-6,1,43,-9,-4,-6,-15,-46
1514894729045830,7,-8,3,15,4,1,0,-1
1514894729045830,4,0,-25,-4,-2,0,6,40
1514894729059831,13,43,20,4,-1,-5,-13,-56
1514894729059831,2,-16,13,9,3,5,14,104
1514894729060831,-2,-1,1,-13,0,-2,-10,-57
1514894729060831,-6,-18,-85,1,-3,-5,15,16
1514894729082346,-23,-48,-14,-15,-5,-3,-9,-12
1514894729082346,-2,12,33,13,5,1,0,-8
1514894729084348,-11,-10,-21,-12,-3,0,23,36
1514894729084348,6,12,-9,7,-2,-5,-35,-23
1514894729112868,2,7,-6,-2,-3,-4,-12,-32
1514894729112868,-7,0,1,-14,-8,-3,7,16
1514894729113873,-15,-27,9,7,2,0,1,52
1514894729113873,1,-1,-6,-6,-4,-3,-6,-30
1514894729119872,-4,-7,-26,3,-1,-4,6,-59
1514894729119872,3,22,-4,-20,-6,-5,-5,6
1514894729120373,2,-16,-6,-2,-1,-2,-1,23
1514894729120373,-2,11,33,10,-1,-1,13,-12
1514894729150905,-3,12,4,-11,-2,-3,-15,3
1514894729150905,1,7,-11,0,-2,-3,7,17
1514894729157409,16,26,1,9,4,2,11,35
1514894729157409,-3,-7,-16,-9,-2,-3,-19,-77
1514894729164925,-42,-46,-19,-2,-3,0,3,0
1514894729164925,6,14,49,16,7,3,4,-47
1514894729165404,-1,-6,-65,-18,-8,-4,-16,7
1514894729165404,-11,-7,63,5,4,7,0,6
1514894729180061,30,36,-25,6,3,-1,9,3
1514894729180061,-6,-39,-19,-6,-3,2,-1,-2
1514894729180552,0,17,32,9,6,4,4,19
1514894729180552,-5,-21,-2,-5,-6,-5,7,-33
1514894729202577,4,10,16,-9,1,2,-19,23
1514894729202577,-1,-11,37,9,3,-2,5,37
1514894729203068,9,24,-52,3,-1,-3,-18,-90
1514894729203068,-15,-54,-46,-7,-6,0,3,17
1514894729225100,-10,3,38,-5,-1,1,10,42
1514894729225100,31,12,4,16,4,1,-13,-39
1514894729225584,-15,15,6,-5,-4,-3,5,-5
1514894729225584,4,-5,16,-42,-9,-7,-10,20
1514894729240094,-10,-33,-63,1,2,3,9,5
1514894729240094,-6,18,16,-3,0,3,-6,-5
1514894729240595,-6,-40,-64,3,1,3,8,15
1514894729240595,-2,16,0,7,1,0,-3,0
1514894729270616,1,-11,44,22,6,-1,2,11
1514894729270616,2,32,24,-11,-6,-5,0,8
1514894729271618,-12,-10,-11,3,2,2,8,2
1514894729271618,8,-9,8,6,5,6,0,-29
1514894729286139,8,2,27,2,-2,-2,-2,97
1514894729286139,3,1,6,13,2,-2,7,60
1514894729286639,-3,-26,20,-16,-7,-3,-14,-46
1514894729286639,2,11,-66,-32,-6,-6,-2,25
1514894729299636,4,27,39,8,2,4,-2,-50
1514894729299636,6,15,-74,-7,-3,-6,6,22
1514894729300649,10,-27,73,6,-1,-1,7,52
1514894729300649,-1,0,-5,11,4,-2,-14,-8
1514894729322164,-1,1,-29,2,-5,-8,-18,-58
1514894729322164,-13,7,33,-23,-5,-2,5,45
1514894729323165,-3,0,-4,16,1,-1,5,-34
1514894729323165,-5,21,-17,11,-2,-5,3,23
1514894729345678,6,8,50,-20,-4,-1,-21,-39
1514894729345678,-11,-3,-49,0,-2,1,-11,-30
1514894729346169,-6,-35,-3,-11,-6,-5,8,52
1514894729346169,-10,27,92,8,1,1,0,5
1514894729359678,6,3,-27,9,2,-3,-4,-9
1514894729359678,14,18,30,2,4,3,1,-44
1514894729360679,15,15,10,-2,-1,0,-15,-2
1514894729360679,-7,17,-13,12,0,-1,3,-11
1514894729382214,-8,-20,35,4,-6,-7,1,25
1514894729382214,-1,-35,-21,-35,-4,3,13,7
1514894729383205,2,46,5,20,3,-2,-3,-8
1514894729383205,3,-45,21,-15,-3,-4,-21,-23
1514894729406212,-4,-4,-19,-12,-5,0,16,59
1514894729406212,-10,-7,-2,18,3,1,-15,-37
1514894729407222,-7,17,-16,-6,0,3,11,31
1514894729407222,7,2,8,10,2,2,-16,-23
1514894729419721,-2,-7,9,7,4,3,8,8
1514894729419721,-6,15,-46,8,-2,-5,-16,-31
1514894729420722,10,-51,36,-17,-4,-2,1,33
1514894729420722,-9,26,-7,8,2,0,13,26
1514894729442246,-3,-4,1,10,3,-1,1,-49
1514894729442246,2,18,0,-5,-1,3,17,1
1514894729443238,-10,-31,-14,-5,-3,-6,-29,-69
1514894729443238,10,-7,48,14,7,10,40,48
1514894729473268,13,4,-36,7,0,-2,-17,1
1514894729473268,-1,-15,7,-9,-4,-6,9,-33
1514894729473759,10,25,17,5,1,1,-17,43
1514894729473759,3,-1,-35,-20,-7,-3,7,5
1514894729479773,-10,8,-2,-5,-2,0,-2,-41
1514894729479773,-6,-1,-18,7,1,-5,-4,-22
1514894729480764,-6,19,4,10,4,5,13,-9
1514894729480764,11,-5,-35,2,-1,-1,-9,16
1514894729502288,-21,10,7,-9,-2,1,-4,-1
1514894729502288,-1,-27,-24,-8,-5,-5,-6,2
1514894729503289,-9,-7,36,-6,-4,-5,12,40
1514894729503289,12,0,-22,5,-1,-2,-41,-77
1514894729525797,4,11,-10,-14,2,5,17,66
1514894729525797,5,26,35,4,-1,4,4,-42
1514894729526304,-13,-30,-9,-10,-6,-6,-18,-7
1514894729526304,-2,9,12,4,-2,-1,16,34
1514894729539817,-10,-1,-21,-6,-1,-1,-8,-25
1514894729539817,-2,-22,-18,-17,-8,-4,1,31
1514894729540817,-9,-7,47,8,1,-3,5,-18
1514894729540817,-9,-7,-110,-2,-1,-1,-2,-1
1514894729570849,9,4,54,2,2,0,3,26
1514894729570849,3,12,7,0,1,1,-9,-9
1514894729571328,-30,-12,-63,-18,-8,-9,-7,-25
1514894729571328,34,-23,6,-10,-6,-7,3,26
1514894729585347,47,22,5,19,4,0,3,-23
1514894729585347,-19,-47,12,8,-1,0,-7,-1
1514894729586339,-6,4,-8,-22,-7,-4,2,-19
1514894729586339,2,18,17,9,4,2,-2,15
1514894729599357,-8,11,-22,-14,-9,-6,-8,-53
1514894729599357,-9,-29,40,13,0,0,5,6
1514894729607363,9,-9,-44,8,3,4,-6,-32
1514894729607363,-11,28,102,-6,-1,0,12,15
1514894729622874,-10,-4,-62,-14,-7,-5,-7,-31
1514894729622874,13,28,14,7,4,0,16,42
1514894729623866,2,-10,-43,0,-1,1,0,17
1514894729623866,-17,-7,9,5,-2,0,-3,-47
1514894729645380,9,-33,-4,-7,1,1,0,21
1514894729645380,17,0,-33,-1,2,-1,-9,17
1514894729646381,19,7,41,-5,-3,0,15,2
1514894729646381,5,-10,-41,5,1,-2,11,7
1514894729659390,-32,-13,-23,11,-2,0,8,1
1514894729659390,-1,4,-45,-14,-7,-5,-6,12
1514894729667408,10,-13,39,14,7,4,6,20
1514894729667408,-24,-19,-10,-19,-4,1,4,-32
1514894729682418,15,15,57,9,3,1,1,9
1514894729682418,-16,11,11,-5,-5,-8,-6,8
1514894729683417,0,7,-23,3,3,6,9,-41
1514894729683417,12,1,37,15,5,3,6,30
1514894729705422,-11,-18,-14,-7,-2,-2,-5,-8
1514894729705422,-7,18,-29,-14,-11,-6,-3,12
1514894729706423,12,14,16,8,-1,-2,-9,-36
1514894729706423,-7,-6,-9,-14,-3,-1,11,6
1514894729718932,5,-7,-10,-1,-3,-5,-4,1
1514894729718932,-2,-13,-56,-9,0,-1,3,46
1514894729728439,4,16,39,13,-2,-6,-24,-13
1514894729728439,-3,-9,-29,-15,-1,1,-6,13
1514894729742449,-3,-17,32,8,1,5,12,4
1514894729742449,12,28,-12,3,3,-3,-30,-47
1514894729743453,-36,-38,-44,-1,-7,-7,-1,34
1514894729743453,7,5,60,7,4,0,-10,-18
1514894729765477,5,27,-20,-5,-1,2,18,30
1514894729765477,-6,-20,40,-4,-4,-2,-8,12
1514894729766478,1,8,-45,-2,2,-1,-21,-61
1514894729766478,35,39,21,13,0,-1,12,53
1514894729779486,-34,-51,8,-2,0,0,5,10
1514894729779486,12,32,28,16,7,5,1,22
1514894729787481,-6,-33,-21,-14,-9,-8,-6,2
1514894729787481,8,-4,5,-11,-3,-9,-27,-75
1514894729802491,18,32,23,12,4,5,0,11
1514894729802491,-2,-41,19,-1,-3,-3,0,-6
1514894729802992,-10,-2,-5,-4,-1,2,3,14
1514894729802992,-8,31,21,13,4,3,14,36
1514894729825507,-4,-27,-84,-26,-13,-8,-24,-23
1514894729825507,5,4,28,10,4,-2,-8,-51
1514894729826510,13,13,0,2,3,3,17,16
1514894729826510,-10,-1,-3,-11,-5,-1,-12,-4
1514894729839017,-3,26,1,2,2,0,2,19
1514894729839017,-9,-14,-8,-7,-3,-2,17,63
1514894729847523,13,19,-6,-12,-2,0,-23,-43
1514894729847523,0,1,14,32,4,3,8,2
1514894729862534,-13,-22,-7,-27,-3,2,15,61
1514894729862534,-1,-3,24,13,3,-1,-11,-68
1514894729864035,-3,-1,-29,-8,-4,-2,10,33
1514894729864035,-10,-4,25,11,-1,-1,-6,-15
1514894729886050,11,-13,-34,2,-3,-3,-10,-28
1514894729886050,-3,48,54,-9,-1,5,31,11
1514894729887051,-3,-22,20,7,-2,-7,-16,8
1514894729887051,-10,22,-15,0,1,-1,2,-44
1514894729908066,4,17,32,-6,-6,-12,-28,-5
1514894729908066,4,-43,-44,0,-3,3,24,29
1514894729909067,-13,-9,-12,-6,3,5,2,-12
1514894729909067,-4,1,-8,-5,-3,0,12,66
1514894729922577,24,7,27,-6,-4,-4,-11,-49
1514894729922577,4,3,36,6,1,-1,-6,-29
1514894729923078,-2,-3,-19,-9,-3,-7,-7,-12
1514894729923078,1,-16,-39,-6,-1,-1,13,90
1514894729960606,-13,-7,12,11,5,-1,-4,-43
1514894729960606,-23,-2,17,1,1,2,-4,-42
1514894729961604,22,9,8,-1,-6,-4,20,55
1514894729961604,1,-18,-28,-9,0,-2,-16,-21
1514894729968123,3,-3,-7,-3,-4,-3,3,-18
1514894729968123,-5,4,12,-1,0,0,-5,-7
1514894729969610,8,40,33,11,6,3,7,17
1514894729969610,-6,-13,-42,-7,-6,-4,2,40
1514894729982619,18,33,57,9,2,1,10,-1
1514894729982619,-18,-39,-56,-20,-3,-4,-13,1
1514894729983119,-1,29,61,15,6,5,4,-41
1514894729983119,-14,-16,1,-4,-5,-4,13,-2
1514894730004638,-9,16,-47,11,5,6,7,-7
1514894730004638,-10,-49,-70,-4,-12,-13,-14,19
1514894730012659,11,11,17,-21,0,4,-9,-6
1514894730012659,-7,7,12,18,4,2,-3,-24
1514894730028160,-27,-6,-49,-17,-8,-6,-10,-61
1514894730028160,7,-16,23,9,4,4,9,22
1514894730028652,-11,-4,-64,-4,-5,-6,5,7
1514894730028652,-13,-38,18,-7,-1,-4,-15,-42
1514894730042661,21,22,26,10,3,2,7,41
1514894730042661,-6,8,-44,-3,-4,-2,7,11
1514894730043184,15,2,34,4,-2,-1,-6,-19
1514894730043184,7,-4,-42,-16,-2,1,3,-5
1514894730065677,-13,-1,-9,-5,-3,-1,18,61
1514894730065677,-8,12,20,-5,1,0,-23,-109
1514894730066178,2,2,-1,15,4,-1,12,46
1514894730066178,-6,-33,-12,-5,-5,-4,-8,-19
1514894730095711,-21,-1,26,14,5,3,-5,-27
1514894730095711,6,7,-1,-15,-1,-3,-3,28
1514894730096199,-4,0,-12,-2,-2,-1,4,-8
1514894730096199,-12,-33,-39,-18,-7,-4,3,-19
1514894730102212,18,16,-10,1,0,1,-2,8
1514894730102212,-3,0,41,11,0,-1,10,105
1514894730103214,-18,13,8,-2,2,4,-28,-101
1514894730103214,11,27,28,-3,-8,-6,-4,27
1514894730133867,-19,-61,-64,-6,-2,-2,3,20
1514894730133867,17,40,57,13,4,4,-6,0
1514894730135869,2,-17,-29,4,0,0,-1,5
1514894730135869,-18,6,24,11,3,3,-1,-9
1514894730147877,0,16,26,-10,-5,-4,-14,-21
1514894730147877,27,6,-24,3,2,4,18,31
1514894730148878,-9,-7,-23,-21,-12,-10,4,-20
1514894730148878,-27,-37,16,1,1,0,-12,-54
1514894730162887,32,31,-4,8,0,1,8,38
1514894730162887,-25,-14,-21,-18,-7,-6,-3,9
1514894730163388,7,-42,-14,5,1,2,31,-18
1514894730163388,16,44,-21,-5,-4,-6,-16,47
1514894730185413,3,-20,11,12,2,1,11,12
1514894730185413,-18,-12,-21,-31,-8,-5,-18,-57
1514894730186405,11,15,33,8,-2,-5,-1,35
1514894730186405,-3,-20,-31,-17,-4,-2,12,-3
1514894730207929,-7,13,15,5,2,-1,-5,3
1514894730207929,15,27,20,21,7,2,-3,-20
1514894730208929,-11,-21,-4,-9,-2,2,-6,9
1514894730208929,-9,26,48,11,5,3,0,-4
1514894730222939,-5,17,3,-7,-3,-6,-10,-18
1514894730222939,9,14,-16,9,1,-1,9,38
1514894730223430,1,-14,12,-6,4,4,-9,16
1514894730223430,-5,-1,-3,1,-2,-7,-38,-82
1514894730245446,-10,4,36,-4,2,3,5,-14
1514894730245446,16,-5,-38,-3,0,4,15,5
1514894730246460,-9,9,34,3,1,0,-1,9
1514894730246460,2,-8,-26,3,-1,2,13,6
1514894730267974,20,-1,6,-15,-2,-3,-13,-18
1514894730267974,5,12,33,29,9,3,6,4
1514894730268975,11,-4,-27,1,-3,1,4,29
1514894730268975,4,9,15,-32,-5,-1,-6,-18
1514894730291479,-6,-13,31,16,4,2,11,19
1514894730291479,-15,-5,15,-14,-6,-6,-31,-75
1514894730292479,17,26,-9,1,-1,-5,-9,-2
1514894730292479,-2,-37,-25,9,1,0,5,21
1514894730305498,-17,3,45,-6,-3,-1,1,9
1514894730305498,1,-12,-38,-9,-4,0,12,43
1514894730306499,-21,-16,9,6,0,0,-13,-4
1514894730306499,23,56,-33,-12,-7,-7,-15,-83
1514894730329506,-16,-31,-5,0,-1,-3,-1,2
1514894730329506,-18,-24,-15,4,1,0,-4,-21
1514894730331006,12,14,17,-8,-5,-4,-3,11
1514894730331006,22,9,16,15,4,3,12,62
1514894730342514,-28,-6,-8,-21,-5,-2,0,-12
1514894730342514,3,18,-20,-1,-4,-2,-9,-39
1514894730343515,-5,-32,3,-7,-3,0,1,27
1514894730343515,1,2,8,19,4,3,14,61
1514894730365531,23,11,-17,-5,2,-1,-24,-85
1514894730365531,-7,-13,6,-8,-1,-1,9,-2
1514894730366532,-26,8,-12,-2,-3,-4,-7,-32
1514894730366532,29,10,58,9,0,3,-1,47
1514894730388056,-27,-43,-115,-20,-13,-9,-8,-11
1514894730388056,25,21,47,13,3,1,9,48
1514894730389057,-2,-20,19,1,-3,-2,0,-13
1514894730389057,-15,6,-25,-12,-2,-2,-7,-25
1514894730402557,14,8,22,19,5,2,6,11
1514894730402557,3,-7,8,-10,-7,-6,-15,-11
1514894730403058,0,11,-1,-4,2,2,12,15
1514894730403058,-11,-30,43,8,2,1,-6,-17
1514894730425573,4,16,-37,-10,-6,-7,9,68
1514894730425573,-6,-7,18,13,2,1,-7,-66
1514894730426573,6,-3,23,-5,-1,-1,4,15
1514894730426573,-13,-4,-47,-7,-4,-1,7,12
1514894730448099,23,15,8,7,3,3,4,18
1514894730448099,-6,9,15,5,2,-1,4,0
1514894730449104,-6,1,-40,-16,-7,-4,-10,-8
1514894730449104,2,8,-28,8,2,1,2,-8
1514894730462600,-6,4,36,-10,-2,-2,7,53
1514894730462600,-14,2,-22,-14,-8,-9,-15,-28
1514894730463100,10,-19,1,3,2,1,3,17
1514894730463100,-12,18,-21,-4,-2,-2,4,-12
1514894730485626,-10,9,10,11,2,1,-8,-7
1514894730485626,3,-26,-20,-15,-7,-5,7,-2
1514894730486618,-19,-11,-1,5,0,0,1,-20
1514894730486618,29,-9,4,-1,-2,-3,-7,20
1514894730507141,7,-13,-6,-3,-1,-2,-5,-20
1514894730507141,-13,13,37,6,2,2,10,67
1514894730515151,7,-15,-46,-5,-3,-3,-24,-62
1514894730515151,-9,-22,-22,-9,-1,0,4,3
1514894730521656,-12,13,29,6,0,1,2,-19
1514894730521656,1,-32,-50,6,2,2,-1,4
1514894730530157,-7,10,6,-1,-1,-3,2,17
1514894730530157,-8,8,41,-6,-1,-2,-3,-9
1514894730545658,8,-1,-45,-1,-1,2,1,-13
1514894730545658,6,1,16,3,2,-2,-1,5
1514894730546158,-3,-2,-3,7,2,3,2,2
1514894730546158,-1,1,1,4,-1,-2,-3,-8
1514894730568674,4,-2,5,-20,-5,-4,-2,4
1514894730568674,3,2,-15,1,0,-2,-5,-5
1514894730569174,-2,-3,-1,-2,-2,-2,-1,3
1514894730569174,1,14,14,1,-2,-1,-1,5
1514894730581683,0,4,8,5,-1,-2,-1,-10
1514894730581683,-3,-7,-17,-7,-4,-2,-6,-4
1514894730590189,0,-1,14,-1,1,0,-2,2
1514894730590189,-1,-1,4,-4,-1,1,3,1
1514894730605700,-2,1,4,5,1,-2,-4,-8
1514894730605700,3,-6,-9,-10,-2,0,-2,-2
1514894730606201,0,-3,2,1,0,-2,2,7
1514894730606201,-1,2,0,3,1,1,1,-2
1514894730628219,1,1,-1,0,-3,-4,-3,-5
1514894730628219,1,-1,2,-3,-1,-1,-3,1
1514894730628717,-1,-1,3,1,-2,-1,1,1
1514894730628717,-1,-1,0,-1,-4,-2,-3,-3
1514894730650750,0,1,2,0,-1,-1,-2,-4
1514894730650750,-1,-3,-5,-5,-4,-1,0,0
1514894730651245,-2,-2,3,5,6,1,0,0
1514894730651245,-2,-3,-1,-1,-3,-3,-1,-1
1514894730665752,2,0,2,-1,-3,-2,-1,0
1514894730665752,-4,-4,-6,-1,2,-1,-1,-2
1514894730666243,1,-5,-3,-2,-3,-1,-1,0
1514894730666243,2,4,2,-2,-3,-3,0,3
1514894730689769,0,1,1,4,5,2,1,-2
1514894730689769,-1,-3,-5,-3,-1,-2,-1,-1
1514894730693264,0,-1,4,0,-2,-2,-1,0
1514894730693264,-3,1,1,0,-3,-1,-1,0
1514894730701778,-4,0,0,-2,-2,-1,-3,-4
1514894730701778,-1,-3,-3,-1,0,1,-1,-3
1514894730710275,0,-1,-1,-2,-1,-1,0,2
1514894730710275,-1,2,0,0,0,-1,-2,-1
1514894730725801,-1,1,-1,-2,-2,-2,-1,-2
1514894730725801,-2,-3,0,-1,1,-1,-3,0
1514894730726285,-2,-2,1,-1,-2,-1,-1,-1
1514894730726285,-2,0,-3,-1,-1,-3,-1,-2
1514894730755315,0,1,0,0,-1,-2,-1,0
1514894730755315,1,-1,-3,-4,0,-2,-1,0
1514894730756317,-3,-2,0,2,1,-1,-1,-3
1514894730756317,-1,-1,-1,-1,-1,-1,-1,-3
1514894730761811,-3,1,0,-4,-3,-1,-3,-1
1514894730761811,1,-2,-1,0,2,1,0,0
1514894730769817,-2,-1,1,-1,-2,0,-2,0
1514894730769817,-3,1,-2,-2,0,-1,0,0
1514894730792834,0,-2,-4,-2,-3,-1,-1,-1
1514894730792834,0,-3,-3,-4,-3,-2,-3,0
1514894730794834,0,-1,-2,-3,-2,-1,-3,-1
1514894730794834,-1,1,3,3,2,1,1,-2
1514894730808353,0,-2,0,1,-1,-1,0,-2
1514894730808353,0,-1,-2,1,0,-1,-1,-1
1514894730811345,0,-3,-1,0,1,0,0,0
1514894730811345,-1,0,-3,-2,0,-2,-2,0
1514894730830369,-2,1,1,-1,0,-3,-1,-1
1514894730830369,0,-4,0,0,-2,-1,-1,-2
1514894730832861,-1,-3,-1,0,-1,-2,-1,0
1514894730832861,1,1,-2,-2,0,-1,-2,-2
1514894730844869,0,2,-2,0,1,-1,1,-1
1514894730844869,-3,-5,-1,-1,-2,-2,-1,-1
1514894730851374,-2,-4,-1,-1,-1,0,-1,-1
1514894730851374,0,-2,-2,-2,0,0,-3,0
1514894730867886,0,0,0,-2,-2,-2,0,0
1514894730867886,0,-1,-1,1,-1,-1,-2,0
1514894730869386,-2,-3,-3,-1,-3,0,-1,-3
1514894730869386,0,0,-1,-1,0,-1,-1,-2
1514894730890414,-2,1,-2,0,-2,0,-1,-2
1514894730890414,-1,-1,0,-1,-1,0,0,-2
1514894730893904,-1,-4,0,-2,0,0,-1,1
1514894730893904,-1,-1,-2,0,-1,-2,2,-1
1514894730904921,0,2,-1,-2,-1,0,-1,-2
1514894730904921,-1,-1,-2,-2,-2,0,0,-1
1514894730911426,-2,-2,0,0,1,-2,-1,0
1514894730911426,-1,1,-1,-1,-1,-1,-1,1
1514894730928431,-1,1,-1,-1,-3,-3,-1,1
1514894730928431,-1,-2,-1,0,-2,1,-2,-2
1514894730931931,-1,-2,0,-1,-1,-1,0,-2
1514894730931931,-1,-1,-2,-2,-1,-2,-2,-2
1514894730950456,-1,1,-3,-1,0,0,-1,0
1514894730950456,0,-1,-1,-2,0,-1,-1,-2
1514894730951945,1,-1,-1,0,-1,-1,0,1
1514894730951945,-1,-1,-1,-2,-1,0,-1,-2
1514894730964964,-1,-1,-2,0,-1,-3,-2,1
1514894730964964,-2,-2,-2,-1,-1,-1,-2,-1
1514894730971468,0,-3,-1,-2,-1,0,0,-1
1514894730971468,-1,2,-1,-1,-3,-2,1,-3
1514894730987980,-1,0,0,-2,-1,-1,0,0
1514894730987980,-2,-3,-2,-1,-1,-1,-1,-2
1514894730989473,-2,-2,-1,-1,-2,-2,-1,-1
1514894730989473,-2,1,0,-1,-1,1,-2,0
1514894731010487,-2,1,-2,-2,-2,-2,-1,-1
1514894731010487,-1,-2,-1,0,-1,-2,0,1
1514894731011988,-2,-2,0,0,-1,-1,-1,-1
1514894731011988,1,0,0,-1,-2,-1,0,0
1514894731033003,-1,1,-1,0,-1,0,-1,-2
1514894731033003,-1,-2,-1,-1,-1,-2,-2,-1
1514894731036505,0,-3,-2,-1,0,-1,-1,-1
1514894731036505,-1,1,-1,-1,0,0,0,-2
1514894731048013,1,-1,-2,-1,-1,-1,0,1
1514894731048013,-1,-2,0,0,-1,0,-2,-1
1514894731049514,-2,-2,-2,-1,-2,0,-2,-1
1514894731049514,-1,-1,0,-1,1,-1,-2,-1
1514894731071039,1,0,-2,-2,0,0,-3,-1
1514894731071039,-2,-2,-1,0,-1,-1,-2,-1
1514894731072540,-3,-1,1,0,0,0,1,-2
1514894731072540,-1,1,-1,-1,-1,-1,-1,-2
1514894731085049,0,1,1,-2,-1,-2,-1,-1
1514894731085049,-1,-3,1,-3,-1,0,-1,0
1514894731091544,-2,-3,0,1,-2,-2,-3,-2
1514894731091544,-2,0,-1,-1,-2,-4,-1,-1
1514894731108068,0,-3,-1,-1,-1,-2,0,-3
1514894731108068,0,-2,-3,-1,-1,2,0,-2
1514894731109556,1,-2,0,-2,0,0,0,-1
1514894731109556,-2,1,-1,-1,-1,-1,-1,-1
1514894731130581,-2,-1,-1,-1,-2,0,-2,0
1514894731130581,0,1,0,-1,-1,-3,-1,-1
1514894731132082,-1,-2,-1,-1,-2,-1,-2,-1
1514894731132082,-1,-1,1,0,-3,-3,-2,0
1514894731145082,-3,0,0,-2,-1,-1,-1,-2
1514894731145082,-1,-2,-2,0,0,-1,-1,-1
1514894731151595,-2,-2,-1,0,0,1,-1,-2
1514894731151595,-1,-1,-2,-2,-1,-2,0,-3
1514894731168113,0,-1,-3,0,-1,0,0,0
1514894731168113,-2,-4,-1,0,-2,-2,-1,-1
1514894731169610,-2,-2,-2,-1,0,0,1,-2
1514894731169610,-2,1,0,0,0,-1,0,-2
1514894731190625,-1,0,-2,-1,-1,-2,0,-3
1514894731190625,-1,-2,-1,-3,-1,-1,-2,-2
1514894731192125,-2,-1,-1,0,0,-1,-1,0
1514894731192125,0,-1,0,0,-2,-1,-1,0
1514894731205134,-1,1,-1,-4,0,1,-2,-1
1514894731205134,-1,-2,-2,1,0,-2,-1,0
1514894731211639,-2,-1,-2,-1,-2,-1,-1,-1
1514894731211639,-1,0,-3,-2,0,0,-1,1
1514894731228150,-1,1,-1,-2,-2,-1,-1,-1
1514894731228150,0,-2,0,-2,-1,0,-2,0
1514894731229641,-1,0,1,-1,-2,-1,-2,0
1514894731229641,-1,0,-3,1,-2,-2,-1,0
1514894731250666,-2,-1,-3,0,-1,-1,0,1
1514894731250666,-1,-2,-3,-1,-1,-1,0,-1
1514894731252157,0,-2,-2,0,-2,-1,0,0
1514894731252157,-1,1,-1,-2,-1,-1,0,-2
1514894731264666,0,-1,0,-2,-1,0,0,-1
1514894731264666,-1,-2,-1,-1,-1,-2,0,-1
1514894731271671,-2,-1,-1,0,-1,0,0,-2
1514894731271671,-1,-2,-1,0,-2,-1,-1,0
1514894731288182,-2,-1,-1,-1,-1,-1,0,-1
1514894731288182,-1,-2,0,0,-1,-2,0,-2
1514894731289684,-1,-3,0,-1,0,0,0,0
1514894731289684,-2,1,-3,-3,0,0,-1,-1
1514894731310698,-1,0,-2,-1,-1,-2,-1,-1
1514894731310698,-1,-3,0,-2,-2,-1,-1,-1
1514894731312199,-1,-3,-1,-1,0,0,-2,0
1514894731312199,0,1,-1,0,0,-1,-1,-2
1514894731324208,0,0,-1,-1,-1,-1,-1,0
1514894731324208,-2,-4,-2,-1,-1,0,-1,-1
1514894731333214,-1,-1,-1,-1,0,-2,-1,1
1514894731333214,-2,-1,-2,-2,-4,0,-1,-1
1514894731348225,0,-2,-2,-2,0,-1,-1,-2
1514894731348225,-2,0,-1,-1,0,-1,-1,-2
1514894731349726,-1,-3,0,-2,-2,-1,0,-1
1514894731349726,0,-2,-2,-1,-2,-1,0,0
1514894731371241,0,1,-3,-1,-2,-1,-3,-2
1514894731371241,0,-2,-1,-2,0,-2,-2,-1
1514894731373745,-2,-1,-2,-2,-1,0,0,-2
1514894731373745,-2,1,-1,-1,0,1,-1,-1
1514894731384260,-1,-2,-1,0,-2,-1,-1,0
1514894731384260,-2,-2,-2,-1,0,0,-4,0
1514894731400764,0,-1,-2,0,-2,-1,-2,-1
1514894731400764,-2,-1,0,-1,-1,-1,0,-2
1514894731407770,-1,0,0,-2,-1,-3,-1,-2
1514894731407770,-2,-1,0,0,0,-3,-1,-1
1514894731409770,-1,-1,-1,0,-2,-4,0,1
1514894731409770,1,1,-1,0,-1,0,1,0
1514894731430295,0,-1,-3,-2,-2,-1,-2,-2
1514894731430295,0,-3,-1,-2,-1,0,-1,-2
1514894731432297,-1,0,0,-1,0,0,-1,-2
1514894731432297,-2,0,-1,-1,0,-2,-1,-3
1514894731444307,0,1,-1,-1,0,0,-2,0
1514894731444307,-2,-3,0,0,-2,0,0,0
1514894731453323,-1,-3,-2,0,0,2,-2,-2
1514894731453323,0,0,-1,0,0,-3,-2,0
1514894731468310,0,-1,-1,-1,-2,-1,0,-2
1514894731468310,-2,-2,-1,-1,-1,-3,-1,-2
1514894731470812,-2,-1,0,-2,-1,-1,-1,-1
1514894731470812,-1,-1,0,-1,0,-1,-3,0
1514894731490327,-3,-1,-1,0,-1,-2,0,-2
1514894731490327,-1,-2,-2,-2,0,-1,2,-1
1514894731492327,0,-2,-1,0,0,-3,-3,-1
1514894731492327,0,-1,-2,-1,-1,0,-2,0
1514894731504336,-3,-2,0,-1,-2,-1,-1,1
1514894731504336,-1,-3,0,-1,-3,-1,-1,-1
1514894731521850,-1,-1,-2,0,-2,-2,0,-2
1514894731521850,1,0,-1,-3,-2,-2,-1,-2
1514894731529355,-1,-1,0,0,0,0,0,-1
1514894731529355,-1,-1,-3,-2,-1,-1,-1,-2
1514894731529855,-2,0,0,-2,-1,-2,-1,0
1514894731529855,0,0,-2,-3,-2,-1,-1,0
1514894731550871,-1,-1,-2,-2,-1,-1,-1,-1
1514894731550871,-1,-2,0,0,0,-1,-2,0
1514894731551869,0,-1,-1,0,0,-1,-1,-3
1514894731551869,-3,0,-1,-1,-1,-1,1,-2
1514894731564378,-1,0,-1,-1,-1,-2,0,-2
1514894731564378,-1,-3,0,-3,-1,0,0,-2
1514894731573386,-1,-2,-3,-1,-1,-3,-2,-2
1514894731573386,0,0,-1,-1,0,0,-1,-1
1514894731587896,2,-1,-3,-2,-1,-1,0,0
1514894731587896,-2,-2,-1,-1,-1,-1,-1,-1
1514894731589400,-2,-1,-2,-1,0,0,0,-1
1514894731589400,-1,0,-2,-2,-2,-1,1,-1
1514894731610913,0,0,-1,-2,-1,-1,0,0
1514894731610913,-1,-2,0,-1,-2,0,-1,0
1514894731612412,-2,0,0,0,-1,-2,-2,-1
1514894731612412,-1,-1,0,-1,-2,-2,0,-2
1514894731625420,-2,-3,-1,-2,-2,-1,-2,-2
1514894731625420,-2,-2,-3,-2,1,-1,-1,-1
1514894731633428,0,0,-1,-1,-1,-1,-1,-1
1514894731633428,-1,1,-1,-2,-2,-1,-1,0
1514894731648437,0,-2,-1,2,0,0,-1,-1
1514894731648437,-2,-2,0,-1,-1,-1,0,-3
1514894731649940,1,-2,-1,-2,-1,1,-1,-1
1514894731649940,-1,-1,-1,-2,-1,-2,-2,-1
1514894731670453,0,0,-3,-1,-1,-3,-1,0
1514894731670453,-1,-1,-1,-2,-2,-1,-1,-1
1514894731671955,-2,-1,-2,-2,-1,-2,1,0
1514894731671955,-2,-1,-2,-1,-1,0,-2,-1
1514894731684463,-1,-3,0,-1,-2,-2,-1,-3
1514894731684463,0,-4,-1,-2,-2,-1,-1,1
1514894731693470,-1,0,0,-1,-2,-2,-1,-2
1514894731693470,-1,0,1,-3,0,-1,0,-3
1514894731707981,-3,-1,-1,-3,-1,0,0,-1
1514894731707981,-1,-2,0,0,-2,-1,1,-2
1514894731709481,-1,-1,-1,-2,-2,-1,-2,-1
1514894731709481,0,0,-3,-1,-1,-2,-1,-2
1514894731730998,0,0,0,-1,-1,-2,-1,0
1514894731730998,0,-3,-2,-2,1,0,-1,0
1514894731732498,-2,0,-1,0,-1,0,-2,0
1514894731732498,-1,0,-3,0,-1,-2,-2,-1
1514894731744507,0,-4,-2,0,-2,-1,0,0
1514894731744507,0,-2,0,-1,-1,-1,0,-1
1514894731759015,-2,-1,-1,-1,-1,-2,-1,-1
1514894731759015,-1,-1,-1,-1,-2,-1,0,-1
1514894731775527,-1,-2,-1,-2,-1,-2,-2,-3
1514894731775527,0,-2,0,1,0,-1,0,-2
1514894731779033,-1,1,-1,-1,0,-2,-1,-1
1514894731779033,-2,0,-1,-2,-5,0,-1,-1
1514894731790538,-1,1,-1,0,2,0,-1,-1
1514894731790538,-2,-4,-1,1,-1,0,0,-2
1514894731792039,-1,1,-2,-2,-1,-2,0,-1
1514894731792039,0,0,-2,-2,0,-2,-2,0
1514894731820561,0,0,-1,-2,-3,0,0,-1
1514894731820561,-2,-1,-1,-2,0,-1,-1,0
1514894731822060,-2,1,-2,-1,-2,0,-1,-1
1514894731822060,-2,1,-1,-1,-1,-1,-1,-3
1514894731828568,-2,-3,-2,-1,-1,0,-1,0
1514894731828568,-2,-3,-2,-2,0,-1,-3,-1
1514894731830071,-1,0,0,-1,0,0,0,-2
1514894731830071,0,-1,-2,-1,0,-1,-3,-1
1514894731851580,0,-2,0,-2,-2,-1,-1,-1
1514894731851580,-2,-2,-1,-1,-1,-1,-1,0
1514894731853083,-1,-1,-1,-1,-1,-1,-3,-1
1514894731853083,-1,2,0,-2,-2,-1,0,0
1514894731873096,-1,-3,-1,-1,-1,-2,-3,0
1514894731873096,-2,-2,-2,0,-2,-1,-2,-2
1514894731874597,-2,-1,-1,-1,-1,0,0,-1
1514894731874597,0,2,-1,0,-2,-1,1,0
1514894731888109,-1,-1,-2,-2,-2,-2,0,-1
1514894731888109,-2,-2,-1,-1,-2,-2,-2,0
1514894731889609,0,0,0,-2,-1,0,0,-1
1514894731889609,-2,1,-1,-1,-2,-1,0,-2
1514894731911126,-2,-3,-1,-1,-1,-3,0,0
1514894731911126,0,-4,-1,-1,-1,0,-1,-1
1514894731912127,-1,-2,-1,-1,0,-2,-1,1
1514894731912127,-1,2,-2,0,1,-1,0,-1
1514894731933146,-1,0,-1,-2,-2,0,0,-3
1514894731933146,0,-3,1,-2,-1,-2,-1,1
1514894731934640,-1,0,0,-1,-1,-2,-2,0
1514894731934640,-2,0,0,-1,-2,-2,-1,-1
1514894731947650,-2,-2,-2,-2,0,0,-2,0
1514894731947650,-2,-1,-2,0,-1,-2,-3,-3
1514894731954156,0,-1,-2,-2,-2,-3,-3,-4
1514894731954156,-3,-1,-1,-1,0,-2,-2,5
1514894731970665,0,-4,-1,-1,-1,-1,0,0
1514894731970665,-1,-4,-1,-1,0,-2,6,4
1514894731972166,1,2,-2,0,-2,0,1,3
1514894731972166,-2,-1,1,0,-1,0,-5,-3
1514894732000686,-1,-2,-3,-2,-2,-2,-3,-1
1514894732000686,-1,-3,-2,0,-2,-1,-4,-3
1514894732004188,-3,0,-1,-1,-2,-1,3,-2
1514894732004188,1,-1,-2,0,-1,-2,0,-3
1514894732008192,-2,-2,-2,0,-1,0,-3,-1
1514894732008192,-3,-3,0,-1,-2,-1,1,0
1514894732014196,-2,0,-1,-1,-2,-1,-3,-2
1514894732014196,0,2,-1,0,0,-1,-1,-2
1514894732038212,-1,-3,-1,0,-2,0,-1,-1
1514894732038212,-1,-4,-2,-1,-1,0,-4,-1
1514894732039714,0,-1,0,-1,0,1,-1,1
1514894732039714,1,-1,-2,0,-1,-1,-1,1
1514894732053234,-1,-2,0,-1,-1,-2,0,0
1514894732053234,-1,-1,0,0,-1,0,1,-3
1514894732055735,-2,0,0,1,-2,0,-2,-3
1514894732055735,0,1,-2,-3,-2,1,0,-1
1514894732067243,-2,-2,0,0,-3,-2,-1,-4
1514894732067243,1,-2,-1,0,0,-1,-2,-2
1514894732074238,-1,0,-2,0,-1,-3,-2,-3
1514894732074238,-1,1,-2,-3,-1,-1,-1,2
1514894732090249,-2,-1,0,-2,0,-1,-2,0
1514894732090249,-1,-4,0,0,-1,-1,-2,-2
1514894732092251,-1,0,-2,-1,-1,0,-1,0
1514894732092251,0,0,-3,0,-3,-3,0,-2
1514894732113300,-2,-1,0,-1,1,-1,1,1
1514894732113300,-1,-3,-1,-1,-2,-2,-2,-1
1514894732114780,-1,-4,-2,-2,0,-2,-5,-9
1514894732114780,1,1,-1,-1,-2,-1,2,8
1514894732128279,-2,-2,-1,-1,1,-1,0,0
1514894732128279,-2,-1,0,-2,0,-3,-1,-1
1514894732134281,-1,3,2,-1,0,0,1,0
1514894732134281,1,0,0,0,0,-1,-2,-6
1514894732150302,0,-3,-1,1,-1,-1,-1,-3
1514894732150302,-1,-3,-2,-2,-2,0,-2,0
1514894732152303,0,1,-1,-2,-2,-1,-1,0
1514894732152303,-3,0,-2,-2,-1,-1,-2,-1
1514894732172818,-1,-1,-1,0,-2,-2,-2,0
1514894732172818,-2,-3,-1,0,0,1,-1,-3
1514894732179313,0,0,-2,0,-2,-1,1,0
1514894732179313,-1,1,-1,-3,-1,-2,-1,-1
1514894732187327,-1,-3,-2,-2,0,-1,-2,-2
1514894732187327,-2,-1,-1,-2,-1,-3,-1,-2
1514894732201841,-1,0,-1,0,0,1,-2,1
1514894732201841,-2,0,1,-1,-2,0,0,-1
1514894732210852,-2,-2,-2,-1,-1,-1,-1,-2
1514894732210852,-1,-3,-1,-1,0,1,-1,0
1514894732212337,1,0,-1,-2,-1,-2,0,0
1514894732212337,-2,2,-2,0,-1,-2,-2,-3
1514894732232859,-1,-3,-2,-1,-1,-1,-1,0
1514894732232859,-2,-4,-1,-1,-1,0,0,-1
1514894732234351,-2,-1,-1,0,-1,0,-1,-1
1514894732234351,-1,2,1,-2,0,0,-1,-2
1514894732247370,-1,-1,0,0,-2,0,0,-2
1514894732247370,-2,-2,-1,0,-2,0,-4,-2
1514894732254378,-1,0,-1,-1,-1,-1,-1,0
1514894732254378,0,0,-1,0,-1,-1,-1,-2
1514894732270377,0,-3,-2,-2,-1,0,0,-1
1514894732270377,0,-4,-2,-2,-1,-2,0,-1
1514894732271878,-1,-1,0,-1,0,-2,-2,-1
1514894732271878,-1,2,-2,-1,1,-2,-2,-1
1514894732292893,0,-1,0,0,0,1,-1,0
1514894732292893,-1,-3,-1,-1,-1,-1,-1,-1
1514894732294894,-2,0,-2,-1,-1,-1,-1,-1
1514894732294894,-1,1,0,-2,-2,0,1,-1
1514894732306402,-2,-3,-1,0,-1,-2,0,-2
1514894732306402,-1,-2,-1,0,0,0,1,-1
1514894732323914,-1,-2,0,-1,-3,-1,-1,1
1514894732323914,-3,0,-1,0,-1,-4,-2,-1
1514894732330419,-1,-3,-2,-2,1,1,-2,-1
1514894732330419,0,-2,-2,-1,-2,-1,0,0
1514894732331921,-1,2,-1,-1,0,-1,0,-2
1514894732331921,-1,0,-3,-1,-1,-2,0,-1
1514894732352947,-1,-2,-1,-1,-1,-1,0,-1
1514894732352947,-2,-2,-1,0,-1,0,0,-1
1514894732354436,-2,1,0,-1,-2,-1,-1,0
1514894732354436,2,-1,-1,-1,-1,-1,0,-2
1514894732366459,-1,-1,0,1,0,-1,-2,-2
1514894732366459,-1,-3,0,-2,-1,-2,0,1
1514894732375451,-1,1,-2,-3,-1,-1,-2,0
1514894732375451,0,2,-2,-1,-1,-1,-1,-1
1514894732390471,-2,-3,-2,-2,-2,-2,-4,-1
1514894732390471,-1,-2,0,-1,-1,-1,-1,-1
1514894732391972,0,0,-1,0,1,-2,-1,0
1514894732391972,-2,1,-3,-1,-1,-2,-1,0
1514894732412987,-2,-3,0,-1,-1,-3,-1,0
1514894732412987,-1,-4,-1,-1,-2,-1,-2,-2
1514894732414480,0,0,-1,-1,-1,-2,-1,-1
1514894732414480,0,0,-2,-1,-1,-1,0,-1
1514894732427032,-1,-1,-1,-2,0,0,-1,-1
1514894732427032,-1,-3,-2,1,-1,-1,-1,-1
1514894732437034,-2,0,-2,0,-1,-1,-1,-1
1514894732437034,-1,1,1,-1,-2,1,0,-1
1514894732450556,-2,-2,-1,1,-1,0,-1,-1
1514894732450556,-2,-4,-1,0,-1,0,0,-1
1514894732452057,-1,0,0,-2,-1,0,-1,-2
1514894732452057,-2,1,-1,-1,0,-1,-4,-2
1514894732473060,-1,-2,-3,-3,0,0,0,-1
1514894732473060,0,-2,1,-2,1,1,-1,-1
1514894732474575,0,-1,-1,-2,-2,-2,2,-3
1514894732474575,-1,0,-1,-2,-1,-2,0,0
1514894732495585,-1,-3,-1,0,0,0,0,-1
1514894732495585,-2,-4,-1,1,0,-1,0,-2
1514894732497077,-1,1,-3,-2,-1,-1,-3,0
1514894732497077,-1,1,-1,0,-1,-1,-1,0
1514894732511087,0,-1,-2,-2,-2,-1,-1,1
1514894732511087,-1,-2,-1,-1,0,-2,-1,0
1514894732512587,-2,-1,-1,0,-1,0,0,1
1514894732512587,1,0,-1,-2,0,-2,-1,-3
1514894732533111,-1,-2,1,-1,-1,-1,-1,0
1514894732533111,-1,-2,-1,-1,0,1,-3,-3
1514894732534612,-1,0,-2,-1,-1,-2,0,-1
1514894732534612,-1,0,-2,-2,-1,0,-1,0
1514894732546612,-1,-2,-1,0,-1,-2,0,-2
1514894732546612,-2,-3,-3,0,-2,0,-1,0
1514894732555622,-1,1,-1,1,-2,-1,-1,-2
1514894732555622,0,0,-1,-1,-3,-2,-1,-1
1514894732570638,-2,-3,-2,0,-1,-2,0,-2
1514894732570638,-1,-2,0,-1,-1,-2,-1,-1
1514894732572139,-1,1,-1,-2,-1,0,0,-1
1514894732572139,0,1,-1,-2,0,-2,-1,-1
1514894732593144,-2,-3,-1,-2,-1,-1,0,0
1514894732593144,-1,-3,-2,-3,-2,-3,-1,-1
1514894732594645,-1,-1,-1,-1,-1,-2,-1,-1
1514894732594645,-1,2,-1,-1,-1,0,-1,-2
1514894732606654,1,-2,0,-1,0,-2,-1,0
1514894732606654,-1,-1,-1,1,0,0,0,0
1514894732617161,0,1,-2,0,1,-2,0,-2
1514894732617161,-1,1,-2,-2,-2,-1,-1,0
1514894732630671,0,-3,-2,-1,-1,0,-1,0
1514894732630671,-3,-3,-3,-1,-1,1,-1,0
1514894732632172,0,0,-1,-1,0,-1,-1,1
1514894732632172,0,1,-1,-1,-3,-1,-2,0
1514894732653196,-1,-1,-2,0,-1,-1,-1,0
1514894732653196,-1,-1,0,-1,1,-1,-1,-2
1514894732654694,-1,-2,-1,-1,0,0,0,-2
1514894732654694,0,-1,-3,0,-2,0,0,-2
1514894732666699,-2,-2,-1,-1,0,-1,-2,-1
1514894732666699,-2,-1,0,-2,-1,0,0,0
1514894732683223,-1,0,0,-2,-1,-2,-2,0
1514894732683223,-1,-1,-1,-2,0,-2,-1,-1
1514894732690222,-1,-4,-2,0,0,-2,-2,-2
1514894732690222,-1,-3,-1,-1,0,-1,0,0
1514894732696727,-2,-1,-1,0,-2,2,-1,-2
1514894732696727,0,-1,-2,0,-2,-2,-1,0
1514894732712231,-1,-1,0,-2,-2,-2,-1,-1
1514894732712231,0,-2,-2,-1,0,-2,-2,-2
1514894732720735,-2,-1,-2,-1,-2,-2,-1,1
1514894732720735,-2,1,0,0,-1,-2,-1,-1
1514894732736246,-1,-2,-3,1,-2,-1,1,0
1514894732736246,-2,-2,0,-1,-2,-2,-2,-1
1514894732737747,-2,1,0,-1,-1,-2,0,-1
1514894732737747,0,-1,-3,-3,-2,-1,-1,-1
1514894732750775,-4,-3,0,-1,-3,0,1,-1
1514894732750775,0,-3,-1,-1,-2,-2,-1,-2
1514894732752269,1,-1,-1,0,-1,-1,-2,-3
1514894732752269,-1,-1,-1,-1,-1,-3,-1,-1
1514894732772786,-1,-3,-2,-1,0,-1,0,0
1514894732772786,-2,0,-2,0,-1,1,-2,-2
1514894732774776,1,1,-1,-1,-1,-2,-1,-1
1514894732774776,-1,0,-2,-1,-1,-1,-1,-2
1514894732795292,0,0,1,-2,0,0,-2,-2
1514894732795292,-2,-2,-2,1,-1,-1,-1,0
1514894732797289,-1,0,-2,-2,0,0,-2,0
1514894732797289,0,-2,0,1,0,-2,-1,-1
1514894732810799,-2,-4,-2,0,0,0,-1,-2
1514894732810799,-2,-3,0,-1,0,0,-1,-2
1514894732812300,-1,-1,-1,0,-2,-1,0,0
1514894732812300,-3,0,0,-1,-2,0,0,-2
1514894732833314,0,-2,-1,-2,-1,0,-1,-3
1514894732833314,0,-2,0,-1,-4,-1,-1,-1
1514894732834816,-1,0,-2,-2,-1,0,-1,0
1514894732834816,-1,-1,0,-2,-1,-2,0,1
1514894732855330,-2,-2,0,-2,-1,-1,-1,-2
1514894732855330,-1,-3,-3,0,-1,-1,-1,-1
1514894732857331,1,1,-1,-2,-2,-1,0,0
1514894732857331,-1,-1,-2,-1,-1,-1,-3,-2
1514894732870340,-1,-1,0,3,-1,-2,-3,-2
1514894732870340,-2,-1,0,0,1,0,-1,0
1514894732873843,-3,1,-2,-1,-1,-2,0,0
1514894732873843,-1,0,-1,-1,1,0,0,-1
1514894732892856,1,-2,0,-2,0,1,-1,-1
1514894732892856,0,-1,-2,0,-2,-1,-3,-2
1514894732894872,0,0,-1,-1,0,-1,-1,0
1514894732894872,-1,-1,-1,-1,-1,0,0,0
1514894732915384,0,-4,-1,-2,-2,0,-2,0
1514894732915384,0,-2,-1,0,-1,0,0,0
1514894732916874,0,-2,-2,-1,-1,-2,-1,-2
1514894732916874,1,-2,-3,0,-1,-1,-1,-2
1514894732930418,-2,-1,-1,1,0,-3,-1,-1
1514894732930418,-2,-3,0,-2,-1,-1,-1,0
1514894732936423,-1,1,-1,0,-2,-1,-2,-1
1514894732936423,-2,-1,-2,-2,1,-1,-2,0
1514894732960460,-2,-3,-1,-1,0,-1,-2,-1
1514894732960460,1,-2,0,-1,0,-2,-2,-1
1514894732961941,-2,0,-1,-1,-3,-2,-1,-2
1514894732961941,0,0,0,-2,-2,1,-2,-2
1514894732975450,-3,-2,0,-2,-2,0,0,-2
1514894732975450,0,-2,-2,-2,-1,-1,0,0
1514894732976953,0,-2,-2,-1,-1,-1,1,-1
1514894732976953,0,-1,-1,-1,-2,-2,-1,-1
1514894732997976,-1,-2,-2,-1,-2,-1,-2,-1
1514894732997976,0,-1,0,-1,0,-1,1,-3
1514894732999467,-1,1,0,0,0,-1,-2,-1
1514894732999467,-1,1,-2,-2,-1,-1,-2,-2
1514894733014979,0,-2,-1,0,-1,-1,-1,-1
1514894733014979,-2,0,-1,-1,-1,0,-2,-1
1514894733018981,1,-1,-2,-2,-1,-1,0,-1
1514894733018981,1,0,-1,-1,-2,-3,-1,-2
1514894733034492,-1,-2,-3,-1,0,-1,-1,2
1514894733034492,-2,0,-1,-1,-1,-2,0,1
1514894733042998,-2,-1,1,-1,0,-2,-1,0
1514894733042998,-2,-1,0,0,-1,-1,-1,1
1514894733050013,-1,-4,0,-1,-1,-1,0,-1
1514894733050013,-1,0,-1,0,-1,0,-1,-1
1514894733056507,-2,0,0,-1,-2,0,-2,-1
1514894733056507,0,-2,0,-1,-1,-1,-1,-3
1514894733073035,0,-1,-2,-4,-2,-2,-1,-1
1514894733073035,-3,0,-1,0,-1,-2,-1,2
1514894733074520,-1,0,-3,-2,-1,-1,-1,-1
1514894733074520,-2,1,-1,-3,0,-1,0,-3
1514894733095545,-1,-1,-1,-1,-2,-1,-1,-1
1514894733095545,0,-1,-1,0,0,-1,-1,-3
1514894733097047,-1,0,-1,0,-1,-1,0,-1
1514894733097047,0,-2,-1,0,1,-1,-1,-2
1514894733110045,1,-3,-1,-2,-3,-1,-2,-1
1514894733110045,-1,-1,-1,-2,-3,-1,-2,-1
1514894733117554,0,-1,-2,-1,-1,-1,-1,-1
1514894733117554,-3,-1,-2,-1,-3,-1,-1,-1
1514894733133071,-1,-2,-1,2,1,0,-2,-2
1514894733133071,-2,-2,0,-1,-1,-1,-1,-1
1514894733134572,-2,2,0,-2,0,-2,-1,-1
1514894733134572,-1,-1,-2,-2,-1,-1,-2,-1
1514894733155089,-1,-1,-2,-1,-3,0,-2,0
1514894733155089,-1,-2,-3,-1,-3,0,-1,-2
1514894733163084,-1,0,-2,-1,-2,0,0,0
1514894733163084,0,-1,-1,-1,-1,-1,-1,0
1514894733169602,-2,-3,0,-1,0,1,0,0
1514894733169602,-2,-1,1,-2,-1,0,0,-1
1514894733176602,0,0,-2,0,-1,-1,-2,-2
1514894733176602,0,-2,0,-1,-1,-1,-2,-2
1514894733193104,-1,-2,1,-1,-1,-1,-1,-3
1514894733193104,-2,0,-2,0,-2,-1,-1,-1
1514894733194605,0,0,0,-1,0,1,-1,0
1514894733194605,-2,-2,-2,0,-1,0,-1,0
1514894733216133,-2,-3,-2,-1,-1,-1,-2,-1
1514894733216133,0,-1,-1,-1,-1,-1,-1,0
1514894733219623,1,0,-1,-2,-1,-2,-2,-2
1514894733219623,-1,-3,-1,-1,-2,-1,-1,0
1514894733229187,0,-2,-1,-1,-2,-2,0,-1
1514894733229187,0,0,-3,0,0,0,-1,-1
1514894733238192,0,1,0,-2,0,-1,0,-1
1514894733238192,0,-2,-1,-2,-1,-1,0,2
1514894733260710,-2,-2,-1,-1,-2,-2,-2,0
1514894733260710,-1,0,-1,-2,-2,-2,-2,-2
1514894733262209,-1,0,-2,-1,-2,-1,-1,0
1514894733262209,-1,-2,0,-1,-1,-3,0,-2
1514894733275731,-1,-1,0,-2,1,-2,-1,-1
1514894733275731,-1,-1,2,-1,0,0,-1,-2
1514894733277220,0,0,0,-1,-2,-1,-1,0
1514894733277220,0,-2,-2,-1,-3,-1,-1,-1
1514894733289728,-1,-2,-2,1,-1,-1,-1,-2
1514894733289728,-1,0,-2,1,-2,-2,0,-1
1514894733298234,-2,1,-2,-1,-1,-1,-1,-2
1514894733298234,0,-2,0,-1,-2,0,-1,-1
1514894733313254,-1,-3,-1,-1,-3,-2,0,-2
1514894733313254,-1,0,-2,-2,-1,-1,0,-1
1514894733315756,0,1,0,0,0,0,-1,-1
1514894733315756,-2,-1,-2,-2,0,-1,-1,0
1514894733335260,0,-2,-1,-1,-1,-2,-1,-1
1514894733335260,0,-2,-1,-1,-2,-2,-2,-3
1514894733337262,-2,-2,-1,-2,-3,-2,1,0
1514894733337262,-1,-1,-2,-1,-1,-1,-1,-2
1514894733349270,-3,-3,-1,0,0,-1,1,-1
1514894733349270,-1,-1,-1,-2,0,-1,-1,1
1514894733358276,-1,-1,0,-1,-1,-1,0,-1
1514894733358276,-1,-1,0,0,-2,0,-1,-1
1514894733373287,0,-4,-2,-1,-1,-1,-2,2
1514894733373287,-1,0,-2,0,-2,0,-1,0
1514894733375789,-1,0,-2,0,0,0,-2,-1
1514894733375789,-2,-2,-2,-2,-1,-1,-2,-1
1514894733395305,-2,-2,-1,-1,-2,-3,-2,0
1514894733395305,-1,3,1,0,-1,-1,-1,-2
1514894733397304,-1,1,-2,-1,0,-2,-1,-1
1514894733397304,-2,-1,-1,-1,0,-1,1,-2
1514894733409313,0,-2,0,-2,0,1,0,-3
1514894733409313,-2,0,-1,-1,-1,-1,-1,-2
1514894733424335,-1,1,-2,-2,0,-1,0,0
1514894733424335,0,-3,-1,-1,-1,-2,0,-1
1514894733432841,-2,-2,-2,0,1,1,-2,-1
1514894733432841,-2,-1,-2,-1,0,-1,-1,-2
1514894733434345,-1,0,-2,-1,-1,-1,0,-4
1514894733434345,0,0,-2,-1,0,-1,0,-3
1514894733455354,-1,-3,0,1,-2,0,-1,0
1514894733455354,-3,-1,-1,-2,-2,-2,-1,0
1514894733457346,-1,2,0,-1,-2,-2,-2,0
1514894733457346,-1,-1,-2,-2,0,-1,-1,0
1514894733469356,-1,-2,-2,-1,-2,-1,-1,-1
1514894733469356,-2,-1,-2,0,-2,0,1,-1
1514894733478362,-2,-2,-1,-2,-1,-1,-1,-1
1514894733478362,-1,-3,-1,-2,-2,-1,-1,-1
1514894733493383,-3,-2,-1,-1,-1,-1,0,-2
1514894733493383,1,0,-1,-4,-1,-1,2,1
1514894733494873,0,-1,-1,-1,1,-1,0,1
1514894733494873,0,-3,-2,0,-1,-3,-1,-3
1514894733515388,-1,-4,-2,-1,-1,-1,-1,-1
1514894733515388,0,-1,-2,1,-1,-2,-1,1
1514894733517890,-2,0,-2,-2,-1,-3,-1,-1
1514894733517890,-2,-1,-2,-3,-1,-1,-3,-1
1514894733528897,-1,-3,-1,-2,0,-2,-2,-2
1514894733528897,0,1,0,0,0,0,-2,2
1514894733538413,0,1,-2,-1,-3,0,1,0
1514894733538413,-1,-1,-1,-1,-1,-1,0,-2
1514894733552926,-2,-2,-1,-1,-3,-1,1,0
1514894733552926,0,0,0,-1,0,-2,-2,-2
1514894733554420,1,1,-1,2,0,0,1,-1
1514894733554420,-1,-2,-1,-2,-1,-1,0,-1
1514894733575442,0,-2,-1,-2,0,-1,0,-1
1514894733575442,-2,-1,-2,-3,-1,0,1,-1
1514894733576934,-1,2,-1,-3,0,-2,-1,-1
1514894733576934,-1,-4,0,-1,-1,1,0,-2
1514894733589950,0,-5,-1,-2,-1,-1,-3,-1
1514894733589950,-2,1,-1,0,-2,-2,-1,1
1514894733599457,0,2,-3,0,-2,-1,0,-1
1514894733599457,-1,0,-2,-1,-1,0,-1,0
1514894733612966,-2,-2,-1,0,-2,-1,-1,-1
1514894733612966,-1,-1,-1,1,-2,-3,-3,0
1514894733614467,-1,1,-2,-2,-1,-1,-2,-1
1514894733614467,-1,-4,-1,0,0,-1,0,-1
1514894733635472,-1,-3,-1,-2,1,0,0,-1
1514894733635472,-1,0,-2,-2,0,-3,0,-2
1514894733636974,-1,0,-2,-4,-1,-2,-1,-1
1514894733636974,0,-3,-2,-1,-2,0,-1,-2
1514894733648982,-3,-1,0,-1,1,-1,-2,-2
1514894733648982,-2,2,-1,-2,0,-1,0,1
1514894733659004,0,1,-2,-1,-1,-1,-1,0
1514894733659004,-1,-2,-1,-1,0,-1,-1,0
1514894733673008,0,-4,-1,-1,-1,-2,-4,-2
1514894733673008,-2,0,0,-1,-2,0,-1,-2
1514894733674509,-1,0,-1,-1,-2,-2,-2,0
1514894733674509,0,-1,-1,-1,-1,-1,0,-1
1514894733710526,-1,-2,-1,-1,-2,0,-1,0
1514894733710526,-1,-2,-3,-3,-1,-1,-1,-3
1514894733712026,-1,1,-2,-2,0,1,-1,-2
1514894733712026,0,-3,0,-2,-1,-1,-4,0
1514894733718039,-2,-3,-1,-1,0,-2,-1,1
1514894733718039,-1,-1,-2,0,-2,-1,-1,0
1514894733719541,-1,1,-2,-1,-1,0,-1,-2
1514894733719541,1,-1,-1,0,-1,-2,-1,-1
1514894733733051,-1,-3,-1,0,-1,-1,0,0
1514894733733051,-2,1,-1,-2,-1,0,-1,1
1514894733734542,-1,2,-1,-1,-2,0,0,-1
1514894733734542,-1,-1,0,-1,0,-1,0,-1
1514894733756072,-1,-4,-1,0,-4,-1,-1,-1
1514894733756072,-1,0,-1,0,-1,-2,-2,-3
1514894733757562,-1,1,-1,-2,0,-2,-2,-1
1514894733757562,-1,0,-1,-2,-1,-1,-1,0
1514894733778073,-1,-3,-1,-1,0,1,0,0
1514894733778073,-1,-1,-1,-2,-1,-2,1,1
1514894733779574,0,1,-1,-2,0,-2,-1,-2
1514894733779574,-3,-2,-1,0,-1,-2,-3,-4
1514894733793585,-2,-2,-1,-1,-2,-1,-1,1
1514894733793585,-1,-1,-1,-2,-1,0,-1,0
1514894733795605,0,1,0,-1,-1,-1,1,-1
1514894733795605,-2,-4,-3,0,-2,-2,-1,-2
1514894733816600,-2,-3,0,-2,0,0,-2,-3
1514894733816600,-1,1,0,-1,-1,-2,-1,0
1514894733820103,0,0,0,-2,-2,-1,-2,0
1514894733820103,-2,-3,-2,-1,1,-1,-3,0
1514894733838115,-2,-1,-1,-1,-2,-2,1,-1
1514894733838115,-1,0,1,0,-1,0,-2,-3
1514894733839616,-2,1,-1,-1,-2,-1,-2,0
1514894733839616,-1,-1,0,-1,-3,-1,-1,-1
1514894733852134,-1,-3,-1,-1,-1,-2,-2,-1
1514894733852134,-1,0,-2,0,-1,-1,-2,0
1514894733859130,-1,0,-1,-1,-2,-2,-1,-2
1514894733859130,-1,-4,-1,-1,-2,-1,-1,0
1514894733875641,-2,-5,-1,-1,1,-2,-3,-2
1514894733875641,1,0,-2,-1,-1,0,-1,0
1514894733878149,-1,0,-1,-2,-1,-2,-1,-3
1514894733878149,-1,-1,-1,-1,0,1,0,0
1514894733898158,-1,-4,-2,0,0,-1,0,-3
1514894733898158,0,0,-2,-2,-1,0,-1,0
1514894733899659,-2,0,-2,-2,-1,-2,0,1
1514894733899659,-2,-2,0,-3,1,-1,-1,-1
1514894733913180,-1,-3,-2,0,-3,-1,-1,-1
1514894733913180,-1,1,-1,-2,-1,0,0,-1
1514894733919673,1,1,-2,-2,-2,-1,-1,0
1514894733919673,-1,-2,-2,-1,-2,-1,0,0
1514894733943189,-2,-3,-1,-1,-1,-1,-1,-1
1514894733943189,-1,1,-1,0,-2,-1,-1,-1
1514894733945212,-1,0,0,-1,0,-1,0,-1
1514894733945212,-1,0,-1,-1,-2,0,-2,-1
1514894733965210,0,-3,0,0,-1,1,0,-1
1514894733965210,-1,-1,-2,0,1,-2,0,-3
1514894733967206,0,1,-1,-2,-1,0,-1,-1
1514894733967206,-1,-3,0,1,-2,-2,-1,0
1514894733972210,-3,-1,0,0,-1,-2,-2,-1
1514894733972210,0,1,1,0,-2,-3,0,1
1514894733979215,-1,3,-2,-2,-2,-1,-2,-1
1514894733979215,-2,-2,-1,-1,-1,0,0,0
1514894733996227,-1,-1,-1,1,-1,0,0,-4
1514894733996227,0,1,-2,-2,-1,-1,-1,-1
1514894733998229,-1,0,-1,-3,-1,-1,-1,-1
1514894733998229,1,-2,0,-2,-1,-1,-2,-1
1514894734017747,-2,-4,0,0,-1,-2,-2,0
1514894734017747,-2,0,-1,-1,0,-2,-2,-1
1514894734019744,-1,-1,-1,0,1,-3,0,-1
1514894734019744,-2,-4,-2,-2,1,-2,-1,-1
1514894734032252,-1,-5,1,-2,-1,0,-1,-1
1514894734032252,-1,0,-1,-2,0,0,0,-1
1514894734039257,-1,1,-1,1,-3,-1,0,1
1514894734039257,0,-3,-1,-2,-1,-1,-2,-2
1514894734055777,-1,-3,0,1,-1,1,0,-2
1514894734055777,0,0,0,-1,-2,-1,1,2
1514894734057785,-1,0,-4,-1,0,0,0,-2
1514894734057785,-1,-2,0,-1,-2,-1,0,-1
1514894734077786,1,-2,-1,-2,-1,0,-1,1
1514894734077786,-2,-1,0,0,-2,-2,-3,-3
1514894734079786,0,1,-1,-2,0,1,-1,-2
1514894734079786,-1,-3,-1,0,0,-2,-1,1
1514894734092295,-1,-2,-1,-1,1,-1,-3,0
1514894734092295,-1,1,-2,0,-2,0,-2,-2
1514894734099299,0,-1,0,-1,-1,0,-1,-1
1514894734099299,0,-3,-2,-1,-1,0,-1,-1
1514894734122829,-1,-4,-1,-3,-2,-2,-1,-1
1514894734122829,-2,0,-3,-1,0,0,-1,0
1514894734125834,0,1,-3,-1,-2,-1,-1,-3
1514894734125834,0,-2,-1,0,-3,0,0,-1
1514894734137827,-1,-2,-2,0,-1,0,-1,0
1514894734137827,-1,1,-1,-2,-2,-3,-1,-3
1514894734139828,-2,0,-1,-2,-1,0,-2,0
1514894734139828,-2,-4,-1,-2,0,-1,-3,-3
1514894734152349,-1,-4,-2,0,-1,-1,-1,-1
1514894734152349,0,-1,0,-1,0,1,-1,-2
1514894734159343,-2,1,0,-1,-1,-3,-2,-7
1514894734159343,0,-1,1,-1,-1,1,3,7
1514894734175875,0,-1,0,-2,-2,-2,-8,-3
1514894734175875,1,1,-3,-1,0,-1,3,1
1514894734177858,0,0,-2,0,-2,-1,-8,-9
1514894734177858,-2,-2,-2,-1,1,-1,-1,0
1514894734197879,-3,-4,-2,-1,-2,-2,-1,-3
1514894734197879,0,0,-1,0,-1,-1,1,2
1514894734199380,-1,-1,-1,-2,-1,-1,1,7
1514894734199380,-2,-2,-1,0,-1,-2,-1,-6
1514894734212380,0,-1,1,1,1,-1,2,3
1514894734212380,-2,1,-1,-3,-1,-2,-4,-4
1514894734220393,-1,1,-1,-3,-1,0,2,-1
1514894734220393,-1,-1,0,0,-3,0,-3,-3
1514894734235896,-1,-2,-1,-1,-1,-1,0,0
1514894734235896,-2,0,-2,-1,-2,-3,-3,-3
1514894734237397,0,1,-1,-2,-2,0,0,-1
1514894734237397,-1,-2,-1,0,-2,-1,-1,-1
1514894734257933,-2,-1,-2,0,0,-1,-1,-4
1514894734257933,1,-1,-2,-1,0,-2,-3,0
1514894734260414,0,-1,-2,-2,0,-3,0,2
1514894734260414,1,-4,-2,0,-1,-1,-2,-2
1514894734271421,-1,-3,-1,0,-1,0,2,0
1514894734271421,-2,0,-2,-2,-3,0,0,0
1514894734280454,-2,0,0,0,-1,-2,0,1
1514894734280454,-2,-3,0,-1,-2,-1,-2,-1
1514894734295439,-1,-4,0,0,0,-1,0,0
1514894734295439,-2,0,-2,-1,-1,-2,-2,-1
1514894734297950,0,0,0,-3,-1,-3,-3,-3
1514894734297950,0,-2,-2,-1,-1,-1,-1,1
1514894734317964,-2,-1,0,0,-2,-1,-1,0
1514894734317964,-2,-1,-2,-2,0,0,-1,-1
1514894734319456,0,-1,0,0,-3,0,1,-1
1514894734319456,-2,-3,-1,-2,-1,-2,-2,-1
1514894734331464,0,-1,-2,0,1,0,-3,-2
1514894734331464,0,0,-1,-1,0,0,-1,-1
1514894734340471,2,0,-1,-1,0,-1,0,3
1514894734340471,-1,-1,-1,-1,-1,-3,-1,0
1514894734362986,-1,-1,0,-2,0,1,-1,-2
1514894734362986,-2,-1,-1,-2,0,-2,1,-3
1514894734364501,0,-2,-2,-1,0,0,-1,-2
1514894734364501,-2,-2,-1,-2,-1,0,-1,-2
1514894734378500,-2,-1,0,-1,-2,-1,-2,0
1514894734378500,-1,1,0,0,-2,1,-1,-1
1514894734379508,-2,-2,-2,-1,0,-1,1,0
1514894734379508,-1,-2,0,-1,-2,0,-1,0
1514894734392007,-2,-1,-2,0,0,-1,-1,-1
1514894734392007,0,0,-1,-3,-1,0,-1,-4
1514894734400526,-3,0,-2,-1,-1,-2,-2,-3
1514894734400526,-1,-3,0,0,0,0,-1,-1
1514894734415533,-1,0,-1,-1,-2,-2,0,-1
1514894734415533,0,0,1,-1,-1,0,-3,-1
1514894734417035,0,0,-2,-2,-1,-1,-2,-1
1514894734417035,0,-3,-3,-1,2,-1,0,-2
1514894734438539,1,-2,-1,-2,-1,0,-1,-1
1514894734438539,-1,0,-1,0,-1,-1,0,-1
1514894734440040,-1,-2,-3,-2,-1,-3,0,-1
1514894734440040,-1,-2,0,-1,-2,0,-2,-1
1514894734451548,-1,-2,-2,-3,-1,-2,-1,0
1514894734451548,-1,-2,-2,-2,-1,-1,-1,0
1514894734460565,0,0,-3,0,-2,0,1,-2
1514894734460565,-1,-2,-1,0,0,0,0,1
1514894734475075,-2,-3,0,-1,0,-2,-2,-1
1514894734475075,-1,-1,-1,0,0,-4,-2,0
1514894734481588,-1,-2,-1,-2,-1,-2,-3,0
1514894734481588,-1,-3,-2,-2,0,0,-1,-2
1514894734498082,-1,0,-1,-1,-1,0,2,1
1514894734498082,-2,1,0,0,-2,-3,-2,1
1514894734499583,0,0,-2,0,-2,-1,-2,-2
1514894734499583,-2,0,-3,-2,1,-2,-2,-1
1514894734511594,-2,-2,-1,0,0,0,-1,-1
1514894734511594,2,1,-1,-2,-1,-1,0,0
1514894734520597,-1,-2,1,-2,-2,-1,0,-1
1514894734520597,-1,-4,1,-3,0,-2,-1,-4
1514894734535120,-1,-1,0,1,-1,-2,-1,-1
1514894734535120,0,2,-2,0,0,-1,-1,0
1514894734537121,0,0,-3,-2,-2,-2,-1,1
1514894734537121,0,-2,-1,0,-2,-1,-1,0
1514894734558124,-2,-1,-1,-1,-2,-1,-1,-1
1514894734558124,-1,-1,1,-1,-1,0,-2,0
1514894734560627,-1,-2,0,-2,-1,-3,-1,-1
1514894734560627,-1,-3,-2,-1,0,-3,-1,-3
1514894734581641,-1,-1,-1,1,-2,-1,-1,2
1514894734581641,-1,1,-2,-3,-2,-2,0,-1
1514894734583642,-2,0,1,0,0,0,-1,-1
1514894734583642,-1,-2,1,-1,-1,-2,-2,-2
1514894734595652,-2,-2,-3,-1,-1,-1,-1,-3
1514894734595652,-2,2,-1,0,-2,-2,0,-2
1514894734597152,-1,-1,0,-2,-2,-1,-1,0
1514894734597152,-1,-1,-2,-1,-1,-2,-1,0
1514894734617666,0,-3,0,-1,-1,0,0,-2
1514894734617666,-1,0,-2,-2,-1,0,-1,-1
1514894734619667,-1,-1,-2,-2,0,0,-2,-2
1514894734619667,-3,-2,0,0,-2,1,-1,-3
1514894734640191,-1,-1,1,-1,-1,-1,-1,-3
1514894734640191,1,-1,-2,-1,-1,0,0,-1
1514894734642193,-1,-3,-2,-1,-2,-2,-1,-2
1514894734642193,-2,-2,-1,0,0,-1,1,1
1514894734655693,0,-1,-1,-2,-1,1,-1,0
1514894734655693,0,1,-2,0,-1,0,0,-1
1514894734658195,-1,-1,-2,0,1,-1,-1,-1
1514894734658195,-2,-3,-1,-1,-1,-1,-1,-4
1514894734678210,-2,1,-1,-1,0,-3,-2,1
1514894734678210,-1,0,-1,-1,-1,0,-1,-3
1514894734681721,1,-1,-1,-1,-4,-2,0,2
1514894734681721,-2,-3,-1,-1,-3,1,0,-1
1514894734700224,-1,-2,-1,-1,0,0,-2,0
1514894734700224,0,-1,0,0,-2,-1,-1,0
1514894734702237,-3,-2,-1,0,0,-1,-1,-1
1514894734702237,-2,-4,-1,-2,-2,0,0,0
1514894734715238,-2,1,-2,0,-2,0,-1,-1
1514894734715238,-1,-1,-2,-1,0,-3,-1,-1
1514894734717239,-2,-2,-1,-2,0,-1,-1,-1
1514894734717239,0,-1,-1,-1,-2,-1,-2,-2
1514894734737806,0,0,0,1,0,0,-1,-1
1514894734737806,-1,1,-1,0,-1,-1,-2,-1
1514894734739254,-1,-1,0,-2,0,-1,-1,-1
1514894734739254,-2,-4,-1,-1,-2,-1,-3,-1
1514894734760767,-1,0,0,1,0,0,0,-2
1514894734760767,-1,-1,0,-1,0,-1,0,0
1514894734762268,0,-2,-3,-2,-1,-2,-1,-1
1514894734762268,-1,0,-1,-1,0,0,-1,-3
1514894734774808,0,-1,-3,-2,-2,-2,-2,2
1514894734774808,-1,1,0,-2,-1,0,-2,-1
1514894734781310,0,-1,1,-1,-2,0,-1,-2
1514894734781310,-1,-3,0,-1,0,0,0,0
1514894734797795,-1,-3,0,-1,-1,-2,-2,-3
1514894734797795,-2,0,-2,-3,0,-3,0,1
1514894734799295,0,-3,-1,-1,-1,-1,-1,-2
1514894734799295,-1,-1,-2,0,-1,0,-1,-2
1514894734820310,-2,0,0,-2,-1,-2,-1,-1
1514894734820310,-1,0,-2,1,-2,-1,-1,-1
1514894734822311,-1,0,-1,-1,0,0,0,-1
1514894734822311,-1,-1,-1,-1,-1,-2,0,1
1514894734834820,-1,1,-1,-1,-1,-1,-1,-2
1514894734834820,-2,0,-1,-3,-2,-1,-1,-2
1514894734841323,0,-4,-1,1,-2,-1,-3,-1
1514894734841323,-2,-3,-1,-1,0,-3,0,-1
1514894734857839,-2,-1,-1,-2,-1,-1,0,0
1514894734857839,0,0,0,-2,-1,-1,0,0
1514894734860337,0,-2,-2,-2,-2,-2,-1,0
1514894734860337,-1,-1,-1,-2,-1,0,-3,0
1514894734880352,-2,0,-1,0,-1,-4,-2,0
1514894734880352,-2,0,-1,-1,-1,-2,-1,0
1514894734883366,-2,-1,0,-2,-1,-1,-2,-2
1514894734883366,-2,-3,0,1,-1,0,-1,0
1514894734895377,-1,1,-1,-1,-1,-1,-2,-3
1514894734895377,-1,-1,0,0,-1,-1,0,-1
1514894734901381,-2,-2,-1,-2,-1,-1,-2,-2
1514894734901381,-1,-2,-1,-2,-1,0,-1,0
1514894734917888,-1,0,-2,0,-1,-1,-1,0
1514894734917888,0,1,-4,-1,0,0,-2,-1
1514894734919379,-1,-2,-1,-1,-1,0,0,0
1514894734919379,0,-3,-2,-3,0,-1,-1,-1
1514894734940904,-2,0,-1,0,-2,0,-2,-1
1514894734940904,0,0,-1,1,-1,-2,-2,-1
1514894734942405,0,-1,-1,-1,-1,-1,-1,0
1514894734942405,-2,-3,-2,-2,-1,1,0,-2
1514894734955414,1,0,-1,-1,-1,-1,0,0
1514894734955414,0,1,-2,-1,-2,0,-1,-2
1514894734961910,1,-3,-1,-1,-1,-1,1,0
1514894734961910,-2,-4,0,1,0,-2,-1,-1
1514894734978423,-1,-1,-2,-2,0,-2,0,0
1514894734978423,-3,1,-2,-2,-2,-1,-2,-1
1514894734981432,-2,-3,-3,-2,-1,-1,-2,0
1514894734981432,-1,-4,-1,-3,-2,-1,-2,-2
1514894735000946,-1,-2,-1,-1,0,-1,-1,-3
1514894735000946,1,1,1,-2,-2,0,1,3
1514894735002438,-1,0,-1,-3,0,-1,-1,-1
1514894735002438,1,-3,-1,-1,-2,-1,-2,-1
1514894735015960,-2,1,-1,0,1,0,0,1
1514894735015960,1,2,-1,-1,0,-2,-1,-2
1514894735021470,-1,-2,-1,-1,-1,1,1,-1
1514894735021470,-1,-1,-3,0,-1,-2,-1,-1
1514894735037963,-2,1,-2,0,-2,-1,-1,-1
1514894735037963,0,-1,-1,0,-1,-1,-1,1
1514894735039464,0,-2,0,-1,0,0,0,0
1514894735039464,-2,-3,1,-2,-1,-1,-1,-2
1514894735060479,-1,0,-1,-2,-2,0,0,-1
1514894735060479,0,-1,-1,-2,0,-2,-1,-2
1514894735062983,-1,-3,-2,-2,0,-2,-2,-2
1514894735062983,0,-3,-1,0,-2,-1,-2,0
1514894735074993,-1,0,0,-1,0,-3,-4,-1
1514894735074993,-2,0,-1,-1,-2,-1,0,-1
1514894735088999,0,-2,-2,-2,-1,-1,-1,-2
1514894735088999,-2,-3,-1,-2,-1,0,0,-1
1514894735098018,-1,-1,-1,-2,-1,0,1,0
1514894735098018,0,0,-2,-2,-1,0,-1,-3
1514894735099519,0,-1,-1,0,0,0,-1,-2
1514894735099519,-2,-2,-1,0,0,-1,-1,-1
1514894735120531,-1,2,-1,-1,-2,-1,-2,0
1514894735120531,-1,1,-2,-1,-1,-3,-2,-1
1514894735122032,-1,-2,-1,0,-1,-2,-1,0
1514894735122032,0,-2,-1,-2,-1,0,-1,-2
1514894735134041,0,1,-1,-1,-1,0,0,-3
1514894735134041,-1,0,-1,-3,-1,-2,-1,-2
1514894735143047,-1,-1,-1,-2,-2,-1,-1,1
1514894735143047,-2,-3,0,1,-1,0,0,-1
1514894735158048,0,1,1,0,0,-2,0,-1
1514894735158048,1,0,-1,-1,-1,0,-2,-1
1514894735159549,-3,-2,-2,-1,0,-3,-1,-2
1514894735159549,-1,-2,-1,-3,0,-1,0,-1
1514894735180576,-2,-2,-1,-2,-1,-1,-2,-2
1514894735180576,-2,2,0,-1,-2,-1,-2,1
1514894735182065,-4,-2,0,-1,0,-2,-1,-2
1514894735182065,0,-2,-2,1,0,-1,-2,0
1514894735194078,-1,-1,-1,-1,-2,-3,-1,-1
1514894735194078,1,2,-2,-3,-1,-2,0,-2
1514894735203081,-1,-2,-1,-2,-1,0,-1,-1
1514894735203081,-1,-4,0,-1,-1,0,-3,-3
1514894735218108,-2,0,-2,-1,-2,-4,-4,-1
1514894735218108,-1,1,-1,-1,-1,0,0,-1
1514894735219592,0,-1,-3,-2,-3,0,-2,0
1514894735219592,-1,-4,0,-2,-1,-2,0,1
1514894735239615,0,0,-1,-1,0,0,0,0
1514894735239615,-1,2,-2,0,-2,-3,-1,-3
1514894735240616,-1,-3,1,-2,1,-2,-1,0
1514894735240616,-1,-3,0,-1,-2,-1,0,-1
1514894735262123,-1,-1,-1,-2,-1,0,-1,1
1514894735262123,-1,2,-1,-1,0,-2,0,-1
1514894735263123,1,-2,0,-1,-2,-1,-1,-1
1514894735263123,-1,-2,-2,-1,0,-1,-2,1
1514894735285138,0,0,-1,-2,-1,-1,0,-2
1514894735285138,0,1,-1,-1,-1,-1,-1,1
1514894735286141,-1,-2,0,-2,-1,-2,-2,-2
1514894735286141,-2,-3,-1,-1,-1,-2,-1,-1
1514894735299658,-2,0,-3,-1,-1,-2,-2,-1
1514894735299658,-1,1,-1,-1,-1,0,-1,0
1514894735300659,0,-3,-2,0,0,0,-2,-1
1514894735300659,-1,-2,-2,0,-1,-1,-1,-1
1514894735323678,-2,-1,-1,0,0,-1,-1,0
1514894735323678,-1,0,-2,0,-1,-2,-3,-1
1514894735325166,0,-3,-1,0,-2,-2,-2,-1
1514894735325166,-2,-3,-2,0,-3,-1,-2,-1
1514894735337174,1,-1,-1,1,-1,-1,-1,-1
1514894735337174,-2,1,-2,-2,0,-1,1,0
1514894735338175,0,-2,1,-1,-1,-2,-1,-1
1514894735338175,-1,-3,-2,-2,-1,-1,-3,-2
1514894735367696,-3,0,-3,-2,0,-1,1,-2
1514894735367696,0,0,-3,-2,-5,-2,-1,0
1514894735369707,-2,-2,-2,-2,-1,0,-1,-2
