timestamp,emg1,emg2,emg3,emg4,emg5,emg6,emg7,emg8
1513489330560474,1,-1,-1,-1,-4,-2,1,-2
1513489330560474,-2,-3,-1,-1,-2,1,1,0
1513489330561475,-1,-1,-2,-1,-1,-1,-3,2
1513489330561475,-1,-2,0,-1,0,-3,-3,-2
1513489330582491,0,0,-1,-1,-2,-1,-1,-1
1513489330582491,-4,-1,-2,0,0,-1,-2,-3
1513489330584508,1,0,-2,-2,-2,-3,-1,0
1513489330584508,-1,0,-2,0,-1,-3,0,4
1513489330597500,2,0,0,1,0,-1,-2,-2
1513489330597500,-5,-3,-1,-1,-2,1,0,-2
1513489330599501,1,-4,-2,-1,0,0,-1,-1
1513489330599501,-1,0,0,-2,-1,-1,0,1
1513489330620526,4,0,0,-2,-1,0,-1,0
1513489330620526,-7,-2,-3,0,-1,-1,1,-2
1513489330621517,3,-1,-2,0,-1,-1,-3,-3
1513489330621517,1,1,1,0,-1,-4,-2,-1
1513489330642547,-5,-2,0,-1,-1,0,-1,-1
1513489330642547,3,-2,-2,-1,-1,-2,-2,1
1513489330644537,-3,-4,-2,-1,-2,-1,-1,-1
1513489330644537,1,1,-1,0,-1,-3,-1,0
1513489330657559,1,-3,2,-1,-2,-5,0,1
1513489330657559,-1,0,0,0,-2,0,-2,-2
1513489330663559,-2,-1,0,0,-2,-1,-1,2
1513489330663559,0,-2,-2,-1,-2,-2,0,0
1513489330680559,1,-2,-1,-1,1,1,2,-2
1513489330680559,-2,-1,-2,-1,0,3,2,-5
1513489330681560,2,0,0,-1,-1,-4,-1,-1
1513489330681560,-3,-1,0,-1,0,-1,-1,1
1513489330702586,-3,0,-1,0,-2,0,0,1
1513489330702586,-2,-2,-1,0,0,-1,-4,-4
1513489330704588,0,2,-3,-2,-1,0,-2,0
1513489330704588,-2,-1,1,-1,-3,-3,-3,-2
1513489330716588,-5,-2,0,-2,-1,-4,-2,-2
1513489330716588,0,-4,-3,-3,0,1,1,-1
1513489330723601,-4,0,-1,-1,0,-3,-1,-3
1513489330723601,2,-2,-2,-1,-1,0,-3,1
1513489330740614,-3,0,-1,0,0,-1,-2,-3
1513489330740614,2,0,-3,-3,-1,2,1,-1
1513489330741603,1,-2,-1,-2,-2,-2,0,2
1513489330741603,-2,-2,2,-1,-2,-4,-1,0
1513489330762634,2,-2,0,-2,0,1,-2,-5
1513489330762634,-3,0,-1,-1,-1,1,0,-3
1513489330764636,-2,0,-4,-2,-1,0,2,1
1513489330764636,-4,1,1,1,-1,-3,-2,0
1513489330776639,1,1,-1,-2,-1,-1,-1,-3
1513489330776639,-2,0,-3,-1,-1,-1,-1,0
1513489330783651,-2,-1,-2,-1,2,-1,-1,-2
1513489330783651,-1,-4,-1,0,-1,0,-4,-2
1513489330799656,-3,0,0,-1,-3,-2,1,-2
1513489330799656,1,-2,-2,0,-1,0,2,-2
1513489330801646,-6,-2,-3,0,-2,-3,-1,0
1513489330801646,1,-1,-1,-1,-1,-2,-2,3
1513489330822689,0,-2,0,1,1,2,-1,-1
1513489330822689,-1,0,-1,-1,-2,1,-2,-3
1513489330824691,2,0,-1,0,0,0,-2,-1
1513489330824691,-3,0,-1,-1,-1,-4,0,1
1513489330836732,-1,0,-2,-1,-2,1,-1,0
1513489330836732,-2,-1,-1,-1,-2,-2,0,0
1513489330843705,-2,-5,-3,-3,-1,1,-3,-2
1513489330843705,-3,0,0,-2,0,-3,-1,-2
1513489330860688,-1,-2,1,0,-1,-3,0,-1
1513489330860688,-5,-1,-3,-3,-1,0,1,-5
1513489330861689,2,-1,-2,-1,-2,-1,-2,0
1513489330861689,-2,0,-1,-1,-2,-1,-1,0
1513489330882701,2,-2,0,-1,-1,0,-1,-3
1513489330882701,-4,-1,-1,0,1,0,-1,-2
1513489330883705,-3,0,-1,-1,-1,-4,0,-1
1513489330883705,4,0,0,-2,-1,-3,0,-1
1513489330897731,-6,-1,0,-1,-2,-1,-3,-2
1513489330897731,5,-2,-2,-2,-1,-1,-2,2
1513489330903735,-2,-3,-2,0,-1,-3,0,0
1513489330903735,-1,-2,0,-2,-2,-2,1,-2
1513489330919788,2,0,-1,-1,-2,2,1,-3
1513489330919788,-2,-2,-3,0,-2,2,-1,0
1513489330921741,3,0,-1,-2,-1,-2,-2,2
1513489330921741,0,-1,-2,1,0,-3,-3,1
1513489330942799,-2,1,0,-1,0,0,-2,1
1513489330942799,-5,-5,-1,0,-2,-2,0,-2
1513489330943745,-1,-1,-1,-2,0,-1,0,-4
1513489330943745,-2,2,1,-1,-3,-2,-3,1
1513489330956766,-3,0,1,-2,-1,0,-2,1
1513489330956766,-3,-1,-2,-1,-1,-1,1,0
1513489330963788,1,-3,-2,-1,-2,0,-1,-1
1513489330963788,-3,-1,0,-2,-1,-2,-2,0
1513489330979800,-2,-1,-1,0,-1,0,1,-1
1513489330979800,3,1,-1,-3,1,1,-2,-1
1513489330981801,-8,-2,-2,-2,-2,-3,-1,0
1513489330981801,0,-3,-2,0,-2,-1,-1,1
1513489331002807,0,0,-1,-1,-1,-1,0,-2
1513489331002807,-1,-1,-2,0,-1,1,-3,0
1513489331003807,2,-1,-2,0,-3,-1,0,0
1513489331003807,0,0,-1,1,-1,-2,-2,-2
1513489331015815,-1,-1,0,-1,0,0,-2,1
1513489331015815,-1,-4,-3,-1,1,-1,0,-1
1513489331025813,-1,0,-2,-2,0,0,-4,0
1513489331025813,1,-1,0,-2,-3,-2,-2,-1
1513489331039839,-5,-1,-2,-1,-3,-1,-2,1
1513489331039839,4,-2,-2,-1,-1,-1,0,-2
1513489331041818,0,-2,0,-1,-1,-1,-3,-1
1513489331041818,1,1,2,-1,-1,-2,-2,-1
1513489331062842,-1,-2,-2,-1,0,-3,1,-4
1513489331062842,-4,-1,-3,-2,-2,-1,-4,-1
1513489331063831,0,0,-1,-1,0,-1,-2,0
1513489331063831,0,-1,1,0,-1,-1,1,2
1513489331075848,-3,0,2,-2,-1,-1,0,2
1513489331075848,-2,-3,-2,0,-1,0,0,-3
1513489331084865,0,0,-2,0,0,-2,1,0
1513489331084865,-8,-2,0,0,0,-1,0,1
1513489331099864,-2,0,-1,2,0,1,-1,-3
1513489331099864,1,0,-3,0,-1,-1,0,-2
1513489331101886,-5,-1,-1,-2,-1,-2,-2,-2
1513489331101886,2,-1,-1,-1,-2,-4,-1,-3
1513489331122889,-2,-2,-2,-1,-1,0,0,0
1513489331122889,0,-2,-1,-2,-1,2,-2,-1
1513489331123872,0,0,-2,-2,-3,0,-1,-1
1513489331123872,0,-1,-1,-2,1,-3,-1,-3
1513489331135887,2,-1,0,-1,-1,0,-1,-3
1513489331135887,-3,-1,-3,0,-1,-2,-1,-2
1513489331145889,-2,-1,-2,-1,-1,-1,1,-1
1513489331145889,-1,1,-1,0,-2,1,-1,-1
1513489331159927,-1,0,0,-1,0,-2,-5,-2
1513489331159927,-4,-5,-2,0,-1,0,0,-1
1513489331161906,2,-1,-1,1,-2,-1,-2,3
1513489331161906,-2,-1,-2,0,-1,-5,-1,-1
1513489331182918,0,-1,-1,-3,0,-1,2,-3
1513489331182918,2,2,1,-1,0,1,0,0
1513489331183919,-2,-3,-3,-1,0,-4,-3,-2
1513489331183919,1,1,-1,0,-2,-1,0,-3
1513489331195928,-7,-2,1,-1,-2,-2,3,-2
1513489331195928,1,0,-1,-2,-1,-1,0,-3
1513489331204931,-2,-1,-1,-1,-1,-1,-2,0
1513489331204931,-3,0,2,-1,0,-1,0,-1
1513489331220940,2,-1,-1,-2,-1,-2,0,-1
1513489331220940,-4,-4,-2,-1,-1,-1,-1,-4
1513489331221954,-1,-3,-1,0,-2,-2,-3,-2
1513489331221954,2,0,-1,1,-2,-3,-2,2
1513489331241966,3,-1,-1,-1,-2,-2,-1,-3
1513489331241966,1,-1,-2,-2,-1,1,0,2
1513489331242958,0,-2,-2,-2,-1,-1,1,0
1513489331242958,-2,-1,1,-1,-3,-2,-3,2
1513489331264980,-1,0,0,1,-1,-1,-3,1
1513489331264980,-1,-2,-3,-1,-2,-2,0,-3
1513489331264980,3,0,-2,0,0,-1,-1,-2
1513489331264980,-3,-2,-1,-2,-2,-2,1,2
1513489331280012,0,-2,-1,-1,-2,1,1,1
1513489331280012,-4,-2,-3,-1,-1,1,-2,0
1513489331280012,0,1,-1,0,0,-2,3,1
1513489331280012,-2,0,-1,-2,-1,-2,-3,1
1513489331302018,-1,0,-3,-2,-1,1,-3,-3
1513489331302018,0,-2,-1,0,0,0,0,-1
1513489331303019,-1,-2,-1,-1,-1,-4,-1,2
1513489331303019,2,-1,1,-1,-2,-1,-4,-1
1513489331324027,-7,-2,-1,-1,0,0,-1,-2
1513489331324027,-3,0,-1,-2,0,1,-2,0
1513489331325014,1,0,-2,0,-2,-3,-3,-1
1513489331325014,0,-3,0,0,-2,-2,1,0
1513489331339040,1,0,0,0,-2,-1,0,-1
1513489331339040,3,1,-3,-1,-2,0,1,0
1513489331340024,0,-2,-2,0,0,0,-4,0
1513489331340024,-7,-1,0,-1,-2,-3,-1,0
1513489331362053,3,-1,-1,0,0,-1,0,0
1513489331362053,0,-2,-3,0,-1,-3,-1,0
1513489331363042,-5,-1,0,-2,-3,1,2,3
1513489331363042,5,1,-1,-3,-2,-1,-3,-2
1513489331384060,-3,0,-1,0,0,-2,-1,-2
1513489331384060,-1,-1,-2,-1,-2,-1,-3,-2
1513489331385059,-2,-3,0,-1,-2,-1,1,-2
1513489331385059,-2,-3,1,0,-1,-3,-2,-3
1513489331399091,-3,-1,1,-1,-1,1,-1,-1
1513489331399091,-1,-1,-3,-2,-1,0,-1,-1
1513489331400092,0,1,-2,-2,0,-3,-2,-2
1513489331400092,-5,-3,-1,-2,-1,-1,1,-1
1513489331422086,0,-2,-1,-1,-3,-2,1,-2
1513489331422086,-3,-3,0,-1,0,-1,-1,-4
1513489331423084,1,0,-3,-1,0,-3,0,-3
1513489331423084,3,-1,1,-1,0,-2,0,-3
1513489331444158,-4,2,-1,-2,-1,-1,-2,0
1513489331444158,-4,-1,-4,-4,-3,1,0,0
1513489331445118,3,0,-2,-1,-1,1,-5,-2
1513489331445118,-2,1,1,-1,-1,-1,-2,0
1513489331459126,-1,-2,0,0,-1,0,-2,-2
1513489331459126,0,-1,-2,0,-1,1,-1,-2
1513489331460112,-7,-4,0,-1,-1,-1,0,2
1513489331460112,2,-2,-1,-1,-1,-1,-2,2
1513489331482207,0,-1,0,-2,0,-1,-3,-2
1513489331482207,-3,-1,-1,-1,0,-2,-1,-3
1513489331483194,3,0,-2,-1,-2,1,-3,-2
1513489331483194,-5,-1,-1,0,0,-3,-1,-2
1513489331504256,0,-1,0,-1,-1,-2,1,2
1513489331504256,-2,0,-1,-1,-2,0,-2,-2
1513489331505214,1,-2,-1,-2,-2,-1,0,0
1513489331505214,-5,0,0,-1,-2,-1,-3,-2
1513489331519211,3,-2,0,0,0,1,0,0
1513489331519211,0,-3,-2,-1,1,1,0,-4
1513489331520212,-3,0,-1,0,0,-2,-2,-2
1513489331520212,-3,-1,0,0,0,-1,1,0
1513489331542243,2,-1,-4,-1,-1,-1,-2,-1
1513489331542243,-1,-1,-2,-1,-1,2,-1,-2
1513489331543226,-4,-1,0,0,0,-3,-2,1
1513489331543226,1,0,0,-1,0,-2,0,-1
1513489331564325,-2,-3,-1,-2,-2,1,0,1
1513489331564325,-1,-4,-1,0,-2,-2,-2,-2
1513489331565323,2,-1,-2,-2,-3,0,0,-2
1513489331565323,1,0,1,0,-2,-2,-3,-1
1513489331580324,-3,1,1,-4,-1,-1,1,-4
1513489331580324,0,-3,-3,-1,-2,-1,-2,1
1513489331581324,2,0,-2,1,-1,-4,-1,0
1513489331581324,1,-1,-2,-3,-2,-3,0,-1
1513489331602385,0,-2,-1,-3,-3,2,-1,-2
1513489331602385,-3,-1,-2,-2,1,1,-1,-2
1513489331602385,-1,0,1,0,0,-2,0,0
1513489331602385,-3,1,-1,-1,1,-1,0,0
1513489331624378,-5,-1,-1,-2,0,0,-3,-4
1513489331624378,-3,-1,-4,-2,-2,0,0,1
1513489331625396,2,-1,-3,-2,0,-1,0,4
1513489331625396,-1,0,-1,-2,-4,-1,0,-1
1513489331639485,-2,0,-1,0,-1,-2,1,0
1513489331639485,0,-1,-3,-1,0,1,-2,0
1513489331640432,3,-2,-1,1,0,-2,-4,-1
1513489331640432,-3,-2,1,-1,-1,-4,-2,0
1513489331661469,-1,-2,1,0,-1,0,0,0
1513489331661469,1,-1,1,-1,-2,-2,1,0
1513489331662470,1,-2,-1,-3,-1,-2,-5,0
1513489331662470,2,2,-1,-1,-2,1,-1,-2
1513489331684483,-2,-1,-3,0,-2,0,-1,2
1513489331684483,-3,-2,-1,-3,0,-3,1,-3
1513489331685467,-2,1,0,-3,-1,-2,-3,0
1513489331685467,-3,0,3,-1,0,-2,-3,-3
1513489331699471,0,0,-2,-2,-1,-2,-1,-3
1513489331699471,0,-2,-3,0,-1,0,-1,-2
1513489331700472,-3,-1,0,-2,-1,-2,1,-1
1513489331700472,3,0,1,-1,0,-1,-2,0
1513489331721503,2,-3,-1,-1,0,-1,0,-3
1513489331721503,-4,-2,-2,-2,-1,0,-4,2
1513489331722504,0,-3,-1,-1,-2,-4,-2,-1
1513489331722504,-1,0,0,-2,-1,-3,-2,2
1513489331744505,-2,0,0,-1,-1,3,0,-3
1513489331744505,0,-1,-3,-1,0,-3,0,0
1513489331745505,3,0,-1,-1,-1,-1,-1,0
1513489331745505,-1,0,0,0,0,-1,-4,0
1513489331759512,-2,0,-1,0,-1,-2,-4,-1
1513489331759512,3,-1,-3,-1,1,-2,-1,-2
1513489331760513,-2,-2,-3,-1,-1,-3,-2,0
1513489331760513,1,-1,0,0,-2,-1,1,-2
1513489331781545,-3,-1,-1,1,-3,-1,-2,-3
1513489331781545,-2,-1,0,0,0,0,1,0
1513489331782531,4,-2,-1,-1,-3,-1,-1,1
1513489331782531,-1,-3,-2,-1,-1,0,-2,-2
1513489331804561,-3,-1,-1,-1,1,2,-1,-3
1513489331804561,3,0,-2,-1,-2,-2,-1,-1
1513489331805545,-3,-2,-3,-2,-2,-3,-3,-1
1513489331805545,-2,-3,0,-1,-1,-1,-2,0
1513489331819559,-7,0,-1,-2,-1,0,1,1
1513489331819559,1,-3,-1,-1,0,0,-2,2
1513489331820556,2,0,1,-2,1,-5,-3,0
1513489331820556,-4,1,1,-2,-1,-2,-1,-2
1513489331842578,-1,-1,0,-2,-2,2,-1,-5
1513489331842578,-3,0,-1,1,-1,0,0,2
1513489331842578,-2,-1,-2,0,-1,-1,0,-1
1513489331842578,0,-1,-1,-1,-2,0,0,-2
1513489331864603,-1,-1,-1,-1,-1,-2,2,-4
1513489331864603,-1,-3,-1,-1,-1,-2,-2,-3
1513489331865593,-2,-2,1,-1,0,-2,-4,4
1513489331865593,-3,-2,0,0,-2,-3,-1,-1
1513489331879674,-2,0,-3,-1,-2,-1,0,-1
1513489331879674,0,-1,-3,-1,-2,0,2,-3
1513489331880654,-1,-4,-3,-1,-1,0,1,-2
1513489331880654,-2,-1,1,-1,-1,0,0,1
1513489331901690,-2,-3,-1,-1,0,1,-4,-3
1513489331901690,-1,1,-2,-2,0,-1,1,-4
1513489331902690,-3,1,-2,1,0,-2,-1,0
1513489331902690,-3,-1,0,-1,0,-3,-2,3
1513489331924697,-1,-1,-2,-1,-1,1,-3,0
1513489331924697,-4,-2,-3,-3,0,-1,0,-3
1513489331924697,-4,-2,0,-1,-2,0,-2,-1
1513489331924697,4,-1,0,0,-2,-1,-1,1
1513489331939749,-1,0,-2,0,0,0,1,-2
1513489331939749,-3,-1,-3,-2,1,-3,-1,-3
1513489331940692,-1,-1,-1,-2,-2,-2,0,-1
1513489331940692,-1,0,0,-1,-1,0,-2,-3
1513489331961722,-3,-2,-2,0,1,1,0,-1
1513489331961722,-2,-3,-2,0,-2,0,-4,-1
1513489331962708,2,1,0,0,-1,-5,-1,1
1513489331962708,0,-2,-1,-1,0,-1,-1,-3
1513489331984761,1,-2,0,-1,-2,2,0,-1
1513489331984761,-6,-2,-3,-1,0,0,-2,-2
1513489331985725,1,0,-1,-2,-3,-2,-3,2
1513489331985725,-3,-2,-1,-1,-2,-2,1,1
1513489331999759,-2,-1,-2,1,0,1,1,-3
1513489331999759,-2,0,-1,-1,-2,-2,-2,0
1513489331999759,1,0,0,-1,-1,-4,0,2
1513489331999759,-1,2,0,-1,0,-2,2,-3
1513489332021774,-4,-1,-1,-2,1,0,0,-4
1513489332021774,2,0,-2,0,0,0,-2,0
1513489332022751,0,-1,-1,-1,0,-2,-1,-1
1513489332022751,1,-1,0,-1,-1,0,-4,-3
1513489332044776,-1,-3,-1,-2,-2,0,1,0
1513489332044776,0,-2,-1,-2,-1,0,2,0
1513489332045769,1,-2,-2,0,-2,-2,0,-1
1513489332045769,-2,0,0,1,0,2,-1,-1
1513489332058777,1,-3,-2,0,-1,-1,-1,0
1513489332058777,3,-1,-3,-1,-2,-1,-1,3
1513489332066799,2,-2,0,1,-1,-4,-3,-2
1513489332066799,1,0,-1,0,-2,0,-3,1
1513489332081793,-3,-1,-2,-1,0,0,2,-2
1513489332081793,1,-1,-1,-1,-1,-3,-1,-1
1513489332082792,-1,-2,-1,-1,-1,-3,1,2
1513489332082792,-1,-1,-2,0,-1,-1,-3,-1
1513489332104877,1,-2,0,-1,0,1,-2,-3
1513489332104877,-7,-3,-3,-1,0,0,-1,0
1513489332105855,-1,-1,1,-2,-1,-1,-1,2
1513489332105855,1,-2,1,-1,0,-3,0,-1
1513489332118851,-1,0,-1,-1,-3,0,0,0
1513489332118851,2,0,-2,0,-1,-1,-2,-4
1513489332126870,0,-1,0,0,-3,-1,-3,1
1513489332126870,-2,1,0,-2,-2,0,-1,1
1513489332141878,3,-1,-1,-3,0,1,0,0
1513489332141878,3,-2,-2,-3,1,-2,-3,-1
1513489332142872,2,-2,1,-2,0,-1,-3,-1
1513489332142872,3,0,0,0,-2,-2,0,-3
1513489332164881,-10,-2,-3,-1,0,-3,-1,-2
1513489332164881,-1,-1,-1,-2,-4,-1,-2,6
1513489332165881,0,-1,-2,-2,-1,1,-1,1
1513489332165881,-5,-1,0,-1,0,-2,0,-3
1513489332178891,-3,-2,-2,0,0,1,2,-6
1513489332178891,-2,-2,-1,-1,1,1,-4,2
1513489332186924,2,0,-1,-1,-1,-3,-2,-2
1513489332186924,0,-1,1,0,-2,-4,-2,-2
1513489332201926,-1,0,-1,-2,-2,2,-2,-4
1513489332201926,-4,0,-1,-1,1,0,-3,0
1513489332202910,0,0,0,-2,0,-4,-1,2
1513489332202910,-2,0,1,-1,0,-3,2,-1
1513489332224924,-2,-3,-2,-1,-1,-1,1,-3
1513489332224924,2,-1,-4,0,-2,-1,0,-1
1513489332225925,-3,-2,0,-1,-1,-3,-4,-1
1513489332225925,-4,-1,-4,-1,0,1,0,-1
1513489332238988,1,-1,-1,0,1,2,1,-1
1513489332238988,0,-1,-3,-2,0,-1,0,-1
1513489332246938,-5,-2,-1,0,-2,-1,-1,-1
1513489332246938,-1,-2,0,-1,-2,0,-1,-1
1513489332261962,-2,-2,-3,0,-1,1,0,-2
1513489332261962,-1,-3,-3,0,1,0,-1,-3
1513489332262951,2,0,-1,-1,-1,-5,-1,0
1513489332262951,-4,-1,1,-3,-2,0,1,-2
1513489332285038,-2,2,-1,-1,-1,0,-2,-3
1513489332285038,-1,-3,0,-2,-2,-2,-1,-1
1513489332286037,-2,0,-1,0,0,-2,-1,1
1513489332286037,-1,0,0,-1,-2,2,-1,1
1513489332299055,-2,-3,-2,-2,-2,-2,1,-1
1513489332299055,-6,-5,-4,-1,-1,-2,2,-4
1513489332307037,-2,-2,0,-1,-3,-1,-1,-2
1513489332307037,1,-2,-1,-1,-1,-1,-4,-2
1513489332322071,-2,-2,-2,-2,0,1,-1,-1
1513489332322071,2,-2,-3,0,-2,-2,1,1
1513489332323048,-2,-1,-1,-2,-1,-3,-2,1
1513489332323048,-1,-2,-1,-2,-1,-1,-2,-3
1513489332345078,0,-3,-2,-2,-3,0,0,-3
1513489332345078,-2,-1,-2,-3,0,-1,-1,1
1513489332346063,3,2,1,0,-2,0,-2,2
1513489332346063,-4,-1,1,-2,-1,-2,-2,-1
1513489332359073,-1,-1,0,1,-1,0,1,1
1513489332359073,-3,-1,-1,-1,-2,-1,0,0
1513489332367119,-3,0,-1,-1,-1,-4,0,0
1513489332367119,3,-1,0,-1,0,0,-1,1
1513489332382090,1,-2,-2,-2,0,-1,2,-1
1513489332382090,3,-1,-3,1,-2,-2,-2,-2
1513489332383091,-3,-5,-2,-1,-1,-4,-5,0
1513489332383091,0,1,0,0,0,0,-2,-3
1513489332405130,-2,-2,-3,-2,-2,2,-3,2
1513489332405130,-1,-1,-3,-3,0,1,-2,1
1513489332406107,-3,0,0,-3,0,-2,-3,-3
1513489332406107,-1,-2,-2,-2,-2,-4,0,-1
1513489332428123,-2,0,-1,0,-1,3,-2,0
1513489332428123,-1,1,-1,1,0,-1,1,-3
1513489332428123,1,-2,-1,1,0,-1,-1,-1
1513489332428123,-1,-5,-1,1,-1,-1,2,0
1513489332450153,4,-1,-1,0,-2,-3,-1,-2
1513489332450153,-1,0,0,-2,-1,-2,-2,-2
1513489332451137,5,3,0,-1,-1,-3,0,2
1513489332451137,-3,1,2,0,-2,-2,-1,1
1513489332465164,-4,-2,-2,-2,-1,-2,-3,-2
1513489332465164,2,-2,-2,-1,-1,-2,-3,-3
1513489332466148,-1,-2,0,-1,-2,-2,-2,1
1513489332466148,1,0,0,-2,-2,2,-1,0
1513489332487235,-1,-1,-2,-2,0,0,0,-2
1513489332487235,0,-5,0,0,-1,-3,-1,2
1513489332488235,0,3,0,-1,-1,-1,-1,-1
1513489332488235,-4,-2,-3,-1,-2,1,0,-1
1513489332502243,1,-1,-2,0,-3,-1,-2,-4
1513489332502243,0,0,-3,1,0,-3,0,-4
1513489332502243,8,-1,0,0,-3,0,3,1
1513489332502243,-3,0,0,-2,-1,-2,-1,-1
1513489332525277,-3,-2,-2,-2,0,2,-2,-2
1513489332525277,-1,-1,-2,-3,-3,-1,-2,3
1513489332526261,0,-2,-1,-2,-2,-6,-3,2
1513489332526261,1,1,0,0,0,-3,1,1
1513489332547276,-2,-2,-2,-1,-2,0,-3,-3
1513489332547276,-1,-3,-1,0,-1,-1,-1,1
1513489332548277,-4,-1,1,-1,-1,-1,-3,-1
1513489332548277,-2,-1,0,-1,-3,-2,0,-1
1513489332562285,1,-1,-1,-1,0,-3,-1,-2
1513489332562285,0,-1,-2,-2,-1,-2,-1,-2
1513489332562285,-1,-2,-1,-1,1,-5,-1,-2
1513489332562285,0,0,0,0,-1,1,0,-3
1513489332585303,1,-1,-2,0,-1,0,3,-2
1513489332585303,-2,0,0,-2,-1,-1,-1,-1
1513489332586303,0,-3,0,0,-2,-2,-2,2
1513489332586303,-4,0,0,-1,-1,0,-1,-3
1513489332607321,-3,-1,-2,-2,0,1,1,-2
1513489332607321,4,1,-3,-1,-2,0,0,1
1513489332608318,-3,0,0,-1,-1,-1,-1,0
1513489332608318,0,-1,0,-1,-2,0,-2,-2
1513489332622345,0,-2,-2,0,0,0,-1,0
1513489332622345,-2,-2,-2,0,-1,-2,-2,-2
1513489332622345,-3,0,1,-1,-1,-2,-1,-3
1513489332622345,1,-2,0,-1,-1,-3,-2,2
1513489332645356,-6,-4,-3,-1,0,1,-2,-4
1513489332645356,3,0,0,-1,-1,2,0,1
1513489332646347,-2,-1,0,1,-1,-2,-1,-3
1513489332646347,-3,-4,-1,-2,-1,-2,-2,0
1513489332667360,1,-1,-2,-2,-1,-1,1,-1
1513489332667360,-1,-1,-2,-1,-3,-4,-3,-4
1513489332668361,-1,0,-1,-2,-1,-1,-1,2
1513489332668361,-1,0,0,0,0,1,-1,-2
1513489332682401,-1,-1,-3,-1,-2,-1,-3,0
1513489332682401,-1,-2,-3,-3,-2,1,-1,0
1513489332682401,3,-1,1,-3,-2,-2,-1,-4
1513489332682401,-1,-1,0,-1,-2,0,-1,-1
1513489332705442,-2,-1,-4,1,0,2,0,-1
1513489332705442,-2,-4,-1,1,1,-3,-3,-1
1513489332705442,-2,0,1,-1,-1,-2,-4,-1
1513489332705442,0,0,-1,-2,-2,0,-1,-1
1513489332727413,0,-1,-1,-2,-1,0,1,-4
1513489332727413,-7,-1,-1,-2,0,2,0,0
1513489332728406,-4,-1,-1,0,-1,-1,-2,0
1513489332728406,0,-1,0,-1,-3,-3,0,-1
1513489332742421,-2,0,-1,0,-2,1,-4,0
1513489332742421,-3,-1,-1,0,-2,-1,0,2
1513489332742421,1,0,0,-2,-2,-4,-4,-4
1513489332742421,-2,0,0,1,-1,-1,-3,-1
1513489332765429,-3,-2,-2,-2,-1,0,-1,-1
1513489332765429,-1,-1,-1,-1,0,-3,0,-2
1513489332765429,-2,-2,1,0,-2,-1,-1,2
1513489332765429,-2,-1,-1,-1,-1,-2,0,-2
1513489332787447,-1,-2,-2,-2,1,0,0,-2
1513489332787447,2,0,-2,-1,-1,-1,-1,0
1513489332788446,1,0,0,-2,-1,-2,0,1
1513489332788446,0,0,1,-1,-2,1,-3,-1
1513489332801455,-1,-2,-2,-2,-1,-1,2,0
1513489332801455,1,-2,-1,-1,-1,-1,-1,-2
1513489332802455,2,-2,1,-2,-2,-3,1,-2
1513489332802455,1,1,-1,0,-1,-2,0,-1
1513489332825529,-6,-2,-1,-1,0,-2,2,-1
1513489332825529,0,-1,0,-1,-2,0,-4,-3
1513489332825529,1,-2,2,-2,0,-1,0,1
1513489332825529,0,-1,-2,-2,-1,0,-1,-1
1513489332847487,0,-2,-1,1,-3,1,2,-3
1513489332847487,1,-1,0,-2,-3,-4,1,0
1513489332848488,-1,0,-2,-1,-2,-3,-5,1
1513489332848488,2,1,1,0,-1,-1,-1,0
1513489332861515,-3,-2,-1,-1,-1,0,-3,-2
1513489332861515,-2,-3,-1,0,1,-2,-1,2
1513489332862516,-2,-1,-1,1,-1,-1,-1,0
1513489332862516,-1,-1,0,-1,0,1,-1,-1
1513489332884559,0,-1,-2,0,0,1,0,0
1513489332884559,3,-1,-2,-1,-1,-3,-2,-1
1513489332892519,-2,0,0,1,-1,-2,-2,-3
1513489332892519,-3,-3,-2,-2,0,0,0,-1
1513489332907534,0,0,-2,-1,0,0,-2,2
1513489332907534,0,0,-2,-2,0,-1,1,-2
1513489332908533,-1,-2,-2,-1,0,-3,0,0
1513489332908533,-2,-4,-2,-3,-2,-2,-1,-3
1513489332930556,3,-1,-3,-2,-2,-2,-2,-2
1513489332930556,-6,-1,-1,0,-1,-1,-1,-1
1513489332930556,-2,2,1,0,-2,-1,-2,1
1513489332930556,-1,1,2,-1,-1,2,-1,-2
1513489332945556,1,-2,-3,-2,0,0,0,-5
1513489332945556,0,-2,-1,-1,1,-1,1,1
1513489332945556,-1,0,-1,-1,0,-3,-1,0
1513489332945556,-4,-2,-1,-1,-2,0,-2,-3
1513489332967586,-5,-1,-2,-1,-1,1,-2,0
1513489332967586,1,-2,-2,0,-2,0,-3,2
1513489332968587,1,-2,0,-1,0,-2,-2,-1
1513489332968587,-1,-1,-1,-1,-1,0,4,-1
1513489332981584,-2,0,-4,0,-1,3,1,-2
1513489332981584,-4,-3,0,-1,-1,-1,-2,0
1513489332982584,-3,-1,1,-1,-1,0,-1,1
1513489332982584,-4,0,-1,0,-1,0,-2,2
1513489333005628,4,-2,-2,-1,0,0,0,-4
1513489333005628,2,-1,-1,0,-2,-2,-1,-1
1513489333005628,-1,0,2,0,-2,-4,-2,-1
1513489333005628,-8,0,1,0,-1,-1,3,-2
1513489333027644,-1,-3,-3,-2,0,0,-4,-3
1513489333027644,0,-1,-3,-2,-2,-2,-4,1
1513489333028624,-1,-1,-1,-1,-1,-1,-1,-2
1513489333028624,0,1,-1,-1,0,2,1,-5
1513489333041627,-1,-2,-2,0,-3,-4,1,0
1513489333041627,-2,-1,-3,-2,-1,0,-3,0
1513489333049649,-1,-1,0,-1,-3,-3,0,1
1513489333049649,1,0,-1,0,1,0,-2,0
1513489333064658,-3,-3,-1,-1,2,1,-3,-1
1513489333064658,2,-1,-1,0,0,-2,-2,-2
1513489333065642,0,0,2,1,-2,-1,2,-1
1513489333065642,1,-2,-1,-1,-2,0,-1,0
1513489333087680,-4,0,-2,-1,-1,0,0,-1
1513489333087680,-3,-1,-2,-1,-1,1,-1,0
1513489333088658,-3,0,0,-2,-1,-3,0,-2
1513489333088658,0,-3,-1,0,-2,-2,0,0
1513489333101679,-2,-1,-3,0,1,-1,-3,-1
1513489333101679,-4,-1,-3,-1,0,-3,0,-1
1513489333109675,1,-2,-1,-1,-1,-1,-1,-4
1513489333109675,-1,-1,-2,-1,0,1,0,-3
1513489333124686,-4,-1,-1,0,0,0,-1,-1
1513489333124686,-1,-1,-1,-2,-2,-2,-1,-1
1513489333125684,0,0,1,0,-2,-1,-3,1
1513489333125684,0,1,-1,0,-3,-1,-3,-3
1513489333147700,0,-1,-1,-1,0,-1,-1,1
1513489333147700,2,-1,0,-2,-1,-3,1,0
1513489333148700,-6,-4,0,-1,-1,-2,-3,0
1513489333148700,3,-4,-3,-1,-1,1,0,-1
1513489333161712,1,-2,-3,-1,-2,0,-1,-2
1513489333161712,1,0,-2,-2,0,-1,-1,-1
1513489333169716,1,0,0,-2,-1,0,-2,-1
1513489333169716,-3,1,0,-1,0,-1,-4,-4
1513489333183755,-1,-4,-2,-1,-1,-2,0,-3
1513489333183755,2,-1,-1,-1,-2,-5,-1,3
1513489333191742,0,-1,-2,-1,-1,-1,-1,1
1513489333191742,-4,-1,0,-1,-1,-2,-1,-2
1513489333207742,0,0,-2,-1,-3,-1,-2,-2
1513489333207742,-1,-1,0,0,-1,-3,-3,-1
1513489333208743,-5,0,-1,0,0,1,-1,-2
1513489333208743,-3,0,-1,-1,-2,-2,3,0
1513489333221752,0,-1,-1,-3,0,-2,0,0
1513489333221752,-2,-1,-2,-2,0,1,0,-1
1513489333229764,1,1,0,-2,-4,-3,-1,-2
1513489333229764,-7,-1,-1,-1,-2,1,2,-2
1513489333244797,1,-1,-1,-2,-1,0,-1,1
1513489333244797,1,-3,0,-1,-1,-1,-2,-3
1513489333245777,-1,-2,0,-2,0,-3,-1,1
1513489333245777,-3,-1,0,0,-2,1,0,-2
1513489333267813,0,0,-2,-2,-2,-1,1,2
1513489333267813,-2,0,-2,-1,-1,-3,-4,0
1513489333268793,1,1,-1,-1,-1,2,-3,3
1513489333268793,0,-1,-1,-3,-1,-1,-2,-2
1513489333280794,-3,-1,-3,-1,-1,-2,0,-4
1513489333280794,1,-2,-1,-2,-3,-1,-1,-6
1513489333289824,1,-1,1,0,-1,-5,-3,0
1513489333289824,-3,-3,-1,-1,-1,-1,-2,-1
1513489333304811,2,0,-1,-1,-1,2,-2,-1
1513489333304811,-1,0,0,-1,-1,-3,0,2
1513489333311816,-1,0,0,0,-1,-2,0,-2
1513489333311816,0,0,-2,-2,-2,-1,0,-1
1513489333327826,-1,-3,-2,-2,-1,-1,-4,-2
1513489333327826,-3,-2,-1,-1,-1,-3,-4,1
1513489333328832,0,0,0,-2,0,1,2,-1
1513489333328832,-1,-2,0,-1,1,0,-1,0
1513489333349842,2,0,-2,-3,-2,1,2,-3
1513489333349842,-2,-2,-1,-1,-2,-4,-3,3
1513489333351845,-3,-1,-1,0,-1,0,0,-3
1513489333351845,-1,-2,-1,-1,1,0,0,-1
1513489333363876,-3,-1,-2,0,0,-2,0,-1
1513489333363876,-2,-1,-1,-2,0,-3,-1,2
1513489333370878,1,2,0,-2,-2,-2,0,-3
1513489333370878,0,1,0,-2,-1,0,-1,-4
1513489333387886,0,0,-1,1,-1,0,-2,-3
1513489333387886,0,-2,-1,-2,-2,-1,0,-2
1513489333388870,-2,-1,1,-1,-1,-2,-2,2
1513489333388870,-1,-2,-2,-3,-1,2,-3,-1
1513489333409894,1,-2,-4,-3,-1,1,1,-3
1513489333409894,0,0,-1,-1,-2,-2,-4,3
1513489333411897,0,-3,0,-1,-1,-1,-1,-3
1513489333411897,-3,0,-1,-1,0,-1,1,0
1513489333424904,-3,-2,-2,0,-1,-2,-2,-2
1513489333424904,1,1,-1,0,-1,-4,-2,0
1513489333430930,-3,1,0,0,-2,1,-1,0
1513489333430930,-3,-1,0,-2,0,0,-6,-2
1513489333447913,-2,-1,-2,-1,-1,-1,2,-1
1513489333447913,4,0,-2,1,-1,-3,-1,1
1513489333448914,-1,0,0,-1,-2,-1,-2,-4
1513489333448914,-5,-1,-1,-1,-1,-4,1,-4
1513489333469928,-2,-2,-1,-2,-2,-2,-4,-1
1513489333469928,2,0,1,-1,-1,-1,-3,0
1513489333471931,-3,-2,2,-1,-1,-2,2,-1
1513489333471931,2,0,-1,0,-1,-1,0,-2
1513489333483937,-2,-3,-3,0,-1,0,-2,-3
1513489333483937,1,-1,-2,0,2,-2,0,1
1513489333490948,0,0,1,-1,1,2,-4,-3
1513489333490948,-1,-4,-1,-2,-2,2,-1,0
1513489333507954,-2,0,-4,-1,0,-2,0,0
1513489333507954,-2,0,0,-1,-2,-1,0,4
1513489333508956,-4,0,-1,-2,-2,-1,0,-1
1513489333508956,0,2,-1,0,-1,0,3,-5
1513489333529988,2,-2,0,-1,-1,0,-1,0
1513489333529988,1,-1,-1,-4,-1,-3,3,-3
1513489333531975,-2,-2,1,0,-2,0,-2,0
1513489333531975,-2,-2,-3,-1,-1,1,-3,-2
1513489333544992,0,-3,-3,-1,1,-2,0,2
1513489333544992,1,0,-1,-1,-3,-1,-1,-3
1513489333550985,-3,0,-2,-1,-1,-2,-1,1
1513489333550985,-2,-2,0,-1,-1,-1,0,-2
1513489333568015,-2,0,-2,0,-1,-2,-2,-2
1513489333568015,-1,-1,-1,-1,0,-5,-2,-2
1513489333568997,-1,-2,-1,-1,-2,0,-1,0
1513489333568997,0,-1,-1,-1,-2,2,-1,1
1513489333590026,1,-2,-1,0,0,-1,-3,-1
1513489333590026,0,-1,0,-2,-1,-2,-3,-1
1513489333592026,-2,1,-2,-2,-2,-2,1,0
1513489333592026,0,1,-1,-2,-1,1,0,-1
1513489333604034,-3,0,-1,-2,-2,2,0,0
1513489333604034,-2,-1,0,0,-1,-3,0,-1
1513489333611036,2,-1,0,0,0,-4,1,-1
1513489333611036,-3,-2,-2,0,-1,-1,0,-4
1513489333628038,0,-1,-2,-2,-1,0,0,-2
1513489333628038,-4,0,0,-2,-1,1,-3,0
1513489333629040,0,-1,0,-1,-2,-2,-1,0
1513489333629040,0,-1,0,1,0,1,-1,-4
1513489333650054,-3,-1,-2,-3,0,-1,0,1
1513489333650054,2,-4,-3,-2,-1,-1,0,4
1513489333652055,-1,-2,0,-1,-1,-3,-1,-3
1513489333652055,-3,-1,-2,-2,-1,0,-3,-2
1513489333664068,-2,-1,-1,1,-3,-1,-1,1
1513489333664068,3,-1,0,-2,0,-2,-3,0
1513489333671097,-2,0,-2,-2,-1,0,-2,2
1513489333671097,-1,-2,-1,-2,-1,1,0,0
1513489333688096,-3,-2,-2,-2,0,-1,0,-2
1513489333688096,1,0,-1,0,-3,-3,-1,0
1513489333689095,1,0,-1,0,0,-1,0,-4
1513489333689095,-2,-1,-1,0,0,0,-1,0
1513489333710122,-2,-1,-3,0,-1,0,-2,1
1513489333710122,-4,1,1,0,-1,-3,-3,-1
1513489333712123,-1,-1,0,-2,-2,1,-1,2
1513489333712123,2,-2,-3,0,-1,1,1,-3
1513489333724108,-4,-4,-1,-1,1,-1,0,-1
1513489333724108,2,1,1,-1,-2,-2,-1,0
1513489333731144,-4,-1,1,-1,-2,-1,-3,-1
1513489333731144,-4,-1,-2,-1,-2,2,0,-2
1513489333747138,0,-1,-3,-1,-2,-1,-2,-1
1513489333747138,-4,-1,-1,-1,-1,-4,-2,2
1513489333749128,0,-1,1,-1,0,-3,-1,-1
1513489333749128,0,1,-2,-2,0,2,2,-3
1513489333770163,0,-3,-1,-4,-1,-2,-2,-2
1513489333770163,0,-2,-1,0,-2,-2,-1,-1
1513489333772156,1,-2,-1,-1,-1,-2,1,-4
1513489333772156,-3,-2,-1,-2,-1,0,-1,-3
1513489333785166,2,-2,-2,1,1,-2,-1,-3
1513489333785166,-2,0,0,-2,-1,-4,-2,1
1513489333793173,-3,-1,0,-1,0,-1,-3,-1
1513489333793173,0,-2,-3,-1,0,1,0,-2
1513489333808167,2,0,-2,-1,-2,1,-2,2
1513489333808167,-2,-2,0,-1,0,-1,-1,-1
1513489333809168,0,-1,-1,0,-2,0,-2,-1
1513489333809168,-4,-1,0,0,-1,-2,-1,-4
1513489333830202,2,0,-2,0,-1,-1,-4,-1
1513489333830202,-2,-1,0,0,-2,-1,-3,3
1513489333832183,0,0,-2,-2,0,-1,-2,2
1513489333832183,1,-2,-2,-1,0,1,-2,-3
1513489333844209,-2,0,0,0,-3,0,0,-1
1513489333844209,2,0,0,-3,-3,-3,-1,-2
1513489333852212,-1,0,-1,-1,-1,1,1,-1
1513489333852212,-4,-3,-2,0,-2,-2,3,1
1513489333867208,0,-2,-2,-1,0,-1,0,-3
1513489333867208,1,0,1,-2,-2,-2,-1,-2
1513489333869212,2,0,1,0,-1,1,-3,-2
1513489333869212,-7,-2,-2,-1,-1,1,2,-1
1513489333890256,1,-1,-2,-2,-2,-4,-2,3
1513489333890256,-2,0,-1,0,-1,-2,-1,1
1513489333891226,-5,0,1,0,-2,-3,-1,-1
1513489333891226,-1,0,-2,-3,0,1,0,0
1513489333904261,-4,0,-2,-1,-1,0,0,0
1513489333904261,-1,-2,-2,-1,0,-3,-2,1
1513489333912240,0,0,0,0,-1,2,-2,-2
1513489333912240,-1,-2,-1,-1,0,-1,-1,-3
1513489333927252,-3,-2,-2,-1,-2,-1,-1,-1
1513489333927252,1,1,1,-2,0,-2,-2,1
1513489333929253,-3,-1,1,-1,-2,1,2,-1
1513489333929253,2,-1,-2,-1,-3,-1,0,-5
1513489333950267,0,-3,-3,-2,-2,2,1,3
1513489333950267,1,-2,-1,-1,-1,-4,-6,0
1513489333951268,-3,-2,0,-1,-1,-4,-1,-3
1513489333951268,1,-2,-3,-1,0,0,-1,0
1513489333963276,-3,1,-2,1,-1,-3,-1,1
1513489333963276,-2,0,0,-1,-1,-2,-1,0
1513489333972320,-1,0,-1,-2,0,0,0,1
1513489333972320,-1,-2,-2,-1,-1,2,-3,-1
1513489333987297,0,-2,-1,-1,-2,-3,0,-2
1513489333987297,1,-1,-1,-2,-1,-3,0,1
1513489333989312,1,-1,-1,0,0,-2,-3,-2
1513489333989312,-4,0,-1,-1,-1,-1,1,-3
1513489334010309,0,0,-2,-2,1,-1,-2,0
1513489334010309,3,-1,-1,0,-1,-3,-2,2
1513489334011310,-1,0,0,-2,-2,-2,-1,-4
1513489334011310,1,-4,-3,-2,-1,1,1,-2
1513489334023342,0,-1,-1,-1,-1,1,-1,-1
1513489334023342,-1,-3,-1,0,-1,-3,1,1
1513489334032334,0,-2,0,0,-1,-2,1,-3
1513489334032334,-3,-1,0,-1,-3,-2,-2,0
1513489334047335,1,-1,-2,-3,0,-4,-3,0
1513489334047335,-3,0,0,0,-2,-1,-2,-1
1513489334049337,1,-1,-1,0,-2,-1,-2,0
1513489334049337,2,-1,-1,-1,-1,2,-2,-3
1513489334070367,-4,-2,0,-1,-1,-3,-1,-3
1513489334070367,2,0,0,-2,0,-1,0,-1
1513489334071352,-4,-1,0,0,-1,1,-2,-1
1513489334071352,-1,2,-3,-2,-1,0,-2,-4
1513489334083372,-2,-2,-1,-4,-1,-2,-2,1
1513489334083372,1,0,1,-1,-1,0,-2,0
1513489334092422,-4,-1,-2,-1,0,2,2,0
1513489334092422,-2,-2,-3,0,-1,1,-2,-2
1513489334107449,-1,-2,-3,1,-1,-4,2,1
1513489334107449,-1,1,0,0,-2,-4,-4,-1
1513489334109433,-3,-2,1,-2,0,-1,-2,-2
1513489334109433,-4,-2,-1,-1,0,0,0,-1
1513489334130455,1,-3,-1,-2,0,-2,1,-2
1513489334130455,-2,0,0,-2,-1,-3,-3,1
1513489334131447,-1,-1,-2,-3,-1,-2,-4,0
1513489334131447,2,-1,-1,-2,-2,2,-1,-4
1513489334143461,-3,-1,-1,-2,-2,2,1,2
1513489334143461,-2,-1,0,-1,-2,-2,-3,2
1513489334152461,0,0,0,-3,0,-1,-1,1
1513489334152461,-5,-2,-4,0,0,1,0,0
1513489334167499,0,0,0,-1,0,2,-1,-1
1513489334167499,1,-2,0,0,0,-2,-2,-3
1513489334169479,-1,-2,0,-1,-1,-2,-2,-3
1513489334169479,0,-1,-2,-2,0,-2,0,-3
1513489334190502,-2,-2,-5,0,0,-2,-3,-2
1513489334190502,-3,-2,1,0,-1,-6,-1,-1
1513489334191490,2,-2,1,0,-1,-4,-2,1
1513489334191490,1,-1,-1,0,2,-1,1,-1
1513489334203495,0,-2,-2,0,-1,-2,-5,-5
1513489334203495,2,0,-2,-1,-1,-2,0,0
1513489334212501,-1,1,0,-2,-2,1,-1,1
1513489334212501,-4,-2,-1,-2,-3,0,2,-1
1513489334227515,-3,-1,-2,-2,0,-2,-2,-4
1513489334227515,-1,0,0,-2,1,0,2,-2
1513489334229514,-3,-1,-2,0,-1,-1,0,-1
1513489334229514,-3,-1,-3,-1,0,1,-2,-1
1513489334250528,2,-1,-1,-3,-3,-1,-2,-1
1513489334250528,-2,0,0,-2,1,-3,0,1
1513489334251529,0,-1,0,-2,-1,-1,-2,3
1513489334251529,-4,-3,-2,-1,0,0,0,-2
1513489334263537,-3,-1,0,0,-1,-2,-2,-2
1513489334263537,2,0,-2,-1,-1,-1,-2,0
1513489334272543,0,-1,0,0,-1,-1,1,-3
1513489334272543,-1,-2,-1,-1,-2,4,-1,-1
1513489334287557,-2,-1,-1,-1,-2,-3,1,-1
1513489334287557,-1,-2,1,-1,-3,-2,0,3
1513489334289558,0,0,1,-1,-1,-1,-2,-3
1513489334289558,-2,-1,-2,0,0,-1,-2,-3
1513489334310572,1,-1,-1,0,0,-1,1,-1
1513489334310572,4,-1,1,-3,-1,-2,-4,1
1513489334311573,-3,0,-1,-2,-3,-2,-1,0
1513489334311573,-2,-1,-1,-1,-3,-1,0,-3
1513489334332590,-2,0,0,-2,-2,1,-1,2
1513489334332590,-4,0,0,0,-2,-1,-2,-1
1513489334334607,-1,-1,1,-1,-1,-1,1,-1
1513489334334607,-2,-3,0,-1,0,-2,-2,-2
1513489334347601,0,-1,-3,-1,-1,-1,0,2
1513489334347601,-1,0,-1,0,-2,-1,-1,-1
1513489334349602,3,0,1,-2,-1,1,0,-2
1513489334349602,0,-2,-3,0,0,-3,-2,0
1513489334370633,-1,-3,-2,-2,-1,-1,-1,-1
1513489334370633,-2,-2,-1,1,-1,0,-2,0
1513489334371617,3,-1,0,0,1,-1,-3,-2
1513489334371617,0,-2,-3,-1,-1,-1,0,-1
1513489334392641,0,0,-2,-2,-2,-1,1,0
1513489334392641,-1,-2,0,0,-3,-3,0,0
1513489334394649,0,0,0,-1,-2,0,-4,-4
1513489334394649,3,0,-3,-2,0,0,0,0
1513489334407641,-1,-2,-1,-2,-1,-3,-2,0
1513489334407641,-1,-1,0,-1,-1,-1,-2,1
1513489334409659,-3,-1,-1,0,1,-2,-2,2
1513489334409659,1,-1,-1,-2,-2,-2,-1,-1
1513489334430657,0,0,-3,-1,-3,-1,0,-2
1513489334430657,0,1,-1,-2,-1,-5,-1,-1
1513489334431686,-3,0,-2,-1,-1,1,-2,0
1513489334431686,-2,-2,-1,0,-1,-1,-2,-2
1513489334452679,4,1,-1,0,0,-1,-3,0
1513489334452679,-7,0,1,0,-1,-1,1,1
1513489334454680,-4,-3,-2,0,0,-2,1,-2
1513489334454680,-3,-1,-2,-2,-1,0,0,1
1513489334466688,1,1,-1,-1,-1,-1,-1,-1
1513489334466688,0,-1,1,-1,0,-2,-1,-3
1513489334473689,0,-1,-1,0,-2,-2,0,-1
1513489334473689,-4,0,-4,-3,-1,0,0,0
1513489334489698,-2,0,-2,1,0,-1,-4,1
1513489334489698,-4,0,0,1,-1,-4,-3,0
1513489334491699,-1,-3,-2,-2,-2,-2,0,-3
1513489334491699,0,-2,-2,-1,-1,-2,-1,0
1513489334512717,1,-1,1,-2,-1,-3,-1,1
1513489334512717,1,1,-2,-2,-2,-2,-1,-3
1513489334513732,-1,-1,-1,-2,-1,-1,-1,-4
1513489334513732,-4,-2,-3,0,-2,1,-1,-1
1513489334526741,-2,-2,-1,-1,1,-1,-1,1
1513489334526741,0,-1,2,0,-1,-2,0,-3
1513489334533746,-1,0,1,-2,-1,0,-1,-1
1513489334533746,1,-2,-2,-2,-1,2,0,-2
1513489334549743,-2,-2,-2,-1,0,-2,-2,-3
1513489334549743,4,0,0,0,-2,-2,-2,1
1513489334551744,-3,1,-1,-1,-2,1,-2,-1
1513489334551744,0,-1,-2,1,-2,2,-2,-2
1513489334572796,-2,-2,-1,-1,0,0,0,1
1513489334572796,-4,-2,-1,-3,-1,-2,-2,-1
1513489334573775,-2,0,-2,-1,-1,1,-1,-1
1513489334573775,-1,-3,-3,-2,0,-2,-1,-3
1513489334586790,3,0,0,-1,1,-3,-2,1
1513489334586790,-1,-2,0,-2,0,0,-1,-1
1513489334593772,-2,1,-1,-3,-2,0,0,-2
1513489334593772,2,-1,-2,-1,-2,1,1,-3
1513489334609783,-4,-1,-2,-1,-2,-1,-1,-2
1513489334609783,-1,-1,1,-2,1,-1,2,-2
1513489334611785,-2,-1,-1,-1,-1,0,1,0
1513489334611785,-1,1,-1,0,-2,-1,-1,-3
1513489334632859,-2,-3,-1,-1,-2,-4,-2,0
1513489334632859,2,2,-2,0,0,1,-1,0
1513489334633811,0,-2,-1,0,-1,2,0,-2
1513489334633811,1,-4,-1,-2,0,1,0,-1
1513489334646811,0,-4,-1,1,-2,-1,0,-1
1513489334646811,-2,0,1,-3,-4,-5,-3,1
1513489334653821,1,1,-1,0,-2,1,0,-3
1513489334653821,-2,-1,-1,-1,1,0,-2,0
1513489334669833,-1,-1,-2,-1,-3,-2,0,1
1513489334669833,0,-1,2,0,-2,1,1,-1
1513489334671832,-2,-1,0,0,2,1,0,-5
1513489334671832,-2,-2,-3,-2,-1,-2,1,0
1513489334692845,2,-1,-1,-2,1,-3,-3,0
1513489334692845,-1,-1,0,-1,-2,-3,-2,3
1513489334693847,-1,-3,-1,0,-1,-1,0,-2
1513489334693847,0,-2,-3,-1,-1,-1,-1,1
1513489334706865,-2,1,-2,-1,-2,1,-1,0
1513489334706865,2,-1,0,-1,-1,-2,-1,-2
1513489334713872,-2,0,-2,-1,-1,-4,0,-2
1513489334713872,-3,-1,-2,-2,-1,-1,-4,-3
1513489334729883,2,-2,-3,-2,0,1,0,1
1513489334729883,0,-1,2,-1,-2,-2,0,0
1513489334731871,1,-1,-2,-1,-1,0,0,0
1513489334731871,0,-3,-1,0,-3,-2,2,-1
1513489334752890,-1,-3,-3,1,-1,-2,-4,2
1513489334752890,1,0,0,-1,-2,-3,-1,0
1513489334753891,-1,0,-1,-1,0,-2,-3,-3
1513489334753891,-2,0,-2,-2,-1,0,-3,-1
1513489334766899,1,0,-1,-1,-1,-1,-2,-1
1513489334766899,-3,-1,-3,-1,-2,1,-2,-1
1513489334773901,-3,0,-1,0,-1,-2,-3,1
1513489334773901,2,-2,-3,-3,-1,-2,-2,-4
1513489334789967,-3,-1,-1,0,-2,-2,0,4
1513489334789967,0,-2,0,-1,-1,-1,-1,-1
1513489334791912,-3,-1,-1,-1,-2,1,-1,-1
1513489334791912,1,0,-2,-1,-1,-1,-3,-1
1513489334812942,-2,-1,-2,-1,-1,-4,1,-4
1513489334812942,-1,0,0,0,-2,-4,-1,-1
1513489334813942,-3,-1,0,-1,-2,0,0,-2
1513489334813942,-4,0,-1,0,-2,0,1,0
1513489334825948,3,-1,0,-1,-1,-3,0,0
1513489334825948,-2,0,-2,-1,0,1,-3,-2
1513489334834942,0,-1,-2,-1,0,0,-1,-5
1513489334834942,-1,-2,-1,-2,0,-1,0,0
1513489334849954,1,-1,-1,-1,0,0,-1,-3
1513489334849954,-5,1,0,-1,-2,0,1,2
1513489334851955,2,0,0,0,-1,-1,0,-1
1513489334851955,-4,-2,-2,-1,-1,1,2,-1
1513489334872979,-3,1,0,-1,-1,-3,-2,2
1513489334872979,1,-1,1,-1,-1,0,1,2
1513489334873975,-5,-3,-1,-3,-1,-1,-1,-1
1513489334873975,-2,-2,-1,-1,0,-1,-3,-1
1513489334886000,1,-1,0,0,-2,-2,-2,-2
1513489334886000,-1,-2,-2,-1,-1,0,-1,-2
1513489334895993,-2,-1,-2,-1,-2,-1,0,-2
1513489334895993,0,-3,-3,-1,0,4,-1,2
1513489334910002,3,-1,0,-3,-1,-2,-2,1
1513489334910002,-2,1,1,-1,-1,-1,-1,-2
1513489334912003,0,-1,-1,-1,1,2,1,-2
1513489334912003,-2,0,-2,-2,-2,-3,-1,0
1513489334932031,-2,-4,-1,0,-1,-1,-2,1
1513489334932031,0,-1,1,0,-3,-4,-2,-1
1513489334934011,-2,-2,-1,-2,-2,0,3,0
1513489334934011,-1,-2,-2,-1,1,0,2,-4
1513489334946107,-5,-1,0,-1,-1,-2,-1,-1
1513489334946107,0,1,0,-1,-2,-3,-1,0
1513489334955099,-2,0,-2,0,0,1,-2,1
1513489334955099,0,-2,-2,1,-3,-2,-2,1
1513489334970110,2,-1,-2,1,-2,-2,0,-3
1513489334970110,-1,-1,0,-2,-1,1,0,-1
1513489334972127,-3,0,-1,-1,-1,1,-2,-2
1513489334972127,2,-1,-3,-1,-1,0,-5,-1
1513489334992138,-1,-3,-2,-1,-2,-5,0,1
1513489334992138,-3,-2,-2,1,-2,-4,-1,-2
1513489334995134,0,-2,0,-1,-2,-1,1,-2
1513489334995134,-4,-3,-3,0,0,-1,1,-1
1513489335006194,-2,1,-2,-2,-2,-3,-2,2
1513489335006194,2,1,-1,-1,0,-1,-4,-1
1513489335015144,-4,0,-1,0,0,-1,2,-2
1513489335015144,1,-3,-3,-1,-2,-1,-1,1
1513489335030154,3,-2,0,1,-1,-3,-4,-3
1513489335030154,-1,0,1,0,-1,-2,0,-1
1513489335031155,-2,1,0,-2,0,0,-2,-2
1513489335031155,2,0,-2,1,-2,-3,-4,2
1513489335052171,-2,-1,0,-2,-1,-1,-2,3
1513489335052171,0,-2,0,0,0,0,-3,1
1513489335054167,0,-3,-2,-1,-2,1,1,-3
1513489335054167,1,0,-1,-2,-1,-4,0,-2
1513489335066199,-1,-1,0,0,-3,-1,-2,0
1513489335066199,1,-2,-1,1,0,-2,1,1
1513489335075206,0,0,-3,-2,0,0,-2,0
1513489335075206,-2,-3,-2,-1,1,0,2,-2
1513489335090275,-1,0,0,-2,0,-4,-3,0
1513489335090275,-3,-1,0,-1,-1,-1,0,-5
1513489335092195,-1,1,-2,1,0,-1,3,-1
1513489335092195,-1,0,-2,-2,0,-1,-1,-2
1513489335112231,4,-4,-2,-1,0,-2,-1,1
1513489335112231,-2,-2,1,0,-1,-1,-2,-1
1513489335114215,-5,0,-1,-1,-2,0,-1,-1
1513489335114215,-1,-4,-2,0,-2,-1,1,-2
1513489335126242,1,0,-1,-2,0,-2,-1,1
1513489335126242,-2,-1,1,-1,-1,0,-1,1
1513489335135223,1,-2,-2,0,-3,1,-1,-4
1513489335135223,0,0,-1,-2,-1,-1,-3,0
1513489335150248,-2,-1,0,-2,-1,-4,-3,-3
1513489335150248,0,-1,-1,-3,-1,1,-1,-3
1513489335151254,2,-2,-1,0,0,-1,-2,-1
1513489335151254,-4,-2,-4,-1,-2,-1,-2,-1
1513489335172316,2,-1,-1,0,-1,-3,-3,1
1513489335172316,-6,-1,0,-1,-2,-3,0,-4
1513489335174251,-3,-3,-1,-1,0,-1,-4,1
1513489335174251,-2,-2,-2,0,0,-3,1,0
1513489335186326,-1,-1,0,1,-3,0,-3,1
1513489335186326,1,-2,-1,-2,-1,-2,-3,0
1513489335196267,-1,-3,-2,-2,-2,0,-2,-2
1513489335196267,0,-2,-1,-3,-1,-1,-2,-2
1513489335210281,0,0,-2,-1,-2,-1,-1,-2
1513489335210281,-2,2,0,0,0,1,2,-1
1513489335211282,-1,-1,-2,0,0,2,1,-3
1513489335211282,-4,-2,-2,-2,1,2,-1,-1
1513489335232315,-3,-1,0,-2,-1,-2,1,-2
1513489335232315,0,0,1,-2,-2,-1,-1,0
1513489335234316,0,-2,-1,0,0,1,1,-3
1513489335234316,-1,-1,-2,-1,-1,1,-1,-1
1513489335255365,0,-1,0,-1,-1,-2,0,1
1513489335255365,-2,-2,-1,-2,-1,-2,-2,-2
1513489335256323,0,-1,-1,-2,-1,-2,-4,-3
1513489335256323,2,-1,-3,0,0,-1,0,-3
1513489335270387,-4,-3,-1,-1,-1,-2,-1,2
1513489335270387,4,-1,1,-1,-2,-1,-2,0
1513489335271321,-1,0,-3,-1,1,1,0,-3
1513489335271321,-1,-3,-1,0,-2,-2,-3,0
1513489335292348,0,1,-1,0,-2,-4,-1,1
1513489335292348,-2,1,-2,-1,-2,-1,-2,-1
1513489335295359,-6,-1,-2,-1,-2,1,2,1
1513489335295359,-1,-3,-2,-1,-1,-2,-4,0
1513489335315376,-2,-1,-2,0,-1,-1,0,-1
1513489335315376,1,-3,0,0,-1,-3,-4,-2
1513489335316352,-1,2,-3,-1,-1,4,1,-3
1513489335316352,-2,2,-2,0,-1,-2,-1,0
1513489335330367,5,-1,-1,-1,0,-5,-1,0
1513489335330367,-1,-2,0,-1,-1,-1,-1,0
1513489335331367,0,-3,-2,-1,-1,1,1,-3
1513489335331367,0,-3,-2,-2,-2,1,0,-1
1513489335352401,0,-1,0,0,0,-3,-2,0
1513489335352401,0,-1,1,0,-2,-2,2,-1
1513489335354380,-2,0,-1,-3,0,-2,-2,-1
1513489335354380,-2,1,-3,-2,-1,1,-3,0
1513489335375396,-3,-1,-1,0,0,-1,-4,1
1513489335375396,-1,1,0,-1,-3,1,0,0
1513489335376395,-1,-3,-2,-1,-1,0,1,-1
1513489335376395,0,-3,-4,-2,-1,-3,-2,0
1513489335389460,1,-1,1,-4,0,-2,-3,2
1513489335389460,-6,-1,0,-1,-1,0,1,-1
1513489335396411,0,-3,-2,0,-1,-1,0,-2
1513489335396411,-1,0,1,0,-1,-1,0,-1
1513489335412421,0,-1,-1,-1,-3,-2,-2,-2
1513489335412421,1,1,-1,-1,-1,-2,-2,3
1513489335414436,-2,-3,-2,-1,-1,1,-3,2
1513489335414436,1,-3,-3,-1,-2,1,0,0
1513489335435458,-2,0,1,-2,-1,-3,-5,0
1513489335435458,-1,1,-1,-2,-1,0,1,-2
1513489335436437,-2,0,-1,-1,-1,1,-2,-3
1513489335436437,0,-1,-2,-1,-1,-3,-3,-2
1513489335449528,-2,-1,-1,-2,-2,-2,1,2
1513489335449528,-1,-2,0,1,-2,-3,0,-3
1513489335456532,2,-2,-1,-1,-2,2,-1,-2
1513489335456532,-3,0,-1,-1,-2,-2,-1,0
1513489335472543,0,-3,1,-2,-1,-4,-1,-2
1513489335472543,1,-1,-2,-1,-2,-2,-2,-2
1513489335474525,0,-5,-2,-1,-1,1,-1,-3
1513489335474525,0,-1,-2,0,0,-3,0,-1
1513489335495542,-2,-2,-2,-1,-2,-3,-1,0
1513489335495542,1,-1,1,-1,-2,-2,-4,-2
1513489335496536,-2,-2,-2,-2,0,2,-4,-4
1513489335496536,-1,-1,-1,-1,-1,0,-2,-2
1513489335509561,2,1,0,0,0,-3,-3,1
1513489335509561,-4,-1,0,-1,0,2,1,-1
1513489335516580,-3,1,0,-3,-2,-2,1,1
1513489335516580,-1,-2,-2,-2,-1,1,-2,-2
1513489335532675,-1,1,-1,0,-1,-3,-2,-3
1513489335532675,1,-2,0,-1,0,-1,3,1
1513489335533676,-2,-1,-1,-1,-1,-1,0,-2
1513489335533676,3,-2,-3,-1,-1,-1,0,-1
1513489335555726,0,-1,0,-2,-2,-2,-2,-1
1513489335555726,1,-1,-2,-3,-1,0,-3,-2
1513489335556686,-2,-2,-3,0,-1,-2,1,-2
1513489335556686,-1,-1,-2,-1,-1,-3,1,0
1513489335569737,0,-1,0,-1,-1,-2,0,1
1513489335569737,-2,0,0,-1,-3,-1,-1,0
1513489335575686,1,-2,-1,-2,-1,1,0,-1
1513489335575686,-1,-2,-1,-1,-3,-3,-2,0
1513489335592697,1,-1,0,-1,-2,-2,1,2
1513489335592697,-1,1,-1,-1,-1,1,-1,-1
1513489335593697,-3,-4,-2,-1,-1,0,0,-4
1513489335593697,-3,-1,0,0,-2,-2,0,0
1513489335614717,-3,-3,-1,0,-1,-3,-3,-3
1513489335614717,-1,0,0,-1,-3,-4,-2,-1
1513489335616715,-1,0,-1,-1,-1,-1,-1,-1
1513489335616715,-3,-2,-2,-2,0,-1,-1,0
1513489335629728,-3,0,-1,-1,0,0,-2,1
1513489335629728,-1,-1,0,-2,-1,1,0,-1
1513489335636754,-5,-1,-2,-1,-1,0,0,-2
1513489335636754,2,-1,-1,-2,-1,-1,-2,-2
1513489335652763,1,-2,-1,-2,-3,-2,2,-4
1513489335652763,-2,-4,-1,0,0,0,-1,-1
1513489335653745,-1,1,-3,-2,-2,0,0,0
1513489335653745,0,0,-3,0,-1,0,-1,-1
1513489335674768,-1,0,0,0,-1,-1,-2,1
1513489335674768,-1,-1,0,-1,-2,-1,-2,-2
1513489335676758,-4,-3,-2,0,0,0,-2,-5
1513489335676758,-3,0,-2,-1,0,0,-1,2
1513489335689765,0,-1,0,0,-1,-2,-2,-1
1513489335689765,-3,-1,-1,-2,0,-1,0,-1
1513489335695769,-1,-2,-3,-2,-1,0,-1,-2
1513489335695769,0,0,-1,-3,0,-2,0,-3
1513489335712783,-1,-1,1,0,-1,1,3,-1
1513489335712783,1,-1,-1,0,-2,-1,0,-2
1513489335713784,2,-2,-3,-1,-1,1,1,-2
1513489335713784,-2,-1,-4,-3,-2,-1,-2,0
1513489335734866,-2,0,1,-1,-1,-2,-3,2
1513489335734866,-2,-1,0,-2,-1,0,-4,-1
1513489335736799,1,-4,0,-1,-2,1,1,-4
1513489335736799,0,0,0,0,-1,-1,-4,-3
1513489335748832,-1,0,-3,-1,-2,-2,-3,0
1513489335748832,-4,0,0,-2,-1,-1,-1,0
1513489335757820,0,-2,-1,0,-1,-2,0,-2
1513489335757820,-3,-4,-2,-2,-2,1,1,-1
1513489335772887,1,0,0,-2,-1,-1,0,1
1513489335772887,-2,-1,0,1,-2,-2,1,-1
1513489335773848,1,-1,-2,-2,0,0,-1,-1
1513489335773848,1,-4,0,-1,0,0,-3,0
1513489335794839,-3,2,0,-1,0,-2,-2,0
1513489335794839,-3,-2,-1,-1,1,-1,-3,-2
1513489335796852,-4,0,-2,-1,-1,2,-3,2
1513489335796852,0,-2,0,-1,-3,-2,0,0
1513489335808850,-1,-1,0,-1,0,-5,2,1
1513489335808850,-2,-1,-1,0,-1,1,-1,-2
1513489335817877,0,0,-3,0,0,1,0,-4
1513489335817877,0,-2,-3,-1,-1,-3,-2,-2
1513489335832865,-1,-2,0,-2,-1,-3,1,-2
1513489335832865,-1,-2,0,-1,-1,-1,0,0
1513489335833865,-3,-1,-3,-2,0,0,-2,1
1513489335833865,-1,-1,-3,-1,-1,-3,1,-1
1513489335854880,-3,-1,0,0,-2,-3,-1,1
1513489335854880,-3,0,0,-1,0,-3,-2,-1
1513489335856882,0,-3,-2,-1,0,0,0,0
1513489335856882,-2,1,-2,-1,1,-3,0,1
1513489335868891,1,-1,-1,-1,-1,-1,0,-1
1513489335868891,0,1,0,-3,-3,-1,-4,-5
1513489335877898,-1,-1,-3,0,-1,0,0,-4
1513489335877898,1,0,-2,-1,-3,-2,-2,0
1513489335892910,0,-1,1,-2,-1,-3,-3,1
1513489335892910,-1,-1,0,0,-1,1,-1,-2
1513489335894910,-2,-1,-3,0,-1,-1,-1,-1
1513489335894910,4,-3,-2,-1,-1,-1,-3,0
1513489335914924,-3,-2,-1,0,-1,2,-3,-1
1513489335914924,2,-2,-1,-1,0,-1,1,0
1513489335916926,-2,0,-1,0,-1,-2,-4,-1
1513489335916926,-3,-2,-2,-2,1,0,1,-4
1513489335929060,0,0,1,-2,-3,-2,-3,4
1513489335929060,-1,0,-1,-2,1,-1,2,-1
1513489335944062,-3,-1,-2,0,-1,1,2,-2
1513489335944062,1,-1,-2,0,-1,-1,-2,-1
1513489335952064,4,1,1,0,-1,-4,-4,-3
1513489335952064,-1,-1,-1,-2,-2,1,-2,1
1513489335954065,-2,-3,-3,0,0,0,0,-1
1513489335954065,0,-1,-3,-1,0,1,1,0
1513489335975139,-3,0,-1,-1,-1,-4,1,-1
1513489335975139,0,0,-1,0,-3,2,-3,-1
1513489335977091,-2,-1,-2,0,-2,-1,0,-3
1513489335977091,-2,-1,-2,-2,-1,-2,1,-1
1513489335988116,0,0,0,-1,-1,-1,-1,0
1513489335988116,0,-1,-1,-1,-2,1,1,0
1513489335998106,-1,-3,0,-3,-3,2,-1,-2
1513489335998106,-2,0,0,0,-1,-3,-3,-2
1513489336012117,0,0,-1,-1,0,-1,-4,-2
1513489336012117,2,-1,-1,1,0,-1,1,-6
1513489336014120,2,-1,-3,-1,0,0,0,-1
1513489336014120,-3,-2,-1,-1,-1,-1,0,-1
1513489336035145,-4,-1,1,-2,-3,-2,-1,0
1513489336035145,-4,-2,-1,0,-1,-1,2,-1
1513489336036123,0,-2,-2,-1,0,-2,0,-1
1513489336036123,0,1,0,-2,-3,-1,-4,1
1513489336049133,-1,-2,0,-1,-2,0,-1,-3
1513489336049133,-1,-1,-1,-2,-1,-2,-1,-2
1513489336057138,-2,-2,-4,-1,-1,-4,-5,-3
1513489336057138,-3,-1,-3,-2,1,-1,1,0
1513489336072209,-1,-1,0,0,-1,0,0,-1
1513489336072209,-1,-2,-2,-1,-2,-1,0,-1
1513489336074166,0,-2,-3,-1,0,3,1,-1
1513489336074166,-1,1,-1,-3,-1,-2,-2,-1
1513489336095178,-4,-1,-1,1,0,-2,-2,1
1513489336095178,0,-2,-1,-1,0,-2,-1,1
1513489336097177,-2,-2,0,-2,-3,1,-2,2
1513489336097177,-3,-1,-1,1,0,-3,-1,0
1513489336108174,-4,0,2,-2,-2,-2,-1,0
1513489336108174,0,-1,0,0,-1,-1,0,-1
1513489336118203,-2,-2,-1,-1,-1,1,1,-2
1513489336118203,0,-2,-1,0,-2,-1,-1,-1
1513489336132214,-1,-1,-1,-3,0,-2,-4,2
1513489336132214,-2,1,-1,-1,-2,-2,-3,1
1513489336134192,1,1,-2,1,2,1,1,-5
1513489336134192,-1,-1,-2,-1,-2,-3,-1,-1
1513489336155305,2,-1,0,1,0,-4,2,0
1513489336155305,-4,-1,0,-1,-2,1,-1,-1
1513489336156283,-1,4,10,1,-1,1,0,-1
1513489336156283,-1,-2,-3,-1,-1,-2,-1,-1
1513489336168314,-3,-4,-7,-5,-4,-4,-2,-1
1513489336168314,-2,-1,3,-1,0,-1,1,-3
1513489336178301,-2,-4,-5,-3,-4,-1,-3,1
1513489336178301,-1,0,10,-2,1,-1,-2,-2
1513489336192320,-1,-1,3,-1,0,-1,0,0
1513489336192320,-3,0,-5,-4,-1,-1,2,-2
1513489336194319,3,-1,0,2,0,-3,0,-2
1513489336194319,-1,-1,-2,2,-4,-2,-1,2
1513489336215321,0,-2,9,3,2,1,0,-1
1513489336215321,-1,-6,-29,-5,-2,0,-2,-2
1513489336216322,-1,3,8,0,-1,0,-2,-1
1513489336216322,-2,-8,-30,-9,-3,-1,-2,-2
1513489336237334,2,4,11,-2,-3,-2,-1,-3
1513489336237334,0,0,9,6,5,2,-2,-1
1513489336239336,0,-6,-6,-4,-2,-2,2,1
1513489336239336,-1,2,10,0,-2,-2,-3,-3
1513489336252355,-1,1,-5,-2,-4,0,-1,-1
1513489336252355,-1,2,3,0,0,0,-3,2
1513489336258355,-3,2,-2,-1,-1,-3,-3,0
1513489336258355,2,0,7,0,0,-1,0,3
1513489336275362,-4,0,0,1,1,-3,-2,-6
1513489336275362,0,0,-15,-5,-5,-1,0,-3
1513489336276363,1,2,11,2,2,2,-1,0
1513489336276363,0,-5,-3,-3,-1,-2,-1,1
1513489336297406,-2,6,27,3,-2,-2,0,0
1513489336297406,-2,-8,11,-2,-4,-3,-5,-2
1513489336299380,0,-2,-39,-10,-1,1,2,1
1513489336299380,1,3,9,4,2,-1,-2,-3
1513489336312417,3,-5,-14,-8,-2,-5,-2,-1
1513489336312417,-5,2,11,-1,-2,2,3,-2
1513489336314390,-3,3,24,3,1,0,-3,-2
1513489336314390,-2,-8,-61,-13,-5,-3,-4,-2
1513489336335406,-1,1,25,4,2,1,0,-4
1513489336335406,1,-10,-33,-4,-4,-3,-3,2
1513489336336406,1,-1,9,-2,1,-2,-3,-3
1513489336336406,4,3,-3,4,0,-1,-1,-1
1513489336357436,-7,-2,8,1,-3,-1,0,2
1513489336357436,5,9,21,2,2,1,2,1
1513489336359437,-15,-6,-4,-1,-2,-1,0,-5
1513489336359437,-2,-9,-12,0,-2,-5,0,-3
1513489336371443,-6,-9,-12,-6,-4,0,1,2
1513489336371443,0,-1,7,3,1,1,-2,-1
1513489336378443,6,-2,-17,-1,0,-1,-2,0
1513489336378443,-7,13,21,4,2,-2,0,-1
1513489336395454,9,-1,0,2,2,-1,-1,4
1513489336395454,-2,-7,1,-4,-3,-2,-1,-4
1513489336397454,0,-1,-9,-3,-2,-3,3,5
1513489336397454,4,4,26,2,-1,-1,-1,1
1513489336417467,0,10,3,5,0,1,-3,1
1513489336417467,-6,-14,-14,-14,-5,-5,-1,-3
1513489336419468,0,3,8,3,1,3,0,-5
1513489336419468,0,-12,-2,-6,-2,-5,1,1
1513489336431495,-2,4,4,0,0,1,0,0
1513489336431495,3,6,6,3,1,0,0,-3
1513489336438496,-1,-1,-14,-3,-1,1,-3,1
1513489336438496,-2,0,17,1,1,-1,0,-1
1513489336454505,-9,8,3,5,0,-1,-2,-3
1513489336454505,-10,-24,-45,-14,-6,-4,-1,-6
1513489336456503,0,-8,-4,-5,-3,-2,-2,-1
1513489336456503,5,-2,0,2,0,-1,-2,2
1513489336477504,-8,2,8,-1,-3,-2,-2,-6
1513489336477504,7,10,26,6,2,3,1,1
1513489336479508,1,-9,-22,-2,-2,-1,-2,-6
1513489336479508,7,2,6,-3,-3,3,-1,6
1513489336491516,-15,-9,-22,-4,-2,-8,-2,-3
1513489336491516,-5,10,40,6,1,0,-2,-4
1513489336498543,-1,-8,-4,-3,-3,1,-1,1
1513489336498543,-19,-3,-27,-3,-2,-4,-2,-6
1513489336515534,6,-15,-40,-6,-4,-2,-3,-11
1513489336515534,-12,7,-4,2,3,1,-1,-2
1513489336516535,0,9,65,5,-1,0,-1,3
1513489336516535,-7,-12,-39,-5,-2,-6,-6,-7
1513489336537565,12,11,59,0,-1,2,-3,7
1513489336537565,-12,-14,-42,-6,-2,-4,-6,-9
1513489336539551,0,-6,-4,-8,-4,0,-5,4
1513489336539551,10,1,25,7,0,1,7,10
1513489336551575,6,3,-9,-1,2,-2,-20,6
1513489336551575,5,4,20,7,3,4,12,5
1513489336558580,2,-2,-7,-1,-1,-2,-3,0
1513489336558580,0,6,14,6,1,0,-6,4
1513489336575577,10,5,-16,-5,-1,-2,1,4
1513489336575577,4,5,8,4,1,3,3,10
1513489336576592,3,3,-16,-4,-3,-3,0,4
1513489336576592,0,-10,-16,2,-2,-1,3,-1
1513489336597601,10,-12,-55,-12,-5,-7,4,2
1513489336597601,-17,2,21,1,-2,0,2,-4
1513489336598601,8,1,-39,1,3,2,4,-1
1513489336598601,-7,-1,47,0,-3,-3,-2,-4
1513489336611611,-1,-2,-9,-5,0,1,10,21
1513489336611611,0,-13,-69,-8,-4,-1,-4,-7
1513489336618622,-1,-10,7,-1,0,-2,-3,-5
1513489336618622,-2,-18,-26,-4,-3,-6,-4,-15
1513489336634731,4,6,32,5,-1,3,19,15
1513489336634731,-8,10,31,6,2,3,-2,2
1513489336636672,12,-6,-51,-3,4,2,7,-25
1513489336636672,-17,14,-6,-4,1,2,2,19
1513489336656704,-11,-13,45,0,-4,-6,-4,-17
1513489336656704,7,2,-42,-3,-1,0,-6,11
1513489336664710,-21,2,13,3,0,-3,-6,21
1513489336664710,-7,5,10,-2,-1,-2,-11,-32
1513489336671715,-7,9,28,13,4,2,-8,5
1513489336671715,-5,-2,-16,-4,-5,-2,2,-14
1513489336678713,-11,-4,13,-8,-1,5,8,10
1513489336678713,29,-5,22,4,3,3,3,10
1513489336695713,-6,-8,-59,-8,-7,-2,-4,-9
1513489336695713,12,16,37,9,6,6,1,-7
1513489336697727,23,26,24,14,0,2,-3,15
1513489336697727,-34,-34,-47,-18,-15,-16,7,-22
1513489336717730,-3,-11,83,-9,-4,-1,0,-16
1513489336717730,6,-26,-47,-20,-9,-5,-7,13
1513489336718731,-2,17,-41,3,2,3,-10,0
1513489336718731,32,16,-27,1,4,-3,-9,-2
1513489336730739,-53,2,-20,9,4,2,10,7
1513489336730739,-8,-9,42,-12,-8,-1,-3,-14
1513489336739796,-26,-10,23,3,2,-4,-12,14
1513489336739796,15,-2,10,-1,-3,0,14,-7
1513489336754771,12,18,-75,7,7,11,4,23
1513489336754771,-35,-15,-3,-10,-5,-1,0,-12
1513489336756765,28,-5,23,2,-5,-6,-5,-43
1513489336756765,-19,-1,-37,3,2,2,2,24
1513489336777801,9,14,15,4,3,3,10,2
1513489336777801,7,-1,4,-3,-1,-1,-8,-12
1513489336778774,-14,-14,-9,-11,-7,-8,2,0
1513489336778774,5,19,6,4,0,-5,-6,10
1513489336790805,7,-12,24,-4,-5,-9,-8,-22
1513489336790805,20,5,7,8,2,-1,-2,-6
1513489336799798,36,-2,-17,-5,-4,-1,10,14
1513489336799798,36,0,29,5,-2,-1,-11,4
1513489336814798,4,-5,-10,-9,-6,-3,-7,1
1513489336814798,-1,-11,-16,-9,-5,-1,9,2
1513489336816799,-17,3,6,-2,-2,-1,-7,5
1513489336816799,11,-15,-41,-12,3,-6,-5,-4
1513489336837885,-3,10,26,6,1,2,-1,-6
1513489336837885,10,-21,-8,-5,-5,-5,-2,-2
1513489336838833,-25,-2,-8,4,0,-1,-3,-16
1513489336838833,15,13,24,8,4,1,-3,19
1513489336850839,-23,-13,-14,-3,1,4,2,-13
1513489336850839,-4,10,31,11,5,4,0,4
1513489336859848,12,-8,-15,-3,0,-1,4,2
1513489336859848,-4,16,18,-4,-4,-1,-24,-2
1513489336874892,19,4,-1,0,-1,2,27,7
1513489336874892,11,18,1,9,4,2,1,10
1513489336876848,0,-7,-4,3,0,3,6,-2
1513489336876848,-30,2,-7,-12,-3,-3,-3,-6
1513489336897866,-13,3,5,2,-2,-4,-6,-4
1513489336897866,2,36,15,1,2,2,2,-5
1513489336898858,4,2,27,-6,-4,-2,2,-4
1513489336898858,-17,-28,-47,1,2,0,0,-1
1513489336910878,7,-16,-34,-4,-2,-6,-7,-6
1513489336910878,6,-6,20,6,-1,1,-1,-11
1513489336919876,29,7,6,6,2,4,7,17
1513489336919876,11,15,30,6,-5,1,4,-3
1513489336934907,10,-3,-5,-9,-7,-11,-15,-2
1513489336934907,5,6,-23,-6,-1,6,7,9
1513489336936884,-13,9,12,11,7,1,3,-6
1513489336936884,28,6,1,0,-2,1,2,19
1513489336956987,-6,-6,5,-1,-11,-6,-1,-6
1513489336956987,-50,-2,1,0,7,2,-4,-8
1513489336958986,-16,-18,-17,-11,-11,-11,-1,-5
1513489336958986,4,6,16,-3,0,-2,-2,-4
1513489336971013,-17,3,-4,4,4,-2,-6,3
1513489336971013,-18,-2,1,1,-2,0,2,-1
1513489336980019,23,2,-2,-5,1,2,0,7
1513489336980019,-12,16,8,1,3,-1,0,3
1513489336995011,-38,-15,-10,-2,-8,-4,-8,-18
1513489336995011,2,-7,9,-1,-1,-1,3,4
1513489336997012,12,11,-38,-11,3,-1,4,-9
1513489336997012,-33,-10,23,-5,-13,-7,2,-1
1513489337018026,35,24,3,-3,9,2,-8,13
1513489337018026,-20,-16,-5,7,-2,0,1,-13
1513489337019027,-9,-8,0,0,-2,1,-2,-1
1513489337019027,-25,-4,-13,-6,6,-6,0,4
1513489337031036,10,-11,-4,-13,-2,5,8,-5
1513489337031036,27,7,-4,-1,0,-4,-1,2
1513489337040043,28,14,8,5,-4,-1,-5,22
1513489337040043,-55,-37,9,1,-3,-6,6,-29
1513489337055073,15,10,-4,0,-3,0,-3,12
1513489337055073,-7,-1,19,-1,0,-2,-10,-1
1513489337057053,-11,-12,-30,-10,-4,-1,4,-9
1513489337057053,38,13,6,-1,-2,-5,-10,5
1513489337077078,-8,4,5,1,1,-1,4,7
1513489337077078,-29,-3,-4,-1,-1,4,-2,-7
1513489337079070,-36,-2,6,0,-3,-1,-24,-11
1513489337079070,12,17,-3,-3,2,-2,8,16
1513489337091113,-30,-4,25,19,-3,1,-1,-15
1513489337091113,25,-8,-32,-18,7,4,14,8
1513489337100086,-15,11,20,-3,-6,-4,-7,-16
1513489337100086,-43,-35,-15,16,1,2,4,-5
1513489337115124,29,-8,-6,-23,-2,-3,2,-5
1513489337115124,13,-65,-9,6,-6,1,-4,-10
1513489337117098,35,25,-25,-10,7,1,-2,3
1513489337117098,11,-9,11,-5,-2,3,4,11
1513489337137173,10,8,7,14,3,3,22,17
1513489337137173,15,2,-11,-14,-14,-15,-46,-11
1513489337139143,-2,-15,8,-1,3,-1,9,2
1513489337139143,-6,31,10,20,4,1,4,-8
1513489337160127,7,-16,-19,-18,-4,-4,-11,8
1513489337160127,29,17,7,4,2,5,2,-8
1513489337161128,-19,3,9,4,-6,-2,1,-2
1513489337161128,7,0,-9,-7,-1,-3,-1,4
1513489337175138,-75,-4,7,4,0,1,3,4
1513489337175138,2,-11,-2,2,1,-2,5,-25
1513489337176138,-7,-6,-2,7,-2,-3,2,-5
1513489337176138,0,-18,-5,-13,-3,-9,-9,-18
1513489337197154,43,19,2,7,3,3,-15,5
1513489337197154,-12,-18,3,3,1,2,23,12
1513489337199155,3,6,1,2,4,5,-6,-1
1513489337199155,-18,-1,4,-8,-1,-2,-1,8
1513489337220189,15,15,29,43,-12,-5,-3,-14
1513489337220189,0,9,-21,-44,-16,-15,4,-3
1513489337222171,29,-33,-23,0,22,7,-37,18
1513489337222171,-5,-16,-11,-17,-5,0,19,6
1513489337235237,-40,-2,-1,-15,-2,-3,4,-5
1513489337235237,-17,1,24,17,-1,6,-15,-14
1513489337236182,3,-37,-9,-2,-3,-7,12,-7
1513489337236182,-20,38,18,1,-7,-1,-18,-20
1513489337257258,-12,-29,-12,-8,1,-2,4,-16
1513489337257258,61,15,-10,8,0,2,-13,22
1513489337259215,-65,0,15,2,-3,-3,7,-10
1513489337259215,4,26,3,12,5,3,3,-1
1513489337280237,10,-47,-11,2,-6,-7,-4,-2
1513489337280237,-15,-4,-5,-12,-2,0,-12,-19
1513489337281216,19,33,3,-4,-5,-3,-5,2
1513489337281216,-41,-50,-3,-7,-11,-16,-15,-28
1513489337295229,46,31,-5,-13,8,2,31,26
1513489337295229,8,-10,-7,21,-5,-4,-31,-4
1513489337297231,-10,-30,-14,-14,-9,-6,-2,20
1513489337297231,14,-13,-3,-7,-6,-8,10,-7
1513489337317243,5,-30,17,-9,-14,-2,-41,-5
1513489337317243,9,56,-26,-10,21,5,21,9
1513489337319245,42,-41,-11,-6,-10,-7,9,-5
1513489337319245,82,32,16,8,15,14,-5,28
1513489337340314,-82,-22,-2,16,-5,-7,-5,-37
1513489337340314,30,33,11,-8,-7,-3,-49,4
1513489337341256,-8,-21,-6,10,0,-2,52,4
1513489337341256,14,-1,-10,-12,-5,-2,0,-7
1513489337354274,-11,12,-8,-8,0,-1,-10,-25
1513489337354274,-16,14,16,5,-5,-6,-39,-8
1513489337361274,1,-30,-10,12,2,-5,20,-32
1513489337361274,-67,3,-6,-3,-2,-5,-38,-8
1513489337377280,37,15,-8,-11,-7,-3,-37,7
1513489337377280,34,7,-6,10,6,8,56,30
1513489337379285,44,20,16,-5,0,1,-11,12
1513489337379285,46,53,14,13,-2,0,2,-12
1513489337400311,32,-12,-14,-1,2,-1,29,20
1513489337400311,-23,-9,8,-13,-15,-6,31,-24
1513489337401312,-20,-8,3,-5,5,5,-23,-10
1513489337401312,19,-17,-15,5,6,6,81,48
1513489337414336,-26,7,9,-8,-5,-4,-10,-34
1513489337414336,-35,61,7,6,7,6,24,23
1513489337421383,19,-43,-26,-13,-14,-7,-3,-30
1513489337421383,5,-24,5,-3,-5,0,1,10
1513489337439329,27,6,33,13,6,2,-13,5
1513489337439329,-6,-19,-39,-12,-3,3,-4,-2
1513489337440326,18,31,-8,-3,-4,-8,-11,0
1513489337440326,26,6,2,-9,-3,-3,-31,-5
1513489337460369,-28,-13,-9,3,-1,-3,-18,-13
1513489337460369,8,-18,26,14,-7,2,13,0
1513489337461341,16,19,6,1,9,0,-7,-1
1513489337461341,-6,-12,-6,-1,2,3,5,9
1513489337474366,7,73,-7,-15,-7,-1,12,-2
1513489337474366,-9,0,4,19,14,3,14,30
1513489337481370,-6,15,-6,-16,-4,1,3,13
1513489337481370,17,-22,7,5,-4,-6,9,-5
1513489337497365,36,57,1,-6,-3,5,-41,7
1513489337497365,-1,3,-18,-10,5,-1,3,2
1513489337500379,-54,-5,21,0,-9,-3,-13,-18
1513489337500379,-21,21,15,14,-4,-6,-30,-9
1513489337520438,9,-30,-8,-8,5,4,19,22
1513489337520438,-25,-39,1,-4,-2,6,-6,-32
1513489337521382,-12,30,-10,-12,0,-5,-36,6
1513489337521382,21,-21,2,5,-9,-3,7,14
1513489337534412,0,25,5,-4,0,-3,-35,-18
1513489337534412,-31,-22,12,23,7,5,20,4
1513489337541412,3,13,-9,-14,-7,2,11,-2
1513489337541412,12,16,26,18,8,1,10,3
1513489337557463,23,14,-29,-2,1,2,42,15
1513489337557463,31,-21,-4,5,-1,-3,-68,-43
1513489337559423,27,28,3,-2,-2,-1,43,44
1513489337559423,-16,-35,-21,-22,-5,-8,-36,-50
1513489337580449,-3,-23,15,7,6,-3,6,-10
1513489337580449,5,5,-16,-17,-3,-7,-11,11
1513489337581425,-16,-24,-13,5,-4,-10,-67,-45
1513489337581425,39,28,34,1,-1,1,9,23
1513489337594459,12,-30,-32,-5,-5,-3,18,14
1513489337594459,8,14,-6,3,16,16,29,-14
1513489337601446,-58,-11,10,7,-4,-4,-1,3
1513489337601446,13,7,-18,-17,0,-4,-14,-5
1513489337617455,-11,-17,20,-6,-2,3,14,-8
1513489337617455,13,-4,-1,8,-3,0,26,28
1513489337619456,11,-10,6,5,3,4,1,0
1513489337619456,-27,22,-8,18,-3,-1,-27,-5
1513489337640477,15,-22,-17,-23,2,10,96,47
1513489337640477,-14,-23,-12,-10,-7,-8,-46,-46
1513489337641467,-2,29,33,-16,-3,5,62,11
1513489337641467,-17,-47,-16,16,0,-14,-75,-68
1513489337653490,-58,-31,3,30,1,-3,-2,-12
1513489337653490,9,19,-4,-15,0,1,10,16
1513489337662487,7,-42,-5,8,5,4,31,35
1513489337662487,63,42,2,-22,-11,-4,-30,-26
1513489337677523,-7,-9,-9,4,7,-2,-21,-8
1513489337677523,-48,-23,-8,-14,-9,-6,-6,5
1513489337679501,16,-18,11,13,-3,2,8,-6
1513489337679501,-11,-8,-11,-11,2,-2,28,38
1513489337699511,32,7,-7,-2,-1,0,-15,-22
1513489337699511,17,-19,3,-4,-8,1,13,9
1513489337701513,53,67,-5,4,6,-2,-22,24
1513489337701513,-20,-33,-2,-20,-6,0,26,16
1513489337713519,9,41,18,20,8,3,25,35
1513489337713519,14,-7,3,14,1,5,77,7
1513489337722524,-23,-10,-9,-9,-3,-6,6,7
1513489337722524,8,24,33,10,-1,0,4,8
1513489337736558,-11,-12,-9,-16,2,1,-20,-9
1513489337736558,15,-28,-8,-11,1,-5,-34,1
1513489337737545,-16,20,8,24,2,5,-3,-12
1513489337737545,-23,0,8,-9,-5,-6,-18,-2
1513489337759563,-29,-37,-2,-19,-9,1,-5,-23
1513489337759563,-28,-20,3,9,2,-5,-26,-7
1513489337760552,22,13,-8,6,1,2,6,10
1513489337760552,3,-21,0,3,-5,-6,-15,11
1513489337781588,24,-13,1,-4,-9,-11,-49,-16
1513489337781588,-40,-18,2,-20,-10,-7,-37,-54
1513489337782583,2,29,-11,5,2,-4,-13,-5
1513489337782583,-20,-19,-4,7,4,3,17,11
1513489337796578,39,15,-11,-11,-4,-8,-12,-6
1513489337796578,10,18,4,-9,-7,4,32,20
1513489337804582,-9,-47,2,-11,-3,-1,-25,-34
1513489337804582,-20,-21,-40,-11,13,-1,24,-2
1513489337819594,-40,8,7,0,3,9,41,19
1513489337819594,-2,7,0,11,0,-5,-6,-21
1513489337820594,-5,5,25,7,-3,1,-8,-21
1513489337820594,-13,27,-10,10,8,0,8,8
1513489337842610,0,-2,-6,-24,-13,-2,6,0
1513489337842610,-8,-17,5,14,10,4,38,27
1513489337843612,-10,4,-6,14,1,-1,14,7
1513489337843612,24,29,13,7,-7,2,21,2
1513489337856621,-19,-8,-6,-13,2,-3,-3,-7
1513489337856621,1,16,-2,9,-5,5,-6,-9
1513489337857622,36,-17,2,-8,0,-8,-26,-11
1513489337857622,6,-16,-9,-26,-8,-2,3,6
1513489337887700,17,-55,5,27,3,-6,-31,-15
1513489337887700,-5,24,6,10,11,9,37,13
1513489337888658,-17,-20,-21,-16,-4,0,-22,-6
1513489337888658,19,6,2,27,-7,1,33,17
1513489337902654,18,32,1,-13,-1,-5,-66,-28
1513489337902654,27,-5,-4,-10,-6,0,-1,15
1513489337903654,-6,7,-1,9,4,-5,-5,-2
1513489337903654,-22,4,0,-6,-2,-1,6,-3
1513489337916662,-9,26,25,27,4,6,8,19
1513489337916662,10,-5,-40,-28,-2,-4,-15,-2
1513489337917663,-10,26,9,-8,3,0,17,11
1513489337917663,-7,-11,0,1,1,1,-22,-25
1513489337939695,5,-3,19,-5,-4,4,42,22
1513489337939695,-17,-72,-42,-12,-3,-13,-64,-50
1513489337939695,-30,-10,1,-2,-7,-2,26,4
1513489337939695,57,-22,-5,-3,-1,-6,-17,-4
1513489337962697,-25,29,12,6,2,4,19,-14
1513489337962697,0,42,21,6,-6,-2,-22,1
1513489337963698,0,-11,-6,-8,-9,-9,-3,-20
1513489337963698,3,11,6,-20,1,3,-10,10
1513489337976721,-6,1,-15,14,-1,-3,10,-15
1513489337976721,24,10,13,14,1,7,33,27
1513489337977704,-31,9,9,2,10,3,4,4
1513489337977704,16,14,-15,-9,2,2,10,5
1513489337999738,-4,-24,-10,2,-4,2,12,-19
1513489337999738,0,56,21,-5,-4,-2,0,7
1513489337999738,9,-10,-25,4,-2,-3,-26,-10
1513489337999738,-28,-14,21,10,2,6,11,-17
1513489338022790,38,18,-10,-12,4,5,-2,45
1513489338022790,8,-23,-7,1,3,0,5,5
1513489338022790,-13,13,0,-9,-6,-4,2,2
1513489338022790,11,-17,-7,4,-9,-10,-3,9
1513489338036802,-15,-2,-5,-20,-2,-1,-17,-16
1513489338036802,-17,16,19,5,1,5,-1,-2
1513489338037761,18,-17,-23,-2,8,-5,-22,10
1513489338037761,-15,1,8,1,-6,-3,16,6
1513489338059768,18,16,-12,1,4,2,-15,6
1513489338059768,39,-15,-5,-12,-9,-9,-9,25
1513489338059768,6,-14,17,8,-4,6,11,5
1513489338059768,-18,14,-9,2,9,-3,2,2
1513489338082801,20,28,17,5,-6,3,-17,-11
1513489338082801,-1,-13,-13,2,1,-2,-2,3
1513489338083789,2,-9,2,7,2,-3,17,4
1513489338083789,-8,-1,-4,-12,-6,-7,-17,-8
1513489338096788,8,31,2,6,4,8,19,42
1513489338096788,7,-30,3,4,-6,0,40,8
1513489338097799,19,13,9,-10,1,3,-9,16
1513489338097799,-25,-2,-10,-1,2,-3,3,-15
1513489338118826,-8,-30,-20,-3,0,-3,2,-17
1513489338118826,-30,37,3,4,-1,2,7,-18
1513489338119815,-25,-56,-5,-16,-1,-4,4,7
1513489338119815,17,29,1,-6,-6,-4,0,-6
1513489338142823,-13,3,13,1,-4,2,-21,-6
1513489338142823,1,-6,-11,3,4,-3,1,2
1513489338142823,-10,-31,-2,-3,-8,0,44,6
1513489338142823,17,40,25,-3,2,-2,-34,-11
1513489338156835,-9,-37,-26,4,-4,-5,5,-11
1513489338156835,-47,-3,4,-4,-5,-6,-14,-9
1513489338157836,25,21,6,-15,4,0,18,18
1513489338157836,-16,-52,-27,18,1,-2,0,0
1513489338178852,5,1,3,-7,-7,-2,6,-11
1513489338178852,2,-3,4,7,6,2,-14,-2
1513489338179852,1,10,-17,-16,-7,-12,-23,-13
1513489338179852,5,-13,13,18,0,3,-4,2
1513489338202866,0,4,0,-8,5,-5,-60,-28
1513489338202866,19,31,-4,1,0,4,21,11
1513489338202866,11,54,6,-7,-1,-2,-13,-1
1513489338202866,-26,-16,3,11,-5,-4,14,4
1513489338216883,-11,-24,-2,2,1,0,15,-6
1513489338216883,6,10,7,-25,-8,4,-2,-17
1513489338217889,-1,-24,-7,34,6,-4,-26,-2
1513489338217889,34,-12,-6,3,-1,-3,38,13
1513489338238900,-8,0,10,10,-3,4,31,16
1513489338238900,8,-3,3,-9,-1,-6,-31,4
1513489338239889,-2,-38,0,-4,-6,1,17,12
1513489338239889,10,0,-24,-21,-1,-3,-12,-17
1513489338262922,-7,11,13,5,0,1,-1,0
1513489338262922,12,-7,-11,12,-1,-2,11,0
1513489338262922,-1,5,13,3,-6,-3,-14,-24
1513489338262922,5,2,7,2,1,-4,0,10
1513489338276916,-45,12,-1,-8,-2,4,2,-8
1513489338276916,-6,-40,-16,11,2,-7,-1,14
1513489338277927,-19,16,4,8,1,0,-10,-18
1513489338277927,-8,2,10,-29,-9,-3,-16,-5
1513489338298934,3,-35,12,28,-1,1,12,4
1513489338298934,-20,13,-22,-11,6,-2,-12,5
1513489338299935,19,-32,6,5,-11,-6,12,7
1513489338299935,10,-35,9,6,11,5,-31,-2
1513489338322966,-13,-16,-46,-14,-5,-3,11,2
1513489338322966,-13,31,9,1,-3,3,-5,-8
1513489338322966,-8,-17,-14,-9,-1,-5,1,-6
1513489338322966,-2,17,17,-5,1,6,22,19
1513489338336983,21,1,-3,-8,1,3,-44,-11
1513489338336983,-1,1,-9,-20,-2,1,18,5
1513489338337971,-6,24,-2,7,-5,-5,-13,2
1513489338337971,-16,-10,1,3,-5,-2,-3,-9
1513489338358999,1,-16,-1,-3,1,-4,-2,0
1513489338358999,6,17,2,-12,-1,-2,-3,-6
1513489338359976,47,-17,1,20,9,9,3,8
1513489338359976,-14,20,-9,-10,-7,-4,-2,2
1513489338381991,22,-11,-1,4,-1,-4,-21,0
1513489338381991,11,-27,14,9,-5,4,18,1
1513489338382991,-9,-5,-23,-25,6,-5,12,1
1513489338382991,0,29,2,-1,-4,0,2,-4
1513489338397005,19,45,14,-3,1,0,1,8
1513489338397005,-16,-53,-13,13,-2,-2,5,-11
1513489338404013,-7,55,25,-3,0,-2,-21,-13
1513489338404013,-21,-88,-21,10,2,0,17,11
1513489338419023,-8,10,16,-6,-4,6,23,8
1513489338419023,20,18,8,-3,-1,-5,-28,-21
1513489338420025,17,2,-18,-3,-1,1,10,27
1513489338420025,-21,-72,-7,-2,6,-3,-28,-17
1513489338450041,11,26,6,-6,0,5,29,14
1513489338450041,0,15,1,0,-2,-3,-26,-22
1513489338451042,5,-10,-6,2,0,-5,-18,-8
1513489338451042,9,28,11,0,-5,5,20,2
1513489338457046,-3,-42,-9,6,0,-1,5,-7
1513489338457046,17,-1,-9,-8,12,-3,-39,-6
1513489338458046,-14,14,12,-8,-9,2,7,-1
1513489338458046,12,15,11,-3,-7,-2,22,8
1513489338479060,-7,-18,-23,-13,-5,-4,-27,-16
1513489338479060,1,51,34,42,4,6,34,17
1513489338480059,-8,-5,-43,-35,-3,-8,-8,-16
1513489338480059,9,6,4,6,-3,5,13,14
1513489338502078,18,40,24,5,7,-3,-56,-30
1513489338502078,3,-4,-29,-19,-1,5,33,30
1513489338503079,-9,-8,8,6,-1,2,-3,-6
1513489338503079,2,41,1,-7,0,3,4,2
1513489338517089,-13,-64,9,15,1,3,40,-1
1513489338517089,-17,-23,-5,-8,-1,-2,-2,-8
1513489338517089,-13,-19,3,7,-5,-9,-26,-17
1513489338517089,6,-14,4,-20,-5,-7,-18,-4
1513489338539157,-12,1,-16,25,7,3,14,9
1513489338539157,-1,-19,-10,-14,-5,-1,10,17
1513489338540103,2,-38,25,3,-7,-3,21,15
1513489338540103,6,59,-20,-7,12,-4,-10,-4
1513489338562121,-50,-11,-17,-20,-2,0,2,-10
1513489338562121,-18,-9,18,8,-2,-2,4,0
1513489338562121,-3,26,-1,-8,-9,-9,-7,-1
1513489338562121,-8,-20,10,15,5,-8,-82,-23
1513489338577148,11,5,-8,-9,-9,1,14,-4
1513489338577148,22,11,-2,-1,-1,-4,-1,3
1513489338577148,-14,14,8,6,2,1,-1,-2
1513489338577148,-10,-19,12,5,-5,1,19,11
1513489338607168,33,40,-24,-17,2,-1,4,-8
1513489338607168,-10,-41,13,18,-9,-9,-14,-9
1513489338608150,10,33,-19,-9,0,-1,-2,6
1513489338608150,-24,-7,14,22,-5,4,33,19
1513489338622188,4,-1,-4,-6,-1,-1,6,-8
1513489338622188,-6,-3,-5,-9,0,2,-3,0
1513489338623160,10,46,1,-11,5,-6,0,-7
1513489338623160,-7,-11,-8,3,-3,2,15,2
1513489338637191,-5,-5,16,-19,-5,1,-6,4
1513489338637191,6,20,-15,18,5,2,-13,-12
1513489338637191,-4,-13,-6,-1,0,-6,-4,-6
1513489338637191,9,2,12,-5,-3,0,-7,-9
1513489338659263,-4,2,0,-4,-6,-7,-3,5
1513489338659263,-6,-24,-24,-15,-8,-4,5,0
1513489338660251,-8,-37,-19,-7,-4,-3,-8,5
1513489338660251,-28,51,5,1,-1,3,12,-16
1513489338682267,30,10,-1,8,4,-2,-12,3
1513489338682267,17,17,20,9,-3,4,-1,3
1513489338683257,-37,-30,5,-9,2,-5,-14,-14
1513489338683257,6,3,-19,7,2,4,3,4
1513489338705303,-15,-3,-11,-3,6,3,7,10
1513489338705303,3,12,10,-7,-7,-8,-9,-16
1513489338705303,12,1,22,11,2,3,13,17
1513489338705303,11,25,-18,-16,-2,4,-3,-4
1513489338719312,-51,-31,-1,11,-1,0,-2,-10
1513489338719312,43,7,1,-9,2,0,15,19
1513489338720285,-11,-27,16,15,-8,-6,-4,-9
1513489338720285,-13,15,-5,-16,1,-4,9,5
1513489338742309,11,-2,21,13,-3,-1,-4,-2
1513489338742309,-10,-18,-28,0,-2,-3,2,-8
1513489338743313,21,20,-5,2,3,1,-12,7
1513489338743313,-1,-11,12,-18,1,-4,5,4
1513489338756319,-10,-3,7,18,5,7,25,17
1513489338756319,-12,48,5,-2,-2,-4,-33,-28
1513489338764326,37,28,-2,-3,-1,-4,2,12
1513489338764326,6,-66,-15,4,1,-4,-11,-11
1513489338779336,15,-42,-11,-10,-11,0,6,5
1513489338779336,-4,2,5,-9,5,4,16,9
1513489338780327,-7,6,-8,-3,-3,-3,-1,-9
1513489338780327,-4,-15,2,-1,-4,-6,-28,-8
1513489338802358,17,31,11,-1,-7,-2,-3,2
1513489338802358,-1,-19,-44,-35,8,3,19,17
1513489338803344,-15,-14,6,11,-1,1,3,-11
1513489338803344,7,-20,2,4,-4,-3,17,3
1513489338816353,-9,-19,11,0,-3,0,-26,-23
1513489338816353,0,11,7,-15,-5,-3,7,1
1513489338824418,-11,-15,-34,4,5,-2,-2,-7
1513489338824418,2,40,13,3,-4,-3,-2,-2
1513489338839397,-26,1,-3,0,2,2,-6,-4
1513489338839397,-2,-16,9,10,-3,1,8,3
1513489338840379,8,31,22,-1,-2,1,-6,-14
1513489338840379,11,15,-17,-12,3,-4,-20,-6
1513489338870390,8,15,-12,0,-4,-2,-27,-16
1513489338870390,4,-58,5,8,1,-4,-3,4
1513489338870390,-12,-30,5,1,-7,0,1,12
1513489338870390,5,17,17,8,-3,2,3,12
1513489338876398,7,7,-12,-22,11,1,16,9
1513489338876398,23,5,-2,10,-3,-4,-2,0
1513489338884399,-15,18,22,0,1,-3,-16,1
1513489338884399,-6,-67,-13,1,1,1,8,2
1513489338899410,-12,4,-1,1,-6,2,15,13
1513489338899410,6,-9,27,16,-3,0,-10,-26
1513489338900421,7,13,-44,-17,0,-2,0,9
1513489338900421,17,27,-7,1,-2,-3,-19,-11
1513489338922441,-10,-25,4,1,2,1,28,7
1513489338922441,-19,-12,-24,-13,1,-4,1,1
1513489338923427,4,40,29,14,0,-3,-4,6
1513489338923427,2,-14,7,8,2,2,8,4
1513489338936457,21,19,-9,-24,-3,4,-14,-9
1513489338936457,-6,-1,1,22,9,-4,-13,0
1513489338944452,17,-16,-14,-6,-5,-8,18,12
1513489338944452,8,-17,1,-3,-1,7,1,-18
1513489338959481,10,-8,-5,-4,-3,-4,-17,4
1513489338959481,-16,14,2,17,5,8,17,10
1513489338960453,-3,-10,16,4,-2,-4,-22,-1
1513489338960453,-39,7,-12,-15,-2,0,2,-4
1513489338982473,6,-17,-9,17,1,1,7,0
1513489338982473,-3,2,16,-12,-7,-2,-15,-2
1513489338983471,-33,-26,-24,6,0,-2,3,-6
1513489338983471,37,35,8,-15,-5,1,0,6
1513489338996503,-1,-29,-18,12,10,0,-3,-6
1513489338996503,-22,32,2,-14,-5,-2,1,-4
1513489339004510,14,0,20,14,0,-3,9,-20
1513489339004510,15,70,13,8,-2,6,5,4
1513489339019519,-10,8,-14,-25,0,3,14,2
1513489339019519,-14,-10,-5,20,2,-3,-2,-17
1513489339020496,28,8,4,-13,0,-1,17,20
1513489339020496,-23,7,-1,19,1,-4,-6,0
1513489339042522,2,-37,9,3,-7,1,-14,-8
1513489339042522,-7,13,-4,-17,-10,-6,-9,0
1513489339043513,-28,-56,-5,0,-2,-5,4,3
1513489339043513,-8,53,-4,2,0,1,9,1
1513489339072557,-4,5,-1,10,-3,-3,-6,5
1513489339072557,32,-19,-15,-12,3,2,11,8
1513489339073534,-1,21,13,-12,-8,-4,-2,-16
1513489339073534,-13,-71,-10,-3,0,-8,-25,-11
1513489339079544,-35,59,0,0,4,-3,8,-10
1513489339079544,-8,17,25,4,-7,-1,-9,1
1513489339080539,23,50,-25,-4,-6,2,-3,4
1513489339080539,5,-56,1,-12,3,-1,16,6
1513489339103560,0,10,10,6,-1,3,10,-1
1513489339103560,0,9,10,15,0,1,12,8
1513489339104572,-17,-14,13,-2,1,-1,1,13
1513489339104572,10,31,-10,-14,-7,-1,9,5
1513489339124586,15,-11,-2,-20,-7,-2,2,-1
1513489339124586,-4,-23,-18,13,4,-1,6,2
1513489339125570,-2,-9,1,-9,1,-6,-4,-2
1513489339125570,-3,-31,15,17,-3,3,13,1
1513489339139604,-8,47,0,-11,-1,-2,-6,0
1513489339139604,5,-31,-24,-16,-6,-5,-7,-19
1513489339139604,22,-35,-3,7,-3,-7,-7,-11
1513489339139604,9,2,30,7,0,3,11,5
1513489339162613,-9,-7,-29,11,4,0,-9,-8
1513489339162613,-17,18,4,-12,-5,-3,-12,-4
1513489339163598,8,19,5,1,3,4,4,10
1513489339163598,7,-7,-7,-9,1,-7,-31,-5
1513489339184630,-12,-22,14,0,0,0,-3,-16
1513489339184630,0,40,-3,5,0,1,9,12
1513489339185612,-5,10,2,-9,-4,-5,-24,-18
1513489339185612,2,-59,-4,2,4,-3,-3,1
1513489339199621,3,55,8,7,-5,-1,-9,1
1513489339199621,-11,-99,-18,-36,0,0,3,7
1513489339199621,-1,26,4,16,2,-4,-1,-6
1513489339199621,-4,-1,-5,-10,-3,-2,-14,-9
1513489339222663,-1,-2,0,11,2,-4,-20,-13
1513489339222663,1,-8,2,-2,-2,-3,9,3
1513489339223640,3,-4,4,-8,0,1,-14,-18
1513489339223640,-22,8,-6,6,-1,-1,14,3
1513489339244661,16,-28,-1,-6,0,3,16,9
1513489339244661,12,34,8,6,-2,-5,-19,-7
1513489339245658,-19,-9,0,0,-1,-2,-2,5
1513489339245658,-6,-8,-2,-11,-3,0,3,-14
1513489339259690,5,-12,-5,10,0,-2,-16,-1
1513489339259690,-8,-2,1,7,-2,-4,-3,1
1513489339259690,22,28,3,4,-3,3,-5,-4
1513489339259690,-7,51,-13,-21,2,-2,5,8
1513489339282706,4,-43,12,-12,-7,-3,-18,-15
1513489339282706,-5,-22,-17,-1,2,-1,-10,2
1513489339282706,1,15,-20,-3,-6,-7,2,13
1513489339282706,-14,33,20,5,-4,-1,1,-12
1513489339304711,26,-20,-8,-4,0,1,18,17
1513489339304711,-14,27,9,13,2,0,-13,-13
1513489339305697,-25,-50,-2,-15,-3,-6,-9,-6
1513489339305697,4,32,-3,-5,1,5,7,11
1513489339319707,-5,-29,-6,6,-9,-4,20,8
1513489339319707,2,-17,11,-4,-1,-4,-20,-9
1513489339319707,0,16,-10,-3,-2,-6,12,5
1513489339319707,1,-41,-9,12,-2,3,22,12
1513489339342791,-6,9,0,-12,4,-4,-24,-29
1513489339342791,-28,16,-2,7,1,2,9,3
1513489339342791,-7,-59,-3,-20,-10,-9,-15,-10
1513489339342791,7,15,7,12,-2,2,-4,-5
1513489339364811,-11,-11,-4,-2,2,2,3,8
1513489339364811,-1,-1,-7,-3,-2,-6,4,8
1513489339365799,11,26,13,6,2,5,19,7
1513489339365799,-12,-1,-3,5,3,0,3,-10
1513489339378820,-11,-2,4,0,-3,0,4,6
1513489339378820,15,21,-17,-10,0,1,1,-3
1513489339379809,10,-44,11,10,2,1,3,7
1513489339379809,9,-4,-8,-4,-2,0,-11,-10
1513489339402838,17,41,4,-4,0,-1,6,3
1513489339402838,2,-10,-11,5,2,-2,-8,-6
1513489339402838,-12,17,2,6,2,2,6,-11
1513489339402838,-2,-40,0,-2,-2,-3,-7,-8
1513489339424863,-9,-8,-8,-2,2,1,11,3
1513489339424863,-7,6,7,-3,-3,-3,-22,-9
1513489339425840,-7,21,12,7,-5,4,5,3
1513489339425840,5,-6,-4,-14,0,-5,-1,5
1513489339438867,-9,65,-7,3,0,-3,-3,3
1513489339438867,24,-7,3,-4,-2,3,9,13
1513489339439850,-7,15,5,6,3,4,0,6
1513489339439850,19,2,1,-1,-10,-4,-14,1
1513489339462867,0,22,-2,-10,9,1,-6,-2
1513489339462867,1,0,-4,-8,-6,-4,13,11
1513489339462867,-11,-7,-3,9,8,1,-16,-6
1513489339462867,8,14,2,-5,-6,-6,-8,-2
1513489339484882,0,-6,-4,-3,-3,-2,-4,-2
1513489339484882,19,10,-15,5,-2,-1,6,4
1513489339485883,10,-3,-8,-12,0,1,9,14
1513489339485883,-5,3,-2,6,1,1,5,0
1513489339498911,-3,-10,8,6,-2,2,1,-1
1513489339498911,3,-15,-1,-14,-1,-7,-5,0
1513489339499893,7,-2,8,11,-1,-2,2,13
1513489339499893,8,-1,-14,-6,-4,-2,-5,-3
1513489339522908,5,15,-10,-8,-6,1,13,-3
1513489339522908,10,-2,8,13,5,2,15,18
1513489339522908,8,-3,-1,-7,-5,-3,-36,-35
1513489339522908,-12,-7,-5,0,7,-2,-13,-10
1513489339544924,-11,16,3,5,0,2,2,5
1513489339544924,-10,-16,12,-7,-1,-3,-12,-14
1513489339545924,1,31,-13,-9,-5,-5,7,12
1513489339545924,12,-10,-5,11,1,2,6,-5
1513489339558972,4,-29,-2,-3,-4,-1,-4,-3
1513489339558972,-15,3,3,0,3,4,-6,1
1513489339559947,0,-6,1,-5,-4,-2,1,5
1513489339559947,-12,46,18,-2,-4,0,9,-5
1513489339581953,-5,-25,-13,6,-2,-2,-13,-6
1513489339581953,-1,-50,-5,-5,0,-3,6,-8
1513489339582951,-15,-21,0,-5,-6,2,2,5
1513489339582951,-11,-27,-11,0,7,2,7,15
1513489339605017,7,-1,1,-5,-6,-4,8,4
1513489339605017,7,35,-5,0,1,-1,3,-3
1513489339605980,-9,25,13,2,-4,-6,-6,-9
1513489339605980,-8,-19,-2,-8,3,1,1,-1
1513489339619028,-5,-6,-19,-5,-2,-4,-6,-4
1513489339619028,-6,-46,-9,-12,-11,-4,-2,2
1513489339619977,4,-4,-7,-4,4,-5,-27,-15
1513489339619977,-17,6,6,-1,-7,-7,17,-16
1513489339642008,-3,-6,7,7,2,2,40,4
1513489339642008,0,25,0,-1,-1,-4,-9,-1
1513489339642994,2,45,4,-1,2,-2,7,-7
1513489339642994,-13,-38,5,0,-7,4,-9,8
1513489339665019,-22,-39,-16,-21,0,-4,-9,-2
1513489339665019,-5,24,5,17,-5,-3,27,2
1513489339666010,18,-12,6,5,0,-3,-8,4
1513489339666010,3,14,-4,-4,-1,1,-10,-7
1513489339679019,-1,-4,8,4,1,2,-7,1
1513489339679019,-9,-31,-15,-12,0,-5,-2,9
1513489339687046,-11,-6,-1,-3,-5,-2,13,-5
1513489339687046,-9,10,3,-11,-2,2,0,-6
1513489339702063,-14,3,-4,7,-3,-4,-9,8
1513489339702063,23,20,10,2,1,-5,-28,-25
1513489339703054,-11,3,5,-5,-4,-1,11,2
1513489339703054,11,-20,-13,-3,2,1,6,14
1513489339725138,0,43,6,5,1,-2,-9,-6
1513489339725138,-7,2,9,5,-3,-4,-6,-1
1513489339726111,-5,-4,1,3,4,5,4,-2
1513489339726111,-1,11,-1,4,-4,1,8,9
1513489339738111,17,9,19,5,-1,2,-21,-12
1513489339738111,-16,-41,-21,-4,3,-1,8,-1
1513489339747121,-2,-8,-12,-4,-5,-4,-5,0
1513489339747121,2,-13,-3,5,2,1,-1,-14
1513489339762131,-6,-15,-7,-11,-3,-5,10,-1
1513489339762131,-14,12,-3,-1,-2,1,-5,-1
1513489339763116,13,-11,17,20,10,3,3,10
1513489339763116,-3,-18,-22,-10,4,4,-15,-11
1513489339785155,3,5,1,-7,-1,6,10,5
1513489339785155,14,-9,3,3,0,-5,-7,-1
1513489339786133,-18,-52,1,-11,-2,-2,18,10
1513489339786133,1,-8,8,18,-3,-6,-38,-40
1513489339798295,10,5,-3,2,5,4,2,-4
1513489339798295,-1,35,0,-5,-3,-1,6,11
1513489339806300,-1,-6,-4,-3,-4,-1,2,-7
1513489339806300,-4,8,6,-7,-3,0,10,5
1513489339822309,-1,-13,-5,0,-2,-2,7,6
1513489339822309,-10,0,7,2,-1,-3,-8,-12
1513489339823309,15,14,-4,6,1,0,2,-3
1513489339823309,-10,21,10,-1,-4,1,-21,-1
1513489339845321,13,-10,-19,-9,-2,-5,1,-2
1513489339845321,-8,-36,4,2,3,0,7,3
1513489339846324,13,19,-1,-21,-2,-1,-9,11
1513489339846324,4,5,3,6,-2,-1,13,12
1513489339858333,7,-25,-17,6,3,2,-5,1
1513489339858333,-10,3,9,-3,-4,-6,0,0
1513489339867340,0,1,-16,-19,-7,-6,-6,-7
1513489339867340,1,7,1,11,5,2,-6,-5
1513489339882368,-6,-3,1,-17,-7,-4,-10,-3
1513489339882368,-18,10,-1,10,6,5,15,3
1513489339884370,-13,21,4,5,-1,2,9,1
1513489339884370,-1,5,-2,0,-1,1,9,4
1513489339905389,17,-1,9,-1,0,-1,-34,-15
1513489339905389,4,31,-6,6,3,1,0,8
1513489339906389,-10,-32,5,7,-3,-6,-19,-12
1513489339906389,-2,5,-1,-7,-1,1,0,5
1513489339918398,1,35,6,8,2,5,13,20
1513489339918398,15,34,-1,-11,-2,-3,1,-2
1513489339927411,3,24,3,13,3,3,3,0
1513489339927411,-19,-9,-8,-2,1,2,1,6
1513489339942407,-19,-22,3,10,-4,-6,-2,-5
1513489339942407,10,-36,-4,-10,0,-7,-6,4
1513489339944398,7,6,-2,10,0,0,0,-3
1513489339944398,-6,11,-7,-11,-2,-1,-7,-15
1513489339965432,4,-2,0,7,-2,-1,1,-6
1513489339965432,10,36,9,-6,-4,-4,-16,-1
1513489339966412,-13,-28,-9,-5,-2,0,2,3
1513489339966412,11,12,5,2,-2,2,16,3
1513489339987447,-2,-7,-13,-11,-2,-4,-10,-3
1513489339987447,13,-30,-10,8,5,0,-10,0
1513489339989448,8,5,7,-8,-1,-1,4,14
1513489339989448,1,-22,3,2,-3,-4,-1,-12
1513489340002447,2,6,-4,-3,-1,2,-12,-2
1513489340002447,-4,7,3,-2,-4,-2,6,9
1513489340004448,0,12,6,2,2,0,0,-2
1513489340004448,0,2,-5,1,5,2,11,-6
1513489340024499,-3,-4,4,-3,-3,2,-3,-3
1513489340024499,-10,-13,5,4,-3,-7,-29,2
1513489340026473,31,10,-5,-7,-1,8,33,3
1513489340026473,-20,-23,4,13,6,2,13,10
1513489340047465,-9,-7,-1,2,0,-2,-24,-2
1513489340047465,-4,9,0,-7,-3,-2,15,-6
1513489340049466,-21,-28,4,-4,-2,-6,-8,-5
1513489340049466,-11,-13,1,-1,1,-2,-6,9
1513489340062475,1,-6,-31,-19,-6,-2,-2,-12
1513489340062475,8,-39,-1,6,4,-3,-9,-2
1513489340064477,4,8,-7,-4,-3,2,0,6
1513489340064477,10,28,-4,-4,-4,2,-16,1
1513489340084532,-1,-31,-5,-1,1,-7,3,-4
1513489340084532,-11,2,3,2,-1,-4,1,-1
1513489340086492,8,22,13,1,0,-2,5,-7
1513489340086492,2,11,2,-12,-8,-4,-12,0
1513489340107526,2,-48,-2,17,5,2,13,5
1513489340107526,12,2,-12,-8,-12,-7,1,-2
1513489340109526,-16,-28,1,-10,-7,-7,-24,-16
1513489340109526,5,29,11,20,7,6,40,-6
1513489340122546,-14,9,8,-5,-4,-1,7,7
1513489340122546,11,-39,-21,-7,-1,-4,-31,-14
1513489340124548,-16,-19,5,8,0,0,4,4
1513489340124548,19,17,-4,-4,-2,0,-36,-9
1513489340144554,-10,42,8,-1,-3,-1,12,5
1513489340144554,-10,15,-2,-1,0,0,9,10
1513489340146535,-7,-17,3,-1,-4,-2,-19,-31
1513489340146535,6,15,1,-5,-5,-2,-9,-5
1513489340167552,13,-34,-13,-5,2,-3,-5,2
1513489340167552,-18,-10,1,-5,-5,1,17,-1
1513489340169554,-8,23,0,0,2,1,-9,0
1513489340169554,-5,-18,-6,-7,-1,2,14,0
1513489340189601,2,-1,8,13,2,3,6,7
1513489340189601,22,31,9,-4,-6,-4,-17,-11
1513489340191568,8,18,-12,-7,4,-2,3,4
1513489340191568,-8,-15,-14,6,2,-1,-8,6
1513489340204588,-7,30,14,-12,-3,-1,3,-4
1513489340204588,2,-7,0,16,5,-1,0,5
1513489340206577,1,30,11,-5,-3,-4,5,4
1513489340206577,0,-19,0,12,-4,1,4,2
1513489340227616,4,32,-7,-9,0,0,-11,-4
1513489340227616,1,6,-2,-6,0,0,5,-8
1513489340228593,12,-5,-9,2,-1,0,10,7
1513489340228593,-8,-24,5,-14,-1,4,-26,-22
1513489340241658,8,-28,-16,-8,-5,-5,-15,2
1513489340241658,0,5,-4,10,3,-2,30,-9
1513489340248609,1,3,0,-1,-3,6,18,5
1513489340248609,-15,-66,2,-5,-7,-5,-5,-29
1513489340264623,1,-18,-12,-5,-1,-1,-6,-2
1513489340264623,25,28,16,12,0,-2,-26,-1
1513489340266623,-5,14,-5,-4,1,3,9,9
1513489340266623,9,28,-8,-6,2,4,29,15
1513489340287658,-2,-10,8,6,4,0,-18,-23
1513489340287658,-10,-4,2,-3,-6,-4,2,8
1513489340288635,-7,-49,-2,-1,-4,-2,0,-5
1513489340288635,-4,4,1,-17,-4,0,-3,1
1513489340301668,-10,13,-14,6,2,-5,-1,-5
1513489340301668,-6,3,-5,-1,1,-2,-1,9
1513489340308673,-26,-15,2,6,1,-3,-21,-1
1513489340308673,-7,-4,-12,-16,-5,-3,-19,-5
1513489340324674,3,-1,11,-14,-6,1,19,8
1513489340324674,-3,6,6,11,2,-1,9,-1
1513489340326664,7,-38,-13,-2,-1,-6,-18,5
1513489340326664,-3,10,2,0,-3,-1,1,-3
1513489340347686,-6,5,-2,8,-1,-2,7,2
1513489340347686,4,-11,-11,-11,-2,-2,5,-2
1513489340348676,-12,5,2,-1,1,-1,-7,4
1513489340348676,4,-20,-1,3,2,6,22,16
1513489340361701,23,-9,-8,17,3,-1,-15,-10
1513489340361701,9,16,7,-18,-3,-1,10,4
1513489340368702,12,16,2,-2,0,2,18,4
1513489340368702,-15,-16,-1,15,5,0,-22,-29
1513489340384793,-15,-14,13,2,-1,-1,3,3
1513489340384793,16,3,-6,-7,-4,-6,-6,5
1513489340390796,6,-47,-4,0,2,4,-9,-7
1513489340390796,1,8,1,-4,-6,-3,0,-4
1513489340407844,0,-3,-1,-4,1,4,13,7
1513489340407844,-13,-12,-1,8,1,-7,-14,-3
1513489340408803,-9,16,-2,-3,-4,-2,-7,-5
1513489340408803,8,9,-3,-2,-3,0,0,8
1513489340421810,-2,-16,-15,-5,1,-3,1,0
1513489340421810,-46,-1,6,-13,-3,-2,-28,0
1513489340428827,3,15,0,-1,-4,-2,4,-3
1513489340428827,1,19,-4,-3,3,-5,-11,-5
1513489340444830,14,-9,-15,1,-1,-6,1,9
1513489340444830,19,-5,7,-2,-4,-1,14,1
1513489340446831,-1,19,5,-1,0,0,-12,-15
1513489340446831,8,13,-6,-1,-2,0,21,9
1513489340466848,0,-25,4,-7,-2,6,-1,-2
1513489340466848,-17,-2,4,8,0,-2,-7,-10
1513489340468831,16,13,-2,-3,0,0,-2,11
1513489340468831,22,1,-9,-4,0,-1,0,4
1513489340480842,-1,42,13,5,0,0,-5,-1
1513489340480842,20,-14,-5,0,2,2,17,16
1513489340489845,-6,-3,9,2,-9,-6,11,1
1513489340489845,-16,4,2,10,10,6,-10,-11
1513489340504898,-23,12,-1,-8,-2,-2,15,-10
1513489340504898,3,20,-20,-35,-5,-6,-23,-14
1513489340506888,-12,-33,-6,30,5,-1,-9,6
1513489340506888,11,40,6,-4,-7,4,44,-5
1513489340527895,9,-25,7,8,1,-3,-13,9
1513489340527895,4,-49,10,1,-1,-1,12,10
1513489340528874,9,9,-15,-10,-4,5,7,-5
1513489340528874,-13,6,-1,-2,3,2,-3,17
1513489340540939,-3,1,1,3,-2,-3,-17,-24
1513489340540939,-4,4,-8,-10,-1,-2,-6,5
1513489340549888,8,4,-5,-2,-2,-2,-4,-2
1513489340549888,23,-29,-4,-3,-4,-1,-5,5
1513489340564927,21,10,6,0,-1,0,7,-1
1513489340564927,-32,-4,-6,3,2,-4,-10,-7
1513489340566901,-3,-32,6,-15,-3,-1,0,-8
1513489340566901,6,19,1,6,5,6,2,0
1513489340587917,-24,-3,-9,14,-4,-7,-14,4
1513489340587917,9,3,2,4,1,5,18,-1
1513489340588918,-6,2,8,0,4,1,-2,-1
1513489340588918,-13,-14,-8,-17,-5,2,13,4
1513489340600926,-17,-21,-5,1,0,1,19,10
1513489340600926,15,19,2,5,-4,-3,-17,5
1513489340609935,-16,0,-8,-3,2,-2,4,2
1513489340609935,-3,-36,-10,-2,-1,-2,-14,8
1513489340624959,-3,16,-7,-8,-7,-5,13,3
1513489340624959,12,8,10,-2,-3,-4,-9,4
1513489340626961,-4,2,-3,-1,-6,-4,9,4
1513489340626961,-14,6,0,5,0,-1,3,-2
1513489340647959,14,-11,0,-8,-3,-5,-7,1
1513489340647959,-6,2,2,-6,-3,-2,-1,2
1513489340648958,-1,2,5,11,-1,-3,9,-1
1513489340648958,-21,-8,0,6,1,0,-5,-2
1513489340660966,30,9,-1,-7,-2,-5,6,10
1513489340660966,-23,-13,11,6,-5,0,-15,-5
1513489340669973,12,-16,-12,-12,5,4,-6,-6
1513489340669973,-6,3,-7,-2,-7,-4,-2,1
1513489340685039,4,23,8,3,3,0,-11,-20
1513489340685039,15,-4,-6,9,0,-2,3,-1
1513489340686008,-14,11,6,1,-2,2,-4,5
1513489340686008,1,-4,-5,1,0,-2,7,-7
1513489340707021,-10,5,-4,-5,0,3,0,7
1513489340707021,5,-2,5,2,-1,-3,3,-2
1513489340708999,-4,19,3,5,1,-4,-9,-9
1513489340708999,1,-2,-7,-7,0,-2,-1,-4
1513489340721027,0,-12,-7,-1,-1,3,17,20
1513489340721027,3,32,3,1,-2,-1,4,-9
1513489340730033,-11,-8,6,3,-2,-1,4,1
1513489340730033,1,-12,-5,-9,-2,-2,-25,-3
1513489340745056,-5,-38,-15,-4,-2,-5,0,10
1513489340745056,0,2,4,1,-2,-3,-20,-6
1513489340747029,2,1,-1,2,-3,2,16,2
1513489340747029,0,22,3,0,2,2,14,4
1513489340767070,-14,-23,0,0,3,-1,-16,-14
1513489340767070,1,-8,2,2,-1,-2,4,8
1513489340769044,-1,-8,2,2,-3,-1,-17,-9
1513489340769044,15,10,5,5,-2,-2,0,0
1513489340781051,-4,23,-1,-7,2,3,-4,-4
1513489340781051,-6,-9,-4,-1,-2,-3,23,4
1513489340790075,3,3,2,-4,-2,-1,0,-9
1513489340790075,-1,-1,-3,1,-1,0,-11,-7
1513489340805068,-1,21,7,1,-4,-6,-11,-2
1513489340805068,-10,-25,-3,-1,-2,-1,0,2
1513489340812073,4,0,-2,-3,2,4,2,4
1513489340812073,3,-11,-9,0,-2,-4,-16,-6
1513489340827085,-3,-1,0,-3,-3,-5,-19,-3
1513489340827085,3,8,-4,-2,2,0,0,1
1513489340829101,8,9,3,-1,-3,-3,8,-9
1513489340829101,-3,1,-7,-2,-1,1,9,-6
1513489340841151,1,-28,2,-2,-2,-3,-9,-2
1513489340841151,-3,0,-8,-2,1,1,10,2
1513489340850102,4,-1,4,-2,-2,1,0,-2
1513489340850102,-2,-2,-1,0,-1,-1,-1,4
1513489340865132,-7,7,-2,4,1,2,11,-4
1513489340865132,3,2,-1,-4,-2,-1,-1,-2
1513489340866112,3,13,5,-1,0,-2,-8,-4
1513489340866112,-4,-10,-3,0,-1,0,5,0
1513489340887192,-3,-1,-2,-1,-2,-1,8,4
1513489340887192,-8,2,6,-2,1,-2,-12,-7
1513489340889128,0,6,-6,-2,-2,0,-7,2
1513489340889128,-5,-3,-2,-3,-1,-2,3,1
1513489340910164,3,13,-1,0,-2,0,5,-1
1513489340910164,-3,-3,0,-1,-2,-4,-3,-1
1513489340911149,-3,-5,-4,-2,0,0,0,-3
1513489340911149,-1,-3,-2,-2,2,0,-3,-3
1513489340925183,-3,-3,2,-1,-2,-4,-3,-4
1513489340925183,0,2,0,-2,-1,-1,0,-3
1513489340926168,-1,-6,0,3,2,2,-5,0
1513489340926168,0,-2,-6,-4,-1,0,-6,-2
1513489340947183,4,13,-2,0,-2,-4,-1,-1
1513489340947183,-2,0,3,1,0,0,-6,2
1513489340949179,-3,-1,1,-1,-3,-2,1,2
1513489340949179,2,-1,-2,-2,0,0,-1,0
1513489340971188,-2,3,0,0,1,1,-2,-3
1513489340971188,1,0,-1,-3,0,2,2,-1
1513489340973230,0,-2,-2,-4,-1,-5,-3,1
1513489340973230,-4,-1,0,0,0,1,-1,-6
1513489340985225,2,-3,-3,-3,-1,-7,1,2
1513489340985225,-4,5,4,-1,0,1,-3,-3
1513489340986197,-2,-3,-9,0,-1,-12,-5,-1
1513489340986197,1,-1,-2,-2,-3,9,-3,-1
1513489341007229,0,0,1,-1,-1,-1,-1,1
1513489341007229,1,-3,1,1,-1,-2,1,-1
1513489341009229,1,0,3,-1,-1,2,-2,-1
1513489341009229,1,3,16,2,-1,-4,-1,-6
1513489341030228,1,-7,-50,-7,-1,-3,-2,-2
1513489341030228,-4,-4,-7,-4,-2,-2,2,0
1513489341031228,0,2,3,1,0,1,-1,-1
1513489341031228,-6,-11,16,-1,-3,-3,-1,-1
1513489341045254,2,4,-8,1,1,1,-4,1
1513489341045254,-3,-12,-26,-10,-5,-6,-3,-1
1513489341046241,0,0,2,-2,-1,2,0,0
1513489341046241,1,-1,-6,1,0,-1,-2,0
1513489341067253,-1,7,38,7,-1,3,4,-2
1513489341067253,0,0,-9,1,-1,2,-2,-2
1513489341069254,-2,-5,-8,-2,-1,0,-2,0
1513489341069254,2,2,4,-3,-2,-2,-3,-1
1513489341090281,-2,2,3,4,-1,-1,-3,-2
1513489341090281,-3,3,25,2,-1,-1,-2,-2
1513489341091274,-4,-10,-12,-7,-3,6,2,-1
1513489341091274,-2,-2,-12,-1,0,-2,-1,0
1513489341104290,0,-2,13,-5,-5,-6,-2,0
1513489341104290,-3,1,1,1,2,-1,-3,-1
1513489341111296,0,3,-1,3,0,1,-1,-3
1513489341111296,-2,3,1,2,-2,-2,0,0
1513489341127367,1,0,9,-1,-1,-2,-2,1
1513489341127367,1,-6,-37,-8,-3,-3,-4,0
1513489341129297,-3,0,-2,0,-1,2,2,-2
1513489341129297,2,3,17,0,2,-3,1,-1
1513489341150312,-1,-12,-39,-9,-3,-4,-1,-2
1513489341150312,2,4,9,5,0,-3,0,1
1513489341151312,-5,-2,5,-1,0,-2,-2,-2
1513489341151312,-1,1,-9,1,1,0,-2,0
1513489341164338,-2,0,4,-2,-1,-2,-2,-5
1513489341164338,-1,-3,5,-1,-1,-3,0,3
1513489341171352,0,7,7,1,0,1,1,-3
1513489341171352,-1,4,14,8,2,1,0,-2
1513489341187395,-2,-10,-59,-9,-3,-1,-2,0
1513489341187395,-2,3,79,9,-2,-4,0,0
1513489341189364,-2,-36,-92,-41,-14,-7,-6,-3
1513489341189364,0,6,6,-2,0,2,-1,0
1513489341210369,4,7,12,2,2,2,-1,1
1513489341210369,2,7,8,5,1,-2,0,-2
1513489341211356,1,9,31,12,4,4,-1,-2
1513489341211356,-6,-7,-17,-3,-4,-6,0,-2
1513489341224420,-2,-1,3,1,1,-1,-3,-2
1513489341224420,0,2,-1,3,2,0,1,-1
1513489341231415,-1,2,18,4,-1,0,3,-1
1513489341231415,1,-12,-39,-8,-3,1,-2,-1
1513489341247417,-2,7,29,4,0,-1,0,0
1513489341247417,-1,-6,-17,-7,-5,-3,1,0
1513489341249428,-2,1,0,2,0,3,0,-4
1513489341249428,-1,2,3,0,-1,0,-3,1
1513489341269433,3,-2,13,0,-2,-1,-4,0
1513489341269433,-1,1,-8,-4,-2,2,-1,-2
1513489341271434,-1,-1,-2,3,0,2,2,-4
1513489341271434,1,-2,17,-4,-3,-3,-3,2
1513489341284443,-4,1,8,1,0,-2,-1,-1
1513489341284443,-1,2,12,-2,0,-2,-2,-2
1513489341291451,-3,9,2,10,3,0,2,0
1513489341291451,-4,-12,-62,-9,-3,-3,-3,-5
1513489341307518,0,-5,-4,-4,-3,-4,-1,-3
1513489341307518,2,1,-7,-2,-1,-1,-2,-4
1513489341309492,-4,2,22,3,1,1,0,13
1513489341309492,-2,1,5,0,0,-1,1,2
1513489341329504,0,-3,-5,-3,-2,-3,2,-6
1513489341329504,-2,-2,-8,-1,-1,-3,-3,6
1513489341331477,3,-1,8,-1,2,1,-3,-5
1513489341331477,1,-1,0,1,-1,-2,-1,3
1513489341344505,1,-5,-7,-2,0,-2,-2,4
1513489341344505,0,-4,3,-3,-3,-3,2,-6
1513489341351490,0,2,-2,-2,0,-2,0,-6
1513489341351490,-1,-3,-7,-2,-3,-4,-4,-5
1513489341367521,-3,3,9,1,1,-4,-1,1
1513489341367521,-5,-1,-6,1,-2,3,-3,-2
1513489341369503,-3,-6,-4,-4,-3,-2,1,-5
1513489341369503,-1,3,7,1,-1,2,2,-2
1513489341389540,3,0,-2,1,0,-3,0,1
1513489341389540,-1,-3,-10,-5,-1,0,-3,3
1513489341391518,-3,-2,-1,0,-1,0,-3,-5
1513489341391518,-4,-3,4,1,0,1,-2,-1
1513489341403540,1,0,2,0,-2,-4,-3,2
1513489341403540,-1,1,-3,-1,0,-2,2,0
1513489341412547,-2,-6,-3,-1,-2,0,-2,-3
1513489341412547,-3,-2,-1,-2,-1,-1,-3,-3
1513489341427569,1,-2,-1,-2,-1,0,-2,3
1513489341427569,-1,1,-1,-2,-1,-1,-1,-2
1513489341429547,2,-3,2,0,-1,0,2,-4
1513489341429547,0,-4,-3,0,0,-3,1,0
1513489341449570,-2,-1,3,0,0,1,-1,16
1513489341449570,-2,0,1,-2,0,-2,-2,-10
1513489341451561,-2,2,-3,0,-2,0,1,-1
1513489341451561,1,-4,-5,-3,0,-4,-3,1
1513489341463580,-1,-1,2,-2,-1,-4,-2,-3
1513489341463580,0,-3,-2,-2,-3,2,0,-1
1513489341472634,-3,-1,-2,-2,1,2,0,0
1513489341472634,3,0,-1,0,-1,-3,-2,-6
1513489341487704,0,0,1,-3,-2,-1,-3,-5
1513489341487704,0,-1,-3,2,-1,-3,0,2
1513489341488661,-2,-2,-1,0,-1,0,-3,-4
1513489341488661,-1,0,1,0,0,0,-1,0
1513489341509661,-2,0,2,0,-1,-4,-2,-1
1513489341509661,-2,-3,-3,-2,0,-1,0,4
1513489341511663,1,0,1,-1,-1,0,0,-3
1513489341511663,-3,-1,-3,0,-1,-2,-1,-1
1513489341523670,2,-1,-1,1,-1,-2,-1,1
1513489341523670,-3,-1,-1,-2,-2,-1,0,-2
1513489341532677,0,-1,-2,-3,0,0,1,-2
1513489341532677,1,-4,-2,-4,-2,-1,-2,0
1513489341547740,2,0,1,-2,-1,-3,-3,-1
1513489341547740,-2,0,0,0,-1,1,-1,0
1513489341548741,-2,-2,-2,0,-2,-2,0,-1
1513489341548741,2,-2,-2,-2,-2,-3,0,-3
1513489341569793,-2,-1,-1,-1,-2,-4,-2,0
1513489341569793,-1,-1,2,-1,-2,-1,-3,3
1513489341571779,-2,-1,-1,-2,-1,1,-1,-2
1513489341571779,-2,-1,-1,-2,1,-1,0,-3
1513489341583787,0,-2,-2,0,-2,-3,-2,0
1513489341583787,0,-1,-1,-1,0,-2,-2,-1
1513489341592780,-1,-1,-2,-1,-1,0,1,-3
1513489341592780,1,-3,-1,-1,-1,-1,-1,-2
1513489341607801,-1,-1,-1,-1,0,-1,-1,1
1513489341607801,-1,1,0,0,0,0,1,-1
1513489341608781,-3,-1,-3,-2,-1,1,-2,-1
1513489341608781,-1,0,-2,-1,0,1,-2,-2
1513489341629825,0,-2,-1,-1,0,-1,-1,1
1513489341629825,-1,-3,-1,0,0,-1,-3,-1
1513489341631800,-5,-1,-3,-1,-1,-1,0,0
1513489341631800,-3,-1,-2,0,-3,1,-2,0
1513489341643826,-4,-2,0,0,-2,-2,0,-3
1513489341643826,1,-1,1,0,0,-2,1,-2
1513489341652816,1,-2,-1,-1,-2,1,0,-1
1513489341652816,-2,-1,-1,-2,0,0,-1,0
1513489341667823,2,0,-1,-3,-1,-3,0,0
1513489341667823,-1,-1,0,-1,-3,-2,0,-4
1513489341668843,0,-1,-3,-1,0,1,-3,0
1513489341668843,1,-1,-2,0,-2,0,-2,1
1513489341689859,-3,0,2,-1,0,-4,-2,2
1513489341689859,1,-1,0,-1,-2,1,-2,1
1513489341691859,-2,-2,-3,0,0,0,0,-2
1513489341691859,1,0,-1,-1,-1,1,-2,-2
1513489341703850,-1,0,1,-2,-1,-3,-1,-1
1513489341703850,-3,-1,0,-2,-2,-2,1,-2
1513489341712856,0,-2,-3,0,-2,1,-1,-3
1513489341712856,-3,-2,-3,-1,-3,-3,2,0
1513489341727883,-3,0,1,-1,-1,-2,-3,0
1513489341727883,0,0,0,-1,-1,-1,-1,-1
1513489341728866,-3,-1,-1,-2,-1,-1,2,-2
1513489341728866,-2,-2,-2,-1,-1,-2,0,2
1513489341749890,1,-1,0,-1,-2,-2,-1,-1
1513489341749890,0,-1,-1,0,-1,-2,-1,1
1513489341750891,2,0,-2,-1,-2,3,-2,-2
1513489341750891,1,-2,-2,-2,-1,0,0,-2
1513489341763905,0,0,0,-1,-3,-2,-1,1
1513489341763905,-2,-2,0,0,-1,-4,-1,-3
1513489341772903,1,-1,-1,0,-2,2,-2,-1
1513489341772903,-1,0,-2,-1,-1,-1,0,-1
1513489341787916,-4,-1,0,-1,-2,-1,-2,-1
1513489341787916,-1,1,1,-1,0,-1,1,0
1513489341788909,0,-2,-2,0,0,-2,-4,-2
1513489341788909,1,-1,-2,-1,0,-3,2,0
1513489341809927,1,-1,0,-3,0,-2,-1,1
1513489341809927,-2,-1,1,-2,-3,0,-1,0
1513489341811929,-5,-2,-3,0,-2,2,-1,-4
1513489341811929,2,-1,-2,-3,-2,0,-3,-1
1513489341823949,-1,-1,0,2,-1,-4,-1,0
1513489341823949,2,-1,0,-3,0,1,-2,-3
1513489341832989,0,-2,0,-2,0,1,0,1
1513489341832989,0,-1,-1,-1,-3,-1,-2,0
1513489341846952,-1,1,-1,-3,-1,-1,0,3
1513489341846952,-1,-1,0,-1,-2,0,-3,-1
1513489341848952,-1,-1,-3,-2,-1,0,-3,-3
1513489341848952,-1,-3,0,-1,-1,-1,0,-2
1513489341870027,3,-1,0,-1,-1,-2,1,-3
1513489341870027,-2,-1,-1,0,-2,-2,-1,2
1513489341870968,0,0,-1,-1,0,2,0,-3
1513489341870968,-2,0,-1,-1,1,-4,-5,0
1513489341891996,3,-3,1,0,-2,-3,-3,-3
1513489341891996,-2,-1,0,0,0,1,-3,1
1513489341894993,-4,-1,-2,-2,0,-1,2,-1
1513489341894993,2,-1,-2,-1,-1,0,-1,1
1513489341906004,-1,-1,0,0,-1,-1,-3,0
1513489341906004,-1,-1,-1,-1,-1,0,0,-3
1513489341915020,-2,-2,-2,-4,-1,-1,1,-1
1513489341915020,-3,-3,0,0,0,-1,-2,0
1513489341930013,3,0,0,0,0,-5,-2,0
1513489341930013,0,-1,-1,-3,1,0,-2,-3
1513489341931013,-4,-1,-4,0,-1,-1,-2,-1
1513489341931013,0,-1,-3,-2,-2,-3,1,-3
1513489341952031,-5,-1,1,-3,-1,-1,-2,1
1513489341952031,1,-1,0,0,-2,-1,-2,-2
1513489341954034,2,0,-2,-3,-1,-3,-1,-2
1513489341954034,0,-2,-2,-1,-1,1,0,-3
1513489341967041,1,-1,1,0,-1,-3,0,-1
1513489341967041,-1,1,-1,-1,-1,0,0,-2
1513489341969042,0,-2,0,0,0,0,0,-2
1513489341969042,-3,-1,-2,0,-2,0,-2,0
1513489341990114,3,0,-1,0,-1,1,-1,1
1513489341990114,-1,-2,0,0,-2,0,-1,-1
1513489341991068,-1,-4,-4,1,-1,-1,3,0
1513489341991068,1,-1,-3,-1,0,-2,-2,-1
1513489342012069,-4,1,0,1,-2,-1,-2,1
1513489342012069,-4,-1,0,0,-1,-1,-1,0
1513489342014070,-3,-2,-2,-1,-2,1,-2,-4
1513489342014070,-1,1,-3,-2,-1,-3,-3,1
1513489342027078,-4,0,-1,-1,0,-3,0,0
1513489342027078,-4,-1,1,-2,-2,-5,-3,-2
1513489342033081,-3,-2,-2,1,-2,-2,-4,-1
1513489342033081,1,-1,-1,0,-2,-1,0,0
1513489342050104,0,0,-1,-2,-2,-3,2,-2
1513489342050104,-2,-1,-2,-2,0,-2,1,-1
1513489342051111,1,0,-3,0,1,3,-2,-1
1513489342051111,0,-1,-2,1,-1,-4,-4,-1
1513489342072117,-1,-2,0,-1,-1,-1,-1,1
1513489342072117,0,-5,0,-1,0,2,0,-3
1513489342074111,-1,-1,-3,-3,-1,-1,0,-3
1513489342074111,-4,-2,0,-1,0,0,0,-2
1513489342087148,0,0,-2,-1,-2,-4,0,2
1513489342087148,2,-1,1,0,-2,-1,-2,0
1513489342093152,-1,-1,-4,-2,1,1,0,-1
1513489342093152,-1,-3,-1,0,-3,-3,-1,0
1513489342110140,0,-1,1,-2,-2,-1,-4,-1
1513489342110140,1,2,-2,-3,-1,2,1,-1
1513489342111137,-4,-2,-2,-2,-1,-1,-2,1
1513489342111137,0,0,-2,1,-1,-1,0,0
1513489342132154,-2,-3,1,-2,-2,-3,-1,-1
1513489342132154,-1,0,-1,-1,-1,1,0,-3
1513489342134168,-1,-2,-2,-1,-1,0,0,-3
1513489342134168,0,-1,-3,-2,0,-2,0,-1
1513489342146233,0,0,1,0,-2,-3,-3,0
1513489342146233,-3,-1,-1,-1,-1,-2,-3,2
1513489342153238,-4,-2,-3,-1,-1,-2,-1,-3
1513489342153238,1,-3,-2,-1,-1,-1,0,-1
1513489342170282,-2,-1,-1,-1,0,-2,0,-4
1513489342170282,0,0,0,-1,1,-3,-1,-2
1513489342171252,-1,-3,0,-1,-1,-1,0,1
1513489342171252,2,1,-3,-1,1,-1,-2,-1
1513489342192328,-3,-1,2,1,-1,-1,-1,-1
1513489342192328,2,-1,-2,0,-2,1,0,-1
1513489342195271,0,-2,-2,-2,-1,0,-1,-4
1513489342195271,-1,-2,1,-2,-3,-2,-4,-1
1513489342206305,-3,-2,0,-1,-1,-4,-4,-1
1513489342206305,-5,-1,0,-1,0,-1,-1,0
1513489342213301,-1,0,-2,-1,-1,0,-1,0
1513489342213301,0,0,-1,-3,-1,-1,-1,-1
1513489342230307,2,1,0,-1,-2,0,0,-1
1513489342230307,-3,-4,-2,1,-2,0,-2,-4
1513489342231297,-2,-2,-3,-2,0,0,-1,-1
1513489342231297,-3,-1,-5,-1,-1,-2,0,-2
1513489342252323,1,0,-2,0,-2,0,-4,2
1513489342252323,1,-1,3,-1,-1,-2,2,0
1513489342254324,2,0,-1,-1,-1,0,1,-4
1513489342254324,0,-1,0,-1,1,0,0,0
1513489342266318,-2,-1,1,-2,0,-3,0,-2
1513489342266318,0,0,-2,-1,0,0,-3,0
1513489342273402,-1,-1,-4,0,0,-2,1,0
1513489342273402,1,-2,-2,-3,-2,0,-4,1
1513489342290392,-3,-1,0,-1,-2,-2,0,2
1513489342290392,-2,-1,0,-2,-1,-3,-1,-1
1513489342291393,1,-2,-2,0,-2,2,2,-1
1513489342291393,-2,0,-2,-1,-1,-2,-2,-3
1513489342312408,-1,-2,1,-3,-2,2,0,0
1513489342312408,-2,-2,-1,-1,0,-3,0,-2
1513489342314410,1,-1,-3,-2,-1,0,-3,0
1513489342314410,0,-2,0,-2,0,-2,0,2
1513489342326418,-1,0,1,-2,-1,-4,-2,0
1513489342326418,-3,-1,0,0,-2,1,1,-1
1513489342333441,-2,-2,-2,-2,0,-1,-2,1
1513489342333441,0,-2,0,0,-1,-2,0,-3
1513489342349452,0,-1,-1,-2,-1,-1,-3,-3
1513489342349452,0,-1,-2,-1,-2,0,1,-1
1513489342351435,1,-2,-2,-1,-1,-1,-1,-2
1513489342351435,-4,-2,-1,0,-2,-5,-1,1
1513489342372512,-1,-2,1,0,0,-3,-3,0
1513489342372512,-2,-1,-2,-2,0,0,0,-2
1513489342374493,-2,0,-3,0,-1,-2,-1,-2
1513489342374493,-1,-3,-3,-1,-3,0,0,0
1513489342386522,0,1,-1,1,0,-4,0,2
1513489342386522,0,-1,-2,-1,-1,3,0,0
1513489342395470,-4,-1,-1,-1,0,-2,-1,-4
1513489342395470,-1,0,-1,-1,0,-3,-4,-1
1513489342409541,0,1,2,-1,-2,-1,1,0
1513489342409541,-3,0,-1,-1,-1,0,-4,0
1513489342411498,0,-3,-2,-1,-1,2,-1,0
1513489342411498,0,0,-3,0,0,-4,-2,-1
1513489342432522,-1,-2,1,0,-1,1,-2,-1
1513489342432522,0,1,0,0,-2,-2,-2,-1
1513489342434501,-2,-2,-1,-2,-2,0,0,-1
1513489342434501,-3,-1,0,-1,-1,-1,-1,5
1513489342446504,0,-1,2,-2,-1,-1,0,0
1513489342446504,-2,-1,0,-1,-1,-1,1,-2
1513489342455514,3,-1,-3,0,0,0,-2,-2
1513489342455514,-2,-2,-1,-1,-1,0,-3,-3
1513489342469548,-2,-1,0,0,-3,-3,-2,-1
1513489342469548,-1,-3,0,-1,-2,1,-1,-3
1513489342477530,-3,0,-2,-2,-2,-1,0,0
1513489342477530,-2,-2,-1,-2,-1,-3,1,1
1513489342492536,0,0,0,0,1,-1,-5,-2
1513489342492536,0,1,-1,-1,-1,-1,-1,-3
1513489342495538,-1,-2,-3,-2,0,-1,-1,-2
1513489342495538,-3,0,0,-1,-2,0,0,-1
1513489342505555,-1,-1,-1,-1,0,1,-1,1
1513489342505555,-4,0,-3,-1,-2,-1,0,-3
1513489342514562,1,-2,-3,-2,-3,-1,0,-2
1513489342514562,0,-2,-1,-1,-3,-1,-1,1
1513489342529572,1,-1,1,0,-2,-1,0,1
1513489342529572,-3,-1,0,-1,1,-3,-2,-1
1513489342531574,2,-1,-3,-1,-2,1,0,0
1513489342531574,-1,-2,-1,0,0,-1,-3,0
1513489342552588,-5,0,0,-2,-1,-1,1,-1
1513489342552588,-1,-3,-1,-1,1,-1,-2,0
1513489342553590,0,0,-3,0,-1,-3,-1,-1
1513489342553590,3,0,-1,-1,-1,-5,0,0
1513489342565599,-2,-1,1,-1,-2,-1,-2,0
1513489342565599,-2,-3,0,-2,-1,1,0,-3
1513489342574673,-4,-3,-2,-1,0,0,-3,-3
1513489342574673,4,-1,-1,-2,0,-2,-3,-3
1513489342589689,-1,0,0,-2,-2,-1,-3,-1
1513489342589689,-1,1,-2,-1,0,2,1,-2
1513489342591667,-2,-1,-2,-2,-1,0,1,-2
1513489342591667,1,-1,-1,-1,0,-3,-1,2
1513489342612680,-3,0,0,0,-2,-2,0,-4
1513489342612680,-1,-3,-2,0,-1,-2,-4,-2
1513489342613681,-3,-1,-1,-1,0,-3,0,2
1513489342613681,0,1,-3,0,-2,0,-2,0
1513489342625720,0,0,0,-1,0,0,2,0
1513489342625720,2,-2,-1,-1,-3,-2,-1,-3
1513489342634716,0,-3,-1,-1,0,-1,0,-2
1513489342634716,0,-1,-1,-2,-3,-4,-3,1
1513489342649719,-1,-2,1,-2,-1,-4,-2,2
1513489342649719,-4,0,-1,-1,-1,4,0,-2
1513489342651724,0,-1,-3,-1,0,-1,-3,-1
1513489342651724,1,-1,0,-1,0,-1,-1,0
1513489342672737,3,-1,-2,-1,-1,-1,-4,-2
1513489342672737,0,0,-3,-2,-2,0,-1,1
1513489342673725,-3,-1,-3,0,0,-3,0,0
1513489342673725,1,-2,-2,0,-2,-2,1,-2
1513489342685755,-3,-2,0,-2,-2,-2,0,-2
1513489342685755,-3,-3,-2,-2,-2,2,-1,-2
1513489342695814,1,0,-2,-2,-2,0,-1,-2
1513489342695814,-1,0,-1,-3,-1,-4,-2,0
1513489342709833,1,0,-1,-3,0,1,-2,-2
1513489342709833,-4,-1,-1,-1,-1,-1,-1,-1
1513489342711838,3,0,-1,-3,-2,-2,-2,-3
1513489342711838,0,-1,-1,-2,0,-1,-1,0
1513489342731833,-1,-2,-1,1,-1,-1,1,-1
1513489342731833,-2,-1,-2,-1,-1,2,2,-4
1513489342733834,-3,-1,-3,-2,-1,1,-2,-2
1513489342733834,-2,-1,0,-1,-2,-2,0,0
1513489342745843,-5,0,-1,-1,-1,-2,1,-1
1513489342745843,2,-1,-1,-3,0,-1,0,-1
1513489342754855,2,-3,-3,0,-2,1,-2,0
1513489342754855,-2,-2,-1,-1,-2,-2,-1,3
1513489342769890,-6,-2,1,-3,0,0,0,-1
1513489342769890,-4,-3,-1,-2,0,-1,2,-2
1513489342771867,1,-1,-3,-2,0,-2,-1,-1
1513489342771867,-2,-1,0,0,-2,-1,-2,0
1513489342791933,1,-2,-1,-2,-2,-2,-1,-3
1513489342791933,0,0,-1,0,-2,-3,1,-2
1513489342794885,-2,-1,-2,-1,-1,0,-2,1
1513489342794885,0,0,-2,-2,-1,-3,-3,-1
1513489342814921,-3,1,2,-1,-2,-2,-4,-2
1513489342814921,0,0,-2,-1,0,0,-2,-2
1513489342816895,-3,-3,-2,-1,0,-1,0,1
1513489342816895,-1,-1,0,-1,-1,-2,-1,-2
1513489342829933,-3,-2,0,-1,-2,-2,2,-1
1513489342829933,-3,0,-1,-3,-1,2,-1,-2
1513489342831918,-1,-1,-3,-1,1,-4,0,-1
1513489342831918,-2,0,-2,0,1,-2,-3,-1
1513489342851927,0,-2,-1,-1,-2,2,-2,-2
1513489342851927,-2,0,-1,-1,0,-1,2,2
1513489342853921,-1,-4,-2,-2,0,-1,-2,-1
1513489342853921,2,0,0,-1,0,-5,-1,0
1513489342874951,1,2,1,2,-2,-2,-1,0
1513489342874951,-1,1,-1,0,-1,-2,-2,-3
1513489342876936,0,-2,-1,-1,-2,1,-3,-2
1513489342876936,0,-2,1,-2,0,-4,-2,-1
1513489342890000,-2,2,1,0,-2,1,0,1
1513489342890000,-2,-2,-4,0,0,1,-2,-2
1513489342890963,1,-1,-1,-1,-2,-3,-1,1
1513489342890963,0,-1,-2,0,-2,1,-2,2
1513489342911978,0,-1,-1,-5,-1,-3,0,-1
1513489342911978,0,-2,0,0,-1,-3,-1,-2
1513489342913965,0,-3,-1,-1,-1,0,0,0
1513489342913965,2,-1,-1,0,-2,-2,0,3
1513489342935014,-4,0,0,0,0,-2,-1,0
1513489342935014,1,0,-3,-2,0,2,1,-4
1513489342935981,-1,-1,-1,-1,-1,-1,-1,-1
1513489342935981,-1,-2,0,-1,-2,-3,0,1
1513489342950057,-1,0,2,-1,0,-4,-1,0
1513489342950057,-4,-1,-2,-1,-1,1,1,-1
1513489342951058,0,0,-4,0,-3,-4,-2,0
1513489342951058,3,1,-1,-1,-1,-2,-2,1
1513489342972065,-3,-3,-2,-2,0,-2,-1,1
1513489342972065,0,-2,-2,0,-2,2,-2,0
1513489342974060,-2,1,-2,-2,-2,-2,2,-1
1513489342974060,0,0,0,-2,-1,0,-3,1
1513489342995073,2,2,2,-1,-2,1,-1,0
1513489342995073,-2,-1,-2,-1,0,0,-1,-3
1513489342996073,-5,-3,-3,-1,-1,4,-2,-2
1513489342996073,0,-1,1,0,-1,-3,-1,0
1513489343009082,-2,-2,-1,-1,0,-3,-1,-1
1513489343009082,-1,-2,-1,-2,-1,4,-1,1
1513489343016087,3,-1,-1,-1,-2,-1,1,1
1513489343016087,0,-1,0,-2,-2,-1,-1,-1
1513489343032118,0,0,2,-1,-2,1,0,-2
1513489343032118,-1,-1,-2,-1,-1,-1,-2,-2
1513489343034103,0,0,-3,-1,1,-3,-2,0
1513489343034103,-1,-1,-1,0,1,-4,1,-1
1513489343055116,2,-1,1,-1,1,-1,-2,-4
1513489343055116,-2,1,-1,-3,-2,-1,-2,-3
1513489343056117,0,-2,-2,-2,-1,1,-3,-4
1513489343056117,-2,-1,-1,-2,-3,-3,-2,1
1513489343069125,-1,-1,-2,0,-2,-2,1,0
1513489343069125,0,-2,-3,0,2,3,1,-3
1513489343076194,-3,-1,0,0,-1,-4,-4,2
1513489343076194,0,-2,-2,-1,-1,-2,-2,-1
1513489343092185,0,-1,0,0,-2,-1,-1,-3
1513489343092185,-4,0,-4,0,-2,-1,3,-1
1513489343094145,-1,-2,-1,-1,0,0,1,-2
1513489343094145,0,0,1,-2,-1,-5,-1,0
1513489343115157,-1,0,-1,1,-3,-1,-4,-1
1513489343115157,1,-3,-3,-1,0,0,1,-5
1513489343116158,0,0,-2,-2,-2,0,1,-1
1513489343116158,1,-1,1,-1,-1,-3,-2,0
1513489343129248,-3,1,1,-2,1,2,2,-1
1513489343129248,-5,-1,-1,0,-3,0,1,-1
1513489343136265,-1,-1,-2,-2,-2,-2,-3,2
1513489343136265,0,-1,0,1,-1,-2,-1,1
1513489343152323,-2,-2,-2,-3,-2,-1,0,-2
1513489343152323,-2,-1,-1,-2,0,0,-2,-2
1513489343154314,-1,-1,-4,-3,0,-2,1,-1
1513489343154314,0,0,1,-1,-1,0,-5,-2
1513489343175344,-3,-1,-1,1,0,0,-1,0
1513489343175344,-4,-2,-2,-1,0,0,-4,-2
1513489343176344,0,-3,-1,0,0,-3,0,1
1513489343176344,-4,-1,-1,0,0,-1,0,-2
1513489343189357,2,1,0,-2,0,-3,-3,0
1513489343189357,0,0,-4,-2,-2,2,-1,-1
1513489343196340,-2,-2,-2,-2,0,-2,1,0
1513489343196340,-1,-1,0,-1,-2,-4,0,-2
1513489343212352,-3,-2,-1,-2,-2,-1,2,-1
1513489343212352,2,-2,-1,0,-2,0,-2,-2
1513489343214353,1,0,-1,-1,-1,-2,0,-3
1513489343214353,-1,0,-1,-1,-3,-2,-2,1
1513489343234426,-1,0,2,0,-1,-1,2,0
1513489343234426,-6,-4,-2,1,-2,-1,1,-2
1513489343236383,-1,-2,-2,-1,0,0,0,-1
1513489343236383,0,-2,-1,-2,-1,-3,-1,-3
1513489343249377,-4,-1,-2,-1,-1,-4,-1,-3
1513489343249377,-1,-3,-4,-1,0,-2,1,-2
1513489343256382,0,-2,-2,-1,1,0,-2,-2
1513489343256382,0,-1,0,-1,-2,-1,-1,1
1513489343272416,-2,-2,0,-1,1,-1,-2,-2
1513489343272416,-2,0,-1,-1,-1,-2,-1,-3
1513489343274415,-2,0,-4,0,-2,-1,-2,2
1513489343274415,1,-2,-1,0,-1,-3,-4,0
1513489343294452,0,-2,0,-2,-1,0,-2,2
1513489343294452,2,-2,0,-2,-1,1,-1,-4
1513489343296412,-1,-2,-2,-1,-2,-2,0,-5
1513489343296412,-2,-1,-1,-1,-2,0,-2,1
1513489343308429,0,0,0,0,0,-1,-5,-2
1513489343308429,0,1,-2,-1,0,-1,-2,1
1513489343317436,0,-2,0,-1,-3,-2,0,0
1513489343317436,-1,1,0,-1,0,-3,-1,-2
1513489343332508,-4,-1,-3,1,-3,0,-1,-3
1513489343332508,0,-1,-1,-2,0,0,0,3
1513489343333508,-1,-2,-1,-1,-2,0,-1,-4
1513489343333508,0,-3,2,-2,0,-3,-2,0
1513489343354524,2,-1,0,-1,-2,0,-2,2
1513489343354524,-2,-2,-1,-1,0,-1,0,-2
1513489343356525,-3,-1,-4,-2,-1,-2,0,0
1513489343356525,-2,0,-1,-1,-1,-3,-2,0
1513489343368553,-2,-1,-1,0,0,2,-2,-3
1513489343368553,-3,-4,-3,-1,0,4,-1,-5
1513489343377560,0,-1,-1,0,-1,-2,0,-1
1513489343377560,0,1,0,-2,-2,0,0,1
1513489343392573,2,1,0,-2,-1,-4,-3,-4
1513489343392573,-5,-1,-2,-2,-1,1,1,0
1513489343394551,2,-2,-2,0,0,-2,-4,3
1513489343394551,1,0,2,1,-2,-2,0,-1
1513489343414566,-2,-1,-1,-2,-3,-2,0,4
1513489343414566,0,-2,-3,-1,-2,1,-2,0
1513489343416567,0,-2,-2,-2,-3,-1,1,0
1513489343416567,-3,-2,1,-1,-1,0,-1,2
1513489343428641,2,-1,-1,-1,0,1,0,-3
1513489343428641,-1,-1,-3,-1,-1,0,0,-2
1513489343437647,-2,-2,-1,-2,-1,-4,-1,-2
1513489343437647,0,0,0,0,0,-2,-3,0
1513489343452668,-3,-1,0,0,-1,-2,3,-4
1513489343452668,0,-1,-2,-1,0,-2,0,0
1513489343453660,0,-1,-2,-3,-2,-1,-1,0
1513489343453660,0,-2,1,-1,-2,-3,-3,2
1513489343474686,-3,-3,-1,-1,-2,-1,0,-4
1513489343474686,-3,0,-2,-2,0,-1,0,-3
1513489343476687,-2,-1,-2,0,-1,0,-2,0
1513489343476687,-2,1,1,-1,1,-2,1,1
1513489343488736,2,0,-1,1,-2,1,-1,-1
1513489343488736,0,-3,-2,-2,0,3,0,-2
1513489343497699,1,0,-1,0,-1,-1,-2,-1
1513489343497699,0,1,-2,-2,-2,-2,-1,-1
1513489343512707,0,-1,-1,-1,-1,-1,0,-2
1513489343512707,-2,-2,-2,0,-1,0,1,-3
1513489343513698,0,-1,-3,0,0,-1,-2,-2
1513489343513698,2,-1,-1,-1,0,-1,-3,0
1513489343534765,-2,0,0,-1,-2,-2,-1,-3
1513489343534765,-1,-2,-3,-1,-1,-3,1,-3
1513489343536730,-2,-2,-1,-1,-3,-3,-3,-2
1513489343536730,-1,-2,0,0,-1,-4,-1,1
1513489343548783,-2,-2,1,-2,-1,1,-2,0
1513489343548783,-2,-2,-3,-1,-1,-3,-1,-2
1513489343557827,0,0,-3,-2,1,-1,-2,0
1513489343557827,0,1,0,-1,-2,-1,1,-4
1513489343572815,-3,0,2,-3,-1,0,-1,0
1513489343572815,0,0,-2,-1,-3,1,-4,0
1513489343573813,3,-4,-2,-2,0,-1,-1,1
1513489343573813,0,0,0,-1,0,-2,-1,-1
1513489343594815,-3,-2,-2,-2,-2,-1,-1,0
1513489343594815,-2,1,-2,-2,-1,-2,2,0
1513489343596823,-1,-2,-1,-1,-1,-1,1,-1
1513489343596823,-1,-2,0,-2,-2,-5,-1,0
1513489343608831,-1,1,-1,-2,0,-1,0,-3
1513489343608831,-1,-2,-3,-2,-1,1,-3,-2
1513489343617837,-3,0,-1,-1,-1,-1,-2,-2
1513489343617837,2,1,-1,0,-2,-3,0,0
1513489343631843,-2,-1,0,-1,0,-2,0,-1
1513489343631843,-1,-2,-4,-1,0,0,1,-6
1513489343633845,3,-2,-2,0,-2,0,-3,1
1513489343633845,-2,-1,3,-1,-1,-1,0,-1
1513489343654859,-3,-1,-1,0,-1,1,-2,2
1513489343654859,0,0,-1,0,-1,1,-2,-4
1513489343656859,0,0,0,-2,-1,-3,2,-1
1513489343656859,-1,0,0,-1,-3,-1,-2,0
1513489343668882,-1,-1,-2,0,-1,-1,0,0
1513489343668882,-1,-2,-3,-1,0,-2,1,-2
1513489343677873,1,-1,-1,-2,-1,0,-2,-2
1513489343677873,-1,-1,1,-1,-2,1,0,-1
1513489343691903,-1,-1,0,-2,0,-1,-2,-2
1513489343691903,-4,-1,-3,0,-3,-2,1,0
1513489343693886,1,-3,-2,0,-1,-3,-2,-1
1513489343693886,-3,0,1,0,-1,-2,-1,-3
1513489343714906,-2,-1,0,1,0,0,-1,0
1513489343714906,-1,0,-2,0,0,0,1,2
1513489343716900,0,-1,-5,-1,0,-1,-2,2
1513489343716900,-2,-1,1,-2,1,-4,-1,-3
1513489343728917,-1,0,1,-2,-2,-1,-1,-1
1513489343728917,-1,0,-2,-2,0,0,-3,1
1513489343737916,-1,-1,-2,-2,-2,-2,0,-1
1513489343737916,-1,-2,-1,-1,-1,-3,-4,-1
1513489343751953,-3,-2,-1,-3,-1,0,0,-2
1513489343751953,-3,-2,-1,-1,-1,-1,2,0
1513489343753955,-2,-2,-1,-1,-2,-2,1,-3
1513489343753955,1,-1,0,0,-1,0,-1,0
1513489343774956,-1,-2,-2,0,-2,-2,-4,-2
1513489343774956,2,-2,-1,0,-1,0,-3,-1
1513489343775941,-2,1,-1,0,-2,-3,-2,-3
1513489343775941,-1,0,0,-1,-3,-3,-2,-2
1513489343796972,0,0,0,-2,-1,-2,3,-2
1513489343796972,3,-2,-2,-1,0,0,0,-3
1513489343798974,0,-1,-2,0,-1,-2,-3,-1
1513489343798974,-1,-1,1,-1,0,-2,-2,1
1513489343811996,-3,-4,-3,-1,-2,-1,-4,-1
1513489343811996,0,-4,-3,-2,0,1,0,1
1513489343813970,0,-2,-1,-2,-2,-1,0,4
1513489343813970,1,1,0,-1,-1,-1,-2,-3
1513489343834988,-5,-2,-2,-1,-1,1,3,-4
1513489343834988,-2,-1,-2,-1,-2,-2,0,-1
1513489343835985,-3,1,-2,-1,-1,0,-1,2
1513489343835985,-3,-1,1,-1,-2,-1,-3,2
1513489343857029,2,0,0,0,-1,1,-2,-4
1513489343857029,-2,-1,0,1,-1,1,-3,1
1513489343859001,-2,-2,-2,0,-3,-4,-1,-4
1513489343859001,0,-1,-1,0,-1,-1,-1,-3
1513489343871028,0,-1,-1,-1,-1,-2,0,-4
1513489343871028,-1,-1,-4,-2,-1,2,-2,-3
1513489343880019,-1,-3,0,-1,0,-1,0,-1
1513489343880019,-1,-1,0,-1,-1,0,-2,3
1513489343895049,-3,-2,-1,-1,0,-1,-1,1
1513489343895049,1,-2,-3,-2,-1,1,-1,-1
1513489343897027,-1,-2,-1,-2,-1,0,-3,0
1513489343897027,-2,-1,1,-3,-2,-2,-1,-2
1513489343917061,-4,-1,0,-2,-2,3,-1,0
1513489343917061,-1,-2,-4,0,-2,-2,-3,0
1513489343919044,1,-4,-2,-1,1,-3,0,0
1513489343919044,-1,-1,-1,-2,-1,-1,-1,0
1513489343932055,-1,-1,-1,0,0,0,0,0
1513489343932055,0,-2,-1,-2,-1,0,0,-3
1513489343938115,1,-1,-1,-2,-1,-1,-2,0
1513489343938115,-2,0,-1,-1,-2,-1,-2,-1
1513489343955087,-1,-2,-1,-1,0,0,-1,-3
1513489343955087,-3,0,-3,1,-1,-1,1,-2
1513489343956069,2,-1,-3,-1,-2,-2,0,-1
1513489343956069,-3,-1,-1,-2,0,-2,-2,0
1513489343977118,-7,0,-1,0,-1,-1,2,-1
1513489343977118,1,-2,-3,-2,1,-1,-1,-2
1513489343979088,0,-1,1,-1,0,-2,-2,1
1513489343979088,-4,0,0,-1,-2,-1,0,-2
1513489343992141,1,-1,0,-4,-3,0,-3,0
1513489343992141,-2,-2,0,0,-2,-1,2,-1
1513489343998113,-1,-1,-1,-2,-2,-3,-4,-1
1513489343998113,1,-1,2,-2,-2,-3,-3,2
1513489344015115,-3,1,-1,1,-2,0,1,-2
1513489344015115,-3,-1,-3,-2,-1,0,0,1
1513489344016117,3,0,-2,-1,-1,-1,-2,-4
1513489344016117,0,-2,0,-1,-2,0,1,-1
1513489344037196,0,-1,-1,-1,-2,1,-2,0
1513489344037196,-2,0,-3,-1,-1,-1,-1,-1
1513489344039132,-1,0,-2,-1,-1,-3,0,1
1513489344039132,0,1,1,1,0,-3,2,-1
1513489344051140,-1,-2,-1,1,-2,2,-2,-3
1513489344051140,-4,-3,-2,-2,0,1,-3,-2
1513489344058144,0,-1,-1,0,-2,-3,0,2
1513489344058144,-1,-1,-1,-2,-1,-2,-2,-1
1513489344075174,-2,-1,-1,0,-1,-1,-1,-4
1513489344075174,1,-2,-1,0,0,1,-2,-3
1513489344076164,-1,-2,-2,-1,-1,-2,0,0
1513489344076164,-3,0,-1,-1,-1,-3,-2,2
1513489344097170,-4,-1,-1,-2,-2,-1,2,-1
1513489344097170,-2,-1,-3,-2,-1,-1,-2,-2
1513489344099172,0,2,-1,-1,-2,-3,0,3
1513489344099172,-1,-1,-1,1,-2,-3,-1,1
1513489344112196,1,0,-1,-1,-1,-1,-1,-5
1513489344112196,-1,-2,-3,-1,-1,0,-1,-4
1513489344118185,0,-2,0,-1,-2,-4,-3,-2
1513489344118185,-2,0,-1,-1,-1,-1,0,-2
1513489344135198,-2,0,-2,-1,0,1,-2,-1
1513489344135198,-1,-2,-3,-1,1,-3,-1,1
1513489344136195,1,-3,-2,-2,1,0,-3,1
1513489344136195,1,0,0,-2,0,1,-1,1
1513489344157270,1,0,-1,-1,-2,1,-1,-1
1513489344157270,0,-2,0,-2,0,-2,-3,0
1513489344159230,1,1,-1,0,-1,-3,-2,-3
1513489344159230,0,-3,0,-2,-2,-4,-1,-2
1513489344172223,0,-1,-1,-1,0,-1,2,-2
1513489344172223,-2,0,-3,-1,-3,-1,-1,2
1513489344178229,0,-1,-1,-1,0,-2,-2,0
1513489344178229,-1,1,1,1,-1,0,-1,-5
1513489344195264,-3,-1,-2,-1,-1,0,-1,-2
1513489344195264,1,-1,-2,0,-2,-3,0,-1
1513489344197241,-2,-1,-2,-1,-2,-3,-2,2
1513489344197241,0,-1,0,-2,-2,-2,1,-1
1513489344217254,-1,-1,0,-2,0,0,0,-1
1513489344217254,2,1,-4,-1,-1,-1,0,-2
1513489344219255,0,-1,0,-2,0,-2,0,-1
1513489344219255,0,-1,-1,-1,-2,2,-2,-2
1513489344231263,0,-1,-3,-1,-1,1,-1,-2
1513489344231263,1,-3,-1,-1,-1,-3,-2,-2
1513489344238305,-2,1,0,-1,-3,-3,-4,0
1513489344238305,2,-2,1,-1,-1,0,-1,0
1513489344255287,-6,-2,-1,-1,0,2,-2,-3
1513489344255287,-2,-2,-2,-2,1,-2,0,-3
1513489344256288,-4,-1,-1,1,-2,-1,0,-1
1513489344256288,-2,-1,0,1,-3,-2,-2,0
1513489344276301,0,-2,-3,-2,-2,0,-1,-2
1513489344276301,1,-1,-2,0,-1,1,-2,0
1513489344277297,-1,0,-1,-1,-1,-3,-1,1
1513489344277297,-1,1,2,-1,-2,-2,0,-1
1513489344299311,-2,-1,-2,0,-2,-3,0,-2
1513489344299311,-3,-1,-2,0,-1,-1,-3,0
1513489344300315,0,-3,0,0,-1,-1,0,1
1513489344300315,1,-1,-1,-1,1,0,-1,-2
1513489344314332,-3,-1,-1,-2,1,0,0,-1
1513489344314332,0,-1,-3,-1,-2,-2,2,-3
1513489344315326,3,-1,1,-2,-1,-4,-2,1
1513489344315326,-3,-2,-2,-2,-1,1,-2,0
1513489344336398,-2,-1,0,-1,0,0,1,-2
1513489344336398,0,-2,-1,0,-1,-1,-2,0
1513489344337356,-1,1,-1,0,-2,-1,-3,2
1513489344337356,-4,-1,2,-1,-1,0,-1,-1
1513489344351359,-1,0,-2,0,-1,0,0,1
1513489344351359,-3,0,-2,-2,-1,0,-2,-2
1513489344359369,0,0,-1,-3,-1,-1,-4,-1
1513489344359369,-4,-1,0,-1,-2,-4,-3,-2
1513489344374389,-2,0,-1,-1,-1,-2,0,1
1513489344374389,-1,-2,-2,0,0,-1,1,-1
1513489344375370,-1,0,-1,-1,-2,-2,-2,-1
1513489344375370,-1,1,0,-1,-1,0,-2,0
1513489344396387,0,-3,-2,0,-2,1,0,0
1513489344396387,-1,-2,-2,-2,-1,0,-2,-1
1513489344397382,1,-2,-2,-2,0,-2,-3,0
1513489344397382,-2,1,0,-1,-1,0,0,-2
1513489344411392,1,-1,-1,-2,-3,1,-2,-6
1513489344411392,-1,-4,-1,0,-1,-2,1,2
1513489344419426,0,-2,1,0,-1,-2,0,0
1513489344419426,3,0,0,-3,1,-3,1,-1
1513489344434409,-1,1,0,-1,0,-2,-2,-4
1513489344434409,-2,-1,-4,-1,-1,1,-1,1
1513489344434409,0,0,0,0,-1,-1,-2,1
1513489344434409,0,-1,-1,0,-2,-2,-1,4
1513489344456424,-4,0,-2,-1,-1,-1,-2,-3
1513489344456424,2,0,-1,-3,-1,-2,1,-1
1513489344457425,2,0,-1,-1,-1,-2,-1,1
1513489344457425,-2,-1,-1,-1,-3,1,0,-4
1513489344471441,-1,-2,0,1,-1,1,2,-2
1513489344471441,0,-1,-3,-1,-2,-2,-2,-3
1513489344479445,2,0,-1,-1,0,-1,-2,-1
1513489344479445,-2,-1,0,0,-2,-1,-1,3
1513489344494449,-4,-1,-2,-1,0,0,0,-1
1513489344494449,1,-1,-4,-1,-2,-2,1,-1
1513489344495456,0,-3,-1,-1,0,-4,1,-1
1513489344495456,-2,0,-1,-1,-1,-6,-1,-3
1513489344516472,-1,-2,-2,-1,-3,-1,-2,-2
1513489344516472,-1,-1,0,0,-3,-3,-2,0
1513489344517469,1,-2,-1,-2,-2,-4,-3,4
1513489344517469,2,-1,-1,-1,-1,3,-1,-2
1513489344530475,0,-2,-3,0,-2,1,2,-3
1513489344530475,-1,0,0,-3,-1,-2,-3,0
1513489344539625,0,0,-2,0,-2,-2,-2,-1
1513489344539625,-2,-2,0,0,0,-1,0,-1
1513489344553593,-1,-2,-1,-1,1,0,-1,0
1513489344553593,-3,-1,-3,0,0,-1,0,-1
1513489344554581,-1,-1,2,-1,-2,-3,-2,2
1513489344554581,-4,-1,0,0,-1,-2,-2,-1
1513489344576618,0,-1,-3,-2,0,1,-2,-2
1513489344576618,0,-1,-3,-1,0,-1,0,-1
1513489344577607,0,0,-1,0,-2,-1,0,1
1513489344577607,-2,-2,-1,0,0,-1,0,0
1513489344590628,1,0,-2,-1,-3,0,0,-4
1513489344590628,-1,-2,-2,-1,1,-3,-1,-4
1513489344598612,-2,0,1,-3,-1,-3,-1,-1
1513489344598612,-3,0,0,0,-2,-2,-2,-2
1513489344613635,-3,-1,-3,0,0,1,0,-1
1513489344613635,-4,-1,0,0,-1,0,-1,4
1513489344614624,-3,-1,0,-1,-1,-4,-2,0
1513489344614624,0,-2,0,-2,0,0,0,-3
1513489344636696,0,-2,-2,-1,0,1,-1,-6
1513489344636696,0,-2,-2,-2,-2,1,-2,-2
1513489344637640,0,0,0,-1,-1,-3,0,-2
1513489344637640,1,0,-2,-1,-2,-1,0,-2
1513489344650660,-2,-3,-1,-1,1,1,-1,0
1513489344650660,-3,-2,-2,-1,2,1,-2,-4
1513489344659666,-1,-1,-1,-1,-1,-5,1,-1
1513489344659666,0,0,0,-1,-2,-1,1,-7
1513489344673705,-2,-2,-3,-2,-2,2,-2,-1
1513489344673705,-2,0,-2,0,-2,0,-2,2
1513489344674671,-2,0,0,1,-1,0,-3,2
1513489344674671,-3,-1,0,-1,0,-2,-1,-2
1513489344696682,-2,0,-2,-1,-2,-1,0,-3
1513489344696682,-2,-1,-2,1,-2,-4,1,0
1513489344697697,1,-1,-1,0,-1,0,-1,0
1513489344697697,1,0,1,-1,-2,-2,-3,-1
1513489344719732,0,-1,-1,-1,0,-1,-1,-2
1513489344719732,0,-1,-2,-1,-2,1,-1,-4
1513489344720700,-1,-1,0,0,-1,-3,-3,0
1513489344720700,1,-1,-1,0,-1,-2,1,-2
1513489344733814,-2,0,-2,0,0,0,2,-2
1513489344733814,4,-1,-2,-3,0,-1,0,-2
1513489344734773,1,0,0,-1,-1,-3,-4,-1
1513489344734773,1,0,0,-2,-1,-2,-1,0
1513489344756774,0,-2,-3,-2,1,1,-2,-2
1513489344756774,-1,-1,-2,-2,0,-2,-3,1
1513489344757774,-1,1,1,-2,-2,-2,-2,-3
1513489344757774,-3,-2,0,0,-1,0,-1,0
1513489344779790,-3,-1,0,-2,-2,-1,3,-1
1513489344779790,2,-2,-1,1,-2,0,-3,1
1513489344780791,-1,-1,1,-1,-1,-3,2,2
1513489344780791,-4,0,-1,-1,0,1,3,-1
1513489344793809,-1,0,-2,0,-1,-2,-1,-1
1513489344793809,0,-2,-1,-3,0,-1,-3,-2
1513489344795808,2,-4,-1,-1,-2,-3,-2,1
1513489344795808,-2,0,-1,-1,-1,1,0,0
1513489344816820,-2,-3,-2,-2,-1,0,-1,0
1513489344816820,2,-1,1,0,-2,-1,1,0
1513489344817821,0,4,-1,0,-2,-1,-3,0
1513489344817821,-1,0,-1,-2,2,-2,-1,-1
1513489344839891,0,-3,-2,0,0,0,4,1
1513489344839891,-3,-1,-3,-1,1,-3,-1,-2
1513489344840849,0,-3,0,0,-1,-4,-5,0
1513489344840849,1,-1,0,1,-1,-3,-2,0
1513489344853842,-1,-1,-3,0,-1,0,-2,-2
1513489344853842,-1,-3,-5,-2,-1,-1,2,2
1513489344854843,-1,1,-1,-1,-2,-3,-2,0
1513489344854843,1,0,1,-2,-3,-2,-1,0
1513489344876880,-2,-1,-1,-1,-2,-1,0,-2
1513489344876880,3,1,-1,0,-1,-1,-2,2
1513489344877859,-1,-2,1,-1,-2,-4,-1,-2
1513489344877859,1,-2,-1,-2,-1,1,-2,-2
1513489344899875,-1,-1,-3,-3,0,1,-2,-2
1513489344899875,-3,-1,-3,0,-1,-3,-1,2
1513489344900876,1,-2,1,-2,-1,-4,2,0
1513489344900876,0,0,-1,-1,-1,0,-2,-2
1513489344913898,0,-2,-1,0,-1,-1,-2,-3
1513489344913898,-2,-1,-2,-1,-2,-2,-1,-5
1513489344914900,0,-2,0,-2,-2,-2,-1,0
1513489344914900,-3,-1,1,-1,0,1,1,1
1513489344936957,0,-2,-3,-1,-3,2,-3,-1
1513489344936957,1,-1,0,-1,0,1,-2,-3
1513489344937900,-2,0,1,-2,-1,-2,1,-3
1513489344937900,-1,-2,-1,1,-2,-2,-2,0
1513489344959922,-3,-2,-3,-2,0,1,-1,-1
1513489344959922,-3,-2,-2,-2,1,-2,-2,0
1513489344960923,-1,-1,-1,-2,-1,2,-2,-1
1513489344960923,-1,-1,-2,-1,-3,-1,-3,1
1513489344973928,-1,-3,-2,-1,1,1,0,-1
1513489344973928,0,-1,-2,0,-4,-1,0,-1
1513489344974929,2,0,-1,0,0,-2,-1,-1
1513489344974929,-2,0,-1,0,-1,-1,-3,0
1513489344996953,1,-2,-2,-1,-2,-2,2,0
1513489344996953,-4,-2,1,-3,-2,-1,1,-4
1513489344996953,-2,-1,-1,-1,-2,-2,-2,2
1513489344996953,-4,1,2,-2,-1,-1,-1,-3
1513489345019977,-6,-1,0,0,-1,1,2,-1
1513489345019977,2,-1,-1,0,1,-1,-1,-1
1513489345020970,1,0,-1,-1,-2,-1,-3,0
1513489345020970,-2,-3,0,-2,-1,0,-1,-2
1513489345033984,-1,-2,-2,-1,0,-1,-2,-2
1513489345033984,-3,0,-2,-3,-1,-2,-3,0
1513489345034969,1,1,0,0,-1,-2,-1,-1
1513489345034969,-1,-1,-1,-1,0,1,1,-4
1513489345056995,1,-1,-3,-1,-2,1,0,-2
1513489345056995,-2,-1,-2,0,-1,0,0,3
1513489345056995,-4,-1,2,-3,-1,-2,-2,-1
1513489345056995,-1,1,0,-1,-1,-2,1,-2
1513489345080063,0,-1,-3,-2,-1,0,2,-3
1513489345080063,2,-1,-2,1,-2,-2,-3,0
1513489345080063,-4,0,-1,0,-2,-2,-2,1
1513489345080063,-1,-3,-1,-2,-1,-3,-1,-4
1513489345094070,-1,1,-3,-1,0,1,-2,-3
1513489345094070,1,-2,-1,0,-1,-2,-1,-3
1513489345102073,1,-3,-1,-1,0,0,-1,1
1513489345102073,1,-1,0,0,-1,-1,-1,0
1513489345116091,-2,-3,-3,-1,-1,1,-1,2
1513489345116091,3,0,-2,-3,-1,-4,-1,0
1513489345117082,-2,-1,0,0,-2,-2,-2,0
1513489345117082,-3,-1,0,-1,0,-1,-1,-1
1513489345140120,3,-2,-2,-1,-1,1,-1,-4
1513489345140120,-3,-1,-1,-1,-2,-3,-1,-2
1513489345140120,0,-2,0,0,-2,-2,0,2
1513489345140120,-2,-1,-1,-2,-1,-2,-3,-1
1513489345154120,1,-2,0,0,-2,-2,-3,-4
1513489345154120,2,-1,-3,0,0,-1,-3,1
1513489345155111,0,0,-1,-3,0,-3,-1,-1
1513489345155111,0,-1,-1,-1,-1,-2,0,0
1513489345177131,-3,0,-2,-3,1,-1,-1,-1
1513489345177131,2,-1,0,-1,-1,1,0,-1
1513489345177131,-3,-1,2,0,-1,-3,0,0
1513489345177131,1,-2,0,1,-1,0,-3,-1
1513489345200150,-2,-1,-3,-1,-2,-2,0,0
1513489345200150,-1,0,0,-1,1,-1,-2,1
1513489345200150,0,0,1,0,-1,0,-3,-1
1513489345200150,-2,0,-1,-2,-2,1,-2,-3
1513489345214164,-3,-1,-3,0,-2,0,-2,-2
1513489345214164,2,-1,-2,-2,-2,-1,0,2
1513489345215155,-1,-1,1,-2,-2,-4,0,0
1513489345215155,-1,-2,0,0,-1,2,-2,0
1513489345236194,0,-3,-3,0,1,-1,1,0
1513489345236194,0,-2,-3,-2,-1,-1,-1,3
1513489345237172,1,0,0,-1,-1,-2,-2,0
1513489345237172,-2,2,-1,-1,-2,1,-1,-1
1513489345260188,-2,0,0,0,-1,0,-1,-3
1513489345260188,-2,-1,-1,1,-2,-4,-2,1
1513489345260188,5,-1,-1,-2,-4,-1,-1,-2
1513489345260188,-1,-2,-1,0,-1,1,1,1
1513489345274194,-2,-3,0,-3,0,-2,0,0
1513489345274194,0,-3,-2,-1,-1,-4,-1,-3
1513489345275195,-2,0,0,0,-2,-2,0,2
1513489345275195,-1,0,0,-2,-2,-2,-1,-3
1513489345296208,-2,-1,-2,-2,-2,1,-3,0
1513489345296208,0,0,-1,-1,-2,0,0,-1
1513489345297209,2,-2,1,1,0,-3,1,-3
1513489345297209,1,-2,-1,0,-1,-1,-1,-1
1513489345320226,2,-2,-3,0,-2,-1,-1,1
1513489345320226,-3,-2,-2,-1,-1,-2,1,-3
1513489345320226,-2,0,0,-1,-1,-1,-1,0
1513489345320226,-2,-1,-1,-2,0,1,2,0
1513489345333248,2,-3,-1,0,-1,-1,0,-1
1513489345333248,3,-1,-3,-3,-1,-1,-4,-1
1513489345341281,0,0,0,1,0,-2,-2,-2
1513489345341281,-1,-3,0,0,-2,-4,0,0
1513489345356278,-1,-1,-3,-1,-1,2,-1,-4
1513489345356278,-3,-2,-1,0,-1,-3,-1,0
1513489345357257,0,0,0,-2,-3,-1,-2,-1
1513489345357257,-3,1,-1,-1,-1,1,-3,0
1513489345380270,-3,-1,-4,-3,-1,0,-2,-2
1513489345380270,-1,0,0,-2,0,-3,-2,0
1513489345380270,-1,-1,-1,-1,0,0,0,-1
1513489345380270,-6,0,-1,0,-2,0,2,-3
1513489345393355,1,-2,-2,-1,0,0,0,-1
1513489345393355,0,1,-2,-1,-1,1,-1,-2
1513489345401301,-3,0,0,-1,-2,-1,0,2
1513489345401301,-1,-1,0,-1,1,-1,1,-1
1513489345416297,1,-2,-1,-1,-1,-1,-2,-2
1513489345416297,-1,-2,-1,-1,-1,-1,-2,0
1513489345417296,-1,-1,0,-2,-2,-2,-2,-3
1513489345417296,0,-1,-1,0,-2,2,-3,-1
1513489345440309,-2,-1,-4,-1,-1,1,-1,1
1513489345440309,3,-3,0,-3,-1,-1,-1,2
1513489345440309,-2,-1,0,-1,-1,-3,-1,-1
1513489345440309,-2,1,-1,-2,-1,-2,-1,-2
1513489345453332,-2,0,-2,-1,-1,1,-1,1
1513489345453332,1,0,0,-2,-1,0,-1,-3
1513489345461337,-4,-2,0,0,0,0,-2,-2
1513489345461337,0,-2,-1,-2,0,0,-2,-4
1513489345476363,-3,-1,-3,0,-1,-1,0,-2
1513489345476363,0,-1,-1,-2,-2,0,-3,0
1513489345477364,3,-1,1,-1,-3,-2,-1,2
1513489345477364,-1,0,-2,-2,0,-1,-1,-2
1513489345499354,-1,-1,-3,-1,-1,-3,0,-1
1513489345499354,0,-1,-2,-2,0,-2,-2,2
1513489345500355,0,-1,1,-2,-1,-2,-4,-1
1513489345500355,1,-1,-1,0,-1,0,1,-3
1513489345513363,-1,-2,-3,-2,-3,-1,-2,0
1513489345513363,-1,-1,-3,-1,-2,-3,2,0
1513489345521384,-4,-1,-1,-1,-1,3,1,0
1513489345521384,-3,-2,0,-1,-2,-1,-2,-2
1513489345536421,3,0,-3,-2,0,1,-1,-1
1513489345536421,1,-1,2,-1,-3,-4,0,0
1513489345537396,-1,-1,1,0,0,-2,2,0
1513489345537396,-1,-1,0,-1,0,0,-1,-1
1513489345559459,-4,-1,-3,0,-2,-1,-3,-2
1513489345559459,0,0,-1,0,-2,-2,-1,1
1513489345560459,-1,0,-1,-1,0,0,-2,-2
1513489345560459,1,1,-1,0,-1,-2,-2,-4
1513489345573495,0,-2,0,-2,0,-1,0,0
1513489345573495,-2,0,-3,-1,-1,-3,-1,-2
1513489345581474,-1,-1,2,-3,-2,0,-1,0
1513489345581474,0,-2,-2,-2,-2,-1,-2,-3
1513489345596485,1,-2,0,-2,-1,-1,0,1
1513489345596485,-2,-3,-1,-2,-2,-3,1,2
1513489345597487,-2,2,0,-2,-2,0,-1,-1
1513489345597487,-7,-1,-3,-1,-3,0,1,-4
1513489345619542,-2,-2,-2,-1,1,0,-2,-2
1513489345619542,-2,-3,0,-2,0,-1,-2,-1
1513489345620515,0,-1,-2,1,-2,-2,-3,-1
1513489345620515,-1,0,-2,-2,-1,1,1,0
1513489345633521,-2,-3,-2,-2,-2,-2,0,-2
1513489345633521,-1,-1,-1,0,-1,-4,-1,0
1513489345641584,-2,1,0,-2,0,-3,-5,1
1513489345641584,-3,-2,-1,-3,-2,0,0,0
1513489345656586,1,1,0,1,-1,-2,-2,0
1513489345656586,-1,0,0,-1,0,1,-1,0
1513489345657578,-2,-1,0,-1,-1,-3,0,0
1513489345657578,1,-3,-2,0,2,1,1,1
1513489345679602,0,-1,-1,-3,-1,0,-1,2
1513489345679602,1,0,-1,0,-1,-1,-3,2
1513489345680594,0,-1,1,0,-4,-1,-1,-2
1513489345680594,-5,-1,-1,0,-1,-1,-1,-5
1513489345702622,-2,-1,-3,-1,-2,-1,0,-2
1513489345702622,2,-1,-3,-2,-1,-4,-5,0
1513489345702622,1,-2,-1,0,0,0,1,-1
1513489345702622,-4,-1,-1,0,0,-1,-1,-1
