timestamp,emg1,emg2,emg3,emg4,emg5,emg6,emg7,emg8
1513226967398010,0,3,-2,-2,-2,0,-1,-2
1513226967398010,2,1,-3,-1,-1,-1,-2,-1
1513226967399013,-3,1,-1,0,0,-2,0,0
1513226967399013,0,1,-1,-2,0,0,-2,0
1513226967421026,-2,-3,-2,-2,-2,0,0,1
1513226967421026,2,-3,-1,0,-1,-2,-2,0
1513226967422026,1,-3,0,-3,-1,-2,0,-1
1513226967422026,0,-2,1,-1,-2,-2,0,0
1513226967434535,0,-3,-2,0,0,-1,0,0
1513226967434535,0,1,1,-1,-2,0,-1,-2
1513226967443543,-1,0,-2,-2,-1,-1,-4,0
1513226967443543,-4,-2,-1,-2,0,-2,-1,1
1513226967458552,-3,-2,-1,0,-1,-3,-2,-1
1513226967458552,-2,1,1,0,-1,-1,0,-2
1513226967459053,-1,0,-2,-1,-1,0,-1,1
1513226967459053,0,0,0,-1,-1,0,-1,-2
1513226967481569,-3,-3,-1,-1,-1,0,0,0
1513226967481569,-1,0,-2,-3,-2,-1,0,-1
1513226967482068,0,0,-1,-1,-2,-2,0,0
1513226967482068,-3,0,-1,-1,-2,0,-1,-2
1513226967494579,0,-2,-1,-1,1,-1,-2,-2
1513226967494579,-2,0,-2,1,0,0,-2,-1
1513226967502583,0,-2,-2,0,-2,0,-1,-1
1513226967502583,0,-2,0,0,0,-1,2,0
1513226967518594,-1,-1,0,-1,0,-2,-1,-1
1513226967518594,-3,0,-1,0,-1,0,-1,0
1513226967520096,-2,1,0,0,-1,-1,-1,-1
1513226967520096,-1,0,-2,0,-2,-2,0,-2
1513226967540611,0,-1,0,-3,-1,-1,-1,-2
1513226967540611,0,-2,-1,-1,-1,-1,-1,0
1513226967541611,-1,-1,-2,-2,0,0,-2,-2
1513226967541611,-2,-3,-1,0,0,2,0,0
1513226967554622,-1,-2,0,-1,-1,-1,0,-1
1513226967554622,-2,-1,-2,-1,-1,-1,-1,0
1513226967563127,0,-1,-1,-1,-1,0,-1,0
1513226967563127,0,-1,-2,1,0,-3,-3,0
1513226967578138,2,0,-1,-1,-3,-2,-2,-1
1513226967578138,-1,-1,0,-3,-1,-1,0,-1
1513226967579638,0,-1,2,0,-1,-1,-1,0
1513226967579638,0,-2,-2,-1,-1,-1,-1,1
1513226967600676,-3,0,-1,-1,-1,-1,-2,-1
1513226967600676,-1,-1,1,-1,-1,-2,-1,0
1513226967601653,-1,-1,-2,-2,0,-1,-1,-2
1513226967601653,0,-1,-1,-2,-1,0,-2,1
1513226967623168,-1,0,-2,-2,0,0,-1,0
1513226967623168,0,-1,-2,-2,-1,-2,-2,0
1513226967624169,-1,-1,-2,-1,-2,-2,-1,-1
1513226967624169,2,0,-2,-1,-1,-1,0,0
1513226967638694,-1,-1,0,0,0,-1,-1,-1
1513226967638694,0,-1,-1,-2,0,-1,0,-1
1513226967639680,0,0,-1,0,-1,-3,-1,0
1513226967639680,-2,0,-2,-5,-2,-1,-2,0
1513226967660695,-1,-1,-1,0,-1,-2,0,-2
1513226967660695,-1,0,-1,-2,-1,-1,-1,-2
1513226967661696,0,-2,-1,-1,-2,-3,-1,-2
1513226967661696,-1,0,0,-1,1,-2,-2,-1
1513226967682710,-3,1,2,-3,0,1,0,1
1513226967682710,-1,-4,-6,1,-1,-1,-1,0
1513226967690239,-3,-2,0,0,-1,0,0,-1
1513226967690239,-2,-2,-1,-1,-1,-2,-2,-2
1513226967698231,-1,-1,-1,-2,-3,-1,-2,-1
1513226967698231,2,1,0,0,-1,0,0,-2
1513226967699232,-2,-2,-2,-3,0,1,-1,-2
1513226967699232,-1,3,0,-2,-2,-2,0,-3
1513226967721238,1,-3,-1,0,-1,-2,-2,-1
1513226967721238,-1,0,-1,-2,0,-2,-2,0
1513226967727746,0,-2,-1,-1,-1,0,0,0
1513226967727746,-7,-4,2,-1,0,2,0,-1
1513226967743264,-1,-2,-3,-1,-2,-3,-1,0
1513226967743264,-2,-2,0,0,-1,0,0,-2
1513226967744255,-1,0,-2,-2,-1,-1,0,-2
1513226967744255,1,-2,-2,-1,-2,-1,-2,-1
1513226967758766,-3,0,-2,-1,-1,-2,-2,-3
1513226967758766,-1,-3,0,-1,-1,-2,-1,-1
1513226967759264,0,-1,-2,-2,-2,0,0,-1
1513226967759264,1,-3,-1,0,0,-1,-2,-1
1513226967780779,0,-1,-3,-1,-3,-1,0,0
1513226967780779,-2,1,0,-2,-3,-2,-1,-3
1513226967781797,-1,0,-1,-1,0,0,-1,-3
1513226967781797,0,1,0,-2,-2,-1,-1,-2
1513226967803299,0,-1,-1,-1,-2,-2,0,-1
1513226967803299,-2,-2,-2,-3,-2,0,0,1
1513226967804797,-1,-1,-1,0,-1,-1,0,0
1513226967804797,-1,0,-2,-2,1,-2,-2,-1
1513226967817306,-2,-1,0,-1,0,-1,-2,1
1513226967817306,0,-2,-1,-2,0,-1,-2,0
1513226967825812,-2,-2,-2,-1,-2,-1,-1,0
1513226967825812,0,-1,-2,1,-1,1,1,-2
1513226967848851,0,-2,-1,-2,-1,1,1,-1
1513226967848851,-1,-2,0,-2,-1,-1,-1,-1
1513226967850330,-2,-2,-2,0,-1,0,-2,0
1513226967850330,0,-2,0,0,-1,-1,-1,0
1513226967863339,-2,-2,-2,-1,-1,-3,-2,-2
1513226967863339,1,1,-1,1,0,-2,1,-3
1513226967864868,0,0,0,-2,-1,-1,-1,-1
1513226967864868,0,-2,-2,-2,-2,0,0,0
1513226967876848,0,1,-1,-2,-3,0,-4,-2
1513226967876848,-1,0,-2,-2,0,-2,0,-2
1513226967885854,0,1,-1,-2,-1,-3,-1,-1
1513226967885854,-2,0,-1,0,0,0,0,-2
1513226967900889,-1,0,-2,-1,-1,0,-2,-1
1513226967900889,-2,-1,-2,0,-2,-1,-2,1
1513226967902385,-1,-2,-1,-1,-2,-1,0,-1
1513226967902385,3,-2,-2,-1,0,-1,-2,0
1513226967922380,-2,-3,1,0,-1,1,-1,-1
1513226967922380,-3,-1,-1,-2,-1,-1,-1,0
1513226967930899,0,0,-1,-1,0,-2,-2,-2
1513226967930899,0,-1,-1,-1,0,0,0,-1
1513226967937891,-2,-1,-1,1,-1,0,1,0
1513226967937891,-1,-1,0,-2,-2,0,-1,0
1513226967944405,3,1,-2,-2,-2,-2,-2,0
1513226967944405,-1,1,1,-2,-2,-1,-1,0
1513226967960907,-3,-2,0,-2,-1,-3,-1,-1
1513226967960907,-2,-3,-2,0,-1,-1,0,0
1513226967962408,0,-1,-2,0,-2,-1,-3,-1
1513226967962408,-1,-2,-1,-1,-2,-2,-2,1
1513226967983424,-3,-3,-2,0,-1,0,0,-2
1513226967983424,0,-1,-1,-1,-1,-1,-1,-1
1513226967984924,-4,-4,0,-1,0,0,1,-2
1513226967984924,-2,-1,-2,0,-1,0,-1,-1
1513226967996934,-3,-2,-1,-2,0,0,0,1
1513226967996934,0,0,-1,0,-1,-2,-3,-1
1513226968005939,0,-2,0,-2,2,-2,-1,0
1513226968005939,0,-1,-2,-1,-1,-1,0,-1
1513226968020962,1,-1,-3,2,-2,0,-1,-2
1513226968020962,-1,-2,-2,0,-2,-2,0,-1
1513226968022463,-2,-2,-1,0,-2,0,-2,0
1513226968022463,-1,-1,1,-1,-1,-4,0,-1
1513226968050681,0,0,1,-2,0,-3,-1,-4
1513226968050681,1,-1,-1,-1,0,0,-2,-1
1513226968052660,-1,-2,0,-1,-1,1,-1,-3
1513226968052660,0,1,-3,0,-2,0,-1,-1
1513226968057666,-3,-1,-1,-1,-1,-2,-2,0
1513226968057666,-1,-1,-2,-1,-2,-1,-1,-1
1513226968064668,-2,-1,-3,1,0,-1,0,0
1513226968064668,-1,-2,0,-2,0,-1,-1,-2
1513226968080680,-3,-2,-1,-2,-2,-2,-1,0
1513226968080680,-1,-1,-1,-2,-2,-1,0,-2
1513226968082181,1,-1,-1,-2,-1,-3,0,-1
1513226968082181,-3,-2,-1,0,-1,-1,-2,-2
1513226968103195,0,0,-2,-2,-1,0,-1,0
1513226968103195,-2,-1,0,0,1,-1,1,-2
1513226968104697,-1,0,-2,-2,0,-1,-1,-2
1513226968104697,0,1,0,-1,-1,0,-1,-1
1513226968117709,-1,0,-2,-1,-1,-2,-3,1
1513226968117709,-2,-2,-2,1,-2,-1,-2,-1
1513226968124711,-1,-2,-1,-1,0,0,-1,0
1513226968124711,-2,-2,-1,1,-1,-2,0,-1
1513226968141724,0,0,-1,-3,-1,-2,0,0
1513226968141724,0,1,-1,-2,-1,-2,-1,-1
1513226968143225,1,0,-2,-1,-2,-3,-1,0
1513226968143225,-1,1,1,-2,-2,-1,0,-3
1513226968163250,-1,0,0,-2,0,-4,-1,-1
1513226968163250,-3,-2,-1,-1,0,0,-1,0
1513226968164740,-3,-2,-1,0,1,1,-2,-1
1513226968164740,-2,-2,-2,-1,-1,-1,0,0
1513226968177249,-1,-2,-2,0,-1,0,0,-1
1513226968177249,0,-1,0,-1,-1,-2,-1,-2
1513226968193265,0,-3,-1,-1,-3,0,-1,0
1513226968193265,0,-3,-2,0,-1,-2,-2,1
1513226968200778,-1,-2,-1,-1,-1,-2,0,-1
1513226968200778,-1,-2,-1,-1,-2,-1,-1,1
1513226968202267,-1,1,0,-1,-1,0,-2,0
1513226968202267,-2,1,-1,-1,-1,0,0,-2
1513226968223282,-1,0,0,-2,0,-2,-1,-2
1513226968223282,-5,-4,0,-2,1,-1,1,-2
1513226968230786,0,-1,-1,-1,-1,-2,-1,-1
1513226968230786,-2,-1,-2,-1,-1,-1,-1,-1
1513226968236794,1,-1,-2,1,-1,0,-2,-3
1513226968236794,0,-2,0,-1,-1,0,0,1
1513226968245797,-1,-2,0,-2,-2,-1,0,-1
1513226968245797,-3,-1,0,-1,-1,-1,-1,-1
1513226968260807,-3,-1,0,0,-2,1,-1,-1
1513226968260807,-3,2,-1,-2,-1,-1,-1,-1
1513226968262308,-1,-2,-1,-1,-1,-1,0,-1
1513226968262308,0,-3,0,-2,0,-1,0,-1
1513226968283346,0,-3,-1,0,-2,-1,1,0
1513226968283346,-1,0,-2,0,0,0,-1,-3
1513226968284826,-2,0,-1,-3,-1,-2,-2,0
1513226968284826,-1,0,-1,-3,-2,0,-1,0
1513226968296834,2,0,-5,-2,-1,0,0,-1
1513226968296834,-1,-2,-1,0,-2,-2,-1,1
1513226968305840,-3,-1,-2,-3,-1,-3,-2,-2
1513226968305840,0,-1,-2,-1,0,-1,0,-1
1513226968320361,0,0,1,-1,0,0,-2,0
1513226968320361,0,-1,-1,0,-1,0,1,0
1513226968334371,0,-1,-2,-1,0,-1,0,0
1513226968334371,-1,-2,0,0,-2,0,-1,-1
1513226968343377,-2,-2,-1,-2,0,-2,-1,-1
1513226968343377,0,-1,-3,-1,-1,0,-2,-2
1513226968344867,-1,-2,0,-1,-1,-1,1,-1
1513226968344867,-2,0,0,-2,1,-1,-3,-1
1513226968365899,-2,-3,0,-1,-2,0,-1,-2
1513226968365899,-2,0,-1,0,-2,-1,-1,-1
1513226968367384,-1,0,1,1,0,-3,-1,-2
1513226968367384,0,0,-1,-2,-1,-2,0,0
1513226968380902,-1,-1,-1,-3,-1,-3,-1,-1
1513226968380902,1,0,-3,-4,-1,-3,-1,1
1513226968382404,1,0,-2,2,-1,0,-1,1
1513226968382404,0,-3,-2,1,0,-3,-2,-1
1513226968410914,-2,0,-1,0,-1,0,-2,0
1513226968410914,0,-2,0,0,0,-1,-1,-3
1513226968412418,2,-1,-1,-2,-2,0,-1,-2
1513226968412418,0,-2,0,-2,-1,-2,-2,-2
1513226968416929,-2,0,0,-1,0,-1,0,-2
1513226968416929,-1,-1,-3,-2,-2,-1,-1,0
1513226968425930,-2,-2,0,0,0,0,-2,0
1513226968425930,-2,-2,-1,-1,-2,-1,0,1
1513226968442435,-2,-1,0,0,-1,-1,-1,1
1513226968442435,-2,-1,-1,-1,-2,-1,-2,-1
1513226968443947,-1,-1,-1,-1,-2,1,-2,-2
1513226968443947,2,2,-3,-2,-1,-3,1,-2
1513226968463451,-2,-1,2,0,1,-1,0,0
1513226968463451,-2,0,-2,0,-1,-2,0,-1
1513226968464953,0,0,-2,-2,-2,-1,-2,-1
1513226968464953,0,-1,0,-1,-3,0,-2,0
1513226968476962,-1,-2,-3,-2,-1,-1,0,-2
1513226968476962,-2,0,-1,0,-2,-1,-1,-1
1513226968485967,-1,0,0,0,0,-1,-3,0
1513226968485967,-2,-3,-1,-1,-1,0,-1,-1
1513226968500987,1,-2,-1,-2,-1,0,-2,-2
1513226968500987,-2,-2,-2,-1,-2,-2,-1,-2
1513226968502488,-3,0,-2,-3,-1,-2,-2,0
1513226968502488,-2,-1,0,-1,-1,0,-1,-3
1513226968523494,-2,-1,-1,-2,-3,-2,-1,0
1513226968523494,-1,-3,0,-2,-1,-1,0,-1
1513226968524994,-2,-1,0,0,-2,-1,-1,-1
1513226968524994,-5,-3,3,2,1,0,1,0
1513226968537018,2,0,-1,1,0,0,-2,-1
1513226968537018,1,-2,-1,-2,-3,-1,-1,-3
1513226968553515,-1,-1,0,0,0,-1,-1,-1
1513226968553515,1,1,-1,0,0,0,-1,0
1513226968561520,-4,-2,-2,0,-1,-1,0,-1
1513226968561520,-2,-2,-3,-1,1,-2,-1,-3
1513226968568528,0,-4,-1,-2,-1,-1,0,-1
1513226968568528,-1,-2,-1,-2,-2,-2,-2,0
1513226968583535,0,-1,-1,-1,-2,0,-1,-1
1513226968583535,1,0,-2,-1,0,-2,-2,1
1513226968585053,0,-1,-3,-1,0,-1,-1,-1
1513226968585053,-2,0,-2,-1,0,-2,0,-1
1513226968597046,-1,-2,-3,-3,0,-1,0,1
1513226968597046,-2,-1,0,-1,-1,-1,-1,1
1513226968606053,-6,-3,2,0,0,1,0,-1
1513226968606053,-1,0,-2,0,-1,-1,-1,0
1513226968621064,-2,-1,-2,-1,-2,1,-1,-2
1513226968621064,0,0,0,1,-2,-1,-1,-1
1513226968622564,-1,2,0,0,-1,-1,0,-2
1513226968622564,-1,-2,-2,-2,-1,-2,-1,-1
1513226968643598,-2,-2,-1,-1,-1,-1,-1,-1
1513226968643598,-2,-1,-1,-2,0,2,0,0
1513226968645580,-1,-2,-1,-1,-1,-1,0,-1
1513226968645580,-1,1,-1,-1,0,0,-1,-3
1513226968665594,-2,1,-2,0,-1,-2,-1,-1
1513226968665594,-1,-1,-3,-1,-2,-3,-1,-1
1513226968667595,-1,-3,1,-1,-2,-1,-1,0
1513226968667595,-1,-2,0,-2,-1,0,0,0
1513226968681618,-1,0,-1,-1,-1,-1,0,-1
1513226968681618,0,0,-1,1,-1,-2,0,0
1513226968683119,-1,0,-3,-2,0,-1,-2,-2
1513226968683119,-1,0,-2,-1,-1,-2,-1,-1
1513226968703123,-1,-2,-1,-2,-2,-1,-2,-1
1513226968703123,-3,-2,-1,-1,1,2,0,0
1513226968705121,4,-1,-3,-1,-3,-3,-3,0
1513226968705121,1,-1,-2,-2,-1,-2,-2,-1
1513226968725637,1,-1,-2,-2,1,-2,-1,1
1513226968725637,-1,-1,-1,-2,0,-1,-1,-3
1513226968727642,-4,-1,1,-1,0,0,-2,0
1513226968727642,-2,-1,-2,-1,0,-1,-1,-2
1513226968740146,-1,0,-3,-1,-2,-3,-1,-2
1513226968740146,0,-3,-2,0,-2,1,-1,0
1513226968748653,-1,-1,-1,-1,1,0,0,-2
1513226968748653,-1,-1,0,-1,-1,-2,-2,0
1513226968763663,-2,0,0,-1,0,0,-1,-1
1513226968763663,-2,-1,-1,0,-2,-3,-1,1
1513226968765165,-2,-2,0,0,-2,-2,0,0
1513226968765165,-2,-2,-1,-1,0,0,-1,-1
1513226968785679,-1,-1,-1,-2,0,-2,-1,0
1513226968785679,-2,-1,-3,-1,0,-2,-1,-4
1513226968787680,0,-2,-4,-1,-1,-1,-1,-3
1513226968787680,-5,-2,0,-1,-2,0,1,1
1513226968800192,-2,-2,-2,-1,-3,-2,-1,-1
1513226968800192,-3,1,-1,-2,-2,-1,-2,-2
1513226968807193,-1,-1,-2,0,-1,-1,-1,0
1513226968807193,-1,-2,-2,-2,-1,1,0,-1
1513226968823205,0,1,1,0,-2,0,-1,0
1513226968823205,1,-1,-1,-2,-1,-2,-1,-1
1513226968829210,2,2,-2,-1,-3,1,-1,0
1513226968829210,1,-3,-3,0,-2,-1,-1,-2
1513226968845723,-2,1,0,-3,-1,-1,0,0
1513226968845723,1,-2,-2,-1,-2,-2,-2,-1
1513226968847222,-1,-1,-1,-2,1,-2,-1,-3
1513226968847222,0,2,2,-2,-1,-3,-2,0
1513226968868252,-1,-5,4,1,1,0,1,1
1513226968868252,1,5,-1,-1,-1,0,0,0
1513226968869744,-3,-3,-1,-1,-1,-1,-1,0
1513226968869744,-2,-3,-2,1,-1,-1,0,-1
1513226968890765,-1,1,-1,0,0,-1,0,-3
1513226968890765,-2,-2,1,-1,-2,-3,-1,0
1513226968892255,-3,-1,0,0,-1,0,-1,-1
1513226968892255,-3,-1,-2,-1,-2,-1,1,-1
1513226968905785,-1,-2,-1,-2,-2,-2,-2,-2
1513226968905785,-2,-3,-1,0,-1,-1,-1,-2
1513226968907264,0,-4,-2,-2,1,-1,-1,0
1513226968907264,2,1,-2,0,-1,-1,-1,-1
1513226968920774,1,-3,-3,-2,-2,-1,-3,-1
1513226968920774,-2,-2,-1,0,0,-1,0,0
1513226968926781,-2,1,-1,-1,-2,0,-1,-2
1513226968926781,-2,-2,-1,-1,0,1,-1,-1
1513226968943290,-2,-2,-3,0,0,-1,0,0
1513226968943290,-2,0,0,0,-1,-1,-3,-2
1513226968944802,0,-2,-1,-3,-2,0,-1,-1
1513226968944802,0,5,0,-1,-1,0,0,0
1513226968965808,-2,-3,-2,-2,-2,-1,-1,-1
1513226968965808,0,-3,-4,-1,0,0,1,-1
1513226968967307,-1,-2,-1,1,-1,0,-2,0
1513226968967307,-3,-3,-4,-1,-2,-1,-3,-2
1513226968980316,-2,-1,-1,0,0,1,-2,0
1513226968980316,-3,-1,0,-2,-1,-1,-2,-2
1513226968986821,1,0,0,-2,0,-2,-2,-1
1513226968986821,0,-1,-1,-2,-1,0,0,-1
1513226969003835,0,-1,-3,-1,0,-1,-1,-3
1513226969003835,0,-2,-2,-3,0,-3,-2,0
1513226969005334,0,0,-1,-1,-1,-2,-1,0
1513226969005334,-1,-1,0,-1,-1,0,-2,-1
1513226969025881,-2,-1,0,-1,0,-1,-1,-1
1513226969025881,0,-3,0,-1,-2,-2,-2,0
1513226969027389,-1,0,-1,0,0,-1,-1,-1
1513226969027389,-1,-2,-1,0,-2,-2,-1,1
1513226969040413,2,-1,-3,1,-2,1,-1,-2
1513226969040413,-1,0,-3,-1,0,-1,-2,-1
1513226969046895,-1,-1,1,-1,1,-2,0,-1
1513226969046895,-1,-2,-1,-1,0,-2,-3,-2
1513226969070912,-2,-2,-2,-3,-2,-1,0,0
1513226969070912,-1,-1,0,1,-1,0,0,-2
1513226969072417,-2,0,-1,1,0,0,-1,-1
1513226969072417,-2,-1,-2,0,-1,-2,-3,1
1513226969085948,-3,-1,0,-1,-1,0,-1,-2
1513226969085948,-3,-1,-2,-1,0,1,0,-1
1513226969087425,-2,-1,-1,-2,-1,-1,-2,1
1513226969087425,0,0,1,-1,-1,0,0,0
1513226969100458,0,-1,-1,0,0,-1,-1,0
1513226969100458,1,-3,-1,-2,-1,0,0,0
1513226969106937,-2,-1,-2,0,-1,-1,1,-2
1513226969106937,0,-3,-2,-1,-2,2,-2,-2
1513226969123463,0,1,-1,-2,-2,0,0,-2
1513226969123463,1,0,1,0,0,-1,-1,-3
1513226969124961,-5,-5,0,0,-1,-1,-1,-1
1513226969124961,0,0,1,-2,-2,0,0,0
1513226969145965,-1,-3,-3,-3,-1,-2,-2,0
1513226969145965,0,-3,-1,-1,-1,-1,-1,2
1513226969147476,0,0,-1,-1,-1,-1,-1,-2
1513226969147476,0,-1,-3,-2,-1,-1,-2,-1
1513226969159477,-2,-1,0,1,-1,-2,-1,-1
1513226969159477,-2,0,-1,-1,-1,1,-1,0
1513226969168617,0,-1,-1,0,-1,-1,0,-3
1513226969168617,0,-1,-2,-2,-1,-3,-1,-2
1513226969183144,0,0,0,-1,-2,-1,-2,-1
1513226969183144,-2,-3,0,-1,0,0,0,0
1513226969184630,0,-1,-1,-2,-2,-1,0,0
1513226969184630,-2,1,-1,1,0,0,-1,-2
1513226969205648,0,-2,-1,-2,0,0,-2,0
1513226969205648,0,-2,-3,-1,-3,-1,-1,0
1513226969207647,1,-1,-1,-2,-3,-1,-1,-2
1513226969207647,-5,-4,1,0,0,-1,1,0
1513226969219655,-1,0,-1,-4,-1,-2,-2,0
1513226969219655,-2,0,-1,0,-2,-1,-1,0
1513226969228674,-1,1,-2,-2,-1,-1,-2,0
1513226969228674,0,1,-2,-1,-1,-3,0,0
1513226969243176,1,-1,-1,-1,0,-2,-1,-1
1513226969243176,-1,0,-3,-3,-1,-2,-1,-2
1513226969244683,-3,0,-1,-1,0,0,-1,-3
1513226969244683,1,-4,-1,-1,0,1,-1,-2
1513226969264690,-1,3,0,1,-2,-1,-1,-1
1513226969264690,-2,-1,-2,-1,-1,-1,-3,-2
1513226969273193,-1,-1,0,0,-1,-2,-1,-2
1513226969273193,-1,-2,-1,-3,-1,-2,1,0
1513226969279197,-2,-2,-3,-2,1,-1,0,-2
1513226969279197,-1,0,0,1,1,0,-1,-1
1513226969288704,-1,1,-3,-2,-2,-2,-2,0
1513226969288704,0,0,-2,0,-2,0,-1,-1
1513226969303217,0,0,-2,-2,-1,-3,-1,-1
1513226969303217,-3,-3,-1,-2,0,0,0,-2
1513226969304718,0,-2,-1,-2,-1,-2,-2,0
1513226969304718,-1,-1,-1,0,-3,-2,-2,-2
1513226969325766,-5,-1,-1,1,-1,-1,-1,-2
1513226969325766,0,-2,0,-1,-3,-1,-1,-2
1513226969327267,0,0,1,1,-1,0,1,1
1513226969327267,2,-3,-2,-2,-2,-1,-2,0
1513226969339286,0,0,-2,-4,-1,-1,-1,-1
1513226969339286,0,0,-1,-1,-1,-1,-1,-3
1513226969365293,-2,0,-2,-1,0,-2,-1,0
1513226969365293,0,0,1,-2,0,-1,0,-1
1513226969366293,-1,0,0,-1,-2,0,1,-1
1513226969366293,-1,-2,-1,-2,2,-1,-2,-1
1513226969369295,1,-1,0,-1,-1,-1,-1,-2
1513226969369295,-1,0,-3,-1,-2,-1,-1,0
1513226969385807,-3,-2,-2,-2,-2,-1,0,0
1513226969385807,-1,0,-1,-1,-2,0,0,2
1513226969387308,1,-3,-2,-1,-1,-1,0,-2
1513226969387308,-4,-2,2,-1,1,0,1,-1
1513226969399338,1,-4,-1,-1,0,-1,-1,-2
1513226969399338,-1,1,0,-1,-2,-1,-2,0
1513226969408369,2,0,-3,-2,-2,0,0,0
1513226969408369,0,0,0,0,0,-2,-1,-1
1513226969423879,0,-1,-3,0,-1,0,0,-1
1513226969423879,-4,-3,-3,1,0,-1,-2,0
1513226969425381,-1,-1,-1,-1,0,-1,0,0
1513226969425381,0,-2,1,1,-2,-1,-1,-2
1513226969445895,-2,-4,-1,-2,-2,0,-1,-2
1513226969445895,0,-1,-1,-1,-2,0,-3,0
1513226969447396,-1,-1,-2,-1,-1,-2,-3,-1
1513226969447396,0,0,-3,-2,-1,0,-1,-3
1513226969459905,-1,0,-1,-1,0,0,-1,-2
1513226969459905,-1,-1,0,0,0,0,-1,-1
1513226969474414,-3,-4,1,-1,-1,-1,0,-2
1513226969474414,-2,1,-2,-2,-1,0,-2,1
1513226969483434,-2,-2,0,-1,1,-1,-1,-1
1513226969483434,-2,0,-2,-2,-2,-2,-1,-2
1513226969484946,0,-3,-1,0,-2,0,-2,-2
1513226969484946,1,0,-2,-1,-1,-3,-1,-1
1513226969505962,0,0,-2,-2,-3,0,0,0
1513226969505962,0,-3,0,0,0,-2,-1,0
1513226969507441,-1,-3,-2,0,0,0,-1,1
1513226969507441,-3,0,-1,0,-3,0,-1,-1
1513226969519460,-1,-3,-1,-1,0,-3,-7,-2
1513226969519460,-2,-1,-3,-2,-1,-1,-1,-2
1513226969528453,-2,-2,-1,0,-1,1,-2,-1
1513226969528453,-1,-2,-2,-1,-1,-2,0,0
1513226969542475,-1,-1,-2,0,-1,-1,1,0
1513226969542475,0,0,0,-1,-2,-1,-1,-1
1513226969549480,0,-1,-1,-2,-1,0,0,-2
1513226969549480,-1,-1,-2,-1,0,0,-1,0
1513226969565989,-4,-3,0,-2,-2,-1,1,-1
1513226969565989,-2,-3,-2,-1,-2,-2,-2,-2
1513226969567490,0,0,-1,0,-3,-1,-1,0
1513226969567490,0,0,-2,-2,-1,-3,-1,-1
1513226969588535,0,-1,-1,-1,-1,0,-1,0
1513226969588535,0,-2,-2,0,-1,-1,0,2
1513226969589999,-3,-1,-1,-1,0,-2,-2,-3
1513226969589999,-2,0,-2,-2,0,-1,-1,-1
1513226969603520,-1,0,-2,-2,-1,-1,-2,-1
1513226969603520,0,-1,0,-1,-1,-2,-1,-1
1513226969605007,0,1,0,-1,0,-1,-1,1
1513226969605007,-1,-1,-1,-1,0,-1,1,0
1513226969626024,0,-1,-2,0,-2,0,-1,-1
1513226969626024,0,-2,-1,-2,0,-1,-1,-2
1513226969627523,-1,-2,-1,-2,0,-1,-1,-2
1513226969627523,-1,-1,0,1,-1,0,-2,-2
1513226969648551,-1,0,-2,1,-2,-1,-1,-1
1513226969648551,-1,0,-2,-1,-2,-1,-1,-2
1513226969650053,-2,1,-2,-2,-2,-2,0,-3
1513226969650053,-2,0,0,-1,-1,0,0,-1
1513226969663049,-6,-3,0,1,1,-2,-1,0
1513226969663049,1,-1,-1,-3,-2,1,-4,-1
1513226969665052,0,-2,-2,-1,-2,-1,-1,1
1513226969665052,0,-2,-1,-1,1,0,-2,-3
1513226969686064,0,0,-1,-2,-2,-1,-2,-2
1513226969686064,-2,0,-1,-2,1,-1,0,-1
1513226969687604,-2,-1,0,0,-1,-1,0,1
1513226969687604,-1,-3,-1,-2,-2,-3,-1,0
1513226969716086,0,-2,-2,-1,-2,-1,0,-2
1513226969716086,-3,-1,-1,-1,-1,-1,-1,-1
1513226969717586,-1,-1,1,-1,-2,0,-2,-1
1513226969717586,0,-1,-1,0,-1,-1,1,-1
1513226969722590,-1,2,-1,0,-1,-1,-2,-2
1513226969722590,-1,-2,-2,-1,-1,-2,-1,0
1513226969729595,-1,0,-2,-1,0,-2,0,-2
1513226969729595,-1,1,0,0,-2,-1,-1,-1
1513226969745106,-1,-1,-2,-3,-2,-2,-2,-2
1513226969745106,3,-2,-2,0,0,-1,1,0
1513226969753622,-5,-2,1,1,0,-1,-3,0
1513226969753622,0,-2,-1,-2,-1,-2,-1,1
1513226969768125,1,-1,-1,-1,-1,-1,0,0
1513226969768125,-2,-1,-2,-1,-3,-2,0,-2
1513226969770124,0,-1,-2,-2,1,-1,-2,-2
1513226969770124,-1,-2,-2,0,-1,0,-2,-1
1513226969790698,-2,-2,3,0,1,0,-1,-2
1513226969790698,-3,-1,-1,-1,0,-1,-1,-3
1513226969792641,-4,-1,-2,-2,0,-1,-2,-1
1513226969792641,0,1,0,0,0,0,0,1
1513226969806151,0,-2,-3,-2,-1,-1,-1,0
1513226969806151,-2,-2,-1,-1,-2,-1,0,-2
1513226969807652,1,-1,-1,-2,-1,-3,0,-2
1513226969807652,-1,-1,-1,-2,-3,-2,1,-2
1513226969828666,-3,-2,-1,-1,0,-1,-2,-2
1513226969828666,-1,1,1,1,-1,0,0,0
1513226969834671,1,-1,-1,-1,-1,-3,-1,-2
1513226969834671,-2,-2,-2,-1,-1,0,-3,-1
1513226969842675,0,-2,-2,-3,-1,-1,0,-2
1513226969842675,-4,0,0,-1,0,1,-1,0
1513226969857202,-1,-5,-2,-1,-2,0,0,0
1513226969857202,0,-2,0,-1,-2,-2,-2,-1
1513226969866202,-1,-1,-2,-1,-1,0,-3,0
1513226969866202,-2,-3,2,-1,0,0,-1,0
1513226969868194,1,1,-2,-2,-3,1,-2,-2
1513226969868194,-2,1,-1,-1,0,-2,-2,-1
1513226969888218,0,1,-2,0,-2,-2,-1,0
1513226969888218,1,-1,-1,-2,-1,-2,-1,-1
1513226969889708,0,0,-1,-2,1,-1,-1,0
1513226969889708,-1,-2,-2,-1,-2,-1,-1,-1
1513226969902733,0,0,0,-1,0,-1,-1,-2
1513226969902733,0,-1,-2,-1,-1,-2,-3,0
1513226969909222,0,0,-1,-1,0,-1,0,0
1513226969909222,0,-1,-2,-3,-1,-2,-1,-2
1513226969925736,-1,-1,-1,0,-1,-2,-1,1
1513226969925736,-2,-2,-2,0,-2,-1,-1,-1
1513226969927237,-2,-2,0,0,-2,1,-2,-1
1513226969927237,-3,-1,-1,-1,-2,-2,-1,-4
1513226969948260,-1,0,-1,-2,-2,-2,-1,1
1513226969948260,0,-1,-1,-1,-3,-2,-1,-1
1513226969949760,-1,1,-2,-1,0,2,1,0
1513226969949760,-3,-1,-2,-1,0,-1,-2,-2
1513226969963304,0,-1,0,0,-1,0,0,-1
1513226969963304,-1,0,-1,-3,0,-1,-1,-2
1513226969969307,1,0,2,1,-1,-1,-2,-1
1513226969969307,3,1,-3,-2,-1,1,-3,-2
1513226969993325,-1,1,-1,-3,1,0,-2,-1
1513226969993325,0,-1,1,0,1,-1,0,-1
1513226969994826,-1,-3,0,-1,-1,-1,-1,-1
1513226969994826,-2,0,0,1,-2,-2,-2,-1
1513226970008336,-1,-6,-2,-1,-3,1,-2,-1
1513226970008336,-1,-2,-3,-2,-2,-1,-1,-2
1513226970009838,-2,1,-1,-1,0,-1,1,0
1513226970009838,0,-1,-1,-2,0,-1,-1,-1
1513226970022418,-2,0,-2,-1,-3,-2,-1,-1
1513226970022418,-2,-2,-1,-1,-1,-1,-1,-1
1513226970030915,-3,-2,1,1,-1,-2,-1,-1
1513226970030915,-1,-4,-1,-1,-2,-1,-1,-1
1513226970045923,-1,-2,-2,-2,-2,-1,0,-2
1513226970045923,-1,-3,-1,0,-1,-2,-1,-1
1513226970047424,2,2,1,-3,-2,0,-1,-1
1513226970047424,0,-2,0,-1,0,-1,0,-1
1513226970068451,0,-2,-1,0,-2,-1,0,-2
1513226970068451,-1,0,-1,-2,0,0,-2,-2
1513226970069943,-2,-4,1,-3,-1,-1,-2,-2
1513226970069943,2,0,-3,-3,-2,-1,-1,0
1513226970081961,0,1,-1,-2,-3,-2,-1,0
1513226970081961,4,2,-5,0,-2,0,-2,-2
1513226970090967,-2,1,-2,-1,-1,-2,2,-2
1513226970090967,-5,-2,4,1,0,1,0,2
1513226970105999,0,1,1,-2,-1,0,-1,-3
1513226970105999,0,2,-1,-1,-1,-1,0,-2
1513226970107504,0,-2,-3,0,0,-1,0,0
1513226970107504,-3,-3,-3,-2,-2,0,0,-2
1513226970135489,-3,-2,-3,-1,0,-2,-1,-1
1513226970135489,-3,-1,2,0,-2,0,0,0
1513226970137504,-1,-3,-3,-1,-2,-2,0,-3
1513226970137504,-1,-2,-1,0,-2,-2,-1,1
1513226970141991,-2,0,1,0,-1,0,-2,-1
1513226970141991,0,0,-2,-2,0,-2,0,0
1513226970150998,-1,-2,-2,-2,-3,-5,-2,0
1513226970150998,-2,1,-1,0,-2,-1,0,-1
1513226970165562,-2,-4,-2,-2,0,-1,-1,-2
1513226970165562,-1,-1,-2,-2,-1,0,-2,-2
1513226970167556,-1,1,-3,0,-2,-1,-1,-2
1513226970167556,-1,-1,0,0,-3,-1,-3,-1
1513226970188072,0,0,-1,-1,-1,-1,-1,1
1513226970188072,-1,-1,-1,0,0,1,0,1
1513226970194559,-1,-1,-1,-1,-1,0,-1,-2
1513226970194559,1,-2,-3,-5,-2,-1,0,-3
1513226970202086,0,-1,-2,0,-1,-1,0,-2
1513226970202086,-1,0,-1,-2,-1,-2,-2,0
1513226970211120,-2,-2,0,1,0,-1,-3,-1
1513226970211120,1,-2,-3,0,0,-1,1,1
1513226970225645,-1,-4,-1,-2,0,0,-1,0
1513226970225645,-6,-6,2,-1,0,0,1,1
1513226970227653,-1,0,-3,-1,-1,0,-1,-2
1513226970227653,-3,-3,-1,-1,-1,-2,-4,-1
1513226970248158,-1,-1,-1,-2,-2,-1,-2,-1
1513226970248158,1,-1,0,-2,-1,-1,-2,0
1513226970249651,-1,-1,0,-2,0,0,1,-1
1513226970249651,-1,-1,0,-1,-1,0,-3,-3
1513226970262159,0,1,-1,-2,-1,-3,0,-2
1513226970262159,0,0,-1,-2,-1,-2,0,-2
1513226970271163,0,-1,-1,0,-2,0,-1,-1
1513226970271163,-1,1,-2,0,0,-3,-2,-2
1513226970285685,-1,-2,0,-2,-2,0,-1,-2
1513226970285685,0,-2,-2,-3,-1,-1,-2,-1
1513226970287677,-2,1,-2,0,-4,-2,0,-1
1513226970287677,-1,1,-2,-1,-2,-2,-2,-1
1513226970308212,-1,-2,-2,-1,-2,-3,-3,-1
1513226970308212,0,-2,1,0,0,-2,-1,0
1513226970310192,-3,-5,2,0,-1,-1,1,1
1513226970310192,-1,0,-1,-3,1,-1,-2,-3
1513226970321708,2,0,-3,1,1,-2,-1,-3
1513226970321708,-3,1,-3,-2,-1,0,-2,-3
1513226970331715,0,1,-1,-3,-2,-1,-1,-1
1513226970331715,-1,-1,0,-2,-2,-1,0,0
1513226970345715,-3,-1,-1,-1,-1,0,0,0
1513226970345715,-1,1,-2,0,-1,0,-1,-1
1513226970347217,-2,-1,-3,-2,1,0,-2,-1
1513226970347217,-1,-2,-1,-2,-1,-1,-1,-1
1513226970368234,1,0,-3,-2,0,-1,0,-2
1513226970368234,-2,-3,-1,0,1,-1,-1,-1
1513226970369733,1,-2,-1,-2,-1,0,0,-1
1513226970369733,-2,-1,-2,-1,-1,0,0,-1
1513226970381750,-2,0,-1,1,1,-1,-1,-2
1513226970381750,-2,1,0,0,0,-2,-2,0
1513226970390756,1,-2,-2,0,0,-2,-2,-1
1513226970390756,0,-4,-2,-2,-1,-2,-2,-1
1513226970413275,-3,-1,0,-2,-2,-1,-1,0
1513226970413275,0,-2,-3,-1,-2,-1,-1,-2
1513226970414774,-2,0,-1,0,0,-1,-3,-3
1513226970414774,-3,-1,2,2,0,1,0,-1
1513226970428282,0,0,-1,-1,-1,-2,-1,1
1513226970428282,-2,-1,-1,0,-1,0,0,-2
1513226970429795,-1,-3,-2,-1,1,-2,-1,-1
1513226970429795,-3,-3,0,-2,-2,0,0,-1
1513226970441807,-1,0,-2,-2,0,-1,0,0
1513226970441807,0,-1,-1,-1,-1,-1,-3,-1
1513226970450798,-1,0,-1,1,-3,-1,0,0
1513226970450798,0,-2,-4,0,0,-1,-1,-3
1513226970465812,-2,-1,0,-4,-1,0,-1,-1
1513226970465812,-2,0,-1,0,-1,-1,-1,-2
1513226970467310,-1,0,-1,-1,-2,-2,-1,0
1513226970467310,-1,1,-2,0,-2,-2,-1,-2
1513226970488331,-1,-3,1,-1,0,0,-2,-3
1513226970488331,-1,-1,-1,-1,0,-1,-1,1
1513226970489831,-1,-2,-1,-1,-1,-1,-1,-1
1513226970489831,-1,-2,-2,-3,-1,0,-1,0
1513226970511366,-2,-1,-2,-1,-1,-2,0,0
1513226970511366,-3,-1,-1,-1,-1,-2,0,-1
1513226970512843,0,0,-1,-2,1,-2,0,0
1513226970512843,0,2,-1,-2,-1,-1,-1,-2
1513226970525863,-1,-1,-2,0,-1,-2,-1,-2
1513226970525863,0,-1,-2,1,-2,-2,-1,-1
1513226970527354,0,-3,-1,-2,-1,-1,-2,-1
1513226970527354,-3,-1,1,0,-1,-2,0,-2
1513226970548380,0,-3,-2,-1,-2,0,-2,-2
1513226970548380,0,-2,-1,0,0,-1,-1,-2
1513226970549868,-1,0,-2,-1,-1,-2,-1,-1
1513226970549868,-1,-1,-2,-2,-1,-2,0,-2
1513226970570894,-3,0,-1,-1,-1,-2,-2,-2
1513226970570894,-3,-2,0,-1,0,-1,-2,-1
1513226970572401,0,0,-3,1,1,2,-1,1
1513226970572401,-5,-5,-1,1,-1,-2,-1,-1
1513226970586404,-2,1,-1,-1,-1,-1,0,-1
1513226970586404,0,-1,-1,-3,-2,-1,-1,0
1513226970587898,-3,-3,-1,-1,-1,0,0,-2
1513226970587898,1,0,-2,-3,-1,-2,0,-1
1513226970608419,-2,-1,-2,-1,-1,-1,0,-1
1513226970608419,1,-1,-1,-1,-1,-1,-1,-1
1513226970609913,-1,-2,-1,0,-1,-2,0,-2
1513226970609913,1,0,-3,-2,-2,-1,-2,-1
1513226970631427,-2,-1,-1,1,-1,0,-1,-3
1513226970631427,1,0,-3,-2,-1,-1,-2,1
1513226970632948,-1,-3,0,0,-1,-2,-1,-2
1513226970632948,0,0,-1,-1,-1,0,0,0
1513226970645938,2,-1,-1,-2,0,-2,-1,-2
1513226970645938,-1,-2,-2,-2,-2,2,-1,-2
1513226970647438,0,-1,-1,-1,-1,-3,-2,-1
1513226970647438,0,-2,-2,-2,0,-1,-1,0
1513226970668455,-1,-1,-3,0,-3,-1,-2,-1
1513226970668455,-2,0,-2,-2,0,-2,1,-1
1513226970669954,-1,-1,-1,-3,-2,-2,-2,0
1513226970669954,0,0,-1,0,-2,0,-1,0
1513226970690468,0,0,0,0,-2,-1,-2,-1
1513226970690468,-1,-3,-1,0,-2,-2,-1,-1
1513226970692469,-4,0,-1,-1,-1,-1,-1,-2
1513226970692469,0,-1,-1,-2,1,-1,-1,-2
1513226970705999,-3,-2,-2,-1,0,-3,-1,0
1513226970705999,0,-2,-1,-1,-3,-2,0,-1
1513226970713554,4,0,-4,-1,-1,0,-1,-2
1513226970713554,-2,-1,-2,-1,-2,0,0,-1
1513226970728055,-1,-1,-1,-1,0,0,0,2
1513226970728055,-3,-1,-1,-1,0,1,-1,0
1513226970730045,-1,0,1,-1,-1,-1,-1,-1
1513226970730045,-1,-1,-1,-1,0,-1,0,-2
1513226970750562,0,-3,-1,-2,0,-1,-1,-1
1513226970750562,0,1,-1,0,1,-2,-2,-1
1513226970752575,-2,-1,0,-1,-2,0,-1,0
1513226970752575,0,-1,-2,0,-2,-1,-2,-2
1513226970765080,-2,-1,0,0,-1,-3,-1,-2
1513226970765080,0,-1,-1,-3,-1,-1,0,1
1513226970772074,0,-1,0,-2,-2,-1,0,-1
1513226970772074,1,-1,-3,0,-1,-2,-1,-1
1513226970788147,-1,-1,-2,-3,-1,-2,-2,-1
1513226970788147,-1,0,0,-1,-1,-2,-1,-1
1513226970790088,-1,-2,-2,0,0,0,0,-1
1513226970790088,-1,1,-1,0,-1,-2,-1,0
1513226970811103,2,0,-4,-3,-2,-1,0,-1
1513226970811103,-3,-2,-2,0,-2,-1,0,-3
1513226970812606,0,-3,-2,-1,-1,-1,0,0
1513226970812606,-1,-1,-1,1,-2,-2,0,-1
1513226970833117,-1,-3,-2,-1,0,-1,-3,0
1513226970833117,-2,-2,-3,-1,0,-1,-1,-1
1513226970835119,1,-1,-1,0,-1,0,-2,-1
1513226970835119,-1,-2,-1,0,-2,-2,0,-2
1513226970848142,-3,-1,0,0,-3,-1,0,-2
1513226970848142,1,-1,1,0,-2,0,-1,0
1513226970850131,-2,-2,-2,0,-2,-1,-2,0
1513226970850131,-1,-1,0,-2,0,0,0,-2
1513226970870644,0,-1,0,0,-2,-1,-1,-2
1513226970870644,-2,-1,-1,-2,-1,-2,-2,-1
1513226970872645,-1,1,-1,-1,-1,-2,-2,-1
1513226970872645,-1,-1,-1,-3,-2,1,-1,0
1513226970893166,-1,-1,-2,-1,-1,0,-2,1
1513226970893166,-1,-1,-2,0,0,-1,-1,-1
1513226970895164,-1,0,-3,-2,-1,-2,-1,-1
1513226970895164,-1,-2,-1,-1,1,-1,-3,-1
1513226970908173,-2,0,-2,-1,0,-1,1,-2
1513226970908173,0,-1,-2,-1,0,-2,-2,-1
1513226970909672,0,2,-3,-3,-1,0,0,-1
1513226970909672,-2,-2,-2,-1,-2,-3,-1,-1
1513226970930695,-2,-2,0,1,-1,0,-1,0
1513226970930695,-2,-1,-1,-1,-1,0,0,1
1513226970932197,-1,-2,-1,-1,0,-1,-1,-2
1513226970932197,-1,-2,-2,-1,-2,-1,0,-1
1513226970945250,-5,-2,0,0,0,-1,0,0
1513226970945250,1,0,0,-1,-2,-1,0,-3
1513226970951754,0,-1,0,0,-1,0,-1,1
1513226970951754,1,0,-1,-1,-2,0,-3,-2
1513226970968778,-3,-4,-1,-1,0,-1,0,-1
1513226970968778,-2,-2,-2,0,-2,-2,-2,1
1513226970970269,-3,-2,0,-1,-2,-2,-1,-2
1513226970970269,-1,-1,-1,-1,-3,-2,0,0
1513226970990790,0,1,-2,-3,-1,-1,-1,-2
1513226970990790,0,-2,-1,-1,1,0,-1,0
1513226970992293,1,-3,-2,-1,0,-1,0,1
1513226970992293,-4,-1,0,0,0,-2,-1,-1
1513226971004292,2,0,0,-2,-4,-2,-2,-1
1513226971004292,-2,-1,1,-1,-1,1,0,-1
1513226971019302,-2,-3,-1,-1,-2,-1,0,-2
1513226971019302,-1,-2,-2,-2,-2,-1,-1,0
1513226971028310,-1,-2,-1,0,1,-1,0,0
1513226971028310,-4,-3,-1,-1,0,-1,-1,-2
1513226971029809,-1,1,-2,-2,0,-1,0,-1
1513226971029809,-1,-1,-2,-2,0,-3,-1,-2
1513226971050853,-1,0,-3,-3,-2,-2,-2,-2
1513226971050853,0,-2,-2,0,-1,-1,-2,0
1513226971052326,-1,-2,0,-1,1,-1,-1,0
1513226971052326,-2,-1,-1,-1,0,-2,-1,-1
1513226971064337,-1,-2,1,0,-3,-2,-3,-2
1513226971064337,1,0,-1,-1,-3,-2,-1,-2
1513226971073341,-3,1,-1,0,-2,-2,0,0
1513226971073341,-2,-2,0,0,-2,0,-2,-1
1513226971088373,-1,-2,-2,0,0,-1,0,0
1513226971088373,-1,-1,1,-1,0,0,0,1
1513226971089853,1,-1,-1,0,-2,-1,-1,-3
1513226971089853,0,0,-2,-4,-1,-1,1,0
1513226971111368,0,0,1,1,2,0,-1,0
1513226971111368,0,0,-1,-1,1,-1,0,-2
1513226971112881,-1,0,-1,0,-1,-2,-1,-1
1513226971112881,-1,-1,-1,0,-1,0,-2,0
1513226971124388,0,0,-1,-3,-1,-1,-2,-1
1513226971124388,1,-2,0,-1,-1,-3,-1,-1
1513226971140901,-3,-2,0,0,-1,-1,-1,-1
1513226971140901,-1,-2,-3,0,-1,-2,1,-1
1513226971148403,-1,-3,-2,-1,-2,-1,0,-2
1513226971148403,-3,-2,0,0,-2,-1,-2,1
1513226971149904,-3,-3,-1,0,0,-2,-1,-1
1513226971149904,-1,1,0,-1,-1,-1,-3,-1
1513226971170910,-2,0,-1,-2,-1,0,-1,0
1513226971170910,-1,-1,-2,-1,-1,-1,0,-1
1513226971172411,-2,-1,-1,-1,-2,-1,-1,-1
1513226971172411,1,0,-2,-2,0,0,0,0
1513226971184420,-2,0,0,0,0,0,0,-2
1513226971184420,1,1,-1,-2,-1,0,-1,-2
1513226971193428,-1,0,-1,-2,-1,0,-1,-1
1513226971193428,0,-4,-2,-1,-2,0,-1,-1
1513226971208936,-2,-3,-3,1,-1,-2,-2,-1
1513226971208936,-6,-7,3,0,0,0,0,-1
1513226971210438,0,-1,-1,-2,0,-2,-1,-3
1513226971210438,-2,-1,-1,-1,-2,0,-1,-1
1513226971230461,-2,1,-1,-2,-1,0,-2,0
1513226971230461,-2,1,-3,0,-1,-2,-2,1
1513226971232463,0,-1,0,-2,-1,0,-1,0
1513226971232463,-2,-1,0,0,-1,1,-2,-1
1513226971244962,-2,-1,-1,-1,0,0,-2,0
1513226971244962,-2,0,-2,0,-1,-2,-1,0
1513226971253499,-1,0,-1,-2,-2,0,-1,0
1513226971253499,-2,-1,-3,-2,-1,-1,-1,-1
1513226971267981,0,-1,-1,-2,-2,0,1,-1
1513226971267981,2,-3,-3,0,2,0,0,-1
1513226971269979,-1,-2,-1,1,1,-1,-2,0
1513226971269979,-2,-2,-1,-1,0,-4,-1,-2
1513226971290534,-2,-1,-1,0,-3,-2,-1,-1
1513226971290534,0,0,-2,-1,-1,0,-1,-2
1513226971292512,-1,0,-3,-2,-2,-1,-1,-3
1513226971292512,0,0,2,0,-1,-1,-1,-1
1513226971304520,0,-2,-2,-1,-1,-1,0,-2
1513226971304520,-1,-2,-2,-1,-2,-3,-1,-1
1513226971313527,-2,-2,0,-2,-2,-1,-1,-2
1513226971313527,-4,0,-2,-2,-2,0,-1,-1
1513226971328547,-1,-2,-1,-1,-3,-1,-1,-1
1513226971328547,0,1,0,-3,0,-2,-1,-1
1513226971329537,-3,-1,-1,-2,-1,-1,0,0
1513226971329537,2,-1,1,-2,-2,0,0,1
1513226971350556,-1,-1,-3,-1,0,1,0,-2
1513226971350556,-1,0,-2,-1,-2,-1,-1,-1
1513226971352054,0,-3,-1,1,-1,-2,-2,-4
1513226971352054,-1,0,0,-1,0,-2,1,-1
1513226971364563,1,-1,-1,-1,-1,-1,-1,-2
1513226971364563,-1,-1,1,-1,-2,-1,-1,-1
1513226971379573,-2,0,-2,0,-2,-1,-1,-1
1513226971379573,-1,-2,-2,-2,-2,0,1,0
1513226971388082,-3,0,-1,-2,0,0,-1,-3
1513226971388082,-3,0,0,-1,0,-1,0,0
1513226971390082,2,-3,-2,-3,-3,-1,-1,-1
1513226971390082,-1,-2,-1,1,1,-1,-2,-2
1513226971411108,-1,-1,1,0,-2,-2,-2,0
1513226971411108,2,1,-2,-2,-2,0,-2,-2
1513226971412610,-3,0,2,0,0,0,-1,1
1513226971412610,1,-1,-3,-1,-1,-1,-1,-2
1513226971424718,0,-1,-1,-1,0,-2,-1,-2
1513226971424718,-1,-1,-3,-1,-1,0,-2,-1
1513226971433702,1,0,-2,-1,-2,-1,0,1
1513226971433702,-2,-3,-2,-1,-1,-2,0,-2
1513226971448211,-5,-1,0,0,1,-1,0,-2
1513226971448211,-2,0,1,-3,0,1,-1,-1
1513226971449713,0,-1,-2,-1,-2,-2,-1,-1
1513226971449713,-1,0,0,-1,-1,0,-2,-1
1513226971470728,-1,-1,-2,-3,-2,-1,-1,0
1513226971470728,-2,-1,-1,-1,1,-1,0,-1
1513226971472229,-2,-1,-3,0,0,-1,-1,-2
1513226971472229,0,0,-1,0,-3,-1,-1,-1
1513226971493744,-2,-1,-1,-2,-1,-1,0,1
1513226971493744,0,-1,-2,-2,-3,-1,-1,-1
1513226971494744,0,-1,-1,-2,1,1,-1,-3
1513226971494744,0,0,-2,1,-2,-2,-2,-1
1513226971508279,-1,-4,1,0,0,-1,0,0
1513226971508279,-1,-1,-2,-1,-1,-2,-1,0
1513226971509756,-1,-1,0,1,0,-2,-1,0
1513226971509756,-2,1,-3,-3,1,-4,-2,-1
1513226971530781,2,2,-1,0,0,-1,-1,-2
1513226971530781,-3,-2,2,1,0,-2,0,0
1513226971532275,-1,-2,-1,-1,-2,0,-1,0
1513226971532275,0,-1,0,-1,-1,-1,-1,-1
1513226971553297,1,0,-2,-2,-1,-2,-2,0
1513226971553297,-1,-3,-1,0,1,0,0,-2
1513226971554791,-1,-1,-1,-1,-2,0,-1,-3
1513226971554791,-4,0,-1,-3,-3,-1,0,-1
1513226971568812,-3,-4,-1,0,0,-1,-1,0
1513226971568812,0,-3,-2,-1,-2,1,-2,-2
1513226971570798,-2,-1,-1,-2,0,-2,-1,0
1513226971570798,0,-2,-1,-2,-1,-1,-1,-1
1513226971590812,-2,-1,-1,-1,-3,-1,0,-3
1513226971590812,0,1,0,-1,-3,-1,-1,0
1513226971592314,0,-1,-2,-1,-1,-2,0,0
1513226971592314,0,0,0,-1,-1,0,0,-2
1513226971613890,-1,0,-3,-1,-1,-1,-1,-1
1513226971613890,1,2,-3,-2,-3,-1,-1,-1
1513226971615330,0,-1,-1,-2,-3,-1,0,-2
1513226971615330,-1,-2,-3,-1,0,0,-1,0
1513226971627401,1,-1,-2,-2,-2,-2,-1,-3
1513226971627401,-1,-2,-1,-2,0,-1,1,-3
1513226971634406,1,-1,0,0,-2,-2,-1,0
1513226971634406,-2,-2,1,-2,-1,-1,-2,-1
1513226971649917,-1,-1,0,-1,-2,-1,-1,0
1513226971649917,-2,-1,-2,-1,-1,0,-2,-2
1513226971658424,1,0,0,-2,-2,-2,0,-2
1513226971658424,-2,-1,-2,-1,-1,-1,-2,-2
1513226971673434,0,1,-1,-1,0,-2,-3,-2
1513226971673434,-1,-1,0,-1,-1,-1,-1,-1
1513226971674937,-2,-1,-2,-1,0,0,-1,0
1513226971674937,0,-2,0,1,-2,-2,1,-2
1513226971695449,0,-1,-1,-1,0,-1,-2,-1
1513226971695449,-1,0,0,1,-1,-1,-1,1
1513226971697460,-4,-3,0,-1,-1,-1,-2,-1
1513226971697460,-2,0,-3,0,-2,-1,-1,0
1513226971710959,-1,-1,-1,-1,-2,-1,0,-2
1513226971710959,-2,-2,-1,-2,-1,0,0,0
1513226971712470,0,-1,1,-1,-2,-1,-1,-2
1513226971712470,-1,-1,0,-2,-1,0,-2,-1
1513226971732975,0,-1,-1,1,-2,0,1,-1
1513226971732975,-1,-3,-1,-3,-1,-3,0,-2
1513226971734977,-1,0,-2,-1,-2,0,-2,0
1513226971734977,1,-1,0,0,0,0,-1,0
1513226971747486,0,0,0,-2,-1,-1,-1,1
1513226971747486,-1,0,-1,-1,-2,0,-1,0
1513226971761996,-1,1,-3,-2,0,-1,0,-1
1513226971761996,-2,0,-2,-1,0,-1,0,0
1513226971770792,-1,-3,-1,-2,-1,-2,-1,-2
1513226971770792,-3,-1,1,1,-1,0,-1,-4
1513226971772293,-4,-4,0,0,-1,-1,-3,0
1513226971772293,-1,-1,-1,-2,1,-1,-2,-1
1513226971800806,-1,-1,-2,-1,-1,-3,-2,1
1513226971800806,0,1,-2,-1,-2,-1,0,0
1513226971802305,-1,-2,-2,0,-2,0,-2,-1
1513226971802305,-2,-2,0,-1,-1,-2,1,-1
1513226971807809,-2,-3,-2,0,2,1,-1,-1
1513226971807809,0,-1,1,0,-1,-2,0,0
1513226971814316,0,1,0,-2,-2,-1,-1,-1
1513226971814316,-1,-3,-1,0,0,-2,-1,-1
1513226971830824,-2,1,-1,-3,1,-1,-1,-2
1513226971830824,0,-1,-3,-1,0,0,-2,0
1513226971832325,0,-1,-3,-2,-1,-1,-1,0
1513226971832325,-1,-1,-1,-1,-3,-1,-1,0
1513226971853344,-1,1,-2,-1,-2,0,-1,-2
1513226971853344,1,-2,-2,-1,0,-2,-1,-1
1513226971854842,-2,-2,-1,-1,-1,-2,0,-1
1513226971854842,2,0,-4,-2,-2,-2,0,-1
1513226971867350,-1,-1,0,0,-1,-1,-1,-1
1513226971867350,1,-2,-1,-1,-2,-3,0,0
1513226971874355,2,1,-4,-2,-1,-2,-1,0
1513226971874355,1,-3,-1,-1,0,-1,-2,-2
1513226971891367,-1,0,-1,0,-1,-1,-1,0
1513226971891367,-1,-2,0,-2,-2,0,-1,-2
1513226971892869,0,1,-1,-1,-1,-2,0,0
1513226971892869,-3,0,-2,-1,0,-1,-1,-1
1513226971913399,-2,-1,-2,-1,-1,0,-1,0
1513226971913399,-2,1,-1,0,-2,1,-3,-1
1513226971914896,-1,0,-1,-2,-2,-2,-1,-2
1513226971914896,-2,-1,-1,0,-2,0,-1,-1
1513226971935911,0,-2,2,0,-1,-2,-3,-2
1513226971935911,-1,-1,0,-1,-1,-1,1,0
1513226971937413,-3,0,1,0,1,1,0,-2
1513226971937413,0,-1,1,-2,-1,-2,-2,-1
1513226971950921,0,-2,-1,-2,-2,-1,-3,-1
1513226971950921,-1,-1,-1,-2,-1,-2,-1,-1
1513226971952420,-1,0,-2,0,0,-1,-1,-1
1513226971952420,0,-2,-3,-3,-1,0,-1,-2
1513226971973425,-5,-1,1,1,-2,-1,0,0
1513226971973425,-1,0,-2,1,1,0,-1,0
1513226971974936,-2,-3,-2,-1,-1,0,-2,-1
1513226971974936,-1,-2,-2,-1,-1,-2,-1,-1
1513226971986947,1,0,-1,-1,-1,-1,0,-1
1513226971986947,-2,-1,-2,-1,-1,-1,0,0
1513226971995942,-1,-2,-2,0,0,-2,-3,-2
1513226971995942,-4,0,0,-1,0,0,0,-2
1513226972010954,0,-3,-2,-4,-1,-1,0,0
1513226972010954,-1,-2,2,0,-2,-1,-1,1
1513226972012455,1,0,0,-1,1,0,-1,-2
1513226972012455,-1,-2,-1,1,-1,-1,1,0
1513226972033024,-1,0,-4,-1,-1,-2,0,-1
1513226972033024,1,1,-1,-3,1,-1,0,-2
1513226972035026,-1,-2,-2,-1,-1,0,0,0
1513226972035026,-2,-2,1,0,-2,0,-1,0
1513226972047032,-1,-1,-1,0,1,0,1,0
1513226972047032,0,-1,-3,1,-2,0,-2,0
1513226972056029,-5,-3,0,-1,-1,-2,-1,0
1513226972056029,1,1,-3,-1,-1,0,-1,0
1513226972070539,-1,-2,-1,0,-1,0,-1,-1
1513226972070539,-1,-1,0,-2,-3,-2,-2,-2
1513226972072541,0,0,-1,0,0,-1,0,-2
1513226972072541,1,-3,-1,-2,-1,-1,-2,-1
1513226972093056,-3,-3,-2,1,-1,-2,-1,-3
1513226972093056,-3,0,-1,-1,-1,0,-1,-2
1513226972095057,-1,-2,-3,-3,-2,0,0,-2
1513226972095057,-1,1,-1,-2,-2,-1,-3,0
1513226972107065,0,0,-1,-2,-1,0,-1,0
1513226972107065,0,-2,-3,-1,-1,-3,0,-2
1513226972115572,-1,-3,-1,-3,-1,-1,-1,0
1513226972115572,-4,1,-2,-2,-1,-1,0,-1
1513226972130581,0,-1,-1,2,-1,-1,-1,1
1513226972130581,-1,-2,-2,0,-1,-2,-2,-1
1513226972132082,0,-1,-2,-2,-1,0,0,0
1513226972132082,-5,-2,2,0,-2,-1,1,1
1513226972153100,0,-1,-3,0,-1,-3,-3,-1
1513226972153100,0,0,-1,-2,-1,-1,-2,1
1513226972159101,3,0,-1,0,-1,-2,-4,-1
1513226972159101,0,-1,-2,-2,0,-1,-1,0
1513226972166607,-3,1,1,-2,0,2,-1,-3
1513226972166607,-1,-1,-1,1,2,-1,-1,-2
1513226972176137,-3,0,0,-2,-1,-1,-2,0
1513226972176137,0,-1,-1,-1,-1,-1,-2,-1
1513226972190173,0,-2,-1,-1,-2,-1,-2,0
1513226972190173,-2,-1,-1,-1,-2,-1,-2,-1
1513226972190631,-3,-3,-1,-1,0,-2,0,-2
1513226972190631,0,0,-3,1,0,0,-1,-2
1513226972212643,-2,0,0,-3,-1,-1,0,-1
1513226972212643,-3,-2,-1,0,-1,-1,2,0
1513226972213140,-1,1,-3,-2,0,-2,-1,-1
1513226972213140,-1,-1,0,0,-1,-2,-3,-2
1513226972235187,-1,-2,-1,-1,1,-1,-1,-2
1513226972235187,-1,-1,-1,-2,-2,0,-1,-1
1513226972235686,0,0,0,-2,-3,-2,-1,0
1513226972235686,1,0,-4,-2,-2,1,1,0
1513226972250214,3,3,-1,-3,-1,-1,-2,-2
1513226972250214,0,-4,-1,-2,-1,-1,-1,1
1513226972250697,-2,0,1,1,0,0,0,-1
1513226972250697,0,-1,-2,-3,-2,0,-1,0
1513226972272722,-2,0,-2,1,-1,-2,-1,-1
1513226972272722,-1,0,-1,-2,-2,0,-1,-1
1513226972273212,0,0,-3,-2,-2,-2,-1,-1
1513226972273212,-1,-1,0,1,-1,-1,0,0
1513226972303235,-3,-2,-1,0,0,-2,-2,-3
1513226972303235,-1,-1,-2,-2,-1,-1,0,-1
1513226972304235,-1,0,0,-1,-2,0,-1,-2
1513226972304235,0,-2,-1,-1,-1,-1,-2,-1
1513226972310249,-2,-2,1,0,0,0,0,-1
1513226972310249,1,0,-2,1,-3,-2,-2,0
1513226972310739,-1,-1,-2,-1,-2,-2,-1,-1
1513226972310739,-2,-2,-1,-1,0,-1,-1,0
1513226972332754,0,-2,-2,-1,-3,-2,0,-1
1513226972332754,-4,-2,0,0,0,-1,-2,-2
1513226972333255,-3,-1,-1,1,0,-2,0,-2
1513226972333255,-2,0,-2,0,-1,-2,0,-1
1513226972355770,-2,-2,1,0,0,0,-1,0
1513226972355770,1,-1,-1,0,-2,-1,-1,-2
1513226972356271,1,-2,-3,-1,-1,0,-2,0
1513226972356271,-4,-1,1,1,0,-1,-1,-2
1513226972369866,0,-1,-2,-2,-2,-2,-1,1
1513226972369866,-1,-1,-2,0,0,0,0,-2
1513226972370840,0,-1,-2,-2,0,0,-1,0
1513226972370840,0,-1,-2,-3,-1,-1,-2,-2
1513226972392351,-1,0,-1,-3,0,-1,-2,0
1513226972392351,-1,1,1,-2,-1,-1,1,-1
1513226972393352,-2,-1,-2,0,-4,0,0,0
1513226972393352,-2,-1,1,1,0,-2,1,-2
1513226972415368,-1,-1,-2,0,-1,-2,-1,-1
1513226972415368,-2,-1,-2,0,0,-1,-1,-3
1513226972416373,-1,-1,1,0,2,0,-2,-1
1513226972416373,-1,-1,-2,-2,-2,-1,-2,-2
1513226972438887,-2,-2,-2,-1,-1,-1,-1,-1
1513226972438887,4,0,-1,-3,-2,-3,-1,0
1513226972439885,-2,-1,0,-1,-1,-2,0,-1
1513226972439885,0,-2,-3,-2,0,0,0,0
1513226972452897,-1,-1,-1,-1,-2,-1,-1,0
1513226972452897,-3,-1,-1,0,-1,1,-2,0
1513226972459899,-1,-2,-3,-1,-2,-1,-2,-2
1513226972459899,-2,-1,-2,0,0,-2,-1,-2
1513226972475456,-1,0,0,-1,-1,-2,-1,-1
1513226972475456,0,-2,0,-1,-2,0,-2,-1
1513226972476446,-2,-2,-3,-2,0,-1,-1,0
1513226972476446,0,0,-1,-1,-2,0,-1,-2
1513226972489957,1,1,-1,1,1,1,-1,-1
1513226972489957,-1,-1,-1,-2,0,-2,0,-1
1513226972490958,0,0,-2,-3,-2,-2,-1,-1
1513226972490958,0,-1,-1,-2,-1,-1,0,-1
1513226972512487,-1,-2,0,-1,-2,0,1,-1
1513226972512487,-2,-1,-2,-1,0,-2,1,0
1513226972513473,-2,0,0,1,-2,-1,-2,-2
1513226972513473,-2,0,-1,-2,-1,-1,-1,-2
1513226972535127,1,-1,0,-2,-2,-2,0,-1
1513226972535127,2,2,-3,-2,-1,0,-1,0
1513226972535624,-1,-1,-1,-1,0,1,-1,-2
1513226972535624,0,-2,-2,0,-2,0,-2,1
1513226972550150,-1,-2,-2,-1,0,0,-1,-2
1513226972550150,2,-1,-1,0,-1,-3,-2,-2
1513226972550650,-2,-2,-1,-3,-2,-1,-1,-3
1513226972550650,0,-1,-1,-1,-2,-1,0,-1
1513226972572666,0,-1,-3,-1,-2,-2,-1,-1
1513226972572666,-5,-4,1,1,-1,-1,-2,-2
1513226972573166,2,-1,-1,0,0,-2,-2,-1
1513226972573166,-4,-2,-2,0,-2,0,1,0
1513226972603191,-1,-2,-1,0,-2,-1,-1,0
1513226972603191,-3,2,-1,-2,0,-1,-3,-1
1513226972604190,-2,-2,1,-2,-2,-2,-1,0
1513226972604190,0,-2,-2,0,-2,-1,-2,-1
1513226972610194,-2,-3,2,-1,0,-2,-1,-1
1513226972610194,-2,-3,-1,0,-1,0,-2,-1
1513226972610695,0,-2,0,-1,0,0,-1,0
1513226972610695,-1,0,-1,-1,-2,-1,-1,-1
1513226972632710,1,2,-2,-2,-2,1,-1,-1
1513226972632710,-4,-3,0,-3,-2,-2,0,-2
1513226972640226,-3,0,-1,-4,-2,0,-1,-2
1513226972640226,1,-1,-1,-2,-3,-1,1,0
1513226972655227,-3,0,-1,0,0,0,-1,-1
1513226972655227,0,0,-2,0,-1,0,-2,-1
1513226972655724,0,-2,-2,-1,-1,-2,-3,1
1513226972655724,-2,-1,-2,-2,0,0,-2,-3
1513226972671737,0,0,-2,-1,0,0,-2,-2
1513226972671737,2,-1,-2,-1,-1,0,0,0
1513226972672237,-2,-1,0,-2,-2,-2,0,-1
1513226972672237,1,-1,0,-1,-2,-1,-1,0
1513226972692751,0,-2,0,-2,-1,-3,0,-1
1513226972692751,-2,-1,-1,-1,-2,-1,1,-1
1513226972693251,-2,0,-4,-1,-2,-1,-2,-1
1513226972693251,0,0,-3,-3,-2,0,-2,-3
1513226972715271,1,0,-2,-1,-2,0,-1,0
1513226972715271,-1,-3,-1,-2,-2,-1,-2,1
1513226972722772,-1,-1,0,-1,0,-1,-1,0
1513226972722772,-2,-1,-1,-1,1,-2,-2,0
1513226972730277,1,1,-2,-2,0,-2,-1,-1
1513226972730277,-1,-2,0,0,-1,-1,-1,0
1513226972730778,-3,-1,-2,-1,-2,-1,0,-1
1513226972730778,-3,-2,-1,-1,-1,-1,-1,0
1513226972752315,0,0,-2,-2,-2,-1,-1,-1
1513226972752315,1,-1,1,0,-2,-1,-2,-1
1513226972753302,0,-2,-2,1,-1,-1,0,2
1513226972753302,-2,-1,-1,-1,-1,-1,-1,0
1513226972774809,-3,1,0,-1,0,0,-1,1
1513226972774809,0,1,-2,-3,-1,0,0,-3
1513226972775810,-2,-2,0,-2,-2,0,0,-2
1513226972775810,0,-1,0,-1,0,-2,-1,-2
1513226972791823,-3,-3,-2,-2,-2,-2,0,-1
1513226972791823,-2,-2,0,0,0,-1,0,-1
1513226972792322,0,0,-3,-3,0,-2,-1,-1
1513226972792322,-1,-2,-1,-2,-2,0,-1,0
1513226972812836,-2,-2,0,0,-1,-1,0,-2
1513226972812836,0,-1,-2,-2,-1,-1,-4,-1
1513226972813337,4,0,-4,-1,-1,-1,-3,-1
1513226972813337,-1,-1,1,-1,-2,-1,-1,-1
1513226972834852,0,-1,0,1,-1,1,0,0
1513226972834852,-2,2,-1,-2,-1,-1,0,-4
1513226972835855,-2,1,-1,-2,-1,-2,-1,-2
1513226972835855,-2,-3,-1,-1,1,-1,-3,-2
1513226972851363,-1,-2,-1,-2,-2,-2,-1,0
1513226972851363,0,-3,-1,-1,1,-1,0,1
1513226972852375,-3,-2,-2,-1,-1,-3,-1,-1
1513226972852375,-2,1,0,-1,-1,-1,-1,-1
1513226972872926,-2,-1,-1,-1,0,0,-1,1
1513226972872926,2,0,-4,-1,-2,-2,-3,-1
1513226972873927,-2,-2,1,-1,0,1,0,-1
1513226972873927,-1,0,0,-2,-1,-2,-1,0
1513226972894943,-1,0,1,-1,-1,-3,-3,-3
1513226972894943,0,0,-2,-1,-1,-1,-1,0
1513226972895943,1,1,-3,0,-2,-2,-2,-1
1513226972895943,-2,0,-1,0,1,-1,1,-1
1513226972909951,-1,-1,-2,-2,-1,-1,0,-2
1513226972909951,-1,-2,-2,-1,-1,-2,-1,-1
1513226972910953,-3,-1,-1,-1,-1,-1,-1,-2
1513226972910953,-1,-1,-2,-1,1,-2,-1,0
1513226972932478,-1,-4,-1,-1,0,-1,0,1
1513226972932478,-1,-1,-2,-2,-1,-1,0,-1
1513226972933479,-2,-1,-2,-1,-1,-1,1,1
1513226972933479,-3,-1,0,0,-2,-1,0,0
1513226972963004,-1,1,0,-1,-2,0,0,0
1513226972963004,-1,0,-1,0,-2,1,-2,-1
1513226972963990,0,-1,0,-2,1,-1,-2,-3
1513226972963990,0,-2,-3,0,-2,0,0,-2
1513226972970009,-1,-2,-2,-1,0,-1,-2,0
1513226972970009,-1,-1,0,0,-1,-1,1,1
1513226972971005,0,-2,-1,0,-2,0,-1,-1
1513226972971005,2,-1,3,-1,0,-2,-1,0
1513226972993011,0,2,0,-2,-2,-2,0,-2
1513226972993011,-1,0,-1,-1,0,-1,-1,-2
1513226973000516,0,-1,-1,-1,-2,0,-2,-2
1513226973000516,-2,-2,-2,-2,0,-1,-1,-1
1513226973015029,-1,-3,-1,-1,-2,0,-1,-2
1513226973015029,-3,-3,0,-2,-1,-3,0,1
1513226973016028,-3,0,0,-1,-2,0,-1,-3
1513226973016028,0,1,-1,-1,-1,-2,1,-1
1513226973029552,-1,0,-1,-1,0,-2,-1,-2
1513226973029552,-1,-1,-1,0,-2,0,0,1
1513226973037572,0,-1,0,-2,0,-1,0,-1
1513226973037572,0,-1,0,-1,-1,-1,-2,0
1513226973052560,0,-2,-2,0,1,-2,-1,-2
1513226973052560,-2,0,0,-1,0,-1,-2,-1
1513226973053555,-1,-1,-1,-1,-2,-2,-1,0
1513226973053555,-2,0,-1,-1,-1,-1,-2,-2
1513226973083094,-1,-1,-1,1,-2,1,0,0
1513226973083094,1,-4,-1,-1,1,0,1,-2
1513226973084075,-1,-2,0,1,-2,0,0,0
1513226973084075,-2,-1,-1,-1,-1,-2,-1,-1
1513226973089098,-1,-1,-2,-1,1,-1,-1,0
1513226973089098,-1,0,-3,-1,-1,-2,-2,-3
1513226973097584,-3,-3,-1,-2,0,-1,1,-2
1513226973097584,1,-1,-1,-3,-2,1,-1,-1
1513226973112595,-3,-3,-1,-1,-2,-1,1,-3
1513226973112595,-1,-1,-2,0,-2,-2,0,0
1513226973113095,0,-1,-2,-1,1,-3,-3,0
1513226973113095,1,-1,-3,-1,-1,-1,0,-1
1513226973135113,0,0,0,-2,0,-1,-2,1
1513226973135113,-2,-1,-2,0,0,0,0,0
1513226973135616,-3,-4,-2,-1,-1,-1,0,1
1513226973135616,-2,-2,0,-1,-1,-2,0,-1
1513226973149141,0,0,-1,-1,-1,1,-1,0
1513226973149141,1,1,-2,-1,-2,-2,0,-3
1513226973157643,-2,-2,0,-1,-2,2,-1,1
1513226973157643,-3,-1,1,0,-2,-1,-1,0
1513226973172638,-2,-1,-2,-1,1,-2,-4,-2
1513226973172638,-4,0,0,-1,-1,-3,-3,-1
1513226973173137,-3,-1,-3,-2,-2,-2,-1,0
1513226973173137,0,-1,-2,-2,-1,1,-1,-1
1513226973196685,0,-2,-1,-1,-1,0,-2,1
1513226973196685,1,-3,0,-2,-2,-1,0,-2
1513226973197686,0,-2,-1,-1,0,-1,0,-2
1513226973197686,-2,-2,-2,0,-1,-2,0,-2
1513226973210729,-2,0,-2,0,-1,-2,0,-1
1513226973210729,-2,0,1,-2,-2,-2,-1,-1
1513226973217748,0,0,-1,-2,-2,0,0,-1
1513226973217748,-1,-2,-2,-1,-1,0,0,0
1513226973232753,0,0,0,-3,-1,-2,-2,-1
1513226973232753,-2,-1,-1,-2,-1,-1,-2,-1
1513226973233243,-2,0,1,0,0,0,-3,-1
1513226973233243,-1,-2,-3,-2,-1,0,-2,-2
1513226973255841,3,0,-3,-2,-2,-2,0,0
1513226973255841,-1,1,0,0,0,-1,0,-1
1513226973256317,-1,0,-2,-3,-2,-1,-1,-2
1513226973256317,-2,1,-2,0,-1,-1,-1,0
1513226973269329,-1,-1,-2,-1,-1,-1,0,1
1513226973269329,1,-2,-1,-1,-1,-1,-3,0
1513226973278333,1,-1,0,0,-2,-2,-1,-3
1513226973278333,-2,-2,0,0,0,-1,-1,-2
1513226973292346,-3,-2,1,-2,-2,0,-1,-3
1513226973292346,-1,-2,0,0,-2,-1,1,1
1513226973293344,-1,-2,0,-1,-1,-3,-3,-1
1513226973293344,-1,0,-3,-1,-2,-2,-3,-2
1513226973314867,-1,-3,1,-1,-1,0,-1,0
1513226973314867,-2,-2,-1,-2,-2,1,0,-1
1513226973322364,-2,-2,-1,-1,-2,-2,1,-1
1513226973322364,0,0,1,-2,-1,-1,-2,-1
1513226973338375,-3,-1,1,-1,-2,0,-1,-2
1513226973338375,1,3,-5,-2,-1,-1,-2,-2
1513226973338876,-3,0,-1,0,-2,1,0,-1
1513226973338876,-1,2,-1,-2,-3,-2,0,-1
1513226973353385,1,-2,-1,0,-1,-2,0,0
1513226973353385,-1,-1,-3,-2,-1,1,0,0
1513226973353887,0,-3,0,-2,0,0,0,0
1513226973353887,2,-2,-2,-1,-2,1,-1,0
1513226973375902,-2,-2,-4,-1,0,0,-2,2
1513226973375902,-2,-1,-1,0,1,-1,-1,0
1513226973376407,-2,-2,-1,-2,-2,0,-1,-1
1513226973376407,-2,-2,0,-2,-2,-1,-1,-1
1513226973398418,-1,-1,-1,-1,-2,-1,-1,-1
1513226973398418,-1,-2,-1,-2,-1,-2,-1,0
1513226973398918,-3,0,0,0,-1,-2,0,-2
1513226973398918,0,0,-1,0,-3,1,0,0
1513226973412993,-4,1,1,-2,0,-2,-1,-1
1513226973412993,-2,-3,0,1,-1,0,-2,-2
1513226973413994,-1,-1,-2,-1,1,-1,-1,0
1513226973413994,2,-1,-3,-2,0,-1,-1,-1
1513226973436511,1,-2,-2,-1,-2,-2,0,-1
1513226973436511,-2,-3,1,-1,0,0,0,0
1513226973437012,0,-2,-2,-1,-1,-1,0,-1
1513226973437012,-1,-1,-1,0,0,-1,-1,-3
1513226973465531,0,-2,0,-1,-2,1,-1,-3
1513226973465531,-1,-3,-2,-3,-3,-2,-1,0
1513226973466532,1,-1,-2,-1,-1,-3,-1,-1
1513226973466532,-1,-2,-1,-2,-1,-2,0,1
1513226973472535,-1,-2,-3,-3,-2,-3,-2,-2
1513226973472535,-2,-2,-1,-2,-2,-2,-1,-1
1513226973480042,-2,1,1,1,-1,-2,-1,1
1513226973480042,-3,0,1,-1,-1,-2,0,0
1513226973495557,-1,-1,0,0,1,0,-1,-1
1513226973495557,-1,-1,0,-1,1,-1,-1,-1
1513226973496051,1,0,-2,-4,-1,-1,-2,-3
1513226973496051,-1,1,-1,1,1,-2,-1,0
1513226973519069,-1,0,-1,0,-2,0,0,0
1513226973519069,-2,0,0,-1,-2,1,0,-1
1513226973520069,-5,-7,0,0,0,0,0,0
1513226973520069,0,0,-2,-1,-2,0,-1,-1
1513226973532581,-1,-2,0,-1,0,-2,-1,-1
1513226973532581,1,0,-2,-2,0,-1,-2,-3
1513226973533078,0,-1,-2,-1,-2,0,-1,-1
1513226973533078,-2,0,-1,-2,0,-3,-1,-1
1513226973556097,0,-2,-1,-1,0,-3,-2,0
1513226973556097,0,-1,0,-1,-1,-1,-1,-1
1513226973557095,0,-1,-1,-1,-1,-1,-1,-2
1513226973557095,1,-2,-2,-2,-1,-1,-1,-1
1513226973578112,-2,-1,-1,0,0,0,0,1
1513226973578112,-2,-1,-1,-1,-2,-1,1,-2
1513226973579111,-1,-1,-2,-2,0,-1,-1,1
1513226973579111,-1,-3,0,0,-2,-3,-2,-2
1513226973592624,-3,0,-1,-1,-1,-1,1,-3
1513226973592624,-3,0,0,-1,0,-2,0,-2
1513226973593121,-2,1,-1,-2,-1,-1,-2,0
1513226973593121,-1,-1,0,-3,-1,1,-1,0
1513226973615637,-1,-1,-2,-2,-2,-2,-1,-1
1513226973615637,-1,-3,0,-3,-3,-1,-1,1
1513226973616638,-2,-2,0,0,-1,-1,-2,-1
1513226973616638,-2,-1,0,0,0,-3,1,-2
1513226973638653,0,-2,1,2,1,0,-2,0
1513226973638653,1,1,-2,-1,0,-1,-2,-2
1513226973639153,0,-1,0,-2,-1,-2,-1,-1
1513226973639153,-1,-3,-1,-1,-2,0,0,-1
1513226973652666,0,-2,-2,-2,-2,-1,-1,-1
1513226973652666,-1,-1,0,-1,0,-3,1,0
1513226973653163,-3,1,0,0,-2,0,-3,-2
1513226973653163,-3,0,-1,-2,-2,0,0,-1
1513226973683219,0,0,-3,-2,-1,0,-2,0
1513226973683219,1,0,-1,-2,-2,1,-2,-1
1513226973684219,1,-2,-2,-2,1,-1,-2,0
1513226973684219,-2,0,-2,-1,-2,1,-1,-1
1513226973698232,-3,-1,0,-1,-1,0,0,0
1513226973698232,-1,-1,-2,0,0,-2,-1,0
1513226973698729,1,-2,-3,-2,-2,-2,0,-2
1513226973698729,0,-2,-1,-2,-1,-1,-1,1
1513226973712739,-1,-2,0,-1,-1,-1,-1,-2
1513226973712739,0,1,-2,-2,0,-3,-1,-1
1513226973713241,-1,-1,-3,-2,-1,-2,-3,-1
1513226973713241,-1,-2,1,0,0,-2,-3,-2
1513226973734777,-2,-1,-4,-2,0,-2,-1,0
1513226973734777,-2,-1,-1,-1,-1,-1,0,-3
1513226973742783,0,0,-1,-1,-1,0,0,0
1513226973742783,1,-1,-1,-2,-1,0,-1,-1
1513226973758788,0,0,-1,0,1,-1,-1,-1
1513226973758788,-1,-1,0,0,-2,-2,-1,-1
1513226973759273,0,-1,-2,-1,-2,-1,-1,-1
1513226973759273,-1,0,-1,-2,-1,-1,-2,-1
1513226973772795,-2,-1,0,0,-1,-1,0,0
1513226973772795,0,-2,-1,-1,-1,1,-2,0
1513226973773283,-3,1,0,-2,0,-1,-1,-1
1513226973773283,0,-2,-1,-1,-1,-2,1,0
1513226973795798,0,-2,0,0,-3,-2,-1,0
1513226973795798,0,-2,0,0,-2,-2,0,-2
1513226973796298,-1,1,-1,-1,0,-1,1,-1
1513226973796298,-2,0,-2,-2,0,1,-3,1
1513226973818337,2,3,-3,-3,-3,-2,-2,-1
1513226973818337,-2,-2,-1,-2,-1,1,0,-1
1513226973819816,0,-2,0,-1,-3,-1,0,-1
1513226973819816,1,0,-1,-1,1,-2,-2,-3
1513226973832834,1,-1,0,-1,-3,0,-2,1
1513226973832834,0,-1,-1,-1,0,-2,-1,0
1513226973839860,-2,-3,0,0,-1,0,-1,-1
1513226973839860,-2,-3,-2,-1,-2,-3,1,-2
1513226973855867,0,-1,-1,0,-1,-1,-2,0
1513226973855867,-1,0,0,-1,0,0,-1,-2
1513226973856842,0,0,-2,-2,0,-1,-1,-2
1513226973856842,-2,1,-2,0,-1,0,-1,-1
1513226973878372,-1,0,0,-2,-2,-1,-1,-2
1513226973878372,0,0,-2,-2,0,-2,-2,0
1513226973878865,0,-3,-2,-2,-2,-2,-2,-1
1513226973878865,-1,0,-1,-1,-3,0,-1,0
1513226973891870,2,-1,-2,-2,-1,0,-1,-1
1513226973891870,-5,-1,1,0,-1,0,-2,-2
1513226973900378,-1,-1,0,-1,-1,-2,-1,0
1513226973900378,-1,-2,-1,1,-1,-2,-1,-1
1513226973915890,-2,0,-3,0,-1,-1,-2,-1
1513226973915890,-2,-2,-2,-1,-2,-1,-2,-1
1513226973916383,-2,-2,-1,-1,-2,1,1,-1
1513226973916383,-2,-1,-1,0,-2,-2,-2,0
1513226973938415,-3,0,0,0,0,-1,1,-1
1513226973938415,-1,0,-2,-1,-1,-2,0,-2
1513226973938899,0,-1,0,-2,-1,-1,0,-1
1513226973938899,0,0,-2,-2,-1,-1,-1,-2
1513226973952412,-1,-2,0,0,-1,-1,0,0
1513226973952412,0,-1,-2,-1,-2,0,0,0
1513226973959914,-2,0,-1,0,-2,0,0,-1
1513226973959914,0,-1,-2,-1,-1,-1,-1,-1
1513226973982940,-1,-2,0,0,0,-1,-2,-1
1513226973982940,0,-2,-1,-2,-2,-3,-1,0
1513226973983941,-2,-4,0,-1,0,0,-1,0
1513226973983941,1,-1,-1,-1,0,-1,1,1
1513226973998442,-2,-2,-1,0,1,0,-1,0
1513226973998442,0,-2,-1,0,-2,0,-1,-1
1513226973999442,0,-2,-3,-1,-1,-2,-3,-2
1513226973999442,-3,0,3,-1,0,-1,-1,-1
1513226974011981,-1,-1,-1,-1,-1,-2,0,0
1513226974011981,-1,-1,-2,-3,0,-2,0,-1
1513226974019988,-3,-1,-2,0,-1,-2,-1,0
1513226974019988,0,-1,-1,0,-2,-2,-1,-1
1513226974036002,1,-1,-2,-2,-1,-1,0,-2
1513226974036002,-2,-2,-1,1,-2,0,-1,-1
1513226974037000,0,-1,-1,-1,-1,-1,0,0
1513226974037000,0,-1,-3,-1,-1,0,0,-2
1513226974058017,-3,0,0,0,-2,-2,-2,-2
1513226974058017,1,-1,-2,-1,-1,0,-1,-1
1513226974059015,0,-1,-2,-2,-1,0,-1,-1
1513226974059015,-6,-5,1,-1,-1,0,-2,0
1513226974072025,0,-3,-2,-1,-2,-2,0,-1
1513226974072025,-1,1,-3,-1,-1,-1,-1,-2
1513226974080030,-2,-1,-3,0,0,-3,-1,-2
1513226974080030,-2,1,-1,-2,-1,1,-2,0
1513226974095560,0,-2,-2,-2,-1,0,-2,-1
1513226974095560,-1,-1,0,-1,-1,0,-1,0
1513226974096542,-1,-2,-2,1,-2,-1,-2,0
1513226974096542,1,-2,-3,-1,-1,-2,-1,-2
1513226974118572,-5,-2,-1,-2,-1,0,-3,0
1513226974118572,-1,-2,-1,-1,-1,-1,-3,-2
1513226974120059,1,-1,-1,-2,-2,1,-1,0
1513226974120059,1,-1,-1,0,-1,-1,-1,0
1513226974132078,0,-1,0,-1,-1,-1,1,-2
1513226974132078,-2,-1,-1,-1,-1,1,0,1
1513226974140094,-2,0,0,-1,-1,-2,-2,-4
1513226974140094,0,0,-3,-1,-2,0,-2,-2
1513226974156109,2,0,-4,0,-1,-1,-2,1
1513226974156109,-5,-1,1,-2,1,-1,-1,-1
1513226974157091,0,0,-2,0,-1,-2,0,-2
1513226974157091,-1,0,-1,0,0,-2,0,-1
1513226974178601,-1,0,-1,0,-1,-1,-2,1
1513226974178601,0,1,-1,-1,0,-1,-1,-1
1513226974179115,-2,-1,0,0,-1,1,-1,-2
1513226974179115,0,0,-2,-3,0,-3,-1,0
1513226974191622,-2,-3,-3,0,1,-2,-2,-1
1513226974191622,1,-3,-2,-1,-2,-3,-1,-1
1513226974200128,-3,-1,0,-1,0,-1,0,-1
1513226974200128,0,-1,-1,0,-2,0,0,-1
1513226974215626,0,0,0,-2,-1,1,0,-1
1513226974215626,1,-1,-1,-2,-2,0,0,-2
1513226974216627,3,-2,-2,-2,-1,-2,-3,0
1513226974216627,-1,-3,1,-1,0,0,-1,-1
1513226974238143,-7,-2,3,0,0,0,-1,-2
1513226974238143,-1,0,-1,-1,-1,0,0,-1
1513226974239144,-1,-3,-2,-2,-2,-1,0,-3
1513226974239144,-2,-2,-2,-2,0,-1,-1,-1
1513226974251662,0,2,1,-1,-1,-1,-2,-1
1513226974251662,0,-1,-2,-1,0,-1,-2,0
1513226974260158,0,0,0,-1,-1,1,0,2
1513226974260158,-1,-1,-2,-2,-2,-1,-1,-2
1513226974275182,0,1,-3,-1,-2,-1,-1,-2
1513226974275182,-1,0,-1,0,-1,-2,1,-1
1513226974281673,-1,1,-2,-2,-2,-2,-1,-2
1513226974281673,-1,1,0,-1,0,-1,-1,-1
1513226974299202,-1,-3,0,-3,1,-2,-3,-2
1513226974299202,-3,-4,-1,-1,-2,-1,0,-3
1513226974301186,0,-3,0,0,-2,-1,0,-2
1513226974301186,2,0,-3,-2,-1,0,0,0
1513226974320712,-2,1,0,-1,0,0,0,-2
1513226974320712,-7,-5,-1,-1,-2,-2,-2,-3
1513226974322213,-2,-2,-2,-1,0,1,-2,-1
1513226974322213,-1,-1,-2,-2,-1,-2,-3,-1
1513226974335221,2,0,-4,-1,-2,-1,-2,0
1513226974335221,-2,0,-1,0,0,-1,-2,0
1513226974341715,1,-1,0,-3,-1,-1,-2,-1
1513226974341715,3,0,1,1,0,0,3,6
1513226974358230,-4,-1,-1,-1,-1,-3,-4,-15
1513226974358230,-1,1,1,-1,0,0,-1,-1
1513226974359728,-1,-1,-3,0,0,-1,1,1
1513226974359728,-3,-2,1,1,-1,-2,-4,0
1513226974380742,0,-1,-1,-4,-3,0,0,1
1513226974380742,2,0,-2,0,-1,-1,6,0
1513226974382245,-2,1,2,-2,-1,-1,-19,-4
1513226974382245,-2,1,1,0,-1,0,12,-1
1513226974394772,3,1,0,-2,-3,-3,-18,4
1513226974394772,-1,-1,-2,-2,0,-1,-8,-4
1513226974401771,-3,-2,0,1,0,0,5,1
1513226974401771,-3,-2,-3,1,-1,-1,-4,-5
1513226974418272,2,-1,2,0,-2,0,5,-2
1513226974418272,0,1,-7,-4,-3,-2,1,1
1513226974420772,2,4,2,-2,-2,1,5,8
1513226974420772,-13,-2,-1,-2,-2,-2,-2,-10
1513226974440785,-3,0,1,1,-1,-2,-4,2
1513226974440785,-1,-10,-10,-5,-3,-1,-5,2
1513226974442297,-9,0,3,0,-1,-2,4,-1
1513226974442297,-2,-2,-1,-1,-1,-1,-2,1
1513226974455295,2,-2,-1,-1,0,-1,5,2
1513226974455295,3,3,-1,-1,0,0,-1,-1
1513226974461801,-5,-12,-4,1,0,-1,-3,-3
1513226974461801,9,4,-3,-4,-1,0,-2,-1
1513226974478337,-10,-3,-2,0,0,0,2,5
1513226974478337,0,11,4,0,0,-2,-3,-1
1513226974479813,10,3,-1,0,-1,-2,5,9
1513226974479813,-14,-8,1,0,0,-3,-8,-19
1513226974500852,9,-2,-5,-2,0,0,2,-2
1513226974500852,0,-8,1,0,-3,-2,0,4
1513226974502345,5,18,2,0,0,-1,1,-2
1513226974502345,6,-6,-4,-3,-2,0,-1,4
1513226974515338,-8,-6,-6,-2,-1,-3,-1,-2
1513226974515338,-5,3,11,5,1,2,2,-3
1513226974521853,4,-2,-5,-4,-3,-4,1,-3
1513226974521853,-4,8,-6,-1,0,2,1,6
1513226974538365,-7,-10,-5,-1,-3,-2,2,4
1513226974538365,2,2,1,-4,0,-5,-10,-16
1513226974539867,9,-8,-2,-3,0,0,-1,-7
1513226974539867,-11,6,3,2,-1,-2,4,8
1513226974560883,9,-4,0,0,-1,-1,0,1
1513226974560883,12,-2,-3,0,-1,2,4,6
1513226974562372,-9,-9,-6,-4,-3,0,2,-4
1513226974562372,12,2,0,0,-1,-2,-1,4
1513226974575380,-4,-4,4,3,3,2,-22,-20
1513226974575380,-9,-11,-6,-2,0,1,3,2
1513226974589390,4,1,4,0,-1,-2,-1,6
1513226974589390,-2,2,-3,0,-1,0,7,-3
1513226974598400,4,5,1,-2,-3,-2,21,7
1513226974598400,3,7,-2,-5,-2,-3,-19,-10
1513226974599898,-11,-7,-2,-1,0,-2,-13,0
1513226974599898,6,-4,0,-2,-2,-2,10,13
1513226974620641,0,-3,2,0,3,2,8,-3
1513226974620641,16,7,-1,0,-1,2,5,9
1513226974622142,-18,0,-5,-5,-3,-3,12,-15
1513226974622142,4,-1,-2,-3,0,-1,-12,15
1513226974635145,8,4,2,2,0,2,-1,-28
1513226974635145,-16,-18,-4,-1,0,1,45,43
1513226974641646,-2,3,4,2,0,-7,-94,-62
1513226974641646,-8,-3,-4,0,0,1,6,-32
1513226974658661,11,12,-2,-2,0,-1,-23,19
1513226974658661,-22,-25,-3,2,-2,-3,11,-8
1513226974660159,0,7,0,-2,-3,-2,20,14
1513226974660159,-3,2,1,-2,-2,0,1,-1
1513226974680686,3,-5,-4,-3,-2,-1,-4,6
1513226974680686,3,-2,6,4,0,-2,-18,-13
1513226974682185,7,10,-4,-3,-1,2,22,16
1513226974682185,-3,-1,2,3,-1,-2,-14,-4
1513226974694683,-4,4,-6,-5,-1,2,18,4
1513226974694683,3,11,6,0,1,1,-5,2
1513226974701692,-9,-17,-11,-1,0,1,11,11
1513226974701692,-2,-3,-3,-1,1,-3,-21,-28
1513226974718257,-9,1,-2,0,-2,-4,2,3
1513226974718257,-6,-1,-7,-4,-2,-2,-14,-11
1513226974720717,7,12,10,1,0,0,22,21
1513226974720717,-1,-19,6,-1,-2,0,-7,-20
1513226974741726,-1,-1,-1,3,-2,-3,4,1
1513226974741726,2,5,-11,-4,-4,-4,-24,-12
1513226974743219,2,8,15,0,0,1,18,9
1513226974743219,-13,-26,-18,-3,-2,1,6,14
1513226974755243,-7,-3,4,1,0,0,34,63
1513226974755243,6,12,2,-1,-2,-2,2,-62
1513226974761731,-1,-5,-7,-1,-3,-4,-56,-24
1513226974761731,-3,6,-4,0,-1,-3,-1,1
1513226974778755,-10,-7,-2,-5,-3,-3,-25,-22
1513226974778755,0,2,3,-2,-1,1,26,41
1513226974780245,-8,-18,-14,-6,-3,0,15,8
1513226974780245,5,14,19,4,1,-2,-8,-12
1513226974800759,-4,-4,-13,-5,-3,0,9,4
1513226974800759,3,9,-9,-3,-4,-3,-10,-2
1513226974802260,-13,-17,3,-1,1,1,0,-7
1513226974802260,13,5,-1,-2,-4,-3,9,12
1513226974823275,-3,0,5,-1,-3,-2,1,-10
1513226974823275,-2,5,3,-3,-5,-3,-7,2
1513226974824776,7,-1,-4,0,-3,-4,-5,-4
1513226974824776,-3,-7,5,0,-2,1,10,9
1513226974838299,-9,3,-3,1,1,0,0,-7
1513226974838299,-6,-2,5,-1,-1,-1,-5,13
1513226974839813,-8,-4,-17,0,-1,-1,-12,-21
1513226974839813,-1,14,10,-3,-3,-4,-7,10
1513226974868307,15,-4,-20,-10,-4,-3,-12,-28
1513226974868307,0,-1,10,7,3,3,4,16
1513226974869808,14,19,-19,-6,-2,1,15,15
1513226974869808,-14,-13,5,-3,-1,-2,0,-7
1513226974874311,-6,1,-12,-2,-2,1,-4,-4
1513226974874311,13,2,-3,-2,-1,0,4,16
1513226974883317,1,-2,12,4,2,-1,0,-24
1513226974883317,-8,15,1,-1,1,2,-5,1
1513226974898329,-5,-13,5,-2,-1,-5,-1,22
1513226974898329,16,4,19,3,1,0,-4,-26
1513226974899831,-4,-3,-24,-2,-4,-2,10,16
1513226974899831,3,-9,-16,-12,-2,-1,-8,-19
1513226974920845,-8,-15,9,8,6,2,0,-7
1513226974920845,5,11,3,-3,2,2,10,19
1513226974922346,-6,6,4,7,0,-3,-15,-14
1513226974922346,5,-16,-28,-4,-2,-2,1,5
1513226974934353,11,7,26,0,-2,2,-10,-5
1513226974934353,-20,-19,-19,1,2,-2,5,-4
1513226974943360,-5,29,-3,1,-1,0,2,11
1513226974943360,11,-13,-26,-13,-5,-2,6,1
1513226974958386,14,20,30,6,1,1,-5,-7
1513226974958386,-19,5,2,-7,-7,-5,-8,-10
1513226974959882,-7,-50,-21,-7,-4,0,11,11
1513226974959882,16,15,18,12,2,2,4,25
1513226974980896,-9,0,-7,-11,-6,-4,-10,-22
1513226974980896,-16,-13,-30,0,1,-2,-8,-14
1513226974982410,10,-11,29,3,-1,1,2,-9
1513226974982410,-15,22,33,7,0,1,5,11
1513226975003414,15,9,-22,10,3,1,-2,1
1513226975003414,-33,9,-10,-15,-4,0,-5,-4
1513226975004916,11,-27,-16,-4,-2,-1,2,-9
1513226975004916,-15,7,28,15,4,4,2,2
1513226975019414,4,2,-22,-8,0,2,17,23
1513226975019414,18,19,33,5,-1,-3,-21,-35
1513226975020915,-11,28,41,9,5,-3,2,12
1513226975020915,5,-25,-38,2,3,5,5,-1
1513226975040954,-22,-8,-16,-4,-3,-7,-20,-13
1513226975040954,5,-20,-10,-9,-2,0,0,5
1513226975042441,8,42,45,15,11,10,1,8
1513226975042441,19,3,-2,-2,-4,-7,8,-5
1513226975054461,-52,-33,-2,1,-2,-2,-4,-6
1513226975054461,29,11,39,-2,-2,-1,1,7
1513226975063445,-14,3,-6,2,-4,-1,2,9
1513226975063445,-8,-1,-17,-3,-1,-1,-21,-18
1513226975078459,-2,4,-12,-19,-6,-5,4,-1
1513226975078459,-9,-20,-6,-1,-2,-5,-4,-6
1513226975079959,5,24,8,-6,-4,-5,12,23
1513226975079959,16,-3,12,5,-1,3,5,0
1513226975100476,-4,-5,-58,1,1,-1,-18,-11
1513226975100476,-6,-7,-20,0,-2,-1,-1,18
1513226975108479,31,-5,-8,3,1,-1,-5,-9
1513226975108479,-13,-10,-7,-19,-6,-4,-5,-1
1513226975114481,27,16,61,28,10,5,5,8
1513226975114481,6,6,-46,-19,-7,-3,16,0
1513226975123486,-5,17,32,15,4,2,-14,-24
1513226975123486,-24,-80,-53,-28,-12,-6,-17,-4
1513226975138040,34,23,19,11,4,1,15,19
1513226975138040,-14,-32,2,20,7,7,14,16
1513226975140001,-15,-22,6,-24,-10,-7,-11,-10
1513226975140001,13,57,16,12,1,-3,-1,-2
1513226975161031,4,19,13,3,0,1,0,1
1513226975161031,-14,-34,-37,-1,1,-1,-3,-3
1513226975162515,-1,-5,-11,2,-1,1,13,-2
1513226975162515,5,-2,37,11,7,0,-2,1
1513226975183042,-14,5,-101,-7,-4,2,13,5
1513226975183042,8,39,69,-2,-1,-3,-11,-8
1513226975185032,-13,-40,-23,-11,-6,-2,-6,-2
1513226975185032,-12,46,23,-9,-7,-7,10,29
1513226975198058,39,-10,88,3,-2,-4,-27,-44
1513226975198058,-30,65,22,5,1,-1,7,-5
1513226975199560,-2,-8,-110,-17,-2,1,7,10
1513226975199560,-7,1,1,-8,0,1,-3,-15
1513226975220575,-6,-22,8,2,-3,-2,-3,6
1513226975220575,10,3,-1,6,0,0,1,14
1513226975222076,3,-14,20,-1,0,-3,4,-19
1513226975222076,4,19,-22,2,0,-2,-26,-20
1513226975243093,-17,3,-46,-10,-7,2,7,-4
1513226975243093,18,-1,43,-16,-3,-6,-10,-9
1513226975244593,-12,50,7,-7,-2,5,20,35
1513226975244593,-19,-80,-9,7,5,0,-1,-31
1513226975258116,15,36,20,9,1,0,5,5
1513226975258116,1,-55,-65,-7,-5,-4,-3,1
1513226975259603,17,18,44,-3,0,0,-11,-7
1513226975259603,2,34,9,5,-1,1,3,3
1513226975280626,-14,-2,9,0,-2,-6,0,16
1513226975280626,2,-13,-13,8,5,0,-3,-38
1513226975282128,-8,-9,-5,-4,-4,-3,6,17
1513226975282128,4,0,12,6,-2,-3,-8,11
1513226975303136,-21,0,7,-15,-4,-4,16,13
1513226975303136,-5,-15,35,28,4,2,-9,-3
1513226975304634,4,7,-1,-19,-1,-6,-18,-2
1513226975304634,-13,-18,4,18,6,6,8,5
1513226975318146,-8,-20,-8,-15,-7,2,17,7
1513226975318146,-14,-22,3,0,-3,-6,-20,-20
1513226975320645,14,49,43,15,1,2,5,19
1513226975320645,43,-31,-15,-4,0,0,-6,1
1513226975340682,-7,20,12,-4,-2,-4,-13,-9
1513226975340682,3,5,61,13,3,4,12,16
1513226975342168,-22,-29,-36,-4,-4,-3,-6,-12
1513226975342168,15,23,54,-10,-6,-3,7,8
1513226975363176,-10,9,-76,-24,-8,-8,-10,-11
1513226975363176,19,25,8,7,7,7,12,20
1513226975364681,-9,13,-14,-17,-10,-6,-11,-21
1513226975364681,-21,-35,-47,-12,-5,-4,4,7
1513226975378688,9,-18,46,27,9,3,-5,-11
1513226975378688,7,51,23,-16,-3,1,8,16
1513226975379688,6,-25,-15,3,2,-2,-11,-1
1513226975379688,-30,13,-31,-5,-3,-3,-10,-13
1513226975408217,26,21,0,-6,1,2,-4,1
1513226975408217,-6,5,9,1,-1,-1,-1,-2
1513226975409708,-20,-40,16,1,0,-2,-9,-12
1513226975409708,10,-30,27,2,2,2,16,7
1513226975423718,-21,-22,2,-5,-3,-2,0,5
1513226975423718,-1,2,-35,-7,-7,-6,-1,20
1513226975425220,11,22,35,13,4,0,-22,-51
1513226975425220,-17,18,6,-3,1,3,11,-3
1513226975437241,55,13,34,-2,-1,0,0,19
1513226975437241,-2,-35,-31,7,-1,-2,-19,-27
1513226975451747,10,-35,-16,-8,-2,1,14,22
1513226975451747,10,-6,-33,4,-3,-3,-1,-2
1513226975460746,2,11,21,-15,-2,-1,-3,-5
1513226975460746,-6,-25,-34,0,-2,-3,-1,-2
1513226975462246,7,-75,-54,-5,-2,1,7,9
1513226975462246,1,68,44,7,-1,-2,-4,4
1513226975490787,-23,-42,-27,-3,-4,-7,-4,-7
1513226975490787,-3,25,30,6,2,-1,-2,-2
1513226975492277,-21,-26,-19,-10,-4,-3,8,-2
1513226975492277,9,10,-17,-4,0,0,11,20
1513226975497770,-33,-53,-2,-2,-1,3,-10,-32
1513226975497770,0,11,20,-16,-5,-6,-7,1
1513226975504297,14,4,2,24,6,2,4,6
1513226975504297,-7,11,-2,-24,-3,-2,-3,6
1513226975520787,17,34,45,15,5,3,1,-15
1513226975520787,-9,-22,-95,-13,-1,2,6,-11
1513226975522288,-3,2,5,5,1,-4,-12,9
1513226975522288,4,-33,19,13,2,1,1,-2
1513226975543325,-23,28,2,-5,0,-1,7,22
1513226975543325,-9,25,-10,-19,-8,-1,-9,-15
1513226975544804,-7,21,-46,-4,-3,-4,2,-8
1513226975544804,14,-7,-17,-7,-4,-4,-9,6
1513226975557325,-11,7,13,14,3,1,4,4
1513226975557325,-10,-24,-9,5,2,2,7,11
1513226975564317,26,32,-12,-6,-2,1,-6,-19
1513226975564317,-2,23,1,-5,-1,-1,5,5
1513226975581330,-17,-38,0,-1,0,0,9,-2
1513226975581330,30,64,59,7,0,-2,-10,19
1513226975582830,-7,-20,30,-3,3,1,-12,-9
1513226975582830,17,13,4,1,3,2,-5,-10
1513226975603345,-9,-62,-20,-9,-10,-5,-3,5
1513226975603345,-8,-39,-9,7,-2,-4,8,4
1513226975604857,3,29,6,-6,-4,-2,-1,-1
1513226975604857,-8,-6,0,4,0,-3,-4,-12
1513226975617905,9,8,-20,2,-2,-1,0,5
1513226975617905,19,-15,59,17,5,2,5,-2
1513226975624410,-25,-11,-66,-21,-10,-6,1,9
1513226975624410,-6,15,34,11,3,1,-6,-14
1513226975640923,-12,-6,-15,-9,-4,-2,1,4
1513226975640923,-10,-18,-23,3,1,-1,-8,-13
1513226975642432,5,-1,46,-1,-1,0,2,10
1513226975642432,1,30,8,2,-3,-9,-10,-4
1513226975662936,1,-17,-27,-7,0,0,-11,1
1513226975662936,-32,-51,-85,-26,-10,-4,-4,-11
1513226975664938,-20,-25,44,1,0,-1,2,-15
1513226975664938,4,-31,-3,6,0,3,8,5
1513226975677462,-8,47,30,0,-7,-8,-13,-19
1513226975677462,6,3,57,7,-1,-1,4,16
1513226975684467,-21,-10,-23,12,6,8,5,-28
1513226975684467,39,18,38,-16,-7,-2,0,27
1513226975700464,7,8,-6,20,9,-3,-10,-10
1513226975700464,-4,11,15,-14,-1,3,5,16
1513226975702465,3,3,-5,14,1,-3,-20,-22
1513226975702465,-23,-73,-47,-2,0,3,8,3
1513226975722979,12,26,46,-2,0,-1,3,8
1513226975722979,3,59,6,1,-1,-1,-6,-9
1513226975724981,1,-32,-9,2,6,5,15,19
1513226975724981,16,-10,-40,-15,-5,0,9,-2
1513226975737006,-10,16,78,22,6,4,-10,-3
1513226975737006,-13,-47,-102,-31,-11,-5,3,-8
1513226975745996,7,50,29,-9,-5,-4,3,11
1513226975745996,17,-37,-22,3,3,0,-4,-4
1513226975768014,-1,13,-18,-4,-4,-1,-1,4
1513226975768014,-4,27,50,12,1,-4,-8,-21
1513226975770013,-1,4,-17,-8,-1,0,18,49
1513226975770013,-15,24,-50,-3,-5,-9,-34,-75
1513226975783021,-9,-13,9,-10,-4,-3,5,0
1513226975783021,9,-7,8,18,7,3,5,0
1513226975785024,20,18,10,-5,-3,-2,-11,14
1513226975785024,-23,-6,-43,-12,-3,-3,-1,-13
1513226975797043,-1,-71,3,-12,-6,-1,6,-8
1513226975797043,-25,-5,-67,-19,-6,-3,-4,-12
1513226975806040,-3,21,25,7,-1,-1,-1,-10
1513226975806040,-4,41,91,5,-2,-3,7,23
1513226975820589,1,6,-82,-2,1,3,12,3
1513226975820589,-3,-65,31,6,5,3,-4,-3
1513226975822589,-8,-50,5,12,7,3,15,8
1513226975822589,7,43,14,-2,-2,-3,-3,2
1513226975843606,12,66,-19,-7,-3,-4,0,7
1513226975843606,3,11,64,10,2,1,5,0
1513226975845108,29,30,22,12,3,2,-1,-8
1513226975845108,3,-31,-57,-11,-4,-4,-11,2
1513226975857115,29,-11,-11,3,3,4,8,3
1513226975857115,30,72,0,-3,-1,-2,-8,11
1513226975865618,-29,-51,24,2,-4,-5,-12,-6
1513226975865618,-1,-39,-42,2,-5,-4,5,18
1513226975880644,16,23,22,-15,-4,-3,1,-9
1513226975880644,-14,2,-9,-9,-4,-2,-2,0
1513226975882143,-16,8,-12,-14,-8,-5,1,-1
1513226975882143,-14,15,-3,6,2,3,3,0
1513226975903147,-3,-12,27,12,0,-2,-2,7
1513226975903147,21,-6,-13,-3,-3,-1,4,-1
1513226975904646,13,65,42,-2,-2,1,4,-12
1513226975904646,-33,-24,52,10,2,2,-6,13
1513226975916655,39,-1,-13,-1,0,-1,-10,-7
1513226975916655,-8,-57,-41,0,-2,-4,1,12
1513226975925662,10,-13,-55,-7,-2,0,-2,-15
1513226975925662,15,10,49,2,3,3,3,-5
1513226975940700,-11,19,-18,6,-2,-1,1,6
1513226975940700,12,16,22,-6,-1,-2,5,0
1513226975942182,-7,-10,36,13,3,3,-3,1
1513226975942182,-3,-7,-70,-4,1,1,6,-3
1513226975963202,-16,-8,44,-12,-4,-4,-4,15
1513226975963202,-7,17,5,19,5,5,8,-6
1513226975964688,-33,-25,-56,-22,-7,-6,-18,-2
1513226975964688,43,10,17,14,11,6,11,5
1513226975977204,-23,18,18,19,3,-2,-3,3
1513226975977204,-1,-1,-4,-28,-9,-4,-7,-11
1513226975985705,-2,-29,13,1,0,-2,7,2
1513226975985705,5,18,-22,0,-1,-1,-6,-8
1513226976000714,-21,-36,34,-4,-2,0,-4,3
1513226976000714,7,33,-44,-15,-5,1,3,2
1513226976002215,-16,-45,9,1,-1,-1,0,-1
1513226976002215,4,53,-3,-6,-2,-2,-6,8
1513226976023240,-10,-33,-10,-4,0,-1,-7,-15
1513226976023240,-26,-40,-65,2,0,0,13,16
1513226976024742,6,65,27,7,-3,-3,-37,-56
1513226976024742,-12,-8,22,-2,1,3,9,13
1513226976036749,4,-4,-41,-3,1,0,-11,-21
1513226976036749,-7,-17,13,10,2,0,-2,14
1513226976053251,7,18,-17,-3,1,-1,13,17
1513226976053251,-2,-13,10,-8,-3,-2,3,2
1513226976060787,7,-21,-24,-2,-1,-2,-13,-10
1513226976060787,1,-6,28,8,4,2,5,-5
1513226976062290,9,14,11,9,4,5,10,17
1513226976062290,-11,-15,-28,-3,-2,-3,-11,-28
1513226976083315,-2,28,-7,-4,-3,-1,2,6
1513226976083315,-15,8,32,7,2,1,-7,-6
1513226976084816,-1,-46,-30,-6,1,-2,10,2
1513226976084816,0,16,12,-13,-12,-8,-9,9
1513226976096812,-12,-13,12,11,5,2,5,-16
1513226976096812,20,12,4,4,-1,-2,2,12
1513226976106319,17,28,-30,-14,-4,-3,-11,-17
1513226976106319,-19,10,49,12,7,3,10,7
1513226976120329,13,1,-30,-10,-6,-2,-2,-2
1513226976120329,-11,-19,-4,-17,-6,-3,-13,-7
1513226976122332,-2,17,-2,3,3,2,18,22
1513226976122332,-22,2,33,16,-3,-10,-24,-15
1513226976143367,18,-23,-28,-25,-3,2,7,-5
1513226976143367,7,-9,23,0,-2,-2,-3,-9
1513226976144866,-8,30,-20,-12,-5,-1,6,24
1513226976144866,9,-19,7,15,4,-1,-27,-29
1513226976156856,17,10,36,21,7,3,2,6
1513226976156856,-19,-13,-47,-34,-14,-9,-11,-15
1513226976165861,4,-74,-26,6,2,1,0,7
1513226976165861,0,29,15,-11,-7,-3,-1,-3
1513226976180371,-27,-22,3,-1,-1,-1,1,-3
1513226976180371,10,11,7,7,4,3,0,-4
1513226976182372,-15,-26,7,14,3,-1,-11,-7
1513226976182372,9,-9,-1,0,0,2,21,24
1513226976203398,-50,-12,-22,-30,-9,-5,-7,-13
1513226976203398,4,-2,9,25,7,1,5,17
1513226976204910,-3,7,-8,-25,-8,-4,-5,-22
1513226976204910,0,-13,17,10,4,4,-4,-3
1513226976225436,23,39,-1,10,1,-3,11,9
1513226976225436,-14,-19,-4,-4,-1,-1,-9,-6
1513226976227437,2,23,-4,13,3,-1,3,6
1513226976227437,-7,21,-38,-36,-14,-8,-2,-7
1513226976240449,-7,-49,-19,12,4,2,-5,9
1513226976240449,-19,43,-10,-13,-3,-5,-8,-43
1513226976242451,25,-21,36,19,5,1,-1,-2
1513226976242451,-1,-44,-53,-18,-6,-1,12,8
1513226976263009,-20,-10,18,4,1,0,-2,10
1513226976263009,8,4,22,7,0,0,-1,-1
1513226976264996,9,-20,-33,2,-1,-2,1,8
1513226976264996,-22,-23,-9,-4,0,0,-1,-16
1513226976285523,23,30,37,8,2,0,3,18
1513226976285523,17,9,-9,-10,-3,1,-5,-2
1513226976287512,-6,-12,-5,-2,0,1,2,3
1513226976287512,-12,30,15,18,2,1,8,-3
1513226976300656,-20,-21,-33,-19,-14,-11,-17,-25
1513226976300656,-11,44,23,-8,1,0,9,14
1513226976302152,-2,67,43,-6,-2,2,7,11
1513226976302152,-5,-70,-20,-1,-1,-4,-25,-37
1513226976323668,4,-20,-85,-8,-3,-3,-1,4
1513226976323668,-14,44,42,17,3,0,3,-3
1513226976325168,9,-49,-35,-9,-4,-3,2,6
1513226976325168,-2,-10,-1,-6,-2,-4,0,3
1513226976345674,31,37,70,12,2,4,3,5
1513226976345674,12,-71,-88,-3,-2,-4,-30,-18
1513226976347173,-3,28,21,-3,0,0,8,6
1513226976347173,14,14,45,10,3,0,6,-3
1513226976359685,-34,-42,-37,-1,-2,-1,-5,-17
1513226976359685,-2,-9,-1,-10,-4,-1,7,30
1513226976366690,-14,-24,-3,8,1,0,-8,-31
1513226976366690,-22,21,-14,0,1,1,1,6
1513226976383200,30,50,13,-9,-2,0,9,15
1513226976383200,-16,-57,-10,18,3,1,0,-4
1513226976384701,-11,4,-4,-6,0,-3,-1,-16
1513226976384701,16,-6,-42,-11,-1,4,18,40
1513226976413221,-9,27,22,7,4,0,-9,-35
1513226976413221,0,-2,-32,-1,-2,1,4,-5
1513226976414721,8,-31,1,-5,-1,0,5,8
1513226976414721,12,6,27,12,2,-1,3,22
1513226976419725,7,14,-30,-19,-1,-1,-16,-12
1513226976419725,27,-50,-40,-9,-6,-3,-3,-4
1513226976426730,-34,41,39,-5,-5,-4,-5,-17
1513226976426730,3,3,1,8,0,-4,5,9
1513226976443245,-6,15,8,-3,-5,-3,-2,1
1513226976443245,2,-3,46,4,4,6,16,5
1513226976444746,16,10,-22,1,-1,-2,-13,3
1513226976444746,-25,-26,-19,-1,-1,-2,-12,-9
1513226976465761,15,2,8,-15,-5,-4,-5,5
1513226976465761,4,-7,14,9,2,0,12,8
1513226976467258,5,34,38,-5,-4,-2,4,7
1513226976467258,-1,-16,-24,3,3,1,-13,-2
1513226976479768,8,-7,-31,10,0,-2,1,-10
1513226976479768,-8,-9,-5,-21,-5,-1,11,3
1513226976486775,5,-5,12,6,-1,-1,-22,-3
1513226976486775,-4,-9,-31,-8,0,2,3,-5
1513226976503287,-24,-60,16,12,-2,-2,11,22
1513226976503287,14,36,27,8,3,-3,-13,12
1513226976504801,-10,-14,-22,-8,0,-1,-3,-27
1513226976504801,28,36,46,-4,-5,-1,8,-9
1513226976533325,-3,-40,-22,-2,0,0,7,6
1513226976533325,-7,17,-3,12,2,-1,-13,3
1513226976534826,1,-30,-32,-10,-9,-5,10,11
1513226976534826,5,-13,-18,-6,1,0,-8,7
1513226976539829,-44,-6,35,-5,-2,0,25,-2
1513226976539829,0,23,29,4,0,3,5,14
1513226976546825,4,14,31,4,1,-3,-7,-18
1513226976546825,-12,-44,-46,-12,-8,-5,8,5
1513226976563336,20,34,1,1,1,0,2,15
1513226976563336,-5,32,28,0,-4,-3,-15,-21
1513226976565338,10,-26,-6,-6,-4,0,6,21
1513226976565338,-4,22,30,10,3,1,-1,-11
1513226976585348,15,0,4,-22,-9,-5,-4,4
1513226976585348,7,14,-17,-2,1,1,4,-1
1513226976587354,-7,-5,-5,11,-2,-2,1,25
1513226976587354,-8,-15,-24,-16,-8,-8,-11,-26
1513226976599852,-18,-10,4,10,0,-2,-19,-19
1513226976599852,11,-24,-34,-3,-1,0,8,15
1513226976606931,0,6,-23,-19,-4,-5,-8,-17
1513226976606931,-6,30,13,18,7,0,-4,15
1513226976623403,10,2,-22,-21,-8,-2,5,7
1513226976623403,-17,8,21,14,4,-3,-5,-20
1513226976624916,22,51,35,14,6,5,8,13
1513226976624916,0,-26,-43,-18,-9,-7,-13,-28
1513226976661932,1,22,25,2,1,-1,-11,-2
1513226976661932,-1,-7,30,-7,-4,-5,-19,-18
1513226976663432,1,-2,-20,1,2,4,0,10
1513226976663432,0,22,56,12,1,2,19,9
1513226976664435,3,19,25,5,2,1,-14,1
1513226976664435,-7,4,-11,-11,-6,-3,4,0
1513226976668437,-16,-19,15,-1,-2,-6,-17,-18
1513226976668437,13,54,62,9,5,8,12,23
1513226976690952,-8,-47,-63,-6,-3,-4,2,7
1513226976690952,0,-4,1,-2,0,-1,-6,-16
1513226976692452,5,17,24,18,2,3,8,20
1513226976692452,-8,-15,-30,-15,-3,-3,-3,-17
1513226976705479,15,8,3,11,4,-3,3,13
1513226976705479,18,-32,-6,-14,-3,1,2,3
1513226976707481,-9,34,-2,-1,-2,-3,-3,-6
1513226976707481,-11,-3,-17,0,2,1,0,5
1513226976719472,-14,2,0,11,2,3,6,-11
1513226976719472,3,11,18,6,-1,-4,-11,-5
1513226976735984,-1,-38,-62,-19,-4,-1,-10,-16
1513226976735984,16,-12,32,9,-2,-2,-5,-6
1513226976743008,-17,4,-15,-12,-4,0,7,25
1513226976743008,-8,-33,-12,8,3,1,-15,-40
1513226976744994,-3,63,38,-2,-7,-6,-7,-18
1513226976744994,4,-25,-45,-26,-3,-4,-10,-10
1513226976765514,-14,-28,8,13,4,2,0,7
1513226976765514,-5,15,3,-1,-4,-3,12,10
1513226976767005,2,-78,-7,6,-1,-2,-3,-2
1513226976767005,34,31,-11,1,4,5,8,19
1513226976779514,-73,0,-13,-16,-8,-6,-13,-25
1513226976779514,10,20,-41,4,2,2,13,24
1513226976795527,-9,-27,39,8,1,-2,5,-11
1513226976795527,-20,-16,-23,-18,-8,-2,-12,-26
1513226976810536,25,-1,32,24,12,3,-31,-22
1513226976810536,-4,-13,-16,-3,-5,-3,-1,8
1513226976812544,-12,22,-32,-14,-2,-1,2,9
1513226976812544,-12,-6,21,1,-4,-5,-1,9
1513226976825548,34,30,27,13,1,3,8,0
1513226976825548,-14,3,-13,-10,-3,-4,1,0
1513226976827048,25,42,6,10,6,2,-3,0
1513226976827048,-35,25,15,8,-4,-5,0,-3
1513226976839577,12,-25,-33,-24,-4,0,7,-12
1513226976839577,21,29,49,13,4,2,5,29
1513226976848066,1,-39,-43,0,-2,-3,6,13
1513226976848066,-14,40,14,-8,2,2,13,9
1513226976863574,8,-1,-21,4,-4,-5,-23,-25
1513226976863574,-11,-18,-8,-14,-6,-5,-2,-21
1513226976864575,-8,-5,3,2,0,1,3,4
1513226976864575,2,-7,43,13,1,1,-4,-1
1513226976885601,16,-2,-5,11,4,1,14,17
1513226976885601,-8,8,20,-6,-2,-2,0,-7
1513226976887093,9,-1,-28,-16,-5,-3,-7,-1
1513226976887093,-17,-18,52,17,7,6,8,-2
1513226976899112,21,9,-18,2,-1,-1,4,0
1513226976899112,5,25,2,-5,-3,1,-6,9
1513226976908104,-18,-35,-9,-3,2,1,2,-22
1513226976908104,14,2,7,-9,-5,-1,19,41
1513226976923128,-6,46,19,1,-3,-6,-34,-54
1513226976923128,-6,0,-2,-1,0,1,10,6
1513226976930621,12,17,4,-9,-4,1,3,8
1513226976930621,2,6,14,13,4,-1,-25,-19
1513226976945633,-10,-50,-56,-26,-12,-3,5,4
1513226976945633,-1,17,-10,-1,-1,-1,-1,7
1513226976947143,-31,16,22,-4,-5,-3,-10,-7
1513226976947143,40,-14,-19,-12,-2,0,-1,-23
1513226976959153,-9,19,35,11,1,-2,7,42
1513226976959153,-5,-21,-18,-19,-7,-1,-8,-13
1513226976968153,-9,-28,-18,7,1,-3,-1,-2
1513226976968153,7,8,14,11,2,3,6,14
1513226976983170,5,-20,-40,-8,-4,-1,11,9
1513226976983170,11,-22,10,23,9,3,-1,-7
1513226976984668,-3,34,16,-7,-2,-3,-5,11
1513226976984668,-9,-53,-24,-3,-3,-3,6,11
1513226977005697,-3,29,32,-8,-2,-2,-8,-2
1513226977005697,-30,-49,-34,6,4,3,0,3
1513226977007197,8,-4,3,3,-1,-2,9,-3
1513226977007197,-15,-2,-17,-13,-7,-6,-11,-10
1513226977019183,11,26,22,-3,-4,-1,11,18
1513226977019183,0,41,-10,8,-1,-3,0,-14
1513226977028191,8,-49,1,0,0,1,-22,-38
1513226977028191,-6,26,27,9,1,0,0,-14
1513226977043219,-15,-18,39,0,-1,0,1,3
1513226977043219,19,35,-3,-10,-7,-6,-8,6
1513226977044720,0,16,-22,-14,0,6,16,2
1513226977044720,-26,9,42,13,2,0,-1,-4
1513226977065217,-13,-21,-43,-3,-1,2,0,-10
1513226977065217,-4,6,2,2,0,-2,-8,-13
1513226977071730,-2,-3,-2,-1,1,1,9,30
1513226977071730,-6,3,-16,-8,-7,-4,-11,-7
1513226977079227,12,1,9,-7,-4,-3,2,3
1513226977079227,9,-37,-18,-7,-2,-1,5,5
1513226977088232,19,26,27,-2,-6,-4,-5,-3
1513226977088232,9,-71,-96,-24,-4,-1,17,30
1513226977110748,23,23,-7,12,2,-3,-28,-52
1513226977110748,-17,13,9,-13,0,3,7,0
1513226977112253,9,-20,20,15,4,0,-4,9
1513226977112253,11,-1,-16,1,-4,-4,-2,-5
1513226977125779,-7,-26,-15,-22,-1,0,14,24
1513226977125779,5,4,66,21,9,3,0,-13
1513226977127260,-25,5,-53,-6,-4,-5,-11,-9
1513226977127260,8,16,-6,-7,-2,-3,5,2
1513226977164286,-8,-16,12,27,9,5,4,9
1513226977164286,5,3,28,-6,-6,-4,-7,-2
1513226977166289,1,-7,-50,-16,-1,0,4,3
1513226977166289,-11,-6,22,11,2,2,-11,-14
1513226977166789,-8,14,26,-4,-4,-3,7,13
1513226977166789,7,-13,-18,11,1,-3,-17,-19
1513226977170790,10,40,33,2,-1,-1,6,1
1513226977170790,7,-27,-24,-10,0,4,-9,0
1513226977185300,-18,-29,-20,-1,0,0,8,15
1513226977185300,6,10,43,6,1,-4,10,-4
1513226977187302,-2,10,-9,-13,-9,-7,-25,-10
1513226977187302,4,16,-25,2,1,-1,1,1
1513226977208349,-2,8,32,-3,-1,1,-6,-4
1513226977208349,-18,10,-30,-6,-2,-4,11,16
1513226977209849,-2,-1,35,9,5,3,11,9
1513226977209849,-12,-10,2,6,3,1,-7,-23
1513226977223327,17,-8,-60,-9,-4,-2,6,3
1513226977223327,-34,-23,11,-1,0,-1,-8,17
1513226977224836,-14,-21,-6,6,0,-2,4,-21
1513226977224836,-7,10,7,-9,-3,0,0,3
1513226977245344,-18,11,26,10,3,-2,-2,-11
1513226977245344,6,-17,-10,-6,-2,-3,-3,4
1513226977247345,-14,-6,-14,8,3,-1,5,13
1513226977247345,-11,2,23,-16,-4,-5,-7,-8
1513226977268367,5,11,13,1,-1,-1,-7,-12
1513226977268367,-23,-7,-37,-3,-1,0,1,6
1513226977269861,8,-20,-2,-8,-7,-4,-8,-17
1513226977269861,15,25,24,1,-1,-1,6,12
1513226977290396,11,-10,-39,-10,-5,-4,-2,-3
1513226977290396,-1,-44,-1,6,3,3,8,5
1513226977292394,8,16,11,-8,-5,-2,-3,16
1513226977292394,-8,16,-13,15,3,2,1,-11
1513226977305407,18,28,33,-19,-11,-8,-7,-18
1513226977305407,5,-26,-40,-5,-2,0,0,5
1513226977307397,-9,-2,3,5,2,-1,2,2
1513226977307397,11,4,-8,-3,-2,-1,-4,5
1513226977328402,4,-20,-11,2,0,0,9,16
1513226977328402,-25,8,14,-12,-7,-3,-6,-16
1513226977329403,13,18,38,6,1,-1,1,0
1513226977329403,5,-29,-10,-2,-2,-4,-7,-5
1513226977350440,-3,2,17,20,6,5,0,-3
1513226977350440,10,-14,-31,-14,-4,0,11,24
1513226977352441,12,-8,-15,11,5,3,-23,-31
1513226977352441,2,15,-17,-15,-4,-3,2,7
1513226977365929,-12,-10,-1,-2,-1,-2,-2,-10
1513226977365929,20,-16,9,9,2,0,-4,8
1513226977367430,13,-7,9,-2,-3,-1,11,13
1513226977367430,-17,8,3,3,-2,-1,-8,-9
1513226977387976,1,13,10,-12,-3,0,6,13
1513226977387976,6,5,54,11,-2,-3,-5,-25
1513226977389955,-41,3,-62,-6,-4,-6,-5,-5
1513226977389955,10,2,11,5,1,-2,-6,-13
1513226977403477,17,-7,-9,1,-1,0,3,10
1513226977403477,1,51,-46,-17,-6,-2,-4,4
1513226977409459,-7,-22,23,-1,0,-1,-2,-9
1513226977409459,11,-21,-14,13,0,-1,-1,6
1513226977425471,-6,2,9,3,1,2,-4,-11
1513226977425471,2,32,12,1,0,2,3,13
1513226977427472,6,-5,26,-3,-2,-4,-1,-9
1513226977427472,4,-6,-61,-12,-4,-2,1,1
1513226977447561,-16,7,-3,4,2,-1,-3,-2
1513226977447561,0,-14,-46,-8,-5,-4,-9,-16
1513226977449687,28,13,13,-4,0,3,7,19
1513226977449687,1,-6,16,3,-5,-6,-6,-9
1513226977470702,-8,28,25,4,2,2,6,1
1513226977470702,-4,-45,-104,-26,-11,-7,-5,13
1513226977472204,-1,20,46,1,0,2,2,-10
1513226977472204,6,-21,16,6,3,-1,2,-5
1513226977485713,-22,30,-39,-8,-3,-2,-7,-3
1513226977485713,13,30,40,14,4,1,-4,-8
1513226977487232,-15,-28,-2,-8,-6,-6,-22,-12
1513226977487232,-7,-9,-36,-28,0,5,14,13
1513226977508229,8,20,21,11,-1,-3,-8,6
1513226977508229,0,-41,-15,-6,-4,-4,-3,-10
1513226977509730,-19,41,7,10,4,2,5,12
1513226977509730,-11,-6,-30,7,3,4,-6,-13
1513226977530757,-3,-25,12,-12,-10,-7,-1,-11
1513226977530757,-2,56,46,5,-1,-2,2,22
1513226977532256,-15,-23,-13,2,3,1,0,-20
1513226977532256,8,23,1,0,-4,-3,1,7
1513226977545755,-10,-11,28,11,3,3,20,18
1513226977545755,18,37,18,-5,-2,-2,-22,-31
1513226977547257,-2,-28,-34,-10,-1,0,13,14
1513226977547257,-18,2,66,8,1,1,-1,5
1513226977568274,2,-29,-83,-11,-5,-2,-19,-21
1513226977568274,-2,2,35,7,2,-1,30,16
1513226977569773,-4,-61,-55,5,-2,-2,4,-1
1513226977569773,-4,48,36,0,1,-6,-25,-16
1513226977582281,-11,-36,-10,-3,-2,-2,4,5
1513226977582281,30,-17,-6,0,-1,-1,-4,-9
1513226977589286,19,24,5,-5,-2,-3,-4,5
1513226977589286,-13,21,42,9,-3,0,9,20
1513226977605821,0,-70,-32,-8,-1,0,-15,-33
1513226977605821,-8,21,30,5,5,2,1,2
1513226977607305,29,-10,-6,0,-3,-3,-2,12
1513226977607305,-6,0,-33,-4,-1,1,-3,-22
1513226977628315,-1,9,-6,-12,-1,-1,3,26
1513226977628315,-5,-27,-21,10,5,0,2,-31
1513226977629816,-1,-7,-6,-10,0,2,5,4
1513226977629816,-13,-3,6,3,-1,0,5,12
1513226977641823,27,-12,10,-10,-3,-4,-8,-4
1513226977641823,11,-6,41,-5,0,4,5,11
1513226977650830,-25,24,-11,1,-2,-3,9,1
1513226977650830,13,54,-1,-1,-1,-4,-15,-9
1513226977665349,21,31,-2,3,0,-2,4,-1
1513226977665349,-12,-12,18,0,-3,-3,-5,-1
1513226977667343,-14,-51,11,-22,-9,-1,10,21
1513226977667343,-28,-76,-49,-4,-2,-4,-21,-42
1513226977688379,10,76,68,13,1,0,2,-9
1513226977688379,-1,43,-48,-6,0,0,6,16
1513226977689872,-54,-46,-43,-6,-4,-5,-28,-9
1513226977689872,25,0,25,9,4,1,12,3
1513226977701866,-4,-18,-27,0,-3,-1,-4,3
1513226977701866,14,37,16,6,3,1,1,-8
1513226977710923,4,-5,75,18,5,2,10,1
1513226977710923,2,-69,-85,-18,-5,-2,-14,-6
1513226977725449,-9,-11,12,0,-1,-3,-15,-12
1513226977725449,-2,21,-9,-10,-5,-2,-2,-1
1513226977726935,4,42,21,5,4,2,-1,-4
1513226977726935,11,-12,22,9,4,0,15,31
1513226977747963,5,0,-25,-3,3,4,-11,-24
1513226977747963,-10,8,-19,-6,-5,-5,-8,-17
1513226977754475,-7,-34,10,-8,-4,-2,2,-3
1513226977754475,-21,-16,7,7,-4,-3,-10,-9
1513226977761964,8,25,19,3,2,1,16,11
1513226977761964,-21,-14,14,-12,-4,-1,1,9
1513226977770536,28,10,-55,7,3,1,-4,-6
1513226977770536,-1,47,53,8,2,2,22,12
1513226977785546,9,-24,-85,-4,1,-1,-16,8
1513226977785546,-21,-10,14,-7,-4,-3,-6,-11
1513226977787047,37,67,26,15,3,0,4,-17
1513226977787047,-4,-16,-22,-23,-2,0,10,-1
1513226977808099,-14,7,31,9,2,-1,0,1
1513226977808099,-10,-52,-31,3,-1,-2,1,14
1513226977809597,-4,26,-39,-8,0,-2,-14,-16
1513226977809597,16,53,21,-12,-11,-6,5,14
1513226977821579,-25,-18,8,-3,-3,1,4,-11
1513226977821579,22,-3,18,6,-1,-3,9,6
1513226977830576,-16,-9,7,14,5,2,4,18
1513226977830576,-6,-4,-35,-9,-4,-2,1,-5
1513226977845588,16,28,59,3,0,-2,-9,6
1513226977845588,-26,-41,-21,-6,-4,-4,-9,-8
1513226977847088,5,6,18,7,-1,-2,-4,6
1513226977847088,0,18,-44,-16,-1,0,-2,-13
1513226977868105,-36,-39,-16,7,0,-3,0,-2
1513226977868105,11,24,12,-6,1,2,1,-1
1513226977869606,-4,7,-32,-3,0,2,9,13
1513226977869606,-12,-6,6,6,-1,0,0,-3
1513226977881615,-6,-5,15,-12,-4,-5,-25,-2
1513226977881615,9,29,45,7,-4,-5,-7,-7
1513226977890631,-2,15,14,13,6,4,-1,4
1513226977890631,17,12,20,2,-1,-3,9,23
1513226977906132,1,-1,-1,3,1,1,13,3
1513226977906132,7,-3,1,2,-1,0,2,3
1513226977907631,34,-6,3,-14,-6,-1,-10,13
1513226977907631,-23,29,33,5,-3,-6,-6,-17
1513226977928649,0,16,-25,-8,-5,-2,6,0
1513226977928649,14,-5,-4,1,3,-3,-9,2
1513226977929647,-3,-40,-21,-8,-4,0,16,13
1513226977929647,3,-33,-32,7,2,0,-21,-14
1513226977942178,0,-3,22,-6,-4,-2,6,-3
1513226977942178,-8,21,-18,1,0,-1,-3,-16
1513226977950671,0,33,-20,-16,-5,-2,6,17
1513226977950671,9,1,46,20,4,0,-12,-4
1513226977965695,-1,-18,8,-8,1,4,12,7
1513226977965695,1,-8,-4,-9,-2,-3,14,6
1513226977967195,-28,-25,-54,0,-2,-4,-11,-29
1513226977967195,-1,15,-8,-6,-3,1,4,8
1513226977988700,0,-1,2,12,0,-2,7,2
1513226977988700,-9,-8,4,-7,-3,5,11,8
1513226977990192,-19,-39,2,-3,-2,-6,-38,-22
1513226977990192,2,-2,-5,4,3,1,2,-8
1513226978001697,-23,1,-38,-13,-7,-4,7,28
1513226978001697,-10,19,25,2,-1,-1,-17,-22
1513226978010706,0,15,-8,2,-5,-3,4,-6
1513226978010706,6,-16,-17,-14,-1,1,-2,5
1513226978025717,-10,-18,3,12,2,0,2,-1
1513226978025717,9,-32,-29,2,2,2,0,15
1513226978027218,-9,1,10,4,-2,-4,-2,-14
1513226978027218,-19,-5,-4,-2,-5,-4,3,4
1513226978048231,6,20,-6,-1,0,-1,-14,-20
1513226978048231,6,-10,-23,6,2,1,0,9
1513226978049744,11,-5,1,-16,-3,-1,3,3
1513226978049744,9,15,33,8,2,1,1,2
1513226978061750,-19,-21,-19,-18,-8,-3,3,-10
1513226978061750,2,27,51,12,7,4,0,7
1513226978070747,-19,-11,3,-2,-4,1,14,22
1513226978070747,27,-9,-14,3,-1,-1,-12,-35
1513226978085757,7,5,-8,-3,2,0,-10,-8
1513226978085757,7,-12,6,-2,-1,-1,0,-1
1513226978087273,-12,2,-20,1,2,1,6,-5
1513226978087273,29,-2,28,-7,0,-1,0,12
1513226978108276,27,5,-5,-5,-5,0,3,-2
1513226978108276,-19,-51,-82,-11,-4,-3,-7,0
1513226978109775,6,55,67,2,-1,-2,-16,-11
1513226978109775,-13,-9,1,12,5,4,9,10
1513226978130791,2,-26,-1,-4,-3,-3,-1,-7
1513226978130791,-2,16,11,0,-4,-4,-2,3
1513226978132302,6,-12,-25,1,1,3,-3,-8
1513226978132302,7,49,28,-4,-4,-4,8,9
1513226978146319,3,-1,18,3,1,-2,-4,-2
1513226978146319,-30,-31,-2,2,-2,0,4,-3
1513226978147801,11,19,-17,1,-1,-2,1,-6
1513226978147801,13,53,9,-13,-7,-2,-10,-18
1513226978168325,13,-7,11,9,1,0,2,8
1513226978168325,4,3,-13,4,-1,-2,-5,-21
1513226978169817,-1,8,1,8,-1,-1,10,22
1513226978169817,-5,-7,34,-16,-5,-3,5,24
1513226978198336,19,41,-18,3,0,-2,-7,-23
1513226978198336,-12,-17,16,12,4,0,7,2
1513226978199849,11,9,17,-8,-4,-3,-5,-3
1513226978199849,2,-10,9,3,2,2,0,6
1513226978205355,9,6,35,8,3,2,5,8
1513226978205355,15,-25,-16,-13,-6,-4,-12,-14
1513226978207359,13,38,27,6,0,2,13,13
1513226978207359,-26,-37,-23,-3,-4,-5,-11,-12
1513226978228358,-7,-4,-1,-4,-2,-1,12,12
1513226978228358,18,22,5,2,1,3,3,-2
1513226978229858,0,-33,-5,-2,1,1,1,-4
1513226978229858,-7,6,-48,-4,-2,-5,-13,1
1513226978250397,-17,18,26,10,3,1,-2,-2
1513226978250397,-7,-3,-24,-13,-3,-4,-3,-3
1513226978252374,0,-11,-1,-3,-2,-2,-1,-3
1513226978252374,-18,-58,-31,-1,2,0,2,-9
1513226978264426,14,4,-5,2,0,0,-2,9
1513226978264426,-5,12,18,9,1,-1,-2,-2
1513226978273433,-7,-8,9,-4,-1,-1,-8,-16
1513226978273433,-3,6,-12,3,-2,-1,4,6
1513226978287935,-21,2,9,4,1,0,12,45
1513226978287935,5,-14,-31,-17,-3,-2,-24,-71
1513226978289446,0,6,27,11,3,0,3,3
1513226978289446,8,-55,-15,-9,-4,-3,-3,-5
1513226978310451,-6,17,20,7,2,3,10,8
1513226978310451,-26,-17,-33,-11,-6,-6,-15,4
1513226978312450,-18,-31,-14,-3,-4,-3,3,9
1513226978312450,24,3,10,18,4,1,-20,-11
1513226978324976,4,7,-4,-19,-6,-2,-1,-9
1513226978324976,9,-5,11,7,3,3,11,3
1513226978331982,-27,25,19,-13,-8,-4,-1,-9
1513226978331982,-6,2,13,0,-2,0,-5,18
1513226978347500,-18,4,25,11,4,4,-8,-17
1513226978347500,17,33,11,2,1,2,7,14
1513226978349623,11,-23,-36,-3,-1,-3,-4,-9
1513226978349623,-5,8,17,2,0,-2,8,-7
1513226978370670,-9,-19,-30,-6,-6,-4,-4,-6
1513226978370670,0,20,42,-1,-4,-1,14,23
1513226978372171,-1,-21,23,20,8,2,-21,-43
1513226978372171,-7,62,10,-6,-4,-2,8,13
1513226978400719,2,-40,-40,-5,0,-4,-9,-18
1513226978400719,-18,-16,5,-14,-7,-4,2,16
1513226978402194,2,-10,-24,-1,-3,2,4,-1
1513226978402194,-4,-41,-53,-3,-2,-1,4,17
1513226978408218,-4,29,17,-4,1,2,-4,-31
1513226978408218,6,23,22,15,4,2,4,8
1513226978409718,-7,-73,-58,-18,-6,-5,-6,5
1513226978409718,-39,-14,-23,-6,-4,-2,1,-14
1513226978430222,-5,3,-3,8,1,0,4,11
1513226978430222,4,7,-5,-8,-5,-3,0,2
1513226978436720,5,32,9,-5,-2,-2,-11,0
1513226978436720,0,-27,14,10,8,4,3,15
1513226978444722,4,-3,-3,-15,-7,-6,10,0
1513226978444722,-20,-8,-42,-12,-5,-4,-28,-43
1513226978451766,8,32,23,6,2,2,10,21
1513226978451766,32,17,35,7,3,1,0,-38
1513226978467242,-19,-79,-50,-20,-7,-3,3,14
1513226978467242,5,1,13,11,4,0,5,15
1513226978475749,-6,12,-9,-8,-1,-1,0,-3
1513226978475749,31,3,21,10,4,3,6,5
1513226978490768,-3,-36,-15,5,0,-2,-10,-3
1513226978490768,-2,-8,-6,-9,-2,1,3,1
1513226978492266,2,-8,14,6,1,2,4,2
1513226978492266,-6,3,-1,-10,-4,-2,1,0
1513226978504768,-4,24,10,9,1,2,0,1
1513226978504768,-2,-27,-36,-9,-2,-1,1,11
1513226978511771,11,15,39,-4,0,-1,7,30
1513226978511771,-37,53,8,-11,-6,-2,-10,-42
1513226978527796,-5,-52,-63,-16,-6,-6,-7,-5
1513226978527796,-4,5,15,14,4,3,8,3
1513226978529800,-3,17,12,2,0,-1,4,-2
1513226978529800,-4,-2,-32,-9,-4,-2,4,12
1513226978550299,-7,8,14,7,-1,0,-4,0
1513226978550299,28,-13,-10,1,2,-1,-1,-7
1513226978552312,9,19,11,-3,-3,-1,-6,-3
1513226978552312,-6,1,2,-8,-5,-2,5,11
1513226978564811,20,28,21,2,1,2,-3,-3
1513226978564811,-12,4,21,-12,-6,-6,-2,2
1513226978579318,4,-11,-25,-4,-2,1,0,-6
1513226978579318,2,-13,8,11,1,-2,2,7
1513226978588359,6,19,6,1,0,0,-3,-5
1513226978588359,-3,3,3,3,0,0,-2,-1
1513226978589825,-5,-21,0,-8,0,0,-3,-8
1513226978589825,-8,-18,-18,0,-1,0,-2,2
1513226978610349,9,5,-4,-3,-2,-3,1,2
1513226978610349,0,8,5,5,0,-1,-2,0
1513226978612342,-7,6,-3,3,-5,-2,-3,-9
1513226978612342,9,-4,-7,1,2,0,1,10
1513226978624350,-3,27,13,-2,-1,-2,-3,-2
1513226978624350,-1,-9,-1,-1,1,1,0,-3
1513226978633357,-4,-2,-5,1,1,0,-2,-2
1513226978633357,-8,-11,4,-2,-2,-1,-4,0
1513226978647866,2,5,9,6,1,-3,-1,-2
1513226978647866,-9,-3,-4,-4,2,0,-1,-3
1513226978649870,5,-13,-7,-2,-1,0,0,3
1513226978649870,1,-3,2,1,-1,0,-2,17
1513226978669892,-4,6,3,3,-1,0,-7,-29
1513226978669892,1,-1,-14,-4,-3,0,-1,3
1513226978670883,-2,9,4,1,-2,-4,-1,-2
1513226978670883,-4,-8,-1,-2,-3,-4,-2,-2
1513226978692419,-1,2,3,-1,2,0,-1,6
1513226978692419,-2,3,-4,-2,-5,-3,-1,-2
1513226978693413,-3,-3,-9,-11,-2,-2,-1,-5
1513226978693413,-1,-4,-4,-2,-1,0,0,-3
1513226978707412,3,0,-3,-3,-4,-3,1,4
1513226978707412,2,5,-6,-2,0,-1,-3,-5
1513226978708409,-6,-9,13,13,2,2,2,0
1513226978708409,9,2,-4,-5,-1,-2,-1,-4
1513226978737930,5,18,0,-9,-4,-4,-6,2
1513226978737930,3,7,7,-1,0,0,-3,-3
1513226978738941,-4,3,-6,3,1,-2,2,-1
1513226978738941,-7,-22,5,0,-2,-1,-2,-4
1513226978753024,-3,-4,-14,0,-1,3,0,1
1513226978753024,0,-4,9,3,-1,-1,2,-4
1513226978754020,0,5,-8,-4,-1,-2,-6,-2
1513226978754020,0,2,3,0,0,1,1,-1
1513226978767515,-1,-5,0,1,0,-1,-1,0
1513226978767515,-8,-12,-3,3,-1,-1,-1,6
1513226978768012,-1,-4,2,0,0,0,1,-1
1513226978768012,-2,0,-9,-2,-3,0,-2,-6
1513226978798044,1,13,1,-1,-1,-1,-2,4
1513226978798044,-3,-4,-3,0,0,-2,-2,-2
1513226978799036,-2,1,-3,0,0,-3,0,-1
1513226978799036,1,1,-4,-1,-2,-2,-2,-3
1513226978820549,-1,2,-4,-2,-1,0,0,-1
1513226978820549,-2,2,4,1,1,-3,0,0
1513226978821050,1,1,3,0,0,1,-2,-1
1513226978821050,-2,1,-5,-3,0,-1,-1,1
1513226978827054,-3,-6,-3,-2,-1,-1,-1,-1
1513226978827054,3,-1,-6,-2,-2,-1,-3,0
1513226978835071,-3,-3,4,1,0,1,-1,1
1513226978835071,0,0,1,-1,1,-2,0,-2
1513226978850073,-2,-2,5,1,-1,-1,0,0
1513226978850073,-3,-2,-2,-2,-3,-2,-1,1
1513226978850571,0,-1,-5,0,-3,0,-2,-2
1513226978850571,-1,0,5,1,-1,-1,-2,-3
1513226978874618,-2,-1,-7,-5,-2,-2,0,-2
1513226978874618,-1,-3,-2,-1,-3,-1,0,-1
1513226978875119,-5,-1,11,2,0,0,-2,0
1513226978875119,-1,-2,-1,-1,0,-2,-1,-2
1513226978887627,1,0,0,0,-2,0,-2,-1
1513226978887627,0,2,0,0,0,-2,-1,0
1513226978888128,0,-3,-5,-2,0,-2,-2,-1
1513226978888128,1,-1,1,-1,-1,-2,-1,1
1513226978910155,-3,0,0,-2,-1,-3,-1,-1
1513226978910155,-2,-2,-2,-1,-1,0,0,-2
1513226978910650,-1,0,-4,-1,-1,-4,0,-2
1513226978910650,-1,2,5,1,0,0,-1,-1
1513226978932659,0,2,2,-2,-1,0,1,0
1513226978932659,-1,0,-3,-3,-2,0,0,0
1513226978933660,-1,0,-2,-4,1,-2,-1,-1
1513226978933660,-1,-1,-2,0,0,-1,0,0
1513226978948670,0,-3,0,-1,-2,0,-2,-2
1513226978948670,-1,-1,-1,0,-1,-2,-2,-2
1513226978949681,0,1,-3,0,-2,-1,-2,-1
1513226978949681,-1,0,-5,-2,0,-1,-1,-2
1513226978969685,-2,-4,3,1,0,-2,-2,-1
1513226978969685,-2,-2,-2,-2,1,-1,-2,-2
1513226978970686,2,-1,0,0,-2,-1,-2,-2
1513226978970686,-1,0,-1,-1,-2,-2,0,-2
1513226978993705,0,-2,-2,-2,-1,-2,-1,-1
1513226978993705,-1,-1,1,-2,-1,0,-1,-1
1513226978994202,-1,-3,0,-2,-1,-1,0,-1
1513226978994202,-2,0,-1,-1,1,-1,-1,-1
1513226979007225,-2,0,0,-1,0,-1,0,-2
1513226979007225,-3,1,0,1,-1,1,0,0
1513226979008218,1,-1,-3,-1,-1,-1,-1,-2
1513226979008218,0,0,-4,-3,-3,-2,-2,0
1513226979029727,-1,-2,0,-1,0,0,-2,0
1513226979029727,2,-1,0,0,-2,-4,-3,-2
1513226979030728,-2,-1,-1,-2,-2,-1,0,0
1513226979030728,-2,-2,-2,-1,-1,0,-2,-1
1513226979053244,0,-1,-3,1,0,-2,-2,1
1513226979053244,-1,-2,-1,0,0,-1,-2,-1
1513226979053744,-1,0,-1,-1,-1,-1,0,0
1513226979053744,-3,-6,0,0,-2,0,0,0
1513226979067309,-1,-2,1,-1,-1,0,-2,-2
1513226979067309,-1,-2,-2,0,1,1,-1,-2
1513226979068289,-2,-1,-1,-1,1,0,-1,-2
1513226979068289,-1,0,-3,0,0,-2,0,-1
1513226979097820,0,-2,1,-2,-1,-1,0,0
1513226979097820,-1,-2,-1,-1,-1,-2,-1,0
1513226979098814,-1,1,-2,-1,1,-2,-1,0
1513226979098814,0,2,-2,-2,-1,1,-1,-1
1513226979121363,-1,-1,1,-1,0,-2,0,0
1513226979121363,0,0,-2,-1,-3,-3,-1,0
1513226979122363,0,-1,0,-1,-4,-1,-2,-1
1513226979122363,-1,-2,-1,-1,-2,-1,-1,-1
1513226979127367,-2,-3,-1,-2,-1,-3,1,-1
1513226979127367,0,1,-1,-1,-1,-1,0,-1
1513226979128357,-1,-2,0,0,-2,-3,-1,-1
1513226979128357,0,-1,-1,-2,0,-1,0,-1
1513226979150373,0,-2,0,-2,-1,1,-2,-1
1513226979150373,-3,-1,-2,0,1,0,0,-2
1513226979151374,0,-1,-1,0,0,-2,-1,-1
1513226979151374,0,-1,-2,1,-1,-1,-1,-2
1513226979172389,-1,-2,-1,-1,-1,0,-1,0
1513226979172389,-1,-2,-1,0,-1,-1,-1,-1
1513226979188902,-2,-1,-1,0,0,-1,-3,0
1513226979188902,-2,-1,-1,-2,-2,-1,-1,1
1513226979190419,-1,0,-1,-1,-2,-2,-2,-1
1513226979190419,-1,-2,0,-1,-2,0,0,0
1513226979191404,-1,-2,-1,0,-2,0,0,0
1513226979191404,-1,1,-2,0,-1,-1,-1,-1
1513226979209922,-2,-1,1,0,0,-1,-2,-2
1513226979209922,0,-1,-2,-1,-1,0,-1,1
1513226979210918,-1,-3,-1,0,0,0,-1,-2
1513226979210918,0,-2,0,-1,0,0,-1,-2
1513226979232932,-1,2,-2,-1,-1,0,0,0
1513226979232932,-1,1,1,-2,0,-1,0,-2
1513226979233933,-1,-1,-1,1,-1,-1,-1,-1
1513226979233933,-1,-1,-1,-1,-1,-1,-1,-1
1513226979247452,0,-2,-2,1,-1,-2,-2,-1
1513226979247452,-1,-3,0,-2,-1,-1,-1,-1
1513226979247944,0,0,0,-1,-2,-1,-1,0
1513226979247944,-1,0,-2,-1,-1,-2,-1,0
1513226979269957,-2,-1,-2,-1,-2,-3,-1,-2
1513226979269957,-1,-2,-2,-1,-1,0,0,-1
1513226979270459,0,-1,0,-1,1,-2,0,0
1513226979270459,-2,0,-1,-1,1,0,-1,-1
1513226979293498,0,-1,-1,-1,0,1,0,-3
1513226979293498,2,1,-1,-2,-2,-2,-2,-2
1513226979294494,-2,0,-2,-1,-2,0,-1,-2
1513226979294494,-2,-1,-1,-1,0,-1,-1,0
1513226979307484,-1,1,0,-1,-1,-1,1,-1
1513226979307484,-1,0,0,-1,-1,-1,-1,-2
1513226979307985,0,0,-2,-1,-1,-3,-2,-2
1513226979307985,0,-1,0,-1,-3,-2,-2,1
1513226979330000,0,-1,-1,-1,-1,-1,-1,-2
1513226979330000,-2,-2,-2,-2,-1,0,-2,-1
1513226979330504,-2,-3,-1,-2,-1,-1,1,-2
1513226979330504,1,0,-1,-1,-1,-1,-1,0
1513226979353039,-2,-3,-3,-3,0,-2,-2,-1
1513226979353039,-1,0,-2,1,-1,-1,-2,-2
1513226979354017,-1,-2,-1,-1,-2,0,-2,-2
1513226979354017,0,0,-2,0,-1,-1,0,0
1513226979367527,-1,0,-1,0,-1,0,1,0
1513226979367527,-2,0,-3,0,0,-2,0,0
1513226979368029,-1,-1,-1,-2,-2,-1,-2,-1
1513226979368029,-2,0,-1,-2,-2,-1,-1,0
1513226979390059,1,0,0,1,-2,-1,-1,0
1513226979390059,-1,-2,-2,0,-1,-1,-1,1
1513226979390544,-1,-2,-1,-1,-1,0,-1,1
1513226979390544,-1,1,-1,-3,-4,-2,0,-2
1513226979413061,-3,-1,-1,0,-2,-1,-1,-2
1513226979413061,0,-2,-1,-1,-1,-2,1,0
1513226979414060,0,-2,-1,-2,-1,0,-1,-1
1513226979414060,0,0,0,-1,0,-1,-1,-1
1513226979427572,-2,-1,-2,-2,-2,-1,0,-1
1513226979427572,0,0,0,0,-1,-2,0,1
1513226979428071,0,1,-1,0,-1,0,-1,-1
1513226979428071,0,-2,0,-1,0,0,1,-2
1513226979450086,-1,-2,-2,-1,-1,0,-2,-1
1513226979450086,-1,-1,-1,0,0,0,-2,-1
1513226979450587,0,0,1,-3,1,-1,-1,-2
1513226979450587,-2,-1,-1,0,-3,-4,-1,-2
1513226979473112,0,-3,-1,0,-2,-1,0,-2
1513226979473112,-1,0,-1,-3,-2,-1,-1,-3
1513226979473602,-2,0,-3,0,-1,-1,-2,0
1513226979473602,-3,-1,-3,-1,0,-1,-2,-1
1513226979487121,-2,-2,-2,-2,0,-1,-2,0
1513226979487121,-1,-3,-1,-2,-3,1,0,1
1513226979488122,-2,0,-2,0,-1,0,-1,-1
1513226979488122,-1,0,0,-1,2,-1,-1,0
1513226979510127,-1,-1,-1,-3,0,-2,0,0
1513226979510127,0,-4,-1,0,0,-2,-1,0
1513226979511128,-1,0,-1,-1,-1,-2,0,-1
1513226979511128,-1,-2,-1,-1,0,-1,0,-2
1513226979548155,-1,0,-2,0,-2,0,-1,-2
1513226979548155,-1,-1,-1,-1,-1,-2,-1,-1
1513226979548656,-1,-2,0,-1,-1,-2,-1,-1
1513226979548656,1,-1,-1,-2,-3,-1,0,-2
1513226979555731,-1,-1,-1,-2,1,0,-1,1
1513226979555731,0,-2,0,-1,-3,-1,-1,-1
1513226979556161,1,-1,-1,-1,2,-1,-1,-1
1513226979556161,0,1,-1,0,-1,0,-2,0
1513226979569692,-1,-1,-1,-1,-2,-2,-1,-1
1513226979569692,-1,-1,0,0,0,0,-2,-1
1513226979570681,1,0,-2,-2,-2,0,-3,-1
1513226979570681,-3,-4,0,-1,0,0,-1,-2
1513226979593189,-1,-1,-2,-2,0,-1,-1,-1
1513226979593189,-1,-2,-2,-2,-1,0,1,0
1513226979593687,0,-1,-2,-2,-1,-1,0,-2
1513226979593687,0,-2,-1,-1,0,0,-1,-2
1513226979606699,-1,-2,0,0,-3,-1,-2,-2
1513226979606699,-2,-1,-1,-1,0,-2,-1,-1
1513226979622207,-2,-1,-1,-1,-3,1,0,0
1513226979622207,-1,-1,-3,0,-2,-2,0,-1
1513226979630213,-1,-1,-2,0,-2,-2,0,0
1513226979630213,-1,1,0,-2,-1,-1,0,0
1513226979630713,-3,1,0,1,0,-1,-2,-2
1513226979630713,-1,0,-1,-1,-2,0,-1,0
1513226979653228,-1,-1,-1,-3,-1,-3,0,0
1513226979653228,-1,0,-1,-1,-2,-1,-2,0
1513226979653730,-2,-2,-1,1,-1,-3,-1,-1
1513226979653730,-2,0,0,0,1,-1,-1,-2
1513226979666741,1,-1,0,-1,-1,0,-1,-2
1513226979666741,-2,0,-1,0,-1,-2,-4,-1
1513226979674744,-1,-2,-2,-2,1,-1,0,0
1513226979674744,0,-2,-1,0,-4,-3,-1,-1
1513226979689754,-1,-1,-1,0,0,-1,0,-1
1513226979689754,-3,-5,0,0,1,0,2,-1
1513226979690755,-1,-3,-2,-1,-2,0,-1,0
1513226979690755,1,-2,-2,-3,-2,-1,-3,0
1513226979713308,-2,0,-1,-4,0,-1,0,0
1513226979713308,1,2,-2,-1,0,-1,-1,-2
1513226979713807,-1,1,0,-1,-2,-1,-2,-1
1513226979713807,-1,0,-2,-1,-1,0,-1,-2
1513226979726817,-2,-1,-2,0,-1,-1,-2,-2
1513226979726817,-1,1,-2,-1,-1,-1,-1,-2
1513226979734843,-2,-2,-1,-2,-1,-1,0,0
1513226979734843,-1,1,-2,-2,-1,-1,-1,-1
1513226979749837,0,0,-2,-1,-2,-1,-2,-1
1513226979749837,-1,-1,0,1,-1,-1,-1,-1
1513226979750838,-1,0,0,0,-2,0,0,-1
1513226979750838,-3,-1,-1,-1,0,0,1,1
1513226979773358,-1,-1,-1,0,-2,-1,-2,-2
1513226979773358,0,-2,1,-2,0,-1,0,0
1513226979774359,0,-3,-3,-1,0,-1,0,-1
1513226979774359,0,-2,-1,-1,-1,0,-1,-1
1513226979786863,-1,0,0,-1,1,1,-2,0
1513226979786863,-1,1,-4,-2,-1,-1,0,-1
1513226979794876,-1,-2,0,-1,-1,-2,-2,-1
1513226979794876,-2,0,-1,-2,-2,-1,0,0
1513226979809897,0,0,0,-1,-2,-2,-1,0
1513226979809897,-1,0,-2,-1,-1,-1,-1,0
1513226979810877,-3,-2,-2,-1,-1,-1,0,-1
1513226979810877,-4,-7,0,-1,-1,0,-1,-1
1513226979833403,-1,-2,0,-1,-2,-1,-1,-2
1513226979833403,0,-1,-1,0,-1,-1,-1,-2
1513226979834404,0,-2,0,1,0,-1,0,-1
1513226979834404,-2,0,-1,1,0,-1,-2,-2
1513226979847402,-2,0,-2,0,-1,-2,-1,1
1513226979847402,-1,-1,-1,0,-2,-2,-1,-1
1513226979862412,0,-1,-1,-1,-3,0,-1,-2
1513226979862412,2,0,-1,-2,0,-1,-1,-2
1513226979869922,-1,-1,-1,0,-1,-2,-1,-1
1513226979869922,0,1,-2,-4,-1,0,-1,-1
1513226979870420,-1,0,0,-2,-1,0,-2,-1
1513226979870420,-2,0,-1,-1,-2,1,0,0
1513226979900442,-1,-3,-1,-1,-1,0,1,-1
1513226979900442,-3,-1,1,1,0,-2,-2,0
1513226979901443,0,0,-2,0,1,-1,-1,0
1513226979901443,-1,-1,0,0,-1,0,-1,-2
1513226979906444,-1,-1,-2,-1,-2,-1,-1,-1
1513226979906444,-1,-2,-1,-2,-1,-2,-1,-2
1513226979914948,-1,-1,-1,-1,0,-2,-2,-3
1513226979914948,-1,2,-1,1,-1,-2,-1,0
1513226979929977,0,-2,-2,-2,0,-1,0,-1
1513226979929977,0,-2,-1,-2,1,-2,-1,0
1513226979930459,-2,-1,-2,0,-1,-2,-1,-1
1513226979930459,0,-1,-2,-1,-1,-2,-1,-1
1513226979953149,-5,-5,1,0,1,0,0,0
1513226979953149,-2,0,0,0,-1,0,0,0
1513226979953650,-1,-2,0,-2,-2,0,0,-2
1513226979953650,0,-2,0,-1,-1,-1,-1,-1
1513226979976669,-1,-1,-1,-1,-2,0,-1,-3
1513226979976669,-1,-1,-3,0,-1,-1,-2,-2
1513226979977166,-1,-1,-3,0,-2,-1,-2,1
1513226979977166,-3,2,-1,-2,-1,-2,-1,-2
1513226979989678,0,3,0,-1,-2,-2,-1,0
1513226979989678,0,-1,-1,-1,-2,0,-1,-1
1513226979990676,1,0,-2,-1,-1,0,0,-1
1513226979990676,1,-2,-4,-1,-2,0,-2,0
1513226980012742,-1,-2,-2,-1,0,-2,-1,-2
1513226980012742,-1,-2,0,-1,-1,-3,0,-1
1513226980019764,-2,-2,0,-1,0,-3,1,1
1513226980019764,-1,-1,-1,-2,0,-1,-1,-1
1513226980035781,0,-1,-1,-1,1,-1,-2,-1
1513226980035781,0,-2,-1,0,-2,-1,-1,-1
1513226980036281,-1,1,-1,-2,-1,1,-1,-3
1513226980036281,-2,-2,1,-3,-2,-1,0,-2
1513226980049789,-2,0,-1,-1,-2,1,0,-2
1513226980049789,0,-2,-1,-3,1,-1,-2,-2
1513226980050789,0,-1,0,-1,1,-1,-1,-1
1513226980050789,-3,-6,3,0,1,-1,0,-1
1513226980072810,-2,1,-1,1,-2,0,-2,-2
1513226980072810,-1,1,-1,0,-1,-1,-1,-1
1513226980073803,-2,0,-1,-2,-2,-1,0,-1
1513226980073803,0,0,-3,-1,0,1,-2,0
1513226980095828,-2,-2,-1,-3,0,-1,0,0
1513226980095828,0,-2,-2,0,0,-2,-1,0
1513226980096328,-1,-1,-2,0,-2,-2,-1,-1
1513226980096328,0,-1,-2,0,-2,0,0,0
1513226980109829,-2,-1,-3,-2,-2,-1,-2,-1
1513226980109829,-1,2,-2,-2,0,-1,-2,0
1513226980110831,-1,0,-1,-1,-1,-2,-1,-1
1513226980110831,-3,1,-1,-1,-2,-2,-1,-2
1513226980140372,0,-3,0,0,-1,-1,-2,-1
1513226980140372,0,-1,-3,-2,-2,0,0,-2
1513226980141350,-1,-2,-2,-1,-1,-1,-1,-1
1513226980141350,0,-1,-2,-1,-2,-1,-1,0
1513226980155361,2,0,-3,0,-2,-2,1,1
1513226980155361,-1,-2,-1,-1,-1,0,-1,-1
1513226980156359,0,-1,-1,0,-2,-2,-1,0
1513226980156359,0,0,-1,-2,0,-2,-1,-2
1513226980169868,-1,0,-1,-4,-2,-2,-3,-2
1513226980169868,-3,-5,2,1,0,0,1,0
1513226980170370,-2,0,-1,-1,-2,0,-2,-2
1513226980170370,-1,-2,-4,-3,-2,-1,-1,0
1513226980192910,-1,-2,0,0,-2,-2,0,-1
1513226980192910,-2,0,-1,0,-1,-2,-1,-1
1513226980193907,-1,-1,0,-1,0,1,0,-1
1513226980193907,0,0,-1,-2,0,-3,0,-3
1513226980215404,-2,-1,-1,-2,0,-1,-1,-1
1513226980215404,-2,-1,-2,-1,-2,-3,0,-2
1513226980216402,0,-1,-1,0,0,0,-1,0
1513226980216402,0,0,-4,-1,0,-1,-2,-1
1513226980229971,-2,-1,-2,0,-3,-2,-1,-1
1513226980229971,0,-1,0,-1,-2,0,-1,0
1513226980230419,-1,0,0,0,-2,0,-1,0
1513226980230419,0,-1,-1,-1,-2,1,-1,-1
1513226980252961,-1,-1,-2,-1,-2,-1,-2,0
1513226980252961,-2,1,-1,-1,-1,-1,-2,-1
1513226980253944,0,-1,-2,-1,-3,-1,1,-2
1513226980253944,0,-2,-1,-1,-2,0,-1,-1
1513226980275447,-4,-7,3,2,1,1,0,-2
1513226980275447,0,0,-1,2,0,-1,-1,-1
1513226980276447,1,0,-1,-3,-1,-2,-1,0
1513226980276447,0,1,-2,-1,0,-2,0,0
1513226980289954,0,0,-2,-2,-2,-1,-2,-1
1513226980289954,-2,-3,-1,-2,-2,-1,0,-1
1513226980290454,-3,-2,1,1,-1,0,-1,-2
1513226980290454,-2,-2,0,0,-3,-1,-2,-2
1513226980313009,-1,0,-3,-2,-2,-2,-2,-2
1513226980313009,-3,0,-1,-2,-2,-1,-2,0
1513226980314012,-1,0,-2,-2,0,-3,-1,-1
1513226980314012,0,-2,-2,-2,-1,1,-1,-1
1513226980335526,1,0,-2,-1,1,0,-1,0
1513226980335526,-1,-1,-2,-3,-2,-1,-1,-2
1513226980336026,-1,-1,-1,1,-1,0,-2,1
1513226980336026,-1,-1,-2,0,-2,-2,-1,-1
1513226980350037,0,0,-2,0,-1,-3,0,-2
1513226980350037,3,-2,-1,-1,0,-1,0,1
1513226980350536,-3,0,-1,-1,1,-1,-2,-2
1513226980350536,0,-2,0,-1,-1,-2,-1,-2
1513226980375055,-2,0,-1,-1,-2,-1,0,-2
1513226980375055,-2,-2,-1,-1,-3,-1,-1,-1
1513226980376068,0,-2,-1,-1,-2,1,-1,-1
1513226980376068,-3,-1,-2,-1,1,-1,-1,0
1513226980395569,0,-1,-3,-1,1,0,0,0
1513226980395569,0,-1,0,-1,-1,1,-2,0
1513226980396072,-4,-7,2,-3,-1,-1,2,0
1513226980396072,-2,0,1,-2,1,-1,0,-1
1513226980410095,-1,-1,-1,0,-1,1,-1,-2
1513226980410095,-2,-1,-2,-1,-2,-1,-1,-2
1513226980410580,0,2,-2,-1,-4,-2,-1,-1
1513226980410580,0,0,0,-1,0,-2,-1,0
1513226980433105,-1,-1,0,-3,-1,0,-1,0
1513226980433105,0,1,-2,-2,-1,-2,-1,-2
1513226980433605,1,-3,-3,-2,-2,-1,-2,0
1513226980433605,-1,-3,-2,0,-2,-2,-2,0
1513226980456121,0,0,-2,0,-1,-2,-2,-1
1513226980456121,0,0,-2,2,-1,1,-2,-2
1513226980456613,-2,0,-1,-2,-2,-2,-2,-1
1513226980456613,-1,-1,-2,-1,-2,0,0,0
1513226980469621,0,-2,-1,0,-1,1,0,-3
1513226980469621,-1,-2,-2,-3,0,0,0,-2
1513226980470622,0,-1,0,0,0,0,-3,0
1513226980470622,0,0,-2,-1,-1,-1,-3,-1
1513226980493654,-1,0,1,-2,-1,-1,0,1
1513226980493654,-1,-1,-4,0,-1,-2,0,0
1513226980494139,-3,-1,-3,-1,-1,1,-2,-1
1513226980494139,-1,-2,-3,-1,-3,1,0,-1
1513226980523160,-1,-1,-1,-1,-2,-2,0,1
1513226980523160,-2,-1,0,0,1,-2,0,-2
1513226980523661,0,1,0,0,-1,-3,0,-2
1513226980523661,0,1,0,-1,0,-1,0,0
1513226980529163,-1,0,-4,-1,-1,0,0,-1
1513226980529163,1,0,1,-1,-1,-2,-1,0
1513226980537681,0,-2,-2,0,-1,1,-2,1
1513226980537681,-1,0,-1,-2,-1,0,0,-1
1513226980553242,0,-2,-1,-1,-3,-1,-1,-2
1513226980553242,-3,-2,-1,-2,-1,-1,-1,-2
1513226980553686,0,0,-1,-1,-2,-2,-2,-1
1513226980553686,-1,-3,-2,-1,-1,-3,-2,0
1513226980575701,-1,-3,1,1,0,1,-3,1
1513226980575701,-2,-3,-1,2,-2,-1,-1,0
1513226980576200,-1,-3,-1,-1,-2,-2,1,-1
1513226980576200,0,0,0,-2,-3,0,0,-2
1513226980589228,0,-2,-2,-2,1,0,-2,-3
1513226980589228,0,1,-1,-4,-1,0,-1,0
1513226980597233,-3,-4,2,0,-1,-2,-1,-1
1513226980597233,-2,-1,-1,0,-1,-1,-1,1
1513226980613746,-1,0,-1,0,-1,0,-2,-1
1513226980613746,0,-1,-1,-1,-1,0,-1,1
1513226980614225,1,0,-1,-1,0,-1,-1,-3
1513226980614225,-1,-3,-1,0,-1,-1,-3,-1
1513226980635743,-2,0,-3,0,-1,-1,1,-1
1513226980635743,-1,1,0,0,-1,-1,-1,-2
1513226980636243,-1,0,-3,-2,-2,-1,-1,-1
1513226980636243,-1,-1,0,0,1,0,-2,-1
1513226980649259,0,-1,-4,-1,0,-3,-1,0
1513226980649259,-1,-2,0,2,1,-1,-1,0
1513226980657253,1,-2,-3,0,0,-2,-2,-1
1513226980657253,-1,-3,-1,-1,-2,0,-2,-1
1513226980680364,1,-2,-2,-3,-2,-2,-1,-1
1513226980680364,1,-1,-2,-2,-2,-3,-1,-1
1513226980681353,-1,-1,-2,0,-1,0,-1,-1
1513226980681353,-1,0,0,-2,0,-1,1,-3
1513226980695875,-2,0,-2,-2,-3,-3,-2,-2
1513226980695875,0,-2,1,-2,-1,1,0,-1
1513226980696864,3,2,-2,-2,1,-4,-2,0
1513226980696864,-1,-3,-3,-1,-3,-2,-2,-2
1513226980709384,-3,-2,0,0,2,1,-1,-1
1513226980709384,-1,-1,-1,0,0,-1,0,-1
1513226980717381,0,2,-2,-1,-1,-1,-1,-1
1513226980717381,-1,-1,-2,-1,1,1,1,-1
1513226980732890,1,-2,-1,-3,-1,-2,-1,0
1513226980732890,-2,-4,-3,-1,-1,-2,-3,0
1513226980734391,-4,-1,1,-2,-1,1,-1,-2
1513226980734391,-2,-1,-3,0,-2,-3,1,-1
1513226980755408,-3,-2,1,-2,-2,-1,0,0
1513226980755408,-2,-1,-1,-2,0,-1,0,-2
1513226980756906,0,-1,-1,-1,-1,0,0,0
1513226980756906,1,0,-2,-2,-2,0,-2,0
1513226980769415,-1,0,0,1,0,-1,0,-2
1513226980769415,-2,0,-1,-2,-2,-2,0,0
1513226980777921,-1,-1,-1,-1,-1,0,-2,-1
1513226980777921,-1,0,-3,-1,-2,0,-1,-1
1513226980792935,-2,-1,0,-1,-1,1,-2,-1
1513226980792935,0,1,0,-1,-2,-2,-1,0
1513226980794433,-1,-4,-2,1,-1,0,0,-1
1513226980794433,0,-1,-1,-1,0,-1,0,-2
1513226980815448,0,0,-2,-1,0,-2,0,-1
1513226980815448,1,0,0,-1,-2,2,-1,0
1513226980816949,-1,-1,-1,0,-2,-1,-1,-1
1513226980816949,0,-1,-1,0,1,-2,-2,-2
1513226980828960,-2,-1,0,-1,-1,-1,-1,-2
1513226980828960,-3,-3,-3,-1,0,-2,-1,-1
1513226980837964,-1,-3,-1,-2,-1,-2,0,-1
1513226980837964,-1,-2,-1,0,-3,0,0,0
1513226980853475,-2,-1,0,0,-3,-2,-2,1
1513226980853475,0,0,-2,-1,-1,1,0,-1
1513226980854980,-2,0,-1,-1,-2,0,-1,-1
1513226980854980,-2,-2,-1,-1,-2,-1,-1,0
1513226980875569,0,0,-2,-3,-2,-2,-2,0
1513226980875569,-1,-2,1,0,1,-1,-1,-1
1513226980877059,-2,-1,-1,-1,-2,-2,1,0
1513226980877059,-2,-1,-1,-2,-1,-1,0,-1
1513226980889579,-1,-1,-1,0,-3,0,-2,-1
1513226980889579,1,1,-4,-3,-5,-1,-1,-2
1513226980898074,1,-1,-1,-1,-1,-3,-2,-1
1513226980898074,0,-1,1,-1,1,-2,-1,-1
1513226980913087,-2,0,-1,-1,-2,0,-1,-1
1513226980913087,-1,0,-1,-1,-1,0,-3,-3
1513226980914586,-1,-1,-1,-1,-1,0,-1,-1
1513226980914586,-1,-2,-2,0,-1,-1,-1,-2
1513226980935612,1,-1,1,-2,-1,-1,0,0
1513226980935612,-3,-3,-1,1,0,-1,0,-1
1513226980937114,-2,-1,-1,-1,-1,-1,-1,-1
1513226980937114,-3,-2,1,-1,0,-2,-1,-1
1513226980958632,-2,-3,-1,1,1,1,0,-1
1513226980958632,0,-2,0,-1,-1,-1,-1,0
1513226980960120,1,0,0,1,-1,-1,-3,-2
1513226980960120,1,0,-2,-2,-1,-2,-3,-1
1513226980973137,1,-2,-2,-1,-1,-2,-3,-1
1513226980973137,-3,2,2,-2,0,-1,0,0
1513226980974639,-2,-2,-2,-2,1,-2,-2,-1
1513226980974639,0,0,-1,-2,-2,-1,-2,-2
1513226980995642,-1,1,-1,-1,-2,-1,0,-2
1513226980995642,0,-3,-3,0,0,0,-1,0
1513226980997146,-2,-4,0,-1,-2,-1,-1,-1
1513226980997146,-1,0,-1,0,-1,-1,-2,-1
1513226981018161,0,0,-2,-2,0,-2,0,1
1513226981018161,0,-3,-1,0,0,-2,-2,-2
1513226981020660,1,-1,1,-1,-1,0,-1,0
1513226981020660,0,-2,-2,-1,-2,1,-1,0
1513226981032168,0,-2,0,-2,-1,-2,-2,-3
1513226981032168,-2,-1,-1,-1,-1,-2,-1,-1
1513226981039188,0,-2,-1,-2,0,-2,-1,-1
1513226981039188,-1,-1,1,-1,-2,-1,0,-1
1513226981055685,-2,0,0,-2,-1,-2,-1,-2
1513226981055685,-1,-1,-3,-2,0,-1,-1,-2
1513226981057186,0,0,-1,-1,-1,-3,0,-1
1513226981057186,-2,-1,-3,-1,-1,-2,0,0
1513226981078202,-1,-1,-1,-2,0,-1,-1,-1
1513226981078202,2,-3,-2,0,0,-1,-2,3
1513226981079705,-3,0,-2,0,-2,-2,-1,0
1513226981079705,-2,-2,0,-1,-1,0,0,-2
1513226981092230,-1,-2,-2,-2,-3,-1,-2,-2
1513226981092230,0,-1,-1,-2,-1,0,0,-3
1513226981099218,2,0,-3,-1,-1,1,-1,0
1513226981099218,-2,-4,2,1,1,-1,0,0
1513226981115741,-3,-3,-1,-1,0,0,-1,-1
1513226981115741,0,-1,0,-1,-1,-2,0,-3
1513226981117242,-1,-1,-1,-1,-1,-2,-2,-2
1513226981117242,1,0,-2,-3,0,-1,0,-1
1513226981138245,-1,0,-3,-1,0,-2,-2,0
1513226981138245,-2,-1,-1,0,-1,-2,-2,0
1513226981139744,-2,-2,-1,-3,-1,-1,-1,2
1513226981139744,0,-2,-4,-2,-3,-1,-4,-4
1513226981152257,0,-3,-2,-1,0,2,0,0
1513226981152257,-1,2,-1,-1,0,-1,0,-1
1513226981159285,-1,-1,0,-1,0,-2,-1,-2
1513226981159285,-3,1,1,1,1,-1,-1,-2
1513226981175780,-1,-1,0,1,-3,-1,-1,-2
1513226981175780,-2,-1,-1,0,-4,-2,0,-1
1513226981177281,-1,1,-1,-1,-3,-1,0,0
1513226981177281,0,-1,0,-1,-1,0,0,0
1513226981198285,-4,-1,-1,-1,-1,-2,0,-2
1513226981198285,-1,1,0,-3,0,-2,-1,-1
1513226981199286,-1,-1,-2,0,-1,0,-1,-3
1513226981199286,0,-1,-1,-2,0,0,-3,-1
1513226981220301,2,0,-3,-1,-2,-3,0,-1
1513226981220301,0,-1,-1,-3,0,-1,0,0
1513226981222305,-2,0,-1,-1,1,-2,0,-2
1513226981222305,-1,-1,-3,-2,-1,-1,-2,-2
1513226981235332,-1,-1,-2,-2,-1,-1,0,-1
1513226981235332,-2,-2,-2,-1,-1,-1,0,-2
1513226981237334,1,0,-1,1,-2,-1,-1,-1
1513226981237334,0,-2,-3,-2,-2,-1,-2,1
1513226981257847,-3,-1,1,0,-1,0,-1,-2
1513226981257847,-2,-1,-2,0,-2,0,1,0
1513226981259850,-3,-1,-1,-1,-1,-1,-1,0
1513226981259850,-1,-1,-1,-2,-2,-2,-1,-2
1513226981272339,0,-1,-1,-2,-1,-2,-1,-1
1513226981272339,-1,-1,0,-1,0,-1,-1,-2
1513226981279343,1,-2,-2,-2,-1,-1,0,-1
1513226981279343,0,-3,-1,-1,-1,0,-2,-1
1513226981295354,-2,-2,-1,-2,-1,-1,-2,1
1513226981295354,-3,-1,0,1,-1,1,-2,-1
1513226981297359,2,3,-4,-2,-1,-1,-1,1
1513226981297359,-2,-3,-1,0,-1,-1,-2,-1
1513226981317871,0,0,-1,-2,-1,-1,-1,-1
1513226981317871,-1,-1,-1,-2,-2,-2,0,0
1513226981320873,-2,-2,-1,-1,-2,-2,0,-1
1513226981320873,0,0,-1,-1,-1,-1,-2,-2
1513226981332382,0,-1,-3,-1,0,-1,-1,0
1513226981332382,-1,-2,0,-1,-1,0,-2,-1
1513226981339396,-2,-3,0,-2,-1,-1,-1,-2
1513226981339396,-1,0,-1,-2,0,0,0,-2
1513226981355414,-3,-2,0,-1,0,-1,-1,1
1513226981355414,-2,-1,0,0,0,-2,-1,0
1513226981357398,-2,-1,-2,0,0,-1,-2,-1
1513226981357398,0,-1,0,-1,-3,-2,0,1
1513226981377928,-2,-2,-1,-3,0,-1,0,-1
1513226981377928,1,-1,-3,0,-1,0,-1,0
1513226981379429,-4,-2,0,0,-1,-2,-1,-1
1513226981379429,0,0,-2,-1,-1,-2,-2,0
1513226981392424,1,0,-1,0,-1,-1,-2,-2
1513226981392424,0,-2,0,-1,-2,-2,-2,0
1513226981398928,0,-2,-2,0,-1,-1,-1,-1
1513226981398928,1,1,-3,-4,-2,-2,-1,-2
1513226981415442,-3,0,1,0,-2,-1,-1,-2
1513226981415442,-1,0,-1,-3,0,0,-2,-2
1513226981416940,-1,-1,-1,-2,-2,1,-1,0
1513226981416940,-4,0,0,-1,0,0,1,1
1513226981438482,-1,-2,-3,0,-1,-1,-2,-1
1513226981438482,0,-1,-2,1,-1,-1,1,0
1513226981440457,2,1,1,-2,0,-1,0,0
1513226981440457,0,-1,-2,-1,-2,0,-1,-2
1513226981451470,1,-1,-1,-1,0,-2,0,-3
1513226981451470,-2,-2,-1,-2,0,-1,-1,0
1513226981460485,-4,0,0,-1,0,-1,0,-1
1513226981460485,-2,-1,-2,0,-1,-1,-2,-1
1513226981475493,-3,1,-1,0,-1,-2,0,0
1513226981475493,-2,-1,-2,1,-1,-2,-2,-1
1513226981476994,0,-4,-2,-2,-1,-1,0,-3
1513226981476994,0,-1,-1,-1,-2,-3,-1,0
1513226981497997,0,-1,-2,-1,-2,-2,-3,0
1513226981497997,1,-2,0,-3,0,0,-1,0
1513226981499499,1,-2,-2,-1,-3,0,-1,0
1513226981499499,1,2,-5,-1,-2,-1,-2,-3
1513226981511529,0,-2,-1,-2,-1,-1,0,-1
1513226981511529,-1,-1,-2,-1,-3,-2,-1,-1
1513226981520514,-1,0,-2,0,1,-1,0,-2
1513226981520514,0,-2,-2,-1,1,0,-1,0
1513226981535546,-1,-1,-1,1,0,-1,-2,-1
1513226981535546,0,-2,0,-2,-1,-1,-2,-2
1513226981537030,-2,-3,0,0,-2,-2,-2,-1
1513226981537030,-1,-2,-2,0,-2,-2,1,1
1513226981558543,-2,0,0,-1,0,0,-2,-1
1513226981558543,-2,-1,1,-2,-2,-1,-1,0
1513226981564045,0,-2,-2,-2,-3,-2,-1,-2
1513226981564045,-2,-2,2,-1,-1,-1,-1,-1
1513226981571549,-1,2,-1,-1,-2,-2,-1,-1
1513226981571549,0,0,0,-1,-2,-2,-2,-1
1513226981580557,-1,1,-2,-1,-2,0,-1,0
1513226981580557,-2,-2,0,-2,-1,-1,-1,0
1513226981596089,1,-3,0,-2,-1,-2,0,-2
1513226981596089,-2,0,-2,-2,0,-4,1,-2
1513226981601593,1,0,-1,-1,1,-1,-2,-1
1513226981601593,-1,-1,1,1,0,0,1,-1
1513226981618099,0,-1,-1,0,-2,-3,0,-1
1513226981618099,0,-2,-1,1,-1,0,-2,0
1513226981620584,0,-2,-1,-1,-1,-1,-1,-2
1513226981620584,0,2,-3,-2,-2,-3,-3,-3
1513226981631593,-1,-3,-1,-1,1,-2,-1,0
1513226981631593,-2,-1,0,0,0,-1,-1,-1
1513226981646604,-1,-2,-1,-1,0,-1,-1,-1
1513226981646604,-1,-1,1,-1,-1,-1,-1,0
1513226981655632,0,0,0,-1,-3,-1,0,0
1513226981655632,-1,-1,-1,1,-1,0,0,-1
1513226981657134,0,-1,-1,-1,0,-1,0,0
1513226981657134,-2,-2,-2,-2,0,-1,-1,-1
1513226981678156,-2,-2,-2,-2,-1,0,0,-1
1513226981678156,-1,-1,-2,-1,-1,1,0,-1
1513226981679625,0,-1,0,0,-1,-2,-1,-2
1513226981679625,0,-2,0,0,0,1,-2,1
1513226981700641,0,-1,0,-2,-2,1,-1,1
1513226981700641,0,-1,-2,-2,0,1,-1,0
1513226981702144,-2,0,-1,-2,-1,-1,0,0
1513226981702144,-1,-1,-1,-1,-1,0,0,-3
1513226981715652,0,-1,-1,0,-1,-1,-1,-1
1513226981715652,-1,-1,-2,-1,-3,-3,0,-1
1513226981717153,1,3,-4,-1,-2,-1,-2,-2
1513226981717153,-2,-3,0,-1,-2,0,-1,-2
1513226981738189,-1,-3,-2,-2,-1,-3,-2,-3
1513226981738189,-1,-2,-1,-1,-1,0,-1,-1
1513226981739690,-2,0,-3,-1,-1,0,-1,0
1513226981739690,-2,-3,-3,-1,-1,-1,-1,-1
1513226981768191,-1,0,-1,0,-1,0,-1,-1
1513226981768191,1,-2,0,-1,-1,-2,-2,-1
1513226981769690,-3,-2,3,0,0,-1,0,0
1513226981769690,0,-2,0,0,-1,-2,0,1
1513226981775695,-3,-5,0,-2,-1,-2,-1,-1
1513226981775695,0,0,-1,-2,-2,-1,1,0
1513226981777199,-1,0,-1,0,-1,-1,-2,0
1513226981777199,0,1,0,-1,-2,0,-2,-3
1513226981798220,-3,1,-2,-1,-1,-1,-1,-1
1513226981798220,0,0,0,-2,-1,-1,-2,-1
1513226981799721,-1,-2,-2,-1,-2,0,0,-1
1513226981799721,-2,-1,-2,1,-1,-1,-1,-1
1513226981811730,0,-1,-1,-2,-2,0,-2,-1
1513226981811730,-2,1,-1,-2,-1,0,-2,-1
1513226981821736,-2,-2,-1,-1,-2,0,-1,-1
1513226981821736,-1,0,-3,-2,-1,-1,0,-2
1513226981835745,1,-3,0,0,0,-1,0,-1
1513226981835745,-1,-2,-2,1,-2,-1,1,0
1513226981837255,-2,-1,0,-2,0,-4,-2,-2
1513226981837255,-1,-1,-2,-2,-1,0,1,-3
1513226981857754,0,1,0,-2,-1,-3,0,-3
1513226981857754,-2,-1,-2,1,1,-1,0,-1
1513226981859753,-1,-2,-2,-1,-2,1,-1,-1
1513226981859753,-1,-3,-2,-1,-1,-1,0,-1
1513226981880784,-1,-1,-2,0,0,0,-1,-1
1513226981880784,0,-2,-2,0,-2,-2,-1,-1
1513226981882279,-1,-1,0,0,-2,-1,0,-2
1513226981882279,-2,-1,0,-1,-1,0,0,0
1513226981895281,-2,-1,-1,-1,0,1,-1,0
1513226981895281,-3,-1,0,-1,0,-1,-2,-2
1513226981897280,-2,0,-2,0,-1,-2,1,0
1513226981897280,-1,-3,0,-1,-2,-3,-3,-1
1513226981918315,-1,0,-2,0,-1,0,-1,-1
1513226981918315,1,-2,-1,-2,1,0,-3,0
1513226981920796,0,2,-3,-3,0,-2,-2,-3
1513226981920796,-2,0,0,-1,-2,0,-1,0
1513226981940310,0,0,-1,-1,-2,-3,0,1
1513226981940310,0,-2,0,-1,-1,-2,-2,0
1513226981942311,0,-1,-3,-2,0,-1,-1,0
1513226981942311,-2,-1,-3,-1,-2,-2,-1,-1
1513226981954334,-1,-2,1,0,1,0,0,1
1513226981954334,-1,1,-2,-1,-3,0,-1,-1
1513226981963327,-2,-1,0,0,-1,-1,-1,0
1513226981963327,-2,-1,0,-3,-1,-2,0,0
1513226981977838,-1,-2,-1,-2,0,0,0,0
1513226981977838,0,-3,-1,-2,-1,-1,0,0
1513226981979858,-2,-2,0,0,-1,0,0,-2
1513226981979858,-1,0,-2,-2,0,1,-2,-2
1513226982000353,-2,0,-3,-1,-1,-1,-2,-4
1513226982000353,-2,1,0,-1,-1,-1,-1,-3
1513226982002354,-2,-1,-1,-1,-2,0,-4,0
1513226982002354,0,0,-1,-2,-1,0,-3,1
1513226982014873,-1,-1,-1,0,-2,-1,-1,-1
1513226982014873,-2,-2,-1,-1,-2,-1,1,-2
1513226982029384,-4,-6,1,0,-3,-1,0,-1
1513226982029384,-1,-2,-1,-1,-3,-1,0,1
1513226982037879,-2,1,-1,-2,-1,-3,-2,-2
1513226982037879,1,0,-1,-2,-1,0,-2,-1
1513226982039880,1,-1,-1,-2,-1,-1,-1,-1
1513226982039880,-1,-1,-2,-1,0,-1,-2,-2
1513226982067927,-1,0,-2,-2,-3,1,-3,0
1513226982067927,-2,0,0,-1,-2,-1,-2,0
1513226982069401,0,-1,-1,-1,0,-2,0,-1
1513226982069401,-2,-2,-1,0,-2,-3,-1,-2
1513226982074917,-1,-2,-2,-1,-2,-2,0,-3
1513226982074917,-2,-1,-1,0,-2,-2,2,-4
1513226982088926,-1,2,-2,-1,-1,-2,0,-1
1513226982088926,-2,-2,-2,0,0,0,0,0
1513226982097921,-2,-2,-1,-1,-1,0,-2,-1
1513226982097921,1,-1,-3,0,0,-3,-3,-1
1513226982099425,0,0,-1,-2,-2,-3,-1,-1
1513226982099425,-1,-1,-1,-1,-1,0,0,-1
1513226982120938,-1,-2,0,-1,-1,-1,-1,0
1513226982120938,0,0,-2,-1,0,-1,0,-1
1513226982122439,1,0,-1,-1,0,-2,-2,-2
1513226982122439,2,1,-3,-1,-1,-2,-2,-1
1513226982134947,0,0,-1,-2,-2,0,-2,-1
1513226982134947,-1,-2,0,-1,-1,0,-1,0
1513226982148957,0,-1,-4,0,-2,0,-1,0
1513226982148957,-3,0,0,-1,-1,-2,-1,-3
1513226982157973,-2,-1,0,0,1,0,0,-3
1513226982157973,-1,0,-1,-1,-1,-1,-1,-2
1513226982159465,-2,0,-3,0,1,0,-1,-1
1513226982159465,-1,-2,0,-2,-1,-1,0,-2
1513226982180538,-1,-2,-1,1,0,-3,-1,-1
1513226982180538,-1,-2,-1,-3,-1,-1,0,-1
1513226982182020,-3,-1,0,-3,-1,-2,0,2
1513226982182020,-1,-2,-1,1,-2,0,-3,-1
1513226982194547,0,-1,-1,-3,-1,-1,-1,-2
1513226982194547,-2,-1,-1,-2,-1,-1,-1,-1
1513226982203029,-1,-2,-2,0,-3,-1,-1,-2
1513226982203029,0,0,-2,-3,-2,-1,0,0
1513226982218063,1,-2,-2,0,-2,-1,0,-2
1513226982218063,1,3,-4,-1,-1,1,-2,-2
1513226982220542,-1,-3,0,-1,-2,-1,0,-2
1513226982220542,-1,0,-1,-1,1,-2,-2,-1
1513226982241074,-1,1,-2,0,0,-1,-1,0
1513226982241074,-2,-2,-1,-1,-1,-2,-2,1
1513226982242566,-1,-2,0,-1,-1,-1,-1,-2
1513226982242566,-3,-2,0,0,-1,-1,0,-1
1513226982255093,-1,0,0,0,-1,-1,-1,0
1513226982255093,-1,-2,-1,0,0,-3,-2,0
1513226982261639,-2,0,-2,-4,0,0,-2,-3
1513226982261639,-1,-3,0,-1,-3,-1,-1,-1
1513226982278131,-2,-1,-2,-2,0,0,-1,-1
1513226982278131,-3,0,-1,0,0,-3,0,0
1513226982279645,0,-1,1,-2,0,-1,0,0
1513226982279645,-1,-1,-1,-1,-2,0,-2,-1
1513226982300645,-1,0,0,-2,-2,-1,-2,-1
1513226982300645,-2,-3,-1,-1,0,0,-1,0
1513226982302146,-1,-1,-1,-1,-2,-1,0,-2
1513226982302146,0,0,-1,-1,0,-1,0,-1
1513226982315154,-1,-2,-1,-2,-2,-2,-1,-2
1513226982315154,-2,-2,0,-1,-2,1,0,-1
1513226982323160,-1,0,-3,0,-1,-4,-3,-1
1513226982323160,1,-1,-1,0,-1,-2,-1,-3
1513226982337170,-1,-1,-1,-1,-1,-2,0,-1
1513226982337170,0,2,-2,-1,-2,0,-2,-2
1513226982345676,-3,-1,0,-2,0,0,-1,-1
1513226982345676,0,-1,-1,-2,-1,0,-2,0
1513226982360689,-2,0,-2,-2,0,0,-1,-1
1513226982360689,-1,-2,-1,1,-1,0,-1,-2
1513226982362689,-2,0,-2,0,-2,-2,-2,2
1513226982362689,-3,-1,1,-3,0,-1,-2,-2
1513226982374196,-1,-2,0,-1,0,-2,-1,0
1513226982374196,-1,0,0,-3,-1,-2,-1,0
1513226982383206,-1,-2,0,-1,-1,0,0,-1
1513226982383206,0,-1,-1,-2,1,-1,0,-2
1513226982398714,-1,-2,-2,-2,0,-1,-1,-1
1513226982398714,-1,-1,0,0,-1,-2,-1,-3
1513226982400215,-2,-1,-3,1,-2,0,-2,-3
1513226982400215,-3,-1,-1,0,-2,-2,-1,-1
1513226982420740,-2,0,0,-1,-1,0,-1,-2
1513226982420740,-1,-1,-2,-1,-1,-1,-1,0
1513226982422240,-1,1,-2,-1,0,-2,0,0
1513226982422240,2,-2,-4,-2,-1,0,-2,0
1513226982434248,-5,-8,1,1,-1,0,0,0
1513226982434248,-2,-2,-1,0,-1,-2,-1,0
1513226982443261,0,-2,-2,-2,-1,-2,0,-2
1513226982443261,-1,-2,-2,-2,0,-2,-1,-2
1513226982457255,-1,3,1,-2,-1,0,-1,0
1513226982457255,-1,0,-2,-1,-1,0,-2,0
1513226982471765,-2,-3,1,-1,0,-2,0,0
1513226982471765,0,-1,-1,0,0,-1,1,0
1513226982480271,0,-2,-2,-2,-2,-2,0,-2
