timestamp,emg1,emg2,emg3,emg4,emg5,emg6,emg7,emg8
1514948384792769,-4,2,0,1,0,-1,-2,-3
1514948384792769,2,2,-3,0,-3,0,-1,-4
1514948384793773,0,-3,-3,-4,-3,-1,-3,-3
1514948384793773,-3,2,1,-1,0,-1,1,3
1514948384814781,-1,1,-3,-3,-1,-1,2,-1
1514948384814781,2,2,4,2,-1,0,-3,-4
1514948384815782,1,3,1,-1,1,-2,1,-3
1514948384815782,0,-2,-3,-2,-2,0,-1,1
1514948384828797,1,-4,0,-4,-2,-1,1,-2
1514948384828797,-3,-4,3,0,0,-3,-1,0
1514948384838807,-3,-1,0,0,0,0,1,2
1514948384838807,2,-4,-5,1,-1,-3,-3,-1
1514948384851808,-3,2,-1,0,-2,-2,-3,-3
1514948384851808,-1,-2,-2,1,-1,0,2,-2
1514948384853809,1,-3,0,-3,0,-1,-1,-2
1514948384853809,-2,2,-4,-4,1,0,0,0
1514948384874827,0,2,0,1,1,2,1,0
1514948384874827,-3,-7,-1,1,-2,0,-2,-3
1514948384876827,-1,-2,-2,-1,-2,-2,-3,1
1514948384876827,-2,1,-4,-2,1,-3,0,-1
1514948384887842,2,-1,-2,0,-4,-2,-3,-2
1514948384887842,-2,-3,-1,-1,-1,-1,0,1
1514948384898841,-2,1,0,-1,-1,0,-2,0
1514948384898841,-2,-3,-1,-3,0,-2,-3,-2
1514948384911855,-1,-2,1,-2,-2,-1,0,1
1514948384911855,-3,1,-1,2,-2,0,-1,-2
1514948384913852,2,-1,-5,0,0,-1,-1,1
1514948384913852,-2,-3,0,-2,-1,-1,-1,-2
1514948384934870,-4,-4,-1,1,0,-1,-1,-1
1514948384934870,3,-1,-1,-3,-2,-1,1,-1
1514948384938872,-3,1,1,0,-2,-3,0,0
1514948384938872,-2,2,-1,-2,0,3,-1,-2
1514948384947876,-1,-3,-3,-1,-1,-2,-3,-1
1514948384947876,-1,-1,-4,-2,-1,-1,-2,-3
1514948384957884,-5,-3,-2,-2,0,-2,-3,-2
1514948384957884,3,-1,0,-2,0,-1,2,-2
1514948384971895,-3,-3,-2,-1,0,1,-1,4
1514948384971895,0,0,-1,1,-2,-3,-1,-2
1514948384973896,1,-1,1,-1,-1,0,-2,-1
1514948384973896,-2,-5,0,-2,-1,-2,-1,2
1514948384995910,-1,-2,-1,-2,-2,-1,1,-1
1514948384995910,2,1,1,0,1,0,-3,1
1514948384998912,0,-3,-3,0,-2,-4,-1,-2
1514948384998912,-3,1,-1,0,-3,-2,-3,1
1514948385007918,1,2,-1,-1,1,-1,2,-1
1514948385007918,-1,1,-2,-1,-2,2,-2,-1
1514948385016924,-3,0,0,-2,-2,1,0,-2
1514948385016924,2,0,-4,0,-1,-2,0,-3
1514948385032935,0,0,0,-4,-3,-2,-1,-2
1514948385032935,-3,0,-3,-2,0,0,3,1
1514948385034959,-1,-3,-1,-2,1,0,0,-2
1514948385034959,2,0,0,-2,-1,-1,1,4
1514948385054965,-5,2,-3,1,-2,-3,-1,1
1514948385054965,1,-2,-2,2,0,-1,-1,0
1514948385055952,2,-4,0,0,-3,-3,-4,-3
1514948385055952,0,1,0,0,0,-2,-1,0
1514948385076980,1,-4,-1,-1,-1,-1,-3,-5
1514948385076980,0,-1,-1,0,-3,-1,-2,0
1514948385078981,-1,2,-1,-2,-1,0,0,-2
1514948385078981,-4,-1,2,-3,-4,-2,-5,0
1514948385091977,-1,-4,-2,1,-1,-2,-1,-3
1514948385091977,-3,2,1,-1,-3,1,-2,-1
1514948385093979,0,-2,0,0,-3,-2,1,-1
1514948385093979,-3,-1,-2,-1,0,-2,-2,1
1514948385115017,0,-1,-1,3,0,0,-1,-3
1514948385115017,-2,-1,-1,-1,-1,-2,2,-1
1514948385116004,-4,1,-2,-1,-1,-1,-4,0
1514948385116004,2,-2,-2,0,-1,-1,-3,-3
1514948385137024,-1,3,2,-4,-1,-2,0,-1
1514948385137024,1,-2,-1,0,1,-1,0,-4
1514948385139010,-2,0,1,0,-3,-1,1,-3
1514948385139010,-3,-1,0,0,1,0,-3,-3
1514948385153033,-1,-2,-4,-2,-2,-1,-3,-3
1514948385153033,-3,-1,0,0,-2,0,2,0
1514948385154023,-1,-2,-3,0,-1,0,0,-1
1514948385154023,1,1,-1,-2,1,-1,1,0
1514948385175046,0,-1,0,-1,0,-1,0,0
1514948385175046,-3,0,0,-2,-4,-1,0,-1
1514948385176037,0,1,0,-1,-3,-1,-1,-2
1514948385176037,-1,0,-2,-3,-2,-1,-2,1
1514948385197064,0,-3,0,-4,-1,-3,0,0
1514948385197064,1,0,1,-1,1,-2,2,0
1514948385199053,2,2,0,1,0,1,-1,-3
1514948385199053,-1,-2,-3,-1,-2,0,-1,-1
1514948385211061,-2,0,0,-1,-3,1,-2,-2
1514948385211061,0,-2,-2,-1,-2,0,-1,-2
1514948385218087,-4,0,-3,-2,0,-1,1,0
1514948385218087,-1,-4,-2,-2,-1,-3,2,-3
1514948385234078,-3,-3,0,-1,-3,1,-5,2
1514948385234078,0,0,1,0,-3,0,-6,0
1514948385236079,-3,-3,1,-1,-3,-2,-1,-1
1514948385236079,-5,0,-4,-2,0,0,0,0
1514948385257094,3,-3,1,0,-2,0,3,-1
1514948385257094,0,1,2,-2,1,-2,-1,-1
1514948385259098,3,-3,-5,-2,-1,-1,-2,-3
1514948385259098,2,-4,-1,-2,2,1,0,-1
1514948385271117,-1,-2,-2,-2,0,-2,1,0
1514948385271117,-3,0,-4,0,-2,-1,-4,-1
1514948385278110,0,-3,-1,-1,2,-2,-2,2
1514948385278110,-1,1,-1,-1,-2,-2,-2,-2
1514948385296134,-1,5,-3,0,1,-1,-4,0
1514948385296134,-1,-5,1,0,-2,-1,-4,0
1514948385299124,-3,0,0,-2,-1,0,0,-1
1514948385299124,-1,-3,-2,-1,0,-2,-2,0
1514948385317160,0,-2,-1,-3,-1,-3,1,-1
1514948385317160,-1,-1,-1,-1,-1,-3,0,0
1514948385318138,3,0,0,1,-2,0,-2,-3
1514948385318138,1,3,0,-2,-1,0,2,1
1514948385332147,0,-2,-4,0,-2,0,-1,1
1514948385332147,-2,-2,-4,0,-2,-1,0,-1
1514948385338153,1,-3,3,-1,-3,0,-3,-3
1514948385338153,0,-2,-3,0,-1,-3,-3,-1
1514948385355163,1,-3,-3,0,-1,-1,0,1
1514948385355163,-2,0,0,-1,-2,0,0,-2
1514948385356164,-4,-3,-1,-1,-2,0,1,1
1514948385356164,-3,-4,-1,-3,-1,-2,-3,-3
1514948385377179,0,-2,-3,-2,-1,-1,1,0
1514948385377179,0,1,0,-1,-3,1,-4,-2
1514948385379180,1,3,0,-1,0,-2,-2,0
1514948385379180,-1,-2,-2,-3,-1,-1,0,3
1514948385392208,-3,2,1,-1,-1,0,-2,-4
1514948385392208,-1,-1,-1,-1,-4,0,1,-2
1514948385398195,-2,-3,-2,-1,0,2,1,-1
1514948385398195,-4,-2,-1,-1,1,0,-1,-3
1514948385414205,0,1,0,1,-1,-1,1,2
1514948385414205,-1,-1,1,-3,0,-3,1,0
1514948385416213,0,-4,1,0,-4,0,2,0
1514948385416213,-1,-2,-4,-3,0,0,-2,-3
1514948385437221,-6,-3,0,2,-1,-2,-4,-2
1514948385437221,1,-1,0,-1,-1,2,0,-5
1514948385438224,-3,1,-2,-1,1,-2,-1,-5
1514948385438224,1,-1,-3,-3,-1,-3,2,4
1514948385452289,-2,0,-1,-3,2,-1,-2,-2
1514948385452289,0,0,1,-1,-2,-3,1,-1
1514948385459249,1,0,-1,0,0,-2,1,-2
1514948385459249,-1,2,0,-1,-1,0,-1,0
1514948385474248,-3,-7,-3,0,-1,0,-1,0
1514948385474248,-1,-3,-3,-2,0,-2,0,1
1514948385476249,-3,-3,0,3,-2,-3,-1,-3
1514948385476249,0,4,-2,-1,1,-1,-4,2
1514948385497274,1,1,-1,-3,2,-2,0,3
1514948385497274,-3,1,-2,-1,-3,-1,-1,-3
1514948385498274,-1,-2,-1,0,0,-1,-4,-1
1514948385498274,1,-3,-1,-2,-2,-1,-1,0
1514948385511283,0,1,2,0,-1,-2,-1,-1
1514948385511283,0,-4,-4,0,1,1,-1,-3
1514948385518278,-2,3,-1,-3,-2,-3,1,-1
1514948385518278,-3,-4,0,2,0,-2,-2,-1
1514948385535291,2,0,-2,-3,-1,0,-4,-1
1514948385535291,0,0,-2,-2,-2,0,-4,-2
1514948385538295,-2,2,-1,0,0,-1,1,-1
1514948385538295,2,-2,1,-1,-2,0,1,-3
1514948385557318,-1,1,-2,-2,-1,-1,-1,3
1514948385557318,1,-1,-2,0,-2,-1,-2,2
1514948385558319,-1,-1,-1,-1,-4,1,-1,-3
1514948385558319,-1,0,1,-4,0,-4,-1,2
1514948385570325,-1,-1,-2,0,1,-1,0,-3
1514948385570325,-1,-1,-2,-2,0,-1,-2,0
1514948385579332,0,-3,3,0,-4,-1,-1,-1
1514948385579332,-2,0,-1,0,0,-1,-2,-3
1514948385594333,-3,0,-1,-1,-4,2,-2,1
1514948385594333,-5,1,-1,-1,3,-2,-3,-2
1514948385596346,-1,0,-3,1,-2,0,0,-2
1514948385596346,2,-5,-2,-4,-2,-2,-2,-5
1514948385625355,-1,-1,-3,0,0,-5,-3,-2
1514948385625355,-2,0,1,-1,-2,0,-3,-4
1514948385628369,-2,-5,1,0,-2,1,0,1
1514948385628369,1,-2,0,3,-1,-1,1,-1
1514948385630367,0,-3,-1,-1,-1,-2,1,-1
1514948385630367,-2,-3,1,-1,-2,-2,-3,-3
1514948385639364,-1,0,0,-2,-2,-1,-2,-3
1514948385639364,-3,-1,-6,-2,-1,-1,0,1
1514948385654399,0,-2,0,-1,0,-1,-1,0
1514948385654399,0,-4,-1,-1,-1,-2,2,0
1514948385656388,-2,0,-1,0,-3,0,-1,-2
1514948385656388,-2,3,0,-1,-1,-2,-1,1
1514948385677391,-2,-2,0,-2,-1,-3,-1,0
1514948385677391,2,-2,-1,0,1,-2,-1,-1
1514948385678392,-3,-4,0,0,0,-2,-4,0
1514948385678392,-2,-1,0,-1,-1,1,-1,2
1514948385692401,2,-2,-4,-2,1,-1,2,0
1514948385692401,-1,6,0,1,-2,3,-3,1
1514948385699406,0,0,0,-1,2,1,-2,-1
1514948385699406,-2,-4,-1,0,0,-1,0,-1
1514948385723426,-1,-1,0,-4,-1,-2,-1,-2
1514948385723426,-2,-7,-3,-2,-4,-2,2,1
1514948385726428,0,-3,1,0,-2,-2,2,-2
1514948385726428,0,0,-3,-3,2,0,0,-2
1514948385737434,2,-1,-4,0,-1,-1,-1,0
1514948385737434,1,-3,-1,0,-1,0,-1,0
1514948385738435,-2,0,-2,-3,-2,-2,-2,1
1514948385738435,-1,-1,-2,0,-1,-3,-1,-2
1514948385750442,0,0,0,-2,-1,1,-1,1
1514948385750442,0,-3,2,0,-1,0,1,-4
1514948385759449,-1,-4,-4,-2,-1,-1,1,-3
1514948385759449,2,2,-2,0,0,-1,-1,3
1514948385775473,-3,-1,1,-4,-2,-1,2,-2
1514948385775473,-3,-2,-1,2,1,-1,0,1
1514948385780476,-3,2,0,1,-1,2,0,-3
1514948385780476,0,-4,-2,-2,-1,0,-1,-1
1514948385797483,-3,0,-1,1,0,-1,-1,-4
1514948385797483,2,0,-5,-1,-2,-2,-1,-1
1514948385798476,-1,-1,2,0,0,0,-2,0
1514948385798476,-1,-1,-2,-3,-1,-1,0,1
1514948385810485,3,-3,-2,-1,0,0,1,1
1514948385810485,-1,-4,-1,-2,-1,0,0,1
1514948385819504,2,-10,-2,0,-2,-1,-2,0
1514948385819504,-5,1,0,-2,-2,0,1,-4
1514948385849528,-1,-1,1,-3,-1,-1,-2,-4
1514948385849528,1,0,-2,1,-3,-1,2,-1
1514948385852515,1,2,-1,1,0,-3,2,-1
1514948385852515,-4,-3,-1,-1,0,-4,-1,1
1514948385856518,-1,-2,-1,-2,-3,-2,-2,-1
1514948385856518,-2,0,-1,-1,-2,1,-3,-3
1514948385858520,-1,0,-2,-1,-1,-3,-2,-2
1514948385858520,1,1,3,-4,-4,-1,-3,1
1514948385870529,-3,0,-1,0,1,1,-2,0
1514948385870529,-2,1,-2,0,-2,-1,-2,-3
1514948385885538,-3,-2,-3,-1,-1,0,-1,3
1514948385885538,0,-3,0,-1,-1,-2,-1,-4
1514948385895547,1,-1,-2,-4,-2,-2,-3,1
1514948385895547,-3,-1,-1,0,0,-2,0,-1
1514948385898549,-2,-2,1,-1,-1,-1,-2,-5
1514948385898549,-3,0,2,-2,-2,-3,0,0
1514948385916570,-3,1,-4,3,-1,-3,2,0
1514948385916570,-2,-2,0,-2,0,-1,-3,-1
1514948385918561,-1,0,-4,0,-1,-2,1,-2
1514948385918561,1,2,-1,0,1,0,0,0
1514948385930580,-5,-3,0,-1,-3,-1,0,-1
1514948385930580,-2,2,-1,-1,0,-2,-2,0
1514948385939577,0,0,-1,-3,-4,-1,-1,3
1514948385939577,-3,-4,-2,-4,3,-1,-1,-1
1514948385955592,-1,-5,0,0,-1,-1,-3,-2
1514948385955592,2,0,0,-2,0,-1,1,0
1514948385959590,0,-1,-2,-1,-5,1,-3,-5
1514948385959590,0,-1,-1,-2,0,-2,3,0
1514948385976612,-1,-2,1,-2,-3,0,1,-5
1514948385976612,1,-3,0,1,0,-1,0,-3
1514948385978603,1,2,0,-2,1,-3,1,0
1514948385978603,-2,-4,-2,0,-4,-3,-1,-1
1514948385999619,-4,-2,1,0,-1,-2,-3,-1
1514948385999619,-2,1,-3,-2,-2,-1,2,1
1514948386000619,-2,-3,-1,1,-2,-1,-2,1
1514948386000619,-1,-1,-1,-2,0,0,0,-1
1514948386014629,-1,-2,-1,0,0,-1,-1,0
1514948386014629,0,-2,-2,-2,-1,1,1,-3
1514948386016631,-2,-1,1,1,0,-2,-1,-1
1514948386016631,1,-1,-1,0,-1,0,-3,-1
1514948386038649,-3,0,-1,-1,-2,-1,1,-1
1514948386038649,1,-2,0,-1,1,-1,-2,-1
1514948386041649,-2,-1,-3,-2,0,1,-2,1
1514948386041649,-3,0,-1,0,-2,-2,2,0
1514948386059673,0,0,-3,-3,-2,-2,1,1
1514948386059673,-3,1,1,-1,-3,0,-4,1
1514948386061663,-1,0,-2,-1,1,-1,2,1
1514948386061663,2,0,2,2,-1,0,-3,-4
1514948386074672,2,2,-2,-3,1,1,-2,-1
1514948386074672,-1,-1,-1,1,-2,-5,-2,-4
1514948386076673,0,0,0,0,-1,0,-2,2
1514948386076673,-1,0,0,0,-1,0,-4,-2
1514948386096687,-2,-1,0,0,-1,-3,-1,-3
1514948386096687,-2,-4,-1,-5,0,0,-1,0
1514948386098688,1,0,-3,-2,-1,-3,-4,-3
1514948386098688,0,-1,-2,-3,0,-1,1,0
1514948386119705,0,-3,0,-2,0,-1,-5,0
1514948386119705,-4,2,-1,-1,-2,-1,1,-2
1514948386122707,0,-2,0,-2,-2,0,-2,-2
1514948386122707,-1,-3,-3,0,-1,-1,-1,1
1514948386134715,-3,-2,1,1,-1,-1,2,-4
1514948386134715,1,0,1,2,-2,1,0,-2
1514948386135715,-1,1,2,-2,0,-2,-2,-1
1514948386135715,1,1,-2,-1,-2,1,-5,-1
1514948386157730,-2,0,-1,-1,-1,-2,-4,-2
1514948386157730,0,-3,-1,0,0,-1,0,0
1514948386158731,-5,-2,-2,2,-1,1,3,-3
1514948386158731,0,2,-2,0,-2,-2,-2,-3
1514948386179746,0,1,2,-2,-1,1,1,-4
1514948386179746,0,0,-2,-3,-4,-2,-3,-1
1514948386180746,0,-1,-3,-1,1,-2,-1,4
1514948386180746,-3,3,-3,-4,-2,-1,0,-1
1514948386194757,1,-2,0,2,-4,-1,-3,-4
1514948386194757,0,-3,0,1,-2,-1,1,3
1514948386200761,2,-4,0,-3,1,-3,2,-2
1514948386200761,-1,-3,1,-2,0,-2,-2,0
1514948386216775,-2,1,-2,-1,-1,-3,-1,-1
1514948386216775,1,0,0,-2,1,-2,-3,-2
1514948386218773,1,-4,-3,-1,-1,1,2,-2
1514948386218773,-4,-1,1,-2,-1,-1,-1,1
1514948386239788,0,-2,-2,-1,0,0,-1,-1
1514948386239788,-1,-1,-1,-1,-1,0,-2,0
1514948386240789,-3,-1,-2,0,-1,-2,-2,0
1514948386240789,1,-2,-3,-1,-1,0,-1,-2
1514948386253798,-1,-2,-1,-4,-4,-1,2,-1
1514948386253798,1,0,-1,-1,-1,0,2,-5
1514948386260804,1,-2,-1,-3,-2,-3,-2,4
1514948386260804,-3,1,1,0,0,-3,0,-4
1514948386276814,0,0,0,-2,-1,-1,-1,3
1514948386276814,1,-1,0,-1,-2,-2,1,-2
1514948386278816,-1,-1,1,-3,-1,1,-2,-4
1514948386278816,0,-4,0,-1,0,1,0,0
1514948386299831,-2,-1,-3,0,1,-1,-2,-3
1514948386299831,-4,0,-1,0,-1,-1,1,-4
1514948386300831,-3,3,0,0,-2,-2,-4,0
1514948386300831,0,-1,0,-2,-2,-3,2,-1
1514948386313841,-3,-1,-3,0,-2,1,-1,0
1514948386313841,-2,0,-2,0,-2,-3,1,2
1514948386320863,-2,-1,-2,-2,2,-2,1,1
1514948386320863,-1,-3,-2,-1,0,-1,-3,-2
1514948386337858,-1,1,-1,-2,-2,-2,-1,-4
1514948386337858,-2,-3,0,0,-2,1,-2,0
1514948386340860,1,3,-1,-1,-1,-1,-2,0
1514948386340860,0,-3,-1,-2,0,-1,-1,-2
1514948386359887,-1,0,2,0,0,-1,-1,-4
1514948386359887,-1,-3,-2,-1,-2,-1,-1,-3
1514948386360893,0,-1,-6,-2,-2,-2,0,-3
1514948386360893,-1,1,-1,-2,-1,-3,1,-1
1514948386373893,-1,-7,-1,-1,-2,-1,1,-1
1514948386373893,0,-4,1,1,1,-2,-2,-1
1514948386380898,-1,0,0,0,-3,-3,2,0
1514948386380898,-3,-5,-1,0,-1,-1,-1,-1
1514948386396901,1,0,0,1,-1,1,-3,0
1514948386396901,-2,-1,-2,0,-2,-4,-4,-2
1514948386398902,0,1,-2,-2,-1,-1,-2,0
1514948386398902,0,2,-2,-3,-3,-1,0,-2
1514948386419924,-5,-4,-1,-3,-1,-1,-1,0
1514948386419924,-1,-3,-2,0,-2,-1,-2,-1
1514948386421919,-1,-2,1,-2,0,-1,-1,-1
1514948386421919,-2,1,-1,0,-2,-1,1,2
1514948386433926,1,0,-2,0,0,-2,-2,-4
1514948386433926,-1,-1,-3,0,-1,-1,-1,0
1514948386440931,1,1,-3,-3,-1,-2,-1,0
1514948386440931,-2,0,2,0,0,-1,0,0
1514948386456942,-2,2,0,2,-1,0,2,0
1514948386456942,-3,1,-3,-3,0,0,1,0
1514948386458943,-3,0,-2,-1,-1,0,-1,2
1514948386458943,2,-5,-4,-2,0,1,-2,1
1514948386479959,0,-1,-2,0,-3,-1,-2,-1
1514948386479959,1,0,-1,-2,0,1,-1,-1
1514948386480960,-3,-3,-1,-2,-1,-3,-5,1
1514948386480960,-5,-4,-3,-1,0,-2,-2,-3
1514948386493968,0,1,1,-1,0,-1,-1,-2
1514948386493968,2,0,2,-1,-2,-1,-2,-2
1514948386501980,3,-2,-3,-3,0,-3,2,1
1514948386501980,-4,0,0,0,-1,-1,-2,-2
1514948386517002,0,-3,0,0,0,1,2,-2
1514948386517002,-1,0,-1,-2,-2,1,1,-2
1514948386518987,-2,-2,1,-1,0,-3,-1,0
1514948386518987,-1,-2,2,-4,-1,-3,-3,1
1514948386540002,-4,-1,-1,0,-1,-2,0,-2
1514948386540002,0,-1,-3,1,-2,1,-3,-1
1514948386541002,1,2,-4,-2,0,-1,-2,-1
1514948386541002,3,3,-1,-1,-2,-1,0,-1
1514948386553022,0,-2,2,-2,-1,0,1,-1
1514948386553022,0,-2,-3,-2,0,-2,3,1
1514948386562016,-4,-1,-3,0,1,-1,-1,-2
1514948386562016,-1,-3,0,-1,1,-2,-2,-1
1514948386577028,0,1,0,0,-2,0,-3,-3
1514948386577028,-4,1,3,1,-1,-3,0,-2
1514948386579030,0,-5,0,-2,-2,-1,2,-2
1514948386579030,0,1,-2,-1,-1,-2,2,-1
1514948386599043,0,-5,-1,-2,-1,1,-1,0
1514948386599043,0,-6,0,1,-2,-2,-3,-2
1514948386601044,0,-2,-1,-1,-3,0,-2,-1
1514948386601044,-2,0,2,1,-1,-1,1,0
1514948386613052,-2,1,-2,-2,-1,0,-1,-2
1514948386613052,-1,0,-1,-1,-1,-1,-3,1
1514948386622072,-1,2,-2,-1,0,-3,0,2
1514948386622072,-1,-1,-2,-2,0,1,0,-2
1514948386638075,0,-3,-2,0,-1,0,4,-3
1514948386638075,-1,1,0,-3,0,0,0,-3
1514948386641072,-1,4,-6,-2,2,-2,0,1
1514948386641072,1,-2,-3,0,-2,-1,-1,0
1514948386659084,0,-3,-2,-1,-2,1,-4,-2
1514948386659084,1,2,2,-1,0,0,3,-1
1514948386661086,1,-1,1,-3,0,0,-2,-2
1514948386661086,2,-1,-2,0,-3,-1,-2,0
1514948386673095,1,2,1,1,-2,-4,-1,-3
1514948386673095,-2,0,-1,1,-3,-1,-1,0
1514948386684102,0,-4,0,-2,2,-2,-1,3
1514948386684102,-1,-2,-3,-2,0,-1,2,3
1514948386697122,-3,-2,3,0,-2,-1,-5,0
1514948386697122,-4,1,-2,0,-2,-1,-3,-3
1514948386698122,-2,-3,1,-1,0,-2,2,0
1514948386698122,1,-4,-1,-2,0,0,-5,-4
1514948386719184,-1,-3,-1,-3,-3,0,0,0
1514948386719184,-3,1,-2,3,-1,-1,-2,-2
1514948386721138,-3,0,-1,1,-1,-1,0,-4
1514948386721138,0,-3,0,-1,-2,0,-2,-2
1514948386733147,-4,3,-3,-2,-1,-2,-1,2
1514948386733147,-1,-1,1,-1,-1,-1,-1,-3
1514948386742151,-1,-1,-7,-3,-2,-2,-1,1
1514948386742151,-2,3,0,1,-1,-3,0,-1
1514948386757154,0,1,-2,-2,-2,-1,-1,-1
1514948386757154,0,-5,-2,-2,-2,1,3,-3
1514948386758155,-1,-1,0,-2,-2,0,-3,-2
1514948386758155,-3,1,-2,-2,-2,-1,-1,-2
1514948386779182,3,-3,0,1,2,0,1,-1
1514948386779182,1,-3,0,-2,-1,-3,-3,1
1514948386781179,-1,-5,-1,-3,-3,-1,-1,-1
1514948386781179,-3,-1,-1,-2,0,-1,-1,-3
1514948386794192,-2,-1,0,0,-1,0,-1,0
1514948386794192,-2,-4,1,-2,-1,-1,-1,-1
1514948386802186,-1,1,-3,-1,0,-3,-2,-2
1514948386802186,1,0,-1,-2,-1,-2,-1,-1
1514948386817253,-3,0,-4,3,-2,1,4,-4
1514948386817253,-4,1,0,0,-2,-1,-1,1
1514948386818232,-1,0,-1,-2,0,-2,0,2
1514948386818232,-6,-4,-3,-1,0,-2,-2,-1
1514948386839224,2,-4,-1,1,-1,-1,-2,-1
1514948386839224,1,0,-5,-3,-1,0,0,-1
1514948386841217,-1,-1,-1,-3,1,-1,-1,0
1514948386841217,2,-3,1,0,0,-2,-4,-1
1514948386853247,2,3,-3,-2,-1,-1,1,4
1514948386853247,-4,-4,-1,-2,-1,1,-5,-2
1514948386862228,0,-4,-1,-2,1,1,-2,0
1514948386862228,0,-2,-3,-1,-2,-2,-2,1
1514948386877248,-5,-3,-1,-2,-1,-2,-1,-3
1514948386877248,-2,1,1,1,-2,0,-1,-2
1514948386878250,-2,2,-1,-2,-2,0,2,0
1514948386878250,-2,-4,-2,-4,-1,-1,0,2
1514948386899264,-1,-5,-1,-4,-1,1,0,-1
1514948386899264,-1,-1,-1,-2,-2,-1,-2,-3
1514948386901266,-3,-4,-1,2,-2,-3,-1,2
1514948386901266,-2,0,0,-2,-2,-2,1,0
1514948386913264,-3,0,0,0,-1,-5,-1,-4
1514948386913264,2,-1,-3,-1,-3,0,0,1
1514948386924282,2,-4,3,-1,0,0,-2,-1
1514948386924282,-2,1,-1,0,-2,-1,1,-3
1514948386937281,3,1,3,1,-1,-3,-1,-2
1514948386937281,0,-2,-1,0,2,-1,2,2
1514948386943285,-1,-1,-2,-3,-1,0,-4,0
1514948386943285,3,-3,-4,-3,-1,-2,-2,0
1514948386959304,-3,-3,-2,2,-2,0,-4,-3
1514948386959304,-5,2,0,-1,1,-3,0,-1
1514948386961311,2,-3,-2,1,-1,-2,-1,-3
1514948386961311,-3,0,1,-1,-2,-1,1,-4
1514948386982376,1,-3,-1,0,-1,0,-1,-4
1514948386982376,0,1,-3,-2,-3,-1,0,-1
1514948386985379,-2,-2,0,-3,-1,1,-3,-2
1514948386985379,-1,0,-1,-2,-1,-1,-1,0
1514948386996386,0,-1,1,-1,-1,0,1,2
1514948386996386,-1,-4,1,1,-2,0,-1,0
1514948387003403,1,1,0,-4,0,-3,1,-3
1514948387003403,2,-2,0,-2,-1,-2,-2,-1
1514948387019424,-2,-2,-2,-2,-3,-1,-5,-1
1514948387019424,0,-1,0,0,-2,-1,-1,-1
1514948387023415,1,0,-2,0,-2,0,-1,2
1514948387023415,0,-1,0,0,-1,0,-2,-3
1514948387042431,-1,-1,-6,0,-2,-1,1,1
1514948387042431,-5,-1,-1,-4,-1,0,2,-3
1514948387043420,-3,-4,1,0,-3,-3,-2,-1
1514948387043420,-4,0,-1,-1,0,-1,0,-2
1514948387057439,-2,-3,0,0,-2,-1,-1,-2
1514948387057439,1,-1,-2,3,-2,-1,-5,-2
1514948387058450,1,-6,-1,-3,1,0,-4,-1
1514948387058450,0,-1,0,1,-2,-2,-1,2
1514948387079456,0,0,1,-3,0,-1,-1,-2
1514948387079456,-2,-4,-1,-1,-4,0,1,-3
1514948387081458,-5,2,0,0,2,-1,2,-3
1514948387081458,0,-3,-5,-1,-2,-2,2,2
1514948387102473,-4,-3,0,-1,-2,1,-3,-3
1514948387102473,0,-3,0,-1,-2,-3,-3,-3
1514948387108477,1,-3,-4,-3,-2,-2,-2,-1
1514948387108477,-1,1,-1,1,0,-1,-3,-4
1514948387116483,-2,2,-3,1,-1,-2,1,0
1514948387116483,-1,-3,1,-1,1,0,-1,-2
1514948387123488,-6,0,0,-1,-1,-2,-1,1
1514948387123488,-1,0,-1,-1,0,0,-4,-1
1514948387140498,2,-4,0,-1,-3,0,-1,1
1514948387140498,3,-1,-1,-1,0,0,2,1
1514948387143490,-2,2,0,-3,0,-2,-1,1
1514948387143490,-2,-4,-4,0,-2,0,2,-1
1514948387162504,-1,-4,-2,1,-2,-2,1,1
1514948387162504,-2,0,-4,-2,0,-3,-1,-1
1514948387164517,-2,2,-3,-3,2,-1,-4,-1
1514948387164517,-2,0,1,-2,1,-1,-5,0
1514948387176526,-1,3,0,1,-1,-1,0,-6
1514948387176526,1,-2,-2,1,-3,-2,0,-1
1514948387183518,0,0,-2,-3,-1,0,1,1
1514948387183518,1,0,-2,-1,-1,1,-4,0
1514948387199530,-4,0,-1,-2,-2,-2,-2,-1
1514948387199530,-3,-3,0,-2,-1,-1,0,-2
1514948387201540,-3,0,-1,-2,-2,0,0,-1
1514948387201540,-3,-1,-2,1,2,-3,1,4
1514948387222549,-2,-2,1,1,-1,0,-2,-1
1514948387222549,-2,-3,-2,-1,-2,-1,-4,0
1514948387237559,0,-2,0,-2,0,-2,1,-2
1514948387237559,-2,-3,-1,-1,-1,-1,3,-4
1514948387237559,-4,3,-3,-3,0,-1,1,0
1514948387237559,0,0,-2,-1,0,-1,-3,2
1514948387243582,0,-3,-4,-2,-2,0,-2,0
1514948387243582,-2,0,0,-3,0,-1,1,-1
1514948387259584,0,1,-1,3,0,-1,-6,-1
1514948387259584,0,2,0,-1,0,0,2,0
1514948387261583,-1,-2,-1,0,-2,-3,-4,2
1514948387261583,-2,-2,0,-2,-3,-2,1,-2
1514948387281587,-1,0,-2,-2,-2,0,-1,0
1514948387281587,0,-1,2,-2,-2,1,1,-2
1514948387283592,0,-3,-2,-2,0,0,1,-1
1514948387283592,-2,-1,1,-3,0,-2,-4,-1
1514948387296598,-2,-4,-1,-1,-2,-1,-1,-2
1514948387296598,-1,0,-1,1,-1,0,-3,-3
1514948387302617,0,1,1,-1,1,-4,2,1
1514948387302617,1,-5,-4,-1,-1,1,-1,-1
1514948387319614,-2,0,-3,-3,-1,0,-1,0
1514948387319614,0,1,-1,1,-1,-2,-1,-3
1514948387322636,0,-1,0,-1,-1,-2,0,0
1514948387322636,-1,-3,0,-1,-1,-1,-4,0
1514948387341631,1,-2,1,0,-1,2,0,0
1514948387341631,-4,-2,-4,0,1,-3,0,1
1514948387343632,-1,0,-1,-2,-1,0,-2,-2
1514948387343632,-1,-2,0,-2,-2,0,3,0
1514948387356656,0,0,1,-1,0,0,-3,-1
1514948387356656,-1,1,0,-3,-3,0,-1,-2
1514948387363647,-2,-2,-2,0,-1,-2,0,-2
1514948387363647,1,1,-2,0,0,-1,-1,1
1514948387379669,2,3,1,-1,0,0,1,-1
1514948387379669,-1,-3,-5,-1,0,-1,0,0
1514948387380669,-1,2,-3,0,-2,-2,2,-2
1514948387380669,-4,3,-1,-1,-1,-1,-1,-3
1514948387401673,4,-3,-1,0,1,0,0,-3
1514948387401673,-2,-5,-2,-2,0,-1,-4,-1
1514948387403674,-3,-2,2,-1,-3,0,-2,-2
1514948387403674,-3,-1,0,0,-1,-2,-4,-3
1514948387416696,-1,-4,-2,1,-3,-1,-3,-1
1514948387416696,1,0,0,-4,0,0,-2,0
1514948387422701,0,-2,-2,0,2,0,-2,-2
1514948387422701,-1,-1,-1,-5,0,-3,-1,-3
1514948387440701,-4,-1,-1,-4,0,0,3,-1
1514948387440701,2,0,-1,0,0,-1,-4,-3
1514948387443709,1,3,0,-1,-1,-2,-1,-1
1514948387443709,0,2,0,-1,-2,-1,3,0
1514948387461715,-1,-6,-1,2,0,-2,1,-2
1514948387461715,0,-1,-1,0,-3,0,-2,-2
1514948387463725,0,0,-1,-2,2,-1,-1,-3
1514948387463725,-4,-2,-2,-2,-1,0,-2,-3
1514948387475727,-1,1,-1,-4,0,-2,-1,-1
1514948387475727,-1,-2,1,0,-2,1,-1,-3
1514948387484734,-4,0,-2,-1,0,-4,-1,0
1514948387484734,2,-1,-4,-1,0,0,3,0
1514948387499744,-2,-1,-5,-1,-1,-1,-4,-3
1514948387499744,-3,3,2,1,-2,-1,0,1
1514948387500743,2,-2,1,-1,-2,-2,-3,-1
1514948387500743,1,-3,1,0,0,-2,-3,1
1514948387523760,-2,1,-2,-2,-3,0,-1,2
1514948387523760,3,-2,-4,-1,0,-2,1,0
1514948387525763,-1,-3,-3,-3,-1,0,-1,0
1514948387525763,-1,-2,-4,-1,-2,-3,-3,-2
1514948387535768,-2,-1,-1,2,0,-1,-2,-1
1514948387535768,-4,-2,-1,-1,2,1,1,-1
1514948387544775,-2,0,-1,-1,-1,0,-1,0
1514948387544775,0,0,0,0,-1,-1,0,-3
1514948387559788,2,-1,-2,0,-3,-2,-5,-1
1514948387559788,2,-2,-1,-3,-3,0,-1,1
1514948387560786,-6,0,0,-2,-1,0,-1,-3
1514948387560786,-1,-4,2,-1,-1,0,0,-3
1514948387581802,0,-2,-2,-1,-1,-1,-1,0
1514948387581802,-5,0,1,-1,-1,-1,-4,0
1514948387583803,1,-1,-2,-3,-2,-2,-2,-2
1514948387583803,-2,-2,-2,0,-1,-1,-3,-3
1514948387595811,0,0,-1,-3,-2,-1,1,-1
1514948387595811,0,0,-2,-1,-2,-2,-1,0
1514948387604816,-2,2,0,-1,0,0,0,1
1514948387604816,0,-3,-4,-3,0,-1,0,1
1514948387626842,-1,-2,3,-3,-1,0,-1,0
1514948387626842,2,-1,-3,-2,-2,-1,0,0
1514948387628834,-1,-1,-1,0,1,-4,-1,-1
1514948387628834,-2,0,-1,-1,-2,0,-2,0
1514948387641849,-1,-1,-2,-3,-2,-2,-2,1
1514948387641849,-3,1,0,-1,-1,-2,2,3
1514948387643846,-2,-1,-2,0,-2,0,1,-4
1514948387643846,0,-1,1,-1,1,-1,-5,-2
1514948387655858,0,1,1,0,-1,1,0,4
1514948387655858,0,1,-1,0,0,-2,-4,-2
1514948387664859,1,-4,0,0,-1,0,-1,1
1514948387664859,-3,1,0,1,0,-3,-1,-1
1514948387679871,-2,2,-2,1,0,0,-1,-1
1514948387679871,0,-5,-4,-2,1,0,0,0
1514948387680870,-2,-6,-1,-3,-1,-1,0,1
1514948387680870,-1,-2,-1,-1,-2,0,-2,-3
1514948387701886,-1,3,-1,-2,-2,-2,-3,-2
1514948387701886,0,3,0,0,0,-2,-2,0
1514948387703886,1,-2,0,-2,1,1,-1,1
1514948387703886,2,1,-2,1,-3,0,-1,2
1514948387715897,-2,-2,-2,0,2,0,0,0
1514948387715897,-2,-4,-3,-1,-1,-2,1,-1
1514948387724907,-5,2,-3,-1,-2,-1,-3,-2
1514948387724907,-1,-4,-1,0,0,-2,-1,-1
1514948387740919,-5,-3,1,0,-2,-2,0,1
1514948387740919,-2,-1,-3,0,0,-1,-3,-1
1514948387741916,0,-2,2,-3,-3,-1,2,1
1514948387741916,0,2,1,-2,-1,-1,-2,-7
1514948387762932,-2,-3,-5,0,-1,2,2,-3
1514948387762932,-1,0,1,-2,-3,-2,1,-3
1514948387764940,-5,-3,-3,-2,0,-1,0,-1
1514948387764940,2,-5,3,-2,-3,2,-1,-3
1514948387775942,1,-1,-2,-1,-1,-1,-4,-1
1514948387775942,-1,0,-3,0,0,0,-2,1
1514948387784944,1,3,1,0,-1,0,-5,-1
1514948387784944,-4,1,-5,-4,-1,-1,1,0
1514948387799955,0,-4,1,0,-1,-2,1,-2
1514948387799955,1,-2,-3,-3,-2,1,0,1
1514948387800955,0,1,1,1,-1,-2,0,-2
1514948387800955,-2,-3,-1,0,0,-1,1,-2
1514948387822981,-2,-1,-1,-1,0,-2,-1,2
1514948387822981,-4,0,0,-2,-1,-2,-1,-2
1514948387823976,-3,0,-3,0,-1,1,-1,-4
1514948387823976,-3,5,2,0,-6,-1,-2,-1
1514948387835982,1,-1,1,-1,-1,-3,0,0
1514948387835982,-1,-3,0,0,-1,0,-1,-1
1514948387846992,0,0,-2,-3,-1,-1,-3,-2
1514948387846992,-1,-4,-2,1,-1,-3,-1,-1
1514948387859999,4,3,-3,-2,-2,-1,-3,-1
1514948387859999,0,-3,0,-3,-1,-1,-1,-3
1514948387862005,-3,-6,-1,-2,0,-2,-1,-3
1514948387862005,-3,0,0,-1,-1,1,4,1
1514948387882012,-4,-1,0,-3,-1,-2,-1,0
1514948387882012,1,-1,-5,-1,0,1,-3,-1
1514948387884013,-1,0,0,0,-1,-4,-2,0
1514948387884013,-3,-1,1,-1,-2,-3,-1,-2
1514948387905034,2,1,-2,-3,-2,0,-3,-4
1514948387905034,0,-1,-3,0,1,-3,-1,3
1514948387908035,1,1,-3,-1,1,-1,1,2
1514948387908035,0,0,-3,0,-1,0,-4,0
1514948387919038,-2,0,-1,0,-1,0,0,0
1514948387919038,-3,-2,-2,-2,-3,-1,1,0
1514948387921040,-3,0,2,-2,-4,-1,1,-4
1514948387921040,3,-2,-1,0,1,0,-3,-2
1514948387942055,-1,-2,-3,-1,-2,0,-1,2
1514948387942055,1,-3,-1,-1,1,-4,1,-2
1514948387944058,-1,0,-1,-1,0,0,2,-1
1514948387944058,-2,-4,1,0,-1,-1,1,-3
1514948387964070,-1,-1,-4,0,-2,-1,0,0
1514948387964070,-2,0,-1,-3,-1,1,-5,2
1514948387968072,-1,-7,-3,-1,-2,-2,-2,-3
1514948387968072,-2,-1,1,-2,-1,-1,-2,-1
1514948387979080,-1,-3,-2,-2,-1,-2,0,-1
1514948387979080,-2,0,2,-1,-1,-1,2,3
1514948387981082,2,-2,0,1,-2,0,-1,-1
1514948387981082,-4,-1,-1,0,-2,0,-2,0
1514948388002097,-1,-4,-2,-1,0,-1,0,-2
1514948388002097,0,-1,2,-1,1,0,-1,1
1514948388004099,-3,-1,-3,-4,-1,-2,-2,0
1514948388004099,0,-3,-1,0,-2,-1,-1,0
1514948388024113,0,2,0,-1,-2,0,-2,-4
1514948388024113,-1,0,-2,-3,-1,-2,-2,0
1514948388026121,-4,-1,-1,0,-1,-1,1,-1
1514948388026121,-1,-1,-1,0,-4,-2,-1,-5
1514948388039123,-4,-3,1,-2,-2,-1,-2,-2
1514948388039123,1,-3,-6,-2,0,-2,-1,1
1514948388045127,1,0,-2,0,0,-2,-3,0
1514948388045127,-1,-1,-1,0,-2,0,-2,-1
1514948388062142,2,1,-2,-1,-1,-1,-3,-1
1514948388062142,0,1,2,-2,-1,-4,0,-2
1514948388064141,-1,5,-2,-2,0,1,1,1
1514948388064141,-2,-6,-2,1,0,-4,1,1
1514948388085172,-3,-1,-2,3,-2,-2,-2,-1
1514948388085172,1,-1,-2,-1,1,-1,-1,-1
1514948388089170,-1,-1,-2,-1,-3,-1,-2,-1
1514948388089170,-3,3,-3,-3,-2,1,0,-5
1514948388099177,0,0,0,0,-2,-1,-2,-1
1514948388099177,-3,-1,-3,-2,2,-1,0,0
1514948388106172,1,-2,0,-3,0,-2,2,0
1514948388106172,3,2,0,1,-4,-2,-1,-3
1514948388123189,0,-1,-2,-1,0,-1,-3,-1
1514948388123189,-3,-2,0,0,-3,-3,-1,-2
1514948388127186,2,0,-2,0,0,-2,-3,-2
1514948388127186,-2,-1,1,2,-1,0,2,-3
1514948388144209,0,-4,-4,-1,0,1,3,0
1514948388144209,0,-2,-1,-2,-3,-1,-3,-2
1514948388150214,-1,-1,0,-1,-2,0,0,-4
1514948388150214,2,-1,0,-3,1,-1,0,-2
1514948388159219,-1,-3,0,2,0,-2,-1,2
1514948388159219,-2,3,-2,-3,-3,-1,-2,-1
1514948388165222,2,-1,1,0,-1,0,1,-5
1514948388165222,0,-2,-1,1,0,0,-2,-1
1514948388182225,0,1,-1,-1,-1,-1,2,-6
1514948388182225,-1,-2,-3,-1,-1,-1,3,2
1514948388183225,-2,1,-2,-2,-1,-2,-3,1
1514948388183225,1,-2,0,-1,-2,-1,-3,-3
1514948388204252,1,-1,1,1,-1,-3,-4,1
1514948388204252,-1,-1,-2,-2,-1,-1,-2,1
1514948388206240,-1,-3,0,0,-1,-1,-4,2
1514948388206240,-1,-3,0,-3,-3,-3,-3,-3
1514948388219250,-3,0,-1,1,0,-2,1,-2
1514948388219250,-2,1,-3,-1,0,-2,-1,-1
1514948388225261,-2,1,0,-2,-3,0,-2,-1
1514948388225261,-1,1,-3,-1,0,-1,-2,-3
1514948388242268,1,-5,-3,0,-1,-1,0,0
1514948388242268,0,-1,0,1,0,0,1,2
1514948388243268,0,-3,-3,0,1,-2,0,1
1514948388243268,-3,-2,-3,1,-1,-1,0,0
1514948388264313,-3,-2,-1,-2,-2,-2,-4,-2
1514948388264313,-2,0,0,-2,2,0,-5,0
1514948388266314,-1,0,-3,-1,-1,-2,1,-1
1514948388266314,1,-3,-1,-2,2,2,0,0
1514948388279302,1,0,-2,0,-2,-1,0,1
1514948388279302,-1,0,1,0,-3,-3,-3,-1
1514948388286297,1,-3,-1,-2,0,-2,-3,0
1514948388286297,0,-2,-2,-1,-1,0,2,-3
1514948388302334,-3,-3,0,-2,-2,1,0,-2
1514948388302334,5,-1,-2,-4,0,0,1,2
1514948388303310,0,-3,-2,0,0,-2,-2,0
1514948388303310,0,-3,0,0,-3,0,-2,-3
1514948388325325,0,0,-1,-2,0,-1,1,-1
1514948388325325,-3,-1,-3,1,0,-1,0,0
1514948388328327,-1,-5,0,-1,1,-1,-1,1
1514948388328327,-3,0,-2,-1,-2,-1,-2,4
1514948388339356,-3,1,2,2,-3,1,0,-5
1514948388339356,-1,-7,-1,-2,-1,-1,0,0
1514948388345354,-2,1,0,-2,-1,-2,0,-2
1514948388345354,-1,-3,0,1,-2,-1,0,-1
1514948388362354,-3,-1,-1,-3,-2,0,1,1
1514948388362354,-1,0,-2,-1,-2,-3,-1,-1
1514948388363352,-3,-1,-3,1,-1,1,-2,0
1514948388363352,-2,-1,1,1,0,-1,0,-2
1514948388384376,-5,1,-1,0,-2,0,-3,0
1514948388384376,0,-2,-5,-1,1,-2,-1,1
1514948388386377,-1,-1,-1,-1,-1,-1,0,0
1514948388386377,-1,0,-4,-1,-3,-1,0,-1
1514948388398377,1,-3,-3,0,0,0,-3,0
1514948388398377,-3,-1,-1,-4,-3,-3,1,-2
1514948388407391,-3,-1,-2,-2,2,0,0,-4
1514948388407391,0,0,4,-3,-3,0,0,1
1514948388423395,0,0,4,-2,-2,-2,-3,0
1514948388423395,-2,0,0,-1,-2,0,-4,-2
1514948388426415,0,1,1,-1,-2,0,1,-1
1514948388426415,-2,1,1,2,-2,0,2,-3
1514948388444411,-2,-1,1,0,0,-2,0,-2
1514948388444411,0,3,-1,0,0,-1,-4,0
1514948388446423,-3,-3,-5,0,-3,-2,-1,-2
1514948388446423,3,-1,-4,-2,0,1,-5,1
1514948388458420,-1,0,-5,0,1,-1,-2,-3
1514948388458420,0,-2,-2,-1,-2,-2,-1,0
1514948388467426,0,-1,-2,-3,-1,0,-3,1
1514948388467426,-1,1,-1,-1,0,-1,0,-3
1514948388482440,-1,-3,-4,-1,-3,0,0,-3
1514948388482440,0,0,-4,-4,2,-1,3,-1
1514948388483438,-2,-1,0,-3,-1,0,-2,0
1514948388483438,0,-3,-1,-1,-1,-1,-2,-2
1514948388504453,1,-2,1,0,-1,-1,3,1
1514948388504453,-3,-3,2,-1,1,-2,-1,0
1514948388506471,-1,0,1,-2,0,-1,-1,-1
1514948388506471,-4,0,1,2,-1,0,-1,-3
1514948388518480,-5,0,3,3,0,1,-1,-2
1514948388518480,4,-3,2,-4,0,-2,0,0
1514948388527477,-3,1,-1,-2,-2,-2,0,-2
1514948388527477,-1,-5,-2,-1,-3,-1,-1,-2
1514948388542479,1,2,-2,0,0,-2,-3,-1
1514948388542479,-2,-2,-2,-3,-1,0,-1,-3
1514948388543480,-1,3,1,-1,-2,0,2,-1
1514948388543480,-1,-1,-1,0,2,-2,-3,-3
1514948388564517,0,-2,-1,-4,-4,-1,0,1
1514948388564517,-2,1,-1,-4,-3,0,-4,0
1514948388566499,2,-3,-3,2,-1,-1,-3,-2
1514948388566499,2,-1,0,0,-2,1,-1,-2
1514948388578516,-1,0,-3,-3,0,-3,3,2
1514948388578516,-3,0,-5,-1,0,-3,0,-1
1514948388588513,-2,-1,-3,-2,-1,-3,1,-3
1514948388588513,-2,-2,1,0,-2,-1,-2,-1
1514948388602536,-2,-1,1,2,-2,2,-2,-2
1514948388602536,1,-1,0,-2,1,-2,0,0
1514948388603524,-2,-1,-1,-2,0,-4,0,1
1514948388603524,1,2,0,-2,-1,-3,0,1
1514948388625552,-2,-5,-2,-1,0,0,0,-3
1514948388625552,-2,-3,-1,-1,0,-1,0,1
1514948388626547,-4,0,-3,1,-1,-1,-2,-2
1514948388626547,-2,0,-2,-1,-1,-2,-3,0
1514948388638551,1,-1,-2,-1,-2,0,1,0
1514948388638551,0,-3,0,0,0,-4,1,-3
1514948388647569,1,-1,-2,-6,-1,0,0,0
1514948388647569,-2,-1,-3,-2,-2,-2,-1,0
1514948388661572,-1,-3,-1,-2,-1,-1,-3,1
1514948388661572,-2,-4,-1,-1,-3,-1,-4,-2
1514948388663566,2,0,-2,-1,0,-1,2,-2
1514948388663566,-3,1,0,0,-2,-2,1,-1
1514948388685594,-1,0,-4,1,0,-1,-2,-1
1514948388685594,1,-1,-1,-2,0,0,1,-1
1514948388688583,1,1,1,-1,-1,-4,-3,0
1514948388688583,1,-2,-2,0,-1,2,-1,-4
1514948388698590,-5,-2,-1,-1,-3,-3,-4,-3
1514948388698590,-4,0,-1,-1,0,-1,-2,1
1514948388707612,0,-2,-1,-2,-1,0,-1,-2
1514948388707612,-4,-1,-1,0,-2,0,0,-1
1514948388722611,0,2,0,0,-2,1,-1,1
1514948388722611,1,-4,-2,-2,-1,-2,-2,-1
1514948388723609,-2,-3,-1,-1,1,-2,-2,-1
1514948388723609,-4,-2,0,-1,-3,1,-3,1
1514948388745623,-1,0,-2,-1,0,-3,1,-6
1514948388745623,-4,0,0,-2,0,-3,3,3
1514948388747640,-3,-3,-3,0,-2,-1,-2,-1
1514948388747640,2,-5,-1,0,-2,-1,-1,0
1514948388766639,-1,0,0,-3,0,0,0,-3
1514948388766639,0,3,-2,-2,0,0,-3,0
1514948388767640,0,-1,-2,-1,0,-2,-3,-1
1514948388767640,-1,0,-1,0,-5,0,-4,0
1514948388781665,1,-1,1,0,-1,-3,-1,0
1514948388781665,-2,-2,-3,-1,-2,-3,0,0
1514948388781665,-1,-1,-1,-3,2,-1,-3,-1
1514948388781665,0,-2,-1,1,-1,-2,0,-1
1514948388803673,1,-1,0,-2,-1,1,-1,0
1514948388803673,1,0,0,-1,2,1,-2,1
1514948388804665,-1,-2,-2,0,-2,-1,-1,-1
1514948388804665,-4,-1,-1,-1,0,0,0,0
1514948388826692,-2,-4,0,-1,-2,-1,0,-3
1514948388826692,-1,-1,-3,-3,-2,-1,-1,-2
1514948388826692,-2,-4,3,-2,-1,2,-4,1
1514948388826692,1,1,-2,-1,1,-1,-1,-2
1514948388841709,-1,-1,-1,-1,-3,1,1,-1
1514948388841709,-1,3,-2,-1,0,0,-3,-3
1514948388841709,0,-1,-1,-2,-1,-2,-1,-2
1514948388841709,-3,1,-4,-1,-1,-2,-1,0
1514948388863718,2,-4,-1,1,1,-2,-5,3
1514948388863718,-2,-4,-1,-4,-1,0,1,-2
1514948388864706,-3,2,0,-2,-3,-1,-2,-2
1514948388864706,1,0,1,0,-1,0,-2,-1
1514948388887722,0,-1,-2,-1,0,-2,0,1
1514948388887722,-4,-1,2,0,-1,0,-5,-2
1514948388888725,-1,-1,0,-2,-2,-2,3,0
1514948388888725,-3,-1,0,-2,0,-2,1,-2
1514948388902737,2,2,-1,0,-1,0,0,-2
1514948388902737,-1,1,-3,1,1,-1,-2,2
1514948388903760,-1,-4,0,0,0,1,0,-1
1514948388903760,-1,-1,0,1,-2,-3,-4,-2
1514948388924748,-2,1,-1,-2,0,1,1,-6
1514948388924748,-3,0,2,1,-1,-2,0,0
1514948388926752,0,-1,-2,0,0,-1,-2,-1
1514948388926752,3,-4,-1,-3,2,1,0,3
1514948388946764,-1,3,1,-1,-1,-1,-1,-1
1514948388946764,-3,0,1,-4,-3,-2,-1,0
1514948388946764,0,-3,-3,-1,-2,0,3,0
1514948388946764,-1,2,-2,-1,-4,-3,-1,-3
1514948388960786,-1,-2,1,-2,-1,-1,-2,-2
1514948388960786,-1,1,-1,2,0,-1,-3,-2
1514948388961792,-1,1,-2,-2,-2,0,0,2
1514948388961792,-2,-3,-1,0,0,-2,1,-1
1514948388983800,-3,0,-1,2,-3,0,-2,-3
1514948388983800,0,-1,-4,-4,0,-3,2,-1
1514948388985794,-3,-2,-2,-1,0,-2,0,-4
1514948388985794,-2,3,-2,-2,-1,1,-1,-2
1514948389005821,1,-5,1,0,-1,-3,-3,2
1514948389005821,0,-1,0,-1,0,0,-1,0
1514948389006807,-1,-1,0,-1,-1,-1,0,0
1514948389006807,-3,-4,-2,0,-2,1,1,2
1514948389021818,-6,-4,-5,0,-3,-4,-2,-2
1514948389021818,-1,4,0,0,-1,-1,0,-4
1514948389022824,1,3,-2,-2,-1,-1,0,0
1514948389022824,-1,-3,0,-3,-2,-3,-2,0
1514948389043834,0,0,-2,0,-2,-1,-1,1
1514948389043834,-2,-2,-1,-2,0,-1,-2,-1
1514948389044846,-2,0,-2,0,-1,-2,0,-3
1514948389044846,-1,-2,-1,-2,-2,0,-1,-4
1514948389065870,-3,-1,-1,-2,-2,-1,0,0
1514948389065870,2,1,0,0,0,-3,-1,0
1514948389066849,0,-5,1,-3,1,-3,-2,0
1514948389066849,0,0,-3,1,1,2,-1,-1
1514948389080871,-1,0,0,1,1,-2,-1,-1
1514948389080871,-2,-3,0,-1,-3,-1,-2,-4
1514948389081859,1,0,-2,1,1,0,-1,-3
1514948389081859,-1,-3,4,-2,-1,-2,0,1
1514948389103876,0,0,-1,-5,0,-1,-1,2
1514948389103876,-5,-5,-1,0,-2,-3,-1,2
1514948389104876,-1,-2,0,1,-1,-1,-3,-3
1514948389104876,-3,-1,-5,1,-2,0,-1,-1
1514948389125903,1,0,0,-2,0,-1,0,-1
1514948389125903,3,-4,-2,-2,-1,-2,2,-2
1514948389126909,-2,2,-2,-2,-2,-1,-1,0
1514948389126909,1,-2,0,0,-2,-1,-3,-2
1514948389142913,-2,-3,-1,-4,0,-2,-2,1
1514948389142913,1,3,-5,0,-1,3,2,-3
1514948389143903,-1,-5,-1,-3,-1,-2,-1,0
1514948389143903,-1,0,-2,-1,0,-2,1,-5
1514948389163920,0,-1,0,-2,-2,-1,-3,-1
1514948389163920,0,-1,-3,-3,1,-1,-6,-1
1514948389165941,-1,1,0,-1,-2,1,-2,-3
1514948389165941,-3,1,-3,1,1,-3,1,-2
1514948389186933,1,0,-2,-1,-3,-1,-2,1
1514948389186933,2,1,0,0,-1,0,-1,-1
1514948389188936,-4,-1,-2,-1,-2,-2,1,0
1514948389188936,2,-3,0,-2,-1,-1,-5,1
1514948389200956,1,2,-4,-2,-2,1,-1,-3
1514948389200956,1,-2,0,-2,0,-1,1,0
1514948389201945,-1,-2,2,2,-1,-1,-1,-2
1514948389201945,1,0,-2,0,-2,-2,2,-1
1514948389223959,0,3,2,-1,2,-1,0,0
1514948389223959,-2,-3,1,2,-2,-1,-1,-2
1514948389224970,-3,-1,0,-5,-3,-1,1,-2
1514948389224970,-1,-3,-2,0,-1,-2,-3,-3
1514948389245987,-1,0,-1,-1,-1,0,-1,4
1514948389245987,-2,1,-1,-4,-3,-1,0,-4
1514948389246977,1,1,0,-1,0,-2,-2,-1
1514948389246977,-1,0,3,-3,-1,0,-1,3
1514948389262987,-2,-3,0,0,1,-1,-1,-5
1514948389262987,-2,-4,0,-1,-3,-1,1,-1
1514948389263989,1,0,-1,0,-1,-2,-2,1
1514948389263989,-2,2,-2,0,-1,-1,-1,4
1514948389284002,-1,-4,-5,-1,2,1,1,-1
1514948389284002,-4,-5,2,-3,0,-1,3,0
1514948389285002,1,-1,-1,-3,-2,-2,-3,-3
1514948389285002,1,1,-3,-3,-2,0,-2,0
1514948389306023,-3,-1,0,-1,0,-1,0,0
1514948389306023,-3,0,-4,-1,0,1,1,-4
1514948389307020,-2,-1,2,-1,0,0,0,-2
1514948389307020,3,-1,-2,-3,-1,-3,-1,0
1514948389321028,2,5,-3,-1,-1,-4,0,-4
1514948389321028,1,-1,1,0,0,-1,-1,1
1514948389322031,-5,-2,0,0,-2,1,-2,-4
1514948389322031,-2,1,-1,-1,0,0,-1,-3
1514948389344045,0,-1,-2,-1,-1,-2,0,0
1514948389344045,-1,-1,0,-1,0,-2,-2,1
1514948389344045,0,-1,1,1,1,-2,0,-1
1514948389344045,-1,-1,1,-1,-1,-2,4,-4
1514948389366077,-1,-3,-1,-2,-2,1,-3,3
1514948389366077,1,2,-5,-4,-1,-1,-1,-2
1514948389367061,-2,-3,-1,0,-1,-3,-2,1
1514948389367061,0,-4,1,-1,-3,-2,-4,-1
1514948389381082,-1,-2,0,-1,2,-1,1,-1
1514948389381082,0,-3,1,-3,1,-1,-1,0
1514948389382074,-2,-1,0,0,-1,0,-1,-1
1514948389382074,-6,-1,-1,-1,-2,0,1,-3
1514948389404100,1,-1,-1,-4,-2,-4,-2,4
1514948389404100,-1,-2,-2,-1,-1,2,0,1
1514948389405104,-1,-1,1,-1,-2,-1,0,-1
1514948389405104,-2,-1,-1,0,-1,0,-3,-2
1514948389435109,-1,-2,-3,-1,-2,1,0,-1
1514948389435109,0,-2,2,0,-2,-3,-4,-2
1514948389437125,-1,1,-1,-1,-3,-1,-4,-1
1514948389437125,0,-4,0,-2,-2,0,-1,-2
1514948389441116,0,0,-1,-2,0,-2,0,-4
1514948389441116,-2,-6,0,-2,-2,-5,-1,1
1514948389449131,-1,-4,-3,0,-1,0,0,-6
1514948389449131,-1,1,-3,0,1,-2,-1,-1
1514948389464139,0,0,0,-3,-1,-2,-3,-1
1514948389464139,0,-3,-3,-3,-2,-1,-1,1
1514948389464139,0,-3,-1,1,-2,-1,-1,-1
1514948389464139,1,0,0,-2,0,1,-1,2
1514948389487146,1,-1,-2,1,2,-2,-1,3
1514948389487146,-1,-2,0,1,-1,0,1,1
1514948389489148,-2,-3,-2,0,-1,2,1,-4
1514948389489148,-1,-2,-1,-3,-2,-1,0,0
1514948389501157,-3,-4,-2,-2,0,0,-1,-1
1514948389501157,-4,0,2,-2,0,1,1,-1
1514948389509163,-2,1,-2,0,-2,-1,0,1
1514948389509163,-1,-3,-1,-1,0,0,-1,-1
1514948389525174,-3,-2,-1,-1,0,-3,-3,-3
1514948389525174,2,-1,-2,1,0,-1,-4,-2
1514948389526174,1,1,0,0,-1,-1,1,-4
1514948389526174,0,-2,0,0,-2,0,1,-2
1514948389546200,0,-1,-3,-1,0,2,0,2
1514948389546200,0,-1,-1,-3,-2,0,-3,-2
1514948389547200,-1,-1,0,1,-3,0,-2,-2
1514948389547200,0,0,0,1,0,-3,-1,-1
1514948389560253,1,2,1,0,-3,-1,-1,2
1514948389560253,-4,0,-3,0,-2,-1,3,-4
1514948389569257,-4,-2,2,-2,0,0,-2,-1
1514948389569257,0,-4,-2,-4,-1,-1,1,-3
1514948389584276,-1,3,-3,-2,0,-1,1,-1
1514948389584276,-2,3,-1,0,1,-2,-4,-2
1514948389586266,-2,0,1,-1,-2,0,0,1
1514948389586266,-2,2,-3,1,-4,-1,-1,-2
1514948389606279,-4,-7,1,-2,-2,-1,-5,0
1514948389606279,2,-2,1,-1,-1,-1,3,1
1514948389607281,-2,-1,-3,2,-2,-1,0,-3
1514948389607281,0,3,-3,-2,1,1,-4,3
1514948389621290,0,-1,-3,-1,-1,-1,0,1
1514948389621290,-6,-2,-1,-3,-3,0,-3,-1
1514948389628295,-1,-2,1,-1,-2,-1,0,-4
1514948389628295,1,-1,1,0,0,1,-1,-1
1514948389643305,0,1,-2,-3,-3,-3,-1,-3
1514948389643305,1,1,-3,1,0,-2,-2,1
1514948389644308,-3,-3,-2,1,0,-1,-2,0
1514948389644308,-4,1,5,4,-1,-2,-5,0
1514948389666343,-1,-3,-13,-7,-1,2,-2,-1
1514948389666343,1,-2,4,-2,-1,3,-1,1
1514948389667345,0,0,-1,0,-2,1,1,-1
1514948389667345,-2,-1,-2,0,0,-2,0,-3
1514948389680331,-1,-1,2,-3,1,-1,-1,0
1514948389680331,0,0,-1,-2,-2,-3,2,-2
1514948389690338,4,-1,-4,-2,-2,-1,-1,-2
1514948389690338,0,-1,2,0,-2,1,-1,-2
1514948389703360,-3,2,2,2,1,-3,1,0
1514948389703360,-2,2,-1,-2,-3,-1,-3,-2
1514948389704365,-4,1,1,0,-1,-1,-4,-4
1514948389704365,1,-2,-3,-2,-2,-1,3,-1
1514948389726374,1,-5,-2,-4,0,0,1,2
1514948389726374,0,0,-3,-1,0,-3,0,-3
1514948389727375,-2,-1,1,-1,-4,-2,0,-5
1514948389727375,-1,-2,-2,-1,-1,0,-3,-2
1514948389741376,-3,2,0,-2,-2,-1,0,0
1514948389741376,-3,-5,-3,2,0,-2,-3,-2
1514948389748392,2,-2,-1,-2,-3,0,-1,-2
1514948389748392,0,-1,0,-2,-2,-4,-1,-3
1514948389763391,0,2,0,-2,-4,-2,-2,0
1514948389763391,0,2,0,-3,2,-1,0,-2
1514948389765393,-1,1,-2,0,1,-2,-1,1
1514948389765393,0,-2,-4,0,-2,-2,-1,-2
1514948389787420,1,-7,-3,-1,0,-2,-1,0
1514948389787420,-1,-3,-1,-1,-2,-2,0,-2
1514948389789413,-2,-3,-1,-2,-1,0,-1,4
1514948389789413,-1,-2,0,2,-2,0,0,-1
1514948389809433,-2,-2,0,-2,0,2,-2,0
1514948389809433,2,-1,-5,-2,-1,-2,-2,-2
1514948389810435,-1,-1,0,-1,-2,-1,2,-2
1514948389810435,-2,-3,-1,1,-1,-1,-1,-2
1514948389824434,-1,-2,-2,1,0,-1,1,-2
1514948389824434,-2,3,-1,-1,-1,2,0,-1
1514948389826447,-1,-3,-2,1,1,1,-4,-2
1514948389826447,-1,-4,0,-2,-2,1,-1,0
1514948389846449,0,2,-1,-2,-1,-2,-2,-1
1514948389846449,0,-4,-3,-1,0,0,-3,1
1514948389847450,0,-2,-1,0,-2,-1,2,1
1514948389847450,-1,0,-1,-2,0,-2,0,0
1514948389869465,2,-2,1,0,1,-2,-3,-4
1514948389869465,-3,1,0,-3,-2,-1,-1,0
1514948389871477,0,0,-1,-2,0,0,-2,-3
1514948389871477,2,0,-2,-1,-1,-1,-2,1
1514948389884476,-3,0,-2,-1,-1,-1,1,1
1514948389884476,-3,0,-1,0,-1,0,-1,0
1514948389886478,-3,-1,1,-1,-2,1,-1,-5
1514948389886478,0,0,-1,-1,0,0,0,-3
1514948389906527,-4,3,0,-1,-3,0,-1,-2
1514948389906527,0,-3,-3,-1,0,-2,0,1
1514948389907492,-2,-1,-2,-3,0,-1,-1,2
1514948389907492,0,-1,-1,-3,-1,-1,-4,0
1514948389929525,-2,-3,-2,0,2,0,1,-2
1514948389929525,-1,2,0,0,1,-2,-1,-2
1514948389930521,-3,-2,-1,0,-1,-3,-1,-1
1514948389930521,-1,-2,1,1,-1,-1,-1,-4
1514948389943530,-2,-1,-2,-3,-1,-3,-4,2
1514948389943530,-1,-3,3,-2,-1,0,1,-3
1514948389944518,2,1,0,3,-1,1,1,-1
1514948389944518,-4,-4,1,1,2,0,0,2
1514948389966557,0,-1,-6,-5,0,-1,-2,2
1514948389966557,-1,-1,1,0,-2,0,0,-2
1514948389967535,0,2,1,0,-3,2,-1,-4
1514948389967535,-4,-3,2,-1,-1,0,3,-2
1514948389990551,1,2,-1,0,0,0,-1,-2
1514948389990551,-1,-3,-1,0,0,-3,-2,0
1514948389992566,-2,-4,-2,-1,-2,-2,0,0
1514948389992566,-1,0,-2,-1,-3,-1,-2,-2
1514948390003570,1,-3,0,-1,-1,-2,0,0
1514948390003570,-2,-2,0,-1,0,-3,-2,0
1514948390004560,2,-4,0,-1,-1,-1,-1,0
1514948390004560,0,2,-1,0,-1,-3,-2,-3
1514948390026589,0,0,-1,-2,-1,-1,0,-1
1514948390026589,-1,-2,0,-1,-2,0,0,-2
1514948390027578,2,-1,1,-2,0,-3,-1,-3
1514948390027578,0,-4,0,-3,-5,0,1,0
1514948390049602,-3,-4,-3,-1,2,0,-2,0
1514948390049602,-4,-1,1,-2,-1,0,0,-1
1514948390050604,0,-2,-3,-1,-1,-1,-1,1
1514948390050604,-2,0,0,-1,0,0,3,0
1514948390071608,1,3,1,1,-1,-4,0,-1
1514948390071608,0,0,-4,-2,-2,-1,-2,0
1514948390072609,-6,1,-2,1,-1,1,-1,-4
1514948390072609,-1,-3,-3,-2,-2,-2,0,-2
1514948390087620,0,-4,-2,-2,-3,0,0,-1
1514948390087620,5,-1,-1,-1,-1,-2,-5,-2
1514948390089622,-1,3,-1,-1,-2,1,-2,-4
1514948390089622,-1,-4,-4,0,-2,-4,0,-3
1514948390109647,-3,-4,-1,-2,1,-1,1,-2
1514948390109647,-3,2,-3,1,-1,0,-3,-5
1514948390110648,0,-2,2,-3,-2,0,-1,-2
1514948390110648,-2,4,-3,0,-1,1,-3,-4
1514948390124656,-3,-1,0,-3,2,-1,-2,0
1514948390124656,0,-3,-3,0,1,-5,1,3
1514948390125663,-2,-5,0,0,0,-2,1,-1
1514948390125663,-2,0,-3,-3,-1,0,-3,-2
1514948390146661,2,-4,0,-1,-1,0,-1,1
1514948390146661,-1,-4,0,-4,-1,-2,0,-2
1514948390147662,-2,-1,-2,1,-1,-2,-4,1
1514948390147662,2,-2,2,2,-2,-2,-1,-3
1514948390169692,1,-4,-2,-1,-1,-4,0,0
1514948390169692,-2,-1,-4,-1,-1,0,0,-2
1514948390170678,0,-2,0,1,-4,1,1,2
1514948390170678,0,-1,0,1,-1,-1,-2,-2
1514948390183693,-1,-2,-3,-2,2,0,-3,1
1514948390183693,0,-1,0,-2,0,-4,2,-2
1514948390185688,-1,-1,0,0,-2,-1,1,1
1514948390185688,-2,0,1,-1,-3,-3,-2,-3
1514948390206703,0,-1,-3,-1,-1,-2,-2,-1
1514948390206703,-1,-4,-1,-1,0,0,-2,2
1514948390207708,1,-5,-2,-1,-2,-1,1,-3
1514948390207708,0,-4,0,-1,-1,-2,-4,-1
1514948390229730,2,3,-2,-4,-2,-5,-1,2
1514948390229730,-2,2,-1,-1,-2,0,-1,-2
1514948390229730,-2,-1,-2,-3,1,-1,-3,-1
1514948390229730,-1,-2,-1,-2,-1,2,0,0
1514948390243730,0,0,-1,-2,-3,-1,-2,-1
1514948390243730,2,-1,-2,1,-2,-1,0,-1
1514948390244740,-3,3,0,1,-2,-3,0,-4
1514948390244740,1,1,-1,-3,-2,0,1,-2
1514948390266772,-2,1,0,-3,1,0,-2,-1
1514948390266772,-1,-2,0,-1,1,-1,2,-3
1514948390267746,-1,-2,0,1,0,0,-1,-3
1514948390267746,-1,0,-2,-3,0,-2,-1,0
1514948390290763,-4,-1,-2,-4,-1,0,-1,0
1514948390290763,-2,-1,-6,-1,-2,-1,1,2
1514948390292767,0,-4,-4,1,-1,-2,-5,0
1514948390292767,-1,1,-1,0,-2,0,-3,2
1514948390303773,-2,0,0,0,-1,-2,2,0
1514948390303773,0,3,1,-3,0,0,0,1
1514948390304773,-2,-1,3,2,-3,-2,-1,1
1514948390304773,0,0,-8,-5,-2,0,-1,-3
1514948390326801,-2,1,0,0,-1,-2,-2,0
1514948390326801,-2,1,0,-1,1,-1,-4,1
1514948390327792,2,-1,-2,1,-3,1,-3,0
1514948390327792,-2,0,1,1,-1,-1,-4,-1
1514948390349807,-1,0,-1,-1,-2,-1,0,-2
1514948390349807,-3,-3,-2,-1,-1,0,-3,-1
1514948390349807,1,2,-1,0,-1,-1,0,-1
1514948390349807,-1,-5,1,-1,-1,-2,-2,0
1514948390362826,-1,-1,-1,-2,-1,-1,-2,-4
1514948390362826,0,1,0,2,-3,0,-2,-1
1514948390370832,-2,0,-3,-4,1,0,2,-3
1514948390370832,-1,-1,1,2,-1,-1,2,-4
1514948390387832,-2,-4,-2,-2,0,-1,0,-1
1514948390387832,0,-1,0,0,0,1,0,1
1514948390389836,-2,-1,-1,0,-1,0,1,-1
1514948390389836,-1,0,0,1,-5,0,0,2
1514948390409886,-3,-3,3,-1,-2,-4,1,1
1514948390409886,-1,0,-3,-3,-2,-4,2,-3
1514948390409886,-1,-3,-6,-5,2,2,-6,-1
1514948390409886,-1,2,6,-10,-2,-5,2,-2
1514948390423857,-2,-1,-3,-10,-5,3,1,-3
1514948390423857,-1,-1,7,10,3,-3,-1,0
1514948390430862,-2,-3,-3,-15,-10,-3,0,-2
1514948390430862,-3,-3,10,9,2,-2,-3,2
1514948390446874,-3,4,3,10,2,-3,-2,-1
1514948390446874,-1,-1,-6,-10,-1,1,-2,-2
1514948390447874,0,2,4,6,1,2,1,-2
1514948390447874,2,-2,-6,-2,0,5,-1,3
1514948390469934,0,-4,-4,-6,-2,-4,-2,3
1514948390469934,0,-4,2,9,-1,0,-2,-2
1514948390469934,-2,0,2,-5,-4,-4,0,1
1514948390469934,1,-1,-9,4,-4,-1,2,-4
1514948390482898,-2,-5,2,-3,2,-2,0,0
1514948390482898,-2,3,-5,-20,-5,-3,-2,-4
1514948390491905,0,-1,-14,-1,2,1,-2,-4
1514948390491905,-4,-1,0,-6,1,-1,0,-2
1514948390506916,-2,-3,-4,10,-2,1,0,-4
1514948390506916,0,-3,-6,-27,-5,-3,-3,-4
1514948390507919,1,1,0,-5,-3,-1,2,-1
1514948390507919,-2,-1,8,8,0,1,0,1
1514948390529932,-1,-1,-12,-13,2,0,0,1
1514948390529932,-3,0,3,15,-8,-5,-1,0
1514948390529932,0,-4,1,1,1,0,-4,-5
1514948390529932,0,-1,-3,-4,4,0,-1,-2
1514948390542953,2,0,1,13,-3,-1,-1,0
1514948390542953,-2,-2,-4,-8,3,-1,0,0
1514948390550959,-2,0,4,-5,-5,-1,0,-2
1514948390550959,-3,-4,-1,5,-3,-2,-2,-1
1514948390566959,1,-4,-22,-39,-5,-2,-2,-2
1514948390566959,-4,1,5,26,3,1,-2,-1
1514948390567959,-3,-3,-5,-15,1,0,-1,-1
1514948390567959,-1,1,-1,12,-2,0,2,-2
1514948390589975,0,0,7,0,-1,-3,-2,-2
1514948390589975,1,-1,1,-3,1,-1,0,1
1514948390591976,-2,2,4,5,-1,0,-2,-2
1514948390591976,-1,1,-3,-6,1,-3,-1,2
1514948390602983,-1,2,1,5,-5,-3,0,-2
1514948390602983,3,-3,-4,4,0,0,0,-3
1514948390611990,-11,0,4,11,0,-2,1,-1
1514948390611990,5,-5,-2,-10,-4,-2,-3,-3
1514948390627000,-22,-2,-5,19,-1,0,-4,-10
1514948390627000,10,-1,-5,-27,0,1,4,18
1514948390628001,5,1,-1,-4,-4,-2,1,-1
1514948390628001,-6,-5,0,17,1,-3,-1,2
1514948390649019,13,1,0,0,4,2,-1,16
1514948390649019,-3,-2,3,19,0,-3,0,-1
1514948390651017,-4,1,-8,22,-5,-4,-4,4
1514948390651017,-4,4,-3,-25,1,-2,2,-3
1514948390663028,2,2,4,-1,1,1,2,-3
1514948390663028,-2,-3,-2,2,-2,2,-2,-8
1514948390671033,3,-2,1,3,1,2,0,0
1514948390671033,1,-2,-5,3,-6,-4,-3,-2
1514948390688045,-3,1,5,-3,2,-4,-3,0
1514948390688045,-1,-3,0,5,-4,-2,0,-9
1514948390690057,3,0,-15,-33,-5,-2,-4,-1
1514948390690057,7,0,1,7,2,2,0,4
1514948390709068,-8,-3,-5,-35,-4,1,0,-16
1514948390709068,2,6,1,18,2,-1,-4,-1
1514948390710060,3,-2,2,-4,-1,-3,1,0
1514948390710060,-7,2,0,2,-3,-1,-2,-2
1514948390732075,6,-4,5,-2,0,-2,-3,5
1514948390732075,3,-1,1,17,-2,-1,-1,-6
1514948390733077,-22,-1,1,-14,-2,0,-3,-8
1514948390733077,19,2,-1,6,1,1,-1,3
1514948390747085,-23,3,-3,0,-5,-3,0,-2
1514948390747085,0,1,4,-6,4,4,-2,0
1514948390748086,-8,-6,-21,19,-1,-2,0,2
1514948390748086,-21,-1,-7,-19,0,1,0,1
1514948390769127,24,-1,13,38,-1,-2,-3,-1
1514948390769127,-9,-5,-16,-55,-10,-5,-3,-5
1514948390770104,1,-3,10,22,1,-1,0,-1
1514948390770104,-9,-3,-10,-18,-4,0,-2,-3
1514948390792136,5,-6,3,22,4,-1,-1,3
1514948390792136,-4,-3,2,18,2,1,2,2
1514948390794124,11,2,8,7,2,0,-3,-6
1514948390794124,2,0,1,-1,-4,-2,-4,9
1514948390806128,-26,-3,-3,-3,-4,0,2,-10
1514948390806128,5,-1,7,-16,-1,1,0,1
1514948390814146,0,5,3,-4,3,1,1,4
1514948390814146,-7,-7,2,14,-5,-7,-5,-12
1514948390829156,15,-3,-6,-23,0,-1,-4,2
1514948390829156,-1,2,-4,-12,-4,0,1,1
1514948390831155,22,3,-1,6,-5,-3,1,8
1514948390831155,3,0,-13,-28,-1,1,0,3
1514948390852161,-2,0,3,11,2,-1,4,-10
1514948390852161,-7,0,1,-1,-6,-4,-2,15
1514948390853161,4,-1,8,12,-1,2,2,-12
1514948390853161,-29,-7,-3,-35,2,-1,1,-3
1514948390865181,4,6,2,46,1,1,-4,-12
1514948390865181,-13,-8,-18,-40,-8,-3,2,7
1514948390874175,-9,1,-1,11,2,0,-7,-10
1514948390874175,6,4,8,-1,5,7,2,6
1514948390890191,1,-6,1,24,0,-2,1,-10
1514948390890191,4,-3,3,-35,-2,1,-3,-28
1514948390894192,-8,-7,-8,-10,-6,-5,1,14
1514948390894192,21,6,0,-11,-5,-7,-3,9
1514948390912203,-10,-5,-10,-32,-2,1,0,-2
1514948390912203,4,9,-2,31,3,4,-1,-1
1514948390913203,-4,-4,2,-18,0,-1,2,-11
1514948390913203,-5,-3,1,17,3,7,-1,-2
1514948390926212,3,0,-5,-21,-4,-5,0,14
1514948390926212,-10,-1,2,8,-4,-5,2,-10
1514948390933217,1,-8,-5,-23,-2,3,-4,4
1514948390933217,-1,-3,0,17,-11,-12,-2,0
1514948390949230,-3,-1,0,-7,5,5,0,6
1514948390949230,13,5,-7,2,-7,-3,-2,-6
1514948390951230,1,-5,0,11,8,1,-1,-2
1514948390951230,6,-11,-4,-15,-3,-4,-3,5
1514948390972245,-9,2,1,-7,-5,-2,-1,14
1514948390972245,-7,-5,16,27,2,0,-6,-10
1514948390973247,-16,-2,-15,-7,-9,-13,-8,10
1514948390973247,4,2,-11,-15,0,1,1,2
1514948390986255,12,9,-12,-28,3,-1,-2,-6
1514948390986255,1,0,-1,14,5,6,-1,2
1514948390993259,7,-7,-7,-20,-8,-6,-1,10
1514948390993259,-7,4,5,23,13,7,-1,-13
1514948391010271,8,1,2,-3,-3,-2,2,9
1514948391010271,3,0,-5,-7,5,0,0,2
1514948391014274,-6,4,7,16,2,3,1,-11
1514948391014274,1,-13,-8,-21,5,3,5,8
1514948391032287,-4,-1,14,18,-2,-8,-4,-3
1514948391032287,-2,-11,-3,2,-3,-5,-3,-6
1514948391033287,-3,-12,14,9,9,5,6,20
1514948391033287,-5,12,-9,7,-8,-4,-4,-16
1514948391046296,-14,-7,8,4,-1,1,-1,-8
1514948391046296,-6,-2,2,2,13,3,-1,-13
1514948391053303,8,6,-3,12,-5,-3,-3,-3
1514948391053303,6,2,-21,-12,-2,2,0,-9
1514948391069314,-1,-6,13,-3,4,-5,0,-2
1514948391069314,-5,14,6,22,-5,-2,-2,2
1514948391072326,3,10,-4,-28,7,0,-1,-9
1514948391072326,11,2,21,35,8,3,-2,-14
1514948391092330,6,14,-7,2,-4,0,2,6
1514948391092330,-6,-16,-19,-16,-2,2,5,23
1514948391096332,-11,-1,7,-5,-8,-5,-3,-15
1514948391096332,-12,-3,-19,-16,0,-5,-2,-5
1514948391106341,10,5,-12,-7,3,6,-1,-15
1514948391106341,2,0,1,15,-10,-6,-4,-10
1514948391113344,1,-1,2,3,-2,-2,-5,0
1514948391113344,-4,-4,3,-13,-1,-1,-3,-10
1514948391129355,-9,2,-8,1,-10,-11,-5,2
1514948391129355,8,2,4,-12,4,8,2,9
1514948391131357,4,0,-10,5,-9,-11,-8,1
1514948391131357,-12,-5,15,7,-8,-4,-4,4
1514948391152372,12,-7,-13,-6,1,-2,-2,-4
1514948391152372,-1,-3,12,3,1,2,0,-12
1514948391153373,-2,-2,10,6,3,0,3,3
1514948391153373,-7,1,-45,-10,-14,-2,0,3
1514948391166382,-5,0,0,-12,-3,0,-2,7
1514948391166382,0,4,-3,9,2,-7,-5,8
1514948391173387,-6,-14,6,22,-14,0,2,-21
1514948391173387,2,-4,20,7,6,3,4,17
1514948391189402,-3,0,-6,-31,-1,2,3,13
1514948391189402,22,14,8,10,-7,-11,6,32
1514948391193401,5,13,-16,0,-1,2,-3,6
1514948391193401,-3,-8,7,25,3,-4,2,4
1514948391212414,17,4,16,-3,-2,2,3,9
1514948391212414,0,-6,-18,0,-2,0,1,6
1514948391213417,-4,2,4,-12,4,-3,-2,11
1514948391213417,1,-4,1,4,-6,-6,-3,6
1514948391225424,-1,-5,3,6,10,4,1,7
1514948391225424,-17,0,-9,-16,-5,-1,-3,-10
1514948391235432,-3,-9,0,5,5,1,1,-12
1514948391235432,14,18,9,6,2,-1,-4,-13
1514948391249450,-5,0,-13,-7,-15,-6,-6,-10
1514948391249450,1,8,10,11,7,-1,-2,-6
1514948391251452,-7,-26,16,-46,-1,7,0,2
1514948391251452,-2,-2,20,20,12,-3,-4,-9
1514948391272461,-2,-1,7,-20,-1,-1,-2,3
1514948391272461,-6,-6,-17,1,-9,1,3,-9
1514948391274468,6,15,-7,-10,-7,-3,2,2
1514948391274468,5,9,-13,1,-10,-7,0,12
1514948391285465,-1,-9,-3,1,9,6,0,-4
1514948391285465,0,-11,0,-10,-9,-7,-2,5
1514948391294484,-12,3,-10,-7,-5,-4,0,-18
1514948391294484,-7,0,-9,-10,-8,-7,-1,17
1514948391309482,8,17,19,18,6,4,-1,-11
1514948391309482,-6,-13,2,-13,-3,-8,-2,1
1514948391311484,-9,-23,-1,17,-1,1,-6,-14
1514948391311484,3,-6,12,11,10,5,2,-4
1514948391331511,-12,-1,-32,-13,-13,-14,-6,0
1514948391331511,-4,12,16,7,-3,1,-3,-17
1514948391333501,-1,-4,-53,-1,1,4,0,3
1514948391333501,-2,2,-19,-21,-8,-5,0,-3
1514948391345508,0,-17,0,-7,0,-1,2,-1
1514948391345508,-6,2,-23,-15,9,-1,3,0
1514948391354516,3,8,7,20,5,-2,-1,-6
1514948391354516,7,5,-9,-18,-7,0,0,11
1514948391369537,-19,-49,-6,12,5,3,-3,0
1514948391369537,-2,2,29,2,-7,-3,0,-13
1514948391371526,2,4,6,-11,-6,-3,1,12
1514948391371526,-8,-5,-2,7,6,2,-4,-18
1514948391393542,-11,1,24,16,2,-4,1,10
1514948391393542,14,3,-5,2,0,6,2,6
1514948391396553,-8,5,-19,5,-5,-10,-7,9
1514948391396553,-7,-28,-34,-5,-8,-3,-1,-14
1514948391405551,6,17,5,-1,-2,-1,1,3
1514948391405551,0,7,18,1,-5,0,-2,-17
1514948391414557,6,12,-2,-10,7,6,4,14
1514948391414557,-8,-7,-18,-13,-4,3,-4,-16
1514948391429578,5,21,-3,6,-3,-7,0,2
1514948391429578,-3,-8,-2,6,-8,0,-6,-2
1514948391430578,6,-6,14,7,1,1,-1,-2
1514948391430578,4,4,19,7,5,-1,-2,4
1514948391451584,7,3,4,-5,-5,0,-1,-2
1514948391451584,0,-6,-45,-8,5,2,-2,10
1514948391453585,3,2,25,2,-6,-1,-2,-1
1514948391453585,-4,-3,15,1,-5,-5,-4,15
1514948391465592,15,12,4,4,3,2,0,-3
1514948391465592,-3,10,-10,-8,-4,1,-1,-1
1514948391474600,-7,-20,5,0,-4,-8,-2,1
1514948391474600,0,9,5,-15,0,1,0,5
1514948391490634,-6,-11,-7,1,-8,-3,-1,-13
1514948391490634,-3,10,10,13,15,4,3,0
1514948391494614,5,12,17,20,-24,-5,-5,4
1514948391494614,-21,-19,1,-43,-12,8,-5,-38
1514948391511635,-2,-4,-3,-2,7,-9,2,5
1514948391511635,-14,-11,-3,1,6,6,-4,-8
1514948391513628,-1,1,-5,18,5,8,4,-6
1514948391513628,9,-6,19,6,7,-4,1,13
1514948391525646,11,30,-17,-6,-6,-7,-5,-5
1514948391525646,-4,-12,-9,-12,-11,-5,-3,1
1514948391534647,-13,-31,-33,-9,9,-1,-2,-6
1514948391534647,10,11,7,12,2,-2,2,9
1514948391549654,-5,-10,-10,-3,0,8,-1,-19
1514948391549654,13,-4,33,-2,-6,-6,-3,-6
1514948391552654,-18,13,-19,-4,4,8,1,-1
1514948391552654,2,-2,0,1,1,-3,0,-11
1514948391572671,-4,2,12,4,-6,-4,-1,4
1514948391572671,0,-6,1,-7,-2,0,-4,-3
1514948391574674,3,7,6,7,0,2,-3,-12
1514948391574674,5,-2,1,2,6,-2,0,8
1514948391586679,-12,-10,-10,-27,-11,0,-1,-13
1514948391586679,-5,-31,8,1,-6,-1,-1,3
1514948391594684,5,14,2,-4,-2,-5,3,-12
1514948391594684,5,12,24,14,5,-5,-2,6
1514948391609707,-4,-9,8,5,-3,-1,-2,5
1514948391609707,-1,-1,-9,-9,0,-5,1,-4
1514948391610696,5,1,3,-2,-3,2,0,-2
1514948391610696,-4,-4,-3,-7,-2,-2,0,2
1514948391631719,-6,-13,38,3,1,-1,-2,0
1514948391631719,-4,5,1,6,-5,-2,-1,1
1514948391635714,-3,-13,7,1,9,5,-1,-1
1514948391635714,-6,4,-14,-6,-16,-10,-3,5
1514948391645720,5,1,-35,0,21,2,0,3
1514948391645720,-6,13,7,7,-3,-1,-5,-11
1514948391654726,2,-14,33,-8,-9,-5,1,5
1514948391654726,0,4,-7,-4,6,2,-2,-5
1514948391669750,-4,-4,-8,5,1,-2,-3,1
1514948391669750,11,8,19,19,9,4,1,4
1514948391670739,-9,3,-38,-25,-4,-8,-3,16
1514948391670739,5,-1,2,6,2,-1,3,2
1514948391692754,-2,-7,-10,-2,-8,-1,-1,-4
1514948391692754,-9,2,-26,-12,6,-2,-1,-12
1514948391696770,8,15,18,11,1,4,-1,-13
1514948391696770,-4,-12,1,7,1,-2,2,4
1514948391714781,-5,0,-7,-7,-3,-3,0,6
1514948391714781,-1,-1,0,0,-5,-1,1,7
1514948391715781,0,-29,0,-2,2,-4,-1,2
1514948391715781,6,11,-11,-4,5,-3,-3,2
1514948391729790,2,0,4,-2,-5,-1,-1,-6
1514948391729790,-1,-7,3,1,-1,0,-1,2
1514948391730793,9,10,2,-3,6,2,-1,-2
1514948391730793,-2,-2,-4,4,-2,-1,3,2
1514948391751805,1,-6,3,7,0,-2,0,6
1514948391751805,-7,-3,12,-15,-2,3,1,-1
1514948391753807,-1,9,12,-6,-12,-6,-1,-6
1514948391753807,4,4,-9,3,3,2,-3,3
1514948391782817,2,-7,9,2,-2,0,3,14
1514948391782817,-3,-13,-21,3,-4,-5,-2,-18
1514948391786820,6,5,1,-1,-1,-1,-1,0
1514948391786820,-4,-2,-2,-2,1,-1,-2,4
1514948391789824,-2,-8,-16,-2,-1,0,-4,-4
1514948391789824,1,7,25,4,0,1,3,7
1514948391795826,-7,3,7,2,-9,-6,-2,0
1514948391795826,-2,-1,5,2,2,3,-1,-17
1514948391811847,1,5,-19,4,-5,0,-1,-17
1514948391811847,-3,-2,-6,-2,3,1,-1,-1
1514948391813841,2,9,3,4,4,4,0,-4
1514948391813841,1,6,-3,-9,-6,-5,-3,-1
1514948391833865,-2,-8,8,-16,-3,1,0,0
1514948391833865,-2,-5,-31,11,0,1,0,-4
1514948391840858,2,9,-1,6,5,-4,-1,1
1514948391840858,4,-6,-11,8,4,5,-1,2
1514948391848864,-1,0,-10,-12,2,-1,-3,1
1514948391848864,3,4,21,-2,-4,-4,0,5
1514948391855870,-5,-19,-27,-1,-2,1,-2,2
1514948391855870,0,-6,-2,1,2,0,1,16
1514948391871898,-3,3,-4,3,-7,-1,-4,-16
1514948391871898,8,2,-13,-5,1,-1,-1,21
1514948391873882,4,-1,4,0,0,-1,1,1
1514948391873882,-4,0,5,4,-10,-7,-4,-13
1514948391894906,2,3,15,-10,6,10,1,11
1514948391894906,4,7,6,0,-3,-5,-4,-2
1514948391896899,-16,-42,-39,-4,-1,2,-1,-18
1514948391896899,-1,-2,-4,3,-3,-4,2,6
1514948391908917,1,-3,-3,-5,4,1,-3,7
1514948391908917,0,14,2,13,-1,0,-2,-18
1514948391922921,-1,3,-8,-9,-3,2,1,2
1514948391922921,-8,2,-11,-7,-3,-3,-2,-3
1514948391931922,-5,-1,18,14,1,-4,-3,2
1514948391931922,-3,-9,34,-6,-4,-4,-1,4
1514948391935925,1,13,-7,-5,-6,-6,-1,-3
1514948391935925,1,-9,-36,-14,0,4,-1,-7
1514948391953977,6,9,2,12,9,4,0,-7
1514948391953977,-4,2,23,-4,-5,-4,0,7
1514948391955943,6,15,-18,-4,-4,2,0,-5
1514948391955943,-1,9,15,5,11,-6,-5,4
1514948391968963,-1,0,-35,-7,-5,1,-2,0
1514948391968963,-1,-4,0,5,-3,-2,-1,-22
1514948391975964,2,4,13,1,6,2,-2,13
1514948391975964,-4,-7,-9,-3,-5,-3,-2,-4
1514948391992966,4,6,-3,-5,3,-6,-1,5
1514948391992966,-9,-14,-15,-6,-5,-1,-4,0
1514948391995969,3,3,14,6,-3,-6,3,17
1514948391995969,-4,-1,11,0,-3,3,4,-3
1514948392013982,-7,-2,-17,-11,-3,0,4,-2
1514948392013982,1,-12,-21,-1,2,3,-4,-5
1514948392015982,-10,7,-4,0,4,-2,0,6
1514948392015982,0,-14,35,4,-2,0,-2,-17
1514948392029003,-6,-15,6,-1,-7,-7,1,-2
1514948392029003,2,3,-15,-7,0,-4,-2,2
1514948392034995,0,-1,26,-2,-5,2,-1,0
1514948392034995,8,3,-8,-5,3,1,2,-2
1514948392052017,-4,-8,9,10,-4,-10,-5,-5
1514948392052017,0,-1,-7,-6,-1,4,0,4
1514948392054025,-1,2,77,8,2,-7,-7,-1
1514948392054025,-3,5,-6,-8,-8,-1,2,-21
1514948392074023,-5,1,17,-5,2,0,-2,0
1514948392074023,2,6,20,11,-5,-4,-1,10
1514948392076024,-3,-1,-27,-6,9,4,0,-6
1514948392076024,-3,1,-27,-4,0,-1,-4,12
1514948392090035,7,-6,-3,9,1,-1,-1,-20
1514948392090035,-6,1,-14,2,1,0,-2,11
1514948392097039,2,13,-5,0,-4,1,1,-10
1514948392097039,1,-11,15,-1,0,1,3,5
1514948392112059,-10,-10,-24,-7,-8,-6,-2,0
1514948392112059,10,-10,-14,2,2,7,4,4
1514948392114053,-9,-6,-31,-15,-6,-5,-3,-17
1514948392114053,-4,9,-2,-4,6,-3,1,7
1514948392135067,-4,0,-4,4,-13,-2,-5,-9
1514948392135067,1,9,9,0,0,0,-1,5
1514948392138068,-1,-4,-16,6,-2,-2,0,-4
1514948392138068,3,4,-1,-26,-2,2,1,-4
1514948392149076,6,26,44,0,1,-5,2,3
1514948392149076,-11,-25,-9,5,-9,-6,-5,-9
1514948392163086,9,11,-19,-14,10,7,2,3
1514948392163086,-10,-29,-1,8,-8,-4,-6,3
1514948392172092,1,-9,3,-4,0,0,2,3
1514948392172092,6,2,-13,-12,5,4,1,-1
1514948392174095,0,11,3,9,-12,-7,-3,-5
1514948392174095,0,5,7,-3,-9,-6,-4,4
1514948392195108,-4,2,-1,-2,8,5,-1,0
1514948392195108,-10,-34,-19,3,-2,2,2,-25
1514948392197114,1,-4,14,-1,4,5,1,-7
1514948392197114,-9,-5,6,-3,-4,-10,-3,5
1514948392208120,3,0,3,-2,-3,0,1,-12
1514948392208120,1,20,4,-1,3,2,-3,1
1514948392217125,-2,-35,11,11,4,1,1,1
1514948392217125,5,9,41,0,5,-3,1,5
1514948392232137,-2,-2,23,1,-7,-4,1,4
1514948392232137,1,4,-40,-13,0,-3,0,-3
1514948392233136,-6,0,-2,-1,-2,2,-5,-5
1514948392233136,-1,-8,15,13,-2,-2,1,2
1514948392254163,-2,-1,-4,2,0,1,-4,-8
1514948392254163,-6,-1,-6,-9,-2,1,0,3
1514948392256153,-2,0,2,6,-5,-3,1,5
1514948392256153,-1,-1,-22,-11,-10,-4,-5,8
1514948392268160,0,5,16,14,10,-1,-4,2
1514948392268160,4,2,23,-2,-5,-1,1,1
1514948392277166,-7,-10,31,8,-1,0,0,-19
1514948392277166,5,-7,-70,-18,-5,-2,2,-6
1514948392292189,-1,-10,-5,-3,-1,3,-2,10
1514948392292189,4,18,20,-2,-2,-8,-1,2
1514948392293211,-6,-11,12,3,-6,-4,-6,1
1514948392293211,6,8,2,-2,9,10,3,-5
1514948392314203,2,-5,-50,-4,-4,0,0,-2
1514948392314203,-7,-1,-12,-7,3,-3,1,5
1514948392316207,-5,4,-24,-9,-5,-1,0,-16
1514948392316207,-2,0,1,10,2,-3,1,-2
1514948392328202,-1,12,-15,-3,-2,1,-1,4
1514948392328202,-2,17,-15,-2,5,3,-3,-2
1514948392338209,2,-12,-31,-12,1,1,-3,9
1514948392338209,-2,3,7,2,2,-5,-2,0
1514948392352233,-1,2,20,6,2,-2,-1,-24
1514948392352233,4,-11,-3,4,-2,1,1,2
1514948392353221,0,4,16,1,-2,-1,-1,19
1514948392353221,-8,-11,12,1,-8,2,-1,-17
1514948392374236,3,-1,-9,7,4,-5,-2,-5
1514948392374236,-3,-6,-2,-7,0,0,-3,-2
1514948392376236,-5,2,-19,-3,-5,-6,-3,4
1514948392376236,-3,11,17,1,2,1,-1,0
1514948392388261,3,-10,3,-2,-5,-3,-3,5
1514948392388261,1,-8,-13,5,3,1,-3,-16
1514948392397251,9,-8,32,-4,1,-1,3,9
1514948392397251,-10,-2,27,9,-2,-2,-4,1
1514948392412274,-1,0,-19,-5,-1,1,1,2
1514948392412274,-14,-10,-33,-9,4,1,-1,-1
1514948392413276,6,2,27,8,2,0,-2,7
1514948392413276,-2,-3,-24,0,-7,-3,1,-22
1514948392434279,3,-5,19,-6,6,5,2,30
1514948392434279,-2,-6,-9,-17,-13,-1,3,-12
1514948392438281,7,16,-19,-1,0,0,0,13
1514948392438281,-2,-2,2,10,9,2,0,-1
1514948392448292,1,-2,2,-7,-11,0,-1,6
1514948392448292,1,10,12,4,-3,-6,-2,9
1514948392457297,13,0,-30,-1,0,-7,-1,9
1514948392457297,1,5,-7,-6,2,6,2,-27
1514948392472307,-1,10,2,14,4,-1,-1,10
1514948392472307,2,1,17,-23,-8,-5,-3,-6
1514948392473306,-3,-9,-25,0,-1,-2,-1,-11
1514948392473306,3,4,-4,1,8,4,-2,16
1514948392495325,2,0,3,-3,1,-4,0,-11
1514948392495325,5,4,10,23,-5,-3,0,-1
1514948392496324,-11,2,-4,-11,12,6,-2,-23
1514948392496324,4,6,5,-5,-4,-7,3,24
1514948392508333,-4,-7,7,-6,3,-1,1,-12
1514948392508333,9,6,-1,10,1,-1,-5,10
1514948392517340,-11,7,-1,-15,-3,0,-3,-28
1514948392517340,-6,-21,22,12,-2,-2,-1,8
1514948392532348,7,2,-13,-18,-2,5,6,5
1514948392532348,-7,-10,20,14,-5,-7,-7,-30
1514948392534350,0,-6,-22,5,8,2,1,-3
1514948392534350,-2,-5,-1,-14,-7,-4,-5,20
1514948392562371,-5,-4,4,6,-1,1,-1,-5
1514948392562371,5,15,7,5,4,1,5,17
1514948392563372,-1,2,-24,-8,-2,-2,-1,-5
1514948392563372,-2,-5,-13,9,0,-1,-2,4
1514948392568386,-4,10,-23,-18,-7,1,-1,7
1514948392568386,-6,2,1,9,4,0,-3,-8
1514948392577379,4,-2,-21,2,1,-6,-3,14
1514948392577379,0,5,-3,-24,-6,-3,-3,2
1514948392592391,-4,2,0,5,-3,-3,-4,-15
1514948392592391,-4,-16,23,6,7,4,0,2
1514948392593397,-2,2,-2,-14,-5,1,-3,4
1514948392593397,2,9,-12,2,0,-1,-4,-10
1514948392614405,-2,-6,-3,5,-6,-2,-2,-4
1514948392614405,-14,-5,-13,-5,-6,-3,-1,-8
1514948392616411,4,1,35,6,-9,-8,-1,-2
1514948392616411,11,-1,-33,-10,4,2,1,8
1514948392637424,-10,-3,-10,-4,-7,0,0,-34
1514948392637424,1,-2,8,-1,2,1,-2,5
1514948392638426,5,-3,4,4,0,0,-3,20
1514948392638426,-1,2,-8,-1,-2,-1,0,-12
1514948392651432,0,-3,8,6,1,-3,0,23
1514948392651432,1,-4,-8,6,-9,-3,-2,-25
1514948392658453,-11,-16,5,-12,-4,3,-1,7
1514948392658453,2,1,8,0,-3,-5,-2,-2
1514948392675450,2,9,4,1,7,2,0,7
1514948392675450,1,6,0,2,-6,-7,-1,9
1514948392679455,-3,3,12,9,6,5,2,2
1514948392679455,-3,5,12,-12,1,0,-1,-5
1514948392697467,-5,2,0,13,-4,-6,-1,-3
1514948392697467,5,-1,11,-6,8,5,0,20
1514948392698466,-5,-10,10,1,-4,-5,-5,-14
1514948392698466,11,4,8,5,2,-1,1,31
1514948392711474,-3,10,13,5,-4,-1,-6,-17
1514948392711474,-8,-8,-7,-9,-3,-2,-1,3
1514948392713474,1,1,8,-1,-2,-2,-2,-7
1514948392713474,-7,1,-18,7,-9,-2,0,-4
1514948392734490,1,0,14,-22,14,5,-4,18
1514948392734490,-16,-21,-15,3,0,4,3,-23
1514948392735490,-3,8,13,4,2,-4,3,-4
1514948392735490,-5,-2,10,-4,4,0,0,-14
1514948392756508,10,-6,-15,2,-7,-1,1,12
1514948392756508,-1,11,-5,-6,7,2,-3,9
1514948392759517,3,9,5,4,3,-1,-2,4
1514948392759517,2,-15,-7,0,-2,0,-5,0
1514948392772517,-11,-7,5,8,-5,-1,2,-15
1514948392772517,14,10,-8,-18,0,-2,0,12
1514948392779523,3,6,-8,9,-8,-5,0,11
1514948392779523,2,-4,-21,-4,4,5,-1,-6
1514948392794538,11,-1,4,-5,2,0,-4,9
1514948392794538,-4,-6,-7,10,-5,-3,-1,0
1514948392796537,-10,-3,-35,-5,-2,-2,-2,-20
1514948392796537,7,-2,0,-5,4,-2,3,11
1514948392816548,-1,-5,-8,2,-10,-6,-4,1
1514948392816548,-4,-1,-2,-12,-5,-1,1,-3
1514948392818550,9,-9,0,-1,-4,4,1,10
1514948392818550,-8,-1,18,-2,-1,1,1,-4
1514948392831563,-5,6,4,7,3,-5,-4,-5
1514948392831563,1,-6,5,6,-3,-2,-1,12
1514948392838564,-4,-4,-33,-36,-6,-1,2,5
1514948392838564,5,5,-20,3,-4,-2,1,-5
1514948392854574,-8,-2,-16,3,2,4,3,-54
1514948392854574,1,-3,5,6,-5,-7,-1,-5
1514948392856579,3,2,10,10,9,6,3,5
1514948392856579,-16,2,4,-4,-9,-3,-7,-22
1514948392876594,-2,-1,11,4,-3,0,-3,9
1514948392876594,-2,3,-11,3,15,1,0,-11
1514948392878595,-3,-6,14,-2,-2,-1,-3,-19
1514948392878595,-1,-5,-9,10,-3,-7,-1,4
1514948392891607,4,3,25,4,-5,3,2,-12
1514948392891607,-1,0,-6,-13,-5,3,-2,-27
1514948392897607,-8,0,1,-9,-4,-4,2,11
1514948392897607,-8,-12,-34,-6,-1,-1,1,11
1514948392914620,-2,-4,-24,2,-3,-1,0,-9
1514948392914620,4,2,12,-3,-3,2,-2,17
1514948392916622,-5,4,1,8,-4,-9,-2,-24
1514948392916622,-5,0,7,-20,0,1,1,-6
1514948392936632,0,-5,2,0,0,1,-1,13
1514948392936632,2,-2,1,9,-1,0,-2,-3
1514948392938634,3,-9,-4,2,-1,-4,-1,13
1514948392938634,-1,1,14,20,-1,0,0,9
1514948392951643,-6,-8,-18,-6,8,1,0,6
1514948392951643,-3,-3,13,-4,-6,-9,-2,-4
1514948392958649,0,-5,1,1,2,1,-1,15
1514948392958649,5,4,17,-3,-1,0,0,-1
1514948392974660,-1,-5,-11,-10,-3,-1,0,2
1514948392974660,-5,-4,-9,5,-1,0,0,6
1514948392975662,6,2,1,-2,0,0,1,24
1514948392975662,-11,-3,-25,1,-1,-3,-5,-23
1514948392996675,-6,2,-8,-8,-9,-7,2,14
1514948392996675,0,-2,23,10,0,0,0,-6
1514948392998677,-1,2,-9,-3,3,2,-5,-9
1514948392998677,5,2,15,-3,-1,1,-2,1
1514948393011685,-3,-8,6,5,-1,-2,-1,-3
1514948393011685,6,9,0,-6,-1,-1,1,12
1514948393017690,-14,-1,-7,20,5,0,0,-38
1514948393017690,-1,-13,4,-26,3,0,-1,12
1514948393034701,-3,5,-8,-1,-1,-1,-3,0
1514948393034701,0,5,4,3,-3,-6,2,23
1514948393035705,-10,-7,-8,-6,-7,4,-1,-29
1514948393035705,1,-2,11,11,8,5,-1,-26
1514948393057719,-1,0,-11,0,-2,1,0,0
1514948393057719,4,4,-10,2,1,-2,-3,5
1514948393061721,6,4,13,-7,7,-1,2,26
1514948393061721,-1,-1,-26,12,-5,-4,-3,9
1514948393070751,-2,-6,3,-10,6,5,-2,-14
1514948393070751,3,-3,-13,0,-2,2,-1,-11
1514948393077741,3,1,-6,-2,1,-6,0,12
1514948393077741,2,-1,11,-2,-7,-2,-1,0
1514948393094745,5,-4,18,15,9,4,1,17
1514948393094745,-6,7,-6,-18,-4,-5,-2,-16
1514948393096749,1,3,7,1,1,3,1,15
1514948393096749,8,8,16,11,4,-4,1,-10
1514948393116794,-1,7,-50,-18,-16,-8,0,29
1514948393116794,4,5,7,-7,18,11,3,-9
1514948393118762,3,3,-58,-17,-8,-10,-4,20
1514948393118762,3,0,23,6,-2,1,1,6
1514948393130769,-1,1,33,9,0,-3,-1,-5
1514948393130769,-8,-12,4,8,1,2,-1,12
1514948393139779,-5,-1,7,-15,-4,0,-2,-12
1514948393139779,1,5,-14,4,6,0,-3,11
1514948393154791,-2,-11,-6,-6,-9,-6,-1,-15
1514948393154791,-6,0,5,-3,-3,0,0,4
1514948393156792,-7,-4,22,9,8,2,-1,-17
1514948393156792,-6,0,1,-5,-3,-1,1,-9
1514948393176802,4,-1,14,6,-9,-3,-3,-6
1514948393176802,2,-7,6,3,-1,1,-3,-7
1514948393178815,-3,-4,-37,-4,-4,0,-1,-1
1514948393178815,0,-2,0,9,-9,-12,-2,15
1514948393191821,-10,-1,-16,-26,12,12,1,2
1514948393191821,-6,-12,9,11,-6,-7,-1,-12
1514948393199819,-2,3,-22,-2,1,1,0,-7
1514948393199819,-4,-2,-1,0,-10,-5,0,0
1514948393214829,-6,-1,11,-6,1,0,-2,-3
1514948393214829,-6,5,-4,0,-8,-5,-8,-1
1514948393215839,-2,-4,13,-7,-5,-2,0,4
1514948393215839,-4,-4,-14,-2,5,0,-1,-13
1514948393237848,8,-1,44,21,-2,-2,-3,12
1514948393237848,-7,-2,-5,-20,-1,4,-2,-8
1514948393238846,2,1,32,-6,-1,-4,-2,13
1514948393238846,-3,0,0,-1,2,1,0,-2
1514948393250856,12,4,22,-8,-7,-10,-4,3
1514948393250856,-2,-2,-12,0,-1,6,-1,-3
1514948393259861,1,-3,-5,0,-5,-6,0,8
1514948393259861,-2,2,6,-6,10,2,-1,-20
1514948393274871,-11,-2,-22,-2,-8,-3,-5,-12
1514948393274871,-5,-9,2,-2,-6,-6,1,-4
1514948393275882,2,-1,2,4,4,2,-1,-9
1514948393275882,-6,-5,-2,-4,-1,0,0,7
1514948393296887,7,0,-6,6,-4,-2,1,-4
1514948393296887,2,5,-28,-6,1,-5,-1,15
1514948393298889,-2,-3,21,12,-5,2,-2,-8
1514948393298889,-8,-2,-33,-14,-8,1,-1,-22
1514948393310897,-2,5,-8,-5,2,2,0,1
1514948393310897,6,4,7,1,-6,-5,-1,6
1514948393319903,-2,1,11,6,-1,-3,-1,-10
1514948393319903,-1,7,-2,-2,1,4,-2,9
1514948393333913,-6,-4,-7,-8,-2,1,0,-9
1514948393333913,-1,-1,-10,4,0,2,5,1
1514948393335915,-3,2,-16,-8,1,-2,-4,-4
1514948393335915,12,-1,14,10,1,1,3,31
1514948393356931,-13,-4,-57,-6,-7,3,0,-41
1514948393356931,-8,-6,30,14,10,1,1,-14
1514948393358932,3,1,19,-4,-1,-2,2,5
1514948393358932,-2,1,-10,-6,-1,-2,-2,14
1514948393370941,5,1,16,10,1,-2,-2,1
1514948393370941,-3,-10,-49,-9,-1,3,-3,-4
1514948393379954,-5,-1,2,4,-3,-2,-3,-11
1514948393379954,-1,3,11,2,-1,-1,1,-12
1514948393394956,-1,-7,0,1,2,-6,3,16
1514948393394956,-1,3,6,0,-9,1,-2,-7
1514948393397961,-3,-5,1,-4,5,3,-1,-8
1514948393397961,-3,0,-1,-5,-3,-2,-3,-9
1514948393416971,2,-6,-7,-1,-5,-1,-3,15
1514948393416971,6,-3,-7,3,1,-1,0,4
1514948393417972,0,-9,-4,3,3,1,4,6
1514948393417972,0,5,21,5,0,-1,0,-5
1514948393430981,-3,1,5,-9,-4,-2,0,-3
1514948393430981,-6,2,-6,4,-1,2,-4,-10
1514948393440989,4,0,19,-11,-3,-3,0,17
1514948393440989,-9,-13,-2,3,-3,-2,-2,-21
1514948393453998,-2,7,-3,-1,3,-1,2,13
1514948393453998,-1,0,-4,1,-1,1,-1,-33
1514948393457001,-8,-2,9,-7,-6,-6,-1,-14
1514948393457001,0,-4,-6,-5,0,-2,0,26
1514948393477014,-10,-1,-6,25,-1,2,-1,-13
1514948393477014,3,4,-33,-39,-9,3,2,-13
1514948393478015,14,8,-7,5,3,0,-2,8
1514948393478015,-3,-2,-6,3,5,0,2,7
1514948393491024,-9,-7,10,3,-3,-1,-3,-22
1514948393491024,2,6,26,17,1,-3,2,23
1514948393500043,-1,-6,-13,3,-1,0,-4,6
1514948393500043,-1,2,-7,-24,-5,0,-3,-22
1514948393514053,5,-3,-5,1,-2,-1,-1,9
1514948393514053,-1,-7,15,4,2,0,-1,4
1514948393516041,-3,-1,-2,-14,-3,-5,-2,11
1514948393516041,-9,2,-5,6,-6,-4,-2,-13
1514948393537090,3,3,6,-7,-3,-3,0,10
1514948393537090,3,5,23,3,10,1,-1,-7
1514948393541060,1,0,25,4,-3,-1,1,10
1514948393541060,3,-10,-25,-5,7,0,0,9
1514948393559074,-1,0,20,-2,-3,-2,-1,-20
1514948393559074,-5,-9,10,4,-8,-2,-4,-29
1514948393562089,1,6,-41,5,4,1,-1,5
1514948393562089,3,4,24,-2,0,1,-2,0
1514948393574096,-2,-6,8,-2,4,1,0,6
1514948393574096,-2,2,-4,3,-11,-7,-4,8
1514948393576100,1,-4,-12,-15,3,3,-1,-11
1514948393576100,-2,0,-33,-9,-3,-5,-5,1
1514948393597100,3,-2,-18,7,4,-1,0,2
1514948393597100,5,2,36,5,1,0,-1,32
1514948393598101,-5,-4,-26,-5,-3,-1,1,13
1514948393598101,-7,-1,4,1,-1,1,-1,-8
1514948393619115,2,0,-3,-10,1,1,1,5
1514948393619115,2,1,-4,4,-1,-1,3,6
1514948393622117,-2,9,17,-2,-5,-5,-3,-3
1514948393622117,5,-4,9,-17,2,4,-1,5
1514948393634126,-1,1,-23,-6,0,0,-2,-4
1514948393634126,0,-5,-6,2,-4,-2,1,-1
1514948393636127,2,-4,-2,-1,4,-2,0,-12
1514948393636127,-4,4,10,8,-9,-7,-3,-18
1514948393657159,-4,-2,-2,-3,-4,-3,-3,1
1514948393657159,-5,-3,1,-4,1,2,-3,-16
1514948393658144,3,2,-6,10,-2,-4,1,9
1514948393658144,6,0,5,-7,0,1,2,-2
1514948393679157,1,-4,-1,4,0,-2,-2,-7
1514948393679157,0,2,-33,-17,-3,-2,1,17
1514948393681158,-7,-1,-15,8,-1,-3,-1,-7
1514948393681158,-5,-1,12,3,-2,2,-2,-33
1514948393695169,-10,-1,-10,-1,-4,-2,3,-16
1514948393695169,7,1,0,4,0,-4,-4,13
1514948393700185,-2,-1,-5,-13,1,4,1,-8
1514948393700185,1,10,5,-6,-4,-4,1,18
1514948393717184,-2,-1,8,6,4,0,0,-2
1514948393717184,-2,0,5,-2,0,-1,-3,-8
1514948393718184,-5,-6,9,10,-1,-2,-2,-8
1514948393718184,-3,-3,11,-8,-1,4,0,0
1514948393740209,3,-2,14,3,-6,-2,-2,8
1514948393740209,-3,0,-8,-10,0,2,-1,-2
1514948393743218,-2,-5,4,1,5,-2,1,7
1514948393743218,2,-4,-7,7,-3,-3,-2,2
1514948393754211,4,3,9,-5,-1,3,-2,-1
1514948393754211,-2,0,-18,-5,0,-4,1,-4
1514948393760216,-3,0,2,-3,3,3,2,-2
1514948393760216,6,6,14,11,1,-2,-1,12
1514948393777236,1,-7,-21,-3,3,2,2,14
1514948393777236,-2,-2,8,4,-1,0,2,1
1514948393778232,0,3,10,0,-8,-1,-4,-10
1514948393778232,-6,-7,-20,1,3,-2,2,-4
1514948393799252,3,1,3,0,0,1,-4,11
1514948393799252,-4,-2,8,1,2,0,-2,3
1514948393801254,0,-1,-13,-8,-3,-1,-2,3
1514948393801254,1,-3,-4,2,-3,-5,0,20
1514948393813275,1,-4,20,8,0,-1,-5,-8
1514948393813275,0,-3,10,1,0,1,1,-16
1514948393820270,-2,-1,7,1,-2,-5,-3,9
1514948393820270,-1,-4,-26,13,0,0,-1,-16
1514948393837307,-2,-5,-9,-46,2,1,4,0
1514948393837307,-3,2,-12,5,-4,-5,-2,-5
1514948393840283,6,6,-8,7,3,3,3,-19
1514948393840283,-8,-5,3,-7,-4,0,3,38
1514948393859299,1,5,-11,11,-8,-8,-4,-15
1514948393859299,-8,-7,-6,-11,1,2,-2,1
1514948393862296,-3,-4,0,-9,-3,2,-2,-5
1514948393862296,2,-1,-2,5,-3,-4,-2,-20
1514948393874296,-7,-3,5,10,0,5,3,20
1514948393874296,2,1,16,-11,-6,-5,3,8
1514948393880299,-2,-2,5,2,5,-4,-3,16
1514948393880299,-3,1,27,-2,-1,2,-4,-24
1514948393897318,3,2,16,5,-3,-6,-4,1
1514948393897318,9,1,-11,11,3,5,0,3
1514948393898313,0,-6,-3,-11,-5,-3,-1,4
1514948393898313,-5,1,22,-4,-4,-5,0,-14
1514948393919350,-3,1,10,11,5,2,1,6
1514948393919350,-1,-5,5,-2,-4,-6,-3,6
1514948393922329,-3,-6,-18,-2,1,-1,-2,-7
1514948393922329,1,-4,-1,-4,5,0,-3,4
1514948393934338,1,1,6,4,-7,-4,-6,5
1514948393934338,-2,6,-66,-6,-2,0,-1,-3
1514948393942344,-2,1,3,-10,2,-2,-2,-9
1514948393942344,-2,-4,-14,-1,-5,2,1,-12
1514948393957358,-3,-7,-16,-1,1,-1,-2,1
1514948393957358,-5,-1,3,-6,-5,2,0,-1
1514948393958355,-4,-4,0,-7,-9,-2,-3,2
1514948393958355,-3,3,0,7,2,-1,1,7
1514948393979379,5,5,-5,0,0,3,1,-12
1514948393979379,-5,-9,-15,5,0,-3,-2,8
1514948393982381,-4,2,15,5,-1,-3,-2,4
1514948393982381,-2,1,6,-8,-4,-1,0,5
1514948393993389,-7,-6,7,-5,1,0,0,-9
1514948393993389,-2,1,22,13,0,-4,-2,9
1514948394002395,-3,1,9,-3,-2,-5,-1,-5
1514948394002395,-2,-2,-15,0,10,0,0,0
1514948394016405,-1,-6,-12,6,2,-1,-2,-6
1514948394016405,-2,-3,20,-18,-7,-5,-2,10
1514948394018427,-1,-2,-23,12,-1,2,0,5
1514948394018427,-3,-4,-1,-3,-2,-3,-5,-15
1514948394039411,3,8,7,-8,-6,1,-1,-12
1514948394039411,-3,-4,-8,5,2,-1,-3,-5
1514948394041413,6,-3,-9,1,-6,-6,-4,8
1514948394041413,2,-1,14,5,-1,6,1,9
1514948394053421,-3,2,-3,-9,-3,-3,-4,2
1514948394053421,-1,1,8,3,1,-2,-2,-7
1514948394062448,4,-2,15,-1,0,2,-1,-4
1514948394062448,-2,-4,-12,1,-2,0,-3,6
1514948394076439,-9,-3,-1,2,-1,-4,0,-11
1514948394076439,9,3,1,1,0,-3,-2,4
1514948394078440,-2,0,12,-3,-3,1,2,-2
1514948394078440,1,1,7,-3,-2,0,-2,11
1514948394099464,4,3,-4,1,-3,-6,-3,25
1514948394099464,8,-2,-12,-2,4,2,0,22
1514948394100455,-6,3,-28,-14,-2,6,3,-1
1514948394100455,3,-1,-4,2,-5,-5,0,0
1514948394113464,6,-2,25,8,-3,-2,3,16
1514948394113464,-2,5,-7,-6,-2,-3,-5,-24
1514948394121470,-4,5,12,4,-1,-4,-1,0
1514948394121470,-2,-5,3,1,-1,-1,-1,13
1514948394136482,-8,-4,-4,-18,-3,3,-2,-3
1514948394136482,-1,1,6,4,2,2,1,-15
1514948394138481,1,-5,-35,-4,0,-2,-5,-3
1514948394138481,-8,0,4,0,-6,-3,-1,0
1514948394159498,2,4,-2,13,13,2,0,-2
1514948394159498,-4,1,4,-12,-7,1,4,3
1514948394160499,-2,1,19,3,-2,1,-2,-22
1514948394160499,-3,-14,-1,5,3,1,-2,3
1514948394173509,1,5,6,-6,-7,0,1,-10
1514948394173509,0,0,-1,-1,7,0,2,1
1514948394181512,-2,0,12,2,1,-3,1,-12
1514948394181512,-2,-2,-3,1,-4,3,0,-7
1514948394204542,-6,0,-16,-2,-2,-5,-1,-3
1514948394204542,-4,-3,-18,3,-6,-3,-5,14
1514948394205540,-2,1,4,-1,7,0,-2,-6
1514948394205540,1,-2,-5,0,-3,2,1,-14
1514948394219550,0,-1,-16,-8,-2,-1,-3,13
1514948394219550,2,0,4,-6,-10,-3,0,-4
1514948394220551,-6,-2,-3,-2,8,2,2,0
1514948394220551,0,4,-5,3,0,-1,1,5
1514948394232557,3,-5,0,6,-2,-2,-1,0
1514948394232557,6,4,-3,-2,3,3,4,-3
1514948394242559,-3,-6,-6,-18,-10,-4,-3,3
1514948394242559,5,3,-1,8,-3,-1,1,8
1514948394256577,-10,-5,-10,-5,1,0,-5,-20
1514948394256577,-7,-7,6,-1,0,-3,-1,-12
1514948394258568,3,-1,-4,2,-5,-1,-2,17
1514948394258568,0,3,-1,-10,-3,-1,-2,-9
1514948394280583,1,3,-32,12,-2,0,0,-5
1514948394280583,-3,-6,29,-1,-1,-4,-3,1
1514948394284600,-6,-3,-5,-11,0,3,0,-10
1514948394284600,-1,-1,3,-6,4,-1,-4,-15
1514948394292590,1,2,19,9,-1,-3,4,15
1514948394292590,-1,-3,-19,-15,0,-4,-5,0
1514948394301609,1,-3,5,14,-1,-6,-2,3
1514948394301609,-5,-5,0,1,1,2,1,-6
1514948394316620,1,0,-14,-11,-1,2,-1,5
1514948394316620,0,-5,-13,-3,-2,-1,-2,17
1514948394318611,-2,3,4,-1,-6,-4,-2,-6
1514948394318611,5,0,-44,-19,-6,-6,-5,1
1514948394339624,-2,-1,0,10,1,0,1,-14
1514948394339624,-9,-3,1,6,1,-1,0,-7
1514948394340626,1,-3,6,5,-4,-4,1,-8
1514948394340626,2,5,0,-8,2,3,0,0
1514948394352633,0,-2,9,-4,0,-1,-2,6
1514948394352633,-1,0,-11,-12,-4,1,-2,-3
1514948394361651,0,-7,-8,12,6,2,-3,-3
1514948394361651,-10,-2,-8,-9,1,0,-2,-12
1514948394376663,1,-6,-12,-17,-9,-4,3,7
1514948394376663,-1,0,21,7,3,-1,-1,2
1514948394378664,5,-1,-17,-3,0,-5,-1,22
1514948394378664,-2,-2,13,18,-3,-1,1,4
1514948394399667,-7,-10,-6,-26,-11,2,-2,-20
1514948394399667,4,2,-29,-6,1,-3,-2,17
1514948394400673,3,3,24,7,1,3,2,1
1514948394400673,1,-2,11,0,-2,-2,-3,4
1514948394412688,-5,1,5,2,4,-1,0,-8
1514948394412688,4,-8,7,10,2,0,-2,-12
1514948394421684,-1,-1,4,-12,0,1,-2,-6
1514948394421684,4,4,9,10,0,-4,0,3
1514948394436695,-1,-2,15,-2,-2,0,1,-8
1514948394436695,-7,2,-9,2,10,1,-3,-9
1514948394439707,-3,1,1,11,2,1,3,1
1514948394439707,-6,-7,-38,-18,-8,-5,-3,1
1514948394459713,1,1,6,8,4,2,-2,-14
1514948394459713,3,-1,-7,1,0,0,3,6
1514948394461723,-3,-2,-5,-10,-6,-3,-3,-28
1514948394461723,0,-5,9,-4,-2,1,1,8
1514948394472717,0,2,1,9,-3,-3,-5,4
1514948394472717,-6,2,-2,-15,-3,-2,0,-8
1514948394481726,-5,1,7,3,4,2,0,-4
1514948394481726,0,-5,10,17,-1,-1,-1,8
1514948394496750,-4,-1,5,-14,1,-2,-3,5
1514948394496750,-6,2,24,3,-9,-3,-2,1
1514948394502749,11,-3,-23,-15,-2,-2,-2,3
1514948394502749,-3,3,5,7,-1,-1,0,12
1514948394519751,-2,5,2,1,0,0,0,-8
1514948394519751,-4,-3,2,4,-4,0,0,-18
1514948394521752,-5,-1,8,-13,-13,-2,2,6
1514948394521752,7,-1,-11,-10,11,2,2,-4
1514948394541766,6,-5,8,13,6,0,-1,29
1514948394541766,-2,3,-28,-1,-3,-6,0,-15
1514948394543768,-5,-4,-14,-2,1,0,-4,-4
1514948394543768,-5,-4,-15,0,1,1,0,-12
1514948394556779,-2,0,2,-1,-4,-2,-1,-4
1514948394556779,2,-1,24,3,5,-2,3,-4
1514948394558780,-2,1,-27,-2,-1,2,-3,11
1514948394558780,-1,-3,10,-3,-3,1,-1,-6
1514948394579793,1,2,10,-4,-3,1,-3,2
1514948394579793,-8,2,0,-7,-4,-4,-1,12
1514948394580794,-2,1,16,9,1,-2,-1,-7
1514948394580794,1,-5,-13,3,-2,2,2,10
1514948394601819,-9,-5,-4,3,-2,-1,-2,-21
1514948394601819,-4,-6,12,-5,4,3,-2,-9
1514948394603811,-5,1,7,7,2,0,2,5
1514948394603811,1,1,6,-12,-5,-6,-3,2
1514948394616820,3,-1,-14,2,1,-2,1,10
1514948394616820,1,2,-11,1,-16,-7,-3,6
1514948394618821,-2,-6,-1,-6,23,6,2,-3
1514948394618821,-5,-2,14,1,-11,1,-3,-3
1514948394640837,-5,-1,-2,6,6,0,2,-14
1514948394640837,10,-3,-1,-14,-3,-5,-1,18
1514948394641839,3,2,0,-6,-6,-5,-2,-3
1514948394641839,-3,1,0,11,1,-3,0,10
1514948394661852,-1,-6,-2,-4,3,0,-2,1
1514948394661852,5,-1,-7,-1,1,0,0,7
1514948394663857,-1,0,-13,8,0,-3,-2,-10
1514948394663857,-3,-3,-6,0,-1,-2,0,3
1514948394675879,-3,-1,-31,-11,-8,-5,0,-16
1514948394675879,3,0,26,11,6,0,0,1
1514948394682867,4,1,3,3,-5,-2,-2,9
1514948394682867,-1,0,0,9,-1,1,1,-22
1514948394698887,4,-2,1,-1,2,-4,0,2
1514948394698887,0,2,-7,-14,-1,1,-3,-13
1514948394700880,-1,-3,-3,-3,-6,-2,3,-2
1514948394700880,-1,0,13,-15,-8,-3,-4,7
1514948394721912,-5,-2,10,17,1,4,1,0
1514948394721912,-3,2,-9,1,7,0,-1,-23
1514948394725907,1,-3,10,-4,-4,-3,-3,36
1514948394725907,-2,-2,-14,3,-1,0,-2,-18
1514948394735942,-1,2,1,-17,-8,-4,-3,-20
1514948394735942,2,2,-13,7,-5,-4,-4,5
1514948394742908,-1,-2,18,7,3,3,-2,8
1514948394742908,5,3,-5,-19,-2,-2,0,-5
1514948394759922,2,-1,-7,4,-3,0,-4,17
1514948394759922,-2,-2,-7,6,-6,-3,2,6
1514948394760924,4,0,11,-7,11,8,3,-1
1514948394760924,7,1,21,11,2,-2,0,0
1514948394781949,3,0,-8,-4,-4,-3,-2,1
1514948394781949,0,5,20,-6,-1,1,2,0
1514948394783938,-2,-1,-7,0,-10,-4,0,12
1514948394783938,-7,-3,-3,-2,7,-2,-6,-26
1514948394796947,2,0,-2,-6,-7,-1,-2,7
1514948394796947,3,2,14,3,5,2,-2,3
1514948394802952,4,1,-1,-4,-6,-5,0,-1
1514948394802952,-2,-2,-12,9,-1,0,-1,6
1514948394818962,-9,-4,10,-12,-1,-5,1,-2
1514948394818962,-6,-3,-4,-5,2,-2,-6,-3
1514948394820963,-3,1,-8,-7,-6,-6,-4,-11
1514948394820963,-6,-5,-6,5,0,-1,-1,2
1514948394841978,8,4,-1,6,4,6,0,-5
1514948394841978,-3,-8,-22,-22,-4,-1,0,7
1514948394842979,-4,-3,-6,-10,-3,0,1,-10
1514948394842979,-9,1,12,13,-2,-3,-1,-33
1514948394855988,0,-4,4,1,-5,0,0,-1
1514948394855988,2,2,-3,4,6,3,0,-2
1514948394863001,-7,-7,1,6,-3,-4,-5,-22
1514948394863001,-1,-1,-8,-3,3,0,0,6
1514948394879004,-2,-2,-10,0,-6,2,-2,-9
1514948394879004,-4,-1,2,18,-4,-4,-1,-6
1514948394881012,-7,-3,-10,-14,13,7,0,1
1514948394881012,0,-4,4,-6,-8,-3,1,2
1514948394902033,-3,-3,-3,-3,-2,-2,1,0
1514948394902033,-2,-7,4,9,-2,-2,0,6
1514948394903034,4,-3,-3,-8,4,-1,0,8
1514948394903034,1,4,-4,-4,0,2,-4,-5
1514948394916043,-1,-2,1,-2,0,-1,-4,-4
1514948394916043,-3,1,-16,0,-3,0,0,-1
1514948394923036,-1,4,-8,0,-2,-1,1,-10
1514948394923036,7,4,16,-1,-2,-1,-2,12
1514948394939047,0,1,19,7,3,0,-1,-26
1514948394939047,-4,0,3,5,3,-2,-1,-5
1514948394941062,-6,2,-6,-2,-3,-4,-3,10
1514948394941062,-1,-2,10,0,-4,-1,1,2
1514948394962073,-5,-2,5,4,-2,-1,-1,2
1514948394962073,2,0,1,-16,-2,-1,-2,13
1514948394963074,-4,-5,21,11,-5,-2,-4,-22
1514948394963074,0,-3,0,1,0,0,-1,-4
1514948394976083,1,0,-5,0,-1,-3,0,12
1514948394976083,1,-3,-3,-9,-2,-2,1,-7
1514948394983078,3,3,-5,-1,-7,-4,2,3
1514948394983078,4,3,-4,-5,4,0,5,13
1514948394999089,2,-2,0,2,-1,1,-1,0
1514948394999089,0,-1,-9,-9,5,1,-2,-2
1514948395001091,0,1,-4,12,0,-6,-2,3
1514948395001091,-1,-3,-4,-12,-13,1,-2,-7
1514948395022107,-3,2,0,-3,3,0,1,6
1514948395022107,2,-1,-21,-15,-3,-3,-2,13
1514948395024116,-4,-4,13,12,0,0,0,-3
1514948395024116,-5,3,-7,-10,-2,-4,-5,-7
1514948395044121,-5,-3,1,-2,-2,-3,-2,18
1514948395044121,4,-2,8,-5,0,-1,-1,-3
1514948395045122,2,2,-3,4,0,-3,2,1
1514948395045122,-7,-10,-17,-5,-3,-1,-1,0
1514948395059135,-3,3,-8,-4,1,0,-1,-13
1514948395059135,-3,-2,3,-4,0,-2,2,13
1514948395059135,-4,-2,-9,-7,-3,4,-5,-11
1514948395059135,10,1,9,3,3,0,-1,17
1514948395081147,0,2,-5,-4,-2,-1,-1,-2
1514948395081147,-2,-4,5,6,-3,-2,0,-8
1514948395082152,0,0,-12,-3,-1,0,-2,2
1514948395082152,-6,-3,-1,3,2,0,0,-2
1514948395104193,1,0,-2,0,-2,-1,-1,-3
1514948395104193,-2,2,0,8,-3,-3,-3,-3
1514948395105165,-1,1,2,-16,-2,-1,-3,-12
1514948395105165,2,-5,2,-6,-3,-3,-1,3
1514948395118186,-3,1,19,5,-1,-2,-1,3
1514948395118186,-3,1,-46,3,1,0,-2,-10
1514948395119175,2,0,11,-6,-1,0,1,-1
1514948395119175,-2,-2,0,4,0,-1,-2,-2
1514948395141193,3,1,-1,1,-1,1,1,-1
1514948395141193,-1,-5,0,-16,-3,-1,-2,-3
1514948395142190,-3,-2,-8,-10,-4,-3,0,-1
1514948395142190,2,3,-4,4,1,-3,-1,1
1514948395164231,-4,0,-13,-27,-7,0,0,-3
1514948395164231,2,0,14,11,5,1,-3,4
1514948395165208,-4,-4,2,4,-2,0,-2,3
1514948395165208,0,-1,5,8,2,-1,1,-3
1514948395178226,3,-3,-7,5,-1,-3,2,-2
1514948395178226,-3,-1,9,-5,1,0,-2,-4
1514948395179227,2,-1,0,1,-2,0,0,1
1514948395179227,-5,-4,-4,-4,-4,0,-1,-2
1514948395201232,3,-1,0,3,1,0,-2,1
1514948395201232,-4,-2,1,-3,-2,0,-1,-2
1514948395202233,-6,-3,0,5,-1,-1,-3,2
1514948395202233,0,-1,-3,8,1,-1,-1,-3
1514948395224250,-2,-3,-2,-5,-1,-1,-2,-3
1514948395224250,2,-2,8,-23,-3,-1,1,-3
1514948395225259,-2,2,2,16,0,-3,3,1
1514948395225259,1,6,-3,-8,0,1,-3,1
1514948395239261,-3,-4,-2,11,2,-1,-1,2
1514948395239261,-1,-2,1,5,-1,-1,-1,-2
1514948395241265,2,-1,1,-7,-2,-3,2,-1
1514948395241265,-1,1,-2,8,4,2,-2,0
1514948395261275,1,-4,-2,-8,-2,0,-2,0
1514948395261275,-6,-5,-3,-1,-1,-1,-1,-8
1514948395262276,0,-2,1,-1,1,2,-1,1
1514948395262276,-1,0,-5,-11,-12,-6,-3,-4
1514948395284294,-2,-3,-9,-22,-4,-2,1,0
1514948395284294,-4,1,9,25,7,1,-2,-1
1514948395286305,-1,-3,-8,10,-8,-1,-1,-2
1514948395286305,-1,-1,-2,-17,5,2,4,3
1514948395298311,0,-3,-1,7,-3,-1,-3,-4
1514948395298311,-3,1,1,6,1,-3,-1,3
1514948395299303,-1,-2,-5,-13,-2,-3,-3,1
1514948395299303,0,0,6,24,2,1,-1,-2
1514948395321330,-1,-4,-5,-19,-4,-2,-2,1
1514948395321330,-1,1,0,4,1,3,0,-3
1514948395322331,-4,-5,4,4,-2,-2,-3,-3
1514948395322331,0,-1,-3,5,-5,-3,0,-3
1514948395344334,0,2,7,23,2,0,0,0
1514948395344334,0,-1,-5,-27,-6,-1,-1,-5
1514948395345335,1,-2,1,-1,7,0,0,2
1514948395345335,-3,-2,-4,7,1,1,-1,-1
1514948395358356,-1,1,0,-20,-4,-3,-2,-3
1514948395358356,2,2,-4,6,-2,0,-1,0
1514948395359347,-3,1,-2,0,-1,-2,-2,-5
1514948395359347,2,-3,-4,-34,-3,-2,-3,-1
1514948395390367,-2,-1,-8,13,-4,-2,-1,-1
1514948395390367,0,-2,-6,-20,-2,-4,1,1
1514948395392367,-1,-1,11,24,1,-1,-1,1
1514948395392367,0,2,-1,2,-1,1,-1,-1
1514948395404376,-1,-4,-4,-2,0,-3,-3,-1
1514948395404376,1,-2,1,8,0,-4,-1,1
1514948395405376,1,0,9,25,2,2,-2,-3
1514948395405376,0,-3,-18,-67,-5,-4,1,-3
1514948395418386,2,-1,12,31,5,-2,0,3
1514948395418386,-2,-2,-1,1,0,2,0,0
1514948395419387,-3,-1,-1,-3,-1,0,-3,0
1514948395419387,0,-2,8,13,0,2,-4,0
1514948395441413,-3,-2,-4,0,1,-2,-2,1
1514948395441413,-2,-2,1,5,-1,-2,-2,-2
1514948395442403,1,-4,-10,-5,-1,-1,-1,-4
1514948395442403,-1,1,1,3,2,-1,1,0
1514948395465419,0,-3,-1,-26,-1,0,-1,1
1514948395465419,0,3,17,52,4,0,-3,2
1514948395466420,-3,0,-30,-62,-20,-7,-3,-11
1514948395466420,-3,-3,6,22,4,-1,0,1
1514948395478428,1,3,-1,16,3,2,0,0
1514948395478428,1,0,3,-3,4,-1,0,1
1514948395479429,0,0,10,8,1,-3,1,2
1514948395479429,-2,-1,-7,-14,-10,-3,-3,-2
1514948395501444,2,4,2,0,1,-1,0,2
1514948395501444,-2,-3,-8,-5,-4,-3,-1,-4
1514948395501444,-1,-4,5,-1,1,1,-1,-1
1514948395501444,0,1,0,4,0,-3,0,1
1514948395524463,-1,0,-3,-3,-1,-1,0,-1
1514948395524463,-3,-1,-4,-5,-4,-1,-1,-3
1514948395525462,2,2,8,-9,6,3,3,2
1514948395525462,-4,-2,-33,6,-14,-3,-2,-10
1514948395538470,2,1,8,6,6,0,-3,-2
1514948395538470,-6,-5,-15,-41,-9,-2,-3,-6
1514948395539477,-2,-1,10,15,2,-1,-3,-1
1514948395539477,-1,-1,-2,5,-1,0,-1,0
1514948395561505,0,-2,2,15,-2,0,-1,0
1514948395561505,-3,2,-10,-26,-3,0,-1,-2
1514948395561505,4,1,6,12,5,3,-2,1
1514948395561505,0,-1,4,-12,-4,-2,-3,0
1514948395585504,-2,-2,-11,-21,-1,1,0,2
1514948395585504,1,1,12,21,-1,0,2,1
1514948395587505,0,-1,-4,1,-2,1,-1,-1
1514948395587505,-2,-6,8,-13,-1,-2,-2,-4
1514948395598513,1,3,-3,-2,-1,-3,-3,-1
1514948395598513,1,-2,-2,0,1,0,-1,-3
1514948395599514,-2,-3,-2,-2,0,-3,1,-1
1514948395599514,-2,-1,-2,-2,-4,-2,1,-6
1514948395621529,-5,-5,4,12,0,-1,-1,-1
1514948395621529,2,-3,-2,0,-1,-2,-1,1
1514948395622530,-3,-6,-3,-4,-5,-1,-2,-5
1514948395622530,1,-1,11,10,4,0,-2,-1
1514948395644546,-2,2,-7,3,-2,1,-1,1
1514948395644546,-1,0,-1,0,-3,-3,-1,1
1514948395645546,-4,1,-7,-19,-6,-1,-2,-3
1514948395645546,1,1,0,10,1,-1,2,1
1514948395658555,0,-6,1,-11,-1,1,-2,-4
1514948395658555,0,0,-8,3,-2,-1,-2,-5
1514948395659556,1,-1,-2,-6,-4,0,2,-2
1514948395659556,-2,-2,-1,2,3,0,0,-1
1514948395681572,0,-4,-3,-4,-2,-5,-1,0
1514948395681572,0,0,1,0,1,-1,0,0
1514948395681572,-4,-3,0,5,1,0,1,-1
1514948395681572,-1,-3,0,11,-1,-2,-3,0
1514948395704588,1,0,5,15,3,-1,0,3
1514948395704588,-2,-2,-7,-8,-4,-2,-4,-3
1514948395704588,-1,1,0,-4,-2,-1,-1,-2
1514948395704588,-3,1,6,4,1,3,-3,0
1514948395718599,2,-1,-4,-9,1,-2,-1,1
1514948395718599,-2,-2,-1,-12,-3,-1,-1,1
1514948395719599,-3,-1,-4,7,-1,1,0,1
1514948395719599,3,0,-1,8,2,1,-3,1
1514948395741615,1,3,-6,-15,-1,-3,-3,-2
1514948395741615,-5,3,1,7,1,0,1,-1
1514948395742625,-9,-3,-5,-6,-1,0,1,1
1514948395742625,6,-1,5,12,1,2,1,0
1514948395764640,16,-1,-3,-14,-9,-7,-7,2
1514948395764640,-20,-4,0,2,2,-2,2,-6
1514948395764640,0,-2,1,-4,1,0,-1,3
1514948395764640,-7,1,2,0,-2,-1,-1,-1
1514948395778640,-4,-1,-9,-14,-4,-4,-3,-4
1514948395778640,3,0,4,5,1,0,-2,-2
1514948395779641,8,-2,-7,-12,-3,-4,-2,-3
1514948395779641,0,0,1,0,-1,-1,1,-3
1514948395801658,-5,-2,-3,-10,0,-1,0,3
1514948395801658,0,-5,-2,-6,0,0,-1,2
1514948395802658,0,1,1,6,-1,-1,2,-1
1514948395802658,1,0,-5,-10,-2,-2,-2,-5
1514948395824675,-9,-2,-3,-2,0,1,0,-4
1514948395824675,1,2,2,-1,1,0,2,4
1514948395825675,3,1,-1,7,0,2,0,-7
1514948395825675,-4,1,3,2,-3,-7,-10,3
1514948395838682,2,2,-1,18,1,-1,2,2
1514948395838682,-4,-3,-4,-20,-1,-4,-5,-6
1514948395839683,16,-1,-2,-6,-3,-1,3,-1
1514948395839683,-6,-3,-2,4,-2,0,-1,-2
1514948395860715,-3,-1,0,3,0,-1,-1,-3
1514948395860715,2,1,-2,2,1,1,-3,1
1514948395861700,-6,-3,-1,0,-3,-3,-4,-2
1514948395861700,1,1,0,-6,3,3,-1,2
1514948395884728,-4,-1,3,3,0,-1,3,-2
1514948395884728,4,-1,-6,-5,-4,-1,1,-1
1514948395884728,-8,-3,0,8,-1,0,-2,-3
1514948395884728,7,2,5,-3,-2,0,2,2
1514948395898725,-6,2,-6,-5,0,0,-4,0
1514948395898725,-3,1,-3,-5,1,-1,1,-3
1514948395899727,-3,-1,-1,3,-1,-1,-1,-4
1514948395899727,0,-5,-2,0,3,-3,0,-2
1514948395920753,-1,0,0,-3,-2,0,-1,3
1514948395920753,1,1,4,7,0,0,-3,1
1514948395921759,-1,-5,0,-2,-2,0,-2,-3
1514948395921759,-6,1,-1,-1,0,0,0,-3
1514948395943766,-1,-1,1,-3,0,1,4,2
1514948395943766,-3,1,3,3,-1,2,-2,-4
1514948395944768,-5,-2,1,-4,-1,-1,3,1
1514948395944768,-3,-2,-2,-1,-3,-1,-2,-1
1514948395958768,-2,-4,1,0,2,-1,-2,-1
1514948395958768,4,-3,-2,1,-3,-2,0,1
1514948395959771,-2,0,-2,-2,-2,-2,-3,-4
1514948395959771,2,-4,-2,-4,1,1,-2,-1
1514948395980785,1,0,-1,-2,-1,1,1,-1
1514948395980785,4,0,1,1,-1,-3,-1,-1
1514948395981784,-3,1,-1,1,-2,-1,-4,-1
1514948395981784,0,0,-4,-1,-4,0,-1,-2
1514948396004801,-6,0,-2,1,-2,0,1,0
1514948396004801,0,-1,-1,-4,0,-1,-3,-1
1514948396004801,3,-1,2,2,-1,0,0,-1
1514948396004801,-3,1,-2,-3,0,-2,0,-1
1514948396018823,1,0,-4,-7,-1,-2,-1,1
1514948396018823,0,-4,0,-1,0,0,-2,0
1514948396019812,-3,0,-2,-2,0,0,-2,-3
1514948396019812,-2,-5,-1,-1,-1,0,1,-2
1514948396040831,0,-2,-1,-5,0,-3,0,-1
1514948396040831,2,-4,-2,0,-1,-1,2,0
1514948396041830,-2,0,0,1,-2,-1,-2,-4
1514948396041830,-2,-2,-3,-3,0,0,-1,-3
1514948396064844,-2,-1,0,1,2,0,-1,0
1514948396064844,1,-1,0,-2,-1,-2,-3,0
1514948396064844,-1,-1,-1,-1,-2,-1,-1,-1
1514948396064844,-2,-1,1,2,-3,0,0,-2
1514948396078864,-2,-3,-2,1,-2,-1,-3,0
1514948396078864,-3,-5,-4,2,0,-3,1,1
1514948396085873,-1,-1,-1,0,0,1,0,3
1514948396085873,0,-3,3,-2,-2,0,1,-1
1514948396108873,1,-3,-3,-1,-1,0,-1,-1
1514948396108873,-2,5,0,-1,-3,-2,1,-2
1514948396109874,-1,-1,-3,-1,-2,-3,-3,1
1514948396109874,-2,-1,-2,-1,-2,0,1,1
1514948396125885,-1,-1,0,-4,1,-3,1,-3
1514948396125885,0,-2,1,-2,-2,0,-2,0
1514948396126886,0,-1,-2,0,-2,0,-1,0
1514948396126886,-2,-2,-1,0,1,-1,-3,-2
1514948396137894,0,0,-1,1,-1,-1,1,-2
1514948396137894,-5,-4,-2,-2,-1,-1,-5,-1
1514948396145900,0,-2,-1,-2,-3,0,2,-1
1514948396145900,-1,-4,-1,-2,0,-1,-2,1
1514948396161911,0,-3,-1,0,-1,-4,-3,3
1514948396161911,-1,3,-2,0,-1,-2,-1,3
1514948396168916,-1,-3,1,1,-1,0,-1,-2
1514948396168916,-1,0,-5,1,-4,-2,1,-3
1514948396183927,-1,1,-4,-3,2,-3,-3,2
1514948396183927,0,0,2,-2,-1,-1,0,1
1514948396184928,-1,-1,-3,1,-1,-1,-4,-2
1514948396184928,-3,5,1,0,-2,0,0,-3
1514948396197938,-1,2,0,1,-3,-2,-3,1
1514948396197938,-1,-5,-1,0,-2,1,1,-2
1514948396205955,-1,-1,-2,-4,-1,0,0,-1
1514948396205955,-1,-1,-3,-3,-1,0,-4,-1
1514948396220965,3,0,-2,-1,-3,-2,-5,-2
1514948396220965,-4,-2,-3,0,0,-3,0,-2
1514948396221958,-3,2,0,1,-2,-2,-1,-3
1514948396221958,3,3,0,-2,-1,-1,0,-1
1514948396243979,-2,-4,2,0,2,0,2,-1
1514948396243979,-2,-1,0,-3,-1,-3,0,2
1514948396244971,-3,0,-2,-1,-1,0,-4,-3
1514948396244971,0,2,-5,0,-2,1,1,1
1514948396257983,-2,1,1,-3,-1,0,0,1
1514948396257983,1,-1,-2,0,0,-1,0,-5
1514948396265994,-1,-3,0,-3,0,-2,-2,4
1514948396265994,0,1,-1,1,0,0,-3,-2
1514948396280995,0,-2,-3,0,0,-2,-2,0
1514948396280995,3,0,-3,-1,-1,-1,0,2
1514948396281996,0,-1,-1,-1,-1,-2,-1,-2
1514948396281996,1,-3,1,0,0,-5,2,-1
1514948396305023,-1,-3,-4,-2,0,0,2,-1
1514948396305023,0,5,-4,1,1,1,-1,0
1514948396306014,1,-6,1,-2,-3,-2,0,-2
1514948396306014,-4,-1,1,0,-1,-2,-3,0
1514948396318035,2,-2,2,-1,-1,-1,-2,-2
1514948396318035,1,-3,-1,-3,0,-2,1,-4
1514948396326027,1,1,-1,-4,-2,0,-2,1
1514948396326027,0,-4,-1,-1,-1,2,0,-3
1514948396341051,-3,1,-1,-3,-3,-3,-2,2
1514948396341051,-3,-1,0,0,-1,1,-6,1
1514948396342040,-4,2,-2,2,-2,0,1,-4
1514948396342040,-1,-4,-2,-1,0,-2,-2,-1
1514948396364067,-2,1,-2,-5,0,-2,1,-2
1514948396364067,-1,0,1,-2,-2,-1,-2,1
1514948396365056,0,1,-1,1,-1,-2,-3,-4
1514948396365056,-1,-2,-1,0,-2,-1,-1,-4
1514948396378064,1,0,-1,-2,0,-1,-3,-3
1514948396378064,0,-1,0,-2,-2,-5,1,0
1514948396386082,-2,-5,0,0,-1,-1,2,-2
1514948396386082,-4,-4,1,-1,-1,-3,-3,0
1514948396401096,0,0,-2,-1,-1,0,-3,1
1514948396401096,-1,-3,-2,-2,1,-1,-2,-4
1514948396402091,0,1,-1,-1,-1,-1,-2,0
1514948396402091,-1,-2,-2,0,-1,-3,1,0
1514948396425097,0,1,-1,-1,-1,1,0,-2
1514948396425097,0,-2,-4,-3,-1,0,0,2
1514948396427109,1,-4,-1,1,0,0,0,1
1514948396427109,0,3,2,-3,-2,1,-1,-2
1514948396447113,-4,-3,-3,2,0,-2,1,-3
1514948396447113,-4,-3,-2,-1,-3,-1,-1,-4
1514948396447113,-2,1,0,1,-2,-1,1,-1
1514948396447113,-2,-2,-2,0,-2,1,-1,-3
1514948396461122,-1,-2,2,-2,-2,-3,-2,1
1514948396461122,-2,-1,-1,-2,0,-3,-1,-2
1514948396462123,1,0,-2,-3,-3,-1,-1,2
1514948396462123,-2,0,-1,-1,0,0,-4,0
1514948396484140,0,-4,0,0,0,-1,-1,-3
1514948396484140,-2,1,0,-2,-3,-2,-1,1
1514948396486153,-2,3,0,0,-1,1,0,-2
1514948396486153,1,-1,-2,-3,-3,0,1,-2
1514948396507155,-2,1,0,-2,-3,0,1,0
1514948396507155,-2,-1,0,0,0,-1,0,-1
1514948396508158,0,2,0,-1,0,-1,-3,-1
1514948396508158,-1,-5,-1,1,-3,-5,1,2
1514948396521165,-3,-2,-3,-2,1,-3,0,-1
1514948396521165,-1,-4,-1,-1,0,-1,1,0
1514948396522166,-2,-4,-2,0,-2,0,-2,-3
1514948396522166,1,-3,-2,0,-1,1,0,2
1514948396544181,-1,0,-3,-3,1,1,1,1
1514948396544181,-1,-2,-2,-1,-2,1,-1,-2
1514948396545183,-4,3,0,0,-1,-2,-1,-3
1514948396545183,-2,-3,-3,-1,-3,1,0,-1
1514948396567236,-1,-4,-2,0,-1,-2,1,1
1514948396567236,2,-1,-3,0,0,-2,-3,0
1514948396567236,-1,-7,1,-2,-2,-1,-1,-1
1514948396567236,-1,3,2,-3,-2,-5,1,-2
1514948396581207,2,2,-3,-2,0,-2,-1,-4
1514948396581207,-3,0,0,2,1,-2,-2,-1
1514948396582221,0,2,2,1,-1,1,0,0
1514948396582221,-1,-1,1,-1,-1,-2,0,-1
1514948396604223,-1,-1,0,-2,0,0,-1,-3
1514948396604223,-2,3,-4,-2,-1,0,-2,-2
1514948396605224,1,-1,-3,-2,-3,-4,0,-3
1514948396605224,-1,0,-2,-1,1,2,-1,-3
1514948396626239,1,2,0,-2,0,-3,-1,1
1514948396626239,-1,-3,-1,-2,-1,-1,1,1
1514948396627242,-1,-1,-2,2,0,-1,-4,-2
1514948396627242,2,1,0,-2,0,0,-2,0
1514948396641250,-1,-3,0,0,-1,-2,-2,-1
1514948396641250,1,-1,1,-1,-1,-1,0,-2
1514948396642251,0,-1,-4,-2,3,-2,3,2
1514948396642251,-1,-2,-1,1,-1,-1,-4,3
1514948396664269,0,1,-2,-2,-3,-1,-1,-3
1514948396664269,-2,-1,-1,-3,-2,0,-2,-1
1514948396665267,-3,-2,-1,0,-2,-1,-2,-2
1514948396665267,-2,1,-2,-1,0,0,-3,-2
1514948396687311,2,-5,-1,-3,0,1,1,3
1514948396687311,-1,1,-3,1,-1,-1,1,-5
1514948396689313,1,-1,-1,-3,-1,-2,-1,2
1514948396689313,-1,2,1,-1,0,1,-2,-1
1514948396701333,-3,-2,0,-2,-1,-2,-2,3
1514948396701333,-1,-3,0,-1,-1,1,-1,-1
1514948396702336,-2,-2,-3,0,-1,0,-4,-2
1514948396702336,0,-2,1,0,-1,-2,2,-3
1514948396725338,-2,2,-2,-2,1,-1,-3,-4
1514948396725338,-3,-1,0,-2,-2,-4,-2,-2
1514948396727346,2,-1,-2,-2,-2,0,3,-1
1514948396727346,1,-2,-4,0,-3,-1,-2,-2
1514948396747354,-1,-2,-1,-1,-2,1,-2,0
1514948396747354,1,-1,1,1,0,-2,-1,1
1514948396747354,-1,-2,0,-1,-1,0,0,0
1514948396747354,1,-1,-1,-1,1,-2,1,1
1514948396761374,-5,0,-4,0,1,0,1,0
1514948396761374,0,0,-2,-1,0,-2,1,1
1514948396762364,-2,-1,0,1,0,-1,-4,-1
1514948396762364,-1,-1,-2,0,-2,0,0,-2
1514948396785390,-1,1,-3,0,-2,-2,1,0
1514948396785390,1,-5,0,-3,2,1,-4,-5
1514948396787386,-1,0,-1,-3,-2,-2,2,0
1514948396787386,0,-2,0,-1,-2,-2,-3,-1
1514948396806402,-2,-2,0,0,0,-1,-1,-1
1514948396806402,0,2,-3,0,-3,-1,0,0
1514948396807397,-1,0,0,1,-3,1,0,-1
1514948396807397,0,0,2,0,0,0,1,-2
1514948396821444,0,-3,1,0,-1,0,-3,1
1514948396821444,-1,-1,-2,-2,-4,-2,0,-1
1514948396822419,-1,-1,-1,0,0,0,-1,-3
1514948396822419,-3,1,-4,-2,1,-1,-3,1
1514948396844422,0,3,0,1,1,0,-2,-2
1514948396844422,-3,-4,1,-3,-2,1,0,-3
1514948396845433,0,-3,-2,-2,0,1,-1,0
1514948396845433,-2,0,-2,-2,-3,-1,1,3
1514948396866476,-1,-4,-2,-1,-1,-1,-2,-1
1514948396866476,0,4,-1,-1,0,0,0,1
1514948396867438,-2,-5,2,-1,-2,-2,0,-4
1514948396867438,-3,-2,-3,-2,0,-1,-1,3
1514948396881458,-2,-3,-1,-1,-2,-2,-3,-3
1514948396881458,-4,-1,1,0,-2,0,-3,-2
1514948396882460,-5,0,-2,-1,-2,-2,2,-1
1514948396882460,3,1,-2,-2,-2,-3,1,1
1514948396904464,2,-2,-3,-2,-1,1,0,-1
1514948396904464,4,-2,-1,-3,0,0,-2,0
1514948396905465,1,-5,1,4,-2,-1,-1,0
1514948396905465,-4,-1,-4,-2,-1,-1,-2,2
1514948396926481,-2,-1,4,-3,-2,-2,1,0
1514948396926481,2,0,-3,0,0,-3,1,-2
1514948396928481,-1,-1,0,-2,1,-1,-2,-3
1514948396928481,1,0,0,-3,2,0,-1,0
1514948396949509,-2,3,-1,-2,-1,0,-1,-1
1514948396949509,0,1,-1,0,-2,0,-2,-3
1514948396950509,-2,-1,-2,0,-1,-2,-2,-2
1514948396950509,-2,-2,1,-1,-2,-2,1,-3
1514948396964507,-1,0,0,-1,0,-2,-2,-4
1514948396964507,-1,-2,0,1,-3,1,-1,-3
1514948396965518,0,0,-2,1,2,1,0,0
1514948396965518,1,-2,1,-1,1,-2,-3,1
1514948396987555,2,-1,0,0,-1,-2,1,-1
1514948396987555,-2,-1,-2,-1,-1,-1,1,2
1514948396989556,0,0,-3,-1,-2,-2,-1,-2
1514948396989556,-3,-2,-1,-3,-3,-1,-3,1
1514948397000564,0,0,-6,-3,1,-1,-2,-2
1514948397000564,-2,-3,0,0,-2,-2,1,0
1514948397008574,-3,0,0,-3,-4,-2,-2,2
1514948397008574,-2,-2,1,-2,1,-1,1,-2
1514948397024581,-1,-2,-3,-2,-2,0,0,-2
1514948397024581,-1,0,0,2,-1,2,-4,-2
1514948397025584,-1,-1,0,-2,-1,-2,-1,-2
1514948397025584,1,-1,-4,-2,-2,-2,-2,0
1514948397046605,0,-1,-2,0,-1,1,-2,2
1514948397046605,-2,-5,1,-1,0,-1,-1,-2
1514948397047601,-2,-3,0,-1,0,-1,-1,1
1514948397047601,0,0,0,0,-3,-1,-2,-1
1514948397060605,-1,-2,1,-4,1,0,-1,-1
1514948397060605,-2,3,-2,-1,-2,-1,0,-2
1514948397069613,-1,2,-3,-3,-1,0,0,-1
1514948397069613,0,-2,-3,-3,-1,0,2,-1
1514948397084638,-2,1,0,-2,-3,-1,1,0
1514948397084638,-5,-4,0,0,0,1,-2,-1
1514948397107645,0,5,1,0,0,-1,-2,-3
1514948397107645,-1,0,-1,1,0,-3,-3,0
1514948397108642,1,-5,-2,0,-1,-4,-3,0
1514948397108642,-1,-3,-1,-3,-1,-2,-2,-2
1514948397109653,0,0,-1,0,-1,2,-2,0
1514948397109653,-2,-3,-1,-2,-2,-1,-1,1
1514948397120665,-1,3,0,-1,1,-1,-1,-1
1514948397120665,0,1,1,2,-3,-2,0,-3
1514948397129665,0,0,0,-1,-1,-2,-5,-1
1514948397129665,2,4,0,-2,2,0,0,3
1514948397144677,-3,-3,-2,-5,-1,-3,1,1
1514948397144677,-5,-3,0,-1,-3,-1,-3,-2
1514948397145678,0,-3,-2,-1,-3,0,1,-3
1514948397145678,-2,-5,-1,1,-2,1,-2,-1
1514948397166736,-3,-3,-1,2,-2,-2,-1,0
1514948397166736,2,-1,1,-1,0,-1,0,2
1514948397168705,1,-2,0,0,-2,0,-2,-1
1514948397168705,2,0,-1,-1,1,-3,-1,-1
1514948397180691,-1,-1,0,1,-2,1,1,-3
1514948397180691,0,4,-3,-2,-2,-1,0,-1
1514948397191698,-2,-2,-2,-3,0,-1,-2,1
1514948397191698,-2,1,-6,-2,-1,-1,1,-1
1514948397204707,-2,1,1,2,-3,-2,-3,0
1514948397204707,1,-4,0,-1,-1,-3,0,-1
1514948397205710,2,-2,0,-1,-1,0,1,-2
1514948397205710,-3,0,-1,-4,0,1,-3,-1
1514948397226733,1,1,0,-3,0,-1,-1,-1
1514948397226733,-4,-1,-2,3,-3,-2,-5,-3
1514948397228725,1,-2,-4,-2,-2,-1,-2,1
1514948397228725,3,-1,0,-1,0,-2,-1,0
1514948397240734,-2,-5,0,-1,-2,-3,1,1
1514948397240734,1,-2,1,0,0,2,-1,-1
1514948397249739,-2,-2,-2,2,-2,0,-1,-4
1514948397249739,-2,-3,0,-1,-3,-1,-1,2
1514948397263780,-1,-2,-2,-2,0,0,-2,-4
1514948397263780,-3,1,-3,-2,-2,-2,-1,-7
1514948397270769,0,-1,0,2,-2,-2,1,1
1514948397270769,0,-1,-1,1,-1,-3,0,-1
1514948397286766,-2,-1,0,-4,-1,-1,-1,-1
1514948397286766,0,-3,1,0,-3,-2,0,-6
1514948397290777,-3,-2,-2,-2,0,0,-1,-1
1514948397290777,0,-2,-2,-1,-2,-1,2,-3
1514948397300777,0,0,0,-3,-1,0,0,2
1514948397300777,-2,-1,-1,-1,-1,-2,0,1
1514948397309791,1,-1,0,-4,-1,-1,-3,1
1514948397309791,-2,0,-3,-2,0,-2,0,1
1514948397324796,-4,0,0,-1,-2,1,-3,0
1514948397324796,2,-3,0,0,-1,0,-1,1
1514948397325795,-1,-2,0,-1,-1,-2,-1,-1
1514948397325795,-3,-4,-3,-2,-1,-2,-3,-2
1514948397347809,-2,1,-3,2,0,-2,1,-1
1514948397347809,0,-1,-5,-1,1,0,0,0
1514948397349823,-2,0,-3,-2,-3,-2,-1,-3
1514948397349823,0,-1,0,-2,-1,0,-1,2
1514948397368848,-2,-2,-3,0,-3,-1,0,-2
1514948397368848,1,-2,-1,-2,0,0,0,-2
1514948397370825,0,-4,4,1,-1,-1,0,-1
1514948397370825,-2,0,1,-3,-1,0,-3,0
1514948397382833,0,0,-4,-2,-1,-2,-3,-1
1514948397382833,-2,-1,1,-1,-2,1,1,0
1514948397393842,-1,2,-2,-1,-1,0,-1,0
1514948397393842,-1,0,-4,-2,1,-1,0,-1
1514948397406850,-2,0,-2,0,-1,-1,-1,1
1514948397406850,-1,2,-3,-1,-2,-2,-4,-1
1514948397408855,0,-1,-2,0,-1,0,-1,2
1514948397408855,-1,1,-2,-2,-1,-1,1,2
1514948397428866,1,0,-3,-2,0,0,-4,-6
1514948397428866,-3,-3,1,2,-2,-1,1,-2
1514948397430867,-1,-1,1,0,0,-1,2,-4
1514948397430867,-1,-3,-5,-2,-1,-3,-1,-2
1514948397443877,-2,-1,-1,0,0,-1,2,-1
1514948397443877,-2,-3,2,-1,-3,1,-1,-4
1514948397445878,-2,0,1,1,-2,2,-3,-3
1514948397445878,-2,-1,0,-3,-1,0,-4,-1
1514948397466893,-1,0,-1,-2,-2,-2,-2,1
1514948397466893,1,1,-2,-2,-1,0,1,-2
1514948397468896,-1,0,-2,0,-1,-2,0,1
1514948397468896,2,2,-1,-3,1,-2,1,0
1514948397489910,2,-1,0,2,-3,-1,-3,-1
1514948397489910,-2,1,-2,0,-1,0,-2,-1
1514948397490911,-2,-1,-4,0,0,-2,0,-1
1514948397490911,1,0,-3,-3,0,-1,-2,-2
1514948397503924,-1,-1,-1,-3,-1,0,0,2
1514948397503924,-2,0,-1,1,-1,1,0,-5
1514948397510935,0,-2,0,-1,-2,0,-1,1
1514948397510935,-1,-1,0,0,-1,0,-3,-2
1514948397527937,-1,-1,-2,-3,-1,-1,-1,0
1514948397527937,-4,-1,-3,2,0,-1,1,0
1514948397529939,2,-2,0,-1,-1,1,1,-1
1514948397529939,-1,0,-2,1,-1,-2,-3,0
1514948397548952,-2,0,-3,-2,1,-1,0,-6
1514948397548952,2,0,3,3,-4,-1,-4,1
1514948397550956,-3,-1,-3,0,-1,-2,-4,-3
1514948397550956,-3,-3,1,1,1,-2,-2,2
1514948397563963,2,-2,-2,0,0,-2,1,-1
1514948397563963,0,-3,-3,-2,-3,-1,-3,-3
1514948397569983,-1,-1,-1,-1,-3,0,0,-4
1514948397569983,-3,-1,-1,-1,-1,-1,-2,-1
1514948397586979,-2,0,-1,-2,-1,-2,-2,0
1514948397586979,2,0,-2,-1,1,0,-1,-2
1514948397588982,0,-1,1,-1,-1,-1,-1,-2
1514948397588982,1,-2,-2,-3,1,-1,-1,2
1514948397609997,3,-2,0,-1,0,-1,3,0
1514948397609997,0,0,-2,-1,-4,-1,0,-1
1514948397610998,-5,3,-1,-2,0,0,-2,1
1514948397610998,0,2,-2,-1,-1,-1,0,-2
1514948397624004,-3,-2,0,-2,-3,-2,-2,-1
1514948397624004,-2,2,-1,-2,-2,-2,-3,-4
1514948397630009,0,-4,-2,0,-2,-2,2,2
1514948397630009,-1,-4,-2,-2,1,0,1,-1
1514948397647025,-1,-3,-3,-1,-2,0,-4,-2
1514948397647025,1,-2,0,-3,1,-1,-1,4
1514948397649026,0,-3,0,-1,-2,-1,-3,-1
1514948397649026,-2,0,-1,-2,0,-3,0,-1
1514948397669036,0,0,-2,0,-2,-2,-2,-1
1514948397669036,-1,-5,-4,0,-1,-1,3,-2
1514948397671038,-3,1,0,0,1,-1,-2,-2
1514948397671038,-1,-3,0,0,-3,-2,0,0
1514948397684047,1,-4,-2,-3,-1,0,-4,0
1514948397684047,-2,-5,2,0,-3,-1,1,-2
1514948397690052,3,-1,-3,0,-1,-1,-1,1
1514948397690052,-2,-2,-2,-1,-3,1,1,-2
1514948397707066,-3,1,1,-2,-2,1,-2,-1
1514948397707066,-1,2,0,1,0,0,0,0
1514948397708063,0,-4,-1,-1,-1,-1,0,-2
1514948397708063,1,0,-1,-1,-1,1,-3,0
1514948397729082,-2,-3,0,1,-1,-3,-1,2
1514948397729082,1,0,-1,0,1,0,-4,0
1514948397733088,-2,-1,-2,-1,-3,0,-1,-2
1514948397733088,0,0,-1,-2,0,-3,-2,2
1514948397744091,-2,0,-1,0,-1,-1,1,-2
1514948397744091,-5,-1,0,0,1,0,-5,-3
1514948397750097,-1,0,-1,-2,0,0,1,-4
1514948397750097,3,-4,-2,-3,0,-2,-1,-2
1514948397767105,-2,-1,-1,0,-2,-1,0,-3
1514948397767105,0,-4,-1,-3,-2,-1,-1,1
1514948397773110,-3,-4,-2,-1,1,-1,1,-1
1514948397773110,-2,4,-3,-1,-2,2,-1,1
1514948397789122,1,-2,1,-5,0,0,-3,2
1514948397789122,-1,2,-2,2,-3,-2,2,-1
1514948397791124,-5,1,0,3,-1,-2,-3,-2
1514948397791124,0,-3,-2,-5,-1,-2,-1,1
1514948397804133,-1,1,-2,-1,-1,-1,0,0
1514948397804133,4,2,0,1,-1,0,-2,-4
1514948397811145,-1,-3,1,-3,-1,-1,-7,1
1514948397811145,-5,0,0,0,0,-2,4,-4
1514948397827152,0,-1,-1,-2,-1,0,-2,0
1514948397827152,-3,-4,-1,0,-3,-1,-3,-1
1514948397828153,-2,-1,-2,3,-2,-1,2,-3
1514948397828153,0,-2,-1,-1,0,-1,0,1
1514948397849166,-1,2,-2,-2,0,0,-1,-1
1514948397849166,-1,-1,1,2,-2,1,-2,1
1514948397851165,-2,0,-3,1,0,-2,2,2
1514948397851165,-1,-3,-3,-4,-2,-1,-2,-2
1514948397864177,-2,0,0,-4,-2,-2,4,-2
1514948397864177,-1,-1,-1,-1,-1,-1,-1,-2
1514948397873182,-1,1,-1,-2,-2,-1,-3,-3
1514948397873182,-1,-2,-2,-2,-1,0,-2,0
1514948397887191,-2,-1,-2,-2,0,1,-2,3
1514948397887191,-2,-5,-2,2,-2,0,0,0
1514948397890192,-2,-5,0,1,-2,-1,1,-4
1514948397890192,-1,2,-1,0,2,-5,-1,-3
1514948397910209,1,-2,-2,0,0,-3,2,0
1514948397910209,-3,-1,0,-3,-1,-1,1,-1
1514948397911212,0,2,-3,-1,-2,2,-1,-2
1514948397911212,-1,-1,-2,-2,-1,-1,-4,0
1514948397923216,-2,-2,-2,0,1,0,0,2
1514948397923216,-1,-1,-1,-2,0,-2,2,0
1514948397932223,-1,-4,-1,0,-2,-2,-1,0
1514948397932223,-1,1,0,0,-2,-2,-3,-4
1514948397946232,2,-7,0,-3,0,-1,-1,-1
1514948397946232,-2,-1,0,-1,0,-1,-1,-3
1514948397948233,0,1,2,-3,-1,-1,-4,-3
1514948397948233,-2,-3,-1,-1,-1,-1,-3,-2
1514948397969265,0,2,-4,0,-2,-2,1,-1
1514948397969265,-1,-4,0,-4,-2,-1,-3,-2
1514948397971267,1,-1,-1,0,1,-1,3,-2
1514948397971267,1,-4,-1,-1,-2,-2,-2,1
1514948397983272,-2,2,-1,0,-1,-1,-2,-2
1514948397983272,-1,-3,-1,0,-3,-2,0,2
1514948397992268,0,-1,-2,1,1,-3,-3,0
1514948397992268,2,2,0,-3,0,-1,0,-4
1514948398006274,-3,-2,1,-3,-2,0,0,-2
1514948398006274,-2,0,-2,-1,-3,-2,0,-4
1514948398008277,-2,0,-1,-4,-3,-1,0,0
1514948398008277,-3,2,1,-1,0,-2,-1,0
1514948398029303,-1,-4,0,-1,-1,-2,-1,0
1514948398029303,0,0,-4,1,-3,2,2,0
1514948398032302,1,0,2,1,0,-1,0,2
1514948398032302,-1,-2,-2,-3,0,-2,-1,-3
1514948398043300,-1,0,-3,-2,-2,-1,-3,-5
1514948398043300,0,1,-1,-2,-2,0,-3,-1
1514948398052318,0,-2,-2,-2,-2,-3,-1,-2
1514948398052318,-2,2,-3,-4,2,0,-2,1
1514948398067328,-2,-1,-2,0,0,-1,0,0
1514948398067328,-1,-1,2,-1,-3,-2,0,-2
1514948398069321,1,1,-4,1,-1,-1,-1,-1
1514948398069321,-3,-4,0,-1,-3,1,0,-1
1514948398090344,-2,-1,-2,-2,-1,-3,1,-4
1514948398090344,-4,-1,-3,1,1,-2,-2,0
1514948398093336,-3,-4,-1,-2,-2,1,-1,0
1514948398093336,2,1,-2,-1,-2,-2,3,1
1514948398103343,1,-1,0,1,1,-2,-2,-1
1514948398103343,-1,0,-2,-3,-3,-1,2,-1
1514948398112354,0,-4,1,-3,0,0,-2,2
1514948398112354,-1,-2,-1,-2,-2,0,2,1
1514948398127370,1,-2,0,-2,-4,-1,-4,-2
1514948398127370,0,-3,-2,2,-2,-1,-1,-2
1514948398130365,-3,1,1,0,-2,-2,-2,-3
1514948398130365,-5,-3,0,0,1,-2,1,3
1514948398149375,-3,0,0,-1,0,-1,0,0
1514948398149375,2,0,1,-1,-1,-1,-4,-2
1514948398151380,0,0,-2,-2,-3,-1,0,1
1514948398151380,-1,-3,-2,-1,-1,0,-2,-2
1514948398163435,0,0,0,-1,-2,-2,-1,1
1514948398163435,0,0,-5,-2,-1,-1,-2,0
1514948398172433,-2,-2,1,-3,-1,-2,-1,0
1514948398172433,1,-1,-1,-1,-2,0,-2,0
1514948398187438,0,-3,1,0,0,1,0,0
1514948398187438,-2,-1,3,0,0,0,0,-1
1514948398191439,2,1,-1,-3,-2,0,-2,-3
1514948398191439,0,-4,-3,-3,-2,-3,2,-2
1514948398209449,-2,0,-1,-1,-2,0,-4,3
1514948398209449,1,-3,1,2,-1,-1,2,2
1514948398211463,0,0,-3,0,-1,-1,1,-3
1514948398211463,1,0,1,-1,0,-1,-3,-1
1514948398223460,-3,-3,-1,-2,0,-2,0,-1
1514948398223460,-2,0,-1,-1,2,-3,0,1
1514948398231465,0,1,-1,1,0,-1,-2,-2
1514948398231465,-3,2,0,-2,-2,1,0,-2
1514948398246476,-1,-2,-4,1,-2,1,-1,-1
1514948398246476,-2,-1,-1,-3,0,-1,0,0
1514948398248477,-1,-3,-1,1,1,-1,1,-2
1514948398248477,-2,-2,-1,-1,-1,1,-5,1
1514948398269523,1,-1,-1,0,-4,1,0,-2
1514948398269523,-1,-2,-5,-1,-1,-1,2,-1
1514948398270524,1,-3,-2,0,0,-2,0,0
1514948398270524,-1,0,-1,-3,-2,-2,-3,1
1514948398292508,-1,0,-1,1,0,-3,-1,-2
1514948398292508,0,-5,0,1,-2,0,0,-1
1514948398295510,-1,-4,-3,-2,0,1,3,1
1514948398295510,0,-4,-1,-1,-1,-2,-2,-2
1514948398306518,-4,-1,1,-2,0,-3,-1,-5
1514948398306518,0,-1,-1,-1,-3,-1,-2,-4
1514948398308519,0,0,1,0,0,0,0,0
1514948398308519,0,-3,-2,0,0,0,2,0
1514948398329535,0,-5,2,-1,-1,0,-1,1
1514948398329535,0,0,-2,3,-1,0,0,-4
1514948398330534,-1,0,-1,-1,-2,-1,-3,-1
1514948398330534,-1,1,1,-3,0,-2,1,-2
1514948398352560,0,-3,-2,0,0,0,1,-2
1514948398352560,-4,-2,-1,-2,-1,-2,-2,1
1514948398353556,-2,-4,-2,1,-4,1,0,3
1514948398353556,0,1,0,-3,2,-1,-2,-1
1514948398366582,-2,-1,-3,-1,-2,-2,-2,-2
1514948398366582,-1,-1,-1,-1,-2,-1,0,-1
1514948398368586,-2,-3,-3,-3,0,0,-1,-2
1514948398368586,-2,-5,0,2,-1,-1,-1,0
1514948398390577,1,1,-3,1,-2,-1,1,-3
1514948398390577,-2,3,-2,-3,-1,0,-1,2
1514948398393579,-3,-4,-3,-3,-1,-1,-3,0
1514948398393579,-3,2,-1,0,-3,-1,-1,-1
1514948398411602,-1,-5,1,-1,0,-2,-5,-2
1514948398411602,-4,-1,-3,-1,1,-1,-4,-5
1514948398413603,-2,1,-1,-3,-2,-2,-4,6
1514948398413603,1,-3,-3,1,0,-1,-2,-1
1514948398427603,-3,1,-1,1,-3,-1,-4,0
1514948398427603,-3,-1,0,-1,0,0,4,-1
1514948398431607,-2,-2,-1,-2,-1,0,-2,-4
1514948398431607,-3,-2,1,-2,-1,-1,-1,-4
1514948398449631,-1,1,-1,-2,-1,0,1,-3
1514948398449631,2,1,-2,-1,0,0,-4,3
1514948398450619,-2,1,-1,-4,-3,-2,-2,0
1514948398450619,0,1,0,-2,-1,-2,-3,-2
1514948398471647,0,-1,2,0,-1,-3,2,-3
1514948398471647,2,2,0,1,-3,-4,-1,0
1514948398473648,0,-3,-2,1,0,-2,0,-2
1514948398473648,-2,-3,-3,-1,-1,-1,-1,1
1514948398487656,-2,1,-1,0,-3,-1,-3,-4
1514948398487656,2,-3,0,-2,-3,0,-3,0
1514948398494652,-2,0,-1,-4,-2,-4,3,2
1514948398494652,0,-2,-2,-3,-3,0,1,0
1514948398510665,-1,-3,0,-3,0,1,0,-2
1514948398510665,-3,-4,-3,0,-2,0,-1,-2
1514948398511662,-2,3,-1,0,0,-1,-3,-1
1514948398511662,-1,-1,-1,-2,0,-1,1,2
1514948398531677,0,3,-1,-1,-3,-2,-1,2
1514948398531677,0,-2,1,2,1,-2,-3,-3
1514948398533678,2,1,-3,-2,-1,-1,0,3
1514948398533678,0,-1,-3,-3,0,-1,0,-6
1514948398545696,1,-3,0,0,-2,-1,0,-3
1514948398545696,-2,1,0,-2,-1,-1,1,-1
1514948398561708,4,1,-2,-2,-2,0,-2,0
1514948398561708,1,-1,-1,-2,0,-1,-3,-1
1514948398569716,-1,-2,-2,0,0,-2,1,0
1514948398569716,-2,-1,1,-1,-2,1,-2,-3
1514948398570705,-2,-2,0,-1,1,-2,2,1
1514948398570705,0,-3,-3,-1,-3,-2,-2,-3
1514948398592722,-3,0,0,0,1,1,0,-1
1514948398592722,0,2,-1,2,-2,1,1,3
1514948398594721,0,0,-1,0,0,-1,0,1
1514948398594721,-5,1,-1,-4,-2,0,-1,2
1514948398605746,-1,-1,1,-1,-2,0,-1,-1
1514948398605746,1,-4,-1,-1,-3,1,-2,-2
1514948398612746,-2,1,0,-2,1,0,0,0
1514948398612746,-1,0,-1,1,-1,-2,0,1
1514948398629746,1,-2,1,-1,0,0,0,-1
1514948398629746,0,-1,-4,-3,-2,0,-2,-1
1514948398631748,-2,-3,-2,-3,1,1,0,0
1514948398631748,-1,-1,1,-1,0,-1,-1,-1
1514948398651780,-4,-2,0,-1,-2,-2,-4,-2
1514948398651780,-3,-6,1,-1,-1,-3,0,1
1514948398654764,-2,1,-3,-2,-3,0,-5,-1
1514948398654764,2,-1,-4,-1,-2,0,2,0
1514948398665793,2,-1,0,-2,-2,0,2,-3
1514948398665793,-1,-3,-1,0,-1,0,-2,-1
1514948398672786,-1,-2,-1,-1,0,-2,-2,-3
1514948398672786,0,1,0,1,-2,1,-1,-3
1514948398690789,-1,-3,-1,-1,0,-1,0,0
1514948398690789,1,-1,-1,-3,-1,-1,-2,-2
1514948398693791,-1,-3,1,0,-1,-3,-1,0
1514948398693791,-3,-1,0,0,-1,-1,1,-3
1514948398711804,-3,3,-2,-2,-2,0,1,1
1514948398711804,2,1,-2,-1,-1,0,0,1
1514948398713822,1,1,-2,-1,0,-1,-1,0
1514948398713822,-3,-2,0,0,0,-5,-2,-2
1514948398726815,-2,0,-1,3,-1,-1,-1,-4
1514948398726815,-3,1,-3,-1,-2,-1,-1,-1
1514948398732828,2,-3,0,-1,-2,-3,0,-1
1514948398732828,0,-3,0,1,-1,0,-6,-1
1514948398748830,-1,-4,0,-2,-1,0,1,-1
1514948398748830,-3,0,-1,-2,-2,0,-3,-1
1514948398750832,-3,0,-3,1,1,-2,0,0
1514948398750832,1,-1,0,-3,-2,-3,2,-2
1514948398771859,-4,-1,0,0,-1,2,-4,-1
1514948398771859,3,-2,-4,0,-2,-1,0,-2
1514948398772859,0,1,-2,-4,1,-1,-2,-1
1514948398772859,0,0,1,-2,-1,-2,-2,-1
1514948398785866,-1,-1,-4,1,-3,-1,-1,1
1514948398785866,-1,-2,0,-2,0,-3,-1,-2
1514948398795873,0,-1,-2,-3,-2,0,-2,1
1514948398795873,-4,6,-2,2,-1,1,3,1
1514948398809876,0,-4,0,-2,0,-2,-1,-1
1514948398809876,1,-2,2,1,-3,-1,0,-3
1514948398810891,-1,-4,-1,-1,-1,-4,-1,2
1514948398810891,0,-4,-3,-2,-1,-2,-4,0
1514948398831889,-1,0,-4,-1,-4,-2,0,-3
1514948398831889,-2,3,0,-3,0,0,3,-2
1514948398833922,-3,-2,-1,-3,0,0,3,-2
1514948398833922,-1,-2,0,-2,-1,0,-1,0
1514948398844903,-1,-2,0,0,0,-1,-2,-2
1514948398844903,-1,-5,-1,-5,0,-2,-2,1
1514948398854905,1,1,-2,2,0,-3,0,-5
1514948398854905,-1,-5,-1,-2,-2,-2,0,0
1514948398868933,1,-1,-3,0,-2,-1,-4,0
1514948398868933,-3,2,0,-2,-2,-4,-2,-1
1514948398870917,1,-3,1,-2,-2,0,1,1
1514948398870917,-3,1,-4,-3,-1,0,-1,-3
1514948398892933,-3,0,1,3,-2,-1,-1,-4
1514948398892933,-2,-2,-1,1,2,0,1,-1
1514948398894950,-2,-1,-1,-3,0,0,-2,0
1514948398894950,-2,-3,-1,-3,-1,0,-2,0
1514948398904950,-4,-1,1,0,-3,1,1,-1
1514948398904950,0,-2,-3,2,-1,1,0,1
1514948398913964,0,0,-3,-4,-2,0,-1,-1
1514948398913964,-2,-1,0,-1,0,-2,0,-3
1514948398928969,-1,-1,1,-1,-1,-1,0,-3
1514948398928969,-3,0,-2,-1,-3,-1,0,-4
1514948398930961,0,2,-1,-1,-2,0,-4,0
1514948398930961,2,0,0,0,-1,0,-1,-1
1514948398951988,-1,-3,-2,-1,-1,-1,-1,1
1514948398951988,0,1,-2,0,-3,0,-3,-2
1514948398953985,0,-3,1,-2,-3,-1,-4,-1
1514948398953985,-1,0,-2,-2,-3,0,0,-4
1514948398964986,3,2,0,-2,1,1,-3,-4
1514948398964986,-1,0,0,1,0,0,-1,0
1514948398974019,-7,-1,0,-1,1,0,-4,-2
1514948398974019,1,-3,2,-3,1,0,1,1
1514948398990031,0,0,-3,-1,-2,-1,-1,-4
1514948398990031,-2,-1,-2,-1,-1,-1,-1,-2
1514948398993032,1,2,-1,-3,0,-2,1,-2
1514948398993032,0,-2,-1,-4,0,-2,-2,0
1514948399012057,-1,3,-1,0,0,0,-1,1
1514948399012057,1,1,3,-1,-2,-2,-1,-1
1514948399013047,-1,-2,1,0,-1,1,1,-3
1514948399013047,-2,-2,-2,1,-1,-1,0,1
1514948399026075,2,-1,-1,1,-4,-2,1,-2
1514948399026075,-2,-2,-5,2,-1,-3,0,-1
1514948399034061,0,-1,-2,-2,0,-2,-4,-1
1514948399034061,-3,0,0,-2,0,-1,-2,-3
1514948399049072,1,0,0,-2,-1,-1,0,0
1514948399049072,-4,-1,-1,-1,-1,-2,0,0
1514948399051073,0,-5,-3,-1,-1,-1,-1,0
1514948399051073,-1,0,-2,0,-2,-2,-1,-2
1514948399072101,-2,0,1,-3,-2,-1,-1,-1
1514948399072101,-2,-2,-2,-1,-1,2,-1,-1
1514948399073090,0,-2,-3,0,0,-2,1,2
1514948399073090,3,2,1,0,-1,-2,-2,0
1514948399087099,-1,1,-2,-1,-2,0,-4,0
1514948399087099,-2,-1,0,0,-2,1,1,-2
1514948399096106,-3,-2,-3,-2,-1,-3,-1,-1
1514948399096106,-2,-2,0,1,0,-1,-1,4
1514948399109116,1,-1,-2,1,-1,0,-1,-3
1514948399109116,0,0,-1,-1,-1,0,1,-1
1514948399111135,0,0,-2,-2,1,-2,1,-1
1514948399111135,-1,-1,-4,-2,-3,-3,-1,0
1514948399132140,-2,0,1,-3,1,-1,-1,2
1514948399132140,-1,-2,1,-1,-2,-1,-4,-1
1514948399133146,4,0,-2,-1,0,0,0,-1
1514948399133146,0,1,-5,0,-2,-1,0,-3
1514948399146151,-2,-4,-1,2,-4,0,-1,-6
1514948399146151,1,0,1,-3,-1,-2,-3,-5
1514948399154147,-2,2,0,-2,-2,1,0,4
1514948399154147,-1,-4,1,-1,-1,0,-2,-3
1514948399169172,-2,0,-4,-1,-2,0,-2,-1
1514948399169172,0,-2,1,0,1,-2,1,-1
1514948399171168,-3,2,-5,0,-1,0,-1,1
1514948399171168,-1,3,-1,-3,-3,0,-4,-1
1514948399199178,2,-3,2,-5,0,-2,1,-1
1514948399199178,-3,-4,0,-1,-4,0,1,0
1514948399201179,-2,-1,-2,-1,1,0,-2,0
1514948399201179,-3,-2,-3,1,-1,-1,-1,-2
1514948399205183,0,-3,0,1,-3,-2,-2,1
1514948399205183,0,-2,-1,1,-1,-2,-1,-4
1514948399214189,-1,-2,1,-4,-1,-3,-1,0
1514948399214189,-1,-1,-1,-4,0,-1,1,0
1514948399229200,-1,-1,0,0,-1,-1,1,-1
1514948399229200,0,0,-3,1,-1,0,-1,-1
1514948399231209,-1,-5,-1,-1,-2,-2,-3,0
1514948399231209,-1,1,-3,-1,-1,0,-3,-2
1514948399252218,-1,-1,2,1,1,-2,-2,-3
1514948399252218,-1,1,0,0,0,1,-1,-3
1514948399253241,0,-3,-1,-2,0,-1,0,-1
1514948399253241,1,-2,1,-2,-1,-1,1,0
1514948399274231,0,-1,-1,-1,-1,1,2,0
1514948399274231,-3,1,-3,-1,-4,-2,-3,0
1514948399276234,-2,-1,-1,-3,-3,-3,-2,1
1514948399276234,-2,0,0,-1,2,-1,-2,0
1514948399290254,0,-3,-5,0,-1,-3,0,0
1514948399290254,1,-2,-3,0,0,-1,-1,-3
1514948399294246,0,-3,0,-1,0,0,1,1
1514948399294246,-1,1,0,2,-1,0,-2,-2
1514948399311257,-5,-2,-2,1,0,2,1,-1
1514948399311257,2,-4,-2,-2,-2,0,0,-2
1514948399313259,-1,-2,0,-2,-1,-3,-4,0
1514948399313259,0,1,-1,-1,-1,-1,0,0
1514948399334273,-3,-1,-2,-1,-3,1,0,-1
1514948399334273,-1,0,1,-2,-2,-2,0,0
1514948399336275,-1,2,-2,-1,-2,1,-1,-1
1514948399336275,-1,-1,1,0,-2,-1,-1,-2
1514948399349285,1,0,-1,1,0,-1,-1,1
1514948399349285,-2,-2,-1,-2,0,-1,0,0
1514948399351289,-2,-2,1,-1,-1,-3,1,0
1514948399351289,-1,-4,-2,-2,-1,-1,-4,-2
1514948399372319,-3,-1,0,-2,-2,1,-2,-5
1514948399372319,2,-2,0,0,0,1,-2,0
1514948399375305,-1,1,0,-1,-1,-1,-3,-3
1514948399375305,-1,-2,-4,-3,0,-2,3,2
1514948399394326,-2,-3,-2,-1,-3,-2,-1,-1
1514948399394326,-5,-6,-2,1,-1,1,-1,-2
1514948399396327,-4,-1,-2,1,-1,1,-1,-3
1514948399396327,-3,-2,-3,-2,-1,1,0,1
1514948399408338,1,3,-2,-2,2,-2,0,-2
1514948399408338,-1,-2,-2,0,0,0,-4,0
1514948399415341,0,1,0,-2,-2,0,-3,-2
1514948399415341,-2,-5,-1,-1,0,-2,-2,-2
1514948399431342,-1,-3,-1,1,-2,-1,-1,-1
1514948399431342,1,1,-1,-2,-2,0,-1,-2
1514948399433343,-3,-1,-1,-2,0,-1,-1,-2
1514948399433343,1,-2,1,-1,0,-1,-3,1
1514948399454393,-1,-2,1,0,-2,-2,1,-1
1514948399454393,-3,0,-3,-3,-2,1,-3,0
1514948399455393,-3,-1,-2,-3,-3,-1,1,0
1514948399455393,-4,2,0,-3,-1,-2,1,0
1514948399468411,2,-3,1,3,-2,-2,-5,-5
1514948399468411,0,1,-2,0,-3,-2,0,-4
1514948399475388,-3,-2,3,-1,0,-1,-1,-2
1514948399475388,0,-2,0,-2,-3,-1,1,-3
1514948399492390,0,-1,0,-2,-1,0,-3,2
1514948399492390,-2,1,0,1,-2,0,0,-2
1514948399494387,-1,0,-3,2,0,-2,2,-1
1514948399494387,-4,-2,-1,-2,0,0,-3,-2
1514948399514401,-3,-3,-2,-1,0,1,0,0
1514948399514401,0,-1,1,-2,1,-2,-1,-3
1514948399516402,-3,0,-4,-4,-1,0,-1,3
1514948399516402,2,3,0,-1,-2,-3,0,-2
1514948399528411,-2,-1,-3,-1,-2,-1,1,-1
1514948399528411,-2,-2,-2,-2,1,-1,-1,-1
1514948399535428,1,-4,1,0,-1,-2,-1,-5
1514948399535428,2,-2,1,-2,1,-1,-3,1
1514948399551439,-2,0,-1,-1,-2,1,-1,2
1514948399551439,-1,-1,-1,1,-2,-3,2,1
1514948399553429,4,-2,-3,-3,-2,0,-1,-2
1514948399553429,-3,-1,-2,-2,-2,1,-1,-3
1514948399574455,-3,-3,-1,1,1,-3,-2,-2
1514948399574455,-3,0,0,-2,1,0,-2,1
1514948399575445,-1,0,0,-2,-2,-1,-1,4
1514948399575445,-2,-2,-1,0,-1,-1,1,1
1514948399589454,0,1,-4,-3,0,-1,-2,0
1514948399589454,-1,-1,0,-1,-3,1,1,-1
1514948399596459,0,1,0,1,2,-2,-4,0
1514948399596459,-2,-1,-1,0,-2,-1,-1,-3
1514948399611480,-3,1,0,-3,-1,-1,0,2
1514948399611480,-1,0,1,-1,-1,0,-1,1
1514948399613471,-1,-2,-3,-2,-1,-2,-5,-3
1514948399613471,-3,-2,-3,0,-2,0,2,0
1514948399634486,0,-4,-2,-2,-1,0,0,-1
1514948399634486,-2,-4,-2,-2,0,0,-1,-3
1514948399635487,-3,1,0,1,-1,-4,-4,-2
1514948399635487,0,-2,-2,-2,-1,0,-2,0
1514948399648495,0,0,0,1,-3,-1,-5,-3
1514948399648495,-1,0,0,-1,-1,-1,2,0
1514948399655500,0,-5,-3,-2,1,0,0,-2
1514948399655500,1,0,-1,-1,-3,0,-4,1
1514948399671525,-1,-2,1,0,-2,0,-1,-2
1514948399671525,0,1,-2,0,-2,-3,0,2
1514948399673513,-2,-2,-2,-1,-1,1,-1,-1
1514948399673513,-2,-3,0,-2,2,-3,-2,0
1514948399694528,-2,-2,0,-1,-3,1,1,-3
1514948399694528,-1,1,-2,-1,-1,-2,-3,-1
1514948399700532,0,2,1,-4,-1,-3,2,0
1514948399700532,-2,-1,0,-1,0,-1,-4,0
1514948399708538,2,-2,0,1,-2,0,2,-3
1514948399708538,0,-2,-2,-2,0,-1,1,2
1514948399715543,-3,0,0,-3,-1,0,0,0
1514948399715543,-1,-4,-1,0,-2,0,0,1
1514948399731567,-1,0,0,-2,-2,-1,-4,-2
1514948399731567,2,-3,-1,0,0,1,-3,-3
1514948399735572,0,-1,-1,-3,-1,1,3,1
1514948399735572,1,-1,1,1,0,-1,2,-5
1514948399754583,-2,-1,-2,4,0,0,-1,0
1514948399754583,-1,-1,1,0,0,-1,0,2
1514948399755583,-1,-1,1,-1,-1,-1,-1,1
1514948399755583,-2,2,-4,-3,-1,-1,-2,-2
1514948399767580,-2,2,-2,-3,-1,-2,0,1
1514948399767580,-4,0,-1,1,-3,-1,0,0
1514948399776586,0,-3,-2,-1,-1,-2,-3,0
1514948399776586,-1,0,0,-1,-2,-1,0,-4
1514948399792597,0,-3,-2,-1,0,-3,2,2
1514948399792597,-2,-1,0,-3,-2,0,-1,-1
1514948399795610,1,-2,-1,0,0,-2,-2,-2
1514948399795610,-2,-1,-3,2,-5,-1,0,-1
1514948399814623,-4,1,0,-4,-2,-1,-3,-1
1514948399814623,0,0,1,-2,-1,-2,-6,-3
1514948399815624,-1,0,2,-1,0,-2,0,-1
1514948399815624,-1,1,0,-1,1,0,0,-3
1514948399827632,-2,-1,-4,0,1,-1,-3,-3
1514948399827632,0,-2,0,-2,-1,-1,-1,4
1514948399838630,2,1,-4,-3,-1,-2,0,-2
1514948399838630,0,-2,-2,-1,0,-1,1,0
1514948399851639,-1,-1,0,0,-2,1,-2,-2
1514948399851639,1,0,-3,0,0,-1,-2,0
1514948399853640,-4,1,-1,2,-1,-1,-1,1
1514948399853640,0,-4,0,0,-4,-1,-2,-1
1514948399874655,-1,-2,-2,0,2,-1,0,-4
1514948399874655,-2,0,-4,1,-1,0,0,0
1514948399875672,-2,-4,-4,-2,-1,-1,1,-2
1514948399875672,-5,1,-1,-1,0,-1,0,-1
1514948399888685,0,0,2,1,-3,-3,-3,-2
1514948399888685,0,-2,-2,0,-1,-5,1,-1
1514948399896671,0,-1,-1,-4,-2,0,-2,-1
1514948399896671,5,3,-2,-3,0,-2,1,-2
1514948399911681,-1,-4,-1,-1,-2,0,-1,2
1514948399911681,-2,-2,-3,-2,0,-1,-2,-2
1514948399913683,-2,2,-3,-2,-1,-1,0,-1
1514948399913683,1,-4,0,1,1,-1,0,0
1514948399933710,2,1,-1,0,-1,-1,-3,3
1514948399933710,2,2,-3,-3,-2,-2,-1,-1
1514948399935710,-3,-2,1,0,-1,0,-1,-4
1514948399935710,2,-1,-1,-2,-2,-1,-2,2
1514948399947719,-1,-1,-3,-2,-2,-1,0,0
1514948399947719,-1,-1,-1,0,0,-2,-3,1
1514948399957724,1,-1,-1,-1,0,-3,0,-1
1514948399957724,-8,-2,-4,-2,-2,0,-2,-3
1514948399971737,2,1,0,-2,0,-4,2,1
1514948399971737,0,-2,-3,-3,-2,-2,-2,1
1514948399973738,0,-3,-1,0,-2,-2,-1,-2
1514948399973738,1,-3,2,-1,0,-1,-3,0
1514948399993743,-2,-2,-2,0,0,-1,1,-1
1514948399993743,0,-2,-2,-1,1,-1,-1,-1
1514948399995741,0,-1,-1,1,-2,1,2,0
1514948399995741,0,-3,1,0,-2,0,-2,-3
1514948400007750,-2,-1,0,-1,-3,0,-1,-3
1514948400007750,-2,2,-1,-1,-1,0,-2,1
1514948400016757,-4,-2,-1,-3,1,-1,0,-2
1514948400016757,0,-4,0,0,-1,-1,-1,-1
1514948400031777,0,-1,-4,1,-2,0,1,-1
1514948400031777,-3,-1,0,-1,-1,-2,1,0
1514948400035772,-2,-3,0,-1,-2,-2,-5,-1
1514948400035772,-1,-1,0,0,-2,-1,0,-2
1514948400053782,-3,-1,2,-2,-2,-1,-4,-2
1514948400053782,-1,2,-2,-5,-1,1,-1,1
1514948400055784,-2,-1,-4,-1,-1,-1,0,0
1514948400055784,-3,-2,2,0,1,-3,0,-4
1514948400067804,-1,-1,-1,-4,-3,2,-5,-2
1514948400067804,0,-1,0,-2,1,-2,-2,-3
1514948400076800,-1,1,-1,0,-1,-3,1,0
1514948400076800,-2,-1,-1,2,-3,0,-1,1
1514948400092811,0,1,-1,-1,-1,-3,1,-1
1514948400092811,-2,0,0,-2,-4,0,0,-1
1514948400095812,3,-2,-2,-4,0,-2,0,-3
1514948400095812,2,-1,-3,-2,-1,0,-3,-4
1514948400113837,0,-5,-2,1,0,-2,-4,0
1514948400113837,1,-3,-2,-3,0,-1,-1,-3
1514948400115839,-1,0,-3,0,-1,-2,-2,1
1514948400115839,-2,0,0,-1,0,-1,-1,-2
1514948400127835,2,-3,-1,-2,0,0,-3,-3
1514948400127835,-2,-3,-1,-2,-1,-2,1,2
1514948400136852,0,-1,3,0,-3,-3,-3,-2
1514948400136852,-2,-1,-3,-2,-1,-1,1,1
1514948400151866,-3,-1,0,-2,-2,0,-2,-1
