timestamp,emg1,emg2,emg3,emg4,emg5,emg6,emg7,emg8
1514894852904663,0,1,-2,-2,0,-2,-2,0
1514894852904663,0,-2,1,0,-1,0,-1,-2
1514894852906164,-4,-1,-1,-2,-1,0,-2,0
1514894852906164,0,0,-2,0,0,-1,-1,1
1514894852927179,-3,-1,-1,-1,-2,-2,-1,0
1514894852927179,-1,0,-1,0,0,-1,-2,-2
1514894852928680,0,-3,-1,0,-2,-1,-1,0
1514894852928680,-1,-1,-2,-2,-2,-2,0,1
1514894852950196,1,0,-2,-1,-1,-1,-2,-1
1514894852950196,-2,-2,-1,0,-2,0,-2,0
1514894852951697,-2,-2,0,-2,-3,-2,-1,0
1514894852951697,-2,-1,-2,0,-2,-1,1,-1
1514894852964706,-2,-1,-1,-2,0,-2,-2,-1
1514894852964706,0,-1,0,0,-2,0,1,-1
1514894852971211,-3,-1,-1,-1,0,-1,0,-2
1514894852971211,-1,-1,0,-1,-1,-2,-1,-1
1514894852987222,0,-1,-1,-2,-1,0,-1,-2
1514894852987222,-1,-1,-2,-2,-1,-2,0,1
1514894852988723,-1,-2,-1,-1,-1,0,0,-1
1514894852988723,-2,1,0,0,-2,-1,-1,-3
1514894853009738,-1,1,-1,0,-1,-1,-1,-2
1514894853009738,-1,-3,-1,0,-2,-2,-1,-1
1514894853013240,0,-3,0,-1,-2,-1,-1,0
1514894853013240,-1,-3,0,-2,0,0,-1,0
1514894853024247,-3,0,-2,-1,-2,-1,1,-1
1514894853024247,-1,-1,-2,-2,-2,-2,-1,-1
1514894853031253,0,-1,0,0,-1,0,-3,-2
1514894853031253,0,-1,0,-1,-1,-1,-1,-2
1514894853047263,-1,0,-1,-2,-1,-1,-2,2
1514894853047263,-2,-2,0,-1,0,-2,-1,0
1514894853048766,-2,-2,-2,-1,0,0,-1,0
1514894853048766,0,-1,-2,-2,1,-2,1,-1
1514894853069780,-1,-3,0,-2,-1,-1,1,-1
1514894853069780,-2,-1,0,-1,-1,-2,-1,0
1514894853071282,0,-1,-1,-2,-1,-1,-2,-1
1514894853071282,-1,2,-1,-2,0,-1,-2,-1
1514894853092295,0,-2,-1,-3,-1,-1,-1,-2
1514894853092295,-1,-1,-1,-1,-2,-2,0,-3
1514894853093796,0,-3,0,-2,-3,-1,1,-1
1514894853093796,-2,0,-2,0,0,-2,-2,-1
1514894853107807,1,0,-1,0,-3,-2,-2,1
1514894853107807,0,-3,-2,-1,0,-2,-1,1
1514894853109308,-1,-3,0,0,0,0,-3,1
1514894853109308,-2,0,-2,0,-3,-2,0,-1
1514894853129822,0,0,-2,0,-1,-2,0,-1
1514894853129822,-1,-1,-1,-2,-1,0,0,-2
1514894853131324,0,-2,-1,-2,0,-3,0,-2
1514894853131324,-2,-1,-1,0,-1,-2,-1,-2
1514894853144833,-2,-2,-2,0,-1,-1,-1,-1
1514894853144833,-2,0,0,-1,-1,-1,-2,0
1514894853150874,0,-1,-1,1,-1,0,0,-1
1514894853150874,0,1,0,-1,-1,1,-3,-1
1514894853167351,-1,-1,0,-1,-3,-1,0,0
1514894853167351,-1,-2,-2,0,-1,0,-2,-2
1514894853169850,-2,-1,-1,-1,0,-1,-1,0
1514894853169850,0,-1,-1,0,-2,-1,-1,-2
1514894853188871,0,-1,-1,0,1,0,-2,-1
1514894853188871,-1,-1,-1,-2,-3,0,-3,-1
1514894853190866,-1,-1,0,-1,-2,0,0,-1
1514894853190866,2,-1,-3,-1,0,0,0,0
1514894853203376,1,-1,-2,-1,0,-2,-1,-4
1514894853203376,-2,-1,-1,0,-1,-1,-1,-2
1514894853211388,1,1,-1,0,-1,-1,-1,-3
1514894853211388,0,1,-2,0,-3,-2,0,-1
1514894853226397,-2,0,-1,-2,-2,0,-1,0
1514894853226397,-2,-2,-1,-1,-1,0,0,-1
1514894853227406,0,0,0,1,0,0,-1,-1
1514894853227406,0,-1,0,-2,-1,0,-1,-1
1514894853248907,-1,-1,-2,-2,-1,-2,-1,-1
1514894853248907,-2,0,-1,-2,-1,-1,-1,1
1514894853249912,-1,-2,-3,-1,-2,-1,0,-2
1514894853249912,-3,-3,-2,-2,-1,-1,-2,0
1514894853263418,-2,0,-3,-2,-1,-1,-1,-2
1514894853263418,0,-2,-1,0,-3,-1,-1,-2
1514894853271423,-1,-2,-1,-2,-1,-1,-1,-2
1514894853271423,-1,1,0,-2,-1,-1,-2,0
1514894853286445,-2,-2,-1,1,0,-1,-1,-2
1514894853286445,0,-1,-1,0,0,-1,-2,-2
1514894853287433,-1,1,-1,-2,0,-2,-3,-3
1514894853287433,-1,-1,-2,-1,0,0,0,-2
1514894853308954,-2,-2,1,-1,-1,-1,0,0
1514894853308954,0,-1,-2,1,-1,0,-2,0
1514894853309949,-3,-1,0,0,-1,0,-1,0
1514894853309949,-2,-2,-2,-1,0,-2,-2,-1
1514894853323459,0,0,-1,-2,0,-1,1,-2
1514894853323459,-1,-1,-1,-1,0,0,-1,0
1514894853331966,-1,-2,-2,0,-3,-1,-2,-1
1514894853331966,-1,0,-2,1,-2,-1,-1,-1
1514894853346475,-1,-2,-1,-2,-3,2,-1,-1
1514894853346475,0,-2,-1,-2,-1,-3,-1,-3
1514894853347477,-2,-2,-1,-1,-1,0,-1,0
1514894853347477,-2,1,1,-1,-1,-1,0,-2
1514894853368991,-2,0,-2,-1,-1,-1,-1,0
1514894853368991,0,-1,-2,-2,-1,-1,0,-2
1514894853369992,-1,-1,-1,-1,-1,-2,0,-1
1514894853369992,-2,0,-1,-2,-1,-2,-1,0
1514894853383507,-1,0,-1,-1,-3,-3,-2,0
1514894853383507,-2,-3,-2,-2,-1,1,-1,-2
1514894853391507,-2,-2,0,1,-2,-2,0,0
1514894853391507,1,0,-2,-2,0,0,-2,-2
1514894853415524,1,0,0,-1,-2,-1,0,-1
1514894853415524,0,-2,0,-1,-2,-2,-1,1
1514894853417526,-1,-2,-1,-1,0,-1,-1,-1
1514894853417526,-2,-1,-1,1,-1,-2,0,1
1514894853429034,-1,0,-2,-2,-1,0,-3,-2
1514894853429034,-1,-1,1,-1,-1,-1,-3,0
1514894853429534,-1,-3,0,-1,-1,0,0,-2
1514894853429534,-1,-1,1,-2,-2,-1,1,-2
1514894853445046,0,-1,-2,0,-1,-1,0,-1
1514894853445046,-2,-1,-1,0,-2,-1,-1,-2
1514894853451551,0,-1,-2,-1,0,-1,-1,-2
1514894853451551,-2,0,-1,-1,-3,-1,-2,-1
1514894853466580,0,-1,-2,-2,0,-1,-1,-1
1514894853466580,-2,-2,-1,-1,-2,-1,-1,-1
1514894853467062,-1,-1,-1,1,-2,-2,-4,-1
1514894853467062,-1,-1,-2,-3,-1,-1,-1,-1
1514894853489091,-1,-1,-1,-1,0,0,0,-1
1514894853489091,0,-1,-1,-2,1,-1,0,1
1514894853489576,-3,-1,-2,-2,-1,-2,0,-1
1514894853489576,-2,1,-1,-1,-1,-1,-2,-1
1514894853504088,-2,0,-1,-1,-2,0,-1,-1
1514894853504088,-1,-1,-2,-1,-1,-2,-1,-3
1514894853511104,-2,-2,-2,-1,-1,-1,0,-1
1514894853511104,-1,-1,0,-1,0,-2,-1,-3
1514894853526602,0,-1,-1,-2,0,-2,0,0
1514894853526602,0,-1,-2,0,-2,-2,-2,0
1514894853527103,0,0,0,-2,0,0,-2,-1
1514894853527103,-1,-1,-1,-1,-1,-2,-1,-1
1514894853549118,0,-1,-1,-1,-1,0,-1,1
1514894853549118,0,-2,0,-3,-1,0,-2,-2
1514894853550120,0,0,-1,-2,0,-1,-3,1
1514894853550120,-1,0,-1,-1,-1,-1,-1,-1
1514894853563628,-2,0,-1,-1,-3,-1,-2,-2
1514894853563628,-2,-2,-2,-1,-2,-1,-2,-1
1514894853571635,-3,-1,0,1,-1,-2,1,-1
1514894853571635,-1,-1,-2,-1,-1,-1,-1,-1
1514894853586145,-2,-1,-3,0,-2,-2,-1,-2
1514894853586145,-1,-1,-1,-2,0,-2,0,-2
1514894853594151,-1,-1,-1,-1,-1,0,-1,-2
1514894853594151,0,-1,-1,0,-1,-1,-2,-1
1514894853608662,-2,-2,-2,-1,0,0,-1,-2
1514894853608662,0,-2,0,-1,-1,0,0,-1
1514894853609662,0,-2,-2,-3,-1,-1,-2,-2
1514894853609662,0,-1,-1,-1,0,-1,-2,-1
1514894853633180,-1,0,0,-1,0,0,-1,-1
1514894853633180,-1,-2,0,0,-1,1,0,-1
1514894853634680,-3,0,0,-1,-1,-1,0,-1
1514894853634680,1,1,-2,-1,0,-2,0,-1
1514894853646688,-2,-3,-1,-2,-2,-2,0,-1
1514894853646688,-1,-3,-2,0,-1,-2,-1,0
1514894853647690,-2,2,-1,0,-2,-2,-1,-1
1514894853647690,0,-1,-3,-2,-1,0,-1,-1
1514894853669203,1,-4,0,0,0,-2,-3,-2
1514894853669203,1,0,0,-1,-1,0,0,-1
1514894853670705,2,0,-2,-1,-1,1,-2,0
1514894853670705,0,0,0,1,-1,-1,0,-1
1514894853683213,0,-5,-1,0,-2,0,1,-1
1514894853683213,-3,-3,-1,1,-1,0,-1,-2
1514894853691719,-1,2,-2,-1,0,-1,-1,-2
1514894853691719,-2,-2,1,-1,-3,-1,-2,0
1514894853708231,-2,-3,0,-1,0,-2,-1,0
1514894853708231,-3,-3,-2,-3,-1,-2,-1,0
1514894853710233,0,0,-3,-2,-2,1,1,0
1514894853710233,-1,0,-1,-1,-1,0,0,0
1514894853729246,-1,-1,-1,0,-2,-2,-2,-1
1514894853729246,-1,0,-3,-1,0,-1,-2,-3
1514894853729746,0,-1,0,0,-3,-1,1,-2
1514894853729746,-2,0,-2,-2,-2,1,-1,-2
1514894853743256,0,2,0,-2,-2,0,-1,1
1514894853743256,0,0,0,-2,0,0,-1,0
1514894853751762,1,-2,0,-1,0,-2,-3,0
1514894853751762,-1,-1,-1,-1,-2,0,-1,-2
1514894853766774,-1,0,0,-1,-1,0,-1,-1
1514894853766774,-2,-2,-1,-1,-1,-1,-2,-2
1514894853767273,-2,-2,-1,-2,0,0,-3,-2
1514894853767273,0,1,-1,-2,0,-1,0,-2
1514894853788797,0,1,-2,-1,0,0,-1,0
1514894853788797,-2,-2,0,0,-1,0,0,0
1514894853789789,-2,-3,-1,0,0,-1,0,-1
1514894853789789,2,-1,-4,-2,-2,0,-1,-2
1514894853812320,0,2,-1,-2,0,-3,-1,-2
1514894853812320,0,-3,-1,-1,-1,-1,-1,0
1514894853812815,0,-2,0,-2,1,-1,0,-1
1514894853812815,-1,-1,-1,-1,-1,-1,0,-1
1514894853826316,1,-1,-2,-2,-1,-1,-1,-1
1514894853826316,-1,-1,-3,-2,-1,-2,0,-1
1514894853827318,-1,-1,-2,-1,-1,-1,-1,-1
1514894853827318,0,0,-2,-2,-1,-1,-2,0
1514894853848840,-1,0,-2,1,-2,-2,-1,-2
1514894853848840,0,0,1,-2,-1,-2,-1,-2
1514894853856336,-1,-3,-1,0,-1,-1,-1,-3
1514894853856336,-2,-1,-1,-1,0,-2,-1,0
1514894853872347,-1,-1,-1,-2,-5,-2,-2,-1
1514894853872347,-1,-1,0,-2,-2,-1,-2,0
1514894853872848,-1,-1,0,0,-2,-1,-3,-2
1514894853872848,-1,1,-1,-1,-1,-2,-1,-1
1514894853886357,-2,0,-2,-2,0,-1,-1,-2
1514894853886357,-2,-4,-2,0,-1,-2,-1,-1
1514894853887357,-1,-3,0,-1,-1,-1,0,-1
1514894853887357,0,1,-2,0,-2,-2,1,-2
1514894853908874,-1,0,-2,-2,0,0,-1,-1
1514894853908874,0,-2,-2,-3,-2,-1,-1,-1
1514894853909874,-1,-3,-1,-1,-2,-1,0,-1
1514894853909874,-1,0,-2,-1,0,0,-1,-1
1514894853932393,0,-1,-2,0,-1,-2,-1,-3
1514894853932393,-1,-3,-3,-1,-1,-2,-2,-2
1514894853932901,-1,-2,-2,0,-1,-2,-2,-1
1514894853932901,0,0,0,-2,-1,-1,-1,0
1514894853946401,-1,0,-1,-1,-2,-1,-1,-1
1514894853946401,-2,-2,0,2,-1,-1,-1,-1
1514894853947401,0,-1,-1,-2,-2,-1,1,-1
1514894853947401,0,0,-1,-2,-2,0,-2,-1
1514894853968916,-2,-1,-2,0,-2,0,0,1
1514894853968916,0,-1,0,1,-2,-2,1,-1
1514894853969917,-1,-1,-2,0,-1,-1,0,-2
1514894853969917,-2,0,-1,0,-2,0,-1,-1
1514894854000439,-1,-1,-2,-3,-3,-1,-1,-1
1514894854000439,-1,-3,-3,-3,-1,0,-1,-1
1514894854002451,0,-2,0,-2,0,-1,-2,-2
1514894854002451,-2,0,0,-1,-1,-1,0,1
1514894854006441,-2,-1,-2,-2,1,1,-1,0
1514894854006441,-1,-2,0,-2,-1,1,-1,0
1514894854007442,0,-1,-2,0,-1,0,-1,-2
1514894854007442,-1,-1,-2,-2,0,-1,-2,-2
1514894854036964,-1,-2,-1,0,0,0,-1,-1
1514894854036964,-1,-3,1,0,-1,-1,-4,0
1514894854037965,-1,-1,-2,-1,-1,-1,-2,-2
1514894854037965,-1,1,-3,0,-1,0,0,-1
1514894854051975,-1,0,-2,-3,-2,-2,-1,0
1514894854051975,-1,-1,-2,1,0,0,0,-1
1514894854052976,0,-2,-2,1,-1,-2,-3,0
1514894854052976,-1,1,-2,-1,-1,-3,1,-3
1514894854074491,0,1,-1,-1,-1,0,-1,-2
1514894854074491,-1,-4,-2,-2,-2,-2,0,-2
1514894854075493,0,1,1,0,-1,-1,0,0
1514894854075493,-1,0,0,-2,-2,-2,-1,0
1514894854089001,-1,-1,-1,-1,0,-2,-2,0
1514894854089001,0,0,-1,0,-3,-1,-1,-1
1514894854090001,-3,-1,0,-3,-1,-1,-2,-2
1514894854090001,0,0,-1,0,0,-1,-1,0
1514894854112016,0,-2,-1,-1,-2,-4,0,-2
1514894854112016,-1,-4,0,-1,1,-1,-2,-1
1514894854113017,-1,-2,-3,0,0,-1,-1,0
1514894854113017,-1,1,1,0,-1,-1,-1,-1
1514894854127028,-1,1,-2,0,0,-2,0,-1
1514894854127028,-1,-1,0,0,-2,-1,-1,-3
1514894854134543,-2,0,-1,0,-1,-1,-3,-1
1514894854134543,-1,0,-1,-2,1,-1,-2,-1
1514894854149043,-3,-3,-1,0,1,0,0,-3
1514894854149043,-2,-3,-2,-1,-2,-1,-2,0
1514894854150544,-2,0,-1,0,-2,-1,1,-1
1514894854150544,0,2,-1,-2,-1,-2,1,-1
1514894854172060,2,0,-1,-2,-3,-1,0,0
1514894854172060,0,-1,0,-2,-2,1,-2,-2
1514894854173060,1,-2,0,-1,-1,1,0,-2
1514894854173060,0,-1,-1,0,-1,1,-2,-3
1514894854186578,-1,-1,-1,1,0,-1,-2,-1
1514894854186578,-3,-3,-2,-2,-1,0,-1,-2
1514894854187069,-2,-1,0,-1,-1,-1,-1,-1
1514894854187069,-1,0,-1,-2,-1,-1,-2,1
1514894854217600,0,-2,-1,1,-2,-2,-1,0
1514894854217600,-1,-1,-1,0,-1,-1,-2,-2
1514894854218591,-1,-1,-2,-2,-2,-1,-1,0
1514894854218591,-1,0,-3,-2,-1,-1,0,-1
1514894854233602,-1,-2,-2,-3,-4,0,0,-1
1514894854233602,0,-2,0,-1,1,-2,0,2
1514894854235113,-1,0,-1,-2,-1,-1,-1,0
1514894854235113,0,1,0,-1,-2,-2,-3,-1
1514894854246624,-2,-2,-1,-1,-2,-1,0,0
1514894854246624,-2,-3,0,-3,-2,1,-2,-2
1514894854247112,-2,0,-2,0,0,0,0,-2
1514894854247112,0,0,-1,-2,0,0,0,-1
1514894854277142,-2,-2,-1,0,0,-2,0,-2
1514894854277142,-2,-3,0,-1,0,-1,-1,-2
1514894854278133,-2,0,0,-3,-1,0,-1,0
1514894854278133,-1,1,-1,0,-1,-1,-1,-2
1514894854292144,0,0,-3,-1,-1,0,0,0
1514894854292144,-2,-2,-1,-1,-1,1,-1,-2
1514894854293145,0,0,-1,0,-2,-2,0,-1
1514894854293145,0,0,-1,-1,-1,0,0,0
1514894854306655,-1,-3,-1,-2,0,-2,-2,0
1514894854306655,0,-2,-2,0,-2,-1,0,-1
1514894854307163,-2,0,-1,-3,-1,-3,-1,-2
1514894854307163,-2,1,-3,-2,-2,-1,-1,-1
1514894854329171,-2,-2,0,-3,0,1,-2,0
1514894854329171,-1,-2,-2,-1,-1,-2,-2,0
1514894854330672,0,0,-1,1,0,-2,0,0
1514894854330672,-1,0,-2,-1,-2,0,-1,-1
1514894854352187,0,-2,-1,-1,-2,1,-2,-1
1514894854352187,-1,-3,-2,-2,1,-1,0,1
1514894854352686,0,-1,-2,-3,-1,1,-2,1
1514894854352686,-1,0,-1,0,-2,-2,-1,-1
1514894854366696,0,-2,0,-1,-2,-1,-1,-1
1514894854366696,-1,-1,0,-1,-2,-2,0,-1
1514894854367198,-1,0,0,-2,-2,-1,0,-1
1514894854367198,-2,0,-1,-1,-1,-2,0,-1
1514894854389211,-1,-2,-2,-3,-2,-1,-1,-3
1514894854389211,-1,-2,-3,-2,0,-1,-1,-1
1514894854389722,-1,0,-1,-1,-2,0,-2,-2
1514894854389722,-1,0,-2,-2,-1,-1,-3,-2
1514894854413730,0,-2,-1,0,-1,-3,-2,-2
1514894854413730,1,-3,0,-1,-1,-2,0,-1
1514894854415230,-1,-1,-2,1,-1,1,0,1
1514894854415230,-1,-1,-1,-2,-1,-1,0,-2
1514894854425737,-1,-3,-2,-1,-1,-1,0,0
1514894854425737,-2,-1,-1,-1,0,-1,-1,-1
1514894854434244,-1,-1,-1,0,-2,-2,0,-1
1514894854434244,-2,0,-2,-1,-1,-2,0,0
1514894854449255,-1,-2,0,-1,-1,-2,1,-1
1514894854449255,-2,-2,-1,-1,-1,1,-2,-1
1514894854449756,0,2,-1,0,-1,-2,-1,-4
1514894854449756,-1,0,0,-1,-1,-1,0,-2
1514894854472280,0,-2,-1,0,0,0,0,-1
1514894854472280,0,-2,-1,-2,-1,-3,-1,0
1514894854473272,-2,-2,-1,-3,-1,-2,-1,1
1514894854473272,1,-1,-1,1,-1,1,0,-2
1514894854485781,-1,0,0,-1,-2,-3,-1,0
1514894854485781,-2,-3,0,2,-1,-1,0,-2
1514894854493786,-1,0,0,0,-2,0,-1,-1
1514894854493786,-2,2,-2,0,-2,-2,0,-2
1514894854508797,-3,-2,-1,-1,-1,-1,-1,0
1514894854508797,-1,-4,-2,1,-1,-1,-2,-2
1514894854509798,-2,-1,-3,-1,-1,-2,0,0
1514894854509798,0,0,-1,1,-1,0,-1,0
1514894854532314,-1,-1,-1,0,0,0,0,-1
1514894854532314,-1,-3,0,-1,-1,-1,0,-1
1514894854532813,-1,-1,0,-1,-2,-1,-3,-2
1514894854532813,-1,3,0,-1,-1,0,-2,-1
1514894854554829,-1,0,0,-2,-2,-1,-1,-2
1514894854554829,0,0,0,-1,-1,-1,-1,0
1514894854555343,-1,2,-1,0,-1,-1,0,0
1514894854555343,0,0,0,-2,-2,-2,-1,-1
1514894854568839,-1,-3,-1,-1,0,-1,-4,0
1514894854568839,-1,-4,-1,-1,-2,0,-2,-2
1514894854569850,0,-1,-1,0,1,-2,-2,-2
1514894854569850,0,-1,-1,-3,-2,-3,-2,-1
1514894854592355,-2,-2,-2,-1,-1,0,0,0
1514894854592355,-1,-2,-1,-2,-1,-1,-1,-2
1514894854592857,-3,-1,-2,-1,-2,0,1,-1
1514894854592857,-2,-1,-3,-2,-2,0,-1,0
1514894854605877,0,-3,0,-1,-1,-2,-2,1
1514894854605877,-2,-2,-1,-1,0,-2,-1,1
1514894854613870,1,1,-2,-2,0,-1,0,-3
1514894854613870,-2,0,-3,0,-2,-1,0,0
1514894854629394,-1,-3,-3,-2,0,-1,-3,-1
1514894854629394,-2,-3,-1,0,-3,-1,-2,0
1514894854631421,-2,-2,-1,-1,-2,-1,-2,-2
1514894854631421,0,-2,-1,-3,-1,-1,0,0
1514894854652399,-2,-1,-2,-2,-2,-2,0,-2
1514894854652399,-1,-1,0,-1,0,0,-1,-2
1514894854652899,0,0,-1,0,0,-1,-1,-1
1514894854652899,-2,0,0,-2,0,0,0,-2
1514894854665928,-1,-3,0,-2,-3,0,-1,-2
1514894854665928,-1,-3,-2,0,-1,1,1,-1
1514894854673923,0,-1,0,-1,-2,-2,-1,0
1514894854673923,0,1,0,-1,0,0,-1,-2
1514894854688925,0,-2,-1,1,-2,1,1,-1
1514894854688925,-1,-2,-2,0,-1,-1,-1,-2
1514894854689925,-1,0,0,0,0,0,-3,0
1514894854689925,-3,0,-2,-1,-1,-1,-1,0
1514894854712440,-3,0,-1,0,0,-2,-1,-2
1514894854712440,-1,-1,-2,-1,-1,-2,-1,0
1514894854713954,-3,-2,-1,-1,-1,-1,0,-3
1514894854713954,0,-1,0,-2,0,0,0,-3
1514894854725950,-1,-3,0,-4,0,-2,-2,-1
1514894854725950,-4,-2,1,-2,-2,1,-1,-1
1514894854734464,0,0,1,-2,0,-3,-2,-2
1514894854734464,-1,-1,-3,-1,-2,-3,-2,-1
1514894854748966,-1,-2,-1,1,-1,0,0,0
1514894854748966,-1,-2,-3,1,0,-1,0,0
1514894854756485,-1,-1,-2,-2,-2,-3,-1,-1
1514894854756485,0,0,-2,0,-1,0,-2,-2
1514894854771983,0,0,-2,-1,0,-2,-1,-1
1514894854771983,-1,-2,-4,-1,-2,-1,0,-2
1514894854772983,-1,0,-1,-2,-1,0,-1,1
1514894854772983,-3,0,1,-2,-1,-3,0,0
1514894854802007,-2,-3,0,-2,-1,-2,-2,-1
1514894854802007,-1,-3,0,-1,-2,0,-1,0
1514894854803005,-1,-1,-1,-2,-3,-1,0,-1
1514894854803005,1,1,-1,-1,-1,-2,-1,0
1514894854809510,0,-1,-1,-1,0,-1,-2,-2
1514894854809510,-1,-3,0,1,-1,-1,-1,-2
1514894854811511,0,0,-2,-2,-3,-1,-1,1
1514894854811511,-1,-1,0,-2,-1,-2,-2,0
1514894854833026,-2,-1,0,0,-2,-2,-2,0
1514894854833026,-1,0,0,-3,1,-1,-1,0
1514894854834543,-2,0,1,0,-1,-2,0,-2
1514894854834543,0,0,-2,-2,-1,0,-2,-1
1514894854855041,-1,-2,-2,-1,-2,-1,0,-1
1514894854855041,-1,-2,-1,0,-2,1,0,-2
1514894854855554,-1,1,-2,0,0,-2,0,-2
1514894854855554,0,1,-2,-1,-2,-1,0,-1
1514894854869052,0,-3,0,0,-3,-2,-3,-2
1514894854869052,2,-1,-2,-1,-2,-2,0,0
1514894854869553,0,-2,-1,-3,0,-1,1,-1
1514894854869553,0,-1,-1,-1,-1,-2,0,-1
1514894854892068,-1,-2,-3,-1,0,-2,0,0
1514894854892068,-3,-2,0,-2,0,-1,-2,-2
1514894854893068,-1,0,-3,0,-1,0,-2,-1
1514894854893068,-2,0,0,-1,-1,-3,-1,-1
1514894854914587,-1,-1,-1,0,-1,-2,0,-1
1514894854914587,-1,0,-1,0,-1,0,-1,-1
1514894854915585,0,-2,-2,-1,-2,1,-1,-1
1514894854915585,-1,0,-2,-2,-2,0,0,-2
1514894854929093,-1,-1,-1,0,-1,-1,0,-1
1514894854929093,-3,0,-1,-1,0,-2,-1,-2
1514894854929595,-1,0,-1,-1,-2,-2,-1,0
1514894854929595,-1,-2,-1,-1,0,-1,-3,-1
1514894854952123,0,-2,0,-3,-1,0,-2,-2
1514894854952123,0,-2,1,0,-2,-1,-2,0
1514894854953112,0,0,-1,-1,-2,1,-1,-2
1514894854953112,-2,0,-5,-1,1,-2,0,-1
1514894854974626,0,1,-1,0,0,-2,-2,0
1514894854974626,-1,-2,-2,0,-1,-1,-3,0
1514894854975127,-2,-1,-1,-1,-1,-2,-3,-1
1514894854975127,-2,-3,-2,0,-2,-2,-1,-1
1514894854989137,-2,-2,-1,-1,-3,-1,-1,-2
1514894854989137,-2,-2,-1,-2,-2,-2,1,0
1514894854989647,1,0,-1,-1,-1,-2,-2,-1
1514894854989647,0,-2,0,-2,-1,-2,0,-1
1514894855012154,-1,-1,-1,1,0,0,-1,2
1514894855012154,-1,-1,1,-1,-1,0,-1,-1
1514894855012652,0,0,0,0,0,-2,0,1
1514894855012652,-1,-2,-1,-1,-1,0,-2,-1
1514894855034669,0,-2,-2,-2,-1,0,0,-3
1514894855034669,-1,-2,-2,-1,-2,-1,-2,-3
1514894855035171,-1,-2,-1,-1,-1,-2,0,-1
1514894855035171,-2,-1,2,-2,-2,-2,0,0
1514894855049180,-1,-2,-1,-2,0,-1,-2,0
1514894855049180,-1,0,-2,-2,0,-2,-1,-2
1514894855049680,0,-1,-2,-1,-1,-2,-1,-3
1514894855049680,0,0,-1,0,-1,1,-1,0
1514894855072195,-2,-1,0,-1,-2,-1,0,-1
1514894855072195,-2,-2,0,-2,-1,-1,0,0
1514894855072695,-2,-1,-1,-1,0,-1,-1,-1
1514894855072695,0,-2,-3,-2,-1,-1,-1,-3
1514894855094710,-2,-2,-3,-2,0,-2,-2,-2
1514894855094710,-1,-1,-3,0,-2,-2,-1,0
1514894855095210,-1,-1,0,-3,-2,-1,-1,-1
1514894855095210,-1,0,0,-1,0,-2,-1,0
1514894855109721,-1,-3,0,-2,-2,0,-1,-3
1514894855109721,0,-2,0,-1,-1,-1,-2,-2
1514894855110222,-2,1,-1,-1,-1,-1,-1,-1
1514894855110222,-1,0,0,-1,-1,-1,1,1
1514894855132247,-1,-1,-2,-1,-2,-1,-1,0
1514894855132247,-2,-1,-1,0,-2,-1,-1,-1
1514894855133237,-1,-1,-2,-1,0,-1,-1,0
1514894855133237,-1,-2,-2,-2,-1,-2,-2,-2
1514894855154753,-1,-1,-2,-2,-2,-1,0,-1
1514894855154753,-1,-2,-1,0,-2,0,0,-1
1514894855155253,-1,0,-2,-2,0,-1,-1,-2
1514894855155253,0,-1,-1,-2,-1,-1,-2,0
1514894855169263,-3,-1,0,1,-2,-3,-2,0
1514894855169263,-2,0,0,-2,-2,-2,-2,-2
1514894855170774,-1,1,-1,-1,-1,-1,-1,1
1514894855170774,0,-1,0,-1,-1,-1,-1,-2
1514894855192281,0,-1,-2,0,-1,-1,-1,-1
1514894855192281,-1,-1,0,-1,-1,-2,-3,2
1514894855192780,0,-1,-2,-2,-1,0,-1,-2
1514894855192780,0,0,-3,-2,-2,-1,-1,-2
1514894855215799,-2,-4,-3,-1,0,0,-1,-1
1514894855215799,0,-1,-1,-1,0,0,0,-1
1514894855216298,-1,-2,-1,-1,-2,-1,-1,0
1514894855216298,-1,-1,-1,-1,0,-1,0,-1
1514894855228808,-2,-4,0,-1,-2,1,0,-1
1514894855228808,0,1,0,-1,-1,-2,-1,0
1514894855229810,-2,1,-3,0,-2,-1,-2,-1
1514894855229810,-1,-2,-2,-2,-2,0,-2,1
1514894855252322,-2,-1,0,1,-2,-2,-1,1
1514894855252322,0,-1,-1,-1,0,0,-1,-3
1514894855252832,0,-2,0,-2,-1,0,-1,-1
1514894855252832,-1,-1,0,0,0,-2,-1,1
1514894855275840,-1,-2,-2,-1,0,-1,-1,-2
1514894855275840,-1,-2,-3,0,-1,-2,-2,-2
1514894855277343,-2,-1,-1,-1,0,-1,0,-1
1514894855277343,-1,0,-1,-1,0,0,-1,0
1514894855288348,1,-2,0,0,1,0,-1,-1
1514894855288348,-1,0,-1,-1,-1,-2,0,0
1514894855297857,-2,-1,-2,-1,-1,-1,0,0
1514894855297857,-2,-4,-1,-1,-2,-1,0,-1
1514894855311865,-1,0,-1,-2,-1,1,-2,0
1514894855311865,0,0,-1,-1,-1,0,-2,-3
1514894855314866,-1,-1,0,-2,-3,0,-1,-1
1514894855314866,-3,0,-3,-1,0,0,-2,-2
1514894855335381,0,-1,-2,0,0,0,0,-1
1514894855335381,-1,-2,-1,-1,-1,0,-1,-1
1514894855337382,-1,1,-1,-1,1,0,-1,-1
1514894855337382,2,0,-3,1,-2,-2,-1,0
1514894855348401,-2,-1,-1,0,0,-2,0,-3
1514894855348401,-3,-1,0,-2,-1,-1,-3,-6
1514894855357396,0,-1,-2,-1,0,-1,3,6
1514894855357396,1,-3,-1,-3,-3,-4,2,6
1514894855371908,-2,-4,-2,-2,-1,-2,-3,0
1514894855371908,-2,0,0,1,-3,-1,-2,-2
1514894855374910,-1,1,-1,0,-1,0,-4,-8
1514894855374910,-2,0,0,-1,-1,1,4,-3
1514894855394423,0,-2,-1,-2,-1,-1,0,0
1514894855394423,-1,1,-2,-2,1,-1,0,0
1514894855398426,-1,1,-2,0,-2,0,2,1
1514894855398426,-1,-2,0,-1,0,-1,-3,-2
1514894855408433,-3,-2,1,-1,-3,0,0,-3
1514894855408433,-1,-3,-2,-2,0,0,1,-1
1514894855417438,-1,0,-2,1,-2,-2,0,0
1514894855417438,-2,0,-2,-1,-1,-1,-3,-3
1514894855432450,-1,-2,-1,1,0,-2,-2,-3
1514894855432450,-1,1,-2,0,-2,-3,0,2
1514894855433950,0,-1,-2,0,-1,-2,-2,1
1514894855433950,-2,-3,-1,-2,0,-2,-1,-2
1514894855454469,-2,-1,0,0,0,1,0,2
1514894855454469,1,0,-1,-3,-1,-1,1,0
1514894855456466,-1,0,-2,-2,1,0,-1,-2
1514894855456466,-1,-1,-1,-2,-1,-1,-1,-3
1514894855468516,0,-4,-1,-1,-1,-1,-1,0
1514894855468516,-3,0,-1,0,-2,0,0,0
1514894855477013,-1,1,0,-1,-2,-2,-2,-3
1514894855477013,-1,-1,0,-1,-1,0,-1,-1
1514894855492036,-1,-1,0,0,-1,-3,-2,-1
1514894855492036,1,0,-1,-2,-1,-1,-1,-1
1514894855494537,-1,0,-1,-1,-2,-1,-1,0
1514894855494537,-1,-2,-4,-1,0,-1,-1,-1
1514894855515543,-1,0,-2,-2,-1,-1,-1,-2
1514894855515543,-3,-2,-1,1,-1,-2,-1,0
1514894855519043,1,-1,-1,-1,-1,-2,-1,-2
1514894855519043,0,-4,-2,1,-1,0,-2,-2
1514894855528559,-3,-3,-3,-1,-1,-2,-1,-1
1514894855528559,0,0,-2,-1,-2,-1,0,-1
1514894855537064,-1,0,-1,-1,0,-2,-2,-1
1514894855537064,-2,-1,0,-1,-1,-1,-2,0
1514894855552078,-2,-2,-1,0,0,-2,0,2
1514894855552078,-1,-1,-2,0,0,1,0,1
1514894855553577,1,-1,-1,-2,0,-1,-1,-2
1514894855553577,0,0,1,0,0,-1,0,-2
1514894855574584,0,-1,-2,-2,-4,-1,-1,-2
1514894855574584,-2,0,-1,-1,2,0,-2,0
1514894855577093,-1,0,-3,-1,-3,-1,-3,-1
1514894855577093,-1,-3,-1,-1,-2,1,0,-3
1514894855588592,-1,-2,0,0,-1,-1,0,-1
1514894855588592,1,0,-1,-1,-1,0,-1,-1
1514894855597099,-1,0,-1,-1,-2,-2,1,-1
1514894855597099,-3,-4,0,0,-1,-3,-1,0
1514894855612109,-1,-2,-1,-3,-3,0,-2,-2
1514894855612109,-2,-2,-1,0,-2,-3,-2,-1
1514894855613610,-2,0,-1,-1,1,-2,-2,-1
1514894855613610,0,-1,0,-1,-3,-2,-1,-3
1514894855641140,-1,-2,0,1,0,1,-1,-1
1514894855641140,-2,1,-1,-1,-1,-1,0,-1
1514894855650636,-2,0,-2,-1,-1,0,-1,-2
1514894855650636,-1,-2,-2,-1,0,0,-2,-2
1514894855651137,-1,-3,-1,-1,0,-1,0,0
1514894855651137,-1,1,-3,-1,-1,-2,-1,-2
1514894855664674,-3,0,0,0,-2,-1,0,1
1514894855664674,-1,0,-5,-1,-2,-1,-1,-2
1514894855672686,0,-3,0,0,0,1,-3,-1
1514894855672686,-3,0,-2,-1,-1,-1,-2,0
1514894855675179,1,0,0,-2,-1,-1,0,-2
1514894855675179,0,-1,0,-1,-1,-1,-1,-1
1514894855694694,-2,-1,0,-1,-1,0,-1,-3
1514894855694694,-1,0,-1,-1,0,-1,0,-2
1514894855696207,-1,1,-2,-3,-1,0,-1,-1
1514894855696207,-1,-2,-2,0,-1,-2,-1,-2
1514894855718210,-1,-2,0,-1,-2,-2,-1,-2
1514894855718210,1,-1,1,0,-1,-1,0,-2
1514894855721712,0,0,-1,-1,0,-2,-2,-1
1514894855721712,1,-2,0,-2,0,-1,-1,-1
1514894855732220,-2,-3,-4,-2,-1,-1,1,0
1514894855732220,0,-1,-2,0,-1,-1,-1,-1
1514894855733721,-1,0,-1,0,-2,-1,-2,0
1514894855733721,-3,-1,-1,-1,-3,-1,-1,-1
1514894855755236,-1,-2,0,0,-2,-1,-3,-1
1514894855755236,-1,1,-2,-2,0,0,-2,-1
1514894855760740,0,1,-1,-1,0,0,-1,-1
1514894855760740,-2,-2,0,-1,1,-1,0,0
1514894855777253,-1,-2,-2,0,-2,-2,0,-1
1514894855777253,-1,-2,-1,-1,-2,0,-3,-1
1514894855779753,1,0,-1,-2,-2,-2,-1,0
1514894855779753,-1,-2,-3,-2,-2,0,-1,-1
1514894855799768,-2,-2,-1,-2,-1,-2,-1,-1
1514894855799768,0,-1,0,-1,-1,-1,1,-2
1514894855801269,1,0,-2,0,1,0,0,-1
1514894855801269,0,-1,-1,-1,0,-2,-1,0
1514894855814778,-1,-3,-2,0,0,0,-1,-1
1514894855814778,-1,1,-1,-1,-2,0,-2,0
1514894855816293,1,0,-1,-1,-3,0,-3,-2
1514894855816293,-3,-3,-2,0,-1,-2,-2,1
1514894855837295,0,-2,-1,-1,0,0,-2,-1
1514894855837295,-3,-2,-1,-1,0,0,-1,-3
1514894855838796,-1,0,-2,-2,-1,1,-1,-1
1514894855838796,-1,-3,-2,-1,-1,0,-2,0
1514894855852315,0,-1,-1,0,-2,-1,-1,0
1514894855852315,0,0,-2,-1,-1,-3,-1,1
1514894855853815,-1,1,-2,-1,1,-1,0,-1
1514894855853815,0,0,0,0,-1,0,-1,-3
1514894855874820,-1,-2,-2,1,0,-1,0,-1
1514894855874820,-1,-1,-1,-2,1,-1,-1,-1
1514894855878323,-2,-1,-4,0,-1,0,1,-2
1514894855878323,0,-1,-2,-1,-1,0,-2,-1
1514894855897336,-1,-2,0,-2,-1,-1,0,-1
1514894855897336,-2,-1,0,-2,-3,-2,-1,-1
1514894855898838,-3,2,0,-2,-2,-2,-1,0
1514894855898838,0,-2,-1,-1,-1,0,-1,-2
1514894855911360,-1,-4,-1,-2,-1,-2,-3,-3
1514894855911360,-2,0,-3,-1,-1,-3,0,-2
1514894855918351,-2,0,-1,-2,-2,-1,-2,1
1514894855918351,-1,-2,-2,-1,-2,-1,2,-1
1514894855942368,-1,-3,-1,-1,-2,-2,-1,1
1514894855942368,0,-1,0,-1,-2,-2,0,-1
1514894855943869,0,-1,1,-1,-1,-2,-1,-2
1514894855943869,-1,-2,0,0,-1,0,-2,-1
1514894855956878,-1,-1,1,-2,1,-1,-2,0
1514894855956878,-2,1,-1,-1,-1,-1,-3,-1
1514894855958880,0,0,-1,-1,0,-2,0,-3
1514894855958880,-2,-2,-1,-3,-1,-2,0,0
1514894855971389,-1,-3,-4,-1,-1,-2,-1,-1
1514894855971389,-2,-1,-3,-1,-1,-1,0,-1
1514894855978394,-1,1,-2,-2,-1,-2,-1,-1
1514894855978394,-1,0,-1,-1,0,-2,-2,0
1514894855994405,-2,-1,-2,0,0,0,-1,-2
1514894855994405,-1,1,-2,-1,-3,-1,-1,-2
1514894855996406,-1,0,-2,0,-1,-3,0,-1
1514894855996406,-1,-2,-1,0,0,-1,-1,-1
1514894856016921,-1,-3,0,-2,-1,-2,0,0
1514894856016921,0,1,-1,1,-2,-2,-1,-2
1514894856018922,-2,-1,-2,-2,-3,-2,0,0
1514894856018922,-1,-1,0,-2,-2,-1,0,0
1514894856039437,-2,-3,-1,-1,-1,-1,-2,-1
1514894856039437,-2,-1,-1,-1,-2,-2,0,-1
1514894856041438,0,1,-1,-1,-1,-2,-2,-1
1514894856041438,-2,-2,0,-1,-2,-1,-2,-1
1514894856061958,-1,-3,-1,0,-1,0,-1,-1
1514894856061958,-1,-1,0,-2,0,0,0,0
1514894856063954,0,0,-1,-2,-2,-1,-1,-1
1514894856063954,0,-2,-1,-1,-1,-1,0,-1
1514894856078465,-2,-1,-1,0,-1,0,-2,0
1514894856078465,0,0,-1,-1,0,-1,-2,-2
1514894856080466,-2,-2,-3,1,-1,0,-1,-2
1514894856080466,0,-3,-1,-1,0,-2,0,-1
1514894856091474,-2,-2,-2,-1,-1,-1,0,-1
1514894856091474,0,-1,-1,-1,0,0,-1,0
1514894856098479,-3,1,0,-1,0,1,-2,-1
1514894856098479,-1,-2,-2,0,0,-2,-1,-1
1514894856114490,-1,-2,1,0,-1,0,0,0
1514894856114490,1,-1,-2,-1,-1,-2,0,-1
1514894856117992,-2,-1,-1,0,-3,0,-1,1
1514894856117992,0,-3,0,-1,-3,0,-1,0
1514894856137006,-2,-2,0,-2,-1,0,1,0
1514894856137006,-1,2,0,-3,-4,-2,-2,0
1514894856138507,-1,0,1,-1,-1,0,-3,-2
1514894856138507,-2,-2,1,-2,-2,-1,0,-2
1514894856151516,-1,-2,-2,-2,-3,-2,-1,-3
1514894856151516,-4,1,0,0,-2,-2,-1,-2
1514894856158531,0,1,-2,0,0,-2,-2,0
1514894856158531,-1,-1,-1,-1,1,0,-1,-1
1514894856174542,0,-2,-1,-2,-1,0,-1,-3
1514894856174542,-2,0,-3,-1,-2,-1,-2,-2
1514894856176034,1,-1,-1,1,-1,-3,-2,0
1514894856176034,-1,-3,-2,-1,-1,0,-1,-2
1514894856197058,-1,-3,0,-1,-2,0,0,-2
1514894856197058,0,0,-2,0,0,-1,-1,-1
1514894856198551,-1,1,0,-2,0,-1,-1,-3
1514894856198551,-2,-1,-1,-1,-2,-1,-1,0
1514894856219566,-2,-2,-1,-1,-3,-1,-2,0
1514894856219566,-1,0,-1,-3,-3,1,-2,-1
1514894856222067,-1,-1,0,-4,-1,-3,-1,0
1514894856222067,1,-2,1,-2,0,-2,0,-1
1514894856234576,-1,-1,0,-1,-1,-2,-1,-1
1514894856234576,0,0,0,-1,0,-1,-1,0
1514894856236077,1,0,-1,0,-2,0,-2,-1
1514894856236077,-1,0,-1,-3,-3,0,-2,-2
1514894856257090,-1,-1,-2,0,0,-4,-1,-2
1514894856257090,0,-1,0,-1,-1,-1,0,0
1514894856258592,-1,1,-1,0,-2,1,-1,-3
1514894856258592,-1,-1,-1,-1,-1,-1,-2,0
1514894856270600,-1,-4,-1,0,-2,0,-1,-1
1514894856270600,0,-1,-2,-1,0,-2,0,0
1514894856279606,0,1,-1,-1,-1,-1,0,0
1514894856279606,-2,-3,-1,1,-1,-2,0,0
1514894856294617,-1,-3,0,-2,-1,0,0,-1
1514894856294617,-2,0,0,-1,1,0,-2,-1
1514894856296118,0,1,0,-2,-1,0,0,-1
1514894856296118,-2,-1,-2,-1,-1,-1,-2,0
1514894856318134,-1,-1,-1,0,-2,-2,-2,-1
1514894856318134,-2,1,-1,0,1,0,-1,0
1514894856321636,0,0,-1,-1,-1,0,0,1
1514894856321636,0,-1,0,0,0,-1,-2,-1
1514894856330644,-2,-2,-2,1,-1,0,-2,0
1514894856330644,0,1,0,-1,-1,0,-1,0
1514894856339649,-1,-3,-3,-2,-2,-1,-1,-1
1514894856339649,1,-3,0,-2,-1,0,-2,-1
1514894856354660,-1,-2,0,-3,0,1,-1,-2
1514894856354660,-1,1,-1,-1,-2,-2,-1,-2
1514894856356161,-2,0,-1,-1,1,-1,1,0
1514894856356161,-3,-1,-1,1,-1,-1,0,-2
1514894856377177,0,-1,-2,-1,-1,-1,-3,-2
1514894856377177,-2,1,-2,-1,-1,-2,-2,-2
1514894856379677,-1,0,-2,-1,-2,-1,-1,-2
1514894856379677,-1,-3,-1,-2,-1,-1,-1,-1
1514894856399692,-2,-1,-1,0,-2,-2,0,0
1514894856399692,-2,-2,-2,-1,-1,-1,0,-2
1514894856402206,-1,-1,-2,0,0,-2,-2,0
1514894856402206,-1,0,-1,0,-1,-1,-1,-2
1514894856415718,-2,-2,-1,-1,-2,-3,-1,-2
1514894856415718,0,-2,-1,-1,-1,0,-2,-1
1514894856421207,0,1,-2,-4,-2,-2,-1,0
1514894856421207,-2,-1,-2,-2,0,0,0,-2
1514894856437725,-2,0,-1,-1,0,0,0,1
1514894856437725,-2,-2,-2,0,-1,-2,-1,-2
1514894856439219,0,1,-1,-2,-2,-3,-1,-1
1514894856439219,0,-2,-1,-2,0,0,0,0
1514894856450728,0,-1,-1,1,-1,-2,0,-2
1514894856450728,-1,0,-2,-1,-1,-1,1,-1
1514894856459734,-1,0,-2,0,0,-2,-2,-1
1514894856459734,-2,-1,-1,0,-1,-1,-1,0
1514894856489755,-1,-2,-1,0,-1,0,-2,0
1514894856489755,1,0,0,-1,0,0,-1,0
1514894856491256,-2,-1,0,-2,-3,1,0,0
1514894856491256,-3,-2,-1,-3,-1,0,0,-3
1514894856497260,0,-2,-1,-2,-1,1,-1,-2
1514894856497260,-2,-1,-4,-3,-2,0,-1,-2
1514894856498761,-1,-1,-2,-1,-1,-1,-2,-1
1514894856498761,1,-2,0,-1,-1,-3,-1,-3
1514894856510770,0,-1,0,0,-1,0,-1,-3
1514894856510770,0,1,-3,-1,-3,-1,1,-1
1514894856520279,-2,-1,-1,-1,-2,0,-1,-1
1514894856520279,-2,-1,-2,-1,-1,0,-1,1
1514894856534801,-2,-1,-2,-1,0,-2,-2,-1
1514894856534801,1,0,-1,-3,-1,-3,-1,-2
1514894856536288,-1,-2,-3,-2,-1,-1,0,-2
1514894856536288,1,1,-3,-2,-1,-2,-3,0
1514894856557306,-1,-1,0,-1,-1,-2,0,-1
1514894856557306,-3,0,0,-1,-2,-1,-1,-2
1514894856558807,-1,-1,-2,-2,-2,0,0,1
1514894856558807,0,-3,1,-2,-2,-2,-1,-1
1514894856571813,-2,0,0,-1,-1,0,0,2
1514894856571813,-1,0,0,1,-2,-1,-1,-1
1514894856579822,-2,0,-1,-1,-2,-2,-1,-1
1514894856579822,-1,-1,-1,0,-1,-1,0,1
1514894856594829,-2,-2,-3,-2,0,-3,0,0
1514894856594829,-1,-1,-2,-1,0,1,0,0
1514894856596333,-1,0,-2,0,0,-1,0,-3
1514894856596333,-2,-1,0,-2,-1,-2,-1,-1
1514894856617349,-1,0,0,-1,-2,0,-1,-1
1514894856617349,-2,-1,-1,-2,-1,0,-2,1
1514894856618848,-2,-1,-2,-1,-1,-2,0,0
1514894856618848,-1,-4,-1,-1,0,-1,0,-2
1514894856631861,-1,-1,-3,-1,-1,0,0,-2
1514894856631861,-1,-2,-1,-2,-1,-2,-3,-1
1514894856641365,0,0,-1,0,-2,-1,0,-1
1514894856641365,-1,-1,0,0,0,-2,-2,-2
1514894856654874,-1,1,-1,-1,0,-1,0,-1
1514894856654874,0,0,-1,0,0,-1,-1,-1
1514894856656375,-1,-1,0,-1,-1,0,-2,-2
1514894856656375,-2,-1,-2,0,-2,-1,-2,-1
1514894856677888,0,-3,0,-2,-1,-2,-1,-2
1514894856677888,0,0,-2,1,-1,-1,-1,0
1514894856681391,-1,0,-2,0,0,-3,-1,-1
1514894856681391,-2,-2,-2,-1,-2,-1,0,-2
1514894856699907,1,-1,-1,-1,0,-1,-1,0
1514894856699907,-2,-1,0,0,-1,-1,0,-2
1514894856701407,-2,-2,-1,-2,2,0,-2,0
1514894856701407,-2,-3,0,-1,-1,-1,0,-2
1514894856714414,-1,-1,-1,-2,-2,0,-2,-2
1514894856714414,-1,-1,-1,-2,-1,-1,1,-2
1514894856715916,0,-1,-2,-2,0,-1,-1,0
1514894856715916,1,-1,-3,-1,0,0,-2,-1
1514894856737431,-2,-2,-1,-2,0,-1,-2,-1
1514894856737431,-1,1,-1,0,-1,-2,-1,0
1514894856738936,0,-2,0,-1,-2,1,-2,-3
1514894856738936,-1,-2,1,-1,-2,-3,0,0
1514894856759446,-3,-2,0,1,0,-1,-2,-1
1514894856759446,-1,-1,-2,-3,-1,-2,-3,0
1514894856761448,-1,-2,-2,-3,-2,-2,0,-2
1514894856761448,-1,-3,-2,0,-1,-1,-2,0
1514894856774959,0,0,-2,-1,-2,-2,0,-1
1514894856774959,-1,-1,-2,-1,-1,-2,-2,-1
1514894856776460,-1,-1,-2,0,-1,0,-1,-2
1514894856776460,0,-2,0,-2,-2,0,-1,-1
1514894856796972,-1,-3,-1,1,-1,-1,0,0
1514894856796972,-2,-2,-2,-1,-1,-1,-1,0
1514894856798975,0,-1,-1,-2,0,-1,0,-1
1514894856798975,-2,0,-1,-1,0,-2,-2,0
1514894856819492,-3,1,-3,-3,0,-1,-1,-1
1514894856819492,0,1,0,-1,-1,-1,-1,-2
1514894856820991,-1,-2,-2,0,-1,-2,0,1
1514894856820991,0,-2,-1,1,1,-1,-1,-1
1514894856834000,-1,-1,-1,-1,0,0,-1,-1
1514894856834000,-2,0,-1,-2,-1,-2,-2,1
1514894856841008,0,0,-1,-2,-2,-3,-2,-2
1514894856841008,-2,-2,-1,0,-1,1,-1,-1
1514894856857520,1,0,-1,-1,-3,-2,1,-1
1514894856857520,-1,-1,0,-2,-1,0,-1,-1
1514894856859018,-1,-2,0,-2,-2,0,0,0
1514894856859018,0,-2,-3,0,0,-1,0,-1
1514894856879532,-1,2,-2,0,0,-2,-3,-2
1514894856879532,0,1,-2,-1,0,0,-1,-1
1514894856881036,0,0,-1,-1,-1,-1,-1,0
1514894856881036,1,-1,-1,0,-1,0,-1,-3
1514894856894041,-2,-2,1,0,-2,-1,0,0
1514894856894041,-1,-1,-2,0,-2,-2,0,-1
1514894856908551,-1,-4,0,-1,-1,-3,-2,-3
1514894856908551,-1,-1,-1,-1,0,0,1,-2
1514894856918059,1,-1,-2,0,0,-1,-1,0
1514894856918059,0,-1,0,-1,0,0,-1,-1
1514894856920561,-1,-2,-2,-3,-1,0,-1,0
1514894856920561,-2,-1,-1,-2,-2,-1,-1,-1
1514894856939573,-2,-1,-1,0,-1,-1,-1,-1
1514894856939573,-1,0,0,1,-1,0,0,-1
1514894856941577,-1,1,-1,0,-1,0,-1,1
1514894856941577,-2,-2,1,-1,-2,-1,-1,-1
1514894856954084,1,-1,-3,-2,1,-1,-1,-2
1514894856954084,-1,0,-1,-2,-1,0,-1,-1
1514894856961089,-1,-1,-1,-1,-1,0,0,-1
1514894856961089,-2,-2,-2,1,-3,-1,-1,0
1514894856979103,-1,0,-2,-3,-2,-1,-2,1
1514894856979103,-1,-1,0,-2,-1,-2,-2,0
1514894856982606,-1,-3,-1,-2,-1,-2,-2,-1
1514894856982606,-1,-3,-2,0,-1,-2,-1,-1
1514894856999616,-2,-1,0,-1,0,-1,0,-1
1514894856999616,-1,1,-1,-1,-3,-2,0,-3
1514894857001121,-1,-1,0,0,-1,0,0,0
1514894857001121,-2,-1,-2,-2,-2,-3,-2,-1
1514894857014125,0,1,-2,1,-2,0,-4,-1
1514894857014125,0,1,0,-2,-2,-3,0,0
1514894857021132,-2,-2,0,-2,-1,-1,-1,0
1514894857021132,-2,-2,1,0,-1,0,-3,-1
1514894857037142,-4,-2,1,-2,0,-3,-1,-1
1514894857037142,-1,0,0,-2,0,0,0,0
1514894857038643,1,-1,-4,-1,-2,-1,-2,-1
1514894857038643,1,-3,-1,-3,-1,-1,-1,-1
1514894857059658,-1,-1,-1,-1,-2,0,0,-3
1514894857059658,-1,-1,-1,1,-1,0,-2,0
1514894857061159,-2,-2,-1,-1,-1,0,0,-1
1514894857061159,0,-2,0,-1,0,-1,-1,0
1514894857073167,-2,-1,-2,-2,-2,-1,-1,1
1514894857073167,0,0,-2,-2,-3,-1,-1,-2
1514894857083175,0,0,-1,-1,0,0,-2,-1
1514894857083175,-2,-1,-2,-1,-1,-1,-1,-3
1514894857096183,0,-1,-1,0,-1,-1,0,-2
1514894857096183,0,0,-1,-2,0,-2,0,-1
1514894857104690,-1,-2,-1,-1,0,-3,-1,-1
1514894857104690,0,-3,0,-1,-1,0,-2,0
1514894857119700,-1,-1,-2,-1,-2,1,-1,1
1514894857119700,0,-2,-2,0,0,-1,0,-1
1514894857121201,-1,-2,-2,0,0,-1,0,0
1514894857121201,-2,-1,0,-3,0,-2,-1,-1
1514894857134712,-1,1,-1,-1,-2,0,-1,-3
1514894857134712,-1,0,0,-1,0,-1,-1,0
1514894857140715,-1,-2,-1,-2,-3,-1,-2,-1
1514894857140715,1,-3,-2,-1,-1,0,-3,0
1514894857157226,-3,1,-1,-1,0,1,-2,-1
1514894857157226,0,1,-2,-1,0,0,0,0
1514894857158728,-1,-1,0,-1,-1,0,-3,-2
1514894857158728,-2,-2,-3,-2,-1,-1,-1,-1
1514894857179744,0,-1,1,0,0,-1,0,-1
1514894857179744,-1,0,-1,-1,-1,-1,-1,-3
1514894857183247,-2,-1,-3,-2,-2,-2,-1,-1
1514894857183247,-2,-2,-1,-2,0,-1,0,-1
1514894857193253,0,0,1,-1,1,-1,-1,-1
1514894857193253,-1,0,-2,0,-1,-3,-1,-1
1514894857202258,-1,-2,1,-1,0,0,0,0
1514894857202258,0,-3,0,-1,-2,0,-2,-1
1514894857217769,-2,0,0,0,-2,-3,0,0
1514894857217769,-1,0,1,-2,0,0,-1,1
1514894857230778,-2,-3,-1,-3,0,-1,-2,-1
1514894857230778,-2,-1,-2,-1,-1,-1,-1,-1
1514894857239786,0,-1,-1,-3,0,-3,-2,-1
1514894857239786,0,1,-2,-1,-2,-2,-1,-1
1514894857241286,0,-1,0,-1,-2,-1,0,-1
1514894857241286,-2,-2,-2,-2,-2,0,-2,-1
1514894857253797,-2,1,-1,0,0,-1,-1,-2
1514894857253797,0,0,-1,0,-1,-1,-2,-1
1514894857262311,-1,-2,-2,-3,-1,-1,-1,-2
1514894857262311,0,-2,0,-1,-2,-2,-2,0
1514894857277313,-1,0,-2,-1,-1,-1,0,0
1514894857277313,-1,0,-1,-1,-2,-2,0,-1
1514894857279816,-2,-2,-1,0,0,-1,-1,-2
1514894857279816,-1,-3,0,-3,-1,1,-2,-3
1514894857299828,-1,-1,-2,0,-1,-2,-1,-1
1514894857299828,-1,1,-3,-1,0,1,0,1
1514894857302830,-1,0,0,-1,-1,-2,-1,-1
1514894857302830,-1,-4,-2,-1,0,-1,-1,-2
1514894857313357,-2,-1,-1,1,0,0,-1,-2
1514894857313357,1,0,-1,-1,-2,-2,-1,-1
1514894857329870,-1,-3,-1,0,-2,-2,-1,-1
1514894857329870,-1,0,0,0,-1,-3,-1,0
1514894857337371,-1,0,-1,-1,-1,-1,-1,-1
1514894857337371,-2,-1,-2,0,-2,-1,0,-2
1514894857338865,-1,-1,-1,-1,-2,-1,-2,-1
1514894857338865,-1,-4,-1,-1,0,-2,0,-1
1514894857359401,0,0,-1,-1,-1,0,-1,0
1514894857359401,-1,1,0,-1,-1,0,0,-1
1514894857361871,-1,-2,-2,-1,-2,-2,-1,-1
1514894857361871,-1,-1,-1,-1,-1,0,-1,0
1514894857381897,-1,-1,-1,-1,0,-1,-1,0
1514894857381897,-2,-1,-1,-2,0,-1,-1,-1
1514894857383887,-1,-2,-1,0,-1,-1,-1,-1
1514894857383887,-1,-2,-1,-1,-1,-2,-2,-1
1514894857396908,-1,-1,-2,-1,-1,-2,-3,-1
1514894857396908,-1,0,-2,-2,-2,-1,-1,-1
1514894857398899,-1,-4,-1,-1,-2,-1,-2,-2
1514894857398899,-3,-3,1,-1,-1,-2,0,-1
1514894857419422,-1,-2,-1,-3,-1,-1,-1,-2
1514894857419422,0,-1,0,-1,0,0,-1,-1
1514894857421423,-1,-1,-3,-1,0,-1,-1,0
1514894857421423,-1,-3,-4,-1,0,0,0,0
1514894857433922,-2,-1,-1,-2,-2,-2,0,1
1514894857433922,-1,0,-2,1,-3,-2,-2,-1
1514894857442428,-1,-1,-1,-2,-2,0,-1,-1
1514894857442428,-1,-1,0,1,-1,-1,0,-2
1514894857464447,0,1,-2,-1,-2,0,0,-2
1514894857464447,-1,1,-1,-2,0,-1,-1,-4
1514894857466446,-2,0,-1,0,0,0,0,1
1514894857466446,-1,-2,0,1,0,-2,0,-3
1514894857479469,0,2,0,0,-2,-1,-1,-2
1514894857479469,-1,1,-2,-2,-1,0,-1,-1
1514894857482958,1,-2,-1,0,0,-1,0,-2
1514894857482958,-1,-2,-1,-2,-1,0,0,-1
1514894857492965,-1,-1,0,0,-2,-2,-1,-1
1514894857492965,-1,0,-1,-1,0,-1,-2,0
1514894857502498,-1,-2,-1,-3,0,-1,0,0
1514894857502498,-3,-4,-1,-1,-2,0,-2,0
1514894857516981,-1,0,-1,-1,0,-1,-2,-2
1514894857516981,-1,-1,-1,-2,-2,-3,-1,0
1514894857518490,-1,-2,-1,-1,0,1,-1,-1
1514894857518490,-1,-1,-2,-1,-3,-1,-2,-1
1514894857539499,-1,0,-3,-1,-2,-2,0,-2
1514894857539499,-2,0,-1,-1,0,0,0,0
1514894857540998,-2,-4,-1,0,-1,-2,0,0
1514894857540998,0,-2,-1,-2,0,-1,-1,0
1514894857553524,-1,-2,-1,-1,-1,1,-2,-1
1514894857553524,0,0,-1,-2,-2,-2,-2,0
1514894857562014,-2,-1,-1,-2,-2,-1,0,-2
1514894857562014,-2,-4,0,-1,-1,-3,0,-1
1514894857577533,0,-1,-1,-2,-2,-2,-2,0
1514894857577533,-1,1,-1,1,-1,-1,-1,-1
1514894857579034,0,-1,-1,-2,-2,-1,-1,-2
1514894857579034,0,-2,-2,0,0,0,-1,0
1514894857607044,-3,-1,-2,-1,0,-1,0,0
1514894857607044,-1,2,-1,-2,-1,-1,-1,0
1514894857610547,-1,0,-1,-2,-1,-2,-1,-1
1514894857610547,0,-3,1,-1,-1,2,-1,-1
1514894857622055,-1,0,0,-1,-1,-2,-1,-1
1514894857622055,-1,-2,-2,0,-2,0,0,-2
1514894857623556,-2,-3,-1,-1,-1,-2,-2,-1
1514894857623556,-2,-3,-1,-1,-1,-2,-1,-1
1514894857637065,0,0,-2,-1,-1,0,-1,0
1514894857637065,-1,-1,-1,0,-1,-1,-2,-1
1514894857638566,-1,-1,-2,0,-2,-1,1,-1
1514894857638566,0,-2,-1,-2,-1,-1,-2,0
1514894857659583,0,0,-2,-2,-1,0,-1,-2
1514894857659583,1,0,-2,-1,0,-1,0,-1
1514894857662085,0,-2,-1,1,-1,2,-2,0
1514894857662085,-1,-1,0,1,-1,-1,1,-3
1514894857682108,-1,-1,-2,-1,-2,-1,-1,-2
1514894857682108,-2,1,0,-3,-1,-2,0,-2
1514894857683599,-1,-3,-1,0,-2,-3,-3,-1
1514894857683599,-1,-1,-2,0,0,-2,-2,0
1514894857697108,0,0,1,-2,-2,-1,-2,1
1514894857697108,0,1,-1,-1,-2,-2,-1,0
1514894857698618,-2,-2,-1,-2,-2,-1,-2,-1
1514894857698618,-1,-1,0,-2,-2,-2,0,-1
1514894857719634,-2,-1,-3,0,-1,0,-3,-1
1514894857719634,-1,-2,-2,-2,0,-1,-1,0
1514894857721135,-1,-3,-2,-2,0,0,0,0
1514894857721135,-2,-3,-1,1,-1,-1,-1,-1
1514894857741142,-3,0,-1,0,0,1,-2,0
1514894857741142,0,1,0,-2,-1,0,-1,0
1514894857750648,-1,0,0,-1,-1,-1,0,1
1514894857750648,1,-3,-2,0,-2,-1,0,-2
1514894857756653,-2,-2,-2,-2,-1,-2,0,-2
1514894857756653,-2,0,-1,0,-2,0,0,-1
1514894857763160,-2,-3,-1,-1,0,-1,0,-2
1514894857763160,-1,0,-1,-1,0,-1,-2,1
1514894857779704,-1,1,-1,0,-2,-1,0,0
1514894857779704,-1,-1,-3,-1,-2,-1,-2,0
1514894857783188,-1,-3,0,0,-1,0,0,0
1514894857783188,-1,-3,0,-1,0,1,-1,-2
1514894857802192,0,0,-1,-2,0,-1,-1,-2
1514894857802192,-1,1,-2,-2,-2,-3,-2,0
1514894857803693,-2,-1,0,-2,-1,-3,-2,-3
1514894857803693,-3,-4,-2,0,-1,-1,0,-2
1514894857816708,-1,-1,-1,-1,0,-1,0,-2
1514894857816708,1,-2,0,0,-2,-2,1,-2
1514894857823197,0,-2,-2,-2,-1,-1,-2,-2
1514894857823197,-1,-3,-2,-1,-1,-1,-1,0
1514894857839709,0,-1,-1,-2,-1,-1,0,-1
1514894857839709,-2,1,0,0,-1,-2,0,-2
1514894857841210,-1,-2,-1,0,-1,-1,-2,-1
1514894857841210,-1,-1,2,-1,-1,0,-2,-1
1514894857862225,-1,1,-1,-1,-1,-2,0,1
1514894857862225,-1,0,0,0,0,0,-1,0
1514894857863736,-1,-1,-2,-1,-2,0,0,0
1514894857863736,-1,-2,-2,-1,-1,-1,-1,0
1514894857876244,-2,-1,-1,-1,0,0,0,-1
1514894857876244,0,0,-2,-2,1,-3,-1,-2
1514894857892248,-1,-3,-3,0,-1,-1,-3,-3
1514894857892248,-2,-2,-2,-1,-1,-1,-1,-1
1514894857899762,0,0,-3,-1,-3,-2,-1,-1
1514894857899762,-2,-1,-1,-2,-1,-2,0,0
1514894857901253,-2,-2,-1,-1,0,0,-1,-1
1514894857901253,-1,-1,-1,1,-2,-1,0,-1
1514894857921779,-2,0,0,0,-2,-1,0,0
1514894857921779,-2,0,-3,1,-1,-1,0,0
1514894857923779,0,-2,0,-3,-2,0,-1,0
1514894857923779,0,-1,-2,-2,0,-2,-1,-1
1514894857937277,-1,0,-1,-2,-3,-1,-1,-1
1514894857937277,-1,-1,0,-2,-2,-1,-2,-1
1514894857943282,-2,-2,1,0,1,0,0,-1
1514894857943282,0,-3,1,-1,-2,-1,0,-2
1514894857959303,-1,-2,0,-2,0,0,0,-2
1514894857959303,0,0,-2,-2,-2,0,-2,-1
1514894857961295,0,-1,-2,1,0,-2,-1,1
1514894857961295,-2,0,-2,-1,1,0,-1,-2
1514894857982311,-1,0,0,-1,-1,-1,-2,0
1514894857982311,-1,0,-1,-1,-1,0,1,-2
1514894857985824,-2,-1,-2,0,-1,-1,0,-1
1514894857985824,-1,-2,-2,-1,0,0,-1,-1
1514894857996319,-2,-1,-1,0,-1,-1,-2,1
1514894857996319,0,-1,-1,0,-1,-2,-1,-1
1514894858003324,-1,-1,-1,-3,-2,-2,-2,-2
1514894858003324,-2,-2,-2,-2,0,-1,0,-1
1514894858020837,-1,0,-1,-1,0,-1,-1,-1
1514894858020837,-2,1,-2,-2,-1,-1,-2,0
1514894858023354,-1,-1,0,-1,-1,0,-2,-2
1514894858023354,0,-2,1,-1,-2,0,-1,-1
1514894858041852,0,-2,-2,1,-1,-2,-2,-2
1514894858041852,-1,0,-4,-3,-3,-1,-1,0
1514894858043853,-2,-1,-2,0,-1,1,0,0
1514894858043853,-2,0,0,0,-1,0,-2,-1
1514894858056362,-1,-1,-2,-1,-2,0,1,-3
1514894858056362,1,0,-1,-2,0,1,-2,-2
1514894858063367,-2,-3,-3,-1,0,-3,-1,0
1514894858063367,0,-2,-2,1,-1,-1,-2,-1
1514894858079378,0,0,1,-1,-1,-2,-1,-1
1514894858079378,-2,0,0,-3,-2,0,-1,-1
1514894858082883,0,-3,1,0,-1,-1,-1,0
1514894858082883,-1,0,-1,-2,-1,-1,-3,1
1514894858101894,-1,-1,-1,-2,0,-2,-1,0
1514894858101894,-1,-2,0,-2,0,-1,0,0
1514894858103895,0,-1,0,-2,-1,0,0,-2
1514894858103895,-1,-2,-1,0,-2,-2,0,-1
1514894858115904,-2,0,-2,-1,-1,0,-3,-1
1514894858115904,-1,-1,-1,-1,-1,-1,-2,-2
1514894858124910,-1,0,-2,-2,-1,-1,-2,-1
1514894858124910,-1,-2,0,-1,-1,-1,0,-1
1514894858138420,-1,1,-3,0,-1,-1,-2,-1
1514894858138420,0,1,-2,-1,0,-1,1,0
1514894858147926,-1,-2,-2,1,-1,0,-1,0
1514894858147926,0,-1,0,1,0,-2,-1,-1
1514894858162437,-1,1,1,-2,-1,-1,0,0
1514894858162437,-2,0,-1,-1,-1,-2,-1,-1
1514894858163938,0,-2,0,-1,-2,-1,-2,-1
1514894858163938,-2,0,0,-1,-1,1,-2,0
1514894858175965,-1,-1,-2,1,0,0,-2,0
1514894858175965,-1,-1,-1,0,-2,-2,-1,-1
1514894858184957,-2,0,-2,-2,-1,-1,0,-2
1514894858184957,-1,-1,-2,-2,0,-2,-2,-1
1514894858200464,-2,-1,-2,-1,-1,0,-1,-3
1514894858200464,-1,0,0,-3,0,0,-2,-3
1514894858203967,0,-2,0,-1,0,-2,0,1
1514894858203967,-3,-3,0,-1,0,1,-1,-3
1514894858220979,-1,-1,-1,-1,-2,-3,0,-1
1514894858220979,-2,-1,-2,-1,-2,-2,-2,-1
1514894858229485,-1,-1,0,-1,-1,-2,-1,1
1514894858229485,-2,-1,-2,-2,-1,1,-1,-1
1514894858235489,0,1,-1,-2,0,0,-1,-3
1514894858235489,-1,-1,-1,-1,-1,-1,-2,-1
1514894858244505,-2,0,-3,0,-1,0,0,-2
1514894858244505,0,-2,1,0,-1,-1,0,-1
1514894858259505,0,-1,0,-2,-1,0,-2,0
1514894858259505,0,0,-1,-1,-1,1,-1,-2
1514894858262522,-1,0,-2,-2,-1,-2,0,-4
1514894858262522,-2,0,-3,-1,-2,-4,0,-3
1514894858281526,-1,0,0,0,0,0,-1,1
1514894858281526,0,-3,-1,-1,-1,-1,1,-1
1514894858298045,-2,-2,1,-2,-3,0,-2,0
1514894858298045,0,0,0,-2,-1,0,-2,-1
1514894858298551,1,0,0,-3,-1,-3,-2,0
1514894858298551,0,0,1,0,-2,-3,-1,-1
1514894858304548,-1,-1,-1,-1,-1,-1,-2,-3
1514894858304548,-2,-2,-1,0,0,-1,0,0
1514894858319548,-2,0,-1,-2,-2,-2,-1,-1
1514894858319548,-1,-2,-3,-1,0,-2,1,-1
1514894858321049,0,-2,-1,0,0,-1,-2,-1
1514894858321049,-1,0,0,0,0,-1,-1,0
1514894858342076,-1,-2,0,-1,-1,-1,-1,-2
1514894858342076,-1,-1,-1,0,0,0,-1,-2
1514894858343577,-1,-3,0,-1,-3,-2,0,0
1514894858343577,-2,-1,-3,-1,0,0,0,-1
1514894858355583,-1,0,-3,-1,-2,-1,1,-1
1514894858355583,-1,-4,-2,-1,0,-1,-1,0
1514894858364580,-3,0,-3,-2,-3,0,0,-3
1514894858364580,-1,-1,0,-1,-2,-1,-3,-1
1514894858379609,-1,-3,-3,-1,-2,-3,-1,-1
1514894858379609,0,-2,-1,-3,-3,1,-2,0
1514894858383093,-1,-1,0,1,0,-1,-1,-2
1514894858383093,-1,0,-1,0,-2,-2,-1,-2
1514894858402117,-1,1,-1,-2,-1,-1,-1,-2
1514894858402117,-3,1,-1,-1,-1,-2,-3,-2
1514894858403617,-1,-2,-3,-1,-1,-1,-2,1
1514894858403617,-1,0,1,-1,-2,0,-1,-2
1514894858417117,0,-1,-1,-1,-1,-1,-1,-2
1514894858417117,-1,-2,-1,-2,-1,-2,-1,1
1514894858424634,-1,-3,-1,-2,0,-1,-1,-1
1514894858424634,0,-1,-3,-1,0,-2,-1,-1
1514894858440143,-1,-1,0,0,-1,1,-1,0
1514894858440143,-1,0,-1,-2,1,-1,0,-1
1514894858445637,-1,-3,-1,0,0,0,-2,0
1514894858445637,0,-1,0,-3,-1,-2,-1,1
1514894858462161,-1,1,-1,-2,0,0,-1,-1
1514894858462161,-1,-2,-1,-2,-2,-2,0,-1
1514894858463659,0,-1,0,-1,-2,-1,1,-1
1514894858463659,-1,-1,-1,-1,-3,-1,-2,-1
1514894858475668,0,0,-1,0,-2,-1,-1,0
1514894858475668,0,-2,-1,-1,-1,-1,0,-3
1514894858484676,-2,-4,-2,0,0,0,-1,-1
1514894858484676,-2,0,-2,1,-1,-2,0,-2
1514894858499677,-1,0,-1,0,-1,-1,-1,0
1514894858499677,-1,0,-2,-1,-1,-2,-1,0
1514894858503190,0,-2,-1,0,-2,-2,-1,-1
1514894858503190,-1,-1,-1,-2,-1,0,2,1
1514894858522191,-1,1,-2,-2,-1,-1,-1,0
1514894858522191,-1,-2,0,-1,-1,2,-2,-1
1514894858523692,-1,-1,-1,-1,-1,-1,-2,0
1514894858523692,-1,-1,-1,-1,0,-2,0,-1
1514894858535711,-1,-2,-2,-1,-1,-4,-2,-3
1514894858535711,-2,-1,-1,-3,-1,-2,-1,-1
1514894858544708,-1,-2,0,-2,-1,0,-1,-2
1514894858544708,-1,0,-1,0,-1,1,-1,-1
1514894858559719,-1,0,-2,-2,-1,0,0,0
1514894858559719,-2,-2,-1,1,-1,-1,-1,-1
1514894858561220,-2,-1,-1,-2,0,-1,-1,-1
1514894858561220,0,-1,-3,-1,-2,-2,-2,-1
1514894858581733,-1,0,1,-1,0,1,-1,-2
1514894858581733,2,-1,-2,-1,-1,-1,-2,-2
1514894858583745,0,-1,0,-1,-1,-1,-2,-1
1514894858583745,0,-1,0,0,1,-1,0,-2
1514894858604249,-1,2,-1,-1,1,-1,0,0
1514894858604249,0,-2,-2,-2,-2,-1,-2,-2
1514894858606251,-2,-2,-2,1,-2,1,0,0
1514894858606251,-1,0,-1,-1,-1,-1,-2,-1
1514894858619760,-1,-2,-1,0,-2,-1,-3,-1
1514894858619760,-1,-2,-2,0,0,-1,-1,-1
1514894858625777,-1,-2,-2,0,-1,-1,-1,-1
1514894858625777,0,-2,-1,-2,0,-2,0,-1
1514894858641776,-3,0,-3,-1,-1,-2,-2,-1
1514894858641776,-1,-1,-1,0,-2,-1,-1,-1
1514894858643789,-1,-3,-1,-1,-1,-3,-1,-2
1514894858643789,-2,-1,1,0,0,-1,-1,-1
1514894858664301,-2,-2,-1,-2,1,-1,0,-2
1514894858664301,0,-3,-1,-1,-1,-1,1,-1
1514894858666794,1,-3,-1,-2,1,-2,-3,0
1514894858666794,0,0,-2,-1,-2,-1,-1,0
1514894858679818,-1,0,-1,-1,-2,-1,0,-1
1514894858679818,-1,1,0,-1,-2,-1,-1,0
1514894858682805,-2,-3,0,0,-1,-1,-1,0
1514894858682805,-1,0,-1,-1,-2,-1,-1,-2
1514894858701842,0,-1,-2,-1,-1,-1,-1,0
1514894858701842,0,-2,-2,-1,-1,-1,-2,-1
1514894858717328,-2,-2,0,-1,-2,-1,-1,-2
1514894858717328,-1,2,-1,-2,-1,-2,-1,0
1514894858724343,-2,1,-2,-1,-2,-3,-2,-1
1514894858724343,-2,-2,0,-2,-3,-1,-1,-1
1514894858726336,1,-1,-1,-1,-1,0,0,0
1514894858726336,-2,0,-1,-1,-1,0,-1,-2
1514894858738883,-1,0,0,-1,-2,-2,-2,0
1514894858738883,-1,-1,0,-2,-2,-2,1,-1
1514894858745349,-1,-3,0,-1,-2,-2,-1,-2
1514894858745349,0,-2,-2,-2,-1,-1,0,-2
1514894858761873,0,-1,-2,-1,0,-1,0,0
1514894858761873,0,-1,-3,-2,-1,-1,-1,-1
1514894858763362,0,-3,-2,-2,-2,1,-2,-2
1514894858763362,1,-1,0,-1,-1,0,-1,-2
1514894858784389,0,-1,0,-3,-1,1,-1,-1
1514894858784389,-2,-2,0,1,0,-1,0,-1
1514894858786390,-1,-2,-2,0,-1,-2,1,0
1514894858786390,-2,1,-1,-1,-2,-3,-2,0
1514894858799390,-1,-1,0,0,-1,1,1,0
1514894858799390,-1,-1,-2,-4,-1,1,-3,-1
1514894858806394,-2,-2,-2,-2,0,-2,-2,-2
1514894858806394,-2,-1,-1,0,-1,0,-2,0
1514894858821905,0,-1,-2,-1,-2,-2,-1,-1
1514894858821905,-1,-1,0,-1,-1,-2,0,2
1514894858823406,1,-2,1,0,0,-1,0,-2
1514894858823406,-2,0,-2,-1,0,-1,-2,-2
1514894858851924,-1,1,-1,-2,-1,-1,-2,0
1514894858851924,0,-2,-2,0,0,-1,1,-2
1514894858854449,-1,-1,-2,-2,-2,-1,-2,-1
1514894858854449,-1,-1,0,-1,-1,-1,-2,-1
1514894858858953,-3,1,-1,-1,-3,-2,0,-1
1514894858858953,-1,0,-1,-1,-3,-1,-1,-1
1514894858865434,-1,-1,-1,-2,-1,-1,-1,1
1514894858865434,2,-7,-2,1,0,2,0,2
1514894858880945,-3,0,-3,-2,-2,-2,-3,-4
1514894858880945,-1,-1,-3,-1,0,1,0,-1
1514894858889450,-5,-8,-1,0,0,0,-4,-3
1514894858889450,0,4,-2,-2,-1,-1,-1,1
1514894858904483,1,-5,0,-3,-1,0,0,0
1514894858904483,-2,1,-2,-4,-4,-2,-4,-4
1514894858912467,0,0,-2,3,0,1,-1,-2
1514894858912467,-1,1,2,2,-2,-3,-1,-3
1514894858918971,2,1,-2,3,2,1,2,3
1514894858918971,-3,-3,-4,0,-2,-3,0,-2
1514894858925976,5,2,-5,-11,-2,1,3,5
1514894858925976,-4,0,0,-4,-1,-2,-1,-3
1514894858942493,-4,-1,-9,-2,-1,-4,-5,-5
1514894858942493,1,1,53,17,3,1,2,0
1514894858943989,-1,-3,17,8,-1,-2,-2,0
1514894858943989,-4,-4,-15,-7,0,2,0,-2
1514894858963515,-2,-4,-10,-8,-3,-3,-4,-5
1514894858963515,3,1,-10,-3,2,0,-1,2
1514894858972010,-6,0,7,-3,-1,0,-3,-4
1514894858972010,-1,-12,-32,-7,-4,-4,-3,-5
1514894858979515,2,7,9,3,2,2,3,2
1514894858979515,-1,-9,-11,-6,-2,-3,-2,0
1514894858985519,2,8,15,0,0,-1,2,1
1514894858985519,10,4,6,1,-1,0,-1,2
1514894859002030,-1,5,-3,8,2,0,2,1
1514894859002030,-2,-4,-5,-14,-2,-1,-6,-6
1514894859003533,-14,0,-12,-1,-1,-1,1,1
1514894859003533,2,-10,17,3,0,-1,-2,-3
1514894859024546,10,19,-4,0,-1,-1,2,2
1514894859024546,-12,-26,-13,1,-2,-3,-5,-8
1514894859026047,2,-6,-20,-6,-1,-1,-1,-6
1514894859026047,-16,3,2,-1,-1,0,0,-5
1514894859047080,9,4,32,7,-1,-1,2,19
1514894859047080,0,11,-45,-13,-4,-3,-2,-16
1514894859048573,7,-10,-5,-2,-2,-3,-2,3
1514894859048573,5,2,-7,-4,-1,-1,-1,-3
1514894859062076,-6,-4,-2,-5,-1,0,-1,-4
1514894859062076,2,4,10,4,0,-1,2,6
1514894859063574,-12,-25,-5,-1,-2,-1,-3,-8
1514894859063574,-1,4,5,3,-3,-3,-1,1
1514894859084598,-14,-4,-10,-7,-3,-1,-2,-8
1514894859084598,8,18,-6,-2,3,2,2,8
1514894859086090,2,-18,4,-1,-2,-3,-2,13
1514894859086090,-16,-8,2,0,0,-1,-1,-14
1514894859098615,-3,-2,-17,-3,2,1,-3,-10
1514894859098615,1,1,10,4,-1,0,2,6
1514894859107114,2,-10,24,7,0,-1,-4,1
1514894859107114,3,9,9,3,2,2,1,4
1514894859130121,-12,-2,-31,-9,-5,-3,-1,-1
1514894859130121,-11,28,10,7,1,0,-3,-7
1514894859132623,34,22,-3,-2,2,1,4,20
1514894859132623,-22,-38,-4,-6,2,0,-3,-17
1514894859144637,7,15,18,6,6,2,-2,-3
1514894859144637,17,-12,-2,8,2,1,3,13
1514894859146132,-3,28,-25,-22,-11,-8,-6,-12
1514894859146132,-55,-57,-18,-12,-9,-7,1,8
1514894859158140,16,0,39,13,0,0,0,5
1514894859158140,19,-12,0,-11,-5,-3,-13,-22
1514894859167648,13,35,-31,-4,-1,2,0,-12
1514894859167648,24,66,-9,-9,1,3,10,12
1514894859182157,-44,-68,16,11,-2,-8,-11,-16
1514894859182157,11,9,45,17,2,0,4,17
1514894859183659,-16,1,19,0,2,0,-1,-8
1514894859183659,16,22,-30,-2,-4,-1,1,-2
1514894859204673,17,21,6,-2,2,5,9,12
1514894859204673,-16,-22,-21,-6,0,-2,6,8
1514894859206174,-2,0,8,-3,1,3,-13,-45
1514894859206174,-2,9,12,7,-4,-1,21,48
1514894859218183,-18,-23,-4,-6,-5,-7,-32,-54
1514894859218183,10,9,-19,1,1,4,13,22
1514894859227189,-23,-19,-4,10,-3,-3,16,17
1514894859227189,10,4,7,-11,7,4,-12,-40
1514894859242713,2,6,0,-8,-8,-6,12,49
1514894859242713,-4,-20,-48,-12,-4,-4,-34,-32
1514894859244201,-13,-3,-3,5,-1,-2,-5,-28
1514894859244201,-1,-6,19,7,-3,-6,-11,-15
1514894859272231,16,35,2,3,4,7,26,55
1514894859272231,-22,-5,5,-6,-6,-8,-29,-77
1514894859275233,7,-17,8,10,3,4,12,53
1514894859275233,-10,10,9,11,-1,-4,-17,-36
1514894859278235,13,-22,-9,-8,0,3,3,-10
1514894859278235,-2,-4,-28,-9,-3,-1,15,49
1514894859287242,7,2,-2,-1,2,2,9,0
1514894859287242,-11,-41,11,-11,-5,-4,-10,-26
1514894859302243,1,14,15,2,-5,-5,-1,-17
1514894859302243,-4,-4,-50,-2,9,4,7,-3
1514894859303753,-11,-3,-16,-5,-8,-4,-5,8
1514894859303753,-1,-10,16,5,-2,-1,-1,10
1514894859324774,6,14,22,4,9,0,-2,-19
1514894859324774,-14,-20,-1,-1,-8,-6,-4,6
1514894859326260,-11,-6,-49,-27,-4,-3,-7,-13
1514894859326260,9,37,39,8,0,5,19,32
1514894859346773,7,1,-3,-4,-6,-5,-23,-7
1514894859346773,-18,-24,-9,-7,-4,-4,-1,-15
1514894859348775,16,23,22,10,4,2,2,-10
1514894859348775,2,-28,13,6,1,1,-2,-12
1514894859361784,-23,-3,-4,-23,-11,-7,-9,12
1514894859361784,10,29,38,14,3,1,12,31
1514894859363785,-29,-19,-26,-19,-5,-7,-2,61
1514894859363785,14,-9,-58,-1,-1,-3,-13,-64
1514894859385801,11,15,34,11,1,0,21,-6
1514894859385801,13,66,-3,-9,-3,2,8,6
1514894859387302,-9,-94,-20,8,2,2,-10,-13
1514894859387302,-21,41,56,-2,0,-2,-4,10
1514894859398310,-14,-35,-102,-12,2,2,7,34
1514894859398310,-14,-51,-1,0,-6,-6,-29,-54
1514894859407317,12,32,69,11,5,3,5,-3
1514894859407317,32,12,-17,2,-2,-1,4,16
1514894859424328,1,39,28,1,2,6,9,-10
1514894859424328,9,22,-4,-9,-5,-2,18,50
1514894859425829,-10,-30,-79,10,3,2,-19,-50
1514894859425829,-10,20,65,3,-2,-3,3,18
1514894859444391,-8,-23,-100,-18,-8,-2,2,27
1514894859444391,10,18,88,20,7,0,-27,-56
1514894859446854,4,-13,-14,-5,-5,-1,11,-13
1514894859446854,7,-4,-45,-16,-4,-2,-4,31
1514894859457852,14,22,5,-7,-3,-2,-3,22
1514894859457852,-18,-16,14,8,0,-1,-12,-21
1514894859467360,-1,6,16,-14,-6,-1,26,68
1514894859467360,1,-18,-4,8,6,4,-18,-58
1514894859481369,-9,11,-2,1,-5,-9,-6,4
1514894859481369,-7,-56,-43,-33,-10,-7,2,-23
1514894859487873,3,4,63,35,11,2,-10,-11
1514894859487873,8,23,-70,-24,-10,-5,-4,35
1514894859504385,0,-50,-13,4,-1,-2,8,27
1514894859504385,24,30,-1,3,2,-3,-23,-19
1514894859505886,-6,26,90,16,-1,-2,-5,-63
1514894859505886,-4,-49,-11,-13,-2,-3,3,-19
1514894859526913,0,2,-82,-20,-5,-5,-14,-16
1514894859526913,-19,-3,114,26,5,7,26,50
1514894859528402,15,5,-13,2,7,6,-2,-15
1514894859528402,12,14,60,6,-2,-1,7,45
1514894859542422,5,31,70,44,19,13,-6,-55
1514894859542422,14,-56,-122,-58,-13,-3,22,25
1514894859549419,-52,10,-41,-12,-6,-6,-6,7
1514894859549419,21,54,56,19,7,5,10,-10
1514894859564427,-12,-29,25,-6,-3,-1,5,6
1514894859564427,20,72,63,21,7,3,5,3
1514894859565928,36,28,-1,-9,2,4,7,36
1514894859565928,5,-51,10,3,2,4,-1,39
1514894859587444,21,47,117,27,2,-9,-24,-79
1514894859587444,-17,-86,-87,5,-2,1,-6,-19
1514894859589445,-32,-14,-73,-53,-16,-7,11,16
1514894859589445,-4,49,31,-4,-2,-3,-23,-35
1514894859601954,-13,-63,-22,2,-1,0,12,-2
1514894859601954,1,-7,-34,10,2,3,14,10
1514894859603455,10,-8,-31,5,-4,-10,-23,8
1514894859603455,-12,26,64,5,-1,-3,24,47
1514894859625470,12,2,-81,-23,-10,-8,-27,-31
1514894859625470,-39,-6,25,-15,-11,-12,0,0
1514894859627972,5,10,-1,5,6,1,-2,22
1514894859627972,-4,-50,-25,37,9,4,-5,-36
1514894859646987,7,27,-20,-41,-6,-1,5,9
1514894859646987,7,58,118,10,1,2,28,71
1514894859648487,14,-43,5,30,10,7,-19,-53
1514894859648487,-22,-11,-18,-11,1,1,6,-17
1514894859661496,13,-51,16,-11,-7,-7,7,34
1514894859661496,-3,-3,-85,15,5,2,-8,11
1514894859668000,-8,-13,25,-53,-22,-18,-1,16
1514894859668000,14,13,-11,4,-1,-2,-3,-1
1514894859683512,-22,1,-41,-16,-13,-11,-14,-68
1514894859683512,0,10,48,16,10,6,5,13
1514894859698022,18,-25,-42,15,2,3,7,49
1514894859698022,-12,13,12,3,-5,-7,-15,-38
1514894859707028,-12,23,-7,-22,-5,-3,-8,14
1514894859707028,-5,-8,-12,21,5,0,-4,-23
1514894859708529,10,6,-14,3,-6,-11,-2,-15
1514894859708529,18,47,-87,-25,-6,-3,-10,19
1514894859721538,-4,13,24,5,1,3,1,22
1514894859721538,0,-54,-8,-3,7,10,13,46
1514894859729043,18,58,5,3,2,1,-15,-64
1514894859729043,-81,-29,-73,-51,-23,-14,6,0
1514894859752060,16,-23,48,33,10,7,14,-7
1514894859752060,-11,-40,-21,-22,-7,-1,-19,-6
1514894859752560,-18,61,-34,5,7,11,15,31
1514894859752560,16,6,54,13,1,-9,-9,59
1514894859766570,-8,-5,37,-2,2,3,-24,-81
1514894859766570,11,25,35,-1,-4,-3,15,18
1514894859767070,1,-38,-4,-12,2,6,9,-6
1514894859767070,-6,11,3,1,-3,-5,-13,-17
1514894859780580,-31,-11,-77,-11,-6,-3,11,34
1514894859780580,25,38,20,12,9,4,-4,-6
1514894859788586,-15,34,44,6,-7,-4,-9,-9
1514894859788586,34,-99,17,16,4,1,9,0
1514894859803597,-8,27,-44,-31,-5,2,10,35
1514894859803597,-28,17,38,8,0,-3,-10,-18
1514894859804597,-16,-29,-16,-13,-17,-15,-25,-68
1514894859804597,-13,-53,-57,2,2,1,-2,8
1514894859826122,38,41,81,35,15,8,-2,24
1514894859826122,-25,-37,-38,-18,-21,-13,-29,-80
1514894859827123,-13,32,95,-17,4,2,10,54
1514894859827123,36,1,-69,8,6,6,23,7
1514894859840622,-20,-44,34,0,-4,-6,-15,-20
1514894859840622,18,-31,-14,0,7,7,10,-12
1514894859848631,-6,34,96,20,-3,-1,-3,-13
1514894859848631,2,-15,-53,-2,3,8,15,51
1514894859880651,5,-43,78,20,5,-1,1,-54
1514894859880651,-1,14,-25,12,3,1,26,64
1514894859881652,49,9,-71,-35,-8,-3,-13,-44
1514894859881652,-58,-73,38,2,-2,-5,-13,-26
1514894859886155,-5,15,21,25,6,3,0,20
1514894859886155,23,-23,-45,-34,-11,-6,1,47
1514894859887155,9,-60,-22,6,4,4,16,14
1514894859887155,10,101,108,21,4,1,-18,-85
1514894859900665,3,-13,-57,-44,-19,-12,-5,26
1514894859900665,-13,-20,-40,12,5,6,1,-41
1514894859908670,8,6,-4,19,7,3,8,50
1514894859908670,7,-3,-11,-28,-13,-6,7,35
1514894859923681,-23,0,-66,11,-1,-4,-9,7
1514894859923681,20,77,44,28,6,3,-5,-20
1514894859924682,-28,-31,-34,-25,1,4,4,11
1514894859924682,10,29,37,15,2,-1,-13,-31
1514894859946197,3,-50,-108,-23,-10,-7,-4,11
1514894859946197,-29,15,8,8,4,-1,3,20
1514894859947198,24,-40,-29,-8,-15,-13,-11,-25
1514894859947198,-16,46,12,29,16,12,19,69
1514894859962209,-43,8,-13,-21,-8,-3,7,-53
1514894859962209,-26,-46,9,-34,-13,-12,-21,-19
1514894859968723,-2,33,61,47,9,5,14,18
1514894859968723,-22,-18,-33,-18,1,-2,-13,-15
1514894859984225,47,38,57,13,4,8,9,8
1514894859984225,-22,-37,-46,-10,-8,-6,-6,12
1514894859985228,11,-3,8,-12,-6,-2,-9,-1
1514894859985228,13,18,37,0,-4,2,8,-1
1514894860006239,17,65,64,28,14,7,2,24
1514894860006239,2,-32,12,-11,-9,-6,-11,-22
1514894860007240,32,17,-20,-8,11,4,-11,-13
1514894860007240,3,24,7,2,-2,5,9,7
1514894860020762,21,28,-18,-1,-3,-4,-13,-45
1514894860020762,2,-34,-9,-3,3,7,20,78
1514894860028765,-12,35,100,19,12,0,-12,-47
1514894860028765,8,-27,-75,-13,-5,-5,8,34
1514894860043776,-9,22,15,11,2,0,-11,-59
1514894860043776,7,13,-42,-14,-5,0,21,-1
1514894860044777,-16,7,-35,-4,-6,3,10,-7
1514894860044777,-2,-44,-16,-14,-10,-22,-34,-4
1514894860066783,5,15,-46,-20,-7,0,18,55
1514894860066783,-4,54,77,26,10,4,-9,-39
1514894860067283,-15,-12,-70,-7,-6,2,9,6
1514894860067283,9,-3,27,-25,-10,-5,4,6
1514894860080803,-6,28,-1,44,13,3,-6,-10
1514894860080803,39,14,72,-1,-6,-8,-16,-29
1514894860088807,-24,-65,-34,-3,5,2,5,32
1514894860088807,-16,13,0,-9,-1,3,-6,-51
1514894860103808,2,-73,-74,1,4,4,8,28
1514894860103808,27,70,11,-15,-3,1,16,52
1514894860104809,-14,-15,28,9,-5,-13,-42,-43
1514894860104809,-13,9,-1,-4,0,1,19,15
1514894860126324,23,0,43,-1,2,3,3,-12
1514894860126324,0,33,-60,-4,-1,2,-7,-9
1514894860126825,-27,-79,38,6,-1,-3,16,28
1514894860126825,14,32,-106,-8,1,7,-6,-41
1514894860140334,27,36,60,-4,-9,-10,12,127
1514894860140334,-50,-32,-43,-11,-8,-9,-33,-42
1514894860148840,24,54,20,-3,0,-1,10,-36
1514894860148840,13,3,14,7,-5,-7,-5,-74
1514894860171856,-17,-11,-1,21,8,6,-2,0
1514894860171856,-14,-22,0,-36,-16,-9,0,-9
1514894860172857,-12,17,44,33,7,2,-8,76
1514894860172857,5,-50,-81,-26,-1,-4,-15,-51
1514894860186367,-35,4,33,-13,-10,-5,-12,8
1514894860186367,37,36,48,43,16,7,1,-41
1514894860186867,-34,-64,-81,-53,-24,-15,-6,-15
1514894860186867,4,-11,54,34,14,7,16,33
1514894860200877,-4,4,45,1,-2,0,8,24
1514894860200877,4,-6,-37,-47,-8,-2,-2,-41
1514894860208882,10,15,6,13,0,-3,26,42
1514894860208882,-2,20,26,0,-5,-4,-19,-9
1514894860223893,11,-78,18,1,-3,-4,-6,-63
1514894860223893,2,11,70,12,11,7,17,31
1514894860224393,-3,-30,-46,-9,-2,1,-5,-26
1514894860224393,29,39,66,10,9,7,21,20
1514894860246410,-44,-1,-18,-2,-5,-7,-9,-19
1514894860246410,-5,-13,-45,-3,-1,-5,-11,2
1514894860247910,8,-17,2,-3,2,4,-5,-9
1514894860247910,-18,2,0,-9,-8,-6,1,21
1514894860260419,33,3,-63,8,10,7,13,5
1514894860260419,-11,-1,22,8,-2,-7,-11,0
1514894860268925,-16,51,48,-6,-6,-5,-5,-7
1514894860268925,-7,6,-68,4,1,1,-1,0
1514894860283937,-15,-63,-18,-44,-17,-12,5,50
1514894860283937,-12,-3,-48,8,3,0,-22,-43
1514894860284938,11,-3,44,15,6,6,16,-2
1514894860284938,-15,29,50,7,3,2,-6,29
1514894860306452,6,6,25,0,0,-4,2,-16
1514894860306452,10,-11,-14,-3,2,6,8,43
1514894860306952,0,10,22,10,-3,-2,0,22
1514894860306952,10,16,21,-1,1,-2,-19,-55
1514894860320474,-20,-34,-66,-16,0,-1,6,4
1514894860320474,11,6,22,-5,-4,-1,0,3
1514894860328980,4,34,17,15,4,-1,11,26
1514894860328980,-1,2,-7,-6,-3,-3,10,48
1514894860343487,-7,-48,-21,-16,-4,1,-10,-32
1514894860343487,20,-31,53,5,0,-2,-4,-14
1514894860344488,-12,-1,-58,-2,-3,-9,-22,20
1514894860344488,21,17,62,17,5,3,-2,-45
1514894860366495,-17,9,-53,-22,-7,-4,0,-3
1514894860366495,17,21,52,30,6,1,14,29
1514894860366995,-20,-24,38,-24,-1,3,-10,-19
1514894860366995,-11,-31,-25,-5,-6,-5,2,25
1514894860382005,22,101,65,36,10,5,2,9
1514894860382005,-7,-40,-6,5,3,3,-3,-14
1514894860389010,-8,-42,-58,-20,-14,-14,-4,-7
1514894860389010,-1,-12,-85,-29,-7,-2,-5,6
1514894860403531,0,24,53,21,9,6,3,-10
1514894860403531,-7,39,-19,9,2,0,-7,-17
1514894860404533,-8,-3,14,-13,-3,1,19,15
1514894860404533,-2,-17,-45,-1,-1,-4,-8,-9
1514894860426045,9,11,68,-1,-2,-2,-11,-16
1514894860426045,-12,-39,-50,-12,-6,-2,-3,32
1514894860427037,7,19,-18,17,1,-3,-13,16
1514894860427037,20,-5,40,20,4,1,-5,-63
1514894860449553,-2,-3,-36,-7,1,2,12,14
1514894860449553,-42,2,-54,-39,-10,-10,-7,-37
1514894860450553,28,13,61,27,6,5,10,24
1514894860450553,-15,-24,1,-5,1,1,6,55
1514894860464563,21,32,-25,6,-4,-6,-11,-52
1514894860464563,-2,0,-48,-21,-7,0,-2,72
1514894860465564,8,-22,29,16,7,6,-6,-96
1514894860465564,4,11,-25,-17,-7,-5,5,25
1514894860486579,-33,4,6,5,2,1,-3,-16
1514894860486579,12,19,111,47,13,4,-1,26
1514894860488100,-7,-8,-37,-46,-16,-6,0,22
1514894860488100,15,10,76,13,0,3,11,-2
1514894860517101,10,-5,-32,-21,-6,-5,-7,28
1514894860517101,-22,-15,3,-15,-6,-3,7,-38
1514894860517602,27,6,-7,25,12,6,5,-23
1514894860517602,-47,-29,-23,-14,-4,-5,-16,0
1514894860523605,14,22,2,-1,-3,0,-4,13
1514894860523605,14,-12,-17,-5,-2,0,5,12
1514894860524616,7,12,6,-5,0,-1,-2,-25
1514894860524616,16,24,7,-20,-10,-6,6,35
1514894860546131,-16,-14,-13,-6,-5,-4,-18,-41
1514894860546131,-9,10,5,8,2,3,5,9
1514894860547131,6,17,48,7,-1,-3,-4,-41
1514894860547131,-16,-36,-8,0,-5,-3,0,8
1514894860569639,-3,-22,-9,6,6,3,7,34
1514894860569639,-13,8,-16,-6,-7,-4,6,-28
1514894860570138,11,22,29,7,2,3,1,29
1514894860570138,-15,-4,-2,2,2,3,7,-9
1514894860584149,-21,1,34,-16,-9,-6,-13,-18
1514894860584149,15,-20,-33,9,2,1,0,24
1514894860584648,5,70,35,0,6,4,-8,-16
1514894860584648,-1,4,-16,11,-1,-1,8,51
1514894860606163,-7,-27,5,-3,0,-1,4,-50
1514894860606163,-13,-29,6,12,2,-1,-11,-30
1514894860607164,-3,18,-5,-32,-16,-10,-3,11
1514894860607164,36,28,77,14,3,-1,-5,-19
1514894860629680,-28,-24,120,22,9,9,23,62
1514894860629680,12,-9,-74,-14,-6,-2,4,16
1514894860630181,-12,-27,-16,-8,-5,-8,-11,-68
1514894860630181,8,5,2,5,2,3,3,-1
1514894860643690,23,5,-78,5,0,-1,-7,-16
1514894860643690,-48,10,68,8,2,-4,-9,-26
1514894860644690,18,-8,-31,-11,1,2,8,55
1514894860644690,-13,-10,-10,-5,-2,0,-9,-27
1514894860666707,15,5,21,24,7,2,2,7
1514894860666707,-17,43,2,-3,-4,-4,30,52
1514894860667207,6,-29,-55,-4,-3,3,-37,-52
1514894860667207,-13,-18,8,3,-3,-8,-10,-32
1514894860696727,14,21,-87,-17,-5,-4,2,62
1514894860696727,-4,-38,23,1,0,-1,-19,-77
1514894860697728,-31,19,-7,10,4,1,4,10
1514894860697728,3,-23,7,10,-1,-1,-2,-6
1514894860703733,0,27,30,-7,-3,0,2,-6
1514894860703733,10,-23,-35,-13,-8,-4,-8,5
1514894860704733,-15,-8,-34,2,-3,-5,-4,4
1514894860704733,-5,32,-93,9,3,-1,0,-9
1514894860735755,2,-44,-1,-15,-6,-2,11,58
1514894860735755,32,-11,4,-20,-3,-4,-8,-52
1514894860737757,-30,-25,-17,-12,-3,0,-5,-32
1514894860737757,0,41,67,7,10,7,7,18
1514894860750267,0,0,-32,-1,-4,-2,-1,-9
1514894860750267,-15,-21,95,9,-1,-4,-10,-27
1514894860750766,14,-6,-30,18,6,-1,8,41
1514894860750766,-13,-22,-47,-36,-13,-2,2,1
1514894860763775,3,51,41,3,2,0,4,5
1514894860763775,9,12,33,-1,-5,-3,-20,-2
1514894860764775,-4,-34,-28,-10,3,2,5,-17
1514894860764775,0,15,32,-1,-5,-7,-5,2
1514894860785790,7,-26,-6,10,5,5,-3,-17
1514894860785790,-10,48,16,-8,1,1,6,50
1514894860793796,-27,-16,13,2,-5,-1,2,6
1514894860793796,14,35,-47,10,2,0,5,28
1514894860809313,-13,-23,-20,-12,1,-3,-25,-48
1514894860809313,18,-15,-3,21,8,8,22,38
1514894860810308,24,28,39,3,-5,-4,-23,-62
1514894860810308,-36,-2,12,-12,3,0,1,-12
1514894860823817,-3,-8,3,1,-6,-7,-1,4
1514894860823817,6,-7,-29,-6,-5,-3,-7,-19
1514894860824821,23,47,70,14,3,5,21,86
1514894860824821,-4,-65,-39,-1,-5,-9,-25,-50
1514894860846333,-20,7,29,7,2,4,5,-24
1514894860846333,-3,-41,-75,-36,-7,0,4,-1
1514894860846834,-15,-5,18,17,6,2,3,23
1514894860846834,19,6,30,-5,-2,0,10,36
1514894860869350,27,-15,-27,5,-1,-3,0,-1
1514894860869350,3,7,-7,-2,-4,-4,5,7
1514894860870350,10,21,66,27,8,3,-4,-26
1514894860870350,-4,-37,-89,-25,-10,-4,5,1
1514894860884861,6,50,-26,-33,-8,-6,-23,-8
1514894860884861,13,3,49,13,5,-1,-1,17
1514894860886361,-40,-5,13,-10,-6,-6,-1,9
1514894860886361,-12,-11,-72,-14,-1,-3,-5,-12
1514894860906375,-4,32,71,5,1,0,21,80
1514894860906375,-18,-8,-2,-3,-6,-7,-27,-120
1514894860906875,2,-6,-25,8,8,2,1,16
1514894860906875,0,4,-12,2,-1,-1,4,-4
1514894860936897,-14,-18,9,11,-3,0,-3,-10
1514894860936897,8,-29,-33,-8,-3,0,2,18
1514894860937898,1,-24,-5,-7,-7,-6,-5,-4
1514894860937898,-3,19,72,-8,0,3,-2,-8
1514894860943902,11,4,4,-5,1,0,7,-21
1514894860943902,1,16,22,26,10,7,20,27
1514894860944403,-5,-30,-61,-7,-8,-8,-22,-44
1514894860944403,17,31,-38,-17,-7,-3,-6,8
1514894860966419,-30,-65,-35,19,6,-1,-5,-31
1514894860966419,-5,8,26,-7,-3,2,12,31
1514894860966925,3,46,36,0,2,-4,1,12
1514894860966925,31,2,69,13,4,1,-11,-25
1514894860988952,-18,-32,-52,-27,-12,-8,-8,-14
1514894860988952,5,-1,-52,3,2,1,1,8
1514894860996451,4,24,61,-4,-3,-4,3,10
1514894860996451,16,-27,-31,15,3,3,1,8
1514894861003944,-3,-10,24,5,1,0,-2,-44
1514894861003944,-9,-19,-42,-12,-8,-3,-5,69
1514894861004444,-3,8,0,-24,-7,-5,-8,-73
1514894861004444,3,25,70,25,10,6,18,28
1514894861026460,-11,-1,-65,6,-2,-3,-10,0
1514894861026460,11,10,52,15,4,3,4,23
1514894861026961,9,-16,-93,-11,-1,2,3,10
1514894861026961,3,18,46,0,-1,2,7,13
1514894861049978,-8,-1,-20,-14,-5,-5,1,-17
1514894861049978,19,22,17,15,1,-1,-10,-27
1514894861050478,-9,-25,-20,-8,-5,1,-3,31
1514894861050478,-3,21,-20,-14,-6,-9,-8,-2
1514894861062986,28,-34,54,11,5,2,12,20
1514894861062986,-56,33,43,-2,-2,-3,-2,-37
1514894861071492,20,20,1,9,3,4,24,93
1514894861071492,-69,-52,-24,-13,-5,-5,-19,-56
1514894861086503,-6,4,-50,-27,-7,-6,-9,-4
1514894861086503,30,-22,-34,13,6,-1,-1,-5
1514894861087003,8,0,31,11,1,7,17,28
1514894861087003,-9,-31,34,-7,-4,-7,-7,2
1514894861109519,8,19,-12,2,-3,-4,-12,-34
1514894861109519,8,13,-6,-5,-2,-1,-3,-2
1514894861110520,-12,-16,-16,0,-5,-5,6,9
1514894861110520,11,2,-68,-21,-5,-3,-15,-33
1514894861123029,22,-2,32,3,3,4,2,13
1514894861123029,14,-26,-17,-16,-6,-3,-3,2
1514894861132535,4,27,62,15,4,0,1,-14
1514894861132535,-13,-35,-55,-13,-8,-5,3,-21
1514894861146545,0,5,35,8,4,0,3,98
1514894861146545,-5,-7,12,-9,-3,-2,-15,-103
1514894861147046,10,4,-51,-1,2,1,-3,-15
1514894861147046,24,-4,-41,25,0,-4,17,46
1514894861169562,-12,46,24,-37,-5,3,4,-16
1514894861169562,-12,-76,31,10,5,4,8,27
1514894861171062,-16,-7,-48,-15,-7,-8,-15,-16
1514894861171062,1,49,45,-3,1,2,2,47
1514894861191585,21,-4,4,13,-4,-3,-8,-65
1514894861191585,0,17,-5,23,6,3,-3,12
1514894861193580,-9,-12,40,-7,-1,3,4,-41
1514894861193580,4,-11,-33,-4,-3,0,5,17
1514894861214094,-10,26,14,-2,1,-1,2,37
1514894861214094,7,7,-33,-17,-7,-2,-15,-30
1514894861215095,-10,17,1,17,-1,-3,-1,24
1514894861215095,-12,-4,91,6,-1,-1,-17,-38
1514894861229614,-16,37,72,11,4,4,18,8
1514894861229614,14,-8,-40,4,1,-2,-2,8
1514894861230104,4,12,32,-3,3,4,15,21
1514894861230104,-4,-44,-9,2,-2,1,4,-2
1514894861243114,4,14,-72,-22,-10,-7,-10,2
1514894861243114,-39,0,21,-5,0,3,-8,-7
1514894861251634,-10,-7,-20,-14,-4,-5,-2,23
1514894861251634,33,27,52,8,4,2,-13,-33
1514894861266641,19,-66,9,14,-2,-1,-3,-15
1514894861266641,-5,18,-8,-10,-5,-6,7,42
1514894861267136,12,-14,-12,-3,-3,-7,-17,-44
1514894861267136,-36,9,33,5,5,5,2,8
1514894861289647,1,12,-49,1,-2,0,2,-16
1514894861289647,2,14,6,3,1,-2,1,11
1514894861290147,6,-46,-44,-21,-9,-3,1,14
1514894861290147,-1,14,37,0,3,0,0,12
1514894861303155,-29,-37,-96,-13,-4,-4,-21,-34
1514894861303155,5,32,89,12,-2,-3,-1,15
1514894861311161,-8,-23,-2,-5,1,1,-3,-6
1514894861311161,35,15,-6,11,5,4,9,56
1514894861326185,-89,-2,30,-16,-5,-3,-4,-13
1514894861326185,5,7,-14,-1,-4,-1,-15,-53
1514894861327185,26,25,24,24,8,4,-3,38
1514894861327185,-18,-56,-40,-30,-8,-6,-5,-44
1514894861349697,1,-10,43,26,8,7,15,25
1514894861349697,-7,-1,15,-5,-1,-4,-8,-15
1514894861350192,-11,5,17,-10,-8,-4,1,32
1514894861350192,-12,41,8,-1,3,2,-3,-40
1514894861363198,25,-5,7,18,0,-3,-7,6
1514894861363198,-11,-2,23,-15,-4,-1,4,0
1514894861371204,-19,1,23,9,6,6,-9,-12
1514894861371204,-38,-68,-53,-7,-5,-6,-1,-13
1514894861386716,10,-16,5,-19,-3,-2,4,-9
1514894861386716,24,44,34,11,-2,-2,4,6
1514894861394220,5,-16,-22,-11,-2,-1,-3,-13
1514894861394220,14,24,23,15,0,1,4,0
1514894861409231,27,8,79,9,2,1,16,65
1514894861409231,-16,-40,-95,-24,-3,-2,-12,-17
1514894861410231,-17,-8,-11,13,-1,-5,-6,-66
1514894861410231,11,43,61,1,-6,-3,-7,-1
1514894861432247,26,5,-15,7,7,3,5,26
1514894861432247,-21,-20,-1,-12,-7,-6,2,6
1514894861432748,-1,-2,-15,-3,-1,0,1,-11
1514894861432748,-2,-20,-46,17,4,2,12,10
1514894861446257,8,5,-32,2,-3,-5,2,-8
1514894861446257,-2,24,-50,-10,-3,0,6,65
1514894861446757,15,39,51,8,6,4,-10,-82
1514894861446757,-39,-36,-78,-20,-11,-9,-7,1
1514894861469273,9,21,55,4,-1,1,1,5
1514894861469273,-14,-34,-9,-2,4,3,-1,-18
1514894861470275,8,15,22,9,1,1,12,37
1514894861470275,34,1,-42,-38,-10,-4,5,18
1514894861492302,-5,13,-12,5,0,-2,-7,-16
1514894861492302,-14,-32,-65,-16,-8,-4,0,-6
1514894861493303,8,-16,7,9,6,4,8,46
1514894861493303,9,29,11,16,-1,-3,-10,4
1514894861506299,6,-22,-9,-8,2,0,-17,-45
1514894861506299,20,10,50,19,5,7,7,13
1514894861507300,-11,-3,-1,-4,-7,-6,-3,-1
1514894861507300,5,-7,-51,-29,-1,-3,-2,23
1514894861529334,23,16,26,10,5,2,-1,-10
1514894861529334,-11,-6,3,4,-2,-4,-7,3
1514894861530317,-7,-8,-25,4,-2,2,-4,-24
1514894861530317,-6,47,70,9,2,-1,14,71
1514894861552332,-19,-28,-39,-7,-2,-4,-21,-77
1514894861552332,16,8,-9,1,2,1,5,-6
1514894861552833,-5,29,27,21,-5,-7,-6,-5
1514894861552833,-6,-16,-29,-31,-1,1,20,2
1514894861566342,13,-11,-50,-7,-6,-5,-19,11
1514894861566342,-6,9,44,30,6,3,10,17
1514894861567343,-13,-12,-49,-29,-7,-4,-1,20
1514894861567343,24,20,42,12,3,3,-12,-37
1514894861590360,5,0,3,-3,-4,-3,11,97
1514894861590360,1,-5,-41,-6,-1,-4,-33,-115
1514894861590360,-16,12,2,-5,-3,-1,1,11
1514894861590360,-3,-58,10,17,2,0,-5,-17
1514894861611876,-3,26,71,8,1,-2,0,18
1514894861611876,1,23,-7,-8,0,0,6,16
1514894861612878,0,-3,-25,-34,-15,-12,-3,-10
1514894861612878,19,9,42,15,2,4,-8,-26
1514894861626885,-26,-11,-44,1,-4,0,4,-8
1514894861626885,4,8,13,2,1,-1,10,58
1514894861627387,4,-15,4,-12,-1,0,-9,-76
1514894861627387,4,37,-15,8,-2,-2,1,3
1514894861650402,-5,-13,45,21,3,5,12,-2
1514894861650402,-19,11,-25,-13,-6,-4,-1,30
1514894861651908,-2,-48,-86,-21,-2,-1,2,0
1514894861651908,-23,-12,93,23,1,-1,-13,-8
1514894861672918,4,8,10,-2,0,2,5,-6
1514894861672918,-16,-25,8,8,1,1,-2,-13
1514894861674422,-4,16,-67,-28,-10,-4,4,39
1514894861674422,19,11,16,3,2,1,9,11
1514894861686431,20,4,44,12,2,2,-9,-46
1514894861686431,50,11,28,-15,-1,1,4,7
1514894861693932,-46,-41,-61,14,5,2,2,5
1514894861693932,-2,-10,-9,13,2,0,-1,2
1514894861709443,-9,3,-33,-9,1,3,6,-7
1514894861709443,17,19,45,-3,-7,-3,-3,29
1514894861710445,33,48,88,18,8,5,3,1
1514894861710445,-16,-38,-98,-20,-7,-5,-10,-10
1514894861731959,-19,-5,45,5,2,0,22,28
1514894861731959,-3,7,-68,-15,-6,-6,-9,-24
1514894861732960,5,24,66,3,-2,-1,-14,-16
1514894861732960,-10,-8,36,-11,-3,-3,-8,-19
1514894861746470,8,17,-83,-12,-5,-5,7,76
1514894861746470,-15,-2,41,7,1,-1,-12,-55
1514894861746970,8,1,31,11,4,0,-8,1
1514894861746970,-10,3,3,0,-3,-3,0,-3
1514894861769987,1,-9,-24,-5,0,-3,-7,-15
1514894861769987,-19,-6,-35,-5,-8,-4,9,44
1514894861770986,22,2,59,-6,-3,-3,-8,-43
1514894861770986,-33,-15,30,14,0,0,-2,6
1514894861792505,-4,-20,-95,-36,-8,-5,-7,-33
1514894861792505,17,29,73,16,6,3,10,1
1514894861793008,-31,-33,-108,1,-3,-6,5,16
1514894861793008,7,42,40,-11,-4,-4,-3,-8
1514894861806513,0,9,56,0,-5,-1,-9,-12
1514894861806513,-12,-29,0,11,2,0,0,-20
1514894861808017,0,-12,23,-10,-2,-1,18,50
1514894861808017,8,6,-84,-2,2,0,-9,-20
1514894861829528,-30,-21,-35,-10,-11,-10,-12,-10
1514894861829528,-17,-38,18,-6,-2,-1,-2,-10
1514894861830029,9,6,-25,-2,-2,0,3,17
1514894861830029,-5,4,17,2,-4,-3,-4,-7
1514894861853549,22,14,36,-4,0,2,7,9
1514894861853549,-7,-23,-25,14,5,2,-6,13
1514894861855049,-10,-20,-2,-12,-5,-5,7,-11
1514894861855049,25,44,52,20,10,8,9,22
1514894861865553,-25,-55,-43,-11,-5,-4,-16,-22
1514894861865553,1,-49,-42,-17,-4,2,23,-9
1514894861874565,-1,12,12,5,-1,-2,-21,-6
1514894861874565,33,-12,-53,-19,-4,-3,-2,-34
1514894861889571,-27,-8,32,28,8,4,5,13
1514894861889571,18,18,14,-14,-3,-3,1,23
1514894861891072,8,14,16,10,3,2,-9,-15
1514894861891072,-2,8,-20,-30,-8,-4,-6,4
1514894861912086,0,3,51,13,-1,-3,5,4
1514894861912086,-12,-6,-59,-1,3,3,-3,-20
1514894861913588,8,7,-76,-15,-9,-3,10,18
1514894861913588,11,15,47,23,6,4,-7,-2
1514894861925596,-25,-27,9,-17,-6,-5,-9,-20
1514894861925596,-8,2,-44,10,1,-2,5,23
1514894861940607,-11,-20,0,-4,0,-1,-3,-1
1514894861940607,-4,3,11,0,2,0,7,11
1514894861949614,-6,-1,-16,-4,-1,1,-4,-7
1514894861949614,10,13,72,14,2,0,-3,-6
1514894861951115,3,12,-5,-17,-4,-1,3,59
1514894861951115,-20,-56,-2,6,-2,-4,-8,-53
1514894861972633,10,18,-3,-7,-5,-7,-5,-8
1514894861972633,-11,2,14,14,4,6,6,14
1514894861974133,7,17,18,7,4,1,-4,-32
1514894861974133,-14,13,45,-5,-4,1,10,22
1514894861986144,6,25,60,15,6,4,7,-6
1514894861986144,7,-37,-109,-16,-5,-5,-9,-5
1514894861996647,3,27,101,20,4,3,1,-2
1514894861996647,-3,15,-35,12,0,-3,5,30
1514894862009155,6,-42,-58,-9,-3,2,-3,-55
1514894862009155,-2,51,-6,-15,-5,-3,-3,-22
1514894862011156,4,-23,5,-1,0,0,-3,-8
1514894862011156,20,37,2,3,-3,-4,16,23
1514894862032671,3,-19,18,2,0,-1,-21,-4
1514894862032671,2,7,58,-2,-1,0,-4,3
1514894862036177,-4,6,-80,8,0,0,-1,-13
1514894862036177,-1,-16,55,-19,-14,-5,-1,-13
1514894862046681,5,-20,-78,-13,-2,-1,10,52
1514894862046681,-12,-22,-18,-4,-7,-6,-15,-27
1514894862055187,-13,22,41,15,7,5,7,33
1514894862055187,-3,12,-78,-2,0,-4,-3,-35
1514894862069209,0,-18,18,-15,-8,-3,-10,-34
1514894862069209,-3,4,35,14,5,0,5,-8
1514894862071211,-1,-33,1,18,3,3,-3,-1
1514894862071211,7,-17,-84,-36,-6,-2,-5,7
1514894862091723,13,46,34,19,7,5,11,32
1514894862091723,-2,-22,36,6,0,0,-4,-28
1514894862093714,-3,4,-14,5,1,0,-2,-21
1514894862093714,2,10,12,-1,-1,4,10,51
1514894862105733,17,18,1,5,1,-2,-7,-39
1514894862105733,-3,1,-19,-9,-5,-1,11,36
1514894862114739,22,34,52,0,-1,-2,-9,-25
1514894862114739,-14,-55,-19,-12,-1,-1,2,18
1514894862129255,-18,-4,15,1,-6,-5,-2,13
1514894862129255,7,30,28,-8,0,-1,-3,8
1514894862131256,3,-12,19,4,-2,-4,-4,-3
1514894862131256,-2,2,23,21,10,8,6,3
1514894862152258,-13,10,-29,-25,-10,-8,-14,-16
1514894862152258,20,5,3,0,-2,-1,-1,7
1514894862153769,5,-8,41,-3,0,-2,9,-14
1514894862153769,-23,18,-41,-7,-6,-7,-25,-26
1514894862165772,23,-22,42,19,6,5,13,33
1514894862165772,-25,-13,11,4,-3,-1,-7,-9
1514894862183279,17,2,-36,-24,-7,-3,0,11
1514894862183279,-9,18,84,4,-1,-1,4,-20
1514894862189292,10,21,22,14,3,1,5,21
1514894862189292,-7,-29,-78,-38,-10,-4,0,52
1514894862191787,-14,-35,-40,0,1,2,7,-71
1514894862191787,2,9,-29,-15,-5,-6,-28,-14
1514894862211808,3,22,22,2,2,5,-2,-2
1514894862211808,13,11,39,16,3,1,-7,-4
1514894862214300,-2,3,-1,0,1,3,7,38
1514894862214300,6,0,-47,-9,-6,-4,8,24
1514894862225807,-12,-9,-13,0,0,-2,-20,-31
1514894862225807,-26,6,-12,2,-1,-6,-6,-7
1514894862235316,1,6,-16,-10,-8,-5,-10,-1
1514894862235316,-42,-17,36,8,2,3,9,41
1514894862256829,9,33,2,-5,-1,-1,-2,-6
1514894862256829,-3,2,-19,-5,-2,-2,8,-48
1514894862258330,-23,-49,-59,-7,-4,0,-5,8
1514894862258330,21,-12,0,11,2,-1,-1,2
1514894862271840,-21,-15,-29,-12,-6,-5,1,2
1514894862271840,15,16,-23,5,3,2,1,33
1514894862273341,-1,0,85,-6,-3,-5,-6,-25
1514894862273341,21,4,-26,1,-4,-3,-2,-12
1514894862285349,-7,-7,-18,5,5,5,14,25
1514894862285349,19,4,21,3,-1,2,-4,-38
1514894862294356,1,23,22,8,4,1,6,40
1514894862294356,27,-34,-26,-12,-4,-3,1,-21
1514894862309367,-14,27,17,1,-2,1,6,-1
1514894862309367,9,-4,35,13,3,0,-15,8
1514894862310868,-49,-23,36,1,0,-3,-7,-13
1514894862310868,26,12,15,-15,-1,1,-7,-18
1514894862331884,8,3,25,12,3,-1,6,16
1514894862331884,-9,16,28,-1,-1,2,19,64
1514894862334885,3,-5,18,-2,-1,-8,-34,-87
1514894862334885,-13,-9,-8,11,3,2,-1,6
1514894862354399,-14,-23,-57,-11,-6,-2,3,61
1514894862354399,-5,-11,53,13,3,2,-9,-79
1514894862356901,10,16,-19,-9,-12,-9,-2,30
1514894862356901,-15,-27,-21,-23,-2,1,0,-3
1514894862369409,18,12,3,0,0,-3,-13,-57
1514894862369409,5,-24,-23,3,0,2,20,45
1514894862370910,4,28,4,11,2,3,3,20
1514894862370910,-12,-13,3,0,-1,-2,-2,-23
1514894862392425,13,17,51,2,0,0,6,16
1514894862392425,-11,-13,-34,-3,-3,-5,-9,-15
1514894862394927,1,-14,-34,-17,-6,-6,-4,11
1514894862394927,0,-27,-48,7,4,6,9,2
1514894862413945,-8,-1,39,-2,-3,-5,-3,3
1514894862413945,-2,-22,37,-16,-11,-10,-7,7
1514894862421946,3,-1,-65,-6,1,3,7,6
1514894862421946,-8,8,34,8,-3,-9,4,41
1514894862437457,2,-10,-20,-2,4,2,16,27
1514894862437457,6,34,29,0,-1,-4,-28,-76
1514894862440460,11,1,-5,9,0,1,3,16
1514894862440460,-23,-27,5,-17,-8,-7,-11,-27
1514894862451968,14,0,2,1,-2,1,10,0
1514894862451968,-5,31,-20,2,5,4,13,21
1514894862458481,-7,-12,71,16,6,3,-11,-1
1514894862458481,-9,34,-36,-9,-5,-3,2,-8
1514894862474483,1,-22,14,2,-2,0,-9,-23
1514894862474483,24,19,-15,8,3,5,22,81
1514894862475984,-30,-35,-55,-10,-7,-9,-23,-38
1514894862475984,25,16,22,13,9,10,-2,-38
1514894862488994,-8,-29,-15,-25,-6,-5,-5,-7
1514894862488994,11,-6,-5,1,-2,-3,-1,0
1514894862495498,13,9,15,2,-1,1,27,67
1514894862495498,0,37,28,13,-4,-7,-23,-8
1514894862512010,2,8,0,5,4,3,-7,-16
1514894862512010,-15,-3,63,7,2,0,-6,-22
1514894862514011,-9,-6,-97,-36,-10,-4,8,9
1514894862514011,16,10,46,21,5,2,8,10
1514894862535526,-20,-4,-31,5,-2,-1,1,-8
1514894862535526,-8,-8,46,3,0,-1,-4,4
1514894862539035,10,22,-39,-2,-2,-2,-1,-10
1514894862539035,4,-31,12,-8,0,2,6,10
1514894862548536,-13,-21,-28,-9,-5,-5,5,56
1514894862548536,19,56,31,19,5,3,-17,-60
1514894862555541,-7,-3,28,-8,-4,-4,8,-15
1514894862555541,-1,-35,-80,-2,-2,-5,-5,6
1514894862572052,-17,6,-64,0,-1,-1,3,-3
1514894862572052,5,-36,-39,-20,-4,-3,5,-8
1514894862573554,34,46,48,15,5,3,-5,-6
1514894862573554,-24,-8,33,2,-1,-1,-2,-1
1514894862593586,3,-33,-17,4,-3,-5,6,21
1514894862593586,-3,6,-49,-27,-5,-4,-9,-17
1514894862603087,12,4,57,21,6,2,1,5
1514894862603087,-11,-11,25,-10,-5,-2,1,-3
1514894862608590,17,48,44,16,2,-1,0,19
1514894862608590,-3,-41,34,-12,-3,1,-9,8
1514894862623090,-6,-3,-29,-7,1,3,-4,-52
1514894862623090,28,23,24,2,-1,-2,-5,14
1514894862631607,-8,29,5,-2,-6,-1,-1,-21
1514894862631607,-14,-12,-45,-2,2,0,13,37
1514894862633599,-18,-1,5,-4,1,2,-8,-23
1514894862633599,9,21,33,21,4,5,8,8
1514894862654112,21,12,11,17,7,1,-13,-13
1514894862654112,-17,-9,-32,-24,-11,-2,9,-5
1514894862656122,8,15,-6,9,5,0,5,34
1514894862656122,10,32,15,20,6,3,3,-14
1514894862668639,-29,-1,18,-10,0,3,4,22
1514894862668639,-2,5,-40,-29,-8,-2,-6,-13
1514894862675641,-1,-2,-5,-9,-7,-4,9,-16
1514894862675641,5,10,-22,2,3,1,-8,17
1514894862691637,-15,-9,21,1,-1,0,-14,-62
1514894862691637,9,15,41,30,8,3,7,17
1514894862693639,-9,-5,-102,-42,-16,-9,-5,14
1514894862693639,-2,-1,75,13,4,3,4,48
1514894862714153,-2,-9,-68,-22,-4,0,-13,-84
1514894862714153,-10,-13,0,33,1,-1,-3,13
1514894862716154,10,-4,44,-23,1,4,2,4
1514894862716154,0,7,16,-2,-5,-6,8,22
1514894862738171,-38,-17,-42,-2,1,-2,-5,-7
1514894862738171,-8,-20,7,-5,-2,-3,2,8
1514894862741672,-2,-5,55,29,9,5,12,28
1514894862741672,12,-13,-102,-28,-11,-9,-16,-48
1514894862751680,1,-30,14,-5,-1,0,10,36
1514894862751680,-11,-31,-61,-9,-3,-5,-8,-57
1514894862753681,0,39,37,23,4,2,5,11
1514894862753681,-24,-61,6,-28,-11,-9,-23,-32
1514894862775196,29,-5,28,12,2,-1,-1,-8
1514894862775196,-22,10,-12,-23,-7,-4,9,51
1514894862777698,13,1,-9,-3,0,-3,-19,-14
1514894862777698,-2,25,96,17,0,1,8,-15
1514894862788706,-10,-14,-68,-30,-11,-8,-9,0
1514894862788706,-26,-4,-16,-7,-6,-3,-2,31
1514894862795711,-10,11,29,5,-3,-5,-17,-76
1514894862795711,3,-38,-19,4,2,3,23,32
1514894862811722,1,25,4,-6,-3,-4,-16,-35
1514894862811722,6,-36,-16,-3,0,1,-3,-1
1514894862814223,-6,-23,-2,9,-3,-4,1,10
1514894862814223,-19,19,-19,-12,-4,1,-2,1
1514894862834740,23,-11,-10,5,2,0,6,6
1514894862834740,2,22,-15,5,1,-1,0,-3
1514894862837750,38,26,27,8,3,2,2,33
1514894862837750,-14,0,14,-9,-6,-5,1,-12
1514894862848257,-2,-5,-14,8,-1,-2,6,43
1514894862848257,3,10,6,5,1,1,-2,-13
1514894862857264,3,4,-9,-7,-2,1,-14,0
1514894862857264,-6,11,-31,-11,1,-1,6,-14
1514894862871769,3,-34,28,6,2,1,-7,-8
1514894862871769,42,25,17,9,1,0,6,28
1514894862873265,-20,2,17,9,5,3,1,-17
1514894862873265,-3,-12,-35,-7,-3,-3,1,20
1514894862893293,-6,-4,6,-9,-3,-1,-3,-22
1514894862893293,11,10,12,16,4,0,-3,2
1514894862902296,-9,-27,-1,-19,-6,-2,-2,5
1514894862902296,3,8,17,20,8,3,6,12
1514894862908306,3,6,59,-13,-7,-5,-1,-30
1514894862908306,-7,0,-53,-7,-3,-2,-11,-35
1514894862916797,-9,3,-8,-2,0,0,14,24
1514894862916797,-8,-38,0,14,2,1,-5,-8
1514894862931819,4,1,1,-7,0,-1,-3,23
1514894862931819,2,40,21,-8,-7,-6,-20,-14
1514894862933830,-16,-39,36,11,3,-1,6,-19
1514894862933830,1,17,1,7,4,4,-4,5
1514894862954335,2,-14,-37,-4,-3,-2,1,6
1514894862954335,-3,-7,13,7,4,2,5,-1
1514894862956343,-5,-3,-37,-14,-4,-4,-3,19
1514894862956343,-18,2,-13,-9,-5,-6,-6,-49
1514894862967832,9,7,24,13,4,4,7,9
1514894862967832,-21,-26,31,-9,-3,-2,-5,-16
1514894862982855,-20,-13,-32,7,-4,0,5,2
1514894862982855,6,21,-3,-8,-1,-1,2,8
1514894862990858,5,-6,6,-10,-3,-4,-5,-5
1514894862990858,-18,9,17,15,4,1,4,0
1514894862999354,-21,1,3,-10,-4,-4,-9,8
1514894862999354,4,11,18,6,2,0,-4,1
1514894863014865,5,-8,-85,-10,-5,2,6,-1
1514894863014865,21,-5,-50,21,5,3,10,66
1514894863016367,5,50,63,-27,-8,-4,-13,-56
1514894863016367,-4,-27,-72,-9,-3,-2,-3,4
1514894863027874,-19,5,15,0,0,-2,-5,3
1514894863027874,8,-9,1,-3,-3,-2,-1,-11
1514894863036881,6,4,31,20,7,2,10,36
1514894863036881,-14,-44,-66,-22,-9,-7,-22,-26
1514894863051891,2,24,38,7,2,1,15,-3
1514894863051891,-4,5,18,-10,-4,-2,-12,-1
1514894863053392,13,4,-17,15,3,1,-3,9
1514894863053392,19,12,38,-16,-5,-3,-2,-46
1514894863074407,-12,-16,31,4,0,-1,0,10
1514894863074407,-3,3,-33,-16,-4,0,1,-9
1514894863075908,7,-19,-27,17,5,3,7,4
1514894863075908,-23,32,21,-7,-1,-1,6,30
1514894863087927,-1,-7,-13,-3,-1,0,-1,-8
1514894863087927,9,13,53,9,6,3,3,-17
1514894863096923,-10,-22,-44,-13,-4,-3,-2,10
1514894863096923,3,26,49,17,4,-2,-7,-7
1514894863111934,-3,6,-9,9,2,1,8,4
1514894863111934,-7,-7,20,-28,-5,-3,-4,43
1514894863113435,-2,10,-60,0,2,0,-4,-51
1514894863113435,-2,-17,-1,1,-1,1,0,10
1514894863134453,10,27,50,15,2,0,-1,5
1514894863134453,-26,-61,-50,-17,-9,-7,-6,-19
1514894863135952,-1,-1,-13,-13,-5,-3,22,75
1514894863135952,10,-9,56,6,3,4,-17,-74
1514894863156976,1,4,6,-10,-4,-1,-9,10
1514894863156976,-16,34,55,8,2,0,-4,-25
1514894863158473,-4,-17,-37,-10,-4,-1,-2,-13
1514894863158473,-1,-9,20,16,0,-2,4,20
1514894863171986,9,-9,1,1,3,2,0,19
1514894863171986,4,-9,6,-9,-5,-2,1,-32
1514894863173487,5,13,27,-3,-3,-2,-3,7
1514894863173487,2,4,-36,7,1,1,10,34
1514894863194502,-1,-8,-35,-12,-4,-2,-8,-29
1514894863194502,9,17,15,3,1,1,16,46
1514894863195994,5,0,-34,4,-3,-5,-18,-49
1514894863195994,26,-2,-36,-18,-7,-2,4,21
1514894863208002,-45,-26,2,3,0,1,10,19
1514894863208002,-2,7,17,12,-2,-3,-17,-42
1514894863217008,17,-36,-13,-14,-5,-4,6,11
1514894863217008,16,25,96,-4,3,-1,-12,-13
1514894863232019,-3,-11,-68,0,1,2,2,30
1514894863232019,-1,0,-10,12,1,-5,4,21
1514894863233520,-17,-1,53,-3,0,1,-9,-29
1514894863233520,-6,-5,-22,-8,-2,-1,7,17
1514894863254535,-20,-31,-19,2,-2,-2,-8,-10
1514894863254535,14,11,-31,-1,0,3,2,3
1514894863256035,6,11,39,8,-1,1,6,21
1514894863256035,-18,0,2,8,3,1,-3,-19
1514894863277077,18,6,-38,8,0,-1,-7,0
1514894863277077,-8,-44,-5,-6,0,-1,3,43
1514894863278552,-2,17,-9,1,-3,-5,-8,-54
1514894863278552,-20,-22,-11,-8,-4,1,3,11
1514894863292069,12,7,8,1,0,-3,1,-22
1514894863292069,5,21,-6,-6,-3,-3,-26,-22
1514894863293562,8,0,14,14,5,1,3,24
1514894863293562,3,-1,-36,-5,-5,-3,3,20
1514894863314577,-1,15,34,-1,3,2,-7,-47
1514894863314577,3,-14,-36,-13,-7,-5,24,22
1514894863316079,0,0,18,15,5,2,-5,6
1514894863316079,2,-36,-42,-8,-4,-4,2,15
1514894863337593,7,-2,26,-10,-5,-2,-11,-48
1514894863337593,13,17,11,6,1,3,4,-15
1514894863340095,-14,-17,-48,-10,-7,-5,4,17
1514894863340095,22,28,39,19,9,5,-2,39
1514894863351104,-1,-30,-64,-7,-5,-4,2,-23
1514894863351104,-4,10,11,-2,-1,-4,-16,-8
1514894863359609,-9,-40,-35,-5,-5,-6,-4,-15
1514894863359609,-5,8,-29,5,4,3,12,15
1514894863374619,-29,7,34,-13,-4,-3,-13,10
1514894863374619,7,11,13,19,4,2,-6,-31
1514894863376121,8,14,41,-15,-3,-1,12,79
1514894863376121,3,-15,-43,-3,-2,-2,-16,-60
1514894863396635,-18,-45,-20,-13,-7,-6,-1,14
1514894863396635,8,5,24,13,6,2,-9,-15
1514894863398636,1,-9,-15,-10,-1,1,11,25
1514894863398636,-12,-2,24,6,1,1,-2,23
1514894863419154,36,23,32,5,0,-1,-14,-19
1514894863419154,-5,-1,-1,-6,3,0,4,18
1514894863421153,-1,5,18,-5,-3,-5,-14,-80
1514894863421153,1,-24,-26,6,1,1,2,14
1514894863435163,-2,7,42,7,1,2,2,-7
1514894863435163,9,4,-25,-3,-2,1,23,54
1514894863436663,-1,27,19,-3,-1,-2,-17,-25
1514894863436663,26,17,10,-13,-7,-4,3,-7
1514894863456677,-15,-5,-14,1,0,-2,2,2
1514894863456677,-3,5,56,7,2,2,6,-11
1514894863458678,-8,-48,-103,-6,0,1,3,15
1514894863458678,-5,23,5,-12,-7,-4,-5,-22
1514894863471188,9,-2,-4,-11,-4,-1,15,70
1514894863471188,1,8,9,-4,-2,-3,-22,-76
1514894863485698,-16,-11,4,1,-2,-2,0,6
1514894863485698,-7,1,10,3,-1,-4,-8,-6
1514894863494216,17,21,16,14,8,6,7,9
1514894863494216,-30,-54,-52,-18,-13,-8,-1,-9
1514894863495720,21,37,44,12,4,5,-1,19
1514894863495720,-10,-19,-17,-4,2,-2,-7,-66
1514894863516720,19,-1,-2,17,-2,-2,4,28
1514894863516720,12,4,-11,-34,-4,-2,3,11
1514894863518722,-11,-15,-20,-8,-2,-2,2,-27
1514894863518722,-8,-8,50,6,1,0,2,14
1514894863531242,-1,9,-1,2,-2,-3,-5,15
1514894863531242,-1,18,12,5,-1,-1,-8,-37
1514894863538235,5,-8,9,-2,-5,-4,1,16
1514894863538235,1,27,0,5,2,1,10,56
1514894863554246,-13,-6,15,-8,-2,-5,0,-55
1514894863554246,-9,5,22,29,4,0,3,24
1514894863556247,-1,29,4,-33,-5,0,-7,-50
1514894863556247,11,-15,-12,9,-1,2,4,8
1514894863576762,6,17,-11,-9,-2,-1,-2,12
1514894863576762,-19,-8,-7,-3,-5,-1,1,6
1514894863578264,13,16,13,16,2,-1,-5,6
1514894863578264,-5,4,14,-3,-2,-3,-7,-14
1514894863591272,-1,5,-11,-12,-5,-3,0,4
1514894863591272,3,-4,-25,-5,-2,-1,-1,-7
1514894863598278,-4,-11,-5,5,-1,-5,-3,12
1514894863598278,-17,20,58,-21,-12,-7,0,-3
1514894863614301,4,21,2,13,2,2,0,13
1514894863614301,-1,-13,-7,-11,0,-4,-4,-15
1514894863615790,-2,-29,-15,8,0,-1,5,20
1514894863615790,9,10,-12,-4,1,-1,-3,4
1514894863637816,-11,-27,-22,-4,-3,-1,-4,-17
1514894863637816,11,28,32,12,4,4,5,11
1514894863639317,-11,-11,-49,-15,-7,-4,-3,8
1514894863639317,-2,5,7,9,3,1,10,28
1514894863651325,-1,-14,-31,0,0,1,-5,-24
1514894863651325,-1,20,1,-6,-3,-2,-3,-21
1514894863658320,6,9,24,6,-1,1,7,22
1514894863658320,-4,-16,-14,6,1,1,-6,-10
1514894863673345,-2,1,14,-7,-1,-1,2,0
1514894863673345,-1,-10,-17,2,-1,-1,-7,3
1514894863681837,0,8,16,0,2,-1,-2,-17
1514894863681837,0,-13,-20,-1,-1,-1,-4,-5
1514894863696857,-3,-8,26,2,2,-1,6,19
1514894863696857,-2,-3,-11,-4,-2,-2,-5,-14
1514894863698357,1,1,12,6,0,1,-2,-5
1514894863698357,-3,-5,-29,-10,-1,-1,-2,-1
1514894863711357,-4,-1,4,3,-1,-1,-5,-17
1514894863711357,1,-6,-9,-3,-1,-3,4,22
1514894863718363,-1,4,6,-2,-1,-1,-6,-11
1514894863718363,-4,-10,-9,3,0,-2,1,-8
1514894863734874,0,3,9,0,-1,-1,-1,14
1514894863734874,-2,-5,-5,-5,-3,-1,-1,-5
1514894863736375,-1,4,5,3,0,0,1,7
1514894863736375,-3,-7,-3,-2,-2,-1,-3,-14
1514894863755888,0,1,7,-2,-1,-1,1,5
1514894863755888,0,2,-15,-1,-3,-1,0,3
1514894863764396,-1,-1,5,-1,0,-1,-4,-9
1514894863764396,-1,-6,-7,0,-1,-1,-1,4
1514894863770400,-1,4,5,0,-2,-2,-1,-3
1514894863770400,-2,-2,-8,1,0,-1,1,4
1514894863779406,2,0,8,-3,-4,0,-1,6
1514894863779406,-4,-6,-1,-1,-2,-2,-3,-9
1514894863794416,-2,0,-4,0,1,1,-1,4
1514894863794416,-3,-1,-7,-2,-1,-1,-2,-3
1514894863795917,0,-2,1,0,0,0,-1,1
1514894863795917,-2,-5,-2,-1,-2,-1,-2,-2
1514894863816932,-1,2,5,-1,-1,-1,-1,-5
1514894863816932,0,-2,-6,-2,-1,1,1,3
1514894863818437,-3,1,5,0,-1,0,-2,-3
1514894863818437,-2,-3,-9,-1,-2,1,0,-2
1514894863830942,-1,1,0,1,0,-1,0,2
1514894863830942,1,-3,-5,-2,-2,-1,0,-1
1514894863846963,-1,-2,4,1,-1,1,-2,2
1514894863846963,-2,-4,-1,-1,-3,-4,-2,-5
1514894863861964,-3,-2,1,-5,-1,-2,-2,-1
1514894863861964,0,1,-8,-1,-1,-3,1,-1
1514894863863464,0,-3,8,2,-2,-1,0,0
1514894863863464,0,-3,-13,-3,-2,-1,1,-1
1514894863876994,1,-1,-3,-3,0,1,-1,-3
1514894863876994,-2,-1,0,-2,-2,-3,-2,0
1514894863880496,0,-1,-5,-5,-1,-1,-2,-1
1514894863880496,-1,-2,2,0,-2,0,0,-3
1514894863890504,-1,0,3,1,0,0,-1,0
1514894863890504,0,-1,-3,-2,-1,0,0,-1
1514894863900511,-2,-3,-4,-1,0,-2,-1,0
1514894863900511,-2,-3,3,0,-2,-2,-2,-1
1514894863914534,0,-1,-5,0,-1,-2,-2,-1
1514894863914534,-1,0,-1,-2,-1,-1,-3,0
1514894863916034,-1,-2,-4,-2,-1,-2,0,-2
1514894863916034,-1,-1,-1,0,0,-3,-1,-3
1514894863937038,1,1,0,0,-3,-1,0,0
1514894863937038,-1,0,0,0,0,-2,-3,-2
1514894863938538,-3,-2,-5,-1,-3,-4,-2,-1
1514894863938538,-2,-1,0,-1,-1,1,0,0
1514894863950546,-2,0,2,-2,-1,-1,-1,0
1514894863950546,0,0,1,-2,-1,0,0,-2
1514894863959553,1,0,-4,-1,-1,0,1,0
1514894863959553,-1,-4,0,0,0,-1,-2,0
1514894863974563,0,1,-1,-2,-2,-2,-3,-2
1514894863974563,0,-1,-3,-2,-2,-2,0,0
1514894863976069,1,0,-4,-2,0,-3,-1,-3
1514894863976069,0,-3,-1,0,-3,-1,0,-1
1514894863997079,-1,1,-2,-1,-1,0,-2,-1
1514894863997079,-2,1,-2,-2,-1,-1,0,-3
1514894863998580,1,-1,0,-1,0,0,1,-1
1514894863998580,-2,-2,0,-2,0,0,0,0
1514894864010592,-1,-1,-2,-2,-1,0,-1,1
1514894864010592,-2,0,0,-1,-1,-1,0,0
1514894864019595,-3,-1,-1,-1,-2,-1,-1,-2
1514894864019595,-1,-3,-2,1,0,-1,-3,0
1514894864035107,-2,0,0,-2,-1,-1,1,-1
1514894864035107,-2,0,-1,0,-1,0,1,-1
1514894864036607,-3,-2,-2,-1,0,-1,0,0
1514894864036607,-1,-2,-1,-2,-2,-1,-1,-1
1514894864056633,-2,0,0,-1,0,-1,-1,-2
1514894864056633,0,1,-1,-1,-1,0,-1,-1
1514894864058635,-1,-3,-1,-2,-1,-1,-1,-2
1514894864058635,-1,-2,-1,0,0,-2,-1,0
1514894864070641,0,-2,0,1,-1,-2,0,-1
1514894864070641,0,0,-2,0,-1,-3,0,-1
1514894864079648,0,-2,-2,-1,0,-1,-1,-1
1514894864079648,-1,-3,-1,-1,-1,0,-2,-1
1514894864094148,0,-2,-1,-1,-2,-1,-2,0
1514894864094148,-1,1,-1,0,-2,0,-2,1
1514894864096149,-1,-1,-1,-2,-1,-2,0,0
1514894864096149,-1,-2,0,-1,0,-1,1,-2
1514894864124182,-1,0,-2,0,-1,-1,-1,-1
1514894864124182,-1,-1,0,-1,-1,-1,1,1
1514894864127186,1,-2,-2,-1,-2,0,-1,-2
1514894864127186,0,-1,-1,0,0,1,-1,-3
1514894864130674,-1,-1,-2,-2,-2,-2,-1,-1
1514894864130674,0,-1,-1,-1,0,-1,-2,0
1514894864139680,-1,-2,-1,-2,-1,0,-1,-1
1514894864139680,-4,-3,1,-1,-1,-2,-3,-1
1514894864154200,-1,-1,-1,-1,-2,0,0,-3
1514894864154200,-2,-1,-1,-1,-1,-2,-1,-2
1514894864156692,0,-2,-2,-1,-3,-2,-2,-2
1514894864156692,0,-1,-2,-2,-1,0,-1,-1
1514894864185213,0,1,-3,-1,1,-2,0,0
1514894864185213,-1,1,-2,0,-1,-2,-1,-1
1514894864187715,-1,-3,0,2,0,-1,0,-1
1514894864187715,-1,-3,-1,0,-1,-2,-2,-3
1514894864199222,-2,1,-2,0,-2,-1,-1,-2
1514894864199222,0,-1,-2,-3,-1,-1,-1,-2
1514894864200724,0,-1,0,-2,0,0,0,1
1514894864200724,-1,-1,-2,-2,-2,0,-3,0
1514894864214243,-1,-1,-1,0,-1,0,-1,0
1514894864214243,-1,0,-1,0,0,-1,-1,0
1514894864215742,-3,-3,1,0,-1,0,-2,0
1514894864215742,-1,-2,-2,-2,0,-2,0,1
1514894864236758,-1,-1,-1,0,-1,-1,-2,-1
1514894864236758,-2,-1,0,0,-1,0,-2,-2
1514894864238249,-2,-3,-1,-1,-2,-1,1,-2
1514894864238249,-2,-2,-2,-1,1,0,-1,0
1514894864266770,-2,-1,-3,-1,-2,-3,-1,-3
1514894864266770,1,-1,-1,-1,-3,-1,1,-2
1514894864268773,-2,-2,-2,-1,-1,-1,-1,-2
1514894864268773,-1,-3,0,-1,-2,1,0,1
1514894864274776,-2,-1,0,-2,0,-1,0,0
1514894864274776,-1,-1,-1,-1,-1,-1,-2,-2
1514894864276777,-1,0,-2,0,-2,-1,-2,-3
1514894864276777,-1,-2,-1,-1,-1,-2,0,-1
1514894864296791,1,0,-1,1,1,1,-2,-1
1514894864296791,-2,0,-2,-1,-2,-2,0,-2
1514894864298792,-2,-3,-1,-2,-1,1,-1,-2
1514894864298792,-1,-3,-2,-1,-1,-2,-1,-1
1514894864319308,-1,1,0,-1,-1,0,-1,-1
1514894864319308,-2,0,-1,-1,-1,-3,-1,-2
1514894864320829,1,-1,-2,-2,-1,-1,1,-1
1514894864320829,0,-1,-2,-1,-1,0,-1,-1
1514894864341823,-1,0,-1,-2,-3,0,-2,-1
1514894864341823,-1,0,-1,-2,0,-1,-1,0
1514894864343323,-1,-2,-2,-1,0,0,-2,0
1514894864343323,-2,-3,-1,-1,-2,1,-2,0
1514894864356846,-1,0,0,-2,-2,-2,-1,-1
1514894864356846,-1,0,-1,-2,-2,-1,-1,1
1514894864358335,1,-3,-1,0,-2,-2,-2,0
1514894864358335,0,-1,-1,-1,1,-1,-1,-1
1514894864379350,-1,-2,0,-1,-1,0,-1,-1
1514894864379350,0,-1,-2,-2,-1,-1,-1,-1
1514894864380850,0,-3,0,-1,0,-1,-1,-1
1514894864380850,-1,-2,0,0,-1,-2,-2,-2
1514894864401366,0,0,-2,-2,-1,-1,-3,-1
1514894864401366,0,0,0,1,-1,-1,0,0
1514894864409370,-2,-1,-1,0,-1,-2,-1,0
1514894864409370,-1,-3,-1,-1,1,-1,0,-2
1514894864416876,-1,1,-1,-2,-1,-2,1,-1
1514894864416876,0,0,-2,-3,-1,0,0,-3
1514894864418377,-1,-1,-3,0,-1,-2,-1,-1
1514894864418377,-2,-3,1,-2,-1,-2,-1,-2
1514894864439392,-3,0,0,0,-1,-1,0,-1
1514894864439392,-1,1,1,0,1,0,0,2
1514894864440893,-1,-3,-5,-3,-3,-2,-1,1
1514894864440893,0,-4,-1,-1,-1,-1,-1,-2
1514894864453902,-1,1,-1,-1,-2,-1,1,-2
1514894864453902,-2,-2,0,0,0,-1,-1,-1
1514894864460406,-1,-1,-1,-3,0,-1,-1,-2
1514894864460406,-3,-2,-1,0,-1,1,-3,0
1514894864477919,-1,0,1,0,0,-1,0,-1
1514894864477919,-2,-2,-7,-1,-2,-3,-1,0
1514894864479420,-3,-2,-1,-2,0,1,-3,-1
1514894864479420,-1,-2,1,-2,-1,-3,-1,-1
1514894864499434,0,-2,-3,-1,1,0,-1,-1
1514894864499434,0,1,-1,-2,-1,-1,0,-1
1514894864501936,-1,0,2,1,1,-1,1,-1
1514894864501936,-2,0,-2,0,-3,-1,-2,-1
1514894864513944,-1,-3,-2,0,-1,-2,-1,0
1514894864513944,0,0,-2,-2,-2,0,-2,-1
1514894864520449,-2,-1,-1,0,-2,-1,-1,-2
1514894864520449,1,0,-1,-1,-2,1,-1,0
1514894864544466,-2,0,-1,0,-2,-1,-2,-2
1514894864544466,0,1,-4,-2,-1,1,-3,-3
1514894864545967,0,0,1,-2,0,-2,-1,-1
1514894864545967,-3,-1,1,-1,-1,-1,-1,-3
1514894864559476,0,-2,-2,-1,-3,-1,-1,-1
1514894864559476,-1,0,0,-2,-2,0,-2,-1
1514894864560978,-1,-2,-1,-1,-1,0,1,0
1514894864560978,0,-3,-1,-2,0,-1,-1,-1
1514894864573487,-1,1,-1,-1,-1,1,0,-1
1514894864573487,-2,0,1,-1,0,-1,0,0
1514894864580992,0,-1,0,0,-2,0,-1,0
1514894864580992,-1,-2,-1,0,-2,-1,-1,-1
1514894864597003,0,0,-1,-2,-1,-2,-1,0
1514894864597003,2,2,-2,-1,0,-2,-1,-1
1514894864598504,-1,-3,-2,0,0,-1,0,-2
1514894864598504,-1,-4,-2,1,1,0,-1,0
1514894864620029,-1,-1,-1,-1,-1,-1,-1,0
1514894864620029,0,0,0,-3,-1,-5,-1,-2
1514894864623522,-2,-1,-3,0,-2,-1,-2,0
1514894864623522,-2,0,0,-2,-1,-1,0,-3
1514894864633543,-3,1,-1,0,-1,-1,-1,0
1514894864633543,-1,-2,-2,-4,-3,0,-1,-1
1514894864640543,-2,-1,-1,-1,0,-2,-3,-1
1514894864640543,-1,-3,-2,-1,-1,-1,0,0
1514894864657055,-1,-2,-2,-2,0,-2,0,0
1514894864657055,-1,-1,1,0,0,-1,-1,-2
1514894864658556,1,-3,-1,0,-4,0,-1,-1
1514894864658556,-3,-3,-1,0,-1,1,-1,-1
1514894864679580,-1,-1,-1,-1,-2,-2,-1,-1
1514894864679580,-2,2,-1,-1,0,-1,-1,1
1514894864682565,0,-1,0,-3,-1,-2,-1,-1
1514894864682565,0,0,-1,-1,-1,-2,0,1
1514894864693573,-3,0,0,-2,0,2,-2,-1
1514894864693573,-2,-1,-3,0,-1,-1,-1,-1
1514894864700577,-3,-2,-1,0,0,-2,-1,-1
1514894864700577,1,-1,0,-3,-1,-2,1,-1
1514894864717100,1,0,-2,1,0,-1,-1,-2
1514894864717100,0,0,-2,0,0,-2,1,-1
1514894864720591,1,0,-1,-2,-1,-1,0,-2
1514894864720591,-2,-3,-1,-1,-1,0,-2,0
1514894864739237,0,-1,0,1,-1,0,0,-1
1514894864739237,-1,1,-2,-1,-1,-1,0,-1
1514894864740747,-1,-1,-1,-1,-2,-1,-1,-1
1514894864740747,-2,-2,-1,0,-1,-2,-2,-1
1514894864753246,1,-2,-3,-2,-1,-2,0,-2
1514894864753246,-2,-2,0,-1,-1,-1,-2,0
1514894864761752,-2,-2,0,-1,0,-1,-1,0
1514894864761752,-1,-2,-2,-1,0,-1,-3,1
1514894864776763,-1,-1,-1,-2,-1,-2,-2,-1
1514894864776763,-2,-1,-1,0,-3,-1,-1,-1
1514894864779265,-2,-1,-2,-1,-1,-2,-1,-1
1514894864779265,-1,0,0,0,-3,0,-1,-3
1514894864798296,-1,-1,-1,-3,-2,-2,0,0
1514894864798296,0,-2,-2,-2,-2,-2,-1,-3
1514894864807285,-1,-1,-2,-1,0,-1,-2,-1
1514894864807285,-1,0,-1,-1,0,0,0,-1
1514894864813289,0,1,0,-2,-1,-2,-2,-1
1514894864813289,-2,0,-2,0,-1,-1,0,0
1514894864821795,-2,-1,-1,-1,0,0,-1,-2
1514894864821795,-2,-1,-1,-2,0,-1,-2,0
1514894864836805,-1,1,-2,-1,0,0,-1,-1
1514894864836805,0,-1,-1,-2,-1,0,-2,-1
1514894864838307,-1,-4,0,1,-2,-2,0,-3
1514894864838307,-1,-3,-1,-2,-2,-2,0,0
1514894864859321,-2,-2,-1,-1,-2,-1,-1,-1
1514894864859321,-1,0,-1,-2,0,-2,-1,-2
1514894864861823,-1,-1,-2,-2,-2,-1,0,0
1514894864861823,-2,-2,0,-2,-3,-1,-1,-2
1514894864872831,-1,1,-2,0,-2,-2,-1,-3
1514894864872831,0,-3,-1,-1,-1,-1,-2,-2
1514894864881838,-2,0,0,-2,-2,-1,0,-2
1514894864881838,-1,-2,-1,1,-1,0,-1,1
1514894864896848,-2,-1,-3,-1,1,-2,-1,0
1514894864896848,-1,-2,-2,-1,-2,-2,-1,0
1514894864899349,0,-2,-1,-1,0,1,-1,-1
1514894864899349,-1,-3,0,0,0,0,-1,-1
1514894864920376,-1,0,-1,-1,-1,-1,0,1
1514894864920376,-1,0,0,-2,-1,-2,0,-2
1514894864923877,-3,-2,-2,-2,-2,-1,-1,1
1514894864923877,-1,1,-2,0,1,-1,0,-1
1514894864932883,-2,-2,-1,0,-1,-1,-2,0
1514894864932883,-2,-1,0,-1,-2,-1,-1,-1
1514894864941881,1,-1,-2,-1,0,1,4,1
1514894864941881,0,-1,0,0,-2,-1,-1,-2
1514894864957400,-2,-1,-1,-1,-2,-1,0,0
1514894864957400,-2,0,-1,-1,-1,2,-2,-2
1514894864958892,-1,-2,-1,0,-2,-2,-2,-2
1514894864958892,-2,-1,-3,0,-1,-1,-1,0
1514894864979907,-1,2,-1,-3,-1,-1,-1,-3
1514894864979907,0,0,-3,-1,-2,-1,0,1
1514894864982409,-1,-3,-1,-1,-1,-1,-2,-2
1514894864982409,-1,-3,-2,-1,-1,0,-2,-1
1514894864992918,0,-2,1,-1,-1,-1,-2,-2
1514894864992918,0,0,-3,-1,-2,-1,-1,-1
1514894865001923,-2,-2,-1,0,-1,-1,-2,-2
1514894865001923,0,-1,-2,1,-1,-2,1,-1
1514894865016934,-2,-1,-2,0,-2,-3,0,0
1514894865016934,-1,-1,-1,-1,-1,-1,0,0
1514894865018437,-1,-1,-2,-1,-2,-2,-2,1
1514894865018437,-2,0,-1,0,0,-1,-1,-1
1514894865040449,0,-1,-1,-2,-1,-2,-2,1
1514894865040449,-1,-3,-1,-1,1,-2,-1,-1
1514894865043952,-1,-3,-2,-1,0,-1,-1,-1
1514894865043952,-1,-2,-1,-1,-1,1,0,-1
1514894865052958,1,1,-1,-2,0,-1,-1,0
1514894865052958,2,-1,-3,-2,-1,-2,-1,-1
1514894865061964,0,-1,0,-2,0,-1,-1,0
1514894865061964,-3,0,0,0,-1,-1,1,-1
1514894865076975,-2,-1,0,2,-1,0,1,-2
1514894865076975,-1,-1,-1,-1,1,1,-1,-2
1514894865078477,3,0,-1,0,-1,0,1,1
1514894865078477,0,-1,0,-2,0,-1,-1,0
1514894865099999,-2,-1,-1,-2,-1,-2,-1,-1
1514894865099999,-2,0,-1,-1,-2,0,0,0
1514894865101497,-3,-1,0,-2,-1,-1,-2,-2
1514894865101497,0,0,-3,-1,-1,-1,-1,0
1514894865113003,-1,1,-2,-1,-2,0,-1,1
1514894865113003,2,-1,-1,-2,-2,-2,-1,1
1514894865122007,-5,-3,-3,-1,-2,-2,0,-4
1514894865122007,0,0,-1,-1,0,-1,-1,-2
1514894865137025,0,-1,-1,-2,-1,1,-2,-1
1514894865137025,-2,-1,-2,0,0,-1,0,-1
1514894865138519,-1,-2,-1,-2,1,0,-1,1
1514894865138519,0,-1,-1,0,-3,-2,-2,-1
1514894865159533,-2,-2,-2,0,-1,-2,0,-1
1514894865159533,-1,-2,0,0,0,-1,0,0
1514894865161047,1,-1,0,0,-1,-2,0,-2
1514894865161047,-1,-1,-3,-1,-1,1,-2,-1
1514894865182068,0,0,-1,-2,0,-1,-1,-1
1514894865182068,-1,-2,-3,-3,-1,-1,-1,-1
1514894865185552,-2,0,-1,-2,-3,0,-2,0
1514894865185552,-1,-1,-1,-3,-3,1,-1,-1
1514894865196569,-1,0,-2,0,0,1,0,-1
1514894865196569,-2,-2,0,-2,-1,-3,-1,-1
1514894865198572,-1,-1,-3,-1,-3,-2,-1,-2
1514894865198572,0,-1,-1,0,-1,-1,0,-2
1514894865219076,1,-1,-2,-2,-2,-1,-3,-2
1514894865219076,-2,0,-1,-2,0,0,-1,0
1514894865221079,0,-2,-3,0,1,-1,-1,0
1514894865221079,-2,-1,-1,-1,1,-1,0,-2
1514894865241092,-2,1,-1,-1,-2,-1,1,-2
1514894865241092,-1,-1,-1,0,-3,0,-1,-1
1514894865249607,0,-3,-1,-2,0,0,0,-2
1514894865249607,-1,-2,-1,-1,-1,-3,0,-2
1514894865256612,-3,-1,-2,0,-3,0,0,-1
1514894865256612,0,0,-2,-1,0,-3,-1,-1
1514894865258613,-2,-1,-1,-2,-3,-1,0,-1
1514894865258613,-1,-1,-2,0,0,-2,-1,-1
1514894865279127,0,0,0,-2,0,-2,0,-1
1514894865279127,-1,0,0,0,-1,-2,-1,-1
1514894865282129,-1,-2,1,0,-2,0,-2,-2
1514894865282129,-1,-1,-1,-1,-1,-1,0,-1
1514894865302135,-1,-1,-3,-1,-1,-1,-1,-3
1514894865302135,-2,-3,-2,-2,-2,0,-1,-2
1514894865306137,0,-2,-3,-1,-2,-1,-1,-1
1514894865306137,0,0,1,-1,-2,-1,-2,0
1514894865316147,0,-1,-2,0,-2,-2,-3,0
1514894865316147,-1,-1,-1,0,0,-2,-1,-1
1514894865323166,-1,-2,0,-2,1,1,-1,-1
1514894865323166,0,-2,-1,-1,-1,1,-1,-2
1514894865339160,-1,0,0,0,0,-1,1,-2
1514894865339160,0,-1,-2,0,-1,0,0,-3
1514894865341162,-1,-3,-1,0,-1,-2,-1,-2
1514894865341162,-2,-1,0,-2,-1,-1,0,1
1514894865362201,0,-1,-1,-2,1,-1,-2,-1
1514894865362201,-2,-2,-3,0,0,-1,-2,-1
1514894865364178,-1,-1,-1,-2,-1,0,-1,-1
1514894865364178,-1,0,-1,-1,-1,-1,-1,-1
1514894865376190,0,1,0,-1,-1,-2,-2,0
1514894865376190,0,-3,-2,-2,-2,0,1,0
1514894865382691,0,-2,0,-1,0,-1,-3,-1
1514894865382691,-1,0,-1,-1,-2,-2,-1,-1
1514894865400203,-2,-2,-1,-2,-3,-1,-2,-2
1514894865400203,0,0,-1,-1,-1,0,-1,-2
1514894865403205,-1,0,-2,0,-3,0,0,-2
1514894865403205,-1,-1,-1,-1,-1,-2,-1,0
1514894865421763,-1,-1,0,-2,-1,-1,0,0
1514894865421763,-2,-2,-1,-2,-1,0,-2,0
1514894865423253,-1,-3,-1,-2,-1,-2,0,-1
1514894865423253,0,1,-2,1,-1,0,-1,-1
1514894865436271,-1,-1,-1,0,-1,-2,-2,-2
1514894865436271,-1,0,-1,0,-2,-1,-2,-1
1514894865442777,1,-1,0,-3,-1,-3,-1,0
1514894865442777,-1,-2,0,-1,-2,1,-2,-2
1514894865459288,-3,-1,0,-2,-2,0,-1,-1
1514894865459288,-2,-2,0,-2,-1,-2,-1,-1
1514894865460789,-1,-3,-2,0,0,-2,-2,-1
1514894865460789,-2,-1,-1,-4,-1,-1,-1,-1
1514894865481797,0,0,0,-1,-1,-1,0,0
1514894865481797,-1,0,-1,-1,-2,-2,1,0
1514894865487798,-3,-1,-1,-2,-2,0,-1,0
1514894865487798,-1,-2,-1,-2,-2,-1,-1,-1
1514894865496304,-1,1,-3,-2,-1,0,-2,-1
1514894865496304,0,-1,-2,0,-1,-2,0,1
1514894865510329,-1,-2,0,-1,-1,-1,0,-2
1514894865510329,-1,-2,-1,0,-1,0,0,-2
1514894865520321,0,1,-2,0,-2,-2,-1,0
1514894865520321,-1,-2,-1,-2,-1,0,-2,0
1514894865523834,0,-2,-2,0,-2,-2,-1,1
1514894865523834,-2,0,0,-1,-1,-1,-2,-2
1514894865541855,0,0,-1,-1,1,-1,1,-2
1514894865541855,-1,-1,0,-2,0,0,-1,-3
1514894865543349,-1,-2,0,-2,-1,-1,-1,-2
1514894865543349,0,0,0,-1,0,-2,-2,-1
1514894865556346,-1,-1,-1,-1,1,-1,-2,-1
1514894865556346,0,-1,-2,0,-2,-1,-2,-2
1514894865562877,0,-3,-1,1,-1,-1,0,0
1514894865562877,-1,-1,-2,1,-2,-2,-1,-1
1514894865579863,-1,-2,-2,-2,0,-1,-1,0
1514894865579863,-1,-2,-1,-3,-2,0,-2,-2
1514894865582365,-1,-2,-1,-1,-1,0,0,1
1514894865582365,-2,0,-2,-2,1,0,1,-2
1514894865602381,0,0,-1,-1,-2,0,1,-1
1514894865602381,-1,-2,0,-1,-1,-2,1,0
1514894865605882,-1,-1,-2,0,1,1,3,-1
1514894865605882,0,0,0,-2,-3,-1,-1,0
1514894865616392,-1,-2,-1,-1,0,-1,-2,-2
1514894865616392,0,-2,-1,-2,-2,-1,-5,0
1514894865622906,-1,-2,-2,-1,-1,-3,-4,-3
1514894865622906,0,-1,-1,0,-2,0,0,1
1514894865639414,0,2,0,0,-1,-2,1,-2
1514894865639414,-1,-1,-1,0,-1,-1,2,-2
1514894865640906,-1,-1,-1,-2,-2,-2,-5,-1
1514894865640906,-2,-2,-2,-1,-1,0,0,-2
1514894865661944,0,0,-1,0,-2,-2,-2,0
1514894865661944,-1,-1,0,-1,1,-1,-6,0
1514894865663423,-2,-3,-2,-2,-2,-1,0,-2
1514894865663423,-1,1,-1,-1,1,-2,0,-1
1514894865675431,-4,0,-1,-2,0,-1,1,-1
1514894865675431,-1,-1,-2,-1,-1,-1,0,-1
1514894865684437,0,-1,0,-2,-2,0,-2,1
1514894865684437,0,1,-1,1,1,-1,0,-1
1514894865699949,0,2,-2,-2,-3,-3,-2,0
1514894865699949,-1,-2,-2,-1,-1,1,1,-1
1514894865703462,-1,-3,-1,-1,0,1,1,-2
1514894865703462,-2,-2,-1,-2,1,-1,-4,-1
1514894865721977,-1,0,1,-2,-1,-1,-2,-1
1514894865721977,-1,-3,-2,-1,-3,-2,0,-1
1514894865723475,-1,0,-1,0,0,-1,0,0
1514894865723475,0,2,0,0,-1,0,0,-1
1514894865735484,-1,-1,-1,0,2,0,0,1
1514894865735484,-2,-1,2,0,1,-2,1,-1
1514894865744490,-1,-1,-1,-1,-1,0,-4,-1
1514894865744490,0,-2,0,-2,-2,0,-1,-1
1514894865759500,-2,-1,-2,-1,-2,-1,-1,-1
1514894865759500,-2,-2,-1,-3,0,-1,-2,-1
1514894865761001,-2,-2,-2,-1,-1,-1,-2,-1
1514894865761001,-1,-1,-2,-2,0,-2,0,0
1514894865781506,-1,-1,-1,-1,-2,-1,0,-1
1514894865781506,0,-2,-2,-1,-2,-1,0,-2
1514894865788021,-2,-1,-1,0,0,-2,0,-2
1514894865788021,-2,0,-1,-2,-2,-1,0,-2
1514894865804532,-1,0,-2,-1,0,0,-2,-3
1514894865804532,-1,-2,-1,-1,-1,-1,-2,0
1514894865806033,-1,-3,-2,-1,0,-1,0,-2
1514894865806033,-1,-1,-1,-1,-2,-3,-3,-1
1514894865820034,-1,1,-3,1,-2,-1,-1,-1
1514894865820034,0,-2,-1,-1,-2,0,-2,-1
1514894865823545,-2,-3,-1,-1,-1,0,-1,-1
1514894865823545,-2,-1,-1,-2,-1,-1,-3,0
1514894865841063,-1,0,0,-1,-3,-1,-3,-1
1514894865841063,1,-2,-2,-2,-1,-1,-2,-1
1514894865856058,0,-2,-1,0,-1,-1,-1,0
1514894865856058,-1,0,0,1,-1,-1,-1,-2
1514894865857059,-1,0,-3,-1,0,-1,1,-1
1514894865857059,-2,0,-2,-2,0,1,0,0
1514894865864577,-2,-3,-1,-2,-1,-1,-1,0
1514894865864577,0,-2,-1,-2,-2,-2,-1,0
1514894865879575,-1,-1,-1,-2,-1,0,-2,-2
1514894865879575,0,-1,-2,1,-1,-1,0,-3
1514894865882587,-2,-3,0,-2,0,-2,-1,-2
1514894865882587,0,0,-1,-1,-2,-1,0,0
1514894865902592,0,0,1,-3,-2,-1,-2,0
1514894865902592,-2,-1,-1,1,-1,-1,-2,0
1514894865906094,-2,-1,0,-1,-2,-1,-1,0
1514894865906094,0,-2,-1,0,-1,-1,-3,-2
1514894865915622,-1,-1,0,-2,-2,-2,0,-1
1514894865915622,-1,-1,-1,-2,-2,-1,0,-1
1514894865932136,-1,-2,-1,-1,-1,-1,-1,-2
1514894865932136,-2,0,-2,0,0,-1,0,-2
1514894865939141,0,-1,-1,0,-1,-2,-1,-1
1514894865939141,0,-2,-2,-2,-2,0,-1,0
1514894865941142,1,-2,-1,-1,0,-1,-2,-2
1514894865941142,-2,-1,0,-2,-1,0,0,0
1514894865961667,0,1,-3,-2,-2,-2,-1,-1
1514894865961667,-3,-2,0,-3,-1,-2,-2,-1
1514894865963675,-3,-4,-1,-1,-3,0,-2,2
1514894865963675,0,-1,-1,-1,-3,-1,0,0
1514894865975667,-4,0,0,1,0,-1,0,0
1514894865975667,0,-4,-2,0,-2,-1,0,-3
1514894865984689,0,-1,-2,-1,0,-1,0,-2
1514894865984689,0,0,-1,0,-2,0,-2,-1
1514894865999183,-2,0,-3,-2,-1,-2,1,0
1514894865999183,-1,1,-1,0,0,-2,0,-2
1514894866002688,-1,-3,-1,-1,-1,0,-2,0
1514894866002688,-2,0,-2,-1,0,-2,-1,-2
1514894866021709,2,-1,1,-2,-1,-2,-1,0
1514894866021709,0,-3,-2,0,-2,0,-1,-1
1514894866023211,0,-3,-1,-1,-2,-1,0,-2
1514894866023211,-1,1,-1,0,0,0,-1,1
1514894866035710,0,0,-3,-2,-2,-1,-1,0
1514894866035710,-1,-2,-1,-1,-2,-1,0,1
1514894866050229,-2,-2,-1,-2,0,0,-1,-1
1514894866050229,1,-2,-2,-1,-1,-2,-1,-2
1514894866059235,-2,0,-1,0,0,0,0,-3
1514894866059235,-1,-3,-1,-1,-2,-1,-1,0
1514894866065744,0,-2,0,-1,-1,-2,-2,-1
1514894866065744,-2,-1,0,-2,-2,-2,-2,-2
1514894866081757,-2,2,-1,-1,-1,-2,-2,-1
1514894866081757,0,-2,-2,-2,-2,-1,-2,0
1514894866085745,-2,-2,-1,-2,-1,-1,-1,0
1514894866085745,-2,1,-2,-2,-2,-2,-1,0
1514894866104259,-1,0,0,-1,0,-1,-1,-2
1514894866104259,-2,-1,-1,-1,-1,0,-1,-1
1514894866105761,-1,-2,-1,0,0,0,0,-1
1514894866105761,0,-1,-1,-2,-1,-2,0,-3
1514894866119269,-1,-1,-3,-1,-1,0,-1,-1
1514894866119269,0,-2,0,-1,1,-1,-1,-2
1514894866121271,-3,-3,0,-1,-3,-1,0,-3
1514894866121271,-1,-1,-1,-1,-1,1,-3,-2
1514894866141784,-1,0,-2,-2,-1,-1,-1,0
1514894866141784,-1,-2,-2,-1,-1,-3,-1,-1
1514894866143294,-2,-2,-1,1,-2,-1,-1,-1
1514894866143294,-2,1,-2,0,0,0,0,-1
1514894866164300,0,0,-1,-3,-2,0,-1,-2
1514894866164300,-2,-2,1,0,-1,-2,-2,-2
1514894866165831,-1,-1,-1,-1,-3,-1,-1,-1
1514894866165831,-2,-2,-1,-1,-1,-1,0,-1
1514894866177824,-2,1,-2,0,-2,-1,0,0
1514894866177824,-1,-2,-1,-1,-2,-1,1,-2
1514894866186834,-2,-2,-3,1,-1,0,0,0
1514894866186834,-1,0,0,-1,-1,0,-3,-2
1514894866209361,1,0,-2,-2,-2,-2,0,-1
1514894866209361,-2,-2,0,0,-1,-1,-1,0
1514894866210863,0,-3,-1,-1,-1,-2,0,-1
1514894866210863,-2,1,0,-1,-1,-1,-1,0
1514894866225361,0,1,0,-1,-2,-3,-3,-2
1514894866225361,0,-2,0,-1,-1,0,-1,-1
1514894866228863,0,-3,0,-2,0,-2,-2,0
1514894866228863,0,0,0,0,-1,0,-2,-1
1514894866239383,-2,-1,-1,-2,0,0,0,-1
1514894866239383,1,-1,-2,0,-1,-1,-1,-1
1514894866240883,-1,0,-2,-1,-1,-1,-2,-1
1514894866240883,-1,-1,-2,-3,-1,-3,-1,-1
1514894866262408,-1,-2,-2,-1,0,-1,-1,0
1514894866262408,-1,-3,-3,-2,-1,0,0,0
1514894866267941,0,-2,0,-1,-1,-1,0,-1
1514894866267941,0,-1,-2,0,-1,-2,1,-2
1514894866284431,-2,1,0,-2,-2,-1,0,-2
1514894866284431,-1,0,-1,0,-1,0,-1,-2
1514894866285934,-1,-1,-1,-1,-1,0,-2,-2
1514894866285934,-2,0,-1,-2,-1,-2,-2,-2
1514894866297949,-2,1,0,-2,0,-2,-2,-1
1514894866297949,-2,-1,-1,-1,-1,-1,-2,-1
1514894866306446,-3,-2,-1,-1,-1,1,-3,0
1514894866306446,-1,-1,-2,-1,-1,0,1,0
1514894866320956,0,-2,-1,-1,-1,-1,0,-2
1514894866320956,0,-3,0,0,-1,0,0,-1
1514894866328462,0,-2,0,-1,-1,-2,-1,-2
1514894866328462,0,0,-1,-1,-2,-1,-2,0
1514894866344472,-2,0,-2,-1,-2,-1,-2,1
1514894866344472,-2,-1,-1,-2,-2,0,-2,-1
1514894866344973,-3,-1,-1,-1,0,1,0,-1
1514894866344973,-1,-2,-3,0,-1,0,-1,-2
1514894866357994,1,-1,0,-1,0,-1,-1,-1
1514894866357994,-2,-2,-1,-2,-1,-2,1,-2
1514894866365988,0,-2,-1,-1,1,-3,1,-1
1514894866365988,-1,1,-1,-1,-1,-3,-1,-1
1514894866381007,-2,-1,-2,1,-3,-1,-1,0
1514894866381007,0,0,-1,1,0,-1,-3,-1
1514894866382009,0,-2,-1,0,-3,0,-1,-1
1514894866382009,0,-2,-1,0,0,0,1,-1
1514894866403515,-1,-1,0,-1,1,0,0,-1
1514894866403515,-2,-2,-1,-3,0,0,-2,-1
1514894866411021,-2,-3,0,0,0,-1,-2,-1
1514894866411021,-1,0,0,-2,-2,0,-2,-1
1514894866418024,1,-1,-2,-1,-2,-3,0,0
1514894866418024,-1,-3,-3,-2,-1,-2,0,0
1514894866426040,-2,-2,-2,-1,-2,-1,-1,-1
1514894866426040,-2,-1,-2,-2,-1,-1,-1,-1
1514894866441042,-1,0,1,0,-1,-2,-1,-2
1514894866441042,0,-2,-2,1,-2,0,-2,1
1514894866442054,-1,-3,0,-1,-1,-1,-2,1
1514894866442054,-1,0,-1,-1,-1,-1,0,-2
1514894866463558,-2,0,-2,-3,1,-1,-1,-2
1514894866463558,-2,-3,0,-1,-1,-3,0,-2
1514894866464560,-1,-1,-1,-1,0,-2,-1,-1
1514894866464560,0,-1,-1,-2,-1,-3,-1,-1
1514894866487595,0,1,-1,-1,0,-2,-3,0
1514894866487595,-2,-1,1,-1,-1,-1,-2,-3
1514894866488095,-1,-1,-1,0,-2,0,-1,-1
1514894866488095,-1,0,0,-1,0,-2,-3,-1
1514894866501105,-2,1,-3,-1,-1,-2,-1,-2
1514894866501105,-2,0,-3,-2,-1,0,0,0
1514894866502109,-1,-1,-2,0,0,-2,-1,0
1514894866502109,-2,-2,-2,-1,-1,-2,-1,-2
1514894866523635,0,-1,-2,-1,-1,-1,-2,0
1514894866523635,0,-2,-1,-3,-1,-2,-2,-1
1514894866526123,-1,-1,-1,-2,-1,-1,-1,-1
1514894866526123,-1,0,-1,-1,-2,-2,-1,-2
1514894866538634,0,0,-2,-2,-2,-3,-1,-2
1514894866538634,-3,-1,0,-1,0,-2,-1,-1
1514894866546148,-1,-1,-1,-1,-1,-1,-1,1
1514894866546148,-3,-2,-1,-1,1,-2,0,0
1514894866561651,0,-1,1,1,-1,0,0,-2
1514894866561651,0,-2,-2,-1,-1,-1,-1,-2
1514894866562149,0,-2,0,0,-1,-2,-2,0
1514894866562149,1,0,-1,-2,-2,0,-2,0
1514894866583680,-1,-2,0,-2,-2,-1,-2,0
1514894866583680,-1,0,0,1,-1,-1,0,-1
1514894866584163,-1,-3,-2,0,0,0,-1,0
1514894866584163,-1,-1,-2,-1,-1,-2,-1,-1
1514894866598173,-2,0,-4,-2,0,0,0,-1
1514894866598173,0,-3,-1,-2,-2,-1,-1,-1
1514894866606678,-2,-3,-1,0,-1,-2,0,-3
1514894866606678,-1,0,-2,0,-2,1,0,0
1514894866621690,-2,-2,-2,-1,-2,-2,-2,1
1514894866621690,-1,-3,-2,0,-1,-3,1,-1
1514894866622691,-1,2,0,-1,0,-2,-1,-1
1514894866622691,-2,1,0,-3,0,0,-2,0
1514894866643706,-1,1,0,0,1,-1,0,-2
1514894866643706,0,-2,-2,-1,0,-1,-3,-1
1514894866644706,-1,-3,-2,-1,-1,-1,-3,-1
1514894866644706,-1,0,-1,-2,0,-2,-1,-1
1514894866658717,-3,0,0,-2,-1,-1,0,-2
1514894866658717,0,0,-1,-2,-1,-1,0,-1
1514894866665720,0,-2,-1,-2,-2,-1,-1,0
1514894866665720,-2,-1,-1,0,-2,-1,-2,-1
1514894866680732,-1,1,-1,-1,-2,-1,-3,-1
1514894866680732,-1,-1,1,0,-1,1,-2,-1
1514894866689238,-1,0,1,-2,-1,0,-2,-2
1514894866689238,-1,1,-2,0,0,-2,0,-2
1514894866704248,2,0,-1,-2,-1,-2,-1,0
1514894866704248,1,-1,1,-2,-1,-1,-2,-1
1514894866704750,0,-1,0,-1,-2,0,-1,-2
1514894866704750,-2,-2,-1,-1,0,-1,-2,-2
1514894866717758,-1,-1,-2,0,-2,0,1,-1
1514894866717758,-1,-3,-2,-2,0,-1,-2,0
1514894866727265,-2,0,-2,-1,-2,-2,-2,-3
1514894866727265,-2,1,0,-1,0,0,-1,0
1514894866749281,-2,-1,-2,-1,-3,0,-1,-1
1514894866749281,-3,-1,0,1,-1,-1,0,0
1514894866750283,0,-1,1,-1,0,-1,-1,-1
1514894866750283,0,0,0,-1,-2,-2,-2,-1
1514894866763790,-1,-1,0,0,0,-1,0,0
1514894866763790,-1,-3,-1,-2,-1,-1,-1,-2
1514894866764291,-1,-2,-2,1,-1,0,-1,-1
1514894866764291,1,0,0,-1,-1,-1,-1,1
1514894866786807,-1,-1,-2,-3,-2,0,1,-1
1514894866786807,-1,-2,-1,-1,-1,-3,-1,-1
1514894866787808,-1,0,0,-1,-1,-1,0,-1
1514894866787808,-1,0,0,-1,-1,-2,1,-2
1514894866801317,-1,-1,0,-2,-1,-1,-1,-1
1514894866801317,0,-1,-2,-1,-1,-1,1,-1
1514894866802320,-2,0,-1,0,0,-3,-1,-1
1514894866802320,-1,0,0,-1,-1,0,-1,-1
1514894866823833,-2,1,-2,-1,0,0,-1,-3
1514894866823833,-1,-3,-1,-2,-1,0,-1,0
1514894866824334,0,-2,-2,-1,0,0,1,-1
1514894866824334,-2,0,-2,-2,-2,0,0,-2
1514894866839845,-1,1,-2,-2,-2,0,0,-1
1514894866839845,-2,-1,-1,-1,-2,-1,-2,-1
1514894866846849,-1,-2,-4,0,0,0,0,-3
1514894866846849,-1,-1,0,0,0,-1,0,-1
1514894866861359,0,1,-1,-1,-2,-3,-2,0
1514894866861359,-1,-2,-1,1,-1,-1,-1,1
1514894866861862,0,0,0,-1,-1,-2,-2,-1
1514894866861862,-1,0,-2,0,-1,-3,-1,-1
1514894866883875,-1,-3,0,-1,0,-1,-2,0
1514894866883875,0,-1,-1,-2,-1,0,-2,-3
1514894866884376,-2,-1,-1,-1,-2,-1,-2,-1
1514894866884376,-1,1,-2,-2,-1,1,-1,1
1514894866906891,-2,-1,-1,-2,-1,-2,1,-1
1514894866906891,-1,-1,-2,0,-1,-1,0,-2
1514894866907392,-1,-1,0,-2,0,-1,-1,0
1514894866907392,0,1,-2,-2,-1,-1,-1,-1
1514894866921402,-2,-1,-1,-1,-2,0,-1,0
1514894866921402,-1,-1,-2,-2,-2,-3,-1,-1
1514894866928406,-2,-2,-1,-1,-2,0,-1,-3
1514894866928406,-1,-1,-1,-1,0,0,-1,-2
1514894866943920,-1,-1,-1,0,0,-1,-2,0
1514894866943920,-2,0,-2,1,-1,-1,-1,-2
1514894866944920,0,0,-1,-1,0,0,0,1
1514894866944920,-1,-2,0,-2,-1,-1,-1,-1
1514894866957928,1,-2,-1,-1,0,-2,-2,-1
1514894866957928,-2,-2,-1,-1,-1,0,-2,-3
1514894866967434,-1,-1,-1,-1,-2,0,-4,-1
1514894866967434,-2,-2,-2,-1,0,0,-1,0
1514894866980943,-2,2,-1,-1,-2,-1,-1,-1
1514894866980943,-1,0,0,-1,0,0,-1,0
1514894866981945,-1,-1,-1,0,1,-1,0,-1
1514894866981945,-1,-1,-1,-1,0,-2,-1,-2
1514894867003961,-1,-1,-1,-2,-2,-1,0,-1
1514894867003961,-3,-3,-1,-1,-1,-1,0,-2
1514894867004463,0,-2,-2,-2,-3,-1,-1,-1
1514894867004463,-1,0,-3,-1,-3,0,-1,-1
1514894867018974,-2,0,-1,-1,0,-2,1,0
1514894867018974,-1,0,-2,-1,-2,-3,1,1
1514894867025976,-1,-1,1,2,-2,0,-2,1
1514894867025976,-1,-2,-1,-1,-1,-2,0,-2
1514894867040985,0,-1,0,0,-1,0,-1,-4
1514894867040985,-2,-2,-1,-2,-1,1,-1,-3
1514894867041986,-2,0,0,-1,-2,0,0,0
1514894867041986,-1,0,0,0,-2,1,-1,0
1514894867064002,-2,-2,-3,-2,-1,0,0,-1
1514894867064002,-1,-3,-2,-2,-3,-1,-2,1
1514894867065003,-1,-2,-1,-1,-1,-1,-2,-2
1514894867065003,-1,0,-3,0,-2,-2,1,-1
1514894867087018,-1,-2,-1,-2,0,-1,0,0
1514894867087018,0,-1,-1,0,1,-2,-1,-1
1514894867087518,-1,0,-1,-1,-1,-1,-2,-1
1514894867087518,-1,1,0,-2,-1,0,-2,-2
1514894867102030,-1,1,0,-2,-1,-3,-2,-2
1514894867102030,0,-1,1,-3,-1,-1,0,0
1514894867103531,-1,-1,-1,-1,-2,-1,1,-1
1514894867103531,0,-1,-1,-2,-1,-1,0,0
1514894867125046,-1,-2,-3,-2,-2,-1,0,-1
1514894867125046,-1,0,-1,-1,-2,0,-3,-1
1514894867127046,-1,0,0,-1,-1,-1,0,-2
1514894867127046,-1,0,-2,0,0,-2,0,-2
1514894867146562,-2,-1,-2,1,-1,-1,-1,0
1514894867146562,-1,-2,-1,-1,-1,1,-1,-1
1514894867147562,0,0,-2,-2,-1,-2,-2,-1
1514894867147562,-1,-1,-1,0,-1,-1,-3,-1
1514894867161572,0,-1,-1,-2,-1,-2,0,-1
1514894867161572,-2,-1,-1,2,-1,-1,0,-1
1514894867162581,-3,-1,-1,-2,-1,-1,-1,0
1514894867162581,-2,-1,0,0,-1,-3,-1,-1
1514894867183588,0,-2,-2,-2,-2,-1,-2,0
1514894867183588,-2,-3,-1,0,0,-1,0,0
1514894867184088,-1,-1,-2,-2,-1,-1,-1,-3
1514894867184088,1,1,-2,-2,0,-1,-2,-2
1514894867207118,0,-1,-2,0,-1,-2,-1,-1
1514894867207118,-1,-1,-2,-2,-3,-1,-2,-1
1514894867207604,-1,0,0,0,-1,0,-2,0
1514894867207604,-1,-1,-3,0,-1,0,-1,-2
1514894867221114,-1,-1,-1,0,-2,-2,-2,-1
1514894867221114,1,-3,0,-1,0,-2,-1,0
1514894867222115,0,0,-1,-2,-1,-2,0,-1
1514894867222115,1,1,-3,-3,-1,-1,-2,0
1514894867244139,-1,-1,-2,0,-1,0,-1,0
1514894867244139,-1,-2,-1,-1,-3,-1,-2,-2
1514894867245640,0,-1,0,-2,-2,0,0,-1
1514894867245640,-3,0,0,-1,-2,0,0,-1
1514894867266648,1,-2,1,-2,0,-1,-1,-3
1514894867266648,-1,-1,0,-4,-1,-2,-1,-1
1514894867267646,-2,1,0,-2,-1,0,-1,0
1514894867267646,-1,0,-1,-3,-2,-1,-1,-1
1514894867281161,-1,-2,-1,0,0,-1,0,0
1514894867281161,-1,-3,-3,-1,0,0,0,-2
1514894867282658,-3,-1,-3,-2,-1,-2,0,-2
1514894867282658,-1,-1,-1,-2,-1,-2,-2,0
1514894867304173,-1,-1,-1,-2,-1,1,0,-3
1514894867304173,-2,-2,-1,0,0,0,-1,0
1514894867304673,-1,-1,-2,0,-2,-3,-2,-2
1514894867304673,1,-2,0,-2,-1,0,-1,-1
1514894867325687,1,-1,1,-2,0,-2,-1,-2
1514894867325687,-1,-2,-2,-1,-3,-1,-2,0
1514894867333694,1,-1,-1,0,1,0,-1,-1
1514894867333694,0,-1,0,-1,-2,-1,-2,-1
1514894867341198,-1,-1,-1,0,0,-1,0,-1
1514894867341198,-1,0,0,1,0,-1,-2,-2
1514894867342208,-1,-1,-2,-1,-1,-1,0,0
1514894867342208,0,0,-1,-3,0,-1,0,-3
1514894867363214,-1,0,-1,-1,-3,-1,-2,-1
1514894867363214,0,-2,-2,0,-2,0,-2,0
1514894867371231,-1,-2,0,-2,-2,-1,0,-1
1514894867371231,-1,0,-1,0,-1,-1,-1,1
1514894867387247,0,-1,-2,-2,-2,-2,1,0
1514894867387247,0,-2,-1,-2,-1,-1,1,-1
1514894867387746,-2,0,-2,-2,0,-1,-1,0
1514894867387746,-3,1,-1,-1,-2,-1,1,0
1514894867401257,-1,-1,0,-2,-1,-1,0,-1
1514894867401257,-1,-1,0,0,-1,-1,-1,-1
1514894867401760,0,-1,-1,-1,0,0,-2,-2
1514894867401760,-1,0,0,0,-1,-1,-2,-3
1514894867424772,-1,-3,-2,-1,-2,0,-1,-1
1514894867424772,-1,-2,0,-2,0,-1,-1,-1
1514894867426275,-1,-1,-2,-3,-1,1,-2,-1
1514894867426275,0,-1,-2,-1,-1,-1,-1,-1
1514894867454294,0,-2,-2,0,1,-1,-1,-1
1514894867454294,1,-3,-1,-2,-1,0,0,-1
1514894867455300,-1,0,-1,-1,-1,-1,1,0
1514894867455300,0,0,-1,-1,0,-3,-2,0
1514894867461299,-2,1,-1,-2,-1,1,-3,0
1514894867461299,-2,-2,-1,-2,-1,-2,-2,-1
1514894867462315,-1,-1,-1,1,-1,-1,0,-1
1514894867462315,0,-3,-1,0,-1,-1,0,-1
1514894867492327,-1,0,1,-3,-1,-3,-1,-1
1514894867492327,0,-1,0,-2,-1,1,-1,0
1514894867492821,1,-1,0,-1,-1,-2,0,-1
1514894867492821,-1,-1,-2,0,-1,1,-1,-1
1514894867506840,0,-2,-1,-1,-1,-1,-2,-1
1514894867506840,-1,-2,1,0,-1,-4,0,-1
1514894867507332,-1,-2,-1,-1,-1,0,-1,-1
1514894867507332,-3,2,-2,-2,0,-3,0,-1
1514894867520846,-1,-1,-2,-1,0,-1,-2,-1
1514894867520846,-1,0,-2,-3,0,0,-2,-2
1514894867521846,0,0,-2,-1,0,-1,-1,-2
1514894867521846,-2,0,-1,0,0,-1,-2,-2
1514894867543857,-2,-3,-1,-1,0,-2,-1,-1
1514894867543857,0,-2,0,-1,-3,-2,0,0
1514894867544358,-2,1,-1,0,-1,-2,-2,-3
1514894867544358,0,-1,-1,-2,-2,0,0,-1
1514894867566886,-1,-3,-2,-2,-1,-2,0,1
1514894867566886,-2,-3,1,0,-1,-1,-1,-3
1514894867567374,0,0,-1,-2,-2,-1,0,0
1514894867567374,0,-1,-2,1,0,-1,0,0
1514894867581384,-1,-4,-1,-1,-1,-2,0,-3
1514894867581384,-1,-1,-1,-1,0,0,-1,-2
1514894867588889,-1,-1,0,0,-1,-1,-3,0
1514894867588889,-1,0,-2,-1,-2,-3,0,-1
1514894867603399,-2,-1,-2,-1,-1,-1,-1,-1
1514894867603399,1,-3,-1,-1,0,1,2,-2
1514894867604399,-1,0,-2,-1,-2,-2,-2,-4
1514894867604399,0,0,-1,-1,-2,0,0,0
1514894867627416,-2,-2,-1,0,-1,-4,-2,1
1514894867627416,0,-3,-1,0,-1,-3,-3,-2
1514894867629417,-1,0,0,-2,-2,-2,0,0
1514894867629417,-1,-1,-1,0,-1,-1,-2,0
1514894867640425,-1,-3,-1,-1,0,0,0,-1
1514894867640425,-2,-3,-2,-2,1,-1,0,0
1514894867648432,-1,-1,-3,-1,-2,-1,-2,-1
1514894867648432,-1,1,-2,-4,-1,-2,-1,0
1514894867664454,-2,-1,-1,0,-2,-2,-1,-1
1514894867664454,-2,-4,-4,-1,-1,-2,0,-1
1514894867664954,-2,-1,0,0,-1,-1,-2,0
1514894867664954,-2,-1,-1,-1,-3,-1,0,-1
1514894867685958,0,-1,-2,-1,0,0,-1,-1
1514894867685958,-4,-2,-1,-1,-3,-2,-3,-2
1514894867693472,-2,-2,-1,-2,-1,-1,0,0
1514894867693472,-1,-1,0,1,-1,0,0,-2
1514894867700468,0,-1,-2,-2,-2,0,0,1
1514894867700468,-1,-2,-3,-2,-1,1,0,-1
1514894867708483,-1,-1,0,-1,1,-1,-1,0
1514894867708483,-1,1,0,-1,0,-3,0,0
1514894867723485,0,-3,-1,-1,0,-2,-1,-2
1514894867723485,-2,-1,1,0,-2,-1,-2,0
1514894867724486,-1,0,-1,0,0,0,-1,-1
1514894867724486,1,0,-1,-1,1,-2,-2,-1
1514894867746510,-2,-3,-1,-1,-2,1,-2,0
1514894867746510,-2,-1,0,-2,-1,0,-1,-1
1514894867747501,0,-1,0,-1,-1,0,-1,-2
1514894867747501,0,0,-2,-1,0,0,-2,1
1514894867760519,-1,-3,-1,-2,-1,-1,1,-1
1514894867760519,-1,-2,-3,0,-1,-1,-1,0
1514894867769016,-2,1,-1,-3,-1,-1,0,0
1514894867769016,1,0,-2,-1,-1,-1,0,-1
1514894867783537,1,-1,0,-1,0,0,-2,-1
1514894867783537,-1,-1,-1,-2,-1,-1,0,-1
1514894867784527,0,0,-2,-2,0,-3,-2,-1
1514894867784527,-1,-1,-2,-1,-2,-1,-1,0
1514894867814548,-2,-1,-2,-1,-2,-1,-1,-1
1514894867814548,-1,-2,1,-1,0,-2,-1,0
1514894867815048,-1,-1,-2,0,-2,0,0,-2
1514894867815048,-2,0,-2,-1,0,-1,-1,-1
1514894867821063,-1,-2,-1,-1,-1,-1,0,0
1514894867821063,-1,-3,-1,-1,-2,-1,-2,-1
1514894867828576,-1,0,-2,-1,-2,-1,-1,-3
1514894867828576,-2,1,-1,-2,-2,-2,-1,-1
1514894867843569,0,-1,0,0,-1,0,-1,-1
1514894867843569,-1,-3,-1,-3,-1,1,0,1
