timestamp,emg1,emg2,emg3,emg4,emg5,emg6,emg7,emg8
1513231488673457,-2,-2,-2,0,-1,-2,-2,-2
1513231488673457,-1,-1,-2,-1,-1,0,0,-1
1513231488681461,-2,1,-2,-4,0,-2,0,0
1513231488681461,-2,-4,-2,-2,-2,-1,-3,-3
1513231488696472,-1,1,0,-1,0,1,-1,0
1513231488696472,1,-2,-2,-1,0,-1,-3,-2
1513231488697973,-3,2,0,-1,0,-2,-1,-2
1513231488697973,2,0,1,-1,0,2,2,-2
1513231488718988,-4,-4,-2,-4,-2,1,0,3
1513231488718988,-1,0,-4,1,-1,-3,0,-2
1513231488720490,-1,-2,1,0,0,2,-2,-2
1513231488720490,-1,-1,-2,0,-1,-2,0,1
1513231488732498,0,0,-1,-4,-1,0,-3,-2
1513231488732498,-2,0,0,0,-2,-3,-1,-2
1513231488742005,2,-2,-2,-2,-1,-2,-1,-1
1513231488742005,0,-1,0,-9,-2,-2,-2,-2
1513231488756514,0,-2,0,6,-1,-3,-2,-1
1513231488756514,-2,-3,0,3,0,-1,-2,-2
1513231488758016,-1,1,-1,-1,-1,1,-2,-1
1513231488758016,-2,1,-1,1,-1,0,-1,0
1513231488779030,0,-1,-1,-1,2,1,0,0
1513231488779030,2,-1,-1,0,0,0,-1,-1
1513231488780531,-4,-2,-3,-2,-1,-2,-2,-5
1513231488780531,-1,-3,-2,-1,0,-2,-2,-1
1513231488792540,1,-2,0,1,0,-2,0,-2
1513231488792540,-2,-1,1,-1,-2,0,-2,0
1513231488809552,2,-2,-1,-2,-3,-1,-1,-2
1513231488809552,-1,-1,-1,-2,-2,-2,-1,-2
1513231488816557,-2,0,-2,-6,-1,-2,-1,-2
1513231488816557,0,0,-1,1,0,-1,0,-3
1513231488818067,0,-2,0,4,1,-2,0,1
1513231488818067,0,-1,-1,-2,0,0,0,0
1513231488839073,-1,-1,0,0,-1,0,0,0
1513231488839073,-4,-3,-2,-4,-2,0,-1,2
1513231488840574,-1,0,-1,-5,-3,1,-1,0
1513231488840574,-5,1,-2,3,-1,-1,0,-3
1513231488852603,-2,1,-2,0,-1,-1,-2,-4
1513231488852603,1,-1,-1,-1,-1,2,0,5
1513231488861589,-2,-2,-1,-3,-3,-3,-2,0
1513231488861589,-5,-3,0,-1,-1,-2,-2,-1
1513231488876609,1,-1,0,-3,-2,-2,-2,-2
1513231488876609,-2,-1,0,0,-2,0,-2,-5
1513231488878110,0,-2,-1,-2,-2,-1,-1,1
1513231488878110,1,-1,0,-3,-2,-1,-1,1
1513231488899116,-2,0,-1,-1,0,-1,-1,-2
1513231488899116,-2,-3,-1,-1,-1,-1,-2,-1
1513231488900617,-5,-1,-2,4,1,0,1,-3
1513231488900617,0,0,0,1,-1,0,-1,-1
1513231488912625,-2,-2,0,-2,0,-1,-2,1
1513231488912625,-1,-2,0,-1,-1,-2,-1,-3
1513231488921635,2,0,-2,-4,0,-1,-3,-3
1513231488921635,-4,-2,-2,-1,0,0,-3,0
1513231488936141,-3,-1,-3,0,-1,-2,0,-1
1513231488936141,-2,0,-1,1,0,0,-1,-2
1513231488938143,1,-3,-1,-2,0,-1,0,-1
1513231488938143,2,-1,0,-1,-2,-2,-1,0
1513231488958657,0,-2,-2,-3,-3,-1,0,-2
1513231488958657,-2,-2,-2,-2,-2,-3,-1,-2
1513231488960668,-3,-1,0,-3,-1,0,0,-1
1513231488960668,-1,-1,0,-6,0,-2,0,-2
1513231488972685,-2,-1,0,12,3,-1,0,-1
1513231488972685,-4,-2,-2,-2,-1,1,-3,-2
1513231488981674,-1,-2,-1,1,-2,-2,-2,-1
1513231488981674,0,0,-4,-2,-1,-1,-1,2
1513231488995684,0,0,-2,-5,-4,-2,-1,-2
1513231488995684,-1,1,-2,2,-1,0,0,-2
1513231489004190,-4,-2,-2,-3,-2,-1,-2,-1
1513231489004190,-2,-1,-1,1,0,0,-1,-2
1513231489018722,2,-2,0,-1,-2,1,-1,-2
1513231489018722,2,-1,-2,-3,0,-2,0,2
1513231489020704,-3,-1,2,0,0,0,-2,-2
1513231489020704,0,-2,-2,2,1,0,-1,-1
1513231489032710,-5,-1,-2,-4,-2,-3,-1,-2
1513231489032710,1,-2,-2,-6,-3,-1,-1,-2
1513231489041716,-2,0,-2,-1,1,-1,-1,-1
1513231489041716,-1,-3,-1,6,-1,0,0,0
1513231489056227,0,-2,-1,-2,-2,0,0,1
1513231489056227,-2,-2,0,-2,0,-1,0,-2
1513231489058228,-4,-5,-2,-5,-1,-2,-1,-1
1513231489058228,-2,0,-2,-1,-1,-1,-1,-3
1513231489078743,-2,-2,0,-2,0,0,-3,0
1513231489078743,-1,0,0,1,-2,-2,-1,-1
1513231489080744,-1,-1,1,1,-1,-2,0,0
1513231489080744,-2,0,0,-2,-1,-1,0,0
1513231489092772,-1,-2,0,-1,-1,-1,-1,-1
1513231489092772,-4,1,-1,0,-2,-1,1,0
1513231489107783,1,1,-1,-3,-2,-1,-2,0
1513231489107783,-1,-1,-2,2,-3,-2,-2,-2
1513231489116284,0,0,-1,2,-1,-1,0,-1
1513231489116284,0,0,-2,2,-1,-1,-2,0
1513231489118291,-1,0,-2,-5,-3,1,-1,-1
1513231489118291,-2,-4,-2,-1,-1,-1,0,0
1513231489138785,2,-1,-1,-2,2,0,-1,-2
1513231489138785,-2,-2,-1,-4,-1,-1,0,0
1513231489140286,-2,0,-2,0,0,-3,-1,0
1513231489140286,-1,-1,-1,-7,-3,-1,-2,-3
1513231489161304,-2,-1,-1,1,-4,-1,-1,-1
1513231489161304,-1,0,-1,-1,1,-1,-2,0
1513231489162801,5,-1,-2,-1,-1,-3,0,0
1513231489162801,-3,0,-1,-1,1,-1,-1,0
1513231489176340,-2,-2,-2,-2,-2,-1,0,1
1513231489176340,-1,-1,-2,-1,0,-1,-1,-2
1513231489178323,-3,-1,-1,0,0,0,-1,-2
1513231489178323,1,0,-1,-5,-1,-2,0,-2
1513231489198845,0,-1,0,8,-1,1,0,1
1513231489198845,-1,-1,0,-4,-1,-2,-1,-1
1513231489200344,-2,0,0,2,0,1,1,1
1513231489200344,2,0,-2,-5,-2,-1,-2,-1
1513231489221344,-1,0,-3,-7,-1,-1,-2,-3
1513231489221344,-6,-6,-4,1,-1,-1,0,3
1513231489222844,-1,-1,-2,-4,0,-2,1,0
1513231489222844,2,-2,-2,3,0,0,0,-1
1513231489243877,1,-3,-1,-4,-3,-2,-1,-1
1513231489243877,-2,-1,0,-1,0,-1,-3,-2
1513231489245387,2,1,0,1,0,1,-1,-1
1513231489245387,-4,-3,-2,0,0,0,-1,-2
1513231489258888,-1,-1,-2,-2,-2,-2,0,-1
1513231489258888,-1,-1,-2,-2,-1,-1,-1,-1
1513231489260388,-1,-2,-2,-2,-2,0,-2,-1
1513231489260388,-4,-2,1,6,-2,0,0,-2
1513231489281920,0,0,0,3,2,-1,0,-1
1513231489281920,-4,-3,-1,-2,-3,-1,-2,-2
1513231489283404,3,0,0,-2,-1,-1,-1,0
1513231489283404,-6,-1,-2,-5,-1,-3,-2,-4
1513231489295925,0,0,-2,2,1,1,1,4
1513231489295925,2,0,-3,0,-3,-1,-1,0
1513231489302427,-1,-1,-2,0,-2,0,-2,-1
1513231489302427,-3,-3,-2,-2,-2,-3,-2,-2
1513231489318944,-3,-1,0,-5,-2,1,-1,-2
1513231489318944,-2,-1,0,-1,2,-2,0,-2
1513231489320431,-1,-2,-2,0,-2,-2,-1,-1
1513231489320431,1,1,-1,0,-1,-2,-1,1
1513231489341447,-1,-2,-2,-3,-2,-2,-2,-2
1513231489341447,-1,0,-1,-1,0,0,0,-1
1513231489342946,-5,-1,-2,-3,-2,-2,-2,-1
1513231489342946,2,-1,-1,2,0,0,0,1
1513231489355955,-1,-3,-1,-1,-2,-1,-1,-1
1513231489355955,-3,-4,0,-3,-2,-2,0,-2
1513231489362472,1,0,-1,-1,-2,-1,0,-3
1513231489362472,-2,0,0,2,0,-1,-1,3
1513231489377974,-1,-2,-2,-3,0,-1,-3,-2
1513231489377974,1,2,-1,-3,0,0,-1,-2
1513231489386477,-3,-2,-2,2,-1,-3,2,-3
1513231489386477,3,-2,-1,-3,-1,1,0,0
1513231489401516,-3,0,0,-1,-2,-2,-2,-2
1513231489401516,-3,-2,0,1,-1,-1,-2,0
1513231489403010,6,-1,-2,-4,-2,0,-2,-1
1513231489403010,-4,-1,1,-1,-3,-1,-1,-1
1513231489415501,-3,-2,-2,-7,0,-1,-3,0
1513231489415501,2,0,-1,2,-2,-2,0,-1
1513231489422502,-1,-1,-1,1,0,-1,-2,-2
1513231489422502,5,-1,-2,-6,0,-2,0,3
1513231489439013,-2,-1,-1,-1,-2,-2,-2,-2
1513231489439013,0,1,0,-5,-1,0,-2,-2
1513231489440525,-3,-2,1,4,0,0,-1,-1
1513231489440525,0,0,-1,-2,-2,-2,-1,-3
1513231489461544,2,0,-2,0,1,-1,-1,0
1513231489461544,0,0,-3,2,-2,-1,-2,1
1513231489463037,-1,-1,-2,-2,-2,-3,-1,0
1513231489463037,0,0,1,1,1,-1,-2,-2
1513231489476082,-2,-1,-1,-3,-3,-1,-1,-1
1513231489476082,1,-2,-2,-4,0,-1,-1,-3
1513231489482577,-4,-5,-1,-1,-2,-2,-3,0
1513231489482577,2,1,-1,-1,-1,0,-3,1
1513231489499089,0,2,0,-8,-1,-3,-1,-1
1513231489499089,0,-3,-1,5,-1,-2,-1,-2
1513231489500590,0,0,0,1,0,0,1,1
1513231489500590,-1,0,-2,-2,-2,-1,0,-4
1513231489521602,-3,-4,-3,-1,0,-1,-2,-1
1513231489521602,0,0,-1,-6,-1,-1,-1,0
1513231489523103,-1,0,-1,-2,0,0,-2,1
1513231489523103,-5,-2,-3,1,-2,0,0,-2
1513231489535113,1,-2,0,-2,-4,-2,-1,-2
1513231489535113,-2,-1,0,-1,-3,-1,-1,0
1513231489544119,0,1,0,2,0,-3,-1,0
1513231489544119,-1,-1,-1,-2,-2,-2,-2,-3
1513231489559130,0,2,-2,1,-2,1,-1,-2
1513231489559130,0,-1,-2,-2,-1,-2,-1,-1
1513231489560632,-3,-2,-1,4,3,-1,0,-2
1513231489560632,1,-2,-2,-4,-1,-1,-2,-3
1513231489581645,-3,-3,-3,-4,-1,-1,-2,0
1513231489581645,0,1,-1,4,-3,-1,-2,0
1513231489583146,-1,-2,-3,-2,-3,-1,-2,-5
1513231489583146,-4,-1,-1,-7,-1,-2,1,3
1513231489595654,0,1,0,8,0,-2,-1,-1
1513231489595654,1,0,1,-5,0,0,0,-1
1513231489603162,-1,0,-1,-3,-2,0,-1,0
1513231489603162,-4,-4,-1,0,-1,0,-1,-1
1513231489618173,1,0,-1,-3,-2,-1,0,1
1513231489618173,-1,-3,-3,-1,-1,-2,-1,-1
1513231489619174,1,0,0,-2,-2,-3,-2,-1
1513231489619174,-1,-1,-2,-1,-2,-2,-2,-2
1513231489640688,-1,-1,0,0,-1,0,-2,-1
1513231489640688,-2,0,0,1,2,-1,0,-2
1513231489641689,-2,-1,1,-2,-2,-2,-2,1
1513231489641689,-1,0,-1,0,-2,-1,-3,-1
1513231489663705,1,-1,0,-1,-2,-2,0,0
1513231489663705,-4,-2,-1,-1,-1,-2,-3,-3
1513231489664703,0,1,-1,-4,0,0,2,3
1513231489664703,1,-1,0,-5,-2,0,-1,-2
1513231489678271,-1,0,-1,5,-1,-1,-2,-3
1513231489678271,1,-2,-2,-2,0,0,-2,-1
1513231489679236,-1,-2,-2,-1,0,-1,-1,-3
1513231489679236,-1,-1,-2,1,0,-1,1,0
1513231489701231,-3,-1,0,-7,-1,-3,0,0
1513231489701231,3,2,1,3,-1,-1,-2,0
1513231489702233,-7,-1,-1,-1,-3,0,-2,-3
1513231489702233,2,-1,-2,-1,1,-1,-2,-1
1513231489715238,-2,-2,-2,-1,-1,-1,-2,0
1513231489715238,-2,-3,-1,3,2,-1,0,1
1513231489723276,2,-3,-2,-4,-1,0,0,-3
1513231489723276,0,0,0,1,-1,-2,0,3
1513231489738302,-1,-1,0,-4,-2,0,-1,-3
1513231489738302,0,1,0,-2,-2,-1,1,-2
1513231489738788,-3,-2,-1,0,0,-2,-2,-1
1513231489738788,-1,-3,0,0,-3,-2,-1,-3
1513231489761303,0,0,1,1,0,-2,0,-2
1513231489761303,-1,-1,-1,-2,-2,-1,1,1
1513231489768359,0,-1,-2,-1,0,-1,0,-2
1513231489768359,-2,-2,-1,-3,0,0,-1,-2
1513231489774848,-1,-3,-4,5,-2,-1,-1,0
1513231489774848,-2,-1,-2,-1,-1,-1,-2,0
1513231489783420,-1,1,0,-1,-1,-1,0,0
1513231489783420,1,1,-1,-4,-1,0,-1,-1
1513231489806423,-5,-2,-1,1,-1,1,-1,0
1513231489806423,-3,-3,-2,-2,-3,-3,-2,-1
1513231489806923,-1,-3,-2,-1,-1,-2,-1,3
1513231489806923,0,1,-1,2,-2,0,0,-1
1513231489820933,0,-1,-1,-4,-1,-1,0,0
1513231489820933,-6,-4,0,0,-2,-1,-1,-2
1513231489821434,0,-1,-1,-2,0,0,-2,-2
1513231489821434,0,0,0,1,0,-1,-1,-2
1513231489834952,1,0,-1,-2,-1,-2,0,-1
1513231489834952,-3,0,-1,0,0,0,-1,-2
1513231489842949,0,0,0,-2,-1,0,-1,0
1513231489842949,-3,-1,-3,1,-1,-1,-1,-2
1513231489858459,1,0,-1,0,1,-1,-2,-1
1513231489858459,0,0,0,2,0,0,-2,-1
1513231489858959,-2,-3,0,0,-1,0,0,-2
1513231489858959,-2,-1,-2,-5,-1,-2,-1,-2
1513231489880475,-1,-2,0,3,0,-1,0,0
1513231489880475,1,0,-1,-4,-1,-1,0,-1
1513231489881476,0,-1,0,-1,-3,1,-2,-2
1513231489881476,-1,-2,-1,-2,-1,-2,-1,-2
1513231489894986,0,-2,-1,2,0,-2,-3,-2
1513231489894986,1,-2,-2,-4,0,-1,-2,-1
1513231489903000,1,1,0,-1,-1,-1,0,2
1513231489903000,-1,-1,0,-2,-2,-2,-1,0
1513231489918002,-5,-3,-1,-5,-3,-2,-1,-2
1513231489918002,2,0,-2,1,-2,0,-1,-1
1513231489919004,-3,-2,-2,-2,0,-1,-1,-2
1513231489919004,1,-1,-1,0,0,-2,-1,0
1513231489941018,-1,0,0,-1,-1,-2,0,-3
1513231489941018,-3,-2,0,-2,-2,-2,0,0
1513231489942019,1,-1,-3,-8,-2,-2,-1,2
1513231489942019,-2,-2,-2,8,-1,-1,-1,-1
1513231489964037,0,-1,-2,-2,-1,-1,-2,-1
1513231489964037,-2,-1,-2,-1,-2,0,0,-2
1513231489964536,-1,-1,1,0,-2,0,-1,-2
1513231489964536,-1,0,1,-3,-2,0,-1,-2
1513231489978061,-2,0,-1,2,-2,-2,-1,-1
1513231489978061,1,0,0,-2,-1,-3,-2,-1
1513231489979045,-2,-2,-4,-1,-3,-1,-2,0
1513231489979045,-2,-1,-2,-3,-1,-2,-1,0
1513231490000571,-1,-1,-2,-4,-2,-2,-2,-2
1513231490000571,-1,0,0,1,2,0,0,1
1513231490008076,2,0,-1,0,-1,-1,-1,-4
1513231490008076,0,0,0,-1,-1,2,-1,3
1513231490015080,-1,-3,-2,-3,-2,-2,-1,-1
1513231490015080,-2,0,-1,-5,-2,-1,-2,-1
1513231490023076,-2,-1,-1,6,1,-2,-1,-3
1513231490023076,-1,-2,-2,0,0,-1,1,-4
1513231490038092,1,0,0,-2,-1,0,-1,1
1513231490038092,2,-1,-1,-1,-3,0,-2,0
1513231490039089,0,-1,-2,1,1,-1,-1,0
1513231490039089,-4,-4,-3,1,-2,1,-1,-1
1513231490060602,-3,-2,-2,-1,-1,-1,-2,-1
1513231490060602,0,-1,1,-3,-2,-2,-1,-2
1513231490061604,-2,-1,-2,1,-1,0,0,-2
1513231490061604,4,1,-1,-1,1,1,1,4
1513231490084118,-4,-1,0,0,-1,-2,-1,-2
1513231490084118,0,-2,-2,1,2,-1,-1,1
1513231490084630,1,-1,1,-3,-3,-3,-3,-3
1513231490084630,-7,-1,-1,-3,-2,-1,-1,-3
1513231490098131,1,0,-1,0,0,0,0,0
1513231490098131,1,0,-2,-5,-3,-2,-1,-2
1513231490099129,-2,-1,0,8,1,-1,-1,2
1513231490099129,0,-2,-2,-5,0,-3,-4,-1
1513231490120645,1,-1,-2,-3,-1,0,-2,0
1513231490120645,-4,-1,1,0,-1,-1,0,-1
1513231490121145,0,-2,-1,-3,-2,1,-2,-1
1513231490121145,-1,0,-1,1,-2,-2,-2,-4
1513231490144162,-2,-1,-3,-2,-1,0,0,-1
1513231490144162,-2,-1,-2,-1,0,-2,0,-1
1513231490144670,-2,0,-3,-4,-1,-3,-2,-1
1513231490144670,1,0,0,2,-1,-1,-1,0
1513231490158181,1,-1,-1,0,-1,0,-2,-4
1513231490158181,2,0,-2,0,0,0,2,3
1513231490159173,-2,-2,1,-7,-1,-1,-1,-1
1513231490159173,-1,-3,-1,6,2,0,-3,-1
1513231490180687,-2,1,-1,-2,-1,-1,-2,-2
1513231490180687,-1,-2,0,0,-1,-2,-1,-2
1513231490181688,2,0,-1,-4,-2,-1,1,0
1513231490181688,1,-2,-1,-5,-3,-1,-2,-1
1513231490204203,-1,-1,-1,0,0,0,-1,1
1513231490204203,0,-3,-3,3,0,1,-1,-2
1513231490204704,0,1,0,-1,-1,-1,-1,-1
1513231490204704,-1,-1,-1,-6,-4,-3,-1,-1
1513231490218216,0,-1,0,-3,-2,-2,-1,2
1513231490218216,-2,-2,-2,-2,-1,-1,-2,-1
1513231490219214,-1,-2,-3,0,-1,0,0,-1
1513231490219214,1,-1,0,1,0,-1,0,-2
1513231490240748,1,-2,-3,-4,0,0,1,-1
1513231490240748,-1,-1,-1,-1,-2,-1,-1,-1
1513231490241730,-1,-2,1,1,0,-1,-1,-1
1513231490241730,-1,1,-3,-2,0,-2,-1,-1
1513231490263755,-2,-2,-1,0,-1,-2,-2,-2
1513231490263755,0,-1,1,-1,-1,-1,-1,0
1513231490264747,0,0,-1,0,0,0,-2,0
1513231490264747,-2,0,0,-8,-3,-1,0,-1
1513231490278259,-2,-2,-2,5,-2,-2,-2,-2
1513231490278259,-1,-2,-3,-5,-1,-1,-2,-1
1513231490278756,-2,-1,-1,1,-2,0,-2,0
1513231490278756,-1,-3,-1,-1,0,-1,-1,-2
1513231490300773,-1,-1,-1,-4,-2,-1,-1,-1
1513231490300773,-1,0,-1,0,-2,-1,0,-2
1513231490301773,-2,-2,0,-1,-1,0,0,-4
1513231490301773,0,-2,0,-1,-2,-3,0,2
1513231490323798,-1,-2,-1,0,-2,-1,-2,-2
1513231490323798,-4,-3,-1,-2,-2,-2,-2,-3
1513231490324790,-1,0,0,4,3,1,1,0
1513231490324790,-2,-1,-2,1,0,0,-2,-1
1513231490338301,-1,-1,0,-3,0,-1,0,0
1513231490338301,-1,-1,-2,-1,-1,0,-3,-1
1513231490338810,-1,-1,-1,-4,-2,-2,0,-1
1513231490338810,-2,-1,-2,-7,-2,-1,-1,-2
1513231490360829,0,0,2,6,0,-3,-2,-2
1513231490360829,0,-1,-2,-1,0,-1,0,-3
1513231490361315,-2,-1,0,-3,-4,-1,0,-3
1513231490361315,0,0,-1,1,0,-1,-1,0
1513231490391346,0,-2,-3,-3,-2,-2,-1,1
1513231490391346,-1,1,-1,-1,-1,0,1,-2
1513231490392337,0,-1,-3,4,-3,-1,-1,-1
1513231490392337,-1,-2,-3,-2,-2,-2,-3,-3
1513231490398341,-4,-1,-1,-2,-3,-1,0,-2
1513231490398341,-3,-1,-2,0,-1,-2,-3,0
1513231490398841,-1,-1,-2,-4,0,-1,-1,2
1513231490398841,-2,0,0,-1,0,-2,2,-4
1513231490420868,2,-1,-1,4,3,3,0,7
1513231490420868,-3,-2,-3,-3,-1,-3,-3,0
1513231490421359,0,-1,0,3,-2,0,-1,-3
1513231490421359,1,2,1,1,-1,0,2,-1
1513231490443874,-3,-3,-1,-3,-4,-2,1,-3
1513231490443874,4,-2,-2,-9,-1,-1,1,3
1513231490444874,-4,-2,-2,5,0,-1,-2,0
1513231490444874,-1,-1,-1,2,-2,-2,-1,-1
1513231490458383,-1,0,-2,-4,-2,0,-2,-2
1513231490458383,-1,-1,1,1,-1,0,-2,-1
1513231490458886,-1,0,-2,-6,-1,-2,-2,-1
1513231490458886,-2,-1,-2,1,-1,0,-2,0
1513231490480399,-2,-1,-2,-2,-2,-2,-2,-4
1513231490480399,0,-1,0,0,-2,0,2,1
1513231490481400,-1,0,-1,0,-2,-2,0,-2
1513231490481400,-2,-2,-2,-1,-2,-1,-1,-1
1513231490503925,-2,-1,-2,-2,1,-1,-1,-2
1513231490503925,-2,-1,-1,3,-1,0,-1,-3
1513231490504417,0,-1,0,1,0,0,0,1
1513231490504417,0,-1,-1,-5,-1,-1,-2,0
1513231490517926,1,0,0,-1,-4,0,-1,-1
1513231490517926,0,0,1,2,-1,-1,-2,-4
1513231490518927,-1,-1,-1,-4,-2,-1,0,0
1513231490518927,-2,-2,-2,-2,0,-3,-2,0
1513231490540454,-1,-1,0,-8,0,0,-1,0
1513231490540454,0,-3,-2,8,-1,-1,-2,1
1513231490541442,-1,0,-1,-4,-3,-1,-1,-2
1513231490541442,-3,-1,1,5,1,1,-1,-1
1513231490563957,-1,-1,-2,-4,0,-1,-2,-2
1513231490563957,-3,-1,0,-1,1,-1,0,-2
1513231490564458,2,-1,-1,-1,0,-1,1,6
1513231490564458,-1,-3,-3,-1,-1,1,1,-2
1513231490577999,-3,-2,0,4,0,-2,-1,-1
1513231490577999,0,2,-1,-4,-2,1,-1,-2
1513231490578997,0,-2,-3,0,0,-2,-2,-3
1513231490578997,0,0,-1,-3,-2,-1,-2,-1
1513231490600515,0,0,-1,1,1,-1,-3,-1
1513231490600515,0,0,0,-5,-2,-1,0,0
1513231490601513,-1,0,-2,-1,-2,-1,-1,-1
1513231490601513,-3,0,-2,-5,0,-1,-1,-1
1513231490623028,-4,0,-1,2,0,0,1,-1
1513231490623028,0,-3,-3,1,-1,-2,-3,-2
1513231490630586,-2,-2,0,-7,-1,-1,-2,-3
1513231490630586,1,0,-1,5,-2,-2,-1,-2
1513231490639573,1,-1,-3,-8,-2,-1,0,-1
1513231490639573,-2,-2,1,5,0,-1,-1,-1
1513231490640574,-2,1,0,-4,-2,-2,-2,-2
1513231490640574,-2,-1,-1,-1,0,-1,-2,0
1513231490669115,-1,1,1,-3,-2,0,-2,-1
1513231490669115,-1,-1,-2,-3,0,-2,-1,-1
1513231490669598,-1,-1,-1,1,-1,0,0,-2
1513231490669598,-1,0,-2,0,0,-1,-1,-1
1513231490684106,0,-1,-3,-3,-3,-3,0,0
1513231490684106,-1,0,-1,-3,-2,-1,-2,-2
1513231490684606,-1,-3,-1,1,0,-1,-1,-1
1513231490684606,0,-2,-2,-2,0,-2,-3,-2
1513231490697615,0,-2,-2,-1,-2,-1,-1,-1
1513231490697615,-2,-1,1,-3,-2,-1,0,-2
1513231490705620,-2,-1,-2,-1,0,-1,-1,1
1513231490705620,-3,0,0,1,-2,-1,-1,-1
1513231490720631,0,-2,-2,-1,0,-2,0,-1
1513231490720631,-1,-1,-1,0,0,-2,0,0
1513231490721633,-3,-2,-2,-4,-1,-1,-2,-2
1513231490721633,0,-2,-2,1,0,-1,-1,-2
1513231490743648,-2,0,-1,0,-2,0,-3,-2
1513231490743648,-1,-1,0,-1,0,-1,0,0
1513231490744665,0,-2,-1,-2,-1,-1,0,0
1513231490744665,0,-1,-2,0,-2,-1,-1,0
1513231490757670,-1,-3,-1,-1,-2,-1,-1,-2
1513231490757670,-1,-2,-2,-1,-2,-2,-2,-2
1513231490765663,-2,-2,-1,2,-3,0,-2,-1
1513231490765663,-1,-1,-3,-2,0,1,-1,-1
1513231490780702,-2,-1,-1,-3,-4,-1,0,-1
1513231490780702,-1,0,1,3,1,-2,-1,-1
1513231490781174,-1,0,0,-1,0,-1,0,-4
1513231490781174,0,-1,0,0,-2,-3,0,1
1513231490803689,-2,-1,-1,-1,0,0,-2,0
1513231490803689,0,-2,-2,-1,-2,-1,0,-2
1513231490804704,-1,0,-2,1,-1,-1,-1,-1
1513231490804704,-1,-2,0,-2,-1,1,-1,-2
1513231490825205,-1,-1,0,-1,-1,-2,0,0
1513231490825205,-2,2,-2,-3,-1,-1,-1,1
1513231490833242,-1,-2,-1,-1,0,0,-2,0
1513231490833242,-2,0,-1,-2,-1,-1,1,-1
1513231490840748,0,-1,-2,1,-1,0,-1,0
1513231490840748,-1,-2,-1,0,0,-1,0,-2
1513231490841745,0,-1,-1,0,-2,-2,-3,-1
1513231490841745,-2,-2,-1,-2,-2,-2,0,-2
1513231490863772,-2,-3,0,1,0,-1,-2,-3
1513231490863772,1,0,-1,-6,-3,-1,-1,0
1513231490864771,-3,0,-1,-2,0,-1,0,-1
1513231490864771,-2,0,-1,3,-1,-3,-1,-1
1513231490877329,-1,0,0,2,-1,0,0,-2
1513231490877329,-1,-2,-2,-1,-1,1,-3,0
1513231490885826,-2,-1,-2,-5,-2,-1,0,0
1513231490885826,0,-2,-3,-3,-3,1,-2,-2
1513231490900825,-1,0,2,-2,0,-1,0,0
1513231490900825,-3,-3,-1,-2,-1,-1,-1,-1
1513231490901326,-2,-1,-1,-1,-1,-1,-2,-2
1513231490901326,-2,1,0,-3,-3,-1,-2,0
1513231490931347,-1,-1,-3,2,0,0,-1,-1
1513231490931347,0,-2,-3,0,-2,0,-1,1
1513231490932347,-2,-2,-2,-2,0,-2,1,-2
1513231490932347,-1,-1,-2,-2,-1,0,1,-2
1513231490937351,0,-1,-1,-3,0,0,-1,-2
1513231490937351,1,0,0,0,0,0,0,2
1513231490953362,0,-2,0,0,-1,-1,0,-1
1513231490953362,0,0,-1,-2,-2,-2,-1,-1
1513231490960867,-2,1,-3,-5,-4,-1,-2,-2
1513231490960867,-1,-3,0,3,0,-1,-2,-1
1513231490961368,0,0,-1,-3,-3,0,-2,0
1513231490961368,-1,-1,-2,0,1,-1,-3,-2
1513231490983925,-2,-2,0,2,0,-2,-2,-2
1513231490983925,-3,0,-2,-2,-2,-2,-2,-4
1513231490984416,-2,-3,1,-3,-2,-2,-1,0
1513231490984416,-2,-1,0,4,-1,0,-1,-1
1513231490997425,1,-1,-4,-4,-1,0,-1,1
1513231490997425,-1,-1,-1,0,0,-1,-1,-1
1513231491005931,0,0,-2,1,-2,0,-2,0
1513231491005931,-2,-2,-1,-2,-1,-1,0,-3
1513231491020441,-4,-2,1,-2,-2,-2,-1,-2
1513231491020441,0,0,0,-1,0,2,1,2
1513231491021443,-2,0,-2,-1,1,-1,-2,-1
1513231491021443,-2,-3,-1,-3,0,-1,0,1
1513231491042957,0,-1,0,0,-2,-3,-2,-2
1513231491042957,-1,-1,-2,0,1,-1,0,0
1513231491050465,-1,-2,-2,0,-1,-1,1,0
1513231491050465,0,0,-1,-3,-1,0,-1,-2
1513231491066496,-1,-4,-2,1,0,-1,0,0
1513231491066496,-3,-2,0,-2,-2,-1,-2,-3
1513231491066974,-2,0,-2,-4,-1,-1,0,-2
1513231491066974,-1,-3,0,1,-4,-3,-1,-2
1513231491080504,-1,-2,-2,-2,0,-1,0,1
1513231491080504,-1,0,-1,-1,-2,-1,-1,-1
1513231491081494,-3,-1,-1,1,-1,0,-2,-1
1513231491081494,-1,0,-3,-6,-1,0,-1,-3
1513231491104000,0,-1,-1,-4,0,0,0,-2
1513231491104000,-1,-2,-2,2,-1,0,0,-2
1513231491104504,0,-3,0,-1,-1,-1,-1,-1
1513231491104504,-2,-2,-2,2,0,0,-1,-1
1513231491126519,-1,-1,0,2,0,0,0,1
1513231491126519,-2,-1,-2,-3,-2,-1,-1,-3
1513231491127016,0,-2,0,0,0,-3,-1,-2
1513231491127016,0,-2,-1,1,1,-2,0,-1
1513231491141040,0,-1,-1,-2,-3,-2,-2,0
1513231491141040,-3,-1,-2,1,-1,-2,-2,0
1513231491142041,-2,-1,-3,-1,-1,-1,-1,0
1513231491142041,-2,-2,0,1,-2,0,-3,-1
1513231491164046,-2,0,0,-6,-2,0,0,-2
1513231491164046,0,0,0,-1,-1,0,-1,-1
1513231491164544,0,-2,-2,3,-1,-1,-1,-1
1513231491164544,-2,1,-3,-10,-1,-1,-2,0
1513231491186058,-1,-1,-1,6,0,-2,-1,-2
1513231491186058,0,-2,-1,-3,-3,-2,-1,-1
1513231491187060,-1,0,-2,0,1,-1,-1,0
1513231491187060,0,-1,-2,-3,-2,0,0,0
1513231491200590,-1,0,0,-2,-2,-1,-1,-2
1513231491200590,-1,-1,-2,-1,-1,-3,0,-1
1513231491201571,-1,-1,-2,1,0,-1,0,0
1513231491201571,-1,-2,-1,0,-1,-1,0,0
1513231491224088,0,-2,1,-1,0,0,-2,-1
1513231491224088,-2,0,0,-1,-2,0,-1,-4
1513231491224586,1,-1,-1,-2,-2,-2,-1,4
1513231491224586,1,-2,-2,-1,-2,0,-3,-3
1513231491246614,-2,-1,-3,3,0,-2,1,-1
1513231491246614,-1,-1,-2,-2,0,-2,-2,-1
1513231491247103,-2,-1,-1,1,-1,-1,-1,-1
1513231491247103,-1,0,0,-1,-1,0,-1,0
1513231491260611,-1,0,-2,-2,0,-2,-1,-1
1513231491260611,0,-3,-2,-3,-2,-1,-1,0
1513231491261616,-2,-1,-2,-9,-3,0,-1,-3
1513231491261616,-1,-2,1,9,0,-2,-1,-1
1513231491283629,-1,-1,-2,-4,-1,0,-2,-4
1513231491283629,-1,-1,-3,0,-1,-1,-1,0
1513231491284630,-1,-1,-2,-2,0,0,-1,-2
1513231491284630,-1,0,-2,-4,-3,-3,0,-2
1513231491306643,0,-1,0,-1,-1,1,0,1
1513231491306643,-1,-1,-1,0,-2,-1,-2,-1
1513231491307145,0,-1,-1,-1,-2,0,-1,-1
1513231491307145,-2,0,0,-2,1,-3,-2,-1
1513231491328660,-2,-1,-2,-2,-1,-2,-2,-2
1513231491328660,-1,0,1,-1,-2,-2,-1,0
1513231491329661,-2,0,0,2,0,-2,0,-3
1513231491329661,-1,-1,-1,4,-2,1,0,-1
1513231491343680,-2,-1,-1,1,0,-1,-1,1
1513231491343680,-1,-3,0,-1,0,0,-1,0
1513231491344681,0,-2,0,-2,-2,0,-1,-3
1513231491344681,-1,0,-2,-3,-3,-3,-2,-2
1513231491366186,-2,-1,-2,-5,1,0,-2,-3
1513231491366186,2,0,1,2,1,1,2,4
1513231491367187,-2,-2,-2,-7,-1,-1,-2,-3
1513231491367187,-2,-2,0,3,0,-1,-1,-2
1513231491380699,1,0,-1,0,-2,-1,0,-1
1513231491380699,-1,0,-1,-3,-1,-2,0,-2
1513231491381197,0,0,-3,1,-1,-1,-2,0
1513231491381197,-1,-1,-1,-4,-2,-2,-2,0
1513231491403715,-2,-2,-1,-1,-1,-1,0,-1
1513231491403715,0,-1,0,1,-1,0,-1,-2
1513231491404715,0,0,-2,-4,-1,-2,0,1
1513231491404715,-2,-1,1,2,0,1,-1,-1
1513231491426231,0,-2,-1,-1,-1,0,1,-1
1513231491426231,-1,-2,-1,-3,0,-1,-1,-2
1513231491427229,-1,0,-1,2,-2,-1,0,-3
1513231491427229,-3,-2,-2,-3,-1,-2,-1,1
1513231491440753,-2,1,-1,-2,-1,-3,-1,2
1513231491440753,-2,-1,-2,4,3,-1,-1,-3
1513231491441744,-1,-3,-1,2,-1,0,-1,1
1513231491441744,-3,-1,0,-3,-1,-2,0,-2
1513231491471260,1,-1,0,-1,-1,-3,-2,0
1513231491471260,-1,0,-1,-3,-2,-1,0,-1
1513231491472263,-1,-1,-1,2,-2,-1,-1,-2
1513231491472263,0,-1,-2,-6,-1,0,2,1
1513231491486273,-2,-2,-1,3,0,0,0,-3
1513231491486273,-1,0,-1,-4,-3,0,-2,-2
1513231491487272,1,-1,1,0,0,-2,-1,1
1513231491487272,-1,-2,-1,2,0,-2,0,-1
1513231491500806,-1,-2,-2,-3,-2,-1,-1,1
1513231491500806,-3,-3,-1,-1,0,-1,-3,-3
1513231491501282,0,-2,0,-2,-4,-1,0,-1
1513231491501282,0,-2,-3,-4,-1,-1,-1,-2
1513231491523807,-2,-1,-1,2,-2,-1,0,-1
1513231491523807,-1,-1,-4,-3,0,-3,0,-2
1513231491524799,-3,1,-2,-2,0,-1,-1,0
1513231491524799,-1,-1,-1,-1,-1,-1,0,-2
1513231491546312,-2,0,0,1,0,0,-1,-1
1513231491546312,1,-1,0,-3,-2,-1,-1,0
1513231491547314,-3,-2,-3,1,0,-1,-1,-2
1513231491547314,-1,0,0,-3,-2,0,-1,0
1513231491560860,0,-3,-2,-2,-1,0,-2,2
1513231491560860,-1,-2,-1,-2,-2,-2,-1,-2
1513231491561325,0,-1,-1,-7,-2,-2,-1,2
1513231491561325,-2,0,-2,2,-1,-1,-2,-3
1513231491583849,0,0,0,-1,-1,-2,-1,-1
1513231491583849,-1,-1,-1,1,-2,0,-3,0
1513231491584850,1,-1,-1,0,-1,-1,0,-4
1513231491584850,-1,-1,-2,-3,-3,-1,1,1
1513231491606856,-2,-2,-1,-1,-2,-1,-2,-1
1513231491606856,0,-2,0,-3,-2,-2,0,1
1513231491607356,-2,-1,-1,0,0,-1,-1,-2
1513231491607356,-2,0,0,0,-1,-3,0,-1
1513231491619868,-1,-2,1,1,0,-1,0,-1
1513231491619868,0,0,-1,0,-1,0,0,-1
1513231491628371,-1,-2,-1,1,1,0,0,0
1513231491628371,0,0,-2,-3,0,-2,-3,-2
1513231491643882,1,-2,-1,1,-3,-1,0,-2
1513231491643882,-2,0,0,0,0,-1,0,-1
1513231491644383,0,-2,-1,-2,-2,1,0,3
1513231491644383,0,-1,-3,-5,-1,-1,-2,0
1513231491666398,0,-1,-2,4,-1,0,-1,-2
1513231491666398,0,-2,-2,0,-1,-1,0,1
1513231491666898,-1,0,0,2,-1,-1,-1,-2
1513231491666898,-1,-3,0,-2,-1,1,0,-1
1513231491679910,-1,0,-1,-7,-1,-2,-1,-1
1513231491679910,-2,-1,-2,0,1,-1,-1,-1
1513231491687969,-1,0,-2,-1,-2,-3,0,-3
1513231491687969,-1,-1,-2,-3,-1,-3,-3,0
1513231491703931,-1,1,0,0,0,-1,-1,-2
1513231491703931,-4,-1,0,0,-1,0,-2,-5
1513231491704425,1,-1,-1,-1,-1,-2,0,2
1513231491704425,2,0,-2,1,-3,-1,0,3
1513231491726462,-1,0,0,-4,-1,-2,-1,0
1513231491726462,0,-1,1,-1,-2,-3,-2,-1
1513231491726942,-1,-3,-2,-2,-4,-1,-2,-3
1513231491726942,-4,-3,-1,3,-1,-1,-3,-3
1513231491739969,-2,-3,-2,-3,-1,0,0,-1
1513231491739969,-1,-2,0,-3,-3,0,0,2
1513231491748959,-3,-1,-3,6,0,1,-1,-2
1513231491748959,-1,-1,-1,3,1,0,-1,-3
1513231491763967,-1,-1,-1,-1,-1,-1,-1,-2
1513231491763967,-1,-1,-1,-4,-1,-1,0,0
1513231491765468,-1,-1,0,-4,-1,-2,-1,-1
1513231491765468,-2,-1,-1,0,-1,0,-1,-1
1513231491786515,0,-1,-2,-2,-2,-2,1,-2
1513231491786515,2,0,0,1,1,1,1,5
1513231491788018,0,0,-2,-2,-3,-2,-2,-2
1513231491788018,-2,0,-1,-3,0,-3,0,-2
1513231491800036,-1,-1,-2,-2,-2,-1,-1,-1
1513231491800036,-2,-3,-2,-1,-2,-2,-1,-1
1513231491809032,-3,-3,-1,-1,0,1,-2,0
1513231491809032,1,-1,-1,0,0,-1,-2,-1
1513231491824045,-3,-2,-2,-2,0,-1,-1,-2
1513231491824045,-2,-1,-1,1,1,-1,-1,-3
1513231491825543,0,0,1,-2,0,-2,1,-1
1513231491825543,-2,-1,-3,-6,-3,-1,0,-2
1513231491846060,-3,-2,-1,4,0,-1,-2,0
1513231491846060,-1,0,-2,-3,0,1,-1,-1
1513231491848073,-1,-2,-2,4,-1,-1,0,-3
1513231491848073,-1,-2,0,-4,-1,-1,0,-1
1513231491860068,-1,-1,-2,-1,-2,-1,-2,2
1513231491860068,0,-2,-1,-3,-2,-2,-2,0
1513231491869074,-1,0,-2,-3,-1,0,-1,-1
1513231491869074,0,0,-1,0,-2,-1,-1,-3
1513231491884084,-1,0,-1,-1,0,2,-1,-1
1513231491884084,-1,-1,-2,-3,-3,-1,-3,0
1513231491886086,-1,-2,-1,-2,-3,-2,-1,-1
1513231491886086,-3,-3,-1,0,-2,-1,-2,0
1513231491906611,-4,-2,-1,-2,-1,-2,-2,-1
1513231491906611,0,0,-1,5,1,-1,-2,-2
1513231491908102,-1,-3,-1,-1,0,-2,-1,0
1513231491908102,0,1,1,0,0,-1,-1,-1
1513231491920111,0,0,-1,-3,-2,-1,1,-2
1513231491920111,-1,-1,-1,-3,-1,-2,0,-2
1513231491929134,-1,-1,-3,-2,-2,-1,0,-2
1513231491929134,-2,-2,-2,-6,-2,-2,0,-2
1513231491943636,0,-2,0,3,0,-1,1,0
1513231491943636,0,0,-2,0,1,0,-1,1
1513231491945638,-1,0,0,-4,-1,-1,-1,1
1513231491945638,-2,0,-1,1,-1,-1,-1,1
1513231491966145,-1,0,-2,-2,2,-1,-1,-5
1513231491966145,1,0,-2,-2,-2,-1,0,3
1513231491967643,-2,-1,-2,1,0,-1,-2,-1
1513231491967643,-2,-3,-1,-1,-2,-1,-1,-1
1513231491988658,0,-1,-1,-2,0,-2,-2,-1
1513231491988658,-2,-2,-1,-4,-2,-2,-1,-3
1513231491990675,-2,-2,-1,2,-2,-2,-2,-3
1513231491990675,-1,1,-1,2,-1,-2,-1,-1
1513231492003672,-3,-2,0,2,-1,-1,-1,-1
1513231492003672,-2,0,1,-3,0,-1,0,-3
1513231492005171,-1,-1,-1,-5,-1,1,-2,0
1513231492005171,-1,-2,-2,-2,-1,-1,0,-1
1513231492026188,0,-1,-2,-10,-3,-1,-2,-2
1513231492026188,2,-1,0,5,0,0,-1,1
1513231492028189,-2,-3,0,-1,0,0,-2,-2
1513231492028189,-1,0,0,1,-1,0,-3,-1
1513231492056206,-2,0,-2,-1,-1,1,0,0
1513231492056206,-1,-2,-3,-3,-1,-3,0,-2
1513231492057707,0,-1,-3,-1,-1,0,0,0
1513231492057707,1,-2,-2,-6,-2,-1,-2,1
1513231492063714,0,0,-1,4,-1,-1,-2,1
1513231492063714,-1,-1,-1,0,-1,-1,-1,-2
1513231492065213,-1,-1,-2,-4,-1,-1,-1,0
1513231492065213,-2,-1,-2,1,-1,-2,0,0
1513231492086247,-2,-3,-1,-2,-2,1,0,2
1513231492086247,0,-2,-2,-2,0,-2,-1,-1
1513231492088249,-1,-2,-1,-1,0,-1,-1,-3
1513231492088249,1,-2,-1,-1,-1,-2,-1,-1
1513231492108758,-1,-2,-1,-1,0,-1,0,-2
1513231492108758,-2,-1,1,1,0,-2,-2,0
1513231492110245,-3,0,-1,3,-1,-1,-1,0
1513231492110245,-3,-2,-1,-1,-2,-1,0,-1
1513231492123253,0,-1,1,1,-1,-3,-2,0
1513231492123253,-2,-2,-4,-5,-3,1,-1,-3
1513231492129773,2,1,-1,0,-1,-2,-1,0
1513231492129773,0,-1,-1,-2,1,2,-1,-1
1513231492146269,0,-1,0,2,-2,-1,-2,-3
1513231492146269,-2,-1,-3,-4,-4,1,-2,0
1513231492147771,-3,-2,1,2,0,-2,-1,0
1513231492147771,-3,0,-1,2,-2,0,-1,-1
1513231492168785,0,0,-1,-7,0,-1,-1,0
1513231492168785,0,2,0,0,-1,0,-2,-1
1513231492170286,0,0,-3,-1,-3,-1,-1,-1
1513231492170286,-1,-3,-3,-3,-1,-2,-2,0
1513231492183298,-1,-1,0,1,-1,-1,1,0
1513231492183298,0,-2,-1,0,0,0,0,-2
1513231492197328,-2,-2,-2,-11,-4,-2,-1,-1
1513231492197328,-2,-1,-1,5,-1,-2,-1,-2
1513231492213828,1,-1,-3,-2,-3,-2,0,-1
1513231492213828,-1,0,-2,-1,-1,-1,-1,0
1513231492215323,-1,-1,-1,-3,-2,-2,-2,-2
1513231492215323,-1,-1,0,6,0,-1,-1,-1
1513231492228831,-2,1,0,-1,-1,0,1,0
1513231492228831,-1,-3,0,-1,-1,0,-1,0
1513231492230340,-3,-1,0,-1,0,-2,-2,-5
1513231492230340,2,-2,-2,-3,-3,0,1,5
1513231492243349,-2,-2,-1,-1,-1,0,-2,0
1513231492243349,-2,-2,-1,-3,1,-1,0,0
1513231492249854,-2,-1,-3,-1,-1,0,-1,-1
1513231492249854,0,-1,-1,-3,-1,-2,-2,-3
1513231492266379,2,-2,-2,-1,-2,-2,-1,-2
1513231492266379,-1,0,-2,-4,-3,-1,-2,0
1513231492267857,-1,-2,-1,5,0,0,-1,-1
1513231492267857,-2,1,-1,-2,0,-2,-1,-2
1513231492288876,-1,-3,-1,2,-1,-2,-2,0
1513231492288876,-4,-2,-1,-1,0,-1,0,-3
1513231492290374,-1,-2,-1,-1,-1,0,0,1
1513231492290374,0,-3,-1,-7,0,-2,0,0
1513231492303407,-1,1,-1,-1,-2,-2,-1,-1
1513231492303407,-1,-1,2,2,1,-1,0,-2
1513231492309910,2,-1,-2,3,1,-1,1,6
1513231492309910,0,-2,0,-2,0,-1,-1,-1
1513231492333917,-2,0,-1,-6,-2,0,-2,0
1513231492333917,-1,-2,1,2,-1,-2,0,-3
1513231492335414,-1,0,-1,1,-2,-2,-1,-3
1513231492335414,0,-1,-3,1,0,-2,-2,-2
1513231492348915,-3,-1,-4,-1,-1,1,-1,-1
1513231492348915,-2,0,-2,2,-1,0,-2,0
1513231492350414,-1,0,0,-4,-1,1,-2,-1
1513231492350414,0,-2,-2,0,0,-1,-1,0
1513231492363923,0,0,-2,-5,-2,-2,-1,-2
1513231492363923,1,-2,-3,5,-1,-2,-1,0
1513231492369943,-1,0,0,-5,-2,-1,-1,-2
1513231492369943,-2,-2,1,3,1,0,0,0
1513231492386954,0,-3,-2,2,1,0,0,-1
1513231492386954,-1,1,-1,-4,-2,0,-2,-3
1513231492392443,1,-2,-1,-2,-1,-3,1,3
1513231492392443,-1,-2,-1,-5,-3,-2,-2,-2
1513231492408955,-2,-1,-1,0,0,-2,-3,-1
1513231492408955,-1,-1,-3,4,1,0,-1,1
1513231492410456,-5,-1,-2,-1,-1,1,0,-3
1513231492410456,-1,-1,0,-2,-3,-2,0,-1
1513231492423467,0,-1,1,0,0,-2,-3,-1
1513231492423467,1,0,-1,-1,-1,-2,-1,-1
1513231492430009,-2,-1,-1,-1,-1,-3,-2,-3
1513231492430009,1,0,0,-2,-3,1,2,0
1513231492446482,-2,-1,-2,-2,-2,-1,-2,-2
1513231492446482,-1,0,-2,2,0,-2,0,0
1513231492448000,2,-2,-1,-2,0,-2,-1,-1
1513231492448000,-1,0,-2,0,-1,-1,-2,-3
1513231492468998,-1,-1,-2,-9,-1,-1,0,1
1513231492468998,0,-1,0,-2,-1,1,0,0
1513231492470499,-1,-1,-1,4,1,-1,-1,-2
1513231492470499,-2,-2,0,-1,0,-1,0,-1
1513231492482509,-2,-1,1,0,-1,-1,0,0
1513231492482509,-2,-2,-1,-6,-2,-2,-1,-2
1513231492491517,-2,-2,-1,3,-1,-2,-3,-1
1513231492491517,-3,0,0,0,-1,-1,-3,-4
1513231492506524,2,0,0,0,-1,-1,1,3
1513231492506524,0,-2,-2,-2,-1,0,-2,1
1513231492508027,-2,-1,-2,-3,-2,-1,-2,-1
1513231492508027,0,-1,0,1,-1,0,1,-2
1513231492529041,-1,-2,-2,1,2,0,-2,-1
1513231492529041,-1,-2,-2,0,-3,-2,0,-2
1513231492530541,-1,0,-1,-3,-1,-1,-1,-2
1513231492530541,-1,-1,-4,0,-2,-2,-2,-1
1513231492542564,-2,-1,0,0,0,-1,0,-1
1513231492542564,-2,-2,-1,-2,-1,0,0,0
1513231492557561,-2,-3,-3,-5,-3,-2,-1,-3
1513231492557561,1,-2,-1,1,-1,1,0,5
1513231492574073,-2,-1,-3,6,-1,-1,-1,-2
1513231492574073,-1,0,-1,-3,-2,-1,-2,-3
1513231492575578,1,-1,1,1,-1,-2,-1,-1
1513231492575578,-3,-2,-1,-5,-2,-1,-1,-1
1513231492589108,-1,-1,1,-1,0,-2,0,-1
1513231492589108,-2,-1,0,-1,-2,-1,-1,1
1513231492590589,0,-1,-2,-3,-1,0,-1,0
1513231492590589,-1,-1,-2,-1,0,-1,-3,-1
1513231492602619,-1,-2,-1,-1,-1,-1,-1,-3
1513231492602619,-2,-2,-2,0,-1,-2,-1,-2
1513231492611624,0,-1,-1,-4,-3,-1,1,0
1513231492611624,-2,-1,-4,3,1,-1,-1,-2
1513231492625118,-2,-1,-1,-2,-1,0,-1,-1
1513231492625118,0,0,0,-3,-3,-1,-3,-1
1513231492634114,-2,-2,-1,2,1,-2,0,0
1513231492634114,-1,-1,0,-3,-3,-2,-3,-3
1513231492648626,-2,-2,-3,0,-2,1,-1,-1
1513231492648626,-2,-2,-1,-2,-2,0,0,-3
1513231492650640,-1,-1,-4,-1,0,-1,-2,-1
1513231492650640,1,-1,-2,-5,1,-1,0,-1
1513231492662637,0,-2,0,5,-1,-2,-2,0
1513231492662637,-1,-1,-1,-2,-1,-1,-2,-1
1513231492671141,-3,0,0,3,0,0,-2,-1
1513231492671141,-1,0,1,-3,-1,-1,-2,0
1513231492686170,-1,1,-2,-5,-2,0,-1,-4
1513231492686170,-1,-1,-1,-1,0,-2,0,-1
1513231492688156,0,0,-2,-2,-2,-1,1,-3
1513231492688156,-1,0,-1,0,-3,-1,-2,-2
1513231492716173,2,0,1,-2,0,-1,-1,1
1513231492716173,0,1,-2,3,1,-1,0,-1
1513231492717674,-2,-1,0,3,-2,-1,-1,-1
1513231492717674,-1,-2,0,-1,-2,0,1,0
1513231492722703,-3,1,-2,-9,1,-2,1,-2
1513231492722703,0,-1,-1,4,-1,-1,-1,-2
1513231492731199,0,-2,-1,-3,-1,-2,-3,-2
1513231492731199,-2,0,-1,-1,0,-2,-1,-2
1513231492746209,-2,-2,-1,0,-3,-1,-2,-3
1513231492746209,-1,-1,-2,-2,0,-2,-1,4
1513231492748212,-2,-2,-1,-2,-1,0,-1,0
1513231492748212,-2,-2,-2,1,-1,-1,-2,0
1513231492768725,0,-2,0,-5,-1,0,-2,0
1513231492768725,0,0,-1,-4,-1,0,0,1
1513231492770226,-1,1,0,2,-1,-2,-2,0
1513231492770226,-1,0,-3,1,0,0,-2,0
1513231492782235,-2,-1,0,3,-1,-1,-1,-3
1513231492782235,-2,-2,0,-4,-1,-1,-1,-1
1513231492791742,-2,1,-1,-4,0,-1,-1,0
1513231492791742,0,-2,-2,-1,-1,-2,-1,-3
1513231492806251,-1,-1,0,2,-1,0,0,-1
1513231492806251,-2,-1,1,-10,-1,-1,-2,-5
1513231492807752,-1,-3,-2,3,-3,-1,2,5
1513231492807752,0,-1,-1,-2,0,-2,0,-2
1513231492827782,0,-1,-1,0,-1,-4,-1,-1
1513231492827782,0,-3,-3,-4,-2,0,-1,-2
1513231492836273,-1,-3,-2,-3,-2,0,-2,-3
1513231492836273,0,0,-1,0,0,-2,-2,-1
1513231492842777,-2,1,-2,-2,-1,0,-2,2
1513231492842777,-2,-1,-1,-2,0,0,0,-2
1513231492851285,-1,0,-2,-4,0,-2,0,-1
1513231492851285,-1,-1,1,0,-3,-1,-1,0
1513231492865819,1,-1,0,3,0,-1,-1,-3
1513231492865819,-2,-2,-1,0,-1,-2,-3,-1
1513231492872301,-1,-1,-1,1,0,-3,-2,-2
1513231492872301,-3,-3,0,-1,-1,1,0,1
1513231492888817,-1,-1,-2,-6,0,0,-1,2
1513231492888817,-1,1,-1,9,-1,-1,-3,-4
1513231492890311,4,-2,-2,-6,0,0,0,3
1513231492890311,-2,-1,-2,0,-1,-2,-1,-2
1513231492911329,-1,-4,-3,0,0,-1,1,-1
1513231492911329,-2,0,-1,-2,-2,-2,1,1
1513231492912827,-3,-1,-1,1,0,0,-1,-4
1513231492912827,-1,0,-1,-3,-1,1,0,0
1513231492926378,1,-1,-1,-1,-1,-2,-1,0
1513231492926378,-1,0,-1,-6,-2,-1,-1,0
1513231492927869,-1,-2,0,0,-2,-1,-1,-1
1513231492927869,-1,-3,-2,0,-1,0,0,0
1513231492948895,-2,0,-1,-1,0,-1,-1,-1
1513231492948895,-1,0,-1,0,-1,-1,0,0
1513231492950385,-3,-1,-1,-3,-2,-2,-1,-1
1513231492950385,-1,-1,-1,-3,-2,0,-1,-1
1513231492971399,0,-2,-2,0,-1,0,-2,0
1513231492971399,1,-2,-2,-1,1,-1,0,-4
1513231492972900,0,0,-2,0,-1,-1,0,4
1513231492972900,-2,0,-1,0,-2,-2,0,-1
1513231492993925,-1,0,0,2,1,0,1,-1
1513231492993925,-1,-1,0,-7,-2,-1,-2,0
1513231492995426,0,0,0,4,0,-2,-1,-3
1513231492995426,0,-1,-3,-4,-2,1,-2,-1
1513231493008936,-2,0,-2,-1,-2,-2,-2,-1
1513231493008936,-2,-2,-3,1,-1,-3,-1,-1
1513231493010429,-1,-3,-2,-3,-1,0,-2,-3
1513231493010429,-1,-1,-2,-2,-2,-2,0,-1
1513231493031451,-2,-1,-1,-4,-2,-2,-1,-1
1513231493031451,0,-1,0,5,-1,-1,-1,1
1513231493032952,0,0,1,-1,0,-1,-1,0
1513231493032952,0,-2,0,0,1,-1,-3,1
1513231493046468,-1,-2,-2,-5,-2,-2,-2,-2
1513231493046468,-3,-2,-3,0,-1,-1,-1,-1
1513231493047978,0,-1,-1,-2,0,1,1,-3
1513231493047978,-1,0,0,-4,-1,0,-1,-1
1513231493068972,0,-1,2,3,0,-2,-1,-1
1513231493068972,-1,-2,0,-1,-2,-1,0,-2
1513231493070484,-1,-2,-2,-3,-2,-1,-2,-4
1513231493070484,0,-1,-2,0,0,0,0,-1
1513231493091522,-1,-1,0,-2,-1,-2,0,-2
1513231493091522,-1,-1,-1,-1,0,0,0,2
1513231493093023,-2,-3,-1,2,-1,-1,-1,-2
1513231493093023,-2,-3,-1,0,1,-1,-1,0
1513231493105545,-1,-1,-1,-3,-2,1,-1,-2
1513231493105545,-1,0,-2,3,1,0,0,-3
1513231493112571,-3,-2,-1,-4,-2,0,0,-2
1513231493112571,-2,0,-1,-1,-1,-2,-2,-4
1513231493128561,-3,-1,-3,-2,-1,0,-1,-1
1513231493128561,-2,-2,-2,-3,-2,-2,-2,-2
1513231493130548,0,-1,-3,-1,0,1,0,1
1513231493130548,1,-2,-1,-2,-1,-1,-1,0
1513231493151065,-1,-2,0,-1,-2,0,1,-1
1513231493151065,0,-2,0,-3,-3,-1,-1,-1
1513231493153064,-2,-1,-3,1,-2,-3,-1,-1
1513231493153064,-1,-1,-3,-7,-1,-2,0,-1
1513231493166100,0,1,-2,3,-1,-2,-2,0
1513231493166100,-1,-1,-1,4,0,0,-1,0
1513231493172579,-3,-1,0,-3,-2,0,0,-1
1513231493172579,0,-3,-1,-4,0,0,0,0
1513231493188600,1,-1,-2,-1,0,-1,-1,0
1513231493188600,-2,-3,0,-3,0,-2,0,-3
1513231493190590,-1,-1,-1,1,0,-2,0,1
1513231493190590,-1,-1,0,-1,-1,0,-2,-2
1513231493211112,-2,-1,-1,-1,-2,-2,-1,1
1513231493211112,-1,0,0,1,-1,-1,-2,-3
1513231493213107,-2,-1,-2,-3,-2,0,-1,-1
1513231493213107,-2,0,-2,2,-2,-1,-1,-2
1513231493225615,0,-1,0,0,0,0,-3,1
1513231493225615,-2,-3,-1,-4,1,0,-1,-1
1513231493232647,0,-2,0,-2,-2,-1,-1,-3
1513231493232647,0,0,-1,2,-1,-2,-2,-2
1513231493248657,-1,0,-1,-5,0,-1,-1,0
1513231493248657,-1,0,-3,1,0,1,0,1
1513231493250633,0,-1,0,1,-1,-2,-1,-2
1513231493250633,-3,-2,1,6,1,-1,-2,-2
1513231493271657,1,-1,0,-4,-2,0,1,3
1513231493271657,1,-1,-1,-2,-3,-4,-1,1
1513231493274651,-1,-2,-3,-2,1,0,-1,-2
1513231493274651,-2,-1,0,-2,-1,0,0,-1
1513231493285682,-3,-1,-2,1,-1,-1,0,-2
1513231493285682,-3,-1,-1,-2,0,0,0,0
1513231493292674,-2,-1,-1,-2,-3,-1,-3,-1
1513231493292674,0,-2,-2,1,1,0,-1,-1
1513231493308699,-2,-1,-1,0,0,-1,-2,-1
1513231493308699,-1,0,0,-2,-1,-1,0,-1
1513231493310181,0,-1,-1,1,0,-2,-2,-3
1513231493310181,-2,0,-1,-8,-2,-1,1,1
1513231493331202,0,-2,-1,8,2,0,0,0
1513231493331202,1,-1,-1,-4,-2,-1,-1,0
1513231493332692,-3,-1,-1,-3,-1,-1,0,-3
1513231493332692,1,-3,-3,0,-1,-1,0,1
1513231493345700,-1,-2,-2,3,0,-2,-1,-2
1513231493345700,-1,1,1,-4,-2,-2,-1,-2
1513231493352204,-1,-2,-3,3,-1,-1,-3,0
1513231493352204,-1,-2,0,0,-2,-2,-1,-2
1513231493368726,0,-1,-2,-4,-2,-2,0,0
1513231493368726,-1,-3,-1,0,0,-2,0,1
1513231493370217,-2,0,1,-5,-2,-1,-1,-1
1513231493370217,-2,1,-2,2,0,1,0,-2
1513231493390257,-2,-1,-1,-1,-1,0,0,-1
1513231493390257,1,-1,-2,-8,0,-3,-1,-3
1513231493398742,0,0,-1,6,-2,-2,-1,-1
1513231493398742,-2,-2,-2,1,0,-1,-1,-3
1513231493404747,0,1,-1,-3,-1,-1,1,-4
1513231493404747,2,0,-1,-1,-2,1,0,5
1513231493414253,-1,-1,0,-4,-2,-1,-2,-1
1513231493414253,0,-2,1,-2,-4,-2,0,-1
1513231493428781,-2,1,1,1,0,-1,-2,-2
1513231493428781,-1,0,-3,2,0,-2,-1,-3
1513231493430261,0,-2,0,-2,-1,-2,-4,-1
1513231493430261,-2,0,-2,-1,0,-2,-2,0
1513231493451285,-2,-2,-1,-4,-1,-2,-2,-1
1513231493451285,-3,-1,-1,-2,0,-1,0,-3
1513231493452776,-2,0,-2,-1,0,-3,1,0
1513231493452776,-2,1,-1,-2,-1,-1,-1,-1
1513231493464817,-2,-2,-2,0,0,-1,-1,0
1513231493464817,0,-1,0,-6,-2,0,-3,1
1513231493473790,0,-2,0,3,0,-1,-2,-1
1513231493473790,-1,-2,0,4,1,-1,-2,-1
1513231493488802,3,-2,-2,-1,-2,0,0,4
1513231493488802,0,-2,0,1,-1,-1,-2,-2
1513231493490302,-1,-1,-1,-6,-1,-1,0,-2
1513231493490302,1,0,-1,4,-1,-2,0,0
1513231493511317,0,-2,0,-1,-1,0,0,-1
1513231493511317,-2,-2,-1,0,-2,-4,0,-2
1513231493512818,-1,-1,0,0,0,0,0,0
1513231493512818,0,0,0,-3,-1,-1,-1,0
1513231493524826,-3,0,-1,-1,-1,-1,-1,-3
1513231493524826,-2,0,0,-1,-1,-1,-2,1
1513231493533833,-2,-2,-2,-5,-2,-1,-2,-1
1513231493533833,-3,-2,-1,0,0,-2,-3,-2
1513231493548844,-3,0,-1,-2,-1,-1,-2,-1
1513231493548844,-2,1,-2,1,-2,0,0,-3
1513231493550345,-2,-3,-1,-1,1,-1,0,-2
1513231493550345,-1,-1,-1,-2,-3,0,-1,-1
1513231493571359,-1,-1,0,-4,-2,0,-2,-3
1513231493571359,1,-2,0,9,1,0,1,4
1513231493572861,0,0,1,-1,0,-1,0,0
1513231493572861,0,-1,-2,-7,-2,-2,0,-1
1513231493584869,-1,0,-1,-2,-1,-1,-1,-2
1513231493584869,-3,0,-2,-2,-2,1,-2,-3
1513231493593888,0,-1,-3,-4,-1,-2,-2,-1
1513231493593888,1,-1,1,2,-1,-2,-2,0
1513231493608886,0,-1,-1,-1,-1,-1,-2,0
1513231493608886,-1,-3,-3,-3,0,-2,-1,-2
1513231493610409,1,0,-1,-1,-2,-1,-1,-2
1513231493610409,-2,0,-3,-2,-2,-1,-1,-2
1513231493631462,-1,0,-1,1,-1,-1,0,-2
1513231493631462,-2,0,-1,4,-1,0,-1,-1
1513231493632954,-1,-1,0,-4,-2,-1,-2,-1
1513231493632954,-1,0,-1,1,-2,-2,0,1
1513231493644962,-2,-3,0,4,-1,0,-2,-2
1513231493644962,0,-1,0,-3,-2,-4,-3,-1
1513231493654469,-2,-1,-3,1,-2,-1,-3,-1
1513231493654469,-2,0,-1,-5,-1,0,-2,-1
1513231493668979,-1,-2,-2,-4,0,-2,1,-2
1513231493668979,-1,-1,-1,4,0,-1,-1,-1
1513231493670480,-2,0,-1,-2,-1,1,-1,1
1513231493670480,-1,-3,-2,1,-1,-1,-1,0
1513231493691496,-2,-1,-1,0,-2,-1,-1,0
1513231493691496,-1,-1,-2,-5,-1,-1,-3,-2
1513231493692997,-1,-1,-1,5,2,0,0,-1
1513231493692997,-1,-1,-1,-1,-1,-1,-2,0
1513231493705016,-1,-1,-1,-1,-1,-1,-1,-1
1513231493705016,-2,-3,0,-4,-2,-3,-3,-4
1513231493720018,1,0,0,-2,-3,-1,-1,3
1513231493720018,-2,-3,0,-2,-2,-2,-1,-2
1513231493728521,0,0,-2,1,1,-1,1,-2
1513231493728521,-2,0,-1,-8,-1,-1,-2,-2
1513231493730523,-1,-1,-1,3,0,-1,-3,-2
1513231493730523,-1,0,1,0,0,-1,-1,-1
1513231493751541,-2,1,-1,-7,-2,-1,-2,-1
1513231493751541,-3,-1,-2,5,1,0,0,0
1513231493753039,0,0,-1,-3,-3,-1,0,-3
1513231493753039,-1,-1,-2,0,0,-1,-1,-1
1513231493765049,1,-3,-1,-1,-2,-3,-1,-1
1513231493765049,-1,-1,-2,0,-2,-1,1,-2
1513231493774054,1,0,-1,-3,-1,-1,0,4
1513231493774054,-1,-2,-1,-1,-1,-2,-1,-1
1513231493789064,-1,-1,-1,-1,-1,-1,0,0
1513231493789064,-1,-2,-3,-2,-3,-2,0,0
1513231493795070,-3,-3,-2,-1,-1,-1,-1,-3
1513231493795070,-1,-1,-1,-3,-1,1,0,-2
1513231493811093,-2,-2,-1,2,0,-1,-2,0
1513231493811093,1,-1,-1,-8,-2,-3,-1,-2
1513231493813102,1,-3,-2,7,-1,-2,-2,-4
1513231493813102,-1,-1,-2,-6,-2,-1,-3,0
1513231493825600,0,0,-1,-1,-2,-1,-2,-1
1513231493825600,-2,-1,0,-1,0,-2,1,0
1513231493834097,0,0,-1,-5,-1,-1,-2,0
1513231493834097,-2,1,-1,0,0,-2,0,-2
1513231493848663,0,-1,-1,-2,-2,0,0,2
1513231493848663,-2,-1,-2,-2,-1,0,-3,-2
1513231493850626,-4,-1,-2,-2,-2,-3,-1,-3
1513231493850626,-1,0,-1,4,0,2,-2,0
1513231493871124,0,-3,-1,0,0,-2,-2,0
1513231493871124,-1,-2,-2,-1,-2,-2,-1,-1
1513231493873127,-3,-1,-1,0,-2,-1,0,0
1513231493873127,-2,-2,-1,1,0,-1,1,-2
1513231493893639,-1,1,-3,-4,0,2,-1,-2
1513231493893639,0,-1,0,-6,-3,0,-3,0
1513231493895140,-1,-1,-3,-2,-2,-2,1,-2
1513231493895140,-1,0,-1,1,0,-1,-1,0
1513231493908650,-3,0,0,1,-1,-1,0,0
1513231493908650,1,-2,-1,-1,-1,-2,-1,0
1513231493910151,-2,-1,0,-6,-2,-2,-1,-2
1513231493910151,2,0,-1,-3,-1,-1,0,5
1513231493931164,-2,-2,-2,-1,-2,-2,-1,-1
1513231493931164,-1,0,-4,0,1,1,-1,-3
1513231493932665,0,0,0,-2,2,0,0,1
1513231493932665,-1,-1,-1,-1,0,-2,-1,-2
1513231493953698,-1,-1,-1,-4,-2,-1,-2,-2
1513231493953698,-1,-2,-1,5,0,1,0,0
1513231493956182,-1,-1,0,-2,-1,0,-1,-1
1513231493956182,-2,-2,-1,-1,-2,0,-2,-1
1513231493968702,-1,-2,-1,-5,-3,-2,-2,-3
1513231493968702,-2,-1,0,6,0,0,-2,-2
1513231493970195,-1,-2,0,2,-1,-1,0,-1
1513231493970195,-1,-1,-1,-5,-1,-1,-1,-1
1513231493991209,-1,-2,-1,0,0,-1,-1,0
1513231493991209,-1,-1,-1,-1,-1,-1,0,1
1513231493992710,-2,-2,-2,-3,-1,0,-3,-3
1513231493992710,-1,-1,-1,0,-2,0,1,-2
1513231494013725,-1,0,-2,-1,-2,-3,0,1
1513231494013725,-1,-1,-2,-3,0,-2,1,-4
1513231494015224,0,-2,-2,-1,-1,-1,-1,0
1513231494015224,-1,1,-2,0,0,-1,-1,-2
1513231494028236,0,0,0,0,-1,-1,-2,-2
1513231494028236,-2,-1,-1,1,0,1,-1,0
1513231494034739,-2,-3,0,-2,-2,-1,-1,-2
1513231494034739,-1,-3,-1,-8,-2,-1,-1,-1
1513231494051274,-2,-2,-1,5,-1,0,0,-3
1513231494051274,-2,0,0,-4,0,-2,-2,-2
1513231494052751,-2,-2,-1,-1,-1,-1,-1,0
1513231494052751,1,-1,0,-2,-1,-1,-3,-2
1513231494073766,1,-1,-1,-7,-3,0,0,-1
1513231494073766,-2,-1,-1,1,-1,-1,0,0
1513231494075266,-3,0,-2,-2,-2,-1,-2,-1
1513231494075266,-1,-1,-2,0,0,-3,-2,-1
1513231494088289,-2,0,-1,-2,-1,-2,0,0
1513231494088289,1,0,-1,-1,-1,0,0,-2
1513231494102296,-1,-1,-3,-1,-1,-2,-1,0
1513231494102296,-3,-2,-2,2,-1,0,-1,-1
1513231494111293,2,-1,-2,1,0,-1,-3,-1
1513231494111293,-2,-2,0,-5,-3,-1,-1,-2
1513231494112797,1,-1,-1,-4,-1,-1,0,-1
1513231494112797,-1,-1,-1,-3,-1,0,0,-3
1513231494132810,-3,-3,-3,7,2,0,0,1
1513231494132810,-3,-1,-4,-2,-2,-3,0,0
1513231494141318,0,-2,-1,-1,-1,-1,-2,-2
1513231494141318,-1,-1,-1,-2,-3,-2,-1,-1
1513231494148322,-3,-1,-3,-4,-2,-1,0,-2
1513231494148322,0,-1,-1,-2,-3,0,-1,-1
1513231494154824,-1,-2,0,0,-2,0,-1,0
1513231494154824,-1,-1,-2,-1,-1,1,-2,-1
1513231494171351,0,-2,-2,-3,-2,1,-1,-2
1513231494171351,0,-2,-1,3,0,-2,-1,-1
1513231494172835,-2,0,-1,-3,0,-1,0,-2
1513231494172835,0,-1,1,2,0,-1,-1,0
1513231494193852,-3,-2,0,-4,0,-1,-2,-2
1513231494193852,0,-2,-2,-4,-2,-1,0,-1
1513231494195353,-1,-1,-2,0,-1,-3,0,-4
1513231494195353,0,-1,-2,-9,-1,-2,0,5
1513231494208379,-3,0,0,11,0,-1,-2,0
1513231494208379,0,-1,-1,-2,-2,-1,-2,-2
1513231494214887,1,0,-2,0,0,0,0,0
1513231494214887,0,-1,-2,3,0,0,-1,-2
1513231494231377,-1,-2,0,-5,-1,-2,-1,-1
1513231494231377,-3,0,-2,-2,-1,-1,-2,0
1513231494232878,-3,0,-2,-1,-2,0,-1,-2
1513231494232878,-2,-2,-1,-1,0,-2,-2,-1
1513231494252915,0,0,-2,-5,-1,-2,0,0
1513231494252915,-3,-2,0,2,-1,0,-1,-1
1513231494261407,-3,-3,-1,-2,-3,0,-2,0
1513231494261407,0,-1,0,3,-1,-1,-2,-1
1513231494267939,0,-1,0,0,1,-1,-1,-5
1513231494267939,1,0,-1,-5,-1,-1,0,2
1513231494274910,-1,0,-2,-5,0,-1,-2,0
1513231494274910,-2,-2,-2,4,0,0,-1,-2
1513231494291433,-1,1,-1,-7,-4,-1,-2,-2
1513231494291433,-1,0,-1,1,-1,-2,-2,-2
1513231494292930,0,0,-1,0,1,-1,0,1
1513231494292930,-2,0,-1,-1,-1,-2,-1,-1
1513231494313937,-1,0,-1,-6,-2,-1,-1,-1
1513231494313937,0,-3,-1,-8,-1,0,-2,-2
1513231494315439,0,-2,-2,4,-1,-2,-1,1
1513231494315439,-3,-2,-2,-1,1,-1,1,-2
1513231494327947,-2,-1,-1,-4,-3,-2,-1,1
1513231494327947,-1,-1,-2,0,-2,-2,-1,0
1513231494334953,0,-2,-1,1,-1,-2,-2,-3
1513231494334953,-1,-1,-1,-1,-2,-2,-2,-1
1513231494351463,0,-1,-1,1,0,0,-1,1
1513231494351463,-1,-1,-1,-1,-1,-2,-1,-4
1513231494352981,2,-1,1,0,-1,0,0,3
1513231494352981,0,-1,-1,-1,-2,-1,-1,-1
1513231494381484,0,-1,-1,-4,0,0,0,-2
1513231494381484,-2,0,0,2,-3,-2,-1,-2
1513231494382985,-1,-1,0,-1,-1,0,0,-2
1513231494382985,0,-2,-1,-7,-1,-1,0,-1
1513231494387488,-2,-2,-1,6,-2,-1,-1,-3
1513231494387488,-2,-2,-1,-3,2,0,-1,0
1513231494396496,-1,-2,-3,-1,0,-2,-1,-2
1513231494396496,-1,-1,-2,-1,-1,0,0,0
1513231494411004,-2,-2,-2,-3,-2,-2,-2,-1
1513231494411004,-1,-1,0,-4,-2,0,0,-1
1513231494419009,-2,0,-1,1,0,0,-1,0
1513231494419009,-1,-1,0,0,-1,-1,0,1
1513231494441038,0,-1,-2,0,0,-2,-3,-3
1513231494441038,1,-1,-1,0,-1,-1,1,3
1513231494443027,-1,-1,-1,1,-2,-1,1,-1
1513231494443027,-1,-2,0,-1,-1,-1,-1,-2
1513231494447566,0,2,-2,1,-2,-3,1,-1
1513231494447566,2,-1,-1,-4,-2,-2,-1,-2
1513231494457042,-2,-1,-1,-3,-2,-2,-1,0
1513231494457042,-1,-2,-1,2,-1,0,0,0
1513231494471550,-2,-2,-1,-6,-3,-1,0,-2
1513231494471550,-2,-2,-4,2,-2,-3,-2,-3
1513231494473050,0,-1,-1,-1,0,-1,-1,0
1513231494473050,-1,-1,-1,-2,-1,-2,0,0
1513231494501571,1,-2,0,-2,-1,-1,-1,0
1513231494501571,0,-2,-1,2,-1,-1,0,-2
1513231494503074,-2,-2,-1,-2,-2,-2,-3,-3
1513231494503074,-1,0,-1,1,1,-2,-2,0
1513231494507576,0,-1,0,-2,-2,-1,-2,-1
1513231494507576,-3,0,0,-3,-2,-2,-2,-4
1513231494516596,1,-2,-2,-1,-2,1,0,5
1513231494516596,0,0,-2,1,0,0,-2,-2
1513231494531090,-2,-2,-1,2,1,1,-1,1
1513231494531090,0,0,-2,-1,-2,-1,-1,0
1513231494533091,-1,0,0,-3,0,0,-1,-4
1513231494533091,1,1,0,-3,-3,-1,1,-2
1513231494553604,-1,-1,-2,0,-1,-1,0,-1
1513231494553604,-1,-1,0,0,-1,0,0,-2
1513231494561110,-2,-1,-1,-2,0,-2,-2,-4
1513231494561110,-1,-1,-1,-1,0,-1,-1,-1
1513231494567614,-1,-2,-2,1,-1,-2,-3,-1
1513231494567614,-2,0,-2,-1,-1,-2,-1,2
1513231494576620,-1,0,-2,0,-1,-2,-1,-1
1513231494576620,1,0,-1,0,-3,-1,-1,-1
1513231494591181,-1,-1,0,-4,-4,-1,-2,-1
1513231494591181,-2,-3,-1,-1,-2,-1,-1,-1
1513231494592682,-3,-2,0,2,1,0,0,-3
1513231494592682,2,0,0,-2,0,0,-1,4
1513231494613706,-2,-1,-2,-2,-1,-1,-1,-1
1513231494613706,0,-2,-1,0,-1,-1,0,0
1513231494615686,0,1,-1,1,-2,-1,0,-3
1513231494615686,-3,-2,-3,-5,-2,-1,-1,-1
1513231494627697,0,-2,-1,0,1,-2,0,-3
1513231494627697,-1,0,-3,1,0,-1,-1,-3
1513231494643710,-1,-1,0,0,-1,0,1,-1
1513231494643710,0,-2,-2,0,-1,-1,-3,-1
1513231494658738,0,-1,-2,-2,-3,-2,-2,1
1513231494658738,-1,-3,-2,-2,-2,-2,0,-3
1513231494660217,-1,0,-1,-3,-3,-2,-3,-1
1513231494660217,-4,-1,0,-3,-1,-1,-2,-1
1513231494673727,-2,-1,-4,-4,-1,0,-1,-2
1513231494673727,-3,1,-2,-8,-2,0,-2,-3
1513231494675228,0,-2,-3,2,-1,-1,-2,0
1513231494675228,-3,-3,1,1,-2,-2,-1,-3
1513231494686737,-3,-3,1,-2,0,-1,-1,1
1513231494686737,0,-2,-1,4,-2,1,-2,-1
1513231494696278,2,-1,7,23,5,1,1,1
1513231494696278,-2,0,-7,-16,-1,-1,-2,-5
1513231494711297,-2,-2,-3,5,2,2,1,1
1513231494711297,0,1,2,-18,-6,-5,-1,-1
1513231494712789,0,-1,1,-4,-2,0,-1,-4
1513231494712789,4,-1,1,22,8,3,4,7
1513231494733805,-3,-2,1,6,2,-1,-3,-3
1513231494733805,-1,-2,-4,4,0,-1,-2,0
1513231494735306,-2,-1,5,-12,-6,-4,-2,-3
1513231494735306,-2,2,-2,-5,-5,0,-2,0
1513231494747323,-4,-4,-2,-20,-3,-3,-1,-1
1513231494747323,3,1,1,8,1,-2,-1,-2
1513231494756319,-5,-2,-5,-7,-1,-3,-1,-1
1513231494756319,3,1,-1,7,-1,1,-4,-3
1513231494771332,-6,-4,2,2,-1,-1,-2,-1
1513231494771332,-2,-4,-2,0,-1,-3,-2,0
1513231494772833,1,2,2,-11,-1,-2,-1,0
1513231494772833,1,-1,1,4,-1,-2,1,-4
1513231494793851,-7,-1,-2,1,-4,0,3,2
1513231494793851,3,0,-3,2,0,1,-7,-3
1513231494795350,-2,-1,-8,-7,0,0,0,0
1513231494795350,4,-5,-2,1,0,0,-2,-4
1513231494816376,-2,-1,-2,0,-4,-3,-3,-4
1513231494816376,-1,0,5,1,-1,1,1,-3
1513231494817873,7,6,-11,-8,-1,1,1,9
1513231494817873,-8,-6,2,-7,-3,-2,-2,-3
1513231494831373,-10,-7,3,12,2,0,0,-2
1513231494831373,-4,-5,-3,0,1,0,-1,-3
1513231494832875,-2,-1,-2,-5,-5,-1,0,-3
1513231494832875,-5,0,2,-6,0,0,4,5
1513231494853902,16,7,-6,14,5,3,4,3
1513231494853902,3,-2,-1,3,-2,-2,-6,1
1513231494856406,-7,-2,18,3,-1,-2,-4,-9
1513231494856406,7,6,-16,-11,-1,0,2,11
1513231494876930,3,-4,0,-4,-7,-4,-4,-6
1513231494876930,-7,1,-2,-11,-3,0,4,-1
1513231494878411,9,1,6,10,5,1,2,3
1513231494878411,-14,-5,-3,-9,-7,-4,-3,-5
1513231494891420,11,0,-3,-1,-1,-2,-2,0
1513231494891420,-6,2,17,4,2,-1,1,0
1513231494892920,5,1,-9,-9,-4,-3,-3,-1
1513231494892920,0,-2,-1,-6,-2,-3,-4,-7
1513231494913933,-1,4,-6,6,2,3,6,9
1513231494913933,9,-3,8,18,0,-1,-2,-6
1513231494915431,-29,-7,-8,-1,-1,-3,-7,-9
1513231494915431,8,3,1,10,7,6,7,6
1513231494936446,1,-1,-4,-21,-4,-2,-4,-2
1513231494936446,-6,4,-6,-12,-2,1,-5,-2
1513231494938460,-13,-3,9,20,1,0,4,4
1513231494938460,8,-7,-15,-16,-6,-5,-7,-14
1513231494950978,-3,1,7,-17,-2,-2,0,3
1513231494950978,8,3,-5,13,4,1,6,10
1513231494957462,-16,-13,-12,-4,-1,-2,-8,-10
1513231494957462,-19,-5,12,5,-3,-4,-4,-4
1513231494973985,-5,-2,-1,-4,0,-1,6,-6
1513231494973985,9,6,-2,-15,-3,1,9,9
1513231494975486,5,4,-8,-5,-4,-5,-31,-5
1513231494975486,-11,0,6,9,3,0,1,-1
1513231494996492,1,6,3,-3,-1,-2,-6,-7
1513231494996492,-10,-8,-14,-1,0,-2,11,9
1513231494997994,32,0,-1,6,1,1,5,-3
1513231494997994,-6,3,8,8,-3,-1,-4,-2
1513231495010503,-16,-11,-7,4,-4,-6,-6,-9
1513231495010503,9,6,-4,-20,-3,0,0,0
1513231495017562,-20,-9,-2,-2,1,0,4,2
1513231495017562,8,0,-8,-5,-2,-2,-1,0
1513231495033517,-12,-1,0,-2,-2,-2,1,-3
1513231495033517,-13,-8,1,4,-4,-4,-4,-6
1513231495035018,10,3,-4,-6,-3,0,16,4
1513231495035018,10,3,9,11,4,0,-31,1
1513231495056534,-5,-3,-3,2,-2,0,-6,-2
1513231495056534,-4,0,-3,-2,-1,-4,-16,2
1513231495058042,24,0,2,-6,-3,-1,18,-5
1513231495058042,-2,-3,-1,-17,-5,-1,9,3
1513231495071044,9,-4,-1,13,2,0,-11,4
1513231495071044,-17,-7,-2,2,-1,-2,-4,-6
1513231495079047,-2,-3,-3,-3,-1,-1,-29,0
1513231495079047,2,4,0,1,-1,2,10,3
1513231495094062,0,-4,3,-5,-3,-2,-7,-9
1513231495094062,8,-1,-5,-7,1,2,11,1
1513231495095563,-9,3,2,2,-2,0,5,0
1513231495095563,0,1,-5,7,0,-2,-5,-3
1513231495116075,-5,-6,-3,-10,1,3,4,-2
1513231495116075,-1,-9,-1,13,-2,-3,-3,-6
1513231495117575,-4,1,-8,-17,-1,0,24,4
1513231495117575,-6,-2,-8,-11,-4,2,-5,-7
1513231495130585,-5,-7,6,18,0,-5,5,5
1513231495130585,-8,3,-7,-14,-4,-4,-2,-6
1513231495137590,1,-1,2,3,2,1,8,9
1513231495137590,13,-1,16,4,0,1,-17,-6
1513231495154110,-18,11,-19,-10,-6,-4,-1,-3
1513231495154110,-5,-9,-10,-8,-1,0,-7,-1
1513231495156615,0,22,20,6,0,-2,13,-2
1513231495156615,-5,-19,-12,0,-1,2,5,4
1513231495176136,5,-30,-1,-1,0,-1,-4,0
1513231495176136,3,16,-7,-1,-2,-1,-7,-5
1513231495178120,15,-22,-11,-3,-3,0,9,1
1513231495178120,-3,15,3,0,-1,-4,24,7
1513231495190630,14,15,5,2,2,-4,-26,-6
1513231495190630,1,0,3,-3,-1,0,0,5
1513231495197634,-18,2,4,3,1,-1,-11,-10
1513231495197634,2,-4,-1,7,2,1,24,-1
1513231495213642,6,5,-11,-10,-2,-3,-18,2
1513231495213642,0,-4,1,-7,-4,-1,-6,-9
1513231495215145,-1,-8,-9,-3,-2,-1,8,10
1513231495215145,-2,-8,1,-3,-5,-8,-42,-15
1513231495236160,-12,-7,-1,2,-1,1,10,6
1513231495236160,-8,-5,6,7,4,3,2,-5
1513231495237661,12,6,8,-1,-4,-2,3,1
1513231495237661,-7,25,-13,-3,-2,-7,-21,-2
1513231495250692,-2,-2,-1,-7,-3,0,2,-6
1513231495250692,4,11,10,1,1,-3,-12,-2
1513231495257176,-3,-12,-14,-2,2,0,-5,9
1513231495257176,10,1,2,-1,-1,1,20,2
1513231495274184,0,-2,2,-3,-2,-5,29,-4
1513231495274184,4,7,-2,-3,0,-3,-14,5
1513231495275686,-6,0,3,2,-2,-2,-7,-11
1513231495275686,6,-3,-7,-14,-5,-3,6,12
1513231495296203,7,-2,1,0,2,1,-1,2
1513231495296203,-6,-8,-6,8,-1,-1,13,-7
1513231495297704,-9,3,2,-2,-1,0,-4,5
1513231495297704,-10,-20,0,5,1,0,-5,-5
1513231495309727,-2,10,-1,-1,-4,-1,8,-1
1513231495309727,-5,-36,-7,-6,-4,-3,6,-5
1513231495318718,-3,13,9,2,-1,-1,21,7
1513231495318718,9,-1,-13,0,0,-2,-41,-9
1513231495333730,-8,-6,11,-4,-1,1,-5,-5
1513231495333730,-4,9,2,3,2,3,2,8
1513231495335231,-5,-4,-5,-1,-1,-4,-15,-5
1513231495335231,-7,-3,-1,-5,-2,0,23,1
1513231495356246,-2,-9,5,7,5,1,-10,5
1513231495356246,2,30,-1,2,-4,-2,-2,-5
1513231495357754,7,25,6,-8,2,6,8,5
1513231495357754,-14,-17,-9,0,-3,-5,15,-1
1513231495370256,18,25,1,1,-1,-4,-43,-4
1513231495370256,-22,-49,3,-6,-1,1,12,0
1513231495378759,4,61,0,4,-2,-1,-18,-1
1513231495378759,-13,-49,0,2,-1,0,22,-2
1513231495393772,3,35,-7,-4,-4,-2,-8,0
1513231495393772,3,-14,11,-3,-3,-3,0,0
1513231495395274,0,4,-12,-1,2,2,12,-1
1513231495395274,-6,-37,2,-6,-4,-3,-27,-6
1513231495416789,8,9,-5,1,-4,-4,35,13
1513231495416789,15,39,5,10,4,1,-8,2
1513231495418287,-21,-40,8,8,1,-3,-26,-16
1513231495418287,6,17,-18,-30,-6,-3,15,4
1513231495429795,18,-7,13,10,1,2,11,-4
1513231495429795,2,1,-14,-7,-2,-4,-32,2
1513231495438802,-8,-11,12,6,0,-2,-4,4
1513231495438802,9,-25,-5,0,-3,-1,-7,-6
1513231495453816,-3,14,14,1,1,1,23,1
1513231495453816,-8,-9,-18,-10,-2,0,7,-18
1513231495456317,4,-31,-8,-1,-2,-2,-5,5
1513231495456317,10,40,4,7,5,5,22,2
1513231495476342,-5,-7,10,-8,-5,-2,-38,-3
1513231495476342,4,-14,-1,10,2,4,24,8
1513231495477829,-13,-12,-8,-10,-4,-6,-9,-4
1513231495477829,-10,-6,-18,-1,1,3,29,6
1513231495489839,-7,2,-5,3,-1,-2,-41,-15
1513231495489839,3,26,22,8,0,-6,-3,-5
1513231495498844,9,-24,-13,-14,-4,0,1,1
1513231495498844,-7,-22,8,1,0,-3,0,3
1513231495513893,-9,-30,-29,-14,-5,-5,-4,-18
1513231495513893,-11,31,-5,0,-1,-1,-20,-13
1513231495515355,14,15,9,-4,-3,0,8,2
1513231495515355,-5,13,0,0,-3,-5,-13,-10
1513231495536372,9,-1,18,11,1,-3,9,9
1513231495536372,-11,-38,-11,-1,-2,-3,15,10
1513231495537872,11,8,-13,-5,-2,-8,-60,-16
1513231495537872,16,62,13,-1,0,3,-6,11
1513231495549935,-18,-43,-6,-1,0,1,29,-3
1513231495549935,-2,15,7,-1,-2,-3,-7,-7
1513231495558889,2,-15,-27,2,-1,1,13,6
1513231495558889,6,21,14,2,-4,-4,-15,-2
1513231495573898,4,40,9,-7,-4,-6,0,1
1513231495573898,-4,-75,-19,-3,0,2,15,-1
1513231495575398,1,45,15,11,3,1,1,13
1513231495575398,2,-3,-6,7,2,-1,-5,-21
1513231495596435,-3,38,-5,-14,-2,1,42,18
1513231495596435,-11,-6,-6,-3,-3,0,-15,-2
1513231495597917,-20,-9,-5,-26,-6,-6,-5,-7
1513231495597917,8,-6,9,8,-2,0,7,8
1513231495610427,12,3,4,13,4,2,-10,6
1513231495610427,-8,28,0,-12,-1,4,26,-1
1513231495626436,-12,-62,5,6,-1,-3,-47,-11
1513231495626436,-3,48,26,13,2,0,27,9
1513231495633942,-28,-127,-54,-13,-1,5,10,-5
1513231495633942,30,82,6,-3,-10,-12,-18,2
1513231495635442,-11,42,11,-1,1,0,2,-7
1513231495635442,1,-26,-15,-6,-7,-6,-24,-6
1513231495655955,3,36,4,7,3,-1,-3,-2
1513231495655955,-6,-41,24,18,2,4,31,11
1513231495657457,-10,-1,-24,-19,-9,-5,6,7
1513231495657457,14,19,7,4,3,-1,-49,-15
1513231495669968,-6,-24,-9,-11,0,1,2,0
1513231495669968,-6,15,1,0,2,2,31,0
1513231495678971,36,34,-13,-5,-2,-4,-39,3
1513231495678971,-19,-47,11,15,6,8,13,-6
1513231495693999,15,59,7,6,6,7,-5,7
1513231495693999,8,-43,4,2,4,0,-14,-9
1513231495695495,3,24,13,12,-1,-2,42,1
1513231495695495,6,62,-20,-33,-8,-4,-33,8
1513231495717513,-5,-12,7,16,1,0,-8,-13
1513231495717513,-2,-17,13,-2,-3,-4,0,-3
1513231495719503,-5,-2,-2,3,3,1,31,-7
1513231495719503,10,-15,-4,19,9,3,8,15
1513231495738515,-26,37,6,-18,-8,-5,-14,-12
1513231495738515,20,4,-14,-6,0,4,-19,4
1513231495740540,-1,15,34,12,0,2,29,4
1513231495740540,3,-21,5,2,2,3,33,-1
1513231495753562,-7,-46,-16,-3,-2,0,-41,-6
1513231495753562,-14,36,24,8,3,4,30,-4
1513231495756526,10,-74,-3,4,1,0,-49,-5
1513231495756526,-4,-23,-36,-8,-10,-10,6,-10
1513231495776541,-3,-17,-10,-17,-3,-4,-4,6
1513231495776541,-9,5,-14,-2,-2,-2,-25,3
1513231495778042,22,-12,-8,4,0,5,18,-17
1513231495778042,-10,12,43,-6,-1,1,-2,0
1513231495798558,12,9,-49,-13,-5,-1,29,4
1513231495798558,-8,-5,-11,-3,-2,-5,-23,-5
1513231495800559,-10,42,7,-7,-2,-7,-7,-3
1513231495800559,-15,-78,-6,-7,-1,2,39,12
1513231495813589,-15,27,6,10,-2,-5,4,8
1513231495813589,34,9,-32,-17,-10,-5,-11,-5
1513231495815590,-3,12,25,19,6,6,13,1
1513231495815590,-7,19,-33,-10,0,0,-1,-4
1513231495836084,14,-41,29,7,-6,-6,-1,-10
1513231495836084,-8,-15,-6,-7,1,-1,-51,13
1513231495838083,-11,-37,-13,5,0,4,17,0
1513231495838083,15,-3,11,-2,4,2,25,13
1513231495858608,-10,45,12,12,2,-3,-39,-20
1513231495858608,-3,25,7,-9,-2,-2,5,-13
1513231495860601,-22,-44,-41,-10,-7,-5,-4,-6
1513231495860601,-5,-2,9,-1,-2,2,27,9
1513231495873662,23,47,35,11,2,-6,-35,-5
1513231495873662,4,-2,-20,-6,-3,2,26,13
1513231495875174,-8,38,12,1,2,-1,-38,-4
1513231495875174,-4,31,-24,6,-2,-4,-12,-2
1513231495896680,-1,7,21,1,-3,1,28,-1
1513231495896680,-4,19,-11,-16,-6,-3,0,4
1513231495898681,-6,-22,-19,0,1,2,10,-2
1513231495898681,1,37,11,2,-5,-4,8,8
1513231495918694,-4,-48,8,3,5,10,-14,9
1513231495918694,18,-31,14,6,-2,-7,-16,4
1513231495920195,0,32,-13,-8,-1,0,19,-1
1513231495920195,0,-34,-15,-15,-6,-6,-17,4
1513231495933204,-6,19,-36,-12,-5,-4,-5,-11
1513231495933204,-12,4,-6,-3,1,2,5,-2
1513231495939709,-5,-27,30,6,0,-2,-12,0
1513231495939709,1,-5,-1,7,0,-1,-8,-13
1513231495956257,10,25,11,2,0,0,29,8
1513231495956257,-6,5,17,8,2,-2,-12,-7
1513231495957758,2,-27,-23,-6,-3,-3,-7,-9
1513231495957758,-23,-20,-6,-2,-1,2,-4,-1
1513231495978775,28,4,7,0,-3,-7,-24,9
1513231495978775,-4,5,19,11,3,0,1,-10
1513231495980273,-18,-25,-38,-23,-13,-8,3,-8
1513231495980273,16,51,43,16,4,3,-11,19
1513231495993301,-12,-116,-46,-9,-5,-2,8,-21
1513231495993301,-20,7,-2,-2,-5,-3,15,6
1513231495999806,16,45,31,12,6,2,-12,0
1513231495999806,0,-4,-29,-12,-5,-2,-1,-17
1513231496016315,4,18,36,4,5,3,25,14
1513231496016315,19,-3,-12,12,-1,-5,-18,-4
1513231496017802,-12,-24,-35,0,-2,-2,5,-5
1513231496017802,-18,-5,8,-5,-3,0,33,2
1513231496046332,4,28,6,13,7,1,-34,0
1513231496046332,-3,14,31,3,3,5,28,5
1513231496047822,-6,-36,-21,-8,0,-2,-7,-1
1513231496047822,14,49,50,16,4,-2,22,6
1513231496053333,7,-39,-21,0,1,1,-51,-12
1513231496053333,-17,-46,-1,-1,4,7,27,9
1513231496059829,5,16,-9,-5,-4,-1,8,-2
1513231496059829,-10,-17,-13,-12,-5,-2,-29,-11
1513231496076341,4,2,12,10,3,4,47,11
1513231496076341,10,34,-2,1,5,5,-10,3
1513231496077854,1,26,20,-2,0,2,-1,6
1513231496077854,-5,-30,-8,2,-4,-5,-24,-12
1513231496098868,-10,29,-7,-9,0,1,28,6
1513231496098868,-6,-52,-22,-1,-5,-2,-5,10
1513231496100361,-7,52,33,5,1,2,31,-16
1513231496100361,-13,17,-14,-10,1,-2,-24,-16
1513231496113367,13,-13,-7,-4,-5,-6,10,10
1513231496113367,-17,-55,-29,-11,1,1,-20,-11
1513231496119894,8,74,22,-7,-5,-3,19,7
1513231496119894,-4,15,-6,-1,-6,-1,-2,-4
1513231496135883,-16,-22,8,-13,-6,-3,8,6
1513231496135883,12,59,9,17,2,0,15,17
1513231496137885,1,-51,1,-8,-10,-6,13,7
1513231496137885,6,59,16,5,2,1,-44,-17
1513231496158399,-25,30,-28,-11,-4,-2,2,-11
1513231496158399,6,24,-21,0,0,0,-2,3
1513231496160401,3,-42,6,-1,3,0,1,8
1513231496160401,-13,21,1,-1,0,-1,-4,-8
1513231496173411,12,-30,6,7,1,2,15,4
1513231496173411,-7,-26,19,6,-4,-5,-19,-17
1513231496179917,-4,6,-15,-19,-1,4,-5,-6
1513231496179917,2,3,0,2,-3,-7,-33,4
1513231496196426,-10,-34,0,-2,-2,0,19,-4
1513231496196426,-1,25,-25,-10,-7,-6,-45,-14
1513231496197931,4,-52,0,5,1,2,-1,10
1513231496197931,10,-8,9,8,1,0,8,-3
1513231496218953,-18,-8,-30,-10,-2,0,23,6
1513231496218953,3,67,43,3,-2,-4,-31,-15
1513231496220443,4,5,-10,0,4,1,1,11
1513231496220443,-15,-95,-11,-1,0,0,2,-1
1513231496232465,-1,11,-5,5,-1,0,-15,-10
1513231496232465,9,-54,4,-1,-1,-3,27,1
1513231496240958,5,43,17,11,2,-1,-2,-10
1513231496240958,8,50,13,3,5,4,-32,-7
1513231496255479,-1,21,21,0,0,1,7,2
1513231496255479,-2,-1,-7,9,2,1,5,6
1513231496256469,-9,9,7,-2,0,-1,-21,-11
1513231496256469,0,9,-15,-4,1,-2,21,7
1513231496277995,3,9,-10,-5,-10,-7,-11,-12
1513231496277995,7,25,0,-17,0,3,11,1
1513231496278985,6,19,11,1,-2,-4,-1,8
1513231496278985,2,-14,-27,-4,-4,-3,2,-4
1513231496292504,-7,40,3,-3,-2,2,-8,-1
1513231496292504,-11,-11,28,15,3,7,76,9
1513231496300509,14,-8,-22,-7,-4,-4,-50,3
1513231496300509,-11,-24,-5,-6,-3,-10,-9,-13
1513231496324016,7,-82,5,12,4,2,15,14
1513231496324016,-5,16,-25,-14,-5,-7,-3,-8
1513231496324516,1,17,-28,-10,-3,-3,-11,-4
1513231496324516,3,-13,26,10,1,1,-2,-1
1513231496338052,3,39,-1,-3,1,-1,1,6
1513231496338052,-9,-20,-16,-5,-4,-6,-19,-25
1513231496338526,-9,-4,-10,-5,-3,1,11,-11
1513231496338526,13,-9,-3,3,0,1,2,17
1513231496352060,5,-23,-10,-5,-4,-5,-13,-13
1513231496352060,-3,-8,5,-4,-5,1,2,15
1513231496360542,9,-2,-17,-14,-2,-3,-2,12
1513231496360542,-4,3,25,10,5,8,51,6
1513231496375554,-13,30,-3,-4,1,1,-5,-13
1513231496375554,12,-28,-14,-17,-5,-4,-40,1
1513231496376053,5,-2,25,18,4,1,10,7
1513231496376053,-3,3,-27,-17,-7,-4,13,6
1513231496398087,15,34,6,-5,-6,-6,-39,2
1513231496398087,-15,-27,-12,-8,-5,-3,8,-13
1513231496398569,-1,26,11,6,0,3,37,13
1513231496398569,5,-39,-13,-8,-3,-4,-64,-32
1513231496412092,-4,22,2,0,2,-2,3,-4
1513231496412092,-9,-48,-16,-7,-2,1,12,3
1513231496421101,-2,-23,15,10,-1,-5,-3,-6
1513231496421101,-2,9,23,9,1,3,21,13
1513231496435595,-7,-14,-3,0,0,0,3,-2
1513231496435595,25,13,5,-2,0,2,9,19
1513231496436095,-11,-13,-41,-4,-3,-4,-37,-4
1513231496436095,-3,15,10,3,-3,-3,-2,1
1513231496458111,-6,12,-10,-15,-4,-1,-7,-12
1513231496458111,21,20,8,7,5,4,8,-9
1513231496458611,-2,44,16,-2,-5,-9,5,-5
1513231496458611,1,39,-7,-8,-5,-3,3,12
1513231496472621,-12,-48,-8,4,1,1,-22,-9
1513231496472621,-6,-2,-1,2,2,-2,-2,-6
1513231496480630,-10,13,2,3,-1,2,5,-7
1513231496480630,8,2,-12,-5,-1,-1,-23,7
1513231496495639,-7,-13,-8,-17,-4,-1,28,4
1513231496495639,-9,-12,-12,3,-6,-7,-32,-8
1513231496496138,-14,-43,6,6,4,0,-3,-1
1513231496496138,36,34,-5,-6,-4,-3,13,-2
1513231496518182,2,-12,8,10,3,1,-4,2
1513231496518182,-5,10,41,-3,0,2,22,-3
1513231496518666,-31,-54,-32,0,-3,-5,-47,-8
1513231496518666,-5,-23,-9,-20,-1,2,-1,-7
1513231496532164,3,47,-8,-7,-6,-10,-21,-3
1513231496532164,-1,-16,0,-6,-2,0,-2,3
1513231496540682,14,-1,26,11,1,3,16,-2
1513231496540682,-25,-53,-22,5,4,2,34,-10
1513231496555680,5,-5,8,4,4,1,-43,-4
1513231496555680,2,50,9,0,-2,-1,27,21
1513231496556180,-12,38,19,-1,0,0,-32,-22
1513231496556180,24,65,13,-10,-4,0,12,-2
1513231496578196,-21,-97,-27,-1,2,1,22,5
1513231496578196,6,35,-12,12,1,-1,18,6
1513231496578696,-6,-9,-10,-13,-2,0,-31,-14
1513231496578696,-3,-19,29,11,-3,-4,-4,-2
1513231496601214,9,28,-9,-8,-4,1,8,-3
1513231496601214,-25,-3,5,-9,-3,-3,-12,-13
1513231496602213,13,-10,-20,-5,-3,-1,42,16
1513231496602213,-13,6,29,33,9,-5,-68,-5
1513231496615723,13,-8,-4,-12,-2,-3,5,3
1513231496615723,-11,53,-2,2,0,-2,2,-2
1513231496616223,15,-1,-29,-27,-11,-4,-19,14
1513231496616223,0,-6,-1,-17,-7,-3,9,-11
1513231496638238,6,42,11,22,9,8,16,21
1513231496638238,15,3,5,8,1,-3,-13,5
1513231496638738,-20,-1,28,6,-5,-6,10,-19
1513231496638738,12,66,-7,-28,-10,-4,0,11
1513231496661255,-19,-34,-38,14,6,1,11,-4
1513231496661255,6,-37,4,7,3,-1,-16,4
1513231496662256,9,-43,-26,2,9,8,18,15
1513231496662256,7,-21,-9,-16,-10,-6,9,14
1513231496675765,-6,16,14,-8,-9,-3,18,-14
1513231496675765,-1,23,27,12,6,1,-47,-2
1513231496676266,0,-15,-11,2,1,2,0,-15
1513231496676266,10,-11,5,5,-1,0,15,-1
1513231496697781,-12,-16,-33,0,3,1,-2,-8
1513231496697781,-9,-64,-43,-5,-3,0,-16,-5
1513231496698782,9,35,31,-12,-4,3,64,17
1513231496698782,-10,-55,-27,-1,-2,-3,-32,-12
1513231496721312,-15,-4,35,10,-1,-2,-2,-1
1513231496721312,5,6,-21,-14,-8,-6,-2,-17
1513231496721797,8,5,48,14,5,1,14,0
1513231496721797,-26,-4,-44,2,1,4,18,9
1513231496735317,9,38,29,1,-3,-2,-11,1
1513231496735317,-6,-43,-13,-6,-2,0,10,-7
1513231496736308,15,10,13,-2,4,0,-18,4
1513231496736308,-7,21,12,24,8,0,-1,-1
1513231496758323,0,-37,-19,-21,-13,-6,-11,-8
1513231496758323,-7,36,17,0,3,3,22,13
1513231496758824,10,50,-10,-2,-5,-7,-37,-18
1513231496758824,-13,-17,13,3,-3,0,17,4
1513231496781339,4,25,8,-8,-4,-1,21,12
1513231496781339,3,-1,-13,3,-4,-7,-4,-7
1513231496781840,-13,-23,-4,0,0,1,12,2
1513231496781840,17,-13,-13,-3,1,3,19,11
1513231496795359,1,13,12,11,3,1,-40,-9
1513231496795359,1,24,22,3,-2,1,14,1
1513231496796350,-8,-59,-26,5,-1,-1,-8,-4
1513231496796350,-10,-1,8,5,2,0,13,-5
1513231496817866,15,-7,7,-11,1,4,5,9
1513231496817866,0,-44,-21,-3,-2,-2,2,-5
1513231496818866,-17,-3,21,18,3,2,-5,3
1513231496818866,-12,-62,-35,-19,-2,0,1,4
1513231496840922,6,25,12,5,2,-5,-13,-7
1513231496840922,6,21,32,14,2,1,-2,2
1513231496841923,2,35,3,-2,0,-1,7,8
1513231496841923,-9,-17,6,21,-1,-1,30,-4
1513231496855432,5,-2,-16,-24,1,0,-56,0
1513231496855432,-2,5,-5,-9,-4,-4,5,-7
1513231496857443,8,4,35,4,5,2,8,8
1513231496857443,-9,23,-15,-4,1,1,-24,-13
1513231496878449,-16,-40,-9,16,1,2,57,-7
1513231496878449,19,44,-5,-6,-1,-2,-38,13
1513231496879449,-20,-22,-14,-5,-4,-2,-10,-8
1513231496879449,23,69,8,-12,-5,-2,-2,-5
1513231496901478,-18,-5,-2,-12,-8,-4,13,-6
1513231496901478,16,-2,-7,-7,0,2,0,5
1513231496901979,-3,27,2,-3,-5,2,46,13
1513231496901979,-13,4,16,5,-1,-6,-34,-6
1513231496915475,10,-6,8,9,1,0,-6,-4
1513231496915475,-29,-14,-21,-11,0,-1,-5,-6
1513231496915975,14,-1,10,11,5,5,14,8
1513231496915975,-12,-69,-17,-12,-4,-1,8,4
1513231496938002,7,65,11,2,0,-3,-9,3
1513231496938002,-30,-10,3,10,1,2,17,-1
1513231496938991,35,1,11,-10,-3,1,49,3
1513231496938991,2,43,10,2,1,-7,-94,-13
1513231496961019,-1,-37,-13,13,0,-3,12,-7
1513231496961019,3,40,15,-3,-3,-3,-2,6
1513231496962008,-23,-50,-34,-2,-4,-4,-10,-10
1513231496962008,7,32,10,-2,-2,2,19,5
1513231496975531,1,-63,-15,-12,-5,-6,6,-8
1513231496975531,-6,46,11,6,0,0,-11,-9
1513231496976021,0,-7,-17,-3,0,3,-3,10
1513231496976021,6,-28,-7,-6,0,-2,7,-3
1513231496998033,-8,20,18,21,4,0,-10,3
1513231496998033,-5,-33,-28,-26,-6,1,47,8
1513231496998534,-8,89,12,-6,-4,-4,-47,-15
1513231496998534,-6,-40,-12,4,1,0,11,-5
1513231497020069,14,24,7,-4,1,3,-1,2
1513231497020069,6,-5,-8,-1,0,2,7,16
1513231497028055,-10,-54,-14,5,0,-5,16,-7
1513231497028055,5,52,19,-7,-1,1,-5,2
1513231497035560,0,-24,-18,-8,-2,-2,5,5
1513231497035560,3,9,5,1,-2,-2,-12,2
1513231497036059,9,8,18,5,1,-1,-20,-10
1513231497036059,-1,-27,-30,-18,-6,-4,18,-6
1513231497058095,2,5,11,1,-1,-3,-18,1
1513231497058095,-19,-16,13,6,0,-1,1,-11
1513231497059087,24,26,-9,-5,0,-2,-1,22
1513231497059087,-9,-53,-2,3,-4,-3,5,-8
1513231497081091,-9,28,-23,-10,-3,-2,2,-4
1513231497081091,-3,-32,-11,-2,-2,2,4,-20
1513231497082092,-5,-28,15,4,4,-4,-44,0
1513231497082092,3,28,-9,11,2,4,41,16
1513231497095601,2,8,4,-17,-5,-8,-56,5
1513231497095601,7,4,-9,-6,-4,-1,0,-23
1513231497096102,-12,-24,-9,5,-1,-1,30,-8
1513231497096102,0,15,33,6,6,4,6,-1
1513231497118132,-2,-46,0,9,0,1,14,5
1513231497118132,14,25,1,4,1,-1,-12,-3
1513231497118619,-3,29,-5,5,0,2,0,6
1513231497118619,-17,-11,-26,-18,-4,-1,-8,12
1513231497141134,31,30,32,10,2,0,23,-15
1513231497141134,-13,-39,-21,-16,-1,-4,-19,-16
1513231497142135,9,17,2,6,-2,2,31,15
1513231497142135,4,35,12,16,7,-1,-19,-4
1513231497155644,5,-30,-9,-5,-5,-3,4,13
1513231497155644,-11,-15,-11,-1,-1,-5,-7,-15
1513231497156655,-4,14,-8,-9,-4,-4,-11,-5
1513231497156655,4,23,-22,-10,-6,-3,-8,11
1513231497178161,-24,-26,1,2,-2,-5,1,0
1513231497178161,18,40,25,14,0,-2,14,-4
1513231497178661,-17,-29,-26,-29,-9,-3,-21,-2
1513231497178661,4,-17,18,8,1,0,-4,-13
1513231497201177,-8,84,-16,-2,-3,-1,41,20
1513231497201177,14,-8,9,12,3,-2,-37,3
1513231497202177,0,-17,-25,-20,-6,-5,-13,-18
1513231497202177,-16,-13,-5,-2,2,6,16,1
1513231497215689,21,36,23,8,3,5,28,4
1513231497215689,-8,-7,-31,-7,-5,-4,-8,1
1513231497216188,3,10,6,-2,-5,-7,-15,-6
1513231497216188,8,-33,-4,-5,0,0,-10,-5
1513231497238703,-1,16,-9,-5,-5,-5,-2,-10
1513231497238703,-16,-26,0,0,-1,3,32,19
1513231497239204,5,-28,-19,13,10,3,-38,-13
1513231497239204,-3,17,14,-4,-5,-5,8,12
1513231497261223,-16,-30,-29,-10,-4,2,-8,-30
1513231497261223,39,16,26,-8,0,1,4,13
1513231497261719,-11,8,4,9,0,0,16,-15
1513231497261719,-5,-53,2,2,5,0,-8,-14
1513231497276243,-4,43,-15,-16,-5,0,-22,6
1513231497276243,-12,33,15,5,1,0,8,-6
1513231497276732,0,1,1,-3,-3,0,-8,-4
1513231497276732,2,-76,-2,-1,-1,-5,0,-5
1513231497298246,-1,-6,-30,-8,-2,-4,0,-5
1513231497298246,-9,-3,-12,-3,-5,-2,1,5
1513231497298746,-5,-2,12,6,1,1,12,16
1513231497298746,-3,26,-19,-20,-13,-9,-8,-10
1513231497320785,20,-12,38,0,3,4,-7,12
1513231497320785,-10,-31,-6,9,0,0,-2,-8
1513231497321780,-2,-41,-16,-15,-4,-1,15,-2
1513231497321780,-9,-67,-17,-7,1,0,-18,-11
1513231497334771,4,33,19,8,2,2,18,0
1513231497334771,5,-2,13,8,4,0,5,4
1513231497343277,-15,23,5,-2,-1,-1,-9,-24
1513231497343277,-3,27,17,18,7,5,19,24
1513231497357787,10,18,7,-12,-9,-4,-8,14
1513231497357787,-12,0,13,1,-2,0,-20,3
1513231497358788,6,35,16,7,1,-1,11,-11
1513231497358788,-2,20,17,3,-3,-2,4,-17
1513231497381304,0,24,0,10,4,4,-32,4
1513231497381304,-15,-40,-10,7,0,-4,28,6
1513231497381804,26,-11,-32,-19,-7,-6,-52,-2
1513231497381804,6,22,18,14,5,3,-5,-4
1513231497394813,-9,-43,-4,-3,-3,-5,-3,-8
1513231497394813,17,62,18,-11,0,0,3,9
1513231497402845,-18,-25,-12,-1,0,2,1,7
1513231497402845,8,21,9,4,-2,0,1,9
1513231497417830,-10,-21,-10,7,5,4,9,-3
1513231497417830,4,-4,0,-7,-2,-5,-21,-6
1513231497418830,1,-16,17,9,0,-2,43,6
1513231497418830,-9,8,-34,-5,-2,-4,-41,-2
1513231497440860,-13,-13,-1,-10,-4,0,23,-2
1513231497440860,8,5,8,0,0,-1,-13,-3
1513231497441868,-10,-4,-3,2,-1,0,-6,-3
1513231497441868,32,48,-4,-10,-7,-6,8,-14
1513231497454880,-19,-43,-14,-7,-4,-6,-11,-11
1513231497454880,0,-23,-13,10,3,0,-9,-8
1513231497462876,4,18,-7,-8,-4,-1,29,14
1513231497462876,-15,-6,10,-8,3,4,-18,11
1513231497477875,-4,-28,-5,1,-3,-2,3,0
1513231497477875,-5,58,7,-9,-4,0,-4,-9
1513231497478873,2,-18,-3,2,3,0,-26,4
1513231497478873,-7,-1,-6,13,1,1,14,-12
1513231497500902,4,-13,8,-2,-1,-4,-9,5
1513231497500902,-14,-10,-8,-1,2,8,16,7
1513231497501889,11,35,16,5,3,0,-4,-2
1513231497501889,-1,54,11,-2,-3,-3,-1,-5
1513231497514901,9,-21,-16,-5,2,-1,-11,-1
1513231497514901,8,27,19,10,3,-2,10,-3
1513231497523416,7,-4,-17,-3,-2,0,-8,19
1513231497523416,6,19,7,-3,0,1,6,-24
1513231497537914,-13,-1,6,3,-1,1,8,-4
1513231497537914,4,-13,-14,-16,-6,-3,-15,-7
1513231497538940,-7,-17,5,10,1,-4,18,-13
1513231497538940,-1,2,-12,-8,-3,-2,2,31
1513231497559984,1,0,-4,0,2,0,-17,-4
1513231497559984,-10,-18,-3,-2,-4,-2,7,-2
1513231497568004,0,-3,10,-5,0,0,-8,-2
1513231497568004,-9,21,-13,-4,-3,-3,33,2
1513231497574995,-10,-6,15,11,1,0,-39,-10
1513231497574995,-19,-85,-38,-9,-3,-4,-6,-2
1513231497583000,4,52,30,-6,-3,2,26,9
1513231497583000,13,-16,-10,-1,-3,-1,-14,-6
1513231497597511,-7,-17,3,2,3,1,7,-6
1513231497597511,-3,30,8,5,-1,-3,-19,-2
1513231497605516,-13,-42,-11,-11,-8,-5,-2,-21
1513231497605516,-3,-23,-15,-15,-4,-4,0,10
1513231497621030,-4,22,17,10,6,6,40,14
1513231497621030,-1,7,2,7,-2,-5,-35,-11
1513231497622028,8,6,-4,-4,-5,-5,-3,5
1513231497622028,-22,-26,-20,-13,-2,1,-4,-7
1513231497643565,27,24,38,29,4,0,0,-11
1513231497643565,-15,-68,-58,-31,-4,-2,18,10
1513231497644548,-2,8,12,-5,-2,1,34,8
1513231497644548,6,-1,-11,7,1,-2,-80,-6
1513231497658054,-2,2,12,-6,-4,-4,1,-17
1513231497658054,-2,2,-2,12,1,2,4,11
1513231497658554,-11,7,21,4,0,1,-16,-23
1513231497658554,-12,-8,3,-8,-3,-1,17,-15
1513231497681070,-1,-22,-12,-13,-5,-2,11,7
1513231497681070,14,-10,13,9,1,-1,-2,-14
1513231497682071,-8,34,-26,-20,-4,-3,-12,9
1513231497682071,-6,-62,-5,7,-2,0,40,5
1513231497711101,-4,-14,13,-1,-2,-8,-64,-18
1513231497711101,-6,7,11,2,0,3,6,16
1513231497712102,29,-14,-10,11,4,1,-10,2
1513231497712102,-12,4,21,-5,-20,-4,4,2
1513231497718096,-4,19,-32,1,10,1,16,12
1513231497718096,0,15,10,-11,-3,-1,5,-8
1513231497718597,-35,-32,-4,21,5,2,-12,-15
1513231497718597,12,34,3,-9,-1,-3,16,3
1513231497741125,-1,-51,-14,-25,-23,-5,8,14
1513231497741125,-6,-3,-7,20,6,-2,-49,-19
1513231497742123,-1,-12,-14,-4,2,2,7,7
1513231497742123,10,-1,24,28,5,-2,-13,-6
1513231497763628,-5,17,-7,-5,-1,-2,11,-1
1513231497763628,0,21,3,-10,-2,2,19,10
1513231497764629,9,6,-2,-4,-7,-6,-20,1
1513231497764629,-8,-28,-17,-12,3,0,2,-16
1513231497778141,10,56,8,-1,0,2,29,16
1513231497778141,-6,2,-9,1,-3,-5,-47,-28
1513231497778639,8,25,12,-2,-1,-2,9,20
1513231497778639,-15,-6,17,14,10,8,14,7
1513231497801167,5,-16,-25,-5,2,-1,-39,-16
1513231497801167,-16,-10,-11,0,-5,-1,14,-17
1513231497802156,-12,-52,1,6,3,1,3,-4
1513231497802156,20,58,10,7,2,-1,-3,7
1513231497823671,-15,-28,4,6,2,1,9,1
1513231497823671,15,39,2,-2,-2,-2,18,12
1513231497824674,-1,-47,-24,-18,-9,-4,12,-10
1513231497824674,-4,47,-4,-14,-6,-6,-41,-15
1513231497838182,8,24,12,2,1,1,12,-3
1513231497838182,-3,17,12,0,-6,-6,10,5
1513231497838683,-15,-50,-24,8,6,0,-6,-4
1513231497838683,4,-14,-11,4,0,0,25,5
1513231497860697,2,6,-5,-9,-7,-5,-19,-4
1513231497860697,12,62,21,12,4,2,-3,5
1513231497868203,-15,11,-19,-13,-8,-8,-3,-23
1513231497868203,3,-32,-13,6,0,-1,-9,14
1513231497883713,-3,9,1,-5,1,3,7,3
1513231497883713,3,-20,-8,-12,-1,2,-8,4
1513231497884214,-11,-3,21,14,4,3,8,-11
1513231497884214,2,17,-9,-10,-4,-4,2,-1
1513231497898226,5,5,14,10,0,1,9,11
1513231497898226,8,-76,-25,-23,0,3,19,13
1513231497898725,0,18,0,6,0,2,-10,-4
1513231497898725,-13,15,23,0,-2,-1,-4,-15
1513231497921240,3,-2,-6,-7,-10,-5,46,-5
1513231497921240,10,29,9,7,8,-3,-80,15
1513231497921741,-3,-25,-15,-12,-9,-6,-12,-12
1513231497921741,9,29,13,7,5,3,-1,13
1513231497943782,4,33,-13,-3,1,-2,6,-3
1513231497943782,-12,-8,14,8,-2,3,23,5
1513231497944262,23,62,19,-2,-1,-1,0,22
1513231497944262,7,42,-4,-2,1,1,5,0
1513231497957766,-18,-66,-23,1,1,1,-5,-23
1513231497957766,-5,-28,-3,-4,-3,-1,12,-3
1513231497958766,4,22,3,-3,1,0,-6,-5
1513231497958766,2,-43,5,15,2,-4,-22,7
1513231497988808,-10,9,9,1,1,-1,-17,-11
1513231497988808,9,6,7,-6,-4,-3,7,-1
1513231497989289,-15,10,10,3,5,0,-3,-2
1513231497989289,-4,-53,-14,5,6,3,9,-3
1513231498004304,-13,-59,-6,-19,-2,0,-9,12
1513231498004304,-1,-15,-25,1,-3,-5,9,-7
1513231498004799,7,-7,3,-6,-3,0,13,7
1513231498004799,-33,0,-7,-19,-6,-2,-16,-12
1513231498017811,11,22,9,8,1,0,2,7
1513231498017811,0,34,11,-2,-1,1,21,8
1513231498018809,4,-35,-15,-4,-4,-7,-23,-2
1513231498018809,3,12,4,1,1,2,35,3
1513231498041379,-7,19,-10,-7,-6,-8,-33,-1
1513231498041379,-4,17,7,-2,1,2,3,-6
1513231498041874,-14,-4,-4,6,-2,-3,-3,-4
1513231498041874,0,-32,-5,-3,-5,-4,5,-6
1513231498070895,0,65,17,1,2,1,8,-7
1513231498070895,3,-36,-15,-3,0,1,0,-3
1513231498071894,7,20,-9,-5,-1,1,-2,12
1513231498071894,-16,-27,-6,-9,-4,-3,25,-3
1513231498077898,-14,-11,11,8,3,3,2,10
1513231498077898,-10,-6,-24,-4,-6,-7,-33,-14
1513231498078897,-2,6,9,-11,-2,0,3,-3
1513231498078897,14,-12,-27,-13,-4,-2,-8,2
1513231498100915,-2,-48,-15,-3,-3,-5,-6,2
1513231498100915,-11,-17,0,14,5,4,18,4
1513231498101914,-7,-6,-1,-16,-5,-4,0,0
1513231498101914,28,26,7,2,4,5,17,16
1513231498123930,-12,18,11,-6,-5,-7,-42,-20
1513231498123930,-5,-35,-12,-6,-7,-6,16,-7
1513231498124430,14,28,10,27,8,5,-18,7
1513231498124430,-3,-3,11,-2,-3,-4,3,-5
1513231498137939,12,55,-19,-10,-6,-3,2,-2
1513231498137939,8,-39,33,-7,-4,-4,3,6
1513231498145445,-13,18,-11,-12,-1,0,14,-2
1513231498145445,1,-7,9,14,0,-1,-11,6
1513231498160956,16,9,2,-13,2,0,18,-7
1513231498160956,-7,-13,-10,-2,-2,-4,-26,1
1513231498161956,-6,-51,-16,-6,-2,-3,-24,-11
1513231498161956,-1,12,-1,-1,-6,-2,-9,-8
1513231498183472,-5,-29,9,13,5,3,3,6
1513231498183472,-1,-4,0,4,6,2,19,20
1513231498184474,15,23,15,5,-5,-5,4,-11
1513231498184474,-10,-8,-3,-3,4,2,-12,-8
1513231498198000,-11,4,-10,0,-4,-2,23,-9
1513231498198000,13,-55,10,6,3,5,33,10
1513231498198986,-8,12,-4,-2,3,1,-39,-10
1513231498198986,-15,1,-3,-6,-1,-3,-12,-10
1513231498221021,14,25,6,-2,-2,-1,-7,17
1513231498221021,27,31,22,20,6,2,11,-6
1513231498222009,-6,32,-26,-14,-9,-5,11,2
1513231498222009,0,-23,-27,-8,0,0,8,0
1513231498243513,-10,-37,-1,10,2,0,-13,-1
1513231498243513,-9,48,-19,-15,-7,-4,-11,-13
1513231498244514,-5,-18,9,9,4,5,20,20
1513231498244514,15,10,-12,-9,-10,-7,-18,-7
1513231498266533,-3,-31,-24,1,-1,-3,10,4
1513231498266533,1,88,23,8,1,1,-4,-6
1513231498267532,-9,-9,-14,-11,-4,-7,-27,-10
1513231498267532,21,7,25,-5,4,4,16,11
1513231498281083,-9,35,11,10,-6,-4,1,8
1513231498281083,-35,-46,-49,-19,-4,-4,-23,-38
1513231498288078,23,36,21,7,4,4,28,24
1513231498288078,-15,-38,1,-1,-5,-4,-10,-9
1513231498303609,16,10,11,-5,2,0,-13,-6
1513231498303609,-7,-18,5,26,10,6,10,6
1513231498304607,2,-47,-6,6,2,2,5,5
1513231498304607,-15,-17,-23,-2,-4,-4,-10,-4
1513231498317598,14,11,31,4,-2,-2,8,3
1513231498317598,-4,8,-21,-29,-11,-8,-3,-1
1513231498325674,-4,-12,29,4,3,4,-2,-2
1513231498325674,-4,45,10,7,2,0,13,-14
1513231498348655,-9,-62,-19,10,5,3,-30,14
1513231498348655,-7,-31,-10,-14,-7,-5,-5,-12
1513231498349656,17,32,17,8,0,-2,7,0
1513231498349656,13,15,-21,-18,-7,-4,27,2
1513231498363668,-10,-39,-11,1,0,1,-25,-10
1513231498363668,7,37,12,3,3,3,5,4
1513231498365167,-7,44,17,1,-3,-2,-3,-5
1513231498365167,-39,-113,-45,-11,-9,-7,-12,-1
1513231498377178,18,24,3,-2,1,3,12,2
1513231498377178,13,25,4,6,1,1,3,5
1513231498386187,-9,9,11,8,0,-4,-23,-10
1513231498386187,10,25,-8,-10,-2,1,-10,9
1513231498401214,-9,18,18,0,-4,-3,6,-6
1513231498401214,-3,-37,-12,-14,-5,-3,-8,3
1513231498402698,8,-2,0,4,0,4,36,8
1513231498402698,12,35,10,20,8,2,-16,6
1513231498423711,-14,9,-24,-35,-11,-7,-34,-24
1513231498423711,25,23,38,14,4,1,12,8
1513231498425210,-11,-90,-52,-11,2,-1,9,-4
1513231498425210,2,23,23,5,-2,-3,-16,-7
1513231498437727,3,12,-12,5,3,3,24,2
1513231498437727,10,76,21,5,-6,-4,0,19
1513231498446224,-4,-12,-19,-10,-7,-3,-12,6
1513231498446224,-6,-23,-6,-21,1,5,17,-10
1513231498461234,11,23,12,13,2,-3,3,11
1513231498461234,-15,-44,-20,-7,-6,-3,-1,-20
1513231498462735,12,0,13,6,-1,-5,-13,13
1513231498462735,-16,-3,-2,7,0,1,-7,2
1513231498483766,-3,-60,-2,-8,-2,-1,14,4
1513231498483766,-5,28,-5,0,0,-3,-34,-1
1513231498485285,-2,-9,-14,-15,-5,1,12,-15
1513231498485285,9,11,18,8,0,-2,3,16
1513231498497293,-5,54,-6,-14,-9,-3,-10,-8
1513231498497293,7,-7,-14,3,5,-1,22,7
1513231498506279,-3,31,30,15,2,-2,-10,9
1513231498506279,-19,-2,-19,-23,-8,-6,-9,-18
1513231498521307,15,9,8,14,5,2,11,-3
1513231498521307,12,5,12,-11,-3,-2,9,1
1513231498522801,-19,26,-18,1,-1,-4,-9,11
1513231498522801,13,82,23,14,4,5,30,17
1513231498544317,0,-22,1,0,2,-1,-39,-14
1513231498544317,-6,-15,-30,-8,-8,-2,16,4
1513231498545818,-22,10,17,-2,-5,-8,-35,-30
1513231498545818,16,-42,-3,11,9,3,12,5
1513231498566322,-12,6,-11,-5,-3,-1,12,3
1513231498566322,11,-4,3,2,0,-1,-7,1
1513231498567838,-1,5,5,4,2,1,11,-9
1513231498567838,-4,-1,-7,-12,-7,-3,-6,0
1513231498581333,-7,19,16,6,2,1,8,7
1513231498581333,1,-44,4,-3,-2,-5,-14,-6
1513231498582834,11,-34,-49,-10,-4,-1,8,5
1513231498582834,-10,-43,11,6,-1,1,16,-3
1513231498603869,7,-3,-9,3,5,1,-35,-4
1513231498603869,-6,13,37,0,0,2,-1,2
1513231498605354,-1,17,4,5,-6,-1,7,-21
1513231498605354,10,-29,-34,-6,17,5,-7,13
1513231498626375,-13,-2,-10,-14,-8,-2,21,-3
1513231498626375,-25,-30,-22,-2,0,-2,-8,-14
1513231498627890,15,59,34,3,-2,4,4,-1
1513231498627890,-10,-8,10,10,-6,-7,-16,-13
1513231498641385,2,-17,-3,-6,-1,-1,8,12
1513231498641385,-12,7,15,4,1,1,10,-3
1513231498642886,11,-9,3,12,9,2,-23,-2
1513231498642886,-15,-8,-12,-21,-15,-6,7,-9
1513231498663891,10,3,2,8,2,-1,-18,-14
1513231498663891,8,25,17,-4,-1,2,-3,3
1513231498665395,3,-88,-46,-12,-1,1,13,5
1513231498665395,5,23,31,18,3,3,1,2
1513231498685906,-1,20,-4,-1,-2,-1,1,-19
1513231498685906,4,-39,-36,-7,-4,-4,-9,21
1513231498687921,-11,-4,11,-5,-3,-5,2,-6
1513231498687921,-11,1,11,2,-3,-5,-18,-5
1513231498700920,8,-20,0,7,3,2,11,0
1513231498700920,18,26,-28,-10,-8,-4,-4,-4
1513231498702935,-14,15,4,-1,-2,-1,6,1
1513231498702935,-1,-26,-31,-12,-6,-2,-20,-8
1513231498723935,-7,24,10,2,-3,-4,14,3
1513231498723935,0,47,-6,-7,-2,-1,3,5
1513231498725434,1,-31,12,4,2,1,-2,-5
1513231498725434,-14,-16,-7,6,0,-3,-7,1
1513231498745949,10,14,4,2,1,5,36,11
1513231498745949,-10,12,6,4,-2,-2,-20,-11
1513231498747950,3,23,-11,-6,0,3,38,8
1513231498747950,21,35,9,-7,-3,-4,-55,-19
1513231498760491,-8,-21,3,9,4,4,31,10
1513231498760491,-11,-20,-23,-26,-6,-5,-38,-13
1513231498767015,-10,-40,-14,-6,-1,-1,0,-1
1513231498767015,5,8,5,14,2,-2,14,8
1513231498783506,-10,14,1,-8,-1,-3,-16,-4
1513231498783506,0,-17,3,9,0,2,18,-2
1513231498785007,1,2,13,11,1,-2,-3,6
1513231498785007,-15,-2,-23,-7,-4,-5,-9,-10
1513231498806025,3,0,7,-10,-3,-3,-8,-1
1513231498806025,-4,0,17,9,3,1,5,6
1513231498807523,-8,-36,-5,-5,-3,-3,-2,-7
1513231498807523,0,3,-2,-1,0,0,19,2
1513231498821036,9,-6,-2,0,-4,0,-7,1
1513231498821036,3,1,7,2,1,1,8,8
1513231498827040,-4,-10,-1,-3,-7,-6,-17,-16
1513231498827040,9,7,17,10,0,-1,6,-2
1513231498843549,5,-22,-21,-11,-3,-4,2,11
1513231498843549,0,10,16,2,-1,-1,16,-4
1513231498845050,0,7,-2,4,1,-2,-16,0
1513231498845050,11,9,0,-17,-3,0,13,1
1513231498866067,-3,46,10,9,3,2,-32,1
1513231498866067,-7,-20,-27,-5,-3,0,29,-4
1513231498868577,-1,59,12,0,-1,1,-28,2
1513231498868577,20,-20,6,4,2,-2,-9,-6
1513231498881077,-11,-20,3,-2,-2,0,0,-5
1513231498881077,-14,-14,-1,-2,-1,-1,-1,-4
1513231498888583,5,2,5,4,0,2,7,11
1513231498888583,-2,21,7,-6,1,4,8,-2
1513231498903593,-5,-14,-6,1,-3,-2,10,17
1513231498903593,-6,-6,14,9,1,1,-9,-13
1513231498905095,-1,4,2,-1,5,1,-3,-17
1513231498905095,0,-21,-11,-1,-1,3,4,18
1513231498926110,2,-35,-11,-8,-3,-4,1,-4
1513231498926110,5,36,7,3,-1,-3,-3,9
1513231498927609,0,10,14,4,0,-2,1,-3
1513231498927609,-5,-10,4,10,3,0,-1,-2
1513231498941118,-11,-31,-7,-4,-1,1,21,1
1513231498941118,1,-9,6,1,0,0,-31,-18
1513231498954628,-5,12,-12,-15,-7,-3,7,5
1513231498954628,-3,-54,-14,-11,-5,0,30,16
1513231498963634,-3,-4,-7,0,-2,-6,-43,-19
1513231498963634,5,11,-2,6,5,2,4,-7
1513231498965135,14,10,19,-2,0,3,7,6
1513231498965135,-23,-18,-13,5,2,1,9,13
1513231498985649,10,49,0,-12,-5,-3,-3,-10
1513231498985649,-8,-39,-8,2,-1,-5,-1,-3
1513231499001174,-6,93,16,2,-2,-4,19,8
1513231499001174,20,13,7,2,-4,-4,-35,-10
1513231499002162,5,28,13,3,0,3,20,5
1513231499002162,-1,-46,-19,-2,0,-1,-20,0
1513231499007168,-28,-34,-9,-10,-6,-2,41,0
1513231499007168,-6,-38,1,4,-2,-3,-48,-14
1513231499023691,-6,38,-5,-4,-4,-6,-7,-8
1513231499023691,0,16,1,3,4,5,5,-1
1513231499025187,4,-10,-5,1,1,1,-7,0
1513231499025187,-6,-8,-17,2,-2,-2,9,-8
1513231499046192,2,8,19,-7,1,2,1,-1
1513231499046192,6,-54,-10,-7,-8,-10,-16,2
1513231499047693,-9,-11,-17,-6,-5,-3,17,13
1513231499047693,1,22,33,13,3,0,-38,-20
1513231499059701,0,4,6,6,0,2,11,17
1513231499059701,8,8,-22,-18,-3,-1,9,7
1513231499068708,4,4,-3,-2,-2,-2,-7,-3
1513231499068708,-4,12,-2,-1,-1,0,13,-3
1513231499083760,-15,-36,-10,3,-1,-1,17,0
1513231499083760,1,42,16,-2,0,3,-27,-5
1513231499085266,11,8,8,1,2,0,-16,-9
1513231499085266,2,-19,-14,-7,-5,-1,17,14
1513231499106275,-8,0,-6,7,0,-5,-21,-18
1513231499106275,-12,-60,-16,-4,-2,2,49,5
1513231499107768,-3,3,0,-6,-4,-4,-52,-20
1513231499107768,-1,28,24,0,1,0,13,-2
1513231499119776,12,15,-16,-6,-4,-6,-11,2
1513231499119776,-7,-7,-3,3,0,0,7,-5
1513231499128782,6,-10,-14,-2,0,1,3,9
1513231499128782,-2,9,3,6,3,1,20,7
1513231499143311,9,-13,-8,-15,-4,-1,-10,-7
1513231499143311,-14,17,12,10,4,2,8,11
1513231499151299,-8,-20,-22,-2,-3,-4,-10,-3
1513231499151299,23,35,4,-8,-5,-5,-14,-16
1513231499166330,-23,-31,3,10,2,4,14,-5
1513231499166330,4,29,-3,-17,-9,-9,-13,-8
1513231499167810,-14,-30,-16,2,2,-1,33,-3
1513231499167810,-14,31,0,-18,-7,-2,-31,1
1513231499179821,23,-11,-12,3,2,1,13,3
1513231499179821,-6,2,8,5,0,-1,-11,-11
1513231499188824,10,5,17,2,-3,-2,-10,-2
1513231499188824,0,38,-8,0,3,3,22,5
1513231499203835,-9,-21,0,-6,-5,-4,0,-3
1513231499203835,-3,2,-3,1,-3,1,-4,6
1513231499205353,8,0,-15,-13,-5,-1,6,-1
1513231499205353,-1,-1,18,5,0,-3,-15,-2
1513231499226353,-3,-3,-17,-4,-2,-1,-10,-7
1513231499226353,-14,-10,3,7,0,-3,1,7
1513231499227854,-3,-18,-5,-9,-1,-1,-8,-3
1513231499227854,3,18,-5,-1,-3,-1,6,-5
1513231499240382,-13,-8,8,3,1,0,-2,4
1513231499240382,9,8,0,-1,0,1,39,8
1513231499248868,2,-7,0,3,-2,-3,-57,-15
1513231499248868,-20,-25,-10,-4,-1,-1,2,-6
1513231499263400,9,-5,7,-1,-1,-2,-4,2
1513231499263400,3,15,-5,4,0,-1,0,-2
1513231499265402,-3,-3,1,2,3,2,13,6
1513231499265402,1,-11,-2,-1,-1,-1,7,2
1513231499285893,0,-3,3,-2,-1,-1,-8,0
1513231499285893,-3,4,1,-5,0,-1,-5,-4
1513231499287895,1,2,5,4,2,-2,1,-2
1513231499287895,-2,-10,9,8,2,0,-6,1
1513231499299903,2,-2,-14,-8,1,1,9,4
1513231499299903,2,1,6,-4,-3,-3,-12,-3
1513231499308922,-2,-7,-9,-7,-3,-3,4,-2
1513231499308922,-4,-4,0,1,1,1,10,1
1513231499324430,3,13,9,8,5,1,-1,1
1513231499324430,-1,-11,-12,-8,-3,-1,-7,-6
1513231499325921,0,-4,-2,2,-1,-1,0,-2
1513231499325921,-2,10,-1,1,-4,-2,3,0
1513231499345948,-2,11,11,4,-1,-2,-3,0
1513231499345948,1,-13,-11,-1,-1,-3,-10,-3
1513231499353941,0,-4,-5,0,0,2,9,3
1513231499353941,-1,0,-7,-8,-4,-2,-2,0
1513231499359964,-1,-6,5,1,2,2,-2,-1
1513231499359964,2,5,12,1,0,-1,-2,0
1513231499368451,-3,-2,-1,-6,-3,-2,1,0
1513231499368451,1,-10,-9,6,2,2,4,3
1513231499383524,-7,-11,-2,-1,-4,-5,-6,-7
1513231499383524,0,16,14,-4,-4,-2,-4,-3
1513231499385015,4,0,-4,1,1,1,7,5
1513231499385015,-1,-4,-2,-7,-4,-3,-4,-4
1513231499407032,-3,-6,-2,1,2,0,1,0
1513231499407032,1,-2,-12,2,0,-2,-3,0
1513231499408531,-4,8,1,-9,-6,-2,-1,-2
1513231499408531,-1,-5,-5,5,0,-1,0,0
1513231499420050,1,-5,-7,10,3,0,-2,0
1513231499420050,1,6,6,0,-1,-2,-2,-2
1513231499428546,2,12,-2,0,-2,-1,0,1
1513231499428546,-8,-22,-6,-8,-1,0,1,-2
1513231499443573,-2,-1,0,6,-2,0,0,1
1513231499443573,1,2,1,1,1,1,-2,0
1513231499445057,-3,0,0,0,0,-1,1,-2
1513231499445057,0,4,1,-8,-6,-6,-2,-1
1513231499467575,-1,-4,-2,-1,1,3,-2,-1
1513231499467575,-1,-2,-3,7,1,0,-2,-2
1513231499469074,-1,-5,7,-13,-7,-1,-2,-2
1513231499469074,-1,-2,-2,19,6,-2,0,-1
1513231499479610,1,1,-4,-11,-2,0,1,0
1513231499479610,2,1,0,2,-7,-3,-3,-1
1513231499488614,-3,-4,-4,1,9,5,2,0
1513231499488614,-4,0,3,-6,-3,1,-1,-1
1513231499503643,-1,-1,-5,-6,-8,-6,-1,0
1513231499503643,-2,4,7,-4,-4,0,0,-2
1513231499505125,-6,-4,-10,2,-3,-7,-3,-4
1513231499505125,3,-6,-2,-7,1,1,0,0
1513231499527142,0,0,-1,-2,-2,-2,-1,0
1513231499527142,-1,-4,-2,-9,-2,0,0,-1
1513231499528654,2,2,4,6,0,1,1,1
1513231499528654,-1,1,-4,-1,-3,-5,-3,-4
1513231499548667,-2,-3,-1,-7,-4,-1,-1,0
1513231499548667,-3,-1,-4,-2,0,-1,-2,0
1513231499550161,-1,-6,2,7,-1,-2,-1,-2
1513231499550161,0,11,-1,-5,0,-1,1,-2
1513231499563677,1,-1,4,0,1,0,1,0
1513231499563677,-2,-5,-7,-2,-3,-5,-1,-2
1513231499565168,-3,-3,0,4,2,3,0,-2
1513231499565168,0,-4,-2,-15,-7,-2,-3,0
1513231499586182,-3,-1,-3,-1,-1,-3,-2,-2
1513231499586182,-5,-2,0,8,2,2,-1,-2
1513231499587683,1,3,-3,-1,-1,-3,-1,-2
1513231499587683,-1,-5,1,-5,-4,1,-1,0
1513231499608713,0,-1,-1,10,5,2,0,-1
1513231499608713,1,-1,-2,-5,2,-2,2,0
1513231499610210,-1,-2,2,0,-3,-2,-2,-1
1513231499610210,-2,0,0,-1,0,-1,0,-1
1513231499624209,-3,-1,-3,-7,-4,-1,-3,-1
1513231499624209,2,-5,-1,-1,4,3,-1,-1
1513231499629716,0,1,-1,-3,-5,-3,-2,0
1513231499629716,-1,0,-1,2,1,-1,-1,1
1513231499653229,-2,-4,-1,-3,1,1,0,0
1513231499653229,0,1,-2,-1,-4,-2,-2,0
1513231499661235,0,-2,0,-1,0,-1,0,-4
1513231499661235,-1,-2,-2,-1,0,-1,1,-2
1513231499668743,0,-1,-3,-1,-2,-3,-1,-1
1513231499668743,-2,1,-1,-5,0,1,1,0
1513231499670257,-3,-3,-1,1,2,0,-2,-2
1513231499670257,0,1,-1,1,-2,-1,-2,-1
1513231499682750,-1,0,-1,-2,-1,0,1,0
1513231499682750,0,0,-3,0,0,-4,-2,-1
1513231499691256,-1,-3,0,-2,-1,0,-1,0
1513231499691256,-2,-1,-1,1,2,-1,0,-2
1513231499706270,0,-1,-1,-4,-3,-1,-2,-3
1513231499706270,-3,0,-2,-2,-2,-2,0,-2
1513231499707770,-2,-1,0,0,-1,-2,0,-1
1513231499707770,0,-2,1,1,0,0,-1,-1
1513231499736790,1,-3,0,-2,-2,-3,-1,-1
1513231499736790,1,-2,0,-3,-1,-2,-2,-2
1513231499738290,0,0,0,-1,0,-2,-1,1
1513231499738290,-3,-2,-1,2,0,-1,0,1
1513231499742813,0,0,-2,-4,-3,0,-2,-1
1513231499742813,1,-1,-1,-1,-2,0,-1,-2
1513231499749818,1,0,-1,-1,0,2,1,1
1513231499749818,-2,-3,-1,0,-1,-3,-2,-2
1513231499766317,-2,-1,-2,-2,-2,-1,-1,-2
1513231499766317,0,0,-2,-1,-2,0,-1,-2
1513231499767828,-2,-2,-2,-1,1,0,-3,-2
1513231499767828,0,-1,-2,0,0,-3,0,-1
1513231499788825,-4,-1,0,-1,-1,-2,-2,0
1513231499788825,-1,-2,-1,-1,-2,-1,-2,-1
1513231499790336,-1,-1,-1,-3,-3,-2,0,-2
1513231499790336,-2,-3,-1,0,0,0,-3,-1
1513231499802851,-1,0,-3,0,-2,-1,-1,1
1513231499802851,-1,0,-2,-2,-1,-1,0,0
1513231499809849,0,1,-2,0,-2,-2,0,-1
1513231499809849,-1,-2,0,-2,-2,-1,2,-2
1513231499826352,0,-2,1,1,-1,-3,0,0
1513231499826352,-2,-3,-1,-1,-1,-2,-1,1
1513231499827856,0,-1,0,-2,1,-1,-1,0
1513231499827856,-2,0,-2,-1,0,0,-2,0
1513231499848868,0,2,0,-2,-2,0,-2,0
1513231499848868,-1,-1,-1,0,0,-2,-2,-2
1513231499850371,-2,-2,-1,2,-1,-3,-1,-2
1513231499850371,-1,-1,-1,0,-1,0,-1,-1
1513231499862881,0,-3,-2,-2,-1,-2,0,0
1513231499862881,0,-1,-1,-1,-2,0,0,0
1513231499869885,1,-2,-3,-2,-1,-1,-2,-2
1513231499869885,-2,-1,0,-2,-2,-1,-1,1
1513231499885895,-2,-1,-3,0,0,0,-3,-3
1513231499885895,-1,0,-1,-2,-2,-1,0,-1
1513231499887909,-1,0,-2,-1,-1,-2,-1,-2
1513231499887909,0,0,-3,-2,0,-1,-1,-1
1513231499908410,-2,-1,-2,-1,0,-1,0,0
1513231499908410,-2,-1,-1,-3,0,-2,-2,0
1513231499910411,-2,-1,0,-1,-2,0,-1,0
1513231499910411,-1,0,-1,-1,0,-2,0,0
1513231499930949,-1,-2,-2,0,0,-1,-1,-2
1513231499930949,0,-2,-2,-1,0,1,-1,-1
1513231499932927,-2,-1,-1,-2,-2,0,-2,-2
1513231499932927,1,-1,0,-2,-1,1,0,0
1513231499946937,1,0,1,0,-1,-1,1,-1
1513231499946937,0,-1,-2,-1,1,-1,-1,0
1513231499948450,-1,0,0,-2,0,-3,-2,1
1513231499948450,-1,-3,0,-2,-1,-3,-1,0
1513231499968463,-1,0,-1,-1,-1,-2,-1,-3
1513231499968463,-1,0,-1,-1,-1,0,-2,-1
1513231499970454,-3,-2,0,-1,-1,-1,0,0
1513231499970454,-1,-1,-2,-1,-1,-1,-3,-1
1513231499990990,0,0,-1,-2,-1,-2,-2,-1
1513231499990990,0,-2,-1,0,-3,-2,0,0
1513231499992970,0,-1,-1,0,-2,-2,-1,-1
1513231499992970,1,-1,-2,-1,-2,-1,0,-1
1513231500005989,-1,-1,-1,-1,1,-1,0,-1
1513231500005989,-3,2,-1,0,-1,-1,-1,-2
1513231500007481,-1,-1,-2,-1,-1,-1,-1,0
1513231500007481,1,-2,-1,-1,-1,-2,0,-2
1513231500028505,1,-1,-2,0,-1,-2,-1,-1
1513231500028505,-2,-1,-1,-1,-2,-2,-1,-2
1513231500029997,-1,0,-2,-2,-1,-1,-1,-1
1513231500029997,-1,-1,-2,-2,0,1,-1,-1
1513231500042006,-1,-2,0,-2,-2,-3,-2,-3
1513231500042006,-1,-2,-1,-1,-2,-1,-2,-2
1513231500051012,0,-3,0,-2,-2,-2,0,1
1513231500051012,-1,0,-1,1,0,-2,1,1
1513231500066089,-1,0,-1,0,-2,0,-1,-1
1513231500066089,-3,-1,0,-1,0,-1,-2,-2
1513231500067590,-2,-2,-2,0,-1,-1,-3,-3
1513231500067590,0,0,-2,-1,0,0,-1,-1
1513231500089106,-1,-2,-1,-3,0,0,0,-1
1513231500089106,0,-1,-2,-1,-2,-2,1,-2
1513231500090606,0,-1,-2,0,0,-1,-2,0
1513231500090606,-2,-1,-2,0,-2,0,-2,-1
1513231500102114,-1,-3,-1,-2,-1,-1,0,-1
1513231500102114,-3,-1,-4,-2,-1,1,-3,-1
1513231500111121,0,-1,-1,0,0,0,0,-3
1513231500111121,-1,1,-1,-1,-3,-3,-1,-1
1513231500126645,-1,-2,1,-1,-1,-2,-2,0
1513231500126645,1,-1,1,-1,-1,-1,0,-2
1513231500128633,-1,0,0,-1,0,-1,0,-1
1513231500128633,-2,1,0,-2,-2,0,-3,-2
1513231500148646,-1,0,-3,0,-2,-1,-1,-2
1513231500148646,-2,-3,0,-2,0,-2,-1,-2
1513231500150148,-1,-1,-2,-1,0,0,-1,-2
1513231500150148,-1,-3,0,-2,-3,-2,-2,-2
1513231500162156,-1,-1,-3,0,-1,1,-1,-1
1513231500162156,-1,0,-1,-1,-1,1,-1,1
1513231500171162,-1,-1,-2,-1,0,-1,0,-3
1513231500171162,-1,0,-1,2,0,1,0,-2
1513231500186173,0,-1,-1,0,-2,-1,0,-1
1513231500186173,-3,0,-1,-1,0,-1,-2,-3
1513231500187674,-1,-2,-2,0,-1,-1,0,2
1513231500187674,0,-4,0,-2,-1,-2,0,-1
1513231500208699,-1,-2,1,0,-2,-2,-3,-2
1513231500208699,1,-2,-1,-2,-2,-2,0,1
1513231500210204,0,0,0,1,-1,-1,1,-1
1513231500210204,0,-3,-2,-2,0,-2,0,-3
1513231500222201,0,0,-3,-2,0,-2,-1,-1
1513231500222201,-2,-2,-2,-2,-2,-2,0,-1
1513231500231204,-1,0,-1,-3,-3,-2,-1,-1
1513231500231204,0,-2,-1,0,-1,-2,0,0
1513231500246216,-3,-3,0,-1,-2,0,-1,0
1513231500246216,-1,-1,-1,0,-1,-1,-2,0
1513231500247716,-2,-1,0,-2,-2,-1,0,-1
1513231500247716,-1,0,-2,-2,-1,0,0,0
1513231500268734,-2,0,-1,-2,-1,-1,-1,-2
1513231500268734,-1,-1,-3,-1,0,-1,-2,-1
1513231500270232,-2,-2,-3,-1,-1,0,-3,-1
1513231500270232,-1,-1,0,0,0,0,0,0
1513231500282240,2,0,-1,-2,-2,0,-1,-1
1513231500282240,-1,0,1,0,-1,-1,-1,-1
1513231500291247,0,-2,-2,-1,-2,-1,-2,-2
1513231500291247,-2,-1,-2,-2,0,-1,-1,0
1513231500306261,0,-1,0,0,0,-2,-1,-1
1513231500306261,0,-1,-2,0,-1,1,0,0
1513231500307759,-2,-1,-2,0,-1,-2,0,0
1513231500307759,-2,-1,1,0,0,-1,0,0
1513231500328777,-3,-2,-1,-1,-2,-1,-1,1
1513231500328777,1,0,-1,-2,-1,-1,1,1
1513231500330275,1,-4,-1,-1,-1,-1,-1,-2
1513231500330275,-1,-3,-2,-1,-2,0,-1,-2
1513231500342301,-2,0,-2,-1,-1,0,-1,-2
1513231500342301,-4,-1,-2,-1,-2,-2,-1,0
1513231500351290,-2,-1,0,0,-1,-1,-3,0
1513231500351290,1,-1,-2,-1,-1,-2,-1,-1
1513231500366307,0,-3,-2,-2,0,-1,-1,0
1513231500366307,-1,-1,0,-2,-2,-1,-1,-2
1513231500367804,-1,-1,1,-1,-1,0,0,-1
1513231500367804,-1,0,-1,-1,-2,-1,-1,-1
1513231500388845,-2,-1,0,-1,-1,-1,-3,0
1513231500388845,-1,-1,0,-3,-1,-1,0,-1
1513231500390317,-1,-1,1,-1,-2,-2,-1,-3
1513231500390317,-1,0,1,-1,-1,-1,0,-1
1513231500402344,-1,-1,-2,-1,-1,1,-1,0
1513231500402344,-2,-3,-2,0,-1,0,-1,-1
1513231500411331,-2,-3,-2,0,-1,0,-2,-2
1513231500411331,-2,-2,-1,-1,-1,-1,-2,1
1513231500426355,-1,0,0,-1,-2,-3,-1,-1
1513231500426355,-2,-2,-2,-2,-1,-3,-3,-1
1513231500427846,-1,1,1,-2,-1,-1,-1,-1
1513231500427846,-1,-1,-2,-1,0,-1,0,-3
1513231500448858,-1,-1,0,-2,0,0,0,-2
1513231500448858,-1,-2,-4,-1,-2,-1,0,-2
1513231500450359,-2,-1,-1,-3,-1,-1,-1,-2
1513231500450359,-2,0,-1,-2,-3,-2,-1,0
1513231500471374,-1,0,-1,-2,1,-1,-1,1
1513231500471374,0,-1,-1,0,-1,0,0,-1
1513231500472890,-1,0,0,0,0,-2,-1,0
1513231500472890,-1,-1,-1,0,0,-1,-3,-2
1513231500486385,-1,-1,-1,-1,-2,-1,-2,-2
1513231500486385,-1,0,0,-1,-1,-1,0,-1
1513231500488413,-1,-1,-1,-2,-1,-1,-1,-1
1513231500488413,0,-2,0,-2,-1,-1,-2,-1
1513231500508412,-1,-2,-1,-2,-2,-1,-1,-2
1513231500508412,-1,-2,-1,0,-1,-1,-2,-1
1513231500510412,-2,-2,0,0,-1,-2,-2,0
1513231500510412,-3,-1,-2,-1,1,-3,-3,0
1513231500530916,0,-1,-3,-1,-2,-1,1,-1
1513231500530916,0,0,1,-1,-1,-3,-3,-1
1513231500532918,1,0,-2,1,-2,-1,1,-2
1513231500532918,-3,0,-1,0,-3,-1,0,0
1513231500545931,-2,-2,0,0,0,-1,-1,-2
1513231500545931,0,0,-1,-1,-2,0,0,-2
1513231500547951,-1,0,-3,-2,0,-2,-2,-1
1513231500547951,0,-1,-1,0,-2,0,-1,0
1513231500568443,0,-2,-2,-1,-1,-2,-1,1
1513231500568443,0,-1,-3,-2,-2,-1,-1,-1
1513231500570444,0,1,-1,-2,-1,0,-1,-1
1513231500570444,-3,0,0,-2,-2,1,0,-1
1513231500590969,-2,-1,-1,-2,-2,0,1,-1
1513231500590969,-1,-2,0,0,-1,-2,-1,0
1513231500592470,-1,-1,-2,-1,-1,-2,0,0
1513231500592470,0,0,-2,-2,-1,-1,-1,-1
1513231500605996,0,-1,-1,1,-3,0,-1,-2
1513231500605996,-3,0,-1,0,0,0,-1,-2
1513231500607972,-2,-2,-1,-1,-3,-2,0,0
1513231500607972,-2,0,0,-1,-1,0,-1,0
1513231500628488,-2,-1,-3,-1,-2,-2,-3,-1
1513231500628488,-1,0,-1,-2,0,1,-1,-2
1513231500629987,1,-1,-1,-2,-1,0,-1,-1
1513231500629987,0,-2,0,-1,-1,-3,0,-2
1513231500658517,-2,0,1,0,0,-1,-1,-1
1513231500658517,-2,0,-1,-1,-1,-1,-1,-1
1513231500660017,-2,-2,0,-2,-1,1,-1,-1
1513231500660017,1,-1,-1,-1,-1,0,0,-1
1513231500665512,0,-1,-1,-2,-2,0,0,-1
1513231500665512,-1,-1,-1,-4,-2,-2,-1,-2
1513231500672019,-1,-1,-2,0,-1,-1,-2,0
1513231500672019,-3,0,-1,-2,-1,-1,-3,0
1513231500688584,-1,-1,0,0,-1,-2,-1,-3
1513231500688584,0,1,-2,-1,0,-2,-1,-2
1513231500690029,-1,0,-1,1,0,0,-2,-1
1513231500690029,-1,-1,0,-1,-1,1,-1,-2
1513231500711057,-2,0,-1,-1,-1,-1,0,-1
1513231500711057,0,-3,0,0,0,-1,-1,-1
1513231500712545,-2,0,-2,-2,0,-1,-1,-1
1513231500712545,-1,0,-2,0,0,-2,0,0
1513231500726055,-1,-1,-1,-1,-1,-3,-3,-1
1513231500726055,1,-2,-2,-1,-1,-1,-2,-2
1513231500734061,-3,-2,-2,-2,-1,-2,-1,-2
1513231500734061,-2,-1,-2,0,-1,-1,0,-1
1513231500748570,-2,0,-1,0,-2,1,-3,0
1513231500748570,0,0,-1,-1,-2,-1,-1,0
1513231500750072,0,-2,-1,-1,-2,-3,-1,-2
1513231500750072,0,-1,1,-2,-1,-2,0,-2
1513231500771113,1,-1,-2,-2,-1,0,-1,-1
1513231500771113,-2,-2,-3,0,-1,0,0,-1
1513231500772603,0,-1,-1,0,1,1,0,-2
1513231500772603,1,-2,-2,-1,-2,-1,-1,-2
1513231500785596,-2,-1,-1,-1,-1,-1,-1,-1
1513231500785596,-1,1,0,-3,-1,2,-1,-2
1513231500792101,0,0,-1,2,-1,-2,-2,-1
1513231500792101,0,0,-2,0,0,-1,-1,-1
1513231500808625,-1,0,-2,0,-1,-1,-1,-1
1513231500808625,-1,-2,-3,-1,0,-4,-2,-1
1513231500810124,-2,-2,0,-1,-1,-2,-1,-1
1513231500810124,-1,-1,1,0,0,-2,-2,-1
1513231500831129,-1,-1,-1,-2,0,0,-2,0
1513231500831129,-3,-1,2,-2,1,-2,-2,-2
1513231500832630,-2,0,-1,-2,-2,-2,-1,0
1513231500832630,-1,-1,-2,0,-1,0,-2,-2
1513231500844652,-1,-3,-1,1,-2,-2,0,-2
1513231500844652,-2,-2,-3,-1,-3,0,-1,0
1513231500853646,0,-2,-1,-1,-3,0,-1,-2
1513231500853646,-1,-1,-1,-1,-2,-2,-2,-2
1513231500868658,-2,-1,-1,0,-1,-1,0,-1
1513231500868658,-3,-3,0,-1,1,0,-3,-2
1513231500870157,-1,-1,-1,-1,0,-2,0,-1
1513231500870157,-1,-1,-1,-2,1,0,0,0
1513231500891172,0,-1,-1,-1,-1,-1,0,-2
1513231500891172,2,0,0,0,-1,0,0,-2
1513231500892673,-2,-1,-2,-2,0,-2,-2,-2
1513231500892673,-1,-1,0,-3,-3,-1,-2,-1
1513231500905181,0,-1,-2,-2,1,-2,-2,-1
1513231500905181,-2,-1,-2,-3,-4,-3,-1,-1
1513231500912186,0,0,-1,0,1,-1,-1,-1
1513231500912186,-2,1,-2,0,-1,-1,0,0
1513231500928714,-2,-2,-1,-2,-1,-1,-1,-3
1513231500928714,-2,-2,-1,-2,0,-2,-1,-1
1513231500930199,1,0,-4,-1,-1,-1,-1,0
1513231500930199,-2,-2,-2,-1,-2,-2,-2,0
1513231500951216,0,-1,-1,0,-2,-1,0,0
1513231500951216,0,-1,-2,-1,-2,-1,0,-1
1513231500952726,-1,0,0,-1,-2,-1,-1,0
1513231500952726,-2,0,-1,0,0,1,0,-1
1513231500965725,-1,-1,-3,-2,0,-1,-1,-1
1513231500965725,0,-1,-2,0,-2,0,-2,-1
1513231500972256,-2,-1,-1,-1,-1,-2,-1,-2
1513231500972256,2,-2,0,-1,-1,0,-1,-1
1513231500988740,-1,-2,-1,-1,-3,0,-1,0
1513231500988740,-1,0,-1,-3,-2,0,0,0
1513231500990242,-3,-2,-1,0,-2,0,-1,-1
1513231500990242,-3,-2,-1,-2,-1,-1,0,0
1513231501011257,-2,-1,-1,-3,-2,-2,-2,-1
1513231501011257,-2,-3,-2,0,-2,1,1,-2
1513231501012757,-2,-2,-2,-2,0,-1,1,-1
1513231501012757,-1,-1,-1,-2,0,2,0,1
1513231501024767,-2,-2,0,-3,-2,-2,-1,1
1513231501024767,-2,-1,-1,-1,-1,-3,-2,1
1513231501041277,0,-2,-1,-1,-3,-3,-2,0
1513231501041277,-1,0,-1,-2,-1,-3,0,-1
1513231501048784,-2,0,-1,-1,-2,-1,-2,-5
1513231501048784,2,0,1,1,0,-3,-3,0
1513231501050294,-1,0,-1,0,0,0,-1,-2
1513231501050294,0,-2,0,1,-1,-3,-1,-1
1513231501071299,0,0,0,-1,-1,-3,-2,1
1513231501071299,-3,1,0,-2,-1,-2,-2,-2
1513231501072800,-1,-4,0,-3,-2,1,-2,-2
1513231501072800,0,-1,1,0,0,-1,-2,0
1513231501084845,-1,-2,-2,-1,0,-1,-1,1
1513231501084845,-1,-1,-3,-3,-1,-2,-1,-2
1513231501093839,1,1,0,-2,0,-1,0,1
1513231501093839,0,-1,-1,-2,0,0,-2,-2
1513231501108350,-1,-1,-2,1,-1,-1,-1,-2
1513231501108350,0,-2,-2,-2,-2,-1,-2,-1
1513231501110355,-1,-2,-1,-2,-1,0,-1,0
1513231501110355,0,-1,-1,0,0,-1,-1,-3
1513231501131379,-1,1,0,-1,-1,-2,0,0
1513231501131379,-2,-2,-1,-1,0,-1,-1,0
1513231501132877,-1,-1,-2,1,0,-1,-1,-1
1513231501132877,-2,-2,-1,-1,-2,0,1,-1
1513231501144885,0,-4,-1,-1,-1,-2,0,-1
1513231501144885,-2,-1,0,-1,-1,-1,0,-1
1513231501153914,-2,-3,-1,-1,-3,-3,-1,0
1513231501153914,1,0,-1,-1,0,-2,0,0
1513231501168392,-1,0,0,0,-2,-1,-1,-1
1513231501168392,-1,-2,-1,-1,-1,0,-2,-1
1513231501170408,-2,1,-3,-1,-2,-3,-2,-2
1513231501170408,0,-1,-1,1,-1,0,-2,-2
1513231501191413,-1,-2,-1,-2,0,-2,1,-1
1513231501191413,1,-1,-2,-1,-2,-2,0,0
1513231501192915,0,-2,-1,-1,0,-2,0,0
1513231501192915,-1,-3,0,-1,-2,-1,0,-2
1513231501220953,0,0,-1,-1,-1,-1,0,-2
1513231501220953,-3,-1,-1,-1,-1,-2,-3,-3
1513231501222947,1,-1,0,-1,-2,1,-1,-2
1513231501222947,-2,0,-2,-1,0,-3,-3,0
1513231501228445,-1,-2,-1,-2,-1,0,-3,-1
1513231501228445,0,-2,-2,-1,-2,-1,0,-1
1513231501230435,-1,-2,-1,0,-2,0,-2,-1
1513231501230435,-1,-1,-1,0,-1,-1,-1,-2
1513231501250950,0,0,0,0,-2,-1,-1,1
1513231501250950,-1,0,0,-1,-2,-3,0,-1
1513231501252954,0,0,0,0,0,0,-1,1
1513231501252954,-1,2,-1,-2,1,0,0,0
1513231501264971,0,-3,-1,0,1,-1,-1,-1
1513231501264971,-1,-2,0,-1,1,-1,-3,-2
1513231501273466,-1,-1,0,0,0,1,1,-2
1513231501273466,-2,-1,-2,-1,-2,-1,-1,-2
1513231501288524,0,0,-1,-1,-1,0,0,0
1513231501288524,-1,-2,-2,-1,-2,-1,-1,-1
1513231501289989,-1,0,-2,-1,-1,0,0,0
1513231501289989,-1,-2,-1,-1,-2,-1,-2,1
1513231501318513,-3,0,-3,-2,-1,-1,-1,-3
1513231501318513,0,-1,0,-1,-1,-1,0,-1
1513231501320502,-1,0,-2,-3,-2,-1,-2,-1
1513231501320502,-1,-2,-2,-2,-1,0,0,-2
1513231501324515,-1,-1,0,-3,-1,1,-3,-2
1513231501324515,0,-2,0,0,-2,0,0,-2
1513231501339523,-2,-2,-1,-2,-1,-2,-2,-1
1513231501339523,1,0,1,1,-1,0,-1,0
1513231501348530,-2,-1,-2,-1,-1,-2,-2,-1
1513231501348530,0,0,-2,-1,0,1,2,0
1513231501350020,1,0,-2,-1,1,-2,-1,1
1513231501350020,-5,-4,-3,-2,-3,-2,-1,-3
1513231501371054,-2,-1,-2,0,-2,-3,-2,-3
1513231501371054,-4,-1,-2,-2,-2,-3,-1,-2
1513231501372536,-2,-1,0,-1,-1,0,0,-2
1513231501372536,-2,-1,1,-1,-1,-3,-3,-1
1513231501384555,1,2,-1,1,-2,-1,2,1
1513231501384555,0,-2,-3,-2,0,-1,-1,0
1513231501393551,-2,-3,-1,-1,-2,0,-6,-3
1513231501393551,2,1,-1,-2,-2,-6,-1,1
1513231501408562,-2,-3,-1,-3,2,0,-10,-4
1513231501408562,-1,0,0,1,-1,-1,6,-1
1513231501410063,-6,0,0,-1,-2,-3,1,1
1513231501410063,-3,-4,-2,-1,-1,0,1,-1
1513231501431080,-2,-1,0,0,0,-3,1,0
1513231501431080,-1,-2,0,-1,-1,1,-3,-2
1513231501432578,-5,-2,-3,-1,-2,-1,3,-2
1513231501432578,0,-1,0,-1,-1,-1,-6,1
1513231501453592,0,-1,-1,-2,0,-1,-3,-1
1513231501453592,1,0,-1,-1,-1,-3,-4,-1
1513231501456110,1,-2,-3,1,0,0,1,-2
1513231501456110,1,1,-1,-2,0,1,1,0
1513231501468604,2,-1,-2,1,-1,0,1,0
1513231501468604,0,-2,-3,-1,-1,-2,-4,-2
1513231501470105,1,-3,-3,0,-1,-2,-1,-1
1513231501470105,0,-1,-2,-2,-1,0,0,-1
1513231501491129,1,-2,-1,0,-1,1,0,1
1513231501491129,-2,-2,-1,-1,-2,-1,1,-1
1513231501492631,-1,-2,-1,-1,0,-2,-3,-2
1513231501492631,-1,1,0,-2,0,-1,0,0
1513231501513645,-2,-1,-1,-2,-2,-2,1,-1
1513231501513645,-2,-1,0,0,-1,0,-2,-1
1513231501515136,0,-1,-1,0,-1,0,-3,0
1513231501515136,0,-2,0,0,-2,0,-1,-2
1513231501528646,-1,-1,-2,-1,-2,-2,-1,0
1513231501528646,-2,0,-1,-2,-2,-2,-1,0
1513231501530147,0,0,-1,-2,-3,0,-3,0
1513231501530147,1,-1,0,-1,0,0,0,-3
1513231501551162,-2,-1,0,-2,-1,-2,-1,-1
1513231501551162,-3,-4,-2,1,1,-1,-3,-3
1513231501552664,-5,-2,-1,-2,-1,-1,2,-1
1513231501552664,-4,-1,-2,-1,1,-2,0,0
1513231501573678,-1,-1,-2,1,-1,-1,0,-1
1513231501573678,0,1,-3,-2,-2,-2,-3,1
1513231501575180,0,1,-1,0,0,0,-4,0
1513231501575180,-1,1,-2,-1,-2,-1,1,0
1513231501596206,0,-1,-2,-1,-2,-1,1,-2
1513231501596206,-2,0,0,-1,-2,0,0,-1
1513231501597695,-1,-1,-1,-2,-1,-2,-2,-2
1513231501597695,-3,-2,0,-2,-2,0,-2,-1
1513231501611205,-1,-1,-1,0,0,-1,-1,-1
1513231501611205,-2,-1,-1,-2,0,0,-2,-2
1513231501612706,1,-1,-1,-2,-1,1,0,0
1513231501612706,2,-2,-3,-2,2,-1,0,-2
1513231501633793,-4,-2,-1,-2,0,0,-3,-3
1513231501633793,-1,0,-2,-1,-2,0,2,0
1513231501635297,0,-1,0,-2,-2,0,2,0
1513231501635297,0,-1,1,0,-2,-3,1,-1
1513231501647802,-1,-2,-1,-2,-3,-1,-2,-1
1513231501647802,-1,-2,-1,0,-1,-1,-3,-1
1513231501654810,0,-2,-1,0,-1,-1,-3,0
1513231501654810,-2,-1,0,-1,-2,-1,-2,0
1513231501671319,-1,0,-1,-3,-1,0,1,-1
1513231501671319,0,0,-1,0,-1,-2,-2,-1
1513231501672849,0,0,-1,0,1,1,0,-1
1513231501672849,-2,-1,-1,-2,-1,-1,-3,-2
1513231501693835,-3,0,-1,-3,-1,-1,0,0
1513231501693835,-1,-3,-1,-2,0,-2,-1,-1
1513231501695347,-1,-1,0,-2,0,0,-6,-2
1513231501695347,-3,-2,-2,0,0,-1,1,0
1513231501708347,0,-4,0,0,-1,0,0,0
1513231501708347,-2,0,0,-2,-2,-2,1,-3
1513231501714850,-3,-3,-2,-1,-1,-2,-1,-2
1513231501714850,-1,-1,-1,-2,-2,0,-3,-2
1513231501730862,0,-1,-1,-1,-3,-1,-2,-1
1513231501730862,-2,-2,-2,-2,-1,-2,-1,-1
1513231501732863,1,-1,-1,-1,-2,-2,0,-1
1513231501732863,0,0,-3,0,0,-1,-3,-1
1513231501753878,-2,-1,-3,-2,-2,-1,2,-2
1513231501753878,-1,0,-1,-2,-1,0,-1,-1
1513231501755381,-2,1,0,-1,-1,0,-1,-2
1513231501755381,-2,-2,0,-2,-1,1,-1,-1
1513231501776395,-1,-3,-1,-1,-2,-1,-2,-2
1513231501776395,-1,-2,-1,-1,-2,-1,-2,-1
1513231501778395,-2,-3,-1,0,-1,0,0,0
1513231501778395,-2,-1,-2,-1,-2,-1,-1,-2
1513231501790904,-4,1,-1,-2,0,-1,-1,-1
1513231501790904,-1,-1,-2,-2,-1,-1,-3,0
1513231501792915,-1,-2,-1,-2,-1,-2,-5,-2
1513231501792915,1,0,0,1,-1,0,4,0
1513231501812980,0,-2,0,0,0,0,1,-1
1513231501812980,0,-3,-2,-2,0,1,2,0
1513231501821477,-1,-1,-2,-1,-2,-2,-2,-1
1513231501821477,-2,-1,-3,0,-1,-1,-2,-2
1513231501827990,-3,-1,-1,-2,-1,-2,-2,-3
1513231501827990,0,0,0,0,-2,-1,2,-1
1513231501834495,-1,-1,-1,1,0,-2,0,1
1513231501834495,-1,-3,-3,-1,-1,0,-1,1
1513231501850998,0,-1,-1,-1,-2,-1,-2,-2
1513231501850998,-1,-1,-2,0,-3,-2,-1,-1
1513231501853009,-1,1,-1,0,-1,-1,1,-1
1513231501853009,-1,1,1,-1,0,-1,-1,-2
1513231501874013,-1,-1,-2,-2,-2,-1,-1,1
1513231501874013,-2,-1,-1,-2,-1,-2,-3,0
1513231501875516,-1,-1,-2,-1,-1,0,1,-1
1513231501875516,-1,0,-1,-2,-1,-1,-3,0
1513231501888070,0,0,-2,0,-1,-2,-2,-2
1513231501888070,0,-1,-1,-2,0,1,1,-3
1513231501894575,1,0,-1,1,-2,-2,0,0
1513231501894575,-1,-2,-2,0,-1,-1,-2,-3
1513231501911081,-1,0,-1,-1,-2,1,0,0
1513231501911081,-3,-2,-1,0,-1,-1,-3,-1
1513231501912572,-1,-1,-1,-1,-2,-1,0,0
1513231501912572,-1,-1,-1,-1,-1,-1,-1,-2
1513231501933596,-2,-1,-1,0,0,-2,-2,1
1513231501933596,0,0,-1,-2,-1,-1,-2,-3
1513231501935097,0,-1,-1,-2,-1,-3,-2,-1
1513231501935097,0,0,-3,-3,-2,-2,3,0
1513231501947096,0,-1,0,-1,-1,0,0,-1
1513231501947096,-1,-2,-1,1,-1,-1,-1,-2
1513231501956102,-1,0,-1,-1,0,2,0,-2
1513231501956102,-1,-2,0,-1,-1,-1,-1,0
1513231501971136,-1,-2,-1,-2,-2,-2,-3,-2
1513231501971136,-1,-1,-1,-3,-2,-1,-2,0
1513231501972636,-2,-2,-2,-2,-1,-3,-1,-1
1513231501972636,-1,-1,-2,-1,-1,-1,-2,-1
1513231501993633,-2,-3,0,-1,0,-1,0,-1
1513231501993633,0,0,-1,0,-1,-1,-2,-1
1513231501995134,-1,-1,-1,-2,-1,0,-1,-1
1513231501995134,0,0,0,0,0,-1,-4,-1
1513231502007642,-1,-1,-1,-2,0,-2,-2,0
1513231502007642,0,-2,-2,0,-3,-1,1,-1
1513231502016145,-1,-1,-2,-1,0,-1,0,0
1513231502016145,-1,-2,-1,0,0,-1,-1,-2
1513231502031156,-3,0,-2,-2,-2,0,-1,-2
1513231502031156,-2,-3,-1,-1,-1,-2,-1,-1
1513231502032667,-1,1,-1,-1,0,-4,-1,-3
1513231502032667,0,-1,-1,-1,-2,-1,-3,-1
1513231502053695,0,-1,0,1,-1,-2,-2,-2
1513231502053695,0,-1,0,-2,-2,-1,5,0
1513231502056195,-1,-3,0,-1,-2,0,-2,-2
1513231502056195,-1,0,-2,-3,-2,-2,-4,-2
1513231502067181,0,-1,-2,-1,-1,-1,-1,-1
1513231502067181,-1,0,-1,0,1,-1,-6,-3
1513231502076188,0,-1,-3,-2,0,1,-1,-1
1513231502076188,-2,-1,-1,-2,-1,-3,-5,-1
1513231502091220,-2,-1,-1,1,-1,1,2,1
1513231502091220,-2,-1,-1,0,-1,-4,2,0
1513231502092699,0,0,-1,1,0,2,7,4
1513231502092699,-2,-1,-2,-2,-2,-1,17,-2
1513231502113233,1,-1,0,-2,-2,-2,-5,-1
1513231502113233,-1,-1,0,-2,-2,-3,-14,-3
1513231502121240,-1,-1,0,-1,-2,-1,-8,-1
1513231502121240,0,-1,0,-1,-2,0,6,-1
1513231502127258,-1,-2,-3,-1,0,-1,0,-1
1513231502127258,0,0,-1,0,0,2,3,2
1513231502136292,-2,-3,-2,-1,-1,-1,2,-1
1513231502136292,-2,-3,-1,-1,-2,0,-6,0
1513231502151803,-3,-1,-1,-2,-3,-2,3,-2
1513231502151803,-2,0,-2,-1,0,0,-4,-1
1513231502153304,-1,-1,-2,-1,0,-5,-1,-2
1513231502153304,-1,-1,-3,-1,0,-1,-1,-1
1513231502173339,0,-2,-2,-2,-2,0,-4,-2
1513231502173339,-1,0,-3,-1,-1,0,4,-2
1513231502175330,-1,-2,-1,-2,-3,0,-2,0
1513231502175330,0,-1,-1,-2,0,-1,-4,-3
1513231502187327,-2,-3,-2,-1,0,-2,-1,-1
1513231502187327,-1,-3,-1,-1,-2,-1,0,0
1513231502196347,-2,-1,-2,-1,-1,0,-1,-3
1513231502196347,0,-1,-1,-1,0,-2,-7,-1
1513231502211345,-2,-1,-1,-1,-2,-1,-4,-1
1513231502211345,-1,-2,1,-1,-2,0,-1,-1
1513231502212845,-1,0,-2,-1,-2,-3,-4,-2
1513231502212845,-1,-3,-2,-1,-1,0,1,-1
1513231502233861,-1,-1,-1,-3,0,-2,-1,0
1513231502233861,-2,0,-1,-2,1,-1,0,-3
1513231502235362,-1,-2,-2,-1,0,-1,-1,-1
1513231502235362,-2,0,-1,-2,-2,0,-3,-2
1513231502247371,-1,-1,-1,0,-2,-2,0,-2
1513231502247371,-1,-2,-2,-2,-1,-1,-3,-1
1513231502256376,-1,0,-1,0,-1,-1,3,2
1513231502256376,-1,-1,0,-2,-1,-3,-1,-2
1513231502270411,0,-2,-1,-1,1,0,-1,-1
1513231502270411,-1,-2,0,0,-1,-2,-6,-3
1513231502278903,-1,-1,0,-3,-1,-1,6,2
1513231502278903,-1,0,0,-2,-1,0,-1,0
1513231502293402,-1,0,-1,-3,-1,-2,2,0
1513231502293402,0,-2,-3,0,2,-2,1,0
1513231502295404,0,0,0,0,0,-1,-3,-3
1513231502295404,0,-2,-1,-2,-1,-1,-6,0
1513231502307412,0,-1,-1,-1,-3,-2,1,-2
1513231502307412,-2,-1,-2,-1,-1,0,0,-1
1513231502316421,-2,-1,1,-2,-2,-1,-1,-2
1513231502316421,1,-1,-1,-1,-2,-1,0,-1
1513231502330968,-2,-2,-2,0,0,-2,-3,-2
1513231502330968,-1,1,-2,-1,0,-2,0,0
1513231502332460,0,-1,-1,-1,0,-2,-2,-2
1513231502332460,-2,-2,-1,-2,0,-1,-1,-1
1513231502353484,-1,-1,-1,-1,-1,0,-2,-2
1513231502353484,-1,0,2,0,-1,1,0,0
1513231502355985,0,-2,-1,0,-3,-2,-2,-3
1513231502355985,-2,0,-1,-1,-1,-1,-2,0
1513231502376000,0,-1,-1,-1,-2,-1,0,1
1513231502376000,0,-1,-2,-2,0,-1,2,-1
1513231502377501,0,-1,-2,-1,-2,0,-1,-2
1513231502377501,-1,-2,-3,0,-1,-1,-2,-2
1513231502391001,0,0,0,-1,-2,0,-2,-3
1513231502391001,-1,1,0,-2,-2,-3,-1,0
1513231502392518,0,-2,-2,-1,0,0,-1,0
1513231502392518,0,-1,0,-2,-1,-1,0,0
1513231502413516,0,0,-3,0,0,-2,-1,-1
1513231502413516,-1,-2,-1,-2,-3,-1,0,-1
1513231502415018,-1,1,-1,-2,0,-1,-1,-1
1513231502415018,-2,1,0,-1,-2,0,-6,-3
1513231502436033,-1,-1,0,-1,0,2,1,3
1513231502436033,0,-1,-2,0,-3,0,4,1
1513231502437535,0,-2,-1,-1,1,0,-6,-4
1513231502437535,-3,-1,-2,-2,-2,-4,8,0
1513231502450548,-1,-1,-2,-2,-2,0,11,0
1513231502450548,0,-2,-2,-2,-2,-4,-8,-1
1513231502457072,0,-2,-1,0,0,-1,-4,-1
1513231502457072,-2,-2,-1,1,-2,1,6,0
1513231502473583,0,-1,-2,0,0,0,-4,-1
1513231502473583,0,-2,0,-1,0,-1,-2,-2
1513231502475062,-2,-1,0,0,-3,0,3,-1
1513231502475062,-1,-2,0,-2,0,-1,-10,-4
1513231502496086,-1,-2,-1,-2,-1,0,9,-2
1513231502496086,-3,-3,-2,-2,0,2,-1,-2
1513231502497588,-1,0,-1,0,-1,-3,-3,0
1513231502497588,0,1,-2,-1,1,1,4,1
1513231502511098,-1,-3,-1,-1,-2,-3,-10,-2
1513231502511098,-1,-1,-2,-1,-1,-1,-2,-1
1513231502512590,-1,-2,-2,1,0,0,-4,-1
1513231502512590,0,0,-1,-1,-2,-1,1,0
1513231502533620,-4,-2,-1,-2,-1,-1,-5,-3
1513231502533620,0,-2,0,-1,-1,-1,-3,1
1513231502535103,-2,-1,-1,-2,-1,0,6,0
1513231502535103,0,-1,0,0,-1,-2,-2,-1
1513231502563627,1,-2,-1,-2,0,-3,-7,-3
1513231502563627,-2,0,-1,-2,-2,0,2,-1
1513231502565124,-2,-2,0,-1,-2,0,-1,1
1513231502565124,-1,-2,-1,-1,-1,-1,-4,0
1513231502570657,-1,-2,-1,-1,-2,-1,-7,-2
1513231502570657,0,-1,0,0,-1,-2,5,2
1513231502577148,-1,-1,-3,-2,0,-1,-1,-2
1513231502577148,-2,-2,-1,-2,-2,-3,-1,-1
1513231502593168,0,-1,0,-2,1,0,0,0
1513231502593168,-2,-2,-2,-2,0,-1,-6,-5
1513231502599673,-2,0,1,-1,-1,0,2,2
1513231502599673,-1,-1,-2,-2,-2,-1,-2,-3
1513231502616178,0,-1,-3,0,0,-2,0,-2
1513231502616178,-1,-1,0,0,0,-1,-3,-1
1513231502617676,-2,-1,-2,-1,-1,-3,-1,-2
1513231502617676,-2,-2,1,1,-1,-2,-2,-2
1513231502630187,-2,-2,-2,-1,-2,0,2,0
1513231502630187,0,0,0,-2,-2,1,1,0
1513231502637215,0,-1,-1,-1,1,0,0,0
1513231502637215,0,0,0,-1,0,-1,-1,0
1513231502653702,-2,-2,-2,-1,-1,-2,-3,-1
1513231502653702,0,-2,-1,-2,-1,0,-2,-1
1513231502655213,-1,0,-1,1,-2,0,-2,-2
1513231502655213,-1,-2,-1,-1,-2,0,2,-1
1513231502676229,-2,1,-1,-2,-2,0,-3,-1
1513231502676229,-1,-1,-1,1,-2,-3,1,2
1513231502677731,0,-1,-1,-3,0,-2,-2,-1
1513231502677731,0,-1,-1,-2,0,0,-2,0
1513231502690238,-2,1,0,0,-1,-1,-3,-3
1513231502690238,-3,-3,-1,0,-1,-2,-1,0
1513231502697244,-1,0,0,-1,0,-2,-4,-1
1513231502697244,1,-1,-2,-1,0,2,3,2
1513231502713255,-1,1,-2,-2,0,-1,1,0
1513231502713255,-1,-1,-1,-1,-1,-1,-2,-2
1513231502719783,-1,-1,1,-1,-2,-2,-1,-3
1513231502719783,-1,-2,-1,-1,-1,0,-1,-2
1513231502736272,-1,-1,0,0,-1,-1,-2,-1
1513231502736272,0,0,-1,0,-2,-1,-1,-3
1513231502737771,0,-2,-3,-1,-2,-2,-1,-1
1513231502737771,-1,1,-2,0,0,0,-1,-2
1513231502750272,0,-2,-2,-2,-1,-1,0,-1
1513231502750272,-1,-1,-1,0,0,-1,-1,0
1513231502757334,-1,-1,-1,0,-1,-1,-1,-1
1513231502757334,-1,-3,-4,-1,0,-2,-2,-3
1513231502773849,-3,-3,-1,0,0,0,-3,-1
1513231502773849,1,2,-2,-3,-2,-1,1,0
1513231502775337,-1,0,-1,-1,-1,0,-1,-2
1513231502775337,-1,-1,-2,-3,-2,-3,-2,-1
1513231502796352,-1,-1,0,-1,-3,-2,1,0
1513231502796352,-1,-2,-1,-1,0,-1,-2,-3
1513231502797853,-2,-2,-1,-2,0,-1,0,0
1513231502797853,-1,-1,0,1,-1,0,0,-2
1513231502810362,-1,1,-1,-2,-1,-1,-5,0
1513231502810362,-3,-2,-2,-3,-1,1,0,1
1513231502817866,-1,0,-1,-1,0,-1,-5,-2
1513231502817866,-3,-2,-2,-2,-1,-3,6,0
1513231502832887,-1,-1,-2,-2,-2,-2,-2,-1
1513231502832887,1,-1,2,0,0,-1,1,-2
1513231502833887,-1,-3,-2,-2,-1,-1,-2,-1
1513231502833887,-3,-1,-1,0,0,-2,-6,-2
1513231502863399,-1,-3,-2,-3,-2,0,11,-1
1513231502863399,-2,-1,-1,0,-1,-4,-21,-4
1513231502864410,-1,-1,-1,-1,-2,-3,1,0
1513231502864410,0,-1,-1,-1,-2,-2,-6,-2
1513231502869917,-2,-1,-1,1,-2,-1,2,-3
1513231502869917,-2,-1,-1,-2,0,1,5,-2
1513231502877970,0,0,0,1,-1,2,0,1
1513231502877970,2,0,-1,0,-1,-1,0,1
1513231502892974,-1,1,-1,1,0,-1,-2,0
1513231502892974,-1,1,-1,-2,-2,0,2,-1
1513231502893465,-2,0,-2,-1,-1,0,1,2
1513231502893465,-2,-1,0,-2,0,-1,1,-1
1513231502915483,-1,-1,-1,-1,0,0,-4,-4
1513231502915483,0,0,-1,-1,0,-2,1,1
1513231502915986,-1,-1,-2,-2,-2,-2,2,-3
1513231502915986,-2,-1,0,0,-1,-1,-4,-1
1513231502930494,1,-1,0,-2,-1,-2,-5,-1
1513231502930494,0,0,-2,0,0,-1,-1,-2
1513231502938058,-2,-2,0,0,-1,0,-1,-1
1513231502938058,0,-1,-2,-3,-1,-1,-4,0
1513231502960515,-1,-1,-2,-1,-1,-1,-2,-2
1513231502960515,0,-2,-1,0,-2,-1,6,1
1513231502961516,0,-2,-1,-2,0,-2,-1,1
1513231502961516,-2,-1,-1,-1,-2,0,-2,-2
1513231502983540,0,-2,-2,-2,-1,0,2,-2
1513231502983540,-2,0,0,0,-1,1,10,1
1513231502984533,-1,-1,-2,-2,0,-2,-10,-2
1513231502984533,-1,-1,0,0,-1,0,-1,-1
1513231502989545,-1,-2,-2,-2,-1,-2,-4,0
1513231502989545,-1,-1,0,-2,-2,0,5,-2
1513231502998051,-2,1,-1,0,0,1,2,-1
1513231502998051,0,-1,-1,-2,-2,-2,-3,-3
1513231503013059,0,0,-1,-1,-1,1,5,2
1513231503013059,0,-1,-2,-2,-2,-1,-2,-1
1513231503013552,-1,-1,-2,0,-3,-2,1,-1
1513231503013552,0,-1,0,-2,-1,-2,-2,-1
1513231503035565,-1,-1,1,0,0,-1,-7,-4
1513231503035565,-1,-1,-2,0,0,-1,5,4
1513231503036066,1,0,-1,-2,-1,0,-4,0
1513231503036066,-1,0,-3,-1,-2,0,8,-1
1513231503049585,0,0,-2,0,-2,-2,-4,-1
1513231503049585,-3,-2,-2,-2,0,-3,-10,-2
1513231503058082,-1,-1,-1,0,0,0,1,-2
1513231503058082,0,-2,0,-1,0,-1,-3,-1
1513231503073092,-3,-2,-1,-2,-1,-2,-2,-1
1513231503073092,-1,-2,-2,-2,-2,-1,-6,-2
1513231503073593,-2,0,0,-1,0,-2,1,-2
1513231503073593,-1,0,-2,-2,-1,-1,1,2
1513231503095660,0,0,0,-1,-3,1,-1,-1
1513231503095660,0,0,-2,1,-2,-3,-2,-1
1513231503096159,-3,-2,-2,0,0,-2,0,-1
1513231503096159,-1,0,-1,-1,-1,-2,-2,-3
1513231503109693,-1,-1,1,1,0,-2,0,0
1513231503109693,-1,0,-1,-1,0,1,-1,0
1513231503117699,0,0,-1,-2,-2,-2,-2,-1
1513231503117699,-3,-1,-1,-2,-1,0,-9,-4
1513231503132700,0,-3,-2,-1,-1,1,8,1
1513231503132700,-1,-2,-1,-1,-1,-1,-3,-3
1513231503133700,0,-2,0,-1,-2,-1,-1,-1
1513231503133700,-1,1,-1,-1,1,-1,0,-1
1513231503155715,-2,-1,-2,-2,-1,-3,-1,-3
1513231503155715,-2,-1,0,-2,-1,-3,-6,-2
1513231503156202,0,-2,0,-1,-1,-3,3,-1
1513231503156202,-1,-2,-1,-1,-2,0,-1,-1
1513231503169732,0,0,-1,-1,-2,1,-1,-2
1513231503169732,-2,-2,-2,-1,1,-1,0,0
1513231503177719,-2,0,-3,-2,-1,-2,-3,-3
1513231503177719,-1,-2,-1,-1,1,-1,0,0
1513231503192746,-1,0,-1,-1,0,-2,-2,-2
1513231503192746,1,1,0,0,-3,-3,-6,-4
1513231503193746,-1,-1,-1,-2,0,-1,-2,-1
1513231503193746,-2,-2,-1,-2,-2,-3,-2,-2
1513231503215281,-1,-2,-1,0,-1,-1,-1,2
1513231503215281,0,-2,-1,-2,0,-1,-1,-1
1513231503216254,-2,-1,0,-1,0,0,1,-2
1513231503216254,-1,1,-2,-1,-1,1,-2,-2
1513231503229754,-1,-1,-1,0,0,-2,-4,1
1513231503229754,-2,-1,-1,-1,-2,-1,1,-1
1513231503237768,-1,-2,-1,0,-2,-2,1,-2
1513231503237768,-1,-2,-2,-1,-1,-1,1,1
1513231503261289,-1,0,-1,-1,0,0,-9,-2
1513231503261289,-2,-1,-3,-1,-1,2,7,1
1513231503261777,0,0,-3,-1,-2,-1,-2,-1
1513231503261777,-2,-2,-1,-3,-3,-3,0,-3
1513231503275287,-1,0,-1,-2,-1,-2,0,-2
1513231503275287,0,-1,-1,0,-2,0,-4,-2
1513231503276294,-1,0,0,0,-3,0,-1,0
1513231503276294,1,-1,0,1,-2,0,0,1
1513231503298803,1,-1,-2,0,-1,-3,-5,-3
1513231503298803,0,-2,-1,-2,0,0,-2,-1
1513231503299303,-1,-2,-1,0,-1,0,2,-1
1513231503299303,0,-1,-1,0,-1,-2,0,-2
1513231503312841,-1,-1,0,0,-1,0,0,-2
1513231503312841,-1,-2,1,0,0,-3,-3,-2
1513231503313814,-1,-1,0,-3,0,1,-1,0
1513231503313814,0,-2,-2,-1,-3,-1,-2,-1
1513231503343333,-1,-1,-1,-2,-1,0,1,-1
1513231503343333,0,0,-1,-1,1,-1,-1,0
1513231503344334,-1,0,0,-2,0,0,-2,0
1513231503344334,-1,2,-1,0,0,-2,-2,1
1513231503358858,-2,-1,0,-2,-1,0,2,1
1513231503358858,-1,-2,-1,0,-2,1,1,1
1513231503359348,-1,-1,-1,-1,-1,0,-2,-3
1513231503359348,0,-1,-1,-1,-1,0,-5,-2
1513231503372857,-2,-1,-3,-3,-1,0,5,0
1513231503372857,-1,-1,-3,-3,-1,-1,-2,-2
1513231503373855,-1,0,-1,-1,1,1,-5,-3
1513231503373855,-1,-1,-1,-1,-1,0,4,2
1513231503395371,-1,0,-3,-1,-1,-1,1,0
1513231503395371,-2,-1,0,-1,-1,0,-1,-1
1513231503395871,-3,-2,-1,-1,-1,-1,0,-1
1513231503395871,-2,-1,0,-2,-1,0,1,-1
1513231503418386,0,-2,-1,-2,-2,-4,-5,-3
1513231503418386,0,-2,-1,0,0,-2,3,1
1513231503419387,0,0,-2,-2,-2,-4,-3,-1
1513231503419387,-2,-1,-3,0,-1,-1,-2,-2
1513231503433469,-1,-2,-2,-1,-1,0,1,-1
1513231503433469,-1,-1,-1,-1,-1,0,-3,-2
1513231503433969,0,-3,-2,-1,1,-2,-1,0
1513231503433969,-1,0,-1,-1,0,-1,3,0
1513231503455485,-2,-1,-2,-1,-1,0,2,0
1513231503455485,-1,2,1,-1,-1,-3,-4,-3
1513231503456485,-1,-2,-1,1,-1,0,0,-1
1513231503456485,0,0,-3,-1,-1,-3,-2,-2
1513231503478502,-1,-1,-3,-1,-1,-1,-3,-1
1513231503478502,0,-3,-1,0,-1,0,-1,-1
1513231503479502,-1,-2,-1,-1,-1,1,1,1
1513231503479502,-2,-1,-1,0,0,0,-3,-2
1513231503493011,-1,-4,1,-1,-2,0,5,1
1513231503493011,0,-1,-2,-1,-2,-1,2,2
1513231503493511,-1,-2,-2,-2,-2,-2,-2,-1
1513231503493511,-2,-1,-1,-1,-2,-1,0,-2
1513231503515545,-1,-2,0,-1,-1,-1,-7,-2
1513231503515545,-3,-1,-1,-2,-1,-1,0,-1
1513231503516027,-2,-1,-2,-1,-1,-1,1,0
1513231503516027,0,-1,-1,-2,0,-2,-2,-2
1513231503539083,-2,-2,-1,-2,-1,0,-2,-4
1513231503539083,-1,-1,-2,-1,-2,-3,-1,-1
1513231503540063,-1,0,-1,-2,-2,-1,-1,-2
1513231503540063,-1,-3,-2,-1,-1,-2,0,0
1513231503553563,-2,-1,-1,0,-1,-1,-1,-1
1513231503553563,-2,-1,-1,0,-2,-3,0,-2
1513231503554054,-1,0,0,-2,-2,-2,-3,-1
1513231503554054,1,-2,-2,-3,-2,-1,1,-2
1513231503575569,-1,1,-2,-1,-1,-2,0,1
1513231503575569,1,0,-2,-2,-1,0,0,-2
1513231503576069,0,1,-2,0,-2,-2,-1,-1
1513231503576069,-2,-2,1,-1,-1,1,-2,-1
1513231503598646,0,-1,-1,-1,0,-1,-2,0
1513231503598646,-1,-1,-2,-1,0,1,0,0
1513231503599147,-1,0,0,-1,-1,-1,2,0
1513231503599147,0,-2,-1,0,-2,0,-1,0
1513231503612657,-2,-1,-1,-1,-1,0,-2,-4
1513231503612657,-3,-1,-1,-1,0,1,0,-1
1513231503613658,0,-2,-1,-2,0,-1,1,0
1513231503613658,-1,-2,-2,0,-1,-1,-4,-1
1513231503635216,0,-3,-3,-3,-1,0,0,-1
1513231503635216,1,-3,-2,0,-2,-1,0,0
1513231503636217,-2,-1,-1,0,0,0,-2,-3
1513231503636217,0,-2,-1,-1,-2,-2,1,-1
1513231503658223,-1,-1,0,-1,-1,-1,0,-1
1513231503658223,-2,0,-1,0,0,-1,0,-1
1513231503659224,-1,-2,-2,-2,-2,0,0,0
1513231503659224,-1,-1,5,4,-1,1,-2,0
1513231503672736,-2,0,-8,-8,-2,-2,0,0
1513231503672736,-2,0,1,-1,-2,-3,-2,-3
1513231503673735,-1,0,-2,0,0,-1,-3,-1
1513231503673735,0,0,-1,-3,-1,-3,0,-2
1513231503695263,1,-2,1,1,0,-2,-3,0
1513231503695263,0,-1,0,0,-1,-1,-1,-2
1513231503696250,-1,-2,-1,-1,-2,-1,-2,-2
1513231503696250,-2,-2,-2,-1,-1,-2,1,-1
1513231503718772,-2,-1,0,1,-1,-2,1,-2
1513231503718772,0,0,-3,-2,-1,-3,0,-1
1513231503719272,0,-3,0,-1,0,-2,1,-1
1513231503719272,0,-1,-3,-3,-1,0,0,-2
1513231503732790,-1,-1,-1,-1,-1,-3,-5,-5
1513231503732790,3,0,2,0,-1,2,5,3
1513231503733779,-3,-1,-1,-1,-1,-1,-4,-1
