timestamp,emg1,emg2,emg3,emg4,emg5,emg6,emg7,emg8
1512453074912815,-1,-4,2,-1,-2,0,-2,-2
1512453074912815,-4,-3,0,-2,0,-1,0,0
1512453074913816,-2,-1,-2,2,-3,0,-1,-1
1512453074913816,1,-1,-1,-3,0,-1,1,-3
1512453074936829,-1,0,-1,-3,1,-2,-3,0
1512453074936829,0,-4,-2,2,1,-1,-3,-1
1512453074936829,-1,1,-1,-3,-1,-2,-1,0
1512453074936829,-1,0,1,-1,0,-2,2,-2
1512453074950838,1,-2,-1,-2,-2,0,2,-1
1512453074950838,-1,-2,0,-2,-2,-1,2,0
1512453074951840,-3,0,0,0,-1,-2,-3,1
1512453074951840,-1,-1,-1,1,-1,-2,0,0
1512453074972853,0,-1,-3,-1,-1,0,-1,-3
1512453074972853,0,0,-1,-1,-2,-1,-1,0
1512453074973855,1,1,-1,0,-5,-3,-1,0
1512453074973855,-6,-2,-1,-2,-2,-1,-3,-1
1512453074996873,-2,-1,0,0,1,-1,0,-1
1512453074996873,2,-1,0,3,-2,-2,-4,-1
1512453074996873,-1,-2,0,0,-1,-2,-2,1
1512453074996873,0,-1,0,-2,-2,0,-1,-3
1512453075010881,-1,0,-2,-2,1,0,3,0
1512453075010881,0,-3,-1,-2,0,-2,-2,1
1512453075011883,2,-1,-1,-1,0,-1,-2,1
1512453075011883,-1,0,-2,-2,-1,-1,-2,0
1512453075032897,-1,-2,-1,-1,-3,-1,-2,1
1512453075032897,-4,0,-1,-4,0,1,1,0
1512453075033897,-1,-2,-1,-2,0,-3,-2,0
1512453075033897,1,-2,-1,0,-1,2,-2,0
1512453075055913,0,0,-2,1,0,0,0,-2
1512453075055913,0,0,-1,0,-3,-4,-2,2
1512453075056913,-2,-3,-2,-1,-3,1,-5,0
1512453075056913,-4,-1,0,0,2,-2,0,1
1512453075070924,-4,-1,-2,0,1,-5,-1,-2
1512453075070924,1,-1,1,-1,-2,-3,-3,-2
1512453075071923,1,0,-1,-1,-4,-2,0,-1
1512453075071923,-2,0,-1,-2,-1,1,-1,-1
1512453075092940,0,2,-1,-3,-1,1,3,-1
1512453075092940,-2,-5,-3,-1,1,0,0,-1
1512453075093941,-2,-4,0,-2,-3,-1,1,-1
1512453075093941,-1,-1,0,0,-2,-1,-3,-1
1512453075115955,-2,0,-1,0,2,0,-1,-2
1512453075115955,0,0,-2,-1,0,-1,0,0
1512453075116957,0,-2,-3,1,-4,-2,0,-2
1512453075116957,2,-1,0,0,1,-2,1,-2
1512453075130967,-1,-3,0,-4,0,-1,-1,0
1512453075130967,-1,-1,1,-2,0,2,2,-2
1512453075130967,-4,-2,-2,-1,-3,0,-4,1
1512453075130967,1,-2,-2,-1,-1,-2,-3,0
1512453075152981,-1,0,0,-1,0,-3,-1,-5
1512453075152981,-2,-3,-2,-1,-2,1,-1,1
1512453075153981,-1,-2,0,-1,-3,-1,0,0
1512453075153981,-1,-3,0,-2,-1,-2,3,-2
1512453075178000,-3,-2,-2,-2,2,-2,0,-3
1512453075178000,0,0,-2,0,-4,1,0,1
1512453075179001,1,0,-1,-2,3,0,-2,0
1512453075179001,-3,1,0,-2,-2,0,0,0
1512453075191009,3,1,-1,-1,0,0,-1,-2
1512453075191009,0,-3,-3,-2,-2,-1,-1,-2
1512453075191009,-1,-1,-2,-1,1,-1,-3,-1
1512453075191009,0,-1,-2,-1,-1,-1,1,-3
1512453075213024,-4,-1,-2,-1,1,-1,1,0
1512453075213024,-4,2,-3,-2,-3,-1,-5,-2
1512453075214024,2,-1,0,0,-2,0,0,-2
1512453075214024,-1,0,-1,0,-2,-1,-3,-2
1512453075236041,1,-2,1,-1,1,-1,-2,-3
1512453075236041,-1,-1,0,-1,-1,-2,-2,3
1512453075237042,-2,-3,-1,2,0,-4,-1,-2
1512453075237042,0,-1,0,0,1,1,-4,1
1512453075251051,-3,1,0,1,-4,-1,1,0
1512453075251051,-1,0,0,0,2,-1,-3,0
1512453075251051,1,-3,-3,-1,-1,0,-1,-2
1512453075251051,-1,-3,-2,-2,1,-1,1,2
1512453075273066,-1,-2,-1,-2,-1,0,2,-1
1512453075273066,0,-2,-1,0,0,-3,0,-1
1512453075274066,-1,3,1,-2,0,-2,1,3
1512453075274066,0,0,-2,-1,-1,-1,-2,-2
1512453075296082,1,-3,-2,-4,0,0,1,1
1512453075296082,-6,-4,0,-4,0,0,2,-3
1512453075303102,-4,0,-1,-3,0,-1,0,-2
1512453075303102,1,1,-1,1,-1,-1,-2,1
1512453075311094,-2,0,-1,0,-3,0,-3,-2
1512453075311094,0,1,-3,-2,0,-1,-1,-2
1512453075311094,-2,-2,0,0,-3,-1,0,0
1512453075311094,-4,-2,0,-1,0,-1,0,1
1512453075333118,-2,-2,-1,-3,-1,0,-1,0
1512453075333118,1,-2,0,-2,-2,-2,0,-2
1512453075334109,-1,-3,-3,1,-1,-1,-3,1
1512453075334109,0,-2,-3,-2,-2,-3,-2,-3
1512453075356125,2,-1,1,-1,3,1,0,-6
1512453075356125,-1,-2,-1,3,-1,-3,-1,-2
1512453075357139,-1,4,0,-1,-1,-2,0,2
1512453075357139,1,-2,-2,1,-2,0,0,-5
1512453075371136,0,-3,-1,1,0,-2,-2,0
1512453075371136,-2,0,0,-2,1,1,-2,-1
1512453075371136,0,1,-2,0,-2,-1,0,-1
1512453075371136,-4,1,0,-2,-4,0,-2,1
1512453075393152,-3,-3,1,-1,2,-1,2,-1
1512453075393152,1,1,-1,0,-1,-3,-2,-3
1512453075395152,0,-2,1,0,-2,1,0,-3
1512453075395152,-3,2,0,-1,-1,-3,1,0
1512453075416167,-2,-1,0,-1,-2,-1,-2,0
1512453075416167,-1,-3,-2,2,-4,-2,-2,2
1512453075418170,-1,-1,0,-4,-2,-2,-2,-4
1512453075418170,2,0,-2,-1,0,-3,-1,0
1512453075430178,-2,0,-1,-1,-1,0,0,-2
1512453075430178,-2,1,1,-1,0,-2,-2,-5
1512453075438184,-1,-3,-5,1,-2,-2,0,-2
1512453075438184,0,-3,1,-1,1,-2,-2,-2
1512453075453195,0,0,-2,-1,-4,-1,-4,-1
1512453075453195,-3,-1,1,-2,-3,0,-2,0
1512453075454195,0,-2,-2,-3,0,-1,2,0
1512453075454195,-1,-2,-3,-1,0,0,-2,-1
1512453075476235,-3,1,-3,-1,0,-1,-6,0
1512453075476235,2,1,1,-3,-1,-1,2,0
1512453075477211,-1,-3,1,2,1,-1,-2,1
1512453075477211,0,-4,-4,-1,-2,-1,4,0
1512453075490221,-2,-2,0,-2,0,-1,-4,4
1512453075490221,-2,0,-2,-1,-3,-2,-1,-4
1512453075498228,-3,3,-1,-2,-1,0,-4,1
1512453075498228,-1,-4,0,0,-2,-2,-2,-3
1512453075513236,0,-2,-1,1,-1,-1,0,-1
1512453075513236,-2,0,-1,-1,0,0,-2,-1
1512453075514237,0,-1,2,-2,2,0,0,-3
1512453075514237,0,-1,-2,-2,0,-1,-1,-2
1512453075536268,-2,-2,1,-1,0,-1,1,-3
1512453075536268,1,0,-2,0,-3,-6,-2,2
1512453075537254,-1,1,-2,1,-4,0,-2,-1
1512453075537254,-3,-1,0,-2,0,-2,-3,0
1512453075550269,0,3,-1,-3,-1,-2,1,-5
1512453075550269,2,-3,-3,-2,-2,2,1,-1
1512453075558269,-2,-1,-4,-1,-2,-3,0,0
1512453075558269,-2,-2,-1,-1,-1,-2,-1,-1
1512453075573280,-1,-1,-2,-1,-1,-1,1,-2
1512453075573280,-1,-2,0,-2,-2,-2,0,0
1512453075574278,0,-1,1,-1,-1,-1,-1,-1
1512453075574278,-2,1,-1,0,-1,0,-1,1
1512453075595295,-1,0,0,-1,1,-1,-1,-1
1512453075595295,-2,-1,-1,-1,-1,0,0,-1
1512453075603315,-3,-3,-1,-2,-1,-2,0,1
1512453075603315,-2,-1,1,1,-1,1,0,-2
1512453075610375,-1,-1,0,1,-3,-1,-3,-3
1512453075610375,0,0,-2,1,-1,0,1,-3
1512453075618341,-2,-3,-1,-3,1,-3,0,0
1512453075618341,0,-2,-3,0,-1,-1,-3,-2
1512453075633364,-2,-3,-2,-2,0,0,-1,0
1512453075633364,0,-1,-1,-1,2,2,-1,0
1512453075634354,-1,-1,-1,-1,-1,-1,-1,-3
1512453075634354,-2,1,0,-1,-3,-2,2,-1
1512453075656368,-2,-2,-1,-1,-1,-1,3,-2
1512453075656368,0,-1,-1,0,-2,-1,-3,-2
1512453075663375,0,0,1,1,-1,1,-2,-2
1512453075663375,1,-1,-1,-1,-1,-2,-2,0
1512453075670378,0,-1,-2,-2,-2,0,1,-3
1512453075670378,-3,-1,2,-1,1,-2,0,-1
1512453075678384,-1,-2,-2,-2,0,0,-2,3
1512453075678384,2,2,0,0,-4,-1,0,-1
1512453075693408,-1,0,2,-1,-1,0,-2,0
1512453075693408,-2,-1,-3,-3,-2,-1,0,-4
1512453075694395,0,-1,-2,0,-3,0,-3,-1
1512453075694395,-1,-2,-1,-2,0,-1,-3,-1
1512453075715410,-2,2,-1,-3,-3,-3,-2,2
1512453075715410,0,-1,-2,-1,-1,-2,0,-1
1512453075723438,-4,0,-1,1,2,-1,-1,1
1512453075723438,-2,-2,-2,-1,0,-1,-1,-3
1512453075730432,1,-2,-1,-1,0,-1,1,0
1512453075730432,-4,0,0,-1,-2,-1,-1,2
1512453075738437,2,-2,-3,-2,-2,1,1,-2
1512453075738437,1,-3,-2,-1,1,3,0,-2
1512453075753437,-1,-1,-1,-1,1,-1,-1,0
1512453075753437,-2,-2,-1,-2,-1,-3,0,-1
1512453075754449,-1,-1,1,0,-3,-1,0,-1
1512453075754449,-4,0,0,-1,0,-2,0,-2
1512453075776469,0,0,0,-2,-3,-1,3,0
1512453075776469,0,0,-3,-2,1,-1,-3,-4
1512453075777464,-2,1,-1,2,-4,-1,-1,0
1512453075777464,-2,-1,2,0,-1,-1,-2,-1
1512453075798479,-1,0,-2,0,-1,0,-4,-3
1512453075798479,1,-4,0,0,0,0,-3,0
1512453075805488,0,-2,-1,1,-2,-2,-3,-4
1512453075805488,0,-2,-4,-3,-2,1,0,1
1512453075813490,-2,-2,-2,-2,0,-1,-3,1
1512453075813490,-2,-1,1,-1,-4,-1,0,0
1512453075813490,1,-2,0,-3,-2,-1,-3,-1
1512453075813490,1,2,0,-2,-2,-1,0,-3
1512453075836509,1,-1,-5,1,-2,-1,0,-6
1512453075836509,0,1,-2,-1,-4,-2,2,0
1512453075837513,-1,-3,-1,0,-1,-2,0,2
1512453075837513,-2,-1,-2,-2,-2,0,0,-2
1512453075858551,-3,0,0,-3,1,-1,0,-2
1512453075858551,0,0,0,-1,-2,-2,-2,-1
1512453075859525,-2,0,0,-2,-1,1,1,-1
1512453075859525,0,-1,-4,0,-1,-3,-5,2
1512453075873522,-1,-1,-1,1,-3,-2,0,-2
1512453075873522,-1,-2,-3,-1,-2,0,-2,1
1512453075873522,-2,-1,0,0,-1,-3,0,0
1512453075873522,-3,-2,-2,-3,4,-1,0,0
1512453075896539,0,-3,-1,0,-1,1,-1,0
1512453075896539,-1,-2,-1,-1,-1,3,2,1
1512453075897539,0,-1,-3,1,-1,-4,-2,-2
1512453075897539,0,-1,-1,0,1,-1,-1,0
1512453075918564,0,-1,-2,-3,-2,1,-1,-2
1512453075918564,1,-2,-1,-1,2,-1,0,-3
1512453075919554,1,-3,-2,-2,-2,0,-2,-2
1512453075919554,-3,0,-1,0,-1,0,1,-3
1512453075933564,-3,-1,2,-2,0,-2,0,-1
1512453075933564,-3,-2,-1,-1,-1,-1,-4,0
1512453075933564,-1,-1,-1,-2,-2,0,1,-1
1512453075933564,1,0,-2,1,1,-2,1,0
1512453075956581,0,1,1,1,0,0,0,-3
1512453075956581,-2,-2,-2,-2,-2,0,-3,-1
1512453075957588,0,-2,1,-2,-1,-1,-5,2
1512453075957588,-3,-2,0,1,-3,1,1,1
1512453075978596,0,0,-2,-4,1,0,0,2
1512453075978596,0,0,-1,-2,-2,-1,1,3
1512453075979597,-2,0,0,0,0,-2,0,-3
1512453075979597,-1,0,-1,-1,0,0,-2,-1
1512453076001612,-2,-3,1,-1,-3,-2,-5,-1
1512453076001612,1,-1,-2,-1,-2,-2,0,-3
1512453076002626,1,-1,-3,1,0,1,-3,-1
1512453076002626,-1,1,1,-2,-2,-4,0,0
1512453076016639,-4,0,-2,-1,-1,-1,0,-3
1512453076016639,-2,-2,0,-1,-1,1,-3,-2
1512453076017624,-2,-1,-2,-1,-1,-2,-1,-1
1512453076017624,1,-1,-1,0,-1,0,-3,-1
1512453076038657,1,0,-1,-3,-1,0,0,1
1512453076038657,1,-2,-1,-1,-1,-1,-1,0
1512453076039639,0,-3,0,0,-2,-2,3,-1
1512453076039639,1,-3,-1,-2,0,-1,-2,-1
1512453076053649,0,-1,-2,-2,-2,-3,0,-1
1512453076053649,-4,2,0,-2,2,0,-4,1
1512453076053649,-3,-1,0,-1,-2,0,2,0
1512453076053649,0,-3,-2,-1,-2,1,-1,0
1512453076083712,2,-3,-1,1,0,0,-2,-4
1512453076083712,3,-3,-2,-2,-1,0,-3,-1
1512453076084714,-3,-3,-3,-1,-5,-2,-2,-2
1512453076084714,-4,-2,-1,1,-2,0,1,-2
1512453076099723,-5,-2,-1,-2,2,0,0,0
1512453076099723,-3,-1,0,-3,1,-1,0,0
1512453076099723,-2,-2,0,-2,-3,0,-3,1
1512453076099723,1,0,-2,-2,-3,-2,-1,-3
1512453076112733,0,-2,-1,2,-1,0,-3,-3
1512453076112733,-4,0,1,-2,-3,-1,-1,-3
1512453076113734,-1,-1,0,-1,-1,0,-3,0
1512453076113734,-4,2,-3,-1,0,-2,0,-1
1512453076136752,2,-2,0,0,3,-1,-2,2
1512453076136752,-6,1,0,2,0,0,2,-1
1512453076136752,1,-1,0,-1,-2,1,-2,1
1512453076136752,-1,-1,-1,-1,-2,-2,-2,1
1512453076158790,-3,0,1,-2,-1,-1,0,-4
1512453076158790,0,-4,-3,-3,-2,-1,0,-4
1512453076159767,1,-2,-1,0,-1,-2,1,-1
1512453076159767,0,0,0,0,-1,-2,-2,-1
1512453076172785,2,0,-3,-1,-3,-2,-1,-1
1512453076172785,-4,0,-1,-2,1,-2,1,1
1512453076173776,-2,1,-3,-1,-2,-1,-1,0
1512453076173776,0,-3,0,-1,0,-1,-1,-2
1512453076203811,1,0,2,-1,-2,1,-1,0
1512453076203811,0,-2,-2,-1,-2,0,-1,2
1512453076204807,-1,1,-1,0,-1,-3,-1,1
1512453076204807,-3,0,1,-1,0,-1,0,-4
1512453076218822,-1,0,-3,-1,-1,-1,2,-2
1512453076218822,1,-1,-3,1,-1,-3,-3,2
1512453076219818,-4,-2,-2,-1,1,-2,1,0
1512453076219818,-1,-2,-3,-1,-3,1,2,-2
1512453076232827,-2,0,-1,-2,-3,-2,0,0
1512453076232827,0,0,0,-1,0,0,0,-1
1512453076233818,0,-3,-2,-2,-3,-3,-1,-2
1512453076233818,-2,0,-1,0,1,-1,-4,1
1512453076256834,-2,-2,-1,-1,1,-1,1,1
1512453076256834,2,1,1,0,-3,-1,2,-1
1512453076256834,-3,0,1,-2,-3,-2,-1,-2
1512453076256834,-1,0,-4,-3,1,0,0,1
1512453076278892,-2,-2,-1,1,-1,-2,-2,0
1512453076278892,0,-2,-1,1,-2,-3,-2,-1
1512453076280867,1,1,-1,0,-2,0,1,-2
1512453076280867,-2,2,0,-2,-4,1,-3,0
1512453076292867,1,-1,-1,-1,3,0,-1,-3
1512453076292867,0,-1,-3,-1,-2,-1,-3,-2
1512453076301866,1,1,0,-1,2,0,1,-3
1512453076301866,-1,-2,1,0,0,-2,-1,-1
1512453076316885,0,1,-1,-2,-2,-1,-4,0
1512453076316885,-1,-2,-1,-3,-4,0,1,-2
1512453076318879,2,-2,-1,-1,-2,-1,-2,1
1512453076318879,0,-2,-3,-3,1,0,0,-1
1512453076338892,1,-1,-2,-1,-1,-1,0,0
1512453076338892,1,-1,-3,0,-3,-1,-2,-2
1512453076340894,-2,0,1,0,0,-1,0,-1
1512453076340894,-1,-2,1,0,-1,1,3,-2
1512453076352916,1,-2,0,-3,-2,-1,-4,-1
1512453076352916,0,-2,0,-1,0,-1,-3,0
1512453076361909,-2,-1,-5,0,0,0,-1,2
1512453076361909,2,-1,0,0,0,-5,-1,-4
1512453076375933,-6,2,-2,-2,-1,-1,-2,-3
1512453076375933,-2,-3,0,-2,-3,-1,-3,-1
1512453076377922,0,-1,-1,-2,-2,1,-2,1
1512453076377922,-1,-1,0,-2,0,-1,2,0
1512453076405954,-2,-2,-1,-1,0,-1,2,-4
1512453076405954,-2,-3,-2,0,-3,-2,0,1
1512453076407942,-3,0,0,-1,-1,-3,-2,-1
1512453076407942,0,1,-2,-2,-3,-1,-1,3
1512453076412945,2,-1,-3,-2,-5,-1,-1,-2
1512453076412945,0,-1,0,1,-2,-1,-2,-3
1512453076421952,-2,-3,-1,0,-2,-1,-1,1
1512453076421952,-2,-3,-1,0,-1,1,-3,-4
1512453076435981,3,0,1,-3,1,-2,0,-1
1512453076435981,-1,1,-1,-1,0,-1,-1,0
1512453076437963,1,-1,-3,0,-1,-1,0,1
1512453076437963,-2,-1,0,-3,1,-1,-1,-2
1512453076458998,-2,-1,-1,1,-1,0,0,-1
1512453076458998,4,-2,0,-1,-4,0,-2,0
1512453076460980,1,-6,-1,0,-4,-2,-3,-2
1512453076460980,-3,0,0,-1,-3,1,-1,-1
1512453076472987,-1,-2,-1,-2,-1,-1,-2,-1
1512453076472987,-3,1,-1,0,0,-1,2,1
1512453076481002,0,-1,-3,1,-2,0,-4,1
1512453076481002,1,-1,0,0,-1,-3,2,-1
1512453076496004,-4,-3,-1,-1,-3,1,-3,-2
1512453076496004,-2,1,-2,-1,-2,0,-3,1
1512453076498005,0,-1,-1,-1,-3,0,0,2
1512453076498005,0,0,-2,0,0,0,-2,-1
1512453076519020,0,1,-1,-3,0,-1,-2,0
1512453076519020,2,-1,1,-3,-2,-4,0,-1
1512453076520021,-2,0,-2,-1,-3,-1,-2,-2
1512453076520021,-3,0,0,0,2,-1,-2,1
1512453076532044,-1,-1,0,-2,0,-2,-1,0
1512453076532044,-2,-1,-3,-1,-1,-2,-3,-1
1512453076547052,-1,1,-2,-1,-2,-2,-2,-2
1512453076547052,-1,1,2,-2,-2,0,-2,-1
1512453076557056,-1,-1,1,-2,-2,-3,0,-1
1512453076557056,-6,-1,-3,-1,-3,-3,-1,2
1512453076562061,0,0,1,-1,-2,-1,1,-3
1512453076562061,2,-3,-2,-2,1,1,-2,-3
1512453076579075,-2,2,-2,-1,0,-1,0,1
1512453076579075,0,-1,-1,1,-4,-3,-1,-2
1512453076580075,1,-3,-1,-1,1,0,-1,-1
1512453076580075,-2,-1,-2,0,-1,0,1,-2
1512453076592084,0,-1,-1,-2,1,-1,0,-2
1512453076592084,-1,-3,0,-2,0,-1,0,2
1512453076602078,-3,1,0,-2,0,-3,-1,-2
1512453076602078,1,-1,-2,-3,-1,0,3,-6
1512453076616104,-4,-2,-3,0,0,-1,0,-2
1512453076616104,-3,0,-1,1,0,0,-3,-2
1512453076619101,-4,-1,-1,-1,-2,-1,2,-2
1512453076619101,1,0,-2,-1,0,-3,-1,-1
1512453076639114,-1,-1,-3,-1,-1,0,-1,-1
1512453076639114,-1,1,0,-1,-1,0,-1,0
1512453076640116,-2,-1,-1,-2,-2,-1,-2,0
1512453076640116,1,0,-1,-1,0,-1,-3,-4
1512453076652114,1,0,-2,-1,-1,-1,3,-2
1512453076652114,-3,-4,-1,0,2,-3,-3,-2
1512453076661124,-1,-2,0,-1,-1,-1,-2,1
1512453076661124,-2,-2,0,-3,-1,-1,-1,-2
1512453076675189,-2,-2,1,-3,-1,0,-4,0
1512453076675189,-1,2,-1,-1,-5,0,2,-3
1512453076684138,0,-2,-3,-1,0,0,-3,-2
1512453076684138,-1,-1,1,-2,0,0,1,-1
1512453076699164,-1,0,-2,1,0,-1,-2,-2
1512453076699164,2,-3,-1,0,-3,0,-3,2
1512453076700147,-4,-2,0,-1,-2,-2,-2,0
1512453076700147,-3,-1,1,0,1,-1,-1,0
1512453076720171,1,-1,-2,-2,0,1,0,-1
1512453076720171,-1,0,-1,0,-4,-2,0,-3
1512453076729174,3,1,-1,0,-1,-3,0,-1
1512453076729174,-4,-1,-2,-1,-1,0,0,-1
1512453076736173,-2,-2,0,0,-1,-1,-1,0
1512453076736173,-2,-3,-3,-2,-3,1,-4,0
1512453076738184,3,0,0,2,-3,-2,2,-3
1512453076738184,1,-2,0,-1,4,-3,-3,1
1512453076759204,-1,-2,-1,-1,0,0,2,-1
1512453076759204,2,-1,-4,-2,-3,0,-1,2
1512453076760190,-3,-3,-1,-1,-3,0,0,-2
1512453076760190,-4,0,0,-1,1,1,-1,-2
1512453076781215,1,-3,0,-3,-1,0,-2,0
1512453076781215,-2,-2,0,0,-1,-1,-1,0
1512453076783217,-1,1,-3,0,-2,0,-1,1
1512453076783217,1,-2,-1,-1,-1,0,1,-2
1512453076796234,-3,-1,-1,-1,-1,-3,-3,-3
1512453076796234,1,-1,-2,0,2,-1,2,0
1512453076798227,-3,-3,-1,-1,0,0,-2,1
1512453076798227,1,-2,-2,-3,-1,0,-2,0
1512453076819242,-4,-1,-1,0,-1,0,0,-2
1512453076819242,0,0,0,-2,-1,-1,-3,1
1512453076820233,-3,-2,-1,-2,0,0,1,2
1512453076820233,1,-2,-4,-1,-4,-2,1,-2
1512453076841260,-1,-3,-3,0,0,-1,-3,-1
1512453076841260,-1,-3,-2,0,-1,-2,-3,-3
1512453076843258,-5,0,0,-1,3,1,-1,0
1512453076843258,-2,1,-1,-2,0,0,-1,-3
1512453076856258,0,-1,0,-4,-6,-1,-1,0
1512453076856258,0,0,0,0,-1,0,1,0
1512453076862305,-3,-1,-3,-1,0,-2,-1,-3
1512453076862305,-3,-4,1,0,2,0,-1,0
1512453076879290,-1,1,-2,0,-2,0,-1,-3
1512453076879290,0,3,0,-2,-1,-2,-1,0
1512453076880275,2,-2,-3,-1,0,-2,0,0
1512453076880275,0,3,-3,-1,-3,-1,1,-2
1512453076901290,-1,-3,0,0,0,-1,-1,-2
1512453076901290,-2,-3,0,-1,-3,-2,-1,0
1512453076903301,-1,0,0,0,-4,-1,-4,-1
1512453076903301,-1,-3,-1,1,-1,-2,-3,0
1512453076916301,1,-2,-4,-2,0,0,-4,-4
1512453076916301,-1,-1,-3,-2,-2,1,2,0
1512453076922322,-1,-2,-1,-2,-1,0,0,1
1512453076922322,-2,-3,-2,-1,0,-1,-1,1
1512453076939317,-2,1,0,0,0,-2,1,0
1512453076939317,-1,-2,0,0,1,-3,-3,-1
1512453076940321,1,0,1,-1,-2,1,1,-2
1512453076940321,-2,-2,-1,0,-1,1,1,-1
1512453076961334,-1,2,-1,-1,2,2,0,0
1512453076961334,-2,-1,-4,0,-3,-1,-2,1
1512453076967348,-1,-2,-1,-1,0,-3,-1,0
1512453076967348,-3,1,1,-1,-3,-1,-5,0
1512453076975356,2,-4,-2,-3,-2,-2,2,-1
1512453076975356,-1,-1,-1,0,-4,0,-3,0
1512453076982362,-2,-2,-1,-2,-2,1,-1,-2
1512453076982362,0,-3,0,-2,1,-1,0,-2
1512453076998358,0,-1,0,-1,-3,-1,-2,0
1512453076998358,-3,-1,-2,-1,1,0,0,-3
1512453077005366,-3,1,-3,-1,0,0,-3,0
1512453077005366,1,0,-2,-1,1,0,-1,-2
1512453077021393,-2,0,2,-2,-2,0,-1,-1
1512453077021393,0,0,-1,-1,-2,0,1,2
1512453077023395,-1,0,-1,-1,-1,-2,-4,-2
1512453077023395,0,-3,0,0,-3,0,0,-1
1512453077035399,-1,0,-2,0,-1,0,1,-2
1512453077035399,-1,-5,-1,-1,-3,-3,-1,1
1512453077042389,-2,0,-1,-2,-1,-2,0,0
1512453077042389,1,2,-2,-2,-2,0,2,-3
1512453077058415,0,-3,-1,-2,0,-1,-3,-1
1512453077058415,0,1,0,0,1,0,0,-4
1512453077060402,0,-3,-2,-1,-3,0,1,-1
1512453077060402,-3,0,-2,2,-1,-1,-1,-3
1512453077081417,-3,1,0,0,0,-3,0,0
1512453077081417,-1,-4,1,-1,1,-1,-2,0
1512453077083418,-1,-2,-1,0,1,-2,-3,-1
1512453077083418,0,0,0,-1,0,-1,0,1
1512453077095441,1,-3,0,1,-3,1,-1,-1
1512453077095441,-1,-1,-2,0,-2,-3,-4,0
1512453077102446,-1,0,1,1,2,0,-1,-5
1512453077102446,-2,-1,-1,-2,-2,-1,-1,-2
1512453077118445,0,2,-1,-2,-1,-2,0,1
1512453077118445,1,-1,-2,-2,-1,-2,1,2
1512453077120444,-3,-2,0,-1,-3,1,1,0
1512453077120444,0,-1,0,-3,1,-1,0,-4
1512453077141472,-2,-2,-2,-3,-3,-2,-2,-1
1512453077141472,-2,1,-2,-1,0,-1,0,1
1512453077142472,-1,0,-2,0,-2,-3,-1,-1
1512453077142472,-4,-2,-1,1,0,-2,-3,-2
1512453077155480,-1,0,-1,2,-3,0,-1,0
1512453077155480,2,-3,-3,-2,-2,-1,0,-4
1512453077162474,0,-2,-2,-2,-2,-2,0,-1
1512453077162474,-2,3,-1,-4,-1,-1,1,-1
1512453077179487,1,-1,-3,0,-1,-1,0,-2
1512453077179487,-1,-1,0,-1,1,-2,-3,1
1512453077180489,0,0,1,1,1,-1,3,-2
1512453077180489,-1,-2,2,-2,-3,-2,0,-2
1512453077201504,-2,2,-2,-1,1,0,-4,-1
1512453077201504,-2,-1,-2,1,-5,-2,-4,-1
1512453077202503,1,-2,-1,-3,1,1,-2,-2
1512453077202503,0,0,-3,-1,-1,1,1,0
1512453077214521,-3,-4,-3,-1,-2,0,-1,-1
1512453077214521,-4,-2,0,0,-1,-1,1,-2
1512453077223529,-2,-3,-1,1,-3,-1,-3,0
1512453077223529,2,0,0,0,1,1,-2,-3
1512453077237528,1,-2,-1,-4,0,0,0,-1
1512453077237528,0,0,-1,-1,-1,-1,-3,0
1512453077246534,-1,-1,0,0,-1,0,-3,2
1512453077246534,-2,-3,-2,-1,2,-2,0,2
1512453077261556,-3,0,-1,-1,0,-1,0,1
1512453077261556,-4,-1,0,-1,-1,-2,-3,-2
1512453077262546,0,-1,0,-1,1,-1,0,-3
1512453077262546,-3,0,-5,0,-2,1,-2,0
1512453077274563,-1,-2,-1,-1,0,-1,0,0
1512453077274563,-3,1,0,-2,-1,-1,1,1
1512453077283560,-3,0,-1,-2,-1,-1,-1,1
1512453077283560,0,-4,-2,-1,0,-1,-3,-2
1512453077298583,-1,-1,-1,0,-4,-5,-2,-1
1512453077298583,1,-1,-2,0,-3,0,-1,3
1512453077300574,-1,0,1,-1,0,-1,0,-2
1512453077300574,-2,-1,-1,-3,-2,-2,-4,0
1512453077321597,2,-3,0,1,0,0,0,0
1512453077321597,-2,-1,-1,1,-3,-1,0,-2
1512453077322597,1,-2,-3,-3,-1,-1,-2,-2
1512453077322597,0,-1,1,-1,0,-1,-1,-3
1512453077334615,-2,0,-2,-1,-2,-1,-4,-1
1512453077334615,0,-2,-2,0,-2,-1,-1,2
1512453077343621,0,-1,-2,-1,-2,-1,0,0
1512453077343621,1,-1,-1,-3,0,0,-3,-3
1512453077358631,1,-3,0,-1,-4,-1,0,1
1512453077358631,-3,1,-3,-1,0,-1,-1,-2
1512453077360618,-3,-2,-1,0,0,-2,-1,-1
1512453077360618,0,1,0,-2,1,0,0,-2
1512453077380629,-3,-1,-1,-1,0,-1,-1,1
1512453077380629,0,1,-4,0,-1,-1,-1,-1
1512453077388635,-2,-1,-2,-2,1,-3,-2,0
1512453077388635,0,0,-3,0,0,-2,0,-3
1512453077394639,-3,0,-2,-2,-3,-2,-2,-1
1512453077394639,1,-3,1,-2,0,0,0,-2
1512453077403669,1,-1,0,-1,1,-1,0,1
1512453077403669,1,-1,2,0,0,-2,1,0
1512453077418655,-2,2,-2,0,-2,-1,0,0
1512453077418655,-2,-5,-1,0,1,-2,-3,-1
1512453077421667,0,-3,-1,0,-1,-2,-2,-1
1512453077421667,0,-2,0,-2,-4,0,-2,1
1512453077441681,-2,-1,-1,-2,-2,0,-2,0
1512453077441681,0,-1,0,-2,-1,-2,-2,0
1512453077442672,0,0,-2,-1,-2,0,1,1
1512453077442672,-2,-2,-3,-3,-2,-1,-1,-2
1512453077454690,0,-2,-2,0,2,0,-1,-4
1512453077454690,-2,-1,-2,0,-4,-1,-2,0
1512453077463687,0,-2,-2,-2,-2,-1,0,-1
1512453077463687,-1,1,-1,-1,0,0,-1,2
1512453077479699,0,1,-1,-1,0,-3,0,-2
1512453077479699,-1,-2,0,-4,-1,-1,-3,-2
1512453077480700,-1,0,-2,0,1,-1,0,-2
1512453077480700,-3,0,-1,1,-3,-2,-1,2
1512453077501726,-1,-3,-2,-1,-2,0,-2,-1
1512453077501726,0,0,-3,1,-2,-1,0,2
1512453077502716,-2,-2,-2,-2,0,-1,1,-1
1512453077502716,0,-3,0,-2,-1,0,0,-1
1512453077514736,0,0,0,-3,-4,-2,-2,0
1512453077514736,2,0,2,0,-3,0,0,0
1512453077523731,-4,0,-2,-1,0,1,-3,-2
1512453077523731,0,-1,-3,0,0,0,-1,-4
1512453077538741,-1,-2,-2,-2,-2,0,-2,2
1512453077538741,-4,-2,-2,-2,-1,-1,2,-1
1512453077540742,0,0,0,0,-1,-1,1,-2
1512453077540742,-3,0,0,-2,-3,-2,-3,-2
1512453077561767,-1,0,-3,-2,-3,-3,0,-1
1512453077561767,2,0,-1,0,0,1,0,-1
1512453077562797,-3,-2,-2,-1,-1,-1,-1,-3
1512453077562797,-2,-4,-2,0,0,-1,-2,0
1512453077574775,-2,-1,1,1,2,-1,-1,0
1512453077574775,1,0,-3,-1,-1,0,-3,-2
1512453077583787,1,0,-2,-1,-1,0,0,-3
1512453077583787,0,0,-1,0,-4,-1,-1,-2
1512453077598791,-3,-2,1,-3,-1,1,0,-1
1512453077598791,1,-1,0,-1,0,0,-3,0
1512453077600801,-1,-2,-2,0,0,-1,-2,-1
1512453077600801,-1,2,-1,-1,0,1,2,-2
1512453077621799,0,1,-2,0,-3,-3,-4,-1
1512453077621799,-5,-5,-1,-3,-1,-1,0,-2
1512453077622801,-2,-2,0,-1,-1,1,0,1
1512453077622801,0,-1,-2,-1,-1,0,-1,-1
1512453077634828,2,0,-1,1,-1,-1,0,-1
1512453077634828,-2,-2,-1,-2,0,-2,1,-2
1512453077643815,-3,2,-1,-1,1,-1,-1,0
1512453077643815,1,-1,-2,-1,-3,-2,0,-4
1512453077657845,-2,-2,0,-1,-3,-1,-6,3
1512453077657845,-2,1,-2,0,0,-2,-2,1
1512453077666851,0,1,-1,0,-1,-2,-1,-3
1512453077666851,-1,-2,-1,-2,0,-2,0,-1
1512453077681842,-1,1,-1,-1,-2,2,-1,0
1512453077681842,0,-2,-3,-1,0,0,-1,-1
1512453077682843,1,-2,-2,-1,-3,-1,-1,-2
1512453077682843,1,-2,1,-3,-1,-1,2,1
1512453077703871,-2,1,-3,0,-2,-1,0,-1
1512453077703871,-2,-1,-3,1,-2,-1,3,-4
1512453077705859,0,0,0,-3,1,1,0,-1
1512453077705859,-2,0,-2,-1,1,-3,-3,-2
1512453077719878,-2,-3,0,-1,-1,0,-1,1
1512453077719878,0,0,-3,-1,-3,-1,-3,-1
1512453077720884,-3,-3,1,-1,0,-4,-2,0
1512453077720884,-3,-2,0,-1,0,1,-2,0
1512453077748898,1,-1,-2,-1,-2,-3,-1,-1
1512453077748898,-2,0,0,0,0,1,-1,0
1512453077750900,-2,-2,-2,-2,-1,-2,-3,-2
1512453077750900,-1,1,-1,-1,0,-2,-2,-2
1512453077763909,-1,-2,0,3,-1,-1,-2,-1
1512453077763909,-1,-1,1,0,-2,-1,-2,0
1512453077765911,1,-2,-3,0,1,0,1,-3
1512453077765911,-4,-1,0,-1,-3,0,0,3
1512453077778921,1,-2,-1,-2,0,-6,-2,-1
1512453077778921,0,-3,-2,0,-1,-1,0,0
1512453077780917,-4,0,0,0,-2,1,1,-2
1512453077780917,-2,-1,-4,-1,-1,0,-1,-1
1512453077800935,3,-2,-4,0,1,0,0,-3
1512453077800935,-1,-1,-1,-1,1,-2,-2,1
1512453077802928,0,-1,-1,0,-2,-3,-4,2
1512453077802928,1,-3,-2,0,-1,-2,3,0
1512453077823952,-2,-1,-2,0,-3,0,0,-2
1512453077823952,-2,-3,-3,0,0,1,-1,1
1512453077825943,0,3,1,-1,-1,0,0,-4
1512453077825943,2,1,-1,-2,0,-3,0,-5
1512453077837962,-2,-3,-3,-2,-2,-1,-3,1
1512453077837962,-2,0,-2,-2,-2,0,-4,-1
1512453077844958,0,1,-2,-2,0,1,-2,-1
1512453077844958,-2,-2,-2,-1,-4,-3,-1,-2
1512453077860983,-4,2,-1,0,3,0,-1,-3
1512453077860983,-1,-2,2,-1,-5,-3,-1,0
1512453077862970,-1,-1,-1,-2,-1,-2,0,-2
1512453077862970,3,-1,-2,-1,0,3,-3,1
1512453077883994,-2,-3,0,-2,-3,-2,-2,-3
1512453077883994,-2,1,-4,-2,-2,-3,1,-1
1512453077884985,-1,-3,-1,1,0,0,-2,1
1512453077884985,2,0,2,-1,0,-3,-1,0
1512453077898004,-1,-1,-1,-2,-2,-2,0,-2
1512453077898004,0,-1,-1,0,-1,1,-2,0
1512453077905011,-2,-2,-3,-1,0,0,0,0
1512453077905011,-3,-2,-2,1,-2,-1,-1,-2
1512453077922013,0,-3,-1,1,0,1,0,1
1512453077922013,1,1,0,0,-2,0,1,1
1512453077923012,-1,1,1,-2,2,0,-1,0
1512453077923012,-1,-1,-1,-3,0,-2,-1,-1
1512453077944044,0,1,-2,-3,-3,-3,0,3
1512453077944044,2,-2,-3,0,-3,-1,-1,-1
1512453077945028,2,-1,2,0,-2,1,0,-1
1512453077945028,-3,0,-1,-3,2,-2,-2,0
1512453077958048,-2,-2,-2,2,-6,-1,0,0
1512453077958048,1,1,-2,0,0,-3,-3,-1
1512453077965052,-1,0,-1,-2,1,-1,0,-2
1512453077965052,-3,0,0,-2,0,-1,0,0
1512453077981063,-1,-2,-1,1,-1,0,-2,2
1512453077981063,1,1,1,-1,0,0,0,-2
1512453077983064,2,-2,-2,1,-2,-1,0,-3
1512453077983064,0,-1,-1,-2,0,0,-2,-2
1512453078004084,2,1,-2,-5,-2,2,-4,1
1512453078004084,-2,-1,-1,-1,-2,-1,-2,-2
1512453078005070,0,-4,-2,-1,-1,-2,1,-2
1512453078005070,-1,-3,-1,-2,-3,-2,0,-2
1512453078018089,-1,0,-1,-2,-1,-2,1,0
1512453078018089,-1,-2,-1,-2,-1,-1,-2,-1
1512453078025099,-2,2,-3,-2,1,-1,1,0
1512453078025099,-1,4,0,-1,-2,-1,-2,-3
1512453078041105,0,-3,0,-1,1,-1,-2,-2
1512453078041105,-3,0,0,-1,0,-1,0,-1
1512453078043107,-3,0,1,1,-1,-1,-1,1
1512453078043107,-1,-3,0,0,0,1,-2,-1
1512453078064112,2,0,-1,-1,0,-2,1,1
1512453078064112,-3,-1,-1,-1,-2,-1,1,-1
1512453078065112,1,-2,-1,-3,-1,-1,-1,0
1512453078065112,-1,-1,-1,-1,1,-2,1,-1
1512453078078123,1,-2,-1,0,-3,-3,0,0
1512453078078123,-1,-2,0,-2,2,1,-2,-3
1512453078085127,-2,0,-1,-1,0,0,1,-2
1512453078085127,1,-2,-1,-2,-2,0,0,0
1512453078101139,-4,0,-4,0,-2,-3,-4,-3
1512453078101139,0,-1,-1,1,-2,-1,-1,-1
1512453078103140,-4,0,-1,-1,1,-3,-2,-1
1512453078103140,-2,0,-1,-2,-1,0,1,0
1512453078124167,-1,-3,3,-1,-4,-2,2,2
1512453078124167,-1,-2,-1,0,0,0,-3,1
1512453078125169,-5,-2,-2,0,1,-3,0,-2
1512453078125169,1,-1,0,-1,-2,0,-3,-1
1512453078146180,-3,2,-2,2,-1,0,2,-2
1512453078146180,1,-1,-1,-2,-2,-1,-3,0
1512453078148181,-2,-1,-1,-2,0,-1,-1,0
1512453078148181,0,-3,-3,1,-1,0,0,-2
1512453078161195,-2,-1,-2,-2,-3,-1,-1,2
1512453078161195,-3,-3,1,-1,0,0,-1,0
1512453078163182,4,-1,0,-2,-2,-1,-1,-1
1512453078163182,-4,-1,0,-2,0,1,-2,0
1512453078184210,1,-1,-1,1,2,-2,-1,1
1512453078184210,-1,-1,-2,-1,-3,-4,0,-2
1512453078185197,-1,-2,-2,-1,-2,0,-1,0
1512453078185197,-1,-1,0,-2,-1,-2,-2,-2
1512453078197206,3,0,-1,0,-2,-2,-4,-1
1512453078197206,-2,0,-1,-2,0,-4,0,0
1512453078206212,-2,-2,0,0,0,0,-2,-3
1512453078206212,-1,1,-1,-3,-1,-2,-2,-1
1512453078221282,-4,-2,-3,-2,-1,0,-1,-1
1512453078221282,0,1,0,-2,1,1,1,-1
1512453078223282,0,-1,-3,-1,1,0,0,0
1512453078223282,-1,0,-2,-2,-2,-3,-2,0
1512453078244299,-3,0,3,-2,-2,-2,-1,0
1512453078244299,-1,-3,-2,0,-5,-1,-1,0
1512453078245298,-2,-1,-3,0,0,-1,-1,-2
1512453078245298,1,0,-3,0,-1,-2,0,0
1512453078266300,-1,0,-1,-2,-1,-1,0,-1
1512453078266300,-1,-3,-2,-1,-4,-1,-4,1
1512453078268302,-1,2,1,0,-1,-2,-6,-5
1512453078268302,-2,1,-1,-1,-1,-2,0,0
1512453078281328,-1,-1,-4,0,-2,1,-1,-3
1512453078281328,-2,-2,0,-2,0,0,2,0
1512453078283329,1,-1,-2,-1,1,-2,-3,0
1512453078283329,2,-1,0,0,-4,0,0,2
1512453078304338,0,-2,0,-1,-2,1,0,1
1512453078304338,-1,-1,-1,-1,-1,-4,0,-1
1512453078305337,-3,0,2,-2,-2,-1,-1,-2
1512453078305337,-1,-1,-4,0,0,-3,-2,-1
1512453078318338,-1,0,0,-1,2,-2,-3,2
1512453078318338,0,0,-2,1,-2,-2,-1,-2
1512453078326352,2,-1,0,-2,0,1,2,-1
1512453078326352,-1,-2,1,-2,0,-2,-1,-4
1512453078341363,0,-1,-3,0,-4,-2,-1,2
1512453078341363,-2,1,-1,-1,0,-1,0,0
1512453078343364,2,0,1,-3,-2,-1,-2,-3
1512453078343364,-2,-1,-2,-3,0,-1,1,-2
1512453078363378,-1,-2,-1,-1,-1,-1,-5,3
1512453078363378,-1,-1,-1,-1,-2,-3,0,2
1512453078365385,-3,-5,0,-1,-3,-1,1,1
1512453078365385,0,-2,2,0,0,-2,-2,1
1512453078377415,-2,-1,0,1,-1,-1,-2,-3
1512453078377415,0,-1,-3,-2,-3,0,-1,1
1512453078386449,-3,2,-1,-2,1,-1,1,-1
1512453078386449,-2,0,-1,1,1,-1,-2,-1
1512453078401468,0,1,-2,-2,-2,-2,-1,-1
1512453078401468,2,-3,0,1,-2,-2,1,-1
1512453078402469,0,-1,-1,0,1,-3,0,-3
1512453078402469,0,-1,-2,-1,-2,0,-4,-1
1512453078423486,-1,-1,-1,0,-1,-1,-1,-1
1512453078423486,1,-3,-1,-1,0,0,1,-1
1512453078425476,-2,-1,-3,-2,-2,0,-1,1
1512453078425476,-1,0,0,-1,0,1,-2,0
1512453078437494,-3,1,-3,-2,-3,-4,1,0
1512453078437494,0,0,0,0,-2,-2,-4,-3
1512453078446505,-2,0,0,-1,0,1,0,-3
1512453078446505,-2,1,-1,-1,-2,-2,2,-3
1512453078461502,0,-3,-1,-1,-1,0,-2,-2
1512453078461502,-3,-2,-5,-1,-2,-1,1,-1
1512453078462502,-1,1,-1,-3,1,-1,-1,-2
1512453078462502,-2,-3,-1,-1,-1,-2,-2,1
1512453078483533,-2,-2,1,-1,-3,0,1,-3
1512453078483533,-2,2,0,-1,-2,0,-2,-1
1512453078485527,2,-2,-3,0,0,-3,-1,0
1512453078485527,-1,0,-3,-1,0,0,-1,0
1512453078497527,-1,-1,-3,-1,-1,-1,-1,-2
1512453078497527,0,0,-2,0,2,0,-3,3
1512453078506533,2,-2,0,-3,0,0,-1,-3
1512453078506533,-2,1,-1,1,-3,0,-1,-2
1512453078521544,0,-1,-2,-1,0,-1,0,-1
1512453078521544,-2,2,1,-1,-1,1,-3,-4
1512453078522556,-1,-1,-1,-1,-1,-3,0,-2
1512453078522556,-2,-3,0,-2,0,-1,0,-2
1512453078543568,-1,-1,-1,2,1,-3,-3,1
1512453078543568,-1,-1,-2,-1,0,-1,0,-1
1512453078545568,-5,0,-1,-3,-4,2,-2,-1
1512453078545568,1,-2,-2,-3,0,-3,-1,-3
1512453078566576,-2,0,-2,-3,-3,0,0,-2
1512453078566576,-1,-1,-2,-2,2,-3,-3,-1
1512453078567576,-1,-2,1,-2,0,-1,3,-1
1512453078567576,-3,0,-3,-3,-1,-3,-1,0
1512453078581599,-2,-3,-2,-1,-1,-1,1,0
1512453078581599,-1,-1,0,0,0,-1,1,0
1512453078582587,1,-3,-1,-1,-3,1,-2,0
1512453078582587,-1,-2,-2,0,-1,-1,-1,1
1512453078603612,2,-2,-1,0,3,-1,-1,-2
1512453078603612,-1,-2,-3,-1,-3,-2,-1,1
1512453078605603,-1,0,-3,1,-2,-2,0,-1
1512453078605603,-2,-1,-2,-2,-2,1,-4,-4
1512453078626642,-2,-1,0,-1,-3,-1,-4,-4
1512453078626642,-2,-3,-1,-1,-3,-1,1,3
1512453078627618,0,1,-4,-2,-1,0,1,-3
1512453078627618,0,0,-2,-2,2,-2,-1,-2
1512453078641640,-3,1,1,0,-1,0,-2,0
1512453078641640,0,-2,1,0,-3,-2,0,-3
1512453078642630,-2,0,-1,-1,2,-3,1,-3
1512453078642630,2,-1,-1,-1,-2,0,0,-1
1512453078671659,0,0,-4,1,-3,-2,-3,-2
1512453078671659,-1,-2,-1,1,-1,-1,-3,0
1512453078672650,-2,-1,1,-2,-2,1,-2,-1
1512453078672650,-2,-2,-2,-2,-2,-1,0,-1
1512453078686660,-1,0,-1,-2,-2,-2,1,4
1512453078686660,-4,-2,-2,-1,1,1,-2,0
1512453078687662,0,-2,-4,-1,-1,-2,-4,-1
1512453078687662,1,-3,1,2,-2,0,1,0
1512453078701680,0,-2,0,0,-4,-1,-1,-1
1512453078701680,-2,2,-2,-1,-1,0,3,-3
1512453078702675,-3,-1,0,-1,1,1,-1,0
1512453078702675,-1,-1,-3,-1,0,-2,-1,1
1512453078723696,1,0,-2,-1,-3,-5,-4,0
1512453078723696,0,-2,-2,0,-1,-2,0,-2
1512453078725703,0,-2,2,0,0,1,0,-1
1512453078725703,-1,-1,2,-1,-3,-2,0,-1
1512453078746703,-1,-2,-1,-1,-2,-1,1,3
1512453078746703,-2,1,-1,-2,-2,-2,-1,3
1512453078747703,2,1,-3,-1,-2,-2,-1,-3
1512453078747703,-3,-2,0,1,-4,-5,-3,0
1512453078760727,0,-2,0,-1,-1,-2,-2,-1
1512453078760727,0,-2,-1,-2,-1,-1,-2,-1
1512453078767730,-2,-1,-3,0,1,-1,0,0
1512453078767730,0,-1,1,-3,-5,1,1,2
1512453078783739,-1,-2,0,0,2,0,-3,0
1512453078783739,0,0,-1,-2,0,-2,1,-3
1512453078785731,-1,-2,0,-2,-3,-2,-3,1
1512453078785731,0,1,0,-1,2,0,0,0
1512453078806760,-1,-1,-1,-2,-2,-1,-2,2
1512453078806760,-1,-1,-4,-2,0,-1,1,-3
1512453078807747,-3,-2,2,1,-1,-1,1,-2
1512453078807747,2,0,-4,-2,1,-2,-3,-2
1512453078820765,1,-4,1,-2,-3,0,1,-1
1512453078820765,3,0,-1,0,-2,0,-3,-4
1512453078827761,-3,-3,-2,-1,-4,-2,-3,-1
1512453078827761,-2,-1,-1,-2,2,0,-4,-1
1512453078843783,0,-2,-1,0,-1,-2,0,-1
1512453078843783,-1,0,0,-1,-2,-1,0,-2
1512453078845773,1,-1,-1,-1,-3,0,0,3
1512453078845773,-1,-1,1,0,-2,-1,-2,-3
1512453078866788,-1,0,-4,-1,-1,-2,-1,0
1512453078866788,-1,-2,0,1,2,-1,-2,0
1512453078867799,-1,-1,-1,-1,1,1,0,-2
1512453078867799,-3,-3,-2,0,-1,-1,-1,-1
1512453078880797,-2,-1,-2,0,-3,1,-1,0
1512453078880797,-3,-1,0,-2,2,-2,-3,-2
1512453078887822,-1,1,-1,-1,-3,0,2,-1
1512453078887822,-1,-1,-1,-1,-1,-1,-2,0
1512453078903813,-4,0,-2,0,0,-2,-1,-4
1512453078903813,-2,0,0,1,-2,-2,-3,0
1512453078905815,0,0,0,-5,1,-4,0,1
1512453078905815,-1,-3,2,1,-1,0,-3,-2
1512453078925846,1,-3,-2,0,-2,1,-1,-3
1512453078925846,-2,-3,-1,-2,-1,-1,1,2
1512453078927843,-1,-4,0,-2,-1,-2,-3,-1
1512453078927843,-2,0,-2,0,-2,0,0,-2
1512453078940849,-5,0,0,-2,0,-1,-1,1
1512453078940849,-2,1,-1,0,-1,0,2,-3
1512453078947855,0,-1,-2,-2,-1,1,-4,2
1512453078947855,-5,-1,-2,-2,-1,-1,-1,0
1512453078963871,-2,-1,-1,0,-1,0,-1,-1
1512453078963871,0,-3,0,0,0,1,0,-2
1512453078965868,1,-1,-1,0,2,-2,0,-2
1512453078965868,0,-1,-1,-3,-2,-1,-3,-1
1512453078986873,-4,0,-3,-1,-1,0,0,-3
1512453078986873,-1,-1,-3,-1,-3,1,-1,1
1512453078987873,-3,2,-1,-1,-1,-2,1,2
1512453078987873,3,-1,-3,0,-3,-1,1,-1
1512453079000895,0,-1,0,0,-2,-2,-1,-1
1512453079000895,0,0,0,-2,1,-1,0,-3
1512453079007901,-2,1,-1,-2,1,0,2,-5
1512453079007901,-6,-1,-2,-1,-1,-2,-4,1
1512453079023908,1,0,-3,0,-1,0,-1,2
1512453079023908,0,-3,-1,-2,2,-1,-1,-1
1512453079025915,-2,0,-1,-2,0,-1,0,-3
1512453079025915,0,0,-2,0,0,0,2,-2
1512453079046916,1,1,1,1,-5,-1,0,1
1512453079046916,-4,-2,-1,-1,0,-2,-5,0
1512453079047920,-1,0,0,1,-1,0,-2,-1
1512453079047920,-1,-1,-3,-2,-2,-1,-1,-2
1512453079059939,0,-1,0,0,2,-2,0,0
1512453079059939,-1,1,0,-2,-1,-3,0,0
1512453079068931,-1,-3,1,-2,-3,-3,0,-1
1512453079068931,2,-2,-2,1,-3,-1,-3,-1
1512453079083950,-4,0,-1,0,-3,-2,-3,-2
1512453079083950,0,-2,1,-2,-2,0,1,-2
1512453079085942,0,-2,-1,-1,-1,0,-1,-1
1512453079085942,-4,0,-2,-2,-2,-3,0,1
1512453079106959,1,0,-1,-2,-3,0,-2,-1
1512453079106959,-1,0,-3,0,-2,-1,0,0
1512453079107960,-1,0,-1,-2,-4,-1,-2,-2
1512453079107960,0,-1,-3,-1,1,0,0,0
1512453079119967,-3,-2,-3,-1,1,-2,-3,-2
1512453079119967,-3,-2,0,-2,-1,1,1,2
1512453079128975,-1,1,-1,-3,-1,0,-1,-2
1512453079128975,-1,-2,1,-2,-1,-3,-1,0
1512453079143999,0,1,-1,-2,0,-2,2,-1
1512453079143999,0,-1,-3,0,1,-1,-1,-3
1512453079144986,-1,-3,-4,0,-2,-4,-2,-1
1512453079144986,0,0,0,-2,-1,2,-1,0
1512453079166011,-2,-3,0,-1,0,1,0,-3
1512453079166011,0,0,0,-1,-2,-1,1,0
1512453079168001,-1,-1,-1,-1,-1,-1,-3,-2
1512453079168001,-1,-2,-3,-2,-3,-2,0,0
1512453079180022,-1,-1,-1,-2,-2,-4,0,-3
1512453079180022,2,-1,-3,-1,-2,-3,-3,-4
1512453079189032,-3,1,-2,-2,1,0,-1,0
1512453079189032,-1,0,1,1,-1,1,-4,-2
1512453079204036,1,-1,-2,-2,-2,-1,2,3
1512453079204036,-1,-2,-1,-1,-1,0,-1,-4
1512453079205035,0,-2,-1,-2,-1,0,0,-2
1512453079205035,0,0,0,1,-4,2,0,-3
1512453079226057,-2,-1,-1,1,-2,0,-2,-1
1512453079226057,-1,0,-2,-1,-5,-1,-3,2
1512453079234048,-2,0,-1,0,2,-2,1,0
1512453079234048,-1,-2,-2,-5,-1,-1,-2,0
1512453079240055,-1,-1,1,-2,-1,1,-1,-5
1512453079240055,-2,-2,-4,-3,-1,-1,2,0
1512453079249059,-4,-1,0,-2,0,-1,-2,-1
1512453079249059,1,-2,0,-1,-2,-3,-4,-2
1512453079264081,-2,0,1,-2,-2,-1,-1,-2
1512453079264081,2,-1,1,1,3,0,2,-3
1512453079265070,1,-2,-1,0,-1,-1,0,-2
1512453079265070,-4,-2,-3,0,-1,-3,2,1
1512453079286106,-2,-3,-2,1,-1,-2,-2,3
1512453079286106,2,1,-3,2,3,-1,-1,0
1512453079288086,0,-1,-1,0,-3,-1,-3,0
1512453079288086,0,0,0,-1,0,0,1,-1
1512453079300106,0,0,-3,-1,-1,-1,-3,0
1512453079300106,0,-1,1,0,-2,-3,-2,0
1512453079309110,-1,-2,-2,-1,-2,0,-4,-3
1512453079309110,-4,-4,1,0,-1,-2,-1,1
1512453079324123,0,-1,-2,-3,-1,-2,1,0
1512453079324123,0,0,-1,-2,0,1,-1,-2
1512453079325112,-2,-2,0,-2,-2,-1,-1,-1
1512453079325112,-3,-1,0,0,-2,-1,-1,-2
1512453079346137,-1,-3,-3,-1,2,-1,-1,0
1512453079346137,-3,0,-3,-1,-1,0,1,0
1512453079348138,-1,1,-1,-1,-2,-2,0,-2
1512453079348138,-2,-2,-1,-1,-2,-1,-4,1
1512453079360151,0,2,0,0,0,-2,2,-1
1512453079360151,-1,-1,-1,-1,1,-1,-2,-5
1512453079376148,-4,-2,0,0,0,-1,-2,-3
1512453079376148,1,0,-3,0,-2,-3,-4,-1
1512453079384154,-1,-2,2,-1,0,0,0,0
1512453079384154,-2,-2,0,-3,0,-2,-2,-2
1512453079390157,-1,-2,-1,1,-2,-1,1,2
1512453079390157,1,1,1,-2,1,0,-3,-3
1512453079406169,-1,-2,-1,0,-3,1,-2,-1
1512453079406169,0,0,-2,-1,-2,1,2,-1
1512453079408184,-2,-3,0,-1,0,-1,2,-1
1512453079408184,-2,0,-2,0,-1,-2,1,1
1512453079429230,0,-1,0,0,-2,-2,-2,-1
1512453079429230,-3,-2,0,-1,-3,0,-2,-5
1512453079430187,-1,0,-2,-1,2,1,0,-3
1512453079430187,-1,0,-2,-2,-3,0,-2,-2
1512453079444195,-1,-1,1,-2,-2,2,0,-3
1512453079444195,-2,-3,-3,0,0,-3,-2,1
1512453079445198,-1,-2,0,-1,-1,-2,-3,0
1512453079445198,-2,-2,-1,-3,-2,0,1,0
1512453079467224,1,0,-1,-1,-1,-3,-3,0
1512453079467224,2,0,1,-1,-2,1,3,-5
1512453079468223,-1,1,-3,-1,-3,-1,-2,0
1512453079468223,0,-4,-1,-1,1,-2,-1,1
1512453079480231,-3,-4,-1,-1,-2,-2,0,0
1512453079480231,-3,0,-1,0,1,-2,-1,-1
1512453079489237,1,0,0,-2,-1,0,2,-3
1512453079489237,-2,-1,-1,-2,-1,-1,-5,0
1512453079504238,1,1,-4,-1,-2,-2,-3,-4
1512453079504238,-1,-1,-2,-2,0,0,1,3
1512453079505239,1,-1,0,-3,0,-2,2,-1
1512453079505239,-1,-1,-2,-1,-3,-1,0,1
1512453079526268,-2,0,-2,-1,3,-1,-2,2
1512453079526268,-1,-2,-1,0,0,-3,-1,-2
1512453079528273,0,2,-2,0,-1,1,-2,-1
1512453079528273,0,-1,0,2,-2,-1,-4,-4
1512453079549283,-3,-2,-1,-1,0,-2,0,0
1512453079549283,-2,0,1,-2,-2,-1,-2,3
1512453079550272,-3,-2,0,-3,-1,0,-2,2
1512453079550272,-4,-2,-1,-1,-2,-2,2,1
1512453079564281,0,0,0,0,-5,-2,1,1
1512453079564281,2,0,-1,0,2,0,-2,-2
1512453079565289,-2,-2,-2,-2,-2,-2,1,0
1512453079565289,2,0,-1,0,1,-2,-3,0
1512453079586296,-2,-3,-1,-1,-2,0,-3,0
1512453079586296,-2,-2,-2,-3,0,-1,1,-1
1512453079588312,0,-1,-2,1,-2,-1,-1,-2
1512453079588312,1,-2,-2,-4,0,-1,-1,1
1512453079617318,0,-4,-2,1,1,-1,2,-1
1512453079617318,1,-1,1,0,-1,-1,-1,-2
1512453079619319,-1,-2,1,0,-1,0,-4,0
1512453079619319,1,-1,-1,1,-4,-1,2,-1
1512453079623332,-1,-2,-3,-3,0,-2,0,-2
1512453079623332,-1,1,-1,-3,-1,0,2,-2
1512453079630338,-4,-1,0,0,0,-1,-1,-2
1512453079630338,-3,-1,-1,0,-2,-2,0,1
1512453079646351,-1,-2,-2,0,-1,0,-1,1
1512453079646351,-1,-2,0,-3,0,-1,1,-3
1512453079648350,-1,1,0,-2,-1,-1,0,0
1512453079648350,-1,0,-1,-1,0,0,-5,0
1512453079668364,0,-1,0,1,-2,-3,-2,0
1512453079668364,-3,0,1,0,2,-1,-1,2
1512453079670361,3,-1,-5,-1,-1,1,1,0
1512453079670361,0,0,-1,-1,-3,-3,1,-3
1512453079691382,0,0,1,-1,-2,-1,-3,-2
1512453079691382,1,-1,-2,-1,-2,1,-3,-1
1512453079693382,0,-3,-1,-4,-2,-2,-2,-1
1512453079693382,-2,-1,-3,-1,-3,1,-2,-1
1512453079706398,-1,-1,-2,0,0,1,3,-3
1512453079706398,-3,-1,-1,-2,-2,-3,-2,-3
1512453079707404,-3,-1,-2,0,-3,-3,-2,0
1512453079707404,-3,-2,0,-2,0,-2,2,1
1512453079729398,-2,-2,0,-2,0,0,-1,-1
1512453079729398,-1,-2,-3,0,0,-3,1,-1
1512453079730399,0,0,-3,0,-3,-3,-4,-1
1512453079730399,-2,0,-1,1,-1,1,0,0
1512453079743417,-2,2,-3,0,-2,-1,-5,2
1512453079743417,-3,-3,2,-2,-1,1,1,0
1512453079750412,-1,0,-3,-1,-1,1,0,0
1512453079750412,-1,-3,0,-2,-2,-3,-1,-1
1512453079766433,0,-2,-3,-2,-1,0,-2,-1
1512453079766433,0,-1,0,-1,1,-2,-2,-2
1512453079768425,-1,-1,-1,-1,1,-3,1,-5
1512453079768425,1,-1,-1,-3,-1,-1,-2,-2
1512453079788439,-2,1,-3,-4,-3,-3,2,2
1512453079788439,-1,-1,-1,-1,2,0,1,1
1512453079790440,-2,-2,-1,0,-1,1,0,3
1512453079790440,-1,-4,-3,-1,-3,-2,-4,0
1512453079803450,3,-3,-1,-1,-2,-3,-2,-4
1512453079803450,0,1,-3,-1,-2,0,-1,-2
1512453079809481,-2,-1,0,-2,0,-3,-2,-1
1512453079809481,0,2,-3,-1,-1,-3,-3,2
1512453079826467,-3,-1,-1,1,1,-2,-1,-2
1512453079826467,-1,-1,0,-1,0,-3,-2,-2
1512453079828468,0,-3,-3,0,-2,-1,0,-1
1512453079828468,-2,-1,0,1,0,2,-2,-1
1512453079848494,-2,-3,-3,-1,0,0,-1,-1
1512453079848494,-2,0,-4,-2,0,1,1,-1
1512453079850483,1,-2,1,-1,-2,-2,-2,-5
1512453079850483,-2,-1,-1,-1,-1,-2,-2,-2
1512453079863503,2,0,-1,0,-2,-2,2,-2
1512453079863503,-2,-1,-1,-2,-1,0,-2,-3
1512453079869497,2,-3,-1,-1,-1,-1,-3,1
1512453079869497,0,-2,-2,1,-4,0,1,-3
1512453079894525,-1,0,-1,0,0,-1,-2,1
1512453079894525,-1,-3,0,-1,-1,-1,0,-2
1512453079895517,-2,1,0,-3,0,-1,1,-2
1512453079895517,0,-3,-2,1,-4,-3,-3,3
1512453079908542,-1,-1,0,-1,0,1,-1,-1
1512453079908542,-2,-1,-1,-2,1,-1,-2,-1
1512453079910542,0,2,-2,-2,-2,-1,-2,0
1512453079910542,0,-3,0,-1,0,2,-3,0
1512453079931560,1,-1,-3,0,0,-3,1,-2
1512453079931560,-3,2,-3,-1,-2,-2,-1,-2
1512453079933543,-4,-2,1,0,0,-1,0,-1
1512453079933543,-5,-3,-1,-2,-3,-3,1,0
1512453079946569,2,1,-2,-2,0,0,0,1
1512453079946569,-1,-1,-1,1,1,-2,-2,0
1512453079947551,-3,-2,-1,-2,-1,0,-1,-1
1512453079947551,-2,0,-1,0,0,0,0,3
1512453079968579,-3,-3,1,1,-3,-2,1,-3
1512453079968579,0,-1,1,-1,-1,-1,1,-3
1512453079970568,-1,-1,-2,-2,-3,-2,1,-2
1512453079970568,0,-1,-3,-1,-2,0,0,-3
1512453079983577,-4,-2,-2,-2,-1,-2,-4,4
1512453079983577,0,-2,-3,-1,-1,-2,1,-1
1512453079989593,-2,-1,-1,-1,1,0,-4,0
1512453079989593,-1,0,2,-1,-1,-3,-3,-5
1512453080006600,-1,-1,2,-1,-3,-2,0,-5
1512453080006600,0,-1,-3,-2,-2,1,1,-2
1512453080007595,-2,0,0,0,-1,-1,-1,-2
1512453080007595,2,-2,-3,1,-2,-2,-4,-2
1512453080028610,-2,-2,-1,-2,-1,-2,-2,0
1512453080028610,0,-1,-1,0,1,-4,-5,0
1512453080030632,-1,1,0,0,-1,-1,0,-3
1512453080030632,1,1,1,2,-2,-1,2,-2
1512453080042631,-1,-2,-2,-1,-1,-2,-3,-5
1512453080042631,-4,-1,-2,-1,-2,1,2,-3
1512453080051637,1,-3,-3,1,0,-2,0,0
1512453080051637,-4,-1,0,-2,0,-1,-1,2
1512453080066646,-2,-2,0,0,-3,-1,-1,1
1512453080066646,1,1,-1,-4,2,-1,-3,-2
1512453080067646,-1,-1,0,-2,-3,-1,-1,-2
1512453080067646,1,-1,-3,-1,1,-2,-1,-1
1512453080088661,-4,-1,-4,1,-1,1,1,-1
1512453080088661,1,-1,1,-1,-2,0,-1,-1
1512453080090662,0,-5,-2,-3,-2,-2,-4,0
1512453080090662,0,0,-1,-1,-2,-3,2,0
1512453080102671,-3,-1,-2,-2,3,-1,-1,0
1512453080102671,-1,0,1,0,-1,0,-2,-3
1512453080111677,-2,-2,-1,0,-2,1,0,-2
1512453080111677,-1,-1,-1,1,-2,1,0,1
1512453080126678,-2,-2,0,1,-1,-2,-5,-4
1512453080126678,-1,-1,-2,0,-2,0,1,2
1512453080127690,0,-2,-2,-2,1,-1,-2,-1
1512453080127690,-2,-1,1,-1,0,-2,-3,3
1512453080148706,1,1,-3,1,-3,3,0,1
1512453080148706,0,-3,0,0,-1,1,-3,-1
1512453080150706,1,-1,-1,-2,-2,-1,-1,-2
1512453080150706,-1,-2,-3,-2,2,-1,-2,-1
1512453080162704,0,-1,0,-1,-3,-2,1,0
1512453080162704,-3,2,2,-1,1,0,2,-3
1512453080171721,0,-2,-1,-3,-2,-2,-3,-1
1512453080171721,-3,-2,0,0,-2,-1,-1,-1
1512453080186721,0,-3,0,0,-1,-1,-1,-1
1512453080186721,-4,-4,-2,-3,-3,0,0,-1
1512453080187726,-4,-2,-2,-1,-2,-3,-1,1
1512453080187726,0,-2,-1,-1,-1,-1,-2,2
1512453080208750,-2,1,-1,-1,-2,-2,-1,-2
1512453080208750,0,-3,0,-1,-2,-3,0,-1
1512453080210752,0,-1,-3,-1,-2,0,-1,-1
1512453080210752,-4,1,-2,2,-3,1,1,-1
1512453080222756,1,0,1,-3,0,-1,1,2
1512453080222756,-2,1,0,-2,2,-4,-2,1
1512453080231762,1,-2,-4,-1,-2,0,-2,-2
1512453080231762,1,-4,-1,-3,-3,-2,-2,-4
1512453080245765,-1,-3,-1,0,0,0,-3,1
1512453080245765,-1,2,-1,0,0,-1,1,0
1512453080252777,-4,-2,0,0,0,-2,0,-1
1512453080252777,0,1,-2,-1,-2,-1,-3,0
1512453080268795,3,-4,-2,-1,-1,-2,0,-1
1512453080268795,-2,-3,0,-2,-4,-1,-2,-3
1512453080270780,5,1,1,0,0,-1,-2,1
1512453080270780,0,-1,-3,-2,-1,-1,-2,-1
1512453080282808,-2,-1,-2,2,-1,-1,-1,0
1512453080282808,2,-3,-1,-2,-1,0,-3,-1
1512453080291814,-5,-2,-1,-1,-3,0,0,-2
1512453080291814,1,0,-1,-1,-1,-3,-1,2
1512453080305819,-4,-1,-1,-1,-1,-1,-1,-3
1512453080305819,-2,-1,-1,-2,-2,-3,-2,-3
1512453080307808,1,0,0,1,-4,-2,-2,1
1512453080307808,-1,-1,-1,2,-2,-1,-2,-2
1512453080328821,-3,-1,-3,-2,-1,-1,-1,1
1512453080328821,-1,0,-2,-1,-1,0,-1,2
1512453080331824,-3,-1,-2,-2,-2,0,-1,1
1512453080331824,-2,1,-1,0,-1,-2,-1,-1
1512453080342843,1,-1,0,-1,-1,-1,0,-2
1512453080342843,-1,0,-2,-1,0,-2,-1,-3
1512453080350848,-2,-2,-1,0,1,-2,1,-1
1512453080350848,-3,-2,-2,0,1,0,0,-1
1512453080366849,-1,2,-1,-2,-2,-3,0,-2
1512453080366849,-1,-1,-1,-2,0,2,-1,1
1512453080367849,-3,-1,-1,0,-2,-3,-2,-1
1512453080367849,0,-3,0,-1,-1,-2,0,-1
1512453080388873,-1,-1,1,-1,0,-1,-1,-3
1512453080388873,-1,2,-2,-2,0,-3,-2,-1
1512453080389864,1,0,-2,-2,0,-1,-1,0
1512453080389864,0,-2,-2,1,0,-1,2,1
1512453080402892,0,0,-2,-1,-1,1,-2,-1
1512453080402892,-1,-1,-1,-1,-2,-1,1,0
1512453080411883,-1,-2,-1,-3,0,-1,-1,1
1512453080411883,0,0,-3,-3,-3,-1,0,2
1512453080425902,-1,-3,0,0,1,-2,1,-2
1512453080425902,0,0,1,1,1,0,-3,-2
1512453080427891,0,1,-1,-2,-2,1,0,-1
1512453080427891,-1,-5,0,-1,0,0,-3,-3
1512453080448918,-5,-2,-1,-2,-3,0,-1,1
1512453080448918,-3,-3,-3,-2,-2,-1,1,-2
1512453080449919,-1,-1,-1,-1,-1,-2,0,-2
1512453080449919,0,1,-1,0,-1,-2,2,3
1512453080471922,-3,-1,2,-1,0,0,1,-4
1512453080471922,-1,-2,0,-4,-1,-1,0,-5
1512453080472927,-1,-2,-2,-2,-1,-2,-2,-3
1512453080472927,-1,-1,-3,-2,-1,-3,0,-2
1512453080485947,-3,1,0,2,2,0,0,-2
1512453080485947,-1,0,-1,-1,1,-2,-1,0
1512453080487943,3,0,-2,-2,-3,1,1,-3
1512453080487943,-3,0,-2,-2,-2,3,-1,-1
1512453080508963,1,1,-2,-3,-1,-2,-1,0
1512453080508963,0,0,1,-2,-3,2,3,-1
1512453080509958,1,-1,-1,0,0,-1,2,0
1512453080509958,-1,-3,1,1,-3,-2,-1,2
1512453080530974,-2,0,-2,-1,-1,2,1,-2
1512453080530974,0,0,-2,-3,0,0,-2,-1
1512453080530974,-2,-2,-1,-1,0,-2,-3,0
1512453080530974,1,2,-1,-2,-2,-1,0,-3
1512453080545979,0,-3,-1,0,0,-3,-2,1
1512453080545979,-1,-2,-1,0,-2,-1,0,2
1512453080545979,0,0,-1,-1,-2,1,0,0
1512453080545979,-4,1,0,1,0,-2,-2,-2
1512453080567991,2,0,-2,-1,0,0,-2,0
1512453080567991,2,-3,0,-2,2,-1,-4,-1
1512453080568992,-2,-1,-1,1,-3,-1,0,-5
1512453080568992,2,-2,-1,-2,-2,-1,0,1
1512453080591009,-1,0,0,-2,-1,-1,1,2
1512453080591009,-4,-3,-1,-3,1,-1,-2,-1
1512453080591009,-3,-1,-2,1,-1,-3,-1,1
1512453080591009,0,-1,2,-1,0,-2,0,-1
1512453080606036,0,-1,-1,-1,-3,-2,-2,-1
1512453080606036,-1,1,-2,-2,0,-1,1,-2
1512453080606036,-5,-2,-2,-1,0,1,-2,2
1512453080606036,-1,-2,-4,-1,0,-2,1,-1
1512453080628051,0,0,-2,-1,-2,-2,-2,-3
1512453080628051,-2,-1,-2,-1,-3,-1,-3,1
1512453080629037,1,-1,1,-2,-2,1,-1,-4
1512453080629037,-1,-1,-2,0,0,-2,-1,-1
1512453080659073,0,0,-2,-1,-2,0,-4,1
1512453080659073,0,0,0,2,-1,-1,0,-2
1512453080660056,-2,-1,-1,-2,0,-1,1,-2
1512453080660056,-2,0,-1,-2,-1,-1,-4,-2
1512453080666059,2,-3,-2,-3,-1,-1,2,-2
1512453080666059,-3,-1,-2,-1,-2,-2,1,0
1512453080666059,-1,-2,1,0,2,0,-1,2
1512453080666059,-1,1,-3,0,-1,1,-2,1
1512453080688085,0,1,0,-6,-2,0,0,1
1512453080688085,1,-1,-3,-1,-2,-2,1,-2
1512453080689076,1,-4,-3,-4,-2,0,0,-3
1512453080689076,-2,-1,-1,3,0,-2,-4,2
1512453080710092,-2,-2,-1,-1,-1,0,1,-1
1512453080710092,1,0,0,0,-1,-1,-4,-1
1512453080718097,-2,2,0,-2,-1,-1,1,2
1512453080718097,0,-2,1,0,-1,-1,0,-2
1512453080725123,0,-3,-2,-1,-1,-1,-2,0
1512453080725123,-1,0,-1,0,0,-1,0,-2
1512453080726102,0,-1,0,-6,-4,-2,-3,1
1512453080726102,-4,-1,1,-4,-3,-3,-3,-1
1512453080748117,-1,-2,-3,5,2,2,-1,-4
1512453080748117,-1,-1,-1,3,3,3,2,-1
1512453080749118,-2,1,1,14,4,1,-1,0
1512453080749118,1,-3,-11,-7,-3,-1,1,-3
1512453080770145,-1,1,6,-10,-3,-4,0,-3
1512453080770145,0,-4,-11,15,-3,0,-2,-1
1512453080771134,-1,2,14,2,-1,-2,-3,2
1512453080771134,-4,-1,-10,-13,3,4,3,-3
1512453080785155,1,2,9,8,1,0,-1,-2
1512453080785155,-1,0,6,-18,-1,-2,-2,-7
1512453080786157,5,0,7,5,-1,-4,-1,4
1512453080786157,-1,-6,-34,-2,-4,-2,-3,-1
1512453080808173,-3,-1,-5,-6,0,-2,-2,-3
1512453080808173,0,0,7,-6,-1,-2,0,3
1512453080809161,-1,-3,-5,2,-4,-1,-1,-1
1512453080809161,1,1,7,1,-1,0,0,-2
1512453080830187,2,-1,-1,1,0,-1,-2,-3
1512453080830187,-4,-2,-9,4,-3,-2,-5,-3
1512453080831193,-4,1,6,-10,-3,-3,1,-1
1512453080831193,0,-2,4,-10,-5,-4,-4,0
1512453080846187,3,1,-1,12,2,2,0,3
1512453080846187,-5,-1,-2,-19,-3,-2,-1,0
1512453080846187,-3,1,12,26,-1,-1,0,-4
1512453080846187,-5,-2,15,-9,-4,-4,0,3
1512453080868212,-4,-1,-15,2,5,2,0,-1
1512453080868212,1,-4,1,-10,-3,-2,2,-1
1512453080869232,-2,-7,-20,-14,-4,0,-4,-5
1512453080869232,2,2,29,18,2,-2,-2,0
1512453080890230,1,-1,-14,6,0,-2,3,2
1512453080890230,2,3,-3,-4,2,1,1,-2
1512453080891236,-2,-1,8,-3,-5,-1,-2,3
1512453080891236,-2,-3,-9,-1,-1,-2,-2,-4
1512453080905228,0,1,11,-3,0,1,-1,-2
1512453080905228,3,-5,-11,6,0,0,-2,-1
1512453080906229,-1,1,0,-3,-1,-2,-3,1
1512453080906229,1,3,-1,3,-2,-1,1,0
1512453080928259,1,-2,1,-9,-3,-1,1,-2
1512453080928259,-9,-2,3,8,1,-1,0,-4
1512453080929250,2,-3,-11,-9,-4,-1,-3,-3
1512453080929250,-4,1,7,-9,0,1,1,0
1512453080950272,1,-4,-12,6,-2,0,-3,-2
1512453080950272,-2,0,10,3,-2,-2,-2,1
1512453080951261,1,5,11,4,1,-1,-2,-1
1512453080951261,-1,-5,-21,-4,-5,-3,-1,-2
1512453080965271,4,5,4,-5,2,1,2,-2
1512453080965271,-4,-7,10,-4,-4,-3,-4,0
1512453080966272,5,-3,-4,3,-1,-2,-1,0
1512453080966272,-5,-3,-4,-5,0,-1,0,-1
1512453080988287,2,-1,-1,-4,-1,-1,-4,-3
1512453080988287,-3,-4,-4,-7,-4,-1,-1,-3
1512453080995302,-2,-3,-7,-1,-1,-1,-1,0
1512453080995302,-1,1,4,11,-5,1,1,1
1512453081010326,0,1,2,-10,-3,-3,-2,-2
1512453081010326,-2,5,-3,11,-1,-2,0,1
1512453081011304,-4,-4,3,-22,-1,-1,-2,1
1512453081011304,2,1,2,5,2,0,1,0
1512453081025335,-5,-1,4,-1,-3,0,-1,0
1512453081025335,3,-1,0,-9,-1,0,-1,-4
1512453081026315,-3,-1,7,6,-3,-1,-3,0
1512453081026315,1,-3,-14,-4,1,-2,-4,0
1512453081048330,-1,2,9,3,-6,-3,-1,-5
1512453081048330,7,0,-5,-5,0,1,0,-3
1512453081048330,-6,-2,-6,-1,-1,0,1,-2
1512453081048330,-3,0,-5,6,-1,0,-3,2
1512453081070355,-6,-9,6,-9,-3,-5,-3,-2
1512453081070355,-1,1,-11,-1,2,0,1,2
1512453081071346,2,-2,-2,-2,-4,-2,-3,-1
1512453081071346,1,2,3,5,0,0,0,-1
1512453081085365,-2,-1,-3,1,1,0,1,2
1512453081085365,-6,-1,10,-2,-2,-3,-2,-5
1512453081093371,2,-3,-7,-1,1,-1,0,1
1512453081093371,-2,-5,20,-7,-4,-2,-1,-5
1512453081108387,4,-1,6,3,2,3,2,2
1512453081108387,0,-2,-9,3,-5,-2,-2,0
1512453081108387,-6,3,-7,8,1,-1,1,0
1512453081108387,-1,1,3,-6,0,0,0,-3
1512453081130403,1,-4,-13,-5,-1,-2,2,-4
1512453081130403,-2,0,9,3,-1,-1,1,0
1512453081131388,2,-2,-17,-6,-5,-1,-4,1
1512453081131388,2,-4,-9,-3,-1,-1,1,0
1512453081145402,-7,0,4,-3,1,-5,-3,-1
1512453081145402,8,-1,-13,-4,-2,1,1,1
1512453081153416,-15,-1,0,3,1,-1,1,-3
1512453081153416,-1,-3,-12,-2,2,-1,-1,1
1512453081176459,-2,-1,-10,-1,-2,-1,0,-2
1512453081176459,3,3,11,-1,0,-2,-1,-1
1512453081177431,4,-1,-8,-4,-5,-1,-3,1
1512453081177431,8,-3,-18,9,1,-1,-2,-4
1512453081190430,3,4,20,-2,-1,0,1,-3
1512453081190430,2,-3,-9,6,4,0,0,0
1512453081191431,5,0,-12,-12,-4,-2,-3,0
1512453081191431,-8,-2,10,4,0,-1,-3,-3
1512453081204440,6,2,-6,2,2,0,0,-2
1512453081204440,0,4,15,-5,3,0,-2,-2
1512453081213448,3,-5,-19,3,3,-1,3,1
1512453081213448,1,5,8,0,-1,1,1,2
1512453081228494,-13,-6,-14,-4,-3,-4,-1,-4
1512453081228494,-4,-1,-8,-4,-3,-3,0,-1
1512453081228494,0,-2,22,4,-1,1,-1,-1
1512453081228494,-2,0,2,1,3,0,0,0
1512453081250472,-4,-2,-3,1,1,0,-1,-2
1512453081250472,-1,-4,-7,-9,0,0,-2,1
1512453081251473,-5,-3,7,10,-1,-2,-2,-3
1512453081251473,6,1,-8,-3,-1,0,2,-3
1512453081265551,4,0,2,1,0,1,-2,3
1512453081265551,-8,-6,-7,-3,-2,-1,-1,0
1512453081273548,-1,-1,-7,-5,-3,-2,0,-2
1512453081273548,-2,2,8,-11,-3,-3,-2,4
1512453081288559,-4,-3,-6,13,2,1,0,-4
1512453081288559,4,4,3,-10,-5,0,2,0
1512453081288559,-8,0,-20,-1,2,-1,-1,-3
1512453081288559,-2,-8,21,1,1,-3,1,-4
1512453081310587,-1,3,-5,-6,-2,0,-2,-2
1512453081310587,1,-4,14,3,-4,-1,0,-3
1512453081311575,-2,3,2,1,-4,0,-2,-1
1512453081311575,-5,-3,3,6,-6,1,-4,-4
1512453081333581,0,0,-20,-8,-2,-3,-2,3
1512453081333581,3,-3,14,3,-5,-2,-7,-6
1512453081334582,1,-2,4,-6,-1,-2,2,0
1512453081334582,-6,-2,7,3,-5,-2,-5,-1
1512453081348605,11,-1,-26,-14,-3,-2,-2,2
1512453081348605,-5,2,-12,8,0,1,-3,0
1512453081348605,7,2,22,2,1,-2,-1,-1
1512453081348605,-2,0,1,-10,-1,-1,7,0
1512453081370617,3,4,15,15,3,3,1,-1
1512453081370617,-11,-5,-11,-7,2,-1,-1,0
1512453081371618,5,0,-4,6,-2,0,0,-7
1512453081371618,12,4,-18,1,2,-1,-8,4
1512453081384617,-14,-14,-13,-14,-5,-3,8,-3
1512453081384617,16,3,-2,4,2,1,-3,-3
1512453081392623,-2,-5,0,-5,-2,0,-8,-1
1512453081392623,-5,3,-5,3,1,0,4,1
1512453081407636,-11,-2,13,-1,1,1,-2,-4
1512453081407636,-2,1,0,4,-1,0,0,4
1512453081408634,-6,-8,-13,-14,-6,-4,-2,-5
1512453081408634,4,0,1,3,-3,1,-1,-1
1512453081430664,8,6,16,3,3,3,1,4
1512453081430664,-9,-6,-11,-4,-4,-3,1,-5
1512453081431650,4,2,22,-2,1,1,4,2
1512453081431650,-5,-7,-18,-9,-8,-6,-3,0
1512453081453666,-22,-3,4,1,0,-1,-2,-5
1512453081453666,2,1,-16,-2,-3,-1,-3,9
1512453081454666,-6,0,5,6,0,-1,-6,-1
1512453081454666,1,5,-3,5,4,2,3,-3
1512453081467687,-1,-2,24,2,-3,-4,-7,-7
1512453081467687,2,-11,33,-16,2,-1,1,2
1512453081468676,-15,-3,4,5,-6,-6,-3,-2
1512453081468676,-2,1,-5,-7,0,3,2,5
1512453081490702,4,6,10,12,-1,-2,0,-4
1512453081490702,-1,4,-14,3,4,1,-3,-1
1512453081491703,10,-3,2,-3,0,-1,1,-2
1512453081491703,-12,-4,-7,-1,-2,-3,-2,-5
1512453081513719,5,1,15,-2,1,0,4,2
1512453081513719,0,-2,-22,-1,-3,-1,-2,0
1512453081514710,-12,-5,-55,-16,-3,0,4,4
1512453081514710,14,0,14,11,-4,-2,-5,-9
1512453081527757,8,8,23,5,8,-17,-15,-2
1512453081527757,-1,-12,-33,-17,-3,38,22,5
1512453081528720,-4,-3,5,-2,-3,-17,-9,2
1512453081528720,2,2,16,-4,-3,8,-1,6
1512453081550747,-9,2,-10,-3,0,2,-2,0
1512453081550747,-9,3,26,17,2,-15,-9,-6
1512453081551748,11,-13,-14,0,-1,1,6,-6
1512453081551748,0,-13,5,-2,-4,-4,-11,8
1512453081573760,-7,8,-7,-7,0,2,14,-3
1512453081573760,14,5,21,8,2,-4,0,2
1512453081574766,-11,14,-1,0,0,2,-2,-1
1512453081574766,-27,-10,24,9,0,-10,-2,-4
1512453081587770,3,4,-85,-11,-1,8,4,-2
1512453081587770,9,-1,46,0,-1,-12,-7,-2
1512453081588771,5,9,9,2,2,6,1,2
1512453081588771,4,6,21,7,5,6,3,-2
1512453081610816,-8,-8,-9,-8,-5,-4,-1,1
1512453081610816,-7,-1,-23,3,1,-5,-14,-5
1512453081611792,-5,-8,-5,-7,-4,13,8,8
1512453081611792,9,10,-5,-5,4,0,9,-2
1512453081633794,-2,-12,24,0,-2,-3,-10,3
1512453081633794,-4,-3,0,-12,-3,0,7,-2
1512453081634808,-10,1,15,10,3,6,7,-3
1512453081634808,-12,-15,-52,-23,-9,-8,-7,2
1512453081647805,2,0,27,3,2,1,-11,-3
1512453081647805,-11,1,16,3,-10,-7,-5,-8
1512453081648805,3,-1,-16,4,0,-6,-8,6
1512453081648805,-6,2,18,-10,2,6,2,-1
1512453081670832,2,-5,0,-4,-6,-8,-1,-7
1512453081670832,-12,-7,-25,-11,-3,-5,-2,-2
1512453081670832,6,-4,20,4,-2,-2,2,1
1512453081670832,16,-1,-5,3,2,-6,-8,-6
1512453081693848,1,-3,-13,-3,-3,6,0,1
1512453081693848,12,7,10,3,4,0,0,-8
1512453081694837,-10,-5,1,1,-5,3,-11,2
1512453081694837,18,15,-6,2,0,-3,4,9
1512453081707856,-7,-10,-3,-4,-1,1,-5,-4
1512453081707856,4,0,-4,2,-2,-3,-12,-1
1512453081708855,-2,-4,-2,8,-1,-9,-2,1
1512453081708855,-16,-3,9,-24,-4,2,0,-9
1512453081730873,10,3,7,4,4,5,9,13
1512453081730873,1,0,-23,0,0,-2,1,2
1512453081730873,6,-2,7,1,6,2,1,0
1512453081730873,-7,-2,12,6,-4,-7,-4,-4
1512453081753888,2,15,-5,15,7,-1,0,0
1512453081753888,-31,-14,14,-3,-5,-3,6,2
1512453081754888,1,-5,-40,-26,-11,-2,-10,-5
1512453081754888,0,9,-8,2,-2,4,8,7
1512453081767889,2,-8,25,20,12,-8,-23,-10
1512453081767889,9,14,-11,-6,3,5,-1,11
1512453081768889,12,3,3,-12,-3,12,49,-16
1512453081768889,-2,-6,-42,0,-1,-13,-31,4
1512453081790916,7,-2,2,-11,-4,10,-3,-6
1512453081790916,5,3,1,4,6,4,28,5
1512453081790916,9,3,1,-13,-2,-7,1,9
1512453081790916,-9,-9,-13,9,2,1,4,-12
1512453081820935,3,4,-16,-10,1,4,12,-2
1512453081820935,-2,3,-15,8,-2,-3,-7,-11
1512453081821936,-3,-5,-9,2,-10,-11,-18,2
1512453081821936,0,-6,17,2,2,-1,0,6
1512453081837939,-3,-1,3,6,-3,-4,-13,-5
1512453081837939,-5,-13,-43,-27,-9,-1,17,-3
1512453081838938,-3,-11,17,4,7,-1,-16,-8
1512453081838938,1,1,27,15,-5,-3,2,7
1512453081850946,1,2,-26,-13,-5,0,15,0
1512453081850946,24,9,24,8,2,6,-23,-1
1512453081850946,-34,-14,-5,7,2,-3,-12,-12
1512453081850946,14,11,-12,-9,-2,3,11,0
1512453081873975,-12,-12,11,-8,-7,-11,-4,1
1512453081873975,-19,-11,-9,5,-3,-2,3,-11
1512453081874973,10,16,-12,-4,0,-1,-13,15
1512453081874973,4,0,1,1,3,0,-10,-8
1512453081887983,10,13,-7,-7,6,0,-8,-13
1512453081887983,-12,-17,40,32,-13,-21,-17,12
1512453081888973,-9,-4,-22,-25,-1,-3,4,-4
1512453081888973,-5,-18,-37,-17,-10,-3,-14,-4
1512453081911004,1,-5,-11,-16,4,5,9,13
1512453081911004,8,5,47,-5,5,1,35,-7
1512453081911004,-7,-11,5,-5,0,-3,-5,3
1512453081911004,-4,3,-5,17,7,4,-4,-4
1512453081934015,0,-12,-18,6,-10,-3,-4,1
1512453081934015,-7,7,12,-8,8,11,9,7
1512453081934015,11,-3,6,5,3,-4,10,-8
1512453081934015,-10,0,2,0,2,5,13,-7
1512453081948027,-22,-3,9,0,0,1,1,3
1512453081948027,9,10,-2,3,-1,-1,-11,5
1512453081949018,-6,6,23,13,-2,-6,-5,-7
1512453081949018,-15,-10,-1,-10,0,0,12,-5
1512453081979052,27,14,20,4,0,-2,7,4
1512453081979052,0,-2,-40,-13,-3,-3,-15,-10
1512453081980039,4,-2,-1,15,-6,2,-5,3
1512453081980039,1,6,9,4,-1,-10,-13,-3
1512453081994060,-5,-11,-18,-23,-5,0,-15,-2
1512453081994060,-6,0,10,3,-6,-7,0,6
1512453081994060,-13,2,-3,-1,-5,-4,-2,-9
1512453081994060,21,5,41,13,5,2,7,11
1512453082008059,-26,-6,-1,6,-1,-3,0,-7
1512453082008059,19,2,-44,-3,13,12,1,-2
1512453082009060,-2,7,8,-10,-8,-5,-1,-9
1512453082009060,30,0,1,5,3,8,10,6
1512453082030086,-29,-6,10,0,-12,-9,-9,-3
1512453082030086,-7,-9,-30,-11,2,-4,12,-9
1512453082031075,7,26,20,25,5,8,-10,21
1512453082031075,-5,-14,-28,-12,3,-2,-3,-11
1512453082054091,19,9,13,9,9,10,35,0
1512453082054091,9,6,14,3,-8,-4,-16,0
1512453082055093,3,-1,-7,-2,6,0,2,7
1512453082055093,-2,3,-11,-4,-7,-2,6,13
1512453082067100,-29,-17,-30,-8,-5,-7,-6,-14
1512453082067100,9,-1,34,29,7,4,-2,4
1512453082076118,-45,-3,-24,-33,-21,-15,-13,-4
1512453082076118,-21,-9,-27,-11,-3,1,-1,-6
1512453082091120,0,1,29,-2,-6,-5,-11,0
1512453082091120,-4,-2,-12,6,-4,0,-10,-10
1512453082091120,-6,-23,4,10,3,-1,-3,5
1512453082091120,1,9,26,6,-7,-1,-7,-14
1512453082114134,28,15,19,-2,6,-1,-3,10
1512453082114134,-9,-14,0,-7,-2,0,-7,-5
1512453082114134,12,2,-11,-3,0,-2,0,-11
1512453082114134,-5,4,-3,0,-1,2,2,7
1512453082127157,32,4,4,4,2,-3,5,-13
1512453082127157,10,-8,-10,-9,5,6,12,-3
1512453082135160,7,1,4,-3,-14,-9,11,4
1512453082135160,11,3,-16,-11,-1,-7,-9,-7
1512453082150170,12,-2,-22,3,1,4,7,9
1512453082150170,-25,-5,1,-1,-11,-3,-19,-7
1512453082151160,-6,-10,-22,-21,0,-1,0,7
1512453082151160,12,12,36,47,4,1,2,-4
1512453082174185,-5,1,1,-25,-1,-5,-4,1
1512453082174185,-15,-11,8,7,6,-1,-4,4
1512453082174185,-4,7,10,41,12,8,8,-8
1512453082174185,-29,-11,-4,-24,-6,1,-6,4
1512453082187194,0,11,42,29,2,2,-5,-13
1512453082187194,7,22,-8,-19,1,-3,-1,-3
1512453082195200,-19,-42,-26,-19,-9,-7,-8,5
1512453082195200,3,19,-1,-4,1,-3,5,-2
1512453082210200,-7,-11,-15,11,-5,-2,-1,4
1512453082210200,27,25,19,-12,-2,-1,1,2
1512453082211211,-18,-8,16,9,2,1,1,4
1512453082211211,-25,-14,-8,-7,-5,-11,-1,-14
1512453082233233,6,11,-3,-5,4,7,7,25
1512453082233233,-29,-2,-6,2,-9,-8,-12,-16
1512453082234233,1,-8,-25,-7,-1,-1,-5,-11
1512453082234233,-2,-10,4,-2,4,0,-3,-2
1512453082247230,-7,-4,-23,-1,-5,-2,-4,-1
1512453082247230,-6,-7,-10,-8,-7,-2,-3,8
1512453082255234,15,1,30,6,7,-1,-2,-1
1512453082255234,-18,2,-45,-3,-11,-3,-4,1
1512453082279250,-15,-10,21,-14,1,2,-5,-15
1512453082279250,-23,1,0,17,1,-2,0,20
1512453082279250,17,6,9,-19,0,-4,-2,-10
1512453082279250,28,5,-16,-11,-4,-2,-7,10
1512453082293271,-16,-8,0,13,14,5,22,0
1512453082293271,4,8,12,13,-5,-2,8,-11
1512453082294259,18,13,10,12,7,4,-1,2
1512453082294259,21,7,20,7,11,6,12,10
1512453082307282,-6,14,9,-13,-6,-7,-14,1
1512453082307282,-2,-33,-41,-9,-13,0,-1,-15
1512453082323290,-2,-5,-6,11,1,3,3,-6
1512453082323290,-15,-4,-4,-1,-7,-2,3,3
1512453082331296,9,-2,-39,-13,-6,-9,-11,-9
1512453082331296,30,2,-18,-7,2,1,6,9
1512453082332288,17,7,11,0,-2,0,-3,1
1512453082332288,-4,-18,-7,-42,0,-5,-17,-7
1512453082354332,27,10,-23,53,6,9,-8,0
1512453082354332,-9,-13,22,-30,-8,-6,-10,8
1512453082354332,14,3,-29,24,1,1,2,7
1512453082354332,0,-10,-37,-11,-3,-3,3,-8
1512453082376330,-14,-28,30,6,-4,-3,2,-1
1512453082376330,-5,15,17,8,9,3,6,-2
1512453082377332,0,31,-6,-18,1,9,8,17
1512453082377332,-25,-39,10,14,3,-2,-10,-13
1512453082398333,-11,-1,-25,-7,-3,-1,-3,9
1512453082398333,-13,12,-5,-7,-8,-9,-7,-14
1512453082399335,8,-20,-15,-15,-11,-12,-20,5
1512453082399335,4,17,20,13,8,8,9,9
1512453082413354,2,-1,-42,-23,-10,-3,10,-11
1512453082413354,6,-21,9,-6,3,-2,-5,8
1512453082414353,14,30,0,11,-3,0,4,-7
1512453082414353,0,-21,12,-20,-6,-4,-1,15
1512453082443369,-17,0,0,9,-6,-9,-20,-14
1512453082443369,-14,-9,-25,-16,-5,-4,-3,10
1512453082444385,-2,-5,7,52,11,2,3,-19
1512453082444385,5,-4,-1,-27,-16,-9,-4,4
1512453082450371,14,6,20,-14,6,8,14,17
1512453082450371,-5,0,26,20,0,-2,-8,-17
1512453082451371,-3,30,-7,-24,-5,-3,14,-13
1512453082451371,-24,7,23,16,7,8,-6,-5
1512453082473387,7,-15,-25,-4,3,0,7,5
1512453082473387,-10,13,7,-6,0,9,13,-2
1512453082474388,-4,9,-7,-13,3,-6,-6,7
1512453082474388,-43,-14,0,19,-9,2,-7,16
1512453082496406,0,49,20,2,-6,-11,-7,-44
1512453082496406,-16,-13,-19,-17,-5,-4,-6,13
1512453082497405,28,5,11,-1,-17,-6,-19,-7
1512453082497405,16,12,11,13,10,8,-2,-3
1512453082511432,-32,-42,-42,-23,-3,1,-4,-11
1512453082511432,-14,38,45,7,1,2,-1,10
1512453082512433,-22,-31,28,7,4,-2,-8,3
1512453082512433,3,-6,-46,-12,-6,-2,12,-22
1512453082533431,18,23,44,8,5,5,-6,13
1512453082533431,40,0,21,2,-1,-2,-3,-2
1512453082535431,11,-8,-36,1,14,13,25,23
1512453082535431,6,-4,34,43,0,-1,-2,-31
1512453082556464,-3,-24,-4,-41,5,-2,0,-6
1512453082556464,5,6,3,16,0,0,-1,-10
1512453082558451,16,35,40,-10,-1,-4,-14,28
1512453082558451,2,-30,-62,-20,-1,-1,19,-5
1512453082569458,29,2,8,5,-4,1,26,14
1512453082569458,0,-15,20,18,2,-4,-6,-8
1512453082579466,-10,11,2,-24,-10,-2,-6,2
1512453082579466,8,-30,-27,-7,-6,-5,-2,-11
1512453082593490,-21,8,-7,-28,2,0,10,26
1512453082593490,8,1,15,-20,0,-1,-10,-5
1512453082595473,-10,-33,-8,68,9,7,-1,-28
1512453082595473,39,41,13,-28,24,12,20,47
1512453082616498,-35,-18,8,61,-5,-12,-11,-31
1512453082616498,14,35,-38,-58,-1,4,7,11
1512453082617500,2,-17,-19,47,-3,-2,-8,-13
1512453082617500,4,37,25,-17,-3,3,14,7
1512453082638516,17,-22,-25,-23,-31,-16,-35,-22
1512453082638516,25,32,-24,18,8,4,5,12
1512453082640517,-1,-16,11,-34,1,5,8,-5
1512453082640517,20,48,-2,11,2,-11,-22,-14
1512453082652523,-3,-6,4,12,-4,2,-6,11
1512453082652523,-11,-13,-11,7,-11,-6,27,-17
1512453082661519,-3,-20,7,-41,-5,-4,3,20
1512453082661519,6,-20,33,20,-2,0,-12,-27
1512453082676540,-31,10,-19,-10,4,1,-13,21
1512453082676540,-38,-7,-11,9,-6,-3,-7,-20
1512453082677541,-4,-18,-7,-35,-1,2,8,6
1512453082677541,10,18,-7,53,2,-4,6,10
1512453082690552,15,3,-21,31,5,1,12,10
1512453082690552,-25,-9,3,-35,-15,-12,-12,3
1512453082697557,-44,-22,-43,34,-4,-7,7,-17
1512453082697557,1,-23,9,-38,-12,-6,-12,9
1512453082721574,-20,-7,32,-16,4,1,3,16
1512453082721574,21,16,-3,52,13,14,7,-24
1512453082722577,-1,31,29,-16,-5,-4,-3,3
1512453082722577,-10,-4,-2,-21,-8,-10,-3,-25
1512453082735584,-16,14,38,28,5,8,15,0
1512453082735584,42,-47,-66,-26,-5,0,-1,13
1512453082743577,-13,0,54,-8,0,-2,-3,-12
1512453082743577,-14,-24,-32,5,4,3,4,-4
1512453082751593,-33,-20,-12,-19,-9,-2,7,-21
1512453082751593,7,-6,-22,8,2,1,-11,13
1512453082757599,3,22,-10,18,-3,-1,10,0
1512453082757599,-23,-48,2,33,8,7,11,3
1512453082773609,25,8,2,-76,-2,-3,-29,7
1512453082773609,-8,-8,15,61,5,-11,-6,-4
1512453082775610,7,33,-18,-28,2,5,1,-1
1512453082775610,1,-51,13,7,-7,-2,-15,4
1512453082797617,11,5,3,-6,6,-2,17,4
1512453082797617,-10,0,29,4,3,2,1,1
1512453082799617,3,26,-16,-20,-2,0,11,26
1512453082799617,-9,-1,13,-7,1,-1,-7,-18
1512453082810665,-8,-6,-4,17,10,15,43,9
1512453082810665,-22,-17,-14,-14,-1,-9,-13,21
1512453082819632,1,-8,4,16,-1,-1,-11,-19
1512453082819632,-14,24,-6,-30,-4,-8,-31,12
1512453082833655,-29,-8,-5,31,-7,2,2,-30
1512453082833655,6,12,33,8,0,3,5,7
1512453082841660,3,-17,-6,-14,-8,-2,-12,-4
1512453082841660,-12,2,-18,-21,-11,-8,-2,0
1512453082863686,14,16,37,-11,0,-3,-15,-8
1512453082863686,-3,-23,-7,3,-13,0,-13,10
1512453082865685,-7,1,-21,-13,-7,-7,-9,-12
1512453082865685,19,-8,2,7,4,9,12,7
1512453082869684,1,20,4,-3,-3,-6,-12,-1
1512453082869684,6,-11,-13,-20,-6,-1,0,-10
1512453082878673,-19,-4,15,5,-8,-12,21,-4
1512453082878673,-30,0,-7,-12,-3,-8,-3,-2
1512453082893695,20,-3,-15,-4,0,6,11,-5
1512453082893695,12,2,-10,-3,1,-1,9,5
1512453082895697,-37,-12,9,-12,-6,-7,-17,-13
1512453082895697,-1,42,20,11,2,3,-2,-8
1512453082916703,8,-36,-50,21,1,-2,2,7
1512453082916703,10,-8,11,-10,-8,-9,-10,-7
1512453082917700,12,-18,22,4,2,2,-8,8
1512453082917700,7,19,8,0,2,4,9,-10
1512453082929719,26,-9,21,-7,5,1,-6,10
1512453082929719,-3,24,5,-3,-1,1,-8,0
1512453082938716,13,-14,-21,-7,-1,-1,3,-2
1512453082938716,4,1,7,-5,0,-2,12,2
1512453082953738,-9,-4,-20,-9,-4,0,-10,-3
1512453082953738,0,-26,14,9,-1,-3,8,0
1512453082955739,-3,0,6,-10,1,0,8,2
1512453082955739,-8,20,5,0,4,-1,5,2
1512453082975754,20,5,-29,-3,-2,0,-12,-10
1512453082975754,-3,11,9,2,2,4,19,4
1512453082977761,-9,-17,17,13,6,-2,-5,7
1512453082977761,8,-5,7,-15,-3,2,2,-7
1512453082998758,5,28,-5,4,1,-10,-9,-2
1512453082998758,-8,-14,-1,-11,-4,-2,-1,-5
1512453083004762,5,-19,12,14,13,14,1,-2
1512453083004762,3,-4,-33,13,-6,-5,-13,-4
1512453083013773,3,18,7,-2,-1,2,2,6
1512453083013773,2,-26,-10,-12,-3,1,-4,-8
1512453083015793,0,1,-13,8,0,0,-4,-3
1512453083015793,2,10,-11,11,6,6,14,4
1512453083036795,-1,-33,-1,-8,-12,-10,-13,-5
1512453083036795,-13,14,13,-3,-3,0,-19,4
1512453083042799,2,-1,-25,-4,-12,-4,-7,4
1512453083042799,17,14,-3,-15,9,2,5,2
1512453083049794,-13,7,17,28,9,1,-11,-12
1512453083049794,10,53,9,-3,8,-3,1,14
1512453083074811,14,-32,-53,-20,-8,-3,-7,-5
1512453083074811,3,12,30,5,2,7,1,-7
1512453083075812,-13,-20,-11,-2,-6,-6,-8,15
1512453083075812,-17,2,5,-4,3,1,-1,-8
1512453083077824,14,5,9,9,2,3,5,6
1512453083077824,2,1,-27,-3,-9,-8,-10,-10
1512453083095836,12,-10,33,0,0,-1,-5,15
1512453083095836,-32,-27,-40,3,-7,-5,-10,-11
1512453083097829,5,16,4,-1,2,-1,-1,1
1512453083097829,5,-9,-3,6,-4,-5,0,1
1512453083109846,-10,-2,-5,-4,5,3,0,-3
1512453083109846,10,7,-12,-20,-6,-5,5,8
1512453083118843,-4,-5,16,-3,-5,-2,1,-6
1512453083118843,-11,13,15,21,6,1,-9,1
1512453083133863,-18,-11,-7,-7,-3,0,-1,-13
1512453083133863,18,23,32,18,2,1,-7,-8
1512453083134869,8,-11,-25,-12,-8,-3,14,14
1512453083134869,-11,-25,10,-14,-7,-4,-20,-9
1512453083155869,8,20,12,-2,1,3,23,-3
1512453083155869,-15,-14,-25,-11,2,1,2,-8
1512453083157871,-16,-30,22,30,4,3,-10,4
1512453083157871,-13,-2,11,9,-2,0,6,-4
1512453083169879,25,-8,-24,-16,3,2,-2,4
1512453083169879,4,10,13,0,-6,0,2,5
1512453083178896,4,-14,8,-1,1,-1,-2,-7
1512453083178896,2,-3,-12,-5,4,-4,0,3
1512453083193906,-21,0,-36,-2,-5,-2,9,-6
1512453083193906,6,-17,13,1,2,1,4,-4
1512453083194906,9,27,-16,-6,5,-4,-11,1
1512453083194906,-2,-8,-8,21,6,7,12,11
1512453083215921,-4,6,7,4,-5,-6,1,-21
1512453083215921,4,-10,0,-2,-2,-2,0,13
1512453083217913,-15,20,-16,-14,-7,2,11,-2
1512453083217913,-11,-18,3,-17,-4,-5,-21,-12
1512453083229931,11,-2,10,-4,-2,4,15,9
1512453083229931,-20,1,-16,0,-4,-5,0,10
1512453083238928,-26,18,11,18,6,-6,-18,-9
1512453083238928,-3,11,21,-2,-3,9,11,1
1512453083253948,0,1,-43,-14,-5,-2,-7,-3
1512453083253948,1,0,8,1,1,-1,-1,-2
1512453083254956,12,5,13,-3,-7,-3,-4,-4
1512453083254956,9,-5,6,-5,4,-1,4,4
1512453083275964,4,31,15,18,5,-2,-13,2
1512453083275964,1,5,4,-7,-1,-1,11,-5
1512453083277965,9,2,-36,-16,-4,1,-3,-3
1512453083277965,-10,-11,3,6,3,-4,1,6
1512453083289974,-20,-11,51,-8,-6,-2,-13,-16
1512453083289974,-4,3,-64,3,4,1,10,2
1512453083298971,9,19,36,-1,-1,3,10,-1
1512453083298971,7,8,20,-8,-2,0,-1,-4
1512453083313983,1,1,11,2,-1,-2,0,-1
1512453083313983,-1,-10,-7,7,-10,-4,-2,-6
1512453083314983,2,4,6,-10,-2,-5,-4,14
1512453083314983,6,-9,-56,-10,-5,-6,5,-2
1512453083336014,4,-11,15,-3,5,2,-2,15
1512453083336014,-7,4,11,11,1,3,-1,-19
1512453083337998,-22,-5,-1,2,-4,-3,0,-3
1512453083337998,8,4,5,12,0,0,0,3
1512453083366034,0,-12,-19,-16,-2,-1,-1,1
1512453083366034,-9,-28,6,10,0,0,-9,-3
1512453083368019,2,25,-6,-10,-3,-1,-1,1
1512453083368019,-2,18,16,8,6,5,6,-6
1512453083374033,-4,-33,-17,-11,-7,-1,-5,-2
1512453083374033,5,-36,-58,-12,-7,-6,3,2
1512453083375030,-21,0,-4,6,-6,-6,-12,-13
1512453083375030,4,15,-3,-20,1,-9,-5,1
1512453083397042,6,29,36,15,3,0,-5,6
1512453083397042,-15,21,-2,-7,-2,-1,1,-11
1512453083398053,-15,0,16,-9,-8,-7,-6,3
1512453083398053,-10,0,-22,8,-5,2,3,-24
1512453083419065,-12,2,-3,1,-6,-1,-15,-4
1512453083419065,1,-47,4,-4,-13,-5,-16,2
1512453083420055,-3,6,7,9,4,4,8,1
1512453083420055,0,-2,3,1,-2,-6,-2,4
1512453083434065,14,6,-14,2,3,3,7,-6
1512453083434065,-13,1,16,-3,-1,2,-4,-2
1512453083435066,10,-13,-8,7,1,-5,-2,-2
1512453083435066,3,-10,-4,-6,2,6,-2,14
1512453083456104,-1,-7,-8,-5,-2,-3,5,-6
1512453083456104,13,9,13,3,4,2,-11,8
1512453083458107,-18,12,11,13,-3,-2,9,-9
1512453083458107,-9,-21,-14,-22,4,0,-14,-3
1512453083479119,15,6,4,11,3,-1,6,1
1512453083479119,12,36,14,-19,-2,-2,0,6
1512453083480099,2,-8,-11,14,4,3,2,-15
1512453083480099,4,13,0,2,-8,-5,-1,4
1512453083493118,-12,-8,3,-1,0,-2,-6,-7
1512453083493118,-12,9,-5,-8,0,0,3,-2
1512453083500123,4,-12,24,-1,-1,-1,0,8
1512453083500123,6,3,-21,-17,-3,-1,7,4
1512453083516137,3,16,-3,7,-5,-3,-3,6
1512453083516137,-10,-19,0,13,-3,-3,1,-9
1512453083518135,7,1,-13,-23,-1,-6,-16,-2
1512453083518135,-11,-16,5,21,3,5,5,0
1512453083539140,20,17,6,-14,-4,-3,6,-1
1512453083539140,-6,-25,15,6,-1,-3,-8,1
1512453083540142,8,3,8,-1,4,6,5,0
1512453083540142,1,0,-5,5,-2,-1,-4,-1
1512453083553160,2,-3,12,-2,0,2,1,-7
1512453083553160,23,22,-25,-4,-1,0,8,7
1512453083561156,-14,-26,16,-2,2,1,-2,-7
1512453083561156,-11,-17,10,-2,-7,-11,-11,-2
1512453083576178,-6,-7,2,0,2,6,6,2
1512453083576178,-4,13,16,6,-1,-7,-7,0
1512453083578183,2,-7,-24,-7,-5,-4,3,8
1512453083578183,1,16,8,-3,1,3,0,-6
1512453083599200,-9,-18,-15,-3,-5,-6,-3,7
1512453083599200,-1,18,19,4,5,3,-6,-3
1512453083600184,19,-5,-16,1,-4,-1,-8,2
1512453083600184,-5,-23,-5,-4,-7,-1,5,-9
1512453083614193,-5,10,-1,-10,-6,-2,0,-2
1512453083614193,0,14,11,13,5,5,1,2
1512453083628215,1,4,35,-31,-3,-4,-2,-6
1512453083628215,9,11,-9,23,13,9,7,4
1512453083636218,-8,-6,10,15,6,0,-1,-4
1512453083636218,12,-26,-53,-26,-16,-7,-4,5
1512453083638220,-7,8,-3,11,2,3,4,-1
1512453083638220,11,3,3,-17,-6,-4,-3,-3
1512453083658236,19,0,20,4,2,-2,2,9
1512453083658236,1,-4,-13,12,4,1,0,2
1512453083673244,9,-14,-52,-3,-4,2,8,7
1512453083673244,-2,6,12,-2,-6,-7,-14,-3
1512453083674236,14,-4,0,6,2,3,11,3
1512453083674236,5,36,11,-1,0,0,5,-12
1512453083680288,-11,-66,-11,-1,-1,-2,-9,8
1512453083680288,1,-2,-11,-7,-1,1,4,0
1512453083696299,1,28,-6,-12,-2,3,-9,-2
1512453083696299,-6,-13,13,18,-2,-8,-1,-4
1512453083699302,15,11,2,-23,4,4,-2,-2
1512453083699302,-18,-6,-7,29,5,2,-8,-3
1512453083719315,3,-16,-7,4,-2,-9,-5,-5
1512453083719315,-19,-15,2,-11,-7,3,0,5
1512453083721317,6,15,7,1,-3,-9,-9,-6
1512453083721317,6,9,6,-2,4,3,7,2
1512453083733331,-24,-23,-18,-6,-9,-5,-7,-8
1512453083733331,2,2,-3,-9,3,2,-6,6
1512453083747339,-2,13,-1,4,-1,-1,2,-4
1512453083747339,-38,-8,3,-1,-1,-1,2,-4
1512453083756342,8,-21,-18,3,-3,-1,-4,-1
1512453083756342,7,-5,0,-7,-2,-2,-1,-2
1512453083757343,4,5,-5,2,-1,2,6,-6
1512453083757343,-25,-18,-6,-14,-6,0,4,-3
1512453083786398,0,-2,2,9,-1,1,-6,-2
1512453083786398,4,-13,4,-6,2,4,1,-8
1512453083787375,0,22,0,3,1,-1,-1,8
1512453083787375,-3,-2,-1,-8,-2,-2,7,-8
1512453083793380,7,-4,-3,9,1,1,-7,-4
1512453083793380,-4,2,6,1,1,0,6,-2
1512453083799384,8,0,6,5,3,6,4,5
1512453083799384,2,4,-29,3,-2,-3,-4,3
1512453083816396,-6,-16,-10,-39,-6,-7,-3,0
1512453083816396,-4,-3,-11,18,-1,2,-7,-2
1512453083817384,-2,-3,20,-5,-5,-2,-2,-6
1512453083817384,27,-1,-11,0,1,-6,0,2
1512453083838411,-5,1,-2,5,2,2,5,2
1512453083838411,-3,20,-13,-5,-1,-5,-6,-2
1512453083840416,-4,-36,19,7,0,-5,2,0
1512453083840416,10,4,-26,-11,-3,-1,-5,0
1512453083852419,-20,2,-1,12,-3,-4,1,-2
1512453083852419,3,16,1,-2,0,0,0,-1
1512453083868420,-16,-17,-17,3,-1,2,-4,-3
1512453083868420,9,25,24,-7,6,0,2,2
1512453083883437,-18,6,1,-7,-4,-2,-4,-9
1512453083883437,-3,-22,15,20,4,4,-5,1
1512453083885433,10,-5,-5,8,3,4,9,8
1512453083885433,-7,-19,0,-10,-8,-6,-13,-6
1512453083898446,1,9,3,-4,-2,-3,2,-1
1512453083898446,-9,5,26,-9,1,-1,5,-10
1512453083904465,9,20,-36,13,2,2,-8,-3
1512453083904465,26,-8,20,-2,1,-6,5,3
1512453083912470,-2,4,-1,4,0,-4,-21,2
1512453083912470,-6,-25,-28,-19,-10,-9,-1,7
1512453083921458,1,20,19,4,5,6,9,-2
1512453083921458,-4,12,34,-13,-2,-1,-3,-3
1512453083935472,10,-20,-52,23,5,1,3,7
1512453083935472,-2,4,9,-5,1,2,6,2
1512453083943476,-12,12,-17,-17,-4,-4,4,-6
1512453083943476,1,-1,-2,20,7,8,-1,1
1512453083958488,-4,-12,-41,-17,-6,-4,6,-3
1512453083958488,10,-1,-3,2,-4,-1,5,4
1512453083960490,-2,5,24,-1,2,-1,4,-5
1512453083960490,6,5,-7,-6,-2,-2,3,-4
1512453083972495,-10,6,-2,-8,-3,1,7,5
1512453083972495,30,23,5,-1,2,0,-9,10
1512453083981503,-20,-7,-19,1,2,-5,-8,-8
1512453083981503,-6,3,2,10,1,3,8,-3
1512453083996512,6,10,22,0,1,-4,9,14
1512453083996512,-6,13,19,2,8,-1,-20,-8
1512453083997518,3,0,15,-12,-6,0,-14,-5
1512453083997518,-2,-18,-21,8,4,3,0,8
1512453084018533,6,8,17,-4,-3,2,5,-8
1512453084018533,-2,-4,-32,-9,0,-5,4,2
1512453084020529,-15,-23,7,7,-5,-3,-7,-6
1512453084020529,-18,-3,2,-9,-11,-3,-6,4
1512453084032537,-1,-26,13,-16,-4,2,-3,-6
1512453084032537,1,7,28,18,1,-4,-4,-10
1512453084048552,1,-3,-32,-6,-5,-2,8,5
1512453084048552,1,9,22,-7,1,2,0,-6
1512453084056554,-2,-5,27,19,2,0,-4,5
1512453084056554,-5,-12,-30,-15,-7,-4,-5,-3
1512453084057555,1,5,25,5,1,3,6,-2
1512453084057555,4,21,-15,-10,-2,-5,-9,-3
1512453084078570,3,3,13,7,1,1,1,-3
1512453084078570,-9,-25,-21,-3,-6,-3,-4,-3
1512453084080572,6,20,-2,-2,4,-2,-4,-2
1512453084080572,-6,-14,1,4,-7,-4,-5,-1
1512453084092580,2,13,6,-4,-7,-4,-5,-6
1512453084092580,-15,-14,10,-5,-4,7,6,1
1512453084101586,11,-4,-32,-3,-4,-9,-9,-5
1512453084101586,-7,8,-1,-2,4,2,6,17
1512453084116596,4,-4,19,-2,3,1,1,1
1512453084116596,2,15,12,4,4,0,-4,-6
1512453084117600,2,11,-38,-6,-3,-4,-5,12
1512453084117600,-2,-16,13,-7,-5,-5,-3,-16
1512453084138611,5,3,1,3,3,4,4,7
1512453084138611,-5,9,-2,-1,-1,-2,3,3
1512453084140614,-2,-17,31,3,1,0,-4,-4
1512453084140614,-7,-22,-25,-13,-7,-3,1,-1
1512453084152621,-11,18,22,7,-4,-1,-4,-6
1512453084152621,-13,-61,-21,-8,-5,-6,-7,2
1512453084161629,-3,3,22,1,-3,-3,-4,-11
1512453084161629,7,23,31,7,4,4,4,6
1512453084176642,8,-29,-38,-3,-4,-3,-5,-4
1512453084176642,0,23,-4,2,-3,4,-1,-9
1512453084177642,3,0,5,-3,-2,-1,4,11
1512453084177642,-1,-8,-3,-13,-6,-5,-17,-4
1512453084198674,-15,5,-8,-16,-3,-4,5,-5
1512453084198674,6,-3,-13,34,-4,-5,-1,-3
1512453084200658,-10,-4,3,-5,5,2,3,0
1512453084200658,-3,8,12,17,-1,0,-2,-3
1512453084212665,-21,-14,-47,-17,-4,-2,-2,-5
1512453084212665,-6,2,34,-8,-4,0,0,2
1512453084221671,2,4,14,1,-2,-4,3,-7
1512453084221671,2,-23,-6,-3,-5,-1,1,-1
1512453084236682,-2,10,11,17,5,1,-5,1
1512453084236682,8,32,-6,-8,0,1,2,-1
1512453084237683,-3,-22,4,2,5,3,4,-9
1512453084237683,7,16,4,-3,2,1,8,8
1512453084258723,18,-19,-20,-6,-2,-3,-6,8
1512453084258723,-8,4,24,-6,5,1,4,-7
1512453084260722,2,3,7,2,-2,1,-2,3
1512453084260722,-8,13,-4,4,-2,-6,-2,5
1512453084281735,12,15,17,1,3,4,15,-1
1512453084281735,1,8,-10,-6,4,2,1,6
1512453084282714,3,5,0,-7,4,-1,-2,-6
1512453084282714,0,2,2,-12,1,-2,0,4
1512453084295723,-12,-1,18,22,1,2,1,-8
1512453084295723,5,-9,-29,-16,-7,-5,1,3
1512453084303729,-8,-2,-30,-2,-1,0,2,10
1512453084303729,-5,-4,22,17,-1,0,-6,-12
1512453084318740,-11,-18,-30,-16,-2,-1,-3,3
1512453084318740,3,-16,28,9,2,0,0,2
1512453084326772,13,17,-11,-16,-3,-3,4,7
1512453084326772,-27,-35,-34,18,-6,-7,-2,-15
1512453084340755,7,8,2,-5,1,-3,2,4
1512453084340755,-20,-3,4,-2,-5,2,3,-5
1512453084342760,10,-14,-9,10,4,4,-9,4
1512453084342760,10,-3,-19,-12,-6,-5,-5,-1
1512453084355766,1,11,9,-2,0,-2,-8,-9
1512453084355766,6,-32,-20,-3,-7,-6,-9,11
1512453084362784,-5,11,27,5,-6,-6,-6,-11
1512453084362784,10,7,9,-3,6,8,6,4
1512453084378802,-22,-4,-24,7,-3,-5,-4,-4
1512453084378802,24,-5,-13,-8,1,2,2,6
1512453084380784,-12,-37,-29,3,-1,-1,-4,-3
1512453084380784,-1,8,18,-4,-7,-3,-5,-10
1512453084400798,1,19,8,-31,-1,4,2,4
1512453084400798,1,0,-13,44,3,-3,-2,-5
1512453084402799,-10,-38,-26,-11,-1,5,5,3
1512453084402799,9,20,-14,-16,1,-1,5,-3
1512453084415808,-4,-12,-20,13,-4,-3,-9,4
1512453084415808,7,-3,-4,0,-1,3,-2,2
1512453084417809,12,24,9,-4,1,-2,-1,-3
1512453084417809,-30,0,-1,-2,-7,-6,-2,5
1512453084438825,5,-8,0,11,0,-1,-6,-5
1512453084438825,-10,6,-1,-19,1,0,-5,4
1512453084439826,-2,0,-14,2,-5,-6,-1,-12
1512453084439826,5,-4,0,0,4,4,0,-8
1512453084460840,16,10,29,7,-2,-3,-4,9
1512453084460840,-5,4,-31,-10,6,5,4,-6
1512453084462841,-14,-2,10,5,1,-2,-8,-1
1512453084462841,7,-9,-13,-8,2,-2,-5,-1
1512453084475851,10,8,4,5,3,2,1,6
1512453084475851,-17,-34,22,3,-4,-5,-10,-5
1512453084489900,-8,27,7,-4,3,0,-2,-7
1512453084489900,-4,-15,-20,-13,-8,-5,-2,-2
1512453084498899,-6,-15,-17,-1,0,0,0,3
1512453084498899,13,28,25,-1,-2,-2,-4,4
1512453084499907,2,19,22,-3,4,3,6,0
1512453084499907,7,-14,7,4,0,2,-2,-2
1512453084520922,-1,26,19,-11,1,0,4,-3
1512453084520922,-12,-11,-61,-20,-16,-10,-5,-4
1512453084522923,-6,7,-9,4,4,5,0,8
1512453084522923,13,-4,12,2,5,1,8,-8
1512453084535938,1,9,-5,0,-9,-8,-5,-2
1512453084535938,0,6,18,6,4,5,5,-7
1512453084541936,3,-14,-8,7,-3,-6,-1,0
1512453084541936,2,10,-20,-7,3,3,4,8
1512453084558940,-17,-13,16,5,5,1,4,-10
1512453084558940,14,0,6,2,-3,-4,1,2
1512453084559940,-11,6,-11,-3,-4,-1,0,-5
1512453084559940,-4,-11,24,-7,-6,-4,-7,0
1512453084580997,2,-24,-35,7,0,3,3,2
1512453084580997,3,33,-8,-10,-1,-6,-5,-5
1512453084582956,9,-12,23,22,1,1,4,1
1512453084582956,-3,-12,-49,-19,-9,-4,-5,11
1512453084595980,7,-5,1,-14,-1,1,-3,2
1512453084595980,4,-22,17,14,-8,-7,-3,-7
1512453084601980,10,9,6,-11,-4,0,0,5
1512453084601980,-17,-8,-2,23,1,0,-2,-12
1512453084625997,4,39,35,-4,0,-1,-3,8
1512453084625997,-1,-33,-8,-1,5,8,6,7
1512453084628000,0,-3,0,-13,1,-7,-6,-15
1512453084628000,0,-22,43,19,-1,6,11,2
1512453084641008,6,1,-17,-10,-5,-8,0,13
1512453084641008,-24,13,17,3,2,1,-3,-5
1512453084643009,-8,-4,-4,8,1,2,3,-2
1512453084643009,3,14,0,-6,7,1,5,5
1512453084664025,8,6,-30,7,-3,-5,-14,-8
1512453084664025,-16,-39,8,5,1,11,12,5
1512453084665016,-3,2,11,-23,-4,-9,-1,7
1512453084665016,3,21,-32,4,0,-1,-4,0
1512453084678033,-12,-51,-14,-10,-12,-6,-5,-3
1512453084678033,25,29,-7,-6,-1,-3,1,6
1512453084685028,3,10,42,13,5,6,6,-2
1512453084685028,2,13,28,-9,-1,-1,2,3
1512453084701050,-7,-21,-28,-4,-2,-3,-3,-7
1512453084701050,0,-8,27,8,-5,-10,-1,4
1512453084703041,-1,-6,-47,-9,0,-1,3,5
1512453084703041,3,8,6,-6,-3,-4,-7,-11
1512453084716050,5,7,26,11,-3,6,12,11
1512453084716050,-18,20,19,-4,1,-4,-1,0
1512453084722064,9,-41,-57,-10,-7,-4,-7,-1
1512453084722064,-2,13,5,11,2,0,1,-5
1512453084739066,-8,18,20,-14,0,1,-1,-7
1512453084739066,8,-7,-17,9,11,2,2,1
1512453084741077,-4,-8,53,9,-4,3,0,-12
1512453084741077,5,-11,-33,-9,2,-2,-5,0
1512453084761094,17,10,23,-4,1,-4,-5,-2
1512453084761094,-7,10,18,9,4,1,-1,-1
1512453084763089,6,15,-17,-6,5,0,-1,5
1512453084763089,6,-4,10,9,0,3,0,-23
1512453084776102,-3,6,6,-4,-3,-4,-5,3
1512453084776102,8,14,3,-8,-3,-1,-3,0
1512453084782107,-10,9,-15,7,4,-2,-2,1
1512453084782107,-3,10,-20,-9,0,-1,-5,0
1512453084806129,-5,2,11,7,-3,-1,-6,0
1512453084806129,12,21,-2,-3,-4,-1,-6,7
1512453084808131,-13,-27,-3,-2,0,-2,-4,-8
1512453084808131,-3,-17,2,0,-10,-5,-5,-7
1512453084821134,-2,-5,-6,1,5,0,0,12
1512453084821134,-4,3,10,0,1,-2,-3,-10
1512453084823135,3,21,-16,-4,-2,-1,4,18
1512453084823135,0,0,4,3,3,-4,0,-8
1512453084835144,-7,-18,-21,2,-9,-4,-9,-12
1512453084835144,1,-10,-1,-25,-6,-3,0,-3
1512453084844150,1,2,15,16,-3,-3,0,3
1512453084844150,-1,22,-8,-2,7,2,3,-1
1512453084859161,1,5,46,14,-1,3,12,-4
1512453084859161,8,-10,-45,-17,1,-7,-7,-1
1512453084860152,-10,12,14,4,-2,-3,-13,-12
1512453084860152,-3,-26,-14,10,-6,0,0,9
1512453084881169,0,12,-1,-3,5,1,8,-2
1512453084881169,-13,-3,0,-1,-5,-5,-18,-11
1512453084883178,-10,-8,3,-4,-2,-1,3,6
1512453084883178,1,-1,-5,2,0,-4,-15,-1
1512453084904183,0,-3,-13,-3,-5,-3,3,-8
1512453084904183,0,-7,-21,7,-5,-7,-2,6
1512453084905184,-1,-7,8,-13,-1,12,6,-12
1512453084905184,-1,-2,2,2,-2,-3,-6,4
1512453084919195,0,-2,-27,-10,-5,-4,-2,7
1512453084919195,7,2,16,2,-2,0,5,-8
1512453084921205,-5,5,-9,-1,1,-3,-4,-10
1512453084921205,-1,-1,-13,-14,0,-1,10,21
1512453084941226,-11,-3,0,1,-3,-3,-9,-11
1512453084941226,-4,1,0,4,-3,-1,1,-4
1512453084943228,8,11,-4,-9,0,5,8,-1
1512453084943228,-1,2,16,13,3,2,-3,-3
1512453084964226,2,3,-10,-3,1,0,-4,5
1512453084964226,2,-6,-8,-4,4,-2,0,-4
1512453084965228,-1,-12,24,-4,-1,-1,2,-5
1512453084965228,1,-4,-9,-13,-7,-3,-9,1
1512453084978235,2,-5,3,9,1,4,3,4
1512453084978235,2,-1,-4,1,0,4,5,-2
1512453084980237,6,-1,5,2,1,-5,-4,1
1512453084980237,6,3,-11,0,2,0,-4,-6
1512453085008274,7,-4,23,5,-2,-9,-10,-4
1512453085008274,-13,-7,-20,-9,-6,9,10,-1
1512453085010274,3,4,-3,-5,-6,-7,0,-1
1512453085010274,-1,3,9,6,2,-4,-6,-2
1512453085015265,-4,-5,-7,2,0,0,7,-1
1512453085015265,-8,-1,12,-1,1,-2,4,2
1512453085024281,6,5,-9,3,2,-2,-17,-2
1512453085024281,-16,-3,14,-4,-1,2,13,-7
1512453085038288,4,21,7,0,0,-1,-8,-1
1512453085038288,4,-2,8,4,0,4,6,3
1512453085040280,-1,9,-8,-2,-3,-1,-2,-1
1512453085040280,-6,-13,0,3,-2,-3,2,4
1512453085061307,-3,0,11,-4,0,-1,-4,0
1512453085061307,-1,0,-40,-8,-1,-3,-2,-2
1512453085062308,0,-1,29,7,0,1,5,2
1512453085062308,-1,2,-11,-4,-2,-4,-2,-3
1512453085075314,-1,-10,5,-5,-1,5,4,-2
1512453085075314,-3,-5,-1,0,-3,-8,2,0
1512453085084328,-10,-26,-19,-3,-4,2,-11,-3
1512453085084328,-16,12,-7,-8,-5,-4,-3,-5
1512453085098331,2,-7,-1,4,2,0,-2,4
1512453085098331,-11,1,22,0,-2,1,-1,-12
1512453085100322,5,-3,-21,-9,-2,-5,-7,2
1512453085100322,4,6,12,9,1,1,2,5
1512453085121347,-22,-3,-19,-8,-1,-3,-6,-3
1512453085121347,-2,1,18,17,1,-1,-7,2
1512453085122347,-5,-17,5,-15,-6,-4,5,-3
1512453085122347,0,1,-13,1,-3,1,1,1
1512453085135356,-6,-5,18,7,-2,-3,3,1
1512453085135356,3,4,-2,-8,3,2,3,2
1512453085159373,-5,-8,-23,-7,-2,1,-1,-1
1512453085159373,5,0,11,-3,-2,-3,4,-4
1512453085160373,1,-2,-30,0,-6,-7,-6,-1
1512453085160373,1,-2,5,-6,-1,-1,0,2
1512453085161380,3,4,0,10,3,-4,-7,-5
1512453085161380,-2,-12,-28,-13,-7,2,-2,0
1512453085181393,3,1,8,-8,-1,3,11,-2
1512453085181393,8,3,-10,9,-1,-3,-9,6
1512453085182398,-1,3,-3,3,3,-1,4,-8
1512453085182398,9,3,8,-1,-2,-3,-6,18
1512453085194400,-8,-4,-10,-3,-1,-1,4,-6
1512453085194400,0,-4,-2,0,-1,-3,-13,-1
1512453085203394,-1,6,10,2,-1,1,3,1
1512453085203394,2,1,-4,-1,0,-7,-1,-4
1512453085218406,0,-2,-5,-5,0,10,2,0
1512453085218406,-2,-2,5,-1,-4,-2,-3,-1
1512453085221420,7,0,1,1,3,0,6,1
1512453085221420,-5,-3,15,7,-1,-2,-6,-6
1512453085241433,1,-2,-24,-5,-6,-2,-4,-4
1512453085241433,-3,5,-9,-3,2,1,3,-6
1512453085242442,-2,3,6,-3,1,1,0,3
1512453085242442,3,-5,-4,-9,2,2,8,-1
1512453085263437,-9,4,5,8,2,-2,-9,-3
1512453085263437,-3,-8,-6,-3,-5,-2,-2,1
1512453085265439,-2,1,-14,1,-4,-2,1,1
1512453085265439,2,1,-13,-9,0,2,1,-3
1512453085277458,4,3,3,3,0,-2,-5,-3
1512453085277458,-2,-1,2,3,2,2,12,5
1512453085286463,5,0,-2,-10,-3,-4,-6,-2
1512453085286463,-2,-7,-1,5,-2,-5,-3,-1
1512453085300464,4,1,7,0,0,-3,1,2
1512453085300464,-1,-1,-14,-4,0,-3,-3,0
1512453085308487,-7,-1,16,8,-1,2,-2,-2
1512453085308487,-1,-1,10,1,-2,4,3,-4
1512453085323489,1,-10,-21,-7,-4,-7,-5,-2
1512453085323489,4,6,9,1,0,-3,-1,-3
1512453085329516,3,3,-10,7,2,0,0,-3
1512453085329516,-4,-1,2,-4,0,0,-10,-5
1512453085338500,-7,2,4,7,1,-1,-1,1
1512453085338500,0,-21,2,-5,-4,2,-1,1
1512453085340491,2,12,-14,-9,2,-5,-3,-2
1512453085340491,-4,-5,10,3,-3,5,5,1
1512453085361520,4,3,5,-1,2,-2,2,0
1512453085361520,-1,-1,7,0,-1,-2,-5,-2
1512453085362519,-4,-6,-5,0,-3,0,2,-2
1512453085362519,2,3,-7,-4,3,-4,-2,-2
1512453085383523,-8,0,8,-3,-3,2,1,-3
1512453085383523,2,0,-8,8,1,-3,-7,-6
1512453085385523,-5,-5,9,7,1,1,4,0
1512453085385523,1,1,-7,-12,0,1,-1,-2
1512453085397533,3,-2,8,1,-3,-2,0,-1
1512453085397533,-3,2,-7,-4,-1,-8,-3,-4
1512453085404537,1,-5,-25,3,4,14,6,-5
1512453085404537,2,-1,5,-4,-2,-2,-3,5
1512453085421564,4,-4,10,-4,3,2,-4,-6
1512453085421564,-4,3,-8,10,-2,-6,-1,-5
1512453085422563,-3,-8,-3,-10,-4,1,0,2
1512453085422563,0,0,6,-1,-2,-3,7,-1
1512453085443574,-3,-2,-16,2,-1,-4,-1,-2
1512453085443574,0,2,5,-13,-4,1,5,-1
1512453085445576,1,-2,17,5,-1,-3,-3,0
1512453085445576,-4,-4,-31,-3,-4,2,-7,0
1512453085459585,-3,0,15,-3,-4,-1,9,-1
1512453085459585,1,-1,-1,-1,6,0,-1,-1
1512453085464591,-2,2,7,-1,-4,-3,-1,2
1512453085464591,1,2,-7,5,-1,-3,-8,-2
1512453085481605,0,-6,-6,-7,-5,0,0,-5
1512453085481605,-2,0,6,-2,0,0,-4,1
1512453085482593,-2,1,-2,-4,-3,-4,-1,0
1512453085482593,-2,-1,11,-1,2,-1,3,0
1512453085503608,-2,0,-9,8,1,-1,-5,4
1512453085503608,-9,2,5,4,1,3,2,-3
1512453085505609,-2,-2,0,-7,-2,-3,-5,1
1512453085505609,-1,-2,2,2,-6,0,0,-3
1512453085517627,0,0,-2,-9,-1,-2,-1,0
1512453085517627,2,-1,-5,16,-1,-1,2,3
1512453085524631,-3,3,8,-7,1,-3,-2,-2
1512453085524631,-2,-1,0,-6,-3,-10,-8,1
1512453085540643,-2,-1,-2,3,-2,3,1,-4
1512453085540643,2,-1,6,-4,2,0,-4,-6
1512453085542634,1,0,0,-2,1,-9,-6,-1
1512453085542634,-2,-3,2,5,-4,2,-1,-1
1512453085563662,-1,2,9,-1,2,-2,4,3
1512453085563662,0,-3,-16,-17,0,3,-2,-1
1512453085565663,-2,-1,0,4,-3,-2,1,-1
1512453085565663,-3,1,0,0,1,-1,1,-2
1512453085577671,-2,-4,-10,2,-2,0,-3,1
1512453085577671,1,-3,9,-4,1,2,2,-2
1512453085584676,3,1,-8,-4,-1,-2,3,-1
1512453085584676,-2,-1,2,0,1,-2,-1,0
1512453085601698,2,-2,-3,2,2,1,-2,0
1512453085601698,1,1,2,-2,-2,-4,-1,-2
1512453085602682,1,-1,-6,-2,-2,1,-5,-4
1512453085602682,-2,0,7,-2,-3,-1,2,-1
1512453085623704,-1,0,-2,-1,-1,-1,-4,3
1512453085623704,-3,-3,-3,-1,-3,2,-1,0
1512453085625703,0,-3,1,0,2,0,1,-3
1512453085625703,-1,-2,-3,1,0,-3,-2,2
1512453085637716,-2,-3,-8,-3,-1,-4,-7,-1
1512453085637716,0,2,-2,-1,-3,2,1,1
1512453085644719,0,0,-6,1,-2,-4,-4,2
1512453085644719,-2,2,2,1,-2,-1,-2,-2
1512453085660729,1,1,6,3,-1,-1,-2,-1
1512453085660729,-2,-6,-17,-13,0,-1,1,-3
1512453085662736,-2,1,14,2,1,-1,0,1
1512453085662736,1,-3,-12,-1,2,0,-5,-2
1512453085683734,-3,0,3,3,-2,0,4,3
1512453085683734,-2,0,0,3,-4,0,1,-1
1512453085685735,-3,-5,1,-6,0,-3,-2,-1
1512453085685735,-1,-5,-2,-2,0,-2,0,0
1512453085697745,0,1,3,2,-1,3,2,3
1512453085697745,-2,2,4,3,2,-6,-1,-2
1512453085704749,-2,0,-4,-2,-1,1,1,0
1512453085704749,1,0,1,-2,-1,-2,0,-3
1512453085720761,-1,-2,-4,1,-2,-4,-4,-2
1512453085720761,-2,-5,-1,-4,0,3,6,0
1512453085723772,1,-3,-3,1,-5,-2,-4,-4
1512453085723772,-2,-2,-2,-1,1,2,3,4
1512453085743786,-2,-2,-6,-3,-3,-2,-1,-3
1512453085743786,0,1,4,-1,-2,-2,0,-2
1512453085745793,-1,-1,2,1,2,-2,-3,-2
1512453085745793,0,0,3,2,-4,1,0,-2
1512453085757786,-2,-1,-3,-2,-1,-1,-3,-5
1512453085757786,-1,-3,-2,0,1,0,-2,-2
1512453085766814,-3,0,0,3,-3,0,-1,-1
1512453085766814,-1,0,1,-3,-1,3,5,-2
1512453085781822,0,-1,9,-1,1,-4,1,1
1512453085781822,0,1,0,-2,-1,-4,-5,-1
1512453085782804,1,0,-3,0,0,4,5,4
1512453085782804,-3,-3,1,2,3,-1,-4,-1
1512453085810833,0,0,-1,-1,-2,-2,-2,-2
1512453085810833,-2,1,2,1,-1,0,0,0
1512453085812835,0,-3,-1,-5,-1,1,1,0
1512453085812835,-2,-1,2,-3,-3,-3,-4,0
1512453085817836,-1,-2,-7,3,0,1,-3,2
1512453085817836,-1,0,0,-2,0,0,1,-3
1512453085825847,0,-1,-6,1,0,-1,-1,-1
1512453085825847,1,-1,-2,-2,-2,-1,0,1
1512453085840849,0,0,-1,3,-2,0,-4,-1
1512453085840849,0,-1,0,-1,1,-3,1,-2
1512453085848852,1,0,-2,3,-3,-2,-3,-2
1512453085848852,2,-5,6,-7,-4,-4,-2,0
1512453085863876,2,-1,2,-1,2,1,-3,1
1512453085863876,-3,2,3,3,2,4,-2,1
1512453085864866,0,-2,-3,-1,-2,4,12,-4
1512453085864866,1,1,-4,2,-3,-5,-5,1
1512453085876870,-3,-1,0,0,-3,-1,-5,0
1512453085876870,1,-5,-7,-4,0,-1,-3,-1
1512453085885906,-4,-1,0,-2,0,-2,-2,0
1512453085885906,0,-3,-6,0,-1,2,2,-2
1512453085900897,1,2,-2,-3,-1,-3,2,-1
1512453085900897,-2,-1,-4,-1,-2,-6,-5,-1
1512453085902889,0,-2,-8,-2,1,-4,-6,-4
1512453085902889,-2,-2,4,-1,-4,-3,2,0
1512453085923904,-2,-1,-3,-1,-1,0,0,-1
1512453085923904,2,2,4,0,0,0,1,0
1512453085924941,0,1,2,2,-3,-2,-3,0
1512453085924941,-1,-2,4,-1,-4,-1,-1,-2
1512453085936926,0,2,-2,4,1,-1,2,0
1512453085936926,1,0,9,-6,1,2,2,-1
1512453085945932,-2,1,-3,4,-4,-1,-4,0
1512453085945932,-4,-9,-39,-18,-8,-6,-5,1
1512453085960940,0,2,9,3,-3,-3,-1,-2
1512453085960940,-4,1,-5,-1,-1,-2,0,-4
1512453085962941,0,2,11,2,1,-2,-4,0
1512453085962941,-1,2,10,1,-1,-1,-3,-1
1512453085982955,-1,-6,-14,-3,-4,-9,-6,1
1512453085982955,-3,2,1,1,2,9,1,2
1512453085990954,-1,-3,-6,-6,-3,-5,-4,1
1512453085990954,-3,-1,2,3,2,4,3,0
1512453085996975,-1,-4,-6,-5,0,-2,0,0
1512453085996975,1,0,4,4,0,-1,-2,-2
1512453086005975,-3,-8,-17,-8,-3,-2,0,-2
1512453086005975,-1,3,7,4,0,-3,1,2
1512453086020991,1,-4,-2,-5,-3,0,0,0
1512453086020991,1,-1,1,1,0,-1,2,-4
1512453086022983,0,6,23,8,3,4,4,-3
1512453086022983,-6,-20,-54,-17,-9,-5,-5,0
1512453086051003,-2,0,2,2,0,1,1,1
1512453086051003,1,-4,-4,-2,-6,-3,-2,1
1512453086053005,-3,3,5,-2,3,-3,-3,-1
1512453086053005,1,0,-4,4,3,2,1,0
1512453086057009,-2,-3,5,-3,0,0,0,-5
1512453086057009,-4,-2,-5,-3,-3,-7,0,1
1512453086074011,0,-1,4,-2,-1,6,-3,0
1512453086074011,-3,5,16,7,1,0,-2,3
1512453086081030,-1,-7,-10,-3,-1,-3,1,1
1512453086081030,-2,0,3,-1,2,0,0,-5
1512453086083029,-4,-3,-6,-6,0,-3,1,-1
1512453086083029,1,4,6,2,-1,-3,-2,-6
1512453086104046,-1,0,-5,-3,-2,1,2,-4
1512453086104046,1,0,18,4,1,-1,-2,-4
1512453086105031,1,-4,-11,-3,-6,-3,-6,2
1512453086105031,4,2,10,0,1,3,4,-1
1512453086117050,-1,-1,2,1,1,-1,-1,0
1512453086117050,-2,2,-6,-1,1,1,0,-2
1512453086126047,0,-4,-5,-3,-3,-4,-2,-3
1512453086126047,1,0,7,4,-1,-1,-3,-3
1512453086141067,1,5,8,-1,0,2,1,1
1512453086141067,-2,3,-13,2,-1,1,-1,2
1512453086147062,2,-6,-15,-7,-3,-2,0,-4
1512453086147062,-4,-8,-10,-5,-5,-2,-7,2
1512453086164092,-2,3,21,1,-2,0,0,-1
1512453086164092,1,-2,-27,-3,0,-3,-3,1
1512453086165074,-4,3,8,4,2,3,-1,-1
1512453086165074,-2,1,-4,2,-3,2,-1,0
1512453086186090,-2,-2,-4,-2,-3,0,-4,1
1512453086186090,0,-2,9,-3,-1,-3,-2,1
1512453086188092,-1,-1,-2,-1,0,-4,0,0
1512453086188092,1,-1,5,-3,-1,-2,1,0
1512453086201112,-1,-4,-3,-1,0,6,4,-2
1512453086201112,0,-3,7,0,-1,4,1,-5
1512453086203113,-3,-7,-13,-6,-6,-6,-3,2
1512453086203113,0,5,7,0,4,0,-2,-1
1512453086224126,-1,0,-5,0,-2,-3,-1,0
1512453086224126,-1,-5,-7,-5,1,-1,-1,-2
1512453086225116,0,4,10,3,0,2,1,-4
1512453086225116,-1,1,1,2,-4,-2,-2,-1
1512453086246159,1,-1,-9,-2,-2,0,-2,0
1512453086246159,0,2,2,-2,1,-2,-3,-2
1512453086248154,1,-1,13,-1,0,-1,-2,-1
1512453086248154,-1,-4,-22,-5,-2,-4,-2,-1
1512453086269148,0,-2,-2,0,0,0,-1,2
1512453086269148,-1,2,1,0,-3,-1,1,-3
1512453086270148,1,3,7,-3,1,0,0,6
1512453086270148,-4,-1,4,3,-2,0,0,-1
1512453086291173,-3,-4,-8,-1,-3,-2,-3,-2
1512453086291173,-2,1,4,-2,0,-2,0,-2
1512453086293174,-2,-5,-16,-2,-1,-3,-2,-1
1512453086293174,-3,-1,-1,-2,-2,3,-1,2
1512453086306184,-4,1,2,-1,-2,0,-3,-2
1512453086306184,-2,-2,-3,-1,-2,-3,-1,-2
1512453086308187,1,1,-3,1,0,-2,-1,-3
1512453086308187,1,1,6,1,0,0,-1,1
1512453086320184,-1,0,-2,0,-3,-2,0,1
1512453086320184,0,-2,7,0,1,1,1,-2
1512453086327227,-2,-8,-24,-5,-3,-1,-3,-2
1512453086327227,1,0,14,0,-2,-2,-6,-1
1512453086343200,-2,-2,-2,-2,-2,-3,-1,-4
1512453086343200,1,-4,-2,-2,0,-1,-1,0
1512453086345201,-1,2,6,-1,-3,1,0,-1
1512453086345201,1,-2,0,3,-3,1,1,-2
1512453086366227,-2,0,1,-2,0,-5,-2,-3
1512453086366227,2,0,-8,-1,-2,-1,-2,-3
1512453086368228,-2,3,5,0,-1,1,1,-3
1512453086368228,-3,-2,-8,0,-3,0,-1,1
1512453086380241,3,-1,-1,0,-1,1,-2,-3
1512453086380241,-2,-3,8,-1,-2,-2,-3,-2
1512453086387248,-1,2,5,1,-1,-2,0,-3
1512453086387248,-2,-3,-2,-1,-1,-1,-1,0
1512453086403252,0,-1,-2,-3,-1,0,-3,2
1512453086403252,1,-1,-8,0,1,-2,0,1
1512453086405247,-1,0,3,0,-1,-3,-1,-1
1512453086405247,0,0,17,3,0,-3,0,-3
1512453086426269,0,-11,-34,-8,-3,-2,-2,-2
1512453086426269,-3,-1,7,-2,0,2,-2,0
1512453086428284,-1,1,-2,-1,0,-1,1,1
1512453086428284,0,2,6,2,1,-2,-1,-2
1512453086440269,0,2,3,1,0,0,0,-4
1512453086440269,-2,-3,-7,-3,0,-2,-2,-1
1512453086447294,2,-4,0,-1,-2,-1,-3,-3
1512453086447294,-2,2,-9,-2,-5,0,-4,-2
1512453086464314,0,0,3,1,-1,0,2,1
1512453086464314,-2,-4,-5,-1,-1,-1,-3,-6
1512453086465290,2,0,0,2,-1,-1,1,0
1512453086465290,1,1,-1,-2,0,-1,0,-2
1512453086486301,-3,-2,-2,-3,-2,-3,1,0
1512453086486301,-2,2,5,0,-1,-2,2,1
1512453086487318,-2,-2,-3,-2,0,-2,-2,0
1512453086487318,2,-4,-6,0,0,-3,-1,1
1512453086500327,-2,0,4,3,1,-1,-4,-2
1512453086500327,-1,-2,-6,-2,-3,-2,-2,1
1512453086507333,-3,-1,-1,-2,1,0,-2,-1
1512453086507333,-1,-4,-2,-3,-1,-1,-2,-2
1512453086523328,-3,2,6,-1,-1,0,-1,1
1512453086523328,0,0,-1,-1,-1,-1,-2,-1
1512453086525343,-1,0,0,-1,-1,0,-1,-2
1512453086525343,2,-2,-2,0,-2,-1,-1,0
1512453086546413,-1,-9,-13,-5,-1,-4,1,1
1512453086546413,-4,0,-2,1,-1,1,2,-2
1512453086548402,0,-1,5,0,-1,0,-1,0
1512453086548402,-5,1,-4,0,-1,1,-1,-3
1512453086560422,1,1,4,1,-1,-1,-3,-1
1512453086560422,1,-2,-4,-1,0,0,-1,0
1512453086567424,-1,-3,-4,-1,-3,-2,-2,0
1512453086567424,-3,0,-1,-2,-3,-4,1,2
1512453086583440,-2,1,1,1,0,-1,2,1
1512453086583440,-2,-1,-1,-2,-1,0,-3,-1
1512453086585437,-1,-1,0,-1,-4,0,-3,0
1512453086585437,-1,1,-2,-4,-1,0,-2,1
1512453086606456,0,1,5,2,0,1,-2,-3
1512453086606456,0,-3,-2,-3,-1,-3,3,-2
1512453086607443,0,-5,-5,-1,-3,-3,-1,0
1512453086607443,2,-1,-1,1,-1,0,-1,0
1512453086628472,0,3,1,0,-1,-1,-2,2
1512453086628472,-3,-2,-1,-1,2,-2,-1,-2
1512453086630468,-1,2,-3,-3,-2,-1,-3,-4
1512453086630468,-2,0,1,0,-2,-2,1,1
1512453086643478,1,-1,0,1,0,-1,-1,0
1512453086643478,0,-5,0,-1,0,0,1,-1
1512453086645479,-1,-1,-3,0,-2,-1,-2,-1
1512453086645479,-2,0,0,-2,-3,-1,-3,1
1512453086666497,0,-2,-1,-2,-1,1,1,-4
1512453086666497,1,1,-2,-2,-4,-3,-3,-4
1512453086667515,-2,-2,-3,1,2,-2,-3,0
1512453086667515,0,-1,-2,0,0,-1,0,0
1512453086679512,-4,-1,1,-1,-1,0,0,1
1512453086679512,-2,-1,-2,-3,-1,-2,-3,-3
1512453086688502,-3,0,-1,0,-3,1,1,-3
1512453086688502,1,-3,2,1,-2,0,-1,-2
1512453086703522,-3,1,0,0,-1,-2,1,0
1512453086703522,1,0,-2,-2,2,-1,-3,0
1512453086705547,0,0,0,-1,-3,-2,-2,1
1512453086705547,-1,-5,-2,0,1,-2,-1,1
1512453086726526,0,-3,0,-1,-3,0,-1,-1
1512453086726526,-2,0,0,-1,-2,-2,1,2
1512453086727528,-2,0,-2,-1,0,-2,-1,-3
1512453086727528,-1,-1,0,-1,-3,-1,-3,0
1512453086739537,1,0,-1,0,1,-3,1,-3
1512453086739537,-3,-2,0,0,-1,1,-2,-4
1512453086748544,0,2,-1,-2,-1,-4,0,2
1512453086748544,-2,0,-4,-2,0,-1,1,-4
1512453086762567,1,-2,-1,-1,0,-2,-1,-3
1512453086762567,2,-2,-1,-2,-2,0,0,0
1512453086763553,-1,-1,-3,1,1,1,-2,-1
1512453086763553,-3,-1,-3,-1,0,0,0,-1
1512453086785583,-2,-2,-1,-1,0,-1,-2,0
1512453086785583,-1,1,0,0,-3,0,-1,-1
1512453086786570,-1,-3,0,-3,-2,0,-1,-1
1512453086786570,-2,-1,-1,0,-2,0,-1,-1
1512453086808585,-3,-2,0,-1,1,-2,0,1
1512453086808585,-1,-2,-1,-2,-4,-1,-1,-1
1512453086809586,-1,-2,0,0,-5,-2,0,2
1512453086809586,1,-3,-1,-2,-2,-2,1,-3
1512453086822595,-2,-1,-1,-1,-2,-1,0,-3
1512453086822595,1,1,-2,-1,0,-1,-2,1
1512453086823595,-2,0,-2,-2,-1,0,0,-3
1512453086823595,0,-2,-1,0,-2,-3,1,-2
1512453086845620,0,0,0,-3,0,0,-2,-2
1512453086845620,-3,-1,1,-1,-1,-2,-1,0
1512453086846621,0,-2,-1,0,0,-2,-3,-3
1512453086846621,-1,-2,0,0,-1,-1,-4,1
1512453086868640,0,1,-1,-1,1,-1,-3,-4
1512453086868640,-2,0,-1,-1,-1,-1,-1,0
1512453086869643,-2,0,0,0,0,-2,-1,0
1512453086869643,-1,0,0,-1,-3,1,-2,-1
1512453086882647,2,-2,-2,0,-1,-1,-1,-3
1512453086882647,-1,-1,-2,-3,2,2,-1,-1
1512453086883638,0,-1,-1,-2,-1,-2,1,-2
1512453086883638,-4,-3,-3,-2,-1,-2,1,2
1512453086905671,0,-1,0,-1,-3,-3,0,0
1512453086905671,-1,-1,-2,1,1,-1,3,-2
1512453086906654,0,-1,0,-3,-2,-1,-3,0
1512453086906654,1,1,0,0,0,0,-2,-3
1512453086928684,-2,-2,0,0,0,2,-2,-3
1512453086928684,-1,0,1,-2,-1,-2,-1,-3
1512453086929680,-3,-3,-6,-1,0,0,-2,1
1512453086929680,-1,-2,0,-2,-2,0,-1,-3
1512453086942688,-4,0,0,-2,-1,-2,-3,-1
1512453086942688,-1,-2,2,-2,-1,1,-2,-2
1512453086943683,1,0,1,-1,-1,-1,1,-2
1512453086943683,-3,0,-1,1,-2,-1,-4,0
1512453086965710,3,0,-3,0,-2,-1,2,0
1512453086965710,0,-2,0,0,-1,-1,-1,-2
1512453086965710,1,-2,-2,-2,-1,0,-3,-1
1512453086965710,-1,-2,0,-1,2,0,0,3
1512453086987740,0,3,0,0,0,-2,-1,-2
1512453086987740,0,1,-3,-1,1,-2,-2,-4
1512453087004733,-1,-4,1,-2,-2,0,0,1
1512453087004733,-2,-2,-2,-1,1,-2,1,-3
1512453087005724,0,-3,-1,-1,0,1,0,1
1512453087005724,-2,-2,0,-1,-2,-2,0,1
1512453087006727,3,0,-2,0,-4,-1,-1,1
1512453087006727,1,1,-3,-2,-2,-4,-2,-1
1512453087025748,-4,-2,-3,-2,-1,1,-2,-3
1512453087025748,-1,0,-1,1,1,0,0,0
1512453087025748,0,-4,0,-1,-2,-5,1,-3
1512453087025748,0,1,0,-1,-4,1,-1,-1
1512453087048812,-2,1,-3,0,-1,-1,-4,-1
1512453087048812,0,0,0,-1,-2,-2,-2,-3
1512453087049801,-2,0,1,-1,2,-3,-3,-1
1512453087049801,-1,1,-1,-1,-1,-2,-3,-1
1512453087062824,-1,-3,-3,-3,1,-4,1,0
1512453087062824,-2,-1,-1,-2,-2,3,-1,-1
1512453087063820,-2,-3,2,-2,-4,0,-1,1
1512453087063820,-2,-2,-3,-1,-2,-1,0,-1
1512453087085841,0,-2,0,1,2,-3,0,1
1512453087085841,-3,-2,-3,1,-5,-2,-1,0
1512453087085841,2,0,-2,-4,0,-1,-3,0
1512453087085841,-2,0,-3,-1,-1,-1,-2,-2
1512453087108881,0,-1,-1,-2,1,0,2,-2
1512453087108881,0,0,0,0,-3,-3,2,-2
1512453087109846,-1,1,-2,-1,-3,-3,-3,-1
1512453087109846,1,0,0,0,0,-2,-2,-2
1512453087122861,2,0,-1,0,0,0,-1,0
1512453087122861,1,-1,-2,-1,1,-5,0,-1
1512453087123852,-4,-1,0,2,-4,-1,2,0
1512453087123852,0,-3,0,1,-2,0,-2,-1
1512453087145888,-1,-2,1,-2,-4,-1,-3,-2
1512453087145888,-1,-1,-2,0,1,0,-1,-2
1512453087145888,-1,0,-1,-3,-1,1,2,-3
1512453087145888,-1,-1,-2,-1,-2,-1,0,-2
1512453087168894,-1,0,-2,-2,-1,-1,-2,-3
1512453087168894,0,-3,-2,-3,-1,0,-2,-2
1512453087169896,-3,0,-4,1,-1,-2,-2,-2
1512453087169896,0,-1,0,0,0,-2,0,0
1512453087182905,0,-1,-1,-1,-2,-1,0,0
1512453087182905,-1,0,2,0,0,0,-1,-1
1512453087183917,-1,0,1,-2,0,-1,-1,1
1512453087183917,-1,-3,2,0,-2,0,-1,1
1512453087205912,1,-1,-1,-2,-1,-1,2,-4
1512453087205912,-2,-3,-4,-1,0,-3,-3,-3
1512453087205912,-1,-2,0,-1,-3,0,-2,-1
1512453087205912,-3,0,-4,-1,-1,-1,0,0
1512453087228950,-3,0,-1,-2,3,0,-3,1
1512453087228950,0,-1,-1,-4,0,-1,-1,-2
1512453087229941,-4,-1,-1,-2,1,1,-2,-2
1512453087229941,-2,-1,-2,-3,-1,1,0,0
1512453087242949,-2,-1,0,1,-3,-2,0,1
1512453087242949,-2,2,-1,0,0,-2,5,0
1512453087243950,1,0,-2,-1,-3,-3,-5,1
1512453087243950,0,-1,-1,0,-2,-2,-1,1
1512453087265967,-2,0,0,-4,2,2,2,-1
1512453087265967,-2,-2,-1,0,1,-1,-3,1
1512453087265967,-1,-4,-1,-1,-3,-2,0,-1
1512453087265967,0,-2,-1,-1,1,-1,-1,1
1512453087288980,0,-1,0,-1,-1,-1,2,-5
1512453087288980,0,-1,-2,-2,-1,-3,-3,2
1512453087288980,-2,0,-1,-1,1,-1,-2,-1
1512453087288980,0,-2,-3,-2,-3,-2,-2,2
1512453087302992,-1,-3,-2,1,-2,-3,1,-2
1512453087302992,2,-1,0,-4,-2,-1,-2,0
1512453087303992,-2,1,-2,-2,-2,-1,1,1
1512453087303992,-1,-3,0,0,-2,-1,-2,-1
1512453087324995,-2,2,-1,0,0,-1,-2,-2
1512453087324995,-2,1,0,0,-4,0,-2,-2
1512453087325995,0,-4,-2,-2,-1,-2,-2,0
1512453087325995,0,-1,-1,-1,-1,0,-1,-3
1512453087349049,0,-2,-1,-1,1,-2,1,-2
1512453087349049,-2,-2,0,0,-2,0,-3,0
1512453087349049,-2,-1,-2,-1,-1,0,0,-1
1512453087349049,0,-1,0,0,-1,-3,-1,-2
1512453087363037,-1,1,-1,-3,-1,-2,0,0
1512453087363037,-2,0,0,-1,-2,-1,1,-3
1512453087364032,5,-2,-1,-1,-1,-1,-2,1
1512453087364032,0,-1,1,0,-3,0,-2,-2
1512453087385037,-2,-3,-2,-1,0,-2,-1,1
1512453087385037,-3,-1,0,-1,-1,1,0,1
1512453087386038,0,-1,-1,1,-2,-4,-5,-2
1512453087386038,0,-2,-2,0,-1,-1,0,-1
1512453087409091,-2,-2,0,0,1,1,-1,2
1512453087409091,0,-1,1,-3,1,-1,2,2
1512453087409091,-5,-2,0,0,-3,-1,-1,-1
1512453087409091,-2,-1,-3,0,0,-2,-1,0
1512453087423074,-1,0,-3,-1,-2,-1,-1,-2
1512453087423074,0,-3,-3,-2,-1,1,2,-3
1512453087424075,-1,1,-1,1,-2,0,-1,1
1512453087424075,0,-2,0,-3,-1,-1,0,1
1512453087445090,-3,0,2,-3,-3,0,-1,1
1512453087445090,-3,-3,-4,0,0,0,-3,-2
1512453087446095,2,-1,-1,0,0,0,1,0
1512453087446095,-3,-1,-1,0,-2,-1,-2,0
1512453087468108,2,-1,-1,0,3,-1,-1,-1
1512453087468108,-1,-2,-2,-3,-1,-1,-3,-2
1512453087469098,-1,-4,-1,-1,-2,-3,1,0
1512453087469098,-2,1,-2,1,-1,-3,-2,-1
1512453087483106,0,-1,0,0,-1,0,1,-2
1512453087483106,2,2,-1,-2,-2,-2,1,-2
1512453087484107,-4,-1,-3,-2,-3,0,-2,0
1512453087484107,0,-4,0,-1,1,-1,-1,0
1512453087505134,0,-2,1,-1,-1,0,-2,-4
1512453087505134,1,-1,-3,-2,3,-1,-2,-3
1512453087506123,-1,-4,1,-2,-2,-1,-1,-1
1512453087506123,-4,0,1,-1,0,-1,1,2
1512453087528161,-3,-2,-1,1,2,0,-3,-2
1512453087528161,-3,-3,1,-1,-4,-1,0,2
1512453087529148,-1,0,-1,-2,0,-1,-2,0
1512453087529148,1,-3,-2,-1,-1,0,0,-1
1512453087543159,0,0,-2,-1,-1,-2,-1,-6
1512453087543159,0,0,0,-2,-2,-2,1,-2
1512453087550163,-1,-2,0,0,0,0,-2,1
1512453087550163,-2,-2,-2,-1,-2,-1,2,-2
1512453087565197,-3,1,-2,-2,-1,0,-2,-3
1512453087565197,1,-1,0,0,2,-2,-3,0
1512453087566175,1,-2,-2,-1,-5,-1,0,1
1512453087566175,1,0,-2,-2,-2,-1,0,-1
1512453087588182,-2,-1,-1,-1,-1,-1,-1,-1
1512453087588182,-1,0,-2,1,-3,-1,-2,-2
1512453087589182,-1,0,0,-1,2,1,0,-1
1512453087589182,1,-1,0,-2,-2,-1,-3,-1
1512453087611236,-2,-2,1,0,-3,-2,-3,-1
1512453087611236,-1,0,0,0,1,-1,-1,1
1512453087612227,-1,-3,-1,-1,-1,-3,-2,-1
1512453087612227,-2,-1,-1,-1,-2,-1,1,-4
1512453087625217,0,0,-3,-1,2,1,-2,-2
1512453087625217,-2,-2,-1,0,-2,1,-2,0
1512453087626223,-3,-1,-1,-1,-4,-3,2,1
1512453087626223,-2,-1,-1,-2,1,-1,-5,0
1512453087648234,-1,-3,-2,-1,0,0,0,2
1512453087648234,-1,-3,-2,-2,-3,-1,-3,-1
1512453087649234,-2,-1,-2,-1,-2,-1,0,-3
1512453087649234,-2,-1,-1,0,1,-2,-3,-3
1512453087663256,0,0,-1,-3,-1,-2,-1,-4
1512453087663256,1,-1,0,0,-4,-1,-1,-1
1512453087663256,-2,0,-1,1,0,0,-2,-1
1512453087663256,2,0,-3,-1,-2,-2,-1,-3
1512453087685249,-2,-3,-2,-1,0,0,0,-3
1512453087685249,-4,-1,-2,-3,0,-2,2,-2
1512453087686250,0,-1,-1,-1,-2,0,1,3
1512453087686250,-2,-1,0,1,0,1,-2,-2
1512453087708275,-1,-1,0,-3,0,-1,0,-2
1512453087708275,0,-3,2,-1,-1,-1,-2,-1
1512453087709286,-1,2,-2,-1,-2,0,-3,-1
1512453087709286,-1,-1,-2,-2,1,-2,-1,2
1512453087722285,-1,-2,-1,1,-2,1,0,3
1512453087722285,0,-2,-2,-1,-1,2,-3,-1
1512453087730305,-1,-1,1,-2,-1,-4,-2,-2
1512453087730305,0,-2,-3,0,-1,1,0,-1
1512453087745305,-4,-1,0,0,0,-2,1,-4
1512453087745305,-4,-2,-1,0,1,0,-4,0
1512453087753310,0,-2,0,-3,-2,1,-2,2
1512453087753310,-4,1,1,0,-2,0,-2,1
1512453087768309,2,-3,-1,-1,0,1,-2,0
1512453087768309,0,0,0,0,-1,-2,-3,-2
1512453087769309,-3,-2,-2,1,0,-3,-1,0
1512453087769309,1,-2,-2,0,0,-1,3,-2
1512453087782332,0,1,1,-2,0,-3,0,-2
1512453087782332,-4,1,-2,-1,-1,-1,-1,-1
1512453087790341,-2,-1,-2,-2,-1,-4,-3,-1
1512453087790341,-2,0,0,-5,-1,1,3,0
1512453087805353,1,1,-1,-1,-2,-1,-4,1
1512453087805353,-2,-2,-1,-1,-1,-1,1,0
1512453087806335,-1,0,0,0,-2,0,-3,-4
1512453087806335,-2,-1,0,0,-2,-1,-1,0
1512453087828367,-2,-1,0,-4,-2,-1,1,0
1512453087828367,-1,-2,-1,1,-1,-4,4,-2
1512453087829351,-1,-1,-3,0,-2,-1,-2,3
1512453087829351,3,-2,-2,-2,-2,-1,-3,-2
1512453087842370,-2,-1,-2,0,0,0,0,-2
1512453087842370,1,-2,1,2,-1,-1,0,0
1512453087850376,2,-1,-2,0,0,-1,-2,-3
1512453087850376,-3,1,0,1,-1,-1,-3,-1
1512453087865377,0,0,1,-2,0,-1,0,0
1512453087865377,-1,1,-3,-3,-1,0,-1,-4
1512453087866378,-1,-3,-2,0,-4,0,-2,-1
1512453087866378,1,1,-1,0,0,-2,-3,1
1512453087888406,0,-1,0,-1,-1,-2,-1,-5
1512453087888406,-2,-1,-3,-3,-2,-2,-1,0
1512453087889394,-3,-2,0,-2,-1,1,-1,1
1512453087889394,1,-3,0,-1,-3,-1,-1,1
1512453087902415,-3,-1,0,-3,2,0,-2,-2
1512453087902415,0,-3,-2,0,-1,0,-2,0
1512453087910421,-2,0,-2,2,0,-1,3,-3
1512453087910421,-3,-2,-2,-1,-3,-1,-2,0
1512453087925429,1,1,-1,1,1,1,-1,-2
1512453087925429,-3,-3,-3,-2,-2,1,0,1
1512453087926420,3,-2,-2,-2,1,-2,2,-1
1512453087926420,0,-1,-1,-1,1,-2,0,-4
1512453087948450,1,-1,-2,-1,-1,0,0,2
1512453087948450,-4,-2,0,0,-2,-2,0,-1
1512453087949449,0,-2,-1,-1,-2,-1,-4,-1
1512453087949449,-5,-2,-1,-2,-4,-2,1,-1
1512453087962461,1,-1,-2,-2,-1,1,0,-2
1512453087962461,-2,0,1,-1,-1,-2,2,-3
1512453087978457,-2,-1,0,1,0,0,-4,0
1512453087978457,-1,-2,0,1,-1,-1,-3,-1
1512453087985480,-1,-2,-2,0,3,-1,1,-1
1512453087985480,1,-2,-1,-4,-1,-2,-1,-1
1512453087986463,-2,-4,0,0,-2,-3,0,-1
1512453087986463,-1,-1,-1,-2,-2,1,-2,-2
1512453088007490,-2,-1,0,-2,-2,-1,0,-2
1512453088007490,0,-1,0,0,-3,2,-4,-2
1512453088015487,0,-1,-4,-3,-3,-2,-2,-1
1512453088015487,-1,-1,0,1,-4,-1,-1,-1
1512453088031510,-2,0,0,-2,-2,-2,1,-4
1512453088031510,2,0,-1,-3,-1,1,-1,1
1512453088031510,-3,-2,-1,0,-2,1,0,0
1512453088031510,0,-2,-1,-2,1,0,-1,-2
1512453088045516,0,-1,0,-4,-5,-1,-2,0
1512453088045516,-1,-1,0,-2,-2,-3,2,0
1512453088046517,2,1,0,1,-2,-2,-1,0
1512453088046517,-3,-1,-3,-1,1,0,0,0
1512453088068525,-1,-3,-2,-2,-1,1,-1,-1
1512453088068525,-1,-1,-2,-1,0,-1,-2,-2
1512453088069523,-1,0,-2,-1,-1,-2,-3,-1
1512453088069523,-2,-2,2,1,1,1,-1,-2
1512453088091551,0,0,1,2,1,-2,-3,-2
1512453088091551,-1,-2,-2,0,-1,-1,-2,0
1512453088091551,0,0,-1,-1,-3,0,0,0
1512453088091551,0,-1,-2,-1,-2,-1,-2,1
1512453088105546,-1,-1,0,-2,1,1,-2,0
1512453088105546,1,-1,-2,0,1,0,0,-2
1512453088106547,-1,0,0,0,0,-3,0,0
1512453088106547,1,0,-1,-3,-2,-2,-3,0
1512453088128578,-5,0,-3,0,-1,-1,-1,-2
1512453088128578,-2,2,-1,-1,-2,-1,-3,-1
1512453088129573,1,-2,-2,0,-2,1,1,0
1512453088129573,-1,0,0,-2,1,-2,-1,0
1512453088150578,1,-2,0,1,-1,-2,3,0
1512453088150578,0,-3,1,-2,-2,-1,-3,-1
1512453088151579,-5,-2,0,-1,-2,-1,0,-1
1512453088151579,-1,-2,-3,-1,1,0,-3,1
1512453088165590,-2,-2,-5,0,-3,0,0,-1
1512453088165590,1,0,0,-1,-1,0,-2,0
1512453088166591,0,0,1,0,-2,0,0,-1
1512453088166591,0,-1,-2,-1,-3,0,-3,-4
1512453088188676,-1,-2,1,-3,1,0,-1,-1
1512453088188676,-1,1,-2,-1,0,-2,0,-3
1512453088189666,-1,-1,-2,-2,-2,-3,-1,-2
1512453088189666,-2,-1,-2,2,0,-2,0,-3
1512453088210708,2,-1,0,-2,1,0,-1,0
1512453088210708,-3,-2,1,0,-1,0,-3,0
1512453088211682,0,-2,-1,1,-1,-1,-1,1
1512453088211682,-1,0,0,-1,-2,-1,0,0
1512453088225702,-1,1,-2,0,-2,0,-2,-3
1512453088225702,2,-2,-1,-1,-3,0,1,-1
1512453088225702,-4,-1,-1,-2,-1,2,-3,0
1512453088225702,-4,-1,0,-2,-3,-4,1,-1
1512453088248720,1,0,0,-2,-1,-2,-2,-1
1512453088248720,-3,-2,-3,-4,1,-3,-3,-1
1512453088249709,1,-1,-2,0,0,-2,-1,-2
1512453088249709,-1,-2,-3,0,0,-1,0,-2
1512453088270733,0,0,0,-3,0,1,-1,-2
1512453088270733,0,-2,-2,-3,-2,-1,-1,1
1512453088271747,0,-3,0,-1,-1,0,-4,-2
1512453088271747,0,1,-1,-2,1,1,-1,0
1512453088285743,-2,0,0,-1,-2,-3,-2,0
1512453088285743,-1,-2,-1,0,-1,1,-1,-3
1512453088285743,-3,-3,0,-1,1,-2,-2,-1
1512453088285743,1,1,-1,0,-3,-1,-1,-2
1512453088308751,-2,-1,-2,-1,-2,-1,-2,-2
1512453088308751,-3,1,0,-1,0,-1,1,-2
1512453088309751,-1,2,-2,-2,-3,-1,-1,3
1512453088309751,-1,-1,-2,-3,2,1,0,-2
1512453088330821,0,-2,-1,-3,-1,-2,1,-3
1512453088330821,-1,-1,-2,0,-3,-1,0,1
1512453088331767,-3,0,-2,-1,-2,-3,0,-3
1512453088331767,-1,-1,-2,-2,-1,-3,0,1
1512453088345786,-3,1,-2,-3,1,-1,1,0
1512453088345786,-2,-2,-1,0,0,0,-2,-1
1512453088345786,0,-3,-1,0,-1,1,-1,-2
1512453088345786,-3,-1,-1,-1,-2,-1,1,-2
1512453088368803,0,-3,-1,0,-1,1,-2,-1
1512453088368803,0,-1,0,-3,-2,-2,-2,1
1512453088369806,-1,-2,-1,0,-4,0,0,3
1512453088369806,0,-4,-2,0,0,-1,-2,-1
1512453088390828,0,-2,-1,0,0,-1,-1,0
1512453088390828,0,1,-2,1,-2,-2,-1,2
1512453088391809,-3,-1,-1,-1,-2,-1,-2,-3
1512453088391809,-1,-2,0,0,-1,-3,0,-2
1512453088405828,-3,0,-2,-1,-2,-1,-1,-3
1512453088405828,-2,-1,0,-1,0,-1,-3,-1
1512453088405828,-2,0,0,-1,2,-1,-1,1
1512453088405828,0,0,-2,-1,-2,0,-1,-1
1512453088428894,3,1,-1,-1,1,0,-2,0
1512453088428894,-3,-2,-5,-1,-3,0,-1,-1
1512453088429872,-1,0,-2,-2,-2,1,-1,0
1512453088429872,-2,0,-1,0,0,0,-3,-3
1512453088450863,-2,-1,1,-3,2,0,0,1
1512453088450863,0,-2,0,1,-1,-1,1,-3
1512453088451858,-3,0,0,1,0,-2,-1,1
1512453088451858,1,-4,-1,-1,0,1,1,-3
1512453088465876,-1,-1,-1,0,-4,-2,-2,0
1512453088465876,0,0,-1,-2,-3,-3,-4,0
1512453088465876,2,-2,-2,-1,0,-1,-1,-4
1512453088465876,1,1,-1,-1,-1,0,0,-2
1512453088495894,0,-5,-4,-2,-2,1,1,-1
1512453088495894,-1,1,-1,-2,-2,0,1,-1
1512453088496884,0,-3,0,1,-3,-2,-1,0
1512453088496884,0,0,0,-1,-1,0,-1,2
1512453088510893,-1,0,-1,-2,-1,0,-3,2
1512453088510893,2,-4,-1,1,1,0,-2,-2
1512453088511895,1,-2,-1,-3,-2,1,-1,-1
1512453088511895,-1,-2,0,-1,-1,-2,3,0
1512453088525904,-3,-1,-1,-1,-3,-1,-1,-3
1512453088525904,-2,0,-1,2,2,0,-3,-2
1512453088525904,-4,0,-1,0,-2,-4,-1,2
1512453088525904,-1,-2,0,-2,1,-4,-2,1
1512453088548922,-4,-1,-1,1,-1,-1,0,-2
1512453088548922,0,0,-4,-3,-3,0,0,0
1512453088549923,-1,-2,0,1,-1,0,-1,-1
1512453088549923,-1,-1,-1,0,0,0,-1,-2
1512453088570946,0,0,0,-1,-3,0,0,-2
1512453088570946,-3,0,0,0,-1,-2,-3,-1
1512453088571936,0,0,-1,-1,-5,-1,-1,-1
1512453088571936,-2,0,-2,-3,-1,0,0,-4
1512453088585958,1,-1,-2,-1,1,-3,1,-1
1512453088585958,1,0,1,0,-2,0,-1,-1
1512453088586958,-3,-1,-2,-3,-1,-2,-1,-3
1512453088586958,-1,-2,-3,0,2,-1,-2,-1
1512453088608977,2,1,1,-1,-2,0,0,-2
1512453088608977,-2,-1,-2,-3,-2,0,-4,2
1512453088608977,1,-3,-2,-1,2,-1,-1,1
1512453088608977,-2,-2,-1,-1,-1,2,1,-1
1512453088630993,-3,0,-1,-2,0,-3,-1,-4
1512453088630993,-1,-3,-1,-1,-2,-1,-1,-1
1512453088631979,-1,1,2,2,1,-1,-1,-2
1512453088631979,-1,-2,-2,-2,-1,1,2,1
1512453088644999,1,-2,0,-2,1,1,-3,1
1512453088644999,-3,-1,0,-1,-4,-1,3,-5
1512453088646002,-3,0,-3,-1,1,0,0,-1
1512453088646002,0,-1,-1,-1,-2,-1,-4,-2
1512453088669010,-4,-1,-2,0,-4,-3,-2,0
1512453088669010,0,-1,-3,-2,-2,-2,-2,1
1512453088669010,-2,-3,-2,-1,1,1,2,1
1512453088669010,0,2,-1,0,-1,2,0,1
1512453088691030,0,-2,-3,-3,-2,-2,-1,-1
1512453088691030,-1,-3,-1,0,0,1,4,1
1512453088692021,0,-2,0,-1,-4,-2,0,-2
1512453088692021,-2,0,1,-1,2,-1,-2,-2
1512453088705046,-1,-2,-1,-1,-2,-1,1,0
1512453088705046,-2,-1,-2,-2,-3,-2,-3,-1
1512453088713050,0,-1,-3,0,-1,0,-2,-3
1512453088713050,-4,-1,0,0,1,-1,-1,1
1512453088729047,-2,-3,-1,1,0,-1,-1,-1
1512453088729047,-2,-1,-3,-1,-3,-2,-2,-2
1512453088729047,1,-1,-2,1,0,2,-3,-1
1512453088729047,1,0,-1,-2,-4,-3,-2,-1
1512453088751076,1,-2,-2,-1,0,1,-1,-4
1512453088751076,-1,0,-1,0,-2,-2,0,5
1512453088752064,0,-1,0,-1,-3,-4,-3,-1
1512453088752064,0,0,-3,-2,0,0,1,-2
1512453088765085,-1,-1,2,-2,-1,0,-3,-3
1512453088765085,-2,-2,-2,-1,-1,0,-2,1
1512453088774101,-1,0,1,-3,1,-1,1,1
1512453088774101,0,-1,0,-1,-1,-1,0,0
1512453088788089,-3,-2,1,1,-3,-3,-2,2
1512453088788089,-2,-1,-1,-1,-2,-2,-1,-2
1512453088790101,-3,-3,-3,1,0,-1,0,1
1512453088790101,2,-3,-1,-2,-2,-3,-3,-4
1512453088811123,-1,2,-1,-2,0,0,-2,0
1512453088811123,-2,2,-2,0,-3,-2,0,0
1512453088813110,0,-2,1,1,-2,-2,0,0
1512453088813110,-2,-1,-3,-2,1,0,-3,-3
1512453088825125,-2,0,-2,-2,-3,0,-1,1
1512453088825125,2,1,1,-1,-3,-1,-3,0
1512453088834131,-1,-1,-2,-1,-2,0,-1,-5
1512453088834131,2,-1,1,-1,3,0,1,-2
1512453088849134,-2,-2,-1,0,1,-2,-1,-1
1512453088849134,0,-5,-1,-1,0,0,-3,-1
1512453088850134,-1,-3,1,-2,-2,-1,0,-3
1512453088850134,-6,-2,-2,-2,0,-2,0,2
1512453088871161,0,-1,-1,1,-3,-2,1,0
1512453088871161,0,-2,-2,-2,-2,-1,-1,2
1512453088873149,-1,1,-2,-1,1,3,-4,-2
1512453088873149,-1,-3,2,0,0,-1,0,-1
1512453088885167,0,0,0,-4,1,0,-2,0
1512453088885167,1,-2,0,-1,-3,0,-1,-1
1512453088894164,-1,0,-3,0,-2,-3,1,-2
1512453088894164,-5,-2,-3,-2,-2,1,0,-3
1512453088908175,0,-2,-2,0,0,0,-1,0
1512453088908175,1,-3,1,-1,1,-3,0,-1
1512453088910175,0,1,-2,-2,-2,-3,-3,2
1512453088910175,-1,1,0,0,-3,-1,-1,-3
1512453088938220,2,-2,-2,0,0,-1,2,-1
1512453088938220,-1,2,-1,-1,-3,-2,0,-1
1512453088940197,-2,-3,-1,-2,-2,-3,0,-2
1512453088940197,4,0,1,-2,1,-2,-2,0
1512453088945210,1,-2,1,-2,2,-2,1,-3
1512453088945210,-1,-1,1,-4,-2,0,-2,-2
1512453088954217,-3,-1,-4,-2,-2,0,-2,-2
1512453088954217,-2,0,-1,1,0,0,-1,-2
1512453088968229,-1,-1,-1,-2,-3,-1,-3,-1
1512453088968229,-1,-2,-2,-1,2,-3,-1,3
1512453088970218,-1,-1,0,-1,-1,-2,-1,-1
1512453088970218,-2,-1,0,-1,2,-1,-1,0
1512453088991243,-1,0,-2,-2,-2,-2,-2,-4
1512453088991243,-3,0,-1,2,-3,-1,-1,0
1512453088992234,-3,-3,0,0,-2,-1,1,2
1512453088992234,0,0,-3,-2,-2,-1,0,-3
1512453089013249,-3,0,1,0,1,-1,0,2
1512453089013249,0,-1,-2,-2,0,-1,0,-1
1512453089020258,-2,-1,0,-2,1,-1,0,-2
1512453089020258,-1,-2,0,-1,-2,-1,-2,-2
1512453089028272,-3,0,-1,-2,-1,-1,-1,-4
1512453089028272,-3,-1,-2,-1,-2,-2,-1,2
1512453089030264,2,-2,0,-2,0,0,-3,0
1512453089030264,-2,-1,-2,-3,0,-2,3,-4
1512453089050278,-2,-3,-3,0,-3,-2,0,-3
1512453089050278,1,-1,1,1,0,1,0,0
1512453089059282,-3,-2,-1,-1,-2,-2,0,2
1512453089059282,1,0,-1,-2,-2,0,-1,1
1512453089073304,-1,-2,-1,-1,0,2,-1,-2
1512453089073304,1,0,-2,0,2,-3,0,-3
1512453089075292,1,1,0,-1,-2,-2,-3,-1
1512453089075292,-3,-2,-1,0,2,1,-1,-2
1512453089096317,0,-1,0,1,1,1,3,1
1512453089096317,-4,-1,-1,-2,-2,0,-2,-1
1512453089097318,2,-1,-1,-1,-2,-2,0,-1
1512453089097318,2,-2,0,0,-3,2,-1,-2
1512453089111330,-1,1,-2,-2,-1,-1,-2,-1
1512453089111330,1,0,-4,-2,-1,-1,-2,0
1512453089112319,0,0,-1,-1,-4,-1,1,1
1512453089112319,-4,-1,0,0,-2,-3,0,-3
1512453089133347,0,-2,-2,-3,1,0,0,-4
1512453089133347,0,-4,-1,1,-3,-3,-1,1
1512453089135344,-2,1,-1,-2,-1,-2,-4,-1
1512453089135344,2,-3,1,-3,0,-1,1,1
1512453089148348,0,-2,0,-1,-3,-1,-3,1
1512453089148348,-2,0,-1,0,-1,-1,-3,1
1512453089150346,-1,-1,-1,2,-1,-2,1,-3
1512453089150346,-1,0,1,-1,1,0,0,-1
1512453089171370,-3,-3,-1,-1,-1,0,-3,-2
1512453089171370,0,0,0,-1,-3,-2,0,0
1512453089172367,-1,-3,-3,-1,-2,0,1,-1
1512453089172367,0,2,-1,-2,0,-1,-1,-3
1512453089193460,0,1,-3,-1,-1,0,1,0
1512453089193460,-3,-2,-1,3,0,2,-2,-3
1512453089195461,-1,-1,-3,-3,-4,-3,0,0
1512453089195461,-3,2,2,0,-2,0,-1,-1
1512453089207470,1,-2,-2,-2,-2,-3,0,2
1512453089207470,-1,0,-1,-4,0,1,-2,0
1512453089214467,1,-1,-2,0,-1,-1,1,-2
1512453089214467,-1,-3,-3,0,-3,0,-1,1
1512453089231482,-3,-1,-2,-2,-2,-1,0,-1
1512453089231482,-2,-1,-1,-3,-3,0,-1,-1
1512453089232470,2,-1,0,0,-2,0,-3,1
1512453089232470,0,0,-2,-2,1,0,-3,-1
1512453089261529,-5,0,1,0,-1,-3,0,-1
1512453089261529,0,-4,0,-1,-2,-3,-1,0
1512453089262492,-2,-1,1,-2,0,-1,-1,0
1512453089262492,2,-3,-2,-2,-2,-1,-2,-2
1512453089267507,0,-1,-2,2,-1,-2,-6,0
1512453089267507,-1,0,-3,-1,0,-1,-2,-3
1512453089274512,-5,-1,-1,-1,1,1,-1,-1
1512453089274512,-1,1,-2,-2,0,-2,1,-2
1512453089291529,-2,0,1,-1,-1,0,-1,-3
1512453089291529,-2,-1,-1,-1,-1,-2,-2,0
1512453089292514,0,-2,-3,-1,0,-3,0,0
1512453089292514,0,-3,2,-3,-2,-2,-3,-1
1512453089313566,-1,-1,-4,-1,0,1,0,-5
1512453089313566,2,-1,-1,1,-3,1,0,2
1512453089319549,0,0,0,-1,-2,1,-2,1
1512453089319549,-2,-1,0,-1,0,-2,-2,1
1512453089327538,-4,-2,0,-1,-1,-2,1,0
1512453089327538,-3,-2,0,-1,-3,-2,1,0
1512453089334542,1,-2,-3,-2,-2,-3,0,-2
1512453089334542,-1,2,-2,-1,0,1,0,0
1512453089351554,-2,0,0,-3,-3,-2,0,0
1512453089351554,-1,-1,-2,-1,-1,-1,-2,-1
1512453089352555,-2,0,-2,-1,0,0,-2,-1
1512453089352555,1,-2,-2,0,0,-2,0,-5
1512453089373569,-1,0,0,-2,0,-2,-1,-3
1512453089373569,-1,-3,-3,-1,-4,-2,-1,-1
1512453089375590,-1,0,-1,1,-3,1,-1,-1
1512453089375590,-2,-2,-1,-2,1,-2,0,1
1512453089387580,-1,-2,-1,-4,0,3,0,2
1512453089387580,-3,-3,-2,0,-3,-2,-3,-1
1512453089396587,0,-2,-3,-2,1,0,-1,0
1512453089396587,-1,-1,-4,0,-1,0,0,-1
1512453089410597,2,0,-2,0,-3,-2,-2,1
1512453089410597,1,0,-1,-1,-2,-1,-1,2
1512453089412598,-1,-2,-1,2,-2,-1,0,1
1512453089412598,-4,0,-2,0,1,0,0,-3
1512453089433612,2,-2,-1,-2,0,-2,-1,-2
1512453089433612,-3,0,-1,-1,-1,-2,-2,-1
1512453089435613,-1,0,-1,-1,1,-1,2,-4
1512453089435613,-3,0,-1,1,-1,0,-1,-3
1512453089447622,-1,0,1,1,-1,-1,-3,-1
1512453089447622,2,-3,-1,-1,-2,-1,-3,-1
1512453089454627,-3,0,-2,-3,1,0,1,0
1512453089454627,1,-1,-2,-3,0,-2,-1,-1
1512453089470638,-1,-1,-1,1,0,-1,0,0
1512453089470638,-1,1,0,-1,-1,-1,0,-1
1512453089472640,1,1,0,0,0,-1,-1,0
1512453089472640,-1,-3,0,-2,2,-1,0,-1
1512453089493667,-2,-3,0,-1,-2,0,-2,0
1512453089493667,0,-1,1,2,-1,0,0,-2
1512453089495669,-2,-2,0,0,-2,0,-5,0
1512453089495669,-2,-1,-1,-2,-2,-1,1,1
1512453089507679,-1,-3,-1,-3,-3,-4,-1,-4
1512453089507679,1,-2,-2,0,-3,0,-1,0
1512453089516708,-3,1,1,0,1,-2,-3,-4
1512453089516708,0,-1,0,1,0,-1,1,-1
1512453089530770,-3,1,-4,-2,-1,0,-1,0
1512453089530770,-3,-3,-1,-2,0,-1,-2,3
1512453089532735,-2,-2,1,-2,-3,-1,0,0
1512453089532735,-2,0,0,-3,0,-1,-2,-2
1512453089553752,-2,0,0,-1,-1,0,0,1
1512453089553752,1,-1,-2,1,-1,-2,1,-1
1512453089554733,-1,-3,0,0,-2,-1,-3,-3
1512453089554733,-4,-1,-1,-2,2,0,0,-1
1512453089567746,1,-2,-4,0,-1,0,-3,0
1512453089567746,-1,2,-1,-2,-2,-1,-1,-2
1512453089575750,1,-2,-1,-1,1,0,-2,-2
1512453089575750,2,-1,-1,-1,2,0,0,-2
1512453089598781,-1,-1,-2,1,-2,-2,-1,2
1512453089598781,-2,-2,0,-1,-1,-1,0,-2
1512453089600767,-1,-1,-3,-1,-1,-2,-1,-2
1512453089600767,-3,-1,-3,-1,-3,0,-3,-2
1512453089613798,0,0,-2,0,-1,-2,0,-1
1512453089613798,-2,1,-1,-1,-3,-4,1,1
1512453089615786,0,-1,0,0,0,-1,-1,1
1512453089615786,0,-1,-1,-1,-1,-1,-3,-2
1512453089626787,0,0,-1,1,0,1,-1,0
1512453089626787,0,-3,-2,-3,-2,-2,-3,0
1512453089635792,2,2,0,-2,-2,-2,-1,-1
1512453089635792,-2,-1,-1,-2,1,-1,0,-4
1512453089649803,0,0,-1,-2,-1,0,2,-3
1512453089649803,0,-2,2,0,-1,-2,-2,3
1512453089658808,-4,-3,-5,-2,-3,-3,-2,0
1512453089658808,-1,-3,-1,-1,-1,0,0,-1
1512453089673817,-2,-1,1,0,-1,-1,1,-1
1512453089673817,0,-2,-3,0,-2,1,-3,-2
1512453089674828,-1,-1,-1,2,-3,-1,-1,1
1512453089674828,2,-3,-1,-4,-1,-2,-1,-2
1512453089686827,-4,-1,-1,-1,0,1,-3,0
1512453089686827,0,-1,0,-2,-3,-1,1,2
1512453089695834,1,0,-1,-1,-1,-1,-1,-1
1512453089695834,3,1,-3,1,-1,-1,2,0
1512453089710844,1,0,-3,-2,1,-3,-1,0
1512453089710844,-4,-2,0,2,-2,-1,1,-2
1512453089712845,0,-1,0,-1,1,-1,-4,0
1512453089712845,-3,-2,0,-2,-2,0,-2,0
1512453089733860,1,-2,0,-3,-4,-2,0,-2
1512453089733860,-1,-1,-2,-1,0,0,-1,0
1512453089734861,0,0,1,0,-1,4,0,0
1512453089734861,0,0,0,0,-2,-1,-1,-1
1512453089746870,-5,0,1,0,-3,-1,-2,0
1512453089746870,-1,-2,-3,-1,-4,-2,-2,1
1512453089755876,0,-2,-1,-2,0,0,2,-1
1512453089755876,0,1,-3,-3,0,-1,0,-3
1512453089770887,0,2,-1,-2,-1,-1,0,-2
1512453089770887,-1,0,0,0,2,-1,1,-2
1512453089772891,-1,-1,-1,-1,-2,-2,1,0
1512453089772891,-3,-1,-2,1,-3,-2,-1,-4
1512453089793903,0,-1,-2,-3,-1,-1,0,-1
1512453089793903,-4,0,-2,0,1,-1,-3,1
1512453089794904,-2,-2,-2,0,-3,-1,0,-2
1512453089794904,-2,0,-1,-3,1,0,0,-2
1512453089806911,2,-2,1,-1,-1,-2,1,0
1512453089806911,-1,-1,-2,-1,-3,0,-3,-7
1512453089816919,2,-3,-3,-2,1,-1,-3,-3
1512453089816919,1,0,-1,1,-2,-1,-3,-1
1512453089830932,0,0,-2,0,-1,1,-3,2
1512453089830932,1,-1,0,-2,-2,-1,-1,1
1512453089832932,-4,-2,-2,0,0,-3,0,-2
1512453089832932,1,-4,1,-2,-1,0,0,0
1512453089853945,-1,-2,1,-2,1,0,-2,-1
1512453089853945,1,1,-2,-2,-1,-1,-2,2
1512453089854946,-1,1,-1,1,-1,0,-1,-2
1512453089854946,-2,3,-3,-1,-3,0,-3,0
1512453089866955,-1,-3,-2,-3,0,-2,1,-3
1512453089866955,-2,-4,-2,0,-1,-2,-1,1
1512453089875961,1,-4,-1,0,-1,0,0,1
1512453089875961,0,-3,-1,-2,1,-3,1,-4
1512453089890972,0,0,-1,-1,-4,-2,-3,-3
1512453089890972,-1,1,-2,-2,1,-1,0,-2
1512453089892973,0,-1,-2,-2,0,-1,1,0
1512453089892973,0,0,0,-1,1,0,1,0
1512453089913990,-1,-3,2,0,-2,-1,-1,-1
1512453089913990,1,-2,-1,-1,-3,-2,-4,0
1512453089915988,-5,-2,-1,-3,-3,0,-3,-2
1512453089915988,0,-2,1,-3,1,0,0,0
1512453089926997,-1,-3,-4,-1,-1,-1,-2,-2
1512453089926997,0,0,-2,0,-1,-3,1,-2
1512453089936002,2,1,0,-1,0,-2,-1,-2
1512453089936002,-2,1,-2,0,0,-2,-2,-1
1512453089951013,-2,-2,0,-1,-3,-2,1,3
1512453089951013,0,-2,0,-1,-2,2,-2,2
1512453089953015,-2,0,-3,-1,1,-3,1,-3
1512453089953015,-2,-3,1,-3,-1,-1,-1,-1
1512453089974030,1,-1,0,0,0,1,-1,-2
1512453089974030,-2,-3,-2,0,0,0,-1,1
1512453089975031,0,-2,-2,0,-1,-1,0,2
1512453089975031,-1,0,1,0,-2,0,-4,-1
1512453089996044,-2,-2,-1,-3,2,-1,-1,-1
1512453089996044,-3,-2,-1,0,-4,-1,0,-1
1512453089999049,-1,-3,0,1,-1,0,-1,-4
1512453089999049,-3,1,-5,1,-2,1,-1,-1
1512453090011056,-3,0,0,-1,-1,-1,-1,1
1512453090011056,-1,-1,-1,-1,-2,-1,-4,-2
1512453090013057,-1,0,-1,-1,0,-1,-1,0
1512453090013057,0,-3,1,-4,-2,-2,-1,-1
1512453090033074,-1,0,-2,-1,-4,-3,-1,-2
1512453090033074,0,-1,-2,-2,-2,0,-1,-1
1512453090035073,-1,-3,-1,-1,-1,-2,-2,1
1512453090035073,1,-1,-2,0,-1,0,0,-1
1512453090056087,1,0,0,0,-1,-2,-1,-4
1512453090056087,0,0,1,-1,-1,-3,-2,2
1512453090058091,0,-1,-2,-1,-1,0,0,-1
1512453090058091,-2,-1,-2,-3,-2,-2,-4,0
1512453090071102,3,-3,-3,-1,-3,0,-5,-1
1512453090071102,0,-2,0,0,1,-2,2,0
1512453090073101,-2,1,0,0,-1,-1,0,-2
1512453090073101,-1,-1,-3,1,-2,0,2,-1
1512453090093114,-2,2,-1,1,0,-2,-1,-1
1512453090093114,-2,1,-1,0,-2,1,-3,0
1512453090095126,-1,2,-1,-1,-1,0,0,-1
1512453090095126,-2,-2,1,-1,2,-2,-3,-1
1512453090116140,-1,-1,-3,-1,-5,1,0,-1
1512453090116140,-3,0,0,-2,-5,-2,-2,-2
1512453090119147,0,2,-1,-1,4,-2,0,1
1512453090119147,0,-3,-4,-3,-1,-1,2,0
1512453090130166,-4,-5,1,0,-2,-3,-2,2
1512453090130166,0,-1,0,-1,1,0,-1,-1
1512453090137154,-2,-3,0,-2,-2,2,-2,-4
1512453090137154,2,0,-2,1,-2,1,-2,-1
1512453090153168,0,0,-3,0,-1,-2,-2,-2
1512453090153168,-3,-1,-3,-1,0,-2,1,-4
1512453090155160,-1,-4,-1,-1,-1,-2,-1,1
1512453090155160,-2,2,-2,1,0,-3,1,-2
1512453090176230,1,-2,-1,-1,-1,-1,0,0
1512453090176230,-2,0,2,-2,-2,-4,-1,-1
1512453090178173,-3,-3,0,-1,-1,-1,0,0
