timestamp,emg1,emg2,emg3,emg4,emg5,emg6,emg7,emg8
1517205258270318,-1,-2,-1,-1,0,-1,0,-2
1517205258270318,-2,0,-1,-2,0,1,-1,1
1517205258271319,0,-1,-1,2,-3,0,-3,0
1517205258271319,-1,-1,-3,-3,0,0,-1,-1
1517205258286331,-2,-1,1,0,1,-3,0,-1
1517205258286331,1,1,0,-1,-1,-1,-2,0
1517205258286830,1,-1,-3,-5,0,0,-1,0
1517205258286830,-3,-1,2,5,-1,-2,0,1
1517205258308345,-1,2,0,-2,-2,0,-3,-1
1517205258308345,-2,-4,-3,-6,-1,-2,-1,-1
1517205258308848,1,2,2,2,0,-1,-1,-3
1517205258308848,-1,-2,-3,-3,0,-1,-1,-1
1517205258330863,0,0,-1,2,0,-1,0,1
1517205258330863,0,-1,0,1,-3,-1,1,0
1517205258331361,-2,-4,-1,-5,-2,-1,-1,-1
1517205258331361,0,1,-2,-1,0,-1,-1,-1
1517205258345372,-1,-1,-1,1,0,-1,-1,-1
1517205258345372,-1,-2,-2,-2,-3,-2,-3,-2
1517205258346372,-2,-1,0,1,0,0,1,0
1517205258346372,0,1,-2,-2,-1,1,-2,-3
1517205258367888,0,0,-3,-4,-2,-1,-2,-1
1517205258367888,-1,1,1,3,0,-1,0,-3
1517205258368888,-1,-1,-3,-5,1,-2,-1,-2
1517205258368888,-1,-3,-2,-4,-2,-2,-2,0
1517205258390909,-2,2,-1,0,-1,-1,-1,0
1517205258390909,-1,-1,-1,2,-1,0,-2,-1
1517205258391405,-1,-2,0,1,0,-1,0,-1
1517205258391405,-2,0,0,2,0,0,1,-1
1517205258405915,-1,-2,-2,-1,-3,-1,-1,-2
1517205258405915,-1,-1,-3,-1,0,-2,-1,-1
1517205258406415,0,2,0,-1,-1,0,-1,0
1517205258406415,-1,0,-3,-1,-2,-4,-2,-2
1517205258427943,0,-2,1,0,-1,-1,0,0
1517205258427943,-1,-2,-2,-5,0,-2,-2,-1
1517205258428934,-1,-1,-3,0,-1,0,-2,-1
1517205258428934,0,0,1,-3,-3,-1,-1,-1
1517205258450455,0,-1,1,2,1,0,-2,0
1517205258450455,-1,-4,-2,-2,-1,0,-1,-1
1517205258451457,-3,-3,-3,-3,-2,-2,-1,-1
1517205258451457,1,2,2,1,-1,-2,0,-2
1517205258465459,0,-3,-4,-3,-4,-1,0,-2
1517205258465459,-1,0,-2,0,-1,0,0,-1
1517205258466457,-1,-3,0,0,0,-1,-1,-2
1517205258466457,-2,-4,0,-2,-1,-4,-1,-1
1517205258487972,-2,-1,0,-1,0,-2,-1,0
1517205258487972,-3,-3,-2,-2,-1,-1,-1,-1
1517205258488973,0,1,2,1,-1,-2,-1,-1
1517205258488973,-1,-1,-4,-1,0,0,-1,0
1517205258510491,0,-2,0,0,2,0,-1,0
1517205258510491,-1,-1,0,-2,-2,-1,-1,-1
1517205258510989,1,-1,-1,-2,-1,0,-1,-1
1517205258510989,0,0,0,1,1,1,-2,-1
1517205258525520,0,0,0,-1,0,-1,-2,-1
1517205258525520,-1,0,1,-2,0,1,-1,-1
1517205258526000,-3,-1,-2,-2,0,-1,0,0
1517205258526000,-2,-3,-3,-2,-2,-1,-2,-1
1517205258548024,-2,-1,0,-1,0,0,-1,-2
1517205258548024,0,2,2,3,-2,-2,-1,0
1517205258548516,-1,-2,-5,-5,0,0,1,-2
1517205258548516,-1,-3,-1,0,-1,-1,-1,1
1517205258570547,1,1,3,1,-1,-3,-1,-2
1517205258570547,2,-1,0,-1,-4,0,-1,1
1517205258571032,-5,-1,0,2,0,0,0,-1
1517205258571032,0,-2,-1,0,-1,-1,-1,-2
1517205258585545,1,-1,-1,-2,-2,-2,-2,-1
1517205258585545,-1,0,-1,1,-1,-1,-1,-2
1517205258586042,0,0,-2,-4,-2,-1,-1,0
1517205258586042,-1,-6,-4,-1,0,-2,-3,-3
1517205258608561,-1,2,-1,-2,-3,0,-2,0
1517205258608561,0,-1,-2,1,2,1,0,0
1517205258609560,-2,-1,1,2,-2,-2,-2,-1
1517205258609560,-1,0,-1,-2,0,0,0,-2
1517205258630573,-1,-3,-4,-2,-1,-1,-1,-1
1517205258630573,-2,-1,-2,-2,-3,-1,-1,-2
1517205258631073,0,-1,-1,1,-2,-1,0,-2
1517205258631073,-2,0,0,-2,-3,-2,1,0
1517205258645584,-1,-2,-2,-1,0,-1,0,1
1517205258645584,-1,0,-1,0,-1,-1,-1,0
1517205258646084,-1,-1,-1,1,1,0,-2,0
1517205258646084,0,-1,-3,-6,-3,-2,-2,-1
1517205258668102,-1,-1,1,1,0,-1,-1,-1
1517205258668102,-2,-1,-3,-5,0,-2,-1,-2
1517205258668600,0,-1,-1,0,-1,-1,-1,-1
1517205258668600,1,-1,1,-1,-2,-1,0,1
1517205258692117,-4,-2,1,1,-1,0,-1,-2
1517205258692117,0,2,1,0,-2,0,-1,-2
1517205258692618,1,-5,-1,-2,-3,0,-2,-1
1517205258692618,0,-2,-3,-2,0,-2,-1,-2
1517205258705626,0,2,2,-1,0,1,-2,1
1517205258705626,0,1,-1,-1,0,0,-1,-2
1517205258706126,-1,-2,0,-1,-2,-2,-3,-2
1517205258706126,-1,1,-3,0,0,0,1,-2
1517205258728144,1,-3,-3,-1,-1,-1,-2,-3
1517205258728144,-2,-5,-3,2,1,-1,0,0
1517205258728646,2,3,-1,1,-1,-2,-2,0
1517205258728646,-3,-4,-1,0,0,-3,-1,0
1517205258750167,-1,0,1,-3,-1,-2,-2,0
1517205258750167,0,4,1,0,-3,-1,-1,0
1517205258751158,-3,-4,-6,-5,0,-1,-1,-1
1517205258751158,-2,-2,0,0,-1,-1,0,-1
1517205258765684,-3,-5,-2,-2,-1,-3,0,-3
1517205258765684,0,-4,-4,-2,0,0,-2,0
1517205258766168,-3,-5,-1,1,-3,-3,1,-1
1517205258766168,0,8,2,-5,-2,0,-1,-2
1517205258788184,0,2,-2,0,-1,-1,0,-1
1517205258788184,0,3,0,-4,-1,-2,-1,-1
1517205258788686,1,-2,1,2,-1,-2,0,2
1517205258788686,-2,-1,0,2,0,-2,0,-2
1517205258810701,1,0,-1,4,1,1,0,-1
1517205258810701,-2,-5,5,-3,-3,-3,0,-4
1517205258811201,-1,-7,-7,6,-2,-2,-2,-3
1517205258811201,0,11,1,-17,-2,-1,-3,-3
1517205258825727,0,-3,-1,0,-3,-2,-3,-1
1517205258825727,-2,-4,-5,1,0,-1,1,-1
1517205258826211,-2,6,5,-4,0,-1,0,-2
1517205258826211,0,-7,-4,3,1,0,-1,1
1517205258848239,0,-1,-1,10,-3,0,-2,0
1517205258848239,2,2,2,-9,-2,-3,-1,-1
1517205258849240,-2,-4,-5,-3,-1,-1,-1,-1
1517205258849240,0,0,-1,5,0,0,-1,-2
1517205258870743,-1,10,-4,-5,-2,-3,-3,-1
1517205258870743,-3,-11,1,7,-3,-3,-3,-2
1517205258871243,-1,-2,-1,0,2,0,-1,-1
1517205258871243,0,-4,-1,-5,-4,-1,0,-2
1517205258885263,-2,8,6,-1,0,2,-1,-1
1517205258885263,-5,-15,-16,-3,-3,-3,0,-2
1517205258886263,-1,2,1,-4,0,-1,-2,-4
1517205258886263,-1,1,1,4,-1,0,-1,-1
1517205258907772,-4,-7,-1,-3,-2,-1,0,-2
1517205258907772,-2,2,2,0,2,0,-2,-1
1517205258908770,-2,-5,-2,-3,-3,-1,-1,1
1517205258908770,-3,-1,1,7,-3,-2,0,-3
1517205258931288,0,-11,-10,-18,2,2,0,-1
1517205258931288,-3,1,3,-3,-3,-2,-2,-1
1517205258931786,1,10,0,-1,-1,0,0,0
1517205258931786,-3,-20,1,5,-4,-1,-2,-2
1517205258945308,4,-10,-4,-4,-2,-1,0,1
1517205258945308,2,8,3,2,1,1,0,2
1517205258946309,5,5,-1,3,1,1,-1,-1
1517205258946309,0,8,6,4,0,1,0,2
1517205258967835,-7,-18,-15,-13,-4,-2,-2,-2
1517205258967835,-3,-8,-1,-2,-2,-4,-2,-2
1517205258968837,-1,6,3,-2,-2,-2,-1,3
1517205258968837,-4,-4,-2,-3,0,0,-1,1
1517205258991329,0,1,-2,5,1,0,-4,-9
1517205258991329,-1,-5,-6,3,-1,-1,1,1
1517205258991829,0,22,7,-4,-2,-2,-1,-4
1517205258991829,-3,-14,-12,-3,0,-1,-1,2
1517205259005840,8,13,2,5,-2,-3,0,0
1517205259005840,-5,-4,2,-4,-2,-1,-2,-2
1517205259006340,4,-6,0,4,-1,0,2,1
1517205259006340,-13,6,-3,-5,0,-1,-1,-4
1517205259027855,5,-5,4,1,-2,0,0,0
1517205259027855,-1,-1,-5,-3,0,-1,-1,-2
1517205259028855,4,0,-1,-1,-1,-1,-1,-2
1517205259028855,4,0,0,1,-1,1,0,4
1517205259050897,-11,8,0,-1,-1,-2,-2,-5
1517205259050897,-2,-6,7,4,-1,0,1,1
1517205259051888,-7,-27,-20,-3,0,1,0,-2
1517205259051888,5,19,2,-2,-2,-3,-3,-5
1517205259065419,-3,-13,-4,1,0,-1,2,3
1517205259065419,4,11,6,-4,0,0,-2,-1
1517205259066414,-7,-6,1,4,-2,-1,-2,-3
1517205259066414,1,-9,-11,-5,1,1,-2,-2
1517205259087914,4,11,3,3,-2,0,-2,4
1517205259087914,-10,0,-8,-4,-2,-3,-1,-2
1517205259088414,5,-3,3,-5,-3,-2,-1,-2
1517205259088414,-2,14,4,1,0,0,0,0
1517205259110944,-7,-31,-4,0,-1,-2,0,1
1517205259110944,15,4,-4,1,-2,-2,-3,-4
1517205259111945,-3,12,0,-2,-3,1,0,3
1517205259111945,-1,-3,-2,2,2,2,0,-2
1517205259124958,-3,2,0,-6,-2,-4,-6,-6
1517205259124958,-4,-2,-2,3,1,0,1,2
1517205259132974,-2,3,6,0,0,0,0,-1
1517205259132974,0,-12,-13,-7,-3,-4,1,2
1517205259147969,-1,-5,-5,8,6,3,4,3
1517205259147969,1,5,3,-4,-5,-1,-4,-2
1517205259148469,-5,2,4,-8,-1,-2,-2,-3
1517205259148469,-1,-20,-5,-6,-1,0,-1,0
1517205259171002,2,7,5,0,0,-2,-3,-2
1517205259171002,-1,-2,-5,-2,-1,-2,-2,-1
1517205259171987,7,-6,-3,0,-2,-1,2,1
1517205259171987,1,7,8,1,-1,-2,-2,-1
1517205259184499,-3,-7,-2,-3,-1,0,0,-2
1517205259184499,1,11,0,2,0,0,-2,2
1517205259193003,-4,-13,-7,0,1,-2,-2,-1
1517205259193003,1,13,8,-1,-2,0,-3,-3
1517205259208032,3,13,1,-1,-2,0,1,2
1517205259208032,-4,3,3,1,0,0,1,-2
1517205259208516,-5,-37,-19,-2,-1,0,-1,-2
1517205259208516,-1,3,-12,-2,0,-1,-1,0
1517205259230543,1,5,12,2,-2,-1,-2,-3
1517205259230543,-4,-1,-6,-5,-1,-2,-2,-2
1517205259231028,-5,8,3,0,-1,-1,-2,-4
1517205259231028,7,-5,3,0,-2,-2,0,5
1517205259244543,-4,2,4,0,-2,-3,-2,0
1517205259244543,-3,-21,3,1,-4,-2,-1,-3
1517205259253044,-2,1,-5,-5,0,-2,-3,-2
1517205259253044,-1,-10,-7,0,1,1,-2,-4
1517205259268055,0,16,9,-1,-4,-2,0,-2
1517205259268055,3,8,4,3,-1,-3,-1,2
1517205259268555,-4,0,0,-7,2,-1,0,-1
1517205259268555,-2,-3,-4,-5,-3,-1,-1,-2
1517205259290589,-5,-4,6,0,0,-2,2,0
1517205259290589,6,0,-5,0,-1,0,0,0
1517205259291074,-1,5,2,5,0,-1,0,0
1517205259291074,-2,-2,-5,-2,-3,-2,-2,-3
1517205259304604,0,-2,-10,6,-3,-1,-1,-1
1517205259304604,-3,-4,-1,-11,0,-1,-1,-2
1517205259313089,1,-1,-3,1,-2,0,-1,-1
1517205259313089,-2,0,6,-1,-2,0,-2,-2
1517205259328097,1,2,-7,-1,-2,-1,0,-1
1517205259328097,-4,-6,-2,4,1,0,-1,0
1517205259328598,-1,3,4,-1,-1,-3,-3,-1
1517205259328598,-3,3,1,2,-1,0,-1,0
1517205259351114,-2,-3,-7,-6,1,0,0,0
1517205259351114,0,-1,-5,-1,0,0,1,0
1517205259358120,1,-2,2,-4,-3,-1,0,0
1517205259358120,-2,0,-1,0,-1,-1,0,-1
1517205259364632,0,-3,-5,-3,0,-1,-2,-2
1517205259364632,0,-1,0,0,0,-1,0,0
1517205259373130,-2,3,2,1,-3,-1,-1,-2
1517205259373130,-1,-3,0,1,0,1,-1,-1
1517205259387639,-3,-3,-2,-4,-1,-1,-2,-1
1517205259387639,-2,0,-2,0,-1,0,1,-1
1517205259388640,0,1,1,-1,-1,-2,-1,0
1517205259388640,-2,0,-2,0,0,-1,-2,-3
1517205259410657,-2,-3,-4,-2,0,0,0,-1
1517205259410657,-2,0,-3,1,0,1,-1,-1
1517205259411156,-2,-1,-1,-3,-2,-1,-2,-1
1517205259411156,0,-2,1,0,0,0,1,0
1517205259425167,-2,-3,-2,0,-1,0,-1,0
1517205259425167,-2,0,-1,1,-2,-1,-1,0
1517205259433172,-2,2,-2,0,0,-2,0,0
1517205259433172,0,-1,-1,-1,0,-3,-2,0
1517205259447694,-1,-1,0,-2,-2,0,-2,-2
1517205259447694,-2,-2,-2,0,0,-1,-1,-2
1517205259448695,0,0,-1,-1,-1,-1,-1,1
1517205259448695,0,-2,0,-1,-2,-3,-2,0
1517205259471220,0,-2,-1,-2,0,-1,-1,-2
1517205259471220,-1,-2,-2,-1,-1,0,-2,-1
1517205259472201,-2,0,-2,1,-2,-1,0,-1
1517205259472201,-2,0,0,-1,1,0,-2,-2
1517205259493729,-3,-2,-1,-2,-1,-2,0,-1
1517205259493729,-2,-1,-1,-2,-3,0,-2,-2
1517205259494229,0,-1,-1,0,0,-1,-3,0
1517205259494229,-1,-2,-2,-1,-2,0,1,1
1517205259508225,-2,-1,-1,-3,0,0,-2,1
1517205259508225,1,-2,-2,0,0,-2,-1,-1
1517205259508725,-1,-1,0,-1,0,-1,-2,-2
1517205259508725,-1,0,0,-1,0,0,-1,-1
1517205259531244,-1,-1,-2,-1,-2,1,-1,-2
1517205259531244,-1,0,-2,-1,-2,-3,0,-2
1517205259531741,-1,0,1,-1,-2,0,-1,-1
1517205259531741,0,-2,-1,-1,-1,-2,0,-1
1517205259553758,-1,-1,-2,-2,-1,-3,0,1
1517205259553758,0,-1,-1,-1,0,1,1,1
1517205259554257,-1,-1,-2,1,-1,0,-1,-2
1517205259554257,-1,0,-1,0,0,-2,-1,-1
1517205259567783,-2,-1,-1,-1,-1,-2,-2,-2
1517205259567783,0,0,1,-1,-1,0,-2,-1
1517205259568814,-2,0,-2,0,-2,-1,-1,-1
1517205259568814,0,-2,-1,-1,-2,0,-1,-1
1517205259591307,-2,1,-2,-1,-1,-2,-1,0
1517205259591307,0,0,-2,0,-3,-1,-1,-1
1517205259591809,0,0,-1,-1,-1,-1,1,-1
1517205259591809,-2,-2,-1,-2,-2,-2,-2,0
1517205259613823,0,-2,-2,0,-1,0,1,-1
1517205259613823,-1,-2,-1,-2,-2,-1,0,-1
1517205259614324,-1,-1,-2,-2,-2,-1,-1,0
1517205259614324,-1,0,-2,-2,-1,-1,1,-3
1517205259627833,0,2,0,-1,0,-1,-3,-1
1517205259627833,-2,-3,0,-2,-1,-1,-2,0
1517205259628846,-2,-1,0,-2,-3,-1,0,-1
1517205259628846,-1,0,0,0,-2,-1,-3,0
1517205259650850,-1,-2,-2,0,1,-2,-1,-2
1517205259650850,-1,-2,-2,-2,-1,-1,-2,0
1517205259651851,-1,-2,-2,-1,-1,-1,0,-1
1517205259651851,-1,-1,0,0,-2,0,1,-2
1517205259673867,0,-2,0,0,-2,-1,-1,-1
1517205259673867,-1,-2,-2,1,-1,0,-1,-2
1517205259674368,1,0,-1,-2,0,-2,-1,-1
1517205259674368,-1,1,1,-2,-2,0,-1,-1
1517205259687875,0,-1,-3,-3,-1,-1,-2,-2
1517205259687875,-1,-1,0,-1,-2,-2,-1,-1
1517205259688877,-1,0,0,0,0,0,-1,1
1517205259688877,-1,-1,-2,1,-2,-2,-2,-1
1517205259710893,-1,-1,0,-1,-1,-1,-2,1
1517205259710893,-2,-1,-1,-1,-1,-1,-2,-1
1517205259711892,-1,-2,-1,-2,-2,-1,-1,-2
1517205259711892,-2,0,-1,-1,-2,-1,-3,0
1517205259733411,0,-2,0,0,-2,1,2,0
1517205259733411,0,-1,-1,-1,0,-1,-1,0
1517205259735413,-2,-3,0,0,0,-1,-2,1
1517205259735413,-1,-2,-3,0,0,-2,0,-2
1517205259747931,0,-1,0,1,-1,-1,-1,-1
1517205259747931,1,0,1,-2,-1,-3,-1,0
1517205259748419,0,0,-1,-1,-3,0,-1,-2
1517205259748419,-1,-2,-3,-2,-2,-1,-1,-1
1517205259770988,-1,-1,-1,-2,-2,1,-1,0
1517205259770988,-1,0,0,-1,-1,-1,1,0
1517205259771986,-1,-2,-2,-1,-1,-2,-1,-1
1517205259771986,0,-2,-1,0,-1,-2,-2,-2
1517205259794003,-3,-1,-1,-3,0,0,0,-1
1517205259794003,-1,-1,-1,-1,0,-1,-1,-1
1517205259794501,-1,-2,-2,-1,0,2,-2,0
1517205259794501,-2,-1,0,-2,0,1,-1,-1
1517205259808011,-2,-1,-3,0,-2,-2,-1,1
1517205259808011,-2,-2,-2,-1,-2,-1,3,-2
1517205259808512,-3,0,0,-2,-1,-1,-2,-1
1517205259808512,1,-2,-1,0,1,-2,-1,-1
1517205259831030,-1,-1,0,0,-1,-1,-3,-1
1517205259831030,-1,-1,-2,-2,-1,-1,-1,-1
1517205259832027,-2,-1,-2,-1,-2,-1,0,-1
1517205259832027,0,0,-2,-1,-1,-1,0,-2
1517205259853566,1,-2,-1,-1,-1,-1,-2,-1
1517205259853566,1,-2,0,-2,0,-1,-1,-1
1517205259854553,1,1,-1,-2,-1,-1,-2,-1
1517205259854553,-1,-2,-2,-2,-1,-2,-1,-1
1517205259868053,0,-2,-1,0,-2,0,-1,0
1517205259868053,-2,0,-3,-2,-1,0,0,0
1517205259868554,-2,-2,-1,-1,-2,0,0,0
1517205259868554,-1,-2,-1,-1,0,-3,1,-1
1517205259891070,1,-1,0,-2,-1,-3,-2,0
1517205259891070,-1,-1,0,0,-1,0,-1,-1
1517205259892075,-1,0,1,-2,0,0,0,-1
1517205259892075,-3,-1,-1,0,0,-1,-2,-2
1517205259913588,-4,0,-1,-1,-2,0,1,-1
1517205259913588,0,0,-1,-1,0,-1,-2,-2
1517205259914085,0,-2,-2,1,-2,-2,0,-1
1517205259914085,-2,0,-1,-1,0,-1,-1,1
1517205259928126,0,0,-2,-1,-1,-3,0,-2
1517205259928126,-1,-2,-2,-1,-2,0,-1,0
1517205259928625,0,1,-1,-1,0,-1,1,-1
1517205259928625,-1,1,-1,-2,-2,1,0,-1
1517205259951142,-2,-1,-2,0,-1,0,1,-1
1517205259951142,-1,-1,0,0,0,-1,0,0
1517205259951643,-1,-2,-2,0,0,-1,-2,-1
1517205259951643,0,-1,-1,-1,-2,-1,-1,0
1517205259973669,-1,-1,-1,-2,-1,0,-2,-1
1517205259973669,-1,-1,1,0,-1,0,-1,-2
1517205259974160,0,-1,-2,1,-2,-1,-2,0
1517205259974160,-1,0,-1,0,0,0,-1,1
1517205259987690,-1,-1,-1,0,0,-1,-2,-1
1517205259987690,-3,-1,-1,-2,-1,0,-1,-1
1517205259995675,-2,-1,-2,-2,-1,-1,-1,0
1517205259995675,-1,0,0,-3,-1,-1,-1,-1
1517205260011194,-1,-2,-2,0,-2,-1,-1,0
1517205260011194,-2,-2,-1,0,0,-1,-1,-1
1517205260011686,-1,-2,-1,-1,-2,-2,-1,-2
1517205260011686,-1,-1,-2,-2,-2,0,-1,-3
1517205260033770,0,0,-1,-1,-1,-1,0,-3
1517205260033770,-2,-1,-1,-1,-1,-2,-2,0
1517205260034255,-1,-1,0,-1,0,0,-2,0
1517205260034255,-1,-1,0,0,0,0,-1,-1
1517205260047277,-1,0,-1,-2,0,-2,0,0
1517205260047277,-1,-1,-1,0,-2,-1,-1,-1
1517205260055273,-1,-1,-1,-2,0,-2,0,-1
1517205260055273,0,-1,-2,-1,-2,-1,-1,-1
1517205260070285,0,-1,0,-3,-1,-1,-3,-3
1517205260070285,0,0,-1,0,0,-3,0,0
1517205260077798,-3,0,-1,-1,-2,-1,-2,-1
1517205260077798,-1,-1,-1,-1,-1,0,0,-2
1517205260093798,-2,1,-1,-1,-1,-2,-2,0
1517205260093798,0,0,-2,0,-2,-1,-1,-2
1517205260094299,1,-2,-1,-1,-1,0,-2,-2
1517205260094299,-1,-2,-2,-3,-1,-2,-2,0
1517205260107308,0,-2,0,0,-2,-2,1,1
1517205260107308,-2,-2,-2,-1,0,-1,0,0
1517205260115327,0,-1,-1,-1,-1,1,0,-1
1517205260115327,-1,-1,-2,0,-1,-1,-2,0
1517205260131324,-1,-1,-1,-1,0,-2,-2,-1
1517205260131324,1,0,-2,0,-1,-1,-1,0
1517205260131824,-1,-2,-1,-1,0,-2,-2,0
1517205260131824,-1,-1,-1,-2,-2,1,0,0
1517205260153840,-1,-1,0,-1,-1,1,0,0
1517205260153840,-2,-1,0,-1,-2,0,-2,-1
1517205260154341,0,-2,-1,0,1,1,-1,-2
1517205260154341,-2,0,0,-1,-2,-1,-1,0
1517205260167353,-1,-2,-1,-1,-1,-2,0,-1
1517205260167353,0,0,-1,0,-1,0,-1,1
1517205260175355,-2,-1,0,0,-1,-2,0,-2
1517205260175355,-1,-2,-1,-1,0,-2,-1,-2
1517205260191370,-1,0,-2,-1,-1,-1,-1,-1
1517205260191370,-2,-2,1,-1,-1,-2,-1,-2
1517205260191867,0,-1,-2,-1,0,-2,0,-1
1517205260191867,-2,0,-1,-1,-2,-1,0,0
1517205260213439,-1,-3,0,1,-1,0,-1,-1
1517205260213439,-2,0,-1,-2,0,0,-1,-2
1517205260214436,-2,0,-1,1,-3,-2,0,-1
1517205260214436,-1,-2,-2,0,-1,0,0,-1
1517205260227434,-2,0,-2,-1,-1,-1,-2,-1
1517205260227434,-2,-3,-2,-2,-2,-1,-2,0
1517205260235452,-1,0,1,-2,0,0,-2,-1
1517205260235452,0,-1,-2,-1,-1,0,0,-1
1517205260250941,-1,0,-2,-1,0,0,-2,-2
1517205260250941,-1,-2,0,0,0,0,-1,0
1517205260251951,-1,-2,-3,-1,-3,-1,-1,0
1517205260251951,-1,-2,1,-1,-2,-3,-1,-1
1517205260273456,0,-1,-3,-1,-1,0,1,0
1517205260273456,0,-2,-2,-1,-2,-2,-1,-2
1517205260274460,-2,-2,0,-2,-1,0,-1,0
1517205260274460,0,-1,0,0,1,0,0,-1
1517205260287465,-1,-1,-1,-4,0,-1,-2,-1
1517205260287465,0,0,-1,-1,-1,-4,-1,-2
1517205260295481,-1,0,-1,-1,-2,-1,-1,-1
1517205260295481,-2,0,0,0,-1,-1,-2,-2
1517205260310497,-1,-2,-1,-3,0,-3,-1,-2
1517205260310497,-2,-2,-2,-2,0,0,-1,-2
1517205260317002,-2,0,-1,-1,-2,-1,-1,0
1517205260317002,0,0,0,-1,0,-2,0,-2
1517205260333586,-2,-1,1,0,-2,0,-3,-1
1517205260333586,0,-1,-1,0,-1,0,-1,-1
1517205260334599,-2,-2,0,0,0,-2,-1,-2
1517205260334599,-1,-1,-2,0,-1,-2,-1,-1
1517205260347092,-1,-2,-2,0,-2,-1,0,-1
1517205260347092,0,0,0,-2,-2,0,-1,-1
1517205260356100,-1,-1,0,0,-1,-2,0,-1
1517205260356100,-1,-2,-3,-2,-2,-1,-1,-1
1517205260370612,-1,-3,-1,0,-1,-1,0,-2
1517205260370612,-1,-2,-1,0,0,-1,0,1
1517205260377130,-1,-1,-1,-2,0,-3,-1,-1
1517205260377130,0,-1,1,-1,0,0,-3,0
1517205260393635,-1,0,-2,-1,-1,0,0,0
1517205260393635,-1,0,-1,-1,-2,-2,-2,0
1517205260395142,0,0,-1,-1,-2,0,-1,0
1517205260395142,-2,-2,-3,-2,-1,1,0,0
1517205260416145,-1,-1,0,0,-2,-2,0,-1
1517205260416145,-1,0,-2,0,-2,0,-2,-2
1517205260417657,0,-2,-2,-1,-1,-1,0,0
1517205260417657,-2,0,-3,0,-3,-1,-1,-1
1517205260430652,-1,-1,-2,-2,-1,-1,-2,-1
1517205260430652,-2,-2,0,-1,0,-1,-1,0
1517205260437156,-1,-1,-2,0,-1,-1,-2,0
1517205260437156,-1,-1,-1,-1,-3,-2,-1,-2
1517205260453689,0,-2,1,1,-2,0,-2,-1
1517205260453689,0,0,0,-1,0,-2,-2,0
1517205260455192,-3,-2,0,-1,-2,-1,-3,-2
1517205260455192,-2,-1,-2,-2,0,-1,0,-2
1517205260476194,0,-1,-2,-1,-3,-1,-1,0
1517205260476194,-2,-1,-1,0,0,-1,0,-1
1517205260477695,-1,-2,-1,-2,-2,0,-1,-3
1517205260477695,-2,-1,-1,-2,0,-2,-1,-2
1517205260490203,-2,0,-1,-2,0,-1,-2,-2
1517205260490203,-1,0,-1,-1,-1,-1,-2,-1
1517205260497216,-2,-1,0,-2,0,1,-3,0
1517205260497216,-2,-1,-2,-2,-1,-2,-1,0
1517205260513714,-1,0,0,-1,-2,-2,-1,-3
1517205260513714,-1,-1,-2,-2,-1,-2,0,-2
1517205260515226,0,1,-1,0,-1,-1,-2,-2
1517205260515226,0,-1,0,0,0,1,-1,-1
1517205260536246,-2,-1,-1,1,-1,0,0,-1
1517205260536246,-2,-1,-1,-1,-1,-3,0,0
1517205260537737,0,0,-3,0,-2,-2,-1,-1
1517205260537737,-1,-1,-1,-1,-2,1,-1,-1
1517205260550237,-1,-1,-3,-2,-1,-1,1,-1
1517205260550237,-2,-1,0,0,-1,0,0,-3
1517205260557244,0,-3,-1,-2,-1,-2,1,-1
1517205260557244,-2,-1,-1,-1,-3,-1,0,-1
1517205260573755,0,0,0,-1,-1,0,-2,0
1517205260573755,-1,-2,-2,0,-3,-1,-3,-1
1517205260575255,-2,0,-1,-2,-1,1,-1,0
1517205260575255,-2,-2,-3,0,-2,-1,0,1
1517205260596268,0,-2,0,-3,-1,-1,-2,0
1517205260596268,-2,-2,-1,-1,2,-1,-2,-1
1517205260597770,0,-2,-1,-1,-1,-1,-1,0
1517205260597770,0,0,-1,-2,-1,-1,-2,-2
1517205260610278,0,-3,-2,-1,-2,-2,-2,-2
1517205260610278,-1,0,-1,-2,-3,1,0,0
1517205260617287,-2,0,-2,0,0,-1,-1,-1
1517205260617287,-1,-1,-1,-2,-1,-1,-1,-3
1517205260633796,-3,-1,-2,-1,0,-2,0,0
1517205260633796,-2,-2,0,0,1,-2,-1,0
1517205260636297,-2,-1,-1,-2,-2,-2,-1,-2
1517205260636297,0,-2,-3,0,0,-2,-1,-1
1517205260656315,-1,-2,0,-1,0,2,-1,-1
1517205260656315,0,-3,-2,-2,-1,0,0,-2
1517205260657822,0,-2,0,1,-2,1,-2,-1
1517205260657822,1,-2,0,-1,-2,-3,-2,-1
1517205260670343,-1,0,-1,-2,-1,-1,0,-1
1517205260670343,0,-1,0,-2,-2,-1,0,0
1517205260677326,-1,-1,-1,1,-1,0,-1,-1
1517205260677326,0,1,0,-1,-1,-1,-2,0
1517205260694339,-1,1,-1,0,-3,-1,-1,-1
1517205260694339,0,-1,-2,0,-1,-1,-2,-2
1517205260695851,0,-1,-1,-2,-1,-1,0,0
1517205260695851,-1,0,-1,0,-2,-2,-1,0
1517205260716354,-2,1,-2,-1,-1,-3,-2,-1
1517205260716354,0,0,-2,-1,-1,1,0,-2
1517205260717858,-3,-1,-2,-1,0,1,-3,-1
1517205260717858,-1,-1,0,-2,-1,1,-1,-2
1517205260730366,-2,0,-1,0,-1,-3,-1,-1
1517205260730366,-1,-1,-2,-1,0,-1,-1,0
1517205260737369,0,-1,-2,-1,-1,-2,0,-1
1517205260737369,-2,-3,-1,-1,-1,-1,-1,0
1517205260753380,-1,-1,0,-1,0,0,-1,1
1517205260753380,0,0,1,-1,-2,-2,-2,-1
1517205260755384,-1,0,-3,0,-3,-1,1,-1
1517205260755384,-2,-2,1,-1,-1,0,-2,-2
1517205260776397,0,-3,-2,-2,1,1,-2,-1
1517205260776397,0,0,0,-1,-1,-1,0,0
1517205260777898,1,-2,-1,-1,-2,-1,-2,-1
1517205260777898,-2,-1,-2,-2,0,-1,-1,-2
1517205260790406,-2,-1,0,0,0,-2,0,-2
1517205260790406,-2,-2,-1,-1,0,0,-1,-1
1517205260797426,-2,-2,-1,-2,-1,-1,0,-1
1517205260797426,-1,0,-1,-1,-1,-1,-1,-1
1517205260813432,0,-1,-2,-1,-1,-1,-1,0
1517205260813432,-1,-1,0,-1,-1,-1,-3,-2
1517205260815423,-1,-2,0,-2,-2,-1,0,-1
1517205260815423,0,0,-2,0,-2,-2,0,-1
1517205260835941,-3,0,0,-1,-2,-1,-1,-2
1517205260835941,-1,0,-1,-1,-3,-2,-2,-2
1517205260837439,-1,-1,0,-2,-1,-2,-1,-1
1517205260837439,-2,-2,-2,0,-1,-2,-1,0
1517205260850461,-1,-1,-1,-1,-1,0,0,-1
1517205260850461,-1,-1,0,-1,-2,-1,0,-1
1517205260857455,-1,-2,-1,1,0,-1,0,-2
1517205260857455,1,-1,0,0,0,-2,-1,0
1517205260873465,-2,-1,-1,-1,-2,0,0,-1
1517205260873465,-1,0,-2,-2,-1,-1,0,-1
1517205260875466,0,1,-1,-1,-1,0,-2,0
1517205260875466,-1,-1,-1,-2,0,-1,-1,0
1517205260895990,-1,-2,-2,-1,-2,0,-3,-1
1517205260895990,0,-2,-1,-1,-2,-1,2,0
1517205260897482,-1,-1,-2,-1,-1,-1,-1,-3
1517205260897482,-3,-1,1,-1,-2,0,-1,-1
1517205260909994,0,-2,0,-1,-1,-2,-1,-2
1517205260909994,-2,-1,-1,0,-2,0,-1,-1
1517205260918507,1,-1,-2,0,-2,0,0,1
1517205260918507,-3,-2,-1,-2,-2,0,0,1
1517205260933507,-1,-2,-1,1,-2,0,0,0
1517205260933507,-1,-2,-2,-1,-1,-1,2,1
1517205260936009,-3,0,1,-3,0,-2,-2,-2
1517205260936009,0,1,-1,0,-1,-1,-1,-3
1517205260956524,-1,-2,-1,0,-1,-3,-3,0
1517205260956524,0,-1,-2,0,0,-1,-1,-1
1517205260958025,0,-1,-1,-2,0,-3,0,-1
1517205260958025,-2,-2,0,-1,-1,0,0,-1
1517205260969536,-2,0,-1,-2,-1,-1,0,0
1517205260969536,-1,-1,-2,-2,-2,0,-3,0
1517205260978546,-2,-1,-2,-1,-2,-1,0,0
1517205260978546,2,0,-1,-1,-1,-2,-3,-1
1517205260993549,-1,-1,-1,-1,0,0,1,0
1517205260993549,-2,0,-1,-1,0,1,-1,-2
1517205260995050,-2,0,0,-1,0,-3,-1,0
1517205260995050,0,-2,-3,-2,-1,-3,0,0
1517205261016080,-1,-1,-1,-1,-2,-2,-1,-2
1517205261016080,-2,-3,-1,0,-1,-1,-1,0
1517205261017577,0,-1,-2,-1,-1,-2,-1,-2
1517205261017577,-2,0,0,-2,-1,0,-1,0
1517205261029575,-2,1,-1,-1,-1,-2,0,-1
1517205261029575,-1,-1,-2,-1,-2,-3,-2,-2
1517205261038582,-1,-2,-1,-1,-1,1,0,0
1517205261038582,-1,-2,-2,0,0,0,-3,-1
1517205261053595,0,-1,-1,-2,-2,0,-1,-2
1517205261053595,2,-2,0,-2,0,0,-1,-1
1517205261055100,-2,-1,0,0,-2,-2,-1,-1
1517205261055100,-1,0,-2,1,-2,-1,0,-1
1517205261076112,0,-1,-2,-1,-1,-1,-1,-2
1517205261076112,-2,-1,-2,0,-1,-2,1,-2
1517205261077609,-1,-2,-3,-2,-1,-2,-3,0
1517205261077609,0,-3,0,-2,-1,0,-2,-2
1517205261090119,0,-1,-2,-1,-1,-1,-3,-1
1517205261090119,-1,-1,-2,-2,-1,-2,-1,-1
1517205261098634,-1,-2,-1,1,-1,1,0,-1
1517205261098634,-1,-3,0,-3,-1,-2,0,-1
1517205261113634,-1,-2,-2,-1,0,0,0,-1
1517205261113634,-4,0,-2,-1,0,-1,-3,-2
1517205261115148,-1,0,-2,-1,-1,-2,-2,-3
1517205261115148,-2,-2,-3,0,-1,-2,-1,-3
1517205261136190,-1,-1,-1,-1,0,-1,-1,1
1517205261136190,-1,-1,0,-1,-1,-1,-1,0
1517205261137702,0,-2,0,0,-1,-2,-1,-1
1517205261137702,0,-2,-2,-2,0,0,0,0
1517205261149697,0,-1,-1,0,-1,-1,-1,-1
1517205261149697,-1,-1,0,-2,-1,-1,0,-1
1517205261158709,-1,0,0,-1,-1,0,0,-1
1517205261158709,-1,-2,-1,-1,-1,-1,-1,0
1517205261173717,0,-2,-3,-1,-1,-2,-1,0
1517205261173717,1,-2,-2,0,-3,0,-1,-2
1517205261175220,-1,-2,-2,-1,0,-2,-1,-1
1517205261175220,-2,2,-2,-1,-2,-1,-2,-1
1517205261196280,-1,-1,-1,-1,-3,1,-2,-1
1517205261196280,1,-1,-2,-1,-1,-3,-1,-1
1517205261197764,-2,-2,0,-2,-1,-1,-1,0
1517205261197764,-2,0,-1,-1,-2,-2,2,-2
1517205261209708,-2,1,-1,-3,0,0,-3,0
1517205261209708,-2,-1,-1,-1,0,-1,0,-1
1517205261218745,0,-1,-1,-1,-1,0,-1,-1
1517205261218745,0,-3,-2,-1,-2,-1,-2,-1
1517205261233740,-2,-2,-1,-1,-2,-2,0,-1
1517205261233740,0,-2,0,-1,-1,-1,0,-1
1517205261236227,-2,-1,-1,-1,-1,0,0,0
1517205261236227,-2,1,-1,1,-1,-2,-1,-1
1517205261256241,-1,0,-2,-1,0,-2,0,1
1517205261256241,-1,-1,0,-1,-2,-2,-1,-1
1517205261257746,0,0,-1,-1,0,-2,-1,-1
1517205261257746,0,-2,-1,-1,0,-1,-1,0
1517205261269750,-1,-1,-2,0,0,-2,0,-1
1517205261269750,-1,-1,-2,-2,-1,-2,-1,-1
1517205261278769,1,0,-3,-1,1,-1,-2,-1
1517205261278769,-1,0,-1,-2,-1,0,-1,-1
1517205261301296,0,-2,-1,-1,-2,0,-1,-2
1517205261301296,-2,-1,-2,-1,1,-1,-1,0
1517205261302789,0,-1,-1,0,-3,-1,-1,0
1517205261302789,-1,-1,-1,-1,0,-1,0,1
1517205261316298,-1,0,-1,-3,-1,0,-1,0
1517205261316298,-1,-1,-2,-1,-1,0,-3,0
1517205261317800,-2,0,0,-1,-1,-1,-2,-1
1517205261317800,-2,-1,-2,-1,-1,-1,-1,0
1517205261338299,-1,-1,-1,-1,-1,-3,-1,-1
1517205261338299,-1,-3,-1,-2,-1,-1,-1,-3
1517205261344803,-2,-2,-2,-1,-2,0,-1,0
1517205261344803,-2,0,-2,0,-1,-2,-1,-1
1517205261353810,-1,-1,1,0,-1,-1,0,-1
1517205261353810,0,-1,-2,-1,-2,-2,-1,-3
1517205261355326,-1,-2,-2,-3,0,-2,-1,-2
1517205261355326,1,0,0,-2,-1,0,-3,-1
1517205261376326,-1,-1,-3,0,0,-2,0,-1
1517205261376326,-1,-1,-1,-2,-1,-2,0,2
1517205261377841,0,-2,1,-1,-1,0,1,-1
1517205261377841,1,-2,0,0,-2,0,1,-2
1517205261398842,-1,-2,-1,-1,-1,-3,-1,-1
1517205261398842,1,-2,-1,-2,0,-1,-2,-1
1517205261400343,-2,-1,-1,-1,-1,-1,-1,-1
1517205261400343,0,0,-1,-1,-1,-2,-1,0
1517205261413865,-1,-2,-1,-2,-3,1,0,0
1517205261413865,-1,-2,-1,-2,-1,-1,0,-1
1517205261415390,-1,-1,0,-2,-3,-3,-2,-1
1517205261415390,1,-2,-3,-1,1,-1,0,0
1517205261435889,-1,-2,0,0,0,-1,-1,-1
1517205261435889,-1,-1,0,-1,0,-1,-2,1
1517205261437879,-1,0,-1,0,-1,-1,-2,-1
1517205261437879,-2,-1,-1,-1,0,-1,-1,-1
1517205261458887,-2,-1,-2,0,-1,-1,-1,-1
1517205261458887,-2,-1,-1,0,-2,2,-1,-2
1517205261460385,0,0,-1,0,0,-2,-2,-2
1517205261460385,-1,0,-2,-1,-2,0,0,-2
1517205261473894,0,-1,-2,-2,-2,-1,-1,-3
1517205261473894,0,0,-1,-2,-1,-2,1,-2
1517205261475417,-1,-1,-1,-2,0,0,-1,0
1517205261475417,0,-2,-1,-1,-1,-2,-1,0
1517205261495920,-1,0,0,-1,-1,0,-1,-2
1517205261495920,-1,-1,-1,0,-1,0,-1,-1
1517205261497411,-1,0,-1,1,-1,0,0,-1
1517205261497411,-1,1,-2,-1,-2,-3,-1,-2
1517205261518429,-1,-2,-1,-1,-2,-1,-1,1
1517205261518429,0,-2,-2,-1,-1,-1,-1,-1
1517205261520428,-1,-1,-3,-1,-2,-1,0,-1
1517205261520428,0,-2,-1,1,1,-1,-1,-1
1517205261532938,-1,-1,-1,-1,1,0,0,-1
1517205261532938,-1,-1,1,-1,-2,0,0,0
1517205261539442,-1,-1,-1,-1,-1,0,-1,0
1517205261539442,-4,-2,-1,-2,-2,-2,-2,-2
1517205261555952,-1,-2,-1,-2,-2,-1,-1,-2
1517205261555952,-1,-2,0,-1,-2,-1,-2,-1
1517205261557954,-1,0,-2,-1,0,-1,-2,0
1517205261557954,-1,0,0,0,-2,-1,-2,-1
1517205261578482,-1,0,0,-1,-2,-2,-1,-1
1517205261578482,-1,-1,-1,0,-1,-2,0,0
1517205261579970,-2,-1,-2,-1,1,0,2,-2
1517205261579970,0,-2,-2,-1,-1,-1,-2,0
1517205261592980,0,-1,-1,-2,-3,-1,-2,0
1517205261592980,-1,0,-1,-2,-1,-1,-1,-1
1517205261599515,-1,0,-2,-1,-2,-2,-1,-2
1517205261599515,-2,-3,0,-1,-1,-2,-1,-1
1517205261615996,0,-1,0,-2,2,-2,-1,-2
1517205261615996,-2,-1,0,-2,-3,-2,0,-1
1517205261617496,1,-1,1,-1,-1,0,0,-2
1517205261617496,0,1,-2,-2,-2,-1,1,-1
1517205261638521,-2,0,-1,0,0,-2,-1,1
1517205261638521,-2,-2,-2,0,1,0,0,-1
1517205261640013,0,-2,-1,-1,-1,0,-1,-2
1517205261640013,-1,-1,0,1,-1,-1,0,0
1517205261653025,-1,0,-2,1,0,0,-2,-2
1517205261653025,-1,0,-2,-1,0,-2,-1,-2
1517205261659526,-1,-2,1,0,-2,-1,-2,-1
1517205261659526,0,-2,-2,-1,-2,0,0,-1
1517205261676038,-1,-3,0,-2,-1,-1,-1,1
1517205261676038,0,-1,0,-1,-1,0,-1,0
1517205261677539,-1,0,-3,-2,-1,-1,0,-1
1517205261677539,0,0,-1,0,-2,-1,-2,-3
1517205261698567,0,0,-2,-1,0,-2,0,-2
1517205261698567,-2,-2,0,-1,-1,-2,-2,-1
1517205261700055,-1,-2,-1,0,-1,-2,0,1
1517205261700055,-2,-1,0,-1,-1,-1,-2,-1
1517205261713074,0,-1,0,-2,-1,-1,1,0
1517205261713074,-1,-2,-1,1,-1,-2,0,-2
1517205261719568,-3,0,-2,-1,-1,-1,-1,-2
1517205261719568,1,-1,-1,-1,-1,-1,-1,-2
1517205261736096,-2,-1,0,-1,-2,0,-2,0
1517205261736096,-2,1,0,-2,0,1,-2,0
1517205261737581,0,-1,-1,-1,-2,0,1,0
1517205261737581,0,-1,0,-2,-1,1,-1,1
1517205261758596,0,0,-1,0,-1,-1,-1,0
1517205261758596,-1,-1,-2,-1,-1,1,-1,-1
1517205261760099,-2,-1,-1,-1,0,0,-2,1
1517205261760099,-1,0,-1,-2,-1,0,-2,-1
1517205261773107,-2,0,0,-1,-2,-1,-2,0
1517205261773107,-1,1,0,-1,-3,-2,-1,0
1517205261779611,-1,-2,-1,-1,-2,-2,1,0
1517205261779611,0,-2,-1,-1,0,-2,1,0
1517205261796132,-1,-3,-2,1,0,-1,0,-1
1517205261796132,0,0,-3,-1,-1,-1,-1,0
1517205261797623,0,-1,1,0,-2,-1,-1,-1
1517205261797623,-2,-2,-1,-1,0,-1,-2,-2
1517205261818658,-3,-1,-1,0,-1,-1,-1,-2
1517205261818658,-1,-2,0,-1,0,-4,0,-2
1517205261820155,-1,-1,-2,0,-1,-1,-1,0
1517205261820155,-4,-1,-1,-1,0,-1,-1,0
1517205261832151,-1,1,-2,-1,0,-2,-2,-1
1517205261832151,-1,-3,-2,-1,0,-1,-2,-1
1517205261841156,0,-1,0,-2,-1,-1,-2,-1
1517205261841156,-1,-1,1,0,-2,-2,-2,-1
1517205261856165,-1,-2,-1,-1,-2,-1,1,0
1517205261856165,-2,-1,-2,0,-2,-1,1,0
1517205261857674,-2,-1,-1,0,0,-1,-2,-1
1517205261857674,-2,-2,-2,-1,0,-2,0,0
1517205261878682,-1,-2,-1,-2,-1,1,-1,-2
1517205261878682,-1,0,-2,-2,0,-3,-1,1
1517205261880187,-2,-1,-1,-1,-1,0,-2,-1
1517205261880187,-2,2,-1,0,-1,0,0,-1
1517205261901197,-1,0,0,-1,-1,0,-2,-1
1517205261901197,-1,-1,-1,-1,-2,-2,-1,-1
1517205261902714,-1,1,-1,-2,-1,-2,-2,-1
1517205261902714,1,-1,-2,0,0,-2,1,0
1517205261916208,-1,-1,-2,0,-2,-2,0,0
1517205261916208,-1,-1,-2,-2,0,-1,-2,-2
1517205261917723,-1,-1,-2,1,0,-1,-1,-2
1517205261917723,0,-1,-2,-2,-1,-1,-1,-2
1517205261938723,-1,0,0,-1,-1,-2,0,0
1517205261938723,-1,-3,0,-1,-1,0,-1,-2
1517205261940725,-1,-1,-1,-1,-1,-1,-1,-1
1517205261940725,0,-1,0,-2,-1,-2,-2,-2
1517205261952236,-2,-1,-1,-1,0,-1,0,-2
1517205261952236,-2,-1,0,0,-3,-1,-2,1
1517205261961239,0,-1,-1,0,-1,0,-2,0
1517205261961239,-1,-2,-1,-1,-1,-1,-2,1
1517205261976264,1,0,-1,-1,-2,-1,-1,-2
1517205261976264,-2,-2,0,0,-1,-1,0,-1
1517205261977751,-2,-1,-1,-1,-3,-1,0,0
1517205261977751,-1,0,0,-1,-1,-1,0,-1
1517205261998766,-1,-2,-2,-1,-2,-1,-4,0
1517205261998766,-1,0,-3,-1,-1,1,-1,-2
1517205262000277,-1,-1,-1,0,-2,-1,0,-2
1517205262000277,-3,-1,-3,-1,-1,0,-1,-2
1517205262012276,-1,0,-1,-1,-1,-3,0,0
1517205262012276,0,0,-2,-1,0,0,-1,-2
1517205262021282,-1,-1,-2,-2,-2,-1,-1,0
1517205262021282,-1,-1,-1,-1,-3,0,-1,-1
1517205262036292,-2,-2,0,0,0,-1,0,-1
1517205262036292,-2,0,-1,-2,-2,-1,1,-1
1517205262038294,0,1,0,-1,-2,-2,1,-2
1517205262038294,0,0,1,-2,-1,-2,-2,-2
1517205262058812,-1,-3,-2,-2,-2,0,-1,0
1517205262058812,-1,-2,-1,-1,-3,1,-1,0
1517205262060310,-2,-1,-1,-1,-1,-1,0,-1
1517205262060310,-1,-2,-2,0,1,0,0,-2
1517205262072338,0,0,0,-1,-1,0,-1,-2
1517205262072338,-1,-1,-1,-1,-2,-1,-3,-1
1517205262081338,0,-1,1,-3,-2,0,-2,0
1517205262081338,0,-1,-2,0,0,-2,-1,0
1517205262095864,0,-2,-2,-1,-1,-1,0,0
1517205262095864,-2,-1,-1,-1,0,0,-1,-2
1517205262097363,-1,-1,0,-2,-2,0,-2,0
1517205262097363,-2,-2,-2,-1,-2,-2,0,0
1517205262118371,-2,-1,-2,-1,0,-1,0,-3
1517205262118371,-1,-1,0,0,-1,-1,0,-1
1517205262120384,-2,-2,-2,0,-1,-1,0,-1
1517205262120384,-1,-1,0,-2,-2,-1,0,-2
1517205262131905,-3,-1,-1,-1,-2,-1,-1,-2
1517205262131905,0,-2,-2,-2,-1,0,-1,-2
1517205262141412,-1,-3,-1,0,0,-3,-2,-1
1517205262141412,-1,0,-1,0,-2,-1,0,0
1517205262156419,-1,-1,-1,0,-2,1,-1,-1
1517205262156419,0,1,0,-1,-2,-2,0,-2
1517205262157921,0,-2,-1,-1,-1,0,0,-1
1517205262157921,-1,-1,0,-2,-1,-1,-2,-1
1517205262178435,-2,-1,1,-2,0,-2,-2,1
1517205262178435,-1,-1,-1,-1,-1,-1,-1,1
1517205262179944,0,-1,-2,-1,-1,-1,-1,-1
1517205262179944,0,-2,-1,0,-3,-2,0,-1
1517205262192469,-1,-1,-2,-3,0,-1,0,-1
1517205262192469,-1,-1,-2,-2,-1,-2,-1,0
1517205262207510,1,0,-2,-2,0,0,-1,-2
1517205262207510,0,-1,-1,0,0,0,0,-1
1517205262216020,1,-2,-2,-1,-1,-2,0,-2
1517205262216020,-2,-1,-1,-2,-1,-2,-2,0
1517205262217518,-4,-1,0,-1,-1,-1,-1,-2
1517205262217518,-1,-2,-2,-1,-2,0,-1,-1
1517205262238532,-1,-2,-1,1,-1,0,-2,1
1517205262238532,-2,-2,-2,-2,-1,-1,-2,0
1517205262240033,0,0,0,0,0,-3,-1,1
1517205262240033,0,0,0,-2,0,0,-1,-1
1517205262252052,-1,-1,-3,0,-2,-3,0,-3
1517205262252052,0,-1,-1,-1,-2,-2,-2,-1
1517205262261048,-1,0,-1,-2,-2,-1,-1,0
1517205262261048,-2,-1,0,-1,0,-3,-3,0
1517205262276060,0,-1,0,0,0,0,0,-1
1517205262276060,-2,-2,-1,-1,1,0,0,-1
1517205262277559,-1,-1,-1,-2,-2,0,-2,-2
1517205262277559,0,-1,0,-3,0,-2,-2,0
1517205262298575,0,-1,-2,-2,-1,-1,0,-2
1517205262298575,0,2,-1,0,0,-2,-2,-1
1517205262300076,-3,-1,-1,-1,0,-1,0,1
1517205262300076,-1,-1,-1,1,-1,-1,-1,-2
1517205262321112,-2,-1,-1,-3,-1,-1,-2,0
1517205262321112,0,-2,-1,-1,0,-1,0,0
1517205262322592,-2,-1,-1,-1,-2,-4,-1,-2
1517205262322592,-2,-2,-1,-1,-1,-1,-1,-1
1517205262336102,-2,-1,0,-1,0,-2,1,-2
1517205262336102,-1,0,-3,-1,0,-2,-2,-2
1517205262338103,-1,1,-2,0,0,0,0,0
1517205262338103,0,-1,-1,-1,-2,-1,-1,0
1517205262358620,-1,-1,0,-1,-3,-1,0,1
1517205262358620,-2,-2,-1,-1,1,0,-1,0
1517205262360118,-1,-3,-2,-1,-1,-2,-1,-1
1517205262360118,0,-2,-1,-1,-1,-1,-2,-2
1517205262381148,-1,-1,0,0,-1,-2,-1,0
1517205262381148,0,0,-2,-2,-4,-2,0,-2
1517205262382644,0,-1,-2,1,0,-1,-2,-1
1517205262382644,-1,-1,-1,-2,0,-1,-2,-1
1517205262396143,0,-2,-2,-1,0,0,0,-3
1517205262396143,-1,-1,-1,0,-1,0,1,-1
1517205262397657,0,-1,-1,-2,-1,1,-1,-2
1517205262397657,-3,0,-1,-3,-3,0,0,-1
1517205262418680,-3,-2,-1,0,0,0,-1,-1
1517205262418680,0,-2,-1,-1,-2,-2,0,0
1517205262420185,-1,-2,-2,-1,-3,0,0,-1
1517205262420185,-1,-2,-2,0,0,-1,-2,-1
1517205262441176,-1,1,-1,-2,-2,0,-2,-2
1517205262441176,-2,0,-1,-1,-2,0,-1,-2
1517205262442678,-2,-1,-1,0,-1,-1,-1,-2
1517205262442678,0,-2,-2,-1,-1,-2,1,-1
1517205262455207,-1,0,-1,0,-2,-1,-2,1
1517205262455207,-1,-2,-2,-3,-1,-1,-2,-1
1517205262462191,-1,-2,-1,-1,-1,-2,-1,-2
1517205262462191,-2,0,-1,-1,-2,-1,-1,-1
1517205262478711,0,-2,-3,-1,1,-1,-1,0
1517205262478711,-1,-2,-1,-1,0,0,-2,0
1517205262480213,-1,-1,-2,-1,-1,0,-1,-1
1517205262480213,-1,-1,-2,-1,1,-1,-1,0
1517205262500718,0,-2,-1,0,-1,-2,0,-2
1517205262500718,-1,-1,-2,0,-1,-1,-2,-2
1517205262502723,0,0,-2,0,-1,0,-1,-3
1517205262502723,-1,-1,-2,-2,-1,0,-1,-2
1517205262515231,-2,-1,-1,-1,-1,-2,-2,-3
1517205262515231,-3,-2,-2,-1,-1,0,-2,-1
1517205262522236,0,0,-1,-1,-1,-2,-2,-1
1517205262522236,0,0,-1,0,-1,-1,-1,-1
1517205262538745,0,0,-1,-1,-1,-2,0,0
1517205262538745,-3,-2,1,0,1,-1,-1,-1
1517205262540245,-2,-1,-1,-2,-1,-2,1,-1
1517205262540245,-3,-2,1,-1,-1,-1,-1,-2
1517205262560773,-1,-3,-2,-1,-1,-2,0,0
1517205262560773,-1,-1,-1,0,0,-1,-2,-1
1517205262562761,1,-1,-2,0,-2,-1,-2,1
1517205262562761,-2,-1,-1,-1,-1,-1,-1,-1
1517205262575828,-2,-1,0,-2,-1,1,-1,-1
1517205262575828,-1,-1,0,1,-3,-3,-2,-1
1517205262582343,-2,-2,0,-1,-1,-1,-2,0
1517205262582343,1,-2,-1,1,-1,0,0,-1
1517205262598351,-2,-2,-1,-1,-2,-1,-1,0
1517205262598351,0,-1,0,-2,-1,-1,1,-1
1517205262599835,0,-1,-2,-2,1,-1,-1,-1
1517205262599835,0,-2,-2,-1,1,-2,-2,-2
1517205262620864,0,0,-3,0,0,0,-2,-1
1517205262620864,1,0,-1,-2,0,0,-1,-1
1517205262622851,-2,-1,-1,-1,-2,-3,0,-2
1517205262622851,-1,-1,0,-1,-1,0,-1,0
1517205262635374,-1,-1,-1,-3,0,-2,0,-1
1517205262635374,0,-1,-2,-1,-1,2,-1,-2
1517205262642365,0,-1,-3,-1,1,-2,-1,-1
1517205262642365,-1,-1,-1,-1,-1,-1,0,-2
1517205262658876,0,-2,-1,-1,-2,-1,-1,-1
1517205262658876,-2,-1,-1,-1,-2,-2,-1,0
1517205262660388,0,-2,0,-2,-3,0,0,1
1517205262660388,-2,0,-1,-2,0,-1,-1,-1
1517205262680892,0,-3,-1,-1,-1,-2,-1,-2
1517205262680892,-1,1,0,-1,0,-1,0,-1
1517205262682393,0,-1,-1,-2,-2,0,0,-1
1517205262682393,0,1,-1,1,0,-2,-1,-1
1517205262695405,-1,-1,-1,0,0,0,-1,-1
1517205262695405,-1,-2,-2,-2,0,-1,-1,0
1517205262702410,-2,0,-2,-1,-2,0,-1,-3
1517205262702410,-2,1,0,-2,-1,0,0,-2
1517205262718422,-1,1,-1,-1,-3,0,0,-2
1517205262718422,0,0,-2,-1,-1,-1,-2,-2
1517205262720420,-3,-1,-1,-1,-1,2,-1,0
1517205262720420,-1,-3,-3,-2,-2,-2,0,-1
1517205262740938,-2,-2,-2,0,0,-1,0,-1
1517205262740938,-1,0,-1,-1,-3,-2,-2,0
1517205262742440,-1,-1,-1,0,0,-2,0,-1
1517205262742440,-1,-1,0,-1,-1,-1,0,-1
1517205262755457,-1,0,0,-2,-1,-1,-1,0
1517205262755457,-2,-3,0,-2,-1,-1,0,-2
1517205262761949,-1,0,-1,-2,-2,-1,-1,-2
1517205262761949,0,-3,-1,0,-2,-1,-1,-1
1517205262778473,0,-1,-1,-1,-1,-1,0,0
1517205262778473,-1,0,-1,1,1,0,-1,0
1517205262779966,-1,0,0,0,-1,1,0,0
1517205262779966,-1,-1,0,-2,-1,-3,-1,0
1517205262800989,-2,-1,-2,-2,-3,-2,-4,-1
1517205262800989,-1,-1,0,-1,-2,0,1,-1
1517205262802481,-2,-1,1,0,1,-2,0,-2
1517205262802481,-2,-1,-1,0,-1,-1,-2,-2
1517205262814497,-2,-1,-1,-2,0,-1,0,-1
1517205262814497,-1,-1,-1,-1,-1,-2,-1,0
1517205262823494,0,-2,-2,0,-2,-2,0,-1
1517205262823494,0,-1,-2,-1,0,1,-1,-2
1517205262838513,-1,-1,-3,-2,-1,-1,-1,0
1517205262838513,-1,0,-2,0,-4,-1,-1,-1
1517205262840006,-1,-1,0,-2,-1,-2,-2,1
1517205262840006,0,-1,-2,-1,0,0,0,1
1517205262861019,1,-2,-1,0,-1,1,-2,1
1517205262861019,0,0,-2,-2,0,0,-1,-2
1517205262862520,-1,0,-1,-2,-1,-1,-2,-3
1517205262862520,-2,0,-1,0,1,0,-1,0
1517205262875071,-1,-1,2,-1,-2,-1,1,-2
1517205262875071,-1,-1,0,0,-1,0,-1,1
1517205262883575,0,-2,-2,-1,-1,0,-1,-1
1517205262883575,-1,-1,-1,-1,-2,-2,0,-2
1517205262898586,0,0,0,-3,-1,0,-1,-1
1517205262898586,-1,-1,-2,0,0,-2,-1,-3
1517205262900087,0,0,-2,-2,-1,-1,0,-1
1517205262900087,-2,-2,-2,-2,-1,0,-1,0
1517205262921135,-2,-1,0,-1,-3,-2,-1,-2
1517205262921135,-2,-2,-1,-3,-1,0,-1,-1
1517205262922633,-1,-1,-1,-2,-1,0,-1,1
1517205262922633,0,0,-2,-2,-2,-4,-3,0
1517205262934614,0,-2,-1,-1,0,-2,-1,-2
1517205262934614,0,-2,-1,-2,1,-1,-1,-1
1517205262943620,0,-3,-1,0,-2,0,0,0
1517205262943620,-2,-3,1,-1,-2,-1,0,-1
1517205262958638,-1,-1,-2,0,-2,1,-2,-1
1517205262958638,-2,0,-3,-2,-1,0,-1,-1
1517205262960130,-2,-2,1,-2,-1,-1,-1,-1
1517205262960130,0,1,-1,-1,-1,-1,-1,0
1517205262981144,-2,-1,-2,0,-1,0,-1,-2
1517205262981144,0,-2,1,-1,-2,-2,-1,0
1517205262982668,-1,-1,-2,0,-1,-2,-1,0
1517205262982668,-1,-2,-1,0,-2,0,0,0
1517205262994656,-1,-1,0,1,0,-2,1,-2
1517205262994656,-2,-1,0,-1,-1,0,0,0
1517205263010165,-1,-2,-1,-1,0,-1,0,0
1517205263010165,0,0,-2,-2,-1,-1,-3,-1
1517205263018681,0,-1,0,-1,-1,-1,-1,0
1517205263018681,-1,-1,-2,-2,-2,-1,-1,-1
1517205263020181,0,0,-1,0,0,-1,-2,-2
1517205263020181,0,-3,-1,-1,-2,0,-2,-1
1517205263041206,-2,1,-2,-3,-1,-1,-1,0
1517205263041206,-1,-1,-2,1,-1,0,-1,1
1517205263042710,-1,-1,-2,-3,-1,0,0,-2
1517205263042710,0,-2,-1,1,-1,-2,0,-2
1517205263054739,-1,-1,-2,-1,-2,-2,-1,0
1517205263054739,0,0,1,-1,-1,-1,-1,-1
1517205263063738,-1,0,-1,1,-1,-2,-2,-1
1517205263063738,0,0,0,0,-1,0,0,-2
1517205263078742,-1,-2,-2,-1,-1,0,-2,0
1517205263078742,-2,-2,-2,0,1,-3,0,-2
1517205263080234,-1,0,-2,-1,-2,-2,-1,0
1517205263080234,-2,-2,-2,-2,-3,-1,-2,-2
1517205263100763,0,-1,-1,-1,-2,-2,-1,-1
1517205263100763,0,-2,-1,-2,-2,0,-2,0
1517205263102771,-1,-2,-1,-3,-2,-1,-1,0
1517205263102771,-1,0,1,-2,-2,0,-1,-1
1517205263114773,0,-1,-1,-1,0,-2,-1,0
1517205263114773,0,-2,0,0,-2,-2,-2,-2
1517205263123792,-1,-1,-2,-1,-2,0,-2,-1
1517205263123792,0,-1,-1,-1,0,-1,-1,-2
1517205263138299,-1,-1,0,0,-2,-1,-1,-2
1517205263138299,0,0,-1,0,1,-2,0,0
1517205263140300,-2,0,-1,0,0,-1,0,-2
1517205263140300,0,0,-1,-2,0,-1,0,0
1517205263161319,-1,-2,0,-2,-1,-1,-1,-1
1517205263161319,-1,1,-2,-1,-1,-1,1,-1
1517205263162317,-2,0,-2,-2,-1,0,-1,-1
1517205263162317,-2,-1,0,0,-1,-1,-1,-2
1517205263174838,-2,0,-2,0,0,-1,-1,1
1517205263174838,-2,-3,-3,-2,-1,0,-1,0
1517205263183853,-3,-1,-2,0,-2,0,-1,-2
1517205263183853,-2,-1,-1,-3,0,-2,-1,1
1517205263198357,1,-1,-1,-2,-3,-1,0,0
1517205263198357,-2,-2,-2,0,-1,-1,-2,-2
1517205263199843,1,2,-4,-1,-1,-3,0,-1
1517205263199843,0,-1,0,0,-2,0,-2,-1
1517205263220861,-1,-1,-1,0,0,-1,-1,-2
1517205263220861,0,1,0,-2,-2,-1,-2,-1
1517205263222358,0,-1,2,-2,0,0,-3,-1
1517205263222358,-2,-1,-2,-1,-2,-1,-1,-1
1517205263243878,-1,0,-2,-1,-1,-3,0,-1
1517205263243878,-2,-1,0,0,-1,-2,0,0
1517205263244874,0,-3,0,0,0,0,-1,-1
1517205263244874,-2,0,-4,-2,-2,-2,0,-2
1517205263258885,-2,-1,1,-1,0,0,-1,-2
1517205263258885,-1,-1,0,-1,-1,0,-2,-2
1517205263259885,0,0,-1,-3,0,-1,-1,-3
1517205263259885,1,-1,-1,-1,1,-2,-2,-1
1517205263280913,1,0,-2,1,-1,1,1,0
1517205263280913,-3,0,-1,-2,-2,1,-1,0
1517205263282414,-3,0,0,-1,-1,0,-1,0
1517205263282414,-1,-3,0,0,-2,-1,-1,-1
1517205263303431,-2,-2,-1,-1,0,-1,-2,-1
1517205263303431,1,-1,-1,0,-2,-2,0,-2
1517205263304918,0,-3,-1,-1,-1,1,0,-1
1517205263304918,-2,-2,-2,1,-2,-1,2,0
1517205263318426,-2,0,-1,-2,0,-2,-1,-1
1517205263318426,0,0,-2,-2,0,-2,0,-2
1517205263324932,0,-1,-2,-1,-2,-3,0,0
1517205263324932,-2,0,-2,-4,-1,-1,-1,-1
1517205263340943,0,-2,-2,-1,0,1,-2,-2
1517205263340943,-2,-1,-2,-3,-1,-2,-2,0
1517205263342447,-1,-1,-1,-2,0,-1,0,-1
1517205263342447,-1,-1,0,-1,-1,-1,0,-1
1517205263362958,-2,-1,-1,0,-1,0,-2,-2
1517205263362958,1,-2,-2,1,-1,-2,-2,-1
1517205263369463,-1,-2,-1,-1,-2,-1,-3,-1
1517205263369463,0,-1,0,-1,0,0,-1,-2
1517205263377971,-1,-1,-2,-2,-1,-1,1,-1
1517205263377971,-1,-1,0,-1,0,-2,0,-2
1517205263384509,-2,-1,-2,-1,-1,0,-2,-2
1517205263384509,-1,0,0,-1,-1,-1,0,0
1517205263400988,-1,-1,-1,0,0,-1,0,1
1517205263400988,-1,-2,-2,-2,-2,0,0,-1
1517205263402486,0,0,0,-1,-1,-1,-1,-3
1517205263402486,0,0,-1,-2,-1,-2,-1,0
1517205263423502,0,0,-3,-1,0,-3,-2,-1
1517205263423502,-3,-1,-3,-1,0,-1,0,0
1517205263425007,-1,-1,0,1,-2,-1,-1,0
1517205263425007,-2,-2,-2,-1,-2,0,-1,-2
1517205263438011,-2,-1,1,-1,-2,-1,-1,0
1517205263438011,-1,0,-1,-1,-1,-2,-1,-1
1517205263444531,1,-1,-1,-1,0,-3,1,-1
1517205263444531,2,-2,-1,0,2,0,0,-2
1517205263461029,-4,0,0,-1,-3,-1,-1,-1
1517205263461029,-2,0,-2,0,-2,0,-1,-2
1517205263462529,-1,-2,-1,-1,-1,0,-2,-1
1517205263462529,0,-1,-2,0,-1,-2,-1,0
1517205263483544,-1,-1,-2,0,-1,0,-1,-2
1517205263483544,-3,-2,1,0,0,-2,-1,0
1517205263485060,-2,1,-1,-1,-3,-1,-1,0
1517205263485060,-1,0,-2,0,0,-2,-3,0
1517205263497053,-2,-2,0,-3,-3,-1,-2,-1
1517205263497053,-2,0,-1,-1,-2,-2,0,-2
1517205263506060,-1,-1,-2,-1,-1,-2,-1,-1
1517205263506060,-2,-2,-1,-1,-2,-1,-2,0
1517205263521085,-1,0,1,1,0,-1,-1,0
1517205263521085,2,0,-1,-1,-1,0,0,-1
1517205263522595,-1,-1,-1,-1,-1,-2,-2,-2
1517205263522595,-3,-1,-1,-1,-2,0,-2,-2
1517205263544587,-1,-2,-2,-2,-1,-1,-1,0
1517205263544587,1,-2,-2,-2,-1,-2,-1,-1
1517205263545587,0,-1,-1,-1,-1,-1,0,0
1517205263545587,-1,2,-3,-2,-1,-2,-1,0
1517205263558152,0,-1,-1,-1,-1,-2,-1,0
1517205263558152,-2,-1,-1,-2,0,-1,0,-2
1517205263564654,0,0,-2,0,-1,0,-2,-1
1517205263564654,-2,0,-1,-4,-2,0,-1,-2
1517205263581196,1,-1,-2,-2,0,-2,-1,-2
1517205263581196,-1,-1,0,-1,-1,-1,-2,0
1517205263582713,-1,-1,-1,-1,0,0,1,-1
1517205263582713,0,-2,0,-1,-1,-1,0,-1
1517205263603215,0,1,-1,-2,-1,-1,-2,-1
1517205263603215,-2,-2,1,0,-2,-2,0,-1
1517205263605214,-2,0,-2,-2,0,-1,-1,-3
1517205263605214,-2,-1,-1,-2,-2,-1,0,-2
1517205263617722,0,-2,-3,-1,-1,0,-1,-1
1517205263617722,-1,0,-3,0,-1,0,-1,0
1517205263632247,-2,-1,-1,-1,-1,-1,0,0
1517205263632247,-1,0,0,0,-1,-1,0,0
1517205263641239,-2,0,-2,0,-1,-3,1,0
1517205263641239,-1,-1,-2,-3,-2,0,-2,-2
1517205263642744,-3,-1,-1,-1,-1,0,0,-2
1517205263642744,-1,-2,0,0,-2,-2,-1,-1
1517205263663756,-1,2,-3,-1,-3,0,-2,0
1517205263663756,-2,0,0,1,-1,-1,0,-1
1517205263665760,1,0,-1,-2,0,-2,-2,-1
1517205263665760,-1,0,-3,-2,-1,-2,1,-2
1517205263677767,-2,-3,0,-2,-2,0,-2,-2
1517205263677767,0,-2,-1,-1,0,0,-1,-1
1517205263684772,-2,-2,-2,0,-2,-2,-1,-1
1517205263684772,0,-1,-1,-2,-1,0,-1,-1
1517205263700785,-1,-2,-2,0,0,-1,-1,-1
1517205263700785,-2,-1,0,0,1,-2,-2,-1
1517205263702782,0,-2,0,0,-1,1,-2,-2
1517205263702782,-1,-3,-2,-1,-2,-1,-2,-1
1517205263723798,-2,-6,4,-1,1,1,0,-2
1517205263723798,0,0,-2,-2,-1,1,0,-2
1517205263725304,-1,0,-2,-3,0,-3,1,1
1517205263725304,-3,-1,-1,-1,0,-2,0,0
1517205263737307,-1,0,-1,-2,0,-1,-1,-1
1517205263737307,-1,-1,-1,-2,-1,-2,-1,0
1517205263746313,0,-2,-1,-1,-1,0,-1,-3
1517205263746313,0,0,0,-1,-1,-1,0,1
1517205263760824,-1,0,-1,-2,-2,-2,-1,-2
1517205263760824,0,-1,-1,-1,-2,-1,-1,-1
1517205263762826,-1,0,0,-1,-3,0,0,-1
1517205263762826,1,-1,1,-1,0,-1,-1,1
1517205263783340,-2,-2,-4,-5,-3,-4,-1,0
1517205263783340,0,-1,0,-1,0,-1,-1,0
1517205263784841,-2,-1,-2,0,0,-2,-2,0
1517205263784841,-2,1,-4,-1,-2,-2,-2,-2
1517205263796861,0,-3,1,-1,0,0,0,1
1517205263796861,0,-1,-2,0,-2,-2,1,-2
1517205263806359,-4,-1,0,0,1,0,2,-1
1517205263806359,-1,0,-1,2,-1,-1,-2,0
1517205263820869,0,2,-4,-1,-1,-2,-2,-3
1517205263820869,0,3,-3,-2,0,-2,-1,0
1517205263822367,2,1,-2,-3,-1,-1,-1,1
1517205263822367,0,-4,1,-1,-1,-1,0,-2
1517205263843890,-3,-2,1,-1,-2,-1,0,-1
1517205263843890,-1,-4,3,1,-2,0,0,0
1517205263844883,1,1,-1,0,-1,-2,-3,-2
1517205263844883,-1,-1,-2,-3,-1,-1,0,0
1517205263857393,3,0,0,1,-2,-3,-2,0
1517205263857393,-6,-3,-2,-1,-1,-2,-2,-3
1517205263865899,-1,-2,-3,1,-2,-1,-1,-1
1517205263865899,-1,-1,-1,-1,-2,1,-1,-2
1517205263881423,1,10,-5,-1,-3,-1,-3,-4
1517205263881423,0,-3,0,-1,0,-1,-1,0
1517205263882910,0,-1,-2,-4,-2,-5,-1,-1
1517205263882910,5,-5,6,2,0,-2,0,4
1517205263903439,-2,1,-3,0,-1,-1,-1,-2
1517205263903439,-1,-2,-4,-1,-1,-2,-2,0
1517205263904926,0,-5,7,1,0,1,2,2
1517205263904926,0,4,-5,-5,-2,-3,-2,-3
1517205263916956,-1,-7,1,0,0,-1,1,2
1517205263916956,-3,0,0,-2,-2,0,-3,-4
1517205263925941,-1,-4,-2,-2,-1,0,0,1
1517205263925941,-3,-2,-2,1,-2,-1,-2,0
1517205263940951,0,-4,7,-1,0,0,0,-1
1517205263940951,0,-1,-3,-2,0,-2,0,-1
1517205263942453,0,1,-1,1,-1,-1,1,-1
1517205263942453,-2,-2,1,-2,-1,0,0,-1
1517205263963467,-4,-10,-16,-2,-1,1,0,-1
1517205263963467,-1,1,-10,-4,-1,-1,-1,0
1517205263965004,-4,0,0,-3,-1,-1,-3,-3
1517205263965004,-1,0,2,1,0,0,2,0
1517205263976977,0,2,2,0,-2,0,1,2
1517205263976977,-1,-2,0,-2,-1,-1,-1,1
1517205263985983,0,-6,2,3,-1,1,0,1
1517205263985983,-2,1,-2,0,1,0,-2,-4
1517205264000993,1,-2,-3,-3,-2,-3,-4,-4
1517205264000993,5,2,-1,0,-2,0,1,2
1517205264002504,-11,1,-1,-1,-2,-3,-3,-3
1517205264002504,-13,-4,-1,-5,-3,-1,0,3
1517205264023510,2,-1,-3,0,0,0,-2,-11
1517205264023510,0,-2,6,1,-1,-2,-1,-2
1517205264025013,5,3,1,4,1,0,1,0
1517205264025013,-2,-3,-5,-4,0,-1,-3,-2
1517205264037022,2,1,-1,-4,-1,-1,-1,3
1517205264037022,-5,0,-1,-4,1,-1,1,-3
1517205264046025,6,-7,3,2,-2,-1,0,2
1517205264046025,-2,0,-5,3,-1,-2,2,-1
1517205264061036,-9,-5,2,-2,-4,-2,-2,0
1517205264061036,8,4,-1,4,2,1,-3,-10
1517205264062542,-9,-1,-12,-7,-2,1,0,0
1517205264062542,1,2,11,1,-3,-4,-3,-5
1517205264083564,-9,-11,-7,-1,0,0,0,0
1517205264083564,9,2,-1,-2,-3,0,2,9
1517205264085053,3,3,-1,-2,-2,-2,-1,-4
1517205264085053,6,2,-9,2,-2,-2,-2,3
1517205264097061,-1,8,-1,-4,-1,-1,0,-1
1517205264097061,-4,-4,3,0,0,0,-1,2
1517205264106068,6,10,-5,2,1,-1,-4,0
1517205264106068,-1,0,-4,-2,-3,-1,-3,-2
1517205264121579,-6,7,2,1,-1,-2,-3,-4
1517205264121579,-8,-5,-8,-3,-2,-2,-1,1
1517205264123080,-4,-2,2,2,2,-1,-2,-8
1517205264123080,3,-5,-2,-9,-2,-1,-3,-1
1517205264143595,-1,-6,-15,0,0,1,0,0
1517205264143595,-1,-6,5,0,-2,-3,2,-1
1517205264145096,-3,-4,4,-4,-3,-2,-4,5
1517205264145096,-4,-4,-12,5,1,1,1,-1
1517205264166111,12,3,11,2,1,-2,-1,2
1517205264166111,-4,4,-13,-3,-3,-4,-4,-3
1517205264167624,2,-2,1,0,-3,-2,5,7
1517205264167624,-18,-4,-9,-1,-1,1,-1,-14
1517205264181121,5,-5,2,-1,0,1,3,6
1517205264181121,0,10,9,3,0,1,-2,24
1517205264182623,-6,-13,-1,-3,-2,-2,-2,-32
1517205264182623,2,5,6,3,-1,-3,-1,5
1517205264203637,-9,-14,-6,-13,-4,-1,-2,-1
1517205264203637,8,3,8,3,1,0,-2,-8
1517205264205147,-14,-7,-14,-11,-3,-2,1,10
1517205264205147,7,-4,-1,-3,-3,-2,-10,-8
1517205264233657,2,1,3,5,2,-1,0,-3
1517205264233657,-8,3,-2,-1,-2,-1,1,10
1517205264236159,-3,-3,12,0,-2,-1,-6,-17
1517205264236159,4,-8,-23,1,2,2,4,3
1517205264241164,-2,6,16,1,0,-3,-1,-5
1517205264241164,12,-1,-8,-4,-3,2,1,3
1517205264242665,7,12,2,4,2,-1,1,6
1517205264242665,-6,-8,8,-6,-4,-2,1,1
1517205264263683,3,19,-6,0,-2,-2,-1,19
1517205264263683,-2,-25,-13,-3,0,0,2,-30
1517205264265193,3,5,11,2,-2,-2,-6,0
1517205264265193,-2,5,7,0,1,0,0,4
1517205264286195,4,9,-11,-3,-3,-3,3,2
1517205264286195,-18,-10,-3,-9,-2,-1,-10,-17
1517205264287706,1,-4,-20,-9,-2,-1,-2,9
1517205264287706,7,6,11,2,0,0,2,-7
1517205264300705,-2,-3,7,4,1,1,0,7
1517205264300705,-3,10,-2,0,-3,-2,-1,2
1517205264302717,4,-11,4,5,0,-2,-5,-6
1517205264302717,1,11,1,-5,-3,1,3,12
1517205264323722,-3,-3,11,8,3,-1,3,-19
1517205264323722,1,3,-8,4,-1,-2,5,0
1517205264325224,-12,-14,2,-6,0,3,-5,3
1517205264325224,8,9,-1,1,-2,-6,-9,-14
1517205264345737,16,-3,-4,-3,-1,-1,-10,-9
1517205264345737,-17,-3,7,2,-1,-2,-3,12
1517205264347739,2,5,1,3,2,3,7,0
1517205264347739,-12,-20,-5,-3,-2,-1,2,-7
1517205264360248,11,23,9,-2,-4,-5,-5,4
1517205264360248,5,-7,4,-1,2,-1,3,4
1517205264367279,-21,3,-5,-3,-3,-1,6,14
1517205264367279,1,-4,12,5,1,-2,-7,6
1517205264383274,2,-8,-37,-7,-1,4,1,-20
1517205264383274,-1,-24,-4,-10,-1,-1,-5,-22
1517205264385265,-4,14,28,10,1,-4,-20,-20
1517205264385265,13,-6,-31,-9,-2,2,6,11
1517205264405789,-12,28,17,9,-1,-3,1,12
1517205264405789,-4,-27,-14,-6,-3,3,3,53
1517205264407781,10,-12,-22,-8,-5,-8,-6,-50
1517205264407781,-1,3,25,9,3,3,9,16
1517205264420290,-4,27,1,1,-3,-5,-21,-29
1517205264420290,-2,-7,-40,-6,-2,0,9,11
1517205264427295,0,19,24,-7,1,-1,-27,-18
1517205264427295,19,4,5,-1,-2,0,29,42
1517205264443307,-40,-77,-72,-14,-3,-4,-9,4
1517205264443307,2,22,28,-1,-3,-5,5,-49
1517205264444808,11,8,10,5,1,4,22,54
1517205264444808,-14,-4,-16,-4,-2,-1,-15,-60
1517205264465851,13,12,9,3,0,0,-5,3
1517205264465851,-5,-1,20,9,1,-2,-1,19
1517205264467324,0,15,-9,-6,-1,3,14,-2
1517205264467324,-11,-8,-38,-6,-1,-5,-10,-8
1517205264480382,17,11,61,14,4,2,17,3
1517205264480382,-22,-13,-28,-9,-2,-2,-6,10
1517205264486887,-1,0,4,9,-1,-4,7,20
1517205264486887,-1,3,9,-8,1,4,13,55
1517205264503399,-13,10,21,5,-2,-4,-26,-42
1517205264503399,25,-20,-15,-22,-3,-1,-1,-13
1517205264504900,14,18,-5,0,0,0,2,-6
1517205264504900,2,-12,26,16,4,2,0,27
1517205264526415,-24,-9,-6,-1,1,2,7,-13
1517205264526415,16,35,37,-2,-3,-3,2,11
1517205264527415,0,-52,-34,1,1,-1,-3,5
1517205264527415,4,-3,-17,-15,-4,-4,-9,-13
1517205264540425,27,-22,2,5,4,0,12,37
1517205264540425,-13,4,21,25,3,0,1,22
1517205264546936,-8,2,-10,-44,-9,-7,2,-59
1517205264546936,-8,1,-32,6,1,-6,-16,-40
1517205264563441,-23,-6,9,-7,0,5,10,1
1517205264563441,23,55,45,14,2,1,15,40
1517205264564942,-21,-74,-65,-4,-4,-3,-9,-26
1517205264564942,-4,9,14,15,0,-4,-14,-14
1517205264586022,2,-3,43,-24,-3,1,4,9
1517205264586022,24,11,-52,3,0,-2,-18,-40
1517205264587468,10,25,40,11,-3,0,14,55
1517205264587468,-1,-13,-1,-8,0,2,17,28
1517205264600494,-5,-8,-42,-15,-7,-6,-25,-50
1517205264600494,-8,11,22,0,-2,0,-3,-41
1517205264607015,3,-3,-10,4,-2,-7,6,0
1517205264607015,-5,0,-3,-8,-1,0,-7,9
1517205264623511,-4,-27,3,6,-1,-3,-18,-29
1517205264623511,12,-9,-16,12,5,8,1,-31
1517205264625013,-9,-22,-21,-7,-2,-4,-10,8
1517205264625013,13,7,73,8,-2,-1,17,7
1517205264646026,-16,-9,-83,-16,-3,1,16,6
1517205264646026,-9,-62,-68,-4,-5,-9,-9,-2
1517205264647529,19,54,23,-1,2,3,0,20
1517205264647529,-20,-32,-38,11,1,-4,1,-19
1517205264660037,4,2,-1,2,2,5,18,39
1517205264660037,-1,59,75,-12,-8,-5,-16,-6
1517205264668544,9,-1,-33,19,3,3,1,20
1517205264668544,-24,-26,-9,-35,-6,-3,-21,-35
1517205264685054,0,19,25,17,0,-6,1,5
1517205264685054,-21,-4,-9,-22,-5,-4,3,-8
1517205264686568,-6,13,19,-8,1,4,9,13
1517205264686568,-26,0,-18,-12,-4,0,-5,-1
1517205264705568,-2,15,79,23,-2,-7,-9,-12
1517205264705568,-2,-25,-63,-8,0,-1,4,16
1517205264706069,4,-45,-33,-9,-1,-2,15,54
1517205264706069,2,13,61,17,4,2,-23,-95
1517205264728587,-9,-21,-51,-13,-7,-6,6,43
1517205264728587,10,3,23,5,0,-1,-6,-20
1517205264729086,3,5,6,-15,-11,-8,-19,-25
1517205264729086,14,13,5,7,3,2,16,5
1517205264742596,13,10,46,11,-1,-1,-6,-12
1517205264742596,-13,-33,-66,-12,-1,-3,-3,23
1517205264743596,7,8,24,4,0,-3,-7,-31
1517205264743596,12,59,90,32,3,2,7,35
1517205264765114,-7,-25,-95,-35,-8,-2,-7,-38
1517205264765114,30,18,-5,-6,-4,2,-8,22
1517205264766111,-25,43,86,23,9,2,-8,-3
1517205264766111,2,-43,-95,-5,-4,-3,18,48
1517205264788645,8,-14,32,15,3,1,2,0
1517205264788645,-7,13,-12,17,7,4,-3,-25
1517205264789146,-22,-16,-2,-10,-4,-1,4,3
1517205264789146,7,-19,-30,10,0,-1,-11,2
1517205264802678,39,72,31,3,7,7,17,29
1517205264802678,-50,-18,3,-17,-9,-5,4,-4
1517205264803672,14,28,-53,2,1,1,-2,11
1517205264803672,0,-18,-9,-11,-2,-2,8,-2
1517205264825172,-6,0,30,10,1,0,-24,-38
1517205264825172,-3,-1,25,10,3,-4,-8,-4
1517205264826187,-31,-27,-30,-5,-3,-2,-1,-32
1517205264826187,17,6,-13,-23,-9,-7,-1,29
1517205264848691,-27,13,-47,-13,-9,-6,3,58
1517205264848691,10,38,87,15,2,-4,-11,-81
1517205264849188,1,-59,-51,-2,-3,-1,-1,15
1517205264849188,13,31,6,-5,-2,-2,-8,-11
1517205264862698,12,-8,-2,-10,-1,-1,18,62
1517205264862698,9,2,-19,-9,-1,2,3,-16
1517205264863709,-10,11,67,-4,-7,-6,-10,-32
1517205264863709,-22,-28,-43,-19,-5,-3,-9,-43
1517205264885214,13,36,26,13,4,5,14,54
1517205264885214,-5,15,-13,14,7,0,-7,-20
1517205264886215,11,-41,36,7,4,-1,-3,-15
1517205264886215,-6,28,5,-5,-3,3,6,21
1517205264908732,-25,-81,-81,-12,-7,-4,9,49
1517205264908732,3,-10,15,-25,-10,-9,-20,-62
1517205264909233,18,31,-14,10,2,1,-14,-19
1517205264909233,-8,-10,-13,14,5,-2,-6,8
1517205264922757,39,3,35,2,2,-2,-10,-32
1517205264922757,-15,-24,-62,3,0,0,3,-9
1517205264923741,0,26,17,13,-1,-2,12,28
1517205264923741,1,1,-6,-19,3,3,-12,-2
1517205264945263,17,35,29,6,-3,-4,-4,-46
1517205264945263,-22,-84,-29,-15,-3,-4,10,82
1517205264952762,-7,31,-70,1,1,-6,-12,-21
1517205264952762,3,-26,5,1,-1,-3,12,7
1517205264959768,-20,22,-26,-14,-5,-6,-24,-55
1517205264959768,17,-31,17,16,4,4,1,33
1517205264967776,-21,-6,-16,-6,1,5,9,22
1517205264967776,26,22,68,15,2,3,0,9
1517205264982783,-29,-91,-25,-11,-3,-3,-10,-44
1517205264982783,-5,59,4,1,-4,-1,11,46
1517205264983784,17,13,-12,-10,-4,-6,-33,-89
1517205264983784,-8,3,6,1,4,0,-2,-6
1517205265005327,0,1,-4,-6,0,2,7,30
1517205265005327,38,7,-37,0,0,6,29,62
1517205265006299,-1,10,60,17,6,3,-16,-44
1517205265006299,-17,-16,-57,-9,-8,-6,-18,-27
1517205265028330,-8,-11,14,10,8,7,17,9
1517205265028330,-7,0,28,-1,-7,-6,-13,6
1517205265029317,-37,-40,11,2,-1,0,17,64
1517205265029317,5,35,13,-5,1,1,27,24
1517205265042827,5,23,-4,-6,-2,-1,-34,-32
1517205265042827,-15,-22,30,13,5,0,-5,2
1517205265043827,-2,2,-18,-23,-7,-5,13,-9
1517205265043827,22,26,91,32,7,2,1,30
1517205265065843,-8,-27,-13,-12,-2,0,0,-6
1517205265065843,-13,18,-2,13,-2,-6,-8,-19
1517205265066344,7,39,59,5,0,-2,-3,-10
1517205265066344,-8,-6,-15,-26,-5,2,5,1
1517205265088358,-5,10,3,9,-4,-7,0,-11
1517205265088358,-13,23,62,4,4,1,4,44
1517205265089358,19,-4,71,32,6,4,-8,-14
1517205265089358,8,7,-1,-9,-6,-3,-14,-9
1517205265102883,8,34,26,-22,-6,-3,3,25
1517205265102883,7,22,-55,-6,1,-1,-5,-49
1517205265103369,0,-2,-54,-8,0,4,20,47
1517205265103369,-18,-6,5,1,-6,-6,-17,-42
1517205265125392,3,-3,0,32,11,11,41,54
1517205265125392,11,-4,3,-23,-2,3,-3,-16
1517205265125887,12,-52,-49,-10,-1,0,-8,-42
1517205265125887,-3,-7,6,0,-7,-8,-17,-30
1517205265148400,1,22,25,1,4,5,18,30
1517205265148400,26,-44,-34,-2,-2,-2,-8,6
1517205265149401,4,-10,-13,7,4,2,-7,5
1517205265149401,-26,-45,-3,-14,-1,1,26,45
1517205265162910,7,2,72,22,-2,0,-16,-52
1517205265162910,-5,28,5,-5,3,5,25,75
1517205265163411,-4,38,47,-5,-6,-7,-33,-27
1517205265163411,15,-21,-36,-3,-2,-4,-10,-54
1517205265185426,-4,2,10,6,3,-1,-4,4
1517205265185426,-12,-88,-25,-7,-6,-4,-19,-54
1517205265185927,8,-7,35,20,6,5,27,49
1517205265185927,10,1,-65,-11,-4,-4,5,22
1517205265208944,13,24,36,-6,-8,-7,-7,11
1517205265208944,-7,-1,-11,16,3,-2,-13,-87
1517205265209444,-14,17,31,-28,-7,1,17,30
1517205265209444,8,17,-27,22,3,3,-1,9
1517205265222954,-6,-13,-42,-31,-5,-5,-11,-18
1517205265222954,-2,15,25,-15,-1,4,23,39
1517205265223455,-25,10,-42,-11,-7,-9,-16,-4
1517205265223455,-15,16,-2,-8,-5,-2,-5,-4
1517205265245472,-15,-3,-16,13,3,1,-1,12
1517205265245472,1,20,39,12,1,-2,-7,16
1517205265245972,5,-25,-69,-19,-7,-2,-5,-31
1517205265245972,-11,21,66,8,0,-3,-1,3
1517205265268507,-36,-61,-45,-14,-10,-5,-9,-40
1517205265268507,-2,32,27,14,0,-2,-3,-13
1517205265268989,5,13,34,-14,1,-1,8,-12
1517205265268989,17,-12,-14,19,7,3,-6,-5
1517205265282499,22,33,4,-29,-8,-8,-13,-17
1517205265282499,-16,-9,44,12,-4,0,1,-12
1517205265283499,5,24,41,9,1,-1,5,43
1517205265283499,-26,-45,7,3,1,1,-15,-58
1517205265305017,4,13,-2,6,4,2,19,26
1517205265305017,9,23,4,-4,2,2,8,-2
1517205265306041,-13,-57,21,5,-1,-3,2,61
1517205265306041,16,33,-28,-5,1,2,0,-62
1517205265328531,-2,-40,10,15,-1,-5,-32,-46
1517205265328531,22,-35,-8,-17,-7,-5,-8,18
1517205265329031,-44,-13,-79,-1,2,2,1,-6
1517205265329031,-7,4,-77,-16,-8,-6,1,26
1517205265343041,3,-3,7,2,2,2,3,-18
1517205265343041,-10,14,-24,-19,-5,-2,-3,-3
1517205265343552,28,-20,-70,6,0,4,13,-7
1517205265343552,-14,23,34,12,2,-2,-14,16
1517205265365557,-11,-29,-12,7,3,3,8,11
1517205265365557,-5,23,44,4,1,-5,-14,0
1517205265366058,1,-27,-66,-13,-10,-8,8,29
1517205265366058,10,1,57,1,5,0,5,-53
1517205265388573,-7,-18,-12,-49,-18,-12,-12,-8
1517205265388573,-11,-32,-33,7,0,0,-5,6
1517205265389074,8,54,55,13,2,-1,-9,30
1517205265389074,-26,-49,8,-6,-1,3,1,-4
1517205265402623,-15,4,-14,6,2,0,-4,19
1517205265402623,-10,0,-4,1,-2,-2,19,-36
1517205265403597,-16,-14,23,-1,-5,-5,-11,-49
1517205265403597,22,16,-28,-13,-8,-3,11,66
1517205265425599,17,18,52,11,6,4,3,4
1517205265425599,-1,7,-59,-2,-6,1,5,36
1517205265426114,10,26,35,-3,6,-1,-27,-77
1517205265426114,-1,7,0,7,3,4,17,49
1517205265448616,-7,-30,-28,5,0,-1,-24,-68
1517205265448616,-6,37,40,-2,-4,-2,-3,16
1517205265449116,8,2,58,12,0,0,4,23
1517205265449116,1,17,48,-5,2,0,3,-16
1517205265462626,5,-17,37,15,0,2,7,22
1517205265462626,-3,-26,-44,-20,-4,-4,-3,17
1517205265463627,11,-2,4,14,5,2,18,14
1517205265463627,9,25,37,-11,-8,-4,-5,-28
1517205265485145,-18,-11,-75,13,7,3,14,8
1517205265485145,6,18,80,4,1,-3,-20,-30
1517205265486143,-34,-35,-16,-12,-14,-3,-1,15
1517205265486143,16,-10,-84,-6,1,-1,-3,-2
1517205265508659,9,55,0,7,4,-1,-5,18
1517205265508659,-50,-80,-13,-13,-8,-4,-1,-18
1517205265509163,15,-6,12,-1,0,-1,-3,-15
1517205265509163,6,37,41,6,3,5,3,24
1517205265522683,-22,-20,-59,0,-3,0,12,31
1517205265522683,12,-16,6,6,4,2,3,25
1517205265523724,0,26,-20,-9,-3,0,1,-1
1517205265523724,-31,-31,1,10,-3,-10,-2,18
1517205265545685,12,-9,-7,-14,-3,-1,-9,-45
1517205265545685,13,49,0,3,3,3,12,11
1517205265546187,2,1,-4,-15,-9,-9,3,-9
1517205265546187,10,-37,45,10,8,6,11,20
1517205265568700,-23,16,-21,-5,-3,3,5,18
1517205265568700,8,16,74,4,-3,-5,-4,-9
1517205265569225,6,3,23,12,6,3,1,-15
1517205265569225,-9,-22,18,-7,-3,0,-13,31
1517205265582715,30,60,35,7,3,1,6,5
1517205265582715,-15,-71,-47,-8,-2,-3,2,13
1517205265583724,-9,22,17,37,7,3,-8,-9
1517205265583724,-19,-5,63,-46,-12,-8,-14,-12
1517205265605228,0,-54,-48,-8,0,0,-7,9
1517205265605228,18,50,23,10,2,5,7,24
1517205265606252,-5,-1,11,-20,-6,-1,-8,10
1517205265606252,14,56,32,31,8,7,1,29
1517205265628745,-18,38,9,-21,-15,-16,-26,-80
1517205265628745,-13,-104,-28,9,4,0,2,5
1517205265629243,34,60,85,5,1,2,4,-25
1517205265629243,-12,-4,-65,-31,-10,-5,9,20
1517205265642757,-1,-7,-33,-3,-3,0,19,12
1517205265642757,-10,49,50,13,2,1,-13,-18
1517205265643754,31,12,-53,-14,-5,-1,3,3
1517205265643754,-10,-19,-46,8,-1,-4,-5,-4
1517205265665292,-4,-10,68,9,4,2,8,45
1517205265665292,-14,-2,-69,-25,-7,-5,-17,-51
1517205265666269,-10,-61,-36,-21,-8,-2,12,54
1517205265666269,-4,24,40,14,0,-3,-27,-96
1517205265688285,18,-25,9,25,4,2,-1,9
1517205265688285,8,38,29,-12,-1,1,-4,2
1517205265689286,3,-27,-77,9,8,0,-6,14
1517205265689286,-17,-11,-72,-24,-13,-8,-7,-5
1517205265702824,12,-6,53,32,10,4,5,37
1517205265702824,18,11,-5,-25,-4,0,20,-42
1517205265703796,-5,-22,47,3,-1,0,-5,7
1517205265703796,14,14,19,1,0,-1,11,34
1517205265725313,-5,5,-39,-3,-2,-1,1,-1
1517205265725313,6,17,-96,-4,-4,-3,9,52
1517205265726313,8,41,46,1,-1,0,5,-9
1517205265726313,19,-5,-39,-9,-1,1,-15,-9
1517205265748338,-1,9,-8,-20,-9,-7,0,1
1517205265748338,-23,9,29,-3,1,0,-5,-20
1517205265749329,-19,24,30,9,2,2,16,49
1517205265749329,34,-19,17,6,-2,-6,-22,-43
1517205265762487,1,-8,-9,-23,-10,-6,-18,-14
1517205265762487,12,17,25,29,7,4,5,7
1517205265770503,2,5,-39,-38,-8,-6,-7,-22
1517205265770503,-21,-5,50,20,6,9,36,67
1517205265785004,-4,-17,-19,4,1,-4,-25,-42
1517205265785004,39,4,-6,7,0,3,6,-29
1517205265786003,-41,-23,-19,4,0,-3,-7,13
1517205265786003,-10,10,17,12,1,-1,-2,-15
1517205265808538,12,5,40,-15,-6,-4,5,-4
1517205265808538,-37,-2,-95,-6,-3,-5,0,61
1517205265809038,17,7,25,6,2,1,-12,-94
1517205265809038,8,55,53,-1,-7,-6,6,7
1517205265822547,-5,-23,-33,-21,-3,3,8,25
1517205265822547,-12,-11,21,25,9,4,6,8
1517205265830052,16,-9,-2,-21,-9,-7,-15,14
1517205265830052,0,-34,-25,27,10,4,3,4
1517205265845071,3,42,19,-10,-3,0,-2,-18
1517205265845071,5,-19,23,25,1,-4,-13,-22
1517205265846063,-22,0,0,-16,1,1,4,-27
1517205265846063,12,-19,-28,-4,2,3,19,77
1517205265868582,1,-48,-19,6,-1,1,12,-12
1517205265868582,-1,-9,-22,-28,-12,-7,-13,-23
1517205265869080,-9,-5,19,15,5,3,6,26
1517205265869080,-7,-14,-49,-5,-2,-2,-20,-53
1517205265882089,-29,-14,6,-3,3,0,1,34
1517205265882089,3,12,38,14,0,-5,-20,-23
1517205265890094,-4,-29,-86,-6,-4,-3,-3,-8
1517205265890094,11,57,12,-6,-4,-6,7,4
1517205265905127,-9,-25,20,15,1,-3,-16,1
1517205265905127,-2,8,-78,-40,-8,-3,-14,-29
1517205265906126,21,-1,-18,0,1,-2,-3,28
1517205265906126,-36,-42,-8,22,9,4,-9,-24
1517205265928621,-6,11,-11,-18,-9,-5,1,-8
1517205265928621,23,19,67,4,-2,1,17,48
1517205265929122,24,-2,-38,-10,1,1,-8,-22
1517205265929122,-19,-22,-55,-21,-9,-6,15,39
1517205265942131,17,40,52,41,9,3,-7,-66
1517205265942131,-14,-26,4,-21,-3,-3,-8,13
1517205265950147,1,-15,-25,-1,-7,-9,-5,8
1517205265950147,10,23,-54,-10,2,1,2,-12
1517205265965148,35,-16,6,-9,-2,-2,-14,27
1517205265965148,-24,-14,-37,14,3,-1,-4,-18
1517205265966170,13,27,98,2,-1,-2,16,14
1517205265966170,5,-58,-20,-6,-2,0,10,-5
1517205265988664,7,28,-35,-16,-1,-2,5,31
1517205265988664,29,32,60,13,1,1,-2,-15
1517205265989165,-10,-55,-7,13,7,3,4,9
1517205265989165,-12,16,12,0,-9,-6,-9,23
1517205266002194,-5,-18,-59,-16,0,0,8,-25
1517205266002194,3,3,53,13,5,2,-10,-26
1517205266017712,-28,-44,-98,-20,-9,-4,-6,-4
1517205266017712,3,34,122,15,4,2,-4,-26
1517205266025190,-6,-14,-15,1,-1,-2,9,58
1517205266025190,6,26,19,6,-2,-3,-5,-21
1517205266026191,-17,-18,-41,7,-1,0,-2,-22
1517205266026191,4,-3,0,-38,-4,-2,-7,-10
1517205266048219,15,58,58,16,1,1,3,15
1517205266048219,-49,-41,12,-16,-9,-7,10,4
1517205266049217,35,32,24,2,3,3,-2,-27
1517205266049217,13,11,43,10,0,0,-4,16
1517205266070722,-15,23,23,6,-2,-4,1,17
1517205266070722,8,1,28,16,5,3,2,5
1517205266071723,-10,2,47,-2,-2,0,22,44
1517205266071723,-4,0,-44,-17,-5,-4,-11,-9
1517205266085235,-7,2,23,20,3,-1,-1,-32
1517205266085235,6,-38,-50,-4,1,2,2,-17
1517205266086233,-10,0,15,-25,-9,-4,-10,-2
1517205266086233,38,3,21,18,3,1,9,80
1517205266108249,-8,-3,-10,-3,-2,-4,-6,-12
1517205266108249,3,-9,-54,-9,-1,-1,-12,-6
1517205266109250,-13,13,38,27,6,0,-11,-29
1517205266109250,-9,-20,-29,-31,-9,-3,-5,-19
1517205266130765,-19,-26,-57,7,2,1,10,14
1517205266130765,8,4,-24,-23,-11,-5,-4,12
1517205266131765,29,25,21,-1,-4,-2,11,29
1517205266131765,-16,-25,2,8,-1,-3,-12,-30
1517205266145276,-7,8,-54,-8,-2,-1,5,-11
1517205266145276,20,13,45,-13,0,-1,8,30
1517205266146281,-25,5,-15,23,3,1,-4,-14
1517205266146281,-20,-41,-67,-8,3,1,-1,-18
1517205266168306,-6,-18,65,-2,-1,-1,14,50
1517205266168306,19,-4,-21,-3,-1,1,-16,-39
1517205266169292,16,37,63,11,1,1,9,8
1517205266169292,-18,18,2,6,3,3,-2,-22
1517205266190807,2,4,60,10,6,2,-23,-12
1517205266190807,-13,-18,-26,2,1,-2,9,33
1517205266191808,0,5,8,-8,-2,-2,-10,-18
1517205266191808,-20,-35,-37,5,-4,-3,-9,-30
1517205266205337,8,19,28,-15,-1,4,10,15
1517205266205337,15,3,31,1,-2,-5,-8,-3
1517205266205818,-25,-25,12,4,1,1,4,32
1517205266205818,-2,-6,-17,2,-5,-6,-12,-66
1517205266228835,-13,-9,-14,-18,-7,-1,-5,-16
1517205266228835,-11,-19,2,13,6,3,-9,4
1517205266229835,25,-10,-74,-28,-7,-5,-8,-14
1517205266229835,17,12,37,15,6,3,8,26
1517205266250851,11,22,10,-1,-2,-1,7,11
1517205266250851,-1,49,20,5,2,3,11,-6
1517205266251852,14,-19,28,3,-1,-1,-2,-8
1517205266251852,-24,-26,-80,-14,-5,-6,7,36
1517205266265359,5,-17,72,18,2,-3,-24,-57
1517205266265359,10,30,38,10,3,3,38,68
1517205266265861,-26,-63,-92,-26,-15,-11,-39,-78
1517205266265861,8,-16,109,-26,-2,0,0,17
1517205266288876,0,3,-41,12,0,-1,-1,11
1517205266288876,-22,-51,-21,-13,-1,1,6,4
1517205266289877,-23,3,-51,10,3,-2,3,12
1517205266289877,-7,19,26,-4,-5,-3,-8,-30
1517205266310892,3,-36,-9,0,0,3,-3,23
1517205266310892,-13,-10,3,20,2,-6,-12,-34
1517205266311892,11,30,10,-1,2,-2,-12,-18
1517205266311892,-13,-17,23,-9,-8,-6,-12,-20
1517205266325402,-2,10,-32,-13,-5,-3,15,78
1517205266325402,3,38,51,9,-4,-5,-26,-103
1517205266325904,0,22,6,-2,0,1,8,43
1517205266325904,27,-1,-16,-5,-2,0,5,16
1517205266348449,-6,10,10,-7,-6,-5,-2,-17
1517205266348449,4,-2,19,7,-1,-2,-4,20
1517205266348948,-12,-4,-34,-13,-4,-1,6,-11
1517205266348948,18,13,-46,18,6,1,-3,-1
1517205266370979,2,5,19,1,1,-2,3,-10
1517205266370979,31,3,-9,-10,-3,0,-2,31
1517205266371464,-5,-37,42,-4,-3,-5,1,-39
1517205266371464,-5,-7,-75,-11,-3,-1,-2,10
1517205266384977,2,-6,-40,-4,-2,1,3,-14
1517205266384977,-2,9,-19,9,4,-1,8,23
1517205266385975,-1,5,16,0,-2,-2,-10,-28
1517205266385975,0,-25,15,11,7,3,12,22
1517205266408492,-4,27,-10,-34,-7,-4,-7,-19
1517205266408492,-12,-10,-50,-15,-4,-2,-8,-8
1517205266408996,6,10,13,13,6,5,12,41
1517205266408996,1,3,10,18,2,-4,-12,-40
1517205266431041,6,-11,-16,12,0,2,-2,-15
1517205266431041,-23,11,-21,-17,-4,-3,1,9
1517205266431542,-6,7,-13,-11,-3,-2,6,50
1517205266431542,8,-40,-71,-19,-5,-5,-19,-63
1517205266445551,-4,-3,28,9,3,2,9,10
1517205266445551,-5,1,15,7,-4,-4,13,34
1517205266446053,-1,-13,27,-18,3,2,-12,-37
1517205266446053,-29,9,63,-4,-10,-4,3,27
1517205266468588,19,-47,-43,-1,-1,-4,-4,11
1517205266468588,5,12,-18,1,0,4,5,-56
1517205266469068,-25,13,76,17,1,-3,2,32
1517205266469068,12,1,7,-5,1,3,17,33
1517205266491084,-7,25,7,8,3,-1,-7,-31
1517205266491084,-7,-57,0,2,-1,1,2,52
1517205266491584,39,2,23,15,4,2,3,-54
1517205266491584,-45,18,-24,-25,-6,-6,-16,-7
1517205266504620,-4,5,67,26,5,2,4,8
1517205266504620,-8,14,-30,-24,-3,0,13,18
1517205266512626,-2,33,-28,-12,-11,-5,-22,-27
1517205266512626,2,-5,-63,5,1,2,8,15
1517205266528649,1,-12,-8,-7,1,0,-8,-21
1517205266528649,-34,-21,-4,13,-3,-3,-5,14
1517205266529638,-4,-6,-9,-20,1,2,10,19
1517205266529638,8,27,65,25,7,5,4,7
1517205266551163,-5,1,-80,-30,-14,-8,-11,-17
1517205266551163,1,-10,-16,-3,2,1,4,29
1517205266551665,5,11,-21,13,2,-3,0,6
1517205266551665,6,11,95,-2,-3,-3,-6,-13
1517205266565177,-48,-32,-91,-12,-4,-3,2,12
1517205266565177,-4,-24,13,-7,-3,-4,-14,-20
1517205266566179,9,13,10,16,2,3,7,14
1517205266566179,5,38,81,13,3,0,7,17
1517205266588192,23,4,22,-2,-2,1,-4,5
1517205266588192,6,54,45,6,1,4,12,-16
1517205266589192,-47,-66,-44,-19,-9,-8,-12,21
1517205266589192,5,-23,27,15,2,1,0,0
1517205266611212,-3,0,43,18,4,1,-7,-30
1517205266611212,32,-5,-54,-32,-2,-1,6,28
1517205266611697,16,42,28,16,0,0,9,27
1517205266611697,3,-14,-32,0,0,-2,-5,6
1517205266625209,8,20,53,11,2,0,5,-13
1517205266625209,-29,7,24,-1,-5,-6,-23,-9
1517205266626207,-26,-27,-47,-4,4,4,0,6
1517205266626207,-11,-6,-31,-11,-7,-5,-1,0
1517205266655749,5,20,45,-4,3,-2,2,3
1517205266655749,-28,18,80,7,-3,-4,-4,-27
1517205266656750,18,-18,-99,0,-1,0,-4,-3
1517205266656750,-15,0,42,6,5,3,4,2
1517205266670754,12,-10,-95,-17,-8,-3,4,43
1517205266670754,-2,-14,-11,-12,-3,0,-1,-6
1517205266671757,21,12,20,5,-5,-8,-11,-58
1517205266671757,-10,16,-1,-10,-4,0,15,38
1517205266684762,12,-17,63,5,0,-2,-3,27
1517205266684762,9,41,25,-1,-1,0,0,-16
1517205266692760,18,4,-6,10,2,1,2,22
1517205266692760,-27,-1,-4,16,5,1,-6,-18
1517205266708776,-12,-15,-29,0,-3,-3,-16,-24
1517205266708776,4,-10,15,-13,-1,1,6,16
1517205266709271,6,20,12,-20,-2,-5,-10,1
1517205266709271,19,20,26,16,4,3,19,60
1517205266730803,-24,-4,-37,-16,-9,-7,-33,-74
1517205266730803,3,-45,-81,13,4,-3,-4,-4
1517205266731797,-9,15,59,3,1,3,6,18
1517205266731797,0,-19,-22,-16,-9,-7,-13,6
1517205266744791,-8,-3,11,7,4,1,1,-13
1517205266744791,31,33,16,13,2,-3,-5,-16
1517205266752796,-21,-18,-39,-19,-5,-2,4,-2
1517205266752796,23,-6,-22,4,-3,-3,-3,-17
1517205266768306,3,15,34,9,2,-1,5,27
1517205266768306,-8,0,26,-5,-3,0,-10,-53
1517205266769322,-9,-30,-21,-1,-2,-1,5,12
1517205266769322,-1,6,-4,13,6,5,-2,-26
1517205266790822,-2,-13,-23,-14,-2,-3,3,10
1517205266790822,9,-21,-52,-8,-5,-4,12,15
1517205266792326,4,22,16,-8,-3,0,0,20
1517205266792326,7,-1,15,-1,-2,0,-6,-19
1517205266813339,-5,15,-21,4,-1,-2,3,-13
1517205266813339,-10,-7,36,-7,1,1,2,24
1517205266814850,-8,1,49,12,1,0,-1,-5
1517205266814850,-1,-17,-14,-20,-6,-7,-6,-18
1517205266827359,3,-23,26,7,2,3,13,34
1517205266827359,11,29,21,6,1,-1,0,1
1517205266836373,-6,-27,-32,5,6,4,-7,-36
1517205266836373,0,37,-2,14,2,0,-2,-9
1517205266850907,41,30,74,5,-2,0,-2,5
1517205266850907,-62,-61,-94,-10,-9,-7,-19,-33
1517205266852413,22,12,43,-26,-3,1,18,20
1517205266852413,4,12,59,14,0,-4,-4,-6
1517205266864416,7,0,-58,-10,4,5,5,-14
1517205266864416,18,14,22,8,0,-4,-2,11
1517205266873458,6,4,19,10,-1,-2,-1,4
1517205266873458,-23,-29,-41,-26,-9,-7,6,4
1517205266895984,-10,30,47,-5,-8,-6,1,-9
1517205266895984,13,2,48,8,4,3,0,23
1517205266897476,-39,-48,-26,-1,-2,-1,9,-19
1517205266897476,2,19,29,21,2,-1,-12,-1
1517205266910997,-1,-32,-76,-26,-2,2,23,26
1517205266910997,13,-6,-24,5,0,-5,-27,-12
1517205266912486,6,36,63,6,0,1,7,27
1517205266912486,9,-5,-69,-14,-4,-1,-5,-19
1517205266924495,-19,14,33,14,2,0,-1,-18
1517205266924495,2,-23,-6,1,-1,0,12,23
1517205266933501,20,33,4,21,6,0,-5,-2
1517205266933501,7,-38,-53,-15,-4,-4,-5,-1
1517205266948511,23,20,22,-4,-4,-2,3,36
1517205266948511,-15,-45,-52,-28,-6,-1,1,-41
1517205266950053,4,-3,23,31,4,-1,-3,-6
1517205266950053,3,16,9,-12,-3,-1,-4,-13
1517205266971077,-4,15,28,-22,-7,-4,-6,11
1517205266971077,-9,27,39,8,-2,1,2,14
1517205266972593,-17,-23,-27,-15,-1,-3,-2,-6
1517205266972593,-5,-28,7,4,-1,0,10,19
1517205266984577,-7,-3,-9,-3,-4,-6,-20,-23
1517205266984577,6,17,17,3,0,-1,0,-18
1517205266993588,-10,5,-39,0,0,1,-2,16
1517205266993588,10,4,46,0,-7,-5,-6,-13
1517205267008594,-14,5,9,-19,-4,-3,-1,-2
1517205267008594,5,36,-18,15,8,0,9,20
1517205267010098,-4,-68,-21,2,-5,-5,1,-7
1517205267010098,-7,-1,-39,-5,-2,-2,-10,-15
1517205267030610,0,-13,-50,-4,2,3,1,0
1517205267030610,7,3,57,7,-3,-5,-9,8
1517205267032611,4,15,-6,-11,-7,-7,1,1
1517205267032611,-16,-27,-47,-6,1,2,1,3
1517205267053125,-29,10,56,21,5,1,-11,-24
1517205267053125,19,-3,-11,-19,-6,-1,8,10
1517205267055127,-6,28,16,-1,-2,-5,-15,21
1517205267055127,4,11,2,4,3,2,3,7
1517205267068162,4,14,36,19,4,-1,7,-3
1517205267068162,-12,10,17,3,2,3,-5,-31
1517205267070147,-33,-5,14,-15,-9,-5,1,2
1517205267070147,6,14,41,5,4,4,3,4
1517205267091153,1,-3,-74,-4,-6,-6,-5,4
1517205267091153,-22,-21,33,-5,-5,-1,5,13
1517205267092658,17,-8,-11,3,5,4,-1,-14
1517205267092658,20,65,64,8,4,4,6,8
1517205267113168,1,-51,-88,2,0,0,-2,10
1517205267113168,-13,-15,-64,-26,-10,-7,8,-57
1517205267114670,24,35,46,10,5,5,-1,15
1517205267114670,-14,-70,-71,-20,-6,-1,7,3
1517205267128184,-2,22,27,18,6,2,3,13
1517205267128184,-3,-6,25,4,1,4,-1,5
1517205267129681,-16,21,-8,4,0,-1,6,-4
1517205267129681,6,9,28,-2,-2,-4,-3,-3
1517205267150726,-15,-25,-47,-21,-7,-1,8,16
1517205267150726,2,-23,-73,15,5,2,-8,5
1517205267152727,8,1,7,1,0,2,0,-29
1517205267152727,-3,-12,29,-29,-7,-6,0,21
1517205267173257,-18,9,26,-8,-1,-1,0,-9
1517205267173257,16,9,-39,-3,0,-3,-6,3
1517205267174744,0,-25,-24,-2,-7,-7,2,23
1517205267174744,18,-4,0,17,4,1,-4,-2
1517205267187812,11,-20,-44,-12,-4,0,2,-21
1517205267187812,-1,-11,26,17,5,2,2,22
1517205267194817,-7,21,38,15,3,2,0,-11
1517205267194817,-20,-22,-87,-30,-6,-4,-4,-27
1517205267210829,5,-12,45,22,0,-4,-10,7
1517205267210829,15,26,-18,-26,-1,3,8,5
1517205267212338,-16,-26,-22,-3,-4,-4,-21,-20
1517205267212338,1,17,13,15,1,1,-3,-12
1517205267233343,8,-11,-7,9,5,8,2,3
1517205267233343,14,41,58,4,-7,-11,-3,2
1517205267235859,-16,-31,3,-16,-2,-1,-8,-13
1517205267235859,16,29,14,19,2,3,4,3
1517205267247855,-23,-9,-80,-23,-2,-4,12,16
1517205267247855,-16,6,36,9,3,3,-6,7
1517205267254370,20,-10,-68,1,1,4,6,22
1517205267254370,11,17,70,3,-2,-1,-7,-22
1517205267270873,16,-43,23,11,0,-2,3,-7
1517205267270873,-30,22,0,3,3,3,7,-2
1517205267272371,17,-16,13,3,-3,-2,-2,10
1517205267272371,7,6,-13,-7,5,2,-2,4
1517205267293388,34,27,27,12,0,-2,-4,2
1517205267293388,-6,-11,31,-16,-8,-4,-1,18
1517205267294890,5,14,-26,-4,1,-1,-15,-43
1517205267294890,2,34,-4,1,3,1,8,22
1517205267307896,-22,-32,20,-3,-3,-3,-12,-25
1517205267307896,9,14,-32,2,0,1,18,30
1517205267314400,-10,-12,34,-8,-2,-4,-15,-21
1517205267314400,-31,39,-31,-19,-5,-3,-7,3
1517205267330995,-4,5,5,11,4,1,-8,-15
1517205267330995,4,-20,7,1,2,0,1,1
1517205267332469,8,24,-20,8,1,3,10,11
1517205267332469,-8,-29,-63,-3,-4,-4,-7,-15
1517205267353497,11,18,28,3,-2,-1,-3,13
1517205267353497,-2,-15,43,2,1,1,-6,-3
1517205267354994,5,18,-20,-18,-4,-3,12,7
1517205267354994,-17,-25,-41,9,2,2,0,-3
1517205267367497,0,15,45,14,3,-2,-8,5
1517205267367497,15,-22,6,-6,-2,-5,-10,-17
1517205267374499,7,-7,40,20,7,6,7,13
1517205267374499,-20,-15,-78,-26,-12,-6,-10,-3
1517205267391011,-6,-1,43,1,-1,0,1,-8
1517205267391011,-17,-20,-79,-6,1,-1,-7,-4
1517205267392521,3,11,39,1,3,1,13,-9
1517205267392521,-11,-20,0,6,-1,-2,1,15
1517205267413528,23,18,9,3,0,-1,4,-6
1517205267413528,-30,-51,-9,6,1,1,-11,-16
1517205267415029,5,20,-40,-10,-8,-6,-3,16
1517205267415029,-3,-23,47,-28,-5,0,0,-6
1517205267428039,-15,16,-13,-12,-4,-1,1,-8
1517205267428039,24,34,-36,10,-1,-1,0,8
1517205267434541,-6,4,-9,-17,-2,-2,-3,-1
1517205267434541,-30,-2,71,21,0,-5,10,-4
1517205267450582,-6,1,-24,-6,2,0,-6,-3
1517205267450582,11,-11,-41,-10,-5,-3,-1,32
1517205267452571,0,-9,19,9,2,1,-14,-56
1517205267452571,-19,26,18,10,1,0,9,-12
1517205267473621,-13,-52,11,-7,-4,-4,-7,4
1517205267473621,5,24,24,-9,-1,-2,-1,2
1517205267475108,0,25,17,9,1,2,8,27
1517205267475108,11,-46,-81,-10,-6,-3,-20,-12
1517205267488117,-24,25,-13,2,0,-1,-4,-15
1517205267488117,-5,-8,31,1,-2,0,0,-16
1517205267494624,-1,-43,-36,-11,-4,-4,3,25
1517205267494624,31,-17,-51,-14,-5,-2,-3,-4
1517205267510634,-21,30,9,11,2,-1,-2,6
1517205267510634,0,-27,-32,-29,-5,-5,-6,-17
1517205267512636,-24,16,37,4,3,3,5,23
1517205267512636,5,-19,-30,5,-2,-3,-15,-43
1517205267533649,15,-18,-28,-8,-7,-2,6,-10
1517205267533649,23,29,-9,-5,3,4,14,18
1517205267536151,-16,9,-16,1,-2,-1,-8,-9
1517205267536151,13,20,68,8,3,-1,17,22
1517205267547160,-5,-59,-30,-14,-5,-1,8,-2
1517205267547160,-14,30,-9,13,0,-1,-7,10
1517205267556175,13,7,-37,-14,-1,-1,-14,-23
1517205267556175,18,24,15,10,-2,-2,3,32
1517205267571186,10,31,30,-6,2,1,-10,-7
1517205267571186,-8,-7,46,21,5,1,5,-1
1517205267572697,-11,-54,-69,-16,-10,-7,-5,13
1517205267572697,-11,19,72,14,10,4,-1,-36
1517205267594206,10,25,14,5,3,1,3,20
1517205267594206,11,-21,-58,-8,-6,-4,-6,-38
1517205267595693,18,8,55,9,2,-1,4,20
1517205267595693,-23,-7,24,8,3,2,-6,4
1517205267607222,2,1,35,-21,-5,-1,-1,10
1517205267607222,-15,-36,-68,-4,-4,-4,-11,-26
1517205267616207,2,-23,-10,7,2,2,9,8
1517205267616207,14,10,27,-1,-1,2,-2,8
1517205267630718,1,-15,-35,-16,-6,-6,-6,2
1517205267630718,1,0,6,15,4,1,3,19
1517205267632734,-23,-12,22,3,-2,-1,-14,-50
1517205267632734,3,-1,4,-7,-1,-4,10,52
1517205267653251,-18,38,21,2,-6,-1,-10,-68
1517205267653251,-15,-45,-51,-11,-3,-1,-5,-26
1517205267655238,15,29,20,-2,-1,2,10,19
1517205267655238,-7,14,4,2,-1,-1,-8,-12
1517205267666766,12,3,-24,-9,-5,-6,0,6
1517205267666766,-2,-18,71,16,5,1,6,19
1517205267676252,-25,36,-40,4,1,0,-2,-4
1517205267676252,34,7,-8,-1,1,0,4,7
1517205267690799,6,-32,0,-6,2,0,0,14
1517205267690799,-22,21,37,8,0,-2,-5,-16
1517205267692302,10,-29,61,-8,2,0,-4,6
1517205267692302,10,1,-38,-3,-4,0,7,10
1517205267713341,-11,25,-86,-5,-2,0,-11,-10
1517205267713341,9,19,52,4,1,1,3,23
1517205267714850,6,-9,-12,-6,-1,-2,-10,-38
1517205267714850,-17,-30,-6,6,0,4,7,7
1517205267727861,10,9,10,8,0,-1,-6,-11
1517205267727861,-9,9,-70,-25,-11,-5,-6,-14
1517205267736858,2,6,21,-1,-2,-4,3,32
1517205267736858,-5,11,-18,-11,-6,-3,1,-1
1517205267750876,4,5,36,26,7,2,2,4
1517205267750876,14,27,-14,-31,-6,-3,-11,-7
1517205267752370,-17,-66,-5,-7,-3,-1,3,6
1517205267752370,5,-20,18,8,5,-1,-4,-15
1517205267773463,1,-13,-49,4,-7,-3,0,17
1517205267773463,21,3,3,-8,3,5,6,4
1517205267774943,-2,25,31,11,0,-2,6,27
1517205267774943,-34,-41,-15,-12,-5,-5,-29,-86
1517205267787007,16,-1,8,4,2,4,11,29
1517205267787007,-7,-2,-20,3,-1,-1,0,-6
1517205267796014,-10,20,21,-4,-3,0,15,27
1517205267796014,10,2,6,8,3,-2,-39,-27
1517205267811016,-49,22,-1,-18,-4,-2,6,-2
1517205267811016,9,-15,10,7,0,0,-3,-11
1517205267812516,10,24,-39,-10,0,-1,-3,-7
1517205267812516,-14,-38,-28,-1,-3,-1,12,24
1517205267833546,31,-6,22,-5,-1,-2,-6,-22
1517205267833546,-6,32,41,9,0,-2,-8,1
1517205267836048,11,14,13,10,4,4,7,-4
1517205267836048,6,40,-1,2,-4,-4,5,6
1517205267847042,-31,-39,-57,-31,-3,-2,3,-1
1517205267847042,-7,-20,37,22,3,3,15,75
1517205267856070,-6,-5,-21,-13,-5,-7,-43,-100
1517205267856070,3,-7,-37,-6,-4,-1,5,13
1517205267871058,-6,18,56,10,-1,-3,0,10
1517205267871058,26,-8,-22,2,0,-1,-4,8
1517205267872559,-3,-35,-2,0,-1,-1,3,-1
1517205267872559,-1,15,23,5,-1,-2,7,11
1517205267893576,7,-1,-36,-9,-1,2,-5,-10
1517205267893576,-2,5,5,-5,0,-1,5,1
1517205267895078,7,27,1,3,-2,-4,-10,-24
1517205267895078,15,12,33,5,-1,-3,3,8
1517205267907167,5,-44,6,-15,-5,-2,-10,8
1517205267907167,-22,-5,-29,1,-2,2,-4,-21
1517205267916167,-8,-8,-9,-4,-6,-3,5,38
1517205267916167,5,14,-19,-7,0,0,4,-19
1517205267930714,-1,1,1,-5,-5,-10,-15,-28
1517205267930714,10,-2,17,18,1,0,5,2
1517205267932716,-7,-5,-50,-14,-3,-3,-10,-7
1517205267932716,-11,-13,23,-11,-3,-5,2,27
1517205267953230,-7,-1,-12,14,4,2,4,4
1517205267953230,1,13,33,4,2,-3,-3,-25
1517205267954732,4,13,-4,5,-3,0,9,21
1517205267954732,-10,2,-21,-2,1,2,-2,-5
1517205267975748,-9,-29,9,10,1,3,4,-4
1517205267975748,2,45,34,-12,-5,-5,-3,-1
1517205267977748,-22,-8,-35,-9,-2,-1,-3,-7
1517205267977748,19,12,23,8,2,1,-3,5
1517205267990757,-21,8,22,11,2,0,-3,-1
1517205267990757,-8,4,0,-1,-4,-3,5,14
1517205267992761,2,21,10,0,2,0,-3,21
1517205267992761,-12,-28,-39,-14,-5,-1,-7,-56
1517205268013285,14,-16,35,11,3,1,1,-14
1517205268013285,5,27,4,0,1,-2,-4,-7
1517205268014775,8,-37,20,5,3,3,13,14
1517205268014775,-48,-4,-14,19,4,-1,0,20
1517205268035803,6,-16,-9,-25,-8,-4,0,7
1517205268035803,11,-12,0,-3,2,2,0,-5
1517205268037790,13,13,-26,-9,-6,-3,1,-8
1517205268037790,-34,-31,-13,26,3,0,2,0
1517205268050799,20,7,-14,-15,2,1,15,16
1517205268050799,-10,-1,1,-10,-6,-5,0,-22
1517205268052300,-18,-60,-6,28,10,3,-10,-21
1517205268052300,17,46,-5,-10,-2,3,7,15
1517205268073338,-10,21,9,7,-1,-3,-21,9
1517205268073338,8,-39,-39,-5,1,3,-4,-15
1517205268074818,7,14,6,1,3,4,40,109
1517205268074818,9,6,70,-5,-3,-10,-50,-95
1517205268095874,-31,-27,6,2,0,1,19,-4
1517205268095874,4,5,2,16,7,3,7,90
1517205268097366,3,10,-20,-23,-7,-8,-40,-89
1517205268097366,6,-52,-4,12,3,2,20,43
1517205268110364,17,45,15,-1,-4,-3,10,10
1517205268110364,-16,-11,4,-9,-7,-6,-16,-19
1517205268116867,-3,37,64,18,5,3,25,-15
1517205268116867,-1,-66,-86,-22,-9,-7,-11,4
1517205268133422,-14,4,11,8,2,4,-10,-4
1517205268133422,-10,-3,5,1,-1,0,10,-11
1517205268135921,9,-11,-7,-8,-4,-2,-11,-10
1517205268135921,7,60,81,0,1,1,7,9
1517205268155965,-1,-32,-93,6,-2,1,9,17
1517205268155965,-5,13,27,-10,-4,-3,-18,-32
1517205268157436,-2,-10,-22,-9,-6,-3,2,-2
1517205268157436,-13,19,32,12,4,3,11,72
1517205268170445,18,19,-5,11,4,1,-13,-75
1517205268170445,-14,-21,-18,-8,-4,-4,-3,-11
1517205268176951,8,30,9,-2,2,1,-8,-6
1517205268176951,-5,-51,-31,-5,0,-3,4,18
1517205268193475,4,23,27,3,0,-2,7,39
1517205268193475,-13,-16,-3,-3,-2,-1,-21,-40
1517205268194975,-8,-8,-13,-8,-4,-4,0,6
1517205268194975,20,57,84,5,-1,0,2,-6
1517205268215980,-5,-7,-35,-10,-6,-3,-2,8
1517205268215980,4,0,-7,-7,-2,1,9,29
1517205268217494,-9,-27,-26,-4,-3,-4,-18,-30
1517205268217494,11,29,5,3,4,4,11,16
1517205268229988,12,16,32,6,-2,-3,-6,-2
1517205268229988,21,6,-15,-16,-4,-3,-11,-6
1517205268236995,-20,-25,7,3,-1,-1,10,5
1517205268236995,3,13,-5,1,0,-1,-4,-8
1517205268253504,10,-9,11,9,3,3,7,8
1517205268253504,13,0,-38,-1,-1,-2,4,-6
1517205268255005,-1,20,-13,-1,0,-1,7,26
1517205268255005,-9,-22,-36,-23,-8,-3,-6,-37
1517205268283526,-3,-13,13,-1,1,-1,4,29
1517205268283526,-1,-10,-33,6,0,1,0,-4
1517205268285042,15,5,14,-2,-2,-1,-9,-20
1517205268285042,1,-10,-22,8,5,3,18,64
1517205268290030,4,44,34,-4,-9,-9,-22,-15
1517205268290030,-12,7,10,-20,2,1,-2,-49
1517205268297036,4,10,52,14,2,1,3,16
1517205268297036,-1,-4,-13,-11,-5,0,-5,-16
1517205268320970,-6,-7,6,0,1,4,10,18
1517205268320970,-4,-25,-14,27,9,3,2,3
1517205268322456,7,72,7,-21,-15,-8,-4,-4
1517205268322456,0,-49,6,-5,-3,-3,-8,-3
1517205268335981,-6,-31,-12,1,1,2,-3,-14
1517205268335981,-1,28,51,-1,-4,-1,2,-23
1517205268337467,-2,-20,-42,7,4,4,1,6
1517205268337467,4,7,11,12,1,0,3,-2
1517205268349985,0,3,-35,-24,-5,-3,-4,-8
1517205268349985,-4,-32,-6,4,-1,-2,4,18
1517205268356984,-2,3,22,18,2,-1,-1,3
1517205268356984,4,29,-4,-20,-5,-3,-5,-21
1517205268373496,-7,-19,-11,2,0,-1,0,3
1517205268373496,3,7,11,0,-2,-1,0,10
1517205268374995,-4,-10,-8,-1,-2,-1,-2,-7
1517205268374995,-1,-3,2,3,1,1,0,0
1517205268396009,0,5,-11,-4,-3,-1,-2,-10
1517205268396009,-4,-7,-16,-1,-3,0,2,9
1517205268397511,-4,-12,9,-2,0,-3,-5,-3
1517205268397511,1,6,-4,-2,0,-1,0,-5
1517205268410520,0,-5,4,-1,-1,-1,0,-3
1517205268410520,-1,3,-5,1,-2,-3,-3,-4
1517205268417051,-2,-16,-2,-8,-1,2,6,11
1517205268417051,-1,7,-10,-3,0,-3,-4,-6
1517205268433104,2,3,1,0,0,0,-2,-3
1517205268433104,-3,-9,-5,5,0,0,0,-2
1517205268436108,-5,-4,-2,-10,-5,-2,-4,-7
1517205268436108,3,9,-7,6,0,-1,0,-1
1517205268455635,0,-3,-10,-8,0,-3,-2,-2
1517205268455635,-2,-3,0,-8,-2,-3,2,10
1517205268457623,-3,-9,5,-5,-1,-1,-1,-3
1517205268457623,-2,-7,-2,5,1,0,-2,-8
1517205268469628,1,18,4,5,0,-1,-1,3
1517205268469628,-6,-28,-22,-6,-3,-4,-1,0
1517205268478652,-3,-15,-6,-1,-2,-3,-1,-2
1517205268478652,2,29,-31,-4,1,2,1,0
1517205268493646,1,-19,22,2,-1,-1,-1,-2
1517205268493646,0,8,0,4,-1,0,1,4
1517205268495150,4,4,-10,-3,0,0,-1,-3
1517205268495150,-1,0,22,0,-4,-3,-1,-1
1517205268515676,-2,-11,0,16,-1,-2,-1,-1
1517205268515676,1,5,-17,-28,-3,0,-2,-1
1517205268517665,-1,-4,12,6,-1,-1,0,3
1517205268517665,-1,0,8,10,1,-1,-2,-2
1517205268530671,2,2,-5,-4,0,-1,0,-1
1517205268530671,-1,-3,13,7,0,1,1,1
1517205268538677,-3,-1,0,-3,2,-1,-1,-3
1517205268538677,-1,-5,-9,-11,-3,0,-1,1
1517205268553188,-1,-5,-19,2,-1,-1,-1,-1
1517205268553188,0,5,21,6,-1,-3,-1,1
1517205268554689,0,1,-6,5,5,0,0,0
1517205268554689,1,-8,27,1,-2,0,1,-1
1517205268576204,-6,-23,-10,-9,-1,-1,-2,-3
1517205268576204,-1,9,-3,1,0,0,-2,0
1517205268577705,-3,-12,-11,18,-4,-1,0,-1
1517205268577705,-2,8,4,-18,1,-2,-2,-4
1517205268589713,-2,8,24,16,-2,1,2,0
1517205268589713,-1,5,-6,-12,0,-1,-1,-1
1517205268598732,2,6,13,-3,-1,-2,-5,-1
1517205268598732,-2,-8,-22,5,-2,-1,-1,0
1517205268613229,-1,2,-2,3,-1,-1,-1,-3
1517205268613229,3,6,5,12,-2,-1,0,-1
1517205268615233,-5,-7,-2,6,-2,0,2,0
1517205268615233,0,3,4,-15,-4,-2,-1,-1
1517205268635761,-2,-2,-1,5,0,-1,-1,-3
1517205268635761,-2,-1,-4,-3,-4,0,-1,0
1517205268637748,0,0,-8,-15,-1,-1,-2,-3
1517205268637748,-3,-17,-19,8,2,0,0,0
1517205268649757,0,5,8,-8,-1,-2,-3,0
1517205268649757,-1,-5,0,-1,-3,0,0,0
1517205268658778,-1,-8,-4,-7,-2,-1,1,1
1517205268658778,-2,8,10,8,-1,-2,-2,-3
1517205268673798,2,29,8,5,0,-1,-1,0
1517205268673798,-3,-22,-37,-39,-5,-4,-3,-2
1517205268675275,0,-3,11,-3,0,-1,-2,1
1517205268675275,0,4,12,10,-1,-3,-2,-2
1517205268695800,-4,-5,-21,-2,-1,-1,0,-1
1517205268695800,1,12,9,-3,4,0,0,0
1517205268697290,-4,-3,0,-5,-4,-2,-2,-4
1517205268697290,-1,-8,-19,-9,-3,-2,-2,-2
1517205268709799,-2,-10,-2,-7,1,0,-1,-1
1517205268709799,2,6,4,14,2,-2,-1,-1
1517205268718817,-1,-3,-2,-3,1,0,1,2
1517205268718817,-2,1,1,1,-1,-2,0,-2
1517205268733337,-3,-5,-7,-7,-4,-6,-3,-3
1517205268733337,-1,-3,7,5,0,1,-1,-1
1517205268735820,0,6,-2,-1,-2,-2,-3,-2
1517205268735820,-4,-5,-11,-6,-2,0,-1,0
1517205268755834,0,-1,3,-5,-1,-1,1,0
1517205268755834,-3,1,1,3,-2,-1,-1,0
1517205268757335,0,0,1,3,-1,0,-2,0
1517205268757335,-1,2,-4,-2,-1,-2,0,0
1517205268769365,-1,-4,1,-6,-1,0,-1,0
1517205268769365,1,2,5,3,-3,-3,-1,-1
1517205268778348,-1,1,-3,-1,0,0,0,-1
1517205268778348,-1,-3,-2,-3,0,0,1,-1
1517205268793361,-1,-1,-4,-5,-3,0,0,-1
1517205268793361,-2,0,-1,3,-1,-3,-3,-2
1517205268794859,0,-1,-2,-2,0,2,-1,1
1517205268794859,1,-2,-4,-3,-4,-5,-2,-2
1517205268815891,0,-2,2,-2,-2,-2,-2,0
1517205268815891,-2,-1,-1,0,1,0,-1,0
1517205268817377,-1,-2,0,-1,0,-3,-2,-2
1517205268817377,-1,-2,-2,0,-1,1,-2,-1
1517205268838391,-2,-2,-2,0,-1,0,-1,-1
1517205268838391,-1,-4,-2,-4,-2,-1,-1,0
1517205268839892,-2,0,-2,-1,-1,-3,-2,-2
1517205268839892,1,-1,-2,1,-1,1,0,1
1517205268853418,-1,-2,-2,-3,-1,-1,0,-1
1517205268853418,-3,-2,0,1,1,0,-1,-1
1517205268854903,-3,-1,0,0,-1,-2,2,-1
1517205268854903,-1,-1,-1,-2,-1,0,0,-1
1517205268875918,0,-1,-3,-1,-1,-1,0,-1
1517205268875918,1,4,2,3,-2,0,-1,0
1517205268877419,1,1,-1,-2,-1,-1,0,-2
1517205268877419,-2,-2,-2,-1,0,-3,-2,-1
1517205268898444,0,0,0,-2,-2,1,-3,-1
1517205268898444,-1,1,-1,1,-2,0,-1,-2
1517205268899946,-3,-4,-5,-5,-2,-2,-2,-2
1517205268899946,0,1,0,0,-1,-1,0,-1
1517205268913444,0,-3,-2,-2,-1,-2,-1,0
1517205268913444,-1,0,0,1,0,-3,-1,-1
1517205268914943,-1,-1,-1,-1,-2,0,-2,-1
1517205268914943,0,-1,1,0,-1,0,-2,-1
1517205268935958,-4,-1,-2,-3,-1,-1,-2,-1
1517205268935958,0,-1,1,1,-1,-2,0,-1
1517205268937959,-1,-1,-1,0,0,-2,0,0
1517205268937959,-2,-1,-3,-3,-2,0,-1,0
1517205268958485,-1,1,0,1,-2,-3,-1,-1
1517205268958485,-1,0,-2,1,-2,-1,0,-2
1517205268959977,-1,-2,0,-2,0,-1,-3,-2
1517205268959977,-1,-1,0,0,-1,-1,0,-1
1517205268973513,0,0,1,0,0,1,1,-1
1517205268973513,0,-3,-2,-1,-1,-3,-1,-1
1517205268975000,0,0,-1,1,-2,-2,0,-2
1517205268975000,0,-1,0,-1,0,-1,0,0
1517205268996014,-2,-2,-2,-2,0,-2,-3,-1
1517205268996014,-1,-1,-2,-2,-2,-1,-2,0
1517205268997526,-1,-1,0,1,-1,2,-2,-1
1517205268997526,-1,-1,-3,-1,0,-1,-2,-2
1517205269018531,0,-1,0,0,-1,1,-1,0
1517205269018531,-1,-1,0,-1,0,-2,-1,-1
1517205269020046,-2,-1,-2,-2,-2,-2,-2,0
1517205269020046,-2,1,-2,-2,-2,0,-1,1
1517205269033541,-1,-2,1,-1,0,-2,0,-1
1517205269033541,0,-2,-3,0,-1,0,0,-1
1517205269036058,-3,0,0,-1,-1,0,-1,1
1517205269036058,-2,-1,-2,0,-1,-3,-2,0
1517205269056057,1,0,-1,-1,-1,0,-2,-2
1517205269056057,-1,0,-2,-1,-1,-1,-2,-1
1517205269057573,0,0,-2,-1,-1,-2,1,-1
1517205269057573,-1,-2,-1,-1,0,-3,1,-2
1517205269078585,-2,-1,-1,-1,1,-1,0,-1
1517205269078585,-1,-1,0,0,-2,-2,-1,0
1517205269080084,0,-2,-1,-1,-1,-1,-1,-1
1517205269080084,-1,0,0,-3,-1,0,-1,-1
1517205269092587,-1,0,-1,1,-2,-3,0,-2
1517205269092587,0,-1,0,0,0,-2,-2,-1
1517205269099588,-1,-1,-2,0,-2,-2,0,-1
1517205269099588,0,-1,-1,0,-3,-1,-3,-2
1517205269115611,1,0,-2,-2,-2,-1,-2,-2
1517205269115611,-1,0,-2,-2,0,-1,-2,-1
1517205269117601,0,-2,-1,0,-1,-1,-1,-1
1517205269117601,-2,-1,-1,-1,0,-1,0,0
1517205269138115,0,-3,0,0,-3,0,-1,-1
1517205269138115,-1,-2,-2,-1,-2,1,0,-3
1517205269140117,-1,-1,-1,-1,0,0,-3,-1
1517205269140117,-1,-1,-1,-1,-1,-1,-1,-2
1517205269152625,-2,0,-1,1,-1,-2,-2,0
1517205269152625,-2,0,-1,-1,0,1,0,1
1517205269159632,0,-1,-1,0,-2,-3,-1,-2
1517205269159632,-1,-1,-2,-2,0,0,-1,-1
1517205269183161,-1,-2,-2,-2,0,-1,-1,-1
1517205269183161,-1,-1,-1,0,0,-2,-2,0
1517205269185148,0,-2,-1,-1,-1,0,-2,-1
1517205269185148,-1,-1,0,-1,-1,-1,-1,-1
1517205269198158,-2,0,-1,1,-1,-3,0,0
1517205269198158,-2,-1,0,-2,0,-1,-1,0
1517205269199660,-1,-2,-1,-2,-2,-1,-2,0
1517205269199660,-1,-2,-2,-2,0,-3,-2,-2
1517205269212668,-1,-2,0,-1,-1,1,-1,-1
1517205269212668,-1,0,-2,-1,-1,0,-1,-2
1517205269219191,-1,0,-2,-1,0,-1,1,0
1517205269219191,0,-2,-2,0,-2,1,0,-1
1517205269236686,-1,0,1,-2,-1,-1,-1,1
1517205269236686,-1,-1,-1,0,-1,-1,1,-1
1517205269238687,-1,-2,-1,-3,0,-2,1,0
1517205269238687,-1,-2,-1,-1,-2,-2,-2,0
1517205269258220,-1,0,-2,1,-1,0,-1,1
1517205269258220,-2,-1,-1,-3,-1,-1,-3,-2
1517205269259701,-2,-1,-2,-1,-2,0,-1,1
1517205269259701,0,0,-1,0,-2,-3,-2,-1
1517205269272726,0,-1,-2,-1,-1,0,-1,-1
1517205269272726,0,-1,-2,-1,-1,-2,-1,-1
1517205269279716,-1,1,-1,-2,-2,0,-2,-1
1517205269279716,-1,-1,0,0,-1,0,-1,0
1517205269296251,0,-1,0,-1,-1,-2,0,0
1517205269296251,-1,-2,-2,1,0,0,0,-1
1517205269297748,-1,0,1,0,-2,-1,0,-1
1517205269297748,-2,-1,-1,-3,0,-1,1,0
1517205269318266,0,0,-3,0,-3,-1,-1,-2
1517205269318266,-1,-2,-1,-1,-1,-1,-1,-1
1517205269319763,-2,-2,-1,-1,0,0,-1,-1
1517205269319763,-1,-2,-1,-2,0,-1,-2,1
1517205269332772,-2,-1,0,0,-3,-3,0,0
1517205269332772,-1,0,-2,-2,-2,-1,0,-1
1517205269339777,0,-1,0,0,-1,1,1,-2
1517205269339777,-1,-2,-2,-2,-1,0,-2,-1
1517205269355792,-2,-1,-1,-4,0,0,-2,-1
1517205269355792,-2,-2,1,-1,-2,-1,-1,-2
1517205269357290,-1,0,-2,-2,1,-1,-2,0
1517205269357290,-2,0,-2,1,-2,-1,0,-3
1517205269378319,-2,-2,-2,-1,-1,0,-2,-2
1517205269378319,-2,-1,-2,0,-3,-2,-2,0
1517205269379810,-1,-2,-2,-1,0,-2,-1,0
1517205269379810,0,-1,0,-1,-1,-3,1,-1
1517205269391885,0,-2,0,0,-1,-1,0,-1
1517205269391885,0,0,0,-2,-1,-2,0,0
1517205269400874,-3,1,-1,0,0,-1,-2,-1
1517205269400874,1,2,-2,1,-4,0,0,-1
1517205269415899,-2,-1,-1,-1,-1,-1,-1,-1
1517205269415899,-1,-1,-2,0,0,-1,-1,-2
1517205269417386,0,-1,-1,0,-1,-2,-1,-2
1517205269417386,-2,0,-1,-2,-1,0,-1,0
1517205269438401,-2,-1,0,-2,-1,1,0,-1
1517205269438401,-2,0,0,-1,-1,-2,-2,0
1517205269439902,0,-1,-1,-2,-1,-2,-1,-1
1517205269439902,-1,-1,0,-1,-2,-2,-1,-1
1517205269451911,-1,0,-2,0,-1,0,-1,-1
1517205269451911,-1,-2,-1,-2,-1,-2,1,-1
1517205269460923,-1,0,-1,-1,-2,-1,-1,-2
1517205269460923,-2,-2,-1,0,0,0,-2,-1
1517205269475930,-1,0,-1,-1,0,-3,-1,-1
1517205269475930,-2,0,-1,0,1,0,-1,-1
1517205269477431,0,-1,-1,-2,-2,-3,-1,-1
1517205269477431,0,-1,-3,0,-3,-1,-1,-2
1517205269497956,-1,0,-1,-2,0,-1,-1,0
1517205269497956,0,-1,0,-1,-2,0,-1,-1
1517205269504457,-2,-1,-1,0,-2,0,-2,-1
1517205269504457,-1,-1,1,-3,0,0,-1,-2
1517205269511977,-1,0,0,-2,-1,0,-1,0
1517205269511977,0,-1,-1,-1,0,-2,-1,-1
1517205269521001,-1,-1,0,-1,-1,0,-1,0
1517205269521001,-2,1,-2,-1,1,-3,-1,-2
1517205269535995,-1,-1,0,-1,-1,0,-2,-2
1517205269535995,-1,-1,0,-2,-2,-1,-1,0
1517205269537995,-2,0,1,-2,-2,0,0,0
1517205269537995,-1,-3,-1,-3,-1,-2,-2,-1
1517205269558577,-2,-1,-1,-1,-1,-1,-1,-3
1517205269558577,-1,-2,-4,-1,-2,-2,-3,-1
1517205269560075,-1,-2,-2,0,-2,-1,-3,-2
1517205269560075,0,-1,-2,0,0,0,-1,-1
1517205269572087,1,-2,-1,-3,-1,-1,-2,0
1517205269572087,-2,0,-1,-2,-1,1,-1,-1
1517205269581104,0,0,0,-2,-2,-2,-1,-1
1517205269581104,-2,-2,-1,-1,0,-1,-2,-1
1517205269595600,-3,-1,0,-1,0,-1,-1,-1
1517205269595600,-1,-2,-1,-1,-2,1,1,-2
1517205269597604,-1,-1,-2,-1,-1,-2,-1,-2
1517205269597604,0,0,-1,-1,0,1,0,0
1517205269618120,0,-1,-1,1,-1,-1,0,-2
1517205269618120,-1,-1,-2,-1,-3,-2,-2,0
1517205269620126,-1,-1,-2,1,0,0,-1,-3
1517205269620126,0,-1,-1,0,-1,-3,-1,-1
1517205269632131,-2,-1,-1,0,0,-1,0,-2
1517205269632131,-1,2,0,-1,-1,-1,0,-1
1517205269640668,-1,-1,-1,0,-2,-1,-1,1
1517205269640668,-1,-1,-2,-1,-2,-1,-3,-1
1517205269655703,-2,0,0,-2,0,0,2,0
1517205269655703,0,-2,-1,-2,-1,-2,-2,-2
1517205269657679,-2,0,-1,-2,-2,-1,0,-2
1517205269657679,-1,1,-1,-2,2,0,1,0
1517205269678694,-1,-1,-2,-1,-2,-1,-2,0
1517205269678694,-2,0,-2,-1,-1,-2,0,-1
1517205269679694,-1,-1,-2,0,-1,-1,-1,-1
1517205269679694,0,-1,-2,-2,0,-2,-1,-1
1517205269692210,-1,-1,-1,-1,0,-1,-3,-1
1517205269692210,-1,-1,0,-1,-1,0,0,0
1517205269707229,-1,-2,0,-1,0,0,-1,0
1517205269707229,-3,-1,-1,-2,-3,0,-1,-1
1517205269715733,-1,-1,-1,-1,0,-1,-2,1
1517205269715733,-1,-1,-1,-2,-1,-1,-2,-1
1517205269717221,-1,0,-2,-2,-2,0,1,-1
1517205269717221,-2,-1,-3,-1,-3,-1,-1,-1
1517205269738236,0,-1,0,-3,-1,-3,-1,-2
1517205269738236,-2,-2,-2,-1,0,1,-3,-1
1517205269739738,1,0,-2,-1,0,0,-2,-2
1517205269739738,-1,0,-1,-1,-1,-2,0,-2
1517205269751773,-3,-2,-1,-1,-1,-1,-1,-3
1517205269751773,0,0,-1,0,-1,0,-1,-1
1517205269760784,-1,-2,-3,-1,0,-2,0,-1
1517205269760784,-1,0,1,-1,-1,-1,-2,-2
1517205269775799,1,-1,-2,-2,-3,-1,-1,0
1517205269775799,-1,-1,-2,-1,-1,-3,-1,-3
1517205269777298,-1,-1,0,0,-1,0,-1,-1
1517205269777298,-2,-1,-1,-1,-2,1,-2,-1
1517205269798305,-1,-3,-1,-1,-1,-1,-1,0
1517205269798305,0,0,-3,-1,-1,-1,-2,-1
1517205269799807,0,-1,1,-1,-2,-2,-1,-2
1517205269799807,-1,-3,0,-1,1,-1,-1,-2
1517205269820837,-1,0,-1,-1,-1,0,0,-3
1517205269820837,-1,-1,-1,-2,-2,-1,-1,-1
1517205269822335,-1,-1,-1,-1,-1,0,-1,-1
1517205269822335,-2,-1,-2,-2,-1,0,0,0
1517205269836332,-1,-2,-2,-2,-2,-1,0,0
1517205269836332,-1,-1,-1,-1,0,0,0,-2
1517205269838334,0,-1,-1,-3,0,-2,-2,-1
1517205269838334,-1,-1,0,-1,-1,-1,-1,-1
1517205269858363,-1,-2,-1,-1,0,-1,-1,-2
1517205269858363,-1,-1,-1,-1,-2,-4,-1,0
1517205269859849,0,-2,0,0,-2,-1,-1,-1
1517205269859849,-1,-2,-2,-1,-1,-2,0,-1
1517205269880876,-2,-1,-2,-1,-1,-1,-2,-1
1517205269880876,-1,-1,-2,0,0,-1,-1,-1
1517205269882377,-2,0,-3,-1,-1,-1,-2,0
1517205269882377,0,-3,-1,-1,-1,-1,-3,-2
1517205269895878,1,1,0,0,-3,-3,-1,0
1517205269895878,-1,-3,-1,-1,-2,-2,-1,-1
1517205269897377,-1,-1,-2,-2,0,0,-1,-1
1517205269897377,-1,0,0,0,-1,-1,-2,-1
1517205269918393,-2,-1,-1,-2,-2,-2,-2,-1
1517205269918393,0,1,-1,-1,0,0,0,-1
1517205269919892,-2,-3,-1,-2,-1,-2,-1,0
1517205269919892,0,0,-2,-1,-1,0,0,-1
1517205269939905,-1,-1,-1,-1,-2,0,-1,-1
1517205269939905,-3,0,0,0,-1,-2,-2,-2
1517205269948412,-2,-1,-2,0,-1,1,-2,0
1517205269948412,-1,-1,-1,-2,-2,-1,0,0
1517205269955920,-2,0,-1,0,-2,-1,0,-1
1517205269955920,0,-1,-1,-2,-1,0,-1,0
1517205269957418,-1,0,0,-2,-2,-2,-1,-3
1517205269957418,-1,-2,-2,0,0,-2,-1,0
1517205269985953,-1,-1,0,-2,-1,-1,0,-1
1517205269985953,0,-1,-1,0,-1,-1,1,-3
1517205269987439,-2,0,1,-1,0,-1,-1,-1
1517205269987439,-2,-3,-2,0,-1,-2,-1,0
1517205270000961,-1,0,-2,-1,-1,-1,0,-1
1517205270000961,-2,0,-2,0,0,-1,0,-2
1517205270002479,-2,-2,-3,-1,-1,-1,-1,-2
1517205270002479,1,0,-2,-2,-1,-2,-1,-2
1517205270014981,0,-1,0,-1,-1,-1,-1,1
1517205270014981,-1,-1,0,-2,-2,0,-3,1
1517205270021985,-1,1,0,-2,0,0,-1,-1
1517205270021985,-3,-3,-1,-1,-1,-1,-1,-2
1517205270038508,-2,-1,0,0,-1,-1,-1,-1
1517205270038508,1,-2,-3,0,-1,0,0,-1
1517205270040009,-1,-1,0,-1,-1,-2,0,1
1517205270040009,-1,1,-1,-1,-1,-2,1,0
1517205270061014,-1,-2,-2,0,-1,-1,0,1
1517205270061014,-1,-2,-1,-3,0,-2,-1,-1
1517205270062514,0,-1,-1,-1,-1,0,-1,-1
1517205270062514,0,-1,-1,-1,-2,-2,0,-1
1517205270075045,0,-1,-1,0,-1,0,-2,-1
1517205270075045,-2,0,-1,-3,-2,-2,-1,-1
1517205270082028,-1,-2,-2,0,-2,-1,-1,-1
1517205270082028,-2,0,-1,-1,0,0,-1,-2
1517205270098040,0,-1,-2,0,-1,-2,-2,-2
1517205270098040,-1,-1,-1,-2,-2,-2,-2,-1
1517205270100041,0,-1,-2,-1,-2,-1,1,-1
1517205270100041,-1,-3,-1,0,-2,-1,0,-1
1517205270121056,0,-1,0,-2,0,0,2,-1
1517205270121056,0,-2,-1,0,0,-1,-1,-2
1517205270122572,-3,0,-1,-1,-1,-2,-2,-2
1517205270122572,-1,-1,-1,-1,-1,-2,-3,1
1517205270135066,0,-2,-1,1,2,0,0,-1
1517205270135066,2,0,-2,0,0,-2,0,-1
1517205270142071,-1,-2,-3,-2,0,-1,-1,-1
1517205270142071,0,-1,0,-1,-2,-1,0,-1
1517205270158583,-1,1,-2,-2,-3,-1,-2,-2
1517205270158583,-2,-2,0,1,-3,-1,0,0
1517205270160085,-1,-1,-3,-1,-1,-2,-1,0
1517205270160085,1,0,0,-1,-1,-1,-2,-2
1517205270180599,-2,-1,-2,-1,-2,-2,-1,0
1517205270180599,-1,-2,0,-1,-1,-1,-1,-2
1517205270182601,1,-2,-1,-1,-1,-1,-1,-3
1517205270182601,-2,-1,-1,-2,0,0,0,-1
1517205270195110,0,-1,1,-1,-1,0,1,0
1517205270195110,-2,0,-1,-2,0,0,-1,-1
1517205270202126,-1,-1,-1,-1,0,-2,0,0
1517205270202126,0,-2,-1,-2,-1,-2,-2,-1
1517205270218151,-2,-2,-2,-1,0,-2,0,-1
1517205270218151,-1,0,-2,0,0,1,-2,-1
1517205270224635,-1,-2,1,-2,1,-1,-2,0
1517205270224635,0,0,-1,0,-1,-1,-2,0
1517205270240641,-1,-2,-2,0,1,-1,-1,-1
1517205270240641,0,-2,-1,-3,-2,-2,-1,-1
1517205270242643,-1,0,-3,-1,-1,0,-2,-2
1517205270242643,-2,0,-1,0,-2,-1,-1,0
1517205270255172,-2,-2,-3,0,-2,0,-1,-1
1517205270255172,0,-1,0,-1,-1,-1,0,-1
1517205270262157,-2,-1,0,0,-1,-1,0,-1
1517205270262157,-2,-1,0,0,-2,-1,-1,-1
1517205270278670,-1,-2,-1,-3,-1,-2,-1,-1
1517205270278670,-1,-1,0,0,-1,0,-1,0
1517205270279669,-1,-1,-1,-1,0,-1,0,-1
1517205270279669,0,0,0,-1,0,-1,0,-2
1517205270300689,-2,0,0,-3,-1,-1,-1,-1
1517205270300689,-2,-1,-1,-1,-2,-1,-1,-2
1517205270302186,-1,-1,-2,-1,-1,-1,-2,-1
1517205270302186,-1,-1,-1,-1,-1,-1,0,-1
1517205270314693,1,-2,1,0,-1,0,0,0
1517205270314693,0,-2,-1,0,-1,0,0,-2
1517205270323709,-1,-2,-2,0,-2,-2,-2,0
1517205270323709,-1,-2,-2,-1,0,-1,-1,-1
1517205270338221,-1,0,0,0,-2,-1,-2,-3
1517205270338221,-1,-1,0,1,-2,-2,1,0
1517205270339710,0,-2,0,-1,-2,-1,-1,0
1517205270339710,1,-1,-2,-1,-1,0,0,-1
1517205270361227,-1,-1,-2,-1,-2,0,-2,-1
1517205270361227,-1,0,-1,-1,-1,0,-3,-1
1517205270362229,-1,-2,0,-2,-2,-3,-1,0
1517205270362229,-2,-1,-1,-2,0,-2,0,1
1517205270374236,-1,0,-2,-1,0,-1,0,-1
1517205270374236,-1,0,-1,-3,-2,-1,-1,0
1517205270383742,-1,-3,0,1,-2,1,-1,0
1517205270383742,0,-2,-1,-1,-1,-1,-2,-2
1517205270398252,-2,0,-1,0,-1,-2,-1,-1
1517205270398252,-1,-2,-2,-3,0,-1,-2,-1
1517205270399753,0,-1,-1,-1,-2,-2,-2,-3
1517205270399753,-2,-1,-2,0,-2,0,-1,-1
1517205270420768,1,-2,-1,-1,-1,-1,0,-1
1517205270420768,-1,-1,0,-2,-1,-3,0,0
1517205270422269,-1,-1,0,0,-1,1,1,0
1517205270422269,-2,-2,0,-1,0,-2,-2,-2
1517205270434778,-1,0,-1,-2,-1,1,-1,-3
1517205270434778,-1,-1,-2,0,0,0,-2,-2
1517205270443284,0,0,-2,0,-1,-2,0,0
1517205270443284,0,-2,-2,0,-2,-2,-1,-1
1517205270458294,-1,-3,0,-2,-2,1,-1,-1
1517205270458294,-1,0,-2,-2,-1,0,-2,-2
1517205270459795,-3,1,0,-2,-2,0,-1,0
1517205270459795,-2,-1,1,-3,0,0,-1,-2
1517205270480811,-1,-1,0,-2,-1,-2,-1,-1
1517205270480811,-2,-2,-2,-1,-4,-1,0,-1
1517205270482312,-2,0,-2,-3,0,-1,-1,-2
1517205270482312,0,0,-2,-1,-1,0,-1,1
1517205270494820,-1,-1,-1,-1,-1,-2,-1,-2
1517205270494820,-3,-1,0,0,0,-2,-1,0
1517205270503326,-2,-2,-1,1,0,-1,-1,0
1517205270503326,-2,-1,-1,-1,-1,-1,-1,-3
1517205270518349,-1,-2,-2,-1,-1,1,-3,0
1517205270518349,-2,1,-1,0,-1,0,-1,-1
1517205270519850,0,0,0,-2,-1,-2,0,-1
1517205270519850,-1,-1,-2,-1,0,-2,0,0
1517205270540852,-1,0,-1,-1,-1,-3,0,0
1517205270540852,-2,-2,-2,-1,-1,-1,-1,0
1517205270542354,-2,-1,-3,-1,-1,-1,-2,-1
1517205270542354,-1,-2,-2,-2,-1,-2,-1,-1
1517205270554362,-1,0,-1,2,-2,0,-2,-1
1517205270554362,-1,0,-1,0,-2,0,-1,1
1517205270563373,-2,-1,-1,-1,-1,-1,1,-1
1517205270563373,-2,-1,-2,0,0,-2,0,-2
1517205270578384,-1,-3,0,-1,-2,-1,-1,-1
1517205270578384,0,-1,-2,-2,-1,1,-1,-1
1517205270579881,-1,-1,-1,-1,-1,1,-2,0
1517205270579881,-1,0,1,-2,-1,-1,-1,1
1517205270600896,-1,-1,-2,-3,-1,-1,0,-2
1517205270600896,-1,-1,0,0,-2,-2,-1,-2
1517205270602408,0,1,0,0,0,-2,0,-2
1517205270602408,-1,-1,0,0,-2,-1,-2,-1
1517205270614405,0,-1,0,-1,-1,-2,0,-1
1517205270614405,-1,-2,-1,-2,0,-1,0,0
1517205270623421,-1,0,-1,0,-1,0,-3,-1
1517205270623421,0,-2,-1,1,-2,-2,-1,-2
1517205270638431,-2,-1,-1,0,-1,-1,-1,-4
1517205270638431,-1,0,-1,-1,0,-2,-2,0
1517205270639934,-2,-1,-1,-1,-1,-2,-2,0
1517205270639934,-2,-1,-1,-1,-1,0,-1,0
1517205270660957,0,-2,-2,-3,-1,-2,-2,-1
1517205270660957,-3,0,0,0,-1,-1,0,-1
1517205270662440,0,-2,0,-1,0,-1,-2,-3
1517205270662440,0,-3,0,0,0,-1,-1,-2
1517205270674459,-1,-1,-1,-3,-2,-2,-2,1
1517205270674459,-2,-2,0,1,-1,-2,-2,-2
1517205270683455,-2,-2,-2,-1,-1,0,0,1
1517205270683455,-2,2,-2,-1,-1,-1,-1,-2
1517205270698477,-2,0,0,-2,-1,0,0,0
1517205270698477,1,-1,-2,-1,-1,0,0,-1
1517205270699966,-1,0,-1,-1,-2,-2,-1,-1
1517205270699966,-2,-3,-4,-1,-2,-1,-2,-1
1517205270720979,0,0,0,-1,-2,-3,-2,-1
1517205270720979,0,-2,-1,-1,-1,-1,-2,-2
1517205270722481,-1,-2,-1,-1,0,-1,0,-1
1517205270722481,-2,-2,-2,-2,0,-2,-1,-1
1517205270734513,0,-1,-1,-2,0,0,-2,1
1517205270734513,0,-2,-2,-1,-2,-2,0,-1
1517205270743497,-1,-1,0,-1,-2,-2,-1,0
1517205270743497,-1,0,-1,-2,-1,-1,-1,-1
1517205270758507,-3,-2,0,0,-1,-1,-1,-1
1517205270758507,0,-1,-1,-1,-1,-1,-1,-1
1517205270760007,-1,-3,1,0,0,-2,0,0
1517205270760007,0,-1,0,0,-2,0,0,-1
1517205270781036,-1,-2,-1,0,0,0,0,-1
1517205270781036,-1,-1,-1,0,0,0,-2,-1
1517205270782546,-1,0,0,-1,-3,-1,0,-1
1517205270782546,-1,-1,-1,-1,-1,-1,-3,0
1517205270803110,0,-1,-1,-1,1,-2,-1,-2
1517205270803110,-1,-1,-1,-1,-1,-2,-1,0
1517205270805112,-1,1,-3,-2,-1,1,-1,-3
1517205270805112,0,1,-2,0,-2,-1,-1,-1
1517205270818624,-2,0,-1,0,-2,0,1,-2
1517205270818624,-1,-1,-1,-2,-1,-1,-1,0
1517205270820122,0,0,0,0,-1,-2,-2,-1
1517205270820122,0,-3,2,-2,-1,-1,-1,-1
1517205270840637,-3,1,-1,1,1,-1,-1,-1
1517205270840637,-1,-2,-1,-1,0,-1,0,0
1517205270842137,-3,-2,-1,-2,-1,-1,-1,-1
1517205270842137,-1,-1,-2,-1,-2,0,0,0
1517205270863154,0,-3,0,-1,-1,0,-1,-1
1517205270863154,-1,0,-1,0,1,-1,1,-2
1517205270864653,-1,-1,-1,-2,-1,-1,-2,-1
1517205270864653,-1,0,-1,-2,1,1,-1,-2
1517205270878664,-1,-1,-1,0,-1,-3,-1,0
1517205270878664,-1,-2,-1,-2,-1,0,-1,-2
1517205270880170,0,-1,0,-3,0,-2,-1,0
1517205270880170,0,0,0,-1,-1,-1,-1,-1
1517205270900679,-2,1,-2,-1,-1,-1,-1,-1
1517205270900679,-2,0,-2,-3,0,-1,-2,0
1517205270902180,-2,-1,-2,0,-1,-1,-1,-1
1517205270902180,-1,0,-1,-1,0,-1,0,0
1517205270923198,-1,-4,-2,0,-1,-1,-1,-2
1517205270923198,-1,-2,-1,0,-2,0,0,0
1517205270924696,-3,-2,-1,-2,0,-1,-1,-1
1517205270924696,-1,-1,-1,-2,-2,-2,-2,-1
1517205270937714,-1,0,0,0,0,1,0,-2
1517205270937714,-1,-2,0,0,-1,-4,0,-1
1517205270944220,1,0,1,-1,-2,0,1,1
1517205270944220,-2,-1,-1,0,-1,-2,-1,-1
1517205270960723,-1,-2,-2,-2,0,-2,-1,0
1517205270960723,0,-1,-2,-1,-2,-1,0,-3
1517205270962223,-2,-1,-1,-1,-1,0,-2,0
1517205270962223,-2,0,-1,-2,0,-1,-2,-1
1517205270983251,-1,0,-2,-2,-2,0,-1,-1
1517205270983251,-2,-1,-1,-2,-2,-1,0,-2
1517205270984762,1,-1,-1,-1,-1,0,-2,-1
1517205270984762,0,-1,-2,-1,-1,-1,0,-2
1517205270997749,0,-2,-2,-2,-2,-2,-2,0
1517205270997749,-2,-1,-1,0,-1,-1,-2,-1
1517205271004276,-3,-2,-3,0,-2,-1,-1,-2
1517205271004276,-1,-3,0,-1,-1,-1,0,0
1517205271020764,-1,-1,-2,-2,0,-1,0,-1
1517205271020764,-2,0,-1,-1,-1,-1,-1,0
1517205271022265,-2,-1,0,-2,-2,-1,-1,0
1517205271022265,-1,-2,-2,0,1,0,-1,-2
1517205271043296,-1,0,-1,0,-2,-1,1,-2
1517205271043296,-1,-2,-2,0,-2,1,-1,-1
1517205271044784,0,-2,-4,-1,0,1,-2,-1
1517205271044784,-1,-2,1,-2,0,-2,-1,-1
1517205271058291,-2,-1,0,-3,-1,-1,-2,-1
1517205271058291,-1,0,-1,-2,-1,0,-1,-1
1517205271064313,-1,-1,-3,0,-1,-1,0,-1
1517205271064313,-1,-2,1,0,-1,0,0,0
1517205271080816,-2,-2,-1,-1,-1,-2,-1,-3
1517205271080816,-1,-1,-1,-2,-1,-2,-1,-1
1517205271082318,0,-2,-1,-3,-2,-1,0,-2
1517205271082318,-2,0,-3,-2,-2,-2,-1,-1
1517205271103326,-2,-2,-2,0,-1,-1,-2,0
1517205271103326,0,-1,-1,-1,1,0,0,-1
1517205271104824,-1,0,-2,1,-1,-2,-1,-1
1517205271104824,0,0,-2,-2,0,-1,-2,0
1517205271117842,0,-1,1,-1,-2,-1,-2,-1
1517205271117842,1,1,-1,-1,-1,-2,-1,-1
1517205271124340,-2,-2,0,-1,-1,0,0,0
1517205271124340,0,-1,-2,-2,0,-1,1,-1
1517205271140849,-1,0,0,-1,1,-1,-1,1
1517205271140849,-3,-2,-3,0,0,-2,-2,-2
1517205271142350,-2,-1,0,-1,-1,-1,-1,-2
1517205271142350,-3,-1,0,-1,-3,0,-2,-2
1517205271162894,0,0,-2,-2,0,-2,0,-2
1517205271162894,0,-2,-1,-1,0,-2,-1,0
1517205271163394,0,0,0,0,-2,0,-1,-2
1517205271163394,0,-3,-1,1,-2,-2,-2,-2
1517205271176906,-1,-1,-1,-1,-3,0,-1,-2
1517205271176906,-1,0,0,-1,-1,-1,-1,-1
1517205271184939,0,-1,-3,-2,-1,-1,1,-2
1517205271184939,-2,-1,-2,-3,-3,-2,-1,1
1517205271199923,-1,-1,-1,-2,-1,-1,-1,-1
1517205271199923,-1,-1,-2,-1,0,-1,-2,-1
1517205271200929,-1,-1,1,-1,0,0,-1,0
1517205271200929,1,-1,0,1,1,0,0,-1
1517205271222940,-1,0,0,-1,0,1,-1,-1
1517205271222940,-2,0,-1,-1,-3,-1,-1,-1
1517205271223937,-1,-1,0,-1,-1,-3,-3,0
1517205271223937,-1,-2,-2,0,0,0,0,-1
1517205271236981,0,-1,-1,0,-2,-2,0,0
1517205271236981,0,0,-1,-1,-1,-2,0,-1
1517205271245480,-1,-2,-1,-2,0,-2,0,0
1517205271245480,-3,-1,-1,0,-2,-2,-1,-1
1517205271260489,-2,-1,-1,0,-1,-2,-1,0
1517205271260489,-1,0,-2,-3,-1,0,-1,-1
1517205271260989,0,-1,-2,-1,-2,0,-2,-1
1517205271260989,-2,-1,-1,-1,0,0,0,-1
1517205271282515,1,0,-2,-1,-1,-1,-1,-1
1517205271282515,-1,-1,0,1,0,-1,-1,-1
1517205271283516,0,-1,0,-1,0,-1,-3,0
1517205271283516,1,0,1,-2,-1,0,-1,-2
1517205271297016,-1,0,-1,-1,-1,-1,-1,0
1517205271297016,0,0,-2,-3,0,-1,-1,0
1517205271305019,0,-1,-1,0,-2,-2,0,-3
1517205271305019,-1,-2,-1,0,0,-1,1,-1
1517205271320044,-3,-1,-1,-1,-2,-1,-1,-2
1517205271320044,-1,-2,-2,0,-1,-1,-1,0
1517205271321046,-1,0,1,-1,-1,-1,0,1
1517205271321046,-1,0,-1,-1,-2,-1,-2,-2
1517205271342545,-2,-1,-1,0,-1,-2,-1,-1
1517205271342545,-1,-2,-2,-1,-1,0,-2,-1
1517205271343547,0,0,-2,0,0,-2,-2,0
1517205271343547,0,-1,0,0,-1,0,-1,-1
1517205271357056,0,-2,-1,-2,-1,-1,-1,-1
1517205271357056,-1,-2,0,-1,-2,1,-2,-2
1517205271365061,-1,-1,-2,-2,-1,-1,-3,-1
1517205271365061,-2,-1,-2,-2,-2,-1,-1,0
1517205271380072,0,-3,-1,0,0,-1,0,-1
1517205271380072,-1,-1,0,-1,-2,-1,-1,2
1517205271381073,-1,-2,-3,-1,-1,-1,0,-3
1517205271381073,-3,-1,-2,-3,0,-3,-4,0
1517205271402598,-1,-1,-2,-1,-1,-1,-2,0
1517205271402598,-2,0,0,-1,0,-1,0,-2
1517205271403626,-1,0,0,-1,1,-1,-1,-2
1517205271403626,0,-2,-1,-1,-1,-2,-1,-1
1517205271417114,-1,-1,-2,-1,-1,0,-1,-1
1517205271417114,-1,-2,-1,0,0,-1,-2,1
1517205271424619,-2,0,0,-1,-1,-2,-2,-1
1517205271424619,1,0,1,-1,-1,0,0,-2
1517205271440164,0,0,-2,-2,-2,-1,-2,-2
1517205271440164,-1,-2,-1,-1,-2,1,0,-1
1517205271440664,-1,-1,-1,-1,0,-1,0,-1
1517205271440664,-1,-2,-1,1,-3,-2,0,-2
1517205271462681,0,-2,0,-2,-1,-1,0,0
1517205271462681,-1,-3,-1,-1,-1,0,-1,0
1517205271463182,-2,-2,-1,-1,0,-1,-1,-3
1517205271463182,0,-1,-2,-1,-1,0,-1,-1
1517205271477190,-1,-2,-1,-1,0,-3,-1,0
1517205271477190,0,0,-1,-1,-3,-4,-2,0
1517205271485250,-2,-3,-2,-1,0,-1,-1,0
1517205271485250,-2,0,-1,-2,0,0,-1,0
1517205271500250,-2,0,0,-1,-2,-1,-1,-2
1517205271500250,0,-3,0,0,0,-2,-1,-1
1517205271500752,-1,-1,0,0,-1,-1,-1,-1
1517205271500752,-1,0,-1,-1,0,-1,-4,-1
1517205271522766,1,-1,-2,-1,0,0,-3,-1
1517205271522766,-2,-1,-3,-2,-1,-1,-1,-2
1517205271523274,0,0,0,-1,-2,0,0,-1
1517205271523274,-1,-2,-2,-1,-2,1,-1,-1
1517205271536779,-1,0,2,-2,0,-1,-1,1
1517205271536779,-1,-1,0,0,0,-2,0,-1
1517205271545285,-1,-1,-2,-3,-1,-1,0,-1
1517205271545285,0,-1,-1,-2,-2,0,-1,1
1517205271560292,-1,-1,-1,-1,0,-2,-3,-1
1517205271560292,-2,-2,-1,-3,-1,-1,-1,-1
1517205271560796,1,-3,0,0,0,0,-1,-1
1517205271560796,-1,-2,0,-1,-1,-2,0,0
1517205271582308,-1,0,-1,-1,0,0,0,0
1517205271582308,-1,1,-2,0,-1,-1,-2,-1
1517205271583309,-1,-1,-1,-1,-2,0,-2,-2
1517205271583309,-1,-1,-1,-1,0,-1,-2,-2
1517205271596821,0,-1,-1,-1,-3,0,0,-1
1517205271596821,0,0,-2,-1,-1,0,-2,-1
1517205271604895,0,1,-2,-1,-1,1,-3,-1
1517205271604895,-1,-1,-1,0,-1,-2,1,-1
1517205271619892,-2,-1,-1,-1,0,-2,0,-1
1517205271619892,1,-1,1,-1,-1,-2,0,-1
1517205271620879,-1,0,-1,-1,-2,-1,-1,-1
1517205271620879,-1,0,0,-1,-1,-1,-3,0
1517205271642394,-1,-1,-1,0,-1,0,-1,-1
1517205271642394,-2,0,0,-2,0,-1,0,-2
1517205271643907,-1,-2,-2,-1,0,-3,-2,-1
1517205271643907,-1,-1,-3,0,1,-1,-2,-2
1517205271656904,-1,-1,-2,-1,-2,-1,-1,0
1517205271656904,-1,-2,0,0,-2,1,-2,1
1517205271664909,-1,-1,0,-2,0,-2,-1,0
1517205271664909,0,-2,-1,-2,-1,-1,0,-2
1517205271680422,-1,-1,-1,-1,-2,-2,-3,-1
1517205271680422,0,0,-1,0,-2,-1,-1,-2
1517205271680921,-2,-1,-1,0,-2,1,-1,-1
1517205271680921,0,0,0,-2,-2,-1,-2,-2
1517205271702451,0,0,-1,-1,-1,0,0,-2
1517205271702451,0,0,-2,-2,-1,-2,-1,-3
1517205271703447,-2,-1,-2,-1,-1,-1,-1,-1
1517205271703447,-2,-1,-1,0,0,-1,-1,0
1517205271725954,0,0,0,-2,0,-1,1,-1
1517205271725954,-2,-2,-3,1,-1,-2,-1,0
1517205271726454,0,-2,-1,-1,-1,-1,0,0
1517205271726454,-2,-2,-1,-1,-1,-1,0,0
1517205271739970,-2,0,-2,-1,-2,-1,0,-1
1517205271739970,-2,-2,-2,-2,-1,-1,0,0
1517205271740963,1,0,-1,-1,-2,0,0,-1
1517205271740963,-1,1,-1,0,-1,0,-2,1
1517205271762479,-3,-2,-1,-1,0,-1,-2,-1
1517205271762479,-1,0,-2,-2,0,0,-2,-2
1517205271763481,0,-3,-1,-2,0,-2,0,-2
1517205271763481,-1,-1,-2,-1,-1,0,-2,-2
1517205271785995,-1,-1,-1,0,-2,-1,-1,-1
1517205271785995,0,0,-1,0,-1,-2,0,-1
1517205271786496,0,-2,-1,-3,-2,0,0,-1
1517205271786496,1,-1,0,-1,0,0,0,0
1517205271800513,1,-2,0,1,0,-1,0,-2
1517205271800513,-1,0,0,-2,-1,0,0,0
1517205271801519,1,-1,-3,-1,-1,-2,-1,-1
1517205271801519,-1,-1,-2,0,0,-2,-1,-1
1517205271822524,0,1,-1,-2,-1,-3,-1,0
1517205271822524,-2,-2,-1,0,0,0,-2,-1
1517205271823538,-1,0,-2,-1,0,-1,0,0
1517205271823538,-2,-1,0,-3,-3,-1,-1,-1
1517205271846037,-1,-1,-1,0,-1,0,-1,-1
1517205271846037,0,-1,-1,-1,-1,1,-2,-2
1517205271846541,-2,-1,0,0,-2,-1,-2,-1
1517205271846541,-1,-2,-1,0,1,-2,-1,-2
1517205271860050,-1,-3,-2,-1,-2,-1,0,0
1517205271860050,-2,-2,0,-1,-2,-1,-1,-1
1517205271860550,-3,-1,0,-1,-3,1,0,0
1517205271860550,-1,0,-1,-1,-1,-2,-1,1
1517205271890569,-1,-3,-2,-1,-1,-1,-2,0
1517205271890569,0,-1,-1,-2,-2,-3,0,-1
1517205271891570,-1,-1,-2,-1,-1,-1,-1,0
1517205271891570,0,-1,0,-1,-2,-1,-1,-2
1517205271905581,-1,0,-2,-2,0,-1,-2,-2
1517205271905581,0,0,-1,0,0,1,0,-1
1517205271906610,-2,-1,1,-1,-1,1,1,-2
1517205271906610,-1,-1,2,-1,-2,0,1,-1
1517205271920106,-1,0,-1,0,2,-2,-1,-2
1517205271920106,-1,-1,0,-3,-2,0,-2,0
1517205271920591,-1,0,0,-1,-1,-1,-2,-2
1517205271920591,-2,-1,-1,-1,0,-1,-2,0
1517205271942605,0,0,0,-1,-2,1,-1,0
1517205271942605,-1,-1,0,0,0,-1,-2,-2
1517205271943607,-1,-2,-1,0,-2,0,-2,0
1517205271943607,0,-2,-1,-2,0,-1,-2,-1
1517205271966145,-1,-2,-1,0,-2,-1,-1,-1
1517205271966145,-2,-2,-3,-2,-2,-1,0,-1
1517205271966623,-1,-2,-2,0,0,-2,-2,-2
1517205271966623,-1,-1,-2,-1,1,0,-1,-2
1517205271980186,-2,-1,-1,-1,0,-1,-1,0
1517205271980186,0,0,1,0,-1,-2,-4,0
1517205271980689,-2,0,-2,-1,-1,-1,1,0
1517205271980689,0,-2,-1,-1,-2,-1,0,-2
1517205272002724,0,0,1,-2,-1,0,0,0
1517205272002724,0,1,-1,0,0,-1,1,0
1517205272003215,-3,0,-1,-3,0,-2,-1,1
1517205272003215,-1,-2,-2,0,-2,-2,0,-1
1517205272026218,-2,-2,-2,-2,-2,0,-2,-1
1517205272026218,0,0,0,-1,-1,-1,0,-1
1517205272026719,-1,-2,-1,-1,-1,-1,-1,-1
1517205272026719,0,0,-2,-2,-1,0,1,0
1517205272040238,-1,-3,0,0,-2,-1,0,-2
1517205272040238,0,-1,-2,0,-2,-1,-1,0
1517205272040738,0,-1,0,-1,-2,-2,-2,-2
1517205272040738,-1,-2,-1,-2,-3,0,-1,-1
1517205272062788,-2,0,1,-2,0,-2,-2,-2
1517205272062788,-2,-1,-1,-1,1,-2,-1,-1
1517205272063290,-1,-1,-1,-1,0,-1,-1,-1
1517205272063290,-2,-1,-2,0,-2,-1,-1,-1
1517205272085806,0,-2,-1,-1,-2,-2,1,-1
1517205272085806,0,-1,-2,0,-1,-2,0,0
1517205272086305,-2,-2,-1,-2,0,-1,-1,-1
1517205272086305,-1,-1,-1,0,-1,0,-1,0
1517205272099816,-1,1,-1,-2,0,-2,0,-1
1517205272099816,-1,-2,-2,-4,-1,0,-2,-1
1517205272100815,1,-1,-1,0,-1,0,-1,-2
1517205272100815,0,0,1,-2,-1,-2,-1,-2
1517205272122848,-2,-1,-1,0,-2,-1,-1,0
1517205272122848,-2,-1,-1,-1,-1,-1,-1,0
1517205272123331,-1,0,-1,-2,-1,0,-1,-2
1517205272123331,-1,0,-1,-2,-1,-2,-1,-2
1517205272145861,0,0,0,-1,0,0,-1,-1
1517205272145861,-2,-2,-2,0,0,-1,0,-2
1517205272146358,0,-1,-2,0,-1,1,-1,1
1517205272146358,-1,-1,-1,-3,0,-1,-2,-1
1517205272160662,-1,-3,-2,0,0,0,-2,0
1517205272160662,-2,0,-4,-1,-3,-1,-2,0
1517205272167682,0,-3,0,0,0,-2,1,-1
1517205272167682,-1,0,-2,-1,-2,0,-2,0
1517205272182692,-1,-1,0,-3,0,-2,-2,0
1517205272182692,-1,-2,1,-1,0,-1,-1,-2
1517205272183178,-2,-1,-1,-1,-2,-1,-1,-1
1517205272183178,-1,-3,-1,-1,-2,-2,0,0
1517205272205726,-1,0,-4,-1,-1,0,0,0
1517205272205726,-1,-2,-1,-2,-1,-2,-2,-1
1517205272206695,-2,-1,-1,-1,-2,-2,0,-1
1517205272206695,-2,-1,-1,1,0,0,-1,-1
1517205272219225,1,-1,1,-2,-3,-1,-1,-1
1517205272219225,0,-1,0,-2,-1,-1,1,-1
1517205272227724,-1,0,-1,-1,-1,1,-2,-2
1517205272227724,0,0,-1,-1,-1,-2,-1,-3
1517205272242730,-1,-1,-1,-1,-3,-1,0,-1
1517205272242730,-1,-1,0,0,-1,-2,-1,0
1517205272243253,-1,-2,0,-2,0,-1,-1,0
1517205272243253,-1,-1,-1,-1,-2,-2,-2,-1
1517205272266237,-2,0,-1,1,-1,0,-2,0
1517205272266237,0,0,-2,-2,0,-1,-2,0
1517205272267238,-1,-1,-2,-2,-3,0,0,-2
1517205272267238,0,-1,-1,-1,0,-2,0,-1
1517205272280246,2,-1,-1,-2,-1,0,0,-2
1517205272280246,-1,-1,0,-1,-2,0,0,-1
1517205272280750,-1,-1,0,0,-1,-2,-2,-1
1517205272280750,-1,-1,-1,-1,1,0,-1,1
1517205272302762,-3,-3,0,-3,-1,0,-2,0
1517205272302762,0,1,-1,-1,-2,1,0,0
1517205272303263,-1,0,0,-1,-2,-2,-1,-1
1517205272303263,0,-1,-3,-2,-1,-2,0,-2
1517205272325794,-2,0,0,-1,0,-2,-1,-1
1517205272325794,-2,-2,1,-1,0,-1,-2,-2
1517205272326780,-1,-2,-1,-1,0,-1,-1,1
1517205272326780,-3,-1,-2,-1,-1,-1,-1,0
1517205272339298,-3,-1,0,0,-1,1,0,-2
1517205272339298,-2,-3,-2,-1,-1,-1,-1,0
1517205272347794,1,-1,-1,-2,-1,0,-3,0
1517205272347794,-1,-1,0,-1,-1,0,0,-1
1517205272362817,0,-2,-1,-1,-1,-2,-1,-1
1517205272362817,0,-1,-2,-1,0,-1,0,-2
1517205272363306,0,-1,0,0,-2,-3,-2,-2
1517205272363306,-1,-2,0,2,0,-2,-1,0
1517205272385835,0,-1,-2,0,-2,-2,-1,-1
1517205272385835,-2,-1,-2,-1,-2,-2,-1,1
1517205272386321,-2,0,-3,0,-1,-1,-1,-2
1517205272386321,0,-1,0,-1,0,0,-2,-1
1517205272399343,-2,-1,1,-1,-1,0,-1,-1
1517205272399343,1,-1,2,-1,-1,-1,-1,-1
1517205272407355,0,-1,-1,-1,-1,-1,-1,0
1517205272407355,-2,-2,-2,-2,0,0,-2,-2
1517205272422362,-1,0,-2,-3,-1,0,1,0
1517205272422362,-1,-1,-2,0,-1,-1,-1,0
1517205272423376,-1,-1,-1,-1,-1,-2,-2,-1
1517205272423376,-1,-1,-1,0,0,-1,-1,-1
1517205272445876,-1,0,-1,-2,-1,-2,-1,-1
1517205272445876,-2,-2,0,0,0,0,-1,-1
1517205272446366,-1,-1,-1,-1,-2,-2,1,-1
1517205272446366,-1,-2,-1,0,-1,-2,-2,-1
1517205272459373,0,-1,-1,-1,-2,-2,-1,-1
1517205272459373,-1,0,-1,-1,-2,-2,-2,0
1517205272467391,-1,-1,0,0,1,-2,-1,0
1517205272467391,0,-2,-1,0,-1,-2,-1,0
1517205272482396,-1,-1,-2,0,-2,-1,0,-2
1517205272482396,-1,-2,0,-1,0,0,-2,-2
1517205272483390,-1,-2,-3,-3,-1,0,0,-2
1517205272483390,-1,-2,-1,-1,-3,-1,-1,-1
1517205272505906,0,-2,1,-1,0,-3,0,-1
1517205272505906,-1,0,-2,0,-3,0,0,-1
1517205272506407,-2,-2,-1,-1,0,-1,-1,-1
1517205272506407,-1,1,-1,-1,-1,0,0,-1
1517205272519425,-1,-2,0,-1,-1,0,-2,-2
1517205272519425,0,-2,-1,-2,-2,-3,-2,-1
1517205272527921,-2,-2,0,-1,-1,-2,-2,-3
1517205272527921,-3,0,-2,0,-1,2,-1,0
1517205272542432,1,-1,-2,0,-1,-1,-2,1
1517205272542432,-1,0,0,-1,-1,-1,0,-1
1517205272543432,-1,0,-1,-1,-1,-1,-1,0
1517205272543432,-3,-2,-1,-2,-1,-2,0,-2
1517205272565448,-1,0,-1,0,-1,0,-1,-2
1517205272565448,0,-2,-1,-1,0,0,-2,-1
1517205272566449,0,0,-1,-1,0,0,-1,-1
1517205272566449,-1,0,0,-1,0,0,-1,-2
1517205272579458,-2,-2,-2,-1,-1,-1,-2,-1
1517205272579458,-2,0,-2,-1,0,-4,-2,-1
1517205272587463,-1,0,-2,0,-2,-2,0,-1
1517205272587463,1,-3,-1,1,-2,-2,-1,-1
1517205272602477,-2,-1,-2,-1,0,-2,0,-3
1517205272602477,0,0,-1,-2,-1,-1,1,0
1517205272603475,-2,-1,1,-1,0,-1,0,0
1517205272603475,0,-2,0,-1,-1,-3,-1,-1
1517205272625990,-1,-3,0,0,0,-1,-2,0
1517205272625990,-1,-1,0,0,1,-1,-3,-2
1517205272626492,-1,0,-1,-1,-1,0,-1,-2
1517205272626492,-1,0,-1,-2,0,1,-1,-1
1517205272639500,-1,-1,-2,-1,0,0,0,-1
1517205272639500,-1,0,0,-1,-1,-1,-1,-3
1517205272647506,0,-2,-2,-1,-2,-1,-1,-1
1517205272647506,-1,1,-1,-2,0,-3,0,0
1517205272662536,-1,0,0,-1,-2,-3,-2,0
1517205272662536,-1,-2,-1,1,0,-2,0,-1
1517205272663017,1,-2,-1,1,-2,0,-2,-1
1517205272663017,-2,-1,-2,-1,0,0,0,-1
1517205272686033,-2,-1,-1,0,-1,-1,-2,0
1517205272686033,0,-2,-1,-2,0,-2,-2,-1
1517205272686534,-2,0,-2,-2,-1,-1,0,0
1517205272686534,-1,-3,0,-1,-2,-1,-1,-2
1517205272708049,-1,0,-1,-1,-2,0,0,1
1517205272708049,-1,0,-2,0,-2,1,1,-1
1517205272709049,-1,-2,-2,-2,1,-1,0,-1
1517205272709049,0,-2,-1,-1,-3,0,-1,-1
1517205272722562,-2,-1,-1,0,0,-1,-1,-2
1517205272722562,0,-1,-2,0,0,1,-1,0
1517205272723575,-1,-4,-1,-1,0,-1,-1,0
1517205272723575,-1,0,0,-1,-1,0,-2,0
1517205272745577,-2,-1,0,-1,-1,-1,-1,-1
1517205272745577,0,-1,0,-2,-1,-1,0,0
1517205272746576,0,-1,0,-1,-1,-2,0,-1
1517205272746576,-1,-1,-2,-2,-2,-1,-2,-2
1517205272768112,-1,0,-1,-1,-2,-1,-2,-2
1517205272768112,-2,-1,-1,-2,-2,0,1,0
1517205272769092,-2,-1,0,-1,-1,-2,-1,-1
1517205272769092,-2,-3,-1,0,-1,0,-1,1
1517205272782601,0,0,-2,-1,-2,-3,-1,-3
1517205272782601,-2,-1,-2,0,-2,-1,-2,-1
1517205272783101,-1,0,-2,0,-2,1,-2,0
1517205272783101,-1,-1,0,0,1,-1,0,-1
1517205272805621,-1,-2,-1,-1,-1,0,1,-2
1517205272805621,-1,0,0,-2,-2,-2,-3,-2
1517205272806618,-1,-2,0,-1,1,0,-2,-2
1517205272806618,-2,-1,-2,-2,-3,-1,0,-1
1517205272828134,-1,-3,-2,0,0,0,-1,0
1517205272828134,-1,0,-3,0,-1,-2,-1,0
1517205272829135,-3,0,-1,0,-1,-1,0,-1
1517205272829135,2,0,-2,-1,1,-1,-1,-2
1517205272842644,0,-2,-1,-1,-1,-2,-2,-1
1517205272842644,-1,-2,0,-1,-3,0,0,-1
1517205272843145,-1,-1,0,-1,-2,0,-1,0
1517205272843145,-2,-1,0,0,0,-1,-2,0
1517205272865670,-1,-1,-1,0,0,-2,0,0
1517205272865670,-2,-1,-1,0,0,-2,-1,-2
1517205272866665,-1,-3,-1,-1,0,-1,0,0
1517205272866665,-1,-1,-1,0,-2,-4,-1,-1
1517205272888199,0,0,-2,-1,-2,1,-1,0
1517205272888199,-1,-2,-2,-2,0,-1,-1,-2
1517205272889200,1,0,-1,-1,-1,-1,-2,-1
1517205272889200,0,-1,-2,0,-1,-1,-2,0
1517205272902725,-1,0,-2,0,-2,-2,-1,0
1517205272902725,-1,-1,-2,-1,-2,-3,-1,-2
1517205272903220,-1,-1,-2,-2,-1,-3,-1,-1
1517205272903220,0,-2,-1,-2,-1,-1,-2,-2
1517205272925744,-1,-1,-1,-2,-2,-1,-2,0
1517205272925744,0,-1,-2,-2,-3,0,-1,1
1517205272926726,-2,0,-2,-2,-1,-1,0,-1
1517205272926726,1,-1,0,0,0,-1,-1,-1
1517205272948253,0,-2,0,-1,2,0,0,-1
1517205272948253,-3,1,0,0,-1,-1,-2,-1
1517205272949242,-1,-3,-1,-1,-1,-1,0,-1
1517205272949242,-3,-2,-2,0,0,0,0,-1
1517205272962752,-2,-2,-2,-2,-1,-3,-1,-3
1517205272962752,0,-2,0,-2,-2,0,-2,-1
1517205272963253,0,0,0,-2,-1,-1,-1,0
1517205272963253,0,-1,-1,-1,-3,-1,0,-1
1517205272985778,-2,-1,-1,-2,0,-1,-2,-3
1517205272985778,-1,-2,0,1,1,-1,-2,-1
1517205272986769,-1,1,-2,-1,-1,-1,-2,-2
1517205272986769,-1,1,-1,-1,-2,-1,-2,0
1517205273008307,0,0,0,-1,-1,-1,0,0
1517205273008307,-1,-2,-3,-2,-1,-1,0,-2
1517205273009285,0,0,0,-1,-2,-1,-2,-4
1517205273009285,-2,0,-2,0,0,-1,-2,-1
1517205273022301,1,0,-2,0,-1,0,0,0
1517205273022301,-1,0,-1,0,-1,-1,-2,-2
1517205273023295,-1,-1,-1,0,0,-1,1,-1
1517205273023295,-2,-1,0,-2,-1,0,-1,-2
1517205273045827,-1,-1,-1,-1,0,0,-1,1
1517205273045827,0,-3,0,0,0,-2,0,0
1517205273046812,-1,-2,-1,0,0,-3,-1,-1
1517205273046812,1,-2,-1,-1,0,-1,0,-1
1517205273068180,0,-1,0,-1,0,0,-1,-1
1517205273068180,0,-1,-1,-2,-1,0,0,-1
1517205273069174,-2,-1,-2,-1,0,-1,-1,0
1517205273069174,0,-1,-1,-1,-3,-2,-2,0
1517205273082693,-1,1,-2,-1,-1,-1,-2,0
1517205273082693,-1,-1,-2,-1,0,-2,-1,-1
1517205273083185,-2,-1,0,-2,0,-2,-1,-2
1517205273083185,-1,-1,0,-2,0,0,-2,-2
1517205273105727,-1,-1,1,0,-2,-1,-1,-1
1517205273105727,1,-1,0,-1,-1,-1,-2,0
1517205273106740,1,-3,-2,0,0,-1,0,-1
1517205273106740,-2,-1,-1,-2,0,-1,0,-1
1517205273128218,-2,-2,-2,0,-2,-1,-2,-1
1517205273128218,-1,0,-1,-1,-3,-1,-1,-2
1517205273129228,-3,-1,0,0,-2,-1,-1,-1
1517205273129228,1,-2,-1,0,-2,0,-2,-1
1517205273142729,0,0,-1,-1,0,-1,-1,-1
1517205273142729,0,-2,-1,0,-1,0,-1,-1
1517205273143228,0,0,-1,-2,-1,-1,-2,0
1517205273143228,-1,-1,-1,-1,-1,-2,0,0
1517205273165744,0,-1,-1,-1,0,0,-1,-1
1517205273165744,-1,-1,-3,-1,0,-1,-1,1
1517205273166743,-2,-2,-1,-2,-2,-1,0,-3
1517205273166743,0,-1,-1,0,0,-3,-1,0
1517205273188258,-2,0,-2,0,-1,-1,0,-3
1517205273188258,-3,-1,-1,-1,-1,-1,0,0
1517205273188768,1,0,0,0,-1,-2,-1,0
1517205273188768,-1,0,0,-3,-1,-1,-1,0
1517205273202768,-2,-3,-2,0,-3,-1,0,-1
1517205273202768,-1,-1,0,0,-1,0,-3,-1
1517205273203269,-2,-1,-2,0,0,0,0,1
1517205273203269,-1,-2,-2,-1,-2,-1,-1,-1
1517205273225789,0,-3,-2,-1,-1,-1,-1,-2
1517205273225789,-2,-1,-1,0,-1,-1,-2,0
1517205273227288,-1,-1,0,-1,-1,-1,-1,-2
1517205273227288,-1,-2,1,-2,-1,0,0,0
1517205273248300,-3,0,-1,-1,-1,0,-2,-1
1517205273248300,1,-1,-1,-1,0,-1,1,-1
1517205273249814,0,0,-1,-1,-1,0,-2,-2
1517205273249814,-2,0,0,-2,1,-2,0,-1
1517205273261813,0,-1,0,-3,-3,1,-1,-1
1517205273261813,-3,0,-1,-1,-1,-3,-1,-1
1517205273276822,-1,-1,-2,-2,-1,-2,-2,0
