timestamp,emg1,emg2,emg3,emg4,emg5,emg6,emg7,emg8
1514960341745555,0,0,1,-2,-2,-1,-1,-2
1514960341745555,-1,0,-1,0,0,-1,2,-1
1514960341746556,-1,-2,-2,0,0,-2,0,1
1514960341746556,-3,0,-2,-2,-2,-1,-2,2
1514960341759568,0,-1,-2,-1,-1,-3,-4,0
1514960341759568,0,0,-1,-2,-2,0,0,-1
1514960341767571,-1,-2,-1,-1,0,-2,0,-2
1514960341767571,-1,-1,-1,0,-2,-1,0,-2
1514960341782580,-1,-2,-1,-1,-3,0,-1,-2
1514960341782580,-1,-1,-1,-1,0,-1,0,-3
1514960341784581,1,0,0,-1,-1,-2,-2,0
1514960341784581,-2,-1,-1,-3,-1,-2,-2,-1
1514960341805597,-2,-2,-2,0,-1,-1,-1,-2
1514960341805597,-1,0,-3,0,-1,0,1,-2
1514960341806597,-1,0,-1,-1,0,-3,-1,-1
1514960341806597,0,-1,-1,-1,1,-1,-1,-1
1514960341818606,0,-1,1,-1,-1,1,0,0
1514960341818606,0,0,0,-2,0,1,-2,-1
1514960341827618,-2,1,0,-2,-1,-1,-3,-1
1514960341827618,-3,-1,-1,-2,-1,-2,-2,1
1514960341842628,-1,1,-1,0,-1,-1,-2,-2
1514960341842628,-3,-2,-1,0,-1,0,-2,-3
1514960341844626,0,0,-1,0,-4,0,2,-1
1514960341844626,1,-1,0,-1,-2,-1,-1,-2
1514960341865640,-3,0,-1,-1,-1,-3,0,-3
1514960341865640,0,-1,-1,-1,-2,-3,-1,-1
1514960341866641,0,-1,-2,-2,0,0,0,-1
1514960341866641,-1,-2,1,-1,-1,1,1,0
1514960341878668,-2,0,-2,0,0,-2,0,-1
1514960341878668,-2,-2,1,-2,0,-2,0,-1
1514960341895659,-2,-2,-2,0,-1,-1,-1,-3
1514960341895659,-1,0,-1,-2,-2,1,-2,-1
1514960341902677,0,0,-1,-2,-1,0,0,0
1514960341902677,-2,-1,-2,-2,-1,-1,-1,-1
1514960341904678,-3,-3,0,0,0,-1,-3,0
1514960341904678,0,0,-1,-2,-1,-2,-1,-4
1514960341925694,0,-2,-1,-1,-2,-2,-1,0
1514960341925694,0,-1,-1,1,0,0,-2,-1
1514960341926681,0,1,-1,-2,0,-1,0,0
1514960341926681,-2,-2,-1,0,-1,-2,0,0
1514960341948706,-1,2,-3,-1,1,-1,0,-1
1514960341948706,0,-3,-1,-1,0,0,-2,-2
1514960341949697,-2,-2,1,-2,1,0,-1,-3
1514960341949697,-2,0,-1,0,-2,-2,-2,-1
1514960341962725,-3,-1,0,-1,-1,1,0,-2
1514960341962725,-2,0,0,-2,-2,-4,-2,0
1514960341964710,-1,-1,0,-2,1,-1,0,-1
1514960341964710,0,-1,-1,0,0,-2,0,0
1514960341985727,0,0,-2,-1,-2,-2,2,0
1514960341985727,0,-2,-2,-1,0,0,0,-1
1514960341987738,-1,1,-1,-3,-4,-1,0,0
1514960341987738,-4,-1,-1,-1,0,1,-1,-2
1514960342007771,-2,-1,1,1,1,0,-2,-1
1514960342007771,-1,-3,-1,-1,0,0,-1,0
1514960342009741,0,-3,-2,1,-1,-2,-2,-1
1514960342009741,0,-2,-2,-1,-1,-1,-2,0
1514960342022750,-2,0,-1,-1,-1,-2,-2,0
1514960342022750,-2,-2,-2,-1,-2,-1,-1,-2
1514960342024752,-4,-1,-1,1,-1,-1,0,-1
1514960342024752,-1,-1,-1,-1,-1,-1,-1,0
1514960342044769,-1,-1,-2,-1,-1,-2,-2,-1
1514960342044769,-1,-2,-1,-2,-3,-1,-1,-1
1514960342046768,0,-2,-1,-2,-2,-2,-2,-1
1514960342046768,0,-1,0,-1,0,0,1,-1
1514960342058779,-2,-3,-2,-3,0,-2,-1,1
1514960342058779,-1,0,-1,-1,-2,-1,-2,-3
1514960342067796,-2,-1,-2,-2,-1,-1,0,1
1514960342067796,-1,-2,-2,-1,-1,-3,-1,-1
1514960342082829,-2,0,-1,-2,0,-1,-2,-2
1514960342082829,-1,-1,-2,-1,0,-2,-2,-2
1514960342083792,0,-1,-1,-2,0,0,-2,-2
1514960342083792,-2,0,-1,-1,-1,-3,-1,-1
1514960342104865,0,-3,-2,-1,-1,-1,0,-1
1514960342104865,-1,0,-1,1,0,-1,-1,0
1514960342106808,0,0,-1,-1,-1,-1,0,-2
1514960342106808,-2,-2,-1,-1,0,0,0,0
1514960342127824,-1,-1,-1,0,-2,0,-1,-1
1514960342127824,-2,0,-1,-1,0,-1,0,0
1514960342128825,-3,-1,-1,1,0,-1,0,-1
1514960342128825,-2,0,1,-3,-2,0,0,-1
1514960342142836,-2,-1,-2,-1,-2,0,-2,-3
1514960342142836,-1,0,0,-1,0,0,-1,0
1514960342148839,0,-1,0,-2,-1,-1,0,-3
1514960342148839,-1,0,-2,0,-1,0,-3,-1
1514960342172918,-1,-2,-1,-1,-2,0,-1,-1
1514960342172918,-1,-1,0,0,-1,0,0,0
1514960342173886,-1,-1,-1,-1,-1,0,-2,0
1514960342173886,0,-2,1,-2,-2,0,-1,-1
1514960342187928,0,-2,0,-1,0,-3,-1,1
1514960342187928,0,-2,-1,-1,-2,-1,0,-2
1514960342188898,-1,0,-1,0,-1,-2,1,0
1514960342188898,-1,-1,-1,0,-1,-2,-2,-2
1514960342202906,-3,0,-2,0,0,1,-2,-1
1514960342202906,-2,0,0,-2,1,-2,-1,-2
1514960342203879,1,-2,-2,-2,-1,-2,-2,-1
1514960342203879,-2,-2,-1,-1,-2,-2,-1,-1
1514960342225922,2,0,-1,0,-1,-2,-1,-1
1514960342225922,-2,0,-2,-2,0,0,0,1
1514960342226895,-1,-2,-1,-1,-2,0,0,-1
1514960342226895,0,-1,-2,0,-1,-2,-1,-2
1514960342247909,-2,-2,-3,-1,-1,0,0,-1
1514960342247909,-2,-1,-1,-1,-1,-1,-1,-2
1514960342248909,0,-1,-1,-1,2,-1,-1,-1
1514960342248909,1,-3,-2,-1,-1,-1,-2,1
1514960342262933,-2,-2,1,-2,-2,0,-1,1
1514960342262933,1,-1,-2,-1,-1,-1,-3,-1
1514960342263935,-3,-1,-3,-2,0,-2,0,0
1514960342263935,-1,-1,-2,-1,-1,0,-1,-2
1514960342284961,1,-2,0,-2,-1,-2,0,-1
1514960342284961,-1,0,-3,0,0,-2,-1,0
1514960342286936,-2,-2,1,1,-2,0,-2,-2
1514960342286936,-1,-1,-3,-1,-1,-1,-1,-1
1514960342307964,-1,-1,-1,-2,1,0,-2,-1
1514960342307964,-1,-2,-1,0,-3,-1,-1,-3
1514960342308964,-1,0,-1,-1,-1,-2,0,-1
1514960342308964,-3,-1,-1,-2,-1,-1,-1,-2
1514960342321983,-1,-2,0,0,-2,-2,-1,-1
1514960342321983,1,-2,-2,-3,0,-1,0,-1
1514960342335987,-1,-1,-2,-1,-2,0,-2,-1
1514960342335987,-3,-2,-1,0,-1,0,-1,0
1514960342344977,0,-1,-2,1,0,-1,-1,-3
1514960342344977,-1,1,-1,0,-3,-1,-1,-1
1514960342346992,-1,-1,-1,-1,-1,0,-1,-2
1514960342346992,2,1,0,-3,0,-1,-1,-1
1514960342368008,-2,-3,0,-2,-1,1,-1,-3
1514960342368008,-1,-1,-2,-3,-2,-1,1,1
1514960342368993,-2,1,-2,-2,0,-2,-3,0
1514960342368993,0,-1,0,-2,-1,0,-2,0
1514960342382008,1,0,-1,0,-1,-2,-1,1
1514960342382008,-2,-1,2,-1,-1,-1,-1,-2
1514960342389028,0,-2,-1,-1,-3,-2,0,0
1514960342389028,-2,0,-2,-1,0,-3,-1,0
1514960342405039,-2,1,-2,0,-4,0,-3,-1
1514960342405039,-3,0,-2,-2,0,-1,-1,-1
1514960342407024,0,-2,-1,0,-1,0,1,-1
1514960342407024,-1,-3,-2,0,-2,-1,1,-2
1514960342428051,-1,-1,-1,-1,-1,-2,0,-3
1514960342428051,-1,-1,-2,-1,-3,-1,-1,-1
1514960342429037,0,-1,-2,0,-1,-2,-1,-2
1514960342429037,-1,-1,-1,0,-1,-2,-1,1
1514960342450053,-1,-2,-1,-2,0,-1,-3,1
1514960342450053,0,-1,-2,-1,-2,-2,1,-1
1514960342452083,-2,-2,0,-2,0,-2,0,1
1514960342452083,-2,-1,-1,0,-2,-2,-2,-1
1514960342465076,-1,-1,-1,-1,0,1,0,-1
1514960342465076,0,-3,0,0,0,-1,-3,-1
1514960342467086,-2,0,-2,-1,-1,-1,1,0
1514960342467086,0,-1,-1,-1,-1,-1,1,-1
1514960342488146,0,-2,-1,-2,-1,-2,0,0
1514960342488146,-2,-1,-1,-2,-1,-2,-1,-1
1514960342489146,-3,-1,0,0,-3,1,-3,-2
1514960342489146,0,-1,0,0,-2,-1,-2,-2
1514960342502155,-1,-1,-2,-2,1,0,-2,-1
1514960342502155,0,-2,-2,0,-1,0,0,-3
1514960342509180,1,0,0,-1,0,-3,0,-1
1514960342509180,-2,0,-2,-2,-2,2,1,-1
1514960342525172,-1,-1,-3,-1,-1,0,2,1
1514960342525172,-3,-1,0,-1,-1,-1,-2,0
1514960342527176,-1,-1,-1,-1,-2,-2,-2,-1
1514960342527176,0,-2,-1,-3,-1,-1,-3,-3
1514960342547191,-1,0,-1,0,0,-3,-3,1
1514960342547191,-1,-1,-2,-1,-2,-1,1,-2
1514960342549189,-1,-1,-3,0,-2,0,-2,-3
1514960342549189,-1,-1,0,-1,-2,-3,0,0
1514960342562201,-3,-1,1,-1,-2,0,-1,-3
1514960342562201,1,-1,-2,-1,0,-2,-2,0
1514960342569202,0,-1,-1,0,1,-2,0,1
1514960342569202,-2,0,-1,-1,1,1,-2,0
1514960342585276,0,1,-2,-1,-1,0,-4,-1
1514960342585276,-1,-1,-2,-2,-1,0,0,-2
1514960342587228,0,-2,-2,-3,-1,0,0,-1
1514960342587228,-1,-1,-1,-1,-2,-1,0,-1
1514960342615236,1,-2,-2,-3,-2,-2,-1,-1
1514960342615236,-1,0,-1,1,-1,2,-1,-1
1514960342617237,-1,-1,-2,-1,0,-1,-2,-1
1514960342617237,-2,0,-2,0,-1,0,-2,-2
1514960342621242,-3,-2,-2,-1,-1,-1,1,0
1514960342621242,-1,-1,-1,-1,-2,-3,-2,0
1514960342630260,0,-1,-1,-2,-3,-2,-1,-2
1514960342630260,-1,-2,-1,-1,-1,-2,-1,-3
1514960342645258,-1,-2,0,-2,-1,-1,0,-1
1514960342645258,0,-2,-1,-1,0,0,0,0
1514960342646258,-1,1,-1,-1,-1,-2,-1,0
1514960342646258,-2,-1,-2,-2,1,-3,-2,0
1514960342675281,-2,0,-2,0,-2,-2,0,-2
1514960342675281,-2,-1,0,-2,-2,-1,-2,-1
1514960342676277,-1,0,0,-2,-1,-2,0,-1
1514960342676277,0,0,-1,-1,-2,1,0,-1
1514960342681303,1,-1,-1,-2,-2,-2,-1,1
1514960342681303,-1,-3,-2,0,0,-2,0,-1
1514960342690340,-2,-2,-3,1,0,-1,-3,0
1514960342690340,-1,-2,0,-1,-1,-2,0,-1
1514960342705409,-1,-1,-1,-3,-1,-1,1,-1
1514960342705409,-1,0,-1,-3,-2,-2,-1,-1
1514960342706373,-4,-1,-1,-1,-2,0,0,-2
1514960342706373,-1,-2,0,0,-2,0,1,-1
1514960342727371,-1,0,-1,-1,-1,-1,-4,-3
1514960342727371,1,-1,0,-1,-1,-1,-1,-1
1514960342729370,0,-1,-2,-1,-1,-3,-2,1
1514960342729370,0,-2,-2,-2,0,-2,-2,-2
1514960342741377,0,-1,0,-1,0,-1,-3,0
1514960342741377,-3,-1,-2,-1,-1,-1,-2,-1
1514960342750403,0,0,-2,-1,0,-1,1,0
1514960342750403,0,-1,-1,-1,-2,-1,0,-1
1514960342765394,-1,0,-1,-1,-2,1,1,1
1514960342765394,-1,-1,-1,-1,-3,-3,0,-2
1514960342766394,0,-3,-2,-1,-1,-1,-2,-3
1514960342766394,0,2,3,1,-1,-2,-1,-1
1514960342787453,-2,-2,-6,-1,-1,0,1,1
1514960342787453,-3,-2,2,-1,-2,0,-2,-1
1514960342789411,-2,-1,-2,-1,-1,-1,-1,0
1514960342789411,-1,-2,-3,-1,0,-1,0,-1
1514960342801439,-1,0,2,1,-1,0,1,-1
1514960342801439,-1,-1,-2,-1,1,-1,-1,-3
1514960342810446,-1,0,1,-2,-2,-2,-2,-2
1514960342810446,0,-1,-3,0,-1,-1,-2,1
1514960342825436,-1,-1,-1,0,-2,-3,-1,-2
1514960342825436,-1,-2,-3,0,0,0,-1,-2
1514960342826458,0,-2,0,0,0,2,2,-3
1514960342826458,-2,-1,0,-2,-1,-1,-1,0
1514960342847464,-1,-1,-1,-2,-1,-3,-1,-1
1514960342847464,0,-1,-2,-2,-3,-3,-2,1
1514960342849455,-1,0,0,-2,-2,0,-2,-1
1514960342849455,-1,-1,-2,1,0,-1,1,-3
1514960342861492,-2,-1,-1,0,0,-1,-3,-1
1514960342861492,0,1,-2,-1,0,-1,-1,0
1514960342870469,0,-3,-1,-1,0,-1,-1,-2
1514960342870469,0,-1,-2,-2,-1,-1,-2,1
1514960342885507,-2,-1,1,-4,-3,-1,-3,-1
1514960342885507,0,0,-1,-1,-1,-1,1,-1
1514960342886487,2,0,1,0,-2,-1,-2,-2
1514960342886487,-2,-1,-2,-1,-2,-1,-2,0
1514960342907514,-1,-2,-2,-2,0,0,0,0
1514960342907514,-1,-2,0,-2,-1,-1,0,-1
1514960342909500,-2,-2,-3,-1,-2,-1,-4,0
1514960342909500,-2,-2,0,0,-3,-3,-1,0
1514960342921506,0,-2,2,0,-1,-1,1,-1
1514960342921506,-1,-1,-2,-1,-1,-1,0,0
1514960342930510,-2,-1,-1,1,0,0,-1,0
1514960342930510,2,0,-1,-1,-2,-2,0,-2
1514960342952525,-1,-1,-1,1,-1,-3,-3,-2
1514960342952525,-2,-1,0,1,-1,-2,-2,-2
1514960342954544,-2,0,0,0,-1,-1,1,0
1514960342954544,-1,-2,-2,-2,-1,0,-1,-1
1514960342967574,-1,-2,-1,0,0,-1,-2,-2
1514960342967574,-1,-3,-3,-2,0,-2,-1,0
1514960342969576,-2,-2,-1,0,-2,-2,-1,-1
1514960342969576,0,0,0,0,-1,0,0,-2
1514960342981585,0,-3,-1,0,0,0,1,-1
1514960342981585,-2,-1,-2,0,-2,0,-2,-1
1514960342990554,0,0,-2,-3,-1,-2,0,-1
1514960342990554,-1,-2,0,-2,0,1,-2,-1
1514960343005577,-1,0,-4,-1,-1,0,0,-1
1514960343005577,0,0,0,-2,0,-2,-1,-1
1514960343006563,-1,-1,-3,-1,-1,-3,-1,0
1514960343006563,-1,-1,-1,-1,-1,-1,-3,0
1514960343027596,-1,-1,-2,-2,0,-1,0,-1
1514960343027596,-2,-1,-1,-1,0,0,-1,-1
1514960343029590,1,-1,-1,-2,-2,-2,-2,-2
1514960343029590,-3,-1,-2,-1,0,-1,-3,0
1514960343050607,-1,0,-2,-3,-4,0,1,-1
1514960343050607,0,-1,-1,0,-1,0,-1,-1
1514960343051595,-2,0,-1,-1,0,-2,-3,-2
1514960343051595,-2,-1,-2,-1,0,-2,-1,-1
1514960343065628,0,0,-1,-2,-1,-1,2,-1
1514960343065628,-1,-1,0,-1,-2,-2,0,-1
1514960343066607,0,-1,0,-1,-2,1,-1,0
1514960343066607,-2,0,-1,-2,-2,-3,-2,0
1514960343087676,-1,-1,-1,0,0,-2,-1,-1
1514960343087676,-1,-1,0,-1,-2,-1,-2,-1
1514960343089675,-3,-2,-2,1,0,-1,-2,0
1514960343089675,-2,-1,-2,-2,-1,1,0,-1
1514960343117696,-1,0,1,1,-2,-1,-3,0
1514960343117696,-1,-1,-1,-2,0,-2,-1,0
1514960343119697,-3,0,-1,-3,0,-1,-1,-2
1514960343119697,1,-2,-1,-2,-2,0,2,0
1514960343125703,0,0,-1,-2,0,-1,-1,1
1514960343125703,-1,-2,-1,-3,-2,0,0,-2
1514960343126706,-1,-1,0,-2,-1,0,0,-1
1514960343126706,-2,0,-1,-1,0,-3,-1,-3
1514960343147736,-1,-1,-1,-3,-1,-3,-1,-3
1514960343147736,-1,0,-2,0,0,1,0,0
1514960343149737,1,-2,-1,-2,0,0,0,1
1514960343149737,0,-1,0,0,-3,0,1,-2
1514960343169757,-1,-2,-3,-1,0,0,-2,-2
1514960343169757,-1,1,-2,0,0,-2,-1,-1
1514960343171739,1,-1,-2,0,-1,-1,-2,-2
1514960343171739,-1,-2,-1,-1,-1,-2,-2,-1
1514960343184747,-1,-3,0,-2,-1,-2,-3,0
1514960343184747,-2,-1,0,-1,-2,-1,-1,-1
1514960343186745,0,0,-1,-2,-3,-1,-1,-1
1514960343186745,2,0,0,0,-1,-1,-2,-2
1514960343207778,0,0,-4,-2,-1,-1,0,-1
1514960343207778,-2,0,-1,-1,-1,0,-2,-1
1514960343209764,0,-1,1,-1,0,0,0,-1
1514960343209764,-1,0,0,-1,0,-1,-1,-3
1514960343229796,-2,-1,1,1,-2,-1,-3,0
1514960343229796,-1,0,0,-1,-3,0,-3,1
1514960343231785,-2,-2,-2,1,-1,-2,-1,0
1514960343231785,-3,-1,-2,0,-2,-1,-1,0
1514960343244784,-1,0,0,-3,-2,-2,-2,-1
1514960343244784,0,-2,-1,0,0,-1,0,-1
1514960343251806,-1,0,-1,-1,0,-1,-1,-1
1514960343251806,-2,-1,0,-2,-1,-2,0,-2
1514960343267823,-1,-1,0,1,-2,-1,-1,0
1514960343267823,-1,-2,0,-2,-1,0,-2,0
1514960343268811,0,-1,-2,-2,-2,-1,-1,-1
1514960343268811,0,-2,-2,-1,0,0,-2,0
1514960343289875,-3,-2,-3,-1,-1,0,-1,0
1514960343289875,-1,-2,0,-2,-1,-2,-2,-1
1514960343291818,-1,-1,-2,-1,0,-2,1,-1
1514960343291818,0,-1,0,-2,-2,-2,-1,-1
1514960343304875,2,-1,-1,0,-3,-2,-3,-3
1514960343304875,-1,0,-3,0,-1,-2,-1,0
1514960343311833,-2,-2,-1,-1,-3,1,0,-2
1514960343311833,1,-1,-1,-1,-2,0,0,2
1514960343327850,-2,0,0,0,1,1,0,1
1514960343327850,-1,-2,-2,0,0,2,0,-1
1514960343328854,-1,0,0,-2,0,-1,-4,0
1514960343328854,0,0,-2,-2,-2,-1,-4,0
1514960343350890,-1,0,-1,0,0,0,1,-1
1514960343350890,-1,-1,-2,-2,-1,-2,0,-2
1514960343351862,-1,-1,-1,0,-1,-2,1,-2
1514960343351862,-1,-2,-1,0,0,-2,-2,-2
1514960343364901,-2,-1,-1,-1,-1,1,0,-1
1514960343364901,-2,1,-1,-2,-1,-1,-1,0
1514960343370892,0,1,-2,-1,0,-2,0,0
1514960343370892,-3,-1,-1,-1,-2,-1,-2,0
1514960343394902,0,0,0,-1,-3,-1,-1,-1
1514960343394902,0,0,-2,-1,0,-1,3,-2
1514960343396892,-1,-2,-1,-1,-1,1,-1,-1
1514960343396892,0,-2,0,0,1,-3,-2,0
1514960343409906,-1,-3,0,0,-1,-1,0,0
1514960343409906,-2,-1,-1,-1,-1,0,-2,-1
1514960343411903,-2,0,-1,-2,-1,0,-2,0
1514960343411903,1,-1,1,0,-3,0,-1,-2
1514960343424931,-3,-1,-1,-2,-1,-1,-1,-2
1514960343424931,1,0,0,-1,-2,-2,-3,-1
1514960343430918,-1,-1,-2,-2,0,1,-2,-1
1514960343430918,-3,-1,0,-1,0,0,1,0
1514960343447959,0,-1,-1,0,-1,-2,-2,-1
1514960343447959,-2,0,0,-1,-2,-2,0,-1
1514960343448930,0,-2,-1,-1,0,-1,-1,0
1514960343448930,1,0,-1,-2,0,-4,0,-2
1514960343469973,0,-1,-1,-2,-2,0,1,-1
1514960343469973,-1,-1,0,-1,0,0,0,0
1514960343471953,-2,-2,-3,-1,-3,-1,-2,-3
1514960343471953,0,-1,0,-1,0,0,0,1
1514960343484957,-1,1,-1,0,-1,-1,-1,0
1514960343484957,-1,-1,-1,-3,-1,-2,-1,-3
1514960343490958,-1,0,-2,-1,-1,0,-2,0
1514960343490958,-3,-1,-1,0,-1,0,-1,-1
1514960343507971,-2,-1,-3,-2,-1,0,0,-1
1514960343507971,1,-2,-1,0,0,-2,0,0
1514960343508974,-1,-1,1,-1,-1,-1,0,0
1514960343508974,-1,-2,-2,0,-1,-1,0,-2
1514960343529989,-1,-2,-3,-2,-1,-2,-2,-2
1514960343529989,-2,0,-2,-1,-1,-2,-1,-1
1514960343532003,0,-1,-2,-1,0,-3,0,-1
1514960343532003,0,-2,-1,-1,0,-1,-2,-1
1514960343544009,0,-2,0,-2,-1,-2,-3,-2
1514960343544009,-1,-2,-2,-1,-1,-1,1,-2
1514960343560008,-1,-1,0,-2,-1,-1,0,1
1514960343560008,-1,0,-1,-1,-2,0,0,-1
1514960343568014,-2,0,-1,-2,-2,0,-1,-1
1514960343568014,0,-2,-2,-2,-2,-1,-1,0
1514960343569015,-1,0,0,-2,-2,-1,-1,-3
1514960343569015,-2,-2,-2,0,-1,0,-1,-1
1514960343590051,-1,1,0,-3,-1,0,0,-2
1514960343590051,-1,0,-2,0,0,-1,-2,-1
1514960343592033,-2,-1,-1,1,-1,0,-1,0
1514960343592033,-3,-1,1,-1,0,-1,-2,0
1514960343613070,-1,-2,-1,1,-2,-1,-1,0
1514960343613070,-1,-2,-1,-1,-1,-2,-4,-2
1514960343614046,1,0,-2,-1,-1,-2,-1,-1
1514960343614046,-2,0,-1,1,-1,-1,-1,0
1514960343628080,0,-1,-1,-1,0,0,0,0
1514960343628080,-3,-3,-1,-2,-1,-1,0,0
1514960343629071,-2,-1,-2,-1,-2,0,-1,0
1514960343629071,3,0,-2,-2,-3,-1,-1,-1
1514960343650084,-1,-1,-3,-1,-1,-1,-1,-1
1514960343650084,-1,2,-3,-1,-2,-2,0,0
1514960343652087,-1,-1,-2,-1,-1,-2,1,-2
1514960343652087,-1,1,-2,-2,-2,0,-1,-1
1514960343664107,-2,-1,0,-2,-1,-2,0,-2
1514960343664107,0,-2,-1,0,0,0,-2,0
1514960343673089,-1,-3,1,0,-2,-1,-1,-2
1514960343673089,-1,-2,-1,-1,-2,-1,-3,0
1514960343688111,0,-3,1,1,-1,-1,-1,-1
1514960343688111,-2,-2,-1,-2,0,-1,0,1
1514960343689100,-2,0,-3,-2,0,-1,0,0
1514960343689100,-2,0,-2,-1,-2,0,-2,0
1514960343710129,0,0,-1,-1,0,0,-3,-3
1514960343710129,-1,-1,0,-2,-2,-1,1,-2
1514960343712126,-2,-2,-2,0,-2,0,-3,-2
1514960343712126,-2,-1,-1,-1,0,-2,0,-1
1514960343724134,-1,-2,-1,-1,-1,-2,0,0
1514960343724134,-2,-1,0,-1,0,1,-2,2
1514960343733137,-1,-2,0,-1,-2,-2,-2,-1
1514960343733137,-1,0,-1,0,-2,-1,1,-2
1514960343748166,0,-2,-1,-1,0,-2,0,-2
1514960343748166,-1,-1,0,0,-1,0,-2,-1
1514960343749146,0,-1,-1,-2,0,-1,-2,1
1514960343749146,-2,-2,-1,-3,0,-1,-2,-1
1514960343770182,-2,0,0,-1,-1,-1,1,-1
1514960343770182,-1,-1,-1,0,-4,-1,-1,-3
1514960343772182,-1,-1,0,0,-1,0,-2,1
1514960343772182,-2,1,-1,0,1,-1,0,0
1514960343784190,-3,-2,-2,-2,-1,0,-2,-1
1514960343784190,-3,-2,-2,0,0,1,-2,-2
1514960343793172,1,0,0,0,-1,-2,-2,-1
1514960343793172,1,-3,-1,-2,-1,-2,0,0
1514960343808191,-1,-1,-2,-2,-1,0,-1,-2
1514960343808191,1,-2,-2,-1,-1,-1,0,0
1514960343809185,-2,-1,-2,-2,0,-1,-2,-1
1514960343809185,0,-2,0,-2,-2,-1,-1,1
1514960343837227,-1,-1,-1,0,0,-3,-3,0
1514960343837227,-1,-2,-2,1,0,-4,1,0
1514960343839204,-2,-1,-4,0,0,-1,1,-2
1514960343839204,-2,1,-3,-1,-2,0,0,-3
1514960343844222,-1,-1,-2,-2,-2,-1,1,0
1514960343844222,-2,-1,-2,-2,-1,-2,-3,-1
1514960343853228,2,-2,1,0,-1,0,0,0
1514960343853228,-1,-3,0,-1,0,-1,-2,-1
1514960343867250,1,-2,0,0,0,0,0,0
1514960343867250,-2,1,-2,-1,-1,-1,-2,-2
1514960343869232,-1,1,-2,-3,-1,-1,-1,0
1514960343869232,0,0,0,-3,-1,-1,0,-3
1514960343890264,-1,-2,-2,0,-1,-2,0,-1
1514960343890264,0,-1,0,0,-1,1,0,0
1514960343892248,-1,0,-1,0,-1,1,-1,1
1514960343892248,0,-2,0,0,-1,-1,1,-1
1514960343904253,-2,-2,-2,-1,-1,-1,-1,-3
1514960343904253,-1,-2,-2,-2,0,-1,0,-2
1514960343913258,-2,-1,-2,-2,-2,0,-2,0
1514960343913258,-1,0,0,-1,-1,-1,-2,-1
1514960343927292,-1,-1,-2,1,0,-1,0,0
1514960343927292,0,-1,-1,0,-2,-1,-2,-3
1514960343929294,-1,-2,-2,-2,-1,-2,-2,-1
1514960343929294,0,-1,0,-1,0,-2,-2,-1
1514960343950297,-2,0,-1,-2,-1,-2,-2,1
1514960343950297,-1,-3,-2,-2,-1,0,-3,0
1514960343952299,-2,-1,-1,0,-1,-3,0,-3
1514960343952299,-2,-2,-3,-2,-1,0,-1,-2
1514960343964319,-2,-1,-2,-2,0,1,-1,-1
1514960343964319,0,-1,-1,-1,-2,0,0,-2
1514960343972314,0,-1,-1,-2,-1,-1,-3,-2
1514960343972314,0,-1,-1,0,-2,-1,-2,0
1514960343987329,-1,1,0,-1,0,-1,-2,-1
1514960343987329,-1,-1,-1,0,0,-2,0,-1
1514960343989318,-1,-2,-2,0,-2,0,-1,0
1514960343989318,-3,-1,0,0,-1,-2,-1,-1
1514960344010341,-1,-1,-1,0,-2,1,-2,-1
1514960344010341,-2,-1,1,-1,1,-1,-1,-1
1514960344011330,1,-2,1,-2,0,-1,-1,-3
1514960344011330,-1,-3,-3,-2,-1,-1,-2,-1
1514960344032431,-1,-2,-2,-2,-3,-1,2,-3
1514960344032431,-2,0,-2,-1,-2,-2,-2,-2
1514960344034404,-2,0,-1,-2,0,-1,-1,-1
1514960344034404,1,-1,-1,-1,0,0,-2,0
1514960344046419,1,-1,-2,-1,1,-1,0,-1
1514960344046419,-2,0,-3,-1,-2,0,2,-2
1514960344062423,-2,0,0,0,-2,-2,-1,0
1514960344062423,-1,-3,0,-1,0,-2,-1,0
1514960344070432,0,-2,0,0,-1,-2,-3,0
1514960344070432,1,1,-1,-2,-1,0,0,-1
1514960344071432,-2,-2,-1,0,-2,-3,0,-2
1514960344071432,-1,-1,0,0,-2,-2,-1,-1
1514960344092448,-1,0,-3,-1,-2,1,-2,-1
1514960344092448,-2,-1,1,0,0,-2,-1,0
1514960344094449,-1,-1,-1,0,-1,1,-1,0
1514960344094449,0,-2,-2,-1,0,0,-1,0
1514960344115460,-1,0,0,-4,-1,-3,-2,-1
1514960344115460,0,-1,-1,-1,0,-2,-3,-3
1514960344116461,0,-1,-2,0,-1,-1,1,-2
1514960344116461,-3,0,0,0,-1,-1,0,-1
1514960344130494,1,-1,-2,0,-1,-2,-2,-1
1514960344130494,0,-1,-2,-3,-1,-1,-2,-1
1514960344131481,0,-1,-2,-1,-1,-1,0,-1
1514960344131481,0,0,-2,-1,0,1,-2,-2
1514960344152486,-1,-4,-2,-2,0,-2,-1,-1
1514960344152486,-2,0,-2,-1,-1,-3,-2,0
1514960344154498,-1,-3,0,-2,1,0,2,-2
1514960344154498,1,0,-2,-1,-3,-1,-1,-2
1514960344166523,-3,0,-1,0,-2,0,1,0
1514960344166523,0,-3,-2,-1,0,-1,-1,1
1514960344173560,0,1,-2,-1,0,-3,-1,-2
1514960344173560,-2,-2,0,-2,-2,-1,-1,1
1514960344190537,0,-2,2,0,-1,0,0,-2
1514960344190537,1,-2,-2,0,-1,1,-1,-1
1514960344191516,1,0,-2,-1,0,-2,-2,0
1514960344191516,-1,-1,-1,-2,0,0,-3,1
1514960344212558,-2,-1,-2,0,0,1,-2,-3
1514960344212558,-2,-2,-2,0,-1,1,0,-1
1514960344214532,-2,-1,-1,0,-2,-1,-3,1
1514960344214532,-1,-2,-1,-2,-2,-1,-1,-2
1514960344226568,-2,-2,-1,1,-1,-2,-3,1
1514960344226568,-1,-1,-1,-1,-1,0,-1,0
1514960344233568,-2,0,-2,-1,-1,-3,-2,-1
1514960344233568,-1,-2,-2,1,-1,-1,-2,-1
1514960344249559,-1,-1,0,-2,-2,-1,1,-1
1514960344249559,-1,0,-1,-3,-1,-2,-3,-2
1514960344251557,-1,-1,-1,-2,-1,1,-1,0
1514960344251557,1,0,1,-2,-1,-1,0,-1
1514960344279576,-1,-2,-1,-1,0,-4,-2,-2
1514960344279576,0,-3,-3,-3,-3,-3,-2,0
1514960344281577,0,-2,1,-2,0,0,2,-2
1514960344281577,-3,-1,-1,0,-1,1,-1,0
1514960344286604,-2,0,-2,0,-1,-1,-1,0
1514960344286604,-2,-2,-2,0,-3,1,-2,-1
1514960344293588,-1,-2,-1,-1,0,-1,-2,0
1514960344293588,0,-1,-2,0,-1,-3,0,-3
1514960344309610,-1,-2,-2,-2,0,-2,-2,-2
1514960344309610,-1,-1,0,0,0,-1,-2,-3
1514960344311598,0,0,-1,-1,-3,0,-1,1
1514960344311598,1,-1,0,-2,-3,0,-2,0
1514960344339676,-1,1,-2,-4,0,-1,-2,0
1514960344339676,-2,-2,-2,1,-1,-2,-1,-1
1514960344341676,-1,-2,-2,0,-1,0,-1,0
1514960344341676,-1,-1,-1,-3,0,-2,2,-2
1514960344346678,-2,0,-1,-1,-1,0,-1,-2
1514960344346678,-1,-2,0,-1,-2,-1,0,0
1514960344353693,-2,-3,-2,0,-1,-1,-3,-1
1514960344353693,-2,0,-1,0,-2,-1,0,0
1514960344369716,-1,-2,-1,-1,-2,-1,-3,-1
1514960344369716,-2,-2,0,-1,-1,-1,-1,-2
1514960344371696,-3,-2,-1,1,0,-3,0,-1
1514960344371696,-2,-1,-1,-1,-1,-1,-1,0
1514960344392712,1,-1,-1,-1,-1,0,-1,-1
1514960344392712,-2,-1,-1,-1,-1,-2,-1,-1
1514960344394725,1,-2,0,-2,-1,-1,-1,-1
1514960344394725,-1,0,-1,0,0,-1,0,-2
1514960344406779,0,-1,-1,-2,-1,-2,-1,0
1514960344406779,-1,1,-1,-1,-1,0,-1,-1
1514960344413751,0,-1,-1,-2,-2,0,-2,1
1514960344413751,-1,-2,-1,-2,-1,0,1,-2
1514960344429751,-1,-2,0,0,-1,0,-2,-1
1514960344429751,0,-2,-3,-1,-2,-2,-2,-2
1514960344431742,-2,-1,-1,0,0,-1,-1,-1
1514960344431742,-1,-1,0,-2,-2,-1,-1,0
1514960344452782,-3,-2,-1,-2,-2,-1,-1,-1
1514960344452782,-1,0,-1,-3,-1,-1,-3,0
1514960344453762,1,0,-2,-2,-2,1,0,-1
1514960344453762,-1,-2,-2,0,-1,0,-3,0
1514960344466792,0,-2,-1,0,0,-1,2,-1
1514960344466792,0,-2,0,-1,0,-1,1,0
1514960344473797,0,1,1,-1,-2,-2,1,-3
1514960344473797,0,0,-1,-1,-1,-2,-1,-1
1514960344490787,-2,-2,-1,0,0,-1,-1,-1
1514960344490787,-2,-1,-2,-1,0,-1,0,1
1514960344491787,-1,-3,-2,0,-1,-1,-2,0
1514960344491787,2,-1,-1,0,-2,-2,-1,0
1514960344512815,-2,0,-1,-1,-3,-1,-1,-2
1514960344512815,0,-2,1,-2,-1,-1,-3,-2
1514960344513816,-2,-2,1,-3,0,-1,0,0
1514960344513816,-2,-1,-2,0,0,0,1,-2
1514960344526810,-2,-1,-2,0,-1,-1,1,0
1514960344526810,0,-1,0,1,-1,-1,0,-1
1514960344536816,-3,1,-2,-1,0,0,-2,-1
1514960344536816,-2,0,0,-1,-1,-1,-1,0
1514960344557847,-1,1,-1,-2,1,0,-1,-2
1514960344557847,-1,-1,1,-1,-2,-1,0,-1
1514960344558829,0,-1,0,-1,-2,0,-2,0
1514960344558829,-1,-3,-1,-1,-1,0,0,-2
1514960344571875,-2,-2,-2,-1,-2,-1,0,-1
1514960344571875,-3,0,-2,-1,-1,-3,-2,0
1514960344572851,-2,-2,-1,0,-1,-1,-1,-2
1514960344572851,-1,0,-1,0,-1,-1,0,-1
1514960344594853,1,0,-1,-1,-2,-1,-1,0
1514960344594853,-1,-2,-1,-2,-2,-1,-1,0
1514960344595855,-1,-1,1,0,-2,-2,-3,-1
1514960344595855,0,-1,-1,-2,-3,-2,-2,-1
1514960344617870,0,-1,-1,-1,-2,-1,0,-1
1514960344617870,-1,0,-3,-2,0,-2,1,-1
1514960344618875,-1,-1,1,-1,-1,-1,0,-1
1514960344618875,-3,-1,-1,-2,-1,-2,-2,-1
1514960344631886,-2,0,-1,-1,-1,-1,-1,-1
1514960344631886,0,-2,-1,1,0,0,-1,0
1514960344632882,0,-2,-2,0,0,-1,-1,0
1514960344632882,0,-1,0,-1,0,-2,0,0
1514960344654903,1,-2,0,-3,-1,-1,-3,-2
1514960344654903,-1,1,-1,-3,-2,-2,-3,-3
1514960344655903,-2,1,0,-1,0,-3,-2,0
1514960344655903,1,0,1,-1,-1,1,1,0
1514960344670914,-2,-1,-1,0,-1,-3,0,-2
1514960344670914,0,-1,-1,-2,1,0,-1,0
1514960344671916,0,0,-1,-1,-2,-1,-2,-1
1514960344671916,-1,-1,-1,-1,-1,-1,0,-2
1514960344691922,1,-2,-1,0,-2,-2,-2,-2
1514960344691922,-1,-2,0,1,0,-1,-1,-1
1514960344692925,-2,1,-2,-1,-2,0,-1,-1
1514960344692925,-1,-1,-2,-1,-1,-1,-3,0
1514960344713939,0,-2,-1,0,-1,-1,-1,-1
1514960344713939,-1,-1,0,-1,-1,0,0,-1
1514960344721946,-1,-1,-1,-1,0,-1,-2,-2
1514960344721946,-1,-3,-1,-1,0,-3,-2,-2
1514960344728949,0,1,-2,-1,-1,-1,-1,-2
1514960344728949,-1,0,-2,-2,-4,1,-1,-1
1514960344729950,-1,-1,1,0,-1,0,0,-2
1514960344729950,-1,-1,-2,-1,1,-2,-1,-1
1514960344752021,-2,-1,-2,0,0,-2,-1,0
1514960344752021,0,-3,-1,-1,0,-2,-1,1
1514960344752968,0,-2,-2,-2,-3,0,0,-2
1514960344752968,0,-1,-1,0,-2,0,-3,-1
1514960344783002,-2,-1,-3,-3,-1,1,0,0
1514960344783002,-2,-1,0,-1,0,-1,-1,-2
1514960344783002,-1,-2,-2,0,-1,-3,-1,0
1514960344783002,-2,-2,-2,-2,-2,-1,-2,-1
1514960344789015,-1,-1,0,-1,-1,0,0,-2
1514960344789015,-2,-1,-2,0,-2,0,-1,-3
1514960344790004,-1,-1,-2,0,-2,-3,1,0
1514960344790004,-2,2,-1,0,-2,-2,-1,-1
1514960344812021,-1,-2,1,-2,0,-1,-2,-1
1514960344812021,1,-1,-2,-1,0,0,0,0
1514960344813023,-3,-2,-2,-1,-1,-1,-1,-1
1514960344813023,-2,-1,-1,-1,-1,-1,1,-1
1514960344835052,-2,-1,-1,0,0,-1,-2,0
1514960344835052,-2,-1,0,-2,-2,-1,-1,1
1514960344837032,2,1,-1,-2,1,-1,0,-2
1514960344837032,-2,-1,-1,-1,-1,-1,0,-2
1514960344849051,-2,-1,-2,0,-2,-2,-3,-2
1514960344849051,-1,-2,-2,-1,1,0,0,-1
1514960344850052,-3,0,-1,-1,-1,-1,-4,-1
1514960344850052,-1,-1,-3,-1,-1,-3,-2,-1
1514960344872071,-2,0,-1,-2,-1,-1,0,-2
1514960344872071,-1,0,0,0,-2,0,-1,-1
1514960344873071,0,0,-1,-1,0,-1,-1,0
1514960344873071,1,-1,-2,-1,0,0,-1,1
1514960344895075,0,-1,-1,0,-1,-2,-2,-1
1514960344895075,-1,-1,-3,-1,0,0,-2,-1
1514960344896076,0,-1,0,0,-2,-2,0,1
1514960344896076,0,0,0,-1,-2,-1,0,-2
1514960344909077,-1,-3,-2,-2,0,-1,-1,2
1514960344909077,-1,-2,-1,0,-1,-3,-1,-1
1514960344910077,-1,0,0,0,0,-3,-2,-4
1514960344910077,-2,-2,-1,-1,0,-3,1,-2
1514960344932155,-2,-1,-2,-1,0,-1,-1,-3
1514960344932155,-1,-1,1,-1,0,-2,0,-1
1514960344932155,0,-1,-3,-2,-1,1,-1,1
1514960344932155,-1,-1,-1,-1,0,-1,-2,-1
1514960344955215,-1,0,-1,0,-1,-1,-1,0
1514960344955215,-3,-2,-2,0,-1,-1,1,-2
1514960344956199,0,-3,-2,-1,-2,-2,-2,-1
1514960344956199,0,-1,1,-1,-1,0,-1,0
1514960344969195,-2,-1,-1,-1,-2,-1,-1,1
1514960344969195,1,0,0,0,-2,0,1,-1
1514960344970166,-2,-2,-1,-2,0,1,-1,-1
1514960344970166,0,0,-2,0,-2,-1,-2,-2
1514960345000248,-2,-2,-1,-1,-1,0,-1,-1
1514960345000248,-1,-1,-3,-2,-1,0,-1,0
1514960345001217,-1,-1,-1,-1,-1,0,0,-1
1514960345001217,-1,-3,0,-2,-1,-2,-1,-1
1514960345015222,0,1,-1,-1,-2,-2,0,2
1514960345015222,-1,-2,-1,-1,1,0,-1,0
1514960345016201,1,-2,0,0,-1,-1,0,-1
1514960345016201,-2,-1,0,1,0,1,-2,-1
1514960345029288,1,-1,2,0,0,1,-1,-1
1514960345029288,-4,0,-1,-1,-1,0,-1,-2
1514960345030289,-1,1,0,-1,0,-2,0,0
1514960345030289,-1,0,-1,-2,0,-1,-1,1
1514960345060410,-1,-1,-2,-2,0,-1,0,-1
1514960345060410,1,0,0,-1,-2,-2,-4,0
1514960345061388,-3,-1,-2,-2,0,-1,-2,-2
1514960345061388,-2,-2,-2,0,-1,-1,1,-2
1514960345075420,-2,0,-1,0,-3,-3,-1,-1
1514960345075420,0,1,-1,0,-2,-2,-1,-1
1514960345076401,0,-2,-2,-1,-2,0,0,-2
1514960345076401,2,1,-2,-1,-1,0,-1,-1
1514960345089424,-1,-1,-2,-1,1,-2,-2,-2
1514960345089424,-2,-2,-1,-1,-2,-1,0,-1
1514960345090402,0,-2,-2,1,-1,-2,-1,1
1514960345090402,-1,-1,-1,0,-1,-1,-1,-1
1514960345112457,0,0,-2,-1,-1,-1,0,-3
1514960345112457,0,-2,-1,-1,-1,-1,-3,-1
1514960345113421,0,-2,-1,-2,-1,-2,0,0
1514960345113421,-1,-1,0,-1,-1,-1,-3,-2
1514960345135495,-2,-3,-1,-1,-1,0,-1,0
1514960345135495,0,0,0,-1,-1,-2,2,0
1514960345136495,-2,0,0,-1,-2,-1,-2,0
1514960345136495,0,-2,1,-2,-2,0,0,1
1514960345149504,-1,-2,0,-2,-2,-2,0,0
1514960345149504,-1,0,-2,0,-1,0,-4,0
1514960345150502,1,-1,-2,0,-1,0,-1,-1
1514960345150502,-2,-1,-2,-2,-1,-1,-1,-2
1514960345171517,0,0,0,-1,-1,-2,-2,-3
1514960345171517,-1,-2,-1,-2,0,0,-1,-1
1514960345172518,-1,-2,-3,-2,0,-2,0,-1
1514960345172518,-4,-2,-3,0,0,-2,-2,0
1514960345194536,-2,-2,-2,-2,-2,-1,1,-2
1514960345194536,-1,0,-2,-1,0,-4,-2,0
1514960345195535,0,0,-2,-1,0,-1,-1,-2
1514960345195535,0,-1,-1,0,-2,-1,-1,-4
1514960345209557,-2,-1,-2,-1,1,0,1,0
1514960345209557,0,0,-1,1,-2,0,0,0
1514960345210558,-3,-2,0,-2,-2,1,-1,0
1514960345210558,-1,0,-2,-1,0,-2,-1,1
1514960345231579,0,-2,-1,-1,-1,-2,-3,-2
1514960345231579,-1,-1,-1,-3,-2,-1,-1,-1
1514960345232573,1,-1,-1,-2,-2,0,-2,0
1514960345232573,2,0,-2,-1,-1,-2,1,-1
1514960345254586,0,0,-2,-2,-1,0,0,0
1514960345254586,-1,0,0,-2,-2,1,-1,-1
1514960345255577,-1,-1,-1,-1,-2,-3,0,-1
1514960345255577,-1,-1,-1,-3,0,-1,-2,0
1514960345277622,-1,-2,-1,1,0,0,-1,-1
1514960345277622,0,-1,0,-2,-1,-2,-3,-2
1514960345278607,0,-2,1,1,-1,0,-2,-2
1514960345278607,-1,-1,0,-2,-2,-2,1,-2
1514960345291644,-2,-1,0,-1,-1,-2,0,0
1514960345291644,1,-1,-2,0,0,-1,-1,0
1514960345292612,-2,-1,-1,0,-1,-1,-2,-2
1514960345292612,0,-1,-1,0,-2,-1,0,-1
1514960345314626,-1,0,-1,-1,0,-1,-2,-2
1514960345314626,-1,-1,-1,0,-1,1,0,0
1514960345315625,-1,0,-1,-2,-2,-1,0,1
1514960345315625,0,-1,-2,0,0,0,-1,-2
1514960345337659,-1,0,-1,-1,-2,1,-1,-2
1514960345337659,0,-2,-1,-3,-2,-3,0,0
1514960345338638,-3,0,-1,-1,0,-2,0,-1
1514960345338638,-2,-1,-1,-2,-3,-1,-3,-2
1514960345351647,0,0,-1,-1,-2,-1,-1,-1
1514960345351647,-1,1,-3,-1,0,-1,-1,0
1514960345352648,-2,-1,-1,0,-2,-1,0,-1
1514960345352648,0,-1,-2,0,-1,-1,-2,-1
1514960345375663,-1,-1,0,0,-1,-1,-2,-2
1514960345375663,-2,-2,-1,-2,-2,-1,-1,-2
1514960345375663,1,-3,0,0,0,-2,-3,1
1514960345375663,-3,0,1,-1,0,-1,-2,0
1514960345389672,1,-2,-2,-2,-1,0,-2,-1
1514960345389672,1,-1,0,-1,0,0,1,-1
1514960345390672,-2,0,-1,-1,-2,-3,0,0
1514960345390672,0,-2,-2,-1,-1,-2,0,-1
1514960345411686,-2,0,-2,-1,0,-2,0,2
1514960345411686,0,-1,-1,1,-1,-2,-1,-1
1514960345412688,-1,1,0,-2,-1,0,-1,-1
1514960345412688,-2,-2,-1,-2,0,1,0,0
1514960345435704,-1,0,0,-1,1,0,0,-2
1514960345435704,-1,-2,-1,-2,-1,-2,-3,0
1514960345436704,-1,-1,-2,-3,-1,-2,0,-1
1514960345436704,-2,0,-2,-1,-2,-1,-1,0
1514960345449713,0,-1,-1,-2,-2,-2,0,1
1514960345449713,-1,-1,-3,-1,-2,-2,1,-1
1514960345449713,-1,-1,-1,-1,-1,-2,-1,-3
1514960345449713,0,-1,0,-2,0,0,-1,-1
1514960345471729,0,-2,0,-2,-2,-2,-1,0
1514960345471729,-2,0,-1,-2,0,0,-1,-2
1514960345472730,-1,-1,-2,-1,-2,-2,1,-1
1514960345472730,-2,0,-3,0,-1,-2,-1,-1
1514960345502751,-1,0,-1,0,0,1,-2,-2
1514960345502751,-3,-1,1,0,0,0,-2,-1
1514960345503752,-2,-2,-2,-2,0,0,0,-2
1514960345503752,0,-3,-1,0,-2,1,0,0
1514960345509757,0,-3,-1,0,1,0,-1,0
1514960345509757,-1,-1,-1,-1,-2,-1,1,0
1514960345509757,0,-1,-1,-3,0,-1,-3,1
1514960345509757,-1,0,-2,-2,-2,-3,-3,0
1514960345531772,-2,-2,-3,0,-1,-2,1,-2
1514960345531772,0,1,0,0,-2,-1,0,-2
1514960345532772,-1,-1,-1,-2,0,-2,-2,-1
1514960345532772,-1,-1,-1,-2,-1,0,0,-1
1514960345554792,1,-3,-1,-1,-2,-1,-1,-1
1514960345554792,0,0,-1,-2,0,0,0,0
1514960345555788,-1,0,-1,1,0,-1,-1,0
1514960345555788,-2,0,0,-2,0,-2,-1,-1
1514960345568824,-1,0,-1,-2,1,-1,1,-1
1514960345568824,-1,-4,-2,-2,-1,0,-3,-2
1514960345576805,-1,-3,-1,-1,0,-1,-1,-1
1514960345576805,-2,-1,0,-1,0,-1,-1,0
1514960345591818,0,-2,-2,0,-2,-2,-1,0
1514960345591818,-1,-2,0,-2,0,-1,-1,-1
1514960345592815,0,1,0,0,0,-2,0,-1
1514960345592815,-2,-2,-2,-1,-2,0,-1,-2
1514960345614853,-2,1,-2,-1,0,-1,-1,0
1514960345614853,-1,-3,-1,1,-1,-2,-3,0
1514960345615831,-2,-2,-1,0,-1,-1,0,-2
1514960345615831,0,-1,0,-1,-1,-2,1,-3
1514960345628853,-2,-3,-2,-1,-1,-1,-1,-1
1514960345628853,2,-2,-1,-2,0,-1,-2,-2
1514960345636869,-1,-1,-2,-2,-1,0,-1,0
1514960345636869,-1,-3,-2,-1,-1,-3,0,-1
1514960345651871,-1,0,-2,-1,-2,-2,-1,-1
1514960345651871,-3,0,-1,-1,1,-1,-2,-2
1514960345652857,-1,-1,-1,-2,-2,0,-2,-2
1514960345652857,0,-2,-1,-2,-2,-1,-1,-3
1514960345674888,-1,-2,0,0,-1,-1,-1,-3
1514960345674888,-1,-2,-1,-1,-1,-1,0,1
1514960345675874,-1,1,0,-1,-1,-1,-2,-2
1514960345675874,-1,-2,0,0,-1,0,0,-1
1514960345688941,-2,-1,-1,0,-2,0,-2,-1
1514960345688941,-2,1,-3,-2,0,-2,-1,0
1514960345696889,-1,-1,-1,-1,-1,-1,0,1
1514960345696889,-2,0,-1,-3,-1,-1,0,0
1514960345711940,0,0,-2,0,-2,0,-3,1
1514960345711940,-1,-2,-2,-1,-1,1,0,-2
1514960345712901,0,-1,-1,0,-1,0,0,-1
1514960345712901,0,-1,-2,-2,0,0,-1,-1
1514960345735916,-2,-2,0,0,-1,-1,0,-2
1514960345735916,0,-2,-1,-1,-2,-2,0,0
1514960345736940,-2,-1,-3,0,-1,-1,-2,-1
1514960345736940,-2,-1,-4,-1,-1,-1,-1,-2
1514960345748937,-2,-2,-1,-2,0,-1,1,-1
1514960345748937,-1,0,-1,-1,-1,-2,-2,1
1514960345756990,0,-3,1,-1,0,-2,-2,0
1514960345756990,-1,-1,0,1,-1,1,-2,0
1514960345771955,0,0,-2,-2,1,0,-1,-1
1514960345771955,-2,-1,-1,-1,-3,-2,0,-1
1514960345772954,-2,-2,-2,-2,-1,-2,2,-3
1514960345772954,1,-1,-3,-1,-2,0,-4,0
1514960345794963,-1,-2,0,-3,-1,-1,-2,-3
1514960345794963,1,-1,-1,-1,0,-1,-1,0
1514960345795961,-1,0,0,0,-1,0,-1,0
1514960345795961,-3,-1,0,-1,-2,-2,1,-2
1514960345808969,-2,1,0,-1,-1,-1,-2,0
1514960345808969,0,-2,-1,0,-1,0,0,0
1514960345816975,-2,-3,-1,-1,-2,-2,-1,-2
1514960345816975,-1,1,0,0,-1,-2,0,-2
1514960345831987,-2,-3,-1,-1,-1,-1,0,0
1514960345831987,0,-2,-2,-1,-3,-1,0,-1
1514960345832989,0,1,-1,-2,-1,-1,-1,-2
1514960345832989,-1,-2,0,-2,-1,-1,-2,-1
1514960345855000,-1,-1,-1,-2,-2,-1,-1,-1
1514960345855000,-1,-1,0,-1,0,0,-1,0
1514960345856002,-2,-2,0,-2,0,-1,1,1
1514960345856002,0,-1,-1,-1,-1,-1,-2,-1
1514960345869011,-1,-1,-2,-1,-1,-1,-2,0
1514960345869011,-1,-2,-1,-1,-1,-1,0,-1
1514960345877018,0,-1,-1,-1,-2,-1,-2,-1
1514960345877018,-3,-3,-2,-1,0,-2,-1,0
1514960345892027,0,-2,-1,-1,-2,-1,-2,0
1514960345892027,-2,1,-2,0,-3,-1,-2,-2
1514960345893030,0,0,-3,-1,-2,-1,-2,0
1514960345893030,-1,0,-1,-2,-1,-3,-1,0
1514960345915048,2,-1,-1,-2,-1,0,-2,-1
1514960345915048,-1,-1,-1,-1,0,-3,0,0
1514960345916043,-1,-1,-1,-1,-2,0,-2,-1
1514960345916043,-3,-3,-1,-1,-1,2,-1,-2
1514960345937061,-2,-2,-2,-1,-1,-1,0,0
1514960345937061,0,-2,-2,-3,-1,0,-2,-1
1514960345938060,-1,-3,0,-2,-1,0,-1,-1
1514960345938060,0,-1,-1,0,0,-1,-1,1
1514960345952071,-1,1,-2,-2,-2,0,1,0
1514960345952071,-2,0,-1,-1,-2,-1,-1,-1
1514960345953069,-2,-2,-1,0,0,0,-1,0
1514960345953069,1,1,-2,-2,-2,-1,-1,-2
1514960345975086,-1,-2,-1,0,-2,-2,0,-1
1514960345975086,0,1,-1,-2,-1,-1,-2,-2
1514960345976088,0,0,-1,-1,-1,0,0,-1
1514960345976088,-1,-1,-1,-1,-1,0,0,-1
1514960345998103,-2,0,-2,0,0,-1,0,-1
1514960345998103,-1,-3,-1,0,-1,-1,-1,0
1514960345998103,0,-2,1,0,-1,-2,-1,-1
1514960345998103,0,0,-1,-2,-2,-1,-2,-2
1514960346012115,0,-2,-1,0,0,-1,-2,-1
1514960346012115,0,-2,-1,-2,-1,-1,-1,-1
1514960346013114,-2,1,-3,-1,1,-1,1,0
1514960346013114,-2,-1,0,-1,-1,-1,-1,-1
1514960346036131,-4,-2,-1,-1,-1,0,-2,-2
1514960346036131,1,-1,-2,-2,-2,-1,-1,0
1514960346037131,0,-2,-2,0,-2,-1,-1,-1
1514960346037131,0,-1,0,-2,-1,0,1,-1
1514960346058144,-1,-2,-1,-3,-2,-1,-1,-2
1514960346058144,-1,-2,0,0,-1,0,-1,0
1514960346058144,2,-2,-2,0,-2,-1,-1,0
1514960346058144,-3,-1,-1,-2,1,-2,-1,-2
1514960346072153,1,-2,-2,-1,-2,0,-3,-4
1514960346072153,-1,-1,0,-1,-1,-1,0,0
1514960346072153,-3,0,0,-1,-2,-2,-2,-1
1514960346072153,0,-1,-2,1,-1,0,-1,-1
1514960346095184,0,-2,-1,-2,-1,-2,-1,0
1514960346095184,-1,0,0,0,0,-1,0,-1
1514960346096172,-1,-1,-1,-3,-1,0,-3,1
1514960346096172,-2,-2,-1,-1,-2,-1,0,3
1514960346117187,-1,-1,1,-2,-1,-2,-2,5
1514960346117187,-2,0,-2,-2,-2,-3,-2,-6
1514960346118186,-2,-2,-3,-1,-2,-2,0,-2
1514960346118186,-2,-2,-3,0,-1,0,0,-4
1514960346132198,0,-1,-1,-2,-2,1,-1,-1
1514960346132198,0,-2,-1,-1,-1,1,0,5
1514960346133201,0,-2,-1,-3,0,0,-1,-2
1514960346133201,-1,-3,-1,-2,-1,0,-1,-3
1514960346154211,-2,-2,-1,0,-1,-1,-1,1
1514960346154211,-1,0,-1,0,-1,-1,-2,-1
1514960346162219,-1,-1,-2,-1,-1,-2,-1,-3
1514960346162219,-1,1,-2,-1,-2,-1,-3,0
1514960346177229,-2,0,-2,-1,0,-1,0,-1
1514960346177229,-2,-1,1,0,0,-1,-1,-3
1514960346178229,0,-2,0,0,-1,-1,1,-1
1514960346178229,-1,-2,-2,-1,-2,-1,1,1
1514960346192240,-1,1,-1,-2,-3,-1,-2,-2
1514960346192240,-1,-1,-1,0,-1,-2,-4,-2
1514960346192240,0,-1,-1,-1,-2,0,-1,1
1514960346192240,3,-2,-1,-1,0,-1,-2,-3
1514960346215260,0,0,0,0,-2,-1,-2,-3
1514960346215260,-1,-1,-2,-1,-2,0,-1,0
1514960346216256,-1,-1,-1,1,-2,-2,-2,-1
1514960346216256,-2,-2,-2,-1,-2,-2,-1,-1
1514960346237273,0,-2,-3,-1,0,-2,0,-1
1514960346237273,0,-1,-1,-1,0,-1,2,-2
1514960346238271,-2,0,-2,-2,-1,-1,-1,0
1514960346238271,0,-1,1,-2,0,-1,-1,-3
1514960346252296,-2,-2,-1,1,0,-2,1,-1
1514960346252296,-1,-2,-2,-2,-2,0,-2,0
1514960346252296,-1,1,-2,0,1,-2,-1,-1
1514960346252296,-1,-1,-1,0,-1,-1,2,-2
1514960346282305,-4,-1,-1,-1,-1,1,0,-1
1514960346282305,0,-2,-1,-2,-2,-2,-1,1
1514960346283303,-2,-1,0,-1,0,0,-1,0
1514960346283303,0,-2,0,-2,0,-1,-2,-1
1514960346297312,1,0,-1,0,0,-1,-1,2
1514960346297312,0,-1,0,-1,-1,1,-2,1
1514960346298313,-1,1,0,-2,-3,-1,-2,-1
1514960346298313,-1,-1,-1,-2,1,-2,0,-2
1514960346312323,1,-1,-1,0,0,-2,-1,-1
1514960346312323,-2,-2,-2,-3,-1,0,0,1
1514960346312323,0,-2,-1,-1,0,0,0,-2
1514960346312323,-1,-1,-2,-3,-3,0,-2,0
1514960346335341,-1,-1,-2,-2,0,-1,0,-1
1514960346335341,-3,-1,-2,-1,-1,-1,-1,-3
1514960346336363,0,0,1,-1,-1,-2,-2,0
1514960346336363,-1,-2,-1,0,-1,0,-1,1
1514960346358369,-1,-2,-1,-2,-2,0,0,-4
1514960346358369,-2,0,-1,0,0,-1,0,-2
1514960346359360,-1,-2,-1,1,0,0,0,-2
1514960346359360,-2,-2,-1,1,-1,-2,-2,-1
1514960346372366,0,-1,0,-2,0,-1,-2,0
1514960346372366,-1,-1,-1,0,-1,0,0,-2
1514960346372366,1,-3,-2,0,1,-1,-1,0
1514960346372366,0,0,0,-2,-1,-2,-1,0
1514960346395420,-4,-1,0,-2,-3,-2,-2,-2
1514960346395420,-1,-2,-2,-2,-1,-3,0,-1
1514960346395420,0,-1,-1,-2,0,0,-3,-1
1514960346395420,0,0,-1,-1,-1,1,-1,-1
1514960346417441,-1,-1,-1,1,-1,-1,1,-1
1514960346417441,-1,-1,-1,0,-1,0,-2,-1
1514960346418434,-2,-2,-1,-1,-1,-3,0,-2
1514960346418434,-1,-1,-1,0,0,0,-1,0
1514960346447488,-1,-1,-1,-2,0,0,0,-1
1514960346447488,-3,-1,0,0,0,-1,-2,0
1514960346448492,-1,-1,-2,-2,-2,0,0,-1
1514960346448492,-1,-2,-1,-2,-1,-1,0,-2
1514960346455493,0,1,-1,0,0,-1,-1,0
1514960346455493,0,-1,-1,-3,-2,0,1,-1
1514960346455493,-3,-1,-2,-2,-2,0,1,-2
1514960346455493,-2,0,-2,0,-1,0,0,0
1514960346477503,-1,-2,-2,-2,-2,0,-1,0
1514960346477503,-1,0,1,-2,0,0,-2,-2
1514960346478523,-3,-1,-2,-2,-1,0,-3,0
1514960346478523,0,-2,-1,0,-3,0,-1,-2
1514960346500529,-2,-1,-1,0,-2,-1,1,0
1514960346500529,-2,1,-3,-1,0,-2,-1,1
1514960346500529,-1,-1,-1,-2,-1,1,-1,2
1514960346500529,-1,1,-1,-2,1,-1,-1,0
1514960346514542,1,-1,-2,-1,0,0,-3,-3
1514960346514542,-1,-3,-1,0,0,-1,0,-3
1514960346515535,0,-1,0,0,-1,-2,-1,-1
1514960346515535,-3,-1,-1,-2,0,-1,-1,-2
1514960346537616,-2,-1,0,-3,0,-1,-1,-2
1514960346537616,1,-1,1,-1,-2,1,0,-1
1514960346537616,-1,-1,-1,0,0,0,-1,1
1514960346537616,0,-1,-2,-1,-2,0,-3,0
1514960346559615,0,0,0,-2,-2,-4,-2,0
1514960346559615,0,0,-2,-1,-1,1,0,0
1514960346560615,-1,-1,1,-2,-2,-1,-2,-2
1514960346560615,-3,0,-1,-2,-1,-1,-2,-2
1514960346574626,-2,0,-2,-1,-1,-1,-3,-1
1514960346574626,0,-1,-1,-1,-2,-2,-1,-3
1514960346575627,1,-2,-1,0,-1,0,-1,0
1514960346575627,-3,-1,-1,-1,0,-2,0,0
1514960346597642,-1,0,-1,-1,-2,0,-1,-1
1514960346597642,-2,-2,-1,-1,-1,-3,-1,-1
1514960346598657,1,0,-1,1,-1,0,-1,-2
1514960346598657,1,-3,0,-1,-1,0,0,-1
1514960346611663,-1,-2,-1,0,0,0,-2,-2
1514960346611663,-1,0,-2,-1,0,0,-1,0
1514960346620661,-2,-2,-1,-1,-3,1,-2,-2
1514960346620661,-2,-1,-1,-1,-2,0,-2,-2
1514960346635670,-2,0,1,-2,-2,0,-1,-2
1514960346635670,0,-1,-1,-1,-1,-1,-2,-1
1514960346637672,-2,0,0,-1,2,-1,0,-1
1514960346637672,-1,-1,-2,0,-3,-1,0,-1
1514960346657709,-2,-2,0,0,-1,-1,0,-1
1514960346657709,-1,0,-3,0,-1,-1,-1,0
1514960346659691,-2,-1,-1,-1,0,-2,-3,-2
1514960346659691,0,-2,-2,-1,-2,-2,-1,0
1514960346670708,-1,0,0,-1,-1,-2,-2,0
1514960346670708,-1,-1,-1,0,-1,0,-4,-1
1514960346679699,1,-1,-2,-1,-1,-1,-2,-2
1514960346679699,0,-2,-1,-1,0,-2,-2,-1
1514960346694721,-2,-2,-3,-1,-2,1,-1,-3
1514960346694721,-2,-1,1,-2,-3,-1,0,-1
1514960346696711,-1,0,0,-1,-2,0,1,0
1514960346696711,-2,0,-1,0,0,-2,1,-2
1514960346724748,2,-1,-2,0,1,-1,1,2
1514960346724748,0,-1,0,1,-2,-2,-1,0
1514960346726734,-1,-1,-3,-2,-1,-2,0,-2
1514960346726734,-3,-1,-1,-2,-1,0,0,-3
1514960346730765,-1,-1,-1,0,-2,-1,-2,-1
1514960346730765,1,-2,-2,0,-1,0,0,-1
1514960346739804,-1,0,-1,-1,-1,-2,-1,1
1514960346739804,-2,-1,0,-2,0,-1,-1,-1
1514960346754782,0,-3,0,-2,0,-2,-1,-1
1514960346754782,-1,-1,0,-2,-1,1,0,-1
1514960346756756,0,0,-1,-1,-3,0,0,-2
1514960346756756,0,0,-1,0,0,-1,-2,0
1514960346777773,0,0,-1,0,-3,-1,-2,-1
1514960346777773,-2,-3,-2,-2,-2,0,-1,1
1514960346778774,-1,-2,-1,-2,-1,1,-3,0
1514960346778774,-1,-2,-1,0,-3,-2,-1,-1
1514960346790843,-1,0,0,-2,-3,-2,1,0
1514960346790843,-1,0,-1,-2,-1,-3,0,-1
1514960346799805,-2,-2,-1,-1,-2,-2,0,-2
1514960346799805,-2,-1,0,-1,-1,-2,-1,-2
1514960346814815,-4,-3,-1,-2,0,-1,-1,-1
1514960346814815,1,-1,-2,0,-2,-2,0,0
1514960346816797,-1,-1,-1,-1,0,-2,-3,0
1514960346816797,-1,-1,-1,0,-1,-1,-1,-1
1514960346837814,-2,-1,-2,-1,-2,-1,0,0
1514960346837814,0,0,-1,-2,-1,0,-1,-1
1514960346838813,0,-1,-1,-1,1,0,-1,-1
1514960346838813,0,-1,-1,-3,-1,1,0,-1
1514960346859844,-1,-2,-1,-3,-1,-1,-2,-2
1514960346859844,-3,-2,-2,-1,1,-2,-2,-1
1514960346861843,-1,-2,-1,-1,-1,-3,-3,-1
1514960346861843,-1,-1,-1,0,-3,1,-1,-3
1514960346874837,-2,-1,-1,-2,-2,-1,0,-1
1514960346874837,-2,-2,0,-1,-2,-1,-1,-3
1514960346888910,-1,-1,-1,0,0,-3,0,0
1514960346888910,1,0,-3,0,-1,0,-2,-2
1514960346897866,1,1,-1,-3,-1,1,-1,-1
1514960346897866,0,-1,-1,-1,0,-2,-1,-1
1514960346898870,-1,-2,-2,-2,-1,-1,-1,-1
1514960346898870,-2,-1,-2,-3,-2,-3,-2,-1
1514960346919877,-1,-1,-1,1,-1,-2,0,1
1514960346919877,0,-2,-1,-2,-2,-1,0,-1
1514960346921871,-2,0,-2,-1,-2,-1,-1,-1
1514960346921871,-1,-1,-2,-1,-1,0,-1,-2
1514960346935906,-1,-2,-2,-1,-1,-1,-1,1
1514960346935906,-1,0,-1,-1,0,-1,-2,2
1514960346937882,-2,0,0,-2,-2,-2,-1,-2
1514960346937882,-2,-2,-1,-2,-1,-1,0,1
1514960346957917,-2,0,-1,-3,-1,-2,0,-1
1514960346957917,-2,-1,-1,-2,-1,0,0,0
1514960346958898,-1,-3,0,-2,-2,0,-1,-1
1514960346958898,-1,-3,-1,0,-1,-1,-2,0
1514960346979923,0,-1,-1,0,-1,-1,-3,-3
1514960346979923,0,-2,-2,-2,0,0,-3,-1
1514960346981935,-2,0,1,0,-1,-1,1,0
1514960346981935,-1,-1,0,-1,-1,-2,-2,-1
1514960347002939,-1,-4,-1,1,-2,-3,-2,-1
1514960347002939,-2,0,-2,-2,-2,-2,-2,-1
1514960347003930,0,-2,-1,0,-2,-1,-2,-2
1514960347003930,1,0,-1,-1,-1,-1,-1,-1
1514960347017952,-1,-1,-1,-1,0,-1,-1,0
1514960347017952,1,-2,-1,-1,-1,-1,-1,-1
1514960347018956,-2,0,-3,-2,-3,-1,-2,0
1514960347018956,-1,0,-2,1,-1,-1,-1,0
1514960347039977,1,0,-1,2,0,0,-1,-3
1514960347039977,0,1,-2,-4,-1,0,-2,-1
1514960347041966,-2,-1,-2,2,-1,-1,-3,-1
1514960347041966,-2,-1,-2,-6,-2,-2,0,-1
1514960347053965,0,-1,-3,-2,-1,-2,0,1
1514960347053965,-1,-1,1,1,-1,-1,-3,-1
1514960347060971,0,-2,0,-1,-1,0,-1,0
1514960347060971,-1,0,0,0,1,-1,-1,0
1514960347077990,0,-1,-2,0,0,-3,-1,-1
1514960347077990,-1,-1,-2,-1,-2,1,-1,0
1514960347078987,-1,-1,0,-2,-1,-1,1,-3
1514960347078987,0,-1,-3,0,0,-3,-3,-3
1514960347100026,-4,-1,0,-1,-2,-1,-2,0
1514960347100026,0,0,-2,-1,-1,-1,-1,0
1514960347101999,-1,-2,-1,-1,-1,-1,-1,-1
1514960347101999,-2,-3,-2,-2,0,0,0,-1
1514960347114038,-1,-1,0,-3,-1,-1,0,-3
1514960347114038,-2,0,-2,1,-1,-1,-1,-1
1514960347121042,-1,0,-3,-1,-1,0,-2,-1
1514960347121042,-2,-1,-1,0,-1,1,0,-1
1514960347138053,0,-1,-3,-3,-2,1,-2,0
1514960347138053,-1,-2,0,1,0,0,1,-2
1514960347139026,-1,-1,0,0,-1,-3,-2,-1
1514960347139026,0,0,-3,-6,1,-1,-1,0
1514960347160069,-1,-1,0,-1,-1,-2,-1,1
1514960347160069,0,0,3,1,-2,-1,-1,-3
1514960347162042,-1,-2,-2,-1,1,-1,-1,-1
1514960347162042,0,-1,-2,0,-3,-1,-2,-2
1514960347174053,-1,-2,-1,-1,-3,1,-2,-1
1514960347174053,-1,-1,-3,-4,-2,-4,-1,-1
1514960347181066,-1,-1,2,3,-5,-1,-2,-1
1514960347181066,-1,-1,-1,2,1,-2,-1,-2
1514960347197067,0,0,-1,1,-1,1,0,-1
1514960347197067,0,0,1,4,-1,-2,0,-1
1514960347199067,0,1,-7,-23,-2,1,-1,1
1514960347199067,-1,-3,-3,0,-3,-1,-1,-1
1514960347221082,-1,0,3,3,-3,-3,-1,-2
1514960347221082,0,-1,-1,-1,4,2,0,0
1514960347222093,0,0,-1,-1,-1,-1,0,-4
1514960347222093,0,-2,2,-4,-2,-1,-1,-1
1514960347234119,1,1,5,3,0,-1,-1,0
1514960347234119,-2,-3,-11,-1,-1,-2,-2,-1
1514960347241118,-2,-3,7,4,-2,-2,-3,-1
1514960347241118,-2,2,8,14,0,-1,0,-2
1514960347257107,-1,-2,8,-20,-1,-1,0,0
1514960347257107,0,3,8,1,-3,-1,-2,0
1514960347259111,-1,-5,-19,7,-2,-1,-3,-2
1514960347259111,0,2,14,0,-2,-1,0,-1
1514960347280147,-3,-4,-2,7,5,-2,-2,-3
1514960347280147,-2,-5,-17,-31,-7,-3,1,0
1514960347282126,2,4,13,6,4,0,2,1
1514960347282126,-3,-2,-16,0,-1,-3,-1,-1
1514960347294135,-1,-1,3,3,-3,-2,0,1
1514960347294135,-1,-1,10,0,-1,-2,-1,0
1514960347301164,-2,-3,5,6,-1,-1,-2,-2
1514960347301164,-1,-2,-25,-5,-4,-2,-1,-1
1514960347317152,3,-1,-3,3,0,0,-2,0
1514960347317152,-4,0,8,-7,-3,-1,-1,-2
1514960347319177,-1,-2,-6,-7,1,-1,-1,0
1514960347319177,2,-1,4,-6,1,0,0,-1
1514960347340191,3,0,-6,-6,-4,0,-2,1
1514960347340191,-3,-4,-13,11,-2,-2,-1,-1
1514960347342170,-2,2,12,6,3,-1,-1,-1
1514960347342170,-3,-1,13,-10,-2,-1,-2,0
1514960347354176,0,-3,0,-2,-1,0,-2,-2
1514960347354176,1,2,14,17,3,2,1,0
1514960347363182,-4,-1,-5,-25,-3,-1,-1,-2
1514960347363182,6,2,3,13,-1,-3,0,-2
1514960347377194,0,-1,-18,-13,-2,-2,0,0
1514960347377194,-12,-1,5,8,0,0,-1,-1
1514960347379219,-4,-9,-9,1,-1,-1,-2,-1
1514960347379219,4,0,1,-6,0,1,0,1
1514960347400209,-5,-3,2,12,0,-1,0,-2
1514960347400209,5,-1,-7,-13,0,-1,-2,-3
1514960347401220,-3,1,-12,14,-2,-2,-1,0
1514960347401220,-2,-2,0,-20,-3,0,-1,-2
1514960347413218,-3,2,5,1,-3,-4,-3,-3
1514960347413218,1,-2,-12,1,1,2,0,1
1514960347422244,8,-4,-3,-4,-3,-3,-1,-4
1514960347422244,-3,3,3,5,-1,2,-1,-3
1514960347445240,-4,-6,-16,-6,2,1,0,0
1514960347445240,8,2,16,0,-4,-1,-2,0
1514960347446250,-4,2,1,-6,-2,-1,1,1
1514960347446250,0,-9,-13,-2,-4,-4,-4,-5
1514960347460261,3,-4,7,0,2,-1,0,-2
1514960347460261,0,1,4,3,0,-3,-1,0
1514960347461261,9,3,-5,-4,-2,0,0,1
1514960347461261,-8,-6,-63,-13,-1,-3,2,0
1514960347473283,3,1,21,10,-2,3,-4,-2
1514960347473283,2,-5,-19,-7,0,-3,-2,-1
1514960347482285,-4,5,30,12,1,0,-1,-4
1514960347482285,-4,0,-4,5,-1,-1,-1,0
1514960347497287,-4,-4,-20,-16,-1,-1,1,-1
1514960347497287,-2,-4,0,0,-2,-2,-2,-1
1514960347499288,-1,-1,3,-11,-2,0,1,-1
1514960347499288,0,1,14,-3,4,0,-1,-2
1514960347520316,-1,0,3,7,-1,-1,0,0
1514960347520316,5,1,3,-1,-2,-3,-3,-1
1514960347521295,-19,-4,-4,1,0,1,0,0
1514960347521295,9,1,14,6,2,2,-3,-3
1514960347533321,-8,3,1,1,1,-1,2,0
1514960347533321,-9,-7,-9,-10,-3,-2,-1,-2
1514960347542322,8,8,10,7,1,0,0,0
1514960347542322,-4,-3,-30,3,-2,-3,-1,1
1514960347557342,-16,-5,11,-17,-4,-3,-3,-1
1514960347557342,15,3,7,12,-1,1,-2,-1
1514960347559321,2,-6,-5,-14,-1,-3,-3,-1
1514960347559321,-6,0,19,14,-1,0,0,-1
1514960347580346,2,4,5,-7,-1,-1,-1,1
1514960347580346,-7,-6,-19,1,-2,-1,-1,0
1514960347581346,6,0,8,-3,-4,-2,-5,-1
1514960347581346,-17,-5,10,-2,0,-1,-1,-2
1514960347593345,2,0,0,17,-2,-4,0,-1
1514960347593345,-6,-3,5,-15,2,2,1,-1
1514960347602353,11,1,-9,0,0,-1,0,-1
1514960347602353,3,6,11,-4,-2,-1,0,2
1514960347617365,-10,-10,3,7,-1,-1,-1,-5
1514960347617365,-5,-6,-20,7,-1,-3,-2,-3
1514960347619363,-1,1,-21,-6,-5,-3,-1,-1
1514960347619363,20,4,6,3,0,1,0,3
1514960347640381,-12,-1,9,-4,0,0,-1,0
1514960347640381,-8,3,18,3,0,2,-2,-2
1514960347641379,-7,-8,-11,7,0,0,1,-3
1514960347641379,4,-2,2,-7,-1,-3,-3,-1
1514960347653387,9,4,-2,27,0,-1,2,1
1514960347653387,1,3,-6,-28,-3,0,-1,-1
1514960347662416,-21,-8,-14,3,4,1,-1,-1
1514960347662416,1,-5,2,-2,-3,-1,-3,-3
1514960347677405,1,-1,-8,-1,-5,-3,-2,-1
1514960347677405,-1,0,-3,-6,-5,-2,-1,-1
1514960347679411,13,8,10,-7,4,3,2,0
1514960347679411,-17,-1,60,10,4,3,3,-2
1514960347700422,2,-11,-85,-22,-8,-4,-3,-4
1514960347700422,9,-1,14,13,4,-3,-1,0
1514960347701422,13,4,9,0,-3,-2,0,-1
1514960347701422,-15,3,5,10,-3,-3,-1,-1
1514960347713431,4,-3,13,-8,5,2,-1,0
1514960347713431,16,5,1,2,-1,1,0,2
1514960347722458,-23,-9,11,8,-2,-3,-2,-3
1514960347722458,-7,-7,-54,-20,-1,-1,1,-4
1514960347737466,17,-1,30,-2,-6,-3,-3,-2
1514960347737466,-13,-7,-22,-22,-8,-6,-4,0
1514960347739472,15,14,17,4,1,0,-2,-2
1514960347739472,8,-6,-10,3,-4,-2,-1,2
1514960347760477,16,10,10,9,1,-1,2,2
1514960347760477,-15,-7,-21,-20,3,3,-1,1
1514960347761479,-10,-9,-7,-5,-5,-3,-5,-15
1514960347761479,-5,-6,2,-3,-1,-1,-2,-2
1514960347773475,5,7,2,-4,2,0,-1,0
1514960347773475,5,6,50,29,-1,-1,2,5
1514960347782479,-5,-4,-38,-16,-3,-1,0,-1
1514960347782479,1,-3,-4,-4,0,-1,-2,-2
1514960347797515,-4,0,0,-5,-1,-1,-1,4
1514960347797515,-2,-7,-1,6,-1,-1,-1,-1
1514960347799494,-15,-8,-1,5,-1,0,-3,-4
1514960347799494,-34,-6,-1,-3,-2,-2,2,0
1514960347820523,16,-4,-4,-3,-4,-1,-5,-2
1514960347820523,-4,6,0,3,0,1,0,3
1514960347821506,6,8,11,15,0,-1,-1,-2
1514960347821506,8,-8,-8,-9,-4,-2,8,2
1514960347842522,-18,-6,-71,-25,-7,-3,-2,-8
1514960347842522,-8,-9,8,17,1,-1,-3,-3
1514960347844523,7,-9,-27,-22,-7,-2,-2,3
1514960347844523,24,19,8,3,2,3,1,8
1514960347856549,-13,-4,16,3,3,1,-6,-5
1514960347856549,0,6,37,4,-4,-4,-5,6
1514960347865537,-8,-10,-24,0,2,1,15,5
1514960347865537,11,2,-21,3,-3,-1,-15,-12
1514960347879550,14,-9,-40,-18,-5,-4,-9,1
1514960347879550,29,16,37,7,-1,3,14,9
1514960347881548,-56,-17,27,7,1,-7,-22,-16
1514960347881548,-2,-4,6,-2,-2,1,15,1
1514960347902564,-1,1,-3,1,1,-3,-11,-2
1514960347902564,30,5,-50,-16,-1,-2,6,1
1514960347904589,-8,-2,13,4,-1,1,-5,-3
1514960347904589,7,2,-8,-1,-1,-3,-5,0
1514960347917597,-6,9,6,12,1,0,1,-1
1514960347917597,-4,0,-8,-5,0,-2,-2,-5
1514960347919586,15,4,20,3,0,-1,3,-2
1514960347919586,-21,-4,-6,-4,-4,0,-4,-1
1514960347939611,4,-4,11,12,1,2,6,-4
1514960347939611,-32,1,-13,-18,-5,-4,-10,-4
1514960347941591,12,-5,-22,-2,-3,0,6,4
1514960347941591,16,-16,-1,-13,-4,-5,-6,4
1514960347962607,-20,-4,16,0,3,2,6,2
1514960347962607,5,6,-32,6,3,-1,-8,-14
1514960347964607,-29,-9,13,-18,-10,1,7,-1
1514960347964607,19,15,1,-2,-4,-10,-28,-3
1514960347976616,39,25,16,-2,0,0,6,3
1514960347976616,-82,-41,0,25,-1,-4,13,3
1514960347983624,14,-6,-7,-4,2,4,-4,0
1514960347983624,12,16,3,-6,2,2,1,-1
1514960347999642,-30,-15,-9,3,-1,-2,3,-1
1514960347999642,35,16,8,-11,-1,-1,-7,-2
1514960348001656,12,10,-5,8,5,4,6,6
1514960348001656,-32,-22,1,0,-5,-5,-2,0
1514960348022767,-1,15,8,8,0,-1,-3,5
1514960348022767,35,8,29,-5,-2,1,4,4
1514960348023705,0,-12,-47,-10,-5,-5,-4,1
1514960348023705,24,12,21,24,11,8,5,-7
1514960348036713,-21,-26,-17,-28,-6,-5,0,-13
1514960348036713,20,-13,40,4,-7,-5,-5,3
1514960348051720,9,29,11,6,2,-1,-4,11
1514960348051720,-9,-21,7,25,-3,-2,1,-9
1514960348061726,-20,18,10,-5,9,7,3,4
1514960348061726,-2,-5,-27,2,-1,-4,-3,-6
1514960348062727,-26,20,7,0,1,-4,-4,-2
1514960348062727,0,-25,0,0,-4,-2,5,4
1514960348082751,-8,24,5,-4,2,-1,-2,-4
1514960348082751,-10,-33,-36,-12,-9,-7,-10,-7
1514960348083766,24,29,11,-13,3,2,2,5
1514960348083766,-26,-30,-3,1,-5,-7,-7,-13
1514960348096801,24,-2,11,15,-3,-2,-1,6
1514960348096801,-2,12,-11,-14,-2,2,0,-6
1514960348110818,-18,-14,-5,7,3,2,-2,-5
1514960348110818,14,14,-2,-21,-1,-1,1,3
1514960348119824,3,6,22,0,1,0,0,2
1514960348119824,20,6,-20,13,-2,-1,2,-1
1514960348121825,-38,-43,-16,-11,-3,-4,-1,-1
1514960348121825,-1,41,11,0,0,1,2,-3
1514960348142854,-29,-26,18,18,3,-1,0,-1
1514960348142854,6,22,-1,-5,-3,2,1,15
1514960348143834,24,-20,3,-15,-4,-1,-5,-27
1514960348143834,-22,4,-29,-13,-1,-4,-1,11
1514960348164852,15,14,-21,-6,-8,-5,0,0
1514960348164852,37,26,14,5,3,5,4,8
1514960348166850,-56,-14,9,14,-3,-6,-7,-3
1514960348166850,-1,-5,1,-5,1,2,3,-4
1514960348179859,-28,0,-9,-3,-2,-1,-1,-3
1514960348179859,-7,-3,-12,-8,1,-1,-2,0
1514960348181885,55,20,1,3,1,0,3,4
1514960348181885,-30,5,4,12,3,3,-1,-1
1514960348202946,5,-9,7,-1,-4,-2,-2,-1
1514960348202946,-14,-5,-20,-2,4,-1,-3,-13
1514960348203876,29,8,-13,-5,4,-2,0,3
1514960348203876,-74,-5,8,-5,-3,1,1,1
1514960348224948,-2,9,-10,-2,-3,-5,-8,-14
1514960348224948,-14,-11,23,18,1,0,1,11
1514960348226951,17,36,-19,-17,9,4,2,-3
1514960348226951,2,-50,-29,-16,1,-1,-1,-4
1514960348239933,40,-8,13,4,-5,-1,2,4
1514960348239933,-62,14,23,29,3,-2,1,-3
1514960348241912,-5,-4,-33,-18,-7,-5,-5,-1
1514960348241912,27,5,14,7,-3,-4,1,-4
1514960348262942,27,3,1,14,1,0,-2,-3
1514960348262942,-20,7,-15,-25,2,0,3,5
1514960348263919,-5,-27,21,11,-9,-7,-8,-3
1514960348263919,49,23,-15,-11,-1,1,-1,1
1514960348276931,-1,-53,-2,4,1,1,3,9
1514960348276931,8,4,-8,-6,-2,-2,-4,-17
1514960348283957,-23,0,10,10,0,1,5,5
1514960348283957,9,-1,0,-9,-1,-2,1,4
1514960348299968,-18,12,34,-1,-6,-3,-4,-5
1514960348299968,11,-22,-52,-18,-2,-1,-3,-4
1514960348301946,28,9,8,5,1,-2,1,5
1514960348301946,3,-8,3,-4,5,0,-3,-9
1514960348329966,-19,0,-4,2,-3,0,4,3
1514960348329966,-34,-20,22,9,-4,1,1,-4
1514960348331972,32,-2,-39,-8,2,-5,-7,-21
1514960348331972,33,23,47,13,-13,-4,3,17
1514960348335992,-16,-3,-17,-41,5,-2,-4,-4
1514960348335992,-26,-6,8,3,4,5,4,1
1514960348344975,40,30,26,24,0,2,2,11
1514960348344975,-75,-25,-22,-15,-4,-4,-3,4
1514960348359998,9,-43,-12,2,-2,-1,-9,-17
1514960348359998,22,5,-3,-5,-3,-2,1,15
1514960348361998,-12,-23,21,-1,1,1,0,-16
1514960348361998,-6,28,-15,6,0,-2,1,10
1514960348390031,18,14,0,1,-4,-3,0,3
1514960348390031,10,0,6,-1,-1,-3,-5,-3
1514960348392011,-6,-25,-4,-3,-6,0,-2,2
1514960348392011,-36,11,-9,-2,-2,-3,-2,12
1514960348396014,-5,18,-34,32,3,3,2,-21
1514960348396014,45,26,13,-42,-3,0,-2,10
1514960348405021,-34,-27,7,11,1,-1,0,1
1514960348405021,32,-23,18,-10,4,1,-2,-10
1514960348420086,-36,-8,18,-4,-3,-2,-1,6
1514960348420086,5,16,7,23,2,-1,-1,-6
1514960348422081,24,18,5,-18,-2,3,3,13
1514960348422081,-35,-85,10,38,10,12,9,11
1514960348443047,63,40,-31,-40,-4,-6,2,18
1514960348443047,-70,-17,22,0,0,-2,-6,-17
1514960348444047,14,16,-12,-7,-6,-2,4,22
1514960348444047,9,36,-24,-1,-1,-6,-7,-42
1514960348456083,-19,-12,10,2,-2,-2,-2,8
1514960348456083,-15,-7,-8,1,-5,-3,-2,1
1514960348465062,18,-3,3,6,-3,-3,-1,5
1514960348465062,-19,18,-11,0,-1,0,-1,-14
1514960348480071,-54,-27,12,6,-5,-8,-9,-10
1514960348480071,-15,12,-19,-10,-3,-4,2,16
1514960348482072,-19,8,5,15,-4,-5,-6,-38
1514960348482072,56,15,-19,-9,1,0,-2,9
1514960348502101,-54,-31,19,14,-3,1,2,1
1514960348502101,25,15,-14,-16,8,5,2,9
1514960348504090,-33,5,5,11,-2,-4,-1,-10
1514960348504090,-12,-25,-29,21,-2,-3,1,4
1514960348516096,15,-2,35,-10,-1,-4,-8,-4
1514960348516096,17,-6,-48,-1,4,5,4,-1
1514960348525163,-66,-33,32,-4,-5,1,-2,-9
1514960348525163,13,4,-20,12,-12,-7,-3,10
1514960348540219,8,41,62,-34,14,8,1,-11
1514960348540219,-32,-74,-44,6,-8,-6,-7,-5
1514960348542173,36,45,80,-2,3,-1,-3,-4
1514960348542173,-38,-40,-11,11,1,4,5,14
1514960348562191,31,8,-71,0,-5,2,3,-14
1514960348562191,12,26,22,-1,0,1,0,5
1514960348564194,-43,0,-34,0,4,4,3,4
1514960348564194,2,12,21,-15,-3,-2,2,-3
1514960348576202,54,8,-5,27,1,1,-2,9
1514960348576202,-6,7,11,5,4,2,-1,-13
1514960348585208,10,-25,-42,-62,5,-7,-14,12
1514960348585208,64,15,16,1,-4,-6,-6,-15
1514960348607234,4,6,-4,26,-3,-5,-6,-4
1514960348607234,5,9,5,65,-6,4,11,11
1514960348609222,21,-18,-20,-62,-12,-9,-16,-37
1514960348609222,-53,11,12,-1,8,4,8,29
1514960348622285,27,-9,-14,-49,-4,-1,0,-27
1514960348622285,11,9,52,36,-3,-5,-4,14
1514960348624230,2,4,-31,-10,1,4,7,11
1514960348624230,65,-13,7,14,-2,0,0,2
1514960348636261,-54,-22,-8,9,-1,2,1,0
1514960348636261,-20,12,58,-33,1,-1,3,8
1514960348645246,38,14,-7,35,3,4,9,23
1514960348645246,-6,-12,10,0,-4,-11,-22,-58
1514960348659280,-4,8,-4,-12,-1,5,12,19
1514960348659280,13,10,-9,-24,2,-3,-7,-1
1514960348667285,-11,13,36,24,-10,-6,-4,-10
1514960348667285,18,18,-7,34,-2,1,4,-2
1514960348682332,-9,12,-13,-39,0,-3,-2,21
1514960348682332,-25,-3,-4,-28,-5,-6,-9,-36
1514960348684278,-9,-7,-30,-4,-4,0,4,34
1514960348684278,-14,21,11,-10,5,4,2,2
1514960348696293,-16,-23,18,22,-7,-8,-2,12
1514960348696293,127,19,-42,9,-1,0,2,11
1514960348705297,-79,-63,10,1,0,-1,4,-23
1514960348705297,1,26,-7,-38,0,1,2,2
1514960348720316,4,2,-16,18,1,0,3,10
1514960348720316,-67,16,10,24,2,-1,-9,-37
1514960348722316,43,43,-1,-50,7,4,4,17
1514960348722316,20,-41,-21,-8,-6,-5,-5,-31
1514960348742338,43,35,9,19,-1,-1,-1,-19
1514960348742338,-44,-57,-13,-15,-5,2,11,47
1514960348744316,-9,46,21,48,0,-1,-14,-57
1514960348744316,-13,7,-1,-14,-4,2,2,7
1514960348765346,-27,-34,-4,-14,8,3,-2,25
1514960348765346,40,37,14,18,-3,-3,-4,-25
1514960348766331,6,-23,-13,-32,-8,-5,-2,-9
1514960348766331,3,-9,-9,-11,-5,-3,-2,15
1514960348780361,9,7,-2,59,-2,2,3,-2
1514960348780361,-31,-42,-3,-47,-8,-5,0,15
1514960348781351,-35,-39,13,6,-2,-1,-2,-31
1514960348781351,0,41,2,-7,2,1,3,11
1514960348802404,25,42,48,1,0,0,8,21
1514960348802404,-18,26,-21,-6,3,2,-7,-26
1514960348804404,4,-25,-15,26,-3,-4,2,40
1514960348804404,19,32,36,-12,6,1,-2,-6
1514960348832440,-102,-90,-59,-8,-2,-4,-5,-8
1514960348832440,79,21,-36,-9,-4,-4,-6,-12
1514960348835430,18,22,-1,18,-3,-7,3,30
1514960348835430,-20,-17,-4,-15,0,-3,-5,-15
1514960348840487,60,52,4,2,4,0,6,25
1514960348840487,-29,-70,2,-1,2,-2,-13,-41
1514960348841465,-15,-63,-27,-1,5,3,6,4
1514960348841465,-22,-37,-4,-5,-9,-5,-8,-5
1514960348862478,-30,4,-13,-39,0,-4,-7,-16
1514960348862478,11,-19,0,67,5,5,14,33
1514960348864489,65,56,7,-50,-3,1,2,21
1514960348864489,-13,4,-21,-3,0,-2,-3,-15
1514960348885516,-2,-23,33,-2,-12,-5,-4,-17
1514960348885516,-48,-28,-11,5,0,1,-3,-40
1514960348886505,20,35,8,-13,4,1,-1,23
1514960348886505,-38,-12,2,6,4,4,2,13
1514960348899516,-6,14,-7,8,-5,-4,-5,5
1514960348899516,-1,34,15,-28,-2,-3,-4,-11
1514960348906521,44,13,2,26,3,2,2,8
1514960348906521,14,19,23,-4,-4,-1,2,27
1514960348922531,20,-8,-12,14,9,3,-1,-13
1514960348922531,-31,-25,-9,-23,-4,-2,-2,0
1514960348924554,30,-50,-1,10,3,-1,1,5
1514960348924554,-64,22,1,9,-2,2,0,11
1514960348945547,47,5,2,-16,-3,-9,-12,-20
1514960348945547,36,18,10,-8,-8,-3,0,5
1514960348946538,-9,21,9,-19,5,0,-6,-25
1514960348946538,2,-19,-20,5,-3,-1,2,-12
1514960348959546,4,15,11,39,-2,1,2,13
1514960348959546,-18,-58,-14,-83,10,2,3,15
1514960348966579,59,64,-7,20,-1,3,2,-1
1514960348966579,-22,-56,-45,9,-7,-7,-6,4
1514960348982632,-42,17,8,-34,1,6,4,-15
1514960348982632,39,8,22,48,-4,-4,0,8
1514960348984590,-67,-13,9,21,-8,-1,6,9
1514960348984590,13,22,19,-8,7,0,-5,-8
1514960349005580,23,-28,-9,-14,3,2,0,-1
1514960349005580,2,12,16,-8,0,-5,-1,3
1514960349006604,-43,-28,-37,-9,0,0,-3,-7
1514960349006604,29,33,7,5,1,3,3,8
1514960349019614,-57,-12,-3,2,-11,-7,-8,-7
1514960349019614,-6,-23,6,14,-7,-4,-1,4
1514960349026619,-11,-16,9,-3,-4,-2,-5,-4
1514960349026619,26,8,-7,15,3,2,9,11
1514960349042606,-26,0,-20,-69,-1,0,-15,-24
1514960349042606,35,20,2,10,-4,-3,-1,2
1514960349044607,-23,-1,9,31,-3,-2,-5,-23
1514960349044607,-9,-39,-46,-18,-3,-1,-3,-4
1514960349064639,26,13,57,14,-6,-5,5,21
1514960349064639,12,24,-44,-35,3,0,-1,8
1514960349066631,-26,-41,16,7,-1,-2,-2,15
1514960349066631,-15,47,16,10,-4,-3,-6,-33
1514960349079631,18,22,-8,-9,6,2,7,14
1514960349079631,-19,-30,-7,14,-6,-1,2,0
1514960349085639,-44,-10,-28,-5,-1,0,1,20
1514960349085639,16,0,0,-11,6,0,-6,1
1514960349102657,-8,-14,-10,21,-4,2,2,10
1514960349102657,-24,12,13,3,-5,-5,-7,-9
1514960349103650,35,29,5,-32,1,1,-3,-12
1514960349103650,27,-4,-6,42,3,3,4,11
1514960349124666,-28,-6,9,-11,0,2,1,-16
1514960349124666,-15,-21,-9,15,6,0,-2,-4
1514960349126665,17,5,15,15,-5,-3,-2,-16
1514960349126665,5,-1,-2,-14,2,-1,-2,5
1514960349139733,23,5,-9,17,-4,-2,-1,-12
1514960349139733,5,7,7,8,2,0,1,8
1514960349146708,14,3,-11,24,-2,-3,-1,13
1514960349146708,-47,-33,9,-19,-4,-3,-6,-14
1514960349162702,40,2,-25,15,-1,-4,1,-1
1514960349162702,-9,-9,4,-11,-6,-2,-5,-19
1514960349163704,-6,11,-9,0,-3,-2,1,33
1514960349163704,-10,-14,30,-52,-3,-6,-15,-68
1514960349184708,-14,7,-3,4,1,0,2,8
1514960349184708,-8,-13,-2,8,-1,-4,-3,-6
1514960349186709,19,-11,-4,-14,0,-4,1,-2
1514960349186709,4,30,39,30,-7,-2,2,12
1514960349199725,-9,-18,-39,-17,8,2,-1,2
1514960349199725,-13,29,40,-6,-7,-3,0,-6
1514960349205723,13,13,-3,3,2,-1,-4,-25
1514960349205723,15,-1,-4,1,-10,-5,-2,19
1514960349222756,-11,-4,10,23,10,3,-1,-19
1514960349222756,48,17,-24,-32,0,2,5,12
1514960349223736,-51,3,-11,-16,1,2,2,18
1514960349223736,11,-25,6,13,-1,-3,0,10
1514960349252765,16,-13,-22,-10,-3,-1,-2,-24
1514960349252765,37,20,-6,16,6,3,-3,-1
1514960349253754,-24,-15,12,-6,-4,-3,-2,20
1514960349253754,-21,-17,-6,1,-1,-3,-1,-19
1514960349258771,-1,15,-21,0,-4,-5,-1,27
1514960349258771,-2,22,41,2,-1,-4,-3,-12
1514960349267767,10,-35,-12,5,5,5,3,-13
1514960349267767,27,21,0,-15,1,1,-1,-8
1514960349282800,-13,-19,5,-23,2,2,-1,10
1514960349282800,8,5,-8,15,-3,-1,1,2
1514960349283780,11,-27,3,-1,-6,-6,-9,-24
1514960349283780,20,-1,-15,30,7,2,2,5
1514960349304800,-1,2,-4,-23,-5,-1,-2,5
1514960349304800,-1,-13,-46,2,-4,-2,0,-4
1514960349306793,-10,10,2,5,3,-1,1,-16
1514960349306793,24,-1,-8,-1,-2,-2,2,24
1514960349318817,-9,-2,7,6,-5,-1,-3,-16
1514960349318817,-29,-30,-46,-1,0,0,1,14
1514960349335813,11,10,-2,-6,-1,-3,-3,-9
1514960349335813,18,29,7,0,1,2,7,20
1514960349342831,15,-5,16,-2,-6,-6,-4,-14
1514960349342831,9,-17,20,-5,-3,-1,1,3
1514960349343818,-4,19,-13,-2,6,2,3,-1
1514960349343818,5,-24,13,5,5,3,0,-4
1514960349364890,-5,16,-8,9,-3,-3,0,2
1514960349364890,-21,-3,5,5,2,1,-2,7
1514960349366855,14,6,7,7,-12,-6,-5,-12
1514960349366855,-38,-1,-11,-12,4,5,2,10
1514960349378843,6,-13,12,13,-3,-1,-2,-1
1514960349378843,-59,-18,11,-17,-3,1,2,12
1514960349387854,-11,16,-8,4,2,0,-7,-30
1514960349387854,-60,-27,26,-1,1,3,2,2
1514960349402869,-9,6,4,-14,-4,-1,2,14
1514960349402869,10,8,2,5,3,-1,-3,-27
1514960349403861,0,-2,-18,-3,2,1,3,9
1514960349403861,-2,20,-7,-12,-11,-10,-11,-12
1514960349424897,-3,5,2,12,2,-2,-1,-3
1514960349424897,-6,-9,6,11,0,-2,-1,0
1514960349426887,29,12,15,-3,-2,0,3,9
1514960349426887,-3,-8,-23,-12,-1,0,-1,-12
1514960349438899,-4,-9,-15,25,-2,-1,2,16
1514960349438899,13,9,14,-19,0,-1,-5,-9
1514960349447891,-12,-4,11,-7,0,-1,2,3
1514960349447891,36,32,6,9,-3,-6,-2,9
1514960349462902,23,-8,18,-5,5,2,-3,3
1514960349462902,-18,-10,4,-1,-1,0,-1,9
1514960349463904,-18,1,-14,12,0,1,-2,-17
1514960349463904,-4,-14,-16,-9,-3,2,2,4
1514960349484943,-11,12,10,-8,-2,-2,-2,-6
1514960349484943,34,26,-8,20,-4,-2,1,-4
1514960349486920,20,1,17,-26,6,5,1,6
1514960349486920,-5,-16,-14,3,-3,-3,0,-6
1514960349498952,7,-4,-4,-5,-2,-3,-1,-5
1514960349498952,-15,-11,-26,-8,-4,-4,-3,4
1514960349507935,-9,15,7,8,-5,-1,3,9
1514960349507935,51,-5,-3,-3,-2,-1,-1,-4
1514960349522944,5,-28,-12,-6,-3,-1,-3,-10
1514960349522944,22,-3,12,3,3,2,1,9
1514960349523945,0,-20,-9,1,-4,-2,-4,-4
1514960349523945,46,18,-4,-10,1,1,-2,-2
1514960349552976,0,41,9,12,-2,0,0,7
1514960349552976,-43,-33,0,-18,-3,0,-2,-10
1514960349553968,47,54,-3,10,-5,-4,-1,5
1514960349553968,-58,-62,0,-25,0,-5,-4,-8
1514960349558970,-44,1,-37,10,-3,-3,0,-10
1514960349558970,14,24,12,-22,-4,-1,0,3
1514960349568001,-4,10,-34,5,0,0,0,7
1514960349568001,5,-2,-2,2,-2,-1,-4,-10
1514960349583042,25,-13,12,4,-5,-5,-5,-6
1514960349583042,13,-1,-15,2,2,-3,-2,-11
1514960349584042,4,2,23,2,-4,0,1,-1
1514960349584042,-52,-13,3,10,1,0,4,14
1514960349612077,-15,-15,10,-6,3,1,-4,11
1514960349612077,0,24,9,11,-4,-2,-4,-17
1514960349614063,-5,10,26,-7,7,3,-1,-10
1514960349614063,-22,-30,-11,12,0,-2,-3,5
1514960349619071,-4,-4,4,-5,1,1,0,-7
1514960349619071,26,33,-12,-10,-1,0,2,13
1514960349628073,-21,-49,-5,-16,0,1,0,1
1514960349628073,-3,13,4,-4,-6,-3,-7,-15
1514960349642193,-6,7,-1,4,-2,-2,-1,-8
1514960349642193,32,-6,-10,9,-2,-2,-3,-12
1514960349644154,-35,-24,7,12,-1,0,-2,-1
1514960349644154,21,31,11,-16,1,3,4,10
1514960349665195,49,8,-33,-16,-3,0,-1,2
1514960349665195,-34,-17,10,14,1,-1,-1,2
1514960349667197,-1,6,-13,5,-1,-4,-3,-4
1514960349667197,2,-3,3,-6,-3,-3,-1,4
1514960349678193,4,18,23,3,4,1,3,3
1514960349678193,-7,-5,14,12,0,-2,-2,18
1514960349687182,-28,-41,-20,-3,-3,-4,-9,-24
1514960349687182,-2,15,31,7,-1,-2,2,-8
1514960349702192,20,12,6,-2,2,1,-1,-10
1514960349702192,-64,-30,-7,-1,-3,0,-2,5
1514960349704194,0,9,13,4,-2,-4,-3,-3
1514960349704194,-20,4,-40,-2,-1,2,-1,-22
1514960349725228,-18,-15,-3,-16,-5,-5,-3,-1
1514960349725228,32,22,-2,7,4,3,3,12
1514960349726210,43,31,-1,-6,-7,-5,-4,5
1514960349726210,-19,-26,8,3,-3,-4,-6,-15
1514960349747275,15,-16,-10,2,-2,0,3,2
1514960349747275,-33,-28,-5,4,-5,-6,-8,-12
1514960349749286,-6,-6,-23,-26,0,2,5,6
1514960349749286,33,42,7,9,-2,1,0,9
1514960349761284,-28,-14,-1,-4,-6,-7,-7,-2
1514960349761284,47,17,2,-9,5,0,2,14
1514960349770304,-61,-31,-15,18,-2,-1,-4,-22
1514960349770304,-32,5,-2,-3,-4,-8,-4,3
1514960349785359,11,6,-9,-13,0,5,1,-4
1514960349785359,21,19,6,-4,-3,-1,-2,-2
1514960349786310,-30,-11,12,17,0,-1,2,11
1514960349786310,45,23,-1,1,4,2,2,25
1514960349807340,-29,-11,4,-12,-2,-1,-10,-27
1514960349807340,13,-13,-6,-2,-2,-2,0,-13
1514960349809341,39,7,15,2,0,3,8,16
1514960349809341,-27,-24,17,4,-6,-5,-5,-14
1514960349830337,-43,13,-12,8,0,1,2,9
1514960349830337,67,-1,4,-16,1,1,1,5
1514960349831335,-3,-1,24,3,-6,-5,-5,-3
1514960349831335,19,32,-4,-9,-1,1,3,1
1514960349845454,-10,-11,32,12,3,2,6,12
1514960349845454,-25,-8,-17,-4,-4,-4,-7,-26
1514960349846460,-6,-21,-36,-1,-1,0,0,8
1514960349846460,31,4,-2,2,3,0,3,9
1514960349867476,-34,-6,27,-8,5,0,-3,3
1514960349867476,-21,6,-9,1,-1,1,2,-1
1514960349869472,48,26,11,11,-1,-4,-5,-4
1514960349869472,-53,-37,-13,-6,-5,-2,-3,3
1514960349881481,48,0,-5,-6,-4,0,-3,-12
1514960349881481,-24,-20,-7,-13,-2,0,3,6
1514960349888523,-11,37,7,8,2,-1,4,3
1514960349888523,23,-6,-4,-15,-3,-1,-1,-1
1514960349905500,13,-27,-8,7,0,-2,-1,9
1514960349905500,-29,6,10,9,-5,-3,-4,0
1514960349906497,-30,1,-9,-19,-1,-3,-3,1
1514960349906497,58,13,-5,-3,0,1,-1,2
1514960349927533,-1,-3,-2,8,4,0,2,-3
1514960349927533,6,17,11,0,-6,-2,-3,-1
1514960349929527,-26,-36,-18,-26,3,-1,-1,4
1514960349929527,-19,-14,-7,-12,1,-1,-6,-18
1514960349941547,11,-5,-8,0,-5,-4,0,7
1514960349941547,17,13,22,13,0,-1,-2,1
1514960349948527,-23,-5,-28,-17,-2,-3,-4,-11
1514960349948527,9,17,12,14,-3,-2,-2,13
1514960349964560,15,-6,-6,-10,0,-1,1,-2
1514960349964560,-24,-14,11,-13,0,-1,0,-2
1514960349966541,44,2,6,9,1,1,0,1
1514960349966541,2,-3,-14,5,2,0,-1,-4
1514960349987576,9,20,-5,16,-6,-6,-7,-5
1514960349987576,-40,-72,-28,-21,0,1,1,-5
1514960349989555,74,43,7,6,4,5,3,10
1514960349989555,17,4,0,5,-5,-1,0,-4
1514960350001575,-7,-6,-5,-5,-1,0,1,2
1514960350001575,-10,-2,6,-15,0,-1,-2,-1
1514960350008625,-72,-49,-25,1,-5,-4,-5,-23
1514960350008625,-12,10,-13,-1,-5,-2,0,11
1514960350024602,10,16,16,19,4,3,1,-8
1514960350024602,39,60,-2,-8,-1,1,0,6
1514960350026593,1,3,9,-1,0,1,2,-3
1514960350026593,-23,8,29,17,-3,-3,1,0
1514960350054603,-25,-9,-13,-14,-10,-6,-2,-9
1514960350054603,11,9,12,6,0,-2,-2,-5
1514960350056603,8,2,26,-9,2,-3,-5,6
1514960350056603,10,7,-9,-11,-3,-2,-2,-9
1514960350061607,10,3,-2,14,-4,-2,0,4
1514960350061607,6,-31,-27,-10,-1,-2,-5,-18
1514960350068682,-34,-42,13,-6,-5,-2,0,10
1514960350068682,16,22,0,4,5,2,3,24
1514960350084648,-18,-3,-5,-13,-4,-1,-8,-20
1514960350084648,-2,15,26,28,3,-1,3,0
1514960350086649,28,33,-31,2,-5,-3,-2,1
1514960350086649,4,4,-9,0,7,2,1,-10
1514960350107644,-11,-51,3,-4,-1,-3,-1,10
1514960350107644,-72,21,-3,12,-7,-3,-6,-12
1514960350109641,25,-12,4,0,0,3,1,5
1514960350109641,-2,7,-10,-1,4,-1,-1,-3
1514960350121649,18,9,-13,0,0,-2,5,13
1514960350121649,20,-25,-14,-4,-5,-3,-3,3
1514960350128669,-5,7,19,6,1,2,2,5
1514960350128669,-21,-37,-15,15,-2,-1,-4,-21
1514960350144665,19,19,2,-16,6,4,1,-2
1514960350144665,-17,-25,-6,-6,-4,-3,4,20
1514960350146669,23,-2,2,26,-3,-4,-3,-30
1514960350146669,-24,-2,11,-23,-2,3,5,29
1514960350167720,-25,-24,-13,3,2,2,-4,-15
1514960350167720,11,30,2,-2,-2,-1,0,12
1514960350168682,19,6,14,16,-4,-3,-3,-6
1514960350168682,-12,18,8,-16,-1,-4,-2,2
1514960350181749,-20,-26,-16,-21,-1,-1,0,-12
1514960350181749,24,2,-1,1,1,3,1,-2
1514960350188756,-1,2,-4,-6,3,1,13,37
1514960350188756,-1,-1,16,11,-5,-7,-28,-80
1514960350204710,23,36,11,-17,-1,3,10,32
1514960350204710,-21,-9,5,9,-3,-5,-13,-6
1514960350206708,-10,-4,-16,-9,-5,-2,5,39
1514960350206708,27,-15,-3,-12,-2,2,1,-1
1514960350227724,-55,17,7,16,-6,-6,-5,-34
1514960350227724,9,-16,-22,-4,4,-3,3,3
1514960350228725,-2,10,8,-3,-3,-1,-3,-8
1514960350228725,18,-12,-20,-7,1,1,5,12
1514960350240793,1,-5,23,6,-3,0,-3,9
1514960350240793,-3,2,-14,-14,4,2,10,3
1514960350249740,-39,-2,2,6,-8,-6,-13,-17
1514960350249740,5,-5,1,-13,7,3,9,25
1514960350264751,3,8,-19,-9,-4,-1,-2,5
1514960350264751,20,5,2,8,-1,-3,-7,-36
1514960350270776,26,-4,5,-21,5,1,-3,-7
1514960350270776,-41,-6,-2,27,-2,1,3,17
1514960350287795,19,-17,5,-12,-3,-6,-7,11
1514960350287795,-16,4,6,-7,-1,0,-3,-25
1514960350288782,9,17,-26,-1,1,1,-1,0
1514960350288782,19,-20,6,-1,-6,-4,-8,-28
1514960350300782,-3,-14,-11,4,2,-2,3,17
1514960350300782,-9,-7,-8,3,-6,-1,-1,4
1514960350309783,14,16,11,3,3,0,-4,8
1514960350309783,-28,6,0,-28,-1,-1,-1,-22
1514960350332798,-6,8,-15,10,-5,-1,-2,-5
1514960350332798,18,-5,23,1,1,-1,-1,4
1514960350333799,29,8,4,-1,-2,-1,3,2
1514960350333799,-15,-5,-11,-4,0,0,3,8
1514960350347813,20,11,10,26,-3,-2,0,0
1514960350347813,18,28,4,-16,-4,-2,0,4
1514960350348813,-30,-53,-13,-3,0,-3,-3,0
1514960350348813,16,-4,3,7,2,1,1,11
1514960350360822,10,14,11,5,0,1,2,-9
1514960350360822,9,8,-15,1,-2,0,-2,12
1514960350369827,-2,-25,-4,3,-7,-4,-6,-15
1514960350369827,-27,-10,-2,-4,2,1,2,-1
1514960350384900,24,2,-6,-10,9,2,3,17
1514960350384900,-14,-4,-24,3,-2,0,-4,-16
1514960350386841,21,-5,-10,-10,-2,1,1,8
1514960350386841,-43,-14,8,6,-4,-6,-8,3
1514960350407851,28,-4,-18,-14,6,2,1,-18
1514960350407851,3,18,16,-1,-2,1,5,36
1514960350408852,-24,-16,-7,-5,-3,-1,-6,-42
1514960350408852,-2,-18,9,13,0,1,2,8
1514960350420883,-3,20,0,-9,-1,-2,-3,14
1514960350420883,9,11,-5,11,1,0,1,-5
1514960350429866,-27,4,12,-9,2,0,-3,5
1514960350429866,32,6,7,3,-6,-4,-1,5
1514960350444886,-42,-4,5,0,0,-2,-3,-16
1514960350444886,1,-29,1,5,2,1,1,2
1514960350446893,-29,10,31,-3,0,0,-2,-5
1514960350446893,26,16,-19,-10,2,3,4,8
1514960350467923,-6,-6,9,8,-3,-3,-7,-10
1514960350467923,5,0,-4,8,-4,-2,1,25
1514960350468895,-85,-23,8,-19,1,-1,-4,-24
1514960350468895,15,5,-9,-8,-2,1,-2,-16
1514960350480903,-10,-10,2,8,2,2,3,7
1514960350480903,14,0,2,-7,2,-1,-1,29
1514960350497917,19,35,-5,9,2,0,-2,-35
1514960350497917,-20,-35,-3,-12,-5,-4,-4,-5
1514960350504922,25,-6,22,-5,-6,-3,0,1
1514960350504922,-2,6,-12,-11,-1,0,0,-5
1514960350506923,-13,-33,-2,12,0,-1,-2,-12
1514960350506923,-2,27,10,1,0,1,-3,-1
1514960350527935,11,5,0,9,2,-1,1,10
1514960350527935,12,-18,-2,-2,2,-1,-1,-12
1514960350528939,-6,16,-5,-5,-5,-2,5,25
1514960350528939,2,-5,1,6,-4,-4,-5,-39
1514960350540983,-19,-6,2,2,-3,0,2,21
1514960350540983,-4,6,-6,-10,7,3,-3,-9
1514960350549953,21,10,-13,-5,-5,-1,0,-7
1514960350549953,24,15,10,-2,4,1,4,23
1514960350564981,-5,-16,-54,18,-5,-4,-6,-6
1514960350564981,-19,-31,-8,-32,-5,-4,0,-5
1514960350566965,26,-4,-3,24,-4,-2,1,8
1514960350566965,-34,-28,-1,-18,2,0,-2,-2
1514960350587053,32,36,-8,-2,-3,-2,-4,-12
1514960350587053,-7,-15,45,6,-6,-5,-6,1
1514960350589035,17,1,-19,-5,1,0,-1,12
1514960350589035,-8,6,2,6,-4,-1,1,6
1514960350610079,3,5,14,-1,-1,-1,0,-10
1514960350610079,-41,-1,-10,2,1,0,1,-2
1514960350612059,33,-16,16,-4,0,-4,-2,13
1514960350612059,13,11,-1,-3,-4,-3,-3,-3
1514960350625068,4,16,16,-1,7,6,6,25
1514960350625068,-3,-11,-20,5,-2,-2,-6,-13
1514960350627063,-35,11,16,5,-3,-4,1,2
1514960350627063,12,7,-23,-6,0,-1,0,14
1514960350647077,-34,-33,14,-13,-7,-4,-1,-2
1514960350647077,-16,13,3,8,-1,-1,0,-5
1514960350649080,17,5,-19,-6,9,4,0,-7
1514960350649080,-11,-4,10,2,-3,-3,-2,2
1514960350670135,11,14,-5,4,1,-2,-4,-3
1514960350670135,14,6,-1,0,-4,-2,2,2
1514960350672112,14,-1,6,-5,-5,-2,-2,-3
1514960350672112,-12,-9,0,33,-2,1,-1,7
1514960350685126,7,-5,-17,-42,2,0,0,-9
1514960350685126,-37,-22,-11,4,-4,-5,-4,-7
1514960350687115,9,7,10,-4,0,-1,0,10
1514960350687115,58,14,4,16,-4,-1,-2,-5
1514960350715140,-88,-39,-21,-22,4,1,2,-1
1514960350715140,19,2,8,1,-3,-3,-8,-8
1514960350716126,-18,-7,4,-5,2,0,-1,0
1514960350716126,15,15,4,-3,-4,-3,4,14
1514960350730143,12,6,-4,10,-2,-4,-9,-41
1514960350730143,13,18,-18,-6,1,2,3,-6
1514960350731136,8,-14,-16,-6,-5,-6,-5,-1
1514960350731136,-20,4,23,15,3,2,6,6
1514960350745154,11,4,-35,-12,-3,1,3,10
1514960350745154,-22,-15,-11,-10,5,0,-2,-5
1514960350746146,41,6,20,4,-5,-2,-7,-5
1514960350746146,-24,-14,-22,-16,-8,-4,-4,-11
1514960350767176,-5,16,29,12,0,-1,-1,12
1514960350767176,6,-27,-11,14,-1,1,2,-4
1514960350769161,3,30,11,-12,-3,-1,1,1
1514960350769161,11,-20,4,-8,2,-1,-3,23
1514960350790190,-1,9,7,7,-4,-4,-7,-29
1514960350790190,-13,-6,8,2,-3,0,2,23
1514960350791191,-24,4,-8,-1,3,2,-3,-28
1514960350791191,-6,-1,-5,-1,2,-1,4,10
1514960350804186,2,-4,-3,9,-4,-6,-3,-4
1514960350804186,5,16,9,-11,1,-3,-3,-5
1514960350811198,13,-7,-12,-7,-4,-3,2,4
1514960350811198,-8,14,1,2,1,3,0,-2
1514960350828208,29,-14,-9,1,-5,-2,-3,-15
1514960350828208,-11,12,-4,-9,-4,-2,2,4
1514960350829206,-34,-29,2,7,0,-3,0,8
1514960350829206,8,11,5,-11,-4,-3,-1,-3
1514960350850221,-4,7,4,4,1,1,4,19
1514960350850221,20,3,16,19,-3,-1,-4,-10
1514960350851220,-14,-16,-36,-24,6,6,3,9
1514960350851220,-4,-15,-7,1,2,-1,-4,-16
1514960350864237,-8,11,10,10,-2,-1,1,-1
1514960350864237,6,11,-4,-19,-2,0,-1,16
1514960350871234,19,-4,17,19,1,0,-1,-23
1514960350871234,57,29,-9,7,1,-1,-3,-3
1514960350887245,-22,-8,-7,-20,5,3,-1,2
1514960350887245,-7,-21,11,5,-5,-4,-2,-4
1514960350889248,4,6,-2,1,-2,0,0,2
1514960350889248,-6,-25,-4,2,-3,-2,-2,-9
1514960350910266,5,4,0,4,-1,1,2,16
1514960350910266,24,-1,-2,0,0,-2,-3,-4
1514960350911261,-33,6,-6,-3,-5,-4,-6,-18
1514960350911261,-15,-5,6,-1,-1,-3,0,-6
1514960350924272,7,-6,-3,-8,-2,-1,2,-1
1514960350924272,10,-17,-18,10,-1,-1,-2,-31
1514960350938283,-1,10,-2,-10,2,-1,0,19
1514960350938283,37,20,-4,0,-3,-1,-3,3
1514960350947287,-15,-34,1,2,1,2,-1,1
1514960350947287,0,8,-10,12,0,0,0,1
1514960350949291,13,0,17,1,-6,-4,-7,-11
1514960350949291,-14,-11,-20,-9,3,2,4,0
1514960350970325,1,-10,1,-6,-4,-3,-6,8
1514960350970325,-1,14,0,-1,0,0,3,3
1514960350971309,6,3,-4,0,1,0,2,3
1514960350971309,-27,9,-1,3,-7,-7,-10,-8
1514960350984321,2,-36,11,-17,-2,-2,0,14
1514960350984321,-21,-1,-13,-2,-3,-1,-4,-19
1514960350999332,22,9,-3,13,-5,-2,-2,-14
1514960350999332,-12,-10,7,-10,-5,1,3,19
1514960351007331,29,10,-20,10,1,-1,2,-7
1514960351007331,-3,10,31,-4,-2,-2,-1,4
1514960351009334,-63,-16,-6,6,-1,-1,-1,12
1514960351009334,-3,4,-7,-4,5,6,0,-17
1514960351030353,6,25,18,-2,-3,-2,0,5
1514960351030353,-1,-9,-9,-1,2,5,7,22
1514960351032349,9,-7,-15,-1,-4,-3,-7,-20
1514960351032349,-40,-4,30,3,10,2,1,-11
1514960351052362,16,1,-7,-19,0,-2,-4,-2
1514960351052362,13,26,5,10,2,0,4,9
1514960351054365,-10,11,4,-3,-2,0,-1,5
1514960351054365,1,-30,-9,-4,-3,-4,2,15
1514960351068377,-2,-6,0,23,1,-1,-4,-16
1514960351068377,5,-3,-8,-23,-1,2,-1,-1
1514960351069375,3,11,-22,0,-1,0,2,18
1514960351069375,3,12,3,-1,-4,-5,-6,-26
1514960351089388,-33,-3,4,0,-4,-4,-3,-5
1514960351089388,12,-10,-6,12,-4,-5,-6,-2
1514960351090389,-11,-15,-20,-20,1,-2,4,19
1514960351090389,1,-19,2,16,-7,-1,-6,-36
1514960351114411,9,17,-12,-12,-2,-3,3,12
1514960351114411,3,-8,-7,2,2,-2,-3,-8
1514960351115409,12,1,15,3,1,-4,2,-2
1514960351115409,-10,-18,-4,-15,-5,0,1,1
1514960351126416,-3,8,-1,2,-1,2,-1,-3
1514960351126416,2,-2,-6,3,-4,-2,-1,-6
1514960351127415,-24,-7,14,-11,0,2,-1,14
1514960351127415,20,17,-5,-6,3,0,-2,-18
1514960351149433,-21,-15,-15,4,-2,-3,1,-9
1514960351149433,-6,6,2,11,0,-1,-2,14
1514960351150434,8,-7,-11,-15,2,3,1,-6
1514960351150434,13,7,-12,7,-2,-1,1,14
1514960351165445,22,15,25,-16,1,2,-2,-12
1514960351165445,-6,-23,-2,3,-5,-2,2,8
1514960351171448,-5,4,3,6,2,-2,-4,-10
1514960351171448,-10,-17,-12,0,2,-1,0,-8
1514960351186461,5,2,0,10,-3,0,0,8
1514960351186461,-7,6,4,-11,8,2,-2,-17
1514960351187459,10,0,7,1,-3,-4,-7,-5
1514960351187459,2,2,7,-4,-2,0,2,14
1514960351217495,-2,-4,-2,16,-4,-2,-1,2
1514960351217495,-17,12,3,-16,-4,-1,-2,2
1514960351218478,11,3,-2,1,2,0,-7,-24
1514960351218478,-9,13,-7,-8,1,-3,-4,2
1514960351223484,11,-22,-1,7,-1,0,1,19
1514960351223484,-19,-16,-4,-7,-3,-3,-4,-33
1514960351231490,15,26,4,11,-3,-2,5,20
1514960351231490,2,-24,-11,-8,-1,-5,-2,23
1514960351246499,-2,3,-27,-10,1,1,0,-1
1514960351246499,6,12,-2,1,1,0,0,1
1514960351247501,3,-30,-12,3,2,1,0,12
1514960351247501,7,16,1,-6,-2,-1,-1,-8
1514960351277521,4,2,9,6,-6,-4,-1,-3
1514960351277521,14,9,-7,-7,0,-2,1,5
1514960351278523,-11,-38,-5,3,-2,0,0,10
1514960351278523,9,7,13,8,2,1,-4,-22
1514960351283524,-15,10,3,8,1,-1,0,-10
1514960351283524,12,-14,5,-10,-4,-2,-1,8
1514960351291532,-2,7,9,-20,0,-1,-2,-5
1514960351291532,-7,1,16,3,-1,2,0,7
1514960351306542,-17,-14,-10,3,-4,0,2,-4
1514960351306542,-9,-6,0,0,-3,-3,-6,-3
1514960351307541,40,10,-10,7,-3,-4,0,-5
1514960351307541,1,17,-11,-11,-2,-2,1,16
1514960351329557,0,9,21,0,-1,1,0,-4
1514960351329557,6,-21,-17,-5,-4,0,1,24
1514960351329557,20,-1,1,3,1,0,-7,-35
1514960351329557,-7,-19,-5,15,-2,-3,-2,11
1514960351343570,5,14,16,-14,3,4,3,1
1514960351343570,-3,12,-16,5,-3,-3,0,2
1514960351351592,-19,-5,7,8,-6,-2,2,12
1514960351351592,-6,7,-11,-22,5,2,-1,-1
1514960351366647,-1,-26,4,-5,-5,-3,-5,-1
1514960351366647,9,8,-6,-1,3,1,1,-12
1514960351367609,-7,-4,-2,11,-4,-3,2,8
1514960351367609,-9,12,12,7,-3,-1,0,-4
1514960351389661,7,-16,-17,-17,5,-1,0,-1
1514960351389661,-10,3,8,9,-1,3,0,17
1514960351389661,-11,4,-1,-7,-3,-4,-5,-30
1514960351389661,4,-8,-1,3,-7,-2,-1,6
1514960351403610,3,3,-3,0,2,2,-1,-4
1514960351403610,-6,10,13,5,0,1,-3,-12
1514960351411616,-13,-13,-2,-13,-1,2,3,1
1514960351411616,1,-5,-6,12,-1,-1,-1,0
1514960351426630,-12,4,-3,9,-7,-5,-4,26
1514960351426630,7,4,14,-41,6,2,-1,-24
1514960351427649,-6,8,-31,3,0,0,2,-2
1514960351427649,-4,-13,2,0,-1,-5,-6,-11
1514960351449646,-13,10,1,7,1,1,-1,3
1514960351449646,-19,-5,6,12,0,-2,-1,5
1514960351449646,6,1,6,-9,-3,-1,-1,5
1514960351449646,-18,-5,8,-5,-4,0,2,0
1514960351463671,-7,11,-5,0,-1,-4,-2,-10
1514960351463671,1,1,-2,3,-3,-1,-2,-10
1514960351471659,11,-17,-17,3,-2,-1,-3,1
1514960351471659,22,35,-6,-8,2,4,3,7
1514960351494685,-22,-33,0,-8,-3,-3,-7,-8
1514960351494685,-4,2,3,1,-3,-3,0,-5
1514960351495678,7,24,-4,4,-1,-3,-3,-14
1514960351495678,-36,-25,-2,0,-3,0,2,6
1514960351509691,20,-7,-5,1,-1,0,-8,-50
1514960351509691,0,-2,-8,-8,-3,-1,1,12
1514960351509691,3,7,20,-6,-3,-3,-4,10
1514960351509691,20,1,-16,-12,1,2,1,8
1514960351523724,-20,9,-4,2,-1,0,2,4
1514960351523724,-17,-37,-6,8,-6,-5,-3,-8
1514960351531725,13,17,26,9,1,2,5,8
1514960351531725,15,9,-11,-9,8,2,-1,5
1514960351554785,4,-28,-2,-5,-2,-2,2,-3
1514960351554785,8,-9,-19,0,-1,0,-4,0
1514960351555768,-4,13,12,-2,2,0,3,8
1514960351555768,1,-9,4,-1,-3,-1,0,-6
1514960351568800,20,7,-7,3,2,1,1,11
1514960351568800,-7,4,-1,0,-3,-2,-2,0
1514960351569791,-4,-5,15,1,-1,3,3,16
1514960351569791,2,9,3,7,-3,-4,-4,-8
1514960351592797,5,-7,-3,-16,0,1,3,20
1514960351592797,-25,-5,6,4,0,-3,-4,-20
1514960351592797,14,-9,-3,-3,-3,-1,-1,11
1514960351592797,-27,-2,-8,-6,-2,-4,-5,-16
1514960351606818,3,10,10,3,-2,-2,1,-2
1514960351606818,-9,-3,-2,4,5,1,2,11
1514960351607805,-18,-10,5,-6,-5,-3,-1,-5
1514960351607805,6,-19,-9,-1,-4,0,-2,-4
1514960351628834,-16,-10,-6,-7,-2,0,-4,-3
1514960351628834,20,33,8,1,-4,-2,-4,-19
1514960351629822,-6,-17,-11,6,1,-2,-1,-3
1514960351629822,-18,-18,-3,-8,-2,0,1,4
1514960351659843,-8,18,14,2,-1,-1,2,-2
1514960351659843,55,1,-5,2,1,0,-1,17
1514960351660858,-5,7,-1,4,3,0,0,4
1514960351660858,24,-5,12,6,0,0,0,5
1514960351666874,-1,17,-4,10,0,0,-2,-10
1514960351666874,-13,-4,8,-12,-2,-1,-1,-4
1514960351667875,-5,3,-7,-6,1,0,-3,-7
1514960351667875,-1,9,2,5,-3,-1,1,20
1514960351688884,4,0,7,14,-9,-5,-4,-5
1514960351688884,-2,-20,-21,-17,4,1,-2,-5
1514960351689863,10,-9,-5,-6,-2,-1,-2,-2
1514960351689863,-17,2,11,-2,0,2,5,9
1514960351719919,-23,11,16,12,-6,-4,-4,1
1514960351719919,19,-7,-14,-27,0,0,-3,-21
1514960351720898,-12,-11,7,-8,-4,-1,0,-13
1514960351720898,15,8,-1,-1,-4,-4,-6,0
1514960351726900,-11,24,-7,-2,5,0,-2,-33
1514960351726900,-3,2,22,10,-3,-4,1,7
1514960351727893,24,5,4,-4,2,1,3,16
1514960351727893,-7,2,5,0,0,-2,-3,-9
1514960351748931,1,-23,-15,-11,1,0,-1,-3
1514960351748931,-5,20,6,10,-3,-4,-1,18
1514960351749930,-14,0,-7,-6,1,-2,2,5
1514960351749930,2,-6,1,6,0,-1,-2,-3
1514960351772924,13,2,-7,-13,0,3,3,7
1514960351772924,-24,-12,-9,3,-3,-3,-2,-3
1514960351772924,0,4,3,6,-2,0,-3,-1
1514960351772924,-1,0,3,-9,-1,0,-1,6
1514960351786990,-3,3,-5,5,-2,-4,-6,-10
1514960351786990,7,-8,-4,-19,-2,2,1,1
1514960351787933,-16,17,16,12,-3,-2,-2,15
1514960351787933,10,10,-11,0,-2,-1,-8,-38
1514960351808949,10,-18,-12,-4,-2,-4,-5,1
1514960351808949,-23,-12,4,-3,-3,-2,0,-4
1514960351809948,2,15,-5,-8,1,0,-2,0
1514960351809948,-6,-32,-4,-4,-4,-3,0,-8
1514960351831965,3,9,3,-2,-1,1,7,14
1514960351831965,6,15,5,12,-2,-3,-3,11
1514960351832966,-8,-9,-7,0,0,-1,-6,-19
1514960351832966,-7,2,1,6,2,-2,3,7
1514960351846991,-25,6,-2,-13,-3,1,3,3
1514960351846991,6,-6,0,-1,-1,-3,-2,-9
1514960351846991,-4,-6,-6,0,-1,1,-1,-1
1514960351846991,1,24,-4,3,-2,-1,-4,2
1514960351869012,0,-30,5,1,-2,-1,-3,8
1514960351869012,9,-6,-1,-3,3,1,2,-2
1514960351870002,-31,-5,-9,5,-5,-5,-2,-2
1514960351870002,27,3,-3,-11,-1,-1,-1,-6
1514960351892064,9,12,0,1,-1,-2,1,6
1514960351892064,-18,-27,2,0,-1,1,-4,1
1514960351893006,7,11,-6,-1,-2,-1,-2,-9
1514960351893006,-10,-13,3,-1,-3,-2,0,11
1514960351907031,13,2,-15,-3,-1,1,2,9
1514960351907031,-13,11,10,15,-1,-2,0,5
1514960351907031,1,-12,0,-7,2,2,-2,-13
1514960351907031,1,1,2,0,-1,-1,0,-5
1514960351929048,4,-6,-8,-9,1,-2,2,5
1514960351929048,1,5,-8,14,0,-2,-2,0
1514960351930048,4,0,3,-9,-3,-3,-5,-4
1514960351930048,-4,-8,6,0,-1,0,1,2
1514960351952060,-10,-8,7,3,3,-1,-2,-12
1514960351952060,9,10,-29,-1,0,1,0,6
1514960351953067,-4,-13,1,-3,-2,-2,-1,-3
1514960351953067,-15,0,-3,0,-1,-2,-4,-5
1514960351967097,-5,6,5,-2,0,-1,-1,2
1514960351967097,-5,7,9,-5,-3,-1,-1,-10
1514960351967097,3,1,-9,-2,-2,0,0,2
1514960351967097,-4,6,0,3,1,0,3,11
1514960351998090,-2,-4,0,-2,-5,-2,-6,-26
1514960351998090,12,-13,5,4,-2,-1,0,6
1514960351999082,-14,-9,-5,-22,1,0,-1,3
1514960351999082,-4,-3,-7,-4,-1,-1,1,-1
1514960352012093,10,13,9,2,0,2,-2,3
1514960352012093,-7,-7,2,-1,-2,-1,1,-2
1514960352013091,6,0,-1,3,-2,-2,-2,-1
1514960352013091,0,-3,5,-2,-1,0,-1,-5
1514960352027148,6,3,-8,-6,-1,-1,-2,6
1514960352027148,-9,-10,4,-5,-3,0,-1,-4
1514960352027148,5,3,-2,12,1,0,0,3
1514960352027148,-5,-6,0,-8,-1,-1,-1,-1
1514960352049163,0,-3,1,3,-3,-2,-2,-3
1514960352049163,-6,4,1,1,0,1,-2,-1
1514960352050156,2,3,1,-5,-4,-2,-2,-4
1514960352050156,1,3,-6,10,0,-1,0,-2
1514960352072166,7,-8,0,-1,0,-2,1,0
1514960352072166,-4,-3,-3,-4,0,0,-1,1
1514960352073166,-1,-3,1,10,0,-1,0,4
1514960352073166,1,-4,-4,-8,0,1,-2,-2
1514960352087220,-5,2,-2,2,-1,0,-2,0
1514960352087220,-5,9,2,-1,2,-1,1,-4
1514960352087220,5,4,0,1,0,1,0,1
1514960352087220,-10,-15,-7,1,-3,-3,-2,-4
1514960352109264,-10,-7,4,-1,-2,-3,-3,-4
1514960352109264,-3,2,16,-6,-4,-1,-1,-4
1514960352110263,5,13,5,1,-3,-2,0,-1
1514960352110263,3,-4,-5,1,1,-1,-2,2
1514960352132293,-1,7,0,-2,-1,-2,-4,2
1514960352132293,2,6,0,4,-1,-1,-2,-4
1514960352133286,-3,-17,-8,-2,-2,-1,0,-3
1514960352133286,3,11,3,-5,-1,-1,0,-3
1514960352147298,-2,-3,-1,8,1,0,0,0
1514960352147298,1,-1,-4,3,-4,-1,-1,-2
1514960352147298,-2,-3,-4,-5,-1,-1,-1,-5
1514960352147298,0,4,-3,-3,-2,-1,-1,0
1514960352169334,1,-1,-1,-7,-1,1,0,-1
1514960352169334,-5,-8,-6,0,0,1,-1,1
1514960352170314,-18,5,-2,-1,-1,-1,-3,-1
1514960352170314,12,2,1,1,-2,-5,-3,-3
1514960352192338,-1,-8,-4,-4,-1,-3,-2,-1
1514960352192338,0,5,4,-1,0,0,1,2
1514960352193339,0,-9,-5,1,-1,0,-1,0
1514960352193339,-9,-2,-4,-2,-2,0,-2,-2
1514960352206346,-1,2,1,0,-1,0,1,0
1514960352206346,1,-1,-6,-4,1,-1,-2,-3
1514960352214339,0,-3,0,-1,-1,-1,-1,0
1514960352214339,0,3,1,1,-2,-1,1,-2
1514960352229363,3,-2,0,-3,-2,-2,-1,-1
1514960352229363,-5,0,-10,-3,-2,-4,-3,-1
1514960352230349,5,-1,7,-2,-1,-3,-3,-2
1514960352230349,-4,-3,-15,-6,-1,1,-1,0
1514960352252364,-4,-3,2,4,-1,-2,-1,-2
1514960352252364,1,3,-1,-1,0,-1,0,-1
1514960352253365,1,-1,-3,2,0,0,0,1
1514960352253365,-3,0,2,-1,-2,-1,1,-1
1514960352275381,-5,-2,3,-4,0,-1,-1,-3
1514960352275381,3,1,2,1,-1,0,-2,-2
1514960352275381,2,-1,12,0,-2,-2,-1,0
1514960352275381,-6,-3,-35,-8,-4,0,-5,-2
1514960352289430,-1,-3,1,-2,1,-1,-1,0
1514960352289430,-1,4,-1,0,1,-1,1,2
1514960352290390,-5,-3,3,1,-2,-1,-2,-1
1514960352290390,1,5,18,7,2,0,2,-1
1514960352313418,1,-3,-31,-15,-3,-1,-1,-1
1514960352313418,-2,-4,2,-3,-4,-5,-6,-2
1514960352314409,1,-2,-5,-1,-1,-1,-1,-3
1514960352314409,-1,-1,13,5,0,-2,0,2
1514960352326415,2,-1,0,1,-1,1,1,0
1514960352326415,-1,-1,4,-1,2,0,-1,1
1514960352334440,0,0,-9,-2,-3,-1,-4,-2
1514960352334440,4,1,7,6,1,-1,1,0
1514960352349461,0,1,13,-3,-3,0,-1,-1
1514960352349461,1,-3,-22,-8,-3,-1,0,-1
1514960352350442,-8,-14,-35,-9,-5,-3,-3,-4
1514960352350442,-1,-3,35,1,-1,-1,-3,-3
1514960352372465,-1,0,-52,-15,-5,0,-2,0
1514960352372465,-2,-2,-23,-5,-3,-1,-1,-5
1514960352373448,2,-2,-3,-4,-1,-1,0,0
1514960352373448,1,0,2,1,0,-1,0,-1
1514960352386460,-3,-4,24,9,1,-2,0,0
1514960352386460,2,2,2,4,0,-1,-3,1
1514960352394579,-1,1,-4,0,0,-1,-3,1
1514960352394579,-2,-4,2,-2,-2,2,-1,0
1514960352409589,2,3,7,4,0,-2,0,0
1514960352409589,-4,-4,-4,-3,-2,-2,0,-2
1514960352409589,2,2,14,5,1,-1,0,-1
1514960352409589,-1,2,14,0,-1,-1,-2,-2
1514960352439656,-3,-2,-14,1,-2,0,-4,-1
1514960352439656,-2,-6,-28,0,-2,-1,0,-1
1514960352440625,1,-2,5,-8,-3,-2,-1,-1
1514960352440625,-3,-3,-6,-4,-2,-4,-1,-2
1514960352445599,-2,-1,19,-1,1,-1,-1,-1
1514960352445599,4,5,33,10,2,2,1,1
1514960352454604,2,6,-17,8,1,1,1,3
1514960352454604,-4,-10,-23,-13,-5,-2,-2,-5
1514960352469616,-1,0,10,4,0,-1,-2,-1
1514960352469616,-1,-1,1,-2,-1,0,0,0
1514960352469616,0,6,14,3,1,1,-1,0
1514960352469616,-4,-5,-6,2,0,-1,-2,0
1514960352492643,-4,-4,-1,-3,-3,-1,0,-2
1514960352492643,0,2,12,-1,-3,-1,1,-3
1514960352492643,1,-2,-19,-4,-1,1,-1,-2
1514960352492643,2,3,13,5,-1,0,-1,-2
1514960352505656,-3,-9,-49,-15,-3,-4,-2,-3
1514960352505656,-1,1,18,2,0,1,2,2
1514960352514662,-3,-4,-8,-2,0,-1,-2,0
1514960352514662,0,3,1,0,-1,0,0,0
1514960352529656,-2,2,43,4,-1,-2,-2,-2
1514960352529656,-1,-2,-31,-11,-1,-1,0,-1
1514960352529656,-1,-2,4,-2,-1,0,0,0
1514960352529656,0,2,-5,1,1,-1,0,0
1514960352553673,2,2,3,7,1,0,-1,1
1514960352553673,-2,-3,1,-3,-2,-1,-3,0
1514960352554675,0,0,8,-1,-2,-1,0,-2
1514960352554675,0,1,4,-1,-2,-2,0,-1
1514960352574711,-2,-1,-3,2,-2,2,2,0
1514960352574711,-5,-8,-33,-13,-4,-5,-3,-3
1514960352575689,-3,-6,-2,-4,-2,-2,0,0
1514960352575689,0,1,5,3,0,-2,1,-2
1514960352589698,-1,2,4,3,1,-1,-2,-1
1514960352589698,-1,4,19,7,1,-1,-1,0
1514960352589698,-1,-5,0,-4,-3,-1,-1,-2
1514960352589698,-2,-5,-12,-3,-2,-2,0,-1
1514960352612726,1,-1,-3,0,0,0,0,0
1514960352612726,-1,0,-5,-1,-2,0,-2,1
1514960352612726,-1,0,5,-1,-1,0,-1,-1
1514960352612726,1,1,1,-1,-1,-1,-2,1
1514960352635737,-3,-7,-24,-4,-2,-2,-3,-3
1514960352635737,-1,0,12,0,-1,-2,-1,-1
1514960352636753,1,0,5,1,0,-1,1,1
1514960352636753,-1,1,-6,0,-2,2,-1,-1
1514960352648740,0,0,11,-2,-2,-1,0,-1
1514960352648740,-2,-2,-3,-2,-2,-2,-2,-3
1514960352649741,-2,0,3,2,-1,-1,-3,-3
1514960352649741,-2,-1,-8,-4,-1,-2,-1,1
1514960352672783,-2,0,1,-2,-1,0,-2,-1
1514960352672783,1,-1,8,2,-1,0,0,1
1514960352672783,-2,1,3,-1,-2,-1,0,0
1514960352672783,-2,-2,-5,-2,-1,-1,-1,1
1514960352694784,-1,0,3,-1,-1,-1,-2,-1
1514960352694784,-2,-3,-1,-1,1,-1,-2,-2
1514960352695773,-1,2,8,0,0,-2,0,-3
1514960352695773,-1,-8,-17,-3,-3,-2,-1,-2
1514960352717792,0,-3,-2,-1,-2,1,-1,-1
1514960352717792,0,0,2,0,-1,0,0,0
1514960352717792,-1,0,-4,-1,-1,-2,-2,-2
1514960352717792,-2,0,0,-2,-1,-2,0,-2
1514960352732817,-2,0,-2,1,0,-3,0,-3
1514960352732817,-2,-1,0,0,-1,0,0,-2
1514960352732817,0,-1,3,2,0,-1,-3,1
1514960352732817,-3,-2,-4,-2,0,-1,-2,-2
1514960352754824,0,2,-1,-3,0,0,1,-1
1514960352754824,-1,1,7,1,0,0,-2,0
1514960352755815,-2,-5,-5,-4,-3,1,1,-2
1514960352755815,0,-1,-4,-1,-1,-1,-4,-2
1514960352769884,0,-1,2,-1,-1,-1,-1,-1
1514960352769884,-1,0,2,-3,0,-1,0,-1
1514960352770864,0,1,-2,0,-1,-2,-1,0
1514960352770864,0,-2,4,-1,0,-2,0,0
1514960352792858,-1,-2,-6,-1,-2,-2,1,-1
1514960352792858,0,0,7,3,-1,-1,0,-2
1514960352792858,-3,-2,-20,-5,-3,0,-2,-2
1514960352792858,0,-1,3,1,-1,0,-1,-1
1514960352814858,-2,0,1,-1,-1,0,-1,0
1514960352814858,-2,-3,-2,-2,0,-1,0,0
1514960352815858,-1,0,2,0,0,-1,-1,-1
1514960352815858,0,0,0,-2,0,0,0,-1
1514960352830870,-1,-2,-3,-2,-1,-2,-3,-1
1514960352830870,-1,-1,-2,-1,-2,0,-2,1
1514960352831879,-2,-1,5,0,0,-1,0,-1
1514960352831879,-2,-2,-6,-2,-2,-2,1,-2
1514960352852897,0,-1,2,-1,0,-1,1,0
1514960352852897,-3,0,-3,-1,-1,-2,-2,-1
1514960352852897,-2,0,0,0,0,-1,0,-1
1514960352852897,-2,-2,-5,-3,-1,0,-2,0
1514960352881922,-3,0,-3,-1,1,0,-2,-3
1514960352881922,-1,-1,-2,-3,-2,0,-1,-1
1514960352882916,-1,-1,-1,1,-1,-1,1,0
1514960352882916,-1,-3,-4,0,0,-1,0,-2
1514960352888932,-2,-2,3,-1,-1,0,-1,0
1514960352888932,-1,-2,-3,0,-1,-1,-1,-1
1514960352889910,1,-2,2,-1,-1,-2,-3,0
1514960352889910,1,0,-1,0,0,-1,-1,1
1514960352912940,0,0,-3,0,-1,0,1,-2
1514960352912940,-1,0,0,-2,-2,-2,-1,-1
1514960352913930,0,-1,-2,0,0,0,-1,-2
1514960352913930,-3,-1,1,0,-1,-1,-1,-1
1514960352942018,-1,-3,-3,0,-2,0,1,0
1514960352942018,0,0,-3,-1,-2,-2,-1,-1
1514960352942975,-1,-1,2,0,-1,-2,-2,-1
1514960352942975,-2,-2,-1,-2,-1,0,-3,-3
1514960352948979,0,-2,0,-1,-3,-2,-1,0
1514960352948979,-1,-1,-2,0,-2,-2,-2,-2
1514960352949960,-1,0,-1,-2,-1,-3,-2,1
1514960352949960,-2,-2,0,-1,-2,0,-1,-1
1514960352971984,-2,-1,-2,0,-2,-3,-1,0
1514960352971984,-2,-2,-1,-3,0,-1,1,-1
1514960352972972,1,-2,0,-1,-2,-2,-2,-2
1514960352972972,1,-2,-1,-1,-2,-1,0,-1
1514960352995003,-1,0,0,-1,0,0,-1,0
1514960352995003,-1,-2,-3,-2,-3,0,-1,0
1514960352995988,-2,-1,0,-1,-1,0,2,0
1514960352995988,-2,-2,-1,-2,-3,-1,-1,-3
1514960353008998,1,-2,0,-1,-2,-1,-2,-1
1514960353008998,1,-1,0,-1,0,-1,0,-2
1514960353009995,-3,0,-1,-1,-2,-1,-1,-3
1514960353009995,0,0,-1,-1,0,-1,-3,0
1514960353032012,-2,-2,-1,-1,1,-1,2,-1
1514960353032012,0,-2,-1,1,-2,0,0,0
1514960353033014,1,-3,-1,-1,0,-1,0,-1
1514960353033014,-2,0,-1,-1,-1,-1,-1,-2
1514960353055038,-1,0,-3,-1,0,-1,-1,-2
1514960353055038,-2,-1,-3,-2,-1,-2,-1,1
1514960353056039,0,-2,-1,-2,-1,0,-1,-1
1514960353056039,-1,-1,-1,-1,0,-3,-1,-1
1514960353069071,-1,-1,-2,0,-1,-3,-1,-2
1514960353069071,0,0,0,0,1,-2,0,-4
1514960353070039,-2,0,-1,-2,-1,0,-2,-1
1514960353070039,-1,0,1,0,0,1,-1,0
1514960353092078,1,1,1,-1,-1,-2,-2,0
1514960353092078,-2,0,-1,-2,-2,-1,-1,1
1514960353093054,0,-2,-1,1,0,-1,1,-3
1514960353093054,-1,-1,-1,0,-2,2,1,0
1514960353115071,0,0,1,-1,-2,0,-2,-1
1514960353115071,0,-1,-1,-2,-1,0,-1,-2
1514960353116073,-2,1,-1,-1,-1,-1,-1,-1
1514960353116073,-1,-1,-1,0,-2,0,0,1
1514960353128092,-1,-2,-2,-1,-1,-3,0,0
1514960353128092,-2,-4,0,-1,-1,-3,-1,-1
1514960353137085,-3,-1,0,-2,-1,0,-1,-1
1514960353137085,0,-1,-1,-2,0,-3,-2,-4
1514960353160126,-1,0,-1,0,1,0,-1,1
1514960353160126,1,-1,-1,-2,-1,-1,-2,0
1514960353160126,1,-2,-2,-1,-1,-1,-1,-1
1514960353160126,1,-2,-2,-2,-2,-2,-1,-1
1514960353175137,-1,0,-1,-1,-2,-1,-1,-1
1514960353175137,-3,0,-1,-1,0,-1,-2,0
1514960353175137,1,0,-2,0,-1,-2,-1,1
1514960353175137,-2,-2,1,0,0,-2,-1,0
1514960353188150,-2,0,0,-1,-1,-1,1,-1
1514960353188150,0,-2,-2,-1,1,1,-1,-2
1514960353197165,-3,-2,-1,-2,0,-2,-2,0
1514960353197165,-1,-2,-2,0,0,0,-1,0
1514960353220172,0,-2,-1,0,-1,-2,0,-2
1514960353220172,-1,-1,-1,0,-1,-1,-1,-1
1514960353221184,0,-2,0,-1,-3,-1,-2,0
1514960353221184,-2,0,0,-2,0,-1,-1,0
1514960353235195,-1,-1,-1,-1,-2,-1,-1,0
1514960353235195,-2,0,-1,0,-2,0,-1,0
1514960353237181,-2,-1,-1,0,-1,-1,0,-2
1514960353237181,-1,0,-1,-1,-1,0,-1,-2
1514960353248202,-2,-1,0,-1,-2,0,-1,-2
1514960353248202,0,-1,-1,0,-1,-1,-1,0
1514960353257207,-1,1,-1,-2,-1,0,1,-2
1514960353257207,-1,-2,-2,-1,-1,-2,-1,-3
1514960353272228,-1,-3,-2,-2,0,-2,-3,0
1514960353272228,-1,-2,-2,-2,-3,-1,-1,0
1514960353274207,-2,-2,-2,0,-1,-1,-2,1
1514960353274207,-1,-1,-1,-1,-2,-1,0,-1
1514960353295235,-1,-1,-2,1,1,0,-3,-1
1514960353295235,1,-1,-1,0,-1,-1,0,0
1514960353296224,0,0,-1,-1,-2,-1,0,-2
1514960353296224,-1,2,-3,-1,0,-2,0,-1
1514960353316240,-2,-1,-1,-1,-3,-3,-1,0
1514960353316240,0,0,-1,-1,-1,-2,-1,-2
1514960353325276,-1,-1,0,0,-1,-2,-1,-2
1514960353325276,0,-2,-1,-2,-2,-3,-2,-2
1514960353332295,-2,-1,-1,-2,-1,-1,0,-2
1514960353332295,-2,0,-1,-2,-2,-1,0,1
1514960353334290,0,-3,-1,-2,0,-3,-2,0
1514960353334290,-2,-1,-2,0,-4,-1,-2,0
1514960353355329,-1,0,-1,-2,-3,-2,-1,0
1514960353355329,0,-1,1,-2,0,-1,-1,-2
1514960353356321,-1,-1,-1,-1,0,0,0,-1
1514960353356321,-1,-1,-1,-1,0,0,-2,1
1514960353368332,0,-1,-1,-1,0,-1,0,-2
1514960353368332,0,-1,-1,-1,-1,-1,-2,-2
1514960353385343,-2,0,0,0,-2,-2,-2,-2
1514960353385343,-1,-1,-2,-1,-1,-2,0,0
1514960353392357,1,0,-2,-1,-1,-2,-1,0
1514960353392357,1,0,0,0,0,-2,1,0
1514960353394348,-2,-1,-1,-2,-1,1,-2,1
1514960353394348,-1,-2,-1,-2,-3,-1,0,-3
1514960353415384,-2,0,-3,-1,0,0,-3,-1
1514960353415384,-1,-2,-1,0,0,-1,-3,1
1514960353417364,0,-2,-1,-2,-1,0,1,-2
1514960353417364,-2,0,-2,-1,-1,0,-2,1
1514960353437445,-1,-2,-1,-2,-1,-2,-1,-2
1514960353437445,-2,0,-1,1,-1,-1,-2,-1
1514960353439433,-1,-2,-1,0,-1,-2,0,-4
1514960353439433,-2,-1,-1,-2,0,2,-1,-3
1514960353452451,0,-1,-1,0,0,-1,-2,0
1514960353452451,-2,-2,-1,-1,0,-2,1,0
1514960353454444,0,0,-2,-1,0,0,-1,2
1514960353454444,-1,-1,-1,-1,-1,-2,-2,-1
1514960353474481,1,-2,0,-1,-1,-1,-3,-1
1514960353474481,0,-1,-2,0,-1,0,-1,-2
1514960353476460,-2,-3,-1,-1,-1,-1,0,-1
1514960353476460,-1,-3,0,-1,-1,-1,0,-1
1514960353497473,-2,-2,0,-2,1,0,-1,0
1514960353497473,-1,-1,-2,-1,0,-1,-3,-2
1514960353499474,-1,0,-1,-2,-1,-2,-3,0
1514960353499474,-1,0,-2,-2,-1,-1,0,-1
1514960353512498,-1,-1,-2,-1,-3,0,0,-2
1514960353512498,-1,-2,0,-2,0,1,1,-3
1514960353513488,-1,1,-1,0,0,-1,-1,-1
1514960353513488,-2,-1,1,0,-2,0,-1,0
1514960353535510,-1,-2,-1,-2,-1,-2,-2,0
1514960353535510,-1,-1,-1,-1,-1,-1,-2,0
1514960353537534,0,-2,-1,-2,-1,-1,-2,0
1514960353537534,0,-3,-2,-2,0,-2,-3,-2
1514960353557518,-2,-1,-2,-1,0,1,0,-3
1514960353557518,-2,-1,-1,0,-2,-1,-1,-1
1514960353558519,0,-1,-1,-1,-2,-2,-1,-1
1514960353558519,-1,-2,0,-1,-1,-2,-2,0
1514960353572541,1,0,0,-1,-2,-2,-1,0
1514960353572541,0,0,-1,-1,0,-3,-1,0
1514960353573542,-2,0,-1,0,-2,0,-1,-3
1514960353573542,0,-1,-2,0,-1,-1,1,0
1514960353594541,-1,0,-3,-1,-1,-1,-1,-3
1514960353594541,-2,-2,-1,0,-2,-2,1,0
1514960353602567,-1,-1,-1,-1,-2,-3,-1,-1
1514960353602567,-1,1,-2,-2,-2,0,-2,-1
1514960353617558,-2,-1,0,-2,-1,0,-2,-3
1514960353617558,-2,-1,-2,-1,-1,-2,-2,-2
1514960353618574,-2,-1,-1,-1,-1,0,-1,-1
1514960353618574,1,-1,0,0,-1,0,1,0
1514960353631627,-2,-1,-1,0,-1,-1,-2,-1
1514960353631627,0,1,0,-1,0,-2,-2,0
1514960353638595,-4,-2,-2,0,-1,-1,-1,-2
1514960353638595,-3,0,0,-1,-1,0,-1,0
1514960353662603,-2,-1,-2,0,0,0,1,-1
1514960353662603,-1,-1,0,-1,-4,1,-1,-1
1514960353663591,0,-2,0,-2,-1,-1,1,-2
1514960353663591,-1,-2,0,-2,0,-3,-1,-2
1514960353677625,0,0,-1,-2,-1,-1,-1,0
1514960353677625,0,-1,-2,-1,-1,-1,-3,0
1514960353678628,-1,-3,-1,-1,-2,-1,-2,0
1514960353678628,-1,-1,-3,-1,-2,-3,0,-3
1514960353691689,0,-2,-1,-1,-2,-1,-1,0
1514960353691689,1,-1,-2,0,-1,0,1,-1
1514960353698616,0,1,-1,-2,-2,0,-1,-1
1514960353698616,-1,-2,-1,-1,0,-2,0,-3
1514960353714628,-1,-1,0,-1,-1,-2,1,0
1514960353714628,-4,-1,-2,-2,-1,-1,-1,0
1514960353716629,1,-2,-1,-1,-2,-2,-2,0
1514960353716629,-1,-2,-1,-1,-1,-2,0,1
1514960353737661,-2,-1,0,-2,-1,-2,-1,-2
1514960353737661,-2,-3,-2,-2,-2,-2,1,-1
1514960353738645,-1,0,0,-1,-1,0,-3,0
1514960353738645,0,-2,-2,0,0,0,-1,0
1514960353751652,-1,0,-3,-1,-1,-2,-1,1
1514960353751652,-2,-2,-1,-1,-1,-1,0,-3
1514960353758673,-2,-1,0,0,-1,0,0,-1
1514960353758673,0,0,-1,-1,-2,0,-2,-1
1514960353774672,0,0,-4,-2,-1,0,1,-2
1514960353774672,-1,-1,0,-1,-1,-1,-2,-2
1514960353776671,1,-1,-2,0,0,-3,-2,-1
1514960353776671,0,-2,0,-1,-1,-1,0,-1
1514960353797685,-2,0,-1,0,-2,0,0,-3
1514960353797685,-1,-1,-1,-2,1,-2,-2,-1
1514960353798686,-3,0,-2,0,-1,1,-1,-2
1514960353798686,-1,-2,-1,-1,0,-2,-2,0
1514960353811712,0,0,-1,-1,-1,0,-2,2
1514960353811712,0,0,-1,-2,-1,1,0,-2
1514960353825715,-1,-1,0,-1,-2,-1,0,-2
1514960353825715,-2,0,-1,-2,-1,0,-1,-1
1514960353834733,-2,-2,0,1,-2,-1,-3,1
1514960353834733,0,1,-1,0,-1,1,-2,1
1514960353837714,-1,0,-1,-1,-1,-1,-1,-3
1514960353837714,-1,-1,-1,-1,-2,1,-1,-3
1514960353857743,-1,0,0,-1,0,1,-1,0
1514960353857743,-1,0,0,0,-2,0,-1,-1
1514960353858731,-2,-2,-2,-1,1,-1,1,-1
1514960353858731,-1,-1,-1,-1,-1,-1,-1,0
1514960353871803,-1,-1,-1,-1,-2,-3,-2,-1
1514960353871803,-2,-1,-3,-1,-1,-1,-2,-1
1514960353878751,0,-2,-2,-1,-2,-3,-1,0
1514960353878751,-2,-2,-1,-1,-1,-1,-1,-1
1514960353894757,0,-2,-1,0,-1,-1,0,-1
1514960353894757,-3,0,1,0,0,-2,0,1
1514960353896757,1,-1,0,-1,-1,-2,-1,-1
1514960353896757,-2,0,-1,0,-1,-1,-1,-1
1514960353917772,1,-1,-3,-1,-1,-1,-3,-1
1514960353917772,-2,-2,5,-1,-2,0,-2,-2
1514960353918773,-3,-1,-2,-2,-2,-1,-1,-3
1514960353918773,0,-1,-2,-2,-1,0,0,-3
1514960353931784,-1,0,0,-1,-1,-2,-1,0
1514960353931784,0,-2,-1,-3,-2,-2,-1,0
1514960353938824,-1,-1,-1,-2,0,0,0,1
1514960353938824,0,0,-1,-3,-1,0,-2,0
1514960353954796,-1,-1,-1,-1,-1,0,0,0
1514960353954796,0,1,-3,0,0,0,1,-1
1514960353956798,-2,-2,-1,0,-2,0,-2,-1
1514960353956798,0,-1,-2,-1,0,-1,-2,-4
1514960353977817,0,-1,0,-1,-2,-1,-2,-1
1514960353977817,0,-1,-3,-2,-2,-3,-1,0
1514960353978817,-2,-1,-2,-1,-2,1,0,0
1514960353978817,-1,0,-1,0,-2,-1,0,-1
1514960353990883,0,-1,-2,-1,-2,-2,1,-1
1514960353990883,0,-2,-1,-1,-1,-1,-2,-3
1514960353999828,0,-1,-1,-2,0,-2,-3,-1
1514960353999828,-4,-1,-2,-3,-1,-2,1,-2
1514960354014838,-1,-4,-2,-2,-1,-1,-1,-1
1514960354014838,0,0,-2,-1,0,-1,-2,0
1514960354016843,0,-2,-1,1,-1,-2,-1,-3
1514960354016843,0,-2,-1,0,-1,-1,-1,-1
1514960354036930,-2,-1,0,-2,-1,-4,-1,-2
1514960354036930,0,-1,-1,-1,-1,-3,1,2
1514960354038910,0,-1,-1,-1,-1,-1,0,-2
1514960354038910,0,1,0,0,-2,-1,-1,0
1514960354050931,-3,0,0,-1,-1,0,-3,-2
1514960354050931,-1,-1,-2,-2,0,-1,-4,-2
1514960354059927,-1,-1,-2,0,1,-1,0,0
1514960354059927,-1,-1,-3,0,-2,1,-1,2
1514960354074950,2,1,-1,-2,-2,-1,0,1
1514960354074950,1,-2,-2,-2,-1,-1,-1,-1
1514960354076946,0,-1,-1,-2,-1,-2,-2,-2
1514960354076946,-3,-2,-2,-2,0,-1,-1,0
1514960354096960,-4,-1,-1,-1,-1,-1,-4,-2
1514960354096960,-1,0,-2,-1,-2,-1,0,0
1514960354098962,1,-1,-1,-1,-1,0,-2,0
1514960354098962,-2,-3,-1,0,0,-1,0,0
1514960354110981,0,-2,-1,0,2,-2,-1,-1
1514960354110981,-4,-1,-1,1,-1,-4,-3,1
1514960354119968,0,-1,0,-1,0,0,-1,-2
1514960354119968,-1,0,0,0,-1,-1,-2,-2
1514960354135046,-2,-3,-2,1,-2,0,-1,0
1514960354135046,-1,-1,0,-1,-1,-1,-2,-1
1514960354137046,-1,-2,-3,-2,-1,-1,0,0
1514960354137046,0,-2,0,-2,-1,-1,-1,-2
1514960354157077,-1,-1,-1,0,-2,-1,1,0
1514960354157077,0,-2,0,-2,-1,-1,0,0
1514960354159050,-2,1,-1,-1,-2,-2,-2,0
1514960354159050,-2,-2,-1,-1,-1,-1,0,0
1514960354171074,-1,0,-1,-1,-1,0,-1,-1
1514960354171074,0,-2,-1,-1,-1,0,1,-3
1514960354180066,-1,-1,-2,-1,0,-1,0,-3
1514960354180066,-2,-1,0,-1,-1,-2,-2,-2
1514960354195094,-1,-1,-1,-3,-3,-2,-2,1
1514960354195094,-2,-1,-1,-2,-1,-1,-1,-2
1514960354196074,-2,-2,-1,-1,-3,0,-1,-1
1514960354196074,-3,0,-1,0,0,-1,-1,-2
1514960354217093,0,0,0,0,-1,0,-1,0
1514960354217093,-2,0,-2,-2,-2,-1,-1,-1
1514960354219107,0,-3,-1,-1,0,0,0,-3
1514960354219107,-1,0,-2,-1,-4,-2,1,2
1514960354231111,-1,-3,-2,-1,0,-1,-2,-2
1514960354231111,-1,-2,-1,-1,-2,1,-2,-2
1514960354240105,-2,-1,0,-2,0,-3,0,0
1514960354240105,-1,-2,-1,0,-1,-1,-1,-1
1514960354255127,-3,-2,-1,-1,0,1,0,-2
1514960354255127,-3,-1,-2,-3,0,-1,0,-1
1514960354256118,-3,0,-1,-1,-1,0,-2,-1
1514960354256118,-1,0,-1,-1,-1,-2,-1,0
1514960354278134,1,-3,0,-2,-2,-2,-1,0
1514960354278134,0,0,1,1,-1,1,-2,0
1514960354279133,-1,-1,-3,-1,0,-1,-1,-2
1514960354279133,1,-2,-3,-1,0,-3,-1,-2
1514960354291197,-1,0,0,-1,-2,-1,1,1
1514960354291197,-1,-2,-1,0,-2,-2,1,2
1514960354300148,1,-3,-2,0,-2,-2,-2,-1
1514960354300148,0,-2,0,0,-1,1,-1,-2
1514960354315159,-2,0,-2,0,-1,-3,-1,-2
1514960354315159,-1,0,1,0,-2,-2,-3,-4
1514960354316170,-2,1,-1,0,-2,-1,0,-1
1514960354316170,-1,-1,-2,-2,-2,0,-1,-1
1514960354337176,0,0,-1,-1,-1,-1,-3,-1
1514960354337176,0,1,-2,-2,-1,-1,-1,0
1514960354339189,-1,-3,-2,-1,-2,-2,-3,-2
1514960354339189,0,0,-1,0,0,-2,-3,-1
1514960354351197,-2,1,1,-2,-3,-2,-2,-2
1514960354351197,-1,-2,0,-1,0,-1,-1,0
1514960354360194,-3,0,0,-2,0,-1,0,-1
1514960354360194,-2,-2,-3,-1,-1,0,0,-1
1514960354375201,1,-2,0,-1,0,-2,0,-2
1514960354375201,-2,-1,-1,0,0,-1,-2,-1
1514960354376202,-2,-1,-1,-2,-3,-3,0,0
1514960354376202,-2,-1,1,-1,-1,1,-1,-2
1514960354397233,-1,-2,-1,-1,-2,-2,0,0
1514960354397233,0,-1,-1,0,0,0,0,0
1514960354399229,0,0,-1,0,0,1,-2,0
1514960354399229,1,-1,-2,-3,0,-2,-2,-1
1514960354420252,1,-1,-1,0,-1,-1,-3,-1
1514960354420252,-1,-4,-2,-1,0,-2,-1,0
1514960354421236,-2,0,-1,-2,0,0,-1,-3
1514960354421236,-1,0,-2,-1,-3,-1,0,-2
1514960354435244,-1,-1,-2,-1,-1,-1,1,-1
1514960354435244,0,0,-3,-1,0,-3,0,-1
1514960354437280,-1,-2,-1,-1,0,1,-1,-1
1514960354437280,-1,-2,-1,-1,-1,-3,-2,-1
1514960354457289,-2,-3,0,-1,-1,0,-2,-1
1514960354457289,-1,-1,-1,-1,-2,-2,-1,-2
1514960354459269,0,-3,-2,1,-1,-2,1,-2
1514960354459269,-2,-1,-1,0,0,-2,-2,-1
1514960354480305,-2,0,0,-2,0,-2,-1,1
1514960354480305,-1,-1,-2,-2,-3,0,0,-1
1514960354481281,-2,-3,-1,-1,-2,-1,-1,-2
1514960354481281,-1,-1,-2,-1,0,-2,-1,-1
1514960354495288,-2,0,-2,1,-1,-2,-2,-1
1514960354495288,0,-1,-1,-1,-2,1,-2,-1
1514960354496288,-1,-1,-1,-2,-1,-1,-1,2
1514960354496288,0,1,-1,0,-1,1,0,-1
1514960354516300,-1,-1,-2,-2,-1,0,-1,-1
1514960354516300,-3,0,-1,0,-1,-1,-3,-1
1514960354525308,0,-1,-1,1,-1,-2,1,-1
1514960354525308,-1,0,-2,-2,-1,1,-1,-2
1514960354547330,0,-2,0,-1,1,-2,-1,-1
1514960354547330,-1,-1,-2,-1,-1,-1,0,-2
1514960354549331,-2,-2,-2,-1,0,-2,-1,-1
1514960354549331,-2,-1,-1,-1,-2,-2,-1,0
1514960354555359,0,0,-2,0,-3,1,1,0
1514960354555359,0,-1,0,-2,-2,-2,-4,-2
1514960354556330,0,0,-1,-1,-1,-1,-2,0
1514960354556330,-1,-2,-1,-2,-1,-2,0,-1
1514960354577373,-1,-2,-1,-1,-1,-1,-1,-1
1514960354577373,1,-2,-1,0,-1,-3,0,0
1514960354579348,-1,0,-1,0,-1,-2,-1,-1
1514960354579348,-1,-3,-2,1,0,0,-2,-1
1514960354607381,-3,-1,-2,0,-1,-2,-2,-1
1514960354607381,-1,-1,-3,-1,-2,-2,1,0
1514960354609382,-2,-1,0,-2,-2,-2,0,0
1514960354609382,-1,-1,-1,-1,-1,-2,-1,0
1514960354614372,0,0,-2,0,-2,-1,-2,-4
1514960354614372,-1,-2,-3,0,-1,1,0,-1
1514960354621400,0,-1,0,-1,-1,0,0,-1
1514960354621400,-1,1,0,-3,-2,-2,-2,-3
1514960354637408,-3,-1,-1,-4,-3,0,-2,0
1514960354637408,-1,-2,1,0,0,-1,-1,-1
1514960354639402,0,-1,-3,-1,-1,0,-3,-1
1514960354639402,-2,-1,0,0,-1,-3,-1,0
1514960354659401,-1,0,-1,-1,-1,-1,-2,0
1514960354659401,-2,-1,0,-1,-1,-3,-1,-1
1514960354661403,-1,-2,-1,-2,-2,-1,0,-1
1514960354661403,-1,-1,0,-2,-1,-1,0,-2
1514960354674470,-1,-1,-1,0,-1,-2,-1,-1
1514960354674470,1,-1,0,0,-1,0,-2,-1
1514960354681432,1,-1,-2,-1,-1,-1,0,-3
1514960354681432,-3,-1,-2,0,-1,0,-1,1
1514960354697443,0,-1,0,-1,0,0,0,1
1514960354697443,-3,-1,-1,-1,-1,0,-1,-1
1514960354699431,0,-1,0,-1,1,-2,-1,-1
1514960354699431,1,-1,0,-2,0,-2,-1,-1
1514960354719462,0,0,-2,-1,0,0,-1,-1
1514960354719462,-1,-1,-1,-1,0,0,-1,-1
1514960354721446,-4,-1,-3,1,-2,-1,1,-1
1514960354721446,-1,-2,-1,0,-1,0,-1,-2
1514960354734464,-2,-1,-2,-1,1,-1,1,-2
1514960354734464,0,-1,-1,-2,-1,-1,-1,0
1514960354741471,-1,0,0,-1,-2,0,-1,-1
1514960354741471,-2,-1,-3,-2,-1,-1,0,0
1514960354757482,-1,-2,-2,-1,-2,-1,0,0
1514960354757482,-2,-1,0,-2,0,-1,0,0
1514960354758483,0,-1,-1,-1,-4,-1,-5,-1
1514960354758483,-1,0,-2,-1,-1,0,-2,-3
1514960354779495,0,0,0,-2,-2,-1,0,1
1514960354779495,-1,-1,-2,-1,0,-1,0,-3
1514960354781488,-2,0,1,-2,0,-1,0,-2
1514960354781488,-3,-1,-1,0,-1,0,0,0
1514960354794506,-1,-1,-3,-1,0,0,-2,-2
1514960354794506,0,0,-2,-1,-2,-1,-1,0
1514960354800510,-1,-2,-1,-1,0,-1,1,-1
1514960354800510,-1,0,-2,-1,-2,-1,-1,-2
1514960354817531,-5,-1,-1,-1,-1,-3,0,-2
1514960354817531,1,-2,0,-1,-2,-2,-1,1
1514960354818528,-1,-3,0,-3,-1,-2,-1,0
1514960354818528,-1,-1,-1,-1,-1,-2,-2,0
1514960354839545,0,0,0,0,0,-1,-1,-1
1514960354839545,-1,0,-2,-1,-2,-2,0,-1
1514960354841539,-2,-2,-1,-1,0,-1,-1,-1
1514960354841539,-1,-2,0,0,-1,-1,-1,0
1514960354854549,-2,-2,-1,-2,0,-1,-1,-2
1514960354854549,-1,0,-2,-1,-1,0,-2,0
1514960354861546,0,0,0,-1,0,-2,-2,-2
1514960354861546,-1,-1,-1,-2,-2,-1,-2,0
1514960354877578,0,-2,-2,-1,-1,-1,-2,0
1514960354877578,-3,-1,-2,-1,0,-2,-1,-2
1514960354879557,-2,-2,-2,-1,-1,-1,-1,0
1514960354879557,0,-3,-2,-1,-1,-1,-1,-1
1514960354899594,0,-2,0,0,-1,-3,-2,-2
1514960354899594,0,-1,-1,-2,-2,-1,-1,0
1514960354901578,-1,-1,-3,-1,-1,-2,-2,-1
1514960354901578,-3,1,0,-1,-1,-2,-1,-2
1514960354913581,-2,-2,-1,-1,-1,2,0,-1
1514960354913581,-1,-1,-1,-1,-2,0,-1,-2
1514960354922591,0,-1,-1,-1,-2,-1,1,-2
1514960354922591,0,-1,-3,0,0,-1,-1,-1
1514960354937621,-1,-1,-2,-2,-1,-2,-4,1
1514960354937621,1,-1,-1,0,-1,-3,-2,0
1514960354938620,-1,-1,-2,-1,-1,-1,0,-1
1514960354938620,-1,0,0,-2,-1,0,-1,1
1514960354959667,-1,-1,-2,0,-1,-1,-2,0
1514960354959667,-2,0,-2,0,-1,-1,-2,-3
1514960354961617,-1,0,0,0,-1,-1,0,0
1514960354961617,-2,-1,-2,-1,0,-3,1,-2
1514960354973678,0,0,-1,-1,-2,0,-1,0
1514960354973678,-1,0,0,-1,-2,-1,0,-2
1514960354982630,-2,-2,0,0,-1,0,-2,-2
1514960354982630,0,-1,-1,-2,-1,1,-1,-2
1514960354997709,-2,0,0,-1,-2,-1,0,1
1514960354997709,-2,-3,-2,1,0,-2,-1,-1
1514960354998710,0,1,-2,-1,-1,-2,-3,-1
1514960354998710,0,0,-1,-3,-2,-1,0,-1
1514960355019767,-2,-1,-3,-2,-1,-2,0,0
1514960355019767,-2,0,-1,-1,-1,-1,-1,1
1514960355021736,-3,-1,-1,0,0,-2,-3,-2
1514960355021736,0,-2,-1,0,-3,0,-2,-1
1514960355033748,-1,1,0,0,-3,-1,-2,-1
1514960355033748,-1,-1,0,-1,-1,1,-2,-1
1514960355042756,1,-2,-2,0,-1,-1,-3,-2
1514960355042756,-3,-2,-2,1,-2,0,0,1
1514960355057738,-2,-2,-2,-2,-1,-3,-2,0
1514960355057738,0,-1,-1,0,1,-2,-1,-4
1514960355058739,-1,0,-1,-2,-1,0,0,1
1514960355058739,-1,0,-3,0,0,0,-2,-2
1514960355079754,0,-1,0,0,0,-2,0,0
1514960355079754,-1,-1,-1,-1,-1,-1,0,-2
1514960355081755,-2,0,-2,-2,-2,-2,1,-1
1514960355081755,-1,0,-2,-1,-1,0,-1,-1
1514960355102789,0,0,0,-2,0,-1,1,0
1514960355102789,-2,-2,0,0,-1,-2,-2,-2
1514960355103772,-2,-2,-2,0,0,-2,-1,-1
1514960355103772,-2,-1,-1,-1,-1,-2,0,-1
1514960355117782,0,-1,-1,-2,-2,-1,-3,-1
1514960355117782,-1,-1,-1,-1,0,-1,-2,1
1514960355118784,-1,0,-1,-3,-2,1,-1,0
1514960355118784,-1,0,0,0,-1,-4,-2,-1
1514960355139818,-3,-1,1,0,0,1,1,-4
1514960355139818,0,0,-1,-2,-1,0,1,-1
1514960355141807,0,-1,1,0,0,-1,0,-2
1514960355141807,0,-1,-2,-2,0,-2,-1,1
1514960355153815,-2,1,-1,-3,0,-1,0,0
1514960355153815,-1,0,-2,-2,-3,-2,0,-2
1514960355162812,0,-1,-1,1,-2,-1,-1,-3
1514960355162812,-2,0,-1,-1,0,0,-2,-1
1514960355176821,-1,-1,-1,0,-2,-1,-1,-1
1514960355176821,-3,0,-2,-1,0,1,-1,1
1514960355178823,0,0,-1,-1,-2,0,-2,1
1514960355178823,-1,-2,0,-2,-2,-3,-1,-2
1514960355207858,-1,-2,-2,-2,-2,0,-1,0
1514960355207858,-1,-2,-2,0,-1,-3,2,1
1514960355208852,-1,-1,-2,-2,0,-1,0,0
1514960355208852,0,-1,-2,0,-1,0,-2,-2
1514960355213851,1,-2,-1,1,-1,-2,-2,-3
1514960355213851,-3,-2,-2,-1,-2,-1,0,-3
1514960355222879,-1,0,-1,-2,-2,-2,-1,-2
1514960355222879,1,0,-1,-1,-1,-2,1,0
1514960355236864,0,-3,-1,-1,-1,0,0,-3
1514960355236864,0,-1,0,-2,-2,-2,-2,-1
1514960355238865,-3,-2,-1,0,-1,-1,-2,0
1514960355238865,0,0,0,-3,0,-2,0,0
1514960355259932,-1,-1,-1,-2,-3,-3,1,0
1514960355259932,0,1,0,-2,-1,-1,-1,-2
1514960355261904,-1,-2,-2,-1,1,0,0,0
1514960355261904,-1,-2,1,-2,0,1,-2,-2
1514960355273890,-1,0,-2,-2,0,-1,-1,-1
1514960355273890,-1,0,-2,-1,-2,-1,-1,-1
1514960355282927,0,0,-2,-2,-1,-3,-2,1
1514960355282927,-1,0,-2,0,-2,-1,0,0
1514960355296947,-1,-3,-1,-2,-2,-1,0,-3
1514960355296947,-1,-1,-1,-1,-1,-1,-2,0
1514960355298935,-2,-2,0,0,0,-1,0,-1
1514960355298935,0,0,-1,-1,-2,-2,-1,0
1514960355319972,-1,0,-1,-1,0,0,-3,0
1514960355319972,-1,-1,-2,-2,-2,-2,0,0
1514960355321968,-2,-1,-2,-1,-2,0,-2,-2
1514960355321968,0,-3,-2,-2,-1,-1,-1,-1
1514960355342029,-1,0,-2,-2,1,-3,0,0
1514960355342029,-2,-2,0,0,0,0,-2,-2
1514960355343994,-2,0,-2,-1,-2,0,-1,-1
1514960355343994,0,-1,-2,-1,-1,-1,-1,-2
1514960355357029,-1,0,0,-1,0,0,-2,0
1514960355357029,0,-2,-1,-1,-1,-1,0,-1
1514960355359006,0,1,-1,-2,-2,0,-1,-2
1514960355359006,-1,-1,-2,-1,-1,2,-1,-1
1514960355380019,-2,0,-1,1,-2,-2,-1,-1
1514960355380019,-1,-1,0,0,-1,-3,0,0
1514960355381020,0,-2,-1,-2,-1,-2,-1,-3
1514960355381020,0,-1,-2,-1,-3,-1,-2,0
1514960355402044,-1,0,-1,0,-2,0,0,-1
1514960355402044,-1,-1,-2,-1,0,2,3,1
1514960355404046,-1,-1,-1,-2,0,-1,0,-1
1514960355404046,-2,-1,-1,-1,-1,-4,-1,-1
1514960355417060,-1,-1,-1,-2,0,-1,0,0
1514960355417060,-2,-1,-1,-2,-3,-1,-3,-2
1514960355419071,0,-2,-1,1,0,0,-2,0
1514960355419071,0,-1,0,-1,0,0,-1,-2
1514960355440119,-1,-2,-1,0,-1,-1,-1,-1
1514960355440119,-3,-1,-2,-1,0,-1,0,-1
1514960355441063,0,-1,-2,-1,-1,0,-1,-2
1514960355441063,-3,-1,0,-1,-2,-2,-1,-2
1514960355462080,0,-1,-1,-2,-1,0,0,0
1514960355462080,0,-2,-2,-1,-2,-2,-2,-2
1514960355464080,-2,-2,-1,-1,-1,-2,0,-2
1514960355464080,0,0,-1,0,0,-2,1,-2
1514960355477143,0,0,0,-3,-2,-2,1,0
1514960355477143,0,0,0,-1,1,-1,-2,-1
1514960355479096,-2,-3,-1,-2,-1,0,-1,-1
1514960355479096,-2,-1,-2,-1,-2,0,0,-2
1514960355500165,-1,-2,-2,-2,-1,-3,-2,0
1514960355500165,-1,-2,-1,1,-2,-1,0,-1
1514960355501158,-2,0,-4,0,-2,0,1,0
1514960355501158,-1,-1,1,-2,-1,1,-2,-1
1514960355522192,-2,-1,1,1,1,-1,-2,0
1514960355522192,0,-2,-1,-1,-2,-1,0,-1
1514960355524171,1,-1,0,-1,-1,-2,-2,-2
1514960355524171,0,-1,-2,-2,-1,-1,-1,2
1514960355537203,-3,0,0,-2,0,-1,-1,-2
1514960355537203,-2,0,-2,-4,1,-2,-1,-1
1514960355545198,-1,-1,0,-2,-1,-2,-2,-1
1514960355545198,0,0,-1,-1,-1,-2,0,-1
1514960355560218,-2,0,-2,-1,0,-1,-2,0
1514960355560218,-1,-2,0,-1,0,0,0,-1
1514960355561202,-1,-1,0,-1,-2,-2,-1,-1
1514960355561202,-1,-1,-2,0,-1,-1,0,-1
1514960355582226,-1,0,-1,1,0,-2,1,1
1514960355582226,-2,-2,-2,-1,-1,-1,0,-2
1514960355584214,-1,-1,-1,-1,-3,0,-2,-1
1514960355584214,-1,-1,-1,0,-2,-1,0,0
1514960355596222,0,-2,-2,-1,-3,0,-2,-4
1514960355596222,-3,-2,-1,-1,-2,-3,-1,-3
1514960355605228,-1,-1,-1,-3,-1,-1,-2,0
1514960355605228,0,-3,-2,-2,0,-2,-3,1
1514960355620275,0,-1,0,0,-1,0,-1,0
1514960355620275,3,-1,0,0,-2,-1,-1,-1
1514960355621238,-1,-1,0,-2,-3,0,-1,-3
1514960355621238,-1,-2,1,-1,-1,0,0,-1
1514960355642275,0,0,0,0,0,-2,-1,-1
1514960355642275,1,-2,1,-1,0,-3,-2,0
1514960355644265,-1,0,-1,-1,0,-1,0,0
1514960355644265,-2,0,-2,-2,-1,-2,-2,-2
1514960355656282,-3,-2,-2,-2,0,1,-1,-2
1514960355656282,-3,1,-2,-1,0,0,0,-1
1514960355663268,0,-1,-3,-1,-2,0,-1,-1
1514960355663268,-2,-1,-1,-1,-1,-1,0,1
1514960355679286,-1,-1,-2,-2,-2,-2,-1,0
1514960355679286,0,-1,-3,-2,-1,-1,-2,-2
1514960355681283,-2,-3,1,-1,-1,-2,-1,-2
1514960355681283,-2,0,-2,0,-2,-1,0,-3
1514960355702311,-1,-3,-2,-1,-2,1,-2,-1
1514960355702311,0,0,-1,-1,-2,-1,-3,0
1514960355704312,0,0,-4,-2,1,-4,0,-1
1514960355704312,2,-1,0,-2,-1,-4,-1,-1
1514960355716306,-1,-1,0,-2,0,-1,1,2
1514960355716306,-3,1,-1,0,-1,-1,1,-1
1514960355723334,-1,0,0,-1,-1,0,-2,-1
1514960355723334,0,0,-2,-1,-2,-1,-1,-2
1514960355740340,0,-1,-2,-1,-2,0,-2,-1
1514960355740340,-2,-1,-2,-1,-2,0,-1,-1
1514960355741325,0,-1,-3,1,0,-2,-1,0
1514960355741325,-1,0,-1,-2,1,0,0,1
1514960355770374,1,-2,-1,-2,-3,-2,-2,-1
1514960355770374,0,-1,-2,-1,-2,-1,-1,-1
1514960355771347,-2,-2,0,-2,-2,0,-2,-1
1514960355771347,0,-3,-2,-2,-1,0,0,-1
1514960355777357,-2,1,0,-1,-1,0,-2,-2
1514960355777357,-2,-1,-1,-2,-2,1,1,-1
1514960355783383,-1,-3,0,-1,0,-1,-1,0
1514960355783383,-1,0,-2,-1,-1,-1,-2,0
1514960355800367,-2,-1,-3,0,-1,0,1,-1
1514960355800367,1,-1,-1,-1,0,-1,-3,-3
1514960355801369,-2,-2,0,0,0,-3,-1,-4
1514960355801369,-3,-1,-1,-2,-1,0,-1,-2
1514960355822401,-2,-1,-2,-1,0,-1,-1,0
1514960355822401,-1,0,-2,-2,0,-2,-3,-1
1514960355824383,-2,-2,-2,0,0,0,1,-2
1514960355824383,-1,-1,-2,0,-1,0,-2,-2
1514960355836398,0,1,-2,-2,-2,0,-1,-1
1514960355836398,-2,-1,-1,1,-1,-1,0,2
1514960355845399,2,1,0,-1,-2,-2,-1,0
1514960355845399,-1,0,0,0,-2,-1,-1,-1
1514960355859407,0,-2,-1,0,0,-1,-1,-1
1514960355859407,-1,-1,-2,-2,0,-1,-2,-1
1514960355861411,-1,0,-1,0,-1,-1,-2,-1
1514960355861411,-1,-1,0,-2,0,-1,-1,0
1514960355882440,-1,0,-1,-3,-2,-3,2,-1
1514960355882440,0,-1,-2,-1,0,-1,0,-1
1514960355884430,-3,-2,-3,-1,-1,-1,-2,-1
1514960355884430,-1,-2,0,0,-2,-2,-2,1
1514960355896433,-1,0,-1,1,-1,0,1,-1
1514960355896433,-3,-1,-1,-2,-1,-1,0,-2
1514960355905442,0,-1,-2,-1,-1,0,-1,-1
1514960355905442,0,-1,-2,-2,-1,-2,-2,0
1514960355919459,-2,-2,1,-2,-1,-2,-1,0
1514960355919459,-2,1,1,0,0,0,0,1
1514960355921452,-2,-1,-1,-1,-1,-3,0,0
1514960355921452,-1,-1,0,-1,-3,1,-1,0
1514960355942466,-2,-2,0,-3,-1,-1,-3,-1
1514960355942466,1,-3,0,-1,-1,-2,-1,-2
1514960355944467,-1,0,-1,-2,-2,0,0,-1
1514960355944467,0,-2,-3,-4,-1,-1,0,-1
1514960355956477,-3,-1,0,-2,1,-2,-2,1
1514960355956477,-3,-3,-1,-2,0,0,-2,-1
1514960355965487,0,0,-2,0,0,0,0,-3
1514960355965487,-1,0,0,0,0,1,-1,-2
1514960355980495,-1,-1,-2,-2,0,2,-2,0
1514960355980495,1,-1,-3,-1,-1,-1,-3,-2
1514960355981497,0,0,-2,0,-3,-1,-2,0
1514960355981497,-2,-2,0,-1,-1,0,0,-1
1514960356002517,-1,-2,-3,0,-2,-1,0,-1
1514960356002517,-1,-2,0,-2,-2,-2,0,0
1514960356004519,-1,-3,-2,-1,0,-1,-1,-1
1514960356004519,2,-1,-3,2,-1,-2,1,-1
1514960356016519,1,-1,0,-1,-1,-1,-1,-2
1514960356016519,-1,-3,1,-1,-2,1,-1,-1
1514960356025527,-2,-1,-1,-1,-1,-1,-3,-2
1514960356025527,-2,-1,-2,0,-1,-1,-2,-1
1514960356047542,0,1,-2,-2,0,-1,-1,-1
1514960356047542,0,0,-2,-1,-1,-1,-1,1
1514960356049546,-1,-1,-1,-2,1,0,0,0
1514960356049546,-2,0,-1,-1,-2,-1,-1,-2
1514960356062553,-1,-2,-1,-2,-2,0,0,-1
1514960356062553,-3,0,-2,-1,-2,0,-2,-1
1514960356064556,0,0,-2,-1,-1,-1,0,-1
1514960356064556,-1,-1,0,-1,0,-1,-1,0
1514960356075562,-2,0,1,-1,-1,-4,-1,-1
1514960356075562,0,-1,0,-1,-1,-2,0,-3
1514960356085568,-3,-1,-1,-3,0,-1,-1,-1
1514960356085568,-2,1,0,-1,-2,-1,-2,0
1514960356099578,-1,-2,-1,1,-3,0,-1,-2
1514960356099578,-2,0,-3,-1,-1,0,0,-2
1514960356101582,0,1,-1,-1,0,-2,-2,-1
1514960356101582,0,-2,0,-2,-1,0,-1,-1
1514960356122595,-2,-1,-2,-1,-2,-1,-4,0
1514960356122595,-1,-1,-1,-2,0,-2,0,0
1514960356123596,0,-2,-1,-1,-2,-2,0,-2
1514960356123596,0,-2,0,-1,0,-1,-1,1
1514960356135604,0,-1,-2,-1,1,-2,0,-2
1514960356135604,-1,-1,-1,1,-2,-1,0,-3
1514960356144610,-2,-2,-1,-2,0,0,-2,-2
1514960356144610,-1,-1,-2,-1,0,-2,1,-2
1514960356159621,-2,-1,-1,1,-1,0,0,-2
1514960356159621,-2,-1,0,-1,0,-1,-1,1
1514960356161621,-1,-2,0,-1,-2,0,-1,0
1514960356161621,-1,-2,-2,-1,0,-2,-2,-3
1514960356182638,0,-3,1,-1,-1,0,0,-1
1514960356182638,-1,-2,-1,-1,-2,-2,-2,0
1514960356184641,-1,-3,-2,0,-2,-3,0,0
1514960356184641,1,0,-2,0,-1,-3,0,0
1514960356196648,-1,0,-1,-1,-3,-1,0,-2
1514960356196648,-1,-1,-1,-1,-1,-1,-2,-1
1514960356212658,-1,0,-1,0,-1,1,-2,-2
1514960356212658,-2,-1,-2,-2,0,-2,-1,1
1514960356219662,1,-3,-1,-1,1,-2,-2,-1
1514960356219662,-2,0,-1,-2,-1,1,0,-1
1514960356221669,-1,0,-1,-1,0,0,0,-1
1514960356221669,2,0,-2,0,-2,1,0,-1
1514960356242678,-1,-1,-3,0,-3,-1,-2,-1
1514960356242678,0,0,0,-3,-3,-3,-1,0
1514960356243678,-2,-2,-1,-1,-1,1,-1,-1
1514960356243678,-4,-2,-1,-2,-1,0,0,0
1514960356272738,-3,0,0,-2,0,-2,1,0
1514960356272738,1,-1,-1,1,1,-1,-2,-3
1514960356273700,-2,-1,-1,-4,-1,-3,-1,-2
1514960356273700,-1,-1,0,-1,-1,1,-2,-1
1514960356279716,-3,-1,-2,-1,-1,-1,-2,-1
1514960356279716,-1,-1,-3,-1,-1,0,1,-2
1514960356281718,-1,1,-1,0,-1,0,-1,-1
1514960356281718,1,-2,-1,-2,-2,-1,-2,-1
1514960356301729,0,-1,-1,-2,-1,0,-1,-2
1514960356301729,-1,0,-2,-1,1,-2,-2,-2
1514960356303727,-2,-1,-1,-1,0,-1,0,1
1514960356303727,-2,-2,0,-1,-1,-3,0,-3
1514960356324771,1,-1,-1,0,0,-1,-2,0
1514960356324771,-2,-2,-1,-2,-1,-1,-1,-1
1514960356326738,-1,-2,-1,0,-1,-1,-1,0
1514960356326738,-3,1,-2,-1,0,-1,0,2
1514960356339763,0,-1,0,-1,-1,-1,-1,-2
1514960356339763,0,-1,0,-2,-1,0,-1,-1
1514960356341775,-2,-1,-2,-1,-1,-2,-2,-1
1514960356341775,0,-3,-1,1,-2,-1,-2,-1
1514960356362763,-1,-2,-2,1,-1,0,0,0
1514960356362763,-2,-3,-2,-3,-1,-2,-1,0
1514960356363764,-1,-2,-1,-2,0,0,-2,-2
1514960356363764,-1,1,-1,-2,0,-1,-2,-3
1514960356384801,-1,-1,-1,-1,-1,-1,0,-2
1514960356384801,0,-2,-2,0,-1,0,-2,-2
1514960356386799,1,-3,-1,-1,-2,-2,1,-1
1514960356386799,-1,-2,-1,-1,-2,0,-1,1
1514960356399798,-2,-1,-1,0,0,-1,-1,-1
1514960356399798,-1,-2,0,0,0,-1,1,-1
1514960356401792,-1,-2,-2,-2,0,-2,-2,0
1514960356401792,-1,-1,-1,-2,-1,0,-3,-1
1514960356421826,0,0,0,-2,-1,0,0,-1
1514960356421826,-1,-1,0,0,-3,-2,-1,-2
1514960356423811,0,0,0,-1,-2,-2,-1,-1
1514960356423811,-1,-3,2,-1,-1,0,1,-4
1514960356444836,-1,-1,-2,-2,-1,-1,-1,-2
1514960356444836,0,-3,-3,-1,0,0,0,-1
1514960356446832,0,0,-1,1,-1,0,-1,0
1514960356446832,-1,-1,-2,0,0,-2,1,0
1514960356458845,-2,0,0,-1,-1,-1,-2,1
1514960356458845,0,-1,-1,0,-1,-2,-1,-1
1514960356473866,-2,-2,-2,-1,-2,-1,-2,1
1514960356473866,-1,-2,-1,-2,0,-1,-2,-1
1514960356489877,2,-1,-1,0,-2,-1,0,-1
1514960356489877,-2,0,-4,-1,0,-2,-1,0
1514960356491867,1,0,-2,-1,-1,-2,-1,-1
1514960356491867,-1,1,-1,0,-2,-2,-1,-1
1514960356504877,-2,-1,-1,-3,-1,-2,-2,-1
1514960356504877,-1,-1,0,-2,0,-1,-2,0
1514960356506890,0,-2,-2,-1,0,-1,-2,0
1514960356506890,0,-1,-1,-1,-1,-1,-1,0
1514960356518873,-1,-1,-1,-2,-1,-2,-2,0
1514960356518873,-1,-1,0,-1,-2,0,2,0
1514960356525935,-2,-2,0,0,-1,0,-1,-1
1514960356525935,0,-1,-1,-1,0,-2,-1,0
1514960356549914,0,-2,1,-2,-1,-1,-2,-2
1514960356549914,-2,-1,-1,0,-2,0,-3,-2
1514960356551915,1,0,-3,-2,-1,-1,0,-1
1514960356551915,0,0,-3,-2,0,-3,-2,-2
1514960356564918,-2,-1,-1,0,0,-2,1,-2
1514960356564918,0,-1,-1,-3,0,-1,-2,0
1514960356566909,0,0,0,-1,-2,-1,0,-1
1514960356566909,-2,-2,1,-1,-1,1,-2,1
1514960356578984,-2,-1,-3,0,-1,-1,-1,1
1514960356578984,0,0,-1,-2,0,-1,0,-1
1514960356586037,-2,-1,-1,-1,1,-2,0,-4
1514960356586037,-1,-2,0,-1,-2,0,-1,-1
1514960356601996,-3,0,-1,-1,-2,1,-3,0
1514960356601996,-1,0,1,0,-2,0,-1,0
1514960356603995,-2,-2,-1,-1,1,-2,-2,-2
1514960356603995,-1,0,-1,-1,-2,-1,1,-2
1514960356625024,2,-1,-2,0,-2,-3,1,-1
1514960356625024,-3,-1,-2,-1,-2,-2,1,-2
1514960356626023,-1,0,1,-2,-2,0,0,0
1514960356626023,-1,-2,-1,0,-1,-2,-3,-1
1514960356639029,-1,-2,-1,-1,-2,0,1,0
1514960356639029,0,0,-1,-1,0,-1,-1,1
1514960356653032,-3,0,-2,-2,-1,0,-2,-1
1514960356653032,-1,-1,-2,0,-1,-1,1,-3
1514960356662029,0,0,0,-1,-1,-1,0,-2
1514960356662029,-2,0,-1,-2,-2,-2,0,-3
1514960356664030,0,-2,0,-2,-1,-1,-3,0
1514960356664030,0,-2,0,-3,0,-2,-2,-1
1514960356685047,-1,-1,-2,-1,-1,1,-1,-2
1514960356685047,-1,-2,-2,-2,-1,1,-1,-2
1514960356686046,-1,1,-1,-2,1,-1,-2,-1
1514960356686046,-1,-1,-1,-1,-2,1,0,0
1514960356715066,-2,-1,0,-1,-1,-1,-3,0
1514960356715066,-4,-2,-2,0,-1,-1,-1,-2
1514960356716076,-2,-2,-2,-1,-2,2,0,-1
1514960356716076,-1,-2,-1,-1,-1,-1,-2,1
1514960356722085,0,-1,-3,-1,-1,1,0,-2
1514960356722085,-1,0,-1,0,-2,-3,-2,-2
1514960356724095,-1,-1,0,-1,-2,-1,0,-1
1514960356724095,-1,-1,-1,0,0,-1,1,-2
1514960356745098,-2,-3,-2,-2,-1,-1,-1,1
1514960356745098,0,-1,-1,-1,0,0,-3,-2
1514960356746088,1,-3,-2,1,-2,-2,2,0
1514960356746088,-1,-2,0,1,-1,-1,-2,-1
1514960356767125,-1,-1,-3,-2,-1,-3,-2,-2
1514960356767125,0,-2,-1,-1,-1,0,-1,-2
1514960356769144,-1,0,0,-2,0,-1,-2,-2
1514960356769144,-1,1,-3,-1,-1,-1,0,1
1514960356782151,-2,0,0,-2,1,-1,-2,-1
1514960356782151,-4,-2,-1,0,-3,-2,-1,0
1514960356784147,0,-1,-1,-1,-2,-1,0,0
1514960356784147,1,-1,-1,-1,-1,-2,0,0
1514960356805149,-2,-1,-1,-2,0,0,0,-2
1514960356805149,-2,1,-2,0,0,-1,0,0
1514960356806145,-3,-1,-2,0,-2,-3,-1,-2
1514960356806145,0,-1,-2,0,0,0,-2,0
1514960356818141,-1,-1,0,0,-2,-1,-3,-2
1514960356818141,0,-4,1,-2,-1,-1,-1,-2
1514960356827159,-1,-2,-2,-2,-1,-1,-2,0
1514960356827159,-1,-1,0,-1,-2,-1,0,-2
