timestamp,emg1,emg2,emg3,emg4,emg5,emg6,emg7,emg8
1514896095777903,0,-1,2,-2,-1,-2,0,-1
1514896095777903,-3,-4,-5,-4,-4,-1,-1,-2
1514896095778403,-1,-2,7,3,-1,-2,-2,-2
1514896095778403,-3,0,-5,3,3,0,-1,-2
1514896095799920,-2,6,2,1,0,-1,-1,0
1514896095799920,-1,-3,-19,-6,-1,0,-1,-1
1514896095800922,-1,-2,18,8,-4,-1,-1,-2
1514896095800922,1,2,-4,-4,-1,0,0,0
1514896095830440,-2,2,-2,2,1,0,-1,-2
1514896095830440,-1,-2,-4,0,-2,-2,-1,-1
1514896095831444,1,-1,-8,-6,-2,-3,-2,-1
1514896095831444,0,0,-1,3,4,1,2,-1
1514896095837445,0,0,0,1,-4,-1,0,-1
1514896095837445,-1,-4,1,-4,2,1,-2,-1
1514896095838447,0,-5,3,-3,2,0,0,-1
1514896095838447,-2,0,-2,-5,-5,-2,-1,-1
1514896095859460,-2,-3,-9,1,2,0,0,-3
1514896095859460,-2,-4,5,1,-7,-4,-3,-3
1514896095860461,-1,0,-1,0,1,-2,-2,1
1514896095860461,-1,1,-6,12,1,-2,-1,-2
1514896095874471,-1,0,-8,-22,1,0,-1,0
1514896095874471,1,0,6,4,-3,-2,-2,-2
1514896095882979,-1,-3,-8,-4,-1,-1,0,-2
1514896095882979,-1,1,-3,0,-6,-2,-1,-1
1514896095904492,0,-1,2,2,5,1,-1,-1
1514896095904492,-1,-3,4,0,0,-1,-2,0
1514896095912999,0,-4,-21,-7,-3,0,-1,0
1514896095912999,-1,-1,9,-2,-4,1,-1,0
1514896095919503,-2,0,7,3,-4,-2,-2,-1
1514896095919503,-2,-4,-4,-6,0,-1,1,-1
1514896095920504,0,0,-2,1,0,-1,0,-1
1514896095920504,-2,-1,-6,-2,0,0,0,-1
1514896095935024,0,0,-6,-2,-2,-2,-1,-2
1514896095935024,-1,-3,6,3,0,-1,0,-1
1514896095935514,-1,-2,-6,-6,-1,-1,-1,-2
1514896095935514,-1,-3,3,-6,-4,-3,-2,-2
1514896095957042,-1,-1,-3,12,5,1,-2,1
1514896095957042,0,-1,0,-6,-4,1,-1,0
1514896095958042,-1,0,10,5,-3,-2,-1,0
1514896095958042,2,1,-4,-9,1,-2,0,-1
1514896095981048,-1,0,-5,4,0,1,1,-1
1514896095981048,-2,-1,-7,-15,-4,-2,1,-1
1514896095981547,-2,-2,4,8,2,0,-3,-2
1514896095981547,-1,-1,1,-4,-1,1,-3,-1
1514896095995557,-1,-1,2,14,-5,-2,-1,0
1514896095995557,-2,-2,-7,-12,3,-1,0,-2
1514896095997559,-1,-4,-7,-10,0,0,-2,0
1514896095997559,-2,-1,2,5,-3,-4,-2,-2
1514896096017573,-2,-2,-8,-9,-1,-1,-1,-1
1514896096017573,-2,-1,1,7,-4,0,-3,1
1514896096018073,1,-2,-3,-2,-1,-1,1,-2
1514896096018073,-3,-3,12,7,1,-1,-1,0
1514896096048095,-1,-1,6,-3,-3,-1,0,0
1514896096048095,-1,0,-4,0,-1,0,-2,-1
1514896096048596,0,-1,-5,-10,-2,1,0,0
1514896096048596,-2,-2,-8,4,5,0,-2,-1
1514896096056100,-1,0,2,-10,-4,-4,-2,-1
1514896096056100,-1,-4,-1,6,-1,-2,-1,-2
1514896096058110,-1,0,3,12,-3,-3,-1,-1
1514896096058110,-1,1,1,-15,-4,-1,1,-2
1514896096077124,-1,-1,-7,-1,0,0,-1,-2
1514896096077124,-1,0,2,0,-3,-1,-1,-1
1514896096078124,-2,-4,-7,-2,1,0,-1,0
1514896096078124,-1,1,1,3,-1,0,-2,-1
1514896096108647,-2,-1,-7,-6,-2,-1,-1,-2
1514896096108647,-4,-3,5,1,0,-1,-3,-2
1514896096109137,-1,-1,9,4,-1,-1,-3,-1
1514896096109137,-1,-2,-11,-2,-2,-2,0,0
1514896096115153,-2,-1,-4,-17,-4,-1,-1,-2
1514896096115153,1,-2,-5,7,2,-2,0,0
1514896096115642,0,0,0,-2,1,0,0,-1
1514896096115642,-1,0,6,3,-2,-3,-1,0
1514896096137157,-2,-2,11,15,-3,-2,-1,-3
1514896096137157,-1,-4,-5,-16,0,1,0,-1
1514896096138158,-2,-2,0,1,2,-1,0,-1
1514896096138158,-1,-2,-8,-1,-2,-2,-1,-2
1514896096160691,-2,0,-3,-6,-3,-3,-2,2
1514896096160691,0,-1,1,7,-2,-1,-2,-1
1514896096162197,-1,-3,-1,-1,-3,0,0,1
1514896096162197,1,0,-6,-5,-1,0,0,-1
1514896096183190,-1,-2,1,-3,-3,-3,-2,-1
1514896096183190,-2,-3,-3,2,0,-1,-1,0
1514896096183690,0,0,9,0,-3,0,-3,-1
1514896096183690,-1,0,-12,-4,2,-1,-1,-1
1514896096198201,-2,0,5,4,-1,1,-1,-1
1514896096198201,-1,0,-5,-1,2,2,-1,-1
1514896096200201,-3,-3,-5,-4,-2,-1,0,-4
1514896096200201,1,1,5,-2,-2,-1,0,-1
1514896096220228,-1,-3,-2,6,-2,-2,-1,-2
1514896096220228,-1,-1,-1,-6,-1,-3,-3,-1
1514896096221218,0,-3,2,3,2,1,0,0
1514896096221218,-1,-3,-7,-1,-1,0,-1,-1
1514896096234736,-1,-1,1,-8,-2,-1,0,0
1514896096234736,1,-2,-1,3,-1,-1,-1,-1
1514896096235739,-1,0,-1,2,-1,-1,-1,-2
1514896096235739,0,0,-1,-5,-7,-2,-2,0
1514896096257254,-1,-2,-5,4,9,3,1,0
1514896096257254,-1,-3,0,1,-3,-3,-1,-1
1514896096258255,0,-2,-2,-5,-2,-2,-1,-1
1514896096258255,-1,2,7,-3,-2,-1,-1,-2
1514896096281265,0,1,-4,-3,-3,-2,-1,0
1514896096281265,2,0,-1,-2,-1,-1,0,0
1514896096281760,-3,0,-2,-1,-2,-2,0,-1
1514896096281760,-1,-1,-8,7,2,-1,0,0
1514896096302774,1,2,1,-9,0,-2,-1,-1
1514896096302774,-1,-4,7,7,3,2,-2,-1
1514896096303274,-2,-1,4,2,-4,-1,-2,1
1514896096303274,-1,0,-5,-12,-1,-1,0,-1
1514896096318786,-2,-3,-6,2,3,-1,-1,-2
1514896096318786,-4,-2,-4,-2,-5,-3,-1,-1
1514896096319786,-1,0,6,4,8,1,0,-2
1514896096319786,-1,-1,-6,3,2,0,0,0
1514896096340301,0,-2,0,-5,-3,-2,-1,-1
1514896096340301,-1,-5,5,-4,-5,-1,-1,-1
1514896096341301,-2,-1,-9,-7,-3,-2,0,-1
1514896096341301,-1,-1,7,0,-1,-2,0,-2
1514896096354319,-1,1,6,-1,-3,-3,0,-2
1514896096354319,0,1,-6,-2,0,1,-1,0
1514896096362316,0,0,-1,-1,-2,-1,-2,-1
1514896096362316,-2,-1,0,0,0,2,0,0
1514896096385332,0,-2,-8,4,-3,-1,-2,0
1514896096385332,-1,0,4,-5,2,-2,0,0
1514896096386352,-1,-2,-1,-5,-6,0,-1,0
1514896096386352,-2,-1,1,3,1,-1,-1,-2
1514896096400844,-1,-2,-2,-10,-5,1,-1,-1
1514896096400844,-2,-2,-9,5,0,-2,-1,-3
1514896096401345,-1,0,9,-3,-6,-2,-2,-2
1514896096401345,1,1,-2,2,3,-1,-1,-1
1514896096414359,-1,-2,-13,0,1,0,0,-1
1514896096414359,-1,-2,-1,-1,-3,-1,-2,-2
1514896096422370,-2,0,4,-1,-2,-3,-3,-2
1514896096422370,0,2,3,-3,-7,-4,-1,0
1514896096437379,-1,-3,-2,2,3,0,0,-2
1514896096437379,-1,0,-8,-9,-4,-1,-1,0
1514896096438870,-1,-2,-9,6,6,1,0,-2
1514896096438870,1,0,1,-11,-5,-1,-1,-2
1514896096460385,1,-1,6,5,-2,-2,-3,-3
1514896096460385,0,-1,-2,-6,-2,1,0,-2
1514896096461386,0,-2,-4,1,-2,-2,-1,0
1514896096461386,-1,-1,5,-3,0,-1,-1,-1
1514896096474404,-1,-1,1,2,-3,-2,-1,-1
1514896096474404,0,-2,-2,-3,-2,-1,-1,0
1514896096482401,0,0,-4,3,0,0,-2,-1
1514896096482401,-1,-2,-12,-7,0,0,-1,-1
1514896096497412,-2,-1,15,1,-4,-2,-2,-1
1514896096497412,-2,-1,0,1,2,-1,0,0
1514896096498914,-1,-1,-5,-8,-4,-1,-1,1
1514896096498914,0,-1,1,3,0,0,-1,-1
1514896096520438,-2,-1,-3,-2,1,1,1,0
1514896096520438,0,-1,-1,1,2,-1,0,-2
1514896096521439,-3,-3,3,-2,-1,-3,-2,-2
1514896096521439,-1,-2,-3,6,-1,-2,-1,-2
1514896096533937,-1,-2,-9,-19,-5,-2,-1,0
1514896096533937,-2,-2,13,7,0,-1,0,-1
1514896096542443,-2,3,3,-8,-4,-1,1,-2
1514896096542443,1,-1,-7,-4,-2,-1,0,0
1514896096557454,-2,-2,3,12,4,-1,-2,-2
1514896096557454,-1,-3,-8,-5,-3,-1,-1,0
1514896096557954,0,4,8,11,1,-1,0,0
1514896096557954,-3,-3,0,-5,-2,-1,-1,-2
1514896096580480,-1,-1,-4,-5,0,0,0,-1
1514896096580480,-2,1,3,5,-3,0,-4,-2
1514896096581972,-2,0,-1,0,-1,-1,0,-2
1514896096581972,0,2,5,-2,-2,-1,0,0
1514896096594984,0,-10,4,8,0,-1,0,0
1514896096594984,0,1,-5,-6,3,-1,0,1
1514896096610003,-1,-3,-13,-22,-1,-1,-1,0
1514896096610003,0,-1,11,31,1,0,-1,-2
1514896096617497,0,0,15,-13,-2,-2,-1,-3
1514896096617497,-2,0,-9,4,-1,1,0,-1
1514896096617997,0,0,4,-2,-1,1,-1,1
1514896096617997,-2,-3,-7,-2,0,0,-1,-2
1514896096640513,1,8,0,-1,-1,-1,-1,-1
1514896096640513,-1,-2,0,-1,-1,-3,-1,0
1514896096641013,0,-1,-9,-2,-4,0,-2,0
1514896096641013,0,-1,10,1,-3,0,-1,-1
1514896096663572,-1,-1,-12,-6,0,1,0,1
1514896096663572,-1,-4,1,-3,-1,-2,0,-2
1514896096664075,-1,-4,-1,3,0,-1,0,0
1514896096664075,-3,2,-2,0,-1,-1,-2,-2
1514896096677582,-1,0,-7,-7,-1,0,-1,-1
1514896096677582,-1,-3,0,-1,-1,-2,-1,-2
1514896096679083,-2,-2,0,6,1,0,-1,0
1514896096679083,1,0,-8,-18,1,-1,0,3
1514896096700608,-1,3,5,1,-6,-5,-2,-3
1514896096700608,-1,-6,-8,2,2,-1,-1,-1
1514896096701099,-1,-1,0,-2,-1,-1,-2,-3
1514896096701099,0,1,-5,-5,-2,-1,-2,0
1514896096714113,-1,-2,-14,-6,-1,0,-2,0
1514896096714113,0,-2,10,-1,-2,-2,-3,-3
1514896096722628,-1,-3,7,6,1,0,-1,-2
1514896096722628,-1,0,-8,4,2,-1,0,-2
1514896096745642,0,-2,-6,-8,-2,-1,-2,0
1514896096745642,-2,-2,-2,1,-1,0,-1,-3
1514896096746130,-2,-2,-9,-6,-2,-1,-2,0
1514896096746130,-5,-1,9,3,0,-1,-2,-3
1514896096760650,-1,-2,-3,3,-2,-1,-1,-1
1514896096760650,-1,-3,1,-4,-2,-1,-1,-1
1514896096761142,0,-1,-1,3,-2,-1,-1,-1
1514896096761142,0,1,2,-6,-2,-2,-3,0
1514896096783156,-1,0,-6,1,-2,-2,-1,-1
1514896096783156,-1,-1,-5,12,-1,-2,-1,-1
1514896096783658,-1,-1,0,-14,-1,0,-1,-2
1514896096783658,1,1,4,-2,-3,-2,-1,0
1514896096798170,-1,0,-8,1,-3,-2,-3,-1
1514896096798170,-2,-2,-4,2,2,-1,-1,-1
1514896096799668,-2,1,-4,2,-1,-1,-2,-1
1514896096799668,-2,-1,-10,-5,0,-1,0,-2
1514896096820693,-1,0,21,3,-3,-2,-2,-2
1514896096820693,-1,-1,-1,2,2,2,0,0
1514896096821184,-2,1,-2,3,-2,-1,-1,0
1514896096821184,-1,-1,-8,-13,-2,-1,0,-2
1514896096843699,0,-1,-3,5,0,-1,1,-3
1514896096843699,-1,-1,-6,-11,-3,-2,0,0
1514896096845201,-3,-4,5,-2,0,-1,1,-2
1514896096845201,-3,-1,0,5,-2,-1,0,-1
1514896096857712,1,-3,-1,1,-1,-2,0,-1
1514896096857712,1,0,11,-1,-4,-2,-3,-1
1514896096858210,2,-1,-7,3,4,0,1,0
1514896096858210,-1,3,3,10,2,-1,-1,0
1514896096879726,-3,1,0,-10,0,0,-1,1
1514896096879726,-2,-4,-6,-4,-1,0,-1,-2
1514896096887731,-1,-2,3,-3,-2,0,0,0
1514896096887731,0,0,-7,-4,-1,-2,-1,0
1514896096903242,-1,-1,-4,1,1,-1,-1,1
1514896096903242,0,-3,8,-1,-4,-3,0,0
1514896096903743,1,-4,-7,-1,3,0,-1,-2
1514896096903743,0,-1,6,2,-1,-2,0,0
1514896096917754,-1,-1,-6,-3,-4,-2,-1,-1
1514896096917754,-2,-3,-3,-4,-1,0,-3,-2
1514896096918254,-1,-3,-9,-5,-2,0,-3,-1
1514896096918254,-2,-2,14,-4,-3,-2,0,-1
1514896096940770,1,-1,-3,3,1,-1,-1,-1
1514896096940770,-1,-3,-3,3,3,2,0,-1
1514896096941269,-2,-1,-7,3,-2,-3,0,-3
1514896096941269,-1,1,-3,6,1,-1,-2,-2
1514896096963283,-2,-2,-4,-18,-4,-3,0,-2
1514896096963283,-1,-2,0,2,-1,-3,0,-1
1514896096963786,-2,1,1,1,-1,0,-1,0
1514896096963786,-1,1,2,-2,-2,0,-1,1
1514896096977294,-2,-2,3,6,2,-1,-1,0
1514896096977294,-1,-1,-4,-2,0,0,-1,0
1514896096978295,-1,-1,2,1,1,-2,-1,0
1514896096978295,0,1,2,1,-7,-1,-2,-3
1514896097000813,1,-1,-3,6,2,1,0,-2
1514896097000813,0,-6,-2,-16,-9,-2,0,1
1514896097001313,-2,-1,1,1,2,0,1,-1
1514896097001313,0,0,-1,-2,4,2,-1,0
1514896097023332,-2,-3,-1,-2,-2,-1,-3,2
1514896097023332,0,-1,-5,15,-2,-1,-2,-1
1514896097023829,-1,2,10,-16,-3,-1,-2,-2
1514896097023829,0,1,-6,0,1,-3,0,-1
1514896097037338,-2,2,-1,1,0,0,1,-1
1514896097037338,0,-3,-6,2,5,0,-1,-1
1514896097044845,-2,-2,0,12,2,-1,-1,-1
1514896097044845,-2,0,2,-5,-2,-2,0,0
1514896097060353,-2,-2,1,6,-3,-1,-2,-2
1514896097060353,-3,-2,0,-1,-2,-1,-1,0
1514896097060853,1,1,-10,-1,-6,-1,-1,-1
1514896097060853,-1,-3,-7,-14,3,-2,-1,-1
1514896097090373,0,-4,0,-1,-1,-1,-1,-1
1514896097090373,-1,-2,2,-1,-1,0,-1,-2
1514896097091375,0,-2,4,14,0,-2,0,-1
1514896097091375,-2,1,-7,-13,-6,-3,-1,0
1514896097096878,0,0,3,-3,-2,-2,-1,-1
1514896097096878,-1,0,3,-1,-1,-1,0,-1
1514896097104883,1,0,0,-3,-2,0,-1,-1
1514896097104883,-1,-1,-4,5,0,-2,-2,-1
1514896097120397,-2,-3,-1,-3,-3,-1,-3,0
1514896097120397,-1,-3,-7,-1,2,2,0,-2
1514896097121396,-2,-1,7,0,-4,-3,0,0
1514896097121396,-1,3,0,3,4,1,-1,-1
1514896097143914,-3,-1,-2,2,-2,-1,-2,-3
1514896097143914,-2,-2,-2,-7,-2,-2,-3,-1
1514896097143914,-2,-2,-4,-1,-2,0,-1,-2
1514896097143914,0,-1,-5,-10,-1,-2,0,-2
1514896097156921,0,-2,-1,-1,0,0,1,-1
1514896097156921,-3,-3,-1,4,-3,-2,-1,-1
1514896097172934,-1,-2,-2,-15,-1,0,-1,0
1514896097172934,-3,-1,-2,3,-4,-3,-1,0
1514896097180437,-2,0,5,2,0,0,0,-1
1514896097180437,-1,-3,-12,2,1,-1,0,0
1514896097181438,-1,1,6,1,-3,-1,-1,1
1514896097181438,-1,1,6,2,0,0,0,-2
1514896097203457,0,-3,-10,-5,-1,0,-1,-1
1514896097203457,-2,-2,3,-5,-7,-2,-1,-1
1514896097203957,0,-1,-1,3,2,0,-2,-2
1514896097203957,-2,-1,-8,-2,-2,-1,-2,-1
1514896097217965,-1,-2,-3,-7,1,-1,1,-1
1514896097217965,0,-2,5,0,-2,-1,-1,-1
1514896097218466,-1,1,-5,-1,-1,0,-1,0
1514896097218466,0,1,-6,-7,-3,0,-1,-1
1514896097240481,-1,0,2,1,-3,-1,-1,-1
1514896097240481,-4,-3,4,-7,-2,-1,-1,-2
1514896097241481,0,0,-10,1,1,0,-1,-1
1514896097241481,-1,-4,6,7,0,-1,0,-1
1514896097263502,-1,-2,-2,0,0,-1,-2,0
1514896097263502,1,-2,1,-9,-3,-1,-2,-1
1514896097263997,0,-1,-1,7,1,-2,-2,-3
1514896097263997,-1,-3,1,-1,4,0,2,-3
1514896097277506,0,-1,-2,-2,-1,-1,-1,-1
1514896097277506,-1,-3,3,3,1,-2,-2,-2
1514896097278006,-1,0,-7,-12,-4,-1,1,-1
1514896097278006,1,4,5,4,-2,-3,-1,0
1514896097302025,1,-2,3,10,-1,-3,-1,0
1514896097302025,1,-3,-1,-7,2,2,-1,0
1514896097303024,-1,-1,-8,-4,-2,-3,1,-1
1514896097303024,-1,1,1,0,-1,-1,-1,0
1514896097323041,0,-2,0,-5,1,0,0,-1
1514896097323041,2,-3,2,6,-1,-1,-1,-2
1514896097324045,-2,-1,-5,0,2,-1,-2,-1
1514896097324045,0,2,0,-3,-3,-1,-3,-1
1514896097336547,0,0,-2,2,0,-1,0,-2
1514896097336547,-2,0,-11,-2,-1,-3,0,-2
1514896097345554,-1,0,7,-2,-1,0,-1,-1
1514896097345554,-1,2,3,5,0,0,-2,-1
1514896097360564,-1,-2,-5,-3,-2,-2,-1,-2
1514896097360564,0,-2,0,-2,0,2,1,1
1514896097361566,0,-2,1,-3,-3,-1,-1,0
1514896097361566,-2,1,-9,9,-3,-1,0,1
1514896097383081,-2,-1,1,-11,-1,-2,-4,0
1514896097383081,-1,1,-3,2,0,-1,0,1
1514896097383582,-2,0,-1,0,-2,-1,-1,0
1514896097383582,0,-4,-2,4,0,-2,0,0
1514896097396600,-3,-3,-3,1,-3,-2,-2,-3
1514896097396600,-2,-1,2,-1,1,-1,-2,-1
1514896097404605,0,-1,4,4,0,-2,0,-1
1514896097404605,-2,1,-3,-8,-4,-2,-1,-1
1514896097420617,-2,-3,-1,-1,-1,0,1,-1
1514896097420617,0,-3,1,-3,-2,0,-2,-2
1514896097421608,-1,0,3,3,2,-2,1,-1
1514896097421608,1,-1,-7,-7,-1,-1,1,-1
1514896097442134,0,0,2,8,-1,-1,-1,0
1514896097442134,-3,-3,0,-6,0,0,-1,-2
1514896097450137,1,0,0,-3,-3,0,-1,-1
1514896097450137,0,1,-4,-4,-1,0,-2,-1
1514896097456649,0,-2,-2,-4,-1,0,-1,0
1514896097456649,-1,-2,-3,10,-3,-1,0,-2
1514896097465145,-3,2,1,-6,-1,0,-2,-1
1514896097465145,0,-2,4,-9,1,0,-1,-1
1514896097480665,-2,-3,-4,2,0,0,0,-2
1514896097480665,0,-4,-15,-1,1,-2,-2,0
1514896097481152,-1,0,27,8,-5,-2,-2,0
1514896097481152,-2,2,-2,-1,-1,0,1,1
1514896097502692,-1,-2,0,-2,-2,-2,0,-2
1514896097502692,0,-3,0,-2,-3,-2,-1,-1
1514896097503693,0,-1,-13,-4,3,-1,-1,-1
1514896097503693,-1,0,0,1,-6,-4,-1,-2
1514896097516714,-1,-3,-2,-6,1,0,-2,-1
1514896097516714,-1,-4,2,2,-3,0,-2,0
1514896097524707,-1,0,-4,-10,2,-1,-1,0
1514896097524707,-1,1,-5,1,-1,-2,0,1
1514896097540218,2,1,5,-5,-5,-2,-2,-2
1514896097540218,-2,-1,-7,-3,1,-1,0,-1
1514896097541219,-3,1,10,4,-2,-1,-1,-1
1514896097541219,-3,-2,0,4,-2,-1,-2,-3
1514896097562773,-1,-2,-4,-2,-1,-1,-2,0
1514896097562773,-1,-1,-1,-5,-1,-1,-1,-1
1514896097563736,-2,0,-10,3,1,0,0,0
1514896097563736,-1,-1,-6,-7,-2,1,-1,-1
1514896097576760,-1,-2,2,4,0,-1,-2,-2
1514896097576760,-1,-3,0,-2,-1,0,-2,-2
1514896097584749,-2,-2,-6,0,2,-1,1,-2
1514896097584749,-1,2,0,1,-1,-2,-2,0
1514896097600263,0,-3,-5,-11,-3,-1,0,0
1514896097600263,-2,-2,12,8,-3,-3,-1,0
1514896097601261,-1,0,-4,-5,2,-1,-3,-1
1514896097601261,-3,-3,0,-11,-2,-1,-1,-2
1514896097622788,-3,-2,-1,4,-2,-2,0,-1
1514896097622788,-2,-2,-7,-3,1,0,-1,0
1514896097624790,-2,1,2,0,-8,-3,-2,-4
1514896097624790,-1,-1,1,3,5,-2,1,-2
1514896097636785,0,-3,-2,2,-1,-3,-1,-2
1514896097636785,-1,-2,0,-4,-1,-2,0,-2
1514896097645820,0,-1,-1,-1,-1,-1,-1,1
1514896097645820,-1,0,-3,-2,0,0,0,-1
1514896097659815,-3,-4,2,1,-1,-3,-2,-1
1514896097659815,0,0,4,2,2,-1,-2,-1
1514896097666808,1,-1,-14,-4,-2,-2,-3,0
1514896097666808,0,1,-5,-2,2,-1,-2,0
1514896097682819,0,0,-2,1,2,0,0,0
1514896097682819,-3,-1,13,-4,-3,-1,-2,-3
1514896097684319,-2,0,-5,-3,2,-2,0,-1
1514896097684319,0,-1,10,1,-4,-1,-1,-1
1514896097705335,-1,-2,-4,-2,-9,-3,-1,-1
1514896097705335,-1,-3,-10,-10,6,2,1,0
1514896097706837,-2,-3,0,2,-3,0,-2,-1
1514896097706837,1,-1,-2,-2,0,0,0,-1
1514896097720345,-1,-1,-2,3,3,2,-1,0
1514896097720345,-1,-3,3,1,-7,0,-2,0
1514896097727854,-1,1,8,3,-1,-2,-1,-1
1514896097727854,-1,0,-4,2,-1,1,-2,-2
1514896097750367,0,-2,-2,-7,-3,0,-1,-3
1514896097750367,0,-2,1,4,-1,-2,-1,0
1514896097752880,0,-1,-5,-1,-1,2,0,0
1514896097752880,-1,-1,-6,-2,-3,-3,-1,-1
1514896097772922,-2,0,4,1,-1,-1,0,-1
1514896097772922,-1,-1,-7,0,2,1,-1,-1
1514896097774420,0,-2,0,-2,-2,-2,0,0
1514896097774420,1,-1,0,-1,-2,-2,-1,-1
1514896097779925,-2,-3,-6,8,2,-2,-1,0
1514896097779925,-2,-1,12,-9,0,0,-2,0
1514896097786429,-2,-2,-4,-7,-2,0,-1,-3
1514896097786429,0,-1,-3,-2,-3,-1,-1,-2
1514896097802941,-2,-2,1,2,3,1,0,-1
1514896097802941,0,-1,-6,14,0,-3,0,-2
1514896097804453,-1,1,-3,-7,-4,-1,-1,-1
1514896097804453,-1,0,1,0,2,-2,1,-2
1514896097825959,-1,-1,-4,-6,-2,-2,-3,0
1514896097825959,0,-2,-2,-2,-2,-1,-1,1
1514896097840967,-1,0,3,3,-2,-1,-1,-1
1514896097840967,-2,-1,-3,-2,-3,-1,-2,-1
1514896097846971,-2,-2,1,0,1,-1,0,-1
1514896097846971,-1,-4,-4,-1,-1,0,-1,-1
1514896097855477,-2,0,-3,-2,-1,-1,1,-1
1514896097855477,0,1,4,16,-1,-1,0,0
1514896097862982,0,-1,-3,-12,0,-1,-1,-3
1514896097862982,0,-3,0,-5,0,0,-1,-3
1514896097864483,-3,-2,-3,2,-3,-2,0,-2
1514896097864483,-1,0,1,-6,-1,-2,-1,-3
1514896097885498,1,-2,0,6,2,0,-1,1
1514896097885498,-3,-4,-14,-1,-5,-3,-1,-1
1514896097886999,0,1,10,6,0,-1,-2,-2
1514896097886999,-2,-3,-2,-3,-5,-1,-1,-1
1514896097900008,-2,0,2,-3,-2,-3,-1,-1
1514896097900008,-1,-2,-5,2,2,0,-1,-1
1514896097906514,1,-2,-9,-3,-4,0,-1,0
1514896097906514,0,-1,-3,-7,-1,-1,-1,0
1514896097923025,-2,-3,8,9,2,0,0,-2
1514896097923025,-1,-2,-4,-8,-2,-1,1,-1
1514896097926542,-1,0,0,-1,-1,0,-2,-2
1514896097926542,1,0,2,-3,-2,-1,0,-1
1514896097945540,0,-3,-6,-3,1,0,0,0
1514896097945540,-1,-1,7,2,-2,-3,-1,1
1514896097947044,-2,-1,-3,5,-3,-2,-1,-2
1514896097947044,-1,-3,-3,0,6,2,-1,0
1514896097959550,-1,-2,-6,-6,-4,-3,-1,-1
1514896097959550,-1,1,-5,-5,0,1,-2,0
1514896097966564,-1,1,6,0,-2,-2,-3,0
1514896097966564,-1,-1,-7,-3,-3,-1,0,-2
1514896097983067,-1,1,5,-1,-3,-2,-1,-1
1514896097983067,-2,-2,3,3,1,1,0,-1
1514896097984570,0,2,-5,-1,-1,-1,-1,-2
1514896097984570,0,-2,-8,-4,0,1,-1,-1
1514896098005583,-1,-4,-2,1,-2,0,-2,-3
1514896098005583,0,0,7,-2,0,-2,-1,-2
1514896098007094,0,-1,-8,-9,-2,0,-1,1
1514896098007094,-2,0,2,-2,4,-1,0,-1
1514896098019593,0,-4,-3,-1,-5,-1,-2,-2
1514896098019593,-2,1,5,12,0,-1,0,-1
1514896098027617,-2,-1,-5,-3,1,-1,1,-2
1514896098027617,-1,-2,7,-1,-5,-4,-1,-2
1514896098042609,-1,-1,-11,-8,-3,-1,-2,0
1514896098042609,-2,0,7,1,-1,0,-2,-3
1514896098044611,-1,2,-5,-2,-1,-4,-3,-1
1514896098044611,-2,0,2,-4,-3,1,-1,-1
1514896098064625,0,-1,-4,5,-1,-2,1,1
1514896098064625,-1,-2,-7,-10,0,0,1,1
1514896098073131,-2,-3,8,2,-4,-1,0,-1
1514896098073131,-3,-2,-2,-2,-2,-3,-2,-1
1514896098079150,-1,0,1,4,-1,-1,-1,-2
1514896098079150,3,1,-9,-10,-6,-1,1,0
1514896098088142,0,0,13,4,3,-1,-1,-3
1514896098088142,1,-4,-14,-4,-5,-2,-1,0
1514896098102664,0,0,1,-2,-1,-2,-1,-2
1514896098102664,-1,-3,-2,1,-1,-2,-2,-1
1514896098104652,0,-2,-4,-2,-1,2,-1,0
1514896098104652,-2,-1,7,2,0,-2,-1,-3
1514896098141688,-1,-3,-4,-3,-1,0,-2,0
1514896098141688,0,-1,2,4,-2,-3,-2,-1
1514896098143180,0,-1,-9,-5,-2,-2,-1,0
1514896098143180,0,0,3,2,1,1,-1,-2
1514896098144190,-3,-3,-3,-1,-1,-2,-1,-2
1514896098144190,-2,-5,3,-4,1,-1,-1,-1
1514896098148183,-3,-1,-1,0,1,-1,1,-1
1514896098148183,1,0,-3,9,-3,-2,-1,0
1514896098163704,-1,-3,0,-16,-3,-2,-1,-1
1514896098163704,-1,0,-5,5,5,1,0,-1
1514896098165199,1,-2,-9,-11,-2,-1,-1,0
1514896098165199,-1,-1,-6,-4,-1,-2,0,-1
1514896098185211,-3,-1,15,6,-2,-2,-3,-1
1514896098185211,-2,0,1,4,-6,-2,-2,-1
1514896098186711,-2,-1,-5,0,2,-1,1,-2
1514896098186711,-1,0,-6,-3,-3,0,0,-1
1514896098199222,-1,-4,1,-3,-1,-1,-1,-1
1514896098199222,1,0,1,-6,0,1,-1,-2
1514896098208238,-1,-1,5,5,-1,-1,-1,0
1514896098208238,-1,-3,-2,-3,1,-3,-2,1
1514896098230244,-3,-2,-5,-3,-1,1,1,-1
1514896098230244,-1,-1,-9,1,-1,-2,-1,-1
1514896098231744,-2,0,-1,-3,-3,-1,-4,0
1514896098231744,-2,-2,2,4,2,0,-1,0
1514896098252770,0,-2,0,-12,-2,-2,-1,0
1514896098252770,-1,1,-10,-3,-1,-1,0,-1
1514896098254772,-2,1,2,6,0,-2,-2,-1
1514896098254772,-2,-1,-1,-6,-2,-3,-1,-2
1514896098259262,0,-1,-5,1,3,-1,-1,-1
1514896098259262,-3,-1,2,5,1,-1,-1,-1
1514896098275773,-2,1,-1,0,-3,-1,0,-2
1514896098275773,-1,-2,-2,-3,-2,-2,-1,0
1514896098282779,0,1,-2,2,-1,-2,0,0
1514896098282779,0,-2,-2,-3,3,0,0,0
1514896098284780,-3,-2,2,2,1,-1,0,0
1514896098284780,-1,-4,1,4,1,0,0,-1
1514896098305296,0,-1,9,13,-1,-2,-2,0
1514896098305296,-1,-1,8,-9,-3,-2,-1,-1
1514896098307296,1,0,-18,-11,-3,-1,-1,-1
1514896098307296,-2,0,-1,-4,-4,-2,-2,-2
1514896098319304,-2,-2,-8,-1,0,0,0,0
1514896098319304,-2,-1,9,6,-1,-1,0,-2
1514896098328311,-1,1,4,-3,-2,-2,0,0
1514896098328311,0,1,0,-4,-3,1,-1,0
1514896098343823,-1,-2,0,1,-3,0,-1,-1
1514896098343823,-2,-2,-8,6,2,0,-2,0
1514896098345824,0,-3,-1,-11,-2,1,0,-2
1514896098345824,0,-1,-3,0,0,-2,0,0
1514896098365837,-2,-2,-1,-3,-4,0,-1,-1
1514896098365837,-1,-1,-5,-7,-5,-2,-1,0
1514896098366840,0,-2,-5,4,1,-1,1,-1
1514896098366840,-2,-2,15,-2,-5,-2,-2,-4
1514896098378847,-1,-1,-4,13,3,0,0,-1
1514896098378847,-2,-1,-4,-16,-5,-1,-2,-2
1514896098387854,1,3,0,3,-1,-1,-1,-1
1514896098387854,-2,-1,-10,-5,1,0,0,-1
1514896098410369,-2,-1,9,-1,-2,-2,-2,-1
1514896098410369,-1,-1,-5,2,1,0,-2,2
1514896098411870,-2,-1,3,2,0,-1,-1,-1
1514896098411870,-1,-2,-3,2,-3,0,-1,-2
1514896098425392,0,-3,-2,-6,-1,0,-1,-3
1514896098425392,-1,-2,-5,3,4,1,0,0
1514896098426880,0,1,0,-3,0,-1,0,0
1514896098426880,-1,-1,-1,-1,-1,-1,-1,-1
1514896098438899,-1,-4,-9,-3,-2,0,-2,-2
1514896098438899,-3,0,4,2,-4,-1,1,-1
1514896098448397,-2,1,6,-1,0,0,1,-1
1514896098448397,-1,-2,3,15,2,-3,-2,-1
1514896098462915,-2,-3,-2,-15,-4,0,0,0
1514896098462915,0,-1,-6,1,-3,-4,-2,-2
1514896098464407,-1,-1,-6,-6,-4,-3,-2,-2
1514896098464407,0,-2,2,-1,2,-1,-3,-1
1514896098485432,0,-2,-3,2,1,-1,-2,-1
1514896098485432,0,-1,2,2,-2,0,-1,-2
1514896098486938,-1,-2,-2,1,0,0,0,0
1514896098486938,0,-2,-3,-7,-3,0,-2,0
1514896098498931,-3,-2,-2,-2,0,0,0,0
1514896098498931,-1,2,0,-2,0,0,0,-2
1514896098507938,0,1,0,4,-2,-3,-2,-2
1514896098507938,-1,0,3,-2,-1,0,0,1
1514896098523949,-1,-3,-1,-4,0,-1,-2,0
1514896098523949,0,0,0,13,1,-1,-1,-1
1514896098527452,-2,-1,-4,-19,-5,-3,-2,-2
1514896098527452,-2,0,5,5,-1,0,-1,-1
1514896098552971,0,-2,-4,0,2,0,2,0
1514896098552971,-1,2,-2,-1,-2,-3,-1,-2
1514896098554471,0,2,-2,3,-1,0,-1,-2
1514896098554471,-2,-2,0,-7,-7,-2,-1,-2
1514896098558975,0,-2,2,-3,2,0,0,-1
1514896098558975,-2,-3,3,-1,-1,0,-2,1
1514896098567980,-1,-1,-5,-1,-3,-2,-1,-1
1514896098567980,0,-2,-6,-2,2,-2,0,0
1514896098583001,-2,-2,-8,-2,-3,-2,-2,-2
1514896098583001,0,1,6,0,-1,-1,-2,-2
1514896098584492,-1,0,4,-2,-3,0,-1,0
1514896098584492,-1,-3,-9,-3,-2,-2,-1,0
1514896098605522,0,-2,-4,2,-1,-2,-3,-2
1514896098605522,0,-1,-3,5,-1,-1,-1,-3
1514896098607017,0,2,1,-13,0,-2,1,1
1514896098607017,-1,-1,-6,-3,-2,0,0,-1
1514896098628538,-2,-1,7,0,-1,-1,-1,0
1514896098628538,-1,0,0,-4,-5,-3,-2,-2
1514896098632026,0,1,0,10,6,1,-1,-1
1514896098632026,0,-3,-4,-2,0,-2,-2,0
1514896098643033,-2,-2,-1,1,-6,-2,-2,-1
1514896098643033,-1,1,1,-2,5,0,1,1
1514896098644552,-1,0,-3,-7,-5,-1,0,-2
1514896098644552,0,0,-2,1,0,0,0,-2
1514896098689067,-1,-3,0,2,2,-1,0,-3
1514896098689067,0,-1,-24,-12,-4,0,-1,-2
1514896098690568,-3,-2,30,20,-3,-2,-1,-1
1514896098690568,-1,-3,-3,-13,0,-1,-1,-2
1514896098691569,-1,-1,5,4,4,1,0,0
1514896098691569,-2,-2,-5,-5,-2,-2,-1,-1
1514896098695573,-3,-1,-13,-1,-2,-1,-1,-1
1514896098695573,-2,-2,1,3,-1,0,-2,0
1514896098703588,-1,-2,0,-4,-4,-2,-1,-1
1514896098703588,-1,-1,-6,-12,-1,0,1,-1
1514896098705089,-2,-2,0,6,3,-4,-1,0
1514896098705089,-1,-2,5,4,-1,-1,-2,-2
1514896098725591,0,-2,-8,-8,-2,-1,-2,0
1514896098725591,-2,0,3,3,-3,-3,-1,-3
1514896098727093,0,-1,-7,-7,0,0,0,-2
1514896098727093,-1,-1,-1,3,2,-3,0,0
1514896098748111,0,-2,10,7,-1,-1,-4,1
1514896098748111,-1,1,2,9,-3,-2,-2,0
1514896098749612,2,1,-5,-15,-2,-1,-2,-1
1514896098749612,-1,-3,-6,-3,-1,-1,-1,-2
1514896098762118,-1,-2,-2,0,1,-1,-2,-2
1514896098762118,-2,0,4,0,-2,-1,-1,1
1514896098769123,0,0,-6,1,1,-1,0,1
1514896098769123,-2,-2,-4,-3,0,-1,-1,0
1514896098785635,-1,-3,1,-3,-2,-3,0,0
1514896098785635,-1,0,3,2,-1,0,1,-2
1514896098787136,-2,3,2,6,2,0,-3,0
1514896098787136,-2,-1,-14,-6,-1,2,0,-2
1514896098815656,-2,-2,6,2,-1,-2,-1,-2
1514896098815656,-2,0,-3,-5,-3,-2,-3,-1
1514896098819157,-1,1,-6,8,-3,-1,0,1
1514896098819157,-1,-1,7,-6,-2,-1,-1,-2
1514896098823176,0,-5,-7,-4,-1,0,0,-3
1514896098823176,-1,0,2,1,-1,-2,-1,0
1514896098830667,0,-2,-2,-2,-4,-3,-1,-1
1514896098830667,1,-2,0,3,-1,0,-1,1
1514896098845199,0,0,-8,-7,-2,-1,1,-2
1514896098845199,1,1,13,1,-1,-2,-3,-2
1514896098847181,-1,1,-1,10,0,-2,-3,-1
1514896098847181,-2,-1,-1,-10,-3,-4,-2,-3
1514896098867703,-1,-3,-5,-4,-3,-2,0,0
1514896098867703,0,-1,-9,-5,0,0,-1,-1
1514896098869704,-1,0,-1,0,-3,-1,0,-1
1514896098869704,-1,-3,5,3,0,-1,-2,-2
1514896098882203,-4,-2,0,1,-3,-1,-1,-1
1514896098882203,-2,-3,-3,0,3,-2,1,-1
1514896098889207,-1,-1,-2,5,0,-1,-2,-1
1514896098889207,1,-2,-6,-11,-3,0,0,0
1514896098905218,-2,-2,2,1,1,-2,-1,1
1514896098905218,-2,-2,-3,-4,-1,1,0,1
1514896098906719,-2,-1,0,-7,-2,-2,0,-1
1514896098906719,0,-2,-3,6,0,0,-1,-1
1514896098928735,-1,-1,-2,0,-3,0,-2,-2
1514896098928735,-1,2,-1,-4,-4,-1,-3,-2
1514896098931737,-2,0,-1,3,3,3,0,-3
1514896098931737,-2,-2,3,3,-1,-3,-1,-1
1514896098942257,-1,-4,-9,-7,2,-3,-2,0
1514896098942257,-1,-1,-3,0,-2,-2,1,-1
1514896098949252,1,3,6,-10,-6,-4,-1,-2
1514896098949252,-2,-2,4,3,-2,0,-1,-1
1514896098965761,-3,0,-7,6,2,0,-3,-1
1514896098965761,0,-4,-3,0,1,-1,-3,0
1514896098966762,-2,-2,-9,7,1,-2,-1,0
1514896098966762,-1,-1,9,-7,-1,2,-2,-1
1514896098987789,-1,-3,2,-2,-5,-1,0,1
1514896098987789,-2,0,-2,2,1,0,0,-1
1514896098989287,0,0,-1,-4,0,-1,0,-1
1514896098989287,-1,-1,3,6,-2,-3,-1,-2
1514896099010293,-2,-1,-7,2,3,-1,-2,1
1514896099010293,-1,-1,1,0,5,0,-1,0
1514896099012796,-1,1,5,-4,-2,-1,-1,-1
1514896099012796,-1,-3,-7,1,-3,-3,-1,0
1514896099024305,-1,-1,4,-8,-5,-3,-1,-1
1514896099024305,-1,-1,-2,1,1,-1,-2,-1
1514896099033309,-1,-1,-9,-1,1,-1,-1,-1
1514896099033309,-2,-3,-1,-2,-1,-2,0,0
1514896099047820,-2,-4,-2,14,-1,-1,-1,-1
1514896099047820,-2,2,-8,-12,-3,-2,-2,-2
1514896099049321,-1,1,15,-9,-5,-2,-3,-1
1514896099049321,-1,-2,-3,4,1,0,-1,-1
1514896099062330,-1,-3,-2,0,-1,0,-1,-2
1514896099062330,0,1,-5,-4,0,-1,0,1
1514896099068835,0,0,-1,1,-2,-2,-1,-2
1514896099068835,-2,-2,-8,-7,-3,-2,-2,-1
1514896099084345,-1,1,5,3,2,0,-1,-2
1514896099084345,-1,0,9,10,-1,-1,-1,-1
1514896099108363,0,-1,-12,-15,-1,0,0,-1
1514896099108363,-2,-3,3,5,0,-3,-2,-1
1514896099109364,-2,-2,-5,0,-3,0,0,0
1514896099109364,-2,1,-3,1,2,-1,0,0
1514896099110871,-1,0,0,0,-1,-2,-2,-1
1514896099110871,0,-1,-18,0,0,0,-1,-1
1514896099121371,-1,-2,22,-6,-4,-5,-2,-2
1514896099121371,1,-1,0,-7,-7,-1,0,-1
1514896099131378,-2,-1,-7,-3,-2,-3,-1,-1
1514896099131378,-1,-1,-4,3,0,-2,-1,0
1514896099160402,-1,-1,-5,-3,-1,-1,-2,-1
1514896099160402,-1,-1,2,-1,-1,-2,-2,-1
1514896099161900,0,3,4,0,-3,0,-1,-1
1514896099161900,0,0,4,3,-2,1,0,-2
1514896099167905,0,-2,-5,1,-1,-1,0,-2
1514896099167905,-1,0,-6,-8,5,2,1,-1
1514896099169406,0,-1,-8,1,-1,-1,-1,-1
1514896099169406,-2,-3,4,-1,-1,-1,-1,-1
1514896099181444,-1,-2,-1,3,1,0,0,-1
1514896099181444,1,0,-4,-2,-4,-2,-1,-1
1514896099191451,-1,0,0,1,-2,-1,0,1
1514896099191451,-1,0,2,1,-2,-1,-1,0
1514896099205461,-2,-1,-7,-15,-1,0,0,-1
1514896099205461,-1,-1,5,2,-3,-1,0,0
1514896099206964,0,-2,-2,8,2,-2,0,-2
1514896099206964,-1,-4,-7,-8,-1,0,-1,-2
1514896099227977,-1,-1,-3,0,-2,1,-2,-2
1514896099227977,-2,2,8,1,-2,-4,-2,0
1514896099229492,0,1,5,0,-2,-1,1,-1
1514896099229492,0,-3,-3,1,3,-1,-1,-1
1514896099241525,0,-3,-8,-2,0,1,-1,-1
1514896099241525,0,-2,-6,1,-4,-2,-2,1
1514896099250505,-3,-1,5,-7,3,-1,-1,-1
1514896099250505,0,1,2,-4,-4,-4,-2,0
1514896099265504,1,-2,-1,0,2,1,-1,0
1514896099265504,-3,3,-3,3,-5,-2,0,-2
1514896099267004,-1,0,-9,-5,-2,-3,0,-1
1514896099267004,0,-2,-3,-12,-3,0,2,0
1514896099288020,-1,-2,7,4,0,-2,-1,-1
1514896099288020,-1,-2,-2,-7,0,-1,-2,-2
1514896099289532,0,1,-3,5,-2,-1,-2,-1
1514896099289532,-1,0,-5,-3,-2,-2,-1,0
1514896099310535,-1,-2,3,4,-3,-2,-1,-1
1514896099310535,-1,0,3,-1,3,0,0,-1
1514896099312036,-3,-4,-4,4,3,-2,0,-1
1514896099312036,0,-3,3,3,1,-1,-1,-2
1514896099325546,0,-2,-12,-7,-1,-2,-2,0
1514896099325546,-3,1,-6,-1,0,-1,-2,-1
1514896099327047,0,1,0,-7,-4,-1,-2,1
1514896099327047,-2,-2,-6,-1,0,-1,-1,-2
1514896099348062,-2,-3,5,4,-3,-1,-1,-1
1514896099348062,0,0,-1,-3,-3,-1,0,-2
1514896099349563,1,1,-3,-4,-2,-1,-1,-1
1514896099349563,-2,-2,2,7,0,-1,-2,-1
1514896099362074,-2,-1,0,6,-1,-3,-2,-2
1514896099362074,-1,-2,-1,-12,-1,0,1,-3
1514896099370578,0,-2,-9,-4,-2,-1,0,0
1514896099370578,-1,-2,6,5,4,0,-1,-2
1514896099385588,-2,-4,3,2,0,-1,0,-1
1514896099385588,-2,-1,-9,6,-2,-2,-1,-1
1514896099387090,-1,1,10,0,-2,-3,-2,-2
1514896099387090,-1,0,-2,-1,1,1,0,-1
1514896099407604,-3,-3,3,-8,0,1,-1,-3
1514896099407604,-1,-2,-8,1,-2,-1,0,0
1514896099409605,-1,-2,-1,-6,-2,0,-1,0
1514896099409605,-2,-2,-2,-1,-1,-3,-2,-1
1514896099421616,-1,-1,-3,-1,0,0,-3,-2
1514896099421616,0,1,-2,-3,-2,0,-1,-1
1514896099430621,-3,-1,-4,-2,0,0,-2,-3
1514896099430621,-1,-2,1,-1,-2,-2,-1,0
1514896099445130,0,-1,-2,-1,-1,-2,-3,1
1514896099445130,-1,-2,5,10,-2,-3,-3,0
1514896099447145,0,-3,-8,-13,4,3,1,0
1514896099447145,-1,-3,8,1,-4,-1,-2,-2
1514896099467657,0,-1,-2,-5,-2,-2,1,1
1514896099467657,-2,0,4,2,-3,-2,-1,-1
1514896099469662,0,-1,-4,5,0,-2,-1,-1
1514896099469662,1,0,-6,5,3,1,-1,-2
1514896099481657,0,-3,-4,-14,-7,-2,0,-2
1514896099481657,-1,0,-1,8,8,1,-1,-1
1514896099491164,-1,0,-3,-3,-6,-1,-1,-2
1514896099491164,0,-1,1,-3,1,-1,0,0
1514896099520684,-1,0,3,7,1,2,-2,-1
1514896099520684,-1,-1,-10,-11,-5,-2,-1,-1
1514896099523186,-4,0,13,5,2,-1,-2,-4
1514896099523186,0,-4,-1,0,-2,-2,-1,-2
1514896099527692,-2,1,2,1,-3,-2,-1,-2
1514896099527692,-1,0,1,3,-2,-2,0,-2
1514896099529690,-2,-3,-10,-9,0,-1,-1,0
1514896099529690,-2,-4,-6,-7,-2,0,1,-2
1514896099541711,-2,0,-2,0,-1,-2,-2,0
1514896099541711,2,0,-2,-1,0,-1,-1,-2
1514896099551206,1,1,0,9,-3,-2,0,-1
1514896099551206,-1,-1,2,-3,-4,-1,-2,-1
1514896099565215,-1,-2,-5,2,4,2,1,-1
1514896099565215,-2,1,-1,-1,0,-1,-2,-1
1514896099571719,1,-1,3,-4,-2,-2,-2,-1
1514896099571719,-1,-2,-1,-6,-1,1,-3,-1
1514896099587731,-1,0,3,5,-1,-2,-1,0
1514896099587731,-2,-1,-5,-1,-1,-1,-1,-1
1514896099589233,-2,-3,4,0,0,-1,-1,-1
1514896099589233,-2,-2,-10,-2,-2,0,1,1
1514896099610259,1,-2,-1,3,-3,-1,-1,0
1514896099610259,-2,-2,-4,-9,0,0,0,-1
1514896099612260,-1,-2,-4,-6,-5,-2,0,1
1514896099612260,-1,-2,2,5,-2,-3,-2,-1
1514896099624758,0,-1,-6,-9,0,-1,-1,-2
1514896099624758,0,-1,1,-2,-4,-2,-2,-1
1514896099632264,0,0,-2,9,3,-1,-1,1
1514896099632264,-1,1,2,-4,0,-2,-2,0
1514896099647774,0,0,-1,4,-1,-1,0,-2
1514896099647774,-1,-1,-2,-12,-4,-1,-2,-1
1514896099649777,0,-1,-2,-1,2,0,-2,-2
1514896099649777,-1,-3,-7,-3,-1,-3,-2,0
1514896099670289,-3,-2,10,2,-2,-4,-2,-1
1514896099670289,0,-1,3,3,-1,-1,-1,0
1514896099671790,1,-2,-10,-8,-2,-1,0,-2
1514896099671790,-1,-2,4,2,-1,-1,-1,-4
1514896099685300,-1,-1,10,0,-1,-1,-2,0
1514896099685300,-1,0,1,-1,-1,-2,-1,0
1514896099686801,-1,1,2,6,-2,-2,-1,0
1514896099686801,-2,-1,-14,1,-1,-2,-2,1
1514896099706828,-2,-3,-11,-18,2,0,0,0
1514896099706828,-1,-2,15,6,-3,-1,-1,-2
1514896099715322,0,-2,-6,2,1,-2,-1,-2
1514896099715322,1,-3,5,-1,-2,-2,-1,-1
1514896099731844,-1,-2,-6,5,-2,-1,-2,0
1514896099731844,-1,0,-4,-4,3,-1,-1,-1
1514896099735837,-2,0,-7,-6,-5,-1,0,-1
1514896099735837,-3,-3,23,2,2,0,-1,0
1514896099744842,0,-2,-5,2,0,0,0,0
1514896099744842,-1,-1,-4,-1,-1,-1,0,-2
1514896099751851,-3,1,-2,0,-2,-2,-2,-2
1514896099751851,-1,-2,-8,-3,-6,-1,-1,-1
1514896099767868,-1,-1,-4,-4,0,0,-1,-1
1514896099767868,-1,2,1,-6,-5,0,-1,0
1514896099769360,0,-4,1,3,0,0,-2,-1
1514896099769360,-2,-1,-3,-3,-3,-1,-2,-2
1514896099799382,-1,0,-2,0,1,-1,-2,0
1514896099799382,1,0,-8,1,-2,-3,-1,0
1514896099801892,-1,0,6,0,-3,-1,-1,-1
1514896099801892,-1,0,-2,-6,-2,0,1,-2
1514896099804902,0,0,0,-6,-3,-2,-2,-1
1514896099804902,-2,-1,2,4,-2,-2,-2,0
1514896099811398,-1,-1,-2,0,3,0,1,-1
1514896099811398,-1,-3,-3,-2,-2,-4,-2,-2
1514896099827900,-1,-1,-2,0,0,-1,0,-1
1514896099827900,-1,-1,-4,-4,-2,-1,-2,-1
1514896099831403,-3,-1,-3,-4,3,1,-2,0
1514896099831403,-2,-2,-2,6,2,-1,-1,0
1514896099850416,0,0,-2,-1,-3,0,-1,0
1514896099850416,1,0,2,-4,-1,0,1,0
1514896099851918,0,0,-5,-2,-3,-3,-2,-1
1514896099851918,-1,-1,0,-1,-1,-1,-1,-2
1514896099864927,0,1,-2,-2,-1,-1,0,0
1514896099864927,-1,-2,3,2,-1,0,-1,-2
1514896099871432,0,0,3,0,-1,-2,-2,-1
1514896099871432,1,-3,-14,3,0,-1,-1,-2
1514896099886952,-2,-1,4,-2,-2,-2,1,-3
1514896099886952,-1,-1,-3,-4,3,-2,-1,-1
1514896099896450,-1,-2,-2,-3,-2,-1,-1,0
1514896099896450,-1,-2,-2,-2,-2,-2,-2,0
1514896099917972,-2,-2,-1,3,-2,-1,0,-1
1514896099917972,-2,1,1,1,0,-1,0,-3
1514896099921505,-2,-2,-1,-5,-3,0,-3,-1
1514896099921505,-1,-1,-2,0,1,1,0,0
1514896099926487,0,-1,0,0,-4,-1,-1,-1
1514896099926487,-2,1,5,1,0,0,0,0
1514896099940492,-2,0,-2,-2,-2,-1,-2,-1
1514896099940492,-1,-1,3,0,-1,-2,0,-1
1514896099947997,0,1,-5,-11,-1,-1,0,-2
1514896099947997,0,1,-9,3,3,1,1,-1
1514896099949486,1,0,7,5,0,-2,1,-1
1514896099949486,0,-1,4,0,-3,-1,-2,-1
1514896099970512,1,-1,-4,2,-2,-2,0,0
1514896099970512,0,-2,-3,-4,-2,0,-2,0
1514896099973013,-1,-3,-3,14,4,1,0,-1
1514896099973013,-2,-2,-5,-16,-2,-1,-1,-3
1514896099993566,-1,0,-2,5,0,-2,-2,-2
1514896099993566,0,1,3,-5,-4,-2,0,0
1514896099999074,-1,-2,-1,0,-3,-2,-2,-2
1514896099999074,-2,-2,2,3,-2,-2,-2,-2
1514896100008079,-3,-2,-4,-2,1,0,-3,0
1514896100008079,-1,1,1,2,2,-3,-3,0
1514896100009579,0,0,-2,-4,-1,-1,-1,-2
1514896100009579,1,-2,0,-1,-1,0,-1,-2
1514896100031095,0,0,-1,1,-1,-2,0,-1
1514896100031095,-2,-1,-3,1,-1,-2,0,-1
1514896100032600,-1,-2,-2,-6,-2,0,-2,-2
1514896100032600,-3,-4,0,-3,-3,0,-1,-1
1514896100044604,-2,-1,1,5,2,0,-1,-2
1514896100044604,1,-1,-5,-1,-1,-2,-2,0
1514896100051622,-1,-3,5,-1,-2,-2,-1,2
1514896100051622,-1,-1,-2,0,-1,0,0,-1
1514896100075135,-1,0,-1,-1,0,0,0,-1
1514896100075135,-1,1,-4,-4,0,-1,0,-2
1514896100077137,1,0,-3,-2,0,0,-1,0
1514896100077137,-2,-1,1,1,-2,-2,-2,0
1514896100090147,0,0,1,-1,0,0,-1,-3
1514896100090147,0,-1,-2,-2,-2,-2,-3,-1
1514896100092148,-1,-1,-2,-2,0,0,-1,-1
1514896100092148,-2,-3,-1,0,1,-2,-1,1
1514896100104147,-1,0,-3,-3,1,0,-1,0
1514896100104147,-1,-1,0,0,-2,-1,1,-2
1514896100120670,0,-2,-2,-3,-3,-2,-1,-2
1514896100120670,-2,-1,0,0,1,-1,0,-1
1514896100128675,0,0,-2,-2,-3,-1,-2,0
1514896100128675,-2,0,1,-1,-2,-1,-2,-1
1514896100132668,-1,-2,-2,-1,-1,1,-2,-2
1514896100132668,0,-2,-6,4,-2,-1,-2,-1
1514896100150201,-1,1,11,2,5,0,0,0
1514896100150201,-1,-1,-1,-4,-2,-1,-1,-2
1514896100151680,0,-1,-2,0,-2,-2,0,-1
1514896100151680,-1,-3,-4,-9,-3,1,-1,-2
1514896100163700,1,1,-4,0,-3,-1,-1,-1
1514896100163700,-1,-1,-3,1,1,0,0,-1
1514896100173707,-1,-2,0,-1,-1,-1,-1,-2
1514896100173707,-1,-3,-1,-1,-1,-1,-1,-1
1514896100187707,-1,-2,-2,-1,-3,-1,-1,-2
1514896100187707,-1,1,0,-2,-1,-1,-1,0
1514896100190218,-1,-1,-4,-2,-3,-2,0,0
1514896100190218,-2,-1,1,0,-2,1,-2,-1
1514896100218728,-2,0,-3,-2,-3,-1,0,-2
1514896100218728,1,0,-1,-1,-2,-1,0,0
1514896100222234,-1,-3,-1,-2,-1,-1,-2,0
1514896100222234,-1,-2,0,-1,1,-2,-1,-1
1514896100224232,-2,-2,-3,-1,-1,-1,-1,-1
1514896100224232,1,0,-2,0,-2,0,-2,-1
1514896100233239,-1,-2,-2,-3,-1,1,1,-1
1514896100233239,1,-1,-1,-1,-1,0,-1,-1
1514896100247761,-1,0,-1,2,-3,-2,-2,0
1514896100247761,-2,-1,0,0,-2,-1,-2,0
1514896100249253,-1,-2,-1,-3,-1,-1,-2,-1
1514896100249253,-3,-3,-1,1,0,-1,-3,0
1514896100270774,-1,-2,-1,-2,-1,-2,-2,-2
1514896100270774,0,0,0,0,-1,-2,-2,-1
1514896100272266,0,-2,1,-1,0,0,0,-1
1514896100272266,-3,-2,-1,-1,0,0,0,1
1514896100292779,-1,0,-2,-1,-2,0,0,-3
1514896100292779,-4,0,-1,-1,1,-1,-2,1
1514896100294291,-1,0,-2,-1,-2,-1,-1,0
1514896100294291,-1,0,0,-1,1,-1,0,1
1514896100307800,-1,0,-2,0,-1,-1,-1,-1
1514896100307800,-2,0,-2,-1,-1,-2,0,-2
1514896100309292,-1,-2,-2,-2,-2,-3,0,-4
1514896100309292,-2,-2,-1,0,0,0,-2,-3
1514896100331307,0,-1,0,1,-1,0,-2,-1
1514896100331307,0,2,-1,0,-2,1,1,0
1514896100335310,0,-2,-1,-2,0,0,0,-1
1514896100335310,-1,-3,0,-1,-2,-1,-2,-1
1514896100352822,-1,-2,0,-3,0,-2,-2,1
1514896100352822,-1,0,-2,0,-1,-2,1,0
1514896100361341,-1,0,-2,-1,-1,1,-1,0
1514896100361341,0,-1,-1,0,-4,-1,-1,-1
1514896100367842,0,-1,-1,-1,-2,-1,-1,1
1514896100367842,0,-1,-1,-1,-3,-1,-2,-1
1514896100369344,-1,-2,-1,-2,-1,-1,-1,0
1514896100369344,-2,-3,-1,0,-2,-1,0,-1
1514896100398355,-2,0,-2,1,-1,-1,1,-2
1514896100398355,-1,1,-2,-2,-2,-1,0,-1
1514896100400856,0,-2,-1,1,-2,-1,-2,-1
1514896100400856,0,-2,-1,0,-2,-1,-1,-2
1514896100403859,0,1,-3,-2,-2,-1,0,-2
1514896100403859,-2,2,-2,-3,-1,-2,-2,-1
1514896100412877,-1,-2,-1,-1,-1,-2,-2,-2
1514896100412877,-1,-2,-1,-1,0,0,-1,0
1514896100427883,-1,0,0,-3,-2,0,0,-1
1514896100427883,-2,-1,0,-2,-2,0,-1,0
1514896100430393,-1,-3,0,-2,-2,0,-2,-1
1514896100430393,0,-2,-2,-1,0,0,0,0
1514896100449892,-1,0,-1,1,-1,-2,-2,-2
1514896100449892,0,1,-2,-2,0,-2,0,-2
1514896100457897,0,-1,-1,-1,0,-1,0,-1
1514896100457897,-1,-2,-1,-2,0,-1,0,0
1514896100463901,-1,0,-2,-1,-1,-1,-1,0
1514896100463901,0,-2,1,-2,-1,-2,-2,-1
1514896100472907,-1,-4,-2,-1,-1,-2,-1,-1
1514896100472907,-1,-2,0,0,0,-1,-1,-2
1514896100487918,-2,0,-1,-1,-1,-3,-2,-1
1514896100487918,-1,0,-1,-2,-1,-2,0,-1
1514896100489419,-1,-1,-1,-2,-1,-1,0,-1
1514896100489419,0,-2,0,-1,0,0,0,-2
1514896100510434,-1,0,-1,-1,1,-2,-1,0
1514896100510434,0,1,-1,0,0,0,-1,-1
1514896100511935,-1,0,0,-1,-1,0,-2,0
1514896100511935,0,-2,-1,-1,1,-1,-1,-3
1514896100532951,0,-1,-1,-2,-1,-1,-2,-1
1514896100532951,-1,0,-1,0,-1,-1,0,-2
1514896100534451,-1,-2,-2,0,0,-1,-1,0
1514896100534451,0,-3,0,0,-1,0,-2,-2
1514896100547977,-1,0,-1,-1,-1,-2,-1,-2
1514896100547977,-1,2,-3,-2,0,0,-2,-1
1514896100549464,0,-2,0,-1,-1,-1,-1,-1
1514896100549464,-2,-2,-3,0,-2,-2,-2,0
1514896100570977,-2,0,-4,-2,0,0,1,-1
1514896100570977,-1,0,0,-2,-1,-1,-1,0
1514896100572478,-4,-3,-1,-1,1,-1,-1,-1
1514896100572478,-1,-2,-1,-1,0,-2,1,0
1514896100600497,0,0,-1,0,-2,1,0,0
1514896100600497,1,-1,-1,1,-1,0,-1,0
1514896100601999,1,-2,-2,-1,-1,0,-1,0
1514896100601999,-1,-2,-1,-1,0,-1,-2,-1
1514896100608002,-1,-1,-2,-1,-1,0,-1,-2
1514896100608002,-1,-1,-1,0,-1,-1,-1,-2
1514896100609516,-1,-2,-1,-2,-1,-1,0,-2
1514896100609516,-2,-2,-2,1,-2,0,-1,0
1514896100631519,-2,2,-1,-1,-1,-2,1,0
1514896100631519,-2,1,-1,-2,-2,-2,-1,-1
1514896100635022,-3,-1,-1,-2,-2,-2,0,-1
1514896100635022,-2,-2,0,-1,-2,-2,-1,-1
1514896100653047,-1,0,-1,-1,-1,-2,-1,-2
1514896100653047,0,0,-2,-4,0,-2,2,-1
1514896100654547,-1,0,-2,-2,-1,-2,-1,0
1514896100654547,-2,-4,-1,-1,-1,0,-2,-2
1514896100667044,1,0,1,-1,-2,-1,-2,-1
1514896100667044,-3,0,-1,-1,-2,-2,-2,-2
1514896100674059,-1,-4,0,0,-1,0,-1,-2
1514896100674059,0,-2,-1,0,-2,-2,-2,-1
1514896100690561,0,-2,-2,-1,0,-1,-1,1
1514896100690561,1,0,-1,-1,0,-3,-1,-1
1514896100692062,-1,-1,-2,0,-2,-1,-1,-1
1514896100692062,0,-5,-1,-1,1,0,0,-2
1514896100713578,-2,0,1,-2,-1,-1,-1,1
1514896100713578,-1,0,-2,-1,-1,-1,-1,0
1514896100715079,0,-1,-1,-2,0,-1,-2,-1
1514896100715079,-1,-2,-1,-1,-2,1,0,-1
1514896100736595,-1,0,-2,-1,-3,-1,-1,-2
1514896100736595,-1,-2,-1,-1,0,-1,0,-1
1514896100740111,-1,-3,-1,-1,-2,-2,-3,-2
1514896100740111,-1,-2,-1,-2,-1,-1,-2,0
1514896100750103,-1,-1,-2,0,-1,-2,-1,-2
1514896100750103,-1,-1,-2,-2,-1,0,0,0
1514896100753106,-1,-2,-1,-1,-1,-1,0,0
1514896100753106,-1,0,1,-1,-1,0,-1,1
1514896100772622,-2,2,-1,-2,-1,-2,-1,-2
1514896100772622,1,1,-1,1,-1,0,-2,-2
1514896100774624,0,-2,-1,-2,-1,0,-2,0
1514896100774624,-2,-3,-2,-2,-2,-1,-1,-2
1514896100787129,-1,0,-2,-1,-2,-1,0,-1
1514896100787129,-2,-1,-1,-2,-3,-2,0,0
1514896100811188,-1,-2,0,-2,-2,-2,-2,-2
1514896100811188,-1,-2,-2,0,-1,0,-1,0
1514896100811692,-1,-2,-1,-1,-1,1,-1,-1
1514896100811692,-2,1,-2,-1,-1,0,-1,0
1514896100813682,0,-2,-2,1,-2,-1,1,-1
1514896100813682,-2,-2,-2,-2,0,-2,-1,-2
1514896100833690,-1,-1,-2,-1,-1,-1,-1,-1
1514896100833690,1,0,0,-2,-2,-2,-1,-2
1514896100837193,-1,-1,0,-1,0,0,1,0
1514896100837193,-2,-1,1,-3,0,-1,-1,-2
1514896100847216,-1,-1,-1,-1,0,-2,-1,-1
1514896100847216,-2,-1,-2,-1,-2,-1,0,-1
1514896100853714,0,-2,-1,0,-1,-2,0,-1
1514896100853714,-1,-1,0,0,-2,-2,-1,0
1514896100870717,-1,-1,-2,-1,-2,-1,-2,1
1514896100870717,-1,-1,-1,-1,-3,-3,-1,-1
1514896100872218,-1,-2,1,-1,-1,-1,-2,-1
1514896100872218,-2,-1,-2,-1,-2,-1,0,-1
1514896100909756,0,0,-1,-2,-2,0,-1,-3
1514896100909756,0,-1,-2,-1,-1,-1,-1,-2
1514896100913247,-1,-2,-1,-1,-1,-1,-2,-2
1514896100913247,0,-4,-3,1,-1,-1,0,-1
1514896100915248,-2,-1,-1,-1,0,0,-2,0
1514896100915248,-1,-1,-2,-2,-1,-1,-1,-1
1514896100917249,-3,-1,0,-1,-1,0,-2,-1
1514896100917249,-1,-2,-1,-1,-1,-1,-1,0
1514896100930262,-2,1,-2,0,0,-1,0,-1
1514896100930262,-1,1,-1,-1,0,-3,-1,-1
1514896100931760,0,-1,-1,-2,-1,-1,-1,-1
1514896100931760,-1,-1,-2,0,-2,0,-2,-1
1514896100952784,-1,1,-2,0,0,-2,0,-2
1514896100952784,-1,0,-1,-1,-1,0,0,-1
1514896100954275,-1,-1,-2,0,0,1,-2,1
1514896100954275,-2,-3,-2,1,-1,-2,-1,-1
1514896100966784,0,-2,1,-2,-1,-1,-1,-1
1514896100966784,0,-1,-1,0,-2,-1,-2,-1
1514896100975290,-1,-1,0,-2,-1,-1,0,-2
1514896100975290,1,-2,1,-1,-1,-1,-1,0
1514896100990310,-1,-1,0,0,-1,-1,-1,-1
1514896100990310,0,0,-1,0,-1,-1,-1,-1
1514896100991802,-2,-3,-2,-1,-3,0,0,-1
1514896100991802,0,-1,0,1,0,0,-2,-3
1514896101012835,0,-1,-2,0,-2,0,1,-2
1514896101012835,-2,-1,0,-1,-2,-2,0,-1
1514896101016322,-1,-2,-1,0,-2,-4,0,0
1514896101016322,-1,-2,-1,-1,-1,-2,-1,-1
1514896101026329,1,-1,0,2,-2,0,1,-1
1514896101026329,-2,1,-1,-1,-1,0,-2,0
1514896101035333,0,-2,-1,1,-1,-1,-1,0
1514896101035333,-2,-3,0,-2,-2,1,0,-2
1514896101050844,-2,-2,0,0,-1,-1,-3,-1
1514896101050844,-2,-2,-1,-1,-1,0,-1,-1
1514896101052355,-1,-1,-1,-1,0,0,-1,-4
1514896101052355,-3,-1,-2,0,0,-2,0,0
1514896101072869,-2,1,-2,-2,0,-1,-1,-1
1514896101072869,0,-2,-2,-1,0,-2,-1,-1
1514896101074360,-1,-1,-2,0,-2,-2,-2,-1
1514896101074360,-1,-1,-2,-1,-1,0,-2,-1
1514896101086369,-1,0,-2,0,0,-2,0,0
1514896101086369,-1,-1,-4,-2,-1,-2,-1,-1
1514896101102881,-1,0,-1,-1,-1,-1,0,-1
1514896101102881,0,-1,0,-2,-1,-1,1,0
1514896101110386,-2,-2,-1,-1,-1,-1,-1,0
1514896101110386,-1,-1,-1,0,-1,-1,-1,-3
1514896101111887,-1,-4,-2,0,-1,0,-2,-2
1514896101111887,-1,1,-1,0,-2,0,0,-2
1514896101132902,0,2,-3,-2,0,-2,-1,-1
1514896101132902,0,-2,-1,-2,-1,0,-1,-1
1514896101134403,-1,-3,1,-1,-2,0,-2,-1
1514896101134403,-1,-2,0,-1,-2,-2,0,-1
1514896101146423,-1,-4,-1,-1,-2,-1,-1,-1
1514896101146423,-1,0,-1,-2,-1,-1,0,-1
1514896101155417,1,0,-1,-1,0,-2,0,-1
1514896101155417,-1,-2,-2,-1,0,0,-1,-1
1514896101170437,1,-1,-2,-3,-2,-2,0,0
1514896101170437,-1,-2,-2,-2,-2,-1,-2,0
1514896101171939,0,-3,1,0,0,-1,-1,0
1514896101171939,-1,-2,-1,-1,1,-1,0,-1
1514896101192949,-2,1,0,0,-2,-1,-1,-2
1514896101192949,-2,-1,-1,-2,-1,-1,-2,-3
1514896101195455,-3,-1,-2,-3,-2,-1,-1,-1
1514896101195455,-1,-1,1,0,-2,-2,-1,-1
1514896101206463,-1,2,0,-2,-1,-2,-1,-2
1514896101206463,-1,-1,0,-1,-1,-2,0,0
1514896101222975,-1,-2,-1,-1,-1,0,-1,-2
1514896101222975,-1,0,-1,0,1,-1,0,-1
1514896101231471,-1,-1,-2,-1,-1,0,0,-1
1514896101231471,-1,-1,-2,-1,-3,-1,-2,0
1514896101234974,-2,-2,-3,-1,-2,-2,-1,-1
1514896101234974,-1,-2,-1,-1,-1,0,-1,-1
1514896101252987,-2,1,-3,-1,0,-2,1,-1
1514896101252987,0,0,-2,0,0,-3,0,-1
1514896101254488,0,-2,-1,-1,-1,-1,-1,0
1514896101254488,-1,-2,0,1,-2,-2,-2,-1
1514896101266502,-2,1,-1,-2,-2,-2,-1,0
1514896101266502,0,-1,-2,0,-1,-1,0,-1
1514896101275511,-1,-2,-3,0,-2,-2,0,-1
1514896101275511,-2,-2,-2,-1,-3,-1,-1,-1
1514896101290513,1,-3,-2,-1,-2,-1,-1,0
1514896101290513,-2,-2,0,-1,-2,0,-1,-2
1514896101292014,0,-1,0,-1,-1,-1,-1,-1
1514896101292014,0,1,0,-1,-1,-3,0,-2
1514896101328560,0,0,-1,-2,-1,-1,-1,-3
1514896101328560,-1,-2,-1,-1,-2,-1,-1,0
1514896101330064,-1,-2,-1,-1,-2,0,0,-1
1514896101330064,-2,0,0,-3,-2,-2,0,1
1514896101331057,-1,1,-1,0,-1,0,-2,-1
1514896101331057,0,0,-1,-1,1,1,0,-2
1514896101335545,-1,-2,-1,-1,-2,-2,-1,-1
1514896101335545,0,-2,-2,0,-1,1,-2,-1
1514896101350578,0,-1,-2,-2,-3,-2,-1,-1
1514896101350578,-2,0,-3,-3,-1,-2,-2,0
1514896101352056,-1,-1,-1,-1,1,0,-1,-2
1514896101352056,-1,-1,-3,-2,-2,1,-1,-1
1514896101380079,-1,-1,0,1,-1,-2,0,0
1514896101380079,0,-3,-1,-2,-2,-1,-2,-1
1514896101382078,-1,-1,-1,-1,0,-1,-1,-1
1514896101382078,-1,0,-1,-1,-2,0,-1,-1
1514896101386582,0,0,0,-1,-1,-1,-1,0
1514896101386582,0,0,-2,-1,2,-2,0,0
1514896101395597,-1,-1,-1,-2,-2,-1,-1,-2
1514896101395597,0,-2,-2,-1,1,-1,-1,0
1514896101410109,-1,-1,-2,-3,-1,0,-1,0
1514896101410109,-1,-1,-1,-3,-3,-1,0,0
1514896101412111,-1,-4,0,2,2,1,-1,0
1514896101412111,-2,0,-1,0,-1,-1,-1,-1
1514896101433116,-2,0,0,-3,0,-1,0,-2
1514896101433116,-1,-1,-2,1,-1,0,0,-1
1514896101435116,-1,-5,-1,-6,-4,0,-1,-1
1514896101435116,-1,-1,0,1,1,-1,-2,-3
1514896101446623,-1,-3,-3,0,-1,0,-1,-2
1514896101446623,-1,-2,-1,0,-1,-1,1,-1
1514896101461634,-1,-1,-1,-3,-3,-3,0,1
1514896101461634,-1,0,-1,-2,-1,-2,-1,0
1514896101470140,0,0,-1,-2,-1,-1,-1,-2
1514896101470140,0,-1,-1,2,1,1,-1,-4
1514896101472142,1,-2,-2,-3,-1,-1,-1,-2
1514896101472142,-2,-1,-3,0,0,-2,-2,0
1514896101493169,-1,1,-1,1,-1,0,-2,-2
1514896101493169,-2,-2,0,-1,-1,0,0,1
1514896101496669,-2,0,-1,-1,1,-1,-1,-1
1514896101496669,0,-1,0,-1,-2,-2,-1,-3
1514896101515181,-1,1,-3,-1,-2,-1,-1,-1
1514896101515181,-1,-3,0,1,1,-2,-1,0
1514896101517173,-1,-3,1,-1,0,-1,-2,-2
1514896101517173,0,1,-1,-2,-2,0,-1,0
1514896101530182,0,1,0,-1,-1,0,-2,-1
1514896101530182,-2,-1,-2,-1,-2,-3,-1,-2
1514896101533685,-3,-2,-2,0,-2,-1,0,1
1514896101533685,-1,-2,-1,-1,-1,-2,1,-2
1514896101552709,-2,-1,0,0,0,-2,0,-1
1514896101552709,-1,-2,-1,-2,-2,0,0,0
1514896101554204,0,-2,-1,0,-1,1,-1,-3
1514896101554204,-1,-1,-1,-1,-1,0,-2,0
1514896101575235,-3,0,-2,-1,1,-2,0,-1
1514896101575235,-2,-1,-1,-3,-1,-1,-2,-1
1514896101578717,-1,-1,-1,1,-2,-1,-2,0
1514896101578717,0,-1,-1,0,-2,-1,1,-3
1514896101591225,-2,-1,0,-2,0,-1,-2,-1
1514896101591225,0,0,0,1,-1,0,-1,-1
1514896101603735,-1,-3,-2,-1,-2,-2,0,0
1514896101603735,-1,0,-2,3,2,0,-1,-2
1514896101612742,0,-1,-1,-1,0,-1,-1,0
1514896101612742,0,0,0,-1,-2,-3,-2,-2
1514896101614242,0,-1,-2,0,-1,-1,-2,-1
1514896101614242,0,0,0,-5,-2,-1,-1,-1
1514896101636268,-2,-1,-2,-3,-1,-1,0,-1
1514896101636268,-2,-2,-1,-3,-1,-2,-1,1
1514896101639777,0,-1,0,-2,-1,-1,-1,-1
1514896101639777,-2,0,-3,-1,-2,-3,-1,0
1514896101665278,0,0,0,0,-3,-1,-1,0
1514896101665278,0,-2,-2,-3,-2,-1,0,0
1514896101666779,-2,-2,-1,1,-1,-2,-1,-1
1514896101666779,-1,-2,-1,-2,-3,1,-1,-1
1514896101680291,0,1,-1,-1,-2,-2,0,0
1514896101680291,-2,-2,0,-1,-2,-1,0,-2
1514896101681789,-2,-3,0,-2,0,-2,-1,-2
1514896101681789,-1,-1,-1,-3,-1,-1,-1,0
1514896101696300,-1,0,-2,-3,-5,-2,0,-2
1514896101696300,-1,-1,0,2,0,2,1,0
1514896101699803,-2,-2,-2,0,-1,-2,0,-1
1514896101699803,-2,1,-1,1,0,-2,-2,-1
1514896101709809,-2,0,-2,-1,-2,0,-1,-1
1514896101709809,-1,-3,-2,-4,-5,-1,-2,-1
1514896101716818,-1,-2,-1,-1,-1,0,-4,-2
1514896101716818,-1,-1,0,-1,0,-1,0,-1
1514896101734326,1,1,-1,-1,-1,-1,0,-1
1514896101734326,-1,0,-1,-1,0,0,-1,-2
1514896101737830,-2,-2,-1,-1,-2,-1,-1,0
1514896101737830,-1,-2,-2,0,-1,-1,-2,-3
1514896101755341,-1,0,-1,2,-1,0,-1,0
1514896101755341,-1,-1,-1,0,-1,-3,0,-1
1514896101756843,-2,-2,-1,-1,0,1,0,-1
1514896101756843,-1,0,-1,-2,-2,-2,-1,1
1514896101769351,-1,-1,-1,-1,-1,-3,-2,-1
1514896101769351,-1,-1,-7,-3,-2,-2,-2,0
1514896101776358,0,-1,9,3,-3,-1,-2,-2
1514896101776358,-2,-1,3,-1,-3,-1,-2,-2
1514896101792868,-1,0,0,0,0,0,0,-1
1514896101792868,-1,-1,-2,-5,-1,-2,-1,-1
1514896101794369,0,-1,-4,2,3,0,0,-1
1514896101794369,-1,-2,-4,0,0,-1,-1,-1
1514896101816386,-1,-2,-2,-1,-1,-1,-1,0
1514896101816386,-1,-2,1,-1,-2,-3,-2,-2
1514896101819887,-2,-3,-4,-4,-6,-2,-2,-1
1514896101819887,-1,2,0,-1,-1,2,-2,0
1514896101829895,-1,1,-4,-3,-2,0,-2,1
1514896101829895,-1,-2,2,0,-1,1,-1,-2
1514896101836399,1,-4,-1,-1,-1,-1,0,-2
1514896101836399,-1,-1,-2,-2,-1,-3,0,1
1514896101853913,-1,-1,1,-2,-2,-1,-1,-2
1514896101853913,-1,-2,-1,-1,-1,-1,0,-1
1514896101854911,-3,-2,-2,-1,-2,-2,-3,-2
1514896101854911,-1,0,-3,0,-1,-1,-2,-1
1514896101883432,-1,0,-1,0,0,-1,0,-1
1514896101883432,0,-3,1,1,0,-1,-1,0
1514896101884436,-1,-2,-2,-2,1,1,1,0
1514896101884436,-2,1,-1,-1,-2,-1,0,-2
1514896101889938,-2,0,-1,-1,-1,0,-1,0
1514896101889938,-2,-1,-1,0,0,-1,-2,-2
1514896101896441,0,-2,-2,-2,-1,-2,-1,-1
1514896101896441,1,-1,-2,0,-1,-2,-2,0
1514896101912953,0,2,-1,0,-3,-1,0,-3
1514896101912953,-2,-1,-2,0,-1,0,0,0
1514896101914454,-1,-2,-2,-2,-1,-1,-2,-1
1514896101914454,-1,-1,-2,-1,0,-1,0,0
1514896101936471,-1,1,-2,0,0,-2,0,0
1514896101936471,0,-2,-1,0,-1,-2,0,-2
1514896101938972,-1,-3,-2,-1,0,-2,0,0
1514896101938972,-1,0,0,-2,-1,-2,-1,-1
1514896101949480,-1,0,-2,-2,-1,-1,-2,-1
1514896101949480,-2,0,-1,-3,-2,-1,-1,-2
1514896101956486,-3,-1,-2,-1,-1,-2,-1,-1
1514896101956486,0,0,1,-2,-3,-1,0,-3
1514896101972997,0,-1,-1,-1,1,0,0,0
1514896101972997,-1,-1,-2,-1,0,-1,0,-1
1514896101974499,0,-3,-3,1,1,-1,-1,-1
1514896101974499,-3,-1,-1,-3,-4,-1,0,-1
1514896101996011,-1,0,-2,-2,0,-1,-1,-1
1514896101996011,-2,-2,0,1,-2,0,-1,-1
1514896101997512,-2,-2,-1,0,-1,0,-1,0
1514896101997512,-2,1,0,2,0,-1,-2,0
1514896102009521,-1,0,0,-4,-3,-2,0,0
1514896102009521,-2,-3,0,-3,-1,-1,-2,-2
1514896102020028,0,-2,0,-1,-1,-3,-1,0
1514896102020028,0,-1,-1,-1,-1,0,-1,-3
1514896102033038,-1,-1,0,-1,0,0,-1,-1
1514896102033038,-3,-3,-2,0,-1,-1,0,-1
1514896102034540,-1,-2,-1,-1,-2,-1,-2,0
1514896102034540,0,1,-1,-2,-1,-2,-2,-1
1514896102063060,-1,-1,0,0,-1,-1,-1,-1
1514896102063060,-2,-1,-1,1,0,0,-1,0
1514896102064560,-2,1,-1,0,-1,0,-1,-1
1514896102064560,-1,0,-2,-1,0,-3,0,0
1514896102069565,0,2,0,-2,-3,-4,-1,1
1514896102069565,0,-2,-2,4,4,0,-1,1
1514896102078069,-1,-3,-1,-4,-1,0,0,-3
1514896102078069,-2,0,0,0,0,0,-2,-1
1514896102092080,-2,1,-3,-2,-2,-1,-1,0
1514896102092080,-1,-4,-2,-3,-3,-1,-2,-2
1514896102093080,1,-2,0,-1,-1,-2,-2,0
1514896102093080,0,-2,1,-2,-1,0,-1,-1
1514896102114597,-2,-2,0,-4,-3,-3,-1,-2
1514896102114597,1,0,-2,-2,-1,-3,-3,-2
1514896102115598,-2,-3,-1,0,0,-1,-1,0
1514896102115598,-2,0,-1,-2,-3,-3,-1,-1
1514896102145619,0,1,-1,1,1,0,-1,0
1514896102145619,-2,-2,-1,-2,-2,-1,0,0
1514896102146117,-1,-2,-1,0,0,1,0,-1
1514896102146117,-1,1,1,1,-2,-1,0,-2
1514896102161131,-2,0,-1,0,-1,-1,-3,-2
1514896102161131,-2,-2,-2,-3,-1,-3,0,1
1514896102163130,-1,-4,0,0,-2,-2,0,2
1514896102163130,-3,-2,-2,-5,0,0,-2,-1
1514896102174640,0,0,1,-2,-2,-1,-1,-2
1514896102174640,0,-1,0,4,2,1,-1,0
1514896102175643,-1,-2,-2,1,0,0,-1,0
1514896102175643,-2,-1,-2,-1,-1,0,0,-2
1514896102197154,0,0,-1,-1,-2,-2,-2,-2
1514896102197154,-2,-2,0,-4,-3,-3,-1,-3
1514896102198156,-1,-3,-1,-2,-1,-1,-2,-3
1514896102198156,0,0,-2,-1,-2,-1,0,-1
1514896102214166,-2,-1,-1,-1,-1,-1,0,0
1514896102214166,0,-1,0,-2,-4,-3,0,0
1514896102215167,-2,-2,-2,-1,-1,-1,-2,0
1514896102215167,-1,1,1,5,-1,-1,-2,-1
1514896102235683,-1,0,-7,-11,-1,-1,0,-1
1514896102235683,1,-2,2,2,-1,-2,0,-3
1514896102242185,-3,-1,0,-1,1,0,-2,-2
1514896102242185,-2,-1,-3,-5,-5,-3,-1,-1
1514896102257196,-1,1,-1,6,3,1,0,-1
1514896102257196,-1,-1,-10,-6,-3,-2,-1,0
1514896102257697,1,0,12,12,3,-1,-1,1
1514896102257697,-6,-1,6,-6,0,1,-1,-1
1514896102272209,-4,-4,-6,-3,-5,-3,-1,-3
1514896102272209,12,-1,0,2,-3,0,-2,2
1514896102272708,-3,-2,-16,-14,-3,-2,0,-2
1514896102272708,-2,-3,22,4,1,-3,-1,1
1514896102294722,-13,2,-26,-9,-2,-2,-1,-1
1514896102294722,-11,-5,-7,2,2,0,-2,-5
1514896102295223,4,-3,-3,3,-4,-2,-3,1
1514896102295223,18,10,0,0,-8,-3,-1,5
1514896102317739,5,2,11,10,10,2,2,2
1514896102317739,0,-3,1,3,13,3,-1,1
1514896102318740,-8,-13,-3,-35,-9,-1,-1,-5
1514896102318740,-7,-4,6,20,0,-4,-2,-6
1514896102340256,1,-1,-1,-4,-5,-3,-2,0
1514896102340256,0,2,24,10,-1,0,-1,-1
1514896102341256,1,-2,0,5,-1,-1,0,-1
1514896102341256,-4,-4,-11,-18,-3,0,-2,-1
1514896102362786,2,0,34,4,-3,-2,-3,0
1514896102362786,-5,0,-4,-4,-2,-1,0,-2
1514896102363786,-1,-1,-11,-9,0,-2,-1,-1
1514896102363786,-2,1,-4,10,1,-1,-1,-2
1514896102377302,2,-1,-29,-4,1,0,-1,-1
1514896102377302,0,-5,-13,-6,-4,-2,-3,-1
1514896102377782,0,-3,0,1,-1,0,0,2
1514896102377782,1,-1,-12,-4,1,-3,-2,-1
1514896102393292,-1,0,8,2,-4,-3,-2,-2
1514896102393292,-2,-1,-4,-8,0,-1,-1,0
1514896102395293,0,1,-11,7,1,0,-1,-1
1514896102395293,-2,-1,1,2,3,0,0,-2
1514896102414807,-2,-2,0,-5,-3,0,0,-1
1514896102414807,-1,-2,-8,-4,-2,-1,0,-1
1514896102415308,-2,1,27,14,1,1,-2,0
1514896102415308,-1,-5,-35,-22,2,0,-1,0
1514896102438324,4,-79,-3,-4,-4,-2,-1,-1
1514896102438324,-3,-109,12,2,-1,-3,-1,-2
1514896102438824,-6,-105,-42,-3,1,0,-1,-1
1514896102438824,4,-39,16,-3,-3,-2,0,-1
1514896102451833,5,41,1,2,-2,-3,-2,1
1514896102451833,-14,71,-2,-8,-5,-2,-4,-4
1514896102452835,2,58,7,10,-4,-4,-2,-2
1514896102452835,-1,58,-13,-2,9,5,0,1
1514896102474349,-1,55,39,20,0,-1,0,-3
1514896102474349,1,39,24,3,-2,0,-1,-2
1514896102475350,1,51,-31,-2,4,2,0,1
1514896102475350,1,4,-33,-5,-8,-3,-2,-2
1514896102498867,-8,4,9,-13,0,-1,-1,-2
1514896102498867,-5,7,-10,0,-2,-1,1,-1
1514896102500869,5,6,16,-4,-2,-3,-2,-2
1514896102500869,6,5,-15,-7,-1,-1,-2,-1
1514896102511892,3,-5,-1,2,-1,-1,-2,1
1514896102511892,-5,-3,-2,-1,-2,-3,0,0
1514896102512893,-1,3,10,-1,1,-1,1,-1
1514896102512893,0,-2,17,9,1,1,2,0
1514896102550404,0,-3,-28,-3,-1,-4,-2,-2
1514896102550404,4,-7,-21,-12,-4,-5,-2,-1
1514896102550904,-8,-8,8,-2,-1,-1,-1,-1
1514896102550904,-8,-10,28,0,-1,-2,-1,-1
1514896102557910,9,-1,-68,-21,-3,1,1,3
1514896102557910,4,10,54,37,0,-3,-3,-1
1514896102558416,-11,-13,-29,-13,-2,0,0,-4
1514896102558416,-13,1,16,23,4,-2,-1,-5
1514896102571928,4,-9,11,-17,-6,-3,1,1
1514896102571928,13,-12,-31,-21,2,1,0,2
1514896102572929,-10,3,92,12,-11,-8,-5,-4
1514896102572929,-5,-9,-23,12,2,1,-1,0
1514896102594444,-10,4,-11,-3,3,0,-1,-5
1514896102594444,4,3,-45,0,-3,0,-2,1
1514896102595436,-7,-19,9,-4,0,-1,1,-2
1514896102595436,-2,-2,7,-5,-3,-1,-2,-2
1514896102618952,-3,-5,14,11,1,0,-8,1
1514896102618952,-3,6,-3,-13,-3,1,9,-1
1514896102620453,-2,-2,-12,1,2,2,3,-1
1514896102620453,14,-4,-3,-8,-4,-1,2,3
1514896102631960,-6,-1,3,1,2,-1,-3,-4
1514896102631960,11,11,9,3,1,2,-3,2
1514896102639466,-9,8,-9,-2,-4,-4,-4,-4
1514896102639466,-20,-30,-5,-7,-3,-3,-1,-7
1514896102654477,18,5,5,2,-1,0,0,3
1514896102654477,-12,-14,6,-5,-5,-2,-3,-2
1514896102655478,21,15,-6,15,10,3,2,0
1514896102655478,6,14,3,-10,-6,-1,-2,2
1514896102678008,15,26,11,10,0,-1,3,6
1514896102678008,-26,-19,-3,-12,-4,-2,-2,-4
1514896102679494,-18,-26,-18,-4,-7,-5,-7,-6
1514896102679494,-1,-1,-1,-3,3,1,-2,0
1514896102692003,8,-12,-4,-16,-3,-2,1,0
1514896102692003,-9,12,7,6,1,-1,-1,-2
1514896102693004,-3,-6,-6,-2,1,2,-3,-3
1514896102693004,-10,-9,9,11,-4,-4,0,-4
1514896102715021,6,10,-1,-3,-2,-1,2,2
1514896102715021,21,12,-9,-11,2,0,-2,2
1514896102716021,16,-8,-4,-5,-1,0,0,2
1514896102716021,-5,21,2,7,1,0,3,1
1514896102745541,-40,-33,4,0,0,-1,-1,-11
1514896102745541,47,57,7,1,-3,-1,1,10
1514896102746541,-24,-52,-13,-6,-1,-1,-2,-4
1514896102746541,19,-4,1,-2,0,2,2,3
1514896102752545,-20,0,2,7,0,-1,0,-4
1514896102752545,16,4,-3,0,-1,-1,-1,-2
1514896102759550,18,27,8,-1,-2,1,3,9
1514896102759550,-27,0,-16,-7,-3,-6,-4,7
1514896102774579,10,-6,-10,-4,-2,2,6,-12
1514896102774579,-26,-20,19,3,7,-2,-9,-10
1514896102775562,16,9,-6,2,-4,-4,-3,-2
1514896102775562,-8,12,-5,2,-1,0,-3,-6
1514896102798578,-5,-21,-3,1,1,-2,-2,5
1514896102798578,-14,-8,13,-6,-2,1,2,-3
1514896102800580,5,-13,-2,2,-4,-2,0,4
1514896102800580,-1,8,8,-8,-1,0,-2,-6
1514896102820094,7,-2,-8,5,0,1,4,11
1514896102820094,4,2,-11,-1,-1,1,4,7
1514896102821095,-44,-20,7,4,3,-2,-11,-28
1514896102821095,56,20,-6,1,-3,-2,1,0
1514896102835105,-4,1,-2,-6,-4,-1,-7,-8
1514896102835105,-22,-27,0,2,-3,-2,4,17
1514896102836616,49,59,-3,-5,-2,1,8,43
1514896102836616,-25,-34,-8,-4,-4,-1,4,-46
1514896102857621,1,4,17,5,0,-4,-10,-12
1514896102857621,-8,-31,-24,-3,-2,-3,-13,-24
1514896102858621,-11,9,0,3,1,-1,0,10
1514896102858621,19,-3,-8,-10,-2,1,4,28
1514896102872630,2,9,8,-3,-4,-2,4,-1
1514896102872630,-19,-18,28,17,1,-2,-5,-8
1514896102873131,26,25,-35,3,1,1,-9,-16
1514896102873131,-11,-35,5,-13,-2,-2,-7,8
1514896102894656,-33,-34,-1,-8,0,0,13,37
1514896102894656,23,4,-65,-4,-4,-4,8,-26
1514896102896157,-28,1,53,0,1,0,-14,-33
1514896102896157,9,26,36,59,8,2,2,29
1514896102919182,-3,21,-12,-40,-3,3,3,-33
1514896102919182,3,5,-49,-14,-3,2,21,70
1514896102920675,-33,-71,-10,3,-2,-6,-3,-35
1514896102920675,44,6,-9,3,-2,-6,-37,-62
1514896102932673,-6,18,47,52,6,2,-4,32
1514896102932673,-24,15,-15,-53,-10,-4,-1,8
1514896102933175,58,31,-7,1,-4,-5,-7,-12
1514896102933175,5,0,49,-2,5,1,4,74
1514896102954698,22,-22,-50,0,-10,-7,-8,-38
1514896102954698,-27,-16,34,7,0,-1,-15,-23
1514896102955189,22,49,-6,-3,-3,1,16,53
1514896102955189,65,-58,-40,-25,-8,-7,-16,-36
1514896102977206,-42,20,-14,18,6,2,5,15
1514896102977206,-1,-12,-39,-10,-2,2,0,2
1514896102977705,-12,43,82,19,6,4,17,10
1514896102977705,-47,-6,-77,-19,2,5,9,-25
1514896102992716,33,-25,16,-13,-9,-6,-5,49
1514896102992716,14,36,-70,21,-1,-7,-18,-53
1514896102999722,-16,-67,7,7,6,5,-3,-17
1514896102999722,-1,19,91,-30,-8,-6,3,6
1514896103022759,-9,15,-71,-10,0,1,4,-18
1514896103022759,-16,16,127,22,8,4,18,61
1514896103024238,31,-19,-110,-11,-5,-1,-7,-48
1514896103024238,-49,16,50,1,-3,-3,2,-11
1514896103037275,-18,-7,-6,4,6,1,-2,13
1514896103037275,-22,-45,9,22,2,-1,2,30
1514896103037775,38,77,-2,-21,-3,-2,13,8
1514896103037775,3,-72,-20,-15,-13,-5,13,60
1514896103060291,-13,8,24,0,4,1,-5,-102
1514896103060291,0,16,15,22,3,-1,-7,41
1514896103061819,-15,-35,4,-23,-7,-4,8,-27
1514896103061819,-100,28,-57,-11,-6,-7,-14,-35
1514896103075803,11,-46,-11,8,-2,-1,-5,-2
1514896103075803,55,21,18,19,-1,-4,9,-4
1514896103076803,-52,-6,9,4,4,2,-17,-7
1514896103076803,46,6,39,21,10,8,9,37
1514896103097819,-8,26,-45,-30,-5,0,-3,9
1514896103097819,20,-4,13,34,7,7,9,-26
1514896103099821,-5,-2,15,-70,-21,-12,-10,34
1514896103099821,29,66,11,84,13,2,-4,-28
1514896103111340,-8,-29,59,-64,-18,-7,1,15
1514896103111340,-13,5,1,17,1,3,-9,-27
1514896103119346,0,8,12,3,3,-1,9,53
1514896103119346,-5,3,-3,-8,-11,-3,-4,-22
1514896103134848,-1,0,-20,-14,-7,-18,-23,20
1514896103134848,-3,-10,53,-8,-3,3,-3,-41
1514896103141851,17,-13,-32,7,0,5,11,-62
1514896103141851,9,-12,25,-1,11,10,20,43
1514896103157870,-25,38,56,14,-3,-11,-9,29
1514896103157870,95,12,-60,-39,-9,-4,-15,-88
1514896103158362,-72,-6,-48,46,7,3,-5,18
1514896103158362,-39,17,-2,-42,3,2,2,-21
1514896103171379,12,-12,-51,15,-2,-6,-22,15
1514896103171379,-39,-2,31,-8,-7,-2,6,29
1514896103179375,55,51,28,12,2,0,-3,9
1514896103179375,-8,-55,-45,-6,-4,-7,-25,-63
1514896103195397,36,-6,-36,20,8,8,14,34
1514896103195397,-48,-67,-73,-29,-4,-8,-21,-58
1514896103196388,53,51,46,-50,-9,0,-6,2
1514896103196388,-47,-44,37,-15,0,3,7,31
1514896103217939,49,35,-17,18,6,6,6,-17
1514896103217939,-53,-61,-36,-9,-6,-2,3,19
1514896103218438,19,-68,-16,10,8,3,-8,-34
1514896103218438,-28,51,10,8,1,-3,-10,5
1514896103231449,17,9,64,8,-7,-2,8,33
1514896103231449,34,32,1,-33,-13,-10,-17,-53
1514896103239468,-34,41,45,56,16,10,19,75
1514896103239468,19,-68,-20,-53,-15,-10,-2,-12
1514896103254464,-20,-25,26,36,11,7,2,-36
1514896103254464,-2,11,29,6,-6,-5,14,97
1514896103255465,-4,5,13,-15,-3,-9,-19,26
1514896103255465,-27,-15,-55,24,-4,-3,-6,-101
1514896103277491,22,20,-20,-23,-5,-4,-4,15
1514896103277491,-36,25,1,-14,-2,-1,-2,31
1514896103278492,54,7,9,21,3,0,-11,-9
1514896103278492,-69,-60,-4,27,4,1,15,53
1514896103300998,-24,1,-1,-6,-13,-9,-11,-47
1514896103300998,28,7,59,-3,-1,2,4,24
1514896103301997,-40,10,-31,-7,-6,-4,-2,-4
1514896103301997,36,45,-44,-6,4,7,18,63
1514896103315007,9,-15,80,11,7,3,-4,-54
1514896103315007,0,24,-32,6,-2,-8,-16,6
1514896103316011,3,-40,-6,-23,-4,6,22,42
1514896103316011,25,33,-14,2,-9,-10,-10,-60
1514896103338023,-2,14,10,-47,-12,-4,-3,4
1514896103338023,6,9,50,73,26,18,38,39
1514896103338523,13,-24,4,-41,-12,-16,-33,17
1514896103338523,-15,30,-18,13,4,11,21,-35
1514896103351538,-25,-58,24,-21,-5,-1,-3,-3
1514896103351538,-4,-17,12,-6,4,-3,-10,-59
1514896103359538,-21,10,-18,-10,-12,-10,-9,50
1514896103359538,19,16,49,24,9,8,20,3
1514896103374549,-4,-50,-29,-15,-4,-6,-13,-9
1514896103374549,39,-1,2,2,-3,-2,0,54
1514896103375550,-18,-17,46,41,12,9,12,-51
1514896103375550,26,17,-44,-21,-8,-5,-10,48
1514896103405070,-5,73,32,16,7,5,15,10
1514896103405070,-30,-44,-33,-1,3,0,-16,-36
1514896103406071,-26,-27,-7,-3,4,3,33,19
1514896103406071,22,28,-61,1,-3,-3,-14,50
1514896103420582,6,-47,-37,1,3,4,-4,-51
1514896103420582,-14,2,-53,-16,3,4,-3,5
1514896103421083,1,55,73,41,2,-1,-3,43
1514896103421083,-7,-28,-54,-47,-13,-16,-22,-79
1514896103442607,-32,8,-15,16,-4,-2,14,36
1514896103442607,25,45,51,-25,-3,3,0,-17
1514896103443608,-33,-101,-80,18,5,2,5,-16
1514896103443608,26,66,103,-45,-12,-10,-14,42
1514896103457617,20,-45,-60,22,7,2,8,49
1514896103457617,-43,12,107,8,-4,-7,-14,-57
1514896103458618,13,18,-62,-39,-10,-6,4,-20
1514896103458618,12,43,89,65,14,8,12,56
1514896103480134,9,-34,-101,-54,-7,-12,-26,-59
1514896103480134,2,-35,40,-36,-11,1,12,23
1514896103481126,-25,-16,-55,11,-7,-6,-19,-39
1514896103481126,30,18,58,32,8,4,7,64
1514896103495135,-37,52,-57,7,-3,0,-9,-77
1514896103495135,-1,-28,-36,-8,3,1,2,18
1514896103502151,-30,9,9,-5,-10,-7,-14,3
1514896103502151,7,-57,1,-3,2,2,15,-21
1514896103517654,23,-23,40,8,4,-2,12,75
1514896103517654,11,-13,-67,-12,-5,-3,-13,-46
1514896103518150,-2,33,26,28,3,4,5,-7
1514896103518150,7,47,27,-26,0,11,18,111
1514896103540175,-7,-62,27,-18,0,-3,2,-68
1514896103540175,-38,21,-21,8,-11,-12,-20,52
1514896103540667,22,-21,-30,10,7,10,29,-52
1514896103540667,-28,-32,-20,13,2,-5,-7,-5
1514896103554676,9,15,28,-61,-18,-7,-6,-39
1514896103554676,18,-58,-32,0,6,-1,9,14
1514896103562182,-26,29,57,-27,-8,-7,-14,58
1514896103562182,-3,1,24,26,5,2,-15,-77
1514896103577692,-10,36,19,36,11,7,15,6
1514896103577692,48,27,-51,-41,-9,-7,-3,-10
1514896103578693,-9,-58,7,-21,-3,0,0,6
1514896103578693,44,30,-6,-29,-8,-4,-2,-39
1514896103600210,-7,-23,36,76,19,8,-1,53
1514896103600210,-1,54,17,-55,-5,-4,9,76
1514896103601218,24,40,97,32,5,-3,-24,-128
1514896103601218,-15,-41,-98,-52,-22,-11,-10,72
1514896103614718,-10,25,-28,22,2,-2,-14,-13
1514896103614718,-37,-46,28,-4,-11,3,7,-2
1514896103615219,-22,35,55,40,20,7,6,38
1514896103615219,41,1,5,-16,3,-2,-18,-17
1514896103638736,16,51,-40,6,11,1,-5,-37
1514896103638736,-18,-35,-16,21,-1,4,4,-6
1514896103640239,28,20,32,-9,0,-4,6,55
1514896103640239,-8,4,-93,10,-7,-3,-11,-46
1514896103660251,-37,-9,33,11,3,2,8,32
1514896103660251,-2,-37,50,10,-2,-5,-13,-39
1514896103660754,23,9,-108,-20,-9,-1,9,24
1514896103660754,-41,27,20,-10,-6,-11,-18,-115
1514896103690772,-22,-16,4,-35,-8,-3,-3,12
1514896103690772,-1,17,44,2,-3,-3,1,48
1514896103692774,-3,-34,23,59,15,5,-2,-20
1514896103692774,-12,-63,7,-18,-8,-4,-4,-26
1514896103698778,47,31,-35,20,-3,6,24,55
1514896103698778,-18,14,-45,-34,1,-5,-16,-4
1514896103699278,-11,-36,-46,-26,4,4,1,-55
1514896103699278,-13,46,3,37,6,7,14,0
1514896103721294,46,34,5,-35,-12,-9,-23,-38
1514896103721294,-28,-2,-1,30,7,3,12,-17
1514896103722295,-1,-22,-19,5,-7,-3,1,47
1514896103722295,-1,-22,20,-13,3,-2,6,-5
1514896103736305,-45,-25,6,21,-2,-4,4,60
1514896103736305,43,-28,52,6,5,4,3,-15
1514896103737305,15,-6,-30,-47,-15,-12,-18,-88
1514896103737305,-7,20,62,52,8,3,0,55
1514896103757829,15,75,69,15,3,5,1,11
1514896103757829,-13,40,-8,-15,-4,-3,-1,9
1514896103758321,21,6,5,-37,-11,-9,-9,-1
1514896103758321,28,-7,33,11,5,1,4,36
1514896103780345,-38,-41,-61,-31,-12,-7,-10,-61
1514896103780345,-2,42,50,51,12,-1,-3,-1
1514896103780837,-26,-9,-54,-26,-16,-12,-33,85
1514896103780837,-39,-5,-76,-34,-15,-8,4,-76
1514896103802351,14,21,63,20,8,7,29,63
1514896103802351,12,-58,-123,-27,-6,-4,-10,-64
1514896103803352,-33,16,26,9,7,2,6,11
1514896103803352,35,-5,57,1,-3,-1,6,-9
1514896103817872,-30,-18,-22,-23,-11,-7,-11,-15
1514896103817872,12,-22,23,14,-6,-6,-4,-2
1514896103818363,18,5,-3,2,6,1,1,4
1514896103818363,-40,22,-42,-11,-4,-2,-4,38
1514896103840378,3,-29,69,31,19,12,11,-4
1514896103840378,11,-33,-101,0,1,1,5,25
1514896103840879,-29,-62,24,-21,-16,-10,-2,-5
1514896103840879,5,3,9,37,15,8,-6,-52
1514896103854388,21,15,86,-25,11,6,7,6
1514896103854388,-8,25,-45,20,-6,-1,5,28
1514896103855389,-18,26,-12,46,16,12,11,-29
1514896103855389,-20,-30,17,-7,-8,-6,-8,11
1514896103877904,3,-46,-59,-38,-17,-8,-14,26
1514896103877904,-26,-14,75,27,13,5,-3,-29
1514896103879406,66,49,-50,3,2,5,13,8
1514896103879406,42,-27,-63,-27,0,-3,7,-1
1514896103901422,17,39,18,9,-2,-4,-10,-2
1514896103901422,0,4,-35,-1,-6,1,4,46
1514896103902941,20,45,61,10,-3,0,-2,-16
1514896103902941,-66,-43,90,26,10,3,7,24
1514896103914440,38,10,-38,-18,-15,-7,-1,1
1514896103914440,-25,-42,-23,4,-1,0,-7,-19
1514896103915441,-5,8,21,-6,-2,-1,11,40
1514896103915441,19,-9,-60,-36,-3,-2,-19,-57
1514896103940450,-22,-35,-75,-9,-8,-4,-1,-6
1514896103940450,-23,12,66,36,9,4,8,9
1514896103941960,21,6,-36,-62,-13,-7,-10,-19
1514896103941960,26,16,93,29,-4,-2,-6,3
1514896103960463,-28,10,-72,-7,2,-2,0,10
1514896103960463,8,12,-12,-15,-6,-2,-1,-55
1514896103960964,24,39,46,36,9,7,9,42
1514896103960964,-11,-7,-68,-20,-4,-3,1,17
1514896103982981,-7,-31,1,-10,-5,-5,-15,-23
1514896103982981,67,16,21,-3,3,2,4,39
1514896103983481,-46,-39,-10,-10,-5,-8,-9,-32
1514896103983481,-9,2,-42,-21,0,1,2,6
1514896103997500,-3,42,38,41,4,3,5,14
1514896103997500,4,-46,-20,-47,-11,-6,2,13
1514896103998490,-2,-22,-11,19,-5,-4,1,-18
1514896103998490,21,67,64,-1,9,4,4,123
1514896104020517,-14,-39,-24,0,-1,-1,-13,-64
1514896104020517,3,17,20,11,5,-1,-2,-7
1514896104021507,-1,-57,-20,-6,-1,3,3,5
1514896104021507,4,52,-40,0,-6,1,8,31
1514896104034015,2,25,24,-2,3,-4,2,3
1514896104034015,-19,25,60,21,2,0,3,2
1514896104043022,4,75,-21,-16,-6,-4,-17,-18
1514896104043022,-22,-77,-20,1,-2,-3,-4,-23
1514896104057548,1,11,67,-1,-5,-3,-7,7
1514896104057548,-9,32,1,24,4,0,2,-27
1514896104058534,-5,18,1,-33,-7,-1,8,6
1514896104058534,-6,33,22,-11,-7,-4,9,53
1514896104080064,13,-20,43,19,9,7,-15,-94
1514896104080064,7,5,28,1,2,-1,-9,-7
1514896104081081,-4,-21,-21,16,0,0,1,3
1514896104081081,1,-3,-34,-9,-1,-1,-1,-12
1514896104093557,-12,-22,-25,6,-3,-1,7,23
1514896104093557,1,31,-16,-19,-13,-9,-4,11
1514896104102564,-7,-8,37,-17,5,1,-4,-5
1514896104102564,20,-28,-30,-13,-9,-8,-12,-56
1514896104118075,1,30,3,2,-1,0,9,55
1514896104118075,-14,-45,24,27,12,5,-6,-50
1514896104118582,22,36,-29,-52,-17,-8,1,37
1514896104118582,-37,-46,-23,13,1,-3,-3,-1
1514896104141091,-6,14,9,-21,-6,-3,3,42
1514896104141091,6,-17,-34,9,2,2,-10,-34
1514896104142592,-30,-27,-19,25,6,2,1,24
1514896104142592,7,-25,22,9,2,-2,-8,-37
1514896104153599,-11,28,-64,24,-3,1,5,-6
1514896104153599,-6,-47,53,-64,-9,-4,1,1
1514896104162105,-15,-5,29,11,2,2,6,-32
1514896104162105,6,65,-32,5,0,-1,3,14
1514896104177617,-35,-40,-18,-6,-2,-6,2,-2
1514896104177617,23,-20,-32,10,-8,-9,-9,31
1514896104178619,9,-19,60,-27,0,4,2,-19
1514896104178619,-9,26,43,33,5,4,-6,-4
1514896104201644,-20,-11,-76,-60,-10,-9,6,24
1514896104201644,24,63,35,18,4,4,-6,1
1514896104207147,3,-32,-73,26,5,0,3,29
1514896104207147,6,-20,-20,-22,-5,-3,-11,-68
1514896104222648,20,-1,54,14,1,0,-3,21
1514896104222648,-28,-60,9,14,3,4,-1,-28
1514896104224151,0,20,-34,-1,3,4,-2,-2
1514896104224151,10,-4,-10,13,9,8,9,19
1514896104237659,-17,-33,10,-4,-1,-3,-6,-13
1514896104237659,-13,6,-32,-18,-5,0,0,-10
1514896104239161,7,28,79,24,-3,-8,-14,-28
1514896104239161,-2,-8,-5,-9,2,3,7,28
1514896104260175,38,10,44,9,3,3,9,-18
1514896104260175,-42,12,-65,31,11,4,8,40
1514896104261675,-29,-21,55,-44,-18,-13,-14,-48
1514896104261675,-31,9,-57,-6,-1,-1,-4,-15
1514896104282692,-6,-44,-43,-8,-5,-6,0,1
1514896104282692,29,24,46,3,-1,2,5,56
1514896104284199,-10,-49,-44,15,9,5,5,-56
1514896104284199,-18,10,75,3,-7,-5,-5,7
1514896104297701,28,31,14,0,-4,-4,-8,-24
1514896104297701,5,-1,-12,-15,-7,-2,6,-10
1514896104301204,27,6,-53,9,3,-2,-1,59
1514896104301204,7,0,70,-14,-6,-2,5,34
1514896104320219,8,9,3,12,9,8,3,-31
1514896104320219,-17,17,-13,5,-1,5,-6,-31
1514896104321719,-6,-32,7,-8,-3,-5,-7,-3
1514896104321719,-1,1,-12,-29,-12,-10,6,1
1514896104342733,13,21,86,21,7,7,9,56
1514896104342733,-8,-18,-90,-16,-7,-7,-19,-37
1514896104344234,28,40,56,22,9,7,8,22
1514896104344234,-17,30,-9,2,-3,-2,3,-10
1514896104365249,-10,-48,-48,-11,3,2,4,28
1514896104365249,-1,35,59,0,-6,-8,0,-11
1514896104367752,4,4,-40,-18,-4,5,14,32
1514896104367752,-6,-43,-42,-2,-2,-5,-20,5
1514896104380790,-2,-5,0,-5,-1,0,-9,-71
1514896104380790,22,47,50,25,4,3,2,51
1514896104382286,2,5,-5,-8,-2,-1,-6,-31
1514896104382286,-13,37,6,5,-4,-3,2,3
1514896104403291,12,-8,27,-15,-7,-8,-9,0
1514896104403291,3,-14,-57,-14,-1,1,-1,0
1514896104404793,-9,-9,20,9,-1,-2,2,65
1514896104404793,53,-20,-42,21,10,3,-10,-84
1514896104417817,-29,12,12,-11,-9,-6,-1,20
1514896104417817,-10,-8,8,-26,-1,1,12,15
1514896104419303,13,17,-47,-3,-6,-3,-7,0
1514896104419303,-6,-2,35,24,1,-1,-1,-8
1514896104440327,-18,-3,-31,-3,3,1,-3,-18
1514896104440327,21,-5,-10,-22,-3,-1,6,9
1514896104441828,9,-7,6,8,-4,-5,0,55
1514896104441828,9,20,-29,-21,-10,-5,-4,-56
1514896104463343,-25,-5,19,22,5,5,-3,-13
1514896104463343,27,8,12,6,-4,-1,13,8
1514896104465836,-82,-17,-52,-13,9,5,-11,-49
1514896104465836,13,10,34,-2,0,2,6,26
1514896104485390,40,19,18,5,2,1,3,-9
1514896104485390,-40,7,-41,-4,-3,-2,4,22
1514896104486889,-6,-20,57,-7,-7,-6,-5,-8
1514896104486889,-6,-33,-25,-7,1,3,9,53
1514896104501889,-6,25,-39,10,5,6,-8,-57
1514896104501889,8,-23,22,14,2,0,-5,-11
1514896104504391,7,33,21,-21,-7,-5,-2,-26
1514896104504391,-13,2,3,-5,4,-2,-8,16
1514896104530910,4,11,58,6,-4,-2,7,40
1514896104530910,2,-25,47,23,9,2,2,28
1514896104534412,-75,-28,-71,2,-5,-3,-12,-67
1514896104534412,38,24,28,-9,1,3,10,39
1514896104536914,-38,-29,-72,-4,-7,-8,-12,28
1514896104536914,-14,-9,-5,-22,-7,-5,-13,-95
1514896104543919,73,25,4,11,1,7,10,47
1514896104543919,26,-22,12,20,9,3,5,25
1514896104560430,-42,80,56,5,-5,0,6,-10
1514896104560430,2,9,-91,-47,-10,-4,-11,-10
1514896104562432,-19,6,-17,7,2,3,15,46
1514896104562432,7,-11,58,11,2,1,-4,27
1514896104590452,26,-9,21,-4,-7,-9,-19,-79
1514896104590452,1,42,76,-1,-1,-1,6,32
1514896104593954,-1,-23,19,25,1,0,-3,-49
1514896104593954,-6,4,23,-2,-11,-4,2,-6
1514896104596956,-33,-17,-60,-23,2,-5,-3,38
1514896104596956,46,-11,-1,-16,-4,-4,-3,-8
1514896104603961,4,20,-2,4,2,-2,0,-8
1514896104603961,-12,-29,-3,7,-4,-3,-14,-21
1514896104619973,35,-20,-26,-9,-7,-3,-1,-44
1514896104619973,-16,-34,-42,13,3,4,5,6
1514896104621974,-53,5,26,-14,-1,-5,0,37
1514896104621974,0,9,-13,-3,2,4,6,-17
1514896104649493,2,9,34,10,7,3,7,-5
1514896104649493,-14,6,-14,-21,-15,-9,-17,-12
1514896104659501,30,-27,-71,-1,-2,0,6,-46
1514896104659501,-51,47,90,17,6,0,2,62
1514896104660001,0,-35,-52,-22,-10,-5,-23,-70
1514896104660001,-22,44,-15,25,8,5,12,27
1514896104664006,21,50,21,-10,-8,-7,-17,-14
1514896104664006,22,-14,9,2,2,4,3,-7
1514896104680516,46,-1,20,11,4,-2,3,54
1514896104680516,-56,-53,-12,-14,-5,-3,-14,-37
1514896104682016,17,43,84,2,3,2,5,14
1514896104682016,7,-6,-30,-12,-9,-11,-8,-32
1514896104702531,-9,7,3,6,0,2,8,90
1514896104702531,32,-15,1,16,6,3,-5,-40
1514896104710549,-3,-20,-28,3,5,3,6,-3
1514896104710549,-28,-29,-19,-26,-5,-3,-6,-74
1514896104717051,-18,8,45,16,2,5,8,37
1514896104717051,30,82,5,11,2,-1,3,14
1514896104724046,31,-39,-6,-36,-13,-3,-5,25
1514896104724046,-16,-5,2,22,11,3,6,-6
1514896104740562,15,-14,-53,-33,-8,-3,-3,-5
1514896104740562,-17,-13,25,25,5,5,11,65
1514896104741559,-9,-10,-32,-12,-4,-4,-14,-68
1514896104741559,33,7,-39,-12,-4,-2,7,23
1514896104763074,-17,14,91,24,7,2,-4,3
1514896104763074,-9,-23,-38,7,-5,-4,4,37
1514896104765075,1,-24,-34,-39,-11,-11,-2,44
1514896104765075,-7,11,43,9,1,-3,-11,-61
1514896104792607,1,23,-43,0,-5,-3,1,-3
1514896104792607,31,6,-7,-10,-3,-2,-5,-9
1514896104794108,46,24,49,24,10,3,6,29
1514896104794108,-12,-69,-94,-35,-16,-16,-21,-45
1514896104801103,14,-2,0,10,2,4,7,23
1514896104801103,2,2,66,22,3,2,-6,-58
1514896104804104,-23,-9,-76,-28,-9,-8,-11,-7
1514896104804104,7,22,14,7,4,5,11,35
1514896104831122,-23,-33,-10,-13,-4,-2,4,-22
1514896104831122,-27,-43,-45,0,1,-2,-9,14
1514896104834626,-10,63,127,32,8,2,4,-10
1514896104834626,-21,-62,-32,-4,-3,1,-6,12
1514896104837127,-12,-8,-8,4,1,4,2,12
1514896104837127,18,13,71,-10,8,6,0,-4
1514896104845633,-45,-70,-78,0,-6,-2,-3,-1
1514896104845633,-10,-8,-34,-6,-8,-7,-3,57
1514896104860653,23,-12,45,23,8,2,1,-60
1514896104860653,5,35,1,-40,-12,-5,12,66
1514896104863154,-6,0,-2,19,10,2,-30,-81
1514896104863154,16,-3,53,5,0,2,-1,11
1514896104892165,2,-1,-71,23,0,-4,-7,11
1514896104892165,3,-10,-2,-30,-6,-4,7,-38
1514896104894667,0,17,0,0,-3,0,4,4
1514896104894667,76,7,-44,4,4,6,7,38
1514896104896168,-64,-6,18,-23,-4,-8,-14,-43
1514896104896168,-28,-23,14,4,-1,-4,-10,-32
1514896104912681,19,-11,36,9,2,2,15,44
1514896104912681,0,8,33,12,-1,-2,-5,-12
1514896104920185,26,-46,-104,-22,-14,-4,2,49
1514896104920185,22,6,21,-1,12,5,1,-11
1514896104921686,-7,10,16,32,5,3,10,-2
1514896104921686,-15,54,8,-23,-10,-9,-11,5
1514896104943201,1,-21,27,3,-5,-4,0,-19
1514896104943201,0,14,0,-11,-9,-7,-4,29
1514896104944702,20,-20,29,-2,-1,-3,-9,-35
1514896104944702,-5,43,-22,16,3,3,7,-19
1514896104956223,12,7,54,9,-1,5,11,53
1514896104956223,29,19,-30,-16,-7,-2,-10,-19
1514896104965227,-14,-20,11,14,5,2,2,10
1514896104965227,-17,-3,-37,-20,-4,-1,1,-11
1514896104988734,15,-16,-42,-8,-4,-4,-8,-22
1514896104988734,-27,7,-18,13,2,1,11,65
1514896104991236,36,65,44,22,5,1,6,14
1514896104991236,-24,-46,-7,-16,-4,0,3,-13
1514896105002743,25,18,7,-2,7,4,-7,0
1514896105002743,-33,-53,-59,11,-4,-2,-4,-29
1514896105004245,71,9,-26,-22,-9,-4,6,23
1514896105004245,-63,-18,66,23,9,9,1,-9
1514896105016270,-14,13,-94,-35,-9,-8,0,4
1514896105016270,-5,-4,41,17,7,7,15,17
1514896105025260,-25,-66,-47,2,-8,-6,-11,-6
1514896105025260,14,-8,17,-15,0,3,6,-3
1514896105040272,6,32,38,-3,-4,-2,-3,-5
1514896105040272,-40,0,-2,-1,-7,-9,-13,-51
1514896105041771,-19,20,62,6,-2,-2,-5,19
1514896105041771,5,-23,-114,-16,-4,-4,-1,12
1514896105070808,-8,-2,48,11,2,-5,-2,4
1514896105070808,5,-16,-21,-25,-1,1,7,-5
1514896105072292,5,21,-11,5,0,-2,5,13
1514896105072292,17,17,33,14,1,2,6,67
1514896105076319,51,14,44,6,6,3,-4,-26
1514896105076319,-9,17,36,12,4,2,-3,-45
1514896105085302,-26,-11,-9,-9,-8,0,4,-2
1514896105085302,21,24,-6,-5,3,-1,-7,0
1514896105101314,-66,-61,-10,-18,-16,-11,10,11
1514896105101314,35,28,58,22,7,2,-2,26
1514896105103814,-25,-12,-32,-7,1,0,-1,-13
1514896105103814,-35,-8,12,-3,-7,-6,-5,-34
1514896105122828,41,25,1,10,5,4,7,91
1514896105122828,-29,-11,-7,-6,-12,-13,-23,-58
1514896105124329,-30,-13,10,1,7,3,-2,-15
1514896105124329,13,0,-64,7,6,6,10,41
1514896105146845,4,-19,22,3,-6,-6,-12,-54
1514896105146845,-7,-6,47,-23,-9,-2,-1,26
1514896105148346,-3,-3,-31,1,4,4,1,5
1514896105148346,-3,3,2,-2,-3,-6,-10,-18
1514896105160355,-12,75,17,13,9,2,1,6
1514896105160355,-11,-61,-41,0,-7,-6,2,-15
1514896105161856,10,12,20,-11,-6,3,4,19
1514896105161856,1,-31,7,-1,4,4,-1,-4
1514896105181869,0,17,20,24,9,6,-3,-17
1514896105181869,11,-1,4,-20,-1,-2,-3,9
1514896105198381,30,-1,-31,-9,-5,-3,-1,22
1514896105198381,-39,-12,47,29,6,3,-1,-36
1514896105199382,56,-4,-88,-16,-6,-2,2,25
1514896105199382,-16,-3,-30,2,2,2,4,7
1514896105212891,-21,-3,-6,-2,-2,-3,0,-33
1514896105212891,6,-29,53,-6,-3,-4,-3,-34
1514896105220407,25,-8,58,8,5,7,3,-5
1514896105220407,-11,-10,-62,-1,0,1,9,17
1514896105221898,-9,7,-3,-6,-1,-2,-2,-23
1514896105221898,33,30,61,7,-5,-5,1,-3
1514896105250418,-51,-25,17,-14,-3,-1,-1,-5
1514896105250418,7,55,17,12,2,3,7,13
1514896105251920,2,-40,-10,-19,-5,1,1,75
1514896105251920,25,18,-12,17,7,-1,-8,-51
1514896105272934,-25,39,35,-6,0,-1,-2,6
1514896105272934,21,-6,14,21,3,0,-5,-11
1514896105274935,-46,-6,-62,-25,-12,-6,-10,-21
1514896105274935,19,26,-52,-22,-4,-3,0,9
1514896105279939,2,19,85,12,5,3,8,37
1514896105279939,14,-7,-48,-2,-6,-6,-10,-70
1514896105281940,-12,10,9,0,5,1,3,13
1514896105281940,17,19,3,11,-9,-6,-4,19
1514896105309960,-35,-35,-43,-27,-3,2,-3,-20
1514896105309960,8,8,11,1,2,-2,1,28
1514896105311961,17,7,20,1,-5,-6,-9,-19
1514896105311961,26,4,-33,-1,2,6,6,0
1514896105325971,-66,-34,-73,-4,-6,-7,-8,-16
1514896105325971,-8,67,52,-7,-2,2,8,74
1514896105327472,21,19,-28,-17,-3,-6,-22,-100
1514896105327472,-42,-27,-15,13,3,1,-8,10
1514896105347487,16,8,29,-17,-9,-8,-5,-4
1514896105347487,-2,-34,-36,10,-1,0,-7,13
1514896105349489,-19,38,23,-15,-5,-2,-4,-32
1514896105349489,3,-43,-44,-32,-3,-5,-1,3
1514896105370573,-53,-57,-27,7,-3,-4,0,-3
1514896105370573,12,43,-7,-15,3,2,0,28
1514896105373065,19,-10,58,25,10,11,16,-29
1514896105373065,12,-24,-15,1,-1,-2,-3,-8
1514896105385076,-27,22,-73,-1,-1,-2,1,-9
1514896105385076,31,3,37,-1,-3,-2,-3,22
1514896105386574,-36,-42,58,32,6,-1,2,0
1514896105386574,1,48,-42,-20,-3,-2,0,12
1514896105401099,19,-31,5,-20,-6,1,9,22
1514896105401099,-39,-48,13,2,-2,-6,-18,2
1514896105403587,2,20,-43,10,3,2,11,23
1514896105403587,-15,5,50,6,-2,-1,-1,24
1514896105422609,37,-23,-56,16,6,3,-12,-38
1514896105422609,-1,-42,-53,-4,-8,-4,-7,-19
1514896105430113,39,62,63,-7,0,-2,3,16
1514896105430113,-30,-64,-6,-10,-1,-4,-1,14
1514896105445125,2,-10,39,10,3,2,2,14
1514896105445125,19,-15,34,16,3,-1,6,19
1514896105447617,-4,14,24,26,6,3,-2,7
1514896105447617,-48,-17,-61,-30,-8,-5,-3,-43
1514896105460137,25,33,5,13,-4,-5,-5,-1
1514896105460137,-5,23,58,-29,-5,0,-1,-52
1514896105473648,6,-42,-51,-14,-3,-6,0,64
1514896105473648,26,74,64,14,4,4,7,11
1514896105490157,-10,-29,-44,-11,-8,-3,2,-12
1514896105490157,-29,-11,-42,-15,-1,-2,-7,-37
1514896105491648,37,-9,-13,2,0,0,0,14
1514896105491648,-83,40,12,-2,1,0,-2,-13
1514896105505168,41,35,-26,2,7,6,3,13
1514896105505168,12,19,-38,-5,-4,-2,14,95
1514896105506668,-29,16,32,-2,-2,1,-14,-60
1514896105506668,-40,-31,-69,-11,-4,-4,-3,-17
1514896105519668,-12,15,71,11,1,2,-6,10
1514896105519668,4,11,-25,24,8,0,-3,-31
1514896105527673,-8,6,-22,-18,-3,-2,-8,-8
1514896105527673,34,2,51,2,-6,-3,4,20
1514896105542694,21,29,67,7,5,3,7,22
1514896105542694,-8,-50,-85,-5,-5,-4,-6,-29
1514896105544185,-24,-22,-40,0,0,-6,-2,4
1514896105544185,17,-2,33,3,0,1,0,45
1514896105565710,-1,-27,13,-2,-2,1,4,-53
1514896105565710,-1,1,-37,3,2,-2,-22,-61
1514896105567704,-3,30,43,3,0,0,5,14
1514896105567704,6,-2,-24,-2,2,-1,-4,4
1514896105579710,0,-11,10,-4,-3,-2,9,29
1514896105579710,-1,-22,-41,-4,-4,-5,0,11
1514896105586216,16,4,18,4,-1,1,5,56
1514896105586216,-9,-10,19,-1,-4,1,-2,-52
1514896105602727,-5,10,24,12,2,-1,-6,-14
1514896105602727,-1,21,54,0,3,-2,1,5
1514896105604228,1,-11,13,2,-3,-6,6,-45
1514896105604228,34,25,2,8,-4,-1,4,7
1514896105625743,8,-31,-10,-9,-5,-6,-8,-6
1514896105625743,-85,-37,5,-1,-2,1,3,22
1514896105629760,58,39,15,13,6,2,5,44
1514896105629760,-12,-10,-53,-11,-8,-6,-11,-44
1514896105647773,-29,-50,-21,-7,1,1,9,24
1514896105647773,36,27,26,-16,3,2,-3,-25
1514896105650261,-8,9,15,-7,-13,-12,-12,-22
1514896105650261,17,21,56,24,3,0,0,-5
1514896105663269,-14,-18,-80,-13,-9,-10,-12,14
1514896105663269,28,13,28,-3,1,5,16,36
1514896105664770,-13,-20,-29,-3,-1,-1,0,-3
1514896105664770,21,-34,-50,-15,-6,-5,-1,7
1514896105685287,-7,19,23,-4,2,4,-5,-27
1514896105685287,4,9,10,8,8,1,2,8
1514896105686786,-54,9,-6,6,-2,-2,1,-8
1514896105686786,35,5,-15,-6,2,1,0,13
1514896105699795,19,0,54,19,2,3,4,47
1514896105699795,4,19,-3,-2,-3,-3,-8,-73
1514896105706300,14,24,-37,-16,-9,-4,4,11
1514896105706300,21,-15,15,5,5,1,14,48
1514896105722824,-5,7,-13,-7,-2,-2,-14,-20
1514896105722824,27,19,40,17,2,2,6,29
1514896105724325,2,-11,4,-1,-1,-4,-12,-33
1514896105724325,-5,3,-37,4,3,-1,6,29
1514896105752833,20,-4,5,-5,1,7,7,-8
1514896105752833,28,15,19,15,-4,-7,-18,-20
1514896105754334,1,-26,-53,-17,0,3,15,39
1514896105754334,-39,12,7,11,-1,-4,-16,-37
1514896105767854,3,-11,16,3,5,-2,1,40
1514896105767854,8,-24,20,-24,-5,-1,-1,-84
1514896105769345,-8,-7,-9,-6,-4,0,-2,-7
1514896105769345,43,-6,20,-7,-1,-3,-2,6
1514896105783364,-63,-9,-27,2,-2,-1,-1,-27
1514896105783364,-12,0,-2,7,-1,3,10,51
1514896105784858,-42,-5,-12,-24,-7,-4,-8,-20
1514896105784858,-12,-5,36,24,10,10,17,19
1514896105804869,9,12,-16,-19,-6,-9,-18,-28
1514896105804869,-25,8,2,7,-3,-1,8,10
1514896105820892,-3,-40,-54,-10,-5,-3,-2,38
1514896105820892,-16,-2,-30,-3,0,-2,-13,-72
1514896105821892,-3,-40,-12,5,-2,-4,-1,5
1514896105821892,0,-32,-62,-12,-8,-4,2,5
1514896105827895,6,-9,10,8,2,-2,3,-5
1514896105827895,6,31,11,-3,-2,-2,-8,1
1514896105850414,18,10,44,-17,-6,-1,5,5
1514896105850414,8,-17,-7,9,3,-4,-11,-2
1514896105851908,9,-8,5,22,4,0,10,26
1514896105851908,-13,7,-4,-12,-7,1,2,11
1514896105865422,-11,27,-5,10,3,3,4,-15
1514896105865422,-19,-24,-1,-17,-5,-1,2,33
1514896105867424,32,10,36,-6,0,2,-6,-16
1514896105867424,2,2,-46,-2,-6,-5,-4,19
1514896105878932,23,19,-20,-11,-1,-3,-8,-20
1514896105878932,-18,17,-1,11,0,2,14,28
1514896105887931,-3,-11,40,8,-1,1,-6,-7
1514896105887931,-17,2,24,2,-2,-2,-10,-24
1514896105902438,30,-4,4,-11,2,2,16,58
1514896105902438,-28,7,12,-9,1,-2,-7,-68
1514896105904439,63,-21,-39,-2,-2,-2,-16,-24
1514896105904439,-35,-31,50,17,1,-2,-4,-2
1514896105925959,13,2,-51,-21,-6,0,2,3
1514896105925959,1,33,52,20,6,2,0,13
1514896105929458,-48,-28,4,-4,-8,-7,3,18
1514896105929458,6,-12,-17,0,2,2,-11,-55
1514896105938964,-7,30,33,4,-4,-5,-5,44
1514896105938964,-4,-11,-75,-26,-11,-2,-12,-52
1514896105947970,-9,11,30,15,11,2,0,10
1514896105947970,19,4,-36,-17,-7,-4,6,5
1514896105961980,-4,-4,8,8,0,-3,-14,-5
1514896105961980,35,19,12,-1,2,2,5,54
1514896105971487,20,52,-7,-7,1,2,1,1
1514896105971487,-28,-44,71,-5,-2,-2,-5,7
1514896105984997,5,23,39,10,0,-1,-1,-40
1514896105984997,12,36,17,19,8,2,8,30
1514896105986998,-3,-4,54,-5,-2,0,0,-12
1514896105986998,-11,-4,-2,-7,0,-2,1,8
1514896105999517,-13,-15,-46,-8,-11,-6,-4,-24
1514896105999517,-3,-32,19,19,3,0,5,14
1514896106008013,-7,4,6,-16,-2,2,9,4
1514896106008013,26,17,-29,-3,0,-2,-7,-20
1514896106022524,-2,26,18,11,4,1,1,10
1514896106022524,-9,-55,11,-6,-7,-5,-5,-2
1514896106024025,-6,-6,-49,17,3,-4,-7,-19
1514896106024025,32,-6,48,-7,-3,4,14,46
1514896106054051,3,19,-5,-7,-2,1,1,-49
1514896106054051,16,26,-4,-3,6,1,-10,-1
1514896106057048,-16,1,-22,-25,-11,-6,-5,-1
1514896106057048,-14,23,64,30,10,4,5,-5
1514896106058549,-32,-70,-6,-11,-6,-5,0,18
1514896106058549,-7,43,-15,-18,-10,-8,-19,-27
1514896106068055,-6,-39,-3,4,-1,0,2,-1
1514896106068055,23,47,-54,-6,-5,-5,-7,-9
1514896106082576,2,-27,-2,12,8,5,11,27
1514896106082576,21,4,21,0,-4,-2,-5,-31
1514896106084569,-62,-1,-24,17,4,0,-9,-19
1514896106084569,6,-19,-55,-47,-16,-7,1,10
1514896106105082,6,-44,-29,2,-2,-3,-1,27
1514896106105082,-50,8,15,8,-2,-2,-6,-47
1514896106106582,12,45,38,12,12,5,5,2
1514896106106582,-22,-51,12,-1,-3,-2,4,22
1514896106119092,20,9,-16,12,5,2,-17,-47
1514896106119092,20,-13,-22,-9,1,0,6,33
1514896106127602,15,39,28,2,-2,0,-10,-18
1514896106127602,-23,-17,-53,-7,2,6,7,13
1514896106151115,14,18,8,-4,-5,-4,-7,-19
1514896106151115,37,-18,-29,6,3,0,7,21
1514896106154627,1,-24,-55,-8,-6,-5,-3,4
1514896106154627,25,41,17,23,9,4,2,23
1514896106180638,-18,3,29,-9,-2,2,7,-38
1514896106180638,-30,-3,7,14,3,1,-3,13
1514896106182636,17,-2,6,-17,-5,-4,0,-6
1514896106182636,-30,17,42,5,-4,-5,-9,-25
1514896106183138,4,-35,-78,-2,3,3,7,28
1514896106183138,-20,4,18,3,1,-1,-5,1
1514896106187641,31,-23,10,-14,-8,-3,7,38
1514896106187641,-28,-1,-39,-14,-5,-5,-5,5
1514896106202660,27,5,16,1,1,2,-10,-62
1514896106202660,8,-9,-1,20,8,4,7,4
1514896106204152,-4,35,5,-23,-6,-2,3,11
1514896106204152,11,-17,34,5,0,1,-1,6
1514896106226668,-23,5,-40,1,6,0,-7,-5
1514896106226668,21,8,-19,-14,-6,-2,-1,-1
1514896106230171,-7,-8,-9,12,2,0,4,-8
1514896106230171,14,4,21,5,-1,0,1,-3
1514896106247694,-13,5,24,23,2,1,-4,-8
1514896106247694,17,7,15,-25,-3,1,12,96
1514896106249209,-28,9,-15,-2,-5,-4,-14,-85
1514896106249209,-6,-33,-12,-11,-3,-5,2,1
1514896106262702,-1,-1,16,15,-3,-5,-11,1
1514896106262702,68,12,14,-16,-6,-3,0,17
1514896106264204,-34,-32,-32,7,4,2,2,28
1514896106264204,-14,15,-31,-15,-6,-5,-6,-43
1514896106293224,-18,-12,-16,0,1,0,6,22
1514896106293224,-24,35,82,4,-7,-4,-2,-33
1514896106299719,17,-34,-33,6,0,-2,-4,13
1514896106299719,2,18,28,0,6,3,7,-1
1514896106307725,20,-25,9,-10,-1,2,-1,16
1514896106307725,-3,-15,-22,0,-2,-2,2,-16
1514896106309226,9,17,55,1,-2,-1,6,12
1514896106309226,-5,7,-9,11,-1,-2,-5,-3
1514896106322235,-12,-33,-36,-28,-12,-10,0,11
1514896106322235,-23,-8,-25,-10,-1,-1,-1,-21
1514896106330241,-10,2,4,-1,-2,1,-3,9
1514896106330241,4,-8,10,9,3,3,2,3
1514896106345264,0,32,29,-1,1,0,3,6
1514896106345264,-5,-7,-59,10,-1,-2,-3,-3
1514896106346762,0,-11,-15,8,-2,-4,-3,-2
1514896106346762,4,-12,4,-16,-3,0,-4,0
1514896106368268,4,15,10,9,1,0,0,3
1514896106368268,-16,-12,-3,-13,1,-3,-5,-11
1514896106374782,6,5,13,2,-3,-1,-3,-3
1514896106374782,2,-2,0,6,1,0,2,-2
1514896106390283,-17,1,11,11,1,2,5,-1
1514896106390283,-4,2,-1,-12,-4,-1,-1,0
1514896106391797,4,-3,-24,-10,-1,-1,0,-3
1514896106391797,-2,-7,-5,-5,-5,-3,-5,1
1514896106405303,4,10,3,2,1,-2,-1,4
1514896106405303,-11,3,-4,3,0,-3,-2,-4
1514896106406804,2,2,9,4,1,-1,0,-2
1514896106406804,5,-1,-7,0,-2,-3,-3,-1
1514896106427819,0,8,7,-5,-2,-1,0,2
1514896106427819,-9,-4,-13,-5,-3,0,-1,-8
1514896106429310,-3,-7,8,-1,4,0,1,-2
1514896106429310,2,1,-14,-5,-3,-3,-1,0
1514896106450326,0,4,-5,-5,-1,0,1,2
1514896106450326,-4,-4,-1,6,1,0,1,-1
1514896106456330,4,6,18,-5,-4,-3,-4,-2
1514896106456330,1,-4,-18,7,-1,-2,-1,1
1514896106472844,-1,0,-7,-15,-3,-3,-2,0
1514896106472844,-2,-1,3,3,0,0,-1,-2
1514896106474344,4,1,-4,-11,-2,-2,0,-1
1514896106474344,-3,-6,3,-1,-2,-2,-2,-6
1514896106489363,-2,10,0,1,0,1,0,1
1514896106489363,-8,-4,4,5,0,-1,-2,-1
1514896106490864,2,-1,4,7,1,2,2,0
1514896106490864,-2,-5,2,-6,-2,-2,-2,0
1514896106502362,-1,-3,-2,5,0,-2,-2,-1
1514896106502362,-6,-8,1,-4,-1,-2,-3,-3
1514896106508867,-2,-5,-5,1,0,-1,-3,-2
1514896106508867,2,2,7,-1,0,1,-1,1
1514896106533384,-2,-3,0,3,-1,-1,-1,-1
1514896106533384,-1,-1,-5,-8,-4,-3,-1,-4
1514896106536910,2,-1,5,0,-1,-2,-1,3
1514896106536910,2,-3,-4,-1,-1,-1,-1,-1
1514896106547410,-4,-4,1,-5,-2,-4,-2,-3
1514896106547410,-2,-1,-8,6,1,0,1,0
1514896106553908,-1,1,9,1,-1,-1,0,0
1514896106553908,-3,-5,-7,-1,1,0,-3,-1
1514896106561914,2,2,-11,-9,-2,0,1,0
1514896106561914,0,-2,6,14,0,2,-1,-1
1514896106568922,-2,-2,4,-9,0,-1,-2,-3
1514896106568922,-3,-6,-4,0,-1,-4,-1,-3
1514896106599931,5,5,4,5,-2,-1,3,4
1514896106599931,-2,-4,-21,-20,-5,-2,-1,-3
1514896106601948,0,4,15,8,-2,-3,-2,-1
1514896106601948,1,3,15,6,1,1,0,0
1514896106607449,0,9,-5,-2,0,1,-1,-1
1514896106607449,-1,3,-7,4,1,-2,-2,-2
1514896106609450,0,-2,-10,8,-3,-2,0,-1
1514896106609450,1,-2,-11,-24,-3,-2,0,0
1514896106631954,-4,-5,11,10,-2,0,-4,-1
1514896106631954,1,4,2,-4,2,0,1,2
1514896106635956,-2,-12,-9,-7,0,1,-2,-2
1514896106635956,-2,-1,-3,6,-1,0,-2,-1
1514896106659983,-2,-4,-6,-8,-2,0,1,-1
1514896106659983,-3,-5,4,-1,-1,-3,0,-1
1514896106661990,-1,0,-9,-4,-1,0,0,0
1514896106661990,-2,0,4,3,-1,-1,-2,-2
1514896106667999,-1,2,-1,-5,-2,1,0,-1
1514896106667999,-1,3,2,4,-1,0,-2,-2
1514896106669482,-1,-2,-6,-5,0,-2,0,-2
1514896106669482,-2,-3,2,1,-2,-1,-2,-1
1514896106682000,-1,-2,-1,0,-2,-2,-3,-2
1514896106682000,-1,0,-2,-4,0,-1,1,0
1514896106688994,-1,-1,-5,0,0,0,0,-1
1514896106688994,-1,-3,8,4,0,1,0,1
1514896106705015,-1,-2,0,-1,-1,-3,-3,0
1514896106705015,-1,-1,-2,-1,-2,-1,-3,-1
1514896106707017,-4,-4,-3,-1,0,1,0,-1
1514896106707017,1,-3,1,1,0,1,-1,-2
1514896106736528,-2,-3,1,1,-1,-1,-1,-1
1514896106736528,0,-1,-1,-5,-3,-1,-2,-2
1514896106738529,0,1,-4,-1,-1,-2,-1,-2
1514896106738529,-4,-6,-1,1,-2,-2,-1,0
1514896106741031,-2,-1,0,-1,0,0,-1,-1
1514896106741031,0,0,0,-6,-2,-4,-2,-1
1514896106750038,-1,-3,-2,1,-2,-1,0,-1
1514896106750038,-2,-4,3,2,1,-2,-1,-1
1514896106765060,-4,-2,-1,-2,-1,-1,-1,-1
1514896106765060,-2,-6,8,0,-1,-2,0,2
1514896106766550,0,0,-4,1,0,-1,0,0
1514896106766550,-1,-1,-2,-1,-1,-1,0,-1
1514896106787567,0,1,-3,-2,-2,-2,-1,-1
1514896106787567,-1,5,-2,-1,0,1,-1,-1
1514896106790070,-1,1,-1,-1,-1,-1,-1,-1
1514896106790070,1,-2,-1,-2,-1,0,-2,0
1514896106810081,-2,1,-1,1,-2,-1,0,-1
1514896106810081,-1,-2,-2,-1,-1,-1,-2,-3
1514896106811581,0,-4,0,-3,-2,-2,-1,-1
1514896106811581,-1,-2,-3,-3,-1,0,-2,0
1514896106834098,0,0,-2,1,0,1,0,-2
1514896106834098,1,2,1,-2,1,1,2,0
1514896106837599,-1,-3,-1,-1,-1,-1,-2,0
1514896106837599,0,0,-1,1,-1,-1,1,0
1514896106847606,-2,0,0,-1,-1,-1,-1,-1
1514896106847606,0,1,-1,0,-1,0,0,-1
1514896106849107,-1,-3,-2,-1,-2,-1,-3,-1
1514896106849107,0,-2,0,0,-2,-2,-2,-1
1514896106862117,-1,1,-1,-3,-2,-1,-2,-2
1514896106862117,-2,1,-2,-1,-3,-2,-1,-1
1514896106886137,-2,-2,-2,-1,-2,0,-1,0
1514896106886137,-2,-4,-2,-1,-2,-2,-2,-2
1514896106886635,0,-1,-1,0,-1,-1,-2,-1
1514896106886635,-2,-3,-3,-2,-1,0,-1,-1
1514896106888638,-1,-2,-2,-1,-2,-1,0,0
1514896106888638,-1,3,-1,-1,-2,-1,0,0
1514896106908175,-2,1,-4,-2,-1,-1,-1,-2
1514896106908175,-1,4,-1,-1,-2,-3,-3,-1
1514896106909651,-2,1,-2,-2,0,-1,-2,-1
1514896106909651,-1,-1,-1,-2,-2,-2,-1,-1
1514896106929165,-2,0,-1,1,0,-1,0,-1
1514896106929165,-2,-3,-3,-3,-3,-2,-2,-1
1514896106938171,-2,-6,-2,-1,-1,-2,-1,0
1514896106938171,-1,-5,-1,-2,-1,-2,-1,-2
1514896106945678,-1,-3,-2,-1,0,-2,0,-1
1514896106945678,0,0,-1,-2,0,-1,-1,-2
1514896106949178,-1,-2,0,0,-2,-1,-2,-1
1514896106949178,-2,-2,-1,-1,-2,-1,-2,-1
1514896106968695,-2,-1,-1,-1,-1,-2,-2,0
1514896106968695,0,1,-3,0,-1,-2,0,0
1514896106970194,-2,-2,-1,0,-1,0,0,-2
1514896106970194,-2,-3,-2,-1,0,0,-2,-1
1514896106981702,-1,-2,-1,-1,-1,0,0,-2
1514896106981702,-2,0,-1,-2,-1,-2,-2,-2
1514896106990208,1,1,0,-4,-1,-1,-1,0
1514896106990208,-2,-7,2,0,-2,0,0,1
1514896107005218,1,0,0,-3,-1,-2,-3,-2
1514896107005218,-2,0,-2,-1,-2,-2,-1,-1
1514896107006721,-3,-3,0,-1,0,-2,0,-1
1514896107006721,-1,-2,-1,-1,-1,-2,1,-2
1514896107027734,0,0,-2,-2,-1,-2,1,1
1514896107027734,-2,-1,-1,-1,0,-2,0,0
1514896107029235,-1,0,-2,-2,-2,-3,-3,-1
1514896107029235,0,1,-2,-1,-1,0,0,0
1514896107041245,-3,0,0,-1,-2,-1,-2,-1
1514896107041245,0,2,-2,-3,-2,-1,-1,0
1514896107050251,0,-3,-1,-1,-1,-1,0,-2
1514896107050251,-2,-2,-1,-2,-1,-1,0,-1
1514896107064760,-1,-2,-1,-2,-2,-2,-1,-1
1514896107064760,-1,0,-1,0,0,0,-1,-1
1514896107072766,-2,-1,0,0,1,-1,-1,-1
1514896107072766,-2,-2,0,-1,-1,-2,-2,-1
1514896107087778,-1,1,0,-1,-1,0,0,-2
1514896107087778,0,-1,-4,-4,-3,0,1,-1
1514896107089281,-1,-1,0,0,-2,-2,-2,-2
1514896107089281,1,3,2,0,0,-1,0,-1
1514896107110292,-1,-3,-7,-1,-2,0,-1,1
1514896107110292,1,-1,0,-2,-2,-2,-1,-2
1514896107111793,-1,-3,-3,-1,-3,0,-1,0
1514896107111793,-1,-2,0,1,-1,0,-2,-3
1514896107140815,-2,1,1,1,0,-1,-1,2
1514896107140815,-2,0,-2,-1,0,0,-1,0
1514896107141818,-2,-2,-1,0,0,1,0,-2
1514896107141818,-1,-2,1,-1,-2,-1,-2,-1
1514896107155326,-1,1,-1,-2,-1,-1,-2,-2
1514896107155326,-1,0,-1,-1,-2,-1,-2,-1
1514896107156825,0,-2,-1,-2,-3,-2,-2,-2
1514896107156825,-1,-3,-3,0,-2,-1,0,-2
1514896107170343,0,-1,-1,-1,-1,-1,0,-2
1514896107170343,0,1,1,1,2,-2,-2,0
1514896107171846,-1,-1,-1,0,0,-1,-1,-1
1514896107171846,-2,-3,-3,-2,-1,2,-2,0
1514896107185357,0,1,0,1,-1,-3,-2,-1
1514896107185357,-2,0,-2,0,-1,-1,-1,-1
1514896107187857,1,-3,-3,-1,-2,-1,0,0
1514896107187857,-2,-1,-2,-2,-1,-3,0,-3
1514896107207871,0,1,-2,-1,-2,0,-1,0
1514896107207871,1,1,-2,-1,0,-1,-3,-3
1514896107209374,-1,-2,-2,-1,-1,0,0,1
1514896107209374,-2,-2,-1,0,1,-2,-1,0
1514896107229886,-1,2,0,-1,-1,0,0,-1
1514896107229886,0,-1,-2,-1,-2,-4,0,-2
1514896107236392,-2,-3,-2,1,-1,0,-2,0
1514896107236392,-3,-2,-1,-2,0,0,-1,-1
1514896107245398,-1,-1,0,-1,0,-1,-2,0
1514896107245398,0,1,0,-3,0,1,-1,-1
1514896107246897,-1,0,0,-2,-2,0,-1,-3
1514896107246897,0,-2,-2,-1,-1,0,-1,-2
1514896107267913,0,-1,-2,-1,0,-1,-1,-1
1514896107267913,-1,1,-1,-1,-1,1,-1,0
1514896107269417,-1,-3,0,0,0,-1,-2,-2
1514896107269417,-3,-4,-1,1,-1,0,0,-1
1514896107290933,-1,-1,-1,0,-3,-1,-2,0
1514896107290933,-1,1,-2,-2,-2,-1,0,-1
1514896107292434,-2,2,-2,-1,-2,-1,-2,0
1514896107292434,-2,2,-1,-2,0,0,-2,1
1514896107304938,-2,3,-1,-3,0,-2,0,-4
1514896107304938,-1,0,-1,-1,-2,-1,-1,0
1514896107311443,0,-3,0,-1,-1,-1,-1,-1
1514896107311443,0,-5,-1,-2,-1,-1,-2,-2
1514896107335461,-1,-4,-1,-1,-2,-1,-1,1
1514896107335461,-1,-1,-1,-1,-2,-1,-1,-2
1514896107336961,-4,-3,-2,-1,-2,-2,0,-1
1514896107336961,-1,-3,-1,0,-2,-1,-1,0
1514896107357476,0,1,-2,-2,-2,-1,-2,-2
1514896107357476,-2,0,0,-1,0,0,-2,-2
1514896107359477,-1,-2,-1,-1,-1,0,-1,0
1514896107359477,1,-3,-1,-1,0,0,-2,-1
1514896107364481,-2,-1,-1,-1,-2,-1,1,-1
1514896107364481,-1,0,-1,-1,-1,-2,-1,0
1514896107371986,-1,0,-1,0,-1,-2,-1,-1
1514896107371986,-1,-1,-1,-1,-1,0,-2,-1
1514896107387497,-2,1,0,1,1,1,-2,1
1514896107387497,-1,0,-3,-1,-3,-1,-1,-2
1514896107389499,-1,-2,-2,-2,-1,-2,-1,0
1514896107389499,0,-3,-2,-2,-2,-2,-1,-1
1514896107418022,1,3,-1,-1,0,-1,-3,1
1514896107418022,-1,7,2,-1,-1,-1,-2,1
1514896107421537,-2,6,1,-1,-2,-1,0,-3
1514896107421537,-2,2,0,-2,-1,0,0,-1
1514896107425524,0,-3,-1,-2,0,-1,-3,-3
1514896107425524,-2,-6,-2,-2,0,-2,0,-2
1514896107432528,0,-7,-2,-2,-2,0,-2,-1
1514896107432528,-1,-5,-3,-1,0,-1,-1,-2
1514896107447552,-2,-4,-3,0,-2,-1,1,-2
1514896107447552,-2,-4,-1,-4,-2,0,0,-1
1514896107449041,-1,-4,-1,-1,-2,2,-1,0
1514896107449041,-2,-4,1,-2,0,-1,-3,-1
1514896107470131,0,-1,-2,0,0,-3,-2,-1
1514896107470131,0,-1,-2,0,-2,-1,0,-1
1514896107471631,0,-2,0,-2,-1,0,0,-2
1514896107471631,-1,0,-1,-1,-1,0,0,-2
1514896107493177,-1,4,0,-1,-1,-1,1,-2
1514896107493177,0,4,-2,-2,-2,-2,-1,-2
1514896107494679,-1,-1,0,0,-1,-2,-1,-1
1514896107494679,-2,-2,-2,0,-1,-1,-2,0
1514896107507687,-3,-1,-1,-1,-1,0,-1,1
1514896107507687,-1,-3,-2,-1,-2,-1,-1,-1
1514896107509189,-1,-2,-2,-2,1,0,-1,0
1514896107509189,-1,-3,-1,1,-1,-1,-1,-1
1514896107531704,2,-2,-1,-2,-1,-2,0,-1
1514896107531704,-1,-2,0,0,-1,-2,0,-2
1514896107535708,-1,-2,-3,-1,-1,-2,-1,-2
1514896107535708,-2,-2,-1,1,0,0,0,0
1514896107568731,-1,1,0,-1,-1,-1,-1,-1
1514896107568731,-1,1,-1,-1,-2,-3,-2,-1
1514896107570732,-2,0,-2,0,0,-3,-3,-1
1514896107570732,-2,0,-1,-2,-2,-1,-1,-1
1514896107571235,-2,1,-2,-2,-2,-1,-2,-1
1514896107571235,-1,-2,0,-1,0,1,1,-1
1514896107590795,-1,-3,0,0,-1,-1,0,-2
1514896107590795,-1,-2,-1,0,-1,-2,0,-2
1514896107591286,-1,-1,-1,0,0,0,-1,-2
1514896107591286,-2,1,-2,-2,-2,-1,-1,-1
1514896107593296,0,-1,-3,-2,-1,-2,-2,0
1514896107593296,-1,0,-1,-2,-1,0,-2,0
1514896107604295,0,1,-1,-2,-2,-1,-1,-3
1514896107604295,-1,0,-1,0,-2,-3,-2,-2
1514896107611300,0,-5,-1,0,-1,-1,0,-1
1514896107611300,-1,-2,-2,-1,-2,-2,-2,0
1514896107627826,-2,-1,-1,-2,-1,-1,-1,2
1514896107627826,0,2,-2,-2,-1,0,-3,0
1514896107631314,-3,-1,-1,-2,-1,-1,-2,1
1514896107631314,0,-1,0,-1,0,0,-1,-1
1514896107650328,-1,1,-1,-1,0,-1,0,-2
1514896107650328,-1,-1,-2,-2,-1,-3,-2,0
1514896107652831,0,-1,-2,-1,-2,-1,-1,-1
1514896107652831,-3,-2,-1,1,-1,-2,-1,0
1514896107663861,-2,1,-1,0,-1,0,-1,-2
1514896107663861,-2,0,-2,-1,0,-2,0,-2
1514896107672844,-1,-1,-1,-2,-1,-2,-2,-2
1514896107672844,0,0,-2,-2,-1,-1,0,-1
1514896107687909,-2,-1,-2,0,-1,-2,-1,0
1514896107687909,0,-1,-1,0,-1,0,-1,-1
1514896107689405,-1,0,1,0,-2,-2,-2,-2
1514896107689405,1,-2,-3,-2,-2,0,0,-2
1514896107710410,-1,-1,-1,-1,-1,-2,-2,-2
1514896107710410,0,1,0,-1,0,0,-1,0
1514896107711912,-2,-1,-3,-1,0,0,1,0
1514896107711912,0,-1,0,0,-1,1,-1,-1
1514896107723932,-1,-2,-2,-3,-1,-1,-2,-2
1514896107723932,-2,-2,0,-3,-1,-1,-1,-1
1514896107740932,-2,-2,0,-2,-1,-1,-1,-1
1514896107740932,-2,-3,0,-1,0,-2,-2,0
1514896107747461,-1,-1,-1,0,-2,-2,0,-1
1514896107747461,-2,-1,-2,-2,1,-3,-2,-1
1514896107749938,0,-4,-1,-1,-3,-2,-1,-1
1514896107749938,-2,-2,-1,-1,-1,-1,-1,-2
1514896107770454,-2,0,-2,-3,-1,-1,0,-3
1514896107770454,0,-3,-2,-1,0,-1,0,-2
1514896107771964,-1,-2,0,-2,0,0,-2,-2
1514896107771964,0,0,-2,-1,-1,-1,-1,-2
1514896107792469,0,0,-2,-3,0,-2,0,-1
1514896107792469,0,1,0,-1,-1,-2,-1,-1
1514896107794470,1,1,-3,-1,-1,-1,0,-2
1514896107794470,-1,-2,-1,-1,-1,0,-1,-1
1514896107807479,1,1,0,-2,-2,0,-2,-1
1514896107807479,-1,0,-2,-2,-2,-1,0,-2
1514896107809480,0,-2,-1,1,-1,-2,-1,-1
1514896107809480,-2,-1,0,-1,-1,-2,-1,-1
1514896107831005,0,-1,-1,-2,1,-1,-1,0
1514896107831005,0,-3,-2,-1,-1,0,-2,0
1514896107833512,-2,-4,-1,0,0,0,-1,0
1514896107833512,-1,-2,0,-1,0,-1,0,0
1514896107853011,0,-2,-2,-1,-1,-1,-1,-1
1514896107853011,-1,-1,-1,-2,0,-1,-1,-2
1514896107855022,-2,-2,-1,-2,-2,-1,-1,-1
1514896107855022,0,-1,-1,-1,-1,-2,-1,0
1514896107868023,-1,0,-1,0,0,0,-1,0
1514896107868023,-2,1,-1,-1,-1,0,-1,-1
1514896107869024,-1,-1,-1,-1,0,0,0,-1
1514896107869024,-1,0,-2,-1,0,0,0,-1
1514896107890157,-1,1,0,1,-1,-1,0,-2
1514896107890157,-2,-2,-1,-2,-1,-2,0,-1
1514896107891659,-2,-2,-1,-1,-1,0,-1,-1
1514896107891659,0,-1,-2,-1,0,0,-2,-1
1514896107912668,-2,-1,-1,-2,0,-1,0,-1
1514896107912668,-1,-3,0,-1,-1,-1,0,0
1514896107914166,-1,-3,-1,-1,0,-3,0,-3
1514896107914166,-2,-1,0,-1,-2,-1,-1,0
1514896107927686,-1,-1,-2,0,0,-1,0,-1
1514896107927686,-3,-1,0,-1,0,0,-2,-1
1514896107929187,-1,0,1,-2,0,-3,-1,0
1514896107929187,-1,0,0,0,-1,-2,-1,0
1514896107950202,-2,2,-2,0,-2,-2,-1,1
1514896107950202,-1,-1,-2,-1,-2,-1,-2,-1
1514896107951693,0,-1,-1,-2,-3,-1,0,-2
1514896107951693,-2,0,-1,0,0,-1,0,-2
1514896107963709,-1,-1,-1,-1,-1,-1,-2,-1
1514896107963709,0,-1,-1,-1,-2,-2,0,-2
1514896107972717,-1,-2,0,-1,-1,-1,-1,0
1514896107972717,-1,-2,-2,-1,0,-2,-2,-3
1514896107987727,-1,0,-1,-1,-3,0,-1,1
1514896107987727,-3,-1,-2,-1,-1,0,-1,0
1514896107989227,-3,-2,-2,-1,-1,-2,-1,-1
1514896107989227,0,-2,0,-1,-2,-1,0,-1
1514896108010278,0,-1,-1,-1,-1,-3,-2,-1
1514896108010278,-2,-1,-2,-3,-1,1,0,-1
1514896108011779,-1,-1,-1,1,0,-1,-1,-2
1514896108011779,-2,1,-2,-3,-1,0,0,-1
1514896108023795,-1,1,-2,-2,-1,-1,0,-2
1514896108023795,0,0,-2,-1,-2,-2,-1,0
1514896108040300,-2,-2,0,1,-1,-1,-3,-2
1514896108040300,1,-1,0,-1,-1,-2,-1,-2
1514896108047804,-1,-2,0,0,-1,-2,-1,-1
1514896108047804,-1,-3,-1,-1,1,-1,-1,-1
1514896108049305,-1,-2,-1,-1,-2,1,-1,3
1514896108049305,-1,-1,-1,-1,-1,-2,0,-1
1514896108070320,-1,-1,0,-1,-2,0,-1,0
1514896108070320,0,-1,0,0,0,-1,0,-2
1514896108071826,-2,-3,-1,-2,-1,0,0,-1
1514896108071826,-1,0,-1,-1,0,0,-1,-1
1514896108092347,-2,-3,-2,-3,-2,-2,-2,0
1514896108092347,-1,-3,-1,0,-1,-1,-1,-2
1514896108094346,-1,-4,0,0,0,0,0,-2
1514896108094346,0,-2,-2,-2,-1,0,-2,0
1514896108107856,-2,1,0,-1,0,2,-1,-1
1514896108107856,-1,1,-1,-1,-2,0,0,-1
1514896108109357,-1,-2,-2,0,-2,0,0,-1
1514896108109357,-1,-2,-2,0,-1,0,-1,-1
1514896108131363,-2,0,-1,-2,-1,-3,-2,-2
1514896108131363,-1,-2,0,-1,-1,0,-1,-1
1514896108133865,-1,-1,-3,0,-1,-2,-1,-1
1514896108133865,-1,-2,0,-1,-1,-2,-1,-1
1514896108152881,1,-1,-1,1,-1,-1,-1,-1
1514896108152881,-1,-3,0,-1,-1,-1,-2,-2
1514896108154389,-2,-2,-1,-2,0,0,-1,-2
1514896108154389,-3,0,-1,-1,-1,-2,-1,0
1514896108167894,-2,1,-1,-1,-1,-1,-1,-2
1514896108167894,-1,0,-1,-1,-1,-1,0,0
1514896108169390,-1,-2,-2,-1,-1,0,-1,-1
1514896108169390,-2,0,-2,-1,-1,-2,-2,-1
1514896108190414,-1,0,-3,0,0,0,-1,-1
1514896108190414,-2,0,-2,-1,0,-1,-1,0
1514896108192407,0,-2,-1,-2,-3,-2,-1,0
1514896108192407,-1,0,-1,-1,-1,-1,-1,-1
1514896108213432,0,0,-2,-3,-1,-1,-1,-1
1514896108213432,-1,-2,-1,-1,-1,-1,-1,-1
1514896108214923,-2,-2,-1,-1,-2,-1,-1,-1
1514896108214923,-2,-1,-1,0,0,1,-1,-2
1514896108227440,0,0,-1,0,-2,-2,1,-1
1514896108227440,-1,-3,-2,-2,-2,0,1,1
1514896108229442,-3,-3,-2,0,-1,-2,1,-1
1514896108229442,-1,-1,-1,0,-1,-1,-1,-2
1514896108249958,-1,-2,-3,-3,-1,0,-1,-3
1514896108249958,-1,-1,0,-1,-1,-2,-1,-2
1514896108251951,1,-2,0,-1,-2,-1,-3,-2
1514896108251951,-2,0,-1,-1,-1,-2,-2,0
1514896108272463,-2,1,0,-1,-1,-2,-1,-2
1514896108272463,-1,-2,-3,-1,0,-1,-1,0
1514896108274464,-1,-1,0,-2,1,0,-1,0
1514896108274464,-1,1,0,0,0,-1,-1,-1
1514896108295988,0,1,1,0,0,0,0,0
1514896108295988,-1,-3,-3,0,-2,-1,-3,-1
1514896108299482,-2,-2,0,-1,0,-1,-1,-1
1514896108299482,-1,0,-2,-1,-2,0,-1,0
1514896108308988,-2,1,-1,-1,-1,-2,-2,0
1514896108308988,0,0,0,-1,-1,0,0,-3
1514896108317995,-1,1,0,-1,0,-2,-2,-3
1514896108317995,0,4,0,-1,-1,1,0,0
1514896108332547,-2,3,-1,0,-1,0,-2,-2
1514896108332547,-2,0,-1,-2,-1,-2,-2,0
1514896108334544,0,-5,-1,-1,-1,1,-2,1
1514896108334544,-1,-4,-2,0,0,-2,1,-2
1514896108346056,0,-3,-2,-2,-1,-2,0,0
1514896108346056,-2,-5,-1,-2,0,-2,-2,-1
1514896108355060,-2,-2,-1,-1,-1,-1,-1,-3
1514896108355060,-2,-3,-2,-1,-3,1,-2,-1
1514896108370063,0,-2,-3,-1,-1,-1,-1,-2
1514896108370063,0,-4,-1,0,-1,-1,-1,0
1514896108371564,-1,-2,0,0,0,-1,-2,-3
1514896108371564,-2,0,0,-1,-1,-1,-1,-1
1514896108400584,1,0,0,0,0,-1,-2,-2
1514896108400584,-2,-2,-1,-2,-2,-1,1,-1
1514896108402086,-1,0,-2,-2,1,-1,-1,0
1514896108402086,-1,-1,-1,-1,-1,-1,0,0
1514896108407088,-1,0,-2,-1,0,-2,-3,-3
1514896108407088,0,0,-1,-2,-2,-1,0,-1
1514896108421108,0,-2,-1,0,-2,0,1,1
1514896108421108,-1,-1,-2,-2,0,-1,-1,-1
1514896108431114,-1,0,0,-3,0,0,-2,1
1514896108431114,-1,0,-2,1,-1,1,-2,-1
1514896108433607,-2,-3,-2,-1,-3,-2,-1,-1
1514896108433607,0,0,-1,-2,-2,-2,-1,-1
1514896108452634,-1,0,-1,-1,-2,0,-1,0
1514896108452634,-2,-2,-3,-1,1,-1,-1,-1
1514896108455134,-3,-2,-1,-1,-2,-1,-2,-1
1514896108455134,-1,0,0,-2,0,-2,0,-1
1514896108467130,0,10,0,-1,-3,-1,0,0
1514896108467130,-1,10,0,0,-1,-1,-2,-2
1514896108473636,-1,2,-2,-1,-1,-2,0,-2
1514896108473636,-1,-1,-2,-1,-1,-2,-1,-2
1514896108499653,-2,-8,-1,-1,0,-1,-1,-1
1514896108499653,-1,-9,-1,-2,-1,-1,0,-1
1514896108501156,-1,-7,0,-1,0,-1,-1,0
1514896108501156,0,-5,-2,-1,-1,0,-4,-1
1514896108520168,-1,-4,-2,-1,0,-1,0,-2
1514896108520168,0,-4,-2,-1,-1,-1,-2,-1
1514896108521679,-1,-5,-2,-2,-1,0,-1,-1
1514896108521679,0,-1,-1,-2,-2,0,0,0
1514896108528177,0,2,0,-1,-1,-1,0,-1
1514896108528177,-1,-2,0,-2,1,-2,-2,-1
1514896108552191,0,0,-1,-1,-1,-1,-1,0
1514896108552191,0,1,-1,-1,0,-2,0,0
1514896108553205,-1,0,-2,0,-3,-2,-1,-1
1514896108553205,0,-2,-2,-1,-2,-2,0,-2
1514896108557718,-1,-1,-2,-1,0,0,-1,0
1514896108557718,0,0,0,-1,-2,0,-2,-2
1514896108572735,-2,-1,-1,-1,-2,0,0,0
1514896108572735,-1,-3,1,-2,-2,-1,0,1
1514896108574236,-2,-1,0,-1,0,-1,0,0
1514896108574236,-1,1,-2,1,-1,1,-1,0
1514896108586224,-2,1,0,1,-2,-1,-1,-1
1514896108586224,-2,-2,-2,-2,1,-1,-1,-1
1514896108595221,-1,-2,0,0,-2,-1,-3,-1
1514896108595221,-2,-2,-1,-1,-2,0,0,0
1514896108610245,0,0,-1,-1,1,-1,-1,-1
1514896108610245,-1,-2,-1,-1,-2,0,-1,-1
1514896108611733,-2,-1,0,-1,0,-2,-1,-1
1514896108611733,0,2,-3,-1,-1,-3,-1,-1
1514896108632748,-1,0,-3,-1,-2,-3,0,0
1514896108632748,0,-3,-1,-1,-1,-3,-1,-1
1514896108634249,-1,-3,-2,-4,0,0,0,-1
1514896108634249,-1,1,-1,-1,-1,-2,-2,-1
1514896108646257,-1,2,-1,-1,0,-1,-2,-1
1514896108646257,-1,-1,-1,-1,-3,-1,-3,-2
1514896108655772,-1,-2,-1,0,-1,0,-2,0
1514896108655772,-2,-1,-2,-2,-1,-2,-1,-1
1514896108677780,-1,1,-2,-3,-1,-2,0,0
1514896108677780,-1,0,0,0,0,-1,-2,-2
1514896108678281,0,-3,-2,0,-2,0,-2,-3
1514896108678281,-1,-1,-1,-2,-3,0,-1,-2
1514896108691789,-1,1,0,-1,-1,-2,-1,0
1514896108691789,-1,-1,-2,-1,-1,-1,-1,-1
1514896108692790,-1,0,0,-2,-1,-1,-1,0
1514896108692790,-1,0,0,-1,-1,-1,-2,-1
1514896108722812,-1,0,-1,-1,-2,-3,-2,-1
1514896108722812,-1,10,-1,-1,0,-2,0,0
1514896108723322,-2,37,-2,-1,-1,-1,-2,-1
1514896108723322,-2,45,-1,0,0,1,-2,-1
1514896108729316,-1,23,-1,0,-1,1,-2,-2
1514896108729316,0,-4,1,0,-2,-1,0,-2
1514896108730331,-2,-28,0,0,0,0,-1,-1
1514896108730331,-1,-30,0,-2,1,-2,-1,-2
1514896108752334,-2,-23,-1,-3,-2,1,-1,0
1514896108752334,0,-23,0,-2,-2,-1,-1,-1
1514896108752835,0,-20,-2,0,-3,-2,0,0
1514896108752835,-1,-12,-1,0,-1,-2,-1,-1
1514896108774851,0,-9,-1,-3,1,-2,0,-1
1514896108774851,-1,-8,-1,-2,-2,-2,-1,0
1514896108775849,-1,-4,0,0,-1,-1,1,-1
1514896108775849,-1,-4,-1,-2,1,-2,-1,0
1514896108789371,-1,-1,-1,-2,-1,-1,-1,0
1514896108789371,-1,1,-1,-1,1,-2,0,0
1514896108790371,0,-2,1,0,-1,-1,-4,0
1514896108790371,-2,-3,-3,-1,-2,-1,-1,-1
1514896108811875,-2,1,-1,-2,-3,-1,-1,0
1514896108811875,-1,3,-2,-1,-1,-1,-1,-1
1514896108812878,-2,-1,0,-1,-1,0,-1,-2
1514896108812878,-1,0,-2,0,-1,-1,-1,-2
1514896108835901,0,1,0,1,0,-3,-1,-1
1514896108835901,0,-1,-2,-1,-2,-1,-1,0
1514896108836391,0,-4,-2,0,0,-1,-1,-1
1514896108836391,1,0,0,-1,-1,-1,0,-2
1514896108849901,-2,1,-2,-3,0,1,0,-1
1514896108849901,-2,-1,-1,0,-2,0,0,-1
1514896108850902,-2,0,-2,-2,-1,0,-1,-2
1514896108850902,0,1,-1,-2,-1,-1,0,-1
1514896108872417,0,1,-2,-1,-2,-2,-1,-2
1514896108872417,-2,-1,-2,-1,0,0,-2,-1
1514896108872918,-2,0,-2,-3,0,-1,-2,-1
1514896108872918,-1,-2,-2,0,-1,-2,-1,0
1514896108896435,0,-1,0,1,-1,-1,-1,0
1514896108896435,-1,-2,-2,-1,-2,-1,-2,-2
1514896108898445,0,-3,0,-1,-2,0,0,-1
1514896108898445,0,1,-2,-3,0,-1,-2,-1
1514896108909453,0,1,-2,-2,0,-2,0,0
1514896108909453,-1,-1,0,-1,-1,-1,-1,-1
1514896108909945,-2,-2,-1,-2,-1,-2,-1,-1
1514896108909945,-1,0,-1,-2,-2,-1,0,0
1514896108939965,-2,1,-2,-1,-1,0,0,-1
1514896108939965,-1,-2,0,0,0,-1,-2,-1
1514896108940966,-1,-2,-1,0,-1,-2,0,-1
1514896108940966,1,0,0,-1,-1,-1,-1,0
1514896108955481,-1,0,3,0,0,-1,-1,-3
1514896108955481,-2,-3,-2,-3,0,-1,-1,-1
1514896108956489,-2,0,-2,-1,0,0,-2,-1
1514896108956489,-1,0,-2,-2,-1,0,-2,-2
1514896108969486,0,1,-2,-1,-1,-2,0,-2
1514896108969486,-1,-1,2,0,0,-1,0,0
1514896108970487,0,-3,0,0,-1,-2,-2,0
1514896108970487,-2,0,-2,-2,-2,-2,0,-1
1514896109000007,0,0,-4,-2,-3,-1,-1,-1
1514896109000007,-2,-1,-2,-1,0,-1,-1,-1
1514896109001008,-3,-2,0,0,-2,-1,-2,-1
1514896109001008,0,0,-1,-3,-2,0,-2,-1
1514896109015019,-1,-1,-1,-1,-2,-1,-2,-2
1514896109015019,-2,-3,-3,-2,-1,-1,0,-1
1514896109016019,1,-1,-3,-1,1,-1,2,0
1514896109016019,-2,0,0,0,0,2,0,-1
1514896109029531,-1,1,-1,-1,-1,-2,-2,-2
1514896109029531,2,-1,-1,-1,-3,-3,-2,-2
1514896109030529,0,0,0,0,-1,-1,-1,0
1514896109030529,1,-2,0,-1,-2,-1,0,-2
1514896109060053,-2,1,-2,-3,-2,-1,0,0
1514896109060053,-2,-1,-2,0,-2,-2,-2,-3
1514896109061051,0,-2,0,-1,-2,-1,-2,-2
1514896109061051,-3,-2,0,1,-1,-2,-1,-1
1514896109075064,0,1,0,1,-1,0,0,-2
1514896109075064,0,0,0,-2,0,1,0,-1
1514896109076061,0,-3,-1,-2,-2,-1,-3,-1
1514896109076061,-2,2,-1,-1,0,0,0,0
1514896109105082,-1,-1,-1,-2,-1,-2,-1,-2
1514896109105082,0,-1,-2,-2,-1,-2,-3,-1
1514896109106083,0,-1,0,-2,0,-1,0,1
1514896109106083,0,-1,1,0,-1,0,-1,-3
1514896109119591,1,0,-1,-2,0,-1,-1,1
1514896109119591,0,-2,-1,0,-2,-1,0,-1
1514896109127097,-3,-2,-2,-1,0,-1,-2,-2
1514896109127097,-1,1,-3,-1,-2,-2,-2,-2
1514896109136103,-2,0,0,-1,-1,0,-1,-1
1514896109136103,-2,-3,-1,-2,-2,0,-2,-2
1514896109138104,-1,-2,-2,0,-2,0,-1,2
1514896109138104,-2,-3,0,-1,-2,-2,0,0
1514896109149613,0,-1,-3,-1,-2,-1,-2,-1
1514896109149613,-2,-1,0,-1,-1,-1,-1,-2
1514896109151114,-1,-3,0,1,-1,0,-1,-3
1514896109151114,-1,1,-1,0,-1,-1,-2,-1
1514896109172133,-1,1,-1,-1,-2,-1,-1,1
1514896109172133,-2,0,0,-2,0,0,1,0
1514896109172629,-3,-1,0,-3,-1,-1,1,-2
1514896109172629,-1,-2,-1,-1,0,0,0,-1
1514896109202651,0,0,0,-2,0,-1,-1,-2
1514896109202651,-1,-3,-2,-2,-1,1,0,0
1514896109203654,-1,-3,-1,-1,-1,0,-2,-1
1514896109203654,-1,-1,-4,0,1,-3,0,-3
1514896109209155,-3,-1,-3,-1,-2,-2,-2,-2
1514896109209155,-1,-3,-1,-1,-1,1,-3,0
1514896109210156,-1,-1,-1,-2,-2,-1,-1,-1
1514896109210156,-1,0,0,-1,0,-2,-1,-1
1514896109231674,-1,0,-1,-2,-1,-2,0,-1
1514896109231674,-1,0,0,1,1,-2,1,0
1514896109232672,-2,-2,-2,-2,-2,0,-1,0
1514896109232672,0,0,-1,-1,-2,0,-1,0
1514896109255701,0,-1,-2,-2,-1,-2,0,-1
1514896109255701,-2,-4,-1,-2,0,-1,-1,-1
1514896109256707,0,1,-1,0,0,-1,-2,-1
1514896109256707,0,1,-2,-1,-2,-2,1,1
1514896109269713,-1,0,-2,-1,-1,-2,-2,0
1514896109269713,-2,0,-1,1,-2,-3,-1,-2
1514896109270708,0,0,0,0,-1,0,0,0
1514896109270708,-1,-1,-2,-2,-2,0,-2,-1
1514896109292714,-1,0,0,-1,-2,-1,-3,-2
1514896109292714,-2,-2,0,-1,-1,-2,0,0
1514896109293214,-1,-4,-1,-1,-1,-1,-2,-1
1514896109293214,-1,1,0,0,-1,0,-2,0
1514896109315730,0,-1,-2,-1,0,-1,0,-1
1514896109315730,0,-2,-1,-1,-1,-1,-1,0
1514896109317732,-1,-2,-1,-2,-1,-1,-1,0
1514896109317732,-3,1,-1,-2,-2,-1,-1,0
1514896109329249,-2,0,0,-2,-2,-2,0,-3
1514896109329249,-1,-1,1,-2,-2,-1,-2,-2
1514896109330250,-2,-2,0,-1,-1,0,-1,-2
1514896109330250,-1,-2,-2,-1,-1,1,-2,-1
1514896109352274,-2,-2,-1,-2,-2,-2,-1,1
1514896109352274,-1,-1,-1,0,0,-1,0,-1
1514896109353257,-2,-1,-2,-1,-1,-3,0,0
1514896109353257,0,0,0,-3,0,-2,0,0
1514896109382302,-1,0,-1,0,-1,0,-1,-1
1514896109382302,-2,-3,-3,0,-1,0,-1,-1
1514896109383302,-2,-1,-2,0,0,0,-2,-2
1514896109383302,-1,-1,-2,-1,1,-3,-3,-2
1514896109389306,-1,0,-1,-1,-1,0,0,-1
1514896109389306,0,0,-1,-1,-1,-3,-2,0
1514896109390307,-2,-1,-1,-1,-2,-1,-1,-1
1514896109390307,0,0,-1,-1,-1,1,1,-1
1514896109411821,0,0,0,-1,0,-1,-1,-1
1514896109411821,-2,-2,-2,-1,-2,-1,-1,-2
1514896109412822,2,-1,0,0,-1,-1,-2,0
1514896109412822,0,-1,0,-1,-1,-1,-1,0
1514896109436340,0,-3,-1,-2,0,0,1,0
1514896109436340,1,-1,-1,-2,1,-1,1,-1
1514896109437841,-1,0,-1,-1,-2,-3,-1,-1
1514896109437841,-1,0,1,0,-2,-1,-1,-1
1514896109457854,-1,-1,-1,0,-2,-1,-2,-2
1514896109457854,-2,-1,-1,-1,0,2,-2,-2
1514896109458855,-2,-1,-1,0,0,-1,0,-1
1514896109458855,-1,0,-3,-1,-1,0,-2,-1
1514896109480369,0,-1,0,-2,-1,-1,0,-1
1514896109480369,-2,-1,-3,1,0,0,-2,0
1514896109480870,-3,0,0,-1,-2,-1,0,-2
1514896109480870,-2,1,0,-1,0,-3,1,-1
1514896109494383,-1,-1,-2,0,-2,-1,-2,-2
1514896109494383,-1,-1,-1,-2,-2,-2,-1,-2
1514896109501885,2,-1,-1,-1,1,0,0,1
1514896109501885,-1,1,0,-1,-1,1,-1,-2
1514896109510892,-4,-3,-2,-2,-3,-3,-2,-4
1514896109510892,-1,-3,-2,-1,-2,-1,-2,-1
1514896109511393,-2,-2,-3,0,-1,-2,-2,-1
1514896109511393,0,-2,0,-1,-2,-2,-1,-1
1514896109531906,-2,-1,0,0,1,0,0,-2
1514896109531906,0,-2,1,0,-1,-1,-1,-1
1514896109532906,-2,-2,-1,-2,-2,0,0,-2
1514896109532906,-1,-1,-2,-1,-1,-1,-2,0
1514896109554923,0,1,-2,-3,0,-2,-1,0
1514896109554923,-1,-5,-1,-2,-3,0,-1,0
1514896109555923,0,-1,-1,0,0,0,-1,-2
1514896109555923,-1,-2,-2,-1,-1,-1,0,-1
1514896109577942,-1,0,-1,1,-1,0,-1,-1
1514896109577942,0,-2,0,0,-1,-2,1,-2
1514896109578939,-2,0,1,-2,0,0,0,0
1514896109578939,0,1,-1,-1,-2,-1,-2,-1
1514896109591961,-2,-2,0,0,-1,-2,-1,0
1514896109591961,0,-1,1,0,1,0,-1,0
1514896109592450,-3,-1,-1,-2,-2,0,-3,-4
1514896109592450,-1,-1,-1,-3,-3,-3,0,-1
1514896109614979,0,-1,-1,-1,-1,0,-1,-1
1514896109614979,-1,1,0,-1,-1,-1,0,-2
1514896109615978,0,-3,-1,0,-1,-1,0,-1
1514896109615978,-2,-1,0,-2,-1,-1,-2,-2
1514896109637481,1,-2,-1,-2,-1,0,-2,-2
1514896109637481,0,-3,-2,1,-3,-1,-1,0
1514896109638482,0,0,-1,-1,-1,-2,-3,-1
1514896109638482,-1,-2,-2,-3,-1,-2,0,-2
1514896109652491,0,-2,-2,-1,-1,-1,-1,0
1514896109652491,-2,-1,-2,-2,-1,-2,-2,-2
1514896109652993,-1,-2,-1,-1,-1,-1,-2,-1
1514896109652993,-2,0,-3,0,-1,-2,-1,-1
1514896109675017,-3,-2,0,-1,0,1,-1,-1
1514896109675017,-1,-3,-2,0,-1,-1,-1,0
1514896109676008,1,0,-1,0,-1,-1,-1,-3
1514896109676008,-1,-1,-2,-1,-1,-2,-3,0
1514896109689017,-1,-2,-1,-3,0,-1,-1,-2
1514896109689017,-2,-1,-1,-1,-3,0,0,-2
1514896109704529,-1,0,0,-1,0,0,-1,-2
1514896109704529,-2,0,0,0,-1,-1,-2,-1
1514896109712034,-2,-3,-2,-1,-2,0,0,0
1514896109712034,-2,-2,-2,-1,-1,-2,-1,-1
1514896109712533,0,0,-3,-2,-2,0,0,1
1514896109712533,1,0,-1,0,-1,1,-2,-2
1514896109735050,-1,-2,0,-1,0,-2,1,0
1514896109735050,-2,-4,-1,-2,0,-1,-3,0
1514896109736051,-1,-1,-1,0,0,-1,-2,-1
1514896109736051,-2,-2,0,0,-1,-1,0,0
1514896109748560,1,-2,-2,0,-1,0,-1,-1
1514896109748560,0,-1,-1,-1,-2,-1,-1,-3
1514896109757066,1,0,-1,-2,-2,-2,-1,1
1514896109757066,-2,2,0,-2,0,0,-1,0
1514896109772077,-1,0,-3,-1,-2,-3,-2,-1
1514896109772077,-1,-2,-1,-1,-1,-1,0,0
1514896109772577,-2,-2,-1,1,-2,-1,0,-1
1514896109772577,1,0,0,-1,-2,-1,0,-1
1514896109794092,-2,-2,-1,-2,-1,0,-2,-1
1514896109794092,-1,-2,-1,-1,-1,1,-1,-1
1514896109810104,-3,-1,-1,-2,-1,0,-3,-1
1514896109810104,-1,0,-1,0,-2,0,0,-1
1514896109811605,-2,1,-2,-1,-2,-3,0,-1
1514896109811605,-1,-1,0,-3,0,-2,0,-1
1514896109817107,0,0,0,-1,-1,-1,-1,-2
1514896109817107,-2,-1,-2,0,-1,0,-1,-1
1514896109832118,-1,-1,0,-1,-1,-2,-1,-2
1514896109832118,-3,-1,0,-1,-1,-1,0,-1
1514896109833620,-2,0,-1,-2,-1,-2,1,-2
1514896109833620,-1,0,-1,-3,-1,1,-1,-1
1514896109855635,-1,1,-1,0,0,-1,0,0
1514896109855635,-1,-3,-1,-1,0,0,0,-1
1514896109856636,-1,0,-2,-1,-1,-1,-2,-1
1514896109856636,-1,-2,-2,-2,-1,-3,1,-2
1514896109869145,0,0,0,-1,-1,-1,-1,-1
1514896109869145,-1,-3,-1,-1,-3,-1,-1,-1
1514896109877149,0,1,-2,0,0,0,-1,0
1514896109877149,-1,0,-2,1,0,-2,0,-2
1514896109891660,0,0,-1,0,-2,-2,-2,-1
1514896109891660,-1,0,-3,-1,-1,-1,-3,-2
1514896109892661,0,-1,0,-1,-1,-2,-1,-1
1514896109892661,0,1,0,1,1,-1,-1,0
1514896109916194,-2,-1,0,-2,0,0,0,-1
1514896109916194,-3,-1,-2,-1,-1,-1,-1,0
1514896109917688,-1,-1,-1,-1,-2,-1,0,0
1514896109917688,0,-1,-1,-2,-1,-1,0,0
1514896109929187,-1,-3,-3,-2,-1,0,-1,-1
1514896109929187,-1,-2,0,-1,-1,-3,-1,-1
1514896109936734,0,-1,0,0,0,0,0,-2
1514896109936734,-1,-1,-1,-2,-3,-2,-2,-1
1514896109960254,-1,0,-1,-2,-2,-2,-2,0
1514896109960254,-1,-3,-1,1,-1,-1,-1,-1
1514896109960745,-1,0,-1,-1,-1,-1,0,0
1514896109960745,-3,-1,0,-3,0,0,0,0
1514896109975253,0,-2,-2,-1,-3,-1,-1,-1
1514896109975253,-1,-2,-1,0,-3,0,-1,-1
1514896109975753,-1,-2,-2,-1,-1,0,-1,0
1514896109975753,0,1,-1,-1,0,-2,-3,-2
1514896109997768,-2,-3,0,0,-2,2,-1,-1
1514896109997768,-1,-1,1,-1,0,-1,0,0
1514896109998769,-1,0,-1,-1,1,-1,-4,0
1514896109998769,-1,-1,-1,-2,-2,-2,-1,-1
1514896110011778,0,-1,-3,-2,-1,-2,-2,-2
1514896110011778,-1,-1,-1,-1,-1,-1,-2,-2
1514896110013779,-2,1,-1,0,-3,-1,0,-3
1514896110013779,-1,0,-1,-1,-2,-1,-2,-1
1514896110035294,-1,-2,-2,-1,-2,-1,-1,-1
1514896110035294,-1,-1,-1,-1,-1,-2,-2,0
1514896110035794,-1,0,-3,-1,-1,-1,0,-1
1514896110035794,-2,2,-1,0,0,-3,-1,0
1514896110064817,0,-2,1,1,0,2,1,0
1514896110064817,-1,-2,0,-2,-3,1,-1,-2
1514896110065816,0,-3,-3,-3,-3,-3,-2,-1
1514896110065816,0,1,0,-1,-1,2,0,-2
1514896110071821,0,-2,-1,-1,-2,0,-1,-2
1514896110071821,-2,-2,-1,-1,-1,-1,-1,-1
1514896110072821,-2,0,0,0,-3,-1,-2,-1
1514896110072821,0,-1,-1,1,1,0,-2,-1
1514896110102844,-2,-1,-2,0,0,-3,-3,-1
1514896110102844,-1,-3,-1,0,-1,-1,0,-1
1514896110103345,-1,-1,0,-2,0,-3,-1,0
1514896110103345,0,1,-1,-1,-1,0,0,0
1514896110117866,-2,-2,-1,-1,0,-1,-2,-1
1514896110117866,1,-1,-1,0,-2,0,-2,0
1514896110118355,-2,0,-1,-1,1,1,0,1
1514896110118355,1,1,0,-1,-3,-1,0,0
1514896110132363,-1,-2,-1,-1,1,-2,-1,-2
1514896110132363,-2,-2,1,-2,0,-1,-1,-1
1514896110133364,-1,0,0,0,1,-1,-1,-2
1514896110133364,-2,-1,-2,0,-3,-2,-1,-1
1514896110162387,0,-2,-2,-1,-1,0,-2,1
1514896110162387,-2,-2,-3,-1,-2,-1,-1,-2
1514896110163385,0,-2,-2,-1,-2,-2,0,-2
1514896110163385,-1,-1,-1,1,-1,0,-2,0
1514896110177895,0,0,0,-1,0,-1,0,-2
1514896110177895,-4,-3,-2,-1,-1,0,-2,-1
1514896110179397,-1,-1,-2,-2,-2,-2,-2,-1
1514896110179397,-2,0,-1,-4,-2,-3,-2,-1
1514896110199911,-2,-2,-2,0,1,0,-1,-3
1514896110199911,1,-2,0,0,0,-1,-1,1
1514896110200912,-2,-1,-1,-2,0,-1,-1,0
1514896110200912,-2,-2,-3,-1,-1,-2,-2,0
1514896110214934,0,-1,1,-2,-2,-1,0,-1
1514896110214934,-1,-2,-2,-1,-1,-2,-1,-3
1514896110215923,-1,1,1,0,-3,-2,-1,-1
1514896110215923,-1,-1,0,-1,-1,-1,1,-1
1514896110237438,-2,-2,-1,-2,-2,-1,-1,-2
1514896110237438,0,-2,-2,-1,-2,0,2,0
1514896110237955,0,-1,-1,-1,-1,-1,-2,-1
1514896110237955,0,1,-2,-3,-1,-1,-1,0
1514896110259953,-1,-3,-1,-1,-1,0,-2,-4
1514896110259953,-1,-2,0,-2,-1,0,-2,0
1514896110260954,-2,-2,-1,1,-1,0,-1,-2
1514896110260954,0,2,-2,-2,-2,1,0,-2
1514896110275474,-2,-1,-2,-2,-2,-3,-3,-1
1514896110275474,-1,-1,-1,0,-1,-1,0,0
1514896110276465,0,-1,-1,0,0,0,1,0
1514896110276465,-2,1,-1,-1,0,-1,-1,-1
1514896110298996,-1,-1,-2,-1,-2,-1,0,1
1514896110298996,-1,-2,-1,-1,-1,-2,-2,-3
1514896110299491,-1,2,-2,-1,-2,0,-1,0
1514896110299491,-3,0,0,-2,0,-2,-1,-2
1514896110312000,-1,0,-1,1,0,0,0,-2
1514896110312000,-1,-2,-2,-2,-1,-2,-2,-2
1514896110312491,0,-1,-2,-2,-1,-2,-2,0
1514896110312491,0,-2,-1,0,0,-2,-1,-1
1514896110342524,-3,-4,0,-1,-1,-1,0,1
1514896110342524,-1,-2,-1,-1,-1,-2,-1,1
1514896110343512,-2,2,0,-2,-3,-2,-1,-2
1514896110343512,-1,1,-1,0,-2,-1,0,0
1514896110357535,1,-2,-3,-2,-1,-1,1,-1
1514896110357535,0,-2,-1,-1,-1,-2,-1,1
1514896110358022,-2,-1,-2,-1,1,-1,0,-2
1514896110358022,0,1,0,-1,-2,0,-2,1
1514896110379054,-2,0,-1,0,0,-1,-1,-1
1514896110379054,-2,-3,-2,-2,-3,0,-3,-2
1514896110387043,-1,-1,0,-1,-2,0,-2,-3
1514896110387043,-1,-1,-2,-3,-1,0,0,-2
1514896110395558,-1,-2,-2,-1,-1,-1,-3,-1
1514896110395558,-2,-2,-1,0,2,0,-1,1
1514896110397550,-3,1,-1,0,1,0,0,-1
1514896110397550,-2,1,-1,-2,0,-2,0,-1
1514896110417564,0,-3,0,-2,-1,1,-1,-1
1514896110417564,-2,-4,-1,-2,-1,0,-1,0
1514896110418565,0,0,0,-1,-2,-2,-2,2
1514896110418565,-1,-1,-2,-1,-2,-1,-2,0
1514896110432075,-3,-1,0,-2,1,-1,0,-1
1514896110432075,-1,-3,1,-1,-2,-1,-2,-3
1514896110432576,0,0,-1,-1,-1,0,0,-1
1514896110432576,-2,0,0,1,-1,0,0,-3
1514896110454591,-1,-3,-1,0,-2,-1,-1,-1
1514896110454591,-1,-2,-1,0,-1,0,-1,-1
1514896110462112,-1,0,-1,-1,-1,-2,-1,0
1514896110462112,-1,2,-1,-1,0,-2,-1,-1
1514896110476645,-2,0,-2,0,-2,-1,-1,-1
1514896110476645,-1,-2,0,-1,-1,-2,0,-2
1514896110484626,0,0,-3,-2,-3,-2,0,-2
1514896110484626,-1,0,-1,-1,-1,1,0,-1
1514896110492131,-1,-3,0,0,-1,-2,-2,-2
1514896110492131,-1,-2,-2,-2,-3,-2,-1,0
1514896110492633,-1,0,0,0,-1,-1,-2,0
1514896110492633,0,0,0,-2,-1,-3,-1,0
1514896110516149,-1,-2,-1,-1,-1,-2,-1,-2
1514896110516149,0,0,-2,-1,0,-1,-1,-3
1514896110517650,-1,-2,-1,-2,0,1,0,-2
1514896110517650,-1,1,-2,0,-2,-2,1,-2
1514896110537673,0,-1,-2,0,-1,1,0,0
1514896110537673,-1,-3,-1,-2,-2,-3,-2,0
1514896110538165,-1,1,-1,-1,-2,-1,-2,0
1514896110538165,-1,0,-2,0,-1,0,-2,-2
1514896110552175,0,0,-1,-1,-2,-2,-1,0
1514896110552175,-2,-2,0,-1,-2,-2,-1,0
1514896110552676,-1,0,-2,-1,-2,-1,0,-1
1514896110552676,0,-1,0,1,-1,0,-1,-1
1514896110575191,-1,-1,-1,-2,1,-2,-3,-1
1514896110575191,-2,-2,-1,-2,0,-1,-1,-1
1514896110576692,-1,0,-1,-1,-2,0,-1,-1
1514896110576692,-1,-1,-1,-1,-3,-3,-1,0
1514896110598207,-1,-2,-1,-1,0,-2,0,0
1514896110598207,0,-4,0,-1,0,1,0,-2
1514896110600208,-2,0,-1,1,2,-1,1,-2
1514896110600208,-1,0,-2,-1,0,0,-1,-2
1514896110621223,-1,-2,-1,0,-1,0,-1,-1
1514896110621223,0,-1,0,0,0,0,-1,-1
1514896110623226,-1,0,0,-1,-1,-3,-2,-1
1514896110623226,-1,0,-1,-2,-2,2,-3,-1
1514896110635736,-2,-3,0,0,0,0,0,0
1514896110635736,-1,-2,-1,0,0,0,-1,-3
1514896110636234,-2,-2,-2,-3,-1,-1,-2,-1
1514896110636234,-2,0,-3,-2,-1,-3,-1,-1
1514896110657750,-1,-1,-1,-2,-2,-1,-1,0
1514896110657750,-1,-1,-2,-1,-2,1,-1,0
1514896110658249,-2,-1,-2,-1,-2,-1,0,0
1514896110658249,0,-1,-1,-2,-2,-2,0,-1
1514896110680265,0,0,-1,-3,-1,-3,-2,1
1514896110680265,-1,-1,0,-1,0,-1,-2,0
1514896110680765,1,-1,-1,0,-1,0,-2,-3
1514896110680765,-1,0,0,-3,-2,-2,-1,0
1514896110695276,0,-3,0,0,-1,1,1,-3
1514896110695276,-2,-2,-1,0,0,0,-1,-2
1514896110696777,0,0,-1,-2,-1,-2,0,-1
1514896110696777,-1,0,-2,-1,0,-1,-2,-1
1514896110717794,-1,-3,-2,-2,-1,-2,-2,-1
1514896110717794,-1,-3,-1,-1,-3,-2,-1,-1
1514896110718292,-2,0,-2,-2,-1,0,-2,0
1514896110718292,-1,1,-1,0,1,-2,1,0
1514896110747325,-1,0,-2,-1,1,-2,-1,0
1514896110747325,-1,-4,-1,0,0,0,-2,-1
1514896110748312,-2,0,-1,0,-1,-2,-1,-1
1514896110748312,-1,0,-1,-1,-1,-1,0,-2
1514896110754827,-1,-2,0,0,-1,-1,0,-2
1514896110754827,-1,-1,-1,-1,-1,-1,0,1
1514896110756828,0,-1,1,-1,-2,-2,-1,-2
