timestamp,emg1,emg2,emg3,emg4,emg5,emg6,emg7,emg8
1517204714003318,-1,-1,0,0,0,2,-1,-3
1517204714003318,-1,-3,-1,-2,0,0,-2,-1
1517204714004823,-1,-2,0,0,-1,0,1,-1
1517204714004823,-1,-1,-1,-1,-1,-2,0,-1
1517204714016830,1,-1,0,-2,0,0,0,0
1517204714016830,-1,-1,0,0,-1,-1,-2,-1
1517204714025836,0,0,-2,-4,-1,-1,0,0
1517204714025836,0,-1,-2,0,-2,0,0,0
1517204714040846,0,0,0,-1,-1,0,0,-2
1517204714040846,-1,0,-2,-1,-1,-2,-2,-1
1517204714042351,-1,-1,-3,-1,-2,-1,-2,-2
1517204714042351,0,-1,-3,-2,-1,-1,-2,-2
1517204714062861,-2,-2,-2,-4,-2,0,0,-1
1517204714062861,0,0,0,-1,0,-1,0,0
1517204714064864,-2,-2,-1,1,-2,0,-1,-1
1517204714064864,-2,1,-1,-1,-2,-1,-1,0
1517204714076871,-2,-2,0,0,1,-1,-1,-1
1517204714076871,1,-1,-1,-2,-2,-2,1,-3
1517204714085877,-1,-2,0,-2,-2,-2,-2,-2
1517204714085877,-1,-1,1,-1,-1,-1,1,0
1517204714100889,-1,-2,-2,-2,1,-3,-1,0
1517204714100889,-1,-2,-2,-1,-1,-3,-1,-2
1517204714102429,0,0,0,-2,-2,-1,-1,-1
1517204714102429,-1,0,1,-1,-2,0,-3,-2
1517204714123408,0,0,-1,-1,-1,-2,-1,1
1517204714123408,-1,-1,0,0,-1,2,-1,0
1517204714124915,-1,1,-2,-2,0,-2,0,-2
1517204714124915,0,0,-2,-1,-1,-2,-1,-1
1517204714136919,-1,-1,-1,-1,-2,0,0,-1
1517204714136919,-1,-2,-1,-1,-4,-2,-1,-2
1517204714145921,-1,-3,-1,-3,1,-1,-1,-1
1517204714145921,0,0,-1,-1,-1,-2,-1,0
1517204714160431,-3,0,-2,-3,-4,-1,-3,-1
1517204714160431,-1,-3,-2,4,0,-1,-1,1
1517204714166935,0,-2,0,-1,-2,1,0,0
1517204714166935,-1,-2,-3,-1,-1,0,-1,-3
1517204714182946,0,-2,-2,-1,0,-1,0,-1
1517204714182946,-1,0,-1,-3,-1,-1,0,1
1517204714184948,-2,-1,-4,-2,-3,-1,-1,-1
1517204714184948,-2,-1,-1,-3,-1,-1,-2,-1
1517204714206017,1,-1,1,0,0,-1,-1,-2
1517204714206017,-1,1,-1,-1,-2,-2,0,-3
1517204714207018,-1,-1,-1,0,1,-2,-2,-1
1517204714207018,0,-2,0,-3,-2,-2,0,-2
1517204714220029,-1,0,-2,-1,-1,-2,-1,0
1517204714220029,-2,-1,-1,0,-2,-2,-1,-1
1517204714226612,0,1,0,-1,-2,-1,-2,1
1517204714226612,-3,-2,-1,0,-2,-2,-3,-1
1517204714243123,-3,-2,1,-3,-1,-1,1,-1
1517204714243123,0,-1,-2,2,1,0,-1,-1
1517204714244623,-2,0,-1,-3,-4,-1,-2,0
1517204714244623,1,-3,-2,-1,2,-1,-1,-1
1517204714265639,0,-1,-3,1,0,-1,-1,0
1517204714265639,-1,0,0,-1,-2,-2,-1,-2
1517204714267139,-2,-2,1,0,-1,-1,0,-1
1517204714267139,-1,-2,-2,-1,-2,-2,0,0
1517204714280660,-1,0,-1,-1,0,1,-1,-1
1517204714280660,-2,-1,-2,-2,0,-1,-1,1
1517204714282149,0,0,1,1,0,-2,-2,-1
1517204714282149,-1,-1,-2,0,-2,-1,0,0
1517204714303202,0,-2,-2,0,-2,-3,-1,-2
1517204714303202,0,-1,0,-4,0,-1,-2,0
1517204714304666,-2,-1,-3,0,-2,0,0,-2
1517204714304666,0,1,-1,-1,0,-1,-1,-2
1517204714325738,0,-1,-1,-1,-2,-1,-1,-1
1517204714325738,-2,-1,-3,-2,-1,-1,-1,-2
1517204714327182,1,-1,0,-3,1,-3,-1,1
1517204714327182,0,-2,-1,-3,0,-1,-1,-1
1517204714340261,0,-2,0,0,-1,-1,-1,-1
1517204714340261,-1,-2,-1,-1,0,-2,-1,-1
1517204714346775,0,-1,-2,0,1,0,-2,-2
1517204714346775,-4,-2,-2,-1,-1,-1,-1,-2
1517204714363267,0,-1,0,-2,-2,0,-2,-1
1517204714363267,-2,-1,-3,1,-1,-3,-1,-1
1517204714364780,0,0,-1,-1,0,0,-1,-1
1517204714364780,-2,0,0,0,-2,-2,-2,0
1517204714385279,-1,-2,-2,-3,-2,1,-1,-1
1517204714385279,-2,0,0,-1,-1,-1,0,0
1517204714387281,-1,-2,-2,-1,-1,-3,-2,0
1517204714387281,0,0,-1,0,-1,1,0,0
1517204714399807,-1,-2,-1,0,-1,-4,-1,-1
1517204714399807,0,-2,-1,-1,0,0,0,-2
1517204714406795,-2,-1,-1,-1,-2,-1,-2,-1
1517204714406795,-1,-1,-1,-4,-1,-3,-1,0
1517204714423306,0,0,-2,0,1,-2,-1,-1
1517204714423306,0,0,-1,-1,-1,0,-1,-2
1517204714424807,-1,-1,1,-1,1,-1,0,1
1517204714424807,-1,-3,-2,0,-2,-1,-1,-3
1517204714445835,-2,-2,-1,-1,-1,0,1,0
1517204714445835,0,-2,0,-1,-2,-2,-3,-1
1517204714447336,-1,-4,-2,-1,-1,0,0,-2
1517204714447336,0,-1,-1,0,-1,-1,-1,0
1517204714459897,-1,-2,-1,-2,1,-1,-2,-2
1517204714459897,0,-1,0,-2,0,-3,-2,-1
1517204714466917,-1,0,0,-1,-1,0,-1,0
1517204714466917,-1,-1,-1,-1,0,-1,1,-1
1517204714482913,-1,-1,-1,-1,-2,-1,-1,-2
1517204714482913,-1,0,-1,-2,-2,1,-1,-1
1517204714484914,-2,-1,-3,-3,1,0,0,0
1517204714484914,-1,0,0,1,-1,-2,-1,0
1517204714512961,-2,-2,-1,0,-2,0,-2,1
1517204714512961,1,2,-1,-1,-1,-2,-1,1
1517204714514950,-1,1,-2,-1,-2,0,-1,-2
1517204714514950,-2,-2,-1,-3,-3,0,-1,0
1517204714519961,-2,-1,-1,0,-1,-2,-1,-1
1517204714519961,-1,-2,-2,-2,-2,-1,-1,0
1517204714526954,-1,-1,1,0,-1,-2,-2,-3
1517204714526954,-2,-1,-1,-1,0,-1,-4,-1
1517204714542956,0,-2,-1,0,0,-1,0,0
1517204714542956,-2,-1,-2,0,-2,0,-1,-2
1517204714544456,0,-3,-2,-1,-3,-3,1,-1
1517204714544456,-1,-3,-1,-2,-2,-1,-1,-1
1517204714565986,0,-1,-2,-2,0,0,-1,0
1517204714565986,-1,-3,-1,-1,0,-2,-1,0
1517204714571977,-2,0,0,-3,0,0,-3,0
1517204714571977,0,-1,-1,0,-1,-1,2,-1
1517204714579996,-2,-1,-1,-2,-1,1,0,-3
1517204714579996,-2,-1,-1,0,0,-1,-1,-1
1517204714586996,-2,-2,-3,0,-1,-1,-1,-2
1517204714586996,0,-1,-3,0,-2,0,0,1
1517204714603001,0,0,0,0,-3,-3,-3,0
1517204714603001,0,-1,-1,-1,0,0,0,-1
1517204714604501,-1,0,-1,0,-1,0,-2,0
1517204714604501,-1,-1,-2,-1,-1,-1,0,0
1517204714625514,-1,0,-1,-1,-1,-1,-2,-1
1517204714625514,-1,-1,-1,-1,-2,-1,0,-1
1517204714627014,-2,0,-1,-1,0,-1,-2,-2
1517204714627014,-1,7,-1,0,-1,0,-1,-1
1517204714640036,-1,-5,-2,-2,0,-1,0,0
1517204714640036,-2,-1,-1,1,-1,-1,0,-1
1517204714646549,-1,-2,-1,-2,-4,-1,-2,2
1517204714646549,-1,2,-2,-1,-2,-1,-3,-1
1517204714663056,-1,-1,-2,-1,0,0,1,0
1517204714663056,-1,-1,-1,0,1,-2,1,-4
1517204714664542,-1,0,-1,0,-2,1,0,0
1517204714664542,-1,-5,-2,-3,-1,0,-1,-1
1517204714685570,-1,-1,-1,-2,-1,-3,-2,-1
1517204714685570,0,-2,-2,0,-2,1,-2,2
1517204714687057,0,-1,-2,-1,-1,-1,-1,0
1517204714687057,-3,-2,0,-3,0,-2,0,-1
1517204714699091,-1,-1,-2,-1,-1,-1,-1,-2
1517204714699091,-1,0,-2,-1,-1,-2,0,-1
1517204714708076,-1,0,-2,-1,-1,-3,1,-1
1517204714708076,0,-3,-3,1,-1,-1,-1,-2
1517204714723584,1,1,0,0,1,0,0,0
1517204714723584,-2,-1,0,-2,0,-1,-1,0
1517204714725084,-1,-2,-3,-2,-1,1,0,-2
1517204714725084,-2,-2,-2,0,-1,0,-1,-1
1517204714745617,-2,0,-1,-1,-1,0,0,-2
1517204714745617,0,-1,-2,-3,0,0,-3,0
1517204714747110,-1,-1,0,-1,0,-2,-1,0
1517204714747110,0,1,0,-3,0,0,-3,-2
1517204714759123,-2,-2,-1,-2,-4,-2,-2,-2
1517204714759123,0,-2,0,-1,-3,-1,-2,-1
1517204714768116,0,-1,-1,0,-1,-1,0,-1
1517204714768116,-2,-1,-2,-1,-1,0,-1,-1
1517204714783125,0,-1,-1,-1,-1,-2,1,-1
1517204714783125,-1,0,-1,-3,-1,0,1,-2
1517204714784626,-3,-2,-2,-3,-2,-1,0,-1
1517204714784626,-1,-1,0,0,-2,0,-1,0
1517204714805646,-2,0,-1,-1,1,0,-2,-1
1517204714805646,-3,-1,0,1,-1,-2,-2,1
1517204714807145,-2,-1,-1,0,-1,-2,-2,-2
1517204714807145,-1,-2,-1,-1,0,-1,0,-3
1517204714819173,0,0,-3,-2,-1,-2,-1,-1
1517204714819173,-1,-2,-2,1,0,-2,-2,0
1517204714828159,1,0,0,-1,0,1,-3,0
1517204714828159,-1,-1,0,0,-3,-2,-2,1
1517204714843187,-2,-1,-1,-1,-2,-1,-2,-1
1517204714843187,-2,-1,-1,-1,-1,-2,-2,-2
1517204714844670,-3,0,-3,-2,-1,-3,0,-1
1517204714844670,-1,-3,0,-2,0,-3,-3,-1
1517204714865684,0,-1,1,-1,0,0,0,-1
1517204714865684,-1,-2,0,-1,1,0,-1,-1
1517204714867187,2,-2,-1,0,-1,0,0,-1
1517204714867187,-2,-2,-2,-3,-5,0,-1,0
1517204714879713,-2,-1,-1,-1,-1,-2,-1,0
1517204714879713,0,-1,-2,-1,1,-1,-2,0
1517204714888203,-2,-1,-2,0,-3,0,-2,-1
1517204714888203,0,-1,-3,-1,1,-1,-1,0
1517204714903230,0,-1,-1,-1,-1,-3,0,0
1517204714903230,-3,0,1,-2,-3,-1,0,0
1517204714904714,-2,-1,-1,-1,1,-2,-2,0
1517204714904714,-1,0,0,-3,-1,-1,-1,-1
1517204714925729,-2,-3,-3,-3,-1,1,-1,-1
1517204714925729,0,-1,-1,-3,-1,-2,-2,-2
1517204714927231,0,-2,-1,1,0,-2,0,-2
1517204714927231,-2,-1,1,-1,-2,0,1,-1
1517204714939237,-1,0,-1,-3,-2,0,-3,0
1517204714939237,-1,-1,-4,-1,-1,-1,-1,-1
1517204714948245,1,-1,0,0,-1,-1,-1,-3
1517204714948245,-2,-2,0,-1,0,-1,-1,-1
1517204714963256,-1,0,-1,0,-1,-1,1,-2
1517204714963256,-2,-2,-1,-3,-2,0,1,-1
1517204714964754,-1,-1,-2,0,0,-1,-1,0
1517204714964754,-2,-1,0,-2,0,-2,-1,-2
1517204714985782,-1,-1,-1,-2,-3,0,-1,-3
1517204714985782,-1,0,0,-1,-2,0,-2,-1
1517204714987280,0,-2,0,-1,-1,-1,-1,-1
1517204714987280,0,-3,-2,-1,0,-1,-1,0
1517204714999279,-2,-1,-1,-2,-2,-2,-2,-1
1517204714999279,-2,0,-2,-1,0,0,0,-1
1517204715008284,-4,0,0,-3,0,0,0,0
1517204715008284,0,1,-1,-1,-3,-1,0,-1
1517204715023296,-1,0,-1,-2,1,0,0,0
1517204715023296,0,-2,-1,0,-2,-3,-2,-3
1517204715024797,0,-1,-1,-1,-3,0,-3,0
1517204715024797,-1,0,-2,0,1,-1,-2,-2
1517204715045857,-1,-2,-2,0,1,-2,0,-2
1517204715045857,-2,2,-1,0,1,0,-1,1
1517204715046858,-1,-1,-3,-3,-3,-2,0,1
1517204715046858,-1,-2,-1,-1,0,0,0,-2
1517204715059367,-1,-3,0,-3,0,0,0,-1
1517204715059367,-1,-3,0,0,-1,-2,1,-1
1517204715068394,-2,0,0,-1,-1,-2,-1,-1
1517204715068394,-2,-1,-1,1,-3,-1,1,-1
1517204715082884,-3,-1,-2,-1,1,-1,-2,-1
1517204715082884,-2,-2,-1,-1,0,0,-2,0
1517204715084885,-3,0,0,-4,-1,-1,-2,-1
1517204715084885,0,0,0,-1,0,-1,0,-1
1517204715112919,1,-1,-1,-1,-4,1,0,0
1517204715112919,-2,-2,-1,0,-2,-2,0,-1
1517204715114909,-1,-1,-1,1,-1,1,-1,-3
1517204715114909,0,-1,-3,-4,-2,0,0,0
1517204715127915,-1,-2,-1,0,-1,-1,-3,0
1517204715127915,-1,-1,-1,-1,-1,-2,-1,-2
1517204715129917,-1,-1,0,0,-1,0,0,-1
1517204715129917,-3,0,0,0,0,-1,-1,0
1517204715142926,-1,-1,-1,0,0,-1,0,-3
1517204715142926,0,-1,-2,-2,-2,0,-1,0
1517204715144927,0,-3,-2,-2,1,-1,0,0
1517204715144927,-1,-2,-2,-1,-1,-1,-2,0
1517204715165456,-1,0,-1,-1,-1,0,-1,0
1517204715165456,1,-3,-1,0,0,0,-2,-2
1517204715167453,-1,-1,-2,0,-3,1,0,0
1517204715167453,-1,-1,-1,-3,-1,-1,-1,0
1517204715188475,-1,-1,-3,-1,0,-1,-1,0
1517204715188475,-1,-2,-1,0,-2,-1,-1,-1
1517204715189961,-1,-2,-1,0,-1,-1,-1,-2
1517204715189961,-1,-2,-3,-3,-1,-1,-1,-1
1517204715202971,-1,-1,-1,1,0,-1,-1,-1
1517204715202971,-2,-1,0,0,0,0,-2,-1
1517204715204970,0,0,-1,-2,0,-4,0,-2
1517204715204970,-1,-1,-1,0,0,0,-1,-3
1517204715225485,0,-2,-2,-2,-1,-2,-1,0
1517204715225485,-2,0,0,-1,-2,0,-1,0
1517204715226986,-2,0,-1,0,-1,0,-2,-1
1517204715226986,0,0,-1,-1,-1,-3,-1,0
1517204715248015,-2,-2,-1,-2,0,-2,0,-3
1517204715248015,-1,-1,-2,-2,-2,0,-1,-1
1517204715249501,0,-1,0,-2,-1,-1,-4,0
1517204715249501,2,-2,-2,-1,0,-1,-1,-2
1517204715262511,-1,0,-1,1,0,-1,-3,0
1517204715262511,0,0,-1,0,-1,-1,-2,-1
1517204715277024,0,0,0,-1,0,-1,0,0
1517204715277024,-1,0,-1,0,-1,-1,0,-1
1517204715286038,-1,1,0,0,-1,0,-2,-2
1517204715286038,0,0,-1,-2,-1,-3,0,-1
1517204715287029,-2,-1,-2,0,-2,-2,-2,-1
1517204715287029,-3,-2,-1,-2,-2,-2,0,0
1517204715308047,-1,-1,-1,-1,-1,-2,0,1
1517204715308047,-1,-1,-2,0,0,-2,-3,-1
1517204715309545,-1,0,-1,0,-1,-1,-2,-2
1517204715309545,0,-2,0,-1,-2,-1,-2,0
1517204715322554,-1,0,0,-3,-1,-1,-1,0
1517204715322554,0,0,0,-1,-1,-1,1,-1
1517204715329575,-1,-2,-2,-3,1,-2,0,-2
1517204715329575,-1,-1,-1,0,-1,0,-1,-1
1517204715345571,-1,-1,0,0,-2,-1,0,-2
1517204715345571,-1,-1,0,-2,-1,-2,-2,1
1517204715347072,-1,-1,-2,-1,0,-2,-2,0
1517204715347072,-1,-1,0,-2,-1,0,-1,-2
1517204715368088,0,-1,0,-2,-2,0,0,-2
1517204715368088,-1,-1,-2,-2,-1,-1,-1,-1
1517204715369586,0,-3,0,-1,-1,0,0,-1
1517204715369586,-1,-1,-1,-1,-1,-1,-2,-1
1517204715382610,-2,-1,-2,-2,-2,-1,0,1
1517204715382610,-1,-1,0,0,-1,-1,1,0
1517204715389115,-2,0,-2,-1,-1,-2,-1,-3
1517204715389115,-2,1,-2,-1,0,-2,0,-1
1517204715406161,-1,-1,-1,-1,-2,-1,1,-1
1517204715406161,0,-1,-1,-1,0,0,-1,-1
1517204715407662,-1,-3,-1,-2,1,-1,0,-2
1517204715407662,-1,-3,-2,0,-2,-1,-1,-1
1517204715428180,-1,0,0,-2,-1,-2,-1,-1
1517204715428180,-1,1,0,0,-2,1,-1,0
1517204715429678,0,0,-1,0,-1,0,-1,-1
1517204715429678,-1,1,-3,-2,-2,0,-2,0
1517204715442688,-1,-1,-1,1,0,-1,-2,-3
1517204715442688,-2,-1,-2,-1,-2,1,-1,-1
1517204715449195,-1,-2,0,-2,-1,1,-1,0
1517204715449195,-3,-3,-1,-1,-1,-2,0,-1
1517204715465706,-1,-1,-2,0,0,0,-2,-1
1517204715465706,-1,-2,-1,-1,-1,-2,-1,-1
1517204715467205,0,0,1,-1,-3,1,-2,-2
1517204715467205,0,-1,-1,-2,-1,-1,-1,-1
1517204715488222,0,-1,-2,0,0,-2,-1,-1
1517204715488222,0,-1,-1,0,0,-1,-2,-2
1517204715489723,-1,0,-1,-2,-1,1,0,1
1517204715489723,0,-1,-1,1,-1,0,-1,0
1517204715501730,0,-2,-1,-2,-2,0,-1,-1
1517204715501730,-1,-1,-1,-2,0,-1,-1,-1
1517204715510735,0,-1,-2,-1,-1,-1,-1,0
1517204715510735,-1,-1,-1,-1,-1,-1,-1,-3
1517204715525761,-1,0,-1,-2,0,-2,0,0
1517204715525761,-1,-2,-2,-1,-1,-1,0,-2
1517204715527248,0,0,-1,-2,-3,-2,-1,0
1517204715527248,0,-2,1,-1,-1,-4,-1,-2
1517204715548276,0,-1,0,0,-1,-2,0,0
1517204715548276,-3,-1,-2,-2,0,-2,-2,0
1517204715549778,-1,0,-1,-2,-1,-1,-1,0
1517204715549778,-1,0,-2,-3,0,0,-1,1
1517204715562282,-1,-2,-3,-1,-1,0,-3,0
1517204715562282,0,-2,-1,-1,-1,-1,-1,-1
1517204715569296,-2,-3,-1,-2,-1,-2,-2,-3
1517204715569296,0,-1,-2,-2,0,-2,0,0
1517204715585804,-1,0,0,-2,-2,-2,-1,-1
1517204715585804,-1,0,0,-2,0,1,-2,-1
1517204715587299,-3,-2,-1,-1,-1,-1,-3,0
1517204715587299,-1,-1,-1,-2,-1,-1,0,-2
1517204715607804,-1,0,-1,0,0,1,-1,-2
1517204715607804,0,1,-3,0,-2,-3,-2,-1
1517204715614323,-1,-1,-1,0,-2,-1,-2,-2
1517204715614323,-3,-3,-1,-1,0,0,-2,-1
1517204715621816,0,-3,-3,-3,1,-1,-1,0
1517204715621816,0,-1,-1,-1,0,0,-2,-2
1517204715632321,0,-4,-2,0,1,1,-1,-2
1517204715632321,-2,-1,-1,-2,-2,0,-1,-1
1517204715645830,-1,-2,-1,1,-1,-2,-1,-2
1517204715645830,-1,0,0,-2,0,-2,-1,-1
1517204715647348,-1,1,-2,-1,-2,-1,-1,0
1517204715647348,0,0,-1,-1,0,1,-3,0
1517204715668347,-2,-1,1,-3,-2,0,-2,-2
1517204715668347,-3,-1,-2,1,-1,-1,-3,-2
1517204715669862,-1,-1,-3,-1,-2,0,0,-1
1517204715669862,-3,1,-2,1,-1,-1,0,-1
1517204715681856,-1,0,-2,-1,-1,-2,1,1
1517204715681856,-1,-2,-1,-2,-1,-3,-1,-1
1517204715690863,-1,-1,-1,0,-1,-2,0,-2
1517204715690863,0,-2,-2,-1,-2,-1,0,-2
1517204715705873,-2,-2,-1,0,-1,-1,-2,-2
1517204715705873,0,-2,-1,-1,-2,0,-1,0
1517204715706874,-2,0,-2,-3,-1,-2,-1,2
1517204715706874,1,-2,-1,0,-3,1,-1,-1
1517204715727929,-1,0,-1,-2,-1,-2,-2,-1
1517204715727929,-1,-2,0,-2,-1,-1,0,-1
1517204715729915,-1,-3,-1,0,-2,1,0,-2
1517204715729915,0,0,-3,-2,-2,-2,0,-1
1517204715741936,0,-3,-1,0,0,0,-3,1
1517204715741936,-2,-2,-1,-1,-2,-2,-1,0
1517204715750945,-1,-2,0,-1,1,-1,0,-1
1517204715750945,1,0,-2,-1,0,-2,-1,-1
1517204715765443,-1,-2,-2,-2,-2,-1,0,-1
1517204715765443,-2,-3,-2,0,-2,-1,1,-1
1517204715767441,-1,-1,0,-1,-2,-1,-2,-2
1517204715767441,-1,-2,0,0,-1,0,-1,-2
1517204715788457,-1,0,-2,-1,-1,-1,2,0
1517204715788457,-2,1,0,0,0,-2,-2,0
1517204715789458,-2,-1,0,-2,-2,-1,-1,0
1517204715789458,-1,-1,-2,0,-1,-1,-2,0
1517204715801966,-2,-1,0,-1,-2,-1,0,-1
1517204715801966,0,0,-1,-1,-2,0,-1,1
1517204715810473,-1,-1,-2,-1,-2,-3,0,-1
1517204715810473,-1,0,-1,-2,0,-2,-2,-1
1517204715826486,-2,1,-1,-1,-2,0,-1,-2
1517204715826486,0,-2,-1,-1,-1,-2,0,-2
1517204715831999,-1,1,-1,-3,-1,-2,-1,-1
1517204715831999,-1,-1,0,2,-1,-2,1,-1
1517204715848001,0,-1,0,-1,-1,0,-2,-1
1517204715848001,-1,0,-1,1,0,-1,0,-1
1517204715849499,-1,-2,-2,0,0,-1,-2,-1
1517204715849499,-2,-2,-2,-2,-2,-1,1,-1
1517204715862009,0,-2,1,0,0,-2,0,-2
1517204715862009,-2,-2,-2,-1,-1,-1,-1,-2
1517204715870515,-1,-1,-1,-3,-4,-1,-2,0
1517204715870515,1,-1,-2,-2,-1,-1,-2,1
1517204715885525,-1,1,-1,-1,0,-1,-4,-1
1517204715885525,-1,-2,-2,-1,-2,1,-3,0
1517204715887026,0,-2,-1,-1,0,1,0,0
1517204715887026,-1,0,-1,-2,-1,-2,0,-2
1517204715915549,-1,0,-2,-1,-1,0,1,-2
1517204715915549,-1,-2,-1,-2,0,-1,-2,-2
1517204715917047,-2,-3,-1,-2,-1,-3,-1,-2
1517204715917047,0,-3,0,-1,-3,-1,0,-1
1517204715921551,0,-3,-2,0,-3,-2,-1,0
1517204715921551,0,0,-1,-1,-2,-1,1,0
1517204715930557,1,0,-3,-1,0,0,-1,0
1517204715930557,-1,-2,0,-2,-2,-1,-1,-1
1517204715945583,-2,1,1,-1,0,-2,-1,-2
1517204715945583,0,-2,-3,0,0,-1,1,0
1517204715947070,-2,0,0,0,0,-1,1,-1
1517204715947070,-2,0,0,-3,0,-2,-1,-2
1517204715968133,-2,1,-3,-4,-1,-2,0,-1
1517204715968133,-1,-1,0,-1,-2,-1,-3,0
1517204715969614,-1,-2,-2,0,-2,0,-1,0
1517204715969614,-2,0,-1,0,-3,1,-2,-1
1517204715981622,-2,-2,-2,-1,-1,-1,-5,0
1517204715981622,-1,-1,-1,-3,-2,-1,-2,1
1517204715990629,1,0,0,0,1,-1,-1,-2
1517204715990629,-2,-1,-1,0,0,0,-1,-1
1517204716005641,0,-1,-2,-1,-4,0,-2,1
1517204716005641,0,0,0,-1,0,-1,-2,-2
1517204716007142,-1,-1,-1,-1,-1,-2,0,-2
1517204716007142,0,-1,0,-2,-2,-1,0,-3
1517204716028156,0,0,-3,0,0,-1,0,-1
1517204716028156,-2,0,-1,0,1,0,-2,-1
1517204716029656,-1,-2,-1,-1,-2,0,-2,-2
1517204716029656,-1,0,0,0,-1,-2,-1,0
1517204716041664,-2,-3,0,-3,-1,-1,-2,1
1517204716041664,-3,0,-2,0,-1,-1,-1,0
1517204716050671,-2,0,0,-1,-1,-2,-1,-1
1517204716050671,-1,0,-2,0,-1,-1,-1,-1
1517204716066186,0,0,-1,0,-2,1,1,-1
1517204716066186,-1,0,-1,-3,-2,-1,-1,-1
1517204716071686,-1,-1,0,-2,0,-2,-2,2
1517204716071686,-2,-2,-1,-2,1,-2,1,-1
1517204716088197,-2,-3,0,-1,-1,-2,0,-2
1517204716088197,-1,1,-2,0,-1,-1,-1,0
1517204716089698,-1,-1,-2,0,-1,-1,0,-1
1517204716089698,0,-1,-2,-1,-1,-1,0,-1
1517204716110727,-2,0,-3,0,0,-2,-1,-2
1517204716110727,0,-1,-1,-2,-1,-2,0,-1
1517204716112227,0,-2,-2,-3,-1,0,-1,-1
1517204716112227,-2,-1,-2,0,0,-2,-1,0
1517204716125749,0,-1,-1,0,0,0,-2,-1
1517204716125749,-1,-1,0,0,0,0,-1,-2
1517204716127250,1,-2,0,-1,-2,0,-2,-2
1517204716127250,-1,-1,-2,-1,-2,-2,-2,-2
1517204716148243,-1,-1,-1,0,0,-1,0,-1
1517204716148243,-2,-1,-1,-2,0,-1,-1,-1
1517204716149756,0,2,-1,-2,0,-2,-1,0
1517204716149756,-1,-2,-2,-1,-1,-2,-2,0
1517204716170756,1,-1,-1,0,-1,1,-1,0
1517204716170756,-2,-2,-2,-1,-2,-1,-2,0
1517204716172258,-1,-1,-2,-1,-2,-1,-2,-2
1517204716172258,0,-2,0,-2,-1,-2,-1,0
1517204716185792,2,0,0,1,-2,-2,-1,1
1517204716185792,0,-1,-1,1,0,-2,-1,-1
1517204716187294,-2,-2,-1,-1,-1,-3,0,-2
1517204716187294,-2,0,-1,-1,-1,-1,0,-2
1517204716208282,-5,-2,-2,-1,0,0,-4,-2
1517204716208282,-2,-1,-2,0,-1,-1,-1,0
1517204716209784,0,-1,-1,1,-1,0,0,0
1517204716209784,-1,-1,0,-2,-1,-2,-2,-1
1517204716230798,-2,-1,0,-1,-2,-2,-1,-1
1517204716230798,-2,-1,-2,-1,-1,-2,1,-1
1517204716233300,-1,0,-2,0,-1,0,0,0
1517204716233300,-1,0,-1,-2,-2,1,-2,0
1517204716244809,0,0,-1,-1,-1,-2,-5,-1
1517204716244809,0,-1,-1,-1,-2,-1,0,-2
1517204716259332,-1,-2,-1,1,0,-1,-2,-2
1517204716259332,0,-3,0,0,-1,-1,0,-1
1517204716267834,0,-1,-2,-2,-1,-2,2,-1
1517204716267834,-2,-2,0,-2,-1,0,-1,-2
1517204716269826,-2,-1,-2,-1,-1,1,-1,0
1517204716269826,-1,1,-2,-1,-2,0,-2,-1
1517204716290340,0,-1,-1,0,1,-1,-2,-3
1517204716290340,0,-2,0,0,-1,-2,0,-1
1517204716292342,-1,-2,-1,-3,-1,-1,0,-1
1517204716292342,0,-1,-2,-2,0,-1,2,0
1517204716304851,1,-2,-1,-2,0,-1,-1,0
1517204716304851,-1,-1,0,-2,-2,1,-1,0
1517204716311856,-2,0,0,-1,0,0,-1,0
1517204716311856,-2,-1,-1,-2,0,-2,-2,-2
1517204716327890,-2,-1,-2,0,0,-1,1,-1
1517204716327890,1,0,0,0,-2,-1,-2,-2
1517204716329878,-2,-1,-1,0,0,-2,-3,0
1517204716329878,-1,0,-1,0,0,-1,-1,0
1517204716350386,1,-2,-4,0,-2,-2,0,-1
1517204716350386,0,-1,-2,-1,-1,-1,-2,0
1517204716351884,-2,0,-2,-1,-2,0,0,-1
1517204716351884,0,-2,-1,0,0,-2,-2,-1
1517204716364893,-2,0,-1,-1,0,0,-3,-2
1517204716364893,-1,-2,0,-1,2,-2,-2,-2
1517204716372029,0,0,-2,-2,-1,0,0,-2
1517204716372029,-1,-1,-2,-2,-3,-2,-1,0
1517204716388040,0,-2,0,0,-1,-2,-1,-3
1517204716388040,-1,-1,0,0,-2,-2,-2,-2
1517204716389541,-2,-1,-2,0,-1,-1,-2,0
1517204716389541,-1,-2,-2,-2,1,2,-1,0
1517204716410567,-2,0,0,-2,-1,-2,-2,1
1517204716410567,0,-1,-2,-1,0,-1,-2,-2
1517204716412058,-1,0,0,-1,-2,-4,-1,1
1517204716412058,-1,-2,-2,-1,-3,-1,-2,-1
1517204716425067,-3,0,1,-2,0,-1,-2,0
1517204716425067,0,0,-1,-2,-2,-1,-3,-1
1517204716431572,0,-2,-1,-1,-2,-1,1,0
1517204716431572,0,-1,0,0,1,-2,-1,-1
1517204716448098,1,0,-1,-1,1,0,0,-1
1517204716448098,0,-1,0,-2,-4,-1,0,-1
1517204716449606,-1,-1,0,-2,0,-1,-1,-2
1517204716449606,-2,0,-1,-2,-3,-2,0,-3
1517204716470602,-1,-2,-1,-1,-2,-2,-2,-1
1517204716470602,-1,-1,-1,-1,-1,-2,0,0
1517204716472101,-2,-1,0,-2,-1,-1,-1,-2
1517204716472101,0,1,-1,-1,0,1,1,-2
1517204716484609,-2,-1,-1,0,-1,0,-1,-2
1517204716484609,0,-2,-2,-2,-1,-1,-3,0
1517204716491626,1,-1,-1,-1,-3,-2,-2,-1
1517204716491626,-2,-1,0,0,-2,-2,-1,-1
1517204716508137,0,-2,-2,-1,-2,-1,-1,1
1517204716508137,-3,-3,-2,0,0,-1,1,-1
1517204716509627,0,-1,-2,0,0,0,-2,-1
1517204716509627,-1,-1,-2,-2,-2,1,0,-1
1517204716530666,-3,-2,-2,0,0,0,0,0
1517204716530666,-3,2,-2,-2,-1,-1,-2,0
1517204716533145,0,-2,-1,-2,-2,-2,-1,-1
1517204716533145,-1,-1,-1,-1,0,-2,-3,0
1517204716544652,-1,0,-2,-2,-2,1,-3,-1
1517204716544652,0,0,0,0,-1,0,-1,0
1517204716551676,-2,0,-2,0,-2,-1,0,-2
1517204716551676,-1,0,-1,0,-1,-1,-3,-2
1517204716568169,-1,0,-2,1,-1,-2,1,-1
1517204716568169,-1,-1,-2,-2,2,1,-1,-2
1517204716569671,0,-1,-1,-2,0,-1,-3,-1
1517204716569671,-1,-1,-3,0,-1,-1,-1,-2
1517204716590684,-3,0,-1,-2,1,-2,0,0
1517204716590684,-1,0,-2,-1,-1,-2,0,-1
1517204716592187,-1,-2,-2,-1,0,2,-1,0
1517204716592187,-3,-2,-1,-1,0,-1,0,-3
1517204716604198,-1,0,0,-2,-1,0,-1,-1
1517204716604198,-2,-2,-1,-1,-1,-2,-2,-1
1517204716613201,-1,-2,-1,-3,-1,-1,1,0
1517204716613201,0,-1,-1,-2,0,-1,1,1
1517204716628211,0,-1,0,-3,0,-1,0,-3
1517204716628211,-1,1,-1,-1,0,-2,1,-1
1517204716629713,-1,-1,0,1,-1,1,-2,-3
1517204716629713,-2,-1,-1,0,-1,0,-2,0
1517204716650727,-2,-1,1,1,0,0,-2,1
1517204716650727,-1,1,1,2,-2,-1,-3,1
1517204716652229,-1,0,1,1,-2,-1,-4,-2
1517204716652229,0,-1,-2,-2,-2,-1,-2,-1
1517204716664779,0,-2,-1,-2,0,0,1,0
1517204716664779,0,-4,-2,0,-2,0,1,-1
1517204716673246,-1,-2,0,-1,-1,-2,0,-2
1517204716673246,-3,-1,1,-3,1,0,1,-2
1517204716688254,-1,-2,-2,-1,-1,-1,-1,-2
1517204716688254,-2,-1,0,-2,-1,0,-4,0
1517204716689755,-2,1,-2,-1,-1,-2,0,0
1517204716689755,-1,-1,-1,0,-2,0,0,1
1517204716710769,0,0,-2,-1,-3,0,0,-1
1517204716710769,-1,-3,-4,-1,0,-1,0,-1
1517204716712272,-1,-2,-2,-1,-3,0,1,-3
1517204716712272,-1,-2,-2,-2,0,-2,-1,-2
1517204716724291,0,-2,-1,-1,-2,1,2,-2
1517204716724291,-1,-1,-1,-3,-1,-2,-1,-1
1517204716733286,-1,0,-2,0,-2,-1,-2,1
1517204716733286,-1,0,-1,-1,1,-3,-1,0
1517204716747815,-1,-1,-1,-1,0,-1,-4,-2
1517204716747815,-1,-1,1,0,0,-1,0,-1
1517204716749797,-2,-1,-2,-1,1,-3,-1,0
1517204716749797,0,1,-2,0,-1,-2,0,-2
1517204716770314,0,-2,-1,0,-1,-3,-1,0
1517204716770314,-2,0,0,-2,-1,0,1,-2
1517204716772313,0,-2,-2,-3,-1,-1,0,0
1517204716772313,-2,-2,0,-2,-1,-1,-2,-1
1517204716784321,-2,1,0,-2,-2,-2,-1,-1
1517204716784321,-2,-1,-2,1,-1,-1,-1,0
1517204716793342,-2,-1,-2,0,-1,-1,-1,-1
1517204716793342,-1,-2,-3,-2,-1,1,-1,-1
1517204716807900,-2,0,-2,-2,0,-1,-1,-3
1517204716807900,0,-1,-1,-2,-2,-2,-2,-1
1517204716809921,-1,-1,-1,-1,0,-2,0,-1
1517204716809921,-2,-1,-1,-1,-2,0,0,-1
1517204716830415,-2,-1,-1,0,-1,0,-2,-1
1517204716830415,-1,-1,-2,-3,0,2,-2,-1
1517204716832917,0,-2,0,0,-1,-1,-1,-3
1517204716832917,-2,-1,-2,-2,-2,-1,-2,-1
1517204716844424,0,0,-2,-1,0,-1,0,1
1517204716844424,0,-1,-2,0,-3,-2,-1,1
1517204716860437,-1,-2,-1,-2,-2,0,1,1
1517204716860437,0,-1,0,-1,-1,0,-2,0
1517204716867944,-1,0,-1,-1,-1,-1,-4,-1
1517204716867944,-1,0,0,-2,0,-2,-1,-1
1517204716869443,-2,0,-1,-1,-1,-1,0,-1
1517204716869443,-1,-1,-1,-2,-2,-1,0,-1
1517204716890457,-1,-2,0,0,-1,-1,0,-1
1517204716890457,-1,0,-2,0,-2,0,-1,-1
1517204716892459,-1,-1,-2,-2,-1,-1,0,-1
1517204716892459,-1,-1,-1,-2,1,0,0,-2
1517204716903989,-1,-2,-1,0,1,-1,0,-2
1517204716903989,-2,-2,-1,-1,0,-2,-1,-2
1517204716912974,-1,-1,-2,-2,0,0,-2,-2
1517204716912974,0,-1,0,-1,-2,-1,-1,-3
1517204716928030,-2,0,0,0,-3,-2,-3,1
1517204716928030,0,-2,-1,-2,0,-1,-2,-2
1517204716929532,1,-2,0,0,-1,-1,-3,0
1517204716929532,-1,-2,-1,0,-2,-2,-2,-1
1517204716950561,-1,-3,-2,-2,-1,1,0,-2
1517204716950561,-2,2,0,0,-1,0,-1,1
1517204716952071,-2,0,-2,-1,-2,-2,0,-1
1517204716952071,0,-1,-1,-1,0,-2,1,-2
1517204716964059,1,0,-1,-1,-1,-2,-3,-1
1517204716964059,-1,0,0,-1,-1,1,-1,2
1517204716973063,-2,-2,-1,-1,-1,-2,-1,-1
1517204716973063,-2,-1,-1,-1,0,-2,-1,0
1517204716988073,-1,0,-2,-2,-1,-1,-1,-1
1517204716988073,-2,-1,0,-1,0,-2,0,-2
1517204716989575,-2,0,0,0,-2,-1,0,0
1517204716989575,-2,-1,-1,0,-1,0,-1,0
1517204717018104,-1,-1,-1,-1,-1,1,-1,0
1517204717018104,0,-1,-1,-1,-1,-1,-2,-2
1517204717024111,-2,-2,-3,-2,0,0,-1,-3
1517204717024111,-2,-2,-2,0,0,-1,-1,0
1517204717033118,0,-2,-2,-1,-2,-2,0,0
1517204717033118,-3,0,-1,0,-1,0,-2,-2
1517204717035106,0,0,0,0,0,-1,0,-2
1517204717035106,-1,-1,0,-1,-2,-2,-1,-1
1517204717047616,0,-1,-2,-2,0,0,-1,-1
1517204717047616,0,-2,-1,-2,-2,-1,-1,0
1517204717054119,-2,-3,-1,-1,-1,-1,-1,-1
1517204717054119,-1,0,-3,-1,-1,1,-1,1
1517204717070661,-2,0,1,-2,-4,-1,0,-1
1517204717070661,-1,0,-1,-1,0,-1,-1,-2
1517204717072132,-1,0,-1,-1,0,0,-1,-1
1517204717072132,-2,-1,0,-1,-1,-1,-2,-2
1517204717093147,0,-1,-1,-1,-1,-1,-1,1
1517204717093147,0,-2,-2,-1,-3,-1,-3,-2
1517204717094648,-2,-1,-1,0,-1,-1,-2,1
1517204717094648,0,1,-1,-2,-1,-1,-1,-1
1517204717108157,0,-3,0,-1,0,-1,-2,-2
1517204717108157,0,-1,0,-3,0,-1,-1,0
1517204717109659,0,-1,-2,-1,-1,-1,-2,0
1517204717109659,1,-1,-1,-1,-1,0,-2,-2
1517204717130683,0,-1,-1,-1,-2,-1,0,-3
1517204717130683,-1,-1,-1,-2,1,0,0,-1
1517204717133185,0,-2,-1,-1,-2,1,0,-1
1517204717133185,-2,-2,0,1,-1,-2,-1,0
1517204717152211,-2,2,0,0,-1,-1,-2,-2
1517204717152211,-1,-3,-2,-1,-2,-1,-3,0
1517204717153210,-2,-1,-2,-1,0,-3,-2,-2
1517204717153210,-2,-3,0,0,-1,0,0,-2
1517204717168701,-2,0,1,-1,-1,0,-2,-1
1517204717168701,0,1,0,0,-2,0,0,-1
1517204717169724,-1,-2,-1,0,-2,0,1,-1
1517204717169724,-1,0,-1,0,-1,0,-1,0
1517204717189715,-1,0,0,-2,0,-2,-1,-2
1517204717189715,-2,-1,-1,-2,-1,-1,-1,-2
1517204717190728,1,-1,-1,-1,-1,-1,-1,-2
1517204717190728,-1,-1,-3,-1,-1,-2,1,-1
1517204717212231,-2,-2,-1,-1,0,1,0,-1
1517204717212231,-1,-1,-2,0,-2,-2,-1,-1
1517204717219789,0,-2,1,-1,0,-1,-3,0
1517204717219789,-1,-1,-1,-1,0,1,-2,1
1517204717227292,-2,-1,-1,0,1,0,-2,0
1517204717227292,-1,1,-2,0,0,-2,-1,0
1517204717228290,-2,-2,0,-2,-2,-1,-1,-1
1517204717228290,-1,0,-1,-2,-2,-2,0,-2
1517204717249832,0,-3,-1,-1,-1,0,-1,0
1517204717249832,-2,0,-2,-1,-1,0,0,-3
1517204717250817,-1,-2,-2,-2,-1,-1,-2,-2
1517204717250817,1,-1,-2,0,0,1,-3,0
1517204717272824,-1,-1,-2,0,-1,-2,-2,0
1517204717272824,0,-2,-2,0,-1,-1,-1,-1
1517204717273323,-2,0,-2,-2,0,-2,-1,0
1517204717273323,-1,-1,-1,-1,-2,-2,0,0
1517204717287341,0,0,-1,-1,-1,-1,-1,-2
1517204717287341,-2,-2,1,0,-2,-1,-1,0
1517204717302364,-1,-2,0,-2,-1,0,-1,0
1517204717302364,0,-2,0,-1,0,0,-3,-1
1517204717309850,-2,-1,-1,-1,-2,-3,-1,0
1517204717309850,-1,0,-1,-2,-1,-1,-1,-2
1517204717310349,-2,2,0,-2,-1,0,1,-3
1517204717310349,-1,0,-2,0,-1,-3,-1,0
1517204717332365,0,0,0,0,-2,-1,-1,-1
1517204717332365,0,-2,-1,-2,-3,-1,-2,-2
1517204717333365,-2,-2,-2,-1,0,0,0,-2
1517204717333365,-1,-1,-1,-2,0,0,-1,0
1517204717346373,-1,-1,-1,-1,-1,-1,-3,1
1517204717346373,0,-1,-1,0,0,-3,-1,0
1517204717354879,1,0,-2,0,-1,-2,-1,0
1517204717354879,0,-1,-3,-2,-2,-1,-1,-2
1517204717369893,-1,-1,0,-2,0,-1,-1,0
1517204717369893,-2,-1,-1,0,-2,-1,1,-1
1517204717370391,0,1,-1,-2,0,-2,0,-1
1517204717370391,-1,-3,-2,1,-1,-3,-2,-2
1517204717392452,0,0,-2,-2,0,-1,-1,-1
1517204717392452,-1,-3,0,-1,1,0,0,0
1517204717392944,-1,-3,0,-2,0,-2,-1,-1
1517204717392944,0,-2,0,-1,-2,-1,0,-1
1517204717407454,-1,0,-2,-2,-2,-1,-1,0
1517204717407454,-5,-2,-1,-1,-1,-2,-1,-3
1517204717407954,-2,-1,-2,-1,-1,-1,-4,-1
1517204717407954,-2,-1,-2,-1,1,-1,-2,-3
1517204717429969,-2,0,-2,-2,0,-1,-1,-2
1517204717429969,-1,0,-1,-3,-1,0,0,0
1517204717431475,-1,1,-1,-1,0,0,1,-3
1517204717431475,-3,0,-2,-2,-1,0,-1,0
1517204717452507,-1,-1,-2,2,-1,-1,-1,-1
1517204717452507,-1,0,0,-2,-1,-4,-1,1
1517204717452995,-1,-3,-1,-2,0,-2,-1,-1
1517204717452995,1,-1,-1,-2,0,-2,1,-2
1517204717467499,-1,-1,-1,0,0,-2,0,-1
1517204717467499,0,-2,1,-1,-2,-2,-2,0
1517204717467996,-2,0,0,0,-1,-1,0,-2
1517204717467996,-3,0,-2,-1,-2,-2,-1,0
1517204717490012,-1,-1,1,-1,-2,0,-1,-1
1517204717490012,-1,-2,-3,0,1,-1,-2,-3
1517204717490512,-1,-3,0,-1,-2,1,-2,0
1517204717490512,-2,-1,0,-1,-1,0,-3,0
1517204717512561,-1,-2,-1,-1,-2,-1,-2,-2
1517204717512561,-1,-1,-2,0,-1,-1,-2,1
1517204717513039,-1,0,0,0,-2,-1,-1,1
1517204717513039,-1,0,1,-2,-1,0,-1,-1
1517204717527051,-2,0,-1,0,1,0,-1,1
1517204717527051,-1,-1,-1,0,-1,1,-1,-2
1517204717528048,0,-1,-3,-1,0,-2,0,0
1517204717528048,-1,-1,-1,0,-2,-1,-1,-2
1517204717550074,-1,-1,-2,-3,-1,-1,0,0
1517204717550074,-1,-1,-2,-2,-1,-1,-1,-1
1517204717550565,0,0,0,0,-1,0,-1,-1
1517204717550565,0,-2,-1,-1,0,0,-2,-2
1517204717572582,0,-1,0,-1,-1,-2,-3,-1
1517204717572582,2,1,-2,0,0,-1,-1,-2
1517204717573083,-1,-1,-3,-2,-1,-2,-2,0
1517204717573083,-1,0,-1,-1,-1,-1,-1,-1
1517204717587607,-1,-1,-2,-2,-1,-1,-1,-1
1517204717587607,-1,0,-2,-1,-1,-2,0,-1
1517204717588091,-1,0,1,-1,-1,0,-1,0
1517204717588091,-1,-1,-3,1,-2,-2,-1,0
1517204717609606,-1,-2,0,-1,-2,-1,-1,-3
1517204717609606,0,-1,-2,-2,-1,-2,-1,-1
1517204717610606,-1,-1,-2,-1,-2,-1,0,-3
1517204717610606,-2,0,-2,-1,-1,-2,1,-1
1517204717632131,0,0,-1,-1,0,-1,0,0
1517204717632131,-2,-2,-2,-2,0,0,-1,-1
1517204717633133,0,-2,-2,-2,-1,-1,-2,-1
1517204717633133,-2,-1,-1,-2,0,0,-1,-1
1517204717646635,-1,-1,-1,-2,0,-1,-1,0
1517204717646635,0,-1,1,0,1,-1,0,-1
1517204717654638,-2,0,-3,0,-2,-2,-3,-1
1517204717654638,0,-1,-1,-1,0,-1,-1,0
1517204717669651,-1,-1,-2,1,-1,-1,0,-1
1517204717669651,-2,0,1,-2,-3,-1,-1,-3
1517204717670649,-2,-1,0,0,-2,-1,-2,-3
1517204717670649,-1,0,-2,-2,-1,-2,-2,-3
1517204717692174,-2,-2,-2,-1,-2,-2,-1,-1
1517204717692174,-2,-1,-1,-1,0,0,-1,0
1517204717693174,-1,-1,0,0,-1,-1,0,0
1517204717693174,-1,-1,-1,-1,-1,-1,1,-1
1517204717706674,-1,0,0,-1,-1,-1,-2,-1
1517204717706674,0,0,1,0,-1,-1,-2,-1
1517204717714702,1,-3,0,-1,1,0,0,-1
1517204717714702,-1,0,-1,-1,0,-2,0,0
1517204717729783,-1,-2,-2,-1,-2,-2,-1,-2
1517204717729783,-2,-1,-1,-3,-2,-1,1,-2
1517204717730759,-2,-1,-3,-2,-1,-1,0,-1
1517204717730759,1,-2,0,-1,-1,0,-2,-2
1517204717752279,-1,-1,0,-1,-1,-3,-2,-1
1517204717752279,2,-2,-2,1,-1,1,-1,-1
1517204717753265,-2,-1,-1,-2,0,-2,-2,-3
1517204717753265,0,-1,-3,-2,-1,-3,0,0
1517204717766775,-2,1,-1,-1,0,-1,-2,0
1517204717766775,-1,-1,0,-2,-1,-2,-1,0
1517204717774809,0,0,-1,0,-2,-1,-1,0
1517204717774809,-1,-2,-1,1,-2,0,-3,-2
1517204717789831,-1,-2,-2,-1,-3,0,0,-1
1517204717789831,-1,0,-1,-1,-2,-2,0,0
1517204717790821,0,0,-1,-3,-1,1,-1,-2
1517204717790821,0,-1,0,-2,-1,-1,-2,0
1517204717812339,0,-2,0,-1,-1,0,-3,-2
1517204717812339,-2,-2,-1,-1,1,-3,0,-1
1517204717812837,-2,-1,-1,-2,0,-2,0,-1
1517204717812837,0,-1,-1,-1,-2,-1,-2,-2
1517204717826846,-1,-1,-2,0,1,-1,-1,-1
1517204717826846,0,-1,-1,-1,-1,0,-1,0
1517204717834852,0,-1,-1,-2,0,-2,-1,0
1517204717834852,-1,-1,0,-1,-1,0,-2,0
1517204717849885,0,0,-2,1,1,-2,0,-1
1517204717849885,-2,-1,-1,0,-1,-1,0,-2
1517204717850364,-1,-2,1,-2,-1,-2,-2,-1
1517204717850364,1,-1,0,-1,-2,-2,0,-2
1517204717872382,-2,0,0,-2,-2,0,-1,0
1517204717872382,-1,-1,0,-1,-1,0,-1,1
1517204717872881,0,-2,-1,0,-2,0,-1,0
1517204717872881,-1,-1,-2,-1,-1,-1,-3,-1
1517204717886914,-1,-1,-1,0,-1,1,0,1
1517204717886914,0,0,-1,-2,0,1,-1,-2
1517204717894894,0,0,0,-2,1,-1,-1,0
1517204717894894,-1,-3,0,0,-2,0,1,1
1517204717909905,0,-1,-2,-2,-1,0,0,-3
1517204717909905,-1,-2,-1,-1,-1,-1,-1,-3
1517204717910407,0,-1,-1,0,-1,-2,0,-2
1517204717910407,-2,-1,-1,-1,0,-1,0,1
1517204717932921,-2,-2,-1,-1,-1,-2,-1,-1
1517204717932921,-2,-3,1,0,-1,-1,-3,1
1517204717933922,-1,-1,-1,0,-3,-2,0,-1
1517204717933922,-1,-2,1,-1,-1,-1,0,-1
1517204717955938,0,-2,1,-1,1,-1,0,0
1517204717955938,-2,1,-4,-4,-2,0,1,-3
1517204717956438,-1,0,-2,-1,0,-1,-1,-2
1517204717956438,-1,0,-2,-2,-2,0,-3,-1
1517204717969966,-1,-1,-1,-1,-1,-2,-1,0
1517204717969966,0,-1,-1,-1,-2,-1,-2,0
1517204717970458,0,-1,-2,0,0,-1,-2,-1
1517204717970458,-2,0,-1,-2,1,0,-1,-3
1517204717992479,-1,-1,-2,0,-2,-1,-1,0
1517204717992479,1,2,-1,1,-2,-1,-3,0
1517204717992979,-1,-1,-1,-2,-1,-1,0,0
1517204717992979,-1,-1,0,0,-1,-2,-2,-3
1517204718015480,-2,0,-1,-4,-1,-1,-2,-1
1517204718015480,-2,-2,0,-1,0,-1,0,-2
1517204718016496,0,-2,-2,0,0,-1,-1,-1
1517204718016496,0,-2,-3,-1,-1,-3,-1,-1
1517204718029990,-1,1,1,-1,-1,0,-3,-2
1517204718029990,0,-1,-2,-1,-1,-3,-1,0
1517204718031491,-3,-1,0,-1,-1,-1,-1,-1
1517204718031491,-1,0,-2,-2,2,0,2,-1
1517204718052009,0,-3,-1,-2,1,1,-1,0
1517204718052009,-1,-1,-2,-3,0,0,-1,0
1517204718053006,0,-1,-1,-1,-2,-1,0,1
1517204718053006,-3,1,1,-1,-1,-3,-3,0
1517204718075548,1,-1,-2,-1,-1,1,1,1
1517204718075548,0,-1,1,0,-1,-1,0,-3
1517204718076548,0,-2,0,-1,-1,-2,-1,-1
1517204718076548,0,-2,-1,0,-2,0,-2,0
1517204718090058,-1,0,-2,-2,-1,-4,-2,-2
1517204718090058,0,-3,-1,-1,0,-1,-1,0
1517204718090560,-2,-2,-1,-1,0,1,1,-2
1517204718090560,-1,-2,-2,-2,-2,-2,0,-1
1517204718112573,0,-1,1,1,0,-2,-2,1
1517204718112573,-2,-1,-3,-1,0,0,0,-1
1517204718113094,-1,0,-1,0,-2,-3,-2,-1
1517204718113094,-1,-2,-1,-1,0,-1,-2,0
1517204718135625,-1,-1,-1,-2,-1,-1,-1,-2
1517204718135625,-1,0,-1,1,-3,-2,-2,-2
1517204718136592,-1,0,-2,-3,-2,0,-2,-2
1517204718136592,-2,0,-1,-1,-2,-2,1,-2
1517204718150100,-1,1,-1,-1,-1,-2,-1,-2
1517204718150100,0,-3,-1,-1,-1,-2,0,-1
1517204718150601,-3,-1,-1,1,-1,0,0,0
1517204718150601,-1,-3,-2,0,0,0,-1,-2
1517204718172617,0,-2,-2,-1,-3,-2,0,-2
1517204718172617,-1,-1,-2,-2,-1,-2,-1,-1
1517204718173119,0,-2,-2,-1,-2,-2,-2,-1
1517204718173119,1,0,-2,-1,0,-1,0,-2
1517204718195635,-2,-1,-1,-1,0,1,-1,-1
1517204718195635,-2,0,-1,-2,-2,0,0,0
1517204718196133,-1,-2,-3,-1,1,-1,-1,-1
1517204718196133,-2,-2,1,-1,-1,-3,-2,-1
1517204718209642,-1,0,-3,-2,-2,-2,-2,-1
1517204718209642,-1,-1,0,-1,0,0,-1,1
1517204718210643,-1,-1,-1,-1,0,1,0,-1
1517204718210643,-1,-2,0,-1,-1,0,-1,-1
1517204718232659,-1,-3,1,-2,-2,0,1,0
1517204718232659,-3,-1,-2,-1,0,0,-1,-1
1517204718233660,0,-1,-1,-1,-3,-2,0,-2
1517204718233660,0,-1,-1,0,-1,0,-3,0
1517204718255675,-2,-1,-2,0,0,-2,-1,-2
1517204718255675,-1,-1,0,0,0,-2,0,-1
1517204718256678,-1,-1,1,0,-1,-1,0,-2
1517204718256678,-3,-2,-1,-1,-1,-1,-1,0
1517204718269688,0,-1,-2,-1,-2,-2,-1,-2
1517204718269688,1,-1,-1,-2,-1,-2,-1,-1
1517204718270716,-1,0,-2,0,-2,0,-1,0
1517204718270716,-1,0,0,-2,-1,-2,1,0
1517204718292234,-2,1,0,-1,1,-1,0,-1
1517204718292234,0,0,-1,-1,-1,-1,-1,-1
1517204718293235,1,-2,-1,-4,-2,0,-2,0
1517204718293235,-1,-1,-1,0,-2,-1,-1,-1
1517204718315243,-2,-3,0,0,0,-2,0,-1
1517204718315243,-1,-1,-1,0,-1,-1,1,-3
1517204718316241,-2,-1,1,-2,0,-3,-2,-2
1517204718316241,-1,-1,-4,-1,-1,-1,0,-1
1517204718329804,0,1,-1,-1,-2,-1,-1,-1
1517204718329804,-1,-1,-1,-1,-3,0,-2,0
1517204718330751,-2,-1,-1,-3,-1,0,-1,1
1517204718330751,0,0,0,0,-2,1,0,-2
1517204718352301,-1,0,-2,1,0,0,-2,0
1517204718352301,-2,-3,-2,-1,1,0,0,0
1517204718353298,-1,-1,-1,-2,-1,-1,-1,-1
1517204718353298,0,0,0,-1,-1,-2,-2,0
1517204718375315,0,-2,-3,-1,-2,-1,-1,-1
1517204718375315,-1,-1,-1,-1,-2,-1,0,-1
1517204718376314,-1,0,-2,0,-2,-3,0,-2
1517204718376314,-3,0,-3,0,-2,0,-2,-1
1517204718389824,0,-2,0,0,-1,-1,-2,-1
1517204718389824,1,-1,-1,-1,-1,0,-2,-1
1517204718390824,-1,-2,-1,-2,-1,-2,1,-2
1517204718390824,1,0,-3,-2,0,0,-1,-2
1517204718412283,-1,-2,-2,-4,-1,0,1,0
1517204718412283,-1,1,-3,-1,-1,0,-1,0
1517204718413272,-1,0,-1,-1,-2,-1,0,-1
1517204718413272,-1,-2,-2,-2,-1,-3,-1,0
1517204718435285,0,-2,-1,-1,0,0,0,-2
1517204718435285,-2,-2,0,-1,-1,-1,-2,0
1517204718436287,0,-1,-2,0,-2,-1,-2,0
1517204718436287,-1,-2,-2,-1,0,-1,-2,-2
1517204718449785,-1,-1,0,-1,-1,1,-2,0
1517204718449785,-1,0,-3,0,-1,-1,1,-3
1517204718450786,-1,-1,0,0,1,-1,-2,-1
1517204718450786,0,0,-1,-2,-2,-1,-1,1
1517204718472801,-2,-1,-2,0,-2,-3,0,-3
1517204718472801,0,0,-1,-1,-1,-2,-1,-2
1517204718473301,-1,0,0,0,-2,-1,0,0
1517204718473301,0,-2,-1,1,-1,0,0,-1
1517204718495318,2,0,0,-1,-1,0,-1,0
1517204718495318,-2,-3,-1,-2,-1,-2,-1,0
1517204718496318,0,-1,-3,-2,-2,-2,-2,1
1517204718496318,-1,-1,-1,-2,-1,-1,-1,-1
1517204718509828,-1,-2,-1,0,-1,-2,-1,1
1517204718509828,-1,-3,-2,-3,0,-1,0,-2
1517204718510829,-1,-2,-1,-1,-2,-1,-1,-2
1517204718510829,-2,-1,-1,-2,0,0,-3,1
1517204718532346,0,1,-1,-1,-1,0,-1,-2
1517204718532346,0,1,0,-1,-1,-1,0,-2
1517204718533848,-2,0,0,-1,1,-1,-1,-1
1517204718533848,-1,-2,-1,-1,-1,0,0,-1
1517204718555861,-2,-1,-1,-1,-2,-1,0,0
1517204718555861,-2,-1,-2,-1,0,-1,1,-1
1517204718556362,-2,-2,-1,-3,0,0,1,-2
1517204718556362,0,-2,-2,-1,0,-1,-1,-1
1517204718569369,0,0,-1,0,-1,0,-3,-2
1517204718569369,-1,0,-2,-1,-1,1,0,0
1517204718577385,0,-2,-1,-1,-1,1,-1,-1
1517204718577385,-1,0,-2,0,-1,0,-1,-1
1517204718592386,-1,-2,-2,-1,0,-2,-1,-1
1517204718592386,0,-2,0,1,-2,-1,0,1
1517204718592887,-1,-2,-1,-1,0,0,-1,0
1517204718592887,-2,-2,1,-1,1,-2,-1,-1
1517204718615423,0,-1,0,-2,-1,0,-1,0
1517204718615423,-2,0,-2,-2,0,-1,1,-1
1517204718616411,1,-2,-2,0,-2,0,-2,-1
1517204718616411,0,-1,-1,-1,-1,-2,0,-1
1517204718628914,0,-2,-2,-1,-2,-2,-1,-1
1517204718628914,0,-1,-1,-1,0,-2,-2,-2
1517204718637417,-2,0,0,1,-1,-2,-1,0
1517204718637417,-1,-2,-1,0,-1,-1,-2,-1
1517204718652431,-2,-1,0,-1,-1,0,-1,-1
1517204718652431,-1,-1,-2,-3,-1,1,-1,-1
1517204718652928,-2,-1,0,0,-1,-1,1,-2
1517204718652928,-1,-1,-1,1,-2,0,-2,-1
1517204718675455,-3,-2,0,0,-1,-3,-1,0
1517204718675455,0,-1,1,-1,0,-3,-3,0
1517204718676444,-1,-2,-2,-2,-1,-1,-2,0
1517204718676444,-3,0,0,-1,-1,-1,-1,-1
1517204718689454,-2,-1,-2,0,-1,0,-1,-1
1517204718689454,-2,1,0,0,-2,-1,-4,0
1517204718697461,-1,-2,-1,-3,-1,0,-1,0
1517204718697461,1,0,0,-1,-2,-1,1,-2
1517204718712470,-1,-2,-1,-2,0,-2,-1,-1
1517204718712470,-2,-3,-2,-1,-1,-1,-1,0
1517204718712971,0,-1,0,0,-2,-2,-1,0
1517204718712971,0,-1,-2,-1,-2,-2,0,-1
1517204718735533,0,1,-1,-2,-1,0,2,-1
1517204718735533,-2,-2,-1,-2,-1,-2,-3,-1
1517204718736033,-2,0,-4,-1,-3,-1,-2,0
1517204718736033,-1,-2,0,-1,-1,-1,-1,-1
1517204718749079,-1,0,-1,1,-1,-2,-3,1
1517204718749079,0,-2,0,-1,-2,-1,-1,0
1517204718757560,-1,-1,0,0,0,-1,-1,-2
1517204718757560,-2,-1,0,-1,-1,-1,-1,-1
1517204718772570,-2,-4,-2,-1,-1,-1,1,0
1517204718772570,-2,0,-1,0,-2,-1,0,-2
1517204718773060,-2,-1,-1,-1,0,0,0,-1
1517204718773060,-1,-1,-1,-2,0,0,-2,0
1517204718796090,-2,-1,-1,-1,-1,-2,-3,-1
1517204718796090,-1,-1,-3,-2,0,-1,0,-2
1517204718796578,-1,-2,-1,-1,-1,-1,-1,-2
1517204718796578,0,-2,-1,-1,-1,-1,0,-2
1517204718809085,-1,-2,0,-1,-3,0,1,0
1517204718809085,-1,0,0,-2,-1,1,0,0
1517204718817591,0,-1,-1,-1,-1,-1,-2,0
1517204718817591,-1,0,-2,-1,-1,0,-4,-1
1517204718832603,0,-1,-2,-1,-3,-1,-2,-1
1517204718832603,-1,-1,-1,0,-1,-1,0,-3
1517204718833603,0,-1,0,-1,1,-3,1,-1
1517204718833603,-2,-1,-2,-1,0,-1,-1,0
1517204718855619,-1,0,1,-1,0,-2,-2,-1
1517204718855619,-1,-1,-1,-2,-1,0,0,0
1517204718856620,-1,-1,-1,-2,0,-1,-1,0
1517204718856620,0,-3,0,0,-2,-1,-1,0
1517204718869142,-1,-1,-3,-1,-1,0,0,-2
1517204718869142,-1,-1,-1,-1,-3,-3,-2,-2
1517204718884648,-2,1,-4,2,-1,2,-2,-1
1517204718884648,0,0,-2,0,0,-1,-2,-1
1517204718892154,-2,0,-1,-3,0,0,-1,-2
1517204718892154,-1,-1,0,-1,-2,0,-3,0
1517204718893155,-1,-1,0,-1,-1,-2,0,-1
1517204718893155,-1,-1,-1,-1,-1,-2,0,-1
1517204718915701,-2,0,-3,-2,-1,0,-2,0
1517204718915701,-1,0,-2,-1,1,-1,0,-1
1517204718916192,-1,-1,-1,-1,-2,-1,2,1
1517204718916192,-1,-1,1,0,-1,0,1,1
1517204718938221,-1,-2,-1,-1,-1,-1,0,-2
1517204718938221,-3,-4,-1,-1,-1,-1,0,-1
1517204718938706,1,-1,-2,-3,0,-3,-2,-2
1517204718938706,0,1,0,0,-2,-1,0,1
1517204718953216,1,1,-1,1,0,-1,-1,-1
1517204718953216,1,-1,-3,-1,-3,0,0,-2
1517204718953718,-1,-1,1,0,-1,-2,-3,-2
1517204718953718,0,-1,-2,-1,-1,-2,-2,-1
1517204718975733,-1,0,-2,-1,-2,0,0,0
1517204718975733,-1,-1,-1,1,-2,0,-3,0
1517204718976233,0,-2,-1,0,-1,0,-2,0
1517204718976233,-1,1,-2,-2,-2,1,-1,0
1517204718997748,-1,0,0,-1,-1,-1,0,-3
1517204718997748,-1,0,-1,-1,1,-3,-1,-1
1517204718998763,-3,0,-1,0,-2,-1,0,-1
1517204718998763,1,-1,-1,0,1,-2,-2,-1
1517204719012269,0,-2,-1,-2,-2,-2,-1,-1
1517204719012269,-1,-2,1,0,-1,-1,0,-2
1517204719013258,-2,0,0,-1,-2,0,-2,-1
1517204719013258,-2,-1,-1,-1,-1,-1,-3,-3
1517204719035274,-1,-1,-2,-2,-1,-1,-1,0
1517204719035274,-1,-2,-1,-1,-1,-1,-2,0
1517204719036276,0,-3,-1,0,-3,-1,-1,0
1517204719036276,-1,-2,0,-1,-1,-3,-1,-2
1517204719057790,0,-1,0,1,0,-1,-1,-2
1517204719057790,-2,-2,-2,-1,-1,0,0,-1
1517204719058792,-2,0,-1,0,-1,0,-1,-3
1517204719058792,-3,0,-2,0,-1,-1,-1,-2
1517204719072301,0,-1,0,-2,-1,-2,-1,1
1517204719072301,-1,2,-1,-2,0,0,1,-1
1517204719073302,-3,-2,-3,0,-2,0,-2,0
1517204719073302,-2,-2,-1,-1,-1,2,0,-1
1517204719095331,-2,1,-1,0,-2,-1,-1,-1
1517204719095331,-1,0,-3,1,-2,-2,-1,-1
1517204719096318,-1,-2,-2,-2,-1,0,-1,-1
1517204719096318,0,-1,0,-1,-1,-3,-1,-2
1517204719117947,-1,-2,-1,0,0,0,-2,-1
1517204719117947,1,-1,0,-3,-1,-2,-1,-1
1517204719118449,-2,-1,-1,-1,0,-3,-1,-2
1517204719118449,-2,-1,-1,0,-1,1,-1,-1
1517204719131971,-1,-1,-1,-1,-1,-1,-1,0
1517204719131971,1,1,-1,-1,-3,-2,-2,0
1517204719132957,1,-1,-2,-1,1,-2,-2,-1
1517204719132957,-1,-3,-1,-1,-1,-2,0,0
1517204719162979,-1,-1,-3,-3,-1,-2,-1,-2
1517204719162979,-1,0,-1,-1,-1,1,-2,-1
1517204719163990,-2,-1,-2,-2,-2,0,-2,-1
1517204719163990,-3,1,-1,-2,0,1,0,2
1517204719177992,-2,-1,-1,-1,0,0,-1,0
1517204719177992,-1,-2,0,0,-1,-1,1,0
1517204719178491,-1,-1,0,0,-1,-1,0,-2
1517204719178491,0,-1,-1,-1,-1,-2,-1,-3
1517204719192042,-3,-3,-1,-1,-1,-1,0,-2
1517204719192042,-1,-1,-2,0,-1,0,-2,0
1517204719193029,1,0,1,-1,1,-1,-1,0
1517204719193029,-1,-2,-1,0,-3,0,-1,0
1517204719215582,-1,0,-1,-2,-2,-2,-4,-2
1517204719215582,-1,-1,-2,-1,0,-1,-1,-2
1517204719217046,-2,-2,-2,-3,-1,0,-3,-1
1517204719217046,-1,-1,-1,0,0,-2,-2,-2
1517204719238083,2,0,-1,0,-1,-1,-1,-1
1517204719238083,-3,-2,-2,-2,0,0,-2,0
1517204719239562,-2,1,0,-1,-1,-1,-1,-2
1517204719239562,-1,-1,0,-2,1,0,-1,-1
1517204719251579,-1,-2,0,0,-1,-1,-2,-1
1517204719251579,0,-1,0,0,-2,-1,-1,-1
1517204719260576,-1,-1,-1,-1,-1,1,1,0
1517204719260576,-1,0,-2,-1,-2,-1,-1,-1
1517204719275603,-1,1,1,0,0,-2,0,-2
1517204719275603,-2,-2,-1,-3,0,-2,2,-2
1517204719277102,-1,-2,-1,-1,-1,0,-1,-1
1517204719277102,-1,-2,0,-1,-2,1,-2,0
1517204719298114,-1,-2,-2,-2,-2,-2,-1,1
1517204719298114,0,-2,0,1,-1,0,-1,-2
1517204719299605,-1,0,-1,0,-1,-3,-1,-2
1517204719299605,-1,-2,-3,-1,-2,-2,0,0
1517204719311612,-1,0,-3,-1,0,-2,-3,0
1517204719311612,-2,1,-1,-2,-2,-1,-1,0
1517204719320618,-3,-2,0,0,1,-1,0,-1
1517204719320618,-1,-1,-1,0,0,-2,-2,-2
1517204719335628,-2,-1,0,1,-1,-1,0,-1
1517204719335628,1,0,-2,-1,-1,-3,0,-1
1517204719337156,-2,-1,0,-1,-1,0,-1,0
1517204719337156,-1,-1,-1,-1,-1,-1,-1,0
1517204719358145,0,-2,-1,0,-2,2,1,-3
1517204719358145,-2,-1,-2,-1,-1,-2,-2,0
1517204719359658,0,0,-2,-1,-1,0,-1,-2
1517204719359658,-1,-1,-2,-2,1,-1,-1,1
1517204719371655,-1,0,-1,0,-2,0,0,-1
1517204719371655,-2,0,-1,0,-2,-1,-1,0
1517204719380662,2,-2,0,-2,0,-1,-2,0
1517204719380662,-1,0,-3,-2,0,-1,-1,-2
1517204719403187,-1,-2,-2,-1,-1,1,-2,-2
1517204719403187,-1,-2,-2,-1,0,0,1,-1
1517204719404699,0,-2,0,-1,-2,-2,-1,-2
1517204719404699,1,0,1,0,-2,-3,0,1
1517204719418188,0,-1,-1,0,-1,-3,-1,-1
1517204719418188,-1,0,0,0,0,-2,0,-2
1517204719419689,-1,-2,-1,-1,-1,0,0,0
1517204719419689,1,-1,-1,-3,-2,0,-1,-1
1517204719440718,-1,-2,0,-4,-1,-2,-3,-1
1517204719440718,0,-2,-2,-2,-1,-2,-2,-3
1517204719442219,-1,-1,-1,2,-1,-1,0,0
1517204719442219,-3,-1,0,0,0,-2,0,-3
1517204719455725,0,0,-3,0,1,-2,-1,-2
1517204719455725,-1,-3,0,-3,-1,-1,-2,-2
1517204719457215,-1,0,0,-2,-1,-3,-1,-1
1517204719457215,-2,-1,-2,-1,-1,0,-1,-2
1517204719478231,-3,1,-1,-2,-1,1,-1,0
1517204719478231,-3,-3,0,-1,-3,0,-2,1
1517204719484236,-1,-1,-2,-1,-2,-1,-2,-1
1517204719484236,-1,-1,-1,-1,-1,0,-1,-1
1517204719491754,0,-2,0,-1,-1,-4,-2,0
1517204719491754,-2,1,-3,0,1,0,-1,-1
1517204719500747,-1,-2,-2,-1,-1,0,0,-1
1517204719500747,-2,-1,0,0,0,-3,-1,0
1517204719515328,-1,-3,0,-1,-2,-1,0,0
1517204719515328,-1,-2,-1,-2,-1,-1,0,-1
1517204719517325,-1,0,-2,-2,0,-1,-1,-2
1517204719517325,0,-1,0,0,-1,0,-3,-3
1517204719537868,-1,-2,0,1,0,-3,-1,0
1517204719537868,-2,-2,-1,0,-1,-2,0,-1
1517204719539831,-1,1,-2,-1,-2,-1,-1,-2
1517204719539831,0,-1,0,-2,-1,-1,-2,-1
1517204719551849,-1,-1,-2,-2,-3,-1,-1,0
1517204719551849,0,-1,-1,0,0,-2,0,0
1517204719560345,-1,-2,-2,-1,-1,0,-1,-1
1517204719560345,0,1,-1,-3,-2,-1,-2,0
1517204719576371,-2,-2,-1,0,-1,2,1,-3
1517204719576371,0,-1,-2,1,-1,0,1,-1
1517204719577867,-1,0,0,-1,-1,-1,-2,1
1517204719577867,-1,0,-1,-1,-1,0,-1,-2
1517204719597872,-2,-1,-1,-2,0,-1,-1,-2
1517204719597872,-2,-2,-1,-3,-2,0,-2,0
1517204719599374,-2,-2,0,0,0,0,-2,-1
1517204719599374,-2,-2,-1,-2,-1,-1,-2,-1
1517204719611881,-2,-2,-1,-3,1,-1,-1,-1
1517204719611881,0,-1,-2,-2,-3,-1,-2,-1
1517204719620388,0,-2,-2,0,-1,-1,0,0
1517204719620388,0,-1,-1,1,0,-1,3,0
1517204719635398,-1,0,-3,0,-1,0,-1,-1
1517204719635398,0,-1,-1,-3,1,0,0,-1
1517204719636899,-1,0,-1,0,0,-3,-1,0
1517204719636899,-1,-1,-2,-1,-1,-2,-2,-2
1517204719657915,1,-1,0,-1,0,0,-3,0
1517204719657915,-1,-1,0,0,-1,-1,0,-1
1517204719659416,-1,-1,0,0,-1,-3,-1,-1
1517204719659416,-2,-1,-3,0,0,-3,-1,-2
1517204719671424,-2,-2,-1,0,-1,-1,-2,-2
1517204719671424,-2,0,-1,0,-1,-1,-2,-1
1517204719680432,-1,-1,-1,-3,-1,0,-1,-1
1517204719680432,-1,-2,0,-1,-2,1,1,0
1517204719695451,-1,0,-2,-3,-1,-1,0,-1
1517204719695451,-1,-3,0,-1,0,-1,-2,0
1517204719696952,-2,0,-3,-2,-1,-2,-2,-1
1517204719696952,1,-1,-1,-1,-1,0,-1,-1
1517204719717980,-1,-1,-1,2,-2,-2,-3,-2
1517204719717980,-1,-1,-1,-1,-2,0,0,-3
1517204719719458,-2,-2,-1,0,-1,-1,-1,-1
1517204719719458,-2,-1,-1,0,0,-1,-1,-1
1517204719731476,-1,-1,-1,-2,-1,-1,1,-1
1517204719731476,-2,0,-1,-1,0,0,0,0
1517204719740473,-1,-3,-2,0,-1,-1,-1,1
1517204719740473,-3,-1,-1,-1,-3,-1,0,1
1517204719755483,0,-1,-1,-2,-1,-1,0,0
1517204719755483,0,-1,-2,-1,-1,-1,-1,0
1517204719756986,-2,-1,-1,-3,-1,0,-1,-2
1517204719756986,-1,0,-2,0,-1,-1,-3,0
1517204719778009,0,-1,1,1,-1,0,-2,0
1517204719778009,-1,0,-1,-2,-1,-2,-2,0
1517204719779500,-2,-1,-3,-1,-3,-1,0,-1
1517204719779500,0,0,-1,-2,-1,0,1,0
1517204719791510,-1,0,-3,0,-2,-2,-1,0
1517204719791510,0,-3,-1,0,-1,-2,0,-2
1517204719800525,0,0,1,-1,-1,-1,-3,-1
1517204719800525,-1,0,-3,-1,1,-1,-1,0
1517204719815548,-2,-3,-2,-3,0,1,-1,0
1517204719815548,0,0,-3,-1,-1,0,-1,-1
1517204719817044,-2,-2,0,0,-2,-1,1,-1
1517204719817044,-1,-2,-1,-2,-1,1,0,0
1517204719838061,-1,-1,1,0,-2,-1,1,-1
1517204719838061,-2,-1,0,-1,-2,0,-2,-1
1517204719839544,-1,-1,-1,-3,0,-1,0,-1
1517204719839544,-1,-3,0,0,-2,0,-1,-2
1517204719860558,-2,-2,-1,-2,-1,-2,-1,-3
1517204719860558,-1,-1,0,0,-1,-2,0,0
1517204719862058,-1,-1,-1,0,0,1,-2,-2
1517204719862058,-2,0,-1,-1,0,-2,-1,-1
1517204719875569,-2,0,-2,1,0,-1,-2,1
1517204719875569,1,-1,-1,0,-1,0,-1,-2
1517204719877083,-1,0,-3,-2,1,-2,0,1
1517204719877083,1,-1,-1,-3,-3,-2,-1,-1
1517204719898086,-1,-1,-2,-3,0,-1,0,-2
1517204719898086,-2,-1,-1,-1,1,0,-3,-2
1517204719899601,-2,-1,-1,0,0,-1,0,0
1517204719899601,-1,-1,0,1,-2,-2,-1,-2
1517204719920603,0,-1,-1,-1,-2,-1,-2,0
1517204719920603,1,-1,-2,-3,-1,-2,1,0
1517204719922101,-1,-1,0,-1,-2,0,0,-2
1517204719922101,0,-1,-2,-2,-2,-2,-1,-2
1517204719935610,0,0,0,-1,-1,-2,0,0
1517204719935610,-1,-1,-1,-1,0,-2,-3,1
1517204719937126,-1,0,-2,0,-1,-1,-2,0
1517204719937126,-2,-1,-1,-1,-1,-2,-2,0
1517204719958127,0,-1,0,-2,-2,0,0,-1
1517204719958127,0,-1,-1,-1,0,-1,-2,-1
1517204719959628,-1,0,-2,-2,-2,-1,-2,-3
1517204719959628,0,-1,-1,-1,-1,0,-2,0
1517204719980643,-1,0,0,0,-1,-1,2,-1
1517204719980643,-1,-1,0,-2,-2,-1,1,0
1517204719982149,-2,-1,-2,-2,1,-1,-1,-1
1517204719982149,-1,-2,0,-1,-1,0,0,-1
1517204719995654,-1,-2,-2,-1,-2,-3,-1,-1
1517204719995654,-3,-2,-1,-1,-2,-1,0,-2
1517204719997155,-1,0,1,1,-1,-2,-3,-1
1517204719997155,0,-1,-1,-1,-1,-2,-2,0
1517204720018186,0,-1,-2,-2,-1,-2,-2,-1
1517204720018186,-2,0,-2,-3,-3,0,-1,-2
1517204720019683,1,-1,0,-1,-1,-1,1,-1
1517204720019683,-1,0,-1,-1,-1,0,-1,-1
1517204720040702,-2,1,-1,-1,-1,-1,-1,-2
1517204720040702,-1,-2,-2,-1,0,0,0,-2
1517204720042189,-1,0,-1,-1,-2,0,-2,0
1517204720042189,-2,-2,-1,-2,-1,-1,-1,0
1517204720054698,0,0,0,1,-2,0,-2,-2
1517204720054698,0,-1,-1,-2,-1,-2,-1,-1
1517204720061710,-1,-2,-1,0,-1,0,-2,0
1517204720061710,-1,0,0,-1,-2,-1,0,1
1517204720078212,-3,-2,-1,-2,-1,-1,1,0
1517204720078212,0,-1,-1,0,-2,0,-1,-1
1517204720079712,0,-3,0,-1,-1,0,-1,0
1517204720079712,-1,0,-2,-1,-1,-2,-2,-2
1517204720101227,-2,-2,-2,-1,-1,-1,-1,-1
1517204720101227,-1,0,-1,1,0,0,0,0
1517204720102740,0,0,-1,-2,-2,-1,0,-1
1517204720102740,-2,-1,-1,0,-2,-1,-1,-1
1517204720114753,0,0,-2,-2,0,-1,-1,0
1517204720114753,-2,-1,-2,1,-1,-1,-3,-2
1517204720121774,-1,-2,0,1,-2,-1,-1,-1
1517204720121774,-1,-2,-1,-2,1,-1,0,-1
1517204720137800,1,-1,1,-1,-1,-2,1,-1
1517204720137800,-2,-3,-1,-2,-1,-1,-1,-1
1517204720139789,0,0,-1,1,-1,-2,-2,-1
1517204720139789,-2,1,-1,1,-2,-1,-3,-1
1517204720160301,-2,-2,-3,-2,-2,0,-1,0
1517204720160301,0,0,0,-1,-2,1,0,-2
1517204720162302,-2,1,-2,-2,-1,-2,0,1
1517204720162302,1,-1,-1,-1,1,1,-2,-2
1517204720174812,-2,1,0,-1,0,-2,0,0
1517204720174812,0,1,-3,-1,-2,-1,1,-1
1517204720181816,-2,-2,-3,-2,0,0,-1,-1
1517204720181816,-1,-2,-1,0,-2,0,-2,-3
1517204720197827,-1,-1,-1,-1,-1,-1,-2,-2
1517204720197827,-1,0,0,0,-3,-1,-2,1
1517204720199829,-1,-1,-1,-2,-1,-1,-1,-2
1517204720199829,-1,-1,-1,-1,0,-2,0,0
1517204720220358,-1,-2,-1,-2,-1,-1,0,-2
1517204720220358,0,0,-1,0,-1,-1,-1,-1
1517204720221844,0,-1,-1,-2,-2,-2,-2,0
1517204720221844,-2,-2,-3,-1,0,-1,-1,-2
1517204720234862,-1,0,-2,0,0,-3,-1,0
1517204720234862,-2,-3,-2,-2,0,-3,-1,-1
1517204720241358,0,-1,0,0,-2,-1,0,-2
1517204720241358,0,-2,-1,-1,-1,0,0,-1
1517204720257869,2,0,-2,-2,-1,-1,-1,-2
1517204720257869,-1,-2,-2,-1,2,-3,-2,-2
1517204720259371,0,0,-1,0,-1,0,-2,0
1517204720259371,-2,-1,-1,0,-2,-2,-1,0
1517204720280385,-1,-3,-1,1,0,0,-2,-2
1517204720280385,0,-2,-1,0,-2,-3,2,-2
1517204720281886,-2,0,-3,-1,-2,-1,-1,-1
1517204720281886,0,-1,-2,-1,-1,-1,-1,-2
1517204720294902,-2,-1,0,-1,-1,-1,0,0
1517204720294902,-1,0,-1,-3,-1,0,-1,1
1517204720301400,-3,-1,0,-1,0,-2,-1,0
1517204720301400,-1,0,-1,0,0,-2,-2,-2
1517204720317937,-2,0,0,-1,-2,-1,-3,-3
1517204720317937,-3,-6,-4,-2,-1,-4,0,-2
1517204720319413,-5,-2,-3,-3,-1,-1,3,1
1517204720319413,3,3,3,1,1,3,-1,-5
1517204720340428,-3,2,-3,-4,-5,-3,1,2
1517204720340428,2,-4,0,-1,-2,-5,-17,-9
1517204720341929,7,-6,-5,1,-3,-1,0,-3
1517204720341929,-12,-4,-4,-3,-2,0,3,5
1517204720353937,3,-3,2,0,0,2,-4,-8
1517204720353937,4,-3,-2,-4,-3,-2,-1,2
1517204720362944,0,-2,2,1,2,-1,2,-1
1517204720362944,-3,-9,-7,2,-2,-1,-2,-5
1517204720377954,-2,-9,-2,-4,-1,-1,-4,2
1517204720377954,-8,14,22,7,3,2,2,1
1517204720379459,1,-2,-35,-12,-1,0,-3,2
1517204720379459,6,-5,5,1,-1,-3,-1,-4
1517204720400492,0,6,32,16,-2,-2,-1,-4
1517204720400492,9,-4,-67,-14,-3,0,2,2
1517204720401994,4,5,28,-29,0,1,0,1
1517204720401994,-12,-1,-19,18,0,-1,-5,-5
1517204720413979,-5,-1,-14,-11,-1,-1,3,3
1517204720413979,-20,-25,33,38,0,-1,1,-4
1517204720422987,-6,24,47,0,4,2,1,3
1517204720422987,-2,-23,-66,-30,-6,-2,3,-1
1517204720438000,-1,9,20,5,0,0,-4,-8
1517204720438000,-5,2,17,-3,1,2,3,4
1517204720439502,-1,-9,-12,10,1,-1,0,-1
1517204720439502,8,28,29,3,0,1,-1,8
1517204720460514,-11,-23,3,3,-4,-7,-8,-13
1517204720460514,9,11,-31,-16,1,0,-12,-10
1517204720462014,11,14,40,13,-3,-1,-2,1
1517204720462014,-16,-6,-50,-11,0,-2,-4,-10
1517204720474039,13,0,21,-10,-4,-1,6,5
1517204720474039,-2,6,19,4,-3,-3,0,6
1517204720483028,-13,-1,-35,-5,1,2,0,-5
1517204720483028,22,-4,39,17,-2,-3,3,2
1517204720498039,-6,1,-24,7,1,-1,-12,3
1517204720498039,12,13,-13,-24,0,1,3,-1
1517204720499550,-14,-10,-1,7,-3,-2,-5,-1
1517204720499550,3,1,5,-7,-1,-1,4,3
1517204720520576,4,-2,-14,-8,0,2,2,4
1517204720520576,-16,-8,11,-4,-2,-3,-8,-16
1517204720522072,-1,-4,0,10,-1,-2,0,-1
1517204720522072,-10,6,-15,-16,-5,-2,-1,1
1517204720534064,-9,-10,12,4,-3,-4,1,6
1517204720534064,-8,1,-30,-8,4,1,-11,-19
1517204720543081,23,-7,0,-2,-5,-7,-5,-12
1517204720543081,-7,1,19,0,-1,-4,-10,-8
1517204720558081,7,6,3,5,3,6,16,11
1517204720558081,-6,-10,-3,-3,-3,0,8,10
1517204720559582,-5,4,11,5,-2,-1,6,6
1517204720559582,8,6,36,9,4,0,-4,-1
1517204720580610,4,4,-63,-17,-6,-5,-5,-4
1517204720580610,4,2,30,-2,-2,1,0,15
1517204720582099,-11,5,-18,-1,4,0,1,-10
1517204720582099,21,3,13,12,-6,-2,9,21
1517204720594108,-9,-9,0,-2,10,5,3,-16
1517204720594108,-9,4,4,8,-2,-2,6,7
1517204720603114,13,-4,-38,-24,-9,-5,-18,-2
1517204720603114,-7,-2,21,5,1,-1,-10,-6
1517204720618126,-10,-1,-13,-6,-5,-5,-8,-4
1517204720618126,26,5,14,12,3,2,8,7
1517204720619625,-9,-3,-11,-12,-1,1,10,7
1517204720619625,34,13,-7,-1,-2,4,12,6
1517204720641146,-22,-8,2,-1,-3,-3,-4,-10
1517204720641146,18,-1,-8,-4,-1,2,6,15
1517204720642147,-2,3,9,11,0,-1,9,-15
1517204720642147,-29,-24,-21,-6,1,-2,-6,-4
1517204720654170,-6,13,5,5,1,1,-1,-3
1517204720654170,-9,6,5,-6,0,-4,38,12
1517204720663159,-5,-15,-17,-13,-3,-2,-30,-5
1517204720663159,-2,-15,18,2,-1,-4,-5,0
1517204720678167,-3,-7,-5,-12,-4,0,-15,-5
1517204720678167,-10,-8,-2,5,-1,-2,-9,-21
1517204720684172,1,17,36,10,1,0,14,22
1517204720684172,-16,-15,-51,-14,-2,-3,-7,-15
1517204720700697,-20,-15,-22,-18,-4,-3,10,4
1517204720700697,25,24,18,12,2,3,-2,24
1517204720702202,-11,-9,25,1,-2,-4,-19,-36
1517204720702202,-3,-10,-18,-4,-3,-3,-17,35
1517204720714195,-7,-1,5,6,-1,-3,-36,-57
1517204720714195,-16,-22,-2,-24,-8,-6,9,14
1517204720723202,22,-6,-24,9,4,4,-3,8
1517204720723202,-30,0,7,-3,0,2,8,5
1517204720738209,-9,39,-7,5,0,2,22,31
1517204720738209,28,5,22,11,0,-3,-30,-24
1517204720739724,-23,-30,-3,-5,-3,-8,0,26
1517204720739724,25,29,7,16,3,-1,-39,-59
1517204720760235,18,-10,4,-24,-5,0,23,43
1517204720760235,-32,22,-7,0,-4,0,4,-16
1517204720762226,19,-5,-14,-1,-4,-8,-30,10
1517204720762226,-6,7,26,13,3,2,-9,-21
1517204720774285,31,14,23,2,-3,-3,1,-21
1517204720774285,-28,-41,-33,-4,-5,-4,4,-48
1517204720783304,10,-16,-36,-22,-4,1,15,25
1517204720783304,-18,17,0,-5,2,0,11,2
1517204720797813,56,4,26,20,6,1,-1,9
1517204720797813,14,14,-8,-1,-5,0,9,18
1517204720799804,17,-7,6,1,-1,3,-11,-29
1517204720799804,25,25,16,13,1,-1,-6,3
1517204720820320,-76,-71,-6,-13,-3,-2,32,-6
1517204720820320,27,8,-24,1,2,1,-10,62
1517204720821819,47,67,27,16,5,-2,-7,-18
1517204720821819,-10,-64,-60,-16,-15,-6,33,23
1517204720842834,17,15,-2,-5,-4,1,-3,10
1517204720842834,-46,-55,-3,0,-4,-3,-2,2
1517204720844339,-53,23,7,-7,1,6,14,-37
1517204720844339,20,-18,29,7,-1,-2,5,1
1517204720857846,14,2,-15,4,1,-1,4,-2
1517204720857846,-18,-12,-37,-5,-2,-10,-32,-19
1517204720859845,-55,-58,2,38,6,5,26,31
1517204720859845,-26,18,24,-45,-8,-2,-4,-20
1517204720880372,-11,37,5,9,1,2,-10,-4
1517204720880372,30,-34,34,5,4,4,6,-9
1517204720881862,27,-2,-6,0,-5,-4,9,13
1517204720881862,8,21,19,1,1,3,1,17
1517204720910390,63,-27,-53,-20,-9,-11,-10,6
1517204720910390,-69,74,14,25,9,4,-16,-19
1517204720912385,-21,-35,-37,-16,-6,-5,-5,-38
1517204720912385,1,-73,-32,-16,3,4,14,14
1517204720917904,15,75,28,18,4,2,-10,-1
1517204720917904,9,-62,-1,2,-5,-4,7,-16
1517204720919407,4,-4,17,-5,-3,-5,-9,34
1517204720919407,59,57,51,7,4,1,-1,-39
1517204720940411,-68,-104,-37,13,-3,-2,4,-5
1517204720940411,2,30,-50,-17,-1,-6,-29,-11
1517204720941908,4,11,71,-3,-2,-2,-13,8
1517204720941908,-44,19,-8,-22,-6,-10,-24,-10
1517204720962921,-1,32,57,21,0,-4,-2,29
1517204720962921,41,-10,46,14,4,2,-1,-47
1517204720964419,-54,-74,-105,-32,-14,-5,-13,7
1517204720964419,38,102,13,34,6,-5,18,27
1517204720977428,29,-48,-29,-31,-4,9,-23,55
1517204720977428,-48,-56,14,-5,-5,-4,19,-52
1517204720983933,48,73,-47,-3,-1,9,17,-19
1517204720983933,-58,-12,33,15,9,10,19,68
1517204721000467,-70,26,-12,16,-2,-8,33,11
1517204721000467,76,42,36,-42,-9,-3,-25,38
1517204721001946,-36,8,41,56,15,8,11,15
1517204721001946,48,27,-44,-60,-11,-3,-33,-52
1517204721022961,-39,-34,29,23,2,-3,-24,4
1517204721022961,0,52,-34,-29,0,4,-27,-30
1517204721024462,30,53,82,6,-1,-1,13,3
1517204721024462,-59,-30,1,20,3,2,16,32
1517204721036985,-9,-35,15,-10,-6,-3,0,8
1517204721036985,-18,-1,13,23,-2,-1,-4,12
1517204721043988,21,-93,-26,-1,8,-3,-6,24
1517204721043988,-1,25,71,-19,-26,-8,4,-54
1517204721060500,-9,-8,-73,-21,21,9,-8,-17
1517204721060500,-29,72,67,25,-4,-3,-4,-68
1517204721061989,-9,0,-15,-14,-10,-5,25,88
1517204721061989,13,81,-7,23,3,0,-6,-17
1517204721083083,-63,-65,-12,7,-6,-4,-4,-20
1517204721083083,19,-10,25,18,2,0,1,41
1517204721084584,-19,77,-62,-46,-4,-3,-2,-71
1517204721084584,49,-27,16,21,8,7,1,25
1517204721105653,-36,-35,-25,-13,-15,-10,21,5
1517204721105653,32,104,24,4,9,10,-9,-7
1517204721107156,-75,4,-18,-2,-10,-19,-33,-96
1517204721107156,-10,-100,-6,29,12,13,8,32
1517204721120663,69,125,50,-53,-7,8,48,36
1517204721120663,-54,-92,-38,-4,1,-13,-56,-63
1517204721122181,32,53,-42,0,-3,-2,-7,17
1517204721122181,-43,-56,-104,-8,-1,-6,-25,-16
1517204721143179,-8,-6,51,16,2,0,-31,-31
1517204721143179,20,26,-11,-18,-5,0,22,53
1517204721144685,22,20,-12,-15,-9,-10,5,-16
1517204721144685,-42,-24,46,25,7,1,-17,-38
1517204721157192,55,125,-29,38,14,16,31,-24
1517204721157192,-89,-91,-122,-79,-28,-17,33,60
1517204721164198,-15,109,45,-7,-4,-7,7,-18
1517204721164198,73,62,24,4,0,3,26,40
1517204721180706,45,74,65,14,8,10,47,56
1517204721180706,17,-17,-12,10,0,9,-16,13
1517204721182207,54,-46,-14,2,7,6,-23,13
1517204721182207,-45,-63,23,-20,-9,-9,4,-37
1517204721202737,14,34,-19,13,-1,0,-1,-4
1517204721202737,7,-44,-9,27,9,12,37,39
1517204721204223,45,1,24,16,-2,3,6,17
1517204721204223,9,23,-1,-29,0,-5,-30,-63
1517204721217255,13,-22,0,4,-1,-6,-30,-15
1517204721217255,-3,58,-17,-24,-13,-12,17,17
1517204721224237,53,-68,-27,8,5,7,-4,0
1517204721224237,-88,-73,-70,3,-8,-6,11,48
1517204721247755,1,35,21,-19,-6,-9,-29,-74
1517204721247755,18,-45,-57,-1,-15,-11,6,-22
1517204721249773,-68,-17,74,4,5,1,-9,-6
1517204721249773,26,-6,-12,-12,-4,0,-22,-5
1517204721263264,24,-51,32,15,11,2,-5,14
1517204721263264,43,23,5,-9,-3,-1,-12,-26
1517204721264774,-38,-69,-46,5,-3,-5,1,-1
1517204721264774,19,85,35,-8,-6,1,-3,27
1517204721277287,-30,-21,-9,12,7,5,10,-1
1517204721277287,11,7,48,8,9,4,9,32
1517204721284279,15,-20,46,-8,0,4,-15,-41
1517204721284279,-16,-8,-20,12,1,-1,16,0
1517204721300314,-12,-65,-47,-40,-18,-10,6,11
1517204721300314,7,112,82,38,13,8,30,49
1517204721302292,-34,-26,-24,-2,-7,-16,-45,-56
1517204721302292,-72,-94,-45,-22,-6,-7,-17,-25
1517204721323307,-4,3,26,35,2,-10,-60,-90
1517204721323307,-22,80,33,-10,-7,-8,-26,-26
1517204721324825,-36,-57,-70,-56,-18,0,0,49
1517204721324825,16,17,13,11,-4,-8,20,28
1517204721336817,24,4,39,25,13,2,-23,3
1517204721336817,-27,-72,38,12,7,6,-18,-78
1517204721345324,47,29,25,12,2,1,-3,11
1517204721345324,7,-13,-42,4,-4,-5,17,22
1517204721360343,13,25,-43,-51,-17,-10,-1,53
1517204721360343,-3,1,-27,8,3,2,10,-54
1517204721361839,-19,20,99,36,14,9,14,-8
1517204721361839,-10,42,5,15,3,0,-2,82
1517204721383349,24,37,46,-9,-4,5,8,-60
1517204721383349,45,-34,-8,0,-1,-4,-4,17
1517204721384850,-50,-10,-35,4,4,4,17,30
1517204721384850,13,5,14,-32,-6,-1,7,-19
1517204721396370,-4,61,28,16,11,11,4,27
1517204721396370,31,-36,-50,3,-3,-4,3,25
1517204721405373,-4,54,32,-8,2,9,32,45
1517204721405373,51,-3,32,19,8,4,-25,-10
1517204721420379,-2,68,-16,30,3,0,-1,10
1517204721420379,-16,-87,-21,-44,-7,-5,-25,-23
1517204721421877,49,16,-1,27,2,-5,1,14
1517204721421877,-8,20,30,-17,-4,1,4,-15
1517204721442891,-7,-21,-84,-30,-9,-5,11,-5
1517204721442891,13,26,64,56,19,8,10,45
1517204721444406,-4,-30,14,-42,-15,2,16,-27
1517204721444406,-4,-57,-27,13,5,-1,-9,-60
1517204721456901,-3,1,57,-6,-2,1,16,15
1517204721456901,-9,0,-43,3,6,10,19,28
1517204721465408,-25,-37,-57,-22,-9,-11,-27,-25
1517204721465408,7,37,18,-8,-1,4,13,16
1517204721480418,30,-25,-19,3,1,2,0,40
1517204721480418,-13,36,35,30,4,-3,6,16
1517204721481920,12,4,-79,-68,-15,-2,-4,-16
1517204721481920,13,5,-21,-3,-11,-10,-12,16
1517204721502958,-23,-16,40,17,8,-3,-25,-29
1517204721502958,-29,-20,-65,-32,-14,-6,-5,-2
1517204721504457,13,37,33,48,15,5,1,-11
1517204721504457,19,70,16,3,5,6,29,51
1517204721516447,-31,-98,-93,-18,-13,-8,-24,-69
1517204721516447,5,54,11,-30,-1,0,-8,-8
1517204721525450,3,96,73,30,8,4,-8,29
1517204721525450,1,5,-94,-23,-6,-7,-23,-47
1517204721540461,-21,-28,-15,20,-2,0,9,0
1517204721540461,3,26,52,-17,-4,-2,7,9
1517204721542462,2,-10,-23,11,-2,-4,-3,-5
1517204721542462,27,-14,4,-10,-5,9,22,22
1517204721562989,-35,10,72,-4,0,-8,-7,7
1517204721562989,-6,10,-62,-3,-9,-8,12,-21
1517204721564488,1,22,6,-14,-1,0,9,46
1517204721564488,-40,14,8,42,5,0,-11,-13
1517204721576496,7,-74,61,-28,-8,-1,15,11
1517204721576496,3,-18,4,19,5,-6,-39,-54
1517204721585532,-17,4,57,27,7,2,7,8
1517204721585532,30,-9,-55,5,1,-5,-7,-5
1517204721600550,-1,11,3,-28,-13,-8,-14,47
1517204721600550,-16,-13,17,6,4,1,-1,-29
1517204721602034,49,-32,-22,3,2,2,-2,-17
1517204721602034,-25,-17,59,16,-1,-1,-9,-36
1517204721623048,6,-36,-24,-23,-2,1,14,24
1517204721623048,34,46,36,-8,-4,-4,0,15
1517204721624549,-9,11,47,-1,-7,-6,-2,-2
1517204721624549,-20,-29,-3,15,6,0,-21,-38
1517204721636570,30,56,9,-23,-8,-3,-22,-80
1517204721636570,-32,-72,-34,19,11,13,56,54
1517204721645564,-10,-71,-23,-1,-2,0,-1,-14
1517204721645564,26,64,76,-4,-3,-3,13,25
1517204721661077,1,-37,-62,5,-2,-4,-24,-36
1517204721661077,65,37,66,-5,1,3,22,68
1517204721662577,-15,2,-61,1,2,5,-7,-61
1517204721662577,4,-24,-52,-14,5,-1,-2,5
1517204721683129,-17,-6,49,9,1,0,12,21
1517204721683129,14,49,3,-6,-4,-4,3,8
1517204721684630,-22,-22,-18,23,10,5,0,32
1517204721684630,-4,19,1,-36,-6,0,7,-34
1517204721696639,-33,-64,-97,4,-5,-5,-1,-4
1517204721696639,-4,-14,-15,-17,-9,-6,-20,-2
1517204721705735,26,10,28,6,1,-7,3,28
1517204721705735,-4,43,0,-15,1,3,-2,-32
1517204721720748,-18,-36,46,11,-1,-2,14,5
1517204721720748,-17,-79,-42,-3,-11,-11,-13,-8
1517204721722250,20,36,72,8,5,5,7,-2
1517204721722250,4,-17,-54,-5,-3,2,7,-1
1517204721742748,0,3,73,22,7,2,16,38
1517204721742748,19,-9,-24,-14,-3,0,-15,-31
1517204721744250,-19,8,6,4,-1,-1,-1,1
1517204721744250,-13,-67,-9,-11,-5,-7,-14,-7
1517204721765281,33,54,-17,17,7,6,12,29
1517204721765281,-13,-17,-12,-12,-10,0,-2,-58
1517204721771816,48,78,30,-18,-3,3,8,38
1517204721771816,6,-23,52,30,5,0,11,14
1517204721780316,-10,24,-12,-10,-8,-2,-15,-22
1517204721780316,-9,-38,67,4,9,2,2,1
1517204721781814,13,3,-52,11,4,4,2,-12
1517204721781814,-29,13,-16,-28,-10,-8,-9,18
1517204721802850,12,-26,32,31,9,7,11,-2
1517204721802850,-20,24,-6,-9,-1,-4,4,25
1517204721804353,-26,-62,63,-26,-13,-12,-35,-68
1517204721804353,9,-33,-57,45,14,7,-4,43
1517204721825344,-21,32,-31,-39,-15,-10,16,-20
1517204721825344,3,-1,16,10,4,7,-12,-11
1517204721826846,8,13,-5,17,4,-2,16,-1
1517204721826846,-12,-37,-42,-24,-8,-5,-19,-18
1517204721840356,35,23,-3,13,8,3,-5,2
1517204721840356,-36,-33,-83,-5,-8,-4,7,16
1517204721841856,-1,-10,-20,-19,-2,-6,-22,-35
1517204721841856,37,22,11,34,9,5,9,5
1517204721862872,24,25,41,-17,-3,-2,7,35
1517204721862872,3,22,-12,5,4,1,-16,-31
1517204721864373,-22,-32,-33,12,-2,-1,10,20
1517204721864373,-6,21,75,-1,1,1,15,24
1517204721885387,-13,-30,-56,-2,-5,-5,-19,-50
1517204721885387,-3,21,24,-4,1,-5,1,-6
1517204721886888,-2,6,-39,-6,-7,-7,-4,-7
1517204721886888,17,64,16,-4,-6,-3,-2,12
1517204721899922,-16,28,18,-7,2,0,2,25
1517204721899922,8,-8,25,3,-3,-1,-9,15
1517204721906402,-27,-25,-7,9,3,4,7,1
1517204721906402,-29,-18,69,0,-4,-6,18,23
1517204721922913,-2,30,-99,-26,-2,3,-10,-11
1517204721922913,17,8,6,18,7,2,6,21
1517204721924416,-14,-23,-1,-4,-3,2,26,36
1517204721924416,4,23,46,14,5,5,-16,-35
1517204721945431,8,12,15,-5,3,-2,-5,-5
1517204721945431,0,-10,12,13,3,3,10,-5
1517204721946933,-4,20,-11,4,0,-2,-19,6
1517204721946933,10,-8,-24,-23,-5,-3,-17,22
1517204721959940,-19,-5,9,-4,0,0,-13,-59
1517204721959940,-15,-42,30,13,6,7,-3,18
1517204721966468,-19,22,18,-22,-13,-11,3,11
1517204721966468,29,5,-47,-5,-2,1,-5,-27
1517204721982966,6,14,53,17,1,-4,-6,-2
1517204721982966,3,-15,28,-2,-1,-1,15,35
1517204721984458,-13,16,-15,0,-3,-1,-22,-18
1517204721984458,-9,-11,-23,-24,-3,4,4,-17
1517204722005494,18,1,19,32,4,-4,-13,0
1517204722005494,-21,45,-86,-57,-28,-18,-12,-8
1517204722006973,44,-58,6,3,3,-1,1,-3
1517204722006973,-22,3,-3,21,6,6,18,12
1517204722019982,10,6,20,-4,2,4,8,-1
1517204722019982,-21,34,-41,10,2,2,4,15
1517204722026488,-27,-16,73,-5,-1,-5,-22,-27
1517204722026488,-1,-18,-37,-3,-9,-2,12,18
1517204722043000,7,-55,9,-4,5,3,18,19
1517204722043000,11,-7,-48,9,2,7,14,-17
1517204722044513,-44,-86,-24,-12,-4,0,5,-1
1517204722044513,4,40,13,10,3,-1,-7,-9
1517204722065536,13,16,14,16,5,0,4,24
1517204722065536,-44,-5,-26,13,2,1,-7,13
1517204722067036,16,41,-2,-12,1,3,1,-15
1517204722067036,-15,13,55,2,-6,-11,-17,-9
1517204722079535,-6,-22,-55,-20,-9,-2,4,11
1517204722079535,1,12,28,-13,0,-3,-12,-22
1517204722086531,-4,-28,-13,20,4,5,31,36
1517204722086531,-6,-20,-46,-16,-10,-8,-10,-16
1517204722103046,-2,30,-40,-8,-3,1,-1,13
1517204722103046,39,13,55,27,8,2,-5,-21
1517204722104557,3,53,-15,-4,-5,-3,-4,-22
1517204722104557,2,-25,22,2,4,5,4,-1
1517204722125560,-17,2,-56,-9,-3,1,32,39
1517204722125560,7,-8,21,-2,3,-1,-45,-45
1517204722127059,-7,-30,-52,-9,-4,-7,4,36
1517204722127059,11,23,-1,-3,1,3,3,-4
1517204722139568,4,28,28,19,0,-4,-23,0
1517204722139568,-6,11,1,13,3,9,27,9
1517204722146585,26,38,22,-13,-5,0,-2,14
1517204722146585,-21,-25,-22,-21,-2,-4,-31,-33
1517204722163100,-6,-53,4,1,-1,-5,-23,-6
1517204722163100,13,56,9,-1,-1,1,1,-69
1517204722164607,21,14,6,0,3,2,3,9
1517204722164607,-23,-36,-22,-20,-13,-9,-2,-44
1517204722185101,8,-43,16,1,1,1,30,42
1517204722185101,-9,14,20,8,-1,-3,-12,6
1517204722187102,6,6,-25,-4,1,1,-10,12
1517204722187102,9,22,26,-2,1,5,10,-25
1517204722199609,6,26,-20,-18,-5,1,31,15
1517204722199609,-31,-98,-55,5,1,-5,3,44
1517204722206626,12,-20,-6,-6,-5,-3,-16,-29
1517204722206626,16,68,56,10,2,-1,2,24
1517204722222625,-8,-6,-78,-8,-8,-5,1,21
1517204722222625,7,26,17,-30,-8,-2,-21,-3
1517204722224630,-7,-23,49,57,19,6,5,-8
1517204722224630,11,-32,-74,-40,-5,0,-2,-12
1517204722245644,-14,64,11,-26,-4,2,-2,-8
1517204722245644,-31,-70,0,16,-5,-9,-17,-22
1517204722247170,-3,-3,-15,-33,-18,-7,13,41
1517204722247170,21,66,6,-9,10,4,8,10
1517204722259151,-50,-86,-29,18,-4,-3,-42,-63
1517204722259151,15,9,7,13,4,2,21,21
1517204722268175,3,36,30,-11,2,0,-9,-20
1517204722268175,-14,-37,-6,-9,-4,-7,20,42
1517204722282682,46,33,54,4,5,-3,-33,-20
1517204722282682,8,28,-23,-11,-2,6,15,-23
1517204722284169,19,-11,-6,31,7,-1,-7,-4
1517204722284169,6,-37,-30,0,-1,2,-5,-14
1517204722305684,-3,31,-38,-6,4,-1,5,6
1517204722305684,10,27,64,20,-4,-7,-8,-8
1517204722307188,27,50,-19,1,-1,2,1,-15
1517204722307188,6,8,2,-37,-12,-8,-5,4
1517204722319194,6,-64,-36,28,3,-4,-22,-11
1517204722319194,-14,-35,-9,-30,-2,3,2,-6
1517204722328215,-23,-20,-6,-14,-2,-1,1,-4
1517204722328215,2,16,-5,72,10,-1,-20,6
1517204722342721,-28,-17,36,-48,-14,-6,3,-25
1517204722342721,7,37,1,19,3,-3,5,4
1517204722344214,17,35,33,-25,1,7,18,-10
1517204722344214,-9,31,36,43,-1,-4,-6,30
1517204722365727,37,43,61,-6,1,0,18,5
1517204722365727,-13,-45,-98,-39,-7,-1,-1,-8
1517204722366728,17,8,14,7,2,-1,2,16
1517204722366728,-10,-32,18,13,1,0,9,-9
1517204722379240,21,-13,-44,-4,-1,7,25,43
1517204722379240,17,52,77,2,1,-5,-16,-19
1517204722387743,-26,-97,-49,-7,-6,-7,15,-3
1517204722387743,-1,-16,-8,10,2,1,-32,-5
1517204722402753,-26,67,32,14,7,5,19,-8
1517204722402753,29,-58,-24,-22,-8,0,0,26
1517204722404254,-10,52,-75,-2,-6,-8,-10,11
1517204722404254,5,8,32,11,8,4,0,-33
1517204722425269,-17,-5,22,-10,-6,0,-3,3
1517204722425269,29,72,8,-1,-2,-2,5,47
1517204722427270,-2,25,-5,-4,0,-2,-25,-43
1517204722427270,20,-15,16,-3,-3,0,16,8
1517204722439295,-38,-21,-13,-17,-6,-5,-17,-9
1517204722439295,26,8,-49,20,7,2,11,-26
1517204722448295,2,-28,40,-28,-2,5,2,-5
1517204722448295,2,-9,-51,-17,-8,-7,-26,-12
1517204722462797,0,39,66,32,6,3,8,-6
1517204722462797,-31,-73,-22,4,-4,-6,-2,2
1517204722464807,4,-23,11,29,11,4,14,27
1517204722464807,-22,30,-3,-38,-16,-8,-11,-14
1517204722492835,16,-25,15,5,8,7,-5,13
1517204722492835,7,38,56,5,1,-3,-9,34
1517204722494318,-34,-24,-74,-26,-10,-4,-27,-64
1517204722494318,2,-25,38,25,10,5,28,80
1517204722498839,22,-44,-47,12,5,0,-40,-72
1517204722498839,-3,53,66,8,2,2,-1,4
1517204722507828,5,8,47,27,2,-3,-13,5
1517204722507828,-14,-83,-88,-36,-10,0,26,-5
1517204722522838,7,74,45,8,2,1,-5,34
1517204722522838,12,-56,-27,5,4,-1,-2,-6
1517204722524840,-13,5,18,-10,-11,-6,-6,-11
1517204722524840,3,45,-4,0,2,3,13,4
1517204722545367,10,-1,23,6,-5,-8,6,19
1517204722545367,-18,-29,-89,-26,-3,3,17,-8
1517204722546855,-19,15,-3,-3,-4,-7,-16,-2
1517204722546855,-7,0,10,-4,2,3,17,12
1517204722559375,16,3,-4,-5,-8,-6,-9,-13
1517204722559375,2,41,61,26,5,2,2,11
1517204722567870,5,4,-11,1,5,6,4,20
1517204722567870,16,-18,-21,0,-1,-1,-3,-27
1517204722582893,-18,6,32,9,2,-3,3,14
1517204722582893,-28,-13,-4,-38,-18,-11,-31,-39
1517204722584393,-37,5,-9,13,-2,-5,6,29
1517204722584393,-21,9,-1,4,10,4,-9,-9
1517204722605398,-7,-30,-36,21,-9,-6,19,10
1517204722605398,0,25,64,-3,0,0,-15,-22
1517204722606897,9,27,-19,-4,0,0,3,7
1517204722606897,-17,-17,13,-9,-7,-9,-3,-33
1517204722618920,-12,-16,-31,-2,0,-1,-19,-42
1517204722618920,-18,49,0,-1,2,1,5,12
1517204722627913,29,-52,20,-17,-11,-2,0,9
1517204722627913,11,-32,6,22,8,3,3,5
1517204722642923,8,30,5,-20,-6,-2,-3,4
1517204722642923,5,-50,-25,-20,-10,-6,0,4
1517204722644424,-21,21,-15,38,11,7,10,6
1517204722644424,-31,29,51,-3,0,3,-2,18
1517204722665462,-18,-45,-82,-37,-8,-7,-43,-46
1517204722665462,13,29,38,-4,-3,-6,2,0
1517204722666962,14,-14,59,25,7,2,9,15
1517204722666962,-29,10,-34,-4,-4,-1,-10,-12
1517204722678948,-11,11,4,8,6,0,2,-28
1517204722678948,-30,-75,-100,3,-1,0,0,10
1517204722687968,-1,2,-18,-8,1,0,0,-46
1517204722687968,12,1,9,-22,-8,-4,5,13
1517204722702981,25,38,20,-2,-2,0,-1,27
1517204722702981,-47,-9,-1,12,3,0,4,21
1517204722704491,13,29,36,22,4,3,-6,-14
1517204722704491,-5,10,-38,-60,-18,-10,-18,-23
1517204722725982,29,-17,5,13,4,1,10,-14
1517204722725982,9,-16,-14,-29,-8,-5,2,35
1517204722731988,-1,28,34,7,-1,-3,5,16
1517204722731988,-29,19,43,-7,-3,-2,-16,-22
1517204722747998,-8,-7,11,36,8,1,0,-10
1517204722747998,18,14,-5,-21,2,4,12,-7
1517204722749513,-8,9,32,43,-1,-2,5,-17
1517204722749513,43,-23,23,-30,-1,0,2,9
1517204722762008,-61,17,-32,-8,-3,-1,12,31
1517204722762008,7,3,-16,1,4,5,13,25
1517204722770524,9,1,30,47,2,-4,-24,-29
1517204722770524,21,43,24,-4,9,2,0,-1
1517204722785535,-19,5,-14,-26,-9,-2,-1,-9
1517204722785535,42,5,40,17,5,6,15,-10
1517204722787026,-8,49,-45,10,2,-2,-2,4
1517204722787026,-19,-81,-87,-33,-16,-12,-3,4
1517204722808041,9,-1,44,28,11,7,8,-24
1517204722808041,-14,-4,4,0,3,-1,-31,-20
1517204722809544,-4,-5,-7,-41,-8,-6,17,-1
1517204722809544,13,17,-2,57,10,9,-7,4
1517204722823050,-19,-48,-21,-34,-14,-11,-6,27
1517204722823050,4,21,0,11,-9,-9,2,-3
1517204722824551,-3,-26,-29,-55,-3,1,-11,-3
1517204722824551,-34,-25,-10,18,1,0,5,-20
1517204722845566,66,15,-5,24,3,7,3,27
1517204722845566,-18,4,53,-4,-5,-4,-3,-6
1517204722847068,-2,17,29,5,12,6,-5,28
1517204722847068,29,51,10,9,-11,-3,3,-3
1517204722868082,-8,19,40,-2,13,5,-7,-23
1517204722868082,4,-27,-57,-13,-13,-5,-10,13
1517204722869583,7,-6,0,-12,3,5,19,16
1517204722869583,-11,3,20,55,11,2,-2,-52
1517204722882093,-7,33,-5,-29,-10,1,17,64
1517204722882093,-18,-9,9,-10,0,-1,-22,-72
1517204722889136,30,-40,-38,-32,-8,-6,6,19
1517204722889136,44,21,6,22,-2,-5,-6,7
1517204722905111,-9,-15,2,5,-1,-3,2,-16
1517204722905111,-17,-17,-12,-14,-5,-3,14,28
1517204722907112,13,-5,9,46,0,-4,-16,-41
1517204722907112,-47,-42,15,-45,-5,-4,-1,17
1517204722927645,11,31,19,1,1,2,3,5
1517204722927645,-12,9,-14,16,4,-2,-9,28
1517204722929658,-2,-46,-44,-15,-8,-5,-5,-6
1517204722929658,7,23,-1,12,4,-2,-11,-14
1517204722942134,-33,-45,-37,-18,-10,-5,-4,-12
1517204722942134,-2,21,45,34,14,7,14,-5
1517204722949152,-16,-53,-35,-9,-2,4,0,3
1517204722949152,23,-13,28,-7,-1,-2,5,25
1517204722965666,-38,-32,20,-31,-11,-9,-8,-18
1517204722965666,52,24,2,44,13,6,22,19
1517204722967167,-40,31,-6,-20,1,6,-7,-6
1517204722967167,-15,-10,-16,9,4,0,0,0
1517204722987679,6,-21,2,3,-7,-8,-14,-1
1517204722987679,-16,12,26,-23,-3,0,2,3
1517204722989675,18,38,15,25,2,-2,1,-6
1517204722989675,-14,-47,8,-11,-5,1,14,50
1517204723002200,-6,3,-30,-8,-2,-7,-23,-28
1517204723002200,14,20,11,-3,0,-2,-9,-24
1517204723009194,-18,-4,35,17,-1,-2,4,6
1517204723009194,41,30,-13,3,2,0,-9,8
1517204723025193,-25,-58,-63,-7,-3,-3,-6,-63
1517204723025193,-11,-3,49,0,0,2,24,65
1517204723027194,16,4,-8,-16,-3,-2,-24,-26
1517204723027194,-21,29,13,18,3,7,24,10
1517204723048235,32,22,44,-9,2,1,10,30
1517204723048235,3,-16,-21,1,-5,-6,-6,21
1517204723049710,6,-2,1,-18,-6,-7,1,-8
1517204723049710,2,-3,-57,-26,-6,1,4,0
1517204723062219,20,39,41,15,3,4,3,-3
1517204723062219,-13,-4,-42,-1,-7,-6,-18,-57
1517204723068750,-8,22,68,30,10,2,21,30
1517204723068750,-3,-4,-41,-33,3,5,-9,-27
1517204723085235,-36,4,12,-2,0,0,1,11
1517204723085235,45,-16,4,-14,0,2,-1,-11
1517204723086736,-31,-22,-77,5,0,-2,-4,2
1517204723086736,2,44,66,-23,-15,-5,-6,1
1517204723107752,20,21,-9,7,5,5,18,33
1517204723107752,11,-37,21,-1,5,5,1,6
1517204723109252,23,42,-46,-18,-5,-4,-7,-13
1517204723109252,5,19,36,27,6,-1,-6,0
1517204723122261,-7,6,-7,-4,3,7,17,13
1517204723122261,19,13,1,21,-5,-7,-5,-3
1517204723129280,-4,7,7,-43,-11,-5,-14,-26
1517204723129280,4,-19,-43,-12,-2,-4,13,4
1517204723145289,-3,-8,8,23,7,2,-1,22
1517204723145289,-18,-28,-22,9,-2,-4,-14,-21
1517204723146782,-38,-3,-38,-18,-6,-1,4,13
1517204723146782,17,-38,39,18,1,-1,-5,-25
1517204723167817,13,0,7,11,-3,-7,7,13
1517204723167817,-2,-7,-14,-23,2,3,0,-9
1517204723169296,-28,-17,29,-12,-6,-4,10,42
1517204723169296,8,11,72,13,-1,-3,-38,-56
1517204723182316,0,-8,-67,20,0,-3,8,7
1517204723182316,-24,5,-37,-38,-4,-3,-1,-8
1517204723188821,70,-4,26,11,6,11,24,1
1517204723188821,-46,9,-45,-8,-5,-4,-7,6
1517204723205330,-7,-95,14,22,5,-3,-12,-28
1517204723205330,-4,44,6,-3,-10,-6,-7,-7
1517204723206822,-10,-46,-58,-7,-1,1,20,2
1517204723206822,4,9,29,11,5,-2,5,25
1517204723227850,-7,8,-48,7,2,-1,-25,-23
1517204723227850,1,-17,-36,-13,-5,-1,11,29
1517204723229348,-13,-17,-24,-14,-5,-4,-19,-2
1517204723229348,-3,-19,16,23,5,-1,9,27
1517204723241847,12,8,-54,-22,-9,-8,-19,-35
1517204723241847,-19,-2,21,25,4,2,2,3
1517204723250352,-28,-2,3,-24,-5,-3,-13,-11
1517204723250352,14,13,-7,-18,1,0,6,14
1517204723265376,22,25,38,15,7,4,2,6
1517204723265376,10,7,-8,-19,-6,0,7,0
1517204723266873,-9,17,28,25,0,-3,-7,-8
1517204723266873,4,-18,-39,25,0,1,-10,-27
1517204723287888,-18,27,29,-36,-5,3,29,10
1517204723287888,28,-32,-39,-11,-4,-2,-27,1
1517204723289389,7,2,16,-21,-4,-6,-14,-40
1517204723289389,-19,29,4,23,5,-1,6,3
1517204723301404,-26,0,45,9,-4,2,19,28
1517204723301404,11,-10,-74,5,2,0,-9,-7
1517204723310396,4,-13,29,7,2,0,7,26
1517204723310396,27,16,14,-5,-3,-4,6,-9
1517204723325416,-6,-3,7,-29,-7,-4,-9,-2
1517204723325416,22,38,4,20,1,-2,19,38
1517204723326908,-15,7,-8,-39,-3,2,11,-12
1517204723326908,35,15,-11,13,2,-2,-2,-16
1517204723347921,-13,14,-16,-8,-3,-1,-6,-12
1517204723347921,-19,-2,37,-2,0,-1,-6,-9
1517204723349432,2,-21,29,34,3,-1,-1,1
1517204723349432,4,-36,-88,-22,-2,2,5,6
1517204723361433,24,38,12,0,-2,-3,-9,2
1517204723361433,-41,-78,-29,5,-1,-2,17,2
1517204723370450,31,42,-40,38,3,-1,-4,0
1517204723370450,-11,-9,39,-83,-13,0,8,21
1517204723385458,28,-24,-57,-10,-9,-10,-23,-10
1517204723385458,0,25,54,23,9,7,12,-21
1517204723386961,-9,-38,75,11,0,0,6,21
1517204723386961,-24,-8,-36,8,-3,-3,7,25
1517204723408465,2,-52,-66,-7,-4,-4,-26,-9
1517204723408465,17,31,15,11,1,0,-6,-11
1517204723409465,-20,-7,-19,-22,-2,-3,-6,-12
1517204723409465,1,0,10,18,3,2,-9,12
1517204723421483,-60,-37,12,-47,-10,-6,2,-12
1517204723421483,-17,26,32,24,5,0,-11,-26
1517204723430480,32,16,-18,-10,-4,-1,-18,-6
1517204723430480,-30,12,31,5,-5,-6,5,-11
1517204723445490,4,26,25,17,6,1,32,76
1517204723445490,-13,-13,-49,-20,-3,-3,-35,-12
1517204723447001,2,1,8,9,-2,0,14,15
1517204723447001,-5,17,13,6,3,1,-15,-34
1517204723468009,8,-3,56,21,6,4,1,2
1517204723468009,-2,-22,-32,-1,2,1,-3,-13
1517204723469507,36,60,67,-28,-5,2,15,5
1517204723469507,-18,-55,-91,-5,-6,-8,-17,1
1517204723481517,-3,-10,2,7,0,1,5,-12
1517204723481517,-7,-13,-1,0,-2,-3,5,8
1517204723490523,-11,-5,8,-17,1,-2,6,-22
1517204723490523,30,24,-18,-4,-4,-5,-22,-5
1517204723505545,-22,-9,28,14,7,6,7,-9
1517204723505545,-2,-11,30,-7,-7,-4,2,-14
1517204723507034,25,2,-97,-2,0,0,1,57
1517204723507034,-8,2,53,4,-3,-4,-5,-13
1517204723528049,10,23,-16,4,1,1,-3,2
1517204723528049,-56,-29,35,0,-5,-3,17,3
1517204723529564,9,-11,10,15,0,-4,-38,-35
1517204723529564,3,8,16,-2,5,7,12,9
1517204723541558,3,16,-52,-5,-6,-4,-7,-14
1517204723541558,-9,29,53,-1,0,3,11,9
1517204723550589,27,17,-38,13,0,-2,4,0
1517204723550589,-60,-19,13,-30,-6,0,-3,6
1517204723565577,24,21,35,-4,1,0,0,-2
1517204723565577,10,16,-12,2,3,1,-5,-3
1517204723567078,-25,-9,3,-7,-2,1,8,-8
1517204723567078,47,-13,12,25,2,1,2,21
1517204723587112,-20,31,8,-8,-7,-7,4,-7
1517204723587112,-16,-38,-47,-19,-4,-4,-11,-8
1517204723588092,17,19,-15,14,3,4,18,49
1517204723588092,-24,-10,11,17,0,0,15,-10
1517204723609619,9,6,-9,-17,3,3,-8,48
1517204723609619,12,-19,-15,-3,-2,-4,-25,-70
1517204723610610,1,7,8,5,2,1,-7,-4
1517204723610610,8,23,36,5,-2,-2,12,-2
1517204723633137,7,-36,-35,8,2,0,-11,-7
1517204723633137,10,26,40,-6,-3,-3,3,32
1517204723633625,7,5,-30,11,6,3,12,-16
1517204723633625,-22,-24,-10,-40,-11,-2,-21,14
1517204723647143,10,-53,-33,13,0,-1,6,-17
1517204723647143,19,33,1,-7,2,-1,-9,-2
1517204723648136,13,3,48,8,-1,0,8,0
1517204723648136,-7,-20,-59,2,2,-1,3,-1
1517204723669660,4,21,24,-19,-8,-4,-6,-20
1517204723669660,24,3,-28,16,5,3,11,16
1517204723670660,-13,-41,17,9,-4,-6,-12,-5
1517204723670660,-6,0,-36,-10,-1,0,1,3
1517204723684672,3,11,0,1,4,4,22,16
1517204723684672,-6,-13,-6,5,-4,-5,-12,-5
1517204723685671,1,16,24,13,4,1,-9,-1
1517204723685671,-1,6,-16,-6,-4,-3,7,-8
1517204723707185,-11,10,14,11,1,3,-8,23
1517204723707185,3,-25,-56,2,4,1,9,-20
1517204723708188,0,40,39,18,0,0,12,14
1517204723708188,-1,-31,-24,-14,-8,-5,-4,7
1517204723729694,2,5,3,12,2,0,-5,-25
1517204723729694,-12,23,17,-23,-12,-5,-3,28
1517204723730191,2,-8,-4,-3,1,-2,-11,-10
1517204723730191,8,-6,-12,14,8,2,0,-50
1517204723744704,-3,-12,-23,6,-3,-4,1,2
1517204723744704,-16,2,-2,-24,-13,-7,-4,7
1517204723745205,-1,-24,-40,-31,-5,-1,0,-34
1517204723745205,15,46,68,23,6,3,-5,11
1517204723767240,-17,-62,-42,-13,-12,-13,-18,-22
1517204723767240,3,26,20,27,9,7,17,1
1517204723767728,-27,-27,-8,-12,1,-3,-25,0
1517204723767728,7,-11,-26,-7,-5,-6,4,12
1517204723789747,8,33,56,9,5,5,2,-13
1517204723789747,-3,8,2,1,-2,-3,-3,0
1517204723790736,-11,-43,-6,-10,-8,-7,-2,-8
1517204723790736,26,40,-8,19,7,3,-9,-27
1517204723804757,-40,-52,-4,-9,-5,-2,-6,9
1517204723804757,8,-12,15,-7,2,-1,0,-16
1517204723805258,2,3,-31,-30,-11,-6,9,-8
1517204723805258,2,1,31,12,4,-1,-1,16
1517204723827264,8,-16,-29,8,3,2,9,-1
1517204723827264,-1,21,-24,-7,-4,2,7,29
1517204723827766,-10,7,20,0,0,-4,-19,-12
1517204723827766,-5,-4,-1,13,3,3,10,3
1517204723849777,-1,7,48,-6,0,-1,-6,-13
1517204723849777,-4,11,-2,19,2,4,8,51
1517204723850277,-38,-16,1,-12,3,1,-7,-76
1517204723850277,16,-33,-50,-24,-5,-3,-1,45
1517204723864805,21,25,28,34,5,0,-6,11
1517204723864805,-16,-13,-5,-7,-2,-1,-14,-51
1517204723865287,45,3,-7,3,-3,-1,17,28
1517204723865287,-10,0,-22,-19,-4,-4,-16,6
1517204723887302,-34,-20,-1,17,5,4,11,-7
1517204723887302,20,-2,52,-6,-5,-8,-10,1
1517204723887803,6,55,-11,1,-5,1,21,25
1517204723887803,-43,-42,20,-8,-1,-5,-11,-34
1517204723909820,19,-2,-17,-15,-7,-4,-3,10
1517204723909820,-23,-8,-52,-13,-8,-8,-13,-3
1517204723910320,9,30,41,7,9,4,-4,2
1517204723910320,-3,-39,-14,-4,-8,-3,19,23
1517204723924831,0,21,-6,-11,-1,0,-9,-14
1517204723924831,23,-29,-24,2,0,2,11,-5
1517204723925331,7,-36,14,20,9,4,-17,22
1517204723925331,-5,16,-9,-19,-8,-6,2,7
1517204723946847,6,13,2,-4,-2,-3,-7,-19
1517204723946847,1,27,4,8,5,1,1,-14
1517204723954888,3,26,5,-7,-4,-1,6,13
1517204723954888,5,13,-2,41,7,2,4,-2
1517204723969864,3,10,17,-17,2,0,7,11
1517204723969864,20,34,11,-22,-5,-4,-8,-29
1517204723970361,-9,-42,1,-10,-3,-6,-8,6
1517204723970361,-19,15,42,10,2,-1,-2,-17
1517204723984387,51,30,-14,-4,-3,2,9,10
1517204723984387,-3,15,27,8,2,-1,-4,-35
1517204723985374,-13,-32,7,3,-1,-5,-12,-18
1517204723985374,1,-3,-1,-16,-2,3,9,25
1517204724007392,28,-14,-13,-10,-3,-5,3,-14
1517204724007392,-22,-17,25,-3,-2,1,8,-2
1517204724007891,-4,17,8,10,-2,-1,-9,-4
1517204724007891,-11,-38,-76,-18,-7,-4,0,-8
1517204724029504,14,-10,12,10,4,0,3,3
1517204724029504,-6,-8,-23,-10,-3,-1,21,33
1517204724031496,-12,-1,6,3,-1,-3,-15,8
1517204724031496,12,-10,33,16,7,4,-10,-32
1517204724044519,-11,-7,-89,-17,-7,-6,3,3
1517204724044519,-7,-31,27,1,2,0,-3,25
1517204724045507,12,-4,-13,5,2,3,-1,-22
1517204724045507,-41,27,28,-11,-4,-6,-3,3
1517204724067052,-25,-15,26,17,5,2,-8,-31
1517204724067052,2,-5,-17,11,-1,0,-1,10
1517204724068041,0,10,-29,-34,-5,1,4,10
1517204724068041,27,-21,25,3,-2,-4,-36,-30
1517204724089573,-14,-7,4,-1,1,0,-11,-3
1517204724089573,5,-6,-7,-8,-7,-6,9,12
1517204724090537,-20,-15,-17,5,0,0,-7,12
1517204724090537,28,-2,40,15,7,5,10,7
1517204724104571,-39,12,-34,-24,-11,-7,-1,4
1517204724104571,45,-19,36,16,5,2,-4,2
1517204724105569,9,11,-28,-3,-5,-7,-10,-6
1517204724105569,17,23,-11,-5,-2,0,7,3
1517204724127063,3,45,58,23,7,3,-11,-1
1517204724127063,-44,-49,-56,-23,-8,-3,6,17
1517204724128064,-22,45,7,8,3,3,14,-7
1517204724128064,26,-33,9,6,4,2,-14,1
1517204724149579,-2,12,-24,-28,-17,-11,-9,-11
1517204724149579,-13,37,5,14,6,3,0,-2
1517204724150579,2,-16,0,14,4,5,11,21
1517204724150579,-33,7,17,-33,-8,-1,0,-13
1517204724164604,17,-12,-11,12,1,-2,-3,1
1517204724164604,2,1,-33,0,2,1,-12,-26
1517204724165590,-10,-52,-11,5,-2,2,13,6
1517204724165590,25,70,-29,2,1,-4,-11,10
1517204724187119,-15,-34,3,-23,0,2,-2,-3
1517204724187119,-4,-21,-28,3,-1,1,5,7
1517204724188120,-4,16,10,2,-5,-1,-2,-3
1517204724188120,25,19,14,5,2,0,2,-18
1517204724209631,27,24,24,4,-2,-4,19,26
1517204724209631,23,24,28,6,5,7,0,1
1517204724210623,-20,-44,-43,-28,-12,-9,-4,-12
1517204724210623,-6,-7,1,16,2,1,3,-9
1517204724224133,20,24,20,7,7,5,9,24
1517204724224133,-29,20,63,5,-3,-3,-6,-25
1517204724232151,2,-11,-60,-5,-5,-4,-6,-7
1517204724232151,15,18,-1,-9,-3,-2,15,26
1517204724247147,-37,-25,-9,-11,-4,-3,-11,-8
1517204724247147,0,5,-7,7,1,-3,-11,9
1517204724248149,-1,21,66,-9,-4,-5,6,-4
1517204724248149,-36,-91,-107,1,-1,1,-4,-4
1517204724269663,-6,2,2,7,1,1,3,-13
1517204724269663,5,-5,-1,-9,-1,0,-12,-12
1517204724270664,0,-11,4,2,-4,-4,11,30
1517204724270664,10,29,61,25,10,4,0,-11
1517204724284175,0,-6,-36,-25,-10,-3,-8,-41
1517204724284175,0,14,20,4,4,0,15,13
1517204724292180,1,-23,-58,-5,-5,-4,-8,3
1517204724292180,-39,13,58,-16,-1,-1,-3,-11
1517204724307202,-30,-70,-78,-6,-4,-3,-1,6
1517204724307202,22,-7,12,0,-8,-8,-10,-10
1517204724307691,-2,10,20,-8,2,4,-1,-10
1517204724307691,12,25,1,-1,-3,0,11,17
1517204724329711,19,-12,22,17,-1,-2,-2,-7
1517204724329711,-9,-2,-10,-15,-3,1,-3,24
1517204724330223,17,40,51,2,1,-1,-2,-2
1517204724330223,-21,20,-19,1,-1,-1,-4,-32
1517204724344216,13,15,-6,0,-5,-4,-16,11
1517204724344216,-2,11,3,17,8,5,3,-3
1517204724352222,-25,9,6,-17,-7,-7,-1,2
1517204724352222,23,22,36,8,-4,-3,-8,-9
1517204724367235,-18,32,41,1,5,4,0,-1
1517204724367235,-24,-29,-21,-12,-8,-2,0,-10
1517204724367733,24,2,14,10,5,-2,-11,7
1517204724367733,-17,-59,-19,6,-1,-3,11,21
1517204724389748,-8,3,-25,-19,-2,0,-2,2
1517204724389748,9,-42,-25,-6,-4,-4,-5,13
1517204724390250,2,19,6,19,9,6,10,-17
1517204724390250,5,3,-35,-6,-5,-5,-4,19
1517204724403768,13,-6,11,6,-1,-2,-17,-49
1517204724403768,0,19,4,-14,-8,-4,1,4
1517204724412269,-4,-37,2,15,3,2,-3,1
1517204724412269,-11,1,-21,5,8,3,6,-10
1517204724426836,12,18,19,-4,-4,2,12,25
1517204724426836,11,22,26,-3,2,0,0,-4
1517204724434849,2,-68,-39,-10,-6,-3,-23,-26
1517204724434849,4,-26,-22,9,3,3,-3,-3
1517204724449851,-7,12,31,12,1,0,7,16
1517204724449851,-18,11,7,5,4,1,2,-9
1517204724450357,5,57,39,0,-5,0,1,-7
1517204724450357,-22,-10,22,-4,-1,2,6,15
1517204724463893,-15,-14,5,-1,1,-5,-9,-3
1517204724463893,10,-3,-14,-6,-5,-4,-2,-7
1517204724472369,-6,6,6,-2,2,1,4,2
1517204724472369,7,23,-2,-1,-7,-4,0,2
1517204724487376,6,-11,5,5,5,2,3,4
1517204724487376,-5,9,-6,-1,-3,-1,-1,-3
1517204724487876,-6,-23,-23,-20,-8,-5,1,1
1517204724487876,14,6,14,2,-1,-3,-4,0
1517204724509892,6,5,-9,4,0,-1,1,6
1517204724509892,1,9,9,-2,-1,-2,-4,-2
1517204724510404,-6,12,3,7,0,0,1,2
1517204724510404,0,-5,-20,-8,-4,-2,-1,0
1517204724523904,-1,4,3,-3,-3,-2,-1,-1
1517204724523904,-6,-14,-8,-9,-3,-2,0,-3
1517204724532413,4,7,0,5,1,0,2,3
1517204724532413,2,-1,3,-13,-7,-3,-1,0
1517204724546926,0,-9,1,0,2,1,1,1
1517204724546926,3,-4,6,13,0,0,-2,-2
1517204724547926,0,-3,-15,-23,-4,-2,1,4
1517204724547926,5,2,3,0,0,1,0,2
1517204724570959,-1,1,-4,2,-2,0,-3,-1
1517204724570959,-3,-8,-10,3,-2,-3,-2,0
1517204724571960,-1,6,-3,7,2,0,-2,-2
1517204724571960,-1,-1,2,-10,-3,-2,0,-1
1517204724592966,-1,-3,-2,0,-2,-4,0,-2
1517204724592966,1,-2,-2,-1,0,0,2,2
1517204724593451,-2,2,3,12,0,-4,0,0
1517204724593451,1,1,0,-17,0,-2,-2,0
1517204724607461,-3,-7,-5,3,0,0,0,1
1517204724607461,-2,-2,1,-5,0,-3,-3,-1
1517204724607962,-2,-3,-6,1,-3,-3,-1,1
1517204724607962,-1,-3,-2,-3,0,1,-1,-3
1517204724629477,-2,0,-1,-2,3,2,0,0
1517204724629477,0,-12,-6,-3,-2,0,1,-1
1517204724630478,-2,4,4,-2,1,0,0,-1
1517204724630478,1,-3,7,12,-5,-3,-1,-1
1517204724653027,2,5,-1,-8,-2,-3,0,2
1517204724653027,-1,-3,-10,7,1,0,-1,-2
1517204724653495,1,-1,-4,-10,2,2,0,-1
1517204724653495,-2,-6,-5,-2,-3,-3,-2,1
1517204724676011,-2,-7,-7,10,1,-2,-1,-2
1517204724676011,0,4,4,-21,1,0,1,-1
1517204724677012,-1,3,10,20,-3,-4,-3,-2
1517204724677012,-1,0,6,-7,-5,0,-1,-1
1517204724689577,0,-3,-4,-5,0,0,0,0
1517204724689577,-4,-2,-1,7,0,-2,-2,-1
1517204724690521,-2,-3,-18,-11,-2,1,1,1
1517204724690521,-6,-5,2,1,2,1,-1,-2
1517204724713036,0,-2,-8,0,-3,-2,-1,-1
1517204724713036,0,3,8,-2,0,-1,0,0
1517204724713537,2,-1,2,0,0,-1,-2,-2
1517204724713537,-5,-4,-3,2,0,-2,-2,1
1517204724727046,-3,-8,-2,-5,-2,-2,0,-4
1517204724727046,0,-1,4,5,0,-2,-1,-1
1517204724728070,7,21,4,-1,0,-3,-2,0
1517204724728070,28,24,-1,11,5,1,3,5
1517204724749589,-36,-49,-13,-19,-5,-2,-2,-8
1517204724749589,1,1,9,1,-1,-2,-2,0
1517204724750563,-1,-5,-6,-2,-2,-2,-2,-4
1517204724750563,7,7,4,-3,-2,-1,-1,3
1517204724772578,12,17,-2,6,1,-1,-2,2
1517204724772578,-1,0,-5,-1,-1,2,0,-2
1517204724773579,-8,-7,-4,-7,-1,-2,0,1
1517204724773579,-1,1,0,1,1,-1,1,-2
1517204724787115,3,1,1,1,-3,-3,-3,0
1517204724787115,-7,-8,-5,-3,-2,-2,-2,0
1517204724788116,0,-1,-4,-3,-1,-1,-1,-1
1517204724788116,-7,-10,-5,-5,-2,-3,-3,-1
1517204724809604,4,6,6,0,-2,-2,-1,0
1517204724809604,2,2,-4,-3,-1,0,0,1
1517204724810615,-1,-4,1,-1,-2,-1,-1,-3
1517204724810615,-8,-3,-5,-3,-1,-1,-2,-2
1517204724832620,4,6,4,-2,0,-1,0,3
1517204724832620,-1,-1,-3,2,0,-3,-3,-3
1517204724833621,-3,-6,1,-2,-3,0,0,-3
1517204724833621,-5,-8,-7,-4,-2,-2,-1,-2
1517204724855155,3,4,3,2,1,2,0,-1
1517204724855155,-1,-1,-1,0,-2,0,0,0
1517204724856138,-3,-3,0,-2,-2,-2,-1,-1
1517204724856138,-3,-2,-3,-2,0,0,-1,-4
1517204724869650,1,1,1,2,-2,-4,-3,0
1517204724869650,-1,0,-1,-1,-4,-1,0,-1
1517204724870647,-1,-2,-3,-3,-2,-1,0,2
1517204724870647,-2,-4,0,0,-1,0,-2,-2
1517204724892675,1,-1,3,1,0,0,0,0
1517204724892675,-1,-3,-3,-4,-2,0,-2,0
1517204724893676,0,1,-1,-4,-3,-2,-1,-3
1517204724893676,-1,-3,-1,-1,0,-1,-2,-1
1517204724907183,0,2,-1,-2,-2,0,-2,-1
1517204724907183,0,2,-1,-2,-1,-3,0,-1
1517204724908174,0,-2,0,-1,-1,1,-1,1
1517204724908174,-3,-3,-1,0,-2,-2,-1,-2
1517204724929692,-1,1,1,0,-1,1,-1,-2
1517204724929692,-1,0,0,0,-3,-1,-2,-2
1517204724930690,-2,-1,-1,0,1,-1,-1,0
1517204724930690,-2,-3,-3,-2,-1,-2,-2,-1
1517204724952726,1,0,-1,-1,0,1,0,2
1517204724952726,-2,-1,-2,0,-1,-3,0,-2
1517204724953730,-2,-1,-1,0,-1,1,-3,-2
1517204724953730,-3,0,-2,-1,-3,-2,-1,-1
1517204724967231,-1,0,-1,0,-1,-2,0,-1
1517204724967231,0,-1,0,-2,-1,-1,-2,0
1517204724967716,-2,-3,0,-1,-2,-1,0,-2
1517204724967716,1,-2,-2,-1,-2,-3,1,-2
1517204724989763,-1,0,0,-2,-1,-1,-2,-1
1517204724989763,-1,-2,-2,-2,-2,0,-1,-1
1517204724990243,0,-2,-1,0,1,0,-1,0
1517204724990243,-3,-2,-1,-1,0,-1,-1,-1
1517204725012748,0,0,-1,-2,-1,-2,0,2
1517204725012748,0,-1,-1,0,1,0,0,-2
1517204725013748,0,-1,-2,-1,0,-1,0,-1
1517204725013748,-1,-2,-2,-2,-1,0,-1,-2
1517204725027258,-1,-1,-1,-1,-3,1,-1,-2
1517204725027258,-2,0,-1,-2,-1,-1,-2,0
1517204725027759,-2,-1,-1,1,-3,0,0,-2
1517204725027759,-1,1,-3,0,-2,-1,-2,2
1517204725049778,-3,0,-1,0,0,-2,-1,-1
1517204725049778,-1,-3,-1,-1,0,0,-2,-1
1517204725050274,-2,-3,-1,0,-2,-1,-2,-1
1517204725050274,-2,0,-2,-2,-2,0,-1,-2
1517204725073305,0,-1,1,0,-2,0,-3,-2
1517204725073305,-1,1,-2,1,-1,-1,0,-1
1517204725074291,-2,-2,-1,-2,0,-3,-2,0
1517204725074291,-1,-3,0,-1,-1,-1,-2,-1
1517204725087300,-1,0,-1,-2,-1,-1,0,-1
1517204725087300,-2,-2,-2,0,-2,-2,-1,0
1517204725087800,0,-1,-1,-3,-1,0,-1,0
1517204725087800,-1,0,0,-2,-2,-2,0,-2
1517204725109816,0,-1,-1,0,-2,0,1,-1
1517204725109816,-1,-2,-2,-2,-3,-3,-1,1
1517204725110317,-1,-1,-2,-2,-1,0,-1,0
1517204725110317,-3,0,-1,0,-1,-1,-1,-1
1517204725132842,-2,-2,-4,0,2,-1,-1,0
1517204725132842,-1,-1,-1,-1,0,-1,3,-2
1517204725133834,0,0,0,-1,0,-2,-1,-2
1517204725133834,-1,-2,-2,-1,0,-1,-2,0
1517204725146342,1,-2,-1,0,-2,1,-2,0
1517204725146342,-1,-1,0,-2,-2,-1,-2,-1
1517204725154883,-2,-1,0,0,0,0,1,-2
1517204725154883,0,-2,-2,-1,0,-1,-3,-1
1517204725169859,-2,-2,-1,0,-1,-2,-1,0
1517204725169859,0,-1,-1,-2,-1,-2,-1,0
1517204725170360,-2,1,-1,-1,-2,-3,1,-1
1517204725170360,-1,1,-2,-1,-1,0,0,-2
1517204725192877,-1,-2,0,-1,-1,-2,-1,-1
1517204725192877,0,-2,-1,-1,0,0,-2,0
1517204725193383,1,-2,-2,-1,-1,-2,-1,-1
1517204725193383,1,-2,-2,-1,-1,0,-1,0
1517204725206388,0,1,0,-2,-1,-2,-1,0
1517204725206388,-2,-1,0,-2,-1,-1,1,-2
1517204725214391,0,-1,-1,-1,-2,-2,0,-2
1517204725214391,-2,-2,0,-1,-2,-2,-3,-2
1517204725229911,-2,0,-1,-1,1,-1,-3,-2
1517204725229911,-2,-1,-3,-3,-2,-1,-1,0
1517204725230902,-2,-1,-1,-1,0,-1,0,0
1517204725230902,0,0,0,-1,-1,-1,-1,0
1517204725252921,-1,0,-1,0,-2,-1,-1,-3
1517204725252921,0,0,0,0,-2,1,0,-1
1517204725253418,0,-1,-2,-2,-1,0,-2,-2
1517204725253418,-2,-2,-1,-1,0,-2,-1,-1
1517204725266442,-1,0,-2,-1,-1,-3,0,-2
1517204725266442,1,-1,-1,-1,0,-2,-1,-1
1517204725274443,-1,-1,-1,-1,-2,-3,-1,-1
1517204725274443,-1,-1,-1,-2,0,-1,1,-2
1517204725289504,-1,0,0,0,-2,-1,-2,-1
1517204725289504,-1,0,-1,0,-1,-2,0,-2
1517204725290455,0,0,-1,-2,-1,-1,0,-2
1517204725290455,-1,-3,-1,-1,-1,-1,-1,0
1517204725312960,-1,-1,-2,-1,-1,0,1,0
1517204725312960,0,-1,-1,0,-1,-1,-2,-3
1517204725313462,-1,-1,-1,0,0,-2,-1,-1
1517204725313462,-1,2,-1,-2,-1,-3,-2,-1
1517204725326471,0,-3,-1,-1,-2,-2,-1,-1
1517204725326471,-2,-1,-2,-1,-3,-1,-1,-1
1517204725334554,-3,-2,0,-1,-1,0,-1,-2
1517204725334554,-1,1,-3,0,-2,-1,-1,0
1517204725350557,-1,-1,-1,-2,-1,-2,-2,-1
1517204725350557,0,-1,0,-1,1,-1,-3,-2
1517204725351058,1,-1,-1,-3,0,-1,-1,-2
1517204725351058,-1,-1,-2,-1,0,-2,-1,-3
1517204725373091,-2,-1,-1,-1,-2,-1,0,0
1517204725373091,-1,-1,-1,0,0,-1,-2,0
1517204725373573,-2,-1,-1,0,-2,0,0,1
1517204725373573,-1,0,0,-2,-1,0,1,-1
1517204725386585,0,-2,-1,-1,0,0,-2,0
1517204725386585,-2,-2,-1,-2,-2,-1,1,-2
1517204725394601,-2,-1,-2,1,-2,-1,-2,0
1517204725394601,0,-1,-1,-1,0,-1,-2,-1
1517204725410098,-1,1,0,-1,-2,1,0,-1
1517204725410098,-4,-1,0,-1,-2,-1,-1,-1
1517204725411101,0,1,-2,-2,-1,-3,0,-1
1517204725411101,-1,-2,-1,-2,-1,-1,1,0
1517204725432614,-1,0,-1,-2,-1,0,-1,0
1517204725432614,-2,-1,-2,-1,0,0,-2,-2
1517204725433615,-1,-1,0,-2,-1,-1,-2,-2
1517204725433615,-1,-1,-1,0,-2,0,-1,1
1517204725446626,0,-3,-3,0,-1,-1,1,0
1517204725446626,0,-3,-1,-1,-2,-2,0,-2
1517204725454648,-3,-1,-2,-1,-3,0,0,0
1517204725454648,-2,0,1,0,0,-2,-2,-1
1517204725470157,-1,-1,-1,-2,-1,0,1,-1
1517204725470157,-2,-1,-1,0,-1,-1,1,-1
1517204725471142,0,-2,-3,1,-1,-1,-2,0
1517204725471142,-1,-1,-1,-2,-1,1,0,-1
1517204725492670,0,1,0,-1,-2,0,1,-1
1517204725492670,2,-1,-3,-1,-1,-1,-1,1
1517204725493667,-1,-2,0,0,-1,0,1,-2
1517204725493667,-1,0,-1,-2,-1,1,-3,-1
1517204725515682,0,-1,0,-1,0,-1,-1,-1
1517204725515682,-1,-3,-2,-2,-3,-5,-2,-1
1517204725516674,-1,-1,-1,-1,0,2,0,-1
1517204725516674,-1,1,-2,-1,-2,-1,-1,-2
1517204725530199,-1,-1,-1,-1,0,-3,-1,-2
1517204725530199,0,1,-2,-2,-1,-2,-1,-1
1517204725532075,-1,-3,0,-1,-2,0,0,-1
1517204725532075,-2,-3,-1,-1,-3,-1,-2,-1
1517204725552589,-2,0,-1,-1,-3,0,0,-2
1517204725552589,0,0,0,-2,-1,1,0,0
1517204725553590,0,-1,-2,-1,0,-2,-3,-1
1517204725553590,-1,0,-1,-2,0,-2,-1,-2
1517204725575615,-1,-1,-2,-1,-1,-1,-3,0
1517204725575615,0,0,0,-2,-1,1,0,-1
1517204725576105,0,-1,-1,-2,-1,-1,-3,0
1517204725576105,-2,-2,-1,-1,-1,-1,-1,-1
1517204725590119,-2,-2,-2,-1,-1,-1,0,0
1517204725590119,-1,-1,-1,0,0,-1,-1,-2
1517204725591117,0,0,0,-3,-1,-1,0,1
1517204725591117,1,-1,1,2,-2,-2,2,-2
1517204725611631,0,-2,-1,1,-1,-2,0,0
1517204725611631,-2,1,-1,-2,-3,-1,0,-1
1517204725619640,-3,-4,-1,-1,1,0,-1,-1
1517204725619640,0,-1,-1,-2,-1,-2,-1,0
1517204725635148,-1,0,0,-2,0,0,-2,0
1517204725635148,0,-3,-2,-1,-1,0,-2,-1
1517204725636149,0,-1,-1,-3,-2,-3,0,0
1517204725636149,0,-1,-2,-1,-1,0,-1,-2
1517204725649159,0,-1,0,-1,2,-2,-2,-2
1517204725649159,-1,1,-1,-1,-2,-1,-1,0
1517204725658166,-4,0,-1,-2,0,-1,0,-1
1517204725658166,-1,-2,0,-2,1,-2,0,0
1517204725672698,-1,-1,-2,-2,-1,0,-3,-3
1517204725672698,-2,-1,0,0,0,-1,0,-2
1517204725674678,-1,-1,-1,1,-3,0,-2,-1
1517204725674678,-2,-1,-1,-2,-3,-3,-3,-1
1517204725695193,-2,-1,-1,0,-1,-2,0,-1
1517204725695193,-2,-2,-1,-1,0,-1,-2,-1
1517204725697195,0,0,-3,-1,-1,-2,-1,-2
1517204725697195,-1,-2,-2,2,-1,-2,-1,-1
1517204725709204,0,-2,-1,-2,-3,-1,-1,-1
1517204725709204,0,-1,-2,0,1,-1,-1,0
1517204725717721,-1,0,-2,-1,0,-1,-1,0
1517204725717721,0,-1,-1,1,0,1,-1,0
1517204725732717,-2,0,-1,0,-1,-3,-1,-2
1517204725732717,-1,-2,-1,-1,0,-1,-1,-2
1517204725734729,-2,0,-1,-1,0,0,-3,-2
1517204725734729,-2,0,0,-2,-1,-1,-1,0
1517204725755274,-1,1,1,-3,-1,-2,-1,-1
1517204725755274,-2,-2,0,-1,-1,-1,0,0
1517204725756736,-1,-2,0,-1,-1,-3,-2,-1
1517204725756736,-2,0,-1,-3,-2,2,-1,0
1517204725769242,-1,-2,-2,0,-1,-1,-2,1
1517204725769242,0,0,-2,-2,-2,-2,-1,-2
1517204725777749,0,-1,-1,-1,-2,1,0,0
1517204725777749,0,-1,-2,-1,-1,0,0,-2
1517204725792777,-1,0,2,-2,-2,-1,-2,-2
1517204725792777,-3,0,0,-2,0,-1,-1,-2
1517204725794260,-1,-1,-1,-2,-2,-3,-1,0
1517204725794260,0,-2,-1,-1,-1,-3,-2,-1
1517204725822804,-1,0,-2,0,-3,1,0,0
1517204725822804,-1,-1,0,0,-2,0,-1,-1
1517204725824282,0,-2,-2,0,-1,-2,-1,-2
1517204725824282,-2,-1,-2,1,0,-2,0,-1
1517204725829797,-2,-3,-1,-1,-1,0,0,-1
1517204725829797,-1,-1,-1,-1,-1,0,-1,0
1517204725836290,-1,-1,-1,-2,-2,-1,-1,0
1517204725836290,-1,1,-1,-1,0,0,-1,0
1517204725852845,-2,-1,-4,0,0,-1,-2,0
1517204725852845,1,-2,1,-2,-2,-1,-1,-2
1517204725854305,0,0,-1,-2,0,1,2,0
1517204725854305,-1,-1,0,-1,-2,0,0,-1
1517204725875822,-1,0,-1,0,-1,-2,-1,-2
1517204725875822,-1,-1,-2,0,-1,-1,0,0
1517204725876820,-2,0,0,-1,-2,-2,0,-2
1517204725876820,-1,-1,-1,0,-1,-2,0,-2
1517204725889828,0,0,-1,-2,0,0,-1,-2
1517204725889828,-1,-1,-1,0,-2,-1,0,0
1517204725896336,-1,0,0,-1,1,0,0,-1
1517204725896336,-3,-1,0,-2,-2,-1,-2,-1
1517204725912863,-1,-3,0,0,-2,-3,-1,0
1517204725912863,0,-1,-1,-1,1,1,-1,1
1517204725914351,-1,0,-1,-2,-1,-2,-3,-1
1517204725914351,-1,1,-3,0,-1,-1,-3,-1
1517204725935361,0,0,0,-1,-3,-2,1,0
1517204725935361,-1,-1,-2,-3,-2,-1,1,0
1517204725936879,0,-3,-2,0,0,0,0,-1
1517204725936879,-1,-1,-1,-1,-1,0,-1,-1
1517204725949874,-1,-2,-2,-2,0,-1,-3,-1
1517204725949874,-1,-1,-2,-1,-1,-2,-2,-1
1517204725956414,-1,-2,-2,-1,-1,0,-3,1
1517204725956414,0,-2,0,-1,-2,-2,-1,-1
1517204725972904,1,-1,0,1,0,0,-1,-3
1517204725972904,-2,0,1,0,-2,-2,-2,-4
1517204725974391,-2,0,-1,-2,-1,-2,-1,-1
1517204725974391,-1,-2,-1,0,-1,-1,-2,0
1517204725995406,0,-1,-2,-2,-1,-2,-1,-3
1517204725995406,0,-2,-3,-1,-2,-1,1,-1
1517204725996907,0,-1,-1,-2,-1,-2,-2,-1
1517204725996907,-2,-2,-1,0,-1,-2,-2,-1
1517204726009412,-1,1,-1,-1,-2,-1,0,1
1517204726009412,-1,0,-1,-2,-1,-2,-1,-2
1517204726017920,-1,0,-2,1,-1,-1,0,-2
1517204726017920,-3,0,-3,-3,-1,-1,-1,-2
1517204726032995,0,-2,1,-1,0,-1,-2,1
1517204726032995,-1,-1,-2,-3,-1,0,0,0
1517204726034496,-1,0,-1,0,1,0,-1,0
1517204726034496,-1,0,-2,-2,-1,-1,-1,-1
1517204726055526,-2,-3,-2,-2,-3,0,1,-2
1517204726055526,-1,-3,-1,0,1,0,-1,-1
1517204726057015,-2,-1,-1,-1,-4,-2,-2,-2
1517204726057015,0,1,-1,0,-1,0,-2,-2
1517204726069043,-3,0,-1,-2,1,-1,-2,0
1517204726069043,-1,-1,-1,0,-1,-1,-1,0
1517204726078027,-1,-1,-2,-1,-1,-1,1,0
1517204726078027,-1,-3,-1,-1,0,-1,-1,-2
1517204726100566,0,0,-2,1,-4,-2,-3,1
1517204726100566,-3,0,-1,0,-1,0,-2,-1
1517204726102045,-1,-3,-3,-2,-2,0,-2,-2
1517204726102045,0,-1,0,-1,-2,-1,1,-2
1517204726115554,-1,-2,-2,-2,-1,-2,0,-1
1517204726115554,-1,-1,-1,-2,-2,-4,-4,-2
1517204726117075,-1,-1,0,0,-2,0,0,0
1517204726117075,-2,0,0,0,2,-2,-2,1
1517204726129077,-2,-2,-1,0,0,0,-1,-1
1517204726129077,-1,0,-2,-1,0,-3,-1,-2
1517204726138070,-1,-1,-2,-2,-3,-1,-3,-2
1517204726138070,-1,-1,-2,0,-2,-2,-1,0
1517204726153086,1,-1,-1,-2,0,-3,0,-1
1517204726153086,0,-2,-1,-1,0,-1,0,0
1517204726154595,-1,-1,-1,-2,0,-1,0,-1
1517204726154595,0,-1,0,-1,-1,-2,-1,-2
1517204726182601,-4,0,-2,0,-2,-1,-2,0
1517204726182601,-1,-2,-2,-1,-3,-1,-1,-2
1517204726184602,1,-1,-2,0,-1,-1,-1,-2
1517204726184602,-2,-1,0,0,-2,-2,-2,-1
1517204726189120,-2,-1,-2,-2,-1,-3,-1,-1
1517204726189120,-2,-2,-1,0,-1,0,-1,0
1517204726198125,-2,-2,-1,-1,-2,-1,-1,-1
1517204726198125,-2,-2,-2,-2,-1,0,0,0
1517204726212621,0,0,0,0,-1,-1,1,-3
1517204726212621,-2,-1,-1,-2,-2,-2,-1,0
1517204726214641,-1,-2,0,0,0,-1,-2,-1
1517204726214641,0,-1,0,-1,-1,1,-4,-2
1517204726235139,-1,-1,-1,-2,-2,-1,-3,-2
1517204726235139,-1,-1,-1,1,-1,-1,-1,-2
1517204726237158,-2,-2,-2,-4,-2,-1,-1,-1
1517204726237158,0,0,-1,-2,-1,-1,1,0
1517204726249170,0,-1,-1,1,0,0,1,-3
1517204726249170,-1,-2,0,-2,-2,-1,0,-1
1517204726258155,-2,-1,0,-1,-1,-1,-2,-2
1517204726258155,-1,-3,-1,-2,-1,0,-2,-2
1517204726273166,1,-1,-3,-3,0,1,0,0
1517204726273166,-1,0,-1,1,1,-2,0,-2
1517204726274674,-2,1,-1,1,0,-1,-2,-1
1517204726274674,-2,-2,-1,-1,-2,-2,-2,-1
1517204726295183,-2,-1,-1,-1,-2,-1,0,-2
1517204726295183,-1,-1,0,-2,0,-1,-2,-2
1517204726297184,-1,-2,0,-1,-1,-2,-1,-1
1517204726297184,-1,1,-2,0,0,-1,-1,-2
1517204726309190,-1,-2,0,-1,-1,0,-2,0
1517204726309190,-1,-1,0,-1,-2,-2,-1,-1
1517204726318207,-1,-1,-1,-1,-1,0,1,0
1517204726318207,0,-1,0,0,-1,0,-1,0
1517204726332707,-1,0,-2,0,-1,0,1,-3
1517204726332707,-1,-1,-3,-1,0,0,1,-2
1517204726334209,0,-2,-2,-1,-2,-1,0,0
1517204726334209,-2,-2,-2,-1,-1,-1,-2,-1
1517204726355226,-1,-1,1,-3,0,-2,-4,-1
1517204726355226,-1,0,-1,-1,0,-1,-2,0
1517204726357224,-1,-1,1,-2,0,0,0,-1
1517204726357224,-2,-2,-1,-1,0,0,1,-1
1517204726368733,-1,-3,-1,-2,0,-1,0,0
1517204726368733,-2,-2,-2,-1,-2,0,0,-3
1517204726377740,-2,0,-1,0,-2,-3,-1,-1
1517204726377740,0,-2,-2,0,-1,-1,-1,0
1517204726392752,-4,0,-2,-1,-1,-2,-2,-1
1517204726392752,0,0,-1,-2,-1,0,-1,1
1517204726394250,0,0,0,-2,0,1,-2,1
1517204726394250,-2,-1,0,-2,-1,-3,-2,0
1517204726415266,-2,-1,-1,-1,0,-2,-1,1
1517204726415266,-1,0,1,-1,-1,0,0,-3
1517204726416768,-1,-1,-3,-1,0,-1,-2,-4
1517204726416768,0,-1,-2,0,0,0,0,-1
1517204726428775,0,-1,-1,-1,-3,-1,2,0
1517204726428775,-1,0,-1,-2,-1,-1,-1,-1
1517204726437793,-1,-2,1,1,0,-1,1,-1
1517204726437793,0,-1,-2,-1,-1,-1,0,0
1517204726451791,0,-2,-1,1,0,-2,-2,-2
1517204726451791,-1,-2,-2,-2,0,-1,-1,-1
1517204726460297,-2,-1,-2,0,-1,-1,-2,-1
1517204726460297,0,-1,-1,-1,0,-1,-2,-2
1517204726475309,-3,-1,0,-2,0,-4,-1,0
1517204726475309,0,-2,-3,-2,-2,-1,-3,0
1517204726476810,-1,-1,-2,-1,0,-1,1,1
1517204726476810,-1,0,-1,-2,-2,-1,-1,-1
1517204726496840,0,0,-2,-1,1,2,-2,-1
1517204726496840,-1,-2,-2,-1,0,0,0,0
1517204726505353,0,-1,-1,0,-2,-2,-1,0
1517204726505353,-2,-1,-1,-1,-2,0,-2,-1
1517204726512833,1,-1,1,0,0,-1,1,-1
1517204726512833,-2,-1,-1,-2,-2,-2,-2,0
1517204726514337,-2,-1,-1,-2,1,-1,-1,-2
1517204726514337,-3,-1,-1,-2,0,-4,-1,-1
1517204726535383,0,-2,-3,-1,-1,0,-1,0
1517204726535383,-1,-1,-1,-1,-1,0,-1,-1
1517204726536851,0,0,-1,-1,-1,-1,-1,-1
1517204726536851,-1,-2,-1,1,-2,1,0,1
1517204726557866,-2,-1,-1,-2,-3,0,-1,0
1517204726557866,-1,-1,-2,-2,-1,-1,1,-1
1517204726559370,-1,-1,-1,-3,-2,0,-1,-2
1517204726559370,-1,1,-2,-1,0,-3,0,0
1517204726572879,-1,-1,-1,1,-1,1,-3,0
1517204726572879,-1,-2,-1,-1,-1,-2,-1,-2
1517204726574377,-2,0,-1,-1,1,1,-3,1
1517204726574377,1,-1,-2,0,-2,-2,-1,-1
1517204726595402,-1,-1,-2,0,-2,-2,1,-1
1517204726595402,-1,-1,0,0,0,0,-1,-1
1517204726596894,-1,-4,-3,-2,-1,0,-2,0
1517204726596894,-1,-1,0,-2,0,0,1,-1
1517204726617908,0,-2,-2,-3,-1,-1,-2,0
1517204726617908,0,-2,0,-1,-1,0,0,-2
1517204726619425,-1,1,-1,-1,-1,-2,1,-2
1517204726619425,-1,1,-1,-1,0,-2,-2,-1
1517204726631918,0,0,0,-3,-1,-1,-2,-3
1517204726631918,-1,0,-1,-2,-1,-2,0,-1
1517204726638926,-1,-2,-1,-1,-1,0,-2,-1
1517204726638926,-2,-1,-1,0,-1,0,0,-3
1517204726655449,-1,1,-2,-1,-2,0,0,-1
1517204726655449,-2,-1,-1,0,-1,-1,0,1
1517204726656936,-1,-2,-1,-2,0,-3,1,-1
1517204726656936,-1,-2,-4,-2,0,0,-1,1
1517204726677951,-2,-2,-1,0,-1,-3,0,0
1517204726677951,0,-2,-1,-1,1,-1,-1,-2
1517204726679459,1,-1,1,-1,-1,-1,-2,-2
1517204726679459,-1,-1,0,1,-1,1,-1,-2
1517204726692462,0,-1,-2,-3,-1,-3,-2,-3
1517204726692462,-3,0,-1,-1,-1,-1,-1,0
1517204726698976,-3,-1,-1,0,-1,-2,0,-1
1517204726698976,-2,-1,-1,-2,-1,0,-1,0
1517204726714990,-1,-2,1,-2,-1,0,0,-1
1517204726714990,0,-2,-1,0,-1,-1,0,-1
1517204726716993,-1,-1,0,-1,-2,-1,0,-3
1517204726716993,-2,-2,-2,-1,-1,0,-1,-2
1517204726738061,-2,0,-2,-1,0,-4,0,-2
1517204726738061,-1,-1,-2,-2,-2,0,-2,0
1517204726739577,-2,-1,-1,0,-1,-1,-1,-1
1517204726739577,0,-1,-1,-2,-1,-2,-1,-2
1517204726752086,-1,-3,-1,-2,-1,0,-1,-1
1517204726752086,-1,-1,-1,-2,-2,-2,0,0
1517204726759077,-1,-1,-3,0,-2,-2,-2,0
1517204726759077,-1,-2,-2,-1,-2,0,-1,-1
1517204726775588,0,1,-1,1,0,1,0,0
1517204726775588,-1,-2,-1,-2,-2,-5,-2,-3
1517204726777094,0,0,-1,-1,1,1,-2,-1
1517204726777094,-1,-1,0,-2,-1,-2,0,0
1517204726797604,0,-1,-1,-1,-1,1,-2,-2
1517204726797604,-1,-2,0,0,-1,-2,-3,1
1517204726799606,-2,-2,-2,-2,0,-2,-1,-1
1517204726799606,-1,0,-2,0,-1,-1,-2,-2
1517204726812127,-1,-2,0,-1,-2,-2,0,-1
1517204726812127,0,-1,-2,0,-1,2,0,-2
1517204726819138,0,0,0,-1,-3,0,-3,-3
1517204726819138,-2,-1,0,-2,1,-2,0,1
1517204726835130,-2,0,-1,-2,-1,-1,-1,0
1517204726835130,-2,1,-3,-2,-1,0,1,-2
1517204726837135,-1,1,-1,-2,-1,-1,-1,-1
1517204726837135,1,0,1,0,-1,-1,-2,-1
1517204726858147,0,0,-1,-1,-1,-1,-1,0
1517204726858147,-1,0,-1,-1,-1,0,-1,-1
1517204726859655,-1,-3,-2,-1,-2,0,0,-1
1517204726859655,2,-1,0,1,-1,-1,-1,-2
1517204726880162,-1,-1,-1,-1,-2,-2,0,-3
1517204726880162,-1,-1,-1,-1,-3,-1,-2,-1
1517204726882163,0,-1,-1,0,0,1,1,-2
1517204726882163,-1,-2,-1,0,-1,-1,-1,1
1517204726895172,-1,-1,-3,-1,0,-2,0,-2
1517204726895172,-2,0,-2,-1,0,-3,-1,-1
1517204726896674,-2,-1,-2,0,-1,-1,-1,-1
1517204726896674,-1,-1,-1,-3,-2,-1,-2,-2
1517204726917691,0,-2,0,-1,-1,-1,-1,-1
1517204726917691,-2,-2,-1,-1,1,0,-2,-1
1517204726919690,1,0,-1,0,0,2,0,0
1517204726919690,-3,-2,-2,-1,-2,-3,-1,-2
1517204726932199,0,-3,1,0,-1,0,0,-2
1517204726932199,0,0,-1,-2,-1,0,-1,-2
1517204726938706,-2,-1,-3,0,-1,-2,-1,-1
1517204726938706,-1,0,-2,0,0,-1,-1,0
1517204726955218,0,-1,-1,-1,-3,-1,0,0
1517204726955218,-1,-2,-1,-1,-2,-1,-2,-1
1517204726956716,-3,-2,-3,-2,-1,-2,-2,-1
1517204726956716,-1,-1,-1,-2,-1,1,0,-2
1517204726977733,-1,-2,-3,-1,-2,0,-1,0
1517204726977733,1,-1,-2,0,-1,0,1,-1
1517204726979232,-1,-1,-2,-2,-3,-3,-2,-1
1517204726979232,0,-1,-1,1,0,-3,-1,-3
1517204726991742,0,0,-2,1,-1,-2,-2,0
1517204726991742,-1,-1,0,-1,-1,1,-1,0
1517204727000246,-1,0,1,-1,-1,-1,-2,-1
1517204727000246,-1,-1,-1,-1,-2,-1,0,-1
1517204727015267,-1,-2,0,-1,0,-1,0,-1
1517204727015267,-2,-3,-2,0,-1,-4,-2,-1
1517204727016759,-2,-1,-1,-1,-1,0,-2,-1
1517204727016759,0,-1,-1,0,0,0,0,-1
1517204727037801,0,-2,-3,-2,-1,1,-1,-1
1517204727037801,0,-2,-1,-3,-1,-2,-1,-1
1517204727039302,-1,-1,-1,-2,-2,-2,-2,0
1517204727039302,-2,-1,-1,-1,-2,1,-2,0
1517204727051785,-1,-2,-1,1,-2,-1,-2,-1
1517204727051785,-1,-1,-2,1,0,0,-1,-3
1517204727060293,0,-1,-1,-1,-1,-3,-4,-1
1517204727060293,-1,-1,-2,-1,0,0,0,-1
1517204727075302,-1,-2,0,-4,-1,-1,-1,0
1517204727075302,-1,-2,0,-2,-1,-1,1,0
1517204727076803,-1,-1,-1,1,0,-2,-2,-2
1517204727076803,-3,-1,-2,-2,-1,0,-1,-3
1517204727097825,-1,-1,-4,-2,-1,-2,0,-1
1517204727097825,0,-1,-1,-2,-2,-3,0,-1
1517204727099316,0,1,0,0,-1,0,0,-2
1517204727099316,0,-2,-2,-1,-2,0,-3,0
1517204727111826,0,1,-1,-1,-1,-1,-1,-1
1517204727111826,0,0,0,0,0,0,-1,1
1517204727120332,-1,-3,-2,-1,0,-1,-1,0
1517204727120332,-2,-2,-1,-1,-2,-2,-1,-1
1517204727135342,-2,0,0,-1,0,-2,-1,-2
1517204727135342,-1,-1,-1,-1,0,-1,0,-2
1517204727136843,0,-1,0,-2,-1,1,-1,-1
1517204727136843,-1,1,-1,-1,0,-1,0,-1
1517204727157858,-2,-1,-1,-1,-2,-1,-3,0
1517204727157858,0,0,0,0,-1,-1,0,-1
1517204727159360,-2,-1,1,1,1,-1,1,-1
1517204727159360,-1,-1,-2,0,0,-4,-1,-2
1517204727180874,-2,0,0,-2,-2,-2,0,-1
1517204727180874,-2,0,0,-2,-1,-1,-2,0
1517204727182376,-2,-1,-2,-1,-3,0,-2,-1
1517204727182376,-1,0,0,-1,-1,1,-1,1
1517204727195385,-1,-2,-1,1,0,-1,0,-2
1517204727195385,-1,-1,-4,-2,-1,-1,-1,-2
1517204727196888,0,-1,0,-1,0,-1,0,0
1517204727196888,0,1,2,0,-1,-2,-2,0
1517204727217914,-2,1,-1,-2,-2,0,0,-2
1517204727217914,-2,-2,-1,0,-2,-2,-1,-1
1517204727219426,0,0,-2,0,-2,0,-1,0
1517204727219426,0,0,-2,-1,1,-2,-1,-1
1517204727231444,-1,-3,-2,-2,-2,-1,-3,0
1517204727231444,-2,-1,-2,-2,-2,-1,-1,-1
1517204727240465,-1,-1,-2,-2,-2,-1,1,0
1517204727240465,0,-2,-1,-2,0,-1,-1,-2
1517204727255461,-1,0,-2,-3,-1,-1,-1,0
1517204727255461,-2,-1,-1,-2,-1,0,-3,-1
1517204727256976,1,-2,0,-2,-2,0,-3,-1
1517204727256976,1,-3,-1,-1,0,0,1,-1
1517204727277978,-2,-2,0,0,0,1,0,0
1517204727277978,0,0,-1,-1,-2,0,-1,1
1517204727279487,-1,-1,-2,0,-1,-1,-1,1
1517204727279487,0,-1,-1,-2,-1,-2,-1,-2
1517204727291486,-1,0,-1,-2,-1,0,0,-3
1517204727291486,0,-1,-2,-1,0,-1,-1,-1
1517204727300493,-2,0,-1,-2,-1,-2,-1,-2
1517204727300493,-2,-2,0,0,-1,-2,-3,0
1517204727315506,1,-2,-1,-1,-1,0,-2,0
1517204727315506,0,1,0,0,-2,-2,0,-2
1517204727317019,-1,-2,-1,-1,-1,-2,-2,-2
1517204727317019,-3,-1,-1,-2,-1,-1,-1,-2
1517204727337522,0,-1,-1,-1,-2,-1,0,-1
1517204727337522,-2,-2,-1,-1,-3,2,1,0
1517204727339523,-1,0,-2,-1,-2,-1,-3,0
1517204727339523,-1,-1,-1,-3,-2,0,-2,-1
1517204727351528,-1,1,0,-1,-1,0,0,-1
1517204727351528,-2,-3,-1,-2,-1,-2,-1,-2
1517204727360536,-2,-1,-1,0,0,-1,0,-1
1517204727360536,0,0,-2,0,0,1,1,0
1517204727375547,-2,-2,-1,0,-1,-1,0,-1
1517204727375547,-1,-2,-2,1,-1,-2,-4,-2
1517204727376546,-2,-1,0,-2,-1,0,-2,-3
1517204727376546,-3,-3,-1,-1,-1,-3,-2,1
1517204727397574,0,-2,-2,-1,0,-3,-1,-2
1517204727397574,-1,-1,-1,0,0,-2,-1,0
1517204727404086,0,-1,-2,0,-1,0,-2,-1
1517204727404086,-1,-2,-2,-1,-2,-2,-2,-2
1517204727420577,0,-2,-1,-3,-1,-1,-1,-1
1517204727420577,-1,-2,-2,0,-1,-2,-1,0
1517204727422094,-1,-1,-1,-1,0,-2,1,-3
1517204727422094,-1,1,0,-1,-2,1,-1,0
1517204727435087,-1,-2,0,0,-2,-1,-1,0
1517204727435087,-2,0,-1,-2,2,0,-2,1
1517204727437101,-1,-1,-3,-1,-1,-1,-2,-1
1517204727437101,0,-1,0,-2,0,0,-2,-1
1517204727457603,-1,-3,0,1,-1,-2,-1,-1
1517204727457603,1,-2,-2,-2,0,-2,-1,-1
1517204727459627,-1,-2,-1,0,1,0,-1,0
1517204727459627,-2,-2,-2,0,-3,0,-2,-1
1517204727487685,-2,0,0,-2,0,0,-1,0
1517204727487685,-2,-2,-1,-2,-1,-1,1,-2
1517204727489641,-2,0,-2,-2,-3,-1,-1,0
1517204727489641,0,-1,-1,0,-1,-1,0,-2
1517204727495130,-2,1,-1,-3,0,0,0,-1
1517204727495130,-2,0,-1,-2,-2,-1,1,-3
1517204727497131,0,-1,0,-1,0,-1,0,-1
1517204727497131,0,-1,-2,-2,0,-3,-1,-1
1517204727517708,-1,-1,-1,0,-2,0,-1,-1
1517204727517708,0,1,-1,-1,-2,-2,0,-2
1517204727519206,0,-2,-2,-2,0,-1,1,0
1517204727519206,0,-2,-3,-1,-2,0,-3,-2
1517204727540236,-1,-2,-2,-3,0,-3,-2,-2
1517204727540236,0,-1,-1,-1,-1,0,-1,1
1517204727541722,-1,-2,-1,0,-1,-2,-1,0
1517204727541722,0,-3,-2,-2,-1,-3,0,-1
1517204727554734,0,-1,-1,-2,-3,-1,-2,-2
1517204727554734,-2,0,0,-1,-3,1,-1,-1
1517204727561241,-1,0,-2,-1,-1,-2,-1,-1
1517204727561241,-1,0,-1,0,0,2,1,1
1517204727577758,-3,-1,0,1,0,-1,0,-1
1517204727577758,0,-2,0,0,0,1,-2,1
1517204727579249,-1,0,-1,0,-1,-1,-3,-1
1517204727579249,1,-1,-2,-1,1,-2,0,-3
1517204727600273,-1,-1,-1,-1,-1,-1,-1,0
1517204727600273,-1,-1,-1,-2,-2,-2,-3,-1
1517204727601766,-2,0,0,-1,-3,0,-1,-1
1517204727601766,-3,-2,-1,-1,-1,2,-1,0
1517204727614802,1,-1,-2,0,-2,-1,-1,-1
1517204727614802,-2,-3,0,-1,0,0,-3,-1
1517204727621306,0,0,-1,-1,-2,-2,-2,-1
1517204727621306,-1,-1,0,-1,-4,-1,-3,-2
1517204727637821,-1,-1,0,-1,1,-1,-1,0
1517204727637821,-1,-2,-3,-1,-1,-2,-1,-2
1517204727639319,-3,0,-1,-2,0,-1,-1,0
1517204727639319,-1,-1,0,-1,-2,-1,-2,-1
1517204727660334,-1,-1,-1,-1,-2,0,0,-1
1517204727660334,0,-2,-2,-2,-1,0,0,0
1517204727661836,-1,-3,0,-1,0,-1,-1,-1
1517204727661836,0,0,-1,-1,-1,-1,-2,-2
1517204727674844,-2,-1,-1,-3,-1,0,-2,-2
1517204727674844,-1,-1,-3,-2,0,-1,0,0
1517204727681359,-1,0,-1,2,-2,-1,-3,-1
1517204727681359,0,-2,1,-2,0,-1,0,-1
1517204727697871,-2,0,-1,-2,-2,-2,-2,-1
1517204727697871,-2,0,1,0,-2,-1,0,-1
1517204727699362,-1,-2,-2,-2,-2,-1,-2,0
1517204727699362,-2,-2,-1,0,-1,-1,-2,1
1517204727720389,0,-1,-2,-1,-1,0,-1,-3
1517204727720389,-1,-1,-2,-1,-2,-1,-3,-3
1517204727721887,-1,-2,-1,0,-2,-1,0,-2
1517204727721887,-1,-1,0,-1,-1,-2,-1,-1
1517204727734386,-1,-2,-2,-1,0,-1,0,0
1517204727734386,0,-1,-1,-1,0,-3,0,-1
1517204727741391,0,-1,-2,-2,-2,0,-2,-2
1517204727741391,-1,0,-2,-1,-3,0,0,-2
1517204727765411,0,-1,-2,-1,-1,-1,0,-1
1517204727765411,-1,-1,-1,0,0,0,-2,0
1517204727766910,0,-1,-1,-3,-1,0,-2,0
1517204727766910,-3,-2,-3,1,-3,-3,0,-1
1517204727780419,-2,-2,-3,-3,-2,-2,0,-1
1517204727780419,-1,-3,-3,-1,-2,-1,-1,0
1517204727781920,0,-1,-1,1,-1,0,0,0
1517204727781920,0,-1,-2,-2,-1,0,-1,1
1517204727794429,-2,-1,1,1,-1,0,-1,-1
1517204727794429,-2,-2,0,-1,-1,-1,-3,-1
1517204727801433,-2,-1,-1,-3,-1,-2,-2,-2
1517204727801433,0,-1,0,0,0,1,1,-1
1517204727817945,0,-1,-2,-1,-4,-3,1,-2
1517204727817945,-2,-2,0,0,-1,-1,-1,-1
1517204727819461,-2,-1,0,-1,-1,-1,-1,-2
1517204727819461,0,0,-2,-1,-1,-1,-1,-2
1517204727847966,-1,0,0,-2,-1,-1,-1,-1
1517204727847966,-1,0,-1,-1,-2,-3,0,0
1517204727849467,0,-1,0,1,-1,-1,-1,0
1517204727849467,-1,-1,-2,-3,-1,-1,-2,1
1517204727854517,-1,-1,-1,-1,-1,1,-2,-3
1517204727854517,-2,1,-1,-2,0,-1,0,-2
1517204727861518,-3,0,-1,-1,1,0,0,0
1517204727861518,-2,-1,-2,-1,-1,-2,-1,-2
1517204727878019,0,-1,-2,-1,-1,0,-1,1
1517204727878019,0,-1,-1,-1,-1,-1,-4,-1
1517204727879520,0,2,-1,-1,-1,-1,-1,1
1517204727879520,-1,-1,-1,0,-1,-1,-1,-1
1517204727900035,0,-2,-1,0,-2,-3,0,-2
1517204727900035,-1,0,-1,-1,-1,0,0,-1
1517204727902036,-1,-1,0,-1,-1,-1,-2,0
1517204727902036,-1,-2,0,-2,-1,-2,-2,-1
1517204727914044,0,-2,-1,-1,-1,-1,-2,1
1517204727914044,0,-2,-2,-2,0,2,-1,-1
1517204727923066,-1,-3,-1,-2,0,-1,0,-2
1517204727923066,0,-2,-1,0,-2,0,-1,0
1517204727937591,-1,0,-2,0,0,-1,-1,-3
1517204727937591,-1,-1,-1,-1,-1,-1,-1,-1
1517204727939585,-1,-1,-2,-2,-1,-1,-1,-2
1517204727939585,-1,-1,1,-2,-1,-3,-1,-1
1517204727960578,-3,0,0,-1,1,0,-1,1
1517204727960578,-3,-1,-1,-2,0,0,-1,-1
1517204727961596,1,-2,1,-1,-1,-1,-1,-1
1517204727961596,-2,-2,-2,1,-1,-1,-1,1
1517204727973601,0,-2,-2,-2,-2,-4,0,-2
1517204727973601,-1,0,0,-2,-2,-1,-1,-1
1517204727983103,-1,0,-2,-2,0,-1,0,-1
1517204727983103,-1,-1,1,-2,-2,-1,0,0
1517204727997606,-1,-3,-1,-2,-1,0,0,0
1517204727997606,0,-1,0,0,-1,-1,-1,-2
1517204727999607,-2,-2,-1,0,-1,0,-1,0
1517204727999607,-1,0,-1,-2,-2,-1,-1,-3
1517204728020134,-2,-1,-2,-1,0,1,0,1
1517204728020134,-1,-1,0,0,-3,-2,-2,-3
1517204728021621,-3,-2,-2,0,-1,-1,-1,-2
1517204728021621,-1,-3,-1,0,0,-2,-1,-1
1517204728033670,0,-1,0,-2,-1,-1,-1,-2
1517204728033670,-1,0,-2,-1,0,-1,-1,-1
1517204728042688,0,1,-1,0,-1,-1,-2,-2
1517204728042688,-3,0,-1,-2,-2,1,-1,-1
1517204728057693,-2,1,-1,-2,-1,0,-1,-2
1517204728057693,-1,-2,-1,2,0,-1,-1,1
1517204728059690,0,0,-1,-2,-3,-2,-2,-1
1517204728059690,-1,-1,-1,-1,-1,-2,-1,-2
1517204728080212,0,1,-1,-2,-1,-1,-1,-1
1517204728080212,-2,-3,-3,0,-1,0,-2,-1
1517204728082205,-2,-2,-2,-2,-1,0,0,0
1517204728082205,0,-1,-2,0,0,0,-1,-1
1517204728093725,-1,-1,-1,-2,-1,-2,-1,0
1517204728093725,-1,-1,-2,-1,-2,-1,0,-1
1517204728102719,-1,-1,-2,-1,-1,-1,-2,0
1517204728102719,-1,1,0,-1,-1,-1,1,-1
1517204728117734,0,-1,-2,0,-2,-2,-2,-2
1517204728117734,-3,0,-2,-1,-2,-4,-2,0
1517204728119230,-1,0,-2,1,1,-1,-1,0
1517204728119230,-1,-1,-1,0,-2,-2,0,0
1517204728140260,0,-2,-2,0,0,-3,-1,-1
1517204728140260,-1,-2,0,-2,-1,-1,-1,-2
1517204728141747,-1,-2,-2,-2,-1,-3,-1,0
1517204728141747,-1,0,0,0,-1,-1,-1,-1
1517204728153813,-2,0,0,0,-1,0,-1,0
1517204728153813,0,0,-2,-1,-1,-1,1,-1
1517204728162766,-2,-2,1,-1,-1,0,0,0
1517204728162766,0,-3,-2,-1,0,-2,-1,0
1517204728177772,-2,-2,0,0,0,-3,0,-1
1517204728177772,-2,0,0,-2,-1,-1,-2,-1
1517204728179272,-1,-1,-2,0,0,0,-1,-2
1517204728179272,-2,0,-1,-1,-2,-2,0,-2
1517204728200334,-2,0,0,-2,-1,-1,-1,-1
1517204728200334,0,-2,-1,-1,-2,0,-1,0
1517204728201838,-1,-2,-1,-1,-1,-2,0,-1
1517204728201838,0,-1,-1,-2,-1,1,0,-2
1517204728213845,-1,-3,-1,-2,0,0,-2,-1
1517204728213845,0,-2,-1,-1,0,0,0,0
1517204728222852,-1,-1,1,-1,-2,-2,-3,0
1517204728222852,0,-1,-1,0,-1,-2,-1,-1
1517204728237897,-1,0,0,-1,0,-2,0,-2
1517204728237897,0,-1,-2,-1,0,-2,-1,-2
1517204728239364,-1,0,-3,1,-1,0,-1,-1
1517204728239364,-2,-1,-1,-1,-1,-1,-1,-1
1517204728260379,0,-4,-3,-2,-1,-2,-1,-1
1517204728260379,-1,1,0,-1,-2,0,0,0
1517204728261881,0,0,-1,-3,0,-1,0,-3
1517204728261881,-3,0,-2,-1,-2,1,-1,-1
1517204728273947,-1,0,-2,0,-2,-1,0,-2
1517204728273947,1,-1,-1,0,-2,-1,0,-1
1517204728282894,-1,-1,-1,-1,0,-1,-1,-1
1517204728282894,-1,0,-2,-1,0,-2,-2,0
1517204728297906,-1,-2,-2,-1,-1,0,-2,-2
1517204728297906,-2,-2,-1,-1,0,-2,-2,-1
1517204728299422,-2,0,0,1,-3,0,-2,-2
1517204728299422,0,-2,-2,-4,-2,-1,-1,-1
1517204728320464,-1,2,-1,-2,-2,-1,-1,-1
1517204728320464,-2,0,-2,-2,-1,0,-1,1
1517204728321956,-2,-2,-2,0,0,-1,-1,0
1517204728321956,-2,1,-1,-1,0,0,-1,0
1517204728333963,0,-1,0,-1,0,-1,0,0
1517204728333963,-2,-2,-2,0,-2,-2,-3,-2
1517204728342970,0,0,0,0,-1,0,-1,0
1517204728342970,0,-2,-2,1,-4,-1,-3,-1
1517204728357495,0,0,-1,-2,-2,-2,-1,0
1517204728357495,0,-1,-2,-1,0,-1,0,-2
1517204728359482,-1,-3,-1,-2,-2,-1,-1,-1
1517204728359482,0,-1,-1,0,0,0,1,-1
1517204728379996,-2,-3,-3,1,0,-1,0,-1
1517204728379996,0,-1,-2,-1,1,0,0,-3
1517204728381998,0,-1,-2,-2,-2,-1,-2,-1
1517204728381998,-1,-1,-1,0,0,-1,0,0
1517204728402512,-2,-2,0,-1,-3,-1,-1,-1
1517204728402512,0,-1,0,-2,0,-1,0,1
1517204728404517,-3,-1,-1,-1,-2,0,-2,0
1517204728404517,-1,0,-1,-3,-2,-1,-2,0
1517204728417526,0,0,-1,-1,-2,-1,-1,-1
1517204728417526,-1,-1,-1,0,0,-2,-1,-1
1517204728419540,-1,-2,-1,-2,-1,-3,-2,0
1517204728419540,-1,-1,-1,-3,0,-1,-2,-1
1517204728440098,-2,-1,-1,-2,-1,0,-1,-2
1517204728440098,-1,0,-1,-1,0,-1,-2,-2
1517204728442041,1,0,0,0,-2,-1,-1,-2
1517204728442041,1,0,-1,0,-3,-2,-1,-1
1517204728462555,-1,-1,-2,-3,0,0,0,1
1517204728462555,-2,-1,0,0,-2,0,-2,-3
1517204728464565,-2,0,-2,0,2,-1,0,-2
1517204728464565,-1,-3,-3,-1,-2,0,0,-2
1517204728478066,-2,-1,1,1,0,0,-1,-1
1517204728478066,-2,-1,-1,-2,-1,-2,-1,0
1517204728479567,-1,0,-1,-1,-1,-2,-1,-1
1517204728479567,-1,-2,-1,-2,-1,0,-1,-3
1517204728500081,-2,0,-1,-2,-3,-1,-1,-2
1517204728500081,0,-1,-1,-2,-1,-1,-1,0
1517204728501582,-1,-1,1,0,-1,-1,0,-1
1517204728501582,-2,-3,-2,1,-2,-4,0,-2
1517204728522597,0,-2,0,0,-2,-1,-2,-1
1517204728522597,-1,-1,-2,-1,-1,0,-1,-1
1517204728524598,-1,-1,0,-1,-2,0,-3,-1
1517204728524598,0,0,-2,-3,-1,-1,-3,-1
1517204728537125,-1,-2,-2,-1,-2,-1,-2,-1
1517204728537125,-1,-2,-1,0,-1,-1,0,-1
1517204728543612,-1,-3,0,-1,-1,-1,1,1
1517204728543612,-2,-1,0,0,-2,0,0,-1
1517204728560624,-1,-2,-3,-2,-1,-1,0,-1
1517204728560624,-1,0,-1,-2,-1,0,-1,0
1517204728561625,-1,-1,-1,-1,-1,-2,-2,0
1517204728561625,-1,0,-1,1,0,-1,-3,0
1517204728583150,-1,-1,-1,0,-1,-1,-1,-1
1517204728583150,0,-1,-2,0,-1,-1,0,-1
1517204728589154,-2,0,-1,-2,-2,-1,-2,-1
1517204728589154,0,0,-1,-2,0,-1,-1,-1
1517204728597151,-1,0,-1,-1,0,-2,-3,-1
1517204728597151,-1,0,-1,-1,-1,1,-1,0
1517204728603665,-3,-1,-3,-1,0,-1,1,-3
1517204728603665,0,-2,0,-1,0,-1,0,-2
1517204728620166,-1,-2,-1,0,0,-1,-2,0
1517204728620166,-1,-2,0,-1,-1,-1,-2,0
1517204728621667,0,-1,-2,0,-1,-1,0,-1
1517204728621667,-1,-1,-1,-2,-1,-3,1,1
1517204728642684,-1,-2,-1,0,-1,-2,0,0
1517204728642684,-3,-1,0,-2,-2,-2,-1,-2
1517204728644201,-1,0,-2,-2,-1,-1,-2,0
1517204728644201,-2,-2,-1,1,1,-2,0,0
1517204728657195,0,-2,-2,-1,0,-2,-1,-1
1517204728657195,-2,0,1,0,-3,-2,-1,-2
1517204728663698,2,-1,0,-1,1,0,-1,-1
1517204728663698,-1,-1,1,-2,-2,0,0,-1
1517204728680212,-1,0,1,-2,-1,-1,-1,0
1517204728680212,-1,-1,-1,-1,0,-2,-1,-1
1517204728681710,-1,0,-2,0,-1,0,-1,0
1517204728681710,-1,-1,-1,0,0,-1,-2,-1
1517204728702739,-1,-1,-2,0,0,-2,0,-2
1517204728702739,-1,-1,-1,-2,0,-3,0,-2
1517204728704225,-1,-1,0,-1,-1,1,-2,-2
1517204728704225,-1,-2,-3,-3,-1,1,2,0
1517204728717234,0,0,-1,0,-1,1,0,0
1517204728717234,-1,-2,-1,0,-1,-1,-3,0
1517204728723754,-1,-2,-3,-1,-1,-1,-1,0
1517204728723754,0,0,-2,2,-2,-1,-2,-1
1517204728740251,-2,-1,0,0,1,-2,-1,-1
1517204728740251,-2,0,-3,-1,-2,-2,-2,-1
1517204728741752,-2,-2,-1,-2,0,-1,0,-1
1517204728741752,-1,-1,-2,-1,-2,-2,-1,-1
1517204728762767,-1,-1,-2,-1,-2,-1,0,-1
1517204728762767,0,-2,0,-2,1,0,0,-1
1517204728764268,-1,-1,-1,1,-1,-2,-1,-1
1517204728764268,1,-2,-1,-2,-2,0,0,-1
1517204728777277,0,0,0,-1,0,-3,-1,-2
1517204728777277,-1,-1,-1,-3,-2,-2,-2,-1
1517204728783782,-1,-1,-2,-1,0,0,-3,-3
1517204728783782,-3,0,-2,-3,1,-1,1,-1
1517204728800293,-1,0,-1,-2,-3,-2,0,-2
1517204728800293,-1,-1,-1,0,-2,-3,-2,0
1517204728801795,1,-1,-1,-1,0,-3,0,-2
1517204728801795,-1,-3,-1,-1,-2,-1,-2,-1
1517204728822812,1,-2,-1,-1,0,2,-1,-2
1517204728822812,-1,-1,-2,0,-1,-2,-2,-2
1517204728824310,-1,-2,-1,0,-2,-2,-1,0
1517204728824310,-2,0,-1,0,-1,0,-1,-1
1517204728836820,-2,-2,0,-2,0,0,0,-1
1517204728836820,-2,1,-1,-3,0,1,-3,-1
1517204728843824,-1,-3,-1,-1,-1,0,-1,1
1517204728843824,-1,-2,-1,0,-3,-1,-1,-1
1517204728860336,1,-1,-2,-1,-1,1,-2,-1
1517204728860336,0,-2,0,0,-1,0,-1,-1
1517204728861837,-2,-2,-1,0,-1,-1,0,0
1517204728861837,-2,0,-1,-2,0,-1,0,-2
1517204728882852,-1,-3,-1,0,-2,-1,0,1
1517204728882852,0,0,-2,0,0,0,-1,-1
1517204728884353,-1,-1,0,-4,1,-2,-1,-1
1517204728884353,0,-2,0,-1,-2,-1,-1,-2
1517204728896361,-2,-1,-1,-2,-1,-2,-2,-3
1517204728896361,-1,0,-1,-1,-2,0,-1,0
1517204728905368,-2,0,0,-2,-1,-1,-1,0
1517204728905368,-1,0,-1,-3,0,-1,-2,-2
1517204728920386,-1,1,-1,-3,-2,-3,-2,-1
1517204728920386,0,-3,-1,0,-1,-1,1,-1
1517204728921895,-1,-1,-1,-1,-1,-2,0,-1
1517204728921895,0,-3,-2,1,-3,0,-1,-1
1517204728942894,-1,-1,-1,-1,0,-1,-2,0
1517204728942894,2,-1,-1,-1,-1,0,1,-2
1517204728944395,0,0,-1,0,-3,-2,0,-2
1517204728944395,-2,1,-2,-3,-1,-1,-2,0
1517204728956404,-2,-2,-1,0,-1,-1,-1,-1
1517204728956404,-2,-1,1,-1,0,-1,-3,1
