timestamp,emg1,emg2,emg3,emg4,emg5,emg6,emg7,emg8
1517188577403339,-2,0,-1,-1,2,-1,-1,0
1517188577403339,-1,-1,0,0,-1,0,-1,-1
1517188577405341,-2,-3,-2,-2,-1,1,0,-3
1517188577405341,-1,0,-2,0,-1,-2,0,0
1517188577418352,0,-2,1,-2,-2,0,-1,-1
1517188577418352,-1,-1,-1,1,-2,-2,-3,-2
1517188577425356,1,0,-2,0,-4,1,-1,0
1517188577425356,0,-1,-3,-1,-1,0,-2,-3
1517188577441366,-1,-2,1,-1,-1,-1,1,0
1517188577441366,0,0,-1,0,1,-1,-1,-1
1517188577442368,-1,0,-1,-1,-1,-1,1,-2
1517188577442368,-1,-3,-1,-2,-1,-1,-3,-2
1517188577463382,-2,-1,-3,-1,-1,1,0,1
1517188577463382,-2,0,0,-1,-1,-1,0,0
1517188577465383,-1,-2,0,-1,-1,-1,-1,0
1517188577465383,-1,0,-2,-1,-1,0,-1,0
1517188577478392,-1,-2,-2,-2,-1,-2,-3,-4
1517188577478392,0,1,0,0,-1,-1,0,0
1517188577485400,-2,-1,-1,-1,1,-1,0,-2
1517188577485400,-1,0,0,-1,-1,-2,0,-1
1517188577501409,-1,1,-3,-2,-2,-4,-1,-2
1517188577501409,0,0,-1,-1,-2,1,-2,1
1517188577502410,0,0,0,-1,-2,-2,-2,0
1517188577502410,0,-3,-2,-1,-1,-1,1,0
1517188577523447,-1,-1,-1,1,0,1,-1,0
1517188577523447,-3,-1,0,-2,-2,-1,-1,-3
1517188577525428,0,-2,-1,-1,0,-2,0,-1
1517188577525428,0,-2,-2,-1,1,-2,-3,1
1517188577538436,0,-2,-2,-1,0,0,-2,0
1517188577538436,1,1,0,0,-2,0,0,0
1517188577545441,-2,-1,-1,-1,-2,-3,-2,-1
1517188577545441,-2,-1,1,-2,0,0,0,-3
1517188577561451,-1,-3,-3,0,-1,-2,1,-1
1517188577561451,-1,-1,-1,-1,0,-2,0,-1
1517188577562453,-1,-1,-1,-2,-3,-1,-1,0
1517188577562453,-1,1,-2,-2,-1,0,-1,-3
1517188577583467,-2,0,1,0,-2,-1,1,-2
1517188577583467,-1,-1,-4,-1,-2,-2,0,-2
1517188577585468,-2,0,0,-1,0,0,-2,0
1517188577585468,-1,-1,-2,0,-1,0,0,0
1517188577598510,0,-1,1,-2,-2,-3,-2,-1
1517188577598510,-2,-2,1,0,-1,-2,1,1
1517188577604505,0,-3,-1,-2,-1,-2,1,-2
1517188577604505,-1,-2,-3,-3,-1,1,-1,-1
1517188577621517,-1,0,0,-2,-1,2,-1,-1
1517188577621517,-2,-1,-1,-2,0,-1,-3,0
1517188577622518,-1,1,-1,-1,-1,-2,1,-1
1517188577622518,-1,-2,-2,-1,-2,-2,-1,0
1517188577643533,0,-1,-2,0,0,-2,-1,-2
1517188577643533,0,-2,-1,-1,-2,-2,-2,-1
1517188577645534,-1,0,0,-2,0,1,0,0
1517188577645534,0,-1,-2,-1,-1,-2,-1,-1
1517188577658558,0,-2,1,-2,-1,2,-1,-1
1517188577658558,0,-1,-3,-2,0,0,1,-3
1517188577664550,-2,1,-1,-1,-1,-2,-2,1
1517188577664550,0,-1,0,-1,0,-2,0,-2
1517188577681615,-2,1,-3,-1,0,0,-2,-1
1517188577681615,-1,-2,0,-1,1,-1,-1,-1
1517188577682599,-1,-3,0,-1,-1,-1,-2,-1
1517188577682599,-3,-2,-3,0,-1,-2,-2,-1
1517188577703614,-3,-1,1,0,-1,1,1,0
1517188577703614,1,-1,0,-2,-1,0,0,-1
1517188577705663,0,0,0,-2,-2,-2,-2,0
1517188577705663,-1,-1,-1,1,-3,0,-1,-1
1517188577717639,0,-2,-1,-2,-2,-1,-2,-1
1517188577717639,-3,0,-2,-1,1,1,-1,-1
1517188577726632,0,-2,0,1,0,-1,-2,-3
1517188577726632,-1,-1,-1,-2,-1,-2,1,0
1517188577741645,-1,-1,-3,-1,-2,-1,0,-1
1517188577741645,-1,0,1,-1,-1,0,-1,-2
1517188577742646,-1,-2,-1,0,-4,2,-3,0
1517188577742646,-3,-1,-1,-1,0,-2,-1,0
1517188577763659,0,-2,-1,0,-3,-3,-1,-1
1517188577763659,-1,-1,0,-1,-2,-1,-2,-1
1517188577765672,-2,1,-1,-1,1,-2,-1,0
1517188577765672,-2,-1,-1,-1,0,-1,-1,-1
1517188577777666,-2,-2,-1,-2,0,0,0,1
1517188577777666,0,-2,-1,0,-1,-2,-1,0
1517188577786696,0,0,-2,1,-1,-2,-1,0
1517188577786696,0,-1,0,-2,-3,-1,-2,-2
1517188577800684,-1,-2,-3,-2,0,-3,0,-1
1517188577800684,-2,1,1,-2,-3,1,-1,-1
1517188577802685,1,-2,-1,0,-2,-3,-1,0
1517188577802685,-2,-1,-1,0,-1,0,2,0
1517188577823756,1,-2,0,0,-1,-2,-2,-1
1517188577823756,0,-2,-2,-1,-1,-1,-2,-1
1517188577825713,-1,-1,-1,-1,-1,-2,0,-1
1517188577825713,0,-2,-2,-3,-1,0,-2,0
1517188577837724,-1,0,-1,-2,1,0,-1,0
1517188577837724,-2,-2,0,-1,-2,-2,0,0
1517188577846716,-2,-1,-1,-2,0,0,-2,-2
1517188577846716,0,1,-2,-1,-1,0,-1,0
1517188577860726,1,0,-1,0,-1,-1,0,-2
1517188577860726,-2,-1,-1,-1,0,0,-3,-1
1517188577862727,-1,-2,1,-2,-3,0,-1,-4
1517188577862727,-1,-2,-1,0,-1,-3,-2,-2
1517188577883745,0,-1,-1,0,-1,-2,-2,-1
1517188577883745,0,-2,1,1,-1,-1,0,0
1517188577885758,-2,-1,-2,-1,0,-1,-2,1
1517188577885758,-1,0,-1,-1,0,-2,0,-4
1517188577897751,1,-1,1,1,-3,-2,-3,-1
1517188577897751,-1,1,-2,0,-1,-1,-1,0
1517188577906788,-1,-1,-1,-1,0,0,0,0
1517188577906788,0,-3,-2,0,-2,0,-1,-1
1517188577920769,-1,-2,-1,-1,-3,-1,1,-1
1517188577920769,-1,-2,-1,-2,1,-2,-1,-3
1517188577922770,0,-2,-1,0,-1,0,-1,0
1517188577922770,-1,-1,-2,0,0,0,-1,0
1517188577943794,-3,-2,0,0,2,-2,-1,0
1517188577943794,-2,-1,1,-1,-1,1,-2,-1
1517188577945787,0,-1,-2,-3,0,-2,1,-3
1517188577945787,0,0,0,-1,0,-3,-1,-3
1517188577957795,0,-2,-3,-1,0,0,-2,0
1517188577957795,0,-1,-1,-1,-3,0,0,0
1517188577966801,-2,-1,-2,-3,0,-1,-1,-3
1517188577966801,-1,-3,-1,0,-1,-1,0,-1
1517188577980838,-1,0,-1,-2,-1,-1,-1,-2
1517188577980838,-1,0,0,-2,-1,-2,-1,-2
1517188577982836,-1,-1,-2,1,-2,-2,-3,0
1517188577982836,-2,0,0,-2,0,-1,-3,0
1517188578003874,-2,0,-2,-2,-1,1,-2,-2
1517188578003874,-1,0,-1,-1,0,0,-1,-1
1517188578004871,0,-2,-2,-1,-1,1,1,0
1517188578004871,0,-2,-1,-2,-1,-3,-3,1
1517188578017861,-1,-3,-1,-1,-2,0,0,-1
1517188578017861,0,0,-1,-2,0,0,0,-4
1517188578025867,-3,-1,0,0,-1,0,-2,-1
1517188578025867,0,0,-2,-4,0,-1,0,-1
1517188578041882,0,-3,0,-1,-2,-2,1,-2
1517188578041882,0,-3,1,0,0,0,-1,1
1517188578042882,0,1,-1,0,-1,-2,-2,0
1517188578042882,0,-1,-1,-1,-2,-3,0,-2
1517188578063905,-2,-2,0,-1,-1,-2,1,-1
1517188578063905,-1,-2,0,0,-3,-2,-1,-1
1517188578064895,-1,-2,0,-1,-1,0,-1,0
1517188578064895,0,-2,-2,-1,-1,0,-1,-1
1517188578076915,-1,-1,-2,1,-1,-1,-1,-2
1517188578076915,1,0,-2,-2,-2,0,0,-1
1517188578085918,0,0,2,0,1,0,0,-1
1517188578085918,0,-1,-1,0,0,-3,-1,-1
1517188578100919,-1,-1,-2,-2,-2,1,0,0
1517188578100919,-2,-1,-1,-2,0,-2,0,1
1517188578102933,-1,-2,-2,-1,-1,-1,1,-2
1517188578102933,-1,-2,1,-1,-1,-2,-1,-1
1517188578123992,-1,0,-1,-2,-1,0,-2,0
1517188578123992,-1,1,1,-1,-1,0,-3,-1
1517188578124937,0,0,-3,-3,-1,-2,-2,-1
1517188578124937,-2,-1,-1,1,0,-2,-3,-2
1517188578145975,-1,1,-2,-1,-2,-1,-1,-1
1517188578145975,-2,-1,-2,-1,-3,-2,-1,1
1517188578147962,0,-4,-1,1,1,0,-1,-1
1517188578147962,-2,-1,0,-4,-3,1,2,-3
1517188578160962,0,-1,0,0,-1,-1,-2,0
1517188578160962,-2,0,-1,-1,-3,-3,0,-2
1517188578162964,-1,1,0,-1,-1,-1,0,0
1517188578162964,1,-1,-2,-2,0,-1,-1,-1
1517188578183993,-3,1,-3,-1,-1,-1,0,-1
1517188578183993,-1,-2,1,-1,-1,0,-1,0
1517188578184979,0,0,-2,-3,-2,-1,-1,-2
1517188578184979,-1,-3,0,0,-1,1,-1,-2
1517188578206046,0,-1,0,0,-1,0,-1,0
1517188578206046,1,-2,-1,-1,0,-2,-3,-1
1517188578208008,-1,-2,-1,0,-2,-3,0,-2
1517188578208008,-2,-1,0,-1,-2,0,0,1
1517188578221057,0,-2,-1,-1,1,-5,0,0
1517188578221057,-1,-1,-2,1,-2,-1,1,-2
1517188578223023,-3,-1,-1,1,-1,1,0,-3
1517188578223023,-1,-2,0,0,-3,-1,-2,-2
1517188578244038,-2,0,-1,0,-2,0,-1,-2
1517188578244038,0,-1,1,-1,0,-1,0,0
1517188578245022,0,-1,-1,-2,-1,0,-2,-1
1517188578245022,0,-1,-3,0,-1,0,-1,-1
1517188578266052,0,1,-1,0,-1,-1,-4,-2
1517188578266052,-1,-1,-1,0,-1,0,0,-1
1517188578268061,-2,-2,-2,-1,-3,-1,0,0
1517188578268061,1,-1,-1,0,-2,0,1,0
1517188578281111,-2,-3,1,-2,-2,-1,0,-1
1517188578281111,-1,0,1,0,-1,1,-1,-2
1517188578287101,0,1,1,0,1,0,0,-2
1517188578287101,-1,-1,-1,-2,0,-1,-1,-1
1517188578303125,0,-1,-2,-1,1,0,0,-3
1517188578303125,0,0,-1,-1,-1,0,-1,-2
1517188578305113,0,-2,-1,0,-1,-2,-2,0
1517188578305113,-1,0,-1,0,0,-2,-1,-1
1517188578326138,-1,-1,0,-1,0,0,-1,0
1517188578326138,0,-1,-2,-2,-3,0,0,-2
1517188578328129,-3,-1,-1,0,1,0,0,0
1517188578328129,1,0,-2,-3,1,0,0,0
1517188578340157,-2,0,-1,-1,-1,-1,-2,0
1517188578340157,-3,0,-3,0,1,1,0,-3
1517188578347167,1,-1,-2,1,-1,-1,-2,0
1517188578347167,0,-2,-2,-1,-2,0,-2,-1
1517188578364165,0,0,-1,0,-1,-3,-2,0
1517188578364165,0,-1,1,0,-1,-2,-2,1
1517188578365156,-2,-3,-2,-1,1,-1,-3,-3
1517188578365156,-2,-1,-1,-1,-2,-1,0,-3
1517188578386193,0,-1,0,-2,-1,-3,-2,-1
1517188578386193,-2,-2,0,-1,-1,0,-1,0
1517188578387173,0,-1,-1,-2,-2,0,-1,0
1517188578387173,-2,-2,-1,-1,-1,2,-1,-2
1517188578400191,-1,-1,0,-1,-1,0,-1,-1
1517188578400191,0,-1,-1,-2,-1,-1,-1,-3
1517188578407271,-2,-1,0,-2,-4,0,-1,-1
1517188578407271,-2,-2,-1,-2,-2,-3,-1,0
1517188578423323,0,-2,-2,-2,0,1,-2,0
1517188578423323,-1,-1,-1,-3,-1,-1,-3,0
1517188578430273,0,-1,-1,-2,-2,-2,-1,1
1517188578430273,0,-1,-2,-1,-1,-1,-2,-2
1517188578446295,-2,-2,0,0,-1,0,-1,-1
1517188578446295,-3,-1,-2,0,0,-5,-1,-1
1517188578447293,-1,0,-1,-1,-2,1,0,-1
1517188578447293,0,-1,-2,-1,-1,-1,-1,0
1517188578460293,0,0,-3,-3,-1,1,1,0
1517188578460293,-1,-1,1,-1,0,2,0,-1
1517188578467301,2,0,0,-1,-1,-3,0,0
1517188578467301,-3,0,-1,-1,0,-3,0,1
1517188578483331,0,0,0,0,0,0,0,-2
1517188578483331,-2,-2,-1,-1,-2,0,1,0
1517188578485334,-1,-2,-3,-1,0,-3,0,-1
1517188578485334,-1,-2,-3,0,0,-2,-1,-2
1517188578506355,-3,-1,-2,-1,-2,-1,-3,-1
1517188578506355,0,1,-1,-1,-2,-3,1,0
1517188578508327,-2,-2,0,0,-2,-3,0,-2
1517188578508327,0,-1,-2,-1,-1,-1,0,-1
1517188578520334,1,-1,2,0,-1,-1,-2,-1
1517188578520334,1,-1,-1,-1,1,0,-2,-1
1517188578527340,-1,1,0,-2,-1,-1,-1,-1
1517188578527340,-1,0,-1,-1,1,-1,0,1
1517188578543362,-1,-3,-1,0,0,0,-2,-2
1517188578543362,-1,-2,-2,-2,-2,-1,-3,-1
1517188578545353,-1,-1,-3,-2,0,1,-1,-2
1517188578545353,-2,-1,-1,-2,-2,1,-1,0
1517188578566383,-2,-2,-2,-1,0,-1,2,-1
1517188578566383,0,1,-1,1,0,-2,-3,-2
1517188578567368,-1,-1,0,0,-1,1,-1,-3
1517188578567368,0,-1,-2,-2,-2,-2,0,-1
1517188578580377,-2,-2,-1,-3,-1,0,0,0
1517188578580377,0,-2,1,-1,-1,-1,-2,-2
1517188578587392,-2,-2,-1,-1,-1,0,-3,-1
1517188578587392,1,-1,0,0,-1,-2,0,-1
1517188578603423,1,-1,-1,-2,-2,-3,-2,-2
1517188578603423,0,-2,-1,-1,1,0,-1,0
1517188578605416,0,-2,-1,-2,0,0,0,-2
1517188578605416,0,-1,-1,-1,-1,-3,0,-2
1517188578626439,-1,-1,-1,0,-2,0,0,-3
1517188578626439,-3,-3,-1,-2,-3,-1,-1,-1
1517188578627420,-2,0,-2,-2,-1,0,-3,0
1517188578627420,0,-2,0,-1,-2,-2,-2,-1
1517188578639432,0,-1,-2,-1,-2,0,-1,0
1517188578639432,-1,-3,-1,-1,-2,-1,-2,-2
1517188578648436,-2,-1,-1,0,0,-2,0,0
1517188578648436,-2,-1,-1,-3,0,2,-3,-2
1517188578663447,-1,-2,-2,0,-1,-4,-1,-1
1517188578663447,-2,0,-1,0,-1,1,1,0
1517188578665448,-2,-2,0,-2,-1,-4,-1,-1
1517188578665448,-2,-1,-3,-1,0,1,-1,-1
1517188578686477,-3,0,-2,-1,0,-1,-2,-1
1517188578686477,1,1,-1,-1,0,-1,-1,0
1517188578687463,-1,0,-2,0,1,0,0,0
1517188578687463,-1,-2,-3,-2,-1,-1,-1,-1
1517188578699471,0,0,-1,-2,0,3,0,0
1517188578699471,0,-2,0,-2,-2,-2,-1,-2
1517188578708478,0,-1,0,0,2,-3,-2,0
1517188578708478,-2,0,-1,-2,-1,-3,0,0
1517188578723516,0,1,0,-2,-1,-1,-1,-1
1517188578723516,-1,-3,0,0,-2,-1,-2,-3
1517188578725501,-1,-1,-1,0,-1,0,0,-2
1517188578725501,0,-2,-2,0,-1,-3,-2,-1
1517188578746508,-1,0,0,0,-2,-2,-2,1
1517188578746508,0,0,0,0,-1,-1,0,0
1517188578747506,-2,-2,-2,-1,-2,-1,0,-1
1517188578747506,-1,-2,0,-1,1,2,-1,0
1517188578759554,-3,-2,-2,0,-1,-3,-2,1
1517188578759554,-4,-1,-1,-3,0,-1,1,-1
1517188578768521,0,-2,-2,1,-1,-2,0,-2
1517188578768521,-1,-2,-3,-1,-2,-1,0,0
1517188578783546,1,0,-2,-1,1,-4,-2,0
1517188578783546,-1,0,-2,-2,-2,-1,-3,-1
1517188578785551,-1,-4,-1,-2,-2,-2,-1,-1
1517188578785551,-2,0,-2,-1,0,0,0,0
1517188578806606,-1,-2,1,0,0,-1,0,-1
1517188578806606,-1,-1,1,2,-1,2,-1,-1
1517188578807547,-2,0,-3,-3,-1,0,-1,0
1517188578807547,-2,-1,0,-1,-1,-1,-1,-1
1517188578819580,0,-1,-1,-1,-1,0,0,-3
1517188578819580,0,-2,1,0,0,-2,-1,0
1517188578828567,0,-3,-1,-1,-1,1,-2,-1
1517188578828567,-1,-1,0,-1,-3,1,-1,-2
1517188578843599,-1,0,-1,-2,-3,-2,-2,-2
1517188578843599,-1,-1,0,0,-1,-1,0,0
1517188578845575,-2,-1,1,-3,-1,-1,-1,-1
1517188578845575,-1,-1,0,-1,-2,-1,0,-1
1517188578866590,-2,-3,0,1,-1,0,0,-1
1517188578866590,-1,0,-2,-1,0,-2,-3,-3
1517188578867591,-2,1,-2,0,0,-1,2,0
1517188578867591,-2,0,-2,-1,-2,-3,-2,-1
1517188578879599,0,-1,-1,-2,-1,-1,1,-1
1517188578879599,0,0,-1,-1,1,-1,1,0
1517188578888615,0,-2,0,-1,-3,0,1,-2
1517188578888615,0,-2,0,-1,-1,-1,-2,-2
1517188578903626,-1,-2,1,1,-1,-2,-2,0
1517188578903626,-2,-1,-1,-1,-1,-1,1,-2
1517188578905646,-2,1,-2,-1,0,-1,-2,-1
1517188578905646,0,0,-1,-1,-1,-2,0,0
1517188578926642,-2,-1,1,0,-1,-2,-1,0
1517188578926642,-1,0,2,-1,-1,-1,-1,0
1517188578927643,-2,0,0,0,-1,-1,-1,-2
1517188578927643,1,-3,-2,-2,0,-2,0,-1
1517188578939667,0,0,-3,-1,0,1,-1,-1
1517188578939667,-1,-1,-2,-1,-3,-3,-1,-1
1517188578948657,-1,-3,0,-2,0,0,-1,-2
1517188578948657,-1,-2,-2,-1,-1,-2,-3,0
1517188578963677,0,-1,0,-2,-2,0,2,-3
1517188578963677,-1,-2,-1,0,-1,-2,-3,0
1517188578965672,0,1,-3,0,-2,-1,-3,-1
1517188578965672,-2,-2,-1,-2,1,0,-1,0
1517188578986685,-1,0,-3,-1,-1,1,0,1
1517188578986685,-2,-1,1,-1,-1,-1,0,0
1517188578987685,0,1,-2,-1,-1,-3,-2,-2
1517188578987685,-1,-2,-1,0,-1,-1,-1,-2
1517188578999693,1,0,-2,-1,-1,-4,-2,-2
1517188578999693,-1,-2,-1,-1,0,1,-2,-2
1517188579008701,-1,-2,-2,0,-2,-2,-1,1
1517188579008701,-2,-1,-2,0,-1,-1,-1,-2
1517188579023711,0,-1,0,-3,-1,0,-2,-1
1517188579023711,-1,-1,-1,0,-1,-1,-1,0
1517188579025714,0,-2,1,0,-1,0,0,-3
1517188579025714,-1,-1,-2,-1,-1,-2,1,1
1517188579045738,-3,0,-1,-2,-3,-2,-1,-3
1517188579045738,-1,-1,-1,-1,-1,-2,-3,-1
1517188579047727,-2,0,-3,-1,1,-1,0,0
1517188579047727,0,-1,-3,-1,1,0,0,-1
1517188579059736,0,-1,-2,1,0,0,-1,-1
1517188579059736,-1,-1,-1,-2,-2,-2,-1,0
1517188579068743,-1,-1,-1,-1,-1,-1,0,1
1517188579068743,-1,0,-1,-2,-2,1,-1,-1
1517188579083753,-1,0,1,-1,-2,0,-1,0
1517188579083753,-1,-1,-2,0,-2,-1,1,-1
1517188579084754,-2,0,-2,-1,-1,-1,-2,-1
1517188579084754,-1,-1,0,-2,0,-3,-2,-3
1517188579105793,-3,-3,-1,0,0,0,-1,-2
1517188579105793,0,-1,0,-1,0,-2,-2,1
1517188579107772,0,-1,-1,-2,-1,0,0,0
1517188579107772,0,0,-2,-2,-1,0,1,-2
1517188579128785,-2,-2,-2,-2,-3,1,-1,-1
1517188579128785,0,-2,-3,-1,-1,0,-2,-1
1517188579129786,-1,-1,0,-1,-1,-2,-2,-2
1517188579129786,-2,-1,-1,1,0,-3,-2,0
1517188579143796,-1,-1,-1,-1,1,-2,-2,-1
1517188579143796,1,0,0,-1,-1,-2,-2,0
1517188579144797,-1,-1,-1,-1,-1,-1,-3,-2
1517188579144797,-2,-2,-1,-1,-1,0,0,-2
1517188579165811,-1,-1,-1,0,-2,0,-2,0
1517188579165811,-1,-1,-1,-1,-2,0,-2,-2
1517188579167813,1,-2,-2,-1,0,0,-1,1
1517188579167813,1,0,-2,0,-1,-1,0,0
1517188579188827,0,-1,-1,0,-2,1,-1,1
1517188579188827,-2,0,0,-2,-2,-2,0,-2
1517188579189844,-1,-2,-2,0,-1,-1,0,-1
1517188579189844,-2,-1,0,-2,0,-1,-1,-2
1517188579203848,-1,-1,-1,-2,0,-1,1,-1
1517188579203848,-1,-3,-1,0,0,4,1,-3
1517188579204841,-1,-1,-1,-1,0,1,-1,-2
1517188579204841,-1,-1,-2,-1,-2,-2,-1,0
1517188579225854,0,0,-2,-2,-1,-1,-1,-1
1517188579225854,0,-1,-1,-1,0,-1,-3,0
1517188579227855,-1,1,1,-2,-1,-2,0,-3
1517188579227855,-1,-2,-1,-1,-1,0,-4,-2
1517188579248870,1,-2,-2,-1,0,-1,-1,0
1517188579248870,-1,1,-1,0,0,0,0,-2
1517188579249871,2,-1,-3,-1,-1,-3,0,0
1517188579249871,0,-1,-1,-1,0,-1,0,-2
1517188579262880,-2,-2,0,0,-3,0,-1,-1
1517188579262880,1,1,0,-1,-1,-1,-1,0
1517188579269900,-2,-1,0,-1,-1,-2,0,-1
1517188579269900,-1,0,-1,-1,-1,1,-1,-1
1517188579285896,0,-1,0,1,-2,-2,-1,-1
1517188579285896,-1,-2,-1,0,-1,-2,-1,0
1517188579287898,-2,-2,-2,-3,2,-1,-1,-1
1517188579287898,-1,-1,1,0,-1,-2,-1,1
1517188579308915,0,-2,0,-1,0,0,1,-2
1517188579308915,-1,1,-3,-1,-3,0,-1,0
1517188579309912,-1,-1,-2,0,0,-2,0,-2
1517188579309912,-2,-3,-3,-1,-2,-3,-1,-1
1517188579322925,-1,-1,-1,0,1,0,-1,-2
1517188579322925,-2,1,-1,0,-1,-2,-2,-2
1517188579329927,-1,-1,0,-2,-1,-1,-1,0
1517188579329927,0,0,-2,-1,-1,-2,-1,-2
1517188579345959,0,-1,-1,-1,-2,-3,0,-1
1517188579345959,0,-2,-2,-2,1,0,0,-1
1517188579347957,0,-1,-3,-1,0,2,-3,-2
1517188579347957,-3,-1,-3,-2,-1,0,-1,0
1517188579368987,-1,0,2,-1,-1,0,-1,1
1517188579368987,0,-2,0,0,-1,0,-2,-2
1517188579369973,-1,0,-4,-2,0,-2,0,0
1517188579369973,-2,0,0,0,1,-2,-1,-2
1517188579382997,-2,0,-1,-2,2,1,-1,-3
1517188579382997,0,-1,-1,-2,-3,-3,-2,-1
1517188579389990,-2,-1,0,-1,-2,0,0,0
1517188579389990,-1,-1,-2,-1,-3,2,0,-2
1517188579406050,-2,0,-2,1,-2,-3,-3,2
1517188579406050,-2,-1,-2,0,1,1,0,-2
1517188579408000,-1,1,-3,0,-3,-2,1,-1
1517188579408000,-1,-1,-1,-1,-2,0,-1,-2
1517188579429015,1,-2,0,-1,2,-2,-2,-2
1517188579429015,-2,-1,-1,-2,0,-1,-1,0
1517188579430016,0,0,-2,-1,-1,-1,-2,-1
1517188579430016,-1,-1,0,0,0,1,-1,1
1517188579443025,-1,2,-1,-2,-1,0,-2,-3
1517188579443025,0,-2,0,-1,0,-1,-1,-2
1517188579450029,0,0,-1,-1,-1,-1,0,-2
1517188579450029,-2,1,-1,-1,-2,-1,-2,-2
1517188579466041,-2,-1,0,-2,0,-1,1,0
1517188579466041,-1,0,-1,0,-2,-1,0,1
1517188579468042,-1,-2,0,0,-2,0,0,1
1517188579468042,-2,-2,-2,1,1,-1,-3,-1
1517188579489057,-2,0,-2,-1,-1,0,-1,-1
1517188579489057,-2,0,-2,-3,-2,-1,-1,-2
1517188579490058,0,-1,-1,1,1,-3,-2,-2
1517188579490058,0,-2,-2,-1,0,-2,0,-2
1517188579503067,0,-4,-2,0,0,-1,-2,-3
1517188579503067,-3,-2,-1,0,-2,-1,-1,-2
1517188579517077,0,0,0,0,-2,0,1,-3
1517188579517077,-3,-1,0,-1,1,-4,-1,1
1517188579526086,-1,-1,1,0,-1,0,1,1
1517188579526086,-1,-1,0,0,-2,-2,-2,-1
1517188579528086,-1,-3,-2,-2,0,-1,-1,-1
1517188579528086,-1,0,-1,-2,-1,-1,1,-1
1517188579548099,-1,-1,0,0,-3,-1,-2,-1
1517188579548099,-1,-2,-1,-2,0,-2,0,2
1517188579550101,-2,0,0,0,-2,-2,-2,-1
1517188579550101,1,2,-2,-1,-4,-2,-1,-1
1517188579562110,-1,-1,-2,-2,0,-3,0,-2
1517188579562110,0,-3,0,-1,-2,-1,-1,-3
1517188579571114,-1,-1,0,-1,-1,0,0,-1
1517188579571114,1,-2,-1,-4,0,-1,1,-2
1517188579586142,-2,1,0,-1,-1,-2,-1,0
1517188579586142,0,0,-1,-1,0,0,-1,-2
1517188579588127,-3,-2,-1,-1,-1,-3,-1,0
1517188579588127,-2,-2,-2,-1,-2,0,-1,0
1517188579609163,-1,1,-1,-1,-2,-1,-2,0
1517188579609163,-1,1,-2,-2,0,-1,0,1
1517188579610143,0,0,-2,-1,-1,-2,-2,1
1517188579610143,-1,-3,0,1,0,-1,0,-1
1517188579622151,-1,-3,-1,0,-3,0,-1,-3
1517188579622151,0,0,-1,-1,-2,0,-2,-1
1517188579631158,0,-1,-2,0,0,0,-2,-2
1517188579631158,1,-2,-2,-2,-1,-1,0,-2
1517188579646168,1,-2,1,0,-1,0,0,1
1517188579646168,-1,-1,1,0,-2,-1,1,-2
1517188579648170,-1,-2,0,-1,1,-1,-2,-1
1517188579648170,-2,0,-1,1,-2,-2,-1,-1
1517188579668183,0,-2,-1,-2,-1,-3,0,-1
1517188579668183,0,-2,-1,0,-1,-1,-2,0
1517188579670185,-2,-1,-1,0,-3,0,-2,-2
1517188579670185,-2,-1,-2,-1,-1,3,-2,-2
1517188579682194,-2,1,-1,-1,-1,0,-1,-1
1517188579682194,-1,0,-2,-2,0,-1,0,-1
1517188579691200,-1,0,0,-2,0,-1,1,-1
1517188579691200,-1,-2,-2,-2,-1,-2,-2,-1
1517188579706210,-2,-1,0,-1,-3,0,-1,-1
1517188579706210,0,2,-1,-1,0,1,0,0
1517188579712215,-1,0,0,0,0,-2,-1,0
1517188579712215,-1,-1,1,0,-3,-1,1,-1
1517188579728266,-2,-1,-1,-1,0,-1,-1,-1
1517188579728266,-1,-2,-2,0,-2,-1,0,-2
1517188579730269,-1,-3,-3,0,-1,1,0,-2
1517188579730269,0,-1,-1,-1,-1,0,-2,-2
1517188579742277,-2,-2,1,-1,-2,0,-1,0
1517188579742277,-1,-2,-2,-2,-1,-1,-4,1
1517188579751282,-2,-1,-1,-2,-1,0,-1,0
1517188579751282,-1,-2,-2,-2,0,-2,-4,0
1517188579766310,-1,0,-1,-2,0,-2,-1,-2
1517188579766310,-2,-1,-2,-2,-1,-1,0,-1
1517188579767296,-1,-1,-1,-2,0,1,-1,-1
1517188579767296,0,0,-1,-1,1,-1,0,1
1517188579788308,1,-1,-1,0,-1,-2,0,-1
1517188579788308,-2,1,0,0,-2,-2,0,-2
1517188579790310,-1,0,-3,-1,-1,-2,-1,-1
1517188579790310,-2,-2,-2,1,-1,-1,-1,0
1517188579802334,-1,-1,-2,-1,-2,-2,0,-1
1517188579802334,-3,-2,0,-1,-2,0,-1,-1
1517188579811353,0,-2,-1,-1,-2,2,0,-1
1517188579811353,0,-1,-1,-1,-1,0,0,-1
1517188579826364,-1,-1,-1,-1,0,0,0,-1
1517188579826364,0,0,-2,-1,0,-2,1,-1
1517188579827364,-1,-1,0,-2,-2,-4,-1,0
1517188579827364,-1,0,-1,-2,-1,2,-1,-1
1517188579848379,-1,-1,-1,1,0,-1,-3,-1
1517188579848379,-1,-2,2,-1,-2,0,-2,1
1517188579850393,-1,0,-3,-2,-1,-2,-1,-3
1517188579850393,-2,0,-3,-1,-1,-1,1,0
1517188579871396,-1,-2,0,0,0,2,-2,-1
1517188579871396,-2,-1,-2,-1,-2,-1,-2,-1
1517188579872396,2,-1,-2,1,-1,0,0,0
1517188579872396,-1,-2,0,-1,-1,-2,-1,-3
1517188579886420,0,2,-1,-1,-2,-1,0,0
1517188579886420,0,-1,0,-2,1,0,-1,0
1517188579887407,-1,-2,-2,-1,-2,-2,0,-2
1517188579887407,-2,-1,-1,-1,-1,-4,0,-1
1517188579908422,-1,0,-1,0,1,-1,-2,-2
1517188579908422,-1,-2,-1,0,-1,-1,-1,-3
1517188579910423,0,-2,-1,-1,-2,0,-1,0
1517188579910423,-1,-2,0,2,-1,-2,-3,-1
1517188579922454,-1,-1,1,-3,-2,0,0,-1
1517188579922454,0,0,-2,-3,-2,-2,-2,-2
1517188579931439,-1,-1,0,-2,1,-1,-2,-2
1517188579931439,-2,0,-1,0,-2,0,-1,-1
1517188579946536,0,-2,-1,-1,-1,-1,-1,0
1517188579946536,0,0,-1,1,-1,-1,1,-1
1517188579947474,-1,-1,0,-2,-2,-3,-2,0
1517188579947474,-1,-2,0,-1,-1,1,-1,1
1517188579968489,-1,0,-1,-1,-1,-1,-2,-2
1517188579968489,-2,-2,-3,0,-1,0,-2,1
1517188579970491,-2,1,0,-1,-2,0,-1,-2
1517188579970491,-1,-1,-1,-2,-1,0,-2,-2
1517188579982509,-2,-2,-1,-2,-1,-2,-1,-2
1517188579982509,0,-1,-2,-1,0,-2,1,-1
1517188579991506,-1,-2,-1,-1,1,-2,-1,-1
1517188579991506,-1,-1,-1,-2,0,0,0,-1
1517188580006515,0,-2,0,1,-1,-1,-3,-1
1517188580006515,-1,-3,-2,-1,-1,0,0,-2
1517188580007517,0,-2,-1,-1,-1,0,-1,-1
1517188580007517,0,0,0,0,-2,-2,0,-1
1517188580028532,-3,1,-1,-3,-1,-2,1,-1
1517188580028532,0,-1,-1,-1,-3,-2,-2,0
1517188580030533,-1,0,-3,-2,-1,1,-2,-1
1517188580030533,-1,-1,-1,0,-1,-1,-1,-3
1517188580051547,0,-2,2,0,-2,-2,-1,-1
1517188580051547,-2,0,-3,0,-2,0,-1,-1
1517188580052549,-1,-2,1,0,-1,-2,-2,-3
1517188580052549,-1,-2,0,-1,-2,-2,1,0
1517188580066558,-1,-1,-1,-2,-1,1,-1,0
1517188580066558,-2,0,-2,-2,-1,0,-1,0
1517188580067560,0,-1,-2,-1,-1,-2,1,-2
1517188580067560,0,-2,0,-1,-2,-1,-2,-1
1517188580088621,-1,-2,-1,-1,0,-2,-2,-1
1517188580088621,-1,-2,2,-1,1,-2,-1,0
1517188580090576,-3,-2,-3,1,-1,-3,-1,-1
1517188580090576,-1,-1,-1,-2,0,-1,-1,-1
1517188580111590,0,-1,-2,-1,-2,1,0,1
1517188580111590,-2,-1,1,0,-1,1,0,-2
1517188580112596,0,1,-1,-2,0,1,-1,-1
1517188580112596,-2,0,0,0,-1,-3,0,-2
1517188580125620,-1,1,-1,0,0,-1,-2,1
1517188580125620,-2,-1,-1,-1,-2,0,-2,0
1517188580132616,0,-2,-1,-2,-3,0,0,1
1517188580132616,0,-2,-2,-2,-1,1,-2,-1
1517188580148633,-2,-2,0,-2,-1,-2,1,0
1517188580148633,0,-2,0,-1,1,-1,0,-3
1517188580150629,0,1,-2,-1,-1,-1,-1,-1
1517188580150629,1,0,0,-1,-1,-1,-2,0
1517188580170631,-1,-1,-2,0,0,1,0,-1
1517188580170631,-1,-1,-2,-2,-2,-2,-1,0
1517188580172633,-3,-4,-1,2,-1,-1,-2,0
1517188580172633,-1,-2,-1,-1,-2,0,-1,-1
1517188580185645,0,0,-1,-1,-1,-1,-1,-1
1517188580185645,1,1,0,-1,-2,-3,-1,-1
1517188580192650,-2,-3,-2,-1,0,-2,-3,-3
1517188580192650,-1,0,0,-2,0,0,0,0
1517188580208674,1,-1,0,0,0,0,2,0
1517188580208674,-1,-4,-2,-2,-1,0,-1,0
1517188580210659,-2,0,1,-1,0,1,-1,1
1517188580210659,-2,0,0,-1,-1,-1,0,-2
1517188580230676,-4,-2,-1,-3,-1,-1,-1,-3
1517188580230676,-1,0,-1,0,1,-2,-1,0
1517188580232675,1,-1,-2,-1,-1,-1,0,0
1517188580232675,-3,-3,-1,-1,-1,1,-1,0
1517188580245700,-1,-1,1,-1,0,-3,-1,-1
1517188580245700,-1,-2,0,-2,0,-1,1,-3
1517188580252689,-1,0,-1,-2,-2,0,1,-1
1517188580252689,-1,-1,0,-3,-2,-3,-1,-4
1517188580268716,0,-1,-1,-2,-4,-2,0,-1
1517188580268716,-2,0,1,-1,-1,0,-2,-1
1517188580270703,0,0,-2,-1,-2,-2,-2,-1
1517188580270703,0,0,1,0,-1,0,-1,-2
1517188580290727,0,-2,-2,-2,-3,0,-2,-1
1517188580290727,1,-1,-2,0,-2,-2,-2,-2
1517188580292719,0,-3,-1,0,0,0,-1,0
1517188580292719,-2,-1,-2,-1,-1,-1,0,1
1517188580305750,-1,0,0,-2,0,-1,-2,0
1517188580305750,-1,1,-2,-2,-2,0,-1,2
1517188580312732,-3,0,-2,-4,0,0,-2,-3
1517188580312732,-1,1,-2,-1,0,0,-1,-2
1517188580328744,-2,-1,0,-1,-1,0,-1,0
1517188580328744,-2,-1,-1,-1,0,-2,-3,-1
1517188580329748,-1,-3,-1,-1,-1,-1,0,1
1517188580329748,1,-1,0,-2,-1,1,-2,0
1517188580350761,-1,-1,-1,-1,-3,0,0,-3
1517188580350761,0,-2,-1,-1,-1,-1,-1,-1
1517188580352765,0,-2,0,-1,-2,-1,-1,0
1517188580352765,-2,-1,-2,1,-3,-2,1,-1
1517188580365792,-2,-1,-1,1,-1,0,-2,-2
1517188580365792,-1,0,-2,-1,-1,-2,-1,0
1517188580371796,-3,-1,0,-1,0,1,-3,-1
1517188580371796,0,-1,-2,-1,-1,-2,1,2
1517188580388808,0,-1,-2,-4,-1,-3,-1,-2
1517188580388808,-2,-2,1,-1,-1,-1,-1,-3
1517188580389791,-1,0,-3,0,-2,-1,-1,-2
1517188580389791,-1,0,-1,0,-1,-4,-1,0
1517188580410802,0,0,-1,-1,-2,0,0,2
1517188580410802,-1,-1,0,-2,-2,-1,-1,-1
1517188580412804,-2,1,-3,-1,0,-2,1,1
1517188580412804,-1,-1,0,0,1,0,-1,0
1517188580425827,0,-1,0,0,0,-2,0,-2
1517188580425827,-1,-1,0,-1,0,-1,0,-3
1517188580432816,0,-2,-1,-1,0,0,-2,-2
1517188580432816,-2,-1,0,-2,-3,0,-2,-1
1517188580448842,1,-2,-2,-1,-1,-1,0,0
1517188580448842,-2,-1,0,-2,-1,2,0,-1
1517188580449843,-1,0,-3,-2,0,-1,2,-1
1517188580449843,0,-2,-2,-1,-1,0,-1,0
1517188580470884,-5,-2,0,-1,-1,-2,-3,-3
1517188580470884,0,-2,-3,0,-1,-1,-1,0
1517188580472846,0,-1,-2,-2,-1,-3,0,-2
1517188580472846,-2,1,-1,-1,0,-1,-1,-1
1517188580485869,0,-1,1,2,-1,0,-1,-1
1517188580485869,-2,0,0,-1,-1,-2,-1,0
1517188580491868,0,0,1,0,-4,0,-1,1
1517188580491868,-2,-1,0,-1,-1,-1,-1,-1
1517188580508870,-2,0,-1,0,0,0,-2,-1
1517188580508870,-1,0,-1,-1,0,-3,-3,0
1517188580509873,-1,-2,-3,-3,-3,-1,-1,0
1517188580509873,-1,-2,-1,-3,0,1,-3,0
1517188580530896,-1,-2,0,-2,-2,-3,1,-1
1517188580530896,-1,-3,0,-1,-2,1,0,0
1517188580532899,-2,-1,-3,-1,0,-3,-1,-1
1517188580532899,-1,-2,-2,-1,-2,-1,-1,0
1517188580544911,-1,-2,0,-2,-3,1,-1,-2
1517188580544911,-1,-2,-2,-1,-2,-2,0,-1
1517188580553904,-1,-1,1,-2,1,-1,-1,-2
1517188580553904,-1,-2,-2,-2,-2,-2,0,-2
1517188580568916,0,0,-3,0,-1,1,-2,-1
1517188580568916,-1,-1,-1,-1,0,0,0,0
1517188580569914,0,1,-2,0,-1,-1,-2,0
1517188580569914,-1,-1,0,-1,-1,-1,0,-2
1517188580590988,-1,-1,-1,-2,0,-2,-1,-2
1517188580590988,1,0,-1,-2,1,1,-2,0
1517188580592932,0,-2,1,0,-1,-1,-1,-1
1517188580592932,0,-2,0,0,1,0,0,0
1517188580604961,-1,-3,-2,-1,-2,-3,-1,-1
1517188580604961,1,-2,0,-1,-2,-3,-1,-2
1517188580613955,-1,0,-1,-1,-1,0,-1,-2
1517188580613955,-2,-2,-1,-2,-4,-1,0,-1
1517188580628965,-2,0,-2,-1,-1,0,-2,-1
1517188580628965,0,-2,-3,-1,-2,1,0,-1
1517188580629958,-2,0,-3,-2,-1,-1,1,-1
1517188580629958,-1,-3,-1,0,1,-3,-1,-1
1517188580650981,-1,-1,-1,-1,-3,-2,-1,0
1517188580650981,-2,-2,-1,1,-2,-1,-1,-1
1517188580653010,-2,-1,0,-2,0,-2,-1,0
1517188580653010,0,0,-1,0,1,0,1,1
1517188580664991,0,0,0,-3,1,-3,1,1
1517188580664991,-2,-1,-1,-2,0,-1,-1,-2
1517188580673989,-1,-4,0,0,-1,0,1,-2
1517188580673989,0,0,0,-1,-1,-2,-1,-1
1517188580689013,-1,-1,0,-1,0,-2,-2,-3
1517188580689013,-1,-2,-1,-2,-1,0,0,-1
1517188580690000,-1,-2,1,-1,-1,0,-1,1
1517188580690000,-1,0,1,0,-2,-1,-1,-2
1517188580711013,0,-2,-1,0,-1,1,1,0
1517188580711013,-1,0,-1,0,-1,0,-1,-2
1517188580713025,2,-1,-2,-1,-1,0,0,-2
1517188580713025,0,1,0,-2,-1,1,-2,-1
1517188580725024,-1,-2,0,-1,-1,-1,-1,-1
1517188580725024,-2,-1,-2,0,-1,0,0,-1
1517188580734041,-3,-2,-3,0,-1,-3,-1,-1
1517188580734041,-2,-1,-2,-1,-1,-1,-1,-1
1517188580749040,-2,-1,-1,0,-1,-2,-3,0
1517188580749040,0,0,0,0,0,-2,0,-1
1517188580750043,0,-1,1,-1,-3,-2,-3,-1
1517188580750043,-1,-2,-2,-1,0,-1,0,-1
1517188580771058,0,-1,-1,1,0,0,-1,0
1517188580771058,-1,1,-1,0,-1,1,-2,-1
1517188580773081,0,1,-3,-1,-2,0,-1,-1
1517188580773081,-2,-1,0,1,-2,0,0,-2
1517188580785077,0,0,1,-2,-2,-1,0,-1
1517188580785077,1,-1,0,0,-2,-1,-2,-2
1517188580794072,-1,0,-2,-2,-2,-2,-2,-3
1517188580794072,-1,-2,-2,-1,0,-2,0,-2
1517188580809085,-1,-1,-1,-2,-1,1,0,-2
1517188580809085,-2,-1,-1,-2,-1,-3,-3,0
1517188580810086,0,-2,0,0,-1,0,0,0
1517188580810086,0,-2,0,-1,-1,0,-2,-2
1517188580831099,0,-1,0,-1,0,-2,0,0
1517188580831099,0,0,-1,-1,1,-1,1,1
1517188580833137,-1,0,0,0,0,0,0,0
1517188580833137,0,-1,-2,-2,-1,-1,-1,-1
1517188580845109,-1,0,-1,-1,-1,0,0,0
1517188580845109,-2,0,-2,-1,-1,-2,-1,-2
1517188580854116,-3,-2,-3,-1,-1,-2,-1,0
1517188580854116,-1,0,0,-1,0,-1,0,-1
1517188580869126,-1,-3,-2,1,-1,-3,0,-2
1517188580869126,0,-1,-2,-1,-1,-1,-1,-1
1517188580870127,-2,-2,-1,-1,0,-2,-2,-2
1517188580870127,-1,0,1,-2,-1,0,0,0
1517188580890140,0,0,0,0,-1,-1,-2,-2
1517188580890140,-2,-1,0,0,-1,-1,-3,0
1517188580891142,0,0,-3,-2,0,0,-1,0
1517188580891142,-1,0,-2,0,-1,0,0,0
1517188580913179,-2,-1,-1,0,-1,-1,-2,-1
1517188580913179,-1,0,0,0,0,-1,1,-1
1517188580914157,0,-2,-1,-3,-1,1,-1,-2
1517188580914157,-1,-2,1,-1,-2,-3,-2,-2
1517188580928168,-3,-1,-3,-2,-2,-1,-2,-2
1517188580928168,-3,-3,1,-2,-2,0,-1,1
1517188580929169,-2,-2,1,0,0,-1,-1,0
1517188580929169,-1,-1,0,0,0,-2,1,-1
1517188580950185,0,-3,0,-2,0,0,0,1
1517188580950185,0,-2,-2,-1,0,-3,-1,-3
1517188580951184,-2,-1,-1,-1,-1,0,-2,0
1517188580951184,-1,-3,-2,-1,-2,-2,-1,1
1517188580973199,1,-1,0,-1,-2,-2,-1,0
1517188580973199,-1,0,-3,-2,1,-2,-1,-1
1517188580974201,-1,1,1,-1,-2,0,1,-1
1517188580974201,-1,0,-2,1,0,0,0,-1
1517188580988211,-1,-1,-2,-1,-2,0,0,0
1517188580988211,2,-2,-2,2,-1,1,-2,-1
1517188580988211,-1,-1,0,-2,-2,-2,-1,-2
1517188580988211,-3,0,0,-3,-1,-1,-2,-1
1517188581010226,-2,-3,1,1,-1,0,-1,1
1517188581010226,0,-3,-1,-3,-3,1,1,1
1517188581011226,0,0,-3,-1,0,-4,-1,-1
1517188581011226,-1,0,0,-2,-2,0,-1,-1
1517188581033243,-2,0,-2,-1,0,-2,-2,-2
1517188581033243,-1,0,-1,-2,-1,-1,1,0
1517188581033243,-3,-1,-3,0,-1,-2,2,-1
1517188581033243,0,-2,-1,-3,-1,-1,-2,-3
1517188581048258,0,-1,0,-2,0,-1,-1,-1
1517188581048258,0,0,0,-1,-1,-1,0,-2
1517188581048258,0,-2,-2,-1,-1,0,-2,0
1517188581048258,-1,-2,1,-1,-1,-1,0,1
1517188581070278,-2,-1,0,1,-1,0,-1,-1
1517188581070278,-1,0,-1,-3,0,-1,-1,-2
1517188581071282,-2,-1,0,0,0,-3,-1,0
1517188581071282,-1,0,-3,1,-2,-1,-1,-2
1517188581093287,0,0,0,-4,-1,-1,0,-1
1517188581093287,-3,-4,-3,-2,-1,-1,-2,0
1517188581093287,-1,0,-1,-1,-1,0,-2,-2
1517188581093287,0,-2,-1,0,-1,1,-2,0
1517188581108294,0,0,-1,-3,-1,-1,0,-2
1517188581108294,-3,-1,-2,-1,-1,-2,-1,-2
1517188581108294,0,0,1,-2,-1,-1,-1,-2
1517188581108294,0,1,0,0,0,0,-1,2
1517188581130310,0,-1,0,1,-1,-2,-1,-2
1517188581130310,-1,-1,-1,0,-2,0,0,0
1517188581131311,-1,-1,-1,-1,-2,0,0,-1
1517188581131311,-1,-1,0,-2,0,-2,1,-2
1517188581153327,-1,-1,-4,0,0,-1,-2,0
1517188581153327,0,0,1,1,-2,-2,-2,-1
1517188581153327,-2,-1,-1,-1,-1,1,0,0
1517188581153327,-1,0,-1,-1,-1,-3,-2,0
1517188581168337,-3,-1,0,-1,-2,-1,0,-3
1517188581168337,0,-2,-1,-3,0,-2,-3,-3
1517188581168337,1,0,-2,-2,0,0,1,0
1517188581168337,0,-2,0,-2,-1,0,-1,-1
1517188581190363,-2,-2,-1,1,-1,-2,-1,0
1517188581190363,-2,1,-1,0,-1,0,-1,1
1517188581191354,0,0,-1,0,-1,-1,-2,0
1517188581191354,-1,-1,-2,-1,1,-2,-1,-2
1517188581212379,0,1,-1,-2,1,1,0,-1
1517188581212379,-2,2,1,-1,0,-1,-1,0
1517188581213369,-3,-3,-2,-1,-1,-2,-4,-1
1517188581213369,1,-1,-1,-3,-2,-2,-2,-1
1517188581227433,0,3,2,-1,-2,-1,0,-2
1517188581227433,-2,-4,-2,-1,-1,-1,1,-2
1517188581228433,-1,-2,1,-2,0,-2,1,-1
1517188581228433,-2,-2,-1,0,-1,-1,-1,0
1517188581258470,0,-2,0,-1,-1,0,-2,-2
1517188581258470,-1,0,-1,-1,-1,-1,0,-1
1517188581259457,0,-1,-3,1,0,-2,-2,-1
1517188581259457,-1,-1,-2,-1,-1,-1,-2,-2
1517188581273476,0,-1,-1,-1,-2,-1,-1,-1
1517188581273476,1,-1,-2,-1,0,-2,0,-2
1517188581273476,1,-2,0,-1,0,-2,-1,-1
1517188581273476,-2,-1,-1,0,-1,-2,-1,-1
1517188581287486,-4,-2,-2,-1,-3,1,-2,0
1517188581287486,-3,-1,-1,-1,0,0,-3,0
1517188581288486,0,-3,0,-1,-1,0,0,-2
1517188581288486,-2,-1,1,-2,1,-3,-1,-1
1517188581310491,-1,-2,-1,0,-1,-2,-3,-2
1517188581310491,-1,-2,-2,-2,-2,0,-1,0
1517188581311493,-1,0,-1,-2,-3,0,-3,-2
1517188581311493,-1,-1,-1,1,-1,1,1,-2
1517188581332508,-1,-1,0,-1,-2,-2,-1,-1
1517188581332508,0,-1,-2,0,-1,-1,-1,-1
1517188581333509,-2,-1,-2,0,0,0,-1,1
1517188581333509,-3,-4,-4,-1,1,1,-1,-1
1517188581347529,-1,0,1,0,0,-1,0,-2
1517188581347529,1,-1,-1,0,2,-2,-1,-2
1517188581348518,-1,0,-2,-4,-1,-2,0,-2
1517188581348518,-1,-1,0,-2,-4,0,-1,-1
1517188581370545,-1,-1,-1,0,0,-1,-2,0
1517188581370545,1,-2,0,-1,-2,-2,0,0
1517188581371547,-1,0,-2,-2,-1,1,0,-1
1517188581371547,-2,-3,0,1,-1,-1,-1,-2
1517188581393551,1,-2,-1,-1,-1,-2,0,0
1517188581393551,-2,-1,-2,-2,0,-1,-2,-1
1517188581393551,0,-2,-1,-1,0,-4,1,0
1517188581393551,-1,0,-1,-1,1,0,-1,0
1517188581407584,0,-1,-1,-1,0,0,0,-1
1517188581407584,-1,0,1,0,0,-3,-1,-1
1517188581415580,-1,1,-1,1,-2,-1,-2,-1
1517188581415580,-1,0,-1,-1,-3,-1,0,-3
1517188581430578,-2,-2,-3,0,1,-1,-1,0
1517188581430578,0,-1,-1,-1,-1,0,-1,0
1517188581431579,0,-3,-1,0,-1,-1,-1,-2
1517188581431579,2,-2,0,-1,-1,-2,-2,1
1517188581452608,-1,-2,0,-3,-1,-1,-2,-1
1517188581452608,-2,0,-1,-1,-1,1,-1,-2
1517188581453593,0,1,-1,-1,-1,-2,-2,0
1517188581453593,-2,1,0,1,-2,0,-3,-1
1517188581467603,0,-2,0,-1,0,-1,-3,-2
1517188581467603,-2,-5,-3,1,1,-3,1,-2
1517188581468606,-1,0,-1,-1,-1,0,-1,-1
1517188581468606,0,-1,0,1,1,0,0,1
1517188581490637,-1,-1,-1,-2,-2,-1,-1,0
1517188581490637,-1,2,0,-2,-3,-1,-1,-2
1517188581491630,-1,-3,-1,-2,-2,0,-2,1
1517188581491630,0,-1,-1,-2,-1,-1,-1,-2
1517188581512645,0,-1,-3,0,-3,1,-1,-1
1517188581512645,-2,0,-1,0,-2,-3,-3,1
1517188581513637,-2,-3,-1,-3,-1,-1,1,-1
1517188581513637,-1,1,-3,-2,0,-1,0,0
1517188581527646,0,-1,-1,0,1,-2,0,0
1517188581527646,0,-2,-1,-2,-3,-1,-1,-2
1517188581528647,-1,2,0,-1,-1,-3,-2,0
1517188581528647,-1,-1,1,-1,-1,-4,1,-3
1517188581550672,1,-1,-1,0,-1,0,-1,-1
1517188581550672,-1,-1,-3,-1,0,1,-1,-2
1517188581551675,-2,-1,-3,0,-1,0,0,0
1517188581551675,0,-1,0,-2,-3,0,-2,-1
1517188581572737,-1,-1,-2,-1,0,0,-1,-1
1517188581572737,1,-2,0,-1,0,-2,-3,0
1517188581573729,1,0,-1,-1,0,1,-1,-3
1517188581573729,-3,-2,0,-1,-1,-1,-1,0
1517188581586748,-2,-1,0,1,0,-1,-1,-1
1517188581586748,-2,-2,-2,-2,0,-2,-2,-1
1517188581595753,-1,-2,0,0,-1,0,-1,0
1517188581595753,-2,0,-1,0,0,-2,0,-1
1517188581610755,-1,-1,0,-4,-1,-3,-3,-1
1517188581610755,-1,1,0,-1,-3,0,0,0
1517188581610755,0,0,-2,-1,-3,-2,-2,-1
1517188581610755,-1,-1,-1,1,1,-2,-2,-1
1517188581632778,-1,-2,-3,-1,-2,-2,0,0
1517188581632778,-1,-2,-1,-3,-2,0,-1,0
1517188581633770,-1,0,-1,-3,0,-1,-1,-2
1517188581633770,-2,-2,1,-1,-1,-1,-1,-2
1517188581646779,-1,-1,-3,0,1,-1,0,-1
1517188581646779,0,-2,-2,0,0,-2,0,-1
1517188581655801,-1,-1,1,-1,-2,0,-3,-2
1517188581655801,-1,-1,-1,0,0,1,-2,-1
1517188581670796,0,0,-1,0,-2,-1,-2,-1
1517188581670796,-1,1,-2,-3,-2,-2,-2,-1
1517188581670796,-1,-3,-1,0,-2,-2,-1,-2
1517188581670796,0,-1,-2,-1,0,1,-1,0
1517188581692816,-1,-2,1,-1,-2,0,1,0
1517188581692816,0,0,0,-1,0,0,-1,-2
1517188581693813,-2,-1,-2,-1,0,-2,-2,-1
1517188581693813,-1,-2,-2,0,-1,-2,-1,0
1517188581706832,-2,-1,-1,-2,-1,0,0,-1
1517188581706832,-2,-1,-3,0,0,0,0,0
1517188581715838,0,0,0,0,0,-1,-1,0
1517188581715838,-1,-1,0,-1,-3,0,-1,0
1517188581730839,-1,0,-2,-3,-3,-2,-2,-3
1517188581730839,-1,-1,-1,-1,-3,-1,-1,0
1517188581730839,0,-1,-2,0,-1,-1,0,-2
1517188581730839,-1,-1,0,1,-1,-4,0,0
1517188581752864,-1,-2,0,-3,0,0,-3,1
1517188581752864,1,0,-1,-2,-1,-1,-1,-1
1517188581753854,-1,-2,-2,-1,-1,0,1,-2
1517188581753854,0,0,-1,-1,-2,0,-1,0
1517188581766867,0,-1,-2,0,-2,-3,0,-1
1517188581766867,-3,-2,0,0,1,1,1,-1
1517188581775872,-1,0,0,-2,0,2,-1,-1
1517188581775872,1,0,-2,-2,-2,-1,1,-2
1517188581789889,-2,0,0,2,-1,-1,-1,-2
1517188581789889,-2,-1,-2,-1,-2,0,-3,0
1517188581797895,0,-1,0,0,-1,-4,-1,-2
1517188581797895,-2,0,0,-2,1,1,-1,-1
1517188581812926,-1,0,-2,-2,0,-2,1,1
1517188581812926,-1,-3,-1,-1,-3,-2,0,0
1517188581813900,-1,-2,-1,-2,-2,-1,1,1
1517188581813900,0,0,0,-2,-1,0,-2,-2
1517188581826918,0,0,2,0,-2,0,0,0
1517188581826918,-1,-2,-3,-1,-1,-2,-2,-1
1517188581835914,-1,-3,-4,-1,0,0,-1,0
1517188581835914,-1,0,1,-1,0,-3,-1,-1
1517188581849923,-2,0,0,0,0,-1,-1,-3
1517188581849923,-1,-1,-1,0,-1,0,-1,-1
1517188581850924,0,1,1,1,-3,-1,0,-1
1517188581850924,-3,-1,-3,-1,-1,-2,-1,0
1517188581872939,0,-2,-2,0,0,-3,-4,-1
1517188581872939,-2,0,0,1,1,-1,0,-2
1517188581873940,0,-1,0,-2,-2,0,-2,-1
1517188581873940,-1,-2,-2,-1,-1,-1,-2,-2
1517188581886952,0,-2,-2,-2,-2,-3,2,-1
1517188581886952,2,0,-1,0,-1,-1,-2,-1
1517188581896003,0,-4,-1,-1,1,-2,0,-2
1517188581896003,-2,-1,2,-1,0,0,0,-1
1517188581910012,-2,-1,-2,-1,0,0,-3,-1
1517188581910012,-1,0,-2,-1,-1,-2,-1,-1
1517188581911014,-1,0,-2,-1,0,-1,-2,-1
1517188581911014,0,-1,-1,2,-2,0,-2,-1
1517188581933027,-1,0,0,-2,-1,-1,2,0
1517188581933027,-2,0,-3,-2,0,1,-1,-2
1517188581934039,-1,-2,-2,-1,-2,-2,-2,-1
1517188581934039,0,-2,-4,-2,-2,-2,0,0
1517188581956042,-2,-2,0,0,0,-2,-1,0
1517188581956042,0,0,1,-2,0,2,1,0
1517188581957043,-1,-2,-1,-3,0,-1,-3,-2
1517188581957043,0,-1,1,1,-2,1,-1,-2
1517188581970073,-1,-1,-1,-1,-1,1,-2,-1
1517188581970073,-2,0,-1,0,0,-2,-2,-1
1517188581971076,-1,-1,0,-1,-2,-1,0,-1
1517188581971076,-1,0,-2,-2,0,-2,-1,-2
1517188581993071,0,-1,-1,0,-2,-1,1,-1
1517188581993071,0,-2,-2,-1,-2,-1,-1,0
1517188581994069,0,-1,-1,-1,0,0,-1,-2
1517188581994069,0,-1,-1,-1,-1,-1,0,2
1517188582016150,-3,0,-2,-2,1,-1,-1,-1
1517188582016150,-1,0,-2,-1,-2,-4,-1,-3
1517188582017144,-2,1,2,1,-3,-1,-2,0
1517188582017144,0,-2,-1,-1,0,0,-1,-1
1517188582030150,-1,-1,0,-1,-3,-2,-3,-1
1517188582030150,-1,0,0,0,-1,-1,-1,0
1517188582031152,0,0,-2,1,0,-1,1,-2
1517188582031152,-1,1,0,-1,-2,-1,0,0
1517188582053263,-1,-1,-1,-2,-1,2,-2,-1
1517188582053263,-2,0,-1,-1,-4,-2,-1,-2
1517188582053263,-1,-1,-1,-1,-3,-1,0,0
1517188582053263,1,-1,-1,0,-1,-1,-2,-2
1517188582076271,0,-1,-1,-2,0,-3,0,0
1517188582076271,-1,-2,0,-1,2,-1,-1,0
1517188582077270,-1,-2,-3,0,-1,0,-1,-1
1517188582077270,1,-1,-1,-2,-3,-3,0,-1
1517188582090297,-1,-1,-1,0,-3,-1,0,0
1517188582090297,0,1,0,0,-1,0,0,-1
1517188582091278,-1,0,1,-1,1,-2,-3,-2
1517188582091278,-3,-2,-2,-2,-3,-1,-1,-2
1517188582113293,0,0,-2,-2,1,0,0,0
1517188582113293,0,-2,-1,-2,0,-1,-1,-1
1517188582113293,-1,-1,-4,-1,0,-4,-2,-1
1517188582113293,-1,0,-1,0,-1,1,-2,-1
1517188582136321,-1,1,-1,0,-1,-2,-2,-1
1517188582136321,0,-1,-3,-2,-3,-1,0,0
1517188582137310,-1,0,-1,-2,-1,2,-1,-1
1517188582137310,-1,-1,1,-2,0,0,-1,0
1517188582150365,-2,-1,2,0,-1,-2,-1,-1
1517188582150365,-1,-2,-4,0,1,-2,-3,-2
1517188582151366,-2,-3,0,-1,-4,-1,-1,0
1517188582151366,-2,-1,-2,-1,-1,-1,-1,-1
1517188582173381,-2,-3,-2,0,1,0,0,-1
1517188582173381,0,-2,0,-2,0,0,0,-1
1517188582174378,0,0,0,-3,0,-2,-1,0
1517188582174378,-1,1,1,0,-2,-4,-2,-1
1517188582196398,-1,-1,-1,-3,-2,0,-1,-1
1517188582196398,-1,1,-1,-2,-2,-2,-1,-1
1517188582197398,1,-1,-3,-2,-1,0,1,2
1517188582197398,1,0,0,0,-1,-1,1,12
1517188582210410,-3,-1,-2,0,0,-1,-5,-12
1517188582210410,-3,-2,-2,-1,-2,-2,0,-7
1517188582211407,-2,-2,0,-1,-2,-1,-3,-4
1517188582211407,-2,-2,0,-1,-1,1,-1,-2
1517188582233436,1,-1,-1,-1,-3,0,1,4
1517188582233436,-1,-1,-1,-1,0,0,-2,3
1517188582234421,-1,-1,-3,1,-1,-2,0,-1
1517188582234421,-1,0,-1,0,0,-2,-1,-3
1517188582256450,2,0,-3,0,1,-3,1,2
1517188582256450,0,-2,1,-3,-3,-2,0,-3
1517188582256450,0,0,-1,0,-1,-1,0,-1
1517188582256450,-1,-2,-1,-1,0,-1,-3,-3
1517188582270456,-1,-2,0,-1,0,0,1,0
1517188582270456,-1,1,0,-1,-1,-2,-3,1
1517188582271449,1,-1,0,-2,-2,0,-2,2
1517188582271449,-2,-1,0,-3,0,-3,0,-4
1517188582293465,0,-2,-1,-1,-2,-2,0,-2
1517188582293465,-1,-1,-3,1,-1,1,-1,-1
1517188582294462,-1,0,0,-1,-1,-1,-1,-2
1517188582294462,-3,-3,-1,0,-2,-3,-2,-4
1517188582316479,-1,0,-2,-2,-3,0,-2,1
1517188582316479,0,-2,-2,-1,-1,-1,-2,-1
1517188582316479,-3,-1,-2,0,0,0,-1,-1
1517188582316479,1,-1,-1,0,-1,-1,-2,-3
1517188582330489,-2,0,-1,0,-1,-3,0,-1
1517188582330489,0,-1,-1,-1,-1,-2,0,1
1517188582331489,-1,-2,-2,-1,-2,-2,-2,-1
1517188582331489,0,-1,0,-2,-1,-1,-1,-1
1517188582353508,-1,-1,-1,1,-1,0,0,-2
1517188582353508,-2,-2,-1,-2,-2,-1,0,0
1517188582354509,-2,-1,0,-2,0,-1,-1,0
1517188582354509,-2,-2,-2,0,-1,-1,-2,0
1517188582376542,1,-2,-2,-1,0,-2,-2,-1
1517188582376542,0,0,0,-2,-1,-1,0,0
1517188582376542,-2,-3,0,0,0,-1,0,-4
1517188582376542,0,-1,-2,-1,-1,0,-2,-2
1517188582390552,-2,-2,-1,-2,1,0,-2,1
1517188582390552,0,-2,-2,-1,-2,-2,0,0
1517188582391532,0,-1,-2,0,-1,-2,-1,1
1517188582391532,1,-1,-1,-1,-2,0,1,-2
1517188582413550,-2,-2,-1,-1,-1,-2,-2,-1
1517188582413550,0,-2,-1,-2,0,-4,-2,-1
1517188582414552,-1,0,0,-2,-2,0,-1,-1
1517188582414552,-2,-3,0,-2,-2,-2,0,-2
1517188582436584,0,0,-1,-1,-2,-1,-1,-1
1517188582436584,-1,0,-2,-1,-1,-1,0,1
1517188582436584,0,-1,-1,0,-1,0,0,-1
1517188582436584,-3,-1,0,-1,-1,-2,-1,5
1517188582450577,-1,-2,0,0,-1,0,-1,-3
1517188582450577,-2,-1,-2,-2,1,-3,-1,-3
1517188582451578,-2,-2,-1,-1,-1,-2,-2,0
1517188582451578,0,0,0,-1,-2,2,1,1
1517188582473593,-2,-2,-3,0,-1,-2,-1,2
1517188582473593,-3,-2,-2,0,0,0,1,-1
1517188582474591,0,-1,-3,-1,-2,-1,-2,2
1517188582474591,1,0,-2,-1,-1,1,-2,-1
1517188582496618,-1,-2,-1,-1,1,-1,-1,-2
1517188582496618,0,-1,-1,-1,-3,1,-2,-2
1517188582497610,-2,-1,0,-2,0,0,-1,-3
1517188582497610,-3,-2,0,-1,-2,-4,-2,-3
1517188582509619,1,-1,0,-2,0,-1,-1,0
1517188582509619,-3,0,-1,-3,-1,-2,-2,-1
1517188582517640,-1,-2,0,-2,-2,0,-2,-2
1517188582517640,-1,0,-2,-1,1,-3,-1,-3
1517188582533647,-1,1,-1,-2,-1,0,-1,1
1517188582533647,0,-2,-1,-1,0,1,-1,-2
1517188582534648,-2,-1,-1,-1,-2,-1,0,-1
1517188582534648,0,0,1,-1,-2,-3,0,-3
1517188582555663,0,-1,-1,-2,-1,0,-2,-1
1517188582555663,0,-1,0,0,-1,-1,-2,-1
1517188582556661,1,-2,-2,-2,0,0,0,-4
1517188582556661,-1,-2,-2,-1,0,-1,-2,0
1517188582569659,-1,0,0,1,-3,-1,-2,0
1517188582569659,0,-1,1,-1,1,-1,0,1
1517188582577673,-1,-1,0,-3,-1,-3,1,1
1517188582577673,-2,0,-3,-1,0,1,0,-1
1517188582593691,-1,1,-1,-1,-2,-1,1,-2
1517188582593691,-2,-2,-3,0,-1,1,-1,-2
1517188582594676,1,-1,0,1,-3,-1,0,-1
1517188582594676,0,1,-1,0,-1,1,-1,-2
1517188582616697,0,-2,-2,-2,-2,-1,-1,-1
1517188582616697,-4,0,-1,-1,-2,-2,1,-1
1517188582616697,-2,0,-1,-2,-2,-3,-1,0
1517188582616697,0,0,0,1,-2,-1,-2,-2
1517188582629701,0,1,0,-2,0,-1,-2,-1
1517188582629701,1,0,1,-2,-1,-3,-2,-1
1517188582637734,-2,0,-2,0,0,1,0,-1
1517188582637734,0,0,1,-3,0,0,0,-1
1517188582653719,-1,-1,0,-2,0,-2,0,-1
1517188582653719,-1,-3,-2,-2,-2,0,-2,-1
1517188582654720,0,0,0,0,-2,0,-1,0
1517188582654720,0,-2,1,-1,-2,-2,-1,-1
1517188582676740,-1,-1,-2,0,-1,-2,0,-2
1517188582676740,-1,1,-1,-1,-1,-2,-1,0
1517188582676740,-1,-1,-1,-1,-2,2,0,-3
1517188582676740,-2,-4,-1,-1,-2,-2,-2,-1
1517188582698769,0,-1,-2,-2,-3,-1,-1,1
1517188582698769,-1,-1,-1,-2,-3,-3,0,-1
1517188582699753,0,0,-1,-1,0,-3,-1,1
1517188582699753,-2,0,-1,-1,0,1,-1,0
1517188582713759,-1,-4,-1,-1,-1,0,-2,-2
1517188582713759,-1,-3,-1,1,-2,0,-1,0
1517188582714762,0,-3,0,-3,-1,-1,-2,-1
1517188582714762,0,-1,1,0,-1,2,-1,-1
1517188582735789,-2,-1,-2,-1,2,-2,-1,0
1517188582735789,0,0,-2,-1,-3,-1,0,-1
1517188582736776,-2,-3,0,0,-1,-2,-1,0
1517188582736776,-2,-2,-2,-2,0,-2,0,-2
1517188582749786,0,-1,0,-2,-4,0,-3,-2
1517188582749786,-1,-1,-1,-1,1,0,-2,-2
1517188582757800,0,1,-2,1,0,-1,0,-2
1517188582757800,0,-2,-1,-3,0,-1,0,-1
1517188582773811,-1,-1,-1,2,-2,-1,-1,-1
1517188582773811,-2,-3,0,-2,-2,1,0,0
1517188582774802,-1,-2,0,2,-2,-1,0,-1
1517188582774802,1,-2,-2,-1,0,0,-1,-1
1517188582796817,-1,0,-1,-1,-1,2,0,-1
1517188582796817,-2,-1,0,-2,0,1,0,-1
1517188582797829,-2,0,-3,-2,1,-1,-1,-2
1517188582797829,-2,0,-1,-1,-2,0,-2,-2
1517188582809828,0,-1,-1,-1,0,-5,-1,-1
1517188582809828,0,-2,-1,0,-2,0,-2,-3
1517188582817843,0,-3,0,-1,0,0,-2,-1
1517188582817843,-1,-1,-1,0,-2,-1,1,0
1517188582833856,0,1,0,-1,2,0,0,1
1517188582833856,-2,-2,-4,-1,1,-3,-1,1
1517188582833856,0,-2,-1,-2,-1,-2,0,-2
1517188582833856,-1,-3,0,0,-1,-1,-1,2
1517188582855876,0,-3,-1,0,-3,0,0,0
1517188582855876,1,0,0,0,0,-1,0,-2
1517188582856862,-3,1,-1,-2,0,1,-1,-1
1517188582856862,-2,-1,-2,-1,-3,-2,0,-2
1517188582878878,-1,-1,-2,-1,0,1,-1,-1
1517188582878878,0,-2,-3,-1,0,-1,-1,-1
1517188582879878,-2,-3,0,-1,0,-3,0,-1
1517188582879878,-1,-1,-1,-1,0,-2,-2,-2
1517188582891891,0,-2,0,-3,-1,-1,-1,-1
1517188582891891,-1,-1,0,0,-1,-1,-2,-1
1517188582900906,-2,0,0,0,-2,-1,-2,-1
1517188582900906,0,-2,-1,-1,-2,-1,0,1
1517188582915902,-3,-4,-2,-2,1,0,-1,-1
1517188582915902,0,-1,-2,-1,1,-1,-2,-2
1517188582917905,-1,0,1,0,-3,0,-1,0
1517188582917905,0,0,1,0,-2,-1,-3,-1
1517188582938928,-3,-1,-3,-1,-1,1,-1,0
1517188582938928,0,-1,-1,-1,-2,0,0,-2
1517188582939930,0,1,-1,-1,-1,-2,-1,-3
1517188582939930,-1,1,-2,-2,0,-2,0,-2
1517188582951937,0,0,1,1,-2,0,-1,0
1517188582951937,-3,0,-2,-2,-2,-2,-1,-3
1517188582960935,-1,-3,-1,-1,-1,2,-2,-1
1517188582960935,-2,-3,0,-1,0,1,-2,-1
1517188582975946,-2,-1,-2,-3,-3,-3,0,0
1517188582975946,-1,-2,-2,-1,0,-1,0,1
1517188582977947,-1,-1,-2,-3,0,-1,-1,-1
1517188582977947,-2,-1,-1,-2,-1,-1,-1,0
1517188582998963,1,1,1,-1,0,-1,-2,-5
1517188582998963,1,-2,-2,-2,-3,0,0,-1
1517188582999963,0,0,-1,0,-2,-1,0,-1
1517188582999963,-1,-2,0,0,-1,-2,0,0
1517188583011971,0,2,-2,-3,0,-2,0,-2
1517188583011971,-2,-2,-1,2,-2,1,-2,1
1517188583020977,-1,-1,0,-1,1,0,-1,-2
1517188583020977,-1,0,-1,-1,-2,-1,0,-1
1517188583035992,0,-2,-2,0,-2,0,0,-2
1517188583035992,-1,1,-1,-2,-1,-3,-3,-1
1517188583037990,-1,-2,-1,-1,1,-1,-1,0
1517188583037990,0,-2,-1,0,1,-1,-1,1
1517188583059028,-1,-2,-1,-1,-1,-1,-1,1
1517188583059028,0,-2,-4,-1,-1,-3,-1,-1
1517188583060004,-1,-1,1,-3,0,-2,0,-1
1517188583060004,0,1,0,0,0,-2,0,-3
1517188583073013,-2,-2,-1,1,0,-3,-1,0
1517188583073013,-1,0,0,-1,-1,2,-1,0
1517188583080034,-1,0,-2,-1,-1,-1,-1,0
1517188583080034,0,0,-1,-2,-2,-1,-3,-1
1517188583096040,-1,-2,-2,-2,0,-3,-2,-2
1517188583096040,0,-1,0,0,-1,-2,-2,0
1517188583099043,-2,0,-1,0,1,-3,-1,0
1517188583099043,0,-1,-1,-2,-2,1,0,-3
1517188583119064,-2,-1,-2,-1,-2,-3,-1,0
1517188583119064,-2,-1,-3,-3,2,0,0,-2
1517188583120049,1,-2,-1,-2,-2,1,0,0
1517188583120049,0,0,-2,-1,-1,-1,1,1
1517188583133072,-1,0,-1,1,-2,-1,0,0
1517188583133072,-1,-1,-1,0,0,-2,0,-1
1517188583140076,-2,0,-1,0,-2,-1,-2,-2
1517188583140076,-3,-2,-1,-2,-1,-3,-3,-1
1517188583156088,-1,-2,-3,-1,-1,-1,-1,2
1517188583156088,-1,-3,-2,-2,-1,0,-2,-2
1517188583158085,-1,-2,-1,-2,0,1,-1,-1
1517188583158085,-1,-1,0,-2,-2,-1,-3,-2
1517188583179090,-3,-1,-1,-2,-1,0,-3,-1
1517188583179090,-1,-1,-2,-2,-1,-3,0,-1
1517188583180092,-1,-1,-1,-3,-1,-1,1,-1
1517188583180092,1,-3,0,0,0,1,-2,-1
1517188583193114,0,-2,-1,0,-1,-2,0,0
1517188583193114,-1,-2,-1,-1,-4,-2,-2,-2
1517188583200106,0,1,-1,0,-2,-2,1,-2
1517188583200106,-2,-1,-2,0,-2,-1,-1,-1
1517188583216115,-1,-1,-2,-1,1,-1,-2,-1
1517188583216115,0,-3,0,0,0,-1,-1,0
1517188583218150,-2,-1,-2,2,-1,-1,-1,-1
1517188583218150,-1,1,-1,-1,-3,0,-1,-2
1517188583238146,1,-2,-3,-3,-1,0,-2,-3
1517188583238146,0,1,-3,-1,-2,-2,-1,0
1517188583240134,-1,0,-2,0,-1,-1,-1,1
1517188583240134,-1,-3,0,-1,1,-1,1,0
1517188583253156,0,-2,-1,0,-3,-3,0,-2
1517188583253156,0,0,0,0,-2,-2,-1,-2
1517188583260146,1,-1,0,-2,0,0,-3,-2
1517188583260146,-1,-1,0,-2,-1,0,-2,-1
1517188583276182,-1,-1,-1,-2,-1,1,-2,-2
1517188583276182,-3,-1,1,1,-1,0,0,0
1517188583278163,0,0,0,0,-2,-1,1,0
1517188583278163,0,0,-1,0,0,0,-1,-2
1517188583298197,0,-1,0,0,0,-1,-1,0
1517188583298197,1,-1,-3,0,-1,0,-1,1
1517188583300180,-1,-1,-1,-2,-2,-2,-2,-2
1517188583300180,2,-1,-2,-2,-1,0,0,-1
1517188583313208,-4,2,-2,-1,1,0,0,-1
1517188583313208,0,-2,-1,-3,0,0,-2,-1
1517188583320214,0,-3,0,-2,-2,0,-1,-1
1517188583320214,-2,2,0,-1,-1,-3,0,-2
1517188583336199,-1,0,-1,-1,-2,-1,1,-2
1517188583336199,-5,-4,-2,-2,-1,0,-1,7
1517188583337211,0,-4,-1,-1,0,1,-1,-4
1517188583337211,3,2,-1,-1,0,-1,0,1
1517188583358254,1,-3,-1,0,-2,-3,-3,-2
1517188583358254,3,0,0,-2,0,0,0,0
1517188583360218,2,-4,-2,-1,-4,-1,-4,-2
1517188583360218,-11,-2,-3,0,-1,-3,-1,1
1517188583372239,-3,-1,-2,-1,0,0,1,0
1517188583372239,-2,-1,-1,-1,1,-1,0,-3
1517188583381231,2,0,-1,-3,0,0,1,1
1517188583381231,3,-3,0,-1,-4,0,1,-2
1517188583396243,2,3,-5,-3,-1,1,-2,-1
1517188583396243,-6,-2,5,1,-2,-1,-2,-4
1517188583398245,0,1,8,4,1,-1,-1,1
1517188583398245,2,0,-3,1,0,-1,-2,0
1517188583418272,-2,1,-5,-12,-4,-2,-1,-2
1517188583418272,1,-7,-7,-1,-2,0,0,-2
1517188583424322,-3,-2,-3,-2,-1,-3,2,0
1517188583424322,-1,-5,3,3,0,-2,-3,-4
1517188583432328,2,-2,1,2,-2,0,-1,0
1517188583432328,-1,3,-3,-4,-1,-1,-1,-2
1517188583441344,-3,-1,0,0,-1,-1,1,0
1517188583441344,2,-1,-2,-2,1,1,0,0
1517188583456359,-6,-2,0,-1,2,-1,-1,0
1517188583456359,-1,1,1,-2,-3,0,-1,-1
1517188583457360,-1,-1,-2,0,-1,-1,-1,-3
1517188583457360,-3,-3,-3,-1,-2,-1,-2,0
1517188583478361,-1,-11,-1,0,0,-3,-2,-3
1517188583478361,-1,2,2,3,0,0,2,1
1517188583480378,-2,1,-5,-3,-1,-1,-1,-2
1517188583480378,-5,-5,-4,-3,-3,-4,-3,-4
1517188583492385,-1,-2,1,4,-1,0,0,5
1517188583492385,0,0,-2,4,-2,-2,-2,-4
1517188583501389,-2,-4,-6,-16,-2,-1,-1,0
1517188583501389,-2,2,1,-1,-2,1,-1,-2
1517188583516402,3,2,0,0,-4,-4,-2,-2
1517188583516402,-5,1,-1,0,0,-2,0,0
1517188583517388,-1,-5,2,3,-2,-1,-3,-1
1517188583517388,0,1,-4,-3,-2,-1,-1,0
1517188583538405,0,0,1,1,0,1,0,-2
1517188583538405,-3,-4,9,4,1,0,-2,0
1517188583540419,1,1,-4,7,-2,0,-2,-3
1517188583540419,3,0,-3,-17,-2,-2,-1,-1
1517188583552427,0,3,-3,1,-1,-2,0,-1
1517188583552427,1,-3,-6,-5,-4,-1,-1,0
1517188583561431,-6,-6,2,3,0,1,0,1
1517188583561431,-2,1,3,4,-1,1,-1,-1
1517188583576445,-1,3,2,-3,-3,-1,-2,-4
1517188583576445,6,4,-1,-3,0,-2,1,2
1517188583577431,-3,1,0,0,-1,-1,0,3
1517188583577431,-13,-7,0,1,0,0,-1,-5
1517188583598459,-9,-2,-4,-4,0,-2,-2,-5
1517188583598459,1,2,0,2,-3,-2,-2,-1
1517188583600457,7,2,2,3,-1,-1,-2,-3
1517188583600457,0,-1,-2,-11,-1,-2,1,4
1517188583612455,-7,-5,-2,1,-3,-1,-2,-1
1517188583612455,-5,2,2,-2,-3,-1,-3,-4
1517188583621461,-5,2,2,-1,-1,2,-1,-1
1517188583621461,-5,-6,-7,3,0,-1,-2,-1
1517188583636471,5,-4,4,5,-2,-2,-4,-3
1517188583636471,4,-3,-12,-12,-2,-2,0,2
1517188583637472,-1,4,-3,-9,-3,-2,1,-2
1517188583637472,3,1,-7,3,1,-1,-2,-1
1517188583666510,5,1,2,7,-1,-1,0,3
1517188583666510,1,1,-4,-12,-2,-1,-1,-1
1517188583667494,-5,-6,-4,1,-2,-2,1,-2
1517188583667494,6,6,5,4,-2,0,-1,-1
1517188583672507,1,-2,-7,-2,1,0,3,2
1517188583672507,-2,-6,9,6,1,0,-1,-3
1517188583681514,1,-7,-5,-5,-2,-2,-4,0
1517188583681514,-1,4,4,1,-1,-1,2,0
1517188583696515,-2,-6,-2,-1,-2,-2,-2,-1
1517188583696515,4,21,6,0,0,-1,-1,-4
1517188583697516,7,10,1,-3,3,1,2,4
1517188583697516,-3,-14,1,3,0,-1,0,1
1517188583718555,-13,-5,-7,-7,0,0,0,1
1517188583718555,-3,-16,-3,0,-2,0,-1,-3
1517188583720556,-3,-1,2,4,0,0,-4,-3
1517188583720556,4,5,2,3,-1,2,0,0
1517188583741562,-2,5,-1,-10,-1,1,0,-3
1517188583741562,2,-5,2,-10,0,1,2,3
1517188583742547,0,-7,-7,12,0,-2,-3,-4
1517188583742547,-1,5,1,-19,-3,-3,-3,-2
1517188583756572,0,0,4,-6,-2,-3,-2,-1
1517188583756572,3,1,-11,8,2,-1,-1,1
1517188583757573,4,-6,2,3,-4,-1,0,-4
1517188583757573,1,16,7,1,0,-1,-1,-2
1517188583778583,7,-2,16,7,-2,-1,-2,4
1517188583778583,0,-5,-30,-6,-2,0,0,3
1517188583780584,-7,-7,-4,-17,-1,-4,-3,-4
1517188583780584,10,2,-7,3,-3,-1,-1,-3
1517188583792614,1,5,1,7,-2,-2,-1,-2
1517188583792614,-5,-2,6,-2,0,-2,-1,1
1517188583801599,4,-6,-2,5,-2,-1,-1,1
1517188583801599,-10,-5,-1,-6,-1,-1,-1,-2
1517188583816613,4,0,-7,-3,3,-1,0,4
1517188583816613,-8,-1,5,10,1,0,-1,0
1517188583817607,-7,-5,-3,-4,-4,-2,-3,-4
1517188583817607,1,3,4,3,1,0,-1,-5
1517188583838645,13,10,-4,1,-2,0,2,6
1517188583838645,-13,-25,-6,-3,-2,-1,-4,-5
1517188583840617,4,15,6,-1,-2,2,0,-1
1517188583840617,-5,-17,-2,11,-3,-2,-2,2
1517188583860634,-1,13,-13,-20,0,0,0,-2
1517188583860634,17,8,17,0,-2,0,-1,1
1517188583862632,-12,-1,-3,-6,-2,0,-1,-1
1517188583862632,17,3,-6,6,0,0,1,3
1517188583875641,-23,4,1,4,-1,-1,-1,-2
1517188583875641,10,1,-4,0,-4,-3,-5,-16
1517188583877643,-4,1,2,-7,-3,-1,-1,2
1517188583877643,-9,-7,2,-11,-1,-2,-1,-1
1517188583898666,-16,-3,1,4,0,-1,0,-7
1517188583898666,-13,-18,-1,-2,-2,-1,1,3
1517188583900658,19,5,0,11,0,-1,0,1
1517188583900658,-7,-6,-4,-9,-4,-2,-2,-3
1517188583921689,2,-10,4,2,-2,-1,-1,-1
1517188583921689,-22,15,-10,-9,-2,1,-2,-1
1517188583922674,-7,-2,-2,-10,-1,-1,-1,3
1517188583922674,-12,-27,-11,-9,-2,-1,-1,1
1517188583935697,-12,-10,-1,7,3,-2,-3,-8
1517188583935697,14,-8,12,8,-3,-3,1,12
1517188583937685,15,11,-20,-3,0,-1,-3,-17
1517188583937685,12,7,11,0,1,-1,0,8
1517188583958713,7,-2,0,0,-1,-2,-4,-8
1517188583958713,9,-1,-11,1,0,2,2,7
1517188583959700,-8,17,14,3,-1,0,-3,-4
1517188583959700,-2,-20,-12,2,-1,-3,3,2
1517188583980735,2,20,3,0,4,2,2,6
1517188583980735,-13,-22,12,2,-3,-1,-4,-9
1517188583982717,-26,14,7,-1,2,3,4,1
1517188583982717,33,27,-9,4,-3,-1,2,14
1517188583995746,-5,-10,2,-2,0,5,3,0
1517188583995746,0,20,-11,-8,1,-2,-4,-16
1517188584001732,9,-4,8,0,0,2,5,17
1517188584001732,-50,5,-2,6,-2,1,-3,-15
1517188584018763,-28,-5,-4,-4,-1,-1,3,13
1517188584018763,27,-8,-6,-11,-2,-4,-5,-15
1517188584019743,-8,-14,-1,8,1,2,6,7
1517188584019743,38,8,7,-1,-1,-2,1,13
1517188584040772,-11,7,17,17,0,-2,-2,-8
1517188584040772,-19,8,-9,-14,0,3,2,2
1517188584042759,22,-3,-8,-5,-3,-2,-5,0
1517188584042759,-21,-7,0,-1,-1,-3,1,12
1517188584055768,10,-8,-8,-12,-6,-3,-8,5
1517188584055768,-13,17,17,29,-1,-5,2,-11
1517188584061772,20,-33,-6,-14,1,-2,-2,20
1517188584061772,-30,1,8,8,-3,-2,-8,-41
1517188584078784,11,-2,-10,-11,-4,-3,-3,6
1517188584078784,5,0,5,-4,-4,-3,3,12
1517188584079785,-33,-9,-10,6,1,-1,1,-14
1517188584079785,18,5,0,8,3,-1,-12,11
1517188584100810,4,-20,-6,-15,-5,-8,1,-17
1517188584100810,-21,-4,-5,-4,-2,-1,-7,-4
1517188584102801,-1,7,8,7,2,3,13,36
1517188584102801,26,-5,5,-7,0,-1,4,42
1517188584115810,-4,-17,-14,7,-4,-2,-15,-77
1517188584115810,-1,6,-4,-6,-3,-2,-10,-17
1517188584121826,5,-23,2,-1,-4,-4,-3,0
1517188584121826,-4,13,-2,-1,-2,2,7,61
1517188584138829,-9,-5,2,-1,1,2,1,7
1517188584138829,2,-13,-1,11,-2,0,8,22
1517188584139828,5,9,-4,-22,1,-1,-15,-8
1517188584139828,2,6,4,3,-1,-1,6,-16
1517188584160842,17,-19,-8,-4,-4,-2,-3,21
1517188584160842,-10,23,-3,-1,0,1,0,-17
1517188584162853,5,18,0,10,0,-2,-2,8
1517188584162853,-1,-7,0,-7,-4,-1,-2,-17
1517188584175853,7,6,2,-3,2,-2,-3,-1
1517188584175853,0,-5,12,1,0,1,2,38
1517188584183859,-1,6,0,-2,-5,-4,-8,-21
1517188584183859,-3,-13,-18,-7,1,2,0,-9
1517188584198869,15,-3,14,6,2,2,4,-12
1517188584198869,-9,-24,-19,-2,-1,-1,3,11
1517188584199869,37,29,18,8,-1,2,-3,0
1517188584199869,-19,2,-13,-15,-2,-3,-6,-94
1517188584228890,11,16,12,8,0,1,9,35
1517188584228890,2,-32,-13,-27,-5,-3,-8,-1
1517188584229891,-24,-14,8,7,2,-1,9,26
1517188584229891,4,5,-11,4,-1,0,-3,-29
1517188584234894,12,18,-9,-1,0,-2,6,32
1517188584234894,0,4,8,6,3,-1,1,0
1517188584241902,-10,20,-11,-4,-2,0,-3,-25
1517188584241902,11,-25,8,4,-1,0,-3,52
1517188584258933,-29,15,-5,-3,0,1,2,-75
1517188584258933,24,-2,7,2,-1,0,13,29
1517188584259912,-12,-14,-2,-3,-2,-3,-10,12
1517188584259912,12,30,11,7,3,-1,2,-29
1517188584280932,-40,-14,-6,-3,-1,0,-8,0
1517188584280932,31,-31,-10,-7,-5,-3,8,15
1517188584282956,-11,7,-6,-2,-3,-2,-5,-6
1517188584282956,-14,8,11,-3,-1,-2,7,16
1517188584294955,-18,-58,-18,0,0,2,-8,-11
1517188584294955,4,37,7,11,2,2,-10,-46
1517188584303946,-2,-25,-10,-23,-7,-2,8,-4
1517188584303946,-4,7,-24,-7,-4,-2,-5,-8
1517188584318954,21,-10,-9,-4,0,-3,7,47
1517188584318954,-41,24,7,3,1,-2,-8,-68
1517188584319957,48,12,-12,9,0,3,-8,-27
1517188584319957,-31,-35,22,-3,-3,-6,-4,2
1517188584340972,18,16,-11,0,-2,-1,5,30
1517188584340972,-6,19,0,2,0,-1,-8,16
1517188584342971,-16,4,8,1,-1,-4,2,-30
1517188584342971,0,-9,4,3,2,1,-6,-19
1517188584355020,26,15,0,6,3,0,-2,14
1517188584355020,-13,-9,10,7,2,0,3,34
1517188584363996,8,2,7,-14,-2,-2,-1,6
1517188584363996,-25,-3,12,-9,-3,-5,3,22
1517188584378008,6,5,-19,-5,-4,-8,5,21
1517188584378008,-33,-13,-11,-8,-1,3,-9,-19
1517188584379997,-9,-35,12,3,-1,-3,-4,-17
1517188584379997,7,-6,-32,0,1,2,7,5
1517188584401023,3,27,21,5,-2,-2,-6,-19
1517188584401023,21,5,23,1,0,2,8,49
1517188584403017,-14,5,-50,-7,-5,-3,-5,-29
1517188584403017,-30,-5,21,11,0,-3,-6,2
1517188584415032,1,6,-19,-26,-5,0,-8,1
1517188584415032,16,-8,53,18,4,0,8,-6
1517188584424039,-29,10,-15,-7,-4,-4,-13,11
1517188584424039,64,-79,-19,18,5,5,11,-33
1517188584438052,11,20,12,-17,-2,-4,-2,17
1517188584438052,4,44,10,1,0,0,-3,-29
1517188584440039,1,-3,-10,0,3,4,14,13
1517188584440039,-3,4,13,-2,-5,-4,-5,34
1517188584461054,18,-16,-7,-1,0,-1,-1,-20
1517188584461054,-20,-21,-5,14,-2,-2,5,14
1517188584463057,-1,37,5,9,5,4,4,16
1517188584463057,-8,-33,-9,4,-4,-4,-8,11
1517188584475104,-31,6,22,4,6,10,16,36
1517188584475104,10,2,-54,-31,-5,-1,-10,-79
1517188584484072,24,18,-27,-10,-6,-4,3,14
1517188584484072,-27,-12,10,2,1,-1,-5,0
1517188584498092,-51,-23,-8,9,-12,-11,-22,-92
1517188584498092,12,-6,47,7,4,-1,-1,29
1517188584500082,-6,10,-17,-17,-7,-5,-1,-15
1517188584500082,42,36,11,10,0,1,3,17
1517188584521107,22,10,-17,5,1,0,-5,19
1517188584521107,15,-85,-50,-24,-8,-4,-6,6
1517188584523109,-6,73,68,18,8,2,0,-19
1517188584523109,-29,-59,-20,-10,-4,1,-1,17
1517188584535109,28,1,-27,0,-3,2,6,38
1517188584535109,-40,40,6,4,0,0,-8,7
1517188584544117,18,-44,19,-19,-6,-5,-7,9
1517188584544117,15,56,4,2,5,2,11,-16
1517188584558139,-28,4,22,16,0,2,8,18
1517188584558139,50,8,8,9,-3,-1,0,3
1517188584560126,-3,-9,5,10,2,0,0,18
1517188584560126,-25,17,-22,-25,-7,-4,-3,-5
1517188584581155,29,-21,32,4,3,-2,-6,-43
1517188584581155,-6,2,-56,-2,2,1,1,20
1517188584583161,-11,-39,42,6,-12,-4,-8,-4
1517188584583161,24,37,30,16,7,-1,-2,13
1517188584594160,-5,11,21,9,-3,-2,-6,-35
1517188584594160,5,-16,-5,1,-2,-5,3,30
1517188584604167,-23,-51,-60,-6,6,3,-1,-47
1517188584604167,-21,11,-16,-50,-6,-1,-11,-35
1517188584618180,-4,-4,21,38,2,1,0,14
1517188584618180,-21,46,55,9,-4,1,-4,-6
1517188584620167,11,-5,-12,1,-3,1,0,-21
1517188584620167,-12,-10,-20,-23,-5,-4,-12,5
1517188584641258,-13,-10,-1,-12,4,4,10,4
1517188584641258,23,1,-83,-11,-3,-1,5,20
1517188584642243,5,5,45,0,2,-1,-10,18
1517188584642243,-12,-30,-34,25,-1,-1,7,8
1517188584655252,37,-20,-37,-46,-8,-6,-17,-14
1517188584655252,-43,76,80,10,-5,-1,-5,-17
1517188584664268,-8,-86,-121,-4,-5,-1,-4,6
1517188584664268,21,29,60,1,-1,-3,-2,45
1517188584678273,-18,-20,41,-5,0,-2,-8,-45
1517188584678273,23,-28,-36,-6,2,2,6,-11
1517188584680278,-8,18,14,-1,1,-2,-2,1
1517188584680278,14,23,12,-1,-2,-2,-15,21
1517188584701290,-19,-12,-1,29,5,5,10,-52
1517188584701290,-18,-19,-68,-46,-7,-4,-11,-2
1517188584707309,-4,35,49,25,11,6,25,18
1517188584707309,32,-17,-59,3,-1,2,12,12
1517188584714314,-27,8,21,-15,-5,-7,-5,10
1517188584714314,35,35,50,3,1,-1,-4,0
1517188584723310,-6,-7,-10,-10,0,1,7,68
1517188584723310,-13,10,-23,19,3,-2,-15,-106
1517188584738323,23,-2,7,-23,-7,-6,5,48
1517188584738323,-55,-8,-36,2,-3,-1,4,-47
1517188584744316,10,-28,40,-8,-3,-3,-2,46
1517188584744316,-42,-22,-20,17,0,2,-11,-71
1517188584761350,26,24,19,18,-1,-6,7,113
1517188584761350,-25,-31,-20,-4,1,1,-3,-28
1517188584762330,11,32,17,1,-4,1,-2,-63
1517188584762330,8,18,33,-11,-1,-2,9,92
1517188584783358,0,6,-11,14,0,-6,-7,-7
1517188584783358,8,-49,-23,-45,-7,0,3,-5
1517188584785344,28,26,32,22,8,4,17,14
1517188584785344,32,47,49,-9,-6,-2,-14,13
1517188584798368,13,-36,-47,45,9,9,12,-51
1517188584798368,-23,21,36,-23,-1,4,3,-10
1517188584800369,-11,21,-42,-33,-14,-7,-22,-15
1517188584800369,-19,-68,-53,-20,-5,-1,3,-75
1517188584821370,21,24,11,6,5,3,3,30
1517188584821370,5,-15,-13,8,-1,-8,-3,59
1517188584822371,14,-18,-36,-4,-1,3,-2,-94
1517188584822371,-10,31,36,13,2,5,5,6
1517188584843386,17,49,-4,7,1,-2,-8,61
1517188584843386,-69,-58,15,6,-3,-2,-1,-33
1517188584845391,3,-24,-36,-16,-1,-2,-9,18
1517188584845391,28,29,57,18,2,-3,15,45
1517188584858418,-83,-73,-45,-28,-7,3,-12,-43
1517188584858418,25,12,15,9,1,-3,-2,-12
1517188584860398,-48,18,55,31,1,-4,-1,67
1517188584860398,-12,-42,-58,-5,0,10,12,-9
1517188584881434,33,56,20,11,11,8,8,59
1517188584881434,26,37,-11,-35,-16,-8,-4,-62
1517188584882416,-42,-50,-12,7,-1,-4,1,13
1517188584882416,18,37,39,20,5,4,12,68
1517188584903428,-16,18,-21,-53,-12,-1,4,-45
1517188584903428,44,20,-42,21,8,8,7,8
1517188584905428,18,37,27,-9,-7,-8,-9,-24
1517188584905428,-13,29,29,4,-1,-4,2,47
1517188584917452,-28,-93,20,34,-3,-7,-23,-70
1517188584917452,20,12,-20,-33,4,4,3,64
1517188584924445,-9,-28,-32,-10,-8,-4,-10,-6
1517188584924445,22,-3,-1,8,4,-4,6,-7
1517188584941464,4,79,84,18,4,5,10,10
1517188584941464,16,-66,-74,-28,-10,-3,-1,93
1517188584942454,-35,38,41,1,8,3,-15,-77
1517188584942454,9,-3,-8,7,0,1,-9,52
1517188584963470,-14,11,-15,-22,-12,-9,6,33
1517188584963470,-7,-13,47,42,3,-4,-18,11
1517188584965471,3,31,17,11,4,6,12,-17
1517188584965471,-5,-37,-19,-19,-1,-2,7,-20
1517188584977485,-6,44,11,-2,-1,-3,-8,-40
1517188584977485,22,-15,2,-3,-5,-5,-7,-5
1517188584984510,-17,29,8,10,1,-4,0,9
1517188584984510,-13,-39,1,0,-5,-4,-14,-89
1517188585000521,24,-12,-31,-36,-4,2,4,55
1517188585000521,-31,43,73,44,7,-1,-4,-94
1517188585002502,9,-50,-54,-19,-1,5,-1,12
1517188585002502,-19,-16,-22,-27,-10,-5,3,16
1517188585023538,-9,-11,-6,-2,5,5,10,6
1517188585023538,3,-34,16,5,-5,-2,-8,-25
1517188585025539,19,29,-2,28,6,2,18,37
1517188585025539,-38,31,25,-25,-9,-6,-47,-81
1517188585037547,17,-52,-36,-20,-9,-6,1,12
1517188585037547,-19,25,-3,24,7,0,15,40
1517188585044529,3,-20,22,-8,-8,-6,0,-17
1517188585044529,24,10,-8,-15,-2,1,10,34
1517188585061539,3,-5,-2,1,-2,0,-4,-44
1517188585061539,-24,14,3,3,0,-3,-5,-66
1517188585062542,40,13,25,7,1,0,3,36
1517188585062542,11,-19,0,-21,-4,1,8,5
1517188585083566,-34,7,-30,-7,-4,-3,-12,22
1517188585083566,25,-10,22,16,7,9,15,12
1517188585085557,-41,-28,-12,-24,-6,-1,-4,-84
1517188585085557,-3,17,-50,-2,1,-3,7,26
1517188585097565,27,45,41,13,3,1,19,74
1517188585097565,-9,-18,-41,-15,-6,-1,-5,-8
1517188585104569,20,5,-16,6,2,0,3,62
1517188585104569,-28,-4,20,-12,-6,-1,0,-29
1517188585121593,-9,-42,-2,-4,1,-2,-5,-43
1517188585121593,40,11,-6,6,-2,-2,-9,34
1517188585122584,9,-8,43,4,0,-4,-5,35
1517188585122584,-7,14,-69,-10,2,-1,7,-16
1517188585150628,17,-8,15,7,5,3,-1,19
1517188585150628,-11,15,21,-9,-4,-1,-11,2
1517188585152605,-5,-14,-7,13,4,-2,-4,-8
1517188585152605,9,-12,18,10,3,-1,1,60
1517188585157634,-26,-32,-27,-2,-9,-6,-5,-36
1517188585157634,6,19,9,35,12,6,10,17
1517188585164637,-3,-3,-3,-52,-17,1,-2,11
1517188585164637,-5,0,1,-17,-2,-6,5,6
1517188585180648,21,25,5,-1,0,1,-3,-1
1517188585180648,-14,-45,-51,-6,-8,-8,-2,32
1517188585182632,29,3,-20,22,1,0,-10,-39
1517188585182632,16,14,19,-1,-1,-1,4,21
1517188585204640,26,44,-4,-1,5,2,2,-28
1517188585204640,-4,-54,3,-7,-2,0,-3,6
1517188585205641,3,25,-21,7,-1,-2,11,55
1517188585205641,-2,20,-20,12,0,2,-2,-14
1517188585217664,9,-50,-11,-18,-4,-2,-2,5
1517188585217664,18,54,7,1,5,1,4,67
1517188585224667,14,-25,2,2,-1,-2,6,22
1517188585224667,-16,-53,-13,-5,-6,-3,-6,-52
1517188585240675,-25,3,-55,-11,-4,-2,-7,-23
1517188585240675,-12,3,28,4,1,1,4,8
1517188585242667,3,-25,2,-3,-1,-2,-10,-36
1517188585242667,-4,28,-14,30,9,5,-2,8
1517188585263682,-8,-42,2,-26,-6,1,7,17
1517188585263682,26,16,-2,-37,-4,-6,-9,-28
1517188585264682,-45,33,9,12,2,4,7,16
1517188585264682,11,-49,29,25,1,-3,-6,3
1517188585277695,-11,40,-29,2,-5,-9,-6,47
1517188585277695,-12,-5,6,4,0,1,-2,-53
1517188585285700,28,-6,14,-1,2,2,10,36
1517188585285700,-13,19,3,2,1,0,-3,28
1517188585300708,-4,39,33,9,0,-7,-5,3
1517188585300708,6,-5,17,4,3,5,2,-38
1517188585302709,2,-20,-3,2,-2,-2,-3,-24
1517188585302709,8,-5,1,-8,-7,-4,-8,17
1517188585323737,0,-6,14,-9,0,3,2,2
1517188585323737,-29,-7,-18,0,-5,-5,0,17
1517188585324725,10,11,21,8,2,0,-5,-2
1517188585324725,-1,3,-6,-7,0,-1,0,-43
1517188585336743,-15,-35,17,3,-4,0,-7,-5
1517188585336743,12,55,12,4,4,1,5,19
1517188585345739,-25,-10,11,-8,-4,-1,-2,-18
1517188585345739,9,18,-9,19,6,1,5,-5
1517188585360755,-11,-39,-27,-15,-2,0,-4,1
1517188585360755,6,-5,39,12,3,0,-5,-27
1517188585366756,-3,35,-31,0,-3,-4,5,40
1517188585366756,17,12,27,-6,1,0,2,26
1517188585383770,-13,-7,-31,6,-3,-6,-6,-40
1517188585383770,11,-1,51,7,-7,-4,-1,19
1517188585384780,-7,2,-33,-23,0,-4,-6,6
1517188585384780,-7,-21,1,-6,-5,-3,-9,-18
1517188585397780,17,8,7,17,5,4,0,-15
1517188585397780,7,7,-2,-7,-6,-4,6,28
1517188585405802,-17,31,-1,6,-3,-1,-12,-30
1517188585405802,-11,-15,-1,-3,-7,-4,-2,-5
1517188585420816,-3,6,26,-19,-2,-3,1,-6
1517188585420816,2,18,-7,-1,-2,-3,-10,-17
1517188585422800,-1,-4,-4,-4,1,0,5,1
1517188585422800,3,20,-4,14,-2,-1,-2,-27
1517188585443812,0,-47,-35,3,-5,-3,-2,37
1517188585443812,-31,-3,25,-2,1,4,3,-75
1517188585444813,20,5,1,-13,-3,1,7,23
1517188585444813,9,-18,26,-39,-7,-2,-1,22
1517188585456818,-29,-20,-12,1,-5,-5,-4,-23
1517188585456818,14,9,-16,16,3,4,-10,8
1517188585465824,-25,-55,3,3,-4,-4,-4,-5
1517188585465824,-8,20,10,9,4,0,-9,-36
1517188585480836,45,16,9,-2,-2,0,-5,5
1517188585480836,17,0,-25,-3,-2,-1,12,54
1517188585482837,-20,10,-3,-8,-2,-2,-6,-43
1517188585482837,18,0,-10,11,4,-1,-2,39
1517188585503865,-14,34,42,12,7,4,5,-19
1517188585503865,-7,-36,-41,-19,-6,-2,-2,13
1517188585504852,21,-6,-46,6,0,-3,-8,5
1517188585504852,4,32,-4,0,-1,-1,5,18
1517188585516927,-10,6,-2,-17,-7,-6,-8,-47
1517188585516927,-3,-8,-5,1,1,2,3,-8
1517188585525924,-2,-6,15,0,-1,1,-4,-8
1517188585525924,-8,18,-4,15,2,-1,1,-9
1517188585540948,6,18,-14,-1,-3,2,6,59
1517188585540948,-6,-42,31,3,0,-3,-5,-78
1517188585542949,-20,-9,-42,-11,-4,-4,-2,3
1517188585542949,0,9,-5,12,6,4,9,-8
1517188585562949,1,-39,6,-5,0,4,-7,17
1517188585562949,-4,12,-17,-20,-3,-4,1,22
1517188585564951,-10,-12,35,18,6,3,4,17
1517188585564951,-30,-29,-46,-6,-2,0,14,6
1517188585576959,27,21,-4,-8,1,0,12,14
1517188585576959,-2,-15,-2,5,-2,-1,0,22
1517188585585967,-11,-28,8,-16,-3,-3,-1,-14
1517188585585967,24,-10,18,0,-3,0,6,31
1517188585600990,-38,5,20,7,1,-3,-12,-111
1517188585600990,-13,-25,-13,2,1,1,-6,18
1517188585602991,38,36,22,9,3,0,4,43
1517188585602991,-11,-24,10,-7,-2,-2,-3,-16
1517188585623002,17,5,-21,1,1,-1,-2,24
1517188585623002,10,17,24,-1,-1,-2,-5,12
1517188585624993,-15,12,-30,0,-2,1,3,-22
1517188585624993,-4,-22,0,-4,-4,-4,-11,-3
1517188585637004,3,3,3,4,-1,-2,4,10
1517188585637004,-22,-5,-15,0,0,0,-2,11
1517188585646009,2,21,5,2,-5,-5,-3,-33
1517188585646009,-11,2,-15,-23,-6,-5,-16,-84
1517188585661057,-3,-1,7,10,1,3,5,22
1517188585661057,-2,39,5,-13,-6,-6,-6,-8
1517188585663030,21,-14,-9,4,-1,4,14,84
1517188585663030,-21,-18,-21,9,3,-4,-7,6
1517188585683044,8,17,0,-10,-1,2,-1,3
1517188585683044,-6,-22,-52,7,-2,-4,-1,-24
1517188585685036,-10,0,22,9,11,5,4,24
1517188585685036,14,-4,-3,-25,-9,-3,-6,-10
1517188585706060,-9,17,22,35,11,4,6,10
1517188585706060,0,-2,-14,-1,-3,1,0,-7
1517188585707052,16,12,-7,-23,-7,-4,1,-21
1517188585707052,-21,-46,-19,-5,2,2,0,22
1517188585721085,-3,18,-9,10,2,-3,2,-2
1517188585721085,-21,-51,-4,-1,-7,-4,-5,20
1517188585722083,8,31,37,9,6,0,2,-72
1517188585722083,6,4,-7,-2,-2,-1,2,0
1517188585743135,20,4,12,-2,3,0,0,51
1517188585743135,0,29,10,-5,2,4,8,24
1517188585745080,-32,-7,-30,-3,-3,-1,-7,-27
1517188585745080,8,-1,36,10,-1,-2,-3,3
1517188585766093,-2,21,22,9,1,-4,-7,-9
1517188585766093,15,-33,-21,-18,-2,2,-3,3
1517188585767122,-10,-12,2,8,-3,-4,-6,-4
1517188585767122,-37,36,42,6,0,2,6,27
1517188585781103,4,-58,-36,-15,-8,-3,-14,-26
1517188585781103,7,17,24,1,2,0,7,-17
1517188585782104,-6,-9,2,11,1,1,-2,47
1517188585782104,25,-17,-1,-1,1,-1,2,-2
1517188585803119,-5,-7,-29,4,-2,-2,-8,-15
1517188585803119,8,-11,6,-5,0,2,5,27
1517188585805120,0,-14,9,-4,-3,-3,-5,-25
1517188585805120,4,-18,7,-5,-2,-3,-3,-16
1517188585826156,-5,21,-1,-9,-5,-2,6,-34
1517188585826156,4,20,-17,-4,0,-1,-1,26
1517188585827136,17,12,31,-5,-2,-1,-7,15
1517188585827136,1,-12,-9,2,-4,-4,1,14
1517188585840145,-24,13,-14,-13,4,-1,3,-4
1517188585840145,-21,-8,19,22,-2,-4,-8,-23
1517188585847151,1,16,-1,-26,-4,-5,4,15
1517188585847151,-2,-18,0,13,2,2,-9,-70
1517188585863161,4,2,-6,-5,-6,2,4,9
1517188585863161,-2,-12,-8,1,-6,-5,-3,-35
1517188585865165,16,34,9,6,-1,1,-2,-8
1517188585865165,-33,-28,-41,-19,-6,-2,-1,5
1517188585886191,-10,-40,-22,3,-1,-2,-4,12
1517188585886191,17,-2,13,-9,-1,-2,1,-4
1517188585887180,-5,-8,9,6,-2,0,1,4
1517188585887180,31,12,-11,11,1,1,2,7
1517188585900198,-34,-7,-11,-2,-1,3,6,73
1517188585900198,-17,-4,-3,-4,1,1,-16,-46
1517188585907215,3,-42,-5,0,-1,-3,-11,5
1517188585907215,-12,38,-1,-2,-1,-4,-5,-28
1517188585923246,-1,-11,17,-2,0,1,-3,-21
1517188585923246,8,31,11,-5,1,2,5,22
1517188585925206,13,-22,-29,-20,-4,0,0,12
1517188585925206,-9,21,14,10,4,3,5,3
1517188585946220,21,-4,22,9,0,1,-3,-29
1517188585946220,-18,-37,-6,2,-3,-4,-2,0
1517188585947231,4,-12,-2,-2,-2,-1,-1,19
1517188585947231,-2,-2,-9,-2,0,0,9,35
1517188585960240,26,18,4,-3,2,0,3,-23
1517188585960240,-19,33,47,10,1,0,4,22
1517188585967236,-18,-24,3,-1,2,2,1,-1
1517188585967236,8,6,-4,-4,-2,-4,2,24
1517188585983321,11,7,-9,1,-3,-6,-2,-2
1517188585983321,-15,39,1,2,2,3,9,40
1517188585985319,-20,-31,-7,-37,-13,-5,4,-27
1517188585985319,6,10,33,8,2,1,0,20
1517188586006333,-4,36,-14,-4,-4,-5,-9,-48
1517188586006333,6,-22,-11,3,-1,1,-12,-5
1517188586007310,-8,-29,-62,16,1,3,-5,-19
1517188586007310,16,31,5,-15,-3,-4,-7,22
1517188586020348,-6,3,11,3,3,4,7,7
1517188586020348,20,-17,9,12,-1,-1,1,-3
1517188586027385,-10,48,6,5,3,-3,-9,1
1517188586027385,-7,19,3,-1,-1,2,-4,-51
1517188586043424,1,-71,-32,-3,-5,-2,-9,-8
1517188586043424,8,5,3,-6,-5,-4,-2,-7
1517188586045400,5,-14,13,2,5,3,8,11
1517188586045400,-6,29,-8,-2,-3,-2,-1,16
1517188586066437,1,-21,15,4,1,-2,13,119
1517188586066437,-9,-2,-23,-12,-4,-3,-9,-46
1517188586067412,3,6,-1,2,-1,0,-5,7
1517188586067412,8,-19,12,4,1,-2,2,-3
1517188586080446,-2,33,22,-1,-2,1,3,25
1517188586080446,-8,-23,-63,-26,-9,-3,-4,-45
1517188586087451,18,24,6,27,0,-6,-9,-7
1517188586087451,0,-48,-10,-21,-3,-1,-2,-5
1517188586103437,8,67,0,-18,2,0,-4,-30
1517188586103437,-4,-68,-11,2,-3,-2,-1,2
1517188586105438,-11,-24,-12,1,0,-2,-6,-44
1517188586105438,-17,-36,0,4,-2,-1,-6,9
1517188586126492,1,22,-10,7,1,-5,-7,-27
1517188586126492,0,22,9,3,1,2,-1,40
1517188586127459,-7,-46,-10,-12,-7,-2,12,28
1517188586127459,27,16,28,6,1,2,4,71
1517188586140479,-16,-1,2,-3,-3,-3,-15,-62
1517188586140479,-10,-5,16,0,2,1,3,16
1517188586147467,17,32,38,10,1,-2,-3,10
1517188586147467,-4,11,-19,-2,-2,-2,-4,0
1517188586163478,-2,-47,-15,-18,-8,-5,-13,-4
1517188586163478,-15,6,14,20,6,0,0,-17
1517188586165482,0,4,-13,3,-2,-3,-14,-23
1517188586165482,10,8,43,-9,2,1,-3,-46
1517188586186495,5,8,-21,11,0,-4,5,18
1517188586186495,0,21,-5,-15,-3,1,-2,-33
1517188586187496,-10,-55,-4,-6,0,-1,-3,31
1517188586187496,-31,12,-7,-3,-6,-5,-2,40
1517188586199520,-6,-15,18,9,4,4,1,-22
1517188586199520,25,38,9,0,-1,-4,-3,23
1517188586208511,-25,-1,-20,-5,-6,-5,-6,-16
1517188586208511,2,-24,-25,17,2,-1,4,-33
1517188586223532,20,8,16,-19,-1,0,7,31
1517188586223532,-38,3,-9,-2,-2,-3,-9,7
1517188586225538,5,41,20,10,3,1,-7,-66
1517188586225538,1,-17,-29,0,-5,-3,-7,-14
1517188586245540,-20,-13,3,-8,-4,-2,-2,14
1517188586245540,23,20,-7,4,3,3,5,-6
1517188586253551,1,-21,-11,-14,-4,-4,14,63
1517188586253551,-17,16,7,18,7,2,-6,-67
1517188586259557,-14,-26,-7,-11,-6,-2,-6,-4
1517188586259557,14,17,14,-7,-1,-1,10,34
1517188586268553,12,10,23,11,6,6,1,-30
1517188586268553,-14,-24,-17,0,-2,-2,-15,-23
1517188586283574,10,12,9,-6,-5,0,4,15
1517188586283574,-21,-20,-7,7,0,-1,-2,-29
1517188586284575,-5,3,19,3,-1,-2,-5,11
1517188586284575,18,4,-47,-12,-4,-1,5,26
1517188586305590,4,14,9,5,-1,0,-5,-32
1517188586305590,3,-3,-6,-10,-3,-5,-11,51
1517188586307581,-6,4,1,-3,0,2,3,-35
1517188586307581,23,7,4,6,5,3,3,28
1517188586319599,-10,-1,-18,-6,-4,-3,-1,-1
1517188586319599,27,11,11,11,3,3,1,15
1517188586328597,-5,-8,-17,-4,-3,-2,7,17
1517188586328597,3,-9,-30,-17,-5,0,2,6
1517188586343606,-4,-5,2,4,4,-1,3,2
1517188586343606,-4,-11,6,3,-1,2,3,9
1517188586344610,5,17,-1,0,0,-2,-1,-51
1517188586344610,-27,4,-2,6,3,0,0,-5
1517188586365621,12,10,21,-3,-1,0,-1,7
1517188586365621,2,-45,-11,-6,-5,-4,3,4
1517188586367624,4,17,3,5,1,0,-8,10
1517188586367624,-1,42,52,0,-1,-1,5,18
1517188586379645,2,-84,-28,-10,-1,0,1,11
1517188586379645,-7,24,-3,3,-1,-3,1,-44
1517188586388638,6,-32,-9,4,0,0,-1,28
1517188586388638,-2,17,7,-12,-5,-5,-1,-4
1517188586403678,10,25,24,8,-2,-3,-15,-12
1517188586403678,6,-6,-9,16,7,3,7,8
1517188586404677,-19,-37,-33,-30,-9,-4,4,4
1517188586404677,-6,-7,-9,-5,-3,0,-2,-20
1517188586425766,-12,7,1,11,2,-2,0,-6
1517188586425766,14,2,-10,-7,-3,-2,0,7
1517188586427721,5,44,38,17,2,0,1,49
1517188586427721,-6,-63,-22,-8,-2,-4,-5,11
1517188586439783,-2,9,-23,-12,-4,0,10,55
1517188586439783,-20,-9,2,4,2,2,5,-20
1517188586448731,18,35,31,-1,1,0,4,-6
1517188586448731,-13,5,-7,-5,-1,1,2,15
1517188586463764,5,21,6,9,0,0,-1,-42
1517188586463764,-18,-42,-10,-6,-2,-1,5,42
1517188586464756,-8,-10,-1,-6,-4,-1,0,-5
1517188586464756,4,-9,6,-2,-1,-3,-9,-19
1517188586485777,-6,0,12,24,6,3,2,-19
1517188586485777,9,37,3,-28,-5,-2,-5,-17
1517188586487768,-21,-35,-17,-2,-2,-2,-4,-3
1517188586487768,16,12,10,1,-3,-1,2,-5
1517188586499776,1,-12,-5,10,2,2,-1,9
1517188586499776,9,18,10,-4,0,1,-4,-5
1517188586508797,22,15,-14,-7,-4,-4,-4,6
1517188586508797,-18,-22,-26,-8,-3,-6,-6,-23
1517188586523799,-1,0,4,9,1,-1,-2,-5
1517188586523799,4,-27,-6,-1,-4,0,5,-2
1517188586524796,0,18,-1,1,2,2,0,5
1517188586524796,8,8,0,10,2,3,5,20
1517188586545800,-13,-9,-14,-11,-3,-2,3,53
1517188586545800,-5,-24,16,8,1,-4,-9,-22
1517188586547801,16,16,0,-1,0,1,3,28
1517188586547801,-3,-26,-25,-12,-7,-6,0,-5
1517188586559883,-1,10,-15,-9,0,2,0,19
1517188586559883,4,19,15,-1,-4,-3,-4,-4
1517188586568823,1,-28,3,-3,3,-1,4,1
1517188586568823,6,27,17,18,5,3,5,-5
1517188586583858,-5,9,9,-18,-7,-3,0,-13
1517188586583858,21,6,-5,7,1,0,2,8
1517188586584827,1,-2,9,10,0,-1,-8,-38
1517188586584827,-14,-10,-7,-21,-9,-5,-11,-4
1517188586605865,-8,-15,-8,-2,2,-1,-4,-32
1517188586605865,-4,37,23,6,0,1,-4,-7
1517188586607853,6,-26,-15,2,1,0,11,54
1517188586607853,-9,31,10,2,-3,-2,-22,-89
1517188586619874,9,15,12,2,0,-1,-2,20
1517188586619874,-4,-29,-22,-7,-4,-3,-6,21
1517188586628859,6,22,0,-1,0,-1,10,6
1517188586628859,11,-7,12,1,2,2,8,34
1517188586650883,-11,-17,15,0,-1,-3,-6,-38
1517188586650883,-16,-8,-11,0,-4,-1,9,8
1517188586652885,-9,2,19,-11,-2,1,-3,-22
1517188586652885,19,11,-31,3,-1,2,8,25
1517188586665896,-25,5,10,0,0,-3,-1,9
1517188586665896,21,6,-1,3,1,2,3,54
1517188586667897,-26,3,-13,-2,-3,-5,-9,-91
1517188586667897,4,23,48,3,2,-1,3,28
1517188586688911,-25,-83,-69,-6,-3,2,-1,-23
1517188586688911,5,38,12,2,-1,-5,-1,46
1517188586689901,-19,-59,-19,-13,-4,-3,5,34
1517188586689901,8,11,7,15,7,0,2,15
1517188586703921,33,28,4,-8,-6,-3,3,12
1517188586703921,-26,-45,-5,1,-2,-1,0,-24
1517188586704922,14,-17,6,-3,-1,1,-1,9
1517188586704922,-7,-6,-19,-11,-8,-6,0,3
1517188586725949,6,14,25,8,1,-1,5,18
1517188586725949,-5,-20,-32,-2,3,1,-17,-50
1517188586727928,-2,-2,11,-13,-2,0,11,51
1517188586727928,-10,-15,-6,5,-1,0,-3,-43
1517188586748943,8,21,-3,-13,-2,-1,0,6
1517188586748943,12,6,8,8,4,-2,3,13
1517188586749944,-27,-12,-6,12,2,-2,-17,-91
1517188586749944,-2,13,-8,-6,-3,-3,-5,34
1517188586762966,-2,9,2,-9,-6,-1,2,7
1517188586762966,14,7,21,-6,-2,-3,6,-14
1517188586769973,-20,20,-22,-2,-5,-6,-4,36
1517188586769973,-4,23,21,5,2,1,-3,-21
1517188586785992,7,-41,-13,-5,-7,-5,-6,-23
1517188586785992,-6,-1,-3,-6,-1,-5,-5,-12
1517188586787981,24,42,19,20,6,6,8,4
1517188586787981,-1,-15,-9,-24,-3,0,-12,22
1517188586808001,13,40,25,12,8,6,1,-32
1517188586808001,-2,5,6,6,0,8,17,29
1517188586809986,-15,25,-5,4,-2,-5,-13,-69
1517188586809986,4,-8,-10,2,1,1,5,17
1517188586823013,6,-9,28,5,2,-1,-2,7
1517188586823013,-1,13,-1,-8,-6,-2,1,63
1517188586830002,-9,4,-10,3,3,2,-7,-70
1517188586830002,3,-19,20,-4,-6,-4,3,15
1517188586846011,-1,12,0,10,-1,2,-7,-13
1517188586846011,-5,-4,1,-14,-4,-3,-2,-21
1517188586848018,-5,21,-10,-17,-5,-8,-8,33
1517188586848018,12,-5,11,13,3,2,8,32
1517188586868029,-5,-15,6,-1,0,0,5,-38
1517188586868029,-13,35,29,13,3,1,-4,-14
1517188586870028,18,-23,-35,-10,-6,-1,-3,9
1517188586870028,3,14,-7,0,-1,-1,5,-5
1517188586891044,-22,-20,-5,-1,0,-4,-5,60
1517188586891044,-34,-19,7,-4,-4,-1,-6,-49
1517188586893054,27,11,-3,1,1,2,5,63
1517188586893054,-17,-29,-39,3,-3,-5,-4,-23
1517188586906059,-21,42,15,-19,-5,-4,-7,12
1517188586906059,11,-29,-21,7,1,0,7,-1
1517188586912058,-10,2,13,-1,-1,0,3,32
1517188586912058,43,14,-6,6,2,0,10,36
1517188586929072,13,-15,3,-2,-2,-2,0,-14
1517188586929072,-40,-49,-22,-10,-1,1,-2,-11
1517188586930071,4,10,16,5,1,-1,-4,-13
1517188586930071,-16,14,-5,-6,1,2,-5,-20
1517188586943113,11,-2,7,8,2,-1,7,18
1517188586943113,25,1,-10,0,-3,-1,-3,-28
1517188586949094,-17,-18,17,-2,-5,-4,10,49
1517188586949094,8,-1,-3,-11,-3,-2,-4,-8
1517188586966097,-19,-38,-22,-3,-4,-4,-6,14
1517188586966097,20,31,-13,5,0,-2,2,35
1517188586967097,-12,-29,-22,-38,-8,-5,-4,18
1517188586967097,-18,-6,14,4,-2,-2,-10,-40
1517188586988113,32,22,4,7,0,3,4,11
1517188586988113,4,-7,-25,-2,-2,-2,-14,1
1517188586990114,25,30,10,13,4,-2,-7,-47
1517188586990114,-13,-22,2,1,3,2,10,17
1517188587003132,-14,-19,-26,-3,1,-1,0,-7
1517188587003132,-1,26,9,-7,-7,-7,-7,-30
1517188587009136,-5,-14,-11,7,-1,4,-4,-16
1517188587009136,-4,8,17,-2,0,1,5,7
1517188587026148,4,35,-3,1,-3,-4,-4,-16
1517188587026148,-1,-28,-8,3,5,3,3,6
1517188587032159,14,-10,-23,-8,-4,-3,4,3
1517188587032159,-21,8,34,9,4,6,-1,14
1517188587048164,5,-27,-11,-4,-1,1,-7,-46
1517188587048164,2,29,16,-5,-1,-2,2,-10
1517188587050156,6,25,8,11,0,1,7,20
1517188587050156,-6,-4,-19,-7,-3,-5,-10,-24
1517188587063166,4,8,19,4,-1,-1,-7,28
1517188587063166,9,22,-10,-3,0,-3,-9,-11
1517188587070185,-15,-16,-6,1,1,-1,3,-19
1517188587070185,7,3,8,3,-3,-4,3,50
1517188587085220,-18,-19,-17,-4,-3,-1,-6,0
1517188587085220,7,9,64,-10,-3,-4,-8,-18
1517188587086192,0,-7,-49,3,-2,0,-1,9
1517188587086192,-3,-16,-9,-5,-2,-7,0,5
1517188587108197,-6,23,-7,1,0,-2,3,-7
1517188587108197,-1,-61,-30,1,2,1,9,35
1517188587108197,13,8,38,-1,-1,-3,-13,-40
1517188587108197,-22,-6,-18,-3,-3,1,-6,-14
1517188587122240,17,-9,3,10,1,4,10,18
1517188587122240,-4,8,-17,-14,-6,-5,-10,-12
1517188587130213,6,23,34,-3,2,1,3,20
1517188587130213,-9,-26,-10,-4,-1,-1,-3,-30
1517188587145224,2,12,-6,-1,-2,-1,6,35
1517188587145224,4,6,-21,8,1,1,-4,20
1517188587146224,-17,-24,-14,-2,-1,0,-7,-40
1517188587146224,9,11,8,5,2,0,2,-6
1517188587167256,0,23,-5,-2,-1,1,-5,-21
1517188587167256,-7,-10,-4,-8,-2,2,4,-7
1517188587168239,-6,2,1,-1,-3,-5,-3,1
1517188587168239,3,-3,6,0,0,-3,-1,-9
1517188587182259,-7,4,-6,-2,-1,-2,0,-6
1517188587182259,-1,8,12,6,-1,1,5,-3
1517188587190255,-6,-16,-6,-4,-1,-1,6,24
1517188587190255,4,8,8,1,1,1,-11,-6
1517188587205279,-3,-19,4,0,-2,-2,-6,-8
1517188587205279,-3,-2,-7,-7,-3,-2,6,-4
1517188587206270,-3,-4,3,1,0,-3,-4,15
1517188587206270,8,26,3,2,0,0,5,4
1517188587228282,-11,-31,-2,-8,0,0,5,4
1517188587228282,0,11,21,4,1,0,-6,-1
1517188587228282,-2,-23,-15,5,1,-2,-3,-1
1517188587228282,9,10,4,-2,1,1,2,-9
1517188587242315,0,10,-4,-6,-4,-1,-3,10
1517188587242315,-6,-22,-2,5,1,0,-1,-36
1517188587250307,2,-7,-4,8,-1,-2,-2,-2
1517188587250307,-3,-4,-3,-16,-4,0,-4,-3
1517188587267371,5,5,3,4,1,-1,2,-1
1517188587267371,-1,11,14,2,0,-1,-2,11
1517188587268379,12,25,-3,2,-1,0,-3,-10
1517188587268379,-2,-12,-11,2,-2,-4,1,4
1517188587287378,-11,-7,-9,-7,-1,-2,-5,-15
1517188587287378,7,-4,-10,3,0,0,1,2
1517188587288376,-15,10,11,-7,0,2,7,0
1517188587288376,8,23,9,3,0,1,7,12
1517188587302398,-9,-7,-17,-2,-1,-2,5,4
1517188587302398,-13,-23,5,4,3,0,-4,-2
1517188587310402,2,-3,0,-3,-2,-1,-3,-5
1517188587310402,6,-9,0,-5,-3,0,0,-5
1517188587325405,-3,5,3,2,-2,-4,1,21
1517188587325405,3,13,-2,-3,-4,-1,-2,3
1517188587326419,1,15,-3,-7,-1,-1,-2,-8
1517188587326419,-17,-7,-6,0,0,-1,-3,-6
1517188587347428,5,3,13,7,1,2,-5,-8
1517188587347428,5,15,-5,8,1,-1,-5,-16
1517188587348422,-5,0,19,-24,-6,-4,-3,15
1517188587348422,-9,-27,-13,0,-3,1,-3,-1
1517188587371435,0,3,-3,0,-2,-1,-8,-24
1517188587371435,1,1,3,-3,-2,-1,3,0
1517188587371435,-4,-6,1,10,4,1,0,4
1517188587371435,-1,-3,-7,-3,-3,-1,-1,-23
1517188587385448,1,-6,-1,-4,-3,-2,3,-7
1517188587385448,-9,0,4,-4,-3,-1,-7,-15
1517188587386445,0,8,-5,-3,-3,-2,-2,7
1517188587386445,0,-7,-14,-5,-3,-2,-1,4
1517188587407519,1,3,19,5,0,0,-1,-10
1517188587407519,2,-6,-20,-5,-2,-2,1,10
1517188587408476,1,-3,-8,-1,-1,-2,2,-6
1517188587408476,-3,-4,6,3,1,-2,-5,-2
1517188587422490,1,32,6,-8,-6,-2,-5,-15
1517188587422490,-2,-11,-3,-5,0,-1,0,11
1517188587430476,-7,-32,1,1,-1,2,3,-5
1517188587430476,0,-5,-13,-1,-3,-4,-13,-2
1517188587445487,-5,-3,-7,-3,-2,-2,1,4
1517188587445487,5,14,-2,-2,-1,1,7,10
1517188587446487,-3,5,0,2,-3,-4,-3,0
1517188587446487,5,-3,3,-3,1,1,1,12
1517188587467503,-3,-2,-5,-2,1,2,-1,-31
1517188587467503,-2,10,10,3,0,-3,-4,-1
1517188587468503,-8,-17,-2,-5,-2,-1,-5,-9
1517188587468503,2,-1,8,3,-2,-1,4,7
1517188587482513,-11,-24,5,2,2,1,2,6
1517188587482513,-1,-23,-6,-4,-3,0,3,-3
1517188587490534,1,8,-2,1,1,0,-2,-7
1517188587490534,-1,13,3,2,-2,-3,2,-2
1517188587505588,3,-15,-12,1,1,1,-1,5
1517188587505588,2,9,9,-1,-2,-2,-4,-5
1517188587506551,1,-5,-1,4,2,1,1,6
1517188587506551,3,18,1,-7,-3,-6,-2,-2
1517188587527558,3,7,-10,-2,-1,0,2,6
1517188587527558,-2,6,-3,-2,-2,-1,-1,6
1517188587528550,5,10,-3,-2,-2,0,2,0
1517188587528550,0,-9,-2,4,2,2,0,-2
1517188587541555,0,4,3,-6,-4,0,-1,-2
1517188587541555,11,-1,-3,-4,-2,-5,1,10
1517188587550561,-11,-7,3,4,1,1,3,-9
1517188587550561,1,-3,2,0,-2,-1,-3,-3
1517188587565574,0,-14,-7,-3,-1,-1,0,12
1517188587565574,-5,-7,-8,1,1,0,0,-2
1517188587566573,2,-2,-1,2,1,-1,1,2
1517188587566573,1,1,-2,-2,-3,-1,-2,-1
1517188587587602,-1,-2,0,0,-1,-1,0,1
1517188587587602,-6,6,-2,-2,0,-1,-1,-6
1517188587588589,3,-2,1,-1,-1,-2,-2,3
1517188587588589,-5,-1,-11,-2,1,0,-1,-4
1517188587611609,0,-6,0,-1,-3,0,-3,0
1517188587611609,-3,1,0,-3,1,-1,1,-4
1517188587611609,-1,2,2,1,0,-3,-2,-3
1517188587611609,-3,-3,8,-2,-1,1,1,2
1517188587625627,3,-1,-7,-2,2,-3,-2,1
1517188587625627,1,19,9,-2,-4,-1,-2,1
1517188587625627,0,-3,-10,1,-2,-2,-2,-3
1517188587625627,-2,-8,4,1,1,1,1,1
1517188587647630,2,3,3,-1,-1,-1,-3,1
1517188587647630,-7,-20,-8,-3,-1,2,0,-4
1517188587648631,1,-1,-3,-3,-1,-1,-3,1
1517188587648631,-1,1,2,1,-3,-1,0,-2
1517188587670669,-2,-3,-7,-2,-2,0,0,2
1517188587670669,-1,-6,-1,1,-1,0,-2,-1
1517188587671647,1,4,-2,-2,0,0,-1,-1
1517188587671647,-1,-2,-4,-2,0,-2,-1,0
1517188587685657,-2,-4,-1,-1,2,-2,-1,-5
1517188587685657,-1,1,3,1,-3,0,-2,-4
1517188587685657,6,2,-6,1,-1,-2,0,-1
1517188587685657,-2,0,-1,-4,2,0,-1,0
1517188587707700,-3,-1,3,-5,-3,-4,-1,1
1517188587707700,0,3,-2,0,0,-1,-1,0
1517188587708688,-3,-1,2,-1,-4,-3,0,-1
1517188587708688,1,0,-3,2,4,1,-1,2
1517188587730699,-2,-4,3,3,-2,1,-1,0
1517188587730699,-3,-2,0,-1,-2,-1,-2,-2
1517188587731690,0,-1,0,0,1,0,-1,-1
1517188587731690,-3,-4,-6,9,-1,-2,0,-3
1517188587745700,0,4,-2,-19,-5,-2,-4,-3
1517188587745700,-1,-9,3,-7,-2,-1,0,0
1517188587745700,-1,2,-2,9,-3,-1,0,1
1517188587745700,-1,0,1,-5,1,1,2,-1
1517188587767723,5,-3,-3,-1,-2,-2,-2,-1
1517188587767723,1,-2,-4,1,-3,-2,-2,-2
1517188587768716,2,-10,-1,-4,0,0,-1,-1
1517188587768716,-3,-1,0,4,0,-2,1,1
1517188587790734,-6,-5,-2,1,-2,-1,-2,-3
1517188587790734,-6,5,2,-3,2,-2,0,-2
1517188587791731,-5,-11,-6,-1,1,-1,-1,-2
1517188587791731,4,2,9,-4,-5,-2,0,1
1517188587804741,1,4,9,9,1,2,1,-1
1517188587804741,-6,-4,-4,5,1,2,2,0
1517188587805742,9,4,1,1,1,-2,-3,-1
1517188587805742,0,3,-10,-11,-2,-1,-2,-3
1517188587827758,-1,0,-1,0,2,-2,0,-2
1517188587827758,1,1,1,0,0,0,-3,-1
1517188587828759,-4,0,-4,-5,-2,-1,-2,-1
1517188587828759,-2,-1,-1,-4,-2,0,-1,-1
1517188587850786,0,-2,-2,-1,0,-2,0,-1
1517188587850786,0,0,-1,2,0,-1,-1,-1
1517188587851774,-4,-1,4,-4,-1,-1,1,-1
1517188587851774,1,0,-3,-1,-1,-1,-3,0
1517188587864793,-3,0,-1,2,-2,0,1,0
1517188587864793,2,-4,-6,-2,-1,-2,0,0
1517188587865784,-2,2,0,-4,-2,0,0,1
1517188587865784,-1,-1,3,1,-1,-1,-4,-3
1517188587887815,-5,-4,-1,-1,0,2,1,0
1517188587887815,0,2,-1,-2,0,-2,0,0
1517188587888802,-3,-1,-2,-3,-3,-2,-2,-2
1517188587888802,-3,-3,-1,1,-3,-1,-1,-2
1517188587909824,1,-3,-2,0,1,-1,1,0
1517188587909824,-1,-2,-1,-2,-1,-2,-2,-2
1517188587917836,-3,-2,2,0,-1,-1,0,-1
1517188587917836,-1,-2,-1,-3,-2,-3,0,-2
1517188587924864,0,0,-1,-2,-1,0,0,-1
1517188587924864,-1,1,2,3,1,-1,-2,-3
1517188587925827,-1,2,-4,0,1,2,-1,0
1517188587925827,1,-2,1,-3,2,0,-1,-1
1517188587947852,-2,-3,-3,1,-3,0,-4,-1
1517188587947852,0,-2,-1,-1,0,-1,0,-1
1517188587948842,-1,-4,0,-1,-3,-4,0,-1
1517188587948842,-2,-2,-1,0,-1,1,1,0
1517188587970868,-2,1,-2,0,2,-1,-2,-2
1517188587970868,-2,0,-1,0,-2,0,-1,-2
1517188587971859,-2,-1,0,0,-1,2,0,0
1517188587971859,-3,-1,-3,-3,-2,-1,0,-1
1517188587984868,0,-1,0,1,-2,-3,-1,-1
1517188587984868,-2,0,-1,-1,-2,-1,-2,-2
1517188587985869,1,0,1,0,1,-1,0,0
1517188587985869,0,-3,0,-2,1,-1,-2,0
1517188588007898,0,1,0,-1,1,1,-2,-2
1517188588007898,0,-1,-2,-2,-1,1,-1,-1
1517188588008886,-2,0,-1,-1,0,-2,1,0
1517188588008886,-3,-2,-2,-2,-2,-1,-1,-1
1517188588030901,-1,-1,-1,0,0,-2,1,-1
1517188588030901,-1,-1,0,-1,-1,-2,0,0
1517188588031902,-1,1,0,-2,-1,0,-2,-1
1517188588031902,-1,-2,2,1,0,-1,-2,0
1517188588044914,-1,-2,-1,-2,-1,-3,1,0
1517188588044914,-1,-2,0,0,0,-1,-1,0
1517188588045913,1,0,-2,-2,-1,-5,0,-1
1517188588045913,-1,-1,-2,-2,-3,1,-1,1
1517188588067943,0,-1,-1,-1,0,3,-1,0
1517188588067943,-1,-1,-1,-2,-2,-4,-2,0
1517188588068928,-2,0,-2,1,0,-1,-1,-1
1517188588068928,0,0,-1,-1,-2,-2,-1,-1
1517188588090988,1,-1,-1,-1,-1,0,-1,0
1517188588090988,-1,-1,0,-1,-2,1,1,-2
1517188588091998,-3,0,-2,-2,-3,-1,-4,-2
1517188588091998,-2,-1,-2,1,0,-1,0,0
1517188588105007,-2,0,0,0,-3,0,0,-1
1517188588105007,-1,-1,-3,-1,1,-1,-1,-1
1517188588105988,1,-3,1,-1,0,-2,0,-2
1517188588105988,0,1,0,-1,-1,0,0,-3
1517188588128011,-3,-1,-1,-4,-1,-1,-1,0
1517188588128011,0,0,0,-2,-4,-4,0,0
1517188588129004,-2,0,-1,1,0,0,-2,0
1517188588129004,-1,-2,-3,-2,-2,-3,0,-1
1517188588151032,1,-1,-2,1,-2,-1,-2,1
1517188588151032,-2,-1,0,0,-1,2,-1,-1
1517188588152042,-1,-1,-2,-2,-1,0,-3,0
1517188588152042,0,-2,0,0,0,-2,-1,-2
1517188588165030,-1,0,-2,-2,-2,-2,2,-1
1517188588165030,-1,0,-2,0,-1,-1,-1,-2
1517188588173036,-1,-3,0,-1,-1,1,0,-1
1517188588173036,-1,-2,-2,-3,-2,-1,-1,0
1517188588188088,0,1,0,-1,-1,-1,-2,-1
1517188588188088,-1,0,0,0,-2,-1,-1,3
1517188588189047,-2,-2,-3,-3,0,-1,-1,-2
1517188588189047,0,-1,1,0,0,-1,-1,-2
1517188588211078,-1,-3,-1,-3,-1,0,-1,-2
1517188588211078,-1,-2,0,-2,0,-1,-1,-2
1517188588212065,0,-2,-1,-1,-2,-1,-1,-2
1517188588212065,-2,0,-2,-1,-1,-2,-1,1
1517188588225090,-1,-1,-1,0,-2,-3,-1,-1
1517188588225090,0,-2,0,-1,0,0,-4,0
1517188588233078,-2,-3,0,-2,0,0,1,-2
1517188588233078,0,-2,-2,-2,-3,1,-1,-2
1517188588248089,-1,-2,-1,0,1,-1,-2,-1
1517188588248089,-1,0,-3,-1,-2,1,-1,-1
1517188588248089,0,-1,-1,-1,0,-2,0,1
1517188588248089,0,0,0,1,0,-1,-2,1
1517188588271120,-1,-1,-2,-2,-2,-2,-2,0
1517188588271120,2,-4,1,-1,-1,-1,1,-1
1517188588272107,0,-2,-3,-2,-1,-1,-2,-1
1517188588272107,-1,0,1,0,-1,0,0,-2
1517188588285162,-1,-1,-1,-1,0,-4,-1,-2
1517188588285162,-1,0,-1,0,1,0,1,-1
1517188588292182,-1,1,-1,0,-2,-1,1,1
1517188588292182,-2,-2,-1,-2,1,-1,-2,-1
1517188588308196,-2,-1,-2,0,-1,0,-1,-1
1517188588308196,-3,0,-2,-1,0,-1,-1,-1
1517188588308196,-2,0,-1,-1,-1,1,0,-2
1517188588308196,1,0,-1,1,-1,-3,0,0
1517188588331197,-2,-3,-1,-2,-1,-3,-1,-1
1517188588331197,-2,-1,0,-1,-2,0,1,1
1517188588332198,-1,-1,-1,1,-2,-1,-1,1
1517188588332198,0,-2,-3,-3,-2,0,0,-3
1517188588345229,0,0,1,-2,-1,1,-1,-1
1517188588345229,-1,-2,-3,-4,0,-3,-2,-1
1517188588353221,-2,0,-1,-1,-2,-1,-1,-2
1517188588353221,-2,-2,-2,0,-2,1,-2,-2
1517188588367232,0,-2,1,1,-1,3,-2,-1
1517188588367232,0,-1,-1,-2,0,-2,-2,-1
1517188588368225,1,0,0,1,0,-3,0,-1
1517188588368225,-1,-1,-1,-2,-1,-3,-1,-1
1517188588391253,-1,-1,-2,1,-1,-1,1,-1
1517188588391253,0,1,1,0,-1,0,-1,-2
1517188588391253,-2,-3,-2,-3,-1,-1,-2,-1
1517188588391253,0,0,1,0,0,1,0,0
1517188588404264,-2,-2,0,-2,0,-1,-1,-1
1517188588404264,-1,-1,-3,-1,0,0,-2,-1
1517188588420277,-2,0,-1,-1,-1,1,-1,-1
1517188588420277,-3,-1,1,-1,-1,-2,-2,0
1517188588428276,0,-1,-2,0,-3,-2,-1,-1
1517188588428276,0,-4,1,0,-2,0,0,-2
1517188588428276,-1,-1,-2,-1,-2,-2,-2,0
1517188588428276,0,1,-1,-1,0,0,-1,-1
1517188588451306,0,-1,-1,0,-2,1,-1,0
1517188588451306,1,0,-2,-2,0,-1,-2,-1
1517188588451306,-1,-2,-1,-1,0,-2,0,-3
1517188588451306,-1,-1,0,-1,1,-1,0,-1
1517188588464295,-2,1,-1,-2,0,-1,-1,0
1517188588464295,-2,-1,-2,0,-2,-3,-1,0
1517188588472301,-2,1,-2,0,-1,1,-1,-1
1517188588472301,-1,0,-1,-1,-2,-1,-2,0
1517188588487331,0,-3,1,-2,0,0,-1,-1
1517188588487331,-2,-3,-1,-1,-1,0,-1,-1
1517188588488308,0,-2,-2,-2,1,-2,-2,-2
1517188588488308,0,-2,0,-2,0,-3,-1,-1
1517188588511325,-2,0,-2,-1,-1,-1,1,-1
1517188588511325,-1,-1,-2,0,0,-1,0,-2
1517188588511325,0,-1,0,-1,0,-2,-1,1
1517188588511325,0,-1,-1,-1,-1,1,0,-1
1517188588533341,0,0,-2,0,-2,-1,-2,-2
1517188588533341,-1,-1,-1,-3,-2,-3,-1,1
1517188588534340,-1,-3,-2,0,-1,0,-1,0
1517188588534340,-2,0,-2,0,0,1,-1,-2
1517188588547361,0,0,0,1,-1,-2,0,-1
1517188588547361,0,-1,-2,0,-1,-2,-1,1
1517188588548349,0,-2,-1,-3,-2,-1,-2,-2
1517188588548349,-2,-1,1,0,-2,-2,-2,0
1517188588571366,-2,-2,-2,-2,1,-1,-1,-3
1517188588571366,-1,0,-2,-2,-2,-3,0,-2
1517188588571366,-1,-1,-2,-1,0,-1,0,-2
1517188588571366,-1,-3,-2,-1,-1,0,-1,-1
1517188588593432,0,0,2,-1,-1,-1,-1,1
1517188588593432,1,1,0,-1,-2,-1,2,0
1517188588595434,0,-1,-1,-1,-1,-1,-2,-1
1517188588595434,1,-2,-3,-2,-1,-2,0,0
1517188588608457,-2,-2,0,0,0,-2,-2,1
1517188588608457,-3,-1,-1,0,-1,2,0,-2
1517188588608457,-2,0,-2,-1,-3,0,-1,-1
1517188588608457,-1,-1,-1,-1,-2,1,-2,-1
1517188588631489,-1,-2,-3,-1,-1,1,-1,-1
1517188588631489,0,-2,-2,0,-1,-1,-2,-1
1517188588631489,0,-2,-2,-1,-2,-2,-1,-1
1517188588631489,-1,-2,-1,-1,2,-1,-1,-1
1517188588653475,-1,0,-1,-2,-1,-1,-2,-1
1517188588653475,-2,-1,0,0,-1,1,-2,-2
1517188588654479,0,-2,-1,1,-1,-4,-1,-1
1517188588654479,-1,0,0,-2,-1,-2,-1,0
1517188588667484,0,-1,0,-1,-2,-2,-2,-1
1517188588667484,0,-4,0,-1,-1,0,1,-1
1517188588668485,-2,-1,-1,-3,-1,0,-1,-2
1517188588668485,-1,-1,-3,0,-1,0,-1,-1
1517188588690510,-1,-1,-1,1,-2,-2,-1,-1
1517188588690510,-2,1,-2,-2,1,0,-1,0
1517188588691517,0,0,0,-1,0,0,0,0
1517188588691517,-2,0,-1,-2,-1,-2,-2,-1
1517188588713529,-3,-2,0,-1,1,-2,0,-1
1517188588713529,-1,-2,-2,-1,-2,-2,-2,-2
1517188588714517,0,-2,-3,-1,1,-1,0,-4
1517188588714517,0,1,-2,-2,-2,-1,1,-2
1517188588727526,0,0,-1,0,0,0,-3,-3
1517188588727526,1,-1,1,-2,-2,-1,-1,-2
1517188588735544,-2,0,0,-1,-1,-1,-2,0
1517188588735544,-2,0,0,1,-1,1,-1,-1
1517188588750555,-1,0,1,-2,-2,-1,-3,0
1517188588750555,-1,-1,-3,-2,-1,-2,1,-1
1517188588751545,-2,-2,-2,0,-1,-1,-2,0
1517188588751545,1,-1,-2,-2,-2,-1,1,0
1517188588773577,-1,-2,0,0,-2,-1,-1,-2
1517188588773577,1,-3,-2,0,0,-3,-2,-1
1517188588774560,-1,0,-1,-1,0,1,0,0
1517188588774560,-3,-2,-1,0,-1,2,-3,-1
1517188588787588,-1,-1,-1,-2,-2,0,-1,-2
1517188588787588,-1,-1,0,-2,-2,-1,1,1
1517188588788569,-2,-2,1,-2,-3,-1,-2,0
1517188588788569,0,-1,-2,-2,-2,-2,-1,0
1517188588810604,0,0,-1,-1,0,-2,0,-2
1517188588810604,-1,-1,0,0,1,0,-2,-2
1517188588811587,0,-1,-2,-1,-1,0,0,-2
1517188588811587,-3,-1,0,0,-2,-2,0,-1
1517188588833601,0,-2,-1,-1,1,-1,-2,-2
1517188588833601,-2,0,0,-2,0,-3,1,-1
1517188588834602,1,-2,-2,0,-1,-2,-2,-1
1517188588834602,-1,-2,0,-2,1,-1,-1,-2
1517188588847630,-3,-2,-1,-1,-1,-3,1,1
1517188588847630,-1,-3,-3,-2,0,1,-1,-2
1517188588848612,-2,-1,0,0,1,0,-2,-1
1517188588848612,0,-2,-1,-1,-3,0,-3,-2
1517188588870646,0,-1,-1,-2,-2,-1,-2,0
1517188588870646,-1,-1,-1,0,-1,0,-2,0
1517188588871636,0,0,-1,-1,-3,-3,0,-2
1517188588871636,-1,1,0,-1,0,-1,-2,0
1517188588893663,-2,0,-1,-1,-1,0,1,-1
1517188588893663,-1,-1,-3,-3,-1,-1,-3,-2
1517188588894644,-1,-1,-1,-1,-1,-4,1,-1
1517188588894644,-2,-3,-1,-1,-2,1,0,-2
1517188588907672,0,0,-1,-1,-1,-1,0,-3
1517188588907672,-1,-1,0,1,-3,-2,-3,1
1517188588908654,-1,-1,-2,-1,-1,0,-1,-1
1517188588908654,-2,-1,-2,-2,0,-1,-1,0
1517188588930670,-3,-2,0,-2,-2,-1,-1,2
1517188588930670,1,0,-1,0,-1,0,1,2
1517188588931670,0,0,0,-1,1,-2,-2,0
1517188588931670,-1,-1,0,0,1,-1,-1,-1
1517188588953705,-1,-1,0,0,0,0,-2,-1
1517188588953705,-2,-1,0,0,-1,-1,0,-3
1517188588954687,1,-1,-1,-2,-2,-1,-1,0
1517188588954687,0,-2,-1,0,0,-2,-1,-3
1517188588967715,-2,-2,-2,-1,-1,-1,-2,-1
1517188588967715,-1,0,-1,-1,-2,-2,-3,-1
1517188588968716,-1,0,-1,-1,0,0,-1,0
1517188588968716,-1,1,0,-1,-1,-1,2,0
1517188588990731,0,-1,-2,-1,-1,-1,-1,2
1517188588990731,-1,0,-2,0,-1,0,0,-2
1517188588991732,0,-1,-1,-1,-1,0,-2,-1
1517188588991732,-1,-1,0,0,-3,0,-2,-1
1517188589013748,-1,-2,0,-3,-1,-2,0,0
1517188589013748,-1,0,-1,-1,1,0,-3,1
1517188589013748,1,-1,-1,0,-2,-2,1,-4
1517188589013748,-1,-2,-1,-1,0,-2,-1,1
1517188589027757,0,-1,0,-1,-1,-2,0,-1
1517188589027757,-2,-2,-1,-2,-1,0,1,-2
1517188589028755,0,0,0,0,-4,0,-1,-3
1517188589028755,1,-1,-2,-2,-2,-1,-2,-2
1517188589050773,-2,-1,-2,2,-1,2,-2,-2
1517188589050773,-1,0,0,-2,0,-2,-1,0
1517188589051755,-1,-2,0,0,-1,2,-1,1
1517188589051755,-2,-1,1,-3,-2,-1,-1,1
1517188589073773,-1,1,-1,0,-1,-1,-2,-2
1517188589073773,-1,0,-1,-1,0,-1,0,-1
1517188589074774,-1,-3,-3,-1,-1,-2,-1,0
1517188589074774,-1,-1,-2,0,-1,-3,-1,0
1517188589086811,-1,0,0,-2,1,-1,0,-3
1517188589086811,-2,-2,-2,-3,-2,-2,-1,-1
1517188589096789,-1,-1,0,-1,0,-1,0,0
1517188589096789,-1,-1,-1,-2,-3,1,-2,-2
1517188589110827,0,-2,1,-1,-2,-1,-1,-1
1517188589110827,0,0,-1,-2,0,-3,1,-2
1517188589112807,-2,0,0,-1,-2,-1,0,1
1517188589112807,-1,0,0,-1,0,-1,0,0
1517188589133814,0,0,-2,-3,-1,0,-1,-1
1517188589133814,1,-4,-1,0,-2,-2,-1,-1
1517188589134814,-3,0,-2,-1,1,0,-4,-3
1517188589134814,-1,-1,-1,0,-2,1,-2,-1
1517188589146824,0,-2,-1,-1,-4,-1,-2,1
1517188589146824,0,0,-1,0,-3,-1,-2,0
1517188589155831,-1,1,-2,0,-1,-3,0,-2
1517188589155831,-1,-2,0,-1,-1,-2,-1,-2
1517188589170839,1,1,-1,-2,-2,0,1,0
1517188589170839,-1,-4,-2,0,-1,-2,0,-2
1517188589172857,-2,-1,-2,-1,1,-1,-2,-2
1517188589172857,-1,-1,-1,0,1,-1,-2,-1
1517188589193861,-1,-3,-1,-1,0,-3,-5,-2
1517188589193861,1,0,2,0,1,1,7,1
1517188589195857,0,-2,0,-2,-2,-1,-2,-2
1517188589195857,0,1,-2,-3,0,-2,0,1
1517188589206866,-1,2,-1,-2,0,0,-1,-2
1517188589206866,-2,0,-2,-1,-1,-1,-3,0
1517188589215880,-2,0,0,-3,-2,0,-1,-1
1517188589215880,0,-1,-1,-1,-2,-1,0,-1
1517188589230901,1,-1,0,0,-3,0,0,0
1517188589230901,-1,-1,-2,-1,0,-1,-3,-1
1517188589232884,-1,-1,-2,0,-2,-2,-1,0
1517188589232884,-1,-1,-3,-1,-3,-1,0,-2
1517188589253911,-1,-2,-1,-1,-1,2,-1,1
1517188589253911,-1,2,-1,-2,-2,0,0,-1
1517188589254911,1,-2,0,-2,-2,-2,-2,-2
1517188589254911,-1,-2,0,-1,0,0,-1,-2
1517188589266907,-2,-2,-1,-1,-2,-3,0,-1
1517188589266907,-1,-2,-1,-1,-1,-2,-3,-1
1517188589275915,-1,-1,-1,-2,0,0,-1,1
1517188589275915,0,1,-1,0,-1,-1,0,0
1517188589290934,0,-2,-1,0,-1,-1,-1,1
1517188589290934,0,-2,0,-1,-1,1,-1,-2
1517188589292936,0,1,-1,-1,1,-1,1,-2
1517188589292936,-2,-1,0,0,-1,-1,-1,0
1517188589312941,-1,1,-1,0,-1,-2,-2,-2
1517188589312941,1,-2,0,-1,-1,2,-1,-1
1517188589314941,-2,-2,-3,-1,0,0,0,-1
1517188589314941,-1,-2,0,0,0,-2,-1,0
1517188589326960,-2,0,-1,0,1,-2,0,-1
1517188589326960,-2,-1,-1,-2,-2,0,-2,-2
1517188589335966,-1,0,-1,-2,-2,-1,-2,-1
1517188589335966,-2,1,-2,0,-3,-2,0,-2
1517188589350967,-1,-3,-2,1,0,-1,0,0
1517188589350967,-1,-1,-2,-1,0,-2,-1,0
1517188589352968,0,0,-1,-1,-2,-1,0,0
1517188589352968,-3,0,0,-2,1,1,-1,-2
1517188589372982,0,-2,-2,-1,1,-2,-1,-1
1517188589372982,-2,0,-2,0,1,-1,-1,0
1517188589374984,-1,0,-2,-1,-2,-2,-2,0
1517188589374984,0,-1,-1,-1,-2,-2,0,-1
1517188589387025,-1,1,-2,-2,0,1,0,-1
1517188589387025,0,-1,0,-2,-1,-1,-3,0
1517188589397002,-1,-4,-2,1,1,-2,-1,1
1517188589397002,0,-2,-2,-1,-3,-1,-3,1
1517188589411021,0,-2,0,-2,-2,1,-1,0
1517188589411021,-1,1,-2,-1,-2,-3,0,-1
1517188589412028,-2,-2,1,-2,-2,0,-2,0
1517188589412028,0,-2,-1,-2,1,-1,-1,-1
1517188589433027,-1,-2,-1,0,-3,-3,-1,-1
1517188589433027,-3,-2,-1,0,-1,-1,-1,-2
1517188589435028,-2,-2,-2,0,0,2,0,-1
1517188589435028,0,-1,-1,0,0,1,-2,-2
1517188589456056,-1,0,-1,-2,-1,1,0,-1
1517188589456056,-1,-1,-1,-3,-3,-1,0,-2
1517188589457043,0,0,-1,-1,-2,-1,0,0
1517188589457043,0,-1,0,-3,-2,-1,-2,-1
1517188589471120,-1,-1,-1,-2,-1,-1,-2,-1
1517188589471120,1,0,-1,1,0,0,1,-1
1517188589472106,-2,-2,-2,-3,-2,-2,-2,-2
1517188589472106,1,1,1,1,0,0,0,-1
1517188589493143,-2,-1,-2,-1,-1,-2,1,0
1517188589493143,0,-2,-2,0,0,1,-3,-1
1517188589496122,-1,1,-2,0,-1,0,-3,0
1517188589496122,0,-3,0,0,-2,0,0,0
1517188589516138,0,-2,1,-2,1,-1,-1,-2
1517188589516138,1,-1,-1,0,-2,-3,-1,1
1517188589517152,-1,-1,-1,-1,0,-2,0,0
1517188589517152,-1,0,-1,0,-3,-3,-2,-1
1517188589531150,-1,0,1,1,0,1,-2,-1
1517188589531150,-3,-2,-1,-4,1,-2,-3,-1
1517188589532148,0,1,0,0,-4,0,1,-2
1517188589532148,-2,0,-2,-2,-3,-1,0,-1
1517188589553162,-3,0,-4,0,-1,-1,0,-2
1517188589553162,-1,-1,-1,0,0,-1,0,-1
1517188589555164,0,-2,-3,0,1,2,1,-2
1517188589555164,0,0,-3,-2,0,-2,-2,-1
1517188589576189,0,1,-2,-2,-3,1,-3,1
1517188589576189,-2,0,-1,0,-2,0,0,-1
1517188589582198,-1,-1,-1,-1,-1,-2,1,-1
1517188589582198,-1,-2,-1,-1,0,-1,0,0
1517188589591200,-2,0,0,0,0,2,0,0
1517188589591200,-1,-2,-3,-1,0,-1,0,-2
1517188589592190,-2,-3,0,0,-2,-1,1,-1
1517188589592190,0,0,-3,0,0,0,-2,-2
1517188589613205,0,-1,-1,0,-1,-4,-2,0
1517188589613205,-1,0,-1,-2,-1,-1,1,0
1517188589615207,-2,0,-1,-1,0,0,-1,0
1517188589615207,-1,-1,-1,-2,0,-1,-1,-1
1517188589636232,-1,-2,-1,-1,-1,0,-1,-2
1517188589636232,1,-1,0,0,-2,-1,-1,-1
1517188589637222,-2,0,-3,-2,0,-2,-1,-1
1517188589637222,0,0,1,0,-3,1,1,-1
1517188589650231,-2,1,-2,-2,0,0,-1,-1
1517188589650231,-2,-1,-2,-1,0,0,-1,-1
1517188589657236,-1,0,-2,0,-2,1,-1,-2
1517188589657236,-1,-1,-1,-2,-2,-1,-2,1
1517188589673262,1,-1,0,1,-3,-1,-1,1
1517188589673262,-1,1,-1,-1,-1,-2,1,-2
1517188589675259,-1,-2,-3,0,-2,-2,-2,-1
1517188589675259,-2,-2,-2,-2,0,-2,0,0
1517188589696275,0,-1,0,-1,0,-2,0,-1
1517188589696275,-1,-1,-2,-3,0,0,-3,-1
1517188589698265,0,-1,0,1,-1,0,-2,-1
1517188589698265,-2,0,0,0,-2,0,-1,-3
1517188589710319,-2,0,-1,-1,-2,-1,-2,-1
1517188589710319,-1,1,0,-3,-2,-1,0,0
1517188589717294,-1,0,0,-2,0,0,-2,3
1517188589717294,-2,1,-1,1,-1,-1,-1,-2
1517188589733301,-1,-1,0,-1,0,-3,-1,0
1517188589733301,-3,0,-2,0,0,-2,-1,-2
1517188589735305,-1,-2,-1,0,-1,0,-1,-1
1517188589735305,0,-1,-1,-2,0,-1,1,0
1517188589756309,-1,-1,0,-2,-1,-1,1,-1
1517188589756309,1,-2,-2,0,-1,-3,-2,-2
1517188589757322,0,-3,-1,-2,-1,-1,-2,-1
1517188589757322,-1,0,0,-2,-1,-1,-1,0
1517188589770316,-1,-3,-2,-1,1,0,-1,-2
1517188589770316,0,-2,-2,-2,-1,-1,-1,1
1517188589777417,-1,0,-2,0,-2,-1,0,-1
1517188589777417,-1,-2,-1,0,-1,-2,-1,-1
1517188589793453,-1,-3,2,-1,-4,-1,-2,-1
1517188589793453,-1,-2,0,0,-4,0,-1,-1
1517188589796396,-1,-1,-2,-1,-3,0,-2,-3
1517188589796396,-1,-1,-1,0,-1,0,0,-3
1517188589815423,-1,-1,-2,0,0,-1,-2,-2
1517188589815423,2,1,-1,0,2,1,2,3
1517188589817410,-1,-2,-1,0,-1,-1,0,-1
1517188589817410,-2,-2,-1,-1,-1,0,-2,-1
1517188589830418,0,-1,-3,-2,-1,-2,-1,-1
1517188589830418,-1,-1,-2,-1,-2,-2,-2,-1
1517188589837444,-1,1,-1,-3,0,-2,-1,0
1517188589837444,0,-2,-2,-1,0,-2,-1,0
1517188589860441,-1,0,0,1,0,0,1,-2
1517188589860441,-2,-2,0,-1,1,-3,-2,-3
1517188589862443,0,0,-2,-2,-2,1,0,-2
1517188589862443,-1,-1,-1,-2,-1,0,-3,-1
1517188589875451,-3,0,-2,0,-1,-1,-1,-2
1517188589875451,-2,-3,-2,0,1,0,-1,-2
1517188589877453,-1,-2,0,0,1,0,-3,0
1517188589877453,-1,-2,-1,0,0,-1,1,-2
1517188589890464,1,1,0,-2,-2,0,0,0
1517188589890464,-3,-1,0,0,-2,-2,-4,0
1517188589897466,-2,1,0,0,-1,-2,0,-1
1517188589897466,-1,0,-2,-1,-1,0,-2,0
1517188589913479,-1,-1,-3,-2,0,-4,-1,-2
1517188589913479,-2,-2,-1,-1,-1,-3,1,-1
1517188589915479,-1,-2,0,-2,-1,-2,0,0
1517188589915479,-2,-1,0,-1,-1,-1,-1,-1
1517188589935536,-1,0,-1,-1,0,0,-1,-1
1517188589935536,0,-1,-2,0,-1,-1,0,-1
1517188589937538,-2,-3,-2,0,-2,0,-2,0
1517188589937538,-2,-1,-1,-1,0,-1,0,-2
1517188589949547,0,-2,-1,0,-1,0,-2,-2
1517188589949547,0,-1,-2,-1,0,0,-1,-2
1517188589964567,-1,0,-1,-1,0,-2,-1,-1
1517188589964567,-1,-3,-2,-2,-1,-2,1,-1
1517188589973587,-2,0,-1,-2,-2,-2,-1,0
1517188589973587,0,0,0,-2,0,-2,-1,-1
1517188589974579,0,-1,-2,-2,-1,1,0,-1
1517188589974579,1,0,0,0,-2,-1,-1,-1
1517188589995582,-1,-1,-1,0,0,0,2,1
1517188589995582,-2,-1,0,-1,-1,-1,-2,-2
1517188589997591,-2,-3,-1,-1,0,-2,-2,-1
1517188589997591,-1,-2,-1,0,0,-2,-2,-1
1517188590009607,-3,-1,-3,0,0,0,0,0
1517188590009607,-2,-1,-2,-1,-1,-2,0,-1
1517188590018595,-2,0,-2,-2,-1,-2,0,-1
1517188590018595,0,-2,0,1,1,-2,-1,0
1517188590033606,-1,-2,-2,-1,-2,-2,-2,-2
1517188590033606,0,0,-1,-2,-2,-1,-1,1
1517188590034607,-2,1,-1,0,-1,0,1,-1
1517188590034607,-2,0,0,-1,0,0,0,0
1517188590055680,0,-2,1,-2,-1,-1,-1,-2
1517188590055680,-2,-1,0,0,-1,0,-3,-2
1517188590061636,-2,-2,0,-2,-2,0,-4,-2
1517188590061636,1,-1,0,-1,-1,1,-1,1
1517188590069653,-5,-2,-2,-1,-3,-4,-4,-4
1517188590069653,-2,-1,0,-1,0,-2,2,-2
1517188590078639,0,2,-1,-1,-1,0,2,-4
1517188590078639,-2,0,1,0,-2,0,-1,1
1517188590093661,0,-2,0,0,-2,0,-2,0
1517188590093661,-3,-3,-1,-1,-2,1,-3,0
1517188590095654,1,-2,-1,-1,-1,-2,-4,-4
1517188590095654,3,1,0,-1,-1,0,1,1
1517188590115664,1,-1,-1,-1,0,-1,-1,-2
1517188590115664,-1,-2,-1,-2,-2,0,0,-1
1517188590117677,1,-3,-1,0,2,0,0,0
1517188590117677,-2,-1,-1,-2,-2,-5,-2,-2
1517188590129689,-2,-4,-1,-1,0,0,1,1
1517188590129689,0,-2,-2,0,-1,-1,-2,-2
1517188590138680,-1,1,-1,-1,0,-2,0,0
1517188590138680,-2,0,-2,0,-1,0,0,-1
1517188590153708,1,-2,0,-1,0,-2,1,1
1517188590153708,0,1,-1,-1,0,-1,0,0
1517188590154691,0,-1,-2,-1,-4,-1,0,2
1517188590154691,-4,-1,1,-1,-2,0,-3,-3
1517188590175730,1,1,0,-1,0,-3,-1,1
1517188590175730,0,0,-2,2,-2,-2,-1,1
1517188590177708,-1,-1,-1,-2,1,0,-1,0
1517188590177708,-1,-2,-1,-2,0,-3,0,0
1517188590189719,-1,1,-1,0,-2,-1,-2,-1
1517188590189719,-1,-3,-2,-2,0,0,0,-1
1517188590198735,-2,-1,0,-1,-1,-1,1,-2
1517188590198735,0,0,-2,-2,-1,1,-1,-1
1517188590212734,-1,-1,-2,-3,-1,-2,-1,-2
1517188590212734,1,1,0,-1,-1,-3,1,3
1517188590219738,-2,-2,0,-1,0,0,-2,-1
1517188590219738,0,-4,-1,0,0,-2,0,-3
1517188590236753,0,-1,-2,0,-1,0,-1,-2
1517188590236753,-1,-2,-2,-4,-1,-1,-2,-1
1517188590237754,-1,0,-2,-1,0,-1,-2,0
1517188590237754,0,-1,0,-2,-2,1,0,2
1517188590249759,2,0,0,1,-1,0,2,3
1517188590249759,-2,-2,0,1,-1,0,-2,0
1517188590258765,0,-2,-1,-1,0,-1,-2,-1
1517188590258765,-2,1,-1,-2,0,1,-4,-2
1517188590273776,-4,-1,-2,0,-2,-2,0,-2
1517188590273776,-1,-2,-1,-2,-3,1,-1,-2
1517188590274776,1,-1,0,-4,-2,-3,-2,0
1517188590274776,-1,-1,-2,-1,-2,-2,-2,-2
1517188590295806,-2,1,-2,-3,-1,-3,0,-1
1517188590295806,-1,-2,-2,-1,-1,0,-1,-2
1517188590297803,-1,-1,-2,-1,-1,0,1,0
1517188590297803,-1,-2,-1,-2,-4,0,0,1
1517188590309802,-1,-1,0,1,-2,0,-2,-2
1517188590309802,-1,-3,-1,-2,0,-2,1,-1
1517188590318807,-2,-2,0,-1,-2,-2,-3,-1
1517188590318807,-1,-1,0,1,0,-1,0,-1
1517188590333819,-1,-3,0,0,0,2,-1,-1
1517188590333819,-2,0,-1,-2,-1,-1,0,-2
1517188590334819,0,0,-1,1,-1,1,-3,-1
1517188590334819,-2,1,-1,-1,-1,-3,-3,-1
1517188590356887,-3,0,-1,-1,0,-1,0,1
1517188590356887,-2,0,-2,1,1,-1,0,0
1517188590357849,-1,-1,-1,-2,-2,-1,1,-1
1517188590357849,-1,-2,-2,-1,-2,1,-1,-3
1517188590378863,-1,-1,-1,-1,-2,-2,-2,-2
1517188590378863,-1,-2,-3,0,-1,0,-2,-1
1517188590379853,-1,1,-1,-1,0,-2,0,-1
1517188590379853,-2,-1,0,0,0,2,1,-2
1517188590392875,-1,-1,-1,0,0,0,-1,0
1517188590392875,0,0,-1,0,-1,-1,0,-1
1517188590399865,-2,-1,-2,-2,-2,-1,-1,0
1517188590399865,0,-2,-1,-1,1,-2,-1,-1
1517188590415876,-1,-2,1,0,1,-2,-1,-1
1517188590415876,1,-2,1,-1,-1,-2,-1,-3
1517188590417878,0,-3,-2,-1,-1,-1,-1,0
1517188590417878,-1,-1,0,-1,-1,0,-1,1
1517188590438893,0,-1,-1,-3,-1,-1,-2,-1
1517188590438893,-3,-1,-2,0,0,-2,0,-2
1517188590439893,-1,-2,-2,1,-2,-1,0,0
1517188590439893,-3,-1,-1,0,-2,1,-3,0
1517188590452924,-1,1,-1,-1,1,-1,0,1
1517188590452924,0,-3,-2,-1,-2,1,-1,1
1517188590454904,-1,-1,1,0,-1,-3,-3,-6
1517188590454904,0,-2,-1,-1,0,-1,1,2
1517188590475942,0,-1,-1,-1,-2,0,-1,-4
1517188590475942,0,-2,0,0,-3,-1,-1,-2
1517188590476943,-1,-2,-1,-3,0,-3,1,3
1517188590476943,-2,0,-1,0,-2,-2,-1,-7
1517188590497935,-4,-2,-1,-3,-2,-3,-1,-2
1517188590497935,-1,0,-1,-1,0,-1,2,-1
1517188590499945,0,-1,-2,0,-1,3,-2,-2
1517188590499945,-1,-2,-2,-2,0,-2,-3,0
1517188590512945,2,-2,0,0,0,-2,0,1
1517188590512945,-4,0,-3,0,-2,-1,-4,-2
1517188590514947,-1,0,0,0,-2,0,2,3
1517188590514947,-1,-1,-1,0,-2,-2,-1,-3
1517188590535965,-7,-3,-2,-2,0,-1,-1,-1
1517188590535965,-1,-1,0,-1,0,2,-2,0
1517188590537963,0,0,-1,0,2,0,-1,-2
1517188590537963,1,0,0,-1,-2,-1,-1,1
1517188590557978,1,0,-1,0,-2,0,0,-2
1517188590557978,-1,0,-1,-2,2,-2,-1,0
1517188590559978,-3,0,-2,0,2,0,-2,0
1517188590559978,0,-1,0,0,0,-2,-1,-2
1517188590572991,-1,-2,-1,-1,1,-2,-4,-1
1517188590572991,-2,-1,-1,-2,0,0,-1,-1
1517188590579995,1,0,1,-1,-2,-1,-1,-1
1517188590579995,0,0,-3,-2,0,-1,2,0
1517188590596007,-1,1,-3,0,-1,-2,-1,1
1517188590596007,-1,0,0,-1,-1,-2,-2,-1
1517188590598006,0,-2,-1,-1,-1,-1,-1,1
1517188590598006,-4,-1,1,-1,-1,-3,-2,-1
1517188590618019,-1,-1,-1,1,-1,0,-1,0
1517188590618019,-1,-1,-1,-2,-1,-1,0,-2
1517188590620026,-3,-1,0,-2,-1,-1,-1,-2
1517188590620026,0,-1,1,0,-1,0,-1,0
1517188590633040,0,-1,-1,-2,-1,0,0,-2
1517188590633040,-2,-1,-3,-1,-2,-2,-2,0
1517188590639037,-1,0,-2,0,-2,-1,-1,-2
1517188590639037,1,-1,-1,-1,0,-1,0,-1
1517188590656047,-3,0,-1,-1,0,1,0,0
1517188590656047,0,-1,-2,-1,1,-1,-2,-1
1517188590657047,-1,-2,-1,-1,-1,-2,0,-2
1517188590657047,-1,-1,-2,-1,-1,-2,-2,-1
1517188590678076,1,-1,-1,0,-1,-1,-2,-1
1517188590678076,-1,-3,0,-1,-1,0,1,-2
1517188590680063,0,-2,-1,-1,0,-1,0,1
1517188590680063,1,-2,2,0,-1,-1,0,1
1517188590693072,0,1,-2,-3,0,0,0,-1
1517188590693072,-1,-1,-1,-2,-2,-3,1,-1
1517188590699077,-1,1,-2,-1,-1,0,-1,-1
1517188590699077,-1,-1,-1,-1,0,-1,-3,-2
1517188590716098,0,0,-1,1,-2,-2,1,-1
1517188590716098,-1,-2,-1,0,-1,0,-2,-1
1517188590717117,-1,-3,-2,-2,-1,-1,-2,-1
1517188590717117,-1,-1,-2,0,-1,1,-1,0
1517188590738119,-2,0,-1,1,0,0,-3,-1
1517188590738119,-1,0,-3,-1,-3,-1,0,0
1517188590740106,-2,-3,0,-3,1,-2,-1,-3
1517188590740106,-2,-1,-1,-2,-2,-3,-2,-1
1517188590753161,-1,-3,-1,-1,-2,-1,0,0
1517188590753161,0,1,0,-2,-2,-1,-1,-2
1517188590759180,-1,-2,-1,-2,-2,-1,0,-1
1517188590759180,0,0,-1,-1,0,-1,1,-1
1517188590776168,0,-2,1,-1,-1,-3,1,-1
1517188590776168,0,-1,-2,0,-1,-2,0,-2
1517188590777175,-2,-2,-1,-2,-1,0,-2,0
1517188590777175,-2,0,-2,-1,-1,0,0,-2
1517188590798191,-2,-2,-1,-1,-1,-1,-3,-1
1517188590798191,0,1,-2,-1,0,0,-2,1
1517188590800194,0,-1,-1,0,-1,0,2,-1
1517188590800194,-2,-4,-1,-2,-1,-1,0,-1
1517188590812192,-1,-1,0,-2,-1,1,0,-1
1517188590812192,-2,-2,0,0,-1,-2,2,1
1517188590819204,-1,1,-1,-1,1,0,-2,-1
1517188590819204,0,-1,-1,-1,-3,1,1,0
1517188590843227,1,-2,-1,-1,-2,-4,0,-1
1517188590843227,0,-3,-2,0,0,0,-3,0
1517188590845223,1,0,-1,0,0,-3,-2,-1
1517188590845223,-2,-1,-1,-2,0,0,1,-1
1517188590858225,-2,-1,-1,-2,-1,-3,-2,0
1517188590858225,-2,0,-1,0,0,1,-3,-3
1517188590860223,-2,1,-1,-1,-4,-1,0,-1
1517188590860223,-3,-1,-1,1,1,-3,-4,-3
1517188590872245,-1,-2,-2,1,1,1,-1,0
1517188590872245,-1,-1,1,-2,-1,-4,-1,-1
1517188590881238,1,0,0,-1,1,-1,0,0
1517188590881238,-1,-1,-1,-3,-1,0,0,-1
1517188590896251,-2,0,-1,-1,-3,0,1,-1
1517188590896251,-2,-2,0,0,-1,-1,-1,0
1517188590898263,-1,-1,-1,0,-1,-1,-2,-2
1517188590898263,1,0,0,0,-1,0,-2,1
1517188590919276,-1,-1,-1,-2,0,-3,-2,0
1517188590919276,1,-1,0,-3,-1,-1,-1,-1
1517188590920283,-2,-1,-1,-1,-2,-1,3,0
1517188590920283,-1,-1,-1,-1,-1,-1,-3,-1
1517188590932326,-2,-4,-1,-2,1,1,0,-2
1517188590932326,0,-1,-1,-1,-2,-5,-2,0
1517188590941354,-1,-1,-1,0,-1,-1,-2,0
1517188590941354,-1,1,-2,-1,-1,2,-1,-1
1517188590955341,0,0,0,-2,-2,-2,-1,-2
1517188590955341,-2,-2,-1,-2,-1,1,1,0
1517188590957343,1,-1,-2,-1,-1,0,0,1
1517188590957343,-1,-2,0,-1,-3,-2,-1,-1
1517188590978410,-2,-2,-1,-2,-1,-2,-1,0
1517188590978410,0,-2,-2,-1,-1,-1,1,-1
1517188590980398,-1,1,0,0,-3,0,-2,-1
1517188590980398,0,-2,0,-1,-1,-2,0,-2
1517188590992466,0,0,0,-3,0,0,-1,0
1517188590992466,-2,-1,0,0,1,-1,-1,-2
1517188591001414,-1,-2,0,-2,0,-1,0,0
1517188591001414,-1,-2,-2,-1,-1,0,0,-1
1517188591016425,0,1,-3,0,-1,0,-2,1
1517188591016425,-2,-2,-2,-1,0,-1,0,-2
1517188591017424,-1,-2,-1,1,-2,0,-2,-2
1517188591017424,-1,-2,1,-1,-2,-1,-1,0
1517188591038455,-1,-1,-1,1,-1,1,0,0
1517188591038455,0,1,-1,-1,-1,0,1,0
1517188591040455,0,0,-3,-1,0,-1,0,-2
1517188591040455,1,0,-2,-3,-1,-1,-1,0
1517188591052450,-4,0,-1,-1,-1,3,-3,-6
1517188591052450,-6,-4,-2,-3,-2,-2,-2,-2
1517188591061480,-3,-3,1,-3,-1,-2,-1,-1
1517188591061480,0,-1,-1,0,-3,-1,-1,-1
1517188591075487,2,1,-2,-1,-1,-1,0,-1
1517188591075487,0,2,-2,1,-1,0,0,1
1517188591077481,-3,0,-2,-3,0,-2,-4,-2
1517188591077481,-2,0,-2,1,1,0,-1,-2
1517188591098481,0,-1,-1,-1,-1,-2,0,-1
1517188591098481,-1,0,0,-1,1,0,-4,0
1517188591099485,-1,-1,-2,-2,-1,-1,1,0
1517188591099485,-1,0,-1,-1,0,-3,-1,1
1517188591112492,-1,0,0,-2,-2,-2,-1,0
1517188591112492,-1,-1,-1,0,-4,-2,-1,-1
1517188591121499,-1,-2,-1,0,-1,-1,-1,-3
1517188591121499,-3,-2,-2,-3,0,-1,-1,-1
1517188591135522,0,0,-2,-2,0,-1,-1,-2
1517188591135522,-2,0,-1,0,2,0,0,-2
1517188591137509,0,1,0,0,1,1,0,-1
1517188591137509,0,-3,1,-2,-1,-2,0,-2
1517188591158580,0,-2,-3,-2,0,-3,-2,-1
1517188591158580,0,0,0,0,-1,0,-1,0
1517188591159560,-1,-1,-2,0,-1,-1,1,-1
1517188591159560,-1,1,1,0,-1,-2,-3,0
1517188591172534,-1,-3,0,0,0,-2,0,-1
1517188591172534,2,-3,-1,-2,-3,0,-1,-1
1517188591180542,-1,1,-1,1,0,0,1,-2
1517188591180542,-1,-4,0,-1,-1,0,0,0
1517188591196555,-2,0,-1,-2,-1,-2,-1,-1
1517188591196555,1,0,-2,-1,0,0,-2,-1
1517188591198553,-1,-2,-1,1,-2,0,0,0
1517188591198553,-6,-1,-3,-1,1,-1,0,-2
1517188591218568,-1,0,0,0,0,0,1,2
1517188591218568,0,-2,-3,-3,1,0,-1,-1
1517188591219599,0,1,-1,-1,-2,-1,-2,0
1517188591219599,-2,0,-1,1,-1,-2,0,-2
1517188591231586,0,-3,-1,-2,-1,-1,0,-1
1517188591231586,-1,-1,-2,-1,0,-1,0,-2
1517188591246597,-2,-3,-1,-1,-1,0,-2,-2
1517188591246597,1,0,-1,-1,-1,0,-1,-2
1517188591255594,-1,-1,-2,-1,-3,-2,-1,0
1517188591255594,0,-2,0,-1,-1,-3,0,0
1517188591257597,-1,-1,-1,-1,-2,1,-1,-1
1517188591257597,-4,-1,-1,-3,-2,-2,-1,-2
1517188591278611,0,-1,-1,-1,0,1,1,-1
1517188591278611,-2,-3,-2,-2,-2,-1,0,-1
1517188591279613,-1,0,-3,-2,0,-2,0,-1
1517188591279613,3,0,-1,1,-1,1,-2,-1
1517188591291641,-2,-1,0,0,0,0,-1,-1
1517188591291641,-1,-2,-1,-2,-2,-3,-1,-2
1517188591300625,-2,-3,0,-1,0,-2,-1,-1
1517188591300625,-1,-2,0,-1,-1,-2,-2,-3
1517188591315660,-3,0,-3,-1,-2,0,-1,1
1517188591315660,-1,0,0,-1,0,-1,-2,-1
1517188591317641,0,-1,0,0,-2,-3,-1,0
1517188591317641,-1,-1,-1,-2,1,1,-1,0
1517188591338657,0,-2,-2,0,0,-1,-1,0
1517188591338657,-2,0,-1,0,-1,-1,-2,-1
1517188591339653,-1,-1,-2,0,-1,-2,0,-1
1517188591339653,3,0,-1,-1,-1,0,1,0
1517188591360672,-2,0,0,-2,-1,-1,0,-2
1517188591360672,0,0,-2,-2,-2,-1,-1,0
1517188591362672,-1,-1,-1,1,1,0,-4,-1
1517188591362672,-1,0,-2,-1,-3,-2,-1,-1
1517188591375745,0,-3,0,0,-1,-2,-3,-2
1517188591375745,-2,-4,-1,-2,-2,-2,-1,-2
1517188591377682,0,1,1,-3,0,0,1,-1
1517188591377682,-2,0,0,-2,-1,-2,0,0
1517188591398697,0,-1,-1,1,-1,-1,-1,-1
1517188591398697,-1,-2,0,0,-1,0,0,-1
1517188591399698,-1,-2,-1,-2,-1,-2,-4,-2
1517188591399698,-1,-1,-3,-1,-1,0,-2,-1
1517188591420730,2,-1,-2,-1,-1,-1,-1,-2
1517188591420730,-1,-1,-2,1,-2,1,1,1
1517188591422715,1,-2,-3,-1,-1,-2,0,-1
1517188591422715,1,3,-1,-1,0,0,3,2
1517188591435736,-1,0,-3,-2,-2,-4,-5,-3
1517188591435736,-4,-1,-1,-3,1,-2,0,-1
1517188591437722,-3,0,0,-1,-1,-1,-2,-1
1517188591437722,6,-1,-1,-2,-2,-1,-4,-2
1517188591458736,-1,0,-1,-2,0,1,1,2
1517188591458736,1,1,1,1,0,-2,-2,-3
1517188591459738,-3,-1,0,-3,-1,-2,-1,-1
1517188591459738,-4,-2,-2,0,-1,-3,-2,-3
1517188591480752,-1,-1,0,-2,-2,-2,-1,-1
1517188591480752,2,-1,-3,0,-1,-2,-1,0
1517188591482753,0,-2,-1,0,0,0,0,1
1517188591482753,-4,0,0,0,-1,-1,1,-1
1517188591495763,-2,0,-1,-1,-1,0,-1,-1
1517188591495763,-1,-1,-2,1,-2,-1,0,0
1517188591501777,-2,0,1,-2,0,0,-1,-2
1517188591501777,0,-2,-1,0,-1,2,1,-1
1517188591518780,-2,-1,-1,-1,-2,0,-2,-2
1517188591518780,-2,-2,-1,-2,-1,-1,-1,-1
1517188591519779,0,-1,-1,0,-1,-2,0,-2
1517188591519779,-2,-1,1,-2,-3,-2,-3,1
1517188591540805,-1,0,0,-2,1,0,0,-1
1517188591540805,0,-1,1,1,-2,1,0,-1
1517188591542806,-1,-2,-2,-1,-3,0,-1,0
1517188591542806,-1,-1,0,0,-1,-2,-3,0
1517188591554815,0,0,-1,-2,1,-2,2,1
1517188591554815,-1,-1,-1,-4,-1,-1,-1,0
1517188591561819,-1,0,0,-1,-2,0,-1,0
1517188591561819,-3,-2,-3,-1,-3,-1,-1,-1
1517188591577835,-2,-3,-2,-1,-1,-2,-2,-1
1517188591577835,-1,-1,-2,-2,0,0,0,0
1517188591579823,1,-1,-3,0,0,-1,0,-1
1517188591579823,0,1,-1,-2,-2,0,0,-3
1517188591600843,-2,-1,-1,0,-1,-2,0,-1
1517188591600843,0,-1,-2,-1,0,-1,-1,-2
1517188591602839,-2,-1,0,-1,-1,-2,0,0
1517188591602839,-2,-1,0,-2,1,-2,0,0
1517188591614866,-1,-1,-2,0,-2,0,-1,-2
1517188591614866,-4,-2,-2,-1,-3,-2,-2,-1
1517188591621871,1,1,0,1,1,-1,0,0
1517188591621871,0,1,-1,-1,2,-1,-1,-1
1517188591637882,-1,-1,-2,-2,-2,-2,2,0
1517188591637882,-1,0,1,0,0,0,-2,-2
1517188591639885,1,-1,-3,-2,-3,0,-2,-2
1517188591639885,1,-1,-1,-2,-1,1,-1,-1
1517188591660939,1,0,-2,0,0,-1,-4,-1
1517188591660939,0,-2,0,0,-1,-1,-1,0
1517188591662942,0,-2,-2,-1,-2,-2,2,0
1517188591662942,-1,-2,-1,0,0,0,-1,-3
1517188591673958,-1,-1,-3,0,-1,-1,0,0
1517188591673958,0,-1,-2,-2,-1,-2,-2,-1
1517188591683956,-2,-1,0,0,-2,0,0,-1
1517188591683956,-2,-2,-1,-1,-3,-1,0,-1
1517188591697976,0,-3,0,-3,0,0,0,0
1517188591697976,0,-1,-3,1,2,-2,-1,-1
1517188591699966,-1,-1,-1,-1,-1,0,-3,0
1517188591699966,0,0,0,-1,0,0,1,-1
1517188591720992,0,-1,1,-1,0,-2,-3,-4
1517188591720992,-2,0,-2,-1,-2,-1,1,-2
1517188591721982,0,-3,-1,1,-1,-1,-2,-3
1517188591721982,-2,0,-1,0,-2,-1,-2,1
1517188591735056,-2,0,-1,-1,-2,-2,0,-1
1517188591735056,1,-1,-1,-2,1,2,-2,0
1517188591742057,-1,-1,-1,-1,-1,-3,-3,-2
1517188591742057,-1,-3,1,0,-1,0,0,-1
1517188591758062,0,0,-1,-1,-1,1,1,-2
1517188591758062,-2,0,-2,-2,-2,-1,-3,-1
1517188591760073,-2,-2,-1,-2,-2,0,1,-1
1517188591760073,0,-2,-1,1,-1,-3,-2,-1
1517188591781084,-3,-2,-1,-1,-1,0,-2,0
1517188591781084,-3,-1,1,0,-1,-3,2,-2
1517188591782076,1,-1,0,-1,-1,-1,-1,-2
1517188591782076,0,-1,-2,-1,-1,0,-1,-2
1517188591795084,2,-1,-1,1,0,-2,-1,0
1517188591795084,0,-1,-2,-2,-2,-1,0,0
1517188591802100,-1,0,0,-1,1,-1,0,0
1517188591802100,1,-1,0,-2,-3,-1,0,0
1517188591818100,1,-1,-1,0,-2,-2,-1,-1
1517188591818100,0,1,-1,0,-1,-4,-2,-1
1517188591820102,-1,-1,-2,0,-1,-1,-1,1
1517188591820102,1,0,2,0,-2,-1,0,2
1517188591841117,-2,-3,0,-2,-3,-2,0,-1
1517188591841117,-1,-3,-1,0,-2,0,-1,0
1517188591842118,-4,-2,-1,-1,-1,1,-1,-1
1517188591842118,-1,-1,-1,-1,-1,-3,-1,-1
1517188591854140,-1,0,0,-3,-2,-1,0,-1
1517188591854140,-3,-1,0,-4,-1,-1,-2,-1
1517188591863132,0,1,0,-3,-2,-1,-3,1
1517188591863132,-1,-3,-1,0,-1,-3,-2,-2
1517188591878143,-1,-1,-1,0,-2,-2,-1,-1
1517188591878143,1,-1,-1,0,-3,0,-1,-2
1517188591880146,1,0,-1,1,0,1,-1,0
1517188591880146,0,-1,-1,-1,-2,-1,-1,-2
1517188591901172,-1,-2,-3,-2,1,-2,-3,-1
1517188591901172,0,-1,0,0,0,-1,2,-1
1517188591902161,-1,-2,0,-1,0,-1,-1,-2
1517188591902161,-1,0,-3,0,-3,2,-1,0
1517188591914169,2,-2,-2,-1,-1,-1,-1,0
1517188591914169,-1,0,0,-2,-1,0,1,1
1517188591923175,-2,-2,-2,-1,1,-2,-1,-2
1517188591923175,-1,-1,-1,-2,-2,0,0,-4
1517188591938200,0,-2,-1,-1,-1,-2,0,-1
1517188591938200,-2,-1,-1,1,-1,1,-2,-1
1517188591940197,-2,0,-1,0,-1,-2,0,0
1517188591940197,2,1,0,-2,0,-2,-1,-2
1517188591961204,-3,1,-1,0,0,-1,-2,-2
1517188591961204,1,-1,-1,-1,-1,-1,0,-1
1517188591962203,-2,0,-1,-1,-2,-1,-1,-1
1517188591962203,0,-3,-1,-1,-1,-1,-3,1
1517188591974228,-1,0,-2,-1,0,-1,2,0
1517188591974228,-2,2,-1,-1,0,-2,-2,0
1517188591983218,2,0,0,0,-1,-1,-2,-1
1517188591983218,-3,-1,-2,0,-1,-1,-2,-1
1517188591998238,-2,-1,-2,0,-2,0,-2,-3
1517188591998238,0,-4,-2,-2,0,0,-1,-2
1517188592000239,-1,-3,-2,0,-1,0,-2,-1
1517188592000239,-2,1,0,0,-1,0,0,-1
1517188592021244,-2,-1,0,-1,0,-2,-3,0
1517188592021244,0,1,-2,0,1,0,1,-3
1517188592022246,0,-1,1,-1,-1,-2,-2,0
1517188592022246,-1,-2,0,0,0,-2,-3,-1
1517188592034254,-2,-2,-1,-2,-1,0,-1,0
1517188592034254,-1,-1,-3,-1,-1,-1,0,0
1517188592043261,-1,-1,-2,-1,-2,-1,-1,0
1517188592043261,0,-1,0,-2,-1,0,-1,0
1517188592058311,-2,0,-2,0,-1,0,-2,0
1517188592058311,-2,-2,-1,-2,-1,1,-1,0
1517188592060275,-2,-2,-2,-3,-1,-2,-1,-2
1517188592060275,0,-1,0,-1,-2,-2,-2,0
1517188592080297,-2,-1,-1,-2,0,-1,-2,-1
1517188592080297,-3,-1,-2,-1,-2,0,-1,1
1517188592082287,-1,-1,-2,-2,-1,-2,-1,-2
1517188592082287,-1,-1,-2,-2,1,0,-1,-1
1517188592094362,2,-1,1,-2,0,0,0,-1
1517188592094362,-2,-2,-1,0,-1,-3,-2,0
1517188592103302,0,0,0,0,-2,1,1,0
1517188592103302,-1,-3,-2,-1,-2,-3,0,-2
1517188592118328,-2,-1,0,-1,-4,-1,1,-1
1517188592118328,0,-2,0,-2,-1,0,0,-3
1517188592120315,0,-2,1,-2,-1,0,-2,-1
1517188592120315,-3,0,-2,-1,-1,0,-1,-1
1517188592140350,-3,-2,-3,-1,-1,-2,0,-3
1517188592140350,1,0,0,-2,-2,-2,-2,-2
1517188592142330,1,1,-2,0,-1,0,0,-1
1517188592142330,-1,-1,-1,-2,-1,-2,-1,-1
1517188592154363,0,-2,-2,-2,-2,-1,1,-1
1517188592154363,-2,-2,-1,1,0,-3,1,-2
1517188592163344,-3,-2,1,0,1,-1,-1,1
1517188592163344,-1,-1,-2,0,0,-2,-1,1
1517188592178379,-1,-2,-3,0,-2,-2,-2,0
1517188592178379,-1,0,-1,-2,-2,1,-1,0
1517188592180357,-2,-1,-1,-1,-1,2,-3,0
1517188592180357,-2,-2,-1,0,-1,0,-1,-1
1517188592200371,0,-1,-1,-2,0,0,-2,0
1517188592200371,-1,-1,-1,0,-1,-2,-2,-3
1517188592202372,1,0,-2,-1,0,-2,-1,0
1517188592202372,-2,0,-3,-1,0,0,-1,-1
1517188592214381,-1,0,-2,-1,-1,0,-1,-1
1517188592214381,-1,-1,-3,-1,-1,0,-1,0
1517188592223387,-2,-1,-1,-2,-2,2,-1,-3
1517188592223387,-1,-1,-1,0,-2,-3,0,-1
1517188592238398,0,-1,-1,1,-1,-1,0,0
1517188592238398,-3,-3,-2,-2,-2,0,-2,-2
1517188592240415,-1,-3,0,0,-3,-3,-1,0
1517188592240415,-1,0,0,-2,0,0,0,-1
1517188592260417,-2,0,1,-2,-1,-1,-2,-1
1517188592260417,1,0,0,-1,0,-1,2,2
1517188592262416,-1,0,-2,-1,-2,-3,-2,-2
1517188592262416,-1,-1,-1,-2,0,1,1,-2
1517188592274446,0,1,-4,-1,0,-1,1,-1
1517188592274446,-2,-2,1,1,-2,-1,-2,0
1517188592283430,-1,-2,-1,-1,0,-1,1,0
1517188592283430,-1,-2,-1,0,-2,-4,-2,-2
1517188592298450,-1,0,-1,-1,-1,-2,-2,-1
1517188592298450,-2,0,-4,-4,-1,-2,-4,-2
1517188592299451,-2,-1,0,0,-1,0,1,-1
1517188592299451,0,-1,0,1,-3,-1,-4,-2
1517188592320471,-3,-1,-1,-1,-1,-1,-1,-2
1517188592320471,-1,0,-2,-1,-1,-1,0,-2
1517188592322457,1,-1,-2,-1,-1,1,-4,0
1517188592322457,0,-3,-1,-2,-3,-2,-2,-1
1517188592343530,0,-2,-1,-1,-1,-2,-1,0
1517188592343530,-1,-1,0,0,1,0,-1,0
1517188592344499,0,2,-2,-2,-2,-2,-1,-2
1517188592344499,-2,-1,-2,0,0,2,2,1
1517188592358490,0,-2,0,0,0,-1,-4,-1
1517188592358490,0,0,-3,-2,-3,-2,-1,0
1517188592359503,0,0,-1,-1,-1,0,0,-1
1517188592359503,-2,-1,-2,0,0,0,-2,-1
1517188592380499,-2,-1,-3,-1,-2,-1,1,-1
1517188592380499,-1,1,1,-1,-1,1,0,-1
1517188592382501,-2,-1,0,0,-1,-1,-1,-1
1517188592382501,0,-1,-3,-2,1,-2,-1,-1
1517188592403524,-2,-3,0,-2,-3,2,-2,-2
1517188592403524,-1,-1,-1,-2,0,-3,-3,0
1517188592404525,-1,-2,0,0,-2,-3,-1,0
1517188592404525,0,0,1,0,-1,0,-1,1
1517188592418545,1,0,-1,0,-1,-1,-1,-1
1517188592418545,1,1,-1,-1,-1,2,-1,0
1517188592419548,-3,-2,1,-2,-1,1,-1,-1
1517188592419548,-1,0,0,-2,-1,-2,-2,0
1517188592440611,0,-2,-2,-2,-3,-2,0,0
1517188592440611,-2,-1,-1,-2,-3,-1,0,-1
1517188592442593,0,1,-2,-1,-2,1,1,-2
1517188592442593,-1,0,0,1,-1,0,-1,-1
1517188592463607,-1,0,0,1,-1,-1,-1,0
1517188592463607,-1,0,0,0,1,0,1,-2
1517188592464608,-1,-1,-1,-2,-1,-2,0,-2
1517188592464608,-1,-2,1,-1,-1,-1,-1,-1
1517188592477626,-1,-2,-1,-1,-1,1,0,-1
1517188592477626,-2,-1,-3,0,-2,-3,-1,-2
1517188592484622,-1,-2,-2,-2,-1,-2,-1,-1
1517188592484622,0,1,-1,-1,-1,-1,0,-2
1517188592500690,-1,1,-3,-1,-1,-1,-1,1
1517188592500690,-2,-2,-1,0,1,-2,-3,-1
1517188592502709,0,0,0,-1,-2,-1,-1,-1
1517188592502709,0,-1,-3,-1,-2,-2,-1,-1
1517188592523727,-2,-1,1,-2,0,-1,1,-2
1517188592523727,0,-1,0,0,-2,0,-3,-2
1517188592524707,0,-1,0,0,-1,-2,-2,0
1517188592524707,-1,-2,-1,-2,-2,-2,0,1
1517188592537735,-2,0,1,-2,-2,-2,-3,-1
1517188592537735,0,-1,-1,-1,1,-1,-2,-1
1517188592544743,-1,-1,0,0,-2,0,-2,-2
1517188592544743,-1,0,-2,-1,-3,-2,0,-2
