timestamp,emg1,emg2,emg3,emg4,emg5,emg6,emg7,emg8
1517205891666969,0,-1,-1,0,0,0,-2,0
1517205891666969,-2,-2,-1,-2,-2,-3,-1,-1
1517205891667472,0,-4,0,-2,-3,-2,0,0
1517205891667472,-1,-1,-2,-1,0,0,-1,-2
1517205891689491,0,-3,-1,-2,-1,-3,0,-1
1517205891689491,-1,0,0,1,-1,-2,0,-1
1517205891689991,-1,-1,-2,-2,0,0,1,-2
1517205891689991,-1,-1,-1,-1,-2,0,0,-1
1517205891712002,-1,-1,-1,0,-1,0,-2,-1
1517205891712002,-1,0,-2,-2,-1,0,-1,-1
1517205891712502,-1,-1,0,-1,-1,-3,0,0
1517205891712502,-2,-1,-3,0,-1,0,-1,-1
1517205891727014,-2,-1,-2,-1,1,-1,-1,0
1517205891727014,0,-3,-1,0,-3,0,-1,-2
1517205891727513,-1,-2,-2,0,-1,-1,-1,-1
1517205891727513,-1,1,0,-1,-1,0,-2,-3
1517205891749069,-2,0,-1,0,-2,-3,-2,0
1517205891749069,-1,1,0,0,0,0,-1,1
1517205891750042,-1,-1,-1,0,-1,-3,-3,-2
1517205891750042,-2,-2,0,-2,-2,-2,-1,-2
1517205891763538,-1,0,-2,-1,-2,-2,-1,-1
1517205891763538,-1,-1,-1,-3,0,-2,-1,0
1517205891764539,-1,-3,-1,0,-2,-2,-3,-1
1517205891764539,0,0,-2,0,0,-1,1,0
1517205891787056,-1,-1,-1,0,-2,-2,-2,-1
1517205891787056,0,-1,-2,-1,2,1,0,0
1517205891787555,-1,0,-3,-2,-1,-1,0,1
1517205891787555,-1,-3,0,-2,-1,-1,-3,-1
1517205891809070,-1,-2,-2,-4,-1,1,-2,-1
1517205891809070,-1,-2,-1,0,-1,-1,-1,0
1517205891810071,-2,0,-1,2,0,-1,0,0
1517205891810071,-2,-1,0,0,-2,-2,0,-1
1517205891823580,-1,-1,-2,1,0,1,-1,-2
1517205891823580,-2,-1,1,-3,-2,0,-4,-3
1517205891824581,0,-1,0,-1,0,-1,-2,-2
1517205891824581,-1,0,-1,0,0,-1,0,-1
1517205891846596,-1,-2,0,-2,-1,0,-2,-1
1517205891846596,-1,-1,-2,-1,0,-1,0,-1
1517205891847597,-2,-2,-2,-1,-1,-1,-1,-1
1517205891847597,0,-2,-2,-1,0,1,0,0
1517205891876118,-2,-1,-1,-3,0,0,-2,-2
1517205891876118,-2,-2,-1,1,-1,-1,-1,-2
1517205891877801,0,-2,-2,0,-2,-1,1,0
1517205891877801,-2,0,-1,-2,-2,-1,-1,-1
1517205891883802,-2,-1,0,-1,-2,-2,-1,-1
1517205891883802,0,-2,-1,0,-4,-3,-4,-1
1517205891884306,-2,-1,-1,-2,-1,-3,0,-1
1517205891884306,-1,0,-3,-1,-2,-1,0,1
1517205891906836,0,0,1,1,1,-1,2,-1
1517205891906836,-1,-1,-1,-1,0,-2,-1,-2
1517205891907821,-1,0,-1,-2,-1,-1,-1,-3
1517205891907821,-1,-1,-2,-1,-1,-1,-2,-2
1517205891929336,0,-1,-2,0,-1,-1,-1,-1
1517205891929336,-1,-3,-1,-1,1,0,0,-2
1517205891929835,-2,-1,-1,-2,-1,0,-1,-1
1517205891929835,-2,-2,-2,-1,0,-1,0,-1
1517205891943854,-1,-1,-3,-2,-1,0,1,2
1517205891943854,0,-2,-1,0,-1,-1,-2,1
1517205891944352,-1,-3,0,-2,-1,-1,0,-1
1517205891944352,-1,-3,1,0,-2,0,-1,-1
1517205891966864,-2,-2,-2,-1,-1,-1,-1,-1
1517205891966864,0,1,-1,0,-2,-1,0,0
1517205891967362,-1,-1,-2,-1,-2,-1,-2,-1
1517205891967362,1,-1,-2,-2,-2,-1,-2,-1
1517205891989377,0,-3,-1,-2,0,0,-2,-2
1517205891989377,-1,0,0,-2,-1,-1,0,-1
1517205891989878,-1,-1,-2,-1,0,0,-2,-3
1517205891989878,0,-1,-1,1,-1,0,0,-1
1517205892002888,-1,0,-2,1,-2,-1,-1,-2
1517205892002888,-1,-1,-2,-1,-2,-2,0,-1
1517205892011893,-1,-2,-2,-1,0,0,1,0
1517205892011893,-2,0,0,0,0,-2,-1,-1
1517205892034440,-1,1,-1,-3,-1,-1,-1,-2
1517205892034440,0,-3,-1,-2,-2,0,-1,-2
1517205892035941,0,0,-2,0,-2,-2,-2,0
1517205892035941,-1,-4,-1,-1,-2,-1,0,0
1517205892049450,0,-2,0,0,-2,-1,-1,-2
1517205892049450,-2,-1,-2,-1,0,-1,-1,-2
1517205892050965,-1,2,2,-1,-1,-2,0,0
1517205892050965,0,-5,-2,-1,-2,-1,0,1
1517205892062972,-2,-1,-1,0,-2,-3,-1,-1
1517205892062972,-2,-3,0,-1,-1,-1,0,0
1517205892071966,-1,-2,1,-1,-1,-1,-2,-2
1517205892071966,1,2,-2,-3,-1,-1,-1,-1
1517205892102019,-2,-6,-1,0,0,0,0,-1
1517205892102019,-2,2,2,-1,-2,-2,-1,-1
1517205892103521,1,3,-2,1,-2,-1,0,-1
1517205892103521,0,1,2,-2,0,0,-2,-1
1517205892109024,-2,-6,-5,-1,0,-1,-2,-2
1517205892109024,-1,-1,-2,-1,-1,-2,-1,-2
1517205892111025,0,0,-1,-1,-1,-2,-1,0
1517205892111025,0,-3,0,1,-1,0,-2,-2
1517205892123034,-3,-2,0,-2,-3,-3,0,-2
1517205892123034,0,0,-2,0,0,0,-1,-1
1517205892132053,0,-3,-3,-4,-1,-1,1,-2
1517205892132053,0,-2,-1,-1,-1,-4,-1,-2
1517205892146569,0,1,-1,-1,-2,-3,0,-2
1517205892146569,0,2,0,-1,-1,-1,-1,0
1517205892148567,-3,-21,-3,-1,-1,-1,-1,0
1517205892148567,-3,0,-3,0,-1,-1,0,-2
1517205892169072,-1,1,1,-1,-2,-1,0,-2
1517205892169072,0,-2,-1,0,0,-1,-2,-2
1517205892171088,0,3,1,0,1,1,-1,0
1517205892171088,0,0,-1,-2,-3,-1,-1,-2
1517205892183079,-1,1,-1,0,-2,1,0,-2
1517205892183079,-3,-1,-1,-2,-1,-1,-1,-1
1517205892192087,0,1,-2,-1,0,-1,-2,0
1517205892192087,-2,-1,-2,-2,-1,-1,-1,-2
1517205892206612,-1,0,0,-3,-1,0,0,-1
1517205892206612,-1,-1,-2,0,-2,-2,0,-1
1517205892208614,-2,2,-1,-2,-1,-2,-1,-1
1517205892208614,-2,-2,0,-2,-1,-1,-1,-1
1517205892229629,1,0,-1,-1,1,1,-3,0
1517205892229629,-2,-2,-3,-1,-2,-1,0,-3
1517205892231615,-1,-1,-1,0,-2,-1,-2,-3
1517205892231615,0,-1,-2,0,-1,-2,-1,1
1517205892251628,1,1,0,-1,1,1,-1,0
1517205892251628,-1,-1,-2,-2,-1,-2,-2,-1
1517205892253627,-1,3,0,0,-1,0,0,-2
1517205892253627,0,0,-1,0,-1,-1,-1,-1
1517205892266647,-2,0,-2,-2,-2,-1,0,-1
1517205892266647,-1,-1,-2,-2,-1,-1,-1,0
1517205892268639,-2,0,-1,-1,0,-2,0,-2
1517205892268639,-1,0,-1,-1,0,-2,-1,0
1517205892289165,-1,-1,-1,-1,-1,-2,-2,-2
1517205892289165,1,-2,-2,-2,-1,0,-1,0
1517205892290654,0,0,-1,-1,0,-2,-1,-1
1517205892290654,0,-2,-1,-2,-1,-2,0,0
1517205892303162,-1,2,-1,0,-1,-2,0,1
1517205892303162,0,-2,-1,-2,-1,-1,0,-1
1517205892319177,0,0,-1,-1,-3,0,-2,0
1517205892319177,-2,0,-1,-1,0,-1,-2,-2
1517205892326693,-2,-1,0,-1,-1,-1,-2,0
1517205892326693,0,-1,0,-1,-2,-1,1,-2
1517205892328180,-1,-2,-2,-1,0,-1,0,-1
1517205892328180,0,0,-1,0,0,1,-1,-1
1517205892349258,0,0,-2,-2,-2,-2,-1,0
1517205892349258,-1,-2,-1,0,-1,-1,0,0
1517205892350744,-1,-1,0,-1,0,-1,-1,-1
1517205892350744,-2,-2,0,-2,-1,0,0,0
1517205892362775,1,-3,-1,1,1,0,-1,0
1517205892362775,-2,-2,-1,-2,-3,-4,-3,1
1517205892371759,-1,0,-1,-1,-2,0,-1,-1
1517205892371759,-1,-2,-2,0,-2,-1,-2,-2
1517205892386771,-3,0,0,-1,-1,1,0,-1
1517205892386771,-1,-2,-3,-1,0,-2,0,0
1517205892388271,-1,-2,-1,-2,-2,-2,-2,-1
1517205892388271,-1,-1,-2,-1,-1,0,-1,0
1517205892409285,-2,-1,-1,-2,0,-2,1,-1
1517205892409285,0,-1,-1,-2,0,1,-1,-1
1517205892410786,-1,-1,-3,-1,-2,0,-3,-2
1517205892410786,-1,0,0,-1,-1,-1,0,-2
1517205892422862,0,-4,-2,0,-4,-2,0,0
1517205892422862,0,-2,-1,1,1,1,-1,-1
1517205892431911,-1,-1,-1,-1,-2,-2,-1,0
1517205892431911,-1,-1,0,-2,-1,-2,-1,-1
1517205892446900,0,-1,0,-1,0,-1,-3,-1
1517205892446900,-1,-1,1,-2,0,1,0,-1
1517205892448413,-2,-1,-1,0,-1,-2,-1,-2
1517205892448413,0,-1,0,-2,-1,0,-1,-1
1517205892469414,0,0,-1,0,-2,-2,1,-1
1517205892469414,-1,0,0,1,-1,0,-2,-2
1517205892470915,-2,0,0,-1,1,-1,0,0
1517205892470915,-1,-1,-2,-1,-2,-1,0,-1
1517205892482945,0,0,-1,-1,-2,0,0,0
1517205892482945,-1,-3,-2,-2,-1,-1,-2,-1
1517205892491930,-1,-2,-3,-1,-1,-2,-1,-1
1517205892491930,-2,0,0,1,-2,-1,-1,1
1517205892506940,-3,-2,-1,-1,-1,-1,-2,-1
1517205892506940,-2,-2,-2,-1,-1,-2,-1,-1
1517205892512998,-1,0,-1,-1,0,-1,-1,-2
1517205892512998,-2,-2,-1,0,-2,-1,-1,-2
1517205892529497,-1,-2,-3,-2,-2,-1,-1,-1
1517205892529497,0,0,0,-3,-1,-1,-2,-1
1517205892530991,0,0,0,-1,-1,-3,-1,0
1517205892530991,0,-2,-1,-2,-3,-1,-2,0
1517205892551972,-2,-2,-2,-2,0,-1,-1,-2
1517205892551972,-3,-1,-2,-2,-3,-2,-3,0
1517205892553474,0,0,0,-1,-1,1,-1,-1
1517205892553474,0,0,-2,-1,-1,-1,-2,0
1517205892567483,-1,0,-1,-1,-1,-1,-2,0
1517205892567483,-1,0,0,0,1,-2,-1,-1
1517205892568985,-2,-1,-2,-1,-1,0,0,-1
1517205892568985,0,-1,-2,-1,0,0,-1,-1
1517205892589498,0,-1,-1,-2,0,1,-2,-1
1517205892589498,0,-2,-1,-1,-2,0,1,-1
1517205892591000,-2,-1,-1,0,-3,-1,0,-2
1517205892591000,1,-1,0,-1,0,-2,0,-3
1517205892611515,-2,-2,-1,1,-1,-2,0,-1
1517205892611515,0,-3,-4,-3,-2,0,-2,-1
1517205892613525,-2,-1,0,-1,-2,0,-1,1
1517205892613525,-3,-2,-2,-3,-1,-2,1,-2
1517205892626525,-1,-1,0,0,-2,0,0,-1
1517205892626525,-2,0,-1,1,-1,-2,0,0
1517205892628526,-1,-2,-1,-2,-1,0,-1,1
1517205892628526,-1,-1,-1,-1,-2,0,-1,0
1517205892649041,1,0,-1,-2,-1,0,-1,-1
1517205892649041,-2,0,2,0,1,-1,1,-1
1517205892651042,0,-2,-2,0,0,0,1,-1
1517205892651042,-2,-1,-1,0,-1,-1,-2,0
1517205892679065,-3,-1,-1,-3,-1,-3,-2,-2
1517205892679065,-1,-1,-2,0,-1,0,-1,-1
1517205892681063,0,-1,-1,-1,1,0,-1,-1
1517205892681063,-2,-2,-3,0,-1,0,-2,-1
1517205892686569,-2,-1,-1,0,-2,-3,-1,-1
1517205892686569,0,-1,-1,-1,-2,-2,-1,-1
1517205892688568,-1,-1,0,-2,-1,-1,-1,-2
1517205892688568,-2,-2,-1,-1,-1,1,0,-2
1517205892709083,-1,0,0,-2,-1,-1,-1,-2
1517205892709083,0,0,0,-1,0,-2,0,-1
1517205892711084,-2,-1,-2,-1,-2,0,-1,-1
1517205892711084,-1,-1,0,0,-1,0,-2,-1
1517205892731613,0,-1,0,-2,-1,-2,-1,0
1517205892731613,-3,-3,-2,-1,0,1,-1,-2
1517205892733600,0,-1,-1,-1,-2,-2,-2,-2
1517205892733600,-1,1,-2,-1,-1,-1,1,-1
1517205892746109,-1,-1,-2,-2,0,-1,0,0
1517205892746109,-1,-1,-1,-1,-2,-2,0,0
1517205892753114,-1,-1,-3,1,-2,-1,0,-1
1517205892753114,-1,2,0,0,0,-2,-1,-1
1517205892769125,-1,-1,-1,-1,-1,0,-1,-3
1517205892769125,-2,0,-1,-1,0,0,0,1
1517205892770628,-1,-2,-1,-1,-1,0,-1,-2
1517205892770628,-1,-1,0,-2,0,-1,-2,-1
1517205892792141,0,-2,-3,1,0,0,0,0
1517205892792141,-1,-1,-1,-1,-1,-1,-1,0
1517205892793644,0,1,-1,-1,-1,-2,0,-1
1517205892793644,-1,-2,-2,-1,-2,-1,0,-2
1517205892806184,-1,2,-2,-1,-3,-3,-2,-1
1517205892806184,-1,-2,-1,-2,-2,-1,-2,-1
1517205892812694,0,-2,0,-2,-2,0,-1,0
1517205892812694,0,-2,0,-2,-2,-1,-1,-1
1517205892829247,-1,-2,-2,-1,-1,-1,0,0
1517205892829247,0,0,-1,-1,-1,-2,-1,0
1517205892830709,-1,0,-2,-1,-1,-1,-1,0
1517205892830709,-1,-1,-1,-1,-1,-2,1,0
1517205892851732,-1,-1,0,-1,-1,-1,-2,-1
1517205892851732,0,-2,-3,-1,-2,-1,-2,-2
1517205892853220,-2,1,1,-2,-1,-2,-2,-3
1517205892853220,-2,-1,-1,0,0,-1,0,0
1517205892866228,-1,-1,-2,-2,-1,-1,-3,-1
1517205892866228,-1,0,-2,-1,-1,-2,-2,-1
1517205892872745,-3,-1,-1,0,-1,0,-1,-1
1517205892872745,0,-3,-2,-2,0,-3,-1,-1
1517205892896814,-1,-1,-1,-1,0,-1,-2,-2
1517205892896814,-1,-2,1,-1,-1,0,0,-1
1517205892898260,-1,0,-2,-2,-1,-2,-1,-3
1517205892898260,-1,-1,-1,-2,1,0,-1,0
1517205892918266,-1,0,-2,1,0,0,-1,0
1517205892918266,-1,-1,-1,-1,-2,0,-1,-1
1517205892928275,0,-1,-1,-2,-1,-1,0,0
1517205892928275,0,-2,-1,-1,-2,-1,-2,-1
1517205892929275,-1,-1,-1,1,-1,-1,1,-2
1517205892929275,-1,0,0,0,-1,1,0,0
1517205892932796,1,-1,-1,-1,-1,-1,0,-1
1517205892932796,-1,-1,-2,-1,-1,0,0,-1
1517205892949287,-1,-1,0,-1,-1,0,-2,-1
1517205892949287,-1,-1,0,-3,0,-2,0,0
1517205892955292,-1,-2,-1,-2,-2,-1,0,0
1517205892955292,-1,-1,-1,0,-2,-1,0,-1
1517205892971804,-1,-1,-1,-2,-2,-2,-1,-2
1517205892971804,-2,-1,0,0,0,-2,-1,-2
1517205892973305,-1,-1,-2,-1,-1,1,-1,-1
1517205892973305,-1,-1,-1,-1,-3,-1,-2,0
1517205892986314,-2,0,-1,-1,0,0,0,-3
1517205892986314,-1,-1,-2,0,-1,0,-1,-2
1517205892992883,0,-2,0,-1,-1,-2,-1,-1
1517205892992883,0,-1,0,0,0,-1,-1,-1
1517205893009394,-1,-2,0,0,-1,0,0,-1
1517205893009394,0,-2,-1,-1,-2,-1,-3,-2
1517205893010889,-2,-2,-2,-1,-1,-2,-1,-1
1517205893010889,-1,-2,-3,-2,0,-1,-2,-3
1517205893039456,0,-1,-2,-3,-1,-3,1,1
1517205893039456,0,-1,0,0,-2,0,-2,-1
1517205893040896,0,0,0,-1,0,0,0,-1
1517205893040896,-1,-2,-2,-2,-1,-2,-1,-2
1517205893045463,-2,0,-1,-1,-1,1,-2,-1
1517205893045463,-1,1,0,-1,0,-1,-1,-1
1517205893054410,-1,0,-2,-1,-2,-1,0,-1
1517205893054410,1,-2,-2,-1,-1,-1,1,0
1517205893069418,-2,-3,-2,-2,-2,-2,-1,-1
1517205893069418,0,-2,-1,-1,-2,-1,-1,-2
1517205893070918,0,0,0,0,-1,0,-1,0
1517205893070918,-2,-1,-1,0,-1,1,-1,-2
1517205893091947,0,-1,-1,-1,-1,-1,-2,-2
1517205893091947,-2,-1,0,-3,-2,0,-2,-1
1517205893093446,-2,0,-2,-1,-1,-1,-1,-2
1517205893093446,-3,0,-1,0,-1,1,-2,-2
1517205893105463,0,0,-1,-1,-1,0,0,1
1517205893105463,-1,-2,-2,-2,-1,-2,-1,-1
1517205893121953,0,-2,-1,-3,-1,-2,0,-1
1517205893121953,-2,-1,0,0,-1,0,0,0
1517205893128981,0,-1,0,-2,-2,-3,-3,-1
1517205893128981,0,-1,0,0,1,-1,-1,-1
1517205893130971,-1,-2,-1,0,-1,-1,-2,-1
1517205893130971,-1,-1,-2,-2,-1,-2,-1,0
1517205893151975,-2,0,-1,-2,-2,0,0,0
1517205893151975,-1,-1,-1,0,-1,-1,0,-1
1517205893153479,-1,-2,-1,0,-1,-2,-2,-1
1517205893153479,-2,0,0,-1,0,0,-1,-2
1517205893165489,-3,-1,-2,-1,0,0,-1,-1
1517205893165489,-1,-1,-2,-1,-1,0,-2,-1
1517205893180495,-2,0,-1,0,-1,-1,-1,0
1517205893180495,1,0,-1,-1,-2,-3,-2,1
1517205893188501,0,-2,-1,-1,-2,-4,-1,-1
1517205893188501,-1,-1,-1,-1,-1,-1,1,-1
1517205893197006,1,-1,-1,-1,0,0,-1,-1
1517205893197006,-2,-2,-1,-1,-2,-1,-1,0
1517205893211516,-3,-1,0,0,0,-1,-1,-1
1517205893211516,-2,-1,-2,-1,-1,-1,0,0
1517205893213588,-1,-3,-1,-1,0,0,-1,1
1517205893213588,0,1,0,-3,-1,-2,0,0
1517205893225599,-1,-1,-2,-1,0,-2,-1,-1
1517205893225599,-2,0,-1,-1,-2,-1,0,-2
1517205893234606,-1,-1,-2,-1,0,-1,-1,-1
1517205893234606,0,0,0,0,-2,-1,0,-2
1517205893248626,1,-1,-1,1,-1,0,0,-1
1517205893248626,-1,-2,-1,-1,-1,-3,0,2
1517205893257132,-1,0,-2,-2,-2,-2,-1,0
1517205893257132,-2,-3,-1,0,-1,-3,-1,0
1517205893271636,-1,-1,-1,0,-1,-1,0,-2
1517205893271636,-1,-2,0,-1,-1,-1,-2,-1
1517205893273637,-3,-1,0,-1,-2,-1,-3,-1
1517205893273637,-1,-2,-2,-1,-2,0,-2,-2
1517205893285643,-1,-1,-1,-2,1,-2,0,1
1517205893285643,0,0,-1,0,-1,-1,-2,0
1517205893294164,1,-1,0,-1,-3,-2,-2,-1
1517205893294164,-1,-2,-2,-2,-1,-1,-1,-3
1517205893308185,-2,-2,-1,-2,-3,0,0,-1
1517205893308185,-1,-1,-2,-1,-1,-1,0,-3
1517205893316665,-2,-2,-2,0,-1,-2,-2,-2
1517205893316665,-1,-1,-2,-2,-1,0,-1,2
1517205893332063,0,-1,-2,-1,-2,-1,0,0
1517205893332063,-2,0,0,-2,-2,-2,-1,1
1517205893333564,-2,0,-1,-2,-1,-1,0,-3
1517205893333564,-1,-1,-2,0,-1,0,-1,-1
1517205893345572,-1,-1,-2,-2,0,-1,-2,-1
1517205893345572,0,-1,-1,-1,-2,-2,-2,1
1517205893354579,0,0,-2,-1,-1,-3,-1,-1
1517205893354579,-2,0,-2,-2,-2,-3,-1,-2
1517205893384100,-1,-1,-1,-3,-2,-2,0,0
1517205893384100,-2,-2,-1,0,-1,0,0,-2
1517205893386082,-3,-1,-1,-1,0,-1,0,0
1517205893386082,0,-1,-1,0,0,-1,-1,-1
1517205893391584,0,1,-1,0,-1,0,-3,-1
1517205893391584,0,0,-2,-2,-1,-1,0,-1
1517205893393586,-3,-1,-2,-3,-2,-3,0,-2
1517205893393586,-1,-1,0,0,0,-1,1,0
1517205893405594,-2,-1,0,-1,-1,-2,-2,-1
1517205893405594,-1,-1,0,0,-1,-2,0,-2
1517205893414611,0,-2,-1,-1,-1,0,-2,-1
1517205893414611,0,1,-1,-2,-1,-1,-1,-2
1517205893429133,-1,-1,-2,0,-1,-2,-1,0
1517205893429133,-1,-1,-2,-1,0,-1,-1,0
1517205893431113,0,-2,-2,-2,-2,0,-1,0
1517205893431113,0,-2,-1,-1,0,-1,-1,-1
1517205893451697,-1,-1,-1,0,-1,-1,0,0
1517205893451697,-1,-2,-2,-1,-1,-1,0,-2
1517205893453196,-1,-1,0,1,0,2,-1,-2
1517205893453196,-1,-1,-1,-1,-2,-1,0,-1
1517205893474226,-3,-1,-2,-2,-2,-1,-2,-3
1517205893474226,-2,-3,-1,-2,-2,-2,-2,-1
1517205893475714,0,1,-1,-1,1,-2,-2,0
1517205893475714,-2,-1,-1,-1,0,-1,0,0
1517205893489221,0,-2,-1,0,-2,-1,-2,-1
1517205893489221,-3,-1,-2,-1,-1,0,-1,-2
1517205893490733,-2,-1,-1,-2,-2,-1,0,-2
1517205893490733,0,-1,-2,1,-1,1,-1,-1
1517205893511781,0,-2,-1,-2,-1,-1,-2,-2
1517205893511781,-3,0,-2,0,1,-1,-1,-2
1517205893513242,0,0,-1,-1,-1,-1,1,1
1517205893513242,0,0,-1,-1,-1,-1,-3,-2
1517205893534255,-2,-1,-1,0,1,0,0,-2
1517205893534255,0,0,-1,-2,-2,-3,-1,1
1517205893536255,0,1,-3,0,-1,0,-2,0
1517205893536255,-1,-1,0,-1,-4,-2,-2,-1
1517205893549287,0,0,-1,-1,-1,0,0,-3
1517205893549287,0,0,-1,-1,-1,0,-1,-1
1517205893550768,-2,-3,1,-2,-1,-2,0,-1
1517205893550768,-2,-1,-2,-1,-1,0,0,-1
1517205893571792,-3,-3,-2,0,-1,-2,-1,1
1517205893571792,0,-1,-2,-2,-2,-2,-1,0
1517205893573285,0,0,0,-1,0,-1,0,-1
1517205893573285,-1,-3,0,1,-1,0,-1,1
1517205893594308,-1,0,-2,-1,-1,-3,-1,-1
1517205893594308,-1,-2,-1,-1,-2,0,0,-2
1517205893595801,-1,-1,-1,-1,-2,-2,-2,0
1517205893595801,-2,1,-1,-2,-1,1,-1,-2
1517205893609385,1,0,-1,-3,-1,-1,0,0
1517205893609385,0,1,0,-1,1,-1,-1,0
1517205893610885,-2,0,-1,-1,-1,-1,0,-1
1517205893610885,-1,-1,-1,0,0,-1,-1,-1
1517205893631396,0,-1,0,-2,-1,-2,-1,-1
1517205893631396,0,-4,-1,0,-2,-1,-2,-1
1517205893633412,1,-2,-2,-1,-1,-1,-2,-1
1517205893633412,0,0,-1,-1,-1,-1,0,1
1517205893654413,0,-1,-2,0,-1,0,0,0
1517205893654413,0,0,-1,-2,0,-2,-1,0
1517205893655914,-2,0,-2,1,1,1,-2,0
1517205893655914,-2,-2,-1,-3,-1,-2,-1,-2
1517205893669931,-1,-2,0,-3,1,2,0,0
1517205893669931,0,-2,-1,-1,-1,0,-1,-1
1517205893670925,-1,-2,-1,0,0,-2,-2,0
1517205893670925,-1,-1,-1,0,-2,-1,-2,-1
1517205893691457,-2,1,-2,0,-1,-1,0,-1
1517205893691457,-2,0,0,-1,0,-1,-2,-1
1517205893693460,-1,-2,-2,-2,-2,-2,0,-2
1517205893693460,-1,-2,1,0,-1,-2,-1,0
1517205893714456,-2,-1,-2,-1,-1,-1,-2,-1
1517205893714456,-1,1,0,1,-1,2,0,0
1517205893715957,0,0,-1,0,-3,0,0,-3
1517205893715957,0,-2,-1,0,-1,0,-1,0
1517205893729029,-1,-2,1,0,-3,-3,-1,-3
1517205893729029,-1,-2,-1,-2,-2,-2,-1,1
1517205893735523,-2,-2,0,-1,-2,-2,-1,-2
1517205893735523,-2,-1,-3,-1,-2,-1,-1,-2
1517205893759095,0,-2,1,-2,-3,-1,-2,0
1517205893759095,-4,-2,-2,-1,-1,0,-2,-2
1517205893761096,-1,-1,-1,0,-1,-1,0,1
1517205893761096,0,-1,0,-1,1,-1,-1,-2
1517205893774128,-1,-1,-1,-2,-1,1,-1,1
1517205893774128,-1,-2,-1,-2,-2,-1,1,-2
1517205893776118,-2,-1,0,-1,-2,0,-2,-1
1517205893776118,-1,-2,-2,-1,0,-2,-1,-3
1517205893788617,-1,-3,-1,1,-1,-1,-2,-1
1517205893788617,0,-1,1,-2,0,0,0,-1
1517205893795621,-1,-1,-1,-2,0,1,-1,-1
1517205893795621,-1,0,0,-2,-1,0,1,0
1517205893819179,-1,-1,-2,-2,0,0,0,0
1517205893819179,-2,-1,-2,-1,0,-2,-2,-2
1517205893820682,-1,-1,-2,0,-2,0,1,-3
1517205893820682,-2,-1,0,0,0,-1,-2,-3
1517205893834207,-1,-3,-2,-2,0,-1,-1,-1
1517205893834207,1,-1,-1,0,-3,-1,-1,0
1517205893836192,0,0,-1,0,-3,-2,-2,-1
1517205893836192,-1,0,0,0,-2,-1,0,0
1517205893856704,-1,0,0,-2,-2,-1,0,-1
1517205893856704,-1,-1,-1,-2,-1,-1,-2,-1
1517205893858206,-1,-2,-1,-1,0,-3,-2,1
1517205893858206,-1,0,-1,-2,-2,0,-1,-1
1517205893872228,-1,-1,-1,0,-1,-2,-2,0
1517205893872228,-3,-2,-1,1,-2,-1,0,-1
1517205893873729,-2,-1,-1,-1,-1,0,-1,0
1517205893873729,-1,-1,-1,-1,-1,-1,-1,0
1517205893894258,0,0,-1,1,-1,-2,0,-2
1517205893894258,0,0,-1,-2,-1,0,-1,-1
1517205893895735,-1,-2,-1,-2,0,-1,-1,-1
1517205893895735,-1,-1,-1,-1,0,-2,-3,-1
1517205893908311,-1,-2,-1,-1,-2,0,0,-1
1517205893908311,0,0,0,-2,-1,-3,-1,-1
1517205893922867,-1,-1,1,0,-1,-2,0,0
1517205893922867,2,-1,-3,0,-1,0,-1,0
1517205893931890,-1,-2,-1,0,-1,2,-1,-1
1517205893931890,-1,0,-2,-1,-2,0,-1,-1
1517205893933373,0,-1,-1,-3,-1,-1,-2,0
1517205893933373,-2,0,0,-2,1,-2,-1,0
1517205893954906,-2,0,1,0,-1,-1,-1,-1
1517205893954906,-1,-2,-2,0,0,-2,-1,-2
1517205893956407,-1,-2,-3,-1,-1,1,0,0
1517205893956407,0,-1,0,-2,-3,-2,1,-2
1517205893968396,-1,-1,-2,-2,0,-2,-1,0
1517205893968396,-2,-2,-1,-1,-1,-2,-2,0
1517205893975421,-2,0,0,0,-1,-1,0,-1
1517205893975421,-1,0,-1,-1,0,0,-1,0
1517205893991921,-3,-1,-1,-2,-1,-1,-1,0
1517205893991921,-2,0,0,-1,-1,-1,-1,-1
1517205893993412,-1,-3,-1,-2,-2,-4,-1,-1
1517205893993412,0,0,-1,0,-2,-1,0,-3
1517205894014442,-1,-1,-2,1,0,-1,2,-1
1517205894014442,1,0,-2,1,0,-2,0,1
1517205894016453,-2,0,-2,0,-1,-1,-2,-1
1517205894016453,-2,-2,0,-2,-2,-3,-1,-1
1517205894027977,0,-1,-2,-1,0,-2,-4,-2
1517205894027977,0,-2,-2,-1,-1,0,-1,-1
1517205894036969,-1,-1,-1,0,-1,-1,0,-1
1517205894036969,-1,-1,-1,-1,0,0,0,0
1517205894052480,0,-2,0,-2,-1,0,-1,0
1517205894052480,-2,-1,0,-1,-2,-2,0,-1
1517205894053482,-1,0,0,-1,-1,-1,-1,-2
1517205894053482,-2,-3,-3,0,-1,1,-1,0
1517205894073995,-1,0,-1,-1,-3,0,0,-2
1517205894073995,-1,0,0,-1,0,1,-2,-1
1517205894075997,0,0,-1,-2,-1,-2,-1,-2
1517205894075997,0,-1,-1,-2,-2,-1,-1,0
1517205894088006,-2,0,1,-1,-1,-2,-1,1
1517205894088006,-2,-1,-2,-1,-1,-1,0,-2
1517205894097017,0,0,-2,0,-1,-1,-2,0
1517205894097017,-1,-2,-1,0,0,-1,-2,-1
1517205894111543,-1,-1,-2,0,-1,0,-2,-3
1517205894111543,0,1,-1,1,-1,0,0,-1
1517205894113545,-1,-3,1,-2,-1,0,-1,-2
1517205894113545,-1,1,-2,-1,-1,-2,-2,-1
1517205894134550,-1,-2,0,-4,-2,-3,-1,-1
1517205894134550,-1,0,0,-2,1,-1,0,-1
1517205894136040,-2,-3,-2,-1,-1,-1,-1,-1
1517205894136040,0,-1,-1,-1,-1,0,-1,0
1517205894148050,-1,0,-1,0,-1,-2,-2,-1
1517205894148050,-1,-2,-1,0,-1,-1,-1,-1
1517205894157055,0,0,0,-2,-1,-1,-2,0
1517205894157055,1,0,1,0,-1,-2,1,-1
1517205894171564,0,-1,-2,-1,-1,-1,0,0
1517205894171564,-2,-2,-1,0,-1,-2,-2,1
1517205894173566,0,0,-1,-1,-2,-1,-1,1
1517205894173566,-1,-3,-1,-2,-2,0,-1,-1
1517205894194101,-1,-1,-1,0,-1,2,1,-2
1517205894194101,-1,0,-2,0,-1,0,-2,0
1517205894196103,-1,-1,-2,-1,0,-1,-1,-2
1517205894196103,-3,-1,-2,-3,0,-1,-1,-1
1517205894208096,0,0,-1,-1,-1,-1,-2,-1
1517205894208096,-1,-1,-1,-1,-1,-3,-3,-1
1517205894217098,0,-1,-1,-1,-1,-2,1,-2
1517205894217098,-1,0,-2,-2,-2,0,0,-2
1517205894232126,0,-2,-1,-1,0,-2,-1,0
1517205894232126,-1,-1,-1,-2,-2,-2,0,-3
1517205894234112,-1,-1,0,0,-1,-1,-3,-1
1517205894234112,-3,-2,1,0,-3,-3,-1,-2
1517205894254135,-1,-2,1,-1,-1,0,-2,-2
1517205894254135,0,-3,-1,0,-2,-1,-1,-1
1517205894255628,-1,-2,0,0,-2,-1,-1,-1
1517205894255628,0,-1,-1,-1,0,-1,-3,-1
1517205894268135,-3,-1,-2,1,-1,-1,0,0
1517205894268135,-3,-2,1,-2,0,-1,0,-1
1517205894277140,-3,-1,-1,-2,-1,1,0,-2
1517205894277140,-1,-2,-1,1,0,-1,-1,0
1517205894291654,0,0,-1,-3,1,-1,-1,-1
1517205894291654,-1,-1,-1,0,-1,-1,0,-1
1517205894293651,0,-1,-2,-2,-1,0,-2,-2
1517205894293651,-1,1,-1,-1,0,2,-2,-1
1517205894314167,-1,-3,-2,-1,-2,-2,-3,1
1517205894314167,-2,-1,-1,-2,-2,1,-1,0
1517205894315682,-2,-2,-1,-1,-1,-1,-1,0
1517205894315682,-1,0,0,0,0,0,0,-1
1517205894327675,-1,-2,-1,-1,-1,-1,-1,-1
1517205894327675,1,-1,0,-1,-2,-1,-3,0
1517205894336682,-1,-1,-2,-1,-2,-2,0,-1
1517205894336682,-1,-2,-2,-2,-2,-2,-2,0
1517205894351708,-2,0,-1,1,-1,-1,-1,-2
1517205894351708,-1,1,-2,-2,-1,0,-1,-1
1517205894353194,1,-1,-1,-1,-2,0,-2,-2
1517205894353194,-2,-1,1,0,-1,-2,1,-1
1517205894374223,-3,0,-1,-1,-1,-2,-1,-2
1517205894374223,-1,-3,-1,-2,-2,-2,0,-1
1517205894375724,-2,0,-2,-2,-1,-1,1,-1
1517205894375724,-1,-1,-2,-2,-1,-1,-3,-1
1517205894387719,-2,1,-1,-1,1,-2,0,-1
1517205894387719,-1,-1,-1,0,-2,0,-1,-1
1517205894396726,-2,0,-1,-2,-1,-1,-1,1
1517205894396726,-1,-1,-1,-1,-3,-1,1,0
1517205894419240,-1,-1,-3,0,-1,1,0,-1
1517205894419240,-2,0,-2,-1,0,-1,-2,-1
1517205894420740,1,1,-1,-1,-1,0,-1,-2
1517205894420740,0,-1,-2,-2,-2,-1,0,0
1517205894434250,0,-1,0,-2,-2,-1,0,-1
1517205894434250,-2,-1,-1,1,0,-1,-1,-1
1517205894435752,0,-3,-1,0,-1,-1,-2,-1
1517205894435752,1,1,1,-1,1,-1,-1,-1
1517205894456768,-1,-1,0,0,-1,-1,0,0
1517205894456768,-1,-2,-1,-2,0,-2,-2,-1
1517205894458267,-2,-2,-1,-1,-1,-3,0,0
1517205894458267,-2,-1,-1,0,-1,-2,-2,-3
1517205894471787,-1,0,-1,-1,-1,0,0,0
1517205894471787,-1,0,-1,0,0,0,-1,-3
1517205894473280,-2,-1,-1,0,-1,1,-1,1
1517205894473280,-2,-1,-1,-1,-2,-1,-1,0
1517205894494294,-1,-1,0,-1,-1,0,-1,-1
1517205894494294,1,-2,0,-2,-3,-2,-2,-1
1517205894495796,-2,-1,-2,-3,0,-2,-1,-1
1517205894495796,-1,-2,-2,-1,-1,0,0,-1
1517205894516870,-1,-2,0,-3,-2,-2,-2,-2
1517205894516870,-2,-2,-1,-1,0,-1,0,-1
1517205894518314,-1,-1,0,-2,-1,-1,-1,-2
1517205894518314,0,0,-2,-1,-1,-2,0,0
1517205894532352,0,-2,-1,-1,-2,-3,-3,-3
1517205894532352,0,0,-2,0,-2,0,1,0
1517205894533821,-1,0,-1,1,0,-3,-1,0
1517205894533821,-1,-3,-2,-2,-1,-2,-1,0
1517205894561853,-1,-1,0,-1,-1,0,-1,-2
1517205894561853,-2,-1,-1,-2,-2,-1,-1,-1
1517205894563342,-1,-2,-1,-1,0,-1,-1,-1
1517205894563342,0,-1,-1,-2,0,0,-1,-1
1517205894576852,-1,-2,-1,-1,1,-2,0,0
1517205894576852,-2,-2,-1,-1,0,-2,1,-2
1517205894578353,-2,-2,-1,-1,-2,-1,-1,0
1517205894578353,0,0,-2,-1,-3,-2,0,0
1517205894592363,-1,0,-3,-2,-1,-1,-1,-1
1517205894592363,1,0,-1,0,-1,-1,-1,-2
1517205894593880,-1,-1,-1,0,-1,-1,0,-2
1517205894593880,-1,-3,0,-2,0,0,-2,-2
1517205894613877,-1,-3,0,-1,-2,-2,0,-1
1517205894613877,-3,-1,-2,-1,-1,0,-2,-1
1517205894615878,-1,0,-1,-1,0,1,-1,0
1517205894615878,-1,1,0,-1,0,0,-2,1
1517205894636895,0,-1,0,0,-2,-1,0,1
1517205894636895,-1,0,-3,0,-1,-1,-1,0
1517205894638395,-1,-2,-1,-3,-3,-2,-2,-2
1517205894638395,-2,-3,-1,-2,-1,-1,-3,-1
1517205894650932,0,-2,-1,-1,0,1,-3,-1
1517205894650932,-1,-1,0,0,0,-1,-1,-1
1517205894657910,-1,-1,-1,0,-2,-2,-1,-2
1517205894657910,-2,0,-2,-3,-2,-3,-2,-1
1517205894674446,0,0,-2,-2,-1,1,-2,-2
1517205894674446,0,-2,-2,-2,-1,-1,-1,0
1517205894675948,-2,-1,0,1,1,-1,-2,0
1517205894675948,-1,-1,-1,0,-1,-1,-2,-2
1517205894696964,-1,1,-2,1,-1,0,-2,0
1517205894696964,0,-1,-1,0,-3,-1,0,-2
1517205894702965,-1,0,-2,-1,-1,0,0,0
1517205894702965,0,-3,-1,0,-2,-1,0,-1
1517205894710988,0,-1,-2,-1,-2,-2,-1,-1
1517205894710988,-1,-1,-2,-3,-1,0,-1,-2
1517205894725483,0,0,-1,-2,-1,-1,-2,-1
1517205894725483,-2,0,0,-1,-3,0,0,-1
1517205894733987,0,-2,-1,-1,0,-2,1,1
1517205894733987,-1,-1,0,-2,-2,-1,-2,0
1517205894735989,0,-2,0,1,-1,0,-1,-1
1517205894735989,0,-1,-1,-1,1,0,-1,-1
1517205894764511,0,-3,-2,-3,-2,0,-2,-2
1517205894764511,0,0,-1,-2,0,-2,-1,0
1517205894766517,-1,-2,-2,-1,-1,0,0,-1
1517205894766517,0,0,-2,-1,-2,-1,0,-2
1517205894771019,-2,-3,-1,2,-1,0,-1,-1
1517205894771019,-1,-2,-1,0,-2,0,-1,0
1517205894785524,-1,0,-1,-2,-1,-2,1,0
1517205894785524,-1,-4,-1,-1,-1,-2,-1,-1
1517205894794048,-2,-2,-3,-1,-1,-4,-1,0
1517205894794048,-1,-1,-2,-1,-1,-1,0,0
1517205894796044,0,0,-2,-1,-2,0,-1,0
1517205894796044,-2,-1,-3,-1,0,-3,0,-1
1517205894816565,-1,-2,1,-3,-2,-2,-2,-1
1517205894816565,-2,-2,-1,0,-1,-1,1,0
1517205894818564,0,-2,0,0,1,-1,-1,-1
1517205894818564,-1,-1,-1,-2,-3,-1,-2,-1
1517205894831141,-1,1,-1,-2,0,-1,-1,-1
1517205894831141,-1,0,0,0,0,-1,-1,-1
1517205894845636,-1,-2,-2,-4,-2,-2,-2,-1
1517205894845636,0,-2,0,0,0,0,-1,-1
1517205894861673,0,-1,0,0,-1,-1,-1,0
1517205894861673,-1,-2,-2,-2,0,-2,-2,-1
1517205894863654,0,-1,0,-3,0,-2,-1,-1
1517205894863654,-1,-1,-1,0,-1,0,-1,0
1517205894876683,-2,-2,-1,-2,-1,-2,0,0
1517205894876683,0,0,-1,0,-1,-1,-1,-2
1517205894878659,-2,-2,-2,0,-1,0,0,0
1517205894878659,0,1,0,-2,0,0,0,-2
1517205894891169,-2,-1,-1,0,1,-1,-1,0
1517205894891169,-1,-1,-1,0,-2,0,-1,0
1517205894898199,-2,-1,0,1,-1,-2,-2,-1
1517205894898199,-1,-2,-1,-2,1,-2,-1,0
1517205894914255,0,0,-3,-2,-2,-2,-1,-2
1517205894914255,-1,0,-1,-2,0,-1,-1,-1
1517205894915690,0,1,-1,-2,-2,-2,0,-2
1517205894915690,0,-1,-1,0,0,-2,-1,-1
1517205894937306,-1,-1,1,0,-2,-2,-2,-1
1517205894937306,-4,-1,-3,-1,-1,0,-2,-2
1517205894938313,0,-3,0,-1,-2,0,-1,-2
1517205894938313,-1,0,-1,-1,0,-1,2,-2
1517205894950383,-1,1,-1,-1,-1,0,0,1
1517205894950383,-1,-1,-2,-2,-2,0,-1,-2
1517205894959320,-2,0,-1,-1,-2,-1,-1,0
1517205894959320,-1,-1,-1,-2,-1,-1,-1,-1
1517205894973837,-3,-2,-1,-2,-2,-1,-1,-3
1517205894973837,0,1,-1,-2,-1,-3,-1,0
1517205894980341,-1,-2,0,0,0,-2,-1,0
1517205894980341,-1,-2,-1,-1,-3,-1,0,1
1517205894996872,0,-2,-1,-1,-2,-1,1,-2
1517205894996872,-1,-1,-2,0,0,-2,-2,-1
1517205894998848,0,-1,0,-1,-1,0,-1,-1
1517205894998848,0,-2,-1,0,-1,0,-2,0
1517205895010355,1,-2,1,-1,0,-1,-2,-2
1517205895010355,0,0,0,-1,-1,-1,1,1
1517205895019363,-2,1,-2,-2,0,-1,0,-2
1517205895019363,-1,1,-2,-2,-3,-2,-3,-2
1517205895041878,-1,0,-2,0,-1,1,-2,-2
1517205895041878,0,-2,0,-2,-1,-2,0,0
1517205895043380,0,-2,-2,-1,-3,-1,-2,0
1517205895043380,-1,-1,-1,0,0,-1,0,-1
1517205895056390,0,0,-3,-1,0,-2,1,-1
1517205895056390,-1,-3,0,-1,-2,0,-1,-4
1517205895058390,0,-1,0,-1,-1,-2,-1,0
1517205895058390,-2,-1,0,-1,-1,0,-1,-3
1517205895070403,-2,-1,-2,-1,-1,-2,-3,1
1517205895070403,-3,0,-2,-1,-1,-1,-2,-1
1517205895079411,-1,-2,0,-1,-1,-2,-1,-1
1517205895079411,-1,0,0,1,-1,-1,-1,-2
1517205895094415,-1,-1,1,-1,-1,-2,-2,-2
1517205895094415,-1,-1,-1,-1,-2,1,-1,0
1517205895095919,-1,-2,-3,-2,-1,0,-1,-1
1517205895095919,1,-2,-1,0,-2,-1,-2,0
1517205895116453,-1,-1,0,-1,0,1,1,0
1517205895116453,-2,-2,-2,-1,-1,-2,-1,-1
1517205895118432,0,0,-1,-1,-1,0,-1,-3
1517205895118432,-3,-1,-1,0,-1,-2,-2,0
1517205895130460,-2,-2,-1,-1,-3,-2,-2,-1
1517205895130460,0,-3,-2,-1,-1,-2,-3,0
1517205895139448,-3,-1,-1,-1,-1,0,-1,1
1517205895139448,-1,-3,-2,-2,-1,-1,1,-2
1517205895153958,0,-1,-3,0,0,0,-1,0
1517205895153958,-1,0,-1,-1,-1,-1,-1,-1
1517205895155961,-1,-1,-2,-2,0,0,1,-2
1517205895155961,0,-1,-2,-2,0,-2,-1,-1
1517205895176477,-1,-2,0,-1,-1,0,-1,1
1517205895176477,0,-2,0,-1,-1,-2,1,0
1517205895178478,-1,-2,-1,1,1,0,-1,-1
1517205895178478,-1,0,-3,-1,-1,-1,-1,0
1517205895199015,-1,0,-1,-1,-1,0,-3,-2
1517205895199015,-1,1,-2,-2,-1,-3,0,-3
1517205895200999,-3,-1,-1,-1,0,-4,-3,0
1517205895200999,-2,-1,0,-1,-3,-2,1,-1
1517205895214521,1,-2,-2,-2,-2,-1,-1,-1
1517205895214521,-1,-1,-1,-2,-2,-1,-3,-1
1517205895216040,-1,-1,-3,-1,-2,-1,-2,-1
1517205895216040,-2,0,-2,-1,0,-1,-1,-3
1517205895237019,0,0,-1,0,-1,-2,1,-1
1517205895237019,-1,-2,0,-2,-2,1,1,-2
1517205895238522,-1,0,-2,-1,-1,-1,0,-1
1517205895238522,-2,0,-1,-1,0,-1,0,-1
1517205895250540,-1,-2,-2,0,-2,-2,-1,-1
1517205895250540,0,-1,0,-1,0,-1,0,-1
1517205895259532,-1,-3,-3,0,-1,-1,0,-1
1517205895259532,-2,-3,0,0,0,0,-3,0
1517205895274085,-3,-1,-1,0,-2,-1,0,0
1517205895274085,-1,-1,1,0,-1,1,-1,-2
1517205895275585,-1,-1,-1,-1,-1,-2,-2,0
1517205895275585,-1,-1,-1,0,-1,0,-2,0
1517205895296623,-1,-2,-2,-1,0,0,0,-1
1517205895296623,0,0,-3,0,0,-2,-3,0
1517205895298600,-1,-3,-1,-1,-2,0,-1,-1
1517205895298600,-1,-2,1,-1,-2,-1,0,-1
1517205895310610,-2,-1,1,0,-1,0,-1,0
1517205895310610,-2,-1,-2,0,-1,0,0,1
1517205895319620,0,-1,-1,-1,-1,-1,0,-2
1517205895319620,0,-1,-1,-1,-1,0,-2,0
1517205895334201,-1,0,-1,0,0,-1,-1,-2
1517205895334201,0,-1,-1,-1,0,-2,0,0
1517205895335628,-1,-1,-2,-1,-2,-2,-1,-1
1517205895335628,-1,-2,-1,-1,0,-1,0,-1
1517205895364179,-1,0,-1,-1,-1,-2,-1,-2
1517205895364179,-1,-1,-1,-1,0,0,-2,-1
1517205895365650,-2,-1,-1,-2,-2,-2,-2,-1
1517205895365650,-1,-3,-1,-2,-1,-2,0,0
1517205895370153,-1,-1,-2,-1,-2,0,-2,1
1517205895370153,-3,-2,-2,-1,-2,-1,0,1
1517205895379158,-1,-2,-1,-2,0,0,-2,-1
1517205895379158,-1,-1,-3,-2,-2,0,-2,1
1517205895394669,-3,0,-1,-2,-1,1,0,-1
1517205895394669,0,-1,0,-2,0,-1,-1,-2
1517205895396170,-1,-1,0,-1,0,-1,1,-1
1517205895396170,1,-1,-2,-2,-1,-1,1,-1
1517205895424192,-1,-1,-2,1,-1,-2,-3,0
1517205895424192,-2,-2,-2,-1,-2,0,0,0
1517205895425691,-1,-1,-1,-2,0,0,0,0
1517205895425691,1,-2,-1,0,-1,-1,-1,-1
1517205895439200,-1,-2,-2,-2,-2,-2,0,-1
1517205895439200,-1,-2,-1,-3,-2,-1,0,-1
1517205895440701,0,0,-2,0,0,1,0,0
1517205895440701,-2,0,-1,-2,-1,-1,-2,-1
1517205895454211,0,-2,-1,0,-1,-1,1,0
1517205895454211,-2,-1,0,0,-2,-2,-3,0
1517205895455712,-1,0,0,-1,0,-1,0,-2
1517205895455712,-1,-1,-2,0,0,-2,0,0
1517205895476745,-2,-1,1,0,0,-2,0,-2
1517205895476745,-1,0,-1,0,-2,-2,-2,-2
1517205895478231,0,0,0,0,-2,-1,-2,0
1517205895478231,-1,-1,-2,-2,-1,0,-2,-1
1517205895499264,-1,-3,-2,-1,-1,0,-2,-2
1517205895499264,-1,-2,-1,0,0,-1,0,-2
1517205895500755,0,-3,-1,-1,-2,-3,0,0
1517205895500755,-2,0,-1,-2,-3,-2,-1,-1
1517205895514257,-1,1,-1,-1,0,-1,-1,-1
1517205895514257,-1,-1,-1,-1,-1,0,-1,-1
1517205895515754,-1,-1,-2,-1,-2,-1,-1,0
1517205895515754,-1,-1,-1,-2,-1,-1,-1,0
1517205895536770,0,-1,-2,-3,-2,-4,-2,-1
1517205895536770,-2,0,-2,1,-2,-1,1,-2
1517205895538274,0,-2,-1,0,0,0,-2,-2
1517205895538274,-2,-1,-1,0,0,1,1,0
1517205895559285,-1,-2,-1,-1,0,0,-2,0
1517205895559285,-1,2,-2,-1,0,-3,0,-1
1517205895565304,-1,0,1,0,-2,-1,-2,-2
1517205895565304,-2,0,1,-1,1,-1,-1,-2
1517205895573296,-2,-1,1,-3,0,-1,-1,-1
1517205895573296,0,0,-1,0,1,0,-2,1
1517205895580319,-2,-1,-2,-2,-2,-2,0,0
1517205895580319,-1,-3,-1,1,-1,-3,-3,-1
1517205895596811,-1,1,-1,2,-1,0,0,-1
1517205895596811,0,-1,0,-2,0,-1,-2,0
1517205895598313,-1,0,0,-3,0,0,-1,-1
1517205895598313,0,-1,-2,-1,-2,-3,-1,-1
1517205895619327,-1,0,-1,-1,-1,-1,-1,-2
1517205895619327,-2,-2,0,-2,-1,1,-1,-3
1517205895620828,-1,-2,-2,-2,-2,-1,-1,0
1517205895620828,-1,-1,0,-1,-1,-2,-1,-1
1517205895633362,0,-2,-1,-1,-3,0,-2,0
1517205895633362,0,0,-1,-1,-3,-1,-1,1
1517205895640344,-2,-1,-1,-1,-2,0,0,-2
1517205895640344,-2,-1,-2,-2,-2,-1,-2,1
1517205895656854,-3,-3,-1,-1,-1,-1,-1,-1
1517205895656854,-1,-1,-2,0,-1,-1,-1,-1
1517205895658355,-1,-2,-2,-1,-1,-2,0,-1
1517205895658355,-1,0,-1,-1,0,0,-1,-1
1517205895679373,-1,-1,-1,-3,0,-1,-1,-2
1517205895679373,-1,-3,-2,-1,-1,0,0,0
1517205895680884,-4,-1,-1,0,-2,-1,-2,0
1517205895680884,-1,-1,0,0,0,0,-1,-2
1517205895693903,-1,-2,-1,-1,-2,-1,0,-1
1517205895693903,0,-3,-1,-2,-2,-1,2,-2
1517205895700387,0,-1,-1,-3,0,-2,-2,-1
1517205895700387,-2,-1,-1,0,-1,0,-1,-1
1517205895716897,-1,-2,-2,-1,-1,-1,-2,-2
1517205895716897,-2,0,-2,0,-2,1,-4,-2
1517205895718398,-1,-2,-2,0,-2,0,-1,-2
1517205895718398,-2,-2,-1,-2,-1,-2,0,-2
1517205895738912,-1,-1,-1,-2,0,0,-1,0
1517205895738912,-2,-2,-1,-1,-2,0,0,1
1517205895740929,-1,1,-2,-1,-2,-1,-1,-1
1517205895740929,0,0,-2,-3,-1,0,-1,-1
1517205895753423,-2,0,1,0,0,-1,-2,-2
1517205895753423,-1,-2,-1,-3,0,-1,-2,-1
1517205895760442,0,0,-1,1,-2,-3,-1,-1
1517205895760442,0,0,-1,-1,-1,-1,-2,1
1517205895776439,-1,-1,0,0,-2,-1,0,0
1517205895776439,-2,-1,-2,-1,-1,0,-1,0
1517205895778440,-2,-2,-1,-1,1,0,0,-1
1517205895778440,-2,-1,-1,-1,-2,0,0,-2
1517205895798955,-2,0,-2,-1,-2,-2,-1,0
1517205895798955,0,0,-2,-1,-2,-2,-1,-3
1517205895800958,-1,-2,-3,-1,0,0,-1,-1
1517205895800958,0,-3,0,0,-1,-3,-2,0
1517205895813465,0,0,-3,-2,-1,-1,-1,0
1517205895813465,-1,-1,0,-2,0,-2,0,0
1517205895820472,0,0,-1,-1,-1,-3,-1,0
1517205895820472,-2,-1,-1,0,-3,-1,1,-2
1517205895843997,1,-1,-1,0,-2,0,0,0
1517205895843997,-1,0,-2,-1,-2,-2,-1,-1
1517205895845988,0,-1,1,0,-1,0,0,-2
1517205895845988,-1,-1,-2,-1,-2,-1,-1,-1
1517205895858996,-3,0,-1,-3,-1,0,-1,-1
1517205895858996,0,-1,-2,-3,-2,-2,-1,-1
1517205895860999,-1,-1,0,1,-1,-1,-1,-1
1517205895860999,-1,0,-2,0,1,-1,0,-1
1517205895873517,-1,-3,0,-1,-1,0,0,-3
1517205895873517,0,0,-1,1,0,-4,-1,-1
1517205895880553,-1,-2,-1,-1,-3,0,-1,-1
1517205895880553,0,-1,-2,-1,-1,0,-2,0
1517205895896539,-2,0,0,-1,-1,-1,-2,-2
1517205895896539,-2,0,-2,0,0,-2,-2,-1
1517205895898525,-2,-1,-1,-1,-2,-1,-2,0
1517205895898525,-2,0,-3,-1,-1,-1,0,-3
1517205895919541,-1,0,-1,-1,1,0,0,-1
1517205895919541,0,-1,0,0,-3,1,-1,0
1517205895920540,-1,-2,-2,-2,0,-1,0,-2
1517205895920540,-1,-1,-1,-1,-2,0,-3,1
1517205895932565,-2,0,-2,0,-1,-2,-1,0
1517205895932565,-1,-1,0,-2,-1,0,1,-1
1517205895942058,-3,0,0,-1,-1,-1,-1,0
1517205895942058,-1,-2,-1,-2,-1,-1,-2,-2
1517205895956579,0,-1,-1,-2,-1,-2,-2,-1
1517205895956579,-1,-2,-1,-1,-1,-1,-1,0
1517205895958567,-1,-1,0,-1,0,1,-1,0
1517205895958567,-1,-1,-1,-1,-1,-2,0,1
1517205895979100,-1,0,-2,1,-1,-1,0,-1
1517205895979100,-1,-2,-1,-1,-2,-1,-1,-1
1517205895980585,0,0,-1,-1,0,-2,1,-1
1517205895980585,-1,-2,0,-1,0,-2,-2,-2
1517205895993091,1,0,-2,0,-1,-1,0,-1
1517205895993091,-1,-1,0,-1,1,0,-2,0
1517205896001608,-1,0,-2,-1,-1,-1,0,-1
1517205896001608,-1,0,0,0,-1,1,-2,-2
1517205896016680,-1,0,-1,0,-2,-1,-2,-1
1517205896016680,0,-1,-2,-2,-1,-1,0,-2
1517205896018173,-1,2,0,-1,-1,0,-1,1
1517205896018173,-1,0,-1,-3,-2,-2,-2,0
1517205896039177,-3,-1,-1,-1,-2,-1,0,1
1517205896039177,-2,-2,-2,-1,0,-2,-1,0
1517205896040693,-1,-2,-3,-1,-2,-3,-2,-1
1517205896040693,-1,-2,-1,0,0,-2,-1,-1
1517205896053200,0,-1,0,-3,1,-1,-2,-1
1517205896053200,-1,0,-1,0,0,0,-1,-1
1517205896061704,-2,0,-1,0,-1,1,-2,0
1517205896061704,-1,-2,-2,-3,0,0,0,0
1517205896076703,-2,-1,0,-1,-2,-3,-2,-2
1517205896076703,-2,1,-1,0,-2,-2,-1,-1
1517205896078205,0,-2,-1,-1,0,-1,-1,-2
1517205896078205,-1,-2,-1,-1,-1,0,0,0
1517205896099222,-1,-2,-1,0,1,0,-1,1
1517205896099222,1,-2,0,-1,-2,1,0,-1
1517205896100720,-2,-1,-1,0,-1,-2,0,-1
1517205896100720,0,-1,-1,-2,-1,-2,-2,-1
1517205896112732,-1,-1,-3,-2,0,-2,-1,-1
1517205896112732,0,-2,-2,1,-2,-3,-3,-1
1517205896121735,-2,-2,-1,-1,-1,-1,0,-1
1517205896121735,-2,0,0,-1,-2,-1,0,-2
1517205896136759,-1,-1,0,0,1,-2,0,-1
1517205896136759,-1,-1,-1,-2,-2,-2,-1,-2
1517205896138260,1,0,0,-1,-1,1,-1,1
1517205896138260,-3,-1,-1,-1,-2,-1,-1,-2
1517205896159272,0,-1,-1,-3,-3,-1,-1,-2
1517205896159272,-3,0,-2,-1,-1,-2,-1,-1
1517205896160763,0,-2,-1,-3,0,-2,-1,-2
1517205896160763,-1,0,-1,-1,-1,-2,-1,-2
1517205896172771,-1,0,0,0,-2,-1,-2,-1
1517205896172771,0,-1,-1,-2,1,0,0,-1
1517205896181778,-2,-2,-2,-1,-1,-2,0,-1
1517205896181778,-1,0,-1,-1,0,-1,0,-1
1517205896197292,-1,-3,-3,-2,-1,-1,0,-1
1517205896197292,-1,0,-2,-1,-1,-2,1,0
1517205896198790,-1,0,-2,-1,-2,-2,-2,-1
1517205896198790,-1,-1,0,2,-2,-1,-2,-1
1517205896226942,0,-2,-2,0,-1,1,-1,-1
1517205896226942,1,-2,-1,-1,-1,-1,-1,0
1517205896228438,-1,-2,-2,-2,-2,0,0,-1
1517205896228438,-1,0,-2,1,0,-1,-1,-1
1517205896232989,-1,2,0,-1,-2,0,-3,-2
1517205896232989,-1,-1,1,-1,0,-1,-2,0
1517205896241947,0,0,-1,-1,-2,-1,-1,0
1517205896241947,0,0,-1,0,1,1,1,1
1517205896256962,0,-2,-2,-1,0,-3,-1,0
1517205896256962,-1,0,0,0,-2,-1,-1,-1
1517205896258972,-1,-2,-1,0,-1,-1,-1,0
1517205896258972,-2,-1,-1,-1,-1,0,-2,-1
1517205896279477,-2,-1,-1,-2,0,-2,-1,-1
1517205896279477,-3,-1,-2,0,-1,-3,1,0
1517205896285480,0,0,0,0,0,-1,-1,0
1517205896285480,-1,0,-3,-1,-3,-1,-1,-1
1517205896292983,0,-3,0,-2,-1,0,0,0
1517205896292983,-1,0,-2,-1,0,0,-1,-3
1517205896301993,-1,0,-1,0,-1,-1,-1,1
1517205896301993,0,-2,-2,-1,-2,-2,0,-1
1517205896316501,-1,0,-3,-2,-1,1,-1,0
1517205896316501,-1,-2,-1,0,-1,0,-1,-1
1517205896318501,-2,-1,-1,0,-2,0,0,-1
1517205896318501,0,-1,0,-2,0,0,0,0
1517205896339032,-1,-1,0,-1,-3,-2,-1,-1
1517205896339032,0,0,-1,-2,-1,-1,-1,0
1517205896340516,-1,1,-2,-1,0,-3,-1,-1
1517205896340516,0,-1,-1,-2,0,-1,0,-2
1517205896361590,1,0,-1,1,0,0,0,-2
1517205896361590,-2,-1,0,0,-3,-2,-2,-1
1517205896363091,-1,-2,0,-1,-1,-2,-1,0
1517205896363091,-2,0,-2,-1,0,-1,-2,-1
1517205896376100,-3,-1,-1,0,-2,0,-1,-2
1517205896376100,-1,-1,-1,-2,-1,-1,-1,-1
1517205896376600,-1,-1,-2,-1,-1,1,0,-3
1517205896376600,-2,0,-2,-1,-2,-1,0,0
1517205896398637,-1,-2,-1,-1,0,-2,-1,-2
1517205896398637,-2,-3,-1,-1,1,-1,-1,1
1517205896399122,-1,-2,-1,-1,-3,-1,-3,-2
1517205896399122,-1,0,-1,0,-2,0,-1,-2
1517205896420633,-2,0,-1,0,-2,-1,0,-1
1517205896420633,-1,-2,-2,0,-2,-2,-1,-2
1517205896421633,-1,-1,0,-2,0,0,-1,-1
1517205896421633,0,-1,-1,-1,-1,-1,-2,0
1517205896435643,-2,0,-1,-1,-2,-1,-1,-2
1517205896435643,-2,-1,-2,0,-2,0,0,-1
1517205896436646,-3,0,-2,-2,-2,0,0,-1
1517205896436646,0,-1,1,0,-1,-1,0,-2
1517205896458663,-2,0,1,-2,0,-1,-1,-1
1517205896458663,-1,-1,-1,-1,0,0,-1,-1
1517205896459160,-1,-1,-1,-1,0,-1,-1,0
1517205896459160,-1,-3,-3,-1,-2,-2,-1,0
1517205896481187,0,0,0,-1,-2,0,-1,0
1517205896481187,-1,-1,0,-1,-2,-1,-1,-1
1517205896481679,-1,-1,-1,-2,-2,-2,-1,0
1517205896481679,0,-1,0,-3,-1,-3,-1,0
1517205896496212,-2,-1,-2,-1,-1,-2,-1,0
1517205896496212,0,-2,-1,-2,1,-2,-1,-1
1517205896496686,0,-2,0,1,-1,-2,-1,-1
1517205896496686,0,-2,0,-1,0,0,0,-1
1517205896527228,0,-1,-1,-1,0,1,-1,0
1517205896527228,-2,0,-2,-2,-2,-1,0,-1
1517205896528209,0,0,-2,0,-1,-1,-1,-1
1517205896528209,-1,-2,0,-2,-1,-2,-3,-1
1517205896541221,0,0,0,0,-1,0,-1,-1
1517205896541221,-1,-2,0,0,-2,-1,-1,-1
1517205896541718,-1,-2,-1,-2,-1,-2,-1,-3
1517205896541718,-1,0,-1,-2,-1,0,1,1
1517205896555740,-1,-2,0,0,1,-3,-2,-3
1517205896555740,1,-2,-1,-1,-1,-2,0,-1
1517205896556783,-2,-1,-1,-1,-1,-1,0,-2
1517205896556783,-1,0,-2,1,-2,-1,-2,-1
1517205896578396,0,-2,-2,0,-1,-1,-1,0
1517205896578396,-1,0,-1,0,-3,0,0,-1
1517205896579385,-1,-1,-2,-1,1,-1,-1,-2
1517205896579385,-3,0,-2,0,-1,0,0,-1
1517205896600900,-2,0,-4,-1,-2,-1,-1,-1
1517205896600900,-1,-2,-1,0,-2,-1,-3,-2
1517205896601901,-1,-2,-1,-2,-1,1,-2,-2
1517205896601901,-1,0,0,-1,-2,-1,-2,-1
1517205896617412,-1,-1,-1,-2,0,-2,0,-2
1517205896617412,-1,-1,-2,0,0,-1,0,-1
1517205896618413,0,0,-1,-1,-1,-3,-2,1
1517205896618413,-1,-1,-2,0,-1,0,-1,-2
1517205896638427,-1,-2,-2,-2,0,1,-2,-1
1517205896638427,0,-2,-2,-1,-1,-1,-2,-1
1517205896639427,-1,-1,-1,0,-2,-1,-1,-2
1517205896639427,-2,-1,0,-2,0,-4,-2,-2
1517205896660964,-2,-2,-2,0,-2,0,-1,-2
1517205896660964,-1,-1,-1,0,-1,0,0,-1
1517205896661944,0,2,-2,1,0,-1,-2,-1
1517205896661944,-2,-2,-2,-2,-1,0,-3,-1
1517205896677470,2,0,-1,0,-2,-1,-1,-2
1517205896677470,-1,-3,0,-2,0,-2,-2,0
1517205896678471,-1,-2,1,-3,0,-1,-2,0
1517205896678471,-1,-1,-1,0,0,0,-2,-1
1517205896698484,1,-1,-1,1,-1,-1,1,-1
1517205896698484,-1,0,0,-2,-2,-1,-2,-2
1517205896699470,-1,-1,0,-2,0,1,1,0
1517205896699470,0,-1,-1,0,-1,-1,-2,-2
1517205896720987,0,-2,-2,-2,0,0,-2,-2
1517205896720987,-1,1,-1,-1,0,-1,0,-2
1517205896721986,-1,-2,0,-1,0,-1,-1,0
1517205896721986,0,-1,0,0,-1,-1,0,-1
1517205896736015,-3,-3,0,-2,-1,-2,-2,-1
1517205896736015,-2,-2,-2,-2,0,-2,0,0
1517205896736997,-1,0,0,0,-1,0,0,-1
1517205896736997,-1,-2,-1,0,-2,1,0,-1
1517205896758630,-2,-1,1,-1,0,-1,-1,-2
1517205896758630,1,-2,-1,-3,-1,0,-1,0
1517205896759107,0,-2,0,-1,-2,-1,-1,0
1517205896759107,-1,-1,-3,-1,0,-2,-1,-1
1517205896789140,-1,-1,-1,-1,-1,0,-1,0
1517205896789140,-1,-1,-2,-1,0,0,-1,-1
1517205896789629,-1,0,-1,-1,-2,-1,-1,-1
1517205896789629,1,0,0,-2,-1,-2,-2,-2
1517205896795634,-1,0,0,0,-1,-2,-1,-2
1517205896795634,-2,1,-1,-1,-1,-1,0,-2
1517205896796634,0,-1,0,-1,-1,-1,0,-1
1517205896796634,-1,0,-2,-1,-1,1,-1,0
1517205896818671,-1,2,1,-2,0,0,0,-1
1517205896818671,-1,-1,-1,0,0,-1,-3,-1
1517205896819151,0,-1,-1,0,-1,-1,-2,-2
1517205896819151,-1,-3,-1,-1,-1,0,-1,-1
1517205896841168,0,-1,-2,-2,-2,-1,1,-2
1517205896841168,-2,-3,-1,2,-1,-2,0,-1
1517205896841669,-1,-1,-1,-1,0,-1,0,-1
1517205896841669,0,-2,-2,-1,-1,0,-1,2
1517205896856178,0,-2,-1,-1,-2,-1,1,0
1517205896856178,0,-2,-2,-1,-1,0,-1,-2
1517205896856677,0,-1,-4,-1,-1,0,-1,-2
1517205896856677,-2,-1,0,0,0,0,0,-2
1517205896878692,-2,0,-2,-2,-1,-2,-3,-1
1517205896878692,0,0,-1,-2,-1,-1,-1,-2
1517205896879193,-1,-1,0,-2,1,-2,0,-1
1517205896879193,0,0,0,-2,-1,-1,0,-1
1517205896900711,-1,-1,-1,-1,-1,0,-1,0
1517205896900711,-1,-2,0,-2,-1,-1,0,0
1517205896901711,-1,-1,-3,0,-1,-3,-1,0
1517205896901711,0,-1,-1,0,-3,-2,-1,-1
1517205896916230,-1,-1,0,0,-1,0,0,0
1517205896916230,-3,-2,0,0,0,0,-2,1
1517205896916720,-1,-2,0,-1,-1,0,-1,0
1517205896916720,-1,-1,0,-1,-1,0,1,1
1517205896938235,-2,-1,-1,0,-3,-1,-1,-1
1517205896938235,-2,0,-2,0,-1,-2,-1,-2
1517205896939235,0,-1,-1,-2,-2,0,-1,-2
1517205896939235,-1,-1,-1,-2,-1,-2,0,-1
1517205896960765,-2,-2,-1,-2,0,-2,-1,-1
1517205896960765,-1,-1,0,-2,-2,-1,-1,1
1517205896961752,-1,0,0,0,-1,-1,-1,-2
1517205896961752,2,0,-1,1,-1,-1,-1,1
1517205896975278,0,-2,-2,-1,-2,0,0,-1
1517205896975278,-1,0,-1,-2,-2,-2,0,-1
1517205896983767,-1,-1,0,0,-1,0,-3,1
1517205896983767,-1,-1,0,-1,-1,-1,-1,-2
1517205897006795,-1,-2,-2,-1,0,-1,-2,-1
1517205897006795,-1,0,0,0,-1,-2,-2,-3
1517205897007283,0,1,-1,-2,-1,-3,-1,-2
1517205897007283,-2,-1,-2,-1,1,0,-1,-1
1517205897020793,-1,-1,0,-1,-1,-3,-1,1
1517205897020793,-1,-2,-1,0,-1,-1,0,0
1517205897028336,-2,-2,0,1,-2,-2,-1,-1
1517205897028336,-1,-3,1,-1,-3,0,-2,0
1517205897035340,0,-1,-2,-2,-1,1,-2,0
1517205897035340,0,-2,-2,-1,1,-1,-1,-1
1517205897043346,-2,-1,-2,-2,-2,0,0,1
1517205897043346,0,0,-2,0,-2,-1,0,-2
1517205897058354,0,-2,0,-2,0,-1,0,-2
1517205897058354,-1,-2,-2,0,-1,-1,-2,-2
1517205897059355,-1,-3,-3,-1,0,0,-2,-2
1517205897059355,-2,0,-1,-2,0,-1,0,-2
1517205897080893,1,0,-1,0,0,1,0,0
1517205897080893,0,-1,-1,-1,-1,-1,1,-1
1517205897081880,0,-2,-1,-1,-1,0,1,-1
1517205897081880,-2,-2,-1,-1,-2,-1,-2,0
1517205897095394,0,0,-2,0,-1,-1,0,0
1517205897095394,-1,0,-1,-3,-1,0,-3,0
1517205897103887,-3,-5,-2,-2,0,0,-2,-2
1517205897103887,-1,0,-1,-1,-1,-1,0,-2
1517205897118396,0,1,0,-1,-3,-3,-2,-1
1517205897118396,1,-2,0,-1,-2,-1,0,-2
1517205897119399,-5,-1,-2,-2,0,-1,-1,-3
1517205897119399,1,-3,-2,-1,0,-2,-3,0
1517205897140930,0,-1,-2,-1,0,-1,-1,-2
1517205897140930,1,0,-1,-2,-1,0,-1,-1
1517205897141932,0,1,-1,1,-2,0,0,0
1517205897141932,2,-2,-1,-1,-2,0,-1,-1
1517205897155423,-4,-1,-3,0,-3,-2,-1,-1
1517205897155423,0,-1,-1,0,0,-2,0,0
1517205897163431,-2,-2,1,-1,-2,-2,1,1
1517205897163431,-3,0,-2,-2,0,-2,-3,-1
1517205897178439,-3,0,2,0,1,0,-2,-1
1517205897178439,-2,-10,-3,-2,-2,1,0,-1
1517205897179440,1,-2,-2,-1,0,-2,-3,-4
1517205897179440,-5,3,1,0,0,0,1,0
1517205897201001,-9,-7,-1,0,0,-1,-3,-2
1517205897201001,6,6,-1,0,-1,-1,1,-2
1517205897201959,3,1,-1,-3,-2,-1,-2,0
1517205897201959,5,0,0,-1,0,1,1,-1
1517205897215477,-6,-1,-1,-1,0,0,-3,-4
1517205897215477,-8,-3,0,1,1,0,-2,2
1517205897223483,2,-7,-5,-1,1,-1,-2,12
1517205897223483,-4,-9,-3,-1,0,-1,1,-14
1517205897238493,1,0,1,-2,-1,1,0,-1
1517205897238493,1,4,2,1,2,-1,-2,-2
1517205897239497,-2,2,-4,-7,-3,-1,0,1
1517205897239497,-4,0,-1,-1,-1,-2,-3,6
1517205897261080,6,0,-2,0,-1,-2,1,1
1517205897261080,1,4,1,1,1,0,-1,-2
1517205897262003,-19,-11,-1,3,1,-1,-3,0
1517205897262003,7,-4,-4,0,-1,-1,-5,-6
1517205897284014,8,-5,0,-4,-2,1,2,2
1517205897284014,-2,2,-1,0,-5,-3,-3,1
1517205897285016,4,8,0,-1,0,-1,2,-2
1517205897285016,-3,-8,-3,-1,-1,-4,-4,-4
1517205897298526,3,0,1,-1,-1,1,3,6
1517205897298526,2,-7,-5,-6,-2,-1,1,4
1517205897299026,3,4,5,6,1,2,-2,-12
1517205897299026,-19,-7,-8,-13,-1,-3,-2,12
1517205897321120,8,5,-1,0,-1,0,-3,-18
1517205897321120,-3,-2,-3,-2,-1,-2,0,2
1517205897321638,-9,-5,-3,0,-1,-1,0,-2
1517205897321638,7,6,4,4,0,1,3,3
1517205897344131,-10,-2,-4,-1,0,-4,-5,5
1517205897344131,-9,-2,-2,-2,-3,1,4,-2
1517205897345136,-6,-7,-5,-4,-2,-3,-3,-7
1517205897345136,-1,1,3,2,-1,0,0,1
1517205897358664,-9,-2,-2,-2,-1,-1,-1,4
1517205897358664,14,5,-1,0,-1,-1,-2,-6
1517205897359143,6,-1,2,0,-1,-1,1,-2
1517205897359143,6,8,-4,1,-3,-2,3,7
1517205897380680,-30,-14,-2,-3,1,-2,-5,-14
1517205897380680,-2,-5,-4,-1,-1,0,-3,-11
1517205897381658,6,3,6,-1,-3,-1,4,6
1517205897381658,4,-1,-11,0,-1,0,-3,-1
1517205897404189,15,12,7,-2,-2,-4,3,7
1517205897404189,-15,-15,-2,2,2,-1,-7,1
1517205897405186,-1,-3,-3,-7,-1,-1,0,-8
1517205897405186,-1,-1,2,2,-3,-3,-10,-2
1517205897427224,10,-4,-2,0,0,0,7,14
1517205897427224,-8,6,0,-2,-2,-2,0,-10
1517205897427726,-1,-1,-3,1,-1,0,-5,1
1517205897427726,-4,-9,5,-2,0,-1,0,-3
1517205897449275,-5,-5,-13,-4,0,-2,4,-7
1517205897449275,1,10,10,-1,-1,0,1,3
1517205897449740,2,1,-1,1,-2,0,2,-4
1517205897449740,-3,1,-4,-4,0,1,-2,-6
1517205897464266,-3,-1,9,1,0,1,-3,-3
1517205897464266,9,-4,-12,1,-1,-1,4,10
1517205897464750,-4,-4,-1,-1,0,-5,-10,-7
1517205897464750,-4,-7,2,-1,-3,-2,3,6
1517205897478763,1,7,7,10,-1,-1,-1,-4
1517205897478763,6,5,8,-18,-2,0,-3,2
1517205897479762,-13,-20,-18,-2,-4,-2,-2,2
1517205897479762,-7,7,4,2,0,-1,1,-8
1517205897509297,5,-2,-9,-2,-2,-3,-3,2
1517205897509297,1,3,-3,2,0,-2,0,-1
1517205897509782,-7,1,7,0,1,0,0,-1
1517205897509782,-4,-7,-9,-3,1,1,1,0
1517205897524309,-3,3,12,4,-1,1,1,0
1517205897524309,-4,-11,-12,1,-1,0,-3,-7
1517205897524795,3,3,6,2,-1,-2,-5,29
1517205897524795,4,1,-15,-15,-3,-2,-2,-25
1517205897538818,-3,2,-11,-3,-2,-1,-6,-2
1517205897538818,-3,-6,6,1,-2,-3,-6,9
1517205897539820,14,3,15,3,1,1,2,-8
1517205897539820,2,8,7,7,1,-1,1,5
1517205897560826,11,-2,-13,-9,-5,-3,-3,-2
1517205897560826,-3,13,10,-1,0,-1,0,2
1517205897561825,4,-2,-18,1,2,0,2,-2
1517205897561825,-7,-12,-6,-2,-2,0,-3,-2
1517205897584355,-1,0,7,-1,-1,0,2,-3
1517205897584355,-5,-2,3,9,0,-2,0,0
1517205897584838,0,5,3,-2,1,1,4,-2
1517205897584838,-1,-6,0,-1,-2,-3,-9,-1
1517205897598348,-4,5,1,-3,-3,0,1,19
1517205897598348,-5,-21,8,3,0,-1,-5,-20
1517205897599349,0,13,-3,-5,-3,-5,1,0
1517205897599349,0,-3,-2,2,1,0,1,-16
1517205897620932,-5,-8,-14,-5,-1,-1,-1,0
1517205897620932,1,15,-10,-3,-2,-1,-1,-1
1517205897621922,9,-13,5,-6,-4,-2,1,-3
1517205897621922,3,18,16,6,0,0,3,15
1517205897643961,2,6,-2,-1,-2,-2,-3,-6
1517205897643961,-1,0,-5,-14,-2,0,5,-5
1517205897644937,-11,-10,-4,-2,-2,-2,-4,-4
1517205897644937,0,3,-5,4,1,1,3,19
1517205897658449,8,-9,7,4,1,1,-6,-18
1517205897658449,-6,-3,-23,-4,-5,-5,-10,0
1517205897659448,2,11,6,-4,-1,0,-1,-1
1517205897659448,6,-14,-19,-6,-2,1,1,0
1517205897680963,-14,12,-6,0,-3,-4,-9,-17
1517205897680963,-3,-12,11,8,-1,-2,8,22
1517205897681961,-4,-13,-19,-18,-4,-3,-4,-7
1517205897681961,4,7,26,4,0,-2,2,1
1517205897704490,0,16,-3,-2,0,1,-5,4
1517205897704490,3,-10,-11,-7,1,0,8,-15
1517205897704979,-4,7,6,-1,-1,-3,-10,-2
1517205897704979,1,6,-13,0,0,1,5,6
1517205897718508,-1,1,14,13,0,0,3,6
1517205897718508,-16,-12,-12,-14,-1,0,8,0
1517205897719501,23,-1,13,10,3,2,-8,-1
1517205897719501,-4,9,8,-5,0,0,5,-2
1517205897741002,-1,-8,1,0,-1,0,-6,14
1517205897741002,-11,8,11,7,1,1,-1,-6
1517205897741504,5,-3,-10,-2,-2,0,1,9
1517205897741504,-1,-12,3,-3,-3,-5,4,-2
1517205897764019,-7,-14,-1,-2,1,0,-1,-21
1517205897764019,20,16,7,2,0,1,1,15
1517205897765020,-10,15,-20,-4,-5,-2,1,-4
1517205897765020,16,-26,12,10,4,3,14,11
1517205897778532,-18,22,-1,-16,-5,-4,-37,-16
1517205897778532,1,12,13,13,2,1,1,30
1517205897779030,-18,-39,-11,3,-3,-6,-12,-39
1517205897779030,7,36,0,-14,-6,-2,-12,-9
1517205897800712,-7,-38,-14,-5,-3,-4,-5,-19
1517205897800712,1,-14,-16,1,2,1,2,1
1517205897801691,-1,11,22,4,1,0,5,3
1517205897801691,2,25,0,3,-1,0,0,-6
1517205897824218,12,19,21,5,2,3,34,54
1517205897824218,-5,-6,-28,-9,-5,-10,-35,-55
1517205897824710,-4,0,1,1,-1,2,18,41
1517205897824710,6,9,7,6,-1,-1,-5,-26
1517205897838216,0,4,-20,-21,-5,-6,-11,-10
1517205897838216,19,-23,25,10,4,6,25,28
1517205897839217,5,-3,1,0,2,-1,5,-3
1517205897839217,-11,23,8,-6,-4,0,-1,24
1517205897861245,17,-12,-15,14,3,3,5,0
1517205897861245,7,-4,-1,10,0,-2,-4,-22
1517205897861733,-25,14,4,-31,-8,-3,-4,27
1517205897861733,34,-58,-26,-1,2,2,-1,-62
1517205897891789,-7,35,36,-1,-4,-5,13,2
1517205897891789,-4,-6,0,1,1,5,16,24
1517205897892255,-10,-14,-20,-5,-4,-7,-47,-54
1517205897892255,-13,-1,7,13,1,-3,-3,14
1517205897897761,0,-35,-11,-1,3,0,2,-2
1517205897897761,0,47,26,-7,-7,-1,-3,8
1517205897905776,-32,-21,-26,-6,-6,-2,45,15
1517205897905776,6,-4,18,4,4,3,-7,3
1517205897929286,-37,-26,-15,-18,-8,-3,-3,-3
1517205897929286,-22,-8,-37,11,0,-3,-22,-2
1517205897929781,14,-8,7,12,8,5,6,8
1517205897929781,1,-10,63,-10,3,5,9,-10
1517205897943326,23,64,63,19,3,-1,11,-4
1517205897943326,-20,-77,-80,-14,-5,-5,-7,9
1517205897950885,1,14,-16,-19,-9,-3,9,-5
1517205897950885,-7,-7,11,6,-1,-5,-32,4
1517205897957870,8,30,34,12,7,6,28,18
1517205897957870,-7,1,14,10,0,0,-16,-40
1517205897965892,14,9,23,-6,2,0,2,3
1517205897965892,-22,-33,-71,-11,-11,-7,15,19
1517205897980888,-37,-50,-44,5,6,4,-9,-5
1517205897980888,52,79,-8,-3,-3,-4,0,17
1517205897981887,38,38,72,6,-2,0,-14,-67
1517205897981887,-13,9,-21,16,2,-2,4,17
1517205898003905,7,-52,-31,-19,-7,-3,-18,-37
1517205898003905,11,33,56,29,8,6,47,39
1517205898004907,-14,-42,-33,-35,-8,-9,-40,-45
1517205898004907,-18,9,-52,16,3,1,2,19
1517205898026419,22,10,-52,-24,-6,1,2,-18
1517205898026419,5,12,80,-4,-3,-5,-9,-1
1517205898027420,8,9,-16,30,7,3,25,53
1517205898027420,3,7,91,-7,-2,1,5,27
1517205898040929,-16,-27,-24,-3,-11,-11,-39,-44
1517205898040929,-6,-15,-38,9,5,5,10,21
1517205898041931,-10,26,-41,-19,-4,1,1,-25
1517205898041931,-7,23,1,-4,-8,-7,-12,-1
1517205898064467,23,87,52,-8,1,5,29,56
1517205898064467,-4,-63,1,-14,-3,-4,-41,-57
1517205898065446,-4,-34,6,19,3,-1,-12,-1
1517205898065446,20,-25,-14,0,4,0,0,11
1517205898088463,-6,4,-31,-13,-7,-7,1,7
1517205898088463,-9,72,31,1,2,7,19,74
1517205898089467,22,39,35,8,1,-7,-37,-76
1517205898089467,-4,-19,-82,-33,-11,-4,0,1
1517205898100995,-13,-12,43,13,0,-5,-20,15
1517205898100995,-6,-42,-38,-21,-9,-8,-13,-57
1517205898101983,-3,-4,30,34,10,9,20,39
1517205898101983,-18,-2,-47,-14,-12,-11,-16,-39
1517205898124004,6,-37,16,-1,0,-4,-11,9
1517205898124004,-22,24,20,-12,-7,-7,-19,-57
1517205898124991,8,-27,-56,-15,-4,0,-4,17
1517205898124991,1,-37,2,2,0,4,2,-15
1517205898137508,-25,-29,-14,-12,-6,-10,-7,-11
1517205898137508,8,5,16,4,-1,-2,1,-5
1517205898146028,5,32,-56,12,4,4,28,62
1517205898146028,-10,8,44,-22,-6,-8,-29,-50
1517205898161016,14,44,46,31,10,7,14,13
1517205898161016,-11,-25,-18,-14,-3,4,18,42
1517205898161516,-19,-12,-34,-19,-10,-11,-37,-39
1517205898161516,-4,60,39,34,9,5,23,47
1517205898191574,7,-5,28,1,-2,-2,-10,-59
1517205898191574,-7,8,-51,-18,4,1,-6,-20
1517205898192589,-4,-68,-5,10,1,1,16,60
1517205898192589,-17,-10,25,-18,-8,-8,-9,-56
1517205898198080,11,2,13,25,9,7,9,32
1517205898198080,23,-31,7,-8,-4,0,2,-19
1517205898206095,10,2,-45,-1,3,7,22,38
1517205898206095,3,-25,-9,-4,-4,-7,0,-27
1517205898229153,-11,10,-40,3,1,2,5,15
1517205898229153,35,-5,31,-7,-6,-4,-6,-3
1517205898229651,-68,5,4,-8,-6,-5,3,-30
1517205898229651,3,4,71,7,2,8,13,40
1517205898244163,1,-26,-36,17,5,3,5,65
1517205898244163,-13,17,26,-25,-4,-2,-13,-57
1517205898244663,-3,-38,54,-9,-2,-3,-3,-23
1517205898244663,13,31,-31,11,6,3,5,21
1517205898266692,-17,-22,-30,-31,-17,-11,-15,-13
1517205898266692,-3,28,46,46,13,7,23,69
1517205898267178,-9,-16,42,-21,-13,-12,-29,-80
1517205898267178,2,12,-1,-3,5,3,0,33
1517205898281205,10,29,-41,1,-1,-2,-9,-45
1517205898281205,1,3,35,10,3,1,13,37
1517205898281692,-3,7,-17,3,3,6,7,-9
1517205898281692,7,1,-10,-11,-1,0,7,27
1517205898304214,-11,-54,-35,-20,-12,-6,-3,-27
1517205898304214,7,-1,-19,-8,-2,0,3,12
1517205898304705,22,-24,-28,11,3,-2,3,43
1517205898304705,-15,6,5,2,-5,-5,-9,-8
1517205898326751,20,-31,14,-5,2,1,6,-4
1517205898326751,-29,-41,-55,-2,-2,-3,5,-31
1517205898327253,-1,-15,-70,-20,-1,-2,1,26
1517205898327253,12,27,-20,15,2,2,1,8
1517205898340761,-20,-6,-9,-12,-8,-2,-13,-41
1517205898340761,-3,-25,-23,-23,-7,-7,5,54
1517205898341761,6,38,43,25,6,2,-22,-51
1517205898341761,-28,-101,-23,0,0,0,6,-20
1517205898364196,30,72,0,-2,-1,-1,24,51
1517205898364196,-35,-21,2,11,-2,-3,-22,-15
1517205898364681,21,14,-17,-2,-2,-4,-6,55
1517205898364681,6,18,-14,-1,-1,-2,-21,-62
1517205898386701,1,16,14,7,4,6,-16,-46
1517205898386701,-30,-58,-45,-4,-7,-9,-2,-29
1517205898387698,4,15,26,-27,-4,1,19,52
1517205898387698,-26,-28,-60,-4,-1,0,-13,-43
1517205898400718,5,-40,16,-3,-1,-1,1,17
1517205898400718,22,28,49,22,1,-4,-3,-10
1517205898401710,-39,-1,-6,14,0,1,-3,-4
1517205898401710,-2,32,74,-10,-1,-1,-7,-17
1517205898424260,-19,-56,-65,-15,-1,-2,0,-48
1517205898424260,-26,-37,12,-4,-5,0,-2,-10
1517205898424761,66,40,-45,-5,-9,-9,3,-39
1517205898424761,-15,10,79,8,0,2,19,59
1517205898446799,-17,-72,-83,-8,-2,-3,-2,4
1517205898446799,19,55,53,16,8,2,-6,6
1517205898447288,4,-11,25,-4,0,3,15,-2
1517205898447288,-6,-41,-55,-25,-5,-5,7,35
1517205898468792,-6,16,15,-8,-2,-2,0,-5
1517205898468792,-8,-9,-36,14,2,-5,-11,-21
1517205898476810,-8,14,0,-3,-4,-2,-10,20
1517205898476810,19,68,67,14,2,1,-11,-17
1517205898484328,-11,9,44,5,-1,-1,10,9
1517205898484328,-10,-3,-14,-26,-4,1,5,-15
1517205898485803,18,30,65,35,12,6,3,1
1517205898485803,-10,35,8,-27,-7,-5,-3,-13
1517205898507324,-22,-19,20,14,1,-1,21,51
1517205898507324,39,45,32,-12,-4,-3,2,-52
1517205898508820,-20,-28,-50,-2,-3,-2,-2,-4
1517205898508820,57,30,18,-6,-1,-1,7,41
1517205898520354,-22,-45,-45,8,3,3,-3,-1
1517205898520354,27,56,57,3,-1,-1,-11,25
1517205898529334,-1,48,5,4,4,3,11,10
1517205898529334,1,-61,7,41,9,5,-1,-13
1517205898544350,15,34,15,-23,-6,-3,-2,28
1517205898544350,-22,-17,-47,7,2,2,1,11
1517205898545846,-10,-8,60,14,4,0,-19,-13
1517205898545846,-11,-27,-32,-36,-17,-10,-6,-45
1517205898566887,39,56,47,31,12,5,7,22
1517205898566887,-10,30,-25,-14,-3,-1,-8,24
1517205898568365,25,-6,-14,-20,-10,-5,4,28
1517205898568365,-8,18,-45,23,10,5,18,1
1517205898580395,-26,9,-6,-6,-5,-4,-25,-33
1517205898580395,15,32,26,12,3,-3,-2,-22
1517205898589376,-23,-45,-29,-20,-7,2,18,28
1517205898589376,7,37,12,4,2,-2,-2,42
1517205898604387,14,37,-37,-13,-7,-3,10,-20
1517205898604387,-18,-66,-80,-10,-4,-2,-12,-7
1517205898605886,-21,-28,-2,-7,-4,-4,-2,-27
1517205898605886,-20,-13,24,19,5,4,-6,32
1517205898626401,9,0,0,-51,-11,-6,-18,-38
1517205898626401,-10,-29,58,15,-1,-1,7,17
1517205898628403,6,7,-14,-18,-4,-4,-1,3
1517205898628403,15,-12,-27,19,9,5,-11,-47
1517205898640912,13,6,50,18,1,3,7,53
1517205898640912,-22,-16,-44,-17,-4,-1,-3,-27
1517205898649418,-22,-8,38,12,-2,-2,-6,-75
1517205898649418,33,45,-34,16,6,4,11,19
1517205898663931,-26,1,43,-21,-6,-4,-3,2
1517205898663931,9,-48,-101,-12,0,4,7,23
1517205898665933,7,74,78,34,9,0,7,10
1517205898665933,-17,-59,-107,-23,-9,-2,13,19
1517205898685452,-17,31,35,18,2,0,-3,-12
1517205898685452,17,-10,14,8,1,1,19,54
1517205898694459,-15,-12,56,7,2,-2,-16,37
1517205898694459,-16,-29,-18,-24,-7,-5,-20,-75
1517205898700976,4,60,6,24,12,7,12,18
1517205898700976,-18,-85,-56,-27,-8,0,13,-1
1517205898707959,-11,43,53,16,4,1,8,71
1517205898707959,7,16,51,26,3,-2,-7,-6
1517205898722971,-3,-25,4,-43,-12,-1,-3,-11
1517205898722971,12,55,-14,0,0,-1,-12,-22
1517205898731993,-25,-65,-56,-5,-1,3,-6,-18
1517205898731993,15,-14,13,-4,-2,-5,2,16
1517205898746486,-19,-18,-11,31,5,-1,9,0
1517205898746486,2,7,10,-38,-11,-4,-23,-47
1517205898748488,6,-30,-37,6,0,0,3,2
1517205898748488,-32,22,18,-20,-6,-6,-6,-2
1517205898760507,32,-23,52,5,4,0,-7,-6
1517205898760507,-13,-4,78,1,-5,-6,23,20
1517205898769003,5,-4,-51,2,4,1,-12,-32
1517205898769003,3,39,5,-8,-3,-1,9,10
1517205898784013,12,56,13,-4,-5,-6,-19,-24
1517205898784013,-11,-20,-51,10,3,1,-1,9
1517205898785515,8,-15,25,-10,-5,0,13,27
1517205898785515,15,20,31,19,4,3,-19,-20
1517205898806539,-14,-19,-112,-32,-10,-6,-10,-47
1517205898806539,33,38,54,10,5,3,-2,12
1517205898808030,-14,61,13,8,-1,-1,1,25
1517205898808030,3,-20,-41,-10,-2,3,12,-21
1517205898820538,20,-8,-8,6,3,1,-9,7
1517205898820538,1,11,-5,8,-1,-1,3,-1
1517205898829045,37,-30,-40,-19,-2,-3,1,-8
1517205898829045,-23,-5,-15,7,-1,-2,-6,16
1517205898844056,-17,-64,-49,-1,-5,-6,-5,-40
1517205898844056,-10,40,71,2,5,5,23,40
1517205898845559,17,1,6,-2,0,0,-2,-28
1517205898845559,2,6,5,-11,-5,-2,2,37
1517205898866609,18,-16,-23,34,3,1,-13,-26
1517205898866609,14,-39,-47,-29,-11,-4,-11,9
1517205898868097,-24,6,27,11,3,2,-3,-16
1517205898868097,5,13,-48,-4,-1,-6,3,-2
1517205898880091,-12,-1,3,-5,1,1,6,53
1517205898880091,1,41,2,31,8,3,-6,-23
1517205898889087,2,-1,27,-13,-8,-7,-5,-19
1517205898889087,4,9,4,-4,0,3,4,17
1517205898904098,17,12,50,22,11,5,18,61
1517205898904098,-1,-24,-20,-19,-11,-6,-28,-43
1517205898905600,13,-14,-28,-3,-1,3,5,-3
1517205898905600,-20,-25,25,-1,-1,0,-12,-9
1517205898927122,18,21,31,16,4,5,16,12
1517205898927122,-31,-47,42,33,7,0,2,4
1517205898928616,38,25,-5,-41,-9,-5,15,41
1517205898928616,-9,34,37,2,-4,-3,-18,-14
1517205898949146,-17,-26,-49,-13,-5,-6,-2,11
1517205898949146,4,23,21,-19,-3,-2,11,-22
1517205898950633,-6,6,-21,10,-3,1,2,24
1517205898950633,3,-49,31,-3,3,2,9,-7
1517205898964167,4,18,28,-5,-5,-5,-8,-39
1517205898964167,-14,5,-45,-2,-1,-2,-2,12
1517205898965643,-18,-53,10,3,0,-2,-14,-33
1517205898965643,0,-61,-18,-3,-10,-8,-18,-42
1517205898986689,-40,-11,-28,-13,-3,-4,10,7
1517205898986689,-6,24,34,9,1,1,-4,-2
1517205898988189,22,26,-28,-6,5,-1,7,9
1517205898988189,0,46,24,-3,-4,0,-6,-6
1517205899000211,6,-39,49,25,6,1,-4,7
1517205899000211,2,26,-24,-18,-7,-4,-8,-41
1517205899009206,19,10,24,18,3,0,1,14
1517205899009206,-6,8,-44,-19,-5,-4,7,14
1517205899024727,8,29,28,-9,-1,-2,-2,3
1517205899024727,39,33,33,33,12,9,8,12
1517205899026230,-27,-38,-1,-7,1,4,-6,-1
1517205899026230,24,29,0,14,2,1,-15,1
1517205899046755,-26,-57,10,-4,1,2,13,-8
1517205899046755,-2,-24,-10,-4,-4,-2,0,25
1517205899048234,-12,31,18,-2,-2,-3,-13,2
1517205899048234,8,-13,-29,-19,-9,-10,-8,-45
1517205899060240,-16,-3,-14,-1,-3,-1,-14,-28
1517205899060240,-9,-2,53,18,7,4,-3,12
1517205899069272,-11,-19,-71,7,-6,-5,-4,-33
1517205899069272,-28,-28,-25,-21,-2,-1,2,39
1517205899084275,35,39,-32,-13,-4,-4,0,57
1517205899084275,2,64,-2,6,1,-1,0,-20
1517205899085760,-11,-41,32,5,-2,-5,-14,-28
1517205899085760,-4,-23,-28,-14,1,2,15,56
1517205899106776,12,62,15,6,0,-6,-16,-81
1517205899106776,-9,-61,-77,-19,-3,4,18,50
1517205899108291,4,55,32,-6,-3,-1,4,7
1517205899108291,4,9,-8,0,1,1,-3,-6
1517205899120305,0,-11,16,11,2,0,-8,3
1517205899120305,25,19,-11,-3,-2,-1,-4,0
1517205899129311,-21,-41,-20,-6,-8,-7,-8,-4
1517205899129311,-7,-18,43,12,4,2,0,-31
1517205899144341,9,-41,-19,-11,-1,0,1,6
1517205899144341,-8,31,6,-6,-2,-3,-8,-24
1517205899145833,14,6,45,25,10,10,24,59
1517205899145833,4,-1,-6,-24,-10,-8,-12,-21
1517205899166839,-29,-2,20,3,-4,1,4,31
1517205899166839,3,-40,-71,-33,-11,-8,-9,-5
1517205899172841,-13,15,-6,13,7,4,13,-6
1517205899172841,10,17,3,-21,-6,-4,-8,-14
1517205899180346,-14,-57,-87,1,-3,-3,1,3
1517205899180346,-19,5,26,-5,-8,-8,-10,-8
1517205899189355,-3,27,-7,1,0,-1,-7,-10
1517205899189355,30,3,4,18,2,-1,2,8
1517205899204363,10,37,49,-15,0,-1,-2,-5
1517205899204363,15,-10,5,-6,-1,0,29,75
1517205899205866,-6,-29,-51,-16,-7,-8,-47,-104
1517205899205866,-14,-5,11,2,0,2,8,6
1517205899226428,-2,9,1,6,1,0,-7,7
1517205899226428,12,-61,11,13,3,-2,-14,-4
1517205899228454,11,37,47,-6,0,1,29,16
1517205899228454,-20,-43,8,9,1,0,-4,10
1517205899248990,21,43,-19,-26,-5,3,9,15
1517205899248990,-7,17,99,21,8,2,-5,-12
1517205899250961,-25,-29,51,-1,0,4,2,3
1517205899250961,2,-20,-15,2,-3,-6,-6,14
1517205899263984,15,64,72,19,-2,0,5,2
1517205899263984,-28,-44,-21,-20,-2,0,-8,-58
1517205899265961,8,5,8,1,0,-1,-21,-24
1517205899265961,-3,21,18,13,6,2,13,12
1517205899286497,-14,-19,-2,1,0,-1,-12,18
1517205899286497,20,33,-13,-2,-3,-1,-3,-12
1517205899288476,1,-11,10,-7,-4,-4,-13,-7
1517205899288476,-15,-18,-73,-17,-5,0,5,-19
1517205899309000,40,-8,-40,12,1,-3,-18,11
1517205899309000,-53,-31,-28,-2,-5,-4,15,-14
1517205899310991,1,70,29,10,5,2,11,24
1517205899310991,-8,-32,-2,4,1,2,4,3
1517205899324013,-10,-22,-13,-29,-3,1,1,-1
1517205899324013,13,9,-30,-1,-2,-1,8,29
1517205899326003,11,4,-5,6,3,2,-8,-14
1517205899326003,-9,-11,12,5,0,-1,4,15
1517205899346519,4,-21,3,20,1,1,8,-19
1517205899346519,2,11,-47,-13,-5,-3,-12,-16
1517205899348545,-3,-22,29,-10,-9,-8,21,41
1517205899348545,10,58,23,-1,5,6,-8,-8
1517205899369032,5,8,11,-13,-5,-6,7,10
1517205899369032,2,-13,20,16,4,1,-12,-5
1517205899370536,-12,-19,-17,20,2,-2,-9,-14
1517205899370536,31,-34,-91,-30,-8,-6,0,2
1517205899383561,-47,23,31,-1,-4,-2,-2,-36
1517205899383561,-7,-6,8,22,6,3,8,35
1517205899390058,6,17,-3,-25,-10,0,1,-11
1517205899390058,8,-24,-11,0,-1,-4,0,2
1517205899406569,8,-3,7,-1,-2,-3,7,18
1517205899406569,-34,1,-25,-12,-5,-2,-13,-8
1517205899408071,1,-13,-25,5,2,0,3,8
1517205899408071,28,24,26,24,4,-1,1,-46
1517205899429100,-17,-3,2,-13,-8,-4,-7,8
1517205899429100,6,56,28,-3,-4,-4,16,26
1517205899430577,-8,-33,-6,2,0,-4,-29,-51
1517205899430577,-38,-43,-4,-28,-7,-1,4,45
1517205899452104,41,-2,24,13,5,0,-1,-15
1517205899452104,-5,12,2,4,5,5,3,-14
1517205899453594,28,16,-21,-6,-2,-2,8,32
1517205899453594,-5,41,40,13,2,1,1,11
1517205899474133,-19,-55,-42,7,3,-1,-2,-28
1517205899474133,20,53,20,-11,-6,-6,-4,12
1517205899475615,7,0,-14,-12,-4,1,6,12
1517205899475615,-19,-17,-24,-14,-8,-8,-10,-28
1517205899489119,23,-8,-13,2,2,2,3,16
1517205899489119,-5,39,41,14,2,-2,-10,-23
1517205899490620,-32,-71,-110,-14,-9,-8,0,-18
1517205899490620,4,26,63,-21,-5,-7,-3,-4
1517205899503641,-2,7,-28,13,4,3,-4,8
1517205899503641,17,-35,-55,-15,-2,0,2,2
1517205899510139,-8,-21,5,-13,-3,-2,-10,-3
1517205899510139,10,25,23,35,6,3,4,12
1517205899527170,-8,-10,-27,-18,-5,-3,2,7
1517205899527170,-25,-45,4,11,1,-1,-25,-62
1517205899528655,7,9,-11,3,5,4,17,78
1517205899528655,15,20,-21,5,0,-1,-21,-63
1517205899549661,12,2,-12,1,1,1,-11,5
1517205899549661,31,7,37,19,1,1,5,8
1517205899555167,-4,-26,-25,-29,1,2,5,12
1517205899555167,-21,24,11,12,2,-2,7,6
1517205899563203,-12,15,47,-6,-3,-4,-9,2
1517205899563203,22,-16,6,4,8,4,3,3
1517205899570179,-10,-47,17,0,-9,-10,-4,-24
1517205899570179,-21,18,2,2,4,4,7,39
1517205899594706,-10,-17,-7,-3,-2,-1,4,-32
1517205899594706,-5,-39,-11,4,1,1,10,23
1517205899596194,-13,-6,-3,-31,-10,-7,-10,-29
1517205899596194,17,-4,65,1,3,6,18,46
1517205899609204,-57,-18,24,16,4,2,0,11
1517205899609204,8,-26,-55,-30,-7,0,-3,-7
1517205899610705,11,28,24,14,1,-1,0,0
1517205899610705,-3,-23,-42,5,0,-3,-8,-2
1517205899623215,-5,8,7,-2,-5,-3,10,12
1517205899623215,10,1,-13,-17,-4,-2,-5,9
1517205899630278,-19,30,-1,7,2,1,-13,-2
1517205899630278,15,-13,-9,-2,-4,-1,-5,-27
1517205899646751,21,19,6,12,5,5,19,10
1517205899646751,-1,23,27,4,-1,-1,-3,3
1517205899648231,-43,-29,-30,-3,-4,-3,3,-2
1517205899648231,5,-6,24,-5,1,0,-2,9
1517205899669245,7,30,-20,11,2,3,12,30
1517205899669245,-12,6,-19,-30,-7,-1,-11,-18
1517205899670747,20,25,71,15,0,0,-6,8
1517205899670747,-11,5,72,17,1,-2,-5,-29
1517205899683257,-5,-45,-44,-15,-3,1,13,6
1517205899683257,7,38,23,14,3,-2,-7,16
1517205899690262,3,-17,-25,25,6,0,-2,-12
1517205899690262,-37,-53,-67,-44,-10,-6,-9,-17
1517205899706804,26,15,38,12,4,3,12,19
1517205899706804,8,12,14,-7,-3,-1,-20,-24
1517205899708274,-4,-36,-31,-3,-1,0,15,40
1517205899708274,2,65,73,29,1,0,-14,-58
1517205899729794,6,-5,3,-16,-1,-1,-11,-9
1517205899729794,-31,22,5,8,0,2,5,-3
1517205899731291,8,35,-19,7,-1,-4,1,20
1517205899731291,-16,-72,6,-14,-3,0,2,11
1517205899759340,12,38,46,8,0,-3,-14,-24
1517205899759340,-15,-39,-16,-8,-1,-2,-5,-5
1517205899760812,13,62,46,12,2,1,-2,-9
1517205899760812,-15,-17,-37,3,0,1,15,26
1517205899766855,9,42,-54,-6,0,-1,-13,-53
1517205899766855,-34,-40,9,3,-1,-4,1,30
1517205899768321,19,14,-14,-14,-5,2,10,-7
1517205899768321,11,40,-5,-7,-5,-4,-5,9
1517205899789353,-12,-30,19,21,5,0,1,17
1517205899789353,6,-34,-36,-44,-12,-3,3,-6
1517205899790832,13,49,41,-6,-6,-3,-4,-12
1517205899790832,-4,51,17,9,2,0,-2,7
1517205899802878,-5,8,-31,-12,-6,-4,-8,-14
1517205899802878,15,14,-1,27,5,3,7,4
1517205899811846,-19,-24,19,-13,-2,2,-11,-22
1517205899811846,46,-27,-14,-6,-2,0,0,7
1517205899826379,-11,2,36,8,4,-1,-2,-12
1517205899826379,-7,-8,-66,-8,-7,-6,1,-4
1517205899827858,7,-18,19,7,3,3,4,-8
1517205899827858,-11,37,20,19,3,1,1,-7
1517205899856377,0,-35,-12,-17,-3,-1,9,20
1517205899856377,9,8,-3,-5,-3,-2,3,1
1517205899857879,5,-27,-24,-1,-1,-3,-11,-14
1517205899857879,13,-9,-41,-2,2,1,13,5
1517205899862933,-14,-52,36,15,2,4,-7,-1
1517205899862933,17,72,68,13,6,5,18,33
1517205899871961,-25,-29,25,-18,-11,-7,-11,-5
1517205899871961,9,2,-34,6,3,1,-12,-3
1517205899886471,-2,22,-21,5,3,3,-3,-3
1517205899886471,-31,-23,22,4,2,0,-5,-12
1517205899887974,-29,2,-3,3,2,1,3,-9
1517205899887974,2,23,22,4,3,0,17,80
1517205899908986,9,-7,33,5,-2,0,0,-50
1517205899908986,-13,24,-37,-32,-9,-4,-19,-12
1517205899910488,31,27,-20,13,6,1,11,17
1517205899910488,-36,-51,-28,-12,-10,-7,1,5
1517205899922998,-4,10,-10,-12,-2,-4,-27,-2
1517205899922998,-12,3,25,25,2,-3,6,6
1517205899931502,-2,15,-19,-18,-4,-2,-5,-12
1517205899931502,-13,-47,-19,14,5,3,7,-10
1517205899947052,-10,-3,-34,-16,-7,-1,12,10
1517205899947052,4,-31,-11,2,-3,-3,-3,-8
1517205899948515,6,18,15,16,1,-4,-3,45
1517205899948515,1,15,-42,-12,5,4,2,-41
1517205899969066,-17,-10,-33,-25,-10,-8,-4,8
1517205899969066,2,-16,8,9,1,-1,-2,-1
1517205899976534,28,13,-9,13,8,5,2,-5
1517205899976534,-7,-6,82,-15,-13,-7,-5,14
1517205899982539,8,-13,-55,-11,-1,-3,0,-6
1517205899982539,2,25,15,13,2,3,0,-11
1517205899991545,-7,-71,-57,-9,-4,-5,-12,1
1517205899991545,-8,24,48,-17,-1,1,5,-17
1517205900007057,18,-16,-44,-6,-5,-2,2,9
1517205900007057,5,2,37,16,6,1,8,22
1517205900008061,7,20,17,9,0,1,13,-4
1517205900008061,9,11,-82,-12,-5,-3,-23,-36
1517205900029071,1,17,26,-7,-5,-5,-12,4
1517205900029071,5,47,41,20,6,2,8,18
1517205900030573,-6,6,11,-3,-5,-6,5,-8
1517205900030573,3,-7,-21,-7,0,1,-3,6
1517205900042584,2,1,-24,2,1,-1,-6,5
1517205900042584,11,6,2,-21,-8,-7,-1,29
1517205900051644,-6,-2,-27,9,3,2,-15,-65
1517205900051644,15,19,42,8,-7,-6,-5,-8
1517205900066646,14,5,67,11,-2,-3,-8,-26
1517205900066646,-2,-56,-83,-28,-5,-3,-5,-14
1517205900068133,-1,2,20,2,1,1,11,5
1517205900068133,4,-37,-11,7,3,3,-5,10
1517205900089152,-12,2,0,0,0,-1,-2,6
1517205900089152,10,19,78,14,1,-5,-5,-19
1517205900090654,-34,-14,-30,-16,-4,2,-5,8
1517205900090654,22,-20,-20,-15,-4,-2,10,30
1517205900102669,4,16,58,-3,0,2,11,2
1517205900102669,-4,-20,14,26,4,3,-8,0
1517205900111664,-29,13,14,-33,-6,-4,-19,-19
1517205900111664,-8,-19,-11,29,7,-3,-14,11
1517205900126677,10,20,20,-8,-1,3,16,24
1517205900126677,10,-4,-27,11,3,4,10,-9
1517205900128177,15,64,25,4,-4,-4,-17,-15
1517205900128177,-6,17,-24,-5,-7,-3,0,9
1517205900149214,22,76,75,-9,2,-1,1,21
1517205900149214,-25,-79,-128,-13,-2,-2,-5,-30
1517205900150692,5,-23,13,-12,-2,3,4,15
1517205900150692,-9,-6,43,1,-3,-4,-12,-3
1517205900171721,-3,-10,-34,2,-1,-1,-4,-6
1517205900171721,13,1,33,10,5,6,15,27
1517205900173221,7,-6,-21,-7,-6,-6,-2,-10
1517205900173221,5,30,18,8,5,1,9,-15
1517205900186717,-6,-47,29,28,5,1,0,0
1517205900186717,-25,26,-56,-32,-9,-6,5,31
1517205900188220,14,-45,-33,5,0,-1,-4,-46
1517205900188220,18,23,57,-1,3,2,3,-5
1517205900209255,-5,-65,-3,18,0,-5,-3,8
1517205900209255,23,-55,-67,-26,-12,-7,-16,-34
1517205900210735,-32,43,89,21,7,6,22,27
1517205900210735,0,-15,-53,-17,-8,-2,15,32
1517205900231749,13,53,60,-5,0,-3,-37,-84
1517205900231749,-30,-8,-1,-5,-2,-2,0,3
1517205900233250,8,-22,21,8,3,2,2,12
1517205900233250,-22,2,18,35,9,1,-7,2
1517205900246289,-53,-29,-42,-30,-12,-7,-1,-17
1517205900246289,26,-51,54,1,3,5,2,3
1517205900248276,3,15,-45,-19,-10,-6,-3,13
1517205900248276,-37,-68,19,3,-2,-6,-5,-29
1517205900269278,-7,-1,-49,-12,-1,2,4,20
1517205900269278,0,50,82,15,-1,-1,9,-14
1517205900270777,-8,-28,-17,0,4,0,-4,15
1517205900270777,19,15,-34,0,-1,1,6,41
1517205900291292,-13,3,-10,-7,-5,-3,10,-21
1517205900291292,24,22,48,14,3,-2,-12,-11
1517205900293293,4,-9,-59,-5,-1,0,0,8
1517205900293293,-8,44,33,22,1,1,9,-2
1517205900305817,-6,-63,-40,-24,0,2,-5,24
1517205900305817,-23,49,-18,3,0,3,1,0
1517205900312820,41,19,52,6,2,-1,-9,-62
1517205900312820,4,7,-42,-2,-3,-2,1,-9
1517205900329318,2,3,0,-4,-1,2,11,10
1517205900329318,-12,-23,-18,0,-1,-2,-6,-18
1517205900330820,-5,40,-39,-4,-8,-6,9,46
1517205900330820,-16,4,-31,-11,-3,3,-3,-23
1517205900358850,0,-6,43,3,0,-3,-8,39
1517205900358850,-36,-33,-79,-17,-8,-5,-17,-64
1517205900360851,12,-32,10,6,0,1,-9,7
1517205900360851,25,12,-27,-12,-1,-4,1,5
1517205900365843,-7,8,4,5,-4,-4,13,-6
1517205900365843,25,23,-35,1,5,3,5,28
1517205900372850,1,-2,21,7,-5,-3,13,-18
1517205900372850,18,6,23,-25,-5,-7,-23,-25
1517205900388862,-8,-3,-26,12,-1,1,7,10
1517205900388862,11,24,-14,-25,-9,-9,-3,35
1517205900390864,-15,1,-2,20,7,3,-10,-56
1517205900390864,12,-41,64,5,5,1,-10,7
1517205900427888,-32,16,-19,3,1,0,2,7
1517205900427888,-22,7,33,4,-3,-5,-15,-12
1517205900429388,-18,-5,24,-6,2,4,10,45
1517205900429388,10,15,-69,-10,-8,-4,6,1
1517205900430389,34,-6,31,6,-1,-1,-29,-22
1517205900430389,-6,1,42,6,5,5,10,-9
1517205900434393,4,3,-13,-6,-1,-1,9,47
1517205900434393,-3,5,2,16,4,3,-9,-33
1517205900449403,-10,12,-8,-5,-7,-4,16,58
1517205900449403,-5,38,6,5,-2,-5,-21,-44
1517205900450904,31,-27,-52,-18,-6,-6,12,26
1517205900450904,6,-82,-53,-12,-4,-2,-10,-23
1517205900471420,-5,11,53,22,7,3,4,-17
1517205900471420,23,-31,23,-6,0,1,10,37
1517205900472919,-17,2,10,-3,3,1,-13,-28
1517205900472919,-2,18,13,7,6,5,5,-6
1517205900485937,19,9,-86,-8,-6,-9,-9,9
1517205900485937,-4,1,39,8,2,4,9,-3
1517205900492436,1,-30,-23,19,7,3,-8,-12
1517205900492436,-14,48,46,-13,-7,1,23,29
1517205900508946,6,18,1,12,3,-3,-16,-3
1517205900508946,-7,4,12,-14,-2,-1,0,5
1517205900510448,7,1,-26,-14,-9,-6,-5,-17
1517205900510448,-26,19,65,15,3,1,3,18
1517205900531532,-17,-41,-73,-26,-6,-2,6,-17
1517205900531532,15,36,56,-15,-11,-11,-2,15
1517205900533464,-5,-6,-41,-8,-3,-3,8,12
1517205900533464,-5,13,62,13,1,-4,-18,-8
1517205900553982,8,-16,40,-1,3,6,9,21
1517205900553982,10,7,3,9,1,3,-1,-5
1517205900555479,-11,12,31,21,8,4,6,16
1517205900555479,-47,0,-41,-46,-15,-9,-34,-86
1517205900569028,36,13,23,-5,1,3,20,24
1517205900569028,-23,9,-27,6,1,-3,-15,-13
1517205900570490,0,-16,95,14,0,-2,-2,11
1517205900570490,23,1,-39,-17,-8,-3,-6,12
1517205900591522,-48,3,26,12,3,3,-4,-6
1517205900591522,2,0,-3,9,3,1,9,-20
1517205900593005,-32,8,-37,-19,-6,-6,-23,-17
1517205900593005,24,-26,-57,14,1,-2,5,10
1517205900606014,-16,-8,11,-16,-7,-7,-4,-9
1517205900606014,38,-6,7,-7,-2,0,0,-2
1517205900612518,4,15,5,2,-1,0,8,12
1517205900612518,-5,19,29,14,3,4,2,-20
1517205900629054,-2,-34,-97,-27,-13,-11,-26,-60
1517205900629054,-2,-1,-18,2,-3,-1,-3,3
1517205900630556,27,49,67,0,2,4,15,16
1517205900630556,-2,-36,-30,0,-6,-5,-6,4
1517205900651574,16,25,30,-3,0,-3,6,-13
1517205900651574,-23,-64,-67,1,1,2,1,11
1517205900653072,-6,-28,-50,-16,-4,0,5,-27
1517205900653072,-6,8,45,5,3,2,19,59
1517205900665095,-8,-9,-27,23,3,3,-12,-65
1517205900665095,3,-4,22,-23,-3,-1,1,30
1517205900674086,0,-59,-39,11,2,2,4,29
1517205900674086,-3,62,1,-10,0,1,-4,15
1517205900689110,3,24,40,-6,2,1,-1,-39
1517205900689110,-5,70,-1,1,-4,-2,-1,-8
1517205900690598,-7,32,46,-1,-4,-3,-13,-21
1517205900690598,25,23,7,-3,2,2,25,6
1517205900711628,-5,-11,31,9,5,1,11,33
1517205900711628,-25,-14,10,7,-1,-5,7,-12
1517205900713115,17,0,10,1,-2,0,9,33
1517205900713115,-7,-4,44,-21,-3,-1,-22,-20
1517205900725627,2,-60,-55,3,0,0,0,11
1517205900725627,17,-3,9,-9,-3,-2,-7,-10
1517205900734174,-19,25,-45,-6,-1,1,-1,-1
1517205900734174,-15,-87,-43,5,-2,-2,-3,-15
1517205900749154,12,38,87,14,1,0,5,39
1517205900749154,2,-45,-97,-11,-3,-2,0,2
1517205900750641,-5,-10,-27,7,0,-3,-11,-24
1517205900750641,12,39,60,-8,-1,-3,0,18
1517205900787669,-11,-31,-70,-28,-11,-8,-10,-15
1517205900787669,8,-11,2,10,1,4,2,8
1517205900788668,-8,1,54,2,1,-3,-15,-16
1517205900788668,20,35,-18,8,0,-1,7,6
1517205900789668,-36,-39,-7,15,-2,-4,0,7
1517205900789668,17,32,25,-4,4,1,0,-18
1517205900794186,-12,-55,-10,-31,-8,-1,13,39
1517205900794186,-19,-27,17,30,8,2,-24,-35
1517205900809193,-14,21,9,-15,-5,-3,-15,3
1517205900809193,8,7,0,9,-4,-6,1,4
1517205900810693,-15,-11,46,-10,-4,0,-4,7
1517205900810693,2,-13,-67,-4,0,1,19,15
1517205900831698,18,-3,15,-4,-1,-1,-14,-16
1517205900831698,-33,-56,35,6,1,3,2,5
1517205900837706,-4,-11,-90,-1,-2,-3,-4,-10
1517205900837706,14,10,26,16,2,2,7,-7
1517205900845211,-7,-19,6,-32,-14,-4,8,7
1517205900845211,12,52,31,12,6,3,-4,48
1517205900854217,-11,-4,1,3,0,2,-8,-71
1517205900854217,-20,-68,-102,-24,-7,-6,-12,-10
1517205900868728,14,51,105,23,10,8,17,18
1517205900868728,-15,-12,18,-2,-6,-6,5,12
1517205900870731,12,7,-22,-10,-1,-6,2,5
1517205900870731,0,2,52,8,3,4,12,14
1517205900891744,13,31,-24,-1,0,2,0,9
1517205900891744,1,8,-26,-11,-7,-2,-2,-15
1517205900893243,44,51,36,19,3,-3,11,58
1517205900893243,-28,-66,-14,-13,-7,-2,-4,-78
1517205900914269,-12,0,-47,-4,-2,-2,11,24
1517205900914269,12,26,12,8,3,2,-10,-25
1517205900915771,-4,33,10,-10,-2,0,-2,-6
1517205900915771,22,2,-3,6,0,-1,4,37
1517205900929271,-9,11,-18,-8,-1,-1,2,4
1517205900929271,8,-40,-27,-5,-5,-6,-8,-22
1517205900930775,-5,-6,46,-21,-5,-1,-5,-12
1517205900930775,-15,9,-61,-16,-6,-2,2,17
1517205900951784,-2,9,-1,29,11,3,-15,-24
1517205900951784,-13,-22,5,1,-4,-1,6,0
1517205900953285,33,5,26,11,9,4,-7,21
1517205900953285,0,38,-38,-17,-4,-3,7,11
1517205900965305,-20,-40,13,2,-6,-8,-22,-46
1517205900965305,11,28,30,3,8,5,16,46
1517205900974304,-28,-25,-15,1,-5,-5,-12,-42
1517205900974304,5,54,61,-1,2,-1,-6,2
1517205900989311,29,12,7,17,8,7,14,31
1517205900989311,8,22,69,10,4,0,-5,-7
1517205900990811,-4,23,36,11,0,2,19,33
1517205900990811,5,13,35,17,7,0,-32,-33
1517205901011849,-22,-78,-38,-29,-12,-2,-5,11
1517205901011849,-18,-20,-24,-2,0,3,4,-28
1517205901013327,-24,3,13,28,10,1,1,37
1517205901013327,2,-10,32,13,-1,1,10,-49
1517205901025336,18,44,2,-23,-1,0,0,0
1517205901025336,25,31,48,-6,-5,-1,-10,-10
1517205901034354,27,-7,-86,-1,1,-1,-2,-8
1517205901034354,-34,4,35,-5,-8,-5,4,24
1517205901048863,15,35,31,23,7,2,1,-3
1517205901048863,-5,-26,-88,-4,-2,-3,-8,-14
1517205901050866,-21,2,33,-16,-6,-1,-3,1
1517205901050866,6,8,0,6,2,-3,-7,16
1517205901071881,17,-33,9,17,1,-1,2,-2
1517205901071881,-7,7,-69,-28,-8,-5,-10,-16
1517205901073370,-13,-8,29,17,2,3,5,2
1517205901073370,-9,-44,-49,-4,-4,-5,-8,-1
1517205901093907,-15,2,11,-16,-2,-2,12,22
1517205901093907,-18,2,17,8,-2,-3,-17,-2
1517205901095910,20,-39,-77,-5,-1,-2,6,31
1517205901095910,0,-17,32,-2,-2,-5,-23,-56
1517205901108917,-7,17,-22,8,3,2,10,20
1517205901108917,-10,-1,-4,1,0,0,-3,-22
1517205901110404,4,16,-25,-20,-10,-5,-10,-16
1517205901110404,-18,-17,-14,-11,-8,-5,8,23
1517205901131416,24,-22,-32,2,2,0,-16,-3
1517205901131416,8,20,43,12,7,3,5,3
1517205901132917,14,-26,-48,4,-11,-6,-7,-27
1517205901132917,-21,17,3,-18,-2,0,24,39
1517205901153927,9,23,-20,9,2,-1,-1,-42
1517205901153927,-30,-103,-71,-16,-5,-2,8,60
1517205901155429,33,43,102,11,2,-1,-23,-95
1517205901155429,11,26,7,1,1,3,7,14
1517205901168963,11,6,9,1,-6,0,9,17
1517205901168963,0,14,57,-19,-5,-3,-1,-7
1517205901170940,-18,12,-36,-13,-6,-7,-6,-10
1517205901170940,-5,-44,-24,-3,-1,0,0,20
1517205901190953,-12,14,-29,-3,-1,0,-2,-5
1517205901190953,16,20,-4,3,-1,-6,-28,-32
1517205901199465,-12,23,101,14,8,6,3,11
1517205901199465,-2,-25,-70,-33,-8,-3,-5,-7
1517205901214028,18,30,31,17,4,-1,8,13
1517205901214028,-4,-29,-75,-12,-1,3,13,44
1517205901215987,-17,14,-29,7,-3,1,-14,-47
1517205901215987,11,34,5,-8,5,5,-2,9
1517205901229020,-13,-53,0,2,1,0,0,-12
1517205901229020,23,24,18,1,-3,-2,10,2
1517205901230991,0,25,-5,5,0,0,4,12
1517205901230991,-30,-25,-57,-14,-6,-4,2,0
1517205901252007,-14,-12,10,-22,-8,-4,-9,-13
1517205901252007,20,27,67,30,6,6,8,9
1517205901253498,15,-1,-90,-35,-5,-3,-5,1
1517205901253498,8,1,43,35,7,1,16,9
1517205901274012,-33,-18,-8,-39,-11,-8,-23,-12
1517205901274012,-14,22,25,20,3,2,1,-5
1517205901282045,-8,-70,0,-7,-3,-3,0,12
1517205901282045,11,13,9,13,0,-1,-6,16
1517205901288549,0,-31,4,-7,-5,-6,-2,-33
1517205901288549,-3,14,-16,-11,-9,-6,-5,-9
1517205901302559,-18,-60,-41,1,2,2,10,20
1517205901302559,3,20,46,10,3,-2,-11,-24
1517205901311568,14,49,33,24,3,2,4,19
1517205901311568,-17,-25,10,-18,0,-1,3,-3
1517205901313067,-12,17,-31,-4,-1,1,-3,9
1517205901313067,15,3,-5,-15,-10,-4,-4,7
1517205901334084,-6,-7,39,21,8,4,23,25
1517205901334084,17,-44,-40,1,-4,-5,-28,-43
1517205901335584,-5,38,66,6,6,1,1,23
1517205901335584,11,25,22,1,-1,1,-4,-14
1517205901348189,-14,-31,-48,-18,-2,0,-1,2
1517205901348189,0,-11,12,13,3,2,17,31
1517205901355673,11,27,52,1,-3,-5,-11,-44
1517205901355673,-15,-36,-11,-10,-4,-5,-6,-7
1517205901371687,38,4,57,-7,-3,0,-1,3
1517205901371687,-21,-20,-24,5,-1,3,13,14
1517205901373186,-4,14,63,5,1,-4,-31,-26
1517205901373186,-15,-63,-96,-18,-7,-5,1,5
1517205901394199,11,27,31,2,1,0,1,-11
1517205901394199,1,-14,39,4,1,-1,2,14
1517205901395701,-9,-6,-27,-2,-4,-1,-3,5
1517205901395701,14,9,15,-7,1,2,3,16
1517205901408230,-18,2,-70,-4,0,0,-14,-55
1517205901408230,11,20,17,24,1,0,-7,-1
1517205901422724,-15,-19,-43,-49,-7,-2,30,44
1517205901422724,17,15,44,27,4,2,-17,-18
1517205901431726,4,28,-14,0,0,-1,-17,-10
1517205901431726,-3,4,-40,-3,0,-3,-4,-24
1517205901433227,14,31,70,17,1,2,18,2
1517205901433227,10,0,-16,1,4,3,-23,12
1517205901454242,-12,-12,25,-4,-7,-9,0,15
1517205901454242,-17,10,-43,-13,-2,3,13,35
1517205901455744,5,2,27,9,2,1,-13,-51
1517205901455744,-29,-3,-8,11,6,-1,9,-5
1517205901468252,-6,-30,-20,-26,-12,-5,0,10
1517205901468252,1,14,-13,-2,2,-2,4,-2
1517205901475267,-4,-16,-26,-9,-5,-5,0,13
1517205901475267,14,9,45,26,4,1,8,-3
1517205901491279,-3,2,-18,-9,1,2,0,-4
1517205901491279,-23,-26,16,-15,-7,-4,3,-9
1517205901493280,10,5,-23,1,3,5,12,20
1517205901493280,26,14,18,9,0,0,-2,17
1517205901521790,-16,14,5,10,5,1,11,12
1517205901521790,-2,7,10,-15,-8,-5,-24,-32
1517205901523292,13,9,23,9,1,-2,1,-5
1517205901523292,-8,-20,-11,-3,0,-1,7,19
1517205901528300,12,19,-11,3,-4,-3,-10,6
1517205901528300,-2,-15,-8,-20,-2,-5,0,-4
1517205901535344,-15,-12,-10,7,-1,-2,-3,-2
1517205901535344,7,12,34,9,4,0,0,-7
1517205901558831,6,-2,-20,-10,-2,-2,2,7
1517205901558831,-1,5,7,10,0,-2,-3,-14
1517205901560817,2,-4,-30,-5,-2,1,0,18
1517205901560817,-6,2,-23,-12,-1,-1,4,-7
1517205901581854,-2,18,32,11,1,0,-1,-1
1517205901581854,0,-10,-16,-2,-1,-1,-2,4
1517205901588338,10,13,27,2,0,-1,1,2
1517205901588338,-14,-44,-28,-20,-10,-6,-4,-9
1517205901589338,-3,-15,-28,4,1,-1,-2,-4
1517205901589338,4,13,33,-2,-4,-4,-3,0
1517205901596843,-6,-16,-9,-3,-1,0,-1,1
1517205901596843,-5,-20,-16,11,1,1,0,-7
1517205901611852,-2,7,-5,-17,-4,-3,-5,2
1517205901611852,3,-3,15,7,3,2,2,10
1517205901613853,-4,11,10,-1,-2,-1,1,-20
1517205901613853,-4,-3,-6,1,2,3,5,8
1517205901641374,0,-17,-12,-1,-3,-4,-11,-18
1517205901641374,1,9,6,17,2,3,2,4
1517205901642877,10,-12,-14,-14,-2,-2,0,3
1517205901642877,-3,13,1,-7,-3,-7,-3,-6
1517205901647878,-1,-3,6,7,1,0,2,0
1517205901647878,-5,-3,-13,-19,-3,0,-1,4
1517205901656885,-3,-3,13,11,2,0,0,4
1517205901656885,5,-10,20,-3,-2,1,6,26
1517205901671396,1,5,14,4,1,0,-16,-47
1517205901671396,-5,-6,-50,-7,-5,-4,-3,-10
1517205901673400,-1,-3,8,3,2,0,8,6
1517205901673400,1,11,-6,-10,-1,-2,15,11
1517205901693914,-3,3,3,10,1,0,-11,27
1517205901693914,7,-2,-13,1,0,-2,-16,-9
1517205901695412,-8,-44,15,3,-2,1,10,33
1517205901695412,3,21,-24,-18,-5,-2,-19,-62
1517205901707432,-5,-47,-40,-7,-2,-3,12,15
1517205901707432,-7,21,80,22,2,-2,4,-4
1517205901716939,-5,-19,-71,-7,-5,-5,-2,4
1517205901716939,1,18,33,9,2,5,2,1
1517205901731449,-4,-18,-16,-15,1,2,8,10
1517205901731449,8,20,44,-6,0,-2,-14,2
1517205901732938,-10,4,-3,10,3,5,21,0
1517205901732938,-12,6,-52,-9,-7,-5,-11,-14
1517205901753963,-4,7,-18,-8,-5,-2,5,-14
1517205901753963,9,0,-3,5,1,-1,10,25
1517205901755456,-19,12,15,-5,-3,-3,-16,-21
1517205901755456,-12,12,23,2,-1,-3,2,8
1517205901776469,-1,-4,1,11,0,-1,0,9
1517205901776469,-4,-29,-19,-17,-4,-1,4,-14
1517205901777972,3,5,-10,-4,-1,-4,-15,-10
1517205901777972,3,-1,-1,-2,-1,0,-2,4
1517205901798988,4,13,15,6,1,1,3,-1
1517205901798988,-1,-16,-7,3,0,0,4,1
1517205901800487,9,8,-7,-3,-1,-1,-2,-1
1517205901800487,4,-10,-1,-3,-1,-1,-2,0
1517205901814050,1,7,8,4,-1,0,0,6
1517205901814050,4,4,16,3,1,2,5,7
1517205901815497,3,4,6,-4,-1,-1,-10,-14
1517205901815497,-3,-8,-20,-2,-1,-4,-2,-2
1517205901836514,2,12,6,-1,-3,-3,5,4
1517205901836514,-7,-3,-5,-1,1,-1,-4,-11
1517205901838015,4,6,4,4,-1,-1,2,4
1517205901838015,1,-8,20,8,1,0,0,2
1517205901851541,1,4,-5,-6,-2,-2,-3,-2
1517205901851541,0,1,-8,-4,-4,-1,0,-3
1517205901853023,1,9,0,-6,-2,-2,-3,-1
1517205901853023,1,0,-6,-1,0,0,0,-4
1517205901875556,-1,4,16,4,1,1,-1,7
1517205901875556,0,1,-11,-3,-1,-2,-2,-4
1517205901877040,-2,-3,-7,-1,-1,0,-1,-3
1517205901877040,0,0,14,1,0,-2,-3,0
1517205901888049,-5,2,6,2,-1,-3,-3,-7
1517205901888049,0,-2,-22,0,-3,0,1,0
1517205901896554,0,-8,-27,-17,-4,-1,0,0
1517205901896554,-3,-1,44,6,-4,-2,0,2
1517205901911567,-2,-5,-6,8,-1,-1,-2,-2
1517205901911567,3,3,-9,-22,3,2,2,0
1517205901913066,1,-2,15,17,4,0,0,1
1517205901913066,0,5,-34,-12,-1,-2,-1,-1
1517205901934096,2,3,7,-3,-4,-1,0,1
1517205901934096,-5,-6,-4,15,-1,-1,-2,-4
1517205901935582,-2,2,-1,-40,-4,0,-2,-1
1517205901935582,1,-2,7,22,0,-1,0,-1
1517205901947624,2,7,-5,9,0,-4,-2,-2
1517205901947624,-2,1,-15,-14,-2,-2,0,-1
1517205901956629,0,-13,4,4,0,1,-2,0
1517205901956629,-3,-4,4,6,-2,0,0,0
1517205901971640,-1,12,6,-5,0,0,-1,-1
1517205901971640,11,-7,-1,3,0,-2,-2,2
1517205901973142,-11,-5,-18,4,-4,-4,-2,-5
1517205901973142,2,-3,6,-13,-2,-1,-2,0
1517205901994167,0,7,1,3,1,-1,0,0
1517205901994167,-5,-6,2,0,0,-1,0,-1
1517205901995669,8,1,9,6,1,0,0,-1
1517205901995669,-1,-3,-17,-16,-1,0,-1,0
1517205902007668,-3,-3,0,24,-3,-3,-4,-3
1517205902007668,1,8,11,10,-1,0,1,0
1517205902016694,-7,-9,4,-22,-7,-4,-4,-4
1517205902016694,-3,0,-8,-4,1,0,0,0
1517205902031694,0,-10,-13,-23,0,2,1,4
1517205902031694,-5,-3,14,8,-2,-3,-4,-2
1517205902033185,2,4,-3,15,0,0,-2,0
1517205902033185,3,5,9,-7,0,3,1,1
1517205902054704,8,4,1,-6,0,-1,-1,0
1517205902054704,-8,-8,-15,-2,0,1,-1,-2
1517205902055702,-1,0,3,3,-1,-3,-2,-2
1517205902055702,1,-2,-7,-5,-2,0,0,-2
1517205902076739,-4,-5,1,2,0,2,-1,0
1517205902076739,0,2,0,-4,-1,-1,-2,0
1517205902078217,3,0,1,3,0,-2,0,0
1517205902078217,-2,1,2,7,0,-2,0,-1
1517205902091241,-3,-4,-6,-9,-1,-1,-1,-1
1517205902091241,-3,-4,0,-8,-3,-1,-2,-3
1517205902097740,0,3,0,3,0,1,-2,0
1517205902097740,-2,-6,-6,-1,-2,-2,-3,-1
1517205902114241,-3,-5,2,-6,-1,-1,-1,0
1517205902114241,0,2,2,-2,-2,0,0,-2
1517205902115745,-1,-2,-1,4,-1,-3,-1,-1
1517205902115745,-4,0,-5,-1,-1,0,1,-3
1517205902136777,1,-2,2,-3,0,-1,-2,0
1517205902136777,1,-2,1,-1,-3,-2,-1,-1
1517205902138259,-2,2,1,3,2,0,1,0
1517205902138259,-1,-4,-4,-5,-4,-1,-1,0
1517205902150769,-3,-3,-1,-1,0,-2,0,-1
1517205902150769,-3,-3,-6,-3,-1,-4,-2,-2
1517205902157786,0,-2,-1,-1,-1,-3,-2,-1
1517205902157786,1,-2,-1,0,-1,-2,-1,-1
1517205902173784,-1,-1,1,1,-1,0,-1,-2
1517205902173784,-1,-1,-4,-3,-2,0,-1,-2
1517205902175784,-1,-2,1,-1,-2,-1,-1,0
1517205902175784,1,2,1,0,0,0,1,0
1517205902196317,-2,-1,1,-1,-2,1,-1,-1
1517205902196317,-2,-2,-2,-3,0,-1,-1,0
1517205902198300,-1,1,1,1,0,-1,0,-1
1517205902198300,0,-3,-3,1,-1,-2,-1,-2
1517205902210872,0,-1,1,-1,1,-1,0,-3
1517205902210872,-3,-3,-3,-2,-1,-2,-1,-2
1517205902217878,-1,-1,-1,1,0,-2,-1,-1
1517205902217878,-2,2,-1,0,0,0,-3,1
1517205902233889,-1,-3,-2,-2,-2,0,-1,0
1517205902233889,0,-1,0,0,0,-1,-1,-1
1517205902235379,-1,0,0,-2,-1,1,0,-2
1517205902235379,-3,-2,-1,-1,-2,-2,-2,0
1517205902256393,-3,-3,-1,0,-3,-2,-2,-2
1517205902256393,0,-2,-3,-1,-1,-1,-1,0
1517205902257896,-2,-2,-1,-1,0,0,0,-2
1517205902257896,-1,-2,-3,-3,-3,-1,-1,-2
1517205902270942,-3,-1,-1,-2,0,-1,-1,-1
1517205902270942,2,0,-1,-1,-2,2,0,0
1517205902277445,-2,0,-3,-1,1,0,-2,0
1517205902277445,0,-2,-1,0,-2,-3,0,-1
1517205902293957,0,0,-1,-1,-1,-1,2,0
1517205902293957,-4,0,0,0,-1,-3,-2,-2
1517205902295459,0,-3,-4,-2,-2,-2,-1,-1
1517205902295459,-1,-2,1,0,0,2,-1,0
1517205902316532,0,-3,-2,-2,-3,-1,-2,-1
1517205902316532,-1,-2,-2,-1,-3,-3,0,0
1517205902318019,0,2,0,-2,-1,1,-1,0
1517205902318019,-1,-2,-1,-1,0,-4,-2,-1
1517205902331028,0,0,-1,0,-1,-1,0,-1
1517205902331028,-1,0,-1,1,-2,1,-1,0
1517205902338033,-2,-2,-2,-4,-3,-4,-3,-1
1517205902338033,-2,1,0,-1,1,0,-1,-1
1517205902354044,-2,-3,-2,-4,-2,-3,-3,-3
1517205902354044,-1,0,-2,-1,0,0,0,-1
1517205902355546,-2,-1,1,1,-1,-1,1,-1
1517205902355546,-1,-3,-3,-3,-3,-3,-1,-3
1517205902376574,-1,-1,0,0,0,2,0,-3
1517205902376574,-1,1,-2,1,-2,1,-1,0
1517205902378071,-2,-2,-2,-1,0,-2,-3,-3
1517205902378071,0,0,1,0,0,0,0,0
1517205902391570,-1,-2,0,0,-2,-2,-1,-1
1517205902391570,0,-2,0,-2,-1,-1,-2,-1
1517205902397585,-1,0,0,0,-1,-1,0,-2
1517205902397585,-1,0,-1,-2,-1,0,0,-2
1517205902421592,-1,0,-1,-1,-2,-1,0,-1
1517205902421592,-1,0,-2,-2,0,0,-2,0
1517205902423093,0,0,0,1,1,1,-1,-3
1517205902423093,-2,-2,-3,-2,-1,-1,0,1
1517205902436142,0,0,0,0,-1,-1,0,0
1517205902436142,-2,-3,-2,-2,-2,0,-2,-1
1517205902442609,0,0,0,0,-1,-2,-1,1
1517205902442609,-1,-2,0,-1,-2,0,-2,0
1517205902450666,-1,-1,0,0,1,0,-1,-2
1517205902450666,1,-1,2,-3,-1,-1,-1,-1
1517205902457694,1,-2,0,-1,0,-1,0,0
1517205902457694,-1,-2,-4,-3,0,-3,-1,-2
1517205902474201,-2,-1,-2,-1,-2,-2,-1,0
1517205902474201,-1,-1,0,0,0,0,0,-2
1517205902475703,0,0,-1,-1,-2,1,-1,0
1517205902475703,0,-1,0,-1,-2,-2,-1,-2
1517205902496717,-1,-1,-1,-3,-2,1,-1,0
1517205902496717,-2,-2,-2,-1,-1,-2,-2,-1
1517205902498219,-1,-1,0,-2,-1,-1,0,0
1517205902498219,-1,0,0,-1,-1,-3,-2,-1
1517205902510727,-1,-2,-2,-1,-1,-2,-1,-1
1517205902510727,-2,-1,-1,-1,-2,-2,1,0
1517205902517733,-2,-1,-1,-1,-1,0,1,-1
1517205902517733,0,1,-1,-1,-1,-1,-2,-1
1517205902534243,0,-2,-2,-3,-1,-2,-3,-1
1517205902534243,-1,-1,-1,-1,2,0,0,-1
1517205902535750,-1,-3,-2,-1,0,1,-1,0
1517205902535750,-1,-1,-2,-1,-1,0,-2,0
1517205902556762,-1,0,1,-2,0,-2,-1,-1
1517205902556762,-1,-1,-1,-2,-1,-1,-1,-1
1517205902558261,-1,0,-3,-1,-2,-1,-1,-1
1517205902558261,-2,-1,0,0,-1,0,-1,-2
1517205902570269,-2,-1,-2,1,-1,1,-1,0
1517205902570269,-2,-2,-1,-1,-1,-2,0,-1
1517205902579276,0,-2,0,-1,0,-1,0,-2
1517205902579276,0,-1,0,-3,-1,0,0,0
1517205902593806,-1,0,0,-1,0,-3,-2,-1
1517205902593806,1,-1,0,-1,-2,-1,-1,0
1517205902595787,0,1,-1,-1,-1,0,-2,-1
1517205902595787,-1,-1,0,0,0,-1,-1,1
1517205902616302,-1,-2,-1,-2,-1,-2,-1,-2
1517205902616302,-3,-1,-2,0,-1,-1,-3,0
1517205902618303,-2,-2,-2,-1,-2,-3,-2,-1
1517205902618303,-1,-2,0,-1,-2,-1,-1,-1
1517205902639319,-1,-2,-1,-1,0,-1,-1,-1
1517205902639319,1,-2,0,-1,-2,-1,-1,-1
1517205902640318,-3,-1,0,-1,-1,0,-1,-2
1517205902640318,-1,-1,-1,-1,-1,-2,1,-2
1517205902653888,-2,-2,-2,-1,-1,-1,-1,0
1517205902653888,1,-2,-1,-2,-2,-2,-1,-2
1517205902655830,-1,-2,-2,-2,-2,0,-1,-2
1517205902655830,-2,-2,0,-2,-1,-1,0,0
1517205902676344,-3,-2,-1,1,-2,1,-2,-1
1517205902676344,0,-1,-1,0,-2,-1,-1,0
1517205902677845,-1,-2,-1,0,-2,-1,1,-1
1517205902677845,-1,-2,-4,0,0,0,-1,0
1517205902690354,0,-1,-1,-2,1,-2,0,0
1517205902690354,-2,1,-1,-1,-1,-2,1,-2
1517205902698860,-1,-3,0,0,-1,-2,0,0
1517205902698860,0,-2,-1,0,-1,0,-2,-2
1517205902713870,-1,-2,0,0,-2,-1,0,0
1517205902713870,-1,0,-2,-1,1,-1,-1,1
1517205902729381,0,0,-1,-2,-1,0,-1,2
1517205902729381,-1,-1,-2,-2,-1,-1,-1,0
1517205902736389,-1,-3,-1,1,0,-3,-2,-2
1517205902736389,-1,-1,0,-2,-1,-2,1,-3
1517205902737889,1,1,0,-1,-1,-1,0,-1
1517205902737889,-2,1,0,-2,-1,0,-1,-1
1517205902749899,0,2,0,1,-2,-1,1,-1
1517205902749899,-2,0,-2,-1,-1,0,-2,1
1517205902758903,0,-1,-1,-2,0,-1,-2,-1
1517205902758903,-1,-2,-2,-2,0,0,-2,-1
1517205902773924,-1,0,-1,-2,0,1,-1,-2
1517205902773924,-2,-1,0,0,-2,-1,-2,0
1517205902775414,-1,1,0,1,-1,-1,0,-1
1517205902775414,0,-3,0,0,0,-2,-1,0
1517205902796429,-1,-1,-1,-3,0,-1,-1,0
1517205902796429,0,0,0,-2,-1,2,-1,-1
1517205902797931,0,-3,-1,-2,-2,-2,-1,1
1517205902797931,-1,-2,0,-1,-2,-2,0,-2
1517205902818459,-1,-1,-2,-2,-1,-1,0,0
1517205902818459,-2,1,0,-1,-1,-1,-1,-1
1517205902818946,-1,-1,0,-1,-1,-1,-2,-3
1517205902818946,-1,0,-2,0,-2,0,-1,0
1517205902834981,0,-2,-2,-1,-2,-2,0,0
1517205902834981,-2,-2,-1,-2,-1,-1,-1,0
1517205902835458,-2,1,-1,0,-1,-2,-1,-1
1517205902835458,-1,-1,0,0,0,-2,-1,0
1517205902855516,-1,0,-2,-3,-3,1,-2,-1
1517205902855516,-1,-2,-2,0,-2,-2,-1,-3
1517205902863534,-2,-1,-1,-3,0,1,0,-1
1517205902863534,0,0,-2,0,-2,-1,-2,-1
1517205902878531,-2,0,-1,0,0,0,-3,1
1517205902878531,0,-3,-1,-2,-1,-2,0,-1
1517205902879033,-1,0,-2,-1,-2,-2,-1,-1
1517205902879033,0,-1,-1,-1,-2,-1,-1,-2
1517205902894563,1,0,-1,0,0,0,0,0
1517205902894563,-1,-1,-1,-1,-2,-1,-1,-1
1517205902895548,0,-3,0,-1,-1,-2,-2,-2
1517205902895548,-1,-1,-2,-1,0,-2,0,0
1517205902916070,-1,2,0,-1,-1,-1,-1,-3
1517205902916070,-2,-2,-2,0,1,1,-2,1
1517205902923563,-2,-1,-1,-2,-3,0,-2,-1
1517205902923563,-3,-1,-1,-1,-1,-1,1,0
1517205902938079,-1,-2,-1,-2,-1,-1,-2,-2
1517205902938079,0,0,-1,0,0,-1,-1,0
1517205902946079,1,-1,-1,-1,-1,-1,0,-1
1517205902946079,-3,-1,-1,-2,-1,-1,-2,-1
1517205902953110,0,-2,0,0,-2,2,-1,-2
1517205902953110,0,-1,-1,0,-1,-1,-1,-2
1517205902954086,-2,-2,-3,-1,0,-3,-1,0
1517205902954086,1,-2,-1,-2,-2,0,1,-1
1517205902976100,0,1,0,1,0,-2,0,0
1517205902976100,-1,-3,0,-1,-2,0,-1,-1
1517205902976607,-1,-2,-1,1,-1,2,-1,0
1517205902976607,1,-1,-1,-1,0,-1,-1,-2
1517205902998615,-3,-2,-2,-1,-2,0,-1,-2
1517205902998615,-1,-2,-1,-3,0,-3,0,-1
1517205902999117,-2,0,0,0,-2,-2,-1,0
1517205902999117,-3,0,-1,0,-2,1,0,-2
1517205903013127,-1,-1,-2,-2,-1,-1,-2,0
1517205903013127,-1,-1,0,-1,-2,1,0,-1
1517205903014128,-1,-4,0,0,-1,-2,-1,-1
1517205903014128,0,-3,-1,0,-2,-1,-1,-1
1517205903035644,0,-2,-1,0,-1,-1,-2,1
1517205903035644,-2,-1,-2,-1,-1,-2,-2,-2
1517205903036677,-1,1,0,-2,0,1,-3,0
1517205903036677,-1,0,0,0,-1,-2,-1,-2
1517205903058161,0,-3,-1,-1,0,-2,-1,-1
1517205903058161,0,0,-1,-2,-1,-2,-2,-1
1517205903059160,0,-1,1,-1,-1,-1,-2,-1
1517205903059160,0,-1,-1,-2,-2,-1,-3,-2
1517205903073670,-1,-1,0,-1,-1,-2,-1,-2
1517205903073670,-2,-2,-2,-1,-2,-1,0,0
1517205903074173,-1,-3,-2,-2,0,0,0,0
1517205903074173,-1,0,-1,-2,-1,1,-1,0
1517205903095710,0,-1,-1,-1,0,-2,-1,-1
1517205903095710,0,0,-1,0,0,-1,-1,-2
1517205903096687,-1,-2,-4,0,2,-1,1,-2
1517205903096687,-2,-1,0,0,0,-2,-1,-1
1517205903118202,-2,-1,-1,-2,-1,-1,0,-2
1517205903118202,-1,-2,-1,-1,-2,0,-2,0
1517205903119203,-1,1,1,-1,-1,-1,-1,-2
1517205903119203,-1,-2,-1,-1,-2,-1,0,-2
1517205903133712,0,0,-1,0,-2,0,0,-1
1517205903133712,-2,-1,-1,-1,-2,-1,0,-3
1517205903134219,-1,-1,-1,-2,-1,-1,-2,-1
1517205903134219,-1,-1,0,0,-1,-1,-2,0
1517205903156230,-2,0,-1,1,0,0,-1,0
1517205903156230,1,-1,-3,-1,-1,-1,0,0
1517205903156734,0,-1,-3,-1,-2,0,0,0
1517205903156734,-2,-1,-2,-1,1,-2,0,0
1517205903186444,-2,-1,-2,-1,-2,-1,0,-1
1517205903186444,0,1,0,1,-2,-3,-2,-2
1517205903187422,0,-1,1,-1,0,-3,-2,2
1517205903187422,-1,-1,1,-3,-1,0,-1,-2
1517205903193424,-2,-2,-1,-2,-1,-1,-1,-2
1517205903193424,-2,-2,0,-2,-2,-1,-2,0
1517205903193925,-1,-3,-1,0,-2,-2,0,0
1517205903193925,-2,-1,-2,-1,-2,-1,-1,-1
1517205903215442,-1,-2,-2,-2,1,-1,-2,-1
1517205903215442,-1,-1,-1,-2,-1,-1,-2,-2
1517205903223450,0,-1,-2,-1,-3,-1,0,0
1517205903223450,0,-3,-2,0,-1,-1,-2,0
1517205903246480,1,0,-1,1,-1,-1,0,-1
1517205903246480,0,-1,-2,-2,0,-1,-1,1
1517205903247466,-2,0,-1,-2,0,-1,-1,-2
1517205903247466,-1,-2,-2,-1,0,-1,-1,-2
1517205903253487,0,0,-1,-2,-2,-3,-1,-1
1517205903253487,-1,-2,0,-1,1,1,0,0
1517205903253967,-1,-1,-1,0,-2,-1,-2,-1
1517205903253967,0,0,-3,-1,-1,0,-2,-1
1517205903275982,-2,1,-1,-1,0,0,-3,-1
1517205903275982,-1,0,-1,-2,-2,-2,-1,-2
1517205903276485,-1,-1,-2,-1,-2,0,-1,-1
1517205903276485,-2,-2,0,0,-1,-2,-1,0
1517205903306555,-1,-1,-1,-1,-3,-1,-2,0
1517205903306555,0,0,-1,0,0,-2,0,-2
1517205903307558,-1,-2,0,-1,0,0,-3,0
1517205903307558,-1,-1,-1,-2,-1,-1,-2,0
1517205903313079,-2,-3,-2,-2,-2,-1,-1,-3
1517205903313079,-1,1,-2,-1,-1,-2,-1,0
1517205903314066,-2,1,-1,-2,-1,0,1,-1
1517205903314066,-1,-1,-1,-1,0,-1,-1,-1
1517205903335580,-1,-2,-2,-1,0,-2,-1,-1
1517205903335580,-1,-1,-1,-1,-2,-1,0,-1
1517205903336579,0,-1,-1,-1,-1,-1,-1,-2
1517205903336579,0,1,-2,-2,-2,-1,-1,-1
1517205903358594,1,-1,-1,0,-1,0,1,-1
1517205903358594,-1,-3,-1,0,1,-1,-1,-1
1517205903359095,-1,-1,-1,-2,0,-1,0,-1
1517205903359095,-2,0,-2,0,-1,-1,-1,-1
1517205903372609,-1,-1,0,-2,0,-4,-1,0
1517205903372609,0,-1,0,-2,-2,-2,0,-2
1517205903381110,-2,-2,-1,0,-2,0,-2,-2
1517205903381110,-1,-1,-2,0,-1,-3,-1,-1
1517205903396121,-2,0,-1,-1,0,0,-2,1
1517205903396121,-1,-3,-1,-3,-2,0,0,-1
1517205903396626,-1,-1,-1,-1,-1,-2,-3,-1
1517205903396626,-3,-1,-2,-1,-1,-1,-2,-2
1517205903418637,0,0,0,-1,-1,-2,-1,-1
1517205903418637,-1,-1,0,0,0,0,-1,0
1517205903419139,-1,0,-2,-1,-2,-2,0,0
1517205903419139,0,-1,-2,0,-1,0,0,1
1517205903433147,-1,0,-3,-1,-1,0,-1,-2
1517205903433147,-3,0,0,1,-1,-1,-1,-2
1517205903434149,-1,-1,-2,-2,1,-3,0,0
1517205903434149,0,-2,1,0,0,-2,0,-2
1517205903455664,-2,-3,-1,0,-1,-1,-1,0
1517205903455664,-1,-1,-2,-2,0,-1,-1,0
1517205903456663,-1,-1,0,0,0,-1,-1,-1
1517205903456663,-1,-2,-1,-1,-1,-2,-1,0
1517205903478198,-1,-1,-1,1,-2,1,-1,0
1517205903478198,0,-1,-2,-2,0,0,-1,0
1517205903479184,-1,-2,0,-2,-3,-3,0,-1
1517205903479184,-1,-2,-1,-2,0,1,-1,-2
1517205903501696,-2,-2,-2,-3,0,-2,0,-2
1517205903501696,-1,-2,0,-1,-1,-2,-1,-3
1517205903502196,-2,0,-2,0,0,0,0,0
1517205903502196,1,-1,0,-2,-1,-1,-1,-1
1517205903515724,0,-1,0,0,-2,-2,-2,0
1517205903515724,-1,0,0,-2,-3,-2,-2,-2
1517205903516727,-1,-1,-1,-1,-2,-1,0,0
1517205903516727,0,-2,-1,-2,-2,-2,-1,-1
1517205903538221,-1,0,-1,0,1,0,-1,-1
1517205903538221,-3,0,-1,-1,-1,-2,-1,-1
1517205903539223,-2,-2,-1,-1,0,-1,-1,-2
1517205903539223,-1,-1,0,0,-1,-2,-1,-2
1517205903554233,-1,0,-2,-2,0,-1,0,-1
1517205903554233,-1,-1,-1,-1,-1,1,0,0
1517205903560738,0,-1,0,-1,-1,0,0,2
1517205903560738,-2,0,-2,-1,0,-2,-2,-1
1517205903584254,-2,0,-1,-1,-3,-1,-3,-2
1517205903584254,-2,-2,-3,-2,-1,-2,1,-1
1517205903584764,-1,-1,-2,-2,-2,-2,-2,-1
1517205903584764,0,-1,-1,0,-3,0,0,0
1517205903598280,0,-2,-1,-2,-2,-1,1,0
1517205903598280,-1,-1,-3,-1,-2,-2,-1,0
1517205903599264,-1,-1,-1,-1,-2,-2,0,-2
1517205903599264,-1,-3,-2,-1,0,-2,0,0
1517205903612774,-3,-1,-1,0,-1,-1,0,-1
1517205903612774,-1,0,0,-1,-1,-1,-2,0
1517205903620779,0,-1,-2,-1,0,-1,-1,-2
1517205903620779,0,1,-2,-1,-1,-1,-2,0
1517205903635806,0,-2,-1,-1,-1,0,-1,-1
1517205903635806,0,0,-1,0,1,0,-4,-3
1517205903636790,-1,0,-1,1,0,0,0,-3
1517205903636790,0,-1,1,0,-1,-1,-1,0
1517205903666311,0,-1,-2,-1,-2,-2,-2,-2
1517205903666311,0,0,-1,0,-1,-1,0,-1
1517205903667313,1,-1,-1,-1,0,-2,-1,0
1517205903667313,-1,0,0,-1,0,1,0,0
1517205903672816,-1,-2,-1,0,-1,-2,0,-1
1517205903672816,-2,-3,-3,0,-1,0,0,-1
1517205903680822,-2,-1,-2,-1,0,-1,-1,-1
1517205903680822,-2,-3,-2,-1,-2,0,-1,-1
1517205903695834,-2,0,-1,-1,1,-1,-1,-1
1517205903695834,-1,-1,0,-2,-1,-2,-2,-1
1517205903696335,0,-2,-1,-1,-1,-1,-2,-1
1517205903696335,-1,-2,-1,-2,-2,-1,-1,-1
1517205903726356,0,-1,-3,0,-2,-1,-2,-3
1517205903726356,0,-3,-2,0,-2,0,-1,-2
1517205903727356,-1,-1,0,-2,-1,-1,0,1
1517205903727356,-2,-2,0,-1,-1,-2,-1,0
1517205903732362,1,-1,-1,-2,-1,0,1,0
1517205903732362,-1,1,0,0,0,-2,-2,0
1517205903740866,-1,-1,0,-1,-2,1,-2,-3
1517205903740866,0,0,0,0,0,0,-1,-2
1517205903755876,-1,-2,0,-1,-1,1,0,-2
1517205903755876,0,-1,-1,-1,-1,-1,-1,-1
1517205903756376,-1,1,-2,0,-1,0,0,-1
1517205903756376,-2,0,-1,-3,1,-2,-1,0
1517205903778393,0,-1,-2,0,0,-2,-2,0
1517205903778393,-1,-2,-3,-4,0,0,1,-1
1517205903778892,0,-2,-1,-1,-3,-1,-1,-1
1517205903778892,-1,1,0,0,-2,-1,-1,-2
1517205903792401,-1,-1,1,-1,-2,-1,-1,0
1517205903792401,-1,-1,-1,-1,0,-1,0,-2
1517205903800906,-2,-2,-2,0,-1,-2,-1,0
1517205903800906,-2,-3,-2,-1,-1,-2,0,-1
1517205903815926,0,0,1,-2,-1,-2,-1,0
1517205903815926,-3,0,-2,-2,-1,-5,-1,0
1517205903816417,1,-1,-1,-1,-2,0,0,-1
1517205903816417,0,0,-2,1,-2,-3,0,-1
1517205903838434,-3,-2,0,0,-1,1,-2,0
1517205903838434,-1,0,0,0,-2,0,-2,-1
1517205903838934,0,-1,0,-1,-2,-1,-2,-2
1517205903838934,-1,-2,-2,-1,0,-2,0,-2
1517205903852444,-1,0,-2,-2,-1,-1,0,-1
1517205903852444,0,0,-1,0,-1,1,-1,0
1517205903860962,-1,-2,0,1,0,-2,-2,-1
1517205903860962,1,-1,0,-1,-2,-3,-2,-1
1517205903875960,0,1,0,-1,0,-1,0,0
1517205903875960,0,0,-2,0,-1,-1,0,-1
1517205903876461,0,-1,-1,-1,-2,-1,1,0
1517205903876461,-1,0,-1,-2,-1,0,-2,0
1517205903898476,-1,-2,-2,-1,0,-1,-1,-1
1517205903898476,0,-2,-1,-2,-1,-1,-1,-1
1517205903898982,-3,-1,-1,-1,-1,-1,0,0
1517205903898982,0,0,-3,-2,0,1,0,-2
1517205903921994,1,-1,-2,-2,-2,-1,-1,0
1517205903921994,0,-3,-2,0,-2,-2,-1,-3
1517205903922493,-2,-1,-3,0,0,-2,-1,-1
1517205903922493,-1,0,-1,-3,0,-1,0,1
1517205903936507,-1,-2,-3,0,0,-1,-1,-2
1517205903936507,-2,-3,-1,-2,0,-1,-3,0
1517205903937004,-1,-2,-2,-2,0,1,-3,-1
1517205903937004,-2,1,-1,0,-2,0,-1,0
1517205903958519,-2,-1,-1,0,-3,0,0,-2
1517205903958519,-2,-1,0,-1,-1,0,-1,-1
1517205903959022,-1,0,-1,0,-1,-2,-1,-1
1517205903959022,-1,0,-1,1,-1,-1,0,-1
1517205903981547,-1,-2,0,-2,-1,-2,0,0
1517205903981547,-1,-1,-1,-1,-2,-1,0,0
1517205903982040,-1,-1,0,-1,0,1,0,-2
1517205903982040,-2,-2,-2,0,0,-1,-2,-1
1517205903995549,0,2,-1,-1,-1,0,-2,0
1517205903995549,-1,0,-1,-1,-2,-1,-1,-1
1517205903996546,0,-1,0,0,-1,-2,-1,0
1517205903996546,-2,-2,0,-2,-1,0,-2,-2
1517205904019585,-2,-3,-1,-1,0,-1,-1,-1
1517205904019585,-1,-1,-2,0,-1,-2,0,0
1517205904020062,0,-1,-2,0,-3,-1,0,-2
1517205904020062,0,-1,-3,0,-1,-1,-1,-1
1517205904041581,-1,-2,-1,-1,-1,-1,0,-1
1517205904041581,0,-1,-2,-1,0,0,0,-2
1517205904042078,0,-2,-3,-2,-1,-1,-1,-1
1517205904042078,-1,0,-2,0,-1,-2,-1,-1
1517205904056088,-1,-1,-1,-2,-1,-1,-4,-1
1517205904056088,-1,-1,0,0,-2,-1,1,-1
1517205904056088,-1,-1,-2,-2,-1,0,-2,-2
1517205904056088,0,-2,0,-2,-1,0,0,0
1517205904078782,-1,-1,-1,-2,1,-1,-2,-1
1517205904078782,-1,-1,0,-2,0,0,0,0
1517205904079770,-1,-3,-1,-1,2,-1,0,-1
1517205904079770,-1,-1,-1,0,-1,-1,0,-3
1517205904101294,-1,0,-2,0,-1,-1,0,1
1517205904101294,-2,-1,-1,0,-2,1,-1,-1
1517205904101785,0,-1,-1,-2,0,-2,-2,0
1517205904101785,-1,-2,-1,-2,-1,0,-2,-2
1517205904115820,-1,-1,-2,1,0,-2,0,0
1517205904115820,-1,0,-1,-2,-1,-2,-2,-3
1517205904116796,0,0,-1,0,-2,-1,-1,0
1517205904116796,0,-3,-3,-1,-2,-2,0,-2
1517205904139313,0,-2,0,-2,-2,-1,-1,-3
1517205904139313,-2,-2,-2,-2,-2,0,-1,1
1517205904139813,0,0,-2,-1,-1,-2,-1,-1
1517205904139813,-2,1,0,-1,-1,-2,-1,-1
1517205904161328,-2,-2,-2,-1,-1,-1,-1,0
1517205904161328,0,0,-2,0,-1,-1,0,-2
1517205904162331,-2,-1,-2,-1,0,-1,-2,1
1517205904162331,-1,0,-2,-1,-1,-1,-3,-1
1517205904175850,0,-2,-1,0,-1,0,-1,-3
1517205904175850,0,-3,-1,0,-3,-3,-1,-1
1517205904176838,-3,-2,0,-2,-2,0,-2,-1
1517205904176838,-2,0,-1,-1,-1,-2,0,0
1517205904198876,-1,-2,-3,-2,0,-2,0,-1
1517205904198876,-2,0,-2,-3,0,-1,0,0
1517205904199858,-2,0,-1,0,-1,0,0,-1
1517205904199858,-1,-1,-1,0,-2,-2,0,-2
1517205904221371,0,1,-1,1,-1,0,-1,0
1517205904221371,0,0,-1,0,0,-1,-1,0
1517205904222371,-3,-1,-3,0,-1,-1,-1,-1
1517205904222371,-1,-1,-1,-2,-1,0,-1,0
1517205904235901,-2,-2,-2,0,-3,-2,0,-2
1517205904235901,-1,0,0,-2,-1,-1,0,0
1517205904236384,-2,-1,1,1,0,-1,-1,0
1517205904236384,0,-1,-2,0,-1,0,-1,-1
1517205904258916,-3,-1,1,-2,-1,-2,-2,-2
1517205904258916,0,-1,-2,-2,-2,0,0,-3
1517205904259916,0,-2,-1,-2,-2,-2,0,-3
1517205904259916,-1,0,0,0,-3,0,-1,1
1517205904281452,-1,-2,-2,-1,-2,-2,-1,0
1517205904281452,0,-1,0,0,-1,0,-3,-1
1517205904282437,-1,0,-2,-2,-2,0,-1,-1
1517205904282437,-2,-1,-1,-1,0,-1,-2,-1
1517205904303974,-2,1,0,-2,-1,0,0,-2
1517205904303974,-1,-2,0,1,-1,-1,-1,-2
1517205904304948,1,-3,-4,-1,-2,-2,-2,-1
1517205904304948,-2,0,3,0,-2,-2,-1,-1
1517205904319479,-2,-2,-11,-3,-1,1,-2,-1
1517205904319479,-1,0,0,-2,0,-2,0,0
1517205904320459,0,1,0,-2,-2,-1,1,-2
1517205904320459,0,0,-2,0,-1,0,-2,0
1517205904341486,-1,-2,-2,0,-1,-1,-1,-2
1517205904341486,-1,-3,-2,-1,-2,-1,-2,-2
1517205904342477,-1,0,0,-2,-2,0,-1,-1
1517205904342477,-2,-3,0,-1,0,0,0,-1
1517205904355984,0,1,1,0,-1,-1,0,0
1517205904355984,0,-2,-3,0,0,-2,-3,-1
1517205904356486,-3,-2,0,0,-3,1,-2,-1
1517205904356486,0,-2,-2,-1,0,-1,-1,-2
1517205904379012,0,-3,0,-2,-1,-2,0,-3
1517205904379012,-1,-2,-1,-2,-1,-2,0,-1
1517205904379501,1,-1,2,-1,1,0,-1,0
1517205904379501,-1,-1,-3,-1,-1,-1,2,-1
1517205904401532,-2,-1,1,-1,-2,-1,-1,-1
1517205904401532,-2,-2,0,-2,-1,-2,0,0
1517205904402019,1,-1,-2,-2,-1,-2,0,-1
1517205904402019,0,0,-4,-1,-1,-1,-2,-1
1517205904415528,-1,0,1,0,0,0,-1,0
1517205904415528,-1,0,-1,-1,0,1,-1,1
1517205904416527,-2,-1,0,0,1,-1,-1,-1
1517205904416527,-1,-2,1,-1,-3,-1,-1,-1
1517205904438554,-1,-1,0,-1,-1,-1,-2,-2
1517205904438554,-1,-1,-1,-1,-1,0,-1,-2
1517205904439543,-2,-1,-4,-1,1,-2,-1,-1
1517205904439543,-1,0,1,-1,-1,-2,-1,-2
1517205904461562,1,1,3,0,0,-2,-2,0
1517205904461562,-1,-1,0,-1,-2,-1,0,1
1517205904462559,-1,-3,-7,-3,0,0,0,0
1517205904462559,-1,-1,0,-2,0,0,-1,-2
1517205904475589,0,0,-2,-1,1,0,0,1
1517205904475589,-1,0,1,-2,-1,1,0,-2
1517205904476572,-1,1,1,0,-1,-1,-2,-1
1517205904476572,-3,0,-3,-2,0,-1,-1,0
1517205904499090,0,-2,-2,-1,-2,-2,-2,0
1517205904499090,-1,-1,-2,-1,-1,0,-1,-1
1517205904499591,0,0,0,-1,-1,1,-2,-1
1517205904499591,-1,-3,-1,-2,0,0,0,1
1517205904520660,-2,-1,-3,-1,0,1,-3,-1
1517205904520660,-1,-1,-2,-2,0,-3,0,-2
1517205904528166,-1,-1,0,0,-2,-2,-3,0
1517205904528166,-1,-1,-1,0,0,-1,-1,0
1517205904535228,-2,-3,-1,-2,-1,0,0,-1
1517205904535228,-1,-1,-3,-2,-2,0,-1,-1
1517205904543196,-1,-1,-1,-1,1,0,-1,0
1517205904543196,0,-1,0,-1,-2,0,-2,-1
1517205904558689,-2,-1,1,0,-2,-2,-2,-1
1517205904558689,-1,0,-2,-2,-2,-1,-3,-1
1517205904559688,-1,0,-1,-1,-1,-2,0,-1
1517205904559688,-2,-1,-2,0,-2,0,0,-1
1517205904581706,0,-2,-2,-1,0,0,0,-1
1517205904581706,-1,0,0,1,1,-1,0,0
1517205904582704,-2,0,-1,-2,-1,-1,-2,0
1517205904582704,-1,-1,-1,-2,0,-1,-1,-2
1517205904595233,1,-1,-3,-1,0,0,0,0
1517205904595233,0,-2,-4,-1,0,-1,0,1
1517205904603218,-1,-2,-3,-2,-2,-1,0,1
1517205904603218,-3,-1,0,-1,-1,-2,-2,-1
1517205904618731,-1,0,0,0,-2,-1,-2,-2
1517205904618731,-1,-3,-2,-1,0,-1,-1,-2
1517205904619732,-1,-1,-2,1,-2,-3,0,-3
1517205904619732,1,-2,-1,-3,0,-1,-1,-1
1517205904641745,-1,-1,-1,0,-2,-2,0,0
1517205904641745,-2,-2,-1,-2,-2,0,-2,-2
1517205904642245,-1,-2,-1,-1,0,0,-2,-2
1517205904642245,0,-1,-2,0,-1,0,-1,0
1517205904655267,0,0,-2,-2,-1,0,0,-1
1517205904655267,-1,-1,-4,-1,-2,1,-1,-1
1517205904663279,-2,-1,0,-1,-1,-2,-1,-1
1517205904663279,0,-1,-1,-1,0,-2,-2,1
1517205904678774,-2,-2,0,-1,-3,0,-1,0
1517205904678774,-1,0,-1,0,-2,-2,0,-1
1517205904679772,-1,1,-1,-2,0,1,-2,-1
1517205904679772,-1,-2,-2,-1,0,-3,-2,0
1517205904701290,-1,-3,1,0,-1,-2,0,0
1517205904701290,0,-2,-2,-1,0,0,-1,1
1517205904702289,-2,-2,-1,-2,-2,-2,1,-1
1517205904702289,-1,-1,-2,0,-1,-1,0,-1
1517205904715297,-2,0,-3,-1,-1,1,-1,-1
1517205904715297,-1,-2,-1,-2,-2,-1,-1,-2
1517205904723325,-2,-1,0,0,0,-1,-1,0
1517205904723325,0,-1,-1,-1,-3,-1,-1,0
1517205904739315,1,0,-1,-1,-2,-3,-2,-2
1517205904739315,-2,0,0,-1,-1,0,-2,-2
1517205904740316,-1,-1,-1,-2,-1,0,0,1
1517205904740316,-1,-2,-2,-2,-1,-1,-1,-1
1517205904761331,-1,-2,-3,-1,-1,-1,0,-1
1517205904761331,0,1,0,-1,-2,-1,0,-1
1517205904762332,-3,-1,-1,0,0,-1,-1,-2
1517205904762332,-1,-2,-1,-2,-1,0,-2,-4
1517205904775340,0,-2,-1,-1,-1,-1,1,0
1517205904775340,0,-2,0,0,-2,-1,0,0
1517205904783366,2,-1,-1,-1,-1,0,-1,-1
1517205904783366,-1,0,-2,-1,-3,-3,-1,-1
1517205904798860,-1,-2,-1,-2,-3,-2,-4,-3
1517205904798860,1,-1,-1,-2,2,-1,-2,-2
1517205904799861,1,0,-1,0,-1,-2,-1,-2
1517205904799861,-2,-2,-2,-1,-1,0,-1,-1
1517205904821389,-2,-1,-1,-2,-2,-1,-1,-1
1517205904821389,-1,-1,-1,0,-2,-1,-1,0
1517205904822373,0,-1,-1,-1,0,0,1,-2
1517205904822373,-3,-1,-1,-1,-1,-3,-1,-2
1517205904834885,-1,-1,-2,-1,-1,-1,-1,0
1517205904834885,-2,-3,0,-3,-1,0,-3,0
1517205904843404,0,-1,-1,-1,-2,-2,-3,-1
1517205904843404,-2,-1,0,0,-1,-1,-1,1
1517205904858909,-2,-1,1,0,0,-1,-1,-1
1517205904858909,-2,0,-2,-2,-4,-2,0,-1
1517205904859899,0,-2,0,-1,-2,-1,0,-1
1517205904859899,0,0,-1,-2,-1,0,-2,0
1517205904880916,-1,-2,0,-1,0,0,0,-2
1517205904880916,0,-1,-1,0,-1,-1,-2,-2
1517205904881915,-3,-3,-2,-1,-1,-1,-2,-2
1517205904881915,-1,-1,0,1,-1,-2,-1,-2
1517205904911437,0,-1,-1,-3,-1,-1,0,-1
1517205904911437,-1,1,-1,0,-3,0,1,-1
1517205904912938,-2,-1,-2,-2,0,-2,-1,0
1517205904912938,-1,-1,-1,-2,1,-2,-2,-1
1517205904917442,-2,-2,1,1,-1,-1,-2,-1
1517205904917442,0,-1,-3,-1,0,-2,-2,-1
1517205904926446,-1,-1,-2,-2,-2,1,-1,-2
1517205904926446,0,0,0,0,-1,1,0,0
1517205904941458,-1,-1,-1,-2,1,0,-1,-1
1517205904941458,-2,-1,0,-1,1,-1,-1,-2
1517205904942959,-1,-1,0,-2,-2,-1,-1,0
1517205904942959,-3,-1,-2,-1,-1,0,-1,-1
1517205904962993,0,-1,-2,0,-4,-2,-1,-2
1517205904962993,-2,-1,1,2,-1,-1,1,-2
1517205904971479,-1,-4,-2,-1,-2,0,0,-2
1517205904971479,0,-2,0,-2,-2,0,-1,-1
1517205904977486,1,0,-2,-2,-1,-1,-1,0
1517205904977486,-2,-1,-2,-2,-2,0,-2,-1
1517205904986490,-2,-2,-2,-2,0,-1,-2,-1
1517205904986490,0,-1,-1,-2,0,-3,-2,-2
1517205905001500,-1,0,0,-3,0,0,0,-2
1517205905001500,0,-4,-1,0,-1,-3,-1,-1
1517205905003009,-1,0,0,0,1,-2,0,-1
1517205905003009,-1,-1,-2,-1,-2,-1,-1,-2
1517205905024017,1,0,-1,-2,-2,-1,-1,0
1517205905024017,1,0,0,-3,0,0,-2,-1
1517205905025518,0,-1,-1,-1,-1,-1,-1,0
1517205905025518,0,1,-1,-1,1,-1,0,0
1517205905038525,-3,0,-3,0,-2,-1,-2,0
1517205905038525,-2,-2,-1,-1,-2,0,-1,1
1517205905045040,-1,0,-1,-1,-1,-2,-2,0
1517205905045040,-2,-1,0,-2,0,1,0,-2
1517205905061556,0,-2,0,-2,-3,-2,-2,-1
1517205905061556,1,-1,-2,-1,0,1,0,-1
1517205905063060,-2,-1,-2,0,0,-1,-1,-1
1517205905063060,-1,-1,0,-2,-1,-1,0,-1
1517205905084558,0,-2,-1,-2,-1,0,-1,-1
1517205905084558,-1,-1,-2,-1,-2,0,-2,-2
1517205905086076,0,2,0,-1,-2,-2,0,-2
1517205905086076,-1,-1,0,0,-3,0,-1,0
1517205905106575,-2,-2,-1,-1,1,-2,-1,-2
1517205905106575,-1,-1,0,-2,0,0,-1,-3
1517205905108076,-1,-1,1,0,-2,-1,0,-1
1517205905108076,-1,-2,-1,-1,0,-1,-1,0
1517205905121598,-1,1,0,-2,-3,-1,-1,0
1517205905121598,-1,1,-1,-1,-1,-1,-1,1
1517205905123087,-2,-1,-1,-2,0,-1,-3,-1
1517205905123087,0,0,-1,0,-2,-2,-1,-1
1517205905144110,1,-2,-2,0,-1,-2,0,0
1517205905144110,0,0,-2,-1,0,-2,0,-1
1517205905145612,-2,-1,0,-1,-2,-1,-2,-1
1517205905145612,-1,-1,-2,-1,-1,-1,-1,-1
1517205905158110,0,-2,-1,-1,0,1,-1,-2
1517205905158110,-1,-4,-2,0,-1,-4,-1,-1
1517205905165151,-1,-2,-2,-1,-1,-1,0,-1
1517205905165151,-2,-1,0,0,-2,-1,0,-2
1517205905181655,0,2,-1,0,0,-2,-2,-1
1517205905181655,-2,-2,-2,0,-3,0,0,-1
1517205905183156,-2,-1,-1,-2,-2,0,0,-2
1517205905183156,0,-1,-2,-2,-1,-1,-1,0
1517205905203674,-1,-1,-1,-2,-1,-1,-1,-2
1517205905203674,0,1,1,-1,-2,-1,-2,0
1517205905205673,-1,-1,-2,-1,-3,-1,-1,0
1517205905205673,0,-1,0,0,-3,-1,-1,0
1517205905218697,-2,-2,-1,0,-1,0,-1,-1
1517205905218697,-2,-2,0,-1,-1,-1,0,0
1517205905225186,-1,-2,-1,-1,-1,-1,-1,-1
1517205905225186,0,-2,-2,-1,-2,-1,-1,-2
1517205905241698,-2,0,0,0,-1,-1,-1,-1
1517205905241698,-1,0,0,0,-1,-1,-1,0
1517205905243199,-1,0,-2,0,0,1,-2,-1
1517205905243199,-1,-1,-1,-2,-3,-2,-1,-2
1517205905263718,0,-2,-2,-2,1,0,-2,0
1517205905263718,0,0,-2,-2,-2,-1,-1,-2
1517205905265715,-1,-1,-1,-2,1,-2,-2,-2
1517205905265715,-1,-2,0,0,0,0,-3,-2
1517205905278224,-2,1,-1,0,-2,-3,-2,-1
1517205905278224,-1,-3,-2,-3,1,-2,-1,0
1517205905285251,0,-2,-2,-2,-2,-1,0,-2
1517205905285251,-1,-2,-1,0,-3,0,-1,0
1517205905301741,0,0,-1,-2,-2,0,0,-2
1517205905301741,-2,-2,-1,0,-1,-1,-2,-2
1517205905303272,-1,0,0,0,-1,0,-1,-2
1517205905303272,0,-3,-2,-2,-1,0,-2,-1
1517205905324760,-1,-2,-2,1,-2,-2,1,0
1517205905324760,-1,-1,-2,-1,-3,0,-1,-2
1517205905326275,-2,-1,-2,1,1,-1,-1,1
1517205905326275,1,0,-1,0,1,-2,-3,0
1517205905338278,-1,-1,-2,-1,-2,0,0,0
1517205905338278,0,-1,-1,-2,1,-1,-1,-1
1517205905345282,-1,1,0,0,-1,-2,0,0
1517205905345282,-1,0,0,0,-2,1,-1,-2
1517205905361285,-2,-3,-1,-2,-1,0,-1,-1
1517205905361285,-1,-1,-1,-1,-3,-1,-1,-1
1517205905362784,-1,0,-1,0,-1,-3,0,0
1517205905362784,-2,0,0,-1,0,-3,-1,-2
1517205905391306,-1,0,0,-2,-2,1,-1,-2
1517205905391306,0,-2,-1,-2,0,-3,-3,-1
1517205905392805,-2,-2,-2,-1,-2,-1,-1,1
1517205905392805,-2,-1,-3,0,-2,-1,-2,-2
1517205905397808,-1,-1,-1,0,-2,-2,-4,-1
1517205905397808,0,-2,0,-1,0,-1,1,-2
1517205905406815,0,0,-2,-1,-1,-1,0,-2
1517205905406815,-2,-2,-2,-3,-1,0,0,-1
1517205905421348,-1,-1,-2,-2,-1,-1,0,0
1517205905421348,0,0,-1,-1,-2,-1,-2,-2
1517205905423326,-1,-1,-1,-2,-1,0,-1,-1
1517205905423326,0,-2,-1,0,-2,0,0,-2
1517205905443857,-1,-1,-1,-1,-1,-2,-2,-2
1517205905443857,-2,0,-2,-1,1,-2,0,-1
1517205905445344,-2,-1,0,0,-3,-1,-2,-3
1517205905445344,0,-2,-2,0,-1,-1,-1,-1
1517205905457850,-1,-1,0,-1,0,-3,-1,-1
1517205905457850,-3,0,0,-1,-2,-1,-2,-1
1517205905466359,1,-1,-1,-2,-2,0,-2,0
1517205905466359,-1,0,-1,-2,-1,0,0,0
1517205905481368,-1,-2,-2,0,-2,0,-1,0
1517205905481368,-1,-1,-1,-1,-1,0,1,-1
1517205905482870,-2,-2,-1,-3,-1,1,0,-1
1517205905482870,-1,-1,0,-1,-2,-5,0,1
1517205905503918,0,0,0,-1,-1,-1,0,0
1517205905503918,-1,0,-3,0,-1,0,-1,0
1517205905505385,-1,-2,-2,-1,-2,0,-2,0
1517205905505385,-1,0,-2,-1,-1,0,-1,-1
1517205905517392,-1,-1,1,0,0,-2,-1,-2
1517205905517392,-2,-1,-1,-1,-1,-2,-2,-2
1517205905526399,0,-1,0,-1,0,-2,0,-1
1517205905526399,-2,-1,-2,-1,-2,-2,0,0
1517205905541427,-1,-1,-1,-2,0,0,-1,0
1517205905541427,0,-3,-1,-1,0,-1,-1,0
1517205905542911,0,-1,-1,-1,-2,0,-2,-1
1517205905542911,-1,-1,-1,-2,0,1,-2,-2
1517205905563943,-2,0,-1,0,-2,-2,1,-1
1517205905563943,-2,0,-1,0,-3,-1,1,0
1517205905565427,-2,-1,0,0,0,-3,-1,0
1517205905565427,0,-1,0,0,-1,-1,-2,-2
1517205905577435,0,-1,-1,-1,-2,0,-1,-2
1517205905577435,-2,0,-1,-1,0,-1,-1,-1
1517205905586443,-1,-2,-1,-1,-1,0,0,1
1517205905586443,0,-1,-1,0,-1,-3,0,-1
1517205905601454,-1,-2,-1,-2,0,-1,-1,-1
1517205905601454,1,-2,-1,-3,-1,-1,-2,-1
1517205905603970,0,1,-2,1,-1,-1,0,0
1517205905603970,-1,-3,0,-1,-1,-3,-2,-1
1517205905631490,-1,-2,-3,0,-1,-2,-2,-1
1517205905631490,-2,-1,-2,-2,0,0,1,-1
1517205905632998,-1,0,-2,0,-1,-1,0,0
1517205905632998,-1,0,-1,-1,0,-1,-1,1
1517205905637502,-1,0,-1,-3,0,-1,0,-2
1517205905637502,-2,-2,-2,-2,-2,-2,0,1
1517205905646487,-2,0,-1,-2,-1,-1,-2,-3
1517205905646487,-1,0,0,-2,-1,0,-1,-1
1517205905661496,-2,-3,-3,-3,-2,-1,-2,-1
1517205905661496,-1,-1,0,-1,0,0,-2,1
1517205905662998,-1,-1,-3,-1,0,-1,-2,-1
1517205905662998,0,0,0,-2,-2,-1,0,0
1517205905684010,0,-1,-2,-1,-1,-1,-2,1
1517205905684010,-1,-2,-1,0,0,2,-1,-2
1517205905685512,-3,-1,0,-2,-1,0,-2,-1
1517205905685512,0,-2,-2,0,0,-1,-1,-2
1517205905697521,-1,-1,0,1,0,-1,-2,-1
1517205905697521,2,0,0,0,-1,-2,-1,-2
1517205905706567,-1,-2,-1,-1,0,-1,-2,0
1517205905706567,-1,-2,-1,-2,-1,0,-3,0
1517205905721575,0,-1,-2,-2,0,-1,0,0
1517205905721575,-1,-2,-1,0,-2,-1,-1,0
1517205905723077,-1,-1,-2,0,-2,-2,0,-1
1517205905723077,-2,0,-2,-2,-1,-1,-1,-2
1517205905744592,0,0,-1,0,-1,-2,-2,-1
1517205905744592,-2,-1,-1,-3,-1,-2,-2,-2
1517205905746093,-1,0,-1,-1,0,-1,-1,0
1517205905746093,0,-1,-2,-1,-2,-1,-1,0
1517205905757601,-1,-2,0,1,-2,-1,0,0
1517205905757601,-3,-2,-1,-1,-3,-2,-1,-3
1517205905772615,0,-2,0,-2,-1,-1,-1,-1
1517205905772615,0,-1,0,0,1,-1,-1,-1
1517205905781131,-1,0,-1,0,-1,0,-2,0
1517205905781131,0,-1,-2,0,0,-2,-1,0
1517205905783118,-1,-2,-1,1,-2,0,0,-2
1517205905783118,-3,-1,0,-2,-2,-2,-1,-1
1517205905804149,0,0,0,-1,-1,0,-1,-1
1517205905804149,-1,-1,-1,0,-1,-3,-1,1
1517205905805634,-1,0,-1,0,-2,-2,-1,-3
1517205905805634,-2,-2,-2,-1,-2,-2,0,-1
1517205905833655,-2,-1,-2,-1,0,-1,-2,-2
1517205905833655,0,-2,-1,-1,-2,0,0,-1
1517205905835656,0,0,-2,-2,0,-1,-1,-1
1517205905835656,-1,-1,-1,-1,-2,0,-3,0
1517205905841162,-3,-3,0,0,-2,-1,1,-3
1517205905841162,-1,0,-1,-1,0,-1,-2,-2
1517205905843163,0,-1,-1,-1,-1,-2,-2,0
1517205905843163,0,0,-2,1,0,-2,-1,1
1517205905864176,-1,0,-2,-1,0,-1,-1,-1
1517205905864176,-1,-1,0,-1,-2,-1,-1,-2
1517205905865704,-1,-1,-2,-1,-2,-2,0,-1
1517205905865704,-1,-2,-1,-1,0,0,0,0
1517205905886208,0,0,-2,0,-2,-3,-1,0
1517205905886208,0,1,-1,-1,-1,-1,-1,-1
1517205905888193,-2,-2,-2,-1,-1,-1,0,-1
1517205905888193,-1,-2,1,-1,1,0,-2,-1
1517205905909209,-2,-2,-1,-2,-3,1,-2,0
1517205905909209,0,-1,-1,-1,0,-1,0,0
1517205905910725,-3,-1,-2,-1,-1,0,-3,-1
1517205905910725,-3,-1,-1,0,0,1,0,-1
1517205905923729,-2,0,-2,-1,-1,1,-1,1
1517205905923729,-1,-1,-3,-2,-1,0,0,0
1517205905925720,0,-2,-1,-3,-2,-3,-1,0
1517205905925720,-1,0,-2,-3,-2,-1,1,-2
1517205905946236,0,0,-2,-2,-1,-1,-1,-1
1517205905946236,0,-1,-1,0,-1,1,-1,-1
1517205905947735,-1,-3,-4,-2,1,-1,-1,-1
1517205905947735,-1,-1,-1,0,-3,-2,-2,-2
1517205905968767,0,-1,0,0,-1,-1,0,-2
1517205905968767,-2,-1,-1,0,-1,-2,0,-2
1517205905970769,-1,-1,0,-2,-1,0,0,0
1517205905970769,0,0,-2,-1,-1,-2,-1,-1
1517205905983770,-1,-2,-1,-2,0,-3,0,0
1517205905983770,-3,-1,-1,-1,0,0,-2,-1
1517205905985762,-2,1,1,0,-2,-1,0,1
1517205905985762,-2,-2,0,-1,-1,-2,-2,-2
1517205906006819,1,0,0,-1,0,0,-2,-2
1517205906006819,-1,-4,-2,-3,0,-3,-1,-1
1517205906007817,0,1,2,-1,-1,-1,-2,-2
1517205906007817,-1,-1,-6,-2,-3,-1,-1,-1
1517205906020826,-2,-2,1,-2,-3,-1,-1,-3
1517205906020826,-1,-3,0,-1,-1,-1,-1,-3
1517205906027331,-1,-3,-2,-2,-1,-1,-2,-1
1517205906027331,0,-1,0,0,-1,0,0,2
1517205906043869,-1,-2,-1,-2,0,-1,-1,0
1517205906043869,-2,1,0,-1,-3,0,-1,0
1517205906045370,-2,-3,-8,-1,-1,-2,-1,-2
1517205906045370,1,0,4,-1,0,-2,-2,-2
1517205906066408,-2,-4,-12,-3,-2,-2,0,-2
1517205906066408,-4,-2,2,-2,-1,-2,0,-1
1517205906067889,-1,0,0,-1,0,0,-1,1
1517205906067889,-2,-1,-3,-1,0,-1,-2,0
1517205906080963,0,-1,1,1,-1,0,0,-1
1517205906080963,3,0,3,0,-2,-2,0,-2
1517205906087469,-1,-1,-2,-1,-2,-1,-1,-1
1517205906087469,-2,-2,1,0,-1,0,-2,-1
1517205906104017,-2,-2,-1,0,0,-2,-2,-1
1517205906104017,0,-1,-4,-2,0,0,-1,1
1517205906105492,0,0,5,1,-1,-1,0,-1
1517205906105492,-1,1,0,-2,0,1,-1,-1
1517205906134000,-2,-1,-1,-2,-2,0,-1,0
1517205906134000,0,-3,0,-1,-2,-2,-1,0
1517205906135502,1,-1,-2,-1,1,-1,-1,0
1517205906135502,-1,1,-1,-1,-1,-1,-1,-1
1517205906140506,0,-1,-1,-2,-2,-2,-1,0
1517205906140506,-1,-1,-3,-2,-2,-1,-4,-4
1517205906147511,-2,-1,0,-1,-2,1,-1,-2
1517205906147511,0,-2,-3,-3,-1,-2,1,0
1517205906164042,1,1,2,-1,0,-1,0,-1
1517205906164042,-1,-1,-3,0,-1,-1,-1,-1
1517205906165535,-1,-1,-2,-1,-1,0,-1,0
1517205906165535,-1,-2,-2,-1,-1,-1,-2,0
1517205906187039,0,0,1,1,1,0,0,1
1517205906187039,0,-1,-1,-1,-1,-2,-2,0
1517205906188549,-1,-1,-5,-1,-2,-1,-2,-1
1517205906188549,-1,-2,-1,-2,-2,-2,-1,-1
1517205906200546,-1,0,0,-2,-2,-2,-2,-2
1517205906200546,-1,-2,-3,0,-1,-1,0,1
1517205906207554,-1,0,1,-2,0,-2,-1,-1
1517205906207554,-2,-1,-1,1,0,-2,0,-1
1517205906224066,-1,-1,-2,-1,-2,-1,-2,-1
1517205906224066,1,-1,-1,-2,-1,0,-1,0
1517205906225564,-2,-1,0,0,-1,-1,0,-2
1517205906225564,-1,-1,-1,-1,0,-2,-1,-2
1517205906246593,-1,0,0,1,-1,-1,0,-1
1517205906246593,-1,-1,-2,0,-1,0,0,-1
1517205906248080,-1,-1,-1,-1,-2,-1,-1,-1
1517205906248080,0,-1,-1,-1,-2,0,-1,-2
1517205906260606,-2,-1,-2,-1,-1,-1,-1,0
1517205906260606,-1,0,-1,0,-1,-2,-1,-1
1517205906267595,0,-1,0,0,-1,-2,-2,-1
1517205906267595,-2,1,-1,1,-1,0,0,-1
1517205906283606,1,-3,0,-2,-1,-2,0,1
1517205906283606,-3,-2,-3,-3,-1,0,1,-1
1517205906285607,-1,-1,0,-1,-2,0,0,-2
1517205906285607,-2,-2,-1,-2,-1,-1,-2,-1
1517205906306626,-1,0,-1,0,0,-1,-2,-1
1517205906306626,-1,-1,-1,0,-2,-2,0,-1
1517205906308123,-1,-1,-1,-1,-1,-1,0,-1
1517205906308123,-1,-1,-3,-1,-2,-1,1,-3
1517205906320147,-2,0,-1,-1,-1,-1,0,-1
1517205906320147,-1,-1,-1,0,-1,-1,-2,-2
1517205906329138,-2,0,-1,-2,-1,-1,-1,-1
1517205906329138,0,0,0,-1,-1,-3,-1,0
1517205906343648,0,-2,-1,-3,-2,-1,1,-1
1517205906343648,-1,-1,-1,-1,-1,-1,-2,-2
1517205906345662,-2,0,-2,0,-2,-2,-1,1
1517205906345662,0,-3,0,-1,-3,-1,-1,-1
1517205906366164,-1,-2,-1,-1,-2,-1,-1,-2
1517205906366164,-1,-1,0,-1,0,-2,-1,-2
1517205906368165,1,-2,-2,-2,-1,0,0,-1
1517205906368165,0,2,-1,-1,0,0,-1,-1
1517205906389182,-2,0,0,-1,-1,-1,-2,-1
1517205906389182,0,-1,-1,-2,-2,-3,-1,-1
1517205906390682,0,-1,-2,-1,-1,-1,-2,-1
1517205906390682,0,-1,-2,-3,-3,1,-1,0
1517205906403705,-2,-3,-3,0,0,-2,-1,-1
1517205906403705,0,0,-2,0,0,0,-2,0
1517205906405704,-2,-2,-3,-1,-1,-3,-2,-2
1517205906405704,-1,-2,-2,0,-1,-1,-2,-2
1517205906426207,-2,0,-1,-3,-3,-1,-1,-2
1517205906426207,-1,-2,-1,-2,-1,0,-1,1
1517205906427709,-1,-2,0,-1,0,-1,-1,0
1517205906427709,-1,-3,-1,0,-2,-1,-1,-1
1517205906440240,0,0,0,1,0,-1,0,-1
1517205906440240,-1,0,0,0,-1,-1,0,-1
1517205906448744,0,-1,-1,-1,-1,-1,0,-2
1517205906448744,-2,0,0,-2,0,-1,-2,-1
1517205906463747,-1,-1,-1,-1,-1,-1,-1,0
1517205906463747,-1,-1,-2,-3,-2,-2,-1,0
1517205906465735,-2,-1,0,0,0,-1,-1,-1
1517205906465735,0,-2,-1,-1,-2,-1,-1,-1
1517205906486249,-1,1,-1,-3,0,-1,-1,-2
1517205906486249,0,0,-1,0,-1,-1,-1,-1
1517205906487750,1,0,-1,-1,0,-1,0,-1
1517205906487750,-1,-2,0,-1,-1,-1,-2,-1
1517205906500278,-1,-2,-2,0,-1,-1,-2,-1
1517205906500278,0,-1,0,0,-3,-1,0,0
1517205906515283,0,-1,-1,-2,-3,-1,-2,-1
1517205906515283,-1,-2,-1,-1,-1,-1,0,0
1517205906524281,-1,-2,0,-1,-1,-1,-1,0
1517205906524281,-1,-2,-2,-1,0,-1,-1,-1
1517205906525277,-3,-1,-1,-2,-1,-1,0,0
1517205906525277,-1,-1,0,0,0,0,-1,-1
1517205906546373,0,0,-1,-1,-2,-2,-1,0
1517205906546373,-3,-1,-1,-2,1,-1,-1,-1
1517205906547857,-3,-1,0,0,-2,-1,-2,1
1517205906547857,-1,-1,0,-2,0,0,0,0
1517205906559866,-1,0,-1,-1,1,-1,-2,-2
1517205906559866,0,0,-2,-1,-1,-1,0,-2
1517205906575385,-1,0,-1,-1,-1,-2,0,-2
1517205906575385,-1,-2,-2,-2,-2,-2,-1,-1
1517205906583879,-1,-1,-2,0,-1,1,-2,-1
1517205906583879,-1,-2,-2,-2,0,-2,-2,-2
1517205906585380,-1,0,-1,0,0,0,-1,-1
1517205906585380,-1,0,-2,0,-1,-1,-1,-2
1517205906606408,0,-1,-1,-2,-1,-2,0,0
1517205906606408,-1,0,-2,-1,0,-1,-2,-1
1517205906607897,-1,-1,-1,-1,0,-1,-1,-1
1517205906607897,-1,-2,-1,0,0,-1,-1,-1
1517205906619923,-2,0,-2,-1,0,-1,-1,0
1517205906619923,0,0,-2,-1,-1,-1,-2,0
1517205906636417,-1,-2,-1,-1,-2,1,-1,0
1517205906636417,-1,-1,0,0,1,-2,-2,0
1517205906643923,-1,-2,-1,0,-1,-2,0,-2
1517205906643923,-1,-1,-1,-2,-1,-2,-2,-1
1517205906645426,-1,0,-2,-2,-2,-1,0,-1
