timestamp,emg1,emg2,emg3,emg4,emg5,emg6,emg7,emg8
1514891694804653,-1,-1,-1,-1,-1,-1,0,-2
1514891694804653,-1,-2,-4,-3,0,0,-1,-1
1514891694813156,-1,0,-1,-1,0,-2,0,0
1514891694813156,0,-2,-3,-3,0,-2,-2,-2
1514891694828167,-2,0,1,0,-2,-1,2,-1
1514891694828167,1,0,1,-2,-2,-1,0,-1
1514891694829668,-1,2,-1,-1,-3,1,-1,-4
1514891694829668,-2,-4,-1,0,-2,-1,-3,-2
1514891694850685,0,-1,-2,0,0,0,-3,-2
1514891694850685,-3,-4,0,-1,-2,-2,-1,0
1514891694852685,2,-1,-3,0,1,-2,1,1
1514891694852685,-1,0,1,-1,1,0,1,-1
1514891694864695,0,1,-1,-2,-1,-1,-2,1
1514891694864695,-2,-1,1,0,0,-2,0,0
1514891694873199,0,-3,1,0,-2,0,-2,0
1514891694873199,-2,-4,-2,1,-3,-1,1,0
1514891694887209,-2,0,-3,-1,-1,-1,-1,0
1514891694887209,1,-2,-3,0,0,-1,-3,-2
1514891694895714,-1,-4,0,1,-1,-2,-1,1
1514891694895714,-1,-2,-4,-1,-1,-1,-3,-1
1514891694910725,0,-3,-1,-2,-2,0,-2,-1
1514891694910725,0,1,-2,-1,0,-2,-4,-1
1514891694912226,-2,0,-3,-3,-1,-2,-4,1
1514891694912226,-3,-4,0,-1,-1,-1,-1,-1
1514891694924249,0,-2,-2,-1,-1,0,3,-1
1514891694924249,-2,0,-1,-1,-2,-1,2,-2
1514891694933743,-1,-1,-2,-2,-1,0,-1,0
1514891694933743,-2,-1,-1,0,0,-1,-1,-2
1514891694948758,0,0,-1,-3,-3,-1,-2,0
1514891694948758,-1,-1,-4,-2,-2,0,-3,-2
1514891694950772,-1,-2,-2,-1,-1,-1,-3,-2
1514891694950772,-1,-1,0,-2,-1,-1,-1,-1
1514891694977773,1,2,-2,1,1,-2,0,-2
1514891694977773,0,-1,0,-1,-1,-2,0,-1
1514891694984778,1,0,-1,0,-1,-2,3,0
1514891694984778,-1,0,-2,-1,0,0,0,1
1514891694985792,-2,-3,0,0,-1,-2,0,-3
1514891694985792,-2,0,-1,-1,-2,2,2,0
1514891694993285,-4,-2,1,3,-1,-2,-4,-1
1514891694993285,0,-3,0,-1,-1,-2,-3,1
1514891695008295,-2,-2,-1,-4,-2,-2,-3,-1
1514891695008295,1,-1,-2,-1,-1,-1,-1,0
1514891695010797,-3,-1,-1,-1,0,0,0,-1
1514891695010797,1,-1,-3,0,-2,0,1,-1
1514891695031811,-1,-2,-3,-2,0,-1,-1,1
1514891695031811,0,-4,-1,-3,-1,-1,-3,-1
1514891695034322,-1,-2,0,-2,-2,0,-3,-1
1514891695034322,0,1,0,0,-2,-1,-2,-3
1514891695053370,-1,0,-1,1,-2,-3,-2,-2
1514891695053370,0,-1,-5,-3,-2,-1,2,0
1514891695055863,1,0,-4,-3,-3,1,0,0
1514891695055863,-1,0,-1,-1,-1,1,-2,1
1514891695068369,-1,-2,1,-1,0,2,-3,-1
1514891695068369,-1,-1,0,0,0,-1,-1,-3
1514891695069871,-1,-2,0,-2,0,-1,1,-2
1514891695069871,-1,-1,1,-2,-3,-1,0,-2
1514891695090885,-1,-1,5,2,1,-1,-2,2
1514891695090885,-2,-2,0,2,0,-3,-2,1
1514891695092386,-1,-1,0,-1,-1,-3,-2,0
1514891695092386,-1,1,2,-1,-2,-1,0,-1
1514891695113402,-3,-2,-3,-1,-2,-1,-1,-2
1514891695113402,-1,-2,-4,-1,-1,-2,-2,0
1514891695114903,0,0,-1,0,1,-2,-1,0
1514891695114903,-2,0,-4,-3,-2,-1,-3,0
1514891695128412,-2,0,1,-2,-2,-2,-2,0
1514891695128412,1,0,0,0,-2,-3,-3,-1
1514891695130913,0,-2,0,-2,0,-3,1,-3
1514891695130913,-2,-2,-3,-1,0,-3,3,-2
1514891695150436,0,1,-3,-3,-4,-1,0,0
1514891695150436,-4,-1,1,-2,-3,-1,0,1
1514891695152429,-2,-3,0,-2,-1,-3,-1,-1
1514891695152429,0,-1,-2,-2,-1,-3,-1,-1
1514891695172945,-1,0,-2,-1,0,-2,1,-1
1514891695172945,-1,0,-2,-1,-2,-2,-2,0
1514891695175444,-2,0,-2,-1,-1,0,-3,-2
1514891695175444,-1,-3,2,1,0,2,-1,-1
1514891695187452,1,-3,-4,0,-2,-2,1,-2
1514891695187452,-1,-4,1,-1,0,1,2,-2
1514891695194958,-2,-1,-2,0,-1,2,2,0
1514891695194958,-1,-2,-2,0,-1,-2,-2,-2
1514891695210979,0,-2,-2,-3,0,0,-6,-1
1514891695210979,-1,-1,0,-1,-1,0,-2,-3
1514891695212471,-1,4,-3,-4,-3,-1,-1,-1
1514891695212471,0,-5,-1,-2,-1,0,0,-2
1514891695231996,0,0,-3,0,2,0,-2,0
1514891695231996,0,2,-3,-1,-2,1,-2,0
1514891695240992,-2,-5,-1,-1,-1,0,-3,-1
1514891695240992,0,6,0,-1,-2,0,0,-1
1514891695247499,-2,2,0,-2,-2,0,0,-3
1514891695247499,-1,-3,-4,-2,-1,-1,-2,-2
1514891695262006,-2,2,-1,-1,-1,0,-3,0
1514891695262006,0,-4,0,1,1,-1,-1,0
1514891695278026,-3,-3,-2,-2,0,-1,-3,0
1514891695278026,1,-1,0,0,0,-1,-1,-2
1514891695280018,-1,-1,-2,1,-2,-1,-2,-2
1514891695280018,-2,-2,-2,-1,-2,-2,0,-1
1514891695292028,0,0,-2,-1,-3,-2,1,0
1514891695292028,-1,2,0,-1,-2,0,3,-1
1514891695301034,-1,-2,-1,-2,-1,-1,2,-1
1514891695301034,-1,-3,-1,-1,0,-2,0,1
1514891695315543,0,0,-1,-2,-3,-2,-1,-2
1514891695315543,-2,-1,-1,-1,-1,-2,-1,-1
1514891695317544,0,-2,-2,0,-1,0,0,-1
1514891695317544,-2,0,-2,-2,-2,1,-3,-2
1514891695331058,-3,-2,2,-1,-2,-1,1,0
1514891695331058,-1,-2,-2,0,-1,-1,0,-1
1514891695332555,0,-4,0,0,-1,-2,-1,-3
1514891695332555,1,-2,-1,-1,-2,-1,-2,-1
1514891695353070,-1,-2,-2,0,-2,-1,-2,-1
1514891695353070,0,-1,0,-1,-3,-1,-1,-1
1514891695354571,-2,1,-1,-1,-1,-2,1,1
1514891695354571,-4,2,0,-3,0,-1,0,1
1514891695367580,0,-1,-2,0,-1,0,-1,-1
1514891695367580,-1,1,-3,-2,-2,-1,0,-2
1514891695382092,-2,-1,-2,-2,-1,0,-2,0
1514891695382092,-3,-1,-3,-1,-1,-3,-3,-1
1514891695390597,-1,-2,0,-1,-1,0,-2,2
1514891695390597,0,-3,-2,-1,-1,-1,-3,1
1514891695397602,0,-5,1,-1,-2,1,0,-3
1514891695397602,-2,0,0,1,0,0,2,-2
1514891695413111,-2,1,-3,-3,-1,-2,1,-4
1514891695413111,-2,-2,0,0,-1,-1,2,-1
1514891695414613,-1,1,0,0,-1,-3,-2,-1
1514891695414613,0,-1,-2,1,0,-2,-2,0
1514891695427623,-1,-1,-1,0,-3,0,-1,0
1514891695427623,-3,-3,-2,-2,-1,0,0,-1
1514891695435129,-2,-3,-1,-1,0,-1,-2,1
1514891695435129,0,0,-1,-1,-1,-1,-1,0
1514891695450638,-3,-2,-1,1,0,1,-1,-1
1514891695450638,2,2,1,-3,0,-1,-2,0
1514891695452139,-1,0,0,0,-1,0,-3,-3
1514891695452139,0,-1,1,0,0,-1,-3,-1
1514891695473155,-2,-6,0,-1,-1,-1,-1,1
1514891695473155,0,-1,-3,-1,-3,-4,0,2
1514891695475656,2,-1,-2,-3,-2,-1,0,-1
1514891695475656,0,0,-3,0,-1,-2,0,-1
1514891695487664,-3,-3,-1,-3,-1,-2,-4,-2
1514891695487664,-4,-5,-1,-3,-2,-1,-1,0
1514891695501684,-3,0,-2,4,1,1,-1,-1
1514891695501684,-1,-4,-2,-3,-1,0,-1,-3
1514891695510690,1,1,-1,1,0,-1,1,-2
1514891695510690,2,1,-1,0,-1,0,-2,-1
1514891695512192,-3,-2,-3,-2,-2,-2,-2,-1
1514891695512192,-2,-1,-1,-2,-1,-1,0,2
1514891695533209,1,-1,-2,3,0,0,-2,-1
1514891695533209,-1,0,-1,-2,-3,1,0,-3
1514891695540712,0,-1,1,-1,-2,-1,-2,-2
1514891695540712,-1,1,-2,-2,0,-2,-2,-3
1514891695555714,0,3,0,-1,0,-2,-1,0
1514891695555714,0,1,-1,0,1,1,1,-2
1514891695558229,-5,-5,-3,0,-2,1,-2,0
1514891695558229,-2,-5,1,-1,-2,1,-2,0
1514891695570224,-3,-4,-2,-3,-2,0,1,-2
1514891695570224,1,-2,-1,1,-1,-1,-1,-3
1514891695576728,0,1,0,-4,-2,0,1,0
1514891695576728,-2,-3,-1,-2,-2,-1,0,-1
1514891695593252,0,-1,-3,-1,-2,-3,-2,0
1514891695593252,-3,1,-1,-1,-2,-2,-2,1
1514891695594741,-1,-1,-1,-2,-1,-4,1,0
1514891695594741,2,0,-1,0,-1,-1,0,0
1514891695606758,2,-1,-1,0,-2,-1,1,-2
1514891695606758,-2,-3,-1,-1,-2,-2,0,0
1514891695615755,0,-1,-1,-2,-1,0,-2,-1
1514891695615755,-3,0,-2,-2,0,-1,1,-2
1514891695630766,-2,3,0,-2,-1,0,2,0
1514891695630766,0,0,-1,-2,0,0,-3,-1
1514891695632266,-2,-1,-2,-3,0,-2,-3,1
1514891695632266,1,-3,-1,0,0,-1,-6,-2
1514891695660289,0,0,-2,-2,0,-2,-3,-3
1514891695660289,-1,-1,1,1,-3,-2,0,-3
1514891695662303,1,0,0,0,-1,1,3,-1
1514891695662303,-1,0,1,0,-1,-2,4,1
1514891695666792,-1,-2,-2,-1,-1,-1,0,-1
1514891695666792,-4,0,-1,0,-2,-3,0,0
1514891695676298,1,-1,-2,0,-2,0,-3,-2
1514891695676298,-1,-3,1,0,0,1,-5,-3
1514891695690808,-2,-2,-1,-1,-1,-1,-1,-3
1514891695690808,-1,-2,-2,-2,0,-1,0,0
1514891695696812,-2,-2,-2,0,0,-1,1,0
1514891695696812,-1,1,-2,-1,-2,-2,-1,0
1514891695713324,0,-2,-1,-2,-1,-3,-1,0
1514891695713324,-1,-2,-1,-2,0,2,-2,-1
1514891695714825,1,-1,-2,-2,-1,-3,-2,-1
1514891695714825,-1,0,-1,-2,1,0,-1,0
1514891695726833,-1,-3,-1,0,-1,-1,-3,3
1514891695726833,-1,-1,-1,-2,-2,-2,0,-1
1514891695735840,0,0,0,0,-1,-1,1,-2
1514891695735840,-2,-1,0,0,-2,-2,2,-3
1514891695750850,-2,-1,-1,0,-1,-3,0,0
1514891695750850,0,0,0,-1,-1,-1,0,-1
1514891695752351,0,-1,-1,-2,-1,-2,-2,0
1514891695752351,-2,-2,0,-1,-2,-1,-5,0
1514891695773367,-1,-1,-1,-2,-1,1,0,1
1514891695773367,0,-3,-3,-1,-1,0,-3,2
1514891695776869,-1,-2,0,-2,-1,-1,-2,-1
1514891695776869,-1,-3,-2,-2,1,0,-2,-3
1514891695786876,-2,-2,0,-2,-1,-1,-2,-4
1514891695786876,-2,1,-2,-1,0,-2,-2,-4
1514891695797885,-2,2,-3,-4,0,-3,0,-1
1514891695797885,0,1,-2,-3,0,-1,-1,1
1514891695809893,-1,0,0,-1,-2,0,-2,0
1514891695809893,0,-1,0,0,-2,-2,-2,-1
1514891695818399,-3,-3,-1,0,-1,1,-1,2
1514891695818399,0,-2,-1,0,-1,-1,1,1
1514891695833411,0,0,-2,-2,-2,-2,-1,-3
1514891695833411,-1,0,0,-1,-2,-1,-1,-1
1514891695834409,0,-1,-1,0,-3,-1,-2,-1
1514891695834409,-2,-2,-4,-1,-1,-1,0,0
1514891695846918,2,-2,-1,-2,-1,0,-2,0
1514891695846918,-1,-1,-2,-1,0,-2,-1,-1
1514891695855929,-2,-2,0,0,-1,0,-1,-3
1514891695855929,-3,-3,0,-1,-2,-3,3,-2
1514891695877942,2,-3,-2,-1,-1,0,0,-2
1514891695877942,-1,-3,0,-3,-1,-4,-2,-1
1514891695879942,-1,0,-3,3,0,-1,-2,1
1514891695879942,0,1,-3,-2,-2,0,-4,0
1514891695892951,-2,1,0,1,-1,0,0,-1
1514891695892951,2,-1,0,-1,1,0,0,-2
1514891695894953,-2,0,-1,-2,-1,-1,2,-1
1514891695894953,-1,2,1,-1,0,-2,0,-2
1514891695906961,-2,0,-2,-2,-1,-1,-3,-1
1514891695906961,-2,-3,-1,-1,-4,1,-4,0
1514891695916974,-1,-2,-1,-1,1,1,-2,2
1514891695916974,-1,-1,0,0,0,0,-2,0
1514891695937983,-1,1,0,-2,-2,-3,1,1
1514891695937983,-3,-1,-3,-1,-1,0,-1,-2
1514891695939984,0,-3,-3,-3,0,-2,-1,-3
1514891695939984,0,0,-1,0,-1,-1,0,-1
1514891695953494,-2,-2,-2,2,-2,-1,-2,-2
1514891695953494,1,0,-2,0,-1,-2,-1,0
1514891695959500,-1,-2,0,-1,-1,-1,0,-2
1514891695959500,-1,-2,1,-1,-1,0,-2,-1
1514891695976010,0,-3,0,-2,-2,-2,-2,-1
1514891695976010,-1,-2,-2,-1,-3,-2,-1,-1
1514891695978011,-1,1,-2,-1,-1,-1,0,-1
1514891695978011,-1,0,-4,-1,-1,-2,0,-1
1514891695990520,-3,1,-1,-2,-2,-1,-2,-2
1514891695990520,-1,-2,-1,-2,-1,-2,-2,-2
1514891695992021,-1,-3,0,0,-1,-2,-2,0
1514891695992021,0,-3,0,1,-2,-1,0,-1
1514891696013036,-3,-3,0,-2,1,-2,0,-1
1514891696013036,-2,-1,-1,-1,0,-1,-2,0
1514891696020041,-1,1,-1,-1,-1,0,-2,-1
1514891696020041,-2,-1,-2,-1,-1,1,-1,-2
1514891696043075,-1,-1,-1,-1,-2,-1,0,0
1514891696043075,0,-1,-1,-1,-1,-1,-3,1
1514891696045577,1,0,-3,-3,-1,-1,-2,1
1514891696045577,0,1,0,-1,-1,-1,-1,0
1514891696050580,-2,1,-4,-2,-3,-2,-3,-3
1514891696050580,-1,0,0,0,-2,-2,4,-2
1514891696052081,-1,-1,0,-1,-2,-3,1,1
1514891696052081,0,-2,0,-2,-2,-1,-1,1
1514891696073098,2,0,-1,-1,-1,-2,-4,0
1514891696073098,-3,-2,-2,1,0,0,-1,-3
1514891696075598,-3,0,-4,-1,1,-1,-2,-2
1514891696075598,-2,-3,-2,-2,-1,-2,-1,-1
1514891696096112,-2,-3,1,-2,1,-3,0,1
1514891696096112,-1,-2,-2,-1,0,0,-1,0
1514891696097613,-1,0,0,0,-2,-1,-2,0
1514891696097613,-1,-2,-3,-1,1,0,-1,0
1514891696110123,-1,0,0,-1,0,-2,-2,-3
1514891696110123,-1,-2,0,-3,-1,0,2,-1
1514891696116627,-1,-1,0,0,-1,-1,1,-1
1514891696116627,-1,1,0,0,0,-2,-3,-2
1514891696133138,0,0,-2,-1,-1,0,-2,-2
1514891696133138,-1,2,0,-1,0,-2,-3,-4
1514891696134640,-2,-2,-2,-1,0,1,-1,-2
1514891696134640,-1,0,-2,0,-2,-1,-3,0
1514891696155656,-1,0,-3,-1,-1,0,1,0
1514891696155656,0,0,0,0,1,-1,0,1
1514891696157156,-1,0,-1,-1,-2,-1,0,-1
1514891696157156,0,-1,1,1,-1,-1,0,1
1514891696169709,1,-2,0,1,-1,-1,-2,1
1514891696169709,-2,-3,-1,-1,-1,-2,-4,0
1514891696176709,-2,-2,0,-2,-1,0,-2,-1
1514891696176709,0,-2,-1,-4,-2,-1,-2,-2
1514891696192212,0,-1,-1,-1,-1,-2,1,-2
1514891696192212,-1,-1,-1,-3,-2,-2,0,1
1514891696200717,-1,-2,0,-1,0,-2,1,-1
1514891696200717,-1,-1,-1,0,0,-1,-1,-4
1514891696216729,-3,-3,-2,-1,-1,-1,1,-2
1514891696216729,-1,-1,0,0,0,-3,-1,-2
1514891696219230,1,-1,-1,1,-1,-2,-2,0
1514891696219230,-3,-2,-3,-1,-1,-1,-2,-1
1514891696230739,-2,-2,-1,-2,-1,-1,-2,-4
1514891696230739,-1,-2,-2,0,-2,-1,0,-1
1514891696236753,0,-1,-2,-2,-2,-1,-3,-3
1514891696236753,-2,-2,1,-1,-3,-1,-2,1
1514891696252753,-1,-1,0,-1,-2,-1,1,0
1514891696252753,-2,-3,-1,0,-1,-2,-2,-1
1514891696259273,-2,-2,-1,0,1,-2,-2,-2
1514891696259273,-1,-1,-3,-1,0,0,-2,-2
1514891696276271,-2,0,-2,-1,-1,0,-3,1
1514891696276271,1,0,-1,-2,-2,1,0,-3
1514891696278272,-1,-2,0,-3,-2,-1,-1,1
1514891696278272,0,-1,-1,-2,0,-1,1,-2
1514891696289779,-1,-2,-1,0,0,0,1,0
1514891696289779,0,-2,0,-1,1,1,1,-1
1514891696296784,-1,-3,0,-1,-1,-1,1,-1
1514891696296784,-1,-2,0,1,-1,-2,1,-1
1514891696313296,-2,-4,-2,1,-1,1,0,-1
1514891696313296,-2,-1,-4,-2,-1,-1,-2,-2
1514891696314798,-2,-1,-2,-1,-1,-1,0,-1
1514891696314798,0,1,-3,0,-2,-3,-1,0
1514891696335811,-1,-1,-3,-3,-2,-2,-3,1
1514891696335811,-1,1,-1,-2,0,-1,-3,-1
1514891696337313,-1,-1,1,0,-1,-3,-2,0
1514891696337313,0,-1,0,-1,-1,-2,1,2
1514891696349822,-1,0,0,-4,-2,-2,-1,-2
1514891696349822,-2,-1,-4,-1,-2,0,-1,0
1514891696356827,-3,-1,0,0,0,-1,1,0
1514891696356827,-1,-3,-1,-2,0,-2,-1,0
1514891696373338,-2,0,0,-1,-1,-2,-3,-1
1514891696373338,-2,-3,0,-3,-1,-1,-3,-1
1514891696374840,-3,1,0,-2,-3,-1,1,-2
1514891696374840,-2,0,-1,1,0,1,0,0
1514891696396855,0,-1,-1,2,0,-1,1,-3
1514891696396855,-1,-1,-2,-3,-2,-2,1,-2
1514891696399357,1,-2,-3,0,-1,-2,-1,-2
1514891696399357,-1,0,0,-2,-2,-1,-5,-1
1514891696410365,0,0,-1,-2,-1,-2,-1,0
1514891696410365,-1,-2,-2,2,-1,-2,1,0
1514891696416869,-1,0,0,-1,0,0,-2,-2
1514891696416869,-2,-2,-2,-1,0,-3,0,-1
1514891696440389,0,-2,-3,-1,-1,-2,-3,-3
1514891696440389,1,-2,1,-1,-1,0,-2,0
1514891696442388,-1,-3,-1,-1,-1,0,-1,2
1514891696442388,-2,-1,-1,-2,0,1,1,-2
1514891696455397,-3,-1,-1,1,0,-1,1,1
1514891696455397,-3,-1,-2,-2,0,-1,0,-3
1514891696457398,-3,-2,-4,-1,1,-2,-2,0
1514891696457398,0,-1,0,-1,0,-2,-3,-1
1514891696469410,0,0,0,-4,-2,0,0,0
1514891696469410,-1,0,-2,-1,-3,2,-2,1
1514891696478413,0,-2,-1,-1,-1,-1,0,0
1514891696478413,-1,0,-1,0,0,0,2,1
1514891696492923,0,-2,-1,0,0,1,1,1
1514891696492923,-2,-2,-3,-1,0,-1,0,0
1514891696496426,0,-1,-4,-2,-1,-2,-1,-1
1514891696496426,-2,0,-2,0,0,1,0,-1
1514891696515440,-1,0,-1,-2,0,-2,-2,-2
1514891696515440,-1,-2,1,-2,-1,0,-4,-2
1514891696517444,0,-3,-3,-2,-1,0,-3,-1
1514891696517444,0,-3,-1,-2,-1,-2,-1,0
1514891696529467,0,1,-1,-1,-2,-2,-3,0
1514891696529467,1,-1,-1,-1,-1,-2,1,-2
1514891696538473,-1,-1,-2,-1,0,-3,-1,-3
1514891696538473,-2,1,-2,2,-3,-1,-4,0
1514891696552977,-3,-1,-2,-1,-1,-1,-3,0
1514891696552977,-2,1,-1,-1,-2,-1,-3,0
1514891696559482,-2,-1,2,0,-2,-1,-2,-1
1514891696559482,1,-3,0,-1,-2,0,1,-3
1514891696575494,-1,-1,0,-2,-2,-2,3,-3
1514891696575494,0,-1,-3,-1,-1,-2,1,-1
1514891696577495,0,1,-1,-3,-1,-2,2,-2
1514891696577495,-1,-2,-1,-3,0,-2,-2,-3
1514891696589502,1,-2,0,1,0,-1,0,-2
1514891696589502,-2,-3,-2,-1,-2,-3,0,1
1514891696598499,0,-1,-1,-2,-1,1,-2,0
1514891696598499,-1,-2,-2,-1,-1,-1,-1,-1
1514891696613008,-1,-2,-2,0,-2,1,-3,-1
1514891696613008,-1,-2,-2,1,-1,-2,0,-3
1514891696615016,-1,2,-2,1,-2,0,-3,-2
1514891696615016,-3,1,-2,-1,-2,-1,0,-1
1514891696635536,-2,0,-3,1,0,-2,-4,-2
1514891696635536,-1,0,-1,0,0,0,-2,-3
1514891696637025,0,0,-3,-2,-1,-1,-2,0
1514891696637025,0,-3,-2,-2,-1,-2,2,-2
1514891696649544,-3,0,1,-1,-1,0,2,0
1514891696649544,0,-1,1,-1,1,-1,2,-1
1514891696664546,-2,-2,0,1,0,0,0,2
1514891696664546,-1,-1,-2,-3,-1,0,-6,0
1514891696673050,-1,-2,-1,-2,-1,-1,0,0
1514891696673050,-1,-1,0,-2,-1,0,-1,0
1514891696675552,-1,-3,0,-2,-2,-2,0,-1
1514891696675552,1,0,-1,0,-2,-2,0,2
1514891696703072,-1,-1,-4,-2,-2,0,-1,0
1514891696703072,-2,-1,0,-1,-1,0,-1,0
1514891696704572,0,-3,1,-1,1,0,3,0
1514891696704572,-1,-2,-1,0,-2,0,1,-2
1514891696718085,0,-1,-2,-1,-1,-2,-2,-3
1514891696718085,-2,-1,-2,-1,-2,-3,0,-2
1514891696719583,-1,-1,-2,0,0,-1,-3,-2
1514891696719583,0,-2,-1,-2,-1,-1,0,0
1514891696733124,-1,1,-1,-3,-1,-1,-2,1
1514891696733124,-1,-1,-1,-1,-2,-2,-2,1
1514891696734625,-1,1,-1,0,-1,-3,-3,-3
1514891696734625,-3,0,-1,1,-1,-3,-2,0
1514891696756141,1,-1,-2,1,-1,-1,-2,-1
1514891696756141,1,1,-3,1,0,1,-2,-2
1514891696758143,1,-1,-3,-2,-2,0,0,0
1514891696758143,-1,-1,-1,-1,0,1,-2,-1
1514891696769153,1,-3,-2,-3,-1,-2,0,-2
1514891696769153,0,-2,-1,-2,-1,-2,-3,-2
1514891696778157,-2,-1,-1,-2,-3,-1,-1,-1
1514891696778157,0,-2,-2,0,0,0,1,-1
1514891696793168,0,-3,2,-2,0,0,0,-2
1514891696793168,-1,-1,1,-2,0,-2,1,-1
1514891696794668,-1,0,-1,-1,0,-2,0,-1
1514891696794668,-2,1,-1,0,0,0,-3,-2
1514891696815683,-2,0,1,-1,-1,-2,-1,-1
1514891696815683,-3,-1,-1,-1,-2,-1,-1,-2
1514891696817185,-1,-2,-3,-2,-3,0,-1,0
1514891696817185,-2,-1,0,-1,0,-2,0,-1
1514891696838198,-1,-2,-1,-2,0,0,0,-1
1514891696838198,-3,-2,0,-1,0,-2,-3,0
1514891696841701,-1,-2,-1,-1,-1,0,-2,-2
1514891696841701,0,0,-2,-2,-2,-3,-1,-2
1514891696853209,-1,0,0,0,0,-1,-1,-3
1514891696853209,-1,1,-3,-3,-2,-1,-1,-1
1514891696854710,-2,-3,0,-1,0,-1,0,1
1514891696854710,1,-2,-2,-2,-2,1,1,0
1514891696875725,1,0,-1,-1,-2,-1,1,1
1514891696875725,0,-3,0,-1,-2,-1,-1,0
1514891696879227,0,-2,0,-1,-1,0,-2,-3
1514891696879227,-3,-2,0,-2,0,-1,1,-1
1514891696898243,-3,-2,-2,-2,-1,2,-2,-3
1514891696898243,-2,-1,-2,-1,-2,0,-2,-4
1514891696899742,-2,-1,-2,0,0,-1,1,0
1514891696899742,-3,1,0,-1,-2,-2,0,1
1514891696912290,-1,0,-3,-3,-3,-1,0,0
1514891696912290,0,0,-2,0,-2,0,-1,2
1514891696913284,-3,-1,-1,-1,-2,-1,-1,-1
1514891696913284,1,-2,-2,-1,-1,0,-3,-2
1514891696943341,-2,-1,-1,1,-2,-2,-1,-2
1514891696943341,-2,-4,0,0,0,-2,-1,0
1514891696944798,-1,-1,-2,-3,0,-1,-2,0
1514891696944798,0,-1,0,-1,-2,0,0,-1
1514891696957307,0,-1,0,-1,-1,-5,0,0
1514891696957307,-1,0,0,-1,-2,-1,-1,0
1514891696958307,-1,-1,-1,-2,0,-3,-1,-2
1514891696958307,-1,1,0,-2,0,-1,-4,-1
1514891696980836,0,-1,-1,-2,0,1,0,0
1514891696980836,1,-2,0,-1,1,-1,-1,-1
1514891696981325,-2,-2,2,0,0,-3,-1,0
1514891696981325,-1,-2,-2,-2,-1,-1,1,-1
1514891696995334,-2,1,-1,-2,-2,-1,1,-2
1514891696995334,0,2,-2,0,-1,-2,0,-1
1514891696997351,-1,-1,-2,0,-1,0,0,-1
1514891696997351,-1,-1,1,-1,-1,-3,-4,-1
1514891697017349,-3,-1,0,-1,-2,0,-3,-1
1514891697017349,-1,-2,-4,-2,-1,1,1,-1
1514891697018348,-1,-1,-2,-1,0,-2,0,1
1514891697018348,-2,-1,-1,-1,-1,-1,-2,0
1514891697032358,0,-3,-1,0,-2,-2,-3,0
1514891697032358,0,0,0,-1,0,-2,-1,-2
1514891697033359,-1,-2,-1,-1,-2,-3,-2,-1
1514891697033359,0,0,0,1,-2,-1,-4,0
1514891697054875,0,0,0,-1,-2,-2,-2,-1
1514891697054875,-1,-2,-2,-1,-1,-2,-2,-1
1514891697055876,-1,-1,-1,-1,-1,-2,-2,-1
1514891697055876,-2,-1,1,-2,-2,-1,1,-1
1514891697077400,-2,-1,-1,-1,0,-2,-2,-2
1514891697077400,-3,1,-2,-1,-2,0,0,-3
1514891697077901,-2,-1,0,-2,-2,-1,3,-1
1514891697077901,-1,-3,-3,0,-2,-1,2,-1
1514891697091902,0,2,-2,0,0,-2,0,2
1514891697091902,-1,0,-2,-1,0,-2,-4,-2
1514891697099910,0,-1,-1,-1,0,-1,-3,-1
1514891697099910,-1,-2,-1,-2,-1,-2,-1,-1
1514891697114924,-2,-4,-2,-2,-1,1,-2,0
1514891697114924,0,-2,1,-1,-2,-1,1,0
1514891697115918,0,1,0,0,-1,0,0,-1
1514891697115918,-2,0,-2,-1,-1,-1,0,-2
1514891697137934,0,0,-2,-1,-1,0,-2,-2
1514891697137934,-2,-2,-1,-2,0,0,-1,0
1514891697138434,-2,-2,-2,0,-1,-2,-4,0
1514891697138434,-1,-1,-2,0,-1,-1,-1,-1
1514891697153944,0,-1,-2,0,0,-2,-1,-2
1514891697153944,-1,0,0,-1,1,-1,-1,-1
1514891697154445,-1,-1,0,-2,1,-1,-1,-2
1514891697154445,1,1,-2,0,0,-1,-2,-1
1514891697182974,0,-1,-1,0,-2,-1,-2,-1
1514891697182974,-1,-3,-5,-1,-2,-2,0,-1
1514891697183965,-2,-2,-3,0,-2,-2,0,-3
1514891697183965,-2,-1,0,-3,-1,-1,-3,1
1514891697205491,-3,1,-1,-1,-1,0,1,0
1514891697205491,-2,-1,-1,-2,-2,-1,-1,-2
1514891697206483,0,-1,0,-2,-1,-1,-2,-2
1514891697206483,1,-3,-1,-1,-3,0,0,-1
1514891697220492,-1,-2,0,0,-2,-1,0,-1
1514891697220492,0,-3,-1,-1,1,0,0,-2
1514891697221492,-1,-1,-2,-1,-1,-2,0,-3
1514891697221492,0,-2,0,1,0,-1,-3,-4
1514891697235013,-2,-1,-1,-2,0,-1,-2,-1
1514891697235013,-2,1,-1,1,-2,-1,-4,-1
1514891697235503,-1,-1,-2,-2,-2,-1,-2,-2
1514891697235503,0,0,-1,-1,-2,-1,-1,-1
1514891697258018,-1,-3,-1,-1,0,-1,-3,-2
1514891697258018,-1,-3,1,-2,-1,0,0,-1
1514891697258519,0,0,0,-1,0,-1,0,-1
1514891697258519,-2,-2,-3,0,-1,-2,0,-3
1514891697272550,0,0,0,-2,-1,0,1,1
1514891697272550,-1,0,-1,-1,0,-2,-1,1
1514891697273029,0,-1,-1,-2,-2,0,0,-1
1514891697273029,-1,1,-2,-1,-1,-1,0,-1
1514891697295045,-1,-1,-3,-1,-1,-1,2,-3
1514891697295045,-1,0,0,0,-1,-2,-3,-2
1514891697295546,-2,-1,-4,-1,0,0,0,0
1514891697295546,-2,-2,-1,-2,-2,-1,-2,-1
1514891697326568,0,-1,-1,0,1,-2,-1,-1
1514891697326568,0,-1,-2,-1,-2,-2,-2,-1
1514891697328569,0,-1,-4,0,-2,-4,-3,-2
1514891697328569,-1,0,-2,-2,-1,-1,-1,-2
1514891697332572,-1,1,1,-1,-2,-1,0,0
1514891697332572,-3,-3,-1,0,-1,1,-1,-2
1514891697333072,-1,0,0,0,-1,-2,1,-1
1514891697333072,-3,-1,-1,-1,0,-1,1,1
1514891697355089,-3,-3,-2,-3,-2,0,-1,-1
1514891697355089,0,-1,0,-1,0,-1,0,0
1514891697362591,1,-1,1,-1,-1,0,-3,-1
1514891697362591,0,0,-1,-1,-1,-1,-2,-1
1514891697377602,0,0,0,-1,-1,0,-2,-1
1514891697377602,-1,0,-1,0,-1,-2,0,0
1514891697378104,-1,-3,-3,1,0,-1,-1,-2
1514891697378104,-1,-1,-1,0,-1,-3,-2,0
1514891697392113,-1,-2,-1,-2,0,0,-2,-1
1514891697392113,0,-1,-2,-2,-2,-1,0,-3
1514891697393114,-3,-1,0,-2,-1,-1,0,-2
1514891697393114,-3,-1,-1,1,-1,-1,1,-2
1514891697415129,0,-2,-3,0,-2,-2,1,0
1514891697415129,-1,-2,-1,-1,-2,-2,0,-1
1514891697415629,0,0,-1,-3,0,-1,0,0
1514891697415629,-1,-1,-1,-2,-1,0,-1,0
1514891697437645,0,-3,-1,-2,-1,-2,-4,0
1514891697437645,1,-1,0,0,-1,-2,-4,-1
1514891697438146,-3,-1,-1,0,-2,-1,-3,-1
1514891697438146,0,1,0,-1,-1,0,0,-3
1514891697452156,-1,3,-2,0,0,-2,3,-1
1514891697452156,-1,-2,0,-2,0,-1,-2,-1
1514891697453157,-1,-1,-1,-1,0,-1,-3,-1
1514891697453157,0,-2,-5,-2,-1,-1,-2,-1
1514891697483178,1,0,-1,1,-2,-1,-3,1
1514891697483178,-1,-2,0,1,1,1,-1,0
1514891697483689,0,0,1,-2,-1,-1,-2,0
1514891697483689,-2,0,0,-1,-1,-1,0,1
1514891697497689,0,-1,0,-2,0,-1,4,-2
1514891697497689,-2,-1,-3,0,-2,-1,3,0
1514891697498189,-1,-4,-2,-1,-2,0,-1,0
1514891697498189,1,0,0,-2,0,-2,-1,-2
1514891697511698,-1,-3,-1,-2,-1,0,-4,0
1514891697511698,-1,-1,-4,-3,-1,0,0,-1
1514891697520705,-1,-4,-1,-1,-2,-1,-1,-2
1514891697520705,1,1,-3,0,-1,0,-1,-1
1514891697534714,-2,0,1,-1,1,0,-1,-1
1514891697534714,0,1,-1,-3,0,-1,-2,0
1514891697535715,-1,-1,-1,-1,-1,-1,0,0
1514891697535715,0,-4,1,-1,-2,-1,0,-1
1514891697558230,-1,-1,-3,-1,-3,-2,-1,0
1514891697558230,-1,-2,-3,-1,-1,-2,-1,-2
1514891697559732,0,-1,-2,-1,0,-3,-1,-2
1514891697559732,0,-1,0,-1,-2,-3,1,-3
1514891697571788,-3,-3,-2,0,-2,1,-2,-1
1514891697571788,-2,-2,0,1,-2,0,-2,-2
1514891697579789,-1,0,-1,0,0,1,-2,0
1514891697579789,-2,-3,-1,-1,-1,-1,-3,-3
1514891697610313,-1,0,1,-2,-1,-1,-3,-2
1514891697610313,-2,2,1,0,-3,-1,-1,0
1514891697611314,-2,-1,-2,-1,-3,-2,2,-1
1514891697611314,-1,0,-2,0,0,-1,1,0
1514891697617316,-1,-1,-2,-1,0,-2,0,-2
1514891697617316,-3,-2,-1,-3,1,-3,-1,0
1514891697618308,-1,-1,-1,-1,0,0,-2,-1
1514891697618308,-1,-2,-1,-2,0,-1,-1,1
1514891697640321,0,0,-1,0,-2,-2,0,-2
1514891697640321,-2,-2,0,-1,0,-2,0,-2
1514891697641322,0,-1,0,-1,-2,-1,0,-1
1514891697641322,-2,0,-2,1,-2,0,2,-1
1514891697654832,-1,1,-1,-1,0,-1,1,-1
1514891697654832,-2,-2,-2,0,-1,-2,-2,-1
1514891697655833,0,0,-1,0,-1,-1,-2,-1
1514891697655833,-1,-2,0,-2,-1,-1,-3,-2
1514891697677358,-1,-2,-1,-1,-1,1,-1,0
1514891697677358,2,1,1,1,-1,-1,1,0
1514891697678358,-1,-2,-3,-1,-1,-3,-3,0
1514891697678358,-3,-2,-3,-2,-2,1,-2,-1
1514891697691859,-1,-1,-2,0,-2,-2,-1,-2
1514891697691859,-2,-2,0,-1,0,-1,-2,-1
1514891697707379,-2,-2,-1,0,0,0,2,-1
1514891697707379,-1,-2,0,-2,-2,0,-1,-1
1514891697714886,1,1,0,-1,-1,-1,0,-3
1514891697714886,0,-1,0,-1,-1,-2,-1,0
1514891697715887,-1,1,1,-2,0,-1,-2,-1
1514891697715887,0,0,-3,1,-1,-1,-3,0
1514891697737390,-1,-3,-1,-1,-2,-1,-2,0
1514891697737390,0,-4,-3,0,0,-1,0,-1
1514891697738391,-1,-2,-2,0,-1,-1,-1,0
1514891697738391,0,-2,-1,0,1,-2,1,1
1514891697752401,-3,0,0,-1,-2,-1,0,-2
1514891697752401,0,1,-3,-3,-1,-1,-1,0
1514891697759906,-1,0,1,-2,-1,0,-1,-1
1514891697759906,-2,0,2,-2,-1,0,-3,-2
1514891697774917,-1,-2,0,-1,-1,-1,-2,-1
1514891697774917,-1,-2,0,-2,-2,0,-3,0
1514891697776418,0,-2,0,-1,1,1,1,1
1514891697776418,1,-2,-4,0,-2,-3,1,-1
1514891697797434,0,-2,-3,-2,-1,-3,1,-1
1514891697797434,-1,0,-1,-2,-2,1,0,-2
1514891697798434,-3,0,-1,-1,-1,1,0,-1
1514891697798434,0,-1,-2,0,0,1,-2,-1
1514891697813457,-1,0,0,1,0,0,0,0
1514891697813457,-2,-2,-2,-2,-1,-1,-2,2
1514891697819949,-1,-2,-2,-2,-1,-1,-1,1
1514891697819949,0,-1,-2,-2,-2,-2,2,-1
1514891697834959,-1,-1,-2,-2,-1,-1,-1,-4
1514891697834959,-3,0,0,-2,-1,0,-2,-2
1514891697835459,0,0,1,0,-3,-1,-4,-2
1514891697835459,-2,1,0,0,-2,-2,-6,-1
1514891697857488,-1,-1,0,-1,-2,0,-1,0
1514891697857488,-3,-1,-1,1,0,0,2,-1
1514891697857978,-2,-2,-4,-1,0,0,1,-1
1514891697857978,-2,-1,-2,-3,-1,-1,-1,0
1514891697880492,-1,-1,-1,-2,0,-2,-1,1
1514891697880492,2,-2,-1,-2,0,-5,-1,-2
1514891697881494,-1,0,0,-1,0,-1,-2,-1
1514891697881494,-1,-2,1,-1,-3,-1,-1,-2
1514891697895522,-1,1,1,-2,-2,-1,-1,-1
1514891697895522,-2,-1,-2,0,-1,-2,0,0
1514891697897518,0,-2,-2,-2,0,-1,0,-1
1514891697897518,0,-1,-1,-1,-1,-2,0,0
1514891697917530,-1,0,0,0,-1,1,-3,-1
1514891697917530,-1,0,-1,-1,1,-1,0,-1
1514891697918024,0,-1,0,0,0,-2,-2,-2
1514891697918024,-2,-2,-2,-1,-1,-1,0,-1
1514891697948041,-1,-3,-2,-3,-2,-2,0,-1
1514891697948041,0,-1,-1,-3,-2,1,-3,-1
1514891697949060,-3,0,-1,-1,-1,-3,-1,-1
1514891697949060,0,-1,0,-2,-1,-1,-1,-2
1514891697955065,0,-2,-1,0,-1,-1,2,-1
1514891697955065,-2,-2,-3,0,-1,0,0,-2
1514891697956555,0,-1,-2,-2,-1,-1,2,0
1514891697956555,0,-1,-1,-1,-2,-1,-3,-1
1514891697985565,-1,0,-2,-1,0,-1,-1,-2
1514891697985565,-1,-1,2,-2,-3,-2,-3,0
1514891697986566,-1,-2,-2,0,-1,-1,-1,0
1514891697986566,-1,-2,0,1,-1,-2,0,0
1514891698000076,-1,-1,-2,0,-1,-1,-2,-1
1514891698000076,0,0,-1,1,0,1,0,-3
1514891698001076,-2,-2,-1,-1,-2,-1,-3,-2
1514891698001076,1,0,-1,-2,-1,0,-3,-1
1514891698015089,0,2,-1,-1,-3,-1,-2,-1
1514891698015089,-1,1,-2,-1,-1,-1,-1,2
1514891698016090,-1,-2,0,-1,-1,-1,1,2
1514891698016090,-2,-2,-3,0,1,0,0,1
1514891698039104,-1,-2,-1,-1,0,0,-1,-1
1514891698039104,-1,0,0,-1,-1,2,1,0
1514891698039604,1,-2,-1,0,-2,0,0,-1
1514891698039604,-2,-2,0,-2,-2,1,1,-3
1514891698062122,0,1,-2,-1,-1,-3,0,-1
1514891698062122,0,-1,-2,-2,-1,-4,-3,-2
1514891698062620,-2,1,1,-1,0,0,-4,-2
1514891698062620,0,-1,0,-1,-1,-1,-2,0
1514891698074641,-2,0,-1,0,-1,-1,-2,1
1514891698074641,-1,-2,-1,0,0,0,0,1
1514891698076640,-2,-2,-2,-1,0,-1,1,-2
1514891698076640,-1,-1,-2,-1,-1,-2,0,-1
1514891698097645,0,-1,2,0,-1,-3,-3,-4
1514891698097645,-1,0,-1,-1,-1,-2,-1,-2
1514891698098166,-1,1,-2,0,-2,0,1,-1
1514891698098166,0,-2,-2,0,-1,-2,-1,-1
1514891698120661,-1,-2,-3,0,0,-2,0,-1
1514891698120661,0,-3,0,-1,-2,0,-3,1
1514891698121162,-1,-1,2,-1,-1,-1,-6,0
1514891698121162,-1,1,-2,-1,-1,0,-2,-2
1514891698134681,-1,-1,-1,-1,-2,-2,-2,-1
1514891698134681,-1,-2,-2,0,-1,-2,1,-1
1514891698135673,-1,-1,-1,-1,2,-2,2,-1
1514891698135673,-2,-1,1,-1,-2,1,1,-1
1514891698157202,-1,0,0,0,-2,-2,2,2
1514891698157202,-2,1,0,-1,-1,0,1,1
1514891698158188,-1,0,-2,-2,-1,-1,0,-1
1514891698158188,1,-1,-1,-1,-2,-2,-5,-1
1514891698180725,1,-1,-1,-3,1,1,-3,-2
1514891698180725,-1,-2,-2,-1,0,-2,-3,-1
1514891698181705,0,-2,-1,1,0,-1,1,0
1514891698181705,-2,1,-1,-1,-1,-3,2,-2
1514891698195224,-2,-2,0,-2,-2,0,1,0
1514891698195224,-1,-1,0,-2,1,0,-1,-2
1514891698202229,0,-4,-3,-2,-2,-2,-3,-1
1514891698202229,0,-1,-3,-2,-2,-2,-6,0
1514891698217229,1,-1,-2,-2,-2,-1,-4,-1
1514891698217229,-2,0,-2,-1,-2,-2,-1,-2
1514891698219231,0,0,0,0,-2,-1,-3,1
1514891698219231,-2,-1,1,0,0,1,0,0
1514891698240746,-1,-3,-3,0,-1,-1,-1,0
1514891698240746,-1,-2,-2,-1,-1,-1,1,0
1514891698241248,-2,0,1,-2,-2,0,1,0
1514891698241248,-2,-2,-1,-1,-2,-3,3,-1
1514891698262761,0,1,-1,-2,-3,-2,1,-2
1514891698262761,0,-1,-1,0,-2,-1,1,0
1514891698264767,0,-2,-4,-2,-1,-2,-1,-2
1514891698264767,-1,-1,-2,-3,-2,1,-3,-3
1514891698277272,-2,-1,0,-1,-1,1,-4,-1
1514891698277272,0,-1,0,-1,-1,-2,-2,-2
1514891698278273,-2,0,-1,-1,0,-3,-1,0
1514891698278273,0,-2,0,-1,-1,-3,0,0
1514891698300788,-2,-2,-3,-1,-1,-1,1,-1
1514891698300788,-1,-2,-4,-2,-3,1,-1,-1
1514891698302289,-2,0,-2,-2,-1,-1,-2,1
1514891698302289,-1,2,-1,-3,1,0,-1,-1
1514891698315800,0,-1,1,-1,0,-3,-1,1
1514891698315800,-1,-2,2,0,1,-2,-4,-1
1514891698317800,0,-4,-1,-1,0,-2,-2,-1
1514891698317800,-3,1,-3,0,-2,-3,1,-1
1514891698337327,-1,1,0,-1,0,0,1,-2
1514891698337327,0,-2,0,-2,0,0,2,-1
1514891698338324,1,-2,-2,-3,-1,1,1,0
1514891698338324,-1,-3,-3,2,-1,-1,-1,-1
1514891698368352,-1,0,-2,-1,-1,-2,0,0
1514891698368352,-2,-2,-2,-2,-1,-2,-1,0
1514891698368838,-1,-2,0,-2,0,0,-1,-1
1514891698368838,-1,-2,0,0,-2,1,-1,-1
1514891698383347,-3,-2,-3,0,-1,0,-3,-1
1514891698383347,-2,-1,1,-2,-1,0,0,-2
1514891698383848,-1,0,0,0,-2,-1,0,-3
1514891698383848,-1,-1,-1,0,-1,-1,0,-1
1514891698397358,0,0,-1,0,-1,0,-1,-1
1514891698397358,-1,1,-2,1,-1,-2,-2,-1
1514891698398373,-1,1,-1,-1,0,1,1,-1
1514891698398373,-1,0,-1,-1,-1,-2,-2,-2
1514891698420873,-1,-3,-1,0,-2,-1,-3,0
1514891698420873,-1,-2,-2,-2,-1,-1,-1,0
1514891698422374,-2,0,-2,-1,-2,-2,1,-2
1514891698422374,-1,-3,0,0,-1,-1,2,1
1514891698434383,-1,-4,0,-1,-1,-1,2,-2
1514891698434383,0,0,1,-2,0,-2,1,0
1514891698442389,-1,-1,0,-1,0,0,-1,-1
1514891698442389,0,0,0,-1,1,1,-2,-1
1514891698457899,-3,0,-2,-3,-2,-2,-1,0
1514891698457899,0,-2,-4,0,-2,0,-4,2
1514891698458900,-1,-1,-2,1,0,0,-3,1
1514891698458900,0,0,-2,-2,-2,-2,-1,0
1514891698480415,0,-1,-2,-1,-1,-1,-3,-2
1514891698480415,-2,-2,-1,0,-1,-1,-1,-3
1514891698481417,-1,-1,-2,1,-3,-3,-1,-1
1514891698481417,1,-3,-1,-2,-1,0,-3,-3
1514891698502931,-2,-1,0,-3,-2,-1,1,-2
1514891698502931,-3,0,0,-3,-2,0,0,-2
1514891698503933,-1,-1,0,0,0,-2,1,-1
1514891698503933,-2,-3,-3,-1,-1,1,2,0
1514891698517442,1,-3,-3,0,1,-1,1,0
1514891698517442,-1,-1,-1,0,0,1,-3,-1
1514891698517942,-1,1,1,-1,-1,0,-2,0
1514891698517942,0,-1,-1,-2,1,-1,-2,-2
1514891698540468,0,0,-1,-1,-1,0,2,0
1514891698540468,-2,0,-2,0,-1,-1,-1,-1
1514891698541459,-1,0,-1,-1,-3,-2,-2,-2
1514891698541459,0,-2,-1,-1,-3,-3,-2,0
1514891698554468,-2,-2,0,-1,-2,-2,-3,-1
1514891698554468,-1,-1,-2,-1,-1,-1,-2,-2
1514891698562495,-2,-2,-1,-2,-1,1,1,0
1514891698562495,-1,-1,0,-2,1,-1,-1,-3
1514891698577043,-1,-3,-1,-1,-3,-2,0,0
1514891698577043,0,-3,-1,0,-1,1,-2,-2
1514891698578043,1,-2,-2,-1,1,-1,-1,-1
1514891698578043,-3,0,-1,-1,0,-3,-1,-1
1514891698601060,-2,0,-1,-1,1,0,-2,-1
1514891698601060,-2,-1,1,-1,-1,-2,0,-2
1514891698602574,-1,-2,-4,-1,-1,-1,-3,-4
1514891698602574,1,-1,-1,-2,-1,-2,0,0
1514891698614571,0,-1,1,0,-1,-2,-3,0
1514891698614571,-1,0,-2,-2,-3,-2,-1,1
1514891698622075,0,-1,-1,-1,-2,-3,2,1
1514891698622075,-2,-1,-2,0,-2,0,-2,0
1514891698645593,0,-1,-2,-3,-2,-1,0,-2
1514891698645593,-1,0,-2,-1,-1,-1,0,-1
1514891698646592,-1,0,1,-1,0,0,-1,-2
1514891698646592,-1,-2,0,-2,-3,1,0,-3
1514891698660602,-1,-3,-1,0,0,0,0,-2
1514891698660602,0,-2,-2,-2,0,-1,-2,-1
1514891698661102,-1,-2,-1,-2,-1,-2,-2,1
1514891698661102,-1,-3,0,0,-1,-2,-1,1
1514891698674138,0,0,-1,0,-2,-2,-3,-2
1514891698674138,-2,-2,-2,-1,1,-3,0,-1
1514891698682618,0,-1,-2,0,1,-1,-3,-2
1514891698682618,-1,2,-1,-2,-1,-1,-3,-3
1514891698697629,-1,0,-1,0,-2,-1,-1,-2
1514891698697629,-1,-1,1,0,-1,2,-2,0
1514891698698133,-2,-2,-2,-1,-1,-1,-2,-1
1514891698698133,-1,-2,-2,-1,0,-2,0,0
1514891698720646,-2,-3,-1,0,0,-4,-1,-2
1514891698720646,0,-2,-1,-3,-3,-2,-1,0
1514891698721146,-1,-1,0,-3,-1,-1,0,-1
1514891698721146,0,0,-1,-2,-2,-1,-1,-3
1514891698734164,-2,0,-3,-3,0,-1,-1,-1
1514891698734164,-2,0,-1,-1,-3,-2,-1,-4
1514891698742661,-2,-1,-1,-2,-2,-2,-1,0
1514891698742661,1,-1,-2,-1,-3,-2,2,0
1514891698765676,0,-2,-1,-1,-2,-1,0,1
1514891698765676,1,-2,-2,-1,1,0,1,0
1514891698766177,-1,1,-2,0,-1,-1,0,-1
1514891698766177,-2,0,-2,0,0,3,-3,0
1514891698780687,-1,-2,-2,-1,-2,0,1,1
1514891698780687,-1,-1,0,-1,-2,0,-3,-1
1514891698781198,-2,0,-1,-1,-3,-1,-2,1
1514891698781198,-2,-2,0,-1,0,-3,1,0
1514891698803203,-2,1,-2,-1,0,-1,-1,-1
1514891698803203,0,1,0,0,0,-2,0,-2
1514891698803704,0,-3,-1,-1,1,0,-1,-1
1514891698803704,-2,-1,-2,0,-2,-1,-5,-1
1514891698817222,1,0,-2,-1,0,0,-3,0
1514891698817222,0,-2,-1,-2,-1,-1,0,-1
1514891698818213,0,-2,0,0,-1,-2,1,0
1514891698818213,-2,-1,0,0,0,-2,4,-1
1514891698839731,-1,-1,0,-1,0,-1,-3,-3
1514891698839731,0,0,-1,-2,-2,-1,-2,-1
1514891698847735,-1,0,-1,-2,0,-1,-1,-1
1514891698847735,0,0,1,-2,-1,-2,0,-1
1514891698870751,-2,1,0,-1,-2,-1,-1,0
1514891698870751,-1,-1,-2,-2,-1,-1,0,2
1514891698871251,-1,-2,-3,-1,-1,0,0,0
1514891698871251,-1,0,-1,-2,-2,0,0,-1
1514891698885761,0,-1,0,-4,-2,-2,-1,-3
1514891698885761,-2,-3,-1,0,1,-2,0,0
1514891698886261,0,0,-2,-1,-2,-2,-1,0
1514891698886261,-1,-1,0,-2,-2,-1,-4,-1
1514891698900272,0,-2,0,0,-1,-3,1,-2
1514891698900272,-2,1,-2,0,-1,-2,-1,-2
1514891698901273,-1,-2,-2,0,-3,-1,-1,-2
1514891698901273,0,-3,-3,0,0,0,-2,-2
1514891698922791,-1,-3,-1,1,-1,-1,-2,-1
1514891698922791,-1,-2,0,0,0,-2,-1,1
1514891698923288,-1,0,2,-1,-1,1,-5,0
1514891698923288,-1,0,-2,-2,-3,0,-1,0
1514891698937297,-3,-3,-2,1,-1,0,2,-2
1514891698937297,-2,0,-1,1,1,-1,2,-1
1514891698938298,-1,0,1,0,-1,-4,-3,-2
1514891698938298,0,0,-1,-1,0,-1,-1,-2
1514891698959824,-1,0,-2,-3,-1,-4,-4,0
1514891698959824,-1,-2,-3,-2,-1,-1,-3,0
1514891698968329,-3,0,-3,-1,-1,-1,-1,-1
1514891698968329,-1,-2,-1,0,-1,-3,2,0
1514891698998843,-1,-2,-1,0,-1,-1,0,0
1514891698998843,0,-1,-1,-2,-2,-1,-3,-1
1514891698999343,0,-1,0,-1,-1,-1,-2,-1
1514891698999343,-2,-2,-1,-2,-1,0,-2,-3
1514891699001344,-1,-1,-1,-3,-4,0,1,-2
1514891699001344,-1,-1,0,-3,0,0,-2,-2
1514891699006847,-2,-4,-2,-1,-1,1,-1,0
1514891699006847,0,-2,-4,0,-1,0,-3,-2
1514891699020359,0,-1,-3,-1,0,0,-1,0
1514891699020359,1,-1,0,-1,-3,-1,2,-1
1514891699022358,-1,0,-2,0,-1,-1,1,-1
1514891699022358,-2,-1,0,1,-1,-1,0,-1
1514891699043397,-1,-1,-1,-3,0,-1,2,-2
1514891699043397,-1,-2,0,-1,-2,-2,1,-1
1514891699045884,-1,-2,0,-1,-1,1,-1,-2
1514891699045884,-1,-2,-2,-2,-1,-2,-1,0
1514891699056883,-2,1,0,-1,0,-2,-1,-1
1514891699056883,-1,0,-2,1,-2,0,-1,-4
1514891699065889,0,-1,-1,0,-1,-2,0,-1
1514891699065889,0,-1,0,-3,-2,-1,-2,-1
1514891699080409,-1,-2,1,-1,-3,0,-3,-1
1514891699080409,-2,-1,0,1,-2,-2,-3,0
1514891699082402,-1,-1,-1,-1,-2,0,0,-3
1514891699082402,-2,-2,-1,-1,-2,-2,0,-1
1514891699102915,-2,-2,-1,-1,1,0,1,0
1514891699102915,-2,0,-1,0,-2,-2,2,-1
1514891699104416,2,1,-4,-3,0,0,-2,-1
1514891699104416,-1,0,0,0,0,-1,-1,1
1514891699116934,-1,-1,-2,-3,-3,0,-4,-1
1514891699116934,0,-1,-2,-1,0,-2,-1,1
1514891699126932,-1,-1,0,-2,-1,-3,1,0
1514891699126932,1,0,0,-3,-2,-2,-3,-2
1514891699140441,-2,-1,-2,-1,-3,0,-2,0
1514891699140441,0,-1,-4,0,-2,0,-2,-2
1514891699146445,-1,-2,-3,1,-1,0,-3,-1
1514891699146445,-1,-1,-2,0,-1,0,-1,0
1514891699162974,0,-3,-2,-1,-1,-4,-3,1
1514891699162974,-1,-3,0,-2,0,1,-4,0
1514891699165460,-1,-1,0,-1,-3,-1,0,-2
1514891699165460,-2,-1,-1,-2,-3,-4,0,-2
1514891699176466,0,-1,-2,-1,0,0,4,-4
1514891699176466,-1,1,0,-1,0,-3,2,-2
1514891699185480,-1,0,0,-1,0,-2,2,0
1514891699185480,-1,-1,-1,0,1,0,-2,2
1514891699200483,-1,1,-1,0,-1,0,-1,1
1514891699200483,0,0,-1,-2,0,0,-2,-2
1514891699202985,-1,-1,-2,0,0,-3,-1,-1
1514891699202985,0,1,-3,0,-2,-1,-1,-1
1514891699223013,-1,-1,1,-1,0,-2,0,-3
1514891699223013,-2,-3,-1,-1,-3,1,2,1
1514891699225501,-1,-1,0,1,-4,-1,-2,-1
1514891699225501,0,1,-4,-2,0,0,-1,-2
1514891699237510,-1,-1,-1,1,0,-2,-3,-1
1514891699237510,-3,-3,-1,-1,-2,-3,-1,1
1514891699244014,-2,-1,-2,-1,0,0,0,2
1514891699244014,-2,-3,-2,-2,-2,0,-1,0
1514891699268033,-2,-1,-2,0,-2,0,-3,-4
1514891699268033,0,-1,0,-2,1,-2,0,0
1514891699269532,-1,-2,1,-1,0,-2,-2,-3
1514891699269532,-2,1,0,-1,-1,-2,-4,-2
1514891699283086,-2,-1,0,-2,-1,1,-1,-1
1514891699283086,0,1,-2,-1,-2,2,-2,-2
1514891699284585,-2,-1,-1,0,0,-1,1,-1
1514891699284585,-1,-1,-1,-1,1,0,3,0
1514891699296583,-1,-4,-2,-1,-2,-1,0,2
1514891699296583,-2,-2,-3,0,-1,-2,-2,-3
1514891699305590,0,0,-2,-1,0,1,-3,-2
1514891699305590,0,-2,0,-3,-2,-1,-4,-3
1514891699321611,0,0,-2,0,-1,-2,-3,-1
1514891699321611,-2,0,1,-3,-1,0,0,2
1514891699323111,-1,-2,0,-4,0,-1,1,-3
1514891699323111,-1,-2,-2,-2,-1,0,0,-1
1514891699350634,0,1,-3,-1,-1,1,-2,0
1514891699350634,-1,0,-1,0,-1,0,1,-1
1514891699352135,-1,0,1,0,0,-1,-1,0
1514891699352135,-1,-1,0,0,-1,1,0,1
1514891699357126,-2,1,-1,-1,-1,2,-1,1
1514891699357126,-1,-2,-1,0,0,-1,-2,-2
1514891699365633,0,0,-2,-1,-1,-1,-2,0
1514891699365633,-1,0,-2,-1,0,-2,-2,-2
1514891699380655,-1,-3,-2,-3,-1,-4,-1,-2
1514891699380655,-1,-1,-1,-3,0,-2,-1,-2
1514891699382144,-1,0,-2,-1,-2,1,1,2
1514891699382144,1,-1,-1,0,-1,0,1,-1
1514891699403159,-1,-2,-2,-2,1,0,0,-1
1514891699403159,0,-1,-3,0,-2,2,-1,-1
1514891699404672,-2,-4,0,-2,0,-4,-3,-2
1514891699404672,-1,0,1,-2,-1,-1,-4,-1
1514891699425692,-2,-1,-1,0,0,-1,-1,0
1514891699425692,-1,-3,-1,0,-2,0,-1,-1
1514891699427176,1,1,-1,0,-1,3,-2,-3
1514891699427176,0,-1,0,0,-2,2,0,-2
1514891699440704,-2,-2,1,-1,0,3,-3,-3
1514891699440704,-1,-2,-2,0,0,1,-1,-1
1514891699442198,0,-2,-1,-1,-1,-5,0,-1
1514891699442198,-2,-2,-2,-2,-1,-3,0,-1
1514891699463702,-1,-2,0,0,-2,-5,-1,0
1514891699463702,-3,1,-1,-1,0,-3,0,0
1514891699466215,-1,-2,-1,-4,-3,-3,1,1
1514891699466215,-1,-1,-2,-1,-2,-4,0,-2
1514891699476711,0,-1,-3,-3,-1,-4,0,-1
1514891699476711,-2,-2,-1,-1,0,-1,-1,-1
1514891699485717,1,2,-2,0,0,-1,-1,-4
1514891699485717,-2,-1,0,0,-2,-1,1,-2
1514891699500727,0,-2,0,1,-1,-1,-1,-3
1514891699500727,0,-1,0,-2,-2,-1,0,0
1514891699503229,-3,-2,-2,-1,-1,0,1,0
1514891699503229,0,-1,-3,0,0,-2,-1,-1
1514891699522743,0,0,-2,-1,1,-4,-1,0
1514891699522743,-1,-2,-2,0,0,-2,-4,-1
1514891699529248,-2,-2,-1,1,-2,0,-1,0
1514891699529248,-1,-1,-1,-2,-1,-1,1,-3
1514891699545759,-1,-2,-2,-1,0,0,2,-2
1514891699545759,-2,-2,-1,-1,0,-1,0,-1
1514891699547260,-2,-1,-2,-3,-2,0,-2,-1
1514891699547260,-1,-3,0,-1,-1,0,-1,1
1514891699560272,0,-3,0,-2,-1,-1,0,-1
1514891699560272,1,-1,-1,-3,-2,-1,-2,-2
1514891699562299,-1,1,0,-1,-1,-2,-4,-1
1514891699562299,0,-1,-1,0,-1,-1,-1,0
1514891699582286,-2,0,0,-1,-1,0,-1,0
1514891699582286,-1,-3,-2,-1,-3,0,0,-1
1514891699590804,0,-2,1,0,-2,-1,3,-2
1514891699590804,-2,2,-2,-4,-1,-2,-1,-1
1514891699596795,-1,1,0,-1,-1,-1,-2,0
1514891699596795,-1,-1,0,0,-1,-2,-3,1
1514891699613308,-1,-1,-2,0,0,0,-1,-3
1514891699613308,-2,-1,-2,-1,-2,-1,1,0
1514891699621313,-3,-3,-1,1,-1,0,2,0
1514891699621313,1,-1,1,-1,0,-1,-3,0
1514891699623314,-1,-3,-2,-1,0,0,-3,0
1514891699623314,0,0,-1,-1,0,-3,-2,-2
1514891699650343,-1,0,-1,-2,-2,-2,-1,-3
1514891699650343,-1,-1,-3,-1,-2,0,3,2
1514891699652339,0,-2,-2,-1,-2,0,1,1
1514891699652339,0,0,0,-1,1,1,-1,-2
1514891699656851,-1,-1,0,0,-3,0,-3,-1
1514891699656851,-1,0,-2,-1,2,-2,-1,-5
1514891699665845,-1,-1,-1,-1,0,0,-2,-1
1514891699665845,-2,-1,-1,0,-2,-2,-1,1
1514891699688360,-1,-1,-2,-3,-1,-2,0,-1
1514891699688360,-3,-3,-1,-1,-1,-1,0,-1
1514891699690363,0,1,-1,-1,-1,0,0,-2
1514891699690363,0,-3,-1,1,-2,0,0,-2
1514891699703370,-1,0,-3,0,0,1,0,1
1514891699703370,-1,0,-2,-1,-2,0,-2,-2
1514891699705385,-2,-2,-2,-2,-2,-1,-3,0
1514891699705385,-2,0,1,-1,-2,-1,-2,0
1514891699725398,0,0,-1,-1,-2,-1,1,-1
1514891699725398,-1,0,-2,-3,0,-1,1,-1
1514891699726898,0,-2,-2,-1,-1,-1,-2,-2
1514891699726898,-1,-3,-1,-2,-1,-2,-1,-2
1514891699740412,0,0,-1,1,-1,-3,-2,-2
1514891699740412,-2,-1,0,-1,-1,0,-2,0
1514891699741906,-1,-1,2,-1,1,-1,0,1
1514891699741906,1,-4,-2,-1,-1,-2,-1,1
1514891699762938,-2,-5,-2,0,-1,1,-3,0
1514891699762938,0,-1,-1,-1,-2,-2,-3,0
1514891699764915,-1,1,1,-2,-2,-3,-1,-2
1514891699764915,-2,-1,1,0,-1,0,-2,0
1514891699785429,-2,1,-2,-1,0,-2,3,-1
1514891699785429,0,-2,-2,-1,-2,0,4,-1
1514891699786930,-2,0,-2,-1,-2,-2,-2,-1
1514891699786930,-2,1,-1,-3,1,-1,-1,-3
1514891699800458,-1,0,0,0,0,-1,0,-4
1514891699800458,-3,-2,0,-1,-1,-1,0,0
1514891699801961,-3,-1,-1,0,-2,-1,1,1
1514891699801961,-2,-1,-2,-1,-1,0,-4,0
1514891699822966,-1,-3,-1,0,0,-2,-4,-1
1514891699822966,-1,-3,-2,0,0,-2,-3,-2
1514891699824466,0,-1,-2,0,-1,0,-1,0
1514891699824466,0,-3,-2,-1,-1,0,2,-2
1514891699845471,-1,-3,-1,-1,-2,0,1,-1
1514891699845471,-2,-1,-1,-1,0,-3,0,-1
1514891699847973,0,0,-1,-1,-2,-1,-2,-3
1514891699847973,0,1,1,2,-1,0,-2,-4
1514891699860482,0,0,-1,0,1,1,-4,-1
1514891699860482,-2,-1,-1,-2,0,0,-2,-1
1514891699861983,-3,0,-3,-2,-2,-1,-2,-1
1514891699861983,-1,-2,-2,-3,-1,3,-1,1
1514891699883017,0,-1,0,-1,-2,-2,-2,0
1514891699883017,-1,1,-1,-1,-1,-2,-3,-1
1514891699884499,0,-1,-1,0,-2,-1,0,-1
1514891699884499,1,-2,-1,-1,-2,-1,2,-1
1514891699905532,-4,-2,-3,-1,0,-2,-2,1
1514891699905532,1,-2,-2,-1,-1,-2,0,-1
1514891699907015,-1,-1,-1,-1,-1,-2,2,-2
1514891699907015,-2,-1,-1,-2,-1,-2,-1,-1
1514891699928030,0,-1,-1,-2,-1,-1,-3,-1
1514891699928030,-1,-1,0,-1,-3,-1,-1,-1
1514891699929537,-1,0,0,0,0,-1,-1,-1
1514891699929537,0,-3,-1,-1,-1,1,0,0
1514891699943040,-1,-2,-1,-1,0,-2,-1,-1
1514891699943040,-2,-1,-1,0,-1,-2,0,0
1514891699945543,-2,-3,-1,1,0,-2,0,0
1514891699945543,-1,1,1,1,-1,-2,-2,-1
1514891699982072,1,0,-1,-2,1,2,-1,-1
1514891699982072,1,-1,-2,0,-1,1,0,0
1514891699983589,-1,-1,0,-1,-2,1,-1,0
1514891699983589,-1,0,-2,0,0,-2,-4,-1
1514891699984074,-1,0,-2,-1,-2,-4,0,-1
1514891699984074,-2,-2,-3,-2,0,-1,-3,-2
1514891699995598,-2,-3,0,-1,-1,-2,-3,-2
1514891699995598,-1,0,0,-2,-1,-3,-2,-2
1514891700003093,-1,-1,1,-1,-2,-3,0,-1
1514891700003093,-1,0,-1,-1,0,-1,1,0
1514891700004595,0,-1,0,0,-1,-1,-1,-1
1514891700004595,0,-2,-2,0,-1,-2,-1,0
1514891700033113,-1,-3,-3,1,-1,-1,-1,-2
1514891700033113,-1,-2,0,-1,-2,0,-1,-1
1514891700034615,-1,-3,-2,-3,-2,-2,0,-1
1514891700034615,0,1,-2,-2,-2,-1,-2,-2
1514891700040609,-1,0,-1,-2,0,-2,0,-2
1514891700040609,-1,-2,-1,0,0,-2,-2,-3
1514891700047614,0,-1,-2,1,0,-2,-1,-1
1514891700047614,-1,0,-1,-2,-1,0,-3,-1
1514891700063638,-2,-2,-1,1,-1,2,0,3
1514891700063638,0,-2,-1,-1,0,0,0,1
1514891700066139,-1,-2,-1,-1,0,0,1,-2
1514891700066139,-2,0,-2,-2,0,-1,-1,-2
1514891700085641,-1,0,-2,-3,-1,-1,-3,-3
1514891700085641,-1,-1,-1,-2,-2,-2,-4,-1
1514891700087142,-1,0,-2,-2,-1,0,-1,-2
1514891700087142,-1,-3,-1,-1,-2,0,0,0
1514891700099658,-1,-2,-1,-2,1,-1,3,1
1514891700099658,-3,-2,-2,-1,1,1,0,2
1514891700106657,0,-1,-2,-3,0,-1,-2,-1
1514891700106657,-1,-1,0,0,-1,-2,0,-1
1514891700123181,0,-3,-2,-1,-1,0,-2,0
1514891700123181,2,1,1,-1,-1,-2,0,-1
1514891700125684,-1,0,-2,0,-1,-1,0,-3
1514891700125684,-2,0,-1,-1,-2,-3,2,-3
1514891700144697,-1,-1,1,-2,-1,-2,-1,-2
1514891700144697,-2,-2,-2,0,-2,-2,-3,-1
1514891700153188,-3,-2,-1,-2,-2,0,-1,-1
1514891700153188,-2,-1,-2,1,-1,-1,2,0
1514891700159714,-3,0,1,0,0,-1,2,0
1514891700159714,-1,-1,0,-2,-2,-2,-1,-1
1514891700166698,0,-3,-3,-1,-1,-1,0,-1
1514891700166698,0,-1,-3,-2,0,0,-1,-1
1514891700183210,-2,-2,-2,1,-1,-1,-2,0
1514891700183210,-2,-1,0,0,0,-3,-1,-2
1514891700184711,-2,-1,-1,-1,-3,-2,-2,0
1514891700184711,0,-1,2,-2,-2,-2,-4,0
1514891700205726,-1,-2,-2,-2,-3,-2,-3,-2
1514891700205726,0,-1,-3,-2,-1,0,-3,-2
1514891700207227,1,1,-3,-1,-1,-1,-1,-2
1514891700207227,-1,-2,-2,-2,-1,-3,-1,1
1514891700220736,-2,-2,0,0,0,-1,-3,-1
1514891700220736,-1,-1,-2,0,0,0,0,0
1514891700226760,-2,0,1,0,-1,-1,0,0
1514891700226760,-1,0,-1,-1,0,-1,0,-1
1514891700249757,-2,-2,-2,0,-2,-1,0,0
1514891700249757,-2,-1,-1,-1,0,-1,0,-4
1514891700258285,0,-1,1,-3,-1,1,-4,0
1514891700258285,-1,0,1,-1,0,-2,-4,-2
1514891700265340,0,-1,-1,-2,0,-1,-3,-4
1514891700265340,-1,0,-2,-1,-1,0,1,-2
1514891700267361,-1,0,-1,-2,0,-2,-1,-1
1514891700267361,0,-3,-2,0,-2,-1,0,-1
1514891700278928,0,-3,-1,-1,0,-1,1,-1
1514891700278928,-2,-2,-1,-1,-1,0,-2,1
1514891700293941,-1,-3,-2,1,-2,0,-1,-1
1514891700293941,-1,0,-2,-1,-1,0,-2,1
1514891700302936,0,0,-1,-2,-1,-2,-2,-2
1514891700302936,-1,0,0,-2,2,-1,1,1
1514891700304446,-2,0,0,-1,-2,1,1,-1
1514891700304446,-2,0,-1,-1,-1,-2,1,-2
1514891700325451,1,0,-2,1,-2,-1,2,-2
1514891700325451,0,-1,1,0,-2,-1,-2,-1
1514891700327453,-2,-4,0,-1,0,0,-4,-3
1514891700327453,0,-1,0,-1,-3,-1,-2,-2
1514891700338973,-2,-1,-2,-2,-2,-1,1,0
1514891700338973,-4,-1,-1,-2,-2,-2,-1,-1
1514891700347967,2,-1,0,-3,-2,-1,2,1
1514891700347967,-1,-1,1,-1,0,-1,0,-1
1514891700363017,-6,-1,-1,-1,-1,-2,-4,0
1514891700363017,-1,-1,-1,-1,0,-1,1,0
1514891700364480,-3,-2,-3,-2,-1,-2,0,1
1514891700364480,1,1,-2,-1,-4,0,-2,0
1514891700385506,1,0,-1,1,-1,-2,-1,0
1514891700385506,1,-2,-2,0,-1,-2,-3,0
1514891700386996,-1,1,0,1,-1,-1,1,-3
1514891700386996,-3,-1,0,-2,-1,0,1,-1
1514891700399505,0,1,0,-2,-1,0,-2,0
1514891700399505,-1,-2,-1,0,-1,0,0,-1
1514891700408010,-2,1,-2,-2,-1,-1,-2,-4
1514891700408010,-2,0,-4,-2,-1,0,-1,0
1514891700430525,-6,-5,-3,-3,-1,0,-1,-1
1514891700430525,-6,-3,-2,0,2,-1,-1,-1
1514891700432031,-1,0,1,1,0,-1,-1,-2
1514891700432031,5,-2,1,-3,-4,-4,-1,-4
1514891700445536,-2,-2,-1,1,-1,2,-1,-2
1514891700445536,3,2,0,-2,-1,-1,-2,-5
1514891700448038,1,4,1,2,3,2,1,2
1514891700448038,-3,0,0,3,4,0,2,2
1514891700459045,7,4,1,-3,0,-2,1,4
1514891700459045,5,-10,-6,-3,-2,-1,-2,0
1514891700468053,-15,-7,-4,-4,-5,-4,-4,-4
1514891700468053,-9,-5,-2,-3,-1,-4,-5,-6
1514891700483072,6,0,0,0,-1,-1,1,1
1514891700483072,7,3,1,-1,0,0,3,4
1514891700484574,-2,-4,-2,-1,-1,-5,-5,-5
1514891700484574,1,0,1,1,1,1,1,3
1514891700513595,-2,6,1,0,-1,-2,-3,-1
1514891700513595,1,6,2,-1,-2,0,0,1
1514891700521099,-3,-13,-6,-4,-3,0,0,0
1514891700521099,-5,-9,-16,-4,-3,-1,-2,0
1514891700522602,-8,5,-1,0,-1,-1,-5,-5
1514891700522602,-10,-12,16,-2,-3,-3,-3,0
1514891700528096,2,6,-9,3,2,0,1,-1
1514891700528096,-18,-17,22,-3,-3,-5,-4,-9
1514891700550610,-9,1,-14,0,0,0,0,-3
1514891700550610,-1,-1,-16,-8,-4,-4,1,-4
1514891700552111,10,15,20,-3,-3,1,-1,3
1514891700552111,-1,-7,-5,9,1,-1,1,-1
1514891700564632,-10,5,0,-9,1,-1,-1,-5
1514891700564632,20,3,1,3,4,2,2,5
1514891700573136,2,-26,-12,-6,-3,-2,-2,2
1514891700573136,6,5,-23,-7,-5,-5,-8,-7
1514891700588147,4,1,10,3,2,3,2,2
1514891700588147,-8,12,8,0,0,0,-1,0
1514891700589648,-2,-4,-14,-3,0,1,4,1
1514891700589648,4,11,11,-2,0,0,6,6
1514891700603158,-21,-13,-14,2,0,-3,1,1
1514891700603158,-2,-13,21,-3,-4,-4,-5,-6
1514891700604659,-3,9,2,5,1,1,-4,-4
1514891700604659,9,12,10,0,0,0,-1,3
1514891700625664,-5,-1,-10,0,-3,-2,-2,-6
1514891700625664,2,2,-3,1,1,-3,0,4
1514891700628176,-15,-8,-1,-1,-2,-3,1,4
1514891700628176,9,-5,-6,-1,0,2,0,5
1514891700655685,-13,-4,9,-2,-2,-3,0,-5
1514891700655685,-9,-17,-8,7,1,2,4,2
1514891700658200,-7,-2,1,-5,-2,-4,-3,-2
1514891700658200,-2,-16,-15,-8,-2,-2,-1,-4
1514891700663194,6,0,-5,-3,0,-2,-3,0
1514891700663194,4,3,1,4,-1,1,-4,-4
1514891700664703,1,19,-1,9,0,3,2,10
1514891700664703,6,7,26,4,2,2,-1,-2
1514891700685706,18,-11,-4,-2,-4,-3,-6,2
1514891700685706,-3,0,-3,0,-2,-1,0,-2
1514891700687207,12,5,0,-1,1,-1,-2,-3
1514891700687207,-30,-6,-25,1,0,0,2,-2
1514891700708239,21,5,-5,-14,-2,0,0,0
1514891700708239,-5,2,-5,-2,0,-1,-3,1
1514891700709737,2,-12,-6,-5,-3,-1,-2,2
1514891700709737,-2,1,11,10,0,2,1,-6
1514891700723233,4,8,-2,-8,-2,1,0,5
1514891700723233,8,-1,-24,-7,-3,-3,-7,-6
1514891700724734,-1,1,14,-1,-2,-2,-1,-5
1514891700724734,-6,-7,-5,-3,-2,-3,0,-3
1514891700745748,-2,-2,13,14,1,1,1,-3
1514891700745748,19,15,8,3,1,2,2,3
1514891700748250,-23,-22,-12,-9,-4,-2,-3,-4
1514891700748250,-2,-6,3,-3,-1,-4,-1,-3
1514891700768264,-9,-10,-27,0,0,0,-3,-7
1514891700768264,-6,1,-6,-17,-1,-2,-1,1
1514891700769775,19,12,9,8,1,-4,-3,0
1514891700769775,4,6,-4,-5,-1,-1,0,-6
1514891700782785,-28,-18,21,11,-2,-4,-1,-1
1514891700782785,-10,1,-13,-7,-4,-2,-4,-5
1514891700784785,3,23,-29,-16,-2,0,0,-4
1514891700784785,10,-8,23,-4,-4,-2,1,11
1514891700804795,1,-22,5,0,0,-2,-4,-7
1514891700804795,2,20,-32,2,5,3,7,6
1514891700813296,-7,-24,2,0,-5,-6,-6,-9
1514891700813296,-16,-6,22,8,-4,-2,-5,-9
1514891700827806,-1,-5,-36,-19,-5,-3,-4,-9
1514891700827806,-9,-10,-7,-11,-4,-5,-4,1
1514891700829808,-26,-3,30,10,2,1,2,-19
1514891700829808,23,-8,4,-5,-2,-2,-1,0
1514891700842349,9,6,-3,2,1,2,3,5
1514891700842349,-3,-4,12,5,-2,-3,-3,-10
1514891700849856,16,12,0,1,2,4,10,18
1514891700849856,-12,-15,-29,-6,-4,-2,-10,-6
1514891700865867,-32,3,33,8,1,-2,1,-14
1514891700865867,15,0,-17,-8,-4,-2,-1,15
1514891700867367,-23,-7,2,8,5,1,3,-7
1514891700867367,12,24,19,-5,-2,-1,-3,2
1514891700887881,14,2,-16,-1,2,1,1,2
1514891700887881,-2,-6,-38,2,-1,-2,1,0
1514891700889884,-12,0,6,-21,-3,-2,-5,-10
1514891700889884,4,-8,-12,-4,0,1,2,3
1514891700902392,-2,13,6,9,-1,-2,-2,6
1514891700902392,7,-11,26,5,0,1,-2,-14
1514891700908896,7,-4,3,5,-3,-3,-2,0
1514891700908896,19,25,21,-5,-1,0,4,7
1514891700932914,13,-14,-24,-9,-3,-2,0,8
1514891700932914,-22,8,35,10,2,-2,-3,-7
1514891700934415,11,6,-73,-8,-2,-2,-3,2
1514891700934415,-34,-21,16,10,1,1,-2,-8
1514891700948426,14,3,-2,-4,-2,-1,-1,6
1514891700948426,-18,-14,9,-10,-4,-3,-4,-11
1514891700950428,-1,-8,17,-1,-1,0,-5,-7
1514891700950428,0,28,-13,6,0,0,2,4
1514891700970449,15,18,-11,-2,0,-1,2,3
1514891700970449,-20,-11,9,5,1,0,2,-13
1514891700971950,46,13,29,5,-2,1,1,20
1514891700971950,-3,-4,-51,-3,2,3,0,0
1514891700985460,-25,-10,23,8,-2,-3,-9,-9
1514891700985460,-9,10,6,-6,-2,-2,5,12
1514891700986952,-4,-21,7,5,-1,1,0,-9
1514891700986952,21,-3,17,7,2,2,2,6
1514891701007966,-45,-5,-23,-5,-1,0,-2,0
1514891701007966,12,-6,-19,1,-1,0,-5,2
1514891701009468,1,-5,-9,-6,-1,-1,-2,-6
1514891701009468,-10,19,28,1,0,-4,-2,-3
1514891701022977,2,-13,-34,-6,-2,-1,0,2
1514891701022977,-17,-6,14,19,4,0,-3,-11
1514891701036487,18,15,-23,-8,-2,-2,8,24
1514891701036487,-6,-36,-18,-14,-6,-3,-11,-22
1514891701045493,37,23,10,-4,-1,-1,3,13
1514891701045493,16,5,22,8,4,2,-1,-4
1514891701046994,-12,16,31,-1,-5,-4,-2,-1
1514891701046994,-16,-24,-84,-13,-6,-6,-5,2
1514891701068510,-18,-24,15,-3,0,0,4,0
1514891701068510,-24,-5,-10,-10,-4,-1,3,-5
1514891701070010,1,-5,-52,0,2,-1,3,4
1514891701070010,40,40,63,19,5,3,2,12
1514891701090525,-35,3,15,-30,-14,-6,-11,-12
1514891701090525,29,16,38,12,5,5,3,13
1514891701092026,-27,-8,-6,-10,-8,-9,-9,0
1514891701092026,-28,-19,-18,-2,-3,-2,-3,-8
1514891701105535,59,-2,-42,12,6,2,2,3
1514891701105535,-26,1,34,0,1,1,2,-12
1514891701107036,35,5,-24,-1,0,0,-1,5
1514891701107036,-59,30,20,4,-2,-2,0,-2
1514891701128054,8,8,26,2,-2,-1,2,7
1514891701128054,-5,-26,-46,-3,-6,-4,-5,4
1514891701129552,-18,28,57,-9,3,4,-2,-3
1514891701129552,32,-29,-4,-6,-5,-3,7,69
1514891701142071,-64,-31,-27,5,4,-1,-16,-86
1514891701142071,66,47,-8,-12,-10,-11,-6,20
1514891701149069,-40,15,-38,11,1,4,1,-14
1514891701149069,9,58,87,-8,-1,0,-3,-6
1514891701165578,-18,-11,21,1,-2,-1,2,8
1514891701165578,50,-97,-65,-19,-4,-5,-10,-15
1514891701167079,-15,-42,-4,11,1,0,0,-17
1514891701167079,-10,38,1,-8,-4,-5,-1,-16
1514891701188094,7,8,37,9,4,-2,0,6
1514891701188094,-72,-24,-35,-27,-9,-6,-3,-18
1514891701189595,53,66,52,23,6,3,3,30
1514891701189595,-21,-35,-26,5,1,0,-7,-13
1514891701201604,-5,11,41,8,3,6,6,26
1514891701201604,41,19,-8,3,6,4,0,-31
1514891701210619,10,-28,-57,-6,-4,-4,-2,-1
1514891701210619,13,11,22,13,5,6,6,-2
1514891701225647,34,10,44,-3,-2,3,15,25
1514891701225647,-53,34,-46,-9,-6,-3,-8,-1
1514891701227122,-23,-68,39,6,0,1,5,0
1514891701227122,45,0,-22,-3,-3,-8,-18,-2
1514891701247637,30,16,-7,8,8,7,3,45
1514891701247637,-69,12,47,-6,-6,-5,-1,-41
1514891701249637,-27,-29,-62,-4,-13,-8,1,-14
1514891701249637,-5,-53,-9,-11,-2,0,4,-15
1514891701261672,13,73,-5,-8,-9,-8,-6,1
1514891701261672,-30,-83,2,5,3,2,1,20
1514891701270652,8,15,-23,1,4,1,-5,-14
1514891701270652,-48,-33,-25,13,-4,-8,-4,-14
1514891701285663,26,24,14,-34,-7,1,6,15
1514891701285663,17,30,-5,9,-3,-1,2,13
1514891701287164,8,-33,-18,-7,1,-2,-4,-3
1514891701287164,37,56,-14,-20,-9,0,-2,-7
1514891701308179,-34,-122,-58,-4,-1,-4,-4,-29
1514891701308179,41,88,-35,18,7,1,-1,20
1514891701309681,11,40,96,4,0,-2,-5,9
1514891701309681,9,0,25,0,0,1,1,9
1514891701321688,-16,-68,-86,19,5,-2,-14,-27
1514891701321688,2,16,54,-11,-4,-2,10,14
1514891701330707,-2,63,50,-1,3,1,0,-3
1514891701330707,18,12,28,-2,6,8,11,4
1514891701344718,-10,0,-18,13,-6,-9,-9,-3
1514891701344718,17,-47,17,-10,-2,-1,-6,15
1514891701353211,-19,22,-70,-30,-5,1,-1,-4
1514891701353211,-45,-44,13,8,2,0,8,7
1514891701369222,-3,-6,36,-12,-1,1,-9,7
1514891701369222,7,44,55,51,17,11,18,24
1514891701370722,5,-10,19,-13,-14,-11,-16,12
1514891701370722,-6,-44,-110,7,8,2,-6,-17
1514891701382732,-22,31,-17,25,7,6,9,7
1514891701382732,8,-27,28,-26,-4,-2,-6,-6
1514891701390737,-10,35,-12,-18,-12,-6,-4,-1
1514891701390737,11,30,71,23,9,-3,-3,6
1514891701405748,24,48,34,18,18,7,6,10
1514891701405748,-51,-64,-114,-29,-25,-20,-17,-24
1514891701407249,35,51,40,22,17,13,12,2
1514891701407249,-17,-83,-91,-21,-15,-12,-17,-2
1514891701427763,-3,64,92,-18,-13,-4,5,-3
1514891701427763,-10,-45,-90,-10,-1,-3,-15,-11
1514891701429270,3,-15,64,24,9,0,-5,-5
1514891701429270,63,-10,-21,1,4,8,12,4
1514891701441773,2,17,43,16,4,1,6,-8
1514891701441773,-21,-2,16,-16,-6,-4,3,13
1514891701450780,56,1,65,48,13,10,13,31
1514891701450780,-65,-58,-111,-34,-3,-3,-24,-67
1514891701465791,36,91,-20,-16,-7,-11,-18,25
1514891701465791,7,1,63,27,9,9,4,-20
1514891701467291,-25,-81,-128,-24,-11,-6,-9,-35
1514891701467291,6,48,71,8,1,-2,4,12
1514891701487819,-5,26,22,8,-1,5,11,-6
1514891701487819,14,-64,-81,-28,-7,-1,-6,-20
1514891701489819,-15,-5,-6,-14,-12,-7,15,30
1514891701489819,0,64,71,0,0,-1,-3,5
1514891701510321,-15,-54,3,-6,5,-1,-30,-33
1514891701510321,3,28,-23,-5,-7,-4,17,35
1514891701512333,-9,-18,6,6,7,2,-5,-30
1514891701512333,-31,-1,-23,-1,-12,-8,-17,20
1514891701525341,27,-60,-51,-26,-13,-8,-38,-17
1514891701525341,-32,31,68,9,1,-4,-13,-17
1514891701527343,-18,-15,-21,-18,-13,-15,-10,-3
1514891701527343,0,28,8,3,6,5,20,5
1514891701546848,11,-13,-5,25,4,0,7,8
1514891701546848,0,31,15,5,8,7,13,36
1514891701555871,10,29,72,17,6,1,-20,-43
1514891701555871,33,-51,-80,-16,-8,-3,22,13
1514891701572377,-9,29,-34,-13,1,4,-17,-8
1514891701572377,-7,6,11,-1,1,1,3,-20
1514891701573867,14,39,91,30,16,9,11,39
1514891701573867,-10,-26,-12,-10,-18,-8,-25,-28
1514891701592879,-14,25,5,-31,-6,-6,18,18
1514891701592879,23,23,13,31,6,-6,-31,-33
1514891701594881,-17,-67,-115,-70,-7,0,-5,-19
1514891701594881,9,84,111,31,9,9,33,48
1514891701607890,-7,-34,-11,19,-4,-3,19,16
1514891701607890,4,8,59,31,20,16,15,32
1514891701609391,10,-12,-24,-24,-8,-8,-10,-32
1514891701609391,-58,-58,-87,-6,1,-4,3,-4
1514891701630419,8,16,85,28,2,-5,-21,-8
1514891701630419,25,1,-97,-59,-21,-12,4,16
1514891701645927,-17,11,3,23,0,1,4,-7
1514891701645927,-50,-23,-23,-31,-11,-8,9,-46
1514891701646923,19,-6,56,30,10,4,11,5
1514891701646923,-8,-3,-24,11,7,5,6,-15
1514891701648420,-47,-91,-100,-41,-24,-16,-15,43
1514891701648420,53,54,15,-19,-4,-2,-8,2
1514891701675938,2,5,-17,18,6,4,27,2
1514891701675938,-13,10,64,-19,-12,-12,-20,-26
1514891701677940,22,9,12,23,5,7,16,21
1514891701677940,-1,93,35,26,10,10,-5,21
1514891701698956,-12,-40,-73,-27,-17,-8,8,10
1514891701698956,26,23,10,30,25,11,23,48
1514891701702459,-10,37,-18,-16,-1,1,-23,-32
1514891701702459,9,-23,51,-5,-6,-3,-10,-23
1514891701705483,-8,-9,28,2,8,9,-1,-18
1514891701705483,-34,-77,-78,-52,-34,-15,-2,-1
1514891701707977,9,30,50,27,7,-1,15,25
1514891701707977,6,4,51,29,2,-4,-11,11
1514891701727975,-54,-69,-75,-54,-12,-3,-7,-40
1514891701727975,31,21,48,40,8,0,4,-1
1514891701729477,9,-60,-60,-22,-7,-7,1,2
1514891701729477,-3,13,83,10,3,1,8,8
1514891701750492,46,40,-21,6,-2,-2,9,42
1514891701750492,23,-3,-42,-11,-3,-2,-31,-13
1514891701751993,-14,19,63,33,14,7,3,-7
1514891701751993,29,4,-72,-6,2,5,5,22
1514891701765503,-13,76,81,-14,-4,-2,29,12
1514891701765503,-6,13,65,16,6,6,-10,-33
1514891701767004,29,-41,-24,10,2,0,-18,-1
1514891701767004,-25,-63,-57,-31,-3,-3,-17,-18
1514891701788030,21,45,25,26,13,5,6,5
1514891701788030,0,22,-27,-19,-10,-1,-19,14
1514891701789519,-25,82,61,18,4,1,9,-3
1514891701789519,-16,-38,-63,-30,-13,-11,5,16
1514891701811034,-27,-70,-89,-21,-9,-11,-33,-40
1514891701811034,-4,4,44,20,4,0,18,-16
1514891701812549,-8,30,19,0,1,8,11,15
1514891701812549,-2,46,16,8,0,-8,-8,0
1514891701824554,-9,-19,18,-13,-6,-3,8,0
1514891701824554,-30,-59,-76,-29,-15,-8,-3,-15
1514891701833551,-21,36,56,3,1,-4,-14,-14
1514891701833551,46,-43,-37,-16,-5,0,7,33
1514891701848562,3,-59,53,-6,-8,-8,-23,-23
1514891701848562,7,81,32,53,19,12,22,10
1514891701850563,4,-56,-120,-54,-21,-10,13,11
1514891701850563,-8,-56,23,2,-2,-1,-30,-30
1514891701870588,34,23,-29,16,1,0,-5,-18
1514891701870588,-35,-26,-13,-28,-6,-6,1,13
1514891701872087,7,-36,-21,6,-5,-4,10,17
1514891701872087,21,87,-18,12,10,7,8,-9
1514891701884585,-35,-66,9,-5,-2,1,6,21
1514891701884585,33,40,24,20,1,-2,-2,8
1514891701891591,24,12,43,-14,-7,-1,-7,10
1514891701891591,-47,-30,-39,-13,-3,-1,2,-50
1514891701908102,-23,-25,5,25,12,6,-1,2
1514891701908102,4,48,42,-17,-5,2,10,23
1514891701909604,-2,-6,-9,9,1,-4,-6,-28
1514891701909604,40,47,111,40,14,11,8,31
1514891701938624,-12,-50,-87,-46,-9,-1,-5,-18
1514891701938624,-2,-13,1,6,5,4,1,-9
1514891701942138,-5,0,29,21,5,1,2,-10
1514891701942138,-15,-15,43,-1,-5,-2,-9,7
1514891701952634,9,9,-17,5,6,3,5,-6
1514891701952634,-10,-50,-27,-12,-10,-8,-14,16
1514891701954635,-17,13,11,-5,-1,4,11,-17
1514891701954635,12,-68,-47,-17,-6,-1,31,37
1514891701975650,19,39,50,5,-1,1,16,27
1514891701975650,-7,-25,-10,18,3,-2,-25,-25
1514891701977652,25,22,14,-2,2,2,-4,-7
1514891701977652,-13,-54,-30,-6,-4,-9,3,-7
1514891701990661,1,32,-38,0,-1,-3,7,18
1514891701990661,21,-35,77,5,1,1,7,-3
1514891701992662,2,29,-64,-14,-2,-2,-3,-5
1514891701992662,0,54,41,24,8,3,-16,0
1514891702004672,1,12,-8,-2,-3,-1,-3,-9
1514891702004672,-7,39,27,-12,-4,-2,-4,-15
1514891702011688,-1,3,-2,7,1,2,-3,6
1514891702011688,1,11,18,-1,0,4,5,16
1514891702028197,10,-8,3,1,0,-3,-3,1
1514891702028197,18,1,55,22,2,1,5,6
1514891702031699,-29,-77,-101,-50,-19,-11,-14,-17
1514891702031699,-2,31,47,18,8,4,-1,-10
1514891702050212,-1,-4,-60,6,0,0,2,-12
1514891702050212,8,13,-1,-14,-3,1,0,11
1514891702056717,0,14,38,7,-2,-2,5,5
1514891702056717,12,-25,4,22,6,3,6,22
1514891702065715,-20,-34,-43,-46,-13,-9,-25,-32
1514891702065715,0,22,73,7,1,-1,2,-5
1514891702071727,6,-17,1,17,6,4,0,3
1514891702071727,-16,16,-69,-24,-7,-6,2,-6
1514891702087244,39,20,49,3,-1,-2,-14,-3
1514891702087244,-16,-5,-65,-3,0,-1,2,13
1514891702095745,20,-31,38,-6,-8,-6,-4,7
1514891702095745,3,13,7,-9,-8,-9,-4,-17
1514891702110261,-23,-14,-46,2,-5,-5,8,11
1514891702110261,-5,6,-71,-18,-4,-5,-17,-16
1514891702117251,12,23,21,16,6,5,13,17
1514891702117251,-10,39,-1,8,2,-4,-23,-29
1514891702132761,-15,-28,7,11,3,1,-10,-1
1514891702132761,-3,-13,-21,-25,-2,2,13,-4
1514891702134763,22,25,-11,-22,-6,-5,8,15
1514891702134763,7,-21,-46,-3,-2,2,3,-13
1514891702147776,-21,-2,39,-4,1,1,-2,10
1514891702147776,-25,-49,-24,8,-3,-4,13,3
1514891702149774,-11,49,19,-4,-3,-3,-16,-10
1514891702149774,2,-54,-7,-10,-6,-5,-7,0
1514891702177793,-15,-19,-3,13,5,0,-8,2
1514891702177793,15,48,-8,-10,-5,-4,10,8
1514891702179299,-48,-24,-72,2,1,-4,-6,-13
1514891702179299,46,55,25,4,-2,2,12,25
1514891702184298,-42,-41,0,7,-1,2,14,-13
1514891702184298,27,8,33,-7,-1,-3,-29,11
1514891702199309,-34,-14,42,-6,-2,3,6,-3
1514891702199309,25,57,39,10,5,2,-2,-2
1514891702215319,1,-24,-57,-21,-6,-4,-2,-1
1514891702215319,28,10,-11,5,-4,-2,0,4
1514891702217322,-12,17,53,14,0,-1,15,6
1514891702217322,-50,-112,-62,-35,-11,-10,-39,-55
1514891702230330,40,125,67,14,1,2,4,16
1514891702230330,-19,-68,-41,-10,0,-1,1,2
1514891702233334,-3,-31,3,-4,-4,1,-1,-2
1514891702233334,6,11,-1,11,8,3,24,14
1514891702244340,19,42,61,13,0,-5,-29,4
1514891702244340,-24,-50,-18,-2,2,2,-6,-18
1514891702253346,32,25,-4,15,3,-3,-3,3
1514891702253346,-3,9,-20,-8,2,3,5,6
1514891702267869,-13,13,13,-15,-3,-4,0,-6
1514891702267869,-5,5,-20,1,1,1,10,11
1514891702269863,41,18,17,0,0,2,4,-4
1514891702269863,5,70,98,40,13,6,10,-23
1514891702290373,-6,-77,-69,-40,-12,-4,6,26
1514891702290373,9,28,52,1,1,0,-1,6
1514891702291873,-26,-85,-12,0,0,-1,-14,-16
1514891702291873,12,34,32,3,0,1,5,20
1514891702303892,-19,9,-11,-2,-4,-3,3,-10
1514891702303892,6,-2,-4,24,5,-1,-12,-23
1514891702320394,13,26,43,-5,-4,-2,4,24
1514891702320394,-29,11,-11,-13,-8,-7,-11,-5
1514891702327909,-1,-11,1,9,8,7,13,-13
1514891702327909,-10,-12,-36,-22,-12,-7,-12,-8
1514891702329400,-12,-14,-22,20,9,4,8,12
1514891702329400,13,-35,57,-10,-5,-4,-13,-14
1514891702350416,18,41,23,2,-1,0,9,6
1514891702350416,-16,15,7,6,3,0,-2,-1
1514891702351917,22,-57,-9,14,6,-1,-5,-29
1514891702351917,12,1,-69,-16,-12,-3,7,27
1514891702363935,3,23,0,-14,-3,-3,-1,0
1514891702363935,-7,30,47,13,2,1,6,-8
1514891702372931,-16,21,13,5,-2,-2,-8,-2
1514891702372931,-4,-80,-47,-10,-1,-2,-3,2
1514891702387941,-4,14,-10,17,3,0,-4,-10
1514891702387941,-2,-11,29,0,-1,-3,2,2
1514891702389443,19,38,11,5,5,4,4,3
1514891702389443,-18,24,-17,-16,-7,-6,-15,-8
1514891702410469,7,-10,37,21,4,1,13,18
1514891702410469,-6,-23,-64,-18,-1,2,-6,-20
1514891702411972,-37,31,5,-13,-10,-7,-1,14
1514891702411972,-2,14,12,22,3,-1,-3,-17
1514891702423978,-3,10,16,-17,1,1,-6,-4
1514891702423978,27,26,-18,-4,-4,1,6,13
1514891702433477,11,-12,14,-2,2,-1,-7,3
1514891702433477,-9,-9,-13,11,3,1,8,3
1514891702455501,-12,-14,-19,2,-3,1,17,-2
1514891702455501,-13,23,26,20,6,0,-38,3
1514891702457000,11,2,-31,-45,-14,-4,-1,9
1514891702457000,12,-12,47,30,6,3,-2,1
1514891702470518,47,-13,7,-7,-2,3,2,6
1514891702470518,17,-11,-28,-5,-2,-2,19,-2
1514891702476504,30,31,28,12,0,2,5,7
1514891702476504,-35,2,-22,-2,6,2,-13,-17
1514891702493025,-16,-30,-1,10,0,-1,-1,4
1514891702493025,3,13,-39,-28,-9,0,5,8
1514891702494526,-3,-14,27,-11,-6,-6,-2,-3
1514891702494526,12,-5,14,8,3,1,8,0
1514891702508026,-46,25,-45,-12,-5,-8,-20,-11
1514891702508026,11,19,109,24,4,7,33,30
1514891702510528,-48,-45,-75,-20,-13,-12,-41,-46
1514891702510528,-8,-19,10,-19,-4,-6,2,-3
1514891702530554,42,13,7,11,5,2,-10,1
1514891702530554,2,-4,0,3,1,-1,-5,-12
1514891702534054,-46,0,22,-5,-4,0,6,9
1514891702534054,-2,-25,-16,6,0,0,4,7
1514891702544064,9,-33,24,17,3,1,0,-2
1514891702544064,0,-23,-8,-14,-5,-3,10,4
1514891702553074,27,66,-11,16,1,-3,-8,-10
1514891702553074,31,7,16,-7,4,2,-3,8
1514891702568068,-47,18,-3,-5,-2,4,11,9
1514891702568068,2,3,24,-1,-5,-7,-30,-27
1514891702570580,0,-21,0,-6,2,5,15,8
1514891702570580,1,41,50,14,1,1,-2,3
1514891702599096,-54,-3,-23,-19,-10,-9,-19,-12
1514891702599096,22,19,23,27,11,9,18,23
1514891702601592,-13,-49,-23,7,3,0,-3,-4
1514891702601592,24,25,28,-20,-3,1,2,0
1514891702613101,19,45,87,26,11,6,6,7
1514891702613101,-21,-99,-111,-27,-8,-4,7,-3
1514891702614605,18,19,-12,14,3,-3,-15,-9
1514891702614605,4,-9,20,5,-1,3,8,8
1514891702635633,17,-20,-34,-10,-6,-9,-14,-3
1514891702635633,-24,33,-25,2,0,2,13,2
1514891702637129,22,-9,10,3,2,1,-18,5
1514891702637129,-9,13,-21,0,1,3,-4,-10
1514891702651127,8,-13,12,-5,-4,-3,1,4
1514891702651127,8,44,75,23,4,0,2,12
1514891702652628,-24,-28,-25,-1,-1,1,10,-20
1514891702652628,8,57,38,-4,-2,4,-6,5
1514891702672642,8,-63,-50,0,2,22,-4,-10
1514891702672642,10,18,-4,-14,-6,-2,-5,-8
1514891702674644,-2,41,-19,6,1,-1,12,13
1514891702674644,1,-29,15,-7,-6,-19,-4,6
1514891702688166,-8,38,33,5,1,-14,9,-9
1514891702688166,0,-38,-34,-16,-6,-13,-12,-4
1514891702690668,-9,-42,1,-17,-9,-12,-3,1
1514891702690668,-14,12,27,9,-1,-4,-5,-6
1514891702710169,0,-6,-12,-16,-3,-3,-7,1
1514891702710169,-40,41,-15,2,-4,-1,0,-8
1514891702712171,25,36,75,14,7,4,4,6
1514891702712171,-24,-14,-54,-9,-2,4,5,-1
1514891702733687,2,9,-94,-13,-7,-6,-10,-19
1514891702733687,3,-3,30,-2,0,-1,13,14
1514891702737188,-2,-5,-16,7,-3,6,-6,-16
1514891702737188,-2,-9,-9,-24,-3,5,8,9
1514891702755201,-5,11,44,23,6,6,3,4
1514891702755201,32,-12,-13,2,0,-2,-10,-16
1514891702757202,-8,-46,-62,-18,-9,-6,12,12
1514891702757202,5,-5,-22,1,0,-7,-11,-1
1514891702770221,1,-28,3,-14,-7,-10,-9,-12
1514891702770221,-13,8,-27,-18,-5,-4,4,19
1514891702772223,-6,-33,-7,6,1,-1,-9,-22
1514891702772223,-1,16,-57,-2,-1,-2,3,-2
1514891702793240,23,23,38,-1,-3,-2,-2,4
1514891702793240,14,0,45,22,5,5,7,5
1514891702795242,-11,-23,-46,-34,-7,-1,-13,-3
1514891702795242,2,-1,10,3,-1,-4,2,0
1514891702807238,2,49,48,18,7,2,8,-9
1514891702807238,11,-28,-21,-13,-6,-2,5,9
1514891702814242,17,2,-61,-4,0,0,-1,2
1514891702814242,-40,-27,-13,-8,-4,-4,-7,-21
1514891702830764,18,10,27,20,4,4,26,29
1514891702830764,-16,-56,48,0,-1,0,-22,-29
1514891702832757,-1,-15,-26,6,2,-1,-4,-5
1514891702832757,15,-12,-51,-14,-4,2,4,17
1514891702852770,-8,7,15,4,1,-4,-12,-1
1514891702852770,-34,13,3,4,0,0,4,-4
1514891702859314,28,15,6,1,2,3,15,17
1514891702859314,5,-21,45,14,3,5,6,-9
1514891702875296,-13,-2,-25,-11,-6,-7,4,-7
1514891702875296,6,-47,-60,0,0,0,-2,7
1514891702877288,-18,35,50,-20,-8,-3,-6,-7
1514891702877288,1,-5,-59,5,-1,0,1,9
1514891702890306,-17,-3,21,-11,-2,-3,-3,-8
1514891702890306,-10,21,-2,1,1,-3,12,21
1514891702892307,-7,16,110,23,0,-5,-32,-52
1514891702892307,3,23,17,-5,-4,-1,4,22
1514891702920330,0,-30,-76,6,4,3,-7,-1
1514891702920330,19,36,-44,9,5,5,-1,3
1514891702922325,18,16,36,-5,-1,3,10,29
1514891702922325,-24,-58,-28,3,-3,-4,-6,0
1514891702927332,-11,30,51,3,5,1,-6,-8
1514891702927332,35,45,-10,1,3,-1,10,-2
1514891702934327,-4,-14,-18,7,0,1,14,6
1514891702934327,-10,-19,28,-1,-1,-3,-16,-34
1514891702950340,16,-54,-18,2,-2,2,5,18
1514891702950340,-18,-15,-19,-18,-9,-9,-14,-21
1514891702952340,-10,13,20,18,4,1,10,-2
1514891702952340,10,-15,-61,-1,0,1,19,24
1514891702980360,-9,-26,-48,-11,-9,-9,-18,-20
1514891702980360,-1,22,80,3,-3,-1,-9,-14
1514891702982863,4,-6,-64,-4,-1,-1,7,6
1514891702982863,-40,7,28,10,4,2,-3,0
1514891702987365,28,44,3,0,0,1,2,11
1514891702987365,-6,17,48,-2,-1,-1,2,13
1514891702993869,-35,-61,-103,-22,-4,-5,-12,-14
1514891702993869,17,10,14,14,7,0,-6,-11
1514891703010381,7,22,2,-13,-6,-1,-2,-4
1514891703010381,-13,22,12,8,-2,-1,-9,-2
1514891703012382,14,35,79,20,6,5,7,5
1514891703012382,4,2,13,-23,-10,-6,-10,-13
1514891703033398,-8,-6,30,5,3,0,1,8
1514891703033398,-31,-23,-5,-6,-4,-3,4,-15
1514891703034899,10,2,78,7,2,5,6,6
1514891703034899,-16,-41,-82,-9,-2,-1,-7,-6
1514891703047407,11,-19,0,13,6,2,1,0
1514891703047407,9,-10,-20,-26,-6,0,1,-2
1514891703054412,-33,-44,-55,-22,-13,-10,-8,-18
1514891703054412,5,47,54,7,1,1,8,7
1514891703071424,-4,-13,-20,0,0,-2,-4,-1
1514891703071424,-17,15,78,23,3,-3,-8,-21
1514891703083933,14,-17,-75,-9,-1,1,1,17
1514891703083933,5,-39,-23,-12,-6,-5,-3,0
1514891703092939,-73,-8,16,2,-1,-3,-9,-18
1514891703092939,29,-10,-80,-4,4,3,3,0
1514891703094441,5,61,71,-13,-6,-4,-3,8
1514891703094441,-4,-31,-18,20,5,3,-8,-18
1514891703106449,14,18,23,-24,-8,-5,6,23
1514891703106449,-23,-31,31,9,0,-3,19,23
1514891703115456,21,-10,-70,3,1,-6,-38,-37
1514891703115456,1,28,23,-13,0,1,5,8
1514891703138472,-10,-69,-44,-8,-5,-6,-14,-15
1514891703138472,-18,23,43,15,3,2,1,-2
1514891703141974,7,20,-51,-18,-3,-2,6,7
1514891703141974,-1,16,47,13,2,-1,-1,8
1514891703152982,29,28,-64,-14,-2,1,3,7
1514891703152982,-3,-31,-60,-12,-2,-5,-5,-6
1514891703154483,19,44,127,36,8,5,27,21
1514891703154483,-51,-68,-63,-12,0,-3,-34,-24
1514891703166492,6,26,42,-6,-3,-2,4,2
1514891703166492,20,0,-12,10,6,4,-7,1
1514891703176498,-12,-13,22,-2,-5,-4,-5,-1
1514891703176498,19,37,19,7,0,1,9,10
1514891703190521,-5,1,12,-8,-3,-1,-2,-11
1514891703190521,24,19,-10,-2,-1,2,-3,5
1514891703192022,-31,-40,-21,-19,-7,-5,-12,-4
1514891703192022,10,10,-9,-11,-6,-4,8,4
1514891703212036,8,-8,52,21,3,1,0,5
1514891703212036,-15,14,-4,-25,-12,-10,-13,-23
1514891703220536,9,-9,6,6,-1,0,6,16
1514891703220536,4,24,31,-6,-2,4,19,15
1514891703226534,-1,-3,30,0,-4,-9,-28,-20
1514891703226534,23,9,-72,-1,1,-1,-7,-1
1514891703241545,-16,21,58,-6,-3,-1,3,-10
1514891703241545,34,-30,-11,-4,-3,-7,-8,-8
1514891703258056,-47,20,-29,1,2,2,18,7
1514891703258056,15,18,78,26,3,1,-15,5
1514891703259557,-25,-26,-35,-14,0,-2,-6,0
1514891703259557,13,22,4,13,3,-1,11,-4
1514891703272566,6,11,48,11,4,5,18,23
1514891703272566,-21,-62,-48,-23,-6,-8,-44,-41
1514891703279071,-26,15,-28,4,2,1,32,20
1514891703279071,15,22,-4,-5,1,2,-26,-17
1514891703286577,-18,-8,69,13,-2,-4,0,3
1514891703286577,21,-9,-81,-18,-2,3,10,24
1514891703296583,5,-30,12,8,1,5,5,-10
1514891703296583,-41,16,5,-12,-5,-4,-5,16
1514891703310593,-10,-2,-72,0,-3,-5,-5,-1
1514891703310593,-62,-32,34,-10,-4,-2,-2,-12
1514891703312094,31,21,9,9,2,-1,-12,-16
1514891703312094,5,42,23,-19,-9,-8,4,8
1514891703333109,15,-18,30,5,0,1,-10,-1
1514891703333109,-36,-31,-42,1,0,2,8,-6
1514891703334611,-8,14,-40,-5,-3,-5,-5,-9
1514891703334611,-16,-19,27,-4,-4,-1,0,-9
1514891703346619,21,29,18,1,1,0,6,2
1514891703346619,13,-15,-7,-17,-9,-5,13,0
1514891703364131,52,14,15,8,1,-2,-4,-8
1514891703364131,15,-26,-51,0,-4,-3,-7,-1
1514891703370636,31,29,-53,-12,-1,1,2,2
1514891703370636,27,41,90,17,3,-2,9,0
1514891703372137,-21,-28,-56,-16,-7,-2,-9,25
1514891703372137,-11,-11,48,10,2,1,-4,-21
1514891703392151,3,3,-25,1,-1,-3,11,0
1514891703392151,43,19,-1,-3,-4,-1,-37,-5
1514891703393152,6,21,45,27,14,8,4,13
1514891703393152,-17,-21,-44,11,8,4,12,1
1514891703414667,-27,-25,-14,-19,-6,-2,-1,-11
1514891703414667,-2,55,68,14,4,2,12,16
1514891703415667,-3,-25,-65,-4,0,-1,2,24
1514891703415667,45,11,9,4,2,-1,-6,-18
1514891703431179,7,-55,2,16,6,2,-3,2
1514891703431179,-36,3,-39,-12,-2,0,8,-10
1514891703432179,-10,-17,37,-7,-4,-4,-3,1
1514891703432179,12,22,64,-14,-9,-7,7,-1
1514891703452193,27,9,-26,9,3,3,1,12
1514891703452193,-20,-63,-22,3,-3,-2,-8,-2
1514891703453194,-18,-32,-46,-4,0,0,9,-18
1514891703453194,-5,-3,-17,2,2,0,1,-3
1514891703474709,-1,8,-31,2,0,-2,1,-7
1514891703474709,1,-20,23,13,5,3,12,-3
1514891703475718,10,89,70,-6,-6,-5,3,-10
1514891703475718,18,-10,-11,-19,-5,-7,-17,21
1514891703489720,-10,-8,15,11,3,5,-10,-4
1514891703489720,13,-39,25,0,-1,0,12,14
1514891703490720,1,17,-2,10,3,0,-1,-4
1514891703490720,-5,-22,-17,-13,-5,-1,5,-9
1514891703513237,8,-10,28,6,3,2,11,39
1514891703513237,-42,-7,-11,-26,-11,-11,-28,-38
1514891703520744,39,-1,49,21,2,2,-8,-6
1514891703520744,-28,-21,-32,-20,-12,-11,-12,-13
1514891703534751,11,0,-11,2,1,2,6,6
1514891703534751,-20,66,32,8,5,3,2,-14
1514891703535252,8,-45,27,-4,-1,1,3,18
1514891703535252,-42,-20,-33,-6,0,0,-12,-17
1514891703550765,1,-11,-27,-24,-8,-7,-7,-16
1514891703550765,37,-50,-76,-21,-10,-7,-3,7
1514891703551264,-23,19,54,14,2,-1,7,-13
1514891703551264,14,-6,24,9,7,4,-2,22
1514891703572299,26,-1,-23,-5,-3,-3,-12,-12
1514891703572299,-59,54,62,33,7,1,-1,-3
1514891703573322,-25,-34,-84,-59,-17,-11,-10,-29
1514891703573322,-6,2,6,26,10,4,14,24
1514891703602800,-26,-14,-27,-19,-8,-6,-8,-12
1514891703602800,5,11,69,21,5,3,14,13
1514891703603800,29,24,-1,-1,-3,0,-21,-8
1514891703603800,-19,26,-27,-2,-2,2,2,2
1514891703610305,-3,-7,25,4,4,1,1,-10
1514891703610305,10,11,-15,1,-1,3,6,34
1514891703611306,0,-34,10,19,8,3,4,14
1514891703611306,-13,38,7,-3,-8,-3,9,-10
1514891703632321,-6,-55,-82,-29,-6,-2,-22,-10
1514891703632321,15,-3,-15,-10,-4,-4,-1,-1
1514891703633321,-18,19,-27,-18,-3,0,2,2
1514891703633321,-28,1,8,12,5,2,9,-7
1514891703654841,-8,6,63,14,-2,-4,4,-4
1514891703654841,14,20,-88,-13,-1,-2,-2,-5
1514891703655338,-12,-11,57,4,-3,-3,-4,-2
1514891703655338,23,40,-14,15,4,2,7,13
1514891703669851,-12,-5,10,-5,-5,-4,15,27
1514891703669851,-9,-27,-16,-12,-2,-3,-41,-32
1514891703671361,-12,42,23,10,1,3,10,5
1514891703671361,15,-7,27,-17,-6,-4,-9,-13
1514891703692363,2,57,19,13,6,4,0,8
1514891703692363,-1,-55,-79,-20,-11,-7,10,-15
1514891703693364,10,3,-23,0,0,0,9,-1
1514891703693364,2,-12,47,12,0,-5,-25,2
1514891703714879,8,6,20,-10,-1,3,1,-4
1514891703714879,5,18,83,4,4,1,13,21
1514891703715398,-24,-14,-9,4,-3,-5,-10,-24
1514891703715398,21,-27,-65,-12,-4,-1,9,25
1514891703729899,14,59,35,1,1,0,-12,-21
1514891703729899,-10,-50,-47,-4,-1,1,6,4
1514891703730391,20,0,20,20,11,7,-2,4
1514891703730391,16,-2,-8,-6,0,3,15,9
1514891703760912,-24,-10,10,13,3,0,1,0
1514891703760912,16,34,40,12,1,2,-1,-4
1514891703761412,-16,-30,-66,-29,-8,-5,-2,4
1514891703761412,-29,-56,12,10,2,-2,-5,-22
1514891703774923,-1,2,-31,-6,-6,-5,-4,-11
1514891703774923,10,0,22,-4,2,2,10,7
1514891703775422,12,32,47,15,1,1,6,2
1514891703775422,-18,-12,-62,-15,-6,-3,-8,-10
1514891703791435,3,-2,48,23,9,6,13,-9
1514891703791435,1,3,-17,7,1,2,1,19
1514891703791934,-7,-11,-59,-8,-4,-3,-8,-7
1514891703791934,-5,1,2,-1,1,1,3,17
1514891703811948,7,6,30,8,1,-1,11,-24
1514891703811948,13,2,31,14,-1,2,11,12
1514891703812949,6,-2,4,6,6,4,8,17
1514891703812949,12,14,10,-9,-3,-1,-7,3
1514891703842977,-29,26,29,-1,0,0,3,0
1514891703842977,2,19,5,-14,-7,-8,-22,-7
1514891703843994,5,-20,-33,9,-1,-3,-5,3
1514891703843994,38,30,44,15,6,1,-1,-22
1514891703849485,26,8,17,-2,1,3,0,19
1514891703849485,2,-40,-2,-11,-2,-4,-2,-23
1514891703850475,-12,16,-34,-4,0,2,11,15
1514891703850475,-23,-9,43,4,-8,-10,-10,-12
1514891703897517,23,-8,-24,-12,1,2,13,13
1514891703897517,-31,-23,-80,-28,-12,-8,-20,-9
1514891703899510,26,8,30,1,0,-2,-5,0
1514891703899510,-6,-5,0,4,0,2,6,11
1514891703902012,-3,-76,-69,-4,-3,-5,-7,-15
1514891703902012,5,12,13,10,1,-1,7,14
1514891703903012,-11,-34,-18,-23,-9,-4,-5,-3
1514891703903012,17,45,57,4,0,-3,-7,-2
1514891703910033,-16,-39,-52,-6,-4,0,-2,-1
1514891703910033,20,37,-69,-7,-1,-3,4,2
1514891703917046,-49,-47,36,1,-5,-7,-6,-7
1514891703917046,31,36,62,0,5,3,3,6
1514891703932082,-17,-61,-21,-1,-3,-3,-5,-4
1514891703932082,-7,20,45,24,9,7,24,18
1514891703933085,-1,-14,-34,-17,-6,-3,-5,5
1514891703933085,5,20,2,13,7,3,-2,-14
1514891703954589,-31,-2,-28,-12,-5,-5,-13,-17
1514891703954589,-40,58,15,6,3,3,8,-7
1514891703955591,20,23,88,7,0,-1,1,6
1514891703955591,3,-30,-45,-11,-4,-3,2,-3
1514891703969599,-3,23,-46,-5,0,-2,5,4
1514891703969599,7,8,38,-1,-3,0,-1,7
1514891703970599,12,0,13,6,2,-2,-11,-15
1514891703970599,-7,-2,-78,-15,-3,1,0,1
1514891703992628,-2,11,46,9,-1,-2,8,39
1514891703992628,-1,-19,25,-5,-3,-2,-2,-34
1514891703993629,13,22,5,3,3,2,-10,-5
1514891703993629,7,-12,-11,-8,-4,-2,3,-11
1514891704015131,53,54,43,16,2,-2,-22,7
1514891704015131,-29,-47,-50,-16,-4,-4,4,10
1514891704022136,-10,5,19,-5,0,-1,-2,-10
1514891704022136,-2,-45,-36,-7,-7,-5,-1,5
1514891704038147,6,54,2,-7,-4,2,4,-12
1514891704038147,4,-44,-13,4,0,-1,-13,-5
1514891704038648,-3,-6,-16,10,4,0,2,2
1514891704038648,-17,22,-5,-13,-2,-2,-3,-12
1514891704052157,-5,-16,21,16,7,6,3,0
1514891704052157,8,-21,-5,9,-1,-1,-2,5
1514891704053158,6,13,14,15,2,2,14,2
1514891704053158,-9,2,48,-8,-7,-9,-4,15
1514891704074673,-70,-33,-79,-11,-4,-2,-9,-4
1514891704074673,0,8,22,-10,0,1,4,-16
1514891704076675,4,9,6,-11,-1,1,11,33
1514891704076675,6,13,26,22,3,-1,-10,-11
1514891704091185,20,-1,-18,-4,-4,-6,-6,-8
1514891704091185,-18,-19,-69,-11,-4,-3,0,-8
1514891704092186,-1,-21,22,2,-2,0,-13,-22
1514891704092186,-16,-13,18,14,2,0,4,10
1514891704120205,15,3,-73,-25,-6,-9,-7,7
1514891704120205,12,24,99,24,4,3,7,5
1514891704121206,65,51,-44,-27,-8,-7,-3,13
1514891704121206,-45,-32,-24,5,4,3,-10,-17
1514891704134715,-11,11,42,-6,-6,-5,-8,-5
1514891704134715,25,-40,-66,-30,-7,-6,-15,-11
1514891704142221,-27,-30,20,15,5,3,6,-7
1514891704142221,6,34,-33,-11,-6,-1,4,3
1514891704157732,17,-4,23,11,2,1,8,8
1514891704157732,30,63,57,16,3,3,0,11
1514891704158733,-53,-24,-47,-17,-5,-7,-8,-13
1514891704158733,21,18,-7,3,5,1,-16,-13
1514891704172242,2,5,15,-14,-6,-2,-3,-12
1514891704172242,-21,-52,-37,-4,-1,-2,-11,0
1514891704179747,-8,19,-26,-1,-2,2,26,4
1514891704179747,-25,4,58,13,0,-2,-33,3
1514891704194758,24,-8,-56,4,5,2,1,2
1514891704194758,-14,11,54,1,1,-2,-5,-2
1514891704195259,-14,14,-43,-13,-5,-7,-4,-13
1514891704195259,37,-27,-70,-8,-3,0,17,14
1514891704211271,-14,-18,29,-16,-6,-1,-1,-9
1514891704211271,12,29,66,27,4,3,6,8
1514891704217275,-2,22,-41,-10,-2,1,3,-8
1514891704217275,-17,-46,-27,-2,-3,-6,-4,2
1514891704232284,-20,-23,55,19,7,4,4,-9
1514891704232284,7,-3,-100,-9,-7,-1,2,1
1514891704233287,-7,-44,-6,-18,-3,-1,-10,-2
1514891704233287,-1,9,19,3,4,1,-5,-19
1514891704254831,27,-1,-8,8,-2,1,11,17
1514891704254831,25,12,-2,-14,-3,-4,6,0
1514891704255331,-45,-48,60,21,1,-3,-15,-12
1514891704255331,12,14,1,5,7,7,17,7
1514891704268841,-26,3,-32,-24,-4,-1,-9,9
1514891704268841,20,43,57,17,5,3,0,-7
1514891704277356,8,23,-29,-2,-2,-2,2,7
1514891704277356,-6,-35,34,-2,-2,-1,14,2
1514891704300363,3,20,-40,-4,-2,-2,-1,-5
1514891704300363,-17,-2,16,4,-1,-2,-3,-2
1514891704301377,13,9,47,5,-1,0,6,15
1514891704301377,-22,-61,4,-17,-8,-9,2,-1
1514891704314372,55,27,3,4,1,-1,-4,13
1514891704314372,-8,-2,0,-11,-2,-2,-17,-18
1514891704315373,10,4,12,6,0,-2,-14,-15
1514891704315373,-4,45,-16,-14,-7,-4,1,4
1514891704329884,4,-59,-8,5,-5,-3,-15,-25
1514891704329884,17,-27,48,4,3,5,10,0
1514891704337389,17,31,-43,9,1,0,-4,8
1514891704337389,19,1,13,-37,-12,-6,-11,13
1514891704351900,5,39,63,25,5,4,18,15
1514891704351900,-16,-22,-39,1,-2,-4,-15,-2
1514891704352900,11,1,-6,-21,0,3,6,-14
1514891704352900,4,27,-10,6,3,0,8,7
1514891704374415,-28,-25,45,2,-2,-3,3,-4
1514891704374415,-13,8,15,1,-5,-4,7,23
1514891704375416,1,31,43,22,6,-2,-28,-36
1514891704375416,-32,-67,-81,-43,-17,-11,-4,-18
1514891704397932,13,9,12,-5,-1,-3,-10,2
1514891704397932,-26,4,10,13,3,-1,-10,-9
1514891704398432,-5,-27,21,-2,-2,-1,3,15
1514891704398432,-1,2,29,10,4,5,8,-7
1514891704420948,10,-6,-69,-13,-6,-8,-6,10
1514891704420948,-19,-23,-42,8,5,2,-8,-21
1514891704421949,-9,18,-5,-5,1,2,10,8
1514891704421949,-3,15,-5,9,0,-4,-9,-1
1514891704435959,8,43,57,14,6,4,-7,-7
1514891704435959,7,12,33,-8,-5,1,15,20
1514891704437460,-3,-45,-66,-13,-5,-1,-13,-1
1514891704437460,22,11,23,15,8,5,14,0
1514891704449001,-22,-1,23,4,3,6,5,-5
1514891704449001,26,-7,-10,7,-3,-5,-2,-11
1514891704457006,-62,-8,-40,-21,-10,-9,-8,-9
1514891704457006,-1,-5,-7,13,5,2,8,-14
1514891704473518,-11,-11,8,-3,-1,-1,2,-3
1514891704473518,20,-24,-12,-12,-6,-5,-5,0
1514891704475520,-3,2,10,9,3,0,11,12
1514891704475520,5,-5,18,23,6,2,0,10
1514891704494532,-41,-24,0,-14,-7,-5,-7,-15
1514891704494532,9,-8,-13,-27,-11,-10,-8,-2
1514891704495533,30,-14,-8,12,2,3,14,28
1514891704495533,-1,66,76,-1,3,2,-17,-27
1514891704518051,29,-7,-41,-4,-1,0,-5,-1
1514891704518051,-31,-41,-64,-11,-4,-3,6,-5
1514891704518549,7,-9,45,7,3,-1,6,3
1514891704518549,-25,19,5,16,1,0,-5,-10
1514891704540577,19,-5,4,-16,-12,-9,7,6
1514891704540577,-38,0,-60,-16,-4,-1,-3,-7
1514891704541083,10,11,-8,13,0,-2,-1,-4
1514891704541083,-26,-32,-11,-19,-6,-2,2,10
1514891704554575,-14,-7,-16,4,5,1,0,4
1514891704554575,28,46,51,15,2,1,1,20
1514891704555576,-7,-41,-4,-8,-10,-3,-7,-18
1514891704555576,14,-28,-39,1,-3,-9,-8,-7
1514891704578092,-16,-17,-24,-19,-7,-4,-9,3
1514891704578092,19,33,48,25,8,4,7,6
1514891704578592,21,23,17,-2,-2,-3,-14,-10
1514891704578592,34,-15,-28,-16,-8,-6,0,13
1514891704592113,-28,-15,-12,2,2,1,-2,-20
1514891704592113,6,-2,21,1,-2,0,-3,-5
1514891704593115,-6,30,18,20,9,4,7,1
1514891704593115,8,7,-41,-14,-6,-1,0,12
1514891704614627,-3,-27,30,2,3,1,1,-16
1514891704614627,23,-8,-20,12,9,6,6,12
1514891704615618,-20,-44,-14,-25,-12,-6,-6,-6
1514891704615618,-3,20,8,7,-2,-2,3,-5
1514891704645148,-3,37,4,-10,-4,2,-2,0
1514891704645148,5,1,17,12,1,2,5,2
1514891704646139,16,19,-53,-13,-7,-6,-4,-3
1514891704646139,-25,-50,19,-23,-3,-3,-2,2
1514891704660650,5,-8,-5,6,1,1,18,33
1514891704660650,17,43,40,12,5,3,-14,-16
1514891704661165,11,13,29,9,7,5,6,5
1514891704661165,18,11,35,11,1,4,18,21
1514891704674670,-37,23,24,7,3,4,-3,-15
1514891704674670,-39,19,-51,-37,-14,-9,-11,-18
1514891704676170,-12,-33,3,5,0,0,4,14
1514891704676170,8,15,52,14,8,3,-4,-4
1514891704700680,8,1,-86,-4,-5,-8,-7,-6
1514891704700680,-2,26,50,4,1,0,2,6
1514891704701180,-17,8,-13,-3,-3,-2,-2,-13
1514891704701180,-1,-23,-34,-10,-4,-2,2,3
1514891704712189,7,2,23,11,2,-1,-3,-10
1514891704712189,0,-23,-35,-10,-7,-4,2,3
1514891704713198,11,22,14,-4,1,-1,-3,3
1514891704713198,-1,-1,-3,11,3,5,-3,-2
1514891704735227,6,3,5,-1,-3,-1,1,1
1514891704735227,-16,-23,-18,-3,-1,-1,-2,1
1514891704736228,16,-1,20,-5,-4,-4,-2,2
1514891704736228,-8,14,-15,8,-5,-3,-3,-9
1514891704757770,-9,-4,-9,-14,-1,-2,-4,-5
1514891704757770,5,-2,9,-4,0,-4,2,5
1514891704758766,0,-6,9,-2,-2,-2,-6,-6
1514891704758766,-3,5,-16,-1,0,1,2,-1
1514891704772256,2,7,4,-11,-13,-2,-4,1
1514891704772256,0,-16,-22,3,-3,0,-1,-3
1514891704772754,3,4,38,-13,16,2,-1,-2
1514891704772754,-6,6,-25,-10,-7,0,-1,1
1514891704802775,3,-1,14,24,-4,-5,-4,0
1514891704802775,-3,-5,7,4,3,3,0,-2
1514891704803775,-5,-7,-40,-16,-13,-2,0,-5
1514891704803775,0,8,3,1,3,0,0,1
1514891704817785,-1,-4,1,-13,-2,-2,-2,-4
1514891704817785,0,-5,5,11,-3,-1,-2,0
1514891704818786,0,1,-2,6,0,-3,-4,-1
1514891704818786,-3,0,-15,-9,-3,-2,-6,-2
1514891704832296,0,-3,-7,5,0,-1,-4,-2
1514891704832296,-2,-2,3,-8,0,-3,0,-1
1514891704833296,-1,-4,-18,-2,-1,-1,0,-1
1514891704833296,-4,2,4,-4,0,-2,-1,-2
1514891704863818,-1,-2,2,7,2,-2,-3,1
1514891704863818,-2,-7,-22,-15,-4,-3,-3,-1
1514891704864318,0,-1,6,-4,-2,1,2,1
1514891704864318,2,7,-2,18,2,0,0,1
1514891704876828,-1,3,9,-9,1,1,1,-2
1514891704876828,-1,-7,6,5,2,0,1,-1
1514891704884834,-5,-8,-18,5,-5,-1,-3,-4
1514891704884834,-6,-5,25,7,5,0,-3,-2
1514891704892337,11,11,30,3,-1,3,2,3
1514891704892337,-9,-32,-60,-10,-7,-4,-4,-4
1514891704892839,-4,6,11,3,0,-1,-4,-3
1514891704892839,0,3,-10,-7,1,-1,-3,2
1514891704922872,1,-15,3,2,2,0,0,-3
1514891704922872,-4,-1,6,-12,-8,-5,-2,-4
1514891704923861,4,-21,-24,4,1,4,5,4
1514891704923861,-2,1,-7,5,-1,-1,-2,-3
1514891704937870,-3,0,-19,-14,-6,-6,-1,-2
1514891704937870,5,10,10,-1,3,0,0,2
1514891704938371,1,16,16,1,0,-3,0,-1
1514891704938371,-2,-24,-5,3,2,-1,-1,-2
1514891704952380,-3,2,-15,2,2,2,2,0
1514891704952380,-2,-24,-25,-3,-1,0,2,0
1514891704952881,4,-7,9,-2,-3,-2,2,-1
1514891704952881,1,5,3,-1,0,1,2,-1
1514891704975898,3,18,22,1,-1,-2,-2,-1
1514891704975898,-5,-1,-8,-4,-2,-1,-4,-2
1514891704976398,-3,-4,9,5,-1,-1,-3,-2
1514891704976398,2,1,6,-2,-2,-1,-2,2
1514891704997913,-4,-19,-16,-5,1,-2,-3,-1
1514891704997913,7,26,22,1,-1,-1,0,-1
1514891704998414,-4,-2,-1,-2,-1,-2,-1,-2
1514891704998414,-1,-2,-6,-1,-1,-2,1,-1
1514891705011923,-2,-5,-4,-6,-5,-2,-3,-2
1514891705011923,1,7,4,2,-1,-2,-2,-1
1514891705012924,-2,2,2,-6,-4,-1,-4,1
1514891705012924,-2,-5,-5,3,3,0,-3,-2
1514891705035440,0,8,8,6,2,0,-1,-5
1514891705035440,0,0,9,12,-9,-2,1,0
1514891705036439,4,3,-4,-3,6,2,0,-1
1514891705036439,-4,2,1,-10,0,2,0,2
1514891705057955,-3,-6,-8,-10,-7,0,-2,1
1514891705057955,-2,-2,1,-13,-3,-1,0,-2
1514891705058455,-7,-1,5,22,2,-3,-1,-1
1514891705058455,0,6,1,2,0,-3,-1,-1
1514891705080472,-5,-9,-2,-3,0,2,-2,-3
1514891705080472,0,-1,1,9,7,2,0,-1
1514891705081472,3,7,1,-4,-1,-2,-2,0
1514891705081472,0,-1,-3,-1,0,-3,-7,-3
1514891705094982,-5,-3,-1,-4,-6,-1,-5,-2
1514891705094982,2,9,2,-4,-1,-1,-1,-3
1514891705095982,-4,-10,-3,7,-4,-3,-1,-2
1514891705095982,1,-1,-1,-9,-3,-1,0,-1
1514891705118499,0,0,-2,-5,-6,-4,1,0
1514891705118499,0,-2,5,9,0,-2,-2,-1
1514891705119000,-2,-1,-10,-3,13,3,1,0
1514891705119000,-3,3,0,-4,-8,-4,-2,-1
1514891705131508,1,8,-3,-3,2,-2,2,0
1514891705131508,8,6,4,0,-1,1,2,3
1514891705140513,-1,-9,-1,-5,-6,-4,-4,0
1514891705140513,-3,-3,1,0,-2,-2,-2,-3
1514891705155524,-1,4,-1,9,3,2,3,0
1514891705155524,12,-2,0,-3,-2,-3,0,-1
1514891705156025,10,6,0,-4,-3,0,-1,0
1514891705156025,-3,2,-1,-1,-1,-1,0,-2
1514891705178040,1,0,0,1,-2,-2,-1,-2
1514891705178040,-2,-4,-2,-4,-3,1,-1,0
1514891705178541,7,14,3,-1,-1,-1,0,2
1514891705178541,-16,-17,-3,-2,1,-2,-3,-2
1514891705202056,-3,-3,-3,2,-2,-2,0,1
1514891705202056,-8,-4,-2,-3,0,-1,-2,-1
1514891705202558,0,0,1,-4,-3,-1,0,-3
1514891705202558,3,7,0,0,-3,1,1,-2
1514891705215123,1,-4,-1,0,2,0,-1,-3
1514891705215123,-6,-5,-5,-4,-3,-2,-1,-3
1514891705216110,-4,2,1,-2,-2,-1,0,1
1514891705216110,2,3,-2,0,0,-1,1,1
1514891705238126,0,-3,-3,0,1,-4,0,-3
1514891705238126,-2,0,0,-5,0,0,2,-1
1514891705238641,-7,-3,-2,-1,-3,-5,-3,-3
1514891705238641,4,2,2,0,0,1,0,0
1514891705252145,-3,-4,-1,-2,-3,-2,0,-2
1514891705252145,-4,-2,-1,-1,-1,0,-2,-3
1514891705267146,-3,-3,-1,-3,-1,-2,-1,0
1514891705267146,2,1,-1,-2,-2,-2,-3,1
1514891705283160,1,0,-1,0,-1,0,-3,-1
1514891705283160,-3,-2,-1,-2,-2,-1,-4,-2
1514891705283657,-3,1,-1,-1,-2,1,-2,-1
1514891705283657,2,1,0,2,0,-3,0,0
1514891705305172,-1,-1,-3,-3,1,0,-2,-2
1514891705305172,-7,-4,-3,-3,1,-1,-1,-4
1514891705305674,-1,-1,-3,-3,-2,-1,1,-3
1514891705305674,-2,-2,1,2,0,0,0,-1
1514891705313191,0,-1,1,0,-1,-1,0,0
1514891705313191,1,1,0,-1,0,-1,-1,-1
1514891705319695,-5,-7,0,1,0,1,-1,0
1514891705319695,-3,-5,-3,-1,-1,-3,-2,1
1514891705335194,0,1,3,-2,1,0,-1,2
1514891705335194,1,6,-2,-3,0,-2,-3,-2
1514891705336195,1,-2,-2,-1,-2,-2,2,-1
1514891705336195,-4,-2,-2,0,-2,0,1,0
1514891705357709,-5,-1,-1,0,-1,-2,1,-1
1514891705357709,-12,-15,-4,-1,-2,-2,0,-1
1514891705358710,-3,4,-1,-1,-2,1,-1,-3
1514891705358710,2,-2,-1,0,-1,0,0,-2
1514891705371740,9,4,-1,1,-1,-2,0,0
1514891705371740,0,0,2,0,-3,-1,0,1
1514891705379734,-1,-4,0,0,0,-2,-5,-2
1514891705379734,1,6,-1,0,-2,-1,-2,-1
1514891705395236,-4,-5,-4,-2,-1,0,1,1
1514891705395236,-1,-1,-1,-1,-2,-2,1,0
1514891705397253,1,-1,-2,-1,-1,-2,0,-2
1514891705397253,0,0,0,-1,-1,0,-1,0
1514891705417781,-3,-2,-3,0,-2,-2,-1,-4
1514891705417781,-1,-2,-1,-2,-1,0,-1,-1
1514891705418778,-1,3,0,-2,-2,-2,-2,0
1514891705418778,0,-2,-2,0,0,0,-2,-3
1514891705440316,-1,-3,-4,0,-1,0,-1,-2
1514891705440316,2,1,-2,-2,-1,0,-4,2
1514891705441316,-3,-2,-1,-1,-2,0,0,-1
1514891705441316,0,0,0,-2,-2,0,-1,2
1514891705455327,1,-2,-1,-1,-2,-1,-4,-1
1514891705455327,-2,0,0,0,-3,-2,-2,-2
1514891705456328,-3,-1,-1,-2,0,-2,0,-2
1514891705456328,-1,-2,-2,-1,1,-4,-1,-1
1514891705477843,1,0,0,-1,0,-2,3,-1
1514891705477843,-1,-1,-1,-1,0,-2,3,-1
1514891705479344,-2,-3,0,0,-2,0,-3,-2
1514891705479344,0,0,-1,-1,-1,1,-2,-2
1514891705500858,-3,-1,1,0,-3,0,-4,-1
1514891705500858,0,0,-1,0,-1,-1,0,-1
1514891705502359,3,0,-3,-2,0,-4,0,0
1514891705502359,0,-1,1,0,-1,0,-1,-2
1514891705530381,-2,-1,-2,-3,0,-1,-1,-1
1514891705530381,-1,1,-2,-1,-3,-2,-1,-1
1514891705531881,-3,0,-1,0,-1,-3,-2,1
1514891705531881,-1,0,-2,-2,0,-2,-1,-2
1514891705545391,0,0,-2,-1,-2,0,0,1
1514891705545391,-3,-3,-1,-1,-1,-2,-1,0
1514891705546891,0,-1,-2,-2,1,-1,2,-2
1514891705546891,-1,-2,0,-3,0,-1,1,-1
1514891705567916,0,0,-1,0,-2,-3,-2,-1
1514891705567916,-2,1,-1,-1,-1,-1,-3,-1
1514891705569407,-2,-1,0,0,0,1,-2,1
1514891705569407,-1,-3,-3,-1,-1,-3,0,-3
1514891705574912,-1,-2,0,-2,-2,0,-2,-1
1514891705574912,1,-1,0,-1,0,-2,-2,-2
1514891705588922,-1,0,0,-1,-1,1,-1,-3
1514891705588922,0,-1,2,-1,2,-2,-3,1
1514891705597936,-1,0,-1,-2,0,-2,0,1
1514891705597936,1,-2,-3,-2,-1,-2,-2,0
1514891705599453,-1,1,-2,0,-3,-2,-1,0
1514891705599453,-2,0,-2,-1,-3,-1,0,1
1514891705620443,-2,-2,-1,-2,-2,-1,-1,-2
1514891705620443,-2,-1,-1,0,-2,-2,-3,-2
1514891705622959,-2,-3,0,-1,0,-2,-1,0
1514891705622959,-1,0,-1,1,-2,0,0,-1
1514891705634463,-1,-2,-2,0,0,-1,-2,-1
1514891705634463,2,-2,-2,-1,-1,-2,0,-2
1514891705658471,-2,-2,-1,-1,-4,-2,-2,-2
1514891705658471,-2,0,-2,-4,-1,-3,-1,-2
1514891705659472,-1,-2,0,-1,-1,0,2,-1
1514891705659472,0,-1,-2,0,0,0,2,-2
1514891705660971,0,-1,-2,-3,0,0,-2,1
1514891705660971,0,-2,-2,-1,0,2,-1,3
1514891705679986,-1,-1,-2,-1,-2,0,-2,-1
1514891705679986,-3,-1,1,-2,-2,1,-3,-2
1514891705686491,-1,-3,0,-1,-1,-1,1,1
1514891705686491,-1,0,-1,0,0,-2,-3,-1
1514891705694995,0,-2,-2,0,-1,-2,1,-4
1514891705694995,-2,-1,-1,0,0,-1,1,-1
1514891705701500,-1,-2,-1,-1,0,0,-2,-1
1514891705701500,0,-1,1,-1,-2,-2,-2,-2
1514891705718012,0,-2,-1,-1,-1,-2,-3,0
1514891705718012,-3,-1,-1,-1,0,-1,-2,1
1514891705719515,-2,-1,-2,0,0,-1,0,0
1514891705719515,0,-2,0,0,-2,-1,-2,-1
1514891705740528,1,0,0,-2,-2,-2,-3,-1
1514891705740528,-2,-1,-3,0,-2,-1,0,-2
1514891705742029,-1,-1,-2,-1,-2,-1,1,-1
1514891705742029,-1,0,-2,-1,0,-2,2,-1
1514891705754538,-2,-1,-2,-2,0,-1,2,0
1514891705754538,-1,0,-1,-3,-1,0,-3,-1
1514891705761543,-1,-1,0,-2,0,2,-2,-3
1514891705761543,-1,0,-1,1,-2,-1,1,-2
1514891705777055,-4,-2,1,0,-1,-1,-1,-1
1514891705777055,0,-2,1,1,-1,-1,0,-1
1514891705785559,-1,-1,-2,0,-2,-3,-1,-3
1514891705785559,-2,1,-2,-2,-3,-1,0,-1
1514891705800578,-1,-2,-2,-4,-1,1,-3,-1
1514891705800578,-1,-1,-2,0,-1,-1,-1,-1
1514891705806585,-2,-2,-2,-2,-1,-2,-3,-2
1514891705806585,-1,-3,1,-1,0,-1,-2,0
1514891705815090,1,1,-1,0,-2,0,-2,-1
1514891705815090,-1,-2,-2,-2,-1,-3,-1,0
1514891705824086,0,-2,-1,-1,-2,-1,-2,0
1514891705824086,-2,-2,0,-1,0,0,2,-1
1514891705838097,-1,-2,-1,1,-1,0,-1,-2
1514891705838097,0,0,1,-1,0,-1,-1,0
1514891705839612,-1,0,1,0,-2,-2,-2,1
1514891705839612,-3,0,-1,-1,-2,0,-3,-3
1514891705861113,-3,-1,0,-3,0,0,-1,0
1514891705861113,0,-1,0,-3,-1,-1,0,0
1514891705862629,-1,-2,-2,-1,-2,-1,0,-2
1514891705862629,-1,-2,-2,0,0,-2,-3,-2
1514891705874635,0,0,-3,-1,-3,0,0,-1
1514891705874635,-1,-2,-3,-1,-2,-1,1,-2
1514891705881629,-1,0,-1,-1,-1,-3,0,-1
1514891705881629,0,0,-1,-2,-1,-2,1,1
1514891705897640,-2,-1,-3,-2,0,-2,-1,-1
1514891705897640,0,-1,-1,-2,-1,-3,-2,1
1514891705899641,0,1,-4,-1,-2,0,-1,0
1514891705899641,0,-2,0,-2,-2,-2,0,-1
1514891705928160,1,-1,-1,0,0,-2,0,-2
1514891705928160,-1,-2,-2,-1,-1,-1,0,-1
1514891705929672,-2,-1,-2,-1,0,-2,0,-2
1514891705929672,-3,1,-1,0,1,-1,-2,1
1514891705934667,-1,1,0,-2,-1,1,-5,-1
1514891705934667,0,-1,-3,-1,-1,-1,-3,-1
1514891705951178,-1,0,-1,0,-1,0,-1,1
1514891705951178,0,-2,-1,-2,-2,0,-2,-2
1514891705957690,-2,-2,0,0,-2,-2,1,-1
1514891705957690,-1,-2,1,-1,-1,-1,1,-2
1514891705960183,-2,-1,1,-1,-1,-2,-1,0
1514891705960183,0,-1,-2,0,-1,0,-2,-1
1514891705980198,-1,-1,-1,-1,-2,-1,-5,0
1514891705980198,0,0,-1,-1,-2,-1,-2,-1
1514891705982198,-2,-2,-1,-1,0,-2,-2,-1
1514891705982198,-1,0,0,-1,-1,-2,-2,1
1514891705994708,-1,1,-2,-1,0,-2,0,2
1514891705994708,-1,2,0,-1,-1,0,0,2
1514891706003213,1,0,-2,-3,-2,0,3,-2
1514891706003213,-2,-1,-2,1,-1,-1,2,-3
1514891706018224,-1,-2,-2,-2,-1,-1,1,0
1514891706018224,0,-3,-3,-1,-1,-4,2,-1
1514891706019725,-1,-3,-2,-1,-2,0,0,-1
1514891706019725,0,-3,-1,-3,-1,-1,-1,-3
1514891706040243,-2,-1,1,0,-3,0,-3,-3
1514891706040243,-3,-2,0,2,-1,-1,-3,0
1514891706042241,-1,-1,-2,-1,1,0,-1,0
1514891706042241,0,0,-3,0,0,-1,0,0
1514891706053761,0,0,-2,0,0,-1,0,0
1514891706053761,0,1,-2,-2,-1,-1,-4,-2
1514891706063256,0,-2,0,1,1,-1,-3,-2
1514891706063256,-2,-2,1,0,-1,1,-3,0
1514891706076766,-2,-1,0,0,-3,-1,-1,1
1514891706076766,-3,-1,0,-1,-2,-1,0,-1
1514891706085272,1,-1,0,-1,-1,-3,-1,0
1514891706085272,1,-1,-1,-1,-1,-1,2,-2
1514891706100782,-1,-2,0,1,-2,-3,-1,-3
1514891706100782,-1,-2,-1,0,-1,-3,1,0
1514891706102784,-2,-2,0,0,0,1,-2,1
1514891706102784,-3,-1,0,0,-2,-1,1,-2
1514891706113792,2,-1,-2,-2,-1,-1,2,-2
1514891706113792,-2,0,-2,-2,-1,-1,-3,-2
1514891706124799,0,-1,-1,-2,-1,-1,-1,-2
1514891706124799,-1,-2,-1,-1,-2,-1,-3,1
1514891706137808,-1,-2,-1,-3,0,0,-4,-2
1514891706137808,-2,-1,-1,0,-1,0,-1,-3
1514891706139309,0,-2,0,0,-1,0,1,1
1514891706139309,0,-1,0,0,-1,-2,1,-1
1514891706160325,-1,-1,0,2,-1,-2,1,-1
1514891706160325,-1,-1,-1,-1,0,-1,-2,-2
1514891706161826,-2,-1,0,0,-1,-2,2,-1
1514891706161826,0,-2,-3,-1,-2,-3,2,-1
1514891706173835,-2,-1,-2,-3,0,-3,2,-1
1514891706173835,-1,-2,-1,-3,-2,0,-3,-1
1514891706183340,-3,1,-2,-2,0,-1,-6,-4
1514891706183340,-2,0,-1,-3,0,0,-2,0
1514891706205857,-1,-2,-2,-2,-4,-1,-2,-2
1514891706205857,0,1,-2,-2,0,-1,0,0
1514891706207357,-2,-1,-1,-3,0,-1,0,0
1514891706207357,1,1,-1,0,1,-1,-2,-2
1514891706220877,0,-1,-1,-1,-1,-3,-1,0
1514891706220877,-2,-3,-1,-1,-2,0,-3,0
1514891706222368,-2,-1,-1,1,-1,-1,-1,-2
1514891706222368,-2,1,0,0,-1,0,-1,2
1514891706233887,0,-2,0,1,-3,-1,-2,1
1514891706233887,0,-3,-2,-1,-2,-2,0,-1
1514891706242892,1,-3,0,-1,-3,-1,-1,-2
1514891706242892,-2,0,0,-2,-2,-1,-1,-1
1514891706258406,0,-1,-1,0,0,1,1,-1
1514891706258406,-2,-1,-1,-2,0,-1,-1,-2
1514891706259895,-3,0,-1,-1,0,-2,-3,0
1514891706259895,-1,-2,-1,-3,0,-3,-4,-1
1514891706280410,-1,0,2,-1,1,-1,1,-2
1514891706280410,1,0,0,0,1,-2,1,1
1514891706281920,1,-3,0,0,-1,-1,1,2
1514891706281920,-1,-2,-3,-2,-2,-2,1,0
1514891706294431,-3,-1,-4,-3,1,0,0,0
1514891706294431,-2,0,-2,0,-1,-1,-2,1
1514891706310430,-3,0,0,-2,-1,-3,0,-4
1514891706310430,-2,-2,1,0,-1,0,-3,0
1514891706317939,0,-2,-1,-2,-2,-1,-1,-2
1514891706317939,-1,0,0,-1,-2,0,0,-1
1514891706319438,-2,1,-3,-2,0,-2,0,-1
1514891706319438,-2,-1,-2,-2,1,-1,-2,-3
1514891706340453,-2,-1,0,-2,-2,-1,-3,-1
1514891706340453,0,0,0,-3,-1,0,-5,-1
1514891706341953,-1,-1,-2,0,0,-2,-1,2
1514891706341953,0,1,-1,-1,0,-2,-2,0
1514891706363467,-2,-1,-2,-2,1,-2,0,-2
1514891706363467,-2,-4,0,0,-1,-2,0,0
1514891706364973,-1,-4,0,-1,-3,-1,-2,-1
1514891706364973,-2,-2,0,-2,-1,0,0,-2
1514891706377979,0,-2,-1,-1,-2,-1,1,-2
1514891706377979,-1,-3,-3,-2,-1,-2,1,-2
1514891706379480,-1,-3,-2,-1,-1,-1,0,-4
1514891706379480,0,0,-1,0,-1,-1,0,-2
1514891706400497,-2,1,0,1,-2,-1,-2,-1
1514891706400497,-1,0,0,-3,-1,-2,-2,-1
1514891706401996,0,0,-1,-1,-1,-1,-4,1
1514891706401996,-1,-1,-1,-1,-2,0,-1,-1
1514891706423010,-1,-1,-1,-3,-1,-1,-1,-3
1514891706423010,-1,-1,-3,0,-1,0,0,-3
1514891706424512,-1,-1,-1,-4,0,-2,-2,-2
1514891706424512,-1,1,-1,0,-2,-1,1,0
1514891706438022,-1,-2,0,1,-2,-2,-2,2
1514891706438022,-1,-1,0,-2,0,-3,1,-2
1514891706439523,-1,-1,0,-2,0,-1,0,-1
1514891706439523,-3,-3,-1,0,-2,0,-3,0
1514891706460561,0,0,0,0,-1,-1,-1,0
1514891706460561,-3,-3,0,0,-1,-1,1,-1
1514891706462038,-2,0,-1,0,0,0,3,0
1514891706462038,-1,1,-3,0,-1,0,-1,-1
1514891706499104,-1,-2,-2,-1,0,-1,0,1
1514891706499104,0,0,0,-1,0,0,1,0
1514891706500609,-1,-2,-2,-2,-2,0,1,-2
1514891706500609,-1,-2,0,-1,0,0,-2,-3
1514891706501596,0,1,-1,-2,-1,-1,-4,-2
1514891706501596,-1,0,-3,-1,0,-1,-1,-1
1514891706505609,-2,-1,0,1,-2,-1,-3,-1
1514891706505609,-1,-2,-1,-1,-3,-3,-1,-2
1514891706521110,-1,-2,-2,-1,-2,-2,-1,-1
1514891706521110,-1,-2,-1,0,1,-2,0,-2
1514891706524613,-1,0,-2,-1,-1,-2,-2,-2
1514891706524613,-1,-1,-2,-3,-1,-2,0,0
1514891706543125,-3,-1,0,0,-2,-2,0,1
1514891706543125,0,0,-1,-2,-3,1,-1,-1
1514891706545127,-1,-3,0,-1,1,1,-3,1
1514891706545127,-1,0,-3,-1,2,1,-1,-2
1514891706557136,-2,-1,-1,-2,-1,0,2,0
1514891706557136,-2,1,-2,-1,-1,0,-2,1
1514891706564143,0,-1,-1,-2,-2,-3,1,-2
1514891706564143,-2,-4,-1,0,-2,-2,0,-1
1514891706587669,0,2,-3,-2,-2,0,-1,-1
1514891706587669,-2,-1,-1,-1,1,0,-1,1
1514891706589659,0,-1,0,-1,-2,-1,-1,0
1514891706589659,0,-3,-1,1,0,-2,0,0
1514891706602668,-1,-3,0,0,-1,-1,-3,-3
1514891706602668,-3,-2,0,1,-2,-1,-2,-1
1514891706604669,-1,-1,-2,-2,2,0,-1,-2
1514891706604669,0,0,0,-2,-1,0,-1,0
1514891706618179,-1,-2,-2,-2,-1,0,1,-2
1514891706618179,0,-2,-2,-2,0,-2,-2,-1
1514891706624183,-3,-2,-1,0,-1,-1,-2,0
1514891706624183,0,0,1,-3,-1,-3,-3,-3
1514891706640694,-2,-1,-2,1,-2,-2,-4,-1
1514891706640694,0,-2,-3,-1,-2,-1,0,-1
1514891706642713,-1,0,-2,0,-2,-2,3,-2
1514891706642713,-4,-3,-3,-1,0,-1,2,-2
1514891706662713,-4,-1,-2,-2,1,-2,0,-2
1514891706662713,3,0,1,0,-2,0,-2,-1
1514891706664711,0,0,1,1,-1,-1,-2,0
1514891706664711,-1,0,0,1,-3,0,-3,1
1514891706677230,-3,-2,-1,-1,-2,0,0,-2
1514891706677230,-3,-3,-1,-1,0,0,-1,-1
1514891706691730,-1,-2,-2,-2,-1,0,0,-2
1514891706691730,1,0,2,1,0,-1,0,-1
1514891706700740,0,0,-1,0,-1,0,-2,1
1514891706700740,-1,0,-2,-1,-1,-3,-3,-3
1514891706701737,-1,-1,-3,-3,-1,-1,-1,-1
1514891706701737,-1,-1,-2,0,-2,-2,-3,-1
1514891706723253,2,-2,0,0,1,1,-1,-1
1514891706723253,-2,-2,-1,0,0,-3,-3,-2
1514891706724754,-3,-2,0,-2,0,-2,-3,0
1514891706724754,-1,-1,-2,-1,0,1,1,-1
1514891706737276,1,-1,-2,-2,-1,-1,0,-1
1514891706737276,0,0,-3,0,-1,1,2,2
1514891706743780,-1,-1,-1,-1,2,-1,0,0
1514891706743780,0,-1,-1,-1,-1,0,0,-2
1514891706760278,0,-2,0,-1,-1,-1,-2,-2
1514891706760278,-3,-2,-1,-2,-2,0,-1,-2
1514891706761780,-3,-1,-3,0,-1,0,-1,-2
1514891706761780,1,0,-2,0,-1,-1,-3,1
1514891706782795,0,0,-2,-1,-1,-1,0,-3
1514891706782795,-1,0,-1,-1,0,-1,-2,1
1514891706784311,0,1,-1,-1,-1,-1,-2,0
1514891706784311,-2,-2,-1,-3,0,-1,-3,0
1514891706797306,-2,1,-2,-3,-1,-1,0,1
1514891706797306,-1,-1,-3,0,-1,-2,0,-1
1514891706804322,-1,-1,0,0,-3,-1,-1,-1
1514891706804322,0,-2,0,-2,-2,-1,2,-1
1514891706827827,0,-2,-1,0,0,-1,1,0
1514891706827827,-1,-2,-2,-3,-1,0,1,-1
1514891706829328,0,-3,-1,0,-1,-1,-3,-2
1514891706829328,-1,-2,-1,-1,-1,0,-2,-1
1514891706843337,-1,-1,-2,-3,-1,-1,-2,-1
1514891706843337,-1,-2,1,-1,-3,-2,-2,-3
1514891706844840,-2,-1,-2,-1,0,-3,2,-1
1514891706844840,-2,-2,-2,-2,-1,-2,-1,0
1514891706865854,-2,-2,-1,-2,-1,0,2,0
1514891706865854,-2,-2,-3,0,0,-1,-2,1
1514891706867355,-1,-1,-2,-1,0,0,-1,-1
1514891706867355,0,0,-1,-1,-1,0,0,-2
1514891706880391,-2,-1,-2,-1,-2,-2,-2,-2
1514891706880391,1,-1,-2,-1,0,-2,-3,0
1514891706881877,-3,0,-1,-2,0,1,-1,1
1514891706881877,-1,0,-1,-1,-3,-1,-1,-1
1514891706903385,1,-1,1,-1,-1,-1,-3,-2
1514891706903385,-1,-2,-1,-1,-1,2,2,-2
1514891706905392,0,-1,-1,-1,-2,0,0,-2
1514891706905392,-2,0,0,-1,0,-1,0,-2
1514891706916892,0,0,-1,-2,-1,0,-2,1
1514891706916892,-2,1,-2,-1,0,-3,0,0
1514891706942407,0,-2,-3,-1,0,-3,-1,1
1514891706942407,-2,-3,0,0,0,-3,1,1
1514891706943408,-1,-4,-1,0,0,-1,0,-1
1514891706943408,-1,-3,-1,-2,0,1,-2,-5
1514891706946410,-2,0,-1,-2,0,-3,-2,-4
1514891706946410,-2,1,-1,-2,-2,-1,-2,0
1514891706962932,4,0,-1,-2,-1,-1,0,-2
1514891706962932,2,1,-1,-1,-1,-1,0,2
1514891706964435,0,0,1,-2,-2,-2,0,-1
1514891706964435,-1,0,-4,-3,-1,-1,0,-1
1514891706976432,-4,-3,-3,0,-1,-2,0,1
1514891706976432,-2,0,-1,-2,1,-3,0,-1
1514891706985439,-1,-2,-3,-1,-1,1,-2,-1
1514891706985439,1,1,0,1,-1,1,-2,-1
1514891707000459,0,1,1,-1,-1,-2,0,-1
1514891707000459,-2,-1,0,0,-2,-2,-3,-2
1514891707001951,-1,-2,-1,0,-2,-1,-1,0
1514891707001951,0,-2,-4,1,-1,-1,-2,-3
1514891707022965,-2,-1,-1,0,0,-2,1,-2
1514891707022965,-1,-1,-2,-1,0,-1,-2,-1
1514891707024467,1,-1,0,-1,-1,-4,1,-1
1514891707024467,0,-2,-1,1,-2,0,-3,-1
1514891707036475,-2,0,1,-1,-2,-1,-3,0
1514891707036475,-3,-2,-2,-2,0,0,1,0
1514891707045480,-2,-1,-3,0,1,1,1,1
1514891707045480,1,0,0,-3,-3,-3,-1,-1
1514891707060505,-3,-2,0,-4,-3,-3,1,-2
1514891707060505,-3,-2,0,0,-1,-1,-1,-2
1514891707062002,1,0,-1,0,0,0,-2,0
1514891707062002,-1,-4,-3,0,0,-2,-1,0
1514891707083508,-1,-1,0,-1,1,1,-1,-2
1514891707083508,0,-1,-1,-1,0,0,1,-1
1514891707085009,-1,-2,-1,-1,-1,-1,1,-2
1514891707085009,-2,-2,1,-1,-1,0,0,-2
1514891707096516,-1,-2,-1,0,-4,0,-2,0
1514891707096516,-2,0,-1,-1,0,-2,-2,-1
1514891707113040,-1,1,0,-1,-1,0,-1,0
1514891707113040,-1,3,-1,-2,-1,1,-2,-1
1514891707121034,-1,-1,-1,-1,0,-1,-2,0
1514891707121034,-2,0,-3,-2,-1,0,-4,0
1514891707124536,-1,-2,-3,0,-1,-3,-4,1
1514891707124536,0,-2,0,-2,-3,-2,0,-2
1514891707143551,0,-2,0,0,1,-1,-1,-2
1514891707143551,-1,-2,1,-4,1,-3,-1,0
1514891707146054,0,-2,-1,-1,1,-1,1,-2
1514891707146054,-2,0,-1,0,0,-1,-1,-3
1514891707156559,1,-1,-2,0,0,1,0,-4
1514891707156559,-3,0,-1,0,-2,0,3,-1
1514891707165565,-3,-2,-3,-3,-3,-1,0,0
1514891707165565,0,-1,0,-1,-1,-1,0,-1
1514891707180085,-2,1,0,-2,-2,0,-1,0
1514891707180085,0,0,-1,-1,-3,-1,-2,-1
1514891707182087,-2,-1,2,0,0,0,-3,-1
1514891707182087,-1,-2,-1,0,-2,-3,0,0
1514891707203104,-1,-2,-3,-1,0,-1,2,0
1514891707203104,1,-2,-2,-1,-2,-2,1,1
1514891707204605,-2,-1,-2,-1,-1,-1,2,0
1514891707204605,-1,-4,-1,-2,0,1,-1,-3
1514891707216601,-2,2,-2,-2,-1,0,-2,-2
1514891707216601,-2,-2,-1,-1,1,-1,1,-1
1514891707227109,0,-1,-2,0,-1,-1,-3,-2
1514891707227109,-2,-2,-1,0,0,-2,-1,-1
1514891707240118,-2,-2,-2,-2,-1,-3,1,-2
1514891707240118,0,-2,-2,0,-1,1,1,0
1514891707242132,1,1,2,-3,-2,-1,-1,-2
1514891707242132,0,0,-1,-1,-2,1,-3,-2
1514891707263146,-2,-1,-2,0,-2,-2,-4,-1
1514891707263146,-2,0,-1,-3,-1,-2,-3,1
1514891707264635,-1,-4,-3,-1,1,-1,1,2
1514891707264635,3,0,0,-1,-2,-1,1,0
1514891707276643,1,-2,-1,1,-1,-2,1,-2
1514891707276643,0,-1,1,-1,-2,0,0,-3
1514891707285652,-2,-1,-2,0,-1,-1,0,-2
1514891707285652,-3,1,-4,1,0,-2,-1,0
1514891707300162,0,-1,0,-1,-3,-1,-1,1
1514891707300162,0,-1,-1,0,0,-2,-2,-3
1514891707302165,0,-1,-1,-2,-1,-2,1,-1
1514891707302165,0,-1,-1,-1,0,0,-2,-1
1514891707323678,-1,0,1,0,-2,1,-2,2
1514891707323678,-1,-1,-2,-3,-2,0,-2,1
1514891707325678,-2,0,0,-2,-1,-1,-1,0
1514891707325678,-2,-2,-3,-1,-2,-3,-1,-3
1514891707345192,1,1,-1,-1,-2,1,-4,-5
1514891707345192,-2,-1,-3,-1,-3,-1,-3,1
1514891707347222,-3,-1,-2,0,0,1,-2,-1
1514891707347222,-3,0,-2,-2,-1,0,-1,1
1514891707359711,-2,0,-3,-4,0,0,-1,-2
1514891707359711,1,-2,-1,-1,-1,-3,2,-2
1514891707366719,0,-2,0,-1,-1,-1,0,-3
1514891707366719,1,0,0,-1,-2,-3,1,0
1514891707382720,0,-1,-2,-1,-2,-2,0,0
1514891707382720,-2,-2,-1,-1,1,-2,-1,0
1514891707384728,0,-1,-1,-2,-2,-1,-2,1
1514891707384728,0,-3,-2,-2,-3,-2,-2,-1
1514891707405753,-2,-1,-1,0,0,-1,-1,-2
1514891707405753,-1,0,-2,-1,1,0,-1,-1
1514891707407248,-2,-2,-2,0,0,-1,-3,-2
1514891707407248,-3,-2,-2,-2,-1,-1,-1,-1
1514891707420257,0,-1,-2,-2,-2,-2,-1,-2
1514891707420257,0,0,-1,0,-2,-2,1,-1
1514891707421749,-1,-1,1,-1,0,0,-2,0
1514891707421749,-1,-1,0,0,0,0,-2,1
1514891707443262,-1,-3,0,-2,0,1,-1,1
1514891707443262,-2,-3,-2,-1,1,-1,0,-1
1514891707445263,-1,-1,-1,-2,-2,-2,1,1
1514891707445263,0,0,0,0,0,1,1,-2
1514891707464290,0,-1,0,-1,-2,-2,0,-2
1514891707464290,0,0,1,-1,-1,-2,-2,-3
1514891707472783,-1,-2,-3,0,-1,-1,-2,-2
1514891707472783,1,-1,-1,0,0,1,-4,0
1514891707487804,-1,-1,-3,-1,0,-1,-1,2
1514891707487804,-2,-2,-1,-3,-1,0,-3,0
1514891707490304,-1,0,1,0,0,-2,-2,-1
1514891707490304,-2,-2,1,-1,-2,0,0,-1
1514891707503304,2,1,1,-2,-2,-1,2,-2
1514891707503304,1,0,-3,-1,0,-1,2,-1
1514891707504805,0,1,-3,-2,0,-1,-1,0
1514891707504805,-2,0,-3,-3,1,-2,-2,-1
1514891707525319,-3,-2,-3,1,-2,-2,-4,-3
1514891707525319,-1,-1,0,0,1,-1,0,-2
1514891707526821,-1,-1,0,1,-1,-2,-2,1
1514891707526821,-2,-1,-2,0,-1,-1,-1,-3
1514891707539853,-2,-1,-1,-1,1,0,-2,-4
1514891707539853,1,-3,1,0,-1,0,-2,0
1514891707546344,-2,-2,-1,-1,-1,1,0,-1
1514891707546344,0,1,-2,-2,-2,-2,-1,-1
1514891707562846,-1,0,-1,-1,-3,-2,-2,2
1514891707562846,-1,-1,-4,-3,-2,-2,-4,-2
1514891707564346,-2,0,-1,-1,-1,-2,4,0
1514891707564346,1,1,-1,-1,-1,-2,-1,1
1514891707585362,0,-1,-2,-2,0,0,1,0
1514891707585362,-3,-2,0,-1,-1,1,-1,-3
1514891707586863,-2,-2,-1,0,-2,0,-1,-1
1514891707586863,0,-4,-1,-2,-1,-1,0,0
1514891707599382,1,1,0,-2,-2,-4,-1,3
1514891707599382,-1,0,-1,-1,-2,-2,-3,1
1514891707613883,-1,-1,-1,0,1,0,-3,-2
1514891707613883,0,-2,-1,0,1,-2,-1,-2
1514891707622892,-2,-1,-1,-2,-1,-1,-1,0
1514891707622892,1,-1,-2,-2,-2,0,3,0
1514891707624390,0,-2,1,-4,-2,-2,0,-1
1514891707624390,-1,-1,-1,0,-4,-1,-1,0
1514891707645413,-1,-2,-2,0,-1,0,-1,-4
1514891707645413,-2,-1,-4,-1,-2,-1,-3,-1
1514891707646905,-1,-2,-1,0,-1,-1,-3,-1
1514891707646905,0,-2,-1,-2,0,0,1,-1
1514891707659417,-1,0,0,0,-1,1,-2,-3
1514891707659417,0,1,-1,-2,-1,0,-1,0
1514891707666443,-3,-3,-1,-2,-1,0,-3,-2
1514891707666443,0,-1,-2,-3,-1,-3,-2,1
1514891707682963,-1,-3,-2,-2,-1,-1,-1,0
1514891707682963,-2,-1,-1,-1,-2,-2,2,1
1514891707684458,-1,1,-2,-1,0,-1,1,0
1514891707684458,1,-1,-1,-1,-1,1,-2,-3
1514891707704970,-1,0,-2,-1,-1,-1,0,-1
1514891707704970,0,-1,-2,-2,-1,-1,-1,0
1514891707706972,-2,-1,-3,0,-2,-3,0,-2
1514891707706972,-2,-1,-1,-2,-3,-1,-1,0
1514891707719481,-2,-2,-2,0,-1,-1,-2,1
1514891707719481,-3,-3,-1,0,1,0,0,0
1514891707728987,-2,0,-2,0,-1,3,2,0
1514891707728987,-2,0,1,-1,-1,-1,0,-3
1514891707750503,1,-1,0,-2,-1,-1,-3,-2
1514891707750503,0,1,-2,-1,-1,-1,-3,-3
1514891707752005,-1,0,-1,0,1,-2,-4,1
1514891707752005,-2,-1,-1,1,-1,1,-2,0
1514891707765033,-1,-1,-2,-1,-2,-4,-2,0
1514891707765033,-2,-2,0,-1,-1,0,-1,0
1514891707767023,0,-2,-1,-1,-1,-1,-3,-2
1514891707767023,-2,-1,0,0,0,-2,-2,0
1514891707779523,-3,-1,0,0,-1,-1,0,-1
1514891707779523,0,0,-1,0,-2,-1,0,-2
1514891707788029,-1,0,-1,-1,-2,-2,1,-2
1514891707788029,0,1,-1,-2,0,-2,2,0
1514891707802538,-1,-1,-1,0,-1,-1,1,-1
1514891707802538,-3,-2,0,0,1,-2,0,-1
1514891707804552,0,-2,1,-2,-1,-2,-2,-2
1514891707804552,1,-1,-1,0,-1,0,-1,-1
1514891707825554,-2,0,-2,0,0,-2,-3,-2
1514891707825554,-4,-3,-1,-2,0,-3,2,-1
1514891707829057,-1,-1,-2,-2,-2,-2,-1,-2
1514891707829057,-2,-1,-3,-2,-1,1,-1,-3
1514891707839064,-1,-1,-2,-1,-1,0,-1,-1
1514891707839064,0,1,-1,-2,-2,0,-2,1
1514891707848071,-1,1,-2,1,-2,0,-2,0
1514891707848071,-1,1,-1,-2,-2,-2,0,-1
1514891707863081,0,-1,0,-3,0,0,-1,1
1514891707863081,1,-2,-2,1,-1,-2,-2,0
1514891707864584,0,-1,1,-2,0,-2,-2,0
1514891707864584,-2,-1,0,-1,-2,0,-1,-3
1514891707885598,-1,-2,-2,-3,-1,-1,-1,-3
1514891707885598,0,0,0,1,0,-1,-2,0
1514891707887099,-2,-1,-3,-2,1,-1,-1,2
1514891707887099,-1,-1,-1,-1,-1,-1,0,0
1514891707899116,-2,0,-1,-1,-2,0,1,-1
1514891707899116,0,-1,-1,1,-2,0,1,-1
1514891707908113,0,-3,-2,-1,0,-2,-1,-1
1514891707908113,0,-1,-2,0,0,-2,-1,-1
1514891707922623,0,-2,0,-1,1,-2,-2,0
1514891707922623,-2,-2,-2,-3,-1,0,-4,-3
1514891707926127,-2,1,0,-3,-1,0,0,0
1514891707926127,0,-2,0,-1,-1,-1,0,0
1514891707945153,0,1,-2,-1,-3,-2,1,-1
1514891707945153,-1,-2,-3,-2,0,-2,-2,-3
1514891707947156,1,-2,-2,0,-1,-2,-2,0
1514891707947156,0,-2,-3,-1,-1,0,0,-3
1514891707959159,0,0,-2,-1,0,-1,-1,-2
1514891707959159,-2,0,1,1,-2,-1,0,-1
1514891707968161,-3,0,-1,0,-2,0,-1,0
1514891707968161,-1,-1,0,0,-1,0,0,0
1514891707982729,-1,-2,1,1,-4,-2,0,2
1514891707982729,0,0,-1,-4,-2,0,1,1
1514891707984220,0,-1,-1,0,-1,-1,0,0
1514891707984220,-2,0,-1,-1,-2,-2,-4,0
1514891708005235,-4,-3,-2,-4,-1,-3,-2,-2
1514891708005235,-4,-1,-2,-2,0,-1,1,0
1514891708007738,-2,-3,-2,0,-2,1,0,-2
1514891708007738,0,-4,-2,-1,-1,-1,0,-1
1514891708018744,1,-1,-2,-1,-1,-1,-1,-1
1514891708018744,0,-1,-1,-1,-1,-2,-2,-3
1514891708029762,-3,-2,0,-2,-1,0,-1,-2
1514891708029762,-1,-1,-3,-2,-3,-2,-1,0
1514891708042774,0,-1,1,-2,-2,-1,-4,0
1514891708042774,1,-1,-2,1,-1,-1,-1,3
1514891708044275,0,-1,-1,-2,1,-1,1,-1
1514891708044275,-1,-2,-1,2,-1,0,-2,-2
1514891708065280,-1,-2,-1,-2,0,0,-1,-2
1514891708065280,0,0,-3,2,-1,-1,0,-3
1514891708066779,-2,0,0,-1,-1,-2,-1,-1
1514891708066779,-5,-3,-1,-1,0,-2,-1,0
1514891708078787,-3,-2,-2,-1,-1,-1,1,-1
1514891708078787,0,-2,-1,-1,0,-1,0,-1
1514891708087793,0,-1,-1,-1,-2,-2,-3,1
1514891708087793,0,0,-1,-3,-1,-4,0,-2
1514891708102804,-2,-1,0,1,0,0,0,1
1514891708102804,-1,-2,0,-1,-1,-1,0,1
1514891708104305,0,0,-3,-1,0,0,-2,-1
1514891708104305,-1,2,-2,-2,-1,-2,-3,-2
1514891708125320,-1,0,-2,-2,-1,-2,-2,-1
1514891708125320,-2,-3,-3,-3,0,-1,-2,-2
1514891708126821,-1,-2,0,-1,-1,-1,-2,-2
1514891708126821,0,-1,0,-1,-1,0,1,-2
1514891708138829,0,-1,-2,-3,-1,-1,1,-1
1514891708138829,0,1,0,-1,-1,0,-3,-2
1514891708147835,-2,0,-1,-1,0,-1,-1,-1
1514891708147835,-2,-1,0,-1,-1,-1,-2,-2
1514891708162846,-1,-1,0,0,0,-3,-2,1
1514891708162846,-2,-1,2,-2,-2,-1,-1,-2
1514891708164347,1,-2,0,0,-3,0,0,-3
1514891708164347,0,-1,0,0,-2,-1,-3,1
1514891708192869,-1,-1,-2,1,-1,-2,-1,0
1514891708192869,-3,-3,-2,-1,-3,1,1,-1
1514891708195369,-2,-1,-2,0,-1,0,0,0
1514891708195369,-2,-2,-2,0,-1,-3,1,-2
1514891708198871,-1,-2,-2,-1,-1,-1,-1,0
1514891708198871,0,0,1,-2,1,-3,-2,-1
1514891708215384,-2,-1,0,-1,-1,-2,-2,0
1514891708215384,1,-2,0,-3,-2,-1,-3,-2
1514891708222889,0,-1,-2,-2,-2,0,1,-1
1514891708222889,-1,1,-5,-1,-1,0,1,0
1514891708226403,-2,-1,-2,0,-1,0,2,-2
1514891708226403,1,0,-1,-1,-2,0,0,-1
1514891708244924,-2,0,0,1,0,0,-1,-2
1514891708244924,1,-2,1,0,1,-2,-2,2
1514891708251411,-2,-2,-1,-3,-1,-3,-4,0
1514891708251411,-1,0,0,0,0,0,-2,-1
1514891708267923,-1,-1,-2,-1,-2,0,0,-1
1514891708267923,-1,0,-2,-1,-1,-2,0,-1
1514891708269422,-1,-1,-2,-3,0,-1,0,0
1514891708269422,-1,0,0,-1,-1,1,2,-2
1514891708282931,-1,-2,0,-2,-1,0,0,-1
1514891708282931,-1,-1,-1,-1,0,-1,-1,-1
1514891708284434,-1,-2,-1,0,0,0,-1,-2
1514891708284434,-2,-1,-2,-1,0,-1,-4,-2
1514891708305458,-1,0,2,1,0,-1,-2,-1
1514891708305458,-3,0,-2,-1,-2,1,-3,-2
1514891708306958,0,0,-3,0,0,-2,-1,-1
1514891708306958,0,-1,-1,-1,1,-1,-1,-1
1514891708327963,1,-1,-1,-2,-2,-2,-2,0
1514891708327963,-1,-1,0,-3,-2,-4,-1,0
1514891708329464,-1,1,-1,0,-1,-1,-1,0
1514891708329464,-2,-1,0,0,-3,1,1,-2
1514891708342486,-3,-1,0,-2,0,0,-1,-2
1514891708342486,-3,-2,-2,1,-2,-2,-2,-3
1514891708345476,0,1,-1,-2,-1,0,1,-3
1514891708345476,0,-1,-1,-1,-2,0,-1,0
1514891708365004,-1,0,0,-2,0,-1,-2,-1
1514891708365004,0,-2,0,0,0,-2,-3,-1
1514891708367000,0,-1,-2,-1,0,-1,-3,-2
1514891708367000,-1,-1,-4,-1,-1,-2,0,0
1514891708387518,-2,-2,0,-1,-1,-2,1,-1
1514891708387518,-2,1,-1,-1,1,-1,0,0
1514891708389516,-1,-2,-1,-1,-3,-1,1,1
1514891708389516,0,-2,-1,-1,-2,-2,-1,-1
1514891708402015,1,-4,-1,0,-2,-1,-4,-3
1514891708402015,-1,-2,0,-2,0,0,0,-1
1514891708409032,-1,-1,1,-2,0,0,0,-2
1514891708409032,-3,0,-1,-2,0,2,1,0
1514891708425041,-1,-1,-2,-1,-1,0,-3,0
1514891708425041,-2,0,-2,-2,0,0,-2,-1
1514891708427043,1,0,-3,-2,-2,-2,-1,3
1514891708427043,-1,0,-2,1,-1,-2,0,0
1514891708447562,0,-1,1,0,-1,0,-3,-1
1514891708447562,-1,0,-1,-1,-1,-2,-3,-1
1514891708449564,-1,0,0,0,-2,-1,-3,-2
1514891708449564,0,-1,-1,-1,-2,-2,-3,-4
1514891708462057,-1,-1,-4,-1,-2,-1,-2,-3
1514891708462057,-1,-2,-2,-2,-3,-1,1,1
1514891708469062,0,0,0,-2,-1,-2,0,-1
1514891708469062,0,-2,-1,-5,-1,-3,0,-1
1514891708493116,-1,0,1,-2,-2,-1,0,-2
1514891708493116,2,0,-1,0,-1,-2,1,0
1514891708496635,-2,1,-1,-1,-2,0,-4,0
1514891708496635,0,-2,-1,-1,-1,-1,-3,1
1514891708507627,-2,-3,-1,-2,0,-1,-3,1
1514891708507627,0,-1,-2,0,-1,1,-4,1
1514891708509628,-3,-1,-3,-2,-3,0,-2,-1
1514891708509628,-2,-1,-2,-1,-1,-2,-2,-1
1514891708522137,-1,-1,-1,0,-2,-3,2,-1
1514891708522137,0,-1,0,1,-2,-1,1,-1
1514891708528642,-2,-1,-2,1,-2,-2,1,-1
1514891708528642,-1,0,-3,-2,-1,2,0,-1
1514891708545153,-1,-3,-2,-1,0,-1,1,1
1514891708545153,-3,-2,0,-1,1,0,1,-1
1514891708547154,0,-1,0,-1,0,-2,0,-2
1514891708547154,-1,-1,1,-1,-1,-1,-1,-1
1514891708568171,-1,-1,-1,-3,-1,1,-2,0
1514891708568171,-1,-1,-1,-1,-2,-1,-3,-2
1514891708569170,0,0,-1,1,-2,-2,-2,-1
1514891708569170,-2,-2,0,-1,-1,-3,-2,0
1514891708582212,-1,2,-2,1,-1,-1,1,1
1514891708582212,-2,-1,-1,-3,-2,-1,-1,-2
1514891708588728,1,-4,0,-1,0,0,1,-2
1514891708588728,0,-1,-1,1,-2,0,0,0
1514891708605229,-2,0,0,-1,-1,-1,-1,-2
1514891708605229,-4,-2,-3,0,0,-1,-3,0
1514891708606730,1,-1,-2,-2,1,-1,-2,0
1514891708606730,-1,-3,-2,-3,0,0,-3,1
1514891708635266,-1,-3,-3,-1,-1,-2,-1,0
1514891708635266,0,0,-1,-2,-1,-2,-1,0
1514891708636764,-2,-2,-1,-1,-1,-2,-2,-2
1514891708636764,-2,-1,-2,-1,-1,-1,-2,-2
1514891708650274,0,0,0,-1,-1,-2,1,-2
1514891708650274,-1,-2,0,1,-2,-1,0,-3
1514891708651763,0,0,-2,-2,-2,-1,-1,-1
1514891708651763,1,-1,-2,-2,-1,-2,2,-1
1514891708665281,-1,-1,1,0,0,-1,0,-2
1514891708665281,0,-3,1,-1,-1,0,-1,-1
1514891708671285,-1,-2,0,-1,-1,1,-2,1
1514891708671285,-1,-1,-1,-1,0,-1,-2,-1
1514891708687788,-1,-1,-2,-3,-2,0,-2,-3
1514891708687788,-1,-1,-1,-1,0,-1,0,-2
1514891708689289,0,0,-2,-1,0,0,1,-1
1514891708689289,-1,0,-2,0,-2,-1,0,0
1514891708710312,0,-1,0,0,-1,-1,-3,2
1514891708710312,-2,-3,-1,-3,1,0,0,-1
1514891708711813,-2,-3,-1,-2,-1,-2,0,-1
1514891708711813,-1,-1,1,1,-2,-1,0,-2
1514891708725313,-2,0,-3,-1,-1,0,-2,-1
1514891708725313,-2,2,-2,-1,-1,-2,-4,-1
1514891708728816,-2,0,-1,0,-2,-2,-3,0
1514891708728816,-2,-3,-2,-2,-2,-1,-1,-1
1514891708747831,-2,-1,-1,-1,-2,-1,0,-1
1514891708747831,-1,1,-1,-1,0,-2,1,-2
1514891708749330,-2,-3,-2,-2,-2,-1,0,-1
1514891708749330,0,0,-2,0,-2,-1,-1,-1
1514891708770348,-1,-2,-1,0,-2,-1,-3,1
1514891708770348,-2,-2,-2,-3,-1,-2,-1,-2
1514891708771847,-1,1,-2,-1,-2,-1,0,-1
1514891708771847,-1,1,0,-2,-1,-1,0,-2
1514891708785356,0,-1,-2,-2,0,-2,-1,0
1514891708785356,0,-1,-2,-2,-2,-2,-4,-1
1514891708786857,-1,0,-1,1,0,0,-2,-1
1514891708786857,0,-2,-3,-2,0,-2,-3,-3
1514891708807872,-2,-3,0,2,-1,-2,1,0
1514891708807872,-1,-4,-1,1,-1,0,-1,-1
1514891708809373,-2,-2,0,-2,-2,-2,1,0
1514891708809373,0,-1,-1,1,-1,1,0,0
1514891708822383,-1,-3,-2,-3,0,0,1,-1
1514891708822383,0,-2,0,0,2,0,-1,0
1514891708830388,-2,-1,0,0,-1,-1,-1,0
1514891708830388,-1,2,-1,-2,-3,-2,-3,-3
1514891708845407,-1,1,-2,-1,1,-2,-3,-4
1514891708845407,-2,-2,-2,-2,-3,-2,-1,0
1514891708846901,0,-3,0,-1,0,-2,-2,0
1514891708846901,-1,-1,1,0,-2,-1,2,0
1514891708867931,-2,-1,-1,-2,-1,-1,-1,-1
1514891708867931,-1,1,-3,-2,-1,-2,-2,-1
1514891708869425,0,0,-3,-3,1,0,0,-3
1514891708869425,-3,0,-1,-2,0,1,1,-1
1514891708881433,-1,0,-2,-1,-2,1,1,-1
1514891708881433,-1,-3,1,0,-1,-2,-2,1
1514891708897944,-1,-2,-1,0,-1,-1,-2,-1
1514891708897944,-2,0,-2,-1,1,-3,-1,-2
1514891708912956,-1,-3,-2,0,0,-2,-1,-3
1514891708912956,-2,-2,0,-1,0,-1,-1,0
1514891708914947,0,-3,-1,-1,-1,-2,-1,1
1514891708914947,-1,-1,-2,0,0,0,-2,1
1514891708927969,-2,-1,0,0,-1,-2,0,1
1514891708927969,-1,0,-1,-2,-1,0,2,-1
1514891708929457,0,-2,0,0,-3,-3,-3,-3
1514891708929457,-1,-1,0,-1,-3,1,-2,-3
1514891708941478,0,0,-1,-2,-2,-1,-3,-3
1514891708941478,-1,0,-1,1,-2,1,-2,0
1514891708950473,-2,-1,-1,0,0,0,-1,0
1514891708950473,-1,-2,0,1,-1,-2,-1,0
1514891708964984,0,-2,-2,-1,-2,-1,0,-2
1514891708964984,-2,-1,0,0,-1,0,0,0
1514891708966985,-1,-1,-3,0,-2,0,1,-2
1514891708966985,-1,-2,0,-3,0,-1,-1,-1
1514891708988016,-1,-2,-1,-4,-1,0,-4,0
1514891708988016,-2,-2,-2,-1,-1,-1,-1,-1
1514891708989509,0,-1,-1,-2,-1,-1,0,-1
1514891708989509,1,-2,-3,1,0,-1,1,-1
1514891709001509,-2,1,0,1,0,-1,-1,1
1514891709001509,1,0,0,0,-1,1,-1,-1
1514891709010527,-2,-2,1,-2,-1,-1,-2,2
1514891709010527,-2,-1,0,-1,0,-1,-3,-1
1514891709026026,-1,-1,0,-1,-1,0,-2,0
1514891709026026,-1,-2,-2,0,-1,-2,1,-2
1514891709027527,0,-2,-1,-2,0,-3,1,-1
1514891709027527,-2,-2,-1,-3,-2,-2,1,-1
1514891709048051,-3,-3,-3,-3,-2,-1,1,-1
1514891709048051,-1,-2,1,-1,0,-1,0,0
1514891709049543,0,0,-1,-3,-2,0,-5,0
1514891709049543,-1,-2,-1,-1,-1,0,-1,-1
1514891709061554,0,-1,-1,0,-1,0,-2,-1
1514891709061554,-2,0,-3,-2,-2,0,-1,-1
1514891709070099,-2,1,-1,-1,-1,0,0,-2
1514891709070099,-1,1,-4,-1,-1,-1,-2,1
1514891709085614,-1,2,-1,-2,0,-1,0,1
1514891709085614,-3,-2,0,0,0,1,-1,-2
1514891709088612,-1,-2,0,0,0,-1,1,-2
1514891709088612,1,-1,0,0,-2,0,-2,-1
1514891709107116,-1,-3,-1,-2,-1,-2,-2,-2
1514891709107116,-1,-1,-3,-2,-2,-2,-2,-1
1514891709115625,-2,-3,-2,-1,-1,-1,2,-2
1514891709115625,-1,-2,-2,0,1,0,0,0
1514891709137637,-1,-1,-1,1,-1,-3,1,-1
1514891709137637,-1,2,-1,-1,-1,-2,-4,0
1514891709139138,1,1,0,-1,-2,0,-5,-1
1514891709139138,-2,0,0,-1,1,-2,0,-1
1514891709145142,1,0,-1,0,-1,1,-1,-3
1514891709145142,-2,-2,-2,-3,-1,0,-1,1
1514891709146644,0,-3,-3,-1,-1,0,-2,-1
1514891709146644,0,-3,-2,-2,-2,-1,-2,-2
1514891709175664,0,-3,0,0,-1,-2,1,0
1514891709175664,1,-2,-1,1,-1,-2,-1,-1
1514891709177666,-1,-1,-1,-2,-1,-1,-1,0
1514891709177666,0,0,-2,1,-2,-2,-1,-2
1514891709190685,-3,0,-1,0,0,0,1,-1
1514891709190685,0,-2,-2,-3,0,0,1,-3
1514891709192175,-2,0,-1,-1,-3,-3,-2,-1
1514891709192175,0,-1,0,-1,0,0,-2,-2
1514891709205194,0,-2,-2,0,-1,-1,-1,2
1514891709205194,-2,-1,-2,1,0,0,0,2
1514891709206686,-1,1,0,0,0,-1,0,-2
1514891709206686,-1,0,-2,-2,-2,-1,0,-2
1514891709227702,-2,-1,-2,-2,0,-3,0,-1
1514891709227702,-2,-1,-1,-3,-1,-2,1,-2
1514891709229203,0,-2,-3,-2,-2,0,1,-2
1514891709229203,-1,0,-2,0,-3,-1,-1,0
1514891709250226,-2,-2,-1,-2,0,-1,-2,1
1514891709250226,-2,-4,0,-1,-2,-1,-2,0
1514891709252719,0,-2,-1,-1,-1,-1,-1,0
1514891709252719,-1,-1,0,-2,-1,-3,1,2
1514891709265251,-1,0,-2,-1,0,-1,-3,-3
1514891709265251,-2,0,-2,0,-1,-2,-3,0
1514891709266739,-1,-1,-1,-1,-3,-1,-1,-1
1514891709266739,-2,-1,-1,-1,1,0,0,-3
1514891709287756,-1,-3,0,-3,-2,0,1,-1
1514891709287756,-1,-3,-2,-1,-2,0,-1,-3
1514891709289244,-3,-4,-1,0,-1,0,-1,-2
1514891709289244,0,-1,-4,0,-1,-3,-4,0
1514891709311269,0,-1,-1,-1,-1,-1,-2,-1
1514891709311269,1,0,1,0,0,0,1,0
1514891709313771,-1,-1,0,-1,-1,0,0,1
1514891709313771,0,0,-1,0,-2,0,-2,-1
1514891709324779,-1,-1,-1,-2,-2,0,-2,-1
1514891709324779,-2,0,1,-2,-1,-4,-3,1
1514891709332285,-1,-2,-2,-3,0,-2,0,0
1514891709332285,0,-1,-1,-1,-1,0,-1,-1
1514891709347801,-2,0,0,-1,0,-2,0,-2
1514891709347801,-2,0,-3,-1,-1,-1,1,-1
1514891709349286,-1,-1,-1,0,-1,-1,0,-1
1514891709349286,-1,-1,0,-1,-1,-2,-1,-1
1514891709370326,-1,-3,-1,-1,-2,0,-1,1
1514891709370326,-1,-1,0,-1,0,-2,0,0
1514891709371803,0,1,-3,-1,-1,0,-3,-2
1514891709371803,0,-1,-2,-3,-1,-1,-2,-1
1514891709384812,-2,-1,-3,-1,-1,-1,-2,-1
1514891709384812,-1,-3,-1,0,-1,0,0,0
1514891709391337,-1,0,-3,-2,-2,-3,0,-2
1514891709391337,-2,-2,0,-3,-2,-1,2,-2
1514891709406836,0,-1,-1,0,2,-3,-2,0
1514891709406836,1,-1,-3,-1,-2,0,-3,-1
1514891709416334,-2,-1,0,0,-3,-2,-1,-2
1514891709416334,-2,0,1,-1,-1,0,0,-1
1514891709430347,-1,-1,0,-2,0,0,0,-1
1514891709430347,0,0,-1,-2,0,-3,-2,-2
1514891709431845,0,0,-1,-2,-2,-1,1,0
1514891709431845,-1,-1,-2,-1,-1,-1,-1,-2
1514891709444366,0,-3,-2,-1,-1,0,-1,-3
1514891709444366,-1,-1,-1,-2,-1,-1,-2,-3
1514891709452859,-2,-1,0,0,-2,0,1,0
1514891709452859,1,-2,0,-3,-1,0,0,1
1514891709467871,-2,-2,-1,-2,-2,0,-3,0
1514891709467871,-1,0,-1,-2,1,-2,-3,-1
1514891709469372,-1,-1,-2,-3,0,-2,-1,-4
1514891709469372,1,1,-1,0,-2,-2,0,-2
1514891709489896,0,-2,-1,1,-2,-3,1,0
1514891709489896,-3,-1,-1,-1,0,0,-2,0
1514891709496400,-1,-2,-1,-1,-1,-2,-3,-1
1514891709496400,0,-3,-2,0,-1,0,-1,0
1514891709504898,-1,0,0,0,0,-2,-3,0
1514891709504898,-1,-1,-2,-2,-1,-3,-2,-1
1514891709511402,-1,0,-1,-2,-1,1,-1,-1
1514891709511402,-1,-1,0,-1,-3,-1,1,-2
1514891709527422,-1,0,-2,0,-1,0,1,-1
1514891709527422,-1,-1,-1,0,0,-1,2,0
1514891709533926,-1,-2,-2,-1,-1,-2,0,0
1514891709533926,-1,-1,-2,-2,-1,-2,-3,-4
1514891709550929,-1,0,-1,-2,-1,0,-3,-2
1514891709550929,-1,0,1,-1,-1,-1,-3,-3
1514891709552430,-2,0,0,-1,-1,-2,-1,-2
1514891709552430,0,1,-1,-2,0,-2,1,-1
1514891709564442,-2,-3,-1,-1,0,0,0,2
1514891709564442,-1,-2,0,-1,-1,-3,2,-1
1514891709571451,-2,-1,-1,1,-1,0,-2,-1
1514891709571451,-1,-1,-2,-1,-2,1,-3,0
1514891709587975,-1,-2,-3,-1,-2,-2,-3,-2
1514891709587975,-1,-2,-1,0,0,-1,-1,0
1514891709589457,-2,-1,-2,-1,-2,-2,-2,0
1514891709589457,-1,-3,-1,-3,-3,-1,1,-1
1514891709617978,0,1,-2,-1,-1,-2,0,1
1514891709617978,-1,0,-2,-1,-2,0,-2,0
1514891709619478,0,0,1,-3,-1,0,-2,0
1514891709619478,-1,-1,0,-1,-1,0,-1,-1
1514891709623991,-2,-1,1,-1,-3,-2,0,-1
1514891709623991,-2,-2,-2,-2,-2,-2,2,-2
1514891709632988,0,1,0,-1,-1,-1,-2,0
1514891709632988,-1,0,-3,-1,-1,-2,-1,-1
1514891709647507,-2,0,-2,0,-1,-1,-1,0
1514891709647507,0,-1,-1,-1,1,1,0,-1
1514891709649508,1,0,-1,-2,-2,-1,-1,-1
1514891709649508,-1,-1,-2,-1,-1,-2,-2,-2
1514891709670514,0,-1,-2,-1,-1,-1,-2,-1
1514891709670514,-2,-1,-2,0,-2,0,-1,-1
1514891709673016,-3,-2,-3,-1,-1,0,-1,0
1514891709673016,-3,-2,-1,0,-2,-1,-1,-2
1514891709692539,-1,-1,-2,-2,0,-1,0,-2
1514891709692539,-1,0,-1,-4,0,-2,-4,-2
1514891709694545,-1,-3,-1,-1,-1,-2,0,0
1514891709694545,-2,0,0,-1,-1,1,0,-1
1514891709707549,-1,-3,-1,-2,1,0,0,1
1514891709707549,-1,-1,0,0,1,-1,0,-1
1514891709709550,-2,2,0,-1,-2,-1,-1,-1
1514891709709550,-1,0,0,-1,0,-2,2,-1
1514891709730595,-1,0,-2,-3,-1,0,0,-2
1514891709730595,-1,-2,-2,1,-1,-2,-1,-1
1514891709732570,0,-1,-2,-2,-1,-3,-2,0
1514891709732570,-2,-1,-1,0,-1,-2,-2,-2
1514891709752581,0,-2,0,0,-1,-3,-2,-4
1514891709752581,-1,-3,-3,-1,-1,0,-1,0
1514891709754573,-1,-1,-3,-1,-1,-1,-1,-1
1514891709754573,-2,-1,-2,-1,-3,-2,0,0
1514891709767583,-2,1,0,-2,-1,-1,0,-2
1514891709767583,-1,-2,0,0,-1,-1,0,-1
1514891709769584,0,-2,-2,-1,0,-1,2,-3
1514891709769584,1,-2,0,-2,-1,-1,-3,1
1514891709789110,-2,-1,0,1,0,-1,-3,2
1514891709789110,-1,-1,-2,-1,-2,-1,-3,-1
1514891709798605,0,-1,-1,1,-1,0,-2,-3
1514891709798605,-1,-1,-1,-1,-3,-2,-1,-1
1514891709804109,-1,-1,-2,-2,0,-1,2,1
1514891709804109,-3,-1,-1,-2,0,0,1,-3
1514891709812614,-1,-2,-1,-2,-1,-1,3,-2
1514891709812614,0,0,0,-1,-1,-1,-2,-2
1514891709827625,-1,-2,-1,-1,-1,-2,-1,-3
1514891709827625,0,-1,-1,-1,-2,-1,-1,0
1514891709829138,-2,-2,-2,-1,-1,0,-2,-1
1514891709829138,-1,1,0,-2,1,0,-3,-2
1514891709850155,-1,-1,0,0,-1,1,-2,0
1514891709850155,-1,-1,-1,-2,-2,-2,-6,-3
1514891709851643,1,0,0,0,-1,0,0,0
