timestamp,emg1,emg2,emg3,emg4,emg5,emg6,emg7,emg8
1512357039441062,-1,-3,-3,-1,-1,-1,0,1
1512357039441062,-4,-2,-3,-2,0,-2,-1,-1
1512357039442044,0,3,0,-1,0,-1,-2,-2
1512357039442044,0,0,-1,0,-4,-1,0,-3
1512357039456055,-1,-1,-1,0,-2,-1,-1,-1
1512357039456055,0,0,0,0,0,-1,-2,1
1512357039457056,0,-3,-2,-1,-1,-1,0,0
1512357039457056,1,2,0,-1,-3,0,-1,0
1512357039479094,-5,-4,-3,-1,-1,-3,-1,-3
1512357039479094,2,0,-1,-1,-2,-1,-2,-2
1512357039479094,-2,-1,0,-1,-2,-2,-3,-2
1512357039479094,1,-1,-1,0,-1,-2,0,-1
1512357039501086,0,1,-1,-1,1,-1,-2,-1
1512357039501086,-2,1,0,0,1,-1,0,0
1512357039502090,-2,-3,0,0,-1,-1,-1,-1
1512357039502090,0,0,-1,-1,-1,-1,-1,-1
1512357039516109,4,0,-1,0,-2,-1,-1,0
1512357039516109,-4,-5,-2,-3,-3,0,0,-1
1512357039517098,2,2,-2,-1,-1,-1,-1,1
1512357039517098,-5,-1,-1,0,-1,-2,-2,-2
1512357039538126,-1,-1,-1,0,-2,1,-1,-1
1512357039538126,2,0,-1,0,0,-3,1,0
1512357039539113,-4,-4,-2,-1,-1,-1,-2,0
1512357039539113,0,-2,-3,-1,-1,-3,-1,-1
1512357039561141,-1,1,1,-1,-1,-1,-2,-1
1512357039561141,0,1,0,-2,0,-1,-1,-1
1512357039562147,-1,2,-1,-1,-3,-1,0,0
1512357039562147,-5,-4,-2,0,-2,-1,-3,-2
1512357039576144,-1,-2,-1,-1,0,-2,0,-2
1512357039576144,1,-2,-1,-1,-1,-4,-1,0
1512357039577151,0,-1,1,-1,0,-1,-2,-1
1512357039577151,-1,1,0,-1,-2,-1,-1,-1
1512357039598179,-2,-3,-1,-1,0,-1,0,-3
1512357039598179,0,-2,-1,-1,-2,1,1,-2
1512357039599180,0,0,-1,-1,-2,-2,-1,-1
1512357039599180,0,-1,0,-1,1,-1,-1,-2
1512357039621195,0,1,-1,-1,0,1,-1,1
1512357039621195,-5,-3,-1,-1,1,-1,-1,0
1512357039622172,1,-2,0,0,0,-1,-1,0
1512357039622172,-1,-1,1,-1,-2,0,-1,-1
1512357039636183,0,-1,-2,-2,-3,-1,1,1
1512357039636183,0,1,-3,0,-3,0,-2,-2
1512357039637183,-3,-3,-2,-1,-1,0,-1,-1
1512357039637183,-2,-1,-2,-2,-1,-1,-2,-1
1512357039658215,1,2,-2,-1,-1,0,-3,-1
1512357039658215,-5,-3,0,1,-2,1,-1,-2
1512357039659216,0,-2,0,-1,0,-2,-2,-1
1512357039659216,2,0,-1,1,-2,-1,-1,0
1512357039682214,-3,-2,-1,-2,-2,-1,-2,0
1512357039682214,0,1,0,-2,-1,0,-2,-4
1512357039682214,-2,-1,0,-2,-2,-1,-1,-2
1512357039682214,-1,-2,0,-1,-1,0,0,-2
1512357039696224,0,-2,-1,-1,-1,-1,-1,-1
1512357039696224,1,1,-2,-1,-2,-1,-1,-3
1512357039697224,-1,-2,-1,-1,0,0,1,0
1512357039697224,1,-2,0,-2,0,-3,1,0
1512357039718254,-4,1,0,-2,1,-2,-2,-1
1512357039718254,-1,-3,1,-1,-1,0,-1,1
1512357039719241,-4,0,-1,-1,-4,-1,-1,-2
1512357039719241,2,-2,0,1,-1,0,-2,0
1512357039742271,-2,-1,-1,0,1,0,-3,0
1512357039742271,-1,-1,0,-1,1,-2,0,0
1512357039742271,2,2,-1,0,0,-2,-1,-1
1512357039742271,-4,0,0,-2,-1,0,-2,0
1512357039755266,-2,-5,-2,0,-1,-2,-1,-2
1512357039755266,0,0,-2,-1,-1,-1,0,1
1512357039763336,-2,-4,-2,1,-2,0,1,-2
1512357039763336,0,0,0,-2,-2,-1,-2,-1
1512357039778302,-1,-1,-1,-1,-1,-2,-1,0
1512357039778302,-1,0,-3,-1,1,-1,-3,-3
1512357039779283,1,1,-1,0,1,0,-1,-1
1512357039779283,-1,-1,-2,-1,-2,0,-2,1
1512357039801318,0,-1,-2,-1,-1,0,0,-1
1512357039801318,-4,-2,-1,-1,-3,-3,-1,-1
1512357039802299,-2,0,0,-4,-1,-2,-2,2
1512357039802299,-2,-2,-2,0,-1,-3,0,1
1512357039815319,2,-3,0,-2,0,-1,0,-2
1512357039815319,0,2,-1,0,-1,-1,0,0
1512357039831319,-3,-4,-1,-1,-1,0,-1,-3
1512357039831319,-3,-1,-1,-2,-1,-1,-2,0
1512357039838339,0,0,-2,0,-1,-1,0,-1
1512357039838339,-2,-4,-2,-2,0,1,0,-2
1512357039839325,-1,-3,-2,-2,-3,-2,0,0
1512357039839325,-2,-1,-2,0,-1,1,0,0
1512357039861351,-3,-4,-2,0,-1,-1,0,-4
1512357039861351,0,1,1,0,-2,0,-2,-1
1512357039862343,0,0,-2,0,-2,0,1,0
1512357039862343,0,0,-1,-3,-1,-2,0,0
1512357039875359,-1,-1,-2,-2,-1,0,-3,1
1512357039875359,-2,0,-1,-1,1,-3,-3,-1
1512357039883370,0,-1,0,-1,-2,-1,-1,-1
1512357039883370,-2,-2,0,0,0,-1,-1,-1
1512357039898392,2,0,-1,-2,-2,1,0,0
1512357039898392,-2,-2,0,-1,-1,-1,-1,-1
1512357039899368,-2,-1,0,-1,1,-2,-1,0
1512357039899368,0,1,-1,-1,-2,-2,-1,-1
1512357039921389,-3,0,0,0,-1,-1,1,0
1512357039921389,-1,-4,-1,-1,-1,-2,1,0
1512357039922390,1,1,-1,-2,-2,-2,-1,-1
1512357039922390,1,2,-1,0,1,-1,-2,-1
1512357039935395,-5,-6,-2,-2,-1,0,-1,-1
1512357039935395,1,1,-1,-1,-3,-1,-1,-3
1512357039943401,-3,0,0,-1,0,-1,-1,-2
1512357039943401,-1,-4,-1,-3,-2,1,-1,-1
1512357039958409,0,0,0,1,-2,-2,-4,-1
1512357039958409,0,-2,-2,-1,0,0,0,-1
1512357039959410,-1,0,-3,-1,0,-1,1,-1
1512357039959410,-1,0,-1,-1,0,-3,-1,0
1512357039981448,-1,0,0,0,0,-1,-2,-1
1512357039981448,-3,-2,-1,-1,-2,1,0,-1
1512357039982427,0,-1,0,0,-2,0,-2,-2
1512357039982427,-3,-1,-2,-2,-1,-2,2,0
1512357039995435,-1,-2,1,-2,-1,2,0,-2
1512357039995435,-1,-1,0,-1,1,0,0,0
1512357040003441,0,0,-2,-3,-1,-1,0,0
1512357040003441,-2,-3,-1,-2,-1,-2,0,-2
1512357040018482,5,0,0,0,-1,-2,-2,0
1512357040018482,-4,3,-2,-2,0,0,-1,0
1512357040019455,-2,0,0,-3,0,0,0,0
1512357040019455,-2,-3,-1,-1,-1,0,0,-1
1512357040041485,-1,-3,-2,-2,-2,-2,0,-1
1512357040041485,3,-2,-1,-2,-2,-2,-1,0
1512357040042471,-3,-2,-2,-1,-1,0,-2,-2
1512357040042471,1,1,-1,0,-1,0,-3,-2
1512357040055497,0,3,0,0,0,-2,-1,-2
1512357040055497,0,-2,-1,-1,-2,1,-1,0
1512357040063494,-1,0,-2,-2,-1,-2,-1,2
1512357040063494,0,-2,-3,1,-1,-1,0,-3
1512357040078494,-2,0,-1,-1,-1,-1,-1,-1
1512357040078494,-1,-2,-1,-1,-3,-3,-1,-2
1512357040079496,0,-2,0,1,-2,-2,-1,-1
1512357040079496,0,-2,0,-1,-1,0,1,-1
1512357040101511,-2,0,-2,-2,0,-1,-1,-1
1512357040101511,0,-2,-3,-1,-2,0,0,-1
1512357040102512,0,-2,0,-2,-2,-1,-2,1
1512357040102512,-2,-2,0,-1,0,-1,0,-1
1512357040124540,1,0,-1,-2,-1,-1,-1,-2
1512357040124540,-1,-4,0,-1,0,-1,-1,-2
1512357040125527,3,-2,1,0,0,-2,-2,-1
1512357040125527,-1,0,-2,-3,-2,-1,-1,0
1512357040138555,0,-1,0,-1,-3,-2,-1,-2
1512357040138555,-4,0,-1,0,0,-2,-1,0
1512357040139556,-5,-1,0,-2,-2,0,1,-1
1512357040139556,1,-1,-1,-2,0,0,0,-1
1512357040161571,-1,-1,-2,-2,-1,-1,-2,-3
1512357040161571,0,0,-2,-2,1,-2,-1,-1
1512357040162553,-1,-2,-2,-1,-2,-1,-2,0
1512357040162553,-2,-1,1,-1,-1,-2,-2,0
1512357040184580,-2,0,-3,-2,0,0,-2,0
1512357040184580,-2,-2,-1,0,-2,-1,1,-1
1512357040184580,1,0,-1,-2,-2,-1,0,-2
1512357040184580,-2,-1,-1,-1,-2,0,-2,-1
1512357040198579,-3,-1,-1,-1,0,-2,0,-2
1512357040198579,1,0,0,-2,-1,1,0,1
1512357040199579,-3,0,-1,-1,-1,-3,-1,-2
1512357040199579,-2,-1,-2,0,0,-1,-2,-2
1512357040221633,-3,-1,-2,-1,0,-2,-2,0
1512357040221633,1,0,-2,-1,-1,-1,-1,1
1512357040222597,0,-2,0,-2,-2,-1,0,-2
1512357040222597,-1,0,0,-1,-2,0,-1,-1
1512357040244611,-1,0,1,-1,-1,-1,0,-2
1512357040244611,0,-1,-1,-1,1,0,-1,-1
1512357040244611,-6,-3,-4,-1,-1,-1,0,-1
1512357040244611,-1,-4,-1,0,-1,-2,-1,-2
1512357040258636,-2,-2,-2,-2,-1,-2,-2,-1
1512357040258636,0,1,-1,-2,-3,0,-2,2
1512357040259622,-3,-2,-1,-1,-1,-1,0,-1
1512357040259622,0,-1,-1,-1,-2,-2,-1,-1
1512357040281654,0,-1,-1,-1,-1,0,-1,-1
1512357040281654,0,-1,1,-1,-2,-1,-1,-3
1512357040282648,-1,2,0,0,-2,0,0,1
1512357040282648,-3,-3,-2,-2,-1,-1,-2,-1
1512357040304654,-1,-3,0,-1,-2,0,0,-1
1512357040304654,-4,-2,-1,-1,1,-2,-2,-2
1512357040304654,2,-1,1,0,-1,-2,0,-3
1512357040304654,1,1,0,0,1,-2,0,-1
1512357040318663,-1,-2,-3,1,-2,-1,0,-2
1512357040318663,-1,-1,-2,-2,-2,-1,-2,-2
1512357040319664,0,-1,-2,-1,0,0,0,-2
1512357040319664,-1,-1,-1,0,0,-1,-2,0
1512357040341734,0,0,-1,-1,-3,0,-2,-2
1512357040341734,-3,-1,-2,0,0,-2,-1,-2
1512357040342684,1,0,-1,0,-2,-1,-2,1
1512357040342684,-1,1,0,0,-2,-2,0,0
1512357040364699,-4,-2,0,-1,1,1,-2,0
1512357040364699,3,2,-1,-1,-1,0,-1,1
1512357040364699,-4,-7,-2,-2,-1,-1,-3,-1
1512357040364699,-1,-3,-2,0,-2,-1,-2,-3
1512357040378726,-3,0,-1,-3,-2,-1,-1,0
1512357040378726,0,-1,0,1,-1,0,-1,-1
1512357040379726,1,1,-2,2,0,0,0,-1
1512357040379726,-1,1,-2,-3,-2,0,-1,-1
1512357040401733,-3,0,-2,-1,0,-3,0,0
1512357040401733,-1,-2,-1,-1,-2,-1,-1,-3
1512357040402733,1,-3,-2,-1,-1,-1,-1,-1
1512357040402733,-2,-2,0,0,-2,0,-3,-1
1512357040424738,2,1,-2,1,-3,-1,0,-3
1512357040424738,-5,-3,-2,-2,-2,-1,0,-2
1512357040425739,3,1,1,-1,0,-1,0,-1
1512357040425739,0,-3,-1,-1,-2,-1,2,-1
1512357040438769,-1,-5,0,-1,1,-3,-2,0
1512357040438769,-3,-2,-2,-1,-2,-3,-1,0
1512357040439749,0,-1,-2,-2,-2,-1,-2,0
1512357040439749,0,1,-1,-1,-1,0,-1,-1
1512357040461769,-3,-2,-2,-1,-2,-1,-2,-2
1512357040461769,1,0,-2,-2,-3,-1,-1,-1
1512357040462766,-4,0,0,-1,-1,-3,-1,-1
1512357040462766,1,-1,-1,-2,-1,-3,-1,-1
1512357040483789,-1,0,0,-1,-1,-1,-2,1
1512357040483789,0,-4,-2,-2,-1,0,-1,1
1512357040484790,-3,-2,-1,-1,-1,1,-1,-2
1512357040484790,-1,0,1,-2,-1,-3,0,-2
1512357040498802,-1,1,-2,1,-1,-2,0,-2
1512357040498802,1,0,0,1,0,-3,-3,-1
1512357040505810,0,1,-1,0,-2,-2,-2,1
1512357040505810,-3,-3,-2,-1,0,-1,1,1
1512357040521833,-1,-1,-1,0,-1,2,-2,-1
1512357040521833,0,-2,0,-1,1,1,1,-2
1512357040522822,-6,-1,-1,-1,-1,-1,-2,0
1512357040522822,-1,0,-1,-1,-2,-1,-2,-2
1512357040543844,3,-1,-1,-1,-1,-1,0,-1
1512357040543844,-2,-1,-1,-2,-1,-1,-2,-1
1512357040544844,0,-2,-2,-2,-2,-1,0,0
1512357040544844,-1,-1,-1,-1,-1,0,-2,1
1512357040558849,-4,-5,-1,-2,-1,-1,-2,-1
1512357040558849,-2,-2,-2,-1,0,-2,-2,-2
1512357040559833,3,1,0,0,0,-1,0,0
1512357040559833,-2,-1,-2,-1,-1,-2,-1,-1
1512357040581929,0,0,-1,-2,0,0,0,-1
1512357040581929,-1,-1,-2,-1,-3,-2,-3,-2
1512357040582931,-1,0,-2,-1,-3,-1,-2,-2
1512357040582931,-1,0,-2,-1,-1,-1,0,0
1512357040603964,-3,-2,0,-2,0,-1,0,-2
1512357040603964,-1,0,0,-1,1,1,-2,-2
1512357040604937,-4,-2,0,-2,-2,-3,0,-2
1512357040604937,2,-2,0,-2,-3,-1,0,0
1512357040626954,-2,0,0,-1,-3,-2,-2,0
1512357040626954,1,-2,-3,-2,0,0,-1,-1
1512357040627952,1,-1,-1,-3,-2,-2,-2,-2
1512357040627952,-1,-1,0,-1,0,-2,-2,-2
1512357040641982,-3,-3,-1,-1,-1,0,-1,-1
1512357040641982,0,-1,-2,-1,-1,0,0,0
1512357040641982,-2,0,-2,-1,-2,-1,-1,-1
1512357040641982,1,-1,-2,-2,-2,-2,0,-2
1512357040663981,-1,2,0,-1,-1,-2,0,-1
1512357040663981,-2,-1,-1,2,-1,-1,1,0
1512357040664978,0,-2,-1,-1,-1,-3,-3,0
1512357040664978,-2,-1,-1,0,-1,1,-1,-2
1512357040678002,0,0,-2,-2,-1,1,0,0
1512357040678002,1,-3,-1,-1,2,-1,-1,1
1512357040686007,-2,-1,-1,-1,1,1,1,-1
1512357040686007,-2,2,-1,0,-3,0,-2,-1
1512357040701055,1,-3,-1,-1,-1,-1,0,0
1512357040701055,-4,-1,0,-2,-1,0,-1,0
1512357040709026,1,-1,-2,-1,-2,0,-1,-1
1512357040709026,1,-3,1,-1,0,0,1,-3
1512357040724037,0,0,-2,-1,-1,1,-1,-2
1512357040724037,0,0,-2,0,-3,0,1,1
1512357040725020,-1,0,0,0,-2,-1,1,0
1512357040725020,-4,-2,-2,0,0,-1,0,-1
1512357040738039,-1,-2,-1,-2,-1,-2,0,-2
1512357040738039,-2,-2,-2,0,0,0,-1,-3
1512357040746045,-1,1,-1,-2,-1,-3,-1,-1
1512357040746045,2,-1,-1,-1,-1,0,-2,-1
1512357040762047,0,-3,-2,0,1,-2,-2,0
1512357040762047,-4,-1,-2,-3,-2,-1,-1,-2
1512357040762047,-3,-1,-2,0,-3,1,-1,1
1512357040762047,-1,-1,-1,-1,1,-1,-1,-1
1512357040784074,1,0,0,-1,-1,-2,-1,-1
1512357040784074,-1,2,0,0,0,-2,0,-2
1512357040785068,0,-4,-1,-1,0,-1,-2,-1
1512357040785068,-2,-3,-1,-1,-1,-2,-1,1
1512357040798097,-2,1,-2,0,-1,0,-3,-1
1512357040798097,0,0,0,-1,-3,-4,-1,-1
1512357040806102,0,0,2,-1,-1,0,0,0
1512357040806102,-3,-3,-3,-1,-2,-2,2,-2
1512357040822114,-3,-2,-2,-1,1,0,-3,-2
1512357040822114,1,-1,-2,-1,-1,0,-2,-1
1512357040822114,0,-1,-1,1,-1,-2,-2,-2
1512357040822114,-2,-2,0,-2,-1,-2,-1,-1
1512357040844105,1,0,-2,-3,-2,-2,-1,-1
1512357040844105,-5,-1,-1,-1,0,0,-1,0
1512357040845105,4,0,0,-2,-1,0,0,-2
1512357040845105,1,1,-2,-1,-1,-1,-1,0
1512357040858166,-1,0,0,-1,-1,-3,-1,2
1512357040858166,-2,-4,-3,0,-3,-1,-1,0
1512357040866134,-5,-2,-1,-1,-1,0,0,-2
1512357040866134,1,1,-1,0,-1,-1,-2,-1
1512357040882141,-1,2,0,0,-1,0,-3,-3
1512357040882141,2,-2,-1,-1,0,-2,0,0
1512357040882141,-1,-1,-1,-1,-2,-1,-1,0
1512357040882141,-1,-3,-1,0,-1,0,-2,-1
1512357040904161,-3,1,-1,0,-1,-2,-1,0
1512357040904161,1,0,0,-1,-2,-2,-2,-1
1512357040905157,-1,-2,-1,-1,0,-3,0,-2
1512357040905157,-4,-2,-1,0,-1,0,-1,-1
1512357040918177,1,-1,-3,-2,-1,-1,1,-3
1512357040918177,0,0,-1,-1,-1,-2,0,-2
1512357040926172,-1,0,-2,-2,0,0,-1,0
1512357040926172,-4,0,-1,-1,-1,-2,-1,0
1512357040941194,4,0,0,-2,0,0,0,-1
1512357040941194,2,-2,-3,-4,0,-2,-1,-3
1512357040942182,-6,-4,0,-2,0,-1,0,-2
1512357040942182,-1,-2,0,-1,-2,-1,-1,-1
1512357040964199,-3,-1,-1,-1,0,0,-2,-2
1512357040964199,0,-1,0,1,-1,-1,-1,2
1512357040965190,0,1,-2,-2,-2,-1,0,-2
1512357040965190,-2,-2,-1,-1,-1,1,-2,-4
1512357040978199,-3,-4,-1,-1,0,-1,-1,-2
1512357040978199,0,-1,-1,0,-1,-1,-1,-1
1512357040986216,-2,-1,-2,-1,-1,1,-1,1
1512357040986216,-2,2,0,-2,-1,-1,1,-1
1512357041001235,2,0,0,0,0,-2,-1,0
1512357041001235,-7,-2,-1,-1,0,0,-1,-3
1512357041008240,0,-1,-1,-1,-3,-1,0,1
1512357041008240,1,2,-1,-3,1,0,-1,0
1512357041024262,-2,-1,-1,-1,-2,-2,-2,1
1512357041024262,-3,1,0,-1,-1,-1,-1,1
1512357041026243,3,1,-2,0,-1,-2,-1,-1
1512357041026243,-4,-4,-1,-1,-2,-2,1,0
1512357041046256,0,-3,-1,-1,-2,0,1,0
1512357041046256,2,2,-1,0,-1,-1,-1,1
1512357041048256,-2,1,-1,-1,-3,-1,-1,-1
1512357041048256,-1,-4,-2,0,-2,-1,-1,0
1512357041061267,-3,0,-1,-1,-1,-2,-2,1
1512357041061267,-2,1,-2,0,-1,-1,0,1
1512357041068265,-1,-1,0,-1,-1,-2,-1,-1
1512357041068265,-1,0,0,-1,0,-2,-2,-1
1512357041084286,0,-3,-3,-2,-3,-1,-1,-1
1512357041084286,-1,-3,0,-1,-2,-1,-4,-1
1512357041086295,1,-2,-2,0,-1,0,-2,0
1512357041086295,-1,-2,-1,-2,-1,0,0,-1
1512357041106313,-2,0,-1,0,0,0,0,-1
1512357041106313,-2,-1,-1,-1,-2,-3,1,-1
1512357041108300,-3,-3,-2,-1,-1,-2,-3,0
1512357041108300,1,-1,0,0,-2,0,-3,-3
1512357041121303,0,2,-1,0,-1,0,0,-3
1512357041121303,3,-1,0,-1,-2,-1,-1,-2
1512357041128305,-2,-3,0,0,0,-2,0,-1
1512357041128305,1,1,0,-1,0,-1,-1,0
1512357041144328,-4,-3,-1,-2,-3,-2,-1,-1
1512357041144328,0,-3,-2,-2,-1,0,-2,0
1512357041145329,-1,2,0,-2,-1,1,0,0
1512357041145329,-1,1,0,-1,-1,0,-1,0
1512357041166331,2,-3,-1,-2,-1,0,-1,-2
1512357041166331,-4,0,-2,-2,-1,-1,-2,-2
1512357041168332,2,-1,-2,-2,0,-1,0,-1
1512357041168332,-2,-1,-1,0,-1,-2,-1,-2
1512357041181342,0,1,-1,2,-1,0,-1,0
1512357041181342,-1,-2,-1,0,-2,-1,0,-3
1512357041188362,-2,-2,-2,0,-2,1,-1,-3
1512357041188362,1,0,-2,1,-2,-1,-1,1
1512357041204412,0,0,0,-1,-1,-1,-1,-1
1512357041204412,-1,-2,0,-1,-2,-1,0,0
1512357041205383,-2,-2,-2,0,-2,-3,0,0
1512357041205383,1,0,-2,-2,0,1,0,-2
1512357041234391,-3,-2,-2,0,-1,-2,-1,-2
1512357041234391,1,0,-1,-1,-1,-1,-2,-1
1512357041235392,0,0,1,0,-2,-1,-1,0
1512357041235392,-2,-1,-1,-1,-3,-1,-1,-1
1512357041241404,-1,-1,-1,-1,-3,-3,-2,0
1512357041241404,-2,0,-1,-1,-1,-1,0,0
1512357041247398,1,-1,0,-2,-1,-1,0,-1
1512357041247398,-4,0,0,-1,1,-3,-1,-1
1512357041264400,0,-4,-1,-2,-1,0,0,-1
1512357041264400,0,-2,0,0,0,0,0,1
1512357041265411,0,1,0,0,-2,-2,-1,2
1512357041265411,-3,-1,-1,-2,-2,-1,1,0
1512357041286441,-2,-4,-1,0,-1,-1,-2,-1
1512357041286441,2,0,-2,-1,-2,-1,-2,-2
1512357041288465,-1,-2,0,-1,-1,-1,-1,0
1512357041288465,1,-1,-1,0,-2,-1,-1,-1
1512357041301466,0,2,-1,-1,-1,-1,-2,-1
1512357041301466,-2,-2,-1,0,-2,-1,1,-1
1512357041307479,-1,-2,-2,0,-2,-1,-3,-2
1512357041307479,0,1,-2,-1,-1,-2,-2,0
1512357041324524,-3,-2,-3,-2,-1,-2,-1,-2
1512357041324524,4,0,-1,0,1,-1,-1,0
1512357041325523,-2,0,-1,-1,0,-3,-1,-2
1512357041325523,-2,-3,-2,0,-1,0,-1,0
1512357041345494,0,0,0,-2,0,-3,-2,-1
1512357041345494,-6,-1,-1,-1,-2,-1,-1,-2
1512357041354491,-2,-1,-2,-1,-1,1,0,-1
1512357041354491,0,-4,-2,-2,-1,0,-1,-3
1512357041361506,-4,-1,-1,1,0,1,0,-1
1512357041361506,2,0,-1,-2,-1,1,-1,0
1512357041367501,-1,0,-1,-1,-2,-1,-1,-1
1512357041367501,3,1,0,-2,-2,-1,1,-1
1512357041384522,-1,-4,0,-2,-2,-2,-1,0
1512357041384522,-2,-1,-2,-3,-1,-2,-4,0
1512357041385523,1,1,-3,-1,-1,-2,-1,0
1512357041385523,-2,2,-3,-1,1,-1,-1,-1
1512357041406529,1,-3,-1,-1,0,0,0,0
1512357041406529,-3,-1,-1,0,-1,-2,1,-1
1512357041408528,-1,-3,0,-1,-1,0,0,-1
1512357041408528,-1,-3,1,-1,-2,-3,-1,-1
1512357041421558,0,0,-2,-3,-2,0,-2,-2
1512357041421558,-1,-1,0,-2,0,-1,0,-1
1512357041427542,0,-1,1,0,-2,0,0,0
1512357041427542,-2,-5,-2,1,0,-1,0,-1
1512357041444575,-1,1,-2,-1,-2,-2,-2,-4
1512357041444575,-1,-3,0,-2,1,0,0,-1
1512357041445554,-1,-2,-1,-3,-2,-2,-2,-4
1512357041445554,-3,0,-1,-2,-2,0,-1,0
1512357041466591,0,0,-3,-1,1,-2,-2,0
1512357041466591,-5,0,-2,0,-1,0,-2,-1
1512357041468570,3,-2,0,0,0,-1,0,1
1512357041468570,-2,-2,-2,-2,-1,-1,-1,-2
1512357041480579,-1,-1,-1,0,-1,-2,-1,0
1512357041480579,-2,-2,-3,-1,-2,-2,-1,-1
1512357041487593,-3,0,-1,-1,-1,-1,-1,0
1512357041487593,0,2,0,0,-1,0,-2,-2
1512357041511610,1,-1,0,0,-3,-1,-1,1
1512357041511610,0,0,-1,-1,-1,-2,0,-1
1512357041513611,-3,-3,-2,0,-1,0,0,0
1512357041513611,-2,-2,-2,-3,-2,0,-1,-1
1512357041526614,2,1,0,-2,-2,1,-1,0
1512357041526614,1,-1,-1,-1,-1,0,-2,-1
1512357041528613,-2,0,-1,0,-2,-2,-2,-1
1512357041528613,0,0,-1,-2,-2,-1,-2,-2
1512357041540676,-4,-2,-1,-1,-1,-1,-1,-1
1512357041540676,-2,-2,-2,0,-1,0,-1,-1
1512357041549640,-3,-2,0,0,0,-1,-2,0
1512357041549640,0,-4,0,-2,0,-2,-1,-1
1512357041564638,-2,-1,-1,-2,-2,0,-1,0
1512357041564638,-3,-1,-1,-2,-3,-1,-2,-1
1512357041565638,-3,-1,-2,-2,-1,-1,0,-1
1512357041565638,0,0,-1,0,0,-1,0,0
1512357041586662,2,-3,-1,-1,0,0,-1,1
1512357041586662,-1,-1,-3,-1,1,-2,-1,-1
1512357041588664,-2,-2,-3,-1,-1,-2,0,-2
1512357041588664,0,-1,0,1,-1,1,-1,-2
1512357041600673,-3,-2,0,-2,0,-1,-1,-3
1512357041600673,1,0,0,-1,-1,-1,-3,1
1512357041609680,-4,-5,-2,-1,-1,-1,-1,-1
1512357041609680,2,-2,-1,-1,-1,-1,-2,-2
1512357041624680,-2,-2,0,-2,-1,-1,-1,-2
1512357041624680,-2,1,-1,-1,-3,0,0,-1
1512357041625681,2,-1,0,-2,-3,0,-1,1
1512357041625681,-2,1,0,1,-1,-2,-1,1
1512357041646709,-1,1,-1,0,-2,0,0,0
1512357041646709,-1,-4,0,0,-2,-2,-1,-1
1512357041648710,-3,1,-3,0,0,-1,0,0
1512357041648710,-2,-2,-1,-2,-1,-2,-1,-1
1512357041660716,-1,-3,-1,-1,-1,-2,-2,-2
1512357041660716,-1,-4,-1,-2,-1,-1,-1,0
1512357041669712,0,-1,-1,-2,-1,1,-1,-2
1512357041669712,1,0,-2,-1,-1,-1,0,-1
1512357041683762,-5,0,-2,0,0,-2,-2,-2
1512357041683762,-1,-2,-3,-1,-2,-4,0,0
1512357041685753,-1,0,0,0,-1,0,-3,-1
1512357041685753,1,0,-1,0,-1,-3,-1,0
1512357041706792,1,-1,-1,-2,-1,-2,1,-2
1512357041706792,-1,0,1,0,-2,-1,1,0
1512357041708787,-2,-1,-1,0,-2,-1,0,-2
1512357041708787,-2,-3,-2,-3,-1,0,-1,-3
1512357041720793,0,1,-1,-1,-2,0,-3,0
1512357041720793,-1,0,0,-1,-1,-2,-3,-1
1512357041729795,-2,1,0,-1,0,-2,-1,-1
1512357041729795,0,-1,-1,1,-1,-1,-1,0
1512357041743818,-2,-2,-1,-2,-1,-1,0,-2
1512357041743818,-1,-1,-2,0,-1,-1,0,1
1512357041745797,0,-1,-1,-2,-1,0,-4,0
1512357041745797,-4,1,0,0,0,-1,-2,-1
1512357041766819,-1,-4,-1,0,-1,-1,-2,1
1512357041766819,1,0,0,0,-1,-1,0,-2
1512357041772843,-1,-1,-1,-1,0,-1,0,-3
1512357041772843,-1,-1,-4,-2,-2,-2,0,-2
1512357041780831,-2,1,0,-1,0,0,1,-1
1512357041780831,0,-2,-2,-1,-1,0,-2,-2
1512357041788828,1,-2,-1,-1,-1,-2,-1,0
1512357041788828,-2,-1,0,0,-1,1,-1,0
1512357041803859,-2,-2,-3,-2,0,-3,-1,0
1512357041803859,-2,-2,-3,-1,-2,0,-2,-1
1512357041805839,-2,-1,-1,0,-1,-2,0,-2
1512357041805839,1,-1,-2,-3,-3,-1,-1,-1
1512357041826856,0,-1,-3,-1,-1,-1,0,-2
1512357041826856,-1,-2,-1,-2,0,-2,-1,0
1512357041827854,0,-1,-1,-2,-2,-2,-2,1
1512357041827854,-1,-2,-1,0,0,0,-1,0
1512357041840876,1,-2,-1,0,-2,0,-1,0
1512357041840876,-2,-2,-2,-2,-1,0,-1,-1
1512357041848893,-3,-2,0,0,-1,1,-1,-2
1512357041848893,-2,-1,-1,-2,-2,-1,-1,-1
1512357041863883,-2,1,-2,0,0,-2,2,1
1512357041863883,1,0,-2,-1,0,-2,1,-1
1512357041865882,-2,-1,1,-2,-2,-1,1,0
1512357041865882,0,-4,-1,-1,0,1,-2,-1
1512357041886911,-3,1,-1,-2,-2,1,-2,-3
1512357041886911,-2,-3,0,-2,0,-1,1,-2
1512357041887919,2,-1,-2,-1,-1,-2,-1,-1
1512357041887919,-5,-1,0,-1,-2,1,-3,0
1512357041899905,-1,-1,-1,-2,0,-2,-2,-1
1512357041899905,1,0,1,-1,-2,-1,-1,1
1512357041908947,-4,-1,-2,-3,-1,-1,-1,-1
1512357041908947,1,0,0,0,-1,-1,-1,-2
1512357041923978,0,-3,-1,-1,-1,-1,-3,-1
1512357041923978,-2,-2,0,-1,-1,0,0,-2
1512357041925924,0,-2,-2,0,0,-2,0,0
1512357041925924,-2,1,-1,0,-1,-4,0,-3
1512357041946955,-2,1,-3,0,-1,0,-1,-2
1512357041946955,-3,-3,-2,-1,0,-2,0,-1
1512357041947956,2,0,0,-3,-1,-1,-2,-1
1512357041947956,-1,-1,-1,-3,0,-1,1,-1
1512357041959990,-1,-2,1,-2,-1,-2,-1,-1
1512357041959990,0,2,-1,1,-1,2,-2,-1
1512357041968968,-3,-4,-1,1,0,-1,-1,-1
1512357041968968,0,0,-2,-2,-1,0,-3,0
1512357041983973,-1,-3,0,0,-2,0,-2,1
1512357041983973,0,-1,-1,0,-2,-1,-2,-1
1512357041985975,-2,0,-2,-1,-2,-1,0,-2
1512357041985975,1,-2,-1,0,-1,-1,-1,-2
1512357042007043,-1,-1,-1,-1,1,-1,-1,0
1512357042007043,-2,0,-1,-1,0,-2,-1,-1
1512357042008025,0,1,0,0,-2,1,-1,-1
1512357042008025,0,-1,-1,-1,-1,-1,0,0
1512357042029102,-2,-3,0,-2,-1,-1,0,-2
1512357042029102,-2,-3,-2,-2,-1,-2,0,-1
1512357042032042,-1,-2,-1,-2,0,-1,0,-3
1512357042032042,-2,-2,-2,0,-1,-1,0,0
1512357042044051,2,1,-2,1,-1,0,-2,-1
1512357042044051,1,0,-1,-2,-1,1,0,0
1512357042046052,-2,-2,-1,0,-2,-1,-3,0
1512357042046052,-4,1,-1,-1,0,0,0,0
1512357042067086,-1,-2,-1,-2,0,-2,-1,-1
1512357042067086,2,1,0,0,0,-1,0,-1
1512357042068068,0,-2,-1,-1,-1,-1,-1,-2
1512357042068068,-1,-1,-1,-2,-1,-3,0,-1
1512357042089147,0,0,-2,0,-1,-2,-1,0
1512357042089147,-1,-1,0,-1,-2,-1,-2,-3
1512357042091112,-2,-1,-2,-2,-2,-2,0,0
1512357042091112,-1,-2,-1,0,0,-2,-3,-1
1512357042104106,0,-3,-2,-1,0,-1,-2,-1
1512357042104106,-3,-1,0,-2,-1,1,-1,0
1512357042106133,0,-1,-3,-2,-2,1,-1,0
1512357042106133,0,0,-1,-1,-1,-2,0,-1
1512357042127123,-2,-3,-2,-1,-1,0,-2,-2
1512357042127123,-3,-2,-1,-1,-1,0,-2,-1
1512357042128110,1,-2,-2,-1,-1,-1,-1,0
1512357042128110,-1,-2,-1,-2,0,0,-3,0
1512357042149149,0,0,0,-1,-2,0,0,-2
1512357042149149,-2,0,-2,-2,-1,0,-1,0
1512357042151127,-3,-3,0,0,-1,-2,-1,-2
1512357042151127,-2,0,-1,0,-1,0,-1,-1
1512357042164139,-2,-1,-1,-1,-1,-1,-1,-1
1512357042164139,3,-1,0,-2,0,-1,0,0
1512357042170163,-3,-1,-2,-1,-1,-1,0,-1
1512357042170163,-2,-1,-1,-2,-2,-1,-2,-1
1512357042187152,0,1,0,0,-1,0,0,0
1512357042187152,-3,0,0,0,0,-2,-3,0
1512357042188153,-2,1,-1,-2,-1,-2,-1,0
1512357042188153,0,-3,-1,-2,0,0,-1,-3
1512357042209167,-1,-1,-2,-2,-2,-1,-2,-1
1512357042209167,-2,0,-1,-1,2,-2,-1,-1
1512357042211168,0,0,1,-1,1,0,0,0
1512357042211168,-3,-1,-1,-1,-2,-1,-2,-2
1512357042232183,1,0,0,-1,-1,-4,-1,1
1512357042232183,-3,-2,-1,-1,-3,-1,1,-1
1512357042233187,-3,-1,0,-1,-1,-1,-3,0
1512357042233187,2,-1,0,0,-1,-2,0,-3
1512357042247193,-2,1,-2,-2,-1,-1,-1,-2
1512357042247193,-1,-3,-3,-1,-3,-1,0,-1
1512357042248194,-1,0,-3,0,-2,0,0,-2
1512357042248194,0,-1,-1,-1,0,-1,0,-1
1512357042269275,0,-2,0,0,0,0,-1,-1
1512357042269275,2,-3,-1,-3,-1,1,-4,0
1512357042271249,1,-1,0,-1,0,-1,-1,0
1512357042271249,-3,-5,-2,-2,-3,0,-3,-1
1512357042283232,-3,0,-1,-2,0,-1,-1,-1
1512357042283232,1,0,-1,-1,-1,-1,-1,0
1512357042290236,-5,-2,-2,-2,-1,-2,-1,-3
1512357042290236,-1,-1,-1,-3,-3,-3,1,0
1512357042306235,-2,0,0,-1,0,-1,0,0
1512357042306235,0,0,0,0,-2,1,-2,-2
1512357042308237,1,-1,0,-3,-2,-1,-1,-1
1512357042308237,-1,0,-1,0,-1,-1,0,0
1512357042329251,-4,-2,-3,-2,0,-2,-1,-1
1512357042329251,-2,-1,-2,-2,-1,-2,-1,-1
1512357042331254,-1,0,-1,-2,-1,-1,-1,0
1512357042331254,1,-1,-1,0,-1,-1,-1,-1
1512357042343276,1,3,0,0,-1,-1,-1,-1
1512357042343276,-8,-5,-2,-2,-2,-2,1,0
1512357042350266,0,-1,0,-2,-1,0,1,0
1512357042350266,0,-2,-1,-2,-1,0,-2,-2
1512357042366291,1,-2,-2,0,0,-1,0,-2
1512357042366291,0,1,-3,-1,-2,-2,-2,0
1512357042368279,-1,-2,-1,0,0,-2,-1,-1
1512357042368279,-3,0,-1,-2,1,-2,-2,0
1512357042388316,-2,-2,0,0,-2,-1,-2,-1
1512357042388316,-2,-2,0,0,-1,-1,0,0
1512357042397300,-2,-2,-1,-1,-1,-2,-2,0
1512357042397300,1,-1,-1,1,0,0,-1,0
1512357042403326,-1,-1,-2,-1,-1,-2,0,-1
1512357042403326,-4,-2,0,-2,-1,-2,-1,-2
1512357042410331,1,0,0,-1,-1,-1,-1,-2
1512357042410331,-3,-1,-1,-1,-1,-1,-2,-1
1512357042427323,0,-3,-1,-1,-1,-1,-1,0
1512357042427323,-3,0,1,-1,-1,-3,1,-2
1512357042428334,2,-1,-1,-2,-1,-1,-1,-1
1512357042428334,-3,0,-2,-1,0,-1,-1,-1
1512357042449337,0,-3,-1,0,0,0,-3,2
1512357042449337,0,-2,-2,-1,0,0,-1,0
1512357042450337,-1,1,1,-2,-1,-1,0,1
1512357042450337,-1,-3,-2,0,0,-1,-2,-2
1512357042463346,-1,-1,-1,-1,-2,-1,-2,-1
1512357042463346,1,-1,0,-1,0,1,-1,-1
1512357042470381,-1,-1,-2,0,-2,-2,-2,0
1512357042470381,-1,-1,0,0,-1,-1,0,0
1512357042486363,-2,-2,0,0,-1,0,1,-2
1512357042486363,1,-2,0,0,-1,-2,-2,-2
1512357042488364,1,1,-3,-2,-2,-1,-1,-2
1512357042488364,-1,1,-1,-1,0,-1,-1,-2
1512357042509379,-7,-6,-4,-1,-1,1,-2,-2
1512357042509379,3,2,-2,-3,1,0,1,0
1512357042510380,-1,-2,-2,-1,-2,-2,-3,-2
1512357042510380,-3,0,-1,0,0,-1,-1,-1
1512357042523394,3,0,0,-1,-1,-1,-1,0
1512357042523394,-6,-3,-1,-1,-1,-2,-2,-1
1512357042532395,-2,0,0,0,-1,-3,1,0
1512357042532395,-1,-2,-1,0,-3,0,0,-1
1512357042546405,-4,0,0,-2,0,0,-2,-2
1512357042546405,0,0,-1,1,-3,-1,-3,1
1512357042548406,-5,-5,-1,-1,-2,-2,0,-2
1512357042548406,-1,-1,-1,-1,-1,0,-2,-1
1512357042569424,4,0,-1,1,0,-1,0,2
1512357042569424,-3,0,-3,0,-2,1,0,-2
1512357042570422,1,-1,-3,-2,0,0,-1,-2
1512357042570422,0,-2,-1,0,-1,-2,-2,-2
1512357042582459,-3,-1,-2,-3,-1,-2,1,-2
1512357042582459,4,4,-1,0,-1,-1,-1,0
1512357042591519,-3,-5,-2,0,-1,-1,-1,-1
1512357042591519,-2,0,-1,-1,-1,-2,-2,-1
1512357042606525,0,2,-2,-2,0,0,0,-1
1512357042606525,0,-3,1,-1,0,0,-1,-3
1512357042608502,-1,-1,-1,-1,-1,-1,-3,0
1512357042608502,-1,0,-1,-2,0,-1,-1,1
1512357042629507,-2,0,0,0,-2,-1,-2,-2
1512357042629507,-1,0,-1,-1,-2,-1,1,0
1512357042631493,-3,0,-1,0,-1,-1,0,-2
1512357042631493,0,-3,0,-2,-1,-1,0,0
1512357042642558,0,0,-1,-1,0,-3,-1,-1
1512357042642558,-1,0,-1,-1,-1,1,-1,-1
1512357042651507,0,-1,-1,-1,-2,1,-1,-1
1512357042651507,-2,-3,-1,-2,-2,-2,-1,-1
1512357042665530,-1,-1,1,-2,0,0,-1,-2
1512357042665530,-1,-3,-1,-1,-1,-2,-1,0
1512357042674544,-1,0,-1,-2,0,-1,-1,-1
1512357042674544,0,1,-2,-2,-2,-3,2,-2
1512357042689556,-3,-3,-1,-2,-1,1,-2,-2
1512357042689556,-1,0,-1,0,-4,-1,0,-2
1512357042690547,0,2,0,0,-1,-1,0,-1
1512357042690547,1,-1,-2,-1,-1,1,-1,0
1512357042702570,-2,-5,-3,-2,-1,-1,-1,-2
1512357042702570,-1,-3,0,-1,-1,-2,-3,0
1512357042711601,-1,0,-3,-1,-3,0,-2,-1
1512357042711601,0,0,-2,-1,1,-1,-1,-2
1512357042726630,0,1,0,0,0,-1,-1,-2
1512357042726630,-3,-2,-2,-1,-2,0,-1,-1
1512357042728612,0,-1,0,-1,-1,-1,-2,0
1512357042728612,-2,1,-2,-1,-1,0,0,0
1512357042749628,2,-1,0,-1,-1,1,0,0
1512357042749628,-3,-3,-1,-2,-2,-1,-2,0
1512357042750629,-2,1,1,-1,0,-2,2,-2
1512357042750629,-1,2,0,-1,-2,-1,0,-2
1512357042762637,-1,-2,-1,-2,-2,-4,0,-1
1512357042762637,0,0,1,0,-1,-1,1,-1
1512357042771644,1,-2,-1,-1,-1,0,0,-1
1512357042771644,-1,0,-2,0,0,0,-1,-1
1512357042786653,-1,1,-2,-1,-2,-2,-1,-1
1512357042786653,0,-2,-1,0,0,-2,-3,-1
1512357042788655,-2,1,-2,-1,-2,-2,0,-3
1512357042788655,-3,-1,-1,-1,-1,-1,-1,-2
1512357042809672,-1,-4,-4,-3,-1,0,0,0
1512357042809672,-4,0,-1,-2,-1,-1,2,-1
1512357042810672,1,-3,1,-2,-2,-1,-2,0
1512357042810672,0,1,-1,-1,-2,-1,-2,-2
1512357042822728,-1,2,-1,-1,0,0,-1,-2
1512357042822728,2,0,-2,-1,-2,-2,-1,-1
1512357042831690,-6,-5,-1,0,1,1,-2,0
1512357042831690,-2,-2,0,-2,-1,-2,-1,0
1512357042846708,-1,-3,0,0,-1,-1,-3,-1
1512357042846708,-1,-1,-1,-1,-2,0,-1,-1
1512357042848709,-1,0,-1,-1,-1,-1,-2,1
1512357042848709,0,-2,-2,0,-1,-2,-2,-1
1512357042876732,-3,-1,-1,0,-2,0,0,0
1512357042876732,-2,-1,-1,-2,0,1,2,-1
1512357042878770,-2,1,-1,-2,-2,-1,0,-1
1512357042878770,0,-2,0,-3,0,0,-1,0
1512357042882721,-1,-1,0,-2,-1,-2,0,-1
1512357042882721,-2,0,-1,-1,-2,-2,-1,0
1512357042899746,1,-2,-2,1,-2,0,-1,1
1512357042899746,-2,-2,-1,-2,-1,0,-1,-1
1512357042906788,-1,-1,-2,-1,-1,-2,-3,0
1512357042906788,0,0,-2,-1,1,-3,-1,-1
1512357042908740,-3,-4,-2,-1,-1,-3,0,-2
1512357042908740,0,-1,-1,0,-2,-2,-1,0
1512357042928808,-2,-4,-2,-2,-1,-1,-3,-1
1512357042928808,-1,0,0,-1,0,-1,-1,0
1512357042931756,0,-3,-2,-2,0,-1,-2,0
1512357042931756,-2,-1,-1,-2,0,-1,-2,-2
1512357042951784,1,1,-1,0,-1,-1,0,1
1512357042951784,-1,0,-2,-1,-2,-1,1,-1
1512357042953772,-1,1,0,-1,-3,-1,-1,-2
1512357042953772,-4,-1,-2,-2,-2,0,-1,-1
1512357042966783,0,-5,-3,-1,-2,-2,0,-1
1512357042966783,-1,-3,-1,-1,-1,0,-1,-1
1512357042968781,0,1,-1,0,0,-3,0,-3
1512357042968781,-1,-1,-1,-1,-1,-3,-1,0
1512357042988796,-2,0,-1,-2,-1,0,-3,-2
1512357042988796,-1,-1,0,-2,0,-1,0,-1
1512357042990798,0,0,-2,-2,-1,-2,-1,1
1512357042990798,1,-2,1,0,0,-2,0,0
1512357043011830,-2,0,-2,1,-1,-1,-1,-1
1512357043011830,-2,-2,-1,-3,-3,0,-3,-2
1512357043012815,0,1,-2,0,-1,-2,-1,-1
1512357043012815,0,1,-3,0,-1,0,-3,-2
1512357043026837,-2,-1,-1,-2,-1,-1,-1,-1
1512357043026837,-1,-1,-1,1,0,0,0,0
1512357043027823,0,-4,0,0,0,-1,-1,-2
1512357043027823,-8,-4,-2,-1,-1,-2,-2,-2
1512357043048839,2,0,-1,-2,1,0,-1,-1
1512357043048839,-1,0,-2,-1,0,-2,-1,-1
1512357043050841,-1,-1,-1,-2,-1,0,-1,0
1512357043050841,2,-1,-1,0,-1,0,-1,-2
1512357043071878,-3,3,-1,0,-2,0,-1,0
1512357043071878,-3,-4,0,-1,-3,-2,-1,1
1512357043072877,0,1,-1,-2,-1,-1,-1,1
1512357043072877,3,0,-3,-2,-1,0,-2,1
1512357043085874,-5,-1,-1,-2,0,-2,-2,-1
1512357043085874,2,-1,0,-1,0,-1,-2,-1
1512357043092871,-2,-3,0,0,-2,0,1,-3
1512357043092871,-1,-1,-2,0,-2,0,-2,-1
1512357043108897,1,-2,-1,-3,-2,-2,-2,1
1512357043108897,-1,0,0,0,-1,-2,0,0
1512357043110883,-5,-4,-3,-3,-1,0,-1,0
1512357043110883,3,1,0,-1,-2,-1,0,0
1512357043131907,-1,-5,-4,0,-4,-2,1,-3
1512357043131907,-1,1,-3,-1,-1,0,0,1
1512357043132897,0,-1,-1,-2,-1,0,1,-2
1512357043132897,-2,-2,0,0,2,-2,-1,-2
1512357043145932,-1,-1,0,-1,-1,-1,-2,-1
1512357043145932,-1,-4,-2,-2,-2,-1,-1,-2
1512357043152937,0,0,-1,0,-1,-2,-1,-1
1512357043152937,-2,0,-1,-1,-1,0,-3,-1
1512357043168952,2,1,0,-1,-1,0,-1,-1
1512357043168952,-6,-3,-2,0,-1,-1,-2,-1
1512357043170924,-1,2,0,-3,-1,-2,-2,1
1512357043170924,2,-2,-2,-2,-1,0,0,0
1512357043191983,1,-2,-1,-2,-1,0,-1,0
1512357043191983,-4,-1,1,-1,-2,-1,1,1
1512357043192940,-1,0,-1,0,-1,-2,0,0
1512357043192940,-6,-3,-2,0,-1,-1,0,-1
1512357043206017,-2,3,-2,1,1,0,-2,1
1512357043206017,-1,-1,-2,-1,-2,-1,-1,-1
1512357043212954,1,0,-1,1,0,-1,-2,0
1512357043212954,0,-1,-1,-1,-1,-2,-3,-5
1512357043228996,1,-3,-3,0,-2,0,0,-2
1512357043228996,3,-1,-1,-1,0,-2,-1,0
1512357043230974,-4,0,-1,1,-1,0,-2,-1
1512357043230974,-2,0,-2,-1,-2,-1,-1,-1
1512357043252011,0,-2,0,-2,0,-2,-2,-2
1512357043252011,0,-2,-1,-2,-1,0,-1,0
1512357043252984,-1,-2,-1,-2,-2,-1,1,0
1512357043252984,-1,-1,-2,-2,0,-1,1,0
1512357043266010,-1,-1,-2,-1,-1,-2,1,0
1512357043266010,-2,-1,-1,1,0,-1,-2,-1
1512357043273054,0,-1,-1,-3,-2,-1,-3,-5
1512357043273054,-1,-2,-1,0,-1,-1,-1,-1
1512357043289026,-1,5,0,-1,-1,-1,-1,-1
1512357043289026,-1,-5,-2,-1,-2,-3,-2,-1
1512357043291010,0,0,-2,-2,-1,-1,-1,-1
1512357043291010,1,1,1,-1,-2,-1,-2,-3
1512357043312024,-2,-3,0,1,0,-1,1,1
1512357043312024,-2,0,-1,-1,-1,-1,0,1
1512357043313029,0,-3,-2,-1,-1,-1,-2,-2
1512357043313029,-1,1,0,-1,-1,0,0,0
1512357043326091,1,-1,0,-1,-1,-1,-2,-1
1512357043326091,-2,-4,-3,-2,0,0,-2,-2
1512357043333039,-2,0,-1,0,0,-1,0,-1
1512357043333039,1,-1,-2,-1,-2,-1,-1,0
1512357043349050,-4,-1,-2,-1,-1,-1,-1,-2
1512357043349050,0,1,-2,-1,-2,-2,0,0
1512357043351052,0,0,0,-2,0,0,-1,-1
1512357043351052,-2,0,-2,0,-1,-1,-3,0
1512357043372069,-2,-2,-1,0,1,-2,1,-2
1512357043372069,0,0,0,-2,-3,-1,1,-1
1512357043373067,0,-1,-1,0,0,0,0,-2
1512357043373067,-3,-5,0,0,1,-3,-1,0
1512357043386077,-1,-2,-1,-2,0,0,-4,-2
1512357043386077,0,-2,1,-1,-1,-2,2,-2
1512357043393082,-5,-1,-2,-1,0,-1,0,-1
1512357043393082,6,1,0,-2,-1,0,-1,0
1512357043409104,-2,-1,-1,-2,-3,-1,0,-2
1512357043409104,-1,1,0,-1,1,0,-3,1
1512357043411109,-3,-2,-1,-1,-3,-2,-2,0
1512357043411109,-1,-1,-1,0,0,-1,0,-3
1512357043433123,-2,-2,-1,-1,1,-2,-2,-2
1512357043433123,-3,-2,-1,-1,-2,-2,-1,-3
1512357043434124,-2,-2,-1,-1,-1,-1,0,-1
1512357043434124,-1,0,-2,-2,-1,-1,-1,-1
1512357043445125,5,2,-1,0,-3,0,1,0
1512357043445125,-6,0,-1,-2,-1,-2,0,-2
1512357043454139,3,-2,-2,-1,0,-2,-3,-1
1512357043454139,-4,-3,-1,-2,-2,0,0,-2
1512357043469149,0,-2,-2,-1,-1,-1,0,0
1512357043469149,0,-2,-1,0,-1,-1,0,0
1512357043471156,0,0,0,-1,-3,-1,0,-1
1512357043471156,-1,2,-2,-1,-1,0,-3,0
1512357043492151,-4,-2,-2,-1,-1,-1,0,0
1512357043492151,1,-1,-1,-2,-2,0,-2,0
1512357043493154,0,0,-1,-1,0,-2,-1,-1
1512357043493154,-4,-2,-2,-1,0,0,-1,-2
1512357043505183,-2,-2,-3,-3,-2,-2,0,-1
1512357043505183,1,1,0,-1,-1,0,-1,0
1512357043514168,-1,-2,0,-1,0,-3,0,-1
1512357043514168,1,-1,-1,-1,0,1,0,0
1512357043529199,0,-2,-1,0,0,0,-1,-3
1512357043529199,-1,-3,-1,-1,0,-2,1,-1
1512357043531179,-1,0,0,-1,-1,0,-1,-2
1512357043531179,-2,-2,-1,0,-1,-1,-3,-1
1512357043551194,-1,2,-1,0,0,-2,-3,0
1512357043551194,-1,-3,-1,0,-2,0,-1,-3
1512357043553194,1,0,-1,-1,0,0,-1,2
1512357043553194,-3,-2,-2,-2,-2,-1,1,-1
1512357043565242,0,1,-2,-2,-2,-1,-2,0
1512357043565242,2,3,-1,-1,-1,-1,-2,0
1512357043574220,-6,-4,-1,-1,-1,-1,-1,-3
1512357043574220,3,-1,-1,1,-2,0,-2,0
1512357043589220,1,0,0,-2,-2,-1,-4,-2
1512357043589220,-1,0,-1,-1,-1,-2,0,-1
1512357043590220,0,-2,-2,-2,-2,-2,-2,0
1512357043590220,-1,-2,-1,-1,0,-3,1,0
1512357043611237,-1,-2,-1,0,-1,-1,-1,0
1512357043611237,-1,-1,-2,-1,-1,-1,-1,0
1512357043613238,0,-1,-1,0,-1,-1,-2,0
1512357043613238,-3,0,-2,-3,0,-2,-3,-2
1512357043625262,0,0,0,0,1,-1,0,-1
1512357043625262,0,-1,-1,-2,-3,0,-1,-3
1512357043634262,-1,-2,-2,-2,-1,0,-1,0
1512357043634262,1,5,-1,-1,-2,0,-1,-2
1512357043649262,-4,-6,-2,-2,-2,-1,1,-1
1512357043649262,-3,-3,0,-1,0,-2,-2,-2
1512357043651264,-2,-1,-1,-1,-2,1,-2,-2
1512357043651264,-1,-3,-2,-2,-1,-1,-2,-3
1512357043672347,-1,3,-2,-2,-1,-1,-2,3
1512357043672347,1,0,-1,-1,0,-2,1,0
1512357043674282,1,-1,-1,0,-1,-2,-1,-1
1512357043674282,-1,0,0,0,0,-3,0,0
1512357043685304,-2,-1,-1,1,-1,-1,-1,-2
1512357043685304,0,-3,-2,-1,-2,-1,-2,-1
1512357043694311,-5,-2,1,-1,-2,0,1,0
1512357043694311,2,-1,0,0,-2,0,1,-2
1512357043709362,0,-2,-1,-2,-1,-2,-1,0
1512357043709362,-2,-1,1,-1,-1,0,1,0
1512357043711305,1,-1,-1,0,-1,-1,-2,-1
1512357043711305,-3,-1,-2,-1,1,-1,-2,0
1512357043731323,-1,-2,-2,-2,-2,-2,0,0
1512357043731323,-2,0,0,-1,-2,-3,-3,-1
1512357043733322,2,2,0,-1,-1,-1,2,-1
1512357043733322,-4,-2,-2,-1,-2,0,-2,-3
1512357043745330,0,-3,0,-1,-1,-1,-1,0
1512357043745330,-2,4,-1,-1,0,0,-1,-2
1512357043754336,-1,-4,-2,-1,0,-2,-3,0
1512357043754336,-1,-1,-1,0,0,-2,0,-1
1512357043769385,-2,1,-2,-2,1,-2,0,-1
1512357043769385,0,-3,-1,-1,-1,0,0,0
1512357043770375,-6,-2,0,0,-2,0,-1,-2
1512357043770375,3,1,-1,-3,-1,-1,0,-1
1512357043791385,-2,-3,-2,0,0,0,-1,-3
1512357043791385,-2,-1,-2,-1,-1,-2,-2,-1
1512357043793364,0,1,-2,-1,0,0,-2,-2
1512357043793364,-2,-3,2,-1,-1,-1,-2,0
1512357043805377,-1,0,0,1,-1,-1,0,-1
1512357043805377,1,-1,-1,-1,0,0,0,0
1512357043814379,-1,0,-2,-3,-2,-1,-1,-1
1512357043814379,-3,-1,-2,-3,-2,1,-2,-2
1512357043829439,-2,-1,1,0,-1,0,0,1
1512357043829439,1,-1,-1,-1,-1,0,-1,0
1512357043831413,-1,-1,-3,-1,-1,-2,0,0
1512357043831413,1,1,-2,-2,0,-2,0,1
1512357043851425,-1,-3,-2,-2,-2,0,-2,-2
1512357043851425,-5,-4,-1,-2,-1,-1,0,1
1512357043853423,2,-3,-1,-2,0,-1,-2,0
1512357043853423,2,-1,-1,0,1,-1,-3,-2
1512357043874424,0,4,-1,-2,-1,0,-1,-2
1512357043874424,0,-3,-1,-1,0,-1,-2,-2
1512357043875422,0,-1,0,-1,-2,-1,-2,-1
1512357043875422,-2,-2,-2,1,-1,-1,-1,2
1512357043889457,-3,1,0,0,-2,-1,0,-1
1512357043889457,7,2,1,1,-1,-1,0,0
1512357043890433,1,1,-2,-3,-1,-2,-1,-1
1512357043890433,-3,-3,-1,-1,-1,-1,-2,0
1512357043911448,-1,-4,-2,-1,-2,-1,-2,-1
1512357043911448,-4,-2,-3,1,-1,-1,0,-2
1512357043913464,-1,-1,-1,-1,1,-1,0,-1
1512357043913464,0,0,-1,-1,-2,-1,-2,-2
1512357043934463,0,0,-2,-4,0,-2,0,-2
1512357043934463,-2,-4,-1,-1,-2,-1,-2,0
1512357043935464,-1,-4,0,0,-1,0,-1,1
1512357043935464,-4,-3,0,0,1,-2,-2,0
1512357043949489,3,0,-1,0,-2,0,0,0
1512357043949489,-4,1,-2,-2,-1,-1,-1,1
1512357043950479,-3,-3,-2,0,-1,0,0,-2
1512357043950479,1,1,-1,0,-2,0,-1,0
1512357043971513,2,-2,-2,-1,-2,-2,-2,-1
1512357043971513,-8,-2,-1,-2,-2,0,-2,-1
1512357043973509,0,0,-2,-1,-2,-2,-1,-1
1512357043973509,-3,-3,-2,-2,0,-4,-1,-3
1512357043994506,1,-1,-1,0,-1,1,-1,0
1512357043994506,-1,-1,0,-1,-1,-3,0,-1
1512357043995506,0,-1,-2,0,0,-1,-2,-1
1512357043995506,1,-1,-2,-2,-1,-1,0,-1
1512357044009543,-2,-1,0,1,0,0,0,-3
1512357044009543,0,-1,0,-3,-1,0,-2,-1
1512357044011517,-5,1,0,-2,-1,0,-1,-1
1512357044011517,2,1,-1,0,-2,1,0,-1
1512357044031532,-6,-4,-1,-3,-1,0,-1,0
1512357044031532,2,-1,-1,-1,0,0,1,-1
1512357044033543,2,0,-1,-1,-1,-1,-1,0
1512357044033543,-1,-3,0,0,-2,-1,-1,-4
1512357044053562,-1,0,-2,1,0,-2,1,2
1512357044053562,0,0,-1,0,-1,-1,-2,0
1512357044061553,-2,-3,-1,-2,-1,-1,-1,-1
1512357044061553,1,-2,0,-1,-1,0,-2,1
1512357044068576,-8,-2,0,-2,-1,-1,-1,-3
1512357044068576,0,2,-2,-2,0,-2,-1,-2
1512357044075585,2,0,-1,-1,-1,-2,0,0
1512357044075585,-6,-4,-3,-1,-2,-2,-1,-1
1512357044091575,3,0,-2,-1,-1,-2,-2,0
1512357044091575,-2,0,1,-2,-2,0,0,0
1512357044093576,-3,-2,-2,0,1,-1,-3,-1
1512357044093576,0,1,0,-4,0,-2,-1,-1
1512357044114591,-1,2,-1,0,0,-2,-1,-2
1512357044114591,0,-1,-1,-1,-1,-2,0,0
1512357044115591,0,0,-1,0,-1,-1,-1,-3
1512357044115591,-2,-1,-3,-2,0,0,-1,1
1512357044128601,4,-1,-2,-1,-2,-1,-2,-1
1512357044128601,2,-1,-3,-1,-2,-1,0,-2
1512357044135606,-1,1,0,0,0,-1,-1,-1
1512357044135606,-2,-3,-2,-1,-1,-3,-1,-1
1512357044151639,-2,0,-1,-1,-2,-1,-2,-2
1512357044151639,0,-3,-2,1,-2,0,1,0
1512357044153630,1,1,-1,-1,-1,-1,0,-2
1512357044153630,0,2,-1,-1,-1,0,0,0
1512357044174634,3,-3,0,-3,-2,-2,-1,2
1512357044174634,-2,-1,-1,0,0,-1,-2,0
1512357044175635,-4,-2,-2,-2,-2,-1,-2,-1
1512357044175635,-1,-1,-1,-1,1,-2,-1,-2
1512357044188644,-2,-2,-1,0,0,-2,-2,-2
1512357044188644,2,0,-2,-1,0,-2,0,-1
1512357044195648,-3,-1,-1,0,-3,-2,0,0
1512357044195648,-2,-3,0,-1,-1,1,-1,0
1512357044211661,0,0,-1,-1,-2,-1,-1,0
1512357044211661,-2,-3,-1,-2,-1,-1,0,-2
1512357044213660,0,-2,-1,0,-2,-1,-1,-1
1512357044213660,-1,0,-3,0,-3,0,0,-3
1512357044234675,-2,-1,0,-1,-2,-1,1,-3
1512357044234675,-2,-1,1,-1,-2,0,-3,-2
1512357044235676,0,-2,-1,-2,-2,-1,-1,0
1512357044235676,2,1,-1,0,-1,1,0,0
1512357044248700,-4,-2,-2,-3,-1,-1,0,0
1512357044248700,-2,-2,-1,-1,-1,-1,0,-2
1512357044255713,-1,1,-2,1,-1,-1,0,-1
1512357044255713,-2,0,-1,0,-1,-2,0,-3
1512357044271724,2,1,-2,-1,-1,0,0,1
1512357044271724,-2,-4,-2,-2,-1,-1,0,0
1512357044273717,-1,-3,0,0,-2,0,-1,-2
1512357044273717,3,3,-1,-3,0,-1,-1,-3
1512357044294718,-7,-4,-1,0,-3,0,-2,-1
1512357044294718,-1,-3,-1,-1,-2,-1,-1,1
1512357044296720,-1,2,-2,-3,-1,-1,-1,-1
1512357044296720,-3,-2,0,-3,0,-1,-1,-1
1512357044308727,0,1,0,-1,-1,0,-1,-1
1512357044308727,1,0,-2,0,0,0,-3,-1
1512357044314732,-2,1,-1,-1,1,-1,-1,0
1512357044314732,-1,-2,-2,0,-2,-1,-2,-1
1512357044331746,0,1,-1,-1,1,-2,1,-1
1512357044331746,-3,-2,-1,-2,-3,-1,-1,-2
1512357044333745,0,0,-1,-2,0,0,0,-1
1512357044333745,-2,0,-1,-2,-1,-2,0,0
1512357044353786,0,-3,1,-1,0,-1,-2,-1
1512357044353786,-1,-1,-1,0,0,-1,-1,0
1512357044355761,-1,1,0,-1,-1,-1,-1,-4
1512357044355761,-1,-1,-1,1,-1,-1,-2,0
1512357044367847,-1,-2,-2,-2,0,-1,-1,-3
1512357044367847,0,1,0,-1,-1,-1,-2,-2
1512357044376831,-3,-2,-2,0,0,0,-1,-2
1512357044376831,2,-3,0,-1,-1,0,-2,-2
1512357044391892,-1,-1,-1,0,-1,0,0,0
1512357044391892,-1,1,-2,-2,-1,-2,-1,-1
1512357044392871,-6,-7,-3,-1,1,-2,0,-1
1512357044392871,-1,-4,-1,-2,-2,-2,-3,0
1512357044413909,-2,0,-2,-2,-2,1,-1,-3
1512357044413909,0,-2,-1,-1,0,0,1,-1
1512357044415907,0,-1,-1,-1,-2,-2,-1,1
1512357044415907,-2,2,-1,0,-1,0,0,0
1512357044427932,2,-4,-1,-2,0,-1,-3,0
1512357044427932,-4,-1,-1,-1,-1,-2,-1,0
1512357044436932,3,0,-2,-2,-2,1,-1,0
1512357044436932,-1,0,-1,-1,0,-1,-2,-2
1512357044451943,-1,-1,0,0,-1,-1,-2,1
1512357044451943,0,0,1,0,-2,1,0,-1
1512357044452934,1,1,-2,-1,-3,-2,-1,-1
1512357044452934,-2,-2,0,-2,0,0,1,-2
1512357044474010,-1,0,-2,0,-1,-2,-1,-1
1512357044474010,-2,0,-1,-1,-1,-1,0,-3
1512357044475951,3,0,-1,0,0,-1,-3,0
1512357044475951,-5,-3,-3,-1,-2,0,0,0
1512357044488014,-1,1,-1,-1,-1,-2,-1,-2
1512357044488014,-3,-1,-1,-1,0,-2,-1,-1
1512357044496975,-6,-4,-2,-1,-2,-1,0,-3
1512357044496975,2,1,-2,0,-1,-2,0,-2
1512357044511986,0,-1,-2,-1,-2,-2,0,-1
1512357044511986,-2,0,0,0,-3,-1,-1,-1
1512357044512992,-1,-3,-1,-3,0,-2,-1,-3
1512357044512992,-1,2,-1,0,-1,-1,-2,-2
1512357044534002,-3,-3,-1,-1,-1,-1,0,-3
1512357044534002,0,-2,-2,0,-1,-2,0,-1
1512357044536003,2,1,0,-1,0,-2,-1,0
1512357044536003,-1,-1,-3,-1,-2,-3,-2,3
1512357044548048,1,3,0,-1,-3,-1,2,0
1512357044548048,-1,0,-1,0,-2,0,-1,-1
1512357044557054,-2,1,0,0,1,-1,-2,-2
1512357044557054,3,0,-1,-3,0,0,-2,-3
1512357044572088,-2,0,1,0,-2,-1,-1,-1
1512357044572088,-1,0,-2,-2,0,-1,0,-2
1512357044573068,1,-3,-1,0,-2,-1,0,-1
1512357044573068,-4,0,-2,-1,0,-1,0,0
1512357044594098,-11,-8,-1,-2,-1,0,-1,-1
1512357044594098,3,-3,-2,-1,-2,0,-2,-1
1512357044596085,1,6,-1,-2,-3,-1,-2,0
1512357044596085,1,-2,-1,-1,0,-2,0,-1
1512357044608121,0,1,-2,-2,0,-1,-3,-1
1512357044608121,-1,-1,-1,1,0,0,-1,-1
1512357044617096,-4,-1,-1,0,-1,-1,0,0
1512357044617096,-1,-2,1,0,0,-3,0,0
1512357044631107,0,0,-2,-2,-1,0,-1,1
1512357044631107,0,-1,-2,-2,0,-1,-1,0
1512357044633109,-1,-4,-1,-1,-2,-1,0,0
1512357044633109,-3,-1,-1,-2,0,1,0,-3
1512357044654122,2,-2,0,-1,-1,-2,-1,-2
1512357044654122,0,3,0,-2,-3,-1,-2,0
1512357044656139,-1,-2,-1,-1,-1,0,0,-1
1512357044656139,-4,-4,-3,-1,-1,-1,-1,0
1512357044668139,3,1,-3,0,0,-1,0,-1
1512357044668139,-2,-2,0,-1,0,-2,-3,0
1512357044677163,-3,-3,-1,-1,-2,0,-4,-1
1512357044677163,-1,-1,0,-1,-3,0,-5,-3
1512357044691173,1,-2,-3,0,-1,-1,2,-4
1512357044691173,0,-1,-2,-2,-1,0,0,-2
1512357044693156,0,-3,-1,-1,-2,-2,-1,-2
1512357044693156,-2,0,1,-1,0,-2,0,-1
1512357044714189,0,0,-1,0,-3,-2,-3,3
1512357044714189,-1,-5,0,-1,-1,-2,-1,-2
1512357044716168,-1,1,-2,-1,0,-1,-2,0
1512357044716168,-1,-1,0,-1,-2,-2,-1,-1
1512357044728185,0,0,-2,-1,0,-1,-1,0
1512357044728185,-6,-5,-3,-2,-2,-2,2,-2
1512357044737191,1,0,0,-1,0,-1,-5,-2
1512357044737191,-1,0,-2,0,0,-1,7,2
1512357044751206,-2,-3,0,-2,-2,0,-1,-1
1512357044751206,0,0,0,0,-3,0,-2,0
1512357044753192,-2,0,-1,-2,0,-1,1,-3
1512357044753192,4,-3,-4,-2,-2,-1,-3,-3
1512357044774244,-2,-3,0,-1,-2,0,1,-1
1512357044774244,0,0,-2,-1,0,1,3,-1
1512357044776243,-2,-1,1,-2,-2,-1,-1,-1
1512357044776243,-1,-2,-1,-1,0,0,-3,-2
1512357044787225,1,-1,-1,0,-1,-1,-1,0
1512357044787225,-3,-2,0,-1,-2,-2,-4,0
1512357044796232,-3,2,-1,-1,1,-1,0,-1
1512357044796232,3,-3,-1,-2,-4,-2,-4,0
1512357044811244,0,0,-1,-1,1,0,-1,-1
1512357044811244,-2,-3,-2,-1,-1,-2,-1,0
1512357044819248,0,0,0,0,-1,0,1,1
1512357044819248,-3,-4,-1,-1,-2,-2,-1,-2
1512357044834258,-1,0,-1,-1,0,-1,-6,-2
1512357044834258,1,-1,0,0,-2,-2,0,-1
1512357044836275,-2,-1,-2,-2,-2,-1,2,1
1512357044836275,-2,0,-1,0,0,-1,-3,-1
1512357044856287,-2,0,-2,-1,-3,-2,0,-1
1512357044856287,-1,-1,0,-2,-1,0,-1,-2
1512357044858267,-1,-2,-1,-1,0,-2,-1,-2
1512357044858267,-3,-3,-2,-1,-2,-1,0,-2
1512357044871298,-3,-1,-1,-2,-1,-3,1,0
1512357044871298,1,2,-2,0,-1,-1,0,1
1512357044873277,-1,-5,-3,-1,1,-1,-3,1
1512357044873277,-1,1,-2,-2,0,-1,-2,-2
1512357044894301,0,2,-1,-2,-2,0,0,-1
1512357044894301,0,-3,-2,-1,-1,-1,-1,0
1512357044895302,-4,-4,-1,1,-1,-3,0,-4
1512357044895302,0,0,-2,-1,-1,-1,-1,0
1512357044916307,-1,-3,1,-1,-2,0,-1,-1
1512357044916307,-4,0,-1,0,-1,-2,-2,-1
1512357044918309,4,0,-1,-1,0,-2,-3,-2
1512357044918309,-6,-1,-1,-1,-1,-1,-3,-1
1512357044931322,0,-2,-1,-1,-1,-2,-1,-2
1512357044931322,-4,-1,-1,-2,-2,1,-2,1
1512357044937326,0,0,-1,-4,-1,-1,0,0
1512357044937326,-1,-1,0,0,-2,-2,-1,-1
1512357044954354,-2,0,-2,-1,-2,-1,0,0
1512357044954354,-3,-2,-2,0,-1,-1,-2,0
1512357044955339,2,-1,-1,0,-3,-1,0,0
1512357044955339,1,1,0,-2,1,-1,-3,-3
1512357044976371,-2,-3,-2,-2,-1,-1,-2,-2
1512357044976371,-2,-1,0,-1,-2,-2,-2,-1
1512357044978353,-2,-2,-1,1,0,0,0,-2
1512357044978353,2,-2,0,-1,-1,0,0,-2
1512357044991414,-7,-5,-2,1,-2,-1,-2,-2
1512357044991414,0,-1,-2,-2,-2,-2,-1,-2
1512357044997365,0,2,-1,-1,-3,0,-1,-3
1512357044997365,0,-2,-2,-1,0,-2,1,-1
1512357045014391,-2,0,-1,-1,-1,-2,-1,-1
1512357045014391,2,0,0,-1,-2,0,-2,-1
1512357045015397,-3,-2,-3,-2,-2,-1,-2,0
1512357045015397,-3,0,-2,-1,-1,-1,-3,-1
1512357045036474,-3,-2,-1,0,-1,0,0,0
1512357045036474,0,-2,-1,-1,0,0,-1,0
1512357045038477,-1,1,-1,-2,-2,1,-1,-1
1512357045038477,-2,-1,-1,0,-2,0,0,0
1512357045051487,1,0,-1,-3,-1,-3,1,0
1512357045051487,2,0,0,-2,-1,-1,-1,0
1512357045057504,-5,-3,-1,-1,-3,-2,-1,-2
1512357045057504,-1,-2,-2,-1,-2,-2,1,-3
1512357045074500,1,3,-3,-2,-1,-1,0,0
1512357045074500,-5,-7,-2,-3,0,-2,-1,-2
1512357045075503,-1,1,-1,-1,-1,-2,-2,-1
1512357045075503,-2,-1,-2,0,-1,0,0,-1
1512357045096525,-1,-1,1,0,-2,-2,-2,0
1512357045096525,0,2,-2,1,0,-1,-1,-2
1512357045098527,-1,-3,-1,0,0,-1,-2,-1
1512357045098527,-1,-1,-2,-1,-3,-3,0,-1
1512357045111525,-1,-1,1,1,0,1,1,-1
1512357045111525,0,-4,-1,0,-3,0,0,0
1512357045117529,-2,1,-2,-2,-1,-1,0,-2
1512357045117529,-1,2,-2,0,-1,-1,-2,-1
1512357045133539,0,-3,0,0,-1,-3,-1,-1
1512357045133539,-1,0,-1,-1,-3,-2,0,-3
1512357045140571,0,-3,-1,0,2,0,1,2
1512357045140571,-3,-3,-1,-1,-1,-1,0,1
1512357045156573,-1,-1,-2,-1,-2,0,-1,-1
1512357045156573,-1,-1,-2,-1,-2,0,0,0
1512357045158559,2,-1,-2,0,-1,-1,-2,0
1512357045158559,0,0,-2,-1,0,-1,-4,-1
1512357045171622,0,-2,0,0,-1,0,-1,-1
1512357045171622,0,2,-1,-1,0,0,-1,-3
1512357045177584,-9,-6,-2,-2,-1,-1,-2,-2
1512357045177584,-2,-2,1,-1,-1,0,0,-1
1512357045194585,0,-2,-1,-1,0,-2,-1,-2
1512357045194585,0,0,-1,1,0,-1,0,-1
1512357045195583,1,2,-4,-1,-1,-2,-1,-1
1512357045195583,1,0,-2,0,1,-1,-2,-2
1512357045216599,-2,-1,0,-2,-1,-2,0,-1
1512357045216599,0,-1,0,-2,-1,-2,0,-1
1512357045218612,-1,1,-1,-1,0,-1,-1,-2
1512357045218612,-1,-2,-2,0,-2,-2,-1,-1
1512357045230618,0,0,-1,0,-1,1,-1,0
1512357045230618,-1,-2,-1,-2,-2,0,-2,0
1512357045237666,-3,-1,-2,-1,-1,-2,0,-2
1512357045237666,0,-1,0,-1,0,-3,-1,-1
1512357045253635,-2,-2,-3,0,-3,0,-1,-1
1512357045253635,-2,-3,0,-2,-1,-1,-1,0
1512357045255635,1,0,0,0,-1,-2,-1,0
1512357045255635,-3,-3,-2,-2,-3,-1,-1,-1
1512357045276697,-1,-2,-2,-2,-2,-3,0,-1
1512357045276697,-2,0,-1,-1,-1,-2,-1,-1
1512357045278699,0,0,-1,-1,0,-1,-2,-1
1512357045278699,1,1,-1,-2,0,-1,-1,0
1512357045290696,-2,-1,-1,-3,0,1,-1,0
1512357045290696,-1,-4,-2,-1,-1,-1,-1,0
1512357045297703,2,0,1,-1,-1,-1,-2,-2
1512357045297703,1,3,1,-1,0,0,-1,-2
1512357045313714,-4,-4,-1,-2,-1,-1,-1,-3
1512357045313714,0,0,-1,1,-1,-2,0,0
1512357045315700,-2,-4,-1,1,0,-1,0,1
1512357045315700,1,-1,-1,-1,-1,-1,1,1
1512357045336730,-2,1,-2,0,0,-1,0,0
1512357045336730,-1,-2,-1,-1,-1,-1,-1,-1
1512357045337731,0,0,-1,-2,-1,-2,-1,-1
1512357045337731,-1,-2,-3,0,0,-1,-2,-2
1512357045349740,0,0,-1,-1,-2,-1,-2,1
1512357045349740,-2,-1,-2,-1,-1,1,-3,-2
1512357045359752,-1,0,-2,-1,-1,0,-1,-1
1512357045359752,-1,1,0,-1,-1,0,0,-1
1512357045373763,1,-2,-2,-1,1,-1,-1,0
1512357045373763,1,-1,-3,-3,-2,-2,-1,0
1512357045375743,-3,0,-1,-2,-1,-2,-1,-2
1512357045375743,0,0,0,-1,-2,-1,-3,0
1512357045395766,0,-2,0,-1,-1,-2,-1,-2
1512357045395766,1,-1,-1,-1,0,0,1,-2
1512357045396773,-3,-1,-2,-2,-1,-1,-3,-3
1512357045396773,-4,-2,-1,-1,-1,-2,-2,0
1512357045418864,1,2,-2,-1,-1,0,0,0
1512357045418864,0,-1,-1,0,-2,-1,-2,-1
1512357045419831,-3,0,-3,-2,0,1,-1,-3
1512357045419831,-2,-1,-2,0,0,0,0,-2
1512357045433899,-2,0,-1,0,-1,-3,-1,0
1512357045433899,-2,-3,-1,-1,-1,-3,-1,-1
1512357045433899,0,-2,0,0,0,0,1,-1
1512357045433899,-2,-2,-1,-2,-3,0,-1,-1
1512357045455910,-2,0,0,0,-3,0,-1,-2
1512357045455910,-3,0,-2,-2,0,-1,-2,1
1512357045456910,0,0,-1,0,-1,-1,-1,0
1512357045456910,-1,-4,-2,-2,0,-1,0,-2
1512357045478932,-2,1,-1,-1,-2,-1,0,-2
1512357045478932,-1,0,-2,0,0,-1,1,-1
1512357045479913,-1,0,-1,0,-2,1,-4,1
1512357045479913,-5,-1,-1,-2,0,-1,-1,-1
1512357045493925,2,-2,-1,-2,-1,-1,-1,-1
1512357045493925,-1,-2,-1,-1,0,-1,-1,-3
1512357045493925,-1,-1,-2,1,0,-2,0,-1
1512357045493925,-2,-1,-1,0,-2,-1,-3,-1
1512357045515961,0,-1,0,0,-2,-1,-1,1
1512357045515961,-4,-2,-1,-3,-1,-2,0,-2
1512357045516961,1,-3,-1,-2,0,0,-2,-2
1512357045516961,-2,-4,-1,-1,-1,0,0,1
1512357045538993,0,-1,-2,-1,-1,-1,-1,-1
1512357045538993,1,1,0,1,-2,-2,0,2
1512357045539987,-2,-1,-1,0,1,0,-2,-2
1512357045539987,-2,-2,-3,-1,-1,0,-1,-3
1512357045553986,-3,-1,-2,-1,-1,-1,-2,-1
1512357045553986,0,0,-1,-1,-1,-1,-2,0
1512357045553986,-1,-2,-1,-3,0,-1,-1,2
1512357045553986,1,0,-1,-2,-1,-3,-2,0
1512357045576018,-2,-3,-1,-1,0,-2,-1,-1
1512357045576018,-2,1,0,1,-3,-1,-1,-1
1512357045577004,0,0,-2,-1,-1,-1,0,-1
1512357045577004,0,-1,1,-2,-1,-1,1,-1
1512357045599019,-2,-2,0,-1,-2,-1,-1,-1
1512357045599019,-1,-1,-2,-2,-1,-1,0,-3
1512357045600019,1,-1,0,-1,-1,0,1,0
1512357045600019,3,3,-2,0,0,-1,0,-3
1512357045613029,0,-3,-1,-1,-1,-2,-1,-1
1512357045613029,-7,-6,-4,-1,-2,-2,-1,1
1512357045614029,-1,0,-1,0,-2,-1,-1,-1
1512357045614029,-1,0,-2,-1,0,1,-1,-2
1512357045644107,1,1,-1,-2,-3,1,0,-3
1512357045644107,-3,1,0,-1,-2,-2,-3,-1
1512357045645052,0,-3,-1,-2,-2,-3,0,0
1512357045645052,0,1,-1,0,0,-2,-2,-1
1512357045659088,-2,2,-2,-1,-1,0,-1,0
1512357045659088,-1,-6,-3,-1,-3,1,0,-3
1512357045660062,-4,-2,-1,-1,-2,-1,0,-2
1512357045660062,0,-2,-2,-1,0,-2,0,-1
1512357045673080,-1,1,-1,0,-2,-2,-2,-1
1512357045673080,2,1,2,0,2,-1,-1,0
1512357045674071,0,-1,-2,0,-1,-2,-2,-1
1512357045674071,-3,-2,0,-1,-3,-2,-1,-1
1512357045704117,-3,-3,0,-1,-1,-2,-1,-2
1512357045704117,0,-1,0,-4,-1,1,0,1
1512357045705106,-2,-1,0,-1,-1,-2,0,-1
1512357045705106,-6,-3,-1,-1,-1,-1,0,-1
1512357045719117,1,-2,-1,-1,0,0,1,0
1512357045719117,0,-1,0,-1,-3,-1,-1,-2
1512357045720122,-2,-2,0,-1,-1,-2,-2,-1
1512357045720122,2,-1,-3,-2,-1,-1,-2,-1
1512357045733159,-5,0,-1,-1,-1,1,-1,-1
1512357045733159,1,-3,-3,-1,0,-2,-1,0
1512357045734159,2,-3,-1,-1,-1,0,0,1
1512357045734159,-3,-1,1,0,-1,-2,0,-1
1512357045756178,2,-1,-1,-1,-1,-1,-2,-2
1512357045756178,-2,3,-1,-1,-2,-1,0,0
1512357045757176,-2,-1,-3,0,0,0,0,-2
1512357045757176,0,-1,-3,-1,0,0,-1,-2
1512357045779192,-4,-3,-1,-3,-2,-2,-1,-1
1512357045779192,1,-2,-2,-1,-1,-3,-1,-2
1512357045780195,-1,0,-1,-2,-2,1,-2,-3
1512357045780195,0,-1,0,-2,0,-1,-2,0
1512357045793263,-3,0,-2,0,0,0,-3,-1
1512357045793263,1,-3,-1,0,0,-1,-2,-3
1512357045794220,-1,-1,-1,0,0,-1,-2,0
1512357045794220,0,-2,0,-1,-2,1,-1,1
1512357045816219,-1,0,-2,-1,-2,-2,1,1
1512357045816219,1,0,0,-2,-1,-1,0,0
1512357045816219,-2,0,-1,-1,0,-1,0,-1
1512357045816219,0,1,0,-1,-1,0,-1,-1
1512357045839246,0,-3,-1,-1,-2,-2,-1,0
1512357045839246,-2,3,-2,-1,1,0,0,-2
1512357045840239,-6,-5,-3,-1,-1,-1,-2,-4
1512357045840239,-3,-2,-2,0,-2,-1,-2,-1
1512357045853265,1,0,0,-1,0,0,0,-1
1512357045853265,0,-2,-2,-3,-1,-2,-3,-2
1512357045854249,0,0,0,0,-2,-2,-2,-1
1512357045854249,-3,0,-1,0,0,-1,0,-2
1512357045876298,-1,1,1,0,0,-1,1,-1
1512357045876298,-2,-1,0,0,-1,0,-2,-1
1512357045876298,0,1,-1,0,1,-1,-2,0
1512357045876298,2,-4,-3,-1,-2,-1,-3,1
1512357045899289,-1,-2,0,-1,0,0,-1,0
1512357045899289,-2,-1,0,0,1,-1,1,-1
1512357045900278,0,0,-1,-1,-1,-1,0,-3
1512357045900278,1,0,-1,-2,-1,-1,-1,-1
1512357045913296,-3,-2,1,-2,-1,-1,0,0
1512357045913296,1,-3,-1,-2,-3,-1,0,-3
1512357045914288,-3,-2,0,-2,-2,-1,-2,0
1512357045914288,-1,-1,-1,-1,0,-3,0,-2
1512357045936316,1,-2,-1,1,-1,0,-3,-1
1512357045936316,0,-1,-1,0,-2,-2,0,0
1512357045936316,-1,-1,-2,-1,-1,-2,0,-1
1512357045936316,-2,0,-2,-1,-2,-1,-2,-1
1512357045959318,-3,-1,-2,-2,0,-2,0,-1
1512357045959318,-1,0,-1,-1,-1,0,-2,-1
1512357045960319,1,1,-2,-2,-1,-1,0,-3
1512357045960319,-8,-4,-4,-1,-1,-1,0,-2
1512357045973362,2,-1,-1,0,-2,-3,-1,-1
1512357045973362,0,1,-1,-2,-2,0,-2,0
1512357045974329,2,0,-1,0,-2,1,-3,-3
1512357045974329,-1,0,-1,-1,0,1,-1,-1
1512357045995362,1,-1,-1,-3,-2,-1,0,-1
1512357045995362,-2,-1,-2,-1,-1,-2,-1,0
1512357045996345,-3,-2,-1,-1,-3,-1,-1,0
1512357045996345,1,1,2,-1,-2,-2,-2,-1
1512357046019379,-1,-3,-5,3,0,0,-1,-1
1512357046019379,-2,-1,-1,0,-1,-1,-2,0
1512357046020378,1,-1,-2,-5,-2,-2,0,-3
1512357046020378,2,1,-2,-1,-1,-1,-3,0
1512357046033383,-1,-3,-1,-2,-2,-1,0,-2
1512357046033383,-4,0,1,0,-1,0,2,-1
1512357046034383,-1,-1,-2,0,2,-1,-2,-1
1512357046034383,-2,-4,-1,-1,-2,-2,1,-1
1512357046056387,-3,0,0,-3,-1,-1,-2,0
1512357046056387,-2,-1,-2,0,-2,-1,-2,1
1512357046056387,-1,0,2,0,-1,0,-1,2
1512357046056387,1,0,-1,0,-3,0,-1,-1
1512357046079408,1,-1,-2,-2,-1,-2,-2,-2
1512357046079408,1,0,-2,-1,-1,0,-2,-4
1512357046079408,-3,-2,-3,-2,-2,-1,-2,-3
1512357046079408,0,2,0,0,0,0,1,-1
1512357046093418,-5,-4,-1,-2,-2,-1,0,-1
1512357046093418,0,0,0,-2,1,-2,-1,-1
1512357046094418,0,1,-1,1,0,-1,-2,-1
1512357046094418,-2,-1,1,-1,0,-2,-3,0
1512357046116442,2,-1,1,-3,0,2,1,1
1512357046116442,-3,-3,-1,1,-1,0,0,1
1512357046116442,-3,-1,-1,0,0,0,-1,-1
1512357046116442,2,-2,-1,0,-3,-2,-2,-1
1512357046139456,1,3,-1,-1,-1,-3,0,0
1512357046139456,-2,-4,-2,0,-1,-2,2,-2
1512357046139456,-3,-2,-2,0,-2,-2,-2,-1
1512357046139456,-1,-1,-1,-2,-1,2,0,-1
1512357046153457,-2,-1,-1,0,-2,0,-1,-3
1512357046153457,0,0,1,-2,1,-1,-3,0
1512357046154458,0,-3,-1,-2,-3,-2,0,0
1512357046154458,-2,-1,-1,-1,0,-1,1,-2
1512357046176488,-2,-3,-1,1,0,-1,-2,0
1512357046176488,0,0,-1,-2,-2,-2,-2,0
1512357046176488,-1,1,1,2,-2,0,-2,-3
1512357046176488,1,-2,-5,-11,3,2,0,0
1512357046199500,-3,-1,2,-1,-2,-1,-1,0
1512357046199500,-1,0,-7,1,-1,-1,1,-3
1512357046199500,3,2,13,-3,-3,-3,-1,-2
1512357046199500,-1,0,-9,2,-1,-2,0,0
1512357046213498,-2,1,28,6,-2,-3,-1,-2
1512357046213498,1,0,-15,-12,-1,-2,-1,-1
1512357046214498,0,-4,-18,1,-1,1,0,0
1512357046214498,0,0,4,1,-2,-4,-2,-1
1512357046235525,0,1,-7,-2,0,0,-1,-1
1512357046235525,-3,-2,11,4,-1,-1,-3,-1
1512357046236514,0,1,8,5,2,1,1,-1
1512357046236514,-3,-4,8,2,-1,0,0,-1
1512357046259534,1,0,-13,-2,-1,1,-1,-2
1512357046259534,-4,-3,5,1,1,-2,0,-2
1512357046260532,-2,6,-8,-7,0,0,0,-1
1512357046260532,-3,-1,-3,2,-6,-3,-1,2
1512357046273542,8,-2,0,2,-2,-3,-2,-1
1512357046273542,-2,0,-14,2,1,2,-2,-3
1512357046274569,-5,-1,16,-13,-4,-3,-1,-3
1512357046274569,-4,-4,-23,-20,5,4,1,-1
1512357046295565,1,5,28,14,0,-2,1,1
1512357046295565,2,3,-8,1,1,1,1,1
1512357046296582,2,9,-17,-15,-13,-7,-1,0
1512357046296582,-20,2,-15,0,-4,-3,-2,-4
1512357046318572,-5,-7,-13,-12,0,-1,-1,0
1512357046318572,1,4,4,12,0,-1,-1,-2
1512357046319572,0,-2,2,9,6,2,-2,0
1512357046319572,7,8,25,7,0,-1,0,0
1512357046332592,-1,2,-20,2,1,0,2,1
1512357046332592,-8,-20,-37,-27,-9,-6,-3,-2
1512357046340610,1,-5,1,5,2,-1,1,0
1512357046340610,0,-7,-2,-3,-1,-2,-1,-1
1512357046355655,4,6,20,9,-2,-1,-2,-1
1512357046355655,13,1,3,4,1,3,0,-1
1512357046356599,-17,-2,6,-1,-1,-1,-2,-4
1512357046356599,8,1,5,7,2,-1,0,1
1512357046378631,8,-5,-34,-12,-5,-1,-1,-3
1512357046378631,-47,-7,5,3,-3,-1,-1,-4
1512357046379615,12,0,9,2,1,-1,-2,1
1512357046379615,14,8,15,8,1,-1,0,0
1512357046392648,-12,-13,-33,-10,-5,-3,3,2
1512357046392648,13,10,15,-4,-3,-2,0,0
1512357046400640,-15,-5,3,8,2,1,-2,-3
1512357046400640,-9,-5,-7,-11,-3,-2,-1,-4
1512357046415641,8,-17,4,-4,3,1,0,0
1512357046415641,8,8,23,3,0,0,2,0
1512357046416641,14,9,-22,-1,-2,-2,1,2
1512357046416641,-8,-12,-1,1,-3,-1,-2,0
1512357046438715,4,12,3,-7,-2,1,-1,-1
1512357046438715,-62,-41,5,3,1,-1,-3,-7
1512357046439661,13,-2,-1,2,-1,0,-1,0
1512357046439661,13,5,-21,-8,-3,-1,-1,7
1512357046452677,-24,-9,13,7,0,-1,-1,-8
1512357046452677,35,26,-3,-10,-3,-3,-1,6
1512357046460682,12,-19,-8,-4,-4,-3,-1,-4
1512357046460682,-21,-3,-45,-10,-3,-2,-1,-5
1512357046475730,-7,-4,8,0,1,-1,-3,1
1512357046475730,13,2,9,-2,-1,1,1,2
1512357046476686,-4,0,7,4,2,1,-3,0
1512357046476686,21,9,-25,0,-3,-1,0,2
1512357046498720,-8,3,27,2,0,-1,-2,1
1512357046498720,-2,-8,7,-1,-1,-2,-1,-3
1512357046499700,0,8,10,1,0,-2,0,0
1512357046499700,-11,-11,15,7,3,1,-1,-1
1512357046512710,-1,-2,-14,-5,0,2,3,1
1512357046512710,16,4,-10,1,-2,-3,-2,-1
1512357046520774,2,-8,5,1,1,0,-1,-2
1512357046520774,-5,7,28,1,-4,-3,-2,-4
1512357046535741,-10,1,-21,-2,0,-1,2,-1
1512357046535741,17,5,17,2,-1,-2,-2,1
1512357046536726,-28,-7,-11,0,-1,-1,-3,-2
1512357046536726,3,1,-3,-4,-1,0,-7,-5
1512357046559767,-6,2,8,-2,-4,-4,-3,0
1512357046559767,1,-1,-9,3,3,3,3,3
1512357046560744,-19,-1,-11,-5,0,0,-1,-11
1512357046560744,2,-9,19,1,-3,-3,-4,-2
1512357046572775,9,15,23,9,2,-2,-7,-2
1512357046572775,4,3,-56,-17,-6,-2,5,-5
1512357046580780,0,-3,20,3,-1,-2,1,3
1512357046580780,6,-8,12,7,3,2,-1,1
1512357046595768,-24,-19,-29,-10,-5,-2,-5,-3
1512357046595768,0,-4,12,2,2,-1,-7,-5
1512357046596768,7,6,-11,-3,-1,0,10,1
1512357046596768,5,6,1,3,1,-1,2,0
1512357046618787,6,9,4,3,0,1,2,1
1512357046618787,-11,-3,6,4,0,0,-3,0
1512357046619784,3,-5,-17,-7,0,1,-3,-1
1512357046619784,1,-1,2,-7,-2,-1,-2,-4
1512357046632804,10,-4,3,1,1,1,3,4
1512357046632804,6,5,2,3,-1,1,1,-1
1512357046640801,5,3,-6,-4,-2,-3,-4,0
1512357046640801,-1,-2,13,1,-2,-2,1,-1
1512357046655825,6,3,-6,2,0,0,-14,-6
1512357046655825,-11,0,15,5,-2,-1,7,3
1512357046656811,3,-14,-42,-26,-5,-3,-5,-1
1512357046656811,-3,-1,-2,0,-1,-2,-9,-11
1512357046678827,1,11,8,-1,-2,1,13,10
1512357046678827,11,-13,6,11,1,3,-4,-2
1512357046679827,7,12,9,3,0,0,-1,3
1512357046679827,14,-19,-20,-8,-6,-6,-1,-7
1512357046701857,-10,7,-1,-8,-1,-2,-6,2
1512357046701857,18,-13,-12,-7,-3,-2,-2,4
1512357046702843,-1,-12,-3,2,-1,1,4,0
1512357046702843,-24,7,6,3,3,3,-3,-3
1512357046715864,18,0,15,3,-1,-1,3,2
1512357046715864,5,15,6,-5,-1,-3,-4,-3
1512357046716855,-6,-2,-4,13,2,0,-3,-5
1512357046716855,-20,-13,-39,-25,-7,-5,2,0
1512357046738880,-9,-10,39,1,-3,-3,-9,-8
1512357046738880,-21,-8,-17,-8,-5,-4,6,10
1512357046739869,21,11,39,9,2,0,12,2
1512357046739869,8,5,0,11,2,1,9,4
1512357046761896,12,-8,-28,-10,-1,-1,-5,-6
1512357046761896,-23,-5,9,-3,-4,-2,3,-1
1512357046761896,-5,-3,-7,-9,-1,0,-10,-6
1512357046761896,23,13,4,4,2,4,3,6
1512357046775952,-12,2,-3,1,-3,-1,1,-5
1512357046775952,11,12,7,2,3,2,-4,3
1512357046776909,-18,-4,-8,-1,-6,-4,-5,-17
1512357046776909,-16,-2,5,-13,-3,-3,-16,-3
1512357046798911,20,-8,1,8,0,1,-2,0
1512357046798911,-31,-8,-13,-3,-2,0,-4,-6
1512357046799912,28,18,9,1,7,5,6,11
1512357046799912,-28,-4,19,6,0,3,0,2
1512357046822002,-8,-14,-40,5,-4,-2,-3,-11
1512357046822002,-15,-7,-9,-4,-4,-6,1,-1
1512357046822002,-7,2,13,9,2,5,-4,5
1512357046822002,1,1,-7,-11,-5,-4,7,7
1512357046835946,13,9,13,-7,2,0,14,10
1512357046835946,-12,3,-4,12,2,1,12,0
1512357046836939,5,-18,-31,-20,-11,-7,-5,-19
1512357046836939,-15,4,14,7,1,-1,-6,-1
1512357046858983,-16,9,5,-6,-8,-4,5,5
1512357046858983,20,-26,-37,-9,-4,-7,5,0
1512357046859954,-15,-2,0,1,1,0,-27,-9
1512357046859954,6,-5,-2,-5,1,2,35,35
1512357046881979,23,10,6,4,3,-2,-19,-16
1512357046881979,-5,10,-3,6,4,2,1,-1
1512357046881979,-1,3,-6,2,-6,-6,-1,5
1512357046881979,-17,-23,3,9,-2,-3,-13,-25
1512357046895998,-6,10,-8,-5,-2,1,8,21
1512357046895998,4,7,6,-10,2,2,-4,-5
1512357046896984,-4,9,4,3,-1,-2,4,8
1512357046896984,12,-11,-2,0,-2,-4,-9,-8
1512357046918996,-24,6,1,3,1,-1,3,-3
1512357046918996,5,9,1,-12,-3,2,-6,-7
1512357046919996,-7,-23,11,-2,-3,-4,-4,0
1512357046919996,2,11,-2,13,3,0,2,2
1512357046943036,-8,-14,-11,0,-3,-4,-3,-21
1512357046943036,23,-7,16,4,0,0,-5,6
1512357046944014,0,11,-25,-4,0,0,5,0
1512357046944014,-15,0,-13,-10,-2,1,1,6
1512357046956035,30,-20,-5,-23,-4,-4,-2,12
1512357046956035,-60,7,9,24,1,1,-6,-6
1512357046957026,17,15,-6,-10,-2,1,4,-45
1512357046957026,-15,-1,13,2,-1,-3,-4,7
1512357046979079,39,4,3,-3,1,-3,-14,5
1512357046979079,-28,1,0,1,0,-2,2,-16
1512357046980039,24,-3,-18,-14,-3,-2,-3,15
1512357046980039,4,7,10,4,0,-2,-11,-14
1512357047002055,9,-3,1,10,1,1,15,0
1512357047002055,23,4,17,-5,-3,-6,-7,7
1512357047002055,14,5,-7,0,2,5,6,13
1512357047002055,33,18,0,3,-1,-1,-5,-11
1512357047016074,-31,-20,-3,3,-3,-3,-3,-3
1512357047016074,28,-5,-7,-2,2,2,-5,-5
1512357047017076,-22,12,20,6,0,-1,4,12
1512357047017076,7,-6,-15,-2,-3,-3,0,-1
1512357047040138,-15,3,-2,-1,-4,-3,-1,4
1512357047040138,16,10,6,6,6,1,1,-3
1512357047041097,-77,-25,4,-13,-4,-5,-10,-10
1512357047041097,20,-8,3,-5,1,-1,1,2
1512357047061096,-66,-18,-11,2,-6,-3,-2,-7
1512357047061096,23,11,-11,-3,-2,-4,-5,-1
1512357047062097,6,4,8,-4,0,2,9,17
1512357047062097,-28,-8,-4,10,3,2,2,-3
1512357047076161,-35,1,-26,-17,-8,-4,-6,-5
1512357047076161,6,4,13,4,0,1,-6,-9
1512357047077161,2,11,32,5,3,0,0,7
1512357047077161,-11,-18,-35,-15,-9,-7,-9,-11
1512357047099133,12,7,30,10,5,3,2,-12
1512357047099133,3,-12,-18,-4,-3,1,1,1
1512357047100125,-11,8,-4,5,3,0,-2,-2
1512357047100125,8,-16,18,2,0,3,3,6
1512357047121142,32,18,-16,-6,5,2,3,10
1512357047121142,2,-6,8,-9,-6,-4,-4,-3
1512357047122154,59,18,26,29,7,3,4,11
1512357047122154,11,9,-19,-28,-7,-4,-2,4
1512357047136161,-3,3,-27,-12,2,3,4,-1
1512357047136161,-14,-18,29,-5,-6,-5,-2,5
1512357047136161,-9,-13,-22,3,-1,0,-1,0
1512357047136161,-8,7,-8,5,3,3,1,-11
1512357047159222,7,5,1,3,-2,-5,-6,1
1512357047159222,5,2,-9,-13,-1,2,3,6
1512357047160168,16,-15,11,12,-2,-5,-5,-1
1512357047160168,3,4,-3,-1,1,4,5,0
1512357047181202,47,15,27,5,4,5,9,19
1512357047181202,-17,-7,-41,-4,0,-3,-4,-3
1512357047182182,-22,5,-14,-13,-4,-3,-9,-6
1512357047182182,-22,-30,9,2,-1,-2,6,8
1512357047196211,44,-2,8,5,2,0,-1,-13
1512357047196211,6,9,-16,-4,-3,-2,2,14
1512357047196211,-12,-23,24,-9,-2,1,-1,-5
1512357047196211,35,14,5,11,-6,-5,-4,-3
1512357047219260,-54,-24,6,1,5,3,-6,-9
1512357047219260,9,0,0,-11,-5,-3,-3,0
1512357047220211,-31,5,-24,-3,-4,-7,-3,-9
1512357047220211,71,28,58,11,6,-1,-5,-11
1512357047241233,-17,-15,-1,-6,-7,-4,0,7
1512357047241233,6,-12,-15,1,1,-2,-3,3
1512357047242234,-68,-6,-11,-4,-6,-6,1,2
1512357047242234,-31,1,-31,-12,-4,-5,-4,-29
1512357047256256,6,3,28,7,-2,-1,1,11
1512357047256256,-54,-4,-19,-13,0,0,-2,-11
1512357047256256,29,-2,16,1,-1,0,1,2
1512357047256256,-23,-7,0,3,-1,-1,2,11
1512357047279265,13,31,-11,-3,-1,1,3,4
1512357047279265,-16,-18,25,0,-6,-4,-3,-14
1512357047280254,8,-8,-44,-1,-2,-4,-4,-11
1512357047280254,11,-3,-14,-10,-4,-1,4,17
1512357047301281,-15,3,-10,-4,-4,-9,-13,-21
1512357047301281,11,8,48,12,6,5,7,9
1512357047302268,21,-15,-3,-2,3,-2,-2,-2
1512357047302268,-35,9,21,9,-2,-1,-3,5
1512357047315275,-10,-11,-86,-27,-3,1,4,7
1512357047315275,13,22,22,11,5,7,8,13
1512357047323355,36,-2,27,1,-5,-7,-4,-20
1512357047323355,28,2,-9,-9,1,0,3,22
1512357047339359,5,-3,54,15,1,-4,-10,-16
1512357047339359,48,7,-51,-2,-4,-2,-5,0
1512357047340359,7,-14,-6,3,2,3,1,18
1512357047340359,-1,-20,2,1,-1,-5,-9,-11
1512357047361369,-38,10,1,5,-4,1,2,-6
1512357047361369,-11,-19,3,-12,-2,1,-2,-2
1512357047362359,75,24,15,4,3,11,24,15
1512357047362359,-27,15,6,-1,0,1,7,38
1512357047375424,-18,-22,-11,37,-9,-11,-9,-34
1512357047375424,-31,-9,-25,-43,6,1,-7,-15
1512357047391414,-48,9,2,-9,-2,-4,-8,-19
1512357047391414,7,-4,-10,-12,-4,-1,2,-7
1512357047399396,40,-10,18,6,11,11,15,24
1512357047399396,-15,7,32,21,-14,-11,-5,0
1512357047399396,-10,-21,-29,-7,7,5,2,-2
1512357047399396,6,-12,-14,-17,-2,0,0,1
1512357047421423,-10,-6,-6,-3,-4,0,-3,5
1512357047421423,10,13,-1,9,3,1,-3,0
1512357047422400,-2,10,18,7,2,-1,-7,-2
1512357047422400,-14,10,19,11,-1,-1,2,-9
1512357047435421,5,-20,-31,-22,-7,-10,-3,-15
1512357047435421,-20,-10,12,7,2,-1,-5,-2
1512357047443433,-26,3,-14,-1,-3,-3,-5,-37
1512357047443433,17,14,2,5,5,4,10,8
1512357047459450,-34,8,14,14,-5,-9,-13,-29
1512357047459450,44,42,-17,-39,-6,-3,-5,34
1512357047459450,-38,-18,-3,-10,-10,-11,-12,-15
1512357047459450,21,-6,-19,-8,-3,-3,-7,4
1512357047481455,-20,0,4,2,-3,-4,-4,-11
1512357047481455,53,10,4,-12,5,5,6,3
1512357047482444,5,30,24,32,5,2,-1,13
1512357047482444,-10,-34,-36,-22,-14,-6,5,6
1512357047495461,-9,28,17,-15,2,4,-1,-10
1512357047495461,-44,-18,-23,12,-4,-1,6,-33
1512357047521480,58,-7,13,-9,-2,-5,-3,24
1512357047521480,-53,2,17,19,5,6,0,-18
1512357047522493,37,0,-11,-4,-2,0,2,26
1512357047522493,-55,-7,-22,5,-3,-2,3,-3
1512357047525491,15,-7,32,-3,1,2,7,47
1512357047525491,-52,13,4,14,1,-2,-13,-78
1512357047541504,9,18,-3,-19,-4,-2,-1,62
1512357047541504,-19,-8,9,7,0,0,-1,-26
1512357047543501,-6,-32,-106,-11,-5,-3,1,13
1512357047543501,30,10,43,5,1,-4,-5,17
1512357047555513,37,5,12,1,-6,1,6,-8
1512357047555513,-10,9,5,-14,9,3,3,1
1512357047564510,26,-25,-28,-3,-3,-1,0,29
1512357047564510,41,37,41,20,4,1,-6,-23
1512357047579530,-32,-25,-29,-19,-1,-2,0,-12
1512357047579530,41,-44,23,27,-3,-2,-9,-18
1512357047585517,-90,6,18,-20,-3,-1,-2,-19
1512357047585517,81,65,-9,5,6,7,16,14
1512357047601546,-23,-101,6,-2,0,-2,-7,15
1512357047601546,-48,40,35,5,-3,-8,-22,-39
1512357047603543,28,-25,-8,4,5,6,11,13
1512357047603543,-31,6,-65,-14,-5,1,5,34
1512357047615557,24,-3,8,1,-2,-3,9,67
1512357047615557,-56,22,-4,3,2,4,5,-70
1512357047624565,0,2,-1,-11,-5,-5,-22,-42
1512357047624565,-35,-67,5,3,-4,-8,-11,-16
1512357047638563,56,36,4,1,3,3,0,17
1512357047638563,-14,-69,-41,-3,0,2,9,32
1512357047640555,25,78,46,8,0,-1,1,-15
1512357047640555,-63,-42,-4,33,-10,-8,-5,7
1512357047661585,-19,-30,-68,-51,4,7,0,-27
1512357047661585,57,9,68,33,12,5,9,20
1512357047663586,-25,-8,-32,-23,0,1,-15,-62
1512357047663586,37,0,35,77,-4,0,10,76
1512357047683585,-4,28,27,-45,8,16,21,37
1512357047683585,22,-24,-13,-8,-9,-6,-21,-11
1512357047685587,-8,23,-14,-24,1,0,7,-11
1512357047685587,3,-46,-18,-5,-3,-8,-24,-42
1512357047698621,-43,-8,4,29,-9,-13,-5,6
1512357047698621,-9,18,8,2,-1,-1,3,40
1512357047700604,-77,-5,-6,1,-11,-9,10,-28
1512357047700604,69,6,-19,-35,-5,-6,-11,36
1512357047721614,54,27,26,17,-4,-6,-7,-53
1512357047721614,21,-15,-46,-30,-16,-14,-6,-27
1512357047723629,-40,-3,33,38,11,9,21,71
1512357047723629,-1,16,0,-39,-8,-5,1,6
1512357047743643,-42,-40,-20,16,10,2,-13,-14
1512357047743643,-22,-31,-6,26,-18,-1,21,50
1512357047745634,22,18,29,64,18,5,0,54
1512357047745634,-17,-68,16,-128,8,3,-4,-30
1512357047758662,5,-13,-54,11,-11,-6,1,13
1512357047758662,-6,-9,66,-8,0,-2,-13,-60
1512357047760651,42,29,5,49,-7,-3,7,64
1512357047760651,-20,45,-3,-15,12,15,9,-13
1512357047781666,-5,-25,14,16,2,-3,-23,-48
1512357047781666,29,9,-40,-20,-3,-4,12,58
1512357047782657,-33,-28,6,0,-9,-11,-34,-73
1512357047782657,-59,-16,-1,20,8,6,22,11
1512357047803685,-30,32,12,-15,-13,-8,-5,-57
1512357047803685,35,31,-2,14,4,3,11,102
1512357047805671,58,-36,-20,-45,-13,-9,-17,-19
1512357047805671,-43,27,-47,12,-2,0,5,-41
1512357047818680,16,-2,40,1,9,11,11,0
1512357047818680,7,56,-33,1,1,-1,-5,21
1512357047824689,-25,-73,-1,2,-5,-2,-9,-58
1512357047824689,21,30,6,7,18,15,21,71
1512357047841748,-70,-22,4,-3,-3,-1,-11,-49
1512357047841748,9,13,9,-16,-1,-6,-27,-99
1512357047842700,61,43,37,-61,9,4,1,37
1512357047842700,-8,-52,20,28,-24,-7,-2,-21
1512357047863734,-7,57,26,59,-23,-10,16,62
1512357047863734,-7,-67,-38,-86,46,24,15,64
1512357047865714,-66,-7,19,34,-9,-11,-21,-103
1512357047865714,60,23,0,-16,0,-5,-3,81
1512357047878744,4,7,19,15,-7,-3,-3,-74
1512357047878744,-19,-49,2,12,-18,-10,5,6
1512357047884755,16,62,-40,-11,4,7,17,72
1512357047884755,-16,-2,-20,3,-10,-11,-26,-64
1512357047901764,42,4,-9,-5,8,6,15,60
1512357047901764,4,54,29,23,0,5,-2,56
1512357047902744,38,-34,-54,-12,10,9,8,-52
1512357047902744,54,14,37,0,-5,-2,1,10
1512357047924781,6,24,-6,-4,4,-1,-3,25
1512357047924781,-26,-38,-30,8,3,3,-2,18
1512357047926758,-4,0,-5,-15,-15,-1,27,111
1512357047926758,-20,15,6,23,4,-1,-14,-45
1512357047938765,11,-47,-36,-25,-4,-2,1,22
1512357047938765,30,27,13,27,11,2,1,35
1512357047944769,-6,-26,22,-35,-7,-6,-32,-72
1512357047944769,-26,6,21,47,-7,-10,-14,49
1512357047961783,17,44,-46,-85,14,4,-1,25
1512357047961783,16,-10,3,19,-18,-10,-3,-20
1512357047962782,-27,-13,-18,10,1,1,11,-8
1512357047962782,63,24,-10,-10,-1,-9,-19,-39
1512357047983807,-15,-8,8,18,-4,-5,-21,-47
1512357047983807,15,14,35,-7,-9,-7,4,56
1512357047985799,-10,-17,2,-4,9,9,-2,-53
1512357047985799,81,-9,-15,-8,-5,3,13,38
1512357047997817,12,-1,40,37,4,1,6,-17
1512357047997817,35,54,-79,-36,-5,3,0,-18
1512357048004811,-36,-59,14,2,8,1,2,42
1512357048004811,-58,-32,17,-7,-2,3,4,-7
1512357048021851,-12,-23,-12,0,2,-2,-4,16
1512357048021851,41,0,42,8,-3,-5,-21,-90
1512357048022827,13,31,-38,5,-7,0,1,21
1512357048022827,-2,32,-17,-13,-4,-2,-2,-81
1512357048043857,13,-4,12,10,-5,-5,2,79
1512357048043857,4,-24,-6,5,9,2,-7,4
1512357048045854,43,25,32,0,8,4,6,40
1512357048045854,-75,-37,30,0,6,2,-1,11
1512357048057865,48,15,-47,-9,-8,1,8,26
1512357048057865,-22,37,33,31,0,-3,-1,-25
1512357048064864,-46,-62,19,-11,-14,-12,-7,-41
1512357048064864,19,4,-60,-15,1,2,7,30
1512357048081866,-3,0,30,1,2,0,0,-32
1512357048081866,-35,-6,16,10,-2,-2,4,-19
1512357048082866,64,82,-58,-9,-6,-9,-3,26
1512357048082866,-3,-37,19,6,-3,0,-1,-14
1512357048103881,-24,-14,-8,15,-2,3,6,3
1512357048103881,-6,-4,-37,-26,3,1,-2,10
1512357048105906,10,31,32,10,-8,-3,0,39
1512357048105906,24,-24,-7,-2,3,2,11,60
1512357048117914,-60,21,38,-21,9,3,-8,-44
1512357048117914,0,-21,21,0,1,3,10,57
1512357048124920,4,-8,40,-2,0,2,9,30
1512357048124920,-5,34,-71,-12,-13,-3,0,2
1512357048141936,-24,-12,46,53,-1,-2,2,47
1512357048141936,-61,-3,9,-61,14,5,-2,-15
1512357048142910,-23,-12,-22,-9,-9,-2,-3,-46
1512357048142910,-33,-70,-49,9,0,2,7,3
1512357048162942,7,-11,-50,-21,-5,-8,-16,28
1512357048162942,3,-24,25,26,-10,-9,-5,13
1512357048171930,11,14,-6,16,3,-1,0,31
1512357048171930,1,41,42,-5,6,2,-2,37
1512357048177952,26,-1,-27,-6,-2,1,5,7
1512357048177952,41,18,-21,9,-3,2,8,19
1512357048186959,8,-12,8,-7,-2,-5,-14,-78
1512357048186959,2,-1,-13,-1,-6,-3,2,13
1512357048201970,28,12,50,2,3,-3,5,55
1512357048201970,29,9,-17,16,-7,-6,-16,-88
1512357048202952,-11,21,-10,-8,3,3,4,39
1512357048202952,9,-22,-38,16,3,4,1,-18
1512357048223984,51,4,4,-39,13,7,-4,32
1512357048223984,-40,15,27,7,-13,-6,-3,-73
1512357048225985,3,-86,6,10,-3,-2,-2,-17
1512357048225985,13,23,56,19,6,0,-3,-31
1512357048237985,-28,13,-44,5,-12,-4,-2,-35
1512357048237985,-15,-26,-24,11,5,4,1,-5
1512357048246995,-23,36,39,-9,2,5,9,50
1512357048246995,-18,13,13,-10,-7,-8,-16,-88
1512357048262024,-20,0,-24,5,2,5,-1,12
1512357048262024,21,-30,-4,5,-12,-9,-18,-56
1512357048262995,-11,-22,12,2,4,1,4,28
1512357048262995,6,-17,-6,-20,-4,-5,1,25
1512357048284029,-19,8,14,1,-6,-6,-2,-13
1512357048284029,37,29,15,-4,-4,-3,1,22
1512357048286015,-15,12,-31,0,0,-1,-1,8
1512357048286015,-12,3,15,-4,-2,0,-4,-22
1512357048298039,-15,-13,8,4,5,3,4,19
1512357048298039,4,23,-8,12,-4,2,9,14
1512357048307026,85,24,-41,-39,-2,-6,-4,28
1512357048307026,-47,-40,-25,17,4,1,2,-21
1512357048322039,0,-40,-6,-11,3,5,8,18
1512357048322039,12,-7,-14,-1,-8,-5,1,-21
1512357048323041,-1,18,54,16,9,8,12,79
1512357048323041,-37,-17,-8,6,-1,-3,-5,48
1512357048344065,11,17,-11,-10,-4,-3,-12,-78
1512357048344065,-53,-34,-13,1,1,1,8,64
1512357048346053,-15,37,-16,10,-6,-1,-5,6
1512357048346053,40,-5,51,-14,-1,-6,-4,-63
1512357048357104,11,-18,6,5,0,1,-7,-54
1512357048357104,-17,-8,28,-11,-2,-4,1,55
1512357048367070,-22,7,5,7,-2,-5,-1,-3
1512357048367070,35,25,-14,-9,2,4,9,26
1512357048381088,8,69,73,2,-2,-4,-4,-9
1512357048381088,-47,-77,-84,2,-7,-4,-8,-35
1512357048383094,5,-16,7,-21,-1,0,-6,-28
1512357048383094,-3,41,12,10,-2,0,1,38
1512357048404095,47,2,-21,-31,-9,-11,-3,-12
1512357048404095,9,-1,-15,-17,8,5,5,9
1512357048406109,18,-3,12,15,-6,-4,-6,-28
1512357048406109,-62,-24,-54,1,-1,2,2,-25
1512357048418118,15,28,11,9,-11,-8,-2,-3
1512357048418118,-53,-31,-44,-13,6,0,-4,33
1512357048427130,2,2,-30,-3,-4,-3,-4,-46
1512357048427130,13,1,26,-5,1,-3,-7,-13
1512357048441176,8,-12,13,14,0,-2,3,-5
1512357048441176,-21,4,20,-4,-2,0,-1,52
1512357048443121,4,11,4,8,0,0,1,-40
1512357048443121,-3,-20,28,-1,1,1,-3,18
1512357048464146,-19,-9,-17,19,-3,0,7,33
1512357048464146,24,23,9,-26,1,2,-2,27
1512357048466151,5,10,-7,0,1,-1,0,25
1512357048466151,-7,-25,4,5,-9,-6,-9,-9
1512357048477171,-19,-20,-33,-16,9,3,-6,-51
1512357048477171,16,27,41,8,-5,-4,0,2
1512357048486161,20,-9,8,32,0,-1,-3,33
1512357048486161,4,39,10,-53,6,3,-3,0
1512357048501162,-32,-65,-2,5,-6,-5,-1,14
1512357048501162,-2,4,3,4,-1,-1,-2,-24
1512357048503164,30,12,21,1,1,0,-7,-15
1512357048503164,4,17,-28,14,-8,-7,-3,34
1512357048524244,22,-1,14,3,3,3,-2,26
1512357048524244,16,22,-1,-13,5,5,-2,-80
1512357048526197,-32,-44,8,2,-1,-3,4,-23
1512357048526197,-11,36,24,5,-2,-1,-3,-52
1512357048537199,36,24,14,-2,-6,-2,4,5
1512357048537199,-14,-29,-20,8,2,-2,-4,3
1512357048546216,-4,2,2,-3,2,5,7,25
1512357048546216,45,11,-16,-4,-3,-2,3,9
1512357048561227,-8,1,-20,7,-3,-4,-5,-11
1512357048561227,16,-2,14,-6,-9,-2,2,3
1512357048563206,-18,10,-9,-4,8,2,-2,-30
1512357048563206,-7,-6,-34,2,6,1,8,36
1512357048584231,2,7,12,2,-3,1,-9,-52
1512357048584231,-25,2,-29,-1,-2,-3,-4,10
1512357048585222,-2,-10,-31,-17,-9,-3,-1,-2
1512357048585222,17,16,25,9,1,-2,-3,-61
1512357048606261,-2,1,17,0,-10,-8,-1,33
1512357048606261,23,9,-16,18,14,-2,-5,0
1512357048608239,-54,-23,24,0,7,1,-9,-20
1512357048608239,5,-16,-21,-12,-5,0,8,33
1512357048621249,-72,-36,-104,-9,-3,0,-6,-29
1512357048621249,16,12,41,12,0,0,-3,-13
1512357048623264,27,15,41,7,-5,0,7,12
1512357048623264,6,11,3,-5,1,-1,-2,33
1512357048643278,-5,33,-34,-6,2,2,4,54
1512357048643278,-37,-66,19,-2,-6,-6,-12,-64
1512357048651279,18,11,-23,-2,3,1,-3,-4
1512357048651279,-4,4,8,7,0,2,8,45
1512357048666302,17,5,12,-10,0,1,-1,-36
1512357048666302,23,18,-5,-4,1,3,4,25
1512357048668296,-43,-12,-17,-5,-7,-4,-6,-49
1512357048668296,21,-6,36,15,0,1,9,22
1512357048680288,-21,2,5,-23,9,3,-2,-41
1512357048680288,25,18,-20,8,-12,-5,1,13
1512357048687303,-4,-8,33,-17,10,1,1,17
1512357048687303,-8,10,-26,-1,-5,-3,-3,8
1512357048704306,14,-3,23,2,2,1,9,18
1512357048704306,39,8,12,24,-11,-2,7,51
1512357048705317,-30,-18,-38,-31,4,-2,-3,-27
1512357048705317,-18,-34,2,5,-6,-5,-8,-12
1512357048726387,62,25,-8,0,2,1,8,43
1512357048726387,-1,0,5,2,0,0,-4,8
1512357048728378,36,22,-7,3,-7,-1,2,-9
1512357048728378,-15,-20,-42,-2,1,-8,-15,-28
1512357048741373,-15,6,13,-21,4,1,-3,4
1512357048741373,-3,9,-3,0,-2,1,15,11
1512357048747451,-24,3,30,4,-4,-6,-6,27
1512357048747451,24,-4,-13,0,-2,0,1,-16
1512357048764464,-36,-25,2,31,-8,-5,-7,-34
1512357048764464,-9,-17,-17,-21,7,-1,-7,-4
1512357048765454,7,41,-17,-6,-9,-5,1,31
1512357048765454,1,8,40,8,2,0,0,-30
1512357048786467,19,-1,-10,-1,1,0,7,39
1512357048786467,-44,11,3,-10,5,0,-2,61
1512357048788471,7,-30,-19,-7,-4,-1,0,-68
1512357048788471,9,-4,8,-2,1,1,-1,55
1512357048800489,-7,12,11,-10,-1,-3,-7,-18
1512357048800489,-5,-8,16,0,-1,0,-4,-38
1512357048807495,-11,-14,-34,11,-1,1,0,18
1512357048807495,8,-2,36,-8,-4,-1,-6,-34
1512357048824504,-10,-30,3,-2,-2,-4,0,-30
1512357048824504,1,15,-18,1,2,4,7,9
1512357048825495,38,16,32,18,-3,-4,3,60
1512357048825495,20,17,-52,-18,-4,0,-2,13
1512357048846522,-45,-28,30,-21,-1,-1,-11,-19
1512357048846522,21,-29,-47,-6,2,0,1,-13
1512357048848521,-31,-11,11,19,-6,-7,-6,-25
1512357048848521,10,-1,2,-19,4,1,2,26
1512357048869526,46,15,13,5,-6,-1,3,41
1512357048869526,-51,-5,26,9,2,1,1,-32
1512357048870527,-13,-10,-9,-6,0,-1,-11,-4
1512357048870527,-10,-9,-12,1,-1,1,1,-35
1512357048883561,21,-3,-4,2,2,1,1,33
1512357048883561,-1,23,29,29,-12,-10,-10,17
1512357048885562,15,-11,-26,-37,10,8,8,-13
1512357048885562,-8,7,9,4,-6,-4,-8,-10
1512357048906578,-2,4,25,18,1,0,3,-24
1512357048906578,13,-11,-50,3,-7,-6,-11,-67
1512357048908618,12,21,54,-5,1,1,1,18
1512357048908618,-25,-8,-24,4,3,0,-1,1
1512357048920605,-29,18,-2,-3,-4,1,8,4
1512357048920605,31,-28,37,-6,0,0,-5,-17
1512357048927610,-35,-24,-14,10,-3,-5,-1,7
1512357048927610,10,9,4,-31,-1,3,7,-14
1512357048943624,-15,-9,-25,12,-5,-4,-3,-16
1512357048943624,-36,46,42,-15,-1,-1,12,91
1512357048945604,9,-8,-16,0,0,-4,-6,12
1512357048945604,-2,-18,6,14,-1,1,4,45
1512357048966632,2,-14,-5,0,-3,-5,-7,16
1512357048966632,-6,17,0,6,2,1,0,10
1512357048968621,-5,-15,-26,-4,0,1,3,7
1512357048968621,21,23,42,2,-1,-2,-1,-14
1512357048980643,38,40,-23,-2,3,0,-2,-7
1512357048980643,-34,-56,-48,-3,-2,-4,-6,-56
1512357048987634,15,-18,-13,6,-8,-1,11,9
1512357048987634,-31,-13,5,-1,1,-3,-7,-26
1512357049003647,-12,-3,-5,-3,2,4,3,21
1512357049003647,17,9,30,-5,-6,-4,-10,-14
1512357049005647,27,35,15,24,10,5,0,-32
1512357049005647,16,0,-24,-18,-8,-6,-2,-21
1512357049026663,-10,12,-5,27,-7,-6,-5,-16
1512357049026663,8,-15,-6,-50,0,0,1,-36
1512357049027662,-52,8,-5,1,-4,-1,-5,-20
1512357049027662,25,6,1,16,3,4,3,18
1512357049040672,-8,-29,-6,-8,1,-1,-4,-24
1512357049040672,16,17,-4,5,-3,-3,3,4
1512357049047678,-5,0,-11,-13,2,-2,-7,-9
1512357049047678,3,8,1,-12,-1,1,2,5
1512357049063688,-22,-9,8,-1,-5,-5,-1,23
1512357049063688,29,11,-21,1,12,7,3,18
1512357049065690,2,2,38,4,-3,-4,-9,4
1512357049065690,3,-2,-17,6,-5,-3,5,16
1512357049086723,14,29,36,-15,-1,-2,-8,10
1512357049086723,-28,-39,-34,-1,-1,1,-3,35
1512357049087724,5,-29,-3,6,-7,-1,10,34
1512357049087724,-22,18,0,-29,-4,0,-9,-75
1512357049100732,-10,-2,-10,-3,1,-1,0,12
1512357049100732,17,-15,4,2,2,-1,6,9
1512357049107723,12,5,-19,11,-4,-6,-4,-3
1512357049107723,-25,-13,44,-10,-3,2,1,26
1512357049123789,1,8,-18,6,2,0,-1,5
1512357049123789,-39,7,-2,-5,-1,4,-5,-61
1512357049125762,16,-11,9,11,2,1,0,27
1512357049125762,10,37,11,13,0,-3,-4,11
1512357049146748,-2,-12,-22,-14,0,2,1,-38
1512357049146748,5,-6,7,21,-2,-2,-5,13
1512357049147748,34,0,1,-20,-3,2,5,-6
1512357049147748,-7,-11,-18,7,4,0,0,63
1512357049159757,5,11,20,-6,-2,-3,-8,-19
1512357049159757,-11,24,-44,-2,-3,-3,2,-3
1512357049168776,-3,1,9,6,3,-3,1,7
1512357049168776,-17,-19,-39,5,1,-2,-5,-71
1512357049183773,31,-3,12,9,4,7,12,18
1512357049183773,-4,2,-28,-23,-5,0,1,-10
1512357049185774,-6,25,10,4,-6,-8,-14,-42
1512357049185774,-7,-11,-65,10,-2,-6,-7,10
1512357049206791,-43,-65,29,-8,1,-1,-3,-22
1512357049206791,-9,-6,-19,-2,3,1,1,3
1512357049207790,-6,26,-2,1,-8,-3,5,-7
1512357049207790,-4,-14,-10,-4,-2,2,1,7
1512357049228822,-5,6,28,-12,-7,-5,1,44
1512357049228822,41,42,-33,7,-1,-5,-9,-14
1512357049231807,7,-6,-6,-7,-3,-1,-2,21
1512357049231807,-19,-25,28,14,3,1,2,1
1512357049243869,16,12,-33,0,-3,-3,-3,-17
1512357049243869,-28,-8,46,3,1,3,7,49
1512357049245819,-9,4,4,-22,3,0,-3,-5
1512357049245819,-23,-23,8,2,-2,1,4,-2
1512357049266832,23,-3,33,5,2,2,0,9
1512357049266832,18,-1,-11,-11,0,-3,-2,-21
1512357049267832,-16,-14,-19,-2,-7,-4,-8,-17
1512357049267832,7,7,18,9,2,0,4,33
1512357049279851,24,10,-10,38,5,2,0,-70
1512357049279851,5,12,-4,-43,-8,-1,-10,19
1512357049288846,-33,-25,-16,-5,-2,-2,7,42
1512357049288846,12,16,44,-14,-4,3,4,5
1512357049311871,-15,-3,-28,23,-3,-5,-15,-60
1512357049311871,-3,-7,49,-3,-1,0,6,-2
1512357049312869,-7,-18,-47,-1,3,-2,-1,14
1512357049312869,31,-8,-20,3,-6,-5,-3,5
1512357049326873,-19,15,-11,-17,5,5,1,11
1512357049326873,56,17,53,18,-2,-5,-4,-27
1512357049327875,-29,-21,-5,-16,0,0,-3,-10
1512357049327875,-16,-4,9,7,-2,-3,-1,-8
1512357049339905,1,-7,-30,-10,-1,0,4,35
1512357049339905,20,10,-36,-5,2,1,-1,1
1512357049348903,22,31,21,29,2,2,5,-16
1512357049348903,5,-30,6,-30,-6,-8,-6,23
1512357049363905,-25,-22,1,-16,-9,-1,-2,36
1512357049363905,-32,18,26,5,12,6,4,-37
1512357049365903,19,-25,6,-7,-4,-2,5,58
1512357049365903,8,19,30,12,-1,-2,-8,-57
1512357049386928,-45,-24,-15,4,0,1,0,32
1512357049386928,-15,-20,13,-7,-5,-6,-2,-16
1512357049387928,16,4,-26,1,-2,3,4,18
1512357049387928,-7,17,4,0,1,-2,-3,-9
1512357049399941,28,-10,-24,18,0,-6,-2,13
1512357049399941,-25,13,9,-23,-8,-2,-2,-12
1512357049408932,33,-22,-12,8,4,-2,-10,-55
1512357049408932,-33,14,6,-18,-6,-2,0,21
1512357049423974,41,0,-46,11,1,0,6,-2
1512357049423974,5,1,7,3,0,5,3,29
1512357049425970,-3,16,0,-19,-2,2,2,-35
1512357049425970,42,20,-28,-3,6,1,3,-2
1512357049445980,4,-8,21,-2,-3,-4,-4,8
1512357049445980,30,2,-7,16,3,-1,4,50
1512357049452986,-14,4,38,-1,0,0,-4,-56
1512357049452986,-22,-5,-14,10,-9,-5,1,34
1512357049459990,15,5,12,-31,0,-1,-5,-4
1512357049459990,-10,2,25,19,-2,-2,-9,-12
1512357049468987,-4,24,18,-26,3,2,7,29
1512357049468987,-42,-27,-38,-3,-2,-4,-11,2
1512357049483996,24,24,49,9,0,1,3,-16
1512357049483996,-27,-29,-7,9,-5,-4,-2,-34
1512357049485987,10,5,-27,-8,3,4,0,24
1512357049485987,0,4,15,3,-2,-1,5,-23
1512357049506025,1,11,40,-7,0,-2,5,45
1512357049506025,-8,-4,-20,15,3,-1,-5,-38
1512357049508001,-2,-1,6,12,-5,-1,3,2
1512357049508001,25,13,8,0,11,8,14,102
1512357049520023,-45,-28,-14,0,-6,-2,-5,-72
1512357049520023,2,-7,12,-18,-2,-5,-3,47
1512357049529074,15,3,20,5,-6,-6,-9,-5
1512357049529074,3,1,33,5,-7,-2,-2,-30
1512357049544103,-9,34,-25,9,7,3,-1,-10
1512357049544103,-12,-21,-15,-18,-7,-2,-6,-58
1512357049545082,8,5,18,-29,-4,-3,-3,24
1512357049545082,-7,-14,1,7,2,-1,-2,-26
1512357049567114,10,0,-51,3,2,1,3,6
1512357049567114,27,6,-8,2,-5,-1,2,10
1512357049568113,-6,11,-31,16,-2,-2,-2,27
1512357049568113,-21,-19,16,7,4,-2,-4,-25
1512357049589123,-5,-29,-17,-45,-11,-3,0,48
1512357049589123,-6,5,14,14,8,3,3,27
1512357049590113,0,-14,-10,2,1,-2,-5,-1
1512357049590113,31,17,-25,-3,-4,0,3,22
1512357049604138,-47,-3,26,-6,-8,-5,-5,-11
1512357049604138,0,-14,-10,3,-1,-3,1,24
1512357049605140,-20,-18,-22,13,2,-2,2,22
1512357049605140,22,29,10,7,-6,-2,-5,-17
1512357049626142,21,18,12,-23,13,6,11,67
1512357049626142,-10,-19,-5,-1,-5,-1,-5,-44
1512357049628140,-17,-14,10,13,-5,-4,-6,-37
1512357049628140,9,14,-16,1,6,5,4,-5
1512357049649167,8,-13,-64,3,-3,-2,-1,20
1512357049649167,-14,4,29,4,-7,-6,-1,31
1512357049650167,-21,-13,-22,13,2,1,3,-3
1512357049650167,33,-33,-8,3,-6,-5,-7,-22
1512357049664178,-11,18,22,-21,1,2,-2,-16
1512357049664178,1,4,-7,-1,0,-3,4,42
1512357049665178,-26,-5,3,7,-4,-5,-9,-60
1512357049665178,-25,-25,17,-4,3,-1,-1,3
1512357049686193,-3,-21,3,2,-7,-7,-9,-45
1512357049686193,-1,12,8,7,0,2,5,2
1512357049688204,2,6,15,-11,1,4,4,16
1512357049688204,-15,-8,-66,-10,-2,-6,-9,-24
1512357049709224,27,21,13,8,-2,-2,-2,15
1512357049709224,-58,-47,18,-5,4,0,-2,10
1512357049710221,0,15,17,8,-1,2,5,16
1512357049710221,-12,-7,-29,-19,-7,-2,-8,-74
1512357049723223,14,11,10,5,18,7,7,11
1512357049723223,-3,33,-8,-5,-14,-7,-5,-9
1512357049737226,-4,-43,18,-11,3,0,-1,-6
1512357049737226,13,15,8,-1,1,2,4,22
1512357049746233,-22,-24,1,-5,-5,-4,-2,44
1512357049746233,-2,4,3,-11,1,-2,-11,-44
1512357049748235,-26,17,12,-1,-2,-7,-5,7
1512357049748235,25,17,-8,1,-5,-1,2,33
1512357049769272,-51,-25,20,3,-5,-1,-3,-58
1512357049769272,37,6,-26,19,-7,-8,-14,-13
1512357049770250,15,1,-16,-33,0,1,-5,-24
1512357049770250,-12,5,56,12,-1,-2,0,-23
1512357049783298,3,14,-32,-4,-2,4,4,-16
1512357049783298,25,15,19,11,-1,-1,0,-18
1512357049790361,-2,8,0,-3,1,3,8,23
1512357049790361,15,11,2,-12,-2,-4,-7,38
1512357049814333,5,13,-5,15,0,-1,-3,-52
1512357049814333,-3,-12,-7,-3,-2,0,7,30
1512357049815321,10,28,-3,-20,-2,0,-6,-62
1512357049815321,3,-34,-57,-13,3,3,1,25
1512357049829343,-36,-6,0,22,-8,-8,0,40
1512357049829343,-11,-14,9,-6,11,4,1,-13
1512357049831335,33,10,18,19,-9,-5,-3,-5
1512357049831335,-48,2,45,-13,6,5,6,14
1512357049843359,25,2,-12,8,-7,0,7,17
1512357049843359,-7,8,-16,-11,-1,-4,-14,-32
1512357049850364,15,-14,25,-4,8,8,8,33
1512357049850364,15,29,7,-3,-14,-12,-8,-48
1512357049866358,2,-5,23,12,5,1,-3,36
1512357049866358,17,-9,-21,-14,-1,2,6,40
1512357049868362,-18,-17,-9,6,-6,-6,-7,-8
1512357049868362,19,-10,-1,12,-1,0,-2,13
1512357049889374,23,9,-3,-12,2,-1,-5,-8
1512357049889374,15,31,-16,-10,-8,-2,4,39
1512357049895438,-31,-21,-18,4,-2,0,5,9
1512357049895438,58,-6,12,8,2,2,4,12
1512357049903384,5,-11,0,-16,-7,-4,-7,3
1512357049903384,-7,0,26,-2,8,7,2,-26
1512357049910411,25,27,-56,-16,-3,-2,-4,5
1512357049910411,-37,-34,-22,-3,-3,-3,0,-20
1512357049926423,1,-2,26,4,-1,-3,2,9
1512357049926423,-17,-48,-32,16,-2,-1,2,16
1512357049928411,14,20,-26,3,2,-4,-10,-8
1512357049928411,-1,10,17,18,3,1,-2,-8
1512357049949417,-19,-18,-23,-7,-5,-5,-6,-7
1512357049949417,10,13,9,-8,0,-1,3,5
1512357049950417,29,6,5,30,-3,0,-3,16
1512357049950417,-41,-2,19,-14,-5,0,4,-4
1512357049963441,52,-5,-38,-11,14,6,-4,-12
1512357049963441,2,62,34,0,-3,-4,-2,-2
1512357049970469,27,-42,25,-2,-5,-2,4,17
1512357049970469,-64,11,-13,6,-2,-5,-9,-77
1512357049986444,8,-14,10,9,-1,-1,2,16
1512357049986444,31,24,7,-3,4,3,3,22
1512357049988459,-30,-2,9,1,2,0,6,13
1512357049988459,6,4,14,1,-7,-6,-9,41
1512357050009477,-2,28,24,-9,2,1,1,-33
1512357050009477,-4,-35,-20,4,-7,-4,-5,-26
1512357050010480,-17,18,-13,8,4,-1,1,7
1512357050010480,13,-39,-6,-15,19,14,9,4
1512357050023494,-7,40,21,-11,-9,-2,-2,-22
1512357050023494,2,-6,-48,-10,-4,-1,0,4
1512357050030473,-32,1,42,0,-8,-6,-4,-25
1512357050030473,24,-14,-9,30,-8,-7,-5,0
1512357050046501,-10,-19,-6,-42,10,4,-6,-51
1512357050046501,-16,14,10,4,-1,0,7,17
1512357050048504,13,-13,5,7,-7,-9,-13,-54
1512357050048504,23,-2,-23,-20,2,-1,-4,19
1512357050069510,-5,4,8,16,-7,-2,0,-14
1512357050069510,20,2,-7,-5,-5,-5,-7,-4
1512357050070501,-18,4,1,2,6,8,8,-15
1512357050070501,9,-3,24,-24,-2,-1,5,23
1512357050082570,-1,-32,-92,11,-7,-4,-3,35
1512357050082570,-3,15,25,1,3,0,-1,-70
1512357050091576,9,-15,19,-1,-5,-1,3,21
1512357050091576,-16,24,8,-12,9,3,6,48
1512357050106590,3,11,36,13,-5,-2,1,-8
1512357050106590,-11,-29,-59,-19,-6,-2,-7,22
1512357050107578,4,-18,-7,-5,-4,-4,-2,12
1512357050107578,-9,21,-9,9,-3,-4,1,6
1512357050129606,-27,-14,12,2,1,-2,-7,-2
1512357050129606,-19,-36,30,0,-1,-6,-5,10
1512357050130597,-17,3,-58,-22,-5,-5,-6,12
1512357050130597,3,-6,-13,4,-2,1,3,-16
1512357050142603,-3,0,-2,15,-5,-3,1,45
1512357050142603,21,-6,21,7,1,1,-6,-40
1512357050151610,-19,1,-26,-16,4,0,-2,16
1512357050151610,-16,3,23,11,-3,2,0,-13
1512357050166630,4,3,18,-14,-3,-4,-3,-8
1512357050166630,15,14,11,9,0,-1,-1,14
1512357050168633,1,-16,-20,-18,0,1,0,-3
1512357050168633,3,9,-8,12,-7,-6,-4,6
1512357050188655,0,-3,7,5,8,2,-4,-7
1512357050188655,1,10,76,-11,-4,-1,3,-1
1512357050190637,-28,-3,14,2,3,0,2,-2
1512357050190637,9,-21,-26,-5,-2,0,-4,-15
1512357050202665,-21,-3,39,5,-5,-3,4,7
1512357050202665,-7,7,-17,9,5,1,4,4
1512357050211655,17,8,14,11,1,-3,0,17
1512357050211655,-15,-3,-5,-12,-3,0,-1,5
1512357050226676,8,0,15,1,-1,1,2,0
1512357050226676,-3,-18,-49,0,0,0,-3,11
1512357050227672,1,4,-17,4,-5,1,3,22
1512357050227672,-20,19,22,8,8,1,-5,-13
1512357050248697,39,-6,-57,-6,-9,-7,-11,-36
1512357050248697,-33,-11,-1,-9,-1,2,4,5
1512357050250679,16,1,27,16,0,-1,0,34
1512357050250679,10,3,2,-10,-2,0,0,-20
1512357050262688,-6,6,-1,3,-4,-4,0,16
1512357050262688,3,-31,-20,4,5,-3,-3,-14
1512357050271696,2,0,26,1,-2,-1,-5,-34
1512357050271696,-5,7,-19,0,1,2,3,23
1512357050286772,-10,10,20,8,-7,-4,-2,-20
1512357050286772,-4,5,-10,-12,3,-1,-5,-3
1512357050287761,-26,2,21,-2,0,-3,-5,23
1512357050287761,9,-12,-4,8,-6,-4,-5,-15
1512357050308773,-30,-21,-41,-16,1,2,4,5
1512357050308773,-11,31,8,14,-13,-3,1,16
1512357050310775,-20,-18,7,-8,5,-2,-11,-85
1512357050310775,-9,-34,-4,-5,-1,1,3,10
1512357050322783,4,19,8,-3,0,-2,-1,7
1512357050322783,-2,1,-9,17,2,1,4,23
1512357050332799,29,46,16,1,3,4,9,-38
1512357050332799,16,-1,3,3,-3,-4,-10,-52
1512357050346820,-34,-30,-15,-15,2,0,-3,-56
1512357050346820,18,-22,17,-1,1,-1,-2,-16
1512357050347809,10,13,10,9,1,1,1,-8
1512357050347809,-13,-17,-46,-1,-7,-7,-7,28
1512357050367833,37,10,21,12,4,5,1,4
1512357050367833,-16,-25,-12,-40,10,1,-2,0
1512357050376838,23,-17,-45,-20,-17,-9,-2,50
1512357050376838,25,18,0,39,4,-1,-5,-42
1512357050382843,7,-26,0,-10,-1,-1,-2,26
1512357050382843,-21,-4,18,8,-4,-1,-1,-10
1512357050391857,9,7,-4,-2,-6,0,6,22
1512357050391857,-1,15,9,-17,-1,-1,4,24
1512357050406853,16,4,-14,9,-2,-2,-1,7
1512357050406853,3,24,11,1,3,1,0,-4
1512357050407853,-10,-4,42,8,3,1,2,-28
1512357050407853,2,-5,15,-10,-5,-2,0,27
1512357050428877,-2,4,-30,1,10,6,1,-2
1512357050428877,3,-2,51,17,-12,-4,0,-24
1512357050430871,-11,-18,-77,33,0,1,-4,14
1512357050430871,-21,20,-23,-69,13,0,-10,-40
1512357050442876,1,-12,36,4,-8,-4,2,88
1512357050442876,-12,-15,-32,-6,3,0,-6,-59
1512357050451882,-9,-26,16,-7,-3,-2,-2,21
1512357050451882,13,7,12,22,-7,2,10,11
1512357050466893,-4,8,-53,16,5,1,4,14
1512357050466893,-1,10,21,-32,6,2,0,13
1512357050467893,16,5,-38,-9,-5,-3,-3,-49
1512357050467893,-26,-21,-12,1,-7,-2,0,-6
1512357050488922,-33,16,29,8,-1,-1,10,22
1512357050488922,11,-8,13,13,-4,-1,-10,-46
1512357050490923,-16,10,-28,-14,5,2,9,36
1512357050490923,-19,-21,12,0,-4,-1,-7,-2
1512357050510946,25,18,-4,2,-4,-2,4,-34
1512357050510946,-7,2,-25,5,4,-2,-4,83
1512357050512926,-14,-5,17,-4,-5,-5,-4,-5
1512357050512926,23,-7,-17,3,4,3,2,-42
1512357050525965,-14,-9,35,-3,-4,-3,-2,-5
1512357050525965,16,16,-51,-6,-2,1,-1,-8
1512357050527935,-3,-28,12,-1,9,4,-1,45
1512357050527935,-19,-31,49,9,-14,-10,-2,24
1512357050548963,5,20,11,-19,5,4,-3,-32
1512357050548963,3,-13,-60,2,-4,1,7,9
1512357050550953,6,11,13,17,-2,0,4,-7
1512357050550953,-7,15,-7,-15,-1,-3,-5,4
1512357050570985,15,9,25,14,-4,0,3,34
1512357050570985,12,6,9,-6,7,1,-3,-33
1512357050572981,9,-9,-25,1,-1,0,-1,29
1512357050572981,1,-4,-6,-3,-2,5,11,19
1512357050585977,15,43,0,-4,-4,-5,-8,-48
1512357050585977,6,13,24,19,0,-1,-3,-7
1512357050587981,1,-44,1,-27,-4,-6,-5,-24
1512357050587981,10,10,-17,4,-2,1,3,33
1512357050609033,-25,-30,-3,6,-2,-4,-5,-13
1512357050609033,14,15,19,6,5,6,13,10
1512357050611005,-28,19,17,-9,-5,-5,-8,-23
1512357050611005,-3,4,8,-6,-1,-2,3,8
1512357050631023,-5,-28,-7,-11,1,-8,-9,-14
1512357050631023,-5,-4,4,-9,-1,-6,-6,27
1512357050634011,-8,4,-36,12,-5,-5,-2,22
1512357050634011,44,22,-6,0,0,2,7,-12
1512357050646032,-10,-1,36,9,-6,-7,-17,-25
1512357050646032,-15,-22,19,-14,-4,-3,2,46
1512357050648038,12,18,-34,-15,-3,-2,-3,-34
1512357050648038,20,25,-29,19,3,-2,-1,29
1512357050669056,-37,-42,12,-18,1,5,5,15
1512357050669056,-29,-32,-22,5,-7,-4,-4,-13
1512357050670041,5,9,58,10,5,6,0,2
1512357050670041,-13,3,-49,-8,-5,-8,-12,-51
1512357050691051,19,18,28,0,2,4,10,36
1512357050691051,-3,16,-27,-5,-5,-7,-4,-5
1512357050693053,-10,2,14,-2,1,3,6,1
1512357050693053,-16,-1,18,-12,4,1,-12,-30
1512357050706062,5,-43,-36,-4,-1,-1,-2,-8
1512357050706062,1,3,14,6,-5,-4,-3,-8
1512357050712066,5,8,-15,-16,-2,-5,-3,-2
1512357050712066,1,-20,-3,13,-2,0,6,42
1512357050729108,2,10,-30,-20,0,-1,-12,-52
1512357050729108,-10,-9,1,4,1,4,7,10
1512357050731079,11,5,-3,-1,-3,-2,-3,5
1512357050731079,-22,-7,5,-5,1,-1,3,10
1512357050751093,-19,9,-21,0,5,2,1,21
1512357050751093,16,-12,2,-6,-5,-3,-7,-44
1512357050753098,15,11,-10,4,-1,-2,5,-2
1512357050753098,1,-4,25,1,0,-2,-5,3
1512357050766105,-12,27,-2,4,-1,-2,-5,-8
1512357050766105,-16,-29,-14,3,-2,-2,1,7
1512357050773110,0,-9,-54,-5,-1,0,-5,-13
1512357050773110,-7,-9,10,-8,-2,0,-3,-4
1512357050789146,19,20,-2,2,-1,5,14,1
1512357050789146,-10,6,3,-2,0,-9,-17,1
1512357050791147,-17,-5,25,4,-1,0,5,-2
1512357050791147,12,-8,-41,1,-2,6,20,3
1512357050811161,5,-10,-9,-2,-4,-8,-16,1
1512357050811161,-15,16,3,5,10,6,6,0
1512357050813137,18,-19,-27,-10,-2,0,-6,-2
1512357050813137,7,72,88,9,-1,-5,1,3
1512357050826166,14,-20,20,-12,1,7,3,2
1512357050826166,-10,-19,-67,9,-1,-5,-22,-14
1512357050832161,-14,-1,91,-4,-5,-7,22,12
1512357050832161,-12,-9,2,3,3,2,-25,-7
1512357050849177,15,16,-3,4,-3,-4,1,0
1512357050849177,5,-4,-2,-4,-1,4,5,3
1512357050850166,-6,16,3,7,1,0,-12,-1
1512357050850166,-6,-14,-22,-2,-3,-9,-7,-25
1512357050871221,-7,-8,-1,-1,1,4,7,0
1512357050871221,5,9,8,-3,-4,-2,-1,3
1512357050873180,7,-4,-12,0,-3,-2,-1,-4
1512357050873180,-8,-14,8,-3,-1,-3,-1,2
1512357050886200,1,-3,-26,-1,-1,-2,-2,-7
1512357050886200,8,13,21,-5,-4,0,6,1
1512357050892203,0,0,0,-1,-2,-6,-5,1
1512357050892203,-6,-22,-20,-1,-2,1,1,3
1512357050909229,-6,3,4,3,0,0,2,-1
1512357050909229,6,1,9,-3,-4,-2,-2,3
1512357050910223,-4,-5,-2,0,1,-3,8,-5
1512357050910223,-2,0,-8,-1,-1,-2,-2,3
1512357050932221,9,-2,5,0,-2,-2,7,2
1512357050932221,-10,8,14,-4,-3,-1,3,-1
1512357050934225,0,-8,-20,-1,0,3,-5,-3
1512357050934225,-7,0,-14,-3,-4,-1,3,-2
1512357050946233,2,-2,7,2,4,-4,-5,0
1512357050946233,7,4,2,-4,-1,1,8,2
1512357050952237,-4,2,0,5,-1,-2,-9,-2
1512357050952237,-5,-11,2,-16,-4,0,1,2
1512357050970265,-5,-3,2,2,-1,-2,-2,0
1512357050970265,3,2,-19,-11,-3,-2,0,1
1512357050972250,-5,1,4,2,1,1,0,0
1512357050972250,-2,-8,3,5,-1,-3,-3,-3
1512357050991374,-6,-1,-9,-3,-1,0,-1,-3
1512357050991374,1,2,17,1,-2,-2,0,0
1512357050993369,4,-2,-6,-3,-5,-4,-8,-3
1512357050993369,1,1,1,1,0,0,3,1
1512357051005367,-4,-5,-16,-1,0,0,-5,-2
1512357051005367,-1,-5,7,3,0,-1,0,0
1512357051014374,-1,2,7,-3,0,2,-1,-1
1512357051014374,-2,-1,-3,2,-1,-3,-3,0
1512357051029399,-3,-4,-5,-4,-2,-1,-1,-2
1512357051029399,2,-5,8,4,2,2,3,1
1512357051030385,1,3,-4,-5,-4,-5,-8,-2
1512357051030385,-3,0,-10,3,4,0,1,0
1512357051051422,-3,-8,-20,-11,-8,-3,-4,-2
1512357051051422,1,-1,-2,-2,4,0,2,-1
1512357051053426,-2,-2,4,0,1,0,-1,-2
1512357051053426,1,4,7,3,5,1,2,0
1512357051065410,-2,-3,10,3,-2,-1,-2,-3
1512357051065410,1,0,-2,-8,-5,-4,-4,-3
1512357051074439,-2,-7,-16,-5,-3,0,1,0
1512357051074439,1,-2,-4,-1,-2,-1,-1,0
1512357051088484,-3,3,11,5,-1,-1,-1,-1
1512357051088484,-5,0,0,0,-1,-2,-1,-2
1512357051090462,0,-3,4,1,1,1,1,-1
1512357051090462,-1,-2,-12,-7,-3,-4,-3,-1
1512357051111500,-2,-3,-6,-1,1,0,-2,-1
1512357051111500,0,1,-1,0,-2,-3,-3,-1
1512357051113477,-2,0,-10,-3,-1,1,2,0
1512357051113477,-2,-2,22,1,0,0,-2,-2
1512357051125490,-3,0,-31,-3,-1,-2,-1,-2
1512357051125490,1,0,5,0,-1,1,1,1
1512357051134502,-3,-1,3,0,0,-2,0,-3
1512357051134502,1,-1,7,2,-2,0,0,0
1512357051149512,-2,2,10,1,-1,-2,-2,-1
1512357051149512,0,-1,-2,2,-2,-1,1,-2
1512357051150504,0,1,-2,0,-1,1,-1,-3
1512357051150504,0,-1,-6,-2,-2,-1,-2,-1
1512357051171521,1,1,1,-2,1,1,-1,2
1512357051171521,-2,-3,-9,0,-2,-2,0,-1
1512357051173520,-1,2,17,2,0,-1,-2,0
1512357051173520,-2,2,10,7,1,1,0,-1
1512357051185542,-4,-8,-42,-27,-7,-5,-2,-4
1512357051185542,-1,1,12,2,-1,0,-2,-2
1512357051193606,-2,0,-6,-2,0,0,0,-1
1512357051193606,0,1,14,7,1,0,1,-2
1512357051208567,1,2,8,9,2,1,-1,-2
1512357051208567,-2,-1,-18,-4,-2,-2,-2,-1
1512357051210546,-3,-4,7,-2,-2,-2,-1,-2
1512357051210546,-3,-2,-11,-4,-3,-2,0,-2
1512357051232571,0,2,14,4,1,1,-7,-6
1512357051232571,-1,0,1,-1,-2,0,8,3
1512357051233562,0,0,-4,3,0,-1,-1,-1
1512357051233562,-3,-2,-13,-5,-1,1,1,2
1512357051244579,0,-3,7,-2,-3,-1,0,-3
1512357051244579,0,2,10,4,1,1,-3,-2
1512357051254587,-1,-2,-22,-3,-1,-3,-1,-1
1512357051254587,1,3,22,5,3,0,0,-1
1512357051268589,0,-1,-26,-3,-1,0,2,1
1512357051268589,-4,-8,-8,-6,-4,-2,-5,-3
1512357051274609,0,-2,2,-2,-1,0,-1,1
1512357051274609,-3,-10,-9,-9,-5,-2,-3,-5
1512357051291680,2,5,25,12,2,0,1,2
1512357051291680,0,4,2,2,0,-2,0,-1
1512357051292677,0,-3,-2,-2,-2,0,-2,-4
1512357051292677,2,-1,-2,1,0,-2,-8,1
1512357051305689,-3,-2,4,-2,-2,-2,4,-2
1512357051305689,-1,-2,-6,-4,-2,-1,-2,-1
1512357051313741,0,0,7,-1,-1,-2,0,-1
1512357051313741,-2,-1,-13,-4,-1,0,-3,0
1512357051336706,-1,1,13,-1,1,0,-2,0
1512357051336706,0,-3,-19,-3,-1,-1,-3,-3
1512357051337688,-2,3,8,1,0,2,0,0
1512357051337688,-3,-6,-20,-6,-4,-3,1,-2
1512357051351718,-1,-4,3,-2,-1,-2,-3,0
1512357051351718,0,2,11,3,1,0,1,0
1512357051352694,-2,-4,-5,-2,-2,0,-2,0
1512357051352694,0,3,16,4,-2,1,1,0
1512357051364727,-3,-10,-35,-11,-4,-4,-2,-2
1512357051364727,-1,1,11,0,0,0,-3,-1
1512357051373733,0,-1,-14,-1,-1,-2,-1,0
1512357051373733,0,2,-2,7,0,-1,0,-1
1512357051388732,1,3,8,-8,0,0,2,1
1512357051388732,-5,-10,-22,-8,-6,-4,-2,-1
1512357051390733,-2,-3,-12,-3,-2,-2,-1,-2
1512357051390733,-1,-3,2,-1,-2,1,1,-1
1512357051411773,-1,4,11,6,1,1,-2,-1
1512357051411773,0,0,4,1,-1,-1,0,-1
1512357051412737,0,0,14,0,-2,-2,0,-2
1512357051412737,-1,-2,-18,-7,-2,-1,-1,-2
1512357051433749,-1,-1,7,2,0,0,-1,0
1512357051433749,-1,-2,1,-1,-1,-1,-1,-1
1512357051435751,-1,-2,2,1,-2,0,-2,1
1512357051435751,-1,0,1,-1,-1,-1,-1,-1
1512357051448761,-2,1,3,-2,-2,-1,-2,-1
1512357051448761,-1,-3,-2,-2,-1,0,-1,0
1512357051450762,1,0,-1,-1,-2,-2,0,-1
1512357051450762,-2,-1,-2,-2,-2,-3,0,-1
1512357051471794,-1,-2,0,2,-1,-2,0,0
1512357051471794,-2,1,2,3,0,0,0,0
1512357051472781,-3,-1,-1,-3,-1,1,-2,-1
1512357051472781,-2,-3,-4,-1,-1,0,-1,-1
1512357051493793,0,0,0,2,0,0,0,-1
1512357051493793,1,-1,1,-1,0,1,0,1
1512357051495794,-2,0,-4,-2,-2,-2,-3,-1
1512357051495794,-2,0,1,-2,-2,-1,0,-1
1512357051508817,-1,-1,-1,2,-3,-1,-1,-1
1512357051508817,1,1,-1,-2,0,-2,-1,-2
1512357051514820,-1,0,-1,-1,0,-1,-1,-1
1512357051514820,1,0,-1,-2,0,-2,-3,-2
1512357051531819,-3,-2,-1,-1,-1,0,0,-2
1512357051531819,-1,-1,-1,-1,-1,0,0,-2
1512357051532820,-1,-2,0,-1,-3,0,0,0
1512357051532820,-1,1,-1,0,-1,-1,-1,-3
1512357051553848,-1,0,-3,-2,-1,-1,-2,1
1512357051553848,1,-2,0,-2,-1,-1,-1,-1
1512357051555837,-2,-1,-1,-1,-1,-2,0,-1
1512357051555837,-1,-1,-3,-1,-2,-3,1,-3
1512357051568855,0,-1,0,-1,-1,-3,-2,-1
1512357051568855,-2,-2,0,-1,-2,-2,-1,-1
1512357051570856,-1,0,-1,-2,-1,-3,0,-1
1512357051570856,-1,-2,-3,-2,-1,0,0,-1
1512357051591874,0,-1,-2,0,-1,0,-1,-2
1512357051591874,0,0,0,-2,-1,-2,-1,2
1512357051592863,-1,-1,-2,0,-1,1,-1,0
1512357051592863,-2,-1,2,-2,0,-1,-1,1
1512357051613899,-3,-1,-1,0,-1,1,-1,-2
1512357051613899,0,-2,-1,-1,-2,-1,-1,-1
1512357051615888,0,-2,-2,-1,-1,0,-1,1
1512357051615888,-1,-1,-3,-1,0,-1,-1,-1
1512357051627908,-1,-1,-1,-2,0,-1,0,-2
1512357051627908,0,-1,-2,-1,-2,0,-2,-1
1512357051634893,-1,-2,0,0,0,-2,-1,0
1512357051634893,-2,-1,-2,-1,-2,-1,-2,0
1512357051651905,0,-1,-2,-1,0,-1,-1,-3
1512357051651905,-2,0,-1,0,-1,-1,0,-1
1512357051652905,0,-1,-1,0,-1,-1,0,-1
1512357051652905,1,-2,-1,-1,0,0,1,2
1512357051673946,0,0,1,0,-1,-1,-2,0
1512357051673946,-1,-2,-2,0,-2,-2,-1,0
1512357051675946,-1,0,-2,-4,-1,-1,-1,-1
1512357051675946,-2,-1,-1,-2,-2,-1,1,-1
1512357051687940,-1,0,-2,-2,-2,-1,-3,1
1512357051687940,-1,-1,0,-2,-1,-1,0,-2
1512357051694966,0,-2,-1,0,-2,-1,-3,-2
1512357051694966,0,-1,-1,-1,-2,-3,-1,-1
1512357051711946,0,-1,-1,-1,-2,-1,-2,-1
1512357051711946,0,1,-1,-1,-1,0,-3,0
1512357051712947,0,-1,-1,-1,-2,-2,-1,-1
1512357051712947,0,-1,-2,0,-1,-1,-2,-1
1512357051733992,-2,-1,0,0,-1,0,0,1
1512357051733992,-2,-2,-1,-3,-1,-1,-2,-1
1512357051735964,-2,0,-1,-1,0,-1,1,0
1512357051735964,-1,-1,-1,-1,-1,-3,-2,0
1512357051748001,-1,-3,-1,-2,-1,-1,-1,-1
1512357051748001,-2,-1,0,0,-1,0,0,0
1512357051755005,0,0,-2,-1,-3,-2,-1,-2
1512357051755005,-1,-2,1,-2,1,-2,0,-1
1512357051771017,0,-1,-1,-1,-1,-1,-2,0
1512357051771017,-1,-2,-2,-1,-1,-1,0,0
1512357051772997,-3,-1,-1,-1,-3,-3,-1,-1
1512357051772997,1,-1,-1,-1,0,-1,-2,2
1512357051794021,-1,-1,0,-1,-1,-2,0,0
1512357051794021,-1,-1,-1,0,-1,0,1,-1
1512357051795007,-3,-3,-1,-1,0,0,-1,0
1512357051795007,-1,-1,-1,-2,-4,-2,-1,-2
1512357051808015,-1,-1,-1,0,-1,0,-3,-1
1512357051808015,-2,0,-1,1,-1,-2,-1,0
1512357051815029,1,-1,0,-3,-1,1,-1,-1
1512357051815029,-1,-1,-1,-2,-1,-1,0,-2
1512357051831030,-2,-3,-1,-1,-2,0,1,-2
1512357051831030,-2,-1,1,-2,-1,-3,1,-2
1512357051833034,-1,-1,-2,-1,-2,-2,0,0
1512357051833034,-2,-2,-2,-1,0,1,-3,-1
1512357051854088,0,1,-2,-2,-1,-1,-1,0
1512357051854088,0,-1,-4,-2,-2,-1,-1,-2
1512357051855088,-3,0,-2,-2,0,0,-3,-2
1512357051855088,-1,-1,-2,-1,-2,-2,-1,-2
1512357051868087,0,0,-1,0,-1,-1,-2,0
1512357051868087,-1,-1,0,0,-2,-1,-2,-1
1512357051876084,0,1,-1,-2,-2,-1,0,-2
1512357051876084,-2,0,-1,-1,-1,0,-1,0
1512357051891089,-2,-2,0,-2,-2,-1,0,-1
1512357051891089,-2,-3,-1,-1,-1,-1,-2,-1
1512357051891089,-1,-3,-1,-1,1,-2,-1,-1
1512357051891089,0,0,-2,-1,-2,-1,0,-1
1512357051913088,-3,0,-2,0,-1,-3,-3,0
1512357051913088,-1,-1,-2,-1,0,1,-1,-2
1512357051914090,-2,-1,-2,0,1,-1,-1,-2
1512357051914090,-1,-2,-1,0,-1,-1,-1,0
1512357051928123,-1,-3,-2,0,-1,-2,-2,-1
1512357051928123,-2,-1,-3,-1,-3,-1,-1,-1
1512357051936119,1,-2,0,-1,-2,0,0,0
1512357051936119,-2,-2,-1,-1,-1,-3,0,0
1512357051951136,0,-2,-2,1,0,-2,-1,-2
1512357051951136,-2,-1,-1,1,1,-1,-2,-2
1512357051951136,-1,-2,0,-2,-1,-1,-1,-3
1512357051951136,0,-2,0,-1,0,-1,-2,-2
1512357051980152,-1,-2,0,-1,-1,-2,-2,0
1512357051980152,-1,-2,1,-1,-1,-1,0,0
1512357051989169,0,0,-1,0,-2,0,-1,-1
1512357051989169,0,-1,-1,0,0,1,-3,-1
1512357051990144,0,-2,-2,-2,0,0,0,-3
1512357051990144,0,-1,0,-3,-1,-1,-1,-2
1512357051996173,-1,-2,0,-2,-2,-1,-2,0
1512357051996173,-1,-1,0,-1,-1,1,-3,-2
1512357052011182,-1,0,-2,0,-1,0,-1,-2
1512357052011182,0,-1,-1,-1,-4,-1,0,-1
1512357052011182,0,0,-1,1,-2,-1,1,-2
1512357052011182,-3,0,-1,-1,-1,-1,0,0
1512357052033189,-1,-1,1,-1,-1,0,1,-1
1512357052033189,0,-2,-2,-1,0,-1,1,-2
1512357052034189,-1,-1,1,-2,0,0,-1,0
1512357052034189,0,0,-1,-1,0,0,0,-3
1512357052047214,-3,-1,-1,0,-1,0,-2,-3
1512357052047214,-2,0,-1,0,0,-4,-1,-1
1512357052056212,-1,-2,-1,-1,-2,0,-1,0
1512357052056212,-2,-1,-1,-1,-1,-2,-1,-2
1512357052071214,0,-1,-1,-3,-2,-1,0,-2
1512357052071214,-1,-1,-2,-2,-1,0,0,-2
1512357052071214,-2,0,-2,-1,1,-1,0,-2
1512357052071214,-3,0,-2,-1,-1,0,1,0
1512357052093215,0,-2,-1,-1,0,1,-1,1
1512357052093215,-2,-2,-1,-1,-1,-1,-1,0
1512357052094225,-2,-2,-1,0,-2,-2,-1,1
1512357052094225,0,-2,-1,-1,0,-1,-1,0
1512357052107248,0,1,0,0,-1,-1,0,-1
1512357052107248,1,0,-2,0,-2,1,-1,0
1512357052116232,-2,-1,-1,1,0,0,-2,1
1512357052116232,-1,-2,-1,-1,-1,0,-1,-2
1512357052131243,-2,-2,-2,0,-2,0,-1,-2
1512357052131243,-2,-3,-2,-2,-1,-1,-2,-1
1512357052132243,0,-1,-1,-2,-1,-3,0,-2
1512357052132243,-1,0,-1,-2,-2,0,-1,-1
1512357052153258,-1,-1,-1,0,-1,-2,0,0
1512357052153258,-1,0,1,0,-1,-2,-2,-3
1512357052154259,-1,-1,-1,-2,-2,-1,0,1
1512357052154259,1,-1,-2,0,-1,-2,-2,-2
1512357052167377,-2,-3,0,-2,0,-1,-1,-1
1512357052167377,-2,-2,-1,-1,0,0,0,-1
1512357052175384,-2,0,-2,-2,-3,-3,-1,0
1512357052175384,1,-1,1,-3,0,-1,0,-1
1512357052190383,0,-1,0,-1,-2,-2,-1,-1
1512357052190383,-2,0,-1,-2,1,-1,-2,0
1512357052191371,-1,-2,0,1,1,-1,-1,-1
1512357052191371,-2,-2,-2,0,0,-1,-3,-2
1512357052213387,-1,-1,-1,-2,-1,-1,-2,-2
1512357052213387,-2,-2,-1,-2,-1,-1,-1,-1
1512357052214387,0,-1,-2,-2,-1,-2,-2,-2
1512357052214387,-1,1,-1,-1,-2,-1,0,0
1512357052227411,0,0,-2,-2,0,-1,-1,-3
1512357052227411,0,-2,-2,-1,0,-1,-1,-2
1512357052235414,-2,-1,0,-1,-2,2,0,-1
1512357052235414,0,-3,-1,0,-1,-2,-2,1
1512357052250425,-1,-2,-3,0,-1,-1,0,-2
1512357052250425,0,1,-1,-1,-3,-2,-2,1
1512357052251413,0,-1,-3,-1,-1,-1,-1,-1
1512357052251413,-2,1,-1,-1,-1,0,-1,-2
1512357052273467,-2,0,-1,-1,-1,0,-3,-2
1512357052273467,0,0,0,-1,-1,-3,-2,-1
1512357052274459,-1,-1,0,0,0,-1,-2,-2
1512357052274459,0,-3,-1,0,-2,-2,-2,-3
1512357052296467,0,-2,-2,-1,0,0,0,0
1512357052296467,-1,-1,-1,-2,-1,-1,0,-1
1512357052297455,-1,-1,-1,-3,0,-2,-2,0
1512357052297455,1,-2,-1,-1,-2,-1,0,-1
1512357052310455,-2,0,-1,-1,-1,0,-2,-3
1512357052310455,-1,0,-3,-1,-2,1,0,-1
1512357052311456,-2,0,-1,-1,-2,0,-2,-1
1512357052311456,-2,1,-1,-1,0,-2,-2,-2
1512357052333484,-1,-1,-1,-2,-1,-1,-1,0
1512357052333484,-1,-1,0,-3,-1,-1,-1,-1
1512357052334486,0,-1,-2,-1,-1,-2,-1,0
1512357052334486,-1,0,-1,0,-2,-1,-1,2
1512357052347490,-1,-1,0,-1,-2,-1,-1,-1
1512357052347490,-1,-1,0,-1,-1,1,-2,-2
1512357052355508,-1,-1,-1,0,-1,-2,0,-1
1512357052355508,-2,-1,0,0,0,-1,0,-2
1512357052370497,1,0,1,-1,1,-3,1,0
1512357052370497,-1,-1,-1,-3,-2,-1,0,-2
1512357052371499,1,-2,1,-2,0,1,-1,-1
1512357052371499,-2,0,-2,-2,1,1,-1,-1
1512357052393514,-2,0,0,0,0,-1,-2,-1
1512357052393514,0,-2,-1,0,-1,-1,-1,-2
1512357052394515,0,-2,-2,0,0,-2,0,-2
1512357052394515,-1,-1,-2,0,-1,-2,-1,-1
1512357052416529,1,-2,-1,-1,-2,1,-1,1
1512357052416529,1,-1,-2,-2,-2,-2,0,0
1512357052417532,-1,-1,0,1,-2,0,-1,-1
1512357052417532,-3,-1,-1,0,0,-1,0,-1
1512357052430551,0,1,-1,0,-1,0,-2,-2
1512357052430551,-1,-1,-2,0,-1,0,-2,0
1512357052431551,-2,-1,-2,-2,-1,-2,-1,-1
1512357052431551,0,-2,-2,0,1,-1,-1,0
1512357052453581,0,0,-1,-1,-1,-2,-1,-3
1512357052453581,0,-1,-1,0,0,-3,2,1
1512357052453581,0,-1,-1,-2,-1,-1,0,-1
1512357052453581,-1,1,0,-1,-3,0,-1,-1
1512357052476602,-2,-2,0,-1,0,1,-2,-3
1512357052476602,-1,-2,-1,-1,0,-2,-3,-2
1512357052477580,-3,-1,-1,-1,0,-2,1,-3
1512357052477580,1,-1,-1,-3,-1,0,0,-2
1512357052490612,1,-2,-1,0,-1,-1,0,2
1512357052490612,-3,-1,-1,0,-2,0,-1,-1
1512357052491584,-3,-2,0,-2,-1,-2,-1,1
1512357052491584,0,-3,-2,-1,-1,0,-1,-2
1512357052513627,-2,0,-1,-2,-1,-1,0,0
1512357052513627,0,-1,0,-1,-1,-1,0,-1
1512357052514600,-1,-2,-1,0,-2,-1,-3,0
1512357052514600,0,-2,-1,-1,-1,1,0,-2
1512357052536630,0,-2,-3,-2,0,0,-2,-2
1512357052536630,0,-1,-2,-2,-2,-2,-1,0
1512357052537615,-1,-1,-2,0,-1,-1,-1,-2
1512357052537615,-1,-1,-1,0,-1,-2,-2,-1
1512357052550640,-1,-2,-1,-1,-2,-1,-1,-1
1512357052550640,-2,0,0,-1,-3,0,-1,-1
1512357052551625,0,-2,-1,-2,-1,-1,-1,-2
1512357052551625,-1,-2,-1,0,-1,0,-2,-1
1512357052573641,-1,-1,-3,-1,-2,-2,-1,0
1512357052573641,0,-2,-1,-2,-2,-3,-1,0
1512357052573641,1,0,-2,-2,-2,-1,0,0
1512357052573641,0,0,-2,-1,-2,-1,-2,0
1512357052596667,-1,-1,-2,-1,0,-2,0,-2
1512357052596667,-4,2,0,-1,-1,-2,0,-2
1512357052597658,-1,-1,0,-1,-1,-2,-2,-1
1512357052597658,-1,-2,-1,0,0,-2,0,-1
1512357052610689,-1,-2,-2,1,0,1,-1,1
1512357052610689,-1,-2,-1,-1,-1,-1,-1,-2
1512357052611669,-1,0,1,-2,-2,-1,-1,1
1512357052611669,-1,-2,-1,-2,-1,0,-1,-2
1512357052633698,0,0,0,-3,-2,-1,-1,-2
1512357052633698,-1,-3,-1,0,0,-1,0,-1
1512357052633698,2,0,-1,-1,-1,0,-3,-1
1512357052633698,-1,0,0,-3,-1,-2,-2,-2
1512357052656714,-1,-2,-1,-2,0,-1,-1,1
1512357052656714,0,0,-1,2,0,-1,1,1
1512357052657717,0,-2,-3,-2,-3,0,-2,-3
1512357052657717,-3,-1,-2,0,-1,0,-1,-1
1512357052670726,-2,0,-1,-2,-4,0,-1,-3
1512357052670726,-1,-3,-1,-2,0,-1,-1,-2
1512357052671712,0,0,-1,0,0,-2,0,1
1512357052671712,0,-1,-1,0,-1,0,-1,1
1512357052692790,-2,-1,0,-1,-1,-2,0,1
1512357052692790,-2,0,-2,-2,-2,0,-2,1
1512357052693788,-1,-2,-1,-2,0,-2,-2,-2
1512357052693788,-1,0,-1,-3,-1,0,-1,-2
1512357052716803,-1,-1,-1,-1,-1,-2,-1,0
1512357052716803,0,-3,0,-2,-1,-1,-2,-2
1512357052716803,-2,-1,1,-1,-2,-1,0,-1
1512357052716803,0,0,1,-2,0,-2,-1,0
1512357052730804,-2,-1,-3,0,-3,-2,-2,-3
1512357052730804,-3,-2,-2,-3,-2,1,1,0
1512357052731803,-2,0,-1,0,-3,-1,0,0
1512357052731803,-1,0,-1,0,-1,-1,-2,-2
1512357052752830,-1,-1,-1,0,2,0,0,0
1512357052752830,1,-2,-2,-2,-1,-3,-1,-2
1512357052753831,-2,-1,1,-1,-2,0,-2,1
1512357052753831,0,-3,-1,-1,-2,0,-1,0
1512357052776865,-2,0,-1,0,-1,-1,-1,-2
1512357052776865,-2,1,-1,-1,-1,2,-1,0
1512357052776865,0,0,0,-1,-1,-1,1,-1
1512357052776865,0,-2,-2,-1,-2,-1,-1,-1
1512357052789861,0,-1,-1,-2,0,-1,-1,0
1512357052789861,-1,-2,-2,-1,-1,-1,-2,1
1512357052797862,-1,0,-1,0,-1,0,0,-2
1512357052797862,-2,-1,0,-2,0,0,1,1
1512357052812914,0,-2,-1,0,-1,0,-1,-2
1512357052812914,-2,-1,-1,1,-1,0,0,1
1512357052813861,-2,-1,-2,-3,-1,1,-1,-1
1512357052813861,-2,0,0,0,-1,-2,-1,-1
1512357052836876,0,-1,-1,-1,-1,-1,-1,0
1512357052836876,1,-1,-2,-3,-2,-1,1,-3
1512357052836876,2,0,-2,-1,-2,0,-2,1
1512357052836876,-1,-1,0,0,-1,0,-2,0
1512357052850914,-2,-1,-1,0,-1,-2,-2,-3
1512357052850914,0,-1,0,-1,0,0,-2,-1
1512357052851892,-2,-3,0,-2,-1,0,-2,-1
1512357052851892,0,-1,-2,-1,0,-2,-1,-2
1512357052872977,-1,-1,-2,-1,0,-1,-2,0
1512357052872977,-1,-1,-1,-2,-2,0,0,-1
1512357052873966,-2,0,0,0,-1,-1,2,-3
1512357052873966,-1,-2,-1,-1,-1,-1,-1,-1
1512357052896983,-1,0,-1,-1,-2,0,-1,0
1512357052896983,-2,0,0,1,-1,0,0,-1
1512357052896983,-1,-1,-1,-1,-1,-3,-1,-1
1512357052896983,-1,-1,-3,-1,-1,-2,-1,-1
1512357052910992,1,-1,0,-1,-1,0,-2,-1
1512357052910992,-1,-2,-1,-1,-1,0,-2,-1
1512357052911997,-2,-1,-1,0,-1,-2,-1,-1
1512357052911997,-1,-2,0,-2,-1,-2,0,-2
1512357052933008,-1,-1,-1,-2,0,0,-1,1
1512357052933008,1,1,-1,-1,-2,-3,-1,-1
1512357052941027,-2,-1,-2,-1,-1,-2,-1,0
1512357052941027,-2,-1,-2,-1,0,-2,-2,-3
1512357052956046,-2,-1,-2,-2,-1,0,0,-2
1512357052956046,0,-1,1,-1,-2,-2,-1,-2
1512357052957028,-1,-1,0,-2,-1,0,-2,0
1512357052957028,-2,-2,-3,-2,-1,0,-1,0
1512357052970056,-1,-2,-1,-1,-2,0,-1,0
1512357052970056,-1,-2,0,-1,-1,-2,-2,-2
1512357052978099,1,0,-1,0,-1,-1,0,0
1512357052978099,0,0,0,1,-2,0,-2,-2
1512357052993065,-2,-1,0,0,0,0,0,-1
1512357052993065,-2,-1,-2,-2,0,-1,-1,-1
1512357052994050,-2,-2,-1,-1,0,0,0,-1
1512357052994050,-2,-2,-3,-1,-3,-1,-2,-1
1512357053016076,0,-1,-1,-2,-1,-2,-1,1
1512357053016076,0,-1,0,0,0,1,0,0
1512357053017066,0,-2,0,-1,0,0,-1,-2
1512357053017066,0,-1,0,-2,0,1,-1,0
1512357053030079,1,-2,0,-2,-2,-2,0,0
1512357053030079,-4,-1,-2,0,-2,0,-2,2
1512357053038099,-1,0,-2,0,-1,-1,-2,-1
1512357053038099,-1,-1,-1,-2,0,-1,1,-1
1512357053053113,0,-3,2,0,-2,-2,-1,-2
1512357053053113,-1,0,-2,-2,-1,-3,0,0
1512357053054103,-1,0,-1,-2,-1,0,0,-1
1512357053054103,-2,-1,0,1,0,0,-2,0
1512357053076120,-2,1,-2,-1,-2,-3,-2,-2
1512357053076120,-1,0,-1,0,-1,0,-1,-2
1512357053077121,0,-1,-1,0,-2,-2,0,-1
1512357053077121,0,0,-1,0,-1,-1,-1,-2
1512357053090130,-3,-1,-1,-1,0,0,0,-1
1512357053090130,-1,-2,-1,0,-2,-2,-1,-2
1512357053098148,-1,-2,-1,-1,0,-1,-1,-2
1512357053098148,-1,-1,-1,-2,-1,-2,-1,-1
1512357053113159,0,0,-2,0,0,-1,-2,-2
1512357053113159,-2,1,0,-1,-2,-2,-1,0
1512357053114137,-2,-2,-1,-1,-1,-1,0,-1
1512357053114137,-1,-1,1,0,-1,-1,-3,-2
1512357053137162,-2,-1,-2,-2,0,-3,-1,0
1512357053137162,-1,-1,-1,-1,0,0,0,-1
1512357053137162,0,-1,-2,-1,-1,-2,-1,-1
1512357053137162,-2,-1,-1,0,0,0,1,-1
1512357053150163,-1,-1,-2,-2,-3,0,1,0
1512357053150163,-2,-1,0,0,-1,0,-1,0
1512357053158204,-2,-1,1,-1,-1,-2,-2,-2
1512357053158204,-1,-2,-1,-2,-2,0,-1,0
1512357053174188,0,-1,-1,-1,1,-2,-1,-1
1512357053174188,-1,-3,-1,-1,-2,-2,-1,1
1512357053174188,-1,-2,-1,0,-1,-2,-3,-1
1512357053174188,-1,-1,-2,-3,-1,0,-2,-2
1512357053196218,-3,-1,-1,0,-1,-1,0,-3
1512357053196218,-1,0,1,-3,0,0,0,-1
1512357053197195,-2,0,-1,0,-1,-1,-1,-1
1512357053197195,1,-2,0,-3,0,0,-1,-1
1512357053210229,-1,0,0,0,-3,-2,-1,-1
1512357053210229,-2,-1,-1,0,0,-2,-3,0
1512357053218209,0,-1,-2,-2,-2,0,0,-1
1512357053218209,-2,-2,0,-2,-1,-2,0,0
1512357053233230,1,-1,-1,-2,-2,0,-1,0
1512357053233230,-1,-1,0,-3,-1,-1,-2,-3
1512357053234220,-2,-1,-1,-1,0,-1,-1,0
1512357053234220,0,-1,-3,1,-1,-1,-1,0
1512357053256235,0,0,0,-1,0,-1,-2,-3
1512357053256235,0,-1,-2,-1,0,-2,-2,-1
1512357053257236,-1,-2,-1,0,-1,-2,-3,0
1512357053257236,-1,0,-3,-1,0,-1,-1,0
1512357053270256,-2,-2,0,-3,-1,-1,0,0
1512357053270256,-1,-1,-1,-1,-2,1,0,-2
1512357053278274,-2,-2,-1,-2,0,-1,1,-3
1512357053278274,-1,-1,1,-1,0,-1,0,-1
1512357053293288,-2,-1,-1,-1,-1,-1,-2,0
1512357053293288,-2,0,0,1,-1,-2,0,-1
1512357053294262,0,-1,-3,-2,-1,-1,-1,1
1512357053294262,-3,-1,0,-1,-2,1,-3,-2
1512357053316291,0,-2,-3,-1,0,0,-2,-1
1512357053316291,1,-1,-2,-1,-1,0,-1,-2
1512357053317279,-1,1,-1,0,-1,-2,-1,-3
1512357053317279,-2,0,-1,-1,-3,-3,0,-1
1512357053339307,1,-2,-1,-1,-1,-2,0,-1
1512357053339307,-1,-3,-2,-1,-2,0,-1,0
1512357053339307,1,-2,-2,1,-2,1,-2,-1
1512357053339307,0,-2,-1,0,2,0,-1,-1
1512357053353318,-3,-1,1,-1,-1,1,-4,-3
1512357053353318,-1,0,-1,0,-1,-1,-1,-2
1512357053354305,-2,-1,-2,-2,-1,-1,0,-1
1512357053354305,-1,0,-1,-1,-3,-1,-2,-2
1512357053376392,-1,-1,-1,-2,0,-1,1,-3
1512357053376392,-3,-1,-1,1,-1,-2,-1,-2
1512357053377390,-2,2,-1,-1,-1,0,0,-2
1512357053377390,1,-1,-1,-1,0,-2,0,-1
1512357053399406,0,0,-1,-1,-1,0,0,2
1512357053399406,0,-2,-2,0,-1,-2,1,0
1512357053399406,-2,-1,-1,-2,0,-2,-1,-1
1512357053399406,-1,-1,-2,0,-1,-2,-1,-1
1512357053421442,1,-1,-2,-1,-3,0,-1,0
1512357053421442,-1,-1,-1,-1,-2,-1,-1,-1
1512357053422423,-2,-2,-2,-1,-2,0,-2,-1
1512357053422423,-1,0,-2,-3,0,-1,1,-1
1512357053436452,-2,-2,0,-1,0,-1,0,-1
1512357053436452,0,0,-2,-2,-1,1,-1,2
1512357053437436,-1,-1,-3,0,-1,-2,-2,-1
1512357053437436,-2,-1,-2,1,0,-1,-3,-1
1512357053459451,-1,0,-1,0,-3,-3,-1,1
1512357053459451,0,-2,0,-2,-2,-1,-2,-1
1512357053459451,0,-2,-1,-2,-1,-1,-1,-3
1512357053459451,-1,0,1,-1,-2,1,-2,-1
1512357053473479,-2,-1,-1,-1,-1,-1,-1,-2
1512357053473479,0,-1,0,-1,-1,-1,0,-1
1512357053474459,0,-1,0,-1,-1,-2,-1,0
1512357053474459,-1,-2,-2,-2,-1,-1,-1,-1
1512357053496537,-2,0,-3,-1,-2,1,-1,-2
1512357053496537,-2,-1,-2,-1,0,-1,0,0
1512357053497543,-2,0,0,-1,0,-2,0,-1
1512357053497543,1,-2,-3,-2,0,1,-1,-3
1512357053518555,-2,0,-3,-2,0,-1,-1,0
1512357053518555,-1,-2,-2,2,-2,-1,-1,-1
1512357053519569,-1,-1,-1,-3,-1,-1,-1,2
1512357053519569,-1,-2,0,0,-1,-1,-1,-2
1512357053533582,-3,-1,-2,-1,-2,-4,-1,-2
1512357053533582,0,-1,-1,-1,0,-1,0,0
1512357053533582,-1,-2,0,1,-1,-1,1,0
1512357053533582,1,-1,-2,-1,-1,0,-1,0
1512357053556584,1,0,1,-1,-2,-1,-3,-1
1512357053556584,-2,-1,-1,-3,0,-1,-1,-1
1512357053557580,0,-2,1,-1,-2,1,-2,-2
1512357053557580,-1,0,-3,-2,-3,-2,-1,-1
1512357053578659,0,0,-1,-1,0,0,0,-1
1512357053578659,-2,-2,0,-2,-2,-1,-1,1
1512357053579618,1,-1,-1,-1,0,-1,-1,-2
1512357053579618,-2,0,0,0,0,-1,0,-1
1512357053593625,0,-1,-2,0,-1,0,1,-1
1512357053593625,0,-1,-2,0,-2,1,0,-2
1512357053593625,-1,-1,-1,-2,-1,0,0,1
1512357053593625,-3,-2,-1,-1,0,-2,0,-2
1512357053616621,0,-1,-1,-1,-2,-2,-1,1
1512357053616621,-1,-2,-2,0,-2,-3,0,-2
1512357053617622,0,0,-1,0,-1,1,1,0
1512357053617622,-1,-1,-1,-1,-1,0,-2,-2
1512357053638639,-1,0,1,0,-1,-1,0,-2
1512357053638639,-2,-1,0,-1,-1,-2,1,-2
1512357053639640,0,-2,0,-1,-1,-1,-1,-1
1512357053639640,0,-2,-2,-2,-3,-1,-1,1
1512357053652661,-2,-4,0,-1,-1,1,-1,-1
1512357053652661,-1,-1,-1,0,-2,-2,0,1
1512357053653664,-2,-1,-3,-2,-1,0,-4,-1
1512357053653664,0,0,0,0,1,-1,-1,-1
1512357053676742,0,-2,-3,-2,-2,-2,-1,0
1512357053676742,0,-1,-3,-1,-2,-2,-2,-1
1512357053676742,-3,-2,-2,-2,-2,-2,-1,-3
1512357053676742,0,-2,-1,-2,-1,1,-1,1
1512357053698730,-1,-2,0,0,-1,-1,-1,0
1512357053698730,-1,0,0,-1,-1,-1,-2,-1
1512357053699731,-1,0,-2,-2,-2,-3,-1,0
1512357053699731,-1,-2,-2,-1,-3,-2,-1,0
1512357053712743,-1,-4,-2,-2,0,-1,0,-2
1512357053712743,-1,-2,0,-1,0,-3,-1,1
1512357053713743,0,0,-1,0,-2,0,-1,-3
1512357053713743,-2,0,-3,-1,1,0,0,-1
1512357053736767,0,0,-3,-1,-1,-2,-1,0
1512357053736767,-1,-1,-1,-3,-1,-1,-1,-2
1512357053736767,0,-2,0,-1,-2,1,-2,-3
1512357053736767,-1,-3,-3,0,-3,-1,0,-2
1512357053758786,-1,-1,-2,-1,0,-1,0,-2
1512357053758786,-3,-1,-1,0,-2,-1,0,0
1512357053759774,0,-1,-1,-1,0,-2,1,-1
1512357053759774,-2,-1,0,-2,-2,-2,-3,-1
1512357053772805,-1,-1,-2,0,-2,-1,-2,-2
1512357053772805,0,-1,-2,-1,-2,1,-1,-1
1512357053773784,0,-2,-2,-2,-1,0,-1,-3
1512357053773784,-2,0,1,-1,-2,-1,-3,-1
1512357053796822,-3,-1,0,-3,-1,0,0,0
1512357053796822,-1,0,-2,0,-2,-1,-1,-1
1512357053796822,0,0,-1,-1,1,-1,-1,0
1512357053796822,1,0,0,-1,-1,-1,-1,-2
1512357053818816,-1,0,0,0,0,-2,0,1
1512357053818816,0,2,-1,-1,0,-1,-2,-1
1512357053819818,-1,-3,-2,0,0,0,-1,1
1512357053819818,0,-1,-2,-2,-2,0,-1,-1
1512357053832854,0,-1,-2,1,-2,0,-1,-1
1512357053832854,-3,0,0,-1,-2,-3,0,-1
1512357053833862,-2,0,0,-2,-1,-1,0,-1
1512357053833862,-1,-2,-1,0,1,-2,0,0
1512357053856842,-1,-2,-1,-2,0,0,-3,1
1512357053856842,0,-3,0,-2,-1,-1,0,1
1512357053856842,-2,-1,-2,1,-1,-2,-2,-1
1512357053856842,-2,-3,0,-1,0,0,0,-2
1512357053878915,0,-1,-1,0,0,-2,-1,-3
1512357053878915,0,0,-2,-2,-2,0,0,1
1512357053879861,-1,-1,-1,-2,-2,-1,0,0
1512357053879861,1,-1,-1,-2,-1,-1,0,1
1512357053892881,-1,-2,0,-2,-2,0,0,-1
1512357053892881,-1,-3,0,-1,0,0,-2,-2
1512357053893868,0,-2,-1,-2,-1,-2,-1,1
1512357053893868,0,0,-2,0,1,-1,-2,-3
1512357053916885,0,-3,-1,-2,-3,-2,-2,-2
1512357053916885,-1,-2,-1,0,-1,0,0,-2
1512357053916885,-1,-1,-1,-1,-2,-1,0,-1
1512357053916885,-1,0,-3,-1,-1,-1,-1,1
1512357053938919,0,0,-1,-2,-1,0,-1,-1
1512357053938919,1,-1,-1,1,-1,-2,0,-3
1512357053939904,-1,-1,-2,0,-1,1,-1,-2
1512357053939904,-2,-1,-2,-1,-2,1,0,0
1512357053961917,-2,1,0,-1,-2,-1,-1,-1
1512357053961917,-2,-2,0,-2,0,-1,-2,-1
1512357053961917,-2,-2,-2,-1,-1,-1,-2,-1
1512357053961917,-1,-2,-1,-1,-1,-3,-1,-1
1512357053975950,-1,0,-1,-2,-1,-2,0,-2
1512357053975950,0,-2,-3,0,-2,-1,-2,0
1512357053976927,0,0,-2,-1,-2,-2,-1,-1
1512357053976927,-2,0,0,-1,-1,-1,-2,-1
1512357053998955,-1,-1,-3,0,-1,0,0,-1
1512357053998955,-2,-1,-1,-2,-2,-1,1,-1
1512357054000947,0,-1,0,-1,-1,-1,-1,-2
1512357054000947,0,-1,-1,0,0,-1,1,-1
1512357054012952,-3,0,-2,-1,-2,-2,-2,0
1512357054012952,1,0,-1,-1,-2,-1,0,1
1512357054028039,-2,0,-1,-1,0,-1,-2,-1
1512357054028039,-2,-1,-1,-2,0,-1,0,0
1512357054036045,0,-1,-1,-1,0,0,-1,-1
1512357054036045,-2,-1,-2,-1,-2,-1,-3,0
1512357054038047,-1,-2,-1,-2,-3,-1,0,1
1512357054038047,1,-1,-2,-1,-2,-2,-2,-1
1512357054059061,-2,-2,-1,0,-1,-2,0,-1
1512357054059061,-1,-1,1,1,-2,-1,-1,-2
1512357054060062,-1,-1,-1,-1,-1,0,-1,0
1512357054060062,-2,-2,1,-1,-2,0,-1,-3
1512357054072088,0,0,-1,-2,-1,-1,0,-1
1512357054072088,-1,-2,-2,-1,-1,-2,0,-2
1512357054081088,-2,-2,-1,-1,0,-2,-2,-1
1512357054081088,-1,-1,-1,-1,-2,0,0,-3
1512357054096088,-1,0,0,-1,-3,-1,-1,-1
1512357054096088,-1,-3,0,-1,0,-1,-1,-2
1512357054098088,0,-1,-1,-1,1,-2,0,-2
1512357054098088,-1,0,-2,-1,-1,-1,-2,-1
1512357054119135,0,-1,0,0,-1,-1,-1,2
1512357054119135,-1,-1,-2,-3,1,0,-2,0
1512357054121106,-2,-1,0,-1,-1,-1,-1,-1
1512357054121106,-1,-1,-1,-1,0,-2,-2,-1
1512357054132144,-1,-1,-3,-2,-1,0,0,-3
1512357054132144,-3,-2,-1,-1,-2,0,-1,-1
1512357054141148,-2,0,-1,-1,-1,-2,-2,-2
1512357054141148,-1,-1,-1,-2,-1,-1,-2,0
1512357054156159,-3,-1,-2,-1,-1,-2,-3,-1
1512357054156159,-1,0,-1,-1,0,-1,-2,0
1512357054158145,-1,-1,-2,-1,-1,-1,1,0
1512357054158145,0,-1,-3,-1,0,-2,-1,-1
1512357054179147,0,-3,1,-1,-1,-1,0,0
1512357054179147,-2,-1,-1,-1,-2,-1,1,-1
1512357054180146,-2,-2,0,-2,-1,-1,-3,-1
1512357054180146,-1,-1,-2,-1,0,-2,-1,0
1512357054192158,-1,-1,-1,-2,-1,-1,0,-1
1512357054192158,0,1,-1,-1,0,-2,-1,0
1512357054201164,0,-2,0,-1,-2,0,-2,0
1512357054201164,-1,-2,0,1,-1,-1,-1,-2
1512357054216185,-2,-1,-2,0,0,0,-2,-2
1512357054216185,-4,-2,-1,-1,-3,-2,-1,0
1512357054218173,0,0,-1,0,-1,-1,0,-1
1512357054218173,-1,-1,-1,-2,0,-1,-1,-1
1512357054246193,-1,0,-2,-1,0,-3,-2,1
1512357054246193,1,0,-1,-1,-1,-1,0,-1
1512357054248194,1,-2,-1,-1,-1,-2,1,0
1512357054248194,-2,-2,-1,0,0,-2,-1,0
1512357054252213,-1,-2,-1,-2,-1,-2,1,0
1512357054252213,0,-1,-1,-2,-1,-1,0,-2
1512357054261222,-4,-2,0,-1,-1,0,-2,-1
1512357054261222,0,-1,-1,-2,-1,-1,-1,-1
1512357054276235,-2,-2,-2,-1,-1,1,-1,-3
1512357054276235,1,-2,-1,0,-1,0,-1,0
1512357054278225,0,0,-2,0,-1,0,-1,-1
1512357054278225,0,-2,-1,-1,-2,-1,0,-3
1512357054299231,-3,-1,0,0,-2,-1,-1,0
1512357054299231,0,0,-1,-2,-2,-1,-2,-2
1512357054300232,0,-2,-2,-1,0,-1,-1,-1
1512357054300232,-2,-1,-2,1,-1,-1,0,0
1512357054321271,-1,-3,-1,-2,-1,0,-1,0
1512357054321271,-2,-1,-1,-1,-1,-1,0,-1
1512357054323253,-1,-1,-1,-2,-1,-1,-1,0
1512357054323253,-2,-1,-2,-2,-2,0,-1,-2
1512357054335281,-1,-1,-1,-1,0,-1,-2,0
1512357054335281,-1,-2,-1,1,0,-1,1,-1
1512357054344268,-1,-2,-1,-1,0,-1,-1,-1
1512357054344268,0,-1,-2,0,-2,0,-1,-1
1512357054358287,0,-1,-1,-3,-1,-2,0,-1
1512357054358287,-2,-3,-2,-1,0,-2,-1,1
1512357054360274,-1,-1,-1,-2,-2,-2,-3,0
1512357054360274,0,-1,-1,-2,-1,-2,0,0
1512357054381298,-1,-2,0,0,-1,-3,0,-2
1512357054381298,-1,0,0,0,-1,0,0,1
1512357054383300,0,-1,-2,-1,0,-1,0,-1
1512357054383300,-1,-2,-1,0,-2,-1,-1,0
1512357054396301,-1,-2,-2,0,-1,-1,-1,-1
1512357054396301,-2,0,0,-2,-1,-2,-1,-2
1512357054398300,0,-2,-1,-1,-2,-3,0,-1
1512357054398300,0,-1,-1,1,0,1,-2,-1
1512357054419317,-2,-2,-1,0,-1,0,-2,0
1512357054419317,-1,-1,-1,0,-1,1,-2,0
1512357054420318,-1,0,-1,-1,-1,-1,-1,-1
1512357054420318,-2,-1,-1,-2,0,-1,0,-2
1512357054441330,0,-1,-2,-1,-1,-1,0,0
1512357054441330,-2,-2,-1,-1,0,-2,-2,-2
1512357054443332,-2,-2,0,2,-1,-1,-1,0
1512357054443332,0,0,-1,-2,0,-2,-2,-2
1512357054455399,0,0,-1,-1,-1,-2,0,0
1512357054455399,-1,0,-2,-3,-2,-2,1,-1
1512357054462405,-1,-1,-2,-2,0,1,0,0
1512357054462405,-2,-2,0,-1,-1,-2,-2,0
1512357054479372,-2,0,0,-1,1,-1,-2,1
1512357054479372,0,-1,-1,-2,-1,-2,-1,-1
1512357054480372,-1,-1,-1,-1,-1,-1,0,-4
1512357054480372,-2,1,-2,-1,-1,0,0,-2
