timestamp,emg1,emg2,emg3,emg4,emg5,emg6,emg7,emg8
1513230986104594,-2,-4,-3,-1,-2,0,-1,-1
1513230986104594,-2,-5,-6,-1,-2,1,-1,-3
1513230986106074,-2,13,2,-2,0,-2,-1,-1
1513230986106074,-1,-3,-3,-1,-2,-1,0,-2
1513230986118598,1,3,3,0,1,0,-1,1
1513230986118598,0,1,-1,-1,0,-1,-2,0
1513230986133118,-2,-7,0,-1,-1,-1,-1,-1
1513230986133118,1,3,-1,-3,0,-1,0,0
1513230986141616,3,1,-3,-1,-2,-2,-1,0
1513230986141616,-3,8,5,-1,-1,0,-1,-1
1513230986143601,-2,0,-3,0,0,0,-1,-2
1513230986143601,0,-5,-3,-2,0,-1,-2,-1
1513230986164116,-2,-5,-2,0,0,-2,1,-4
1513230986164116,0,3,0,-2,-1,-2,-1,-2
1513230986166140,-2,0,-1,-1,-1,0,-2,-1
1513230986166140,-2,-1,1,-2,-1,2,1,-1
1513230986178627,0,-5,-3,-3,-1,0,-4,0
1513230986178627,-1,-1,-2,0,-1,-1,-3,-1
1513230986185632,-1,-2,0,0,-3,-1,-1,0
1513230986185632,1,-1,-1,-1,0,-2,-2,0
1513230986202143,-1,-5,0,-2,-2,-2,0,-1
1513230986202143,-5,-2,0,-1,0,0,0,-1
1513230986203644,-4,-3,-1,-1,1,2,-1,-3
1513230986203644,2,-1,-4,-1,-1,-2,-1,-2
1513230986224159,-3,-2,-2,0,0,-2,-2,-3
1513230986224159,0,-2,-4,-1,-2,-2,0,-1
1513230986225659,-1,0,-1,1,0,-1,-2,-1
1513230986225659,-2,-2,-1,-1,-1,0,-2,0
1513230986238668,-2,-3,0,-3,-2,-1,-2,-1
1513230986238668,1,-1,-3,0,0,0,1,0
1513230986245674,-2,-4,-3,-1,-1,0,1,-1
1513230986245674,-1,-2,-1,1,-2,0,-1,-4
1513230986261696,-1,2,0,-2,0,0,-4,-1
1513230986261696,1,2,0,-2,-2,-1,-1,-2
1513230986263197,1,-5,-1,-2,-1,-3,-2,-1
1513230986263197,0,5,2,-1,-1,0,-2,-1
1513230986284210,-3,-2,-4,-1,-1,-2,-1,-2
1513230986284210,-2,-2,-2,0,-1,-1,-1,-1
1513230986285711,0,0,0,0,-2,-2,-1,0
1513230986285711,-2,-5,-4,-1,-1,-3,-3,-2
1513230986298711,6,-4,-5,-4,-2,-2,-1,0
1513230986298711,-3,5,4,1,1,0,-1,-1
1513230986305718,0,0,0,-2,-1,-1,-2,1
1513230986305718,-2,0,1,-3,-1,-1,1,-1
1513230986321741,-2,-1,1,-1,-2,0,0,-2
1513230986321741,0,-9,-5,-4,-2,-4,-1,-1
1513230986323238,-1,3,2,-1,-1,0,0,-1
1513230986323238,-3,-1,0,-3,0,-2,-1,0
1513230986344245,-3,-4,-2,0,-1,-1,-1,-1
1513230986344245,-2,-1,-2,0,-1,0,0,1
1513230986345744,-1,-1,-1,-2,-2,-2,-2,0
1513230986345744,2,-1,-3,-1,0,0,-2,-2
1513230986358762,-7,6,4,-1,-1,-2,0,-2
1513230986358762,-1,-2,-1,0,-1,0,-1,-2
1513230986372763,0,1,-3,-1,-1,-2,0,-2
1513230986372763,0,-1,-1,-1,-1,-4,0,0
1513230986381786,0,-3,-1,-2,0,-2,0,-2
1513230986381786,-2,0,4,1,1,1,0,0
1513230986383287,0,-2,-3,-1,-1,-2,0,0
1513230986383287,-2,-1,-1,-2,-2,0,-1,1
1513230986404306,-2,2,0,0,0,0,-1,-1
1513230986404306,0,-4,-4,-3,-1,-1,-2,-1
1513230986405811,-1,-6,-1,-1,-1,0,-2,-2
1513230986405811,-2,5,0,-2,-4,-1,-2,-1
1513230986418830,1,-2,-2,0,-2,-3,0,0
1513230986418830,-1,1,-1,-2,-1,-1,0,1
1513230986425337,0,-2,1,-1,0,0,-2,1
1513230986425337,-2,-3,-2,-1,0,0,-2,-2
1513230986441856,-1,-6,1,0,-2,-1,-1,-1
1513230986441856,1,8,-1,-3,-2,-5,-1,-3
1513230986443356,-7,-2,1,2,0,0,1,-2
1513230986443356,-1,-3,0,1,0,1,0,-2
1513230986463872,0,-1,-2,0,0,1,0,-1
1513230986463872,-1,-2,-1,-1,0,0,-2,0
1513230986471859,2,-1,-4,-3,-1,-2,0,-2
1513230986471859,-1,0,-2,-1,-2,-1,-1,0
1513230986477864,-2,-3,-2,-2,0,-1,0,-1
1513230986477864,-1,1,-2,-1,-1,-2,-2,-1
1513230986486870,-1,1,-2,-1,-1,-1,0,-2
1513230986486870,-2,-1,1,-1,0,-1,0,-3
1513230986502380,0,-1,-1,0,-1,-3,-2,2
1513230986502380,-1,1,-2,-1,0,-1,-2,-1
1513230986503881,2,-4,0,-2,-2,-2,-2,0
1513230986503881,-1,2,0,-2,-1,-1,0,-2
1513230986524416,-4,-3,-2,-1,-1,0,0,0
1513230986524416,1,0,-2,-1,-1,0,-2,0
1513230986525900,-3,-2,0,0,0,0,-1,-2
1513230986525900,1,-2,-2,0,-2,-1,-1,1
1513230986537917,-2,0,-1,-2,-1,-2,-1,-2
1513230986537917,-2,-1,0,-2,-1,-1,1,-2
1513230986546915,-1,0,-2,-2,-1,-2,-1,0
1513230986546915,-2,-3,-1,0,0,-3,-2,-1
1513230986568937,-3,-1,-1,-2,0,-1,-3,-3
1513230986568937,-1,-2,-2,0,-2,-2,-4,0
1513230986570938,-1,1,-2,-2,-3,-1,0,0
1513230986570938,-3,-1,-2,-1,-1,-1,0,0
1513230986584438,0,-3,-3,0,-2,-1,-1,-1
1513230986584438,1,-3,-2,-1,-2,-1,0,0
1513230986585954,0,0,-2,-1,-3,-1,-1,0
1513230986585954,0,-3,-4,-1,-3,-1,-1,-1
1513230986597951,-2,-1,-1,0,-2,0,-1,-1
1513230986597951,0,-2,-1,-1,-2,0,0,-2
1513230986606954,1,1,0,0,-1,-1,-1,-1
1513230986606954,-7,-3,1,0,0,-2,0,-1
1513230986628971,0,2,-1,-3,-2,-1,-1,-1
1513230986628971,-3,-4,-2,0,-2,-1,0,-2
1513230986630973,-1,-2,-1,-1,0,-1,-1,-3
1513230986630973,-1,1,-2,-2,-1,-2,-2,-2
1513230986643996,2,-5,-2,-1,-2,-2,-1,-1
1513230986643996,-5,-2,2,1,-1,-2,1,-2
1513230986645995,3,6,-1,-2,-3,-2,0,1
1513230986645995,-2,-23,-5,-1,1,2,-1,-2
1513230986657999,4,2,-3,-5,-3,-3,-1,-2
1513230986657999,-2,-3,-3,0,-1,-1,-1,-1
1513230986666997,-1,-2,-3,-2,-2,-3,-2,-1
1513230986666997,-1,4,0,0,1,0,-2,-2
1513230986681008,0,-3,-3,-1,-1,-2,0,0
1513230986681008,-1,9,-1,2,1,1,0,1
1513230986689516,-3,-1,-7,-2,0,-2,-1,-2
1513230986689516,3,2,4,0,-1,0,0,1
1513230986704023,-4,9,7,-1,0,0,-1,-2
1513230986704023,3,3,-5,-3,0,-1,-1,-3
1513230986705525,-5,-7,0,-1,-1,-1,-1,-2
1513230986705525,3,10,-3,0,-3,-1,0,-1
1513230986718032,-1,2,4,2,0,2,-1,-1
1513230986718032,0,6,2,-1,-1,1,0,-3
1513230986727051,-2,-4,-2,0,-2,0,-3,0
1513230986727051,-6,-7,0,-2,0,-4,-2,-1
1513230986742051,-1,0,-4,-1,-1,0,-3,0
1513230986742051,0,-4,0,-1,-1,-2,-1,-1
1513230986743551,-1,1,1,-1,-1,1,-1,-1
1513230986743551,0,-2,-3,0,0,-1,-2,-1
1513230986764126,-2,-3,-2,0,-1,-1,0,-1
1513230986764126,-2,-8,-5,-4,-2,-2,-1,0
1513230986766130,-2,-2,0,2,0,-1,1,-1
1513230986766130,-2,0,-1,-3,-2,-1,-2,-1
1513230986778130,-2,-3,-1,1,0,-2,-1,-1
1513230986778130,0,-7,-5,-1,0,-1,0,-2
1513230986786698,0,-4,-4,-1,-1,-1,0,-2
1513230986786698,0,2,-2,-2,-3,0,1,-3
1513230986801708,-2,-7,0,-1,-2,-2,-2,-3
1513230986801708,-1,-2,-2,-1,-2,-2,-3,1
1513230986803219,-3,1,0,-1,-1,-2,-1,-1
1513230986803219,-1,-4,-3,-2,-2,-2,-2,-1
1513230986831730,-1,-4,-2,-1,-2,-1,-1,-1
1513230986831730,0,-2,-1,-1,0,0,-1,-1
1513230986833231,0,-6,-2,-1,-1,-2,-1,-2
1513230986833231,1,3,0,-1,-2,-2,-1,-1
1513230986837739,-4,-1,-3,1,2,1,0,-1
1513230986837739,1,4,1,-3,-4,-3,-1,-2
1513230986846741,0,-3,-5,-3,-3,0,-1,-1
1513230986846741,-1,-2,0,-1,-1,0,1,-2
1513230986862252,-2,-6,-3,-3,0,0,-1,-2
1513230986862252,-7,-8,-1,1,-1,0,0,0
1513230986863756,-1,14,3,-4,-1,-1,-2,-1
1513230986863756,0,3,0,0,-2,-1,-2,-1
1513230986884267,0,0,-2,-1,-2,-2,-1,0
1513230986884267,-2,-2,2,1,0,0,-1,-2
1513230986885768,-1,-4,-1,-1,0,-1,0,0
1513230986885768,-2,-3,-1,-1,0,-1,-2,-2
1513230986906786,3,4,0,-1,-2,-1,1,-1
1513230986906786,-2,-8,-5,-2,0,-2,-1,-1
1513230986908284,-1,0,2,0,0,0,-1,0
1513230986908284,0,-1,-2,0,0,-1,0,0
1513230986921793,0,-3,0,0,0,-2,-1,-2
1513230986921793,1,2,0,-1,-1,0,-2,-2
1513230986923295,-3,-5,3,1,-1,0,0,-1
1513230986923295,3,-1,-4,-2,-3,-3,-3,0
1513230986952324,-2,5,1,0,-2,0,-1,-2
1513230986952324,0,4,0,0,-2,-1,-1,1
1513230986953826,-2,0,-4,-1,-1,-2,0,-1
1513230986953826,-1,4,3,-1,0,-2,-1,-2
1513230986966847,2,0,-3,-3,-2,0,0,0
1513230986966847,-2,0,0,-1,-1,-2,0,-1
1513230986968365,-2,-3,0,-2,-2,-1,-3,-1
1513230986968365,-2,0,1,-1,-2,-2,0,0
1513230986981857,-1,-9,-7,-1,-1,-1,-2,0
1513230986981857,5,4,-4,-1,-1,-2,-1,-1
1513230986983361,-3,-2,-3,0,1,0,0,0
1513230986983361,-3,-5,-1,-1,-1,0,1,-1
1513230987004372,1,3,2,0,-1,0,-2,-1
1513230987004372,-2,-7,-1,-1,0,-2,-1,-1
1513230987005883,0,2,0,-2,-1,-2,0,-2
1513230987005883,-3,2,1,-1,-1,0,-2,-1
1513230987026888,0,-2,-2,-1,-3,-2,0,0
1513230987026888,-1,-2,-1,0,-1,-2,-1,0
1513230987028389,-2,0,-2,-2,0,1,-2,-1
1513230987028389,-6,-3,-1,-2,-1,-1,-2,-1
1513230987041921,-2,1,1,-2,-1,-1,-1,-2
1513230987041921,-1,3,-2,-3,-1,0,-2,-1
1513230987043401,0,-7,-5,-2,-1,-1,-2,-1
1513230987043401,0,0,0,1,-1,0,0,-2
1513230987064416,-2,-6,-2,0,-1,-2,1,-2
1513230987064416,-1,-3,-1,0,0,-2,-2,-1
1513230987066922,0,-2,-1,-1,0,0,-1,0
1513230987066922,1,0,-2,-2,0,-2,-1,1
1513230987086953,-2,-7,-1,1,2,0,-1,0
1513230987086953,-1,6,2,-1,-1,0,-2,-2
1513230987088455,0,6,3,0,-2,-2,-1,0
1513230987088455,-5,-4,0,-1,0,-2,1,-2
1513230987100951,-3,2,1,-2,-2,0,-1,0
1513230987100951,0,-4,-4,-1,-1,-1,-1,0
1513230987107946,-2,0,1,-2,-2,-1,-1,-1
1513230987107946,-2,-6,-2,-1,-2,-2,-1,-3
1513230987124540,-2,-9,-10,-3,-1,-2,-1,-1
1513230987124540,-2,-5,1,-1,-1,0,0,-2
1513230987126032,1,7,0,-1,0,0,0,-2
1513230987126032,0,-2,-2,-1,-2,0,-2,1
1513230987146567,1,-2,0,-2,0,0,-2,-1
1513230987146567,-2,-5,-1,0,-1,-1,-3,0
1513230987148048,-5,-4,-2,1,-1,-1,-1,-2
1513230987148048,5,5,-2,-2,-2,-3,-1,0
1513230987161077,-2,1,-1,1,-1,0,-1,-3
1513230987161077,-1,2,-1,-1,-2,-2,0,-2
1513230987168077,0,-4,0,0,-3,-1,0,-1
1513230987168077,0,-3,-1,0,-1,-1,-2,-1
1513230987184073,0,1,1,-2,-1,-1,0,0
1513230987184073,0,-2,-3,-2,-2,-1,-2,-2
1513230987186083,0,-4,-1,-1,-2,-2,-2,1
1513230987186083,-2,-2,-2,-1,0,1,-1,-2
1513230987206590,-2,0,-1,-3,-2,-1,-2,1
1513230987206590,-3,4,4,1,-1,1,1,-1
1513230987208089,0,-3,-1,0,-1,-2,-2,-2
1513230987208089,0,-3,0,-1,0,0,0,-1
1513230987229375,-1,3,2,-1,-1,-1,-1,-1
1513230987229375,-1,1,-2,-1,2,-2,-2,-1
1513230987230876,2,-10,-4,-2,-1,-3,-1,-2
1513230987230876,-2,2,-3,-1,-2,-2,-1,0
1513230987244911,1,0,-3,-2,-2,-2,-2,-2
1513230987244911,-2,0,1,1,-1,1,1,1
1513230987246397,0,3,0,-1,-2,0,-2,0
1513230987246397,0,-5,-3,-3,-1,-1,-2,0
1513230987266903,-1,7,1,0,1,-1,-1,-1
1513230987266903,-1,-1,0,-3,-2,-2,0,0
1513230987268422,-5,-1,0,0,-1,-2,-2,-2
1513230987268422,-1,-3,0,-2,-2,-1,-1,-1
1513230987280921,-1,-1,-1,-1,-1,-1,0,0
1513230987280921,-2,-5,-1,-1,-1,-2,0,-2
1513230987287926,0,-6,-2,-1,0,-1,-1,0
1513230987287926,0,6,0,-1,0,-1,0,-2
1513230987303939,-1,1,0,-1,0,-2,0,1
1513230987303939,-1,-4,-2,-2,0,-2,-3,-2
1513230987305941,0,-1,-1,-1,-2,-2,-2,0
1513230987305941,-1,-1,-1,-1,-3,-1,-1,0
1513230987326443,-1,-1,-1,-2,-1,-1,-2,-1
1513230987326443,-1,-5,-2,-1,-2,-1,0,1
1513230987328445,-2,1,0,-1,-1,1,-1,-3
1513230987328445,-1,0,-1,0,-1,-2,-1,0
1513230987340957,3,-2,-2,0,-3,-2,-3,-2
1513230987340957,0,-1,-3,-2,-1,-2,0,-1
1513230987347962,-3,-9,-6,-1,1,-1,-2,-3
1513230987347962,-2,-1,-3,-2,-2,-1,-2,0
1513230987364470,-4,-1,-1,1,0,1,0,-3
1513230987364470,0,-2,-3,-1,-1,-3,-2,-2
1513230987365972,0,-1,-2,-2,-2,-1,1,-1
1513230987365972,-1,-1,-1,-2,-2,-2,0,0
1513230987386503,-1,-4,-2,-1,-2,-1,0,0
1513230987386503,-2,-2,-1,-1,-2,0,-3,-1
1513230987388505,-3,-1,0,-1,1,-1,0,-1
1513230987388505,-1,-2,0,0,-1,-2,0,-2
1513230987400495,-2,3,1,-2,1,-2,0,-1
1513230987400495,-1,0,-4,-1,-1,-2,1,-1
1513230987410003,2,2,0,-1,-1,0,0,1
1513230987410003,-3,0,1,0,0,-1,-2,-2
1513230987423556,-2,-2,-3,-2,-3,0,-1,0
1513230987423556,-2,-1,1,1,-1,-1,-1,0
1513230987424047,-2,2,-1,-3,-4,-2,-2,-1
1513230987424047,0,-1,-3,-2,0,-2,-3,-3
1513230987446066,-1,-6,-3,0,-3,-2,-1,-1
1513230987446066,0,-1,2,0,-2,-1,-1,-1
1513230987446563,-2,0,-2,0,0,0,0,0
1513230987446563,-5,-2,2,2,-1,0,-1,-2
1513230987469582,0,0,-1,-1,0,-1,-2,-2
1513230987469582,-3,-6,-3,-2,1,0,0,-2
1513230987470591,-2,3,1,-2,-1,-1,0,-2
1513230987470591,0,3,-2,-2,0,0,-3,0
1513230987483590,-2,-12,-4,-1,0,-1,-3,-2
1513230987483590,1,7,2,0,-1,0,-2,-1
1513230987484090,1,0,-1,-1,-2,-2,0,0
1513230987484090,-4,-2,1,2,2,1,1,-2
1513230987506106,-2,3,1,-2,-1,-1,-3,1
1513230987506106,1,-2,1,-2,0,-2,-2,-2
1513230987506627,0,-1,-3,-1,-3,-2,-2,0
1513230987506627,1,2,-2,-2,0,0,-2,1
1513230987536637,1,1,3,0,-1,-1,0,-3
1513230987536637,-3,1,-3,0,-2,-2,-2,0
1513230987537638,0,-1,0,0,-1,-2,-2,2
1513230987537638,0,-3,-3,-2,-2,-1,1,-1
1513230987543632,-3,4,6,3,2,2,2,2
1513230987543632,2,-4,-5,-3,0,-1,0,-1
1513230987544134,-3,-3,0,0,0,0,-1,-3
1513230987544134,0,-1,-1,-2,-1,0,-1,0
1513230987565647,4,2,-4,-4,-2,-1,-1,0
1513230987565647,-3,-1,1,-2,1,-1,-2,-2
1513230987573653,-1,0,1,-3,-2,0,-1,0
1513230987573653,-1,-2,-2,0,-2,0,-2,-2
1513230987589163,-3,1,1,-1,-2,-2,-3,0
1513230987589163,-2,-3,-2,0,-1,-1,0,0
1513230987590164,-4,2,-2,-1,-2,-2,-1,-2
1513230987590164,0,0,-1,-2,-1,-2,-3,-1
1513230987603674,-2,-7,-6,-1,-2,-2,-1,-1
1513230987603674,-2,-1,0,-2,-3,0,-3,0
1513230987604182,-1,1,3,0,-1,0,0,-1
1513230987604182,0,-12,-6,-1,-2,-2,-1,1
1513230987626202,-1,2,1,-1,0,-1,-1,-3
1513230987626202,2,1,-3,-1,-1,-1,-1,0
1513230987626700,2,-3,-2,-3,-2,-2,-1,0
1513230987626700,-4,-2,2,2,2,0,0,-1
1513230987640212,2,-4,-6,-3,-2,-1,-1,-1
1513230987640212,-2,-1,-1,1,-2,-1,-2,-3
1513230987656224,-2,-2,-5,-1,0,1,-2,-2
1513230987656224,-1,0,1,-1,0,0,1,-2
1513230987663728,-1,-1,-2,-1,-1,-1,-1,-1
1513230987663728,0,-5,-3,-1,-1,-1,0,-1
1513230987664217,-2,-2,-2,1,0,-2,0,-2
1513230987664217,-2,1,-1,-2,-4,-2,-2,0
1513230987685744,0,-2,-1,1,1,-1,-1,-2
1513230987685744,-5,-1,1,0,-1,-1,0,-3
1513230987693748,-2,-3,-1,0,-1,-2,-1,0
1513230987693748,1,-1,-1,-2,-2,0,-2,0
1513230987700252,-3,-4,-4,-1,-1,-1,-1,0
1513230987700252,-3,-2,-1,0,-1,-1,0,0
1513230987708760,-2,-1,-1,-1,-1,-1,-1,-3
1513230987708760,0,4,0,-1,-1,0,-1,-1
1513230987731765,-1,-6,-2,0,-1,-1,-1,-1
1513230987731765,-2,0,-2,-1,-1,-2,-2,-1
1513230987732766,0,-3,-3,-3,-1,-3,-2,-1
1513230987732766,0,0,-2,-2,-2,-2,-1,0
1513230987745798,0,0,-3,-1,0,-2,-1,-3
1513230987745798,0,0,-2,-1,-2,-1,-1,-1
1513230987746784,1,-1,-2,-1,-2,0,-1,0
1513230987746784,-3,-1,4,-1,-1,-2,0,1
1513230987768291,-2,-3,-2,0,0,-1,-1,1
1513230987768291,-1,-4,1,-2,0,-1,-2,-1
1513230987775797,-1,2,4,0,0,0,-1,0
1513230987775797,0,-6,-2,-1,-1,0,-1,-1
1513230987783302,-2,2,1,-2,-2,0,-2,-4
1513230987783302,0,0,-2,-3,0,0,-1,-2
1513230987784303,-1,-1,-2,-3,-1,-2,-3,-2
1513230987784303,-4,0,-2,-1,0,-1,-2,-1
1513230987805819,-2,3,2,1,-1,-2,-1,0
1513230987805819,-2,-1,-1,-1,-3,-1,0,-3
1513230987813348,-1,-2,0,0,-1,-2,-1,-2
1513230987813348,1,-2,-2,-2,0,-1,-2,-2
1513230987820330,-2,-2,0,-1,-1,1,-2,-1
1513230987820330,3,-1,-2,0,-1,-1,1,3
1513230987828333,-1,-4,-1,1,-1,-1,0,1
1513230987828333,-2,-4,-1,0,0,-1,0,-3
1513230987852350,-4,0,1,-1,-1,1,0,0
1513230987852350,-4,-8,-4,-2,-2,-1,-3,-4
1513230987853351,0,-1,0,-2,-1,0,-1,-1
1513230987853351,1,5,0,-1,-2,-2,-2,-2
1513230987866361,1,-4,-3,-2,-1,-2,-2,1
1513230987866361,2,2,1,-2,-3,-3,-1,-1
1513230987866864,-4,-6,-3,1,-1,1,-1,-3
1513230987866864,-2,-1,-2,-1,0,0,-1,0
1513230987889375,1,2,-2,-1,0,0,-1,-1
1513230987889375,-2,-1,-1,0,0,-1,0,0
1513230987889877,2,1,-1,-3,-2,-1,0,0
1513230987889877,-5,1,1,0,0,0,0,-2
1513230987903388,-5,5,4,0,0,-3,0,-3
1513230987903388,-1,1,0,-1,1,1,0,0
1513230987904387,-1,1,3,-1,-2,0,0,2
1513230987904387,-3,-6,-4,-1,-3,-1,-1,-1
1513230987925902,1,-2,-1,-1,0,0,0,-1
1513230987925902,0,1,-1,-1,0,-2,-1,0
1513230987926903,-2,1,-1,1,-2,-2,-1,-1
1513230987926903,0,-2,-1,-2,-2,-2,1,-1
1513230987956934,0,1,0,-2,-1,0,0,1
1513230987956934,0,-3,-1,-2,-1,0,-3,-2
1513230987957426,1,-3,-3,-3,-2,0,-3,0
1513230987957426,1,4,0,-1,-1,-1,-1,-2
1513230987963512,0,1,-4,-3,-1,-1,-2,-2
1513230987963512,-1,0,0,0,-2,-1,-1,0
1513230987978512,0,1,-1,-3,0,-1,0,-1
1513230987978512,4,-1,0,-1,0,-1,0,0
1513230987986017,-2,-1,0,-2,-2,-1,-1,-1
1513230987986017,1,-2,-3,-1,0,-2,-1,0
1513230987987007,-3,5,2,1,1,1,-1,-2
1513230987987007,0,-4,-1,-2,-1,-1,-1,-1
1513230988009045,1,4,-1,-1,-3,-1,1,-1
1513230988009045,-1,1,0,0,-1,-3,-2,-1
1513230988010025,-2,-5,-2,-1,-3,-2,-2,-2
1513230988010025,-3,3,-1,0,1,0,-1,-1
1513230988023548,0,-2,0,0,-1,-1,-1,-1
1513230988023548,0,0,-2,-1,0,-1,-2,-2
1513230988024537,-1,2,0,-1,0,-2,-2,-2
1513230988024537,-2,-3,-2,-1,0,1,-1,-3
1513230988046060,1,-2,-1,-1,-1,-1,-1,-3
1513230988046060,0,-1,-1,0,1,0,-1,-1
1513230988053565,0,-2,-3,-2,-2,-3,-2,-3
1513230988053565,-5,0,1,0,0,-1,0,-1
1513230988069068,0,-4,-1,-2,0,1,0,-1
1513230988069068,-1,-1,-2,-2,-1,-1,0,0
1513230988070065,-1,-2,-2,-1,-1,-1,-2,0
1513230988070065,0,-2,0,-1,-2,-1,-2,1
1513230988083585,-1,0,2,1,-2,-2,0,0
1513230988083585,-3,3,2,0,0,-1,0,-1
1513230988084076,1,0,-2,-3,-2,-2,-1,0
1513230988084076,-3,-4,-3,-2,-1,-2,-1,-2
1513230988106091,-1,-1,-2,-1,-2,-2,-3,-1
1513230988106091,-1,-3,-3,-1,-2,-1,0,1
1513230988106592,-1,-3,-2,-1,-1,-1,1,-1
1513230988106592,-1,-2,-4,-1,-2,-2,-2,0
1513230988129162,-2,-3,-3,-3,0,-2,0,0
1513230988129162,-2,0,0,0,-1,-1,-2,-4
1513230988130138,-2,-2,-1,-2,0,-2,-2,0
1513230988130138,1,2,-2,-1,-1,-1,1,0
1513230988143627,-4,-4,-1,-1,-2,-2,-1,-2
1513230988143627,-1,-4,0,-4,-1,-1,-3,-3
1513230988144119,-2,-4,-1,-1,0,0,0,-2
1513230988144119,0,-2,-2,-3,-3,0,-2,-1
1513230988166136,0,2,1,2,1,0,-1,0
1513230988166136,0,-4,-1,-1,-3,0,0,0
1513230988166634,-1,-5,-2,0,-1,0,-2,-1
1513230988166634,-5,3,2,-1,-1,-2,0,-2
1513230988189162,2,-6,-3,-1,-1,-1,-1,1
1513230988189162,-2,2,-2,0,0,0,-1,-3
1513230988190151,-1,-3,-3,0,0,-1,-2,-1
1513230988190151,0,-1,-2,-1,-1,-3,-1,0
1513230988203670,-1,-1,-4,-3,-1,0,-3,-2
1513230988203670,-3,-3,-1,-1,-1,0,-3,1
1513230988204161,-1,2,-2,-2,-2,0,0,-2
1513230988204161,0,-1,-1,2,0,0,0,0
1513230988234181,-2,-2,0,-1,-1,-1,-3,-1
1513230988234181,0,-2,-2,-1,-3,-1,0,0
1513230988235182,0,1,0,-1,-2,0,-2,0
1513230988235182,0,-7,-6,-2,-1,1,-1,-2
1513230988249192,-2,1,0,-1,0,-1,-1,-2
1513230988249192,0,1,-1,0,-2,-1,-1,-1
1513230988250195,-1,-2,-3,-2,-1,-2,1,0
1513230988250195,2,-2,1,-1,0,-2,-1,0
1513230988271711,2,1,1,-1,-2,-2,-1,1
1513230988271711,-4,1,1,0,-1,0,-1,-1
1513230988272710,5,-6,-6,-2,-2,-2,-1,-1
1513230988272710,1,3,0,-3,-2,-2,-4,-1
1513230988286218,0,1,0,0,-1,-1,0,-1
1513230988286218,-2,-3,-1,1,1,1,0,0
1513230988286719,-3,0,2,-2,-1,-3,-1,-1
1513230988286719,-3,0,-1,-1,0,0,-2,0
1513230988316740,-2,-1,-1,-4,-1,-1,-1,-1
1513230988316740,-1,0,0,0,-2,-2,-1,0
1513230988317741,-5,1,0,-2,-1,-1,-2,-1
1513230988317741,-2,-2,1,-2,-3,0,-1,-1
1513230988323745,-4,-2,-3,0,0,-1,-2,-2
1513230988323745,0,-1,-4,-1,-2,-1,-1,-1
1513230988324245,-1,1,0,-1,-1,-2,1,-2
1513230988324245,-1,1,0,0,-1,0,1,0
1513230988354267,4,-2,-3,-1,-2,-1,0,1
1513230988354267,-4,-1,-1,-1,-1,-1,-1,-1
1513230988355267,-2,2,0,0,1,-2,-1,0
1513230988355267,-2,-8,-4,0,-2,0,-1,0
1513230988369280,1,3,0,-1,-1,-1,0,0
1513230988369280,0,2,1,2,2,1,-1,-1
1513230988370278,-1,3,0,0,-1,0,-1,-2
1513230988370278,0,1,-2,-2,-1,-1,-1,0
1513230988391803,-2,-11,-8,-3,-1,-2,-1,-3
1513230988391803,1,0,1,-3,-2,-1,-1,-1
1513230988392306,-1,-2,-2,0,0,0,-2,0
1513230988392306,-1,-1,1,1,0,-1,-2,0
1513230988406303,0,0,0,-2,-2,-1,1,0
1513230988406303,0,-3,-2,-2,-2,-2,-1,-2
1513230988406805,3,-3,-1,0,-2,-1,0,0
1513230988406805,-1,-1,-3,-1,1,1,-2,-1
1513230988429358,-3,-1,1,-1,-1,0,-3,0
1513230988429358,-1,-1,-3,-2,0,-1,-1,-1
1513230988429859,-1,-1,0,-3,-1,-1,0,-2
1513230988429859,-1,1,1,0,-2,-2,0,1
1513230988442871,-1,0,0,1,-1,-2,-2,1
1513230988442871,-1,-1,-2,-2,0,-2,-1,-3
1513230988450874,0,0,-2,-3,-2,-2,-1,2
1513230988450874,-2,0,1,1,-1,0,0,-3
1513230988465884,-3,-2,0,-2,-2,-1,-1,-3
1513230988465884,-1,-10,-3,-2,0,1,-2,-1
1513230988466885,-4,12,5,0,-1,0,-1,-1
1513230988466885,-3,-7,-3,-1,-1,-1,-1,-1
1513230988489401,0,-1,-4,-3,-2,-2,-2,0
1513230988489401,-5,3,3,0,0,-1,0,-2
1513230988489905,-2,-3,-2,1,1,1,-1,-3
1513230988489905,0,1,-1,-1,-2,-1,-1,0
1513230988511419,-2,-2,-1,0,-1,-1,0,-1
1513230988511419,0,-2,-4,-2,-1,-3,-1,0
1513230988512417,-2,-4,-1,-1,-1,-2,-1,0
1513230988512417,-1,0,0,-1,-1,-2,-2,-1
1513230988525926,0,-5,-2,-1,-1,-2,-1,-2
1513230988525926,-1,1,0,-2,-1,-1,0,0
1513230988526928,-3,-5,-1,-1,-1,-1,-1,-2
1513230988526928,3,1,-1,-2,-1,-2,-2,-2
1513230988550467,-2,4,1,0,2,1,-1,-1
1513230988550467,-2,-4,-3,-2,-2,-2,-1,0
1513230988551445,-1,-3,-2,-1,0,0,-2,-1
1513230988551445,-1,-3,1,-1,0,-3,0,0
1513230988562976,0,1,1,-1,-2,2,0,0
1513230988562976,0,0,-2,-2,-2,-1,0,1
1513230988570974,-3,-7,-6,-3,-2,0,-1,-1
1513230988570974,-4,-2,1,-1,0,-1,0,-2
1513230988585973,-1,1,1,0,-1,-1,0,-2
1513230988585973,-1,-3,-1,-1,-2,-1,0,-2
1513230988586971,-1,-1,-1,-1,-3,-2,-1,0
1513230988586971,0,0,-1,-1,-2,-2,-2,-1
1513230988608986,-5,-1,-2,0,1,-2,-2,-1
1513230988608986,-1,0,0,1,1,-1,-2,-3
1513230988609986,-1,2,-1,-1,0,0,-1,-1
1513230988609986,1,1,-3,-2,-2,0,-1,-1
1513230988622995,1,-3,-1,0,0,-2,0,-1
1513230988622995,1,1,-1,-2,-1,-3,-1,-1
1513230988631011,-2,-1,-1,0,0,-1,-1,-2
1513230988631011,-1,-1,-2,-2,-1,-1,-1,-1
1513230988646012,-3,-2,0,-1,-2,-1,-1,-1
1513230988646012,2,-1,-2,-1,-1,-1,-2,0
1513230988647012,-2,-6,-2,1,-1,-2,0,-1
1513230988647012,0,8,1,-4,-3,-2,-3,-2
1513230988669028,0,-3,-2,0,-2,-1,-1,-1
1513230988669028,-1,-6,-2,-1,-2,0,0,1
1513230988670029,0,1,2,-3,-3,0,0,0
1513230988670029,2,-3,-3,0,-1,1,-1,0
1513230988682540,-2,-1,-1,0,1,0,-1,0
1513230988682540,-2,-5,-3,-1,-1,-2,0,-1
1513230988691043,-1,4,1,2,0,-1,-1,-2
1513230988691043,-2,-7,-2,-1,0,-2,-1,-1
1513230988706053,-1,0,1,-2,0,-1,-1,-1
1513230988706053,-3,-2,1,-1,1,1,-2,-1
1513230988706554,-2,0,-2,-3,-2,-2,-2,-1
1513230988706554,-2,-2,0,-2,0,0,-1,-1
1513230988729070,1,1,0,0,0,-1,-2,0
1513230988729070,-1,0,0,0,-2,-1,-1,-2
1513230988730102,0,-4,-2,-3,-1,-2,0,0
1513230988730102,-3,0,-1,0,-2,-1,1,-1
1513230988742580,1,-1,-2,-1,-1,-2,-1,-1
1513230988742580,-3,3,0,-2,-2,-1,-1,-2
1513230988751086,-1,-5,0,-2,0,-2,-2,0
1513230988751086,-1,-1,-1,1,-1,-1,-1,-2
1513230988766097,-3,1,3,-1,-2,1,0,0
1513230988766097,2,2,-1,-2,-1,-2,-1,-1
1513230988767097,0,1,0,-1,-1,-2,-1,-2
1513230988767097,-2,-3,-2,-1,1,-1,0,-1
1513230988789647,-2,-2,-2,-1,-3,-2,0,-1
1513230988789647,-1,-3,-1,-1,-1,-2,-2,0
1513230988790146,-1,-1,-2,-1,-1,-2,-2,-2
1513230988790146,2,-4,-3,-1,-1,-2,-1,0
1513230988811673,-3,-4,-2,-1,-1,-1,-1,0
1513230988811673,1,3,-3,0,0,-2,-1,0
1513230988812666,3,2,1,-1,0,-2,0,-1
1513230988812666,1,2,-1,-1,-2,-3,-1,-1
1513230988826211,-1,-6,-5,-1,-2,-2,-1,-2
1513230988826211,-2,-4,-1,-1,-1,-1,-2,-1
1513230988826711,3,-1,-4,-1,-1,-1,-2,-2
1513230988826711,-2,1,-1,-1,0,0,-2,-2
1513230988849228,-1,1,0,-2,-1,-2,2,-1
1513230988849228,-2,-1,0,-1,-3,-1,-1,1
1513230988850229,-2,-2,-2,0,-3,0,-2,0
1513230988850229,-1,2,-1,-3,-2,-2,-1,1
1513230988871767,-1,-2,-1,-1,-1,0,-3,-1
1513230988871767,-1,2,-1,1,-1,-1,0,-1
1513230988872246,-3,-1,-1,-1,1,-1,-2,0
1513230988872246,-1,-2,-1,-2,0,-1,-2,-1
1513230988886272,-2,-6,-4,-3,-1,-1,-1,-2
1513230988886272,-1,4,-1,-2,-4,-3,-1,0
1513230988886773,-2,-5,-2,-1,-1,0,-1,0
1513230988886773,-1,2,-1,0,-2,-2,1,-1
1513230988909774,1,0,-1,-1,-2,-2,-2,-1
1513230988909774,-2,-6,-3,-1,-1,1,0,-2
1513230988910271,1,-2,-3,0,-1,-3,-1,-1
1513230988910271,2,-3,-2,-2,1,0,-1,-1
1513230988931843,0,1,-1,-2,-1,-1,0,1
1513230988931843,-1,0,-1,0,-1,0,-2,-2
1513230988932787,-2,-4,-1,-1,-1,-2,0,0
1513230988932787,0,3,0,1,1,-2,0,-2
1513230988946296,0,0,-1,-1,-1,-2,-2,-2
1513230988946296,-2,-3,1,-1,-1,0,-1,-2
1513230988946797,0,1,0,-1,-1,1,0,-2
1513230988946797,-4,-2,-1,0,-1,0,-1,-1
1513230988969315,-2,0,1,-2,-2,-1,-2,0
1513230988969315,1,-6,-6,-2,0,-3,-4,-1
1513230988969814,0,1,1,-1,-1,-2,-1,0
1513230988969814,-1,-2,-1,-2,0,-1,-1,0
1513230988991829,-1,-1,0,1,-1,-1,0,0
1513230988991829,-3,1,1,-1,0,-2,-1,1
1513230988992830,-3,2,1,0,-1,1,0,-3
1513230988992830,2,-3,-4,0,-2,-1,-2,0
1513230989006343,0,-4,-2,-1,-2,-1,0,-1
1513230989006343,0,-3,-1,-2,-1,-2,0,-1
1513230989006851,-1,1,1,-3,-2,-2,0,0
1513230989006851,-1,-2,-2,0,0,-1,-2,-1
1513230989029355,-5,-2,-2,0,-1,-1,-3,-5
1513230989029355,0,-3,-1,0,-1,1,-3,-1
1513230989029856,-1,5,-2,0,0,-1,0,-1
1513230989029856,-2,-4,-1,-2,-1,-2,-1,0
1513230989051893,0,2,-2,0,-1,-1,-1,1
1513230989051893,1,1,-1,-2,-1,-2,-1,-3
1513230989052381,-1,-5,-1,-2,0,-1,-1,-2
1513230989052381,-2,-1,1,0,0,0,0,-1
1513230989066382,1,0,1,-2,1,-1,-1,-2
1513230989066382,1,-1,0,-2,-1,-1,0,0
1513230989066882,-2,-4,-2,-2,-1,0,0,-1
1513230989066882,-2,-3,-1,-1,-1,-1,0,-1
1513230989089397,0,2,-2,-3,-1,-2,-2,0
1513230989089397,-1,1,0,-1,-2,-1,-1,1
1513230989089898,1,-2,-3,-3,-2,-4,-3,-2
1513230989089898,-2,0,-2,-2,0,-1,-1,-4
1513230989111913,1,-2,-2,-2,-2,-2,0,-2
1513230989111913,-3,-1,-3,-2,-1,-1,0,-1
1513230989112414,0,-1,-1,0,-1,0,-1,-1
1513230989112414,-4,-1,-1,0,-1,0,-2,-1
1513230989125923,-2,-3,0,1,-1,-1,0,1
1513230989125923,-1,0,-2,0,0,-1,0,-1
1513230989126423,-4,-1,0,-1,0,-1,-1,0
1513230989126423,2,-1,-2,-3,-1,-1,-1,-1
1513230989148939,-2,-2,0,-1,0,1,-1,0
1513230989148939,-2,1,0,-2,-1,-1,0,-2
1513230989149942,1,0,0,1,-2,0,-2,-1
1513230989149942,-3,-2,-1,0,0,-1,0,-1
1513230989171473,-1,-8,-4,-3,0,-1,0,-2
1513230989171473,0,0,-2,-1,0,-1,0,0
1513230989172456,-2,-6,-1,0,1,-1,-1,-2
1513230989172456,3,0,-1,-1,-2,-1,-2,1
1513230989185965,-1,0,-1,0,0,0,0,0
1513230989185965,-1,0,0,0,-1,-2,-3,0
1513230989186966,-4,3,-1,0,0,0,-1,-2
1513230989186966,-3,-4,-3,-1,-1,-2,0,0
1513230989208985,-4,-2,-2,1,-1,0,-1,-3
1513230989208985,-3,4,2,-2,-1,-1,0,0
1513230989209983,1,0,-2,-1,-2,0,-1,1
1513230989209983,-2,-2,0,-1,-3,0,-1,0
1513230989239004,1,3,0,0,-2,-2,-1,0
1513230989239004,1,-6,-2,1,-2,-1,0,-1
1513230989240004,0,5,0,-2,1,-1,0,0
1513230989240004,1,0,-1,-1,0,-1,-1,-2
1513230989246008,0,1,-1,-2,-1,-1,-2,-1
1513230989246008,-2,-9,-5,0,-1,1,-2,-2
1513230989247013,0,1,-1,-2,-1,-1,1,-1
1513230989247013,0,1,-1,-2,-1,-2,0,-1
1513230989269025,3,2,-1,-1,-1,-1,-1,-1
1513230989269025,-2,-5,-2,-3,-2,-2,-1,0
1513230989270038,-3,-2,-1,-1,-2,-2,0,-1
1513230989270038,-1,0,0,-1,0,-1,-1,-1
1513230989291541,0,0,0,-3,-1,-1,-2,-1
1513230989291541,1,0,-1,0,-2,-1,-1,-1
1513230989292542,-2,-5,-2,0,-2,-2,0,-1
1513230989292542,-2,0,-3,-1,-2,0,-1,-2
1513230989306051,-3,-2,1,-3,-2,-3,0,-2
1513230989306051,-1,0,-1,0,0,-2,-2,-1
1513230989306552,-1,1,0,-1,-1,-2,-1,-1
1513230989306552,-1,-1,0,-1,-1,-1,-1,0
1513230989329066,-3,-3,1,0,0,1,-1,-1
1513230989329066,0,4,2,-1,-1,-1,0,-1
1513230989330097,-3,-3,-2,1,-1,-1,-1,0
1513230989330097,0,1,-2,-2,-2,-1,-1,0
1513230989351582,2,-4,-1,2,0,1,-1,0
1513230989351582,2,7,-1,-3,-1,-2,0,-1
1513230989352583,0,-1,-1,-1,-1,0,-2,-1
1513230989352583,0,0,0,0,-1,-1,0,-2
1513230989366093,0,0,-2,-1,-3,-2,-2,1
1513230989366093,-2,-5,-1,1,0,0,-1,-2
1513230989366596,-1,1,0,-2,-1,0,0,-2
1513230989366596,0,-1,-2,-2,0,-2,-1,0
1513230989389109,-1,-3,-3,-1,0,-1,2,-1
1513230989389109,-2,0,-1,-1,-2,-2,0,0
1513230989390111,-2,-1,-1,-1,-1,-2,-1,-1
1513230989390111,-3,-1,0,0,-1,-1,-2,-2
1513230989411628,-2,2,0,1,0,-1,0,0
1513230989411628,-2,-3,1,1,0,0,-1,-3
1513230989412629,-1,-3,-3,0,-2,-1,0,-2
1513230989412629,0,2,1,-1,-2,-1,0,-1
1513230989425134,-2,0,1,1,2,-1,-1,-2
1513230989425134,-3,-1,-2,0,-1,1,0,-2
1513230989433640,-1,1,0,-4,-2,-1,-2,0
1513230989433640,0,-3,-1,0,-1,-1,0,-2
1513230989449152,1,-2,-1,-1,-3,-2,-1,-2
1513230989449152,-2,-2,0,-1,-1,-2,0,2
1513230989450653,0,-1,-2,-3,0,-1,0,0
1513230989450653,0,-2,0,0,0,0,-1,-2
1513230989471671,-1,-1,-2,-1,-2,0,-2,-3
1513230989471671,1,-2,-5,-2,-2,-1,0,0
1513230989472669,-2,-6,0,1,-1,-1,-1,-2
1513230989472669,-2,7,0,-2,-1,-2,-1,0
1513230989485177,-2,-1,-2,-2,-3,-1,-2,-1
1513230989485177,-1,-4,-3,-1,-2,1,-2,-2
1513230989501198,-1,-2,-4,-1,-1,-3,-1,1
1513230989501198,-1,-5,-2,-1,-1,0,1,-1
1513230989508214,-6,2,1,-1,1,1,0,-2
1513230989508214,0,-6,-3,-2,-3,0,-2,-3
1513230989516199,-1,0,-1,-1,0,-1,0,-1
1513230989516199,0,-4,-2,0,-1,-1,-1,1
1513230989531734,-1,-2,-1,-2,0,-1,-1,0
1513230989531734,-2,0,-2,-2,0,-2,-1,-1
1513230989532235,-2,1,3,1,-2,1,0,-2
1513230989532235,-1,-2,-3,-2,-2,-2,-1,-1
1513230989545243,0,1,-1,-4,-2,-2,0,0
1513230989545243,-1,-4,1,0,0,0,-1,-1
1513230989554250,0,-1,0,-3,-2,-1,-2,-2
1513230989554250,-1,0,-1,-1,-1,-1,0,-1
1513230989569260,0,3,0,-1,-2,-2,-1,-2
1513230989569260,0,-1,-3,-3,0,-3,-2,1
1513230989570761,0,-1,-2,-1,-1,0,-1,-1
1513230989570761,4,-3,-4,-2,-1,0,-2,-1
1513230989591796,-1,-14,-5,-1,-1,-2,-2,-1
1513230989591796,1,8,4,-1,-3,-1,-1,-2
1513230989593297,2,0,-3,-2,-3,-3,-1,-1
1513230989593297,-2,-4,-1,-2,0,-1,-3,-1
1513230989605351,-1,1,-3,0,-2,-1,-1,-2
1513230989605351,-3,-1,-2,-1,-1,-2,1,0
1513230989614369,0,-3,-1,-1,-2,-1,-2,0
1513230989614369,-3,0,0,-1,-2,-1,0,-1
1513230989629379,-2,2,-2,0,-1,0,-2,1
1513230989629379,-1,-5,1,-3,0,-1,-1,-1
1513230989630871,-2,1,0,0,1,0,-1,-2
1513230989630871,0,-3,-2,0,0,-2,0,-1
1513230989651925,1,-1,0,0,-1,-1,0,-1
1513230989651925,-3,1,-3,-1,-1,-1,-2,-2
1513230989653431,-2,-4,-3,0,-2,0,-1,-1
1513230989653431,-7,-1,3,-1,-3,-2,-2,0
1513230989665471,-3,7,3,0,-1,0,-1,-1
1513230989665471,-2,-6,0,-2,1,-1,-1,-2
1513230989674444,-2,-3,-2,-1,-1,-1,-1,-1
1513230989674444,-1,-1,-2,-1,0,-2,0,-1
1513230989688954,-2,-4,-2,-1,-1,-1,1,0
1513230989688954,-4,-1,0,0,-2,0,0,-2
1513230989690955,-1,0,1,0,-2,-2,-1,0
1513230989690955,1,0,0,-2,-1,-2,-1,-1
1513230989711973,0,-2,-2,-1,0,0,-2,-1
1513230989711973,0,-3,-2,0,-2,-1,-1,0
1513230989713471,-4,0,-1,1,0,-1,-1,0
1513230989713471,-1,2,0,-1,-1,0,-1,0
1513230989725498,-1,0,-3,-2,-2,-2,-1,0
1513230989725498,1,-1,-1,-1,-1,-3,-1,0
1513230989740500,0,-3,-2,-2,-1,0,0,-2
1513230989740500,-2,0,0,0,0,0,-3,-2
1513230989748996,-3,-1,0,-2,-1,-2,-1,-3
1513230989748996,-1,0,0,-1,-2,-1,-1,0
1513230989751498,1,-4,-3,-1,-2,0,-1,-2
1513230989751498,-4,1,3,0,-2,-1,1,-3
1513230989779018,-2,-5,-2,0,-2,0,-1,-1
1513230989779018,1,4,1,0,-1,-3,-1,-1
1513230989780519,0,-5,-2,-2,-1,0,0,-1
1513230989780519,1,-1,-3,-2,0,1,1,0
1513230989794031,-1,-1,0,0,0,0,-2,-2
1513230989794031,-4,0,0,-1,1,1,1,1
1513230989795529,-4,2,0,0,-1,-2,-1,-3
1513230989795529,-1,-3,-1,0,-1,-2,-2,-1
1513230989809039,0,-5,-4,0,-3,-2,-1,1
1513230989809039,2,-2,-4,-3,-1,-1,-1,-1
1513230989810541,-2,-1,0,0,0,0,-1,1
1513230989810541,0,-1,-1,-1,-2,-1,-1,-1
1513230989831558,3,3,-3,-6,-3,-4,-2,0
1513230989831558,1,-7,-5,-1,-3,-1,-2,-2
1513230989833056,-1,0,-1,-1,0,0,0,-2
1513230989833056,-1,-2,-3,-2,0,-2,-2,0
1513230989854081,0,0,0,-1,0,-3,-1,0
1513230989854081,0,0,0,-1,-1,-1,0,1
1513230989855573,3,0,-3,-2,0,-2,-2,-1
1513230989855573,0,-2,-2,1,0,1,-1,1
1513230989869585,-2,-3,-3,0,-1,-1,-1,-2
1513230989869585,-3,3,0,1,-1,-1,-1,-2
1513230989871083,-3,-2,-1,-3,-2,0,-1,1
1513230989871083,1,0,0,-2,-1,0,-3,-1
1513230989899102,-1,-2,-1,-1,-1,0,0,0
1513230989899102,-1,-1,-1,-1,-2,-1,-1,-2
1513230989900604,0,0,2,-1,-1,-1,1,0
1513230989900604,-1,-1,-3,-1,-2,-3,-1,-1
1513230989914137,0,-2,1,0,0,0,-2,-1
1513230989914137,4,-6,-3,0,0,1,0,0
1513230989915614,0,3,1,-2,-1,0,-2,-2
1513230989915614,0,-2,0,-1,-2,-2,0,-1
1513230989928654,-1,-3,-4,-1,0,-2,0,-4
1513230989928654,-2,1,-2,-2,-1,-1,0,-2
1513230989935161,-1,0,-3,-1,-1,-2,1,-1
1513230989935161,-2,-1,1,-1,-1,-1,0,-2
1513230989951660,-1,-1,-1,-2,-2,-2,-2,-2
1513230989951660,-3,0,-1,0,-1,-3,-2,-1
1513230989953161,-1,-3,-2,1,-1,-1,-1,-1
1513230989953161,-3,-5,-3,-1,-1,0,-3,-3
1513230989974176,-1,0,0,0,-1,-2,0,0
1513230989974176,-2,-1,-1,0,-2,0,-1,0
1513230989980182,0,-4,-3,-1,-1,-2,-1,-1
1513230989980182,0,-3,-3,-1,0,0,-2,0
1513230989988706,0,0,-3,0,-1,-1,-2,-1
1513230989988706,-3,-1,0,-1,-1,1,-1,-1
1513230989995204,-1,0,-2,-2,-3,-2,-2,-1
1513230989995204,-1,3,-1,-2,-2,-1,0,-2
1513230990011706,-3,-2,2,-1,1,1,1,1
1513230990011706,-1,4,3,0,1,0,-1,-1
1513230990013204,-1,-5,-3,0,0,1,-1,-1
1513230990013204,-2,2,0,-1,-2,0,-2,0
1513230990041724,-1,1,-1,-3,-2,-1,-2,-2
1513230990041724,0,-8,-2,-1,-2,-1,-1,0
1513230990043225,-2,2,0,-1,-2,-1,-1,-1
1513230990043225,-2,-2,0,0,0,-1,-1,-1
1513230990048732,-4,1,-1,0,0,0,-1,-2
1513230990048732,1,-6,-4,-3,-1,-3,-2,0
1513230990055235,-2,-2,1,0,0,1,-2,-1
1513230990055235,0,-3,-3,-2,-2,-1,1,0
1513230990071747,-2,-1,-2,-1,0,1,-1,0
1513230990071747,0,2,-2,-1,-2,-2,1,-2
1513230990073247,-1,2,0,-2,0,-2,-2,-1
1513230990073247,0,0,-2,-2,-2,-1,0,-2
1513230990094261,0,-2,-2,-2,-1,-2,-1,-1
1513230990094261,-2,3,-1,-2,-2,-2,-1,-1
1513230990095763,1,-7,-6,-1,-2,-2,0,-2
1513230990095763,-4,-1,-1,-1,-1,-1,-1,-2
1513230990108771,-1,-1,-1,1,-1,0,-2,-2
1513230990108771,-2,1,0,-1,-1,-1,-1,-3
1513230990115279,0,-3,-2,-2,0,-3,0,-1
1513230990115279,-1,0,0,-1,1,-1,0,-1
1513230990139293,0,-4,-1,-2,-3,-1,0,0
1513230990139293,0,3,0,0,-1,0,-1,-2
1513230990140795,-1,-6,-1,-2,-2,-1,0,-1
1513230990140795,0,0,1,-1,-2,-2,-2,-1
1513230990154303,-2,-4,0,0,-1,-1,-3,-1
1513230990154303,-3,2,0,-2,0,0,-1,0
1513230990155805,2,3,-2,-1,-1,-2,-2,1
1513230990155805,-2,-1,-2,-1,-2,-2,-1,0
1513230990168826,0,-1,-2,-1,1,0,-2,0
1513230990168826,-1,-4,-4,0,0,-1,1,-2
1513230990175330,-3,1,-2,-1,1,-1,-2,-1
1513230990175330,-1,-2,-1,0,-1,-1,0,-1
1513230990191848,-2,1,1,-1,-1,-3,-2,-2
1513230990191848,-3,5,4,0,-2,1,0,-1
1513230990193347,-2,3,1,0,0,-1,-2,0
1513230990193347,0,-2,-3,-1,-2,-2,-2,-2
1513230990214359,-1,-2,-1,0,-1,0,0,-1
1513230990214359,-1,-6,-3,0,-1,-1,-3,-2
1513230990215848,0,-2,0,-1,-1,-1,1,-2
1513230990215848,-4,0,-1,-1,0,1,-1,0
1513230990228357,2,2,-1,-1,-2,-1,1,1
1513230990228357,-2,-6,0,-2,-1,-2,1,1
1513230990235361,1,-2,0,-2,-1,-2,-1,-1
1513230990235361,-6,-3,0,1,0,0,1,-1
1513230990250875,0,0,0,-1,-2,-2,-1,1
1513230990250875,-1,0,-2,-2,-3,-1,-1,-1
1513230990259266,-1,2,0,-1,-1,-1,-2,-1
1513230990259266,-1,-7,-6,-3,-2,-1,-2,-1
1513230990274288,0,3,-2,-2,-1,-1,-1,-1
1513230990274288,0,-2,-1,-2,-1,-1,-1,0
1513230990275777,-1,-1,-1,-2,-1,-1,-2,0
1513230990275777,1,0,0,-1,-2,-2,-1,-1
1513230990287798,-2,-2,-1,-1,-1,-2,0,-3
1513230990287798,0,-4,-5,-2,-1,-2,-1,-2
1513230990296797,-2,-2,-2,-2,-2,0,0,-1
1513230990296797,1,1,0,0,1,0,-1,1
1513230990319807,-2,-4,-2,0,-1,0,-2,-2
1513230990319807,-1,0,0,0,-2,-1,-1,-2
1513230990321324,0,0,-1,-2,-2,-2,-2,0
1513230990321324,1,-1,1,0,-2,-2,-2,-1
1513230990334329,0,0,-2,-1,-2,-1,-2,-2
1513230990334329,-2,-3,-2,0,-1,0,-1,-1
1513230990335829,-3,-2,1,1,1,0,0,-3
1513230990335829,0,1,2,-2,-1,-2,0,-1
1513230990347846,-1,-1,-1,-2,-2,0,-1,-1
1513230990347846,0,6,1,-1,-1,-1,0,2
1513230990356846,-1,-1,-2,-2,-3,-1,-2,0
1513230990356846,0,1,1,-2,0,0,-1,-1
1513230990371827,1,-4,-2,0,-1,-2,-2,-1
1513230990371827,-2,-5,-3,-3,-1,-2,-2,-3
1513230990373325,-1,-1,0,0,0,2,0,1
1513230990373325,-1,0,-2,-2,-1,-3,-1,0
1513230990394365,-2,-1,-1,-1,-1,-1,-1,2
1513230990394365,0,0,-2,-1,-1,0,0,-1
1513230990395846,1,-3,-2,-2,-1,-1,-1,-2
1513230990395846,-1,0,-3,-1,-1,-2,0,-1
1513230990407849,0,-1,-2,-3,-1,-3,0,-3
1513230990407849,-1,-2,-3,0,-3,-1,0,0
1513230990416861,-1,-1,-1,1,-1,-1,0,0
1513230990416861,-3,-1,-2,-2,0,-1,-2,0
1513230990431879,-2,-2,-2,-1,0,0,-1,-1
1513230990431879,0,1,0,-2,-2,-2,-1,-1
1513230990433369,-2,0,-2,0,-2,-3,-2,-1
1513230990433369,-1,-1,-1,-2,-1,0,-1,-1
1513230990454393,-1,-6,-5,-3,-1,-1,0,-2
1513230990454393,0,-4,-1,-1,-1,-2,-1,-2
1513230990456397,-2,-4,-3,-2,-2,1,0,-1
1513230990456397,0,1,-1,-1,-1,-1,-1,-3
1513230990467892,0,1,-3,1,0,0,0,-1
1513230990467892,0,-4,-2,0,-1,1,-1,0
1513230990476914,-2,1,1,0,0,0,-1,-1
1513230990476914,2,-6,-1,-2,-1,0,0,-2
1513230990491424,-6,-1,2,-2,-3,-2,0,-1
1513230990491424,2,-7,-4,-3,-1,-1,-2,-1
1513230990493420,-2,10,1,0,2,0,-1,-2
1513230990493420,-1,-1,-3,-1,0,-1,-1,-1
1513230990513927,-1,-1,-1,-1,-1,-1,1,-2
1513230990513927,-1,-1,-1,-1,-1,0,-1,0
1513230990520430,1,-1,-1,-1,-3,-2,-2,0
1513230990520430,-1,-3,-2,-1,-1,-1,-2,0
1513230990527959,0,-1,-1,-2,0,-1,-3,-1
1513230990527959,-3,-3,-6,-1,-1,-2,-1,-1
1513230990536954,-3,-2,-1,0,0,-2,-2,-2
1513230990536954,-1,1,0,0,-1,0,-2,-2
1513230990551454,0,-1,1,-2,-2,-1,0,1
1513230990551454,-3,2,1,0,-1,-1,-2,-3
1513230990553464,0,-4,-1,-1,-1,-2,-1,-2
1513230990553464,-2,-1,-1,1,0,-1,-1,0
1513230990573968,-1,0,0,0,-1,-2,-1,-3
1513230990573968,-1,1,0,-1,1,-1,-1,1
1513230990575969,0,-3,-1,-1,-3,-2,0,0
1513230990575969,-1,-2,-1,1,-1,-2,-1,0
1513230990587987,0,-2,-1,1,-2,-1,-2,-1
1513230990587987,-2,0,0,0,0,-2,0,-1
1513230990596986,0,-3,0,-2,-1,-1,-3,-1
1513230990596986,-2,-1,0,-2,-2,0,0,0
1513230990611496,-1,1,-3,-2,-2,-2,-1,0
1513230990611496,3,-1,-3,-2,-3,-2,-2,-2
1513230990613495,-1,0,-1,-2,-1,1,-2,-3
1513230990613495,-3,-2,-2,0,0,1,-2,-1
1513230990634523,-1,1,0,-2,-1,0,0,1
1513230990634523,-1,-6,-1,0,1,0,-1,0
1513230990635511,-3,3,0,-2,-3,-2,-1,0
1513230990635511,0,-3,-4,-2,-2,-2,-2,-1
1513230990648029,1,1,0,-1,0,-1,-1,-1
1513230990648029,-3,1,1,-1,2,-2,-1,-1
1513230990656524,-2,1,2,2,1,-1,0,1
1513230990656524,-1,-2,-2,-1,-2,0,-1,-1
1513230990679106,-2,-4,-2,1,-1,-1,-2,-1
1513230990679106,-1,0,0,-3,-2,0,-1,-1
1513230990680555,0,-5,-3,-3,-2,-3,-1,-2
1513230990680555,0,1,1,0,-2,-2,-2,-1
1513230990694092,-5,-1,1,0,0,-2,-3,0
1513230990694092,-1,0,-1,-1,-2,-2,-1,-2
1513230990695563,-2,-2,-4,-2,-3,-2,0,0
1513230990695563,-3,0,-1,-1,-2,0,0,-2
1513230990716601,-1,1,-2,-2,0,0,-1,-1
1513230990716601,-5,-2,-1,1,0,0,-1,-2
1513230990718100,-3,-5,-3,1,-1,0,1,-1
1513230990718100,2,3,-2,-2,-1,-2,0,1
1513230990732113,-3,-4,-1,-1,-1,0,-2,-3
1513230990732113,-1,2,-2,-2,-1,-2,0,-2
1513230990733612,2,0,-1,-2,0,0,-2,-1
1513230990733612,1,-3,-1,-2,-1,-1,-1,-1
1513230990754170,1,-3,-1,0,-3,-1,0,-1
1513230990754170,-1,0,1,2,-2,0,-2,1
1513230990755676,-2,-3,-2,1,0,0,-1,-1
1513230990755676,-3,1,1,-1,-1,-1,0,1
1513230990776688,1,-2,-4,-2,0,-2,-3,-3
1513230990776688,-2,-1,0,-1,-2,-2,0,-3
1513230990778195,1,0,-2,-3,-2,-2,-1,1
1513230990778195,3,-1,-3,-2,-3,-3,-1,-1
1513230990791687,-3,-2,-1,2,0,0,1,-1
1513230990791687,-3,-1,-2,0,-1,-1,0,-1
1513230990793187,-2,-2,-1,-1,-1,-2,-2,-1
1513230990793187,1,-2,-2,-3,-1,-2,-2,0
1513230990814205,0,-2,-1,-2,-1,0,0,0
1513230990814205,-3,0,0,0,-1,-1,-2,-1
1513230990815704,-2,-2,-1,-1,-1,0,-1,-1
1513230990815704,-1,2,0,-1,-1,0,-1,1
1513230990836737,1,-2,0,-2,-2,-1,-3,-1
1513230990836737,1,-1,0,-3,-2,0,-1,-1
1513230990838238,-1,0,-1,-2,-2,-1,-1,-1
1513230990838238,-4,-2,0,-1,-1,-3,-1,-1
1513230990851229,-2,1,-1,-1,-1,-2,-1,-1
1513230990851229,1,-2,-2,-2,-3,-3,0,-1
1513230990865295,-2,-2,-1,0,1,-1,0,0
1513230990865295,-6,-4,-2,-1,-1,-2,-2,-4
1513230990874254,-2,0,-1,-1,0,-2,-1,1
1513230990874254,2,1,-2,-2,-1,-3,-1,-1
1513230990875756,-2,-2,-2,-1,-2,-1,0,0
1513230990875756,0,-2,-2,-1,-2,0,1,0
1513230990904266,-1,-2,-1,-1,-1,0,-1,1
1513230990904266,-1,-2,0,-2,-1,-1,-2,-1
1513230990905777,1,-4,-1,-1,-1,-1,-3,-1
1513230990905777,-1,-2,0,0,0,-1,0,-1
1513230990911281,-2,-1,-1,-2,-2,0,0,-1
1513230990911281,0,-2,-2,0,-3,-1,-1,0
1513230990917775,0,0,0,0,-2,0,-1,-2
1513230990917775,-1,0,-1,-1,0,-1,-1,-1
1513230990934297,1,0,1,-2,-1,-2,0,-2
1513230990934297,-1,1,-2,-1,-1,-1,-1,0
1513230990935798,0,0,0,-1,-2,-3,-2,-2
1513230990935798,-1,-1,-1,-1,0,-1,-2,-2
1513230990956817,1,0,-2,-1,-2,-3,-1,-1
1513230990956817,-1,-2,-2,-1,0,0,-1,0
1513230990958319,-1,-1,-1,-1,-1,2,0,-1
1513230990958319,-2,0,-1,0,0,-1,-3,-2
1513230990970816,-3,-6,-6,-3,-1,-1,-2,-3
1513230990970816,-3,1,1,-1,-2,0,0,-1
1513230990977818,0,1,0,-1,1,-1,1,0
1513230990977818,-3,-5,-2,-1,-3,-2,0,-1
1513230990994344,-1,-1,-2,-1,-1,-3,-2,0
1513230990994344,-2,-3,-2,0,-1,-1,0,-1
1513230990995848,-4,-1,-1,-1,-2,-1,-3,-2
1513230990995848,-1,1,-1,0,-2,2,-1,0
1513230991016848,1,0,-2,0,-1,-1,-2,1
1513230991016848,-1,0,-1,-1,-1,-1,-1,-1
1513230991018347,0,1,0,-2,-1,-4,0,0
1513230991018347,1,-2,-1,-4,-1,0,-1,-1
1513230991030880,-1,-2,0,0,0,-1,-1,-3
1513230991030880,-1,-3,-2,-1,-1,-2,-1,0
1513230991037885,1,-2,-4,-1,0,1,0,1
1513230991037885,-2,2,1,-1,-1,-1,-1,0
1513230991054372,-1,0,0,-1,0,-1,1,-3
1513230991054372,-1,1,-2,-1,-1,-1,-1,-1
1513230991056885,0,-3,-2,2,0,-1,-1,-2
1513230991056885,1,-2,-2,-1,-2,1,1,-2
1513230991076890,-2,0,0,0,0,1,-1,-1
1513230991076890,-3,-1,0,0,0,0,-1,0
1513230991078399,-1,-2,-3,-2,1,-2,0,-2
1513230991078399,-1,0,-1,-2,0,-2,-1,-1
1513230991091909,0,-2,1,-1,-1,0,-1,-1
1513230991091909,0,5,3,-1,1,-1,0,1
1513230991097904,1,-1,-2,0,-1,-2,-2,-1
1513230991097904,-2,-5,-4,-1,0,-2,-1,-3
1513230991114415,-1,0,-1,0,-3,-1,-2,-1
1513230991114415,-2,-5,-3,-1,-1,0,-3,-2
1513230991115416,2,2,-1,-2,-1,-2,-1,1
1513230991115416,2,5,1,-3,-2,-2,-1,-1
1513230991143973,-1,-7,0,-2,-3,0,-1,-1
1513230991143973,0,-1,-1,0,-1,0,-1,-3
1513230991145965,-3,-2,-1,-1,-1,0,-3,-2
1513230991145965,0,-3,-2,0,-3,-3,-2,0
1513230991150941,-2,2,-1,-3,-1,-1,0,-1
1513230991150941,-2,-1,-2,-1,0,-1,-2,-1
1513230991157946,-4,-1,0,-1,0,0,1,-3
1513230991157946,-2,-3,-2,0,0,0,1,-1
1513230991174459,-1,0,-1,-2,-1,-1,0,0
1513230991174459,-2,-1,0,-2,-2,-3,0,-3
1513230991175959,-3,0,-1,-2,-2,-1,-1,-1
1513230991175959,-3,-2,0,1,-2,-1,-1,-1
1513230991196497,-1,-1,-1,-2,-3,-2,-1,0
1513230991196497,1,1,1,-2,-1,0,-1,2
1513230991198480,-3,0,1,0,0,-1,-2,-1
1513230991198480,5,1,-4,-1,0,-3,-2,0
1513230991210486,-3,-2,-1,-1,0,0,1,-2
1513230991210486,-1,-3,-2,-2,-1,-1,-1,-2
1513230991219499,0,-3,-2,-2,-3,-2,0,0
1513230991219499,-1,1,-1,-2,0,-1,-2,1
1513230991234500,-3,0,-3,2,0,-1,-2,-1
1513230991234500,-4,-6,-1,0,-1,1,-2,-3
1513230991236000,0,0,-2,-3,-3,0,-1,0
1513230991236000,-3,-3,-1,0,0,0,-1,-2
1513230991257518,0,1,-2,-3,-1,-2,-1,-2
1513230991257518,-2,0,-3,-2,-2,-1,1,-1
1513230991259032,-1,3,2,-1,-2,-3,-1,0
1513230991259032,-3,-6,-2,0,-1,-1,-2,-2
1513230991270525,0,0,0,-3,-1,-2,-1,-1
1513230991270525,0,-1,-2,0,-1,-2,-2,0
1513230991285034,-1,-2,-1,-1,-1,-1,0,-1
1513230991285034,-4,2,0,-1,-1,-1,-2,-2
1513230991294042,-1,-2,-2,0,-1,-1,0,-1
1513230991294042,2,0,-1,-1,-1,-2,-1,0
1513230991295544,-3,-2,-1,-2,-2,-1,-2,0
1513230991295544,-2,-1,-1,-2,-2,-2,1,-2
1513230991316558,-3,-1,0,1,-3,-1,0,0
1513230991316558,0,3,-1,-2,-1,-2,0,-2
1513230991318062,-1,-1,2,0,0,-1,1,-2
1513230991318062,0,-1,-1,-1,-1,-2,0,-1
1513230991330067,-2,-5,-4,-1,-1,0,-2,-1
1513230991330067,0,-2,-1,-3,0,-1,0,0
1513230991339089,-1,-3,0,1,-1,0,-1,-2
1513230991339089,-1,0,0,-1,-2,-1,0,0
1513230991354094,1,-1,-2,0,0,-1,-3,-1
1513230991354094,-1,-5,1,1,1,-2,-1,0
1513230991355587,-1,-2,-2,0,0,0,-2,-1
1513230991355587,-1,0,0,-1,-1,0,-4,-1
1513230991376600,-1,0,-2,-4,-1,-2,-1,-1
1513230991376600,-6,2,0,-1,0,1,-1,-1
1513230991378102,-2,-8,-6,-1,-1,0,-1,-2
1513230991378102,-1,0,-1,-1,0,-1,-1,-1
1513230991390109,-3,0,-1,-2,0,0,-1,0
1513230991390109,-1,2,1,-2,0,-1,0,0
1513230991399127,-1,2,0,-2,-2,-1,0,-1
1513230991399127,0,-4,-2,-1,-3,-3,-2,0
1513230991421693,-3,-4,-1,-1,-1,0,-1,0
1513230991421693,0,-2,0,-1,-2,-1,-2,-3
1513230991423634,-2,0,-1,-1,0,0,-2,-2
1513230991423634,-1,0,0,-1,0,1,0,-2
1513230991436672,0,1,-1,-2,-1,-2,-3,-1
1513230991436672,-2,-5,-2,-2,-3,-1,-2,-1
1513230991438173,0,-3,-1,-3,-1,-3,-1,-2
1513230991438173,-4,-1,0,-2,1,-3,-1,-2
1513230991459370,-1,-1,0,-1,-3,-4,-1,-2
1513230991459370,-4,-1,-1,-2,-2,-1,-1,-2
1513230991460873,-1,0,-1,0,-1,-1,-1,-1
1513230991460873,1,2,0,1,-1,-1,0,-2
1513230991474370,-3,-4,-2,1,-1,0,-2,-3
1513230991474370,0,-5,-3,-1,-2,-3,-1,-1
1513230991475871,2,7,-2,-3,-4,-1,-2,0
1513230991475871,-3,0,0,0,0,0,1,-3
1513230991496892,0,-2,0,0,0,-2,0,0
1513230991496892,0,-1,-3,-2,0,-2,-1,0
1513230991498393,-1,-4,-3,-2,-1,-1,-2,1
1513230991498393,0,-3,-2,-2,-1,-1,-3,2
1513230991510397,-2,4,1,-2,-2,-2,-1,-1
1513230991510397,-2,-4,-2,0,-1,0,0,-1
1513230991519389,1,-1,-1,-2,-1,-2,0,-2
1513230991519389,-3,-3,-2,-2,-2,0,-1,0
1513230991534410,0,-1,-2,-1,-1,0,1,-1
1513230991534410,-5,0,0,-3,0,-1,-2,0
1513230991535901,-10,-5,0,-1,-1,0,-1,-1
1513230991535901,0,2,-4,-2,-1,-3,0,-1
1513230991563921,-1,4,4,1,1,1,-1,0
1513230991563921,7,2,0,1,0,-2,-2,0
1513230991565922,0,4,-2,0,-1,0,0,5
1513230991565922,-7,-10,-4,-1,-2,-1,-2,-4
1513230991570425,-2,-4,-1,-1,1,-1,-1,-3
1513230991570425,2,-2,-4,-2,-2,-1,-3,-2
1513230991579435,1,1,0,2,1,0,0,-3
1513230991579435,-1,2,-3,-2,-1,0,-2,1
1513230991593442,3,-2,-2,-2,-1,0,0,0
1513230991593442,-11,-7,2,0,0,0,1,-5
1513230991600465,12,-4,-6,-6,-3,-5,-5,-3
1513230991600465,-2,0,0,-2,-3,0,-1,-1
1513230991616458,-11,-5,-8,-3,-3,0,-2,-2
1513230991616458,5,-7,-4,-3,-3,-5,-4,-4
1513230991618459,-6,-2,0,0,1,-1,1,-2
1513230991618459,-4,-3,-2,2,2,0,-1,-3
1513230991638992,3,3,1,-1,-1,-2,-1,0
1513230991638992,2,2,-2,0,-2,-1,-2,0
1513230991640994,-1,0,3,0,0,0,-1,1
1513230991640994,5,-2,-6,-2,-2,0,-1,1
1513230991653985,-5,-4,1,-2,-1,0,-1,-1
1513230991653985,2,0,-8,-6,-2,-1,0,0
1513230991655485,0,1,8,6,1,-1,-3,-4
1513230991655485,1,-3,-3,1,-1,-2,-1,-1
1513230991676501,-2,-1,-2,-1,-3,-2,0,-2
1513230991676501,-3,0,-3,-5,-2,-3,0,-2
1513230991678501,-4,1,-3,-3,-3,-1,-2,-1
1513230991678501,-5,-3,-1,1,1,-1,-2,-3
1513230991699019,0,-4,-4,0,-1,-3,-2,-1
1513230991699019,8,9,0,1,1,-1,-2,2
1513230991701019,-4,3,0,-3,-1,-1,1,2
1513230991701019,4,0,2,1,-1,0,0,0
1513230991714030,-3,-5,-10,-5,-3,0,-1,-6
1513230991714030,-11,4,13,-3,-3,-2,-3,-5
1513230991716028,14,-7,-3,4,-3,0,0,3
1513230991716028,11,1,4,-2,-1,-1,2,6
1513230991736552,5,3,-16,-7,-2,-1,-2,0
1513230991736552,-18,-14,13,4,-3,-1,-4,-4
1513230991738055,-3,0,-4,-4,-1,0,-1,-5
1513230991738055,-9,2,4,1,3,0,0,-2
1513230991759062,5,-4,-6,3,-1,-1,0,5
1513230991759062,3,3,-1,-4,-2,0,0,-1
1513230991760560,-13,-4,2,0,-1,-2,-1,-5
1513230991760560,2,0,-4,-5,-5,-1,-2,-1
1513230991774070,1,5,2,-1,-2,-3,-1,1
1513230991774070,-7,2,-5,1,2,3,3,0
1513230991775571,20,-5,-3,-5,-2,-2,-2,-3
1513230991775571,-5,3,-2,-5,-2,-1,-1,0
1513230991796606,8,2,1,-1,-3,-1,-3,-3
1513230991796606,-9,-7,0,0,-2,1,0,-1
1513230991798089,-5,-2,-6,-1,-1,0,0,-2
1513230991798089,5,1,4,2,-1,-3,-1,-3
1513230991819611,-1,5,2,4,0,1,0,1
1513230991819611,14,1,-5,-3,1,-2,-1,0
1513230991821112,-21,0,5,-7,0,1,-1,3
1513230991821112,-22,-7,-5,-2,-4,-3,-5,-6
1513230991842131,13,-2,1,-5,-1,-1,0,4
1513230991842131,-5,5,-6,-1,2,1,1,4
1513230991844119,-12,-3,-5,1,1,-2,-3,-6
1513230991844119,0,-3,4,0,-3,-3,-3,-2
1513230991856645,-6,0,8,4,1,0,0,-5
1513230991856645,5,-1,-8,-2,-2,-2,0,8
1513230991858129,-14,-8,0,9,-5,-3,-3,-4
1513230991858129,-9,5,-8,-14,1,-1,1,-1
1513230991879156,-12,-20,-3,-5,0,-2,-3,-9
1513230991879156,7,4,-2,-2,-1,-2,-1,-1
1513230991880644,-4,5,-2,1,1,0,1,-1
1513230991880644,6,2,3,7,1,2,1,5
1513230991893654,-14,-5,-1,3,0,-3,0,-5
1513230991893654,1,-6,-10,-12,-3,-1,-2,-5
1513230991900158,11,0,5,-1,-1,0,1,4
1513230991900158,13,-2,-7,0,0,0,-1,0
1513230991916670,3,6,2,-2,-1,1,0,4
1513230991916670,-10,-3,-7,4,-1,-3,-4,-9
1513230991918172,9,2,-6,-3,-1,-1,2,4
1513230991918172,-6,5,2,-6,-3,-4,-1,-1
1513230991939186,-4,-8,-3,1,-3,-2,-3,-1
1513230991939186,-8,4,3,3,1,0,1,-3
1513230991940687,6,-1,-6,-3,0,-1,-2,3
1513230991940687,-8,1,6,6,-1,0,-1,-2
1513230991953196,-9,0,-5,3,-3,-2,-1,1
1513230991953196,-21,-9,8,-7,-3,-3,-3,-6
1513230991960204,12,9,-2,-10,-3,-2,-3,-5
1513230991960204,11,-2,-6,2,4,2,0,-3
1513230991976713,11,0,4,4,-1,-3,-1,0
1513230991976713,10,3,-12,-8,-1,1,-2,0
1513230991978214,-16,-10,-2,-4,-2,-1,-2,-2
1513230991978214,10,8,2,-10,-3,-1,1,-1
1513230991999338,-2,1,7,8,4,1,2,-3
1513230991999338,1,-8,-2,12,1,-1,-2,0
1513230992000820,5,5,-5,-4,-1,0,1,2
1513230992000820,-8,-12,-7,-2,-1,-1,-1,-2
1513230992013329,14,12,0,-10,-2,-1,1,7
1513230992013329,17,-2,1,1,-4,-2,-2,-9
1513230992020333,5,0,0,4,-1,-1,-6,-4
1513230992020333,31,11,7,3,1,2,7,20
1513230992036352,-12,-12,-4,-8,-3,-3,-4,-1
1513230992036352,-16,-3,3,2,0,1,4,2
1513230992038344,-6,-1,-1,-2,-3,-3,-3,-7
1513230992038344,6,9,-1,-2,0,-2,-1,-4
1513230992058858,-6,1,-2,-3,2,0,0,-2
1513230992058858,-6,0,0,1,1,-1,-1,-2
1513230992060859,-8,-11,2,-1,0,2,2,3
1513230992060859,-24,-8,-3,1,-2,-4,-7,-9
1513230992073368,4,5,-5,-5,-1,1,0,0
1513230992073368,9,1,-1,-1,-3,-2,-4,-3
1513230992080400,-10,-6,-3,1,0,-2,0,2
1513230992080400,-17,-6,-4,-4,-6,-2,-4,-7
1513230992096885,14,-3,-1,-5,-2,-3,-2,0
1513230992096885,22,7,0,-6,0,2,6,14
1513230992098389,-8,1,1,8,2,-3,-8,-13
1513230992098389,-4,-2,-1,1,-1,-1,1,3
1513230992119424,2,-2,-2,-1,-4,-2,-4,-1
1513230992119424,-10,-1,2,-1,0,2,2,2
1513230992120903,1,2,-5,-2,-1,-2,1,4
1513230992120903,-5,-7,-3,-3,-1,-1,2,1
1513230992132922,-1,12,3,2,1,1,0,-3
1513230992132922,-4,-15,-1,0,-1,-2,-2,0
1513230992141920,-3,0,1,-2,-4,0,1,-1
1513230992141920,22,10,2,3,3,1,-1,1
1513230992156438,-20,-21,-4,-1,0,0,2,5
1513230992156438,-6,-1,4,2,0,-2,-3,-4
1513230992158429,-6,-9,-7,-4,-2,-2,0,-4
1513230992158429,-10,4,-3,3,0,2,6,2
1513230992179455,-9,-7,-3,-11,-1,4,21,-1
1513230992179455,0,8,4,6,-2,-1,12,3
1513230992180444,26,-1,1,0,-1,-1,-36,6
1513230992180444,2,-10,-3,-2,-1,-1,-8,-3
1513230992192963,-9,4,-3,2,-3,-3,-13,3
1513230992192963,12,-4,-6,-3,-4,0,7,-2
1513230992201960,-4,3,3,-4,-1,-1,11,-3
1513230992201960,-6,-7,-2,-1,-3,-4,-18,-19
1513230992216470,3,9,7,2,0,-1,16,-5
1513230992216470,11,-5,-6,-3,-2,0,13,16
1513230992218471,0,3,2,-1,0,5,27,27
1513230992218471,-9,-3,3,3,-1,-9,-66,-35
1513230992238995,-2,2,-2,1,-4,-2,-17,-8
1513230992238995,-13,-2,7,0,2,-3,-2,-19
1513230992240488,11,4,-1,-2,2,2,10,9
1513230992240488,-14,-27,-20,-6,-4,-4,12,1
1513230992261504,5,-1,2,-4,1,-1,-25,26
1513230992261504,-14,-5,-9,-4,-4,-6,6,-45
1513230992263502,19,12,18,11,4,2,19,6
1513230992263502,-4,7,1,-2,-3,-3,16,18
1513230992276524,3,-1,-17,-5,-2,0,2,-22
1513230992276524,-3,-2,-1,-5,-2,-2,-6,13
1513230992278025,-7,2,3,-4,-1,3,3,-11
1513230992278025,4,0,12,5,1,4,64,22
1513230992299050,-1,7,2,-2,0,-6,-25,-9
1513230992299050,-1,-1,1,2,0,2,-22,13
1513230992301029,-6,4,0,2,0,0,1,-17
1513230992301029,-14,-7,-11,-2,1,2,4,4
1513230992313039,-7,5,3,-2,-1,-6,12,9
1513230992313039,5,3,-1,2,1,1,-18,-19
1513230992329052,-1,-5,-8,-4,-2,-7,-8,-1
1513230992329052,-5,0,0,-7,-2,0,-20,-13
1513230992336567,-11,-11,-1,1,1,4,43,-7
1513230992336567,3,11,5,4,-2,-2,14,20
1513230992338058,-5,-7,-5,-6,-2,0,-27,34
1513230992338058,-9,-1,2,-3,-4,-7,-22,-65
1513230992359073,21,5,-2,1,1,1,-12,13
1513230992359073,-13,-3,5,0,-1,0,10,2
1513230992360572,-6,-14,-13,-6,-6,-3,-1,-15
1513230992360572,7,10,-5,3,0,2,-2,19
1513230992372619,2,0,-6,-5,-4,-3,5,1
1513230992372619,4,-10,-21,0,1,-1,-12,5
1513230992381626,2,8,-5,-5,0,1,14,-11
1513230992381626,9,17,22,1,2,0,11,16
1513230992397150,-7,-8,-13,0,0,1,-2,-12
1513230992397150,-2,-3,-7,-2,-4,-2,5,4
1513230992398651,-12,-6,-4,0,-3,-2,-19,-7
1513230992398651,31,9,12,4,0,-1,6,13
1513230992419150,-6,-13,-5,2,0,2,15,7
1513230992419150,-1,-6,2,-3,-1,0,-25,-20
1513230992420644,-9,-2,-8,-3,-3,-2,17,2
1513230992420644,-7,3,16,3,1,1,9,-5
1513230992432724,-4,-10,-4,-1,-1,-2,-23,2
1513230992432724,0,7,4,-2,-2,-1,24,15
1513230992441659,-5,2,0,3,1,-3,-16,-29
1513230992441659,3,0,-13,-9,-2,1,9,57
1513230992457172,-3,-15,9,0,0,-5,9,-58
1513230992457172,0,21,-1,-2,-1,2,-11,-3
1513230992464678,-16,2,7,2,1,3,24,4
1513230992464678,-1,-15,3,5,2,-3,-10,-18
1513230992479196,-7,7,-2,-1,-1,-4,-33,22
1513230992479196,4,-3,12,-1,0,4,-1,-7
1513230992480691,6,-9,-7,1,0,-4,-4,-11
1513230992480691,-18,-14,-2,-5,-2,0,-5,8
1513230992492695,-7,30,17,2,-2,-4,-19,-42
1513230992492695,1,-14,-11,3,2,0,-3,16
1513230992501701,-13,5,-8,1,2,3,2,14
1513230992501701,12,-28,-13,-6,-2,2,0,5
1513230992517212,-3,43,28,5,2,5,39,5
1513230992517212,-9,-17,-1,-11,-10,-16,-43,-4
1513230992518715,0,-15,18,13,4,3,-4,-3
1513230992518715,-6,17,-20,-7,0,0,0,-7
1513230992539227,-12,-57,-14,-5,-1,5,7,5
1513230992539227,-6,-5,8,1,-2,-3,26,7
1513230992540739,9,38,7,-10,-4,-4,-38,-3
1513230992540739,-25,-16,-41,-8,-6,-6,-17,-19
1513230992552747,20,10,7,10,2,0,-5,15
1513230992552747,-3,16,12,-5,-4,-3,-13,-11
1513230992569248,-1,-3,-15,1,-3,-4,-9,-9
1513230992569248,4,-19,3,-4,-1,0,40,33
1513230992576254,8,25,6,1,-3,-10,-65,-19
1513230992576254,-1,-32,-25,-1,2,0,9,-15
1513230992578255,-11,-42,-2,-3,-3,1,5,-26
1513230992578255,-9,26,-3,1,0,4,26,11
1513230992599271,21,-3,14,-2,-2,-6,-28,17
1513230992599271,-24,-16,26,15,5,5,4,-10
1513230992600781,-3,37,-9,-20,-5,-7,9,24
1513230992600781,13,34,10,1,-1,-4,-11,-21
1513230992621786,-12,-67,7,13,6,3,19,4
1513230992621786,10,22,2,-3,0,3,0,9
1513230992623290,3,18,-5,-3,-2,-5,-1,7
1513230992623290,-4,-16,-8,5,0,-1,0,-3
1513230992636817,7,37,29,8,3,3,25,16
1513230992636817,11,9,-17,-6,-5,-4,-3,12
1513230992638298,-8,-24,-10,-4,-3,-2,-3,5
1513230992638298,-1,-52,25,5,-1,-3,-20,-20
1513230992659335,-16,21,-47,-13,-6,-3,0,-2
1513230992659335,9,11,31,15,6,5,2,9
1513230992660835,-10,-22,-18,-1,-2,-1,33,-1
1513230992660835,15,43,5,-20,-7,-2,-26,-3
1513230992681338,4,-9,-4,-18,-8,-4,22,20
1513230992681338,-14,29,-2,8,1,-3,8,-39
1513230992683329,-2,-5,-10,-3,0,-1,-10,-4
1513230992683329,32,7,-17,8,2,0,-8,-9
1513230992696339,-33,-31,2,-14,-5,-2,0,-16
1513230992696339,-7,42,5,-1,0,3,29,21
1513230992698340,12,-49,12,2,-1,-2,-18,-2
1513230992698340,13,39,24,10,4,2,-27,-18
1513230992719355,-11,5,-19,9,-5,-3,1,0
1513230992719355,19,-10,-30,-22,-4,-6,-8,10
1513230992720871,-5,6,21,0,1,1,-8,-10
1513230992720871,13,31,-5,-16,-6,-1,5,5
1513230992741371,9,-25,-9,4,2,-5,-3,7
1513230992741371,-7,-65,4,13,2,0,0,12
1513230992743372,15,26,-10,-8,-5,-1,-3,20
1513230992743372,-11,-26,1,6,-2,-3,29,-14
1513230992755894,0,6,-3,0,1,-2,-26,-21
1513230992755894,11,5,21,2,0,1,-2,1
1513230992762886,-5,-25,-12,6,-3,-7,6,5
1513230992762886,-1,1,-18,-11,-5,-1,-1,13
1513230992778914,21,38,16,0,2,0,-18,-18
1513230992778914,10,32,-2,0,-2,-3,-16,-4
1513230992780899,-15,19,-2,-28,-8,-5,-5,-6
1513230992780899,-41,-76,-18,8,1,-2,-4,-5
1513230992801413,0,-11,12,4,1,-1,13,8
1513230992801413,1,11,-34,-14,-1,5,-2,-1
1513230992803415,16,32,16,16,5,1,-2,-5
1513230992803415,-9,-18,2,3,-1,-3,-9,-9
1513230992815926,-7,-22,-20,-17,-5,1,6,21
1513230992815926,-10,-40,-21,3,-3,-1,29,9
1513230992822928,27,68,11,-14,-2,-2,-14,-32
1513230992822928,-12,-9,14,14,2,-2,-3,1
1513230992838940,-3,-43,-48,-14,-7,-4,-10,15
1513230992838940,6,-3,26,0,-5,-2,4,-16
1513230992840941,-6,-31,-7,1,-1,2,5,-4
1513230992840941,5,47,13,0,2,2,15,30
1513230992861455,4,24,-5,-3,-5,-7,-25,-20
1513230992861455,20,-11,12,3,2,-1,2,4
1513230992862957,-25,-34,2,0,-6,-2,-15,-5
1513230992862957,8,24,-4,-15,-3,-2,-1,0
1513230992875966,7,0,8,11,2,3,26,7
1513230992875966,-8,-6,-13,-8,-3,-5,-41,-13
1513230992882970,12,-2,-2,12,6,3,23,16
1513230992882970,5,32,-2,-3,-6,-5,-31,-9
1513230992898985,-19,37,16,-8,1,4,23,-5
1513230992898985,26,-3,-10,-2,-4,-4,16,18
1513230992900483,8,18,23,9,3,1,-31,-19
1513230992900483,-13,-5,-5,4,1,-1,17,-7
1513230992921555,-7,-38,-46,-24,-10,-6,1,2
1513230992921555,-28,14,19,7,0,1,-5,1
1513230992923500,-6,-37,-21,-3,2,2,11,-1
1513230992923500,-16,-38,-22,-9,-6,-3,-8,3
1513230992936018,13,5,33,24,10,6,-7,11
1513230992936018,5,21,-1,-9,-5,0,26,7
1513230992950519,-3,-26,0,-3,-2,-4,-29,2
1513230992950519,8,-14,30,6,1,-2,-21,-4
1513230992959027,-9,-10,-38,-14,-6,-1,1,-9
1513230992959027,-22,15,3,-8,-6,-3,-25,-11
1513230992960526,2,-17,-2,12,5,3,30,11
1513230992960526,9,-6,0,-5,-1,2,8,-2
1513230992989091,2,65,40,9,2,-1,-6,-19
1513230992989091,-19,-87,-55,6,2,-4,-1,0
1513230992990584,0,33,16,-5,-3,0,-1,-4
1513230992990584,-10,-14,5,6,3,3,11,3
1513230992996097,-18,-12,-5,0,-1,-1,5,-16
1513230992996097,30,27,-13,-12,-4,-5,4,17
1513230993002599,-10,29,11,8,3,0,-21,-10
1513230993002599,4,21,5,-3,-1,-2,-5,-3
1513230993019101,-2,-47,0,8,2,3,22,34
1513230993019101,-7,23,19,14,4,-2,-13,-43
1513230993020602,12,-17,-24,-13,-5,-3,-2,-3
1513230993020602,-1,6,-13,-11,-5,-2,2,-4
1513230993041617,-10,-19,39,5,0,2,-3,-3
1513230993041617,9,-12,-11,-7,0,2,-2,3
1513230993043129,9,13,3,2,-5,-4,25,10
1513230993043129,9,-11,-9,6,3,-1,-3,-13
1513230993056129,-12,29,-1,1,-2,-3,-2,-10
1513230993056129,11,-1,-4,-16,0,1,-12,-3
1513230993070141,-12,-12,-3,-5,-5,-1,11,-13
1513230993070141,2,-4,-3,13,1,1,-19,14
1513230993079144,7,40,3,-11,-1,0,-1,3
1513230993079144,-30,-75,-3,-5,-2,-1,-12,0
1513230993080645,-10,18,26,14,3,-5,-10,-7
1513230993080645,-20,-50,-66,-13,-3,-1,16,-1
1513230993101670,18,-6,6,10,4,2,10,7
1513230993101670,-12,60,3,1,-7,-7,-12,-14
1513230993103172,-3,-17,-3,-12,-2,1,15,25
1513230993103172,8,-9,-6,-1,-3,0,-6,3
1513230993124178,-4,5,-6,1,1,1,7,-23
1513230993124178,14,-27,-6,-5,0,-1,0,7
1513230993125678,-15,29,-4,3,0,0,-6,5
1513230993125678,-20,16,27,-4,-1,-6,9,-10
1513230993139188,33,-47,-15,1,-4,-2,15,28
1513230993139188,-4,41,-39,-10,3,-1,-28,-9
1513230993140689,-8,-39,-21,5,-2,-1,7,-5
1513230993140689,-14,-27,-8,-12,-3,-3,-42,-22
1513230993161705,-2,15,27,3,1,0,-5,2
1513230993161705,-1,8,-25,-10,-10,-9,3,2
1513230993163204,10,4,9,2,-1,-2,0,2
1513230993163204,0,0,9,11,4,8,31,8
1513230993175212,-12,-9,-4,-12,-1,0,-6,-11
1513230993175212,11,24,26,1,-2,-2,-24,7
1513230993184222,5,2,-13,-7,2,0,-9,3
1513230993184222,11,19,40,16,3,2,-5,-7
1513230993199240,-3,3,-39,-13,-10,-9,-8,-28
1513230993199240,2,-14,21,10,4,5,20,4
1513230993200748,-6,-7,-21,-10,-8,-5,10,16
1513230993200748,-6,13,15,9,-1,-4,-11,-15
1513230993229260,-3,28,2,0,0,-1,-7,19
1513230993229260,-32,-18,14,9,0,0,15,-12
1513230993230762,11,-22,-4,-20,-6,-8,-21,-15
1513230993230762,22,30,33,3,-2,0,25,30
1513230993235266,2,9,-65,-19,-9,-8,-18,-18
1513230993235266,-2,-7,20,2,-1,-1,0,1
1513230993244261,-3,18,18,23,10,8,15,1
1513230993244261,-15,-23,-25,-13,-8,-5,14,12
1513230993259271,9,-29,18,9,1,1,-5,-1
1513230993259271,6,27,27,12,2,6,35,28
1513230993260775,30,-9,-44,-29,-10,-7,-35,-21
1513230993260775,-16,0,5,8,3,4,9,-15
1513230993282307,-4,-36,8,5,-1,-3,-12,12
1513230993282307,10,4,-10,-11,0,-1,-3,-6
1513230993283789,-12,18,30,15,5,3,11,4
1513230993283789,-1,-2,-31,-19,-6,-4,-14,-6
1513230993295316,6,4,29,12,3,0,1,-8
1513230993295316,-5,-52,-8,2,1,1,-4,-3
1513230993304313,1,48,-5,-9,-4,-1,4,7
1513230993304313,13,-5,8,4,3,2,-8,14
1513230993318813,0,-5,3,13,4,1,14,1
1513230993318813,-12,-2,-26,-18,-8,-6,-12,-3
1513230993320816,-17,-25,23,5,1,1,3,-13
1513230993320816,-19,-11,-42,-18,-9,-7,-3,-1
1513230993341865,6,7,20,-3,-1,2,2,20
1513230993341865,11,27,4,9,3,5,-4,3
1513230993343346,8,-11,9,8,-2,2,53,-10
1513230993343346,27,4,4,6,0,-4,-40,2
1513230993355340,-12,10,17,-11,-1,-1,-10,-6
1513230993355340,-7,-32,-32,10,-2,-3,-5,-8
1513230993364347,-2,37,-10,-24,-5,-2,-7,12
1513230993364347,-8,2,8,-1,-3,0,20,-1
1513230993378868,4,15,-21,3,-1,-3,-8,-13
1513230993378868,-8,-14,9,-14,-3,0,4,5
1513230993380870,10,-18,0,13,4,-1,-12,0
1513230993380870,-29,-31,-6,-11,-7,-7,7,-12
1513230993401382,15,53,26,11,3,0,-10,6
1513230993401382,-20,24,-22,-11,0,1,26,6
1513230993402874,2,-15,-6,15,1,-2,-44,3
1513230993402874,16,-5,19,-13,0,1,0,1
1513230993415392,4,3,-19,-5,-1,1,9,-3
1513230993415392,6,-10,9,3,-1,0,17,-6
1513230993424390,-11,-5,1,-7,-5,-6,3,4
1513230993424390,-3,-24,-9,8,2,-2,-7,2
1513230993438909,-3,-11,-2,-9,-4,-4,0,2
1513230993438909,-3,11,23,2,4,2,-7,-10
1513230993440400,-6,-5,-11,2,1,1,4,4
1513230993440400,-17,-23,-16,-2,-2,0,10,-14
1513230993461436,6,-4,-2,-12,-3,-2,0,3
1513230993461436,6,-7,-16,-1,-2,-6,-16,-8
1513230993462915,0,0,7,0,1,1,4,2
1513230993462915,13,37,-3,2,-1,-1,-1,3
1513230993474933,-8,-33,-21,-4,0,1,-3,-3
1513230993474933,-1,1,18,5,-3,-2,-10,-11
1513230993483935,8,21,-13,-6,-2,2,4,18
1513230993483935,-2,-6,27,12,8,5,12,-9
1513230993506446,-7,-52,-22,-15,-9,-4,5,-12
1513230993506446,2,-6,-10,1,-4,-6,-22,7
1513230993507947,11,-13,13,20,5,1,0,-2
1513230993507947,18,6,19,1,2,-2,-6,6
1513230993521459,16,23,-37,-6,-2,-3,5,-2
1513230993521459,-10,-15,-13,-9,-5,-2,-4,-3
1513230993522957,-14,-21,-11,-5,-1,-2,-5,0
1513230993522957,3,33,21,4,-2,-3,0,1
1513230993543991,-4,-10,4,16,6,4,0,6
1513230993543991,22,-10,-16,-14,-8,-7,-8,16
1513230993545476,-1,-38,0,2,-3,-2,0,-11
1513230993545476,-9,1,-23,-6,-3,-2,-1,-9
1513230993558986,4,-21,15,-6,0,-1,-3,7
1513230993558986,-21,39,23,13,6,2,6,-13
1513230993560484,22,22,20,-11,-4,0,16,18
1513230993560484,-27,-15,-27,-7,-4,-4,-47,-27
1513230993581524,-5,-15,4,-4,-4,-3,12,-6
1513230993581524,-23,20,2,18,6,1,-20,-6
1513230993583004,-6,-21,-20,-9,-3,-3,-8,-14
1513230993583004,-7,4,1,1,-4,-4,5,8
1513230993604030,-14,29,-3,-1,5,4,-2,-1
1513230993604030,9,-67,-5,-1,-1,-1,7,-13
1513230993605531,-5,30,29,5,0,-1,1,-4
1513230993605531,-2,9,-38,-5,-3,0,7,-12
1513230993619026,-8,-11,44,20,3,0,18,20
1513230993619026,15,32,-28,-32,-12,-6,-31,-27
1513230993620528,-4,-10,1,1,-3,-3,-15,-6
1513230993620528,-9,12,-19,-3,1,2,12,0
1513230993641543,5,15,5,15,3,5,-4,-17
1513230993641543,-7,-7,-3,-16,-1,-2,12,12
1513230993643043,-10,42,12,9,2,4,0,-10
1513230993643043,-2,-4,-4,-7,-7,-5,-7,17
1513230993664060,-6,-27,-9,-4,-5,-6,-8,-24
1513230993664060,-8,7,-10,6,-1,-1,6,-3
1513230993665558,22,-5,-17,-15,0,2,-1,3
1513230993665558,-8,-15,41,22,7,3,28,16
1513230993679083,8,-17,-33,-18,-9,-7,6,15
1513230993679083,12,40,45,15,0,-1,-22,-14
1513230993685072,-37,-13,-1,-1,-2,-3,-1,-6
1513230993685072,-1,-37,-41,-4,-2,-1,6,-1
1513230993701586,-4,1,6,-13,-3,-3,-28,-18
1513230993701586,13,23,26,12,9,6,15,-6
1513230993703085,7,-25,-53,-16,-6,-5,-1,10
1513230993703085,18,23,15,4,-2,0,-7,6
1513230993724100,-17,25,0,4,2,0,-6,2
1513230993724100,-8,-19,-6,-4,-2,-2,8,-6
1513230993725601,-8,11,13,13,4,2,-4,-18
1513230993725601,12,11,28,2,1,2,44,28
1513230993738610,-10,0,-18,-8,-3,-3,-35,-8
1513230993738610,-8,3,8,-8,-4,-1,2,6
1513230993745135,2,36,5,12,2,2,4,1
1513230993745135,-6,11,23,-4,-4,-7,-15,-8
1513230993761629,-5,-75,-21,-14,-4,-2,-3,-10
1513230993761629,5,30,8,-10,-4,-3,-1,9
1513230993763139,9,-19,-8,8,-1,-4,-23,11
1513230993763139,-33,-6,-13,-2,0,0,-19,-33
1513230993784652,8,-1,-2,9,1,0,8,8
1513230993784652,16,18,22,0,0,-1,10,11
1513230993786153,12,-52,-38,-10,-2,-2,-3,-4
1513230993786153,2,22,23,0,1,1,-15,-15
1513230993798652,-14,49,13,7,1,0,-1,5
1513230993798652,21,-41,-15,12,4,4,15,17
1513230993805158,-26,27,-7,-27,-9,-4,5,-17
1513230993805158,26,-35,0,12,-1,-3,-17,-7
1513230993821701,-16,46,3,-10,4,6,21,15
1513230993821701,17,-31,-10,-3,-4,-3,1,-7
1513230993823170,-16,-16,-29,-6,-5,-4,-1,-7
1513230993823170,8,6,5,-1,0,4,0,1
1513230993844205,-14,-1,5,-1,-2,-1,-18,-3
1513230993844205,-17,26,6,-10,-3,-1,15,9
1513230993845690,9,-23,18,17,5,1,-2,-1
1513230993845690,0,27,-9,-12,0,3,14,10
1513230993858550,-6,4,22,5,-2,-1,22,0
1513230993858550,1,-75,-20,13,2,-2,-33,-22
1513230993865053,0,29,16,-4,-1,2,6,5
1513230993865053,4,-6,-3,-14,-2,-3,0,-4
1513230993881573,8,6,21,3,-2,-1,0,4
1513230993881573,-12,3,-19,-3,-7,-2,17,4
1513230993883063,6,-7,5,-10,-2,-5,-4,4
1513230993883063,-13,12,13,4,-2,-3,-10,23
1513230993904087,17,-15,-12,0,5,2,-21,-22
1513230993904087,-12,4,4,11,3,0,-3,-8
1513230993905589,15,20,21,4,4,3,-4,5
1513230993905589,1,19,-12,0,-1,-1,6,7
1513230993918591,10,3,-8,3,0,2,26,16
1513230993918591,-1,-18,-26,-6,-2,-1,-38,-21
1513230993925093,4,5,13,-3,-1,-1,9,6
1513230993925093,-2,10,14,1,1,-1,-13,-3
1513230993941644,-42,-28,-34,2,-5,-4,7,-18
1513230993941644,4,14,5,-6,3,2,10,20
1513230993943116,-13,8,27,5,-2,-2,-3,-5
1513230993943116,-4,-73,-64,-3,1,3,2,-8
1513230993964133,3,12,4,5,0,1,3,13
1513230993964133,-13,42,9,-20,-4,-4,-7,-13
1513230993965622,12,-22,-13,8,0,0,3,-5
1513230993965622,4,-19,1,4,-3,-6,-5,-7
1513230993978643,-5,-5,-6,3,1,0,0,20
1513230993978643,-9,-13,-9,-10,-7,-3,0,-3
1513230993985136,8,4,17,4,-1,2,6,-12
1513230993985136,-4,10,-4,-6,-5,-7,-6,5
1513230994001657,15,11,10,5,1,1,-5,3
1513230994001657,3,22,20,9,4,2,8,5
1513230994003159,-32,-15,-12,-1,-1,-3,11,-12
1513230994003159,19,63,38,9,3,2,-20,-1
1513230994024177,19,-39,-32,-18,-9,-7,-2,2
1513230994024177,-19,3,9,7,0,-2,5,-1
1513230994025675,28,14,-8,2,0,3,3,14
1513230994025675,1,-10,9,-3,0,1,26,1
1513230994037682,0,26,5,-18,-2,-3,-15,-18
1513230994037682,-7,-49,-4,7,1,0,-3,18
1513230994045700,-4,-3,-13,-8,-4,-6,-15,-1
1513230994045700,-5,11,27,5,-2,-1,15,3
1513230994061192,9,-6,-15,-3,-4,-3,9,-12
1513230994061192,-1,-14,-1,-12,-4,-2,-34,-4
1513230994062189,-13,-25,-26,8,2,-1,5,-29
1513230994062189,-5,-15,-20,-40,-10,-3,-5,-2
1513230994083216,-11,12,20,13,3,-1,2,4
1513230994083216,11,3,-3,7,1,-2,-4,4
1513230994084225,-13,-36,-5,-5,-4,-1,-2,12
1513230994084225,11,15,-34,-5,-1,0,-7,-4
1513230994097731,-2,3,20,10,2,1,-7,-10
1513230994097731,-6,1,-21,-12,-5,-3,12,3
1513230994106282,-13,17,70,10,2,-1,-11,-3
1513230994106282,-6,-22,-54,-14,-1,1,13,12
1513230994120800,23,5,18,8,3,-1,-23,4
1513230994120800,-8,19,1,-1,-6,-9,-1,-1
1513230994121795,-3,2,9,-9,-1,3,43,30
1513230994121795,4,12,52,11,2,-4,-54,-35
1513230994152314,23,10,-15,-3,0,0,5,3
1513230994152314,1,-6,-15,11,2,2,-1,-2
1513230994152815,-13,10,-18,-17,-2,0,-2,-6
1513230994152815,-2,-7,0,6,0,-3,13,15
1513230994166341,-2,-14,-1,9,0,-2,-1,-15
1513230994166341,-15,-23,22,-13,-4,-1,5,-7
1513230994167335,10,-5,-62,-7,-3,0,-5,9
1513230994167335,0,-11,-5,5,2,2,9,1
1513230994180844,-16,1,8,5,-2,-1,-4,-2
1513230994180844,3,4,-2,-18,-3,0,15,19
1513230994181834,8,5,27,7,-1,-4,-14,-9
1513230994181834,3,-9,-14,-7,-1,0,-1,-5
1513230994203359,19,26,1,-9,-4,-4,5,6
1513230994203359,5,19,2,10,2,0,5,-2
1513230994204350,-11,-65,1,-9,-2,-1,-11,-8
1513230994204350,-11,-1,-7,-3,-5,-1,2,-7
1513230994217861,4,21,7,1,-1,0,-7,11
1513230994217861,12,-13,0,-13,-5,-2,4,2
1513230994225866,2,0,2,5,3,1,-5,7
1513230994225866,-23,-5,6,11,4,-1,12,15
1513230994240880,-20,-45,-29,-6,-3,-2,-3,-21
1513230994240880,0,13,11,11,1,-2,-2,6
1513230994241377,-29,-6,-14,-7,-4,-8,-8,-19
1513230994241377,1,53,8,-4,-2,0,1,14
1513230994263396,-26,-9,-7,-10,-6,-2,-3,-17
1513230994263396,7,-2,2,13,4,1,6,9
1513230994263893,-2,37,-4,-14,-9,-5,-15,-18
1513230994263893,-1,-47,-4,14,2,4,12,-3
1513230994277402,-12,-5,-13,-11,-1,-1,-14,2
1513230994277402,13,-19,25,10,4,1,3,-4
1513230994285920,-15,-11,-46,-2,-4,-3,31,11
1513230994285920,19,-17,7,-3,1,-4,-49,-17
1513230994300919,11,8,-7,-4,-2,-3,-1,-1
1513230994300919,-21,-29,-8,-3,1,2,1,5
1513230994301421,21,46,7,-8,-8,-6,-8,0
1513230994301421,4,7,17,10,2,0,6,-5
1513230994323436,1,49,42,10,3,2,10,12
1513230994323436,-9,-32,-78,-18,-2,4,-5,13
1513230994323939,17,13,10,6,2,1,8,-15
1513230994323939,14,-6,5,-4,-2,-2,-6,-14
1513230994337457,1,41,35,16,3,3,11,17
1513230994337457,-5,-4,-16,-12,-2,-4,4,-14
1513230994345964,-9,5,11,-2,0,2,9,14
1513230994345964,-2,-40,-25,-11,-6,-4,7,2
1513230994361461,-22,-29,17,-5,-5,-7,-13,-15
1513230994361461,12,44,0,7,2,3,0,11
1513230994361962,-1,-34,9,-2,-1,-2,6,-10
1513230994361962,1,40,3,5,1,0,-1,-2
1513230994391483,19,-26,-27,-4,0,-1,-2,-4
1513230994391483,-15,29,19,-6,-5,-4,1,-19
1513230994392487,4,20,17,3,1,0,-16,5
1513230994392487,1,-44,-37,2,-2,0,24,8
1513230994397488,-3,3,32,8,3,-1,-33,-24
1513230994397488,11,-9,-18,-5,0,0,-2,-6
1513230994405993,5,-11,-8,9,3,0,-2,6
1513230994405993,-10,22,-4,-5,-1,2,10,3
1513230994421028,7,-20,-1,-4,2,3,15,7
1513230994421028,-2,-8,11,2,-5,-8,-10,10
1513230994421505,-5,-26,-27,-3,-2,-5,-26,-9
1513230994421505,-2,7,14,3,1,0,9,-6
1513230994443523,3,15,-11,-9,-6,-2,2,5
1513230994443523,13,-35,-28,5,-5,-6,-15,-20
1513230994444021,7,43,17,-9,-3,-1,19,25
1513230994444021,-33,-32,-1,-12,-3,-4,-38,-35
1513230994458031,-1,-17,-31,-8,-6,0,20,16
1513230994458031,-12,39,38,10,6,1,-24,-5
1513230994466048,2,18,3,4,1,-1,-8,-15
1513230994466048,-3,-4,17,5,1,0,-1,-8
1513230994481549,-14,-21,-34,-18,-6,-4,3,3
1513230994481549,10,12,29,23,4,6,16,3
1513230994482048,-22,3,3,-4,0,-2,-3,-11
1513230994482048,-15,-14,-21,-9,-1,-2,-6,3
1513230994511582,-3,3,7,-2,1,1,9,16
1513230994511582,8,28,-11,-5,-2,0,-1,-16
1513230994512068,16,-51,-1,3,0,1,16,22
1513230994512068,15,50,13,-1,-3,-4,-28,-19
1513230994526588,3,2,-19,-20,-7,-5,19,3
1513230994526588,3,-20,-8,2,2,4,5,5
1513230994527579,-6,-5,17,1,2,0,-10,3
1513230994527579,0,18,-16,11,0,2,4,-1
1513230994540589,5,10,7,-13,-7,-6,5,-1
1513230994540589,-21,-9,20,3,-2,-4,-15,-4
1513230994541590,-2,-12,-16,11,1,-1,-3,-2
1513230994541590,9,-1,-2,-18,-8,-5,8,6
1513230994563605,9,-13,-7,9,2,-1,-15,-16
1513230994563605,-23,2,-27,-9,1,1,13,16
1513230994564108,-10,-7,15,6,-1,0,-9,-28
1513230994564108,-11,-15,26,27,9,4,24,23
1513230994586634,6,2,-30,-21,-1,-3,-44,-21
1513230994586634,18,35,18,-9,-6,-7,-8,-5
1513230994587622,-30,-5,-18,5,6,7,6,-8
1513230994587622,-6,-26,-17,-9,-5,-3,9,14
1513230994600642,6,-20,15,9,0,-2,8,-12
1513230994600642,14,10,11,5,-1,-2,-11,9
1513230994601631,2,-16,-10,-21,-6,-3,-4,10
1513230994601631,12,39,22,1,-3,-1,5,4
1513230994623147,-7,-30,-20,9,2,-1,-4,-3
1513230994623147,0,5,7,-16,-6,-2,3,-3
1513230994624158,23,-2,13,6,-1,-2,-2,8
1513230994624158,5,21,-12,-3,-3,0,-1,-4
1513230994646663,5,-28,4,1,-4,-2,8,9
1513230994646663,-35,-37,-7,4,3,3,-2,-9
1513230994647165,31,60,17,-17,-2,-1,-5,2
1513230994647165,-18,-36,-9,5,-4,-4,-2,10
1513230994669180,-3,14,-8,5,6,6,13,-2
1513230994669180,0,-10,-1,9,1,-1,-4,-14
1513230994669680,-4,-5,9,-9,-5,-6,-12,-9
1513230994669680,15,14,-4,-12,-7,-6,1,7
1513230994683723,-18,12,-3,2,1,1,4,3
1513230994683723,-7,-20,4,15,2,2,12,8
1513230994684709,-8,-7,-36,-18,-3,-2,-22,-12
1513230994684709,17,-5,19,1,-1,-1,-1,-9
1513230994706705,-5,4,-11,4,-1,-4,-14,6
1513230994706705,-5,0,0,-7,-2,-1,6,-9
1513230994707206,-12,-28,-36,6,-2,-2,6,3
1513230994707206,-11,-23,1,-5,-1,0,18,13
1513230994720735,-8,38,38,10,-2,-3,-43,-36
1513230994720735,28,-2,5,-1,-2,-2,5,-10
1513230994721722,8,15,-22,-25,-6,-2,4,11
1513230994721722,-13,2,-9,-2,3,0,-11,-8
1513230994743250,2,29,3,1,0,-1,7,8
1513230994743250,-39,-34,-2,0,-2,0,7,-3
1513230994744237,-1,25,8,10,4,2,-5,-14
1513230994744237,16,8,20,3,1,1,2,18
1513230994774254,0,-18,-22,-5,-3,-2,-2,-4
1513230994774254,15,17,-1,-3,-3,-5,0,14
1513230994774757,-18,-39,-12,-7,-5,-4,-6,-3
1513230994774757,-5,27,26,6,3,2,13,-21
1513230994780770,-28,-31,-15,-5,1,4,10,22
1513230994780770,12,-5,-20,-3,-3,-5,2,-8
1513230994781759,-20,-33,-2,8,0,-2,-29,-17
1513230994781759,1,-22,-34,1,0,-2,-9,1
1513230994803284,-1,8,11,-13,-2,0,19,11
1513230994803284,5,10,0,0,1,-1,-29,-15
1513230994804275,22,59,32,20,4,3,17,13
1513230994804275,-14,-44,-40,-26,-7,-3,-15,-15
1513230994826300,9,-5,17,9,3,0,-6,0
1513230994826300,4,18,-6,-3,0,5,12,3
1513230994827301,-9,5,21,8,0,0,5,-2
1513230994827301,-4,27,9,2,-1,0,-5,5
1513230994841303,-20,-80,-35,-7,-4,-3,4,-3
1513230994841303,7,52,15,-1,1,1,6,5
1513230994842302,-1,-18,-5,3,-4,-1,1,-3
1513230994842302,9,22,8,-14,1,2,5,-7
1513230994871823,-6,-16,-2,4,-1,-3,-5,0
1513230994871823,12,18,10,-1,-2,-3,-6,4
1513230994872323,-5,-36,-14,-8,-3,-3,-4,-5
1513230994872323,8,-11,11,7,2,0,2,6
1513230994885833,-1,26,-6,-3,-3,-1,-5,-5
1513230994885833,2,-12,-3,-4,-3,2,21,2
1513230994893348,-17,4,-7,5,1,0,-36,-6
1513230994893348,5,-6,-11,-5,-4,-4,1,1
1513230994900853,5,-1,19,9,4,3,-6,19
1513230994900853,4,-8,-5,-6,-3,-1,-2,-17
1513230994901844,11,-3,-3,-2,-1,-1,11,-7
1513230994901844,1,-4,1,2,0,2,8,-5
1513230994923359,3,39,10,-1,0,-1,-33,0
1513230994923359,-15,-27,0,4,4,0,-6,8
1513230994924360,11,14,5,-16,0,2,10,13
1513230994924360,-14,-19,-37,-5,-2,-3,-14,-15
1513230994946397,-8,18,12,1,-1,-1,29,6
1513230994946397,-9,-30,-10,0,-2,-3,-7,4
1513230994947376,23,21,18,10,1,-1,4,3
1513230994947376,-14,-5,-30,-13,-8,-5,-2,0
1513230994960888,17,20,13,3,2,3,3,-2
1513230994960888,-7,62,-2,-14,-6,-4,-5,6
1513230994961386,-16,-57,-19,2,0,4,7,-12
1513230994961386,8,44,44,12,3,-2,-4,2
1513230994983404,-7,-22,-13,-11,-9,-8,-5,-12
1513230994983404,5,0,-5,8,5,5,-4,7
1513230994983901,-5,37,21,-8,-2,-4,21,-3
1513230994983901,-4,-39,-4,3,2,3,-1,4
1513230995006433,-13,0,-18,-1,0,-2,-11,-18
1513230995006433,1,-18,-2,0,-1,-3,0,-4
1513230995006919,-2,0,-29,-14,-9,-3,11,11
1513230995006919,0,-38,-8,-5,0,0,-9,-11
1513230995028935,-1,44,25,11,2,2,17,21
1513230995028935,9,6,5,-3,-2,-4,-4,-11
1513230995029937,-19,-2,-11,14,0,-1,-16,7
1513230995029937,-9,-31,-12,-10,-1,-1,5,2
1513230995043457,6,-13,11,-1,-2,0,-13,0
1513230995043457,-7,15,-7,-4,-2,-1,18,0
1513230995043944,20,-4,20,8,5,0,-19,-2
1513230995043944,9,29,-11,8,-4,-3,9,4
1513230995066517,2,-29,-9,-11,-2,-2,13,-9
1513230995066517,-18,-30,-7,-13,-2,-1,-7,7
1513230995067462,10,17,35,5,0,-2,7,-4
1513230995067462,-2,23,-5,7,-1,0,-4,2
1513230995080480,33,17,3,1,1,-1,-6,-11
1513230995080480,-8,-52,-27,-11,-5,-2,-9,-11
1513230995088526,6,-21,-14,9,1,-2,-1,10
1513230995088526,-8,18,18,-15,-4,0,0,-4
1513230995103537,-7,-10,-1,3,1,0,-4,-6
1513230995103537,-2,-22,-21,0,2,-1,5,7
1513230995104037,12,68,28,6,0,1,49,14
1513230995104037,-4,-44,-15,-1,-2,-5,-35,-18
1513230995126554,21,2,-8,-12,-4,0,-6,-7
1513230995126554,-29,-12,-14,-1,-4,-5,-18,-17
1513230995127555,13,5,13,-1,3,5,31,27
1513230995127555,3,13,37,17,3,0,-31,-17
1513230995140076,-5,8,-19,-1,-2,-4,-7,-5
1513230995140076,34,32,28,6,-1,-1,5,20
1513230995148587,-22,-63,-36,-14,-2,-2,-10,-13
1513230995148587,14,28,-13,-10,-2,-1,12,10
1513230995171598,-33,-6,-4,3,-3,-4,-3,-5
1513230995171598,-6,-4,27,0,-1,0,1,-4
1513230995172586,19,18,-35,6,1,-3,-19,0
1513230995172586,-25,2,-2,-4,-1,-1,12,-2
1513230995186609,-8,-44,-13,-5,-2,-3,-2,14
1513230995186609,12,64,24,8,0,0,22,21
1513230995187605,-17,-35,-10,-2,0,-1,-32,-30
1513230995187605,-13,0,-36,-14,-4,-5,17,10
1513230995200108,20,4,13,-3,-1,0,2,1
1513230995200108,16,1,7,3,-1,-2,-9,-16
1513230995208612,-20,-52,-37,-12,-10,-6,-8,-2
1513230995208612,7,-24,8,16,2,1,6,8
1513230995223622,-24,32,-1,-15,-5,-1,2,-5
1513230995223622,10,8,24,7,3,2,0,6
1513230995224123,-4,15,-27,-9,-8,-5,7,-7
1513230995224123,13,2,13,3,-1,-4,-12,-5
1513230995246660,9,11,-4,8,4,4,9,12
1513230995246660,-13,-15,-14,-8,-4,-4,-10,-22
1513230995247140,13,67,30,4,-2,3,6,-4
1513230995247140,-24,-26,-21,-5,3,2,0,1
1513230995260151,14,-1,14,6,-1,1,9,9
1513230995260151,-21,-23,-27,-5,-3,-1,-22,-14
1513230995268654,8,18,36,6,2,-1,-8,0
1513230995268654,0,6,24,3,-6,-4,18,-3
1513230995291670,-17,-29,-30,-8,0,-1,-3,-6
1513230995291670,-7,-2,-3,-13,-3,-4,12,10
1513230995292172,-11,-59,-15,-3,-1,-3,-33,-3
1513230995292172,9,16,32,7,0,-1,-2,-1
1513230995306695,-7,-9,-14,4,0,-2,1,-11
1513230995306695,4,16,9,-2,-4,-1,2,16
1513230995307181,4,-6,-1,-4,2,1,3,7
1513230995307181,3,-12,0,-1,-2,-4,-5,-1
1513230995320190,9,24,22,2,0,3,9,-7
1513230995320190,-15,-8,9,15,0,-1,-30,-1
1513230995328209,0,8,9,-6,-1,0,13,-5
1513230995328209,3,40,-19,-14,-4,-1,3,12
1513230995343235,-6,-7,-5,-3,-1,-1,-14,-1
1513230995343235,-1,23,10,0,0,2,13,-6
1513230995344228,-13,-40,3,7,0,-1,-10,-8
1513230995344228,5,9,-6,-2,0,-1,2,6
1513230995366734,-14,-38,-43,-6,-3,-5,-1,-9
1513230995366734,8,12,0,9,0,-3,-2,-7
1513230995367225,12,9,28,-11,2,4,29,24
1513230995367225,-21,5,-48,-12,-5,-5,-18,-15
1513230995380245,0,-5,15,3,-1,-3,-1,0
1513230995380245,26,-9,-23,-8,-5,-4,2,4
1513230995388251,-7,3,22,-5,-6,-8,-2,-3
1513230995388251,18,1,14,3,2,0,-3,9
1513230995403258,12,3,27,11,1,0,12,-1
1513230995403258,-5,3,-7,-1,1,0,-19,-10
1513230995404259,8,31,1,5,-1,1,-1,10
1513230995404259,12,-26,-15,5,-2,0,14,2
1513230995426765,-17,6,13,-11,-2,-3,-32,-18
1513230995426765,8,-22,4,9,1,-2,-1,2
1513230995427266,-7,13,-18,-30,-5,-3,-4,-2
1513230995427266,15,13,19,7,3,2,-3,1
1513230995449284,-1,7,17,4,-1,0,13,3
1513230995449284,-7,-17,-33,-12,-2,1,8,2
1513230995451283,-1,16,9,17,3,3,-13,-7
1513230995451283,-5,3,3,-7,1,1,6,11
1513230995463294,-19,-26,-16,0,-3,-6,-1,-5
1513230995463294,-7,24,22,2,-1,-2,6,-15
1513230995464294,-2,-13,-11,8,0,-2,-1,-1
1513230995464294,-8,7,35,5,2,0,-5,-11
1513230995486809,37,-10,-25,-3,-3,-2,20,39
1513230995486809,14,10,-3,-4,1,-1,-29,-14
1513230995487327,-11,-10,-21,-3,-4,-2,1,-7
1513230995487327,-25,-8,11,0,0,-2,-14,-29
1513230995508827,-1,35,11,15,-1,0,1,16
1513230995508827,-1,-38,-9,-12,-2,1,18,-2
1513230995509825,-4,-12,-13,-15,-5,0,15,10
1513230995509825,25,33,6,4,-3,-4,-31,-5
1513230995523347,-6,-12,31,-6,-1,2,-12,-15
1513230995523347,-10,13,-26,-1,-2,0,10,5
1513230995524348,-5,4,-8,-2,-2,-2,6,9
1513230995524348,-1,2,-42,-13,-4,-5,-23,-28
1513230995553856,5,-8,10,13,6,3,16,-10
1513230995553856,-6,-3,8,-4,-4,-4,-15,-3
1513230995554857,-1,17,14,3,3,4,8,5
1513230995554857,-3,-77,2,11,-1,-1,13,11
1513230995568868,-21,29,-8,-29,-6,-3,-5,2
1513230995568868,-5,-14,0,-3,-2,-3,-4,-4
1513230995569867,3,13,-3,9,5,1,-6,-11
1513230995569867,4,8,13,2,-5,-4,5,-6
1513230995583429,-23,-9,-41,-4,-2,-1,-20,-13
1513230995583429,0,-14,-9,-3,-2,-1,16,17
1513230995583878,0,4,19,13,2,-1,-13,-6
1513230995583878,-9,8,-16,-6,-2,0,3,0
1513230995606394,-4,6,0,1,-1,-1,5,5
1513230995606394,5,-13,5,0,1,1,-16,3
1513230995607403,-8,-3,3,3,-3,-5,1,-26
1513230995607403,-16,-32,22,7,9,8,8,9
1513230995628920,33,37,14,-7,-4,-4,30,23
1513230995628920,-19,2,-24,3,0,-2,-50,-25
1513230995629912,37,13,-2,-1,-4,-3,19,15
1513230995629912,-9,-44,1,-1,1,1,-17,-2
1513230995643429,21,-40,-32,-7,-1,1,1,-3
1513230995643429,-12,36,27,-8,-5,-2,12,-3
1513230995643921,-2,-18,-10,-4,0,-2,-7,-1
1513230995643921,-7,15,-9,-2,-5,-3,7,8
1513230995666454,5,10,0,2,-2,-2,-13,0
1513230995666454,6,-15,-5,3,-1,-1,12,0
1513230995667455,-31,-29,6,10,3,1,-11,-2
1513230995667455,14,15,-16,-25,-6,-3,10,1
1513230995688962,1,-7,8,16,2,1,-20,-12
1513230995688962,-11,19,-18,-11,-3,-2,19,23
1513230995689962,9,-21,19,14,1,1,8,-5
1513230995689962,-4,17,19,-4,0,-2,-8,-9
1513230995703462,-12,-26,-9,-1,-2,-1,-9,-8
1513230995703462,1,12,24,8,3,3,9,4
1513230995703961,7,15,-6,-11,-5,-2,5,3
1513230995703961,-7,-13,17,22,5,0,-2,9
1513230995726987,0,40,-43,-12,-4,-2,-10,-8
1513230995726987,7,-4,24,-15,-1,-1,12,-4
1513230995727988,-13,19,-7,0,-1,-2,-1,-3
1513230995727988,0,-6,-12,-8,-1,0,2,0
1513230995749003,-6,21,37,14,1,-3,-7,-6
1513230995749003,4,6,19,4,0,1,12,3
1513230995750504,-15,-10,-43,-14,-4,-4,-7,-6
1513230995750504,0,-25,-26,-5,0,2,-9,-5
1513230995763504,6,-23,10,-4,-1,0,-2,5
1513230995763504,-11,-5,8,6,-2,-2,-1,-20
1513230995764004,2,32,26,2,2,1,5,10
1513230995764004,3,18,6,-2,-4,-5,-7,-16
1513230995786521,-6,-2,-16,-19,-2,-2,4,8
1513230995786521,-10,-34,1,3,3,2,2,4
1513230995787530,7,-10,2,-14,-4,-4,-21,-2
1513230995787530,-26,-10,-27,8,0,-1,39,10
1513230995809037,-4,8,44,10,2,1,-10,2
1513230995809037,24,-45,-65,-11,-6,-6,-8,-2
1513230995809536,-15,9,6,-6,-2,2,5,5
1513230995809536,45,30,15,7,0,-6,-25,-16
1513230995823113,-40,-19,-20,-10,-1,-2,5,-8
1513230995823113,-11,-12,13,7,2,2,3,-2
1513230995824114,1,8,4,9,0,0,-5,5
1513230995824114,4,9,-40,-30,-9,-2,2,10
1513230995846624,7,-5,8,6,-1,1,4,-16
1513230995846624,-6,6,0,4,-1,-1,-15,-10
1513230995847121,0,7,-15,-1,1,-2,-2,-4
1513230995847121,11,26,26,16,0,-2,1,17
1513230995869137,24,16,10,8,1,1,10,4
1513230995869137,-8,1,-18,-10,-1,-1,-15,2
1513230995869637,16,12,2,-5,-2,-3,-12,12
1513230995869637,-5,-1,41,0,1,-1,14,1
1513230995883229,4,35,-19,-9,-4,-5,-27,-7
1513230995883229,11,-4,-11,-3,-1,-2,0,0
1513230995884191,-16,-21,28,2,1,3,0,-5
1513230995884191,2,-36,-15,5,0,0,7,24
1513230995906706,-13,26,6,0,0,1,-12,-24
1513230995906706,6,-13,1,-4,-2,-1,6,6
1513230995907196,7,-12,-24,-14,-4,-2,-2,0
1513230995907196,-1,40,0,-1,1,3,3,-2
1513230995929211,-9,-46,14,13,-1,-3,9,-3
1513230995929211,-15,9,-15,-10,-1,-1,3,6
1513230995929712,13,15,18,1,-2,-2,-17,-2
1513230995929712,-1,16,10,0,2,1,-7,-8
1513230995951727,-21,-43,-37,-2,-1,-4,2,16
1513230995951727,5,23,19,-6,-4,-4,17,0
1513230995953239,-22,-22,-37,16,4,-1,-49,-43
1513230995953239,-8,-22,-9,-16,-5,-2,6,-2
1513230995966738,-9,2,24,12,3,0,-23,-19
1513230995966738,9,-5,-2,-6,-1,-3,-9,-15
1513230995967238,3,-10,0,4,-2,1,22,20
1513230995967238,10,9,12,-1,-1,-4,-11,-8
1513230995989252,-8,-1,-13,2,3,2,9,6
1513230995989252,-6,-6,15,-2,-3,0,1,2
1513230995989753,3,5,-15,-10,-4,-2,10,1
1513230995989753,-20,21,18,9,3,2,-9,-14
1513230996003763,18,6,-7,-13,-8,-5,8,7
1513230996003763,11,-8,4,5,0,1,9,6
1513230996004764,-11,22,-2,-5,-2,-3,-25,-14
1513230996004764,-15,-5,13,1,0,-2,2,-1
1513230996026279,2,-10,3,4,2,3,13,6
1513230996026279,-4,-5,-26,6,2,2,-10,-14
1513230996027280,-14,-35,12,16,4,2,12,-9
1513230996027280,12,19,-24,-13,-2,-1,0,2
1513230996048796,16,29,50,0,-4,-2,6,17
1513230996048796,-5,-6,-25,-7,-3,-4,-7,-13
1513230996050798,-4,-3,-17,0,0,4,17,17
1513230996050798,-12,-24,-1,4,-1,-3,17,-21
1513230996062827,11,9,-13,9,3,0,-16,-10
1513230996062827,-12,19,38,5,0,1,7,7
1513230996070814,6,-63,-36,-5,-3,-4,-11,-4
1513230996070814,-14,-26,-8,-7,-4,-1,2,-6
1513230996093840,-6,-4,30,16,3,3,47,32
1513230996093840,-22,-4,-42,-18,-4,-5,-40,-37
1513230996094829,0,16,2,-10,-3,-6,6,-1
1513230996094829,18,46,9,22,6,5,0,15
1513230996108838,1,-20,7,-14,-4,1,-5,-13
1513230996108838,-10,-30,-42,6,-1,-2,7,9
1513230996109838,2,6,24,-21,-7,-6,3,6
1513230996109838,1,-3,-37,-10,-2,-3,-10,-5
1513230996122849,4,4,-17,-9,-2,-5,-13,-11
1513230996122849,18,22,48,22,2,0,6,6
1513230996130853,-3,-21,-26,-12,-2,1,-3,0
1513230996130853,-3,-36,-3,-2,-2,-2,-4,-3
1513230996146364,-9,12,-11,-12,-4,-3,-6,-3
1513230996146364,-5,-5,11,13,-2,-1,-1,5
1513230996147365,35,27,-3,-18,-3,0,2,1
1513230996147365,7,7,11,-2,-2,1,8,10
1513230996168882,-2,-11,14,8,3,1,-9,-4
1513230996168882,16,24,5,1,2,3,14,6
1513230996170391,-9,-43,-1,14,2,3,11,1
1513230996170391,-25,-7,-37,-9,-3,-3,-29,-14
1513230996182890,-10,-12,-15,-6,-4,-5,-8,-3
1513230996182890,22,20,19,-6,1,1,30,41
1513230996191395,-3,-9,-6,3,-3,-4,-49,-44
1513230996191395,-3,0,6,-15,-1,3,17,12
1513230996204905,-7,-15,-12,5,0,-1,3,-12
1513230996204905,-7,-12,22,-5,1,-2,-16,-5
1513230996213921,13,8,2,-4,-4,-3,-1,17
1513230996213921,-3,-31,-50,2,-4,-5,-6,-8
1513230996228922,10,4,-1,0,-3,-3,-3,2
1513230996228922,-7,22,9,-12,-5,1,12,-6
1513230996230423,-3,24,32,10,1,-1,-11,-3
1513230996230423,5,-12,13,5,0,-5,-31,-10
1513230996242490,1,8,-16,-21,-3,0,1,-4
1513230996242490,2,-15,-13,-2,-1,-3,0,4
1513230996251997,-14,12,0,-8,-5,-2,15,5
1513230996251997,-16,14,11,16,3,4,19,4
1513230996266508,-1,-15,22,10,-3,-4,-5,3
1513230996266508,2,17,15,6,5,3,-10,-2
1513230996268007,1,-12,-32,-4,-2,-2,0,-3
1513230996268007,3,-12,4,-2,-3,-1,9,10
1513230996289041,-7,-1,-18,-16,-3,-4,-4,-5
1513230996289041,6,16,6,3,-3,-1,0,1
1513230996290526,-13,5,0,-1,0,-2,9,1
1513230996290526,11,1,12,4,-1,-1,-2,-7
1513230996302544,-3,-3,1,10,2,1,5,7
1513230996302544,-7,-8,-13,-13,-8,-6,-14,-2
1513230996311537,-2,3,10,7,5,0,12,-3
1513230996311537,5,33,23,-1,-4,-1,-2,1
1513230996326548,-3,-37,-20,-1,2,3,-1,-1
1513230996326548,-6,8,-4,-3,-4,-2,-6,-7
1513230996328049,-15,4,10,8,0,0,-1,2
1513230996328049,-1,2,6,-2,-4,-4,3,2
1513230996349564,7,13,19,-3,-3,-3,4,3
1513230996349564,7,-29,-37,3,1,0,0,2
1513230996352068,-4,-1,-1,-2,0,-1,-3,-3
1513230996352068,9,5,12,6,3,2,2,0
1513230996379105,-10,-5,-13,-3,-2,0,-3,-1
1513230996379105,4,-6,-1,0,0,-1,-3,-2
1513230996380589,9,13,6,-19,-3,0,1,1
1513230996380589,-5,-2,-4,2,0,-3,-5,-2
1513230996386610,8,-5,3,-2,0,1,0,-3
1513230996386610,-12,10,-14,-1,-2,-2,-1,-6
1513230996388111,5,-14,-8,7,-1,-2,-1,3
1513230996388111,-4,0,-11,-12,-3,-4,-4,-3
1513230996408121,1,22,4,-8,-2,-1,-1,4
1513230996408121,-7,14,9,4,0,-1,-3,-6
1513230996416612,-10,-38,4,5,0,-1,-1,-5
1513230996416612,2,-6,-8,-11,-3,-1,-1,4
1513230996431637,-5,4,-1,4,-1,0,-5,-4
1513230996431637,-8,-6,-9,-8,-2,-2,-3,-3
1513230996433138,6,19,-8,1,0,-1,1,1
1513230996433138,-5,-9,8,0,-4,-1,-2,-4
1513230996455138,1,2,-4,0,1,1,-2,-3
1513230996455138,0,-7,1,-1,-2,-3,0,0
1513230996457140,0,0,8,0,1,2,4,0
1513230996457140,0,-6,3,5,-1,-3,-2,-2
1513230996469150,6,5,-24,-7,-1,-4,0,-1
1513230996469150,-5,-11,2,2,0,0,0,1
1513230996470649,-2,3,-3,-3,-3,-2,-3,-2
1513230996470649,6,9,8,-3,0,0,1,3
1513230996491672,-3,-1,-10,3,-3,-2,-3,-1
1513230996491672,-4,-18,-6,-1,0,1,-2,-2
1513230996493173,1,6,4,-2,-2,0,1,-1
1513230996493173,-1,6,-5,3,0,-2,-1,-2
1513230996506682,-5,-4,5,-7,-1,-1,-1,2
1513230996506682,1,-3,3,2,0,-1,-1,-2
1513230996508202,0,2,2,-3,-2,-2,0,1
1513230996508202,-3,-3,-3,-2,0,-1,-1,-2
1513230996529198,-1,-1,-11,0,0,-2,1,2
1513230996529198,1,-4,33,6,-2,-1,0,0
1513230996530703,-3,-2,-32,-26,-6,-3,-3,-2
1513230996530703,2,-8,-6,3,0,1,-2,-1
1513230996559220,2,4,-16,11,1,1,-1,0
1513230996559220,1,-2,4,-6,-7,-2,-1,-3
1513230996560721,8,11,13,-7,2,-1,-1,5
1513230996560721,-7,4,9,-2,0,1,0,0
1513230996565740,-7,-32,-43,-8,-3,-3,-4,-4
1513230996565740,1,-2,-1,9,3,0,-1,1
1513230996572729,-3,4,10,-1,-5,-1,1,0
1513230996572729,2,0,-15,-3,-2,-2,-1,-1
1513230996589241,-1,10,32,10,3,0,0,-2
1513230996589241,-1,-11,-22,-7,-1,-3,-2,-1
1513230996590742,-3,-6,5,6,1,-1,-1,-2
1513230996590742,1,-2,-6,-3,0,-1,0,-1
1513230996611757,-3,4,8,-5,-3,-1,0,-2
1513230996611757,-2,-2,-6,-5,1,-1,-2,1
1513230996613261,-3,1,-11,6,1,1,-1,-2
1513230996613261,-2,-6,-10,-7,1,1,0,0
1513230996625767,3,5,24,-19,-7,-2,-3,-1
1513230996625767,-3,-2,-43,8,-4,-2,0,-4
1513230996632775,-3,-2,26,18,9,3,0,-1
1513230996632775,-9,-5,13,-7,-4,-2,-3,-5
1513230996648783,7,0,-1,-14,-2,-3,-2,4
1513230996648783,-1,2,7,-7,-3,-1,0,0
1513230996651785,-3,3,-2,5,-1,-2,0,-1
1513230996651785,-1,-6,-10,2,2,0,-4,-1
1513230996671321,-6,6,-5,6,-3,-2,1,-2
1513230996671321,1,4,5,-11,1,1,-1,1
1513230996673310,-5,-11,-17,-1,-3,-4,-1,-1
1513230996673310,-1,7,6,-3,-2,-1,-1,-3
1513230996685809,-2,-2,-4,5,0,0,0,-2
1513230996685809,-1,-2,-3,2,-1,0,-1,1
1513230996692814,-2,4,32,-2,-2,-2,-1,0
1513230996692814,-1,-7,-56,-6,-1,0,-1,3
1513230996708825,-7,-2,-12,3,0,0,-2,-4
1513230996708825,-2,2,17,-4,1,0,-2,-1
1513230996710826,8,3,15,13,-2,-3,-3,2
1513230996710826,-9,-6,51,5,-2,-3,-2,-4
1513230996731841,0,-1,-4,4,1,-1,1,0
1513230996731841,-3,-4,1,-2,1,2,0,-2
1513230996733342,-1,1,-30,-11,-4,-1,0,1
1513230996733342,4,-2,-3,3,0,1,-2,0
1513230996745874,-3,0,0,-1,-3,0,-2,-1
1513230996745874,-6,-4,-5,-3,-1,-1,-1,0
1513230996752857,-3,-2,1,2,0,-1,-2,-3
1513230996752857,2,3,0,-2,-2,-1,0,2
1513230996768871,1,0,11,-6,-1,-3,-3,0
1513230996768871,2,-1,-13,2,-1,-2,1,-1
1513230996770369,-2,-1,-9,-1,-1,0,0,-1
1513230996770369,0,-3,0,-1,-2,-2,-1,0
1513230996791409,0,1,-3,2,1,3,0,-1
1513230996791409,-2,-2,5,-1,-4,-4,-3,-3
1513230996792885,-3,-2,-5,-3,-1,1,-2,-2
1513230996792885,0,-2,-1,-1,-2,0,1,-1
1513230996805895,0,0,-1,-3,-1,0,-1,0
1513230996805895,-2,2,3,0,0,1,-1,-1
1513230996819905,-1,-2,-1,-1,-2,-3,-3,0
1513230996819905,0,-1,-11,-1,0,-2,-1,-1
1513230996836425,-1,-1,-3,-1,-3,-3,0,-1
1513230996836425,-1,-1,9,1,-1,-3,-1,-2
1513230996837926,-3,1,-3,0,-1,1,1,-3
1513230996837926,-3,-4,-3,-1,-1,-2,0,1
1513230996851928,-3,0,-1,-2,1,-1,-2,-1
1513230996851928,-4,-3,1,1,2,-1,-1,-2
1513230996853428,3,3,-3,-3,-1,-2,-1,-1
1513230996853428,0,0,-3,-1,-2,-2,-1,-2
1513230996864938,0,0,1,-3,-3,-2,0,-2
1513230996864938,1,-3,-6,-2,-2,-2,0,0
1513230996873944,-3,-3,-5,-1,0,0,-1,-1
1513230996873944,-2,-3,-2,1,1,1,-1,-2
1513230996889454,-1,0,0,-1,0,-1,-2,0
1513230996889454,1,-3,-3,-3,-3,-3,-2,-3
1513230996890974,-1,-3,-3,-1,1,-3,0,-2
1513230996890974,-1,-1,-1,-3,-2,-1,-1,-1
1513230996911472,-2,-2,1,2,-1,-2,-1,-1
1513230996911472,-1,-1,-3,-1,-1,0,-1,-1
1513230996912970,-1,-1,-2,-1,-3,1,0,-2
1513230996912970,-1,-2,-2,-2,-1,-1,0,-1
1513230996934060,-1,-3,1,-2,-1,0,-1,-2
1513230996934060,-2,-1,-2,-1,-2,-2,-1,0
1513230996935530,-1,-1,-1,1,-1,-1,-1,1
1513230996935530,0,-1,-2,0,-1,-1,0,0
1513230996949032,0,1,1,-3,-1,-2,-2,-1
1513230996949032,1,1,-2,-2,-1,-1,0,-1
1513230996951531,1,-1,-3,-1,-1,0,-1,-1
1513230996951531,-3,-2,-2,-1,-1,-1,-2,-2
1513230996979051,-2,-2,0,0,-2,0,-2,0
1513230996979051,-2,-2,0,1,2,0,-1,-2
1513230996980552,0,-2,-1,-2,1,-3,-1,-1
1513230996980552,1,-3,-1,-1,-2,-1,-2,-2
1513230996994061,0,1,0,-2,-3,-1,0,-1
1513230996994061,0,0,-2,-3,-1,-1,-2,0
1513230996995562,-2,0,-1,1,-1,0,0,-1
1513230996995562,1,1,-4,-1,-2,-4,-2,0
1513230997009072,-1,-2,0,1,-1,-3,0,-1
1513230997009072,-4,-2,1,-2,0,1,1,-2
1513230997010589,0,0,-2,-4,-2,-2,-2,-1
1513230997010589,5,-1,-3,-2,-1,-1,-2,1
1513230997031609,-5,0,1,-1,1,1,-3,0
1513230997031609,2,-1,-2,-2,-3,-2,0,0
1513230997033110,-3,-1,-1,-1,-2,-1,-1,-2
1513230997033110,-3,-2,0,1,-2,-1,0,-1
1513230997045100,-2,-2,-2,0,0,0,0,0
1513230997045100,0,-1,0,0,-1,-3,-1,0
1513230997054103,0,1,-2,-3,-2,-2,0,1
1513230997054103,-5,-1,-2,2,4,0,-1,-3
1513230997069113,0,-2,-2,-3,-1,-2,-1,0
1513230997069113,0,0,-1,-2,-3,-3,-1,-1
1513230997070615,1,1,-2,0,-1,-2,-1,-2
1513230997070615,-1,0,0,-1,-1,-1,-1,-2
1513230997091639,0,-2,-3,-1,-1,0,-1,-1
1513230997091639,-3,0,-2,-1,-1,-1,-3,-2
1513230997093132,0,-2,-2,-1,-2,-1,-1,-1
1513230997093132,0,-1,-1,0,-2,-2,0,1
1513230997114149,-5,-1,3,1,1,0,1,-1
1513230997114149,0,-2,-1,0,-1,-1,-1,-1
1513230997115661,-4,-4,1,0,0,-1,1,-1
1513230997115661,-2,-1,-1,-3,-3,-1,0,-1
1513230997129169,2,-2,-1,-2,-1,-1,-1,-3
1513230997129169,-3,-1,0,-2,0,0,-2,0
1513230997130693,-4,-2,0,1,0,-1,-1,-1
1513230997130693,-7,-1,2,-1,0,0,2,-3
1513230997151704,0,0,-3,-2,-2,-1,-1,0
1513230997151704,-1,0,-1,0,0,-2,-1,0
1513230997153205,3,-2,-3,0,-3,-1,-1,-1
1513230997153205,-1,-1,-1,-3,-1,-3,-1,-1
1513230997165215,-1,0,0,0,0,-1,1,-1
1513230997165215,0,-1,-1,-2,0,1,0,-1
1513230997174221,0,-1,-1,-2,0,0,-1,-1
1513230997174221,0,-2,0,-1,1,0,-2,-3
1513230997188249,0,-1,-3,-2,-2,-3,-2,0
1513230997188249,-2,-2,0,-1,-3,0,-2,-2
1513230997196738,-3,-2,-2,-1,1,0,-1,0
1513230997196738,0,-3,-2,-3,-2,0,-2,0
1513230997211259,1,-1,-1,-2,0,-2,-2,-1
1513230997211259,-1,-1,-2,-1,-1,-3,0,-1
1513230997213249,-1,1,-2,-3,-2,0,0,0
1513230997213249,-2,0,0,-1,-3,0,-1,0
1513230997225255,1,-2,-4,-2,-2,-1,0,-1
1513230997225255,-1,-2,-2,1,1,0,-2,-1
1513230997234264,-3,-2,0,-1,1,-1,-1,-1
1513230997234264,1,0,-2,-3,0,-2,-1,1
1513230997249275,-1,1,-2,-2,-3,-4,-4,-3
1513230997249275,-1,0,-1,-1,-1,-1,-1,-2
1513230997251773,-3,1,0,-1,-1,-1,-2,-1
1513230997251773,-1,-2,-1,1,-1,-1,-2,-1
1513230997271791,-2,-2,0,0,0,0,-1,-1
1513230997271791,0,-1,-2,-3,-2,0,-1,0
1513230997273789,0,-1,-2,-1,-2,-1,0,-1
1513230997273789,-2,1,-2,0,-1,0,0,-1
1513230997294315,-2,-1,2,0,-2,-2,-1,-1
1513230997294315,-1,-1,-1,-1,-3,-1,0,-1
1513230997295820,-3,-1,0,0,0,1,-1,-2
1513230997295820,1,0,-1,-2,-1,-1,-2,-1
1513230997308818,-4,-1,-2,-2,1,2,1,0
1513230997308818,-2,-1,-1,-2,1,-1,-1,-2
1513230997310831,0,0,-1,-1,-1,-3,-2,-2
1513230997310831,-1,-3,0,0,-2,-1,-2,-1
1513230997339347,-2,2,2,0,1,0,-2,-1
1513230997339347,0,-1,-2,-1,-1,-2,-1,0
1513230997340840,0,-1,0,0,-3,-1,-1,-1
1513230997340840,-2,0,-2,0,0,-3,-2,-1
1513230997353856,0,-2,-2,-3,-1,0,-2,1
1513230997353856,-2,-3,-1,0,-2,-1,-1,0
1513230997355355,-2,-1,-1,-2,0,-1,-2,0
1513230997355355,0,-1,-2,0,-1,-2,-1,-2
1513230997368857,0,-1,-2,-1,-2,-2,0,0
1513230997368857,-2,-1,-1,1,2,1,0,-3
1513230997370358,-2,-2,-2,-1,-1,-2,-2,-1
1513230997370358,2,-3,-1,-1,0,-2,0,0
1513230997391372,-2,1,-3,-3,-2,0,0,0
1513230997391372,-1,0,0,0,1,-3,0,-1
1513230997392875,0,-2,-3,-2,-1,-2,0,1
1513230997392875,-3,0,0,0,-1,0,-2,0
1513230997413888,-2,-1,0,-1,-2,-1,-1,-2
1513230997413888,0,-2,-2,-2,-2,0,-2,1
1513230997415389,-2,-1,-1,0,0,-3,-1,0
1513230997415389,0,1,0,-2,0,-1,0,-1
1513230997429425,2,-3,0,0,-2,-2,0,-2
1513230997429425,1,1,-1,-2,-2,-2,0,-3
1513230997430938,0,0,0,-1,0,0,0,0
1513230997430938,1,0,-2,-3,-2,0,0,0
1513230997458923,-1,0,-2,-3,-2,-1,-2,0
1513230997458923,-2,-1,-3,0,0,-1,-3,1
1513230997460421,0,0,-2,-2,-1,0,-1,-1
1513230997460421,-2,-1,0,-1,-2,-1,-3,-1
1513230997473932,-2,-2,0,0,-1,-1,0,-1
1513230997473932,-1,-2,0,-1,-2,0,0,-2
1513230997475432,-2,-1,-1,-1,-3,0,-2,1
1513230997475432,0,-1,-1,-1,-1,-2,0,-2
1513230997488453,-7,-1,0,1,0,0,-2,-2
1513230997488453,-2,-3,-1,0,1,0,-2,0
1513230997494957,0,0,0,-1,-1,-1,-1,-2
1513230997494957,-1,-2,-2,-1,-2,0,0,-2
1513230997511460,-1,-1,-1,1,-1,-1,-1,-1
1513230997511460,0,-2,0,-1,-3,-1,-1,-1
1513230997512958,-2,-1,-2,-2,-1,0,-1,0
1513230997512958,-3,-4,-2,-1,1,-1,-1,1
1513230997533994,2,-1,-1,0,-1,0,0,0
1513230997533994,0,-1,-2,-3,-1,-3,-1,1
1513230997535475,0,-3,-2,0,0,1,0,-2
1513230997535475,-2,0,-1,-1,-2,-1,-2,-1
1513230997549005,-1,-2,-1,0,0,0,0,-2
1513230997549005,0,0,-2,-2,-1,-2,-1,-1
1513230997554988,0,-3,-1,-3,0,-1,1,-3
1513230997554988,0,-1,-1,-1,1,-1,0,-2
1513230997571500,3,0,-3,-1,-1,-3,0,-2
1513230997571500,-1,1,0,-2,0,-1,-1,-1
1513230997573000,-1,-2,-2,0,-1,-3,-2,0
1513230997573000,-4,-2,0,1,1,0,0,-1
1513230997594026,0,-1,-2,0,-1,-2,-2,0
1513230997594026,1,-1,0,-2,-2,-2,-1,-1
1513230997595528,-3,-1,0,1,-1,0,-2,-2
1513230997595528,0,-1,-2,-2,-1,0,-1,-2
1513230997608528,-3,-4,-1,0,-2,-1,-2,-1
1513230997608528,0,-1,-2,-2,-1,-1,-2,0
1513230997615033,-2,-2,-1,0,-1,0,-1,0
1513230997615033,2,-1,-2,-1,-1,-1,0,-3
1513230997631593,-1,0,-2,-3,-1,-2,-1,-2
1513230997631593,-1,-1,-1,-1,-1,0,0,-2
1513230997633064,0,0,-2,-3,-2,-2,-3,-1
1513230997633064,-1,-2,1,-1,-1,-1,-2,-2
1513230997654058,-4,3,0,-1,0,-1,-2,-2
1513230997654058,-1,-1,-1,0,0,1,-1,0
1513230997655559,0,-1,-1,-2,-2,-2,-1,-2
1513230997655559,-2,0,-3,-3,-4,-1,0,0
1513230997669072,0,-1,-2,-1,-2,-1,-2,-2
1513230997669072,-1,-3,-2,1,0,0,0,0
1513230997675073,-4,-1,0,-1,0,-1,1,0
1513230997675073,-1,-1,-1,-1,-2,-1,-1,1
1513230997691584,-1,-1,0,0,-2,-1,0,-1
1513230997691584,-1,0,-1,-1,-1,0,-2,0
1513230997693086,0,-1,-1,0,1,-1,-3,-2
1513230997693086,0,-3,-2,0,-1,-1,-3,-1
1513230997714103,-1,-3,-2,-1,-1,-2,-2,1
1513230997714103,0,-4,-2,-1,0,-3,0,0
1513230997715605,-3,2,2,-2,0,0,-1,-2
1513230997715605,-1,0,0,0,0,-1,0,-4
1513230997728113,0,-1,0,0,0,-1,-2,-3
1513230997728113,0,-2,-3,-1,-1,0,0,-1
1513230997735135,1,-2,-4,-2,0,-3,-1,0
1513230997735135,-8,1,1,2,0,-2,-1,0
1513230997751638,0,-1,-1,-2,-3,-1,0,1
1513230997751638,-2,-1,-1,-1,-1,-2,0,-1
1513230997753129,-5,-2,1,1,-2,1,-1,-3
1513230997753129,-1,-2,-1,-1,0,0,0,-2
1513230997774143,0,-3,-2,0,1,0,-2,-1
1513230997774143,-1,-2,1,1,0,0,-2,-1
1513230997775645,0,0,-2,-4,-4,-3,-1,0
1513230997775645,0,-1,0,-3,-1,-1,-3,-1
1513230997788167,-4,1,-2,-2,1,-2,-1,-2
1513230997788167,1,-1,-1,-1,-2,-2,-1,-2
1513230997796661,1,0,-1,0,0,-1,-1,-1
1513230997796661,-2,-1,-2,-1,-2,-2,-1,1
1513230997811670,-1,-1,-1,-3,-1,-2,1,1
1513230997811670,0,1,-4,-3,-3,-2,-2,0
1513230997813171,-1,-1,-2,-1,-3,-2,-1,-1
1513230997813171,0,-4,-3,-1,-1,0,-1,-1
1513230997834237,2,-6,-3,1,1,0,1,0
1513230997834237,-3,-1,-1,-1,-1,-1,0,-3
1513230997835702,0,0,-2,-2,-1,-2,-1,-1
1513230997835702,2,-2,-2,-1,-1,0,-2,1
1513230997847696,-1,-2,-3,-1,-2,-2,-1,2
1513230997847696,-3,-2,-1,0,-1,-1,0,-1
1513230997856703,0,-2,-1,-2,-1,-2,-1,0
1513230997856703,-2,-2,0,-1,-1,-1,-1,-1
1513230997879231,-4,2,2,1,-1,0,0,0
1513230997879231,-2,0,0,-2,-1,-2,-1,-1
1513230997880732,-3,-1,-1,0,-1,1,-1,0
1513230997880732,2,-1,-3,-1,-4,-1,-1,0
1513230997894243,-5,-1,-1,-3,-1,-1,-1,-1
1513230997894243,-2,1,-1,-1,0,1,-1,-3
1513230997896244,0,-2,0,-2,0,-1,-2,0
1513230997896244,0,1,0,1,-2,-3,-2,-2
1513230997907250,0,0,-2,-1,0,0,0,0
1513230997907250,-5,-3,-1,2,-1,-1,-1,-2
1513230997916638,-2,-2,-1,1,0,-2,-1,-1
1513230997916638,-2,-1,-1,-3,-1,-1,-3,-1
1513230997931645,-1,2,0,-1,-1,0,-1,-2
1513230997931645,-1,-3,-3,-2,0,-2,-2,-1
1513230997933158,1,-1,-1,-3,-3,-1,0,-2
1513230997933158,0,-2,0,-3,-1,-1,-1,-1
1513230997953653,0,-3,-2,1,-2,-2,0,-1
1513230997953653,1,0,-1,-2,-1,0,0,2
1513230997960180,-1,0,-2,-1,0,0,-2,0
1513230997960180,0,-1,0,0,0,-3,0,-2
1513230997967661,-1,1,0,-3,-2,0,0,-1
1513230997967661,0,0,-3,0,-2,-1,-3,-2
1513230997984198,1,-1,-2,-1,-1,-2,-1,-2
1513230997984198,-2,0,-2,-2,-2,0,-2,-2
1513230997991706,1,-4,-3,-2,-2,0,-3,-1
1513230997991706,0,0,-1,-2,-1,0,-1,1
1513230997993180,-2,-1,-1,-2,0,-1,1,0
1513230997993180,1,-1,-4,3,2,1,0,0
1513230998014195,-4,0,0,2,-1,-2,0,-3
1513230998014195,0,-3,0,-1,0,-3,-2,0
1513230998015736,-3,-3,-1,1,-1,-1,-1,-2
1513230998015736,0,-1,-1,-2,-2,-1,-1,-2
1513230998027713,-1,-2,-1,0,-1,0,-2,-1
1513230998027713,-2,-3,1,-1,-1,-1,-1,0
1513230998036710,1,-1,-3,-3,-1,0,-2,-1
1513230998036710,-2,0,-1,1,-2,-3,0,-2
1513230998051720,0,-3,-3,0,-1,0,1,-1
1513230998051720,-1,0,0,-1,-2,0,-1,-1
1513230998053732,0,0,-2,-2,-2,0,0,-1
1513230998053732,3,-1,-3,-4,-3,0,-1,1
1513230998073235,-2,-3,1,0,1,-2,-1,-2
1513230998073235,-1,1,0,-1,-1,-2,-2,-1
1513230998081763,-3,-1,-1,-1,-1,0,-2,0
1513230998081763,-1,-1,-1,-2,-1,-3,0,0
1513230998087745,-1,-2,-3,-3,-1,-2,-2,1
1513230998087745,-1,-2,-1,1,-1,-1,-2,-1
1513230998104257,-9,-1,1,0,-2,0,-1,-2
1513230998104257,-1,-1,0,0,-1,-2,-2,-2
1513230998119271,1,1,-1,-1,-1,0,-2,0
1513230998119271,-1,-2,-2,-1,-1,1,0,-1
1513230998120770,5,-2,-1,-3,-2,1,1,-1
1513230998120770,-2,-2,0,-2,-2,-1,-2,0
1513230998134289,0,-1,-2,-3,0,-2,-1,-3
1513230998134289,-1,-2,-3,-1,-1,-1,0,0
1513230998135289,1,-3,-1,-1,-2,-3,1,-2
1513230998135289,-2,-2,-2,-1,-2,1,-2,-1
1513230998147816,3,-3,-4,-2,-3,-2,-2,-2
1513230998147816,-1,-2,-2,-2,0,0,-1,0
1513230998156796,-2,-1,0,-1,0,-3,-1,-2
1513230998156796,-3,0,0,0,0,-1,0,-1
1513230998171320,-2,1,-1,-2,-2,0,-1,-1
1513230998171320,5,0,-3,-2,-2,-2,0,0
1513230998173307,-1,1,-1,-1,-1,-2,-1,-3
1513230998173307,0,-1,-2,-1,2,-2,-2,-1
1513230998193832,2,-2,-4,-1,-1,1,-3,1
1513230998193832,-4,0,1,0,0,-2,-1,0
1513230998195833,1,-3,-2,-1,-2,-1,-2,2
1513230998195833,0,-1,0,-1,0,0,1,-1
1513230998207842,0,-2,0,-1,-1,-1,0,-1
1513230998207842,-2,0,0,-1,-2,-1,-2,-2
1513230998224346,-2,-2,-2,0,-3,-2,-1,0
1513230998224346,-5,-3,0,1,-1,1,0,-1
1513230998231347,1,0,-1,0,-1,-2,-2,-2
1513230998231347,-5,-4,2,0,1,-1,0,-2
1513230998233348,-1,-1,0,-1,2,-1,-2,-2
1513230998233348,0,0,-2,-2,-2,-2,0,-1
1513230998253872,0,-1,-1,-2,-2,-3,0,0
1513230998253872,-5,1,2,1,1,1,-1,-2
1513230998255374,-1,-2,-2,-1,-2,0,0,1
1513230998255374,-3,0,-1,0,-1,-2,-3,-1
1513230998276379,-2,-1,0,-3,-1,-1,0,-1
1513230998276379,1,-1,-3,-2,-2,-2,-1,0
1513230998277892,0,-3,0,1,1,-1,-1,-2
1513230998277892,2,1,1,0,-3,-2,-1,-2
1513230998298894,-5,-1,1,-1,-2,-2,0,-4
1513230998298894,0,-3,-1,-1,0,-1,0,-1
1513230998300397,-1,0,-1,-2,-1,-1,-1,-1
1513230998300397,0,-3,-3,-3,0,0,-1,-1
1513230998313914,-2,-1,-2,-2,-1,-1,-1,-1
1513230998313914,-6,0,0,-1,-2,-1,0,-2
1513230998315408,-2,-2,-2,0,-1,0,-2,-1
1513230998315408,-2,0,1,1,-1,-1,0,-1
1513230998336440,-3,0,0,0,-1,0,0,-1
1513230998336440,-1,-1,-3,-2,-2,-1,-2,-3
1513230998337922,-1,-1,-1,-2,0,-1,-3,-1
1513230998337922,3,0,-4,-4,-1,-2,-1,0
1513230998351435,-1,-3,-1,0,-1,-1,-2,0
1513230998351435,2,-1,-3,-2,-1,0,0,0
1513230998352935,-1,0,1,-1,-2,-1,0,-1
1513230998352935,-3,-3,-1,0,-1,1,0,0
1513230998381466,1,1,-2,-2,-3,0,-1,1
1513230998381466,3,-2,-3,-1,-2,-1,-1,1
1513230998382959,-1,0,-1,-1,-2,-1,0,0
1513230998382959,-3,1,-1,-1,-2,-2,1,-2
1513230998396477,-2,-1,1,0,0,-1,-1,-1
1513230998396477,1,-1,-1,-1,-2,-2,-2,0
1513230998397966,-4,-2,0,-2,-1,-2,-1,-2
1513230998397966,-2,-2,-2,0,1,0,-1,-2
1513230998410976,2,0,-2,-2,0,-1,0,1
1513230998410976,-3,-3,-1,-2,-2,-2,0,0
1513230998417502,0,0,-1,-2,-1,0,-2,0
1513230998417502,0,-1,1,-2,-1,-1,-1,0
1513230998434004,-1,-3,0,0,-1,-1,-1,-1
1513230998434004,1,-1,-3,-2,-1,0,-3,-2
1513230998435502,1,-2,-1,-1,0,0,0,-3
1513230998435502,-2,-2,-2,0,-1,-1,0,0
1513230998456514,-2,-1,-2,-3,-2,1,-1,-1
1513230998456514,-1,1,0,-1,-3,-1,-1,-2
1513230998458008,-1,0,-2,-1,-1,-3,-1,-1
1513230998458008,-1,-2,-1,0,0,-2,-3,0
1513230998471019,1,1,-1,-2,0,-2,-1,-2
1513230998471019,-3,-3,0,0,0,0,0,0
1513230998477521,-1,-2,-2,-1,0,0,0,-2
1513230998477521,-8,-1,1,0,0,0,-1,-2
1513230998501538,0,-3,0,-2,-2,-3,-3,0
1513230998501538,-1,-2,0,-1,-1,-2,-1,1
1513230998503039,0,-1,1,-1,-1,-2,0,0
1513230998503039,5,-1,-3,-1,-3,-1,-2,0
1513230998516551,1,-1,-2,0,-1,1,-1,-1
1513230998516551,-2,3,2,-2,-2,-2,1,-1
1513230998518050,0,-3,-3,-2,-1,-2,-3,-1
1513230998518050,-5,-1,-1,0,-1,-1,1,-2
1513230998530559,-2,-2,-1,0,1,-3,-1,-2
1513230998530559,1,0,-2,0,-3,-2,-2,-1
1513230998537573,-1,1,-2,0,-1,0,-2,-2
1513230998537573,-1,-1,0,-3,-2,-3,-1,-1
1513230998554076,-3,0,0,-1,0,-3,0,-1
1513230998554076,-3,-3,-1,-1,0,0,0,-2
1513230998555578,2,-2,-4,-1,-3,-1,-2,2
1513230998555578,-1,-1,0,-1,-2,0,-1,-2
1513230998576621,-3,-1,-1,0,-1,1,1,-4
1513230998576621,2,0,-4,-3,0,1,-1,-2
1513230998578093,-3,-2,1,-1,-2,-1,0,-2
1513230998578093,-6,-1,1,0,-1,-1,-2,-3
1513230998590630,-2,-2,-1,0,-3,-1,-2,-2
1513230998590630,3,-2,-2,0,-3,-3,-2,1
1513230998597635,-2,1,1,-2,0,-2,0,0
1513230998597635,-1,0,-2,0,-2,-2,-1,-1
1513230998613634,-4,0,0,-2,0,-1,-2,0
1513230998613634,-2,-2,0,1,-1,-1,0,0
1513230998620125,1,-1,-3,-3,-1,2,-1,0
1513230998620125,-1,0,0,0,-1,-3,-1,-2
1513230998637144,3,-3,-4,0,-2,-2,-2,0
1513230998637144,-2,-3,-2,1,0,0,-2,-3
1513230998638646,-2,1,0,-1,-1,-1,-2,-2
1513230998638646,2,-1,-2,-4,-1,-1,-1,1
1513230998651172,0,-1,0,-3,0,-1,-1,1
1513230998651172,-2,-1,1,-2,-1,-3,-2,-2
1513230998657650,-5,1,0,0,-1,-2,-1,-1
1513230998657650,5,1,0,-1,0,-1,-1,1
1513230998674680,-5,-2,1,0,0,1,-1,-4
1513230998674680,0,-1,-1,-1,0,0,0,0
1513230998676181,1,-1,-1,-2,-2,-2,0,-1
1513230998676181,0,-4,-3,-1,1,-2,-2,0
1513230998696188,0,-1,-1,-4,-3,-3,-2,0
1513230998696188,-1,0,-1,-3,-1,-2,-2,1
1513230998698190,-4,-2,0,1,1,-1,0,-1
1513230998698190,-2,-1,-1,1,0,0,0,-1
1513230998710685,-1,0,-2,0,0,0,0,-2
1513230998710685,0,0,-2,-4,-1,-1,-2,-2
1513230998725196,0,-2,-2,-1,-1,-1,-2,-1
1513230998725196,-2,-1,0,-1,-1,0,-2,-2
1513230998734204,-2,-2,0,0,0,0,0,-1
1513230998734204,-1,-2,0,0,-2,0,1,-2
1513230998735706,-1,1,0,-2,-1,-2,0,0
1513230998735706,3,-2,-2,-2,-1,0,0,0
1513230998756242,-5,-2,2,1,0,0,-2,-3
1513230998756242,-2,-2,-2,-1,-1,0,-1,-1
1513230998758244,5,-5,-3,0,-1,-2,0,1
1513230998758244,-5,-1,0,-2,0,-1,0,-1
1513230998779246,-2,1,1,-1,-2,-1,-1,-1
1513230998779246,-2,-3,-1,-1,-1,1,-2,-1
1513230998780738,0,-4,-1,0,-3,0,-1,-1
1513230998780738,-5,2,3,0,-2,-1,0,0
1513230998794255,-2,0,0,-4,-1,-3,0,-1
1513230998794255,-2,-2,-3,-1,-1,-1,1,-1
1513230998795245,-1,-2,-1,-1,-1,0,-2,-1
1513230998795245,-1,-2,-3,-1,-3,-1,-2,-2
1513230998816761,0,0,-2,-3,-1,0,-2,-1
1513230998816761,-2,3,2,-1,0,0,0,0
1513230998818277,1,3,-1,-2,-1,-2,-1,0
1513230998818277,2,-1,-2,-1,-1,-1,0,-2
1513230998830285,3,0,-3,-2,-1,-2,-2,1
1513230998830285,-2,-1,-2,0,-1,-2,-2,0
1513230998839276,-3,-2,-1,0,-1,0,0,-1
1513230998839276,-3,-2,0,-1,0,1,-1,-3
1513230998853786,0,-3,-4,-2,-2,-2,-1,-2
1513230998853786,-9,-2,3,1,0,0,-1,-3
1513230998855789,-3,0,1,-2,0,-1,0,0
1513230998855789,1,-2,0,-1,-1,-2,-1,-2
1513230998876303,-3,-1,0,0,-2,-1,-1,0
1513230998876303,1,-2,-2,-2,-1,-2,0,-3
1513230998877805,-3,-1,-1,1,0,0,-2,-2
1513230998877805,-1,0,-2,-3,-3,-3,-2,0
1513230998890323,-5,1,1,2,-1,-1,0,-1
1513230998890323,-1,0,-2,-2,-1,-2,0,0
1513230998898818,-2,-1,1,-1,-1,-3,-1,-2
1513230998898818,4,-3,-2,-2,0,-3,0,3
1513230998913943,-5,-2,-1,0,0,1,-1,-4
1513230998913943,3,-2,-1,-1,-2,0,-2,1
1513230998915436,-1,-1,-1,0,-1,-2,0,0
1513230998915436,1,-1,-3,0,2,1,-1,-1
1513230998936451,1,-1,-1,-3,-2,-2,0,0
1513230998936451,-5,-1,1,1,1,-1,0,-3
1513230998937942,2,0,-2,-3,-1,-1,0,-3
1513230998937942,-2,-2,0,0,-1,-3,-2,-1
1513230998949977,-1,-3,-1,-2,-2,-1,-1,2
1513230998949977,-2,-3,-2,-2,-1,-2,-2,0
1513230998958960,-1,-5,-5,-3,-1,-1,-2,-1
1513230998958960,-4,2,0,-1,-2,-2,-2,-2
1513230998973981,1,-3,-1,-4,0,-1,-1,-1
1513230998973981,-1,1,-1,-1,-1,-1,-1,-2
1513230998975469,-1,4,1,0,-1,-2,-1,-3
1513230998975469,-1,-3,-2,0,0,1,-1,-2
1513230998996508,0,-1,-2,-1,-1,-2,0,-1
1513230998996508,-2,-1,0,-1,0,-1,-1,-1
1513230998997985,-1,-2,1,0,0,0,-1,-1
1513230998997985,-1,-1,-2,-3,-2,0,-1,-3
1513230999010007,5,-1,-2,0,-1,-1,-1,0
1513230999010007,2,-3,-1,0,-1,-2,0,-2
1513230999019001,-1,-1,-2,-1,-2,0,-1,0
1513230999019001,2,-1,0,-2,-3,-2,0,0
1513230999041525,-3,-3,-3,-3,-1,-1,-2,-1
1513230999041525,0,-2,-2,-2,0,0,-2,-1
1513230999043019,-1,-3,-3,-2,0,-1,-2,-2
1513230999043019,-3,-1,-1,-1,0,-1,-1,-2
1513230999057026,-2,2,-3,0,-2,-1,-1,-1
1513230999057026,0,-3,-1,0,-1,0,-1,-1
1513230999058528,-4,2,1,-2,-1,0,0,-1
1513230999058528,-4,4,0,-3,-2,-3,0,-2
1513230999070036,-7,-1,1,0,0,-1,0,-1
1513230999070036,2,-2,0,0,-1,-1,-1,-1
1513230999079082,1,-4,-1,0,-2,-2,-1,0
1513230999079082,0,-4,-2,-1,-2,0,-1,-2
1513230999094107,2,-3,0,-1,0,0,-2,-2
1513230999094107,-2,0,-1,-1,-3,-2,-1,-1
1513230999095609,-2,2,1,1,0,-1,-2,0
1513230999095609,-1,0,-2,-1,-1,-2,-1,0
1513230999116619,0,0,-1,0,-1,0,-1,-1
1513230999116619,2,4,-1,-3,-2,-3,-1,3
1513230999118120,3,-4,0,-1,1,0,-1,-1
1513230999118120,-1,1,-2,2,-2,-1,-2,-1
1513230999130128,-2,-4,-3,-2,-1,-1,-1,0
1513230999130128,-2,-4,-2,2,-1,-2,-2,-3
1513230999139134,7,-3,-6,-3,-3,0,0,-1
1513230999139134,-4,0,1,0,1,-1,0,-2
1513230999154137,0,0,0,0,-2,0,-1,0
1513230999154137,0,-1,-3,-1,-2,-2,-2,0
1513230999155640,1,-3,-3,-2,-3,-1,0,1
1513230999155640,-1,-3,-2,-2,-1,0,0,-3
1513230999176652,-1,-1,0,0,0,0,0,-1
1513230999176652,-3,-3,1,-1,0,1,-1,0
1513230999178153,-4,0,0,0,0,-1,-1,0
1513230999178153,0,-4,-3,-1,-2,-1,0,1
1513230999199167,0,-1,-3,-2,-2,-1,-2,-2
1513230999199167,-6,0,-4,-1,-1,0,-1,-2
1513230999200668,-4,-1,-2,-1,-3,-1,-1,-3
1513230999200668,-2,0,-2,-1,0,0,0,-1
1513230999214177,0,-3,-1,0,-1,-1,-1,2
1513230999214177,2,-2,-2,-2,0,-2,-2,-1
1513230999215699,1,-2,-1,-2,-1,-2,-1,0
1513230999215699,0,-3,-2,-2,-1,-1,-3,-3
1513230999236694,0,-1,-2,1,-2,-1,-1,-3
1513230999236694,-2,1,-3,-1,-1,1,-1,-5
1513230999238194,-3,0,0,-1,0,-1,0,-2
1513230999238194,0,-1,-2,-3,-1,1,-1,-1
1513230999258712,-1,-2,-2,-2,-2,-3,-4,-1
1513230999258712,1,-3,-2,-2,-2,-2,-1,2
1513230999260710,-4,-2,1,2,-1,-2,0,-3
1513230999260710,-3,-1,2,-1,-1,-1,-2,-2
1513230999273719,0,0,0,-3,-1,-1,0,-2
1513230999273719,-5,4,6,0,-1,0,1,-1
1513230999280250,-2,1,0,0,0,-2,0,-1
1513230999280250,0,-2,-1,-1,0,-2,0,2
1513230999296260,-3,0,-1,2,2,-1,-1,-2
1513230999296260,2,-2,-3,0,0,-1,-2,0
1513230999298252,-1,-2,-2,-1,-2,0,-2,1
1513230999298252,-1,0,-1,-1,-1,-1,-1,-1
1513230999318761,-3,1,2,1,-1,-1,0,-1
1513230999318761,1,-5,-2,0,-1,0,-1,0
1513230999320752,-8,0,-1,1,1,1,1,-6
1513230999320752,0,-2,-3,-1,-1,0,-1,-1
1513230999334284,0,-3,-1,-3,-1,-2,-2,-3
1513230999334284,0,-2,-2,-2,-1,-2,0,-1
1513230999335763,1,1,0,-2,-1,-1,-3,0
1513230999335763,-2,2,1,1,-2,-3,0,1
1513230999356279,-1,-1,-2,-1,1,-1,-2,0
1513230999356279,0,0,-1,-2,-2,-2,-1,-3
1513230999357788,1,-2,-3,-4,-1,-2,0,0
1513230999357788,-2,-1,-1,-1,-1,0,-2,-2
1513230999378816,0,1,0,0,-1,-2,-1,-1
1513230999378816,8,-3,-5,-3,-1,-2,0,2
1513230999380295,-4,-1,1,0,0,1,-1,0
1513230999380295,1,-3,-2,1,-2,0,-1,-1
1513230999393322,2,3,2,-3,-2,-2,-1,0
1513230999393322,-1,-4,-2,-1,-2,0,-1,-2
1513230999399811,-1,-2,0,-2,-2,-2,-1,1
1513230999399811,-3,-5,-1,2,0,2,-1,-1
1513230999416324,-6,-2,-1,-1,0,-2,1,-3
1513230999416324,-1,0,0,-3,-1,-1,1,-1
1513230999417826,1,0,-2,-3,-1,-3,-1,1
1513230999417826,-3,-2,-1,0,-1,-1,-1,-1
1513230999438857,2,-4,-4,-1,-2,-1,-1,1
1513230999438857,-8,1,1,1,1,0,-2,-2
1513230999440837,0,-2,-2,-1,-1,-2,-2,-2
1513230999440837,2,0,-2,-1,-1,-3,-1,-1
1513230999453346,0,-3,-2,0,-2,0,0,-2
1513230999453346,1,-2,0,0,-3,0,-1,0
1513230999460362,1,-5,0,-2,-5,-1,-2,-1
1513230999460362,-2,0,0,-1,1,-1,-1,-2
1513230999476362,1,-2,0,-3,-1,-1,-1,0
1513230999476362,-6,-4,-3,0,-1,-1,0,1
1513230999477863,-1,3,1,-1,-2,0,-2,1
1513230999477863,3,1,0,-2,-3,0,-1,-1
1513230999506385,-3,-2,-2,-1,-1,-1,-2,-1
1513230999506385,4,0,-1,-2,-3,-2,-3,1
1513230999507886,-11,-1,1,0,2,2,1,-6
1513230999507886,-3,0,0,-1,-1,-4,0,-1
1513230999513411,1,-2,-2,-1,0,1,-2,-1
1513230999513411,2,-1,-2,-2,-3,-3,-2,0
1513230999520395,3,-1,-4,-3,-2,-1,-2,0
1513230999520395,0,1,-3,-1,-2,-2,-1,-1
1513230999536418,-1,-1,-2,-1,-1,-1,0,-2
1513230999536418,-1,2,-1,0,-1,-2,-2,-1
1513230999537916,1,1,-2,-2,-2,-1,-1,0
1513230999537916,-2,-2,-1,-1,-1,-1,-1,-1
1513230999558921,-9,0,3,2,-1,-1,0,0
1513230999558921,-3,1,1,0,1,0,-1,-2
1513230999560422,2,0,-2,-1,-1,-1,-2,0
1513230999560422,-1,-3,-3,-2,-2,-1,-2,-1
1513230999573432,3,0,-1,0,-2,0,-2,-1
1513230999573432,0,3,1,1,-1,1,-2,0
1513230999579936,-1,-1,0,0,-1,0,-1,-2
1513230999579936,3,-2,-1,-3,-1,-1,-1,-1
1513230999596447,-2,1,-1,-1,-2,-1,-1,-3
1513230999596447,-2,-1,-2,0,0,-1,-1,-2
1513230999597949,0,-1,-2,0,0,-1,0,-1
1513230999597949,-3,-2,1,-1,-1,-1,-1,1
1513230999618963,1,0,-2,-3,1,-3,-3,-1
1513230999618963,-1,-4,-1,-1,-1,-1,0,-2
1513230999620476,2,-4,-1,-1,-1,-2,-1,0
1513230999620476,0,-1,-2,0,-1,-2,0,0
1513230999633494,-8,-3,0,-1,1,-1,0,-1
1513230999633494,-2,1,0,-3,-3,0,-2,-2
1513230999639987,-1,1,-1,0,-1,0,-1,1
1513230999639987,-2,0,-1,-1,0,-1,-1,-2
1513230999663996,1,-2,-3,-3,-2,-3,-2,0
1513230999663996,-1,-2,-2,-2,-1,-2,-2,-2
1513230999665498,-4,-8,-3,-1,-1,-3,0,-5
1513230999665498,0,2,0,-1,-2,0,-2,-1
1513230999679006,0,-2,-2,-2,0,0,0,-2
1513230999679006,-3,-2,-1,-2,0,-1,0,-1
1513230999680507,-1,-2,-2,-1,0,-3,-2,1
1513230999680507,-6,-1,1,0,-1,-2,0,-2
1513230999692532,2,1,-1,-1,-1,-1,-1,0
1513230999692532,0,0,-1,0,0,-1,-1,1
1513230999709028,1,1,-2,-3,-1,1,0,0
1513230999709028,4,-3,-4,-2,-1,-1,0,-1
1513230999716535,-5,-1,1,2,0,0,0,-1
1513230999716535,-1,-2,-2,-1,-1,-1,0,-2
1513230999718035,-2,-2,-3,-2,-2,-5,-2,0
1513230999718035,-1,-2,-3,-2,0,-2,-1,1
1513230999738567,0,-2,-3,0,0,-2,-1,-2
1513230999738567,-1,-1,0,-4,0,0,-1,-1
1513230999745070,0,0,1,0,-1,0,-2,-2
1513230999745070,0,-2,-2,0,-2,-3,-1,1
1513230999752558,-2,-1,0,-1,-1,-1,0,0
1513230999752558,-9,7,5,0,0,0,1,0
1513230999761564,0,-1,-1,1,1,0,-1,0
1513230999761564,-2,-4,-1,-1,-2,1,-3,-2
1513230999791642,-2,1,-1,-2,-2,1,0,-2
1513230999791642,-1,-2,-3,0,-1,-1,-1,-3
1513230999793142,-2,-1,-1,-3,-2,0,0,-1
1513230999793142,0,0,-2,-2,0,-1,0,0
1513230999799147,2,-2,-4,-3,-1,-2,-1,1
1513230999799147,3,-5,-3,0,-2,-2,-1,-1
1513230999800648,-2,-1,-1,-2,0,-1,0,-3
1513230999800648,2,-3,-1,-4,-1,0,-2,-2
1513230999821162,-1,-1,1,2,1,1,0,-2
1513230999821162,0,-3,-2,-1,0,-2,-1,0
1513230999823164,0,0,-1,-1,-2,-1,-1,-1
1513230999823164,2,-1,-1,1,-1,0,-1,1
1513230999836174,-2,0,1,1,-1,-1,-2,-1
1513230999836174,-1,-1,0,-1,0,-1,-1,0
1513230999838175,-1,-3,0,0,1,0,-1,-3
1513230999838175,-3,0,1,-2,-2,-1,-1,0
1513230999859202,-1,-2,-1,-3,-2,-1,0,-1
1513230999859202,-1,-11,-6,1,1,-1,-1,-3
1513230999861194,-2,3,-2,-3,-3,-2,-1,1
1513230999861194,-1,0,0,0,0,-1,-1,-1
1513230999872698,10,-3,-6,-4,-2,-1,-2,-1
1513230999872698,-2,-2,-2,0,-1,0,0,-1
1513230999889210,0,-1,-1,1,-1,1,-1,0
1513230999889210,-3,2,-1,-2,0,-2,0,-4
1513230999896227,0,-2,-2,-3,-2,-2,0,0
1513230999896227,0,-1,0,-2,0,-2,0,-1
1513230999898217,-3,-3,0,0,0,0,-1,0
1513230999898217,-1,1,-2,0,-1,-2,0,-1
1513230999918730,-3,-1,-2,0,-2,-2,1,-1
1513230999918730,-2,3,1,-1,-1,-1,0,-2
1513230999920732,-5,-3,0,0,1,-1,-2,-3
1513230999920732,-2,-3,-2,0,-1,0,-1,-1
1513230999932740,-1,-3,0,-2,0,-1,-2,0
1513230999932740,2,4,-2,-1,-3,-3,-1,-1
1513230999941747,6,6,0,-1,-1,-1,-1,0
1513230999941747,-4,-1,0,-1,0,-1,-1,-2
1513230999956257,-1,-3,1,0,-1,0,-2,-2
1513230999956257,-6,1,1,0,-1,0,-2,-1
1513230999957759,-2,-4,-2,-2,-1,0,-1,-1
1513230999957759,-4,0,-1,-1,1,-1,0,1
1513230999978773,0,3,-1,-1,0,0,0,1
1513230999978773,1,-1,-1,-3,-3,0,-2,-1
1513230999980274,1,-1,-1,-1,-3,-1,-2,-3
1513230999980274,-2,-3,-1,-2,-1,-1,-2,-2
1513230999992283,-2,-2,-1,0,-1,-2,-1,-2
1513230999992283,2,0,-1,-2,-2,-3,0,0
1513231000001792,-4,-2,-1,0,-1,-3,1,-1
1513231000001792,3,-3,-3,-2,-2,-2,1,-3
1513231000015299,-4,-1,0,-2,-1,-1,0,-1
1513231000015299,1,-1,-4,-2,-1,-2,-3,0
1513231000023805,-2,-2,0,-1,1,-1,-1,-2
1513231000023805,1,-1,-3,-1,-2,0,-1,-1
1513231000046324,-2,0,-2,-3,0,-1,-2,-1
1513231000046324,-2,4,1,0,1,-1,-1,-2
1513231000047822,0,0,0,-3,-1,0,0,2
1513231000047822,0,-1,-3,-3,0,-1,-2,-2
1513231000052825,-3,-1,-1,1,-1,-2,0,-1
1513231000052825,3,-2,-3,1,-2,1,0,0
1513231000061332,-3,0,-2,0,0,-1,-1,-3
1513231000061332,0,0,1,-1,-2,-2,-1,-2
1513231000083870,-3,-1,-1,0,0,-1,0,-3
1513231000083870,-2,-3,-1,-1,-1,-1,0,-1
1513231000085349,1,1,-3,-3,-3,-1,0,0
1513231000085349,0,-2,-1,-3,-1,0,-1,-1
1513231000099361,-5,-1,1,0,1,-1,-2,-2
1513231000099361,-1,-3,0,-1,-2,-3,-1,0
1513231000100860,1,-1,-1,-2,-1,-3,-1,1
1513231000100860,-5,-2,0,1,0,0,-3,-2
1513231000112371,1,-3,-2,1,-1,0,-1,-1
1513231000112371,-3,-1,-1,-2,0,0,0,-2
1513231000121374,-2,-1,-1,0,-1,-2,-1,-1
1513231000121374,1,-3,-4,-3,-2,0,-2,1
1513231000136387,0,1,0,-2,-3,0,0,1
1513231000136387,-1,-1,0,-1,-1,-1,-1,-2
1513231000137886,4,-3,-4,-2,-3,-1,-1,-2
1513231000137886,1,1,-2,0,-2,-2,-1,0
1513231000157900,-2,-2,0,-2,-1,-1,-1,-2
1513231000157900,-1,-1,0,-1,-1,0,-1,0
1513231000166406,1,-2,-1,0,-1,-1,0,0
1513231000166406,-1,1,-1,-1,0,-2,-1,-2
1513231000181472,3,2,-3,-3,-2,-3,-1,-1
1513231000181472,-1,-3,-3,-2,0,-1,-1,0
1513231000182917,-5,-2,1,1,2,0,-1,-2
1513231000182917,-4,0,1,1,-1,0,1,-1
1513231000196438,-1,0,-3,-1,-2,-1,-2,-1
1513231000196438,5,-4,-6,-1,-1,-1,-1,-1
1513231000197928,-2,-2,1,0,-2,-2,0,-1
1513231000197928,-4,-1,1,1,0,-2,-1,-2
1513231000218943,0,-2,-1,-2,1,1,-1,0
1513231000218943,2,0,-2,-3,-1,-3,-1,1
1513231000220444,1,0,-3,-3,-2,0,-2,-2
1513231000220444,-3,-6,-4,-2,-2,-2,-2,-2
1513231000241459,0,-3,0,0,-1,-1,-1,0
1513231000241459,-4,1,1,-2,-1,-2,-2,-2
1513231000242960,-2,-1,-2,-2,-2,-1,-1,0
1513231000242960,-1,0,-2,-1,0,1,0,-2
1513231000256469,-2,-2,-1,-3,-3,-2,-1,-1
1513231000256469,-2,-1,-1,-2,0,-1,-1,-2
1513231000257970,-1,-2,-2,-1,-3,-5,-3,0
1513231000257970,0,1,-1,0,-2,0,-1,0
1513231000278988,-2,2,1,-1,-1,-1,-1,0
1513231000278988,3,0,-2,-1,-1,-2,-2,-1
1513231000280487,-1,1,-3,-3,0,-1,-2,-2
1513231000280487,-1,-1,0,-1,0,-1,-1,-1
1513231000301535,-1,-2,-1,-1,-1,-1,0,-2
1513231000301535,-5,-2,-1,-1,-2,-1,0,-2
1513231000303035,-4,-1,1,0,-1,0,1,-1
1513231000303035,0,1,-1,-1,-1,-3,-2,-1
1513231000315044,-1,-2,-3,-1,-1,1,0,-2
1513231000315044,2,-1,-3,-2,-4,-1,-2,-2
1513231000324049,-1,-2,-2,-2,-2,1,-2,-1
1513231000324049,0,-1,-1,-1,-1,0,0,-1
1513231000339059,-2,-3,-1,-1,0,-2,0,-2
1513231000339059,-6,2,5,1,0,0,0,-1
1513231000340559,-3,-1,0,0,-2,-2,0,-1
1513231000340559,-2,1,-1,-1,2,0,-2,-2
1513231000361574,-2,0,-2,-1,0,-1,-3,-3
1513231000361574,3,-3,-3,-1,-1,-3,-2,0
1513231000363079,0,-2,-1,-1,0,0,-1,0
1513231000363079,-4,3,2,1,-2,-2,0,-1
1513231000375584,1,0,-2,-1,-3,-2,-2,-3
1513231000375584,-4,-2,-2,1,1,1,1,-1
1513231000382590,-2,-1,1,0,1,0,1,-3
1513231000382590,0,-2,-2,-2,-2,-3,-1,-2
1513231000399101,-1,-1,-2,-1,-1,0,0,1
1513231000399101,-3,-2,-2,-1,-3,-1,-1,-1
1513231000400604,-1,-1,-2,-1,0,0,-3,0
1513231000400604,-1,-2,-2,-2,1,-1,-2,0
1513231000429149,-1,-1,-1,-1,-2,0,-2,-2
1513231000429149,0,-2,-1,-1,-1,0,-2,1
1513231000430645,-3,-3,-1,-1,0,-1,-1,-3
1513231000430645,0,-1,1,-1,-4,0,-1,0
1513231000435627,5,-6,-8,-5,-4,-4,-2,-1
1513231000435627,-3,-2,-4,-1,-1,-1,0,-2
1513231000442632,0,0,-2,-1,-1,0,-1,-1
1513231000442632,-2,3,2,-1,0,0,0,-1
1513231000458644,-1,0,-1,-2,-1,-1,-1,0
1513231000458644,-4,2,0,-2,-1,0,-1,-2
1513231000460659,1,0,-3,-2,-2,-2,-2,0
1513231000460659,-1,-5,-2,-1,0,-1,-2,-2
1513231000481182,-2,-1,1,0,0,-1,-1,-1
1513231000481182,-2,-1,0,0,0,0,-1,-1
1513231000483180,-1,-1,-1,-1,-1,-1,1,0
1513231000483180,1,-3,-3,-2,-2,0,1,0
1513231000495709,-3,-1,-2,1,0,1,-1,-1
1513231000495709,-2,-1,0,-1,-1,-2,-2,0
1513231000502674,-1,-2,-2,-1,-3,-2,0,-1
1513231000502674,-2,0,-1,0,0,-1,-2,0
1513231000526191,-1,-2,0,2,0,0,-1,1
1513231000526191,-1,-1,-1,-2,-1,1,-1,-2
1513231000528192,0,0,1,0,-2,1,-2,-1
1513231000528192,0,-1,-3,-2,-3,-2,-1,-1
1513231000541211,0,0,0,-2,0,-1,0,-1
1513231000541211,-1,-2,-1,1,-1,-2,-1,0
1513231000542702,0,-3,-2,-1,-1,0,-1,-1
1513231000542702,-2,0,0,-1,-1,-1,-1,-1
1513231000555712,-2,-1,0,1,0,-1,1,0
1513231000555712,0,-2,-2,-1,-2,-2,0,0
1513231000562729,-2,0,-2,0,-2,0,0,-3
1513231000562729,-1,-2,-3,0,0,0,-1,-2
1513231000579230,-1,-1,1,-1,-1,0,-2,0
1513231000579230,3,-1,-3,-2,-1,-4,-1,0
1513231000581230,1,-2,0,-3,-2,-1,-1,-1
1513231000581230,1,-2,-1,-1,-2,0,-2,-1
1513231000601744,0,-1,-2,-1,0,-1,-1,-1
1513231000601744,-3,-2,0,0,-1,-2,-1,-1
1513231000603747,-2,-1,1,0,1,-1,0,-2
1513231000603747,-4,2,-1,-1,0,-1,-1,-2
1513231000615757,-4,4,3,0,-2,-1,-1,-1
1513231000615757,-2,2,0,0,0,-1,-1,-3
1513231000623260,-2,-2,-1,2,0,-3,1,-1
1513231000623260,-3,-4,1,0,-1,-1,-2,0
1513231000638292,-1,-1,-1,-3,-3,0,-1,-2
1513231000638292,-1,0,-1,-1,-1,0,-1,-1
1513231000638776,3,0,-1,-1,-1,-2,-1,1
1513231000638776,-5,-2,0,1,0,1,0,1
1513231000660806,-1,-1,-2,-3,-3,-4,0,-1
1513231000660806,3,-2,-1,-1,0,1,1,2
1513231000661286,-4,-2,-1,0,0,-1,-1,0
1513231000661286,1,-2,-2,-3,-2,-4,-1,-1
1513231000674806,-1,1,-1,0,-1,-2,0,-1
1513231000674806,0,-2,-1,-1,-1,-2,0,-2
1513231000683302,-1,0,-3,-1,-2,0,-2,-1
1513231000683302,0,-6,-2,-2,-1,-2,-2,0
1513231000698335,-2,-3,0,-1,1,0,-1,0
1513231000698335,-2,0,0,-2,-1,0,-1,-3
1513231000698835,-3,0,-2,-2,0,-2,-2,-1
1513231000698835,3,-8,-6,-3,-3,-2,-3,-1
1513231000721340,3,-1,-3,-2,0,-2,-2,-1
1513231000721340,-5,-1,-1,0,0,0,-2,-2
1513231000721829,-2,1,0,-3,-1,-1,-1,-1
1513231000721829,0,1,1,-1,-2,2,-1,-1
1513231000745847,-2,0,-1,0,1,-3,-2,-2
1513231000745847,3,0,-3,-1,-2,0,-1,0
1513231000746871,-2,1,-3,-2,0,-1,-1,-3
1513231000746871,-1,2,-2,0,0,-3,0,0
1513231000758378,-2,-2,-3,0,-1,-1,-2,-1
1513231000758378,-2,0,1,0,-1,-1,-2,-1
1513231000758856,0,-6,-1,-2,0,-1,-1,-1
1513231000758856,-4,-1,2,1,0,0,0,0
1513231000780386,-1,2,0,-2,-3,0,-1,-2
1513231000780386,-1,-2,-2,-2,-2,-2,-1,0
1513231000781371,0,1,-1,-1,-1,-2,-2,-2
1513231000781371,1,0,-2,-1,1,-1,2,-1
1513231000794892,-8,-3,1,-1,0,1,1,-3
1513231000794892,-5,-1,1,-1,-1,0,-2,-4
1513231000803397,0,8,3,-2,0,0,-2,1
1513231000803397,-1,1,-2,-1,-1,-1,-1,-2
1513231000817900,0,-1,-2,0,-1,1,-1,0
1513231000817900,1,-1,0,-3,-2,-2,-1,0
1513231000818898,-5,-5,1,1,-2,1,1,0
1513231000818898,0,0,0,0,-1,-1,-1,0
1513231000840913,-2,-2,-1,-1,0,0,-3,0
1513231000840913,-1,-1,0,-2,0,-1,-1,0
1513231000841414,0,-1,0,-1,-1,-1,-2,0
1513231000841414,-2,-1,0,-3,-2,-1,0,-1
1513231000856424,-4,0,-2,-2,-1,0,-2,-3
1513231000856424,-3,0,-2,1,2,-1,-2,-4
1513231000863441,0,0,-4,-3,-1,-2,-1,-2
1513231000863441,-2,0,0,-1,-1,-1,-2,-2
1513231000877950,-1,-3,0,-2,-1,-3,0,-1
1513231000877950,4,0,-2,-4,-2,-3,-1,2
1513231000878951,-2,-1,-1,-1,-2,-2,-1,-2
1513231000878951,-2,-1,0,0,-1,0,-1,-2
1513231000900967,3,0,-2,-1,-2,-1,-1,0
1513231000900967,3,4,-1,0,-1,0,0,0
1513231000901458,-2,-2,-1,-2,-1,0,-1,-1
1513231000901458,0,-1,-1,-2,0,-1,-3,-2
1513231000914966,2,-1,-1,1,0,-2,0,1
1513231000914966,-1,-4,-3,-2,-1,-1,0,-2
1513231000923472,-3,0,-1,-2,-1,-1,0,0
1513231000923472,-5,0,1,-1,-1,0,0,-1
1513231000938482,-1,-2,-1,-1,-1,-1,-1,-1
1513231000938482,-2,-3,-4,-2,-2,0,-1,-3
1513231000938982,-1,-2,-1,1,1,0,0,-2
1513231000938982,-1,-1,-2,-1,1,0,-2,0
1513231000960497,0,-2,0,-3,-1,0,-1,-2
1513231000960497,-1,-1,0,-1,-2,-2,-1,1
1513231000961518,-1,-5,-2,0,-1,-1,-2,-2
1513231000961518,-3,2,1,-3,-3,0,-1,-2
1513231000975008,4,-2,-4,-4,-1,0,0,2
1513231000975008,-1,-1,-3,-3,-2,0,-2,-1
1513231000983530,-1,-1,0,0,0,-2,-2,-1
1513231000983530,2,4,1,1,-1,-1,-1,1
1513231000998528,-2,-1,0,0,0,0,-1,-4
1513231000998528,-2,-2,0,0,-1,-2,-2,0
1513231000999526,2,-3,-2,-2,0,-1,-1,2
1513231000999526,-5,-6,1,1,0,0,0,-2
1513231001021040,-2,0,-2,-2,-2,-3,-2,-1
1513231001021040,-2,-1,0,0,0,-1,-1,-2
1513231001021541,-2,-2,-3,0,-1,0,-1,-3
1513231001021541,1,-4,-2,-3,1,-1,0,-2
1513231001035121,-2,-1,-1,0,0,-1,0,-1
1513231001035121,-3,-4,0,-2,0,0,0,-1
1513231001043104,-1,1,0,-2,-1,-2,0,-1
1513231001043104,-1,-3,-4,0,-2,0,0,-2
1513231001058113,-2,1,0,-1,0,-2,0,1
1513231001058113,-2,1,-1,-2,-2,-3,-1,0
1513231001059125,-6,2,0,0,-1,-2,0,-2
1513231001059125,1,-1,-1,0,-1,-1,-2,1
1513231001080715,-2,-6,-5,-1,-3,0,0,0
1513231001080715,-2,-2,0,2,-2,-1,-1,-1
1513231001081718,2,-2,-3,-1,-1,-1,-1,-1
1513231001081718,0,0,-2,-2,-1,-3,-2,-1
1513231001104181,-2,-2,0,-2,-1,1,-1,-3
1513231001104181,0,-1,0,-1,0,1,0,0
1513231001104681,-2,0,-2,-2,-2,-1,0,-1
1513231001104681,-3,-3,-3,-1,-1,0,0,0
1513231001118201,2,1,0,1,0,0,0,-1
1513231001118201,-2,-1,-1,0,1,1,1,-2
1513231001119192,-2,2,1,1,-1,0,-2,0
1513231001119192,0,-1,0,-2,-3,-2,-3,-1
1513231001140723,-1,-1,0,-2,-1,-1,-2,-1
1513231001140723,-3,-1,2,-1,0,0,-1,-2
1513231001141708,1,-3,-3,-3,-3,-1,-1,-1
1513231001141708,0,0,-3,-1,-2,-2,0,-2
1513231001163232,-2,1,-2,-1,-2,-2,-2,0
1513231001163232,4,-2,-6,-3,-3,-3,0,0
1513231001170728,-2,1,0,-2,-3,-3,-1,-2
1513231001170728,-3,-2,0,-1,-1,0,0,0
1513231001178248,0,-2,0,1,1,0,0,-3
1513231001178248,1,-2,-2,-3,-3,-3,0,2
1513231001179234,1,-4,-4,0,0,-1,-1,1
1513231001179234,-2,1,0,1,1,-3,-1,-1
1513231001200752,2,-1,-3,-2,0,-2,-2,-2
1513231001200752,-2,0,2,1,-1,-1,-1,-2
1513231001201250,0,0,-1,0,0,0,-1,-1
1513231001201250,-2,-3,-3,-1,-1,0,0,-1
1513231001223766,-1,0,-1,0,-1,-1,-2,-1
