timestamp,emg1,emg2,emg3,emg4,emg5,emg6,emg7,emg8
1513231362452646,-1,-3,-1,0,0,-1,1,-1
1513231362452646,-1,3,0,0,-1,0,-1,0
1513231362453648,0,0,-2,-1,-3,-1,-2,-2
1513231362453648,0,-2,-2,-1,-2,-1,-2,0
1513231362467156,-1,-2,-2,0,-1,0,-2,-1
1513231362467156,-1,-3,-1,-1,-1,0,0,-1
1513231362468657,-1,0,-3,-1,-1,-2,-1,-1
1513231362468657,-2,0,-1,0,2,-1,1,-2
1513231362489671,0,1,-1,0,0,-2,-1,0
1513231362489671,0,-1,-1,0,-1,-1,-1,-1
1513231362491172,1,-1,-1,0,-2,0,-3,-1
1513231362491172,-1,1,-3,-2,0,0,-1,-2
1513231362504682,-1,-2,-1,-1,-1,-2,0,-2
1513231362504682,0,-1,-3,-2,0,-1,0,-1
1513231362506185,-1,-3,0,-2,-2,-1,-1,0
1513231362506185,-1,0,-1,-1,-3,-2,-1,-1
1513231362527199,-2,-2,0,-1,-1,0,-1,-1
1513231362527199,0,0,-1,-2,-2,0,-2,-2
1513231362528699,-2,0,-1,-2,-1,0,-2,1
1513231362528699,-1,-2,-2,-1,0,-3,0,-2
1513231362549714,-1,-1,0,0,-1,-3,-1,-1
1513231362549714,-1,-2,-1,-1,-2,0,-1,-2
1513231362551217,-2,0,-1,-1,0,-1,1,-1
1513231362551217,-2,-1,0,-1,-2,0,0,0
1513231362572230,-1,0,-2,-4,-2,-2,-3,1
1513231362572230,-1,-2,-2,-1,-2,-1,-1,-2
1513231362573730,-2,-1,-1,-2,-1,-2,-2,-1
1513231362573730,-2,-2,-3,-1,0,-1,-2,-1
1513231362587240,-1,-1,-3,-1,-2,0,-1,-2
1513231362587240,-1,-1,-1,1,-1,-1,-2,-2
1513231362588741,-1,-2,-1,-2,0,-2,-2,-3
1513231362588741,-2,-2,2,-3,0,-1,-1,-2
1513231362609757,0,-1,0,0,-1,0,0,-1
1513231362609757,-3,-2,-1,-2,-1,-2,-1,1
1513231362611257,-2,0,-2,-2,-2,-2,0,0
1513231362611257,0,-2,-2,-1,-1,0,-1,-1
1513231362624266,0,1,0,-1,-2,-2,-1,-2
1513231362624266,-3,3,2,0,0,0,-1,0
1513231362630772,-1,0,-1,-2,-2,-2,-1,-1
1513231362630772,1,-1,-2,-2,0,-1,-2,0
1513231362654788,0,-1,-2,0,0,1,1,2
1513231362654788,0,-1,-4,-3,-1,-2,1,0
1513231362657292,1,-2,0,-1,-1,0,-2,-1
1513231362657292,-2,-1,1,0,0,-1,-1,-2
1513231362669298,-2,-2,-2,-2,-1,-1,-1,-1
1513231362669298,-1,-2,0,1,0,0,-1,-2
1513231362677304,0,-2,-3,-1,-1,-1,0,-2
1513231362677304,-1,0,-1,-1,-3,-1,0,-3
1513231362683808,-1,-1,-1,0,-1,-1,-2,-1
1513231362683808,-2,-1,-2,-1,-2,-3,-2,-2
1513231362698320,-2,0,-2,0,1,-1,0,-2
1513231362698320,0,-2,-2,-1,-1,-1,-2,1
1513231362707338,0,-1,-3,-1,0,-1,0,0
1513231362707338,1,-2,0,-2,-2,-1,-1,0
1513231362708827,-2,-1,-1,0,-1,0,-1,-1
1513231362708827,-2,-3,-1,-2,-1,-1,-1,0
1513231362729841,-3,-2,-1,-1,0,0,-1,0
1513231362729841,0,-1,-2,0,-2,-2,-1,0
1513231362731343,-2,0,-1,0,-1,0,-1,-1
1513231362731343,-1,1,1,0,0,-1,-1,-3
1513231362743851,0,-2,0,0,1,0,0,-2
1513231362743851,0,0,-2,-1,-1,0,-2,-1
1513231362750875,-1,-4,1,0,-1,-1,-1,-2
1513231362750875,-2,3,2,-1,-1,0,-1,1
1513231362767367,-1,-1,1,0,0,-3,-2,0
1513231362767367,-3,-1,0,0,-1,0,-1,-5
1513231362768870,1,-2,-4,-1,-1,-1,-1,-1
1513231362768870,-1,-1,-3,-3,-1,0,-3,2
1513231362789883,-2,-1,0,0,0,1,0,0
1513231362789883,-1,-1,-1,-2,-1,-2,-2,-1
1513231362791384,0,-2,-2,-1,-2,-2,-1,-2
1513231362791384,1,-3,-2,-1,-2,-1,0,-1
1513231362803915,0,-1,-1,-2,-3,0,0,-1
1513231362803915,-1,-4,-2,-1,-1,0,-1,-1
1513231362810901,-2,0,0,-1,-3,1,0,0
1513231362810901,0,-4,-1,0,-1,-2,-1,-3
1513231362826924,-1,0,-3,-2,-2,-3,0,-1
1513231362826924,-1,-2,1,-2,0,-1,-1,0
1513231362828912,1,-2,0,-2,0,-2,-2,-1
1513231362828912,0,0,-2,-1,-2,-1,0,0
1513231362849932,-2,2,0,-1,0,-1,-1,0
1513231362849932,0,-1,-2,-2,-2,-1,-1,-1
1513231362851931,-2,-2,0,0,-1,0,-1,-1
1513231362851931,-2,-1,-3,-1,-1,0,-2,-2
1513231362863937,0,-1,-3,-2,0,-2,-1,-2
1513231362863937,-2,-1,-1,-1,-1,0,-1,0
1513231362870945,0,-1,-1,-2,0,-2,-1,-1
1513231362870945,-1,-1,-3,0,-2,-1,-3,-1
1513231362886953,-2,-1,-2,-2,-2,-1,-2,-1
1513231362886953,1,-1,-1,-3,-1,-2,-1,0
1513231362888955,0,-2,-3,-2,-1,-1,-1,-2
1513231362888955,-1,-5,-2,-1,-1,-2,0,-3
1513231362909471,-1,0,0,-2,-1,-2,-2,-1
1513231362909471,-2,-2,-2,0,0,-1,-2,-1
1513231362911470,-1,-1,0,-1,-2,-1,-1,-2
1513231362911470,-1,0,-2,-1,-1,-2,-1,0
1513231362923478,1,-2,-1,-1,-2,-1,1,0
1513231362923478,-1,0,-3,-2,-2,-1,0,-2
1513231362932484,-4,-3,-2,0,0,-1,-2,-1
1513231362932484,-1,0,-1,0,0,-1,-1,0
1513231362947037,-2,-2,-2,-1,1,0,-2,-2
1513231362947037,-1,-1,-1,-2,0,0,0,-2
1513231362949000,-1,0,-3,-2,0,-2,-2,-1
1513231362949000,0,-1,-1,-2,-1,-1,-1,0
1513231362969520,1,-1,1,0,-1,-2,-2,-1
1513231362969520,0,-2,-3,-1,-3,-2,-2,1
1513231362971011,-1,-1,-1,0,1,-2,-2,1
1513231362971011,-2,0,-3,-1,0,0,-1,-2
1513231362983020,2,0,-2,-1,-1,-1,0,-2
1513231362983020,-2,-2,0,-1,-2,-1,-2,-2
1513231362992026,-2,-1,0,-2,0,-1,-2,-3
1513231362992026,0,-1,-1,-2,-2,-1,-1,0
1513231363007080,-2,-3,0,0,-1,0,0,-2
1513231363007080,0,-2,1,-1,-1,-2,0,0
1513231363008577,-1,-1,0,-2,-1,0,-1,0
1513231363008577,-1,-1,0,-1,2,-1,-1,-2
1513231363037087,-2,-2,-2,-1,-1,-1,-1,-2
1513231363037087,-1,-1,-2,-2,-2,-1,0,-1
1513231363038587,-1,-1,-1,-1,-1,-2,-1,-1
1513231363038587,-2,-2,-1,-1,-1,0,-1,-2
1513231363043105,-2,-1,-2,-1,0,-2,-2,-1
1513231363043105,-2,-4,-1,-2,0,-1,-2,-1
1513231363052098,-3,0,0,-1,-1,-2,1,1
1513231363052098,-2,-2,0,0,-2,-1,1,-1
1513231363067108,-2,-2,1,0,-1,0,0,-3
1513231363067108,-1,0,0,-1,-1,-1,-1,0
1513231363068609,0,-1,0,0,-2,0,-1,-2
1513231363068609,0,-1,-2,1,-1,-3,-2,0
1513231363089623,1,-1,-1,-1,-2,-2,-2,0
1513231363089623,-2,1,-1,-1,-1,0,0,-1
1513231363091124,-1,-2,-2,-1,0,0,-1,-2
1513231363091124,1,0,1,-1,-1,-2,0,-1
1513231363103133,-1,-1,-1,-3,-1,0,0,2
1513231363103133,-2,0,-1,-1,0,0,-1,-1
1513231363112139,-2,0,-1,-3,-2,-1,-1,1
1513231363112139,-1,-2,-2,-2,-1,0,-2,-1
1513231363127652,-2,-2,-1,-1,-2,-1,-2,-1
1513231363127652,1,-3,-2,-1,-1,-1,-3,-2
1513231363129152,-1,1,1,-1,-1,-2,0,-1
1513231363129152,-2,-2,-1,1,-2,-1,-2,0
1513231363149667,-2,-3,-3,0,-1,-1,-1,-1
1513231363149667,-1,-2,-2,0,0,-1,-2,0
1513231363151167,-1,-2,-3,-1,0,0,-1,0
1513231363151167,0,-1,0,-2,-1,-1,0,0
1513231363163175,0,-1,-3,-1,-1,-1,0,-1
1513231363163175,-1,0,-2,-2,-1,-3,0,-3
1513231363172182,-1,0,-2,0,-2,0,-1,-2
1513231363172182,-1,-1,-2,-2,0,0,-2,-2
1513231363187217,1,-1,-1,0,0,-2,-1,-1
1513231363187217,0,0,0,-1,-2,-1,-1,0
1513231363188708,0,-2,0,-2,-2,0,-1,-2
1513231363188708,0,0,-1,0,-1,-2,-1,-1
1513231363209733,-1,0,-2,-2,0,-1,-2,-1
1513231363209733,-1,0,-1,-3,-3,0,-1,0
1513231363211234,-2,3,0,2,-1,-2,0,0
1513231363211234,-2,-3,-1,-1,0,1,-1,0
1513231363223233,-3,-1,-2,-2,-1,-1,0,-1
1513231363223233,-2,0,-1,-1,0,-1,-1,0
1513231363232240,-3,-1,-1,-2,-1,-1,-3,-3
1513231363232240,0,-1,-1,-1,-1,-1,0,-1
1513231363247259,0,1,0,-1,-1,-1,1,1
1513231363247259,-1,0,-1,-2,-1,-3,0,-2
1513231363248750,0,-2,-2,-2,-1,-1,-1,-2
1513231363248750,-2,0,-1,-1,-2,-2,0,-1
1513231363269769,-1,-2,-3,-2,-3,-1,-2,0
1513231363269769,0,-1,-3,-1,-1,-1,0,1
1513231363271271,-1,-1,-2,-1,-1,-1,-2,-1
1513231363271271,0,0,-1,-1,-2,-2,-3,-1
1513231363283275,0,0,-1,-2,-1,1,-2,-2
1513231363283275,-2,-3,-1,0,-1,-1,-2,-2
1513231363298309,-2,-1,0,-3,0,-1,-2,-1
1513231363298309,-5,-1,-1,-1,-1,0,0,-3
1513231363307296,-3,1,1,0,-1,-1,-1,-1
1513231363307296,0,0,-1,-2,-2,-1,-1,-2
1513231363308797,0,-4,-2,0,-2,0,0,-2
1513231363308797,0,0,-1,-1,-1,-1,1,-2
1513231363329811,2,-2,-1,-1,0,-1,-2,0
1513231363329811,-1,0,0,0,-2,-1,0,-1
1513231363331310,1,1,-3,0,-3,0,-1,1
1513231363331310,-1,-2,-1,-2,-2,0,-2,-2
1513231363352325,-2,-3,-1,-1,-2,1,-1,-1
1513231363352325,-2,-3,-1,0,0,-1,0,-1
1513231363354829,0,-2,-1,-1,0,-4,1,0
1513231363354829,0,0,-1,-2,-1,-1,-2,2
1513231363366835,0,-3,-1,-3,0,0,-1,-2
1513231363366835,-2,-1,0,-1,-1,-1,-1,-1
1513231363373339,0,-2,-3,0,-2,0,-3,-1
1513231363373339,0,1,-3,-2,-2,0,-2,-3
1513231363389868,-1,-1,-2,0,0,-2,0,1
1513231363389868,-1,-2,-2,0,-1,0,-1,0
1513231363391364,1,0,-2,-2,-1,-1,1,-1
1513231363391364,-2,-2,-2,-2,-2,-1,-1,1
1513231363412367,0,-3,-1,-1,-2,-2,-1,-1
1513231363412367,0,0,-1,-2,-1,-1,-1,-3
1513231363413882,0,-1,0,-1,-1,0,-1,-3
1513231363413882,-1,-2,-1,0,-1,0,0,0
1513231363426880,-3,-1,0,-1,-1,-3,-1,-1
1513231363426880,-1,-3,-1,-1,0,-2,-2,-1
1513231363428878,-1,-3,-2,-1,-1,-1,-2,0
1513231363428878,-1,-2,0,-3,-1,-2,-1,-2
1513231363449893,-1,-4,-3,0,-2,-1,-3,1
1513231363449893,-3,2,0,-1,-3,-1,-3,1
1513231363451396,-3,-1,-2,-2,-1,-1,-2,-4
1513231363451396,1,0,-2,1,1,-1,-1,-1
1513231363471966,-1,-1,-3,-1,0,-3,-1,-2
1513231363471966,0,-2,-1,-3,-2,-1,1,-2
1513231363473973,-3,0,-1,-1,0,-1,0,-1
1513231363473973,-1,-1,-1,-3,-1,0,0,0
1513231363485971,-2,0,0,-2,0,0,0,-2
1513231363485971,0,0,-2,0,-2,0,0,0
1513231363494977,-1,0,0,0,0,1,0,-1
1513231363494977,0,-2,0,-2,-3,-1,-1,0
1513231363509497,0,2,0,1,-1,-1,-1,0
1513231363509497,-2,4,0,0,-1,-1,0,-1
1513231363511477,1,-2,-2,0,-4,-2,-2,-1
1513231363511477,-3,-1,-1,-1,-1,-2,-1,-1
1513231363532001,-1,0,0,-3,0,1,-3,-2
1513231363532001,-1,-4,0,-3,-1,0,-2,-2
1513231363538005,-3,-1,-1,0,1,0,-1,-1
1513231363538005,-1,-1,-2,0,-1,-1,1,-1
1513231363546504,2,-1,-1,-3,-2,-2,-1,1
1513231363546504,0,-3,0,-1,-2,-1,0,-2
1513231363553509,0,-2,-1,-1,-2,0,-1,2
1513231363553509,0,0,-1,-1,-1,-1,-2,0
1513231363577026,-2,-1,0,-2,-1,0,1,-3
1513231363577026,1,-3,-3,0,0,-2,0,-1
1513231363578524,-2,0,-1,-3,-2,-3,0,-2
1513231363578524,0,0,-2,0,-1,-1,0,0
1513231363592035,-3,0,-1,-2,-2,0,-2,0
1513231363592035,-1,-1,-2,0,1,1,-2,-1
1513231363593536,-1,0,-1,0,-1,-1,0,0
1513231363593536,-1,1,-1,0,-1,-1,0,0
1513231363606553,-1,0,-2,0,0,-2,-1,-2
1513231363606553,0,-1,-1,-1,-2,-2,-1,-1
1513231363613058,0,-1,1,-3,-2,-1,-2,0
1513231363613058,0,-3,0,-2,-1,-1,-3,-2
1513231363629560,1,-2,-2,0,-1,0,0,0
1513231363629560,-3,-1,0,1,-1,1,1,-1
1513231363631061,0,-2,-3,0,-1,1,0,0
1513231363631061,-1,-1,-3,-2,-2,-1,-2,-1
1513231363652076,-2,0,-2,-2,0,-2,-1,0
1513231363652076,0,-2,-2,-1,-1,-1,-1,0
1513231363653577,-3,0,-1,-2,0,-2,-1,-1
1513231363653577,-2,-1,0,1,0,0,-2,-2
1513231363666586,0,-2,1,0,0,0,-1,-1
1513231363666586,0,1,-2,-2,-1,-2,-3,0
1513231363680609,0,-2,-2,-2,-2,-1,-3,0
1513231363680609,-1,-1,-1,-1,-2,0,0,-2
1513231363689602,-1,-2,-2,0,-3,-2,-2,-2
1513231363689602,-1,-2,-1,0,-2,-1,-2,0
1513231363697118,0,0,-1,-2,-1,-1,0,-2
1513231363697118,-3,-1,-2,-2,-2,0,-1,0
1513231363712122,-4,3,1,1,-1,0,0,-1
1513231363712122,-2,-2,-1,-3,-1,-2,-1,-1
1513231363713649,-2,-3,-1,-2,0,-3,-1,-2
1513231363713649,1,-3,-1,-1,-2,-3,0,-2
1513231363726129,-1,-3,-4,-1,-2,-1,0,-2
1513231363726129,0,-3,-2,-1,0,-1,-1,-1
1513231363733133,0,0,1,-1,-1,-2,-1,-1
1513231363733133,0,-1,-1,-1,-2,-2,0,0
1513231363749647,-2,-1,0,0,1,-3,0,0
1513231363749647,-1,2,0,1,-1,0,-2,0
1513231363751147,-1,0,-2,-1,-1,-1,-1,-1
1513231363751147,0,-2,-1,-1,0,1,1,-1
1513231363771160,1,-4,-4,-2,0,-2,-3,-1
1513231363771160,-1,-2,-1,-2,-1,-1,0,-2
1513231363779667,0,-2,-2,0,-1,-1,-2,-1
1513231363779667,0,-2,-1,-1,-1,-1,-1,-3
1513231363794689,-1,0,-1,-1,-3,-1,-1,0
1513231363794689,-1,1,-1,-3,-1,-1,0,0
1513231363796178,0,-3,-2,0,-1,0,-2,-1
1513231363796178,0,-3,0,-1,0,-1,-2,0
1513231363809689,0,-2,1,-2,-1,0,-2,-1
1513231363809689,-1,-2,1,-1,-2,-2,0,-1
1513231363811189,-1,0,-1,0,-2,-2,0,0
1513231363811189,-4,0,-1,-1,-1,0,-1,-1
1513231363832213,-1,-1,0,0,-1,-2,-2,-2
1513231363832213,0,-1,-2,-3,-1,-2,-1,-1
1513231363833714,-1,1,-2,-2,-2,-2,-2,-1
1513231363833714,0,1,-1,-1,1,-2,0,-1
1513231363855230,-2,2,-3,0,-2,-1,-1,-2
1513231363855230,-2,0,-2,-1,-1,-2,-1,-2
1513231363856744,-1,-1,-1,-1,-2,-1,-1,-2
1513231363856744,-2,-2,-1,-2,0,-1,0,0
1513231363869740,-2,-2,0,-1,0,-1,-1,0
1513231363869740,-2,-2,-2,-1,-1,0,-1,1
1513231363871241,-1,-2,-2,-1,0,0,-2,-1
1513231363871241,-1,0,-1,-1,-2,-2,-3,0
1513231363892277,-1,-1,0,-1,-2,-1,1,-1
1513231363892277,-1,-1,-2,-1,-2,0,-1,-1
1513231363893778,-2,-6,-3,-1,-1,-2,-1,-3
1513231363893778,-2,0,0,-1,-1,0,-1,-1
1513231363905774,1,-1,-2,-1,0,-2,0,0
1513231363905774,-1,0,-1,-1,-2,0,-1,-2
1513231363914775,1,-1,1,1,0,0,-3,1
1513231363914775,-1,0,-1,-1,-1,-2,-2,-1
1513231363929804,0,-1,-3,-1,-2,-1,-2,-2
1513231363929804,-2,-2,-2,-1,-1,-1,-1,-1
1513231363931288,1,-1,-2,-3,-1,0,0,0
1513231363931288,-2,-2,-1,-2,-2,-3,-2,0
1513231363951323,-3,0,1,-2,0,0,0,0
1513231363951323,0,-1,-2,0,0,-1,0,1
1513231363959820,-3,0,0,0,-1,-1,-2,-3
1513231363959820,2,-3,-4,1,-2,-2,-2,-2
1513231363965809,0,-2,-2,-2,-2,-2,-1,0
1513231363965809,-1,-2,-1,-1,0,-3,-3,-3
1513231363982320,0,-1,0,-1,0,-1,-1,-2
1513231363982320,-2,0,0,-1,-1,0,0,-1
1513231363989847,-1,-2,-1,-2,-2,0,-1,1
1513231363989847,-1,0,0,-2,-2,0,-3,1
1513231363991329,-1,-1,-2,-1,-1,0,-2,0
1513231363991329,0,-1,-1,-1,0,-1,-1,0
1513231364012340,0,-2,-1,0,0,0,0,-1
1513231364012340,-2,-1,1,1,-1,-1,0,-2
1513231364013855,-1,-1,0,-2,0,-2,0,1
1513231364013855,-1,-1,-3,-1,0,0,-2,0
1513231364026353,0,-5,-1,-1,-3,-1,-1,-2
1513231364026353,-1,-1,-1,-1,0,-1,0,0
1513231364042375,-2,-2,0,-2,-1,0,2,-2
1513231364042375,0,0,-2,0,-2,-2,0,-1
1513231364049870,-2,-1,-2,-1,-2,-1,-1,0
1513231364049870,-1,-3,-1,-2,-2,-1,-2,-2
1513231364051368,0,-1,-1,-2,-1,-1,-2,-1
1513231364051368,-1,0,-1,-1,-1,-1,-1,-1
1513231364070882,-2,-1,0,0,0,0,-1,-2
1513231364070882,-1,-1,-3,-1,-1,-2,-1,-1
1513231364078888,-2,0,0,-1,-1,-3,0,0
1513231364078888,0,-2,-1,-1,-1,-1,-1,-1
1513231364093918,-2,0,-1,1,1,-3,0,-1
1513231364093918,0,-1,0,-1,-1,0,-2,0
1513231364094902,0,-1,-3,0,0,-2,-2,-1
1513231364094902,1,-3,0,-1,-1,-2,0,-1
1513231364116914,-3,0,1,0,-1,-1,-1,-1
1513231364116914,-1,-2,-3,-2,-3,-1,0,-2
1513231364117914,-1,1,-3,-2,0,0,-1,-1
1513231364117914,-1,-5,-3,-2,-1,-1,-2,-1
1513231364131434,0,0,-1,-2,-1,-1,-1,0
1513231364131434,-2,-2,1,-2,-1,0,0,1
1513231364132438,-1,-1,0,-2,-2,-1,-1,-2
1513231364132438,-1,-1,-1,-1,-1,0,-2,0
1513231364153951,0,-1,-2,-1,-2,0,0,-1
1513231364153951,-3,-1,-2,-2,-1,-1,-2,-2
1513231364154952,1,-2,-1,-3,-2,0,-2,-1
1513231364154952,-1,2,0,-2,0,-2,-1,-1
1513231364169007,0,-1,-1,-2,-3,-3,-2,-3
1513231364169007,-1,2,1,0,-1,-1,-1,-1
1513231364169507,0,0,0,0,-2,-1,-1,-2
1513231364169507,0,0,0,-2,-2,-1,-2,-2
1513231364191614,0,0,-2,-1,-1,0,-1,-1
1513231364191614,-1,0,-2,0,-2,-1,-1,-1
1513231364192115,-3,-3,-2,-1,-1,-2,-1,0
1513231364192115,-2,0,0,-1,0,-1,0,0
1513231364214121,-1,0,0,0,0,-1,0,-1
1513231364214121,0,-1,-1,-2,-1,0,-1,-1
1513231364214620,-2,-1,-1,0,-2,-2,-1,-2
1513231364214620,-5,-1,1,0,2,0,-1,-3
1513231364228631,0,-2,-1,-2,-1,-1,-1,0
1513231364228631,0,-2,-1,-1,-1,-3,-1,-2
1513231364229632,2,0,0,-1,1,-1,-1,0
1513231364229632,1,-3,-1,2,-3,-2,-1,-1
1513231364251147,-1,-1,-3,-1,0,0,-1,-1
1513231364251147,-2,-3,-2,-1,-2,0,-1,-1
1513231364252148,0,-3,-3,-1,-3,-3,-2,0
1513231364252148,-2,-1,-2,-2,0,1,0,0
1513231364273665,-3,-1,-1,-3,1,0,-3,-1
1513231364273665,0,-1,1,-2,0,-1,-1,-1
1513231364274664,0,-5,-2,-1,-1,-2,-1,-1
1513231364274664,-2,0,-2,0,-2,1,0,0
1513231364297179,-1,0,-2,-1,-1,0,-1,-2
1513231364297179,-3,-1,-1,-1,-1,-2,-1,-2
1513231364297680,-3,-1,-1,0,0,1,-1,-1
1513231364297680,1,-1,0,-2,-1,-1,-2,-1
1513231364311189,0,-1,-2,-1,-2,-1,-1,1
1513231364311189,0,-2,-1,-1,1,-2,-1,-2
1513231364312190,-2,0,-2,0,0,-1,-1,-1
1513231364312190,-1,-3,-2,-1,0,0,0,-2
1513231364333705,-2,-1,-2,0,-1,-2,0,-1
1513231364333705,0,-1,-3,-1,-2,1,1,-2
1513231364334705,0,0,0,0,-1,-1,-1,-1
1513231364334705,-3,3,1,0,0,0,0,0
1513231364349216,1,-1,1,-1,0,-1,-2,-1
1513231364349216,0,-1,-2,-1,-2,0,-2,0
1513231364349718,-1,-2,-1,-1,0,0,-1,0
1513231364349718,-1,-1,-3,-2,-3,-1,-2,-1
1513231364379739,0,0,-1,-1,-1,-1,-4,-1
1513231364379739,-1,0,-1,-1,-1,0,-1,0
1513231364380241,-4,1,2,-2,0,-1,0,-3
1513231364380241,1,-2,-1,-2,-2,0,0,-1
1513231364393767,-2,-2,-1,-1,-1,-2,2,-1
1513231364393767,-1,0,-2,-2,0,-1,-1,-1
1513231364394752,-1,1,-3,-1,-1,-1,-1,-2
1513231364394752,-1,0,0,-1,0,-3,-1,-2
1513231364408758,0,1,-1,0,0,-1,0,-2
1513231364408758,0,-2,0,0,-2,-1,-1,0
1513231364409759,1,-2,-2,0,-1,-1,-1,-1
1513231364409759,-2,-1,-2,0,-2,0,-2,-1
1513231364431296,-2,1,0,-1,-1,-1,1,-1
1513231364431296,-1,-2,-2,-1,-2,-1,-1,-1
1513231364432299,-1,0,-1,0,0,-1,-1,-1
1513231364432299,-1,-1,-1,0,-3,1,-1,-1
1513231364453822,1,-3,-2,-1,-2,-1,-3,-2
1513231364453822,-2,-1,1,-1,0,-2,1,-1
1513231364454813,-2,0,-1,0,0,-1,0,1
1513231364454813,-1,-3,-1,-2,-1,-2,-1,-2
1513231364468866,-1,-2,-1,-2,-3,-3,0,-1
1513231364468866,-1,0,-1,-1,0,-1,0,-2
1513231364469857,0,-2,-1,-2,-2,1,-1,-1
1513231364469857,0,0,0,-2,0,-1,-1,0
1513231364491371,-3,-1,-2,-2,-1,0,-1,-1
1513231364491371,-1,-3,-1,-1,0,-1,-1,-1
1513231364492372,0,-1,-2,-2,-2,-1,0,-2
1513231364492372,0,-3,-2,-1,-1,0,0,-1
1513231364513890,-1,0,0,-2,-1,-2,-2,0
1513231364513890,-2,0,0,-1,1,-3,-2,-1
1513231364514888,2,-2,0,-1,-1,-3,-1,0
1513231364514888,1,-5,-2,-2,-2,-2,-2,-1
1513231364530399,0,-1,-2,-1,0,0,-1,-2
1513231364530399,-2,0,-1,-1,-1,-1,-1,-1
1513231364531399,-1,0,-1,-1,-2,-1,-1,-1
1513231364531399,2,-1,-2,-1,-2,-1,-1,0
1513231364551413,0,-2,-1,0,-1,0,0,1
1513231364551413,1,-2,-2,1,-1,-1,1,0
1513231364552415,-1,0,0,-2,-1,-2,-2,-1
1513231364552415,-2,-1,0,-2,-1,-1,-1,-2
1513231364573930,-2,-1,-2,-1,-1,-1,0,-1
1513231364573930,-2,-2,-2,-1,-1,-1,-2,-2
1513231364574931,0,-3,0,0,0,-2,-1,0
1513231364574931,0,0,-1,-1,0,-2,-1,-1
1513231364596946,-1,0,0,-1,-1,-2,-2,-3
1513231364596946,0,0,-2,-1,-2,-1,1,-1
1513231364597948,-2,-1,0,-1,-1,0,-2,-1
1513231364597948,-1,0,-1,-2,0,-1,0,-2
1513231364611456,-2,4,1,0,-1,0,-2,-2
1513231364611456,-3,0,-3,0,-1,-1,-2,-1
1513231364611956,0,-2,-3,-1,-2,-1,-2,-2
1513231364611956,-1,1,1,1,-1,-2,-2,0
1513231364633972,-1,-4,-1,0,0,1,0,0
1513231364633972,-2,0,0,-2,0,-2,0,0
1513231364634472,-2,-2,-1,-2,0,0,0,1
1513231364634472,-1,-2,-3,0,0,-1,-1,-1
1513231364648984,-1,-3,-2,0,-2,-1,-1,-3
1513231364648984,-2,0,-1,-2,-1,-2,-3,-2
1513231364649483,-2,-3,-2,0,-1,-1,-1,0
1513231364649483,-4,1,-1,-1,-2,0,-1,-2
1513231364671522,-1,0,-2,-1,-2,0,-1,-1
1513231364671522,0,2,1,-2,-1,0,0,-1
1513231364671999,1,0,-1,0,0,-1,0,-1
1513231364671999,0,-3,-2,-1,-2,0,0,-1
1513231364694016,-1,-2,0,-2,0,-1,1,-2
1513231364694016,0,-2,-2,-2,-2,-2,-2,-1
1513231364694515,-4,-2,0,0,-1,-2,0,-1
1513231364694515,0,-1,-1,-1,-1,-1,0,1
1513231364709025,-2,-1,-1,-3,-1,-3,-1,0
1513231364709025,0,-2,-2,-2,-1,0,-2,0
1513231364709525,-1,0,-1,-1,-1,-2,-1,0
1513231364709525,-4,-2,-2,1,0,-1,-1,-2
1513231364731573,0,-3,-3,-2,0,-1,-1,-1
1513231364731573,-1,-2,-2,-1,-2,-1,-2,-1
1513231364732073,-1,-2,0,-2,-2,-1,-2,-2
1513231364732073,1,-1,-1,-1,-2,-3,-2,0
1513231364754089,0,1,-1,0,0,-1,0,-1
1513231364754089,-2,-3,1,-1,-3,-2,1,-1
1513231364755590,-1,-1,-4,-2,0,0,-1,-3
1513231364755590,0,-1,-1,-3,0,-1,-1,-1
1513231364769129,-1,-2,-1,0,-2,-1,-3,-1
1513231364769129,-1,-1,-1,-1,0,-1,-2,-1
1513231364769631,-2,-2,-2,0,-1,0,-1,-3
1513231364769631,2,-2,-2,-1,0,-2,-1,1
1513231364791654,-3,-2,3,1,-1,-2,-1,-1
1513231364791654,0,-2,0,1,-1,-1,-1,-2
1513231364792655,-1,0,1,-2,-1,-1,-2,0
1513231364792655,0,1,-2,-2,0,-1,-2,0
1513231364813663,1,-2,-3,-1,-2,-2,-1,2
1513231364813663,-2,2,0,0,0,-1,0,0
1513231364814662,0,-1,0,-1,-1,-1,1,1
1513231364814662,-1,-1,0,0,-2,-1,0,-3
1513231364828681,0,-2,-2,-1,-2,1,-2,-2
1513231364828681,0,-3,-4,-3,-1,0,-2,0
1513231364829681,0,0,-2,-1,-1,-1,1,0
1513231364829681,-1,0,1,-1,-2,1,1,-1
1513231364859708,-2,-2,-1,-2,0,-1,-1,0
1513231364859708,-2,1,-1,-2,-1,-1,-2,-1
1513231364860194,-2,0,0,-1,0,-2,-1,0
1513231364860194,-1,-2,0,1,0,0,-1,0
1513231364873736,-3,1,-1,-1,0,0,1,-2
1513231364873736,-1,-1,-1,0,-2,-1,-1,-1
1513231364874734,-2,-2,-3,-2,-2,-1,-1,-2
1513231364874734,-1,0,0,-1,-1,-3,-2,-3
1513231364888243,2,-6,-3,0,0,-1,-3,0
1513231364888243,-1,0,-1,0,-1,-1,-2,-2
1513231364896248,-1,0,-1,-1,-1,-1,-3,-1
1513231364896248,-2,-1,0,-1,-3,1,0,0
1513231364911262,-1,-2,-1,-2,-1,-1,-1,-1
1513231364911262,-2,-2,-2,-2,0,0,0,-1
1513231364912260,-1,-2,-2,-3,-1,0,0,-2
1513231364912260,-1,-1,-2,-2,1,0,0,-1
1513231364933785,-1,-1,-2,-2,-2,-2,0,0
1513231364933785,-1,-2,-2,1,-1,-2,0,0
1513231364934778,-1,1,0,1,-1,0,-2,-1
1513231364934778,-1,0,-1,-3,-2,-2,0,-1
1513231364949786,0,-1,2,-1,-1,-1,0,-3
1513231364949786,0,-3,-1,-3,0,-2,-1,0
1513231364963797,0,-1,-1,-1,-2,-1,-1,1
1513231364963797,-2,-1,-2,2,-1,-2,-1,0
1513231364971318,-1,0,-3,0,-2,1,-2,-2
1513231364971318,-3,0,0,0,-2,-1,-2,-1
1513231364972303,-1,-5,0,2,-1,0,-1,-2
1513231364972303,1,0,-2,-1,-2,0,-2,0
1513231364993831,-2,3,2,0,-2,-1,1,1
1513231364993831,0,-2,-2,1,0,-1,-1,-1
1513231364994829,-2,-1,0,-2,-1,-3,-3,0
1513231364994829,-1,0,-2,-2,-1,-1,-1,-1
1513231365009829,-1,-2,-3,-3,1,-1,0,-1
1513231365009829,0,-1,0,-2,-1,-1,-2,0
1513231365016333,-1,-1,0,1,-1,-1,0,2
1513231365016333,-1,-2,-2,-1,-1,-2,-2,-1
1513231365032347,-3,0,-2,-2,-2,0,-1,0
1513231365032347,-1,-2,-2,-2,-1,-1,-1,0
1513231365038850,-1,-1,-2,0,1,0,-2,-3
1513231365038850,-1,-2,-2,1,-2,-2,-1,-2
1513231365054861,0,-3,-2,-1,1,-1,0,0
1513231365054861,2,-1,-1,-1,-3,-1,1,-2
1513231365055362,-1,0,0,0,-2,-1,-1,-1
1513231365055362,0,-1,0,-2,-1,0,-1,0
1513231365068871,-1,0,-1,-1,-1,-2,-1,0
1513231365068871,-1,0,-1,-1,-2,0,-2,-2
1513231365076376,-1,0,-1,-1,-1,0,0,1
1513231365076376,-3,-2,0,-1,0,0,-1,-1
1513231365091400,-1,-1,-1,0,-2,0,-3,-2
1513231365091400,-1,-1,0,-1,-3,0,-1,-2
1513231365092388,1,0,-1,-1,-1,1,-1,0
1513231365092388,-2,-2,0,0,0,-1,0,1
1513231365121909,-1,-1,-1,-2,0,-2,0,0
1513231365121909,-2,-1,-1,-2,0,0,-1,-2
1513231365122910,-1,1,-1,1,-2,-1,-2,-2
1513231365122910,-2,1,0,-1,-4,-3,-1,-1
1513231365128433,0,-2,-1,-1,-1,-1,-1,1
1513231365128433,-2,-1,-1,0,-1,0,0,0
1513231365136430,1,-6,-5,-1,-2,-2,0,-1
1513231365136430,-3,-2,1,0,1,-1,-1,-4
1513231365151430,0,1,2,-1,-1,0,-2,-1
1513231365151430,-2,-1,-3,-2,-1,-2,-1,-1
1513231365152429,-1,-3,1,-2,-1,-1,-1,-1
1513231365152429,0,-4,-2,1,-2,1,0,0
1513231365174472,0,-5,-1,0,1,-2,-3,0
1513231365174472,-2,0,0,0,0,-2,-3,0
1513231365175456,-4,0,0,-4,-2,-2,-2,0
1513231365175456,-1,0,0,-2,-2,-3,0,-1
1513231365196992,-2,0,-1,-1,-2,1,1,-3
1513231365196992,0,0,-2,-1,-2,-1,0,-2
1513231365197991,-2,0,-2,-2,0,-1,0,-1
1513231365197991,-2,-1,-1,-1,-1,-1,0,-2
1513231365211494,-1,-2,-1,-1,-2,-2,-2,-1
1513231365211494,-2,-3,-3,-2,0,-2,-1,0
1513231365211971,-1,0,-1,-2,-2,0,-3,-1
1513231365211971,0,0,-4,-3,-2,0,-1,0
1513231365234501,0,-1,-1,-1,-1,-2,-1,0
1513231365234501,0,-2,2,-2,-1,2,1,-1
1513231365235001,-1,-2,-1,0,-1,-3,-1,0
1513231365235001,-4,1,-1,0,-1,0,-1,0
1513231365257004,-1,-2,-1,0,-2,-1,0,-1
1513231365257004,-1,1,0,-1,-1,-3,0,-1
1513231365258005,-1,0,-2,0,-2,-1,0,-2
1513231365258005,1,-1,-2,-1,-1,-2,-1,-1
1513231365271526,-1,-1,-1,-3,-1,-1,0,-2
1513231365271526,-1,-2,0,-3,-1,-1,-2,0
1513231365272015,-1,-1,0,-1,-1,-1,0,0
1513231365272015,0,-6,-2,-2,-1,-2,-3,-3
1513231365294695,-2,-1,-2,0,-3,-1,-1,-1
1513231365294695,-1,-1,-2,-1,-2,-2,-1,-1
1513231365295186,1,4,0,0,0,0,-1,-1
1513231365295186,0,-1,-2,-1,-1,-1,-1,0
1513231365317198,-1,-2,-2,-1,-1,-1,-2,-2
1513231365317198,-1,0,-2,-1,0,-2,0,-1
1513231365317709,-1,-3,0,-1,0,-1,-1,-2
1513231365317709,0,1,0,-1,-2,-3,-2,-2
1513231365331209,-1,-2,-2,-1,0,0,-2,-2
1513231365331209,-1,-2,-2,-1,-2,-3,-2,0
1513231365332210,-2,-1,-3,-2,-1,-2,-2,0
1513231365332210,-1,0,-1,-1,-2,-1,0,-1
1513231365354730,-1,0,-2,-1,-1,-1,0,0
1513231365354730,-2,-3,0,-1,0,1,-1,-1
1513231365355727,-1,-1,0,0,-1,0,-2,-1
1513231365355727,-1,1,-1,0,-1,0,-2,1
1513231365377281,-1,-1,-1,-2,-1,1,-1,0
1513231365377281,-2,-2,-2,-1,-1,0,0,-2
1513231365377756,-3,0,0,-1,-2,-2,0,-4
1513231365377756,-1,0,0,-2,-2,1,-2,-1
1513231365391251,0,-1,-1,-1,-3,-2,1,0
1513231365391251,0,-1,1,-2,-1,-1,-1,-2
1513231365392252,-1,-4,-3,-1,0,0,-1,1
1513231365392252,-1,-4,-2,-1,0,0,-1,-2
1513231365414820,-2,-2,-2,-2,0,0,-2,-1
1513231365414820,0,-2,-2,0,-1,-1,-3,-1
1513231365415268,-1,0,-1,-1,-1,-2,-1,-1
1513231365415268,-2,-1,0,-2,1,-1,0,-1
1513231365437293,-2,0,-2,0,-1,-1,0,-1
1513231365437293,0,0,-1,-1,-2,0,-1,-2
1513231365437785,0,-2,-2,-1,-2,-1,0,1
1513231365437785,-3,-1,-2,-1,-1,0,-3,0
1513231365451304,0,-2,0,-3,-1,-3,-1,0
1513231365451304,-2,1,0,0,1,0,0,-1
1513231365452295,-1,1,0,0,-1,-1,1,0
1513231365452295,-2,0,-2,1,-2,-3,0,-2
1513231365481815,-1,-2,0,0,-2,-1,-2,-2
1513231365481815,0,-3,-3,-1,-2,-2,-1,-3
1513231365482816,-1,-3,1,-1,-1,1,-1,-1
1513231365482816,-1,-1,1,-1,0,1,1,2
1513231365504831,0,0,0,-2,0,0,-1,0
1513231365504831,0,0,-1,-1,-1,-1,-1,0
1513231365505331,-1,-1,-3,-1,-1,-1,-1,-2
1513231365505331,0,-1,-3,0,-2,-1,-2,-2
1513231365511357,-2,0,-1,-2,-1,0,-2,-2
1513231365511357,-2,-2,0,-1,-1,-1,-2,-1
1513231365512336,-2,-1,-1,-2,0,-2,-1,-1
1513231365512336,-1,1,1,-3,0,-1,0,-1
1513231365534854,-2,0,-1,-1,-1,-2,0,-1
1513231365534854,-1,0,-2,-2,-2,-1,1,-1
1513231365535367,-2,-3,0,0,0,1,-2,-2
1513231365535367,0,-2,-2,-1,-1,-1,0,-1
1513231365556868,0,0,-1,0,-1,-1,-2,-2
1513231365556868,-2,-1,-1,-2,-3,-3,-2,0
1513231365557872,-2,1,-2,-1,-2,-1,0,-1
1513231365557872,-1,-1,-2,-2,-1,0,-2,-2
1513231365571381,-2,-4,-2,1,-2,-1,0,0
1513231365571381,-1,-1,-1,1,-1,1,-1,-2
1513231365571878,1,0,-2,-1,-1,-1,0,-1
1513231365571878,-1,-3,0,-2,1,0,0,-1
1513231365601911,0,0,0,-4,0,0,-1,-1
1513231365601911,-2,-1,1,-1,1,-1,-2,0
1513231365602902,-1,-1,-1,-1,0,-2,0,1
1513231365602902,-2,-1,0,-1,-1,-2,-1,0
1513231365624416,0,0,-2,1,-1,0,1,-1
1513231365624416,0,-2,-2,0,-1,1,1,-2
1513231365625416,0,-2,-1,0,-2,1,-1,-2
1513231365625416,1,0,-1,0,-1,-2,0,1
1513231365631420,1,-2,-1,-2,-1,-2,0,-1
1513231365631420,0,-3,-4,-2,-2,-1,-2,-2
1513231365631921,-1,0,-1,-1,-2,-2,0,0
1513231365631921,-3,0,0,0,-2,-1,-2,-2
1513231365654455,-1,-1,-1,0,-1,0,-1,-1
1513231365654455,-1,0,-1,-1,-1,-1,-1,-1
1513231365656438,1,-3,-1,-2,0,-1,-1,-2
1513231365656438,-1,-2,-2,-2,0,-1,0,-3
1513231365676976,0,-1,-1,0,1,-1,-1,-1
1513231365676976,-2,0,0,0,0,1,-1,-1
1513231365677964,-1,-2,-1,-2,-1,-1,-2,-1
1513231365677964,-3,1,0,-1,-1,-1,0,-2
1513231365691473,0,-1,-2,-2,-1,-1,-2,0
1513231365691473,0,-2,0,1,2,-1,0,2
1513231365691963,0,-1,-2,1,-1,-1,0,-1
1513231365691963,1,-3,-1,0,-1,-1,-1,-1
1513231365714504,-4,2,0,-1,-1,-2,-1,1
1513231365714504,-2,0,-2,-2,-2,-2,0,-3
1513231365715480,-1,-1,-2,0,0,-1,0,0
1513231365715480,0,-1,-3,1,-1,-1,-1,0
1513231365736995,-3,-2,-1,-1,-1,0,-1,-2
1513231365736995,-1,2,-1,-1,-2,0,0,-2
1513231365737508,-2,0,0,0,-1,-2,0,-2
1513231365737508,0,-1,-1,-2,-2,0,0,2
1513231365751005,0,-1,-1,-1,-2,-2,-2,-1
1513231365751005,1,-3,-2,1,1,-1,0,1
1513231365759025,1,-2,-2,0,0,-3,-1,-2
1513231365759025,-1,-1,-1,-1,-1,-1,-2,-2
1513231365774524,0,-1,-3,-1,-1,-1,-3,-3
1513231365774524,0,-2,0,-3,-1,-1,-2,-1
1513231365775523,-1,-1,0,0,-2,-1,-1,0
1513231365775523,0,-1,-2,-2,0,-4,-3,-1
1513231365797058,-2,-1,0,0,-1,0,1,-3
1513231365797058,0,-2,-1,0,-2,0,-1,-1
1513231365798060,-1,1,-2,-3,-1,1,0,-1
1513231365798060,0,-2,-1,0,-1,1,0,-1
1513231365810548,0,0,-2,-1,-1,-2,-1,0
1513231365810548,-2,-2,-2,-2,-2,0,0,1
1513231365819053,-4,-2,-1,0,-1,-1,-1,-4
1513231365819053,-2,1,-1,-1,-1,0,0,-2
1513231365834564,-1,-1,-1,-1,-1,-1,-1,-1
1513231365834564,-1,1,-1,1,-2,-2,-1,-1
1513231365835564,-2,1,0,-1,-1,-2,-2,0
1513231365835564,-1,-3,-2,0,0,-1,-1,-3
1513231365857083,-1,0,0,-1,-1,-2,-1,-2
1513231365857083,-2,0,0,-1,0,-2,-1,-2
1513231365858080,0,0,0,-1,-2,0,-1,0
1513231365858080,0,0,-1,-2,-2,-3,-1,0
1513231365870589,-4,-1,-1,-2,0,-1,0,0
1513231365870589,-1,-2,0,-2,-3,0,0,-2
1513231365878598,-2,-1,-3,1,-1,-1,0,-2
1513231365878598,-1,-3,0,-1,-1,-2,0,1
1513231365902112,1,-4,0,-2,-1,-2,-1,0
1513231365902112,-1,-3,0,0,-2,-1,0,-1
1513231365903112,-4,0,1,-1,0,0,0,-1
1513231365903112,-2,-1,-1,0,-1,-1,-1,-2
1513231365917123,0,-1,-1,-1,-2,0,0,1
1513231365917123,-1,-1,0,-2,0,-1,-2,2
1513231365917623,1,-2,-3,-1,0,-2,-1,-1
1513231365917623,0,-2,-2,0,-2,-1,-1,1
1513231365930641,-1,-1,-1,-2,-2,0,0,-2
1513231365930641,1,-1,-4,-1,-1,-1,0,0
1513231365938638,-1,-2,0,0,-2,-1,-1,-1
1513231365938638,0,2,-1,-3,-2,-1,0,0
1513231365954652,-2,-2,-2,0,0,-1,-1,-2
1513231365954652,-1,-1,-1,0,-1,0,-2,-3
1513231365956150,1,-4,-1,0,-1,0,-2,0
1513231365956150,-2,-4,-2,-1,-2,0,-1,-1
1513231365984669,-1,0,-2,-1,-2,0,-1,-1
1513231365984669,-1,-1,0,-2,-1,-3,-1,-1
1513231365985171,2,-1,-1,-2,1,-1,-1,2
1513231365985171,-1,-1,-1,-2,-2,0,-1,-1
1513231365990675,0,-1,0,-2,-1,-2,-1,0
1513231365990675,-1,1,-2,0,-3,-1,-1,-2
1513231365998680,0,-1,-3,-1,-2,-2,0,0
1513231365998680,-2,-2,1,-1,-1,-2,-2,-2
1513231366014691,0,-1,-1,0,-2,-2,0,-1
1513231366014691,-2,-3,-2,0,-1,-2,-1,-2
1513231366015192,-1,-1,-1,0,-1,-2,0,0
1513231366015192,-1,-1,-2,-2,-1,1,-1,-1
1513231366037708,-1,0,-1,2,-1,0,-1,-1
1513231366037708,-2,-2,-1,-2,-1,-2,-1,-3
1513231366038211,-3,0,1,-2,-1,-2,0,-1
1513231366038211,-2,-1,-1,-1,0,-1,1,-1
1513231366050726,-1,-1,-2,-3,0,-1,-1,0
1513231366050726,-3,1,-1,2,0,0,0,-1
1513231366058795,0,-1,-2,-1,-2,-1,0,0
1513231366058795,0,1,-1,-1,0,-3,-1,0
1513231366074768,-3,-1,-3,0,-1,-1,-2,-1
1513231366074768,0,0,0,-2,0,-2,-1,-1
1513231366075268,-2,1,0,-1,-3,-2,-1,-2
1513231366075268,0,1,-1,0,0,0,0,-1
1513231366096783,0,-3,0,-2,0,-1,-1,0
1513231366096783,-1,2,3,0,-1,-1,0,0
1513231366097784,-1,-4,-2,-1,-1,-1,-3,-2
1513231366097784,-3,0,-2,-1,-1,0,-1,-2
1513231366110794,-2,-1,-1,-2,-2,-2,-1,0
1513231366110794,-1,-1,-1,-5,0,0,-1,-2
1513231366118799,0,0,0,-1,-1,-2,-1,-2
1513231366118799,0,0,0,-1,0,0,1,-2
1513231366134810,-1,1,-2,0,-1,-2,-2,-3
1513231366134810,-2,-3,-1,0,0,-1,-1,0
1513231366135310,-1,0,-1,-1,1,0,-2,0
1513231366135310,1,-2,-1,-1,-1,-2,-1,1
1513231366157826,-1,-1,0,-2,0,-3,0,0
1513231366157826,-1,-2,-2,-1,-1,0,1,-1
1513231366158827,-3,0,-3,-1,0,-1,-1,-1
1513231366158827,-1,-1,-2,0,-1,0,-2,0
1513231366179852,-1,-1,0,1,-1,-1,-1,-2
1513231366179852,2,-5,-3,-1,-2,0,-2,-1
1513231366180857,-2,-1,0,-1,-1,0,-1,-2
1513231366180857,-2,-2,-1,-3,-2,-1,-1,-2
1513231366193355,-5,-1,0,-3,-1,0,0,-1
1513231366193355,-2,-1,-2,-2,-1,-3,-1,-1
1513231366201858,0,0,-2,-2,-1,-2,-2,-1
1513231366201858,0,-1,-2,0,-1,0,-1,0
1513231366216868,0,-1,0,-2,-1,-1,0,-1
1513231366216868,-1,1,1,-2,-1,-1,0,-2
1513231366218870,0,-1,-1,0,-1,1,-1,0
1513231366218870,0,-1,-2,-1,-2,-2,-2,0
1513231366239884,0,-1,-1,-1,-2,-1,-1,0
1513231366239884,-1,1,0,-1,-2,-1,-1,0
1513231366241385,0,-4,0,0,-2,-2,0,0
1513231366241385,-2,-5,-4,-2,-2,-1,1,-1
1513231366253395,1,-2,-2,0,-2,0,-1,-1
1513231366253395,-1,-1,0,-2,0,-1,-1,0
1513231366262417,-1,-1,-2,-2,-1,0,0,0
1513231366262417,0,0,0,-2,-2,0,-1,-3
1513231366276914,-2,-1,-3,-3,-2,-1,-1,-1
1513231366276914,-1,-1,-3,0,-1,0,-1,-2
1513231366278412,-1,-1,-2,0,-1,-2,0,-1
1513231366278412,0,0,-2,0,-1,-2,0,0
1513231366299927,-2,2,1,-1,-2,-3,-1,-1
1513231366299927,0,-1,-1,0,0,-1,-1,0
1513231366300927,-2,-1,0,-2,-2,-1,0,-1
1513231366300927,-1,-1,-2,0,-1,-2,-1,-2
1513231366313439,-1,-1,-2,-1,-2,0,0,-2
1513231366313439,-1,-3,-1,-1,-2,-1,-2,-1
1513231366322463,1,-4,-1,-1,0,-3,-2,-2
1513231366322463,1,1,2,-2,1,-3,-2,0
1513231366336965,-1,0,-1,0,-1,-1,-1,-2
1513231366336965,-2,-2,-2,-1,-3,-2,0,0
1513231366338458,-1,0,-1,0,1,-1,0,-2
1513231366338458,-2,-1,0,0,-2,0,0,0
1513231366359472,0,-1,-2,-3,0,-2,-2,0
1513231366359472,-1,0,-1,-1,-1,0,-1,0
1513231366360971,-1,0,-1,-1,-1,0,0,-1
1513231366360971,-1,-2,-1,-1,-1,0,-2,-3
1513231366373982,-1,-3,-1,1,0,0,-1,-2
1513231366373982,0,-2,-1,-1,-2,1,-2,0
1513231366380484,-3,-1,-1,1,-3,-1,-3,-1
1513231366380484,0,-1,0,0,-1,0,0,0
1513231366396997,-3,-6,-3,0,-1,0,-2,-3
1513231366396997,-1,-1,-2,-1,-1,-1,-2,-1
1513231366398498,-2,0,0,0,-1,-1,-2,-2
1513231366398498,-2,1,0,-1,-1,-1,-2,0
1513231366419511,-1,-1,1,-1,-1,-2,-1,1
1513231366419511,-1,-1,-2,1,0,-2,0,-1
1513231366421013,-3,-2,-1,-1,0,-1,0,-1
1513231366421013,-1,-3,-1,1,-1,-1,-2,-1
1513231366434046,1,0,0,-3,0,-3,-1,0
1513231366434046,-2,-1,0,0,-2,-2,-1,-1
1513231366440553,0,0,-2,-3,-1,-3,-1,-1
1513231366440553,-1,-3,-3,0,0,-1,-1,-2
1513231366457057,-2,1,0,-1,1,-1,-1,-1
1513231366457057,-3,-2,-3,0,0,-3,-1,-1
1513231366458555,-1,-3,-2,0,-2,-2,-2,-1
1513231366458555,-1,-1,-2,0,-1,-1,-1,-1
1513231366479570,-1,-2,-2,-2,-3,-1,0,0
1513231366479570,-2,1,2,0,0,1,-1,-1
1513231366481072,-1,-1,0,0,-1,-2,0,0
1513231366481072,-3,-1,-1,-3,-1,-3,-1,-1
1513231366494081,-1,-2,-2,-1,-2,0,0,-3
1513231366494081,1,-2,-2,-1,-1,0,1,-1
1513231366500585,-1,0,-1,0,0,0,-2,-1
1513231366500585,-1,0,0,0,0,-1,0,-2
1513231366517098,-2,0,-1,-1,-1,-2,-1,-1
1513231366517098,0,-1,-1,-3,-1,-3,-1,1
1513231366518598,-1,0,-1,0,0,1,-2,-2
1513231366518598,0,-2,-3,-3,-2,-2,-1,-2
1513231366539614,0,-3,0,-1,-1,0,0,1
1513231366539614,-1,-2,-1,0,0,-2,0,-2
1513231366541135,1,-2,-1,-1,-1,0,0,0
1513231366541135,-2,-1,0,-2,-2,0,-1,-1
1513231366554124,-1,2,-2,-1,-1,-1,-1,-1
1513231366554124,-1,-1,1,-2,-1,0,-1,-1
1513231366560630,-2,-1,-2,-3,-2,0,0,0
1513231366560630,0,0,0,-1,0,-2,0,-1
1513231366577175,1,-2,-2,0,-1,-1,-1,0
1513231366577175,-1,-2,-1,-1,-1,-2,0,-1
1513231366578665,-1,-1,-1,-2,-1,-3,0,-1
1513231366578665,1,-1,-3,-3,-2,1,-2,-1
1513231366599681,-4,-2,-1,0,0,-2,-1,-3
1513231366599681,-1,-1,0,-1,1,-2,-1,-1
1513231366601182,-1,-2,-1,-2,1,0,0,-1
1513231366601182,-3,-2,-1,-1,-1,-1,-1,-1
1513231366613715,-2,-1,0,-1,-2,-1,-2,-1
1513231366613715,-1,-1,-1,-1,0,0,-2,-2
1513231366628213,-2,-1,0,0,-1,-1,0,0
1513231366628213,-1,-2,0,-1,-1,-1,-2,1
1513231366637206,1,-6,-2,-1,-2,-1,0,-3
1513231366637206,-1,-3,-2,-2,0,-1,-1,0
1513231366638708,0,1,-1,-2,-1,0,-1,-1
1513231366638708,-1,0,-2,-1,-1,-2,1,-1
1513231366659734,-2,-2,-2,-1,-4,1,-1,-2
1513231366659734,-1,-1,-3,-1,-1,-1,-2,0
1513231366662249,-1,-2,-2,0,-1,-3,-3,0
1513231366662249,0,1,0,-1,-1,-2,0,0
1513231366673248,0,1,0,-1,2,-1,-1,-1
1513231366673248,-1,1,-2,-1,-1,1,-2,0
1513231366682249,-1,0,-1,-2,-2,-1,-1,0
1513231366682249,-1,-2,0,-1,0,-2,-2,-1
1513231366696759,-3,0,-1,-1,0,-1,0,-2
1513231366696759,0,-1,1,-1,-2,-1,-1,-1
1513231366698761,1,1,-3,-1,-1,-2,-1,-1
1513231366698761,0,-1,-1,0,-1,-2,-2,-1
1513231366719765,-2,0,-2,-3,-1,0,-1,1
1513231366719765,0,-2,-2,-1,-1,0,-1,-3
1513231366721266,-2,-1,-1,-2,-2,0,-1,-2
1513231366721266,-1,0,-3,-2,0,-2,-1,-3
1513231366733776,-2,1,-1,-2,-1,-1,-1,0
1513231366733776,-1,-1,0,0,-2,-2,0,-2
1513231366742293,1,-2,-2,-1,-1,-1,-1,-1
1513231366742293,-1,0,0,-2,-1,1,-2,-1
1513231366757294,1,-3,-1,0,-1,-2,-1,-1
1513231366757294,0,0,-1,-2,-2,0,-1,0
1513231366759292,-2,-4,-2,0,-1,-2,-1,-2
1513231366759292,-3,3,0,-1,0,-1,-1,0
1513231366779308,-1,-2,0,-2,-3,-1,1,-2
1513231366779308,-1,-1,-2,-1,-2,-2,-1,1
1513231366781308,-1,-2,-2,-1,-2,-2,0,-2
1513231366781308,-2,-4,-2,-1,-1,-1,-1,-2
1513231366793336,-1,0,-1,0,0,-2,-1,2
1513231366793336,0,-1,-4,-1,-1,-2,0,-1
1513231366802323,-2,0,-1,-3,-3,0,-1,0
1513231366802323,0,-3,-2,0,-2,2,-1,-4
1513231366816834,-1,-2,-3,-2,-1,-1,-1,-2
1513231366816834,-1,-2,1,-1,0,-2,1,-1
1513231366818334,0,-1,0,0,2,-1,-1,-1
1513231366818334,1,-1,-1,-3,-1,-2,0,1
1513231366839363,-1,3,1,0,-1,-1,-2,2
1513231366839363,-1,-1,0,0,-1,-1,-1,-3
1513231366841351,-2,-2,-1,-1,-1,-2,-2,-1
1513231366841351,-3,0,-2,-2,-2,-2,0,0
1513231366853359,2,-2,-1,-3,-1,-2,-2,-2
1513231366853359,-3,0,-1,-1,0,-1,-2,-2
1513231366867870,-2,-1,-2,0,-1,0,0,-2
1513231366867870,-1,-3,-2,-2,0,-2,-2,-1
1513231366876878,-3,-2,-1,-1,0,-1,-2,0
1513231366876878,0,-2,0,-1,-2,1,0,-1
1513231366878376,0,0,0,0,-1,0,-1,-1
1513231366878376,-3,2,0,-2,-1,-1,-1,-1
1513231366906900,-3,-1,-3,-2,-1,0,-2,-1
1513231366906900,-3,-2,-2,-1,0,-1,-1,-2
1513231366908398,-1,-2,-1,-1,0,0,0,-2
1513231366908398,0,-2,-2,-3,-3,-1,1,0
1513231366913404,-1,-1,0,1,-3,-2,0,-1
1513231366913404,-1,-3,-1,-3,-1,-1,-1,2
1513231366921907,-1,-1,-2,-1,0,-1,-2,-2
1513231366921907,-1,-2,-2,-1,1,-1,-2,-2
1513231366936932,0,0,-2,-1,-3,-1,-3,-2
1513231366936932,-1,-1,-1,0,-1,-1,-1,-2
1513231366938419,-3,1,0,-2,1,-1,-1,-2
1513231366938419,-1,0,-2,-1,-2,-1,-2,-3
1513231366959437,0,-2,-1,-2,-2,0,-2,0
1513231366959437,0,0,-2,-1,-2,-2,-1,0
1513231366960936,1,0,0,0,-1,0,-1,0
1513231366960936,-1,-1,0,1,-2,-3,-2,0
1513231366972998,0,-1,-1,1,-1,-1,0,-3
1513231366972998,-3,-1,-2,-1,-1,-3,-3,-2
1513231366981981,-1,-3,-2,0,-1,-1,-2,-2
1513231366981981,-1,-3,-1,-2,-1,-1,-1,-2
1513231366997002,-1,-3,-2,-1,-1,0,-1,-1
1513231366997002,-2,-2,-3,-2,-1,-1,1,-1
1513231366998493,-3,0,-1,-1,-2,-2,0,0
1513231366998493,1,0,0,1,0,-1,-1,-2
1513231367019508,-2,-3,-1,-2,-1,0,-1,0
1513231367019508,-1,-1,-2,-1,0,1,-2,-1
1513231367021009,-1,-1,-2,-1,-2,0,-2,0
1513231367021009,0,-1,-1,-1,-1,0,0,-2
1513231367033031,0,-1,0,-1,0,-1,0,-2
1513231367033031,2,-5,-2,-1,-2,-1,-2,-3
1513231367050030,-2,-1,0,-2,0,0,-3,0
1513231367050030,-2,-2,-2,-1,-1,0,0,0
1513231367057544,1,0,-1,-1,-1,0,-1,-2
1513231367057544,1,0,-1,-2,-2,-4,0,0
1513231367059036,0,-1,-3,-1,-4,-2,0,-1
1513231367059036,-2,-2,-1,0,-1,0,-3,-2
1513231367079551,-1,-1,-3,1,-2,0,-3,1
1513231367079551,0,0,1,0,0,-1,-1,-2
1513231367081073,-2,-2,0,-1,-1,-4,-1,-1
1513231367081073,0,-3,-1,-1,-2,-2,0,-1
1513231367102070,-3,-3,0,-2,0,-1,-1,-3
1513231367102070,-2,-1,-1,-1,-3,-1,-2,0
1513231367103571,0,-2,-1,-1,-1,-3,-1,-1
1513231367103571,-1,-1,-3,-1,-2,-2,-4,-2
1513231367117078,-2,0,-2,-1,-2,-3,-1,-2
1513231367117078,0,-1,-1,-2,-1,1,-2,0
1513231367118578,-1,0,0,0,-1,1,0,-1
1513231367118578,0,1,-1,-1,-1,-2,0,-2
1513231367139616,1,-1,0,0,-1,-1,1,-2
1513231367139616,-3,0,0,-2,-2,-1,0,-1
1513231367141098,0,0,-1,-2,-2,-3,-2,0
1513231367141098,-1,-1,0,0,-1,0,0,0
1513231367162108,-1,0,-1,-2,1,-1,0,0
1513231367162108,0,0,-3,0,-1,0,1,0
1513231367163624,-1,0,0,-1,0,1,-1,-3
1513231367163624,-1,-2,0,-3,-3,0,-1,-1
1513231367176621,-2,-1,-2,-3,-2,-2,-1,0
1513231367176621,-1,-2,-1,0,-1,0,0,-1
1513231367183141,1,-3,-3,-1,0,-2,-1,-1
1513231367183141,1,0,-3,0,-2,-3,-1,0
1513231367207668,-5,3,0,1,0,0,0,-1
1513231367207668,-3,-1,1,-2,-1,-2,-1,0
1513231367209142,-2,0,-2,0,-2,0,1,0
1513231367209142,-2,-2,0,0,-1,-2,0,-3
1513231367222154,-1,-1,-2,-2,-3,0,-2,-2
1513231367222154,-2,1,-2,0,1,1,-2,-1
1513231367223655,-3,-1,0,-2,-1,-1,-1,-2
1513231367223655,0,-2,-2,-1,0,-1,-2,0
1513231367237184,-1,-3,-2,-1,-1,-1,-2,-1
1513231367237184,-1,0,-2,0,0,-1,-2,-1
1513231367238684,-3,-2,-2,-2,-1,-1,0,0
1513231367238684,0,1,-2,-1,0,-1,-1,0
1513231367259691,1,-2,-1,-3,-2,-1,-1,-1
1513231367259691,-1,0,-1,-1,-1,-1,-1,-1
1513231367261179,-1,0,-2,0,0,-1,-2,1
1513231367261179,-2,-1,0,0,-2,0,0,-4
1513231367281212,0,-1,-2,0,-1,-1,1,0
1513231367281212,1,-2,0,-3,-2,-1,0,-2
1513231367289718,-1,-2,-2,-1,-1,-1,-1,-4
1513231367289718,-2,-2,-2,-1,-2,-1,0,-1
1513231367296737,0,-1,0,-2,0,-1,-1,-2
1513231367296737,-3,-3,0,-1,0,0,-3,-1
1513231367304729,-1,3,-2,-1,-1,0,-2,-3
1513231367304729,-2,-2,-2,0,-1,0,-2,0
1513231367319741,-1,-1,-1,2,0,0,1,-2
1513231367319741,0,0,-1,-1,-2,-1,0,0
1513231367321254,0,-3,-1,-1,-2,0,-1,-1
1513231367321254,-1,0,0,0,0,-3,-1,-1
1513231367341757,0,-2,-2,-1,-2,-4,-1,0
1513231367341757,-4,0,-1,-2,-1,-2,-2,-2
1513231367343771,0,0,0,0,0,-1,-1,0
1513231367343771,-1,-1,-2,-3,1,-1,-1,-2
1513231367356765,0,-3,-1,-2,-1,0,-4,-1
1513231367356765,1,-2,-1,-1,-1,-2,0,-1
1513231367380281,0,-1,-2,-2,-1,0,0,-2
1513231367380281,-1,-5,-2,-1,-1,0,0,-2
1513231367380782,-2,0,0,-1,-1,-2,-1,1
1513231367380782,1,-1,-3,-2,-2,-2,-2,0
1513231367382783,-3,-1,-1,1,-1,-1,-2,0
1513231367382783,-1,-2,-2,-1,-2,-1,-1,-1
1513231367401797,-3,-1,-2,0,-1,-2,0,-2
1513231367401797,-1,0,-2,1,-2,-2,-1,-2
1513231367403797,-1,-2,-2,-3,-2,-1,-2,1
1513231367403797,-1,1,-2,-1,-1,-1,-1,0
1513231367416307,-1,-3,0,0,-1,-1,0,0
1513231367416307,-1,0,-1,0,-2,-1,1,-1
1513231367423311,2,-1,0,-1,-2,-2,-2,0
1513231367423311,-2,-1,0,0,-1,-2,-3,0
1513231367439324,-4,4,1,-1,-1,2,-1,-1
1513231367439324,-2,-1,-1,-2,-1,-3,-1,-1
1513231367441324,-1,-3,-2,-1,-2,-1,-1,-2
1513231367441324,-3,-1,-1,-1,0,-1,-1,-3
1513231367461842,1,-1,-3,-1,-1,-1,-1,0
1513231367461842,-2,-1,-1,-1,-1,-1,-1,0
1513231367463840,-3,0,-1,-2,-1,0,0,1
1513231367463840,0,-1,-3,-3,0,0,-1,-2
1513231367476349,-1,-2,-2,-2,0,-2,-1,-1
1513231367476349,-1,-1,0,-1,-1,0,-2,-1
1513231367483355,0,-1,-1,-2,0,-2,-1,-1
1513231367483355,0,0,0,0,-3,-1,0,0
1513231367499865,0,-5,-3,0,-2,-2,-2,-3
1513231367499865,-3,0,-1,0,1,0,0,-3
1513231367500867,0,-2,0,0,0,-2,0,-1
1513231367500867,-1,0,-2,-1,0,-1,-1,-2
1513231367521884,-1,-2,1,-1,0,-1,-1,1
1513231367521884,-1,-1,-2,0,-1,0,0,0
1513231367523383,0,-1,-2,-1,-1,-1,0,0
1513231367523383,-2,-1,1,-3,-2,-2,-1,0
1513231367536404,-2,0,-1,-1,-2,0,-1,0
1513231367536404,1,-1,-1,-1,-1,-1,-2,-1
1513231367542896,-3,2,1,0,0,1,-2,-1
1513231367542896,0,-1,-3,-1,-1,-2,-1,0
1513231367566913,0,-2,-2,0,-1,-2,-2,-1
1513231367566913,0,-2,-1,-1,0,-1,-2,0
1513231367568415,0,-1,-1,-2,-1,-1,-1,-4
1513231367568415,-2,-2,0,-1,-1,0,0,-1
1513231367581923,0,1,-2,-2,0,-2,0,0
1513231367581923,0,-3,-1,-1,0,-1,-1,-2
1513231367583425,-1,-1,-1,-1,-2,0,-2,-1
1513231367583425,0,0,-3,0,-1,-2,-1,1
1513231367595447,-1,-1,0,-1,-2,-2,-1,-2
1513231367595447,-4,0,-2,-1,-2,0,-1,0
1513231367604940,-2,-2,-2,0,-1,-1,-1,-1
1513231367604940,-1,-1,-1,0,-2,0,0,0
1513231367619466,-2,-3,-2,2,1,-1,1,-1
1513231367619466,2,-3,-3,0,0,-2,-2,1
1513231367620953,-2,0,0,0,1,-2,-1,-1
1513231367620953,0,-2,1,-2,-1,0,1,-2
1513231367641967,0,0,-1,-1,-1,0,-1,-1
1513231367641967,0,-1,-2,-1,-1,-2,0,-1
1513231367643480,-2,0,-4,-2,0,-4,0,-1
1513231367643480,-1,0,-1,-3,-2,-2,-1,-1
1513231367655978,-2,-1,-1,-2,-1,-1,-1,0
1513231367655978,-4,-1,-1,-2,0,-1,-2,-1
1513231367664482,-1,-1,-2,0,-2,-1,-1,-2
1513231367664482,0,-2,-2,-1,-1,-1,-1,-2
1513231367679493,1,-4,-2,-1,-2,0,-1,0
1513231367679493,-4,1,1,-1,0,-1,0,0
1513231367685509,-3,-2,1,-1,0,-1,0,-1
1513231367685509,-1,0,-2,-1,-2,-3,0,0
1513231367702018,-1,-2,-2,-2,-1,-2,-2,-2
1513231367702018,1,-1,-1,-1,-1,-1,0,-2
1513231367703519,0,-3,-2,-1,-1,-2,-1,1
1513231367703519,-2,-1,0,0,-1,-1,0,-2
1513231367715521,-2,1,-1,-1,-2,-1,-2,0
1513231367715521,-4,-1,0,-2,-3,0,1,-1
1513231367724525,-1,0,0,-2,-2,-2,0,-3
1513231367724525,-2,-1,-1,-2,-1,1,-3,0
1513231367739538,-2,0,-1,0,1,-1,-1,-1
1513231367739538,-2,-1,-1,-1,-2,-1,-2,-2
1513231367741037,-1,-4,-2,0,0,0,-1,0
1513231367741037,-2,-2,-1,-1,-1,-3,0,-1
1513231367762054,1,-3,0,-1,-1,-1,-1,0
1513231367762054,-1,1,0,-2,-1,0,0,0
1513231367763553,-2,0,-2,0,1,-1,-1,-1
1513231367763553,0,-1,-2,0,-2,0,-1,-1
1513231367775564,-2,-2,-1,-1,-2,-1,-1,-2
1513231367775564,2,-4,-1,-2,-1,-3,-2,-1
1513231367784568,0,-1,1,-3,-1,0,0,-2
1513231367784568,-2,-1,0,-1,1,-1,-2,-2
1513231367800579,-3,0,-2,-1,-1,-1,1,-1
1513231367800579,-2,-2,-2,-2,1,0,-1,0
1513231367801579,0,0,-2,0,-1,-1,-1,-1
1513231367801579,0,0,-2,0,-1,-2,-1,1
1513231367822096,-2,0,1,1,-1,0,-3,-2
1513231367822096,-1,0,-2,-2,-2,0,-2,0
1513231367823595,-3,0,0,-2,-2,1,-2,-2
1513231367823595,1,0,0,-2,-1,-3,0,-2
1513231367844666,-2,0,1,-1,0,-1,0,0
1513231367844666,-3,1,3,0,-1,-1,0,1
1513231367846167,0,-4,-1,-2,-2,-1,-1,2
1513231367846167,-1,-3,-2,-1,0,-1,-1,0
1513231367867171,0,-1,-2,-2,-2,0,-1,-2
1513231367867171,0,0,0,1,-1,0,-1,-3
1513231367868669,-1,-1,-2,0,0,-2,-3,-2
1513231367868669,-3,-2,-1,-1,-1,1,-1,-4
1513231367882210,-1,-1,-2,-2,-1,0,0,1
1513231367882210,-1,-3,-1,-2,-2,-1,-1,-1
1513231367883711,0,1,-1,-1,-1,-1,-1,-1
1513231367883711,0,-1,-2,-1,-1,0,-2,1
1513231367895724,-1,-2,-2,1,0,0,0,-1
1513231367895724,-4,-1,-1,0,-2,-1,-1,-1
1513231367904726,-3,-2,0,-1,0,-2,-2,0
1513231367904726,-2,3,2,-2,0,0,-2,-1
1513231367919736,-3,0,-3,0,0,-1,1,0
1513231367919736,0,-1,-2,-2,-1,-2,0,-1
1513231367921239,-2,-1,-2,-1,-2,-1,1,0
1513231367921239,-1,0,-1,-2,-2,-3,-1,-3
1513231367949257,-2,-3,2,-1,-1,-1,0,-1
1513231367949257,-1,-3,-1,-1,0,-1,0,-1
1513231367951259,-2,-1,-2,0,-3,-2,-2,-2
1513231367951259,1,0,-2,-1,-3,-3,-1,0
1513231367955762,-1,1,-1,0,-1,-1,-1,-1
1513231367955762,1,-2,-2,0,0,-1,-1,1
1513231367964783,1,-3,-3,-2,2,-2,-1,0
1513231367964783,-2,-6,0,0,0,0,-1,-1
1513231367979278,-1,2,-2,-1,0,-1,-2,-2
1513231367979278,-1,-1,-1,-1,-2,-1,0,-1
1513231367981280,-2,-2,0,-1,-2,0,-1,0
1513231367981280,-2,-1,-2,-1,-3,-2,-1,-1
1513231368001795,0,-2,-3,-2,-2,-1,-3,0
1513231368001795,0,-3,-3,-1,-1,-3,-1,-1
1513231368003796,0,0,0,-2,0,0,0,0
1513231368003796,-3,-1,-1,-1,1,0,-1,0
1513231368016317,-3,-2,0,-1,-2,1,-2,-1
1513231368016317,-2,0,-3,0,-2,-1,-1,-1
1513231368024823,-1,-3,-3,1,-1,-1,-1,-2
1513231368024823,0,-2,-1,-1,0,-1,1,1
1513231368039321,0,-6,-2,-1,-1,-2,-2,-1
1513231368039321,-2,0,1,-2,-1,-1,-1,-1
1513231368041323,0,-1,-2,-1,-1,-1,0,-1
1513231368041323,-1,0,-2,-1,0,-1,0,0
1513231368061840,0,-1,0,0,-1,0,-1,-2
1513231368061840,-1,-2,-1,-3,0,0,-1,-1
1513231368063839,0,-1,-1,-2,-2,-2,0,-2
1513231368063839,0,-3,-1,0,-1,-1,-2,-1
1513231368084353,1,1,-2,0,-1,-2,-1,2
1513231368084353,0,-1,-1,-2,0,-2,-2,0
1513231368086354,-2,2,-1,-2,0,0,-1,-1
1513231368086354,0,-5,-3,-1,-1,0,0,-3
1513231368099369,-2,2,-1,-1,0,-2,0,-2
1513231368099369,0,-1,-1,0,0,0,-2,1
1513231368101366,-1,-1,-1,0,-2,-1,-1,-1
1513231368101366,-2,-3,-2,-1,0,-3,-1,-1
1513231368122380,-2,-2,-1,-1,1,0,-1,0
1513231368122380,-2,-2,-1,1,-1,0,-2,-2
1513231368124382,-1,-2,-1,0,-2,-1,-1,-1
1513231368124382,-2,-1,0,-2,-2,-2,-1,-1
1513231368144911,0,-2,-1,-3,0,0,-1,0
1513231368144911,-2,0,-2,-1,1,-1,-2,-3
1513231368146398,0,0,-2,0,-1,-1,0,0
1513231368146398,-1,1,-1,-1,-1,-1,-2,-1
1513231368159406,1,0,0,-1,-1,-1,-1,-1
1513231368159406,-1,-1,-1,-1,-2,1,-1,-1
1513231368161926,0,-1,-2,-1,0,-1,-3,0
1513231368161926,-1,-1,-1,-1,-2,-1,-3,-2
1513231368181933,-1,-1,0,-1,-2,-2,0,-2
1513231368181933,-3,3,2,0,1,-1,0,-1
1513231368183923,-1,-1,-1,-1,-1,-1,-1,-1
1513231368183923,-1,1,-1,-1,-2,0,0,0
1513231368204938,-4,0,0,0,-1,-2,0,-1
1513231368204938,0,-2,-1,-2,-2,-2,-1,0
1513231368206940,0,-1,0,-2,-1,-1,-2,1
1513231368206940,-1,-1,1,0,-1,-2,-2,-2
1513231368226954,0,-2,-1,-2,-1,-1,-3,0
1513231368226954,0,-1,-2,-1,-1,0,-1,-1
1513231368228469,-1,-1,-1,-1,-1,0,0,-1
1513231368228469,-1,-1,-3,-2,-2,0,0,0
1513231368241967,-1,-2,-1,-1,-1,-1,0,1
1513231368241967,1,-3,-2,-2,-4,-1,-1,0
1513231368243466,-1,-2,-3,-1,-1,-1,-1,-1
1513231368243466,-1,-1,-1,0,-2,0,-1,0
1513231368264543,-2,0,1,-1,0,-2,-1,-2
1513231368264543,-2,-1,-2,-2,0,-1,-2,-1
1513231368266021,0,-3,-2,-2,-1,-1,0,-1
1513231368266021,-1,0,-2,-1,-1,-1,-1,-1
1513231368278531,2,-3,-3,-2,-2,-2,-2,-3
1513231368278531,-1,-1,0,0,-2,-1,-2,0
1513231368285536,-1,-1,0,0,-1,-2,0,0
1513231368285536,1,-6,-1,-2,-2,-1,-1,-2
1513231368302047,-2,0,-1,-1,-2,-1,0,-2
1513231368302047,0,-4,-2,-1,-2,-1,-2,-2
1513231368303548,-1,-2,-2,-1,-1,0,-3,-1
1513231368303548,-1,-1,-3,-2,-1,-2,-2,-1
1513231368324566,-2,1,-1,0,-2,0,0,0
1513231368324566,-2,-1,0,0,-1,-2,1,-1
1513231368326064,-4,1,0,-1,-1,-1,-3,1
1513231368326064,-3,1,1,-2,0,-1,-1,-3
1513231368338573,-2,-3,-1,-2,-4,-1,-2,-2
1513231368338573,-3,0,0,2,-1,0,-2,0
1513231368345593,0,0,-1,-3,-1,-1,-2,-3
1513231368345593,0,1,0,0,-1,-1,1,-2
1513231368362092,1,-1,-2,-1,0,-1,-1,0
1513231368362092,0,-1,-1,-1,-1,-1,-1,-1
1513231368363591,-1,-1,-1,-1,-1,-2,-1,-1
1513231368363591,-5,3,1,1,1,0,-1,0
1513231368384605,-1,-1,-1,-1,0,0,-1,0
1513231368384605,-2,-1,0,-1,-2,0,0,-1
1513231368386106,-1,-1,-1,1,-1,-2,0,-1
1513231368386106,0,-2,-1,-1,-1,1,-1,-2
1513231368399125,0,-3,0,-1,-2,-1,-1,-2
1513231368399125,-1,-1,0,-2,-4,-1,-2,0
1513231368405633,-1,-1,0,-1,-1,-2,0,-1
1513231368405633,0,-2,-3,-2,-2,-1,-1,0
1513231368422164,0,1,-2,-2,-1,-1,-1,1
1513231368422164,-1,-1,-1,-1,0,-1,0,-2
1513231368423633,0,1,0,-1,0,-2,0,0
1513231368423633,-1,-2,-1,0,-1,-1,-2,-2
1513231368444678,-1,-2,-1,0,-1,-1,-1,-1
1513231368444678,-1,-1,-1,-1,0,0,-1,-2
1513231368446180,-3,-2,0,-2,-1,0,0,0
1513231368446180,-1,-2,-1,-1,-1,-3,-3,-1
1513231368467195,-1,-2,0,0,0,0,-1,-2
1513231368467195,0,-2,0,-1,-1,-1,-1,0
1513231368468696,-4,-2,-2,-1,-1,-2,-1,-2
1513231368468696,-2,-2,-1,-2,0,1,-1,-1
1513231368482215,1,-1,-1,-1,-1,-1,0,-1
1513231368482215,1,0,-2,-3,-1,0,-1,0
1513231368483717,0,-2,-1,-2,-1,-2,-1,-1
1513231368483717,0,-5,-3,-2,-1,1,-1,-1
1513231368504722,-3,0,2,-2,1,-2,-2,-1
1513231368504722,-2,1,-2,1,0,-2,-1,-2
1513231368506222,0,-1,-1,-2,-2,0,0,-2
1513231368506222,-1,0,-3,0,-2,-1,-1,1
1513231368519231,-1,-2,-1,-1,-2,-1,0,-1
1513231368519231,-2,0,-1,-1,-2,-1,-1,-1
1513231368525736,-1,-2,-2,0,-1,-2,-1,0
1513231368525736,0,0,0,-1,0,-2,-1,1
1513231368541747,-1,0,-2,0,1,0,-1,-1
1513231368541747,0,-1,0,-1,0,-1,0,1
1513231368543751,1,-3,-2,0,-2,2,-1,-1
1513231368543751,-2,0,1,0,-1,-1,-2,-2
1513231368564266,1,-1,-1,-1,-1,-1,-2,0
1513231368564266,0,-2,-3,-1,-2,-1,-1,0
1513231368566265,0,-4,-3,-1,0,-4,-2,-3
1513231368566265,0,-1,0,-1,-1,-2,0,-2
1513231368578276,-4,-2,-1,-1,-2,-1,-2,-1
1513231368578276,-8,-3,-1,-1,0,-1,-1,-3
1513231368587296,0,0,-2,-1,-3,-2,-2,-1
1513231368587296,-4,0,-2,2,-1,-2,1,0
1513231368601799,13,2,-2,-1,-1,-2,-1,0
1513231368601799,-1,-4,-2,-1,-2,-2,-2,-3
1513231368603792,-3,0,0,-1,0,-2,-2,-2
1513231368603792,-17,-2,-3,-3,-3,-2,-2,-1
1513231368624308,0,-1,1,1,0,1,2,2
1513231368624308,1,3,3,-5,0,1,6,5
1513231368626307,0,2,-3,-4,0,0,-3,-4
1513231368626307,6,-2,-1,0,0,-2,-2,-1
1513231368638332,-9,-3,1,1,0,-1,-4,-4
1513231368638332,9,0,-1,-4,0,-1,-1,2
1513231368647322,1,4,0,1,0,1,0,-1
1513231368647322,-7,-7,-2,-4,-1,0,-2,-2
1513231368661835,-12,-2,-1,3,-2,0,0,0
1513231368661835,11,-2,-2,-1,-2,-4,-3,-7
1513231368663833,2,0,-4,-3,-1,-1,0,4
1513231368663833,9,5,5,0,-1,1,6,2
1513231368684357,1,0,0,-1,-1,-3,-9,-9
1513231368684357,-3,3,2,1,1,3,-4,2
1513231368685850,-5,-9,-6,-1,-1,-2,1,1
1513231368685850,-12,-3,1,1,-2,-2,-5,-4
1513231368698367,-1,-3,-20,-9,-3,-1,4,4
1513231368698367,8,-1,7,2,-2,-2,-2,-5
1513231368706865,-9,-2,1,1,-1,1,15,-1
1513231368706865,13,0,-1,-2,-3,-2,-9,-1
1513231368721875,-4,0,3,0,-1,-1,-2,2
1513231368721875,-4,0,-5,0,-1,0,-14,-9
1513231368723376,-3,-3,3,2,-1,-2,-3,1
1513231368723376,-1,0,-3,-3,0,1,7,2
1513231368744391,5,5,2,-1,1,0,3,-1
1513231368744391,-9,-13,-8,-2,-2,0,-2,5
1513231368745892,1,-4,1,-3,-3,-2,0,-3
1513231368745892,-2,2,0,0,-1,-2,7,-4
1513231368757912,6,3,-2,-4,0,1,-20,2
1513231368757912,-1,-2,0,-2,-1,2,36,1
1513231368766912,-4,-11,-2,-3,-4,-4,-21,-7
1513231368766912,9,4,-8,-1,1,-3,-38,-4
1513231368781917,-17,-8,8,2,-2,0,1,2
1513231368781917,7,8,-2,0,0,1,-3,4
1513231368783418,-2,3,4,1,-3,0,32,0
1513231368783418,1,-8,-8,-6,-2,0,0,0
1513231368804433,-5,0,1,1,0,-1,-23,0
1513231368804433,-4,-4,0,1,-1,-3,-20,-1
1513231368805946,-2,1,-11,-10,-1,-3,13,-7
1513231368805946,-5,2,2,-1,-1,-1,19,8
1513231368818470,4,2,5,5,-1,-5,-34,-12
1513231368818470,-8,-7,-6,-3,-1,-3,-10,-7
1513231368826976,7,6,0,2,3,4,-11,1
1513231368826976,-6,-5,-4,-4,-3,-2,22,0
1513231368840994,-2,-5,-4,-3,-1,1,14,3
1513231368840994,3,4,9,4,1,2,26,19
1513231368849492,-9,4,1,-6,-3,-5,-1,-9
1513231368849492,2,-3,-6,1,-1,-6,-84,-21
1513231368864505,-4,-2,-6,-2,-3,0,25,2
1513231368864505,0,4,11,7,1,-2,-34,-6
1513231368866004,-5,-19,-20,-16,-7,-4,5,3
1513231368866004,1,9,16,5,6,3,20,6
1513231368878015,-4,2,7,1,-2,-2,-3,-6
1513231368878015,3,6,-7,-12,-1,1,15,-2
1513231368887018,1,-10,-13,9,-2,-2,-7,6
1513231368887018,-7,-8,-4,-2,-3,-1,1,-9
1513231368902040,15,7,4,-1,0,2,12,8
1513231368902040,1,-4,-3,-6,-4,-3,14,0
1513231368903542,1,4,7,2,2,4,13,7
1513231368903542,1,3,-5,2,0,-1,-43,-17
1513231368924546,-8,-14,-8,-9,-1,-2,10,-1
1513231368924546,-7,4,0,1,-2,-3,-13,-6
1513231368926046,1,4,0,1,0,-1,3,-3
1513231368926046,-13,2,1,-5,-1,2,6,8
1513231368938120,11,-2,15,13,-4,-4,3,-2
1513231368938120,-22,-8,-11,-12,-2,-3,-3,-6
1513231368947126,15,7,5,-1,2,5,1,4
1513231368947126,3,6,-2,2,-2,-3,20,0
1513231368961662,-3,-3,-5,-7,-1,0,0,-8
1513231368961662,2,-3,3,5,0,-2,-9,-8
1513231368975649,-6,5,7,5,3,5,13,28
1513231368975649,28,5,1,-2,-2,-2,-3,-11
1513231368984653,-10,-9,-8,-6,-1,-2,23,6
1513231368984653,-19,-18,-18,-9,-4,-2,-2,-6
1513231368986153,8,5,1,-6,-4,-3,-19,-8
1513231368986153,6,-1,3,1,-1,5,46,12
1513231369007169,-18,9,-3,-4,-3,-8,-16,-6
1513231369007169,5,-6,8,9,0,1,14,-1
1513231369008670,9,-2,-3,-2,0,2,-16,8
1513231369008670,-11,-8,-2,-2,-4,-9,-24,-1
1513231369022180,0,1,0,2,1,2,26,4
1513231369022180,4,5,2,-2,-2,-4,-47,-14
1513231369023691,-7,-3,-14,0,-3,-3,-8,-8
1513231369023691,0,-9,20,3,2,2,26,2
1513231369045201,14,14,1,-2,-3,-1,-2,4
1513231369045201,-2,-5,-6,-3,0,-1,0,4
1513231369046707,18,2,-3,-5,-3,-6,-2,-15
1513231369046707,-5,-11,-13,-5,-3,-4,-9,5
1513231369067212,7,-2,2,2,-1,0,-3,-5
1513231369067212,-6,-10,6,9,-1,0,18,7
1513231369068712,-8,5,3,-13,-2,-1,-1,-7
1513231369068712,11,5,0,1,1,4,16,18
1513231369081721,-21,-8,-8,-2,-1,1,12,-19
1513231369081721,-6,-2,1,4,-1,-1,5,2
1513231369083726,-11,-3,-8,3,0,1,2,-1
1513231369083726,-7,-12,-8,0,-1,-1,-17,-9
1513231369111745,-7,0,4,2,0,3,14,11
1513231369111745,14,2,-6,-3,-2,0,-3,-6
1513231369113747,-8,2,5,4,1,-4,-15,-9
1513231369113747,-10,2,7,1,0,0,7,-8
1513231369127256,9,4,-9,-5,-4,-6,-28,8
1513231369127256,1,-12,-15,-13,-1,-2,10,-1
1513231369128754,-6,2,14,4,-2,-2,11,1
1513231369128754,13,0,-8,-1,0,-3,-19,-8
1513231369142264,-11,-19,-8,-2,-1,-2,-10,-5
1513231369142264,-5,27,22,8,1,2,4,7
1513231369143768,19,-23,-29,-8,-4,-4,-14,3
1513231369143768,-7,26,7,-1,-1,0,5,2
1513231369164282,-5,-24,-15,0,1,2,6,-8
1513231369164282,5,16,10,-7,0,1,-4,5
1513231369166280,-10,-14,-20,-6,-5,-2,-4,-10
1513231369166280,-17,-23,-2,2,0,1,8,2
1513231369186795,12,12,-2,-4,-2,0,-10,-5
1513231369186795,-3,6,9,9,-1,0,10,-1
1513231369188796,-3,-3,12,1,1,-1,-5,-2
1513231369188796,-2,2,-17,-6,-2,2,30,12
1513231369209325,42,38,20,0,1,-1,-55,-12
1513231369209325,-40,-33,-20,-1,-5,-6,1,-11
1513231369211313,-1,9,19,15,4,2,-8,-15
1513231369211313,3,-5,-19,-25,-5,0,-14,16
1513231369231827,-27,0,5,-2,0,-1,-13,-4
1513231369231827,21,35,6,-1,1,5,33,7
1513231369233332,-5,-34,4,6,2,1,-40,-5
1513231369233332,-10,-2,3,0,-3,-6,-4,-12
1513231369246860,4,21,0,1,-1,2,38,16
1513231369246860,-9,-18,2,0,-2,-7,-59,-10
1513231369248839,20,-8,-28,-4,-5,-2,10,9
1513231369248839,7,12,8,0,-3,-1,-1,1
1513231369261351,-5,-12,-3,-7,-2,0,10,-7
1513231369261351,2,27,5,5,-1,0,9,1
1513231369268355,3,10,0,-10,3,2,10,-4
1513231369268355,6,16,-11,-6,-6,-3,-1,-4
1513231369284364,-4,-35,6,0,-3,-4,-15,1
1513231369284364,7,4,-8,6,4,4,19,6
1513231369285865,-34,-11,-7,-3,-5,-5,17,-1
1513231369285865,-12,5,-8,-3,1,7,30,2
1513231369306880,-5,22,15,6,0,-3,-44,-25
1513231369306880,9,-22,1,-10,0,0,-5,6
1513231369308381,-7,-5,-8,-6,-3,2,22,-1
1513231369308381,13,-8,7,3,0,-5,-25,-6
1513231369321393,-20,4,-4,2,-4,-3,7,-17
1513231369321393,3,-26,8,7,1,1,3,6
1513231369327898,-2,10,-9,-10,-3,-2,-18,-11
1513231369327898,-9,10,11,-1,2,1,-6,-12
1513231369344424,-7,-56,-46,-11,-6,-6,8,6
1513231369344424,-6,-23,-10,-7,-5,-3,0,-1
1513231369345908,-9,20,32,14,6,4,-1,-3
1513231369345908,11,26,-12,-2,-2,-3,0,26
1513231369366924,14,-10,-16,-2,2,3,-18,1
1513231369366924,2,43,15,0,-1,1,10,-3
1513231369368424,-10,-35,-27,-15,-11,-8,-19,1
1513231369368424,-6,11,8,-6,-2,-2,-9,-13
1513231369389438,4,-2,11,-1,-1,0,28,11
1513231369389438,-2,-20,-16,-2,-2,-5,-19,-19
1513231369390939,-3,-43,7,10,2,2,-3,14
1513231369390939,17,40,28,1,-1,-2,13,-3
1513231369404451,-8,-30,-31,1,-1,-1,1,10
1513231369404451,25,57,13,6,4,2,29,6
1513231369405950,-19,-15,11,0,-2,-5,-47,-39
1513231369405950,-5,23,20,8,2,1,1,-2
1513231369427041,3,-11,0,10,3,4,15,-11
1513231369427041,14,33,-5,-5,-1,-4,-17,2
1513231369428524,20,36,34,7,1,0,17,20
1513231369428524,-21,-63,-40,-3,-2,0,2,0
1513231369442034,0,42,38,8,3,-1,-13,-7
1513231369442034,-10,-45,-51,-21,-10,-5,14,3
1513231369449539,23,79,-3,-15,-4,-2,9,15
1513231369449539,-13,-68,-1,11,1,-1,-15,-10
1513231369464610,-1,64,17,-7,-5,-2,15,14
1513231369464610,-9,-12,-8,6,2,4,21,3
1513231369466103,8,-55,17,9,4,-2,-49,-14
1513231369466103,-9,-16,5,-15,1,9,30,24
1513231369487110,18,58,-13,-1,-4,-10,-26,-13
1513231369487110,-11,-63,13,6,2,3,-17,0
1513231369488614,-23,-23,-14,-11,-4,-5,9,-19
1513231369488614,27,30,-3,1,2,1,0,23
1513231369509620,8,-12,9,-1,1,3,5,8
1513231369509620,-2,20,34,-1,-1,1,8,-32
1513231369511118,-21,6,-31,-1,-3,0,4,6
1513231369511118,8,-38,-14,1,-2,-2,0,5
1513231369524631,-16,7,19,5,1,-1,7,-15
1513231369524631,15,20,-23,-16,-10,-5,9,14
1513231369526129,-6,-33,-6,-5,1,3,-4,-12
1513231369526129,-19,-32,3,-3,-3,-4,-7,-8
1513231369547165,19,-31,-34,-7,-4,-1,3,9
1513231369547165,-19,61,-9,-2,-4,-2,-8,7
1513231369548646,28,23,14,3,-1,0,15,8
1513231369548646,-5,-7,-17,4,2,-2,-8,-19
1513231369560656,-24,-62,-1,-1,-3,-3,-5,0
1513231369560656,-20,-39,-8,-8,-1,0,-3,6
1513231369569659,36,60,14,0,2,-4,14,5
1513231369569659,-3,17,-10,-17,-12,-4,7,1
1513231369584180,17,-18,1,7,6,2,-26,-3
1513231369584180,-10,-22,-39,-20,-8,-9,-26,-16
1513231369590684,-14,59,50,22,4,2,6,21
1513231369590684,-21,-30,-29,-2,-2,-5,5,-51
1513231369607186,19,-54,6,2,2,6,11,8
1513231369607186,10,74,33,12,3,2,1,0
1513231369608690,5,-6,-17,6,5,7,9,2
1513231369608690,-15,17,-4,6,2,0,1,26
1513231369620695,-21,-3,-6,-8,-5,-5,0,-4
1513231369620695,20,-7,8,-5,2,4,-6,5
1513231369629702,-15,-19,-19,-6,-8,-5,19,-20
1513231369629702,24,122,81,17,2,-2,1,20
1513231369644712,-33,-44,-30,9,-3,1,31,-5
1513231369644712,10,-17,-5,-5,6,-3,-53,-4
1513231369646717,-13,14,-40,-15,-3,2,27,-5
1513231369646717,6,-17,-15,-4,-2,-4,-37,12
1513231369667228,4,67,54,9,4,2,15,-23
1513231369667228,-18,-67,4,14,-7,-9,-13,-19
1513231369668739,-2,-40,-14,3,7,8,11,21
1513231369668739,-11,-26,-2,-1,7,4,-21,-40
1513231369680748,7,50,1,-8,-4,-3,30,17
1513231369680748,-4,5,15,11,3,-4,-40,-10
1513231369689748,-3,-5,6,-5,-5,-3,-6,19
1513231369689748,-8,-27,-18,1,-1,-7,-4,16
1513231369704767,-19,-3,-24,-11,-7,-2,-10,-7
1513231369704767,20,7,-3,-28,-6,-3,14,1
1513231369706269,37,68,1,14,0,-2,-12,0
1513231369706269,-29,-90,3,3,-1,1,-2,-11
1513231369726783,4,30,-4,-8,-2,2,16,44
1513231369726783,-25,-12,-9,15,2,-2,-3,-23
1513231369728773,-3,33,7,-6,-7,-7,-25,-4
1513231369728773,31,38,11,-8,0,1,13,6
1513231369740781,-34,-99,-48,-5,-3,-4,-21,-4
1513231369740781,14,48,10,-1,-4,0,28,8
1513231369749800,-4,-57,5,-1,3,3,9,5
1513231369749800,2,-57,-72,-9,-9,-4,1,-2
1513231369788324,19,34,29,-4,1,-2,-25,-22
1513231369788324,-10,-28,-9,12,3,1,18,4
1513231369789825,-13,-3,-7,-23,-6,-3,-2,4
1513231369789825,29,85,47,10,2,1,21,-10
1513231369790826,-12,-31,-19,-14,-6,-6,-38,1
1513231369790826,38,79,-7,1,-4,-5,-18,4
1513231369794819,6,60,17,8,1,-1,14,1
1513231369794819,-56,-31,16,1,-4,-2,-5,2
1513231369800824,44,30,-31,-6,1,-2,-9,-41
1513231369800824,-5,-3,47,10,6,7,0,-8
1513231369809829,9,-48,-28,-4,-1,2,42,10
1513231369809829,19,11,-1,1,-1,-4,-70,-20
1513231369824342,8,37,43,24,10,9,36,20
1513231369824342,17,-10,-23,-19,-7,-5,-40,10
1513231369825841,2,-1,1,6,7,5,-8,-12
1513231369825841,-16,-19,-16,-11,-3,1,15,5
1513231369846867,30,38,16,0,-1,-6,-18,-12
1513231369846867,1,-72,-2,5,3,4,27,12
1513231369848357,-22,45,13,-2,-3,-2,-16,2
1513231369848357,1,-9,-24,-15,-7,-1,36,5
1513231369860881,12,88,41,8,-2,1,-31,14
1513231369860881,-47,-106,-60,-15,-7,-5,22,9
1513231369869872,15,73,51,24,17,9,4,-11
1513231369869872,-3,-28,-23,-5,-6,-4,-5,-13
1513231369884384,7,-11,21,7,2,0,3,15
1513231369884384,-10,21,24,20,6,1,13,7
1513231369885895,-14,-41,-57,-30,-13,-4,21,-4
1513231369885895,19,26,56,16,11,8,-13,39
1513231369906898,-22,-77,-48,3,2,0,-14,37
1513231369906898,9,59,22,-1,-2,-3,-14,-5
1513231369908405,-29,-34,29,28,1,-1,6,-27
1513231369908405,22,14,-12,-33,-5,0,-6,1
1513231369920438,-14,-56,-9,-5,-7,-6,6,-5
1513231369920438,-9,37,-7,-20,-4,4,24,51
1513231369929445,-9,-50,-22,8,-4,-6,-26,-30
1513231369929445,9,49,-25,-11,-3,-1,26,-6
1513231369944455,-32,-46,-2,0,-3,-5,-39,-33
1513231369944455,-20,-21,-11,10,3,0,11,-27
1513231369945957,15,-23,11,-12,-9,-4,-9,8
1513231369945957,-27,20,15,30,7,4,13,5
1513231369966972,9,17,-39,-31,-7,0,15,-7
1513231369966972,20,50,43,21,5,2,-13,-10
1513231369968473,-24,-57,-13,-23,-9,-5,-9,45
1513231369968473,2,-18,-10,13,0,-3,5,-16
1513231369997005,-8,13,3,-8,-1,0,23,-19
1513231369997005,5,-48,-8,2,-1,-3,10,-16
1513231369998519,28,49,35,19,5,1,-1,-7
1513231369998519,-42,-11,-70,-24,-9,-3,-8,-11
1513231370004506,15,87,43,14,3,2,1,8
1513231370004506,-5,-3,-9,-11,-3,0,26,-1
1513231370005999,5,-19,-22,-1,2,2,-7,4
1513231370005999,5,13,47,9,1,-2,-3,-3
1513231370027040,-1,12,-6,10,5,7,35,22
1513231370027040,8,12,-7,-23,-6,-6,-39,-10
1513231370028515,12,-6,-8,-5,0,0,-5,2
1513231370028515,-6,23,22,1,-5,-4,-15,-9
1513231370049531,5,-31,-30,-11,-4,-5,2,2
1513231370049531,-37,-43,-61,-38,-15,-6,-2,45
1513231370051032,0,18,45,19,6,-2,-20,-61
1513231370051032,27,44,7,-4,-2,-2,-12,-11
1513231370065128,-6,26,34,8,1,0,13,-11
1513231370065128,-3,24,-11,8,-1,3,-9,0
1513231370066624,15,58,5,-17,-7,-6,-11,4
1513231370066624,-4,-31,-10,-7,1,3,24,7
1513231370087638,-10,-38,17,19,6,2,10,5
1513231370087638,22,41,13,18,6,1,-11,-6
1513231370089141,-33,-54,-31,0,-3,-4,-8,6
1513231370089141,19,-6,4,10,7,9,31,12
1513231370109655,-18,16,-13,-32,-9,-8,-51,-5
1513231370109655,15,-22,5,17,1,-1,-4,-8
1513231370111154,-5,-3,-17,-9,-3,-2,5,6
1513231370111154,19,-34,-15,5,4,3,2,11
1513231370123726,-12,11,9,-6,-10,-5,-1,-3
1513231370123726,-17,-53,-33,-10,0,-2,12,-13
1513231370130728,19,19,6,4,-3,-1,-14,15
1513231370130728,-12,5,-24,-13,-9,-8,-14,-10
1513231370146739,14,63,39,10,0,0,6,12
1513231370146739,-20,-62,-22,-15,-2,-3,11,-2
1513231370148741,0,1,-5,-6,2,2,-24,-7
1513231370148741,1,-41,-2,12,1,-4,-10,6
1513231370169287,-3,-35,-25,-6,1,1,-8,-14
1513231370169287,-9,10,20,6,4,9,37,31
1513231370170788,18,9,0,0,-2,-4,-26,-66
1513231370170788,-10,15,44,5,-1,0,-3,4
1513231370183798,6,-74,-37,4,0,-3,1,-14
1513231370183798,-27,25,2,9,6,6,5,-22
1513231370190802,-17,-58,-17,-2,-2,-3,28,24
1513231370190802,8,46,30,2,-6,-7,-51,-5
1513231370206312,-39,-26,-5,-7,-1,0,-7,-27
1513231370206312,-4,28,14,-6,-2,-4,-9,-13
1513231370222325,-13,-11,8,12,0,0,12,10
1513231370222325,3,17,2,5,2,1,3,-1
1513231370229329,-6,-53,-27,-13,-3,-3,22,21
1513231370229329,16,4,-3,-4,-6,-5,-20,-7
1513231370235334,-22,-10,-15,-14,-4,-3,2,0
1513231370235334,35,-16,26,16,2,2,10,-1
1513231370243842,4,20,-16,-12,-8,-2,-5,10
1513231370243842,-11,-1,14,-1,1,-1,-7,-16
1513231370250844,19,13,30,24,10,9,16,3
1513231370250844,-38,-47,-37,-14,-3,-4,-5,5
1513231370267357,3,45,5,-6,0,-1,14,-1
1513231370267357,12,0,6,2,1,0,-8,1
1513231370268356,3,8,-9,-8,-3,-1,-4,21
1513231370268356,-6,-43,1,11,3,0,14,-3
1513231370289389,11,28,6,6,-1,1,12,-1
1513231370289389,21,9,36,15,3,2,-13,27
1513231370290876,-27,-16,-47,-25,-6,-1,25,-6
1513231370290876,-8,17,10,-1,-1,0,-15,-13
1513231370303900,-26,-90,-36,1,1,0,6,-10
1513231370303900,18,57,-10,-11,-7,-8,-13,5
1513231370310888,17,101,40,5,0,0,36,22
1513231370310888,-18,-37,-60,-10,-2,0,-8,-6
1513231370326899,-19,93,16,9,-1,-4,-20,-8
1513231370326899,-10,-3,-24,-18,-2,2,3,-15
1513231370328408,8,-55,-17,-6,-1,2,9,19
1513231370328408,-16,4,6,-5,0,-2,6,-11
1513231370349414,17,24,34,11,3,0,-1,16
1513231370349414,10,-16,-21,-4,-3,4,67,15
1513231370350916,2,8,10,6,-3,-16,-102,-51
1513231370350916,-5,-18,7,-12,-2,-2,13,-1
1513231370363924,1,-31,4,15,2,-2,1,2
1513231370363924,-3,33,9,-4,-1,1,-5,-9
1513231370370429,-9,-35,-25,-3,-2,2,-2,12
1513231370370429,13,54,35,6,1,0,2,1
1513231370386942,15,-29,-7,-12,-5,-3,-18,8
1513231370386942,-32,-17,8,9,3,-1,2,-16
1513231370388459,0,-17,1,-13,-9,-4,6,2
1513231370388459,-4,46,12,0,-3,-4,-8,-6
1513231370409481,9,-7,-20,-5,2,3,20,15
1513231370409481,4,42,0,-5,-4,-6,-14,-9
1513231370410958,-1,54,28,10,5,6,4,-2
1513231370410958,-16,-108,-32,0,-1,-2,1,9
1513231370423966,14,6,-19,-6,-2,-2,-8,-10
1513231370423966,16,-4,25,-3,-3,-3,-16,-6
1513231370430471,-37,-70,-31,-19,-4,-4,1,16
1513231370430471,51,15,-30,-15,-7,-2,17,-46
1513231370447483,-13,44,36,4,0,-1,10,5
1513231370447483,-1,-75,-19,19,2,-4,-11,3
1513231370448994,-10,-6,-10,-8,-6,-2,17,-16
1513231370448994,-5,-1,-2,0,1,2,-8,7
1513231370477019,-5,-60,-17,-5,-4,-3,4,-6
1513231370477019,20,78,13,1,3,1,16,-7
1513231370478505,3,-26,2,4,1,-2,-29,-5
1513231370478505,4,30,-6,0,-1,-1,22,29
1513231370483008,-4,45,10,-9,0,2,-48,-41
1513231370483008,-25,-52,-29,5,-4,-8,19,29
1513231370492028,-12,-16,-21,-9,-2,2,-7,-16
1513231370492028,4,5,24,15,5,7,15,15
1513231370506525,20,-58,-7,-2,-1,-8,17,-3
1513231370506525,-5,-69,-19,-11,-4,-2,-2,14
1513231370513032,-3,3,-9,6,-2,-6,0,-23
1513231370513032,-6,10,-1,-13,-2,-1,-18,-15
1513231370529541,-38,15,28,5,-1,3,8,4
1513231370529541,3,-13,-2,-3,-3,-3,-17,-8
1513231370531052,18,20,6,10,5,-1,23,18
1513231370531052,4,48,26,8,-2,-1,6,-2
1513231370543050,-3,2,-14,-19,-2,3,-4,-3
1513231370543050,3,-39,11,5,3,1,-12,6
1513231370552058,-12,46,35,12,5,3,4,4
1513231370552058,15,32,8,-4,-1,0,0,13
1513231370567127,14,35,16,11,5,1,3,6
1513231370567127,8,-20,40,14,5,4,-4,10
1513231370568633,21,21,-28,-12,-7,-3,-5,5
1513231370568633,-35,-49,-72,-25,-6,-7,-18,-28
1513231370589643,14,-19,-1,19,3,2,30,22
1513231370589643,-4,32,-3,-12,-2,-5,-67,-35
1513231370591144,23,13,19,6,4,5,-4,6
1513231370591144,-35,-2,18,7,-4,-9,2,-27
1513231370603153,-7,-27,-28,-21,-4,-2,-39,-4
1513231370603153,10,11,-9,1,0,-2,17,0
1513231370619664,1,-13,34,-1,-1,2,14,29
1513231370619664,27,45,-20,-16,-6,0,-14,9
1513231370627183,-6,-25,-17,1,-4,-7,9,10
1513231370627183,1,32,17,0,-3,-3,-3,-47
1513231370628671,-15,-4,-26,-5,-5,-4,-6,9
1513231370628671,7,-57,18,7,2,0,0,5
1513231370649685,-28,10,11,5,-2,1,3,-27
1513231370649685,25,21,-1,7,4,4,7,12
1513231370651187,0,-4,-32,-29,-6,0,16,14
1513231370651187,14,36,72,20,9,3,0,17
1513231370663198,22,30,-64,-16,-3,-6,-19,7
1513231370663198,-27,-50,-4,12,1,-2,1,-10
1513231370672202,-23,18,-18,-8,-3,-4,-6,-18
1513231370672202,6,-9,-2,-7,-2,-1,5,24
1513231370686212,-4,18,16,4,-4,-5,-12,-11
1513231370686212,-8,-11,9,6,2,4,65,26
1513231370687214,16,21,16,9,8,-3,-55,-4
1513231370687214,-21,-76,-75,-23,-10,-4,-4,-1
1513231370708727,5,27,35,8,-1,-1,7,-15
1513231370708727,-6,-1,-24,-8,-5,-3,-13,-17
1513231370709729,-17,-39,-7,3,-7,-4,16,-9
1513231370709729,14,14,5,7,4,-2,-7,-14
1513231370739749,11,-13,2,-11,-1,0,-5,7
1513231370739749,-6,13,5,-2,-1,2,-6,16
1513231370740259,0,29,0,5,2,3,19,-5
1513231370740259,-9,1,21,-6,3,2,-19,-1
1513231370754259,-1,1,-29,-6,-5,-2,3,0
1513231370754259,-7,67,-18,-31,-12,-8,-17,13
1513231370755260,35,-5,12,4,-1,-6,-1,-21
1513231370755260,-5,3,8,12,4,5,32,6
1513231370768805,20,29,13,3,2,3,-14,10
1513231370768805,-36,-40,-28,5,2,1,-3,-32
1513231370769805,8,-18,-7,-7,-2,1,-11,9
1513231370769805,12,-3,-9,6,-3,0,17,33
1513231370791335,-15,-53,14,-11,2,1,-1,-16
1513231370791335,-8,-54,-30,-1,-3,-3,-1,3
1513231370791838,-14,2,13,-1,-3,-3,0,-27
1513231370791838,-10,-15,19,19,3,-1,-5,-5
1513231370806356,9,34,-18,-17,-6,-1,11,40
1513231370806356,18,7,31,11,6,6,45,14
1513231370806834,-12,19,4,-16,-3,-7,-53,-5
1513231370806834,12,38,31,18,4,0,-16,-13
1513231370828923,-3,-7,1,9,3,1,-1,-8
1513231370828923,-9,7,-6,-10,-4,-1,8,14
1513231370829862,6,-14,24,15,2,3,18,-7
1513231370829862,1,53,-22,0,5,2,2,-3
1513231370851367,2,-40,-12,2,0,3,0,-4
1513231370851367,21,22,40,9,3,-3,-27,5
1513231370851876,-9,11,-26,-5,0,4,13,-7
1513231370851876,-12,-19,6,2,-1,-4,-14,-12
1513231370866374,10,-5,-15,-10,-5,-2,18,20
1513231370866374,-3,-28,13,-2,-2,-4,-19,-17
1513231370866875,-12,8,14,10,3,0,-1,-15
1513231370866875,-5,-51,-60,-17,-7,-5,-6,-6
1513231370888899,-21,-11,-13,3,-1,-3,8,8
1513231370888899,5,22,-15,-7,-1,2,-1,2
1513231370889391,-14,-7,9,9,4,2,2,4
1513231370889391,-8,0,4,-8,-2,1,16,-6
1513231370911440,21,39,36,4,0,0,-27,-17
1513231370911440,-7,17,-29,-5,-5,-5,-11,25
1513231370911906,7,-24,18,11,1,-3,8,-44
1513231370911906,-14,-29,-14,-15,-4,-5,-19,-7
1513231370926426,-26,-37,-21,9,3,3,29,6
1513231370926426,27,28,16,-17,-7,-7,-52,-29
1513231370926927,-10,-73,-43,-3,-2,-4,5,21
1513231370926927,12,11,10,4,1,1,-1,3
1513231370948942,-10,-4,20,0,-3,-4,-4,-14
1513231370948942,-7,-39,5,18,-3,-4,2,2
1513231370949433,-2,27,-5,-10,-1,4,25,27
1513231370949433,10,16,-6,-18,-8,-7,-4,-1
1513231370971449,10,0,-8,3,6,4,9,4
1513231370971449,2,9,22,10,5,3,7,0
1513231370971949,-6,16,-7,-10,-4,0,-11,10
1513231370971949,0,-53,-15,-7,-7,-7,7,-5
1513231370987460,13,54,4,5,3,-1,-39,-14
1513231370987460,-25,-10,2,5,0,-2,-1,-11
1513231370988474,16,12,17,-17,-2,3,13,11
1513231370988474,-17,-45,-45,9,0,-2,-18,-9
1513231371008497,-10,-11,4,-11,-3,0,8,-12
1513231371008497,24,20,-11,-12,-7,-6,-6,-6
1513231371015990,7,-10,33,15,0,1,-3,23
1513231371015990,0,63,31,5,3,8,29,105
1513231371030990,8,-21,-28,7,1,-5,-24,-43
1513231371030990,-12,-74,-40,-10,-7,-4,21,11
1513231371031992,-16,-64,-24,-8,-1,-5,-10,-16
1513231371031992,16,24,14,3,-3,-2,-29,-17
1513231371046076,0,5,14,3,1,1,34,19
1513231371046076,-12,-9,3,0,1,-4,-42,-11
1513231371047083,17,31,-2,1,2,2,12,-8
1513231371047083,12,16,7,1,-2,-1,-6,-15
1513231371068576,-31,-21,13,-6,-6,-4,-8,-11
1513231371068576,13,63,3,-6,-2,4,47,16
1513231371069577,10,9,-34,0,1,1,-39,-11
1513231371069577,-1,-2,-11,-1,0,-1,3,-4
1513231371091104,21,4,10,-3,0,2,12,4
1513231371091104,-11,-2,-22,-10,-2,1,3,13
1513231371092093,-13,36,36,15,4,3,23,-2
1513231371092093,-16,-22,-44,-21,-5,-6,-27,-20
1513231371106112,8,-36,10,14,2,0,2,4
1513231371106112,9,81,1,9,2,0,0,-9
1513231371107104,-9,-38,-6,-21,-9,-8,-12,13
1513231371107104,0,-3,11,10,3,6,12,-11
1513231371128619,12,4,-39,-22,-8,-4,-5,1
1513231371128619,5,-37,-10,-1,-2,0,-7,38
1513231371129620,7,23,17,13,5,0,1,-4
1513231371129620,-12,14,9,0,0,-1,32,-10
1513231371151134,-11,1,17,8,0,-2,-19,21
1513231371151134,10,29,12,-9,-3,0,-35,-19
1513231371152136,3,11,-25,-15,-7,-3,5,15
1513231371152136,-34,-40,19,6,2,0,-5,-12
1513231371174154,14,33,-5,3,-3,-2,10,-47
1513231371174154,-23,-44,-36,-28,-8,0,17,-4
1513231371175152,6,11,10,17,4,3,2,9
1513231371175152,-31,38,-13,-9,-3,-4,-8,-24
1513231371188674,-12,-31,8,6,4,3,-20,28
1513231371188674,-13,-2,-14,1,-5,-9,5,-21
1513231371189674,9,-9,27,5,-1,0,20,-2
1513231371189674,13,17,-8,-21,-3,-3,-29,-8
1513231371211180,-16,-61,-3,4,3,0,9,15
1513231371211180,23,-1,35,19,7,3,2,13
1513231371212178,16,-16,-6,-11,-4,-4,-5,1
1513231371212178,21,14,8,19,6,2,7,-23
1513231371226245,8,56,-18,-18,-8,-4,7,16
1513231371226245,-4,-15,43,5,2,3,0,-3
1513231371227188,-26,-26,-66,-5,-10,-11,-3,-23
1513231371227188,23,14,35,-5,0,1,4,20
1513231371257710,-4,-8,7,4,3,6,33,60
1513231371257710,-21,4,-21,-13,-10,-10,-50,-53
1513231371258211,12,4,-19,-6,-1,-2,-7,7
1513231371258211,6,-14,21,8,-1,1,9,19
1513231371271219,-39,-14,14,5,-1,-4,15,-2
1513231371271219,7,1,-25,-11,2,4,25,18
1513231371271719,-28,-59,14,9,0,-4,-51,11
1513231371271719,13,29,-17,-11,-4,-4,-9,-9
1513231371286230,-10,7,-4,-3,1,4,3,-13
1513231371286230,-16,0,32,18,5,3,27,3
1513231371286730,2,7,-26,-25,-5,-2,-25,-11
1513231371286730,-9,-83,-10,3,-5,-2,8,-11
1513231371308758,18,53,41,10,3,-1,-21,11
1513231371308758,6,-30,-8,-8,-3,-3,3,23
1513231371309250,-5,10,-55,-8,-1,1,13,6
1513231371309250,-12,-17,-1,0,-3,0,21,-9
1513231371331774,17,-14,-9,-4,-4,-6,-49,-41
1513231371331774,0,31,29,1,-2,-1,-1,-4
1513231371332764,7,17,49,26,7,0,18,6
1513231371332764,-10,45,-26,-13,-2,0,-8,33
1513231371346284,-11,-18,-7,-1,-4,-4,9,5
1513231371346284,-4,-63,-19,-6,1,2,5,-14
1513231371346775,-2,38,27,-7,-6,-4,-14,-24
1513231371346775,2,47,-13,11,4,1,5,4
1513231371368799,-25,-29,-13,-12,-8,-4,20,6
1513231371368799,15,28,24,22,6,3,-8,-8
1513231371369789,-1,36,19,-26,-7,-3,38,17
1513231371369789,-7,-25,15,16,4,2,-15,-10
1513231371391315,18,21,-23,-13,-1,-2,3,-23
1513231371391315,-7,-3,-12,-6,-4,-1,-3,-7
1513231371391805,13,-3,19,22,4,6,6,2
1513231371391805,9,27,24,-10,-6,-5,2,-16
1513231371406315,-6,-1,-27,-2,-1,0,-6,-11
1513231371406315,8,7,12,12,1,-1,8,8
1513231371406815,-17,41,-25,-26,-7,-4,-8,6
1513231371406815,5,3,29,15,3,0,-4,-7
1513231371428939,-2,0,7,-13,-3,1,-2,5
1513231371428939,-1,-17,-33,-10,-2,-4,-9,-1
1513231371429439,6,29,32,21,5,3,15,-2
1513231371429439,2,-23,-28,-10,-5,-5,-17,-7
1513231371451458,3,-40,-4,4,1,-1,27,-1
1513231371451458,-1,-39,-45,-8,-3,-5,-19,8
1513231371452458,4,12,19,3,-2,-3,-10,-15
1513231371452458,-17,-19,12,2,1,1,31,23
1513231371465480,8,39,-13,5,0,-4,-53,-32
1513231371465480,8,-15,22,-1,-3,-1,4,13
1513231371473971,-7,-23,-28,2,-3,-3,3,2
1513231371473971,2,-44,-9,-11,1,3,-5,39
1513231371488981,0,-7,-13,-8,-9,-8,-4,-26
1513231371488981,-12,30,3,-2,0,1,3,-23
1513231371489483,-14,-30,-17,3,1,1,2,-5
1513231371489483,19,80,29,27,3,-1,-7,6
1513231371511498,-4,-30,-4,-19,-2,-1,9,18
1513231371511498,-4,27,-4,-2,-3,-2,-4,10
1513231371512007,20,-40,-12,-4,-1,1,1,5
1513231371512007,-14,-35,-7,-9,-3,-1,-4,-14
1513231371525508,-1,42,14,17,6,4,4,-13
1513231371525508,-14,26,12,-6,-4,-5,1,1
1513231371533531,-2,-21,17,19,5,1,12,0
1513231371533531,-2,-8,-31,-16,-4,-3,-32,-3
1513231371548548,-13,-54,-2,2,-4,-3,-14,-7
1513231371548548,18,3,2,2,2,3,13,6
1513231371549527,-12,21,12,3,-2,-2,-8,5
1513231371549527,9,20,-6,-16,-9,-6,-3,-22
1513231371578677,-10,9,8,2,5,5,4,13
1513231371578677,-14,-59,-33,-16,-7,-5,2,-18
1513231371586640,0,14,9,2,-1,-4,-4,-7
1513231371586640,10,-29,-26,-9,-5,0,1,-1
1513231371588643,-4,29,3,-3,-3,-2,-2,-2
1513231371588643,-11,3,15,12,2,0,1,4
1513231371593634,13,-26,-32,-15,-3,-1,0,24
1513231371593634,-6,40,22,3,0,2,4,-17
1513231371608653,-18,13,3,8,1,-3,-6,-7
1513231371608653,11,10,5,1,1,3,16,5
1513231371609644,-1,3,4,-19,-1,-2,11,-3
1513231371609644,-22,11,19,14,4,1,8,-16
1513231371631159,5,-69,-32,-2,-2,-3,14,44
1513231371631159,40,7,0,14,4,0,-14,-63
1513231371632160,2,24,-10,0,-2,3,11,3
1513231371632160,0,-6,-15,-11,-1,-2,6,3
1513231371645669,3,-7,21,6,0,-1,11,20
1513231371645669,17,71,33,15,3,0,-5,2
1513231371653675,4,-31,10,-13,-2,-1,-9,0
1513231371653675,-5,-15,-46,-9,-4,-2,-12,-22
1513231371668686,14,31,-4,14,5,4,1,-12
1513231371668686,-22,-2,-10,-14,-4,-2,0,36
1513231371669687,1,17,24,16,5,2,-9,-25
1513231371669687,9,33,23,-7,-6,-5,1,2
1513231371691716,3,1,-4,-9,-7,-3,4,8
1513231371691716,-15,-9,4,4,3,1,-6,0
1513231371692202,-31,-11,-10,2,-1,-4,-18,-5
1513231371692202,7,11,25,-4,-1,-2,6,9
1513231371705713,-4,-19,-29,-9,-2,0,-1,-15
1513231371705713,6,8,32,8,1,-1,-1,11
1513231371713721,0,-27,-40,-9,-3,-4,9,30
1513231371713721,5,-5,3,17,-2,-4,-11,-54
1513231371729229,-12,6,-6,-19,-1,2,0,-8
1513231371729229,-19,-23,-3,-2,-1,4,9,-4
1513231371729729,11,-4,0,0,-2,0,9,14
1513231371729729,-32,-36,-5,10,3,3,-11,-39
1513231371751745,14,19,2,2,-3,-3,11,36
1513231371751745,-15,-20,-41,-25,-8,-11,-30,37
1513231371752746,-12,2,-9,4,1,0,-17,-41
1513231371752746,11,-16,-3,-5,0,2,43,31
1513231371765757,-25,-5,-2,-3,-7,-9,-60,-57
1513231371765757,-9,32,-1,-4,-3,-4,5,4
1513231371781265,-4,-35,5,5,1,0,-18,-2
1513231371781265,-8,-50,-26,1,2,4,55,22
1513231371788771,-9,-20,-9,-10,-2,-2,-34,5
1513231371788771,2,21,27,5,-2,-2,-15,-14
1513231371789271,-3,-26,-30,-1,-3,-3,-14,1
1513231371789271,2,-17,2,-1,0,-3,-20,-58
1513231371811790,0,7,30,7,3,3,23,26
1513231371811790,23,-19,-41,-2,5,5,4,-7
1513231371812791,0,63,31,2,-3,-1,9,-18
1513231371812791,2,-8,-3,1,4,2,3,39
1513231371825797,-6,34,18,18,4,0,-7,-14
1513231371825797,14,5,-2,-1,6,4,6,-9
1513231371833855,-2,18,23,7,-1,-3,12,5
1513231371833855,15,24,8,5,-2,-6,-30,11
1513231371848877,21,2,18,-8,-1,-2,6,-11
1513231371848877,-2,10,-10,-8,-3,2,10,14
1513231371849356,-38,-74,-19,7,-3,-5,-9,-30
1513231371849356,13,29,-17,-21,-2,2,0,14
1513231371872427,15,-21,17,3,0,-1,3,-27
1513231371872427,-38,-24,7,7,-3,-5,-4,-9
1513231371872907,47,1,-16,-12,-3,1,23,27
1513231371872907,-22,19,-13,1,1,-1,-25,48
1513231371894432,21,11,4,-7,-1,-2,-38,-36
1513231371894432,-5,31,12,5,1,0,26,23
1513231371895425,-1,-4,4,4,0,-2,-22,-20
1513231371895425,-8,1,46,17,4,3,9,11
1513231371908933,-3,-8,-36,-4,1,2,20,27
1513231371908933,-15,-26,-7,-6,-5,-3,-19,-18
1513231371909934,-12,22,-17,-14,-7,0,24,26
1513231371909934,-2,-81,-17,-11,-5,-6,-12,-22
1513231371931950,1,97,24,13,2,0,4,15
1513231371931950,19,6,8,-5,-5,-5,23,0
1513231371932950,7,4,-18,-11,2,-1,-44,-1
1513231371932950,5,2,17,7,1,2,-4,2
1513231371954466,-4,-56,-45,-9,-11,-9,14,-23
1513231371954466,-5,-3,-39,4,5,4,2,16
1513231371955466,-4,-82,10,7,-1,-3,3,-6
1513231371955466,7,106,13,-6,-3,-5,2,-12
1513231371968476,-10,-41,-2,-1,1,0,8,0
1513231371968476,8,-19,2,1,1,5,-1,18
1513231371969476,-28,-14,11,6,0,-3,15,-9
1513231371969476,6,-17,-10,-3,-2,-6,-38,-9
1513231371992001,-13,32,28,-4,0,3,55,8
1513231371992001,-7,-5,-3,3,2,-2,-80,-21
1513231371992492,16,-5,-21,-12,-5,-2,16,3
1513231371992492,-21,-2,-11,4,2,2,11,12
1513231372014511,2,9,-14,-12,-5,-3,-11,8
1513231372014511,2,19,33,6,3,1,3,-16
1513231372015008,14,17,14,-5,-3,-1,9,3
1513231372015008,22,-17,-20,-9,-6,-4,-7,-18
1513231372028538,-9,-76,-40,19,5,1,7,15
1513231372028538,-19,16,6,-23,-5,-4,-25,-53
1513231372029538,7,40,3,-3,6,4,-9,-9
1513231372029538,-20,-53,-9,-8,-6,-2,34,23
1513231372052055,12,9,22,8,6,3,-39,-12
1513231372052055,8,-3,2,14,-3,-2,20,4
1513231372052554,-9,-29,-27,-13,-5,-2,-13,1
1513231372052554,-9,-4,15,4,-2,-1,6,-6
1513231372074579,-12,22,-1,-3,-4,-6,2,19
1513231372074579,-11,-19,5,1,0,0,12,-1
1513231372075080,6,10,4,-8,-3,-3,-8,-7
1513231372075080,7,10,-19,3,-2,1,-4,12
1513231372097087,-1,3,0,-10,2,2,23,-2
1513231372097087,39,25,14,-5,-3,-6,-5,44
1513231372097587,-30,0,9,14,5,1,-20,-33
1513231372097587,4,-9,10,-5,-3,-3,-18,11
1513231372111599,-3,56,36,17,3,1,-10,0
1513231372111599,11,-117,-24,0,0,3,37,45
1513231372112597,-20,61,6,-16,-4,-6,1,-62
1513231372112597,13,-45,-15,5,1,-3,-24,-8
1513231372134112,-9,-1,14,4,4,4,8,16
1513231372134112,-7,15,-18,-18,-10,-6,-4,-9
1513231372135113,3,-12,-18,7,-4,0,8,33
1513231372135113,-9,1,24,9,4,2,15,-8
1513231372148649,7,38,19,-8,-4,-2,-38,-24
1513231372148649,-13,-66,-29,-3,-1,0,4,-15
1513231372149623,18,41,19,6,3,0,-2,20
1513231372149623,-26,-65,-18,-4,0,0,-3,-17
1513231372171659,21,-3,-16,3,2,2,32,33
1513231372171659,2,56,17,2,-1,-3,-14,-28
1513231372172660,8,-11,-28,-13,-3,-4,-9,17
1513231372172660,1,39,46,15,3,1,25,26
1513231372194186,-7,10,-23,-15,-11,-10,-52,-27
1513231372194186,-1,9,14,3,3,2,-7,-20
1513231372195187,-8,-27,26,25,7,4,32,18
1513231372195187,7,41,-38,-31,-8,-6,-15,-7
1513231372208738,-27,-9,12,-3,-3,0,21,47
1513231372208738,22,66,-5,-13,-6,-4,1,-21
1513231372209235,-5,-5,8,2,-2,0,-14,2
1513231372209235,17,21,8,7,1,1,9,12
1513231372232251,-15,-22,19,12,3,3,19,25
1513231372232251,-22,-15,-32,-17,-4,-3,-5,-18
1513231372233252,23,64,42,14,9,7,14,42
1513231372233252,-33,-35,5,-8,-12,-10,-23,-62
1513231372254267,23,15,-11,-14,-8,-2,3,-12
1513231372254267,0,-84,-17,12,4,2,10,12
1513231372255268,-6,22,-9,-20,-9,-6,-3,12
1513231372255268,6,-8,-1,20,8,5,-2,2
1513231372268777,-2,21,11,-10,-2,-2,12,-12
1513231372268777,-17,13,4,8,3,0,-76,-30
1513231372269277,12,22,7,-2,-4,-4,24,3
1513231372269277,6,52,-5,-6,-1,1,6,15
1513231372291793,-15,-53,-11,8,-1,-2,-7,-22
1513231372291793,-1,-4,12,5,3,-1,19,21
1513231372292794,1,-44,5,13,6,2,9,-3
1513231372292794,-23,-40,-63,-15,-6,-4,-37,9
1513231372314312,38,14,-17,-15,-4,0,8,-5
1513231372314312,-11,32,16,1,0,-3,26,-21
1513231372315310,5,-48,-17,3,-1,-3,-23,1
1513231372315310,11,21,28,-6,-3,-2,16,-4
1513231372336838,24,32,22,15,0,0,-1,23
1513231372336838,-16,-25,-43,-22,-8,-5,4,-4
1513231372337838,-3,6,23,10,3,2,10,-13
1513231372337838,-1,-40,-18,-3,-1,-4,-10,-4
1513231372351850,5,37,-5,6,-3,-8,-13,-23
1513231372351850,-15,16,8,5,-3,0,8,22
1513231372352837,0,23,-19,-22,-4,-1,2,1
1513231372352837,7,30,16,3,3,1,0,2
1513231372381857,-17,-4,5,-9,-4,-2,-10,-14
1513231372381857,12,-44,1,7,2,1,19,38
1513231372382858,3,12,-21,-6,-2,1,-7,-12
1513231372382858,20,35,4,9,3,0,-22,9
1513231372388863,-17,-91,-13,-8,1,0,2,-15
1513231372388863,-9,72,7,1,-1,-2,4,8
1513231372389362,9,19,13,-3,-1,-1,-19,-4
1513231372389362,7,-10,0,6,2,1,7,9
1513231372411878,-4,-6,8,5,0,0,9,0
1513231372411878,-4,-33,-23,-10,-1,1,1,-3
1513231372412879,4,-35,3,2,2,-4,-18,-1
1513231372412879,-4,20,20,-1,3,6,32,7
1513231372434394,-16,2,-13,4,3,-2,-22,-24
1513231372434394,4,4,29,10,2,3,15,11
1513231372435898,-13,-39,-21,-3,-3,-1,7,-1
1513231372435898,-2,0,-1,-10,-7,-7,-9,-11
1513231372447903,-4,8,10,2,0,0,-37,-5
1513231372447903,12,43,38,15,4,1,12,-9
1513231372456409,-14,-92,-53,-24,-10,-2,23,16
1513231372456409,-13,20,4,9,1,-4,-32,-1
1513231372472449,-9,-13,-41,-21,-7,-2,11,-19
1513231372472449,9,5,18,2,-1,-2,-10,-3
1513231372472950,-8,-8,22,12,3,0,-9,-9
1513231372472950,-5,-27,-1,-9,-4,-3,26,15
1513231372494464,1,-18,-14,13,3,1,5,23
1513231372494464,-6,-10,-28,-24,-12,-9,-22,-37
1513231372494964,-1,56,5,-5,-1,-1,-12,-1
1513231372494964,-2,16,1,-2,-1,1,6,-19
1513231372507990,4,-25,3,2,-1,-1,-1,15
1513231372507990,12,6,3,6,-1,1,2,8
1513231372515982,-9,6,9,8,2,2,-2,-4
1513231372515982,11,0,-7,-2,-2,-1,4,-12
1513231372532506,12,29,7,-1,0,0,6,14
1513231372532506,-11,-59,-25,4,3,3,12,37
1513231372533506,-13,-8,-3,-9,-1,1,3,9
1513231372533506,-9,-7,-8,-23,-8,-8,-33,-16
1513231372562047,10,35,28,1,2,-1,0,-11
1513231372562047,-3,-17,1,4,3,0,-6,-1
1513231372562536,-4,10,-12,5,-2,-1,1,-7
1513231372562536,7,14,-12,3,0,3,15,17
1513231372568035,-23,-42,-12,-4,-2,1,4,2
1513231372568035,-5,50,15,-7,-7,-3,-10,1
1513231372576065,-5,-75,-17,3,-1,-4,-7,-42
1513231372576065,13,27,7,0,-2,2,30,5
1513231372599562,1,-13,-1,-6,0,-1,-49,-14
1513231372599562,7,10,-4,0,0,0,9,2
1513231372600054,3,24,8,-6,-3,-5,-14,-15
1513231372600054,10,27,35,15,4,3,5,5
1513231372614564,-17,2,-23,-3,-3,-4,5,-6
1513231372614564,-20,-37,-4,-9,-5,-6,-3,-8
1513231372615064,4,41,-3,4,1,0,-8,-5
1513231372615064,-1,-15,-15,-14,-7,-3,18,2
1513231372628097,3,-8,-11,1,-2,-5,-23,-2
1513231372628097,1,34,8,-4,-1,-3,-12,-9
1513231372636091,-9,-3,-6,-10,-4,-3,33,22
1513231372636091,8,20,9,12,5,3,-45,-24
1513231372651610,-6,54,26,0,0,4,24,2
1513231372651610,2,-19,-14,-4,-1,2,6,2
1513231372652605,-6,-10,4,8,2,1,-11,5
1513231372652605,-12,-11,-11,-3,-3,-4,11,9
1513231372682137,17,-5,14,-1,-3,-3,9,5
1513231372682137,-4,0,-25,-15,-1,-2,-16,-11
1513231372682613,3,4,10,-1,0,-1,6,4
1513231372682613,-12,-34,-3,-8,0,2,4,12
1513231372697148,-9,-19,4,9,0,0,13,24
1513231372697148,-8,-50,-18,-8,-4,-1,22,-26
1513231372697624,22,51,24,6,0,-2,-45,-10
1513231372697624,5,-45,-26,-3,-3,-2,8,6
1513231372711657,-26,-74,-35,-9,-3,0,0,-12
1513231372711657,15,6,5,10,3,3,30,16
1513231372712643,3,21,20,3,1,1,1,3
1513231372712643,-17,-32,-11,-3,-2,-1,-3,-8
1513231372734158,17,9,10,11,4,5,32,12
1513231372734158,-13,11,-6,-18,-6,-3,-7,-9
1513231372735161,-8,-60,-32,-4,-6,-5,-19,-12
1513231372735161,-6,23,-15,5,1,-1,-7,-4
1513231372757674,12,21,27,-9,-2,0,19,7
1513231372757674,-15,-19,-19,5,-2,-5,-17,-16
1513231372759176,-4,-1,4,-3,-5,-3,34,29
1513231372759176,19,89,55,17,8,1,-45,-31
1513231372771675,-18,8,-33,-22,-6,-3,-6,-4
1513231372771675,-4,-8,28,8,1,0,-9,8
1513231372772675,6,-20,2,-3,-1,-1,0,-3
1513231372772675,-20,-55,-14,1,0,-2,10,2
1513231372794225,-6,43,29,10,2,0,-10,-12
1513231372794225,-3,8,-7,-5,-2,-3,-9,-1
1513231372795725,-3,-33,-21,-2,1,1,11,6
1513231372795725,-2,-68,-33,-3,-5,-1,10,5
1513231372816741,12,16,24,8,1,0,-23,-8
1513231372816741,13,-47,-22,11,1,1,11,9
1513231372818744,-10,12,-18,-27,-7,-3,8,-12
1513231372818744,5,38,1,-6,-3,-2,-11,7
1513231372830761,4,-27,-3,6,3,-2,-8,-14
1513231372830761,-4,39,15,-3,-3,-3,7,4
1513231372839767,0,-31,2,10,4,1,-40,-18
1513231372839767,1,43,-6,-11,-7,-3,8,16
1513231372854277,0,3,21,7,2,-1,8,-7
1513231372854277,-29,35,17,9,4,0,8,13
1513231372855780,18,-18,-13,-11,-1,2,6,-4
1513231372855780,3,5,29,8,2,-2,-27,-1
1513231372876808,-4,-7,-23,-9,-3,-5,-13,-8
1513231372876808,8,41,-10,3,-2,0,30,17
1513231372878784,-18,55,3,-20,-3,-5,-56,-15
1513231372878784,8,9,10,10,1,-3,29,-2
1513231372899300,5,-35,-15,-9,-1,2,7,21
1513231372899300,-4,-24,0,0,-3,-4,-30,-23
1513231372900805,10,63,32,9,-3,-1,19,13
1513231372900805,-9,-123,-76,-4,0,3,6,-7
1513231372921815,-16,63,-6,-12,-6,-3,-5,13
1513231372921815,13,-8,-14,-12,-1,1,3,-22
1513231372923817,3,8,1,11,2,1,2,-2
1513231372923817,-10,28,27,0,-1,2,3,-3
1513231372936846,10,-22,-4,0,0,1,58,16
1513231372936846,6,-24,-19,3,-2,-3,-70,-14
1513231372938332,27,40,24,-3,-1,-3,-22,17
1513231372938332,-12,13,18,-2,-2,-1,3,-11
1513231372959360,4,-28,-13,9,4,3,-8,5
1513231372959360,14,-19,15,-1,1,-1,6,2
1513231372960843,14,88,11,6,-2,-1,21,10
1513231372960843,-16,-53,-37,-13,-6,-6,-15,-14
1513231372974365,-10,-63,7,-2,0,-1,-6,-18
1513231372974365,21,21,-24,-8,-4,-3,3,-5
1513231372975866,-22,-40,13,12,5,3,12,30
1513231372975866,-4,-27,-17,-16,-8,-2,1,-51
1513231372996869,-6,12,3,0,-3,-3,-15,-14
1513231372996869,9,2,48,17,4,2,13,8
1513231372998379,-17,-78,-62,-23,-7,-6,-2,-35
1513231372998379,13,44,35,15,1,-2,3,23
1513231373011400,7,15,-18,-8,-2,-3,-11,0
1513231373011400,-10,12,3,-7,-3,1,-9,-6
1513231373017930,-15,-55,3,6,0,0,18,3
1513231373017930,-13,25,26,11,5,1,1,12
1513231373034455,5,43,-4,1,-5,-2,-14,-12
1513231373034455,-11,-4,12,-1,3,4,20,0
1513231373035955,-10,-16,-35,2,1,0,9,-4
1513231373035955,5,50,30,10,3,2,1,9
1513231373056957,-5,-49,-37,-11,-3,1,5,5
1513231373056957,-6,-6,-6,-4,-2,-2,8,9
1513231373058459,-18,8,15,9,-2,-4,-54,-31
1513231373058459,32,8,18,4,3,1,10,2
1513231373070968,-16,29,-6,-9,-4,-2,-4,0
1513231373070968,-11,-4,1,-6,-5,-5,-2,-38
1513231373077976,12,-19,-7,-1,-1,2,14,8
1513231373077976,7,9,-17,-13,-7,-5,0,9
1513231373101996,-13,10,12,-11,0,0,24,-2
1513231373101996,7,66,13,12,1,-1,-23,11
1513231373103491,-14,-40,-35,-11,-6,-5,2,-7
1513231373103491,3,4,5,3,0,0,-6,-9
1513231373117500,-2,-2,-17,-4,-4,-2,4,0
1513231373117500,1,9,19,0,1,-1,-2,11
1513231373119002,19,14,12,15,4,5,8,9
1513231373119002,-25,-18,-12,-20,-6,-4,-3,6
1513231373131010,-5,9,-6,2,-1,-2,-16,-11
1513231373131010,15,-15,-17,-6,-1,-2,-2,5
1513231373138032,-2,8,11,3,-1,-1,6,-1
1513231373138032,-8,17,0,-6,0,1,3,1
1513231373154546,5,1,13,4,0,-3,-10,-2
1513231373154546,1,-7,4,3,-1,-2,1,6
1513231373156540,0,13,-2,-3,-2,-5,10,2
1513231373156540,2,-5,-18,-5,-1,1,-4,2
1513231373177549,6,-3,7,4,0,-2,-7,1
1513231373177549,-7,-14,-10,-2,-1,2,1,2
1513231373179044,-1,-4,7,-1,-1,-2,0,-1
1513231373179044,-4,-20,-7,0,0,-1,-2,0
1513231373191567,2,9,11,2,1,0,-3,0
1513231373191567,-1,-20,-9,-5,-3,-2,1,0
1513231373199563,3,19,2,-3,-3,-1,1,0
1513231373199563,0,-3,-1,2,0,-2,0,1
1513231373214606,7,-2,3,3,-1,0,0,1
1513231373214606,-2,-2,-8,-3,-2,0,-1,1
1513231373216077,-4,-2,4,-3,-3,-1,0,0
1513231373216077,-1,-3,-2,1,0,-2,-2,-1
1513231373236590,1,-8,1,0,-1,-2,-4,-2
1513231373236590,-2,-6,1,-3,-2,0,0,1
1513231373238590,-2,5,5,-2,-3,-1,1,-1
1513231373238590,4,-11,-2,0,-1,-2,1,2
1513231373259603,1,9,3,-1,-3,-1,-4,-2
1513231373259603,-3,-2,-2,3,3,-1,-1,1
1513231373261104,9,2,-3,-2,0,0,3,2
1513231373261104,0,3,-5,1,-1,0,-1,-3
1513231373276115,6,1,-3,-2,-2,-1,-1,-1
1513231373276115,0,3,-2,-2,-3,-1,-1,2
1513231373277614,-2,-7,-1,-1,-1,1,0,-1
1513231373277614,-4,-2,1,-1,-2,-1,-2,1
1513231373296639,-1,-1,-2,0,0,-1,0,-4
1513231373296639,-1,-10,-5,0,-1,0,0,0
1513231373298632,1,7,-2,-2,-2,-3,0,-1
1513231373298632,-3,-2,-3,-1,-1,-1,-1,0
1513231373310648,-2,-2,1,1,2,-1,1,1
1513231373310648,3,6,-2,-1,0,-1,-2,-1
1513231373319643,-10,-3,2,1,0,-2,0,-3
1513231373319643,-1,-1,-1,-3,-1,0,-2,-4
1513231373334153,0,-6,-2,-1,-2,-3,-3,-1
1513231373334153,-4,-7,1,1,-3,-1,0,-3
1513231373336175,-5,-1,-2,-1,1,-1,-1,0
1513231373336175,6,4,-4,-3,-3,-1,-2,1
1513231373357181,3,8,3,2,1,1,-2,-1
1513231373357181,1,-3,-2,-2,-2,-2,-1,0
1513231373358674,0,-1,3,-1,-2,0,0,-1
1513231373358674,-2,3,-1,-1,-1,-1,-1,1
1513231373370703,-1,-7,-4,-1,-1,0,0,-1
1513231373370703,-2,-3,-4,-3,-1,-1,-1,0
1513231373379710,2,-1,-6,-1,-1,0,-1,-3
1513231373379710,-3,-4,5,0,0,-1,0,-1
1513231373394220,0,-3,0,-1,-2,-2,-4,-1
1513231373394220,-3,-3,-2,-1,-1,1,-1,-1
1513231373395722,-2,0,-1,-2,-2,-3,-2,-2
1513231373395722,-1,-5,-3,0,0,-1,0,-3
1513231373417275,-2,-1,-1,0,-2,-2,-2,-1
1513231373417275,1,-1,-2,-3,-2,-1,-1,-1
1513231373418737,0,2,0,-3,-2,-1,-2,-1
1513231373418737,-4,-2,-3,-1,-1,0,-3,-3
1513231373430745,0,-2,0,0,0,0,-1,0
1513231373430745,-3,-1,-1,-2,0,-1,-1,-2
1513231373439752,0,-1,2,1,0,0,0,0
1513231373439752,-2,-2,-2,0,1,-1,0,-1
1513231373454762,-2,-2,-1,-1,-3,-3,-1,-2
1513231373454762,0,-1,-2,-2,-1,-1,-1,0
1513231373456764,1,-1,-1,-1,1,1,0,-2
1513231373456764,-3,-4,-2,0,-4,-3,-2,-1
1513231373476800,6,-1,-2,-5,-3,0,-2,1
1513231373476800,-3,0,-1,0,0,-4,0,-2
1513231373478779,-2,0,-2,-2,-1,-1,-2,-2
1513231373478779,-1,-2,-2,-1,1,0,0,1
1513231373490300,1,-2,0,1,0,0,0,1
1513231373490300,-1,-1,-1,0,-1,-1,-2,-3
1513231373499798,0,-1,0,-1,-2,-2,0,-2
1513231373499798,0,-3,-1,1,0,0,-2,-1
1513231373514697,-6,-1,-1,0,-1,1,0,-2
1513231373514697,-3,-2,-1,0,0,-2,-2,-1
1513231373516174,-1,-6,-3,-1,2,-1,-1,0
1513231373516174,-3,1,-2,-2,-2,-2,-1,-1
1513231373537190,0,1,0,-2,1,-2,0,0
1513231373537190,-1,-3,1,0,-2,-1,-1,0
1513231373538691,0,-2,-2,-1,-4,-3,-1,0
1513231373538691,2,-2,-2,0,0,-1,0,-1
1513231373550699,-7,1,-1,1,-2,-1,-3,-3
1513231373550699,-3,-3,-1,0,-1,-1,0,-1
1513231373567213,-1,1,0,-3,-1,-1,1,-2
1513231373567213,-1,-1,-3,-2,-1,0,-2,0
1513231373574216,-2,-2,0,0,0,-1,-1,-3
1513231373574216,1,-2,-2,-3,0,-1,0,1
1513231373575717,-3,-1,-1,-1,0,-1,-2,-2
1513231373575717,-3,-1,0,-1,0,-2,0,-1
1513231373596731,-1,-2,-2,-1,-1,-1,-1,-2
1513231373596731,0,1,-1,1,-1,-2,-2,0
1513231373598231,0,-1,-1,0,-1,0,-2,0
1513231373598231,-2,-1,0,-2,-3,-1,-1,-1
1513231373610777,-2,0,0,0,-1,-3,-2,0
1513231373610777,-1,0,-1,-2,-1,-1,0,-2
1513231373619747,0,-1,-3,0,-2,0,-2,-1
1513231373619747,0,-1,-3,-2,-2,-1,1,-1
1513231373634257,1,-4,-3,0,0,-2,0,0
1513231373634257,-1,1,-1,-3,0,0,0,-3
1513231373635762,0,-1,-1,-1,-1,-2,-2,-1
1513231373635762,-1,-3,-1,-2,-1,-2,-1,0
1513231373656797,-2,-1,-1,0,-1,-1,0,-1
1513231373656797,5,-4,-3,0,0,-1,-1,-1
1513231373659275,-5,2,0,-2,-2,-1,-1,-2
1513231373659275,-2,0,-1,-2,-1,-1,-3,-3
1513231373671283,-1,0,-3,-1,-1,-2,-3,-3
1513231373671283,-2,-3,-2,-1,0,0,0,0
1513231373679346,-1,-1,-3,-1,0,-2,-1,0
1513231373679346,1,2,0,-1,-2,-1,0,-1
1513231373694370,-2,0,0,-1,-1,0,-2,-2
1513231373694370,0,0,-1,-1,-2,0,0,-1
1513231373695858,-1,-1,-3,-2,0,-2,1,-1
1513231373695858,-2,-2,-1,-1,-3,0,-1,-1
1513231373716865,-2,0,1,0,-1,0,-1,-2
1513231373716865,-1,0,-2,-1,-3,0,-3,0
1513231373718364,-2,-2,0,-1,0,-1,1,0
1513231373718364,-4,-1,-1,1,1,1,-1,-1
1513231373739391,0,-3,-3,-1,-3,-1,-1,-1
1513231373739391,-4,-3,1,-1,0,0,0,-2
1513231373740879,0,0,0,-2,-2,0,-1,-2
1513231373740879,-1,-2,-2,-2,-1,-1,-1,-1
1513231373761952,-6,1,2,2,1,-1,0,-3
1513231373761952,-3,1,0,-3,-1,-1,-1,0
1513231373763437,0,-1,-3,-1,-2,0,-2,-2
1513231373763437,1,-2,-2,-1,-1,-2,-2,-1
1513231373776937,2,1,-2,-3,-1,-1,-3,0
1513231373776937,-2,0,-2,-1,-1,-2,-1,-2
1513231373778438,-2,0,-2,-1,-1,-1,-2,0
1513231373778438,0,0,-1,-1,1,-1,-1,-3
1513231373806961,0,1,-2,-2,-2,-1,0,-1
1513231373806961,0,-1,0,-3,-1,1,-1,-1
1513231373808459,1,-2,-2,-2,-3,-2,-1,0
1513231373808459,0,-2,0,0,0,-1,-2,-1
1513231373814466,-2,-1,0,-2,-1,0,1,1
1513231373814466,-2,-3,-1,2,-3,-2,0,-1
1513231373815964,5,-1,-3,-2,-2,-3,-2,0
1513231373815964,-5,-1,-2,0,-1,-3,-1,-1
1513231373836979,-2,0,0,-1,1,-2,-2,-3
1513231373836979,-2,-2,-1,1,-1,-1,-3,0
1513231373838480,-2,-3,-2,1,0,-2,-1,0
1513231373838480,0,-1,0,-1,-3,0,-1,0
1513231373859495,1,-3,-1,-2,-3,-1,-2,0
1513231373859495,3,-2,-4,-1,-2,-3,-1,-1
1513231373860999,-3,-1,2,1,0,0,-1,-3
1513231373860999,-1,0,-2,-2,-1,-2,1,-1
1513231373874508,-2,-1,-1,-1,0,-2,-1,0
1513231373874508,0,-1,-1,-3,-1,-2,0,-2
1513231373876007,-1,-1,-1,0,0,0,-1,0
1513231373876007,-1,0,-2,-1,0,-1,-1,0
1513231373897026,1,-3,-3,-1,-3,-2,0,-1
1513231373897026,-2,1,0,0,-1,-2,0,0
1513231373898546,-2,0,-1,-2,-2,-2,1,-1
1513231373898546,-1,-3,-1,-2,-2,0,-1,-1
1513231373919540,0,0,0,-1,-1,0,-1,-2
1513231373919540,2,-3,-1,0,-2,0,-1,-1
1513231373921045,-3,1,-1,-2,0,-2,-2,-2
1513231373921045,-1,-1,-2,0,0,-2,-1,-1
1513231373933557,-2,-2,-2,-3,-2,-2,-1,-2
1513231373933557,0,0,-2,-1,-2,-1,-1,-5
1513231373948080,1,-4,-1,0,-2,-2,1,-1
1513231373948080,-2,1,-2,0,-2,0,-1,-1
1513231373956589,-1,-1,-2,0,1,-3,-2,-2
1513231373956589,-2,-2,-2,-2,-2,-3,-2,-1
1513231373958589,-1,0,-2,-3,-1,0,-1,-2
1513231373958589,1,2,-1,-4,-1,-2,-3,-2
1513231373979580,1,-3,-1,-1,-2,1,-1,0
1513231373979580,-1,-1,-2,0,-1,0,-1,1
1513231373981081,-2,0,-2,-1,-1,-1,-1,-1
1513231373981081,1,-2,-3,-2,-2,-1,0,-1
1513231374001616,-10,2,3,0,-2,2,-1,-1
1513231374001616,-2,1,0,-1,-1,-1,-2,0
1513231374003611,-3,-3,1,-1,0,-1,-1,0
1513231374003611,-1,-2,1,0,-1,0,0,-2
1513231374016643,2,-2,0,-1,-1,-1,0,0
1513231374016643,-2,-1,-1,-1,-1,-2,-1,0
1513231374018607,-1,1,-1,0,0,1,-2,-1
1513231374018607,3,0,-3,-1,-2,-3,-1,1
1513231374040122,-1,-1,-1,-1,-1,0,0,-3
1513231374040122,-4,-1,-2,0,-1,0,-2,0
1513231374041624,-2,-1,-1,-2,-3,-3,-2,-2
1513231374041624,1,-2,-2,-1,-2,-2,1,-3
1513231374053633,1,0,-2,-1,-1,-1,0,1
1513231374053633,-1,-2,-1,-1,-1,-2,0,-1
1513231374060648,1,-3,-2,0,0,0,-1,-2
1513231374060648,-5,0,0,1,-1,1,0,-1
1513231374077149,-1,-2,0,0,-2,-2,-1,1
1513231374077149,-2,-2,0,-2,-1,-2,-1,-2
1513231374078653,-1,0,-1,-2,-1,-2,-2,0
1513231374078653,-2,-2,0,-1,-1,-2,0,-1
1513231374099186,-1,-3,-3,-1,1,-2,0,-1
1513231374099186,-3,-1,-2,-1,0,0,-3,0
1513231374105669,-1,0,-2,-1,0,-1,-1,-1
1513231374105669,-2,-3,-1,-1,0,-1,-2,-1
1513231374113676,-3,-2,0,-1,-1,0,-2,-2
1513231374113676,-2,0,0,1,0,-2,2,0
1513231374120680,-1,0,-3,-1,-1,-1,-1,-1
1513231374120680,-3,0,-2,1,0,0,-1,-2
1513231374136691,2,0,-2,-3,-2,-2,-1,-1
1513231374136691,-2,-1,-1,0,-2,1,0,-1
1513231374138692,-2,0,-2,-1,1,-2,-1,0
1513231374138692,-1,-2,-1,0,-1,0,-1,-1
1513231374159731,3,-3,-3,-2,-1,0,-1,-2
1513231374159731,-3,-1,-1,-2,-2,-1,0,-2
1513231374161229,-2,-1,1,0,0,-1,-1,-2
1513231374161229,0,-2,-1,-1,-1,-3,-2,0
1513231374173733,1,1,-3,-3,-1,-1,-2,0
1513231374173733,-1,-2,-3,0,-2,0,-1,-1
1513231374180222,-1,-1,-2,-3,-3,0,-1,-1
1513231374180222,0,-1,0,-2,-1,-1,-1,-3
1513231374196736,-1,-1,-2,-1,-1,-2,0,0
1513231374196736,1,-3,-2,-2,1,-1,-2,-2
1513231374198236,-1,-1,-1,0,-3,-4,1,0
1513231374198236,1,0,-3,-2,-2,-2,-2,0
1513231374218749,-3,-2,-3,-1,-2,0,-2,-2
1513231374218749,0,-1,-2,0,-2,0,0,-1
1513231374227254,-1,-1,0,-1,-1,1,-1,-2
1513231374227254,-1,-2,-1,0,-2,0,-2,0
1513231374232759,2,-1,-2,-3,-1,-2,0,0
1513231374232759,0,-2,-2,-2,0,0,1,2
1513231374241765,-2,-1,0,-1,1,1,0,-1
1513231374241765,-6,2,3,0,0,-1,0,-2
1513231374256779,-1,0,0,1,-2,0,-2,-1
1513231374256779,0,-3,0,0,-2,0,0,0
1513231374259278,0,-1,-1,-1,0,-2,0,1
1513231374259278,-2,-2,-3,-2,-1,-1,-2,-1
1513231374279293,-2,-2,0,0,0,-2,-1,-1
1513231374279293,-4,1,-1,-1,0,-1,-1,-1
1513231374280794,0,-2,-2,-2,-1,-2,0,0
1513231374280794,-3,0,-1,-1,-1,-1,-1,-2
1513231374292819,-2,-1,1,-2,-2,-1,0,-1
1513231374292819,1,0,-1,-1,-3,0,-2,-3
1513231374307815,0,1,0,-3,-2,-1,0,-2
1513231374307815,0,-3,-3,-2,-2,0,0,0
1513231374316818,-3,-2,-1,-1,0,-1,0,-1
1513231374316818,2,1,-2,0,0,0,-1,-1
1513231374318320,1,-1,-1,0,0,0,-3,-1
1513231374318320,0,-2,-2,-3,-1,-3,-1,0
1513231374339337,2,-3,-2,0,0,-1,1,-1
1513231374339337,-1,1,-2,-2,-1,-2,-2,0
1513231374340835,-2,-1,-3,-2,0,-1,-2,-2
1513231374340835,-1,-2,-1,-1,-1,-1,-2,-1
1513231374352880,-1,-1,-4,-1,-2,-1,-1,0
1513231374352880,-3,-2,1,-1,0,-1,0,-2
1513231374361882,0,-4,-1,-2,-2,0,-2,-1
1513231374361882,0,-3,0,-2,-1,-2,-1,-2
1513231374376895,-2,-1,-2,1,-2,-1,-1,-3
1513231374376895,-4,-1,1,-2,-1,-1,1,-2
1513231374378395,-1,1,-1,0,-2,-2,-2,-1
1513231374378395,-2,0,-1,0,2,0,0,-2
1513231374399433,1,0,-1,0,0,0,-3,-1
1513231374399433,0,-1,-1,-3,-1,0,-2,-1
1513231374400910,-3,-2,1,0,1,0,0,0
1513231374400910,3,2,-2,-2,-3,-1,-2,2
1513231374412943,-4,0,1,-1,0,0,-1,-1
1513231374412943,-1,-1,-1,0,-1,-2,-2,0
1513231374421927,0,-2,-3,0,-1,-2,-2,-2
1513231374421927,-1,2,-1,-1,-2,0,-1,1
1513231374436945,0,0,-1,-2,0,0,1,-3
1513231374436945,0,-2,-3,-2,1,-1,0,-1
1513231374438436,0,-2,-2,-1,-1,-1,-2,-1
1513231374438436,-3,-2,-3,-1,-1,-2,-1,-1
1513231374459514,-3,-2,0,-1,-1,-3,0,0
1513231374459514,-1,0,0,-1,-2,-1,-2,-1
1513231374460990,-3,-1,-1,1,-2,-1,-1,-1
1513231374460990,-1,-2,-2,0,-1,0,1,0
1513231374472995,-1,1,-2,0,-1,0,-2,-1
1513231374472995,-1,0,-1,0,-2,0,-1,1
1513231374481999,3,-3,-2,-2,-2,0,0,-2
1513231374481999,-2,1,0,-2,-1,-1,-1,-3
1513231374504514,0,-2,-1,0,0,-1,0,-1
1513231374504514,-1,-3,-2,1,0,-1,-2,-2
1513231374506015,-1,-2,0,-1,-1,0,0,-2
1513231374506015,1,-4,-2,-2,-1,-1,-1,-1
1513231374519526,-4,0,0,-1,-3,0,-2,-1
1513231374519526,-1,-1,-1,-3,-1,-1,-1,-1
1513231374521048,-2,0,0,-1,-2,0,-1,-2
1513231374521048,-1,-2,1,0,0,1,0,-2
1513231374533047,0,-2,-2,-1,-1,-3,-2,-1
1513231374533047,0,-2,-2,-1,-2,0,0,2
1513231374542061,0,5,-2,-3,0,-2,-1,-2
1513231374542061,0,-1,-2,0,-2,0,-1,0
1513231374557066,0,-2,0,-3,0,-1,0,-2
1513231374557066,-3,1,0,0,0,-1,0,-2
1513231374558553,-2,-1,-1,-2,-1,-1,0,-3
1513231374558553,-2,-1,-2,-2,0,-2,-2,-2
1513231374579569,0,0,-1,-1,0,-1,-3,-2
1513231374579569,1,-3,-1,-1,-1,-1,-1,-3
1513231374581069,-1,-4,-2,-1,-1,0,-2,1
1513231374581069,-1,-3,-2,-2,-3,-1,-1,-1
1513231374593077,-3,-1,0,1,-1,0,-1,-1
1513231374593077,-2,-1,0,-2,0,0,0,-1
1513231374602084,-3,0,-1,-1,-1,-1,-1,-2
1513231374602084,-1,-2,0,0,0,0,0,0
1513231374617105,0,-2,-1,-2,-1,0,0,1
1513231374617105,-4,-2,-1,-4,-1,-2,-1,1
1513231374618597,0,0,-3,-2,-2,-2,-3,0
1513231374618597,-2,0,-2,0,-1,0,0,-1
1513231374639110,-2,-1,-1,-2,0,-2,0,-1
1513231374639110,-2,-3,0,-2,-2,0,-2,0
1513231374641126,-7,-1,0,-1,-2,-1,-1,-3
1513231374641126,-1,0,0,-2,-1,-1,-2,-2
1513231374653133,0,-2,-4,0,-2,-2,-2,-2
1513231374653133,0,1,-1,1,-1,1,-1,-1
1513231374662127,0,-1,0,-2,-1,0,-3,1
1513231374662127,0,1,1,-2,-2,0,-2,-1
1513231374676639,-2,-2,-1,-2,-1,0,0,-1
1513231374676639,1,-1,-3,0,-1,0,-1,-2
1513231374678638,-2,-4,-1,1,-2,-1,0,-1
1513231374678638,0,2,-1,-1,-1,-2,1,-1
1513231374699180,-1,-2,-2,-1,-2,0,-2,0
1513231374699180,-3,2,0,0,-2,-1,-3,-3
1513231374701156,-1,-1,-3,1,1,-1,0,-2
1513231374701156,-2,-3,-1,-1,-1,-2,-1,-1
1513231374729674,-1,-7,-3,-1,-1,0,-1,0
1513231374729674,-2,-2,-1,-2,-3,-2,-1,1
1513231374731675,-1,-1,0,-1,-1,0,-3,0
1513231374731675,-1,-1,-3,-1,-1,-1,-2,-2
1513231374736679,-5,3,2,0,1,0,1,0
1513231374736679,0,-4,-2,-2,-1,-2,-2,-3
1513231374738680,1,-2,-1,-1,-1,0,-1,1
1513231374738680,-5,0,-1,0,-2,-1,-2,-3
1513231374759224,2,3,-1,-3,-1,-2,0,0
1513231374759224,-3,2,-1,0,-1,-1,0,0
1513231374760697,-4,2,0,0,-1,-2,0,-3
1513231374760697,-2,-3,-2,0,-1,0,-1,-2
1513231374782211,-1,0,-1,-1,-2,-2,-2,-1
1513231374782211,1,-3,-1,-3,-1,-1,1,1
1513231374783712,1,-4,-1,-3,0,-1,-2,-1
1513231374783712,-3,1,0,0,-3,-3,0,-1
1513231374796235,1,-2,0,0,0,0,-3,-3
1513231374796235,1,-2,-1,0,-1,-1,-2,0
1513231374803226,-2,-1,0,-1,-1,-1,2,-1
1513231374803226,2,-3,-4,-1,-2,1,-1,1
1513231374819237,2,-3,-2,-1,0,-1,-1,0
1513231374819237,-1,1,0,0,-1,-1,0,-1
1513231374820739,-2,-1,-1,-1,0,0,-1,-1
1513231374820739,0,-4,-1,-1,0,0,-3,0
1513231374841753,-1,-2,-2,0,-2,-1,1,-2
1513231374841753,-1,-2,-3,-1,-2,-3,0,-3
1513231374847760,-1,-1,-4,-2,-1,-1,-1,0
1513231374847760,0,-2,0,-1,-1,-1,-1,0
1513231374856273,-3,0,0,-2,-1,1,0,-1
1513231374856273,4,-4,-2,-1,-1,0,-2,-3
1513231374862771,0,-1,0,0,-2,-1,-1,-1
1513231374862771,-2,0,0,-2,-1,-3,-1,-2
1513231374879280,-1,-2,0,-1,0,0,-2,0
1513231374879280,0,-1,-2,-1,-1,-3,-3,0
1513231374880781,0,0,0,-2,-2,1,0,-2
1513231374880781,0,-1,-2,-2,0,-1,0,-1
1513231374902307,-2,-1,0,-2,-3,-1,-1,0
1513231374902307,-2,1,-2,-1,-2,-1,0,1
1513231374903296,0,1,-1,-1,-2,0,-1,-2
1513231374903296,-1,-2,0,-1,0,-1,-1,-1
1513231374916316,-1,-1,-1,0,0,0,-1,-1
1513231374916316,-3,-1,-2,-2,-1,0,-1,-1
1513231374922810,6,-5,-3,-2,-3,-2,-2,1
1513231374922810,-4,1,0,1,0,0,-1,-3
1513231374939339,1,0,-2,-1,-2,-1,-1,-3
1513231374939339,0,-3,-2,0,0,1,-1,0
1513231374940848,-1,-1,-3,-1,-2,-3,0,-1
1513231374940848,-2,-2,-2,0,-2,1,-2,-1
1513231374962358,-4,-3,-2,0,-3,-3,-1,0
1513231374962358,-2,1,1,-2,-1,-2,-1,-1
1513231374963873,-2,-2,-1,-1,0,-1,-2,0
1513231374963873,1,0,0,-3,-2,-2,-2,0
1513231374976380,-3,-1,1,-2,-1,-2,-1,-2
1513231374976380,-1,-3,0,1,-1,0,-1,0
1513231374990387,-2,0,-2,-2,1,0,1,-2
1513231374990387,-1,-2,0,0,-2,-1,-2,0
1513231374999397,0,0,-2,0,-2,-1,-1,0
1513231374999397,-2,-2,-2,-3,-2,-1,-1,-2
1513231375000897,-1,2,-1,0,-2,-1,-1,-2
1513231375000897,1,-2,-2,1,1,-1,0,0
1513231375021913,1,-1,-2,-1,-1,-1,0,2
1513231375021913,-2,1,-2,1,-2,-2,0,-2
1513231375023399,-2,-1,0,-1,-1,-1,-1,-1
1513231375023399,0,-1,-1,-1,-2,-2,-1,-1
1513231375036407,2,-2,-1,-2,-1,-2,-1,-1
1513231375036407,-1,1,0,-1,-2,0,-1,0
1513231375042954,-2,-1,0,-1,0,-1,-1,-1
1513231375042954,1,1,-3,-1,-2,-2,0,0
1513231375059926,-1,-2,-3,-2,-1,-1,-1,-1
1513231375059926,1,-2,-3,-1,-3,-1,-1,0
1513231375061429,-1,0,-1,-1,0,-1,-1,-2
1513231375061429,-3,-2,-2,-2,-2,-1,0,-2
1513231375081940,-1,-1,0,-1,0,0,-1,-1
1513231375081940,-2,-2,0,1,-1,-3,-2,-1
1513231375083453,-2,-3,-2,-1,-2,-3,0,0
1513231375083453,-2,-2,-3,-1,0,-1,-2,-2
1513231375095950,-2,1,0,-1,0,0,-2,-1
1513231375095950,1,-2,0,-2,0,1,-1,-3
1513231375102955,-4,2,0,-1,0,0,0,-2
1513231375102955,-3,-2,0,-1,-1,-2,0,-2
1513231375119476,-1,-1,-1,-1,-1,-3,1,-3
1513231375119476,-2,-1,-1,-1,0,-2,-1,0
1513231375120977,0,-4,-2,-1,-2,-2,0,0
1513231375120977,-1,0,-1,-1,0,0,-2,-1
1513231375142052,1,-1,-1,-1,-4,-1,-1,-1
1513231375142052,-2,-2,0,-3,-1,-1,0,-2
1513231375143538,1,0,-1,-1,-1,0,1,0
1513231375143538,-6,1,0,1,0,-2,-1,0
1513231375156047,0,-1,-1,0,-1,0,0,0
1513231375156047,1,-2,-3,-1,-1,0,-1,-2
1513231375163054,-1,0,0,-1,-2,0,-2,-1
1513231375163054,1,-4,-2,-2,-1,-1,-1,-1
1513231375179564,-5,2,-1,-1,-2,-1,-1,-2
1513231375179564,-1,-2,-2,-1,-1,-1,-2,1
1513231375181065,1,-2,-3,-1,-1,0,-2,0
1513231375181065,3,-3,-3,-1,-2,-2,1,-1
1513231375201596,-2,-3,1,-2,0,-2,-2,-1
1513231375201596,0,1,0,-2,0,0,-2,-2
1513231375203579,-1,-2,-2,-1,-1,-2,-1,0
1513231375203579,-2,-2,0,-1,0,-2,-1,-1
1513231375215612,-1,-6,-2,-3,-1,0,-1,-2
1513231375215612,-1,-1,-2,0,-1,-3,-1,1
1513231375224595,-3,0,0,0,0,0,0,-3
1513231375224595,0,-2,-2,-1,-1,0,-1,-1
1513231375239105,-7,0,1,0,-1,0,-2,0
1513231375239105,1,-2,-2,-3,-2,-2,1,-1
1513231375241107,3,-1,-2,-1,-2,-2,-3,1
1513231375241107,0,-1,0,0,-2,-1,1,-1
1513231375261624,0,0,-1,-1,0,1,-2,-1
1513231375261624,0,-2,0,1,-1,-1,-2,-1
1513231375263625,-5,3,0,-1,-2,-2,0,-2
1513231375263625,-1,-1,-3,-3,-1,-1,-1,-1
1513231375275631,0,-1,-3,1,1,0,-3,-2
1513231375275631,-4,-3,-1,0,-2,0,0,-2
1513231375284638,2,-10,-5,-1,0,0,0,-1
1513231375284638,-4,5,3,-1,-3,-1,1,0
1513231375299171,0,1,-2,-2,-3,-2,1,-2
1513231375299171,1,0,-2,-1,0,-1,0,1
1513231375301169,2,0,-1,-2,0,0,-1,0
1513231375301169,1,-5,-3,0,-1,-1,-2,-1
1513231375322186,-2,-3,-3,-1,-1,-1,-1,0
1513231375322186,-3,1,0,-1,0,1,0,0
1513231375323666,-3,-2,-1,-3,-3,-1,-3,-2
1513231375323666,-2,0,-2,-1,0,0,0,-3
1513231375335684,2,0,0,-1,-1,-4,-3,-1
1513231375335684,-2,-1,0,-1,1,1,-2,-3
1513231375344179,4,-5,-2,-1,-3,-4,0,2
1513231375344179,-2,-2,0,0,0,0,-2,-1
1513231375359237,0,-4,-1,0,-1,0,-1,-1
1513231375359237,-5,2,-1,-1,-2,-2,-1,-2
1513231375360729,-4,3,2,2,0,0,0,-1
1513231375360729,-2,0,-3,0,0,-2,0,-2
1513231375381744,0,-1,-3,-1,-1,1,-1,0
1513231375381744,1,-2,-1,0,-1,-2,0,1
1513231375383258,0,0,-1,-1,-1,-1,-4,-1
1513231375383258,-1,-1,-2,-2,-2,-2,-1,-3
1513231375395269,-6,2,2,1,1,1,0,1
1513231375395269,1,-1,-2,-1,-1,-1,0,-2
1513231375404270,-3,-2,-2,-1,0,0,-1,-3
1513231375404270,0,0,0,-2,-1,2,-1,1
1513231375419271,9,-4,-3,0,-1,-1,-2,0
1513231375419271,-3,0,0,-1,0,0,1,-2
1513231375420771,0,-1,1,-1,-1,-2,1,-2
1513231375420771,-1,-5,1,0,-1,1,-1,0
1513231375442303,0,-2,0,-2,-3,-2,1,-2
1513231375442303,2,-6,-3,-1,-4,-4,-2,-1
1513231375443815,-1,1,0,-2,-1,-2,0,-3
1513231375443815,-1,-1,-1,-2,-1,0,-1,1
1513231375455309,-3,-1,-1,-2,1,-2,0,-1
1513231375455309,-1,-2,-3,-2,-2,-1,-2,0
1513231375481316,-2,-2,-2,-1,-1,0,0,-2
1513231375481316,-1,-2,-3,0,-1,-2,-3,-1
1513231375482318,-13,2,2,-3,1,-1,0,-1
1513231375482318,-1,0,-1,-1,-1,-2,-3,-3
1513231375492824,-3,-3,-1,1,-2,-2,0,0
1513231375492824,0,-1,0,0,-2,-2,-2,3
1513231375501829,-3,2,-1,0,-1,-2,0,-2
1513231375501829,-1,-2,-1,1,1,-2,-1,-1
1513231375503330,-2,2,0,0,-1,0,-2,-4
1513231375503330,1,-3,-1,-1,0,-2,-1,1
1513231375515341,2,1,-1,-3,-2,-4,0,0
1513231375515341,1,0,-2,-2,0,0,-1,2
1513231375524345,1,-4,-4,-2,0,1,-1,-1
1513231375524345,-3,0,0,-1,-1,0,0,-2
1513231375539369,1,-1,-2,1,-2,-1,-2,-2
1513231375539369,-2,3,1,1,0,-1,1,-2
1513231375540869,4,2,0,-2,-2,-3,-1,0
1513231375540869,0,-1,0,-3,-2,-1,-1,-2
1513231375561874,0,-3,0,-3,0,-2,-1,-2
1513231375561874,-6,2,2,0,-1,1,-1,0
1513231375563387,-3,-1,-1,0,-1,-2,0,0
1513231375563387,0,1,0,0,-1,-1,-1,-1
1513231375575384,2,-3,-2,-1,-1,0,0,0
1513231375575384,1,-2,-1,-2,-3,-2,-2,-3
1513231375584400,0,-1,-2,-3,-3,0,0,-1
1513231375584400,-2,-1,-1,-1,-1,-2,0,-2
1513231375599898,-4,-4,-2,-1,-1,0,-2,-2
1513231375599898,-2,-1,-2,-2,-1,-1,0,0
1513231375601419,-2,-1,-2,-2,0,0,-1,2
1513231375601419,-4,-4,-2,-2,-1,-2,-1,-1
1513231375629419,-2,1,1,-1,-1,-1,-1,-2
1513231375629419,-1,-2,-1,0,-2,-3,0,-3
1513231375630920,0,-1,-2,-3,-1,-1,-1,-1
1513231375630920,1,-2,-3,-2,-3,-1,-2,-1
1513231375644430,2,-3,-1,-1,0,-1,-1,-1
1513231375644430,-2,-1,0,-2,0,0,-2,0
1513231375645931,-1,-4,-1,-1,-1,1,-2,-2
1513231375645931,-1,0,-1,-1,-1,-1,-2,-1
1513231375666946,-1,-1,0,-2,-3,0,-2,-1
1513231375666946,7,-5,-3,-1,-2,-3,-2,-1
1513231375668447,0,4,0,1,-1,-3,-1,1
1513231375668447,-1,-1,-1,0,0,0,-1,-3
1513231375681456,-1,0,-2,-1,-1,0,-1,-1
1513231375681456,-2,-2,-2,-1,-1,-2,-1,-2
1513231375683458,-2,-15,-3,-2,-1,0,-2,-1
1513231375683458,0,6,1,-2,-1,-2,-1,-2
1513231375704472,0,0,-2,-2,0,0,0,0
1513231375704472,-2,-2,-1,-3,-2,-1,-1,-2
1513231375705973,-1,-2,-1,0,-2,-3,-1,-1
1513231375705973,-1,-3,-1,0,-1,-1,-2,-1
1513231375719484,1,-2,-3,0,-1,-2,-1,0
1513231375719484,-3,0,-2,-1,-1,1,0,-1
1513231375721499,-1,0,1,0,-1,-2,0,-2
1513231375721499,-6,0,1,0,-1,-1,-3,-1
1513231375742003,0,-2,-2,-2,-1,-2,0,3
1513231375742003,-9,2,2,1,2,1,0,-3
1513231375743503,-3,1,1,1,1,-1,-1,-2
1513231375743503,2,-2,-2,-2,-2,-1,0,0
1513231375764530,1,-3,-2,-1,-3,-2,-1,-2
1513231375764530,0,0,0,-2,-1,-1,-2,1
1513231375766027,-2,-2,-4,-4,0,0,1,0
1513231375766027,-2,0,0,0,-2,-1,-1,-3
1513231375778536,-3,1,0,-2,-1,-2,-2,-2
1513231375778536,2,-2,-3,-1,-2,0,-1,0
1513231375785543,-4,1,-1,-2,-2,-1,-2,-1
1513231375785543,1,-11,-3,1,-1,-1,1,-1
1513231375802041,1,0,-3,-1,-2,0,0,-1
1513231375802041,3,-1,-3,-2,-2,-3,0,-2
1513231375803542,-1,0,0,0,-2,0,0,0
1513231375803542,-3,-11,-7,-3,-2,-3,-2,-3
1513231375824056,-4,1,1,0,-1,-1,-2,-1
1513231375824056,-1,-2,-1,0,0,-1,-1,-1
1513231375825557,1,0,-3,-3,-3,-1,-3,1
1513231375825557,0,1,0,-2,1,-2,0,0
1513231375838589,-1,-2,0,-1,-2,-1,-1,0
1513231375838589,1,2,1,-2,0,-2,-2,0
1513231375845594,-3,-2,-2,-1,-2,-1,0,-2
1513231375845594,-3,4,1,-1,0,0,-1,-1
1513231375862106,-1,-1,-2,1,0,-1,-1,0
1513231375862106,-5,-5,-2,-1,-1,0,-1,-2
1513231375864086,1,0,-1,0,0,-3,-1,-1
1513231375864086,0,1,-2,-2,-3,1,-2,-1
1513231375891618,-1,-2,0,0,1,1,0,-3
1513231375891618,-2,-1,-4,-1,-1,-1,-2,-2
1513231375893615,1,0,-1,0,-2,0,-2,-1
1513231375893615,-1,-6,-4,-1,-2,-2,0,-1
1513231375898618,-2,-3,-1,3,0,-1,-2,-1
1513231375898618,0,0,-3,-2,-4,-1,-1,-1
1513231375905614,-3,0,-2,0,-1,0,-2,-1
1513231375905614,6,2,-2,-1,-2,-2,-2,2
1513231375921625,0,-4,0,-2,-3,0,-3,-3
1513231375921625,-2,-2,0,0,-2,-1,0,1
1513231375923635,1,-3,-2,-2,-2,-2,0,0
1513231375923635,-4,1,0,-1,0,0,0,1
1513231375944159,-1,-1,-2,-2,0,-1,0,-3
1513231375944159,1,0,-1,-1,0,1,0,0
1513231375946143,0,0,-1,-1,0,-1,1,0
1513231375946143,-2,-3,-2,-1,0,-2,0,0
1513231375958652,-1,2,0,-1,1,-1,0,0
1513231375958652,-1,1,0,-1,0,0,-1,-1
1513231375965656,-2,-1,0,-2,-2,1,-1,-2
1513231375965656,-2,1,-1,-1,0,-1,-2,-1
1513231375981668,-2,-1,-2,-2,-1,-2,-2,-1
1513231375981668,-1,-10,-6,-1,-1,-3,-2,-3
1513231375983669,0,-1,0,0,-1,0,-3,-2
1513231375983669,9,-3,-1,-1,-3,-2,-1,1
1513231376004184,0,-2,-1,-3,-3,-2,-3,2
1513231376004184,0,1,-1,0,0,0,-1,0
1513231376005685,-2,1,-1,-1,0,-1,-1,-5
1513231376005685,-4,1,1,0,-1,0,0,-1
1513231376018694,-2,-4,0,0,-1,-1,-2,-2
1513231376018694,-2,0,0,-1,0,1,-1,0
1513231376025702,-1,-2,-3,-2,-3,-1,-3,-4
1513231376025702,-3,1,3,-1,0,-1,-1,-2
1513231376041744,-2,-2,-1,-1,-1,-2,0,-1
1513231376041744,-3,2,-1,-2,-2,-1,0,0
1513231376043242,-2,0,-1,1,-1,0,-2,0
1513231376043242,0,-1,-3,0,-2,-3,0,-1
1513231376064259,-3,-6,-2,-3,-1,-1,-3,-3
1513231376064259,-1,-1,2,0,-1,-2,0,-2
1513231376065758,6,-1,-2,-3,-1,-1,-2,1
1513231376065758,-3,-1,-1,-1,0,0,-1,-1
1513231376078766,0,0,-1,-3,-2,1,-1,0
1513231376078766,1,-3,-2,-3,-3,-1,-1,-1
1513231376085296,-7,6,2,2,2,1,1,-1
1513231376085296,-4,2,2,0,-2,2,-2,-3
1513231376101783,0,1,-1,-1,-2,0,-1,-2
1513231376101783,0,0,2,0,0,0,0,0
1513231376103298,-3,-1,0,-1,-2,-4,0,-4
1513231376103298,-4,-3,2,0,0,-1,-1,-2
1513231376124302,-1,1,-2,0,-2,-1,-2,-2
1513231376124302,1,-3,-3,-1,0,-3,-2,-1
1513231376125800,0,-4,-2,-1,-1,-1,-2,1
1513231376125800,-1,-1,-1,-1,-2,-2,0,1
1513231376137821,-2,-2,-1,-1,-2,-2,-1,-1
1513231376137821,-2,-2,0,0,-1,-1,0,-2
1513231376146815,2,-2,-2,-1,-1,0,0,0
1513231376146815,0,1,-2,-2,-2,-2,-1,-1
1513231376160826,0,-2,-1,-3,-1,0,2,0
1513231376160826,0,1,-2,-2,-1,-1,-1,0
1513231376169382,0,-5,-3,-3,-1,-2,-3,-1
1513231376169382,0,-2,-3,-1,-1,0,0,-1
1513231376184405,0,2,-1,1,0,-1,-1,-1
1513231376184405,-2,-1,-1,-2,-1,-1,-3,-1
1513231376185904,-2,-4,-1,0,0,-1,-1,1
1513231376185904,-1,-1,-1,-1,0,-1,-2,-2
1513231376197925,5,-7,-3,-2,-2,-1,-2,1
1513231376197925,-5,-4,-2,-1,0,0,-3,-3
1513231376206909,-1,1,-1,-2,-1,-1,1,0
1513231376206909,2,2,-1,-1,-1,-2,-1,-1
1513231376221936,1,2,-1,-2,-1,-2,0,-2
1513231376221936,1,-4,-1,-1,-1,0,-1,0
1513231376223422,-5,0,1,-4,-2,-1,0,0
1513231376223422,-1,-1,0,0,0,1,1,-1
1513231376244449,-2,0,-1,-1,-3,-1,-1,0
1513231376244449,0,-1,-1,-1,-2,-1,0,-1
1513231376245953,-3,0,0,0,2,-2,-2,-2
1513231376245953,0,0,-1,-2,-2,0,-1,-3
1513231376257955,-3,0,1,2,0,0,0,-1
1513231376257955,-5,2,-1,0,-2,-1,-1,-1
1513231376266984,0,0,-2,-1,-2,0,-1,-2
1513231376266984,-1,-2,-2,-1,0,-2,-3,0
1513231376281503,-1,-1,-2,-1,-1,0,-2,-1
1513231376281503,-1,1,-1,0,-1,0,0,-1
1513231376283493,-1,-2,-2,0,-2,-2,-1,-1
1513231376283493,-4,2,0,0,0,0,-2,1
1513231376304508,-1,-2,0,0,-1,-2,1,-1
1513231376304508,2,-2,-1,-2,0,-3,0,0
1513231376306009,3,0,-2,-1,-1,0,0,-3
1513231376306009,-3,-1,-2,-2,-1,-1,-2,-2
1513231376318017,-2,4,4,1,1,-1,0,3
1513231376318017,-1,1,0,-1,-1,0,-1,-2
1513231376327023,1,-2,-1,-2,-1,1,-1,-3
1513231376327023,1,-4,-2,-2,-1,-1,-1,1
1513231376342035,-1,-4,-2,-2,-2,-2,-2,0
1513231376342035,-1,-2,-4,-2,-2,-2,-2,-2
1513231376343535,-1,-1,0,1,-1,-2,-1,0
1513231376343535,-1,-1,0,-1,-2,-1,-2,-1
1513231376364551,-2,-1,-2,-1,-1,-1,0,-1
1513231376364551,-1,-1,-1,-1,-1,-1,0,1
1513231376365552,-1,-2,-2,-2,0,-3,-1,0
1513231376365552,1,-2,-2,0,-1,1,0,-1
1513231376378060,-6,-1,-1,-1,0,0,0,-2
1513231376378060,0,-6,-3,-3,0,1,0,-2
1513231376387068,-2,-1,0,-2,-1,-1,-1,1
1513231376387068,-1,-1,0,0,-1,-2,-1,-1
1513231376401596,0,-2,-2,0,0,1,0,0
1513231376401596,-6,2,2,-1,-1,-2,0,-3
1513231376403591,-4,-1,1,0,-1,-1,-2,-4
1513231376403591,0,1,-2,0,-2,-2,0,0
1513231376424092,0,-5,-2,-2,-1,0,-3,-3
1513231376424092,-3,-8,-3,2,1,-1,-1,-1
1513231376426093,1,1,0,-3,-2,-2,-1,0
1513231376426093,-4,3,0,0,1,0,-2,-2
1513231376438135,1,1,-1,-3,-3,-1,-1,-1
1513231376438135,-1,-1,-2,-1,0,-2,-1,-2
1513231376447137,-3,0,0,-2,-2,-1,-1,-1
1513231376447137,0,-2,-1,0,-1,-1,-2,-2
1513231376461649,-2,-1,-2,-2,-2,-3,-2,-1
1513231376461649,2,2,0,0,0,0,-1,2
1513231376463648,-3,-3,-2,0,-1,-3,-1,1
1513231376463648,1,-6,-1,-2,-2,-2,-1,0
1513231376484178,1,-1,-1,-2,-2,1,0,-2
1513231376484178,0,0,-2,-4,-1,-4,0,-1
1513231376486165,1,-3,-2,-2,-2,0,1,-1
1513231376486165,2,-1,-1,-2,-1,-2,-1,-2
1513231376506688,-4,4,1,1,0,-2,0,-4
1513231376506688,-1,-1,-1,0,-2,-1,-2,0
1513231376508680,1,-7,-3,-3,-1,-1,-1,-3
1513231376508680,-7,-7,-1,-2,0,0,-1,-2
1513231376520688,2,0,1,-2,-2,0,-2,0
1513231376520688,-5,3,0,-1,-2,1,-3,0
1513231376529228,-2,0,-1,1,-2,-1,-2,-1
1513231376529228,1,-1,-3,-1,0,-2,0,0
1513231376544241,-1,-2,-2,1,0,1,0,-2
1513231376544241,4,-2,-2,-1,-1,-1,-3,-1
1513231376545739,-1,2,0,0,0,0,-1,-2
1513231376545739,-1,1,0,-2,-1,-1,1,0
1513231376557758,-1,-2,0,-3,-1,-1,1,1
1513231376557758,-1,0,2,-2,-2,-2,-1,-2
1513231376566754,0,-3,-2,-2,-1,-1,-2,0
1513231376566754,0,3,0,-2,-2,-1,-1,-3
1513231376581766,2,-2,-2,-1,2,-2,-1,0
1513231376581766,-1,-4,-2,-3,-1,-1,-1,0
1513231376583266,-1,1,-2,2,1,-1,1,2
1513231376583266,5,-1,-3,-2,-2,-2,-2,2
1513231376604293,-10,-3,0,0,1,0,-1,-2
1513231376604293,0,-1,-1,0,1,-1,-1,-2
1513231376605783,-2,-5,-4,-1,-1,-1,-1,-4
1513231376605783,1,-1,0,-1,0,1,-2,-2
1513231376626871,1,-1,-2,-1,-1,-1,-1,1
1513231376626871,-2,-1,-1,-1,-1,0,-1,-2
1513231376628356,4,-4,-4,-1,-2,-1,-2,0
1513231376628356,-3,-2,-1,-1,-1,0,0,-3
1513231376641867,1,-2,-4,-2,-3,-1,-2,-2
1513231376641867,-3,-3,-2,-1,-1,-1,0,-1
1513231376643380,-2,2,1,-2,-2,-1,-1,-1
1513231376643380,-1,-2,0,0,-2,-2,-1,-1
1513231376664395,0,-1,0,-1,1,-1,-2,1
1513231376664395,2,-6,-1,-1,-1,-1,-1,-1
1513231376665901,2,0,0,-1,-1,-1,-1,-2
1513231376665901,-3,1,0,-2,-1,-2,1,-1
1513231376686910,-1,-1,-1,-1,-1,-1,-1,-2
1513231376686910,-1,1,-2,-2,-3,-2,-1,-2
1513231376688402,-1,3,-1,-2,-3,-1,0,-2
1513231376688402,-5,-5,-1,-2,-2,-2,-2,-2
1513231376701918,1,0,-1,-4,0,-1,-1,-2
1513231376701918,-1,12,4,0,0,0,-1,1
1513231376703419,-2,0,0,1,0,0,0,-2
1513231376703419,-1,1,-2,2,-1,2,-1,0
1513231376724925,-2,-1,-1,0,-2,-1,-1,0
1513231376724925,0,-3,-2,-1,-1,-2,0,0
1513231376726425,-2,0,-3,-1,1,-2,0,0
1513231376726425,-4,1,0,1,-1,-1,-1,0
1513231376746940,1,-1,-1,-2,-1,-1,-2,0
1513231376746940,1,-4,-4,-1,-2,-1,-2,-2
1513231376748441,1,-1,-1,-2,-3,-1,1,-2
1513231376748441,-2,-3,-2,-1,0,-1,0,-4
1513231376761954,-1,-2,1,0,-3,-1,-2,0
1513231376761954,-1,-3,-3,-2,-1,1,0,-1
1513231376769456,-5,-1,1,1,0,-1,-1,-1
1513231376769456,-3,1,1,-2,-1,-2,-1,-4
1513231376784480,-2,0,-1,-2,-2,-3,0,-2
1513231376784480,-3,-3,-2,-1,-1,-1,-2,0
1513231376785981,-3,-2,-2,-2,-1,0,-1,0
1513231376785981,-1,-4,-2,-2,-1,0,-1,-1
1513231376806484,-1,9,2,-1,0,0,-1,1
1513231376806484,-1,-2,-2,0,-2,-2,-1,-2
1513231376808485,0,-2,-2,-1,-2,0,-1,-2
1513231376808485,0,3,0,-1,-2,0,-1,0
1513231376820993,1,-4,-3,-1,-1,0,-2,-2
1513231376820993,2,-3,-2,-2,1,0,0,-1
1513231376828000,-1,0,0,0,1,-2,-3,-2
1513231376828000,3,-2,-2,-2,-1,-1,0,-1
1513231376844046,-4,-4,-1,1,0,0,0,-3
1513231376844046,-1,-2,-1,-1,-3,0,-1,-1
1513231376846023,-2,0,0,-2,-1,-1,-3,-1
1513231376846023,2,-2,-1,-1,0,-1,-1,1
1513231376867051,0,-3,-3,-3,-3,-2,0,-2
1513231376867051,0,-1,0,-2,-1,-3,-1,0
1513231376868527,-2,-1,0,-1,-2,0,-1,-2
1513231376868527,0,0,-2,0,-4,-2,0,0
1513231376881050,-6,-1,1,1,0,-2,0,-1
1513231376881050,-2,7,1,1,0,-1,1,-1
1513231376888054,0,0,-2,-1,-1,0,-1,-1
1513231376888054,-2,-2,0,0,0,1,-2,-2
1513231376904064,5,-2,-3,-3,-3,-2,-1,0
1513231376904064,1,-5,-3,-1,-1,-2,-2,-4
1513231376906054,-4,-1,0,-1,-1,0,-2,0
1513231376906054,-1,1,-3,-1,-2,-2,-1,-1
1513231376926570,0,-2,-2,-1,0,-2,0,0
1513231376926570,-1,-2,-2,-3,-2,-2,-2,0
1513231376928068,0,0,-1,-3,-1,-1,-1,-1
1513231376928068,2,-2,-2,-2,-2,-1,-2,-1
1513231376941077,0,-3,-3,-1,-2,0,-2,-2
1513231376941077,-2,0,-1,-2,-1,0,2,0
1513231376948084,1,-4,-2,-2,-1,-3,-3,2
1513231376948084,1,-2,0,0,1,-2,-3,-1
1513231376964096,-8,0,1,1,2,-1,1,-4
1513231376964096,-2,0,-3,-2,-2,0,-1,-1
1513231376966111,0,0,-2,-3,-1,-2,-1,0
1513231376966111,-1,-2,-1,1,-1,-2,0,-1
1513231377003137,2,-1,-3,-1,-3,-1,-1,-2
1513231377003137,-2,-3,-1,-1,0,-1,-2,-2
1513231377004622,3,2,-2,-1,-2,-2,0,-1
1513231377004622,-1,9,2,-2,0,-1,0,0
1513231377005634,0,-2,-1,0,-1,-2,-2,2
1513231377005634,-3,0,1,-1,-2,-2,-2,-2
1513231377009638,-2,-2,-2,1,1,0,0,-1
1513231377009638,1,-2,-1,-1,-1,0,0,-2
1513231377024136,-1,0,-2,-2,-2,-1,-1,-1
1513231377024136,10,-4,-5,-3,-2,-2,-2,-1
1513231377025637,-5,0,1,0,-3,-2,1,-1
1513231377025637,-1,-4,-1,0,-2,0,-1,-1
1513231377046653,-3,-2,-1,-3,0,0,-2,-1
1513231377046653,-1,-1,0,0,0,0,-2,0
1513231377048653,-4,-1,-1,0,-1,0,-2,-1
1513231377048653,0,1,-1,-1,-1,-3,-2,-2
1513231377060663,3,2,-1,-2,-2,-3,-1,0
1513231377060663,-4,1,-1,-1,0,-2,0,-1
1513231377069671,1,-2,-2,-2,-2,0,0,1
1513231377069671,0,-1,-2,-4,-1,-1,-2,2
1513231377084187,-3,9,1,0,-1,-1,0,1
1513231377084187,-3,-3,0,0,-1,2,-2,-1
1513231377085688,-3,0,-1,-1,-1,-2,0,-1
1513231377085688,-1,-2,-3,-2,-2,-2,-1,-1
1513231377106704,1,-6,-2,-1,0,-1,0,-1
1513231377106704,-2,-1,-2,-1,0,-1,-1,-3
1513231377108198,-1,-1,-1,-1,-1,0,-1,-2
1513231377108198,2,-7,-2,-1,0,-1,-2,-4
1513231377120705,0,-6,-2,-3,-1,0,-2,0
1513231377120705,-5,1,0,0,0,-2,-1,-1
1513231377129724,2,-5,-3,-1,-1,-1,-2,-1
1513231377129724,-8,-1,-1,0,-2,-3,0,-4
1513231377144233,0,-3,-2,-1,-3,-1,-1,-2
1513231377144233,0,-1,-1,0,-1,-2,-2,1
1513231377146222,1,-3,-3,-1,-3,-2,-1,-1
1513231377146222,-1,-1,0,-1,-1,0,0,1
1513231377166737,-2,-1,-2,-2,-1,-1,-2,-1
1513231377166737,-4,-2,-1,-2,-1,-1,0,-1
1513231377168239,-6,0,1,-2,0,-2,-1,-1
1513231377168239,1,-1,-2,1,-1,-1,-1,0
1513231377180759,1,8,2,1,1,-1,-1,0
1513231377180759,-2,-1,-2,-2,0,0,0,0
1513231377189253,0,-1,-1,-2,-2,0,-2,-1
1513231377189253,-3,-1,0,-2,-1,-2,-1,0
1513231377204274,-3,-6,-4,-4,0,-1,0,-2
1513231377204274,1,-3,-1,-1,-1,-2,-1,-2
1513231377205765,0,-2,-1,0,-1,-1,-2,-1
1513231377205765,-1,-4,-3,-2,0,1,-1,0
1513231377226788,1,-4,-4,-2,0,-2,-3,0
1513231377226788,1,0,-2,-2,-3,-1,-1,1
1513231377228280,-1,-3,-2,-2,-2,-1,1,-1
1513231377228280,2,-2,-2,-1,-2,-1,0,0
1513231377249819,-1,-1,0,0,-2,-1,1,-3
1513231377249819,-4,1,1,1,-1,-3,-1,-1
1513231377251799,0,0,-1,0,-1,0,0,-1
1513231377251799,-2,-8,-4,-2,-1,0,-1,-1
1513231377264311,-2,-1,0,-1,0,-1,-1,-3
1513231377264311,-2,-4,-2,-1,0,0,-1,-1
1513231377265807,2,1,0,0,-1,-2,-3,-2
1513231377265807,-3,-1,1,-1,0,-1,-3,0
1513231377286322,1,-6,-2,-3,-1,-1,-1,-1
1513231377286322,0,-1,1,-1,-2,-2,0,-1
1513231377286827,-1,-4,-3,-1,-1,1,-1,-2
1513231377286827,0,2,-1,0,-1,-1,-3,-2
1513231377308845,0,1,-2,-2,-2,-1,-2,-1
1513231377308845,5,-3,-3,-2,-2,-2,-2,-2
1513231377309338,0,-1,-2,-2,-2,-2,-1,1
1513231377309338,-2,1,0,-1,-1,-2,0,0
1513231377323849,-2,0,1,1,-1,-2,0,0
1513231377323849,-3,0,-2,-2,-1,-1,-2,-2
1513231377324348,-1,-4,-1,-2,1,-2,-3,-1
1513231377324348,0,-2,0,-2,-2,-2,-1,-1
1513231377345886,-5,-1,-1,0,-3,-1,-2,-1
1513231377345886,-1,-2,0,-2,0,-1,-2,-2
1513231377346869,-3,-1,-1,0,-1,-1,1,-1
1513231377346869,-2,-1,0,-1,-2,-2,0,-1
1513231377368889,-1,-2,-3,-2,0,-1,0,-2
1513231377368889,-2,3,0,-1,-2,-1,-1,-1
1513231377369380,-1,1,0,-1,-1,1,-1,-1
1513231377369380,-1,-3,-3,0,0,0,-1,-1
1513231377383399,4,0,1,-3,-1,-1,-2,0
1513231377383399,-3,-2,-2,0,-1,1,0,-1
1513231377384391,-3,-3,1,0,0,-1,0,0
1513231377384391,-4,2,0,1,-2,-2,0,-4
1513231377405905,-2,-1,-2,0,-1,0,-2,-2
1513231377405905,4,-5,-1,-1,-1,-2,1,3
1513231377413437,-2,0,-2,-1,-2,0,0,-1
1513231377413437,1,-1,0,-1,0,0,-2,0
1513231377436932,-3,1,0,0,-1,-2,-1,-1
1513231377436932,-4,0,0,-1,-3,-1,-2,-2
1513231377437428,-2,-1,-3,1,-2,-3,-2,-1
1513231377437428,0,-9,-6,-2,-2,-3,-2,-2
1513231377443441,-1,-1,-2,-1,-1,0,-1,-1
1513231377443441,4,-3,-3,-1,-3,0,-1,-1
1513231377450961,-1,2,-1,-2,-1,-1,-2,0
1513231377450961,-2,1,-1,0,-1,0,-1,-1
1513231377465971,-4,2,2,-1,-1,-3,-1,0
1513231377465971,-2,2,0,-2,-1,-2,-1,-1
1513231377466972,0,-3,0,1,-3,0,0,-3
1513231377466972,-2,2,2,0,-1,-1,1,0
1513231377488475,-1,-1,-2,-2,0,-1,0,-1
1513231377488475,-2,-1,-1,-4,-1,-3,-1,1
