timestamp,emg1,emg2,emg3,emg4,emg5,emg6,emg7,emg8
1511759891213491,-5,2,-1,-4,-2,-2,-5,0
1511759891213491,-2,0,0,3,-1,-5,-1,3
1511759891214492,4,-2,0,2,1,1,5,-5
1511759891214492,-1,-4,-3,0,0,-1,-1,0
1511759891220998,-8,1,-1,-1,-2,1,-7,3
1511759891220998,0,0,1,-1,-2,1,-1,-4
1511759891221999,4,-3,-2,-1,-3,-3,4,-2
1511759891221999,0,-3,-2,-2,-1,-6,-1,-2
1511759891244014,-5,3,-2,-3,0,-1,-5,3
1511759891244014,0,0,0,-1,0,-1,-2,-2
1511759891244515,1,-2,1,-2,-2,1,3,-4
1511759891244515,0,0,2,-2,1,2,0,0
1511759891266027,-3,1,-2,-3,0,0,-4,2
1511759891266027,-1,1,0,-3,-2,-4,-2,0
1511759891267529,5,-7,0,1,1,-4,5,-3
1511759891267529,0,-3,0,0,0,-1,-3,-2
1511759891279537,-3,1,1,0,1,2,-4,2
1511759891279537,-3,0,-2,-1,-2,-2,-2,1
1511759891288565,0,-1,-1,1,-2,-4,4,-3
1511759891288565,-1,0,-2,2,-1,1,0,0
1511759891303555,-6,1,-1,0,0,2,-6,-1
1511759891303555,-2,-2,-1,-1,0,0,0,-2
1511759891305058,1,-2,-1,-4,-2,-2,4,-2
1511759891305058,0,-1,-1,0,1,0,-1,-1
1511759891326070,-3,1,0,-2,-2,1,-6,1
1511759891326070,-1,-3,-2,-2,-2,-2,1,-1
1511759891327571,2,-4,-2,0,0,0,2,-2
1511759891327571,-2,2,-1,1,1,0,2,0
1511759891339579,-4,1,-1,-1,-2,-2,-3,1
1511759891339579,-2,2,-3,-4,-2,-3,-1,-2
1511759891348586,7,-4,-1,-2,-2,-7,2,-4
1511759891348586,0,-4,-2,-1,-2,0,-2,-1
1511759891363597,-5,2,0,-4,2,-1,-7,0
1511759891363597,-1,-2,1,-1,-3,1,3,1
1511759891366098,4,-6,1,4,0,1,3,-6
1511759891366098,0,1,-2,2,1,1,-2,-1
1511759891386114,-2,2,-1,-3,-3,-1,-3,1
1511759891386114,0,1,1,0,-1,-2,-1,-2
1511759891387614,2,-1,-3,3,0,-3,4,-3
1511759891387614,0,0,-1,-3,-3,-1,-3,-3
1511759891399622,-5,-1,-3,-2,-4,1,-5,3
1511759891399622,-2,-2,0,-2,-2,0,1,0
1511759891408628,0,-2,-2,0,0,-2,3,-5
1511759891408628,-2,-3,-2,-6,0,-2,0,0
1511759891423654,-4,2,-2,-1,-3,-5,-6,2
1511759891423654,-1,-2,-1,-2,0,-3,2,-4
1511759891425142,2,-1,-2,3,0,1,2,0
1511759891425142,-1,0,-2,2,0,0,-3,1
1511759891446156,-6,3,0,-6,-2,1,-4,1
1511759891446156,-2,-2,0,-1,-2,1,0,1
1511759891447674,2,-3,-1,0,1,-3,4,-5
1511759891447674,-2,0,-2,2,-2,1,-2,-1
1511759891459680,-4,2,0,-1,-1,0,-7,3
1511759891459680,-1,-1,1,0,-2,0,0,-1
1511759891468673,3,-5,-1,-4,-1,-2,3,-2
1511759891468673,2,-3,-1,1,-1,0,-2,-1
1511759891483681,-5,1,-2,-1,0,1,-3,0
1511759891483681,0,-1,-1,-3,-4,-2,-1,-1
1511759891485689,3,-5,-3,5,2,-3,0,-5
1511759891485689,0,-2,-1,0,0,-5,-3,-1
1511759891506197,-5,0,0,-5,-2,1,-3,2
1511759891506197,1,-1,-3,-1,-2,-2,1,-1
1511759891507698,0,-4,-1,-4,-1,1,3,-3
1511759891507698,-4,2,-1,2,-1,1,-3,-5
1511759891519712,-4,5,-4,-2,-1,0,-3,0
1511759891519712,1,-2,1,0,-2,-1,-2,-1
1511759891528713,0,-4,-2,-1,0,-3,0,-4
1511759891528713,-1,-1,-3,-3,0,-1,-1,1
1511759891543223,-3,2,1,0,-2,-1,-5,3
1511759891543223,0,-1,-1,1,-1,-2,-1,-1
1511759891545225,2,-4,0,1,-2,1,3,-3
1511759891545225,-3,-4,-3,1,-1,-3,-2,1
1511759891566239,-4,4,0,-3,-1,-2,-4,2
1511759891566239,1,2,-1,-2,0,-4,-2,-1
1511759891569742,2,-3,-1,-1,-2,-7,2,-2
1511759891569742,-2,-2,-1,-2,1,-1,-1,0
1511759891579749,-3,-3,-1,1,0,2,-7,1
1511759891579749,-3,-4,-1,0,-2,3,3,-1
1511759891588784,1,0,-2,0,-2,3,3,-3
1511759891588784,-1,1,-2,-2,0,2,-3,0
1511759891603780,-5,1,-1,-5,-1,0,-5,2
1511759891603780,0,1,1,-5,2,0,-2,-1
1511759891605277,3,-3,-2,1,-2,-6,2,-3
1511759891605277,-1,1,1,-1,-2,-1,-3,1
1511759891625357,-4,2,1,-6,-1,3,-4,2
1511759891625357,-2,-2,-1,-2,-3,-4,0,-2
1511759891627359,-1,-6,0,-2,1,-3,5,-2
1511759891627359,-2,-2,-2,3,-1,1,-2,0
1511759891639367,-2,0,-1,-2,0,1,-2,1
1511759891639367,0,-2,-1,-1,-3,0,1,-2
1511759891648363,4,-1,-2,3,0,-4,3,1
1511759891648363,-1,-1,2,1,2,0,-2,-1
1511759891663384,-3,-2,0,1,-1,-2,-4,-2
1511759891663384,1,-2,-1,1,-1,-1,-2,-2
1511759891664385,4,-1,0,0,-2,-4,1,-4
1511759891664385,-3,1,-4,-2,1,2,-2,-2
1511759891685417,-4,1,-2,-4,-2,-1,-3,2
1511759891685417,1,-6,-2,1,-2,-5,2,0
1511759891687391,2,-5,-1,1,2,3,2,-1
1511759891687391,0,-2,0,0,1,3,-3,1
1511759891699410,-2,1,-1,1,-5,2,-3,2
1511759891699410,-1,1,0,-2,-2,-5,1,-1
1511759891709407,1,-3,-2,-3,1,-5,0,-3
1511759891709407,-1,0,0,-4,1,-5,-3,2
1511759891723417,-5,4,0,-1,-2,-3,-1,1
1511759891723417,-1,0,-1,0,-4,-2,1,-4
1511759891724419,1,-1,-2,1,-1,3,-1,-4
1511759891724419,-3,0,-3,-3,1,0,-4,-2
1511759891745444,-2,1,-1,-3,0,-2,-4,2
1511759891745444,-1,0,1,-1,-2,0,0,-2
1511759891747445,1,-5,0,3,-2,-3,2,-2
1511759891747445,-1,-1,-2,-3,-2,1,-1,1
1511759891759459,-5,2,-2,-5,-1,-3,-6,1
1511759891759459,2,0,0,-1,-1,-3,1,-1
1511759891768449,1,-2,-1,2,2,2,2,-4
1511759891768449,-3,0,-1,1,-2,0,-5,0
1511759891783471,-3,-2,-2,-1,-3,2,-2,1
1511759891783471,-1,-2,-3,-4,-4,-3,2,-2
1511759891784472,2,-3,-2,-1,1,-2,2,-2
1511759891784472,-3,-1,-1,1,-1,0,-3,-2
1511759891805476,-3,2,-1,-2,-2,0,-5,-3
1511759891805476,1,-4,-1,1,0,0,3,-3
1511759891807486,1,-4,-1,1,1,-1,3,-1
1511759891807486,-1,-1,-2,-1,0,2,-2,0
1511759891828504,-5,0,0,-1,-1,2,-3,4
1511759891828504,-2,1,-2,-5,-3,-4,2,-4
1511759891829504,0,-1,-2,0,0,-4,2,-2
1511759891829504,-3,2,1,2,-2,2,-4,1
1511759891843514,-2,1,-1,-1,-2,0,-3,-1
1511759891843514,2,-6,-2,1,-1,-2,0,-1
1511759891844514,3,-4,0,1,-1,-3,2,-3
1511759891844514,1,2,0,-5,-2,-2,-2,0
1511759891864516,-3,0,-3,-4,0,-4,-2,0
1511759891864516,1,-1,-1,-4,-1,-2,3,-3
1511759891873526,-1,-3,-2,-1,1,-2,-2,-4
1511759891873526,-1,-3,0,-6,0,-3,-4,3
1511759891888533,-3,0,1,-1,-1,1,0,1
1511759891888533,0,-3,-1,1,-3,-4,0,-2
1511759891889534,-2,-1,-3,-1,-1,-3,1,-3
1511759891889534,-3,3,0,2,-1,1,-4,1
1511759891902543,-1,-1,1,-1,-2,0,-2,2
1511759891902543,2,-3,1,-3,-3,-2,2,-1
1511759891912560,1,-2,-2,3,-2,0,-1,-3
1511759891912560,-5,1,-5,0,1,-1,-2,-1
1511759891925559,-3,3,-1,-3,-2,0,-3,1
1511759891925559,3,0,-1,1,0,-3,4,-1
1511759891927561,0,-2,-2,-1,-2,-3,1,-1
1511759891927561,-3,0,-3,-2,1,3,-5,2
1511759891948588,-2,1,-2,1,-2,0,-5,-1
1511759891948588,0,-1,-1,-3,0,-4,2,-2
1511759891949577,4,-1,-1,0,1,-1,3,-3
1511759891949577,-3,1,0,0,0,0,-3,2
1511759891963599,-2,0,-1,-1,-2,-4,-2,0
1511759891963599,1,-4,-2,1,-1,-1,1,-2
1511759891964588,1,-5,-3,1,0,-2,1,0
1511759891964588,-2,-2,0,-2,-1,1,-2,-1
1511759891985606,-1,2,0,-5,-3,-2,-2,0
1511759891985606,-3,-1,-1,-1,-2,-3,1,-4
1511759891987604,0,-3,0,-2,-2,0,1,-4
1511759891987604,-3,-1,-1,0,-1,2,-5,2
1511759892008619,-1,1,2,-4,-2,-2,-5,0
1511759892008619,-1,-2,-2,-2,-1,-4,2,-5
1511759892009619,-1,-5,-2,0,1,-2,1,-4
1511759892009619,-1,-2,-3,2,2,2,-3,-1
1511759892022630,-3,1,-1,-2,1,-2,-1,-1
1511759892022630,2,-1,-2,-1,-3,0,5,-2
1511759892029646,-1,-1,-2,1,0,-1,-1,-1
1511759892029646,-3,1,1,0,0,1,-5,1
1511759892045656,-4,2,-3,1,-1,0,-1,-2
1511759892045656,1,-1,0,-2,-3,-3,4,-4
1511759892047658,2,-3,-1,-2,0,-1,-2,-1
1511759892047658,-3,-1,0,-4,0,-1,-5,0
1511759892068669,-2,-1,-2,0,-1,-3,-1,1
1511759892068669,3,-4,1,1,-4,-1,0,-1
1511759892069665,1,-3,-3,-1,1,4,1,0
1511759892069665,-5,2,0,-3,0,2,-5,1
1511759892082683,-3,-3,-1,-4,-3,-3,-2,-1
1511759892082683,2,-2,0,1,0,-3,6,-4
1511759892089695,2,-3,-2,1,0,0,2,-3
1511759892089695,-2,0,-2,-3,2,2,-5,-1
1511759892105687,0,3,-1,-5,-2,3,-3,1
1511759892105687,3,-3,0,-2,-5,-4,4,-1
1511759892107698,0,-4,-1,-1,-1,-4,0,-3
1511759892107698,-4,2,-2,-3,1,-2,-7,2
1511759892128721,-4,2,1,-1,-3,-4,-1,2
1511759892128721,0,-4,0,1,0,-5,2,-4
1511759892129703,0,-4,-2,1,0,1,2,-1
1511759892129703,-4,0,-2,2,-2,3,-4,0
1511759892142722,-4,3,0,-4,-2,-2,-2,-1
1511759892142722,2,-3,-1,-1,-3,-5,3,-4
1511759892149731,1,-1,-3,-3,-2,-2,0,-3
1511759892149731,-2,1,0,0,0,1,-4,-1
1511759892165741,-2,-3,-1,-2,-4,4,-2,-2
1511759892165741,4,-4,-1,-1,0,-4,2,-1
1511759892167730,-1,0,1,2,2,0,-1,-4
1511759892167730,-2,3,-2,0,-2,2,-2,5
1511759892188750,-2,0,0,2,-1,1,-2,-1
1511759892188750,2,-2,-2,-2,-1,-1,3,-4
1511759892189747,1,-1,-2,-2,-1,-4,-1,-3
1511759892189747,-5,3,-3,0,0,-3,-3,2
1511759892202757,-2,-4,0,-1,-2,-1,-2,-1
1511759892202757,2,-4,-2,-1,-1,-2,3,-2
1511759892209770,2,-2,0,-1,1,-2,0,-1
1511759892209770,-2,3,1,-4,0,1,-3,1
1511759892225789,-2,1,0,0,-1,-5,0,-1
1511759892225789,-1,-5,-1,0,-2,1,4,-4
1511759892226789,0,-5,-1,0,0,0,1,-3
1511759892226789,-3,0,-1,-1,0,3,-7,2
1511759892247800,-2,-1,-1,-2,1,3,-2,1
1511759892247800,2,-4,0,3,-4,-5,4,-2
1511759892249788,1,0,-3,-1,-1,-2,0,-1
1511759892249788,-2,-1,-2,-1,0,1,-5,2
1511759892262812,-2,0,0,-4,-3,-2,-1,1
1511759892262812,0,-2,-2,1,-1,-4,0,-4
1511759892269824,0,-3,-2,0,0,3,2,-1
1511759892269824,-3,-1,0,-1,-1,0,-8,2
1511759892285840,-1,2,-3,-3,0,3,-3,-1
1511759892285840,2,-3,-1,-3,0,0,5,-4
1511759892286817,1,-1,0,1,0,-3,1,-2
1511759892286817,-2,2,-2,0,-1,-3,-5,0
1511759892307850,1,0,1,0,-3,-6,0,0
1511759892307850,1,-5,0,1,-1,-3,4,-2
1511759892309844,-1,-4,-3,1,2,2,0,-3
1511759892309844,-6,0,-2,-1,1,2,-6,2
1511759892321851,-2,0,0,-1,-4,1,-1,-1
1511759892321851,2,2,1,-1,-1,-1,3,-4
1511759892330847,1,0,1,-1,-2,-1,1,-3
1511759892330847,-4,3,-4,-4,0,-1,-5,1
1511759892345858,-4,0,-3,-4,0,-3,-4,-1
1511759892345858,2,-6,-1,-3,-1,-4,4,-1
1511759892346858,-3,-5,-2,-1,-2,0,0,-2
1511759892346858,-4,1,0,-1,0,3,-5,1
1511759892368875,-1,-2,0,0,-2,1,-2,1
1511759892368875,2,-5,-3,-1,-1,1,2,-5
1511759892371890,1,-1,-2,-2,1,-3,0,0
1511759892371890,-4,3,0,-3,-1,1,-2,3
1511759892381888,-2,1,-1,-4,-2,-3,-5,1
1511759892381888,2,-2,-1,1,-3,-8,2,-4
1511759892390888,2,-2,-1,3,0,-6,0,-1
1511759892390888,-4,-1,-2,-1,0,0,-5,2
1511759892405917,-3,1,-2,-1,-1,1,2,-3
1511759892405917,2,-2,0,0,-1,0,4,-5
1511759892407907,0,-3,-2,-2,-1,-1,-2,1
1511759892407907,-5,1,-2,-4,-2,4,-7,0
1511759892427924,-4,-2,-1,-3,-3,2,-2,1
1511759892427924,1,-3,-2,-1,-2,0,3,-3
1511759892429927,1,1,-1,2,0,-2,-1,-1
1511759892429927,-4,3,-1,0,-3,3,-6,1
1511759892441938,-2,-2,0,0,-2,-3,-1,-2
1511759892441938,2,-4,0,-2,0,-3,5,-4
1511759892450943,2,-6,-1,0,-3,2,1,-2
1511759892450943,-3,-1,1,-3,-2,-1,-6,3
1511759892465951,-1,-1,-3,1,-4,-1,-1,2
1511759892465951,3,-2,-1,-1,-1,-4,5,-5
1511759892467952,0,1,-4,-4,1,0,1,-1
1511759892467952,-4,3,0,-3,0,-3,-8,-1
1511759892487957,-3,-1,-1,-2,-2,-2,0,0
1511759892487957,2,-4,-2,3,-3,-6,2,-4
1511759892489960,2,-2,-1,0,-3,1,2,1
1511759892489960,-3,0,-1,0,0,2,-5,2
1511759892501977,1,0,2,-2,-1,1,-2,-1
1511759892501977,-1,-4,-1,-2,-3,3,3,0
1511759892516989,1,-1,-2,-1,2,0,0,-3
1511759892516989,-4,-1,-1,-2,-1,-2,-4,-1
1511759892525984,-2,-1,-3,-1,1,-3,-1,-2
1511759892525984,3,-5,0,-3,-2,-2,5,-4
1511759892526994,-3,0,-2,1,2,-1,-1,-2
1511759892526994,-2,1,0,-2,0,0,-3,2
1511759892547999,-3,0,-2,-2,-1,-2,-1,-2
1511759892547999,4,-4,-1,2,0,-2,5,-7
1511759892550000,-4,-3,-1,4,-1,-2,-3,-1
1511759892550000,-5,3,0,-2,0,-2,-6,2
1511759892562019,-2,1,0,-4,-3,-2,-1,-2
1511759892562019,1,-3,0,-3,-2,-4,5,-1
1511759892571016,2,-2,-2,0,1,5,-2,-1
1511759892571016,-5,0,-1,0,-2,4,-6,2
1511759892586026,-1,0,0,1,-2,2,-2,0
1511759892586026,5,-5,-2,-2,-1,-4,1,-5
1511759892587027,-1,-6,0,-3,-2,-5,-1,-4
1511759892587027,-5,5,0,-1,0,-2,-7,2
1511759892608042,-3,2,0,-3,0,-3,1,2
1511759892608042,0,-1,0,3,-2,-6,4,-3
1511759892611053,-2,3,0,-1,-1,-4,-2,1
1511759892611053,-4,3,-4,-1,0,3,-4,0
1511759892622063,-1,0,-1,-1,-1,0,-3,-1
1511759892622063,2,-4,-2,-3,-2,0,3,-4
1511759892631058,0,-5,0,-2,-1,0,-1,0
1511759892631058,-5,-3,-1,-2,-3,2,-4,1
1511759892646080,-2,2,-2,-1,-2,-1,-1,1
1511759892646080,0,-5,-1,3,0,0,2,-3
1511759892647069,0,-3,-3,0,-3,2,-2,-2
1511759892647069,-4,3,1,-4,-2,-2,-4,6
1511759892668093,-1,-3,0,0,-2,-3,-3,-2
1511759892668093,4,-4,-4,-1,-2,-5,4,-5
1511759892670086,1,-1,-2,3,-1,-2,4,-3
1511759892670086,-1,0,-4,1,0,3,-5,0
1511759892682095,-2,-1,-1,-3,-1,0,-2,0
1511759892682095,3,-1,0,-2,-3,3,2,-1
1511759892691112,-1,-1,0,0,1,-2,-2,-3
1511759892691112,-6,2,0,-4,1,3,-4,1
1511759892706123,0,-1,-3,-3,-1,-2,0,1
1511759892706123,3,-3,-1,2,0,-3,5,-5
1511759892707113,1,-1,-2,1,1,1,0,-1
1511759892707113,-5,-1,-1,1,-1,-1,-5,2
1511759892728139,-4,-2,0,0,-2,-3,-3,0
1511759892728139,2,-2,0,-2,-2,-5,2,-3
1511759892734142,-1,-2,-1,-1,-2,-2,-1,0
1511759892734142,-6,2,-1,-4,0,2,-8,0
1511759892742148,-1,0,-1,-3,-1,-2,1,0
1511759892742148,3,-3,-1,2,-2,-3,6,-3
1511759892751155,0,-2,-2,-3,1,-4,1,-3
1511759892751155,-2,4,1,-1,-1,2,-4,3
1511759892766165,0,1,3,0,-3,2,0,0
1511759892766165,2,-3,-3,2,1,0,1,-3
1511759892767155,0,0,-1,2,-2,1,-2,0
1511759892767155,-6,-1,0,0,-1,-1,-7,2
1511759892788180,-2,-1,-1,-3,-1,-2,-1,0
1511759892788180,3,-4,-4,-2,0,-6,4,-4
1511759892790180,0,-2,-2,-7,2,-1,0,-2
1511759892790180,-5,-1,-2,-4,-2,-2,-4,3
1511759892811203,0,-3,0,-1,-1,4,0,0
1511759892811203,2,-2,0,3,-1,-3,3,-4
1511759892812187,-1,3,0,0,-1,-2,-2,-1
1511759892812187,-3,4,-1,-1,1,3,-6,0
1511759892826195,-3,-1,-2,-1,-1,-4,-1,0
1511759892826195,3,-8,0,1,-1,-4,2,-3
1511759892827197,1,-3,-3,-2,-1,-5,-2,0
1511759892827197,-3,1,-3,-2,-2,-2,-4,1
1511759892848223,0,1,-1,-1,-3,-1,3,0
1511759892848223,3,-2,-1,-1,-2,3,3,-4
1511759892850225,0,-3,0,2,1,1,-1,1
1511759892850225,-4,0,-1,-2,-2,0,-6,-1
1511759892871233,-1,0,0,-3,0,-5,-2,-3
1511759892871233,1,-3,1,-2,-1,1,3,-4
1511759892872228,0,-2,-1,0,0,3,0,0
1511759892872228,-2,3,-1,-4,0,1,-4,4
1511759892886238,0,2,-1,0,-4,-7,0,-2
1511759892886238,4,-2,-1,2,2,-7,2,-4
1511759892887241,-3,-4,-2,3,0,0,-2,-2
1511759892887241,-4,1,-1,1,0,-1,-7,3
1511759892908263,0,-1,-2,0,-4,-4,-1,-1
1511759892908263,2,-3,-1,-2,0,-5,4,-2
1511759892910265,-1,0,0,0,0,-1,0,0
1511759892910265,-6,0,-1,-1,-1,1,-2,1
1511759892930268,0,0,-2,-2,-3,-1,0,-1
1511759892930268,1,-2,-1,2,1,-1,4,-4
1511759892933272,-2,-1,-1,0,-1,-4,-3,-1
1511759892933272,-6,3,0,-3,-3,-1,-6,1
1511759892945281,-1,-2,0,-1,-1,-3,0,0
1511759892945281,2,-6,-3,3,-1,-4,3,-3
1511759892952307,0,-1,-3,1,-1,1,-3,-1
1511759892952307,-2,2,-1,-5,-4,0,-6,0
1511759892968297,-2,-2,-1,-2,0,1,-3,-1
1511759892968297,2,-4,1,-1,1,-1,2,-3
1511759892972298,0,-1,-1,-3,0,-1,-2,-2
1511759892972298,-3,0,-4,-1,-2,-1,-5,1
1511759892990325,-2,-2,-1,0,-1,2,1,-2
1511759892990325,2,-3,-2,-2,-3,1,3,-2
1511759892992313,-1,1,-2,-2,-3,-1,-3,2
1511759892992313,-2,2,0,-3,-1,-1,-4,3
1511759893005332,1,-2,1,-2,-2,1,0,-2
1511759893005332,1,-4,-1,0,-1,3,3,-3
1511759893011336,1,1,-3,2,0,2,-2,-3
1511759893011336,-3,2,0,-1,-1,0,-4,2
1511759893028339,-3,3,-1,-1,-1,-5,-3,-1
1511759893028339,4,-4,-2,-2,-1,-3,2,-3
1511759893030341,-1,-2,-1,0,-1,0,-2,-2
1511759893030341,-5,1,0,-1,-2,-2,-5,3
1511759893050353,-2,-3,0,-1,0,-4,-1,0
1511759893050353,0,-4,-4,-2,0,-2,4,-3
1511759893052358,-1,-4,-3,-2,0,-1,-2,-1
1511759893052358,-5,2,-3,-2,-1,-1,-3,1
1511759893065388,0,2,-2,-3,-3,-1,2,-1
1511759893065388,3,-6,0,2,0,-1,3,-4
1511759893071370,1,-2,-1,1,1,1,-1,2
1511759893071370,-3,-1,0,-4,-2,3,-5,0
1511759893088380,0,2,-3,-3,-2,1,0,1
1511759893088380,2,0,-2,1,1,-3,4,-4
1511759893089392,0,1,0,-1,1,1,-1,0
1511759893089392,-3,3,1,-3,0,1,-4,0
1511759893110396,-1,0,0,1,0,-1,0,-2
1511759893110396,3,-2,-3,-1,-2,-2,1,-2
1511759893112410,-3,-4,-2,0,-2,-1,0,-1
1511759893112410,-4,2,-2,-2,-1,-1,-6,0
1511759893133425,-2,-3,-2,2,-2,1,-2,-5
1511759893133425,1,-2,-1,1,0,-4,3,-4
1511759893134425,0,-4,-1,0,-1,-1,0,-2
1511759893134425,-2,-1,0,-4,-1,1,-5,1
1511759893148435,0,-3,-2,-5,-1,1,0,-2
1511759893148435,2,-2,1,3,-1,-5,4,-4
1511759893149435,1,-1,-1,-2,2,-4,-3,-2
1511759893149435,-2,2,-2,0,-2,-2,-4,1
1511759893171478,2,-1,0,-1,-2,-3,-3,0
1511759893171478,2,-3,-1,1,0,-2,5,-4
1511759893172441,0,1,-2,0,-1,2,-2,2
1511759893172441,-5,3,0,0,0,2,-4,2
1511759893185459,-3,-2,1,-1,-3,-3,-1,-2
1511759893185459,3,-3,-2,0,-3,-1,2,-3
1511759893191463,0,-4,0,-2,-3,2,-1,0
1511759893191463,-3,-1,-1,-2,-2,-2,-4,1
1511759893215482,3,-5,0,0,-1,-2,1,-1
1511759893215482,2,-2,-2,1,1,-3,1,-2
1511759893217484,-3,3,-1,-3,-1,-3,-2,1
1511759893217484,-5,1,-1,-3,-1,-4,-5,1
1511759893230490,-1,1,-1,-2,0,-5,2,1
1511759893230490,2,-5,-3,0,-1,1,0,-5
1511759893232492,-1,0,-1,-2,-1,1,-4,0
1511759893232492,-6,0,-1,-1,-2,3,-4,1
1511759893244500,0,-4,0,4,-1,0,2,-1
1511759893244500,0,-1,-1,2,0,-1,3,0
1511759893252497,-3,-2,-1,2,2,-3,1,-1
1511759893252497,-3,0,-1,-2,-1,1,-5,1
1511759893268510,0,-2,-1,0,-3,-2,-1,-3
1511759893268510,1,-5,-1,1,-1,-3,0,-2
1511759893269519,-1,-1,-2,-1,1,1,-2,-1
1511759893269519,-6,-1,0,-1,-4,-4,-2,1
1511759893290523,1,1,-2,-2,-1,0,0,-4
1511759893290523,1,-1,-1,-1,0,-1,1,-2
1511759893292524,-1,2,-2,-1,0,-6,-4,-1
1511759893292524,-3,1,1,0,-2,0,-3,1
1511759893313552,2,-4,-3,-4,-1,-2,2,-1
1511759893313552,1,-4,-1,1,2,3,1,-3
1511759893314541,-2,1,-2,0,-2,4,-4,-1
1511759893314541,-2,1,-1,1,-2,0,-4,1
1511759893328551,-3,0,1,1,-3,-4,1,-1
1511759893328551,1,-2,-1,-1,0,-6,2,-1
1511759893329563,-2,-1,0,0,-1,3,-2,1
1511759893329563,-2,-1,-1,-6,-2,3,-4,-1
1511759893350575,-1,-1,0,0,-2,-2,1,-2
1511759893350575,2,-3,-1,0,-2,-4,0,-3
1511759893352584,-2,-1,-2,0,-2,-4,-4,2
1511759893352584,-2,2,2,-4,-2,1,-2,2
1511759893364588,0,0,-3,-4,-3,1,2,1
1511759893364588,-1,-4,-2,-1,0,1,2,-4
1511759893374595,-4,-4,0,0,1,1,-5,-2
1511759893374595,-4,1,0,-3,-2,0,1,-1
1511759893388593,1,-3,-1,-2,-2,-3,2,-2
1511759893388593,2,-4,0,2,-1,-5,1,-3
1511759893390593,-1,0,-2,-2,1,-1,-5,-1
1511759893390593,-1,1,-3,-2,-1,-5,-3,2
1511759893410609,0,-3,0,0,-1,-1,1,-3
1511759893410609,1,-4,-2,1,1,3,-1,-3
1511759893412611,-3,1,0,2,1,3,-3,1
1511759893412611,-3,1,-2,2,-2,0,-4,1
1511759893424631,1,-2,-1,-3,-2,-5,3,-4
1511759893424631,1,-3,-3,0,0,-3,2,0
1511759893433637,-1,-1,-1,-2,-1,-2,-3,-1
1511759893433637,-2,4,-2,-2,-2,-2,-2,2
1511759893455650,2,-2,-2,0,1,0,1,-2
1511759893455650,1,-1,0,3,-1,1,2,-1
1511759893457651,-3,1,-2,-4,0,-1,-2,1
1511759893457651,-3,1,-3,-4,-3,-2,-4,-1
1511759893470652,-1,0,0,-3,-2,-1,2,-2
1511759893470652,2,-5,0,1,-1,0,2,-3
1511759893472661,-1,-4,-2,3,2,3,-3,2
1511759893472661,-3,1,-1,-1,-1,-2,-4,1
1511759893484670,-1,-3,-1,0,-2,-6,3,-1
1511759893484670,2,-3,-2,-2,0,-5,1,-1
1511759893493683,-3,1,-1,-1,-3,-2,-3,1
1511759893493683,-4,2,1,-3,0,1,-2,-1
1511759893508677,2,-1,-1,0,-2,1,0,-5
1511759893508677,1,-2,-3,-3,0,0,-1,-2
1511759893510681,-5,2,-4,-1,0,1,-4,1
1511759893510681,-2,4,-2,-1,-1,-2,-5,1
1511759893530693,2,-1,0,-1,-3,-6,3,-1
1511759893530693,2,-6,-1,3,0,-2,3,-2
1511759893532695,0,-2,-2,1,-1,1,-3,-2
1511759893532695,-3,-4,1,-2,-3,2,-5,2
1511759893544703,1,-3,1,-2,-3,-3,2,-3
1511759893544703,0,-5,0,-1,0,1,-1,-3
1511759893553709,-3,2,-2,-4,-2,2,-5,0
1511759893553709,-1,-1,-2,0,-1,-3,-2,0
1511759893568719,3,1,-2,-1,3,-3,3,-2
1511759893568719,0,2,-1,1,0,-3,1,-3
1511759893569724,-6,2,-1,-1,0,1,-4,1
1511759893569724,-5,2,1,-4,2,1,0,0
1511759893590748,0,-4,1,2,-4,-5,1,-3
1511759893590748,1,-1,-2,-2,-1,-4,1,0
1511759893592749,-1,1,0,2,2,1,-6,3
1511759893592749,-1,-2,1,-2,-2,0,-2,-1
1511759893604757,2,-7,-1,-1,-2,0,3,-2
1511759893604757,1,-1,1,-1,2,0,0,-6
1511759893613772,-3,1,-4,-4,-3,-2,-4,0
1511759893613772,-3,0,-3,-3,-4,-3,-2,-3
1511759893627775,-1,-2,-1,-1,-2,-6,3,-3
1511759893627775,2,-3,-2,2,-3,-3,1,-2
1511759893629774,-2,5,0,1,3,2,-3,0
1511759893629774,-1,-1,-1,-2,-2,1,-2,2
1511759893649791,1,-3,0,-4,-4,0,2,-2
1511759893649791,-1,-3,-3,1,1,3,-1,-1
1511759893658795,-3,1,0,0,1,3,-5,1
1511759893658795,-2,2,-2,-2,-2,-5,0,1
1511759893664805,3,-3,-2,0,-1,-4,2,-3
1511759893664805,-1,-3,-1,1,0,-1,-1,-1
1511759893674810,-2,-3,0,0,0,1,-7,0
1511759893674810,-3,-1,1,0,-1,0,-2,-3
1511759893688808,0,-5,0,1,0,-4,3,-3
1511759893688808,0,-2,-1,-1,0,-4,1,-1
1511759893690805,-3,0,0,-2,0,-1,-5,2
1511759893690805,-3,2,1,-3,-3,2,-3,-1
1511759893710833,1,-2,0,-1,0,-2,1,-4
1511759893710833,0,-2,-1,1,-1,-2,1,0
1511759893712833,-4,-1,1,-2,0,-1,-2,1
1511759893712833,-1,-1,-3,-4,-3,-1,-3,1
1511759893732835,1,-1,0,3,0,-1,4,-3
1511759893732835,1,-1,-2,1,-3,1,0,-3
1511759893734837,-2,0,-2,-2,-1,0,-4,0
1511759893734837,-4,-1,-1,-1,0,1,-1,1
1511759893747858,2,-3,-3,-2,-2,-2,6,-4
1511759893747858,-1,-4,0,-3,2,-3,1,-2
1511759893749860,-5,-1,-1,0,-1,1,-4,2
1511759893749860,-2,-1,0,-2,-1,-2,-2,1
1511759893770875,1,-2,-2,1,-2,-2,1,-5
1511759893770875,2,0,-2,-1,-3,-1,-1,-3
1511759893771875,-4,-1,-2,-1,2,3,-6,0
1511759893771875,-4,1,-1,1,-1,-2,0,0
1511759893792890,4,-3,-1,-3,-1,-2,3,-3
1511759893792890,-2,-1,-1,0,3,1,0,-4
1511759893794892,-3,2,-2,-3,0,1,-4,3
1511759893794892,-2,2,0,-2,-5,-3,-2,0
1511759893807890,2,-3,2,-2,-3,0,3,-2
1511759893807890,0,-2,-1,0,1,-2,-1,-2
1511759893809902,-4,-1,-1,-1,0,0,-6,2
1511759893809902,-2,0,-2,-2,-1,-1,0,0
1511759893830906,2,-2,-2,1,-3,-1,2,-2
1511759893830906,0,-4,-1,0,1,1,-1,-2
1511759893831907,-3,-1,-2,-1,0,0,-5,-1
1511759893831907,-2,-1,0,0,-2,-5,-1,-3
1511759893852946,1,-2,-3,-1,-1,-2,4,-4
1511759893852946,-2,-5,-3,-2,-1,3,1,0
1511759893854922,-4,2,-2,-2,-4,0,-5,2
1511759893854922,-1,4,-1,-1,-3,-1,0,2
1511759893866940,3,2,-1,0,-1,-4,0,-6
1511759893866940,2,1,-3,1,-1,2,-1,-1
1511759893873936,-3,-2,1,-2,-1,2,-5,2
1511759893873936,-1,-5,-1,-3,-2,1,0,2
1511759893890959,-2,-7,0,-4,-1,-8,3,-3
1511759893890959,0,-4,-3,-2,0,-4,0,-1
1511759893891960,-4,3,-3,-2,1,-3,-8,2
1511759893891960,-3,1,0,-1,1,-2,-3,-2
1511759893912972,1,-4,-1,3,-1,-2,3,-3
1511759893912972,0,-1,-2,1,-1,0,-1,-3
1511759893914974,-3,5,-1,-1,1,4,-5,3
1511759893914974,-2,0,-2,-2,0,-1,-3,0
1511759893927983,1,-3,-2,-1,-1,-2,6,-4
1511759893927983,-1,-3,2,-3,1,-1,0,-2
1511759893933977,-3,-1,-1,-3,-2,2,-4,2
1511759893933977,-2,-1,0,0,-2,2,-4,0
1511759893950998,1,-3,-2,-3,-1,-1,4,-2
1511759893950998,0,0,-2,2,2,-2,-1,-2
1511759893952992,-5,4,-1,0,-1,-2,-6,0
1511759893952992,-4,2,-4,0,0,-1,0,0
1511759893973017,2,-3,-2,-2,-3,-1,5,-3
1511759893973017,3,-4,0,-3,-2,-1,-1,-1
1511759893976020,-3,0,-1,-1,-2,0,-4,2
1511759893976020,-3,-1,2,-1,-2,1,-1,-1
1511759893988015,1,-3,-1,1,-1,-5,1,-5
1511759893988015,1,0,-1,-1,2,0,-1,-1
1511759893994020,-4,0,-3,-2,1,0,-6,4
1511759893994020,-1,1,0,-6,-1,-1,-1,-1
1511759894011044,2,-2,0,0,-2,-4,5,-3
1511759894011044,1,-2,-2,0,-1,-2,2,-2
1511759894012044,-4,-1,-2,-1,-2,1,-6,0
1511759894012044,-5,0,1,1,-3,0,-3,0
1511759894033057,1,-7,-2,-1,-1,-1,3,0
1511759894033057,-2,-5,-2,0,-2,-4,-2,-2
1511759894036063,-4,1,0,-3,1,1,-3,2
1511759894036063,0,-1,-3,-3,-1,-2,-2,1
1511759894047075,4,-1,2,-2,0,-2,-1,-3
1511759894047075,0,0,-3,4,-2,-1,-1,-2
1511759894054064,-2,1,0,-3,-1,-2,-6,1
1511759894054064,1,0,-1,-2,-2,1,-3,1
1511759894071086,3,-3,1,-2,-1,2,4,-2
1511759894071086,-1,-1,0,-1,2,0,0,2
1511759894072075,-4,1,0,-2,-1,3,-6,1
1511759894072075,0,1,-1,-4,-2,-2,-2,0
1511759894093105,0,-3,-3,0,0,-2,6,-4
1511759894093105,1,-3,-1,0,0,1,0,-3
1511759894095106,-2,1,-2,-2,1,-1,-4,1
1511759894095106,-2,-3,-2,0,-2,-1,-1,-2
1511759894107100,2,-4,-1,2,0,-3,3,-3
1511759894107100,-1,-2,-1,-1,-2,-4,1,-2
1511759894114117,-4,4,0,0,-1,2,-4,2
1511759894114117,-1,-2,-3,-1,-2,-4,-4,-2
1511759894131117,2,-5,-1,0,-1,-4,2,-4
1511759894131117,1,-1,-2,-1,-1,-3,0,-1
1511759894132117,-2,0,0,0,0,1,-7,1
1511759894132117,-3,-2,-1,0,1,-1,-1,1
1511759894153134,-1,-4,-1,-1,-1,-3,6,-4
1511759894153134,-1,-4,0,-5,0,-3,-1,-2
1511759894156135,-2,2,-2,-3,-2,-1,-6,2
1511759894156135,-4,1,1,-2,-3,-2,2,-1
1511759894167151,1,0,-4,-1,-2,-2,2,-4
1511759894167151,-2,-2,-1,1,-1,0,-2,-2
1511759894174147,-6,0,-1,-1,-2,6,-6,2
1511759894174147,-1,-3,0,-2,-1,3,0,0
1511759894191171,3,-6,1,-1,-2,-1,4,-3
1511759894191171,0,-2,-2,1,1,2,0,-1
1511759894192160,-6,-1,-1,-1,-2,-1,-8,0
1511759894192160,0,-2,0,-3,-3,-3,-2,-1
1511759894213187,2,-2,-1,0,-1,-5,4,-6
1511759894213187,1,-3,-1,-1,0,0,0,-3
1511759894215188,-5,2,1,-3,-1,2,-4,1
1511759894215188,-2,0,1,1,-3,-1,-2,0
1511759894227197,3,-4,0,3,-3,-4,4,-3
1511759894227197,-2,0,0,1,2,2,-1,-1
1511759894236214,-5,1,-3,0,0,0,-3,1
1511759894236214,0,2,0,-4,0,-2,-3,0
1511759894251202,4,-2,-2,-4,-2,-8,3,-4
1511759894251202,0,-2,-2,-2,-1,-2,-2,0
1511759894252203,-3,2,-2,-3,0,0,-5,3
1511759894252203,0,-1,1,-2,-3,0,2,-1
1511759894273233,0,-4,0,1,0,-3,2,-2
1511759894273233,1,2,-2,1,-1,-5,1,-1
1511759894275229,-5,3,-1,-4,-2,1,-6,4
1511759894275229,-3,1,-2,1,-3,-1,-2,-2
1511759894287238,1,-3,-1,0,1,-1,1,-3
1511759894287238,1,-5,-1,2,0,1,-1,1
1511759894296243,-2,0,0,0,-1,0,-4,2
1511759894296243,-3,1,-2,-1,-2,-4,-2,1
1511759894310253,-1,-3,-2,-1,-1,1,3,-1
1511759894310253,2,0,-1,-2,-1,0,1,0
1511759894312254,-2,1,1,0,-1,2,-6,-1
1511759894312254,-1,-1,1,1,-3,0,1,-1
1511759894333259,3,-4,-3,-2,-1,-1,5,-3
1511759894333259,-2,-2,-1,-1,0,0,-1,0
1511759894335261,-2,-1,-1,-4,-1,0,-4,3
1511759894335261,-2,1,1,-1,-3,-3,-2,-2
1511759894347279,4,-4,-4,2,-3,-3,0,-4
1511759894347279,2,-2,-1,0,-2,-1,-3,-1
1511759894356292,-5,0,-2,-3,1,-2,-7,4
1511759894356292,-3,-1,0,-3,1,-2,-1,-1
1511759894370291,2,-1,-1,-4,-2,-1,6,-3
1511759894370291,1,0,-1,-2,0,3,0,-3
1511759894372287,-4,3,-2,-2,1,-2,-7,2
1511759894372287,-3,-2,-1,-2,-2,-3,0,-1
1511759894393312,2,-4,1,1,-1,0,5,-6
1511759894393312,-2,-4,-1,3,-3,-3,0,-2
1511759894395313,-5,1,1,0,0,1,-5,2
1511759894395313,2,-2,-2,-3,0,0,-2,1
1511759894407312,4,-3,2,3,-1,-5,2,-2
1511759894407312,-3,-3,-3,-1,0,0,-2,1
1511759894415327,-3,3,-1,-2,-2,1,-3,1
1511759894415327,-1,0,-1,-4,-2,0,-1,1
1511759894430337,2,-3,-1,0,0,-1,4,-3
1511759894430337,1,2,-2,-3,0,0,0,-2
1511759894432341,-6,2,-2,0,-3,0,-4,2
1511759894432341,-1,-2,0,0,-2,1,-1,0
1511759894453364,3,-1,-3,-1,-1,0,3,-3
1511759894453364,-1,-1,-2,0,-1,0,-2,-2
1511759894454347,-3,0,-2,-1,-2,-1,-6,1
1511759894454347,-2,-2,-1,-3,-4,-2,-2,-1
1511759894468355,2,-4,-2,0,1,-2,4,-3
1511759894468355,-1,-1,0,1,1,-2,0,-1
1511759894476370,-5,0,-2,-3,-2,2,-5,1
1511759894476370,0,-2,2,-2,-1,-2,0,-2
1511759894490382,2,-7,-1,2,-1,-6,3,-4
1511759894490382,-1,-3,-3,-1,1,1,-3,0
1511759894492371,-6,-2,0,-3,0,-2,-2,-1
1511759894492371,-3,3,-2,-1,-2,-3,1,0
1511759894513397,1,0,-2,-1,-2,-2,3,-3
1511759894513397,1,-1,-3,-1,0,-1,-1,0
1511759894514387,-3,1,0,-1,-1,0,-6,1
1511759894514387,-2,0,-1,-1,-2,-2,-2,0
1511759894526406,2,-4,0,2,0,-2,0,-4
1511759894526406,-2,2,-2,-1,1,-2,-2,-3
1511759894535414,-2,4,-1,-6,-2,0,-6,3
1511759894535414,1,-1,-2,-2,0,-1,1,-1
1511759894550422,3,-1,-2,2,-2,-1,3,-2
1511759894550422,-1,-4,0,1,-1,1,-1,0
1511759894552414,-2,1,1,-2,-2,3,-5,1
1511759894552414,1,-3,-1,0,-2,2,0,-1
1511759894573438,2,-3,-1,0,-1,1,4,-3
1511759894573438,-1,0,-5,1,-2,-4,-1,1
1511759894574448,-4,-1,0,-1,-1,0,-4,2
1511759894574448,1,0,0,-2,1,-3,-1,0
1511759894587440,1,-3,-2,-2,2,-4,3,-5
1511759894587440,-1,0,-2,-2,-1,-1,-3,-1
1511759894595454,-3,1,0,-1,-2,0,-4,2
1511759894595454,-3,2,-1,-3,-3,-1,-1,-1
1511759894610455,2,-2,-2,1,-1,-3,4,-3
1511759894610455,-1,-1,-1,-2,0,-1,-1,-1
1511759894612458,-2,0,0,0,1,2,-3,2
1511759894612458,-1,-1,0,0,-2,-2,0,-2
1511759894633483,1,-5,-2,-1,-1,-1,5,-7
1511759894633483,-2,-2,-1,-1,0,5,-2,0
1511759894634472,-6,1,-2,-4,-5,3,-5,2
1511759894634472,1,2,2,1,-2,-3,1,0
1511759894646493,4,-1,0,2,-1,0,1,-1
1511759894646493,1,-1,-3,0,1,-4,-3,0
1511759894655499,-4,1,-1,-2,-2,-3,-6,2
1511759894655499,-3,1,-3,0,-1,-3,0,-2
1511759894670500,1,-3,-1,2,-2,-5,2,-3
1511759894670500,-1,-3,1,-1,-2,-1,0,-2
1511759894672500,-3,0,-3,-2,0,4,-5,3
1511759894672500,1,-5,-1,-2,-1,-1,-2,-3
1511759894693528,2,-5,0,-1,0,-1,3,-3
1511759894693528,-1,-2,0,-1,0,-2,0,-1
1511759894695525,-4,5,1,-2,-2,-2,-3,2
1511759894695525,-1,1,-1,-3,-2,-5,0,1
1511759894715539,1,-2,-1,1,0,-2,3,-3
1511759894715539,-1,-2,0,-2,-1,2,0,-1
1511759894717540,-4,-1,-2,-3,-2,-1,-2,-2
1511759894717540,-2,-4,-1,-1,-2,-4,0,-2
1511759894729552,1,-4,-2,-3,-2,-3,1,-1
1511759894729552,-2,0,-3,1,-1,0,-1,0
1511759894737549,-2,0,1,3,-4,2,-4,3
1511759894737549,1,-1,-2,1,-2,5,-2,-3
1511759894753557,2,-2,-2,0,0,-1,3,-3
1511759894753557,0,-2,-3,-3,0,-3,-4,-2
1511759894754559,-3,0,-1,-3,-1,-4,-4,1
1511759894754559,-1,0,-1,-1,-3,-3,2,-2
1511759894775582,3,-2,1,-2,0,-2,1,-3
1511759894775582,-1,2,-1,-1,-1,0,-1,0
1511759894778584,-3,0,2,-4,-2,-1,-5,0
1511759894778584,0,-4,1,0,2,0,1,-2
1511759894790582,2,-3,-3,0,-1,-5,1,-4
1511759894790582,-1,1,-1,-2,1,-2,-3,0
1511759894792596,-5,3,-4,-4,-2,-1,-2,0
1511759894792596,-3,1,-1,-2,-3,-2,1,1
1511759894813613,-1,-4,-3,3,-1,0,4,-2
1511759894813613,0,-2,1,1,0,-1,-1,-3
1511759894814599,-3,-2,-3,-2,-1,0,-3,3
1511759894814599,-2,-4,-2,-2,-2,1,-1,0
1511759894835624,1,-3,1,0,0,1,2,-3
1511759894835624,1,-1,0,-2,-1,2,-3,-2
1511759894837619,-4,3,-3,-1,-2,0,-4,2
1511759894837619,0,-1,-1,-2,-2,-2,1,-3
1511759894849635,0,-2,-3,-2,-1,-1,2,-4
1511759894849635,-3,-4,0,1,-2,4,-3,2
1511759894856641,-1,1,2,-5,0,1,-4,0
1511759894856641,0,-1,-1,-2,-2,-2,3,-3
1511759894873660,2,-3,0,0,-1,-3,2,-3
1511759894873660,-4,3,-3,0,-2,0,-2,1
1511759894875665,-5,2,0,2,-2,-2,-5,1
1511759894875665,-1,-3,0,0,-2,-3,0,-3
1511759894895669,2,-4,-3,0,0,-1,0,-3
1511759894895669,-1,-1,-3,-1,-1,1,-2,1
1511759894897671,-2,0,-1,-3,-2,0,-5,0
1511759894897671,1,-1,0,0,-2,-1,1,0
1511759894909684,3,-5,-1,-1,-1,-8,3,-3
1511759894909684,-2,0,-2,2,2,-5,-3,1
1511759894916681,-3,5,-4,-2,0,-5,-1,1
1511759894916681,0,-2,-1,-4,0,-2,-1,-1
1511759894932684,0,-2,-1,-1,0,5,0,-2
1511759894932684,1,-2,1,1,-2,2,-5,1
1511759894934685,-2,0,0,-1,-3,1,-4,-2
1511759894934685,-2,1,-1,2,-2,-1,1,-2
1511759894955698,1,1,-2,3,1,-2,1,-4
1511759894955698,0,-1,-2,-3,2,-1,-3,0
1511759894957700,-3,1,-1,0,-2,2,-4,0
1511759894957700,0,-1,1,-4,0,-3,3,0
1511759894970711,0,-4,-2,3,-1,-2,2,-2
1511759894970711,-3,-2,-2,-3,1,-2,-3,-1
1511759894976726,-4,-1,-1,-3,-3,-2,-4,-1
1511759894976726,2,-2,-3,-2,-5,-5,1,-3
1511759894992735,2,-3,2,-1,3,-4,-2,-2
1511759894992735,-1,2,-2,0,-2,1,-1,-2
1511759894994733,-3,-1,-1,-2,-2,1,-2,2
1511759894994733,2,0,-1,0,0,0,0,-2
1511759895015754,1,-4,-3,-1,0,1,2,-1
1511759895015754,-2,0,-1,1,-2,-4,-5,0
1511759895017755,-3,-3,1,-6,-1,-2,-2,3
1511759895017755,1,-1,-2,1,-2,-5,1,-1
1511759895029760,0,-4,-1,0,0,-1,2,-4
1511759895029760,-1,-1,-1,-1,1,1,-3,-1
1511759895036766,-4,2,-2,0,-2,-1,-4,0
1511759895036766,-1,-3,2,0,-4,3,3,-4
1511759895053770,1,-1,-3,-1,0,-1,2,-6
1511759895053770,-2,-1,-1,-2,0,0,-2,1
1511759895054771,-2,2,-3,-3,-1,-2,-3,0
1511759895054771,2,-5,-2,-1,-1,-2,1,-2
1511759895075795,-2,-3,0,0,-1,0,3,-1
1511759895075795,-4,3,-2,-2,-1,-1,-4,0
1511759895079787,-1,4,-4,-5,-1,-2,-3,2
1511759895079787,1,-1,0,-2,1,-3,0,-2
1511759895089806,-1,-1,-1,3,-2,-2,1,-5
1511759895089806,-4,0,-1,1,0,5,-2,1
1511759895096811,-3,0,-1,-1,-2,3,-2,-1
1511759895096811,2,-1,-3,-2,-3,-2,1,-4
1511759895112822,1,-6,0,0,-2,-3,-1,0
1511759895112822,-2,-3,0,-3,0,-1,-3,1
1511759895119844,-4,0,1,-3,-2,0,-2,0
1511759895119844,2,-3,0,-1,1,-3,3,-4
1511759895135840,2,-2,-1,-3,-2,-3,2,-3
1511759895135840,-4,-1,-3,0,-3,2,-3,0
1511759895137828,-3,0,0,-1,-1,0,-2,1
1511759895137828,-1,-3,-1,-1,-1,-5,3,-5
1511759895149849,2,-3,-2,-4,0,-2,1,-4
1511759895149849,-1,2,-2,-2,0,2,-5,2
1511759895156841,-2,2,0,0,-2,-1,-1,-2
1511759895156841,0,-1,-1,5,-3,-1,3,-1
1511759895171856,0,-1,0,1,1,2,0,-3
1511759895171856,-1,0,0,-4,1,1,-1,-1
1511759895180870,0,-2,1,-2,-1,1,-3,0
1511759895180870,1,-2,-1,-5,-2,1,3,-1
1511759895195878,2,-3,-3,2,-2,-3,0,-2
1511759895195878,-2,3,-3,2,-1,-2,-5,1
1511759895196879,-6,0,-2,-1,-2,-4,-3,2
1511759895196879,1,-2,0,-1,0,-5,5,-5
1511759895209896,1,-4,-2,0,2,2,-2,2
1511759895209896,-3,-1,0,-2,0,1,-4,2
1511759895217896,-1,-1,0,-1,-1,0,-4,1
1511759895217896,-1,-3,1,-2,-4,-2,-1,-2
1511759895232907,2,0,-2,0,0,0,-2,-3
1511759895232907,-1,2,-1,0,-1,-1,-3,1
1511759895234905,-1,0,-3,1,-1,-3,-1,-2
1511759895234905,1,-5,0,-2,-1,-7,0,-4
1511759895255913,1,-3,-1,0,1,-2,3,0
1511759895255913,-5,0,-3,0,1,2,-8,3
1511759895256912,-1,0,0,-2,-4,1,0,1
1511759895256912,0,-5,0,1,-4,-1,2,-2
1511759895268950,-1,-1,-2,-1,-1,-3,1,-4
1511759895268950,-4,-1,0,0,0,1,-5,1
1511759895278927,-2,-2,0,-4,-1,3,-2,4
1511759895278927,3,0,-2,2,0,-3,1,-2
1511759895292949,0,-4,0,-4,0,-4,1,0
1511759895292949,-2,-2,1,-2,0,-2,-3,3
1511759895294950,-2,0,-1,-2,-2,-2,-3,-3
1511759895294950,1,-5,-4,0,-1,1,7,-3
1511759895315954,-2,-1,-3,1,0,3,-1,-2
1511759895315954,-2,1,-3,0,0,2,-4,-1
1511759895316954,0,-1,2,-2,-3,-1,-2,-1
1511759895316954,2,2,0,-1,0,-2,2,-4
1511759895328975,-1,1,-3,0,0,-3,-1,-3
1511759895328975,-4,0,1,-3,2,0,-4,1
1511759895337972,1,-3,-1,-2,-2,-4,-2,1
1511759895337972,1,-6,-2,-1,-2,-3,1,-4
1511759895353986,1,-3,-2,1,-2,3,1,-3
1511759895353986,-5,5,-1,-3,-1,2,-7,2
1511759895354982,-3,2,-1,0,-1,-5,0,0
1511759895354982,0,-2,-2,-1,0,-4,4,-3
1511759895376005,1,-6,-1,3,-3,-2,-1,0
1511759895376005,-5,-2,-2,-3,-2,-1,-4,0
1511759895378998,-3,0,-1,-3,-4,-1,-4,1
1511759895378998,0,1,-4,-2,-1,-3,3,-3
1511759895389015,2,-1,0,0,2,-1,1,-2
1511759895389015,-4,0,-2,0,0,1,-3,0
1511759895398012,-3,1,-1,-3,-2,-2,-1,0
1511759895398012,2,-2,-2,-2,-2,-3,3,-6
1511759895412033,-2,0,1,-2,-1,0,1,-2
1511759895412033,-1,2,-2,-1,-2,0,-5,1
1511759895413041,-2,3,-1,-2,-1,0,0,0
1511759895413041,3,-3,0,-2,-2,0,5,-2
1511759895436038,0,-3,0,1,0,-1,2,-1
1511759895436038,-1,0,0,2,0,-2,-5,1
1511759895436038,-3,0,-2,-2,-2,-1,-1,0
1511759895436038,4,-5,1,1,-2,1,0,-2
1511759895457062,1,-2,-3,-2,0,-1,0,-2
1511759895457062,-4,-1,0,-1,0,0,-4,2
1511759895458068,-3,1,0,-1,-1,-4,-3,1
1511759895458068,1,-4,-1,-2,-2,-5,4,-3
1511759895472064,-1,-6,-3,-2,1,-3,1,-3
1511759895472064,-5,-2,-1,0,-1,2,-7,0
1511759895473067,-3,1,0,-3,-2,0,0,0
1511759895473067,1,-1,1,-1,1,-4,3,-5
1511759895495091,0,4,-1,1,1,-1,-1,-1
1511759895495091,-1,1,-3,-2,-2,1,-5,1
1511759895496094,-3,1,0,0,-1,1,-3,0
1511759895496094,0,-3,-2,0,-3,-1,3,-4
1511759895517108,0,-3,-1,-1,3,2,-1,-3
1511759895517108,-2,2,-1,-2,0,2,-6,2
1511759895518097,-3,1,-1,-1,-2,-1,-4,-1
1511759895518097,2,-1,-1,2,-1,-4,2,-4
1511759895534122,0,0,-2,-1,-1,-4,1,0
1511759895534122,-5,-2,-1,-3,0,1,-3,0
1511759895535108,-2,-3,-3,-4,1,3,-4,-3
1511759895535108,2,-4,-1,-2,-2,-1,3,-5
1511759895555140,2,-2,-4,1,-1,-1,-3,-2
1511759895555140,0,1,1,-1,-2,1,-4,2
1511759895556135,1,1,-2,-2,-4,-3,-1,0
1511759895556135,2,-2,-1,-2,-5,-3,4,-1
1511759895577148,1,-3,-1,-1,-1,2,0,-2
1511759895577148,-5,0,-1,-5,-1,0,-4,2
1511759895578140,-1,0,0,1,-1,-3,-3,0
1511759895578140,2,-1,-2,-1,-1,-4,4,-2
1511759895592158,-2,1,-1,-2,0,1,-1,-2
1511759895592158,-6,3,-2,-1,0,2,-5,1
1511759895593162,-3,3,0,-1,-2,-4,-1,1
1511759895593162,-1,-2,0,-1,-1,-5,4,-1
1511759895615174,-2,-4,0,0,-1,-3,1,-1
1511759895615174,-3,1,-1,-3,0,-1,-5,1
1511759895615174,-3,2,0,-2,-2,0,-2,1
1511759895615174,4,-6,0,-1,-2,0,1,-5
1511759895638185,-1,-2,0,-2,0,-2,2,-2
1511759895638185,-4,5,-2,-1,0,1,-6,1
1511759895638185,0,-3,-2,-1,-1,-2,0,1
1511759895638185,1,-1,-2,2,0,-2,4,-2
1511759895652190,0,-3,0,-1,-2,1,2,-2
1511759895652190,-4,1,1,-1,0,-1,-5,2
1511759895654194,-3,1,-1,-5,-1,-2,-2,-1
1511759895654194,1,-2,-1,0,-2,-3,4,-4
1511759895675219,0,1,-2,0,1,-3,0,-6
1511759895675219,-3,1,-2,0,-3,1,-4,3
1511759895676220,-2,-1,1,-2,-1,1,-3,-1
1511759895676220,0,-4,-2,-2,0,-1,5,-5
1511759895697234,0,-6,-2,0,1,-2,0,2
1511759895697234,-2,3,0,-1,-3,-3,-6,2
1511759895698224,-1,2,-1,-3,-1,-1,0,-4
1511759895698224,4,0,-2,-2,-2,-1,3,-3
1511759895712245,2,-4,0,1,0,1,-1,-2
1511759895712245,-2,-2,-2,0,-1,1,-4,1
1511759895713239,-3,-1,-1,-1,-2,-3,-1,-1
1511759895713239,1,-2,-3,-1,-2,-4,4,-5
1511759895735262,2,-2,-2,0,1,-3,-3,-1
1511759895735262,-2,0,-2,-3,0,4,-5,4
1511759895736253,0,-2,1,-1,-1,2,1,1
1511759895736253,2,-5,0,2,-1,-4,2,-4
1511759895757277,-2,0,-4,2,0,-3,-2,-2
1511759895757277,-6,4,-1,-2,0,4,-6,2
1511759895758278,-2,0,-2,1,-1,1,-1,0
1511759895758278,3,-3,-1,-1,-1,-3,5,-4
1511759895772284,2,-1,-2,-1,-2,2,-1,0
1511759895772284,-2,0,-2,-1,-2,1,-4,2
1511759895773276,0,-2,-2,-4,-1,0,-2,1
1511759895773276,4,-4,0,1,-2,-2,4,-3
1511759895795301,-1,-2,-2,-1,0,-2,-2,-3
1511759895795301,-5,1,-1,-5,-1,0,-4,3
1511759895795301,-4,0,0,-1,-2,-2,-1,0
1511759895795301,0,-3,-2,-3,2,-6,4,-6
1511759895817307,2,2,2,1,-3,-5,0,0
1511759895817307,-3,-2,-2,-1,-2,-2,-6,2
1511759895818308,0,-3,-2,-4,-2,-4,-4,-1
1511759895818308,1,-4,2,-1,0,2,1,-2
1511759895832334,0,1,-1,-2,-1,0,0,-3
1511759895832334,-4,3,-1,0,0,1,-4,1
1511759895833330,-4,-4,1,-1,-3,1,-2,-1
1511759895833330,0,-7,-1,-1,0,1,4,-2
1511759895855358,0,-3,1,-3,-1,1,1,-1
1511759895855358,-4,4,-3,0,0,-2,-5,0
1511759895855358,0,2,-3,-1,-3,-3,0,0
1511759895855358,2,-1,-2,0,-3,-7,1,-6
1511759895877359,1,-2,-1,0,1,0,-1,0
1511759895877359,-4,1,-3,-2,0,-2,-6,3
1511759895878352,-2,0,1,-3,-1,2,1,1
1511759895878352,0,-4,-2,4,-1,-3,4,-4
1511759895892370,-3,-3,-4,2,-1,3,1,-3
1511759895892370,-4,0,0,-4,-3,1,-9,2
1511759895893362,0,1,0,-3,-3,-1,-1,-2
1511759895893362,4,-3,-2,-2,0,-1,4,-4
1511759895915389,0,-3,-3,1,-1,-2,-1,2
1511759895915389,-1,0,-1,-1,1,0,-6,1
1511759895915389,-1,1,-2,1,-1,-3,-1,-1
1511759895915389,2,-3,0,0,1,-1,1,-1
1511759895937408,1,-1,-3,-3,2,0,1,-3
1511759895937408,-5,0,-1,-2,-3,3,-3,4
1511759895938399,-2,-1,-1,-3,-2,-3,-1,-1
1511759895938399,1,-3,-1,-1,0,-3,2,0
1511759895952421,-1,0,-1,0,1,-2,-2,0
1511759895952421,-4,3,0,0,-1,-1,-2,2
1511759895953404,-1,1,0,-3,0,-2,-3,0
1511759895953404,1,0,-1,2,-2,-4,3,-4
1511759895975422,0,-2,-2,-4,-3,1,0,-3
1511759895975422,-3,0,1,-5,-1,2,-4,0
1511759895977421,0,-2,0,1,-2,-1,-2,-1
1511759895977421,2,-7,-1,3,-1,-5,1,-2
1511759895997447,-1,-6,-1,2,1,-1,-4,-1
1511759895997447,-4,3,-1,0,0,2,-5,2
1511759895998447,-3,-1,1,-3,-4,-1,-1,-3
1511759895998447,3,0,-2,-1,0,-1,2,-5
1511759896012455,1,2,3,1,-2,-1,-1,1
1511759896012455,-5,2,-3,-1,0,0,-4,1
1511759896013455,-1,1,-3,-1,-2,-2,0,-1
1511759896013455,2,-4,-3,0,-2,-1,4,-3
1511759896034466,0,-1,-3,4,1,-4,-1,-2
1511759896034466,-4,-2,-1,-4,0,0,-6,-1
1511759896035478,0,-1,-1,-1,-3,-2,1,0
1511759896035478,1,-4,-1,-1,1,0,2,-5
1511759896057489,-2,-1,-1,2,1,0,0,-2
1511759896057489,-8,1,-2,-3,-2,4,-6,3
1511759896058489,-4,-2,-1,-2,-2,-3,-2,-3
1511759896058489,1,-2,0,-2,-2,-1,3,-4
1511759896072489,1,3,-2,1,-2,-1,-1,-3
1511759896072489,-3,2,0,1,-1,-4,-2,-1
1511759896073498,-1,-1,0,-1,0,-2,-1,0
1511759896073498,3,-5,0,0,-3,-4,5,-3
1511759896094503,0,0,1,-5,-2,5,-1,-1
1511759896094503,-4,1,-3,-4,-2,1,-8,3
1511759896095513,-1,0,-3,1,-1,-1,-2,0
1511759896095513,3,-5,-1,1,-1,-2,1,-5
1511759896118519,-1,-4,-2,1,-1,-1,0,1
1511759896118519,-4,0,-1,0,-1,-2,-3,2
1511759896118519,-2,-4,-2,-2,-1,-3,0,-3
1511759896118519,-1,-4,0,0,-1,-3,2,-4
1511759896132541,-2,-1,-2,-4,1,3,1,0
1511759896132541,-5,3,0,-3,-1,3,-5,2
1511759896133541,-1,0,1,-2,-1,2,-2,-1
1511759896133541,2,-1,-1,-1,-2,-4,5,-2
1511759896155557,-1,-1,-2,2,-2,-2,-1,0
1511759896155557,-1,0,1,-1,-2,-2,-5,2
1511759896155557,-1,0,1,-1,-1,-5,-1,0
1511759896155557,1,-1,-4,-1,-1,-6,3,-4
1511759896177571,-2,1,0,0,1,-2,-2,-1
1511759896177571,0,3,-2,-3,-2,-1,-9,2
1511759896178563,-2,0,2,-2,-2,3,0,-1
1511759896178563,4,-2,0,0,0,1,1,-1
1511759896200590,1,-4,0,-1,-2,-2,-3,-2
1511759896200590,-3,-1,-1,-3,0,1,-3,1
1511759896201590,0,-3,0,0,1,-1,2,-2
1511759896201590,3,-3,-2,1,-1,-1,5,-4
1511759896214600,-2,-3,0,-1,0,-2,-3,-1
1511759896214600,-5,5,-2,1,-1,0,-8,-1
1511759896215588,-2,-1,-3,0,-3,-2,-2,-1
1511759896215588,0,-3,-1,2,-1,-2,5,-2
1511759896238615,0,-2,-2,2,-1,2,-3,1
1511759896238615,-4,1,-1,-5,2,2,-5,3
1511759896238615,2,-3,-3,-1,-2,0,1,-2
1511759896238615,1,-2,-1,3,-2,-2,1,-5
1511759896251624,-2,0,-1,-2,-2,-2,-2,-1
1511759896251624,-5,4,3,-1,1,-4,-4,1
1511759896267637,-3,2,0,-5,1,-1,-1,-1
1511759896267637,2,-5,-1,-1,-2,-2,2,-3
1511759896274642,-3,-4,-3,0,-2,-3,0,-1
1511759896274642,-4,-3,-2,0,-3,-2,-5,2
1511759896275630,2,-1,1,1,-1,1,0,-3
1511759896275630,1,-3,1,1,1,2,2,-4
1511759896297646,0,-1,-2,1,3,-1,-4,0
1511759896297646,-4,3,0,-4,0,-1,-5,4
1511759896298646,0,0,-1,-2,-2,-3,0,0
1511759896298646,3,-5,-1,1,1,-2,3,-3
1511759896311666,-3,-3,-2,-2,2,2,1,0
1511759896311666,-2,0,-1,-1,-2,3,0,1
1511759896320683,-1,1,0,2,-2,-1,0,0
1511759896320683,3,-2,0,-1,0,1,4,-6
1511759896334684,-2,-3,0,-2,-2,-1,-1,0
1511759896334684,-3,-3,-1,-2,-2,-2,-3,0
1511759896335674,-3,0,-2,-3,-1,-5,0,-3
1511759896335674,1,-4,0,1,-1,-5,1,-3
1511759896357690,0,-1,-1,-2,1,0,0,0
1511759896357690,-1,1,0,0,-2,2,-2,2
1511759896358691,-2,1,-2,1,-5,-1,-1,0
1511759896358691,1,-1,-2,0,1,-6,-1,-3
1511759896372705,0,0,-1,2,0,2,-1,-1
1511759896372705,-3,-2,-1,-1,-1,3,-5,1
1511759896379716,-1,-3,1,-4,-3,-1,0,-1
1511759896379716,1,-4,-1,-1,-2,1,2,-3
1511759896394724,-2,0,0,-4,-2,0,-3,-1
1511759896394724,-5,1,-3,-2,-2,-1,-6,1
1511759896395715,-1,-1,1,-1,0,-4,0,-2
1511759896395715,3,-1,-2,-2,-1,-3,2,-5
1511759896417750,0,-2,-2,1,-2,1,-2,-5
1511759896417750,-4,-1,0,0,-2,1,-1,-1
1511759896418732,-2,-3,0,-1,0,2,0,-1
1511759896418732,1,-3,0,2,0,-6,3,-2
1511759896431753,-3,0,-1,1,1,-2,-3,-1
1511759896431753,-5,1,0,-4,-2,0,-3,0
1511759896439748,0,-2,-1,-4,1,-2,1,-1
1511759896439748,0,-5,0,0,-2,-1,2,-3
1511759896454765,-2,-2,-1,0,0,-2,-6,0
1511759896454765,-4,4,0,-4,0,-1,-3,1
1511759896455758,0,-1,-2,-1,-2,4,2,0
1511759896455758,0,-4,-2,2,-1,4,1,-3
1511759896477774,1,-1,-1,-1,-1,-3,-1,1
1511759896477774,-3,2,0,-4,-1,1,-5,1
1511759896478774,3,0,-1,1,-3,-5,3,-1
1511759896478774,1,-2,-3,-1,1,0,2,-3
1511759896491795,0,-2,-2,1,0,3,-3,0
1511759896491795,-4,1,-1,-3,-1,0,0,0
1511759896499801,-3,-1,-1,0,-1,-4,-1,-4
1511759896499801,-1,-5,0,1,-1,0,2,0
1511759896514810,-2,-3,-2,-3,0,1,1,1
1511759896514810,-4,-4,-2,-3,-3,-2,-3,1
1511759896515802,1,-2,-1,-3,-2,-3,-1,-2
1511759896515802,2,-3,-1,-1,1,-3,0,-4
1511759896538818,-2,0,0,1,-1,-2,-4,0
1511759896538818,-1,3,0,1,2,-2,-3,0
1511759896538818,-1,-2,0,-1,-2,-1,2,-1
1511759896538818,1,-1,-1,1,-1,-3,3,-2
1511759896560832,-3,-2,-2,0,-1,0,-1,0
1511759896560832,-1,-1,-1,-2,-2,0,-6,3
1511759896561843,-3,0,-1,0,-3,-2,0,-3
1511759896561843,1,-2,1,1,-1,-3,2,-3
1511759896574843,0,-1,1,-3,-1,0,-2,2
1511759896574843,-1,0,-2,-3,-4,0,-3,0
1511759896575852,1,-3,-1,-1,-1,0,1,-1
1511759896575852,1,-4,-3,-2,0,0,1,-3
1511759896597868,-4,-1,-1,-3,1,2,-2,1
1511759896597868,-3,2,0,-1,-2,0,-4,1
1511759896598861,0,1,-2,-1,-2,0,1,0
1511759896598861,3,-2,1,1,-1,-3,-1,-2
1511759896620879,-2,0,-1,0,0,-4,-3,-1
1511759896620879,-3,-1,0,-2,-2,-2,-4,1
1511759896621879,1,-5,1,0,-2,-5,1,-4
1511759896621879,0,0,-1,-1,0,-2,2,0
1511759896634897,1,1,-2,1,-1,3,-4,0
1511759896634897,-3,3,-2,-3,-1,-1,-2,-1
1511759896635897,0,-2,-1,-1,0,0,4,-1
1511759896635897,1,0,-1,-1,0,0,1,-1
1511759896657901,-1,2,-3,2,0,-1,-4,0
1511759896657901,-5,-2,0,0,0,-2,-4,0
1511759896658906,-2,-4,1,-1,0,-5,3,-4
1511759896658906,0,-5,-1,1,-1,0,3,-1
1511759896680926,-3,-2,0,0,-2,3,-4,0
1511759896680926,-4,-1,0,-5,-2,0,-4,1
1511759896680926,-2,1,-3,-2,-2,-6,1,-3
1511759896680926,2,-1,-2,-2,-2,-1,1,-3
1511759896694939,-1,0,-2,-4,1,3,-5,2
1511759896694939,-3,1,0,0,-1,2,-3,1
1511759896695940,2,-3,0,-3,-5,2,0,0
1511759896695940,-1,-4,-4,3,2,1,2,-2
1511759896717955,0,3,-2,0,-1,1,-2,0
1511759896717955,-1,-2,-3,-5,-4,-6,-3,0
1511759896718956,4,-1,-2,0,0,-4,0,-2
1511759896718956,2,-1,0,-3,-2,3,-2,-2
1511759896740972,-4,1,2,6,0,1,-4,-1
1511759896740972,-3,0,-2,-5,-1,1,-2,-1
1511759896740972,0,-1,-3,2,-5,-2,4,-3
1511759896740972,1,-2,3,1,-3,-5,1,-2
1511759896754990,5,1,-9,-5,4,1,0,0
1511759896754990,-8,3,9,1,0,-2,-5,-2
1511759896755972,-3,-3,-6,0,1,-1,2,1
1511759896755972,22,-6,-9,-1,-2,-3,-1,1
1511759896777995,-2,0,7,0,-3,-3,-7,1
1511759896777995,1,-2,-1,3,-3,1,-2,-2
1511759896778997,-3,2,-6,-2,-1,1,-1,-4
1511759896778997,4,1,4,6,-2,1,6,1
1511759896801015,-7,-1,14,-1,-4,-4,-3,2
1511759896801015,-1,0,-1,-1,0,2,1,0
1511759896801015,-3,-7,-17,-3,-3,-3,4,-4
1511759896801015,-9,-1,-4,3,1,2,-1,-2
1511759896815024,-3,3,1,-5,1,0,-3,-1
1511759896815024,-2,2,4,1,-2,-3,-1,1
1511759896816025,3,2,6,2,-5,-7,1,0
1511759896816025,-5,-5,-13,-6,7,1,0,-4
1511759896838029,1,3,-4,4,0,3,-6,3
1511759896838029,8,1,3,-7,-3,3,0,6
1511759896839029,-10,-13,2,-5,-4,-2,2,-8
1511759896839029,-7,-3,10,2,-1,-2,-2,-5
1511759896861057,-5,-1,2,6,2,5,-1,-3
1511759896861057,-2,-4,-8,-4,-3,-4,-4,-2
1511759896861057,7,3,2,3,0,-2,-1,0
1511759896861057,-1,-5,5,-8,-2,-3,4,-1
1511759896875064,-9,4,29,5,0,1,-5,0
1511759896875064,-2,-12,-88,-14,-6,-1,-3,-3
1511759896876064,-2,1,23,-1,-2,-1,4,-5
1511759896876064,10,6,-2,4,2,2,-4,-3
1511759896898088,0,-4,18,-6,-1,0,-3,3
1511759896898088,-11,1,-1,1,1,-1,0,2
1511759896899071,17,4,5,-3,-1,-1,1,1
1511759896899071,-6,-10,-4,12,-2,-1,0,-2
1511759896921102,-2,5,13,-4,1,2,-1,5
1511759896921102,-7,3,-7,-4,-3,-2,-4,-1
1511759896921102,8,-10,-20,-6,-1,-5,4,-2
1511759896921102,-8,-12,-12,-9,0,-1,3,-6
1511759896935096,7,1,-9,1,-1,2,-5,0
1511759896935096,-4,4,14,-7,-2,2,1,1
1511759896936107,7,5,24,13,0,-1,3,-4
1511759896936107,1,-1,-20,-7,0,-3,-1,-2
1511759896958124,-16,-9,-30,-7,-3,-3,-5,-3
1511759896958124,5,1,12,-3,-1,2,-3,1
1511759896959113,-4,-4,-1,-8,-6,-2,0,-4
1511759896959113,-3,1,10,8,2,-1,6,-1
1511759896980141,-1,-1,-18,-1,2,-2,-4,-1
1511759896980141,-2,9,17,6,-2,-4,-6,1
1511759896981147,-7,1,8,6,-1,0,1,-3
1511759896981147,16,0,-4,-6,-2,-4,1,0
1511759896995148,-19,-8,-6,-4,0,-3,-7,-2
1511759896995148,-1,6,18,8,1,0,-2,4
1511759896995148,2,-14,-20,-4,-2,-7,-1,-10
1511759896995148,-16,4,17,5,-4,-1,3,-2
1511759897018167,14,4,-9,-4,0,1,-3,12
1511759897018167,-10,1,14,-6,0,0,-5,-4
1511759897019175,9,4,17,4,2,16,10,7
1511759897019175,0,0,-11,9,-2,-12,-4,-3
1511759897040183,-5,1,-7,-6,5,5,-3,-4
1511759897040183,3,6,-19,0,-2,1,1,2
1511759897041171,3,-6,34,-8,-2,-4,-5,-1
1511759897041171,8,3,-22,5,3,6,20,5
1511759897055181,-5,-1,-11,-4,-2,-1,-4,-2
1511759897055181,-3,-9,-7,-6,-2,-1,-7,0
1511759897056182,0,0,-9,0,-2,-5,1,-5
1511759897056182,5,-4,9,-2,-1,2,-8,-6
1511759897078209,13,6,-10,0,-4,2,-2,8
1511759897078209,-1,-2,10,3,1,4,-1,0
1511759897079198,-48,0,4,3,-1,-3,9,-9
1511759897079198,28,-3,-6,-3,-1,0,-7,2
1511759897100225,-24,-2,-1,2,-4,-4,-5,1
1511759897100225,5,-4,-67,-10,0,-6,-1,1
1511759897101213,-1,-1,-19,-7,-1,-4,3,-1
1511759897101213,14,-2,1,3,3,2,-5,3
1511759897116237,12,-1,14,0,-3,2,-5,-1
1511759897116237,-1,1,28,-1,-1,0,0,1
1511759897122244,10,-4,-52,-5,-1,-8,-1,-2
1511759897122244,-20,1,4,-1,0,1,-2,-5
1511759897138240,7,5,5,-1,1,3,-2,5
1511759897138240,2,1,23,6,-1,-2,0,-4
1511759897139244,0,-1,29,7,2,-2,3,-2
1511759897139244,-3,-9,-56,-14,-5,-5,-4,-3
1511759897160256,-13,-1,36,-2,-2,-3,-9,-4
1511759897160256,-13,-4,-3,1,2,3,1,-1
1511759897161257,1,-14,6,-8,-4,-7,1,-8
1511759897161257,-11,-1,17,1,1,2,3,0
1511759897175267,-7,4,-15,0,3,3,-7,-8
1511759897175267,7,6,20,10,-2,2,0,10
1511759897182283,7,-7,3,-2,-3,-3,-1,-5
1511759897182283,6,4,17,2,0,1,-3,-4
1511759897198294,-12,-2,-3,-4,-3,-1,6,3
1511759897198294,-6,7,11,8,-5,-3,-6,3
1511759897199295,-6,-6,-66,-17,3,-4,5,-5
1511759897199295,-30,-26,38,-8,-10,-10,-2,-5
1511759897220300,-9,8,6,5,3,3,-16,5
1511759897220300,22,-1,-6,-7,-5,-3,11,0
1511759897221298,12,4,35,9,-1,-2,5,0
1511759897221298,-15,6,-7,2,1,2,1,-10
1511759897234322,-12,5,-1,2,4,4,-1,5
1511759897234322,8,-3,27,3,-2,-2,-16,-1
1511759897242326,4,-26,-88,-15,-9,-4,7,-4
1511759897242326,-3,-7,-17,-5,-3,-1,-1,-3
1511759897258337,-9,2,-2,1,-1,1,-2,7
1511759897258337,5,8,11,2,1,0,2,-5
1511759897259337,-3,13,25,7,2,-2,-6,-4
1511759897259337,9,-1,8,5,1,0,8,1
1511759897280352,5,0,-7,-1,-3,-1,-6,4
1511759897280352,-6,-16,-31,-20,-6,-4,-7,-5
1511759897281340,13,8,26,8,0,-2,6,2
1511759897281340,-7,-1,-18,0,3,-4,-17,-12
1511759897303363,20,12,-19,7,6,12,-15,28
1511759897303363,-23,11,70,3,-6,-10,-10,-44
1511759897304357,5,-17,-94,-29,-10,-14,-7,-4
1511759897304357,13,-9,45,3,1,12,39,11
1511759897318379,-2,-4,-8,-1,-2,-1,-10,-12
1511759897318379,-5,2,-17,-2,1,4,4,15
1511759897319380,17,3,25,10,0,-1,0,-5
1511759897319380,-1,14,-1,9,7,-2,-26,-5
1511759897340383,0,-11,-25,-15,-7,-7,-21,-21
1511759897340383,-5,-7,-3,5,-2,2,25,29
1511759897341383,8,6,56,2,-3,-3,10,-11
1511759897341383,23,4,-15,-1,4,0,7,19
1511759897354395,-7,7,25,12,5,9,-13,-6
1511759897354395,-7,-12,-7,-9,-6,-12,-3,-10
1511759897362410,-4,-1,-8,4,3,6,15,9
1511759897362410,-5,4,31,9,4,6,-3,-6
1511759897378423,9,-3,-38,-11,-4,-4,-4,-18
1511759897378423,13,-8,14,-6,-6,-8,6,9
1511759897379429,8,0,14,6,1,3,3,10
1511759897379429,34,-8,-25,0,-3,-4,2,-10
1511759897400439,-10,7,24,12,4,-3,-17,5
1511759897400439,4,-3,-11,-3,3,20,60,26
1511759897402440,-11,-9,-9,-3,-2,-13,-13,-15
1511759897402440,-13,11,-5,-1,0,-8,-15,-18
1511759897414435,0,0,10,-5,-3,9,20,16
1511759897414435,-4,-4,-67,-3,2,-1,-32,-13
1511759897423441,14,15,54,4,0,3,21,65
1511759897423441,-32,-24,5,-7,-6,-5,-23,-9
1511759897438465,-7,-2,-1,-3,-4,-7,26,-12
1511759897438465,-5,0,-34,-10,-2,-1,-23,-18
1511759897439452,3,10,37,19,6,4,4,-28
1511759897439452,-2,-8,-86,-18,-2,-2,-2,1
1511759897460467,-37,-3,-4,-7,-5,-4,-16,-4
1511759897460467,36,14,12,1,1,2,-2,12
1511759897463469,7,-7,-6,1,-1,0,-10,-22
1511759897463469,28,-2,-7,-1,-3,-5,34,10
1511759897474478,-9,-8,-11,-5,0,2,7,20
1511759897474478,-25,4,10,0,2,-5,-20,-18
1511759897489488,-21,-18,10,-1,-5,-4,11,-8
1511759897489488,-12,19,30,-1,-1,-2,-3,13
1511759897498506,-9,10,3,5,-2,-6,-20,0
1511759897498506,-4,10,20,9,2,2,-20,-1
1511759897499518,-11,-3,-13,3,4,-1,-7,-15
1511759897499518,-9,-7,18,-5,-1,-2,26,-6
1511759897520519,14,-3,-18,-6,-7,-6,-5,3
1511759897520519,-25,-17,-6,-7,-12,-6,-24,-3
1511759897522513,11,-3,7,3,6,-1,0,-12
1511759897522513,11,0,28,8,-4,-3,-12,-12
1511759897543535,-5,12,5,-3,12,5,-1,19
1511759897543535,-6,-10,-12,-2,0,-3,-3,-5
1511759897545537,-14,-10,-11,-14,-16,-7,15,0
1511759897545537,-4,-5,5,8,2,4,-18,-14
1511759897558546,10,-17,-24,-10,-7,-8,-14,-11
1511759897558546,6,3,-10,-3,-2,-1,-9,-1
1511759897559538,-35,-1,14,4,1,4,20,7
1511759897559538,25,-12,-50,-12,-5,-3,7,-15
1511759897580561,-26,7,20,8,3,3,-5,5
1511759897580561,9,11,2,3,3,1,40,8
1511759897582563,41,-6,-30,0,-7,-5,3,-1
1511759897582563,-23,-14,11,-6,-4,-5,-8,-6
1511759897603577,-5,1,-3,-6,-3,5,3,5
1511759897603577,-38,2,52,9,-2,-4,-6,-8
1511759897604584,31,0,-29,0,-1,-2,-2,2
1511759897604584,-9,4,-2,-4,6,5,14,11
1511759897617588,26,-7,2,-5,-4,2,-10,1
1511759897617588,-12,5,-10,-5,0,2,-5,0
1511759897619580,-4,-7,5,3,-6,-5,4,-7
1511759897619580,-8,-7,-13,19,-3,-2,-9,-6
1511759897640594,4,3,31,-2,7,8,6,20
1511759897640594,1,-25,-33,-21,-3,0,5,-2
1511759897643606,-15,8,11,2,-1,-1,-6,-20
1511759897643606,22,17,-3,-1,-1,-2,-18,7
1511759897662619,-27,-9,11,8,-2,-1,-8,-6
1511759897662619,20,6,-2,7,-2,1,-3,11
1511759897664612,-2,-9,10,-12,1,-8,-9,-15
1511759897664612,0,6,-15,7,-1,-4,-23,-10
1511759897677630,19,5,-41,-16,-6,-7,-9,5
1511759897677630,-23,-8,7,-5,-3,-7,-30,-14
1511759897684647,17,2,15,4,-2,0,22,19
1511759897684647,37,2,22,7,3,5,-3,-6
1511759897700649,-28,-5,8,-2,1,5,-1,5
1511759897700649,-5,-4,-26,-8,0,0,-5,-9
1511759897702638,44,9,22,9,1,-2,6,-1
1511759897702638,-27,-6,-19,1,-5,1,13,10
1511759897722652,-9,-6,15,-2,10,9,-4,0
1511759897722652,31,11,-32,-11,-7,-1,1,3
1511759897724654,-8,-27,-4,-1,-2,-7,-3,-22
1511759897724654,-27,9,14,4,-1,-3,7,8
1511759897737664,47,2,10,6,0,-1,-18,3
1511759897737664,12,15,-10,-6,-7,-6,-1,13
1511759897744668,-14,5,-28,-3,6,9,26,24
1511759897744668,-14,-16,-36,-9,-2,-3,-15,-22
1511759897760691,-17,-3,33,-6,-12,-10,-9,-8
1511759897760691,-11,-8,-9,13,2,-1,23,10
1511759897762693,-24,-1,-34,-31,-5,-11,-14,-19
1511759897762693,20,-1,40,16,1,2,12,11
1511759897782707,-18,13,-21,-7,-1,2,3,4
1511759897782707,-7,-10,19,-5,0,2,-2,0
1511759897784696,32,-18,10,6,-5,-6,3,-8
1511759897784696,-62,0,2,4,4,6,3,7
1511759897797717,-40,-10,-32,-7,-2,-2,0,1
1511759897797717,78,5,44,8,-6,-6,-3,8
1511759897804733,24,4,-60,3,3,2,-6,-22
1511759897804733,-3,-9,7,-22,-4,-7,-16,-20
1511759897820757,-13,4,10,14,2,8,19,24
1511759897820757,-25,4,24,-1,-3,-7,-6,-8
1511759897822724,-10,-1,-7,2,-4,-8,9,0
1511759897822724,46,10,-15,-7,-1,-1,-4,6
1511759897842737,15,7,2,6,-1,0,-6,-18
1511759897842737,-45,7,35,5,5,5,3,5
1511759897845752,38,2,6,-6,-5,-3,14,3
1511759897845752,-39,-6,28,13,5,5,12,21
1511759897857760,13,15,-17,-22,-9,-4,-19,-1
1511759897857760,4,18,17,14,7,9,23,17
1511759897863764,-33,-27,-31,-11,-6,-8,-8,-4
1511759897863764,1,6,-1,0,2,2,-5,10
1511759897880776,-33,-5,-15,4,2,-2,-10,9
1511759897880776,22,15,9,1,-5,-6,-13,-26
1511759897881777,-78,-33,20,3,2,2,8,10
1511759897881777,81,3,-29,-11,-5,-5,0,-9
1511759897903810,-29,-17,-24,-13,-8,-5,1,13
1511759897903810,48,-14,-32,-13,-6,-2,-3,6
1511759897904781,-60,26,20,15,4,4,10,-8
1511759897904781,53,27,22,9,-3,3,5,10
1511759897917792,32,14,-10,-5,4,-1,-10,-14
1511759897917792,-17,-1,6,9,-2,-3,-4,4
1511759897923806,79,6,-1,-1,2,3,1,11
1511759897923806,-18,15,-11,-12,5,4,7,11
1511759897940825,89,-14,14,10,-9,-6,-10,-19
1511759897940825,-68,-34,-41,-39,-4,0,-5,-4
1511759897941807,11,1,40,34,5,-1,0,-5
1511759897941807,34,29,21,-8,-7,-6,-2,-5
1511759897965824,-20,-18,4,-14,-1,4,3,-5
1511759897965824,0,1,20,14,-5,0,0,9
1511759897966824,50,11,-24,8,-2,-6,-11,-2
1511759897966824,-105,-30,-8,-19,8,4,7,-5
1511759897977845,13,9,15,10,0,-2,-14,17
1511759897977845,3,-16,13,0,-2,-4,13,-7
1511759897983849,-35,2,-33,-12,-3,2,3,-32
1511759897983849,-4,-12,-18,3,-4,-1,14,21
1511759898000863,-86,1,17,10,-3,4,-5,-7
1511759898000863,42,-2,-32,-17,1,-6,-11,-27
1511759898001863,28,-8,12,-9,-2,-12,-10,-2
1511759898001863,3,1,6,8,1,1,-7,1
1511759898022877,21,10,-10,0,-1,5,4,11
1511759898022877,12,-15,-40,-14,-2,-1,-16,-2
1511759898024878,9,-15,-27,-6,-3,-7,6,2
1511759898024878,-5,5,26,5,-3,-4,-10,2
1511759898036894,53,6,-27,1,0,1,-13,-15
1511759898036894,-5,23,-19,-17,-5,-7,6,19
1511759898045893,-22,-5,30,17,11,2,-12,-7
1511759898045893,31,-11,-36,-13,-3,1,-5,-12
1511759898060909,-24,39,5,-4,1,3,5,20
1511759898060909,52,-4,-16,-8,-11,-8,10,19
1511759898061914,23,-14,17,0,-4,-1,-16,-4
1511759898061914,-34,6,16,4,6,-2,2,29
1511759898083908,42,21,-29,0,-1,-3,-19,-44
1511759898083908,1,-11,33,4,5,7,10,21
1511759898085910,-1,9,5,-9,1,2,28,18
1511759898085910,-53,-13,-8,10,0,-4,-14,-62
1511759898096926,59,2,1,-12,-6,-3,-5,20
1511759898096926,-77,-1,43,15,7,5,2,-11
1511759898105932,-4,9,-25,3,-6,-7,10,-3
1511759898105932,34,24,-10,-9,-4,0,-1,-8
1511759898120949,-63,29,37,-3,-5,-4,12,40
1511759898120949,0,4,-41,11,9,2,-25,-79
1511759898121937,-26,38,45,-3,-11,-2,14,28
1511759898121937,17,-1,-59,3,4,-3,-5,-3
1511759898142966,-41,-44,19,-10,-6,-7,-27,-50
1511759898142966,-18,-10,12,17,2,5,19,19
1511759898144968,48,-16,27,1,5,12,10,11
1511759898144968,19,-7,-9,-10,-2,-6,-5,17
1511759898156960,-2,-28,-5,15,-1,6,17,33
1511759898156960,46,-3,5,-23,-3,-7,-10,-16
1511759898165978,35,7,-9,-5,-1,0,11,0
1511759898165978,1,-19,-9,-8,-9,-3,-1,-5
1511759898180988,-19,-34,10,-1,1,-3,5,21
1511759898180988,35,2,-9,-3,-6,-5,-3,4
1511759898181977,-29,-38,11,-14,-3,-8,-8,1
1511759898181977,8,-17,10,13,4,8,-7,-35
1511759898203009,-67,19,-13,-1,-1,2,-3,2
1511759898203009,63,26,39,9,-1,-4,-12,-1
1511759898207022,-43,-26,-34,-10,-4,-8,-3,-29
1511759898207022,-99,3,31,15,6,7,15,56
1511759898217019,90,13,26,-5,-3,1,-16,-71
1511759898217019,-35,-25,-16,4,15,7,6,-2
1511759898226020,71,10,23,16,1,-1,2,6
1511759898226020,-13,-7,29,-34,-10,-7,2,13
1511759898241018,16,-5,-58,-3,-4,1,-17,-15
1511759898241018,-28,3,22,-11,-3,-10,-12,7
1511759898243020,22,0,-2,24,6,-6,-9,-24
1511759898243020,-33,41,-45,5,8,9,15,17
1511759898263046,-46,-72,59,-40,-9,-9,-2,5
1511759898263046,9,5,24,22,-7,3,19,29
1511759898265048,-35,-40,-70,-21,5,-4,-6,-28
1511759898265048,26,-11,26,-12,-2,2,0,11
1511759898277043,-51,0,-46,10,3,5,16,-3
1511759898277043,25,17,34,-2,-6,1,14,19
1511759898286063,-3,10,11,12,6,11,-4,-11
1511759898286063,30,-2,-14,1,-6,-7,6,-7
1511759898300081,29,12,16,6,1,-7,-24,-20
1511759898300081,-8,-20,-64,-22,-6,-3,44,54
1511759898303064,-5,9,39,8,-3,-1,-34,-81
1511759898303064,45,1,-4,14,5,6,-3,7
1511759898323077,-42,13,12,-1,2,3,-5,30
1511759898323077,-38,-1,6,2,-3,-4,9,-32
1511759898325087,-26,3,-5,-14,-4,-5,10,17
1511759898325087,76,42,22,4,-4,-5,-15,14
1511759898337089,-62,-27,-26,-8,2,5,1,43
1511759898337089,-4,-42,-60,14,-7,-6,-5,-30
1511759898346104,-3,-4,1,-16,-6,4,15,50
1511759898346104,29,-39,15,-3,6,-5,-4,-20
1511759898361115,67,25,-18,7,7,14,17,20
1511759898361115,90,-3,-29,-22,-12,-5,-6,15
1511759898362114,-96,-22,0,5,2,-4,-6,-29
1511759898362114,-19,8,27,12,-1,4,4,16
1511759898383131,9,2,-53,-11,-5,-8,-8,-5
1511759898383131,-48,42,-3,-5,-1,0,-3,-25
1511759898384131,85,36,11,10,-1,-4,5,43
1511759898384131,-74,-53,-1,0,0,5,-13,-35
1511759898397139,60,11,8,-13,-4,-8,1,26
1511759898397139,-65,-9,44,13,2,1,-7,25
1511759898406135,74,16,-42,-15,-5,-1,23,-10
1511759898406135,54,7,-30,-8,4,-5,-15,35
1511759898428163,30,56,38,21,2,2,5,-42
1511759898428163,-57,-44,-19,-3,3,-2,-13,2
1511759898429163,32,0,12,-6,-1,-3,5,-21
1511759898429163,-33,-23,23,4,-1,8,23,12
1511759898443171,-43,-11,-39,-15,-6,-10,-23,43
1511759898443171,19,72,74,18,7,1,5,-62
1511759898445172,-35,-17,-109,-27,-4,-6,-4,-15
1511759898445172,10,-9,22,2,-7,-4,-8,-14
1511759898465189,26,19,11,1,2,3,-2,8
1511759898465189,-47,-38,20,5,-10,-10,7,-27
1511759898468191,25,-12,-24,-3,6,3,-9,10
1511759898468191,-7,32,29,7,-3,0,-5,4
1511759898480188,22,-15,-46,-2,-2,-1,-7,11
1511759898480188,-22,-17,-13,-12,5,-3,-2,5
1511759898482190,-8,17,87,23,3,8,28,-13
1511759898482190,-27,-2,-62,-3,-2,-6,-22,-2
1511759898503204,-9,-15,32,2,0,6,-1,-53
1511759898503204,-14,0,-46,-17,-7,0,-10,8
1511759898505206,-52,7,23,14,6,2,12,8
1511759898505206,10,-16,1,-10,-4,-4,-13,-68
1511759898525220,30,9,31,9,0,2,4,42
1511759898525220,9,18,10,-4,2,3,17,27
1511759898528222,9,-5,20,9,0,-7,-7,10
1511759898528222,5,-5,-19,-7,1,6,2,0
1511759898540239,8,3,7,3,-2,-3,16,23
1511759898540239,10,-13,-34,-1,-2,-6,-27,-55
1511759898543232,4,-29,-28,-17,-10,-4,0,40
1511759898543232,61,2,-5,12,7,5,-23,-36
1511759898563260,16,33,36,-9,-1,2,-12,43
1511759898563260,-27,5,19,14,-6,-7,-6,-18
1511759898564263,-45,-29,-23,-3,-1,-3,-7,-23
1511759898564263,-54,33,25,5,0,2,4,13
1511759898585273,27,-16,-38,-26,-7,-10,-18,-53
1511759898585273,22,13,48,6,2,-2,-1,20
1511759898587263,-32,-20,-27,-3,-2,-3,3,-27
1511759898587263,12,13,18,-4,2,-2,-18,-9
1511759898599284,-34,10,8,7,3,-6,4,27
1511759898599284,-45,-56,-19,0,-6,-4,19,13
1511759898606290,52,-28,-4,-14,-3,-2,-8,-2
1511759898606290,15,35,-55,-1,1,7,-2,22
1511759898623302,-59,7,35,-2,-1,-2,2,13
1511759898623302,83,21,-22,0,4,8,40,82
1511759898624301,-25,-31,18,8,1,-4,-30,-4
1511759898624301,7,38,-2,-5,-1,2,5,59
1511759898645318,-31,-24,-1,2,3,8,-4,-39
1511759898645318,53,9,21,5,0,4,17,61
1511759898647305,2,32,39,11,4,2,14,6
1511759898647305,-49,-55,-33,-17,-6,-12,-17,-8
1511759898660325,50,33,-15,-2,2,2,-2,40
1511759898660325,9,-3,13,-4,-5,-7,-7,-54
1511759898666328,-3,35,41,21,6,5,16,28
1511759898666328,21,5,18,0,-2,0,-15,-16
1511759898683330,41,-22,-40,-16,-8,-8,-3,-14
1511759898683330,-43,-30,-7,-10,-11,-10,-17,-76
1511759898684331,-3,5,-46,1,8,4,1,11
1511759898684331,59,14,9,7,6,7,12,15
1511759898706348,-93,-18,16,1,-4,-2,0,12
1511759898706348,-26,0,15,4,1,0,5,-24
1511759898707360,7,13,-7,3,-8,-1,0,1
1511759898707360,-34,13,28,5,11,7,5,5
1511759898720357,72,-19,20,-1,-6,-9,7,12
1511759898720357,-11,13,-1,0,-4,-5,2,-50
1511759898726373,3,-12,-15,-14,-2,-4,3,29
1511759898726373,-20,-29,-2,3,-2,-2,1,-24
1511759898743392,-35,21,-15,9,2,1,4,-25
1511759898743392,26,9,-20,-11,5,1,-16,22
1511759898745397,9,-44,-12,-2,-6,-6,-8,-7
1511759898745397,13,1,18,4,-6,-3,-4,12
1511759898765398,-11,-6,-36,-19,-1,0,-7,-27
1511759898765398,34,8,-2,14,1,0,13,32
1511759898767402,17,30,45,12,5,0,10,47
1511759898767402,-38,-32,-19,0,-2,0,-20,-74
1511759898780409,-13,6,6,7,2,3,-6,18
1511759898780409,-3,0,33,-7,-2,-2,6,6
1511759898786413,18,11,-14,13,6,5,10,0
1511759898786413,-56,3,-6,-30,-4,-3,7,34
1511759898803425,-15,-22,26,13,-3,-3,-8,-27
1511759898803425,-6,-17,-37,-15,1,1,16,-11
1511759898804445,-11,0,13,19,-2,-2,-9,-23
1511759898804445,-28,11,43,0,-3,0,1,22
1511759898825441,-14,1,-47,-16,5,5,-16,-13
1511759898825441,-19,5,6,3,0,-7,-3,-68
1511759898827442,-7,3,6,-8,-1,0,0,-18
1511759898827442,18,-19,-2,9,4,-1,2,19
1511759898839452,17,36,21,0,-5,-2,-6,-6
1511759898839452,-13,-6,8,0,0,10,19,37
1511759898846446,56,17,-9,0,9,7,4,-2
1511759898846446,-36,-11,-6,-3,-4,3,-11,-4
1511759898863457,-10,-4,1,4,-4,3,1,-4
1511759898863457,47,-26,-10,-2,1,0,7,23
1511759898865461,20,9,40,-2,-2,-2,-3,1
1511759898865461,23,-1,-73,-30,-9,-4,-8,28
1511759898885486,-31,-28,11,14,3,-3,11,-5
1511759898885486,43,26,-7,-5,-6,-11,-2,12
1511759898887499,-17,10,-10,-5,0,1,-5,26
1511759898887499,50,16,25,1,-4,-6,-15,-29
1511759898899495,-32,-6,-9,3,0,0,0,7
1511759898899495,8,13,35,4,-5,-7,5,-13
1511759898906500,3,-16,-32,-14,-2,-4,-12,-1
1511759898906500,3,5,-4,9,1,6,-2,0
1511759898923512,32,19,14,-4,-2,3,13,58
1511759898923512,-26,-28,-14,8,-2,-8,-13,-25
1511759898924501,12,24,6,-4,-2,2,4,-30
1511759898924501,-7,-2,17,-2,3,-3,-17,-2
1511759898945528,-2,1,-4,-9,6,9,2,30
1511759898945528,22,10,-32,-7,-3,-2,-2,20
1511759898947529,12,9,-22,-7,-7,-4,-3,4
1511759898947529,28,-21,3,11,2,3,-9,-31
1511759898959525,44,3,33,10,-5,0,0,43
1511759898959525,8,15,-30,-24,-3,-1,4,-8
1511759898968544,-35,-24,-19,-3,-3,-4,3,-39
1511759898968544,-7,-1,22,2,0,1,0,28
1511759898982554,-15,11,-3,7,0,-1,2,25
1511759898982554,-28,-7,18,-8,0,-8,-22,-70
1511759898984544,24,12,25,8,2,0,9,20
1511759898984544,-34,9,-12,0,2,2,0,19
1511759899005558,-34,-7,20,4,-2,-2,-5,-47
1511759899005558,17,20,-18,4,-2,-3,12,23
1511759899007565,-52,-29,-4,0,-2,-3,-12,-35
1511759899007565,-42,-20,-11,-2,3,-2,-3,46
1511759899019580,8,-6,-32,2,-13,-11,-13,-39
1511759899019580,60,-5,36,-4,7,1,9,38
1511759899028574,-20,-3,-21,-13,-1,-3,6,-2
1511759899028574,14,-2,-34,12,1,6,-4,-22
1511759899042596,19,10,33,-7,1,14,24,34
1511759899042596,-41,-10,-20,1,-2,-5,-8,-34
1511759899044595,38,20,-24,-1,-5,-3,0,21
1511759899044595,-5,16,29,-3,-1,1,-2,-3
1511759899072622,-53,-32,-26,-9,0,-4,-5,-18
1511759899072622,-46,-27,8,8,-6,-6,6,6
1511759899074607,-24,-23,-26,-16,0,-3,-4,-7
1511759899074607,40,38,53,11,-3,3,0,3
1511759899079623,-14,-7,-43,-14,-2,-5,-6,-9
1511759899079623,-18,-5,2,12,1,1,12,-16
1511759899088637,8,-5,-5,-6,-6,-8,5,21
1511759899088637,3,-31,2,-15,-5,-3,-21,-71
1511759899103642,8,-10,3,-6,-5,-4,0,-2
1511759899103642,-3,2,-17,-14,-5,-7,-1,16
1511759899104637,-23,-34,8,17,8,4,-2,-12
1511759899104637,80,33,-5,-6,-3,2,7,42
1511759899125642,-23,-12,-2,10,5,3,6,-74
1511759899125642,53,-4,25,4,-5,-1,6,9
1511759899127644,-23,-2,9,2,0,2,-6,-3
1511759899127644,21,-6,-42,-20,-4,1,-3,-15
1511759899139666,15,0,22,1,-6,-2,-13,-8
1511759899139666,1,17,-11,-2,1,5,18,88
1511759899147670,38,25,22,11,-3,-2,-9,-47
1511759899147670,-7,-9,-8,-1,9,9,2,16
1511759899162669,-27,11,12,-12,-5,-6,0,13
1511759899162669,-17,-9,15,8,4,-5,-1,-8
1511759899165683,12,41,-11,-2,-7,-5,2,11
1511759899165683,-14,-23,-25,-12,-4,-6,-12,-11
1511759899185698,17,6,24,2,5,0,2,20
1511759899185698,-25,-3,16,-2,-1,4,11,12
1511759899186698,-40,-27,-24,3,0,-8,-14,-53
1511759899186698,-20,12,48,4,-3,3,-2,-4
1511759899199696,13,-8,-60,-8,-3,0,-7,0
1511759899199696,22,27,9,3,-4,-2,14,9
1511759899207701,26,1,-4,-8,-4,-2,-9,4
1511759899207701,-25,-12,10,14,8,4,-8,31
1511759899222733,-9,2,11,10,2,0,1,2
1511759899222733,33,-12,-19,-5,-1,-6,-9,-9
1511759899224713,6,-31,19,-3,0,0,2,-7
1511759899224713,-44,30,7,-6,-9,-5,1,14
1511759899252744,-18,-7,-22,-14,-8,-5,-1,-8
1511759899252744,24,-15,-18,0,0,-6,5,-6
1511759899254736,-18,15,42,24,4,5,2,9
1511759899254736,-76,-21,-26,5,-4,0,-10,-11
1511759899259738,29,-60,-49,-19,-2,-2,4,13
1511759899259738,35,-10,-6,5,-8,-9,-13,-41
1511759899267756,68,30,9,-18,0,0,10,21
1511759899267756,-46,-17,78,22,8,6,-5,-10
1511759899282753,21,22,-26,0,3,1,-4,19
1511759899282753,-32,-34,-56,-15,-7,-7,-1,-11
1511759899284767,40,0,26,11,7,10,12,18
1511759899284767,31,11,-12,-4,0,-2,-13,-28
1511759899305781,-50,31,13,2,-2,-7,-1,-1
1511759899305781,-29,-13,24,5,5,-1,3,0
1511759899306781,17,-7,-44,-8,2,-3,-1,-2
1511759899306781,-38,18,-37,-13,-3,1,7,32
1511759899318780,19,-8,40,7,-3,-6,-11,-22
1511759899318780,21,-33,-35,-6,0,2,26,67
1511759899327785,-31,-21,9,0,-5,-4,-12,-17
1511759899327785,19,24,32,9,8,9,-2,18
1511759899342808,-30,14,7,-11,-7,-9,-6,1
1511759899342808,35,7,19,14,1,1,3,-1
1511759899345810,-4,-8,-9,-5,1,2,11,23
1511759899345810,7,4,-13,-5,-2,-2,-13,28
1511759899365812,6,26,53,8,5,9,10,22
1511759899365812,19,17,-17,-6,-8,-6,-7,-55
1511759899366813,-25,-8,-19,5,5,3,7,0
1511759899366813,7,-10,54,13,-3,-2,-10,-7
1511759899378821,71,-10,-74,-31,-7,-7,-8,-10
1511759899378821,11,7,28,14,5,-2,0,-46
1511759899387828,-5,23,11,-15,-8,-4,-12,-29
1511759899387828,18,-30,-37,2,2,2,3,21
1511759899402851,23,13,44,3,5,7,-3,29
1511759899402851,-13,-6,18,1,-5,-3,3,-27
1511759899404841,-18,17,22,-5,4,1,2,-22
1511759899404841,-53,-4,-41,-2,-5,-6,-7,-1
1511759899425868,3,-9,-15,-5,-9,-4,6,12
1511759899425868,17,-26,11,0,-1,-1,-8,-1
1511759899426868,18,21,19,20,1,4,3,16
1511759899426868,-7,-7,-24,-28,-3,1,-1,5
1511759899447882,-46,-6,-5,9,2,0,-8,-8
1511759899447882,25,5,-10,-6,-3,-7,-3,1
1511759899449884,-14,-12,-5,9,-1,-2,1,5
1511759899449884,14,7,-44,-12,-7,-5,-12,-11
1511759899462893,-2,-5,38,-8,-4,-2,0,-13
1511759899462893,-69,-9,-1,12,6,4,7,34
1511759899464895,-10,-12,-27,-21,-8,-5,-8,5
1511759899464895,45,-6,29,9,-2,2,7,-4
1511759899485909,2,26,-35,1,-1,-2,-7,-30
1511759899485909,-30,0,29,10,1,-3,2,1
1511759899486898,71,-10,-30,-11,-2,1,13,38
1511759899486898,-61,-24,-13,-2,-5,-5,-17,-3
1511759899507925,22,-28,-2,0,-2,-5,4,6
1511759899507925,-38,-11,13,-16,7,5,9,-11
1511759899509914,-21,4,-11,-2,-3,-7,-10,-4
1511759899509914,10,-4,9,4,3,2,2,-6
1511759899522925,2,-2,-2,6,-3,3,5,16
1511759899522925,-25,39,9,1,-4,-4,2,5
1511759899524926,-34,-33,-29,7,6,6,1,-17
1511759899524926,11,6,-28,-15,-4,-1,-10,8
1511759899545952,-14,-6,43,19,0,-1,3,6
1511759899545952,-49,11,-30,-7,-4,-1,15,-10
1511759899546947,10,8,33,10,-1,-4,-13,4
1511759899546947,14,-17,-37,-13,3,3,-2,3
1511759899567965,-4,25,2,13,-5,3,-1,-2
1511759899567965,-29,-27,1,-11,7,-5,1,-1
1511759899569957,45,-5,8,-9,-3,-3,-8,2
1511759899569957,24,11,30,1,2,2,1,10
1511759899581971,-2,5,-25,-5,2,0,-6,-5
1511759899581971,49,7,30,-3,-5,-5,-4,3
1511759899588971,-49,-35,-35,1,-5,-4,3,-3
1511759899588971,4,-22,16,-4,0,0,-10,-24
1511759899605983,3,-10,11,1,-3,-4,7,5
1511759899605983,20,13,4,16,0,5,8,-4
1511759899607983,-6,27,-13,-14,-2,1,3,-9
1511759899607983,17,-4,8,8,0,5,1,60
1511759899628014,-33,-33,-22,-16,-4,-4,0,-15
1511759899628014,15,1,-48,2,-6,-6,-2,23
1511759899630011,-23,-3,3,-9,4,10,7,-64
1511759899630011,20,31,9,4,3,4,-4,-36
1511759899642033,14,-28,37,-1,-5,-6,-13,17
1511759899642033,16,2,-20,14,1,-2,-1,23
1511759899649024,-35,-9,5,-9,-2,-2,-2,-39
1511759899649024,6,4,-9,-9,-7,-5,-6,8
1511759899666042,-38,6,20,7,6,0,4,14
1511759899666042,5,-5,-10,-7,-6,-5,-17,-80
1511759899667044,17,22,13,2,-2,-6,-6,34
1511759899667044,-42,-7,2,3,-8,-4,-2,15
1511759899689047,3,14,-14,-9,2,1,-10,-41
1511759899689047,16,9,14,2,3,0,10,-7
1511759899690045,-10,-11,7,12,3,2,6,15
1511759899690045,-9,-16,-32,-13,-3,-2,-18,7
1511759899702063,-24,-15,-10,-4,-2,-3,12,24
1511759899702063,-3,12,40,18,2,-3,-2,-41
1511759899709067,14,1,-24,-13,4,5,2,28
1511759899709067,-11,25,4,2,0,2,14,26
1511759899725078,17,13,14,5,-7,-10,-15,-82
1511759899725078,0,-39,-60,-10,-2,2,10,8
1511759899727068,2,-8,26,12,-5,-1,-8,13
1511759899727068,-5,28,19,1,2,4,4,19
1511759899748094,47,17,23,0,7,2,2,-12
1511759899748094,-33,58,-4,-9,-1,-2,-3,2
1511759899750103,6,-21,-3,7,-3,-1,-1,7
1511759899750103,26,3,-17,-4,1,-1,-9,-15
1511759899762102,8,4,21,3,-3,-1,3,26
1511759899762102,38,-9,13,5,0,0,5,10
1511759899769107,2,1,-3,-8,-5,-1,8,28
1511759899769107,-11,2,-13,9,8,2,-20,-63
1511759899785118,-5,-39,-10,-3,0,2,8,-1
1511759899785118,34,0,15,13,0,1,6,-3
1511759899787110,-24,0,-22,-14,-1,-2,-9,11
1511759899787110,24,13,-23,1,-5,-2,2,15
1511759899808134,-19,17,-4,-5,-5,-3,-5,-11
1511759899808134,36,-4,-9,-7,-1,-4,-9,-16
1511759899809135,-18,-6,6,18,3,1,3,0
1511759899809135,-2,-20,6,-21,-8,-6,-5,7
1511759899822136,-22,12,-21,-4,-4,0,-2,-16
1511759899822136,-33,-37,-12,-4,2,3,14,-2
1511759899829154,29,34,23,16,-1,2,-2,33
1511759899829154,-33,-32,-20,-17,-7,0,-7,-9
1511759899845152,-11,-5,-13,-4,-2,-2,9,22
1511759899845152,5,-3,21,13,-1,-5,-7,14
1511759899847159,-2,24,-23,1,2,0,-5,-26
1511759899847159,0,12,11,-5,5,6,8,9
1511759899868180,-5,0,26,2,-3,-3,-9,-55
1511759899868180,-22,-5,-13,-4,-3,-2,6,21
1511759899869181,-13,-15,-7,4,1,0,-6,2
1511759899869181,18,6,-12,-1,3,-2,-5,18
1511759899882178,-13,11,35,13,-2,-3,3,24
1511759899882178,-13,-18,-54,-21,-3,4,12,-6
1511759899889184,6,-18,34,6,2,2,4,-23
1511759899889184,-40,6,8,1,-6,-9,-21,5
1511759899905194,18,25,16,8,3,0,0,27
1511759899905194,23,0,8,0,1,1,12,-22
1511759899907197,-10,-24,-20,-6,-4,-7,-26,6
1511759899907197,10,16,-16,-9,-2,3,-1,20
1511759899928219,23,53,9,8,3,4,7,23
1511759899928219,-19,-9,-5,-13,-7,-8,-6,17
1511759899929211,21,23,23,1,2,2,5,-36
1511759899929211,-14,-14,8,11,-3,0,-3,-18
1511759899942237,-11,-2,-11,-7,-7,-7,-1,7
1511759899942237,30,-5,-8,1,2,0,8,14
1511759899950235,2,12,-7,-6,-2,-1,6,21
1511759899950235,-11,-26,19,0,-3,-1,-15,-64
1511759899965235,12,-21,-1,-5,-1,-2,6,18
1511759899965235,-7,-10,-33,-3,-7,-6,-9,-15
1511759899968254,-17,-8,-1,2,2,4,2,-1
1511759899968254,-2,11,14,0,-1,-2,-6,17
1511759899988254,-2,6,-1,-3,2,3,9,-5
1511759899988254,5,-6,21,7,5,-2,-6,-23
1511759899989256,5,-5,0,-11,-1,-5,-7,1
1511759899989256,-22,10,-18,0,-8,-3,3,-34
1511759900001262,-5,-7,-8,-4,-1,-3,-3,5
1511759900001262,-30,-9,23,2,2,-1,-5,4
1511759900010269,12,-7,-42,-6,-1,1,5,-2
1511759900010269,15,44,0,-2,4,6,8,36
1511759900025290,7,-28,-37,-7,-6,-10,-10,-19
1511759900025290,-3,-15,27,2,1,2,21,-13
1511759900027291,-39,32,12,-1,0,1,9,71
1511759900027291,-8,-43,-15,-3,0,-2,-31,-86
1511759900048294,33,24,11,-2,-1,-3,0,25
1511759900048294,-9,-3,-7,9,2,1,2,-31
1511759900049294,21,-27,-7,-7,-4,-3,-6,-2
1511759900049294,-28,7,11,-6,-3,-5,17,49
1511759900061313,0,4,22,17,2,2,0,13
1511759900061313,-13,-6,0,-16,-7,-6,-4,-53
1511759900070316,3,12,-1,3,-2,-1,-8,-8
1511759900070316,15,-16,-13,8,1,0,-3,34
1511759900085332,-11,-13,0,-18,2,1,2,-9
1511759900085332,15,19,31,10,0,3,7,10
1511759900087323,10,10,-20,-4,6,3,-14,-12
1511759900087323,-22,-8,-1,-10,-3,2,1,-49
1511759900108346,18,-10,-62,-6,-7,-4,-3,23
1511759900108346,5,0,38,23,6,-1,-2,-11
1511759900109354,-16,-13,-26,-14,0,-1,13,11
1511759900109354,39,17,10,-5,-2,-1,-18,-23
1511759900122347,-4,-4,-5,4,1,3,17,-14
1511759900122347,29,1,-31,-5,-7,-5,-4,33
1511759900130366,4,9,30,13,2,7,-3,-3
1511759900130366,-46,-10,32,9,0,2,5,58
1511759900145375,1,-8,-65,-16,-5,-6,-7,-27
1511759900145375,11,7,-9,4,1,-2,4,37
1511759900147376,-14,-4,6,-1,2,3,-6,2
1511759900147376,-3,5,14,-7,-3,-4,-8,0
1511759900168388,10,-12,9,-1,-9,-4,-2,-29
1511759900168388,-21,34,35,5,4,-1,6,4
1511759900169381,5,-6,-23,-3,-5,-5,-7,5
1511759900169381,26,14,-9,-12,-3,-1,11,35
1511759900181398,-16,7,11,8,-2,-1,0,-61
1511759900181398,4,-24,17,-3,-3,-1,1,27
1511759900190394,-6,-6,52,13,-4,0,-8,-50
1511759900190394,1,10,-6,-4,3,3,1,27
1511759900205430,26,-6,-13,-5,-5,-6,2,30
1511759900205430,-7,-10,-36,-3,4,-1,8,4
1511759900207407,31,-24,21,-3,-2,0,-11,-16
1511759900207407,-19,-13,9,4,-3,-1,-13,-12
1511759900228431,15,2,-16,-5,-1,-2,3,35
1511759900228431,-2,-3,-12,-5,-6,-5,-4,-31
1511759900229432,-3,-32,-23,-6,3,4,-9,15
1511759900229432,-7,13,12,-2,-4,-7,-1,-3
1511759900241440,2,-18,-15,-2,-5,-8,10,-7
1511759900241440,40,0,-31,-16,-3,-4,-5,-25
1511759900250436,-60,-3,1,5,-2,2,1,20
1511759900250436,20,-26,-11,-1,-4,1,6,7
1511759900265457,-30,6,34,5,1,0,-4,12
1511759900265457,40,16,16,5,0,2,1,1
1511759900267449,17,6,-23,-1,-1,4,6,19
1511759900267449,-24,16,10,-2,-5,-3,-13,-27
1511759900288495,9,-1,-6,2,-4,-6,8,31
1511759900288495,4,0,-2,-8,3,4,1,16
1511759900289467,-15,13,-17,-8,-5,-5,-12,-46
1511759900289467,3,21,-34,-2,-3,-4,-2,-2
1511759900301482,-6,5,12,1,2,0,5,4
1511759900301482,26,-1,1,-1,-7,-5,-10,-5
1511759900310479,-4,6,21,6,1,1,-5,-5
1511759900310479,31,-24,-33,-11,-4,-2,9,41
1511759900325500,-28,-31,-34,-6,-3,-5,-1,-16
1511759900325500,17,5,-14,9,1,1,9,-37
1511759900327504,-43,26,46,3,6,3,-9,-9
1511759900327504,10,1,-4,-3,-1,2,5,41
1511759900348516,-14,-10,15,-2,-2,1,9,-17
1511759900348516,-24,24,-13,2,3,-2,-10,16
1511759900349516,14,13,-6,-9,0,-2,2,-2
1511759900349516,10,3,4,-4,1,2,-4,-23
1511759900370541,-27,-3,18,7,0,2,7,0
1511759900370541,-35,-16,-71,-17,-3,-1,7,-21
1511759900372543,35,3,-16,0,0,-6,-10,24
1511759900372543,-53,-2,15,3,-2,-1,-5,-50
1511759900385544,1,2,21,-2,-1,1,2,-5
1511759900385544,-9,3,22,5,6,5,7,34
1511759900387548,-13,6,-9,-8,-4,1,-7,-36
1511759900387548,28,-1,-1,5,-1,-3,1,36
1511759900408549,23,8,3,0,-1,-2,-2,12
1511759900408549,-22,-21,9,-4,-4,1,-3,-11
1511759900409549,41,-18,-11,6,1,-2,1,19
1511759900409549,21,10,-8,-1,-2,1,8,-7
1511759900430576,21,2,11,-5,-1,-2,-7,0
1511759900430576,-8,5,19,2,4,1,8,-4
1511759900432578,-6,-27,-3,6,0,3,7,30
1511759900432578,18,11,17,1,-1,-2,-6,-7
1511759900445587,-34,4,-17,1,-2,-6,-4,-20
1511759900445587,-14,14,4,2,2,1,-3,-11
1511759900447586,-6,-8,-17,-8,-6,-3,-14,-2
1511759900447586,18,-1,9,7,4,2,3,46
1511759900467600,-21,1,-9,-11,-2,0,7,-38
1511759900467600,-17,-15,-1,13,-7,-12,-9,-2
1511759900470602,5,11,-11,-6,1,2,-2,3
1511759900470602,26,-17,-5,-5,2,3,4,-2
1511759900490617,14,-7,35,9,-4,-6,-3,9
1511759900490617,0,-18,-36,0,-3,-3,4,-3
1511759900492635,4,-5,-16,-10,-3,-3,-20,-24
1511759900492635,-7,1,14,0,2,3,7,-11
1511759900504621,-17,-3,9,-3,-1,-4,-10,12
1511759900504621,27,1,13,2,-3,-2,-2,28
1511759900511635,-26,-4,-7,-3,0,-2,-5,-45
1511759900511635,4,26,17,4,-7,-4,-6,13
1511759900527643,-20,-27,-7,-3,1,-3,0,-19
1511759900527643,-13,-4,-21,-4,2,2,-2,-4
1511759900529635,11,17,-11,-1,-1,-1,-5,4
1511759900529635,-73,-32,-11,4,-5,-2,13,31
1511759900550649,19,7,-13,8,6,4,-14,-40
1511759900550649,43,15,35,-4,1,2,8,12
1511759900551651,-42,-16,17,8,-3,2,5,13
1511759900551651,-16,-9,-6,-19,2,-1,-18,-42
1511759900564660,8,-41,-4,3,-2,-1,20,11
1511759900564660,-1,-9,-30,-4,-1,-2,-8,-8
1511759900572666,2,-1,31,-1,-2,-4,-13,5
1511759900572666,-18,9,-9,7,-6,-1,-1,5
1511759900588696,4,-5,2,-8,0,-3,12,6
1511759900588696,-23,-9,-13,1,-3,-4,1,9
1511759900589680,41,-18,1,-4,-3,0,-7,-36
1511759900589680,0,12,1,-8,-2,0,-6,12
1511759900610692,29,23,8,13,-2,-2,7,1
1511759900610692,-23,1,-15,-8,-1,3,10,-12
1511759900611693,-2,11,-34,-8,-3,-5,-21,12
1511759900611693,17,15,23,1,-1,-4,-4,16
1511759900624713,-29,-15,-8,2,-3,-1,7,-42
1511759900624713,6,-11,-1,5,1,-2,-2,-10
1511759900631706,-22,0,-11,-2,6,6,16,37
1511759900631706,50,7,13,-4,-1,0,-9,-19
1511759900647719,16,18,-19,-4,-5,0,3,38
1511759900647719,-14,-23,8,2,3,5,5,-18
1511759900649720,11,7,42,7,2,-1,-9,4
1511759900649720,-30,-29,-58,-2,-1,-1,2,-5
1511759900670734,22,24,38,-5,5,2,15,-7
1511759900670734,10,5,-15,2,-2,-5,-18,-2
1511759900673738,-3,32,-10,6,6,10,5,18
1511759900673738,9,25,-1,-7,-4,-2,-3,-13
1511759900684756,-19,-11,-2,-5,-3,-6,-2,-1
1511759900684756,-6,-11,11,-4,3,-1,5,11
1511759900691761,-3,-6,14,-3,-2,-4,-10,3
1511759900691761,-16,5,-13,3,-5,-5,-3,1
1511759900707772,-1,9,1,-10,-2,-6,-2,4
1511759900707772,17,-2,-17,7,-2,-1,2,13
1511759900709773,-29,-18,34,-9,-1,1,-2,-37
1511759900709773,-18,5,-3,2,5,-1,-10,-7
1511759900730777,40,4,-18,4,-3,1,7,-21
1511759900730777,10,-6,-17,10,1,3,5,12
1511759900731783,-66,-21,-11,-12,-2,-2,-17,-53
1511759900731783,2,2,4,-3,-5,-3,-1,28
1511759900744796,-29,15,19,4,-1,-2,0,-52
1511759900744796,30,2,29,-2,-2,-4,-3,-20
1511759900751803,-23,-8,-52,-4,0,3,5,35
1511759900751803,-7,-4,21,12,-1,-4,-6,-21
1511759900768825,21,-7,-32,-17,6,0,4,32
1511759900768825,-68,-44,32,0,-5,0,12,-17
1511759900769817,22,19,19,8,-1,4,5,45
1511759900769817,7,-5,-2,-17,1,0,-3,-23
1511759900790818,-10,1,10,26,-3,0,2,16
1511759900790818,7,2,-39,-23,-5,-3,-2,-15
1511759900791834,0,-3,4,-9,-5,-2,-3,12
1511759900791834,-24,0,20,14,6,7,15,51
1511759900804847,-17,14,13,4,-6,-2,-5,-62
1511759900804847,32,1,-12,-5,-2,-8,-13,-14
1511759900811833,-23,-3,-22,0,0,2,-2,3
1511759900811833,4,-9,0,-7,-5,-2,6,10
1511759900827857,1,-15,11,-4,-4,-6,1,16
1511759900827857,7,14,12,-6,0,-2,2,8
1511759900829858,29,8,-26,0,3,5,-2,3
1511759900829858,11,-12,15,-8,-5,-1,-3,-5
1511759900850862,11,-4,-7,-7,1,-3,6,20
1511759900850862,3,11,23,16,0,2,-1,12
1511759900851880,-5,-12,-48,-18,-6,-2,1,-13
1511759900851880,-17,-2,5,6,0,5,7,6
1511759900863882,5,4,-18,2,-6,-7,-4,-1
1511759900863882,12,0,31,2,2,3,2,-3
1511759900872887,-2,41,0,9,1,2,-6,33
1511759900872887,2,-14,-17,-9,-2,-2,2,-37
1511759900887889,12,-19,-53,-7,-4,-10,1,10
1511759900887889,-10,-7,46,7,4,1,-8,-25
1511759900889892,47,1,-14,-9,-5,-3,1,60
1511759900889892,-31,-8,-6,2,-7,-4,-3,-16
1511759900910915,-5,-1,-13,-2,5,2,-1,-6
1511759900910915,-8,27,13,-2,-2,-4,-5,-7
1511759900911922,-13,15,36,4,-3,-2,-5,-9
1511759900911922,7,-21,-13,-9,-1,-5,-9,0
1511759900923925,4,-8,-1,4,1,2,20,19
1511759900923925,-6,-14,-22,6,-1,-4,2,-23
1511759900932924,-2,6,23,10,0,3,-7,-8
1511759900932924,1,2,-5,-7,0,-5,0,-5
1511759900947939,-6,-3,-6,-2,-1,4,4,-46
1511759900947939,20,-3,-52,-17,-2,-3,0,7
1511759900949941,10,1,10,10,2,0,-10,4
1511759900949941,-13,6,24,0,0,0,-1,3
1511759900970993,-7,4,3,-4,-10,-10,12,30
1511759900970993,4,-4,-12,0,-1,-4,-14,-5
1511759900973951,9,8,10,-10,2,2,-7,-11
1511759900973951,-14,-1,-3,6,-2,-2,-4,-5
1511759900983955,11,-6,-12,-2,1,-5,0,-6
1511759900983955,8,19,38,8,-1,2,2,20
1511759900992981,-26,1,2,1,3,3,5,26
1511759900992981,32,-18,9,-12,-11,-9,-16,-64
1511759901007971,21,-1,13,23,10,2,0,-26
1511759901007971,-14,-35,-36,-20,-5,3,9,14
1511759901009979,-14,-18,3,2,-2,3,-3,4
1511759901009979,0,16,-23,-7,-2,-1,1,1
1511759901031000,15,-2,10,10,-2,-10,-9,19
1511759901031000,7,-7,-13,-7,5,4,3,-13
1511759901032002,13,-4,-11,-13,-2,0,-12,-18
1511759901032002,-6,-8,1,3,-1,3,2,20
1511759901044009,-14,-20,16,3,-6,-7,5,0
1511759901044009,-7,0,2,9,9,4,-8,15
1511759901053004,0,-10,-20,-10,-2,0,-11,-10
1511759901053004,13,2,11,5,-1,1,5,5
1511759901068024,-1,-2,-10,-15,-7,0,0,12
1511759901068024,-12,8,-23,3,-3,-6,-2,-9
1511759901070015,12,-6,15,8,-1,-3,-4,8
1511759901070015,-10,-15,12,-12,1,2,-8,41
1511759901091030,-3,5,0,0,3,-1,9,5
1511759901091030,-15,-13,6,-8,-4,-3,-15,-39
1511759901092038,16,-1,6,0,-4,-1,-10,0
1511759901092038,-18,10,2,5,1,-1,0,-6
1511759901105041,-14,37,6,-13,-8,-4,6,11
1511759901105041,20,13,14,4,2,-1,3,25
1511759901121061,0,1,14,4,1,0,-16,-28
1511759901121061,3,-2,-60,-18,-9,-1,-6,-1
1511759901128067,24,1,17,7,8,7,4,-6
1511759901128067,-34,15,17,10,-3,-3,6,-20
1511759901130069,-8,-11,-14,-4,3,-2,-18,-11
1511759901130069,34,3,7,5,-3,-6,-2,-6
1511759901150086,-7,15,-7,-3,-3,-4,-1,7
1511759901150086,36,-13,-11,-4,3,4,9,-26
1511759901152074,-30,-20,28,5,-2,2,11,18
1511759901152074,-7,5,18,3,2,-3,-10,3
1511759901164092,-2,-3,-22,-7,0,0,6,-14
1511759901164092,15,9,10,-3,-2,-1,3,18
1511759901173108,0,9,6,8,1,1,-8,-26
1511759901173108,-24,-1,9,9,5,5,7,6
1511759901188126,14,-7,-20,-19,-1,-2,5,11
1511759901188126,-18,-2,-22,6,0,1,1,-22
1511759901190104,12,15,-9,-10,-4,2,-6,15
1511759901190104,7,9,7,0,-5,-4,-17,0
1511759901210114,-41,-17,22,16,4,2,6,-8
1511759901210114,1,0,-25,-9,0,-2,3,0
1511759901213117,-26,-6,2,-8,0,-1,-17,-13
1511759901213117,-9,19,-2,4,-1,0,7,-4
1511759901224137,15,-46,4,-7,-4,-3,3,-11
1511759901224137,5,-6,-5,5,-2,-4,-2,22
1511759901233131,6,19,-4,7,0,3,10,23
1511759901233131,-12,-16,2,-9,-4,-3,-1,9
1511759901248154,1,-3,6,7,-3,-6,-1,-16
1511759901248154,9,3,6,6,1,1,-10,6
1511759901249152,5,3,-24,-16,3,3,5,20
1511759901249152,-3,-53,-15,0,-4,0,0,-47
1511759901270171,-11,10,-18,-3,0,-2,-2,-6
1511759901270171,13,7,21,3,2,2,-4,7
1511759901272163,-32,-6,-16,6,-6,-8,0,-4
1511759901272163,9,1,9,-4,-3,-1,6,5
1511759901284168,0,-2,17,9,2,1,3,-13
1511759901284168,22,9,-17,-12,0,2,-1,-9
1511759901293174,-14,-20,2,-7,2,1,3,23
1511759901293174,-19,9,-18,15,3,0,-6,12
1511759901308184,9,5,14,-7,0,-4,2,-5
1511759901308184,-32,-15,16,-2,-2,1,10,22
1511759901310195,10,5,5,5,-2,-3,-3,-4
1511759901310195,-6,32,-8,-18,2,2,7,4
1511759901330208,22,-15,16,12,1,-1,-1,-4
1511759901330208,-18,-6,-52,0,0,-1,-1,24
1511759901332210,-3,-18,36,-7,-6,-1,-10,-32
1511759901332210,34,26,5,4,-3,-8,0,-8
1511759901353225,-15,-16,-16,-5,0,-5,2,-25
1511759901353225,15,18,20,4,-2,-1,1,9
1511759901355223,-47,-2,-6,-9,0,3,6,-8
1511759901355223,16,4,21,4,0,2,7,55
1511759901367225,4,6,-22,-5,-2,-1,-5,-23
1511759901367225,-10,-31,-20,4,-2,-2,-7,3
1511759901375232,17,37,15,-2,1,1,1,-13
1511759901375232,-5,0,-7,-8,-2,-4,-4,1
1511759901390243,20,8,2,6,-5,-4,-6,-11
1511759901390243,-16,13,24,10,-1,2,5,9
1511759901392256,-13,-32,-2,-17,2,0,-9,-16
1511759901392256,2,-19,-24,-7,-1,-4,-5,-4
1511759901413268,-2,10,22,5,-2,1,6,-1
1511759901413268,-31,2,-18,0,0,-4,-7,-12
1511759901414274,46,9,24,-2,-3,0,-9,19
1511759901414274,-29,-36,-39,-12,-5,-5,6,-1
1511759901428270,-3,-8,-24,-2,-1,-5,-10,2
1511759901428270,40,22,35,10,0,1,-2,-1
1511759901429270,-4,10,15,5,-2,-1,3,31
1511759901429270,-11,-12,-6,-7,-4,-4,-2,-15
1511759901450296,-4,17,-9,4,-1,-2,8,37
1511759901450296,8,-12,-1,-2,1,-2,5,-16
1511759901452297,-14,14,6,1,0,0,-8,23
1511759901452297,13,4,-9,-7,-5,1,-6,-14
1511759901473316,-30,-8,23,-7,-2,-2,1,-35
1511759901473316,-6,10,-28,-2,-2,-2,-3,1
1511759901474306,-4,4,-9,0,-8,-6,-9,-14
1511759901474306,-4,32,6,-1,2,2,4,12
1511759901487312,11,-16,-9,-11,-4,-5,1,-6
1511759901487312,0,-20,13,-13,-4,-2,-6,-22
1511759901494315,-33,8,-6,5,-4,-5,-10,-11
1511759901494315,14,12,-13,-2,-2,2,3,-7
1511759901510339,17,9,19,11,-1,-2,-2,-3
1511759901510339,-32,-6,-9,-10,4,-3,0,19
1511759901512337,14,-23,-27,1,-2,-1,-9,19
1511759901512337,-13,1,24,3,4,2,0,-19
1511759901533343,-7,-10,-20,-13,-5,-4,-5,-28
1511759901533343,-12,7,5,18,1,-3,-1,26
1511759901534344,12,1,3,5,-2,6,-3,8
1511759901534344,1,-9,14,1,5,-3,-5,1
1511759901546353,9,-4,-11,2,2,2,12,14
1511759901546353,45,3,13,-6,-5,-2,-9,-17
1511759901554357,-18,10,-19,0,-1,1,-7,1
1511759901554357,4,-13,23,5,-2,-2,-4,12
1511759901569381,12,11,1,9,1,1,6,3
1511759901569381,-23,10,20,-11,2,2,4,-9
1511759901570368,4,-40,-8,0,-3,1,-7,10
1511759901570368,18,29,-1,-1,-3,-4,-8,-8
1511759901592394,-13,-20,0,1,3,2,8,11
1511759901592394,26,15,-2,7,-4,1,-3,-15
1511759901593395,2,-6,-5,-12,2,0,4,-17
1511759901593395,-6,0,-32,0,-2,0,4,-13
1511759901606395,-5,-4,-10,3,0,-2,-3,-4
1511759901606395,-3,-22,-34,-10,4,0,-4,5
1511759901614411,11,65,18,2,-2,1,2,4
1511759901614411,1,-19,-9,7,7,6,3,2
1511759901629427,10,-7,28,-11,-3,-3,4,-2
1511759901629427,-12,-11,9,0,0,1,-5,8
1511759901630432,9,-9,-19,4,-1,-4,-13,4
1511759901630432,-33,3,4,-6,-3,-2,3,-16
1511759901652436,4,18,-17,8,0,-1,4,-20
1511759901652436,1,10,13,-6,-2,3,10,48
1511759901653437,34,-23,-9,-11,3,1,-5,13
1511759901653437,-14,-5,28,-1,-6,-1,5,-51
1511759901666446,8,-10,-7,4,-1,-5,-3,5
1511759901666446,-28,-3,-18,-1,4,4,-4,-5
1511759901674459,-22,11,10,-1,-9,-9,-3,-9
1511759901674459,-10,-18,-4,-9,3,0,2,25
1511759901690455,6,0,0,-3,-1,1,8,-10
1511759901690455,-2,5,27,9,-2,2,-4,-11
1511759901691459,-13,-10,-64,-16,-6,-4,-9,-2
1511759901691459,18,3,8,5,4,-2,-2,-2
1511759901712481,-27,-37,-17,-4,-1,-2,2,-2
1511759901712481,20,26,20,9,3,2,-1,-11
1511759901713482,-19,1,25,-1,-2,2,-6,14
1511759901713482,-9,50,11,-2,0,-1,10,25
1511759901735497,17,-14,-9,11,-5,-4,-8,-46
1511759901735497,18,19,0,-17,-1,-2,-4,25
1511759901736487,-4,-38,-5,-8,2,1,0,-10
1511759901736487,-3,-19,-14,1,-7,-2,7,29
1511759901749496,2,7,24,-8,1,-1,3,11
1511759901749496,-35,-21,-32,2,-8,-2,-12,-31
1511759901750498,1,30,47,4,2,1,1,6
1511759901750498,11,-30,-43,-2,-5,-6,-4,-13
1511759901772525,-8,-2,-9,-6,0,1,15,53
1511759901772525,-10,12,-11,-1,0,-3,-8,-17
1511759901773518,-19,-13,7,2,-2,0,9,16
1511759901773518,-18,2,22,4,-3,-7,-14,-15
1511759901786531,13,10,1,-5,-2,-6,7,-12
1511759901786531,1,-13,11,-10,0,-2,-6,11
1511759901794537,-10,11,-14,4,2,6,-4,-12
1511759901794537,0,-10,-20,-5,-6,-1,4,-6
1511759901809538,32,12,-2,6,2,-1,-7,-19
1511759901809538,15,-12,9,-5,1,4,3,20
1511759901811549,-25,-20,-9,-6,-1,1,0,-4
1511759901811549,19,19,21,2,-1,0,-5,-24
1511759901832554,2,-16,-6,-1,1,-1,2,11
1511759901832554,1,-24,-4,11,1,-1,-3,-10
1511759901832554,5,17,7,1,-4,-5,-18,-39
1511759901832554,-20,29,-4,0,-8,-5,15,34
1511759901846576,6,14,-1,6,27,6,-12,-8
1511759901846576,-16,-8,2,1,-3,-1,-2,-45
1511759901855574,-27,-14,-1,-5,-1,-1,-1,40
1511759901855574,38,-5,13,4,1,1,0,14
1511759901869595,-11,3,-25,-5,-8,-2,3,-12
1511759901869595,3,-6,-11,4,2,3,0,11
1511759901870580,6,3,13,-4,-3,-3,-4,13
1511759901870580,5,-25,17,20,-4,-3,2,-16
1511759901892597,-5,6,1,-14,-1,-6,-5,16
1511759901892597,-11,-22,-14,2,2,-2,-2,0
1511759901892597,5,42,7,-9,-3,0,1,-16
1511759901892597,12,-13,-6,-3,-1,-4,-5,5
1511759901906622,-7,-1,-4,4,-5,1,4,-2
1511759901906622,1,6,4,-4,-1,-2,-10,3
1511759901914621,14,-7,-4,9,1,6,13,-20
1511759901914621,5,10,10,-5,3,-8,-12,11
1511759901929624,-13,-14,-2,-5,-6,-3,19,-4
1511759901929624,3,2,8,1,-1,3,-7,2
1511759901930623,18,7,-2,3,2,3,-6,18
1511759901930623,-16,-4,-2,-1,5,2,5,-6
1511759901952651,-8,-8,4,1,-1,-1,0,-5
1511759901952651,17,2,-8,-2,-3,-4,-6,-3
1511759901952651,-1,-4,-2,-1,1,-1,1,3
1511759901952651,0,-2,-2,-6,-4,-3,4,3
1511759901966665,4,-1,1,3,-4,-3,-6,-37
1511759901966665,5,9,-11,-5,-2,2,5,9
1511759901974664,27,-3,-6,-2,0,-5,-4,5
1511759901974664,-9,0,11,-3,-2,-1,-1,-11
1511759901989671,0,-6,-16,-5,0,3,1,10
1511759901989671,-12,-4,1,5,-1,-4,4,0
1511759901990668,-5,-4,-7,-10,-2,7,0,1
1511759901990668,8,6,6,-1,-3,-14,3,-3
1511759902012693,6,-10,-2,2,0,2,-10,3
1511759902012693,-8,2,-2,-2,0,0,2,0
1511759902012693,-7,21,2,1,-1,-1,-7,3
1511759902012693,-7,11,-7,-3,-2,3,4,-7
1511759902037699,7,-2,1,0,-3,-2,-2,3
1511759902037699,-2,3,-1,5,3,2,-5,2
1511759902038707,-1,-3,2,0,-4,-2,-2,2
1511759902038707,-8,-18,-14,-2,-1,0,1,-7
1511759902049720,1,8,7,6,1,0,5,1
1511759902049720,-3,-4,2,-5,-2,1,-5,-4
1511759902050720,0,-3,-4,0,0,-2,3,0
1511759902050720,-1,-6,-6,2,-4,-2,1,-6
1511759902072724,-1,2,7,-3,4,-1,-1,-2
1511759902072724,-4,18,2,-1,2,2,-5,2
1511759902072724,-4,-11,-14,-5,-2,-2,-5,2
1511759902072724,1,3,-2,-2,-1,3,4,-3
1511759902087735,-6,-4,2,-1,-3,-4,0,-1
1511759902087735,23,9,6,-2,1,1,-3,6
1511759902094739,-25,-28,-5,-6,-2,-3,-6,-6
1511759902094739,13,0,2,-1,1,-1,-2,-4
1511759902109749,8,-6,-7,0,-1,0,9,-2
1511759902109749,-4,-2,0,1,-1,2,-5,3
1511759902110750,-4,2,2,-1,-1,-7,-2,1
1511759902110750,11,0,-3,-4,-2,0,12,-1
1511759902132766,-5,2,3,5,4,7,-14,2
1511759902132766,-9,27,2,-1,-2,-6,-4,3
1511759902132766,5,3,-1,-1,0,0,0,1
1511759902132766,-12,-7,-3,-2,-1,-2,2,-3
1511759902146775,6,11,0,1,-2,-3,4,0
1511759902146775,-8,-13,-3,-4,0,1,-5,0
1511759902154782,-1,-2,-3,0,0,-2,-3,-2
1511759902154782,-1,-4,1,-6,-3,-4,1,-5
1511759902169793,-4,-14,-1,4,-2,-3,4,-1
1511759902169793,-8,-8,-3,-4,0,2,-6,0
1511759902170793,5,5,6,-2,-1,-3,2,1
1511759902170793,-4,-1,-1,5,-1,-2,0,-3
1511759902192846,1,3,-20,1,0,-1,1,1
1511759902192846,-8,-3,1,-1,2,3,-3,-1
1511759902192846,2,6,2,0,0,-1,-3,2
1511759902192846,-3,-7,-1,0,-3,-3,3,-3
1511759902206819,4,5,9,-1,0,-4,0,0
1511759902206819,-4,-11,-6,-1,-1,-1,-5,-1
1511759902214836,-1,-8,-4,-2,-3,3,-1,0
1511759902214836,-1,-7,-3,-6,-2,-2,-1,-6
1511759902229836,-3,-2,0,0,1,1,1,-3
1511759902229836,-5,-8,-5,-2,-2,-1,-4,2
1511759902230852,-8,0,1,-1,-2,0,-2,3
1511759902230852,-5,0,-1,2,0,-1,1,-3
1511759902251862,2,0,0,-3,-3,-2,1,-3
1511759902251862,-7,-3,-3,1,3,2,-5,2
1511759902252868,-2,2,3,0,-3,1,-1,0
1511759902252868,3,0,-6,-2,-2,-4,2,-1
1511759902275874,-1,-2,0,1,-1,0,-2,-2
1511759902275874,1,1,11,0,-1,2,-4,2
1511759902275874,0,0,-5,-1,-4,-1,-4,2
1511759902275874,2,3,-4,4,3,-1,4,-3
1511759902289879,3,-3,1,-3,1,0,2,-4
1511759902289879,-3,6,-2,-2,0,-1,-4,-2
1511759902290892,1,-2,-4,-1,0,-2,-1,0
1511759902290892,-4,2,14,1,-2,-2,3,-5
1511759902311892,0,0,-8,6,3,0,-2,1
1511759902311892,1,-1,-2,-2,-3,1,-4,2
1511759902312893,-3,-3,4,-1,-1,-3,-2,0
1511759902312893,0,-3,-5,-1,-2,-2,3,-5
1511759902334918,2,-2,0,-5,-1,-1,1,0
1511759902334918,-2,-2,-6,0,1,-1,-4,1
1511759902335911,-1,2,14,1,-1,-2,-3,1
1511759902335911,0,-10,-19,-5,-1,-6,0,-4
1511759902349919,-2,-1,-2,-2,-2,-1,0,-3
1511759902349919,-3,-1,-1,-4,-3,1,-5,4
1511759902350920,0,5,19,5,1,0,-1,-1
1511759902350920,1,3,-3,-5,-1,-1,4,-5
1511759902372953,1,0,3,1,2,0,1,-2
1511759902372953,-1,-8,-31,-10,-3,-3,-6,1
1511759902372953,-3,5,25,4,0,2,-1,0
1511759902372953,-4,-10,-25,-6,-5,-5,5,-6
1511759902394964,0,-7,16,3,-2,-1,-1,-2
1511759902394964,-2,-1,-4,-5,-1,0,-2,1
1511759902395954,-1,-2,-7,-3,-2,-3,-3,-2
1511759902395954,0,6,10,4,0,-1,3,-4
1511759902409962,0,-2,1,2,0,-1,3,-2
1511759902409962,1,4,5,0,-2,-3,-10,3
1511759902410963,-5,2,-11,-6,-4,4,2,-1
1511759902410963,4,2,19,6,1,-1,0,-3
1511759902431989,-3,-4,-24,-2,0,1,0,-2
1511759902431989,-1,6,12,2,-1,-1,-1,1
1511759902432979,-2,-7,-10,-8,-5,-4,-4,0
1511759902432979,0,-7,-28,-8,-1,0,2,-4
1511759902456000,-1,2,6,5,-2,-3,2,0
1511759902456000,-2,1,-7,-4,4,1,-4,3
1511759902456000,-1,-3,-13,-2,-2,-1,0,1
1511759902456000,-1,-4,9,-3,0,-3,4,-4
1511759902470016,0,1,8,3,1,-2,-3,-1
1511759902470016,1,6,16,8,3,3,-4,4
1511759902471017,-2,-14,-6,-15,-6,-2,-2,-1
1511759902471017,-2,-14,-19,-8,-6,-5,-2,-5
1511759902493020,-3,-1,23,2,-1,-1,3,-6
1511759902493020,-7,-13,-37,-10,-5,-1,-2,2
1511759902493020,2,7,26,7,2,1,0,1
1511759902493020,4,7,12,5,2,3,5,0
1511759902515048,0,-5,-5,-6,3,5,-2,-2
1511759902515048,-3,5,14,-1,-2,-7,-11,1
1511759902516036,-2,1,-21,-3,-2,-1,-4,1
1511759902516036,4,0,0,-1,-4,-6,0,-1
1511759902530046,2,4,-6,2,-2,3,1,0
1511759902530046,-4,-2,7,-1,1,4,-5,2
1511759902530046,-2,2,-9,-1,-1,-3,-2,-2
1511759902530046,3,9,35,13,2,2,5,-2
1511759902552074,-3,-14,-26,-16,-7,-10,-2,-3
1511759902552074,-6,-5,-36,-8,-2,1,-3,-2
1511759902553062,-2,-7,-5,-1,-2,-2,-3,-2
1511759902553062,1,4,14,4,-1,-1,6,-2
1511759902575078,6,5,-2,7,2,2,0,0
1511759902575078,-5,-6,16,-6,-3,0,-5,2
1511759902577083,-4,2,-10,-1,2,2,0,1
1511759902577083,-2,-4,-7,-1,0,-3,3,-4
1511759902590107,3,6,12,2,2,0,0,2
1511759902590107,-3,6,4,5,1,4,-3,5
1511759902590107,-1,3,25,-4,-2,-2,-2,1
1511759902590107,0,-7,-11,0,-3,-2,3,-5
1511759902612106,-1,-4,-7,-4,-1,-4,-1,-2
1511759902612106,-2,-1,-5,-2,2,3,-2,2
1511759902613105,0,1,9,-3,-1,-3,1,0
1511759902613105,-1,3,-5,-2,-2,-3,4,-5
1511759902635133,0,-7,-40,-4,-2,-2,0,0
1511759902635133,-4,-9,0,-7,-6,0,-6,0
1511759902636137,-1,-1,-2,4,1,0,2,-3
1511759902636137,4,-4,6,-1,-3,-1,-1,-5
1511759902650143,4,1,-13,-4,-1,1,-3,-1
1511759902650143,-4,3,9,0,-1,1,-4,3
1511759902651136,1,7,-15,1,0,0,-2,3
1511759902651136,-1,-7,5,-2,-3,-5,0,-5
1511759902672147,-3,-2,7,2,2,0,-2,-2
1511759902672147,0,-6,-1,2,1,0,-5,0
1511759902673148,-5,8,7,-2,0,-2,0,-2
1511759902673148,1,-4,-14,-4,0,-1,4,-4
1511759902695181,-1,0,20,1,-2,1,-1,-2
1511759902695181,0,-1,-5,-4,-4,-1,-2,2
1511759902696164,-5,-2,-5,-1,-1,-3,2,0
1511759902696164,4,-4,-4,0,-1,-3,2,-3
1511759902710186,5,1,-1,2,2,0,-2,-4
1511759902710186,1,9,17,5,1,2,-3,4
1511759902710186,-5,-12,-28,-12,-5,-3,-5,-3
1511759902710186,2,2,5,1,-1,-1,3,-1
1511759902732189,0,-3,4,-1,0,-1,-2,0
1511759902732189,0,13,10,6,2,4,-5,4
1511759902733189,-5,-11,-3,-12,-7,-7,-2,-3
1511759902733189,1,-4,3,2,1,-1,5,-6
1511759902755218,-5,-1,5,-1,-1,0,-1,-1
1511759902755218,-2,4,-9,-1,1,2,-4,2
1511759902756220,-3,4,1,0,-1,0,-3,2
1511759902756220,0,-3,-1,-2,-2,-3,3,-4
1511759902770216,-2,-2,4,0,-1,-4,1,-2
1511759902770216,-3,-2,-4,-4,-3,1,-6,2
1511759902771231,3,-1,2,-1,-1,-4,0,1
1511759902771231,2,-2,3,-1,-1,-4,2,-4
1511759902792241,-4,5,-5,0,0,2,0,0
1511759902792241,-5,-5,10,-4,-1,-2,-6,1
1511759902793242,-2,6,4,-2,-2,1,-4,-1
1511759902793242,3,1,-6,0,-2,-2,3,-5
1511759902815257,0,-6,2,-2,-1,-2,0,0
1511759902815257,-4,-1,1,-1,-2,0,-5,1
1511759902816261,-2,-1,-15,-1,0,2,-1,-1
1511759902816261,-1,-6,-3,-2,-4,-3,2,-4
1511759902829270,-2,0,0,0,-2,-1,1,0
1511759902829270,-2,1,-5,-1,1,0,-5,3
1511759902837273,3,7,15,9,2,1,1,3
1511759902837273,-2,-9,-16,-5,-4,-3,1,-7
1511759902852283,1,-5,4,-1,1,-3,0,-2
1511759902852283,-4,4,1,0,-2,1,-2,0
1511759902853284,0,1,5,2,-2,0,-2,2
1511759902853284,1,-3,-6,2,0,2,3,-4
1511759902875305,4,-2,-7,0,1,-1,-4,0
1511759902875305,-3,1,7,-2,-1,-2,-1,2
1511759902876290,-3,-1,-5,-4,-4,-1,-5,-2
1511759902876290,-1,-4,-2,-1,-2,-4,1,-3
1511759902889305,3,-1,-4,-2,-3,0,0,-3
1511759902889305,-2,-1,-2,-2,-1,1,-1,1
1511759902897318,0,-3,-3,0,-1,-2,-3,1
1511759902897318,-1,6,1,2,-2,-3,3,-3
1511759902912318,0,-2,1,1,-1,-2,-3,-3
1511759902912318,-4,0,-1,-5,-2,-1,-3,2
1511759902914319,0,-2,0,-1,-2,3,1,-2
1511759902914319,1,-3,-1,-3,0,-1,3,-3
1511759902935344,-2,-1,0,-1,-1,1,-1,0
1511759902935344,-4,-1,-2,-2,-1,3,-4,4
1511759902936345,-1,-1,-2,-2,0,-1,0,-1
1511759902936345,2,-2,-3,-1,1,-3,5,-3
1511759902949355,0,-4,1,-1,0,-1,1,0
1511759902949355,-3,-1,-3,-2,-1,-1,-7,1
1511759902957360,-2,0,-2,0,-3,0,2,0
1511759902957360,2,-3,2,0,-3,-2,1,-4
1511759902972363,-1,-1,-1,-1,-1,0,-3,0
1511759902972363,-2,-2,0,-2,0,-2,-6,1
1511759902973367,-3,0,-4,-3,-1,-5,-2,-1
1511759902973367,2,0,-1,3,-2,-3,2,-3
1511759902995385,-1,-2,0,1,0,0,0,-1
1511759902995385,-1,2,-9,-1,0,3,-1,3
1511759902996376,-3,-6,0,-2,-2,-3,-1,-3
1511759902996376,1,-4,-1,0,1,-2,4,-3
1511759903009398,0,2,0,0,-2,-2,0,-1
1511759903009398,-2,0,0,-2,-3,-2,-7,4
1511759903017401,-1,0,-2,-2,-1,-2,0,1
1511759903017401,1,-2,1,0,-2,1,3,-4
1511759903032411,4,-3,-2,-4,-3,0,1,-1
1511759903032411,-4,0,1,0,-1,1,-4,1
1511759903033413,-1,-1,-6,-2,-1,-5,-3,-1
1511759903033413,1,-1,2,1,1,-3,1,-2
1511759903055419,-1,0,-3,-1,1,-2,-2,-2
1511759903055419,-3,0,-1,-1,-1,-2,-3,0
1511759903056419,0,0,1,-2,-3,-1,0,2
1511759903056419,1,-2,-4,-1,-2,-4,3,-5
1511759903069439,-2,-4,0,-2,1,-1,-4,1
1511759903069439,-3,-1,-1,-2,-1,-2,-4,0
1511759903078443,-1,1,0,1,-1,0,-2,-1
1511759903078443,1,0,-2,1,0,-3,4,-3
1511759903092450,1,0,1,-1,0,-2,-3,-3
1511759903092450,-3,-1,1,-3,-1,-1,-2,4
1511759903093456,-2,-3,-2,-2,-1,0,1,-1
1511759903093456,1,-2,4,2,-4,-1,1,-4
1511759903115469,0,1,-3,1,-2,3,1,-3
1511759903115469,-2,2,37,2,0,-1,-2,4
1511759903116470,-2,-6,-42,-9,-2,-2,-1,0
1511759903116470,1,-2,7,-2,1,-1,3,-3
1511759903129479,-3,-1,-6,-2,-2,-1,0,-3
1511759903129479,1,0,5,1,-2,2,0,0
1511759903137485,1,-1,10,1,-2,-2,1,-1
1511759903137485,0,-2,-7,1,-1,-2,2,-2
1511759903152495,-1,0,1,0,-1,-2,-3,-2
1511759903152495,-5,-1,-13,-5,-1,2,-3,2
1511759903153486,1,4,10,-3,-2,1,1,0
1511759903153486,3,-1,-6,-4,-1,-3,4,-5
1511759903175503,0,-1,4,1,-3,1,-2,1
1511759903175503,-3,-1,-10,-2,1,-1,-1,0
1511759903176515,-1,0,4,0,-2,0,-2,-3
1511759903176515,0,-3,4,1,0,-2,2,-3
1511759903197529,1,-1,-3,-2,-1,2,3,-2
1511759903197529,10,0,-7,-3,-3,-1,-1,1
1511759903198518,16,-2,3,-1,-1,-1,0,-1
1511759903198518,20,-3,-3,1,-1,-2,1,-2
1511759903212540,9,-5,-3,1,0,-2,-5,0
1511759903212540,3,1,-7,-4,-1,-1,-11,3
1511759903212540,-6,-1,6,0,0,0,-2,-1
1511759903212540,-6,-2,-3,1,0,-1,0,-3
1511759903235557,-5,-1,-3,-3,-2,-1,-1,0
1511759903235557,2,2,-1,-3,-1,2,-5,1
1511759903236557,11,0,1,0,0,-3,0,1
1511759903236557,3,-3,-2,-3,-1,-3,1,-3
1511759903258562,1,-1,-1,-1,-1,-3,-1,-2
1511759903258562,-12,-1,-3,-2,-2,-1,-3,4
1511759903258562,-12,-2,0,-2,1,0,1,-3
1511759903258562,-15,-2,-2,4,-1,-1,2,-3
1511759903272588,-15,2,2,-1,0,-1,-3,-3
1511759903272588,-13,-1,-1,-2,0,0,-7,0
1511759903272588,-6,-2,-1,0,-2,-1,2,-1
1511759903272588,-5,-2,-1,0,-3,0,2,-3
1511759903295600,-11,-2,-1,1,1,-1,-1,0
1511759903295600,-10,-2,-1,-1,-3,0,-3,1
1511759903296600,-6,-1,3,-1,-3,0,1,-1
1511759903296600,4,-3,-2,1,0,0,0,-5
1511759903317612,-1,-2,-1,2,-1,0,0,0
1511759903317612,5,0,-3,-2,-4,-1,-4,3
1511759903318603,7,0,0,-2,-1,-1,-1,-1
1511759903318603,9,-3,-2,-2,0,-3,2,-4
1511759903332625,4,-1,-2,0,0,-1,1,-3
1511759903332625,-7,0,-1,-1,-1,3,-3,1
1511759903332625,-6,-1,2,1,-2,0,0,-2
1511759903332625,-6,-4,0,0,2,-2,4,-5
1511759903355642,-8,-1,-1,-1,1,-3,-2,1
1511759903355642,-7,2,-1,-1,1,-1,-4,1
1511759903356649,-5,1,0,-2,-2,-1,1,-4
1511759903356649,1,-2,-3,0,-2,-1,1,-3
1511759903377645,1,-2,-2,-1,-1,1,-2,1
1511759903377645,0,-1,-2,-3,-2,0,-3,1
1511759903379646,2,-2,0,0,-2,-4,-2,-2
1511759903379646,-1,1,2,0,-2,-4,2,-4
1511759903392656,-1,-1,-2,-1,-2,-1,-2,-1
1511759903392656,-4,2,-2,-1,0,-4,-2,2
1511759903392656,-1,1,0,-2,0,-2,-1,-2
1511759903392656,1,-1,-3,-1,-1,1,4,-4
1511759903415681,0,-1,-2,0,0,1,-3,1
1511759903415681,-4,0,-2,-2,-1,0,-3,-1
1511759903415681,0,0,-1,-2,-1,0,1,-2
1511759903415681,2,-2,-1,0,0,-2,1,-4
1511759903438691,0,0,0,-1,1,-1,-4,2
1511759903438691,-2,0,1,-2,-1,0,-4,1
1511759903439704,0,-2,0,-1,-2,-3,1,-1
1511759903439704,2,-1,-2,2,-1,1,1,-2
1511759903451709,-1,-2,-1,-1,0,-1,-3,-1
1511759903451709,-1,-1,0,-2,-2,-2,-4,2
1511759903452717,-1,-1,-1,0,-2,-3,0,-3
1511759903452717,1,-1,1,-1,-2,-4,1,-4
1511759903475713,-1,-1,-1,-1,0,-2,-2,-4
1511759903475713,-1,0,-2,-3,2,2,-5,3
1511759903476714,2,-2,-1,-1,-2,0,1,0
1511759903476714,3,-5,-3,-1,1,-1,2,-3
1511759903497741,0,1,-1,0,-2,1,-1,-2
1511759903497741,-2,1,-2,-3,0,-1,-2,3
1511759903498738,-2,0,-3,-4,-3,-4,1,0
1511759903498738,0,-2,0,0,0,-3,3,1
1511759903512752,-2,3,0,1,-1,2,-1,-1
1511759903512752,-4,1,-2,0,-2,0,-3,1
1511759903512752,-2,-1,-1,1,-2,-4,0,-2
1511759903512752,0,-3,0,-1,-2,-2,0,-1
1511759903535769,0,-2,-1,-2,-1,1,1,1
1511759903535769,0,-3,-1,-2,-4,-1,-3,0
1511759903536769,1,0,-2,-1,-1,-1,1,-1
1511759903536769,1,-1,-3,-1,-1,-1,1,-3
1511759903557772,0,-4,-1,-1,2,1,0,0
1511759903557772,-4,-1,-2,-2,-2,1,-2,1
1511759903560783,-1,-1,0,-4,-3,-2,0,-2
1511759903560783,-3,-3,-2,-1,1,-3,1,-3
1511759903571796,-4,-1,-2,-1,0,0,-2,2
1511759903571796,-3,1,-2,-2,-1,-1,-4,0
1511759903580798,-2,0,0,0,-1,-1,1,-2
1511759903580798,1,-3,0,0,1,-2,1,-3
1511759903595798,1,-1,-1,2,-2,-2,-3,1
1511759903595798,-3,-2,2,-2,1,0,-4,0
1511759903597800,0,0,-1,0,-3,-3,-2,-1
1511759903597800,1,1,-3,-1,1,-1,1,-5
1511759903617825,0,-1,-3,-2,-3,0,-4,0
1511759903617825,-2,1,0,-3,-2,1,-1,3
1511759903619827,2,0,0,0,-2,0,2,-1
1511759903619827,1,-3,-1,1,-3,0,-2,-2
1511759903631824,-4,-1,-2,-1,-1,0,-2,-1
1511759903631824,-5,1,-1,-1,-2,-2,-4,2
1511759903640846,3,-2,-1,-3,-1,-3,1,-2
1511759903640846,1,0,-3,-1,2,-1,0,-2
1511759903655846,0,-1,-1,-1,-2,3,-4,-2
1511759903655846,-2,1,-1,-2,-2,-1,0,1
1511759903656845,-1,-1,0,1,-3,-2,1,0
1511759903656845,1,1,0,1,-1,-1,0,-2
1511759903677856,0,-1,-3,-2,-2,-2,-3,-1
1511759903677856,-4,-1,1,0,-1,-1,-2,2
1511759903679858,1,0,0,-3,-1,-4,0,-5
1511759903679858,1,-4,0,-3,-1,1,4,-1
1511759903691892,-3,0,0,-2,0,-1,-1,-2
1511759903691892,-1,0,-1,-3,-3,0,-3,2
1511759903700874,-1,-3,-2,0,0,-3,2,-1
1511759903700874,1,-1,-2,1,-2,-2,0,-3
1511759903714883,0,-2,0,-1,1,-3,-1,1
1511759903714883,-2,-2,-1,-1,0,-3,-1,0
1511759903716884,-2,0,0,1,-1,0,-1,0
1511759903716884,-1,-1,-1,2,-1,0,0,-3
1511759903737899,-1,0,0,-4,1,3,-3,2
1511759903737899,0,1,-2,-3,-1,-3,-4,-1
1511759903739909,-1,-2,-1,0,-1,-3,2,-2
1511759903739909,1,-2,-1,1,0,-3,1,-2
1511759903751921,-1,1,0,-1,-1,0,-3,-3
1511759903751921,0,-3,-3,-4,-2,-1,-1,-1
1511759903760925,-3,-3,-2,-2,-2,-2,2,-2
1511759903760925,1,0,-1,0,-1,0,-1,-1
1511759903782941,-2,-1,-2,-2,-2,2,-4,2
1511759903782941,-3,0,-1,-1,-3,0,-1,1
1511759903784932,-1,-2,-3,-2,-2,-3,1,-3
1511759903784932,0,-3,-2,2,-1,-2,1,2
1511759903797951,-3,1,-1,-1,-1,1,-3,1
1511759903797951,-3,1,-1,-3,-3,-1,-3,1
1511759903799952,-1,-4,1,-1,0,-1,-1,0
1511759903799952,4,-2,-3,1,0,-1,1,-2
1511759903811951,-3,-1,0,0,0,-1,-1,1
1511759903811951,0,0,0,-2,-2,-1,-3,0
1511759903820968,0,-1,-1,-1,-4,-1,2,-4
1511759903820968,0,-1,-1,-3,-2,-2,1,-4
1511759903834967,0,-3,-1,0,2,1,-5,4
1511759903834967,-2,-2,-1,-1,-1,0,0,0
1511759903836970,1,-2,-1,-1,0,-2,0,-2
1511759903836970,0,-1,-1,0,0,0,2,-4
1511759903857994,-3,0,-1,-2,0,-1,-2,-2
1511759903857994,-4,0,-1,-1,-1,-1,-2,0
1511759903861009,-1,-1,-1,-2,-2,-3,2,-2
1511759903861009,3,-1,0,1,0,2,1,-3
1511759903872005,-2,-2,-1,2,-1,1,-3,1
1511759903872005,-2,-1,-1,0,-1,-2,-2,-2
1511759903881012,0,1,-1,-4,-3,-1,2,-2
1511759903881012,0,-2,-1,0,2,-1,1,-1
1511759903895022,1,0,-3,-1,2,1,-4,2
1511759903895022,-1,1,-2,-3,-3,-1,-2,0
1511759903897013,2,-1,-1,-2,-2,-2,3,-2
1511759903897013,0,-3,-1,-2,-3,-2,0,-1
1511759903918038,-3,-2,-3,0,4,-1,-5,1
1511759903918038,-2,0,1,-2,-2,0,-2,1
1511759903919044,1,-1,0,0,-1,-3,0,-2
1511759903919044,-1,-3,-2,-1,-1,-3,-1,-5
1511759903931048,2,1,-2,0,-3,-1,-4,2
1511759903931048,-6,4,-1,-2,-1,-1,-3,-2
1511759903941046,-1,0,-2,0,-2,-3,1,-2
1511759903941046,-2,-1,-2,0,0,1,0,-1
1511759903956055,-2,-2,-1,-1,0,2,-2,-1
1511759903956055,-1,-1,0,-3,-1,1,-4,3
1511759903957054,0,-1,-1,1,-3,0,2,-3
1511759903957054,-3,-2,-1,0,0,-3,-1,-7
1511759903978081,-2,-1,-1,-3,0,-2,-3,1
1511759903978081,0,0,0,-3,-3,-2,1,2
1511759903979082,-2,-2,-2,3,0,-5,0,-5
1511759903979082,2,-2,-1,0,-1,1,2,-1
1511759903991080,-1,0,-1,-1,-2,0,-4,1
1511759903991080,0,1,0,0,1,-2,-2,1
1511759904000096,0,-1,-1,-2,-2,-4,2,-2
1511759904000096,0,-2,-1,-1,0,-1,-2,-3
1511759904015107,-6,-1,-1,0,-1,1,-3,-2
1511759904015107,-3,-2,-2,-4,0,-1,-1,-1
1511759904017108,1,-2,-1,-4,0,-2,1,-4
1511759904017108,-1,-2,-3,-2,-2,-3,-1,-2
1511759904038121,-2,-1,-2,-3,0,3,-4,3
1511759904038121,0,-1,0,-1,-1,-1,0,0
1511759904039112,-2,1,0,0,-4,-4,4,-2
1511759904039112,1,-2,1,-1,0,-3,0,-2
1511759904052121,-3,-1,-1,-2,-2,0,-6,4
1511759904052121,-3,-1,0,-2,-2,0,-4,-1
1511759904060139,1,-2,-2,0,-1,-1,3,-1
1511759904060139,1,0,-1,3,-3,-1,1,-2
1511759904075149,-3,0,-3,-1,-1,0,-4,2
1511759904075149,0,0,-2,-1,-2,1,-2,1
1511759904077149,0,-1,1,-2,0,-2,4,-1
1511759904077149,0,-3,-2,1,-1,-1,-1,-1
1511759904098165,-3,-1,-2,1,-1,-2,-2,2
1511759904098165,-3,-3,0,-1,-3,-1,-3,-1
1511759904099166,-1,-1,-1,-1,-1,-2,2,-4
1511759904099166,-2,-2,-1,-2,-1,-1,1,-3
1511759904111163,-2,1,-1,0,1,1,-3,-1
1511759904111163,-2,0,-1,-4,-3,0,-3,-1
1511759904120181,1,-3,-2,-3,-2,-2,0,-2
1511759904120181,-1,-3,-1,2,1,1,-1,-2
1511759904135192,-3,-1,-2,-2,-2,1,-5,3
1511759904135192,-2,-1,-3,-1,-2,-1,-2,3
1511759904137193,1,-2,-2,-1,-2,-2,2,-7
1511759904137193,1,0,-1,-2,-1,1,-2,-2
1511759904159197,2,1,-1,0,-1,-1,-3,3
1511759904159197,-3,-1,-1,-1,-2,-1,-2,0
1511759904160197,3,-2,0,1,-3,-1,3,-3
1511759904160197,-1,-2,-3,0,1,-3,0,0
1511759904180221,-4,-2,-1,1,1,-2,-5,1
1511759904180221,-1,0,-1,-1,0,-1,-1,0
1511759904182222,0,-3,0,1,-2,-3,2,-1
1511759904182222,-2,-4,-2,1,-1,1,-1,-3
1511759904195223,-2,0,-2,-5,-2,3,-4,2
1511759904195223,0,-1,1,0,-3,2,0,-2
1511759904198234,-1,-1,0,3,-1,-3,-1,-3
1511759904198234,1,-1,-3,0,0,-3,0,-1
1511759904218251,-2,0,-2,1,0,-1,-5,1
1511759904218251,-1,0,1,-1,0,-3,-2,-1
1511759904219256,-1,-4,-2,0,-2,-2,4,-4
1511759904219256,1,-2,-2,-1,-2,-2,0,-2
1511759904240277,-2,0,-1,-2,1,1,-2,1
1511759904240277,-2,0,0,-3,-1,-2,0,0
1511759904242260,0,-2,-2,-1,-1,-4,1,-3
1511759904242260,1,-4,-3,0,0,-1,-1,-2
1511759904256274,-3,-1,-2,-1,0,2,-4,1
1511759904256274,0,-1,-3,-4,-2,0,-1,1
1511759904259282,0,-1,0,0,-3,0,4,-5
1511759904259282,2,-2,0,-3,0,2,1,-1
1511759904278293,-1,-2,2,0,-2,0,-5,0
1511759904278293,-4,0,0,-2,-2,-4,-1,0
1511759904279294,-3,0,-3,-2,-3,-3,3,-4
1511759904279294,1,-1,-2,-1,1,-3,1,-1
1511759904300308,-3,0,-1,0,-1,3,-4,2
1511759904300308,-2,-1,-1,-1,0,-2,0,0
1511759904302310,2,-2,-2,-1,-1,-1,1,-4
1511759904302310,-1,-1,1,0,1,-1,0,-5
1511759904314318,-1,1,0,-3,0,-2,-2,2
1511759904314318,-2,1,0,-2,0,0,-4,0
1511759904321323,0,-2,-1,-1,-2,-2,3,-3
1511759904321323,-1,0,-1,0,0,0,0,-3
1511759904338336,-2,0,-2,0,3,1,-5,-1
1511759904338336,0,0,-1,0,-3,-1,-2,-1
1511759904339336,2,-3,0,0,-3,-2,4,-2
1511759904339336,0,-2,-3,-3,0,0,2,0
1511759904360338,-2,2,0,-3,0,0,-3,1
1511759904360338,-2,0,-2,1,0,-2,-2,-3
1511759904362341,2,-3,-1,0,-2,-3,2,-4
1511759904362341,0,-3,-2,0,1,0,-2,-1
1511759904374351,-2,1,-1,-3,-4,1,-2,2
1511759904374351,-1,-4,-1,-1,0,1,-4,2
1511759904381365,-1,-1,-1,0,-1,-3,2,-3
1511759904381365,-2,-1,-1,2,-2,-1,-1,-2
1511759904398378,-3,-2,1,-2,1,0,-5,2
1511759904398378,-1,1,-1,-2,-1,0,-1,-1
1511759904400378,1,-1,-1,-2,-2,-3,0,-3
1511759904400378,-1,-2,-2,0,-1,-2,1,-3
1511759904420393,-2,-1,-1,2,1,1,-2,2
1511759904420393,-1,-1,0,-4,-3,-1,2,0
1511759904422398,0,-2,-2,0,-1,-2,3,-2
1511759904422398,-1,-2,-2,1,-1,-1,-2,-4
1511759904434403,-3,-2,-3,-1,-2,1,-4,-2
1511759904434403,-1,-1,0,-3,-1,0,-1,1
1511759904441402,2,-3,0,-1,-2,-1,1,-5
1511759904441402,0,-3,-1,1,-2,-3,-5,-1
1511759904458408,-2,1,-2,-3,-2,1,-3,1
1511759904458408,-1,0,-1,-2,-1,-3,0,2
1511759904459408,2,-2,-2,-2,-3,-2,3,-3
1511759904459408,0,-2,-5,1,-1,2,1,-3
1511759904480436,-2,-1,0,-2,-1,1,-7,0
1511759904480436,-2,-1,-1,-2,-1,-3,-2,1
1511759904482437,1,-2,-2,0,1,-4,3,-5
1511759904482437,-2,1,0,-3,0,-2,0,-2
1511759904494433,-1,1,-2,-3,-3,1,-5,4
1511759904494433,-1,-1,-1,2,-1,-1,0,-1
1511759904501450,1,-4,-1,0,-1,-4,1,-5
1511759904501450,-1,-2,0,1,-2,1,0,-2
1511759904517459,-2,-1,-1,-1,0,0,-4,1
1511759904517459,-3,1,-1,-3,-1,0,-1,1
1511759904519463,2,-3,-2,-2,0,-1,4,-2
1511759904519463,-1,0,1,-2,-3,1,2,-1
1511759904540489,-2,-2,-3,-2,-2,1,-5,2
1511759904540489,-4,-2,2,0,-1,0,-2,-2
1511759904542467,1,0,-1,0,1,-2,2,-2
1511759904542467,1,0,0,0,0,-2,1,-1
1511759904554485,-2,0,0,-2,-2,-1,-3,2
1511759904554485,-2,0,1,0,-3,1,-2,0
1511759904561493,0,-3,-1,-2,-2,-2,3,-3
1511759904561493,-1,-2,-1,-1,-2,-2,-1,-1
1511759904577491,-4,1,-1,-1,-1,1,-4,0
1511759904577491,1,-2,-2,-3,0,-1,-1,0
1511759904580506,0,-2,-1,-1,-2,-1,4,0
1511759904580506,1,-2,-2,0,1,-1,-2,-2
1511759904600520,-2,1,1,0,0,0,-4,4
1511759904600520,-1,0,-1,-1,-1,-2,0,1
1511759904602519,0,-1,-1,0,-2,-3,1,-4
1511759904602519,0,-2,-1,0,0,-2,0,-2
1511759904614519,-3,-2,-2,0,0,1,-3,1
1511759904614519,-1,-1,-2,-3,-2,-4,-2,-1
1511759904621524,1,-2,0,2,-1,-1,2,-4
1511759904621524,-2,0,-2,-1,-1,-1,-1,-1
1511759904637546,-4,-2,1,-1,-1,0,-4,3
1511759904637546,-2,-1,-1,-1,-1,0,1,2
1511759904639548,1,-3,0,0,-2,-3,3,-4
1511759904639548,1,-3,-1,-2,0,1,1,-2
1511759904661563,-2,0,-2,-1,0,-1,-7,-1
1511759904661563,-1,-1,-1,-1,-2,0,-2,1
1511759904663553,1,0,-2,-2,1,-4,0,-5
1511759904663553,-1,1,-2,-2,-1,-2,0,0
1511759904674573,-5,0,-1,-5,-1,-1,-4,2
1511759904674573,-1,-1,-1,0,-1,0,-4,-3
1511759904682579,-1,-1,-2,-1,-1,0,2,-3
1511759904682579,1,0,-3,1,0,-1,1,0
1511759904697578,-4,1,-1,-4,-1,0,-3,3
1511759904697578,1,0,-1,0,-2,-3,0,1
1511759904705582,0,-1,1,2,-2,-2,2,-4
1511759904705582,1,0,-3,1,1,-3,-3,-2
1511759904720605,-2,1,-1,-4,-1,3,-4,2
1511759904720605,0,-1,1,-3,0,-3,-4,-1
1511759904722619,-1,-2,-3,0,0,-1,4,-4
1511759904722619,0,-3,-2,-2,-1,-1,0,-1
1511759904733602,-3,-2,-2,1,-1,1,-3,0
1511759904733602,-2,-2,-2,-1,0,-1,-3,-2
1511759904742621,2,-2,1,0,-2,-2,2,-1
1511759904742621,-2,-1,-2,-2,0,0,-1,-1
1511759904757638,-2,1,0,-3,2,-1,-2,2
1511759904757638,-2,0,-2,0,-1,-2,1,1
1511759904759621,1,-1,-1,0,0,-2,1,-3
1511759904759621,-1,0,-3,0,1,1,-1,-2
1511759904780636,-1,0,-1,0,-1,2,-6,1
1511759904780636,-3,0,0,-2,-1,1,-1,0
1511759904781637,0,-4,-2,-3,-2,-4,2,-3
1511759904781637,0,-2,-2,-1,-2,-1,-3,-1
1511759904793658,-3,0,-3,-3,-1,0,-4,0
1511759904793658,-1,0,0,-4,-1,-1,1,-3
1511759904802650,-1,-3,-2,0,-1,-1,4,-4
1511759904802650,0,0,2,0,-1,0,1,-1
1511759904817662,-1,1,-2,-1,0,-1,-3,0
1511759904817662,-2,-1,-1,2,0,-1,-2,0
1511759904819675,1,-2,-1,0,-1,0,2,-4
1511759904819675,-2,-2,-1,2,1,-3,1,-1
1511759904840687,0,-3,-1,-1,-3,-2,-3,4
1511759904840687,0,-2,1,-1,-1,-1,1,-1
1511759904841679,-1,-5,-1,1,-3,-1,0,-5
1511759904841679,0,-3,-3,1,0,0,-1,0
1511759904853701,-4,1,1,-4,-2,-2,-5,3
1511759904853701,-2,2,-1,-4,-1,-2,-1,-2
1511759904862705,1,0,1,0,0,-4,1,-4
1511759904862705,0,-1,-2,-2,0,0,0,-3
1511759904877717,-2,2,-2,-1,-2,0,-3,2
1511759904877717,-2,-2,-1,0,-1,0,-2,0
1511759904879717,1,-2,-1,-1,-1,-2,2,-4
1511759904879717,0,-2,-2,-2,-1,0,-1,-2
1511759904900733,-3,1,1,-2,-1,-2,-3,3
1511759904900733,-1,0,-1,-4,-2,-2,0,-2
1511759904901739,0,-1,-3,1,-4,-2,2,-2
1511759904901739,0,0,-1,0,-1,0,-4,-1
1511759904913730,-4,-2,0,-3,-2,1,-4,3
1511759904913730,-1,0,-2,-2,-1,-2,-3,0
1511759904922737,0,-3,-2,1,1,-3,1,-3
1511759904922737,0,-2,0,1,-1,-3,0,-1
1511759904937758,-2,0,-3,0,3,-3,-4,2
1511759904937758,-1,-1,-2,-1,-2,0,1,0
1511759904939747,2,-4,-3,0,-1,0,4,-3
1511759904939747,0,-2,-2,-1,0,1,-3,-1
1511759904960779,-2,1,-1,1,0,13,-1,1
1511759904960779,-2,-2,0,-3,-2,-11,1,1
1511759904962763,1,-1,-3,-1,1,-3,2,-4
1511759904962763,0,-3,-2,0,-1,-3,-2,-1
1511759904973791,-2,-1,-2,-2,0,1,-6,0
1511759904973791,-2,-1,-1,0,-3,3,-1,-2
1511759904982778,0,-2,-2,3,-1,-1,5,-2
1511759904982778,-2,0,-1,-3,-2,0,-1,0
1511759904997800,-3,-2,0,-3,-1,1,-7,2
1511759904997800,-2,-1,-2,1,-3,1,-3,0
1511759904999802,2,-1,0,-3,0,-5,2,-4
1511759904999802,2,-2,-2,-2,-2,1,0,1
1511759905020817,-3,0,-1,-4,-2,-1,-1,1
1511759905020817,-1,0,-2,-1,-3,-3,0,-1
1511759905021806,-1,0,0,-3,0,0,2,-3
1511759905021806,-1,0,-2,-2,0,-4,-2,-1
1511759905033826,-3,2,-1,0,-3,-4,-5,1
1511759905033826,-1,-1,-3,0,-1,-2,1,-1
1511759905042847,1,-4,-1,1,-1,-2,1,-4
1511759905042847,-1,0,-2,-1,1,-1,0,0
1511759905057846,-3,0,0,-2,1,-1,-6,1
1511759905057846,-1,-2,1,-3,-2,-1,-1,-4
1511759905059833,3,-1,-1,-1,-1,-1,1,-5
1511759905059833,-2,-2,0,1,0,0,-1,-1
1511759905080857,-3,1,-3,-3,-1,-2,-3,3
1511759905080857,-1,-1,-1,-2,-2,0,0,0
1511759905081862,2,-1,-1,0,-3,0,1,-5
1511759905081862,2,-3,0,-2,0,2,-2,-1
1511759905102873,-2,-1,0,-3,-5,-1,-4,3
1511759905102873,-2,1,0,0,0,-2,1,0
1511759905108892,0,-1,-1,0,0,-3,3,-3
1511759905108892,-3,-3,-1,0,0,0,0,0
1511759905117874,-4,2,-1,0,0,-1,-1,3
1511759905117874,-1,-1,-2,-3,-1,-1,-1,-1
1511759905119876,0,0,0,0,-2,-1,3,-4
1511759905119876,1,-2,-3,0,0,-1,-2,1
1511759905140908,-1,-2,-1,-3,0,1,-5,4
1511759905140908,0,-2,-1,-2,-1,-2,1,0
1511759905141891,0,-2,-2,0,0,-1,1,-3
1511759905141891,0,-2,0,0,-2,-1,-3,-3
1511759905162906,-3,2,0,0,-2,1,-3,1
1511759905162906,-3,1,1,-1,-2,-3,-2,-3
1511759905164907,0,-3,-2,-1,-1,-3,2,-3
1511759905164907,0,0,0,1,-1,1,-2,-2
1511759905177927,-1,-4,-2,-3,0,0,-3,2
1511759905177927,-1,1,0,-3,-1,0,2,-1
1511759905179929,2,-2,0,1,0,-2,2,-6
1511759905179929,0,2,-2,-3,-1,0,-3,0
1511759905199940,-3,1,-2,-3,-2,-2,-3,1
1511759905199940,-2,-1,-2,0,-1,0,-1,-2
1511759905201937,0,-3,-3,-2,0,-3,2,0
1511759905201937,-3,1,-1,-3,0,-1,1,-1
1511759905222950,-1,0,1,1,-1,-1,-2,0
1511759905222950,-2,-1,-2,-1,-1,-2,1,-1
1511759905224953,0,-1,-4,2,1,1,2,-3
1511759905224953,-1,-1,-1,1,1,-1,-1,-1
1511759905236969,-1,1,-2,-2,0,0,-4,1
1511759905236969,1,-1,1,0,-1,-3,-1,-1
1511759905243963,1,-2,-1,0,-1,-4,1,-2
1511759905243963,0,-2,-1,-1,-2,0,-2,-1
1511759905259974,-3,0,-1,-3,0,1,0,-2
1511759905259974,-2,-1,1,-2,-2,-1,0,1
1511759905263988,0,-1,0,-1,-2,1,2,-2
1511759905263988,-2,-1,-3,2,0,-1,-2,0
1511759905283002,-4,0,-3,-2,-3,-3,-4,3
1511759905283002,1,-1,-2,-1,0,-1,0,-2
1511759905284991,0,-3,0,-3,-2,-1,3,-4
1511759905284991,-1,-2,-1,-1,-1,-1,0,-1
1511759905296999,-3,0,0,-2,-3,-2,-2,0
1511759905296999,-3,-3,0,-1,-2,-1,0,0
1511759905304014,0,-3,-3,1,0,-3,0,-3
1511759905304014,0,-1,-1,0,-1,0,-3,-1
1511759905320026,-2,-1,-1,-1,-1,-1,-1,0
1511759905320026,-1,-3,-2,-2,0,-3,-3,-2
1511759905323021,0,-1,0,-1,1,1,3,-3
1511759905323021,-1,0,-2,0,-4,-1,-1,0
1511759905343042,-1,0,0,-1,-1,0,-4,0
1511759905343042,0,1,-1,0,-2,0,-1,0
1511759905344045,1,-2,0,1,-2,0,1,-3
1511759905344045,1,-3,-1,0,1,1,-1,-1
1511759905357049,-4,-1,1,-2,-1,-1,-3,0
1511759905357049,-1,-2,-2,1,-1,-1,0,-3
1511759905364047,1,-1,-2,-1,0,-1,3,0
1511759905364047,-3,-1,-2,-1,-2,1,0,0
1511759905380070,-3,-2,-3,-2,-1,0,-5,1
1511759905380070,0,-1,-2,-3,-3,-4,1,-2
1511759905382072,2,-2,-3,0,-3,-3,1,-4
1511759905382072,-3,0,0,-1,2,-1,-3,-1
1511759905403085,-2,2,1,-2,0,3,-3,3
1511759905403085,-2,-1,0,-1,-3,-3,0,0
1511759905404085,2,6,-2,1,-1,-2,2,-5
1511759905404085,-1,-1,-1,0,-3,0,-1,0
1511759905417085,-3,-1,-2,-4,0,1,-3,2
1511759905417085,0,-4,-2,0,-1,0,0,-3
1511759905424101,1,-2,-2,1,1,-1,-1,-2
1511759905424101,-1,0,0,0,1,1,-3,-1
1511759905441108,-3,1,1,-2,-4,-1,-3,2
1511759905441108,-4,-2,-1,0,-2,-3,3,-2
1511759905442113,-1,-3,-1,0,0,-2,2,-3
1511759905442113,-4,-1,1,2,3,-1,-3,2
1511759905463130,-1,0,-1,-4,-1,-1,-1,2
1511759905463130,0,0,-1,-3,2,1,1,0
1511759905464130,0,-3,-2,2,-2,-2,1,-3
1511759905464130,-1,-4,-1,0,-2,0,-1,-1
1511759905477145,1,-2,-1,-1,-4,-1,-4,0
1511759905477145,2,0,0,0,-4,-3,1,-1
1511759905484146,1,-2,-2,1,1,-2,-2,-2
1511759905484146,-3,-1,-3,-3,-1,0,-1,-1
1511759905500143,-3,0,1,0,-1,-1,-2,0
1511759905500143,-1,-1,0,-3,-1,-2,0,-3
1511759905502144,0,-6,-1,-3,-4,-2,1,-3
1511759905502144,-3,0,-2,-3,1,1,-2,0
1511759905523164,-4,1,-2,0,1,2,-3,1
1511759905523164,1,1,-2,-4,-4,-1,-1,-3
1511759905524160,0,-2,1,-1,0,-3,2,-2
1511759905524160,0,-2,-2,-1,1,-1,-2,-1
1511759905537170,-1,-2,-3,-2,-3,-1,-2,1
1511759905537170,0,-2,-2,0,-1,-3,2,-2
1511759905544187,1,-3,-4,0,1,1,0,-4
1511759905544187,0,-1,-1,0,1,-1,-4,2
1511759905560196,-2,-1,1,-1,-1,0,-3,-2
1511759905560196,-1,-2,-2,-3,-1,-1,-1,-1
1511759905562200,-1,-2,0,1,-2,-1,-1,-2
1511759905562200,0,-1,-2,-2,1,-3,-3,1
1511759905583211,-4,-13,-4,-4,1,-2,-3,1
1511759905583211,1,2,-2,-1,-1,-3,1,-3
1511759905584202,-1,-3,-2,-1,-2,0,1,-1
1511759905584202,-1,-2,-3,-3,-2,1,-3,1
1511759905596224,-2,0,0,-1,-2,-3,-3,2
1511759905596224,-1,-3,-1,-1,-2,-2,1,-2
1511759905606225,-1,-2,-1,1,1,-1,0,-5
1511759905606225,-2,-1,-1,0,-1,-1,-3,1
1511759905620228,-2,2,-1,0,-1,-1,-2,0
1511759905620228,-3,0,0,-1,0,-1,1,-3
1511759905622242,1,0,-1,1,0,0,1,-3
1511759905622242,-1,0,0,-2,-2,-1,-4,0
1511759905643256,0,2,-3,-3,-1,-3,-5,-1
1511759905643256,1,-1,0,-1,-1,-2,-1,-3
1511759905644245,-3,0,-2,-1,1,-3,0,-3
1511759905644245,-1,-1,0,-1,0,0,-4,2
1511759905657256,-1,2,-2,-2,-3,0,-2,1
1511759905657256,-1,-3,-1,-1,-1,-3,3,-1
1511759905665261,1,-1,-1,-3,-1,-3,1,-2
1511759905665261,-2,0,-2,-4,1,2,-2,-2
1511759905680283,-1,2,0,-2,0,-1,-3,1
1511759905680283,-2,-2,-1,0,-1,-1,1,1
1511759905682284,-1,-3,-2,0,-2,-3,2,-2
1511759905682284,-2,0,-1,0,-1,1,-3,1
1511759905703299,-1,-1,0,-1,-1,0,-1,-2
1511759905703299,0,-3,-1,-1,-4,-2,3,-4
1511759905704287,1,-3,-1,2,1,-1,2,-3
1511759905704287,-3,-1,-2,-1,-1,2,-1,1
1511759905716308,-2,1,-1,-2,-1,-2,-5,1
1511759905716308,1,-2,-1,-2,0,-2,0,-1
1511759905725302,-1,-1,0,0,-1,-1,0,-4
1511759905725302,-1,2,-3,-2,-1,-2,-4,-1
1511759905740314,-3,0,0,1,-1,-1,-2,0
1511759905740314,-2,-1,-2,0,-1,-3,2,-3
1511759905742314,1,-2,-2,-1,-1,-4,1,-1
1511759905742314,-1,-1,-1,0,1,0,-4,1
1511759905763341,-2,-1,1,-2,-3,-1,0,2
1511759905763341,2,-3,1,0,-3,-2,2,-3
1511759905764329,2,-2,1,-1,-3,-1,2,-1
1511759905764329,-4,0,-2,0,0,0,-4,1
1511759905776350,-5,1,-2,-2,-1,-1,-4,0
1511759905776350,-2,-1,-2,0,-3,-1,1,-4
1511759905785356,1,-2,0,-1,1,-1,-1,-2
1511759905785356,-2,-2,0,0,-1,0,-3,1
1511759905800367,-3,-3,0,-2,1,0,1,0
1511759905800367,1,11,0,0,-3,-1,2,-1
1511759905802368,0,0,-3,1,-2,1,2,0
1511759905802368,-2,-1,-2,-2,0,0,-2,0
1511759905823372,-5,0,-2,-1,-3,-1,0,-2
1511759905823372,-1,-4,0,0,-1,-2,1,-2
1511759905824372,1,-2,-1,0,-1,0,1,-4
1511759905824372,-1,-1,0,-3,-1,1,-4,2
1511759905836381,-2,-3,0,-3,-1,1,-1,2
1511759905836381,0,-2,-2,1,0,-1,2,-2
1511759905845386,1,-4,-1,-2,0,-2,0,-1
1511759905845386,-1,-3,-2,2,0,0,-2,-1
1511759905860407,-1,-1,-1,-2,-2,-2,-3,0
1511759905860407,1,-4,-1,-1,-2,-2,1,-1
1511759905862408,1,-1,-2,0,-1,0,-2,-2
1511759905862408,-2,0,0,-3,0,1,-3,1
1511759905882423,-2,0,0,-3,-2,0,0,2
1511759905882423,0,-3,0,-1,-2,-3,0,-4
1511759905884415,0,-1,-2,-1,0,1,1,-2
1511759905884415,0,-1,-4,1,0,0,-4,3
1511759905896423,0,1,-4,-1,-2,-1,-1,-3
1511759905896423,-2,-2,0,-1,-2,0,2,-2
1511759905905439,1,-1,-4,1,1,-1,-1,-1
1511759905905439,0,1,1,0,1,-1,-6,-1
1511759905920452,-2,0,0,0,-1,1,-2,2
1511759905920452,0,0,-1,-3,-2,-2,4,-3
1511759905922451,-1,-4,-1,0,0,-4,-1,-2
1511759905922451,-1,-1,0,-2,-2,0,-3,0
1511759905942456,-2,0,-2,-2,0,-3,-5,2
1511759905942456,0,-2,-1,0,0,-4,1,-2
1511759905944467,1,-1,-2,0,-2,-1,-1,-2
1511759905944467,-2,-13,-2,-5,-1,0,-1,0
1511759905956466,-3,1,1,-1,-2,-2,-1,-1
1511759905956466,-1,-3,-1,-1,-1,-4,2,-3
1511759905965472,-2,0,-3,0,0,0,-1,-1
1511759905965472,-3,2,-1,0,1,-1,-5,1
1511759905980482,-1,0,-1,-2,0,-3,-1,2
1511759905980482,0,-2,-1,-1,0,-4,1,-2
1511759905981483,-2,-2,-1,-1,-1,0,0,-3
1511759905981483,-4,1,-2,0,0,3,-5,3
1511759906002510,-3,0,-1,-1,-1,-1,-2,1
1511759906002510,1,1,-1,-3,-1,-2,1,-6
1511759906004512,2,0,0,-1,2,0,0,-1
1511759906004512,-2,3,-3,0,0,0,-2,1
1511759906025525,0,-1,0,-2,0,1,-1,0
1511759906025525,1,-5,-2,0,-3,-3,2,-4
1511759906027516,0,-2,-1,1,-3,0,-1,-2
1511759906027516,-3,0,-2,-1,-3,0,-5,3
1511759906040526,-2,-1,0,-2,-2,0,-5,-1
1511759906040526,0,-1,-1,0,-3,-2,3,-3
1511759906041526,0,-2,1,-1,0,0,0,-3
1511759906041526,-2,1,-1,-1,2,-2,-2,3
1511759906062552,-1,-1,0,-1,-1,0,-2,1
1511759906062552,0,-3,-3,-1,-1,-1,4,-1
1511759906064541,0,-2,0,-2,-2,-3,1,-3
1511759906064541,-2,0,-2,-4,-1,-1,-3,0
1511759906085568,-3,-1,-1,-2,-1,-2,2,-1
1511759906085568,-1,-2,-2,0,-3,-1,2,-1
1511759906086557,-1,-2,-1,-1,1,-1,1,-2
1511759906086557,-2,1,-2,-1,0,2,-3,0
1511759906100579,-2,1,-2,-2,-4,0,-2,2
1511759906100579,2,-1,0,-2,-2,-5,2,-4
1511759906101575,1,-2,0,0,0,0,0,-4
1511759906101575,-2,1,-1,-1,1,2,-2,0
1511759906123584,-2,-3,1,-2,1,0,-1,-1
1511759906123584,-1,-4,-1,1,-1,-2,2,-1
1511759906125586,-1,10,1,2,-1,-2,-3,0
1511759906125586,-1,-1,0,-1,-2,-1,-4,0
1511759906145613,0,-1,-2,0,-2,0,-3,3
1511759906145613,0,1,-2,0,-1,-2,1,-4
1511759906146600,0,-5,-1,-3,-2,-1,-1,-3
1511759906146600,-2,1,0,-1,-1,0,-3,1
1511759906160619,-2,0,-2,0,-3,-2,-1,-2
1511759906160619,-2,-3,0,-1,0,-1,2,-2
1511759906161621,1,-4,-3,-1,0,-2,1,-2
1511759906161621,-3,-1,0,0,-1,-1,-2,2
1511759906182637,-1,-4,-2,-2,0,-1,-3,0
1511759906182637,1,-1,0,0,-1,-1,1,-4
1511759906184638,-1,-2,-2,0,-2,-2,0,0
1511759906184638,-3,0,1,-1,-3,1,-4,2
1511759906205651,-1,0,-1,0,-2,-1,-1,-2
1511759906205651,0,-3,-2,1,-3,-3,3,-4
1511759906208644,0,-2,-3,0,0,-3,1,-1
1511759906208644,-1,2,-1,-2,0,3,-6,0
1511759906219663,-3,1,-2,-2,-2,-1,-2,-1
1511759906219663,0,-1,-1,-2,-1,-2,5,-3
1511759906226666,0,-2,1,-1,-1,0,-1,-3
1511759906226666,-1,1,0,0,-2,-2,-4,1
1511759906242677,0,-1,-1,-2,0,-1,0,0
1511759906242677,1,-1,1,0,-3,-1,0,-4
1511759906244678,0,-2,-2,2,-1,-1,2,0
1511759906244678,0,-1,-1,-2,-1,0,-5,1
1511759906265693,-1,0,-1,-1,-1,0,-2,2
1511759906265693,0,-2,0,-2,0,-5,0,-3
1511759906267686,0,0,1,1,-1,-1,-1,-2
1511759906267686,-4,0,-2,-2,-1,0,-3,0
1511759906279703,-1,1,2,-1,-2,-2,-2,-1
1511759906279703,0,-3,-4,-1,-2,0,2,-2
1511759906286708,0,-4,-1,0,0,2,-3,-4
1511759906286708,-2,0,0,0,0,2,-5,2
1511759906302722,-3,-3,-2,-5,-2,-3,-1,-2
1511759906302722,2,-1,0,-3,0,-4,0,-3
1511759906304723,-1,-1,-1,1,0,-1,1,-1
1511759906304723,-3,-2,-1,-1,1,-1,-5,2
1511759906325738,-5,-1,0,-2,-3,0,-1,0
1511759906325738,-1,-2,-1,0,0,-4,4,-5
1511759906326734,0,-3,-4,-3,0,-1,0,-2
1511759906326734,-1,1,-2,-1,-2,2,-5,3
1511759906339764,-1,1,-2,-3,1,-1,-2,1
1511759906339764,-1,-5,-1,0,-1,-2,3,-4
1511759906346751,1,-4,-2,-1,-1,1,-1,-2
1511759906346751,-3,-1,-1,0,-1,-1,-3,2
1511759906362762,0,1,-2,-2,2,-4,-3,-1
1511759906362762,0,0,-1,-2,-2,-1,3,-2
1511759906365763,2,7,1,1,1,0,-1,-2
1511759906365763,-3,2,0,-2,1,2,-5,5
