timestamp,emg1,emg2,emg3,emg4,emg5,emg6,emg7,emg8
1512364291850027,-4,-3,1,-1,-1,0,2,-2
1512364291850027,-2,-1,0,-2,-2,-1,0,1
1512364291851028,-2,0,1,2,-1,-2,-2,0
1512364291851028,-2,1,-2,0,0,0,-3,0
1512364291872544,0,5,-1,-4,1,0,-2,2
1512364291872544,-2,-2,-2,0,-1,0,-1,1
1512364291873544,-2,2,3,-3,-2,-1,-2,-2
1512364291873544,-2,-3,-1,0,-1,0,-1,1
1512364291887554,0,5,-1,4,0,-2,2,-3
1512364291887554,-2,-4,-4,-3,0,-2,-3,-1
1512364291888555,1,1,-1,-5,-1,0,-3,0
1512364291888555,-1,2,1,11,0,-4,-3,0
1512364291910071,-1,0,0,-9,0,0,0,0
1512364291910071,-2,-5,-3,0,-5,-2,-2,-3
1512364291911072,0,-2,-2,-5,-2,-1,0,-1
1512364291911072,-1,-6,-1,4,-3,-1,-1,-2
1512364291932586,-5,-9,-3,3,-1,0,1,0
1512364291932586,1,6,1,-9,2,-1,-1,1
1512364291933587,1,0,-2,-12,-1,-1,-1,-2
1512364291933587,-2,0,2,0,-1,-3,-1,-3
1512364291947609,-1,-3,-6,1,3,1,-1,-1
1512364291947609,-2,1,1,5,-1,0,-2,1
1512364291948610,-1,-2,1,0,-1,-1,-2,-2
1512364291948610,-1,0,-2,-4,-1,-1,0,-2
1512364291970112,0,5,0,1,-1,-2,-1,-2
1512364291970112,-1,0,-1,0,-1,-1,1,-2
1512364291971113,-1,-2,0,3,-1,0,0,-1
1512364291971113,-1,-1,-1,1,-1,1,-3,-1
1512364291992631,2,3,0,-9,0,-1,-1,-1
1512364291992631,0,-1,-2,0,-2,-2,2,-1
1512364291993629,0,3,-2,-2,0,-2,0,1
1512364291993629,1,-2,0,3,-2,-1,0,0
1512364292007651,1,0,1,0,-1,-1,-1,-2
1512364292007651,-3,4,4,-2,0,0,-2,1
1512364292008641,-2,-1,-3,1,-1,-2,0,-4
1512364292008641,-2,-1,-1,-3,0,-1,-1,-2
1512364292030167,1,5,2,-3,-3,-1,0,-1
1512364292030167,0,-2,-2,-1,-3,-2,-3,-2
1512364292031168,-2,-3,-1,-3,0,0,-1,1
1512364292031168,-3,-2,-2,1,1,0,1,-1
1512364292052670,0,-5,-3,-4,-4,-2,-1,0
1512364292052670,-3,-3,-2,9,0,0,-2,-1
1512364292053170,-3,-2,-2,-8,-2,-1,0,-1
1512364292053170,0,0,-4,-7,-2,-3,-2,-2
1512364292067181,-1,-7,-3,-2,-1,-1,0,-1
1512364292067181,2,-1,-1,-2,-2,-2,0,-1
1512364292075187,0,0,1,3,-3,-1,0,-1
1512364292075187,-3,-2,2,0,-2,-1,0,-1
1512364292090197,-1,1,-1,4,-1,0,-2,-1
1512364292090197,0,0,-1,-6,-2,-2,-3,0
1512364292091198,-2,-10,-3,-2,0,-1,-3,-1
1512364292091198,0,-3,-4,0,-1,-3,-1,0
1512364292112712,-2,4,-1,3,-1,-1,-2,-2
1512364292112712,1,2,-2,-3,-2,-1,0,-1
1512364292113713,-1,1,1,-1,-2,0,-1,-2
1512364292113713,-1,1,1,4,-1,-2,1,-1
1512364292127723,-1,2,3,-10,0,-1,0,-1
1512364292127723,-2,-6,-3,-3,0,-1,0,0
1512364292128230,0,-3,-3,3,-1,-1,-1,-2
1512364292128230,-1,3,-3,-4,1,0,-2,0
1512364292150239,-2,-2,-1,3,-2,-2,-3,-4
1512364292150239,-1,1,3,-2,-3,0,0,-2
1512364292151240,-2,0,-1,1,1,-1,-1,-2
1512364292151240,0,-2,0,0,-2,1,-3,-2
1512364292172755,-6,1,-2,-2,0,0,-1,0
1512364292172755,-2,-3,-3,0,0,-2,-1,-1
1512364292173256,-1,-1,2,6,-2,-1,0,2
1512364292173256,-2,-5,-1,-6,-2,-1,-1,-1
1512364292187780,2,0,-1,1,0,1,-1,-2
1512364292187780,-1,-2,0,-1,-2,-1,-2,-3
1512364292188266,-3,-4,0,-2,-2,-1,1,-2
1512364292188266,0,-2,-1,-1,-2,-1,0,-3
1512364292210295,0,0,-2,-1,-3,-2,0,-1
1512364292210295,0,1,0,0,0,-1,-3,0
1512364292211284,0,-2,-3,-2,2,-2,-3,0
1512364292211284,-2,5,3,7,-2,-1,-1,-1
1512364292232807,-7,2,-5,-7,2,1,1,-1
1512364292232807,-2,-3,0,-1,-2,0,1,-3
1512364292233298,-1,0,-2,-5,-1,-1,2,-1
1512364292233298,-1,-2,0,-1,-4,-1,1,-3
1512364292247809,3,-2,-1,1,1,-1,-1,1
1512364292247809,-1,2,-3,0,-1,-1,1,-1
1512364292248309,0,2,-2,-1,-3,-3,-3,-1
1512364292248309,1,-1,-1,1,-1,0,0,-1
1512364292270337,3,-2,2,6,-2,-2,-2,0
1512364292270337,-2,-1,-2,-5,-1,-2,-1,-1
1512364292270824,1,0,-2,-1,0,0,-3,0
1512364292270824,0,-6,-3,-3,1,-1,-2,-2
1512364292292840,-1,-1,-2,-2,-1,-3,-1,0
1512364292292840,-2,-1,0,1,0,-1,-1,-1
1512364292293341,0,1,0,-1,-2,0,-1,-1
1512364292293341,-1,7,3,2,-1,-2,-2,1
1512364292307851,-2,-2,-1,-4,-2,-1,-3,0
1512364292307851,7,14,2,3,0,-1,-1,1
1512364292308352,-2,-1,-1,-3,-1,0,0,-2
1512364292308352,-1,-6,-5,-3,-1,-1,-1,-1
1512364292330382,-1,-3,0,6,-1,-1,0,-3
1512364292330382,-2,-8,-4,-7,0,-1,-2,-1
1512364292330867,-1,-2,-3,0,-4,-2,0,-1
1512364292330867,-2,0,-3,-5,-1,-1,0,-1
1512364292352385,-2,-1,-2,0,-2,-1,0,1
1512364292352385,-2,-4,1,2,0,-2,-1,-1
1512364292360388,0,1,0,-1,1,0,1,-2
1512364292360388,-2,-5,-3,-1,-1,0,-2,-1
1512364292367898,-1,-2,0,-1,-2,1,-5,-1
1512364292367898,0,-5,-2,0,0,-1,-1,-1
1512364292368396,0,-3,0,-2,-2,-1,-1,-1
1512364292368396,-1,-2,-1,0,0,-2,0,-1
1512364292390430,0,0,0,-4,-1,0,0,0
1512364292390430,0,7,2,0,-2,-1,-2,-2
1512364292391910,0,0,2,-1,-1,-1,1,0
1512364292391910,-2,1,-2,-1,-2,-1,-1,0
1512364292412481,-1,0,-2,-5,-1,-2,1,-2
1512364292412481,-4,-6,-4,-2,-2,-1,-3,-1
1512364292413482,-2,0,-3,-1,0,0,-2,-1
1512364292413482,-2,-1,2,1,-1,0,-2,-1
1512364292427501,-1,-4,0,-1,-1,-2,-1,-3
1512364292427501,-1,-5,-3,-1,-1,-1,1,-2
1512364292428502,2,3,1,-2,-2,-2,-3,-1
1512364292428502,1,-2,-1,0,0,-1,1,-2
1512364292458514,1,0,-2,-1,-1,-2,1,-2
1512364292458514,-2,-2,0,-2,0,1,-1,-3
1512364292459014,-2,-5,-2,0,0,0,-2,-1
1512364292459014,-1,-1,-1,-3,-3,-2,-2,0
1512364292472541,-1,-1,-1,1,-4,-3,-2,-1
1512364292472541,-2,-5,-3,-2,-1,-1,1,0
1512364292473526,0,-1,0,0,-1,0,1,-1
1512364292473526,4,3,-1,1,-1,1,0,0
1512364292487033,-3,-2,0,-4,-1,-1,-2,-1
1512364292487033,-1,-3,-2,2,-1,-1,-3,0
1512364292495049,-1,1,0,-3,-2,-2,-2,-1
1512364292495049,0,-3,-2,-1,0,-1,-2,-1
1512364292511051,0,-2,-6,-4,-1,-1,-3,-1
1512364292511051,-1,-1,-1,3,-1,-1,-2,0
1512364292512053,-3,-3,-1,3,0,-1,-3,-1
1512364292512053,1,1,0,-1,0,1,0,-2
1512364292532566,0,4,0,0,-2,-2,-1,-1
1512364292532566,-2,-2,-4,-9,-3,0,-2,-2
1512364292534568,-2,0,-3,-2,0,-1,1,-2
1512364292534568,-1,1,1,-1,-1,-2,1,0
1512364292547076,-4,0,1,2,-2,0,-2,-1
1512364292547076,2,-2,0,2,-2,-2,0,2
1512364292562587,-4,-2,-6,-9,0,1,-1,-1
1512364292562587,-1,-6,-2,3,0,-1,-1,-4
1512364292570092,1,3,-2,-4,2,-1,1,-1
1512364292570092,1,-2,-2,1,-2,-1,0,-1
1512364292571093,2,-1,0,-1,-1,-2,1,1
1512364292571093,-3,1,1,0,0,-2,-1,-1
1512364292593110,0,-4,0,2,-1,0,0,-1
1512364292593110,-2,2,0,-1,-1,-1,1,-2
1512364292593609,-2,2,1,-2,-2,0,-2,0
1512364292593609,-4,1,-2,-3,-1,-1,-3,-1
1512364292607120,0,-3,0,1,-2,0,-2,-1
1512364292607120,-3,-3,-1,-2,0,0,-3,0
1512364292615136,-3,-4,-1,0,0,-2,-3,0
1512364292615136,1,-3,2,-3,-3,-1,-2,0
1512364292630135,-2,-1,-1,-1,-2,-1,-2,-2
1512364292630135,-4,-2,-1,0,-1,1,2,-3
1512364292631136,7,21,2,-4,0,-1,1,1
1512364292631136,-2,-2,-3,-2,-2,-1,-1,0
1512364292652654,0,-2,-1,-3,-2,-1,-1,-2
1512364292652654,-1,-4,0,1,-2,-1,1,0
1512364292653151,-2,-7,-2,1,0,0,-1,-1
1512364292653151,0,5,-2,-2,-2,2,1,1
1512364292667161,0,3,1,0,-1,-1,-2,1
1512364292667161,0,0,-1,-1,-1,-2,0,0
1512364292675166,-3,-9,-1,1,0,-2,0,-1
1512364292675166,-2,-2,-1,-4,-1,-1,0,-1
1512364292690184,-2,-4,-2,0,-2,-3,-1,1
1512364292690184,-1,2,-2,-3,-1,-1,-2,-1
1512364292691189,-1,-2,0,1,-2,-1,-2,-1
1512364292691189,1,-3,-2,-3,0,-2,0,-1
1512364292712693,0,0,-1,0,0,-1,1,0
1512364292712693,0,-2,-2,-2,-1,-1,-1,-1
1512364292713706,-3,-1,-2,0,-2,-2,-1,-1
1512364292713706,-2,-2,-2,0,0,-1,-1,-2
1512364292727213,-1,-2,-3,-2,1,0,-1,-1
1512364292727213,1,-3,0,0,-1,0,-1,-1
1512364292735219,-1,-4,-2,-1,-1,0,-1,-3
1512364292735219,-5,-18,-4,-3,-3,-2,-2,-2
1512364292750220,-2,1,1,1,0,-2,0,-3
1512364292750220,1,10,2,-4,0,0,-1,0
1512364292751225,-1,-4,-3,0,1,0,-2,0
1512364292751225,-2,-3,-1,-1,-2,-2,1,-1
1512364292772745,-1,0,1,-2,-1,-1,0,-1
1512364292772745,-2,-4,-1,-2,-2,-2,-2,-1
1512364292773237,0,-3,-3,-4,-3,-2,-4,-1
1512364292773237,5,5,-4,0,-1,-1,-3,-1
1512364292795753,-3,1,-4,0,-2,0,0,-2
1512364292795753,-2,2,-1,1,-1,1,-3,-1
1512364292796752,-2,0,-2,-1,-2,-2,0,-1
1512364292796752,0,0,-1,0,1,-1,-1,0
1512364292810262,0,-4,1,-2,-2,-1,0,1
1512364292810262,-1,-7,-1,-1,-1,0,0,-3
1512364292810763,-3,0,0,-1,0,-1,-1,0
1512364292810763,-1,2,0,0,0,0,-2,-1
1512364292832787,-3,-11,-4,-4,-1,-1,-2,-3
1512364292832787,1,12,2,0,-2,-3,0,-2
1512364292833287,1,-2,1,-3,-2,0,0,-1
1512364292833287,-3,4,0,-4,0,-1,-1,-1
1512364292855803,0,-3,-4,1,-1,0,-1,2
1512364292855803,-2,-7,1,1,-1,-2,-1,-2
1512364292856796,-2,-1,-2,4,-1,-1,0,-1
1512364292856796,-1,-2,-1,-5,-1,-1,0,1
1512364292870313,0,1,-2,-6,0,-3,-1,0
1512364292870313,-1,-5,-4,2,-3,-2,-4,-3
1512364292870804,0,0,1,-1,-1,-1,-1,0
1512364292870804,-1,1,-4,-1,0,0,1,-2
1512364292892824,0,1,5,-4,0,-1,0,-1
1512364292892824,-5,-7,-3,-4,-1,-2,-4,-1
1512364292893332,-1,-5,-2,3,-2,-2,-2,-3
1512364292893332,2,10,3,-1,-1,-2,-2,-2
1512364292915846,1,1,-3,4,-2,0,0,0
1512364292915846,2,-1,-6,-8,2,1,1,-1
1512364292916839,-3,-7,-3,-7,-2,-1,-3,-1
1512364292916839,-3,-4,-1,1,-3,0,-1,1
1512364292930346,-2,2,2,6,-2,-2,-2,0
1512364292930346,-1,0,2,0,-1,0,2,1
1512364292930848,3,3,-1,-1,-1,1,2,-1
1512364292930848,-1,-6,1,-1,0,-2,1,-2
1512364292952862,-2,-3,3,-1,-1,1,-1,-2
1512364292952862,-4,-3,-1,2,-2,-3,-3,0
1512364292953364,-3,1,-4,-4,-1,-1,-4,0
1512364292953364,-1,-3,-3,-4,-2,-2,-1,0
1512364292975889,-1,1,-1,-1,1,-1,-3,0
1512364292975889,-1,0,-3,1,-2,1,0,0
1512364292976886,1,0,-2,0,0,-1,0,-2
1512364292976886,-6,0,0,1,-2,0,-4,-1
1512364292990401,-1,-8,-5,1,0,-2,0,1
1512364292990401,0,-1,-4,-5,0,0,0,2
1512364292991891,-2,6,1,0,-2,-2,-1,-2
1512364292991891,0,-4,0,0,-1,-1,2,-2
1512364293012414,-1,-3,-1,-2,-1,-1,0,-3
1512364293012414,0,-1,-1,-1,-1,-3,-2,-2
1512364293013406,1,-3,-1,1,1,1,0,-2
1512364293013406,-1,-2,-2,-1,0,1,0,-2
1512364293036422,-5,-14,-6,-3,-2,-1,1,0
1512364293036422,0,1,1,-1,-1,-1,-1,0
1512364293037432,-4,0,0,-1,-3,0,-1,0
1512364293037432,-1,0,0,0,1,-3,-3,-1
1512364293050431,-1,0,-1,-2,1,1,-1,-2
1512364293050431,-1,-2,0,1,-1,-1,-3,1
1512364293050932,3,-2,-2,-1,-2,-4,-1,-1
1512364293050932,-3,-2,-1,0,-1,-2,-1,-1
1512364293072447,1,5,0,-2,-2,-3,-2,0
1512364293072447,0,-2,-3,-1,-2,-1,-2,-1
1512364293073449,-1,0,1,-1,-1,1,-1,-1
1512364293073449,0,0,-1,0,-1,-2,1,-2
1512364293095971,0,3,-2,-1,-1,0,0,-3
1512364293095971,-1,2,-1,-2,0,0,-1,-2
1512364293096464,-4,-5,-1,-3,-3,0,-2,-1
1512364293096464,0,-2,4,3,-1,0,-2,-1
1512364293109985,-3,0,2,-1,-3,-3,0,-2
1512364293109985,0,-3,-1,-2,-1,-2,-1,-3
1512364293110987,-1,-2,-4,0,1,1,0,-1
1512364293110987,3,0,-5,-6,-2,0,1,0
1512364293132489,3,2,-2,-1,0,2,-2,1
1512364293132489,-4,1,0,0,-2,-3,0,0
1512364293134491,-1,0,1,0,-1,-2,0,0
1512364293134491,-6,-18,-4,-2,-1,-2,-2,-1
1512364293156005,1,-1,0,-1,-1,-1,-1,0
1512364293156005,-1,-1,-1,-2,-1,-2,-1,-1
1512364293156506,-3,-4,-1,0,0,-1,0,-2
1512364293156506,-2,4,0,2,-2,0,-2,-1
1512364293170017,-4,1,-1,-3,-1,-2,1,-1
1512364293170017,-1,-1,-1,-2,-1,-1,0,-2
1512364293171017,2,-1,-3,-3,-1,-1,0,0
1512364293171017,-1,-3,-4,0,-1,0,-3,-1
1512364293192532,-1,-1,-1,-1,-1,-1,-4,-3
1512364293192532,0,3,0,0,0,-1,-1,-1
1512364293193532,0,0,-2,0,0,-1,-3,-2
1512364293193532,-1,2,-1,-1,0,-2,0,-1
1512364293216049,0,2,-2,-1,-2,-2,-1,-1
1512364293216049,-2,-5,-1,1,0,-2,-1,-2
1512364293217050,0,-2,-2,-5,-2,0,-1,-3
1512364293217050,-1,1,0,-2,-1,-1,0,-1
1512364293230058,0,0,-1,-2,-3,-1,-3,1
1512364293230058,-2,-2,-1,-2,0,-1,-1,0
1512364293231559,-1,0,3,1,-2,-4,-3,1
1512364293231559,0,3,1,-1,-1,0,-3,-3
1512364293252584,-1,-2,1,-2,0,-1,-2,0
1512364293252584,-2,-5,2,1,-2,1,-1,-2
1512364293253585,-4,8,4,9,0,0,-1,0
1512364293253585,0,-4,-3,-8,1,0,-2,2
1512364293275600,-4,-2,-1,-1,-1,-1,0,-1
1512364293275600,2,14,1,0,-1,0,-3,-1
1512364293276601,-2,-5,-1,1,-2,-3,-2,-2
1512364293276601,-2,0,0,2,-3,-1,-3,0
1512364293290102,-1,0,-1,-3,-2,-1,0,-1
1512364293290102,0,-3,-3,-1,-2,0,0,0
1512364293292102,-1,-4,-3,-1,-1,1,-1,-1
1512364293292102,-2,4,0,0,-2,-1,1,-1
1512364293312616,-1,-1,-2,-1,1,-1,1,-1
1512364293312616,-2,-6,-2,-2,-1,-2,0,-2
1512364293313617,-1,-2,0,-2,-2,-3,1,-1
1512364293313617,0,-4,-3,-1,0,-1,-2,-1
1512364293335643,-2,-3,-1,1,0,-1,-2,-3
1512364293335643,-2,-5,-1,-3,-2,-2,-2,-1
1512364293336643,-1,-6,-3,-2,-1,-1,-1,-1
1512364293336643,1,0,0,-2,-1,-2,2,-1
1512364293350143,1,-1,1,-1,0,-1,2,-2
1512364293350143,-1,0,-2,-1,0,-1,-1,-3
1512364293351143,-1,0,-2,-2,0,1,0,-2
1512364293351143,1,0,-1,-2,-3,0,0,0
1512364293372730,0,0,-1,2,-2,-2,-3,-2
1512364293372730,-2,-5,-3,-3,-1,-1,-2,0
1512364293373221,2,-3,-2,-2,-2,-1,-1,0
1512364293373221,0,-2,0,1,-1,0,-2,-2
1512364293394746,0,0,0,-2,0,0,-1,2
1512364293394746,0,1,0,-2,-2,0,-3,-1
1512364293402745,-1,2,-1,2,-1,-2,-1,-1
1512364293402745,-1,1,-4,0,-1,-2,1,-3
1512364293409746,0,-5,-4,-3,-1,-2,0,-2
1512364293409746,-2,-2,0,0,-2,-2,3,-2
1512364293417753,-2,-4,1,-3,-1,-2,0,-1
1512364293417753,-3,-1,2,-1,-2,-1,0,-1
1512364293440779,-7,-12,-4,-1,0,-2,-1,-3
1512364293440779,0,8,0,-2,0,-1,0,1
1512364293441780,-1,3,-3,-2,-3,0,-1,-2
1512364293441780,-1,-2,-2,0,-1,-1,-1,-1
1512364293455790,0,-1,-3,-3,0,0,-1,0
1512364293455790,0,-6,-1,2,-1,-1,0,1
1512364293456799,-3,-3,-1,-3,0,-1,-3,0
1512364293456799,-5,-1,0,-1,0,-2,-2,-2
1512364293469300,0,1,0,-1,-2,-1,-3,-1
1512364293469300,-1,-2,-2,0,-1,0,-2,0
1512364293477807,-2,3,-1,0,0,-2,-2,0
1512364293477807,1,-2,-1,-1,-1,-2,-1,-1
1512364293492806,-1,3,1,-1,0,-2,-1,-1
1512364293492806,-1,-2,-1,0,-1,-2,0,-2
1512364293493306,0,-2,-2,3,0,0,1,-1
1512364293493306,0,0,0,-4,-2,0,1,-2
1512364293515822,0,1,0,-1,0,0,2,-2
1512364293515822,-1,-2,0,-1,0,-1,0,-3
1512364293516838,-2,-3,0,0,1,-2,-2,-2
1512364293516838,0,5,0,-3,0,-2,-1,2
1512364293538840,-1,-3,-2,1,1,0,-1,0
1512364293538840,-3,-1,-3,-2,-1,-2,-2,-1
1512364293539854,0,-2,-1,-1,-2,-2,0,-2
1512364293539854,-4,-1,-3,-4,-1,0,-1,0
1512364293552848,-2,1,-2,-3,-1,-2,-2,-2
1512364293552848,1,-1,-3,-1,-1,-1,-2,1
1512364293553348,2,13,1,-1,-1,-1,0,2
1512364293553348,1,-3,0,1,-1,-2,-2,-1
1512364293575876,-1,1,1,2,-3,-1,-1,0
1512364293575876,-3,-5,-1,-1,0,1,-2,-2
1512364293576869,-2,-5,-2,-3,-1,-1,0,-2
1512364293576869,-1,-4,-2,3,-1,1,0,0
1512364293589386,0,4,0,-2,-1,-2,2,0
1512364293589386,0,2,-1,0,-1,-2,-2,-3
1512364293597880,-2,-5,-2,-4,-1,-1,-3,-3
1512364293597880,2,5,1,-1,-1,-1,0,1
1512364293613391,-3,-2,-1,1,0,-1,-1,-1
1512364293613391,1,-1,-1,-2,-1,-1,1,-2
1512364293614391,-1,-4,1,-4,0,-1,-1,0
1512364293614391,0,-6,-1,-3,-1,-2,-3,0
1512364293635916,-1,-2,0,1,0,0,-1,0
1512364293635916,-2,0,-2,1,-2,-2,-3,-1
1512364293636408,-1,0,-4,-3,-2,-1,-1,-1
1512364293636408,-3,-1,-3,0,-1,-1,-2,-4
1512364293649920,0,-1,-3,-3,-3,-1,-1,1
1512364293649920,-1,-2,1,2,0,-1,1,0
1512364293657423,0,-5,-4,-5,0,-1,0,-1
1512364293657423,-2,-2,-3,0,-1,-2,-1,0
1512364293673434,-3,0,-3,-2,-3,0,1,-1
1512364293673434,-4,0,0,0,-1,0,-1,-2
1512364293674434,0,-1,1,1,-1,0,-1,-2
1512364293674434,0,-3,-2,-3,-1,0,0,-1
1512364293696451,1,25,7,4,-1,0,-2,-1
1512364293696451,-1,1,-3,0,3,2,0,-1
1512364293697450,-2,0,-1,-1,-2,1,-2,0
1512364293697450,0,-2,0,1,-1,-2,-2,-2
1512364293709468,0,-10,-4,-5,-2,-3,0,0
1512364293709468,-2,-4,-1,-3,0,-2,-3,0
1512364293717465,-2,4,-2,-1,-1,-2,0,0
1512364293717465,0,-4,1,0,2,-1,0,-1
1512364293732475,1,-4,1,0,-1,-4,0,-2
1512364293732475,0,0,0,-4,-2,-3,1,-1
1512364293740005,-3,-7,-3,0,-1,-1,0,-1
1512364293740005,-3,1,1,2,-5,0,0,-1
1512364293756016,-6,-4,-6,-1,7,4,-1,-1
1512364293756016,-3,0,-3,-5,-3,-1,-1,-3
1512364293756516,-1,0,-1,-1,-4,-1,-2,0
1512364293756516,-1,-6,-1,-4,-4,-1,-2,-1
1512364293778532,0,-2,0,-1,-2,0,-3,-1
1512364293778532,2,-4,-4,-1,-2,0,-2,-1
1512364293779032,4,17,3,-1,2,0,0,0
1512364293779032,1,-2,-1,0,0,-4,-2,0
1512364293793042,-1,-4,-1,1,-2,-3,-1,-2
1512364293793042,-2,2,0,-2,-3,-3,-1,-1
1512364293794043,-2,-8,-4,0,-3,0,0,-3
1512364293794043,-3,2,-1,-2,-2,-1,-2,-2
1512364293815571,-4,-2,1,1,1,-1,1,-1
1512364293815571,-1,-2,0,-1,0,0,0,-1
1512364293816577,0,-4,-1,0,0,-1,0,0
1512364293816577,0,1,-3,-3,-1,-1,2,-3
1512364293838074,-3,-8,-3,-4,-3,-4,0,-1
1512364293838074,0,-3,-1,0,-3,-1,0,0
1512364293839074,-4,-9,-5,-3,-1,-1,-1,-2
1512364293839074,-1,1,0,0,-1,0,-2,-1
1512364293852109,0,-1,0,-2,-3,0,-3,-2
1512364293852109,-1,-4,1,-2,-1,1,-4,0
1512364293861102,-2,-1,3,0,0,-2,-3,0
1512364293861102,-1,-2,-2,-3,-1,-2,0,-1
1512364293875601,1,-1,-1,-1,-2,-3,-2,-1
1512364293875601,-1,0,-1,0,0,0,0,0
1512364293877109,-2,0,-4,0,-1,-2,-2,-2
1512364293877109,0,-2,-1,0,1,-1,-2,-1
1512364293898126,1,-2,-1,0,-2,-3,0,-1
1512364293898126,-2,-2,0,0,-3,-1,1,-1
1512364293900118,-1,-2,1,-4,-2,0,-1,-1
1512364293900118,-1,-2,-1,-1,-2,0,-2,0
1512364293912139,2,-1,-4,-3,-2,1,-3,-1
1512364293912139,0,-1,-3,-1,-1,0,-2,-1
1512364293921633,-2,-1,1,0,-2,0,0,-2
1512364293921633,0,-1,0,-2,-1,1,-2,0
1512364293935653,1,-1,1,-2,-1,-1,-2,-2
1512364293935653,-1,0,0,-2,-2,-3,-2,-1
1512364293937154,-1,-1,0,-1,-2,-3,1,0
1512364293937154,1,-3,0,-1,0,-2,1,-1
1512364293958159,-1,-2,-5,-3,-2,-2,-2,0
1512364293958159,-2,-1,-4,-1,0,-1,0,-2
1512364293960160,0,-3,-5,0,1,-1,-1,-3
1512364293960160,0,-2,-2,0,-1,0,0,-2
1512364293972169,-3,-2,-2,1,-1,0,-1,1
1512364293972169,-2,0,0,-1,0,0,2,-1
1512364293981176,-2,-2,-2,-1,0,0,-3,0
1512364293981176,-2,1,-1,-2,-1,-2,-2,1
1512364293995685,0,0,0,-1,0,-1,1,-2
1512364293995685,-2,0,2,-3,-1,-2,-1,-1
1512364293997687,-1,-1,-1,-1,-2,1,0,-1
1512364293997687,-1,-2,-2,1,-1,-1,-2,-2
1512364294018222,0,-1,0,0,-1,-2,-1,0
1512364294018222,-1,-2,0,1,0,1,-1,-1
1512364294020204,-1,-1,-1,-1,-1,0,-1,0
1512364294020204,-2,-1,0,0,-1,0,1,-1
1512364294040737,-4,-2,-1,-1,-2,0,2,-1
1512364294040737,-1,0,-1,-2,0,-1,-1,-1
1512364294042236,0,0,-1,-1,-3,-1,-3,0
1512364294042236,-4,-3,0,-1,-1,-2,-2,-2
1512364294055728,-1,-1,-1,-1,0,-1,-3,-1
1512364294055728,0,-2,-3,0,0,-1,-2,-2
1512364294063751,-1,-2,-2,0,-2,-2,0,-1
1512364294063751,0,-2,-3,-1,-2,-2,0,-1
1512364294078253,-2,-1,-1,-1,-1,0,-2,0
1512364294078253,-3,-2,-3,-1,-1,-4,-3,1
1512364294080245,-1,-2,-1,-3,-1,-1,-3,0
1512364294080245,-1,1,-1,-3,0,0,0,-2
1512364294100774,1,0,1,0,0,-1,-1,0
1512364294100774,-1,-2,-1,-2,-3,-1,-1,-3
1512364294104262,-1,-2,1,0,-1,-1,0,-3
1512364294104262,-2,0,0,1,-1,-1,2,-1
1512364294115782,0,0,-2,-2,-1,-2,-2,-1
1512364294115782,-1,-1,0,-2,0,-2,-2,-3
1512364294117271,-1,-2,0,-1,-1,-2,2,-1
1512364294117271,-2,-1,-3,0,0,-1,-2,1
1512364294138304,0,0,-1,-1,-1,-1,-1,-2
1512364294138304,0,0,-2,-1,-1,1,0,0
1512364294139787,-2,0,-2,-1,0,-3,0,-1
1512364294139787,0,-3,-1,-2,-1,0,-2,0
1512364294152796,0,-1,-3,-2,-1,-3,-1,1
1512364294152796,-1,-2,1,0,-2,-1,-2,1
1512364294159303,-1,-1,-1,-2,0,-2,-1,0
1512364294159303,-2,-1,-1,-1,-1,-2,-4,-1
1512364294175814,-1,-4,-1,-2,0,-1,-2,-2
1512364294175814,-1,-2,0,0,-1,-1,0,1
1512364294177331,-1,-1,-1,1,-1,-1,1,-1
1512364294177331,-1,0,0,-2,0,-1,2,-3
1512364294198343,-2,1,0,-2,-2,0,-1,-2
1512364294198343,1,2,-1,0,-2,-1,0,0
1512364294199839,-1,0,-1,0,0,-1,-2,-2
1512364294199839,0,1,-1,-1,-1,-2,-3,-2
1512364294212842,-3,-2,-4,0,0,2,-1,-1
1512364294212842,-2,-2,0,-1,-2,-1,0,1
1512364294219343,-1,1,-2,-1,-3,-1,-1,-2
1512364294219343,-2,0,-2,0,-3,-1,1,0
1512364294235855,-1,1,-1,-1,-1,-3,-1,-1
1512364294235855,0,-1,-3,-1,1,-4,0,-3
1512364294237355,0,-2,-1,-1,-2,0,-1,-1
1512364294237355,-2,-1,-1,-1,-2,-1,0,0
1512364294265886,1,-1,0,0,1,-1,-1,-1
1512364294265886,-1,-1,-1,-1,-1,-1,-2,-2
1512364294267391,-3,-2,0,-2,0,-2,-3,-1
1512364294267391,0,-1,-2,-1,-1,-1,-4,1
1512364294271890,0,-1,0,-1,-1,-2,-4,0
1512364294271890,0,-1,-2,-1,-2,-2,-1,0
1512364294280896,-1,-2,-1,-2,-2,-1,-2,0
1512364294280896,1,-1,0,-1,-2,-1,0,-1
1512364294295899,-2,-3,-1,0,1,0,1,-1
1512364294295899,0,-1,-1,0,1,0,0,-1
1512364294297398,-2,0,-2,-1,-1,-1,0,-3
1512364294297398,-2,-3,-2,-1,0,-1,0,-1
1512364294325428,-2,-2,-2,-1,-2,-1,0,1
1512364294325428,0,0,0,-1,0,1,-1,1
1512364294342439,-1,1,0,-2,-1,1,-2,0
1512364294342439,1,-2,0,-1,-1,-1,-3,-1
1512364294342940,-1,-1,0,0,-2,-2,-1,-1
1512364294342940,-2,0,-2,0,-1,-2,-2,-2
1512364294344942,0,0,-5,-2,-2,0,0,-2
1512364294344942,-2,0,-3,0,1,-1,0,0
1512364294355951,-1,-1,-2,-1,-2,0,0,-1
1512364294355951,-3,0,-1,-1,-1,-3,-1,-1
1512364294357453,-1,-2,2,0,0,-1,-1,-2
1512364294357453,-3,0,-1,-2,-1,-1,-3,-2
1512364294378455,-1,1,0,-2,-1,-2,0,-2
1512364294378455,-1,-1,-1,0,-1,0,-1,1
1512364294379967,0,1,-2,-1,-1,-2,0,0
1512364294379967,1,0,-1,-1,0,1,-2,-1
1512364294400995,-2,-2,-2,-1,-2,-2,0,-1
1512364294400995,-1,-2,-1,-1,-3,1,-2,-1
1512364294403476,-2,-4,0,-1,-1,-2,-1,0
1512364294403476,-1,0,2,0,-2,-2,0,-2
1512364294415987,1,-1,-1,-1,-2,-3,-1,-1
1512364294415987,0,0,-1,0,-4,0,0,-2
1512364294417483,-2,-2,-2,-1,-1,-1,-1,0
1512364294417483,0,-1,-1,-2,0,-1,0,0
1512364294438498,-2,-2,-1,-3,0,1,0,-3
1512364294438498,0,-5,1,-1,-3,-1,-2,-1
1512364294439999,1,-3,1,0,-1,0,1,-1
1512364294439999,1,-2,-1,-1,-2,-2,-1,-2
1512364294452008,-1,1,-2,-1,0,0,-1,-1
1512364294452008,0,2,0,-1,0,-1,-2,1
1512364294461026,-1,1,-3,-2,0,-2,-3,3
1512364294461026,-1,-2,1,-1,-2,0,-3,0
1512364294476525,0,-1,-1,0,-1,-1,-3,-1
1512364294476525,-3,-1,-1,-1,-1,-1,-1,-1
1512364294478027,-2,1,-1,0,-2,-1,-3,-2
1512364294478027,0,-1,0,0,-1,-1,0,0
1512364294497540,1,-1,0,-2,-1,1,0,1
1512364294497540,0,-1,0,-1,1,0,1,0
1512364294506052,-2,-1,-1,-1,1,-1,3,-1
1512364294506052,-2,0,-3,-2,-1,-2,1,-1
1512364294512059,0,-1,-2,-2,-2,-3,-1,-1
1512364294512059,-2,0,-4,-1,-1,-2,-4,-2
1512364294521066,-2,-1,-1,-1,-2,-2,-3,-2
1512364294521066,1,-3,-2,-1,0,-1,-2,0
1512364294535566,-2,-4,1,0,-1,-1,-3,-3
1512364294535566,-3,-3,1,-1,0,-4,1,-1
1512364294538581,-1,-1,0,-1,-2,0,0,-1
1512364294538581,-3,0,-1,0,0,1,1,0
1512364294558090,-1,0,-1,-2,-3,-3,-2,1
1512364294558090,0,0,-1,-3,0,0,-2,-1
1512364294560084,-1,0,-1,-2,-1,-1,-1,-1
1512364294560084,-2,1,-1,-2,-1,0,-1,-1
1512364294580599,-1,-1,1,-2,-1,0,0,-2
1512364294580599,0,-3,-1,0,-1,0,-1,-2
1512364294582600,0,-2,0,-1,-1,0,0,-2
1512364294582600,0,-1,-2,-1,-2,-1,-1,-1
1512364294595610,0,-2,-2,1,0,-2,1,-1
1512364294595610,0,0,-2,-1,-2,-1,-2,-1
1512364294597610,-2,0,-2,-1,-2,-2,-2,-1
1512364294597610,-1,1,-1,-2,0,-3,0,-2
1512364294618642,-3,1,0,-1,-1,-2,-1,-1
1512364294618642,-2,-1,-1,0,0,-1,1,-2
1512364294620647,-1,-3,-3,0,-1,0,-1,0
1512364294620647,-1,-1,-1,0,-1,-1,-2,0
1512364294631644,-2,1,0,0,-2,0,-1,-2
1512364294631644,-2,-3,0,-2,-1,0,2,-1
1512364294640642,0,0,0,-2,-1,-2,-2,-3
1512364294640642,0,1,-1,-2,-2,0,-2,-2
1512364294655651,0,1,-1,-1,-1,-1,0,0
1512364294655651,-2,0,-1,-1,-1,-1,-1,-1
1512364294657152,-1,-1,0,-2,0,0,-1,0
1512364294657152,-2,-3,-2,-3,-1,-1,-2,-1
1512364294678180,0,-3,-1,-2,-2,-1,-1,1
1512364294678180,0,-2,-1,0,-1,-2,-2,-1
1512364294679668,-1,-1,-2,-1,-2,-2,0,0
1512364294679668,-2,0,-2,0,-2,-1,0,0
1512364294700683,-1,1,-2,-2,-1,-2,1,-1
1512364294700683,-2,0,-1,-1,0,-1,1,2
1512364294723714,2,-2,1,1,-1,0,0,-1
1512364294723714,1,-2,1,0,0,0,-3,-2
1512364294724701,-1,-1,0,1,-2,-2,-2,-1
1512364294724701,1,1,0,-1,-2,0,-1,2
1512364294726216,0,1,-1,-2,-2,0,-2,-2
1512364294726216,-2,-1,0,-2,0,-1,0,-2
1512364294738222,0,-3,-1,-3,0,-1,1,-2
1512364294738222,-1,-1,-2,-1,0,-3,-2,-2
1512364294740228,0,-1,-3,-1,-1,0,0,-2
1512364294740228,-1,0,-2,0,-1,-1,-2,1
1512364294760737,-2,0,-2,0,-1,1,-4,0
1512364294760737,-1,1,-1,-1,-2,0,-1,-1
1512364294762234,-1,-1,0,-2,0,-1,0,1
1512364294762234,-1,-2,0,-4,0,-2,0,0
1512364294775748,-2,-2,-2,0,1,-2,0,0
1512364294775748,-1,-2,1,-1,-1,-3,-2,-1
1512364294777237,-3,-3,0,-1,0,-2,-3,-3
1512364294777237,-1,-2,-1,-1,-2,-1,-1,-1
1512364294798253,-1,1,-1,-3,-4,-1,0,-1
1512364294798253,-2,-1,-3,-3,-1,-1,-2,-2
1512364294801254,-3,1,-2,0,0,-3,-1,-1
1512364294801254,-3,-2,-3,1,-2,-2,0,-1
1512364294820768,-2,-1,-2,0,-1,0,-1,-1
1512364294820768,-1,0,-1,0,-3,0,0,0
1512364294822269,-1,-2,-1,-1,-1,0,0,-1
1512364294822269,-1,-1,-1,0,-2,-1,0,0
1512364294835278,-1,0,-3,-2,-1,-1,0,1
1512364294835278,0,-2,0,-1,0,-1,0,-1
1512364294841792,-2,-1,-3,-1,0,0,-1,2
1512364294841792,-2,-1,1,-1,-1,-1,-2,-1
1512364294858294,1,0,1,-1,-2,0,-3,1
1512364294858294,0,0,-1,-1,-2,-2,-5,-3
1512364294859796,1,0,-1,-2,-2,-3,-1,0
1512364294859796,0,-2,0,-1,0,-1,0,-2
1512364294880811,1,-1,-1,-1,0,-1,0,0
1512364294880811,-2,-1,-1,0,-1,0,-1,-2
1512364294882312,1,-1,-3,-2,-1,-1,0,-3
1512364294882312,-1,-1,-4,-1,-1,-1,-2,-3
1512364294895320,0,-2,-4,-1,-2,-1,-3,1
1512364294895320,0,-1,-2,0,-1,0,-2,1
1512364294902325,-1,-2,-1,-2,-2,-2,-1,-1
1512364294902325,-1,0,-2,-2,-2,-3,-2,-1
1512364294918337,-4,-1,2,0,-1,-2,0,-4
1512364294918337,-3,-4,-2,-2,-2,-2,0,-1
1512364294920839,-1,-2,-1,-1,0,0,-3,-2
1512364294920839,1,-2,0,-1,0,0,-1,-2
1512364294940865,1,1,0,-2,-2,-2,0,-1
1512364294940865,1,-3,0,-2,-2,0,-1,-1
1512364294942363,-1,0,-1,-1,-2,-1,0,0
1512364294942363,-1,1,-3,0,-1,-3,0,0
1512364294955363,0,2,-1,-2,-1,-1,-2,0
1512364294955363,0,0,-2,-1,-2,0,1,0
1512364294961880,0,0,0,-2,-1,-2,1,0
1512364294961880,-1,0,0,-1,0,-1,0,1
1512364294978389,0,-1,-1,-1,-2,-3,-2,-1
1512364294978389,-1,0,1,-2,-1,-2,-2,-2
1512364294979890,-2,-2,-1,0,-2,-1,-4,-1
1512364294979890,-3,-2,1,-1,0,0,-3,-1
1512364295000898,-3,-4,-1,1,0,-1,-3,-2
1512364295000898,1,0,1,-1,-1,-2,0,-2
1512364295003400,-1,-1,0,0,-2,-1,1,-1
1512364295003400,-1,-2,0,-1,-1,-1,1,0
1512364295023423,-3,-1,0,-1,-1,-2,-2,0
1512364295023423,-1,1,-2,0,1,-1,-2,-1
1512364295024912,0,1,-2,0,-1,0,0,-1
1512364295024912,1,1,-3,-2,-3,0,-1,-2
1512364295038421,0,0,-2,-2,-2,-1,-1,-3
1512364295038421,-1,0,-3,1,1,-1,-1,-2
1512364295039922,0,-1,0,-3,0,-2,-3,0
1512364295039922,-2,0,0,-1,-1,-1,-2,0
1512364295060947,-1,-1,-4,-1,0,0,0,-1
1512364295060947,0,-1,-1,-1,-1,-2,1,-2
1512364295062450,-2,-1,1,-1,-2,-1,-1,-1
1512364295062450,-1,-2,0,-2,-1,-2,0,-1
1512364295074948,-1,-3,0,-1,0,0,-1,-1
1512364295074948,-2,-1,-1,-1,-1,-1,-1,-1
1512364295081965,-1,-4,0,-1,0,-1,-1,0
1512364295081965,-1,-2,-2,-2,-2,-2,0,-2
1512364295098464,-3,-2,-1,-1,-1,1,0,0
1512364295098464,0,-3,-2,-2,-2,-2,-1,0
1512364295099970,-1,0,-1,-2,-1,-1,-1,-2
1512364295099970,-1,1,0,1,-1,-1,-1,0
1512364295121005,-1,0,0,0,-1,-2,0,-1
1512364295121005,-1,0,-3,-2,-1,-2,-1,2
1512364295122521,-1,0,0,-3,-1,-1,1,-2
1512364295122521,0,0,0,0,-2,-2,-2,-2
1512364295135017,1,0,0,-1,-1,-2,-2,-2
1512364295135017,-2,-1,0,-1,0,-1,-2,-2
1512364295142031,-1,0,-4,-1,0,-1,-2,0
1512364295142031,-2,-4,-3,0,-1,-1,0,0
1512364295158531,-3,-2,-1,-1,-2,-2,-2,-1
1512364295158531,-3,-2,-1,-2,-1,0,-1,-1
1512364295160050,0,-1,-2,-2,-2,1,-2,-2
1512364295160050,3,-2,0,0,0,-1,-2,-1
1512364295180556,2,-1,-3,-2,0,-2,-1,0
1512364295180556,-1,1,-2,-1,0,0,0,-1
1512364295182558,-2,-3,-2,1,-2,-1,0,-2
1512364295182558,-2,-2,2,-2,1,-1,-3,0
1512364295194559,-1,0,0,-2,-2,-1,0,0
1512364295194559,0,-1,-1,-1,-2,1,1,0
1512364295203563,-4,0,0,-1,0,-1,-2,0
1512364295203563,-2,0,-3,-2,-2,0,1,-2
1512364295219086,-2,-1,-2,-1,-1,1,-1,-1
1512364295219086,-1,-1,-2,-2,0,-1,0,-1
1512364295220586,-1,-2,-2,0,0,-1,-2,0
1512364295220586,0,-1,0,-1,-2,0,-3,-2
1512364295240591,-2,-1,-2,1,1,-2,-1,-1
1512364295240591,0,-1,-1,-1,-3,-1,-1,0
1512364295242590,2,-1,0,1,-1,-3,0,0
1512364295242590,-1,1,-2,-2,0,-2,0,0
1512364295254599,-1,-2,-2,-2,0,-1,-2,-1
1512364295254599,-1,-2,-1,-2,-2,-1,0,-1
1512364295263605,-2,-3,-1,-1,0,0,-1,-1
1512364295263605,-1,-1,-2,1,-3,0,1,0
1512364295278616,0,-1,0,-1,-2,0,-2,-2
1512364295278616,-3,-2,1,1,-1,-1,-3,-2
1512364295280126,-1,-1,-2,-1,-3,-1,-1,-1
1512364295280126,0,0,1,-2,0,0,0,-1
1512364295301132,-1,-1,-1,0,0,-1,0,-2
1512364295301132,-1,-2,-1,-1,-2,-2,-1,-1
1512364295303133,-2,0,-2,-2,-1,0,-1,-2
1512364295303133,-1,-1,-2,-2,0,-1,-3,-1
1512364295314641,-1,0,-1,-1,-2,-1,0,1
1512364295314641,-1,1,-2,0,-1,-1,-2,-1
1512364295340159,-2,-2,-5,-1,1,0,0,0
1512364295340159,-1,-3,-1,1,-2,-2,-2,-2
1512364295341162,-3,-3,0,0,0,-1,-2,-1
1512364295341162,-1,0,-1,-2,-2,-2,0,0
1512364295344163,-1,2,-3,-1,-2,-1,-1,-1
1512364295344163,0,-1,-2,-1,-2,-2,0,0
1512364295360691,1,-1,-1,0,-2,-2,1,1
1512364295360691,0,-2,0,0,0,-2,0,0
1512364295368181,0,-1,0,-1,0,0,-3,0
1512364295368181,-3,0,0,-1,-2,-1,0,-1
1512364295383190,-2,-2,0,-2,-1,0,0,-2
1512364295383190,0,-1,1,0,-1,0,0,-2
1512364295384691,-1,-1,1,-1,1,0,-2,0
1512364295384691,-1,-2,-2,-1,-1,0,-3,0
1512364295398215,0,-1,-1,-1,-3,-1,-1,-1
1512364295398215,0,-2,-2,-3,-1,-1,-1,-1
1512364295400209,-2,0,-2,-2,-1,0,0,0
1512364295400209,-2,-1,-2,0,-1,-1,0,-2
1512364295420716,-1,0,-3,0,-1,-2,-1,-1
1512364295420716,0,-3,-1,1,-2,-1,-2,-2
1512364295422217,1,-1,-2,-2,-2,-1,-1,-1
1512364295422217,0,1,-1,2,2,0,0,-2
1512364295434754,0,-1,0,0,-1,1,1,-2
1512364295434754,0,1,0,-1,-2,0,-1,0
1512364295450737,0,-2,2,0,-2,-1,1,-3
1512364295450737,0,0,-2,-2,-2,-2,2,-1
1512364295458242,-3,0,0,-2,1,-3,0,-1
1512364295458242,-2,-1,-1,-1,-1,-2,-3,-1
1512364295459744,-3,0,-1,-1,-2,-2,-1,0
1512364295459744,-3,-1,-1,-3,-1,-1,-3,-2
1512364295480758,-1,-2,-1,-1,-1,-1,-2,-2
1512364295480758,0,-4,-1,-2,-2,-2,-1,1
1512364295482259,-2,0,-1,0,-1,-2,-1,0
1512364295482259,-1,0,-2,-1,0,-1,0,0
1512364295494268,-2,2,0,-1,-3,-1,-1,1
1512364295494268,-2,-1,-2,1,0,-1,1,-2
1512364295509278,1,-4,-2,-1,-2,-2,-1,-2
1512364295509278,-3,-4,-1,-1,-1,-1,1,-3
1512364295518285,0,0,-2,-1,0,-1,-1,-3
1512364295518285,-1,1,-1,-4,-2,0,-1,-1
1512364295519786,0,-2,-2,-1,-2,0,-3,0
1512364295519786,1,-1,0,-1,-2,0,-3,-1
1512364295540804,0,-2,-2,0,-1,-1,-2,-2
1512364295540804,-1,0,-2,-1,0,-1,-3,-2
1512364295542309,-1,-1,-2,-1,0,0,-1,-2
1512364295542309,-2,-1,1,-2,-1,2,2,0
1512364295554312,-2,-1,0,0,-2,0,0,1
1512364295554312,0,-3,0,-1,0,-1,-2,0
1512364295563317,-1,-2,0,-3,-2,-1,-4,-1
1512364295563317,0,-3,-2,-2,-1,0,-4,-2
1512364295585843,0,-2,0,-3,0,0,-2,-1
1512364295585843,-2,1,-2,-1,-1,-1,2,-2
1512364295587344,2,0,0,0,-1,0,-1,0
1512364295587344,1,0,-1,-1,-1,-1,-2,0
1512364295600853,-1,-1,-4,0,-1,0,0,-2
1512364295600853,-2,0,0,1,0,-1,-1,-1
1512364295603348,-2,-3,1,-2,-1,-1,2,-2
1512364295603348,-1,-3,0,-2,-2,-1,-3,-1
1512364295614354,-2,-1,0,-2,-1,-1,-2,0
1512364295614354,-2,-2,-1,-2,0,-1,-1,-2
1512364295623369,-2,0,-2,-1,1,-1,0,-2
1512364295623369,-1,0,-3,-2,-2,-1,-1,-1
1512364295645875,-1,0,-1,-1,-1,-1,0,0
1512364295645875,-1,0,-2,-2,-1,-1,-3,-2
1512364295647376,-1,-2,-1,-1,-1,-1,-3,0
1512364295647376,0,-2,-2,1,-1,-2,-2,1
1512364295660899,0,-2,-3,-2,-2,-1,-2,0
1512364295660899,-1,-3,-2,-4,-2,-1,0,0
1512364295662404,-2,-1,-2,-1,0,0,1,0
1512364295662404,-1,-1,-2,-1,-1,-2,2,1
1512364295683415,-2,-2,-1,1,-1,-2,2,-1
1512364295683415,0,-3,-2,-1,0,-1,0,0
1512364295684904,0,-1,-3,-1,-4,-2,0,-2
1512364295684904,0,0,0,-1,0,-2,-1,-1
1512364295697414,-1,-1,-1,-1,0,-1,-1,0
1512364295697414,-2,-1,-2,0,-1,-1,-1,-1
1512364295704418,-1,-1,-1,-2,0,0,-1,-2
1512364295704418,-2,0,0,0,-1,-1,-2,-3
1512364295720929,-1,-2,-2,-2,0,0,-1,-1
1512364295720929,0,-2,1,0,0,-3,-2,0
1512364295722431,-1,-1,0,-2,0,-2,-3,1
1512364295722431,2,0,-2,-4,-1,-1,1,0
1512364295742456,-2,0,0,-1,0,-1,-1,-2
1512364295742456,-2,0,-2,-1,-2,-1,0,-2
1512364295751952,0,-2,-1,0,0,0,-1,-1
1512364295751952,0,-1,-1,1,-1,0,-1,-4
1512364295758454,-1,-1,-1,-2,-2,-1,-1,-2
1512364295758454,0,-2,-3,-1,1,-2,0,-1
1512364295759956,-1,-1,0,-1,-1,-3,-1,0
1512364295759956,-3,-3,0,-2,0,-1,-1,0
1512364295780970,-1,-1,1,-2,0,-2,-2,0
1512364295780970,-2,0,-1,0,-3,-1,-3,-1
1512364295782471,-2,0,-2,-3,-3,-2,0,-4
1512364295782471,-3,-1,1,-2,-1,-2,0,-1
1512364295803487,0,2,-2,0,1,-1,0,-2
1512364295803487,0,-2,0,-1,0,-1,-1,-1
1512364295805988,-1,-1,0,1,-2,0,2,-1
1512364295805988,-1,0,-1,-1,0,-1,-3,-1
1512364295817515,1,-2,-1,-3,-2,-1,-1,0
1512364295817515,-1,-1,-1,-1,-1,0,-2,0
1512364295824503,-1,-2,-2,-1,0,-1,-1,0
1512364295824503,-1,-1,0,-3,-2,-2,-1,0
1512364295841014,-5,1,2,0,-2,0,-2,-2
1512364295841014,-2,-1,-1,-3,-2,-2,0,-1
1512364295842514,0,7,2,0,1,1,0,0
1512364295842514,-2,0,-1,-1,-3,-1,0,0
1512364295863528,0,-2,-4,-1,0,-4,-1,-1
1512364295863528,1,0,-2,0,-2,0,2,2
1512364295865030,1,-1,-2,0,0,-1,-1,0
1512364295865030,-1,-1,0,-2,0,-1,-3,1
1512364295877539,-1,1,0,-1,-1,-1,-3,-3
1512364295877539,-1,-2,2,-2,0,0,-2,-2
1512364295884544,0,-3,-3,-1,-1,-3,-1,0
1512364295884544,1,1,-2,-1,-3,-1,-2,-3
1512364295901055,-1,-3,-2,1,0,1,0,-1
1512364295901055,-3,-2,-1,-1,1,-1,0,-2
1512364295904057,-2,-5,0,-3,-3,-1,-2,-2
1512364295904057,-2,-4,-2,-2,-2,-1,0,-1
1512364295923083,-2,-2,-3,0,-1,-2,-1,1
1512364295923083,3,-1,-3,-1,-2,-2,0,0
1512364295925072,-3,1,0,-1,0,0,-2,-2
1512364295925072,-2,-2,0,-1,0,-1,-1,-2
1512364295937593,0,-1,0,-1,-1,-3,-2,-2
1512364295937593,-3,-1,-3,0,-1,-1,-1,0
1512364295944586,-2,-1,0,-2,-3,0,0,-3
1512364295944586,-1,0,-3,-1,-2,-1,-1,-1
1512364295960612,-2,-2,-2,-1,-2,-1,0,0
1512364295960612,-1,0,1,-1,-1,1,0,-2
1512364295962599,-1,-2,-3,0,-1,-1,0,0
1512364295962599,-1,-2,1,-1,0,0,-1,-2
1512364295983613,1,-3,0,-1,-2,-1,-2,-3
1512364295983613,-3,-2,-2,-2,-1,-2,-1,-2
1512364295985616,-1,-2,-1,0,0,-3,-2,-1
1512364295985616,0,-2,-3,-2,-1,-1,2,1
1512364296005629,-1,-1,-3,-3,-2,-2,-2,0
1512364296005629,-1,-3,0,0,-1,0,0,0
1512364296007630,1,-2,-1,-1,0,-2,0,0
1512364296007630,-2,-8,-2,-1,-2,-3,-4,1
1512364296020653,-1,0,0,0,-1,0,-1,1
1512364296020653,-2,-2,0,-2,-2,-1,0,-2
1512364296022158,0,1,0,-2,-1,0,-1,-1
1512364296022158,-1,2,-1,0,0,0,0,-3
1512364296043157,-1,1,0,0,-2,-1,-1,-3
1512364296043157,-5,1,-1,1,-1,-1,-2,-3
1512364296044657,1,-5,-3,-1,-1,0,1,-3
1512364296044657,0,-2,-1,-1,-1,0,-1,-1
1512364296065682,0,0,-1,0,-2,0,-1,0
1512364296065682,0,1,-1,-2,-2,-2,-1,1
1512364296067173,-1,1,-4,1,1,0,-1,1
1512364296067173,-1,1,1,-2,-1,0,0,0
1512364296080682,-2,-3,0,-3,-1,-2,0,-1
1512364296080682,1,-3,0,-2,-2,-1,1,0
1512364296082183,-1,-1,-2,-2,-4,-2,-1,-1
1512364296082183,0,0,-4,0,-2,-2,-2,0
1512364296103201,-1,-1,-2,-2,0,1,-4,0
1512364296103201,0,-1,-1,-2,-1,-1,-3,0
1512364296104699,-1,-2,0,-2,-2,-1,-1,-1
1512364296104699,-3,0,-1,-1,-1,-1,3,-4
1512364296116719,0,-2,-1,0,-2,0,1,-2
1512364296116719,-2,-1,0,0,0,-2,-1,-2
1512364296125716,-1,0,1,-1,-1,0,-2,0
1512364296125716,0,2,0,0,-1,1,-2,-1
1512364296140731,-1,0,-1,-1,0,-2,0,-1
1512364296140731,0,-2,-2,0,-1,-2,0,-1
1512364296142227,-3,-2,0,-1,-2,-1,-1,-2
1512364296142227,-1,-2,0,-2,-1,0,-4,0
1512364296170745,-6,-1,-1,-1,0,0,-1,1
1512364296170745,-2,-2,-1,-1,-1,-2,-1,-2
1512364296172246,-2,-1,-1,-1,-1,-3,1,-2
1512364296172246,0,0,-2,-1,0,0,1,-1
1512364296177250,0,0,-1,1,-1,-1,-1,-1
1512364296177250,1,1,-2,-1,0,0,1,-2
1512364296185756,-2,0,-1,-1,-1,0,-2,-2
1512364296185756,0,0,0,0,0,-2,0,0
1512364296200768,-2,-2,-1,-2,0,-2,0,0
1512364296200768,-1,-1,-3,-1,0,-1,-2,-1
1512364296203268,1,-1,-1,-2,0,-2,-2,0
1512364296203268,-1,0,0,-1,-1,-1,-2,-2
1512364296223284,1,-2,-1,0,0,-1,-6,-1
1512364296223284,-2,-1,-2,-1,-2,-2,4,-1
1512364296224784,0,5,1,0,0,1,0,0
1512364296224784,-1,-2,-1,0,-1,-3,-1,0
1512364296236795,0,-4,1,-2,-2,-1,1,0
1512364296236795,-1,0,0,-1,-1,0,-2,-1
1512364296245801,-1,-3,-3,0,-1,-3,-1,-3
1512364296245801,0,-1,-2,-2,-2,-2,-1,-1
1512364296260810,-6,2,-1,0,-2,-1,0,-3
1512364296260810,1,-1,-1,0,1,-2,-3,-2
1512364296262310,-2,-3,-1,-2,-2,-2,-1,0
1512364296262310,-1,-2,0,0,-2,-1,-3,-1
1512364296283335,-1,-2,-2,-2,-2,-2,-2,1
1512364296283335,-3,0,0,-1,-2,-1,-1,1
1512364296284826,-1,-2,0,-2,1,-1,-1,-1
1512364296284826,-2,-2,1,-3,-1,-1,-1,-1
1512364296296844,0,-1,-1,-2,0,-1,1,-1
1512364296296844,-1,-3,-2,-2,-1,0,-1,-1
1512364296305876,0,-2,-3,-1,-1,0,-2,1
1512364296305876,0,-1,0,0,0,-1,-1,1
1512364296320878,-1,-5,-1,1,-2,-1,-1,-1
1512364296320878,-1,0,0,-2,-1,-1,-3,0
1512364296322379,0,-4,1,0,-3,-2,0,-3
1512364296322379,-1,-4,-1,0,-1,-3,0,-2
1512364296343394,-2,-1,-2,-2,-2,-3,-3,-2
1512364296343394,-1,-3,1,0,-2,-1,0,-2
1512364296344896,0,1,-2,-2,0,0,-1,-2
1512364296344896,-2,0,-4,-2,-1,-2,-1,1
1512364296356913,1,2,-1,-2,-1,0,-1,1
1512364296356913,-3,0,-2,-1,-1,0,0,-2
1512364296373415,-1,0,-2,-1,0,1,1,-3
1512364296373415,-2,-2,-2,-1,-2,0,0,-2
1512364296380935,0,-3,-1,1,-1,-1,0,-1
1512364296380935,2,-1,0,0,-1,0,-1,0
1512364296382428,-1,-1,0,0,-1,-1,-2,-1
1512364296382428,-1,1,0,-1,-2,-1,-1,-2
1512364296418947,-2,1,-1,-2,0,-2,-1,-1
1512364296418947,-2,0,-2,-1,-2,0,-2,-2
1512364296421449,-2,-1,-2,-1,-1,-1,-2,-1
1512364296421449,-2,-1,0,-3,0,-3,0,-1
1512364296422449,1,1,1,-3,0,-2,-2,-1
1512364296422449,0,-1,-2,-1,-1,-1,0,-2
1512364296425953,-1,-3,-2,-2,-2,-1,-1,1
1512364296425953,-1,-1,-3,0,0,-2,-3,0
1512364296440962,-1,-2,-3,1,-1,-2,0,0
1512364296440962,1,-2,-4,-1,-1,-1,0,1
1512364296442464,-6,-2,0,0,-2,0,1,-1
1512364296442464,-1,-1,0,0,1,-1,0,-1
1512364296463478,-3,-7,-5,-3,0,1,-2,-1
1512364296463478,-1,-1,0,-2,-2,-1,-2,-3
1512364296464981,-2,1,-1,-2,-1,-1,-1,-1
1512364296464981,-1,-1,-2,0,-1,0,-3,-2
1512364296485994,-1,-2,-2,0,0,1,-2,-2
1512364296485994,0,-2,0,-1,-1,-1,-2,0
1512364296487510,-2,-5,1,-1,-2,-3,1,-1
1512364296487510,-3,-3,0,-1,-2,-2,1,-2
1512364296500520,0,1,1,-1,-1,-3,4,-2
1512364296500520,-1,0,0,0,-1,-1,0,-1
1512364296503522,0,1,-1,-2,-1,-1,-2,-1
1512364296503522,0,0,-2,0,-1,0,-1,0
1512364296523037,0,-1,2,0,-1,0,-3,0
1512364296523037,-2,0,-1,-1,-1,-2,-3,0
1512364296525037,-2,-3,-3,2,3,1,-2,-2
1512364296525037,-2,-1,-1,-1,-1,-1,-1,-1
1512364296537089,-2,1,-1,-3,0,-1,0,-1
1512364296537089,-2,0,-1,-2,-2,-1,-1,-2
1512364296546052,0,0,-3,-4,-2,-2,0,0
1512364296546052,-1,0,-3,0,0,-1,-1,1
1512364296560547,0,-1,-1,0,-2,-2,1,-1
1512364296560547,-2,0,-1,-2,-1,0,-3,-3
1512364296562548,0,-1,-1,-1,-3,-2,-3,-2
1512364296562548,0,-2,-1,-2,-1,-1,-2,-1
1512364296583069,-1,-3,-1,-1,0,0,-2,0
1512364296583069,-1,-3,-4,1,0,-3,-1,0
1512364296585064,-2,0,-2,0,1,0,1,-3
1512364296585064,-1,-1,-1,-3,0,0,-2,-1
1512364296605591,0,-1,0,-2,-2,-1,0,-1
1512364296605591,-1,-3,0,-1,0,1,2,0
1512364296608581,-1,-2,-2,-1,-3,-2,-2,0
1512364296608581,-1,3,0,-1,0,-2,-2,0
1512364296621090,-3,2,-3,-1,-1,1,-1,-2
1512364296621090,-1,0,0,0,-2,-2,-1,-1
1512364296622591,1,2,0,-2,1,-3,0,1
1512364296622591,-1,-3,0,-2,-1,-1,-1,0
1512364296643118,-1,0,-2,0,-1,-1,0,-2
1512364296643118,-2,0,-2,-2,0,0,-1,-1
1512364296645107,0,-3,0,-1,-2,-1,-2,1
1512364296645107,0,-2,0,0,-1,-3,-1,-2
1512364296665631,-2,1,-1,0,-1,-2,-1,0
1512364296665631,-1,-1,-2,-3,-1,-3,1,-1
1512364296667623,-4,0,-3,2,2,1,1,-3
1512364296667623,-3,0,-2,-1,-3,0,1,-1
1512364296680632,-2,-1,1,0,-1,-1,-2,-1
1512364296680632,0,-2,0,-1,-2,-1,-2,1
1512364296682133,-6,-1,2,0,-2,-2,-3,-1
1512364296682133,0,-3,-2,0,-1,-1,-4,0
1512364296703151,-1,-2,0,-1,-1,-1,-2,0
1512364296703151,-1,-2,-1,1,1,-1,-2,-1
1512364296705150,2,-1,-1,-2,-1,-1,-1,0
1512364296705150,-1,-1,-1,-2,0,-2,-1,-3
1512364296725664,-2,0,-1,-1,-1,0,-2,-2
1512364296725664,0,0,-1,0,-1,-1,0,-2
1512364296729181,2,-1,-2,-2,-1,-2,-1,-3
1512364296729181,0,-3,-1,1,0,-1,0,-2
1512364296740173,1,0,0,-2,-2,-2,-2,-2
1512364296740173,-1,-1,0,-2,1,-1,0,-2
1512364296754198,0,-2,-2,-2,0,1,0,-1
1512364296754198,-1,0,-1,-3,-1,1,-1,-1
1512364296770705,-1,-1,-1,-4,-2,0,-2,-2
1512364296770705,-2,-1,-3,4,2,0,-2,-2
1512364296772196,-1,0,-2,-1,-2,0,0,-2
1512364296772196,-1,-1,0,-2,-1,0,1,-2
1512364296785716,-4,-2,-1,0,0,-1,1,-2
1512364296785716,0,0,-4,-3,-2,-2,0,-2
1512364296787216,0,0,1,-1,-1,-2,-3,-1
1512364296787216,-2,-2,0,-1,0,-2,-3,-1
1512364296800219,1,-3,-1,-2,0,-1,-1,-2
1512364296800219,-2,-2,0,-3,-2,-1,-2,-1
1512364296807222,1,-3,-2,-1,-1,-2,0,0
1512364296807222,0,-1,-3,-1,-2,0,0,-1
1512364296823245,0,-1,0,-3,-3,-2,0,1
1512364296823245,1,-2,-2,-1,-3,0,-1,2
1512364296824734,-2,1,0,0,-1,-2,-1,1
1512364296824734,0,1,0,-2,0,-1,-1,-2
1512364296845758,-1,-3,-1,0,-1,0,-2,-3
1512364296845758,0,-2,-2,-2,-1,-1,0,0
1512364296847259,-2,0,-2,-1,-2,-1,-1,0
1512364296847259,0,0,-1,0,-1,-2,-1,0
1512364296860258,-1,0,-1,1,1,-2,-1,0
1512364296860258,-1,-5,1,-2,-1,-1,-2,-2
1512364296866776,1,-2,-1,-1,-1,-1,-1,-4
1512364296866776,-1,-1,-1,-1,-2,-2,-1,0
1512364296883275,0,-3,-1,0,-1,0,1,1
1512364296883275,-1,-1,-2,-2,-3,-1,-2,0
1512364296884776,-1,-1,0,2,0,1,-3,-1
1512364296884776,-2,1,-2,-2,-1,-1,-1,-3
1512364296905791,-1,0,-4,-3,0,-1,-1,0
1512364296905791,-2,0,-1,0,-1,-1,0,-2
1512364296907292,-2,-2,-1,-3,0,-2,0,-1
1512364296907292,-3,0,0,-1,-2,-1,-3,-1
1512364296919801,-1,0,-2,0,0,-3,-1,-2
1512364296919801,0,1,-2,-2,-1,0,-1,-1
1512364296926805,-1,-2,-2,-2,-1,-1,-2,-2
1512364296926805,-2,-4,-1,-1,-2,0,-1,-3
1512364296943325,-3,0,-1,-3,-1,0,0,-2
1512364296943325,0,0,1,-1,0,0,-1,-2
1512364296944819,-1,-2,-1,-2,-1,-3,-2,1
1512364296944819,-3,-2,1,-2,-1,-1,0,-1
1512364296965847,1,-3,-2,-1,0,-1,0,-1
1512364296965847,2,-2,-2,-2,-4,-1,-2,-1
1512364296967344,-1,0,0,-2,0,-1,-1,-1
1512364296967344,0,-1,-2,0,-2,-1,0,1
1512364296979343,0,-1,-2,3,-2,-1,2,0
1512364296979343,-2,-3,-1,1,0,-1,1,-1
1512364296988361,0,1,-2,0,-1,-1,0,-2
1512364296988361,-1,-1,-1,-2,-2,-1,0,-1
1512364297003860,0,0,-1,-1,-1,-1,-2,-3
1512364297003860,-2,-2,-2,-1,0,-3,-1,-1
1512364297005361,-1,-1,0,0,-2,-1,0,-2
1512364297005361,0,-1,-2,-2,0,1,-1,-1
1512364297025876,-1,-1,0,0,-1,-1,-2,1
1512364297025876,-1,-1,0,-1,-2,-1,-1,-1
1512364297027379,-2,0,0,-2,-1,0,0,-2
1512364297027379,0,-1,0,0,-1,-2,-2,0
1512364297039386,-3,-2,0,-2,-2,-1,-3,-3
1512364297039386,-2,-2,-1,0,-3,-2,-2,0
1512364297048392,0,-2,-2,-1,-3,-1,-3,0
1512364297048392,-1,1,-2,0,-1,-1,0,1
1512364297071408,-2,-1,0,0,-1,-1,0,-1
1512364297071408,-2,1,-2,0,0,-3,-2,-2
1512364297073410,-3,0,-2,0,0,-3,0,-2
1512364297073410,1,-3,-2,0,-2,-1,0,0
1512364297085919,-1,1,-3,-2,-2,0,0,0
1512364297085919,-3,-1,-2,-2,-1,-1,2,0
1512364297087420,2,-4,0,-3,-1,-1,-1,0
1512364297087420,-3,-3,-1,-2,-1,-2,-2,-2
1512364297099441,-1,-2,0,0,-1,0,-4,-2
1512364297099441,0,-1,-3,-3,-2,0,-1,-3
1512364297114955,0,0,-2,0,-1,-1,0,-1
1512364297114955,-1,-3,-2,-2,-2,-4,-1,-2
1512364297122944,-1,-1,-3,1,-3,-2,-2,-1
1512364297122944,-1,-2,2,-1,0,1,-1,0
1512364297124946,-2,0,-1,-1,0,0,-1,-1
1512364297124946,-2,-1,-1,-2,0,-2,-4,-1
1512364297145960,-2,0,-3,-2,0,-2,0,-1
1512364297145960,-1,0,-2,-1,0,1,1,0
1512364297147462,-2,-1,-3,-2,-1,0,1,0
1512364297147462,0,0,-3,0,0,-1,1,0
1512364297159982,0,-2,-1,-1,0,-1,-3,-2
1512364297159982,-3,-1,0,0,0,-2,-2,-2
1512364297168476,-1,-2,1,-1,0,0,-2,-1
1512364297168476,-1,0,-1,-1,0,0,-2,-2
1512364297183486,1,-2,-1,-2,-1,-2,1,0
1512364297183486,-1,-1,1,-1,-1,1,-1,-2
1512364297184997,-1,-2,0,-3,-2,-3,1,-1
1512364297184997,-2,-3,-1,-2,-1,-1,-2,-1
1512364297205504,-2,-2,-2,-3,-1,-2,-1,-1
1512364297205504,-2,-2,-1,-1,-2,-2,-2,-3
1512364297207521,2,0,-1,0,-1,-2,-2,-3
1512364297207521,-1,0,-2,-1,-1,-2,1,-1
1512364297219524,-1,1,1,-1,-1,-1,-1,-1
1512364297219524,-1,0,-2,-1,-1,-3,0,1
1512364297228520,-1,-1,1,-1,-2,-1,1,0
1512364297228520,0,-2,-1,0,0,0,-1,-3
1512364297243029,-3,-1,-3,-3,-2,-2,-1,0
1512364297243029,-3,-1,-2,-2,-3,-3,0,-2
1512364297245039,-1,-2,-2,-2,-1,-1,-4,0
1512364297245039,-1,-3,-1,-3,-1,-2,0,-2
1512364297265554,-1,-1,1,-1,0,0,0,1
1512364297265554,-1,0,1,-2,-2,-2,-2,-1
1512364297272059,0,-2,0,-1,0,0,-2,-1
1512364297272059,-2,1,1,0,-1,1,-3,0
1512364297279555,0,-2,-2,-1,0,-1,-1,-1
1512364297279555,0,-2,-3,1,0,0,0,0
1512364297288561,-3,-1,-3,0,-3,-1,-1,-1
1512364297288561,-1,0,-2,-2,-1,-2,-2,0
1512364297303075,-1,-1,-1,-1,-1,-1,2,-2
1512364297303075,-3,-3,-3,-2,1,-1,0,0
1512364297306574,0,-2,-4,-1,1,0,0,1
1512364297306574,-2,-3,-2,-1,-2,-2,0,-1
1512364297325587,-1,-1,1,0,-1,-1,-4,0
1512364297325587,-1,1,-1,-1,0,-2,-1,-2
1512364297328589,-2,-1,-1,-1,-1,-1,0,-2
1512364297328589,-1,2,-2,-2,0,0,1,-1
1512364297348603,1,-1,0,-1,-1,-1,-2,-1
1512364297348603,0,-2,0,-1,-2,-1,0,-1
1512364297350604,-2,-2,1,-1,-1,-2,2,-4
1512364297350604,1,-2,1,-2,-2,-1,0,-1
1512364297363124,0,-1,-3,0,-2,-1,-1,0
1512364297363124,-3,-1,-3,-2,0,0,-1,0
1512364297365115,-1,-1,-1,0,-2,-1,-1,-3
1512364297365115,0,0,1,1,0,2,-3,-1
1512364297385633,-1,-2,-2,-2,-1,-1,-1,-5
1512364297385633,0,-2,-2,0,-2,0,-2,-3
1512364297387131,-4,0,-2,-1,0,-2,-1,-2
1512364297387131,-3,-2,-1,-2,-1,-1,-2,-3
1512364297399641,-3,0,-3,0,-2,-2,-2,0
1512364297399641,-1,-2,-1,-1,0,-1,-1,1
1512364297408646,1,-1,-2,-4,-1,-1,-1,0
1512364297408646,0,1,-4,-1,-1,-2,0,0
1512364297423166,-2,1,0,2,0,-1,1,-1
1512364297423166,0,0,-1,-2,-1,-4,-1,-1
1512364297425158,-2,1,1,-2,-1,-3,0,0
1512364297425158,-2,-3,1,-2,0,-2,-1,-2
1512364297445672,-3,-2,-2,-2,-1,0,-2,-2
1512364297445672,-1,0,-1,0,0,1,-4,-2
1512364297447191,-1,-2,-2,-1,-2,0,-4,-1
1512364297447191,-1,-2,-2,0,0,0,-2,1
1512364297459199,3,0,0,-2,-1,-2,-2,-1
1512364297459199,-1,-1,-1,2,2,1,-1,1
1512364297468205,0,1,-2,-1,-1,-1,-1,0
1512364297468205,0,-1,0,1,-1,0,1,-1
1512364297482717,-1,-2,0,-2,-1,-1,1,-1
1512364297482717,-1,-2,-1,-1,-1,0,-1,-1
1512364297489230,-2,-1,0,-1,-1,-2,-2,-2
1512364297489230,-2,0,-4,-1,-2,-2,-3,-1
1512364297505741,-2,-1,-1,0,-1,-1,-2,-2
1512364297505741,-2,-3,-1,-1,-1,-3,0,-2
1512364297507242,-2,-3,-1,0,1,0,0,-1
1512364297507242,-1,0,-2,-2,0,-1,0,0
1512364297535776,-2,0,0,-2,-3,-2,-2,1
1512364297535776,0,2,0,-3,0,-1,-1,-1
1512364297537276,0,0,1,1,-1,0,-1,-1
1512364297537276,-1,-2,2,-1,-2,-1,1,-1
1512364297543293,-4,-1,-1,-1,1,-1,1,-1
1512364297543293,0,-3,0,-2,-3,-2,-1,1
1512364297544794,-1,-5,-1,-1,-3,-2,0,-1
1512364297544794,0,-3,-4,2,-2,-1,0,0
1512364297565808,-2,-2,0,-1,0,-1,-1,-1
1512364297565808,0,0,-2,-1,-3,-2,0,0
1512364297567309,-1,1,-2,-2,0,0,-1,-1
1512364297567309,1,-1,-2,-3,-2,-3,-3,-4
1512364297596330,0,0,0,0,1,-1,-2,-3
1512364297596330,-2,-1,1,-1,-2,-1,-1,-2
1512364297603839,0,-1,-1,-1,-1,0,-2,0
1512364297603839,-3,-3,-1,0,-1,-1,1,0
1512364297604836,0,-1,-2,-1,-2,-2,1,-1
1512364297604836,0,2,-4,-3,0,-1,-2,-1
1512364297606338,-2,2,-2,0,-4,0,-3,0
1512364297606338,1,0,-2,2,1,-3,-2,-1
1512364297624855,1,-3,-3,0,-1,1,-1,-1
1512364297624855,-2,-1,1,1,-1,-2,1,0
1512364297633357,0,-2,0,-1,-1,-3,1,-2
1512364297633357,-1,-1,1,-2,-1,-1,0,-1
1512364297648380,-3,-2,1,-2,-1,0,-1,1
1512364297648380,-1,-3,0,-2,-2,1,-1,-2
1512364297649869,-2,-3,0,0,0,-1,-3,-2
1512364297649869,1,0,0,-2,-2,-1,-2,-1
1512364297663377,-2,-1,-4,-3,-1,-2,0,1
1512364297663377,-1,1,-2,0,0,-1,-2,-1
1512364297664889,-1,-1,-3,1,0,-1,-2,-1
1512364297664889,-2,0,-2,-2,-1,-1,-1,0
1512364297685906,-1,0,-1,-1,-1,-1,-1,-2
1512364297685906,-2,-3,-1,-1,0,-1,0,0
1512364297687417,-2,-1,-2,-2,0,-1,2,-2
1512364297687417,-2,-4,0,-1,-2,-1,1,-2
1512364297708410,-1,-4,-1,-1,-2,0,-2,-2
1512364297708410,-2,-3,-1,-1,-2,-1,0,-3
1512364297709910,0,-2,0,-1,0,-2,-1,-1
1512364297709910,-1,-1,-2,0,0,-2,0,-3
1512364297722431,-1,0,0,0,0,-3,-2,-1
1512364297722431,-1,-1,1,1,-2,-2,0,1
1512364297729434,-3,-1,-1,-1,-4,-1,-2,0
1512364297729434,-2,2,-2,-2,0,-1,-2,0
1512364297745936,-2,-3,1,1,-1,-1,-1,-2
1512364297745936,-1,-2,-1,-1,0,0,0,-1
1512364297747437,-2,0,0,-1,0,-3,-1,0
1512364297747437,1,1,0,-1,0,-1,0,0
1512364297767953,-2,0,-2,0,0,-1,0,0
1512364297767953,-3,-1,-2,-1,1,-1,2,-1
1512364297769962,0,-2,-2,-3,0,-1,-2,-1
1512364297769962,-2,-2,-2,0,-1,0,-1,0
1512364297782472,1,0,-3,-2,-2,-2,-1,-1
1512364297782472,-1,-1,-2,-2,-3,-1,-3,-1
1512364297796987,-1,-1,0,-1,-1,0,-2,-2
1512364297796987,0,0,2,-2,0,1,-1,-2
1512364297812992,-1,0,0,-1,-2,0,-1,-1
1512364297812992,-1,-1,-1,-1,-2,0,-1,-1
1512364297814995,-3,-1,0,0,-1,0,-1,-1
1512364297814995,-1,-2,-1,-2,-1,-1,-2,1
1512364297828011,-3,-1,-1,-2,0,0,-2,1
1512364297828011,0,1,-2,-3,-2,-1,-2,-1
1512364297830005,0,2,-4,-1,-1,0,0,0
1512364297830005,-3,-1,-2,-1,-1,-3,-2,-3
1512364297842504,-1,1,-2,-3,0,-1,1,1
1512364297842504,-2,-1,-2,-1,0,-2,0,1
1512364297849524,-2,-1,0,-1,0,-1,-2,-1
1512364297849524,-2,-1,-1,-3,-1,-1,-1,1
1512364297865520,0,-1,-1,-2,-2,-1,-1,-1
1512364297865520,-1,-1,-1,-1,-1,0,-3,-4
1512364297867521,1,-2,0,0,-2,-1,-1,-1
1512364297867521,-1,-3,1,0,-1,-1,-2,-2
1512364297888036,-2,0,-2,0,-3,-2,-1,-3
1512364297888036,-1,-1,-1,-1,-2,-2,0,-1
1512364297890538,1,-1,0,-2,-3,0,3,1
1512364297890538,-1,0,0,0,-1,-1,0,0
1512364297902550,0,-2,-2,0,1,-2,-2,-2
1512364297902550,-1,-2,0,-1,0,-3,-1,-3
1512364297909554,0,0,0,-2,-2,-3,-3,-4
1512364297909554,-1,-2,-2,-1,-3,-1,-2,-2
1512364297925572,0,-1,-2,0,0,-2,0,1
1512364297925572,-3,-1,-4,-2,0,0,-2,3
1512364297929065,1,-1,-1,-2,0,0,0,1
1512364297929065,-2,-3,1,-1,-2,-1,-1,-1
1512364297948579,0,-3,1,-1,-2,-2,-2,-2
1512364297948579,2,-2,1,1,-1,-1,0,-2
1512364297950080,-2,-1,-3,-2,-1,-2,-1,-1
1512364297950080,-6,2,1,0,-1,0,-2,-2
1512364297962589,-2,-1,0,-1,-1,-1,-3,-1
1512364297962589,-2,2,0,1,-1,-1,-1,0
1512364297969619,-2,-1,-1,2,-2,-1,-2,0
1512364297969619,0,-2,-2,-1,0,-2,-1,0
1512364297986608,0,-2,-2,-2,-1,-2,-1,0
1512364297986608,-3,-2,0,-3,-1,0,-3,-3
1512364297988129,-1,0,0,0,-2,-2,-2,0
1512364297988129,1,3,-2,-1,0,0,-1,-1
1512364298008138,-3,1,-2,-1,-2,-1,-1,-2
1512364298008138,0,-1,-4,-2,0,-2,-2,-2
1512364298009623,-2,-1,-2,-2,-1,-2,-2,-3
1512364298009623,0,-2,-3,-2,-1,0,-1,-1
1512364298030638,0,0,0,-2,-2,-1,0,-2
1512364298030638,0,0,1,0,-1,-1,-1,-1
1512364298033140,-1,-1,0,-1,0,-2,-1,0
1512364298033140,0,-1,-2,-1,0,-1,0,0
1512364298045647,0,0,-3,-1,-1,-1,-1,1
1512364298045647,0,-4,-2,-1,-1,0,0,0
1512364298047148,-1,-3,-5,-1,0,0,2,-2
1512364298047148,-1,-4,-2,-1,-1,0,1,-1
1512364298068165,-2,-2,-1,-1,-2,0,-1,0
1512364298068165,-2,-1,0,-2,-1,-2,-3,-2
1512364298069664,-1,0,0,-2,-1,1,-3,-1
1512364298069664,1,-1,0,-3,0,-1,-1,-2
1512364298081673,-2,-1,-1,-2,-2,-1,1,-1
1512364298081673,-2,-1,-1,-1,-1,2,1,0
1512364298091680,-1,-2,0,0,-2,-1,-1,-1
1512364298091680,-3,0,-1,0,-1,-3,1,0
1512364298105720,-1,-3,0,-2,-2,-2,1,-3
1512364298105720,-1,-2,-1,-1,-1,-2,0,-2
1512364298107221,0,-3,-2,0,0,-3,0,-1
1512364298107221,-1,-1,-1,-2,-3,0,-1,-3
1512364298128248,-1,-1,2,-1,-2,0,-3,-1
1512364298128248,-2,0,-3,1,0,0,-3,-2
1512364298129754,0,-1,-1,-2,-1,0,-1,1
1512364298129754,1,0,-3,0,-1,0,0,-1
1512364298141745,0,-1,-2,-2,1,-1,0,-1
1512364298141745,0,-1,-3,-2,0,-2,-2,-1
1512364298150803,-1,0,-1,0,1,1,-1,0
1512364298150803,0,-2,0,-1,-1,-2,-2,-1
1512364298165813,-3,-1,-1,2,-1,-1,-1,-2
1512364298165813,-1,-2,1,0,-1,-1,1,-1
1512364298167317,-2,-2,0,-2,-2,-2,-2,-2
1512364298167317,-2,2,-2,-1,0,-1,-1,-2
1512364298188322,0,-1,-1,-3,-1,-2,-1,-2
1512364298188322,-1,2,0,-1,-1,0,2,-2
1512364298190838,0,0,0,-2,-3,-1,-1,0
1512364298190838,1,0,1,3,2,-1,-2,1
1512364298201833,0,0,-3,-1,1,0,-1,1
1512364298201833,0,0,-2,0,-2,-2,-1,0
1512364298226859,0,0,-1,-1,-1,-1,1,-1
1512364298226859,-2,-2,-1,-1,-2,-1,0,-1
1512364298227860,1,-2,-1,-1,0,-1,-1,0
1512364298227860,-1,-3,-1,-2,-2,-1,-4,1
1512364298229361,-1,0,0,0,0,-1,-1,-1
1512364298229361,0,-5,1,1,-3,-1,-1,-2
1512364298249364,-1,0,-2,-2,0,0,-1,-2
1512364298249364,0,-2,-3,-2,-2,-1,0,-1
1512364298250865,-2,-5,-3,-2,0,-1,-3,-2
1512364298250865,-1,-1,-3,-1,-1,-1,-1,-2
1512364298261872,-1,-1,-1,3,0,-2,1,0
1512364298261872,0,-2,-1,0,-1,1,1,-1
1512364298270879,-2,-1,-3,0,-1,-1,-1,0
1512364298270879,-1,-1,-2,-1,-1,-2,-2,-2
1512364298284888,-1,-1,-1,-3,-2,-1,-2,-2
1512364298284888,-1,0,0,-1,-1,-3,0,-2
1512364298285889,-1,-2,0,-6,-2,-2,1,-1
1512364298285889,-2,0,-1,2,1,0,0,1
1512364298307413,-1,-1,1,3,1,0,-1,-1
1512364298307413,0,0,-1,-2,-2,-3,0,1
1512364298308406,-2,1,0,-1,-2,1,-2,0
1512364298308406,-1,-1,2,1,0,-1,0,-1
1512364298329930,-2,-2,2,12,2,-1,-2,0
1512364298329930,-1,-2,-3,-9,2,-1,-1,-1
1512364298330931,1,-3,-5,-2,0,-2,-1,-1
1512364298330931,-1,-2,-2,-7,-2,0,-2,-1
1512364298344941,0,-2,-3,-2,-3,-1,0,-2
1512364298344941,-2,-1,0,3,-2,-1,-1,0
1512364298345935,-1,0,0,1,-2,-2,-1,-1
1512364298345935,0,-1,-3,-2,0,0,-2,0
1512364298367459,-2,1,0,-2,0,-1,1,-3
1512364298367459,-1,-1,0,-1,-1,-1,-2,1
1512364298368455,0,0,0,-2,-2,-2,0,0
1512364298368455,0,-3,-1,-1,-1,-1,1,0
1512364298397968,2,-1,-1,-4,-3,0,-1,-1
1512364298397968,-1,-2,-5,-1,-1,1,-2,-2
1512364298398969,0,0,-1,1,-1,1,-1,-1
1512364298398969,-2,-1,0,2,-2,0,-1,-2
1512364298404973,-2,0,2,5,-7,-3,0,-1
1512364298404973,-1,-5,-2,-9,3,1,0,-2
1512364298405473,-2,-4,-2,-3,-2,-1,-2,0
1512364298405473,-1,0,0,-1,-1,-2,-2,-2
1512364298427499,0,-1,-3,-9,0,1,-3,1
1512364298427499,-1,2,5,7,-5,-5,-3,-2
1512364298429000,1,1,-1,4,1,-2,-2,-1
1512364298429000,-1,-2,-1,-3,-2,-2,1,-1
1512364298450005,-4,-1,0,-1,-1,-2,-2,-1
1512364298450005,-2,1,-1,2,0,1,-1,-1
1512364298451005,-4,-2,-2,-1,0,0,-1,-1
1512364298451005,-1,0,-1,-4,-3,-3,-2,0
1512364298465028,2,-3,-4,0,5,0,-1,1
1512364298465028,-4,1,0,2,1,-1,1,-2
1512364298465516,-2,1,0,2,0,-3,0,0
1512364298465516,1,0,-2,-5,-3,0,0,0
1512364298487532,0,-2,-1,-8,-3,-3,1,1
1512364298487532,2,-2,-2,5,-1,0,-1,-1
1512364298488536,2,0,-1,-4,-1,1,-2,-2
1512364298488536,-4,-2,0,-1,-1,-3,-1,-2
1512364298510057,-2,-4,-3,-4,-2,0,-2,-4
1512364298510057,0,-1,-1,-5,-4,-2,-1,0
1512364298510559,-1,1,-1,3,3,-1,-3,-1
1512364298510559,3,1,-2,2,-1,1,-3,-2
1512364298525100,0,2,2,7,2,1,1,-1
1512364298525100,-1,0,-4,-18,-5,-2,-1,-1
1512364298525558,3,-2,-1,-4,-2,-3,-1,-1
1512364298525558,-3,0,-3,-7,-4,0,-3,-2
1512364298547586,2,1,2,8,0,-2,0,0
1512364298547586,-1,-1,-4,3,1,-1,-2,-1
1512364298548074,-1,-2,-1,-6,-1,0,0,0
1512364298548074,0,-1,-1,7,2,0,3,3
1512364298570090,-2,-2,-1,-6,-5,-3,-5,-2
1512364298570090,2,-2,-1,0,-4,-1,0,2
1512364298570590,1,-2,2,3,-1,-1,0,-2
1512364298570590,-2,-2,-3,0,0,-3,-2,-1
1512364298585110,0,1,0,-5,-2,1,-3,-3
1512364298585110,-2,1,-4,-4,0,-3,-3,0
1512364298585602,2,0,-4,-7,-2,-1,-2,1
1512364298585602,0,1,2,9,0,0,-1,-1
1512364298607617,-3,-2,-1,-8,0,-2,0,1
1512364298607617,1,1,-3,-2,-1,1,-1,-3
1512364298608116,-15,-2,0,5,1,-1,-1,-3
1512364298608116,-1,-2,-3,-5,-1,-1,-2,-1
1512364298630142,-3,-2,-3,2,-1,-2,-3,-3
1512364298630142,0,-2,2,4,-1,-1,-2,-1
1512364298630632,4,2,-1,-7,-4,-2,-3,-1
1512364298630632,-7,-4,3,2,1,1,0,-4
1512364298653156,3,1,-2,0,1,-2,1,0
1512364298653156,-3,-3,-2,-5,0,-1,-2,-2
1512364298654153,-1,-4,-3,-2,-1,-2,1,0
1512364298654153,-4,0,-5,-4,-3,-2,-3,-3
1512364298667658,-1,1,0,-2,-6,-1,1,1
1512364298667658,-2,-4,-1,2,1,-2,-2,-2
1512364298668161,-9,1,2,3,-2,-1,-3,-3
1512364298668161,4,-4,-1,-5,-2,-2,-2,1
1512364298690689,-4,-2,0,-5,0,0,-2,0
1512364298690689,-1,0,2,4,-3,-2,-1,1
1512364298691176,-1,-1,-5,-6,-2,-1,-1,-3
1512364298691176,3,2,-1,8,2,1,2,0
1512364298705185,-3,-2,-3,2,1,-1,-1,-3
1512364298705185,1,1,0,-6,-2,-1,1,-1
1512364298705687,4,0,3,8,-1,0,-2,-3
1512364298705687,-13,-4,-1,-5,0,0,-2,1
1512364298727701,2,-1,-4,-1,-3,0,-1,-1
1512364298727701,-5,-2,1,2,3,0,-1,-2
1512364298728202,4,-3,-2,-2,1,1,1,2
1512364298728202,1,0,-1,2,-2,-2,1,-2
1512364298750217,1,-4,-2,-5,-1,1,-2,1
1512364298750217,-4,5,5,-1,0,1,-2,3
1512364298750717,2,4,-4,-3,1,0,-2,2
1512364298750717,1,-2,2,-3,-3,-1,-2,0
1512364298765227,-3,-3,2,4,-2,-2,0,-2
1512364298765227,3,-1,-3,1,0,0,-1,0
1512364298765728,-2,-1,1,-4,-4,-1,-1,0
1512364298765728,1,3,0,-3,2,0,2,1
1512364298787743,2,2,0,0,0,-3,0,-2
1512364298787743,-9,-5,-2,-2,-2,-2,-2,-3
1512364298788245,-1,-8,-2,-7,2,0,-2,0
1512364298788245,-6,-1,-1,0,-2,-2,-3,-2
1512364298809771,1,3,2,2,-3,0,1,0
1512364298809771,-4,1,-4,-4,1,-2,-3,-2
1512364298810761,-3,-1,0,2,-5,-1,-1,-2
1512364298810761,3,2,1,-3,-3,-2,-3,-2
1512364298825270,1,0,2,-2,-2,0,-3,-1
1512364298825270,2,-2,-2,5,2,-1,-2,-3
1512364298825771,4,0,-1,0,1,-1,1,1
1512364298825771,-8,-6,-5,-4,1,0,-1,-6
1512364298847287,-2,-5,-1,0,-1,-1,4,3
1512364298847287,1,3,-1,1,-6,0,-1,-1
1512364298848287,3,2,0,-6,0,-2,-5,-6
1512364298848287,-3,-4,-2,0,0,-1,-3,-1
1512364298869811,0,-4,-5,-6,2,-2,-3,-4
1512364298869811,2,-5,1,-2,-2,-1,1,5
1512364298870802,-2,1,-2,2,-4,-3,-3,-4
1512364298870802,-3,-3,-5,-3,-2,-1,-1,4
1512364298884813,3,1,0,1,-1,-1,-2,-2
1512364298884813,-1,1,-4,-5,-2,-2,0,-2
1512364298885813,-2,-2,-1,3,-3,-2,3,1
1512364298885813,8,-3,-2,-3,-2,-2,-2,-2
1512364298907338,-5,1,-3,-4,-2,-1,-2,-3
1512364298907338,1,-2,3,4,-1,0,1,-1
1512364298908329,3,-1,2,0,-1,0,-3,-2
1512364298908329,-1,-2,-2,-7,0,2,3,2
1512364298929861,4,-4,-3,1,-1,0,-2,4
1512364298929861,1,-1,1,4,-2,-3,-7,-9
1512364298930854,-2,-1,-3,-9,1,0,1,-2
1512364298930854,2,3,3,3,-2,-1,1,4
1512364298944867,-5,2,-1,-3,-1,-3,0,0
1512364298944867,6,9,-2,-2,0,0,0,0
1512364298945856,-14,2,0,3,-3,-1,3,2
1512364298945856,1,-4,-3,-3,-3,-5,-4,-3
1512364298975376,-6,-12,-5,0,0,0,-2,-2
1512364298975376,2,-2,-3,-4,-1,0,-2,0
1512364298975877,-3,2,3,5,0,-1,-4,-6
1512364298975877,-8,-3,1,0,-1,1,2,-1
1512364298989889,0,3,-4,-6,-4,-3,-1,0
1512364298989889,-4,0,-4,-4,-1,-2,-2,-7
1512364298991387,-13,-12,-3,-3,-2,0,2,6
1512364298991387,7,1,2,1,0,-2,-1,-7
1512364299004898,12,1,-2,0,2,-2,-1,-3
1512364299004898,-27,-6,-2,-3,0,0,2,-2
1512364299005898,9,4,0,-1,-1,-2,-1,0
1512364299005898,-1,-4,-4,-2,-2,-2,-6,-2
1512364299027425,-10,1,1,-3,0,-1,-1,-7
1512364299027425,12,-7,1,3,-3,-1,0,4
1512364299028923,-1,2,-9,-5,1,0,0,3
1512364299028923,9,3,0,0,-1,-1,-3,0
1512364299049938,1,2,-3,-2,0,1,1,-1
1512364299049938,-4,-1,-2,-2,1,0,1,4
1512364299050936,-12,-9,0,1,-2,-3,-6,-9
1512364299050936,-1,3,-1,-2,0,-2,-3,-2
1512364299064439,2,1,0,2,-1,0,3,1
1512364299064439,-1,-21,0,1,1,-1,-2,2
1512364299072444,-6,-13,-1,-2,-1,-2,-1,-1
1512364299072444,1,13,0,-2,0,0,4,1
1512364299087465,-11,-13,-2,-1,-2,-1,-4,-12
1512364299087465,-7,3,4,5,1,1,2,2
1512364299088455,23,2,2,-3,-1,-1,-3,0
1512364299088455,-11,4,-1,-4,-2,-2,-1,-2
1512364299117989,2,9,-1,-2,-3,-2,-3,0
1512364299117989,5,-15,2,-3,-2,0,-2,-3
1512364299118994,11,13,0,5,1,0,3,6
1512364299118994,-15,2,4,5,0,0,4,2
1512364299124497,-1,-4,-7,-6,-3,-1,-1,-4
1512364299124497,-2,-4,-4,-5,-3,-4,-3,-5
1512364299132496,5,13,4,2,0,2,2,3
1512364299132496,-13,7,7,4,1,3,1,-5
1512364299147507,-2,5,3,2,0,1,-1,0
1512364299147507,3,17,2,-1,0,1,18,11
1512364299147998,4,-4,-8,-4,-1,-1,5,0
1512364299147998,3,-15,-4,-2,-2,-1,-10,3
1512364299170014,-1,0,4,2,2,2,-2,2
1512364299170014,2,21,0,-4,-3,-3,-8,-4
1512364299171014,-12,-35,-4,2,0,-2,5,0
1512364299171014,4,5,-9,-1,-2,-1,3,-1
1512364299184524,-6,-18,2,-6,2,3,0,4
1512364299184524,6,7,2,-4,-3,-2,0,-1
1512364299192530,2,12,2,-1,1,-2,-2,0
1512364299192530,-19,-28,1,2,0,-1,-5,-5
1512364299207552,-13,-10,-1,-2,-2,-4,0,-4
1512364299207552,4,-8,-6,-1,5,3,5,-3
1512364299208058,-17,12,1,1,-2,-1,-5,-9
1512364299208058,22,4,-1,-1,0,-1,-12,6
1512364299230068,-2,-2,0,0,1,3,-1,3
1512364299230068,-11,0,-2,-4,-6,-6,-5,-10
1512364299230556,11,-13,-10,-4,-3,2,11,5
1512364299230556,-9,9,19,26,0,-1,3,-11
1512364299244066,-12,11,-9,-18,2,4,8,19
1512364299244066,14,7,-1,3,0,-2,-2,0
1512364299252584,-5,-23,0,-1,-5,-3,2,4
1512364299252584,23,40,13,-2,-1,3,5,15
1512364299267594,-2,-14,44,7,-4,-6,-9,-27
1512364299267594,-16,10,-24,-1,-1,2,-2,-6
1512364299268082,-3,-9,3,-9,-1,1,0,-19
1512364299268082,-6,12,-16,-10,-4,-6,-2,23
1512364299290117,7,-12,4,-3,-3,-2,4,-3
1512364299290117,1,-1,13,-4,-2,-3,-12,-4
1512364299290599,0,-2,-15,5,-1,0,-15,2
1512364299290599,-17,-16,-4,-8,0,-2,-4,-13
1512364299304109,14,10,2,5,0,0,-5,4
1512364299304109,10,7,-18,-3,-4,-2,2,6
1512364299320129,-16,-19,-8,1,1,2,-3,-4
1512364299320129,-2,13,-5,-5,-2,-1,2,-11
1512364299327124,7,-1,3,3,1,2,7,6
1512364299327124,-8,-24,-3,6,2,0,-3,-3
1512364299328126,-9,20,15,-6,-2,-2,-1,11
1512364299328126,25,-19,-13,-11,-3,1,11,-8
1512364299350150,0,25,1,13,2,-3,-14,-5
1512364299350150,-5,-28,11,-4,5,5,7,5
1512364299350641,-21,41,1,-4,-3,-4,-7,-12
1512364299350641,11,-37,-19,-2,-5,-2,-1,19
1512364299364163,-13,-61,-28,-15,-4,-3,3,-2
1512364299364163,10,22,13,1,-3,-1,-10,17
1512364299372656,-1,-3,27,7,0,-1,13,-26
1512364299372656,-6,-13,-34,-10,2,0,13,13
1512364299387667,1,20,7,9,-4,-2,-4,-15
1512364299387667,-8,5,-10,-15,-4,0,-4,7
1512364299388169,11,12,-5,1,0,2,-11,1
1512364299388169,-22,-38,0,4,-3,-4,17,5
1512364299410693,35,27,-1,9,5,5,1,-9
1512364299410693,-39,-43,30,6,1,-2,4,6
1512364299411184,-9,-7,-36,-8,-5,0,17,5
1512364299411184,26,34,17,0,-2,-5,-19,-13
1512364299433200,-35,-13,-11,1,5,-2,-15,0
1512364299433200,7,-1,-17,-1,-5,0,0,-11
1512364299434200,16,-10,0,-5,1,-2,5,30
1512364299434200,3,1,8,38,0,2,7,-15
1512364299447709,8,55,52,-15,-1,-3,-11,-5
1512364299447709,22,-20,-39,-5,3,3,-5,-10
1512364299448219,-43,-36,-24,-5,-8,-5,-20,1
1512364299448219,21,34,25,5,-1,-1,-1,-3
1512364299470741,-22,-6,14,51,-10,-9,-2,8
1512364299470741,25,-19,-8,-43,14,4,33,-7
1512364299471727,45,49,9,-14,2,4,14,44
1512364299471727,-18,-64,-41,-10,0,-2,-20,-34
1512364299493252,-45,-35,6,1,-6,0,2,0
1512364299493252,8,32,-13,17,-6,-2,-5,20
1512364299493743,-4,-15,32,7,-5,-9,-21,-62
1512364299493743,-19,41,29,-21,-1,2,31,24
1512364299507252,8,-51,-4,6,5,2,9,-9
1512364299507252,-14,42,-19,5,-18,-8,-28,-55
1512364299508253,19,45,60,-17,8,2,13,47
1512364299508253,-6,-3,-88,-31,-10,-6,-17,-43
1512364299530769,22,16,-15,-47,-14,-3,33,113
1512364299530769,27,2,34,39,-1,-9,-5,-43
1512364299531769,-28,1,36,25,-14,-7,4,-10
1512364299531769,-21,-56,11,1,17,1,-46,-33
1512364299553296,-27,40,-46,-24,1,4,-5,-8
1512364299553296,1,-27,35,-13,-4,-1,3,23
1512364299553785,4,-14,-48,-30,-10,-4,-14,8
1512364299553785,-9,19,37,9,2,6,19,78
1512364299567303,15,-9,-3,9,-1,-4,0,-67
1512364299567303,12,51,38,12,-4,-1,4,34
1512364299568295,-7,-72,-30,14,7,-3,-10,-107
1512364299568295,-23,26,55,11,3,6,-28,8
1512364299592812,-30,-29,-79,-15,-6,-2,1,-12
1512364299592812,13,31,37,3,5,-1,-12,-39
1512364299593312,55,11,10,4,7,6,0,70
1512364299593312,-21,17,44,30,6,2,-17,-30
1512364299613326,-23,21,12,-31,-6,-6,-7,-7
1512364299613326,-3,-59,10,10,9,4,10,32
1512364299613842,-9,5,-55,0,-17,-10,-6,-21
1512364299613842,11,-11,11,-11,-3,-8,6,-46
1512364299627337,22,-5,50,45,3,0,-4,7
1512364299627337,-10,-21,-65,-25,0,-1,-1,-43
1512364299628337,2,14,29,-35,9,7,14,22
1512364299628337,25,-7,-38,1,-12,-6,-10,-10
1512364299650853,27,22,39,22,8,7,11,25
1512364299650853,-4,-1,1,-19,-6,-4,-4,14
1512364299651354,-19,-25,-13,39,-6,-1,7,15
1512364299651354,-9,-57,-43,-33,-4,2,19,64
1512364299673368,-8,-27,33,1,5,-1,-21,-82
1512364299673368,2,80,-20,19,-5,0,2,96
1512364299673869,-60,-32,-84,-34,-4,-6,-11,-56
1512364299673869,22,24,54,5,0,3,3,8
1512364299687379,22,30,-5,-2,1,-3,-5,3
1512364299687379,-39,-21,6,50,-1,-1,19,16
1512364299688389,3,-14,-8,-54,11,1,-35,-19
1512364299688389,-8,-52,-67,-11,-9,-4,14,23
1512364299710395,11,22,-31,-5,-7,-6,-10,1
1512364299710395,-28,-51,-14,-35,-4,0,0,-17
1512364299711395,22,41,72,38,5,6,3,8
1512364299711395,51,-3,-49,7,6,-4,-14,-39
1512364299732922,-6,-19,-36,-17,-5,-4,12,59
1512364299732922,-16,-8,4,21,-1,-2,-6,-6
1512364299733912,11,-6,19,8,8,5,-3,0
1512364299733912,0,30,4,-28,-5,1,8,26
1512364299747421,15,7,4,26,-6,-4,2,-41
1512364299747421,3,9,-35,-41,2,8,35,41
1512364299748434,-7,-10,26,63,-1,-9,-39,-58
1512364299748434,-24,35,-8,-29,-4,-2,-6,-24
1512364299770438,10,-43,-71,-29,-6,0,-3,44
1512364299770438,26,16,77,22,2,-6,-37,-65
1512364299771438,-24,-35,-47,-3,-5,0,23,27
1512364299771438,-22,7,19,-3,-2,1,8,35
1512364299792966,-4,1,33,6,0,0,-13,-49
1512364299792966,10,-20,-49,-19,1,-2,4,13
1512364299793969,35,95,41,4,-8,-1,-20,8
1512364299793969,27,-42,-18,8,13,-1,15,3
1512364299807473,-6,57,43,-8,-4,-4,16,-1
1512364299807473,-23,-55,-3,-8,0,3,7,34
1512364299808467,0,43,26,45,-15,-12,-39,-38
1512364299808467,-1,3,13,-13,16,6,14,19
1512364299830479,11,64,-27,-11,6,1,-10,-33
1512364299830479,11,-37,10,12,4,0,-4,-13
1512364299831480,-20,-22,-70,-3,-16,-8,12,32
1512364299831480,46,14,5,45,-11,-9,-4,-39
1512364299852995,-28,-13,63,-64,21,6,-20,13
1512364299852995,45,70,-50,-13,-4,-1,-12,-70
1512364299854006,0,-55,19,-5,12,8,29,0
1512364299854006,-3,17,35,52,-8,-5,-45,-62
1512364299867507,8,-20,-13,21,-11,-3,30,33
1512364299867507,7,55,77,52,32,13,-16,-1
1512364299868007,-45,-49,-61,-100,-6,2,3,-8
1512364299868007,-31,3,48,21,-7,-3,12,-10
1512364299890522,-11,12,-67,-4,-12,-3,-4,19
1512364299890522,-89,-62,26,10,-8,-3,-1,27
1512364299891524,19,61,-23,14,5,-2,23,40
1512364299891524,-18,12,-17,-23,-5,-3,0,24
1512364299913047,23,-28,-7,13,-4,-3,-24,-75
1512364299913047,16,-17,12,2,-4,-9,2,26
1512364299914038,1,10,17,-13,7,4,5,-9
1512364299914038,7,22,-39,-22,-6,-2,5,49
1512364299927548,-43,-40,21,20,8,0,9,12
1512364299927548,12,19,-15,22,-5,0,0,31
1512364299928058,24,19,-58,-62,-7,-2,14,-11
1512364299928058,-12,18,64,46,9,3,-13,-44
1512364299951064,19,-33,13,-27,4,-1,4,25
1512364299951064,-36,1,-17,-48,-4,0,6,24
1512364299952065,3,-31,42,53,9,9,-13,-7
1512364299952065,-7,6,2,-26,-9,-6,21,38
1512364299973080,1,23,0,32,0,-1,-5,-11
1512364299973080,-21,-5,22,-6,-3,-3,-4,6
1512364299974081,14,20,-5,19,7,4,15,5
1512364299974081,7,-57,-37,-34,-4,-1,25,27
1512364299995597,-3,7,56,40,-6,-7,-66,-6
1512364299995597,-13,-2,-81,-19,4,-5,-2,-73
1512364299996597,6,-4,43,-18,-1,2,11,24
1512364299996597,21,6,-31,4,6,5,-12,33
1512364300010675,-16,-52,-15,-12,-12,-10,26,-73
1512364300010675,71,12,14,18,-5,-3,-28,4
1512364300011177,-46,69,14,4,2,-3,-5,-6
1512364300011177,-21,-84,-18,-39,-9,-2,3,-13
1512364300033204,11,-24,-2,10,-1,2,29,40
1512364300033204,1,9,-24,-22,-5,-6,-25,-28
1512364300034203,33,6,22,28,3,1,16,22
1512364300034203,-46,27,-22,-2,-16,-9,-14,-18
1512364300046701,17,20,10,-15,8,4,5,10
1512364300046701,57,-1,-4,-28,2,1,2,24
1512364300055208,-8,-76,20,13,-13,-11,-18,4
1512364300055208,30,106,26,21,8,1,-3,-12
1512364300070730,-54,-61,-57,-37,-8,-3,4,18
1512364300070730,-9,28,-5,19,-4,-5,-2,-14
1512364300071223,-12,-5,24,-16,0,-5,-3,38
1512364300071223,33,-20,-6,-18,-3,0,6,-29
1512364300101255,-15,33,24,13,2,-3,-4,-35
1512364300101255,-5,7,15,-1,-5,0,17,15
1512364300102744,1,-56,-35,-10,-3,-4,-34,-29
1512364300102744,-6,25,33,28,8,4,13,-5
1512364300106744,25,61,22,16,7,6,-2,55
1512364300106744,-45,-3,7,-26,-8,-2,-9,-20
1512364300114749,15,-50,-3,9,-1,-4,-2,-20
1512364300114749,10,10,25,12,5,5,6,35
1512364300130771,-6,-45,-46,-21,-7,-4,4,15
1512364300130771,-22,-14,-29,-1,-6,-3,15,24
1512364300132271,18,-4,-26,-14,2,0,-32,-13
1512364300132271,-12,-7,44,9,-2,-5,-12,-40
1512364300152777,36,-6,-75,-13,-3,-2,-9,28
1512364300152777,-19,-1,42,25,-3,-5,-6,-32
1512364300153779,-25,-5,-13,-5,0,3,5,56
1512364300153779,10,-46,-36,-3,4,0,10,-7
1512364300166789,28,31,30,0,-6,-3,-15,3
1512364300166789,-15,4,-1,7,8,2,3,14
1512364300174804,14,34,37,3,1,2,19,-3
1512364300174804,-30,3,-87,26,-8,-8,-11,-3
1512364300190817,11,14,-2,-56,3,4,27,22
1512364300190817,-21,-47,-10,-1,7,2,-16,-55
1512364300191304,-22,48,-47,19,-10,-4,20,-6
1512364300191304,8,-19,24,3,-1,-4,-12,-5
1512364300213335,17,5,-9,-27,-7,-2,-11,-39
1512364300213335,-21,-35,17,4,-3,0,14,29
1512364300213819,55,7,24,-12,-1,-2,-9,-51
1512364300213819,-8,-31,-15,-12,-5,-3,-2,9
1512364300226829,-19,28,1,28,3,-3,-7,-5
1512364300226829,10,-18,-3,-13,-2,-1,12,62
1512364300234851,-19,-25,-16,0,1,-1,-2,-54
1512364300234851,-14,24,14,-20,-6,-4,-2,-2
1512364300250858,-13,-9,-8,26,2,-2,2,6
1512364300250858,43,34,9,-27,-6,-1,-29,-48
1512364300251345,-28,6,-1,19,-3,-3,10,54
1512364300251345,-3,14,12,-22,1,-3,4,-41
1512364300272362,-10,2,29,13,4,5,9,18
1512364300272362,-17,-23,-46,4,-10,-8,-7,-49
1512364300279867,20,22,27,-1,3,2,15,6
1512364300279867,3,-52,29,3,1,6,-7,5
1512364300286872,27,41,-10,7,-1,0,29,65
1512364300286872,12,-17,22,32,-5,-6,-6,-15
1512364300295379,-49,2,-9,-52,-2,-2,-9,-5
1512364300295379,60,30,-4,-5,0,2,1,7
1512364300310389,-4,-37,-31,11,-1,-2,-4,-1
1512364300310389,-14,18,10,-12,-3,-3,-2,17
1512364300311391,-32,-25,7,24,-5,-4,0,-19
1512364300311391,-25,8,30,8,2,-1,-13,8
1512364300332904,-17,-24,12,28,-4,1,-8,-29
1512364300332904,32,32,-26,-63,-3,-1,33,53
1512364300333905,9,13,1,-12,-19,-10,-20,-1
1512364300333905,-32,3,6,10,16,3,-3,4
1512364300355419,-15,19,35,32,-2,1,-5,-33
1512364300355419,-38,-64,-13,-8,6,6,8,29
1512364300356420,-15,-1,-30,-1,3,-1,12,38
1512364300356420,-16,1,-47,-24,-14,-7,-2,-50
1512364300370930,1,19,-8,-3,-2,1,1,0
1512364300370930,11,25,23,27,5,0,-26,-23
1512364300371431,0,-56,5,1,2,2,1,7
1512364300371431,-24,-17,-4,-5,-4,-4,-2,-34
1512364300392954,-14,-11,-5,-25,-1,0,-5,7
1512364300392954,25,44,-7,3,0,0,4,-18
1512364300394948,52,7,25,17,0,1,-4,-38
1512364300394948,-45,-39,1,1,4,1,5,26
1512364300415474,-16,1,29,-2,6,0,-1,3
1512364300415474,6,-32,8,-5,-3,2,6,-10
1512364300417463,-12,3,-34,-3,2,1,-19,-51
1512364300417463,18,67,19,6,-1,1,2,38
1512364300429481,-17,-34,-38,-6,1,-2,3,-28
1512364300429481,5,33,43,29,-2,0,-4,-9
1512364300437979,6,1,2,-4,3,2,12,42
1512364300437979,30,8,-5,-2,-6,-1,-13,-62
1512364300452997,-34,-29,-24,-24,-9,-6,-8,2
1512364300452997,16,-9,-32,-6,-5,-3,4,6
1512364300454490,19,34,44,30,-2,-3,-2,9
1512364300454490,19,7,-52,-44,2,2,16,58
1512364300475514,-7,-21,5,5,-2,-1,-15,-30
1512364300475514,5,72,9,35,-15,-10,-6,-3
1512364300477005,9,-5,-14,-49,12,4,5,21
1512364300477005,-17,23,34,32,-5,-4,-4,10
1512364300489024,61,-8,-6,-20,0,-1,-6,-39
1512364300489024,-23,-24,-28,-12,-1,2,6,5
1512364300499021,4,42,75,36,7,2,10,-4
1512364300499021,0,-51,-50,-9,-12,-6,-5,-5
1512364300513031,3,-5,7,4,11,4,2,10
1512364300513031,19,13,11,3,-1,-2,8,48
1512364300514532,-31,-22,-13,0,-3,-4,-20,-79
1512364300514532,-1,-13,-7,5,3,0,-1,-10
1512364300535546,0,19,7,-7,-11,-5,-11,19
1512364300535546,-6,-14,-21,-3,7,1,-3,-31
1512364300537048,20,19,-1,-4,-1,1,8,22
1512364300537048,-31,-31,-20,-13,-4,-4,-5,5
1512364300550057,12,28,31,15,2,0,14,19
1512364300550057,11,-6,6,-13,-4,-2,-22,-31
1512364300556561,-14,-51,-82,1,-3,-3,3,16
1512364300556561,4,47,16,-4,1,0,13,-23
1512364300573073,12,22,21,10,-1,2,8,29
1512364300573073,-12,-8,-1,-17,3,-1,9,4
1512364300574574,-10,27,3,0,-7,-5,-9,14
1512364300574574,17,-19,-2,-5,2,0,2,14
1512364300595588,-21,-19,-4,6,-6,-2,0,11
1512364300595588,-19,-11,0,-8,5,-4,-18,-33
1512364300597090,54,30,-12,-16,-6,-1,18,46
1512364300597090,-38,-35,17,-5,-8,-3,-22,-16
1512364300610109,14,56,4,-8,7,0,-13,-6
1512364300610109,-41,-59,-30,6,-5,-3,-2,1
1512364300616613,8,-4,34,9,1,0,-1,-14
1512364300616613,15,31,-34,-6,1,4,11,45
1512364300633125,-7,-76,17,13,-7,-8,-14,-51
1512364300633125,-40,-11,-7,-13,1,4,6,17
1512364300634617,-18,-17,4,1,4,2,-9,6
1512364300634617,39,14,31,10,0,2,2,-49
1512364300655643,-9,24,-39,-22,-5,1,7,-7
1512364300655643,10,10,-12,0,4,2,9,13
1512364300657132,-1,-42,27,33,2,0,-4,-12
1512364300657132,6,-5,-37,-24,-8,-6,5,59
1512364300670154,-22,-3,5,-12,0,-1,5,-20
1512364300670154,11,-3,7,-11,-3,1,-18,-18
1512364300677147,-2,21,19,-3,-5,-5,1,1
1512364300677147,-20,-4,-3,7,20,7,8,18
1512364300693168,-8,-10,-11,5,-5,1,-6,13
1512364300693168,12,5,15,4,-4,-3,10,33
1512364300694664,14,-47,-5,-1,-2,-2,-10,-29
1512364300694664,4,28,30,18,5,1,-1,-3
1512364300715684,4,-11,-16,-10,-4,-3,6,11
1512364300715684,2,9,14,3,-6,-3,-1,-2
1512364300717185,-21,24,-31,-18,-3,0,0,6
1512364300717185,16,-32,7,6,-2,-2,2,-3
1512364300730195,10,11,-12,-14,3,1,12,4
1512364300730195,-16,3,13,-1,-6,-5,8,21
1512364300736698,-14,18,0,-1,0,-3,-6,-4
1512364300736698,-2,-28,3,-7,-3,-2,-8,-13
1512364300753201,-8,17,-18,24,1,1,-13,4
1512364300753201,-1,8,7,-2,2,2,10,-9
1512364300755702,-17,-78,-41,-7,-1,-3,-9,-12
1512364300755702,2,18,-9,-19,-5,-2,3,-12
1512364300775716,5,10,19,-9,1,0,1,21
1512364300775716,12,-4,-1,8,3,1,6,5
1512364300777227,-2,-34,-23,-9,-6,-2,17,34
1512364300777227,-4,-27,12,21,1,3,-4,-13
1512364300790226,-7,-2,1,-6,-7,-6,-2,-16
1512364300790226,-10,-6,-3,-6,5,3,-9,-15
1512364300804247,-16,12,17,-2,-3,0,2,16
1512364300804247,-36,-46,-41,5,-5,-4,-2,-12
1512364300820758,41,10,20,-8,2,-1,6,16
1512364300820758,-5,-8,-31,15,-2,-2,-8,-17
1512364300822249,0,20,-20,-15,-3,-4,-2,-7
1512364300822249,-13,-6,13,-7,-3,-1,1,23
1512364300835770,-12,10,-1,3,-1,-1,10,0
1512364300835770,1,-16,2,5,-3,-1,-3,-10
1512364300837270,-2,22,14,10,3,1,-4,-12
1512364300837270,15,3,5,-15,-2,0,-5,-1
1512364300849280,-23,-71,-4,-4,-4,-2,-2,-11
1512364300849280,13,21,30,4,1,1,3,12
1512364300858284,0,7,-1,4,-2,-2,-2,-18
1512364300858284,28,10,-7,1,2,1,-1,2
1512364300873294,-57,-39,-15,-1,0,-4,-8,4
1512364300873294,34,45,12,2,-3,-1,-6,-13
1512364300874796,-18,-19,3,10,-4,-3,-8,-6
1512364300874796,-24,17,0,-15,-6,-5,3,-4
1512364300895802,9,21,-6,-2,5,2,-19,-1
1512364300895802,12,-35,19,4,1,1,4,8
1512364300897307,-14,21,-16,-7,-6,-8,-20,-13
1512364300897307,38,7,6,-1,1,1,4,8
1512364300909311,-10,18,-24,3,-2,1,3,-5
1512364300909311,-11,-42,-13,-3,-1,0,-3,2
1512364300918329,5,11,-7,-11,-2,-3,1,-5
1512364300918329,-9,10,5,-3,-4,-1,0,9
1512364300933339,38,-7,10,10,1,-3,0,-3
1512364300933339,-12,29,3,-4,-4,-2,-13,-12
1512364300934844,50,32,21,-2,8,6,10,13
1512364300934844,-14,-51,-4,-9,-5,-1,-15,-9
1512364300955866,15,32,13,17,-2,-4,6,-13
1512364300955866,-16,-26,-23,-39,-10,-4,19,24
1512364300957356,8,22,22,5,0,-2,-15,-53
1512364300957356,10,25,9,10,-1,-3,-11,-13
1512364300969353,-13,-28,-7,5,1,0,6,5
1512364300969353,-3,19,-5,-12,2,-1,-9,1
1512364300978360,15,-7,19,3,0,1,10,7
1512364300978360,12,-4,3,17,-2,-4,0,2
1512364300992881,-8,-14,11,-7,1,3,1,-3
1512364300992881,3,13,-18,3,2,-2,-5,-12
1512364300994883,-17,12,-9,-8,-1,-1,10,23
1512364300994883,15,4,4,5,1,-1,-11,-14
1512364301015397,2,25,4,-12,-4,-1,9,35
1512364301015397,18,-22,-28,5,0,0,-9,-8
1512364301017399,-13,-12,-9,-7,-2,1,0,11
1512364301017399,-10,52,26,13,-1,-4,5,-8
1512364301029405,-26,-17,-8,24,-1,-2,-5,-1
1512364301029405,8,-28,6,-37,-2,-1,-3,1
1512364301038912,-30,18,-10,-3,-2,0,3,-2
1512364301038912,-8,-64,-12,5,3,1,2,10
1512364301053412,18,0,4,-5,0,0,0,-17
1512364301053412,-11,49,11,20,-3,-2,0,-4
1512364301054925,22,-29,-8,2,3,3,0,0
1512364301054925,-10,11,0,-8,-1,1,-1,4
1512364301075427,6,6,1,-7,2,1,-1,1
1512364301075427,-26,10,13,12,-2,-3,-8,-11
1512364301077431,35,-24,8,0,0,0,6,7
1512364301077431,-26,4,-11,1,-2,-3,3,2
1512364301089450,5,-15,5,-10,-4,-4,-19,-11
1512364301089450,-19,11,-8,1,-2,-2,7,-9
1512364301098455,-7,3,-12,-6,-2,-2,2,30
1512364301098455,-24,-25,-4,-5,-2,-3,0,-37
1512364301112954,25,24,13,-3,0,0,-3,13
1512364301112954,-3,-17,-8,26,-4,-2,-3,-9
1512364301114956,-27,-13,6,-13,7,0,-3,4
1512364301114956,13,-17,-8,-15,0,3,2,3
1512364301135470,4,41,-14,-6,-7,-3,-5,-4
1512364301135470,0,-60,8,6,-1,0,-2,10
1512364301137972,-2,-1,-6,-9,-6,-4,5,-13
1512364301137972,16,4,16,14,2,0,-6,8
1512364301148979,-20,27,12,-9,0,1,3,18
1512364301148979,-15,-2,0,-5,-6,-5,-10,-11
1512364301165491,2,-1,1,14,1,2,13,8
1512364301165491,10,38,-12,-24,1,1,-13,-8
1512364301172997,-19,-14,-6,-4,-6,-6,18,6
1512364301172997,19,8,9,1,1,1,3,4
1512364301174517,-7,13,23,5,-8,-3,0,-1
1512364301174517,-5,-4,11,9,-2,-2,-5,-3
1512364301195545,17,-20,-39,-14,1,3,-8,-12
1512364301195545,13,28,14,-2,1,0,4,-3
1512364301197020,3,9,-11,-3,-1,1,-8,-13
1512364301197020,-3,4,13,1,-5,-4,16,38
1512364301209032,28,29,8,23,1,-4,-27,-28
1512364301209032,-21,-59,-44,-32,-3,-1,0,3
1512364301218028,20,4,13,3,0,3,-6,-8
1512364301218028,-13,47,-4,15,1,2,-13,-6
1512364301233039,8,-36,3,-18,-4,-2,-4,3
1512364301233039,-24,-10,16,12,3,0,-10,-17
1512364301234540,-31,-72,-35,-4,-2,-4,2,4
1512364301234540,8,13,15,2,-1,0,5,7
1512364301255564,8,-8,-5,4,3,1,2,-13
1512364301255564,17,20,-9,-10,-5,-2,5,26
1512364301257065,-32,-5,10,11,5,2,-5,-32
1512364301257065,2,29,8,-14,0,0,7,0
1512364301269065,-12,1,0,-5,-3,-1,8,10
1512364301269065,6,3,-6,3,-1,0,-5,0
1512364301278071,13,11,-5,5,-2,0,-5,6
1512364301278071,-3,-21,-19,-5,-4,-5,-2,-9
1512364301293091,-31,1,15,-6,1,5,14,2
1512364301293091,39,36,1,-3,-2,-2,3,0
1512364301294583,-11,-13,-6,-2,0,-1,-1,3
1512364301294583,-16,-35,-11,15,0,1,5,6
1512364301315609,-7,-7,-7,-13,-3,-2,-7,-3
1512364301315609,5,-12,9,8,6,1,1,-3
1512364301317099,-8,-1,-4,7,0,-1,-2,-2
1512364301317099,21,20,-9,-13,-7,-4,-5,9
1512364301338125,-15,29,-4,2,-3,-4,-3,-38
1512364301338125,0,-23,-5,2,0,-1,1,-3
1512364301339615,14,0,-4,-13,-1,1,9,11
1512364301339615,-19,3,13,-3,0,-1,-3,-9
1512364301353124,19,-26,-15,2,4,2,13,5
1512364301353124,-1,40,-1,-6,-4,-4,-7,10
1512364301354625,9,-20,-10,-2,-4,-4,-9,-16
1512364301354625,-31,-1,21,22,-5,-8,-16,-21
1512364301375654,-1,-17,-12,-22,7,7,2,14
1512364301375654,-5,-5,-7,0,-6,-4,-7,-4
1512364301377140,10,-31,-28,-20,-6,-2,-15,23
1512364301377140,13,7,0,-3,2,5,29,75
1512364301398165,-8,-9,6,9,-5,-12,-1,-80
1512364301398165,-2,10,10,24,4,-1,11,-24
1512364301399667,2,58,25,-2,6,4,5,7
1512364301399667,9,-46,-34,-9,-5,-4,-28,-25
1512364301413667,-6,-20,-8,-7,-6,0,18,44
1512364301413667,-3,-19,-11,-16,-1,1,-12,-29
1512364301415168,-5,13,36,19,2,-3,-3,-18
1512364301415168,-1,-17,-57,-9,-1,-3,18,11
1512364301435692,-15,-17,10,9,2,1,-15,7
1512364301435692,-13,8,0,-2,0,1,15,25
1512364301437193,23,-25,13,27,1,0,-13,-11
1512364301437193,1,15,11,-29,-1,2,-1,-16
1512364301458211,25,36,-8,1,-2,0,-1,7
1512364301458211,-31,-30,11,4,1,0,-20,-1
1512364301459699,-25,27,-13,-11,-6,-5,4,12
1512364301459699,-5,-6,16,13,1,-2,-6,-19
1512364301472716,5,11,15,5,-1,0,-7,6
1512364301472716,0,27,-9,-5,-1,1,7,5
1512364301479213,7,-13,-36,2,-2,-3,1,8
1512364301479213,5,5,10,-18,-2,-3,-11,-26
1512364301495724,-16,-20,-22,0,-1,-1,-1,14
1512364301495724,39,8,13,1,-2,2,8,3
1512364301497225,-16,14,2,6,-5,-4,28,10
1512364301497225,40,5,-5,-8,-2,-3,-27,-29
1512364301518240,-19,-21,4,6,0,-1,-3,-3
1512364301518240,23,-35,-8,-4,0,-2,3,12
1512364301519741,5,31,18,0,-2,-2,-3,-27
1512364301519741,-12,23,-4,3,0,2,-7,-3
1512364301532250,0,-4,15,6,-1,-1,-1,1
1512364301532250,-9,-28,-20,-14,-6,-3,-20,-12
1512364301539255,-5,-6,12,15,4,1,13,19
1512364301539255,-8,-10,-8,-8,-1,1,3,4
1512364301555766,8,-2,6,-3,-3,-1,-12,-3
1512364301555766,-10,21,3,8,-1,0,6,13
1512364301557267,26,-18,-28,-30,-4,1,-3,25
1512364301557267,-39,18,24,9,-2,-4,-1,-30
1512364301578300,-4,-2,-5,-10,-1,-2,-10,-5
1512364301578300,2,17,1,8,1,-1,4,-1
1512364301584300,-25,-27,6,-9,-1,0,2,6
1512364301584300,41,-3,-4,9,0,0,-4,1
1512364301592292,-3,2,6,-1,0,2,10,14
1512364301592292,-37,10,13,1,-1,-5,-16,-24
1512364301599310,4,17,-12,-4,-1,-3,-2,-9
1512364301599310,-12,-24,1,0,-2,-1,11,25
1512364301615810,-7,-79,-36,5,-2,-4,-13,-19
1512364301615810,2,26,15,-6,-1,-4,1,-11
1512364301617322,11,7,-16,-12,-5,-1,-3,-4
1512364301617322,-6,-15,2,6,1,-1,5,4
1512364301638335,-5,32,1,-8,-3,-3,0,-3
1512364301638335,21,-18,-24,-2,-1,0,8,3
1512364301639836,-17,1,10,5,-1,-2,-9,-7
1512364301639836,23,9,16,5,1,1,26,32
1512364301652336,13,16,-11,-4,2,-2,-30,-39
1512364301652336,-26,-6,0,-1,0,1,13,10
1512364301659350,-3,23,7,-2,-2,-2,-5,0
1512364301659350,10,34,-3,7,-1,0,-4,-3
1512364301675852,-8,-43,-1,-13,-3,-1,8,13
1512364301675852,21,2,2,12,-1,-1,3,0
1512364301677362,-22,-38,-14,-24,-4,0,-5,-3
1512364301677362,-4,10,8,8,1,-2,-1,-2
1512364301698367,8,31,10,5,0,2,-3,9
1512364301698367,-9,2,-1,-8,-6,-4,2,2
1512364301699879,14,-3,2,-1,-2,-3,-6,-2
1512364301699879,-16,-4,-5,4,1,-1,-1,-24
1512364301712877,5,20,36,8,-2,-1,2,3
1512364301712877,-8,-25,-37,-29,-3,1,11,19
1512364301719393,12,1,-13,-2,-6,-5,-7,-20
1512364301719393,-13,-10,1,-6,-1,-2,-4,24
1512364301735894,-10,6,10,10,-1,-2,5,-14
1512364301735894,-3,15,9,6,3,0,-13,-3
1512364301737895,0,11,6,-2,-1,1,11,16
1512364301737895,-19,-8,-6,-5,0,-2,-47,-43
1512364301757924,10,13,-14,6,-7,-5,-2,1
1512364301757924,-3,-12,4,-7,3,3,-1,-7
1512364301759926,2,-3,-1,-7,3,2,2,2
1512364301759926,-13,-7,-2,-1,-2,0,11,17
1512364301772430,-12,2,0,7,1,-1,0,1
1512364301772430,6,58,0,2,-1,-1,-9,-15
1512364301786930,16,-15,-19,0,-1,0,1,0
1512364301786930,29,-15,-5,-3,-2,-1,36,23
1512364301795939,-33,-12,-1,-5,-2,-7,-64,-51
1512364301795939,-6,-7,5,3,-1,-2,11,3
1512364301797437,-14,-25,15,8,3,-1,-12,-13
1512364301797437,15,2,-19,-10,-4,-1,-6,12
1512364301817964,-1,21,0,3,3,3,20,-14
1512364301817964,-2,-11,-4,-1,-2,1,-4,-3
1512364301819454,-30,-21,7,8,-1,-2,-4,-2
1512364301819454,2,9,2,-13,-1,-2,-14,-46
1512364301831961,8,11,2,1,0,3,25,34
1512364301831961,-14,6,8,0,2,-1,6,-7
1512364301840468,-2,-3,-5,0,-1,0,20,14
1512364301840468,14,27,2,6,-2,-3,-25,-21
1512364301855488,-2,-45,-16,-9,-2,0,15,12
1512364301855488,8,-27,3,5,1,-2,-11,-6
1512364301856989,19,30,4,3,2,0,0,10
1512364301856989,-9,1,13,1,1,0,5,12
1512364301877995,1,-3,6,3,-1,-2,7,-9
1512364301877995,2,6,-27,-7,-3,1,-7,-2
1512364301879498,1,-9,6,9,0,-2,4,-8
1512364301879498,-24,-21,-13,-4,1,2,7,-1
1512364301891504,9,5,4,-3,-2,-2,-6,11
1512364301891504,-6,-2,10,7,1,-1,19,19
1512364301900511,6,32,-17,-21,-3,-2,-34,-37
1512364301900511,-12,3,4,10,1,0,8,15
1512364301915533,18,-52,-8,-11,-7,-7,2,7
1512364301915533,12,-37,-7,9,3,-1,-13,-9
1512364301917039,-19,-1,25,-1,-6,-3,-4,2
1512364301917039,8,-24,-10,-9,3,4,2,9
1512364301938051,0,21,2,7,7,1,0,19
1512364301938051,4,-11,6,2,-4,-6,-21,-36
1512364301939538,-26,-6,-4,7,0,-1,-4,-10
1512364301939538,-12,2,1,-6,-6,-4,0,-2
1512364301951547,-14,11,0,-1,1,0,7,6
1512364301951547,6,8,-3,3,1,0,-4,5
1512364301960552,12,-7,-2,-1,-1,-2,16,17
1512364301960552,-7,5,3,7,0,-1,-18,-29
1512364301975563,-12,-5,-17,-25,-4,-2,2,-3
1512364301975563,-1,10,-1,-6,-2,-2,24,16
1512364301977065,16,33,16,8,-1,-1,-8,-6
1512364301977065,-2,-38,-30,0,0,-3,7,18
1512364301998079,18,21,5,10,1,1,-5,6
1512364301998079,2,24,19,-10,-1,0,-2,-3
1512364302000602,-3,11,-4,-5,-1,2,18,6
1512364302000602,-9,-2,7,7,1,-1,6,4
1512364302011605,3,10,3,2,-1,-1,-1,-5
1512364302011605,-2,12,-1,-14,-3,0,-1,8
1512364302020595,5,-11,-19,4,1,-1,-4,-2
1512364302020595,5,17,15,-5,-1,0,-1,-4
1512364302035616,-15,-13,6,1,-2,-2,13,5
1512364302035616,-7,-27,-3,0,-2,-2,-31,-30
1512364302038107,-8,-28,1,3,1,0,-5,-6
1512364302038107,11,26,5,-6,-6,-2,2,9
1512364302058121,10,7,-16,-17,-5,-4,-3,-3
1512364302058121,-13,-1,-2,12,1,-3,-2,3
1512364302059622,0,-33,-14,-1,-2,0,-1,-2
1512364302059622,12,24,14,-12,1,-1,-2,1
1512364302071643,-11,-45,-18,0,-1,1,-4,2
1512364302071643,-4,-1,4,0,-2,-2,0,4
1512364302080638,18,14,-1,-3,-1,-1,7,7
1512364302080638,0,2,-9,1,-6,-2,-7,-2
1512364302095659,-4,-25,-5,1,0,-1,-8,-6
1512364302095659,-5,14,9,-2,-3,-2,-8,2
1512364302097159,0,13,17,15,2,-1,0,-5
1512364302097159,10,-34,-26,-28,-4,-2,12,12
1512364302118164,0,16,-17,-4,-4,-5,-18,-13
1512364302118164,6,-16,-13,0,0,0,4,-3
1512364302119677,12,16,25,3,1,-1,-3,8
1512364302119677,-16,-17,-13,9,0,0,0,2
1512364302156706,-13,18,-11,-5,-5,-3,3,-5
1512364302156706,2,-5,4,0,2,1,6,6
1512364302158707,4,10,-21,-13,-6,-3,5,1
1512364302158707,-1,-8,12,10,0,-4,-32,-33
1512364302159207,-10,3,7,-4,2,3,9,24
1512364302159207,-3,4,3,0,-3,0,-3,-22
1512364302163196,-8,-1,-12,-5,-2,-1,-1,-1
1512364302163196,-5,-6,5,-8,1,0,2,6
1512364302178207,16,26,9,14,0,-1,8,2
1512364302178207,-2,-33,-1,5,0,-1,7,10
1512364302179708,-27,6,1,-3,-4,-2,5,9
1512364302179708,16,-14,-10,-8,-4,-2,3,-7
1512364302191728,11,22,23,8,1,0,2,9
1512364302191728,-2,2,7,-14,-1,0,4,-6
1512364302200732,-8,6,-14,5,-2,-2,3,-2
1512364302200732,-5,-32,-5,-14,-4,1,3,4
1512364302215732,-7,-9,6,2,0,1,-8,2
1512364302215732,-13,-15,-22,2,-3,-4,-5,-18
1512364302217246,5,2,8,-7,2,-1,-8,-8
1512364302217246,8,20,29,13,5,2,3,6
1512364302238249,-20,-42,-44,-14,-4,-3,-1,-14
1512364302238249,18,49,16,4,1,0,8,15
1512364302244269,-20,-43,6,-5,-3,0,29,4
1512364302244269,-6,10,-11,8,1,-1,-4,-9
1512364302260765,12,-13,6,3,-3,-3,1,-8
1512364302260765,-4,13,-8,-18,-1,-1,1,17
1512364302262265,-7,-8,0,-4,-1,2,-16,-4
1512364302262265,22,-22,-10,4,0,-1,12,5
1512364302275284,-9,35,13,6,-1,-2,10,-6
1512364302275284,-6,-8,-6,1,-3,-1,-2,0
1512364302277280,2,-3,10,-2,1,0,-15,-13
1512364302277280,-6,25,-4,5,1,4,-7,-9
1512364302298791,16,-27,-8,-2,-3,0,68,39
1512364302298791,-6,6,-4,1,2,-1,-30,-20
1512364302304295,0,-1,5,2,-2,-5,-23,-6
1512364302304295,-10,2,0,2,-2,-1,0,-4
1512364302320809,6,25,12,-3,-2,-3,-14,1
1512364302320809,2,-9,-13,7,-1,2,28,26
1512364302322320,3,10,-5,-1,-2,-1,-9,-19
1512364302322320,-7,-11,2,-3,1,0,-13,-5
1512364302335827,-1,25,9,6,3,2,-19,-12
1512364302335827,-2,-18,5,-4,-4,-3,-1,37
1512364302337329,-1,-2,-13,4,-2,-3,-20,-50
1512364302337329,-14,-35,3,10,3,2,16,16
1512364302358338,9,21,7,-27,-7,-3,-16,-24
1512364302358338,13,13,-15,3,0,-1,-10,7
1512364302359844,6,8,4,-3,-1,0,14,21
1512364302359844,-9,-25,-8,5,0,-2,-2,-7
1512364302380850,2,-25,19,-12,-1,1,4,13
1512364302380850,-28,-6,-27,-4,-3,-2,-4,-8
1512364302382361,21,-17,-8,-15,-4,-2,-19,-2
1512364302382361,-19,36,2,6,-3,-8,17,-11
1512364302395899,-7,-41,-5,4,1,-1,-22,-15
1512364302395899,12,24,10,-4,-2,0,6,-7
1512364302397401,-11,-9,-2,3,0,0,2,8
1512364302397401,16,9,9,0,-3,-2,12,23
1512364302417923,11,-14,-22,-15,-4,-4,-45,-27
1512364302417923,-5,-3,-7,-3,-2,-3,9,-9
1512364302419916,1,-15,0,6,1,-1,3,40
1512364302419916,2,19,4,3,3,2,-15,-33
1512364302440429,3,-10,3,-4,-3,0,0,0
1512364302440429,2,-8,-5,-3,-3,-1,-2,-10
1512364302442431,-7,11,-9,0,2,1,4,6
1512364302442431,-8,17,9,1,1,-2,-34,-16
1512364302454940,9,-31,-30,13,1,0,10,3
1512364302454940,-1,25,12,-14,-2,-1,-14,-11
1512364302461949,2,-5,18,0,-3,-2,13,7
1512364302461949,-1,-21,-26,-3,-4,-3,7,12
1512364302477958,-11,36,14,-16,-2,-1,-3,-6
1512364302477958,-3,-28,-3,4,-2,-1,-5,4
1512364302484464,-1,0,-2,-1,1,-2,16,11
1512364302484464,-5,30,15,1,-1,-3,3,24
1512364302500472,-16,5,-10,7,-1,-2,-9,-8
1512364302500472,14,-9,9,2,2,2,6,-4
1512364302501973,-2,9,8,7,1,2,2,-7
1512364302501973,-7,10,-5,-2,-2,1,-13,11
1512364302514982,5,14,-20,-15,-6,-5,-21,-15
1512364302514982,10,-24,8,-3,-3,-4,0,-32
1512364302521499,-18,2,-15,-1,-2,-1,-10,1
1512364302521499,10,10,18,11,1,2,5,-1
1512364302538008,-11,0,10,12,2,0,22,3
1512364302538008,16,4,-4,-10,-1,2,-2,3
1512364302539509,2,-2,0,-4,-6,-5,-7,-18
1512364302539509,7,-10,-11,-14,-3,-1,8,-6
1512364302561014,9,-11,11,15,2,-4,-10,8
1512364302561014,-30,-6,9,7,1,-2,-3,9
1512364302562515,-5,8,-4,-11,0,0,-6,-7
1512364302562515,2,-16,-15,-11,-5,-1,21,18
1512364302575035,-10,6,4,16,1,-4,-29,-42
1512364302575035,-4,-10,-9,-13,-3,-1,-5,5
1512364302581538,3,3,7,8,0,-1,-2,22
1512364302581538,-16,10,-40,-36,-7,-4,-10,-61
1512364302598050,-3,-6,2,5,3,0,27,10
1512364302598050,5,11,5,7,-2,-1,5,-2
1512364302599542,1,11,-2,-6,-1,0,-5,-22
1512364302599542,-1,-14,1,-3,-1,0,9,24
1512364302620570,0,13,2,3,1,1,10,14
1512364302620570,-1,-5,1,1,0,-2,-12,-11
1512364302622058,-3,5,-6,-1,-4,-1,5,5
1512364302622058,24,-7,17,15,2,-2,-12,2
1512364302635081,-19,8,-30,-27,-8,-3,8,24
1512364302635081,-9,-13,7,14,2,-1,-33,-13
1512364302641571,13,-7,-6,-4,0,-3,-5,-7
1512364302641571,6,26,24,0,0,0,2,-5
1512364302658095,10,-37,-1,-5,-1,3,11,10
1512364302658095,-15,8,-13,-2,-4,-2,0,0
1512364302659585,-3,15,-1,-1,1,0,-8,-3
1512364302659585,5,-23,-10,-2,-4,-4,-5,0
1512364302680613,1,27,24,6,3,1,1,-3
1512364302680613,2,3,2,5,0,1,16,7
1512364302682110,9,-11,-14,-14,1,3,9,14
1512364302682110,0,-5,9,0,-2,-4,-6,-17
1512364302695109,1,-19,-7,0,-1,0,6,4
1512364302695109,-3,-2,-3,3,-1,1,3,2
1512364302701636,0,-1,10,5,-3,-1,-5,-5
1512364302701636,-8,-26,-8,-2,-1,0,3,17
1512364302718125,10,6,-3,9,1,-1,-13,-16
1512364302718125,-3,10,-4,-13,-2,-3,1,-5
1512364302719626,4,-1,8,5,0,0,2,7
1512364302719626,-21,-19,0,7,0,-1,-5,5
1512364302740641,5,21,-2,2,-1,1,-4,-1
1512364302740641,9,-10,6,-12,-3,0,6,2
1512364302742142,-10,-11,-9,-3,-2,-4,-4,2
1512364302742142,-1,3,-6,3,0,0,-6,-9
1512364302754151,-6,-1,22,14,-1,1,16,30
1512364302754151,3,2,-9,-4,1,-2,-28,-49
1512364302763157,-2,-1,3,-6,-2,-1,1,-9
1512364302763157,0,-5,-10,0,0,1,8,7
1512364302778168,-5,-5,-1,0,0,-4,-20,-13
1512364302778168,0,-12,-7,0,-2,-1,13,19
1512364302779669,6,-1,7,-3,-4,-1,-2,-8
1512364302779669,10,15,-2,-2,-1,-1,-4,1
1512364302808189,-1,-6,-5,-6,-2,-1,-5,-3
1512364302808189,4,15,3,10,0,-1,3,13
1512364302809690,-7,-19,-15,-4,-1,-2,-5,-10
1512364302809690,2,2,5,3,0,0,3,4
1512364302814193,-2,-4,5,-3,1,2,3,-3
1512364302814193,-2,-5,-14,-9,-7,-4,1,-1
1512364302823200,-7,-1,-2,5,-1,-4,4,-1
1512364302823200,-5,11,-7,-9,-3,-4,-2,-5
1512364302838213,-5,-13,-5,-1,-1,1,-2,-2
1512364302838213,2,6,9,7,0,3,2,7
1512364302839711,3,3,-3,-4,-1,1,1,-1
1512364302839711,-3,-7,1,0,-2,0,-3,-3
1512364302868231,0,4,-6,-2,-1,-2,-8,-6
1512364302868231,-2,-1,4,-4,-3,-1,3,5
1512364302869733,0,-6,-4,-3,0,-2,-3,1
1512364302869733,-2,2,3,0,0,-1,-3,-2
1512364302874237,2,3,1,6,-1,0,0,-1
1512364302874237,-2,-5,-1,-20,-1,0,5,2
1512364302883242,-3,-1,-12,-4,-2,-1,-1,-7
1512364302883242,0,0,0,-3,-2,-1,1,2
1512364302898252,-3,18,1,3,-1,-1,5,13
1512364302898252,6,-2,1,7,2,0,-3,-4
1512364302899764,-5,-2,2,-1,-2,-2,-5,-7
1512364302899764,-4,-1,1,-2,-2,-2,-2,-3
1512364302920268,6,11,-1,-4,-4,-3,0,1
1512364302920268,-1,-4,0,3,0,-1,0,0
1512364302922269,0,2,-3,-4,-2,0,2,1
1512364302922269,5,-3,-5,0,-1,-3,0,3
1512364302934278,3,-8,-2,-4,0,0,-2,-4
1512364302934278,-11,-2,1,4,1,0,0,1
1512364302943286,2,-2,-1,3,-1,-1,-1,-3
1512364302943286,1,0,2,-4,-1,1,0,2
1512364302957805,0,-11,-3,-2,0,1,-2,-6
1512364302957805,-2,16,1,2,-2,-1,0,2
1512364302959806,-9,-35,0,-2,-1,1,-1,3
1512364302959806,-3,-1,1,-3,-5,-2,-1,-2
1512364302980325,-5,-11,-11,-4,4,0,-4,-7
1512364302980325,4,0,5,4,0,0,4,3
1512364302986825,3,10,-7,7,-2,-4,-2,-1
1512364302986825,2,-1,-5,-5,-2,-1,-3,-3
1512364303010332,-4,-4,0,-6,-4,0,0,-5
1512364303010332,0,-10,-6,-3,-2,-3,-1,3
1512364303012334,-1,4,0,2,0,-1,2,-2
1512364303012334,1,-5,-1,0,0,0,0,0
1512364303019339,-2,5,2,0,-1,-1,-2,-2
1512364303019339,-4,-4,0,0,0,-1,-6,0
1512364303021343,7,11,3,-2,-1,0,-1,2
1512364303021343,-1,2,-2,-2,-2,-2,3,-1
1512364303040363,-4,-1,3,-2,-2,-2,-4,-2
1512364303040363,6,-4,-1,2,-1,-4,0,0
1512364303043355,-9,-2,-1,-2,-2,-1,-3,-2
1512364303043355,-7,-3,0,1,-1,1,-1,-3
1512364303054362,7,0,-3,0,-1,-1,4,6
1512364303054362,-4,-4,-2,0,-1,0,-2,-4
1512364303063370,1,1,-1,-4,-2,0,-2,-1
1512364303063370,-3,-1,-3,0,0,2,-3,-3
1512364303077881,-6,-4,0,-1,-3,-3,-1,-4
1512364303077881,-1,0,-3,0,-1,0,-1,0
1512364303079398,0,3,2,0,-2,-2,3,0
1512364303079398,0,-4,-2,-2,2,-1,2,0
1512364303100405,-2,13,6,-1,-1,-1,-1,3
1512364303100405,0,0,-3,-2,1,0,0,0
1512364303102398,-2,-4,-2,-1,-1,0,-4,-2
1512364303102398,-2,2,1,2,-2,1,-1,0
1512364303114415,0,-3,-2,0,-1,-2,-1,-3
1512364303114415,-3,0,-1,-2,-3,-1,2,-2
1512364303123426,3,0,-2,-2,0,0,1,0
1512364303123426,3,-3,-4,-2,-1,-2,-1,-2
1512364303137922,-1,-2,-1,-5,-4,-3,-2,-2
1512364303137922,-1,-7,-1,1,-2,0,0,0
1512364303139923,-3,-2,-2,-1,2,0,0,-3
1512364303139923,-1,0,-3,-2,-2,-2,0,1
1512364303160439,-1,-3,0,2,1,0,-1,-1
1512364303160439,-3,2,0,-3,-3,-4,-1,0
1512364303162459,-2,0,1,-1,-1,-2,-1,0
1512364303162459,7,-1,0,-2,-2,0,1,5
1512364303182961,0,0,-1,-2,-1,-2,0,-2
1512364303182961,-2,-3,-1,-2,0,0,-2,-2
1512364303184455,-2,2,-1,-1,-3,0,-2,-1
1512364303184455,-5,1,0,0,-1,-2,-3,-1
1512364303197974,-2,-3,-4,-3,-2,-1,-4,-1
1512364303197974,1,-1,-2,-2,-2,0,-1,-1
1512364303199475,-2,-1,-1,-3,1,0,-3,-2
1512364303199475,-1,0,1,0,2,-1,-3,-2
1512364303220482,1,-5,0,-2,-2,1,-2,-1
1512364303220482,-3,-3,-1,0,0,0,2,-2
1512364303221988,-2,1,-2,-2,-1,0,2,-1
1512364303221988,-3,0,-3,0,-1,-2,-2,-1
1512364303243008,0,-2,-1,-2,-2,-1,-1,-1
1512364303243008,-1,-1,0,1,-1,-3,-1,1
1512364303244507,1,-1,-1,0,-2,-3,-2,2
1512364303244507,0,0,0,-1,-1,-1,-4,-1
1512364303258007,-3,0,-2,-1,-1,-1,6,0
1512364303258007,-1,2,-2,-2,-1,-1,-3,-1
1512364303259508,0,-1,-1,0,-2,-1,0,-5
1512364303259508,-1,-4,-2,-1,-2,-2,0,-1
1512364303280522,0,-1,-2,0,0,1,-4,-2
1512364303280522,-1,-1,-3,-2,-1,0,-2,-3
1512364303282032,0,0,0,-2,-2,0,-2,-1
1512364303282032,-3,1,-1,-2,1,1,0,-2
1512364303303042,0,0,0,-1,-2,-3,-3,-1
1512364303303042,-1,0,-1,1,-1,0,0,0
1512364303304540,-1,-3,-1,-2,-1,-3,-2,0
1512364303304540,-1,-1,1,1,-2,-1,-1,-3
1512364303318061,-1,0,-2,-3,-2,-3,-3,-3
1512364303318061,-2,0,0,-1,-1,-3,-2,-2
1512364303319564,-2,0,-1,0,1,0,-1,-1
1512364303319564,-2,-1,-3,-3,-1,-1,-1,-1
1512364303340566,-1,-2,-1,-1,0,-1,-1,0
1512364303340566,-2,-1,-2,0,-1,-1,0,-2
1512364303343077,-2,1,-2,-2,-3,1,-2,1
1512364303343077,-1,-1,-1,-1,0,-1,2,1
1512364303363080,-2,-3,-3,-2,-1,-1,-1,-1
1512364303363080,-1,-5,0,-1,-1,-1,0,0
1512364303364581,-1,-2,-1,-1,-1,-2,0,-1
1512364303364581,-1,-3,1,-1,-1,-1,0,0
1512364303377593,-2,-2,2,0,1,-1,-1,-1
1512364303377593,1,0,1,-1,1,2,0,2
1512364303384096,-2,0,-1,-1,-3,-2,-3,-3
1512364303384096,1,1,1,-1,-1,-1,-4,0
1512364303400608,-2,-2,-1,-1,-1,-3,0,-1
1512364303400608,-2,1,0,0,1,0,0,-1
1512364303403113,-2,-3,-3,-2,0,-2,-2,-1
1512364303403113,-1,-3,-2,0,-2,-4,-1,-2
1512364303423136,-1,0,-2,-1,-1,0,-1,1
1512364303423136,-2,-2,-2,-1,-2,-2,-1,-1
1512364303424626,-1,0,-1,-2,0,0,1,2
1512364303424626,-3,0,-1,-1,-1,0,-1,-2
1512364303437143,2,1,1,-2,-2,-1,-2,-1
1512364303437143,0,0,-2,-3,-2,-1,-2,-2
1512364303444138,-2,-2,0,0,-1,0,-1,-2
1512364303444138,-2,1,-2,-2,-1,-1,0,-1
1512364303460650,-2,-2,-4,0,0,-1,0,-1
1512364303460650,-1,-3,-3,-2,-3,-3,-1,-3
1512364303462151,0,-2,-1,0,-1,-1,0,0
1512364303462151,-1,-4,-1,-1,0,-2,-3,-2
1512364303483166,-3,-4,-1,0,-1,-1,-1,-2
1512364303483166,-2,-2,-3,-3,-3,-4,-4,-2
1512364303484667,-1,-2,-3,-2,-2,-1,-2,-2
1512364303484667,-1,0,0,-1,-2,-1,-1,1
1512364303497185,1,0,2,-1,1,0,1,0
1512364303497185,1,0,2,-1,-2,-1,1,1
1512364303504202,0,0,-1,-1,-2,-1,-2,-2
1512364303504202,0,-1,-3,0,-1,-1,-1,-1
1512364303528198,-1,-1,-1,0,-3,-1,-1,-2
1512364303528198,-2,-3,-1,0,0,0,-1,-2
1512364303529699,-3,0,0,0,0,-1,1,1
1512364303529699,0,0,0,-1,0,0,-1,1
1512364303543208,-1,0,-2,-3,0,1,1,-1
1512364303543208,-1,-1,-1,-2,-2,0,-1,-2
1512364303544709,0,-1,-2,-2,-2,0,-1,-2
1512364303544709,-1,0,-3,0,-1,-1,-1,-2
1512364303557230,2,1,-1,-1,0,-1,-3,0
1512364303557230,0,0,-2,1,0,-2,-2,-3
1512364303564233,0,-4,1,-1,-1,-1,-2,-2
1512364303564233,-1,-2,1,0,-2,1,1,-2
1512364303595760,-1,0,3,-1,-1,-1,0,-2
1512364303595760,-1,-1,-5,-3,-1,1,0,0
1512364303597249,-2,0,-1,-1,-1,-2,1,-1
1512364303597249,-3,-1,-1,-1,-2,-3,-1,-3
1512364303602761,-2,-3,-2,-1,-2,-3,-1,0
1512364303602761,-2,-1,1,-1,-1,0,-2,0
1512364303604752,-1,-2,1,1,-2,-1,-1,0
1512364303604752,-3,-1,2,-2,0,-1,0,-1
1512364303625268,-1,-1,0,0,0,1,1,0
1512364303625268,0,0,-1,-2,1,-1,-1,0
1512364303627279,0,0,-1,-1,-1,0,-2,-2
1512364303627279,0,-2,-2,0,-2,-2,-3,-1
1512364303640777,-3,-1,-1,-3,-3,-1,-3,-2
1512364303640777,-1,-1,-1,0,0,-1,0,-1
1512364303642278,0,0,-1,-3,-1,-2,-1,-1
1512364303642278,0,-2,-1,-2,0,0,1,-1
1512364303663294,0,-3,-3,0,0,-1,1,-2
1512364303663294,-3,0,0,-1,-3,-1,0,-4
1512364303669312,1,-2,1,-1,-1,-1,0,-1
1512364303669312,-1,-4,-5,-3,-4,-2,-1,-2
1512364303676802,1,-1,-2,-1,-2,0,-3,-1
1512364303676802,-1,-1,0,0,0,1,-2,-1
1512364303685819,-3,-1,-2,-1,-1,-1,-3,-2
1512364303685819,-3,0,-1,-1,0,1,-2,1
1512364303700319,0,2,-1,-1,-1,1,-2,-3
1512364303700319,-2,-2,-1,0,-1,-1,0,-3
1512364303702332,-1,-1,-2,-1,-1,-2,0,0
1512364303702332,-1,-3,-1,0,-2,0,0,-1
1512364303721844,0,-3,-1,0,-2,-3,0,1
1512364303721844,-1,0,-1,1,-1,1,-1,2
1512364303730840,-2,-1,1,1,0,0,-1,-1
1512364303730840,0,1,0,-1,0,0,0,-1
1512364303736354,-1,0,0,-1,-1,-2,-1,-4
1512364303736354,-2,-4,-1,-2,0,-1,-2,-2
1512364303745356,-2,-1,-4,-1,-2,-2,0,-1
1512364303745356,0,-1,1,-1,-1,0,1,1
1512364303760361,0,-1,-2,-1,0,-1,1,-1
1512364303760361,-1,0,-3,-1,-3,0,0,-1
1512364303762363,-1,-1,-3,-1,-1,-3,-2,-2
1512364303762363,-3,-1,-1,0,-1,-3,0,-3
1512364303782878,-2,-2,-1,0,-1,-2,-1,2
1512364303782878,-1,-1,0,-2,0,-1,-3,-1
1512364303784378,1,-1,0,-2,0,0,0,0
1512364303784378,1,-2,-1,-3,-2,-1,-3,-1
1512364303796953,0,-2,-2,-1,-2,-2,-2,-1
1512364303796953,-1,0,-1,0,-4,-1,-3,-1
1512364303805958,0,-1,-1,-1,0,-3,-1,-1
1512364303805958,-1,-2,0,1,-1,-2,-1,-1
1512364303821470,-1,-3,-1,-1,-1,0,-3,-1
1512364303821470,-1,-2,-1,-1,-2,-2,1,0
1512364303822971,-3,-2,1,-1,0,-1,-1,1
1512364303822971,0,1,0,0,-1,-2,-2,-2
1512364303842996,-3,-2,-1,-1,-1,0,1,-2
1512364303842996,-1,-2,0,-1,0,-2,-1,0
1512364303844986,-2,0,-1,-2,-1,-1,-1,-1
1512364303844986,0,0,-2,-1,0,-1,-2,1
1512364303856494,-1,-1,-1,-2,-1,-1,-2,-1
1512364303856494,1,-3,-2,1,0,-3,-2,0
1512364303865500,-2,0,0,1,-1,1,0,-1
1512364303865500,-2,-3,-3,-1,-1,0,0,0
1512364303880512,1,-1,-1,-1,-1,-2,1,-1
1512364303880512,-2,-1,-1,-1,0,1,0,-1
1512364303882013,-1,0,1,-1,0,-1,-2,0
1512364303882013,-1,0,0,-3,-2,-3,-3,-1
1512364303903034,0,1,-3,0,-1,0,0,-1
1512364303903034,-1,-1,-2,-1,-2,-3,-2,0
1512364303904528,-3,-1,-3,-1,0,-1,0,-3
1512364303904528,-1,-1,-2,-1,-1,0,-2,-1
1512364303916536,-1,-1,-2,-4,0,0,0,-1
1512364303916536,-1,-1,0,-2,0,-1,0,-2
1512364303925555,0,-3,-3,0,-3,-1,-2,-1
1512364303925555,-2,-1,-1,-1,-3,-2,-2,-2
1512364303948560,-2,-1,-1,-2,1,0,-2,0
1512364303948560,0,0,-1,0,-2,-2,-2,1
1512364303954066,-1,0,0,0,-1,-1,2,-3
1512364303954066,0,-3,-2,0,-1,-3,2,-3
1512364303963070,-2,-1,-2,-1,-1,-2,0,0
1512364303963070,-1,-2,-1,-1,1,-1,1,-1
1512364303964571,-1,-1,-2,-2,-1,-2,-1,-2
1512364303964571,-1,0,0,-2,0,-1,-3,-1
1512364303976591,-2,1,-1,-1,0,0,-1,-1
1512364303976591,-3,0,0,-2,-3,-1,0,-2
1512364303985587,1,-1,-2,-1,-1,-1,-2,-3
1512364303985587,-1,1,-1,-2,0,0,-2,1
1512364304000624,0,-1,0,-2,-2,-1,-4,-1
1512364304000624,0,-2,-2,-1,-2,0,0,-2
1512364304003122,-1,-1,-1,1,-2,0,0,-2
1512364304003122,-1,-1,1,-1,-2,-1,-2,-2
1512364304023618,-2,1,-1,-1,-1,-2,-2,-1
1512364304023618,-1,0,0,0,-1,-2,0,1
1512364304025126,-1,-1,-1,0,-1,-2,0,-1
1512364304025126,2,0,-2,0,-1,0,0,-1
1512364304036634,-3,-2,-2,-1,0,-3,-1,-2
1512364304036634,-2,-1,-2,0,0,-1,-3,0
1512364304045637,-1,-1,-4,-2,-1,-2,0,0
1512364304045637,-3,1,-2,-1,-1,-2,-1,-1
1512364304060648,-2,-1,2,0,-2,-2,-1,-2
1512364304060648,-2,0,-1,-1,-3,-1,-2,-2
1512364304062150,-2,-2,-1,-1,0,-1,-2,1
1512364304062150,0,-2,0,0,0,-2,-1,1
1512364304083208,1,-2,-2,0,-2,-2,-2,0
1512364304083208,-2,-2,-3,-1,-2,0,-1,0
1512364304084718,0,0,1,-2,0,-1,-1,1
1512364304084718,0,-2,-1,-2,-2,0,0,-1
1512364304096714,0,-2,-1,-2,-1,-1,-1,-1
1512364304096714,-2,0,0,-3,-1,-2,-2,-1
1512364304105720,-1,-2,-2,1,-2,-1,-2,-2
1512364304105720,-2,1,-2,-2,0,-1,1,1
1512364304120241,-2,-2,-2,-1,-1,-1,1,-2
1512364304120241,1,-3,-2,-2,-1,0,0,-2
1512364304122241,-1,-3,-1,-1,0,0,-1,-2
1512364304122241,-2,-2,0,0,-1,-1,-1,-2
1512364304142756,-1,0,0,-1,0,-1,1,0
1512364304142756,-1,1,0,-1,1,-2,0,-3
1512364304144747,-1,0,-1,-1,-2,-3,-1,0
1512364304144747,-1,-2,-4,-2,-1,-2,0,0
1512364304165762,1,0,-2,0,0,-1,-2,0
1512364304165762,-1,0,-2,0,0,0,-2,-1
1512364304167264,-1,-1,-2,0,0,0,-2,1
1512364304167264,-1,-2,0,1,-1,-2,-4,-2
1512364304195283,-2,-1,-2,0,-3,-1,-2,-2
1512364304195283,-2,1,-2,-1,-1,0,3,-2
1512364304197293,-1,-1,-1,-2,1,-2,0,0
1512364304197293,-1,-2,-1,-3,-1,-1,1,-2
1512364304202789,-2,-2,0,0,-1,1,-2,-1
1512364304202789,-2,-2,1,-1,-3,-1,-1,0
1512364304204791,0,0,-1,-2,-1,-1,-1,-1
1512364304204791,1,-1,0,0,-1,-1,2,1
1512364304225308,-1,0,-1,-1,-3,-3,-1,1
1512364304225308,-1,-1,-1,-1,-1,-1,-2,-3
1512364304227310,-1,-2,-1,-1,-3,-2,-4,-2
1512364304227310,0,1,-2,-3,-1,-2,-3,-1
1512364304240362,1,1,0,-1,-1,-1,0,1
1512364304240362,0,-2,-2,-1,-1,-1,-1,0
1512364304242363,-1,-1,-2,-1,-1,0,-2,-1
1512364304242363,-2,-1,-1,-1,0,0,-1,-2
1512364304262875,0,-2,-2,-1,0,-2,1,1
1512364304262875,-3,-1,0,-2,-2,-2,0,2
1512364304264380,-3,0,-1,0,-1,0,1,-2
1512364304264380,-1,0,-1,-1,-1,2,0,0
1512364304285399,-1,2,0,-1,0,-1,0,-2
1512364304285399,0,0,-1,1,0,-1,-2,-3
1512364304286892,-1,-4,0,-2,-3,-2,-2,-1
1512364304286892,0,-1,-1,-2,0,-1,0,1
1512364304299912,0,-1,-1,0,-1,1,-2,-3
1512364304299912,2,-2,-2,-1,0,1,-2,2
1512364304313921,-3,-1,-2,-2,-1,0,-1,-2
1512364304313921,-2,1,0,0,-1,-3,1,-4
1512364304322928,0,-1,-3,-2,-2,-2,-1,-2
1512364304322928,1,1,-1,-2,0,-2,-1,0
1512364304324421,0,-1,-1,-4,1,0,-2,0
1512364304324421,-2,-1,-1,-3,-1,-2,-2,1
1512364304345432,-2,-1,-1,-2,-1,-3,-1,1
1512364304345432,-2,-2,-3,0,0,-1,0,-1
1512364304347944,-1,-1,-2,1,0,-1,-1,-2
1512364304347944,-2,-1,-1,0,-2,0,0,-1
1512364304359945,-2,-1,2,0,0,-2,-2,-2
1512364304359945,-1,1,0,-1,-2,-3,0,-2
1512364304366459,-2,0,0,-1,-3,-1,0,-1
1512364304366459,-1,-1,-1,-2,-1,-2,-3,0
1512364304382958,-2,-2,-1,-1,-2,1,-1,-2
1512364304382958,0,-2,0,0,0,-1,-2,0
1512364304384466,0,-2,-2,-1,-1,0,2,0
1512364304384466,-2,-1,-2,-1,-1,-2,-3,-1
1512364304405484,-2,-1,-1,-2,0,0,0,-1
1512364304405484,-2,-2,-1,-1,-3,-2,-1,0
1512364304406989,1,-2,1,-2,0,-2,-2,0
1512364304406989,0,-2,-2,-1,0,0,-2,-1
1512364304419984,1,-1,-4,-1,0,-1,-1,2
1512364304419984,0,-1,-1,0,-1,0,2,-1
1512364304426499,-2,2,0,0,-1,-1,-1,-1
1512364304426499,-2,0,1,0,-2,-2,1,-3
1512364304443011,-3,-3,-1,-2,-1,-1,0,-1
1512364304443011,0,1,-3,-1,-1,0,0,1
1512364304444504,-1,-2,-1,-2,-1,-2,-3,1
1512364304444504,0,-2,-2,0,0,-1,-1,-1
1512364304465665,1,-2,-1,-1,-1,-3,-2,-3
1512364304465665,0,-1,1,-1,-2,-1,-2,-1
1512364304467177,1,0,0,-1,-1,-2,1,-1
1512364304467177,-1,0,-1,-3,0,0,-1,-3
1512364304480194,-1,-1,0,-1,0,-1,-2,-2
1512364304480194,-2,-1,-1,-1,-2,0,-2,-1
1512364304486690,0,-1,-2,1,-2,-1,-1,0
1512364304486690,-1,0,0,-1,0,-1,1,0
1512364304503204,-1,0,0,-2,-2,-1,0,-3
1512364304503204,-2,-3,-2,-1,-1,-1,0,-2
1512364304504703,-2,-3,-2,-1,-1,-2,-1,-3
1512364304504703,-1,-1,0,0,-2,-1,-4,-1
1512364304525712,-1,-2,-2,0,0,-2,-4,-1
1512364304525712,-2,0,0,-3,-1,0,-2,0
1512364304528210,0,0,-1,0,0,-1,-2,2
1512364304528210,0,-3,-2,-2,-1,2,3,-1
1512364304539727,-1,-2,-1,0,-1,-1,0,1
1512364304539727,-2,-2,0,-2,-2,-3,-1,-3
1512364304546723,1,1,-2,-2,-1,-2,3,0
1512364304546723,1,0,-3,-1,-3,-1,-1,-1
1512364304563255,-1,-1,-1,0,-1,1,-2,-2
1512364304563255,-2,-3,-3,-1,-1,-1,2,-1
1512364304564745,-2,-2,-2,-3,-3,-2,-1,-2
1512364304564745,-1,-1,-2,-2,-2,-3,-1,2
1512364304585264,1,-2,-4,0,-2,-1,-3,1
1512364304585264,-1,-1,-1,0,1,-2,-4,-4
1512364304587266,-3,-2,0,1,0,2,-4,0
1512364304587266,-2,-4,-1,-1,-2,0,-3,0
1512364304599763,-2,-2,-1,-1,-1,-1,0,0
1512364304599763,0,-1,-1,-1,0,-1,-4,-4
1512364304606765,0,1,1,-1,0,3,1,-1
1512364304606765,-3,-1,0,-1,-2,-3,-3,-1
1512364304622776,-1,0,-1,-1,-1,-1,1,-1
1512364304622776,-2,-1,-2,-1,0,-1,2,0
1512364304624783,-1,0,-2,-1,-1,-2,0,-1
1512364304624783,0,2,0,0,-1,0,-2,-2
1512364304645292,1,3,0,-1,-1,2,0,0
1512364304645292,-1,1,-2,-2,-2,0,-1,2
1512364304647293,0,-1,-1,0,-2,-2,-3,3
1512364304647293,1,1,0,-1,-2,-1,-3,1
1512364304659302,-3,0,-1,-3,-1,-3,-1,0
1512364304659302,-1,-2,-1,-1,-1,0,-1,1
1512364304675814,-3,-3,0,-3,-1,-2,0,-4
1512364304675814,-1,-4,0,-1,-3,0,1,-3
1512364304682818,-1,-2,-1,-2,-2,-1,-2,-4
1512364304682818,-1,-2,-2,-2,0,-2,-3,-2
1512364304684824,-2,-1,0,-1,-1,-1,-2,-2
1512364304684824,0,0,-2,-2,0,-1,-1,-1
1512364304705347,-1,-2,0,-2,-1,-2,1,1
1512364304705347,-1,-1,0,-2,-1,-2,1,-4
1512364304706848,2,-3,-1,-1,0,-2,0,-2
1512364304706848,1,0,2,2,0,1,0,1
1512364304719355,1,-1,-1,-1,-3,-1,-2,0
1512364304719355,-2,-1,-2,-2,-1,0,-2,0
1512364304728351,-2,-1,-4,-1,0,-1,-1,-1
1512364304728351,-2,-1,-2,-1,-1,-1,-1,-2
1512364304742885,-3,-2,-2,0,-1,-2,-1,-2
1512364304742885,0,-3,1,-2,-2,-4,-1,1
1512364304744363,-1,-2,1,-1,-2,-2,1,-1
1512364304744363,-2,-2,1,-2,0,0,1,0
1512364304765377,-2,2,3,0,-1,-1,-1,-3
1512364304765377,0,0,-2,0,-2,0,0,-2
1512364304766878,-2,0,-2,-1,0,-1,-2,-2
1512364304766878,-3,-1,-4,1,-2,-1,-1,-2
1512364304778886,0,-2,-3,-1,0,0,0,-4
1512364304778886,-1,-2,-4,0,-1,-2,-3,-2
1512364304788393,-2,2,-4,-1,-2,0,-1,-2
1512364304788393,0,-1,-3,0,0,-2,-2,-1
1512364304802406,-2,-1,-1,-1,0,-2,-1,0
1512364304802406,0,-2,1,0,1,0,3,0
1512364304803408,-1,-2,-1,-2,-2,-2,-2,0
1512364304803408,-1,-1,-1,-1,-1,-2,0,-2
1512364304824919,-3,-2,1,0,-1,-2,-3,-3
1512364304824919,0,1,-1,-1,-2,-1,-1,1
1512364304825920,-3,-1,0,-1,-3,-3,-2,-1
1512364304825920,-2,0,-1,-1,-2,-1,-2,0
1512364304847435,-1,0,-1,1,-1,1,-2,-1
1512364304847435,-3,-1,0,0,-1,-1,-1,-1
1512364304847935,0,-1,0,-1,-1,1,0,-1
1512364304847935,-1,0,-1,-1,0,-1,4,0
1512364304862445,-1,-1,0,-1,0,0,2,0
1512364304862445,-3,-3,-4,-2,-2,-3,0,0
1512364304862946,-1,0,-2,0,0,0,1,1
1512364304862946,1,-1,-2,0,0,-2,-1,-2
1512364304884963,-1,0,-3,0,-1,-2,-3,-2
1512364304884963,-1,-2,-2,-2,0,-1,-2,-3
1512364304885461,0,2,1,-2,0,0,-1,-1
1512364304885461,-1,-3,-1,-1,-2,-3,-4,-2
1512364304907477,-1,0,0,-2,-1,-1,-3,0
1512364304907477,-1,-2,1,-2,-1,-1,-4,-1
1512364304907977,-2,-3,-2,-1,-1,-1,-1,-2
1512364304907977,-2,-2,-1,-2,1,-1,-1,0
1512364304922497,1,0,0,0,1,-2,-2,-3
1512364304922497,-2,0,-2,-1,-1,1,-1,-2
1512364304923003,-2,1,-2,-1,0,-1,-3,-3
1512364304923003,-2,1,0,-1,-1,0,0,0
1512364304945004,-2,-2,0,-2,0,-1,-1,0
1512364304945004,3,2,-1,0,-2,0,-1,-2
1512364304945504,2,-1,0,-1,-2,-2,-1,-2
1512364304945504,-1,-2,-2,-1,-2,-1,-1,0
1512364304967030,-1,-2,-4,-1,-1,2,1,0
1512364304967030,0,-1,-1,0,0,1,-1,-2
1512364304975041,0,-2,0,-1,0,0,-2,-3
1512364304975041,-2,-2,-3,-2,0,-1,-1,-2
1512364304982539,0,-2,0,-1,-2,0,2,3
1512364304982539,0,0,1,-1,-1,-2,-2,1
1512364304983030,-3,0,0,-1,-1,-1,2,-1
1512364304983030,-1,-1,-1,-1,-2,1,0,-1
1512364305004556,0,-2,-2,-3,-1,-1,0,-3
1512364305004556,-1,-2,-3,0,-1,-2,0,-2
1512364305005556,0,-3,-1,0,0,-2,-2,0
1512364305005556,0,0,0,-1,-2,-3,0,0
1512364305027079,-1,1,-2,-2,-2,-1,-2,-1
1512364305027079,0,-2,-2,-1,-1,-1,-1,1
1512364305028080,-2,-1,0,0,-1,-2,-3,0
1512364305028080,-1,-2,0,-1,-2,0,-2,-1
1512364305042572,-1,-1,-1,-1,-2,-1,-3,0
1512364305042572,0,-1,-2,-1,0,-1,-1,0
1512364305043073,-1,0,-2,0,-2,-1,-1,-1
1512364305043073,-2,-1,-3,-3,-1,-2,-1,-3
1512364305065089,0,-1,0,-1,-2,-1,-1,-1
1512364305065089,-1,-1,1,-2,-1,-1,1,-1
1512364305065589,-2,-3,-2,-1,0,-1,1,-2
1512364305065589,1,-1,-1,-1,-1,0,-3,3
1512364305087104,-2,0,-3,-2,-2,-3,-4,0
1512364305087104,-2,2,-2,0,-2,-2,-3,0
1512364305088105,0,0,-1,0,-2,-1,1,-1
1512364305088105,-1,-1,0,-1,-1,-1,-1,-4
1512364305103115,0,-2,-1,-1,-1,-2,-1,-1
1512364305103115,-3,-2,0,-1,-1,0,0,-1
1512364305104116,-2,-1,-1,-1,-3,-2,-2,-2
1512364305104116,-1,-2,-1,0,0,-1,0,-1
1512364305124630,0,-4,-1,2,-1,-1,-1,-1
1512364305124630,-2,0,-4,-1,0,-1,0,-1
1512364305125631,-2,-1,-2,0,-1,0,-1,0
1512364305125631,0,-1,-1,-1,-2,-1,-3,-2
1512364305147146,-2,0,1,0,0,0,0,-2
1512364305147146,-2,-1,-1,-2,0,0,0,-2
1512364305148154,0,-3,-1,-1,-1,-1,-1,-1
1512364305148154,1,-1,-2,-2,1,-1,-1,0
1512364305162157,-1,-2,0,-2,-3,-1,1,-2
1512364305162157,-3,0,-2,-2,-2,0,0,-2
1512364305163158,-1,1,1,-2,0,-1,-1,1
1512364305163158,-2,-1,-1,0,-3,-1,1,-3
1512364305184674,-1,-3,-3,-1,0,-2,-2,-1
1512364305184674,0,0,0,0,0,-1,0,-1
1512364305185674,0,-1,-2,0,-1,-1,0,1
1512364305185674,-3,-2,-1,0,0,-2,-2,0
1512364305207689,-2,0,-3,-2,-1,-2,-3,-1
1512364305207689,-1,-2,-1,-1,-2,-1,-2,-1
1512364305208690,-1,-3,-1,-2,-1,1,-2,-1
1512364305208690,1,1,-1,-1,-1,-1,2,-2
1512364305222199,0,-2,2,-1,-1,2,1,-1
1512364305222199,0,-1,1,0,-1,-3,-2,0
1512364305223200,0,-1,0,-3,-1,-3,-1,-1
1512364305223200,-1,0,0,-2,-1,-2,-1,0
1512364305244727,-2,-1,0,0,-1,-1,-1,1
1512364305244727,0,-1,-2,-1,-2,0,1,0
1512364305245728,-1,1,-3,0,0,0,-2,-3
1512364305245728,-3,-2,-4,-1,-2,0,-2,1
1512364305267741,2,0,0,0,0,-1,-1,0
1512364305267741,-1,-1,-2,-2,-2,-2,-4,-2
1512364305268732,0,1,0,-1,-2,-1,0,0
1512364305268732,-2,-1,0,-2,-1,-2,-1,-3
1512364305282268,-1,1,-1,-1,-1,-1,-1,-1
1512364305282268,0,-1,0,-2,-2,0,-2,0
1512364305283243,-4,-1,-2,0,-1,-2,-2,-2
1512364305283243,-2,1,-2,-1,-1,1,-1,-1
1512364305304801,-2,-2,-2,-2,0,-1,-3,-2
1512364305304801,-3,-3,-2,0,-2,-1,-1,-2
1512364305305802,-1,-4,-3,-2,0,1,0,-1
1512364305305802,-1,-1,-1,-1,-2,-3,0,0
1512364305327818,0,-2,0,-1,0,0,0,0
1512364305327818,-1,-4,1,0,1,-1,2,-1
1512364305328830,0,-1,-1,-1,-2,-1,-1,-1
1512364305328830,0,-1,-1,-1,-1,-2,-4,-1
1512364305342327,-2,0,-1,-1,-2,1,-1,-2
1512364305342327,-2,-1,-3,-5,-1,-2,-2,-1
1512364305342828,-1,-1,-1,0,-2,-2,1,0
1512364305342828,-1,-2,-1,1,-1,-1,0,0
1512364305364855,-1,0,-1,-1,-1,-3,-1,0
1512364305364855,0,3,-1,-1,-1,-1,0,1
1512364305365344,-1,0,0,-1,-1,-1,0,-1
1512364305365344,-2,1,0,-2,-1,0,-3,0
1512364305387863,-3,-2,1,-2,0,0,0,-1
1512364305387863,1,-1,1,0,-2,0,-1,0
1512364305388860,-1,-2,0,-3,-2,0,-1,-1
1512364305388860,-2,-3,-3,-1,-2,0,1,-1
1512364305402370,-1,-2,-3,-1,-1,0,-2,-1
1512364305402370,-2,-2,-2,-1,-1,-2,0,-2
1512364305403386,0,0,-2,0,0,-1,0,0
1512364305403386,-1,-1,0,-1,0,0,-3,-2
1512364305424898,0,-2,-4,1,0,-2,-2,-2
1512364305424898,0,-1,0,-2,-1,-2,-2,-1
1512364305425386,-2,-2,-1,-2,-2,-2,-1,0
1512364305425386,0,-1,-1,0,-2,-1,-2,-1
1512364305447945,1,1,1,-1,0,0,2,1
1512364305447945,-1,0,0,0,-1,1,-1,-1
1512364305448946,0,-1,-1,-4,-2,-2,-3,-1
1512364305448946,-1,-1,0,-1,0,-2,2,-1
1512364305462952,1,0,-2,-2,-2,-3,0,-1
1512364305462952,0,0,0,-1,-1,-1,1,-1
1512364305469963,-2,0,-1,-2,-1,-1,1,0
1512364305469963,-1,-1,-1,-3,-1,-1,1,-2
1512364305484961,-2,-2,-1,-2,-2,-1,-2,-3
1512364305484961,-3,-3,-2,-3,-1,-1,-2,-2
1512364305485462,-5,-2,-2,2,1,-2,-3,-1
1512364305485462,-1,-2,0,0,-2,0,-2,0
1512364305507977,-4,-2,-3,0,0,0,0,1
1512364305507977,-1,-3,-1,-1,-2,-3,-4,-2
1512364305508478,-1,-3,0,1,-1,-1,0,-2
1512364305508478,0,-1,0,-1,0,-1,0,0
1512364305521987,-3,0,2,0,-1,0,1,-1
1512364305521987,0,0,-3,-1,-2,-1,0,-2
1512364305522988,1,-1,-1,0,-1,1,-3,0
1512364305522988,1,-1,-1,0,-2,-2,-2,1
1512364305544506,-1,-2,-1,-1,-1,-2,-4,0
1512364305544506,0,0,1,-2,0,1,2,0
1512364305545504,-2,0,-1,-2,-2,-2,-1,-1
1512364305545504,-2,1,-1,-1,-2,1,2,-2
1512364305568020,1,-1,-1,-2,-3,-3,2,-2
1512364305568020,-1,-1,0,0,-1,-3,-2,-4
1512364305568520,1,0,-1,-2,-2,-1,-2,-2
1512364305568520,0,-2,1,-1,-2,-2,-3,-2
1512364305582530,0,-3,-1,-1,-1,-2,-4,-1
1512364305582530,0,0,0,1,0,-2,-3,0
1512364305583030,-2,-1,-3,-2,-2,2,-1,-1
1512364305583030,-1,-1,-2,-2,-2,-1,-1,0
1512364305604545,0,-1,-2,-2,-1,-1,0,-1
1512364305604545,0,2,-1,-1,-3,-2,-1,0
1512364305605546,-2,-3,-1,-2,2,-2,-1,-2
1512364305605546,0,-1,-2,0,-2,0,-1,0
1512364305628062,-1,-3,-2,-2,-1,2,-1,-1
1512364305628062,-3,-3,-2,-1,0,-1,0,0
1512364305629063,-1,-2,0,-2,-2,-2,0,-2
1512364305629063,0,-1,-1,-1,1,-1,0,-1
1512364305642085,0,-2,-1,-3,0,-2,-2,-1
1512364305642085,-2,-2,0,-2,-2,1,1,-1
1512364305643074,-1,1,-1,1,0,0,1,1
1512364305643074,-2,-1,-2,-1,-2,-2,-2,-1
1512364305673097,-2,-2,-1,0,-1,-1,1,-1
1512364305673097,-4,-2,-2,-1,-2,-1,-2,1
1512364305674095,0,-2,-2,-3,-1,0,-1,-3
1512364305674095,-1,1,-2,-3,-1,-2,-2,-1
1512364305688128,-3,-1,-2,0,-1,-2,-3,0
1512364305688128,2,0,-1,0,-2,-2,2,1
1512364305688606,1,1,-1,1,-3,-1,-1,5
1512364305688606,-1,-2,-3,-1,-2,-3,-5,-5
1512364305710621,-2,-2,-2,0,0,0,-1,-2
1512364305710621,-1,-1,0,0,0,0,0,-1
1512364305711122,-1,-2,0,-1,-2,-1,0,1
1512364305711122,-2,-3,-2,1,0,1,2,-1
1512364305724643,0,0,-3,0,-3,-1,0,-1
1512364305724643,-1,0,-1,0,-1,0,-1,-2
1512364305725643,-1,0,-1,-1,-1,-3,-2,-3
1512364305725643,-1,0,0,-2,-1,-2,0,0
1512364305748158,-5,2,1,0,0,-1,0,-2
1512364305748158,-1,-2,0,-1,-2,1,0,0
1512364305748647,-2,-2,1,-3,0,0,-2,-2
1512364305748647,-1,0,0,-1,-1,-1,-1,-3
1512364305761657,0,-1,-3,-1,-2,-2,-2,0
1512364305761657,0,-2,-2,-2,0,-1,-2,-1
1512364305769662,0,6,0,1,1,1,0,0
1512364305769662,0,0,-3,-1,-1,-2,-2,0
1512364305793179,-1,-2,-2,0,-1,-2,-2,3
1512364305793179,1,1,-1,1,0,-2,-4,-1
1512364305793680,0,-7,-5,-1,-2,-2,-1,-3
1512364305793680,-3,1,0,0,-1,0,1,-2
1512364305808690,-2,1,0,-1,0,2,6,8
1512364305808690,-3,-2,-2,-2,-2,-2,-9,-16
1512364305809191,-3,-3,-1,-1,-2,-2,-3,-1
1512364305809191,0,0,-1,-2,-1,1,-2,-2
1512364305821699,-1,-1,-2,-2,-3,-4,-4,0
1512364305821699,2,-1,-2,-2,-1,-2,5,5
1512364305829704,-3,-2,-3,-3,-2,-2,0,-2
1512364305829704,-1,-3,-2,-1,0,-1,1,-1
1512364305844722,-1,-3,1,0,-1,-2,-1,-2
1512364305844722,-1,0,0,-1,1,-1,-2,1
1512364305845716,-1,-1,2,1,0,-3,-2,-5
1512364305845716,1,-2,-1,-1,0,-1,-2,2
1512364305868233,1,-3,-3,-1,-1,-2,0,-5
1512364305868233,-3,0,-3,0,-3,-3,1,0
1512364305868738,1,-1,-2,-1,0,-1,1,1
1512364305868738,-6,4,0,0,-1,1,2,-1
1512364305881814,-1,0,0,0,-2,-1,-1,-3
1512364305881814,-2,-2,-1,-1,0,0,-2,0
1512364305889820,-1,-2,1,-1,-2,-2,-2,2
1512364305889820,1,-2,-2,-2,0,-2,-1,0
1512364305904834,0,1,0,-2,0,-1,-2,-2
1512364305904834,-2,0,-2,-1,-2,-2,0,0
1512364305905330,0,1,-1,0,-2,-2,-1,-1
1512364305905330,-1,0,0,1,0,-2,0,-1
1512364305928347,3,0,-2,-2,1,1,-2,-1
1512364305928347,-2,-2,-3,1,0,0,1,-1
1512364305929347,-2,-3,-2,1,0,-2,-1,0
1512364305929347,0,-2,-1,-1,-1,-1,0,0
1512364305941368,-4,2,2,1,-1,0,5,5
1512364305941368,-1,-2,-1,0,-2,-1,-2,-10
1512364305949862,0,1,-2,-3,1,0,-1,-2
1512364305949862,-1,-1,0,-1,0,-1,-2,1
1512364305964888,1,-2,-1,-2,-1,-2,-2,-3
1512364305964888,0,-2,-2,-2,-1,0,2,4
1512364305965375,-1,4,1,-1,-1,-1,0,4
1512364305965375,-1,-5,-5,-2,-1,-2,-3,-2
1512364305987890,0,-1,-2,0,1,0,-1,1
1512364305987890,-1,0,0,0,0,0,-2,0
1512364305988891,-1,-4,0,-2,-2,0,0,-4
1512364305988891,-4,-1,0,-1,-1,-2,-1,-1
1512364306001912,0,3,-1,-1,-2,-1,0,-1
1512364306001912,-2,1,-1,-3,-1,-2,-1,1
1512364306009914,0,-1,-4,1,0,-2,-4,-1
1512364306009914,-1,0,-2,-1,-1,0,1,-1
1512364306024915,-2,-3,1,-1,-3,-2,-2,-2
1512364306024915,-2,-3,-2,0,-1,-1,-4,2
1512364306026416,-2,-3,0,-3,-1,-2,-1,-2
1512364306026416,0,-5,1,-1,-2,-2,1,-1
1512364306055436,-1,2,0,-2,-1,0,0,-2
1512364306055436,-4,2,1,-1,0,-1,1,0
1512364306056437,1,-2,-2,-1,0,-1,-1,-1
1512364306056437,1,-1,-4,0,-1,-1,-3,-1
1512364306070447,-1,-4,-4,-1,-1,-2,-3,-3
1512364306070447,0,-2,-1,-2,0,-1,1,7
1512364306071448,-1,-3,-3,-2,-3,-2,-6,-9
1512364306071448,2,1,2,-2,-1,0,1,1
1512364306084973,-2,-1,-3,-1,-2,-1,-4,-2
1512364306084973,1,-2,-1,1,-1,-1,-2,1
1512364306085458,-4,1,-1,0,-1,-2,-2,2
1512364306085458,-2,0,-2,-2,-1,-1,-1,-4
1512364306107974,-3,0,-1,0,0,-2,1,-2
1512364306107974,-2,-3,-1,-3,-1,-2,-1,-4
1512364306108476,-1,-2,-1,-2,0,-1,0,-2
1512364306108476,-2,-3,-1,-1,-2,-1,-3,-3
1512364306130491,-1,-6,-3,-2,-1,-2,-2,0
1512364306130491,0,-1,-3,-1,-2,-2,0,-1
1512364306131492,-1,0,-1,2,-1,1,2,1
1512364306131492,-1,1,1,-1,-1,-1,0,3
1512364306145010,0,-3,0,-2,-1,-1,-1,-2
1512364306145010,2,-4,-3,-1,-1,-1,-1,-1
1512364306145501,-1,-2,-2,-3,-3,-1,2,-1
1512364306145501,-1,-2,-2,1,1,-2,0,1
1512364306168016,0,0,0,0,1,-1,2,3
1512364306168016,-2,0,0,0,-1,-2,-3,-10
1512364306168518,-2,0,-1,-1,-1,-1,-2,-2
1512364306168518,-5,5,1,0,-1,1,-2,-1
1512364306190532,2,-2,-2,0,-2,-1,-2,0
1512364306190532,-2,-1,-3,0,-2,-1,-2,2
1512364306191533,1,-1,-4,-2,-2,-1,-3,0
1512364306191533,1,-2,-5,-4,-1,-1,-4,-4
1512364306204544,-3,-1,-1,0,0,-2,-4,1
1512364306204544,-1,-2,1,0,0,-1,0,-1
1512364306205543,-3,-2,-1,-1,-2,-2,-1,-3
1512364306205543,0,-3,-1,-1,-1,-3,0,0
1512364306235565,0,1,0,0,-1,0,1,-4
1512364306235565,1,-2,-1,-2,-1,0,0,-1
1512364306236064,0,-1,1,0,0,0,-1,1
1512364306236064,1,8,2,0,-1,0,-1,1
1512364306250587,-3,0,-2,-2,0,-1,-1,-1
1512364306250587,-1,1,-1,-1,0,0,1,2
1512364306251075,0,-2,-3,0,0,0,1,2
1512364306251075,-2,-4,-2,-1,0,-2,-1,-2
1512364306264584,0,-1,-1,-1,-1,-1,-3,-4
1512364306264584,0,0,-1,-2,-2,-1,-3,-2
1512364306265585,-2,-2,0,-2,-1,1,-1,-1
1512364306265585,-2,-4,-3,-1,-2,0,-1,-3
1512364306288102,-2,-1,-2,-1,0,-1,-1,-3
1512364306288102,-1,-1,-2,-2,0,-2,1,-2
1512364306289102,2,-3,-2,1,0,-2,2,2
1512364306289102,-2,-2,1,1,-2,1,-1,2
1512364306310661,-3,1,0,-1,-1,0,-3,-5
1512364306310661,-2,-3,-2,0,-1,1,-2,-3
1512364306311151,3,-7,-4,-2,-1,-3,-1,-2
1512364306311151,0,-1,-1,-3,0,-1,1,1
1512364306324669,0,-1,-1,0,-3,-1,1,3
1512364306324669,-2,0,1,-1,0,-2,-4,1
1512364306325669,-3,1,0,-2,0,-1,0,2
1512364306325669,-1,-5,-4,-1,0,-2,-1,-1
1512364306348176,0,-2,-1,-2,-1,-2,0,-3
1512364306348176,0,-3,1,-3,-2,-1,-1,-1
1512364306348676,-2,-1,-1,0,0,-2,-2,-1
1512364306348676,-2,0,-2,-1,-1,-1,-1,-4
1512364306370701,-1,-1,-2,-1,-1,-1,0,-2
1512364306370701,0,-1,-2,-1,0,-2,0,1
1512364306371192,-4,-1,0,-2,1,-2,-1,-3
1512364306371192,-1,0,-1,-2,-3,0,0,-3
1512364306384702,-1,-2,-2,0,-1,-1,0,1
1512364306384702,0,8,2,1,-2,0,0,0
1512364306385703,-1,1,-2,-1,-3,1,-3,-2
1512364306385703,0,-1,-2,-1,0,-2,-1,-1
1512364306407718,2,-1,1,-1,-1,0,-1,-1
1512364306407718,-1,0,-6,-2,-1,-2,-1,-4
1512364306408718,-2,-2,0,-1,-3,1,-2,-1
1512364306408718,0,-1,2,-1,-3,-1,-2,0
1512364306430234,-3,-2,-1,-2,-3,-1,-1,-1
1512364306430234,-1,-4,-1,-1,-2,0,-1,1
1512364306431235,-1,-1,-1,0,0,-1,-3,-1
1512364306431235,-1,-4,-4,-2,-3,-2,-4,-2
1512364306444744,0,0,-1,-3,-1,-2,-2,-1
1512364306444744,-1,-2,-3,-1,-2,-1,0,-1
1512364306445744,-2,-1,-1,1,0,0,2,1
1512364306445744,3,-1,0,-1,-1,-1,1,-1
1512364306468262,-2,-6,-4,-2,-2,0,1,-1
1512364306468262,-3,-1,-2,0,-2,-2,-1,-3
1512364306468761,-1,-1,-2,0,0,0,0,0
1512364306468761,-3,-2,-1,-1,1,-3,-2,-4
1512364306491290,-6,1,0,-1,-1,-1,-1,-1
1512364306491290,0,-1,0,1,0,-1,-2,1
1512364306491785,0,-1,0,-1,-1,-1,1,-2
1512364306491785,-2,-4,-1,1,-2,0,1,1
1512364306505290,-1,-4,-3,1,-3,-2,-3,-3
1512364306505290,-2,-1,0,-3,-3,0,-2,-1
1512364306505788,-3,-11,-2,-4,0,-3,-3,-1
1512364306505788,3,5,1,-1,0,0,3,3
1512364306528809,0,6,-1,0,1,-2,2,1
1512364306528809,-1,-14,-5,-2,-2,0,-4,-1
1512364306530304,8,2,-2,1,-1,0,0,-1
1512364306530304,-5,-4,-1,-1,-1,-4,1,-1
1512364306550375,-4,-3,-1,-1,1,0,0,1
1512364306550375,-1,-3,-2,-2,-1,-3,-2,0
1512364306551332,0,5,-1,-2,-1,2,-2,-2
1512364306551332,1,-3,-2,-1,-2,-2,-2,-2
1512364306564841,-1,-1,0,-2,-1,-4,0,-1
1512364306564841,-2,1,1,-2,0,-2,0,0
1512364306565835,-4,-2,1,-1,-2,-2,0,-1
1512364306565835,-1,2,-1,0,0,1,0,-2
1512364306588346,-1,-3,-2,-2,-2,0,-2,-1
1512364306588346,-3,1,1,0,-2,1,0,-2
1512364306588846,-3,1,0,0,-2,-3,0,-2
1512364306588846,-1,-3,-1,0,-2,0,-2,-3
1512364306610862,3,-7,-4,-2,-3,-1,-3,-3
1512364306610862,1,1,0,0,-2,-2,1,0
1512364306611367,-2,2,-2,0,-2,1,-2,0
1512364306611367,-6,3,-1,0,0,-1,-3,-1
1512364306632879,-5,-8,1,-1,-1,1,0,-2
1512364306632879,0,-5,2,0,0,-1,-1,-1
1512364306633880,-3,-9,-2,-2,0,-2,0,-1
1512364306633880,-2,-3,-3,-1,-1,-3,-1,-2
1512364306647902,0,5,-2,-1,0,0,2,5
1512364306647902,-1,2,-1,0,-1,0,0,0
1512364306648888,-1,3,0,-2,-1,-2,-6,-3
1512364306648888,2,-1,-3,1,0,-1,0,0
1512364306670418,1,5,-2,-3,-2,-1,-1,-4
1512364306670418,0,2,-1,-2,0,0,-1,1
1512364306671404,0,-1,-1,2,-2,-1,0,0
1512364306671404,-15,-15,0,-1,0,-1,0,-6
1512364306683913,3,-4,-1,-1,-1,-5,-1,2
1512364306683913,-5,3,1,-1,2,0,0,-2
1512364306692437,-1,1,1,-1,-2,0,-1,-1
1512364306692437,3,-1,-2,-2,-1,0,-1,0
1512364306707930,-1,0,-1,0,-1,0,0,0
1512364306707930,0,-1,-4,-3,-3,-2,-2,-3
1512364306708931,-1,-5,-1,0,1,0,0,-1
1512364306708931,5,4,1,-2,-2,-1,0,2
1512364306730446,-1,-1,-2,0,0,-1,-2,-4
1512364306730446,4,-1,1,2,-1,-1,0,-1
1512364306731447,-1,0,0,1,0,0,1,-1
1512364306731447,0,0,1,-2,-2,1,0,-1
1512364306743973,-2,-1,0,-1,-2,-2,-2,-2
1512364306743973,-3,-2,-4,-1,-1,0,-2,-2
1512364306751973,-2,1,-3,-1,-1,-3,-4,-2
1512364306751973,0,0,-2,-1,-1,-2,2,5
1512364306767985,-1,0,0,1,1,0,-5,-15
1512364306767985,-5,-1,0,-2,-1,0,2,-2
1512364306768473,0,-19,-6,-3,0,-2,-1,-1
1512364306768473,-1,2,-1,-3,-1,-3,-3,-1
1512364306790493,1,0,1,-1,0,0,-1,3
1512364306790493,0,-4,-2,-3,-2,1,-1,0
1512364306791501,1,-2,1,0,-1,-1,-1,-3
1512364306791501,-2,2,2,0,2,1,3,-1
1512364306804007,-2,-3,-2,-1,-2,-2,0,0
1512364306804007,0,-4,-5,0,-1,-1,-2,-1
1512364306812013,-2,4,-2,-2,-2,-1,1,-1
1512364306812013,2,-1,-1,0,-2,-1,-2,-1
1512364306828016,-2,3,-2,-2,0,-1,0,2
1512364306828016,-2,2,-1,-1,-1,-3,0,-1
1512364306829015,-6,6,1,-1,-1,-1,0,-2
1512364306829015,1,-9,-4,-2,-1,-1,-5,-4
1512364306849540,-1,-2,2,1,0,-2,-3,-2
1512364306849540,-2,0,0,0,-1,-3,-2,1
1512364306857035,1,4,-2,0,-2,-2,-1,1
1512364306857035,3,-2,-1,-2,0,-3,-2,-1
1512364306864040,0,-2,-1,-2,-1,-2,-1,0
1512364306864040,0,-3,-2,0,-1,1,0,-2
1512364306872561,-1,2,1,-2,-1,1,0,-1
1512364306872561,-4,-1,1,0,1,1,1,-2
1512364306888057,2,-3,-2,-2,-2,-1,2,9
1512364306888057,-2,-3,-1,0,-2,0,-7,-17
1512364306889568,2,-5,-4,-4,-2,0,-1,0
1512364306889568,-2,-1,-2,-2,-2,-1,-3,-2
1512364306909622,-1,0,-1,0,1,-1,0,-3
1512364306909622,2,3,-1,-2,-2,-3,0,2
1512364306926634,-1,-4,-2,1,-1,-1,-3,-2
1512364306926634,-4,1,1,0,0,0,-2,-4
1512364306928147,-1,-3,-2,-2,0,-1,-2,-3
1512364306928147,-1,-4,-2,-1,-2,0,1,4
1512364306933146,-1,2,2,0,-2,-1,0,-1
1512364306933146,-1,-1,1,-1,-2,-3,0,0
1512364306948162,-4,1,1,-2,-3,-2,-2,-1
1512364306948162,-2,-4,0,0,0,-3,0,1
1512364306949663,-2,0,0,0,0,-2,1,-1
1512364306949663,2,2,-3,-1,0,-3,1,-1
1512364306970675,-3,-3,-1,-1,-2,-1,0,-3
1512364306970675,2,1,-2,-3,0,-1,2,1
1512364306972168,-1,1,-1,-1,-2,-1,1,-1
