timestamp,emg1,emg2,emg3,emg4,emg5,emg6,emg7,emg8
1513174623596284,-1,1,0,-4,0,0,-1,-2
1513174623596284,0,-2,0,-1,0,-2,-1,0
1513174623603287,1,0,-2,-5,-3,-3,-2,-1
1513174623603287,2,-1,-2,-3,-1,0,0,-3
1513174623619800,0,0,1,4,-3,-2,-1,-1
1513174623619800,-2,2,-2,0,-3,-1,-1,0
1513174623620799,-1,-1,1,-8,-1,-2,0,-1
1513174623620799,-2,-2,-3,8,2,-1,-3,0
1513174623641815,-2,-2,-1,-9,-3,0,-1,-1
1513174623641815,-1,-3,-2,8,3,-2,-1,-2
1513174623643315,-2,-3,-1,-3,-1,0,-1,0
1513174623643315,1,-3,-5,-4,-1,-4,-2,-1
1513174623656324,-3,-4,-2,-7,-3,-1,1,0
1513174623656324,-4,0,1,0,-1,0,-1,-2
1513174623663330,0,1,-2,-1,-1,0,0,-2
1513174623663330,-1,-1,0,-3,-4,-2,-2,-1
1513174623679341,-1,0,-1,5,5,0,-1,-1
1513174623679341,-2,-1,-2,-2,-4,-1,0,-2
1513174623680842,1,1,-4,3,2,-3,-1,0
1513174623680842,-3,-1,0,-3,-3,-2,0,-1
1513174623702369,-1,-1,-2,-7,-3,-2,-1,-1
1513174623702369,0,0,0,-2,-3,-1,0,-1
1513174623708376,0,0,-1,2,1,0,-1,-1
1513174623708376,1,2,3,3,-1,0,-1,0
1513174623715376,-4,-2,-1,-2,2,0,-1,-2
1513174623715376,0,-1,0,-3,1,-1,-2,-2
1513174623724373,-3,-2,0,-1,0,0,-2,-1
1513174623724373,-5,3,-1,0,0,-2,1,-1
1513174623739446,0,-2,0,-8,-6,-2,-2,-1
1513174623739446,-1,-1,0,4,0,-2,0,-2
1513174623740924,0,-2,0,-2,1,1,0,0
1513174623740924,-2,-4,0,3,1,-1,-1,-2
1513174623761952,2,3,-1,1,-4,-2,-2,-1
1513174623761952,0,-2,-5,-7,-1,-1,-3,-1
1513174623763462,-2,0,0,2,-3,-2,-1,-2
1513174623763462,0,-2,-2,-12,-3,-2,-2,-1
1513174623775451,2,0,0,2,2,0,-1,0
1513174623775451,-1,-4,-3,-2,-2,-2,-2,0
1513174623784455,0,0,-4,4,0,0,-1,-1
1513174623784455,0,-1,1,1,-2,0,-1,-1
1513174623799465,-3,-2,1,2,-3,-3,0,-2
1513174623799465,-2,-4,-6,1,4,0,0,0
1513174623800966,1,1,-2,-6,-3,-2,1,0
1513174623800966,-2,1,-4,-9,-2,0,0,0
1513174623821981,-2,0,-3,14,2,-2,-3,-2
1513174623821981,1,0,2,-3,-4,-1,-2,0
1513174623823483,-2,-3,2,-1,0,0,-1,-2
1513174623823483,1,-1,-1,-7,-3,-1,-1,0
1513174623835491,-1,-1,-2,0,-1,-1,-2,-2
1513174623835491,0,0,0,-2,-2,-1,0,-2
1513174623844497,-1,-5,-3,5,3,-1,-2,0
1513174623844497,-6,-2,3,5,0,0,0,-3
1513174623859520,0,0,-3,-13,-3,-2,2,0
1513174623859520,0,0,-1,1,0,-1,-1,0
1513174623861011,1,0,-1,-10,-6,-2,-1,-1
1513174623861011,-2,-4,0,8,3,0,-1,-1
1513174623882034,0,0,-1,-2,-1,-1,-1,0
1513174623882034,-2,0,0,0,-2,-1,0,-1
1513174623883525,-2,0,-2,1,-4,-2,0,0
1513174623883525,-1,0,-3,-10,0,-1,-1,-1
1513174623896034,-3,-4,2,-1,-3,-2,0,-1
1513174623896034,0,1,0,-6,0,-3,0,2
1513174623904552,-3,-2,1,6,0,0,-2,-3
1513174623904552,0,-1,-1,-3,-1,-2,-3,-2
1513174623919562,-1,1,-1,4,1,-1,0,-1
1513174623919562,-1,-4,-3,-5,-2,-2,-2,0
1513174623921052,2,0,-1,-10,-4,-4,-3,1
1513174623921052,0,-2,-3,13,3,-1,-1,-2
1513174623942069,-2,-2,-4,-8,0,-1,-2,0
1513174623942069,-2,0,-1,-1,-3,0,-1,-1
1513174623943568,-3,-1,0,-4,0,0,0,-2
1513174623943568,0,1,-2,1,-1,-1,-2,-4
1513174623955601,0,-1,-2,-1,-2,-1,-1,0
1513174623955601,0,-2,0,3,-1,-2,-1,-2
1513174623964583,-3,-1,0,-6,0,-2,0,0
1513174623964583,1,2,2,-9,-4,-2,0,-2
1513174623980094,-1,-6,-6,4,-1,-2,-1,-1
1513174623980094,-3,-5,3,2,-2,1,0,1
1513174623985597,-5,-4,-1,-2,1,1,0,-2
1513174623985597,-1,-4,-2,5,2,-1,0,1
1513174624001623,1,5,1,-5,0,-1,-2,0
1513174624001623,3,1,-2,0,-3,-1,-1,-1
1513174624003624,-2,-1,-3,0,-3,-3,-2,0
1513174624003624,-4,-5,-5,-3,1,1,-1,-1
1513174624015628,0,-3,-1,-1,-2,-2,0,-2
1513174624015628,-1,0,-2,-11,-1,-1,0,-2
1513174624030642,-1,0,0,13,2,0,-2,-1
1513174624030642,-1,0,-1,0,0,-3,-1,0
1513174624039636,2,0,0,-2,-2,-1,-1,-1
1513174624039636,1,-1,-3,-1,-1,-2,-1,1
1513174624041136,-1,0,-3,-7,-4,-2,-1,-3
1513174624041136,-1,-2,-1,-3,-3,-2,-1,0
1513174624062152,-1,1,2,0,1,1,-1,-2
1513174624062152,-1,-3,-1,1,0,0,1,-1
1513174624063653,0,0,0,-1,2,-1,-1,-1
1513174624063653,-1,0,-2,-1,-1,0,0,-2
1513174624075661,-5,-3,1,-2,-3,0,0,-2
1513174624075661,-2,0,-4,1,0,0,-2,-2
1513174624084668,-1,-6,-3,-1,0,-1,-1,-1
1513174624084668,0,1,-1,-7,-4,-2,-3,2
1513174624099677,-5,-3,0,-2,-1,-1,1,-1
1513174624099677,0,0,-1,3,-1,-1,0,1
1513174624101189,1,3,-3,0,-3,-2,0,-3
1513174624101189,-1,-3,0,-5,-2,0,-1,-2
1513174624121703,2,-1,0,-1,-2,-2,-1,-1
1513174624121703,0,4,-4,-3,-2,-2,-2,0
1513174624123694,-2,0,0,-1,0,1,0,0
1513174624123694,-3,-2,0,2,-1,-2,-2,-3
1513174624144209,-1,-1,-3,-10,-3,0,0,-1
1513174624144209,-3,1,0,10,0,1,-1,-1
1513174624146211,-2,-3,-1,-3,-3,-2,-1,-1
1513174624146211,1,0,-1,-2,-1,-1,0,-2
1513174624174741,0,-1,-1,3,1,-2,0,1
1513174624174741,0,-3,-2,-4,-2,-2,-3,-2
1513174624176247,2,-4,-3,-5,-2,-1,0,1
1513174624176247,-4,0,-3,0,-1,-2,-1,-1
1513174624181748,-1,0,1,1,-2,-1,-1,0
1513174624181748,-1,0,-2,-1,-2,-1,0,-1
1513174624183749,0,0,-1,1,-1,-2,-2,1
1513174624183749,1,3,0,-3,-2,-2,0,-1
1513174624205266,1,-3,-1,5,-3,-2,-1,0
1513174624205266,-1,1,-4,-9,0,-2,-1,-2
1513174624206779,0,-3,-1,5,-1,-1,-1,-1
1513174624206779,-1,1,2,-5,-2,0,0,0
1513174624219263,-1,10,-5,1,3,0,-1,-2
1513174624219263,0,-18,-2,6,0,-1,-1,0
1513174624221264,-6,1,2,-5,-1,-2,-1,-3
1513174624221264,0,-1,-4,-7,-3,-2,-1,-1
1513174624242292,-1,3,2,4,-4,-2,0,-2
1513174624242292,-1,3,-7,-1,2,0,0,0
1513174624243791,-1,-2,-1,-1,1,-2,-1,0
1513174624243791,-1,-7,4,11,1,-1,-1,-2
1513174624264294,0,-4,-2,-6,-2,-1,-1,-1
1513174624264294,-2,2,2,-2,-1,-1,0,-1
1513174624265795,-1,-2,-2,-2,-5,-1,0,-1
1513174624265795,0,-1,-5,-9,0,-1,-1,-2
1513174624278805,0,-4,1,-5,1,1,-1,-2
1513174624278805,-1,-2,4,13,2,-1,-1,-1
1513174624285808,-1,0,-6,-7,-4,-2,-1,-2
1513174624285808,1,0,4,4,-2,-1,-1,0
1513174624301821,1,-1,-1,-4,0,-2,-3,-1
1513174624301821,-3,0,-4,0,-3,-1,-1,-1
1513174624304322,6,4,-1,-6,-3,-2,-1,1
1513174624304322,-3,0,-2,4,4,1,-1,0
1513174624324340,-2,-2,-3,-2,1,0,-1,1
1513174624324340,-3,2,0,-1,-2,-2,-3,-1
1513174624325838,1,0,0,2,0,-2,-1,-2
1513174624325838,-1,-2,-2,-6,-4,-3,-1,-3
1513174624338846,0,-1,-3,-1,-3,-1,-1,-1
1513174624338846,2,-1,-1,-6,0,1,0,0
1513174624352856,-3,-2,3,6,0,-1,0,-1
1513174624352856,-3,0,-1,-4,0,0,-2,-2
1513174624361862,-1,-2,-4,-3,-3,-2,-1,-2
1513174624361862,-2,-3,4,1,-1,-3,0,0
1513174624363363,-4,-3,0,-2,-1,-2,-1,-1
1513174624363363,-2,-1,1,2,-3,-1,0,-1
1513174624384380,1,-1,-2,-15,-7,-3,-2,-3
1513174624384380,1,2,0,3,3,1,0,-2
1513174624385880,-1,-3,2,2,0,0,0,0
1513174624385880,-1,-2,-3,5,1,-1,-1,0
1513174624398901,-2,-1,-1,0,-1,-2,-3,-1
1513174624398901,2,-1,-4,-4,-4,-3,-1,-2
1513174624405405,-2,-2,-1,-4,-2,-2,-2,-1
1513174624405405,-1,-3,-1,-1,-4,-1,-1,-1
1513174624421917,-2,-2,-1,2,0,1,-2,-1
1513174624421917,-1,-1,0,-2,-1,0,-2,0
1513174624423418,-2,0,-2,-1,-2,1,-2,-1
1513174624423418,-2,-1,-1,-3,-1,0,-2,-1
1513174624444421,0,0,1,4,2,0,1,0
1513174624444421,-3,-4,3,-4,0,-2,0,-1
1513174624445921,-1,0,-2,-5,0,0,0,-1
1513174624445921,-1,-1,-1,2,1,-2,0,-1
1513174624458940,-3,-4,0,1,-2,-1,-1,-1
1513174624458940,-1,-1,-4,-3,-2,0,1,0
1513174624465446,-2,-2,0,0,0,0,-1,-1
1513174624465446,1,1,-1,-1,-1,-2,0,-2
1513174624481957,-1,0,-2,4,1,2,-1,-1
1513174624481957,-1,-3,-3,-4,-2,-1,-2,-2
1513174624483448,-6,-2,1,3,1,0,0,-1
1513174624483448,1,-2,-4,-2,-1,-1,-1,0
1513174624504494,2,-1,0,0,-1,-2,0,0
1513174624504494,-2,-2,1,-1,-1,0,-1,0
1513174624505965,0,-3,0,-2,0,0,0,0
1513174624505965,-1,-1,0,-2,-1,-1,-1,-1
1513174624518973,-1,-3,-1,2,1,-2,-1,-1
1513174624518973,0,0,-2,-5,-2,-2,-3,1
1513174624525478,-1,0,-2,-1,-3,-2,-1,-2
1513174624525478,0,0,-2,0,-1,-2,-2,0
1513174624541993,-3,-2,1,5,1,-1,0,-2
1513174624541993,-2,0,-2,-3,-2,-2,1,-1
1513174624543506,1,0,-2,-2,-1,-1,-3,-3
1513174624543506,-2,-1,-2,-3,-3,0,-2,0
1513174624564506,1,0,-1,-1,-2,-1,0,1
1513174624564506,0,1,-2,-1,-2,-1,-2,-2
1513174624566007,3,2,-3,-4,-2,-1,-1,0
1513174624566007,-1,1,1,-3,-2,-1,1,-2
1513174624579017,0,0,-2,9,5,-2,-1,-1
1513174624579017,-1,0,2,1,-1,0,-1,1
1513174624585543,-4,-3,0,2,-1,1,0,0
1513174624585543,-1,-2,-2,-1,-1,0,-1,-1
1513174624602033,-2,-2,0,-6,-5,-2,-2,-2
1513174624602033,1,-2,-4,-1,1,-2,0,-1
1513174624603537,-1,1,0,0,0,-1,-1,-2
1513174624603537,0,-2,-2,-2,-1,0,-2,0
1513174624624560,0,-1,-2,-1,0,0,0,0
1513174624624560,0,0,-1,-1,-2,-1,0,-2
1513174624626059,-2,0,-1,-4,-4,-3,-3,-1
1513174624626059,-1,-1,-2,6,1,-2,-2,-2
1513174624638061,-1,0,-2,-4,-2,0,-1,0
1513174624638061,-1,-1,-2,-3,0,-2,-2,1
1513174624647064,-1,-1,-3,-1,0,-2,-1,-1
1513174624647064,-3,-2,-1,-3,0,-1,-2,0
1513174624662077,-2,0,-1,-2,0,-1,-2,0
1513174624662077,-2,-1,-1,-2,-1,-1,1,0
1513174624663578,0,2,1,1,-1,0,-1,0
1513174624663578,0,-1,-1,-3,-3,-2,-1,-2
1513174624683656,-2,-2,1,-2,0,1,0,0
1513174624683656,0,1,-3,-2,-3,0,-2,-2
1513174624692097,-1,-2,-1,2,1,0,-2,0
1513174624692097,0,1,0,-1,-2,-3,1,-2
1513174624698112,-1,-1,-1,4,-6,-3,-1,-1
1513174624698112,-5,-5,-1,-9,-1,-1,0,-2
1513174624707119,-2,-1,-2,-3,0,-1,0,-1
1513174624707119,-1,3,0,7,2,0,-1,-2
1513174624721126,-1,-3,-3,-2,-2,-1,1,-2
1513174624721126,0,-1,0,5,-3,-1,-2,-1
1513174624729629,-3,-2,-2,-5,-4,-3,-1,-1
1513174624729629,0,0,1,-4,-1,-1,0,2
1513174624744143,1,0,0,-3,0,-1,-2,-1
1513174624744143,-1,0,-1,0,0,0,-1,-1
1513174624746145,0,-3,0,-2,0,1,0,-1
1513174624746145,1,-2,-2,-3,-2,-2,-1,0
1513174624758153,-1,0,-3,-3,-1,0,-3,0
1513174624758153,1,-1,-1,1,-1,-2,-1,-1
1513174624767149,-2,0,-5,0,1,-1,-1,-2
1513174624767149,-6,-2,1,-1,-1,0,0,-4
1513174624782159,-2,-1,-2,-1,-1,0,0,-1
1513174624782159,2,1,-3,-1,0,0,-1,-2
1513174624783660,-1,0,-1,-1,-2,-2,-1,-2
1513174624783660,0,-2,-2,-4,-2,1,-1,0
1513174624804675,0,0,-1,-2,0,-1,-1,-1
1513174624804675,-1,-2,0,0,-1,-2,-2,0
1513174624806176,-2,-3,-1,1,0,0,-2,-1
1513174624806176,1,-2,-3,-3,-2,-1,0,-1
1513174624818185,-2,-2,-1,-1,0,-2,-1,-2
1513174624818185,0,-1,1,-1,-1,-1,0,-2
1513174624833195,-2,0,-1,-1,-1,-2,0,-2
1513174624833195,-1,0,2,4,-2,0,-2,0
1513174624841703,0,-3,-5,-7,-2,-2,-2,0
1513174624841703,0,0,0,7,4,1,-2,-1
1513174624843704,0,-1,0,-3,0,-2,0,-2
1513174624843704,-2,-2,-3,0,-2,-1,-3,-1
1513174624864217,-1,-1,-1,-14,-6,-3,1,-1
1513174624864217,-2,-2,-3,8,0,-2,-1,-1
1513174624866219,0,1,1,5,0,-1,-2,-2
1513174624866219,-2,0,-1,-3,-2,-2,-1,-1
1513174624878229,0,1,0,-2,-2,-1,0,0
1513174624878229,-2,0,-4,-5,-5,-2,-2,-1
1513174624893239,-1,2,-2,1,2,0,0,-3
1513174624893239,-1,-2,-2,-1,-1,-1,-3,-2
1513174624901754,0,-1,0,0,-1,-2,0,0
1513174624901754,0,-2,-3,-7,-3,-1,-1,1
1513174624903756,-2,-2,0,-2,-2,-1,-2,0
1513174624903756,-1,-3,0,-3,1,1,0,-2
1513174624924284,-2,-2,-2,3,1,-1,0,-2
1513174624924284,-1,-2,-2,-3,-3,-1,-1,0
1513174624926272,-1,-4,-1,0,-1,-1,-1,-1
1513174624926272,-3,-3,-1,-4,-1,-2,-1,-1
1513174624938270,-1,0,0,13,0,-1,-3,-1
1513174624938270,0,0,-1,-8,-3,-2,0,0
1513174624947277,-1,-2,-3,4,4,2,-1,0
1513174624947277,-2,1,-2,-3,-3,-3,-2,-2
1513174624962292,-1,0,-3,0,-1,-1,-1,-1
1513174624962292,-1,0,1,-2,-2,-1,0,-1
1513174624963790,-1,-3,-1,1,-3,-1,-1,-1
1513174624963790,-1,-2,0,-1,1,-1,0,-1
1513174624984323,-2,-3,-1,1,1,0,-1,0
1513174624984323,-1,-2,-1,-3,1,-2,-2,0
1513174624986318,0,-1,1,-9,-5,-2,0,-1
1513174624986318,0,2,0,6,3,-1,-1,-3
1513174624998317,0,-1,0,-5,-3,-2,-1,-1
1513174624998317,-2,-2,-1,2,-1,0,1,-1
1513174625007322,-1,-3,0,-1,2,-1,-2,-1
1513174625007322,-1,-1,-1,-3,-4,-1,-2,-1
1513174625021841,-1,-2,-1,3,0,0,-1,-1
1513174625021841,1,-3,-1,-1,-2,-1,-1,-1
1513174625023342,-1,-1,-2,0,-4,-1,-2,-2
1513174625023342,0,-3,-2,-4,-1,-1,0,0
1513174625044345,-2,-1,1,-4,1,0,0,0
1513174625044345,-1,1,-1,-1,-2,-1,-2,-3
1513174625045847,-1,1,-2,-1,-1,-1,-3,-2
1513174625045847,-2,-1,0,-2,-1,0,-1,0
1513174625066872,1,0,-3,-2,-2,-1,-1,-2
1513174625066872,-1,-1,-2,0,1,-2,-2,0
1513174625068362,-1,0,0,1,1,-1,-1,0
1513174625068362,-1,-1,-1,0,0,-1,0,1
1513174625089400,-1,-1,0,-10,-5,-1,-2,-3
1513174625089400,-1,-2,-1,18,4,-1,0,-1
1513174625090900,-1,1,-1,-10,-5,-1,-2,0
1513174625090900,-3,-1,0,0,-2,-1,0,-1
1513174625104387,0,-1,1,4,-1,-1,-2,-2
1513174625104387,-2,-2,-3,-9,-3,-1,-2,-2
1513174625105889,1,-1,2,9,4,-1,0,-1
1513174625105889,-2,1,-1,-4,-3,-2,-2,-1
1513174625127088,-1,-1,-1,7,2,1,0,-1
1513174625127088,-2,-1,-2,-5,-5,-1,0,-1
1513174625128589,-1,-2,-1,-2,-3,-2,-1,-1
1513174625128589,0,-1,-1,-1,2,-2,0,-2
1513174625141596,-2,2,-1,1,-1,0,0,0
1513174625141596,-2,0,0,-4,-1,-2,-1,-2
1513174625143600,-1,-2,-4,2,-2,0,-1,-1
1513174625143600,-1,-1,0,-3,-2,-1,-1,-1
1513174625164121,0,0,-2,-3,-2,-2,-2,-1
1513174625164121,-1,-2,-1,-5,-2,2,2,0
1513174625166113,-2,0,0,-4,-3,0,0,-1
1513174625166113,-5,-3,1,3,-1,0,-1,-3
1513174625186630,0,-3,0,-1,0,-1,-1,0
1513174625186630,-2,-2,-1,-1,-3,-1,-1,-1
1513174625188644,-2,0,2,2,-2,-3,-1,-3
1513174625188644,0,0,-4,-5,-2,0,0,1
1513174625202181,0,-1,-1,-5,-2,-1,-1,0
1513174625202181,0,-2,1,-4,-1,-1,-2,-1
1513174625203691,-4,-2,-2,4,0,0,0,-2
1513174625203691,0,-2,-1,0,-2,-1,-2,-3
1513174625224193,-1,-2,-1,7,1,0,-2,-2
1513174625224193,-2,-1,-2,-5,-1,-2,-1,1
1513174625226195,0,-2,0,-12,-4,-2,-1,-2
1513174625226195,-1,-1,1,3,-1,-2,-1,-1
1513174625246709,-3,-3,-1,-5,-1,-1,0,-1
1513174625246709,-1,-1,0,9,1,-2,0,0
1513174625248711,0,-2,-2,-4,-2,-2,-1,0
1513174625248711,0,-1,-1,-4,-2,0,0,-2
1513174625261239,0,-2,-1,-3,-1,-1,-3,-1
1513174625261239,-1,-2,-1,0,0,0,-1,0
1513174625275232,-1,2,-2,-5,-2,-2,-2,-1
1513174625275232,-1,2,0,4,2,0,0,-1
1513174625284274,-3,0,-1,-1,0,-1,0,-1
1513174625284274,0,1,0,0,0,0,-2,-3
1513174625286242,-3,0,1,4,-2,-1,-1,0
1513174625286242,-2,-1,-3,-8,-2,0,0,-3
1513174625306752,0,-1,-1,-1,0,-1,-1,0
1513174625306752,-1,-2,0,-3,0,0,-1,0
1513174625308753,0,-2,-2,-5,-4,-2,-1,-1
1513174625308753,-2,0,0,-1,-3,-3,-3,-3
1513174625329268,-2,-2,0,7,3,0,0,0
1513174625329268,-1,-1,-3,-11,-3,-1,-1,0
1513174625331269,-1,-1,-2,11,2,-1,-1,-2
1513174625331269,1,0,-1,-5,-4,-3,-1,-1
1513174625344282,0,-1,-4,-5,-2,0,0,-2
1513174625344282,-1,-1,-2,6,-2,-1,-1,0
1513174625345779,0,-1,0,-7,-1,0,-1,-1
1513174625345779,-1,0,0,3,-1,0,-1,-2
1513174625366804,1,0,-2,-1,-1,-1,-2,-1
1513174625366804,0,-1,-3,1,-1,0,-2,0
1513174625368295,-3,-2,0,-6,-4,-1,0,-1
1513174625368295,-1,0,-1,10,2,0,0,0
1513174625381306,-1,-1,-1,-10,-2,-1,-2,-1
1513174625381306,0,0,-2,-2,-1,-1,-1,-3
1513174625388309,0,-2,-1,0,0,1,-1,-1
1513174625388309,0,-2,1,-12,-3,0,-3,0
1513174625404322,1,2,-2,9,2,-1,-3,-2
1513174625404322,-2,-2,-1,-6,0,-1,0,0
1513174625406327,-1,-1,-1,3,-2,-2,0,-1
1513174625406327,0,-1,-2,6,0,-1,0,0
1513174625426858,0,-1,-3,-6,-6,-1,-2,-1
1513174625426858,-1,-1,-1,5,1,-1,-1,0
1513174625428338,0,-1,-2,-4,-1,-1,-1,-1
1513174625428338,0,0,-2,-5,-2,-3,-2,-1
1513174625441349,-4,-2,-1,6,4,1,0,-1
1513174625441349,0,-2,-1,0,-1,1,-2,-1
1513174625447851,2,-1,-1,-4,-3,-1,-1,-2
1513174625447851,-1,-3,-1,-1,-1,-1,-1,-2
1513174625464373,-3,-1,-2,-8,-3,-2,0,-1
1513174625464373,-1,-2,0,8,2,0,-1,0
1513174625465874,-2,-1,-1,-2,1,0,-2,0
1513174625465874,-2,0,-2,-2,-4,-1,-3,-1
1513174625486381,-1,-3,-1,0,-2,0,-2,0
1513174625486381,-2,-3,0,-1,-1,-1,-1,-2
1513174625494384,-3,-1,-1,-3,-2,-2,-1,-2
1513174625494384,-4,-4,2,1,1,0,1,-2
1513174625501389,0,-3,-1,7,1,-1,0,2
1513174625501389,-1,-1,-1,-10,-2,-3,-1,-1
1513174625509396,-1,0,-1,-2,0,-1,0,-3
1513174625509396,-2,1,0,-1,-2,-1,0,-1
1513174625524412,-1,0,-3,-2,-4,0,0,-2
1513174625524412,-1,-2,0,-1,-2,-1,0,0
1513174625531911,0,-2,-2,2,1,-3,-2,-1
1513174625531911,1,-1,-2,-4,-2,-1,-2,0
1513174625547014,-1,-1,1,-3,-2,-1,-1,-1
1513174625547014,-1,1,-1,2,-2,-1,-2,-1
1513174625548599,0,1,-1,-3,-2,-2,0,-1
1513174625548599,0,-2,0,-6,-3,-3,-1,0
1513174625560610,-1,-2,0,10,3,0,-2,-2
1513174625560610,-1,0,-3,-2,-2,0,-1,-1
1513174625569626,-1,-2,-2,-4,-3,-1,-1,0
1513174625569626,-1,-3,-1,7,2,-1,-1,-1
1513174625584178,-4,-3,0,-9,-3,-2,0,0
1513174625584178,-3,-3,0,0,0,-1,0,-2
1513174625586173,-2,0,0,1,-1,0,-1,-1
1513174625586173,-2,-1,-1,0,0,0,-2,-2
1513174625606750,0,-2,0,-5,-4,-2,0,-1
1513174625606750,0,0,1,-1,-1,-1,-1,-1
1513174625608700,-1,0,-3,-5,0,0,-1,-2
1513174625608700,0,1,0,0,-2,-1,0,-1
1513174625620697,-1,0,-2,0,0,-1,-1,-2
1513174625620697,0,-2,-3,-1,-1,-1,-1,0
1513174625629702,-2,-2,-1,2,-1,-3,-1,-3
1513174625629702,2,1,-2,-9,-3,-2,-1,0
1513174625651716,-2,-1,-4,6,1,-3,-1,-2
1513174625651716,0,-3,1,-2,-1,-1,-1,-1
1513174625653217,0,1,-1,-5,-3,-1,0,0
1513174625653217,0,-2,-1,8,1,-3,0,-2
1513174625666726,1,0,0,-10,-3,-3,-1,0
1513174625666726,0,0,-3,-1,1,-1,0,-1
1513174625668228,-3,-1,-1,2,0,-1,-2,-2
1513174625668228,-2,-3,-3,-6,-2,2,0,0
1513174625680750,1,-2,-1,3,-2,1,0,-1
1513174625680750,-1,-2,-1,3,0,-1,-2,-1
1513174625689746,-1,-3,0,-4,-1,1,0,0
1513174625689746,1,-1,-2,-1,0,-1,-2,-2
1513174625704253,-3,-3,-1,-5,0,1,-1,-3
1513174625704253,-2,-2,0,-8,-3,-2,-1,-1
1513174625706254,-2,-1,-2,13,3,-2,-1,-1
1513174625706254,-2,-1,1,4,-1,-1,-1,-2
1513174625726779,2,-1,-4,-15,-4,-1,-1,0
1513174625726779,-1,0,-2,-1,-1,-1,1,-2
1513174625750285,-1,-3,-1,-1,-3,0,-2,-2
1513174625750285,0,-1,0,3,1,-1,0,0
1513174625750786,-2,-2,0,1,-3,0,-1,1
1513174625750786,0,1,-2,-2,-3,-3,-1,-3
1513174625752287,-1,1,0,-3,-1,-2,1,-1
1513174625752287,-4,3,-1,-4,-3,-2,-1,-1
1513174625764295,-1,2,-1,-1,1,-1,-2,0
1513174625764295,0,-1,-1,7,1,-1,-2,-1
1513174625765796,-1,-1,1,-2,-2,-1,-2,0
1513174625765796,0,-4,0,0,-2,-2,-1,-1
1513174625786826,-2,-1,-2,-2,-2,-1,1,-1
1513174625786826,-2,0,-2,-5,-3,0,-1,0
1513174625788333,0,-2,-2,3,2,-1,-1,-4
1513174625788333,-1,-1,-1,0,-1,0,0,1
1513174625800372,-3,-4,0,1,2,0,-1,-2
1513174625800372,-3,1,-2,-3,-1,1,-1,-1
1513174625809379,0,0,-2,-2,-5,-2,-1,-2
1513174625809379,-1,-2,-1,-4,7,1,-2,0
1513174625824390,0,-1,-1,4,1,-3,-1,-2
1513174625824390,0,-3,-2,-5,-1,-2,-1,-2
1513174625825912,-7,-6,3,3,2,1,1,0
1513174625825912,-1,1,0,1,-3,-2,-2,-1
1513174625846906,2,1,-3,2,-1,-2,-1,-1
1513174625846906,0,-3,-3,2,1,-1,-1,-2
1513174625848406,0,0,-2,-6,-3,-2,-1,0
1513174625848406,-3,-5,0,-4,-3,-1,-1,-2
1513174625860606,-1,-1,2,8,2,0,-2,-1
1513174625860606,-2,-1,-1,0,0,-2,0,-1
1513174625877058,3,1,-3,1,1,0,-2,-2
1513174625877058,-1,2,-2,-7,-4,-1,-2,-1
1513174625884066,0,-1,-3,-2,-1,-1,-2,1
1513174625884066,1,3,-2,1,-1,-3,-3,-1
1513174625886067,0,0,-2,-7,-3,-1,-1,-1
1513174625886067,0,-3,-3,4,3,-2,-1,-1
1513174625907094,0,0,-1,-4,-3,-1,-1,-1
1513174625907094,-1,-1,0,3,0,-1,-2,-2
1513174625908582,-1,0,1,-8,-3,-1,-1,-1
1513174625908582,0,1,-1,3,1,-1,-2,-1
1513174625920601,-3,-1,-1,1,-1,0,-1,-1
1513174625920601,-1,-1,-2,-5,-3,-2,0,0
1513174625929596,-3,-3,1,1,-1,-1,-2,-1
1513174625929596,-2,-1,0,-1,-2,-2,0,-2
1513174625951611,1,-2,-3,-9,-1,-2,-1,1
1513174625951611,-3,-1,0,-2,-1,-1,-1,0
1513174625953612,-2,-1,-1,11,2,1,-1,-1
1513174625953612,0,0,-1,-1,-2,-1,-1,-1
1513174625966621,-2,-2,-3,-1,0,1,1,-1
1513174625966621,0,0,-1,-10,-4,-1,-1,-2
1513174625968122,0,-1,-3,-5,-3,-1,0,-2
1513174625968122,-2,0,-1,-2,-2,0,0,-3
1513174625989140,-2,-2,0,0,-3,-2,-1,-1
1513174625989140,-1,0,0,1,-1,-1,-1,0
1513174625991142,-2,-1,-1,-2,-1,-2,0,-1
1513174625991142,-2,-1,-1,-2,-3,0,-1,-1
1513174626004148,-1,0,0,1,-1,-2,-2,-2
1513174626004148,-1,-3,-2,-3,0,-1,-1,-3
1513174626006166,-1,-1,0,2,1,-1,-1,0
1513174626006166,-2,0,1,-2,-2,-1,-1,0
1513174626026666,-1,-1,0,-4,-3,-2,-1,0
1513174626026666,0,-1,-1,9,2,-1,0,-1
1513174626028669,0,0,-2,-9,-4,-4,-2,-2
1513174626028669,-3,-2,-1,1,1,2,0,-2
1513174626049180,-3,-2,1,-2,0,0,1,0
1513174626049180,-1,-1,-1,-1,-2,0,-1,0
1513174626051181,-2,-2,-1,6,-2,0,0,-1
1513174626051181,0,-2,0,-6,2,0,-1,-1
1513174626064190,4,-2,-4,-3,-3,-1,-1,0
1513174626064190,-4,-2,1,-3,-2,0,-1,-1
1513174626066191,-1,1,0,-6,-2,0,-1,-1
1513174626066191,-1,1,-1,9,0,-2,0,-1
1513174626086721,-1,0,-1,-1,-1,0,0,-2
1513174626086721,0,-1,-3,-4,-2,-1,0,-1
1513174626088207,-2,-1,0,1,2,0,-1,-1
1513174626088207,1,1,-2,-5,-5,-1,0,0
1513174626109723,1,-1,0,-5,-3,-1,-1,-1
1513174626109723,0,-1,-1,4,2,-1,-1,-1
1513174626115226,-1,0,-2,-6,0,1,-1,-2
1513174626115226,-1,-2,-3,-5,-4,0,-1,-1
1513174626124233,-1,-1,-1,7,2,-1,-1,1
1513174626124233,-3,-4,-1,-3,-3,-1,0,2
1513174626132266,-1,0,-1,-4,-3,-3,0,-1
1513174626132266,-1,-1,-4,5,3,-2,-1,-2
1513174626146763,-4,-2,1,5,-2,-1,-1,-2
1513174626146763,0,0,-1,-3,-4,-1,-1,0
1513174626148251,-1,0,-1,2,3,-2,-3,-1
1513174626148251,0,-2,0,-3,1,-1,1,0
1513174626169285,-1,-3,0,-1,0,1,-1,-2
1513174626169285,-1,-1,-1,-2,-1,0,0,-1
1513174626171285,-2,-4,-1,-5,-3,-1,1,-2
1513174626171285,0,-1,0,-2,-3,-1,-2,0
1513174626183795,-1,0,-2,-1,0,-2,-1,0
1513174626183795,-1,-1,-3,-4,0,-2,0,-4
1513174626190302,1,-1,0,1,-2,-1,-3,-1
1513174626190302,-1,0,0,0,0,-1,-2,-1
1513174626206804,-2,-2,-1,0,-1,1,-1,-3
1513174626206804,0,0,-1,0,-2,-3,-1,0
1513174626208293,0,0,-2,-1,-1,-1,1,-2
1513174626208293,0,0,-1,-2,-4,-2,-1,0
1513174626229312,-1,0,-3,-15,-7,-2,-2,-2
1513174626229312,-3,-1,-2,13,7,2,-2,-2
1513174626231309,1,-2,-2,-8,-5,-1,-2,-3
1513174626231309,-2,-2,-1,7,0,-3,-2,-1
1513174626252336,0,0,-1,0,-3,-1,0,-3
1513174626252336,0,0,-2,-3,-3,-2,0,0
1513174626258341,-1,-1,0,0,-1,-1,1,-1
1513174626258341,0,1,-2,-5,-4,-1,-1,-3
1513174626266847,-1,-4,0,2,1,-1,0,0
1513174626266847,0,0,-1,-2,0,0,-1,-1
1513174626268335,-2,0,-1,1,0,0,-1,-1
1513174626268335,-1,-1,-2,-1,0,0,-1,-1
1513174626289852,0,-1,-1,5,2,2,-2,-1
1513174626289852,0,-1,-1,-5,-3,-1,-1,-3
1513174626291872,-1,-1,0,2,-2,-2,-1,-1
1513174626291872,-1,-3,-1,-2,-1,0,-1,0
1513174626303860,-2,0,-2,-9,-4,-1,0,1
1513174626303860,0,-1,1,4,1,0,1,-2
1513174626310364,0,-3,1,6,4,-1,0,-1
1513174626310364,0,-2,-1,-4,-2,-3,0,-1
1513174626326918,1,-1,0,-1,-1,-2,0,-1
1513174626326918,-1,0,-4,-7,-3,-3,-2,-2
1513174626328377,3,1,-4,-3,-2,-1,-1,-1
1513174626328377,-3,-1,-1,3,1,2,-1,-1
1513174626349127,-1,-1,-3,-3,-2,-1,-1,-1
1513174626349127,-2,1,0,3,-2,0,-2,1
1513174626351129,-1,0,-2,1,-1,-1,-2,0
1513174626351129,-1,-2,-1,-2,-1,-2,2,-1
1513174626371637,-3,0,-1,-4,-1,-1,-3,-2
1513174626371637,-2,-2,0,-1,0,1,0,-2
1513174626373636,-5,-2,-2,-6,-3,-1,-1,-1
1513174626373636,-2,-3,2,5,1,-1,0,-1
1513174626386648,2,-1,-1,2,1,-1,0,-2
1513174626386648,1,-2,-1,-2,-2,-2,-2,0
1513174626388646,-2,-2,0,-5,-4,1,-1,-1
1513174626388646,-1,0,-2,0,-1,1,-3,0
1513174626409161,0,-2,-2,1,0,-2,-1,0
1513174626409161,-2,0,-1,0,-1,0,0,0
1513174626411162,-1,0,-1,-3,-2,-2,0,-1
1513174626411162,2,0,-2,-5,-2,-1,-1,-1
1513174626423674,-4,-2,2,8,1,1,-1,-1
1513174626423674,-2,-3,-2,-6,0,-1,-1,-2
1513174626430677,-2,-1,1,2,1,-1,-1,-1
1513174626430677,1,-1,-2,-3,0,-3,0,0
1513174626446688,3,2,0,-3,-3,-3,-1,0
1513174626446688,-3,-2,-1,3,-2,-1,-2,-2
1513174626448704,3,0,-3,1,-1,-2,-2,-1
1513174626448704,-2,-1,0,-2,-1,-3,0,-2
1513174626469217,0,-1,-1,-5,-1,0,-2,0
1513174626469217,-1,2,-2,3,-1,-3,0,0
1513174626475733,1,1,2,-1,-2,0,-1,-2
1513174626475733,-2,0,-1,-1,-1,-1,-2,-1
1513174626483715,-1,-1,-3,-7,-3,-3,-1,-2
1513174626483715,-1,-1,0,-2,-2,1,-2,0
1513174626490234,-2,-2,-1,4,-1,0,0,-2
1513174626490234,-1,-1,-2,-4,-4,0,0,0
1513174626506732,-3,-5,0,1,-1,1,-1,0
1513174626506732,3,0,-2,-3,-2,0,-1,-1
1513174626508233,0,1,-1,0,0,-1,0,0
1513174626508233,-1,-2,-2,-2,-1,1,-1,-2
1513174626529259,0,0,-1,-6,-3,-3,-2,-1
1513174626529259,-1,-2,0,10,1,0,0,-1
1513174626531248,1,-4,-1,-3,-2,-2,-1,0
1513174626531248,-1,-3,-1,0,0,-1,-1,0
1513174626543270,-2,0,-1,1,-1,-1,0,0
1513174626543270,-1,-1,-2,-6,-2,0,0,-1
1513174626552262,1,1,-2,-1,-2,-1,-1,-1
1513174626552262,-1,-1,0,-9,-5,-3,-2,-2
1513174626566772,0,1,-1,12,5,1,0,-2
1513174626566772,-2,-1,1,-4,-3,-2,-1,-1
1513174626568779,-1,-1,-3,-1,-1,-1,-3,-1
1513174626568779,-1,2,0,-2,-1,-1,0,0
1513174626590315,0,-2,-3,5,1,0,-2,-1
1513174626590315,-1,0,0,-5,-2,-3,-2,-1
1513174626591815,-5,-3,2,5,1,-1,1,-1
1513174626591815,0,-1,-1,0,-1,-1,-1,-1
1513174626603325,-2,-2,1,-2,-2,0,0,0
1513174626603325,-3,-4,-2,-2,-1,-3,0,-1
1513174626612305,-3,-3,-1,-6,-3,-2,-1,-2
1513174626612305,0,0,-3,-1,-1,-1,-3,-1
1513174626626841,1,-1,-2,2,-1,-1,0,0
1513174626626841,0,2,-2,-5,-3,0,-2,-1
1513174626628317,-2,-3,-1,-2,-1,0,0,-1
1513174626628317,-2,-2,-1,2,2,0,0,-3
1513174626649330,1,-1,-3,-6,-3,-1,-2,-1
1513174626649330,-2,-1,1,5,-3,-1,-1,-3
1513174626650834,0,-1,-2,0,2,-1,-1,0
1513174626650834,-2,0,0,5,2,-1,-2,-3
1513174626663347,2,0,-2,-4,-2,0,-3,-1
1513174626663347,-3,-3,0,-4,-1,-1,0,1
1513174626672352,0,1,-1,0,-2,-3,0,-1
1513174626672352,-6,-6,3,2,0,-1,0,0
1513174626686884,-2,-2,-2,-4,-1,-2,-1,-2
1513174626686884,-1,0,-1,-3,0,0,0,-2
1513174626688384,-1,0,0,-1,-2,1,-2,0
1513174626688384,0,0,-2,1,1,-3,0,-1
1513174626709398,-1,-2,-3,-1,-2,-1,-2,-2
1513174626709398,0,0,-2,0,1,0,-1,-2
1513174626710874,0,0,-2,-2,-2,-1,-3,-1
1513174626710874,0,1,-1,-5,-3,-3,-3,-1
1513174626722908,-3,-1,-1,-6,-1,-1,-1,-2
1513174626722908,-2,0,-1,9,3,-2,-1,-2
1513174626731929,0,1,0,-4,-2,-2,0,-2
1513174626731929,4,0,-2,-2,-3,-2,-1,1
1513174626746958,-1,0,-2,1,-1,-1,0,-1
1513174626746958,-1,-1,-1,-6,-4,-1,-1,0
1513174626748562,-2,0,-1,1,1,0,0,-1
1513174626748562,-2,-2,-1,-3,0,0,1,-1
1513174626769087,0,-1,0,0,-2,0,0,-1
1513174626769087,0,-1,-1,-5,-1,-2,-2,-1
1513174626771087,0,-2,-2,1,-1,-3,-1,-1
1513174626771087,-1,-1,0,-2,-1,-1,-3,0
1513174626783087,-4,-3,1,1,0,-1,0,-1
1513174626783087,-1,1,0,-2,-2,-4,-1,0
1513174626792594,-2,0,-1,-2,0,1,-2,0
1513174626792594,-2,-4,-1,-4,-1,-1,-2,0
1513174626807622,0,-1,0,5,2,-2,0,-1
1513174626807622,-2,-3,-1,-1,1,0,-1,-1
1513174626809105,-2,-2,-1,2,0,-3,-1,1
1513174626809105,-1,0,-3,-1,-1,0,1,-1
1513174626829619,-1,-1,-1,-2,-1,-1,0,-3
1513174626829619,0,0,0,-5,-4,-1,-3,-2
1513174626831121,-2,-1,-1,-2,-1,0,-1,-2
1513174626831121,1,-1,0,2,0,-1,0,-1
1513174626851636,-1,0,-1,-9,-4,-1,1,2
1513174626851636,0,-2,-2,6,1,-3,-1,-2
1513174626852637,0,-2,1,-3,-1,-1,0,-1
1513174626852637,-1,-2,0,-1,-1,-1,-1,-1
1513174626866164,-1,-2,-2,4,-1,-2,-2,-1
1513174626866164,-1,0,0,-4,1,0,-1,-2
1513174626867165,-2,0,-2,-2,0,1,-1,-1
1513174626867165,-1,0,-2,-6,-3,-2,-2,0
1513174626889176,3,0,-4,8,2,0,-3,1
1513174626889176,-2,-2,-1,0,0,0,1,-1
1513174626896167,-2,-1,0,-1,-2,-1,-1,-2
1513174626896167,-1,1,-2,-1,-1,-1,0,-1
1513174626911194,0,-1,-2,-4,-1,0,-1,-1
1513174626911194,2,0,-2,-2,-2,-1,-3,0
1513174626912178,-2,-2,-1,0,-1,-1,-1,-2
1513174626912178,0,-1,-2,2,0,-1,0,0
1513174626926192,-1,-2,0,-1,-1,-1,-2,-1
1513174626926192,-3,-2,-2,-1,-2,-2,-1,0
1513174626927189,-2,-2,-1,-3,0,-1,-2,-3
1513174626927189,-4,-2,-2,1,-1,-2,-2,-2
1513174626948704,-2,-1,-2,-3,-1,-1,-1,-3
1513174626948704,-2,-2,-1,-2,-1,0,-2,-1
1513174626949205,-2,1,-1,-2,-3,-1,-3,0
1513174626949205,-2,-1,-1,3,2,1,0,-2
1513174626971220,-1,-1,0,-1,0,-2,-1,0
1513174626971220,-3,-2,-1,-1,-2,0,-1,-1
1513174626971739,1,0,0,-4,-3,-2,-1,0
1513174626971739,-2,-2,0,9,0,0,0,-2
1513174626986234,-2,0,-1,-2,-2,-2,0,-1
1513174626986234,0,-1,-1,0,-2,-2,0,0
1513174626986731,-1,-1,-1,-3,-1,0,0,0
1513174626986731,-1,-1,-1,-6,-3,-1,-1,-2
1513174627009260,-2,-3,-1,-1,0,-1,-1,0
1513174627009260,-3,-3,0,-3,-2,-1,-1,-2
1513174627016265,0,-1,-1,2,-1,-2,0,-2
1513174627016265,0,-1,-1,1,-3,-1,-1,0
1513174627031777,-2,-2,-3,0,-1,-2,-1,0
1513174627031777,2,-1,-6,-3,0,-1,-1,-1
1513174627032262,-5,-3,2,1,-1,-1,0,-1
1513174627032262,1,-2,-2,-1,-1,-1,-2,1
1513174627046273,-2,2,-1,-2,0,0,-2,-3
1513174627046273,-1,-2,-2,-3,-2,-1,-1,-2
1513174627046774,0,0,1,6,-1,-1,-1,-3
1513174627046774,0,0,-4,-9,-2,-1,-2,-2
1513174627068872,-4,-3,1,-1,-2,0,0,-3
1513174627068872,-2,0,0,-1,-2,-1,-1,-1
1513174627069364,1,-2,-2,-2,1,0,-2,-1
1513174627069364,0,-3,-1,-1,0,-2,-1,-2
1513174627091387,0,0,-2,-3,-1,-1,-1,-2
1513174627091387,-3,0,0,1,1,-2,-1,-2
1513174627091887,-3,-2,0,-3,-1,-1,-1,-1
1513174627091887,-1,0,-1,6,2,0,1,0
1513174627105896,0,-1,-2,-2,-2,-1,-1,0
1513174627105896,3,0,-3,0,-1,-3,-2,-1
1513174627106897,0,1,-4,-5,-2,-2,-1,-2
1513174627106897,-1,-1,1,-8,-3,-1,-2,0
1513174627128915,1,0,-1,5,2,0,-2,-1
1513174627128915,-2,1,0,-1,-2,-1,0,-2
1513174627129905,0,-2,-3,-1,-1,-2,-1,2
1513174627129905,-1,-2,-1,-3,-3,-1,0,-1
1513174627151419,1,-2,3,-2,-4,-1,-1,2
1513174627151419,0,1,0,-2,-1,0,-2,-2
1513174627158425,1,-2,-2,2,0,-1,0,-2
1513174627158425,0,-2,-1,-1,-1,-2,1,0
1513174627165971,-1,0,-3,-10,-4,-1,-1,0
1513174627165971,-1,0,0,4,1,0,-1,0
1513174627166972,-2,1,0,-2,-1,-2,-2,0
1513174627166972,-1,-1,-2,-1,1,0,-1,0
1513174627188632,-2,-2,-2,-1,0,1,0,-3
1513174627188632,-3,-2,0,-12,-5,-2,1,-1
1513174627189623,-1,0,0,9,3,-2,1,-2
1513174627189623,0,-2,-1,-1,-1,0,-1,1
1513174627219145,-4,-5,0,0,1,0,0,-2
1513174627219145,-1,-3,-2,-1,-1,-2,-1,1
1513174627220146,-3,-2,-1,-4,-2,1,-1,-3
1513174627220146,-2,-1,-1,0,-3,-2,-3,-1
1513174627226150,2,-1,-2,-2,0,-1,-3,-1
1513174627226150,0,-1,-1,-1,0,0,0,-1
1513174627227151,-2,-2,-1,-2,-1,-1,-1,-3
1513174627227151,0,-2,0,-3,-2,-1,-2,-1
1513174627248666,1,1,1,2,0,-2,-1,-1
1513174627248666,-1,1,1,3,-2,-1,-1,-3
1513174627249665,0,0,-2,-2,1,-1,-1,0
1513174627249665,3,5,-3,-3,-5,-2,-1,-1
1513174627271180,-2,-1,-3,-3,-1,-2,-1,-1
1513174627271180,0,-1,1,2,1,-1,1,0
1513174627271681,-1,-1,0,-4,-5,0,-1,-1
1513174627271681,-1,1,-2,10,4,0,0,0
1513174627286201,-1,-1,-1,-2,-1,-1,0,-2
1513174627286201,1,2,-5,-2,-2,-3,-1,-3
1513174627286694,2,-1,0,-5,-3,-1,-1,-1
1513174627286694,-1,-1,-1,-2,-1,0,0,-3
1513174627309293,-1,2,-3,-2,-3,-3,-1,0
1513174627309293,-1,-3,0,0,0,1,1,-1
1513174627316310,-1,1,-1,0,-1,-1,0,0
1513174627316310,1,-1,-1,-2,-2,-2,-1,-1
1513174627331318,1,-1,-1,-1,0,-1,0,0
1513174627331318,-1,-1,-1,-2,-2,-2,-4,-2
1513174627331818,-2,1,-2,1,1,-3,-1,-2
1513174627331818,-4,-4,-1,-2,-1,-1,0,-2
1513174627346319,0,0,-2,-2,-2,-1,-2,0
1513174627346319,-3,-1,-1,-2,-1,-2,-1,0
1513174627346819,0,-2,1,0,-4,-2,-2,-1
1513174627346819,-1,-4,-4,-3,0,-2,-2,-2
1513174627368844,1,-4,-1,7,1,-1,-2,0
1513174627368844,-1,-1,-1,-3,-1,-2,-1,-1
1513174627369334,-2,-1,-1,1,-2,0,0,-2
1513174627369334,-2,-1,0,-10,-5,-4,-1,0
1513174627391368,0,0,0,1,-1,-2,0,1
1513174627391368,0,1,0,1,1,1,-1,-2
1513174627391851,-1,-1,0,-3,-2,0,-1,0
1513174627391851,-3,-2,-1,0,1,-1,-1,-2
1513174627405862,-1,0,-2,-2,0,-2,-1,-3
1513174627405862,-2,0,-1,0,-1,-1,-1,-2
1513174627406864,1,-1,-1,-2,0,-1,-2,-1
1513174627406864,0,-1,-2,0,0,-1,0,0
1513174627428377,-2,-3,-1,-1,-3,-1,-1,-2
1513174627428377,-2,-2,-1,-3,-4,0,-2,-3
1513174627429378,4,4,-2,-2,-1,0,-3,-3
1513174627429378,3,-1,-2,3,1,0,-2,-1
1513174627451130,-2,-1,0,3,1,-1,-2,-2
1513174627451130,-1,-1,0,-5,-2,-2,0,1
1513174627452131,-2,1,-3,4,0,-2,2,-1
1513174627452131,1,-1,-2,-4,-2,0,0,0
1513174627466141,-2,1,-2,0,0,1,-1,-1
1513174627466141,0,-1,-1,5,-1,-2,-1,-1
1513174627467141,-3,-3,-1,-5,1,0,0,-1
1513174627467141,-3,-1,-3,-6,-2,-2,-2,-1
1513174627488677,-2,-3,0,4,-1,0,0,0
1513174627488677,-1,-2,0,-3,-2,-2,-1,-1
1513174627489671,-3,-4,-1,1,-1,-4,-1,-2
1513174627489671,-1,-1,0,3,1,2,-2,-2
1513174627511724,0,-1,-2,-7,-3,0,-1,-2
1513174627511724,0,1,-1,1,2,1,0,0
1513174627518725,0,-1,0,-5,-2,-2,-2,-2
1513174627518725,0,0,-1,3,1,-1,0,0
1513174627526230,1,2,-3,-1,0,-1,-1,0
1513174627526230,-1,-1,-2,2,1,-3,-2,-3
1513174627526731,-1,-2,0,-3,-1,-1,-2,-1
1513174627526731,-2,-2,0,2,-1,-1,-1,-1
1513174627548747,-2,-3,-2,-9,-5,-2,0,0
1513174627548747,-6,-6,2,1,-1,-2,0,-3
1513174627549248,0,0,-1,1,-1,-1,-2,0
1513174627549248,-2,0,0,-4,-3,-3,1,-1
1513174627571263,-1,0,-1,-2,-1,0,-1,-2
1513174627571263,-3,0,-1,3,1,2,-1,-2
1513174627571764,-1,-3,-3,0,0,0,0,-2
1513174627571764,-3,-3,1,5,0,1,-1,-2
1513174627585294,0,-1,-3,-8,0,-1,-2,0
1513174627585294,1,1,-2,-3,-2,0,-1,1
1513174627593825,0,-1,-2,-2,-2,-2,0,0
1513174627593825,0,0,-1,-6,-3,-2,-1,1
1513174627608800,-1,-1,1,13,2,-1,-1,-1
1513174627608800,0,0,-1,-1,-1,-2,0,0
1513174627609289,-1,-2,-3,-1,-1,-2,-1,0
1513174627609289,-2,-2,-2,-3,-2,-2,-2,0
1513174627632316,-3,0,-1,-3,-4,-3,-1,0
1513174627632316,-1,-2,-1,-3,-2,0,-1,-1
1513174627638810,-2,-3,3,0,-1,-1,0,0
1513174627638810,3,3,-2,-1,-2,-2,-2,0
1513174627645315,0,0,0,-3,-1,-1,0,-1
1513174627645315,0,1,-1,-2,-1,-3,-2,-2
1513174627653821,-2,0,-2,1,-1,0,-1,1
1513174627653821,-2,-1,-1,2,3,1,-2,-2
1513174627668841,2,-1,-2,-2,-3,-3,-1,-1
1513174627668841,0,2,-2,-5,-2,-2,-1,-1
1513174627669350,-2,-3,-1,-2,-1,-1,-2,-2
1513174627669350,-1,-1,-1,0,-1,0,1,0
1513174627690850,0,1,-3,-4,-3,0,0,1
1513174627690850,-4,-2,-1,0,-1,0,0,0
1513174627691848,-1,1,-1,-6,-2,-1,-2,0
1513174627691848,-2,-1,-1,4,2,-2,-1,-2
1513174627705357,-1,-1,-1,8,0,-2,0,0
1513174627705357,-1,-1,-3,-8,-3,-1,-1,-2
1513174627713863,-2,1,0,-3,-1,-1,0,-1
1513174627713863,-2,-1,-3,-4,-3,0,-2,-1
1513174627728874,-3,-2,-2,-4,-2,-1,-2,0
1513174627728874,0,-3,-1,-1,0,-4,-1,-2
1513174627729376,-1,-1,-2,1,-1,-2,-3,-1
1513174627729376,0,-1,0,-2,1,-1,0,0
1513174627750890,-6,-3,1,-6,-1,1,0,-3
1513174627750890,-1,-2,1,13,2,0,-1,0
1513174627751893,-2,-1,-1,-1,-2,-3,-1,-2
1513174627751893,0,-1,-1,-2,-2,-2,-1,-1
1513174627765401,-1,-1,-1,-4,-3,0,-1,0
1513174627765401,3,1,-1,-2,-1,0,1,2
1513174627773931,-4,-3,0,-1,-1,0,0,-2
1513174627773931,-2,-3,0,-2,0,-1,-1,0
1513174627788729,-1,-3,0,-2,-1,0,-1,-1
1513174627788729,0,2,-2,-3,-2,-1,-2,-2
1513174627789224,1,0,-3,2,1,-1,-1,-1
1513174627789224,0,0,-1,-5,-4,-1,-2,-1
1513174627811230,-2,-1,-2,-2,-2,-1,-1,-2
1513174627811230,-2,-4,-1,0,2,-2,0,-2
1513174627811730,-2,-1,0,1,0,0,0,0
1513174627811730,-2,-2,-2,-2,-1,-1,-1,-1
1513174627825243,1,0,-2,-2,-1,-3,-1,1
1513174627825243,-1,1,0,-5,-5,-3,-3,-1
1513174627833746,-1,0,-1,-2,2,-2,0,0
1513174627833746,1,0,-3,10,1,-1,0,-2
1513174627848756,2,0,-1,1,0,0,-1,-1
1513174627848756,-3,-3,-2,-7,-5,0,-2,-1
1513174627849257,0,-1,-3,-4,-2,-3,-3,-3
1513174627849257,0,-2,-3,-3,0,0,0,-1
1513174627871773,-2,-2,-2,-2,-2,-1,-1,-1
1513174627871773,-6,-1,1,1,-2,1,1,-2
1513174627878790,1,1,1,1,-3,-3,1,-1
1513174627878790,-2,-1,-1,-2,-1,0,-2,-1
1513174627885302,1,3,-3,-2,-1,-2,-1,-2
1513174627885302,-2,-4,2,3,-1,2,0,1
1513174627894289,-1,-3,-1,2,0,1,0,-1
1513174627894289,1,0,-2,-3,-3,-1,-1,0
1513174627908799,-1,-2,-2,-6,-1,-1,-1,-1
1513174627908799,0,0,-2,6,1,-1,-1,0
1513174627909300,-1,0,0,0,-3,-2,-2,-1
1513174627909300,0,-1,0,-10,0,-1,-1,1
1513174627931314,-3,-3,2,8,2,-1,-2,0
1513174627931314,-2,-1,-2,-5,-2,-1,-2,-2
1513174627938822,-1,-1,-1,3,-1,0,-2,0
1513174627938822,-1,-1,-1,-1,-2,-3,-1,-3
1513174627961870,-4,0,-1,-8,-3,-2,0,-2
1513174627961870,-1,0,-2,4,1,0,1,-2
1513174627962373,-2,-1,-1,-3,-2,0,-1,-1
1513174627962373,-1,-1,-2,0,-1,-1,-1,-1
1513174627968373,0,-1,-1,-3,-1,-1,-1,0
1513174627968373,-1,-3,1,-6,-2,-1,0,0
1513174627969375,-3,-1,-5,9,1,1,-2,-4
1513174627969375,-6,-3,1,1,1,0,0,-2
1513174627991402,0,-1,-2,2,-2,-1,-1,0
1513174627991402,1,-1,-3,-4,-1,-1,-2,-1
1513174627991903,-1,-2,-1,-8,-5,-2,0,1
1513174627991903,0,0,-2,-1,-3,-1,-1,0
1513174628014109,0,-1,0,8,0,-2,-1,-2
1513174628014109,-4,-3,-1,-7,-2,-1,-1,-2
1513174628015110,0,-4,1,-4,-2,0,1,0
1513174628015110,-1,-3,-2,1,0,-2,-2,-1
1513174628028630,-3,-3,0,-2,-1,-1,-1,-2
1513174628028630,1,1,-2,3,-1,-2,-4,-2
1513174628029623,-1,-1,1,-1,-1,-1,0,-1
1513174628029623,0,0,-1,-3,-2,0,0,0
1513174628052139,-1,2,-2,2,-1,-1,-1,-1
1513174628052139,0,3,-2,-8,-2,-3,-2,0
1513174628058660,-2,0,-2,4,1,-1,-4,-2
1513174628058660,3,0,-2,1,-1,-1,-1,0
1513174628074170,0,-2,-1,1,-1,0,-1,-1
1513174628074170,-1,-1,-1,0,-1,-2,-1,-2
1513174628075157,1,-1,-2,-7,-4,2,0,0
1513174628075157,0,-1,-2,-2,-2,-3,-1,-1
1513174628088681,0,-3,-1,-1,0,0,-1,-2
1513174628088681,-2,-2,1,-2,-3,0,-2,-4
1513174628089667,-1,1,-2,-2,-2,-1,0,-1
1513174628089667,-2,-1,1,5,-2,0,-2,0
1513174628111262,-2,0,-4,-9,0,-2,-1,-1
1513174628111262,2,1,-3,-7,-3,-2,1,-1
1513174628111734,-2,-1,1,12,4,-2,1,-3
1513174628111734,-4,-3,1,-4,-3,0,-2,-1
1513174628134249,0,1,-1,-1,-2,-3,-1,0
1513174628134249,-1,-1,-1,-2,-1,-3,-2,-1
1513174628135254,0,-2,0,1,1,0,-1,0
1513174628135254,0,-2,-3,-1,-1,-1,-1,1
1513174628148759,0,0,-2,1,-1,-2,-1,-1
1513174628148759,-1,0,0,-1,-1,-2,0,-2
1513174628149259,-1,-1,-2,-5,-3,0,-1,0
1513174628149259,0,-1,-3,1,0,-1,1,-2
1513174628171275,-1,-3,-1,1,1,1,-1,-3
1513174628171275,-3,1,-2,2,0,0,0,-1
1513174628171775,0,-2,-1,-11,-3,-3,0,-1
1513174628171775,1,-1,-2,4,2,-2,-1,0
1513174628194794,-3,-4,-1,0,0,-1,1,-1
1513174628194794,-1,-3,1,-5,-4,-2,-2,-1
1513174628195793,0,0,-3,9,5,2,-1,-1
1513174628195793,2,3,-1,-2,-5,-2,-2,0
1513174628208320,-3,-1,-4,-8,-1,-2,-2,-1
1513174628208320,-1,-1,0,4,0,1,-1,1
1513174628209303,-2,-3,-1,-6,-4,-2,-1,-2
1513174628209303,0,-1,-3,-5,-2,-2,-2,-2
1513174628230817,-2,-1,-1,7,-3,-1,-2,-2
1513174628230817,-1,-3,1,2,0,-1,-1,1
1513174628231817,-1,-1,-1,-4,-2,-2,-1,-2
1513174628231817,-1,-1,-1,0,0,-2,0,-1
1513174628254333,-2,0,-1,-3,-3,-1,0,0
1513174628254333,0,-1,-2,-1,0,-1,0,-1
1513174628254834,-1,1,1,2,1,-2,-2,-2
1513174628254834,-1,-1,0,-5,-2,-1,-2,-1
1513174628268872,0,-1,0,3,2,0,-1,-1
1513174628268872,-2,0,-1,1,-1,-2,-1,-1
1513174628269344,-3,-2,-2,-4,0,1,-1,0
1513174628269344,-2,-2,0,-2,0,0,-1,0
1513174628290884,0,0,0,0,-1,-1,0,-1
1513174628290884,-1,-2,-2,0,-1,1,-1,-1
1513174628291883,3,1,-3,-3,-4,-3,-1,0
1513174628291883,0,0,-2,1,0,0,1,-2
1513174628314376,-2,-1,-1,-2,-1,-1,-2,-2
1513174628314376,-1,0,0,3,-1,-1,-1,-1
1513174628314877,0,-2,-1,-8,-6,-2,-1,-1
1513174628314877,-2,-2,-2,3,1,1,-2,0
1513174628328888,0,-1,-2,-2,-3,-2,-2,0
1513174628328888,-2,-2,-2,0,-1,-1,-1,-1
1513174628329388,0,3,-3,-8,-2,-2,-3,-1
1513174628329388,0,0,-1,8,1,-1,1,-1
1513174628350903,2,0,0,-1,-1,1,0,-1
1513174628350903,-2,-1,-3,-6,-3,-2,-1,-1
1513174628351915,-3,-1,1,3,1,-1,-1,-1
1513174628351915,-2,-3,-1,-4,-1,-2,0,-2
1513174628374521,-2,-1,-1,1,-1,-1,-1,-1
1513174628374521,1,0,0,1,0,-2,-1,-2
1513174628375021,-1,-5,3,0,-1,-1,0,-2
1513174628375021,-1,1,-1,-5,-2,-2,-1,-3
1513174628388538,-2,-2,-1,-2,1,-1,-1,-3
1513174628388538,-1,-1,0,-1,-1,0,-2,-2
1513174628389532,-1,-2,-1,4,-1,-1,-1,-1
1513174628389532,-2,-3,-1,-4,-1,1,-1,-1
1513174628419053,-1,-1,-1,0,0,-1,-2,-1
1513174628419053,-2,-1,0,-2,-1,-2,-2,0
1513174628420054,-3,-1,-1,-5,-3,-1,-1,0
1513174628420054,0,-1,-3,7,3,0,0,0
1513174628434573,2,0,-1,-3,-3,-2,-1,-1
1513174628434573,-1,1,-5,-6,-3,-3,0,0
1513174628435063,-1,0,-2,5,0,0,-1,0
1513174628435063,-2,-3,-1,-6,-1,-2,-1,-1
1513174628448576,0,-2,-1,-2,-2,0,0,-1
1513174628448576,-2,-3,0,-3,0,-2,-1,-2
1513174628449574,-1,-1,-2,1,-3,-1,0,-1
1513174628449574,-4,-1,-1,-6,0,0,-2,0
1513174628472091,0,1,0,1,0,-1,-2,-1
1513174628472091,0,-1,-2,0,0,0,0,-2
1513174628472591,0,-2,-1,1,0,-2,-1,-1
1513174628472591,1,-2,-1,1,-2,-2,-1,-1
1513174628494107,-5,-3,-1,-5,-3,-2,1,-1
1513174628494107,-1,-1,2,4,1,0,0,0
1513174628495107,-1,-1,-1,0,-1,0,-3,-1
1513174628495107,1,0,-4,-4,-3,-1,-1,-1
1513174628508130,0,0,-2,-3,-1,-1,-2,0
1513174628508130,0,1,-3,1,0,-2,-1,-2
1513174628516133,-2,-1,-2,-2,0,1,-1,-2
1513174628516133,0,-2,-2,-2,-2,-3,-2,-1
1513174628531655,-2,-3,-2,-2,0,-2,-3,0
1513174628531655,-4,-4,4,0,0,-1,0,0
1513174628532656,0,0,-2,-6,-2,-3,0,-2
1513174628532656,-3,-1,-1,0,-1,0,0,-1
1513174628555149,0,0,-2,0,-1,-1,-1,-2
1513174628555149,0,1,-1,-4,-3,-2,-1,-2
1513174628555649,1,0,-1,-5,-2,-1,-1,-1
1513174628555649,0,-2,1,6,1,1,1,0
1513174628568158,-1,-2,-1,1,0,-2,-2,-2
1513174628568158,-1,-2,-3,1,-2,1,-3,-1
1513174628576165,0,-1,-2,2,-1,-1,-1,1
1513174628576165,-1,1,1,-5,-4,-4,-1,0
1513174628591701,0,0,-1,-4,-3,-1,0,2
1513174628591701,2,1,-2,-1,-1,-1,0,-1
1513174628592677,-1,-2,-1,-4,-2,0,-1,-1
1513174628592677,-2,-1,0,1,0,-2,-3,-1
1513174628614190,-1,-1,-1,6,2,0,0,-2
1513174628614190,-1,0,-1,-2,-1,0,-3,0
1513174628615191,3,0,-2,-1,-1,0,-3,1
1513174628615191,-2,-2,-2,-4,-2,-2,-1,-1
1513174628628210,-1,-1,-1,-1,-2,0,-3,-1
1513174628628210,0,-2,-2,1,-1,-1,0,-1
1513174628636212,-2,-1,-1,1,0,1,0,-2
1513174628636212,-1,-2,-5,-2,-1,-1,-2,-1
1513174628651216,-3,-1,-1,1,1,-2,-1,-3
1513174628651216,-2,-1,-2,0,0,-1,0,-3
1513174628651717,-3,-2,-2,1,-2,-3,-1,-2
1513174628651717,1,0,-1,-9,-3,-1,0,-3
1513174628674248,-1,1,-2,9,0,-3,1,-3
1513174628674248,-4,-1,-2,-5,1,0,0,0
1513174628675253,1,0,-2,-1,0,-1,1,-1
1513174628675253,-1,-4,-1,-1,-2,-1,0,0
1513174628688243,-2,-1,-2,-7,-2,1,-1,0
1513174628688243,-2,-2,-1,-3,-4,-2,-2,-2
1513174628696750,1,-2,-2,2,-1,-2,-1,0
1513174628696750,-1,-2,-1,3,1,0,0,0
1513174628711769,1,1,-1,-3,-2,-2,-1,0
1513174628711769,0,2,-2,2,-1,-1,-1,-1
1513174628712760,-2,-2,0,-3,-3,-2,-2,-1
1513174628712760,-1,0,0,-1,-2,-2,-1,-1
1513174628734286,1,-2,-1,-2,-2,-1,0,-2
1513174628734286,-2,0,-2,-5,0,-4,-2,-2
1513174628735287,0,-4,-1,2,1,-2,-2,-1
1513174628735287,-5,-4,1,3,1,1,-2,-1
1513174628747788,-1,-3,0,-4,0,-1,-2,-1
1513174628747788,-1,-1,0,-9,-5,-2,-1,-2
1513174628756305,-4,-1,-1,8,1,-1,-1,1
1513174628756305,0,4,-2,0,-1,-2,-1,0
1513174628771827,-2,-1,-2,-5,-2,0,-2,-1
1513174628771827,-1,-3,1,1,0,1,0,-1
1513174628772804,0,-1,-1,-5,-2,-2,0,-2
1513174628772804,1,-1,0,-7,-3,-1,0,-3
1513174628794865,-2,0,1,3,1,-1,1,-1
1513174628794865,1,-1,0,2,-1,-1,0,0
1513174628795823,-3,-1,0,3,-1,-1,0,0
1513174628795823,1,0,-4,-3,1,0,0,0
1513174628808353,-3,-3,0,-5,-3,-2,-1,-1
1513174628808353,-1,-1,-1,3,1,-1,-1,0
1513174628816346,-1,-1,0,-3,-2,-1,-3,0
1513174628816346,-1,-2,0,3,-2,-2,-1,0
1513174628831855,0,-2,-1,-3,-3,-1,-1,-1
1513174628831855,-1,-3,-2,1,-2,-2,-2,-1
1513174628832346,0,1,0,-4,-2,-1,-2,1
1513174628832346,-1,0,-2,-1,-2,0,-2,-1
1513174628854375,-1,-1,-1,-3,-2,-3,-1,-1
1513174628854375,1,-1,-3,-8,-3,-1,0,-1
1513174628854860,-2,0,-2,9,3,-2,-1,-2
1513174628854860,-2,-2,-2,-1,1,-2,-1,-1
1513174628876404,-2,0,-2,0,0,0,-1,0
1513174628876404,-1,-4,-1,-1,-2,-1,-2,-2
1513174628877392,-5,-3,-1,-4,-1,1,0,-2
1513174628877392,1,1,0,1,-1,-1,-1,-2
1513174628891935,-1,-1,-2,-6,-3,1,1,-1
1513174628891935,-1,3,-1,6,1,-1,-2,-1
1513174628892388,1,-1,-1,-4,-1,-1,1,0
1513174628892388,-2,-4,-2,2,0,0,-2,0
1513174628914404,-4,-6,2,-3,-1,1,0,-1
1513174628914404,-2,-1,0,-2,-1,1,-1,-2
1513174628915404,-1,0,-1,-3,0,-1,-1,-3
1513174628915404,-1,-1,-1,-1,-1,0,-1,-1
1513174628937023,-1,0,-4,-2,1,0,-3,-2
1513174628937023,0,0,0,4,2,-1,-1,1
1513174628937523,-2,-5,-1,0,-1,0,0,-3
1513174628937523,0,1,-2,-3,-1,-2,-1,-2
1513174628952034,0,0,-2,3,0,-4,-2,-2
1513174628952034,-2,-2,2,-9,-5,-2,-2,0
1513174628952535,0,0,-2,7,1,-1,0,-1
1513174628952535,-1,-1,-1,-2,-3,1,0,-1
1513174628982056,-1,-1,0,6,-1,-1,-1,0
1513174628982056,-5,-3,-3,-6,0,-1,-1,-1
1513174628983558,1,0,-1,-6,-3,-2,-1,0
1513174628983558,-2,-2,-2,-2,-2,-1,-1,-1
1513174628997077,-2,-2,-2,0,-1,-1,0,-1
1513174628997077,-1,0,0,1,-1,0,-2,-2
1513174628999577,0,-2,-2,-5,-3,0,-1,1
1513174628999577,0,-2,1,3,1,-1,-1,-2
1513174629010598,-2,1,-1,-3,-2,-1,-2,-2
1513174629010598,-4,-6,2,3,1,0,1,-1
1513174629019601,-1,0,-2,-9,-2,-1,-1,-1
1513174629019601,-1,-2,-1,4,1,0,0,-1
1513174629034111,1,-1,-3,-4,-2,-1,-1,-2
1513174629034111,1,-1,-2,0,-1,-2,-2,-2
1513174629042120,-1,0,-1,-2,-3,-3,0,0
1513174629042120,-1,0,-1,-4,-4,-2,-3,-1
1513174629056613,1,1,-1,0,-1,-2,-3,0
1513174629056613,-2,-2,-1,1,0,0,-2,-3
1513174629058610,2,-3,-2,-2,-1,0,-2,0
1513174629058610,-4,-3,1,-1,0,-1,-2,-2
1513174629070618,-2,-3,-2,0,-1,0,0,-1
1513174629070618,3,0,0,0,-2,-2,1,-1
1513174629079630,0,1,-2,-1,-1,-3,0,-1
1513174629079630,1,1,-1,-2,-1,-1,0,1
1513174629094158,0,0,0,-1,-2,0,-1,-1
1513174629094158,-1,-2,-2,2,-1,-1,-1,-1
1513174629096137,-2,-5,1,0,0,1,-1,-1
1513174629096137,-1,1,-2,-1,-1,-2,-2,0
1513174629117151,-2,-1,0,-2,-1,0,-1,-2
1513174629117151,1,0,1,1,-1,0,-1,-1
1513174629118653,-2,-2,-1,2,0,-1,-1,-1
1513174629118653,-3,-5,4,-2,-1,-1,-1,0
1513174629131683,0,-1,-1,0,1,-2,-1,1
1513174629131683,-2,1,-3,-3,-2,-2,-1,-1
1513174629139667,-2,-1,-2,0,-2,1,-3,-1
1513174629139667,3,-3,-4,-1,-2,-1,0,0
1513174629154190,-2,-1,1,0,-1,-1,-1,-1
1513174629154190,-2,0,-1,-1,-2,-2,1,-1
1513174629155684,-4,-3,2,0,-2,2,-1,-2
1513174629155684,1,1,-4,-2,-3,0,-2,1
1513174629176696,2,-1,-2,-3,-2,-1,-1,0
1513174629176696,-1,-2,-4,1,0,-1,0,-1
1513174629178194,-2,-2,5,2,2,1,-1,0
1513174629178194,5,-1,-3,-1,-3,-2,-3,-1
1513174629191225,-5,-3,0,0,0,-1,-1,-2
1513174629191225,-3,-2,3,0,1,2,-1,-1
1513174629197720,1,2,-3,-4,-5,-3,0,-2
1513174629197720,-6,-3,3,1,0,0,0,-2
1513174629214459,-3,-1,1,5,1,-1,0,-3
1513174629214459,1,-1,-4,-3,-4,-2,-2,0
1513174629215951,1,-2,-4,-2,0,0,0,-2
1513174629215951,0,0,-2,-3,-1,-1,-1,-2
1513174629236963,0,-1,-4,-5,-4,-2,0,-2
1513174629236963,-2,1,0,-1,-3,-2,-2,-1
1513174629238464,0,1,-3,-2,-1,-1,-2,-1
1513174629238464,-2,1,-2,3,-1,-2,-1,-2
1513174629250975,0,0,-1,-1,-1,-1,-1,-2
1513174629250975,-1,-2,-1,2,0,-1,-1,0
1513174629257987,0,0,-1,0,1,-1,0,-1
1513174629257987,-1,-2,-1,-5,-2,-2,1,-2
1513174629274502,-1,-2,-2,-2,-3,0,-2,-2
1513174629274502,-3,0,0,3,1,-1,0,-1
1513174629275991,0,-2,-1,-1,-3,0,-2,-1
1513174629275991,-1,0,-3,3,-1,0,-2,-1
1513174629297507,-1,0,-2,-6,-2,-1,-2,0
1513174629297507,-1,1,-2,-3,-2,-1,-2,0
1513174629299011,0,-1,-1,-2,-2,-4,-2,-1
1513174629299011,-1,0,-3,-1,-2,-1,-2,-1
1513174629311020,-2,-1,0,-4,-3,-2,-1,-1
1513174629311020,1,-1,-2,1,-3,0,-1,-2
1513174629318023,-1,0,-2,2,1,-2,-2,-2
1513174629318023,0,-1,-1,-3,-2,0,-2,0
1513174629334536,3,0,-3,-4,-3,-3,-2,-1
1513174629334536,-3,-2,-1,-1,2,-1,-2,-1
1513174629336036,-2,0,-1,0,-1,-3,0,0
1513174629336036,-1,-3,0,-2,0,0,-2,-2
1513174629356547,2,0,-2,3,-1,-2,-2,-2
1513174629356547,-1,0,-2,-5,-2,-1,-2,-1
1513174629358564,0,-3,1,-7,-2,-3,1,0
1513174629358564,0,-1,-1,3,1,-2,-1,-1
1513174629370560,0,-1,-3,1,2,-2,1,-1
1513174629370560,-6,-4,2,-1,-2,-2,0,-3
1513174629379564,0,0,-3,0,-1,0,-1,-1
1513174629379564,0,3,3,-2,-2,-2,0,-1
1513174629394595,-2,0,2,-1,-1,0,0,-2
1513174629394595,0,1,-2,-2,1,-3,-2,-2
1513174629396081,0,0,-2,0,0,-1,-3,-3
1513174629396081,-2,-4,-2,0,1,0,-1,0
1513174629416590,-3,-2,-1,-1,-1,1,-2,-1
1513174629416590,1,0,1,-5,-3,-1,-2,-1
1513174629423095,-1,-1,-2,1,-2,-1,-1,0
1513174629423095,1,-3,-1,-2,-1,-2,-2,-2
1513174629430613,-3,0,0,-1,0,0,0,-3
1513174629430613,-1,0,-2,-1,-2,-1,0,0
1513174629439627,0,-2,-2,-1,-1,-1,1,0
1513174629439627,-2,-2,-1,0,-2,0,2,-1
1513174629454117,-2,0,-1,3,0,1,-1,-1
1513174629454117,1,-1,-2,-3,-3,-3,-2,-1
1513174629456137,0,-3,0,-2,0,0,0,-1
1513174629456137,-2,-2,0,-3,-2,-1,-2,0
1513174629476656,-2,0,-1,-4,-1,-2,-3,-2
1513174629476656,-3,-1,-1,4,2,0,1,-1
1513174629478644,0,0,-2,0,-1,-3,-2,1
1513174629478644,1,-2,-2,1,1,-1,-1,-2
1513174629490654,0,2,-3,-4,-4,-3,0,-2
1513174629490654,-1,-1,0,-1,-2,-1,0,-3
1513174629499650,0,1,0,-2,0,0,-2,0
1513174629499650,-2,-1,1,-3,-1,0,-1,-1
1513174629514681,0,-1,0,0,-1,-1,-3,1
1513174629514681,-1,-2,-1,-3,1,0,-1,1
1513174629516186,-2,-2,-2,-4,-2,-1,0,0
1513174629516186,0,2,-7,0,-2,-1,0,-1
1513174629537200,-1,-2,1,-1,-2,0,-1,-1
1513174629537200,0,-2,0,7,-1,-1,-1,-2
1513174629539177,0,-1,-5,-10,0,1,-1,-2
1513174629539177,-1,1,-2,-1,0,-1,-1,0
1513174629550196,-2,-1,-1,-2,-1,-1,1,-2
1513174629550196,-1,0,-2,-5,-3,0,-2,-1
1513174629559191,-2,-2,-1,8,-1,-2,0,0
1513174629559191,0,-2,-1,-1,-2,0,-2,0
1513174629574204,-3,-2,0,1,0,-2,0,-1
1513174629574204,1,2,-1,-5,-2,-3,-2,-1
1513174629575702,0,-3,1,-2,-2,1,-1,-1
1513174629575702,-3,-2,0,1,-1,-1,-2,-1
1513174629596730,-3,-5,0,-4,-3,-3,-1,-1
1513174629596730,0,-1,-3,6,1,-1,-2,0
1513174629598731,-1,0,-2,-3,-3,-4,-1,0
1513174629598731,1,-1,0,0,0,-1,-1,-2
1513174629610728,1,0,-2,-4,-3,-2,1,-1
1513174629610728,-5,-3,-2,-3,-1,-2,-1,-3
1513174629619233,0,-3,1,4,1,0,-1,-1
1513174629619233,-1,-2,-3,-3,-2,-3,0,-1
1513174629634244,0,0,-1,-1,-1,-1,-2,0
1513174629634244,0,-2,-2,1,0,-1,-1,-1
1513174629635746,-2,-1,1,2,-4,-2,0,-1
1513174629635746,-2,0,-4,-7,0,-1,0,-1
1513174629656760,-1,-4,0,4,2,-1,0,-1
1513174629656760,-1,0,-1,-2,-3,1,-1,0
1513174629658260,-2,3,-2,-3,-1,-1,-2,0
1513174629658260,0,-2,1,-2,-2,0,-2,-2
1513174629670269,4,4,0,-2,-2,-1,-2,0
1513174629670269,-2,-1,-1,-12,-5,-3,-3,-2
1513174629679275,-3,-5,-3,8,1,-1,-1,-2
1513174629679275,1,-2,-5,0,0,-1,0,1
1513174629694310,1,4,3,5,3,2,0,-1
1513174629694310,-3,-2,-3,-4,-3,-3,-3,-3
1513174629696787,3,9,-4,-13,-6,-3,-2,2
1513174629696787,-2,-3,0,9,4,0,1,1
1513174629716802,-6,-5,-4,-5,-1,-1,-1,0
1513174629716802,-3,0,0,-1,0,0,0,-2
1513174629718303,5,0,0,-3,-2,-1,-1,0
1513174629718303,4,3,2,3,-1,0,0,1
1513174629730311,-1,-10,-2,-7,-5,-3,-4,-4
1513174629730311,9,5,2,12,4,1,4,10
1513174629739318,8,-2,-1,-8,-2,0,-2,-1
1513174629739318,-8,-22,-6,5,-1,-2,-2,-5
1513174629754382,0,2,-1,-1,-1,-1,0,-3
1513174629754382,3,-6,-7,-11,-4,-2,-4,-1
1513174629755902,-1,0,9,4,1,0,1,1
1513174629755902,2,9,3,-2,0,0,-2,-2
1513174629776900,-9,-5,2,4,2,-2,-1,-1
1513174629776900,-5,-2,-10,6,1,0,1,-3
1513174629778412,-5,4,12,-10,-1,-1,-3,-2
1513174629778412,1,5,-5,-10,-4,-2,-3,-1
1513174629799426,4,3,-5,-1,-2,0,-1,1
1513174629799426,-3,5,-1,1,3,1,0,0
1513174629800928,-14,-24,-11,0,-5,-2,-4,-4
1513174629800928,-4,3,1,-3,-2,-1,-2,-2
1513174629814130,0,4,-4,-2,0,0,0,1
1513174629814130,-5,-6,-5,0,-1,-1,-2,-12
1513174629822135,-4,5,-2,-5,-1,-2,-3,-2
1513174629822135,-8,-11,1,6,-1,0,1,0
1513174629836645,-8,-2,1,-1,0,0,2,4
1513174629836645,3,2,-1,-6,-4,-2,-3,-1
1513174629838147,7,7,6,6,3,2,3,2
1513174629838147,0,1,-4,-6,-5,-1,-3,1
1513174629859187,0,8,2,2,-2,-1,-1,-11
1513174629859187,2,0,5,-2,-2,-4,-5,-6
1513174629860686,4,15,-6,0,2,3,5,5
1513174629860686,14,-18,4,3,1,0,2,6
1513174629874195,-6,5,-5,-3,-3,-1,-1,-1
1513174629874195,-17,-22,1,0,-1,0,-1,-1
1513174629875673,8,1,-1,4,2,1,-2,-4
1513174629875673,-2,3,-7,-5,-1,-1,-2,-2
1513174629897189,2,-4,2,0,-3,-1,-4,1
1513174629897189,8,6,-5,-1,2,2,0,3
1513174629899189,-15,-11,3,-2,-1,-3,-3,-4
1513174629899189,0,3,-9,-2,-2,-1,2,2
1513174629919204,3,-5,-3,-4,-4,-5,-4,-3
1513174629919204,9,9,7,2,2,3,7,10
1513174629920705,3,-2,-8,-3,-3,-1,-1,7
1513174629920705,-27,-8,-6,-4,-3,-3,-4,-16
1513174629933715,6,-3,-11,-8,-2,-2,-4,-3
1513174629933715,-11,-1,6,2,-2,-3,-3,-3
1513174629947734,-8,-9,-1,2,-1,0,-2,-3
1513174629947734,6,3,7,1,0,-2,1,4
1513174629956730,-8,-10,-4,-2,-1,-2,-1,-1
1513174629956730,7,10,4,2,0,-1,1,0
1513174629958231,-7,0,-1,0,0,2,6,6
1513174629958231,8,5,3,3,0,-2,-15,-12
1513174629979257,2,6,-1,0,1,0,0,-2
1513174629979257,-14,-6,-3,-4,-2,1,-1,-2
1513174629980747,3,-2,-4,-1,-1,-3,-1,0
1513174629980747,-12,-2,0,-3,1,-3,2,-1
1513174629993757,1,-3,-7,2,0,0,1,3
1513174629993757,10,7,5,0,-1,-3,0,3
1513174630000261,1,-4,4,-6,-2,-2,-1,2
1513174630000261,2,-5,-9,-9,-4,-3,-3,-7
1513174630016795,3,0,5,5,3,2,6,7
1513174630016795,-8,-4,-5,-4,-2,-1,2,0
1513174630018296,4,1,-13,-2,0,-2,-13,-8
1513174630018296,-7,-13,5,-6,-1,1,5,5
1513174630047296,2,-2,0,10,-2,-1,5,-1
1513174630047296,-2,3,3,0,-1,-2,-9,-3
1513174630048295,-16,-24,-17,-5,-2,-2,3,4
1513174630048295,-1,7,8,3,-2,-1,-10,-11
1513174630053799,0,0,-16,-8,-3,-3,0,1
1513174630053799,-1,-2,-2,-5,-1,-1,3,-6
1513174630060314,2,-1,8,-3,-4,-7,-10,-9
1513174630060314,-3,9,-3,4,0,1,22,21
1513174630076842,-10,-6,1,-1,2,1,-9,-5
1513174630076842,2,6,-5,-10,-7,-5,11,4
1513174630078319,-4,-6,-1,5,2,3,-6,-3
1513174630078319,-4,-2,-19,-4,-2,-1,-1,-2
1513174630099331,5,10,13,9,-4,-1,-3,-4
1513174630099331,11,0,-15,-9,2,-1,-2,10
1513174630100833,13,4,-4,-5,-2,2,15,2
1513174630100833,-5,3,-3,-3,-3,-4,-16,-2
1513174630113842,-7,7,5,4,1,2,-3,-7
1513174630113842,8,-3,13,0,-5,-5,-8,-5
1513174630120347,-10,-25,2,8,2,-2,4,7
1513174630120347,-11,5,30,-5,-1,-3,-2,-2
1513174630136858,-6,-11,13,0,-1,-3,-11,-6
1513174630136858,1,-8,-32,-3,-5,-2,-3,-4
1513174630138359,3,16,9,-7,-3,-2,-4,-10
1513174630138359,16,11,0,4,1,1,5,6
1513174630159373,3,7,3,-2,2,0,9,13
1513174630159373,-24,-14,13,2,1,-2,-13,-38
1513174630160917,9,10,2,3,-2,1,-3,12
1513174630160917,2,-3,-6,1,0,2,2,2
1513174630173400,-6,-4,-13,-8,-6,-6,-7,-6
1513174630173400,7,1,9,7,3,2,-5,8
1513174630180388,1,6,-18,-7,-4,-3,-3,-9
1513174630180388,-16,-13,-7,6,-1,0,4,0
1513174630197046,7,1,11,-3,0,0,-4,-1
1513174630197046,-12,-8,12,4,2,3,6,2
1513174630198760,-2,-9,-1,-6,-2,-3,-4,-11
1513174630198760,17,17,-2,-1,0,3,7,22
1513174630219285,-10,-19,-9,10,2,-1,-3,-17
1513174630219285,-4,-3,0,-24,-5,-3,-3,0
1513174630220786,10,11,10,6,3,3,8,6
1513174630220786,3,12,1,2,2,0,13,-7
1513174630233288,8,0,-10,1,1,2,2,10
1513174630233288,4,-1,-2,3,-1,-3,-38,-14
1513174630240313,7,-3,2,-1,1,-1,-6,3
1513174630240313,1,-7,5,-4,-5,-5,-9,-5
1513174630256805,-1,12,-2,-4,-3,-4,-1,-8
1513174630256805,-6,-9,-19,11,3,2,13,13
1513174630258303,-9,-3,-6,-17,-3,2,6,1
1513174630258303,2,-5,14,7,4,4,6,11
1513174630279317,-1,-11,-16,-17,-9,-4,2,11
1513174630279317,13,19,10,11,2,1,3,-3
1513174630280818,-11,-17,-4,3,2,-3,-4,-4
1513174630280818,-2,14,-5,-12,-4,-2,-8,-14
1513174630292830,-19,-25,-11,-2,-3,-3,-4,7
1513174630292830,22,11,4,-3,-1,2,14,19
1513174630301856,-13,21,-6,5,0,-1,-7,-4
1513174630301856,-8,-25,-13,-3,-2,-1,-2,-9
1513174630316868,12,3,12,10,2,-2,0,-4
1513174630316868,-13,5,12,-2,2,2,-2,3
1513174630318367,10,17,24,14,2,4,11,-12
1513174630318367,-3,-4,-29,-22,-8,-7,-17,-5
1513174630339369,14,3,-1,3,1,3,6,5
1513174630339369,-35,-13,-8,9,2,-2,5,-7
1513174630340871,18,-1,-2,-16,-5,-1,4,13
1513174630340871,-18,9,28,7,1,0,-2,-6
1513174630352869,-11,-5,-1,0,-1,3,0,-5
1513174630352869,8,-1,-14,-23,-7,-7,5,7
1513174630361876,-19,-18,-5,3,-1,1,10,2
1513174630361876,18,-1,-17,5,2,-2,-16,5
1513174630376897,8,13,21,2,4,5,-2,-14
1513174630376897,3,-15,-46,-15,-11,-7,-6,0
1513174630378403,-9,24,14,12,-1,-5,-10,-14
1513174630378403,21,-5,33,10,3,4,11,9
1513174630405675,-11,20,-28,4,3,0,-1,-6
1513174630405675,-22,-40,29,-9,-6,-5,-2,6
1513174630415172,-2,-1,-7,-17,-6,-5,-7,-6
1513174630415172,15,16,-7,8,5,1,14,2
1513174630416173,16,2,20,1,-1,-2,-3,28
1513174630416173,15,-8,-16,1,-2,-4,-24,-13
1513174630421690,-12,7,-32,13,-1,-1,-10,-16
1513174630421690,-8,19,14,-8,-3,-2,4,8
1513174630437187,-7,-51,-33,-9,-7,-5,8,-22
1513174630437187,29,19,42,7,4,1,16,13
1513174630439189,-18,-31,3,3,1,1,1,1
1513174630439189,4,-3,-24,-6,-2,-2,-14,-4
1513174630459755,14,6,14,-14,-5,-5,-8,-13
1513174630459755,-25,2,-24,12,6,1,3,8
1513174630461225,12,-6,42,20,12,5,25,21
1513174630461225,-18,-16,-31,-18,-9,-9,-44,-35
1513174630472729,-4,23,-6,-3,3,-2,2,12
1513174630472729,-6,-2,32,4,-2,3,3,-2
1513174630481720,8,-13,-49,-5,-3,1,8,12
1513174630481720,-5,-57,17,-3,-5,-5,-6,-2
1513174630497230,-23,63,21,1,-2,-2,-6,-52
1513174630497230,-1,-41,-107,-8,4,1,-20,31
1513174630499241,-4,-7,40,0,-1,-4,-6,-23
1513174630499241,23,6,13,-1,4,5,9,17
1513174630519258,-15,-4,38,22,4,1,5,6
1513174630519258,-52,42,-18,-29,-16,-9,1,-12
1513174630520759,13,-37,18,1,-3,-4,-25,-21
1513174630520759,0,-7,-105,4,-1,-1,13,12
1513174630532756,4,-45,29,-20,2,5,4,20
1513174630532756,-2,20,26,27,4,2,18,7
1513174630541764,12,28,-15,-7,-1,-3,2,-3
1513174630541764,-19,-12,-13,11,-3,-4,0,-12
1513174630556783,-1,-3,-18,-26,-5,4,14,14
1513174630556783,6,-29,-1,9,2,0,-20,-27
1513174630558284,-13,-13,-9,-15,-3,0,-6,4
1513174630558284,4,30,74,30,10,4,-27,-30
1513174630579289,9,4,-23,9,-1,-1,9,17
1513174630579289,2,-21,7,-7,-1,0,4,-12
1513174630580792,-8,-8,-47,-10,-7,-7,-2,30
1513174630580792,-4,40,24,0,6,5,10,-14
1513174630592820,-2,-52,-1,-13,-5,-1,-5,7
1513174630592820,-12,5,58,13,2,-3,-2,-18
1513174630601808,7,15,-5,6,5,0,-2,7
1513174630601808,7,27,5,-16,-8,-6,8,3
1513174630616827,-16,42,18,3,0,-2,-1,-3
1513174630616827,2,-30,-25,-16,-7,0,37,22
1513174630618329,2,28,27,7,6,4,-35,-18
1513174630618329,10,-22,0,2,3,-3,-7,-6
1513174630639864,-23,-3,-4,16,-1,-7,-4,-17
1513174630639864,14,-20,-33,-21,-7,-6,-2,-12
1513174630641343,10,18,89,10,4,4,26,42
1513174630641343,-9,-3,5,-8,-6,-3,4,-4
1513174630663360,-20,-14,-57,-17,-1,-2,-22,-21
1513174630663360,24,25,29,33,13,8,-1,9
1513174630664849,-9,-9,-52,-19,-8,-4,-1,-31
1513174630664849,-2,-12,19,-6,0,0,-9,-20
1513174630676860,-7,-1,-8,1,-8,-8,7,29
1513174630676860,-2,7,3,-24,-5,1,3,8
1513174630678359,26,14,16,7,1,-1,-11,-11
1513174630678359,-25,-18,-73,-22,-5,0,21,31
1513174630699372,18,13,66,42,14,3,-20,-17
1513174630699372,15,-14,-49,-32,-6,-8,-13,7
1513174630700874,-34,-24,33,6,-7,-6,-5,-18
1513174630700874,-10,-1,-49,-14,-1,-2,-1,-1
1513174630712904,21,18,5,2,3,5,17,0
1513174630712904,-8,9,24,10,5,4,4,11
1513174630722051,-6,-42,-47,-10,-5,-6,-23,-36
1513174630722051,11,4,26,14,3,3,11,22
1513174630736561,7,6,-34,-16,-11,-10,-4,-11
1513174630736561,-6,10,58,4,1,-5,-27,-26
1513174630738566,5,6,-52,-11,-5,0,20,61
1513174630738566,-43,-15,21,4,4,-1,-22,-43
1513174630759124,-3,-24,1,-8,1,2,-2,1
1513174630759124,22,54,-20,-1,-2,-3,4,-13
1513174630761103,11,-24,-10,-5,-4,-4,15,42
1513174630761103,-10,-69,-20,-2,-8,-10,-26,-25
1513174630781629,8,12,7,-20,-2,2,7,7
1513174630781629,-17,12,-2,10,3,1,1,-4
1513174630783119,8,19,16,16,5,7,7,9
1513174630783119,20,29,10,3,-1,-8,-17,0
1513174630797642,5,-25,0,-9,-5,3,11,-15
1513174630797642,6,1,20,16,3,2,-6,-10
1513174630799130,-2,0,-10,5,-1,-3,0,5
1513174630799130,22,49,16,18,5,5,14,6
1513174630819144,-17,-37,-5,-21,-6,-3,13,19
1513174630819144,-8,20,2,-10,-3,-4,-29,-24
1513174630821145,7,-4,-6,-7,-1,2,13,24
1513174630821145,10,8,25,1,1,-1,-22,4
1513174630841663,-6,18,-10,-23,-17,-11,-12,-23
1513174630841663,-6,-23,-29,5,1,-1,17,6
1513174630843161,-27,6,-41,-15,-11,-3,8,-4
1513174630843161,18,-15,15,-8,-3,2,6,32
1513174630856671,6,44,16,27,10,1,-25,-34
1513174630856671,-33,-43,-21,6,-4,-5,7,24
1513174630858172,2,17,-1,-27,-3,2,3,-3
1513174630858172,-7,1,27,4,-2,-6,-2,-23
1513174630879188,8,-7,4,14,8,1,4,3
1513174630879188,17,19,41,13,-1,0,-4,10
1513174630881189,3,-14,11,-4,4,4,1,-22
1513174630881189,-33,-45,-10,-2,-5,-4,24,22
1513174630902204,2,-12,-19,11,4,-2,-15,-10
1513174630902204,5,-3,-13,-22,-7,-2,8,30
1513174630903707,-15,16,-2,8,-1,-5,3,-20
1513174630903707,17,23,9,-6,1,3,4,36
1513174630916225,1,-14,7,23,5,4,-17,-26
1513174630916225,-11,-12,9,-31,-9,-2,8,0
1513174630922722,1,15,-47,-11,-7,-9,-25,-30
1513174630922722,-5,-42,-10,22,6,7,38,27
1513174630939732,3,-7,-43,-22,-2,-1,-10,14
1513174630939732,9,32,3,33,12,5,-15,-28
1513174630941730,-6,15,55,0,-3,4,6,9
1513174630941730,-17,-13,-24,-9,-4,2,17,-11
1513174630961745,-15,3,-22,8,-4,-9,-3,4
1513174630961745,1,26,-4,-10,0,3,13,5
1513174630969251,3,-20,-7,-8,-4,-5,-25,-43
1513174630969251,-2,8,-17,18,4,-2,-15,-2
1513174630976255,-11,-17,-45,-31,-9,-1,36,15
1513174630976255,29,18,11,17,5,1,-26,-18
1513174630982771,-26,-38,0,3,-3,-7,6,16
1513174630982771,-1,33,-5,-25,-12,-8,-35,-29
1513174630999272,-1,2,27,9,1,-1,1,11
1513174630999272,-11,-41,-1,5,-1,3,14,-2
1513174631000773,-9,-2,-24,-16,-1,-3,-4,20
1513174631000773,-6,-35,-20,-15,-5,-2,6,-8
1513174631022300,12,16,11,18,10,4,0,5
1513174631022300,-19,6,21,12,1,-1,-3,-15
1513174631023793,9,-2,-13,-6,-2,-2,-1,-28
1513174631023793,9,21,-2,4,6,4,-14,-10
1513174631036298,-20,-45,14,-9,-2,-3,1,-14
1513174631036298,3,2,-30,-22,-10,-7,-33,-2
1513174631042836,21,12,56,24,5,1,12,16
1513174631042836,-34,17,43,-9,-6,-5,-3,-23
1513174631059316,-13,-32,-66,0,-4,-3,-10,4
1513174631059316,15,9,-19,-10,-1,-1,17,53
1513174631060815,14,-9,-2,2,2,3,6,-12
1513174631060815,19,48,-17,13,-1,-2,6,6
1513174631081840,-19,-32,27,14,9,2,-26,-33
1513174631081840,-9,-18,0,-30,-13,-5,13,19
1513174631083342,6,25,7,12,3,2,14,32
1513174631083342,31,-10,-22,10,6,3,-12,-19
1513174631096340,24,56,110,6,6,8,15,33
1513174631096340,12,-28,-47,-1,1,-4,-27,-38
1513174631110361,-2,26,-8,6,0,0,-3,12
1513174631110361,4,-3,9,-24,-5,1,12,0
1513174631119356,-20,13,1,16,3,-3,15,15
1513174631119356,-5,1,30,-14,-5,4,23,29
1513174631120869,12,-18,4,25,8,-1,-33,-39
1513174631120869,-38,24,87,1,2,-1,-3,-7
1513174631149380,26,8,-128,-22,-4,-3,-16,-7
1513174631149380,-26,-45,0,-3,-3,-1,20,-11
1513174631150878,-1,-18,15,12,1,-1,12,21
1513174631150878,-1,-2,-33,-3,-5,-2,-11,-4
1513174631155892,9,-7,74,-5,1,2,16,17
1513174631155892,13,55,35,19,9,3,-17,-45
1513174631162887,-33,-20,-26,-4,0,-1,8,5
1513174631162887,55,-5,7,-21,-5,-3,7,13
1513174631179090,-29,-9,-53,-5,-12,-10,-37,-20
1513174631179090,1,-4,26,26,9,1,-1,-10
1513174631180567,-5,-29,-18,-7,-1,7,15,32
1513174631180567,-7,-28,-45,3,5,-2,-25,-37
1513174631201581,7,12,0,9,3,3,11,7
1513174631201581,20,15,37,-28,-13,-4,5,12
1513174631203082,-9,-2,-28,16,6,0,-21,-15
1513174631203082,-19,24,28,-27,-8,-5,20,19
1513174631216591,40,20,10,-8,-9,-8,12,25
1513174631216591,12,-1,-50,12,1,-4,-39,-40
1513174631223098,11,18,22,0,4,-1,3,-4
1513174631223098,-15,8,34,24,0,-2,11,23
1513174631239135,2,-15,-17,-25,-7,4,17,-5
1513174631239135,9,37,60,25,15,5,-3,37
1513174631241137,22,-19,-42,-38,-9,0,3,27
1513174631241137,-9,-30,-34,3,-2,-7,-13,-19
1513174631261711,-25,16,33,11,3,1,0,-24
1513174631261711,16,-21,-32,-16,-3,0,37,16
1513174631263153,26,28,33,37,16,6,-4,-19
1513174631263153,-27,-20,-16,-43,-14,-2,0,-24
1513174631275673,46,11,-3,13,2,-1,24,97
1513174631275673,-37,-14,-24,-26,-10,-3,-16,-71
1513174631284169,-6,5,22,-5,-9,-4,-1,-3
1513174631284169,12,-1,-46,15,2,3,16,13
1513174631299180,-8,31,48,12,2,-3,-9,-13
1513174631299180,-9,-11,-29,-31,1,4,6,34
1513174631300680,-7,9,8,7,5,-3,-27,-65
1513174631300680,8,18,36,-7,-6,-5,-13,19
1513174631321705,1,-68,-29,20,3,4,-1,-22
1513174631321705,-44,-4,18,17,6,-2,-4,-22
1513174631323205,-18,29,-28,-39,-14,-1,16,17
1513174631323205,22,-5,28,21,8,0,-14,-9
1513174631335204,-23,-28,-22,-14,-3,-6,-12,-15
1513174631335204,38,6,-26,1,-4,-1,4,1
1513174631344210,-40,-15,51,28,0,0,5,2
1513174631344210,-23,43,-54,-8,4,3,6,11
1513174631359234,6,-28,17,-9,-6,1,2,-2
1513174631359234,11,15,5,-19,-6,-4,3,-27
1513174631360746,-31,-40,-8,-8,-5,-8,-22,-17
1513174631360746,30,-9,-1,9,5,6,27,12
1513174631381749,-3,45,9,-14,-8,1,-6,-9
1513174631381749,-10,-16,43,27,-1,-6,-17,11
1513174631383238,1,5,1,-15,-3,-2,2,34
1513174631383238,9,13,22,25,9,2,-4,-28
1513174631395249,-38,-33,-55,-26,-3,3,18,3
1513174631395249,9,25,22,40,8,3,4,16
1513174631404264,8,4,15,-22,-10,-4,-10,-13
1513174631404264,4,-24,-1,22,8,6,18,45
1513174631419275,10,44,28,-18,1,5,0,-20
1513174631419275,-16,-29,-32,-7,-11,-6,-11,19
1513174631420765,38,47,-44,26,8,0,-4,16
1513174631420765,-1,-6,45,-21,-11,-7,-21,-7
1513174631441289,-27,-13,-23,-3,-3,-6,-10,-30
1513174631441289,-10,-44,-26,2,0,-1,9,19
1513174631447785,18,-7,-47,-15,-8,-4,-12,0
1513174631447785,-1,-6,3,-17,3,-2,12,10
1513174631455289,4,-23,-5,8,-4,-2,-9,5
1513174631455289,20,21,28,6,2,3,7,-1
1513174631464307,-9,-19,34,0,2,0,3,-6
1513174631464307,-6,-28,-49,-7,-11,-10,-11,-55
1513174631479305,-6,11,23,-4,0,-4,-34,-18
1513174631479305,-22,-1,18,6,1,-2,-2,-19
1513174631480820,11,2,-22,-36,-5,4,12,-4
1513174631480820,-33,-19,-2,30,7,5,14,5
1513174631501822,10,15,35,9,0,-3,13,3
1513174631501822,11,4,-65,-29,-10,-4,-14,32
1513174631503323,19,1,18,9,1,-1,6,-14
1513174631503323,-14,35,20,-18,-1,-3,-9,26
1513174631515331,1,-53,-1,17,0,-1,-2,3
1513174631515331,-1,-4,-38,-26,-3,-3,3,-3
1513174631524338,-11,16,55,-3,-2,-1,7,-17
1513174631524338,7,-10,-78,-18,-11,-3,-9,13
1513174631539354,-48,-2,21,13,0,1,3,-6
1513174631539354,-11,21,6,10,-2,-3,-3,-15
1513174631540863,-15,-11,58,-21,-4,2,-2,31
1513174631540863,-5,-14,-69,14,-3,-7,-8,-18
1513174631561920,28,43,16,1,9,12,24,24
1513174631561920,7,-30,30,-9,1,-2,7,0
1513174631563365,-30,-44,-94,-19,-9,-10,-16,-22
1513174631563365,-1,31,44,11,9,10,10,12
1513174631575383,2,-16,8,16,-1,-6,-32,1
1513174631575383,-13,-2,-36,-19,-1,0,-3,-5
1513174631584380,38,41,49,36,9,2,9,36
1513174631584380,15,-34,34,-22,-6,-1,-26,5
1513174631599439,-21,36,-75,-8,-5,-9,6,-11
1513174631599439,-13,6,55,12,3,3,-2,4
1513174631600939,46,-5,-30,18,2,-2,3,0
1513174631600939,-7,-10,-38,-27,-11,-1,5,-15
1513174631621454,7,24,46,3,4,1,13,29
1513174631621454,21,9,8,0,-4,-5,-38,-8
1513174631623455,-13,-6,-23,-1,2,-1,-3,-21
1513174631623455,-15,4,49,13,0,-1,23,26
1513174631635485,20,10,28,26,10,4,2,-2
1513174631635485,-5,-18,-64,-39,-17,-9,-18,-19
1513174631644492,-21,-27,-17,-2,-1,-1,-4,-10
1513174631644492,-14,7,17,6,1,1,-11,-3
1513174631658997,8,12,-50,-31,-11,-9,-7,-13
1513174631658997,16,-9,20,33,10,6,22,4
1513174631660997,-18,17,55,-7,-4,4,3,30
1513174631660997,33,-65,-105,-13,-4,-3,16,-20
1513174631682497,19,28,25,11,6,0,-25,8
1513174631682497,-19,-11,28,13,3,-1,3,-7
1513174631684013,-16,18,-36,-33,-16,-13,-20,-24
1513174631684013,9,25,38,9,3,7,20,29
1513174631704012,2,23,48,0,-3,-1,-32,-28
1513174631704012,-52,-30,-15,12,2,2,24,9
1513174631706013,-1,-4,6,-19,1,3,-7,9
1513174631706013,-18,4,11,-7,-6,-8,-13,-2
1513174631719022,15,31,19,-5,2,3,11,5
1513174631719022,-18,-23,-7,-15,-11,-5,-6,-11
1513174631720524,-6,-22,-67,26,12,5,17,-5
1513174631720524,-11,0,17,17,0,-4,-14,-1
1513174631741561,-6,1,-11,-23,-10,-2,-1,-15
1513174631741561,3,12,15,43,16,3,1,-34
1513174631743562,14,-32,-36,-39,-25,-13,7,63
1513174631743562,9,-8,32,7,10,1,-24,-60
1513174631764055,-15,-12,-71,-16,-2,-2,5,-5
1513174631764055,-4,0,-30,-16,-4,-1,6,9
1513174631766057,10,-2,42,21,9,-1,-30,-32
1513174631766057,-2,17,-11,42,11,-3,7,17
1513174631779066,-10,-32,11,-43,-22,-3,-2,-1
1513174631779066,20,8,-27,-27,-1,-5,-8,1
1513174631781073,18,14,1,23,-9,-3,3,-26
1513174631781073,11,-10,-7,-81,-6,0,-4,29
1513174631801593,-38,-15,4,35,13,4,7,6
1513174631801593,18,-3,-18,-12,-6,-6,-11,-6
1513174631803087,2,-1,10,26,5,-1,-6,-10
1513174631803087,-17,12,20,3,-2,-2,5,20
1513174631824120,8,-26,8,10,-1,-3,16,12
1513174631824120,11,28,-65,-10,-6,-3,-23,-9
1513174631825621,17,-21,47,20,9,-2,-3,10
1513174631825621,11,-1,-30,-8,0,0,3,-30
1513174631838618,-7,-8,10,10,3,-2,4,33
1513174631838618,1,14,28,27,-4,2,-11,-35
1513174631845136,5,31,-28,-38,4,5,16,-1
1513174631845136,-33,-28,-16,15,-2,4,12,-5
1513174631861624,-29,22,26,-5,-4,-3,-11,9
1513174631861624,35,27,17,6,3,2,16,16
1513174631863125,-4,-9,-35,-25,1,5,16,37
1513174631863125,-18,-16,39,16,0,-3,-16,-77
1513174631891648,16,-29,-24,-12,-3,-2,5,13
1513174631891648,16,4,13,-17,-12,-7,-4,9
1513174631893146,-12,31,37,29,2,2,-7,-25
1513174631893146,-2,10,17,22,-2,-3,-3,30
1513174631898651,3,-38,31,-5,3,-3,-12,-17
1513174631898651,-10,-12,-13,-13,7,4,23,8
1513174631905654,12,-5,3,-6,-5,-1,24,37
1513174631905654,19,40,16,-4,-11,-8,-41,-64
1513174631921678,16,15,26,-7,-7,-4,7,-2
1513174631921678,11,10,-8,25,9,6,5,17
1513174631923168,-34,-40,11,-35,-9,-5,-12,-20
1513174631923168,17,15,17,4,-1,5,35,52
1513174631944211,0,11,-17,9,-2,-2,-8,-10
1513174631944211,-29,-21,38,18,3,2,17,23
1513174631945684,-7,11,-45,-11,-6,-7,-46,-20
1513174631945684,54,-23,-42,0,2,0,-7,-43
1513174631958706,5,-3,-17,19,3,-1,8,1
1513174631958706,17,-5,-26,-55,-14,-3,-14,14
1513174631965210,11,27,24,43,11,4,8,-2
1513174631965210,-23,-18,11,-5,-8,-5,3,26
1513174631981723,16,-10,-68,-21,-4,1,-2,3
1513174631981723,-12,20,97,52,11,-1,-18,-15
1513174631983210,-23,4,-14,-3,-3,-4,-2,-10
1513174631983210,-4,24,-74,-56,-12,-3,-2,-7
1513174632004227,26,7,5,6,9,6,17,9
1513174632004227,-6,-7,17,3,-6,0,-10,-7
1513174632005726,0,15,21,23,7,-1,-9,16
1513174632005726,-24,-26,-33,24,2,0,4,-24
1513174632018746,-7,-22,-8,-30,1,2,8,9
1513174632018746,12,-2,-26,-38,-3,-3,18,26
1513174632025251,33,0,-13,-5,-1,2,-16,-9
1513174632025251,-16,4,-5,4,1,1,6,18
1513174632041274,-1,26,36,12,-2,-2,-5,-16
1513174632041274,-12,18,-3,10,-4,-4,4,-3
1513174632055277,1,-12,-11,-19,-2,0,18,-2
1513174632055277,1,-9,25,-8,2,3,1,-27
1513174632064267,28,37,16,19,0,-2,-13,-14
1513174632064267,-4,-44,12,16,4,1,15,31
1513174632066269,-56,-45,-83,15,-7,-4,-20,-51
1513174632066269,26,8,-5,-65,-8,-4,9,55
1513174632078800,-7,9,1,23,2,-4,-21,-39
1513174632078800,0,-2,-1,-13,-2,1,-4,-9
1513174632085304,2,-9,24,3,-5,1,27,-4
1513174632085304,23,26,54,56,16,5,-5,7
1513174632101816,-15,-5,-10,-23,-7,-4,6,0
1513174632101816,18,-2,-79,-23,-7,-3,-11,11
1513174632103317,-14,18,42,8,9,-1,-23,-21
1513174632103317,-11,-8,14,19,-2,-2,9,23
1513174632124322,-8,20,10,-1,3,1,-10,-15
1513174632124322,-7,-27,20,-12,-1,2,5,-5
1513174632125823,10,-35,-32,-16,-5,-1,-2,3
1513174632125823,-22,-1,47,-8,-2,0,7,11
1513174632138330,3,-8,4,52,9,1,1,-3
1513174632138330,-3,23,-2,-9,4,4,-6,-25
1513174632145325,4,-6,-24,-18,-8,-3,12,31
1513174632145325,-18,-17,2,-12,-2,-5,-24,-42
1513174632161850,-6,-9,8,2,0,0,3,-5
1513174632161850,-14,-1,-65,-12,-7,-4,7,29
1513174632163351,7,-6,38,12,5,6,13,-4
1513174632163351,11,6,-27,-2,-6,-4,-11,17
1513174632184362,-17,0,13,-7,-2,0,7,9
1513174632184362,5,-12,-9,11,0,-6,-27,-59
1513174632185864,9,17,-9,-35,-6,0,-4,15
1513174632185864,-6,7,14,30,6,-2,14,-18
1513174632197862,-26,-15,-42,-49,-11,-1,-10,-5
1513174632197862,45,30,57,19,-5,-4,13,20
1513174632206868,-30,-4,-24,10,4,1,4,-23
1513174632206868,46,23,16,15,0,0,-11,-2
1513174632221879,2,-29,9,-32,-6,-3,13,11
1513174632221879,-12,20,38,45,13,5,-1,14
1513174632223381,-26,-16,-55,-63,-17,-13,4,3
1513174632223381,-19,1,-23,14,8,4,-8,-57
1513174632244420,18,-30,62,13,-1,-7,-13,31
1513174632244420,33,-11,-69,-31,-3,2,-7,-4
1513174632245895,-27,-3,73,30,3,-1,-5,-20
1513174632245895,25,2,-56,-5,-3,-3,1,27
1513174632258096,-18,2,-3,-19,0,4,13,-4
1513174632258096,-2,4,10,-11,-5,-5,-22,-28
1513174632273122,16,21,1,23,7,3,20,20
1513174632273122,-18,2,33,10,1,-1,-3,10
1513174632281615,17,10,-55,-27,-8,-5,-1,-2
1513174632281615,-31,-3,22,7,0,-3,8,0
1513174632289120,3,6,-9,-28,-9,-1,0,29
1513174632289120,-16,-14,52,10,-1,-1,-4,-40
1513174632304131,-16,-29,-107,-26,-10,-6,-10,-3
1513174632304131,-8,4,77,55,11,2,10,-8
1513174632305645,11,20,-29,-48,-10,-2,-8,-4
1513174632305645,-12,-7,-44,-21,-12,-11,-7,-9
1513174632317640,2,-4,53,42,14,9,10,5
1513174632317640,-9,-46,-117,-50,-16,-7,-6,-23
1513174632326647,38,9,29,48,8,4,5,15
1513174632326647,-7,31,38,-18,-2,-3,10,48
1513174632341680,-10,-14,-78,-20,-11,-5,-5,-12
1513174632341680,0,22,25,17,11,5,-5,0
1513174632343159,3,-24,59,-11,-4,-2,-2,-13
1513174632343159,37,9,-58,-16,-1,0,6,38
1513174632364248,-8,11,35,19,-2,-6,-8,-8
1513174632364248,-10,-8,59,30,11,8,31,7
1513174632365735,11,-10,-74,-23,-5,-3,-11,-26
1513174632365735,-18,-3,1,-6,-5,-2,-14,-19
1513174632377749,21,3,21,-13,0,2,3,12
1513174632377749,-33,-3,-84,2,-10,-8,3,-3
1513174632386751,5,-29,71,-24,-4,-2,0,1
1513174632386751,-12,-30,0,-10,2,1,2,21
1513174632401760,-9,8,22,38,2,-4,1,-10
1513174632401760,3,-2,-36,-19,1,1,-1,1
1513174632403262,30,49,43,27,5,1,5,23
1513174632403262,-22,-40,-13,6,0,0,-15,-22
1513174632424277,-3,11,15,22,5,6,35,4
1513174632424277,15,-24,-30,-50,-7,-4,-9,9
1513174632425778,-8,-3,17,15,-2,-2,-8,7
1513174632425778,-11,13,31,12,0,0,8,10
1513174632437800,-4,20,-17,6,1,-1,-5,-1
1513174632437800,-2,-12,34,0,-2,2,8,16
1513174632446803,-11,11,-48,-21,-6,-4,-3,-35
1513174632446803,0,-27,-29,15,-3,-2,15,22
1513174632461302,-38,25,0,-40,-9,-1,-13,9
1513174632461302,-23,-35,26,-13,-7,-6,-10,-12
1513174632469308,-16,40,38,48,12,3,-11,12
1513174632469308,32,-16,-30,-47,-17,-7,-3,-22
1513174632484320,-18,-33,-61,-9,-3,-1,-9,-5
1513174632484320,0,8,43,12,2,-2,7,-2
1513174632485820,-21,20,-34,-6,-1,-1,3,-32
1513174632485820,0,0,26,31,5,2,-7,0
1513174632498330,31,-11,-20,-27,-7,-5,-4,15
1513174632498330,-15,-14,5,14,-2,-5,-6,-13
1513174632506844,-11,-31,-38,-11,0,-2,-4,-6
1513174632506844,1,29,30,2,1,3,15,-12
1513174632521845,2,12,-1,9,0,-6,-10,-8
1513174632521845,9,10,42,40,12,7,12,25
1513174632523347,35,-11,7,1,-6,-6,-4,0
1513174632523347,-23,6,-12,-24,1,2,-9,-10
1513174632544361,36,7,27,17,5,2,12,19
1513174632544361,28,33,30,10,2,1,3,-1
1513174632545870,9,-11,-88,-10,-4,-4,-30,12
1513174632545870,-23,-2,18,10,8,3,7,0
1513174632557884,4,-15,-30,-10,-10,-9,-9,-38
1513174632557884,-6,1,-1,-18,-6,-2,-24,8
1513174632566927,1,-10,18,28,2,0,-1,-6
1513174632566927,-12,4,-2,-3,-4,-5,-3,-4
1513174632582438,-6,-29,10,-26,2,2,-4,13
1513174632582438,-4,5,-31,-25,-4,-2,0,-7
1513174632583939,-30,-7,80,22,7,0,-3,-11
1513174632583939,-15,14,-6,-11,-6,-4,15,26
1513174632603963,22,-16,6,22,6,4,3,-22
1513174632603963,-34,22,15,11,7,2,3,-16
1513174632605959,2,43,29,-5,4,1,-7,6
1513174632605959,20,-16,-2,5,-1,0,-8,7
1513174632626480,0,13,35,21,1,-3,5,17
1513174632626480,17,8,4,-37,-5,-1,-20,-13
1513174632628474,-16,-12,-26,6,-2,-3,14,-21
1513174632628474,-1,-15,-5,-4,-5,-1,-8,20
1513174632641980,-10,-3,-47,0,2,5,8,0
1513174632641980,0,-24,72,21,7,-1,-16,3
1513174632643482,-6,1,-70,-27,-9,-3,9,0
1513174632643482,62,14,27,5,1,-3,-5,-22
1513174632664497,-9,6,-19,17,3,0,-16,-16
1513174632664497,4,4,-75,-32,-11,-2,15,5
1513174632666000,-9,-23,59,31,13,8,3,33
1513174632666000,-6,51,-6,-39,-7,-6,-14,-18
1513174632686523,-29,-25,32,-2,0,1,6,40
1513174632686523,16,9,12,15,-1,-3,-2,-36
1513174632688516,-6,0,41,-6,-4,-2,3,-5
1513174632688516,-16,-19,-39,0,1,5,15,10
1513174632701525,1,6,18,12,6,0,1,-16
1513174632701525,22,0,35,-4,-3,1,-3,20
1513174632703526,-28,-42,-70,-32,-12,-7,4,-1
1513174632703526,-29,20,83,51,18,4,-15,-3
1513174632725042,33,11,-74,-58,-17,-6,-7,-22
1513174632725042,-29,4,8,22,5,0,2,-26
1513174632726540,15,9,30,11,8,4,13,3
1513174632726540,-18,-29,-36,-23,-11,-4,1,-17
1513174632746563,-11,16,48,32,5,0,-2,9
1513174632746563,6,7,-62,-17,-9,-4,-6,16
1513174632748055,-30,-6,25,43,6,1,5,-14
1513174632748055,-12,-18,-42,-27,-6,-5,-6,-15
1513174632761067,-2,4,11,-26,-3,1,2,3
1513174632761067,-20,-19,-16,-8,-4,-1,15,4
1513174632767568,20,9,16,14,1,2,0,23
1513174632767568,32,-2,2,-11,-12,-6,7,3
1513174632784080,-3,-11,11,15,0,-7,-4,18
1513174632784080,37,6,24,29,10,3,-4,3
1513174632785581,-32,-24,-32,-28,-2,1,15,17
1513174632785581,10,5,-30,-13,-13,-8,-22,-25
1513174632814606,6,-19,40,-2,-1,0,5,4
1513174632814606,-2,23,9,25,5,2,2,4
1513174632815603,23,1,-10,-13,-2,1,0,-12
1513174632815603,-4,14,15,16,1,-1,-1,10
1513174632821608,1,15,11,-21,-7,-3,-7,-5
1513174632821608,-13,-8,-57,-14,-5,-1,-2,-5
1513174632829114,15,43,56,6,-2,-1,-6,3
1513174632829114,-17,-23,-13,11,8,5,-1,-6
1513174632844125,-7,21,17,-7,-3,-2,-14,-19
1513174632844125,-18,-21,-6,1,-4,-2,12,24
1513174632845624,16,-11,-57,-35,-9,-4,6,12
1513174632845624,7,24,21,-9,-1,0,-5,-32
1513174632866648,6,-1,-28,4,-1,-1,-14,-44
1513174632866648,-13,-18,-13,-11,-5,-3,1,-3
1513174632868150,8,0,12,10,0,-5,-1,4
1513174632868150,-20,-12,-28,-19,-10,-2,-1,13
1513174632881159,2,-5,-38,1,1,0,2,0
1513174632881159,-1,-21,27,-17,-4,-2,-2,-5
1513174632887662,-5,2,-1,14,1,2,-13,-22
1513174632887662,-8,-24,-6,0,5,4,17,47
1513174632904164,-9,-10,6,3,-1,0,8,-6
1513174632904164,-43,9,3,-13,-6,-4,-14,1
1513174632917686,-10,36,26,8,3,-4,-6,-16
1513174632917686,19,-12,1,27,2,0,1,14
1513174632926692,-18,20,24,-16,2,5,-4,-11
1513174632926692,17,26,29,20,9,0,0,10
1513174632928182,-38,-35,-73,-51,-17,-6,-3,-23
1513174632928182,10,11,-5,10,4,3,6,1
1513174632941208,28,6,-11,16,2,-2,-1,2
1513174632941208,-17,-55,-32,-35,-10,-6,1,11
1513174632947697,-9,28,24,17,4,1,4,-27
1513174632947697,14,-18,-7,-1,-1,-4,-35,-12
1513174632964208,1,-22,34,26,8,0,10,15
1513174632964208,12,23,19,11,2,0,-6,-1
1513174632965708,-2,-33,-48,-10,-3,-2,-4,7
1513174632965708,23,4,6,-14,-8,-6,21,9
1513174632986723,2,1,17,12,1,-3,-28,-7
1513174632986723,23,37,-2,6,0,1,0,-11
1513174632988224,-8,-42,-73,-40,-15,-9,-12,11
1513174632988224,9,0,35,16,9,6,10,6
1513174633001233,11,32,-20,7,5,-3,11,-19
1513174633001233,10,5,-14,-5,-2,1,6,-2
1513174633007738,-25,-16,54,-4,-1,1,8,39
1513174633007738,-10,3,-51,-3,4,3,2,-15
1513174633024249,-4,12,-31,-31,-14,-8,-4,16
1513174633024249,-26,-7,-18,0,-3,-5,-17,-26
1513174633025750,-8,-4,-9,11,1,-1,-7,-24
1513174633025750,13,-8,25,5,0,-1,17,26
1513174633046765,-15,-12,12,22,3,-2,-35,-14
1513174633046765,14,9,-30,-20,-4,0,6,-23
1513174633048267,32,0,55,17,4,3,-5,19
1513174633048267,-23,5,-14,11,5,1,-6,-5
1513174633061280,6,-29,-53,-46,-16,-4,15,13
1513174633061280,-2,0,29,6,3,4,13,14
1513174633067784,27,20,11,14,4,2,-3,3
1513174633067784,-2,17,28,12,-2,-5,-8,-10
1513174633084304,-10,-16,-2,-26,-5,3,13,-11
1513174633084304,17,-13,44,13,8,2,-3,15
1513174633085793,-8,26,-59,-11,-7,-5,13,-16
1513174633085793,-1,-8,22,2,-5,-8,-19,-18
1513174633106810,24,-19,-42,6,-1,1,3,17
1513174633106810,-9,-39,-9,10,5,2,8,6
1513174633108310,6,16,-12,-17,-8,-5,-1,-5
1513174633108310,-26,-5,13,0,-1,-1,4,-1
1513174633120317,25,-2,-33,28,6,2,10,5
1513174633120317,12,-20,-13,-24,-5,-5,-10,5
1513174633136830,10,15,5,12,4,4,2,1
1513174633136830,-3,11,6,-10,-3,0,-2,-9
1513174633144336,7,-9,33,-3,-1,3,27,42
1513174633144336,2,29,1,1,-3,-3,-19,12
1513174633145838,-14,-26,22,21,4,-5,0,-53
1513174633145838,11,54,6,-25,-3,-2,-20,13
1513174633166854,-28,-6,-17,-9,2,-1,0,-8
1513174633166854,11,24,6,4,-1,1,9,13
1513174633168371,6,-9,10,-3,-5,-8,3,9
1513174633168371,-16,-9,-22,6,0,3,8,1
1513174633180374,-7,-15,36,-2,0,-1,1,6
1513174633180374,-27,8,16,38,0,-7,-6,-36
1513174633189366,19,-7,-37,-58,-13,2,5,12
1513174633189366,-8,20,40,23,8,2,-5,-18
1513174633204378,-13,-10,-36,-9,2,2,13,2
1513174633204378,-10,5,7,23,4,-1,-18,22
1513174633205878,38,12,12,12,3,0,-28,-10
1513174633205878,-23,-20,-26,-8,-5,-3,1,-13
1513174633226892,4,18,36,9,-2,-2,-6,-9
1513174633226892,-16,-31,-41,-31,-4,-2,4,4
1513174633228393,-12,5,-5,30,4,3,5,6
1513174633228393,44,17,12,-26,-6,-6,-1,4
1513174633240405,13,-10,-25,9,2,0,-9,-12
1513174633240405,-12,17,-14,-7,-4,-1,8,3
1513174633249443,-13,-35,40,-6,-5,-6,-10,5
1513174633249443,10,-14,-20,17,-3,0,13,1
1513174633263953,17,14,-8,2,6,4,18,-1
1513174633263953,16,-8,12,5,-3,-4,-20,11
1513174633265954,1,-21,-34,-2,0,0,-5,-1
1513174633265954,-19,35,21,-33,-3,0,25,18
1513174633286469,-8,-9,36,1,-6,-4,-12,40
1513174633286469,1,-12,-51,-9,3,3,-6,-5
1513174633288470,-9,33,32,15,4,0,-20,-37
1513174633288470,-26,-60,-60,-2,-4,-2,-2,3
1513174633300480,-16,4,36,15,4,-1,11,26
1513174633300480,-11,35,56,-4,-4,0,10,-40
1513174633309485,-37,-19,-20,-8,-3,-2,-15,9
1513174633309485,28,-18,-5,13,6,2,3,22
1513174633323998,-23,9,-46,-17,-5,-1,-14,0
1513174633323998,18,-24,34,16,1,0,6,-4
1513174633325999,12,28,-13,-27,-5,-1,8,-49
1513174633325999,-23,-13,-33,5,1,5,18,3
1513174633347512,-12,-11,-18,-10,-5,0,15,-49
1513174633347512,-11,-11,-49,-17,-4,-2,-4,20
1513174633349016,-20,-15,35,0,-3,-2,-10,-15
1513174633349016,19,-5,-2,8,-3,-4,-14,23
1513174633360523,-7,14,44,-2,0,0,2,-2
1513174633360523,10,-18,-104,-19,-4,-2,2,-17
1513174633369027,-18,-3,17,19,1,-2,-6,8
1513174633369027,19,26,68,-24,-10,0,-5,4
1513174633383539,-1,2,-52,1,-7,-10,-14,-22
1513174633383539,-4,-7,20,-5,-4,-2,10,9
1513174633384040,24,7,15,15,5,2,13,64
1513174633384040,3,7,-6,19,5,0,-4,-47
1513174633406053,-3,-23,-39,-20,-7,-3,-34,-6
1513174633406053,11,-8,19,-8,-5,-6,-6,7
1513174633406553,27,-8,-7,5,7,3,11,-1
1513174633406553,-40,-16,-17,2,-5,-5,0,15
1513174633428572,2,3,3,-6,-7,-3,-7,-20
1513174633428572,-1,6,2,-5,-1,-2,5,12
1513174633429070,-24,-9,35,13,4,-3,-26,-24
1513174633429070,6,-16,-63,-20,1,3,7,-2
1513174633443600,-9,6,44,22,4,0,-5,-6
1513174633443600,-7,4,-4,-6,-1,0,-3,-13
1513174633444083,-22,13,26,6,-1,0,15,16
1513174633444083,17,27,15,9,8,2,-7,1
1513174633466107,-4,2,-59,-1,-6,0,7,-1
1513174633466107,2,-31,53,-13,-5,-3,1,0
1513174633466598,13,13,1,-1,2,3,14,7
1513174633466598,0,-18,-8,7,-1,0,-9,-19
1513174633488741,14,-2,-27,-18,-3,-3,0,37
1513174633488741,-3,24,-6,7,-5,-5,-6,-22
1513174633489242,3,-45,-5,1,-8,-6,-5,-12
1513174633489242,9,12,45,-13,-3,-3,-7,27
1513174633503292,-38,-3,49,22,8,4,-7,-22
1513174633503292,7,-31,-62,-14,-2,-2,-3,-11
1513174633504293,2,5,-20,-8,-2,-1,-1,-1
1513174633504293,-8,-23,12,4,0,1,2,-4
1513174633526299,-4,9,-3,-4,-3,-5,-5,3
1513174633526299,27,21,29,6,3,3,7,-2
1513174633533805,-14,3,-37,-9,2,2,4,9
1513174633533805,-2,-1,3,0,-6,-6,-21,-25
1513174633548840,20,-3,-1,-6,4,3,11,14
1513174633548840,1,23,71,7,1,0,-3,-2
1513174633549316,-13,-14,-51,3,-5,-3,-2,-4
1513174633549316,-18,-20,-46,-26,-7,-4,-10,-49
1513174633563328,8,1,24,1,-1,-2,14,24
1513174633563328,-10,17,-22,20,-1,-2,-18,10
1513174633564326,33,-3,-1,-25,-3,-3,-8,3
1513174633564326,-32,6,0,27,3,0,17,-7
1513174633586342,0,-4,4,-25,-2,-5,-28,-14
1513174633586342,10,11,-12,-4,-1,3,12,10
1513174633586843,-1,-5,11,6,-2,-1,2,0
1513174633586843,11,6,3,6,3,1,5,15
1513174633608359,-6,-13,-3,12,4,4,0,-3
1513174633608359,-2,15,38,4,5,0,12,5
1513174633609359,17,1,-13,-4,-7,-6,-31,-25
1513174633609359,-40,0,-15,-11,-5,-5,-4,1
1513174633623382,-5,-4,40,13,1,1,7,2
1513174633623382,20,9,-12,-9,-3,-2,-13,-5
1513174633624373,-22,-13,-4,0,0,3,14,9
1513174633624373,19,1,-23,-17,-1,1,0,5
1513174633645895,4,47,89,13,-2,-3,3,1
1513174633645895,-10,-31,-72,-6,-4,-3,-11,-10
1513174633646885,14,11,-44,-7,1,1,10,6
1513174633646885,26,-5,2,24,6,0,-5,3
1513174633668410,4,14,11,-9,-3,3,15,35
1513174633668410,-15,-10,32,1,0,-5,-11,-33
1513174633669411,-11,10,1,-2,-4,-1,-1,0
1513174633669411,-2,8,22,-1,-1,1,-2,-3
1513174633683606,31,-1,-17,10,3,0,-17,-9
1513174633683606,-38,-11,-20,-11,-4,0,17,49
1513174633684106,10,11,26,35,9,3,2,-32
1513174633684106,-26,-13,-34,-30,-10,-8,-4,12
1513174633706121,9,-16,0,3,2,0,7,-16
1513174633706121,19,20,9,19,6,1,-3,-3
1513174633706622,-25,-18,20,-20,-4,-3,0,2
1513174633706622,-5,-5,23,12,4,6,13,4
1513174633728140,-6,8,12,15,-2,-7,-16,-10
1513174633728140,-24,-9,-35,-26,-6,2,15,2
1513174633729138,-2,4,-13,-1,-1,-4,-9,16
1513174633729138,7,3,31,11,1,-3,5,-7
1513174633743648,-1,-24,-40,-10,-3,-1,-20,-12
1513174633743648,17,18,33,12,2,1,-5,-5
1513174633744148,-10,-6,6,-1,0,-2,6,13
1513174633744148,-10,-11,-14,-25,-9,-4,-4,-4
1513174633766184,5,1,-26,5,2,0,1,-11
1513174633766184,-6,4,24,9,-2,-2,11,21
1513174633766665,-7,7,24,-2,2,2,-9,-17
1513174633766665,22,9,-7,-1,-1,-1,-3,6
1513174633788680,-5,4,28,1,-1,-5,-8,-4
1513174633788680,-18,-44,-97,-16,-6,-2,-1,-17
1513174633789181,10,24,44,7,0,0,5,4
1513174633789181,-7,-6,-22,-9,-5,-5,-7,13
1513174633803691,-5,-10,-23,-4,-5,-3,1,-41
1513174633803691,12,3,23,-2,2,-1,6,10
1513174633804192,-9,4,-10,-9,-3,-1,4,2
1513174633804192,13,-10,17,23,7,2,-4,-7
1513174633826218,-14,4,-14,-25,-12,-3,17,20
1513174633826218,9,-9,3,22,7,0,-6,-3
1513174633826709,-5,-8,-36,-7,-2,4,33,6
1513174633826709,23,17,25,-3,0,-1,-29,-11
1513174633848222,-10,-3,0,6,1,-3,-21,-7
1513174633848222,6,0,7,-10,-6,0,6,-5
1513174633849223,18,-3,7,-9,-4,-4,-1,8
1513174633849223,1,7,7,7,1,1,20,-5
1513174633863271,-15,-20,3,-2,2,4,3,-6
1513174633863271,0,9,10,-4,-5,-4,-16,-21
1513174633864246,-3,-31,-41,-19,-8,-4,-11,-7
1513174633864246,6,5,11,-2,0,-2,2,15
1513174633886264,-2,-1,-15,-2,-4,-5,-10,-12
1513174633886264,-6,-2,7,6,3,0,5,12
1513174633886750,9,12,19,3,-6,-3,-3,4
1513174633886750,-19,-17,-25,5,0,-1,2,14
1513174633908767,5,13,10,-7,-1,-1,-4,-15
1513174633908767,-5,-2,-2,5,1,0,0,5
1513174633909268,-7,-23,-24,-6,0,-1,-8,-10
1513174633909268,-4,16,18,-4,-2,-2,-1,2
1513174633931781,10,-3,6,7,1,-1,5,9
1513174633931781,9,7,15,12,2,-1,-3,-4
1513174633932281,-4,6,6,1,3,1,-10,0
1513174633932281,-5,-10,-27,-14,-6,-3,-2,-10
1513174633945827,3,0,-19,-4,1,0,8,12
1513174633945827,-5,2,10,-5,-1,-1,-9,-13
1513174633946792,-6,3,24,14,0,-3,-2,13
1513174633946792,-5,0,-22,-5,-1,-4,-9,-8
1513174633968307,6,-8,-8,-7,-7,-1,5,11
1513174633968307,-27,-6,-22,-10,-4,-2,-2,-1
1513174633969308,4,11,25,11,3,-2,-3,-8
1513174633969308,2,-5,-16,-6,-2,-2,-3,-8
1513174633983320,-2,-2,-2,1,-1,-2,3,7
1513174633983320,-6,-8,5,0,1,1,0,-7
1513174633984318,3,10,-3,-5,-1,1,2,0
1513174633984318,0,0,6,-1,-3,-1,-1,-4
1513174634005834,-2,-4,-8,-4,0,0,3,4
1513174634005834,2,-6,-2,-3,0,-1,0,-1
1513174634006835,0,5,-3,2,-3,-1,0,-5
1513174634006835,0,-7,1,3,3,0,3,4
1513174634028360,-1,4,5,0,-1,-1,-3,0
1513174634028360,2,-3,0,-6,-4,0,-3,-2
1513174634029354,-4,-5,-15,-2,0,-1,-2,-1
1513174634029354,-2,-1,0,9,0,0,1,-3
1513174634042871,-2,0,7,-4,3,-1,-2,2
1513174634042871,0,3,-3,-4,-3,-2,-3,-5
1513174634050869,-3,0,-2,-9,-7,-4,1,-1
1513174634050869,1,4,13,8,-1,2,1,0
1513174634065887,-4,-3,5,3,9,3,1,-4
1513174634065887,2,-5,-10,-6,-4,-4,-1,1
1513174634066880,1,-1,4,7,5,2,0,-1
1513174634066880,2,2,-7,-9,-7,-4,-2,-3
1513174634088392,-5,-5,-7,-2,-5,-4,-3,-1
1513174634088392,2,1,-10,-3,0,0,0,0
1513174634089393,1,4,-9,-3,-2,-2,-1,0
1513174634089393,0,1,17,-3,1,0,0,-1
1513174634111922,0,-1,-5,-1,-3,-1,0,-1
1513174634111922,1,3,-2,-3,0,-1,0,0
1513174634112410,-1,1,-5,2,-2,-3,-3,-2
1513174634112410,-3,-6,2,-3,1,1,-2,-3
1513174634126220,0,-6,0,-1,-4,0,-1,1
1513174634126220,0,-2,5,-2,-3,-2,-2,0
1513174634126721,-1,0,0,2,1,-3,-2,0
1513174634126721,-8,-1,2,-3,-1,0,1,-5
1513174634148739,3,3,0,3,-1,1,1,4
1513174634148739,2,4,-3,-5,-1,0,-2,-1
1513174634149236,-5,-6,-3,-1,-1,1,-2,-2
1513174634149236,1,-1,-5,-1,0,-2,0,0
1513174634162749,-2,0,3,-3,-8,0,-1,0
1513174634162749,-2,-2,-4,2,8,0,-1,-1
1513174634171252,0,1,-2,7,3,1,0,-2
1513174634171252,-3,-1,-3,-2,-1,0,-2,1
1513174634185765,-1,-2,-2,2,0,-1,-1,-1
1513174634185765,1,-1,3,-4,-5,-4,1,1
1513174634186763,-1,-1,-2,-6,-2,-2,-2,-3
1513174634186763,-2,-1,0,2,1,-2,1,-1
1513174634208804,-2,-4,-12,-3,-1,-2,-1,0
1513174634208804,-1,-3,2,0,-3,-1,-2,-1
1513174634209280,-2,-1,3,0,0,1,-1,0
1513174634209280,0,-2,-7,-2,-2,0,-1,-3
1513174634222808,-6,-1,13,2,0,0,-1,-2
1513174634222808,-2,-1,-1,2,-2,-1,-2,-3
1513174634230805,-2,-2,0,-1,0,-2,-2,0
1513174634230805,-2,-1,-3,-2,-3,-2,0,0
1513174634245827,1,0,-2,-2,0,0,-1,-2
1513174634245827,0,0,2,3,-2,-3,0,-1
1513174634246811,-1,-4,-1,-2,-3,-1,0,-2
1513174634246811,1,0,-3,-3,0,0,-1,-1
1513174634268331,-1,-2,0,0,-1,0,-1,-2
1513174634268331,1,0,0,1,0,0,-1,-2
1513174634269332,2,3,-2,-3,-3,0,-1,-1
1513174634269332,-2,-4,0,-1,0,-1,-2,-1
1513174634282832,0,0,-1,0,-1,-1,0,-1
1513174634282832,0,2,-4,-1,0,-2,0,-1
1513174634290840,-2,-1,-1,-3,0,-1,0,-1
1513174634290840,0,0,-2,3,-2,-1,-1,-1
1513174634306129,2,1,-1,-1,-2,-1,-2,2
1513174634306129,-2,-4,-3,-3,0,1,-1,0
1513174634306629,-1,-3,1,0,0,-1,0,-1
1513174634306629,-1,-1,-2,-3,-1,-1,1,0
1513174634328645,-1,-3,-3,-2,-1,-3,-1,-2
1513174634328645,1,3,0,0,-2,-2,0,-1
1513174634329134,-2,0,1,-1,-2,-2,-2,-1
1513174634329134,0,-1,-2,-3,-3,0,-2,-1
1513174634342663,-3,-1,-1,0,-1,-1,1,0
1513174634342663,-2,-3,-1,0,-2,-1,-1,-2
1513174634351158,-2,0,-2,-3,-2,0,-1,-1
1513174634351158,-1,-3,-3,0,0,-1,0,1
1513174634366170,0,-2,-1,-2,1,-1,0,0
1513174634366170,-2,-2,-2,0,-1,-1,-1,-2
1513174634366660,-1,-3,0,1,0,1,-1,-2
1513174634366660,0,0,1,-2,-2,1,-1,-1
1513174634388690,1,0,-3,0,-1,0,0,1
1513174634388690,-2,0,1,2,-1,1,-2,1
1513174634389174,-1,0,-3,-2,-1,-2,-2,1
1513174634389174,-1,0,-2,-2,-1,0,-3,0
1513174634402683,0,-2,-1,-2,-1,-1,-1,-1
1513174634402683,-2,-2,-3,-1,-1,0,-1,0
1513174634411209,-2,0,1,1,0,-1,-1,-2
1513174634411209,-2,-2,-3,-1,-1,0,-1,0
1513174634426217,3,2,-5,-1,-1,-4,-1,2
1513174634426217,0,-3,1,-2,-1,0,0,-3
1513174634426701,-4,1,3,0,1,0,-1,-4
1513174634426701,-1,-2,-2,-2,-1,-1,0,0
1513174634448731,-2,-1,-2,-1,0,-1,-1,-2
1513174634448731,-1,0,0,0,-2,-1,-1,-1
1513174634449218,1,2,-3,-2,-2,-2,-2,-1
1513174634449218,2,-1,-1,0,1,-2,-1,-4
1513174634462748,-2,-3,-1,0,-2,2,-1,0
1513174634462748,0,-1,-2,-2,-1,-1,-1,1
1513174634471244,-2,-3,-1,-1,-1,-2,0,-1
1513174634471244,-1,0,-1,-1,-2,-1,-2,-1
1513174634486255,-3,-3,1,-2,-2,-2,-1,-2
1513174634486255,0,-1,0,0,0,-1,-2,0
1513174634486745,0,-1,-3,-2,-2,-1,-2,-1
1513174634486745,0,-1,1,1,-2,0,-2,-1
1513174634508270,-1,-2,-3,-1,-2,1,-1,-2
1513174634508270,-1,0,0,-1,-2,-2,0,-1
1513174634509259,0,-1,0,-1,-2,-1,0,-1
1513174634509259,0,-2,0,-1,0,-2,0,0
1513174634531785,-2,-2,1,0,0,1,0,0
1513174634531785,-6,-7,1,0,-1,-2,0,-3
1513174634532275,-1,0,-2,-1,-3,-1,-1,-1
1513174634532275,-1,1,-1,-2,-2,0,-2,-1
1513174634545809,1,0,-2,-2,0,-2,-2,-2
1513174634545809,-1,-1,-1,-2,0,0,-1,-2
1513174634546796,0,-4,-1,-3,-2,0,-1,-1
1513174634546796,-3,-2,-1,0,1,-1,-1,-1
1513174634569302,1,1,-3,0,-3,-2,-1,-2
1513174634569302,-2,1,-2,0,-2,0,1,1
1513174634570303,-2,0,1,0,-3,-2,0,-3
1513174634570303,1,0,-1,-2,-2,-2,-1,-1
1513174634591320,-1,-2,-3,0,-1,0,-1,1
1513174634591320,-1,-1,-3,-2,0,0,-1,-1
1513174634592318,-2,-2,-1,1,1,-1,0,0
1513174634592318,-1,0,-2,-2,0,-1,0,0
1513174634605827,-2,-1,1,-3,1,1,-1,-2
1513174634605827,1,-1,-1,0,-1,-3,0,-3
1513174634606828,1,-2,-1,-1,-1,-2,-1,0
1513174634606828,1,1,-3,-2,-2,-3,-1,-2
1513174634629356,-2,-1,-1,-1,-1,-1,-1,-2
1513174634629356,-2,0,-2,-2,-2,-1,-1,-1
1513174634630353,-1,-1,-2,0,-1,0,-3,-1
1513174634630353,-1,0,-1,0,-1,-1,-3,-2
1513174634651874,-4,-3,2,0,0,-1,-1,-2
1513174634651874,-1,0,-1,-1,-1,0,-1,-1
1513174634652361,-1,-2,0,0,-1,-2,0,1
1513174634652361,-2,-2,-1,0,-1,-3,1,-1
1513174634665883,0,-2,-1,0,-1,-1,-1,-1
1513174634665883,-1,-2,-2,-1,1,0,-1,-1
1513174634666871,2,-1,-2,-3,-1,-1,-2,-1
1513174634666871,-3,-3,0,0,-2,0,0,-1
1513174634688897,-2,1,-1,-2,1,-2,0,-1
1513174634688897,0,0,0,-2,-2,-3,-3,-1
1513174634689889,1,0,-2,-2,0,-1,-1,-1
1513174634689889,0,-4,-2,-3,-1,-1,-1,-2
1513174634712108,1,-2,-1,-2,-2,0,-1,0
1513174634712108,0,-3,-1,0,-1,-1,-1,1
1513174634713115,-1,0,-1,-1,0,-1,0,-2
1513174634713115,-1,1,0,-1,0,1,0,-1
1513174634726142,-2,-4,-2,0,-1,-1,0,1
1513174634726142,-1,0,-3,-2,-1,-2,-2,-2
1513174634726620,-2,-2,1,-1,-1,0,-1,-2
1513174634726620,0,-1,-2,-1,0,-1,-1,-1
1513174634748135,1,1,-3,-2,-2,-2,-2,-1
1513174634748135,-1,0,-2,-1,-1,0,-2,-1
1513174634756144,-3,1,0,-1,-2,-2,-2,-1
1513174634756144,0,2,-3,-1,-2,-1,0,-1
1513174634771664,-2,-2,0,-1,-1,-2,-1,1
1513174634771664,-1,1,-1,0,-2,-2,0,-1
1513174634772656,-2,-2,-1,1,0,-1,0,-1
1513174634772656,-2,-4,0,0,-1,-1,-2,-1
1513174634785663,-1,-1,0,-2,-2,-2,-3,-3
1513174634785663,-2,-4,3,1,-1,-1,0,-2
1513174634786662,-2,0,0,-1,-3,-2,0,-1
1513174634786662,-2,-3,0,-1,-1,-1,0,0
1513174634809191,-2,-1,-1,-1,1,1,-1,-2
1513174634809191,-2,0,-2,-3,-1,0,-1,-2
1513174634810181,-2,1,-1,-1,-1,-1,-1,-3
1513174634810181,0,0,0,0,-2,-1,-1,-2
1513174634831694,-2,-2,-2,-2,0,-2,-1,-1
1513174634831694,-2,0,-2,-2,-1,-1,-1,-1
1513174634832194,0,-1,0,-3,-1,0,0,-3
1513174634832194,0,-2,-2,-1,-1,-1,-1,0
1513174634846207,3,1,-4,-2,-2,-2,0,0
1513174634846207,-2,-2,1,0,-1,-2,0,-3
1513174634846705,-2,-1,0,-1,-2,-1,-1,-3
1513174634846705,-1,0,0,-1,-1,-3,-1,-2
1513174634868232,-2,-3,1,0,-1,-1,-1,0
1513174634868232,-2,-2,-2,-1,-1,0,0,0
1513174634876234,-1,-2,-2,1,0,1,-2,-1
1513174634876234,1,0,0,-2,-2,-4,0,-2
1513174634892740,-3,0,-1,0,1,0,0,-1
1513174634892740,-1,-1,-1,-2,-1,0,1,-2
1513174634893738,0,-1,-3,-1,-1,0,0,-1
1513174634893738,-1,-2,-2,-1,-3,0,-2,-1
1513174634905759,0,-1,-2,0,-2,-1,0,0
1513174634905759,4,1,-2,-2,-2,-2,-2,0
1513174634906759,0,-1,-3,-3,-2,-1,-1,-2
1513174634906759,0,-2,-1,-2,0,0,-1,0
1513174634929763,0,-1,-1,-1,-2,-1,-3,-5
1513174634929763,-1,2,-2,-2,-3,-2,6,5
1513174634930277,-1,0,-1,-2,-1,-3,-4,4
1513174634930277,-1,0,-1,-2,-1,-1,-2,-2
1513174634951791,-2,-3,-2,-1,0,0,1,-1
1513174634951791,-3,1,0,0,1,0,-3,-4
1513174634952280,-1,0,0,-1,-2,-2,-4,-1
1513174634952280,-2,-1,-1,-1,0,0,-1,-1
1513174634965788,-2,-3,0,0,-2,0,5,-2
1513174634965788,0,-2,1,-2,-2,-2,-3,0
1513174634966789,0,-3,-1,0,0,-2,0,1
1513174634966789,-2,-1,-2,-1,0,-2,-2,-1
1513174634989325,-1,0,-2,-1,-2,0,-3,0
1513174634989325,-2,-2,-2,-2,-1,-2,3,-1
1513174634990307,-2,0,-1,-1,-3,0,5,0
1513174634990307,-1,-2,0,-1,-3,0,3,2
1513174635011340,-1,-1,-1,-2,0,-2,-7,-7
1513174635011340,-1,-2,0,1,1,0,-8,-2
1513174635012326,-1,-3,-1,-2,-2,-3,-11,-10
1513174635012326,2,0,-1,0,-1,-1,8,2
1513174635025844,-3,-3,1,-1,-1,-1,3,2
1513174635025844,-2,0,-2,-1,-3,-2,-2,-4
1513174635026832,1,1,-1,0,1,-2,2,1
1513174635026832,0,-3,-3,0,0,1,6,2
1513174635049349,1,0,-2,0,-2,-2,-1,0
1513174635049349,-1,-1,-1,-1,1,-1,-3,-3
1513174635049847,-3,-1,-2,0,-2,1,3,-2
1513174635049847,0,-1,0,-1,0,-1,-5,-1
1513174635072364,1,-1,-3,-1,-2,-2,0,2
1513174635072364,-1,0,0,0,-1,-2,-2,-1
1513174635072866,-1,-1,0,-1,-3,1,-1,0
1513174635072866,-1,-1,-2,1,-1,-1,-2,-1
1513174635085943,1,-1,-2,0,-1,0,-2,1
1513174635085943,-1,-1,0,-2,-1,-1,0,-1
1513174635086430,-2,-1,-1,-2,-1,-2,-1,0
1513174635086430,-2,-3,1,-1,-2,-2,-5,-2
1513174635109475,-1,-1,-1,-1,-1,0,-1,-2
1513174635109475,-1,0,1,-2,-2,-1,0,-1
1513174635109948,-2,-2,-1,1,2,-1,0,-1
1513174635109948,-2,0,-3,-2,0,-1,-4,-1
1513174635131477,1,0,-5,-2,-3,-1,0,2
1513174635131477,2,1,-2,0,-3,-2,-1,-1
1513174635132480,0,-1,-1,-1,-1,-2,-1,0
1513174635132480,0,1,0,0,-3,-2,0,-2
1513174635145482,-1,-2,-3,-1,-1,0,-1,-1
1513174635145482,-2,-2,-2,-3,-3,-1,-1,-1
1513174635153488,-2,-2,0,-1,0,-1,-1,1
1513174635153488,0,0,0,0,0,-2,-3,-1
1513174635168989,-1,-2,0,-1,-1,0,-1,-1
1513174635168989,-3,0,-1,2,-1,1,-1,0
1513174635169999,0,-1,-1,-1,-1,-4,-1,-1
1513174635169999,-2,-1,0,-3,-1,0,-2,-3
1513174635191527,-2,0,-1,1,1,0,2,5
1513174635191527,-2,0,-2,-5,-1,-1,1,0
1513174635192003,-1,0,-2,-1,-1,0,0,-3
1513174635192003,3,-1,-2,-2,-2,-1,-1,0
1513174635205014,-1,1,-1,-2,-2,-3,-3,-2
1513174635205014,0,-3,-1,-1,0,2,-1,-2
1513174635221026,-2,1,-1,-1,-2,0,-1,0
1513174635221026,-1,-1,-4,-2,1,0,-1,-2
1513174635229032,0,-1,-1,-1,-1,-1,-3,-1
1513174635229032,-3,-2,0,-2,0,-3,0,-1
1513174635230032,-2,-1,1,-3,-1,-3,-1,-1
1513174635230032,-4,-5,-1,0,-1,-1,0,0
1513174635251546,-5,-5,-1,0,0,0,0,-2
1513174635251546,-1,-1,-2,1,0,-2,-1,-2
1513174635252547,0,-3,-1,0,-1,-1,-1,1
1513174635252547,2,-2,0,-2,0,-1,0,-1
1513174635266057,-1,-1,0,0,-2,0,-2,-3
1513174635266057,0,0,0,-1,-2,-2,-1,0
1513174635273561,-2,1,0,-1,-1,0,0,-1
1513174635273561,-1,-2,-3,0,-1,-2,-2,1
1513174635289092,0,1,-1,0,-2,-2,-1,-2
1513174635289092,-1,-2,-2,0,-1,0,-1,-1
1513174635290095,4,1,0,-2,-2,0,1,1
1513174635290095,-1,0,0,-1,-1,0,-1,0
1513174635319107,1,-1,-1,-3,-1,-1,0,0
1513174635319107,0,-1,0,-1,-2,-1,-1,-1
1513174635320105,-1,0,-3,-1,-1,-2,-1,-2
1513174635320105,0,0,-3,-2,0,-1,0,-2
1513174635325124,-1,1,-1,-1,-2,-1,-1,-2
1513174635325124,-2,-1,-1,-1,0,-1,-1,-1
1513174635333603,-2,-2,-1,-2,-2,-2,0,-2
1513174635333603,-1,-1,-2,-2,0,-1,-2,-1
1513174635349115,0,-3,-3,-1,-1,0,-2,-1
1513174635349115,1,-3,-2,1,0,-2,-1,0
1513174635350115,-2,-1,-1,0,0,-1,-1,-1
1513174635350115,0,0,-1,1,-2,-1,-1,1
1513174635371652,-2,-2,-1,-2,-1,-2,0,1
1513174635371652,0,1,-3,-3,-1,-1,-2,-1
1513174635372641,-1,-2,-2,-1,-1,-2,-1,-3
1513174635372641,-1,1,-1,-1,0,0,-3,-2
1513174635385141,-1,0,0,-2,-2,-1,1,2
1513174635385141,-1,-3,-3,0,-2,0,0,-2
1513174635394149,-3,-2,0,-1,-2,-1,0,-2
1513174635394149,-2,-2,-1,-1,0,0,-1,-1
1513174635409157,0,0,-2,-2,-1,-3,-2,-2
1513174635409157,-2,-1,-1,-1,0,0,-1,0
1513174635410159,0,-2,-2,-2,0,0,-1,0
1513174635410159,-2,-2,-1,0,-2,0,0,-1
1513174635431675,-3,-4,1,0,-1,-1,0,-1
1513174635431675,-2,-2,-1,-1,0,-2,1,-1
1513174635432173,-3,-1,0,1,0,-2,-1,-2
1513174635432173,1,0,-1,-3,-1,-2,-1,-1
1513174635454189,0,-1,-2,-1,1,0,-2,0
1513174635454189,-1,-1,-3,-3,-3,0,-2,-1
1513174635454689,-2,-1,-1,-2,-1,0,0,0
1513174635454689,-2,-1,-3,-1,-1,-2,-1,0
1513174635469221,-3,-2,-2,0,2,0,-2,-2
1513174635469221,-1,-1,0,0,-1,-3,-2,-1
1513174635470214,0,-2,-3,-1,1,0,-1,-2
1513174635470214,-1,2,-1,-2,-4,-2,-1,-2
1513174635491738,4,1,-4,-4,-2,-4,0,0
1513174635491738,-1,1,2,1,0,-2,-2,-2
1513174635493239,-1,0,-1,-2,-3,0,-2,-1
1513174635493239,-2,-1,0,0,-2,-2,-1,0
1513174635513754,0,-1,0,0,-2,-1,-3,-1
1513174635513754,2,1,-4,-2,0,-1,0,0
1513174635520237,-3,-3,1,0,1,-1,0,1
1513174635520237,0,-1,-1,-1,-1,-3,-1,0
1513174635527768,-2,-2,0,0,-2,-1,-1,-1
1513174635527768,0,-1,-1,-1,0,0,0,-1
1513174635544253,-3,-2,-1,1,0,-1,0,-2
1513174635544253,0,-2,-3,0,-1,1,-2,1
1513174635551758,-1,-1,-1,-1,-1,-1,-1,-2
1513174635551758,-3,-2,-1,0,-2,0,-1,-2
1513174635553260,0,0,-1,-3,-2,-2,0,-1
1513174635553260,-3,0,-1,-1,0,-1,0,-2
1513174635573793,-1,-1,-1,-2,-1,-1,-2,-1
1513174635573793,-1,-2,0,0,-1,-1,-2,-1
1513174635588799,-1,-2,-1,0,-1,-1,-2,0
1513174635588799,1,0,0,-1,0,0,0,-2
1513174635589785,-2,-1,-3,0,0,-1,0,-1
1513174635589785,-1,0,-1,-3,-3,1,1,-2
1513174635597807,2,0,-2,-1,-1,-1,-1,0
1513174635597807,-2,-3,-2,-1,0,-1,0,0
1513174635611824,-5,4,1,0,0,-1,-1,-2
1513174635611824,-3,1,-1,-1,0,-2,-3,-2
1513174635613315,-1,-1,-1,-1,-3,-2,0,-1
1513174635613315,-2,-2,-1,1,0,-2,-2,-1
1513174635633316,1,-3,-1,-2,-2,0,-1,1
1513174635633316,1,-1,-2,-1,0,1,1,-1
1513174635641835,-2,0,-1,-1,-1,-1,-3,-4
1513174635641835,1,-2,-3,-3,-2,1,-1,0
1513174635648330,-2,-4,-2,0,-3,-1,-1,-1
1513174635648330,-2,-2,0,0,-2,-3,-2,0
1513174635655345,-3,0,-1,-2,-3,-1,-1,-1
1513174635655345,0,-1,-1,-3,-2,0,-1,-2
1513174635671842,0,-1,-3,-3,-2,-1,-1,-1
1513174635671842,-2,0,1,0,-2,0,0,-2
1513174635673364,1,-1,1,0,-1,-2,-2,0
1513174635673364,-1,-1,-2,-1,0,1,-2,-1
1513174635694022,-2,0,0,0,-1,-1,-1,-2
1513174635694022,-1,1,0,-2,-2,-2,-2,-2
1513174635696501,0,-3,-1,-2,-1,0,-2,0
1513174635696501,-3,-1,1,-1,0,0,-1,-3
1513174635708519,-2,-3,-1,-1,0,-1,-1,-1
1513174635708519,-1,0,-2,-1,0,-2,-1,-1
1513174635715525,-4,-6,1,0,-1,-1,0,0
1513174635715525,2,-3,-4,-1,-1,-1,-1,1
1513174635732026,1,0,-1,0,0,-2,0,-1
1513174635732026,-3,-2,-2,-1,-1,-2,-1,-1
1513174635733527,0,0,0,-1,-1,-1,-1,-1
1513174635733527,0,-2,-3,-2,-1,-2,0,0
1513174635754052,-1,-2,-1,-2,-1,-1,-1,-1
1513174635754052,0,-1,-2,0,0,-2,-2,-1
1513174635755588,1,0,-3,-2,-1,-2,-1,-3
1513174635755588,-3,-3,0,2,-1,0,-1,-1
1513174635768583,0,-1,-2,-2,-1,-1,0,1
1513174635768583,-3,-2,0,-1,-2,0,-1,-1
1513174635775105,-1,1,-1,-1,0,0,-2,-1
1513174635775105,0,-2,0,0,0,-3,-2,-1
1513174635791624,0,-1,-2,-3,-1,-2,-1,-2
1513174635791624,0,1,0,0,-1,-1,-1,0
1513174635793100,-2,0,0,-1,-1,-1,0,-1
1513174635793100,-1,0,-1,-1,-1,-2,-2,0
1513174635814114,-1,-2,-2,-1,-1,-1,-2,-1
1513174635814114,-2,-4,1,-2,-1,-1,0,0
1513174635815637,-7,-7,-4,-1,0,-3,0,-3
1513174635815637,0,3,-3,-2,-3,-3,0,0
1513174635828628,-2,-1,0,1,0,1,0,-3
1513174635828628,-1,-2,-1,-1,-1,-2,-1,-1
1513174635835131,1,0,-1,-1,-2,0,0,-2
1513174635835131,1,-2,-1,-1,-1,-1,-1,-1
1513174635851651,-3,-1,-3,-1,-2,0,-1,0
1513174635851651,0,2,-1,-2,-2,-1,-1,-1
1513174635853152,2,0,-1,-1,-1,-1,-1,1
1513174635853152,-2,-2,-1,-1,-2,1,1,-1
1513174635874180,0,0,0,-2,-1,-2,0,1
1513174635874180,-1,-2,1,0,0,0,-2,-4
1513174635875700,1,-1,-1,0,0,-2,-2,-1
1513174635875700,-3,-1,-1,0,-1,-1,0,-2
1513174635888681,-1,0,0,0,0,0,-1,1
1513174635888681,-1,0,-1,-2,-2,0,-1,-2
1513174635895196,0,1,0,0,-2,-1,-1,-1
1513174635895196,-1,-2,0,0,2,0,-2,-2
1513174635911683,0,0,-1,0,-3,-1,-1,-3
1513174635911683,-7,-4,2,0,0,0,-1,-2
1513174635913185,-1,0,0,-3,-2,-2,-1,0
1513174635913185,2,1,-3,-1,0,-2,0,-1
1513174635934200,-1,-2,0,0,0,-2,-2,0
1513174635934200,0,2,-4,-1,-2,-1,0,-1
1513174635935700,0,-1,0,-1,-1,1,-1,1
1513174635935700,-3,-1,0,-1,0,-2,-1,-1
1513174635947725,0,-1,0,-2,-2,-1,-1,-1
1513174635947725,-1,0,-1,-2,-1,-1,-1,1
1513174635972250,-2,-1,-1,0,-2,-2,0,-1
1513174635972250,0,-4,-2,-1,0,-2,-1,-1
1513174635973227,0,0,-2,-1,-1,-2,-1,0
1513174635973227,0,-1,0,-2,-1,-2,-1,0
1513174635974729,-1,1,-1,-1,0,-1,0,-1
1513174635974729,-2,-3,-1,0,-3,-2,-2,-2
1513174635994292,-2,-1,-2,-1,0,-2,-1,-2
1513174635994292,1,-1,-2,-2,0,0,0,-1
1513174635995744,1,-2,-1,-2,-1,0,-1,-1
1513174635995744,-1,-1,0,-2,-1,0,0,0
1513174636007776,-2,-1,-2,-1,-1,-1,-1,-2
1513174636007776,0,0,-4,-1,-1,-1,0,0
1513174636016786,-4,-3,-1,1,0,0,-1,-2
1513174636016786,1,1,-3,-2,-2,-2,-2,-1
1513174636031770,-2,1,-1,-2,-2,-1,-2,-3
1513174636031770,0,-3,-2,0,0,0,-1,0
1513174636033272,0,-2,-1,-4,-1,-3,-1,0
1513174636033272,0,0,1,-1,-2,-1,-1,0
1513174636054284,-1,-3,-1,-2,0,1,-1,-1
1513174636054284,0,0,-2,-1,-3,-1,-1,-2
1513174636055785,-5,-1,0,0,-1,0,0,-3
1513174636055785,-1,-3,-3,-1,-1,0,-2,0
1513174636067803,0,-2,-1,-2,-1,-2,-1,-1
1513174636067803,-3,-2,-2,1,0,-2,-2,-2
1513174636076802,2,-2,-1,-2,-3,-2,0,0
1513174636076802,-2,0,-1,0,1,1,-2,0
1513174636091829,-1,-1,0,-2,0,-1,-2,-2
1513174636091829,1,1,0,-2,-1,-2,0,-2
1513174636105321,0,-2,-2,1,-1,-2,-3,0
1513174636105321,-2,-2,-1,0,-1,0,1,0
1513174636114328,-2,-2,-3,-3,-2,-3,-1,0
1513174636114328,2,1,-3,-2,-2,-1,-1,-1
1513174636115829,-3,-1,-1,-1,1,-2,-1,-2
1513174636115829,1,-2,-2,-2,-2,-2,-1,-1
1513174636127836,-1,-2,-1,1,-2,0,0,-2
1513174636127836,-1,-2,-1,0,-2,-1,-2,-1
1513174636136847,0,0,-2,-1,1,0,0,0
1513174636136847,-2,-2,-1,-1,-1,0,-2,-2
1513174636151853,-2,0,-3,-1,-1,0,-1,-1
1513174636151853,-1,-1,1,0,0,-1,0,-1
1513174636153356,1,-2,-2,0,-1,1,0,0
1513174636153356,-2,-2,-2,-1,0,-1,1,-1
1513174636174385,0,0,-1,0,-1,-1,0,0
1513174636174385,-2,-1,-1,-1,0,-2,-3,-2
1513174636175885,2,-1,-1,-1,-2,-2,-1,1
1513174636175885,-1,1,0,-1,-2,-2,-2,-1
1513174636196895,0,0,0,0,-2,-2,0,-1
1513174636196895,0,0,-1,-1,-2,-2,0,-1
1513174636199390,0,-1,-1,-2,-1,-1,-2,-2
1513174636199390,-2,-3,0,-3,1,0,-1,-1
1513174636211912,-1,-1,-1,-2,0,-2,-2,-1
1513174636211912,-3,-2,0,-1,-1,-1,-1,-1
1513174636213465,-1,2,-3,-3,-2,-2,-3,-1
1513174636213465,-2,-2,-3,-1,-1,-1,-1,-1
1513174636233911,-3,-1,-2,0,-1,0,-2,1
1513174636233911,-1,-1,-2,-1,0,0,2,-1
1513174636241920,-1,0,-2,-2,-2,-1,-1,-1
1513174636241920,0,0,-2,-1,0,0,-2,-1
1513174636247921,0,0,-1,-1,-1,-1,-1,0
1513174636247921,-1,0,0,-1,-1,-1,-3,-3
1513174636256427,-1,-1,0,-1,1,-1,-1,-2
1513174636256427,0,0,0,-1,-2,-2,-1,-1
1513174636271453,-2,-1,0,-2,-2,-1,-2,-2
1513174636271453,-1,-2,-1,-1,-2,-1,-1,1
1513174636273451,-5,-2,0,0,-1,0,1,0
1513174636273451,-2,-1,-1,-1,-1,-3,0,0
1513174636294466,-2,-3,-1,-1,0,-1,0,-2
1513174636294466,0,-1,0,-2,-2,-1,-2,0
1513174636295959,1,-2,-1,-1,-1,-1,-2,0
1513174636295959,-1,-1,-2,1,-1,-2,-2,1
1513174636307964,-2,0,-2,-1,-1,-1,-1,-3
1513174636307964,-1,-2,-1,-2,-1,-3,0,0
1513174636316973,-2,-3,-1,-2,-1,-1,1,-1
1513174636316973,-3,-2,-1,0,1,-1,0,-2
1513174636331496,0,-1,-2,-1,-2,-1,-2,-1
1513174636331496,-5,-5,2,-1,0,-2,-2,-3
1513174636337984,2,0,-1,-4,-2,-2,-3,0
1513174636337984,1,1,-1,-1,-2,-1,0,0
1513174636353996,-1,-1,-2,-1,-2,-1,-1,0
1513174636353996,0,1,-1,-4,-2,0,-1,-1
1513174636360501,-2,-2,-1,-1,0,-1,0,0
1513174636360501,-1,-3,-1,0,-2,1,0,1
1513174636376549,1,0,-2,-2,-2,-1,1,0
1513174636376549,1,-1,-2,-1,-2,-2,-2,-1
1513174636378513,-3,-2,-1,0,0,-2,-1,-3
1513174636378513,-1,-2,-2,-1,-1,-1,-1,-2
1513174636391381,-1,0,-1,-1,0,0,-1,-1
1513174636391381,-1,-1,-1,-2,-3,-1,-2,-1
1513174636397892,-2,-1,0,0,-2,-1,-1,-1
1513174636397892,-1,2,-1,-1,-2,0,-1,-1
1513174636414393,-4,-4,1,-1,0,-1,0,-2
1513174636414393,-2,-3,0,-1,0,-1,-1,0
1513174636415908,0,0,0,0,-1,-1,-1,-1
1513174636415908,2,-2,-1,-2,-2,-1,-1,0
1513174636436361,4,0,-3,-3,-1,-2,-2,0
1513174636436361,-1,-3,-2,1,0,-1,-2,-3
1513174636438371,-3,-2,-1,1,-1,-2,0,-3
1513174636438371,0,1,-2,-1,-2,-2,-2,-2
1513174636451871,-4,1,-1,-2,-1,-1,-3,-1
1513174636451871,-1,0,-2,1,-1,-1,1,-1
1513174636453372,-1,-1,0,-1,-1,0,-1,-1
1513174636453372,-2,-3,-2,-1,-1,-2,-1,-1
1513174636473909,-2,-3,-1,-1,-2,-1,-1,0
1513174636473909,-2,-2,0,-1,0,-1,0,-1
1513174636475898,0,-1,0,-3,-3,-2,-3,0
1513174636475898,0,2,-1,-2,-1,0,-1,0
1513174636496568,-2,-2,-2,1,-1,-1,-2,-3
1513174636496568,-2,-2,-2,0,0,-1,-2,-2
1513174636499039,0,-1,-3,0,-1,-1,0,0
1513174636499039,-2,-2,1,-3,0,0,-1,-3
1513174636511568,-2,0,1,-1,0,-2,-1,-1
1513174636511568,0,0,0,0,-2,-2,-1,1
1513174636513049,-1,-2,-3,-2,-1,-2,-1,1
1513174636513049,-2,-3,-2,-1,0,-2,0,-1
1513174636534063,0,0,-2,-1,-1,-1,-1,-2
1513174636534063,1,1,-1,-4,-1,-2,0,-1
1513174636535564,-1,-2,0,1,1,0,0,-2
1513174636535564,-2,-2,0,0,0,0,-2,-2
1513174636556579,1,-2,-1,-2,-2,0,-2,0
1513174636556579,-3,-1,-1,-1,-1,-1,-1,-3
1513174636558080,0,1,-4,-2,-2,-1,0,-1
1513174636558080,-1,0,-2,-1,-3,-1,-2,1
1513174636571089,-1,-1,0,-2,-1,0,0,-2
1513174636571089,0,0,-1,-1,-3,0,-2,-1
1513174636577594,-2,-3,-1,-1,0,-1,0,-1
1513174636577594,0,-3,-2,0,0,0,-1,-1
1513174636594106,-3,-2,-1,-1,0,-1,0,-1
1513174636594106,-5,-2,0,1,-2,1,-2,-2
1513174636596623,1,-1,0,-2,-1,-2,-1,0
1513174636596623,-1,-5,1,-2,-1,-1,-1,-1
1513174636616622,-2,-3,-1,0,0,-1,-1,0
1513174636616622,-1,0,-1,-2,0,-1,-2,-1
1513174636618123,0,-2,-2,-2,0,0,-2,-2
1513174636618123,1,1,-2,-2,0,-2,-1,-2
1513174636631134,-2,-1,-2,0,-2,-2,-1,-1
1513174636631134,-1,1,-2,-2,-2,-1,0,-1
1513174636637638,0,0,-2,-1,-1,-2,-3,0
1513174636637638,-2,-3,0,-1,-2,-1,-1,-2
1513174636655150,1,1,-2,-2,-1,-1,-1,-3
1513174636655150,0,0,0,-1,0,1,-2,-2
1513174636657151,-1,-2,1,-1,-2,-1,-1,0
1513174636657151,1,0,-3,-1,-1,-1,-1,0
1513174636676665,0,0,-2,0,-1,-1,-1,-1
1513174636676665,0,-3,-1,0,0,0,-1,-1
1513174636691737,-2,-1,-1,-1,-2,0,-1,-3
1513174636691737,-1,-1,-1,0,0,-1,-1,1
1513174636692177,-2,-3,0,-3,-2,-2,0,-1
1513174636692177,-2,0,-1,-3,0,-1,-1,0
1513174636697693,-1,-1,-1,0,-1,-1,-1,1
1513174636697693,-1,2,-2,-2,0,0,-1,-2
1513174636714191,0,1,-1,1,-4,-2,-1,0
1513174636714191,-4,-5,0,0,2,0,-1,-3
1513174636715695,-1,-1,-2,0,-3,-2,0,-1
1513174636715695,-1,-2,-1,-1,-3,0,-2,-1
1513174636736717,-1,-1,-1,-1,-1,-1,-2,0
1513174636736717,-1,-3,-2,0,0,-4,-1,-3
1513174636738208,1,-1,-1,-2,0,-1,-2,0
1513174636738208,-2,-2,-1,-1,-4,-1,0,-2
1513174636750734,0,0,-1,-2,-1,-2,-1,-1
1513174636750734,0,1,-2,-1,-1,-1,0,2
1513174636757738,-3,-2,-3,-1,1,0,-1,0
1513174636757738,-2,-1,-1,1,0,-1,-2,-2
1513174636774254,-2,-1,-1,-2,0,-1,0,-3
1513174636774254,1,1,-2,-3,-2,-2,0,-1
1513174636775756,0,-3,2,0,1,0,0,-1
1513174636775756,0,-2,-2,0,-2,-1,-1,1
1513174636796769,-2,-1,0,1,-1,-1,-1,-1
1513174636796769,-1,-2,-1,-2,-2,-2,-2,0
1513174636798289,-2,-2,1,-2,-1,-1,0,0
1513174636798289,1,-1,-1,-3,-2,0,0,1
1513174636810791,-3,-2,0,-2,0,-1,-2,-1
1513174636810791,-3,-1,0,0,0,0,0,-2
1513174636817791,-2,-2,0,1,0,-2,0,0
1513174636817791,-2,-2,-2,-1,0,0,1,-1
1513174636834294,-1,1,-1,-1,-3,-1,-1,-3
1513174636834294,0,-2,-2,-1,-2,1,-1,-1
1513174636835804,1,1,-4,-2,0,-1,-1,-1
1513174636835804,-2,0,-1,0,0,-2,-2,-2
1513174636856308,-1,-1,-1,0,-1,-2,-1,-1
1513174636856308,-2,-1,0,0,1,-1,-1,-2
1513174636858310,1,0,0,0,-2,-1,-2,-1
1513174636858310,-1,-3,-1,-4,-2,-1,-2,0
1513174636870357,-1,0,-2,1,0,-1,0,-2
1513174636870357,0,-1,-1,-1,-2,-1,-1,-2
1513174636885340,-1,-1,-3,-3,0,0,-1,-1
1513174636885340,2,3,-2,-2,-2,-2,-1,-1
1513174636894336,-2,-2,-2,0,0,0,0,0
1513174636894336,-2,-2,-2,1,0,-2,0,0
1513174636895837,-1,-1,-2,0,0,-1,-2,-1
1513174636895837,-1,1,-2,-3,-3,-1,-1,-1
1513174636916863,-2,-2,-1,-2,-2,-1,-1,-2
1513174636916863,1,0,-2,-1,-2,-2,0,-1
1513174636918865,-1,-1,-1,-2,-1,0,0,-1
1513174636918865,1,-1,-1,0,0,-2,0,1
1513174636930861,-2,-2,-1,0,0,-3,-2,-2
1513174636930861,-3,-2,-1,-2,-2,0,-1,-1
1513174636939377,-1,-1,-1,0,-2,-2,-1,-1
1513174636939377,0,-3,-1,-1,-1,0,-1,-2
1513174636954387,1,-3,-1,-1,-1,-1,-1,0
1513174636954387,-2,-2,-1,-1,-1,0,-1,0
1513174636955888,-2,-2,-2,-1,0,0,-1,-3
1513174636955888,-3,-2,-1,-1,0,-2,1,-2
1513174636976908,0,-1,-1,0,-2,1,0,0
1513174636976908,-2,0,-2,-1,-2,0,-1,-1
1513174636982398,-2,-1,-1,-2,-2,-2,0,0
1513174636982398,0,-1,-1,-1,-1,-2,-2,-1
1513174636990403,-3,-4,1,-1,0,-2,-1,-2
1513174636990403,0,1,1,-1,1,-2,0,0
1513174636999279,-3,-1,1,-1,1,-1,-1,-1
1513174636999279,-1,-2,-3,0,-1,-1,-1,-1
1513174637014289,0,-2,-3,-2,-1,1,1,0
1513174637014289,-1,-1,-1,-4,-2,-2,-1,-1
1513174637015793,0,-2,-4,-2,-2,-2,0,-1
1513174637015793,-2,0,-2,-1,0,-3,0,1
1513174637036323,-5,-1,1,1,-1,-1,0,-2
1513174637036323,-2,-1,-2,-1,0,0,-1,-1
1513174637038309,-1,-1,-3,-1,-2,-2,-1,-1
1513174637038309,-1,-3,1,-1,-1,0,0,-1
1513174637050314,2,1,-2,-2,-1,1,0,-1
1513174637050314,-1,1,-1,-1,-2,-3,-2,-1
1513174637059321,0,-1,0,1,0,-1,0,-1
1513174637059321,-3,-3,-1,0,-3,0,-2,-1
1513174637073835,-2,-1,1,-2,1,0,0,-1
1513174637073835,-1,-1,1,-1,0,-2,0,0
1513174637080339,4,3,-5,-2,-1,1,-3,1
1513174637080339,-1,-3,-2,0,-1,0,-1,-1
1513174637096889,-4,-1,-1,-1,0,-2,-1,-3
1513174637096889,-2,-1,-1,1,-1,1,-2,0
1513174637099351,0,-3,-1,-1,-1,-1,0,-2
1513174637099351,-2,0,-1,1,1,-1,-2,-2
1513174637118864,2,-1,-2,-1,-3,-1,-1,0
1513174637118864,-2,-2,-1,-1,-1,-1,-1,-2
1513174637120865,-1,-3,-1,-1,-1,-1,-1,-1
1513174637120865,1,0,-1,-1,-1,-1,0,-1
1513174637133875,1,1,-2,-3,-3,-1,-4,-1
1513174637133875,-2,0,-2,0,-1,0,0,-3
1513174637135875,0,-2,1,1,-1,-2,-3,0
1513174637135875,0,-1,-1,0,-1,0,-1,-1
1513174637156390,-2,-1,-2,-2,-1,-2,-1,1
1513174637156390,2,1,-1,-3,-2,-3,-1,1
1513174637157890,-1,0,-3,-3,-2,-1,-1,1
1513174637157890,-3,-2,-2,-1,-1,0,0,-1
1513174637169902,-1,-3,0,-2,0,0,0,-1
1513174637169902,-4,-4,-2,-1,-1,1,-1,-1
1513174637179062,-2,-2,-1,0,-1,-1,0,-1
1513174637179062,-1,2,-2,0,-1,-2,-2,0
1513174637194075,-1,1,0,-2,-2,-1,-1,-2
1513174637194075,-3,-2,-1,0,-1,-2,-1,-2
1513174637195573,-1,-3,1,-1,-1,-1,-1,-1
1513174637195573,-1,-1,-1,-2,-1,-1,-2,1
1513174637216588,-1,-1,-2,0,1,0,0,-2
1513174637216588,1,2,-1,-1,-2,-3,-1,0
1513174637218089,0,0,-1,1,-2,-1,0,2
1513174637218089,-3,0,-2,-2,-2,-1,-1,-1
1513174637230112,-3,-3,-1,2,0,0,-1,0
1513174637230112,0,-1,-2,0,-1,-1,-1,-1
1513174637239104,-1,-2,-2,-2,-3,0,0,-1
1513174637239104,1,-1,-2,-1,-3,-2,-2,1
1513174637254114,0,2,-1,0,-2,-2,-3,-2
1513174637254114,1,-4,0,-1,-1,0,-1,-2
1513174637255615,-2,-1,-1,-2,0,-2,0,-1
1513174637255615,0,-2,-1,-3,-1,1,-1,-1
1513174637276678,0,-1,-3,-4,-2,-3,-1,0
1513174637276678,0,0,0,-1,-2,-1,-1,-1
1513174637278136,-1,-1,-2,-1,-1,-2,-2,0
1513174637278136,-1,-1,0,0,-1,-1,-1,-1
1513174637290165,-1,-1,-1,-1,-1,0,0,0
1513174637290165,-1,-1,-2,-1,0,-1,-1,0
1513174637299147,-1,-1,-1,-2,0,0,-3,-1
1513174637299147,-1,-2,-1,0,1,1,1,0
1513174637314658,0,-1,0,-3,-2,1,-1,-3
1513174637314658,-2,-3,-1,-2,-1,-1,0,-1
1513174637315659,-3,-1,-2,-2,1,-2,0,-1
1513174637315659,-1,-2,0,-1,0,0,-2,-1
1513174637336672,-2,-1,0,-1,-1,-1,-1,-1
1513174637336672,-1,-1,-1,1,1,-1,-2,-1
1513174637338173,0,-3,-1,0,-1,0,-1,-1
1513174637338173,-3,-3,-2,-2,-1,-3,-1,-1
1513174637359188,-2,1,-1,-1,-1,-3,-1,-1
1513174637359188,-2,-3,0,-1,0,-2,1,-1
1513174637360689,-3,1,1,1,-2,0,-2,-1
1513174637360689,2,0,-2,-1,0,0,-2,0
1513174637374217,0,1,-3,0,-1,-1,-1,-1
1513174637374217,-1,-1,0,-2,-3,-3,-2,-2
1513174637375717,1,0,-2,-2,-2,-2,0,0
1513174637375717,-1,0,-1,-1,-1,-1,0,0
1513174637396716,-2,-1,-1,0,-1,-2,-1,-1
1513174637396716,0,-1,-1,0,-1,1,-1,-1
1513174637398719,0,-4,-1,-3,0,-2,0,0
1513174637398719,-2,-1,-2,-2,-1,0,0,-2
1513174637419244,1,-3,2,0,-1,-2,-1,-1
1513174637419244,-1,1,-1,-1,-2,-1,-1,-2
1513174637420744,-2,-2,-2,0,-2,0,-2,-3
1513174637420744,0,1,-1,0,-2,-3,-1,-1
1513174637434242,-2,-2,0,-1,0,0,-2,-3
1513174637434242,-3,-3,-1,0,-1,0,-1,0
1513174637435744,0,-1,-3,0,1,-1,-1,0
1513174637435744,0,-3,-2,0,0,-1,-1,1
1513174637457258,-1,-2,-1,0,-1,0,-1,1
1513174637457258,-1,0,-2,-1,-2,-3,0,1
1513174637458759,-1,-1,-1,-1,-2,-1,0,-2
1513174637458759,0,-1,-1,-3,-4,-2,-1,0
1513174637478787,-2,1,-1,-2,-2,-3,-2,0
1513174637478787,-1,-2,0,-4,-1,2,-2,0
1513174637480778,-2,-2,-2,-2,-1,-1,-1,0
1513174637480778,-1,-2,0,-2,1,0,-1,-2
1513174637493814,0,-3,-2,0,1,-1,0,-2
1513174637493814,0,-2,-2,2,-1,-3,-1,-2
1513174637500291,-1,1,-1,-2,-1,-2,0,-1
1513174637500291,1,-2,-2,-2,-2,-2,-3,-1
1513174637516802,-1,0,-1,-1,-3,-1,-1,-2
1513174637516802,0,0,-2,-1,-1,1,-1,-2
1513174637518323,-1,-1,-1,-1,-2,0,0,-1
1513174637518323,-3,1,-1,0,-2,-1,-2,-2
1513174637538844,-2,-1,-1,-2,-1,-2,0,0
1513174637538844,-2,-3,-1,-1,0,-1,-4,-1
1513174637540831,0,-1,-3,-1,-1,-2,-2,-1
1513174637540831,-1,-2,-2,0,-2,-3,0,0
1513174637553336,2,0,-3,-2,-1,-1,-3,1
1513174637553336,-1,0,1,-2,0,1,-1,-1
1513174637560342,0,0,-1,-1,-1,-2,0,-2
1513174637560342,-2,-1,-1,-2,0,-2,-2,-2
1513174637576366,-1,-2,-2,-1,-1,-1,-2,-1
1513174637576366,0,-2,-1,0,-3,-2,0,0
1513174637578360,-1,-3,0,0,0,-1,-1,-1
1513174637578360,0,-2,-2,-1,-2,1,-1,-2
1513174637599359,-1,-1,0,-2,-2,-1,-1,-4
1513174637599359,-2,-1,0,-1,0,-2,0,-2
1513174637601361,-1,1,1,-1,-2,-1,-2,0
1513174637601361,-3,-2,-1,-1,1,-1,1,-1
1513174637613384,-1,-2,-1,0,-2,-2,0,0
1513174637613384,-4,-3,0,1,0,-1,-1,-1
1513174637620374,2,0,-1,0,0,0,-2,0
1513174637620374,-1,0,-2,-1,0,-1,-1,-1
1513174637636385,-1,-1,-1,-2,-2,0,0,-1
1513174637636385,-1,0,-4,-3,-2,-1,-1,-1
1513174637638400,-2,-3,-2,0,-1,0,-2,-1
1513174637638400,-1,-3,1,-3,-1,-2,0,-1
1513174637659156,-1,-1,-1,0,-2,-1,-1,-1
1513174637659156,-2,1,-2,0,-1,-1,0,0
1513174637660689,-1,-1,0,-2,-2,-1,-2,1
1513174637660689,-2,1,-1,-2,-1,0,-1,-2
1513174637673168,-6,-1,1,0,0,-1,-1,-4
1513174637673168,1,1,-1,-1,-1,-2,-1,-1
1513174637681671,-1,-2,-2,-1,0,-1,-2,-2
1513174637681671,-1,-2,-2,0,-1,-1,-1,-2
1513174637696682,0,-2,-2,-3,-2,-1,-1,-1
1513174637696682,1,-1,1,-1,-3,-2,-1,0
1513174637698685,0,0,-3,-2,0,-1,-1,1
1513174637698685,-1,1,-2,-1,-2,-2,-2,1
1513174637719704,-1,2,-1,-2,-1,-1,-1,-1
1513174637719704,0,-2,-3,-3,-2,-1,-2,-1
1513174637721214,-1,0,-1,-1,-1,-2,0,1
1513174637721214,-1,0,0,0,-1,0,-1,0
1513174637733207,-1,0,-2,-4,-3,-1,-1,-1
1513174637733207,0,-2,-2,0,0,0,-2,-2
1513174637740215,0,-1,-2,0,-1,-2,-1,-1
1513174637740215,-2,-2,-2,-1,-2,0,0,-1
1513174637757236,-1,0,0,0,1,-1,-1,-2
1513174637757236,-1,-1,-2,-2,-2,-1,-1,-1
1513174637758725,-2,-1,-2,-2,-1,0,-1,0
1513174637758725,0,1,-2,-1,-1,-2,-2,-1
1513174637779242,-1,-1,-1,0,-1,-1,0,-1
1513174637779242,-1,1,-2,-1,1,-1,0,-2
1513174637780742,-3,-3,2,1,-1,0,-2,-3
1513174637780742,0,-1,0,-2,-2,-2,-2,-1
1513174637793271,-1,-4,-2,-1,0,1,-1,-1
1513174637793271,-4,0,1,0,1,0,-1,-1
1513174637800258,1,-1,-4,-2,-1,-1,0,0
1513174637800258,-3,-2,0,0,1,0,0,-1
1513174637816779,-2,0,0,1,-2,0,-1,-1
1513174637816779,0,-2,-1,-2,-2,0,-1,-1
1513174637818280,1,-1,-2,-2,-3,-3,-1,0
1513174637818280,0,-1,-1,0,-1,-1,-2,0
1513174637839286,-1,-5,-1,-1,1,-2,0,-2
1513174637839286,0,-1,-1,-1,-1,0,-1,-2
1513174637840787,-1,-1,-1,-1,-1,-1,0,-1
1513174637840787,-1,-1,-1,-1,-2,0,-2,1
1513174637852814,0,0,-1,-2,0,0,-1,0
1513174637852814,1,0,0,-1,-1,-2,-1,0
1513174637861820,-2,-4,-1,0,-1,0,-2,-2
1513174637861820,0,0,-1,-1,-1,-3,-1,-3
1513174637876331,-2,1,-2,-4,-2,-2,-3,-1
1513174637876331,-6,-3,-1,0,0,0,-1,-1
1513174637878315,0,0,-2,0,-2,-1,1,-1
1513174637878315,0,-1,-1,-2,0,0,-1,-1
1513174637898826,-1,-1,0,-1,-2,-2,-1,0
1513174637898826,1,0,-1,-1,-3,-2,-2,0
1513174637900827,-1,-1,-2,-1,-2,0,-2,-1
1513174637900827,-3,-3,-1,-1,-1,-2,-1,-1
1513174637912844,0,-3,0,0,-1,0,0,-2
1513174637912844,2,3,-4,-2,0,-1,-1,0
1513174637921842,0,-2,0,0,-1,-1,-1,1
1513174637921842,2,1,0,-3,-2,-2,-2,0
1513174637936390,0,0,-1,-1,0,0,0,0
1513174637936390,-2,-2,0,-1,-3,-3,-1,1
1513174637937416,0,-2,-2,0,-1,-1,-2,-1
1513174637937416,-2,-1,-1,0,1,-1,0,-2
1513174637959066,-1,0,0,0,-3,-1,-1,-1
1513174637959066,-3,-4,0,0,1,-1,-1,-2
1513174637960563,-1,1,-2,-2,-2,-2,-1,0
1513174637960563,0,-2,-2,-1,-1,0,-1,-2
1513174637972575,0,0,-2,-2,-2,-1,-2,-2
1513174637972575,-3,-2,0,1,0,0,0,-2
1513174637981578,-1,0,-1,-2,-2,-2,-1,-1
1513174637981578,-1,-1,-1,0,-1,-1,-2,-1
1513174637997089,-1,-2,-1,0,-1,-1,0,-1
1513174637997089,0,-1,-3,-3,-1,0,0,-2
1513174637999092,-2,-1,-3,-4,-1,-3,0,-1
1513174637999092,-1,1,-2,0,0,1,-1,-1
1513174638019105,0,0,-3,-2,0,-2,-1,-2
1513174638019105,0,-2,-1,0,-1,-1,-1,0
1513174638020606,1,-2,-1,0,0,1,1,-4
1513174638020606,0,0,-2,-1,-2,-2,0,0
1513174638032630,-1,0,-2,-1,-2,-1,-1,-1
1513174638032630,0,-1,-3,-3,-2,-1,-2,-2
1513174638041621,-4,-4,1,-1,1,-1,0,-1
1513174638041621,-1,-1,-2,-1,-2,-1,-1,-1
1513174638056643,-1,0,-1,0,-1,-1,-1,-1
1513174638056643,2,-1,-1,1,0,-1,1,1
1513174638058133,2,1,-1,-3,-4,-1,-3,-1
1513174638058133,-2,0,0,-1,-2,-2,0,-2
1513174638079187,-3,-1,1,-1,0,-1,-1,-3
1513174638079187,-3,1,-2,-2,1,-2,-2,-1
1513174638080669,0,1,-3,-1,-1,-1,-1,-1
1513174638080669,-3,-3,-1,0,-2,0,-2,-2
1513174638092660,-1,-2,0,-1,-1,-1,1,-1
1513174638092660,-3,-5,1,0,-2,-1,-2,-2
1513174638101663,-1,-2,-2,0,-2,-1,0,1
1513174638101663,-1,0,-3,-2,-2,-1,-1,0
1513174638116693,0,-4,-1,0,-1,-1,-1,-2
1513174638116693,-2,-2,-2,-2,-2,-2,-2,-2
1513174638118177,0,-1,-1,-1,0,0,0,1
1513174638118177,-1,-2,-1,1,-1,0,-1,-2
1513174638139689,-3,-1,1,-2,0,0,-2,-1
1513174638139689,1,1,-1,-1,-1,-3,0,-1
1513174638141190,0,0,-1,0,-1,0,-2,-1
1513174638141190,-1,-2,-1,-1,0,-2,0,0
1513174638152699,1,-1,-2,-2,-2,-2,-1,-1
1513174638152699,1,1,-1,-1,0,0,-1,0
1513174638161706,1,1,-2,-2,-3,-2,-1,-1
1513174638161706,-1,-1,0,-1,-1,0,-3,-3
1513174638176717,-2,0,-1,-1,-2,-1,-1,0
1513174638176717,-1,-1,-2,0,-1,-1,-2,0
1513174638182733,-1,-1,-2,0,0,-1,0,-1
1513174638182733,0,-1,1,-1,-1,-1,-1,-2
1513174638199232,-3,-3,-1,0,0,-1,0,1
1513174638199232,-2,-1,-2,-1,0,1,0,-1
1513174638200733,-1,-2,0,-1,1,0,-2,1
1513174638200733,-2,-1,-2,-2,-1,-3,-1,0
1513174638212743,-1,0,0,-2,-1,-1,-3,0
1513174638212743,1,0,0,0,-1,-3,0,-1
1513174638221759,-2,-1,-1,0,-1,-1,1,1
1513174638221759,0,0,-1,-2,-1,-1,-3,-3
1513174638236259,0,0,-1,-1,-2,-2,-2,-2
1513174638236259,1,0,0,-1,-2,-1,-1,-2
1513174638238261,-1,-2,-2,-1,0,-1,0,-3
1513174638238261,0,-1,0,-2,0,0,0,-1
1513174638259275,1,0,0,0,-3,-1,-1,-3
1513174638259275,-1,-2,1,-1,-3,-1,-1,0
1513174638260777,-2,-2,-2,-1,-1,-1,-1,-1
1513174638260777,1,0,-1,-3,0,-2,0,0
1513174638281790,-4,-1,0,0,-1,-1,0,-2
1513174638281790,0,-2,-3,1,0,1,-2,-1
1513174638283303,-2,-3,-1,1,1,-2,-1,-2
1513174638283303,-2,-2,-1,-2,-2,-1,-1,-2
1513174638296802,-1,-3,1,0,1,1,-1,1
1513174638296802,1,-1,0,-2,0,-1,-1,-1
1513174638299303,-1,0,0,0,1,1,-3,-3
1513174638299303,-1,0,0,-2,-3,-1,-1,-2
1513174638318816,1,-1,-2,0,0,-1,-1,-3
1513174638318816,-5,-3,2,-1,-2,-3,-1,-1
1513174638320818,-3,-4,-1,1,-1,-1,-2,-1
1513174638320818,-3,0,-1,0,-1,-1,1,0
1513174638341359,0,-1,-2,-3,-2,-1,0,-1
1513174638341359,1,0,-3,-1,0,-1,-1,0
1513174638343334,-1,0,0,-2,-3,-1,-2,-1
1513174638343334,-1,-2,-1,1,0,-1,1,-1
1513174638356392,0,0,-2,0,-1,-1,-1,-1
1513174638356392,-1,-2,-2,0,0,0,-2,-2
1513174638357882,-1,-1,0,-3,-1,-1,-1,0
1513174638357882,-1,-2,0,0,0,0,-2,0
1513174638378921,0,-1,-1,-2,1,-2,-3,-1
1513174638378921,-1,-1,-2,-2,-1,-2,0,-2
1513174638380899,0,0,-2,-1,-2,0,0,-1
1513174638380899,-8,-4,1,1,-1,0,0,-2
1513174638401425,-2,-1,1,-1,-2,-1,-1,1
1513174638401425,1,-1,-1,0,-1,-3,0,0
1513174638403418,0,-3,-2,-1,0,-3,-1,-1
1513174638403418,-1,-2,-1,-2,-1,-2,-1,-1
1513174638416009,0,-2,-2,-1,-1,-2,-1,-2
1513174638416009,-2,-2,-1,-1,0,-1,-2,1
1513174638422611,-1,-2,-2,0,-1,-1,1,-1
1513174638422611,0,2,-1,-2,-3,-2,0,-1
1513174638439110,-2,-1,-1,0,-1,-1,0,-2
1513174638439110,-1,-2,-1,-3,-1,-2,-1,0
1513174638440611,-1,-1,0,-1,-1,-1,-2,-1
1513174638440611,-1,0,-2,-2,-1,1,0,-1
1513174638461648,0,0,-1,0,-1,-2,-1,-2
1513174638461648,-1,-1,0,-1,-2,-1,-1,-1
1513174638463127,-2,-1,-1,-2,-2,0,-3,-2
1513174638463127,-1,-1,-2,-1,0,-2,-1,-1
1513174638484142,-2,-2,-1,-1,0,0,-1,-1
1513174638484142,-2,-2,0,0,-2,-1,-1,0
1513174638485643,0,0,-1,0,-1,-3,-1,0
1513174638485643,1,-1,-3,-1,-1,-1,-2,-1
1513174638499153,-4,-2,-1,-1,-1,-1,0,-3
1513174638499153,-5,-6,-1,1,-2,-1,-1,-2
1513174638500654,-2,0,0,-4,-1,-2,-1,0
1513174638500654,1,-1,-3,-1,0,-2,-3,-1
1513174638521671,0,0,-1,0,0,-1,0,-1
1513174638521671,-1,1,-3,-1,-1,-1,0,0
1513174638523173,-2,0,-2,0,-1,0,0,0
1513174638523173,-3,-1,-1,-1,-2,-1,-2,-1
1513174638535690,0,-1,0,-3,0,-2,-2,-2
1513174638535690,0,0,-3,-1,-1,-1,-1,0
1513174638542695,-1,-1,-2,1,0,1,0,-1
1513174638542695,0,0,1,0,-3,-1,-1,-1
1513174638559207,-2,-3,-1,-1,-2,-2,-1,-2
1513174638559207,0,1,-1,-2,0,0,-2,0
1513174638560701,-1,-1,-2,-1,0,-2,-2,-2
1513174638560701,-1,-2,0,-1,-2,-2,-1,-1
1513174638581721,-1,-1,-1,0,-1,-1,1,-1
1513174638581721,-3,-4,2,-2,-2,1,-2,0
1513174638583217,0,-1,-1,-2,-1,-2,0,-1
1513174638583217,0,1,-1,-1,-1,-2,-3,-1
1513174638596221,-1,-5,-2,1,0,2,-1,0
1513174638596221,-1,0,-1,-1,0,-2,-2,-1
1513174638602726,1,-1,-1,0,2,-1,-1,-1
1513174638602726,-4,-3,-1,-1,-1,-1,-1,-2
1513174638619248,1,3,-2,-2,-1,-1,-1,0
1513174638619248,1,0,-3,1,-1,-1,0,-2
1513174638620740,-2,-3,0,-3,-2,0,-2,0
1513174638620740,2,-1,-1,-2,0,-1,-1,-3
1513174638641276,1,2,-1,-1,-2,-3,-2,0
1513174638641276,-1,-2,-1,-1,-1,0,0,0
1513174638649271,-2,-1,-2,-1,-2,-1,-2,1
