timestamp,emg1,emg2,emg3,emg4,emg5,emg6,emg7,emg8
1513173225957937,-3,-2,-3,-1,-2,1,-1,-1
1513173225957937,-1,-2,-1,0,-2,-2,0,-1
1513173225958938,-1,0,-1,-1,1,1,0,-2
1513173225958938,0,-1,-1,-3,-3,-2,0,-2
1513173225980953,-1,0,-2,-2,-2,-1,-2,1
1513173225980953,3,-1,-2,-3,-1,-2,-1,-3
1513173225981454,-2,-1,-1,-1,-1,0,-1,-1
1513173225981454,-1,-2,2,0,-1,-1,0,1
1513173225994963,-2,1,-1,-1,0,0,-1,-1
1513173225994963,-2,-2,-1,-1,-1,-2,-3,0
1513173225995464,0,-2,-2,-2,0,-1,-1,-3
1513173225995464,-2,-1,-1,-1,-1,-1,-1,0
1513173226017982,2,0,-3,-2,-1,-1,-1,0
1513173226017982,-1,-2,0,1,0,0,0,-1
1513173226018982,-1,-1,-2,-1,-2,-1,-1,-1
1513173226018982,-1,-2,-1,1,0,-2,0,-1
1513173226040495,1,0,-1,0,0,0,0,-3
1513173226040495,-2,-2,-2,0,0,-1,-1,-2
1513173226041497,-1,0,-1,-1,-1,-2,-1,-1
1513173226041497,-2,-1,-1,-4,-1,-2,-1,-1
1513173226055005,-1,-3,-1,-2,1,0,0,-2
1513173226055005,-2,-2,-2,-1,-2,-1,-1,-2
1513173226055506,-4,-1,1,1,-1,1,-2,-4
1513173226055506,0,-1,0,-2,-2,-2,-3,-1
1513173226078061,1,1,-1,-2,-2,-1,-2,-1
1513173226078061,-1,-1,-1,-2,-1,-1,0,-1
1513173226079023,-2,-3,-3,-3,-3,-3,-1,0
1513173226079023,-6,-2,-2,0,0,0,0,-4
1513173226100549,-1,-1,0,-2,-1,0,-1,1
1513173226100549,-1,-2,-1,-1,-2,2,0,-2
1513173226101545,-1,-2,0,0,-1,0,-1,0
1513173226101545,2,1,-3,-1,-1,-1,-1,-1
1513173226115548,1,-2,-2,-1,-1,-2,-1,0
1513173226115548,-2,-1,0,-1,-2,-2,-2,-2
1513173226116049,0,1,-3,-1,0,-3,-2,-1
1513173226116049,-1,0,-2,1,0,-1,0,-2
1513173226138074,-2,-2,0,-1,-2,0,0,-2
1513173226138074,1,-1,-3,-1,0,-1,0,-1
1513173226138566,-2,-1,0,0,-1,0,0,-3
1513173226138566,0,-2,-2,0,-1,0,-1,-1
1513173226161081,-2,1,-1,-2,0,-2,-1,0
1513173226161081,-5,-2,2,0,0,-1,-3,-1
1513173226161581,-1,-2,-2,-3,-1,-1,-1,0
1513173226161581,0,0,1,2,-1,-2,-1,0
1513173226174600,-3,-1,-1,1,-2,-1,-1,-1
1513173226174600,-2,-1,-3,-2,-2,0,-1,-1
1513173226175591,-1,-2,0,0,-2,-1,0,-2
1513173226175591,-2,1,-2,-3,0,-1,-1,-2
1513173226198608,1,-4,-3,-1,-2,0,-2,-1
1513173226198608,-1,0,0,-1,0,-1,-1,0
1513173226199108,-3,-2,-1,0,0,-1,-1,-2
1513173226199108,1,-3,-2,-1,0,-2,2,-1
1513173226220626,-1,1,-1,0,-1,-2,-2,-2
1513173226220626,-1,1,-1,-1,-1,-2,-1,0
1513173226221123,-2,0,-1,-2,-1,-1,-1,-1
1513173226221123,1,-2,-2,-1,-2,-2,-1,0
1513173226234633,-1,-1,-2,-1,0,-1,0,-1
1513173226234633,0,0,-2,0,-3,-2,-1,-2
1513173226235634,-2,0,1,0,-2,-2,0,-3
1513173226235634,-2,0,0,-2,-2,-1,-2,2
1513173226258149,-1,-1,0,-1,-1,-2,0,-1
1513173226258149,0,-1,-1,-3,-2,-1,-2,-1
1513173226259661,-2,-5,-2,-1,-1,0,-1,-2
1513173226259661,-5,-5,0,0,-1,2,0,-2
1513173226288170,0,-1,-2,-1,-1,0,0,1
1513173226288170,1,0,-2,-1,-2,-1,0,0
1513173226289672,1,0,-2,-1,-1,-1,-3,-1
1513173226289672,-1,2,-2,0,0,-1,-3,0
1513173226294175,0,0,-1,-1,-1,0,-1,1
1513173226294175,1,-3,0,-1,0,0,-2,-1
1513173226303182,-3,-1,-1,0,0,-2,-1,1
1513173226303182,1,-2,-2,0,-2,-2,-1,1
1513173226318692,0,-1,-2,0,-1,-2,-1,-3
1513173226318692,0,-1,0,-2,-1,-2,0,0
1513173226320193,-2,-1,1,-2,0,-2,0,0
1513173226320193,1,0,-2,-2,-1,-1,-1,-2
1513173226348714,-3,-1,-2,-1,-1,-1,0,-1
1513173226348714,-2,-2,-3,-2,-1,-2,0,-1
1513173226350215,-1,0,-1,-2,-1,-1,-1,-3
1513173226350215,0,-1,-1,-1,-1,-1,0,0
1513173226354218,-1,-2,0,0,-2,-3,-1,-1
1513173226354218,-2,0,-1,0,0,-1,0,-3
1513173226363224,-1,-2,0,1,0,-1,-2,-1
1513173226363224,0,1,0,-2,-1,-1,-1,-1
1513173226378736,-1,-1,-2,-1,1,0,-1,0
1513173226378736,-3,-1,0,-1,-2,0,-1,-1
1513173226380238,-1,-1,-2,-1,-2,-2,-1,-1
1513173226380238,-1,-1,-1,0,-1,-1,-1,-1
1513173226400250,0,-1,0,-1,0,-1,0,-1
1513173226400250,0,0,0,0,-1,0,-1,-2
1513173226402252,-2,-3,-1,-1,-1,0,-1,-1
1513173226402252,-2,-1,2,-1,-2,-1,-1,-1
1513173226414260,-1,-2,-1,0,-2,-1,-1,1
1513173226414260,-3,-1,-1,0,0,-1,-2,-2
1513173226423288,1,0,-2,-3,-2,-1,-1,-2
1513173226423288,0,-1,-3,-1,-2,-2,-1,-3
1513173226438286,-1,1,0,-2,-1,-1,-1,-2
1513173226438286,-2,-2,-1,0,-1,1,1,0
1513173226440278,0,-1,1,-2,-1,0,-1,0
1513173226440278,-2,-3,0,-1,0,0,0,-2
1513173226460804,4,1,-3,-1,-3,-1,-2,-2
1513173226460804,-1,0,-2,-1,-2,-2,-1,-1
1513173226462794,-2,1,-2,-2,1,-1,-2,-2
1513173226462794,1,0,-2,-2,-1,-1,-2,0
1513173226482808,0,-1,0,-2,-1,-1,-2,0
1513173226482808,-4,-2,-1,-2,-1,-1,-2,-1
1513173226484319,-3,-3,1,1,-1,0,0,-2
1513173226484319,0,1,-1,-2,-2,-2,-1,-1
1513173226497819,-2,-2,-1,-2,0,0,-1,1
1513173226497819,1,0,-1,-2,-2,-3,-1,-1
1513173226499321,1,0,-1,-2,-1,-3,-1,0
1513173226499321,-2,-3,-1,1,0,-1,0,-2
1513173226520344,-2,-2,0,-3,-1,-1,0,0
1513173226520344,-1,-1,-1,-1,-3,0,0,-1
1513173226521836,0,0,-3,-1,-2,0,-2,0
1513173226521836,-2,-1,-2,0,1,0,1,0
1513173226533844,-1,-1,-1,-1,-3,-3,-2,0
1513173226533844,0,-2,-2,0,-1,-1,-2,-1
1513173226543351,-2,-3,-4,-1,-4,-3,-1,0
1513173226543351,-3,-1,-1,0,0,-1,0,-1
1513173226565369,-1,-1,-1,0,-1,-2,0,-2
1513173226565369,-2,-2,-1,-3,-1,-1,0,-2
1513173226566869,-1,-3,-1,0,-1,-1,1,-1
1513173226566869,4,1,-2,-2,-3,1,-1,1
1513173226580878,-1,0,-1,0,-1,-1,-1,0
1513173226580878,0,-1,0,1,-1,-1,0,-1
1513173226581880,-2,0,-1,0,-1,-1,-2,-1
1513173226581880,-2,-2,-2,-2,-3,-1,-1,-1
1513173226593886,-1,0,-1,1,0,-1,-1,-1
1513173226593886,-1,0,-1,-1,-1,-1,-1,-1
1513173226603393,0,0,-3,-1,-3,-2,0,-3
1513173226603393,-1,0,0,-1,0,1,-2,-1
1513173226617904,1,-1,-2,-3,-3,-2,-1,-2
1513173226617904,-3,-1,-3,-1,-1,-1,0,-1
1513173226619405,-1,-2,0,-1,0,0,0,-2
1513173226619405,-1,-2,0,-1,-1,0,0,-1
1513173226640423,-1,-1,0,0,-1,-2,-2,-3
1513173226640423,0,-2,-1,-1,-1,0,-1,-1
1513173226641921,-4,-2,1,-1,-1,-1,-2,-1
1513173226641921,3,-2,-6,-1,-3,-4,0,0
1513173226653929,-2,-2,-2,1,-1,0,0,1
1513173226653929,2,0,-2,-2,-2,-3,-2,-3
1513173226662936,1,1,-3,-2,-2,-2,-2,-2
1513173226662936,-3,-1,-2,-2,0,-2,-2,0
1513173226677949,-1,-1,-1,-2,-2,0,-1,1
1513173226677949,-3,-1,0,0,0,-2,-1,-1
1513173226679447,-2,-2,-2,0,-1,-1,1,-2
1513173226679447,0,-2,1,-1,-1,-1,-2,-1
1513173226700472,0,-1,-1,-1,-1,-2,0,0
1513173226700472,-2,0,0,-2,-2,-2,0,-1
1513173226701973,-1,-1,-1,-2,-1,-1,0,0
1513173226701973,-1,1,-2,-2,-1,-2,0,-2
1513173226722981,-3,-1,-1,0,0,0,-1,-2
1513173226722981,-1,-2,0,-2,-1,0,-1,-2
1513173226724479,-2,0,-4,-2,-2,-1,-2,-1
1513173226724479,-3,-4,1,-1,1,0,-2,1
1513173226737989,1,0,-1,-1,0,-1,-2,1
1513173226737989,-2,-1,1,0,0,-1,0,-1
1513173226739490,-3,-1,0,-1,-2,-1,0,-3
1513173226739490,-1,-1,-2,-1,-1,-1,-2,-1
1513173226760559,0,-1,-1,-2,-1,-1,0,-1
1513173226760559,-1,0,-2,-1,-2,-2,-1,0
1513173226762035,0,-2,0,0,0,0,-1,0
1513173226762035,-1,-3,0,-2,0,-1,0,0
1513173226783052,2,-2,-1,0,-1,0,-1,0
1513173226783052,-3,-1,-1,-1,-2,-1,-1,-3
1513173226784550,-1,0,-1,0,0,0,0,0
1513173226784550,1,1,-2,0,-1,-2,-1,-3
1513173226806069,-2,-1,-1,0,0,-2,0,-2
1513173226806069,0,0,-1,-2,-1,-2,-1,0
1513173226807580,-1,0,0,-1,0,0,-1,-1
1513173226807580,-1,0,-1,-1,-1,-1,0,-1
1513173226819600,-1,-1,-3,-4,-2,0,-2,0
1513173226819600,-2,-3,-3,0,-2,0,-1,-3
1513173226828081,0,0,1,-4,-1,-1,-1,-2
1513173226828081,1,0,-2,-2,-1,0,-1,0
1513173226843137,-2,2,-1,-1,-2,1,-2,-2
1513173226843137,-1,-3,-2,-1,1,0,-3,-2
1513173226844605,1,0,0,-3,-3,-3,-2,1
1513173226844605,-3,-2,0,-1,-1,-1,-1,-1
1513173226857103,0,-1,0,-3,-1,-3,0,-1
1513173226857103,-1,-2,1,0,-1,-1,-1,0
1513173226864108,-2,-1,-2,0,-1,0,-1,-2
1513173226864108,-1,1,-2,0,-1,-1,-3,-1
1513173226888137,1,-1,-1,-2,-1,-1,-2,-1
1513173226888137,0,-1,1,-1,-3,-1,1,-1
1513173226889634,-1,0,-1,-1,-1,-1,-1,1
1513173226889634,-1,-2,-3,-2,-1,-1,0,0
1513173226903134,-4,-3,3,2,0,-1,-1,-1
1513173226903134,0,0,-2,-2,-4,-2,-1,-2
1513173226904635,-2,-2,-2,-2,-1,-3,-1,-2
1513173226904635,-2,-2,-2,-1,-1,-1,0,-2
1513173226917144,-1,-1,-2,0,0,-1,-1,-3
1513173226917144,-1,-1,0,-1,-1,-1,-2,-2
1513173226924167,-2,-2,2,-2,-2,-1,-1,-2
1513173226924167,-1,0,-1,0,0,0,0,1
1513173226940660,0,-1,-3,-1,-1,-2,-1,-1
1513173226940660,-1,-1,-2,0,0,-1,0,1
1513173226943162,0,0,-2,-3,-2,0,-1,-1
1513173226943162,-6,-3,2,1,-2,0,0,-1
1513173226962688,0,0,-1,-2,-1,0,0,0
1513173226962688,-2,0,-1,-2,-1,1,-1,-2
1513173226969190,-3,-3,-2,1,0,-1,-2,-3
1513173226969190,0,-1,-1,-3,-1,0,-1,0
1513173226977212,-6,-3,2,0,-1,-1,-1,1
1513173226977212,-1,-1,-2,-1,-2,-4,-2,-1
1513173226984191,1,0,-1,-1,-2,-2,-1,-1
1513173226984191,0,0,0,-2,-1,0,-1,-2
1513173227000716,-1,-3,-2,-1,-1,-2,-1,-1
1513173227000716,-1,-1,0,-1,-1,-1,-2,-1
1513173227002233,-2,-2,1,-1,-1,-1,-2,-2
1513173227002233,1,-1,-2,-1,0,-1,-1,0
1513173227022759,3,3,-3,-2,-1,-1,-2,-1
1513173227022759,-1,-1,-1,1,-1,1,-1,0
1513173227024729,-1,0,-2,0,0,0,0,0
1513173227024729,-2,0,1,-1,-2,-1,0,0
1513173227037229,-1,0,-4,-1,-1,0,-3,0
1513173227037229,-2,-1,0,-2,-3,-2,0,-2
1513173227044249,-2,0,0,-2,-2,-1,-1,-2
1513173227044249,0,-1,-2,-2,-1,-2,-2,-2
1513173227060745,1,0,0,-2,-1,-2,0,0
1513173227060745,-3,-2,-1,0,0,0,-2,0
1513173227062247,-1,-2,-2,0,-2,-1,-3,-1
1513173227062247,1,-1,-1,0,0,-2,-1,-1
1513173227082774,0,-1,-2,-1,-2,0,-1,-1
1513173227082774,0,-2,-2,-1,-1,-1,-1,-2
1513173227084775,0,-2,-2,-1,-2,-2,-1,-1
1513173227084775,-2,-2,-1,0,0,0,-1,-1
1513173227097286,-2,-1,0,-1,-2,0,0,-1
1513173227097286,-1,-1,-2,-1,-3,-1,-1,-1
1513173227104289,-3,-1,1,-1,0,-1,0,-1
1513173227104289,0,0,-1,1,-2,-2,0,0
1513173227120289,-2,-2,-1,-1,-1,-2,0,-1
1513173227120289,0,1,-1,-2,0,-1,-2,-2
1513173227122290,0,0,-1,-2,0,0,-1,-2
1513173227122290,0,-2,-4,-3,-2,1,-2,-2
1513173227142857,-4,-2,1,0,1,-1,0,-1
1513173227142857,-2,-2,-1,-2,-2,-2,-1,-3
1513173227144356,-3,-1,-2,-1,-2,-2,0,1
1513173227144356,1,0,0,-2,-1,-2,-1,0
1513173227157365,0,-2,-3,-1,0,0,0,-2
1513173227157365,-2,-2,-1,-1,-1,-2,-2,-2
1513173227164370,-1,-2,-1,1,-1,-1,0,-1
1513173227164370,-2,0,0,0,-1,-2,-2,-1
1513173227180881,0,0,-2,-1,-1,-2,0,0
1513173227180881,-1,-2,0,-2,1,1,-1,-2
1513173227182394,-5,-2,2,1,-2,0,0,-1
1513173227182394,0,0,-1,0,-1,0,-1,1
1513173227202906,0,-2,0,-2,-1,-2,-2,-1
1513173227202906,2,-1,-3,-1,-2,0,-1,-1
1513173227204397,0,-3,-1,0,1,0,-1,-2
1513173227204397,-1,-2,0,-2,1,-2,-2,-2
1513173227216406,-2,-2,0,0,1,0,0,-1
1513173227216406,0,0,-1,-1,-1,1,0,1
1513173227225413,-1,0,0,-2,-1,1,-1,-1
1513173227225413,-2,-1,0,-1,-1,-3,-1,1
1513173227240525,-2,0,-3,0,-1,-1,-1,-1
1513173227240525,-1,-2,-1,0,-2,-2,-1,-1
1513173227241983,0,0,-3,-1,0,-2,-1,-1
1513173227241983,0,1,-1,0,-1,0,-1,-2
1513173227262970,0,0,-1,-1,-1,0,-1,-1
1513173227262970,-4,-4,0,0,-2,-1,-1,-3
1513173227264472,-1,-3,-1,-1,-1,0,-2,-2
1513173227264472,1,-1,-1,0,-2,-1,-1,0
1513173227276483,-2,1,-1,0,-2,-1,-1,0
1513173227276483,-2,-2,1,-3,-2,-2,-1,-1
1513173227285486,1,1,-2,-2,-2,-2,-1,-2
1513173227285486,-3,0,0,-2,-1,-3,2,-1
1513173227300514,0,0,-1,0,-1,1,-3,-1
1513173227300514,-3,0,-2,-2,-2,-2,-2,-1
1513173227302000,1,0,-3,-3,0,-1,0,-2
1513173227302000,0,-2,-3,-2,-2,1,0,2
1513173227323028,-1,-1,-2,-1,0,-2,-2,-1
1513173227323028,-3,-4,2,1,-1,-1,-1,-1
1513173227324529,-1,-2,-2,-1,-2,-2,-3,0
1513173227324529,-2,-1,-1,-1,-1,-1,-2,0
1513173227336523,-2,-3,1,-1,0,-1,-1,1
1513173227336523,1,-1,-2,0,-1,-1,0,0
1513173227345529,-2,-2,1,0,1,0,-1,1
1513173227345529,1,1,-1,-1,-2,-2,0,-2
1513173227360539,1,-1,-1,-1,-2,-2,-3,-4
1513173227360539,1,-2,-2,-1,0,-2,-2,-3
1513173227362041,-1,-2,-1,-1,-1,-1,0,-1
1513173227362041,0,0,-2,-1,-2,-2,-2,0
1513173227383055,0,0,-1,-2,-1,-2,1,0
1513173227383055,0,1,-1,0,0,-1,-1,-1
1513173227384556,-1,-2,-2,-1,-1,0,-1,-2
1513173227384556,-1,-1,-1,0,-2,0,-2,0
1513173227405585,-2,-2,-2,-2,-1,-1,-1,-1
1513173227405585,-1,-1,-2,0,0,-2,-2,0
1513173227407087,-1,0,-3,-1,-1,-3,0,-1
1513173227407087,2,0,-3,-2,-2,0,-2,-1
1513173227420582,0,1,-2,-1,-2,-1,-1,0
1513173227420582,-1,0,0,-3,-2,-1,0,-2
1513173227422083,-1,1,-1,-3,-2,-1,-4,-2
1513173227422083,-1,-1,0,0,-1,-2,0,0
1513173227443098,-1,-1,-1,1,0,-1,-1,-2
1513173227443098,-2,-2,-2,-1,-1,0,-2,-2
1513173227444599,0,-3,0,-1,-2,-1,-2,-1
1513173227444599,0,-2,-2,0,0,-2,-1,0
1513173227456608,0,-1,0,-2,-2,-1,-1,-2
1513173227456608,-2,-2,-2,0,-1,0,-1,-3
1513173227465633,-1,0,0,0,-1,2,-1,-1
1513173227465633,-1,-1,-1,-1,0,0,-2,0
1513173227481126,-1,0,-1,-2,-3,-1,0,0
1513173227481126,-2,1,0,-1,-1,-1,-2,-1
1513173227482626,-1,-1,-1,0,0,-1,-1,-2
1513173227482626,-1,-2,-2,-2,-1,1,0,-1
1513173227503152,-2,-2,-2,0,-1,1,-2,-2
1513173227503152,1,0,-2,-1,-1,-2,0,1
1513173227504653,-2,0,-2,-2,-3,-2,0,-1
1513173227504653,-1,-1,0,0,-1,0,0,0
1513173227516651,0,-2,-1,-2,-2,-1,0,0
1513173227516651,-2,-3,-1,-1,-1,-1,-1,-2
1513173227525658,-1,-1,-2,0,1,-2,1,0
1513173227525658,-3,-2,0,1,1,-1,0,1
1513173227540676,0,-2,-2,-2,-1,-1,0,-2
1513173227540676,-5,-3,-1,-1,0,-1,0,-2
1513173227542183,0,0,-2,-1,-1,-1,-3,-1
1513173227542183,-1,-2,-3,-1,-1,-2,0,0
1513173227562697,-3,-1,-3,1,-1,1,0,-2
1513173227562697,-1,-2,-1,-2,-1,-1,-1,-2
1513173227564685,1,0,-3,-2,-3,-1,-2,-1
1513173227564685,-2,0,-1,0,0,0,-1,-1
1513173227576691,-1,0,1,-1,0,-1,-1,0
1513173227576691,1,0,-1,-2,-2,1,-3,-1
1513173227585708,0,-2,-1,-1,-2,-2,1,0
1513173227585708,2,-1,-2,-2,-1,-2,-2,0
1513173227600209,-2,0,-3,-2,-2,-1,-1,1
1513173227600209,-2,-1,-1,0,-1,-2,0,-1
1513173227602222,-2,-1,0,0,0,-2,-1,0
1513173227602222,0,0,1,-3,-1,0,1,-1
1513173227622727,-1,-2,0,-1,1,-1,0,-1
1513173227622727,-1,0,-1,0,-2,-2,-1,-1
1513173227624726,0,-1,-1,-1,0,0,-1,-1
1513173227624726,-1,-1,-2,-1,-1,0,-2,-2
1513173227645742,-3,-2,0,0,-1,-1,-1,0
1513173227645742,-1,-2,-1,-2,-2,-1,-2,-1
1513173227647742,-3,-3,-1,-1,0,0,0,1
1513173227647742,-2,-2,-1,0,-1,-1,-1,-2
1513173227660252,-3,-1,0,0,-1,-2,-1,-2
1513173227660252,-1,0,-2,0,-1,-1,0,-2
1513173227662271,0,-2,0,-1,0,-1,0,-2
1513173227662271,-1,-1,-1,-3,-1,-1,0,0
1513173227682791,1,-2,-1,-1,-2,-1,-1,-1
1513173227682791,-2,-2,-1,-1,-2,-1,0,-2
1513173227684778,0,-2,-2,-2,-2,-2,-1,-3
1513173227684778,-1,-3,-2,-2,-1,-1,-2,-3
1513173227705793,-2,-2,0,-1,-1,-2,-2,0
1513173227705793,-3,0,0,2,0,1,-1,-3
1513173227707785,-1,-1,0,-1,-1,-1,-2,0
1513173227707785,0,1,0,-1,-2,0,0,-1
1513173227720333,-1,0,-2,0,-3,-1,-1,0
1513173227720333,4,-1,-4,-3,-2,-2,0,2
1513173227722305,-6,-6,5,2,0,3,-1,-1
1513173227722305,-2,-1,0,-1,-1,-1,-2,-1
1513173227742829,0,0,-2,-3,-1,-2,-2,-3
1513173227742829,-2,-1,-1,-2,-2,-2,0,-1
1513173227744813,2,1,-3,-1,-1,-1,-2,-1
1513173227744813,-2,0,-3,1,-2,0,-1,1
1513173227766326,1,0,-2,0,0,-2,-2,-1
1513173227766326,-2,-1,1,-1,-2,-2,-1,-1
1513173227767827,-1,1,-2,-2,-1,-1,-1,-3
1513173227767827,-1,-1,-1,-1,-1,-1,-1,-1
1513173227779836,-1,-1,-3,-1,0,0,-1,-2
1513173227779836,-2,-1,0,-2,-2,-1,0,0
1513173227786340,0,-1,-3,-3,-2,0,1,-1
1513173227786340,0,-2,0,-2,-1,0,-2,0
1513173227802853,0,-1,-2,-3,-1,-2,-1,-1
1513173227802853,1,0,-1,-2,-3,0,-2,-1
1513173227804354,-2,1,0,-1,0,-1,0,0
1513173227804354,-1,0,0,1,2,-1,0,-2
1513173227825371,-1,2,-2,-1,-1,0,-1,-2
1513173227825371,-4,-4,1,0,0,-1,-2,-2
1513173227826869,0,1,-2,0,-1,-2,-3,-1
1513173227826869,-4,-4,2,1,0,-2,-1,-1
1513173227839881,-1,-1,-1,0,-2,0,0,-2
1513173227839881,0,1,-3,-2,-1,1,-2,-3
1513173227846384,0,-2,-2,-2,-1,-1,0,0
1513173227846384,-1,-3,-3,-2,0,-2,-1,0
1513173227870422,0,1,0,-2,0,-1,0,0
1513173227870422,-2,-3,-3,-2,0,-2,-1,-1
1513173227871923,0,-1,-1,-1,-2,-2,0,1
1513173227871923,0,0,-1,1,-1,-1,-2,-2
1513173227885413,-2,-3,-1,0,-1,0,-1,0
1513173227885413,-2,1,-1,-2,-1,0,-1,0
1513173227886912,-3,-2,-1,-2,-2,0,-1,-1
1513173227886912,0,0,-2,-2,-2,-1,0,-1
1513173227899922,-1,-1,1,-2,0,-2,-1,0
1513173227899922,0,0,0,0,-1,-1,0,-1
1513173227906427,-1,-2,1,-2,0,0,-1,-1
1513173227906427,1,-2,-1,-2,-1,-1,0,1
1513173227922937,-1,-3,1,0,-1,-1,-1,0
1513173227922937,2,-1,-3,-1,-2,-2,-2,1
1513173227924439,-6,-5,6,2,1,0,-1,0
1513173227924439,1,0,-3,-6,-2,-1,-1,-2
1513173227945453,-1,1,0,2,-1,0,0,-2
1513173227945453,-1,0,-1,0,0,0,-1,-4
1513173227947954,1,0,-4,-2,-3,-2,-1,-1
1513173227947954,-1,-3,-1,1,-2,1,0,1
1513173227959975,-3,-4,-1,-1,-1,-2,-1,-2
1513173227959975,-2,-2,1,-3,-1,-1,-2,-2
1513173227966467,1,-2,-2,-1,-1,-1,0,-2
1513173227966467,-2,0,0,-2,0,-2,-1,0
1513173227982979,0,-1,-2,-2,-3,2,-1,0
1513173227982979,-2,-2,0,-1,-2,-2,-1,-1
1513173227984481,0,0,-3,-3,-1,-1,-2,0
1513173227984481,1,-1,-2,0,0,-2,-2,-1
1513173228005512,-1,-1,0,-3,-2,-2,-1,-1
1513173228005512,-1,-2,0,-1,0,0,-1,1
1513173228007014,0,2,-3,-2,-2,0,-1,-1
1513173228007014,-3,2,-1,0,-2,0,-1,1
1513173228020008,-1,-2,-2,-2,0,0,-2,0
1513173228020008,-1,-2,-1,-1,-3,-3,-1,-1
1513173228026513,1,1,-2,-1,-2,-1,-2,-2
1513173228026513,-1,-2,-2,-1,-2,-1,-1,-2
1513173228043023,1,1,-4,-2,0,-4,-2,-3
1513173228043023,-2,-1,-1,-2,-2,-1,0,0
1513173228044523,-1,-1,-1,-1,-1,-2,-1,-1
1513173228044523,0,0,-1,-2,0,0,0,-1
1513173228065557,-2,-3,-1,0,-1,0,0,0
1513173228065557,-2,0,-2,0,0,-1,0,-3
1513173228067052,0,0,-2,-1,0,-2,-3,0
1513173228067052,0,-2,-3,-1,0,0,-2,0
1513173228080048,0,-1,-2,-1,-2,-3,-1,0
1513173228080048,-1,-2,2,1,-2,-1,0,0
1513173228086552,-2,-2,0,0,0,-1,-1,-1
1513173228086552,0,-1,-2,-2,-2,-3,-1,-4
1513173228103084,-1,-1,2,-2,0,0,-1,-1
1513173228103084,-7,-4,-1,-1,-1,-3,0,-1
1513173228104585,-2,0,-1,1,1,0,-1,-2
1513173228104585,1,-1,-1,-1,-2,-1,-2,0
1513173228126080,-3,-2,0,0,-1,-1,-4,-3
1513173228126080,2,0,-1,-1,-1,-2,-2,-1
1513173228127594,0,-2,-1,-3,0,-1,-1,-1
1513173228127594,-3,0,0,0,1,-1,0,1
1513173228139104,-1,-2,-1,-2,-2,-2,0,-2
1513173228139104,0,1,-2,0,-2,0,0,-2
1513173228148112,-1,-3,-1,-2,-2,-1,1,-1
1513173228148112,0,-1,1,-3,-2,-2,0,0
1513173228163106,-3,-1,0,-2,-1,-1,-1,-1
1513173228163106,0,0,-2,-2,1,-2,-2,-1
1513173228165608,1,1,-2,0,-2,0,-1,-1
1513173228165608,-3,0,-1,-1,-1,-2,-1,-1
1513173228186132,-3,-5,-3,2,1,0,0,-1
1513173228186132,-3,-2,2,-1,0,-3,-2,-1
1513173228187633,0,-4,-1,0,-3,-1,-2,-3
1513173228187633,1,-1,0,-2,-2,-3,-1,1
1513173228199138,-1,1,-2,-3,0,0,-2,-1
1513173228199138,0,-1,-3,-2,-1,-1,-3,-2
1513173228208138,0,1,0,-2,-1,-3,-1,-1
1513173228208138,-1,-1,-2,1,-1,-2,-2,-1
1513173228223160,-2,-2,0,-1,-1,-3,-1,0
1513173228223160,-1,-1,-2,-1,0,0,-1,-3
1513173228224650,-2,-4,1,0,0,-1,0,-2
1513173228224650,0,0,-1,0,-1,-1,-2,-1
1513173228245194,0,-1,-1,-1,-2,-2,-1,-1
1513173228245194,-2,-3,0,0,-1,0,-1,-2
1513173228247195,-1,-3,-3,1,0,-1,-1,-2
1513173228247195,1,-1,-2,-1,-1,0,0,-1
1513173228259217,-1,0,2,1,0,1,0,0
1513173228259217,-1,-1,-1,-2,-3,-3,0,0
1513173228268220,0,0,-1,-1,-1,-2,0,1
1513173228268220,-1,-3,0,-1,-1,0,-2,-1
1513173228290237,0,-1,-1,-1,-2,-2,-1,0
1513173228290237,-2,-1,-2,-2,0,-1,0,-1
1513173228291730,-2,0,-1,-1,0,-2,-2,0
1513173228291730,0,-1,-3,-4,-1,-1,-3,0
1513173228305248,0,-1,-2,-2,-2,-3,-2,-1
1513173228305248,-2,-1,-2,-1,-1,1,-2,-2
1513173228307245,-2,0,-5,-2,-2,-2,-1,-2
1513173228307245,-3,-3,2,1,-1,-2,-1,-1
1513173228327752,-2,-1,0,-1,-1,-2,0,-3
1513173228327752,-6,-3,2,0,-1,0,0,-2
1513173228329254,1,0,-2,-2,-1,-1,1,-1
1513173228329254,0,0,-3,-1,0,-1,0,-1
1513173228343278,-2,1,-1,-2,-4,0,0,-2
1513173228343278,1,0,-3,-1,-2,-2,0,-2
1513173228344777,-2,-1,-1,-1,2,-1,-1,0
1513173228344777,-1,-2,-1,0,0,0,-1,0
1513173228365287,-2,0,0,1,-2,1,0,-1
1513173228365287,2,-1,-2,-2,-1,1,-2,0
1513173228367281,-2,-1,0,-1,-2,-1,-1,0
1513173228367281,0,0,0,-1,0,-1,-2,0
1513173228379801,-2,-1,-1,-1,0,0,-2,-2
1513173228379801,0,-1,1,1,0,-2,-2,-2
1513173228387796,1,-1,0,-2,-2,-1,-1,1
1513173228387796,-3,-2,-2,-1,-1,-2,0,-1
1513173228402817,-5,-3,2,-1,0,0,1,1
1513173228402817,-1,-1,4,-1,1,1,1,-1
1513173228404324,-1,-1,0,-1,-2,-1,-1,-1
1513173228404324,-1,-1,-1,1,-1,-2,-2,0
1513173228425336,1,-2,-3,-3,-2,-1,-1,-1
1513173228425336,-2,0,-2,-2,-3,-1,-4,-2
1513173228427323,-1,-1,-3,0,0,0,-1,-2
1513173228427323,-2,1,-2,0,0,-1,0,0
1513173228438831,0,-2,-1,-1,-2,0,-1,0
1513173228438831,-1,-2,-3,0,-1,-1,-1,-1
1513173228448339,0,-1,0,-2,-2,1,1,-2
1513173228448339,0,-2,-1,-1,-2,-1,0,-1
1513173228470353,-1,-2,-1,-3,0,-1,-1,-1
1513173228470353,-1,0,-1,-1,-2,-4,0,-2
1513173228471854,0,0,0,-1,-1,1,-2,-1
1513173228471854,0,-1,0,0,0,-1,-1,-2
1513173228485870,-2,2,0,1,-1,0,-2,-1
1513173228485870,1,-2,-2,-1,-2,-3,-1,0
1513173228491386,-3,-3,0,-1,0,-1,0,-1
1513173228491386,-2,-1,0,-2,-3,-1,0,-3
1513173228507897,-1,0,-1,-1,0,-2,-2,-3
1513173228507897,-1,-1,-2,-2,-1,-1,-1,-2
1513173228509399,2,0,-2,-2,-1,0,-1,0
1513173228509399,0,-1,1,-2,-2,1,0,0
1513173228522951,0,1,-3,-2,-1,-2,0,-1
1513173228522951,-1,-1,-2,-1,-1,-1,-3,0
1513173228524437,-1,-2,-1,-1,0,-2,-1,2
1513173228524437,0,-1,-2,-2,-1,1,-1,-1
1513173228545452,-2,-1,-3,0,-2,-1,1,-2
1513173228545452,3,0,-4,-3,-2,-3,-1,0
1513173228546953,-2,0,-3,-2,-1,-2,-1,-1
1513173228546953,0,1,-1,-1,-2,-4,-4,-1
1513173228559462,-1,0,-2,-2,-1,-1,-1,-2
1513173228559462,-1,-2,-1,-1,-2,-1,0,-3
1513173228567968,0,-1,-1,-1,-2,-1,-1,-3
1513173228567968,-2,0,-1,-2,-1,-1,0,-1
1513173228582978,-4,-3,2,1,-2,0,-2,-1
1513173228582978,-2,-1,-1,-1,0,-1,0,-1
1513173228584480,0,0,-1,-1,1,-1,0,-1
1513173228584480,-2,-3,0,-1,0,0,-2,-1
1513173228605497,-1,0,-1,-2,-2,-3,-2,0
1513173228605497,-4,-2,-1,-2,0,-1,0,-3
1513173228606998,-1,0,-1,-2,-2,-1,-2,0
1513173228606998,-2,1,-3,-1,0,0,0,-1
1513173228627579,-1,-1,-1,-1,0,-1,-1,0
1513173228627579,0,-2,-2,0,-2,0,-1,0
1513173228634059,-3,1,-5,-3,-2,-2,-1,-2
1513173228634059,-4,-3,-1,1,0,-2,0,0
1513173228642587,-1,1,-4,0,-2,0,-2,-1
1513173228642587,-2,-1,0,0,-2,-1,-1,0
1513173228649094,-3,-2,1,1,1,0,0,-3
1513173228649094,0,0,-1,-1,-2,0,0,-1
1513173228665603,-2,-3,-2,-1,1,0,-1,-1
1513173228665603,-3,-1,-1,-2,-2,-1,-1,-2
1513173228667094,-1,-1,-2,-1,0,-1,0,-1
1513173228667094,-3,-3,0,0,-1,-1,-1,0
1513173228688099,-1,-2,0,-3,-1,-1,0,-4
1513173228688099,-1,0,-1,0,-1,-1,-3,0
1513173228689598,0,-1,0,-1,-2,-2,0,0
1513173228689598,0,0,-1,-1,0,-1,0,-1
1513173228703107,0,-1,-2,-1,-3,0,-2,-1
1513173228703107,-4,-3,-1,-2,0,1,-1,-2
1513173228704620,2,0,-2,-2,-1,-3,-1,0
1513173228704620,1,0,-3,-3,-2,-2,-1,0
1513173228726127,-3,-2,1,0,-1,-1,-1,-2
1513173228726127,-2,1,-4,-3,-1,-1,-2,-2
1513173228727625,-1,-1,0,0,0,-2,-1,2
1513173228727625,0,0,-2,-1,0,0,-1,-3
1513173228748139,0,2,-1,-1,-1,-1,0,-2
1513173228748139,-2,-1,-1,-1,-1,0,0,-1
1513173228749640,-1,-1,-1,0,0,0,-1,-1
1513173228749640,-1,0,-1,-1,-2,-2,-1,-1
1513173228762152,-3,-4,-3,0,-2,-2,-1,-1
1513173228762152,0,-2,1,-1,-1,0,-1,-1
1513173228769157,1,-1,-3,-2,-3,1,-2,0
1513173228769157,0,-2,0,1,-1,0,-2,1
1513173228785669,-1,0,-1,-1,0,-1,-1,-2
1513173228785669,0,0,-1,-1,-1,-1,0,-1
1513173228787168,-7,-3,1,1,-2,-2,-2,-2
1513173228787168,0,0,-2,-3,0,0,-1,1
1513173228807181,-1,-1,-1,-2,1,-1,0,-1
1513173228807181,-1,-1,-2,0,0,-1,0,0
1513173228815687,0,-2,-1,-1,-2,0,1,0
1513173228815687,0,-3,-2,-1,-1,-2,-2,-1
1513173228822191,0,0,-2,-1,-2,-4,-2,-2
1513173228822191,0,1,-1,-2,1,-1,-1,-2
1513173228836702,1,-2,-2,-3,-2,-1,0,0
1513173228836702,0,0,1,-2,-1,0,1,0
1513173228845208,0,0,-2,-3,-2,-2,-1,-1
1513173228845208,-1,-2,-2,0,-2,0,-1,-1
1513173228847209,-1,-1,-2,-1,0,-2,-1,-1
1513173228847209,-1,-1,-1,0,-1,-2,-1,0
1513173228868725,0,-1,-2,-1,-2,0,0,1
1513173228868725,2,3,-2,-1,-1,-1,-1,0
1513173228870225,-2,0,-2,-2,0,-2,-1,-1
1513173228870225,-1,0,-2,-1,-1,-2,-3,-2
1513173228882234,-2,-3,-1,-1,0,-1,0,-1
1513173228882234,-1,-2,1,-3,-2,0,0,0
1513173228889241,1,-1,0,1,0,0,-1,-1
1513173228889241,-1,-2,-2,0,-3,-2,-1,-1
1513173228905250,-2,-1,0,-1,-3,-1,-1,-1
1513173228905250,-2,-2,-1,0,-2,-1,1,-1
1513173228906758,0,-2,-1,-1,-1,-2,-2,1
1513173228906758,-1,-2,-1,1,-1,-2,-2,-2
1513173228927768,-1,-2,1,-1,-1,-1,-2,-3
1513173228927768,-2,-1,-1,0,-3,-2,-1,0
1513173228929767,3,1,-1,-2,-3,-1,-1,0
1513173228929767,-1,-1,-3,-1,-1,-1,-1,-2
1513173228942278,-3,-3,-2,0,-2,0,-1,-2
1513173228942278,0,0,1,-3,-1,-1,-3,-1
1513173228949281,-2,-3,2,1,0,0,-1,0
1513173228949281,0,1,-1,-2,-1,-2,0,-1
1513173228965293,-1,2,0,-2,-1,-3,-1,0
1513173228965293,-3,0,-2,-1,0,-1,-2,-3
1513173228967294,0,0,-3,-1,-1,1,1,0
1513173228967294,0,-1,-1,0,-1,0,-1,-2
1513173228987808,-4,-3,0,-2,-2,0,0,0
1513173228987808,-1,-3,-3,0,-1,-1,-2,-1
1513173228989318,0,0,-1,-1,0,-1,0,-1
1513173228989318,-1,0,-2,-2,-1,-1,0,0
1513173229002319,1,0,-2,-2,-3,-1,-2,-1
1513173229002319,-2,-3,0,0,-2,-2,0,-1
1513173229008823,-2,0,-2,-1,0,-1,-2,-2
1513173229008823,0,-1,-1,-2,0,-2,-2,-1
1513173229025370,-2,-1,-1,-2,-1,0,-2,-2
1513173229025370,-2,-4,3,-1,-1,2,2,-1
1513173229026869,-1,0,0,0,-3,-3,-1,0
1513173229026869,1,0,-2,-3,-2,-4,-1,0
1513173229055890,-4,-5,1,2,2,0,-1,0
1513173229055890,-1,2,-1,0,-3,-2,-2,0
1513173229057391,-1,-1,-2,-1,1,0,-2,-1
1513173229057391,0,-1,-1,-2,-3,1,0,0
1513173229062412,-1,-1,-2,-2,-2,0,-1,-3
1513173229062412,-2,0,-2,0,-1,-2,-3,-3
1513173229076416,-1,-1,-2,-1,0,1,1,-1
1513173229076416,-1,-1,-1,0,-2,-1,0,1
1513173229085411,0,1,-1,0,-1,-2,0,0
1513173229085411,-3,0,-2,-2,0,0,-1,-2
1513173229086914,-1,-1,-2,-1,-1,-1,-1,1
1513173229086914,-2,-3,0,-1,0,-1,0,-1
1513173229108428,-1,-1,-1,-3,-1,1,-2,-2
1513173229108428,2,-1,-2,0,-1,0,-1,-1
1513173229109929,0,-1,-1,-1,-1,-1,-2,0
1513173229109929,-2,-1,-1,2,-1,-1,-1,0
1513173229121450,0,0,1,-1,1,-2,-2,-1
1513173229121450,-1,0,-2,-4,-2,-4,0,-2
1513173229130444,-1,0,-1,0,-1,-1,-1,-1
1513173229130444,-4,-3,2,0,1,0,-1,-1
1513173229145476,1,2,-3,-2,-2,-2,-2,0
1513173229145476,-1,-2,-3,-1,-2,-2,-1,-1
1513173229147959,-2,-2,-1,-1,0,-1,-1,-1
1513173229147959,-2,-1,-2,-2,-2,-2,0,-1
1513173229167980,-1,0,-1,0,1,0,0,-2
1513173229167980,-1,-2,-1,1,-1,0,-1,-1
1513173229169472,1,0,-6,-3,-3,-1,-2,-2
1513173229169472,-2,-1,-1,-2,0,-1,-2,-2
1513173229181982,-1,-3,-1,0,-1,-2,1,-3
1513173229181982,-1,0,-1,-2,-2,-3,-2,-1
1513173229190488,0,0,-1,-2,0,0,-1,-1
1513173229190488,0,-3,-1,0,0,1,1,-1
1513173229205513,-4,-4,-3,1,0,1,-1,-1
1513173229205513,-2,-1,0,1,0,0,-1,-3
1513173229207008,-1,-1,0,0,-1,-1,0,-1
1513173229207008,0,1,-1,-2,-2,-2,-2,-2
1513173229228011,-1,-1,0,-2,-1,0,0,-1
1513173229228011,-1,-2,-2,1,-1,1,-1,-1
1513173229229512,-5,-3,0,1,0,-1,2,-1
1513173229229512,0,-1,-1,-1,-2,-1,-1,0
1513173229241520,0,-1,-1,0,-1,-2,0,-3
1513173229241520,1,2,-2,-4,-1,-2,0,0
1513173229250528,1,0,-1,-1,-2,-1,-1,-1
1513173229250528,0,1,-2,-1,-2,-1,0,-1
1513173229265547,-2,-1,0,0,-3,-1,0,0
1513173229265547,0,0,-1,0,0,-1,-2,0
1513173229267041,0,-1,-1,-1,-1,-1,-1,1
1513173229267041,0,1,-3,-3,-1,0,-1,0
1513173229288097,0,0,-1,-1,-2,-2,-3,0
1513173229288097,-2,-4,-2,0,1,-2,-2,-1
1513173229289598,0,1,-1,1,0,-3,-3,0
1513173229289598,-2,1,-3,0,0,-2,-1,-2
1513173229301618,-1,-2,-1,-3,-3,-2,-2,-1
1513173229301618,-1,-2,-1,-2,1,0,1,0
1513173229310613,-1,-1,-2,-1,0,0,-1,0
1513173229310613,-1,-2,-3,1,0,0,0,-3
1513173229325640,-2,0,0,-1,0,0,-1,-2
1513173229325640,0,-2,0,0,-2,-2,-1,1
1513173229327126,1,-1,-1,-1,-2,-1,-1,-2
1513173229327126,1,0,-2,-1,-2,-1,-2,-1
1513173229348158,-1,0,0,-2,-2,-2,0,-2
1513173229348158,-1,0,0,-2,0,0,-1,-1
1513173229350659,-3,-1,-1,1,-1,-2,-1,0
1513173229350659,-3,0,0,-1,-1,-2,-2,-1
1513173229361650,-2,-1,-1,-1,-1,-1,-1,-3
1513173229361650,-1,0,-1,-3,0,-1,-1,-1
1513173229370670,0,-1,2,0,0,1,0,-1
1513173229370670,0,-2,1,-1,-1,-2,1,-1
1513173229385678,-1,-2,-3,-1,-1,-1,0,1
1513173229385678,0,-3,-3,0,0,-1,-1,-2
1513173229386674,-1,-2,5,1,-1,0,-2,1
1513173229386674,0,1,-1,-2,-1,-1,-1,0
1513173229407704,-2,-1,0,1,0,-1,-1,-2
1513173229407704,-2,-1,-2,-2,-2,-2,-1,0
1513173229409685,2,1,-3,-2,-1,-1,-2,-1
1513173229409685,-1,-2,-1,-2,-2,1,0,0
1513173229421694,-1,-2,0,-2,0,-1,-1,-1
1513173229421694,-1,1,-2,-1,-2,0,-2,-1
1513173229430698,-1,0,-3,-1,-2,-1,0,-2
1513173229430698,-2,-1,-1,0,-1,-1,0,-2
1513173229445718,0,0,-3,-1,-2,0,-1,-1
1513173229445718,-1,-1,-1,-3,-1,0,-1,-2
1513173229447721,-2,-2,-2,-2,-2,-1,-1,0
1513173229447721,-2,-1,1,0,-1,-1,0,-1
1513173229467724,-1,-1,0,0,-2,-1,0,-2
1513173229467724,0,-2,0,-1,-2,-2,-2,-1
1513173229469725,-1,0,-1,0,-1,1,-1,0
1513173229469725,-1,-1,0,-1,0,0,-1,-2
1513173229481736,-2,-2,-2,-3,-1,-1,-3,-2
1513173229481736,-4,-2,0,0,-2,-1,-2,-2
1513173229490760,0,-2,-2,-1,0,0,0,-2
1513173229490760,-2,-3,0,0,-2,-1,-2,0
1513173229505270,-1,1,0,-2,-1,-1,0,-2
1513173229505270,0,-1,-1,-1,-1,-2,1,-2
1513173229506751,0,-1,-2,-2,-1,-1,-1,0
1513173229506751,2,0,-3,-1,-2,-1,-1,-1
1513173229527787,-1,-2,3,0,-1,-1,-2,-1
1513173229527787,-2,0,-1,-1,-2,1,0,0
1513173229529768,-1,-1,-3,-1,-1,-1,-2,-2
1513173229529768,0,-2,-2,-1,-2,-1,-2,-1
1513173229551283,-1,-4,-1,0,-1,-1,0,-1
1513173229551283,-3,-1,-1,-1,0,-2,-1,0
1513173229552784,0,0,-1,-1,-1,-2,-1,-2
1513173229552784,-3,-1,0,-1,-1,-2,-1,-2
1513173229564797,0,0,-3,-2,-2,-2,-1,-2
1513173229564797,-1,-2,0,2,-1,-1,-1,-2
1513173229573298,-1,0,-1,-1,-2,-1,-1,-2
1513173229573298,0,-2,-1,-3,-1,-1,-2,0
1513173229587808,0,-1,-3,-1,-1,0,-2,-1
1513173229587808,-1,-3,1,-1,0,0,0,0
1513173229589814,-3,-2,0,-1,-1,0,-1,-1
1513173229589814,-2,-2,-1,0,-1,1,-1,-2
1513173229610334,-2,-2,-1,1,-1,-2,-2,-2
1513173229610334,0,-2,-1,-1,-3,-2,-2,0
1513173229611835,2,-2,-2,-1,-2,-1,-1,-1
1513173229611835,-1,-2,1,0,0,-1,0,1
1513173229625873,0,-1,-1,-2,-2,0,-2,-2
1513173229625873,-6,-6,6,2,1,2,2,-1
1513173229627358,-1,0,-1,-3,-1,-1,-2,-1
1513173229627358,0,-1,-2,-1,-1,-1,-2,-2
1513173229647854,0,-2,1,-3,-2,0,-1,-1
1513173229647854,0,-1,-3,-3,-1,-2,0,-1
1513173229653867,0,1,-1,-2,-2,-2,-2,-2
1513173229653867,-2,-2,0,0,1,-2,-1,-1
1513173229670380,-1,0,0,-2,-3,-1,-2,-1
1513173229670380,0,2,-2,-1,-3,-1,-1,0
1513173229671868,-1,-1,-2,-2,-2,0,0,1
1513173229671868,0,0,-3,-2,-3,-1,0,0
1513173229684878,-1,-2,-2,1,2,-1,-1,-2
1513173229684878,0,2,-3,-1,-1,-3,-1,-2
1513173229691396,-1,-1,-1,0,0,-3,-1,-1
1513173229691396,-1,1,-3,-1,-1,-1,-1,-1
1513173229707893,0,-2,0,-2,-1,1,0,-2
1513173229707893,1,-1,-1,-2,-2,-2,-2,-1
1513173229709409,1,-1,-2,0,-1,-1,-1,-1
1513173229709409,-2,-3,-1,0,-1,-1,-2,-2
1513173229730410,-1,-1,-2,0,-1,-1,-1,0
1513173229730410,-4,-2,-1,0,0,-1,-1,-2
1513173229731910,0,-2,-1,0,-2,-1,0,-2
1513173229731910,0,1,-1,0,-1,-3,-1,-1
1513173229744929,-1,-2,-1,-1,-1,-3,-2,1
1513173229744929,2,-1,-2,-2,-1,-1,-2,-2
1513173229758941,-3,-2,1,-1,-2,0,-1,-1
1513173229758941,0,1,0,-1,-1,-1,-1,-2
1513173229767948,-2,0,-2,-2,-1,-2,-2,-1
1513173229767948,0,0,-3,0,-1,1,-2,1
1513173229769449,-1,0,0,1,1,0,-2,-1
1513173229769449,0,0,-3,0,-1,-1,-2,-2
1513173229790463,0,4,-3,-2,-3,-3,-1,-1
1513173229790463,1,2,-3,-4,-2,-1,-2,-1
1513173229791953,0,-1,-1,-2,1,-1,0,1
1513173229791953,0,-2,0,0,-1,-1,-2,-2
1513173229804966,-2,-2,0,1,0,-1,0,-2
1513173229804966,-1,-2,-2,-2,0,-1,-2,1
1513173229811468,-1,-1,-2,0,-1,-3,-2,0
1513173229811468,-1,2,-2,-2,-2,1,0,-2
1513173229827981,-2,-1,-1,-3,-2,-1,-1,-3
1513173229827981,-1,-1,0,0,-1,-2,0,-1
1513173229829479,-2,-2,1,-3,-2,-2,-3,-1
1513173229829479,0,-2,-2,-1,1,-1,-2,0
1513173229850999,-2,-2,1,1,-2,-1,-1,-1
1513173229850999,-2,0,-1,-1,-1,-1,0,-2
1513173229852496,0,-3,0,0,0,-2,-1,0
1513173229852496,-1,-3,-1,0,-2,-2,-1,-1
1513173229864581,-3,0,-2,0,0,1,-1,-1
1513173229864581,1,-3,0,-1,-1,-2,-1,-2
1513173229871573,1,-1,-2,-1,-1,0,-1,0
1513173229871573,-1,-2,1,0,-1,-1,0,1
1513173229887586,-3,-4,1,0,0,-1,0,-2
1513173229887586,-1,-1,0,-1,-1,0,-1,0
1513173229889587,1,-1,-2,-2,-1,-1,-2,-1
1513173229889587,-3,-3,-1,-1,0,-1,-1,-3
1513173229910601,0,0,-1,-2,-1,-1,-1,-2
1513173229910601,1,-1,0,-2,-1,-1,-2,0
1513173229912102,-4,-7,5,2,1,1,0,0
1513173229912102,-2,-1,-3,-3,-2,-4,1,-2
1513173229924614,1,0,0,0,-1,-2,0,0
1513173229924614,-1,-3,-2,1,-3,0,1,0
1513173229932116,0,1,-2,-2,-2,-1,0,-1
1513173229932116,-2,0,-2,-1,-1,0,-1,-1
1513173229955132,-3,-1,-2,-1,-1,-3,-1,0
1513173229955132,0,2,-2,1,1,0,-2,0
1513173229957135,0,0,-3,-1,-2,-2,0,-2
1513173229957135,-1,-1,0,-2,-1,0,-1,-1
1513173229970653,0,-1,-1,-2,-1,-1,-3,-1
1513173229970653,-1,-2,-2,1,-1,-2,-1,0
1513173229972146,0,-2,-3,-2,0,-2,0,-1
1513173229972146,-1,-2,1,-2,1,0,-1,0
1513173229985155,-2,-1,0,-1,-1,-1,-1,-2
1513173229985155,-2,0,1,-1,0,-1,0,0
1513173229993163,-1,0,-2,2,0,-3,-1,-1
1513173229993163,1,0,-2,0,-2,-2,-1,-2
1513173230007673,-1,-1,-1,1,-3,0,-1,0
1513173230007673,1,-1,-1,-2,-1,0,-1,0
1513173230009675,-2,3,-3,-3,-2,-1,-2,-1
1513173230009675,-2,0,0,-2,-3,-1,-2,-2
1513173230030687,-1,-1,-1,-1,-1,0,-1,-3
1513173230030687,-1,-2,-3,-1,-1,0,-2,-1
1513173230033189,0,-1,-2,-3,-1,-1,0,2
1513173230033189,-2,-2,-1,-1,-2,-1,-1,-1
1513173230044213,-1,-2,-1,-2,0,-3,-1,-2
1513173230044213,-1,1,-1,-2,-1,-3,0,-2
1513173230053202,-1,-2,-1,-1,0,-1,-1,0
1513173230053202,-2,-3,-1,0,0,-1,-1,-2
1513173230067725,-1,-2,-2,-2,-2,0,-1,0
1513173230067725,-2,-2,0,0,-1,-2,0,-2
1513173230069723,0,0,-1,-1,-3,-1,-1,-1
1513173230069723,-1,-1,0,0,1,0,-2,-1
1513173230090750,0,0,-2,-2,-2,-2,0,-1
1513173230090750,1,-2,-2,-2,0,0,-2,-2
1513173230091730,-5,-3,1,0,-2,1,1,-3
1513173230091730,1,0,-3,-2,-2,-1,-1,-1
1513173230104238,-1,-2,0,-2,-1,0,-2,-1
1513173230104238,0,1,-1,0,-2,0,-1,-1
1513173230113247,0,-1,-2,0,-1,-2,-1,-1
1513173230113247,0,0,-2,-1,-1,-2,-1,-2
1513173230135261,-2,-1,0,1,0,-2,1,-2
1513173230135261,-2,-2,-1,-1,0,0,-1,-1
1513173230137262,0,-1,-3,-1,-1,-1,-2,-1
1513173230137262,-1,-3,0,0,-1,-1,-1,-3
1513173230150271,-1,1,-2,-3,-2,-1,-1,-1
1513173230150271,-1,-4,-1,0,0,-2,0,0
1513173230152287,0,-1,3,1,-2,1,1,1
1513173230152287,-3,-2,-1,-1,0,-1,-2,0
1513173230164280,-1,0,-1,-2,-1,-1,-2,-1
1513173230164280,0,-1,-1,-2,-2,-1,-2,-1
1513173230173296,-1,0,-3,-1,-2,-1,-1,0
1513173230173296,-4,-1,1,0,0,0,2,-2
1513173230187858,-2,-1,0,1,-1,1,1,-1
1513173230187858,0,1,-2,0,-2,0,-1,1
1513173230189360,-2,-1,1,0,0,-1,-1,-1
1513173230189360,0,-1,-1,-2,-2,-2,-1,-2
1513173230210364,0,-2,-1,-1,-1,0,-2,-1
1513173230210364,1,1,-2,-1,-1,-1,-1,0
1513173230216868,3,2,-7,-3,-3,-2,-2,-2
1513173230216868,-2,-1,-1,0,-2,-1,-3,-2
1513173230223895,-1,-2,-1,0,-1,0,1,-1
1513173230223895,-2,-2,-1,-2,-1,0,0,-1
1513173230233894,1,0,-2,-3,-1,0,-1,0
1513173230233894,-2,-1,-1,0,2,-1,1,-2
1513173230247907,-2,0,0,-1,-2,-3,-2,-1
1513173230247907,1,1,-1,-1,0,-1,-1,-2
1513173230249392,0,0,-1,0,0,-1,0,-1
1513173230249392,-2,-6,2,-1,-1,0,-1,-2
1513173230270416,0,-3,-2,-1,-1,-1,-4,-2
1513173230270416,-1,-2,-1,-1,1,-1,-1,-1
1513173230271917,-3,-3,-4,-1,-1,-1,-1,0
1513173230271917,2,1,-3,-1,-3,-1,-1,-1
1513173230283915,0,0,-1,0,-2,-1,0,-1
1513173230283915,-3,-1,0,-2,-1,-1,-3,-1
1513173230292922,0,2,0,0,1,1,0,0
1513173230292922,0,-1,-1,-3,0,-2,-1,-2
1513173230307932,-1,-3,-2,-1,-2,-1,-2,-3
1513173230307932,-1,-1,-1,-1,-1,-1,-1,-1
1513173230315438,3,0,-3,-1,0,-2,-2,-1
1513173230315438,-1,-3,-2,0,0,-1,-2,0
1513173230330448,-1,-1,0,-2,-1,-1,0,-1
1513173230330448,-1,0,-1,-1,-2,0,-1,0
1513173230332950,-1,0,1,-1,-3,-1,-1,-1
1513173230332950,-3,-2,-2,-1,0,-1,-1,-1
1513173230343958,1,1,0,-1,-3,-1,0,-2
1513173230343958,-3,0,-1,-1,-1,-1,0,-2
1513173230352964,0,-2,-2,-2,-1,0,-1,0
1513173230352964,-1,0,0,-1,-2,-1,-3,0
1513173230367997,-2,-3,-2,-1,0,-2,-1,-1
1513173230367997,-5,-1,-2,0,-1,-1,0,0
1513173230369498,-1,-2,-2,1,0,-1,-2,-1
1513173230369498,-2,-1,-2,-2,-3,-1,0,-2
1513173230390514,-3,-4,1,0,0,-1,1,1
1513173230390514,2,0,-2,-2,0,1,-1,0
1513173230392013,-1,-3,0,-1,1,0,-1,0
1513173230392013,-1,-1,-1,0,-2,0,-1,-2
1513173230413028,-1,-2,0,-3,0,-1,-1,0
1513173230413028,0,-2,-1,-2,0,0,1,0
1513173230414530,-2,0,-1,0,-1,0,0,-3
1513173230414530,3,2,-4,-2,-2,-3,-2,0
1513173230428039,-1,-1,-1,-2,-2,-2,0,-2
1513173230428039,0,-2,-2,-1,-2,-1,-1,0
1513173230429555,-1,-2,-1,-2,-2,-1,-2,-1
1513173230429555,-1,0,-1,-2,-2,-2,-1,-1
1513173230450558,-3,-1,-2,-1,1,0,-1,-2
1513173230450558,0,-2,-2,0,-1,0,-1,-1
1513173230452059,0,1,-2,-1,-1,-4,-1,-1
1513173230452059,0,2,-2,-2,-3,1,0,-3
1513173230464069,0,-1,-1,-1,-2,-1,0,-1
1513173230464069,0,-2,-1,-2,-1,-2,-1,-1
1513173230480580,-3,-1,-2,-1,0,0,-1,0
1513173230480580,-2,-2,0,-2,-1,-1,-1,0
1513173230488102,-2,1,-2,-2,0,0,-3,0
1513173230488102,0,-2,0,0,-1,-2,0,1
1513173230489583,0,-1,-1,0,-2,-1,-1,-2
1513173230489583,-3,-2,0,1,0,-1,-1,-2
1513173230510618,0,-1,-5,0,-2,-2,-3,-3
1513173230510618,-2,-2,1,2,0,-1,-1,0
1513173230512099,-1,-1,-2,-2,0,-1,-1,0
1513173230512099,-5,-5,-1,0,0,-1,0,-1
1513173230532615,-1,0,-1,-1,0,-1,-1,-3
1513173230532615,1,1,-1,-2,-1,0,-1,-1
1513173230534615,-1,0,0,-2,-1,-1,-1,-1
1513173230534615,0,1,-1,-2,-2,-2,-2,-2
1513173230548124,-4,-2,0,-1,1,-1,-1,-2
1513173230548124,-1,0,-1,-2,-2,-2,-1,0
1513173230549625,1,0,-2,0,-1,-1,1,0
1513173230549625,-2,-2,0,-1,-1,-1,0,-2
1513173230570141,-1,-2,0,0,-3,-1,-2,1
1513173230570141,0,1,-1,-2,0,-1,-1,-1
1513173230572158,-2,0,-2,-1,-2,-1,0,-2
1513173230572158,-2,-2,-2,-1,0,-1,-3,0
1513173230592655,0,1,0,-1,-1,-1,-2,0
1513173230592655,-1,-2,-1,0,0,-1,-2,-1
1513173230594657,1,-1,-2,-2,-1,-3,-3,0
1513173230594657,0,0,-1,-1,0,0,-2,-1
1513173230607665,1,-1,-2,-2,-2,-2,-1,0
1513173230607665,-1,0,-1,-2,0,-2,-1,-1
1513173230609667,-1,1,-1,0,0,0,0,0
1513173230609667,0,-1,-4,-1,-2,1,0,-1
1513173230638187,0,-1,-1,-2,0,1,0,-1
1513173230638187,-1,0,-3,-1,0,-2,-1,-1
1513173230639688,-1,-3,-1,-3,0,-3,-2,-2
1513173230639688,-5,-4,2,1,0,-1,-1,-2
1513173230652697,-5,-3,0,0,-2,-1,-1,-1
1513173230652697,-1,-2,-1,0,-2,0,0,-1
1513173230654699,-1,0,-1,0,-1,-1,-1,-1
1513173230654699,0,0,-1,-2,-1,-1,0,-1
1513173230667210,-1,2,0,-1,0,-2,-1,-1
1513173230667210,-3,-2,0,0,0,-1,0,-2
1513173230674715,0,-2,0,-1,-3,-1,-1,-1
1513173230674715,1,-1,0,-1,-3,-2,0,0
1513173230689726,-2,-2,-1,1,-2,-1,0,-1
1513173230689726,2,1,-3,-2,-2,-1,-2,-1
1513173230690224,-2,0,-1,-2,0,0,-1,-1
1513173230690224,1,-1,-1,-1,-1,-1,-1,-2
1513173230712252,-1,-1,-2,-3,0,-1,-1,-2
1513173230712252,-1,0,-2,-3,-2,-1,-2,0
1513173230712740,-2,-2,-1,-1,-1,-3,-2,-1
1513173230712740,-2,-1,-2,-2,-2,0,0,-2
1513173230727272,-1,-2,-1,-1,-2,-1,-1,-2
1513173230727272,0,-1,0,1,-1,-2,0,0
1513173230734756,-2,0,-1,0,-1,-3,-2,-1
1513173230734756,0,-1,-1,-1,-1,-2,-2,-1
1513173230749766,2,1,-2,-1,0,-2,0,0
1513173230749766,-1,0,-2,0,-1,0,-2,-2
1513173230750266,-2,0,-1,-1,-1,0,0,0
1513173230750266,-1,0,-1,-1,-2,-2,-2,-1
1513173230772296,-1,-2,-1,0,0,1,-1,-2
1513173230772296,2,-2,0,-2,-2,-1,-1,1
1513173230772784,-2,-3,-2,-2,-1,1,-1,-1
1513173230772784,-1,0,0,-2,-1,-1,-2,-2
1513173230786292,-1,0,-1,-1,-1,-2,-2,-2
1513173230786292,-1,-1,0,-1,1,-1,0,1
1513173230794798,0,-1,-1,0,0,0,0,0
1513173230794798,-1,0,-2,-2,-1,-2,0,-1
1513173230817833,-2,-2,1,0,-1,-1,-1,-2
1513173230817833,0,1,-2,-1,-1,-1,-1,2
1513173230818819,-1,-2,-2,-1,-2,1,0,0
1513173230818819,-2,-1,-1,-2,-3,-3,-1,-1
1513173230832325,0,-2,-1,0,1,0,0,-1
1513173230832325,-1,-2,-3,-1,-1,-1,0,0
1513173230832825,-4,-1,0,0,-2,0,0,-1
1513173230832825,-1,-3,1,-1,-1,-1,0,-1
1513173230846334,0,0,1,-2,-2,-1,-1,0
1513173230846334,-4,-3,1,-1,1,0,-1,0
1513173230854840,1,2,-2,-2,-1,-2,-2,-1
1513173230854840,-2,-1,0,-2,-3,-1,0,-1
1513173230869851,0,1,-2,-4,-3,-3,-1,-2
1513173230869851,0,-1,-1,-2,0,0,-1,-1
1513173230870351,-2,-2,0,0,0,-1,0,-1
1513173230870351,-1,-1,-1,1,0,-3,-1,-1
1513173230892368,-3,-3,-1,-1,-1,0,-2,1
1513173230892368,2,1,-1,-3,-2,-2,0,-1
1513173230892867,0,1,-1,-1,-2,-1,0,-1
1513173230892867,-1,-1,-1,0,1,-1,-2,-2
1513173230906379,-1,-1,-1,0,0,-1,-1,-1
1513173230906379,0,-1,-1,0,-1,0,0,-1
1513173230914885,0,-1,0,-1,-1,-1,-1,0
1513173230914885,-2,0,-4,-2,0,-2,-3,0
1513173230929894,-1,-1,-1,-1,-1,-1,-1,-2
1513173230929894,-3,-1,-2,0,1,0,1,0
1513173230930394,0,-1,-2,0,-2,0,0,-1
1513173230930394,-3,-2,0,1,0,0,0,-3
1513173230952409,-1,0,2,0,0,0,-1,-1
1513173230952409,-1,0,-2,-1,0,-1,0,0
1513173230952909,-1,-2,0,0,-2,-2,-3,-1
1513173230952909,-1,1,-1,-2,-2,0,-1,0
1513173230966421,0,-2,-2,-2,-2,-2,-1,-2
1513173230966421,0,-2,-1,-1,-1,-3,-1,-2
1513173230974472,-2,-1,-1,-1,1,-1,0,-2
1513173230974472,-1,-1,-1,-1,-3,-1,-1,-1
1513173230989468,-1,-2,-1,-3,-1,-1,0,-1
1513173230989468,-1,0,-2,-1,0,0,-1,-2
1513173230990469,0,1,-2,-2,0,-3,0,0
1513173230990469,0,-1,0,2,-2,-1,0,-1
1513173231012001,-2,3,-3,-2,-1,-1,-1,-2
1513173231012001,-1,-2,-1,0,-4,-2,-1,0
1513173231012995,0,-2,-1,-2,-2,-1,0,0
1513173231012995,-1,-1,-1,-2,-1,-3,0,-3
1513173231026512,0,-2,-2,0,-1,-2,-1,-2
1513173231026512,0,1,-2,1,1,1,-2,-1
1513173231042007,-1,-1,-1,-1,-1,0,-1,0
1513173231042007,-2,-1,-1,-1,-2,0,-1,-1
1513173231049530,-1,-3,1,0,-1,2,0,-1
1513173231049530,-1,-2,0,-2,-2,-1,-2,-2
1513173231050512,-2,-2,0,-1,-1,0,-2,-2
1513173231050512,-1,-3,-1,-1,-1,-2,-2,-2
1513173231072526,-3,-1,-2,-2,-2,-3,-3,0
1513173231072526,-1,-2,-3,-2,-1,-2,-1,-1
1513173231073037,0,-2,-1,-2,-1,-1,-2,-1
1513173231073037,0,1,-1,-2,0,-2,-1,1
1513173231086538,-1,0,-2,0,0,-1,0,0
1513173231086538,-2,-1,0,1,0,-1,-1,0
1513173231094543,0,-2,-1,-1,-3,-2,-1,1
1513173231094543,0,-1,-1,-1,-1,-1,0,-1
1513173231109554,0,-3,-2,-1,1,0,-1,-3
1513173231109554,0,0,0,-3,0,-2,0,-1
1513173231110554,1,2,-2,-1,-1,-1,0,-1
1513173231110554,-2,-1,0,0,1,1,-2,-1
1513173231132070,0,1,-2,0,-1,-2,-1,0
1513173231132070,-1,-2,-2,-2,0,0,-2,0
1513173231133070,-2,-2,-2,-1,1,-2,-1,-2
1513173231133070,-3,-2,2,-1,-1,-1,-1,0
1513173231146579,-1,0,-1,-2,-2,-1,-1,-1
1513173231146579,0,-2,0,0,-3,0,-1,0
1513173231154585,0,-1,0,-1,-1,-1,-1,-2
1513173231154585,1,-1,-2,-2,0,0,-1,0
1513173231169597,-3,-4,5,2,0,-1,-2,-2
1513173231169597,0,0,-2,-1,-1,-1,-3,-1
1513173231170596,-1,-1,-2,0,-1,-1,-1,0
1513173231170596,0,-2,-2,1,0,-2,-2,-1
1513173231192629,2,1,-2,0,-1,-2,1,-1
1513173231192629,0,-1,-3,-1,0,-3,-1,-1
1513173231199626,-2,-3,0,-1,0,-2,0,-2
1513173231199626,-2,-1,-1,-1,-2,-1,-1,-2
1513173231206622,-2,-3,-1,-2,-1,-1,-2,-1
1513173231206622,-3,0,0,-1,-3,-2,-1,0
1513173231214627,-1,-2,-1,-2,0,-1,-2,0
1513173231214627,-1,-1,0,-1,0,-1,-1,-2
1513173231229638,-2,-2,-3,-1,0,-2,0,-2
1513173231229638,0,-1,-2,0,-2,1,0,-1
1513173231230639,-1,0,-2,-2,-2,0,-3,-1
1513173231230639,-5,-2,0,-1,-1,-1,-2,-1
1513173231252166,0,-1,-1,-3,-3,0,-1,0
1513173231252166,-3,-2,0,-1,0,-1,0,0
1513173231253167,0,0,-2,-1,-4,-1,0,-2
1513173231253167,-1,-2,-2,-1,0,-2,0,-3
1513173231266324,0,-1,-4,-4,-2,0,0,0
1513173231266324,-1,0,-2,-2,-1,-1,-1,-1
1513173231274832,-2,0,1,-1,-1,-1,0,-1
1513173231274832,-1,-1,-1,-2,0,-1,-1,-3
1513173231289855,-1,1,0,0,0,-1,-2,0
1513173231289855,0,1,-1,0,0,-3,0,-1
1513173231290341,-2,0,-2,-1,0,-1,-1,-1
1513173231290341,0,0,-2,-1,-2,1,-2,-2
1513173231312356,0,-1,-3,-1,-2,-3,-1,-1
1513173231312356,0,-2,-1,0,0,0,0,0
1513173231312856,-1,0,-1,-1,-1,-1,0,0
1513173231312856,-1,0,-2,-1,-3,-3,-1,-3
1513173231326369,-2,-4,-3,-1,0,-1,-1,-1
1513173231326369,-1,-1,-1,-1,0,0,-1,0
1513173231334872,-1,-1,0,-1,-1,-2,0,0
1513173231334872,0,0,-2,-2,-2,0,-1,-2
1513173231349882,-1,1,0,-1,-2,-1,-3,-2
1513173231349882,-3,-4,0,0,0,-2,1,-1
1513173231350384,-1,-2,-2,-2,-1,1,-1,0
1513173231350384,-2,0,-2,-1,-1,-3,-2,1
1513173231372398,0,-2,-2,0,-2,1,-1,-1
1513173231372398,3,0,-2,-1,-3,-2,-4,-1
1513173231372899,-2,0,0,-1,-2,0,-1,-1
1513173231372899,0,-2,-1,-1,1,0,1,-2
1513173231386408,-3,-4,-1,-2,-1,-1,-1,0
1513173231386408,0,0,-2,0,-2,-2,-3,2
1513173231394414,1,-1,-1,-1,-1,-2,-1,0
1513173231394414,-2,-2,-1,-1,-1,-1,-1,0
1513173231409926,0,-2,2,1,1,-1,1,2
1513173231409926,-1,0,-2,-2,0,0,-1,-1
1513173231410429,-1,-1,-2,0,-2,-1,-2,0
1513173231410429,-1,-1,2,-2,0,0,1,-2
1513173231432442,-2,-1,1,-2,-1,0,-1,-1
1513173231432442,1,0,0,-1,-1,0,-1,-1
1513173231432943,-3,1,0,0,-1,0,0,-3
1513173231432943,-4,-5,0,1,-1,0,-1,0
1513173231455469,0,0,-2,-3,-1,-1,0,-2
1513173231455469,-1,1,0,-2,-3,-2,0,-1
1513173231455959,1,1,-1,0,2,-1,-2,1
1513173231455959,0,0,-1,0,-1,0,-2,-1
1513173231469482,-1,-1,-2,-1,0,-2,-1,-1
1513173231469482,-1,-3,-2,-1,-2,-1,-1,-2
1513173231470469,0,-2,-2,-7,-3,-3,-1,0
1513173231470469,0,-1,1,2,3,0,-1,0
1513173231491984,3,7,6,5,-2,0,-1,0
1513173231491984,0,-5,-5,-7,-3,-1,-1,-2
1513173231492985,0,0,2,2,2,0,-1,-2
1513173231492985,-3,-4,-6,-5,-3,-2,-2,-3
1513173231515499,-4,-4,0,-3,0,0,0,-1
1513173231515499,1,-2,1,-8,-5,-3,-1,0
1513173231516001,-7,3,7,14,5,0,2,-1
1513173231516001,1,2,0,-2,3,0,-1,-2
1513173231529532,3,0,-9,1,-5,-4,-3,-1
1513173231529532,-3,3,3,-3,-1,-2,1,-1
1513173231530520,0,-3,-2,-6,-5,-3,-1,-1
1513173231530520,-2,2,-2,-4,-3,-1,-2,0
1513173231552035,1,-2,-4,-7,-5,-2,-2,2
1513173231552035,3,2,0,11,10,0,1,1
1513173231553027,1,-2,-4,-2,-1,-3,-1,-1
1513173231553027,-1,-1,-3,-2,-4,-2,0,-2
1513173231575222,-2,-2,-3,-6,-5,-2,-1,-1
1513173231575222,-3,-1,-3,-1,-3,-1,0,1
1513173231576208,-1,-1,-2,-1,1,-1,-2,-2
1513173231576208,1,0,-1,1,-1,-1,-1,-1
1513173231589717,-3,-3,-1,-2,2,-1,-1,-4
1513173231589717,-2,-1,0,1,-1,0,-2,-1
1513173231590222,-2,-1,-3,-3,-1,0,-2,-2
1513173231590222,-1,2,-3,-11,-5,-3,-3,-1
1513173231612233,0,2,-1,-6,-3,-1,0,-1
1513173231612233,0,3,0,12,0,0,0,-4
1513173231612734,0,0,2,-14,-15,-5,-1,-3
1513173231612734,-3,-7,-6,32,27,4,2,-3
1513173231635250,1,-2,2,5,-1,2,-1,-1
1513173231635250,0,0,-5,-15,-11,-3,-3,-2
1513173231636252,-1,-4,-5,-9,-1,-3,-2,-2
1513173231636252,-1,0,4,-14,-10,-4,-1,0
1513173231649779,0,2,-2,-4,-1,-4,-2,-1
1513173231649779,-3,-4,-2,6,-1,-2,0,0
1513173231650260,-3,-3,0,4,7,2,1,-2
1513173231650260,-2,-1,1,-6,-4,-1,-2,-1
1513173231672276,0,-3,-4,3,8,1,1,1
1513173231672276,-2,0,2,-6,-6,-2,-1,-1
1513173231672776,0,-1,-3,-2,0,0,-1,0
1513173231672776,-1,-1,3,5,-2,-1,-1,-1
1513173231695292,0,-1,0,-1,-1,0,-1,2
1513173231695292,-2,-7,1,4,6,0,-3,0
1513173231696294,-5,-1,0,5,1,-1,1,-3
1513173231696294,3,0,-4,-4,-5,-1,-1,-1
1513173231709815,-2,-1,-4,-10,-6,-1,-2,-2
1513173231709815,-1,0,-1,0,1,-1,0,0
1513173231710302,-1,-1,-1,5,1,0,0,-1
1513173231710302,-3,0,-2,-8,-7,-2,-3,-2
1513173231732819,-3,0,1,-1,0,-1,0,-1
1513173231732819,0,-2,-4,-2,8,0,-1,-2
1513173231733321,2,1,0,5,-3,-3,-2,1
1513173231733321,-2,0,-2,-9,-6,-2,-1,-1
1513173231755844,-1,-3,1,18,6,1,-1,-1
1513173231755844,-2,-2,-1,-15,-7,-1,-2,-1
1513173231756335,4,5,-5,2,2,1,-1,0
1513173231756335,-3,-4,-1,1,-2,-1,-1,0
1513173231769854,0,2,3,2,-1,-1,1,0
1513173231769854,-2,-5,-5,-7,-5,-3,-2,-1
1513173231770346,-2,-1,-7,-16,-5,-3,-4,-4
1513173231770346,1,0,6,9,3,0,2,0
1513173231792361,-1,1,-6,-4,-2,-1,0,0
1513173231792361,0,3,1,2,0,-1,-1,0
1513173231792861,0,-3,-1,-3,-3,-2,0,1
1513173231792861,-1,0,-3,-3,0,-3,-3,1
1513173231815419,-4,-3,-1,2,-5,-3,-2,-2
1513173231815419,2,2,-5,3,3,2,1,0
1513173231816377,0,-1,-6,-4,-5,-4,-2,-2
1513173231816377,2,-2,0,1,-4,-1,-2,-3
1513173231829887,0,1,2,2,3,0,0,-2
1513173231829887,2,-1,-8,-5,-2,0,-2,0
1513173231830397,-1,0,5,2,0,0,0,-1
1513173231830397,-1,0,-2,1,0,-2,-2,-2
1513173231852403,2,0,-3,-8,-1,-3,0,2
1513173231852403,0,-1,-2,1,-2,-4,0,-2
1513173231852904,-1,-2,4,2,3,1,1,0
1513173231852904,-2,-3,-3,-4,-4,-3,-1,-3
1513173231874919,-2,-2,1,0,2,0,-3,-2
1513173231874919,-1,-1,-1,-1,-2,0,0,0
1513173231875921,-2,1,6,2,-3,-3,-2,-1
1513173231875921,-6,-2,-5,-1,-6,-2,1,-2
1513173231889430,-5,-5,-7,-5,0,-1,-1,-1
1513173231889430,-5,-7,1,8,2,-1,2,9
1513173231890432,-2,-1,2,0,-1,-1,-1,-10
1513173231890432,3,2,-2,-8,-3,-3,-3,-3
1513173231911945,0,1,5,0,-4,-3,0,-3
1513173231911945,-7,-5,-11,5,6,0,-4,-5
1513173231912946,-6,-2,6,10,4,1,2,-1
1513173231912946,-4,-5,-7,-2,0,-2,0,0
1513173231935463,-1,0,-8,-12,-8,-1,-2,-3
1513173231935463,3,1,2,-6,-4,-3,1,2
1513173231935963,-1,-3,-2,5,0,0,0,1
1513173231935963,-1,-3,-3,-5,-1,1,0,-3
1513173231949972,0,1,4,-2,0,-2,0,3
1513173231949972,-6,-5,1,4,1,1,0,-2
1513173231950472,2,1,-3,-4,-3,-1,-1,1
1513173231950472,-2,-2,-3,-2,-2,-1,0,1
1513173231972107,6,-2,1,3,3,1,-1,-2
1513173231972107,0,3,5,1,-1,0,-2,-4
1513173231973105,-7,-7,-7,-6,-3,-4,-3,-3
1513173231973105,1,2,4,0,1,1,0,2
1513173231995120,-1,-1,-1,-1,-2,0,1,1
1513173231995120,1,4,0,-7,-3,-1,-1,-3
1513173231996123,-2,2,4,0,-1,-2,0,10
1513173231996123,-1,-5,-3,2,2,0,-1,-10
1513173232009631,-5,-2,4,-1,1,-1,-1,-2
1513173232009631,0,-2,-8,5,-1,-1,-1,-3
1513173232010631,2,6,2,-5,-4,-1,-2,-1
1513173232010631,1,0,-4,-1,-2,-2,-2,2
1513173232032650,-6,-4,-9,-3,-2,0,2,-2
1513173232032650,0,-1,3,-6,-3,-1,1,-2
1513173232033648,-1,-4,-10,-2,-2,-1,-2,-2
1513173232033648,0,-4,6,3,3,-2,-1,0
1513173232055163,1,3,8,2,-2,-1,-3,-2
1513173232055163,1,1,-8,-4,-1,-3,-2,2
1513173232056163,-2,-1,0,-1,-3,-3,0,-4
1513173232056163,-2,1,5,-3,0,0,1,3
1513173232069173,5,-5,-8,0,2,-2,2,12
1513173232069173,-2,0,2,4,-3,-4,-4,-13
1513173232077178,2,1,2,-1,3,1,-1,-1
1513173232077178,-3,-4,-2,-9,-6,-4,-2,-2
1513173232092192,-1,3,-4,-4,-4,-4,-3,-2
1513173232092192,5,7,2,1,1,0,1,5
1513173232092690,-6,-11,-16,-6,-4,-2,-3,-2
1513173232092690,0,0,11,3,0,-1,-2,0
1513173232115205,4,-2,-15,-9,-2,0,0,0
1513173232115205,0,-1,8,-1,3,0,0,1
1513173232116206,-1,1,1,-1,-2,-1,-2,-4
1513173232116206,2,4,5,5,1,0,-1,2
1513173232128740,-1,-2,-3,-1,-4,0,-1,-3
1513173232128740,-2,-2,5,6,0,-1,1,-1
1513173232137221,1,-1,-6,-9,0,-1,-2,-2
1513173232137221,-2,2,1,-1,-2,-2,2,1
1513173232152231,-1,-1,3,3,1,-2,-12,-7
1513173232152231,1,3,-1,-4,-3,-2,-2,1
1513173232152732,1,7,9,5,-2,-2,1,-2
1513173232152732,-5,12,-1,1,0,-2,1,7
1513173232175251,-5,12,3,-10,-4,-3,0,-10
1513173232175251,-4,-20,-14,-2,1,0,-3,-4
1513173232176249,-3,-6,4,3,0,-1,1,1
1513173232176249,-1,9,-12,-6,-2,-2,-1,-3
1513173232189257,-1,-5,1,5,3,0,2,4
1513173232189257,-5,-5,2,-6,-4,-2,-1,2
1513173232197309,-4,-9,-13,1,-3,0,-1,-3
1513173232197309,-1,-8,1,-13,0,0,0,-2
1513173232212318,0,2,5,8,2,-1,-2,-3
1513173232212318,8,4,-12,-11,-5,1,-1,1
1513173232212813,-4,-10,-18,-2,-1,-3,-2,-1
1513173232212813,-2,-7,-1,2,-1,-2,-1,-2
1513173232235324,-3,-3,23,10,4,4,4,-8
1513173232235324,-4,2,-3,-3,-1,0,3,-2
1513173232235823,-4,1,-3,-5,-6,-2,-6,0
1513173232235823,6,-3,11,4,1,0,-1,-3
1513173232249333,-9,-30,-34,-2,-1,1,-1,-1
1513173232249333,7,31,11,-1,-2,-1,3,0
1513173232264844,1,6,0,-9,-3,-3,-2,-3
1513173232264844,-2,6,-2,3,1,0,3,5
1513173232271859,11,-5,16,1,0,1,-10,-4
1513173232271859,-10,-6,-7,6,1,-2,3,-3
1513173232272859,-2,12,10,6,5,2,-1,-2
1513173232272859,-6,-19,-7,-8,-5,0,5,-1
1513173232295382,-16,-4,-4,-6,-5,-5,4,4
1513173232295382,7,12,18,6,2,0,-5,4
1513173232296380,7,-10,-29,-16,-5,-3,-5,-5
1513173232296380,-8,-11,9,7,-1,2,6,1
1513173232309388,7,8,-6,2,4,0,2,2
1513173232309388,2,-7,11,7,0,-2,-3,2
1513173232317381,-4,-1,1,-8,-2,0,11,11
1513173232317381,0,-39,-13,-2,-2,1,-6,-14
1513173232332392,-8,0,-11,-14,-9,-5,-17,-16
1513173232332392,-5,-7,-11,-8,-6,-4,3,0
1513173232333393,1,2,8,15,4,3,-9,-7
1513173232333393,17,41,-1,-6,-4,-2,-3,7
1513173232355420,10,10,-18,6,4,7,27,19
1513173232355420,-18,-67,12,-8,-5,-8,2,-1
1513173232355923,-11,-3,-12,-1,-3,-1,-7,-7
1513173232355923,5,12,-24,-17,-2,-5,-13,-5
1513173232377947,17,9,11,19,8,3,0,12
1513173232377947,-3,9,-41,-10,1,4,2,-10
1513173232378424,-3,5,34,10,0,-2,12,16
1513173232378424,14,0,23,0,-1,-5,-19,-21
1513173232400459,-16,3,-18,-16,-9,-2,9,0
1513173232400459,-4,-7,30,20,4,-1,-4,1
1513173232400945,2,-14,-10,-7,-1,-1,2,-4
1513173232400945,-1,20,-2,12,2,2,33,22
1513173232415471,14,19,37,-1,2,2,-37,-4
1513173232415471,-17,-29,-32,2,3,4,-21,-25
1513173232416455,2,-16,-7,-10,-7,-2,11,13
1513173232416455,-20,2,43,14,7,-2,24,6
1513173232437978,-4,-5,-49,-20,-1,-2,-10,-3
1513173232437978,-2,6,-6,11,-2,-2,-12,7
1513173232438467,7,16,1,1,3,7,16,14
1513173232438467,-17,-29,-1,22,6,2,-16,-21
1513173232452489,-16,5,1,-19,-8,-2,20,-4
1513173232452489,10,38,89,31,10,-1,-13,0
1513173232452977,-5,-27,-66,8,9,7,-3,-2
1513173232452977,11,15,-4,-29,-11,-6,-8,10
1513173232475496,-2,-13,-15,-6,2,3,13,-3
1513173232475496,4,6,-13,-24,-9,-4,-14,-8
1513173232476003,4,17,48,17,-4,2,-15,5
1513173232476003,-9,-8,-10,14,1,-7,3,23
1513173232498009,28,33,44,16,-1,-7,6,-23
1513173232498009,-9,-37,-58,-24,-4,5,-5,7
1513173232498509,-11,37,57,-6,-7,-22,-70,-23
1513173232498509,-10,-40,-104,-38,-13,-2,-32,-36
1513173232512018,-11,2,34,36,7,-1,-22,-23
1513173232512018,20,-13,-31,-8,-1,4,39,29
1513173232513032,-17,14,28,4,3,8,34,-25
1513173232513032,-8,-15,26,-6,-8,-7,7,46
1513173232535535,12,-5,-15,0,-5,-7,7,22
1513173232535535,-5,-15,-12,-8,-6,-5,-3,-13
1513173232536035,-5,-5,-56,-33,-13,-3,2,5
1513173232536035,12,48,54,41,17,2,31,19
1513173232557560,-11,-38,-3,-7,2,1,-18,-32
1513173232557560,10,56,-12,-8,-3,-2,-9,1
1513173232558562,-11,-38,-31,-6,-11,-11,2,-15
1513173232558562,10,39,28,10,9,15,41,15
1513173232572064,-13,-44,-64,-21,-6,-11,-62,-20
1513173232572064,-1,-3,27,-3,-9,-3,14,8
1513173232579581,11,67,5,-3,12,9,20,23
1513173232579581,0,-24,8,23,-4,3,0,-52
1513173232595092,12,20,48,-2,10,14,15,23
1513173232595092,-17,-43,-54,2,-10,-13,-35,-29
1513173232596078,5,-37,6,-31,-6,2,37,32
1513173232596078,-1,45,13,12,1,-12,-63,-31
1513173232617605,-25,-35,-33,-35,-10,1,36,0
1513173232617605,31,41,60,39,10,1,2,43
1513173232618093,-15,-33,13,10,0,-1,-3,-17
1513173232618093,-6,-24,-87,-21,4,6,14,-23
1513173232632606,35,44,67,9,3,0,11,84
1513173232632606,-14,7,28,-6,-1,7,15,-31
1513173232633616,21,-35,-58,20,-1,-10,-35,-54
1513173232633616,14,8,-38,-54,-9,1,27,90
1513173232655129,-1,-13,12,39,8,-2,-42,-71
1513173232655129,-17,-4,-25,-24,-3,5,35,34
1513173232656130,26,45,53,17,-12,-6,-12,-1
1513173232656130,-14,-43,28,-12,2,0,-9,-47
1513173232685151,5,45,-18,-7,0,4,38,66
1513173232685151,27,-1,18,6,3,-3,-11,-80
1513173232686143,-24,-33,8,8,7,-2,-21,17
1513173232686143,20,30,62,13,5,14,32,61
1513173232692160,-21,-67,-64,10,-8,-19,-28,-48
1513173232692160,-20,34,78,-8,3,3,12,1
1513173232693156,-11,7,-83,-25,-9,3,49,50
1513173232693156,-18,-35,-40,0,1,-4,-73,-95
1513173232715162,6,29,57,14,0,1,33,80
1513173232715162,0,10,-79,-23,-8,-12,-49,-17
1513173232716163,-3,-27,48,-4,-2,-2,-18,-42
1513173232716163,-24,1,14,-16,-4,6,52,83
1513173232737687,-15,-36,-60,5,-1,-11,-19,-88
1513173232737687,-7,-10,4,29,-5,2,54,48
1513173232738688,6,39,20,3,21,7,-17,-20
1513173232738688,-8,-30,-78,-8,-13,-25,-56,-54
1513173232752698,2,-18,3,3,9,5,-2,-19
1513173232752698,14,8,-18,-14,-1,5,32,77
1513173232760694,0,7,39,-14,-5,-5,2,-4
1513173232760694,9,16,25,39,-2,0,-4,-11
1513173232775219,-12,-13,1,-33,15,9,15,-6
1513173232775219,11,-5,24,25,12,0,-25,-39
1513173232776706,-9,-11,-84,-3,2,10,35,25
1513173232776706,-20,3,60,7,-12,-7,-13,33
1513173232797733,-16,-15,-58,-37,-21,-10,-5,1
1513173232797733,35,40,-7,9,0,-17,-79,-105
1513173232799727,-7,-13,13,2,0,0,17,48
1513173232799727,5,-18,-28,-22,-4,1,13,-8
1513173232820246,14,33,8,4,-7,-6,-52,-25
1513173232820246,-5,-3,39,-10,-3,0,7,37
1513173232821757,-24,-38,20,33,14,4,-28,-21
1513173232821757,45,28,-53,-9,0,2,20,8
1513173232835248,-35,-18,-29,-27,-18,-4,51,54
1513173232835248,-4,-6,-35,-19,0,-4,-35,-64
1513173232836751,-3,2,99,28,-1,-4,-9,-6
1513173232836751,-27,-50,-45,-28,-4,4,41,60
1513173232857766,7,29,88,10,2,0,-41,-88
1513173232857766,-24,-26,-29,0,-9,1,50,50
1513173232859267,29,15,-19,14,14,2,5,5
1513173232859267,28,48,17,24,3,-2,-16,-31
1513173232871284,-13,-15,9,-2,-5,1,28,47
1513173232871284,23,36,83,28,4,-3,-10,22
1513173232887786,-23,-11,-42,-34,-13,-4,-7,-19
1513173232887786,22,10,28,19,6,2,-20,-76
1513173232895289,8,15,9,0,-11,-9,-19,22
1513173232895289,-15,-10,-57,-54,-4,8,25,20
1513173232896790,51,48,14,2,-6,-6,18,-3
1513173232896790,-1,-41,-66,-11,1,1,22,60
1513173232917806,-5,46,66,21,-3,-5,-35,-47
1513173232917806,-5,19,-37,11,11,2,0,-11
1513173232919306,-14,-7,-57,-29,-11,-4,4,-3
1513173232919306,-20,-19,54,-16,-6,-1,13,4
1513173232931815,31,19,13,28,10,11,20,54
1513173232931815,-34,-22,-23,5,-2,0,-9,1
1513173232940321,-22,-56,3,12,1,0,-16,-76
1513173232940321,7,75,35,-10,-2,-2,1,5
1513173232955332,-31,-60,-80,-2,-2,-4,-9,-19
1513173232955332,-2,-42,16,-4,-4,7,30,19
1513173232957343,36,39,11,-6,0,6,-1,17
1513173232957343,-60,-66,-35,-15,-7,-7,-28,-59
1513173232977865,17,36,0,5,7,8,74,99
1513173232977865,1,-47,-73,6,2,-5,-22,-29
1513173232979367,20,80,108,13,1,4,-4,-2
1513173232979367,-2,-12,-29,-10,-12,-6,-13,-4
1513173232991368,14,0,-23,2,0,3,2,-40
1513173232991368,-1,-1,29,-5,8,5,13,32
1513173233000379,-26,-19,-23,-9,-2,0,9,28
1513173233000379,37,21,36,16,3,-1,-6,-10
1513173233015374,-20,14,-58,-14,-1,6,-12,-10
1513173233015374,-17,-27,30,-6,-7,-9,-16,-24
1513173233016875,-8,-30,-56,15,-3,-14,-21,-16
1513173233016875,32,30,68,8,-1,0,-6,47
1513173233037893,-1,-58,37,11,6,2,-19,-28
1513173233037893,-15,-40,11,-11,-9,-4,15,-8
1513173233039391,15,42,-72,-10,0,0,12,47
1513173233039391,-52,25,64,30,10,10,5,-29
1513173233051400,15,-7,-32,5,2,-4,-2,14
1513173233051400,-5,37,6,-29,-11,-7,-5,-25
1513173233060406,5,-25,19,-15,-8,-9,-4,4
1513173233060406,-5,16,-10,12,7,1,-7,-18
1513173233075416,-2,-20,-22,-10,-2,-1,-7,24
1513173233075416,39,37,21,20,1,-2,13,35
1513173233076917,-68,-50,-65,-31,-8,-1,9,26
1513173233076917,61,28,7,-7,-4,-3,-9,-3
1513173233097932,-37,-30,-22,13,7,3,0,-35
1513173233097932,-13,-32,2,8,0,-1,-1,21
1513173233099434,34,47,36,22,5,10,29,6
1513173233099434,-26,-73,-11,-12,1,-3,5,11
1513173233111444,-3,38,10,-18,-8,-4,-37,-19
1513173233111444,12,-11,-21,-7,-8,-5,-15,5
1513173233120449,-10,7,60,19,-2,-7,-18,-30
1513173233120449,-9,-14,-74,12,15,-2,-9,20
1513173233135468,9,-28,39,-15,-14,-11,-9,-33
1513173233135468,0,27,28,-5,-1,0,2,-20
1513173233136970,26,-6,-35,-14,-11,-8,-8,7
1513173233136970,3,-7,31,8,-2,-5,-13,-19
1513173233158000,7,28,15,-22,-7,1,26,28
1513173233158000,-6,-13,-3,-8,-4,-8,-26,2
1513173233159486,-29,-74,-40,8,3,2,16,-36
1513173233159486,8,11,28,10,4,8,12,8
1513173233171527,4,17,-8,-11,-4,-4,-3,8
1513173233171527,14,-35,-54,-20,-7,3,18,-9
1513173233180536,-5,7,24,-15,2,0,-21,5
1513173233180536,-20,1,5,7,-1,-2,1,3
1513173233195544,23,48,2,-36,-20,-11,-4,-15
1513173233195544,7,33,42,40,17,8,-6,-1
1513173233197064,5,12,9,-1,2,4,13,27
1513173233197064,-17,-47,-28,-36,-10,-5,5,-9
1513173233217579,17,9,33,37,13,5,-7,3
1513173233217579,-23,-10,15,9,-6,-4,4,17
1513173233219561,16,23,25,5,3,-3,-11,-27
1513173233219561,-10,3,-27,-11,-6,-9,-32,-25
1513173233240074,11,-10,-2,0,2,6,38,30
1513173233240074,-22,-30,-54,7,10,6,3,-15
1513173233242076,22,52,94,-18,-11,-2,-20,35
1513173233242076,10,38,-1,-7,-2,-1,8,-4
1513173233255085,-5,-1,-25,0,2,-3,0,-3
1513173233255085,-20,-26,-15,-3,5,6,23,-6
1513173233257099,-3,0,14,14,-4,-6,-30,-20
1513173233257099,-17,2,-46,-11,-7,-1,26,8
1513173233278102,-6,-29,13,-15,-8,-9,-42,-16
1513173233278102,23,44,-6,-11,3,3,10,32
1513173233279624,2,-37,27,16,4,-5,9,-9
1513173233279624,-8,-25,-14,-2,-4,3,6,-12
1513173233291611,3,1,46,0,0,3,38,42
1513173233291611,9,35,63,24,3,-4,-44,-34
1513173233308123,-28,-58,-56,-44,-14,-3,8,-9
1513173233308123,-9,14,-12,0,-1,0,-7,10
1513173233315631,-10,1,16,1,-3,-2,21,3
1513173233315631,5,-23,-5,17,1,-4,2,13
1513173233317140,-20,81,29,-12,-6,-6,-7,-4
1513173233317140,-16,-51,-36,-2,0,-1,-5,-20
1513173233338148,-10,-10,-25,4,0,3,-7,-18
1513173233338148,16,52,53,-2,-6,-3,7,9
1513173233339645,6,-31,-58,19,1,-3,2,-8
1513173233339645,7,10,44,-10,-9,-5,7,-37
1513173233360160,-1,3,-49,-23,3,2,-13,11
1513173233360160,-9,17,10,-2,-5,-13,-18,-17
1513173233362661,-1,-38,1,17,9,6,21,-9
1513173233362661,-3,33,-38,2,-6,-5,-36,17
1513173233375172,0,-32,-1,15,-1,-3,8,19
1513173233375172,-4,-10,1,-32,-12,-1,-8,-17
1513173233377171,6,26,-55,11,5,-3,-14,3
1513173233377171,-15,19,28,-28,-6,-6,4,23
1513173233397741,2,31,71,31,7,6,-2,-12
1513173233397741,-11,-2,-70,-26,-9,-8,-19,13
1513173233399229,19,14,1,19,6,2,-3,-16
1513173233399229,18,-25,-8,17,7,4,13,-4
1513173233420254,8,7,-34,-10,1,0,-4,10
1513173233420254,-28,-37,32,36,9,6,3,16
1513173233421744,11,-14,-18,-18,0,0,1,-5
1513173233421744,6,15,56,7,1,4,9,19
1513173233435253,-6,-36,-36,8,3,1,25,-34
1513173233435253,-2,-27,4,-8,-5,-4,-23,3
1513173233436754,-14,-22,-15,11,7,0,-6,-1
1513173233436754,4,-49,19,16,6,-1,-8,0
1513173233457769,-12,9,46,-48,-11,-5,-3,3
1513173233457769,-23,5,-5,6,6,3,46,-16
1513173233459270,11,14,39,5,1,3,-20,13
1513173233459270,-10,47,15,10,6,5,2,8
1513173233480285,22,-33,-45,21,1,-11,-19,2
1513173233480285,9,-7,-3,-35,-8,-3,15,-17
1513173233481786,-9,0,3,-2,-2,1,9,-1
1513173233481786,-8,-13,-59,11,-6,-6,-31,-30
1513173233494295,-5,5,42,6,1,0,12,11
1513173233494295,14,4,-16,-24,0,-1,-2,2
1513173233501300,-14,37,2,0,4,2,16,10
1513173233501300,16,-11,35,23,5,2,2,26
1513173233517811,1,16,-78,-24,-4,-2,-8,-43
1513173233517811,8,-5,51,15,-2,-2,22,19
1513173233519312,-8,-11,-13,2,-7,-10,-45,-30
1513173233519312,-10,6,48,-26,4,4,-7,-3
1513173233540328,-1,-9,6,3,-10,-7,13,-3
1513173233540328,10,-6,-18,34,6,3,6,13
1513173233541829,-8,-7,-56,-19,-5,2,13,2
1513173233541829,13,-13,9,3,-6,-7,-14,-15
1513173233554850,-1,30,40,0,1,3,23,42
1513173233554850,2,-32,-79,0,2,0,-76,-65
1513173233561342,32,20,53,15,1,-2,12,27
1513173233561342,-12,-7,-30,-29,-13,-4,36,25
1513173233585360,22,52,27,22,8,0,-34,-4
1513173233585360,5,-21,-35,-13,-8,-2,-1,3
1513173233586861,6,10,28,-16,-2,-2,-20,-43
1513173233586861,12,1,13,9,6,3,7,24
1513173233600382,4,-17,-1,5,2,10,26,22
1513173233600382,-6,25,13,13,0,-4,9,-5
1513173233601880,-2,-37,-30,-22,-8,-1,-11,-13
1513173233601880,17,12,-33,-11,-5,-2,-9,1
1513173233614390,-6,-15,-2,0,-6,-7,-20,-20
1513173233614390,5,29,45,5,4,3,1,20
1513173233628914,13,6,15,-15,-6,-4,12,17
1513173233628914,-14,-29,-22,-3,-9,-5,1,-7
1513173233637896,-15,6,-36,-28,-5,0,-20,0
1513173233637896,5,32,13,6,3,-3,-24,-15
1513173233639398,2,-32,-23,-6,-1,3,32,-7
1513173233639398,-9,-16,14,14,2,-3,-15,-28
1513173233660422,-12,-38,-39,6,-1,2,15,12
1513173233660422,-14,16,50,-32,-6,0,7,-7
1513173233661923,-4,15,51,48,15,1,-14,5
1513173233661923,-12,65,31,-3,-3,0,-18,-4
1513173233674922,-20,-99,-87,-16,-8,-3,5,22
1513173233674922,17,10,42,14,-1,0,12,5
1513173233681436,-15,-24,-41,-22,-3,-2,-5,6
1513173233681436,4,9,-9,-1,1,-3,-2,-1
1513173233697942,7,62,49,3,5,-2,-18,-10
1513173233697942,3,-15,16,16,2,3,20,15
1513173233699455,-18,-27,-17,5,-5,-4,-1,0
1513173233699455,4,-4,-24,-19,-2,2,6,21
1513173233720470,5,36,37,15,5,2,-8,-48
1513173233720470,-6,-7,-62,-13,-5,-5,-7,14
1513173233721956,9,-5,16,4,0,3,28,16
1513173233721956,2,6,-37,-3,1,4,6,-27
1513173233734965,-9,-23,2,2,0,0,0,17
1513173233734965,14,41,52,18,9,3,24,16
1513173233741488,-23,-72,-64,-25,-14,-8,-30,-20
1513173233741488,19,28,3,14,6,3,10,15
1513173233758000,2,21,64,21,3,-1,-12,4
1513173233758000,1,-16,-56,-10,-3,-2,-21,-23
1513173233764004,3,44,57,-8,0,9,48,32
1513173233764004,-8,-23,11,11,3,-3,-45,-55
1513173233788003,23,37,28,-7,-7,-5,19,37
1513173233788003,-19,-43,-90,-28,-10,-9,-37,-29
1513173233789503,-2,35,18,15,3,-3,11,16
1513173233789503,13,3,-4,5,1,-1,-2,-19
1513173233794519,5,-14,-5,-24,-4,2,2,21
1513173233794519,-6,14,17,0,0,2,16,16
1513173233801524,-10,-3,-44,-15,-8,-6,-32,-25
1513173233801524,1,-14,44,-6,-3,-6,-5,5
1513173233818025,-14,-28,-5,22,5,1,7,9
1513173233818025,5,12,-6,-7,-3,0,6,3
1513173233819525,-1,-16,34,15,3,-1,-20,-7
1513173233819525,11,28,-50,-25,-10,-5,9,17
1513173233840540,-20,-60,-62,8,1,3,0,-16
1513173233840540,1,21,-16,-35,-10,-5,2,2
1513173233842041,5,45,33,19,5,0,14,21
1513173233842041,-25,-35,-20,-14,-4,-4,-14,-45
1513173233854062,8,10,32,13,-1,-2,5,4
1513173233854062,-8,0,12,8,1,-2,-5,-3
1513173233863055,-5,12,-26,-18,1,1,-7,19
1513173233863055,7,-9,-2,12,1,-2,-21,-25
1513173233877566,9,17,42,-1,-2,-1,-2,-17
1513173233877566,1,-7,-33,-4,-2,1,11,15
1513173233879567,-21,-8,83,-10,-11,-11,-19,-20
1513173233879567,4,-37,-90,-20,-10,-6,10,15
1513173233907600,-1,-12,56,41,22,7,-3,-25
1513173233907600,1,-18,-70,-31,-10,2,27,38
1513173233909603,9,13,15,1,0,-5,-16,-25
1513173233909603,-7,-43,5,-3,-3,3,33,66
1513173233914107,-17,19,6,-11,-9,-8,-36,-76
1513173233914107,-10,-15,27,8,-9,-12,-38,-18
1513173233923098,-10,-10,-41,-4,0,3,15,-8
1513173233923098,0,4,31,9,-2,-1,6,11
1513173233937608,3,20,5,-11,-3,2,18,43
1513173233937608,16,-7,23,16,7,-1,-21,-13
1513173233939609,-12,-3,-29,1,-6,-3,-9,-10
1513173233939609,-6,17,37,17,5,1,-4,-3
1513173233960142,-3,-25,-51,-30,-7,-7,3,-13
1513173233960142,-10,8,48,24,6,6,19,17
1513173233962144,21,-33,-29,3,7,6,-1,9
1513173233962144,-9,10,31,-9,-2,-1,-44,-26
1513173233974646,3,12,-11,18,7,-4,-20,-30
1513173233974646,5,-9,-20,-6,-5,0,25,57
1513173233983152,2,21,-12,-5,1,2,0,-32
1513173233983152,16,33,35,16,5,4,31,13
1513173233997663,-32,-18,-54,-46,-14,-6,-18,-15
1513173233997663,-14,-3,-8,19,8,3,1,-5
1513173233999655,3,-11,33,-1,-7,-5,-15,-17
1513173233999655,-7,3,-18,5,7,2,0,-13
1513173234020167,30,21,3,-7,-2,3,-3,13
1513173234020167,-14,-26,-19,8,-1,1,33,-14
1513173234021667,3,32,68,1,7,6,26,31
1513173234021667,-22,-33,-56,-8,-1,-3,-13,-4
1513173234042682,31,43,64,29,8,5,-4,7
1513173234042682,0,-13,-55,-6,-3,-4,-21,-56
1513173234044183,1,-10,-12,-13,-6,-1,32,53
1513173234044183,17,30,32,-5,-2,-4,-25,-7
1513173234057693,-22,-35,-43,-20,-8,-5,5,1
1513173234057693,-5,14,33,-2,-5,-8,-23,-29
1513173234059194,22,14,19,23,2,-3,1,7
1513173234059194,-14,-36,-14,-18,-3,4,38,0
1513173234080236,6,4,-8,-15,-10,-6,-23,48
1513173234080236,-5,14,33,20,8,3,-7,-17
1513173234081736,-14,2,-42,12,0,-1,4,-15
1513173234081736,22,54,68,13,5,1,-27,19
1513173234093744,-26,-15,-39,-32,1,4,21,-18
1513173234093744,-8,23,31,-16,-7,-2,-1,19
1513173234102782,25,30,20,6,1,-1,0,11
1513173234102782,-29,-41,-84,-20,-12,-7,-30,-30
1513173234117803,-3,-21,-16,7,-1,1,38,23
1513173234117803,19,-26,6,32,7,0,-52,-27
1513173234119304,-8,2,-5,-63,-13,-5,-8,-5
1513173234119304,-11,-14,-19,16,3,-2,17,6
1513173234140308,-5,-34,13,17,2,1,8,-1
1513173234140308,24,28,13,-14,-5,0,9,7
1513173234141809,-21,-32,-18,11,0,-6,-19,-29
1513173234141809,0,-7,1,-27,-9,-1,13,17
1513173234153818,9,-11,-72,-6,2,5,1,-11
1513173234153818,-19,-41,35,24,6,0,6,24
1513173234162822,-15,-2,-61,-57,-15,-3,-4,13
1513173234162822,1,23,20,12,3,-2,-7,-31
1513173234185348,2,-4,5,15,-3,-5,2,35
1513173234185348,0,24,2,-20,-3,0,-10,-35
1513173234186840,-6,-7,-21,15,1,-2,7,-14
1513173234186840,-1,-19,54,7,-1,-3,-3,10
1513173234200360,13,28,-27,-3,-2,-1,16,4
1513173234200360,-16,-1,-17,-4,-3,-3,-10,3
1513173234201850,24,27,12,-11,1,0,-9,-18
1513173234201850,-9,-40,-35,-6,-2,4,55,47
1513173234213898,-15,-6,18,28,7,2,-40,-58
1513173234213898,9,5,34,-20,-5,-1,18,10
1513173234222875,3,25,-47,1,0,2,-5,-13
1513173234222875,-16,-24,5,17,2,-4,21,23
1513173234237876,3,6,7,7,0,-1,-2,6
1513173234237876,-24,2,-45,-41,-11,-5,-1,-9
1513173234239389,-4,-46,-19,15,1,3,13,-1
1513173234239389,34,45,17,7,4,-3,-25,26
1513173234260907,6,28,-7,-6,-5,-3,-1,20
1513173234260907,16,17,19,22,3,-3,-1,-33
1513173234262403,-14,-44,15,-4,2,1,-18,-3
1513173234262403,-4,-5,-46,-17,-10,-6,5,-1
1513173234283409,0,16,47,-2,1,-1,-7,-29
1513173234283409,10,4,-39,11,2,2,24,28
1513173234284911,-14,-51,-18,-10,-5,-1,-16,-2
1513173234284911,0,28,-20,-14,-4,-3,-15,-26
1513173234297435,-10,-14,29,0,-4,-6,1,-3
1513173234297435,20,32,-21,-15,0,7,24,40
1513173234303926,-1,16,21,16,-1,-7,-14,-42
1513173234303926,3,13,42,12,2,3,-2,-1
1513173234320436,-24,-55,-11,-19,-6,-1,32,-15
1513173234320436,13,8,23,3,3,-4,-52,-17
1513173234321937,-8,37,58,-2,-3,-2,0,4
1513173234321937,1,-5,-21,-10,-2,0,-9,-14
1513173234343450,28,16,4,18,0,-8,4,16
1513173234343450,-34,9,-17,-20,-8,-3,3,-26
1513173234344951,9,-23,-4,4,3,1,-11,6
1513173234344951,26,16,50,20,5,0,-3,-14
1513173234357960,-19,-8,19,-4,-2,-1,-7,-3
1513173234357960,5,-23,2,-2,-3,-2,22,12
1513173234359461,6,28,52,46,15,7,13,10
1513173234359461,-19,-45,-69,-34,-9,3,28,34
1513173234380495,16,37,23,-4,-3,0,-35,-9
1513173234380495,-1,-16,-31,3,-1,0,-11,-15
1513173234381987,2,15,79,22,5,2,9,7
1513173234381987,-7,53,-36,-27,-11,-7,12,0
1513173234402496,9,3,-30,5,4,3,-38,-30
1513173234402496,-15,-22,37,-7,1,1,7,7
1513173234404494,11,22,25,15,6,9,20,10
1513173234404494,-26,-62,-87,-27,-10,-8,-18,-9
1513173234417006,1,15,20,4,2,3,9,17
1513173234417006,5,6,-7,3,-4,-4,-4,-6
1513173234424024,25,-17,-47,8,3,-2,-16,-6
1513173234424024,-36,-21,52,44,14,7,6,1
1513173234440520,-3,8,-39,-46,-13,-4,10,1
1513173234440520,9,33,54,36,10,4,11,15
1513173234442020,-20,-38,-46,-29,-10,-8,-7,-3
1513173234442020,8,8,36,16,8,1,-11,-30
1513173234463035,10,9,-12,1,-1,-2,11,9
1513173234463035,7,-19,-57,-7,-2,2,-14,2
1513173234464536,-31,-19,-13,-13,-6,-1,-2,-6
1513173234464536,13,-3,-5,-1,0,-2,1,3
1513173234477066,-20,-2,27,-1,-1,-3,3,-16
1513173234477066,33,-8,-4,2,-3,-2,-15,-27
1513173234485563,-3,-15,-49,-24,-10,-10,7,18
1513173234485563,4,15,24,-17,-4,1,-27,-22
1513173234500561,-2,-28,-26,15,2,-1,8,33
1513173234500561,-10,-8,23,2,1,-3,1,-1
1513173234502072,2,-47,-57,-5,-2,-1,-2,-11
1513173234502072,20,32,10,4,3,6,11,12
1513173234522576,-9,12,42,11,2,0,4,5
1513173234522576,-4,-22,-56,-23,-8,-3,-4,0
1513173234524578,-14,17,15,3,3,0,20,10
1513173234524578,14,10,-23,-5,-4,-4,-10,-10
1513173234537087,-1,-7,24,24,5,6,-5,-3
1513173234537087,-2,13,43,-1,8,8,17,24
1513173234544092,-2,-18,-49,-11,-9,-9,-25,13
1513173234544092,0,-2,-9,0,-2,-3,-3,-23
1513173234560103,-1,17,3,11,1,-3,-4,-3
1513173234560103,1,-3,60,-9,-3,2,14,5
1513173234562105,-8,30,-28,4,2,2,19,18
1513173234562105,-1,1,10,-2,-4,-6,-20,-17
1513173234583119,8,-4,-17,2,0,2,10,3
1513173234583119,-2,11,-12,-1,-1,2,12,-2
1513173234584630,-5,-13,42,-10,-5,-2,-7,-2
1513173234584630,-5,11,58,17,3,-2,12,8
1513173234597131,-6,-10,-17,-20,-2,5,27,32
1513173234597131,-14,-3,-21,14,0,-4,-32,-36
1513173234604134,12,27,14,-2,-2,3,4,-4
1513173234604134,-14,-27,17,1,2,-1,-9,-4
1513173234620146,-12,8,-61,-20,-7,-9,0,6
1513173234620146,-8,-26,-23,-2,-1,1,3,9
1513173234622147,4,19,3,25,4,0,23,-9
1513173234622147,-1,-12,-4,-23,-4,-1,-24,17
1513173234643663,9,-14,4,-3,-2,-3,-2,-16
1513173234643663,-17,16,14,-11,-11,-11,-2,-1
1513173234645166,1,-19,-4,-3,2,8,21,13
1513173234645166,6,5,-7,14,3,-2,-6,-45
1513173234657172,1,12,50,11,1,-2,-2,-1
1513173234657172,9,-1,-23,7,2,-2,-5,4
1513173234664177,-11,-25,-5,-8,-3,-1,-23,-19
1513173234664177,5,46,2,-8,0,2,25,27
1513173234680248,19,-13,-30,7,3,5,-12,3
1513173234680248,-2,0,45,4,0,-4,18,2
1513173234682190,9,17,1,-13,-1,-3,-29,-4
1513173234682190,-3,-10,-31,-8,-4,0,34,-3
1513173234702714,8,13,36,12,8,2,-12,2
1513173234702714,-11,3,18,-7,-7,-7,-6,-16
1513173234704206,6,9,-25,-13,-9,-8,-16,-1
1513173234704206,-2,-27,48,35,9,5,-5,1
1513173234717215,-16,35,-9,-26,-10,-7,10,11
1513173234717215,6,-17,-4,8,3,1,-35,-22
1513173234723720,21,15,11,-7,-1,-2,2,5
1513173234723720,-23,-65,21,7,-1,-1,8,4
1513173234740244,-11,-2,-27,2,1,-2,-19,-4
1513173234740244,-1,-14,-34,-4,1,5,0,-27
1513173234741732,14,24,47,16,7,3,10,2
1513173234741732,-3,-14,-37,-9,-4,-3,2,1
1513173234763262,16,6,17,12,6,4,8,6
1513173234763262,-14,-26,-34,-22,-8,-4,-15,15
1513173234765749,-10,-6,1,8,-3,-5,-6,-39
1513173234765749,15,31,8,-8,-1,2,-6,9
1513173234785263,-11,-36,-33,2,-2,-5,4,-6
1513173234785263,5,9,29,17,3,-3,-14,23
1513173234786764,-16,-32,7,-16,-3,0,0,-7
1513173234786764,-11,26,-76,-21,-8,-1,6,33
1513173234800786,4,1,3,4,-2,-7,-51,-36
1513173234800786,0,-9,-15,5,-4,-4,18,43
1513173234802275,6,5,10,-4,2,-3,-36,5
1513173234802275,-6,-3,-9,6,3,6,43,31
1513173234830310,5,-1,6,-12,-4,-5,-44,-28
1513173234830310,-12,8,4,-1,1,1,-5,-11
1513173234832797,-12,-20,46,12,0,1,9,-14
1513173234832797,17,41,15,-7,-1,-6,-10,29
1513173234836299,-11,-24,-47,-42,-13,-5,-18,-21
1513173234836299,32,41,33,-12,-3,-2,16,21
1513173234845305,-13,-1,23,10,0,-5,-15,-21
1513173234845305,-15,-34,-5,10,0,-2,-37,-45
1513173234860326,-4,3,1,2,-3,6,44,16
1513173234860326,-7,6,34,7,3,1,15,12
1513173234861827,0,-14,-72,-25,-12,-9,1,2
1513173234861827,-4,-30,49,15,4,3,18,-7
1513173234883835,9,51,29,2,0,-2,1,12
1513173234883835,12,11,-40,-10,-9,-7,-9,-9
1513173234884833,4,-2,-12,18,3,-3,18,27
1513173234884833,-1,15,17,-11,-1,-2,-7,-6
1513173234896341,13,1,14,9,-1,1,-3,-22
1513173234896341,-11,5,2,-24,-9,-5,5,-15
1513173234905347,5,-2,-77,9,2,2,-1,-6
1513173234905347,10,14,43,5,-1,-2,8,27
1513173234920368,-20,-33,11,-1,-2,-1,-6,-32
1513173234920368,-15,4,43,5,1,4,6,-6
1513173234921869,7,-4,-65,-3,1,-2,0,8
1513173234921869,4,0,-5,-21,-9,-4,1,1
1513173234942874,14,-19,-9,17,2,-2,-7,14
1513173234942874,-30,-39,0,-8,1,2,10,-13
1513173234944375,9,37,76,17,6,7,3,13
1513173234944375,3,-32,-7,-1,-2,1,10,8
1513173234956383,9,11,-11,-3,1,-3,-23,-3
1513173234956383,10,-5,-20,10,4,2,-11,-6
1513173234965390,-8,7,13,-15,-3,1,22,26
1513173234965390,7,18,0,23,4,-4,-47,-40
1513173234979900,-1,6,-2,-22,-6,-2,16,-4
1513173234979900,-24,-39,-34,0,3,1,7,7
1513173234987906,-7,10,35,2,-5,-6,-14,-21
1513173234987906,-2,-58,-49,-15,-5,-1,27,23
1513173235002916,-3,29,24,-5,-1,-1,-24,-15
1513173235002916,16,29,16,7,3,0,23,22
1513173235004417,-13,-31,-35,-2,0,1,-11,-25
1513173235004417,-20,35,50,22,3,-1,-4,-17
1513173235016426,-4,11,-11,-8,-11,-4,-4,2
1513173235016426,-6,-36,-12,-17,-1,-5,1,-2
1513173235025432,13,14,-11,-4,-3,-2,-4,-3
1513173235025432,-30,-7,2,-13,-5,-5,-6,-25
1513173235040445,-5,-12,15,21,7,4,16,12
1513173235040445,4,1,-32,4,-3,-1,-3,1
1513173235041948,3,8,6,-4,-1,-3,-11,-7
1513173235041948,4,-9,-20,-13,-1,-1,-9,13
1513173235062959,-7,19,9,20,1,-5,-13,-34
1513173235062959,4,-27,-17,-6,-4,-1,15,0
1513173235064464,6,25,27,-9,3,2,3,20
1513173235064464,-3,12,0,11,-1,4,15,-1
1513173235076469,4,-17,11,-2,0,-1,16,30
1513173235076469,-5,-18,29,8,4,4,3,15
1513173235085489,2,-4,-92,-20,-8,-4,-6,-14
1513173235085489,-1,-34,-23,-12,-3,-3,5,13
1513173235108005,15,13,9,3,4,4,13,5
1513173235108005,-14,-43,-12,-3,-5,-7,-21,-9
1513173235109492,-7,-9,33,20,4,2,22,40
1513173235109492,15,31,-9,11,0,-5,-35,-30
1513173235122503,-7,-11,-34,-40,-11,-5,4,4
1513173235122503,3,13,-2,4,0,2,-4,-5
1513173235124504,-13,-52,-47,6,1,-1,-12,-13
1513173235124504,12,17,15,-5,-4,-1,14,14
1513173235136513,0,-2,-42,7,4,1,-1,-4
1513173235136513,-30,-20,58,12,6,5,19,19
1513173235145538,9,21,-19,-27,-13,-10,-59,-44
1513173235145538,10,41,7,12,3,2,2,1
1513173235160548,-1,-34,72,21,4,1,6,13
1513173235160548,11,39,-66,-36,-10,-5,-11,-11
1513173235162043,-5,18,13,16,7,5,21,0
1513173235162043,-8,-39,-2,13,8,3,12,-5
1513173235183043,-11,-3,-3,-18,-7,-4,-37,-1
1513173235183043,16,12,6,9,0,-1,0,-1
1513173235184545,-9,-31,2,6,3,2,2,19
1513173235184545,14,16,7,-19,-5,-5,-17,-29
1513173235205059,1,5,-4,-1,1,2,37,14
1513173235205059,-6,-3,-18,18,0,1,2,17
1513173235207061,6,8,31,-4,-2,1,-18,-45
1513173235207061,-4,-9,0,2,0,3,1,17
1513173235227578,-11,6,-21,-1,-4,0,10,-4
1513173235227578,18,20,-7,-13,-1,-3,-17,-27
1513173235229076,-17,-7,13,1,-1,-1,0,17
1513173235229076,9,13,3,0,0,0,0,2
1513173235242586,-16,-8,-3,-17,-8,-4,4,-7
1513173235242586,10,-11,-9,14,1,1,14,17
1513173235244587,2,22,66,-8,1,-2,0,5
1513173235244587,-1,-7,-62,-13,-8,-4,-1,4
1513173235265112,5,9,-10,1,2,2,-1,-4
1513173235265112,0,-33,15,1,0,-5,-10,5
1513173235267104,0,13,4,15,-1,-2,-10,-32
1513173235267104,5,7,3,-20,-3,1,9,6
1513173235280114,-26,-44,10,-1,0,-4,4,-1
1513173235280114,-2,2,17,5,-1,-3,3,-6
1513173235282114,-4,11,14,7,-3,-1,2,5
1513173235282114,8,16,-2,-1,1,1,-7,1
1513173235302642,3,-17,-13,7,-1,-2,1,7
1513173235302642,-15,3,10,-18,-4,2,10,27
1513173235304629,-3,-13,-37,-13,-3,-3,-4,-16
1513173235304629,0,-2,-10,12,1,-4,-31,-11
1513173235325160,-2,-18,-38,-8,-3,-3,-3,3
1513173235325160,-1,13,8,8,1,0,22,4
1513173235326655,8,-20,-8,1,1,1,-4,23
1513173235326655,-5,13,12,10,-7,-7,-21,-12
1513173235339154,-9,-16,12,-21,0,0,-12,-26
1513173235339154,6,13,-75,-18,-5,-2,-9,-24
1513173235347669,-4,15,36,-3,-4,-4,27,28
1513173235347669,1,-4,13,3,0,1,-3,17
1513173235362670,9,8,-16,1,-4,-4,2,11
1513173235362670,-13,46,35,4,2,-1,-2,-27
1513173235364171,15,-13,3,-4,-4,-7,-17,25
1513173235364171,-7,-53,-63,-8,-2,-1,2,-8
1513173235385187,-6,41,53,10,1,0,2,4
1513173235385187,8,-3,30,13,0,0,-8,-6
1513173235386688,-3,-2,-8,-6,0,-2,7,-4
1513173235386688,8,22,27,-5,1,1,8,9
1513173235399703,-5,-27,-10,-5,1,4,-15,-6
1513173235399703,-11,-23,-53,-12,-10,-9,-6,-11
1513173235406201,-6,-2,18,7,7,6,1,-13
1513173235406201,-2,-5,23,11,1,2,9,-4
1513173235422731,1,-9,-32,-5,-1,1,15,20
1513173235422731,5,20,26,9,4,6,2,-1
1513173235424231,-3,-17,-35,11,-2,1,26,22
1513173235424231,-5,-6,10,-39,-6,-7,-44,-40
1513173235445757,-3,3,8,18,7,4,24,-8
1513173235445757,-14,3,-41,-13,-4,-4,-46,3
1513173235447248,7,0,8,-6,-3,-2,-8,-10
1513173235447248,1,0,-42,8,4,4,25,4
1513173235459758,-10,-13,-4,3,1,-3,-9,1
1513173235459758,16,12,2,-10,-2,-1,-2,4
1513173235466263,-2,9,14,-5,3,1,7,-3
1513173235466263,6,4,17,12,3,1,-1,5
1513173235482781,-1,30,24,-2,-3,-4,-8,-19
1513173235482781,3,-16,13,3,1,2,10,7
1513173235484258,-1,7,-8,-1,2,-1,26,14
1513173235484258,-1,1,11,-5,2,3,-13,-10
1513173235505281,4,-10,-22,5,2,1,3,3
1513173235505281,-7,-4,-10,-1,-3,-4,-5,-11
1513173235506782,5,12,23,17,3,2,-7,-4
1513173235506782,-17,-27,-23,-6,-10,-8,9,2
1513173235519781,8,15,9,-4,-1,2,19,27
1513173235519781,4,8,18,5,0,-3,-20,-40
1513173235526289,6,-16,16,-17,-4,1,5,16
1513173235526289,-2,-10,12,22,6,2,7,-9
1513173235542816,3,28,-29,-4,-6,-6,-7,-2
1513173235542816,-10,-23,-16,-5,3,1,19,1
1513173235544299,7,12,8,7,0,-1,1,-5
1513173235544299,-9,22,4,-6,0,0,5,3
1513173235565314,2,-38,-6,5,-1,-2,13,14
1513173235565314,-8,1,-9,6,2,1,-9,-34
1513173235566815,-18,-14,-5,-7,-8,-10,-29,-24
1513173235566815,3,13,-16,-9,-7,-7,-17,3
1513173235587329,7,1,-5,-6,-2,1,1,-2
1513173235587329,0,4,16,-1,0,0,6,18
1513173235593834,1,12,43,15,3,1,-3,3
1513173235593834,-3,-17,-35,-18,-6,-5,7,-5
1513173235602840,1,0,0,-3,-1,-1,-5,0
1513173235602840,4,-7,-7,-3,-1,-1,-4,6
1513173235604341,-2,6,-8,-2,-2,1,6,-6
1513173235604341,2,4,15,6,2,1,3,7
1513173235625356,-3,-8,-1,0,-1,-1,-7,-9
1513173235625356,-4,-1,18,-4,-4,-3,-3,0
1513173235626860,-6,-17,-24,-1,-2,-1,-3,-3
1513173235626860,5,-7,1,0,-1,0,5,8
1513173235639367,3,3,8,-5,-1,-2,-10,-5
1513173235639367,-2,-3,-2,1,-1,-1,-2,-3
1513173235646383,-2,-6,-18,4,1,-1,3,2
1513173235646383,3,2,-1,-9,1,3,4,5
1513173235662894,4,2,15,1,-2,0,0,0
1513173235662894,-1,-1,3,3,-1,0,-1,3
1513173235664386,-1,-4,-12,-2,2,3,3,-2
1513173235664386,-1,-1,2,-1,-4,-2,1,4
1513173235685408,-4,-1,-3,4,-1,0,-7,-12
1513173235685408,11,-1,5,-2,-1,1,1,0
1513173235686909,-2,-3,-6,-8,-1,0,6,14
1513173235686909,5,3,10,4,1,-1,4,3
1513173235698918,4,-5,-4,-4,-3,-4,-14,-3
1513173235698918,-5,-8,-12,-1,0,-2,-1,-4
1513173235707914,-1,5,-13,-11,-1,-1,-3,-7
1513173235707914,0,-1,3,5,1,-1,1,1
1513173235722963,-1,-4,-12,-3,-2,-3,0,-2
1513173235722963,-7,-11,-4,-4,-3,-3,-3,1
1513173235724442,-2,0,-8,-4,-2,-2,-5,-4
1513173235724442,-2,6,6,7,-1,0,1,2
1513173235745480,1,8,31,6,6,2,1,-2
1513173235745480,3,-10,-7,-6,-6,-3,-1,2
1513173235747944,-6,-3,-13,-7,-4,-2,-4,-6
1513173235747944,-3,-7,-13,-2,0,-1,0,0
1513173235758951,0,6,2,0,-4,-2,-1,-4
1513173235758951,5,11,14,0,-3,-1,2,3
1513173235767957,1,0,-8,1,0,-2,-2,-3
1513173235767957,0,-6,6,-6,-3,1,-2,-1
1513173235782968,-3,3,10,3,1,0,0,-4
1513173235782968,1,-6,-15,2,0,0,-1,4
1513173235784469,-4,-1,0,-4,0,-2,-5,-6
1513173235784469,3,1,0,0,-1,-3,-1,-2
1513173235805484,-3,-11,-1,5,-2,0,7,7
1513173235805484,-1,19,20,-1,-1,-3,-6,-2
1513173235806985,1,-15,-5,2,-1,0,0,1
1513173235806985,-6,-2,-4,-2,-1,-1,-3,-4
1513173235818993,3,-3,-4,-5,0,-2,-3,-4
1513173235818993,1,-4,-1,5,3,1,15,14
1513173235828009,-2,-2,-26,-6,-3,-1,-9,-11
1513173235828009,2,9,15,6,1,-1,-5,-1
1513173235843011,-3,-2,-8,-7,-4,-3,-1,-4
1513173235843011,-5,-6,5,1,-1,-3,-5,-12
1513173235844511,6,4,1,-3,0,2,12,18
1513173235844511,-1,-7,-22,-6,-4,-2,-1,-1
1513173235865526,-5,-5,8,-1,-2,-2,-4,0
1513173235865526,-2,4,-4,-9,-6,0,-2,-4
1513173235867027,-3,-2,8,1,1,-1,1,-3
1513173235867027,0,-8,2,1,-2,0,-4,-2
1513173235879036,-4,10,5,5,1,2,0,-1
1513173235879036,2,-4,-1,-2,0,-2,-3,-2
1513173235888043,1,0,-13,1,-1,-2,-5,-6
1513173235888043,-3,9,3,-3,-1,2,6,9
1513173235902564,-1,-17,-9,-2,-1,-2,0,-3
1513173235902564,1,-1,-1,1,-1,-1,-2,-1
1513173235904066,-2,3,6,2,1,1,-2,-3
1513173235904066,-2,0,1,-2,-2,-1,-2,-5
1513173235925083,-2,0,-1,-2,-3,0,-1,-5
1513173235925083,-1,2,-8,0,0,1,4,1
1513173235927073,-1,-6,5,1,-3,-6,-11,0
1513173235927073,0,-2,-12,-1,-2,-1,7,0
1513173235939078,-3,0,13,-1,-1,-1,-21,-9
1513173235939078,0,0,-4,0,-1,0,0,-5
1513173235948097,-3,2,5,-1,-2,-2,3,3
1513173235948097,-2,0,8,2,-2,-3,-2,1
1513173235963096,0,2,-15,-7,-3,-1,5,3
1513173235963096,-1,-1,0,-2,0,0,-3,-1
1513173235965113,-2,-7,0,0,-2,-1,0,0
1513173235965113,1,-1,1,2,0,0,-4,-4
1513173235985112,-5,4,31,8,1,0,3,1
1513173235985112,-4,-8,-49,-8,-4,-3,-4,-2
1513173235987113,-2,-4,-2,-6,-3,0,2,-1
1513173235987113,-2,-4,8,-2,-1,-3,-3,-3
1513173236007639,1,-1,5,0,-1,0,1,3
1513173236007639,-1,3,-1,4,1,-1,-1,-1
1513173236009628,-4,-13,-9,0,-4,-2,-2,-3
1513173236009628,-4,22,-9,-4,-1,0,-3,-4
1513173236022637,-2,-9,-7,-3,-3,-3,-3,-6
1513173236022637,2,5,2,1,-2,0,-3,2
1513173236024639,-2,-9,2,-3,-1,2,3,-3
1513173236024639,-1,2,7,-1,-2,-2,-4,-4
1513173236045153,0,1,-17,-2,0,-1,2,2
1513173236045153,-1,5,18,-1,-1,-2,-2,-2
1513173236047155,0,2,0,-1,0,-3,-3,-2
1513173236047155,-1,-10,-5,-2,-2,0,0,1
1513173236069171,-2,0,-5,2,-1,-3,1,-1
1513173236069171,-3,-6,4,0,-1,-1,0,-3
1513173236070672,0,4,0,-1,0,0,0,1
1513173236070672,-3,-6,0,-1,1,-1,-1,-2
1513173236082180,2,0,-10,2,3,0,0,2
1513173236082180,-2,0,17,-2,0,-1,-1,-2
1513173236096189,-1,2,-4,0,-1,-2,-2,-2
1513173236096189,3,-3,-8,1,-2,-2,0,0
1513173236105196,-2,1,17,-4,-4,-3,-1,-2
1513173236105196,-2,-7,-27,-7,-1,0,-3,-2
1513173236106696,-2,1,4,0,1,-1,1,2
1513173236106696,-2,-6,2,2,0,1,0,-1
1513173236118706,-1,2,-10,-7,-4,-2,-2,-1
1513173236118706,0,1,3,6,3,0,1,0
1513173236127711,-3,-1,8,-2,-2,-2,0,-1
1513173236127711,-2,-2,-9,1,-1,0,-2,0
1513173236142735,1,0,0,5,1,0,1,-1
1513173236142735,-2,-4,7,-3,-3,-2,-2,-1
1513173236144236,3,1,-12,-3,-1,0,-2,1
1513173236144236,2,0,9,0,1,-1,1,1
1513173236164247,-5,1,-6,4,0,-1,-2,-2
1513173236164247,1,-2,-4,-1,-2,-3,-1,3
1513173236172744,-1,2,5,-6,-3,-2,-1,-1
1513173236172744,-3,0,12,3,-1,-2,-2,-3
1513173236187754,-1,-5,-26,2,2,0,1,0
1513173236187754,-2,2,0,-4,-3,-1,0,-1
1513173236189255,-1,-4,-7,-1,1,0,0,0
1513173236189255,-1,-1,5,2,1,-1,0,1
1513173236202777,-3,-1,-1,-2,0,-1,-2,-3
1513173236202777,0,3,12,3,-1,-1,0,-1
1513173236204278,0,-6,-23,-9,-4,-2,-3,-3
1513173236204278,-3,-2,1,-3,-1,-2,-2,-2
1513173236225781,1,-1,2,-1,0,0,-2,-2
1513173236225781,-2,0,-2,-2,-2,-2,-1,-2
1513173236227282,2,0,2,-1,-4,0,-1,1
1513173236227282,-1,0,4,-5,0,0,2,0
1513173236247796,-1,0,1,7,4,1,0,0
1513173236247796,-1,-1,0,3,1,0,0,-2
1513173236249298,0,0,2,2,-2,-2,0,-1
1513173236249298,-1,-2,-10,-5,4,1,-2,-2
1513173236262807,-2,-2,3,-5,-6,-7,-2,-1
1513173236262807,-2,1,-2,5,7,0,-1,-2
1513173236264312,0,2,0,0,-2,0,0,0
1513173236264312,-1,-1,-3,-1,-3,-3,-1,-1
1513173236292849,-2,-3,-14,-6,-2,-3,-1,-3
1513173236292849,-2,-1,-5,-2,-3,-3,-1,-2
1513173236294330,0,0,-1,-2,-1,-2,-1,-1
1513173236294330,2,-2,-6,-4,-3,0,-1,-1
1513173236315357,-1,1,3,0,-2,2,-2,0
1513173236315357,-2,-4,-2,-3,-3,-2,-1,-1
1513173236316846,-2,0,4,-1,0,-1,0,-2
1513173236316846,-2,2,2,1,-3,-3,-1,-1
1513173236321849,-3,-2,2,-2,-2,-3,0,-1
1513173236321849,-1,-1,0,-3,-3,-1,-3,-1
1513173236328854,0,0,2,0,0,-2,0,0
1513173236328854,-2,-3,-5,-4,-1,-1,-2,-2
1513173236345375,-1,-5,-1,-2,-3,-1,-1,-1
1513173236345375,-2,0,3,0,-2,1,-2,-1
1513173236346877,1,0,-11,-1,-3,-1,-2,-1
1513173236346877,-1,-2,-4,3,-1,-2,-1,1
1513173236375396,-2,1,2,-6,-1,0,0,0
1513173236375396,0,-2,0,-2,1,0,-2,-1
1513173236376904,-1,-3,4,1,1,-2,0,-1
1513173236376904,-1,-3,-3,-6,-6,-3,-1,0
1513173236381894,0,0,0,2,0,-2,-2,-3
1513173236381894,0,-2,0,4,0,-1,0,-1
1513173236388897,0,-1,-3,0,0,0,0,1
1513173236388897,-1,-1,0,-2,-1,-3,-2,-1
1513173236405420,-2,-3,0,-4,-1,0,-2,0
1513173236405420,-1,-1,-3,-3,-2,-2,-1,-2
1513173236406920,-1,0,-1,-1,0,-1,-1,-1
1513173236406920,-1,-2,-5,0,1,-2,0,-2
1513173236427940,-3,-1,6,-3,-3,-2,0,-3
1513173236427940,0,-1,-2,-1,1,1,0,-1
1513173236429440,-2,-2,0,-2,-3,-1,-1,-1
1513173236429440,-2,-2,-2,1,0,-1,-1,-1
1513173236442445,-1,0,-2,-1,-2,-1,-2,-1
1513173236442445,0,2,-3,-3,-2,-2,-1,-2
1513173236448951,-3,-1,4,2,1,2,-1,0
1513173236448951,-1,-2,-1,2,0,-1,1,-1
1513173236465465,0,-1,-3,-3,-1,-2,-1,0
1513173236465465,-6,-2,2,0,-2,-2,2,-1
1513173236467952,-2,1,-1,-1,-1,0,-4,-1
1513173236467952,-2,-1,0,0,-1,-1,-2,-1
1513173236487987,0,-1,-1,-2,0,0,0,-2
1513173236487987,2,0,-1,-2,-2,-2,-1,-2
1513173236489477,-1,-2,0,0,0,0,0,0
1513173236489477,0,-1,0,-2,-1,0,-2,-2
1513173236501995,-1,-3,-3,-2,-1,-1,-1,-2
1513173236501995,-1,-2,-2,-2,-2,-1,-1,0
1513173236516486,-2,0,-1,-2,0,-3,-2,0
1513173236516486,1,-1,-1,-1,-2,0,1,2
1513173236525503,-3,-1,-2,0,0,-1,0,-2
1513173236525503,-2,-4,-1,-1,-1,-1,-2,0
1513173236526997,-2,-1,-1,-1,-1,-2,-1,-1
1513173236526997,-2,-1,-1,-1,0,0,-3,-2
1513173236547521,0,0,-2,-1,-1,0,-1,1
1513173236547521,-1,-1,0,-2,-2,0,0,-2
1513173236549510,-1,-2,-1,-2,0,-3,-1,-1
1513173236549510,0,0,0,-1,-1,0,0,0
1513173236562020,-4,-4,0,-2,-1,-1,0,-2
1513173236562020,-1,0,0,-1,-1,-3,-2,-1
1513173236569026,-1,1,0,-1,-1,1,0,0
1513173236569026,0,-2,-1,-1,-2,-2,-1,-2
1513173236585535,-1,0,0,-1,0,1,-1,1
1513173236585535,-1,0,-3,-2,-3,-3,-2,-2
1513173236587036,-3,-3,0,-2,-1,0,-1,-2
1513173236587036,-2,0,-2,0,-1,-3,-2,-2
1513173236607551,-2,0,-4,2,-2,-1,-1,-3
1513173236607551,-1,0,-2,-1,-1,0,-1,0
1513173236609552,0,-2,-1,0,1,0,-1,-1
1513173236609552,-1,0,-1,-2,-1,-1,-1,0
1513173236622073,-1,-1,-2,-1,-1,-1,-2,0
1513173236622073,-1,-2,0,-2,1,-2,0,-2
1513173236629076,-1,-1,-3,-1,-1,-1,1,-1
1513173236629076,-1,-2,-1,-2,0,1,0,-1
1513173236645077,0,-2,-1,-2,0,-3,-1,-3
1513173236645077,0,-2,-2,-2,-1,1,0,0
1513173236646578,-1,1,-2,0,-2,0,-1,2
1513173236646578,0,-1,0,-2,-1,1,-2,-1
1513173236668094,-3,0,-1,-1,-2,-2,-1,-1
1513173236668094,-3,-5,-1,0,-1,0,0,-2
1513173236669594,-1,-2,-1,-1,-1,-2,-1,-2
1513173236669594,-1,0,-1,-1,-2,-1,-2,0
1513173236681104,0,-1,-1,-2,-3,-1,0,-1
1513173236681104,-1,-1,-1,-2,-1,-2,-1,0
1513173236698116,1,0,-1,-1,-2,0,-1,0
1513173236698116,-4,-2,0,0,1,2,0,-3
1513173236705129,-2,-1,-1,-3,-1,-2,-1,-1
1513173236705129,0,-1,0,-2,0,-2,-1,-2
1513173236706631,-2,0,-3,0,-1,-2,-1,-1
1513173236706631,0,0,-5,-2,-3,-1,-1,-3
1513173236727659,-2,-2,-2,-1,-2,-2,-1,0
1513173236727659,0,-2,-1,0,-1,1,-1,-1
1513173236729160,-1,-3,-1,-2,-2,-1,-1,-1
1513173236729160,-1,-2,-1,0,0,-1,0,2
1513173236741645,-2,-2,-1,-2,-1,0,-2,0
1513173236741645,-3,-1,0,0,-1,0,0,-2
1513173236750653,0,-2,0,0,2,1,-2,-3
1513173236750653,0,1,-2,0,-1,-2,-1,-2
1513173236765162,0,-2,-1,2,-1,-1,-2,-2
1513173236765162,-4,0,-1,-2,-1,1,-1,0
1513173236766663,1,1,-1,-1,-2,-1,0,-2
1513173236766663,-1,0,-1,0,-2,-3,-1,-2
1513173236795183,0,0,0,-3,0,0,-1,-3
1513173236795183,0,0,-1,-1,0,-1,-2,0
1513173236796697,-1,0,0,0,-2,-2,-1,-2
1513173236796697,0,-2,-1,-2,-1,0,-1,0
1513173236801197,0,0,0,0,-1,1,-1,-1
1513173236801197,-2,-3,-2,-1,-1,-2,-1,-2
1513173236810194,-1,-1,-2,-1,0,-2,-1,-1
1513173236810194,-4,-7,1,1,0,-1,-1,1
1513173236825207,-3,-1,-3,0,1,0,-2,0
1513173236825207,1,-2,-3,-2,0,0,-2,1
1513173236826706,-2,-1,1,-1,2,-1,0,1
1513173236826706,1,2,-1,-3,0,-2,0,-3
1513173236848231,-1,-1,-1,-2,-4,-2,0,-1
1513173236848231,-2,-1,1,0,0,-1,-2,-1
1513173236850233,2,0,-3,-1,-1,-2,-2,1
1513173236850233,-4,-1,-1,1,0,0,-3,-2
1513173236877762,-3,-2,-1,-1,-2,0,0,-2
1513173236877762,1,1,-1,-2,-2,0,-1,0
1513173236879261,-3,0,-1,-2,-2,-2,-2,-2
1513173236879261,0,-2,-2,0,0,-2,-1,-1
1513173236885308,-1,-2,0,-1,-1,0,-2,-2
1513173236885308,-3,-1,-2,-1,-2,-2,0,-2
1513173236886809,0,-1,-1,-2,-1,1,1,2
1513173236886809,0,-4,-2,-2,0,0,-1,0
1513173236907823,0,-2,-1,-2,-3,-3,-2,-1
1513173236907823,0,-3,-1,0,1,-1,-1,-1
1513173236909337,-2,-2,0,-2,-1,0,0,-1
1513173236909337,-2,0,-3,-1,-2,-2,-1,0
1513173236937847,-4,-2,-2,0,-1,-1,0,-1
1513173236937847,-1,-1,-3,-2,-2,-1,-1,0
1513173236939358,3,1,-3,-2,-3,0,-2,-2
1513173236939358,-1,-2,1,-2,-2,-1,0,-3
1513173236945363,1,-1,-1,0,1,0,0,-2
1513173236945363,-2,-1,0,0,-2,-1,-1,-3
1513173236946872,-1,-1,-1,-1,-1,0,-1,1
1513173236946872,-1,-1,-1,-1,-2,-1,-2,-1
1513173236967866,0,-1,-1,-1,-1,-1,-2,-3
1513173236967866,-2,0,-1,-1,0,0,0,0
1513173236969367,0,-3,-2,-2,-1,-1,-1,-1
1513173236969367,-1,1,-1,-1,0,0,-1,0
1513173236981379,-2,-1,-3,-1,-1,-1,-1,-1
1513173236981379,0,-1,-1,0,-1,-2,-2,0
1513173236990382,0,0,1,-1,1,0,-1,0
1513173236990382,-2,-1,1,-1,-2,-1,-1,-1
1513173237005392,0,-1,-1,-2,-1,-1,1,-1
1513173237005392,0,1,-1,1,-2,-2,-1,-1
1513173237006905,-3,-2,-1,-1,0,-1,-1,1
1513173237006905,-2,-3,-1,-1,0,-1,-2,-1
1513173237027909,-1,-1,0,0,1,-1,-2,-1
1513173237027909,-1,1,-1,-1,-1,-1,-2,-1
1513173237029413,-1,-2,0,-1,-2,-2,0,-1
1513173237029413,-1,0,-1,0,-2,0,0,0
1513173237041446,0,0,-2,-2,-2,-4,-1,-1
1513173237041446,-1,-4,-1,-1,1,-1,-1,-1
1513173237051436,-1,0,-2,-1,-2,-4,0,-1
1513173237051436,1,-1,-2,-1,-3,0,0,0
1513173237072456,-4,0,-1,-1,-2,-3,-2,-2
1513173237072456,1,-2,-1,-1,-2,0,-1,1
1513173237074452,0,-2,0,1,-1,-2,-1,-1
1513173237074452,-1,-1,0,-1,-1,-2,-1,0
1513173237095034,-2,-1,0,-1,-1,1,-4,-3
1513173237095034,-1,-1,-3,-2,0,1,3,1
1513173237097013,-3,-1,-2,0,-1,5,1,-1
1513173237097013,-3,-1,-1,-1,1,-1,-3,-8
1513173237110044,2,1,1,0,-6,-9,2,4
1513173237110044,0,-1,-1,-2,-1,-1,1,2
1513173237112024,0,-1,-3,-3,-3,-2,-3,-1
1513173237112024,1,-1,-2,0,1,1,2,1
1513173237125045,-4,-4,-2,0,1,2,2,-5
1513173237125045,-6,-3,-1,0,-1,-1,-4,-4
1513173237126534,-4,0,0,2,0,-1,2,0
1513173237126534,-1,-1,0,-2,-1,0,-1,-1
1513173237147549,1,-1,-1,-2,-1,-1,-1,-2
1513173237147549,-1,0,-1,-2,-2,0,0,-1
1513173237149051,1,-2,-1,-1,-2,1,-3,-1
1513173237149051,-2,-3,-2,-1,-2,-2,-2,-2
1513173237170566,-2,-1,0,-1,-1,0,-2,0
1513173237170566,-1,-2,-2,-2,-1,1,0,-1
1513173237172075,0,0,-1,-2,-1,-2,-2,-2
1513173237172075,1,0,0,-3,-4,-2,-2,-2
1513173237184587,0,0,-2,0,0,1,0,1
1513173237184587,0,0,-2,-1,0,-2,-1,-2
1513173237185075,1,0,-2,-1,-2,-1,-1,0
1513173237185075,-2,-1,0,0,-1,-1,-1,0
1513173237207101,-3,-1,0,0,-1,0,-2,-2
1513173237207101,1,0,-2,-1,-2,-2,-2,-3
1513173237207592,1,-1,-1,-1,-1,0,-1,-1
1513173237207592,-1,1,-2,0,-2,-2,-1,1
1513173237229610,0,0,0,-2,-2,-1,-1,-1
1513173237229610,-1,-2,0,0,-2,-2,-1,-1
1513173237230108,-9,-4,3,2,1,0,1,-2
1513173237230108,-1,-5,-1,0,-2,-1,0,-1
1513173237244619,0,-2,-1,-1,-1,-1,-2,-1
1513173237244619,-1,-2,0,-1,-1,-1,-1,-2
1513173237245118,1,-1,-2,-2,0,-2,-1,0
1513173237245118,0,2,0,-1,-1,-2,-2,0
1513173237267146,-2,-2,-1,-1,0,0,1,-2
1513173237267146,-2,-1,-1,-1,-1,-1,0,0
1513173237267647,0,0,-3,-2,-1,-2,-1,-1
1513173237267647,-2,-1,-1,-2,-2,-1,-1,0
1513173237289649,1,-1,-4,-2,-1,-1,-1,0
1513173237289649,0,1,1,0,-1,0,-1,-1
1513173237297155,0,-1,-1,-2,0,-1,-2,-1
1513173237297155,-1,-1,-1,1,-2,-1,-1,-2
1513173237304672,-1,0,-1,-3,1,-1,2,0
1513173237304672,-2,-2,-1,-1,-1,0,-1,0
1513173237305160,-1,-3,-1,1,-1,-1,0,-1
1513173237305160,-1,0,-1,-1,-1,0,-1,-1
1513173237327179,-1,-3,-2,-1,-2,0,-2,-2
1513173237327179,0,-2,-2,-2,-1,-2,-1,-1
1513173237328176,1,1,-1,-3,-1,0,-1,-2
1513173237328176,-1,-1,-2,-2,0,-1,-1,-2
1513173237349692,-2,-2,0,-1,0,-1,0,-3
1513173237349692,0,-1,-2,-1,-2,-2,0,0
1513173237350193,-2,-1,-2,-1,-2,-1,-2,1
1513173237350193,3,-2,-2,-2,-2,-1,-1,0
1513173237364705,-7,-4,3,2,0,-2,-1,-1
1513173237364705,0,0,0,-1,0,-2,-3,-2
1513173237365203,1,0,-1,-2,-1,0,0,1
1513173237365203,-2,-1,0,-2,-2,0,0,-1
1513173237387264,0,-1,-3,-1,-3,-2,-1,-3
1513173237387264,0,1,-2,-1,-1,-1,-3,-1
1513173237387765,-2,-2,-2,-1,-1,-2,0,-1
1513173237387765,0,-2,0,0,-2,-1,1,0
1513173237409779,1,-1,-3,-3,-1,0,-1,0
1513173237409779,-2,-2,-2,-1,-2,-1,-1,1
1513173237410280,0,0,-2,-2,-1,-2,-1,-1
1513173237410280,-2,-1,0,0,0,0,-1,-3
1513173237424790,-2,0,-1,-3,-2,-1,-3,-1
1513173237424790,3,2,-3,-2,-2,-2,-1,1
1513173237425291,-3,-3,-1,0,-1,0,-1,1
1513173237425291,-2,-2,-3,-3,-1,-3,0,-1
1513173237446818,-2,-1,-1,0,0,0,-1,-2
1513173237446818,1,-1,-1,-2,-1,-2,1,-2
1513173237447806,0,1,-1,-1,-1,-2,-2,-1
1513173237447806,0,0,2,0,-2,-2,-2,-2
1513173237477831,-1,-2,-1,-2,-3,0,-2,-1
1513173237477831,-2,-4,1,-1,0,1,-1,-1
1513173237478328,-2,0,-2,-1,-2,-1,-1,-2
1513173237478328,-4,-2,-3,-1,0,-1,-1,-3
1513173237484833,1,1,-1,-1,-2,-2,-2,-2
1513173237484833,1,-1,0,-2,-1,-2,-1,-1
1513173237485333,-1,-3,-1,-2,-1,1,0,1
1513173237485333,0,1,0,-2,-1,-1,-1,0
1513173237515366,0,-2,-2,0,0,-1,-1,-1
1513173237515366,-2,-3,0,0,1,-1,-3,-2
1513173237515855,-1,1,-1,-1,-1,-3,-1,-1
1513173237515855,-3,1,-3,-1,0,-2,0,0
1513173237529367,-2,-1,0,-1,-3,-1,-1,-1
1513173237529367,0,-1,0,0,-2,-1,-2,0
1513173237530366,-2,-2,-1,0,-1,0,-2,-1
1513173237530366,0,-2,-2,1,-1,2,-3,1
1513173237544387,-4,-4,2,0,0,-2,0,-1
1513173237544387,1,0,-4,0,-4,-1,0,0
1513173237545388,1,1,0,0,-2,-2,-1,-1
1513173237545388,-1,-1,-1,-1,0,-1,1,-1
1513173237567391,0,2,-2,-1,-1,-1,-2,-1
1513173237567391,-1,-1,-2,-1,-2,-1,0,-1
1513173237567892,-1,-1,1,-3,-1,0,-1,0
1513173237567892,-3,-1,-2,-1,-1,-2,-2,-1
1513173237589463,2,-2,-1,-1,-2,1,0,-1
1513173237589463,-2,-2,-1,-1,2,1,-1,-2
1513173237590464,1,-1,-1,0,-1,0,-1,-1
1513173237590464,0,-2,-1,-2,-2,-2,-4,0
1513173237605965,-1,1,0,-2,-2,1,-2,0
1513173237605965,-2,-2,-2,0,-2,-1,-1,-1
1513173237606983,0,0,-2,-1,1,-1,0,-2
1513173237606983,-2,1,0,0,-1,-3,-2,-1
1513173237627041,0,0,-1,0,0,-1,1,-2
1513173237627041,0,-1,-1,-1,-2,-1,0,0
1513173237627983,-1,-2,-1,-1,-2,1,-1,-1
1513173237627983,-2,-1,-1,-1,0,-1,0,-1
1513173237649496,1,2,-3,-3,0,-1,-2,-1
1513173237649496,2,-1,-2,-2,0,-2,0,0
1513173237650497,-6,-3,2,0,-2,-1,-1,-1
1513173237650497,0,0,-1,-1,-2,-1,-1,-2
1513173237673026,-2,0,-1,-1,-2,-3,0,0
1513173237673026,0,-1,-2,-1,0,-1,-2,-1
1513173237674026,1,0,-1,0,-2,-3,0,0
1513173237674026,0,-1,-2,0,-2,0,0,-1
1513173237687022,-3,-2,1,-1,-2,-2,-1,-1
1513173237687022,-1,-3,-2,0,0,0,-2,0
1513173237687522,-1,-1,-2,-2,-1,-2,-1,0
1513173237687522,-1,0,0,-1,-1,-1,0,-1
1513173237717544,-4,-3,-1,-1,0,0,-1,-2
1513173237717544,-2,-2,0,0,0,0,-2,-2
1513173237718544,1,-1,-2,-1,-3,-2,-1,0
1513173237718544,-1,-1,-1,-2,-2,0,-2,0
1513173237724066,-1,-2,0,-1,0,0,-2,0
1513173237724066,-1,0,-1,-1,-1,-2,-2,0
1513173237732554,-1,1,-1,0,-1,-2,0,0
1513173237732554,-1,-1,0,-1,-2,-1,0,1
1513173237747065,-2,0,0,-2,-3,-2,0,-2
1513173237747065,-1,-2,-1,-1,0,1,0,-2
1513173237747565,-2,-2,1,0,0,1,0,0
1513173237747565,-1,-1,0,-2,-1,-1,-1,-3
1513173237769580,0,-2,-1,-2,-1,0,-1,-1
1513173237769580,-1,-1,-1,-1,0,-2,-1,-1
1513173237770081,-1,-1,-2,0,-1,-2,0,0
1513173237770081,-1,-1,-3,-1,0,-1,-1,-2
1513173237784091,-2,-2,-2,1,-2,-2,-1,0
1513173237784091,-2,-1,0,-1,-1,-1,-1,-1
1513173237792096,0,-2,-2,0,-1,-2,-3,-2
1513173237792096,-1,-1,0,-1,-1,-1,-2,-1
1513173237807107,1,0,-2,-1,-2,0,-1,-1
1513173237807107,-1,1,-1,-1,-1,-2,-1,1
1513173237807607,0,-2,-1,-1,-2,-1,-1,-1
1513173237807607,-2,-2,-1,0,-3,-2,-2,0
1513173237837629,-1,0,0,-1,1,-1,-1,-2
1513173237837629,0,1,-2,-2,-2,-1,0,-1
1513173237838630,0,-1,-2,0,-1,-2,0,0
1513173237838630,-1,0,-2,0,-1,-1,0,-1
1513173237844133,-1,0,-3,0,0,-2,-1,-3
1513173237844133,-1,-1,-1,0,-2,-1,1,0
1513173237859644,1,1,-1,-3,1,0,1,0
1513173237859644,0,-2,1,-1,0,-1,-1,-1
1513173237867149,0,3,0,-1,-4,-2,-1,-1
1513173237867149,0,-2,-1,-2,0,0,-1,-2
1513173237867650,-2,-2,-2,-1,-1,-1,-3,-1
1513173237867650,0,-2,-1,0,0,-3,1,-2
1513173237906678,-1,-1,-2,-1,-2,1,0,-2
1513173237906678,-2,-1,-1,-2,0,-2,0,-1
1513173237907179,-1,-1,0,-1,0,-1,-1,-1
1513173237907179,2,-1,-3,-2,-1,-1,-1,-2
1513173237908678,-3,-4,-1,1,1,-1,-1,-1
1513173237908678,-1,-1,-1,-1,-4,0,0,0
1513173237912226,1,-1,-2,-2,0,-2,-1,-1
1513173237912226,-2,-2,-1,0,-2,-2,-2,-1
1513173237927221,0,-2,0,-2,0,-1,1,-1
1513173237927221,-1,-1,-2,-1,-2,-2,-1,0
1513173237927722,0,0,0,0,-2,0,-1,-2
1513173237927722,1,1,0,0,0,-1,0,-1
1513173237950740,0,-1,-2,-2,-1,-2,-2,0
1513173237950740,1,0,-3,-1,1,-1,0,0
1513173237951738,-1,-2,0,-2,-2,0,-1,-3
1513173237951738,-3,-2,0,0,-1,-1,-1,-2
1513173237963770,-1,-3,1,-1,-1,1,-2,1
1513173237963770,1,-1,-2,-1,-1,0,-2,0
1513173237972265,-5,-2,-1,0,0,-1,-1,-1
1513173237972265,-1,-1,-1,-1,-2,-1,-3,-2
1513173237986775,-2,-2,-2,-1,-3,-3,2,-2
1513173237986775,-3,-1,-2,-1,1,-2,1,1
1513173237987765,0,0,-3,-2,0,-2,-1,0
1513173237987765,-3,-1,-2,0,-2,-1,0,-2
1513173238025291,-1,-1,-1,1,-1,-3,-2,-1
1513173238025291,-2,-1,0,-2,0,1,-1,-1
1513173238025791,-2,-1,-2,-1,1,0,-1,-2
1513173238025791,-1,-1,0,-2,-1,0,0,0
1513173238032811,-1,0,-2,0,0,1,0,-1
1513173238032811,-2,-1,0,-1,-1,-3,0,-1
1513173238033296,1,-1,-2,0,-1,-1,-2,0
1513173238033296,-2,-1,0,-2,0,0,-3,-1
1513173238046825,-1,0,0,-2,-1,-1,0,0
1513173238046825,0,-3,0,-2,-2,0,0,-3
1513173238047818,2,2,-3,-2,-1,-2,-1,0
1513173238047818,-1,0,-1,-2,-2,-2,-1,1
1513173238069823,-1,-2,0,0,-1,-3,-1,-2
1513173238069823,-1,0,1,0,1,-2,-1,0
1513173238071323,-1,-2,-1,-2,-2,-2,0,1
1513173238071323,-2,-2,-1,0,-1,-1,-1,-2
1513173238092850,0,-1,-1,-1,-1,-2,-2,-1
1513173238092850,3,0,-2,0,-1,-1,-2,1
1513173238093351,-3,0,3,-1,0,1,-1,-1
1513173238093351,-1,-2,0,-2,-1,-1,-1,0
1513173238106868,-1,-2,-2,-1,0,-1,-2,-2
1513173238106868,0,-1,-3,-2,1,0,-1,-1
1513173238107849,1,-1,-2,1,-1,-2,-1,0
1513173238107849,-4,-2,0,-1,0,0,0,-1
1513173238129364,-3,1,-1,-1,0,0,-1,-1
1513173238129364,-3,-1,0,0,-1,-1,-1,-1
1513173238130365,-2,-1,-2,0,-2,1,-1,-1
1513173238130365,1,0,-2,-3,-1,-1,0,-1
1513173238153381,-3,-2,-1,1,0,-2,-1,-1
1513173238153381,-3,0,-1,-1,-3,0,-1,-1
1513173238154382,0,-2,-2,-1,-1,-1,-2,0
1513173238154382,0,0,-1,-2,-3,-1,2,0
1513173238166907,-1,-2,-1,-3,-2,0,-1,-2
1513173238166907,-1,0,-1,0,-2,-1,-2,0
1513173238167896,-1,-1,0,-3,-2,-1,0,-2
1513173238167896,1,4,-4,-1,-2,-2,-3,-2
1513173238189406,-2,-1,-1,-1,0,0,0,-1
1513173238189406,0,-2,-3,-3,-1,-2,-1,-3
1513173238190407,-1,-1,-1,-1,0,-1,0,-1
1513173238190407,-2,-3,0,1,0,-2,0,-1
1513173238212923,-2,-3,-2,-1,-3,1,0,-3
1513173238212923,-2,-2,-1,-3,-2,-1,-4,-1
1513173238213924,-1,-1,-1,-1,-3,-1,0,-2
1513173238213924,-1,-2,0,-2,1,-1,0,-2
1513173238226942,-1,-1,-1,-2,0,-3,-2,1
1513173238226942,-2,-1,-1,1,0,0,0,0
1513173238227933,0,0,-1,-3,0,-3,-1,0
1513173238227933,-1,0,-1,-1,-3,0,-3,0
1513173238257454,-1,0,0,-2,-1,-1,1,-2
1513173238257454,-1,0,1,-2,-1,-2,-1,-1
1513173238258455,0,-2,-1,0,0,0,0,0
1513173238258455,-5,-2,0,0,-1,-2,0,-1
1513173238272467,-2,-1,-2,-1,-1,0,1,0
1513173238272467,3,0,-3,-1,-1,-2,1,1
1513173238273468,-1,-3,-1,0,-1,2,0,-1
1513173238273468,0,-1,-2,-3,-2,-3,-1,-1
1513173238287009,-2,-2,-2,-1,-2,-2,-3,0
1513173238287009,-3,-2,0,-2,0,0,0,0
1513173238288009,0,-1,-1,0,0,-1,1,-1
1513173238288009,0,-1,-1,-2,-3,-2,-1,-1
1513173238309522,0,1,0,-2,-1,-2,-2,0
1513173238309522,1,-1,-2,0,0,-2,0,-2
1513173238310522,-2,-2,-2,-1,0,-1,0,-1
1513173238310522,-2,-3,-2,-1,0,-1,-2,1
1513173238332538,1,0,0,1,-3,0,-2,-1
1513173238332538,-2,-2,0,-2,-1,0,0,1
1513173238333538,-1,1,1,-1,-1,-2,-1,0
1513173238333538,-1,-1,0,-2,0,-1,0,-3
1513173238347051,0,1,1,-1,-2,-1,-1,-2
1513173238347051,-2,-2,-1,0,0,0,-2,-1
1513173238347551,0,-1,-2,0,-3,-2,-1,-1
1513173238347551,0,-1,-2,-1,-1,-1,0,-2
1513173238369564,-3,-3,0,0,2,-1,-2,-4
1513173238369564,-1,2,0,0,-2,-1,-1,0
1513173238370064,-4,-3,0,-1,0,1,-2,-1
1513173238370064,0,-1,0,-1,-1,0,-1,-1
1513173238392589,0,-3,-3,-3,-3,0,-1,-1
1513173238392589,-2,-2,0,-1,0,-1,-2,0
1513173238393581,-1,-1,-3,0,0,-1,-1,0
1513173238393581,-2,0,-1,0,0,0,0,-1
1513173238415105,0,-4,0,0,0,-2,1,-1
1513173238415105,-1,-1,-1,0,0,-2,-2,-1
1513173238416096,-1,0,-1,-2,-1,-3,-2,-1
1513173238416096,-2,-2,-3,-3,-2,0,-3,-2
1513173238429620,-1,0,-3,-1,0,-1,-1,0
1513173238429620,-1,0,-2,0,0,1,0,0
1513173238430106,-1,-1,0,-1,0,-2,-1,-2
1513173238430106,-1,-1,1,-1,-1,-2,0,-1
1513173238452633,0,-1,0,-2,0,-1,-1,0
1513173238452633,0,-1,-1,-1,-1,-3,-1,0
1513173238453634,0,0,-2,-1,-2,-1,-1,0
1513173238453634,-1,0,0,-1,-2,1,-1,-1
1513173238467133,1,0,-1,-1,-2,-1,1,0
1513173238467133,1,-1,-2,-1,-2,0,-1,-2
1513173238467640,0,-1,-1,-2,-1,-3,-1,0
1513173238467640,-2,-3,0,0,0,-1,-3,-2
1513173238489655,-1,-3,-2,-1,-1,0,-1,-1
1513173238489655,0,-1,-3,-2,-1,-1,-1,-1
1513173238490148,1,-1,-1,0,-3,-2,-3,-1
1513173238490148,0,1,-1,0,-2,-1,0,-2
1513173238512703,-3,-1,0,-2,0,-3,-2,-1
1513173238512703,-2,-1,-2,-2,1,0,0,1
1513173238513687,0,-2,-1,-1,-1,0,0,0
1513173238513687,0,-2,-2,-3,-1,0,0,0
1513173238526677,0,-1,0,0,-1,-1,-2,-1
1513173238526677,1,0,1,-1,-2,-1,-1,-2
1513173238527676,-3,0,-1,0,-2,-1,-1,-1
1513173238527676,-2,-2,-1,-1,-1,-1,0,0
1513173238549192,0,1,0,0,0,-3,0,-1
1513173238549192,-1,0,0,-1,-1,-1,-2,0
1513173238550194,-1,-2,-1,-2,-2,-2,0,-2
1513173238550194,-2,-1,0,-2,-1,-1,-2,-3
1513173238573222,-1,-2,-1,0,-2,2,0,-1
1513173238573222,-1,-2,-2,-3,-2,-3,-3,-1
1513173238574218,-3,-2,-2,-1,-1,-2,-1,-1
1513173238574218,0,2,-2,-3,-1,-2,-2,-1
1513173238586726,-2,0,-1,0,-1,0,-1,-2
1513173238586726,-2,0,-1,-1,-1,0,0,-1
1513173238587732,1,0,0,-2,-1,-1,-2,-3
1513173238587732,-3,-2,-2,-1,-2,-1,1,-2
1513173238609244,0,-1,-3,-2,-3,-2,-1,1
1513173238609244,-1,-2,0,2,-1,-1,-1,-2
1513173238610246,0,-1,-1,-2,-2,0,0,1
1513173238610246,1,-1,0,-1,-1,-2,-1,0
1513173238632763,0,-1,-1,-2,-1,-1,-3,-1
1513173238632763,-1,-2,-1,-1,0,-1,-1,1
1513173238633251,-1,-1,-1,-2,-2,0,-1,-1
1513173238633251,-1,-1,1,0,0,-1,0,-2
1513173238646269,-2,-2,-1,-1,-2,0,0,0
1513173238646269,0,0,1,-3,0,-1,-1,0
1513173238654274,-2,-1,-2,-2,0,0,-1,-2
1513173238654274,-2,-2,0,-1,0,0,-3,-1
1513173238669276,-2,0,-2,-1,1,-1,-1,0
1513173238669276,-2,-2,-1,0,0,-1,2,-2
1513173238670286,0,0,-1,0,-1,-1,-1,0
1513173238670286,-1,0,-1,0,-1,-1,-1,-2
1513173238692851,1,0,-2,-3,-2,0,-1,-1
1513173238692851,-1,0,0,0,-2,-1,0,0
1513173238693351,-2,-1,-1,-1,-2,-2,-1,-2
1513173238693351,-1,0,-2,0,-3,-1,-1,-1
1513173238706373,2,1,-2,-2,0,-1,-3,-1
1513173238706373,-1,0,-1,0,-1,-1,0,-1
1513173238714366,-1,-1,-2,0,-2,-1,0,0
1513173238714366,-6,0,2,-1,0,-1,-3,-3
1513173238729380,-2,-2,0,-1,0,-1,1,-2
1513173238729380,1,0,-2,0,-1,-1,-1,0
1513173238730378,-1,-1,0,1,-1,-2,0,-1
1513173238730378,1,-1,-3,0,-3,-1,-1,-1
1513173238768416,-1,-2,-1,-1,-2,-1,-3,-1
1513173238768416,-2,-2,-1,-1,1,0,-3,0
1513173238769405,-1,-1,-3,-1,-1,0,-2,-1
1513173238769405,-3,-2,-2,-3,-2,-2,0,0
1513173238770918,-1,-3,0,2,-2,0,0,-2
1513173238770918,1,-1,-2,-2,-2,0,0,1
1513173238774410,0,-1,1,-1,-1,-1,-1,1
1513173238774410,-2,-2,-2,-1,1,0,2,-1
1513173238789419,-3,-2,0,1,0,-1,0,-1
1513173238789419,-1,2,-2,-1,-2,-2,-3,-1
1513173238790419,0,-3,-1,0,-2,-1,-1,-1
1513173238790419,1,0,-2,-1,-3,-3,-1,0
1513173238812464,-2,0,-2,-1,0,-2,-1,-1
1513173238812464,-1,0,-1,1,1,-1,0,-1
1513173238813436,-3,0,-1,-1,-2,2,-2,0
1513173238813436,0,-3,-1,0,0,0,-1,-2
1513173238826448,-5,0,1,1,-2,-1,0,-2
1513173238826448,-1,-3,-2,-1,0,-1,-1,-1
1513173238834456,-2,0,-2,-1,2,-1,0,0
1513173238834456,1,-2,-1,-2,-2,0,-1,-1
1513173238849465,4,1,-1,-2,-2,1,-1,1
1513173238849465,0,-1,0,-1,-1,-1,1,-1
1513173238850963,-3,-3,-1,0,-1,-2,-2,-2
1513173238850963,0,-1,-3,1,-1,0,-2,-1
1513173238872481,-1,-3,0,-3,0,-1,-2,-2
1513173238872481,0,-1,1,-2,-2,0,0,0
1513173238873479,2,3,-2,-3,-1,-1,0,-2
1513173238873479,-1,-1,0,-2,0,-1,0,0
1513173238886488,0,-1,-1,-1,0,1,-1,0
1513173238886488,-2,-1,-3,-1,0,-2,-1,-1
1513173238894494,-3,-2,2,-1,0,0,0,1
1513173238894494,1,0,0,-1,-2,-2,-2,0
1513173238909516,-1,-1,0,0,0,0,-1,-2
1513173238909516,-3,-1,-3,-3,-2,-2,-1,-1
1513173238910505,-1,-1,-1,-2,-1,-2,-2,-1
1513173238910505,-2,-2,-1,0,-1,-1,-2,-2
1513173238933022,-2,2,-1,0,-1,-3,-2,0
1513173238933022,1,1,0,0,-1,0,-2,-1
1513173238934022,-1,-1,-2,-1,-1,-1,1,-1
1513173238934022,-4,-2,1,-1,0,-1,-3,-4
1513173238946029,1,-1,-2,-2,-2,0,0,0
1513173238946029,0,0,-1,-1,-3,-2,-2,-1
1513173238954536,-1,0,-1,1,-2,-1,-1,0
1513173238954536,0,-1,-3,-2,-1,-1,-1,1
1513173238969547,-1,-3,-3,-2,-2,-2,-1,-3
1513173238969547,0,-1,-2,0,-1,-1,-1,-1
1513173238970048,0,0,-1,-2,-1,0,0,-3
1513173238970048,3,1,-2,-2,-2,-3,0,-1
1513173238992563,1,0,-1,-1,-3,-2,-1,1
1513173238992563,-3,0,0,1,2,0,0,-1
1513173238993563,1,-2,-1,-1,-2,-2,-3,-1
1513173238993563,-2,-1,-2,-1,-2,-2,-1,-2
1513173239015092,-3,-2,0,-1,1,0,0,-2
1513173239015092,1,-2,-1,-1,0,-1,-2,1
1513173239016079,-2,-2,-1,-2,-1,-2,-1,-1
1513173239016079,-2,-2,-1,-1,0,-1,-1,-1
1513173239029592,2,0,-2,-2,0,-1,-2,-1
1513173239029592,-4,-1,0,0,-1,-1,-1,-2
1513173239030090,0,-2,-1,-1,-1,0,-1,-2
1513173239030090,-1,0,1,-1,-1,-1,0,-1
1513173239052605,-3,0,-2,1,-1,0,0,-1
1513173239052605,1,-2,-1,-1,-3,-3,0,0
1513173239053605,-1,-1,0,0,0,-1,0,0
1513173239053605,-1,-1,-2,-2,-3,-1,-1,0
1513173239075124,-1,-3,-2,-1,0,-3,-1,-1
1513173239075124,-2,-2,0,-2,0,-1,0,0
1513173239075622,-3,-1,-1,-1,-1,-2,-2,-2
1513173239075622,-1,-1,0,-1,-1,0,0,1
1513173239089631,-1,-1,-2,-1,-3,-3,-3,-1
1513173239089631,-2,0,-1,-1,-2,-1,0,0
1513173239090132,-3,-2,0,-1,0,-1,-1,-1
1513173239090132,-2,-3,-1,-1,1,0,0,-2
1513173239112649,-1,-1,-1,0,-3,-3,-2,0
1513173239112649,3,-1,-2,-2,-2,-1,-1,-1
1513173239113649,0,-1,-3,0,-1,-1,0,-1
1513173239113649,-8,-1,0,1,-2,-1,0,-2
1513173239135170,-1,-2,0,0,0,-1,1,-1
1513173239135170,0,0,-1,-1,-1,-3,-1,-1
1513173239136174,0,-1,-1,-2,-1,-2,-1,-2
1513173239136174,2,0,-1,1,-1,-3,0,1
1513173239157679,-3,-3,0,-1,-2,-2,-2,-2
1513173239157679,-2,-1,0,1,-1,-1,0,-2
1513173239158179,0,1,-1,0,-2,0,0,-2
1513173239158179,4,3,-4,-4,-2,-3,-1,-1
1513173239172693,-1,-1,-1,1,1,-1,-1,-1
1513173239172693,0,0,-2,-1,-2,-1,-3,-1
1513173239173191,-1,-3,-1,-1,-1,-1,-1,-1
1513173239173191,0,-4,-3,0,-1,-1,-3,-1
1513173239195206,-1,-2,-1,-2,-1,1,0,-2
1513173239195206,0,-1,-1,-3,-1,-1,-1,1
1513173239196206,-1,-1,-1,0,-3,-1,-1,0
1513173239196206,-5,-1,1,-2,2,0,0,-1
1513173239209216,1,0,-1,-1,-3,-1,-1,-1
1513173239209216,-1,-2,-2,-2,-1,1,0,-2
1513173239210216,0,-2,-2,-1,0,-2,-1,-1
1513173239210216,-4,-2,1,1,-1,0,-3,-3
1513173239232747,0,0,-3,-2,-1,0,-1,0
1513173239232747,0,-1,0,-1,-1,-2,-1,0
1513173239233733,1,-1,-1,-2,0,-1,-1,-1
1513173239233733,-2,-2,-2,-1,-2,-2,-1,1
1513173239255249,0,-1,-3,0,1,-1,-1,-1
1513173239255249,-2,0,-3,-1,-1,-1,-2,0
1513173239256753,1,2,-2,-3,-3,-1,-2,-2
1513173239256753,3,3,-4,-2,-2,-1,0,-1
1513173239269261,-1,1,0,-1,-2,-1,-1,-2
1513173239269261,-2,-2,-2,-1,0,-1,1,-1
1513173239270260,-2,-1,0,0,0,0,-1,-1
1513173239270260,0,-4,-1,1,-2,-1,-1,-3
1513173239292787,-1,-2,0,-1,1,-1,-4,-1
1513173239292787,1,-1,-3,-2,-2,-2,1,1
1513173239294276,-3,0,-2,-2,-2,-1,0,0
1513173239294276,-3,-1,0,-1,-2,0,-1,-1
1513173239315303,0,0,-2,1,-1,-3,1,0
1513173239315303,-4,-3,0,-1,0,0,-1,-1
1513173239316801,-1,-1,1,1,-2,-2,-2,0
1513173239316801,3,-3,-3,-3,-1,0,0,-1
1513173239328804,-4,-1,-2,-2,-2,0,0,-2
1513173239328804,-1,0,-1,-1,-1,-3,-2,-1
1513173239337807,-1,-1,-2,0,-2,-1,-1,-1
1513173239337807,-2,-2,1,-3,-1,0,0,-1
1513173239352817,-1,-3,-1,-2,-1,-1,1,0
1513173239352817,-1,-1,-1,-1,0,-2,-2,-4
1513173239354319,-3,-1,-1,-2,0,0,-1,-2
1513173239354319,-1,-2,-1,0,-1,-2,-3,-3
1513173239375345,1,-1,-3,-1,0,-2,-1,-3
1513173239375345,-2,0,2,-1,0,0,1,0
1513173239376837,-1,-1,-1,-1,-1,-4,-1,-3
1513173239376837,-2,-1,-1,-2,-2,0,-1,-2
1513173239388932,-2,1,-3,-1,-1,-1,-1,1
1513173239388932,1,-1,-2,-1,-1,-1,-2,0
1513173239397923,-1,0,0,-2,0,1,-1,-1
1513173239397923,-2,0,-1,-1,0,0,1,1
1513173239411940,-2,-3,-1,1,-1,-1,0,-3
1513173239411940,-2,0,-3,-1,-1,-1,-1,0
1513173239420446,-4,0,1,-1,-1,-1,1,-2
1513173239420446,-2,-1,-1,-1,0,0,0,0
1513173239434947,-1,-3,1,-3,-3,-2,1,1
1513173239434947,-1,-1,-2,0,-1,-1,-2,-1
1513173239436948,3,0,-4,-2,-2,0,-2,0
1513173239436948,-1,0,-1,0,-1,-1,0,-2
1513173239448970,0,1,-1,-2,-2,0,0,1
1513173239448970,0,-2,-3,-2,0,-1,0,1
1513173239457964,-3,-3,-2,1,1,-1,0,-3
1513173239457964,-3,-2,-1,0,-2,-3,-2,-2
1513173239480480,2,1,-2,-3,-3,-2,-1,0
1513173239480480,-2,-1,0,1,0,0,-2,-1
1513173239481980,0,0,1,-2,-3,-1,1,0
1513173239481980,-1,-1,-1,-2,-2,0,-2,-2
1513173239494989,-3,-2,-1,0,-1,-2,-2,0
1513173239494989,0,0,-2,-2,-2,-1,1,0
1513173239496990,-2,-1,-1,-2,0,0,-3,-1
1513173239496990,0,-1,-1,-1,1,0,1,-2
1513173239508999,1,-1,1,-2,-3,-2,0,-2
1513173239508999,0,-1,2,-2,-1,1,-1,-3
1513173239525025,0,-2,-2,0,-3,0,-3,0
1513173239525025,0,-3,0,-1,-1,-1,-1,-2
1513173239532533,1,-1,-2,-2,0,0,-4,-1
1513173239532533,-2,-2,0,0,0,-1,-1,-1
1513173239534532,2,0,-1,-1,-1,1,1,0
1513173239534532,-3,-3,0,-2,-1,1,-3,-1
1513173239555046,-1,0,-1,-1,-1,0,1,-1
1513173239555046,3,-1,0,-1,-1,-3,-2,0
1513173239557548,-3,-3,-4,-2,0,-1,-2,-1
1513173239557548,-1,-2,-2,-1,0,0,0,-3
1513173239568556,-2,-1,-2,-2,0,1,2,-1
1513173239568556,-2,-1,0,-2,0,0,0,-1
1513173239577562,-2,-2,0,1,-2,0,-2,-1
1513173239577562,-1,1,-2,0,-1,-4,-2,-2
1513173239592573,0,0,-3,1,1,-1,-2,-1
1513173239592573,0,2,-1,-1,-2,-2,-2,-1
1513173239594075,-1,-1,1,-2,-1,-1,1,0
1513173239594075,-2,-1,-1,-1,1,0,-2,-2
1513173239615092,-2,-1,0,-2,-1,-2,0,-1
1513173239615092,1,-2,-3,-1,0,-2,-1,1
1513173239616590,-5,-3,0,0,0,0,0,-3
1513173239616590,0,-2,0,-1,-3,-2,-2,0
1513173239628611,-2,-1,0,0,0,0,-2,-1
1513173239628611,-2,-1,-2,-2,0,-1,0,-1
1513173239637648,-2,0,0,-2,-2,-3,-1,-2
1513173239637648,0,-3,-1,-1,0,-2,0,-1
1513173239653153,-2,-2,0,1,1,1,-2,-2
1513173239653153,-2,-2,-1,-1,-1,0,-2,-3
1513173239655155,1,-1,-2,-3,-2,-3,-1,-1
1513173239655155,-3,-2,1,-1,-3,-3,-1,0
1513173239675168,-1,-2,0,-2,-1,-1,-2,1
1513173239675168,-2,0,-1,0,-1,-2,-2,-1
1513173239676667,-1,-1,-1,-1,-1,-1,-3,-2
1513173239676667,-3,-1,-1,-3,0,-1,0,-1
1513173239688676,0,-1,-2,-1,-1,-1,-2,-3
1513173239688676,-5,-2,2,0,1,-1,1,0
1513173239697690,0,-1,-1,-1,-2,-1,0,-1
1513173239697690,-1,0,-1,0,-1,-1,0,-1
1513173239712692,2,1,-2,-2,-2,-4,-1,2
1513173239712692,0,-1,-1,-1,0,0,-1,0
1513173239714193,-2,-1,-1,-1,-2,-1,-1,-1
1513173239714193,-2,0,-1,-3,0,0,1,0
1513173239735216,2,2,-3,-1,0,-1,-1,0
1513173239735216,-2,0,-2,-2,-2,-2,0,-1
1513173239736710,-3,-1,1,0,1,0,-2,-1
1513173239736710,-2,-1,-1,0,-2,-1,-2,-1
1513173239748716,-3,-1,1,-1,0,0,0,-1
1513173239748716,0,0,-1,-1,-1,0,-2,0
1513173239758724,-1,-1,-1,0,0,-1,0,-1
1513173239758724,-1,-1,-2,0,-1,-2,-3,0
1513173239772733,-2,-3,-2,-1,0,-2,-1,0
1513173239772733,-3,-1,-1,0,-2,-1,-2,0
1513173239774235,0,-2,-1,-2,-2,-1,-1,0
1513173239774235,2,0,-2,-2,0,-3,-2,-1
1513173239795760,-2,-3,-1,0,-1,1,0,-1
1513173239795760,1,-2,-2,0,-2,-2,-1,0
1513173239802754,-1,0,-3,0,0,-2,0,-2
1513173239802754,-6,-3,0,0,-2,-2,0,-1
1513173239808769,-2,0,-1,0,-3,-1,-1,0
1513173239808769,1,-1,-1,-2,-2,-2,0,-1
1513173239817766,-2,0,-1,0,-1,-1,-2,0
1513173239817766,0,-2,0,-1,-1,1,0,2
1513173239832797,1,2,-3,-2,-2,-1,-1,-2
1513173239832797,0,-1,-2,-1,-2,-1,0,0
1513173239834282,0,-1,-1,0,-2,1,0,0
1513173239834282,-1,-2,-1,-1,1,0,-1,-1
1513173239855301,-1,-2,-1,-2,-1,-3,-3,0
1513173239855301,-1,-2,-1,-1,-2,0,-2,-1
1513173239857803,-1,-1,0,-2,-2,-3,-1,-1
1513173239857803,-1,0,-1,0,-3,-2,0,-2
1513173239868802,-1,-4,0,-1,1,-1,0,-1
1513173239868802,-1,0,-1,-3,-1,-1,0,0
1513173239877808,-5,-3,1,0,-1,-2,-1,-2
1513173239877808,-2,-1,-1,-1,-1,0,-1,-1
1513173239892819,-2,-1,-2,-2,-2,0,0,-1
1513173239892819,-2,0,0,0,-1,0,-1,-1
1513173239894320,-2,-1,-4,0,-1,0,-1,-3
1513173239894320,-1,-2,-1,-2,-1,-1,-1,0
1513173239915350,-3,0,2,0,-1,-1,-1,-1
1513173239915350,1,-2,-2,-1,-1,0,1,-1
1513173239916836,-1,1,0,-3,-3,-2,-1,0
1513173239916836,0,2,-3,0,-2,-1,-1,-3
1513173239937860,0,-1,0,-2,-2,1,-2,1
1513173239937860,-1,-1,-1,1,-2,0,-1,-1
1513173239939351,0,-1,-2,-3,-2,-2,-1,-1
1513173239939351,0,-1,-1,-2,-2,0,-1,-1
1513173239952869,-1,-2,-1,-1,-2,-2,0,0
1513173239952869,0,-2,0,-1,0,-3,-2,-2
1513173239954363,-1,-3,0,1,0,0,1,-1
1513173239954363,-3,0,0,-1,-1,-1,0,-2
1513173239982883,-1,-1,-2,0,-1,0,0,0
1513173239982883,-1,-1,-1,-1,-2,0,-2,0
1513173239984384,0,-1,-1,-2,2,-2,-2,-2
1513173239984384,-1,-1,-1,0,0,-2,-2,-1
1513173239997893,-2,-1,-1,-3,0,-2,-1,-1
1513173239997893,1,-2,-2,-1,1,-1,-1,1
1513173239999394,-3,0,1,-1,-2,-1,-1,-3
1513173239999394,2,-2,-3,-3,-1,-3,-2,1
1513173240013405,-1,0,-1,-1,1,-1,0,-3
1513173240013405,-2,1,-1,-2,-1,-2,1,-1
1513173240014906,-2,-2,0,0,-2,-2,-2,0
1513173240014906,-3,-2,-1,0,0,-1,-1,-1
1513173240035424,1,1,-2,-2,-3,-3,-3,-1
1513173240035424,-3,-2,0,-2,1,0,-1,-3
1513173240036922,-1,-1,-2,-1,-2,-2,-3,-1
1513173240036922,-4,-2,0,1,-2,0,1,-1
1513173240057948,0,-2,-3,0,-1,-2,-1,-3
1513173240057948,0,1,0,-1,-2,1,3,0
1513173240060447,2,-2,-3,-4,-2,-2,-4,-2
1513173240060447,-1,-1,-1,-1,-2,-2,-1,-1
1513173240071947,-2,0,-1,1,0,1,0,0
1513173240071947,0,-1,-1,-3,-2,-2,-3,-1
1513173240078982,0,-1,-1,-2,-1,1,2,-1
1513173240078982,0,-1,-1,-1,-1,0,1,0
1513173240094973,-2,-1,0,-1,-2,-2,-1,0
1513173240094973,-1,2,-3,0,1,-1,0,0
1513173240096975,0,0,-2,-1,0,1,1,0
1513173240096975,-2,0,-1,-1,-1,-1,-4,-3
1513173240117982,0,-1,0,-2,0,-2,0,2
1513173240117982,-3,-1,-1,1,-1,-2,-1,1
1513173240119479,-2,-2,-1,1,-1,-1,-4,-1
1513173240119479,-1,-1,0,-1,-2,-1,-2,-2
1513173240131990,1,-1,-4,0,-3,-3,-3,0
1513173240131990,0,-1,0,-3,0,-1,-1,-1
1513173240147001,-1,-1,-1,-1,0,-1,-1,-1
1513173240147001,-2,-3,1,-1,-1,0,-1,-1
1513173240155008,-1,1,0,-2,-1,-2,-1,0
1513173240155008,-2,-1,-2,-2,1,-1,-1,-1
1513173240157007,-5,0,3,0,-1,0,2,-3
1513173240157007,0,-1,-1,-2,-1,-1,-1,-1
1513173240177521,1,-2,-2,-2,-1,0,2,-1
1513173240177521,-2,-4,1,1,-1,0,-1,-2
1513173240179022,-1,-1,-2,-1,-1,-3,-2,1
1513173240179022,1,1,-2,0,-1,0,0,-1
1513173240192042,0,-3,-1,0,0,-2,0,-1
1513173240192042,4,1,-3,-2,-3,-2,0,-2
1513173240198547,-2,-2,0,1,-1,-1,1,-2
1513173240198547,0,-3,-2,-3,-1,-3,0,1
1513173240215059,-4,0,0,-1,1,0,-1,0
1513173240215059,-1,-2,-2,-1,-2,0,-1,1
1513173240216547,-1,-1,0,-2,-2,-2,-1,-3
1513173240216547,-3,0,-2,-1,-2,-2,-1,-2
1513173240238064,-1,-2,-1,-2,0,0,-1,1
1513173240238064,-6,-4,2,0,0,-3,-2,-1
1513173240243567,-3,-2,-2,-2,0,0,-2,-2
1513173240243567,-2,-1,-1,-1,1,0,1,-2
1513173240252585,-2,-2,-1,0,-2,-3,-2,-2
1513173240252585,0,0,-1,-2,-4,-2,-2,0
1513173240258586,-2,-1,-1,0,-2,0,-1,-3
1513173240258586,-1,-1,-2,-2,0,-3,-1,-1
1513173240275111,-1,-1,0,-1,-1,1,0,2
1513173240275111,-1,1,0,-1,0,-2,-1,0
1513173240276590,-3,-1,-1,-3,0,-1,-2,-1
1513173240276590,0,-1,-1,-2,-1,-2,-4,-1
1513173240298128,-6,-1,1,1,-1,0,-2,-5
1513173240298128,1,0,-1,-2,-2,-1,-1,-1
1513173240303619,-3,-3,-3,0,-1,-1,0,-2
1513173240303619,-5,-2,0,-1,-2,-2,-2,0
1513173240312138,1,-2,-1,-1,-1,-2,0,0
1513173240312138,-1,0,-1,1,1,0,-2,-1
1513173240318620,0,-1,-2,-1,-1,-2,-4,-1
1513173240318620,1,-1,-2,-4,-1,0,1,-1
1513173240335131,2,0,-2,-2,-1,0,-9,-1
1513173240335131,-1,-1,-2,-2,-1,-1,1,-1
1513173240336644,0,-2,-3,-3,-1,-1,-2,0
1513173240336644,-1,-2,-2,1,0,1,0,-2
1513173240357658,1,-2,-3,-2,0,0,3,1
1513173240357658,-1,0,-2,-1,-1,0,-1,-1
1513173240359151,0,1,-2,0,1,0,-1,2
1513173240359151,-2,-2,-1,-2,-1,-1,-1,-1
1513173240372167,-1,-1,-3,2,0,-1,-1,-4
1513173240372167,-2,-1,1,-1,-1,0,-2,0
1513173240378671,0,-1,0,-1,-3,-2,0,-4
1513173240378671,-2,0,-1,0,0,-1,-2,-2
1513173240395174,-1,-2,-2,-1,-1,1,-3,-1
1513173240395174,0,-1,-2,-1,-2,0,3,1
1513173240396676,-3,-1,-1,-1,-2,-2,-1,-1
1513173240396676,-1,-3,-1,0,0,1,-1,-3
1513173240417700,1,-2,-1,-2,1,0,0,-1
1513173240417700,-1,-2,-1,-2,-1,-3,-2,-2
1513173240419191,2,0,-2,-2,-3,-3,-1,1
1513173240419191,-4,-3,1,0,0,-1,-1,-1
1513173240431202,0,-1,-1,0,-1,1,2,0
1513173240431202,-1,-2,-1,-1,-1,-4,-8,-1
1513173240440208,1,0,-2,-2,-2,0,-1,-3
1513173240440208,-2,-2,-1,-2,-1,-2,-1,-2
1513173240455219,-2,-1,0,-4,-2,0,-1,-1
1513173240455219,-1,-1,-4,-1,-1,1,0,-1
1513173240456718,-2,0,-1,2,-1,-2,-3,0
1513173240456718,-1,0,0,0,-1,-1,0,0
1513173240478257,1,-1,0,-2,-2,-2,0,-1
1513173240478257,1,-3,-3,-1,-2,-2,-1,-1
1513173240479734,-2,-3,2,-2,0,0,1,-1
1513173240479734,-2,-1,0,1,0,0,-2,-3
1513173240491243,-2,0,0,0,0,0,0,2
1513173240491243,-1,-1,-3,0,-1,0,0,0
1513173240500250,-1,-3,-2,-2,-2,-1,-1,-1
1513173240500250,1,-1,0,-2,-2,-2,-1,-2
1513173240515280,5,2,-5,-2,-2,-3,-1,3
1513173240515280,-2,2,2,0,1,-1,2,-1
1513173240516760,-2,-2,0,-3,-3,-1,0,-2
1513173240516760,-5,-4,1,1,0,2,0,-1
1513173240537776,-1,-2,-2,-2,-1,-2,-4,-2
1513173240537776,-1,-2,-3,-2,-1,-1,-1,0
1513173240539277,-2,-2,0,0,1,-1,-1,-1
1513173240539277,1,0,-2,-3,-3,-1,-1,-3
1513173240551287,-2,-1,0,-2,-2,-2,0,-1
1513173240551287,-2,-3,0,-1,-2,-2,-1,-2
1513173240560300,-3,-1,-2,-1,0,0,1,-1
1513173240560300,3,1,-6,-2,-2,-1,1,3
1513173240575304,-1,-2,-1,-1,0,-1,0,0
1513173240575304,1,0,-3,0,0,-1,0,-1
1513173240576817,-3,0,-1,0,-1,-1,-2,-2
1513173240576817,1,0,0,-1,-2,-1,-2,-1
1513173240597827,-1,1,0,-1,0,0,1,0
1513173240597827,-1,-2,-2,1,0,-1,-2,-2
1513173240599321,-1,0,-1,-1,-2,-1,-1,-2
1513173240599321,-2,-2,-1,-1,0,-2,0,-1
1513173240611343,4,-1,-5,-3,-2,-3,-1,3
1513173240611343,-3,-2,1,-1,0,1,2,-1
1513173240620333,1,-1,0,-1,-1,0,-1,0
1513173240620333,-1,-1,-2,-1,-2,-2,0,-1
1513173240635346,-2,0,-2,0,-1,-2,-3,-1
1513173240635346,1,1,-1,-1,-2,0,-3,-2
1513173240637348,-2,-1,-1,-2,0,-1,0,-1
1513173240637348,0,0,-1,-3,0,-1,-2,-1
1513173240657862,-2,-1,1,1,-1,-2,-1,-3
1513173240657862,-1,-1,-1,-2,-1,-2,1,5
1513173240659364,-4,-4,2,1,-1,1,0,-1
1513173240659364,-1,-2,-2,-1,1,-1,-2,-1
1513173240671371,-1,-2,-1,-1,0,-1,-2,-2
1513173240671371,0,0,-1,-1,-1,-1,-1,-2
1513173240680375,1,-1,-3,0,-1,0,-3,-2
1513173240680375,0,-3,-3,-1,-2,-3,2,1
1513173240695387,-2,1,0,-1,0,-1,1,-3
1513173240695387,-1,-1,0,-1,-1,-3,0,-3
1513173240702893,-2,0,-1,-1,0,-1,2,-1
1513173240702893,-2,0,0,1,0,0,-3,-1
1513173240717904,3,0,-3,-4,-2,-2,-2,1
1513173240717904,-2,-1,-1,1,2,0,-6,-2
1513173240725424,1,0,-2,-1,-2,-2,2,-1
1513173240725424,-1,-1,2,-1,0,-1,0,-1
1513173240731912,-1,-2,0,-2,-1,-1,-2,-1
1513173240731912,0,0,-1,0,-2,0,-1,-1
1513173240740418,-1,-3,-2,-1,-2,-1,-3,-1
1513173240740418,0,0,1,-1,0,0,-1,-2
1513173240754928,-2,0,-2,-1,-2,0,0,-2
1513173240754928,-1,0,-1,-1,-2,-1,-2,-1
1513173240756929,-1,0,0,-2,1,0,1,-2
1513173240756929,0,0,-3,-2,-3,-2,-2,-1
1513173240777466,-2,-2,-1,0,1,-1,1,-1
1513173240777466,-1,0,-1,0,-1,-3,-2,-1
1513173240779467,2,-1,-1,-2,-2,-2,-3,-1
1513173240779467,0,0,-2,-1,-1,-3,-2,-1
1513173240800964,-5,-4,-1,2,-2,1,-2,-2
1513173240800964,-1,-1,-3,-3,-2,-1,0,-1
1513173240802462,0,0,-2,-1,0,-2,-1,0
1513173240802462,-2,-1,-1,-1,0,1,-1,-1
1513173240814973,-6,-1,1,2,2,-1,-1,-2
1513173240814973,-1,-2,1,-2,0,1,0,1
1513173240816474,-2,-4,0,-2,-1,-1,-1,-1
1513173240816474,-1,-1,-3,-2,-2,-1,3,1
1513173240837489,-2,-1,-1,0,-1,-1,-3,-1
1513173240837489,0,0,-3,-3,-1,-1,0,-1
1513173240839492,0,0,0,-1,-2,-1,-2,-2
1513173240839492,0,-2,-1,-1,-2,-2,0,-3
1513173240860005,1,-1,0,-2,-2,-1,1,2
1513173240860005,-3,-2,0,0,-1,-3,-3,-2
1513173240862006,-3,0,-1,-1,-1,-1,-1,-3
1513173240862006,-4,-1,0,-2,-1,-1,-5,-1
1513173240875015,-1,0,-1,-1,0,0,1,-1
1513173240875015,-2,-1,0,0,-4,-2,-1,-1
1513173240876516,-3,-5,1,1,1,-1,0,0
1513173240876516,1,0,-2,1,0,-2,-1,-1
1513173240897544,-2,-3,1,0,-1,0,-1,-1
1513173240897544,0,-1,-1,0,0,0,3,2
1513173240899047,-1,-1,-3,-2,-2,-1,-3,-1
1513173240899047,-2,-3,-2,0,-2,1,-1,0
1513173240920045,2,-1,-1,-3,0,-1,-2,-1
1513173240920045,-2,-1,-1,-2,-3,-3,-3,-3
1513173240926064,-1,0,-2,0,-3,-1,1,-1
1513173240926064,-5,-1,2,1,-1,-1,0,1
1513173240935055,0,-1,-2,-2,0,0,0,0
1513173240935055,-1,0,-2,0,-1,-1,0,-2
1513173240936557,-2,0,-1,-2,-1,-2,-1,-4
1513173240936557,0,0,-3,-1,0,-3,-9,-2
1513173240958072,0,-3,-2,-1,-3,-1,-2,1
1513173240958072,0,-1,-1,-1,-2,0,-1,0
1513173240960082,-1,-2,-2,-2,-2,-1,-1,-2
1513173240960082,-1,0,-1,-2,-1,-1,2,-1
1513173240980090,-2,0,-2,-1,0,-3,0,-2
1513173240980090,-1,-2,-1,1,1,0,-1,1
1513173240981588,0,1,0,-2,-2,-3,-1,0
1513173240981588,-4,-2,2,0,-1,-1,-1,-2
1513173240995097,0,0,-1,-1,-1,0,0,0
1513173240995097,0,-1,-1,-2,-1,0,-1,-2
1513173240996598,-1,-1,0,0,0,0,-1,-1
1513173240996598,1,-2,-1,-2,-1,-1,0,-1
1513173241017625,-1,0,-1,-2,0,-2,0,0
