timestamp,emg1,emg2,emg3,emg4,emg5,emg6,emg7,emg8
1504341363084313,1,4,2,-2,-3,-3,-3,-3
1504341363084313,1,-1,1,0,-3,-2,-1,-2
1504341363085315,-2,-3,-2,1,1,-1,0,-1
1504341363085315,-2,-1,-2,-1,0,-1,-2,-2
1504341363097323,2,1,0,-3,-1,-4,-2,-1
1504341363097323,0,-1,0,-2,-3,-2,-1,-1
1504341363105829,-5,-3,-2,-2,0,1,2,0
1504341363105829,-3,-1,-1,-1,-2,-2,-1,-2
1504341363120339,2,3,0,-2,-4,-3,-1,0
1504341363120339,1,-1,0,-2,-1,1,-1,2
1504341363121341,-3,-3,-2,0,-1,1,-4,-5
1504341363121341,-1,-1,-1,0,-1,1,0,-1
1504341363142854,2,2,-1,-1,-3,-3,-1,-1
1504341363142854,1,0,0,-1,-2,-1,-1,3
1504341363143855,-3,-5,-3,0,1,0,1,1
1504341363143855,-1,-5,-1,0,-3,-3,-1,-1
1504341363157367,4,0,1,0,0,-1,-2,0
1504341363157367,1,2,0,-1,1,0,1,-2
1504341363165371,-4,-4,-1,1,-1,0,-1,-1
1504341363165371,-2,-1,-2,0,0,0,-2,-4
1504341363180381,1,2,0,-3,-6,-2,-1,3
1504341363180381,1,0,0,-1,-4,-5,-1,-1
1504341363181382,-3,-4,-2,0,1,1,0,-1
1504341363181382,-1,-2,-4,-2,0,-1,1,0
1504341363202897,1,3,0,-1,-2,-3,-2,-2
1504341363202897,1,1,1,1,-1,-2,-1,-1
1504341363203398,-5,-3,-3,-2,0,1,0,0
1504341363203398,-3,-2,-1,0,-1,0,-2,-4
1504341363233420,3,1,0,-1,-3,-2,-1,-3
1504341363233420,-2,-1,0,-4,-3,-1,-3,1
1504341363234421,-4,-5,-2,-2,-1,-2,0,-1
1504341363234421,-3,-3,-4,1,-1,-1,-1,1
1504341363240425,1,1,0,0,0,0,3,1
1504341363240425,0,1,0,0,0,-1,-3,-3
1504341363240924,-4,-5,-1,1,-1,1,-1,1
1504341363240924,-2,-3,-2,-2,1,-1,1,-1
1504341363262941,2,2,2,-2,-3,-2,-3,2
1504341363262941,-1,-3,0,-1,-2,-1,-2,-2
1504341363263441,-4,-4,-3,0,1,0,0,-1
1504341363263441,-2,0,-2,0,-2,-2,-1,0
1504341363285956,1,4,0,-2,-2,-2,-2,-1
1504341363285956,0,-2,-1,-3,0,-2,-1,-1
1504341363286956,-4,-5,-1,1,0,0,1,0
1504341363286956,-3,-4,-1,-1,0,1,-1,-1
1504341363300466,2,3,0,-3,-2,-1,-2,-5
1504341363300466,2,2,2,1,-2,0,-1,0
1504341363300967,-4,-4,-3,1,0,0,0,-2
1504341363300967,-2,-2,-4,-1,0,0,1,-1
1504341363322983,1,2,0,0,-3,-2,-2,0
1504341363322983,0,0,0,1,-1,-3,-2,-3
1504341363323484,-3,-4,-4,-2,1,-1,0,-3
1504341363323484,0,-2,-2,-1,-1,2,0,3
1504341363354007,1,2,-1,-3,-1,-2,1,-2
1504341363354007,-2,-2,0,-1,-2,0,-1,-2
1504341363354506,-5,-6,-1,-1,0,0,0,-1
1504341363354506,-1,-3,-3,-1,0,1,-1,1
1504341363360509,1,3,-1,-3,-3,-3,-2,-1
1504341363360509,1,-1,-1,-3,-4,-1,2,0
1504341363361009,-3,-4,-2,0,-1,0,-2,-3
1504341363361009,-2,-1,-1,1,2,0,0,-2
1504341363383539,3,5,3,-1,-1,0,0,2
1504341363383539,2,3,0,-1,-2,-2,0,-1
1504341363384541,-2,-2,-3,-1,1,0,0,2
1504341363384541,-2,-3,0,-1,-2,-2,-3,-3
1504341363406041,2,3,0,-1,-2,-3,-2,-2
1504341363406041,2,-1,-1,1,0,0,0,1
1504341363407042,-2,-3,-2,0,0,0,0,-3
1504341363407042,-1,-2,-2,-1,-1,0,0,-1
1504341363420552,1,3,-1,-3,-1,-3,-3,-3
1504341363420552,0,1,1,-1,-2,-2,-1,-1
1504341363421554,-3,-4,-3,-1,0,2,0,1
1504341363421554,0,1,-1,-3,-1,-2,0,-4
1504341363442566,2,0,0,-2,-2,-2,-2,4
1504341363442566,0,1,-1,-3,0,-3,-4,-3
1504341363443567,-3,-5,-2,1,2,0,-2,1
1504341363443567,-1,0,-1,-1,0,-1,0,-2
1504341363466083,3,2,0,-2,-4,-2,-1,-1
1504341363466083,-1,1,0,-1,-1,0,0,-3
1504341363466583,-4,-3,-2,0,0,1,-2,-1
1504341363466583,-3,-3,-3,-1,0,0,-4,-3
1504341363480093,1,2,0,-1,-3,-2,-1,1
1504341363480093,0,-1,2,-2,-3,-3,-3,-7
1504341363481094,-4,-2,0,1,2,0,2,-2
1504341363481094,0,-1,-1,-1,1,1,1,1
1504341363503610,3,2,0,-3,-1,-1,-2,0
1504341363503610,-1,-1,-3,-3,-1,-2,-1,-3
1504341363504110,-4,-3,-4,2,-1,-1,-1,3
1504341363504110,-2,0,-1,0,-2,-3,-2,-3
1504341363526125,3,1,-1,0,-3,0,0,-2
1504341363526125,1,0,1,0,-3,-3,-1,1
1504341363526627,-3,-5,-2,-1,1,1,-1,-2
1504341363526627,-2,-2,-3,-1,-3,-1,0,1
1504341363540166,1,2,1,1,-3,-2,1,-3
1504341363540166,1,2,0,-2,-2,-1,-1,0
1504341363541148,-3,-6,-3,-2,0,1,0,-2
1504341363541148,-2,-2,-3,-1,-1,0,-2,-2
1504341363563653,1,4,0,-4,-3,-2,-1,3
1504341363563653,1,-2,0,-1,0,-2,-1,1
1504341363564154,-3,-4,-2,-3,-1,-1,-1,-2
1504341363564154,-3,0,-4,0,-1,0,-1,-1
1504341363594181,1,3,1,-4,-1,-2,-1,-1
1504341363594181,-1,-2,-1,-1,-1,-1,-1,3
1504341363594686,-5,-6,-1,1,2,0,0,-4
1504341363594686,-4,-4,-1,-1,-2,-1,-1,0
1504341363600190,1,2,1,0,-1,-1,-2,-5
1504341363600190,0,0,-2,-1,-1,-3,-2,0
1504341363601191,-3,-5,-3,1,0,-2,0,0
1504341363601191,-2,-1,0,-3,0,0,0,0
1504341363623696,2,3,0,-3,-2,-3,0,-2
1504341363623696,0,-2,-2,0,-2,-1,-1,-3
1504341363624196,-3,-6,-2,0,1,0,2,0
1504341363624196,0,0,0,-2,-1,0,0,0
1504341363646212,1,-1,0,-1,-3,-1,0,1
1504341363646212,0,0,0,-2,-1,-1,-2,-4
1504341363646712,-5,-4,-3,2,-1,0,-2,-2
1504341363646712,-2,-2,-2,-2,1,-2,-1,-3
1504341363660222,2,0,0,-2,-1,-3,0,3
1504341363660222,0,-1,-1,0,-3,-1,0,3
1504341363661221,-4,-2,-3,-1,-1,0,0,-2
1504341363661221,-2,-1,-3,0,0,0,-1,-1
1504341363684250,2,2,-1,-2,-4,-2,-4,-4
1504341363684250,-1,0,0,-1,-1,-3,0,-2
1504341363684738,-4,-4,-4,1,2,2,0,-1
1504341363684738,-2,-2,-2,1,-2,0,-1,-1
1504341363713777,3,2,0,-3,-2,-3,-3,-1
1504341363713777,-1,-1,1,-2,0,-1,1,0
1504341363714258,-4,-4,-3,0,1,0,0,-1
1504341363714258,1,-3,-2,0,-2,-1,-1,-1
1504341363720262,2,4,1,0,-3,-2,-1,0
1504341363720262,-1,0,1,-2,0,0,-1,3
1504341363721265,-5,-4,-1,-2,2,0,-3,-5
1504341363721265,-2,-1,-1,0,-1,-1,1,1
1504341363743780,2,3,1,-2,-3,-3,0,-3
1504341363743780,0,-2,-2,1,-3,-3,-1,2
1504341363744784,-4,-3,-2,1,0,1,-1,0
1504341363744784,-3,0,-1,-1,4,2,3,4
1504341363766295,2,-1,1,-1,-4,-4,0,-4
1504341363766295,-1,0,1,0,-1,-2,-1,-2
1504341363766796,-2,-6,-3,0,-3,-1,-1,1
1504341363766796,-2,-3,-3,-2,-3,1,-3,-3
1504341363780305,1,3,2,0,-2,-4,-3,1
1504341363780305,2,1,2,-2,-1,0,-1,-3
1504341363781306,-4,-4,-2,-2,0,1,-1,-1
1504341363781306,-1,1,-1,-1,-2,0,-2,-1
1504341363803822,2,3,0,-1,-3,-2,-1,0
1504341363803822,-2,-4,-2,-2,-2,-3,-2,-2
1504341363804323,-4,-3,-4,-1,1,-1,1,0
1504341363804323,-2,1,-2,-1,1,0,-3,-1
1504341363825838,2,4,0,-5,-2,0,-1,-6
1504341363825838,1,-1,1,0,-1,0,0,3
1504341363826838,-2,-5,-1,-1,-2,0,1,0
1504341363826838,-2,-3,0,0,-1,-2,-1,-2
1504341363848354,2,2,0,-1,-1,-3,-3,1
1504341363848354,-1,0,0,0,-1,-2,-3,-2
1504341363849354,-5,-1,-3,1,-1,0,1,-1
1504341363849354,-1,-2,-1,-3,-1,-2,0,0
1504341363863364,0,1,0,-2,-2,1,-2,-3
1504341363863364,-1,-2,-1,1,-3,-1,-1,-4
1504341363864365,-4,-2,-3,1,2,0,0,1
1504341363864365,0,-2,-1,-2,-2,-2,-1,2
1504341363885892,3,1,1,-2,-4,-3,-1,1
1504341363885892,0,0,1,0,1,0,-2,-1
1504341363886893,-4,-4,-2,0,-1,0,-3,-1
1504341363886893,-1,2,0,-2,-2,-1,0,-2
1504341363899390,2,3,1,-3,-1,-3,0,-1
1504341363899390,-1,-2,-1,0,-1,-1,1,-3
1504341363907895,-3,-5,-2,1,1,2,-4,-2
1504341363907895,0,0,-2,-3,-2,-2,-1,-1
1504341363922907,2,2,1,-4,-3,-4,-3,1
1504341363922907,-2,0,-2,-1,-1,-3,-2,-4
1504341363923911,-3,-3,-3,-1,0,3,0,0
1504341363923911,0,1,-3,0,1,-1,0,-3
1504341363945936,2,1,1,2,-1,0,1,2
1504341363945936,-2,-3,-2,-4,-2,-1,-2,-1
1504341363946923,-3,-7,-3,0,1,0,-1,-1
1504341363946923,-1,-1,-1,0,-2,-1,0,0
1504341363959933,2,3,0,0,-3,-3,-1,-1
1504341363959933,-3,1,0,0,-2,-3,0,-1
1504341363967938,-5,-5,-2,0,1,1,1,1
1504341363967938,-2,-2,0,-1,0,-2,-2,-1
1504341363983449,2,2,0,-2,-2,-3,-1,0
1504341363983449,1,-2,-2,-1,-4,-1,1,0
1504341363984450,-2,-2,-4,-1,0,-3,-2,-6
1504341363984450,-1,-1,-2,-2,-1,-2,0,4
1504341364005974,3,1,1,-2,-3,-3,-6,-3
1504341364005974,-1,0,-1,1,-1,0,-1,-1
1504341364006975,-2,-4,-1,-1,-2,2,0,0
1504341364006975,-2,-2,-2,0,-2,0,1,-1
1504341364019976,2,5,2,-3,-1,-4,-1,0
1504341364019976,1,-1,-1,-2,-2,-1,-2,-1
1504341364027981,-2,-1,-3,1,-1,1,3,0
1504341364027981,0,-2,-2,-1,-1,0,0,-4
1504341364043492,-1,-1,0,0,-1,-2,0,2
1504341364043492,-2,-2,-1,-2,-2,-1,-2,0
1504341364044492,-4,-4,-2,-1,1,1,0,1
1504341364044492,-2,-1,-1,-1,-2,0,-1,-1
1504341364066009,3,2,2,0,-3,-3,-2,-4
1504341364066009,-2,-2,0,1,0,0,-2,1
1504341364067009,-5,-7,-3,-2,-1,1,0,0
1504341364067009,-1,0,-1,-2,-1,-1,-1,-1
1504341364079517,2,3,0,-3,-3,-4,-1,-2
1504341364079517,-2,-3,0,-1,-1,0,0,2
1504341364088025,-3,-3,-2,0,1,-1,-1,-2
1504341364088025,-2,-1,-2,0,-1,0,-1,0
1504341364103535,1,0,-1,-1,-3,-1,0,-1
1504341364103535,0,-1,0,0,2,-1,-2,-2
1504341364104034,-4,-2,0,-1,2,1,-3,0
1504341364104034,-1,-1,-2,-2,0,0,-2,-2
1504341364126050,0,2,0,-3,-2,-3,0,1
1504341364126050,-1,-1,-1,-2,-2,-3,-3,-4
1504341364127050,-3,-2,-4,-1,0,0,-1,-3
1504341364127050,0,1,-4,1,-2,-1,-1,0
1504341364139569,1,4,1,0,-2,-1,-4,-4
1504341364139569,-2,-1,0,1,-2,-1,-1,3
1504341364148066,-4,-3,-2,-1,0,1,-1,-1
1504341364148066,1,-2,-2,-2,-2,-2,-2,-3
1504341364163577,2,1,1,-3,-2,-1,0,2
1504341364163577,-1,-2,-1,-3,0,-2,-2,-3
1504341364164078,-3,-3,-2,0,1,-1,-2,-1
1504341364164078,-2,0,0,-1,-1,0,0,-1
1504341364186093,3,1,2,-2,-3,-3,-2,-4
1504341364186093,-2,-1,-1,2,-1,-2,-1,-1
1504341364186594,-4,-5,-1,0,0,0,2,-1
1504341364186594,1,-3,-1,-1,-2,-2,0,-2
1504341364199601,1,4,1,-2,-2,-2,-3,0
1504341364199601,-2,1,0,-3,-1,0,-1,-3
1504341364207608,-3,-2,-3,0,1,0,1,3
1504341364207608,1,-1,-1,-1,0,-1,0,0
1504341364222118,0,1,0,-2,-4,-2,1,1
1504341364222118,-1,-3,-3,-1,-3,0,0,-1
1504341364231125,-2,-5,-2,-1,1,0,-1,-2
1504341364231125,0,0,0,0,-3,0,-2,0
1504341364246135,1,2,1,0,-3,-2,-2,-1
1504341364246135,0,-3,-1,-1,0,0,0,-1
1504341364247636,-4,-3,-2,0,-2,-1,-1,-2
1504341364247636,0,1,-1,-3,1,-1,-2,-1
1504341364268664,2,0,0,-2,-2,-3,-1,-3
1504341364268664,-2,-3,-1,0,-1,1,-1,0
1504341364270169,-2,-4,-2,-1,0,0,-1,0
1504341364270169,-1,-1,-3,0,-4,-2,-1,1
1504341364282674,1,3,1,1,1,-1,0,0
1504341364282674,-1,-2,1,-1,0,-2,0,-1
1504341364289667,0,-1,-4,1,-1,-2,0,2
1504341364289667,-1,0,-3,-2,0,0,-2,-2
1504341364306180,-1,-1,-2,-2,-2,-1,1,2
1504341364306180,-2,-4,-1,-1,1,-1,0,-4
1504341364307678,-4,-3,-2,1,-3,1,-1,-2
1504341364307678,-1,0,-2,-4,-2,-1,-1,0
1504341364336199,2,3,-2,-3,-3,-3,-1,-3
1504341364336199,-2,-1,-1,0,0,-1,-1,-1
1504341364337703,-2,-3,-2,-2,0,-1,0,-2
1504341364337703,1,1,-1,0,-2,-2,-1,-1
1504341364342703,1,2,2,-1,-2,0,-3,-1
1504341364342703,0,0,-1,-2,-2,0,-3,0
1504341364357214,-3,-4,-2,-2,-1,1,-1,-1
1504341364357214,0,0,-1,0,0,-1,0,0
1504341364366233,2,0,1,-2,-1,-3,1,0
1504341364366233,-2,-2,-2,1,-2,1,-1,-1
1504341364367733,-6,-2,-4,0,1,0,1,-2
1504341364367733,1,1,-1,-3,-2,-2,-2,0
1504341364388737,1,-1,2,-5,-1,-1,-2,-3
1504341364388737,-1,-3,-2,1,0,0,-2,-1
1504341364390237,-3,-5,-3,1,0,0,1,0
1504341364390237,-1,0,0,-2,-1,-2,0,0
1504341364402745,-1,1,1,0,0,-3,-1,-1
1504341364402745,0,-1,0,-1,-1,-1,-2,1
1504341364409750,-2,-4,-3,0,-1,0,-1,-1
1504341364409750,0,3,-1,-1,1,-3,-1,-1
1504341364425762,2,0,1,-2,-4,-4,-2,-1
1504341364425762,-2,-2,-2,0,-1,1,2,-1
1504341364427764,0,-2,-2,1,-1,0,-1,0
1504341364427764,-1,0,-1,-3,-2,-1,-1,1
1504341364448790,3,0,2,0,-2,-2,-3,0
1504341364448790,-2,-2,-1,-1,-2,-1,1,-2
1504341364450292,-4,-4,-4,-1,2,0,0,0
1504341364450292,0,0,-1,-1,-1,-3,-2,-5
1504341364463290,0,2,0,-1,-4,-1,-1,-1
1504341364463290,0,-1,0,0,1,-1,-1,0
1504341364469793,-2,-3,-2,1,-1,0,1,1
1504341364469793,0,-1,-2,-1,-2,-2,-4,1
1504341364485817,1,1,-1,-2,-3,0,-1,-1
1504341364485817,-2,-2,-1,0,0,-1,1,-1
1504341364487811,-3,-2,-3,-1,1,0,-1,-1
1504341364487811,1,2,-1,0,0,-1,-1,-3
1504341364508821,2,1,1,-3,-2,-1,-1,-1
1504341364508821,-2,-1,-1,-2,-1,-1,-1,-1
1504341364510322,-4,-4,-3,-1,1,0,-1,2
1504341364510322,-2,1,0,-2,-4,-2,-2,-3
1504341364522831,0,1,-1,-1,-1,-3,-3,0
1504341364522831,-2,-3,-1,-1,0,-3,0,-2
1504341364531349,-2,-3,-1,0,-1,0,-2,-3
1504341364531349,0,1,-1,-1,0,0,-1,1
1504341364545847,0,0,2,0,-1,-2,1,-2
1504341364545847,-3,-1,-1,0,0,-1,0,1
1504341364547848,-2,-1,-1,-1,-1,0,0,-1
1504341364547848,0,0,-1,-1,-2,-3,0,0
1504341364568362,1,2,0,-1,-1,-3,-1,-1
1504341364568362,-2,-1,-3,-2,0,-1,-1,-2
1504341364569864,-4,-4,-2,-4,-2,-2,-2,-5
1504341364569864,0,1,-1,-2,-2,-2,-2,3
1504341364582873,0,-1,-1,-1,-1,-3,-3,-2
1504341364582873,-2,-4,-1,0,-1,-1,0,3
1504341364589880,-2,-2,-3,-1,0,2,-1,0
1504341364589880,2,2,1,-1,-2,-1,-2,-3
1504341364605889,1,0,0,-1,-3,-2,-4,-1
1504341364605889,-2,-6,0,0,0,0,0,0
1504341364607391,-2,-3,-5,1,0,-1,-1,-1
1504341364607391,-1,1,-2,-4,-3,-1,0,-2
1504341364628406,0,2,2,-2,-2,-1,-1,0
1504341364628406,-1,-3,-1,-1,0,1,0,-2
1504341364630407,-2,-2,0,1,0,1,-4,-1
1504341364630407,1,2,1,-2,-1,-2,2,0
1504341364642915,1,1,-1,0,-3,-4,-1,1
1504341364642915,-3,-4,0,-2,0,-1,-1,-2
1504341364649926,-3,-2,-2,-1,1,0,0,0
1504341364649926,0,1,-3,-2,-2,-2,-1,-1
1504341364665932,2,-1,0,-1,-1,-2,-2,-4
1504341364665932,-3,-4,-3,-1,-2,-2,-3,2
1504341364667448,-2,-2,-1,1,-1,1,1,-1
1504341364667448,1,2,1,-1,-1,-2,1,-2
1504341364688467,-1,1,0,-2,-3,-2,-1,0
1504341364688467,-3,-4,-2,1,-1,0,0,-2
1504341364689948,0,-2,-2,-1,0,0,-1,0
1504341364689948,1,-2,-2,-2,-2,-2,0,-2
1504341364702470,1,0,1,1,-1,1,-1,-1
1504341364702470,-3,-3,-3,1,1,1,-1,-1
1504341364710971,-3,-3,-1,-1,1,0,1,-1
1504341364710971,3,2,0,0,-3,-1,-2,-1
1504341364725974,-1,1,0,-2,-3,-4,-2,1
1504341364725974,-3,-3,-1,-2,1,2,0,-3
1504341364727476,-2,-3,-2,-3,0,-3,0,-1
1504341364727476,1,2,-1,-2,-2,-1,-2,0
1504341364748492,1,-1,2,-2,-2,-2,-1,-1
1504341364748492,-2,-4,-2,1,1,-1,0,-4
1504341364749992,-2,-5,-3,-1,0,1,-1,-5
1504341364749992,0,1,-2,-1,0,-2,-1,2
1504341364762000,-1,1,-1,-2,-2,-1,-2,0
1504341364762000,-3,-4,-1,-2,-1,0,-5,-7
1504341364771008,-2,-2,-2,0,0,-1,0,2
1504341364771008,2,4,0,0,-2,-1,-3,-4
1504341364786029,1,0,0,-2,1,0,0,-1
1504341364786029,-4,-4,-1,0,-1,1,0,2
1504341364787518,-3,-3,-2,-1,-1,0,2,5
1504341364787518,1,0,2,-2,-1,-1,-2,-2
1504341364816048,2,-2,1,1,-1,-2,-1,-2
1504341364816048,0,-2,-2,-1,-1,-2,0,-2
1504341364817549,-4,3,-6,1,-1,0,0,0
1504341364817549,-1,3,-1,-3,-3,1,-1,0
1504341364822042,1,1,4,12,-4,-3,-1,-1
1504341364822042,-1,1,6,-6,0,0,-3,0
1504341364831049,-1,-12,-5,3,3,2,4,2
1504341364831049,-2,0,-9,-15,2,0,-1,-8
1504341364846060,1,4,-3,-1,-4,-4,0,3
1504341364846060,-1,-13,-5,6,-2,-3,-1,-5
1504341364847561,1,2,-6,-21,2,2,0,-2
1504341364847561,-1,-2,17,4,-2,-2,1,-1
1504341364868587,-1,-1,-24,-8,-1,-1,2,0
1504341364868587,5,4,-5,9,-1,0,0,13
1504341364870077,-11,-1,5,2,0,-3,-5,-9
1504341364870077,6,2,6,0,-1,-2,-1,8
1504341364882095,-3,5,10,-6,0,-3,-5,-18
1504341364882095,-4,-11,-14,13,4,2,7,10
1504341364891106,-3,6,-5,-4,-3,-5,-8,-8
1504341364891106,6,13,-2,-1,-2,-2,4,8
1504341364906103,-15,-19,2,-1,-6,-4,-8,-16
1504341364906103,-3,-2,-4,-6,3,1,5,-1
1504341364907603,-3,-5,2,0,-1,0,-1,-2
1504341364907603,4,7,0,0,-4,-1,-3,-3
1504341364944128,4,8,8,0,2,1,2,8
1504341364944128,-13,-12,0,-8,2,-1,-3,-11
1504341364945629,-3,-6,-1,2,-1,0,3,0
1504341364945629,0,1,1,11,-3,-3,-3,-2
1504341364946630,8,3,-2,-6,2,1,1,3
1504341364946630,-3,-1,-3,10,-3,-2,-4,-2
1504341364951145,0,-4,1,-9,-2,0,2,5
1504341364951145,1,0,-10,14,6,0,-3,-4
1504341364966157,6,6,0,-36,-4,-1,4,11
1504341364966157,-9,-5,5,-5,0,-1,-8,-23
1504341364967657,1,0,-6,1,-1,-2,-3,-7
1504341364967657,-2,-1,1,8,-3,-2,3,3
1504341364989160,-1,-1,4,7,-1,0,4,8
1504341364989160,-5,0,-1,-8,-1,0,-6,-15
1504341364990163,-3,-4,-4,14,-3,0,0,-2
1504341364990163,-2,0,-2,-22,-1,-1,-3,-4
1504341365002169,8,4,4,10,-2,-1,1,-1
1504341365002169,-1,-2,-2,-5,-2,1,4,7
1504341365011177,-2,-5,3,6,0,-1,-1,-2
1504341365011177,-1,5,-6,-4,-2,-3,-2,-2
1504341365025686,1,1,0,-3,-4,-2,-4,1
1504341365025686,-1,-1,2,6,-2,1,0,2
1504341365027687,-4,-4,-3,-1,2,2,1,2
1504341365027687,1,1,-1,-5,-5,-3,-1,0
1504341365048702,2,-3,1,3,-4,-4,-1,-2
1504341365048702,-3,-2,-1,-2,1,0,0,0
1504341365050215,1,-1,-2,-1,-1,0,-1,0
1504341365050215,0,-2,-3,-5,-5,-3,-1,-4
1504341365062228,-2,1,-1,2,-1,-2,-4,-3
1504341365062228,-1,-3,-1,0,1,3,2,3
1504341365071222,-1,-2,-3,-3,2,1,0,0
1504341365071222,0,0,2,-2,-1,-2,-2,-3
1504341365093734,-1,1,-1,-1,-4,-3,-2,-1
1504341365093734,-2,-3,-1,0,-2,-2,-1,5
1504341365095235,-2,-3,-2,0,-3,-2,-2,-2
1504341365095235,3,1,0,-2,-1,-1,0,-1
1504341365108746,3,2,0,0,1,-2,0,-3
1504341365108746,-5,-4,-1,-2,1,-1,0,-2
1504341365110246,-4,-5,-4,0,-2,-1,-2,-2
1504341365110246,1,-2,-1,-1,-3,-1,-3,0
1504341365122254,0,2,0,1,2,0,-1,-1
1504341365122254,-2,-3,-2,1,1,0,-2,1
1504341365131260,-1,-1,-2,-3,1,0,0,2
1504341365131260,2,2,1,-4,-1,-3,-3,-1
1504341365145770,0,0,0,-1,-2,-2,-3,-4
1504341365145770,-3,-5,-2,-2,0,1,0,0
1504341365147800,-3,-1,-1,0,-2,-2,0,0
1504341365147800,0,1,-1,-3,-4,-3,-1,-1
1504341365168287,0,-4,0,-1,-2,-1,-3,-2
1504341365168287,-4,-4,-2,1,1,2,0,-1
1504341365169788,-5,-3,-5,-2,0,0,-3,-2
1504341365169788,3,4,0,-1,-3,-2,-1,0
1504341365190303,-1,0,1,-1,-3,-4,-2,-3
1504341365190303,-4,-4,0,-1,0,0,0,0
1504341365198809,-3,-1,-2,0,0,0,-2,-1
1504341365198809,1,2,0,-4,-2,-3,-2,0
1504341365205313,2,1,0,1,-2,-1,0,1
1504341365205313,-3,-4,-2,-1,-1,-1,0,1
1504341365212318,-2,-3,-2,0,0,1,0,0
1504341365212318,2,1,1,-3,-1,-2,-2,-3
1504341365228333,0,1,0,-1,-2,-1,-1,-2
1504341365228333,-2,-2,-3,-1,0,0,-1,1
1504341365229830,-2,-2,-1,-1,-1,-1,0,-1
1504341365229830,2,1,1,-2,-2,-2,-1,0
1504341365250845,-1,-1,0,0,1,0,-2,-1
1504341365250845,-4,-4,-1,1,0,1,1,-1
1504341365252352,-3,0,-2,-1,3,-1,-1,-1
1504341365252352,2,1,-1,-3,-2,-3,-1,-2
1504341365265855,1,2,1,0,-1,-2,-1,-1
1504341365265855,-3,-5,-3,-1,1,-1,-1,-2
1504341365267356,-2,-2,-2,0,-2,0,0,-2
1504341365267356,0,3,2,0,0,-1,-2,-1
1504341365288873,-1,1,1,0,-2,0,0,-1
1504341365288873,-3,-2,-1,-1,0,-1,-2,-2
1504341365290373,1,-3,-3,-2,-1,0,-1,0
1504341365290373,2,2,-1,0,-2,-3,-2,-1
1504341365310888,1,1,0,-4,-1,-2,0,-1
1504341365310888,-6,-4,-2,0,0,-1,1,0
1504341365312889,-3,-3,-2,1,-1,-1,-1,-2
1504341365312889,3,1,2,0,-4,-1,0,-1
1504341365325898,0,-1,2,-2,-1,-2,-3,0
1504341365325898,-4,-2,-4,-1,0,1,-2,0
1504341365331903,-3,0,0,-1,0,-1,-1,-1
1504341365331903,2,2,1,-2,-3,-3,-1,0
1504341365348414,2,-1,1,-1,-2,-3,-1,-1
1504341365348414,-3,-6,-3,0,2,1,0,0
1504341365349915,-2,-3,-1,-2,-1,0,0,0
1504341365349915,1,3,0,-1,-3,-1,-1,-3
1504341365370930,1,-1,-2,-1,-3,-2,-1,0
1504341365370930,-3,-5,-3,-1,-1,0,-1,-2
1504341365372433,0,-2,-1,0,1,-1,-2,-1
1504341365372433,1,2,1,-3,-1,1,-2,-3
1504341365385450,-1,2,-2,-1,-2,-3,0,1
1504341365385450,-3,-4,-2,-2,0,1,-2,-3
1504341365391945,0,-1,-1,-1,-4,0,0,-2
1504341365391945,2,3,2,0,-3,-4,0,-1
1504341365408457,0,-2,1,-1,-2,-1,-2,-2
1504341365408457,-5,-4,-3,0,-2,1,1,1
1504341365409958,-2,-2,-4,0,1,0,-1,1
1504341365409958,2,1,0,-4,-4,-5,-2,-1
1504341365430972,0,-1,-1,-1,-2,0,2,-2
1504341365430972,-3,-2,-2,1,0,0,0,0
1504341365432474,-1,-1,-3,-3,1,-2,-2,-1
1504341365432474,2,4,-1,-2,-2,-3,-2,1
1504341365454491,-1,0,-2,-1,0,-3,-4,-2
1504341365454491,-4,-3,0,-2,-1,-1,-1,-2
1504341365459495,-3,0,-3,0,-2,-2,0,-2
1504341365459495,2,2,0,-4,-2,0,-1,0
1504341365468518,-1,-1,0,1,1,-1,-2,1
1504341365468518,-3,-4,-1,1,1,1,-1,-1
1504341365470000,-3,-1,-1,-1,-1,-1,0,1
1504341365470000,1,0,0,-3,-3,-2,-2,-3
1504341365491026,1,-2,-1,-2,-1,-1,-1,-1
1504341365491026,-3,-6,-3,1,1,-1,-2,-3
1504341365492516,1,-1,-1,-3,0,2,0,0
1504341365492516,2,2,0,-2,-3,-2,-2,1
1504341365505525,-2,0,-1,-1,-1,-1,-2,-3
1504341365505525,-4,-5,-4,-1,1,0,1,0
1504341365512043,-2,-1,-1,-1,0,-2,-1,-1
1504341365512043,2,4,-1,-2,-3,-2,1,-1
1504341365528542,0,0,2,-1,-1,0,-2,-2
1504341365528542,-2,-4,-2,0,1,0,-1,-1
1504341365530043,-2,-5,-1,1,-1,2,0,1
1504341365530043,0,1,2,-2,-1,-1,0,-2
1504341365551070,1,-1,0,-2,-1,-3,-2,-2
1504341365551070,-4,-3,-3,0,0,0,0,1
1504341365552571,0,-1,-1,0,-2,1,0,-1
1504341365552571,2,2,0,-2,-3,-4,-2,-1
1504341365565068,-2,1,0,1,-2,0,-1,-1
1504341365565068,-6,-4,-1,1,1,1,-1,0
1504341365572575,0,1,-1,-2,-1,0,-2,-1
1504341365572575,3,2,0,-1,-1,-3,-3,0
1504341365587599,-1,-1,0,-1,-2,-2,0,0
1504341365587599,-4,-2,-3,-2,-1,0,0,0
1504341365603601,-2,-1,-1,0,1,0,-1,-2
1504341365603601,3,2,1,-1,-2,-1,-3,-3
1504341365611113,0,-2,-1,-3,-2,-1,-1,-1
1504341365611113,-2,-5,-2,0,1,-2,-1,0
1504341365612601,-2,-1,-2,-1,-1,0,0,-1
1504341365612601,1,4,2,0,-2,-2,-1,1
1504341365625111,-2,-1,-1,0,-1,-1,-1,-2
1504341365625111,-4,-5,-2,1,0,1,1,-1
1504341365641122,-2,0,-3,-3,-1,-1,-1,-1
1504341365641122,1,1,1,-2,-3,-3,-3,0
1504341365648639,0,1,1,0,-3,-3,0,1
1504341365648639,-2,-4,-2,0,1,1,2,0
1504341365650140,-1,-1,-2,-1,1,-3,-1,0
1504341365650140,1,4,2,-4,-2,-3,-1,0
1504341365671143,0,2,-1,0,1,-1,0,-1
1504341365671143,-3,-2,-2,1,-1,0,-1,-2
1504341365672644,-2,-3,-1,-1,0,0,-1,-1
1504341365672644,2,3,0,-3,-3,-2,-1,-1
1504341365684664,-3,-1,-1,-3,-1,-2,-1,-1
1504341365684664,-3,-4,-3,-1,-1,0,-1,-1
1504341365694659,-1,-2,-2,0,-1,0,0,0
1504341365694659,1,2,1,0,-2,-4,-3,-2
1504341365708168,0,0,1,-3,-1,0,-2,0
1504341365708168,-3,-4,-2,3,0,1,-1,-1
1504341365714674,-1,0,-4,0,-2,-1,-1,-2
1504341365714674,1,1,-2,-2,-1,-3,0,0
1504341365731185,-1,-1,-2,-2,-1,0,0,-2
1504341365731185,-3,-4,-2,-2,2,0,-2,-2
1504341365732701,-2,-3,1,-2,-3,-2,-3,-1
1504341365732701,2,1,-1,0,-1,-2,1,-1
1504341365744695,-1,1,0,-1,-1,0,-2,-2
1504341365744695,-4,-4,-4,-3,1,2,0,-2
1504341365753713,-1,-2,-1,0,-1,0,0,0
1504341365753713,2,3,0,-3,-2,-2,0,-1
1504341365768711,0,0,0,0,-1,-2,-1,1
1504341365768711,-2,-1,-3,1,-2,-2,0,-1
1504341365770212,-1,0,-3,-2,0,-1,-2,-1
1504341365770212,2,2,0,-1,-3,-3,-1,-2
1504341365791251,0,-1,1,-3,-2,-2,-1,-2
1504341365791251,-4,-5,-1,-1,1,-1,0,0
1504341365792729,-1,-2,-1,-2,-1,-1,0,-2
1504341365792729,4,3,-2,-4,-2,-1,-1,0
1504341365804737,0,0,1,1,-3,0,-1,-1
1504341365804737,-2,-5,-2,-1,0,0,-2,-1
1504341365813756,-2,0,-4,-1,-1,-2,-1,-2
1504341365813756,1,1,3,1,-3,-2,-1,-1
1504341365828265,1,-1,0,-2,-1,-3,-1,-2
1504341365828265,-6,-4,-1,0,2,2,-1,-1
1504341365830268,-3,-1,-2,0,-2,0,0,-1
1504341365830268,2,3,2,-3,-1,-1,-2,1
1504341365851283,-1,-3,-1,-1,-2,-1,-2,-2
1504341365851283,-6,-4,-3,2,1,1,1,1
1504341365852774,-3,-3,-3,1,1,0,0,0
1504341365852774,3,1,0,-1,-3,-4,-2,-3
1504341365864792,-1,-2,1,0,-1,-1,0,-2
1504341365864792,-3,-3,-3,-2,0,-1,0,-1
1504341365873786,-3,-2,-1,-2,1,0,1,-1
1504341365873786,0,2,2,-1,-2,1,-1,0
1504341365888808,-1,0,1,1,-2,-1,-3,0
1504341365888808,-1,-5,-3,-1,0,-1,0,-1
1504341365890300,-2,0,0,-2,0,-1,-2,0
1504341365890300,2,3,0,-3,-4,-3,-2,-1
1504341365911313,0,-3,-1,-2,-2,-1,-1,-2
1504341365911313,-3,-4,-1,1,2,2,1,1
1504341365916817,-2,-2,0,0,-1,-1,-1,-1
1504341365916817,2,3,2,-1,-1,-2,-1,-1
1504341365933337,0,-1,-1,-3,-2,-3,-2,-1
1504341365933337,-3,-4,-3,-1,0,-1,-2,-3
1504341365934829,-1,-1,-1,-1,-2,-1,0,-2
1504341365934829,0,3,0,0,-3,-2,-1,-2
1504341365948338,-2,1,-2,1,1,-1,0,0
1504341365948338,-4,-4,-3,0,1,0,-1,-2
1504341365949841,0,-1,-2,-2,-2,0,-2,-2
1504341365949841,1,0,1,-2,-4,-2,-1,-1
1504341365971359,-1,0,-1,-2,-2,0,-1,0
1504341365971359,-3,-3,-1,2,1,-1,-1,0
1504341365972355,0,1,-2,-2,-1,0,0,-1
1504341365972355,2,2,1,-3,-2,-3,0,-3
1504341365984376,0,-1,2,-1,-2,-2,-1,-2
1504341365984376,-4,-5,-3,-3,-1,0,0,-2
1504341365994371,-2,-1,-2,-1,-1,0,-3,-1
1504341365994371,1,2,-1,-1,-2,-2,-1,0
1504341366008882,0,-2,1,0,-1,-1,0,-1
1504341366008882,-4,-4,-2,0,-1,-1,0,-1
1504341366009882,-1,0,-2,-2,0,0,-1,1
1504341366009882,2,0,1,-3,-2,-2,-3,-2
1504341366030915,-1,0,-3,0,-1,-2,-2,-1
1504341366030915,-3,-4,-3,1,1,0,-1,0
1504341366032415,-2,-2,-1,-3,-1,0,0,0
1504341366032415,1,0,1,-2,-1,-2,-2,-1
1504341366044406,-2,-2,1,-3,1,-2,-1,-1
1504341366044406,-3,-5,-2,-1,-2,0,1,0
1504341366053413,-1,0,-2,-1,-2,-3,-1,-1
1504341366053413,1,2,1,-3,-2,-2,-3,-2
1504341366068936,0,1,-1,-2,-1,0,-1,-2
1504341366068936,-3,-3,-3,0,1,0,-1,-3
1504341366074428,-1,2,1,1,-1,0,0,-2
1504341366074428,2,3,0,0,-2,-3,0,0
1504341366091441,-1,-1,-2,0,-2,0,-1,1
1504341366091441,-3,-3,-2,1,0,2,0,0
1504341366093941,-2,-2,-2,-4,-1,-2,-2,-2
1504341366093941,1,2,1,-1,0,-2,-1,-1
1504341366104449,0,0,-1,-1,1,-2,1,-1
1504341366104449,-4,-2,-4,-1,0,0,0,0
1504341366113455,-2,0,-2,-1,-4,-3,-3,0
1504341366113455,0,2,1,-3,-3,-1,-3,-1
1504341366128466,-2,-2,0,-1,-1,-2,-2,0
1504341366128466,-3,-3,0,-1,0,-1,-1,0
1504341366129967,1,0,-2,-1,-1,-1,0,-1
1504341366129967,2,0,1,-1,-2,-2,-1,-2
1504341366150982,-1,-2,-1,2,-2,-2,0,-2
1504341366150982,-2,-4,-3,-1,-2,-1,-1,0
1504341366152483,0,0,-2,0,-2,1,-1,-1
1504341366152483,2,2,0,-2,-1,-2,-1,1
1504341366173498,-2,1,0,0,0,-2,0,-2
1504341366173498,-3,-1,-2,-1,-2,1,-1,-2
1504341366175007,0,-1,-1,-1,-1,-2,0,-1
1504341366175007,2,3,-3,-2,-4,-3,-3,1
1504341366196014,-1,-3,-1,-2,0,-1,-3,-1
1504341366196014,-4,-3,-3,0,0,1,0,-2
1504341366197514,0,0,1,0,0,0,0,-1
1504341366197514,1,2,1,0,-2,-2,0,-2
1504341366211036,-1,-1,0,-1,-1,-2,-1,1
1504341366211036,-3,-4,-5,0,1,-1,-1,-1
1504341366212538,-2,-3,-1,-2,0,-1,-3,1
1504341366212538,1,-1,0,0,-1,-4,0,-3
1504341366233540,-1,-1,-3,0,-2,0,-1,-1
1504341366233540,-2,-4,-2,0,2,1,2,0
1504341366235053,-2,-1,-1,-1,-1,-2,-3,-1
1504341366235053,-1,2,-1,-3,-3,-2,-2,-1
1504341366248563,0,-1,-1,-1,-1,-1,-1,0
1504341366248563,-2,-2,-3,-2,-1,-1,-1,-1
1504341366250064,0,1,-2,-2,-2,0,0,0
1504341366250064,1,4,2,-2,0,-1,0,-1
1504341366271570,0,-3,-1,0,-2,-1,-3,-1
1504341366271570,-4,-3,-3,0,0,-2,0,-2
1504341366272570,-1,-1,-1,-2,0,-2,1,-1
1504341366272570,1,0,1,0,-5,-2,-1,-1
1504341366294084,-2,-2,-2,-2,1,0,-1,0
1504341366294084,-3,-3,-3,0,1,1,0,-1
1504341366295585,-1,-1,-1,0,-1,-1,-2,-3
1504341366295585,1,1,1,-2,0,0,-1,-1
1504341366308094,-2,1,-1,2,-2,-4,0,-1
1504341366308094,-2,-3,-1,0,1,-1,-2,-1
1504341366322103,1,0,-2,-3,0,-2,-1,1
1504341366322103,2,-1,-3,-3,-3,-2,-2,1
1504341366331122,-2,-1,0,-1,-2,0,0,-1
1504341366331122,-4,-4,-3,2,1,-1,-1,-2
1504341366332623,-1,2,0,0,-2,-1,0,-2
1504341366332623,2,3,1,-2,-1,-3,0,0
1504341366353625,-1,0,0,-3,-1,0,-1,0
1504341366353625,-5,-2,-3,0,-1,2,-2,0
1504341366355137,-1,-2,-2,-3,-1,-1,-2,-2
1504341366355137,1,1,1,-2,-2,-3,-2,-2
1504341366367635,-1,-4,0,-1,0,1,-1,-3
1504341366367635,-1,-3,-1,0,0,4,0,-1
1504341366374652,0,-1,0,0,-3,0,1,0
1504341366374652,1,1,0,-2,-1,-3,-1,-1
1504341366391173,-3,-2,-2,-1,-1,-2,-3,-1
1504341366391173,-4,-5,-3,-1,1,-1,2,0
1504341366392662,0,0,0,-2,-2,0,-2,-1
1504341366392662,1,2,2,0,-2,0,-2,-2
1504341366413680,-1,-2,-1,-2,0,0,-1,-1
1504341366413680,-2,-2,-2,-2,0,0,0,-1
1504341366415179,-1,1,-3,-2,1,-1,-1,0
1504341366415179,1,1,0,-1,-1,-3,-1,-2
1504341366427690,-2,-3,-2,1,0,-1,1,-1
1504341366427690,-2,-1,-1,0,0,0,-1,-1
1504341366434692,-1,-2,-3,-2,-2,-2,-2,-2
1504341366434692,1,4,0,-2,-2,-4,-2,-1
1504341366450707,-3,-1,-2,-1,-1,-2,-1,0
1504341366450707,-2,-2,-4,-2,-2,-1,0,-1
1504341366452709,1,-1,2,0,-1,0,0,-1
1504341366452709,1,1,2,1,0,-2,-3,-1
1504341366473714,-3,-5,-1,0,-2,-3,1,-1
1504341366473714,-2,-3,-2,-2,-2,-1,-1,-2
1504341366475219,1,2,0,-3,-1,-2,-2,-1
1504341366475219,2,1,0,-1,-2,0,2,-1
1504341366488222,0,-1,-2,1,-1,-2,-1,-2
1504341366488222,-5,-2,-2,0,-1,0,-1,-1
1504341366494737,2,1,-2,-1,-3,-3,-2,-1
1504341366494737,2,2,0,-2,-3,0,-1,-1
1504341366510740,-2,-2,-1,1,0,0,-2,-2
1504341366510740,-2,-3,-3,-1,-1,1,-1,-1
1504341366512738,-1,2,0,-1,-2,-2,1,-1
1504341366512738,0,-1,1,-5,-3,-4,-3,0
1504341366533252,-2,0,1,1,-1,0,1,-1
1504341366533252,-3,-5,-3,1,0,0,-2,-3
1504341366535254,0,2,0,-1,0,-1,-1,0
1504341366535254,1,2,0,-2,-3,-4,-2,-1
1504341366547762,0,-3,0,-2,-3,-2,-3,-2
1504341366547762,-3,-2,-2,2,3,-2,0,0
1504341366554769,0,1,1,-3,-2,-2,0,-2
1504341366554769,1,0,-1,1,0,0,0,-1
1504341366579284,-2,-3,-2,-3,0,0,0,-1
1504341366579284,-1,-3,-1,0,1,1,0,-2
1504341366580785,0,0,-3,-1,-3,-1,-1,-1
1504341366580785,0,0,1,1,-2,-2,0,-1
1504341366593800,-2,-2,-3,-1,2,2,-2,-1
1504341366593800,-4,-3,-2,-4,0,-1,0,-2
1504341366595798,1,2,-2,-1,-3,-2,0,-1
1504341366595798,0,1,2,-1,-3,-3,-2,0
1504341366607805,-2,-3,-2,0,-2,0,-2,-1
1504341366607805,-3,-5,-3,-1,-1,0,-2,-3
1504341366622338,1,2,0,-1,-1,-1,0,1
1504341366622338,1,1,1,-2,-1,-2,0,0
1504341366631321,-2,-4,0,1,-1,-1,0,0
1504341366631321,-1,-2,-2,0,0,0,0,1
1504341366632336,0,1,-1,-1,-3,-3,-2,-3
1504341366632336,0,0,-1,-3,-2,-2,-2,-1
1504341366653337,-1,-3,-1,-2,-2,-1,-1,-2
1504341366653337,-4,-1,-3,0,0,0,-1,-2
1504341366654852,1,1,-2,-1,-1,1,1,0
1504341366654852,2,0,1,-2,-2,-1,1,-2
1504341366666846,-1,-1,0,-1,0,-2,0,-2
1504341366666846,-3,-2,-2,-1,1,0,-1,-2
1504341366683859,-1,3,1,-1,-1,0,-2,0
1504341366683859,-1,0,1,-2,-1,-2,-2,-2
1504341366691364,-4,-4,0,-2,0,-1,0,1
1504341366691364,-3,-2,-3,0,-1,-1,0,-1
1504341366692865,0,-1,-1,-1,-1,-2,0,-1
1504341366692865,2,4,1,0,-1,1,-1,-2
1504341366713380,-4,-4,-1,1,0,-1,0,0
1504341366713380,-2,-2,-4,-3,0,1,-1,1
1504341366714881,0,-1,-1,1,-2,-2,-4,-1
1504341366714881,1,0,0,0,-2,-4,-1,1
1504341366727389,-2,-4,-3,-2,1,1,1,-2
1504341366727389,-2,-2,-3,-1,0,-1,0,-1
1504341366736395,-1,0,-1,-4,-3,-3,1,0
1504341366736395,1,-1,0,-1,-1,-1,-1,-1
1504341366750906,-3,-3,-2,1,-1,-1,-1,-2
1504341366750906,-3,-2,-3,-4,0,-1,-2,1
1504341366752407,2,2,-1,-3,-1,-1,-1,-1
1504341366752407,2,2,1,-2,-1,0,0,-1
1504341366773423,-2,-2,-2,-1,0,-1,1,-1
1504341366773423,-1,-1,-3,1,-1,0,-1,-1
1504341366774924,1,0,-2,-2,-4,-4,-1,-1
1504341366774924,1,0,1,-1,-2,-2,-3,0
1504341366795938,-4,0,-1,-1,1,2,-1,1
1504341366795938,-4,-2,-1,0,1,0,0,1
1504341366803444,-1,2,-1,-1,-2,-3,-1,-1
1504341366803444,1,0,-2,-3,-4,-5,-1,0
1504341366810949,-1,-3,-2,1,2,-1,-1,-2
1504341366810949,-4,-4,-1,-2,0,-1,-2,-1
1504341366812449,0,2,2,0,0,-1,-2,-1
1504341366812449,1,0,1,-2,-3,-2,-1,0
1504341366833977,-2,-6,-2,0,-1,1,-1,0
1504341366833977,-3,-1,-4,2,1,0,0,-1
1504341366835478,1,2,1,-2,-1,-1,-1,-1
1504341366835478,0,3,0,-2,-2,-2,0,-2
1504341366846974,-3,-3,0,1,-1,-2,-1,-1
1504341366846974,-1,-2,-2,-3,-2,0,0,-2
1504341366855995,1,2,-1,-2,-1,-3,-1,0
1504341366855995,0,-1,1,-1,-1,0,0,-1
1504341366870991,-3,-3,-2,-1,-1,-2,-1,-1
1504341366870991,-2,-2,-2,1,-1,1,-1,-1
1504341366872493,0,2,-1,-3,-3,-2,-2,-1
1504341366872493,1,1,1,-1,-1,-1,-2,-3
1504341366894007,-4,-4,-3,0,1,1,0,-1
1504341366894007,-3,-1,-1,1,0,0,-1,0
1504341366896008,0,1,0,-1,0,-1,-2,-1
1504341366896008,1,0,1,1,-1,-2,-2,0
1504341366907029,-4,-4,-1,-2,-2,0,0,-2
1504341366907029,-3,-5,-3,-1,0,1,-1,-2
1504341366916023,2,1,1,1,-1,-3,-1,-1
1504341366916023,2,1,0,-3,-3,-3,0,0
1504341366931033,-3,-4,-1,0,0,0,-2,-1
1504341366931033,-3,-3,-3,-1,1,1,-2,-1
1504341366932534,1,1,-1,-3,0,0,0,0
1504341366932534,0,-1,-2,0,-2,-1,-2,-2
1504341366953549,-3,-3,-2,-1,1,-1,0,-2
1504341366953549,-2,-3,-1,-1,-1,0,2,0
1504341366955052,1,4,2,-2,-2,-1,-2,-1
1504341366955052,0,0,0,-1,-1,-2,-3,-1
1504341366967059,-2,-4,-2,0,1,0,-1,0
1504341366967059,-1,-2,-3,1,0,0,0,-1
1504341366976067,1,1,-2,-4,-2,2,0,0
1504341366976067,0,0,1,-2,-1,-3,-1,0
1504341366991076,-3,-4,-2,0,-1,-1,-1,-1
1504341366991076,-2,-1,-1,1,0,0,-3,-2
1504341366992579,2,1,1,-2,-3,-3,0,-1
1504341366992579,-1,1,-1,-2,0,-2,0,-1
1504341367021112,-4,-5,-1,-2,1,2,0,0
1504341367021112,-2,-1,-1,0,-1,-1,-1,0
1504341367022599,1,2,-1,-2,-2,-2,-3,0
1504341367022599,0,2,2,0,-1,-2,-1,-1
1504341367036120,-3,-4,-1,-2,0,0,0,-3
1504341367036120,-3,-3,-1,0,-2,-2,0,0
1504341367037609,2,2,-2,-2,-2,-3,-1,-1
1504341367037609,2,2,0,0,0,0,0,0
1504341367051132,-2,-4,-4,2,1,-1,0,0
1504341367051132,-2,-3,-1,0,-1,-1,1,-2
1504341367052629,1,1,0,-3,-4,-2,-1,-1
1504341367052629,0,1,1,-3,-2,-2,-1,-1
1504341367073634,-1,-4,-2,3,1,3,0,-1
1504341367073634,-1,-1,-2,-2,-1,-2,-1,-1
1504341367075135,1,4,0,-2,-1,-1,-1,0
1504341367075135,2,0,0,0,-2,0,-3,-1
1504341367096158,-3,-3,-3,-1,-1,-1,-1,-1
1504341367096158,-2,-4,-3,-2,0,0,0,-1
1504341367097651,1,1,1,-2,-3,0,1,-1
1504341367097651,1,-2,0,-3,-2,-3,-3,-1
1504341367110179,-4,-3,-1,1,0,1,-1,-2
1504341367110179,-1,-1,-1,-1,-3,0,-3,-1
1504341367117177,2,4,-1,-1,0,-1,0,-1
1504341367117177,-1,2,-1,-1,-2,-2,-2,-2
1504341367133694,-4,-4,-1,0,0,-1,-1,-1
1504341367133694,-2,-4,-2,-2,0,-1,0,-1
1504341367135190,1,2,0,-2,-4,-2,-1,-2
1504341367135190,1,-1,1,-2,-2,-2,0,-1
1504341367156212,-5,-4,-1,0,-1,-1,-1,-3
1504341367156212,-3,-2,-2,0,1,1,-1,-1
1504341367157693,0,3,0,-2,-1,-1,-2,0
1504341367157693,0,0,1,-2,-2,-2,-1,-1
1504341367171204,-4,-3,-2,0,-2,-1,-1,0
1504341367171204,0,-1,-1,-3,-1,-1,0,0
1504341367172705,2,2,0,-3,-2,-2,-2,-1
1504341367172705,-1,0,0,1,-2,-2,-1,0
1504341367194721,-3,-5,-3,1,0,1,0,-1
1504341367194721,-2,-2,-2,-2,-2,-1,-1,0
1504341367196222,2,2,1,0,-3,-3,-2,-2
1504341367196222,1,0,1,-2,-1,0,0,0
1504341367215747,-3,-5,-1,0,0,1,0,0
1504341367215747,-2,-2,-2,1,0,0,0,-2
1504341367217748,1,2,-1,-2,-4,-4,-2,-1
1504341367217748,0,3,-1,-3,-1,-3,-1,-1
1504341367230260,-2,-3,-2,-1,2,-1,0,0
1504341367230260,-3,-2,-4,0,1,-2,0,0
1504341367237250,3,3,1,-1,-2,-2,-3,-1
1504341367237250,1,0,0,-2,-3,-2,1,0
1504341367253274,-2,-5,-1,-2,0,0,0,-2
1504341367253274,-1,-1,-2,1,0,0,-1,-2
1504341367255264,1,2,1,-1,-1,-2,-2,-1
1504341367255264,0,-1,0,0,0,-3,-1,-3
1504341367275777,-5,-4,-2,-1,0,-1,1,-1
1504341367275777,-2,-2,-3,0,-1,0,-1,-3
1504341367277278,2,1,0,-2,-1,-2,-1,0
1504341367277278,-1,1,0,-3,-2,-2,0,-2
1504341367290789,-5,-3,-1,-1,0,1,-1,1
1504341367290789,-2,-3,-1,-4,-2,0,-1,-1
1504341367297293,2,0,-1,-1,-1,-2,1,-1
1504341367297293,0,1,-1,-1,-2,-2,-2,-3
1504341367313805,-4,-5,-2,0,0,-1,0,-3
1504341367313805,-2,-1,-1,-2,-2,0,-1,-2
1504341367315806,0,2,1,-2,-1,-2,-2,-1
1504341367315806,0,-3,0,0,-1,0,-1,0
1504341367335819,-2,-3,-3,1,1,1,-1,-2
1504341367335819,-3,-1,0,-1,0,0,-1,1
1504341367337321,1,3,1,-2,-3,-3,-1,0
1504341367337321,-2,-1,-1,0,-2,-4,-2,-2
1504341367350343,-4,-5,-3,-1,0,0,-1,-1
1504341367350343,-1,-3,-2,-1,0,-1,0,1
1504341367357334,2,3,0,-1,-1,0,-2,-1
1504341367357334,1,2,-1,-2,-1,0,0,0
1504341367373848,-4,-2,-2,1,0,-1,-1,-1
1504341367373848,-2,0,-2,-1,-1,-1,-1,-1
1504341367374853,2,1,0,-3,-4,-1,0,0
1504341367374853,-1,0,1,0,-3,-1,-1,0
1504341367395862,-4,-4,-1,-2,1,-1,-1,-2
1504341367395862,-3,-2,-2,0,0,0,1,-1
1504341367397363,0,3,-1,0,-2,-3,-1,-3
1504341367397363,1,0,0,1,-1,0,-2,0
1504341367410385,-3,-3,-5,0,3,1,-1,0
1504341367410385,-2,-3,-2,1,-1,0,-2,-2
1504341367416877,0,1,1,-3,-2,-2,-2,-3
1504341367416877,0,-2,0,-1,-1,-1,-3,-2
1504341367433401,-2,-3,-1,-1,0,1,0,-2
1504341367433401,-3,-1,-4,-1,-2,-1,-1,1
1504341367434889,2,2,0,-1,0,-2,-1,-1
1504341367434889,1,2,0,-1,-2,-2,-1,-1
1504341367456406,-5,-4,-2,0,-2,2,0,0
1504341367456406,-2,0,-2,-1,-1,-1,0,-1
1504341367457406,1,-2,-2,-2,-4,-3,-1,0
1504341367457406,1,0,0,-2,-2,-2,-1,-2
1504341367470427,-3,-6,-3,-2,2,0,1,1
1504341367470427,-1,-2,0,-2,0,-2,-1,0
1504341367476921,3,4,1,-4,-4,-2,-2,-2
1504341367476921,-1,0,0,2,-2,-3,-1,-2
1504341367493431,-4,-4,-2,0,-1,-1,-3,-2
1504341367493431,-2,-2,-1,1,0,-1,0,-2
1504341367495933,2,2,1,-3,-1,-3,-1,0
1504341367495933,-1,1,2,0,-1,-1,-3,-1
1504341367515948,-3,-2,0,-1,-1,-2,0,-2
1504341367515948,-2,-3,-3,-2,0,-1,-1,0
1504341367517449,1,4,0,-2,-3,-3,-2,0
1504341367517449,-3,0,-1,-3,-2,-1,-2,-1
1504341367530457,-3,-4,-3,1,2,4,0,-1
1504341367530457,-1,-2,-1,-1,1,2,-1,-2
1504341367553974,2,1,1,-1,-5,-3,-2,-3
1504341367553974,-1,-2,1,-3,0,0,-2,-1
1504341367554975,-2,-5,-2,-2,2,1,0,-2
1504341367554975,0,-2,-1,-1,0,-2,-2,-2
1504341367556477,0,3,0,0,-3,-3,-1,-1
1504341367556477,0,1,-1,-1,-1,-2,-1,-1
1504341367575989,-3,-3,-2,1,0,-2,0,-1
1504341367575989,-1,1,-2,-1,2,3,1,0
1504341367577491,1,5,3,-1,-2,-1,-1,-1
1504341367577491,0,-1,-1,-1,-3,-4,-2,0
1504341367590011,-5,-4,-3,-1,-3,-1,0,0
1504341367590011,-3,-3,-3,0,-1,-2,-2,-1
1504341367598505,1,1,-1,-3,1,-2,0,-1
1504341367598505,1,0,0,0,-2,-1,-2,-3
1504341367613528,-3,-4,-4,0,-1,0,0,-1
1504341367613528,-1,-2,-1,-2,-2,-2,-3,1
1504341367615018,2,3,1,-1,-4,-3,-3,-2
1504341367615018,1,0,0,-2,-4,-2,-2,0
1504341367637033,-3,-6,-3,-2,1,-3,0,-1
1504341367637033,-3,0,0,0,-2,1,-1,0
1504341367638535,2,0,-1,-2,-1,-1,-2,-2
1504341367638535,-1,0,0,-2,-3,-2,-1,-2
1504341367649553,-3,-3,0,2,0,1,0,-2
1504341367649553,-3,-3,-2,-2,-1,-2,-1,-2
1504341367658548,3,5,-1,-4,-3,-2,-1,-1
1504341367658548,-2,-3,0,-1,-1,0,0,0
1504341367674059,-4,-4,-2,1,1,0,0,-2
1504341367674059,-1,1,-3,-1,-1,-2,-2,0
1504341367675561,1,0,0,0,-2,-2,-2,2
1504341367675561,0,-1,-1,-2,1,1,2,-2
1504341367696074,-3,-4,-2,-2,-1,0,0,0
1504341367696074,0,-2,-2,-1,-2,-1,-2,-1
1504341367697576,2,0,0,0,-2,-2,-3,-2
1504341367697576,0,2,0,-1,-1,-3,-1,-1
1504341367709584,-4,-2,0,1,0,0,-1,-1
1504341367709584,-1,-2,-2,-1,-1,-1,0,0
1504341367718610,1,3,0,-3,-2,-2,-1,0
1504341367718610,0,-1,1,-1,-1,-2,-2,0
1504341367733613,-5,-3,-2,0,1,0,-2,-2
1504341367733613,-2,-1,-2,-1,-2,0,-1,0
1504341367735614,0,0,0,-1,-2,-2,0,-1
1504341367735614,-1,-2,0,-1,-2,-3,-1,0
1504341367756117,-3,-3,-3,-1,-1,0,-2,0
1504341367756117,-2,-1,-3,-1,-2,0,1,-2
1504341367757618,2,3,-1,-2,-2,-3,-1,1
1504341367757618,1,-1,-1,-1,-1,0,0,0
1504341367769639,-2,-6,-4,-1,0,0,0,-1
1504341367769639,-2,0,0,-2,-1,-2,-1,-1
1504341367778643,2,4,1,-1,-2,-4,-1,-1
1504341367778643,-2,-1,1,-2,-2,-1,-1,-1
1504341367794143,-2,-5,-4,0,1,1,-3,-1
1504341367794143,-2,-3,-3,0,-2,1,-1,-1
1504341367795657,2,2,0,-2,-3,-2,-1,-1
1504341367795657,0,-2,0,0,1,0,-1,1
1504341367816186,-4,-5,-1,1,0,-1,1,1
1504341367816186,-1,-2,-2,-1,0,0,0,0
1504341367817673,2,2,2,-4,-1,-3,-2,-2
1504341367817673,-2,1,-2,-1,-3,-2,-2,-2
1504341367829681,-5,-5,-2,0,-1,0,-1,-1
1504341367829681,-1,-1,-3,-1,2,1,-1,-1
1504341367838679,3,1,1,-1,-3,-1,-1,0
1504341367838679,0,-1,-1,-1,-1,-1,-1,-1
1504341367853194,-2,-3,-1,0,-1,1,1,-1
1504341367853194,0,1,-3,0,-3,-1,-2,-1
1504341367855202,1,1,-1,-1,-2,0,-2,-1
1504341367855202,-1,-1,-1,1,-2,-3,-2,-4
1504341367876203,-3,-4,-3,2,1,0,-1,-1
1504341367876203,-2,-1,0,-2,-1,-1,0,-2
1504341367877716,1,2,0,-2,-3,-2,-1,-1
1504341367877716,1,0,-2,-2,0,-2,0,0
1504341367889714,-4,-3,-2,0,0,1,1,1
1504341367889714,-1,-2,-3,-2,-2,-2,-1,-1
1504341367898730,1,2,2,0,-3,-2,-1,-1
1504341367898730,0,1,0,2,-2,-2,-2,0
1504341367913237,-4,-3,-3,-1,2,1,0,0
1504341367913237,-1,-3,-1,0,0,-1,-1,0
1504341367915240,1,2,1,-3,-5,-3,-2,-2
1504341367915240,-1,-4,-1,-2,-1,-1,0,-1
1504341367935756,-3,-4,-3,0,1,2,-2,-1
1504341367935756,-2,-3,-1,2,-2,-1,-2,0
1504341367937756,2,1,0,-4,0,-3,0,-2
1504341367937756,-1,-1,0,-2,-2,-1,-1,-2
1504341367949766,-4,-3,-5,-1,0,-1,-2,-2
1504341367949766,0,-2,0,-1,-1,-1,0,-2
1504341367958760,1,3,0,-1,-2,-2,-1,0
1504341367958760,0,2,-1,-2,0,0,-2,0
1504341367973771,-4,-3,-3,-1,0,1,-1,-1
1504341367973771,-1,-2,-1,-2,-2,0,-1,1
1504341367975273,1,5,2,-1,-1,-1,-2,0
1504341367975273,-1,-2,2,-1,-1,0,-2,0
1504341367996286,-4,-3,-4,0,0,-2,1,-2
1504341367996286,0,0,-2,-1,1,0,0,-1
1504341367998288,2,1,0,-2,-5,-3,-3,-2
1504341367998288,1,-2,0,-2,0,-2,0,0
1504341368018302,-4,-5,-2,0,0,1,-3,-2
1504341368018302,-2,0,-2,1,0,-1,0,0
1504341368019803,3,2,-1,-4,0,-3,-1,-2
1504341368019803,0,1,1,-1,-1,-1,-1,-3
1504341368032824,-2,-3,-4,1,-1,-2,1,1
1504341368032824,-1,0,-3,-1,-2,-4,-2,0
1504341368039839,1,3,0,-2,-4,-2,-3,-1
1504341368039839,-1,-1,-1,2,-1,-1,-1,-1
1504341368063335,-4,-5,-2,-1,0,-1,-2,1
1504341368063335,-1,0,-1,-2,-1,-1,0,-2
1504341368064846,1,2,2,-3,-1,-1,0,-1
1504341368064846,0,-3,-1,-1,-2,-3,-2,-1
1504341368078358,-3,-4,-3,1,1,0,-1,0
1504341368078358,-1,-5,-2,-1,-1,-3,-1,-1
1504341368079858,2,1,0,-1,-1,1,0,1
1504341368079858,-1,1,-1,0,-1,-2,-2,-2
1504341368094356,-3,-3,-2,-1,1,1,0,-2
1504341368094356,-3,0,1,-2,0,0,0,-2
1504341368095857,3,-1,2,-1,-3,-4,-1,0
1504341368095857,0,0,2,0,1,-1,1,1
1504341368115881,-2,-2,-2,1,-3,0,-1,-1
1504341368115881,0,0,-3,-2,1,1,-1,-1
1504341368117373,1,3,0,0,-2,0,1,-1
1504341368117373,-2,0,0,-2,-2,-4,0,0
1504341368138909,-4,-4,-1,-2,-1,1,-2,-1
1504341368138909,-2,-4,-2,-1,-1,-1,0,0
1504341368139890,-1,5,-1,-1,-3,-2,-1,1
1504341368139890,0,-2,-2,1,1,-1,-1,-2
1504341368153398,-3,-3,-2,0,-1,-2,1,-3
1504341368153398,-1,-1,-3,-2,-2,-2,-3,-3
1504341368154899,2,0,0,-2,-3,-2,0,0
1504341368154899,0,-2,0,-2,-1,0,-3,0
1504341368175920,-2,-5,-4,-1,0,1,0,1
1504341368175920,1,0,-1,-1,-1,-1,-2,0
1504341368177416,2,2,0,-3,-2,-2,-2,-2
1504341368177416,-1,-1,-1,-2,-2,-2,0,-1
1504341368198431,-4,-3,-2,-1,1,-1,-1,-2
1504341368198431,-1,0,-3,-1,-1,-1,-1,0
1504341368199943,1,-3,1,1,0,-1,-3,-1
1504341368199943,-2,-2,-1,0,-3,0,0,-1
1504341368212449,-4,-2,-1,-2,0,1,-1,-1
1504341368212449,-2,1,-2,-1,-1,0,-1,-1
1504341368219460,2,1,0,-2,-3,-3,-1,-1
1504341368219460,-1,-1,-1,1,-2,0,0,-2
1504341368235968,-2,-3,-5,0,-1,0,0,0
1504341368235968,-1,0,-1,-1,-1,0,-1,-2
1504341368237467,2,3,1,-3,-2,-2,-2,-2
1504341368237467,-1,-1,0,0,-1,-2,-1,-3
1504341368258472,-4,-3,-3,1,0,0,-1,0
1504341368258472,0,2,2,0,-2,0,2,0
1504341368259973,1,1,-2,-2,-3,-2,-1,-1
1504341368259973,0,-3,1,-2,0,-1,-3,-2
1504341368272983,-2,-5,-3,-3,0,0,-2,-2
1504341368272983,-1,-1,-1,-2,0,-1,-2,0
1504341368279487,1,2,2,-1,-1,-1,-2,-1
1504341368279487,-1,0,-2,0,0,-2,-1,-1
1504341368296011,-3,-5,-2,1,2,2,1,-2
1504341368296011,-2,-3,-2,-1,-2,0,0,-1
1504341368297515,2,3,1,-1,-2,-3,-1,-1
1504341368297515,0,-2,0,0,0,0,-2,-2
1504341368318527,-2,-3,-3,-1,-1,-1,-1,-2
1504341368318527,0,1,0,0,0,-1,0,0
1504341368320030,0,1,2,-4,-3,-4,-2,-1
1504341368320030,-1,-2,-1,-1,-2,0,0,-2
1504341368332537,-2,-3,-3,-1,-1,-1,-1,-1
1504341368332537,0,-1,-1,-3,0,0,0,0
1504341368339529,1,3,0,-2,-2,-3,-1,2
1504341368339529,-1,-3,-2,-1,-1,-1,-1,0
1504341368356041,-3,-2,0,1,-1,0,-1,-1
1504341368356041,0,-4,-3,-2,-1,0,-3,-2
1504341368357543,1,-1,2,-2,-1,-1,0,-1
1504341368357543,0,-2,0,-2,-2,-2,0,-1
1504341368378570,-1,-4,-2,1,1,-2,1,-2
1504341368378570,-1,2,-1,1,-1,-1,1,-1
1504341368380071,3,0,-1,0,-2,-3,0,0
1504341368380071,-1,-1,0,1,1,0,0,0
1504341368393080,-6,-2,-3,1,1,0,1,-2
1504341368393080,-1,1,-1,-1,-3,-3,-3,-1
1504341368399584,1,3,2,0,-1,1,1,-2
1504341368399584,-2,-1,-1,-1,-2,0,2,0
1504341368416083,-2,-3,-4,-1,1,1,-2,0
1504341368416083,2,-1,-1,-3,-2,-2,-2,-1
1504341368417585,2,0,1,-2,-1,-2,-3,-1
1504341368417585,-1,-3,-3,-3,-1,0,-2,-2
1504341368438599,-4,-4,-1,3,0,0,-2,-1
1504341368438599,0,-1,1,-1,-2,-1,1,0
1504341368440101,1,-1,2,-1,-2,-2,-2,-2
1504341368440101,0,-1,-2,-1,-1,-1,0,-3
1504341368453622,-3,-3,-1,-1,1,0,2,-1
1504341368453622,0,0,-2,-2,-2,-1,-3,-1
1504341368460132,1,0,-1,-3,-3,-2,-2,-1
1504341368460132,-4,-2,0,-2,0,0,-1,-1
1504341368475125,-2,-3,-3,1,1,1,2,1
1504341368475125,1,1,0,-1,-3,-1,-1,-1
1504341368476127,0,5,0,-1,-3,-3,-3,-1
1504341368476127,0,-2,-1,-1,-3,-2,-3,0
1504341368497642,-4,-3,-4,-3,0,1,0,-2
1504341368497642,1,-1,1,1,-1,-2,-1,-3
1504341368498642,3,1,0,-2,-1,-3,-1,-2
1504341368498642,-2,0,0,1,-2,0,-1,-2
1504341368513654,-2,-2,-1,0,-2,-2,-1,-1
1504341368513654,-1,2,-4,-2,0,-1,-1,-1
1504341368520158,1,1,1,-1,-2,-2,-1,0
1504341368520158,-1,-2,-1,-1,0,-2,-1,-1
1504341368535168,-2,-5,-2,-2,1,1,0,0
1504341368535168,1,1,-2,2,-2,0,-1,-1
1504341368536169,2,3,-1,-1,-2,-2,-1,0
1504341368536169,-1,-1,-3,-2,1,0,-1,1
1504341368557688,-2,-1,-3,0,-1,-1,-2,-2
1504341368557688,-2,1,-1,-2,0,1,0,-2
1504341368558691,0,0,-2,-1,-2,-2,-1,0
1504341368558691,-3,-1,-1,-1,-1,-1,-1,-1
1504341368572197,-3,-3,-1,-2,0,-2,-1,1
1504341368572197,1,-1,-1,1,0,1,0,0
1504341368580212,0,1,1,-2,-2,-1,1,-1
1504341368580212,-2,-2,0,-1,1,-1,-1,-2
1504341368595222,-2,-1,-3,0,0,2,0,-2
1504341368595222,0,1,-1,-1,-3,-5,-1,2
1504341368596223,2,1,-2,0,-3,-2,-2,-1
1504341368596223,-2,-5,-2,-1,0,-1,-2,0
1504341368617738,-2,-2,-2,0,0,-1,-1,-1
1504341368617738,0,-1,-1,-3,0,-3,-2,-2
1504341368618739,1,3,1,-1,-3,0,-2,-2
1504341368618739,0,-5,-2,-1,-1,-2,-1,-2
1504341368632263,-2,-3,-2,-1,0,1,-1,0
1504341368632263,-2,0,-3,-3,-3,-2,0,-1
1504341368640258,0,1,-1,2,-3,-3,-1,1
1504341368640258,-2,-2,-1,1,0,0,-1,-2
1504341368655253,-1,-1,-3,0,-1,-1,-1,-1
1504341368655253,2,0,0,-2,-2,-3,-2,-2
1504341368656254,2,1,3,-1,-1,-1,-4,-1
1504341368656254,-3,-1,-2,0,-2,-1,-1,-2
1504341368677785,-2,-1,-3,-1,1,3,-2,-2
1504341368677785,-1,1,-1,-3,0,-1,1,-1
1504341368678784,1,1,0,-1,-2,-3,0,-1
1504341368678784,-1,-4,0,1,-1,-1,0,0
1504341368692301,-2,-3,-2,-2,-1,0,-1,1
1504341368692301,1,2,-1,-1,-1,-1,-2,-1
1504341368700301,0,1,0,-4,-2,-3,-2,-2
1504341368700301,-2,-3,0,0,-1,0,-1,0
1504341368715296,-5,-3,-2,-3,0,-1,-2,-2
1504341368715296,1,1,1,0,-1,0,0,0
1504341368716297,0,1,-1,-3,-1,-2,-1,-1
1504341368716297,-2,-3,-3,-1,0,0,-1,-1
1504341368737828,-3,-4,-3,-1,-1,-1,-1,-2
1504341368737828,0,3,0,-1,-1,-1,-1,-2
1504341368738815,1,1,0,-1,0,-2,-2,-2
1504341368738815,-3,-5,-1,-2,0,1,1,-1
1504341368751834,-3,-3,-1,-2,0,-1,0,-3
1504341368751834,1,-1,-2,-4,-5,-4,-1,-1
1504341368776840,2,3,2,0,-1,0,-1,-1
1504341368776840,-1,-1,-1,1,0,2,-1,0
1504341368778339,-3,-3,-2,0,0,-1,-1,-3
1504341368778339,0,0,-2,-1,0,-1,1,-1
1504341368778842,2,1,0,-1,-4,-2,-2,-2
1504341368778842,-1,-3,-2,0,0,-2,-1,-2
1504341368797855,-2,-3,-2,1,-1,0,1,-2
1504341368797855,0,2,-1,-2,-2,-2,-3,-2
1504341368798355,1,-1,-1,-1,-2,-1,0,-2
1504341368798355,-1,-3,-2,0,0,0,-2,-3
1504341368820882,-2,-2,-3,-1,-2,-2,1,1
1504341368820882,0,0,-2,-3,-3,-2,-2,0
1504341368821870,2,1,1,-1,0,-2,-2,1
1504341368821870,-4,-4,-1,0,-1,-1,-1,-1
1504341368835390,-3,-3,-5,0,-2,2,-2,1
1504341368835390,3,1,1,-2,-1,-1,-3,-1
1504341368835880,0,0,0,0,0,-2,0,-2
1504341368835880,-3,-2,1,1,0,-1,-1,-3
1504341368865902,0,-4,1,0,0,-1,0,-1
1504341368865902,1,2,0,1,-3,-1,0,1
1504341368866903,0,1,0,-2,-2,-3,0,-1
1504341368866903,-2,-5,-2,-1,2,1,-2,-2
1504341368872420,-2,-2,-1,-2,0,0,0,-2
1504341368872420,2,1,-1,0,-1,0,-1,-1
1504341368880417,2,1,-1,-1,1,-3,0,-1
1504341368880417,-4,-3,-1,1,-2,-1,-2,-1
1504341368903446,-4,-3,-4,-3,-1,-1,-2,-1
1504341368903446,1,2,0,-2,-2,-1,-2,-3
1504341368903929,-1,-1,-1,-1,-2,-1,-3,-2
1504341368903929,-2,-2,-1,0,0,-3,-1,0
1504341368917438,-3,-1,-1,-1,-1,0,-1,-1
1504341368917438,2,1,-2,-4,-2,-2,1,-2
1504341368918439,0,2,0,-3,-5,-2,-2,-1
1504341368918439,-2,-3,-2,-1,-1,3,0,-2
1504341368931961,-3,-1,-2,2,-1,3,2,0
1504341368931961,-2,1,0,-2,-1,-2,-2,0
1504341368940455,2,2,1,0,-3,-2,-1,-2
1504341368940455,-4,-4,-2,-1,1,2,0,-1
1504341368955465,-3,-1,-3,-1,1,-1,-1,-1
1504341368955465,1,2,-1,-1,-3,-3,-1,-2
1504341368955986,0,1,0,-1,0,-1,0,0
1504341368955986,-3,-3,-1,0,-1,-1,1,0
1504341368977981,-2,0,-4,-1,-1,0,-1,0
1504341368977981,0,4,-1,-1,-3,-4,-2,-1
1504341368978481,0,-2,-2,-2,-2,-2,-1,1
1504341368978481,-2,-3,-2,1,0,1,1,1
1504341369000998,-2,-1,-1,2,-2,-1,-2,-1
1504341369000998,0,3,-1,-2,-2,-2,-1,-2
1504341369001497,3,1,0,-2,-3,-2,-1,-1
1504341369001497,-3,-4,-1,-1,-1,-2,0,-2
1504341369015520,-2,-4,-2,1,0,1,0,1
1504341369015520,0,1,0,-3,-2,-2,-2,-2
1504341369023013,0,-1,0,0,0,-2,0,-2
1504341369023013,-3,-3,-2,-2,0,0,0,1
1504341369037523,-3,-3,-2,-2,-1,-1,-1,-2
1504341369037523,2,-1,2,-1,-1,-2,-1,-2
1504341369038524,0,1,1,-1,-4,-2,0,1
1504341369038524,-1,-1,-3,1,-1,0,1,0
1504341369061039,-2,-2,-3,-2,0,0,0,0
1504341369061039,1,1,-1,-2,-1,-1,1,-1
1504341369061540,1,1,0,0,-1,-1,-2,-1
1504341369061540,-3,-5,-2,0,-2,-1,-3,-1
1504341369075050,-1,-1,0,0,-1,0,-1,0
1504341369075050,2,2,1,-1,-1,-1,-1,0
1504341369076050,-1,1,-1,0,-4,-2,-3,-1
1504341369076050,-2,-3,-2,1,1,1,-1,-2
1504341369097567,-1,-2,-3,-1,-1,-1,-1,-1
1504341369097567,0,5,1,-1,-1,-1,-1,-2
1504341369098566,1,0,2,-1,-1,0,-1,-2
1504341369098566,-3,-5,-3,0,1,1,0,-2
1504341369121094,-2,-3,-2,-3,-1,0,-1,-1
1504341369121094,2,1,-3,-2,-3,-1,-2,-1
1504341369121582,1,0,0,-1,1,-2,-2,-1
1504341369121582,-3,-4,0,-3,-1,-1,-1,-2
1504341369135104,-2,0,-1,2,1,-1,-2,0
1504341369135104,1,5,-1,-2,-2,-1,0,0
1504341369136105,1,1,0,-2,-3,0,-2,1
1504341369136105,-2,-3,-3,-2,-2,-1,-2,-2
1504341369157608,-4,-2,-1,1,0,-1,1,-2
1504341369157608,2,-2,0,-1,-3,-2,-4,0
1504341369158608,0,1,1,0,-4,-4,-1,-2
1504341369158608,-2,-2,-3,0,1,0,-3,-2
1504341369180624,-1,-2,-3,-2,1,-1,0,0
1504341369180624,1,2,0,-1,-2,-3,0,-2
1504341369181625,1,1,1,-1,-2,-2,2,-1
1504341369181625,-4,-6,-2,0,0,-1,-2,0
1504341369195134,-2,-3,-5,-2,-1,-1,-2,0
1504341369195134,1,-2,0,-3,1,0,-1,3
1504341369196135,-1,-2,0,-3,-2,-2,-1,1
1504341369196135,-4,-3,-4,1,-2,-1,-1,-2
1504341369217651,-2,-3,-2,-1,1,0,-1,-1
1504341369217651,3,2,2,-3,-3,-2,-2,-2
1504341369218652,0,1,1,-2,0,-2,-2,2
1504341369218652,-2,-3,-2,0,0,1,1,0
1504341369241170,-2,-5,-1,-1,-1,1,0,-2
1504341369241170,1,3,0,-2,-1,-3,-1,0
1504341369241667,0,0,-1,0,0,-2,-2,-4
1504341369241667,-2,-5,-2,2,-2,-2,-2,-2
1504341369255178,-2,-4,-2,-1,-1,0,-1,-2
1504341369255178,1,3,0,-1,0,-1,-2,-3
1504341369256180,1,1,-1,-2,-3,0,0,1
1504341369256180,-3,-4,-3,0,1,1,2,1
1504341369285699,-2,-1,-3,-1,-1,-1,-1,-1
1504341369285699,0,1,1,-2,-1,-2,0,0
1504341369286700,1,-1,0,0,-1,1,-1,-2
1504341369286700,-4,-3,-1,-1,2,1,0,1
1504341369300710,0,-1,-2,-1,-2,1,-2,-1
1504341369300710,1,1,-1,-2,-5,-1,-4,-2
1504341369301711,1,0,1,1,-1,-2,-1,-3
1504341369301711,-2,-6,-3,0,1,0,-1,1
1504341369315232,-5,-2,-1,0,0,-1,-1,-1
1504341369315232,1,2,-2,0,-4,-2,0,0
1504341369315719,1,0,-1,-2,-2,0,-2,-2
1504341369315719,-4,-3,-3,-1,1,-1,-1,-1
1504341369338253,-4,-2,-1,1,1,-1,-1,-1
1504341369338253,1,2,0,-1,-2,-2,-1,0
1504341369345240,1,2,2,-5,-3,-3,-1,-3
1504341369345240,-1,-3,-1,-2,-1,0,-1,-2
1504341369360751,0,-1,-1,-2,1,2,0,1
1504341369360751,2,1,-2,-1,-2,-3,0,11
1504341369361753,-1,0,-1,-2,-2,-1,-3,-6
1504341369361753,-5,-5,-2,1,-1,0,-1,-3
1504341369383280,-2,-4,-3,-2,-2,0,0,-5
1504341369383280,2,2,1,1,-1,-2,-2,1
1504341369384268,0,-1,0,-2,-2,-3,-1,4
1504341369384268,-4,-4,1,0,0,-1,0,-2
1504341369397777,1,0,-4,-2,-1,-2,0,0
1504341369397777,1,2,2,-4,-3,-2,-1,-5
1504341369398778,1,0,1,-1,-2,-1,-4,-1
1504341369398778,-3,0,-4,1,1,1,0,0
1504341369420794,-3,-2,-4,-4,-2,0,0,-2
1504341369420794,2,2,-2,-3,-1,-2,-2,-6
1504341369421796,-1,-1,-1,-2,-1,0,1,-1
1504341369421796,-4,-5,0,0,-2,-3,-1,4
1504341369435319,-4,-3,-3,-1,-1,-1,-2,3
1504341369435319,2,3,2,-3,-1,-4,-2,-15
1504341369435804,1,1,2,0,-3,0,-3,-2
1504341369435804,-2,-4,-5,1,2,0,-1,-4
1504341369457822,-2,-1,-2,1,0,-3,0,-2
1504341369457822,0,-2,0,-2,-4,-2,-2,2
1504341369458321,1,-1,-1,0,-1,-2,0,2
1504341369458321,-3,-4,1,-2,1,-1,1,0
1504341369480847,0,-1,-1,1,1,0,-1,2
1504341369480847,1,1,0,-3,-2,-3,1,1
1504341369481847,1,-1,0,-1,-2,-1,-2,-2
1504341369481847,-1,-4,-3,2,0,2,0,1
1504341369495362,-1,-2,0,-4,0,1,-1,-3
1504341369495362,2,3,0,-1,-2,-1,-2,2
1504341369495848,-1,0,-3,-7,-2,-1,-1,1
1504341369495848,-2,-1,-2,6,-2,-2,0,-3
1504341369517877,-1,-3,-3,-5,0,0,1,0
1504341369517877,1,4,-1,-1,-4,-2,-3,-2
1504341369518363,0,-1,1,1,1,-1,0,-2
1504341369518363,-1,-5,-3,0,0,0,0,-1
1504341369548385,-1,-1,0,4,0,-2,-1,-3
1504341369548385,0,2,0,-3,-1,-2,-1,0
1504341369549392,0,1,0,-1,-2,-3,0,1
1504341369549392,-6,-6,-3,-3,-1,0,-2,-3
1504341369554389,-1,-1,-4,1,-2,0,0,9
1504341369554389,0,-1,-1,-2,-2,-3,-3,-11
1504341369562895,0,1,1,1,-1,0,-1,0
1504341369562895,-3,-6,1,-1,1,3,-1,-2
1504341369577919,-2,-2,-6,1,-1,0,0,1
1504341369577919,2,4,2,-3,-2,-1,-1,0
1504341369578407,1,1,-3,0,-1,-2,1,4
1504341369578407,-2,-2,0,-4,-2,0,-1,-3
1504341369600921,-3,-5,-2,-2,0,0,-2,-5
1504341369600921,1,3,-1,0,-2,-2,0,2
1504341369601921,-1,-1,1,-1,-2,-2,-3,-6
1504341369601921,-4,-3,-8,-1,2,0,0,2
1504341369614432,1,1,0,-2,-2,-1,-1,-4
1504341369614432,3,1,1,0,-4,-2,-1,-1
1504341369622958,0,1,-1,0,0,-3,-2,0
1504341369622958,-4,-3,-3,-1,0,-1,-2,0
1504341369637457,-3,-1,1,0,-2,1,0,-3
1504341369637457,1,2,-6,-2,-1,-2,0,2
1504341369638463,0,-1,1,0,-2,-1,0,-2
1504341369638463,-3,-1,-2,0,1,2,1,0
1504341369660963,-3,-3,-2,0,-1,0,-2,-4
1504341369660963,3,4,5,-2,-2,-3,-2,0
1504341369661466,0,0,-2,-3,-2,-1,0,1
1504341369661466,-4,-3,-3,-1,1,0,-1,0
1504341369674473,-1,-2,1,0,0,0,0,0
1504341369674473,1,2,-1,-3,-3,-2,0,1
1504341369682491,0,-3,0,0,0,-2,-1,-3
1504341369682491,-4,-5,-1,-1,0,-2,0,-1
1504341369697490,-2,0,-4,-1,-1,1,1,-3
1504341369697490,1,1,0,-2,-2,-3,-2,0
1504341369698490,1,0,0,1,0,-1,-1,0
1504341369698490,-2,-4,-1,0,0,0,1,0
1504341369721021,-1,-2,-3,0,0,-2,-3,-1
1504341369721021,2,2,0,-3,-3,-1,-1,1
1504341369721507,-1,0,0,-3,-3,-3,-3,-5
1504341369721507,-2,-7,-3,2,0,2,1,-4
1504341369744023,-1,0,-1,0,-2,-4,-1,16
1504341369744023,0,1,0,-3,-3,-2,-2,-5
1504341369744523,-2,0,1,0,0,1,1,-1
1504341369744523,-2,-3,-3,-7,3,1,-1,-2
1504341369758035,-2,-1,-2,1,0,0,-1,-1
1504341369758035,2,1,2,-2,0,-1,0,2
1504341369758534,1,-1,-2,0,-4,-2,-2,-1
1504341369758534,-4,-4,-1,2,1,-1,-2,-1
1504341369781050,-3,-1,-3,-2,0,0,0,-3
1504341369781050,1,2,1,0,-2,-4,-2,-1
1504341369781550,0,0,0,0,-1,-1,-1,-3
1504341369781550,-3,-3,-2,1,0,0,1,-1
1504341369794559,-1,-2,-4,-2,-3,-3,0,-3
1504341369794559,1,2,-2,0,-2,-2,-2,-1
1504341369802564,-1,-1,0,-2,-1,-1,-1,2
1504341369802564,-3,-2,-2,1,-1,0,-1,-4
1504341369817575,-2,-2,-1,-1,0,-1,2,2
1504341369817575,1,2,1,-1,-4,-1,0,-2
1504341369818576,-1,1,0,-3,0,-1,-1,0
1504341369818576,-5,-4,-1,-1,1,1,-2,0
1504341369841114,-1,-4,-3,-2,-1,0,-3,-6
1504341369841114,2,3,0,-3,-2,0,-1,2
1504341369841592,-1,0,1,-1,-1,-3,0,0
1504341369841592,-3,-3,-1,1,-1,0,-1,-1
1504341369854601,-2,-1,0,-2,0,0,-2,0
1504341369854601,1,0,1,-2,-1,-3,-1,2
1504341369862606,-1,0,-2,1,-1,1,-1,-2
1504341369862606,-3,-4,-2,0,0,1,1,-1
1504341369877617,-1,0,-2,-1,-2,-2,0,-1
1504341369877617,1,1,2,-2,-3,-2,0,-1
1504341369878629,-1,-1,-1,-2,-3,-1,0,-1
1504341369878629,-5,-3,-3,1,0,0,0,1
1504341369900645,-1,0,-1,0,-2,0,-3,-2
1504341369900645,2,2,1,-1,-1,-2,-1,-1
1504341369901651,0,0,-1,0,0,-2,-1,0
1504341369901651,-4,-3,-1,-1,-2,0,-1,0
1504341369924150,-1,-4,-1,-4,-1,0,1,4
1504341369924150,-1,1,-3,0,-2,-1,-1,-18
1504341369924653,0,2,-2,-2,-2,-3,-3,-2
1504341369924653,-2,-6,-2,0,0,0,-1,0
1504341369937669,-2,1,1,1,1,0,0,-2
1504341369937669,1,1,1,-4,-6,-3,-2,2
1504341369938660,0,2,-1,-1,-1,1,-2,0
1504341369938660,-4,-2,-4,-1,-1,-1,-2,-5
1504341369961176,-2,-4,-3,-2,0,0,-1,-2
1504341369961176,2,2,0,-2,0,-1,0,4
1504341369961676,0,2,0,-2,-3,-3,-1,-1
1504341369961676,-1,-4,-3,1,0,1,1,2
1504341369983192,-2,0,-4,-1,-1,1,-2,-5
1504341369983192,2,4,0,-1,0,-2,-2,2
1504341369984193,-1,-3,2,-1,-3,-1,-1,1
1504341369984193,-3,-3,-2,-3,0,0,-1,0
1504341369997703,0,-1,1,-1,1,-1,-1,-3
1504341369997703,2,-2,-1,0,-2,-1,-1,0
1504341369998704,2,-1,-1,-6,-1,-2,-1,-2
1504341369998704,-4,-5,-3,1,-1,0,1,-1
1504341370020718,-2,-2,-2,-1,-1,-1,-2,0
1504341370020718,3,2,0,0,-2,-3,-1,2
1504341370021719,-1,-1,-1,2,-1,-2,0,-1
1504341370021719,-3,-3,-1,-1,0,1,0,-1
1504341370043234,-3,-2,1,-2,-2,-2,1,-3
1504341370043234,1,5,2,-1,-4,-1,0,0
1504341370044235,-1,-4,-3,0,-2,-2,-4,-3
1504341370044235,-2,-2,-3,0,2,-2,-1,-1
1504341370057747,0,0,-4,-7,-1,-2,-1,-1
1504341370057747,2,1,-2,-1,-4,-4,-1,2
1504341370058746,-2,0,-1,-1,-1,-2,1,0
1504341370058746,-4,-1,-3,1,0,1,-2,-3
1504341370080770,-3,-1,-1,-2,1,-1,-1,-2
1504341370080770,2,2,3,0,-2,-3,-2,0
1504341370081771,0,-2,1,-3,-3,-2,-3,-1
1504341370081771,-4,-6,-4,6,2,2,1,-1
1504341370103281,-2,0,-2,-3,0,0,0,-2
1504341370103281,2,2,1,-4,-1,-1,-2,-1
1504341370104293,0,1,0,-2,-1,-1,-1,-2
1504341370104293,-2,-3,-5,-2,0,-1,-1,-2
1504341370117786,-6,-3,-2,-1,-1,1,-1,1
1504341370117786,3,-1,7,1,0,-3,0,1
1504341370118787,-1,1,0,6,-1,1,0,-1
1504341370118787,-4,-7,-1,-2,-2,0,-2,-2
1504341370140823,1,-2,-10,-3,1,1,1,2
1504341370140823,-1,0,2,-1,-2,-2,-3,-7
1504341370141808,-2,1,2,1,3,0,0,0
1504341370141808,1,-1,-6,-11,-1,-1,-2,0
1504341370163319,-3,-2,-1,5,-3,-2,-2,-2
1504341370163319,3,6,6,0,-3,-1,-1,1
1504341370164339,0,1,13,12,-5,-4,-1,-4
1504341370164339,-7,-4,-21,-18,8,3,4,2
1504341370177829,6,6,7,2,-2,-2,-1,3
1504341370177829,3,10,-5,-9,1,0,-3,-1
1504341370178830,-9,-16,3,4,-5,-3,-1,-3
1504341370178830,-2,0,1,2,-2,-1,-1,-1
1504341370200845,-2,-3,-5,12,1,0,-1,-1
1504341370200845,1,2,1,-12,-3,-3,0,8
1504341370201846,2,2,-3,0,1,0,-4,-21
1504341370201846,-2,-1,3,14,-4,-1,-1,0
1504341370223363,-2,-4,-2,-19,-1,0,-1,-2
1504341370223363,3,3,-8,3,-1,-3,-1,-1
1504341370224363,1,2,-6,-8,0,1,1,8
1504341370224363,-3,-5,1,9,-5,-3,-3,-2
1504341370237871,-3,-1,-3,5,-1,-1,-1,-5
1504341370237871,4,4,3,-4,0,-2,1,11
1504341370238372,-2,-3,1,-11,0,0,0,-19
1504341370238372,-1,-2,-4,5,-2,-2,2,4
1504341370260888,-1,-4,0,-5,-1,-3,-4,-8
1504341370260888,2,1,-2,-5,0,-1,1,3
1504341370261889,-2,3,-4,-3,-2,2,0,4
1504341370261889,-5,-7,2,21,6,1,-1,-4
1504341370283403,3,-3,-8,-42,0,2,1,3
1504341370283403,1,-1,-1,14,-4,-4,1,-3
1504341370284405,3,1,6,-13,-7,-4,-8,-8
1504341370284405,-9,-4,-12,-9,3,3,-1,-5
1504341370297414,2,-2,-1,19,-1,-3,-2,1
1504341370297414,0,3,-6,-23,-4,-1,0,-5
1504341370298415,-2,-6,2,1,-3,-2,-5,-16
1504341370298415,1,14,8,-3,3,0,2,4
1504341370320930,-3,-10,-10,4,-3,-1,0,4
1504341370320930,0,-3,4,5,-4,-3,-5,-11
1504341370321431,3,0,-4,5,0,-1,7,12
1504341370321431,-8,-5,-2,-9,0,1,0,18
1504341370342946,-8,7,3,5,-4,-4,-8,-32
1504341370342946,4,3,5,1,-2,-3,0,15
1504341370343947,2,0,-8,6,7,2,2,3
1504341370343947,-5,-11,0,-24,-4,-1,-7,-34
1504341370365973,0,-4,-9,4,-3,-1,0,8
1504341370365973,-2,-5,7,5,-3,-2,-6,-5
1504341370366462,2,3,2,-5,1,0,1,8
1504341370366462,1,0,13,6,2,1,3,15
1504341370380974,-4,-4,-14,-7,-4,-3,-4,-16
1504341370380974,-1,3,17,1,-2,-3,-3,-16
1504341370381473,2,-1,-12,5,-2,-1,0,12
1504341370381473,0,0,16,5,4,2,-2,-3
1504341370403501,2,5,16,-7,-2,1,2,5
1504341370403501,-2,-12,-11,-5,-1,-2,-1,5
1504341370403990,-3,-12,-19,-4,-3,-3,-3,10
1504341370403990,1,-4,-10,-2,-1,-1,2,-1
1504341370417535,1,1,-10,-3,-2,-1,-2,11
1504341370417535,1,9,13,5,-2,0,7,11
1504341370418546,-10,16,15,2,-1,-4,-5,-1
1504341370418546,-7,-43,-51,-17,-3,0,-2,0
1504341370441075,0,3,18,6,1,0,3,1
1504341370441075,5,-1,-7,4,0,3,1,2
1504341370442052,2,-1,8,-3,-1,-2,-2,-5
1504341370442052,2,14,0,7,2,-1,3,5
1504341370463567,-7,-15,3,0,1,-1,-3,-4
1504341370463567,3,5,11,1,-2,-2,-4,-2
1504341370465070,-1,3,-5,-4,0,-1,1,12
1504341370465070,-6,9,11,-1,-1,0,-4,-11
1504341370477077,8,4,-10,9,2,1,4,8
1504341370477077,1,6,-10,-8,-5,-5,-6,-10
1504341370486095,-16,0,-4,-5,-3,-2,-1,-2
1504341370486095,-1,-9,-3,3,-2,-1,-1,2
1504341370500594,-1,4,-7,1,-2,0,-3,0
1504341370500594,3,-2,4,0,1,0,2,5
1504341370502596,2,5,0,-1,-3,-4,-12,-24
1504341370502596,-4,-7,-4,0,1,-1,0,-1
1504341370523613,-3,0,7,-1,-1,0,-1,-2
1504341370523613,4,8,-9,-5,-3,-5,-5,-6
1504341370525113,5,-7,12,0,1,0,3,3
1504341370525113,-7,-2,-8,1,-2,-2,-1,-1
1504341370537133,3,4,7,2,0,-1,1,-7
1504341370537133,-1,3,-5,-11,-6,-3,-3,-1
1504341370546145,3,9,2,5,-1,0,1,5
1504341370546145,-3,-22,-4,-3,-1,0,-1,-2
1504341370560636,-1,7,-6,2,2,-2,2,9
1504341370560636,-2,-2,3,-9,-5,-3,1,-3
1504341370562639,5,-9,-8,0,-1,0,0,0
1504341370562639,-9,-3,7,-2,-1,0,1,6
1504341370583152,-1,-3,-11,-6,0,-1,-4,6
1504341370583152,-2,5,-1,10,0,-4,0,-20
1504341370585153,3,-2,4,2,1,-2,1,4
1504341370585153,1,-19,-11,-11,0,1,0,-3
1504341370597162,-1,10,13,12,2,1,3,3
1504341370597162,-7,-22,-13,-20,-7,-6,-11,-15
1504341370606169,-8,-2,-1,0,1,-1,0,7
1504341370606169,6,1,-3,12,2,1,6,5
1504341370620691,0,0,-9,-8,-4,-2,-6,-14
1504341370620691,8,11,18,2,0,0,0,9
1504341370627195,-4,-19,-2,2,-2,-1,-1,-2
1504341370627195,-1,7,-6,0,2,-1,2,-3
1504341370643195,0,-2,10,-6,-3,-1,0,7
1504341370643195,1,6,-10,8,-1,-3,-1,4
1504341370644696,-2,-9,-25,-8,-4,-1,2,-2
1504341370644696,-4,14,22,-1,2,3,-1,2
1504341370657209,0,-1,-1,4,1,-2,2,1
1504341370657209,3,9,0,-3,-1,0,-1,-5
1504341370666216,-3,-13,2,-6,0,-1,0,7
1504341370666216,1,4,4,2,-2,1,-6,-13
1504341370680722,2,0,-2,5,-3,-3,-1,5
1504341370680722,-1,-14,-3,-4,1,0,-2,1
1504341370682724,-3,0,-3,-6,-2,-1,2,1
1504341370682724,-4,-2,6,4,0,1,-2,-1
1504341370710742,4,-2,4,-4,-2,-1,0,3
1504341370710742,-7,0,-9,6,0,0,2,-4
1504341370712757,-3,-1,-17,-1,1,1,1,-3
1504341370712757,0,-8,1,-3,-2,0,-2,3
1504341370725255,-5,2,-2,-4,-3,-3,-6,-15
1504341370725255,6,9,7,4,0,-4,1,6
1504341370733759,-2,-14,0,-1,2,1,-1,0
1504341370733759,-7,-7,-10,0,1,0,0,-6
1504341370741269,-3,5,-8,-3,3,0,1,-2
1504341370741269,8,-3,3,-2,-3,-1,-1,3
1504341370742766,2,4,9,1,-1,-4,-5,-8
1504341370742766,-2,1,4,-1,-2,1,1,10
1504341370763279,1,-5,-21,-3,-2,1,0,10
1504341370763279,-5,2,2,-3,-5,-4,-3,-1
1504341370764782,-1,2,-10,-4,3,3,-2,-5
1504341370764782,-6,-3,4,-2,-1,-2,-1,-5
1504341370776798,-2,-3,-13,-2,-3,-2,1,-2
1504341370776798,2,3,7,2,0,0,-3,8
1504341370785795,-1,9,9,4,-1,1,4,2
1504341370785795,0,13,-14,-4,0,-1,-5,-4
1504341370800819,-6,-21,2,-4,-3,-1,0,11
1504341370800819,0,0,-15,1,-2,-4,-5,-13
1504341370802320,0,2,14,3,-1,-1,-2,3
1504341370802320,-5,0,-5,-2,0,0,-6,-28
1504341370823322,4,8,2,-5,-3,-3,-2,-2
1504341370823322,2,-2,-2,0,-1,0,2,5
1504341370824822,-6,-6,5,-1,1,0,-2,-3
1504341370824822,2,-17,-19,1,-1,-1,-1,-4
1504341370836842,-12,6,18,0,-4,-4,0,11
1504341370836842,4,5,4,0,0,-2,-2,-13
1504341370845838,-3,-19,-10,-5,-2,-1,-1,-2
1504341370845838,-6,1,-1,3,-1,-1,2,6
1504341370860348,13,8,8,0,1,1,-4,-8
1504341370860348,-3,-8,-11,-4,-3,-2,-1,6
1504341370866865,-3,10,27,4,1,0,0,1
1504341370866865,-6,1,-20,-1,-3,-1,-1,2
1504341370883377,7,11,8,-4,1,0,4,9
1504341370883377,-8,-4,-14,-2,-2,-4,-8,-24
1504341370884865,1,-6,-4,-5,-2,-1,-2,-2
1504341370884865,-3,-10,18,0,-1,-1,-2,-7
1504341370905881,0,3,-4,2,1,0,-2,1
1504341370905881,2,4,0,1,-3,-1,0,8
1504341370907382,13,7,6,4,2,2,-2,-7
1504341370907382,-13,5,-28,-8,-2,-2,2,12
1504341370920891,-3,-13,-3,1,-1,-2,-4,-11
1504341370920891,0,4,9,-2,0,-2,0,6
1504341370922392,0,-6,-12,-1,-1,1,1,5
1504341370922392,2,-3,14,9,2,1,-2,-15
1504341370943408,13,12,-8,-8,-2,-1,-1,-4
1504341370943408,-4,-9,1,0,-2,0,2,10
1504341370944909,-5,5,-4,1,0,-3,-9,-27
1504341370944909,-4,-20,-2,-4,-1,0,0,5
1504341370965922,1,7,-7,4,-1,-3,0,-2
1504341370965922,-2,14,26,1,1,2,0,-2
1504341370967424,-9,-16,-34,-3,-2,0,1,3
1504341370967424,2,11,24,14,2,1,1,6
1504341370980946,-11,-21,-9,-27,-3,-6,-3,-11
1504341370980946,7,3,-5,-3,-2,-2,2,16
1504341370982444,0,18,27,2,-3,-3,-5,-33
1504341370982444,2,-10,-9,-4,-2,1,1,4
1504341371003461,-2,-4,4,7,0,0,1,0
1504341371003461,9,13,1,-3,-3,-3,0,10
1504341371004960,-21,-8,-8,-2,0,-4,-4,-6
1504341371004960,5,13,9,5,4,2,6,4
1504341371025979,-7,-20,-26,-4,-6,-1,-5,-6
1504341371025979,6,2,11,-2,-2,-1,0,-2
1504341371027479,-9,-4,-6,4,0,2,3,19
1504341371027479,-5,-1,3,-7,-3,-3,-4,-14
1504341371039978,-3,-1,-8,1,-2,-2,-1,2
1504341371039978,10,3,19,2,-2,0,2,-6
1504341371048490,-8,-6,-4,0,1,-1,3,14
1504341371048490,3,0,2,-4,-2,0,2,8
1504341371063492,3,12,14,4,-3,-3,-6,-13
1504341371063492,6,-3,12,-2,-3,-2,-2,-6
1504341371065005,1,8,-23,5,-1,-1,0,10
1504341371065005,-8,-12,27,-5,4,0,-2,0
1504341371086017,5,3,-4,-1,-5,-3,-3,3
1504341371086017,-1,-3,2,-3,-1,-1,-4,-2
1504341371087509,-4,-4,8,2,3,5,5,4
1504341371087509,-2,2,-1,3,-1,-1,0,15
1504341371100030,1,12,8,-2,-2,-2,-7,-26
1504341371100030,4,28,-17,2,1,0,-7,-3
1504341371114528,-1,-30,-8,-5,-2,-3,-6,-29
1504341371114528,2,-1,-34,-1,0,4,-3,-1
1504341371123556,0,0,14,-8,-6,-3,2,15
1504341371123556,10,4,13,4,-1,-1,5,11
1504341371125037,-9,-4,19,9,5,1,-7,-2
1504341371125037,-6,15,-57,-20,-4,-4,-5,-12
1504341371146050,-12,-22,1,1,-2,-2,-5,-17
1504341371146050,0,0,-7,-3,-2,1,-1,4
1504341371147551,0,-36,-27,-6,-1,0,3,23
1504341371147551,-4,23,71,4,0,0,0,10
1504341371160061,4,-7,-12,-1,-1,-1,2,13
1504341371160061,-17,-34,-45,-13,-10,-6,4,-8
1504341371167078,10,26,-7,6,4,3,-8,-15
1504341371167078,-14,-23,4,-6,-5,0,-3,3
1504341371183089,-2,-28,9,7,2,-3,0,-1
1504341371183089,-2,9,38,0,-3,-4,-5,3
1504341371185090,2,37,34,-4,2,1,-1,4
1504341371185090,-7,-55,-105,-5,-2,-4,-2,-20
1504341371205593,-3,49,38,2,-2,-1,2,3
1504341371205593,-7,3,7,-4,-3,-2,-4,0
1504341371207594,3,3,45,-8,-7,-3,4,-6
1504341371207594,12,-4,17,5,1,4,3,30
1504341371220103,-3,-14,-44,-3,0,1,4,-3
1504341371220103,-7,5,-14,-8,-3,-4,-5,-9
1504341371234625,-12,3,-1,3,1,1,1,-4
1504341371234625,10,15,34,0,0,1,-1,-1
1504341371243119,11,19,8,4,-1,0,3,6
1504341371243119,-19,-12,-38,-12,-7,-9,-6,-11
1504341371245120,-4,2,-49,-2,2,2,1,15
1504341371245120,-11,-38,1,0,-3,-2,-2,-18
1504341371265635,-7,-1,-23,-13,-8,-6,-6,0
1504341371265635,20,3,14,14,4,6,9,18
1504341371273640,9,10,6,-16,0,2,-3,-16
1504341371273640,-20,-21,30,5,3,-2,4,3
1504341371280145,7,28,-27,-5,-4,-2,-5,-14
1504341371280145,10,-32,-21,2,0,-1,-2,-7
1504341371287149,-9,-3,-7,-8,-5,-4,-1,5
1504341371287149,12,29,25,7,2,3,4,1
1504341371303161,2,-11,-20,0,3,3,5,21
1504341371303161,-7,-11,17,-3,-4,-5,-1,-12
1504341371304662,-16,-10,-2,3,1,1,1,5
1504341371304662,-13,5,3,-3,0,0,-2,-7
1504341371326179,2,11,35,3,-3,0,-1,-2
1504341371326179,0,-6,-10,-1,-1,-1,0,23
1504341371327679,10,-3,12,5,1,0,3,-3
1504341371327679,8,0,-32,-12,-7,-4,-2,-6
1504341371340188,-21,-2,-21,1,-1,-2,-3,-10
1504341371340188,7,5,34,-1,2,1,2,2
1504341371346692,-7,-21,-10,13,-1,2,-4,-9
1504341371346692,-3,2,-24,-3,-2,-3,4,-4
1504341371363214,16,12,2,8,3,3,0,7
1504341371363214,-13,-2,3,-5,-5,-3,-6,-11
1504341371364704,5,11,-7,-2,-2,-3,-2,1
1504341371364704,0,-4,3,5,0,1,-1,-5
1504341371393228,3,-5,3,-7,-3,-3,2,13
1504341371393228,14,45,40,10,4,-2,-10,-45
1504341371395727,-17,-69,-62,-8,-3,-3,-2,1
1504341371395727,-16,-15,-22,-2,-3,-2,-4,-3
1504341371399729,8,21,45,-3,-2,-3,-5,-4
1504341371399729,-1,-38,-51,-10,-5,-5,5,3
1504341371408748,3,9,5,2,1,3,7,55
1504341371408748,-15,-6,7,5,5,4,-4,-30
1504341371423747,6,-9,18,-8,-2,1,5,-2
1504341371423747,10,23,-21,6,0,-1,-7,0
1504341371425248,-20,-48,-16,-1,-3,-4,0,-13
1504341371425248,6,29,-29,-16,0,3,5,26
1504341371445775,25,-33,19,9,-1,-2,0,4
1504341371445775,-14,16,7,-1,-1,0,5,26
1504341371447763,17,-17,1,-6,-3,-1,1,-12
1504341371447763,3,20,24,0,-2,-5,-6,1
1504341371459772,3,4,-47,1,0,-1,2,-15
1504341371459772,0,1,5,-7,0,-1,1,13
1504341371468779,1,5,5,0,1,2,-4,-23
1504341371468779,10,6,40,9,2,3,-6,2
1504341371482303,-1,10,17,-6,-1,-1,8,1
1504341371482303,-5,-22,-14,3,-4,-6,-2,-4
1504341371490817,-12,-7,13,-2,1,-1,-4,-4
1504341371490817,-23,-32,-44,1,-1,0,3,2
1504341371506322,-1,42,66,-9,-1,-3,-3,7
1504341371506322,6,6,14,0,-1,-2,-5,-19
1504341371507821,7,20,25,11,9,7,9,13
1504341371507821,-22,-29,-11,-6,-5,-3,-10,-19
1504341371519814,-7,-19,0,9,0,-1,-1,-9
1504341371519814,-5,9,-2,-10,-3,-4,-4,7
1504341371528320,6,29,8,-2,-3,0,2,5
1504341371528320,8,-14,-16,1,-2,-1,0,13
1504341371543331,-6,9,12,3,1,-1,5,19
1504341371543331,-16,-8,12,0,-1,-1,-8,-35
1504341371544845,21,27,-61,11,3,0,-2,-2
1504341371544845,8,40,47,-28,-9,-7,-6,0
1504341371566360,-17,-63,-99,-9,-7,-2,-1,8
1504341371566360,1,40,23,2,-1,1,6,13
1504341371567861,-18,0,31,-1,-2,0,-1,-26
1504341371567861,4,2,-69,3,1,1,-6,-24
1504341371579366,-3,-5,9,-1,-2,-3,-1,-1
1504341371579366,10,8,-17,-2,-1,2,1,3
1504341371603874,-14,-21,8,7,2,-1,-7,-16
1504341371603874,3,44,47,10,4,3,8,20
1504341371604875,0,12,25,-16,-4,-4,-7,-8
1504341371604875,30,-36,-49,-1,-1,-1,-3,-4
1504341371606376,5,1,-6,-3,-4,-4,5,9
1504341371606376,-18,-49,4,14,4,1,0,-2
1504341371633395,27,35,24,13,6,1,-2,11
1504341371633395,-29,-27,19,-9,-5,-4,-1,-2
1504341371634896,-1,8,-8,7,4,3,-3,11
1504341371634896,3,6,-27,-10,0,-3,3,-19
1504341371649919,-2,-12,-1,9,0,2,4,-3
1504341371649919,-2,-12,31,-23,-8,-7,-7,-1
1504341371651408,-12,-13,0,0,2,3,-1,-8
1504341371651408,-10,-5,29,14,6,4,1,10
1504341371663416,8,10,-18,-17,-12,-9,-13,0
1504341371663416,11,38,6,25,7,5,12,-2
1504341371664918,-16,-14,-14,-14,-5,-4,-7,-18
1504341371664918,1,-32,-5,3,1,0,-11,-38
1504341371685932,16,16,-46,-2,-2,-4,-4,-6
1504341371685932,-9,4,-27,8,4,1,1,2
1504341371687433,11,-2,8,-18,-6,-2,-2,7
1504341371687433,-9,-3,23,2,0,0,6,19
1504341371699441,-10,-15,-42,0,1,1,-4,-21
1504341371699441,-12,-18,-38,1,-2,-1,3,2
1504341371715954,5,-34,-55,-4,-1,0,3,11
1504341371715954,27,24,-12,-6,-1,2,4,13
1504341371723458,-10,-6,41,4,-2,-4,-8,-9
1504341371723458,1,15,0,-13,-4,-4,-2,-2
1504341371724959,-12,17,-1,3,2,3,3,14
1504341371724959,1,-35,-2,7,0,0,1,-1
1504341371745987,-1,26,-8,-16,-2,0,-3,-15
1504341371745987,6,-19,4,-3,-5,-4,-3,0
1504341371747488,-3,-18,15,13,4,0,-5,-7
1504341371747488,24,57,15,7,2,1,7,16
1504341371759484,-5,19,37,-3,-2,-2,3,16
1504341371759484,4,-35,3,1,1,0,-6,-14
1504341371768501,-39,-34,-9,-2,1,1,14,31
1504341371768501,2,-23,-42,2,-2,-2,6,24
1504341371783516,-12,13,11,-5,-1,-2,-5,1
1504341371783516,1,11,-5,-11,1,3,2,-1
1504341371785013,4,-30,32,9,-3,-2,-2,-9
1504341371785013,-13,14,28,5,1,0,-5,-2
1504341371806017,-6,8,34,-3,-7,-6,-1,21
1504341371806017,16,31,20,9,0,-1,-8,-22
1504341371807519,7,47,8,-8,-3,0,-2,-7
1504341371807519,-23,-13,-6,-15,-7,-5,-3,-4
1504341371828534,0,35,55,10,2,1,6,8
1504341371828534,-24,-62,-56,-10,-4,-5,-8,-43
1504341371830034,31,63,32,7,6,6,0,5
1504341371830034,10,-30,-35,-2,-3,-3,-3,-12
1504341371844044,3,-2,-1,4,-2,-2,-3,-14
1504341371844044,-2,19,31,-11,-14,-9,-6,17
1504341371845545,-16,11,0,5,3,0,-3,-9
1504341371845545,15,-38,-48,-14,-5,-2,2,-2
1504341371866060,24,6,-6,10,0,-2,-4,-6
1504341371866060,-14,-46,-22,-4,-1,-2,8,24
1504341371867561,15,-10,-46,0,2,0,2,9
1504341371867561,-45,32,105,-5,-5,-3,-4,12
1504341371895080,-8,-74,-59,-14,-7,-5,-2,-10
1504341371895080,2,60,4,2,-8,-7,-12,-4
1504341371905587,-4,-19,13,-27,-5,-3,-7,-10
1504341371905587,-33,-19,8,12,4,3,1,-2
1504341371906088,-2,-15,-43,-14,-9,-7,-4,-11
1504341371906088,11,29,61,21,9,5,2,6
1504341371909595,-1,32,-6,2,3,4,5,5
1504341371909595,-5,-23,-21,-2,-5,-4,-7,-10
1504341371926103,1,54,80,-4,-2,-1,2,6
1504341371926103,-9,-9,-12,0,-5,-4,-5,12
1504341371927603,-9,6,13,0,-3,-2,-5,-23
1504341371927603,6,-15,-24,-8,1,2,4,-6
1504341371948117,17,1,-40,12,6,3,-1,-8
1504341371948117,12,20,38,-4,0,2,8,24
1504341371950120,-13,-30,-17,-2,-2,2,-3,1
1504341371950120,2,-1,-39,-17,-8,-4,-6,2
1504341371962630,4,23,42,4,1,0,6,6
1504341371962630,-3,-31,-36,-6,0,-1,-2,-3
1504341371969647,16,-14,-20,9,3,0,4,13
1504341371969647,10,19,8,-3,1,3,3,9
1504341371985645,17,-13,14,-7,-6,-5,-9,-27
1504341371985645,9,30,42,12,9,4,-1,-20
1504341371987667,-10,3,22,-3,-3,-2,-5,3
1504341371987667,5,35,2,1,-1,0,2,4
1504341372008159,-3,-24,-101,-13,-8,-7,-14,-48
1504341372008159,4,10,27,7,0,2,6,20
1504341372010163,-24,-20,-21,-28,-14,-8,-6,-25
1504341372010163,23,-23,-44,7,1,-1,-5,3
1504341372022669,5,27,92,15,5,5,9,14
1504341372022669,-9,-27,-44,-7,-2,0,-1,-2
1504341372029688,-22,-11,12,12,8,5,1,2
1504341372029688,16,66,-5,12,5,4,2,13
1504341372045686,-34,-70,36,-24,-13,-11,-5,6
1504341372045686,3,-4,7,20,4,0,2,9
1504341372047187,-10,12,-31,6,1,3,0,-17
1504341372047187,-2,-1,-2,-11,1,-1,1,-4
1504341372075707,19,44,3,14,6,4,1,18
1504341372075707,-14,-15,18,10,3,1,0,1
1504341372077209,4,-27,-15,0,-4,-5,-8,-2
1504341372077209,1,-7,4,2,4,5,0,-20
1504341372082712,-6,15,-30,10,-1,-4,0,10
1504341372082712,13,28,33,-11,-7,-4,-5,-18
1504341372089217,20,51,-63,5,7,4,1,14
1504341372089217,-25,23,58,7,-5,-8,-9,-18
1504341372106229,4,24,-13,2,1,3,6,22
1504341372106229,16,42,-12,-15,-9,-3,-5,-11
1504341372107730,-26,-40,-20,4,3,3,7,21
1504341372107730,5,7,0,-2,0,3,0,-3
1504341372128745,-8,44,16,-23,-12,-8,-5,-13
1504341372128745,-20,-58,-28,9,4,-3,-5,-4
1504341372130747,12,-45,45,-5,-8,-6,-4,-2
1504341372130747,2,31,9,-10,-1,2,3,9
1504341372142755,-16,-59,-55,-11,-3,-2,-7,4
1504341372142755,21,2,25,-6,-3,-3,3,4
1504341372149760,-11,0,11,-2,4,1,0,-9
1504341372149760,-15,-30,9,21,4,1,1,0
1504341372164783,35,66,25,10,5,6,6,5
1504341372164783,-15,-13,10,-21,-11,-10,1,3
1504341372173777,-15,-38,-41,10,2,-1,-1,-3
1504341372173777,9,-19,-44,-1,-1,0,-11,-26
1504341372188793,16,24,14,9,0,-1,3,11
1504341372188793,-6,-11,-48,-8,0,2,-3,4
1504341372190290,-24,-22,57,1,-3,-4,2,-16
1504341372190290,0,38,7,-12,0,0,7,26
1504341372202797,-23,8,-13,-7,-4,-6,-2,3
1504341372202797,14,3,18,14,8,7,0,-8
1504341372209303,12,25,-7,7,5,8,6,0
1504341372209303,7,5,27,-11,-10,-6,-7,-13
1504341372226315,-4,-39,-3,10,1,-6,-7,2
1504341372226315,26,67,38,6,1,5,5,5
1504341372231830,-7,-22,8,10,3,5,8,23
1504341372231830,3,24,13,-27,0,0,3,14
1504341372248331,16,5,54,22,8,5,1,-9
1504341372248331,-21,-46,-50,-10,-6,-4,1,-3
1504341372249832,-2,-18,-9,3,-4,-6,-14,-17
1504341372249832,-15,-20,-15,3,1,1,-2,-7
1504341372262840,36,51,29,-14,-9,0,4,25
1504341372262840,-25,-40,17,1,-5,-5,-7,-33
1504341372269362,-1,51,2,-6,2,3,3,-3
1504341372269362,-18,-92,-31,-1,-8,-6,-12,-31
1504341372284867,-4,25,-26,-13,-5,-4,-7,-14
1504341372284867,9,0,-22,-1,1,1,9,35
1504341372300879,3,10,36,-1,-3,-5,-9,-2
1504341372300879,2,-1,-35,2,9,6,5,-17
1504341372308373,8,-2,-10,1,-10,-16,-14,14
1504341372308373,-41,-31,-32,-19,-10,-3,-31,-23
1504341372309873,32,21,-6,1,6,16,38,15
1504341372309873,-2,-20,-24,6,-2,4,3,36
1504341372321895,-21,-35,14,-8,-4,-7,-4,-40
1504341372321895,-1,2,-43,11,7,-2,-7,0
1504341372338403,13,49,35,-13,-2,-1,-11,-6
1504341372338403,-10,39,21,7,2,-2,0,3
1504341372345909,-42,-125,-66,-9,-7,-6,-6,-3
1504341372345909,6,56,17,-4,-4,-5,-5,-28
1504341372347410,-21,-12,-5,-7,-4,-3,-4,3
1504341372347410,21,29,14,10,2,0,3,-3
1504341372368425,13,21,24,-5,-4,-2,-2,8
1504341372368425,-6,20,-11,-10,0,0,13,15
1504341372369925,-8,-59,-17,3,1,-5,-14,-28
1504341372369925,4,47,0,3,3,5,3,3
1504341372381934,3,-37,-19,-11,-5,0,1,-4
1504341372381934,16,27,1,8,3,2,9,5
1504341372390933,-12,2,52,6,3,1,3,23
1504341372390933,-18,-19,17,-13,-6,-6,-2,15
1504341372405941,-4,3,2,4,3,1,3,-13
1504341372405941,1,-4,-40,-2,-3,-2,0,5
1504341372407442,-32,-42,-84,-13,-2,-4,-4,3
1504341372407442,-3,-3,-3,14,1,1,1,6
1504341372435972,10,18,-47,-7,-1,-2,10,-2
1504341372435972,10,-56,27,9,3,-1,0,16
1504341372437473,-23,-16,-74,-6,0,1,-1,-1
1504341372437473,4,0,14,-8,-10,-8,-11,-16
1504341372450974,8,-8,37,13,3,4,2,-7
1504341372450974,17,47,40,-11,-5,-3,-2,-7
1504341372452486,8,-68,-9,8,3,1,1,18
1504341372452486,-2,-21,5,3,-4,-6,-7,-53
1504341372465984,2,36,26,-4,0,-2,3,7
1504341372465984,-16,-11,0,-16,-8,-5,-1,2
1504341372467485,14,16,24,6,3,2,1,-8
1504341372467485,-19,17,-48,-21,-7,-4,-3,15
1504341372488999,-4,-69,-91,-20,-9,-5,-4,-5
1504341372488999,17,20,7,13,4,1,-3,-6
1504341372490503,2,23,43,7,4,3,1,-7
1504341372490503,15,5,-31,2,-1,-2,4,14
1504341372502510,8,20,10,-6,-5,-3,-9,-30
1504341372502510,3,3,8,5,6,5,5,8
1504341372511016,6,52,15,8,-3,-2,-4,-3
1504341372511016,7,9,118,3,2,0,3,3
1504341372526030,-4,7,60,5,-3,-6,-4,15
1504341372526030,-13,-28,25,8,1,-1,2,7
1504341372527527,3,52,-10,11,3,1,-2,-27
1504341372527527,-3,-16,-26,-4,1,3,2,11
1504341372548542,30,67,13,5,2,3,-2,-26
1504341372548542,-7,-34,-41,-7,-4,-2,1,-3
1504341372550043,-12,-27,8,-2,-2,-5,-14,-14
1504341372550043,2,-14,5,-1,-4,-4,2,14
1504341372562052,-13,-35,-20,10,1,-3,-2,9
1504341372562052,-2,22,-16,-29,-8,-3,0,3
1504341372571058,-10,5,34,3,2,3,-5,9
1504341372571058,0,-8,-6,-5,-4,0,6,-5
1504341372593575,21,36,-1,1,3,1,-3,0
1504341372593575,-22,21,37,6,-6,-6,-1,19
1504341372596588,-13,-41,-11,-15,-3,-4,-1,10
1504341372596588,3,18,-61,2,1,4,1,7
1504341372608083,-12,-8,97,17,1,-1,1,6
1504341372608083,9,1,-114,-19,0,1,-2,-13
1504341372610085,-5,-6,24,-14,-6,-5,-4,-1
1504341372610085,-8,4,-8,6,3,5,2,-6
1504341372622594,15,-15,-42,-7,-3,-2,4,19
1504341372622594,-21,-36,13,-3,-3,-6,-13,-24
1504341372631100,8,4,-4,-7,-3,0,1,14
1504341372631100,6,-27,1,21,11,2,1,2
1504341372645610,5,14,0,-11,-1,2,-4,-21
1504341372645610,15,-25,-5,-12,-13,-11,-6,-8
1504341372647612,-5,3,-26,14,3,3,6,-7
1504341372647612,-2,-12,14,-27,-8,-6,-4,0
1504341372668140,-5,-7,-58,1,-3,-5,-1,9
1504341372668140,0,16,14,16,5,3,4,10
1504341372669645,14,45,27,11,3,5,5,2
1504341372669645,-8,-18,27,-19,-6,-7,-12,-24
1504341372682146,-20,-26,-48,-35,-4,-6,-3,4
1504341372682146,0,48,113,14,1,1,-4,4
1504341372691143,6,-42,-44,10,5,5,6,7
1504341372691143,0,3,-4,3,-2,-1,1,-7
1504341372705653,12,60,20,5,0,3,7,20
1504341372705653,-32,-67,-14,0,-2,-4,-6,-16
1504341372720673,3,52,7,11,10,9,15,13
1504341372720673,26,-15,-36,-22,-15,-12,-17,7
1504341372728169,-53,25,24,-7,-7,-6,-10,-72
1504341372728169,3,21,17,15,9,7,8,29
1504341372730191,-13,9,38,-7,0,2,-1,-8
1504341372730191,25,-40,6,5,-2,-4,-4,2
1504341372750685,26,59,6,4,1,2,2,22
1504341372750685,-12,-25,-1,4,-2,-1,0,-20
1504341372752198,-19,-14,-11,-50,-11,-11,-11,-6
1504341372752198,26,33,47,21,8,8,6,-13
1504341372765709,-4,-11,-31,2,-1,1,7,22
1504341372765709,13,23,-10,5,1,3,-12,-61
1504341372767214,-8,-3,32,34,7,0,-5,-12
1504341372767214,-35,-42,-65,-65,-16,-9,-8,0
1504341372788222,62,58,38,10,0,2,4,7
1504341372788222,-16,9,-26,8,6,7,9,19
1504341372789712,25,-21,12,-1,-3,-7,-6,-4
1504341372789712,14,49,-15,20,6,4,0,-8
1504341372818245,-30,-103,-21,33,8,3,5,1
1504341372818245,16,42,16,-39,-9,-2,6,16
1504341372819746,-4,0,-16,21,8,2,-1,-13
1504341372819746,-13,-1,-8,-2,-1,-2,2,15
1504341372826242,-15,-84,-62,-24,-13,-10,-10,22
1504341372826242,2,15,38,8,1,-2,-4,-23
1504341372827240,-14,4,46,5,-1,3,3,1
1504341372827240,-1,8,-5,11,4,2,-2,0
1504341372848271,14,66,61,-3,-1,1,-3,35
1504341372848271,12,13,-46,-17,-9,-8,-9,-30
1504341372849767,-33,-17,-3,-10,-5,-4,-6,19
1504341372849767,2,18,13,25,6,4,2,4
1504341372870782,-18,2,35,-15,3,-3,-4,-22
1504341372870782,38,23,-40,-1,2,3,2,10
1504341372872270,-8,-64,-115,-14,-4,-6,-3,-2
1504341372872270,-9,18,55,-4,-5,-2,-3,3
1504341372885781,-21,-42,-78,-11,-7,-7,-6,-28
1504341372885781,0,-25,18,4,-2,-1,0,22
1504341372887282,17,42,32,0,8,5,10,4
1504341372887282,13,38,-11,14,4,1,-2,4
1504341372908309,-39,-49,-45,-39,-24,-17,-10,-18
1504341372908309,-9,4,61,23,11,4,3,21
1504341372909815,-5,-45,-36,-4,-4,-3,2,-16
1504341372909815,12,16,-33,-2,1,-1,-9,-22
1504341372930822,26,46,55,22,10,9,4,19
1504341372930822,-34,-20,-10,-12,-6,-3,5,-3
1504341372932323,-12,22,37,0,3,4,-4,-2
1504341372932323,-26,-59,-7,-7,-6,-7,-4,-4
1504341372945323,24,16,30,12,5,0,-4,-13
1504341372945323,8,0,0,13,4,1,3,23
1504341372951837,-6,0,78,-5,-5,-3,-4,-31
1504341372951837,17,-56,-37,-11,0,-1,5,12
1504341372968849,22,96,15,10,3,3,6,17
1504341372968849,-28,-85,-28,2,-4,-6,-12,-12
1504341372970340,7,-13,-59,-27,-6,1,-3,-3
1504341372970340,-7,67,20,24,10,9,7,10
1504341372991356,0,-50,42,-13,-4,-5,5,8
1504341372991356,23,24,-36,10,5,5,4,3
1504341372992857,-20,-31,-36,-12,-4,-3,-4,1
1504341372992857,14,40,59,-1,-1,0,5,8
1504341373004865,-7,-14,36,2,-1,-2,3,1
1504341373004865,-38,-47,2,-22,-7,-5,-7,-16
1504341373011869,29,22,14,5,2,2,-4,-6
1504341373011869,18,-1,13,-10,-10,-9,-2,13
1504341373028381,-14,25,0,11,2,1,-3,0
1504341373028381,-66,9,33,-5,-3,0,-5,-24
1504341373029895,32,16,23,14,5,5,12,32
1504341373029895,-4,27,45,-13,-6,-3,-2,-35
1504341373050897,-37,-43,-96,-17,-8,-7,-11,-25
1504341373050897,36,72,39,14,4,3,6,-14
1504341373052398,-16,8,78,2,-4,-5,-20,-23
1504341373052398,-9,-6,-63,-11,3,4,4,3
1504341373064908,16,51,55,3,-5,1,1,8
1504341373064908,11,-32,-95,-4,3,1,-2,-8
1504341373071913,7,26,36,19,5,4,1,3
1504341373071913,-36,-5,-23,-4,-4,-2,-1,0
1504341373088924,20,-48,24,9,3,3,7,13
1504341373088924,30,26,16,3,1,-1,2,4
1504341373090439,-8,-12,-98,-17,-12,-3,3,1
1504341373090439,-18,21,37,6,5,1,0,-1
1504341373110959,37,0,-100,-28,-9,-4,1,12
1504341373110959,-9,-30,-5,10,7,4,0,4
1504341373112451,-9,72,74,1,1,-1,9,6
1504341373112451,3,-42,-47,14,2,-1,-8,-23
1504341373133468,-17,17,21,-14,-5,-5,-7,-24
1504341373133468,15,6,13,-5,3,3,4,19
1504341373134957,0,8,-10,9,3,1,3,-10
1504341373134957,25,35,28,10,-1,-3,-3,21
1504341373148468,-7,5,17,8,3,1,9,-2
1504341373148468,-23,-32,-55,-17,-5,-7,-16,-26
1504341373149967,-7,-50,-42,7,4,4,4,12
1504341373149967,44,31,92,7,-6,-1,3,0
1504341373170995,-27,-25,-49,-16,-10,-9,-13,-23
1504341373170995,26,18,-8,2,-5,-4,12,26
1504341373172483,7,48,7,1,3,3,-7,-23
1504341373172483,-59,-96,-95,-58,-23,-20,-11,-7
1504341373184992,-20,69,36,23,3,-1,-12,-15
1504341373184992,6,-2,6,10,3,5,4,3
1504341373192498,-5,32,91,3,5,-2,-3,7
1504341373192498,25,-25,22,-16,-2,-1,3,12
1504341373208508,18,-19,41,29,9,4,6,-7
1504341373208508,-14,44,43,-7,-8,-4,-7,-18
1504341373210009,-7,-84,-97,-21,-5,-5,-3,7
1504341373210009,21,31,12,28,9,7,7,10
1504341373231024,-72,4,44,-17,-13,-7,-12,-3
1504341373231024,9,-7,-17,18,6,0,4,-18
1504341373232525,-10,-1,-40,-21,-9,-4,-3,-8
1504341373232525,6,-6,-41,9,1,-1,4,14
1504341373244534,21,-13,6,4,5,-1,-1,7
1504341373244534,5,21,-4,8,5,6,9,27
1504341373253558,-32,-76,11,-20,-9,-9,-5,3
1504341373253558,0,17,-3,-13,-4,-1,-5,-14
1504341373268051,40,47,-12,6,0,0,6,-1
1504341373268051,-38,-33,34,2,-6,-3,-3,9
1504341373270065,45,21,26,25,16,8,8,11
1504341373270065,-12,-59,-45,15,-2,-3,-1,4
1504341373291068,-7,-15,4,-19,-9,-6,-15,-51
1504341373291068,23,50,40,14,5,5,8,20
1504341373292569,-12,-71,-47,-23,-7,-5,-3,-14
1504341373292569,-12,50,21,8,1,2,0,2
1504341373304587,24,-37,-6,11,9,5,5,32
1504341373304587,-40,-17,-21,-12,-8,-7,-4,-33
1504341373313583,98,1,-34,8,4,1,-1,24
1504341373313583,-30,-51,5,-5,-9,-9,-12,-21
1504341373328093,-23,38,-2,-13,-9,-6,0,19
1504341373328093,23,-44,-33,-16,-1,-1,-1,34
1504341373330094,-3,80,35,19,11,7,8,8
1504341373330094,35,22,8,1,-1,0,2,-2
1504341373350609,-25,-27,-115,-18,-6,-5,-3,-15
1504341373350609,-17,-82,5,-3,1,-2,-5,13
1504341373352630,-24,34,-25,6,2,6,-1,-4
1504341373352630,-14,62,101,13,4,2,6,8
1504341373373625,51,23,36,-4,3,1,-5,5
1504341373373625,-1,25,-13,4,2,2,-1,2
1504341373375127,-23,19,63,5,-4,-2,-2,-13
1504341373375127,-14,-6,-22,-9,-4,-1,-2,-8
1504341373388135,15,46,92,8,10,5,4,17
1504341373388135,-10,-22,-10,-3,-4,0,0,-9
1504341373390137,-3,48,22,-11,-5,-4,-12,-21
1504341373390137,2,15,15,2,-3,-6,-5,-17
1504341373410661,19,71,48,8,-5,-1,3,4
1504341373410661,-8,-13,65,-11,-1,-2,-11,-15
1504341373412653,-37,-29,-75,1,-11,-10,2,-4
1504341373412653,14,44,-15,-22,4,3,6,16
1504341373424661,-25,-112,-77,-19,-12,-11,-5,-11
1504341373424661,13,14,-1,4,2,0,-5,-4
1504341373433167,-33,-25,-22,0,-4,-3,-11,-7
1504341373433167,0,-32,0,8,-1,-2,11,4
1504341373448179,3,26,13,-9,1,3,3,6
1504341373448179,17,7,-40,-7,2,1,-2,-15
1504341373449679,0,-16,-1,-5,-2,-2,-2,11
1504341373449679,21,18,-12,8,2,2,-2,-7
1504341373470703,-24,-31,2,0,-4,-5,-4,-28
1504341373470703,-11,-26,24,-21,-12,-7,-5,-6
1504341373472205,-22,-7,12,-9,0,3,1,12
1504341373472205,-22,-47,-51,-6,-7,-11,-11,-5
1504341373484203,-2,9,46,12,-2,-3,-1,13
1504341373484203,-4,33,-23,0,5,2,0,-2
1504341373493711,12,-35,-62,-5,-4,-1,-2,-2
1504341373493711,3,78,109,26,0,-3,1,9
1504341373508239,3,-69,-63,-43,-5,-2,-3,-7
1504341373508239,-11,-20,-41,1,0,-5,-1,-1
1504341373509721,3,4,24,-1,2,3,2,-1
1504341373509721,8,18,-17,1,0,-1,-2,17
1504341373530736,12,9,-20,15,-1,-1,1,6
1504341373530736,-29,1,-21,-5,-3,1,2,3
1504341373532238,-28,6,-14,-7,-1,2,7,-14
1504341373532238,-12,-5,18,3,5,1,0,-2
1504341373544247,2,-47,-52,-7,-6,-5,-6,-13
1504341373544247,1,13,65,10,9,3,4,25
1504341373553264,-12,-41,6,25,6,4,4,-7
1504341373553264,38,-32,-14,-31,-6,-4,-11,-38
1504341373568275,-7,38,3,8,0,-4,-1,-1
1504341373568275,11,26,28,19,7,4,5,6
1504341373569774,-8,-42,-43,-13,-5,-4,-3,1
1504341373569774,8,39,79,15,7,5,6,7
1504341373591279,18,21,-21,-3,1,2,-15,-33
1504341373591279,-8,-40,15,3,-3,-3,-3,-14
1504341373592282,8,-2,-50,-6,-2,-3,-4,10
1504341373592282,-8,-5,-31,-16,-9,-7,5,2
1504341373613295,6,31,47,12,6,3,5,4
1504341373613295,-7,-26,-16,14,0,1,-4,2
1504341373614796,-1,19,12,-9,0,2,2,5
1504341373614796,3,-2,7,-12,0,1,1,2
1504341373628305,0,5,29,0,-7,-5,-9,10
1504341373628305,-1,10,-8,1,2,2,2,-17
1504341373629807,7,17,33,9,1,0,-3,8
1504341373629807,9,-9,-23,-12,-10,-4,-7,4
1504341373650821,-29,-41,-24,1,-2,-2,1,4
1504341373650821,1,6,6,-1,0,-1,0,5
1504341373652322,-17,3,38,-6,-1,-2,0,2
1504341373652322,-15,-14,-17,10,-2,-4,-2,-6
1504341373664331,6,-5,28,6,0,-4,-5,-1
1504341373664331,-5,-5,-21,-12,-4,2,5,5
1504341373673338,7,16,2,-6,-1,-3,-5,-5
1504341373673338,-1,-3,23,1,-4,-4,-5,-32
1504341373687347,20,3,-6,1,3,3,9,13
1504341373687347,1,23,24,-17,-3,0,1,5
1504341373694353,14,37,6,16,7,6,2,7
1504341373694353,-13,-67,-21,-14,-11,-7,-15,10
1504341373710865,8,18,-3,-17,4,-1,4,-6
1504341373710865,0,7,10,9,4,4,-3,-12
1504341373712366,3,-32,15,0,3,2,2,0
1504341373712366,0,-18,-86,7,-3,-2,2,11
1504341373733392,-12,25,-11,2,-6,-4,-8,-23
1504341373733392,-2,-5,-6,-1,4,1,-2,6
1504341373734893,7,-12,-5,-1,3,1,-2,0
1504341373734893,-1,18,-31,3,0,1,5,-4
1504341373748390,6,4,7,-11,-2,-2,-4,8
1504341373748390,6,14,-27,11,5,2,2,6
1504341373749902,-10,-8,-4,-19,-12,-6,-3,-9
1504341373749902,7,9,-27,-3,2,-2,0,6
1504341373770907,-4,16,22,11,-1,0,7,7
1504341373770907,-21,9,-11,-1,0,0,-5,-3
1504341373772407,-7,-17,6,-9,-5,-7,-2,0
1504341373772407,11,12,37,5,3,1,-2,2
1504341373793422,-2,-8,2,4,-3,0,3,5
1504341373793422,4,12,27,8,2,0,-1,-9
1504341373795923,-4,-46,-38,0,0,-2,2,7
1504341373795923,11,65,-16,-5,-2,-3,-10,-31
1504341373823443,2,-42,-20,7,1,1,0,-1
1504341373823443,-9,-42,-2,-12,-9,-7,-7,-5
1504341373824946,4,33,33,-2,1,1,-2,-6
1504341373824946,9,32,32,0,-3,-2,2,23
1504341373830448,3,-38,-13,1,0,-1,1,3
1504341373830448,2,-5,-17,1,0,-1,-3,-6
1504341373836953,-5,-18,-9,11,0,-1,-4,1
1504341373836953,0,13,15,-5,0,1,3,-1
1504341373853965,5,31,24,-3,-1,1,0,3
1504341373853965,-13,-20,-19,-2,-1,-1,3,0
1504341373855466,4,10,-16,6,0,0,0,-1
1504341373855466,-8,-9,21,-3,-3,-3,-2,0
1504341373867474,4,16,-1,6,-2,-2,-2,2
1504341373867474,-3,-12,-2,-10,3,3,0,-2
1504341373881984,6,18,-11,2,2,2,2,3
1504341373881984,-14,-5,-4,-5,-4,-5,-3,-6
1504341373890991,7,10,7,-2,-2,-3,-7,0
1504341373890991,-5,0,-5,4,1,1,2,-2
1504341373892492,-3,1,0,1,0,-2,-3,1
1504341373892492,-8,-14,1,-1,-3,-3,0,0
1504341373913507,0,14,8,11,0,-2,-2,-3
1504341373913507,3,1,8,-10,-1,0,1,6
1504341373915008,0,7,-12,-6,-1,-3,-3,-24
1504341373915008,-2,-17,16,-2,-4,-3,-5,2
1504341373928017,0,22,-36,0,-1,-2,0,1
1504341373928017,-1,0,15,4,-1,1,-3,-1
1504341373953035,-2,-7,-7,-17,-4,-1,3,4
1504341373953035,10,24,2,9,-4,-4,-3,-5
1504341373953536,-3,-9,14,-24,-4,-1,1,0
1504341373953536,-3,2,-13,3,-2,-2,-2,-3
1504341373957038,-4,1,0,4,4,1,0,2
1504341373957038,5,-7,-28,-14,-2,-2,-3,2
1504341373973549,3,4,7,3,-1,0,3,4
1504341373973549,-12,-9,0,2,0,0,-3,-5
1504341373975051,2,-2,8,10,-2,-1,-1,2
1504341373975051,-1,-5,2,-7,-1,0,2,-1
1504341373987572,5,11,-5,2,0,-2,-1,31
1504341373987572,-2,2,6,4,1,4,0,-27
1504341373994564,-6,-10,-30,2,-1,-2,-5,3
1504341373994564,3,-1,-17,-9,0,0,6,8
1504341374010578,-3,14,48,1,-3,-1,0,1
1504341374010578,5,20,-25,0,0,1,2,7
1504341374012580,-4,-13,8,-7,-3,-4,1,3
1504341374012580,8,10,-2,-1,-2,-1,0,1
1504341374033092,-2,15,7,2,-1,-1,-4,-10
1504341374033092,-2,-39,-30,3,3,2,4,8
1504341374035094,0,16,-9,-3,0,1,-1,-6
1504341374035094,-8,-27,6,0,-5,-4,-7,-7
1504341374047602,4,1,-3,-1,1,2,5,5
1504341374047602,-3,-7,-1,3,1,-2,-7,-6
1504341374054619,-1,-5,4,-3,1,2,2,8
1504341374054619,2,9,5,3,-1,-4,-2,-6
1504341374078123,-10,-5,-11,1,-2,-2,-5,0
1504341374078123,-3,-11,5,1,-1,1,1,4
1504341374080124,10,7,0,0,-2,-1,0,1
1504341374080124,-3,0,17,1,-2,-4,-3,-1
1504341374093134,2,-3,-1,-4,-2,1,2,-11
1504341374093134,-1,-3,-7,-2,0,0,5,23
1504341374095141,-8,-2,8,1,-1,-1,-2,-5
1504341374095141,4,16,-4,-7,-3,-2,-4,-3
1504341374107659,4,-1,-16,-3,-1,-3,5,-4
1504341374107659,-19,-7,-1,-4,0,-3,-13,-18
1504341374114665,3,-8,-8,1,0,1,3,7
1504341374114665,0,2,2,-1,-2,-3,-4,-4
1504341374130670,5,14,10,-1,0,-1,-1,0
1504341374130670,-7,-8,19,2,1,3,6,-2
1504341374132172,-6,-20,-34,0,0,1,-2,4
1504341374132172,2,6,14,2,0,1,-1,-2
1504341374153176,5,2,-18,-1,-1,-1,-1,-6
1504341374153176,4,13,10,-1,0,-2,-1,2
1504341374154678,-1,-25,7,1,-1,-1,-1,-2
1504341374154678,1,7,0,-1,0,-1,2,4
1504341374167687,-2,-11,-3,-5,-1,-2,-7,-8
1504341374167687,1,-5,-10,-7,-1,-2,1,5
1504341374174694,-3,7,7,6,1,-1,1,-4
1504341374174694,2,11,0,-9,-2,-2,-4,-10
1504341374191708,7,-5,18,11,3,0,2,5
1504341374191708,-9,-23,-14,-3,-2,1,2,13
1504341374193206,1,19,0,0,1,-2,-1,-2
1504341374193206,-1,-2,9,6,-8,-3,-2,-16
1504341374213231,-1,1,-12,-13,0,-1,-2,9
1504341374213231,-10,-8,-3,-3,-1,-2,0,-7
1504341374214720,6,9,9,6,0,2,1,2
1504341374214720,-4,2,9,2,-3,-4,0,4
1504341374227230,1,-17,9,-3,-2,0,0,5
1504341374227230,-4,-29,-22,0,-3,-2,-8,-6
1504341374235735,-5,1,11,-10,1,-2,1,-4
1504341374235735,9,17,-1,-3,-2,-5,-2,1
1504341374258252,-2,-9,5,5,-1,-1,0,-9
1504341374258252,0,8,-1,3,3,1,-1,-6
1504341374259752,0,2,-4,0,-4,-2,-2,-3
1504341374259752,-1,-10,-5,-1,-4,-2,0,5
1504341374273263,-6,5,-4,-1,-3,-5,-7,-14
1504341374273263,-2,-1,-4,7,5,0,3,5
1504341374274765,3,1,-9,-18,-2,-2,-1,4
1504341374274765,2,11,2,0,-2,-2,-2,-5
1504341374286786,-4,-1,6,2,-1,-2,4,12
1504341374286786,-2,-3,-7,2,0,1,-3,-17
1504341374296793,-6,-1,7,-5,-4,-2,-5,-6
1504341374296793,3,-4,-2,3,2,1,-1,4
1504341374310788,-1,4,5,-3,-3,0,1,-5
1504341374310788,2,5,-10,1,1,0,1,1
1504341374312290,-4,-4,1,9,-2,-3,-1,-4
1504341374312290,-1,-3,-16,0,3,1,1,2
1504341374333805,-3,3,-3,2,-3,-1,-3,-3
1504341374333805,0,3,3,-5,-1,1,0,6
1504341374335306,1,5,-9,-1,-1,2,2,2
1504341374335306,-2,8,10,-3,-5,-5,-7,-4
1504341374346814,0,-5,-6,0,0,2,-1,0
1504341374346814,0,5,7,-4,1,1,1,1
1504341374363325,-9,-10,-5,0,-3,-3,-2,-6
1504341374363325,2,3,2,1,0,-2,-3,-2
1504341374370831,1,3,0,-7,0,0,0,3
1504341374370831,-2,-8,-8,-2,-2,1,-2,-5
1504341374372332,3,3,5,10,-1,-1,0,3
1504341374372332,0,-4,-9,-24,-4,-1,-1,-3
1504341374395349,-2,-5,-5,4,-1,-2,-3,-7
1504341374395349,2,7,-1,4,0,0,1,-2
1504341374407874,-12,-8,1,-6,-2,-2,-3,-2
1504341374407874,6,5,0,1,-3,-2,0,5
1504341374408358,0,0,-2,0,1,-1,-3,-6
1504341374408358,-3,-11,-2,0,1,1,1,-2
1504341374415863,1,13,6,1,0,1,0,0
1504341374415863,2,-9,-1,-4,-3,-2,-1,8
1504341374430874,-5,1,3,2,-3,-4,-4,-14
1504341374430874,-3,-11,1,2,1,0,-2,1
1504341374432387,4,-2,-10,-15,0,-2,2,5
1504341374432387,-4,12,12,2,0,-1,-2,0
1504341374453389,4,-2,-4,0,-2,-2,-1,-1
1504341374453389,-5,4,1,0,1,1,0,0
1504341374454891,1,-2,12,1,-4,-4,0,-1
1504341374454891,-1,-3,-15,0,-2,-3,-1,-1
1504341374466899,-7,-2,-8,-1,-2,-2,1,0
1504341374466899,-4,1,-2,-3,0,2,0,0
1504341374481909,0,-3,0,-1,-2,0,-1,-3
1504341374481909,3,8,6,3,-2,-3,-2,-4
1504341374490915,-1,-1,-3,-2,-1,-2,0,0
1504341374490915,-3,-6,-2,-5,-1,0,2,5
1504341374492432,1,2,-5,0,2,0,-4,-6
1504341374492432,2,-3,2,1,0,-2,-1,-4
1504341374512432,-1,-2,-2,-4,-2,2,-1,1
1504341374512432,-4,-8,-3,-15,-3,-2,0,-2
1504341374520937,-5,-3,-5,0,-1,0,-3,-2
1504341374520937,3,4,4,1,-2,-2,0,-3
1504341374526942,-1,-5,0,1,1,0,-2,-4
1504341374526942,-2,0,-1,8,0,-1,-1,-1
1504341374535957,1,-2,-4,-8,-1,0,-2,-2
1504341374535957,-4,-1,0,-2,-3,-2,-2,-1
1504341374549958,2,0,1,1,-2,-1,0,-1
1504341374549958,-4,-6,-4,9,0,1,-2,-1
1504341374558465,0,1,-1,-11,-4,-3,-1,-2
1504341374558465,1,-3,-9,0,-2,-2,0,-1
1504341374573475,-2,-2,3,1,-4,-3,1,1
1504341374573475,-6,-3,-3,-3,1,0,0,-2
1504341374574980,0,-1,-3,-1,-1,-1,-2,-2
1504341374574980,2,0,4,-4,-2,0,-1,0
1504341374586996,-4,-1,-1,1,-2,-2,-3,-1
1504341374586996,-5,-2,-5,-1,0,0,0,0
1504341374595989,1,1,-3,0,2,-1,0,-1
1504341374595989,2,-1,4,-3,-4,-3,-3,-3
1504341374611000,-2,-3,-4,-1,-1,-2,-1,0
1504341374611000,-1,-2,0,-1,0,-1,0,-2
1504341374612516,0,0,-1,2,1,1,1,2
1504341374612516,1,3,2,2,-2,-2,-2,-2
1504341374633534,-3,-3,-1,-2,-1,2,-1,-1
1504341374633534,0,-2,-1,-3,1,2,1,-1
1504341374635030,-2,-2,-2,1,-1,-3,-2,-1
1504341374635030,0,2,2,-1,-2,-3,-2,0
1504341374656032,-3,-4,-3,-2,-2,-1,-1,-1
1504341374656032,-2,-1,-5,-2,-1,-1,-2,-1
1504341374658034,-2,-1,-2,2,-1,2,-1,1
1504341374658034,3,2,3,-3,-2,-2,0,0
1504341374670555,-8,-2,-2,-2,1,-1,0,-2
1504341374670555,-3,-4,-4,1,2,0,-1,1
1504341374672554,0,4,0,-1,-3,-4,-1,-2
1504341374672554,2,3,-1,-3,-3,-3,-2,-2
1504341374692558,-1,-4,-1,1,1,0,-1,0
1504341374692558,-4,-4,-2,-2,-1,0,0,-1
1504341374693560,1,3,-4,0,0,-2,0,1
1504341374693560,-1,2,2,-2,-2,-3,-4,-2
1504341374715074,0,-4,-3,-3,-1,0,-1,-1
1504341374715074,-2,-4,-1,2,1,1,-2,0
1504341374716075,-1,0,-1,-1,-1,-1,0,-3
1504341374716075,-1,0,1,-1,-2,-1,1,2
1504341374730597,-1,-2,0,-1,-1,-1,-2,-2
1504341374730597,-1,-3,-2,-1,0,0,1,0
1504341374737602,2,2,-1,0,-1,-2,-2,-3
1504341374737602,-1,1,-1,-3,-2,-3,-1,-3
1504341374752601,-2,-1,-2,-1,0,0,-1,-1
1504341374752601,-2,-3,-3,1,2,0,1,-3
1504341374753602,0,-1,0,-1,0,-1,-2,0
1504341374753602,4,-1,-1,-2,-1,-1,0,-1
1504341374776118,-2,-3,0,-1,0,-2,-1,-3
1504341374776118,-4,-4,-1,1,-1,0,-1,1
1504341374776118,-1,1,0,-1,-2,-2,-1,-3
1504341374776118,1,3,0,0,-2,-2,-1,-1
1504341374790127,-1,-1,0,-2,0,-1,0,0
1504341374790127,-5,-4,-2,-1,0,0,-2,-2
1504341374791130,-1,1,1,-2,-1,-1,-1,-2
1504341374791130,0,2,0,-1,-4,0,-1,-3
1504341374812642,-1,-4,0,2,0,0,-1,-1
1504341374812642,-3,-1,-3,-1,0,0,-1,0
1504341374813644,-1,-1,-1,-1,-2,-1,0,-1
1504341374813644,1,-1,0,0,-1,-2,-1,-3
1504341374843166,-1,-2,-1,0,1,-1,2,-1
1504341374843166,-1,-4,-3,-3,0,-1,0,-2
1504341374844165,1,0,-1,1,0,-1,-2,-1
1504341374844165,1,3,1,-1,-1,-2,-3,-3
1504341374850169,-2,-1,-1,-2,1,-2,-2,-1
1504341374850169,-3,-3,-3,-1,-1,0,0,0
1504341374850669,0,2,0,0,-1,-2,-1,-1
1504341374850669,1,1,1,0,-2,-3,-3,-1
1504341374872685,-1,-3,0,0,0,1,0,0
1504341374872685,-4,-6,-3,0,0,-1,-2,-1
1504341374873186,6,7,-1,-2,-3,-4,-2,0
1504341374873186,-1,-3,-1,-2,0,-1,0,-1
1504341374895202,-5,-3,-2,1,-1,1,-2,-2
1504341374895202,-5,1,-3,0,0,0,-1,0
1504341374895702,1,0,1,-3,-2,-1,-1,-1
1504341374895702,3,2,1,-2,-2,-3,-1,2
1504341374910212,-1,-2,0,-1,2,1,1,0
1504341374910212,-3,-3,-1,0,-1,-1,-1,-1
1504341374910712,-1,1,-2,-1,-2,-2,-1,-1
1504341374910712,1,2,0,0,-1,-1,0,-1
1504341374932727,-2,-4,-1,-1,0,1,-1,0
1504341374932727,-1,-2,-2,-1,-1,0,-1,-2
1504341374933228,0,3,-2,-1,-2,-2,-3,-1
1504341374933228,0,-1,0,-1,0,-1,-2,-2
1504341374955256,-2,-4,-2,0,-1,-1,-1,-1
1504341374955256,-2,-5,-3,0,1,-1,-1,0
1504341374955745,-1,0,-2,-4,-2,-1,-1,-2
1504341374955745,0,1,1,0,-2,-1,0,-2
1504341374969269,-2,-2,-2,0,1,0,1,-2
1504341374969269,-2,-2,-2,-1,-1,1,-2,-1
1504341374977760,-1,0,0,-1,-3,-4,1,0
1504341374977760,-1,2,-1,-1,-3,0,-2,-1
1504341374992772,-3,-3,-2,-2,0,1,-1,-1
1504341374992772,0,-3,-3,2,0,-1,-2,-1
1504341374993273,2,2,-2,-2,-1,-2,-1,-1
1504341374993273,1,2,1,-2,-3,-2,-2,-1
1504341375015286,-3,-3,-1,0,0,-1,0,-1
1504341375015286,-2,-3,-2,-3,0,1,-1,-1
1504341375015792,-1,1,0,-2,0,0,-2,-2
1504341375015792,0,2,0,-3,-1,-2,-1,-1
1504341375030296,-2,-5,-5,1,1,-1,0,0
1504341375030296,-4,-2,-1,0,0,1,0,-2
1504341375030798,3,0,1,-1,-1,-2,-1,-2
1504341375030798,1,1,0,-3,-2,-1,-2,-2
1504341375052312,-3,-3,-3,0,-1,0,0,-1
1504341375052312,-3,-2,-1,-3,-2,0,0,-1
1504341375053313,1,0,0,0,-3,-1,-1,0
1504341375053313,1,2,-2,-2,0,-3,-1,0
1504341375075332,-3,-4,0,-1,-1,-1,-2,-2
1504341375075332,-3,-3,-2,-2,0,-1,0,0
1504341375075832,0,0,-1,-2,-3,0,-3,-2
1504341375075832,1,2,1,0,-2,-3,-2,-1
1504341375089839,-2,-2,-1,2,-2,0,0,0
1504341375089839,-4,-2,-1,-2,2,0,1,-1
1504341375090844,2,1,1,2,-3,-2,-2,-1
1504341375090844,2,-1,0,0,-2,-1,-2,-2
1504341375112364,-2,-5,-2,1,1,2,-1,-1
1504341375112364,-1,-1,-3,-3,-1,-2,-1,-2
1504341375113356,0,2,-1,-4,-2,-2,-1,-3
1504341375113356,-1,1,2,-2,0,-1,0,-1
1504341375134871,-1,-3,-1,0,-2,-1,-3,-2
1504341375134871,1,-2,-4,0,-1,0,-1,0
1504341375135873,0,0,-1,-4,-2,-4,-2,0
1504341375135873,0,0,1,-1,-1,-3,0,0
1504341375149882,-2,-6,-2,-1,0,1,-1,0
1504341375149882,-3,-3,-2,0,0,0,-2,-1
1504341375150882,0,3,1,-1,-3,-2,-1,0
1504341375150882,2,1,1,-2,-2,-1,1,-3
1504341375172405,-2,-1,-1,0,0,-2,-1,-1
1504341375172405,-2,-3,0,0,0,-2,0,-3
1504341375173398,2,2,-1,-1,0,-1,-2,-2
1504341375173398,1,0,0,-2,-3,-2,-1,-2
1504341375194927,-3,-3,-4,1,1,1,-1,-1
1504341375194927,-2,-3,-2,-2,-1,1,-3,0
1504341375196927,0,3,-2,-3,-3,-3,-2,-1
1504341375196927,0,1,0,-3,-3,0,-3,0
1504341375209431,-2,-5,-2,-3,1,0,1,-1
1504341375209431,-2,-4,-2,0,0,-1,1,0
1504341375217441,3,1,2,-2,-4,-4,0,0
1504341375217441,0,1,-1,1,-3,-1,-1,-3
1504341375232440,-4,-3,-2,-1,1,0,0,0
1504341375232440,-2,-3,-2,-2,1,1,0,-2
1504341375233440,0,2,0,-2,-3,-1,-2,-2
1504341375233440,-1,-2,1,-1,-2,-2,-2,-1
1504341375254956,-2,-4,-2,0,-2,0,-1,0
1504341375254956,-2,0,-3,2,0,-1,-1,0
1504341375255957,1,2,-2,-2,0,-1,-1,-1
1504341375255957,2,0,0,-2,-2,-3,-4,-1
1504341375270968,-3,-2,-2,-1,1,0,0,-1
1504341375270968,-3,-1,-1,-1,0,0,-1,-2
1504341375277473,2,3,1,-2,-2,-2,0,-1
1504341375277473,0,0,1,1,-1,-2,0,0
1504341375292483,-3,-5,-2,0,-1,-2,-2,-1
1504341375292483,-2,-4,-2,2,0,0,0,-1
1504341375293483,0,3,-1,-2,-2,-2,-2,-1
1504341375293483,1,0,-1,-1,-1,0,0,-1
1504341375315047,-3,-4,-1,-2,-1,-1,-1,0
1504341375315047,-3,-3,-3,-1,-1,-3,-1,-3
1504341375315536,1,2,0,-2,-2,-1,-1,-1
1504341375315536,-2,1,1,-1,-1,-1,1,0
1504341375329544,-2,-3,-4,0,-1,0,-1,-1
1504341375329544,-3,-3,-2,0,0,1,0,-1
1504341375337560,2,1,-1,-1,-2,-2,0,0
1504341375337560,-1,-1,-1,-2,-2,0,-3,-1
1504341375352561,-3,-4,-2,0,-2,-1,-1,0
1504341375352561,-2,-2,-5,-1,-1,-1,1,0
1504341375353061,2,2,2,-2,-3,-1,-1,-2
1504341375353061,2,2,2,-2,-1,-1,-3,-1
1504341375375079,-4,-5,-1,1,-1,1,1,0
1504341375375079,-3,-3,-1,-1,0,1,0,-1
1504341375375581,2,0,1,0,-1,-2,-1,-3
1504341375375581,1,1,-2,-1,-3,-3,-2,-1
1504341375389587,-5,-5,-2,-2,0,0,-1,-1
1504341375389587,-2,-2,-3,-3,-2,-1,-2,-1
1504341375397594,0,2,-1,-1,-1,-3,0,0
1504341375397594,1,1,0,-2,-2,0,0,0
1504341375412604,-3,-4,-3,1,0,-1,0,-2
1504341375412604,-2,-3,-3,-2,1,1,-1,0
1504341375413605,-1,1,-2,-2,-3,-3,-3,-1
1504341375413605,0,1,1,0,-1,-3,-2,-2
1504341375435120,-5,-2,-1,-1,0,2,-2,-2
1504341375435120,0,-4,-2,-1,-1,-2,-1,-2
1504341375435619,1,3,0,0,0,0,-2,-1
1504341375435619,-1,-3,-2,0,0,-3,0,0
1504341375449630,-2,-3,-1,-3,2,1,0,-2
1504341375449630,-1,-2,-3,1,1,0,-1,1
1504341375457637,2,0,1,-3,-2,-3,-2,-1
1504341375457637,0,-1,2,-1,-1,-2,0,-1
1504341375472646,-3,-3,-2,2,1,0,-1,-1
1504341375472646,-5,-4,-1,0,-2,0,1,0
1504341375473147,0,4,-2,-4,-3,-2,-1,-1
1504341375473147,-1,2,-1,-2,-2,-2,-1,-1
1504341375495162,-2,-7,-2,-1,1,0,3,0
1504341375495162,-2,0,-2,-1,0,-1,-2,0
1504341375496162,0,2,2,-1,-2,-1,0,-2
1504341375496162,-1,1,1,0,-1,-2,-2,-3
1504341375509172,-2,-5,-3,-1,1,0,-3,0
1504341375509172,-2,-1,-2,1,0,0,0,-2
1504341375525183,1,1,-1,-3,-3,-3,-1,0
1504341375525183,0,0,0,0,-3,-1,-1,-2
1504341375532700,-4,-2,-2,0,2,-1,-2,-2
1504341375532700,-2,-2,-2,-1,-2,1,-1,0
1504341375533188,1,3,-1,0,0,-2,-1,-2
1504341375533188,1,-1,1,-1,-3,-1,-1,-1
1504341375555216,-3,-4,-4,0,1,0,-1,1
1504341375555216,-2,-2,-1,0,-1,-1,0,-1
1504341375555704,0,2,1,-3,-4,-1,-2,-2
1504341375555704,1,3,6,0,-2,0,-1,-1
1504341375578222,-3,-5,-14,0,-1,1,-1,-2
1504341375578222,-2,-4,0,-4,0,0,-1,-1
1504341375579225,2,2,0,-2,-1,-2,-1,1
1504341375579225,1,-1,0,-1,1,-3,-2,1
1504341375592735,0,-2,2,1,-1,0,0,-1
1504341375592735,-2,-1,-2,-2,0,0,1,0
1504341375593245,1,1,0,0,-2,-3,-1,-1
1504341375593245,-1,2,0,-2,-1,0,-1,0
1504341375615247,-2,-3,-2,2,1,1,0,-1
1504341375615247,-1,-2,-6,0,0,1,0,0
1504341375615748,2,2,2,-2,-1,-2,-1,-2
1504341375615748,-1,-2,-2,-2,-3,-3,-1,-1
1504341375638263,-3,-4,-1,-1,-1,-2,-1,-1
1504341375638263,-1,-1,0,0,0,-1,0,-2
1504341375638763,2,4,-2,-1,-1,0,-2,0
1504341375638763,0,0,-2,-2,-2,-3,-1,0
1504341375652273,-4,-4,-2,0,-1,-1,0,-1
1504341375652273,-2,-3,0,-1,-1,-3,-1,0
1504341375653274,1,4,0,-3,-2,-3,-2,-1
1504341375653274,-1,1,-2,-2,-1,-1,-1,0
1504341375683295,-4,-6,0,0,0,0,-2,-1
1504341375683295,-2,-1,-3,-1,-1,-2,-1,-2
1504341375683795,1,4,-1,-2,-2,-2,-2,-1
1504341375683795,0,-3,-1,-1,-1,-1,-1,-1
1504341375697305,-4,-2,-1,0,-1,0,0,-1
1504341375697305,-2,-2,-2,2,-1,0,-2,-1
1504341375713817,0,1,0,-2,-2,-3,0,-2
1504341375713817,0,0,1,-1,-2,-2,0,-3
1504341375715318,-4,-3,-2,-2,3,1,-1,0
1504341375715318,-2,-2,-2,1,-2,0,-1,0
1504341375716319,0,2,3,-1,-1,1,0,-2
1504341375716319,0,-1,-5,-1,-1,-2,-1,0
1504341375734831,-3,-3,1,-2,-2,-1,0,-1
1504341375734831,-2,-2,-2,-3,0,-1,-1,-1
1504341375735832,2,1,-1,-2,-2,-4,-1,0
1504341375735832,-1,3,1,0,0,-1,0,-3
1504341375758348,-2,-5,-1,3,2,1,0,0
1504341375758348,-2,-3,-2,-3,-1,-1,-2,-2
1504341375758849,2,2,2,-1,-4,-2,-1,1
1504341375758849,-1,-1,-1,0,-1,0,-1,-3
1504341375772358,-2,-2,-1,-1,1,-2,-1,-1
1504341375772358,-4,-3,-1,-2,1,-1,-1,-3
1504341375773359,2,3,-1,1,-3,-1,-1,0
1504341375773359,1,-1,1,0,-2,-3,-2,-1
1504341375803383,-4,-6,-4,0,-1,0,-1,0
1504341375803383,-2,2,-1,0,0,1,-3,-1
1504341375803892,0,3,-1,-3,-1,0,0,-2
1504341375803892,-1,1,2,0,-3,0,-1,-1
1504341375818400,-2,-5,-3,1,-1,-1,-2,-1
1504341375818400,1,0,-2,-2,-2,-1,1,0
1504341375818890,2,2,1,-1,-1,-3,0,-1
1504341375818890,1,1,0,-2,-1,0,-1,-1
1504341375832410,-4,-5,-2,0,1,1,0,1
1504341375832410,-1,-2,-3,1,-1,0,1,-1
1504341375833411,1,1,0,-3,-2,-4,-3,-1
1504341375833411,0,1,0,-2,-3,0,0,-1
1504341375854916,-4,-2,-2,0,1,0,-2,-2
1504341375854916,-2,0,-3,-2,-1,-1,0,-1
1504341375855917,2,2,0,0,-3,-2,-2,0
1504341375855917,-1,1,1,0,-1,0,-2,1
1504341375885456,-5,-6,-2,-4,0,0,-1,-3
1504341375885456,-2,-4,-1,-1,-1,-1,0,-1
1504341375886452,1,3,1,-1,-1,-1,-1,-3
1504341375886452,1,0,-1,0,-2,-3,-3,-1
1504341375893944,-2,-3,-1,-1,-1,0,-1,0
1504341375893944,-1,0,-1,-2,-2,-1,-1,-1
1504341375895947,2,0,2,-1,-3,0,-1,-2
1504341375895947,1,-1,-1,-3,-1,-2,0,-2
1504341375915459,-4,-7,-5,-2,2,0,0,-2
1504341375915459,-1,-1,-2,-2,-2,-1,0,-1
1504341375916478,2,3,2,-3,-3,-2,-1,-1
1504341375916478,0,1,1,1,0,-3,-1,-2
1504341375937975,-3,-4,-3,2,-2,1,-2,-1
1504341375937975,-2,-4,-3,-1,0,-1,0,-1
1504341375938993,-1,2,-2,-3,-4,-3,-3,-2
1504341375938993,-1,1,-2,-1,-1,-2,-2,-1
1504341375952497,-5,-5,-2,-1,0,2,0,-1
1504341375952497,-2,-1,-1,0,0,0,-2,-1
1504341375953504,2,3,2,0,-3,-5,0,0
1504341375953504,-1,-5,0,-1,0,-2,-1,-2
1504341375975506,-2,-4,-2,2,1,1,2,0
1504341375975506,-1,-1,-2,1,0,0,0,-1
1504341375976006,2,2,2,-4,-2,-2,-2,-2
1504341375976006,0,-1,0,-2,-3,-3,-2,-2
1504341375998030,-3,-5,-4,0,0,0,-2,-1
1504341375998030,-2,1,-1,-1,0,0,1,0
1504341375999018,1,2,0,-4,-2,-2,-3,1
1504341375999018,-1,0,-1,-2,-3,0,-1,-1
1504341376012533,-2,-2,-1,-2,-1,0,-2,-1
1504341376012533,0,-3,-1,1,-2,-1,-1,-1
1504341376013529,2,2,0,-1,-3,-3,-1,-1
1504341376013529,1,0,0,-2,-2,-3,-1,-2
1504341376035043,-4,-6,-2,-1,2,1,2,0
1504341376035043,-2,-2,-2,-1,-2,-1,-3,0
1504341376035543,1,4,-1,-1,-3,-4,-3,1
1504341376035543,0,-1,-1,0,-3,-1,-4,1
1504341376058561,-4,-4,-2,2,3,2,0,0
1504341376058561,0,-1,-2,-3,-2,-2,1,-2
1504341376059561,1,1,0,-4,-3,-1,-1,-2
1504341376059561,-1,-2,0,0,-4,-1,-2,-1
1504341376072570,-3,0,-2,0,0,1,1,-1
1504341376072570,0,-1,-2,0,0,0,0,-1
1504341376073070,2,2,1,-2,-1,-3,0,-3
1504341376073070,-2,-1,-1,-1,0,0,-1,0
1504341376095088,-4,-5,-2,-1,-1,-2,-1,0
1504341376095088,-2,-3,-1,-2,-1,-1,-2,0
1504341376096588,2,3,-1,-3,-2,-2,-1,-1
1504341376096588,-2,0,0,-1,1,-1,-2,-1
1504341376118114,-3,-5,-3,-2,1,0,1,-2
1504341376118114,0,-1,-2,1,0,0,-1,-1
1504341376119113,2,1,1,-1,-4,-3,-1,0
1504341376119113,0,-2,1,-2,-1,-3,0,-1
1504341376132625,-2,-1,-4,-1,0,1,-1,-1
1504341376132625,-2,-1,-2,-3,1,0,0,-1
1504341376133117,1,2,1,-3,-2,-1,-2,-2
1504341376133117,-1,-1,-2,0,0,-2,0,0
1504341376163134,-4,-4,-4,0,-1,-2,-2,0
1504341376163134,-1,-1,-1,-2,-1,-1,-1,0
1504341376164147,1,3,2,-2,1,-1,0,-2
1504341376164147,1,-1,0,0,-3,0,-1,0
1504341376178146,-3,-3,-2,0,-2,-1,1,-2
1504341376178146,-1,-1,-1,-3,-2,0,-1,0
1504341376179146,2,3,-1,-2,-1,-2,-1,1
1504341376179146,-1,0,-1,-1,0,-1,0,-3
1504341376192172,-5,-5,-2,0,0,2,-2,-1
1504341376192172,-1,-4,-2,-1,-1,-2,-3,0
1504341376200174,0,0,1,-2,-3,-5,-3,-1
1504341376200174,-2,-1,0,-2,1,-2,0,-1
1504341376223176,-3,-2,-1,-1,1,1,0,0
1504341376223176,-1,0,0,-2,-1,-1,-2,-2
1504341376224178,0,2,0,-2,-2,-1,-1,-4
1504341376224178,-1,-2,1,0,0,1,0,2
1504341376238187,-2,-5,-2,-3,0,0,0,-1
1504341376238187,-1,1,-3,1,0,0,0,0
1504341376239199,1,2,1,2,-1,-1,0,-1
1504341376239199,0,0,1,-1,-3,-1,0,-2
1504341376251696,-3,-4,-4,-1,-1,0,-2,-1
1504341376251696,-3,0,-3,-2,-1,1,0,0
1504341376260220,1,3,1,-2,-2,-3,-2,0
1504341376260220,-1,1,-1,-2,-1,-1,-1,0
1504341376275216,-1,-2,-2,-1,0,2,0,-1
1504341376275216,-2,0,-2,-2,-2,-1,1,1
1504341376275713,1,1,1,-2,-3,-2,-2,-1
1504341376275713,-1,-1,-1,-1,-1,1,-2,-1
1504341376298230,-3,-3,-4,-1,0,0,-2,-1
1504341376298230,0,2,-4,0,-2,-2,-3,-3
1504341376298730,0,2,0,-2,-3,-2,-2,0
1504341376298730,0,-1,1,-3,0,-2,-2,-2
1504341376320746,-3,-5,1,0,-1,0,0,0
1504341376320746,-1,-1,-1,0,0,-1,0,0
1504341376321747,1,2,1,1,-2,-2,-1,-1
1504341376321747,-1,0,-2,0,-2,-1,-1,-2
1504341376335256,-1,-4,-3,1,-1,0,0,0
1504341376335256,0,-4,0,-2,-1,-2,-1,-3
1504341376335756,2,2,1,-3,-4,-2,-2,-2
1504341376335756,-2,-3,-2,-2,-1,-2,0,-3
1504341376358272,-4,-4,-2,-1,0,-2,0,-1
1504341376358272,0,0,-2,-1,-2,0,0,1
1504341376359272,1,0,0,-1,-2,0,0,-2
1504341376359272,-2,-1,-1,0,-2,-1,0,-1
1504341376371782,-3,-4,-2,0,0,-1,0,-1
1504341376371782,0,-1,-2,-1,0,1,-2,-1
1504341376380289,1,1,1,1,-1,-1,-1,-1
1504341376380289,-1,-1,1,1,1,-1,-3,-1
1504341376396298,-4,-4,-1,2,-1,1,-2,-2
1504341376396298,-1,0,-1,0,-1,-2,0,0
1504341376396799,1,3,1,-3,-3,-3,0,-1
1504341376396799,-2,-2,0,-1,1,1,-1,0
1504341376418315,-3,-1,-3,-2,-1,1,-1,-2
1504341376418315,-1,-2,0,-2,-1,-1,-1,-1
1504341376418815,1,1,0,0,-1,-1,-1,-1
1504341376418815,1,-1,-1,-1,0,0,1,-1
1504341376431837,-2,-3,-3,0,2,0,-1,-1
1504341376431837,-2,1,-2,-1,-2,-2,-3,-1
1504341376439842,0,0,0,-3,-3,-2,-2,-2
1504341376439842,-1,-1,-1,0,-2,0,-1,-1
1504341376454841,-3,-2,-1,1,-1,0,1,-2
1504341376454841,-2,-1,0,-1,1,0,1,-1
1504341376455841,1,0,2,0,-1,-3,0,0
1504341376455841,0,-1,-1,-2,-1,-2,-2,-2
1504341376478369,-3,-5,-2,-1,0,1,0,-1
1504341376478369,-2,-2,-1,-2,-2,-3,-1,-1
1504341376478859,1,0,0,-1,-2,-2,-2,-1
1504341376478859,-2,-1,1,0,-1,-1,-1,-1
1504341376492369,-3,-3,-5,-2,1,1,-1,-1
1504341376492369,-1,1,-3,-1,-2,-1,-1,-1
1504341376499885,0,1,-3,-2,-3,-2,-2,-2
1504341376499885,-2,-2,-3,1,-1,-1,-1,-1
1504341376514900,-2,-4,-2,-1,1,0,2,-1
1504341376514900,0,-1,0,-3,-1,0,-2,0
1504341376515903,1,0,2,-4,-2,-2,0,-1
1504341376515903,-3,-4,-1,-1,-2,-1,0,0
1504341376545405,-2,-5,-4,-2,-1,0,1,-1
1504341376545405,1,0,0,0,-2,-1,-1,-1
1504341376546406,2,4,2,0,-1,-2,-1,-1
1504341376546406,-2,-1,1,-2,1,-3,-2,0
1504341376560415,-3,-1,-1,-1,1,0,-1,-2
1504341376560415,-2,0,0,-1,-2,-1,-1,0
1504341376561416,2,2,0,-1,-1,-4,-1,-2
1504341376561416,-2,-2,-1,0,-3,0,-1,-1
1504341376582932,-3,-3,-4,-1,0,-1,-1,-1
1504341376582932,-1,1,-2,-4,-1,-1,-2,-2
1504341376583934,0,4,0,-2,-2,0,0,-1
1504341376583934,-2,-1,1,-1,0,0,0,0
1504341376597954,-3,-3,-2,-3,-1,-2,-2,-1
1504341376597954,1,0,-3,1,-4,-2,-1,0
1504341376598954,1,0,1,0,-2,-2,-2,-2
1504341376598954,2,-2,-1,0,-2,-3,-2,-2
1504341376620467,-3,-2,-2,1,-2,0,-1,-1
1504341376620467,-1,0,-1,0,0,-2,0,-2
1504341376621460,-1,0,-1,-2,-2,0,-3,-2
1504341376621460,-1,-4,-1,-2,-1,0,-1,-1
1504341376635480,-1,-3,-3,1,0,-2,-2,1
1504341376635480,1,4,-1,1,0,0,-2,0
1504341376636481,2,0,3,-3,-3,-5,-1,0
1504341376636481,0,-1,-2,-1,-1,0,1,0
1504341376658510,-3,-3,-4,0,1,1,-1,-3
1504341376658510,-1,1,-2,0,-2,-3,-1,-3
1504341376658986,-1,3,3,-3,-3,-2,-2,-2
1504341376658986,-1,-3,1,1,-2,0,-3,-3
1504341376680500,-2,-3,-1,-1,-2,0,0,-2
1504341376680500,2,0,-1,-4,-2,-4,-1,-2
1504341376681503,0,3,-1,-1,-2,-1,-2,0
1504341376681503,-3,-2,-2,-1,0,0,0,2
1504341376694512,-1,-2,-2,0,-1,-1,0,-1
1504341376694512,1,-2,-2,-2,-1,-1,0,-3
1504341376703516,2,1,-2,-1,-1,-2,0,-3
1504341376703516,0,-2,-1,-1,-1,-2,-1,-3
1504341376718528,-3,-3,-3,-2,-2,1,-3,-1
1504341376718528,-2,0,1,-2,-1,-3,0,1
1504341376720028,3,1,0,-2,-3,-2,-1,0
1504341376720028,-3,-3,-1,0,-1,0,-1,-2
1504341376740550,-2,-2,-3,-1,0,-1,-1,-1
1504341376740550,0,0,-1,-1,-3,-4,0,0
1504341376742044,1,2,0,-1,-1,-2,-3,0
1504341376742044,-1,-4,-2,-1,0,-1,1,-1
1504341376754553,-3,0,0,-2,0,0,0,-2
1504341376754553,0,-1,-3,-2,-3,-2,-2,-1
1504341376763571,0,1,2,-2,-1,-3,-1,0
1504341376763571,-3,-2,-2,-1,-1,-1,-1,-1
1504341376778068,-3,-4,-2,0,-1,-1,0,-1
1504341376778068,0,4,5,-1,-1,-1,0,0
1504341376779571,-2,-1,-8,-1,-1,0,-2,-2
1504341376779571,-3,-4,-1,0,2,-2,1,0
1504341376800584,-2,-5,-3,2,1,1,-2,0
1504341376800584,0,1,-2,-1,-3,-2,-3,-2
1504341376802085,2,2,4,0,-3,-2,0,0
1504341376802085,-1,-1,-1,-1,0,1,0,-2
1504341376815095,0,1,-2,-1,3,0,-3,1
1504341376815095,4,2,-1,0,-1,-1,-1,-2
1504341376821599,1,2,1,-1,-2,-1,-3,-2
1504341376821599,-2,-6,-2,1,-1,0,0,0
1504341376838112,-3,-3,-1,-4,-1,-1,2,-1
1504341376838112,1,0,-2,-1,-2,-3,-2,-3
1504341376839613,1,1,1,0,-1,-2,0,0
1504341376839613,-5,-3,-2,0,-2,-2,-3,-2
1504341376860628,-3,-4,-2,1,-1,0,0,0
1504341376860628,0,2,-2,-2,-3,-2,0,-1
1504341376862129,0,0,-1,-2,-2,-2,0,-1
1504341376862129,-2,-2,-1,0,2,0,-1,0
1504341376875652,-3,-4,-3,-1,0,0,-1,-2
1504341376875652,0,1,1,-1,-1,-3,-4,-1
1504341376881642,0,1,0,-1,-2,-4,0,-2
1504341376881642,-2,-3,-1,0,1,0,-1,-2
1504341376905671,-3,-2,-1,-2,-2,-1,0,-2
1504341376905671,-1,2,0,-2,-1,-1,1,-1
1504341376907161,2,0,2,-1,-2,-3,-2,0
1504341376907161,-2,-2,-1,0,0,-1,-1,-2
1504341376920669,-2,-2,-3,2,2,1,0,1
1504341376920669,0,1,-1,1,-2,-1,-2,0
1504341376922170,0,1,1,-2,-2,-2,-3,-3
1504341376922170,-1,-3,-2,-3,-1,-1,2,0
1504341376943686,-2,-4,-1,-1,-2,-1,-1,0
1504341376943686,1,1,-2,1,0,-2,-2,2
1504341376944686,1,0,-2,-3,-1,-3,-2,0
1504341376944686,-4,-4,-1,0,-2,-2,-1,-2
1504341376958196,-3,-2,-4,-1,-1,0,-1,0
1504341376958196,2,1,2,-3,-1,-1,0,0
1504341376959697,2,1,3,0,-1,0,0,-2
1504341376959697,-2,-2,-2,-1,0,0,-1,0
1504341376980718,-2,-4,-1,1,2,0,-1,-2
1504341376980718,-1,3,0,-1,-4,-2,-1,0
1504341376982214,-1,2,1,-1,-3,-1,-1,-2
1504341376982214,-4,-3,-3,-1,0,0,-1,-1
1504341376995722,-2,-3,-4,0,0,0,-1,0
1504341376995722,1,2,0,-3,-1,-1,-1,0
1504341377001727,0,0,1,-3,-2,-2,-2,-3
1504341377001727,-1,-3,-3,-1,1,1,-1,-1
1504341377018238,-3,-1,-2,0,0,0,-1,-2
1504341377018238,1,3,-1,-2,-2,0,-2,-1
1504341377019740,0,0,1,-2,-2,-2,-1,1
1504341377019740,-2,-6,0,0,0,-1,-2,1
1504341377040755,-2,-2,-1,-1,0,-1,2,-2
1504341377040755,1,3,-1,-2,-3,-2,-1,-2
1504341377042256,2,1,0,-2,-2,-2,-1,0
1504341377042256,-3,-2,-1,-2,-1,-1,-3,-1
1504341377054264,-2,-2,-2,0,1,2,0,0
1504341377054264,2,0,0,-1,-1,-2,-1,-1
1504341377063288,1,0,-1,-3,-3,-4,-3,0
1504341377063288,-2,-6,0,-1,1,1,2,0
1504341377078281,-2,-3,-4,-4,-2,-2,-3,-1
1504341377078281,0,0,0,-3,-3,-4,0,-3
1504341377079782,0,2,0,1,-1,-2,0,1
1504341377079782,-3,-3,-3,0,-2,-2,-1,-2
1504341377108302,-2,-1,-4,-2,0,0,-1,-1
1504341377108302,1,0,0,-1,-2,-1,-2,-1
1504341377109803,-1,-1,0,-2,-2,-2,-1,-4
1504341377109803,-3,-3,-2,1,0,2,-1,-1
1504341377114307,-1,-3,-2,0,-1,-1,-1,1
1504341377114307,2,3,0,-3,-2,-2,-1,0
1504341377123325,0,1,1,-1,-2,-2,-2,-2
1504341377123325,-3,-4,0,0,0,0,-1,-3
1504341377138323,-5,-4,-2,0,-1,-1,-1,-2
1504341377138323,1,1,1,-3,-2,-1,-3,-1
1504341377139824,1,-2,-1,-2,-1,0,0,-2
1504341377139824,-3,-3,-2,2,-1,-1,-2,0
1504341377159838,-3,-5,-3,0,1,1,-2,0
1504341377159838,0,3,-1,-2,-2,-2,-1,-2
1504341377168346,0,1,1,0,-4,-2,-2,-1
1504341377168346,-3,-4,-3,-2,0,-1,0,-2
1504341377174349,-2,-4,-2,-2,0,-1,0,-1
1504341377174349,1,2,0,-2,-1,-3,-2,0
1504341377183356,0,2,1,-2,-1,-2,-2,-2
1504341377183356,-1,-2,-2,0,0,2,0,0
1504341377198366,-1,-1,-2,-1,-1,-1,0,0
1504341377198366,0,1,-1,-2,-2,-2,-1,1
1504341377199867,-1,1,0,-3,-1,0,0,-1
1504341377199867,-3,-6,-1,2,0,0,0,1
1504341377220882,-4,-2,-2,-1,0,-2,0,-1
1504341377220882,2,3,0,-3,-3,-1,-3,-2
1504341377222395,-1,-2,-1,-1,-2,-3,-2,-1
1504341377222395,-2,-5,-2,0,1,0,0,-2
1504341377234391,-2,-1,-1,1,1,2,-1,-1
1504341377234391,2,2,1,0,-2,-5,-2,-2
1504341377243398,-2,2,-1,-2,-3,-2,-2,0
1504341377243398,-2,-6,-2,-2,-1,-1,-1,-1
1504341377258409,-1,-3,-3,0,1,0,0,-1
1504341377258409,1,1,-2,-1,-1,-3,0,-1
1504341377259911,1,1,0,-3,0,-1,-1,-2
1504341377259911,-2,-3,-3,3,2,0,-1,-1
1504341377280934,0,-2,-4,-2,-2,0,-1,-1
1504341377280934,0,0,0,-1,-2,-1,-1,-1
1504341377282435,0,0,0,-1,0,-1,0,-1
1504341377282435,-3,-3,-2,0,-1,-2,-2,-1
1504341377294457,-1,-3,-2,-1,1,-1,-1,-2
1504341377294457,3,1,1,-2,-2,-1,0,-3
1504341377303441,2,1,-1,0,-2,-2,-1,0
1504341377303441,-4,-6,-1,-1,0,0,0,-1
1504341377317963,-2,0,-2,-1,0,0,0,1
1504341377317963,1,3,-1,-2,-3,-1,-2,-2
1504341377319964,1,0,0,0,-1,1,-1,-1
1504341377319964,-3,-4,-2,-2,-1,1,-1,-1
1504341377340467,-3,-2,-2,-2,-2,-2,-3,1
1504341377340467,2,3,0,-1,-3,0,-2,-1
1504341377342469,1,0,0,-2,-1,-2,-2,-2
1504341377342469,-4,-4,-2,-1,0,-1,0,0
1504341377354477,-2,0,-1,-1,-2,-2,1,-1
1504341377354477,0,2,1,1,-1,-3,1,1
1504341377363483,-1,0,-1,-1,-2,-2,-2,0
1504341377363483,-3,-5,-4,-1,0,2,-1,-2
1504341377377999,-3,-1,-1,-1,0,0,-2,1
1504341377377999,0,3,1,1,-2,-3,-2,-1
1504341377379494,2,-1,1,-1,-3,-3,1,-2
1504341377379494,-4,-5,-3,-2,0,2,0,-1
1504341377400510,-1,-3,-3,-1,-1,1,0,-1
1504341377400510,1,2,-1,-3,-2,-3,-1,1
1504341377402011,-1,-1,0,-1,-3,-3,-2,-2
1504341377402011,-3,-3,-2,1,2,0,1,-1
1504341377414030,-2,-2,-1,0,1,1,0,-3
1504341377414030,0,2,1,-1,-3,-1,-1,-1
1504341377423538,1,0,-2,-2,-3,-4,-3,-2
1504341377423538,-2,-6,-2,-2,0,-1,0,0
1504341377438035,-3,-3,-1,-1,-1,0,-2,-1
1504341377438035,0,1,-1,0,0,-2,-2,-3
1504341377439541,-1,1,2,-2,-1,-1,-1,1
1504341377439541,-2,-3,-1,1,0,1,-1,-1
1504341377460551,-1,-5,-1,-2,-2,-1,-1,-1
1504341377460551,1,3,1,-5,-3,-1,-2,-1
1504341377462052,0,1,0,0,2,-1,2,0
1504341377462052,-3,-3,-5,1,0,0,-3,-2
1504341377483067,-2,-2,-3,-1,-1,0,-2,-2
1504341377483067,3,-1,0,-1,-3,-1,-2,1
1504341377484573,2,0,0,-3,0,-1,-1,0
1504341377484573,-3,-4,-1,1,1,1,0,-2
1504341377513088,-3,-2,-1,0,0,-1,0,0
1504341377513088,3,3,0,-2,-2,-1,-1,-1
1504341377514590,0,0,2,0,-3,-3,-3,-1
1504341377514590,-4,-5,-1,-2,-1,-1,-2,-1
1504341377520594,0,-2,-1,0,-1,-2,0,0
1504341377520594,2,2,-1,-2,-2,-2,-1,-1
1504341377522095,0,0,0,0,-2,-1,-1,-1
1504341377522095,-4,-4,-3,-2,-2,-1,-1,-1
1504341377543110,-3,0,0,0,-1,-1,-1,-2
1504341377543110,2,2,-1,-3,-1,-1,-2,1
1504341377549113,0,1,-2,-1,-1,-1,-1,-2
1504341377549113,-3,-4,-2,-1,0,-1,-1,0
1504341377557120,-2,-2,0,-2,-1,0,-1,-1
1504341377557120,1,2,1,-2,-1,-4,-1,-1
1504341377573131,0,0,-2,-1,-2,-1,-1,0
1504341377573131,-3,-3,-3,2,1,3,1,0
1504341377580636,-1,-1,-3,-3,0,-2,-1,-2
1504341377580636,1,2,1,-1,-1,-3,-2,-3
1504341377582138,-1,1,0,-2,-1,0,-1,-1
1504341377582138,-2,-4,-2,0,-2,0,-1,1
1504341377603164,-1,-3,-3,-1,-2,0,0,1
1504341377603164,0,1,-1,-2,-2,-2,-1,-1
1504341377604653,-1,0,0,-2,0,-3,-3,-1
1504341377604653,-4,-4,-3,1,2,0,-2,-2
1504341377617675,-1,-3,-2,-2,-2,0,-1,0
1504341377617675,1,3,-1,-2,-3,-1,-1,0
1504341377624167,1,-1,1,1,-2,-1,0,0
1504341377624167,-2,-3,-3,-1,0,0,0,-2
1504341377640679,-4,-2,-2,0,0,0,-1,-1
1504341377640679,3,1,1,-2,-2,-3,-3,-2
1504341377642182,-1,1,0,-2,-1,-1,-2,0
1504341377642182,-2,-4,-1,-1,0,1,-2,-2
1504341377663714,-1,-3,-3,0,-2,0,-1,0
1504341377663714,3,2,0,-1,-3,-2,-1,-1
1504341377665197,0,1,0,0,-1,0,0,-3
1504341377665197,-5,-4,-3,-1,0,-1,-1,0
1504341377677704,-1,-1,-2,-3,0,-3,-2,-1
1504341377677704,-1,2,0,0,-3,-2,-2,-2
1504341377684210,0,0,0,-3,-3,-3,-2,-1
1504341377684210,-4,-5,-1,0,0,1,1,-1
1504341377700721,-1,-1,-1,2,0,3,-1,-1
1504341377700721,1,2,1,-2,-2,-2,-1,-1
1504341377702235,-1,-4,-1,-1,-1,0,-2,0
1504341377702235,-1,-6,-2,-1,0,0,-2,1
1504341377723237,-2,0,-2,-1,-2,-2,-1,0
1504341377723237,3,3,0,-3,-3,-2,-1,-1
1504341377724738,-1,-2,0,0,-2,-1,-2,-2
1504341377724738,-4,-4,-4,0,1,1,0,-1
1504341377737776,-1,-1,-1,-2,0,-1,1,0
1504341377737776,2,2,2,-1,-4,-2,-1,-2
1504341377744752,-1,0,-1,-1,-1,-1,1,-1
1504341377744752,-3,-4,-3,1,1,0,1,-1
1504341377760764,0,-1,-2,-2,0,-1,-1,-1
1504341377760764,2,2,1,-2,-2,-2,-3,-2
1504341377762265,1,-1,-1,-1,-1,-1,-1,0
1504341377762265,-4,-1,-4,1,1,-1,-1,-2
1504341377783292,-2,-1,-3,-1,-1,-2,0,0
1504341377783292,1,1,1,0,-2,-2,0,1
1504341377784793,0,0,1,-1,-1,0,0,-1
1504341377784793,-2,-6,-3,-1,0,0,2,-2
1504341377797300,0,-2,-1,1,-2,-3,-1,-1
1504341377797300,1,4,2,-2,-3,-1,-3,-1
1504341377804310,-1,-1,-1,-1,-3,-2,-2,-3
1504341377804310,-4,-2,-3,1,-2,-1,-2,0
1504341377820806,-2,-1,-3,-2,-1,0,0,-1
1504341377820806,1,1,0,-2,-2,0,-2,0
1504341377822308,-1,0,-1,-1,-1,-3,-3,-2
1504341377822308,-4,-6,0,0,0,0,0,-2
1504341377843324,-2,-3,-4,-2,0,-1,0,-1
1504341377843324,1,3,0,-2,-2,-4,-1,-2
1504341377844835,0,-1,0,-1,-2,-1,0,2
1504341377844835,-2,-5,-3,-1,2,1,-1,-2
1504341377857853,-3,0,-1,-1,-1,-1,-1,-2
1504341377857853,2,2,2,-1,-3,-3,-1,-1
1504341377864338,-1,0,-1,-2,0,-1,1,0
1504341377864338,-3,-4,-3,0,-2,0,0,-1
1504341377880850,-2,-3,-3,1,-1,0,-1,-1
1504341377880850,1,4,0,-3,-2,-2,-1,-1
1504341377882362,0,-3,0,0,-3,-3,-1,-2
1504341377882362,-3,-4,1,0,1,4,0,0
1504341377903371,-1,-2,-1,0,-1,1,0,0
1504341377903371,2,3,-1,-1,-4,-3,1,0
1504341377904875,1,-1,-2,-1,-1,-2,-2,-2
1504341377904875,-4,-5,-2,0,1,0,-1,0
1504341377917375,0,-2,0,0,1,0,-1,1
1504341377917375,1,2,0,-2,-2,-1,-1,-1
1504341377924379,1,1,1,-1,-1,0,1,-3
1504341377924379,-5,-2,-4,-1,-1,-2,0,0
1504341377940891,-3,0,-2,-2,-2,0,-2,-2
1504341377940891,2,2,1,-2,-3,-3,-2,0
1504341377942393,-2,0,0,0,-1,0,-2,-4
1504341377942393,-2,-5,-4,0,-1,2,-2,-2
1504341377963408,-1,-1,-2,-2,-1,-1,-1,-2
1504341377963408,0,1,0,-2,-1,-2,-2,-1
1504341377964908,-2,0,0,0,-2,-1,0,-2
1504341377964908,-2,-2,-2,0,0,0,-1,-4
1504341377976917,0,-1,-2,0,0,-3,-1,1
1504341377976917,1,2,-2,-2,-3,-3,-2,-2
1504341377985924,0,1,1,-1,-1,-2,-1,1
1504341377985924,-1,-4,-4,-1,1,1,-1,0
1504341378000933,-1,-2,-1,1,-2,0,0,-1
1504341378000933,0,1,1,-2,-2,0,0,-1
1504341378002934,1,-1,2,-1,-2,-1,-3,1
1504341378002934,-2,-4,0,-2,1,0,0,1
1504341378022961,-1,0,-1,-4,-1,0,-1,-1
1504341378022961,1,3,0,-3,-2,-2,0,-1
1504341378024965,-1,0,-1,-1,-2,0,0,-2
1504341378024965,-3,-5,-2,1,2,0,-1,1
1504341378036972,-1,0,-3,-1,-1,-1,0,-2
1504341378036972,3,2,1,-1,-2,-2,-1,0
1504341378045965,-1,0,-1,-1,-4,-2,-1,-1
1504341378045965,-3,-3,-3,-1,-1,1,0,0
1504341378060482,-1,-3,-2,-1,0,0,-1,1
1504341378060482,1,3,2,0,-3,-3,-5,0
1504341378062490,1,-4,-1,1,2,-2,-2,-1
1504341378062490,-4,-5,-3,-1,1,1,0,-3
1504341378083004,-1,1,-2,-1,-1,-1,-2,0
1504341378083004,3,3,0,-1,-3,-2,-1,-1
1504341378084996,-1,-2,-2,-2,0,-2,-1,-1
1504341378084996,-5,-4,-1,0,1,1,1,2
1504341378096511,-1,-1,0,0,0,0,0,-1
1504341378096511,1,2,1,0,-3,-2,-2,-1
1504341378105510,-2,0,0,-2,-1,-2,-2,0
1504341378105510,-2,-3,-4,-1,-1,0,0,1
1504341378120518,-2,-1,-3,-3,-2,0,-1,-3
1504341378120518,-1,1,0,-1,-1,-2,-2,1
1504341378122020,0,-3,-2,-1,-2,0,-2,0
1504341378122020,-3,-5,-2,-2,0,2,1,1
1504341378143540,-1,0,0,-3,-1,-1,-1,0
1504341378143540,1,4,1,0,-2,-3,-1,-3
1504341378144535,-2,1,-1,1,-2,-2,1,-2
1504341378144535,-2,-3,-3,1,0,1,-1,-3
1504341378156556,0,-2,-2,-1,0,-1,-1,-1
1504341378156556,1,2,1,-2,-1,-2,-2,-1
1504341378165550,-1,0,-1,-1,-2,0,0,0
1504341378165550,-3,-2,-3,0,-1,0,-2,-3
1504341378180561,-1,0,-1,-1,-2,-1,-2,0
1504341378180561,1,0,1,-2,-2,-2,0,-2
1504341378182062,0,-1,-2,1,2,1,1,1
1504341378182062,-2,-3,-4,-1,0,-1,-1,0
1504341378203077,0,-1,-3,-3,-3,0,-2,-1
1504341378203077,1,4,1,-4,-2,-1,-2,-1
1504341378204578,0,1,2,-1,-1,-2,-3,0
1504341378204578,-4,-3,-3,-1,1,1,-1,0
1504341378216586,-1,-2,0,1,0,-2,0,-1
1504341378216586,1,2,-2,-1,-3,0,0,-2
1504341378225594,-2,1,-1,-2,-3,-2,0,-2
1504341378225594,-3,-4,-3,0,-1,-1,0,1
1504341378240603,0,-2,-1,0,-1,0,-2,-2
1504341378240603,1,-2,0,-1,-1,-2,-3,-1
1504341378242105,-2,-1,0,-2,-1,-2,0,-1
1504341378242105,-2,-3,-2,-2,1,-1,0,-2
1504341378263619,0,1,0,1,-1,-1,0,-1
1504341378263619,3,2,0,-2,-2,-1,0,0
1504341378265120,-2,-1,-2,0,-1,1,-1,-2
1504341378265120,-3,-4,-3,2,1,0,-1,-2
1504341378277130,-1,-1,-1,-3,0,-2,-1,-1
1504341378277130,0,2,0,0,-2,-2,-1,-1
1504341378285641,-1,-4,-2,0,1,-1,0,0
1504341378285641,-3,-2,-3,0,0,-1,-1,-1
1504341378300646,-3,-2,-2,-4,0,-1,-1,0
1504341378300646,1,2,0,-1,-4,-2,-1,-1
1504341378302147,-1,-2,-2,-1,-1,0,-1,-1
1504341378302147,-3,-3,-2,-1,-2,1,-1,-2
1504341378323179,-1,1,-2,-1,0,0,1,-3
1504341378323179,2,2,2,-2,-2,-3,0,0
1504341378324662,-2,-2,0,0,-1,-1,-1,-2
1504341378324662,-3,-3,-3,-1,1,0,-2,-2
1504341378345677,-2,0,-1,1,0,0,2,0
1504341378345677,1,1,-1,-3,-3,-1,-1,-3
1504341378347178,0,-2,0,0,-1,-1,0,-2
