timestamp,emg1,emg2,emg3,emg4,emg5,emg6,emg7,emg8
1513173068267132,-1,1,0,-1,0,-1,-1,0
1513173068267132,-2,1,1,0,0,-1,1,-2
1513173068267636,-5,-3,2,1,1,0,0,-2
1513173068267636,-1,-2,-2,0,-1,1,0,0
1513173068280640,2,0,-3,-2,-1,-3,-2,0
1513173068280640,-1,-1,-2,-1,-1,-2,-1,-2
1513173068289146,-1,0,-2,-1,-1,2,-2,-2
1513173068289146,-1,0,-1,-1,-2,-3,0,-1
1513173068304158,0,-1,-3,0,-2,-2,-2,-1
1513173068304158,-3,-2,-3,-1,0,0,-1,1
1513173068304657,-1,-2,2,-1,-1,-2,-2,0
1513173068304657,-1,-1,-3,-1,-1,-1,-1,-2
1513173068326672,0,1,1,-1,-2,0,-2,-1
1513173068326672,0,-3,0,-1,0,0,0,1
1513173068327173,-2,0,-3,-3,-3,-1,-1,1
1513173068327173,-1,-2,-1,-1,0,1,-2,0
1513173068340682,1,-5,-1,-2,-1,-1,-2,-1
1513173068340682,-3,-4,0,2,2,0,-2,-3
1513173068349189,-1,-5,2,1,3,-2,-1,-3
1513173068349189,-4,0,-1,-1,0,-1,1,-1
1513173068364199,-3,1,-1,-2,0,-1,-1,-1
1513173068364199,2,1,-3,-3,-2,-2,-1,-1
1513173068364699,0,-1,-1,0,0,-1,0,-1
1513173068364699,-1,-2,-2,-2,-1,-2,-2,-2
1513173068386729,0,-2,2,0,-2,-1,0,-2
1513173068386729,0,-1,-2,0,-1,-2,-3,-2
1513173068387216,-6,4,4,-1,-2,1,-1,-3
1513173068387216,0,2,0,-1,-1,-2,-2,1
1513173068400745,-1,0,-3,-1,-1,0,-1,-1
1513173068400745,-2,0,-1,-1,-4,-1,-1,-2
1513173068408741,2,1,-8,-2,-2,-3,-2,-1
1513173068408741,0,-4,-4,-1,1,-1,-1,0
1513173068423756,-1,0,-1,-3,-1,-3,-1,-1
1513173068423756,-1,-1,-1,-2,-1,-3,-1,-1
1513173068424752,-1,-2,-2,0,0,-2,0,0
1513173068424752,1,1,-1,0,-4,-2,-1,-2
1513173068446768,0,-2,0,0,1,-1,-1,0
1513173068446768,0,-4,2,-1,-2,-1,-1,1
1513173068447258,0,-4,-4,0,-1,0,-2,-1
1513173068447258,0,-2,-1,-1,-3,-2,0,-1
1513173068462269,-4,-2,1,-2,-1,1,0,-2
1513173068462269,1,2,-1,-3,-1,1,-1,-2
1513173068469274,-1,-1,-2,-1,-1,1,-1,-1
1513173068469274,-3,0,1,-1,0,0,0,-1
1513173068483784,-4,0,0,1,-1,-1,-1,-3
1513173068483784,0,-2,-2,-1,0,-4,-1,0
1513173068484785,1,-1,-3,-1,-2,-1,-1,0
1513173068484785,-1,-6,-1,0,0,0,0,0
1513173068506310,0,-2,-2,1,-1,-3,1,-1
1513173068506310,-2,1,-2,-2,0,0,-3,-1
1513173068507323,1,-2,-1,-3,-1,-1,-2,0
1513173068507323,-1,2,-5,-2,-2,-1,-2,-1
1513173068520834,-2,-2,-1,-1,-1,0,-2,-2
1513173068520834,-2,-2,-2,1,-1,1,-1,-3
1513173068528840,-1,0,-2,-3,-1,-2,1,1
1513173068528840,-1,-1,-1,-1,0,-1,-1,-1
1513173068543847,-1,-3,0,-3,-1,0,-1,-2
1513173068543847,1,0,-2,-1,1,0,0,0
1513173068544848,-2,-2,-2,0,0,1,1,-1
1513173068544848,2,-1,0,-1,-2,-1,-3,0
1513173068566382,0,-1,-1,-3,-3,-1,-1,1
1513173068566382,-3,1,2,2,3,0,0,-2
1513173068567364,-2,0,-1,0,-2,0,-1,-1
1513173068567364,0,-2,0,-2,-2,-1,0,0
1513173068580885,0,0,-2,-2,-3,-2,-1,-2
1513173068580885,-1,-1,0,0,-2,0,-1,-2
1513173068588889,2,-2,-1,0,0,-1,0,0
1513173068588889,-1,-1,-1,-1,-3,-2,-1,-2
1513173068603900,-1,-2,-1,0,0,-1,-2,-1
1513173068603900,-2,1,-2,-2,-1,-2,-1,-1
1513173068611411,-3,-4,2,-1,-1,-2,-1,-3
1513173068611411,0,-2,-3,0,0,1,-1,0
1513173068626428,-2,2,2,1,-2,-2,-2,-1
1513173068626428,-2,0,-1,-1,-1,0,-1,0
1513173068627407,-2,0,0,0,-1,-2,-3,-1
1513173068627407,3,2,-3,-1,-2,-3,-1,0
1513173068640916,-1,0,-2,1,1,0,-1,-1
1513173068640916,0,0,0,-3,-2,-1,-2,-1
1513173068648925,4,0,-3,-3,-2,-1,-1,-1
1513173068648925,-5,-2,1,1,1,-1,-1,-2
1513173068663952,-2,-3,0,-2,-1,-3,-1,-3
1513173068663952,1,-2,-2,-1,-1,-2,-1,0
1513173068664934,2,0,-2,-3,-1,-1,-2,0
1513173068664934,-1,-1,-3,-1,0,0,1,-2
1513173068686458,-5,-1,-6,-2,-4,-1,-1,-2
1513173068686458,-2,-1,-1,-2,-2,0,-1,-1
1513173068687459,-2,-3,-1,0,-1,-1,0,0
1513173068687459,-1,-3,-1,0,-1,-1,-1,-2
1513173068700969,0,0,0,-1,0,-3,0,0
1513173068700969,-2,-1,-2,-2,-1,0,0,0
1513173068708973,-2,1,-1,-2,-1,-3,-3,0
1513173068708973,-2,-1,-1,0,-1,0,-2,-1
1513173068723990,1,-2,-1,-2,1,-1,-1,-1
1513173068723990,-1,-2,-3,0,-2,-1,-1,-2
1513173068724989,1,-2,0,0,-1,-1,1,-1
1513173068724989,-2,-2,1,-1,-3,-2,0,-1
1513173068746490,-9,-3,5,2,-1,2,0,-2
1513173068746490,-5,-8,-2,0,-1,0,0,3
1513173068747491,-3,-4,3,0,-1,0,-1,-1
1513173068747491,-1,-1,2,-2,-2,0,-1,-1
1513173068769509,1,-2,-5,-1,0,0,-1,-1
1513173068769509,-1,0,-2,-1,0,-1,-2,-2
1513173068770532,-2,0,-1,-3,0,-2,0,0
1513173068770532,-1,0,0,0,-1,-1,1,-1
1513173068784017,-3,-1,0,0,-1,-1,-1,0
1513173068784017,2,-2,0,-1,0,0,0,-1
1513173068785018,2,1,-3,0,0,0,-1,0
1513173068785018,1,-1,-1,-1,0,0,-1,-2
1513173068806033,7,7,-4,-5,-3,-2,-3,-3
1513173068806033,-6,-3,7,3,2,0,1,-2
1513173068814038,-1,1,-4,-2,0,0,-1,0
1513173068814038,-1,-1,-2,-2,-2,-3,-2,-1
1513173068829560,-1,-6,-4,-3,-1,-2,-1,-1
1513173068829560,1,0,-3,-1,1,1,-1,-2
1513173068830551,0,-2,-1,0,-1,-1,-1,-1
1513173068830551,0,2,0,-1,0,-1,-1,-1
1513173068844082,2,-2,-2,0,0,-1,1,-1
1513173068844082,-2,0,-1,-4,-4,-1,-3,0
1513173068845082,-2,-1,-1,0,0,-1,-1,0
1513173068845082,-3,-2,-2,-1,0,-1,-1,-2
1513173068866576,2,-2,-2,-1,-4,0,-2,1
1513173068866576,0,-2,0,-2,2,-1,0,-1
1513173068867076,0,1,1,0,-1,0,-1,-1
1513173068867076,-1,-1,1,2,-2,-1,-1,-4
1513173068889609,1,-2,-1,10,-1,-2,-1,0
1513173068889609,-1,1,-3,-12,1,-1,0,-1
1513173068890624,1,-1,-3,-7,-2,0,-2,-1
1513173068890624,-1,1,0,-7,-7,-3,-1,-1
1513173068904107,-5,-1,1,7,7,0,0,-2
1513173068904107,2,0,-5,5,-4,-1,-2,0
1513173068904602,0,0,1,-1,-1,-1,0,0
1513173068904602,-4,1,-2,-2,1,1,-2,-3
1513173068926132,-3,0,0,-6,-5,-2,-2,-3
1513173068926132,3,2,-7,0,-2,-1,-1,1
1513173068934124,0,-1,0,-4,0,-1,0,-1
1513173068934124,-4,0,5,-5,-7,-2,-1,-3
1513173068950648,-3,-3,-1,2,1,-2,-2,-1
1513173068950648,-3,-8,3,1,1,0,-1,0
1513173068951648,2,-2,-8,-2,-1,0,-1,2
1513173068951648,-1,-4,-4,1,1,-1,0,0
1513173068964144,-9,1,5,-3,1,2,0,-3
1513173068964144,1,-2,0,-1,-2,-2,0,-3
1513173068964645,-1,0,0,0,-3,-3,-2,-2
1513173068964645,-1,-2,0,1,2,-1,-2,-1
1513173068986180,-3,-2,0,-3,0,0,1,-1
1513173068986180,0,2,2,0,-2,-2,-1,0
1513173068994178,-2,1,1,0,-1,-1,0,-1
1513173068994178,1,0,-5,1,0,-1,-2,0
1513173069009686,2,0,-5,-3,-2,0,0,1
1513173069009686,-3,-5,1,-2,0,-1,-2,0
1513173069010177,-3,-6,1,3,0,-1,-1,-1
1513173069010177,-3,0,-3,-1,-3,-2,-2,-1
1513173069023686,-2,-1,0,-3,-4,-2,-1,-3
1513173069023686,-2,4,-2,0,-3,-1,-2,-1
1513173069024687,0,0,-1,1,-2,0,-2,-2
1513173069024687,0,-1,0,-1,0,-1,1,0
1513173069046214,0,0,-1,-2,-2,0,0,0
1513173069046214,3,-1,-5,-2,-1,-1,-1,0
1513173069053708,-2,3,-3,-1,1,-1,-2,-3
1513173069053708,-1,3,0,-2,-1,-2,-2,-1
1513173069069731,0,-4,-6,-3,-1,0,-1,0
1513173069069731,-3,-1,-1,0,0,-3,-1,-1
1513173069070219,1,-4,-2,0,-2,0,0,-1
1513173069070219,0,-1,0,0,0,-1,0,-1
1513173069084229,0,-1,1,-2,-2,-2,-1,-2
1513173069084229,1,-1,2,0,-2,-1,-1,1
1513173069084729,-2,-2,-1,-1,0,0,0,0
1513173069084729,0,-3,-2,0,1,1,0,1
1513173069106245,-6,-4,-3,-1,-1,-2,-1,-2
1513173069106245,-3,-3,0,-1,-2,-1,0,-1
1513173069107245,-1,0,-1,-1,-2,-3,-1,0
1513173069107245,3,-1,-2,-1,-1,-2,-2,0
1513173069129785,-5,0,1,0,-1,-1,-2,-3
1513173069129785,0,-1,-2,-2,-2,-2,0,0
1513173069131265,-2,-2,-2,0,0,-1,0,-3
1513173069131265,-1,-1,-1,-1,-2,-1,-1,0
1513173069143781,2,0,-1,-1,-2,-2,-1,1
1513173069143781,1,4,-3,-1,-1,-1,-1,0
1513173069144787,-1,-2,0,-1,-2,0,-2,-1
1513173069144787,-4,1,1,-1,-1,-3,-1,-4
1513173069166790,2,1,0,-2,-2,-1,0,1
1513173069166790,-2,-4,-3,-1,-1,-1,0,0
1513173069167305,0,-3,-1,-1,-2,0,0,0
1513173069167305,-5,-3,1,0,0,2,-1,-3
1513173069189804,-1,-3,-1,-2,-2,-1,-2,-2
1513173069189804,-1,-2,-2,0,-1,-1,-1,-1
1513173069190304,-1,-1,-2,-1,-3,-2,0,-1
1513173069190304,0,0,-1,-2,-2,0,-2,0
1513173069203814,-1,-2,-1,0,2,-2,-1,-2
1513173069203814,1,0,-1,-3,-1,0,-3,0
1513173069204814,-1,-3,-2,0,0,-2,0,-1
1513173069204814,-1,0,-1,-2,0,-2,-2,-2
1513173069226349,2,0,-4,-2,-2,-1,-1,-1
1513173069226349,0,3,0,-1,-1,-2,-3,-3
1513173069227337,-2,-4,-4,-1,2,-1,-1,0
1513173069227337,-3,-4,-1,-1,-1,0,2,-2
1513173069249365,-6,-3,3,-2,-3,-1,-1,0
1513173069249365,-1,-1,-2,-1,-2,-1,1,-2
1513173069256360,2,-1,-3,-2,-3,-2,-1,1
1513173069256360,-3,-3,-3,0,-2,-1,-1,0
1513173069263869,3,2,0,-1,-2,-1,-3,-1
1513173069263869,0,1,-3,-1,1,0,-1,0
1513173069264868,-2,0,0,-2,0,-1,-2,-2
1513173069264868,0,-1,-2,1,0,-2,0,-2
1513173069286372,-1,-1,-1,-3,-2,-2,-1,1
1513173069286372,0,-2,-2,0,-1,-3,-1,-1
1513173069287373,0,-2,-1,1,-2,-1,-1,0
1513173069287373,3,1,-5,-3,-1,1,-2,0
1513173069317394,-5,-4,-2,0,1,0,1,-1
1513173069317394,-1,0,0,0,0,0,-1,0
1513173069317900,-3,-2,-2,-1,-1,-1,1,-2
1513173069317900,1,0,0,0,-3,-1,-1,-3
1513173069332404,-1,-2,-2,2,2,-1,1,-2
1513173069332404,0,-2,-1,-3,-3,-2,-1,-1
1513173069332905,-2,1,1,-1,-1,1,0,0
1513173069332905,-1,-1,-2,-1,-1,-3,0,0
1513173069346414,2,1,-2,-3,-3,-1,-1,-1
1513173069346414,-5,-2,1,1,-3,0,1,-2
1513173069347415,-1,0,-2,1,1,-2,-2,-1
1513173069347415,-2,1,0,0,-2,-2,-1,0
1513173069369457,2,-3,2,0,-2,-2,0,0
1513173069369457,0,-5,0,1,1,1,-2,-2
1513173069370433,4,2,-1,-2,-4,0,-2,0
1513173069370433,-4,-2,-2,-1,-3,0,0,-2
1513173069383441,-2,-1,-2,-4,-3,0,-3,-2
1513173069383441,2,-2,-2,0,1,0,-1,-1
1513173069391446,1,-1,-3,-1,0,-1,-2,-1
1513173069391446,0,-3,-1,-1,-3,-1,-2,1
1513173069406457,-1,2,0,-2,-1,-2,-3,0
1513173069406457,0,-1,-2,-2,-3,-2,0,1
1513173069407458,-3,1,-1,-1,0,0,1,0
1513173069407458,-1,-1,-2,-6,-4,0,-1,-2
1513173069429975,-2,0,-1,1,2,-3,0,-3
1513173069429975,-2,-1,0,1,0,0,-1,0
1513173069431476,-1,0,1,-3,-1,0,-2,-1
1513173069431476,-3,-2,0,5,0,1,-2,-1
1513173069443483,-1,-2,-1,-1,0,0,1,-1
1513173069443483,3,4,-3,-4,-1,-2,-3,-2
1513173069451489,-2,-1,-1,-2,-1,1,1,-2
1513173069451489,0,0,-1,-3,-2,-2,-3,-2
1513173069466499,1,-1,-2,-1,-2,0,-2,0
1513173069466499,-1,-2,-2,-2,-2,-2,-1,0
1513173069467500,-5,-4,-1,0,1,1,2,-1
1513173069467500,-5,-3,3,1,-1,-1,-1,-1
1513173069489515,0,1,-3,0,-2,-2,-3,-3
1513173069489515,0,0,-1,-2,-2,0,1,1
1513173069490516,0,0,-2,1,-2,-2,-4,-1
1513173069490516,0,0,1,0,2,2,1,-1
1513173069503525,2,-1,-3,-3,-2,-1,-2,-1
1513173069503525,-2,-3,0,0,-2,1,-1,0
1513173069511535,0,0,-1,-3,-3,-2,-3,-1
1513173069511535,-3,0,-5,-1,-1,-1,1,-1
1513173069526545,-2,-1,0,-3,-2,-1,-3,-3
1513173069526545,-3,0,0,0,1,2,-2,-2
1513173069527042,2,2,0,0,-2,-2,-2,0
1513173069527042,-4,1,-2,-2,-1,-2,-1,-2
1513173069549577,-3,-3,-2,-1,1,-2,1,-1
1513173069549577,1,-1,-2,0,1,-2,0,0
1513173069550559,4,-1,-3,-1,0,-1,-2,2
1513173069550559,3,1,-1,-3,-3,-1,-1,-2
1513173069563580,2,3,1,-1,-3,-2,-1,0
1513173069563580,0,1,-1,0,-2,-2,-2,-2
1513173069571585,-2,-2,-1,-2,0,0,0,-2
1513173069571585,-1,-3,-1,0,0,-1,-1,-1
1513173069586587,0,-1,-3,-3,-3,-2,-2,-2
1513173069586587,4,-1,-2,-3,-2,-4,-2,-1
1513173069587088,-2,2,-4,-2,-3,-2,0,-2
1513173069587088,0,1,-2,-2,-3,-2,-1,-2
1513173069609602,-3,-2,-2,1,-1,-1,0,-1
1513173069609602,-3,-2,-1,-1,1,1,0,-2
1513173069610603,-7,-5,1,1,0,0,1,-1
1513173069610603,-2,-2,-1,-1,-1,-1,-1,-2
1513173069623121,1,-2,-2,-1,-2,-1,-2,0
1513173069623121,-2,-5,-4,-2,0,0,0,-1
1513173069631618,1,1,1,-2,-2,-1,-2,-1
1513173069631618,0,-2,-1,-1,-2,1,-2,-1
1513173069646627,-2,-1,1,-1,-1,-2,0,0
1513173069646627,-5,-4,3,2,1,0,0,-1
1513173069647127,-2,-4,-1,0,0,-1,-1,-1
1513173069647127,0,-2,-2,-1,0,-1,-1,1
1513173069669649,-1,2,-5,-3,-1,0,0,-3
1513173069669649,1,3,-1,-1,-3,-1,0,1
1513173069670145,-1,-1,0,0,1,-1,-2,-2
1513173069670145,-5,-5,1,1,0,-1,0,-2
1513173069699664,-3,-3,-2,-1,-1,0,0,0
1513173069699664,0,0,-2,1,0,-3,0,-1
1513173069700165,-3,0,0,-1,-2,-2,-1,-2
1513173069700165,1,0,-2,0,0,-2,-2,-2
1513173069706170,-3,-2,0,1,-1,1,1,-1
1513173069706170,-3,-1,-1,-1,0,-2,-1,-3
1513173069707169,5,3,-3,-3,-2,-1,-1,-1
1513173069707169,-5,-3,-4,-3,-2,-3,-2,-2
1513173069729710,-3,-4,4,-1,-2,-1,-1,-1
1513173069729710,-1,-2,0,-1,0,-1,0,0
1513173069731199,2,-1,-2,-1,-2,-1,-1,0
1513173069731199,-3,0,0,1,-1,-1,-1,-1
1513173069752213,0,-2,-2,-2,-2,-2,-1,-1
1513173069752213,1,0,-3,-1,-3,-2,-1,1
1513173069752702,-4,-3,0,0,1,0,-2,-3
1513173069752702,-1,0,-1,-1,-2,-1,0,-2
1513173069774717,0,-1,-1,0,0,1,-1,-1
1513173069774717,-3,0,2,-2,0,-1,-1,-1
1513173069775217,-3,-3,0,1,-1,-1,0,-1
1513173069775217,1,1,-2,-2,-2,-1,-1,-1
1513173069789768,2,1,-4,-1,0,-1,-2,-2
1513173069789768,0,0,-4,1,-1,-1,-1,-1
1513173069790228,1,2,3,-1,-1,-1,-1,0
1513173069790228,0,-1,0,-1,-1,-3,0,-1
1513173069812247,-1,-3,-1,-1,-1,-2,-2,0
1513173069812247,1,-3,-1,-2,0,0,-1,0
1513173069812744,-1,-1,-4,-2,-5,-1,-2,0
1513173069812744,-6,-3,3,1,0,0,-1,-1
1513173069826257,-1,0,0,1,-1,0,-1,-1
1513173069826257,-1,0,-2,-3,-2,-2,-3,0
1513173069827255,-1,-1,-2,0,-1,-1,-1,-2
1513173069827255,4,-1,-4,-3,-2,-1,-1,-1
1513173069849772,-5,-2,-1,-1,-1,-1,-1,0
1513173069849772,-2,-3,1,-1,2,-1,0,-1
1513173069850271,0,0,0,0,-1,-2,-2,-1
1513173069850271,2,-2,-1,-1,-3,-2,-2,0
1513173069872286,-1,1,3,1,2,1,0,0
1513173069872286,1,2,-4,-3,-2,-1,-1,0
1513173069872787,-1,0,-3,-1,0,0,0,-2
1513173069872787,0,-1,0,-1,-1,1,0,-1
1513173069886296,0,-2,-5,-2,-4,-1,-2,-2
1513173069886296,-3,-4,3,-2,0,0,1,0
1513173069887306,-3,-5,4,3,0,1,-1,-1
1513173069887306,-4,-1,2,-1,-2,0,-2,-2
1513173069909813,-8,-3,3,1,1,0,-1,-3
1513173069909813,-5,0,0,0,0,-2,-1,1
1513173069910814,0,-2,-2,-1,-1,-1,-2,0
1513173069910814,-1,-1,-3,0,-1,-1,-1,-3
1513173069932330,0,-2,-2,-3,-3,0,-1,0
1513173069932330,3,3,0,0,-1,0,-2,-1
1513173069932829,-2,1,-2,-6,-2,-1,-1,-1
1513173069932829,1,2,-3,1,0,-2,-2,-2
1513173069946340,0,-3,-2,-1,-1,-3,0,-1
1513173069946340,2,-1,-2,-1,-1,-1,0,-1
1513173069953859,2,0,-5,-6,-4,-1,-1,2
1513173069953859,1,2,-5,-2,0,-1,0,-1
1513173069969856,-3,-3,-1,-2,2,-1,-1,0
1513173069969856,2,-2,-5,-4,-4,-1,-2,0
1513173069970357,-4,-4,1,1,1,-1,0,-2
1513173069970357,4,0,-3,-4,-2,-4,-3,0
1513173069992373,3,1,-3,-1,1,0,-1,0
1513173069992373,-2,0,0,1,0,-2,-1,-1
1513173069992872,-1,-1,-3,-2,-2,-2,-1,-1
1513173069992872,-2,-2,-1,-1,-2,-1,-1,1
1513173070006381,4,1,-6,-1,-2,-3,-1,0
1513173070006381,-1,1,-1,-1,-2,-1,-1,-2
1513173070007382,0,0,-3,0,0,-2,0,1
1513173070007382,-5,-1,2,1,1,-1,-1,-2
1513173070029410,1,1,5,-1,-3,-1,-3,0
1513173070029410,-1,0,-2,-1,-1,-2,1,0
1513173070031399,-2,-2,-1,0,0,-1,-1,0
1513173070031399,-3,-4,0,-1,-1,-2,-1,-2
1513173070051913,0,-3,-3,-2,-3,0,-1,-1
1513173070051913,0,-1,-2,2,-1,0,-1,-2
1513173070052914,0,1,0,-2,0,-2,-1,0
1513173070052914,-1,-1,0,-2,-2,0,-1,-3
1513173070066423,-3,-2,-2,-1,-1,0,-2,-3
1513173070066423,0,-2,0,0,0,-1,0,1
1513173070067425,-3,-1,-2,2,0,-1,-2,-2
1513173070067425,0,-2,-1,-1,0,0,-1,-1
1513173070096948,-1,1,-2,-2,-1,-1,-1,0
1513173070096948,-1,-2,-3,-2,-2,-1,0,-1
1513173070097947,1,1,-2,-1,-2,-1,-2,-1
1513173070097947,-1,2,0,-3,-3,-3,-3,-1
1513173070119478,-2,0,-1,-2,-2,-2,-1,-1
1513173070119478,-2,-1,0,-3,-2,1,0,0
1513173070120463,0,-2,0,0,-1,0,-1,-2
1513173070120463,-2,-2,0,0,1,-1,0,-1
1513173070126469,-2,-2,0,0,-1,1,-1,-2
1513173070126469,-1,0,-2,-1,2,2,-1,-1
1513173070126966,-5,-3,2,-2,0,-1,0,-1
1513173070126966,-2,-1,1,-2,-2,-1,0,-1
1513173070149496,-1,-2,0,1,-1,0,0,0
1513173070149496,-1,-2,0,-2,0,-1,-1,0
1513173070150483,-4,-4,2,1,0,-1,0,-1
1513173070150483,-1,1,-3,-1,-2,0,-1,-1
1513173070171998,-3,-4,-1,-2,-1,-1,-2,-1
1513173070171998,4,-4,-3,-2,-3,-2,-3,-1
1513173070172999,2,0,-2,-1,-3,-1,-2,-1
1513173070172999,2,3,0,-1,-3,-2,-1,-2
1513173070186518,-2,0,1,0,0,-3,0,-1
1513173070186518,0,-2,-3,-2,-2,-2,0,2
1513173070187519,-1,1,-2,-1,-1,-2,-2,-1
1513173070187519,-1,-2,-1,-1,-1,0,-1,-1
1513173070209534,-2,-1,-2,1,-2,1,-1,-2
1513173070209534,-1,-2,4,0,1,-2,-1,-1
1513173070210535,-1,0,-2,-1,-2,0,-1,-1
1513173070210535,-1,-3,-3,-4,-1,0,-1,-1
1513173070232041,-2,-2,0,0,0,-2,-1,-1
1513173070232041,-4,0,-2,0,1,-1,-1,-1
1513173070233041,-3,-2,0,0,-1,0,-2,-2
1513173070233041,0,-1,0,0,-1,-2,-2,0
1513173070246561,-2,-1,0,-3,-1,0,-2,-2
1513173070246561,-2,-5,-1,-1,-2,-1,0,0
1513173070247551,-1,-1,1,0,0,-3,-1,0
1513173070247551,-2,-2,0,0,-1,-1,0,-1
1513173070269577,-2,-2,-2,-1,-1,-2,-2,0
1513173070269577,0,0,-5,-1,-3,-1,-2,-1
1513173070271068,-5,-5,-2,-1,-2,1,1,-2
1513173070271068,-4,-3,1,0,0,-2,0,-2
1513173070292083,-2,0,-2,-1,-1,1,-1,-2
1513173070292083,0,-1,0,-1,-1,-1,-1,-1
1513173070293584,0,0,-3,0,0,1,-1,-3
1513173070293584,-3,-2,-1,0,-1,0,0,-2
1513173070305605,2,0,-8,-3,-1,-2,-2,-2
1513173070305605,0,0,-2,-2,-3,-1,-2,0
1513173070314599,-2,1,0,-1,-1,-1,0,-1
1513173070314599,-1,-2,0,-1,-2,-1,-2,0
1513173070329612,1,-1,-1,-1,-1,-3,-1,0
1513173070329612,0,0,-1,0,1,-1,-1,0
1513173070332115,2,-2,1,-2,-1,0,-2,-1
1513173070332115,-2,1,-1,-1,-3,-3,-2,-2
1513173070352137,-1,-1,-2,0,-3,-3,-2,1
1513173070352137,-4,-2,0,-1,0,-1,0,0
1513173070353639,0,1,2,1,0,-2,-3,0
1513173070353639,1,-3,-1,-1,-2,-1,-1,0
1513173070366147,-2,-3,0,-2,1,1,0,-1
1513173070366147,-2,2,1,-1,-2,-2,0,-1
1513173070374641,0,-1,-4,-1,0,2,1,-2
1513173070374641,-3,-2,0,0,0,0,0,-1
1513173070389653,0,1,-1,-1,-1,-1,-2,1
1513173070389653,-8,-2,4,2,0,1,-1,-3
1513173070391164,0,-2,-4,-1,-2,-2,-2,0
1513173070391164,0,-2,0,0,-1,-1,0,0
1513173070412184,0,-2,-2,-1,1,1,-1,-2
1513173070412184,2,-1,-3,-1,-1,2,1,2
1513173070413678,2,0,-3,-2,-3,-1,-1,-2
1513173070413678,-4,-4,2,-1,-1,1,1,-3
1513173070425718,-7,-3,0,-1,0,-2,0,-1
1513173070425718,2,-3,-1,1,-1,-3,-2,1
1513173070434684,-3,2,1,-1,-1,0,-1,0
1513173070434684,2,2,-4,-2,-1,-2,-1,-2
1513173070449704,-1,0,-1,-2,-1,1,-1,-2
1513173070449704,0,2,-1,-1,-2,-1,0,-1
1513173070451206,-2,-2,-2,0,-1,-2,-1,-1
1513173070451206,-1,-1,-1,0,-1,-2,-1,-2
1513173070472221,1,-4,-2,1,-1,-1,-1,0
1513173070472221,1,-1,0,-3,-2,-3,-1,-1
1513173070473722,5,2,-9,-5,-2,-1,-1,-1
1513173070473722,-6,-6,1,1,-1,-1,-2,-1
1513173070485720,-1,-3,0,-3,-3,-2,-1,-1
1513173070485720,1,0,-2,-2,-1,-2,-3,1
1513173070494726,2,0,-2,-3,-2,-2,-1,-1
1513173070494726,-1,0,0,-1,1,-2,-2,-2
1513173070509736,-4,1,0,-1,0,-1,1,-1
1513173070509736,4,-1,-3,-1,-2,-1,-1,-1
1513173070511255,-5,-3,2,2,-1,0,0,-2
1513173070511255,-3,-2,-2,-1,0,0,0,-1
1513173070532253,-2,2,2,-3,-3,-1,-1,1
1513173070532253,-7,-2,0,-4,-2,-2,-2,-2
1513173070533754,0,1,1,-2,0,1,1,-1
1513173070533754,0,-2,-3,-1,-1,-2,-2,-2
1513173070545772,-1,0,0,1,-1,-1,-1,-1
1513173070545772,1,-1,-2,0,2,-1,0,-1
1513173070555769,0,-3,3,-2,-1,-1,-1,-1
1513173070555769,-2,-2,-4,-4,-2,-1,0,-1
1513173070569779,-2,-2,-2,0,-1,-5,-1,-2
1513173070569779,-1,0,0,0,-2,0,-2,-2
1513173070571280,-1,-1,-2,0,-2,-1,-2,-1
1513173070571280,2,0,-1,-1,-4,0,-1,-1
1513173070592795,-1,-3,-2,-1,1,-1,-2,0
1513173070592795,-1,0,0,1,0,2,1,0
1513173070594296,-3,-4,-3,-2,0,-2,-1,1
1513173070594296,-2,2,1,0,-1,-1,1,-2
1513173070605805,1,-1,-3,-3,-3,-1,-2,-1
1513173070605805,-4,-1,-2,1,0,-2,0,-2
1513173070614811,1,-1,0,-1,-2,-1,-1,-1
1513173070614811,2,-1,-2,-3,-2,-3,-4,0
1513173070629855,1,5,-2,-3,-3,-1,-2,-1
1513173070629855,0,0,-2,-3,-2,-3,-1,0
1513173070632336,-8,-2,0,2,0,2,0,-3
1513173070632336,0,0,0,-2,0,-1,-1,-1
1513173070652354,-2,-6,0,3,-1,-1,1,-1
1513173070652354,1,1,-2,-3,0,-2,-1,0
1513173070653839,-3,0,-1,-1,0,-2,0,-2
1513173070653839,0,1,-2,0,1,0,-3,-2
1513173070674885,-2,-1,-2,-3,1,-1,-1,-1
1513173070674885,1,0,-2,-2,-2,-1,-1,-1
1513173070676372,0,-2,-1,0,-2,-2,-1,-1
1513173070676372,-2,-3,0,0,-1,1,-2,-1
1513173070689375,1,1,-1,0,-3,-1,-1,0
1513173070689375,0,-2,-2,-2,-2,0,-1,1
1513173070691377,3,4,-3,-2,1,-2,0,-1
1513173070691377,0,0,-1,-2,-3,-2,-2,-2
1513173070712381,0,-2,-1,2,0,-1,-1,-1
1513173070712381,3,3,-1,-2,-1,-1,-3,0
1513173070713883,4,0,-3,-3,-5,-3,-1,0
1513173070713883,-2,3,-1,-2,-3,-2,-2,-2
1513173070734898,-4,1,1,1,0,0,0,-3
1513173070734898,-1,-2,-3,0,-1,-1,-1,-2
1513173070736399,0,-3,0,-1,0,-2,-2,-1
1513173070736399,-4,-5,0,0,2,1,1,-1
1513173070749908,1,-3,-2,-2,-1,-1,-1,0
1513173070749908,-1,-3,-4,-1,-1,-2,-1,-1
1513173070751409,-6,-3,0,0,-1,-2,-1,-3
1513173070751409,4,-1,-3,-2,-3,-2,1,0
1513173070771931,5,2,-2,-2,-1,-1,0,1
1513173070771931,-5,-3,3,2,1,-2,2,-1
1513173070773423,-2,2,1,-2,-3,-2,0,-2
1513173070773423,-2,-2,-2,-2,1,0,-2,-1
1513173070794451,4,-2,-5,-1,-2,-1,-3,-1
1513173070794451,-1,-1,0,-1,-1,-2,-1,1
1513173070796439,-1,-3,-1,-1,-2,-1,-2,-2
1513173070796439,-2,0,0,1,-1,0,-1,-2
1513173070808948,-5,-4,-4,-4,1,0,-1,-2
1513173070808948,-1,-5,3,0,0,-1,0,-2
1513173070815953,-1,-2,-1,-1,0,-3,-1,1
1513173070815953,-2,1,-2,0,0,-1,-1,0
1513173070839479,-1,0,-1,-1,-1,0,-1,-1
1513173070839479,0,0,-4,-1,-1,-2,-2,-1
1513173070841471,-5,-2,0,-1,-1,-1,-1,0
1513173070841471,-1,-1,2,0,-1,-1,-2,-2
1513173070854490,-6,-3,3,1,2,-3,-2,0
1513173070854490,-1,1,-1,0,0,0,0,-2
1513173070856983,1,-2,-4,-2,-3,-2,-2,-1
1513173070856983,-4,-3,-1,-2,0,0,-2,-2
1513173070868991,-1,-1,1,1,1,-1,-1,-2
1513173070868991,2,0,-2,-3,-2,-1,-3,0
1513173070875996,-1,-2,-3,0,0,-2,0,-3
1513173070875996,-4,-6,5,1,-1,1,1,-1
1513173070892007,2,3,-2,-2,-4,-2,-3,-1
1513173070892007,0,1,0,-1,0,1,1,0
1513173070894008,-3,1,2,-1,-1,1,-1,-2
1513173070894008,0,-1,-3,-3,-1,-1,-2,-1
1513173070914526,0,0,0,-1,-2,-1,0,0
1513173070914526,-2,3,1,1,0,0,-1,0
1513173070916525,-1,1,-2,-2,-2,-1,-2,-2
1513173070916525,-2,1,-2,-1,-2,-1,0,-1
1513173070929057,0,0,0,0,-1,0,-1,-2
1513173070929057,0,-1,-4,-1,-3,-1,-1,-1
1513173070936039,-1,-1,-2,0,0,-1,0,-2
1513173070936039,-2,-2,-2,-2,-3,-1,-1,-2
1513173070952049,10,5,-1,-1,-2,0,0,6
1513173070952049,-4,-5,-5,0,1,1,-1,-1
1513173070953551,-2,1,1,-2,-3,-2,-2,-3
1513173070953551,-6,0,0,0,0,-2,-1,-2
1513173070974568,-3,-4,-2,-2,-1,-2,0,-3
1513173070974568,3,-2,-3,-3,-1,-3,-1,0
1513173070976067,-4,-3,0,0,1,0,0,0
1513173070976067,0,4,1,-3,-4,-3,-2,-1
1513173070989076,-1,-3,-1,-1,0,0,-1,-3
1513173070989076,-2,0,1,0,0,-2,0,-2
1513173070995580,-3,-7,-1,0,0,-1,0,-1
1513173070995580,3,-5,-4,1,-1,-2,-2,1
1513173071012592,-5,-4,1,0,0,-1,0,-1
1513173071012592,-1,-4,6,1,-1,-1,-1,0
1513173071014593,-2,1,-2,0,1,2,-1,-1
1513173071014593,4,1,-5,-3,-3,-4,-1,-1
1513173071042113,-3,-1,-1,0,-1,0,-1,-2
1513173071042113,2,0,-3,-2,-1,-1,-1,-2
1513173071043627,1,1,0,-1,-2,-1,-2,0
1513173071043627,0,2,1,-1,1,-1,-1,0
1513173071049132,4,-1,-4,-2,-2,-3,-2,-1
1513173071049132,-5,-1,0,0,-1,0,0,-2
1513173071055632,3,-1,-2,-2,-3,-1,-1,0
1513173071055632,-4,-4,0,-2,-1,0,0,-3
1513173071071143,-2,-1,-2,-1,-1,-1,0,0
1513173071071143,-3,-4,0,1,-1,-1,-1,1
1513173071085645,-2,-1,-1,-2,-3,-3,0,0
1513173071085645,0,-3,-1,1,-1,-2,-1,-1
1513173071094663,-3,0,0,-1,-1,-1,-1,0
1513173071094663,-1,-1,-5,-2,-1,-2,-1,0
1513173071096163,-2,-1,-3,1,0,-1,-1,-3
1513173071096163,2,1,-4,-4,-1,-4,-1,-1
1513173071108661,1,0,-1,-1,-1,-3,-1,-2
1513173071108661,2,-1,-8,-2,-1,-1,-2,-1
1513173071115665,-2,0,0,-1,0,-1,0,-3
1513173071115665,-1,-1,-1,1,1,1,-2,-1
1513173071132177,-2,-1,1,0,-2,0,-2,0
1513173071132177,3,-1,2,0,-2,-1,-1,0
1513173071133678,-2,-1,1,1,-2,-1,-1,-2
1513173071133678,-3,-1,-3,0,-1,-1,-1,-1
1513173071154693,-2,-4,-3,-1,0,-1,-1,0
1513173071154693,-1,-1,0,0,-2,-1,-2,2
1513173071156706,-2,-3,-1,1,-1,1,-2,1
1513173071156706,2,1,-2,-3,-2,-2,-1,-1
1513173071168202,0,0,-2,-2,-1,-1,1,-1
1513173071168202,-1,-1,-1,-3,-1,-1,-1,-1
1513173071177227,-3,1,-1,-1,0,-1,-1,-1
1513173071177227,1,2,-3,-2,-2,-2,-1,-3
1513173071192737,-1,-2,-1,0,-1,-3,0,-2
1513173071192737,1,2,0,0,-1,-1,-1,0
1513173071194238,4,1,1,-1,-3,-3,-1,1
1513173071194238,-8,0,-2,-2,0,1,-1,-3
1513173071214747,0,0,-1,-1,0,-3,0,0
1513173071214747,-1,1,0,0,0,-1,0,-1
1513173071216249,1,2,-4,-2,-1,-2,-2,-2
1513173071216249,0,-1,-1,3,-2,-2,-1,-1
1513173071228245,-2,-1,0,0,-1,-2,-3,1
1513173071228245,-4,-5,-1,-1,0,0,0,-2
1513173071237264,-1,-1,-3,-5,-3,-2,-1,0
1513173071237264,-1,-1,1,0,-1,-1,-1,0
1513173071252271,-7,-1,2,-1,0,-1,-1,-2
1513173071252271,-1,-2,-1,1,-2,-2,-1,-3
1513173071253773,0,-4,-2,-1,-1,-1,-1,-2
1513173071253773,-2,-4,0,0,-2,0,-1,-2
1513173071274787,1,-2,-2,0,-1,-2,-2,0
1513173071274787,-2,-3,-6,-2,-1,-2,-1,-1
1513173071276288,0,-2,1,-1,0,-2,-3,-2
1513173071276288,-1,-3,2,1,-2,-1,-1,0
1513173071288287,2,-2,-1,1,1,0,2,-2
1513173071288287,-2,0,-3,0,0,-2,-1,-1
1513173071297295,0,-3,-2,-2,0,-1,0,1
1513173071297295,-4,-3,0,0,-1,-1,-1,-1
1513173071312346,0,-3,-4,-3,0,-2,-2,-1
1513173071312346,-1,3,-1,-3,-2,-1,-1,0
1513173071313821,-3,1,0,0,-1,0,-1,-3
1513173071313821,1,0,-2,0,-2,0,-1,0
1513173071334821,1,2,-3,-4,-2,-1,-2,-1
1513173071334821,1,-1,0,0,-1,1,-1,0
1513173071336322,-4,0,-1,2,-2,-2,-2,-3
1513173071336322,-1,-4,-1,-1,0,-1,1,-1
1513173071348330,-2,0,-1,0,-1,-1,-1,0
1513173071348330,0,0,-1,-2,0,-2,-1,0
1513173071357336,0,-2,-1,-1,-2,0,0,-2
1513173071357336,1,0,-2,-3,-1,-2,-1,-1
1513173071371847,0,-3,-2,1,0,1,-1,0
1513173071371847,0,1,1,-1,-2,-1,0,0
1513173071373848,-6,-3,2,1,-1,1,-2,-2
1513173071373848,-4,0,-2,-1,-1,-1,-1,-3
1513173071394362,1,-2,-3,-2,-2,-2,0,-1
1513173071394362,-3,-1,-1,0,0,-1,0,-3
1513173071396363,1,2,-2,-1,-1,-1,1,-3
1513173071396363,1,-1,0,-3,-2,-2,-2,0
1513173071408372,-3,-1,0,-2,-1,1,-1,1
1513173071408372,1,-2,-2,-2,-2,-3,-4,1
1513173071417378,-1,-2,-2,-1,-1,1,0,-1
1513173071417378,-1,1,-2,-1,0,-1,-3,-1
1513173071431888,-2,-1,0,0,-1,-1,1,-1
1513173071431888,-2,-2,-3,0,0,1,-2,-1
1513173071433895,-3,0,0,-2,-2,-2,0,1
1513173071433895,-5,-3,-1,0,-1,1,-1,-3
1513173071454405,-1,-3,0,-2,-2,-2,-1,2
1513173071454405,1,-1,-2,-2,-2,0,-1,-1
1513173071456906,-3,0,0,0,-1,-1,-2,-1
1513173071456906,0,-1,-5,-3,-2,-2,-2,-2
1513173071468414,-9,-1,0,1,0,0,-1,-3
1513173071468414,-4,3,1,1,-2,-2,1,-4
1513173071477422,2,-1,-3,0,-1,-2,1,-1
1513173071477422,-1,3,1,-1,-2,-1,1,0
1513173071492449,0,-3,-2,-2,-1,0,-2,1
1513173071492449,1,-2,-1,-3,-3,-3,-2,1
1513173071493942,-1,1,-4,-3,-3,-1,0,-3
1513173071493942,-1,0,-1,0,-1,-2,-1,-3
1513173071514459,3,0,-3,1,0,-3,0,-1
1513173071514459,-2,-2,0,-1,0,3,0,-1
1513173071515962,3,-4,-1,-2,-2,-3,-2,1
1513173071515962,-10,-10,0,2,1,-1,0,-1
1513173071528476,2,1,-1,0,-2,1,-2,-1
1513173071528476,-2,0,-3,-1,0,-2,0,1
1513173071537463,-2,-4,1,-2,0,-2,-2,-1
1513173071537463,2,-2,0,-1,0,-1,-1,-1
1513173071551973,6,3,-4,-4,-4,-3,-1,2
1513173071551973,-3,0,-1,0,0,-1,-2,-2
1513173071553975,-2,2,-2,-2,-2,0,0,-2
1513173071553975,1,0,2,-2,-2,-1,-1,0
1513173071574492,1,2,1,-4,-2,-2,-1,0
1513173071574492,1,0,-2,-1,-1,-2,-1,-1
1513173071575991,-2,0,1,0,0,-3,-1,-2
1513173071575991,4,5,-5,-4,-3,-1,-3,-2
1513173071597039,-1,-1,0,-2,-2,-1,1,0
1513173071597039,0,1,-1,-1,1,-2,0,0
1513173071599041,-4,-3,1,2,0,0,-2,-3
1513173071599041,-1,-7,-7,0,1,-1,1,-1
1513173071613070,-5,-5,4,0,0,0,0,-1
1513173071613070,1,0,-1,-1,-2,-2,-1,0
1513173071614570,4,2,-3,-2,-1,-1,-2,0
1513173071614570,-1,-3,0,0,-1,0,0,0
1513173071634567,-1,-1,-1,1,0,-3,-1,-2
1513173071634567,-1,-6,-2,0,0,-1,0,0
1513173071636067,-12,-2,5,1,-1,1,-1,-5
1513173071636067,-1,2,2,-1,-1,1,-1,-1
1513173071657092,-2,-2,-3,-1,0,0,-2,-1
1513173071657092,-7,-4,5,1,1,0,0,-1
1513173071658594,-1,-3,-4,-2,0,-2,0,-1
1513173071658594,1,-1,-2,-1,-2,0,-2,0
1513173071672102,4,-1,2,-2,-1,0,0,0
1513173071672102,4,1,-4,-2,-3,-3,-2,1
1513173071673604,-1,-1,-1,-1,-2,-1,-1,-1
1513173071673604,-5,-1,-1,2,1,-1,-1,0
1513173071694608,1,-1,-4,-2,-2,-1,0,0
1513173071694608,-1,-1,0,-2,-1,-1,0,-2
1513173071696109,-1,1,0,0,1,-1,-2,-2
1513173071696109,0,0,-1,-1,-2,-5,-2,-1
1513173071717124,-5,-3,-1,-2,1,0,-2,0
1513173071717124,-1,-1,-2,-2,0,-1,-2,0
1513173071718625,-2,2,-4,-2,-3,-4,-1,-1
1513173071718625,-4,-5,-1,0,-1,0,0,-1
1513173071731634,-1,1,-2,-3,1,-2,-1,-1
1513173071731634,1,0,-2,-1,-3,-2,-1,0
1513173071738139,3,-2,-5,-3,-3,-2,0,0
1513173071738139,-2,-1,-1,0,0,-1,-1,-2
1513173071754650,-3,-1,1,0,0,0,0,-1
1513173071754650,4,0,-6,-3,-2,-2,-2,0
1513173071756151,-1,-4,1,1,0,1,0,-1
1513173071756151,-1,1,2,-1,-1,-1,0,-2
1513173071777166,-1,0,-4,-1,-2,1,-1,-2
1513173071777166,-1,-2,-1,0,-1,1,-1,0
1513173071778667,-3,-3,1,1,2,0,-1,-2
1513173071778667,-1,3,-2,-4,-1,-3,-2,-1
1513173071791692,-3,-1,-1,-2,-3,-2,-2,-2
1513173071791692,-6,-9,3,1,2,2,1,-2
1513173071798193,-1,-2,1,-1,-2,-2,-1,-1
1513173071798193,0,0,-2,-2,-2,-1,-1,-1
1513173071814706,1,0,-3,-1,-1,0,-1,1
1513173071814706,1,3,-3,-2,-1,-3,-1,-2
1513173071816210,-2,-2,-1,-1,0,1,1,-2
1513173071816210,-2,-2,-2,-1,0,-1,-1,0
1513173071837209,0,-2,-1,-2,0,-2,-3,-1
1513173071837209,-7,-5,2,1,1,2,1,-2
1513173071838710,1,2,-1,-2,-1,0,-1,-2
1513173071838710,-1,0,0,-1,-1,-1,0,-3
1513173071851219,-2,-1,0,1,0,-2,1,-2
1513173071851219,1,0,-2,-1,-2,-2,-2,0
1513173071858239,0,-2,0,1,-2,-2,0,1
1513173071858239,-2,0,1,-3,-2,-1,1,-2
1513173071874752,-4,-1,3,0,0,-2,-1,1
1513173071874752,1,1,1,-3,-1,-1,-1,0
1513173071876239,0,-1,-2,-2,-1,-1,-2,-1
1513173071876239,-2,-2,0,-1,0,0,-1,-1
1513173071897260,6,1,-5,-1,-1,-1,-1,1
1513173071897260,-1,1,-2,-1,-1,-1,0,-1
1513173071898765,0,-2,-1,-3,-1,-1,-1,-1
1513173071898765,0,0,-1,-1,-2,-2,-1,0
1513173071911261,0,-2,-2,0,-1,-1,-2,-2
1513173071911261,-1,-3,-2,-2,0,-1,0,-1
1513173071918268,-1,-1,0,0,-1,-1,-1,-1
1513173071918268,0,-1,-2,-1,-3,-1,-2,0
1513173071934293,-2,0,-2,-1,-1,-2,0,1
1513173071934293,-1,0,-2,0,-1,-2,0,-3
1513173071936294,-3,-1,-1,0,0,-1,-2,-3
1513173071936294,0,-2,2,-2,-1,-1,-1,-1
1513173071956810,2,-1,-4,0,0,0,-1,1
1513173071956810,0,2,0,1,0,-2,-1,0
1513173071958823,2,0,-3,-2,-2,-4,-2,0
1513173071958823,-4,-6,1,1,2,2,-1,-1
1513173071971358,-2,0,-3,-2,1,0,0,0
1513173071971358,6,-3,-4,-1,-3,-2,-1,1
1513173071985839,-2,1,0,-1,-1,-3,-2,-2
1513173071985839,-1,1,-2,-2,-3,-1,-2,1
1513173071994335,-2,-1,-2,-3,-2,-1,-3,-1
1513173071994335,-1,-1,0,-1,0,-1,0,0
1513173071996336,-3,-2,-3,0,0,1,-1,1
1513173071996336,0,-1,-3,-1,-1,-3,-2,-1
1513173072016852,-2,-4,0,-1,-2,0,0,0
1513173072016852,-4,0,-3,1,-1,-1,-2,-1
1513173072018853,-2,-3,0,0,-3,0,-1,-1
1513173072018853,0,0,-2,0,0,1,-1,-2
1513173072031361,-1,-1,1,-2,0,-2,-1,1
1513173072031361,-2,1,-1,-1,0,1,-2,-3
1513173072038366,-4,-3,-1,-1,0,0,0,0
1513173072038366,0,-1,-2,-1,0,-1,-1,-1
1513173072055388,-1,-2,0,-1,-2,-2,-1,-1
1513173072055388,-1,1,-1,-3,-1,1,0,-2
1513173072056881,0,-3,-2,-1,-1,-1,-1,-1
1513173072056881,0,4,-1,0,-1,-3,-1,0
1513173072076915,-7,-6,-1,-1,2,0,1,-2
1513173072076915,-1,0,2,-1,-2,-1,-1,0
1513173072078907,0,2,-5,-2,0,-2,-2,-2
1513173072078907,-1,-2,-3,0,0,-1,0,-2
1513173072090907,-1,-3,-1,0,0,-2,-3,0
1513173072090907,0,1,0,-1,-1,-2,0,-1
1513173072099916,-1,0,-1,-2,-2,-1,-2,-2
1513173072099916,4,-1,-2,-3,-3,-2,0,-1
1513173072114438,-3,-2,0,2,0,0,-2,-2
1513173072114438,-2,-2,-2,-1,-1,-1,-1,-1
1513173072116425,2,0,1,-1,-2,-1,0,-2
1513173072116425,0,-1,-2,-1,0,-1,1,-1
1513173072136936,2,-1,-2,-2,-2,0,-2,-1
1513173072136936,-2,-1,1,-1,-2,-2,-1,0
1513173072138437,-4,-2,0,-1,0,-1,-2,0
1513173072138437,-5,-1,2,0,-1,0,0,-1
1513173072150446,-1,0,0,0,-1,-2,-1,-1
1513173072150446,-2,-1,-1,0,-1,-2,-2,-2
1513173072159952,1,-3,-3,-2,-1,-1,-1,-1
1513173072159952,-6,-4,-1,0,0,0,-1,-3
1513173072174472,1,2,-1,-2,-3,-1,1,-1
1513173072174472,0,-2,-2,-2,-1,-2,0,0
1513173072175968,-2,1,-1,2,-1,-1,0,0
1513173072175968,0,0,-3,-2,0,1,-1,-1
1513173072197018,3,-1,-7,-4,-1,0,-1,0
1513173072197018,-3,0,0,-2,-2,0,-1,-2
1513173072198480,0,0,2,-1,-2,-1,-2,0
1513173072198480,-3,-3,0,0,-1,-3,0,0
1513173072211000,2,4,-3,-2,-2,-2,-1,2
1513173072211000,-3,-2,-2,0,0,0,-2,-3
1513173072220005,-2,0,-1,-2,-1,-2,-1,-1
1513173072220005,-2,-1,-1,-1,-3,0,0,0
1513173072234506,2,0,-1,-2,0,-1,-2,-2
1513173072234506,1,0,-1,-1,-2,-1,-1,0
1513173072236007,-3,0,-1,0,-3,-1,-1,-3
1513173072236007,0,-2,-1,-3,-1,-1,-2,-1
1513173072257523,-6,-1,3,2,0,-3,0,-2
1513173072257523,0,1,-1,-2,-1,-1,-2,0
1513173072259550,-2,-1,-1,1,0,1,0,-1
1513173072259550,-1,-1,-1,-2,-2,-2,-1,-1
1513173072271040,0,-2,1,1,0,1,-1,-1
1513173072271040,0,-3,-2,0,0,0,-1,-3
1513173072279537,-1,2,-5,-4,-3,-1,-1,-3
1513173072279537,0,-1,1,-2,-1,-3,-1,-1
1513173072294547,-1,-3,0,1,-1,0,0,0
1513173072294547,0,3,-2,-1,-4,-2,-1,1
1513173072296048,-1,-1,0,0,0,-2,0,-1
1513173072296048,-1,-1,-1,-2,-2,-1,-1,-2
1513173072317072,-2,-1,-1,-2,-1,-1,-2,-2
1513173072317072,-2,-2,-1,-2,1,-2,0,-1
1513173072318564,-2,-1,-2,-1,1,-2,-2,-1
1513173072318564,0,-3,-1,1,-1,-2,0,-1
1513173072331073,-1,-2,0,-1,-2,0,-1,0
1513173072331073,-4,-4,1,1,-3,0,1,-1
1513173072339586,-2,-1,-2,-2,-1,-2,0,-2
1513173072339586,-1,0,1,-1,-1,-2,-2,-1
1513173072354590,0,2,-4,-3,-3,-2,-3,-3
1513173072354590,-1,-1,0,-2,0,-1,-2,-2
1513173072357091,0,-3,1,-2,-2,-1,-1,-1
1513173072357091,1,3,-5,-3,-3,-3,-1,0
1513173072377107,-1,-1,-2,0,-1,-2,-2,-1
1513173072377107,0,-1,2,0,-2,0,-2,-1
1513173072378607,0,0,-1,-1,-2,-1,-1,-1
1513173072378607,0,-1,-3,0,-2,0,-3,-1
1513173072390615,0,1,-2,-2,-1,-1,0,1
1513173072390615,-1,-2,-2,0,-1,-2,2,-1
1513173072400126,0,-3,0,-3,-1,-1,-1,-1
1513173072400126,-2,-4,0,2,0,0,0,-1
1513173072414651,0,-5,0,-1,0,-2,0,0
1513173072414651,-1,-3,0,0,-2,1,-1,-1
1513173072416140,3,0,-2,-2,-2,-2,-2,-1
1513173072416140,-3,-1,0,-1,0,1,-3,-2
1513173072437148,0,-2,-2,-2,0,0,1,0
1513173072437148,-1,2,-5,-5,-2,-1,-2,-1
1513173072438649,1,-2,-2,-1,-2,-1,1,0
1513173072438649,-2,-2,-2,-1,2,1,0,-2
1513173072450659,-2,-3,-1,0,-1,0,-1,0
1513173072450659,1,-1,-2,0,-1,-3,0,-1
1513173072459665,0,1,-2,-2,-3,-3,-2,-3
1513173072459665,-2,-2,-1,-1,0,0,0,-1
1513173072475197,-1,-2,-1,-1,1,-2,-1,-2
1513173072475197,-2,-1,-1,-1,-1,-1,-1,1
1513173072476699,-2,-2,-2,-1,-2,0,0,-1
1513173072476699,-1,-3,3,-1,-1,-1,1,1
1513173072497219,-2,0,1,-2,-2,-1,1,0
1513173072497219,2,-1,-1,-1,-2,-3,-1,0
1513173072498702,-7,-2,3,0,2,0,-2,-3
1513173072498702,-1,0,-1,0,-2,0,0,-2
1513173072519707,0,-1,-1,-1,1,0,0,0
1513173072519707,0,-1,-1,-3,0,-2,-3,0
1513173072521218,-1,-1,-2,0,0,-1,-1,-1
1513173072521218,0,-3,-2,-1,-1,-1,-2,0
1513173072535217,-3,-3,2,1,0,0,0,-3
1513173072535217,-2,-3,-1,0,1,0,1,-1
1513173072536719,-3,-2,0,-1,-2,-2,-1,1
1513173072536719,-1,-1,-4,-2,0,-1,0,1
1513173072557233,2,-1,-5,-1,-1,-2,-2,0
1513173072557233,-1,-1,1,-2,-1,-2,-2,-3
1513173072558747,0,3,4,0,-1,0,-1,-2
1513173072558747,2,-5,2,1,-1,-2,-1,0
1513173072579759,-5,0,1,1,-1,-1,0,-1
1513173072579759,0,0,0,0,-2,0,1,-1
1513173072581250,3,-1,-6,-1,0,-2,-2,-1
1513173072581250,1,-1,-2,-3,-2,-2,-1,-2
1513173072593758,-1,-4,0,1,0,1,0,-1
1513173072593758,-2,0,-2,-2,-1,-1,-1,-2
1513173072600764,-1,-3,-2,-2,0,-1,-2,-2
1513173072600764,2,6,-4,-2,-2,-3,-2,0
1513173072617275,-1,-3,-2,-2,-3,-2,-3,-1
1513173072617275,-1,2,0,-1,-2,-1,-1,-1
1513173072618776,-2,-3,-2,-2,-1,-1,0,0
1513173072618776,-3,-1,-1,0,-1,-3,-2,-1
1513173072639302,1,0,-2,-3,-1,-3,0,1
1513173072639302,-2,-1,-1,1,0,-1,-1,-2
1513173072641303,1,-1,0,-1,-3,0,0,-2
1513173072641303,-2,-3,-1,-1,-1,0,-1,-1
1513173072654302,1,1,-1,1,-1,1,-1,0
1513173072654302,3,-7,3,-1,1,0,-1,2
1513173072657304,-2,-1,-2,-1,-1,-1,-1,-2
1513173072657304,-1,0,-1,-2,1,1,1,-2
1513173072676821,1,0,-1,-2,0,-1,0,0
1513173072676821,-1,0,-2,-1,-2,-1,-3,-1
1513173072678835,-6,-5,0,0,0,1,-1,-1
1513173072678835,1,0,0,-2,-1,-2,-2,-1
1513173072699839,2,0,-2,-1,-1,-1,-2,-1
1513173072699839,-1,0,-1,0,1,-2,0,-2
1513173072701335,2,-1,-3,-1,0,-1,1,0
1513173072701335,-5,-2,0,0,-1,0,-1,-2
1513173072713845,-1,-2,-1,-1,-2,-2,-2,-3
1513173072713845,-2,1,2,-1,-2,0,-1,-2
1513173072720849,-1,-1,-1,-1,-2,-1,-2,-2
1513173072720849,-1,-2,0,0,-1,-3,0,-1
1513173072736871,-1,0,-1,-2,0,-3,-2,-2
1513173072736871,-3,-2,-3,-1,0,0,-1,-3
1513173072738874,-2,-1,-1,-2,-1,-1,-2,0
1513173072738874,-4,-4,5,1,0,1,-2,-1
1513173072759386,-1,-2,0,1,-1,0,-1,1
1513173072759386,-5,-5,1,0,0,0,0,-1
1513173072760887,-1,-1,-1,0,1,-1,-2,-3
1513173072760887,1,-2,-2,-2,-2,-1,-2,-1
1513173072773887,-3,-3,-2,-2,-1,-1,-1,-2
1513173072773887,-3,2,-1,0,-2,0,-1,-1
1513173072780907,-2,-1,-2,-2,-2,-2,0,-1
1513173072780907,5,-1,-4,-2,-1,0,0,1
1513173072796928,1,1,-2,-3,-2,-2,-1,-2
1513173072796928,1,1,-3,-3,-3,-1,1,1
1513173072798403,-2,0,0,0,-1,-1,1,-2
1513173072798403,0,1,-3,-2,-2,-1,-1,1
1513173072819430,0,0,0,-1,-1,0,-1,1
1513173072819430,0,0,-6,-4,-2,-1,-2,-1
1513173072821423,1,-2,0,-1,-1,0,-2,-2
1513173072821423,-6,-3,-1,-1,1,-1,0,-3
1513173072833940,-2,-1,1,0,-2,1,0,-2
1513173072833940,-1,1,-3,-1,-3,-1,-1,-3
1513173072840945,-1,-2,4,1,0,-1,2,-1
1513173072840945,-1,-2,-1,-2,-1,-2,-1,0
1513173072856946,-1,-1,-2,-2,-3,-1,-2,1
1513173072856946,-2,-1,-2,-3,0,-3,-2,-2
1513173072858450,-1,-1,-2,-2,-2,-1,-2,-2
1513173072858450,-1,1,-2,-1,-1,-1,-2,-2
1513173072879464,0,-1,-2,-1,-1,-1,1,0
1513173072879464,1,-1,-1,-1,-2,-1,0,-1
1513173072880962,-4,-1,0,0,-1,-1,1,-3
1513173072880962,-2,0,-1,0,-3,-1,0,-2
1513173072893988,0,-1,-2,-2,-1,-1,-1,0
1513173072893988,0,0,-2,-1,0,-4,-1,-1
1513173072900496,-2,0,-1,-2,0,0,-2,0
1513173072900496,0,1,-1,-1,-1,0,-1,-3
1513173072916988,0,2,-3,-2,-1,-2,-1,-2
1513173072916988,-2,-2,1,0,-1,1,1,0
1513173072924993,-1,-2,-1,-1,-3,-2,-2,-2
1513173072924993,2,-2,-4,-1,-2,0,0,-1
1513173072939516,-3,-4,0,-1,-2,0,-1,-1
1513173072939516,0,-4,3,0,-1,-1,-1,-2
1513173072941016,-1,0,-3,-1,-1,-1,-1,-1
1513173072941016,0,-2,-1,-1,-2,0,-1,0
1513173072954028,-1,-2,-2,-1,-1,0,0,-1
1513173072954028,-3,-1,-3,-1,-3,0,-2,-3
1513173072960532,-2,-2,0,-1,0,-1,-1,-2
1513173072960532,0,-2,0,-3,0,-3,-1,0
1513173072977030,-2,-2,-1,-1,0,0,-2,-1
1513173072977030,-3,0,0,-2,-2,-1,-2,-1
1513173072984536,4,4,-3,-1,-2,-1,-1,-2
1513173072984536,-1,-1,0,0,-2,-2,-1,-2
1513173073000055,-1,0,0,2,1,-1,0,-2
1513173073000055,-2,-2,0,-1,-1,-1,-1,-3
1513173073001047,-1,0,-4,-3,-2,-1,-1,0
1513173073001047,-1,-3,-1,-2,0,-2,-1,0
1513173073013093,0,-1,-1,0,-1,-2,-1,1
1513173073013093,-3,-5,2,1,-1,-1,1,-1
1513173073022061,-6,1,2,1,0,0,-1,-2
1513173073022061,-2,-2,0,-1,-2,-1,0,0
1513173073037081,1,1,-1,-1,-2,-2,-1,-1
1513173073037081,-1,-1,-2,-2,-1,-1,-2,0
1513173073038574,1,-4,-1,-1,0,-1,-2,0
1513173073038574,-3,-1,-1,1,-1,0,0,0
1513173073059603,0,1,-1,-3,-1,0,-2,-1
1513173073059603,-2,-1,-1,-1,-1,-1,-1,0
1513173073061090,-1,-3,-3,-2,-2,-1,-1,-2
1513173073061090,-2,-3,1,1,0,1,-1,0
1513173073073101,-2,0,-2,0,-1,2,0,-2
1513173073073101,-1,-1,-1,-2,0,-2,-1,-1
1513173073082105,-4,-5,3,0,0,-3,0,0
1513173073082105,-8,-2,3,1,0,-1,0,-3
1513173073097115,1,-2,-1,-1,-2,-1,-2,0
1513173073097115,-1,2,-1,-1,-2,0,-2,-1
1513173073098616,-2,0,-3,-1,0,0,-2,-2
1513173073098616,4,0,-3,-2,-2,0,-2,1
1513173073119630,-2,-2,-2,-1,-1,0,0,0
1513173073119630,2,1,-4,-1,-2,0,-2,-1
1513173073121145,-3,-2,0,0,1,-1,0,0
1513173073121145,-1,1,-4,-2,-1,1,-2,1
1513173073133141,1,0,-3,-1,-1,-2,0,0
1513173073133141,-2,-1,-2,-1,-1,-3,1,-1
1513173073142146,0,1,-3,-3,-3,-1,-1,-1
1513173073142146,1,-6,3,0,2,-2,1,-2
1513173073157667,-3,-1,1,0,0,-2,-1,-1
1513173073157667,-2,-1,-1,-2,0,-1,-1,0
1513173073159158,4,1,-6,-5,-3,-4,-1,1
1513173073159158,-2,-1,-3,-1,-2,-1,-2,0
1513173073179714,0,0,-1,-3,-3,1,-1,-2
1513173073179714,-1,2,2,0,-2,-1,0,-2
1513173073181174,1,3,-2,-1,-1,-3,0,-2
1513173073181174,0,0,-5,-1,-1,-1,0,-1
1513173073193182,1,0,-2,0,0,-4,-1,0
1513173073193182,-2,-2,-1,-1,-2,-2,0,-3
1513173073208196,0,-3,1,0,0,1,-2,-1
1513173073208196,-1,-1,-3,-2,-1,0,-3,0
1513173073217203,-3,0,0,0,1,0,0,-1
1513173073217203,1,0,-2,-1,-1,0,0,-2
1513173073218701,-2,-1,1,-1,-1,-1,0,-2
1513173073218701,-1,-2,-1,0,0,-3,0,-1
1513173073239259,-3,-4,2,-1,-2,-1,-1,1
1513173073239259,-3,-4,-1,-1,1,0,-3,0
1513173073247257,-2,-4,1,0,-1,1,0,0
1513173073247257,-2,1,-3,-2,-1,0,-2,-1
1513173073253269,-1,-2,-2,0,-1,-3,1,0
1513173073253269,1,-2,-4,-2,-2,-1,-1,0
1513173073262263,-3,0,1,0,-3,0,-1,-2
1513173073262263,0,0,-2,-1,0,-1,-1,0
1513173073277274,2,-1,-3,-1,-3,0,-1,0
1513173073277274,-1,-2,-1,-3,-1,-1,-1,-1
1513173073278788,-3,-2,0,-1,-2,0,0,-2
1513173073278788,0,0,0,-1,-2,-1,0,-1
1513173073299791,-1,0,-3,-1,-2,-2,0,-1
1513173073299791,-2,-2,-2,0,0,-1,-1,-2
1513173073301294,-6,-1,2,2,-1,-1,-2,-3
1513173073301294,1,0,-1,-1,-2,0,0,0
1513173073313338,-2,-2,2,-1,1,0,-1,-2
1513173073313338,-1,1,0,0,-1,-2,-2,-1
1513173073322318,0,2,-2,-2,-1,-3,-1,0
1513173073322318,0,0,-1,-1,0,-3,0,-1
1513173073337316,0,1,-3,0,0,1,-1,-1
1513173073337316,-1,-2,0,0,0,0,-3,-1
1513173073339319,-1,0,-4,-1,-2,-2,-1,0
1513173073339319,-1,-2,-3,-3,-2,-2,0,0
1513173073359332,1,-1,-3,-3,-1,-1,-2,-1
1513173073359332,1,2,-2,-4,-3,-2,-3,-2
1513173073361333,-1,-2,-2,1,-1,0,-1,0
1513173073361333,-1,-1,1,0,-1,-1,-1,-1
1513173073373355,-1,-2,-2,0,-2,-2,0,-1
1513173073373355,-6,-3,1,2,-1,0,1,-2
1513173073382348,-2,-3,-2,-3,1,-2,0,-1
1513173073382348,0,-1,0,-1,-1,-1,-2,0
1513173073397371,0,0,-2,-3,-1,-1,-2,-1
1513173073397371,-5,-4,0,0,-1,-2,-2,-1
1513173073399371,0,-3,2,-1,-2,1,-2,-2
1513173073399371,-2,1,-3,-2,-1,-1,-3,-2
1513173073419384,0,-1,-1,1,-2,0,-2,0
1513173073419384,-1,-1,-2,-1,-2,-1,1,-1
1513173073420876,-2,1,-6,-3,-2,-1,-3,-3
1513173073420876,0,-1,0,-2,-1,-2,-1,-3
1513173073433385,-2,-1,-1,-1,0,-2,-1,0
1513173073433385,-1,-1,1,-2,-1,-2,-1,-3
1513173073442390,2,-3,-4,0,-1,0,0,0
1513173073442390,-2,0,-1,1,-1,0,-1,0
1513173073456911,-1,0,-2,-3,0,0,-1,0
1513173073456911,-1,0,0,-2,-2,-2,-3,-2
1513173073458904,1,-1,-1,-3,-1,-2,-1,-3
1513173073458904,2,3,-2,-3,-2,-2,-1,0
1513173073479420,-4,-4,1,1,2,-1,-1,-1
1513173073479420,-2,0,0,-2,2,0,0,-1
1513173073480919,-3,0,0,0,-2,-2,0,0
1513173073480919,0,-2,-2,-1,-1,0,-1,-1
1513173073501933,1,1,-2,-1,-3,-2,-2,0
1513173073501933,0,0,-3,-1,-1,0,-1,-2
1513173073503434,-3,-5,4,1,0,-2,-1,0
1513173073503434,-2,-3,0,1,-1,-1,0,-2
1513173073516945,-2,-3,-2,-1,0,-2,0,0
1513173073516945,1,-2,-2,-1,-1,-1,-1,0
1513173073518455,-1,0,-2,-1,-1,0,0,0
1513173073518455,-3,-2,-2,0,0,-2,0,1
1513173073539459,0,-1,1,0,-1,-1,0,-2
1513173073539459,-3,1,2,-2,-3,0,0,0
1513173073540960,0,-1,-1,-1,-3,-1,-1,-1
1513173073540960,1,1,-3,-3,-4,-2,-1,1
1513173073561978,-3,-3,1,-1,2,1,-2,-2
1513173073561978,-1,0,0,-3,-2,-3,0,0
1513173073563477,1,0,-2,-1,-1,-1,-1,-1
1513173073563477,0,1,-2,-1,0,-1,-2,-1
1513173073577007,0,2,-2,-1,-1,-2,-1,0
1513173073577007,0,-3,-1,0,-1,-1,-2,-1
1513173073578508,-1,2,0,-2,0,-2,-1,-2
1513173073578508,-4,-3,1,0,1,0,1,-1
1513173073599519,1,-2,-4,-2,-2,-2,-1,0
1513173073599519,-2,0,1,2,-2,-1,1,-2
1513173073601003,-3,-1,-1,0,-2,0,-1,-1
1513173073601003,1,-1,0,-1,0,0,-1,-2
1513173073622045,-5,-1,5,-1,0,0,1,-2
1513173073622045,0,-1,-3,-2,-2,-3,-1,-1
1513173073623534,-1,-1,-1,-1,-2,-3,-2,-1
1513173073623534,-2,-3,1,1,0,0,-2,0
1513173073636528,2,1,-1,-2,-1,-1,-2,-1
1513173073636528,-1,-2,-1,-1,-1,0,-2,-1
1513173073643045,-3,0,0,-1,0,-1,-2,-3
1513173073643045,0,-1,1,-2,0,-1,-1,-2
1513173073659557,0,0,-4,0,-2,0,-2,-1
1513173073659557,-1,-3,0,1,0,-1,0,-1
1513173073661049,0,0,-2,-2,-1,-2,-1,1
1513173073661049,-1,0,-2,-3,0,-1,0,0
1513173073682060,-1,-1,-1,-3,-1,0,-1,-1
1513173073682060,-2,-1,-1,0,-1,0,-2,-2
1513173073683563,3,0,-2,-2,-2,-2,-3,0
1513173073683563,-4,-2,0,2,0,0,-1,-1
1513173073696573,1,0,-1,-2,-1,-2,-3,0
1513173073696573,-2,0,-1,-1,0,0,-1,-4
1513173073703078,1,-2,-1,-1,-2,-2,-1,-1
1513173073703078,3,0,-6,-3,-2,-2,-3,0
1513173073719599,-1,3,-7,-3,-3,-3,-2,-1
1513173073719599,0,4,-3,-3,-2,0,-2,-2
1513173073721100,-1,-2,-2,-2,1,-1,1,-1
1513173073721100,-1,-1,2,1,-1,0,0,0
1513173073742113,1,-3,-2,-3,-1,0,-1,1
1513173073742113,-2,-1,-2,-3,-1,-2,1,-1
1513173073743613,-2,-3,-1,0,0,1,0,-1
1513173073743613,-2,-3,-2,-1,0,-1,-1,0
1513173073756113,-1,0,-2,-1,-2,-2,0,-1
1513173073756113,-5,-3,-1,-2,0,-2,-2,-2
1513173073763117,-1,-3,-2,-1,0,0,-2,0
1513173073763117,-4,1,2,0,-1,0,-1,-3
1513173073779640,-1,-1,1,0,-2,-2,0,1
1513173073779640,2,3,-1,-1,0,-1,-1,-1
1513173073782151,-5,-2,-1,0,-1,0,-1,-4
1513173073782151,-2,-10,2,2,0,0,1,-1
1513173073802145,0,-2,0,1,0,-1,0,-1
1513173073802145,0,-2,-1,-2,-2,-1,-2,-1
1513173073803646,1,0,-2,-4,-2,-1,-2,-1
1513173073803646,2,2,-5,-1,-2,-2,-1,1
1513173073816656,-2,-3,0,0,0,0,1,-2
1513173073816656,-1,-3,-2,-2,0,-2,0,-1
1513173073823161,-3,-1,0,1,-1,-1,-1,-3
1513173073823161,1,0,0,-1,-1,-2,-1,-1
1513173073839684,-2,-2,0,1,-2,0,-2,-1
1513173073839684,0,1,-4,-2,-2,-2,-1,1
1513173073841185,-2,0,-1,0,2,-1,-2,1
1513173073841185,4,0,-3,-2,-2,-1,0,-2
1513173073862188,-2,-2,-1,-2,-1,-3,-2,-2
1513173073862188,-2,-3,2,1,-1,-1,-1,-1
1513173073863689,-1,-2,-1,0,-1,-1,-1,0
1513173073863689,0,2,-2,-1,-1,-2,-1,0
1513173073875719,1,3,-4,-1,0,-2,-2,0
1513173073875719,-5,-1,1,2,1,-1,0,-3
1513173073884703,-1,0,0,-2,-1,-1,0,-1
1513173073884703,0,-2,-2,-1,-1,-1,-1,0
1513173073898718,1,2,-1,-1,-1,1,-1,-2
1513173073898718,-2,-2,0,0,-1,-1,-1,-1
1513173073907220,0,-1,-2,-1,-2,-1,0,1
1513173073907220,-2,-2,-1,-2,0,0,-1,0
1513173073922231,-2,-3,1,-1,-1,0,1,-1
1513173073922231,0,-1,0,0,-2,-1,-1,0
1513173073923758,-2,0,0,0,-2,-1,-2,-3
1513173073923758,-1,-3,0,0,-1,0,-3,1
1513173073936250,-3,-2,-1,1,-2,0,1,-1
1513173073936250,-3,0,-1,0,-2,-2,-1,-3
1513173073943254,0,-2,-2,-1,-2,-2,-1,0
1513173073943254,-4,-1,0,1,-1,-1,1,-1
1513173073959757,-2,-2,-1,-2,-2,-1,-2,-1
1513173073959757,0,-3,-2,-2,-1,-1,-1,-1
1513173073961280,-3,0,2,2,1,-1,-1,-2
1513173073961280,1,0,0,-2,-3,-1,0,0
1513173073982273,1,-2,-1,-5,-1,-1,-2,-1
1513173073982273,-3,-3,-2,4,0,-1,-3,0
1513173073983774,-2,-1,3,1,-3,-2,-2,-3
1513173073983774,-1,1,-8,0,-2,-2,-2,-1
1513173073995782,-1,-2,-8,20,4,1,1,1
1513173073995782,0,-2,-3,-32,-2,1,0,0
1513173074004788,-2,-4,4,4,-4,-1,0,-1
1513173074004788,-2,1,-2,11,2,-2,-1,0
1513173074019298,-2,4,5,-1,-2,-3,-2,-2
1513173074019298,2,-1,23,3,0,-2,-2,1
1513173074021301,-2,-18,-29,-7,-2,-1,-1,-4
1513173074021301,-3,2,-7,-17,-4,1,1,0
1513173074041814,-3,0,-16,-17,-1,0,-1,-3
1513173074041814,3,4,8,8,0,-1,0,2
1513173074043816,-14,-7,15,-10,-2,-2,-1,-3
1513173074043816,7,-6,-5,7,1,0,0,-1
1513173074055835,-2,-8,-6,0,-1,-2,-4,-1
1513173074055835,4,2,-1,-1,-2,-1,-1,3
1513173074064838,-4,6,3,8,0,0,2,1
1513173074064838,-1,3,-8,-5,0,0,-2,1
1513173074079344,-2,5,2,7,0,-2,0,0
1513173074079344,-6,-20,-14,-11,-4,0,1,2
1513173074081343,8,11,-20,-7,2,1,1,-1
1513173074081343,-18,-2,27,-1,0,-2,-4,-8
1513173074101869,10,8,18,16,-2,-1,2,4
1513173074101869,-14,-8,-21,-7,-5,-4,-3,-5
1513173074103860,3,-5,-8,3,3,4,0,0
1513173074103860,-5,-3,12,10,0,1,0,-1
1513173074115928,0,-6,-11,-18,-3,0,-1,1
1513173074115928,7,16,4,-2,1,1,0,-4
1513173074124955,-18,-21,-8,-6,-1,-3,-3,-2
1513173074124955,-1,-5,6,9,-1,-2,-4,-3
1513173074139443,0,-6,12,3,2,0,1,0
1513173074139443,3,11,1,2,0,0,1,2
1513173074140944,5,9,-4,-9,-2,-3,-2,-5
1513173074140944,3,2,1,-6,2,0,1,4
1513173074161959,9,10,-5,1,0,1,-1,2
1513173074161959,-8,-10,-23,3,-3,-2,-4,-9
1513173074163460,1,1,22,3,1,-2,0,0
1513173074163460,-1,-15,-12,0,-3,-2,0,1
1513173074175469,3,7,14,3,-4,-3,-4,-4
1513173074175469,3,5,-3,-7,2,3,5,3
1513173074184474,14,5,-31,5,-4,-1,-3,-3
1513173074184474,0,1,-32,-1,-1,1,0,-2
1513173074199486,-17,-1,38,-7,0,-3,-4,-10
1513173074199486,6,7,16,-14,-4,0,3,7
1513173074200987,5,2,-26,-14,0,0,1,5
1513173074200987,-9,-7,0,-3,1,-3,-1,-3
1513173074222001,4,3,-23,0,-1,-1,-1,1
1513173074222001,-9,-25,9,22,-3,-4,-3,-9
1513173074223502,-3,5,21,-5,-2,-2,-2,-2
1513173074223502,8,3,-6,-13,-3,-1,-2,0
1513173074235510,-2,-4,9,6,-3,-3,0,1
1513173074235510,4,-1,-31,-9,0,-2,-5,-7
1513173074244516,1,-12,4,-1,-4,-2,2,4
1513173074244516,1,2,8,28,4,0,-2,0
1513173074259027,-10,-9,-24,-38,-1,0,1,-3
1513173074259027,-12,-1,18,3,-1,-2,-1,4
1513173074267032,6,0,7,-2,1,1,5,-2
1513173074267032,-1,15,14,28,1,-2,-4,-6
1513173074282066,-3,-9,2,-7,-3,-2,0,0
1513173074282066,-9,1,15,7,-3,-4,-5,-7
1513173074283547,4,10,-14,-2,1,1,3,9
1513173074283547,5,6,6,-29,-8,-7,-5,-8
1513173074295562,0,-3,-27,22,0,1,0,-1
1513173074295562,0,-19,5,-10,-1,1,2,3
1513173074304559,-12,-5,6,-2,-3,-4,-8,-8
1513173074304559,1,-5,-13,-7,1,1,3,5
1513173074319570,5,6,4,7,1,-1,0,2
1513173074319570,9,5,-4,6,-1,0,2,-1
1513173074321071,-7,1,-44,5,1,-2,-7,-9
1513173074321071,10,-1,34,0,-2,-1,-1,2
1513173074342089,0,-5,17,-17,-5,-3,-1,-2
1513173074342089,1,4,3,1,1,1,1,5
1513173074343590,-4,-2,6,1,-3,-3,-1,0
1513173074343590,-2,-1,-24,-8,0,3,5,2
1513173074355598,-3,12,-4,1,-1,-4,-3,1
1513173074355598,0,-7,-30,-14,-3,-3,-2,-9
1513173074364605,-10,-6,38,11,-3,-5,-3,-2
1513173074364605,-10,-8,-4,-7,0,2,0,14
1513173074379121,1,11,-13,-6,-4,-2,-3,-18
1513173074379121,-6,-19,-25,7,0,-1,-1,-1
1513173074385617,3,10,14,-5,0,-1,-1,-1
1513173074385617,3,-8,-14,-7,1,-1,-1,0
1513173074402128,-13,-16,-8,-10,0,1,0,3
1513173074402128,9,12,15,19,1,-1,-1,2
1513173074403631,0,-10,22,13,-5,-5,-3,-4
1513173074403631,-5,-1,-13,-33,-12,-4,-2,-2
1513173074424666,-4,-1,-23,45,17,3,-2,7
1513173074424666,-4,0,4,-28,-3,-2,-4,-22
1513173074426169,9,4,2,-4,-7,0,3,11
1513173074426169,5,2,7,9,4,-6,-5,-3
1513173074439654,-16,-30,2,-1,1,2,1,-2
1513173074439654,-16,0,-30,12,4,-1,-2,-2
1513173074441155,4,-20,24,-12,-4,-2,-2,0
1513173074441155,-6,-4,-9,-4,-6,-1,0,-4
1513173074462209,5,8,34,-12,-5,0,3,8
1513173074462209,-8,-1,-12,-29,-14,-4,-4,-10
1513173074463688,19,21,-18,12,12,3,-2,-2
1513173074463688,-9,3,14,7,3,-1,-4,-4
1513173074484689,1,-10,-18,11,-6,-4,-2,0
1513173074484689,-1,8,21,21,10,6,3,6
1513173074486200,7,15,-22,-49,-11,-3,2,2
1513173074486200,-25,-32,4,12,5,-3,-8,-18
1513173074499697,8,10,-2,-11,-1,2,3,4
1513173074499697,-5,9,8,2,-7,-3,-4,1
1513173074501199,-8,-15,2,4,0,1,2,1
1513173074501199,-8,9,-4,10,5,2,2,4
1513173074522725,8,4,-4,-11,-5,-1,3,12
1513173074522725,2,11,3,3,-2,-3,-2,-13
1513173074524217,-31,-7,28,12,5,1,-6,-8
1513173074524217,27,11,-4,-17,-1,0,5,14
1513173074544728,-8,-4,12,-4,-3,-1,-2,-12
1513173074544728,14,15,-1,7,-11,-4,4,12
1513173074546230,-2,-5,-17,3,15,2,-10,-6
1513173074546230,-4,-3,9,13,-3,0,0,-3
1513173074559739,-4,-7,-10,5,-3,-1,-8,-10
1513173074559739,1,-4,13,-13,-1,0,2,1
1513173074561241,-5,-6,12,4,-10,-5,7,19
1513173074561241,-11,-2,-21,-13,-2,-1,-1,-23
1513173074582255,-7,-1,3,1,3,-2,-2,-1
1513173074582255,-1,1,8,5,-2,1,-2,-1
1513173074583759,-7,-2,-36,0,-1,-3,-2,-5
1513173074583759,1,-3,8,-15,0,-2,-1,3
1513173074604771,11,19,-9,-5,-3,0,1,-2
1513173074604771,5,0,17,6,2,1,3,4
1513173074606272,9,2,-36,-7,7,3,2,3
1513173074606272,-12,-4,26,3,-16,-5,-5,-5
1513173074619781,5,-1,6,13,20,4,2,1
1513173074619781,4,-3,-15,-13,-2,-3,-12,2
1513173074625800,1,-1,2,5,-2,0,2,6
1513173074625800,-4,-1,-5,-6,-9,-4,-4,-6
1513173074641797,6,-4,14,2,-6,-2,1,8
1513173074641797,-7,9,-18,-7,5,1,0,-3
1513173074643799,-1,-8,1,0,-5,-2,-4,-10
1513173074643799,-10,-11,8,13,1,1,2,-4
1513173074663815,15,-7,16,-2,8,3,2,15
1513173074663815,1,1,-18,-2,-1,-3,-3,8
1513173074664815,-12,5,-6,-5,-5,-1,0,-3
1513173074664815,16,3,-19,6,0,-1,2,2
1513173074686876,-17,0,-5,-13,-8,-6,-16,-30
1513173074686876,-9,-9,-7,-8,0,-2,-11,-9
1513173074687882,4,-11,21,19,1,-1,-2,6
1513173074687882,0,3,14,-2,-3,-3,-1,3
1513173074701378,-7,-2,-17,0,-4,-2,3,-2
1513173074701378,2,2,3,3,1,0,12,18
1513173074702394,-12,-16,-23,-3,0,-1,-14,-22
1513173074702394,11,26,10,-8,2,6,2,-2
1513173074723907,-13,-21,6,-10,-10,-9,-8,-24
1513173074723907,3,-14,2,10,4,-3,-9,-9
1513173074724392,7,13,11,6,5,3,3,13
1513173074724392,2,-16,1,-5,0,3,-5,1
1513173074737914,7,25,8,-15,-7,-2,0,16
1513173074737914,-45,-20,-13,-4,-3,-2,-2,-19
1513173074746447,-6,-15,15,7,-3,-5,-7,-15
1513173074746447,12,5,-6,9,6,5,21,32
1513173074761419,1,18,-1,5,-4,-1,0,-2
1513173074761419,-4,-8,-14,-4,1,5,21,14
1513173074761926,13,26,8,-53,-12,3,17,46
1513173074761926,-32,-43,-9,1,-1,-10,-23,-61
1513173074783935,7,33,26,32,11,6,-3,24
1513173074783935,-7,-40,-39,-7,4,2,-12,9
1513173074784436,-5,8,28,12,4,7,14,-39
1513173074784436,14,19,36,3,7,-1,-3,60
1513173074797945,-22,-54,-56,-30,-14,-5,-22,-56
1513173074797945,11,40,70,31,11,6,18,17
1513173074806463,42,2,-20,2,3,1,-10,4
1513173074806463,-26,10,-65,20,2,2,1,-1
1513173074829485,-12,32,10,-34,0,3,33,-7
1513173074829485,-5,5,-24,-12,-16,-12,-59,-59
1513173074830492,12,-7,68,-10,-4,0,21,2
1513173074830492,25,22,24,10,7,-5,-29,-1
1513173074843989,-35,-29,-26,14,-9,-6,1,24
1513173074843989,55,20,0,-28,-5,-4,1,9
1513173074844477,-11,7,-7,34,3,-9,-18,-32
1513173074844477,4,-22,-17,-35,-9,-4,21,34
1513173074857997,3,16,35,33,-1,7,-2,-1
1513173074857997,6,-23,-5,-30,1,2,5,60
1513173074874013,-31,-28,-8,37,-1,-2,20,63
1513173074874013,13,55,61,-11,2,1,-21,-91
1513173074881503,-6,-30,-25,8,3,-4,1,5
1513173074881503,-23,39,-3,16,-3,-4,0,-10
1513173074882014,29,-1,-30,18,2,4,-10,38
1513173074882014,-37,-44,-67,-79,-18,-7,27,-2
1513173074904020,-25,-25,51,27,2,-1,6,6
1513173074904020,27,34,-34,-21,-6,-1,-1,-34
1513173074904521,-35,-23,24,-13,-9,-11,6,33
1513173074904521,-9,4,-14,-11,-14,-10,-3,25
1513173074918030,1,-5,10,-1,3,1,-11,-97
1513173074918030,-31,-4,-2,11,0,-7,-5,13
1513173074926559,-13,-13,-27,-57,-23,-7,5,19
1513173074926559,41,13,3,22,7,-2,-7,15
1513173074941556,-2,-23,-60,-9,-7,-14,-14,61
1513173074941556,-7,22,63,39,9,9,29,-35
1513173074949051,-10,42,20,2,6,0,-18,-51
1513173074949051,-4,-9,-9,15,4,11,37,46
1513173074964062,35,-17,-39,-35,-8,-1,3,-32
1513173074964062,6,-27,70,78,10,-1,-35,-34
1513173074964562,19,63,-67,-77,-15,-2,-9,0
1513173074964562,2,-20,25,26,6,-5,-11,1
1513173074978072,25,57,13,12,5,2,2,19
1513173074978072,9,-16,-18,-54,-9,6,14,12
1513173074986078,23,3,25,50,8,-2,2,-25
1513173074986078,-30,-45,-5,-1,-17,-19,-21,22
1513173075002602,17,-15,-43,-17,-5,9,-5,-42
1513173075002602,-28,-41,-35,-47,-8,-5,-7,18
1513173075003601,19,46,75,10,-2,8,38,49
1513173075003601,-9,-64,-88,31,28,10,-25,-72
1513173075024104,-46,-25,91,-24,-9,-9,-5,5
1513173075024104,5,-12,-79,-25,-12,-10,-12,-38
1513173075024605,3,-13,31,10,3,5,-8,-9
1513173075024605,-15,-35,-10,42,-3,-8,-4,27
1513173075038143,29,31,-14,2,10,10,22,2
1513173075038143,-7,-29,-32,-47,-12,-5,-2,33
1513173075046149,-1,-10,23,33,11,3,15,-15
1513173075046149,-8,28,-29,-53,-19,3,9,-22
1513173075061159,-12,21,79,37,12,2,-1,43
1513173075061159,9,-8,-44,-20,-18,-16,-19,-21
1513173075062160,-21,-11,0,25,-3,-2,13,13
1513173075062160,-9,-19,15,-13,-3,-6,-36,-85
1513173075084186,25,-16,-80,-20,-16,-8,14,26
1513173075084186,20,45,52,-4,12,11,15,27
1513173075084687,-52,-68,-93,-31,-12,-18,-47,-50
1513173075084687,27,97,92,49,13,10,16,45
1513173075098195,-5,-36,-79,-86,-28,-19,-38,-1
1513173075098195,16,30,-3,51,12,8,28,51
1513173075106201,15,-35,-52,-4,14,14,5,-62
1513173075106201,-13,-1,44,-24,-7,4,1,6
1513173075121202,-8,15,-31,27,18,5,-10,-7
1513173075121202,-30,-65,44,15,-2,-9,8,55
1513173075122204,2,36,-7,-18,-3,0,-33,1
1513173075122204,-9,-65,-35,-22,-11,-2,16,-27
1513173075143721,7,15,22,46,8,8,13,-21
1513173075143721,-14,24,40,-3,3,5,5,-47
1513173075144719,31,-13,-17,-10,-6,0,-1,82
1513173075144719,-2,14,10,3,2,2,5,41
1513173075167737,-13,11,48,34,10,-1,-20,-58
1513173075167737,4,12,20,7,0,-1,13,23
1513173075167737,-26,-30,-46,-4,0,-10,-28,-61
1513173075167737,-13,6,-38,-10,-5,5,22,62
1513173075181245,3,-16,35,-53,-7,-4,-17,-41
1513173075181245,-5,26,-30,35,2,12,29,38
1513173075182245,22,20,85,-7,7,-6,-12,-37
1513173075182245,13,8,-106,8,0,-4,11,15
1513173075203769,-23,-69,1,-13,-3,-2,14,31
1513173075203769,18,6,57,19,9,1,-33,-26
1513173075204760,0,31,0,9,3,3,3,14
1513173075204760,-31,-63,39,11,-5,3,-11,-51
1513173075218271,40,38,76,30,11,5,22,48
1513173075218271,-3,-14,-95,-66,-23,-17,-13,31
1513173075226279,-20,-41,3,-12,-1,6,22,-48
1513173075226279,72,93,101,35,15,9,-4,-13
1513173075241287,-21,-43,-86,-24,-13,-8,-26,-12
1513173075241287,-40,-17,14,15,6,4,2,0
1513173075242287,12,26,-31,22,7,0,10,40
1513173075242287,0,9,11,-16,-8,5,25,65
1513173075263815,26,20,17,-2,1,-6,-3,-25
1513173075263815,3,5,33,-21,-12,-6,-1,-111
1513173075264307,-23,4,-60,-26,-17,-2,10,31
1513173075264307,6,-52,-12,34,26,-9,-57,-24
1513173075278316,0,69,41,-48,-17,1,25,33
1513173075278316,-44,-74,-102,-14,-14,-9,-5,-6
1513173075286331,24,29,45,22,6,1,-19,-30
1513173075286331,14,-19,-44,-15,-12,-12,9,2
1513173075301331,-12,40,-54,-31,-14,-7,-16,28
1513173075301331,13,-3,23,41,17,5,-2,8
1513173075301835,-39,-6,81,-55,-21,-1,-10,-41
1513173075301835,-3,20,-45,31,5,-2,17,0
1513173075323860,-18,-4,-5,-34,-16,-8,-5,-6
1513173075323860,0,24,-4,18,2,-2,3,21
1513173075324347,-26,-50,-3,37,19,1,9,63
1513173075324347,-32,-32,-9,-48,-13,0,-10,-66
1513173075338387,-4,-7,10,42,2,-7,-3,25
1513173075338387,10,38,28,-12,3,0,-2,22
1513173075346406,0,-18,-8,79,17,-2,-5,-33
1513173075346406,19,42,46,-56,2,6,-21,16
1513173075361415,-12,-37,-13,17,4,-3,-32,-63
1513173075361415,21,35,16,-23,2,3,19,28
1513173075362405,9,-2,59,33,1,-8,-14,-59
1513173075362405,13,44,-93,6,7,14,13,23
1513173075383920,-16,-27,73,-15,-8,5,41,22
1513173075383920,31,72,31,24,4,3,-12,2
1513173075384920,0,-39,27,-24,-2,6,30,86
1513173075384920,-20,-68,33,15,-16,-13,-27,-70
1513173075406945,7,18,-93,-42,-15,-15,-5,-62
1513173075406945,-18,-73,-42,19,5,7,1,-3
1513173075407946,28,105,56,3,3,-5,-12,-29
1513173075407946,10,-10,-3,5,-7,-4,20,62
1513173075421446,-13,65,40,25,-2,-2,-24,9
1513173075421446,29,-53,33,-47,-10,-8,5,35
1513173075421947,-2,-54,-63,-16,-9,3,31,2
1513173075421947,-9,25,80,4,4,-8,-6,-9
1513173075443974,11,35,-59,31,12,9,0,12
1513173075443974,-68,28,-52,-48,-17,-8,11,-26
1513173075444475,12,-88,-9,3,8,1,-17,-8
1513173075444475,12,17,13,1,6,1,1,-16
1513173075467981,-17,23,-12,26,7,8,26,76
1513173075467981,26,20,70,24,-8,-1,-12,-64
1513173075468984,-32,22,-15,-71,-6,-9,2,31
1513173075468984,-34,14,93,35,-5,-9,-10,-55
1513173075481498,4,11,8,-72,-12,-2,-17,-32
1513173075481498,3,31,10,52,30,14,21,29
1513173075481999,-4,-72,-53,-43,-34,-20,-36,-28
1513173075481999,31,56,83,69,1,1,4,18
1513173075504031,4,-23,-91,-34,15,5,7,-28
1513173075504031,10,-9,54,31,-15,-10,10,-52
1513173075504534,3,-63,-43,10,3,-5,-29,13
1513173075504534,30,96,65,2,16,10,27,29
1513173075527023,-6,-128,-65,16,-4,-25,-66,3
1513173075527023,21,47,11,7,12,25,47,32
1513173075528021,9,0,34,-19,-5,-2,-9,49
1513173075528021,-2,16,-128,-25,-19,3,23,-23
1513173075541030,35,18,97,53,26,6,-22,63
1513173075541030,-72,-55,-46,-2,-5,1,0,-31
1513173075542043,6,75,-25,-12,-1,7,22,-11
1513173075542043,36,-21,32,-6,7,2,-2,79
1513173075563556,-39,-85,34,36,-9,0,-25,-98
1513173075563556,-12,1,3,-24,0,-9,-22,27
1513173075564557,38,51,52,49,12,15,27,4
1513173075564557,-54,-80,-113,-102,-21,-19,-11,45
1513173075587572,25,100,-28,82,17,11,21,-41
1513173075587572,22,-80,50,-8,-3,-3,-2,63
1513173075588574,-46,-52,-29,-41,-17,-12,-29,-99
1513173075588574,-21,-72,-17,-28,1,2,-1,-8
1513173075601584,-27,35,24,40,18,3,16,-12
1513173075601584,17,13,-71,27,-7,-7,-12,-28
1513173075602073,11,43,-13,-13,5,0,-7,59
1513173075602073,-10,24,-11,-58,-23,-4,20,-72
1513173075623589,40,-7,-35,-23,-12,-3,15,2
1513173075623589,19,-31,93,76,21,10,1,-4
1513173075624589,-20,-37,-127,-46,-23,-10,2,-3
1513173075624589,-32,10,2,18,-6,-19,-71,-44
1513173075646638,6,-5,107,-35,1,4,6,11
1513173075646638,10,50,-35,-4,-1,-1,9,6
1513173075647639,-36,-41,-51,-27,-1,-7,8,7
1513173075647639,31,9,63,25,19,10,-6,-25
1513173075661161,-16,17,-73,-22,-16,-6,14,18
1513173075661161,-10,-23,-42,-30,-7,-9,-30,1
1513173075662161,10,42,75,107,21,8,19,59
1513173075662161,6,7,15,-19,-1,11,27,19
1513173075684166,-12,-38,1,-45,0,3,28,27
1513173075684166,-8,27,53,23,-3,-3,-3,-13
1513173075684685,24,76,-19,-20,3,12,1,-51
1513173075684685,48,-74,-52,48,14,0,6,30
1513173075706682,-24,26,35,-21,-6,-1,-9,-28
1513173075706682,23,34,-12,9,10,4,4,5
1513173075707683,0,4,90,11,1,-2,0,36
1513173075707683,29,47,-43,-51,6,2,-15,-15
1513173075721193,39,11,34,54,-6,-7,20,72
1513173075721193,-81,12,-21,-70,-17,-23,-78,-82
1513173075722204,31,-2,8,6,0,2,26,70
1513173075722204,-11,-13,-28,19,4,6,38,-14
1513173075752266,33,30,25,32,12,-4,-19,14
1513173075752266,-4,-42,25,-13,-4,11,33,5
1513173075758777,6,32,-37,5,5,3,3,-1
1513173075758777,-41,-16,-68,-52,-31,-13,-21,-42
1513173075767275,2,-83,-50,-22,2,-1,-10,-2
1513173075767275,25,62,10,13,8,4,1,26
1513173075767772,-24,-31,17,-68,-21,-9,-19,-55
1513173075767772,-20,47,-45,12,0,0,28,29
1513173075781281,-55,-73,21,36,11,2,3,15
1513173075781281,19,1,-39,-81,-19,-8,-15,31
1513173075782282,-16,0,100,40,9,-2,-26,-55
1513173075782282,17,2,40,4,3,5,9,18
1513173075803815,17,51,-37,-8,-17,-9,4,-14
1513173075803815,-43,-43,48,-1,-5,-3,14,19
1513173075804301,14,46,-56,53,9,-6,-2,-4
1513173075804301,-12,-78,-10,6,4,-2,-14,17
1513173075826823,29,-4,111,23,6,12,-8,8
1513173075826823,-73,-52,-121,-11,0,6,-3,-77
1513173075827824,14,-1,-30,-84,-15,-10,-10,46
1513173075827824,26,56,38,42,4,0,-8,-62
1513173075841324,-23,35,-35,1,1,14,13,13
1513173075841324,57,-69,-20,-21,-7,-19,-32,-36
1513173075842332,-23,39,85,12,-8,6,2,-12
1513173075842332,-39,-77,-68,-38,-2,-2,-29,16
1513173075864357,0,21,8,11,-1,1,44,15
1513173075864357,-16,-7,-68,41,7,7,-10,-46
1513173075865358,1,3,33,21,10,6,45,0
1513173075865358,76,83,32,10,2,8,47,49
1513173075886865,15,-68,-63,-18,-6,-10,-23,-42
1513173075886865,-7,-13,-53,29,0,-5,-10,-34
1513173075887866,10,7,63,17,11,0,-8,-31
1513173075887866,-13,53,-47,-8,-3,0,-6,26
1513173075901377,-59,-60,-13,-17,-9,0,9,12
1513173075901377,47,42,121,-14,8,5,12,-4
1513173075902367,-35,-97,-128,-42,-32,-16,-20,-7
1513173075902367,0,-26,19,-1,17,4,3,-1
1513173075923895,-8,24,87,62,12,1,-8,22
1513173075923895,22,27,-22,-17,-5,-16,-18,52
1513173075924382,45,77,44,86,21,14,29,-47
1513173075924382,-27,-52,27,-63,-21,-9,-45,-5
1513173075946948,10,0,-5,-26,-5,-12,-2,8
1513173075946948,-12,-78,-32,-50,-16,2,12,12
1513173075947948,37,24,-44,25,2,-11,4,17
1513173075947948,-23,14,18,6,-14,-2,1,-10
1513173075960457,14,62,7,-32,0,-7,1,32
1513173075960457,44,22,83,8,-9,-9,-42,-55
1513173075968962,-13,5,-68,-25,-13,-5,-20,-5
1513173075968962,-38,-69,-23,-34,-7,-2,4,-20
1513173075983972,12,40,43,11,1,0,-2,24
1513173075983972,-1,67,-61,18,4,0,16,4
1513173075984973,-9,-17,55,-1,4,0,-9,14
1513173075984973,-1,-11,-54,-21,1,-10,-28,11
1513173076006988,12,18,52,-8,-8,-5,2,-37
1513173076006988,6,-34,-8,-30,-2,25,46,27
1513173076007995,-12,-2,-7,28,11,-3,-55,-9
1513173076007995,8,18,77,21,-5,-2,34,16
1513173076020999,32,-1,-83,47,23,11,-6,-31
1513173076020999,-15,-9,28,59,3,-23,-11,-21
1513173076029027,22,25,-70,-128,-34,24,18,41
1513173076029027,-17,12,83,112,22,11,-7,-34
1513173076044014,68,-18,8,-59,-19,-8,-22,49
1513173076044014,-55,12,30,52,17,15,23,-33
1513173076044515,-9,-13,-26,27,9,-18,-41,-24
1513173076044515,6,19,-38,-2,4,5,21,2
1513173076074538,-16,-11,9,12,-19,-3,11,-22
1513173076074538,2,6,67,-9,-3,-10,-32,17
1513173076075036,-40,25,-37,4,-3,-9,13,6
1513173076075036,1,-3,-74,-31,8,3,-46,-34
1513173076080540,-8,31,-51,-19,-11,11,65,16
1513173076080540,-10,-6,-65,54,16,-13,7,53
1513173076088546,36,-2,-15,-57,-8,21,93,-34
1513173076088546,12,68,93,59,9,-16,-48,27
1513173076104057,-36,3,86,-60,11,6,-33,-23
1513173076104057,9,-35,-29,26,7,44,79,17
1513173076104557,-20,13,117,42,24,4,-8,19
1513173076104557,47,25,-53,-25,-8,-1,-3,0
1513173076127089,13,-10,-19,41,12,2,19,24
1513173076127089,-11,0,20,-102,-37,-22,-32,5
1513173076127574,4,-10,46,64,14,-22,-102,-24
1513173076127574,-6,-33,36,-3,-9,-9,36,78
1513173076140583,9,70,51,11,9,23,15,-66
1513173076140583,23,19,86,-5,-15,-12,-15,-15
1513173076149095,18,-9,-72,-9,-12,-15,-71,21
1513173076149095,-50,-28,-87,-7,16,7,57,37
1513173076164099,-40,-17,-77,-46,-15,-28,-65,-71
1513173076164099,-22,11,47,82,28,29,47,31
1513173076164600,-10,-8,29,-103,-40,-6,24,2
1513173076164600,7,7,67,74,36,14,14,-9
1513173076187117,-47,-21,-66,46,10,-12,-43,-8
1513173076187117,12,97,76,-30,-2,-14,-42,1
1513173076187616,11,65,35,0,5,15,37,26
1513173076187616,-3,-22,-57,-12,-33,-5,53,2
1513173076200627,-11,-82,-63,-13,-9,-7,-22,31
1513173076200627,38,19,52,41,34,5,-29,-28
1513173076209139,-73,-39,-107,-26,-9,-12,7,2
1513173076209139,7,-18,69,-18,-19,-1,26,3
1513173076223642,-10,-3,29,31,12,-5,-27,-25
1513173076223642,32,-23,-19,-28,-20,0,-1,41
1513173076224642,28,-31,-54,-2,12,4,56,-20
1513173076224642,-22,-8,-57,-6,-1,-13,-75,-42
1513173076246662,-30,-5,-15,43,-10,6,20,8
1513173076246662,11,26,-19,-56,17,-3,15,-3
1513173076247659,39,-12,-17,61,23,11,13,44
1513173076247659,-34,98,114,-30,-18,-13,-45,-24
1513173076260667,62,34,-8,20,-5,6,65,15
1513173076260667,-22,-9,-111,1,6,-13,-21,-18
1513173076268674,-3,4,68,-5,-18,-3,-2,5
1513173076268674,-39,-20,-44,-23,-3,-4,-6,-23
1513173076284190,-22,-17,53,-15,1,-2,-3,21
1513173076284190,-18,-29,52,-65,-41,-9,5,44
1513173076284684,6,-44,-43,100,49,8,-35,-83
1513173076284684,37,-47,-70,-39,-19,8,4,1
1513173076307203,-5,62,58,-84,-33,-14,-3,2
1513173076307203,8,41,11,44,17,9,15,-17
1513173076307701,29,-21,87,45,-1,-17,-11,7
1513173076307701,-32,-77,-58,-54,-17,2,5,-13
1513173076329717,-23,18,9,-22,3,-10,-27,-9
1513173076329717,-6,-13,23,33,-4,-12,-14,3
1513173076330217,0,22,53,-22,3,22,26,8
1513173076330217,1,-12,70,41,8,-7,-17,22
1513173076343726,10,-26,-75,-30,-13,-3,12,0
1513173076343726,-17,-37,-19,16,0,-11,-18,-64
1513173076344727,-22,-61,4,-25,3,8,13,15
1513173076344727,27,19,-31,-34,-23,-18,-22,-35
1513173076367244,21,-23,-21,51,14,6,-11,31
1513173076367244,-3,5,-54,-27,-3,-2,16,17
1513173076367744,-9,26,-46,33,-8,-9,3,-1
1513173076367744,25,62,59,48,37,26,26,31
1513173076389274,-19,-75,-28,-35,-3,-5,-42,-7
1513173076389274,7,2,-9,-4,-31,9,66,-10
1513173076390272,-9,33,103,45,-8,1,4,12
1513173076390272,12,-63,-40,-41,17,-1,1,17
1513173076403769,49,61,89,16,25,15,17,-11
1513173076403769,-21,-54,7,28,9,1,-23,19
1513173076404770,-24,-13,-42,-38,-20,-4,-9,-17
1513173076404770,22,29,64,25,-28,-14,-5,-5
1513173076426806,9,16,-14,3,-4,-9,5,18
1513173076426806,-6,-16,-80,-32,-3,5,4,-2
1513173076427807,-9,-23,22,-19,-25,-9,24,-5
1513173076427807,3,-24,44,-7,12,2,-7,-18
1513173076449339,31,17,-51,-41,-17,-19,-41,10
1513173076449339,20,26,-16,4,-6,-6,-32,22
1513173076451833,29,12,-9,25,14,-12,-5,35
1513173076451833,24,90,76,11,9,17,16,-10
1513173076463843,-54,-58,-29,-5,-1,4,1,12
1513173076463843,-8,-54,-2,-24,-13,-5,10,-18
1513173076464852,16,21,82,19,26,10,-18,30
1513173076464852,8,40,-12,21,0,-12,-50,-51
1513173076486886,-2,23,16,-10,-9,11,23,2
1513173076486886,15,-2,33,-30,-18,-7,-28,-7
1513173076487887,-8,14,34,16,29,12,10,5
1513173076487887,-8,7,24,32,36,18,14,10
1513173076509402,-20,-24,27,58,9,5,-2,-13
1513173076509402,-6,-35,-23,0,13,10,42,22
1513173076510403,-21,-39,15,-25,-28,-15,-7,-34
1513173076510403,-17,-29,-61,-22,-24,-9,-28,45
1513173076523931,-18,-2,27,26,14,6,33,-38
1513173076523931,54,6,1,-42,-20,-13,-20,-21
1513173076524423,-54,-11,28,-7,-9,5,3,-15
1513173076524423,0,41,-83,2,3,-4,6,-3
1513173076546928,-34,-49,-52,4,2,-1,-8,-7
1513173076546928,34,4,62,35,5,-2,-25,-13
1513173076547929,-42,-49,-106,-28,-6,-3,2,2
1513173076547929,36,29,41,34,14,1,-2,-22
1513173076569444,20,-18,-56,-35,-13,-8,-6,9
1513173076569444,-4,63,30,-15,3,7,13,4
1513173076570445,43,12,-35,20,29,15,-2,7
1513173076570445,-36,-65,10,1,-15,-12,12,60
1513173076583954,-48,111,98,33,11,11,1,-59
1513173076583954,-10,-38,0,-7,1,-8,-10,6
1513173076584456,20,-3,-92,-43,-45,-11,4,-12
1513173076584456,5,31,40,-22,22,12,10,40
1513173076606971,35,16,25,-20,0,-4,0,5
1513173076606971,-89,-38,-24,16,11,0,-10,-44
1513173076607972,31,-13,-7,-39,-26,-18,4,8
1513173076607972,44,-10,35,35,4,5,26,-2
1513173076629487,5,10,23,-23,-17,-2,-8,6
1513173076629487,4,82,55,12,2,-4,-11,11
1513173076630988,-27,-52,-56,-12,1,-6,-15,19
1513173076630988,-22,10,51,-14,-11,8,33,1
1513173076643997,1,-52,23,-8,-2,2,12,-17
1513173076643997,-23,-49,-11,48,9,-10,-31,-4
1513173076644498,32,39,-24,-19,6,7,-7,-25
1513173076644498,-4,-10,-67,-33,-21,-8,23,38
1513173076667014,50,-2,18,44,12,-1,-36,10
1513173076667014,-8,-5,-67,-37,-4,19,21,54
1513173076668519,-34,-74,-42,9,-3,-4,-14,-42
1513173076668519,-11,16,17,-3,-14,-15,-28,-32
1513173076689530,-9,17,-3,-6,24,3,0,16
1513173076689530,-1,24,-30,-4,-4,-10,-26,-22
1513173076690037,26,20,-15,-5,-2,0,1,27
1513173076690037,2,35,61,0,-14,-7,1,-25
1513173076703541,-66,-81,-10,5,-2,3,-6,-10
1513173076703541,28,66,85,-2,0,-1,14,12
1513173076704558,-22,-27,-56,-12,5,-2,-16,-8
1513173076704558,19,24,51,6,-15,-18,-30,37
1513173076727580,-25,48,114,-5,-3,7,30,-6
1513173076727580,10,0,-70,-2,2,9,16,-23
1513173076729058,-43,1,99,7,-7,-14,-16,0
1513173076729058,30,-69,-128,-30,13,6,7,-39
1513173076749573,-57,54,87,-11,-21,-10,11,-34
1513173076749573,3,-28,-4,7,-9,1,-6,5
1513173076751075,6,39,35,-45,-31,-16,-6,-4
1513173076751075,7,52,-68,55,75,24,-5,-5
1513173076763082,48,-3,73,14,1,0,69,64
1513173076763082,-13,-24,-40,-19,0,-7,-16,-64
1513173076772088,18,3,21,8,-11,3,9,11
1513173076772088,-10,-36,69,-10,-32,-20,-25,-19
1513173076787101,30,30,-42,-14,5,5,37,56
1513173076787101,-14,-76,-59,-29,-17,-6,-33,-4
1513173076788599,14,5,-61,24,28,11,36,29
1513173076788599,-9,17,82,34,-7,-3,-25,-29
1513173076809624,-7,-74,-81,-24,2,3,0,-16
1513173076809624,5,57,46,27,7,-6,-5,9
1513173076811125,-26,53,8,4,5,7,12,-4
1513173076811125,1,-66,-19,-14,-6,-4,-4,-42
1513173076823125,-8,-14,-33,13,-3,-8,-37,-14
1513173076823125,-75,16,46,-9,3,-5,-21,-1
1513173076832130,11,-32,-24,-10,-4,4,27,-4
1513173076832130,-8,-44,-58,-32,-26,-8,12,21
1513173076847140,15,70,19,27,13,3,-10,17
1513173076847140,41,-72,-9,21,11,4,9,-34
1513173076848643,-10,36,38,-9,6,1,17,21
1513173076848643,-42,-60,-54,-25,-19,2,5,-55
1513173076869667,-7,-13,-94,-45,-14,-11,3,30
1513173076869667,8,43,93,30,7,0,8,17
1513173076871168,1,-39,43,33,3,3,-13,3
1513173076871168,-8,18,-43,-23,11,6,14,-3
1513173076883166,1,38,26,14,11,9,6,-3
1513173076883166,-19,10,23,33,8,6,9,17
1513173076892183,-13,4,4,-21,-1,-5,-27,-23
1513173076892183,-2,26,40,-4,-11,-3,18,39
1513173076906692,8,-9,-75,11,5,2,2,4
1513173076906692,23,35,47,-11,-2,1,-23,-9
1513173076908694,1,37,75,5,0,-4,-4,1
1513173076908694,36,20,-71,-3,-3,-2,-30,45
1513173076930217,-8,20,27,0,-9,-10,-10,-45
1513173076930217,-15,-3,-11,7,-3,0,22,14
1513173076932701,-38,10,9,-28,1,1,-10,-20
1513173076932701,22,15,51,49,13,11,14,17
1513173076943208,-48,-11,-31,-19,-11,-3,-5,-29
1513173076943208,-33,-1,5,-46,-26,-19,16,11
1513173076952216,13,47,19,9,7,-2,-5,-18
1513173076952216,-15,-59,73,-10,-12,-16,5,23
1513173076967228,55,74,51,3,-10,-4,-61,-8
1513173076967228,-12,-49,2,-7,-3,-3,2,-18
1513173076969742,23,41,-26,16,9,2,-4,11
1513173076969742,-34,56,62,33,17,4,-2,-13
1513173076989251,43,-75,-97,-62,-23,-10,-12,-4
1513173076989251,22,-21,76,38,1,-2,-11,7
1513173076991262,26,48,-44,1,21,13,8,8
1513173076991262,6,24,-10,-24,-6,-5,12,0
1513173077003251,-5,-22,-19,39,7,-1,-16,-51
1513173077003251,-13,-24,-89,-30,-6,2,-11,22
1513173077012257,14,-14,30,40,-3,-4,17,6
1513173077012257,20,-12,14,-13,-4,-8,-26,9
1513173077026768,-37,-22,24,7,9,3,7,7
1513173077026768,-5,24,20,-3,0,-1,11,-2
1513173077028769,32,-43,-100,-18,-10,-11,-32,4
1513173077028769,-21,6,18,44,6,4,1,-12
1513173077049284,32,24,52,-44,-12,-11,-18,25
1513173077049284,-29,-23,-29,1,-3,1,-3,-4
1513173077051301,27,58,127,37,14,7,23,4
1513173077051301,-43,-88,-18,-8,-17,-3,21,-33
1513173077062793,20,29,63,-7,4,5,6,14
1513173077062793,43,60,-10,25,18,9,9,22
1513173077072300,4,56,110,-11,-18,0,-4,-2
1513173077072300,-26,2,41,11,18,6,-6,-17
1513173077086810,-3,-11,-43,17,4,6,18,22
1513173077086810,0,-3,8,-14,-6,-6,11,-10
1513173077088811,-12,-42,-22,-10,-2,-3,-6,-7
1513173077088811,2,50,-26,40,15,8,-8,30
1513173077109326,4,8,21,-19,-15,-3,29,-3
1513173077109326,12,4,25,8,8,1,-8,-27
1513173077110827,23,-67,-107,-30,-10,-1,-8,6
1513173077110827,-2,23,28,20,-3,-5,-18,7
1513173077123336,-30,-30,-59,-48,-7,-2,4,-3
1513173077123336,10,43,25,20,0,-3,1,11
1513173077132843,-31,-41,-28,-13,1,2,17,7
1513173077132843,-18,16,-78,-17,-6,-3,-9,-55
1513173077146853,18,-17,-11,21,3,1,-10,24
1513173077146853,6,7,17,-23,-5,-3,-5,-4
1513173077148354,27,-64,-29,-1,1,3,1,-14
1513173077148354,19,39,58,-23,-6,-4,-5,10
1513173077169369,17,1,-19,17,-1,4,45,16
1513173077169369,-35,-59,-81,-14,6,7,22,-44
1513173077170870,-24,7,73,37,11,4,0,-4
1513173077170870,13,16,-52,-62,-20,-15,-29,-13
1513173077182899,-5,-31,34,28,10,8,6,4
1513173077182899,36,-9,-8,-24,-16,-22,-28,9
1513173077192386,12,32,29,27,20,26,50,9
1513173077192386,-19,31,44,8,-1,6,0,22
1513173077206395,-14,-53,-15,-21,-8,-8,-9,-78
1513173077206395,40,-8,23,5,6,12,-5,11
1513173077212899,-32,61,12,39,10,-7,-17,2
1513173077212899,6,-23,4,-26,3,1,23,38
1513173077229421,-38,21,23,27,3,8,5,13
1513173077229421,0,22,7,11,2,-6,-56,-5
1513173077230922,-14,-31,-10,-35,-19,-16,-14,7
1513173077230922,33,-3,15,24,6,9,36,-18
1513173077251927,3,54,-50,-14,-7,-7,-19,5
1513173077251927,-25,24,-25,-11,-3,5,8,2
1513173077253428,1,71,50,6,-2,-13,-42,13
1513173077253428,-10,-15,-11,-46,-14,-2,11,-23
1513173077266950,4,49,93,19,-1,-5,-3,15
1513173077266950,31,18,-2,-10,-3,2,1,-20
1513173077268439,28,-61,-3,-22,-6,-10,-15,2
1513173077268439,-23,31,35,28,6,3,-8,-25
1513173077289453,-24,-32,10,-8,-1,-5,-22,-10
1513173077289453,33,19,-36,36,6,6,45,34
1513173077290955,-24,-34,24,-85,-30,-11,-10,-16
1513173077290955,-8,-72,0,28,7,0,-4,-7
1513173077311970,26,37,3,-3,-3,2,-3,14
1513173077311970,-54,-46,1,-1,-4,-3,-11,-3
1513173077313480,-22,-61,-60,-20,0,-1,3,-40
1513173077313480,-53,-5,38,-2,-19,-6,-5,-7
1513173077326989,-6,-16,-82,-14,-2,-7,15,22
1513173077326989,22,-7,105,-1,1,5,-3,-42
1513173077328503,-11,29,14,25,7,2,-9,-38
1513173077328503,36,7,-128,-14,-4,-3,13,18
1513173077348996,9,25,51,59,14,3,-6,-3
1513173077348996,-13,32,-15,-33,-21,-2,0,20
1513173077357001,-9,-8,-37,-5,0,-5,-5,5
1513173077357001,15,37,11,-32,-19,-11,-22,-8
1513173077372021,24,32,-35,-28,-24,-7,4,6
1513173077372021,-37,-75,-42,51,-47,-25,-36,-8
1513173077373528,-8,-33,-102,-74,86,32,73,64
1513173077373528,-15,18,45,29,1,-1,-17,-83
1513173077387022,12,-45,32,-40,-80,-24,-21,-20
1513173077387022,22,-31,-88,-30,96,19,14,26
1513173077388523,26,53,55,69,-43,-12,-14,7
1513173077388523,11,8,-35,4,70,18,3,28
1513173077417055,-26,-14,22,43,-25,1,6,-16
1513173077417055,-33,18,-12,-68,-16,-12,-7,25
1513173077418545,34,70,63,50,2,9,10,-6
1513173077418545,-6,-50,-45,-20,-3,8,2,11
1513173077432054,-41,9,-23,-21,-15,-18,-26,-7
1513173077432054,37,-44,-12,0,-8,7,14,97
1513173077433555,-24,31,-12,19,2,-8,-4,-30
1513173077433555,52,32,117,20,-19,-4,3,28
1513173077446064,-41,-54,-55,-6,32,3,-15,-30
1513173077446064,11,71,-38,-8,1,5,22,3
1513173077460587,-2,-36,-42,-38,-24,-11,-26,-9
1513173077460587,-16,42,120,39,-9,-7,9,39
1513173077469591,32,-65,-19,-8,35,17,5,-32
1513173077469591,16,46,26,44,12,2,1,-18
1513173077471091,-3,2,-10,-30,-43,-12,-28,-24
1513173077471091,-14,-9,-109,-5,8,-2,-3,8
1513173077492096,-1,-12,7,-3,14,7,3,13
1513173077492096,-12,40,36,37,15,4,2,-17
1513173077493597,-26,-44,-7,-20,7,0,16,19
1513173077493597,5,-18,21,28,-31,1,-18,3
1513173077506106,7,68,58,-14,55,9,17,14
1513173077506106,-11,-84,-51,3,-12,0,14,-6
1513173077513115,-32,-13,86,-13,-14,-6,-11,-33
1513173077513115,1,-39,-52,-18,-16,-8,2,-16
1513173077529623,31,-5,-37,21,2,1,-31,9
1513173077529623,-34,56,82,-15,-21,-10,10,20
1513173077532125,-4,-22,-66,38,20,-1,-13,6
1513173077532125,33,18,20,-19,-8,12,18,5
1513173077552640,-37,-10,30,22,6,9,19,-21
1513173077552640,32,-47,-120,-38,-11,-18,-35,4
1513173077554141,19,58,50,-11,-14,-9,-16,-8
1513173077554141,-19,-30,-11,-11,4,-6,-2,3
1513173077566150,-3,29,13,16,6,-2,-8,-26
1513173077566150,12,3,32,52,15,7,-10,35
1513173077573156,-45,-4,33,-16,-9,9,25,-88
1513173077573156,-14,-39,-44,-4,-23,-11,-7,9
1513173077589165,14,-32,-17,-42,23,0,4,18
1513173077589165,-40,-13,14,41,11,12,26,-10
1513173077591167,36,20,0,37,7,5,-16,26
1513173077591167,16,56,-49,-55,-20,-7,-2,8
1513173077611681,-41,-37,3,24,-12,-4,11,-12
1513173077611681,35,13,49,-5,27,12,9,-3
1513173077613683,-79,-115,-88,3,12,0,4,56
1513173077613683,20,87,47,-4,-1,-1,-4,-82
1513173077626193,39,14,-32,5,-24,-8,-10,15
1513173077626193,-29,21,56,-1,3,-2,6,-33
1513173077633199,18,15,35,6,1,0,-15,35
1513173077633199,0,-60,20,16,2,-5,11,38
1513173077649208,-5,-50,-80,-24,-9,-3,2,-27
1513173077649208,4,-12,22,-3,-4,2,2,7
1513173077651211,-54,-8,-34,-13,-16,-11,1,12
1513173077651211,-20,-29,-106,0,9,-4,-5,26
1513173077671724,33,-5,83,6,13,-7,-27,-14
1513173077671724,34,-9,-89,-21,-10,-1,-10,25
1513173077673726,-48,8,-7,-2,-5,5,47,-26
1513173077673726,-4,0,99,17,-11,-6,-38,-11
1513173077686234,-15,-1,-28,-7,26,9,26,29
1513173077686234,-5,19,-26,-6,-3,-4,-29,-45
1513173077693239,59,25,71,14,-3,-4,-17,21
1513173077693239,-43,30,-101,-1,32,3,-2,-9
1513173077709250,17,16,26,-19,-31,-7,-15,17
1513173077709250,-43,-78,-36,-64,-56,-18,16,-22
1513173077711251,56,39,29,23,33,6,14,45
1513173077711251,-4,54,76,52,11,6,-2,-58
1513173077731267,-14,-14,-3,-9,-9,-9,-6,-19
1513173077731267,56,-15,-35,-10,-5,-1,-14,-8
1513173077746277,21,-9,-75,-19,-26,-5,0,15
1513173077746277,-18,-45,-7,-34,-38,-24,-27,8
1513173077746777,-20,-1,55,39,52,23,18,30
1513173077746777,-1,47,24,-3,-6,3,2,-21
1513173077754282,63,37,72,5,1,11,28,-25
1513173077754282,-34,-31,-6,23,20,4,-7,-29
1513173077769302,-7,31,-7,11,-30,-9,-4,3
1513173077769302,-18,-40,-21,-21,25,6,12,15
1513173077770794,3,24,-9,17,-3,-10,-38,-4
1513173077770794,-32,-11,20,-46,4,4,15,12
1513173077791808,-20,-52,-48,8,-19,-11,-2,56
1513173077791808,-76,68,1,-21,-19,3,40,11
1513173077793810,-26,-7,38,16,17,3,-5,27
1513173077793810,73,58,15,-14,-3,-2,4,-42
1513173077805319,-3,12,40,-16,-13,-1,0,-3
1513173077805319,28,-29,11,-8,-6,-13,-18,13
1513173077814326,29,16,11,-5,5,4,3,6
1513173077814326,-56,-19,54,-14,-24,-7,0,9
1513173077829352,60,33,22,26,65,20,0,20
1513173077829352,3,-13,-8,3,-1,4,7,0
1513173077831837,-8,-25,28,-17,-7,-3,5,-26
1513173077831837,81,-17,2,2,-48,-13,-7,32
1513173077851852,24,26,-79,-37,11,-3,-12,-50
1513173077851852,-2,-2,22,41,21,8,-17,-2
1513173077853353,43,2,-18,-6,-11,-9,-8,-6
1513173077853353,10,-23,9,-36,12,5,7,-3
1513173077865360,-27,26,7,-2,-35,-11,-5,-1
1513173077865360,5,18,-59,24,6,-3,2,36
1513173077874366,-15,-2,26,-11,1,9,5,-42
1513173077874366,-7,-36,-30,18,1,-5,14,7
1513173077889377,29,43,22,5,-8,-2,3,14
1513173077889377,-30,3,93,-2,7,-1,-28,-48
1513173077890879,-18,-25,-80,-15,-9,-9,-2,6
1513173077890879,-4,13,15,20,22,5,11,12
1513173077911894,-6,-45,-8,5,-2,5,18,26
1513173077911894,-10,-7,18,-13,-31,-11,-16,-50
1513173077913394,-11,-48,-11,7,-9,-14,-37,-10
1513173077913394,-5,-38,-5,7,48,27,27,18
1513173077925403,17,14,-53,-8,-4,7,15,8
1513173077925403,-22,-5,43,33,2,-3,1,22
1513173077934410,-5,55,49,-9,-10,-3,-20,-26
1513173077934410,-39,-42,-69,-26,-18,-5,-9,7
1513173077949423,-11,21,64,7,-6,1,9,-20
1513173077949423,10,-1,-88,-24,-7,-7,4,48
1513173077950921,41,-16,-45,3,8,8,18,-39
1513173077950921,12,50,24,25,9,0,-5,33
1513173077972436,-32,-38,56,5,-15,-2,-12,8
1513173077972436,14,23,22,5,17,2,-11,-11
1513173077974446,-12,48,-17,-9,-2,3,13,29
1513173077974446,10,20,34,-3,-1,-3,-2,-1
1513173077985946,-14,-7,8,14,1,-7,-19,-28
1513173077985946,11,-44,-67,-24,-8,-5,10,1
1513173077994453,-13,-35,9,-18,20,4,-3,3
1513173077994453,-17,1,55,31,1,5,3,-11
1513173078008461,5,26,42,-13,-2,-11,-6,16
1513173078008461,-82,-3,-8,-10,-7,-3,-2,-39
1513173078016968,52,13,4,21,8,2,-2,-1
1513173078016968,-18,-12,-56,-12,-6,-6,-7,-17
1513173078031978,-13,-10,61,8,3,5,5,-1
1513173078031978,44,-42,21,-2,-12,5,41,15
1513173078033980,-28,-5,-38,-25,-7,-8,-6,-12
1513173078033980,31,10,46,39,15,7,0,15
1513173078045488,28,-46,-76,-28,-17,-10,1,1
1513173078045488,28,53,56,5,7,1,-5,1
1513173078054494,-48,-18,18,7,-3,0,3,51
1513173078054494,31,1,3,2,8,0,-6,-64
1513173078069505,-21,13,-38,0,-3,-6,-21,-4
1513173078069505,28,27,5,-9,-12,-4,9,0
1513173078071006,11,19,46,7,1,-4,-3,22
1513173078071006,-7,-41,-53,-44,-8,-3,-2,26
1513173078092522,-4,28,74,19,-14,0,3,-15
1513173078092522,-12,10,-67,-15,18,-5,-24,-24
1513173078094023,2,-45,-47,-11,-15,-2,6,13
1513173078094023,-7,69,-6,-13,-8,-5,-6,-6
1513173078105530,-54,-54,-45,-12,-7,-6,-5,-17
1513173078105530,-2,-17,38,22,4,0,-10,7
1513173078114537,-5,-12,19,19,5,-6,-23,-7
1513173078114537,-12,2,-35,0,0,12,20,-44
1513173078129549,26,-30,65,-2,0,0,15,-9
1513173078129549,-31,-25,-13,2,-4,-3,-16,-10
1513173078132049,-37,16,-43,-1,-7,-4,5,-2
1513173078132049,-7,-16,-60,-19,-3,-1,-2,35
1513173078152065,8,51,49,6,0,-4,-18,-10
1513173078152065,34,15,2,-2,0,5,34,11
1513173078153564,0,17,39,17,1,6,9,4
1513173078153564,28,15,92,15,-6,-8,-11,11
1513173078165576,-26,-69,-128,-56,-2,0,-1,4
1513173078165576,11,26,56,17,1,-5,-9,-2
1513173078174584,23,13,95,26,3,4,-12,-3
1513173078174584,0,0,-11,-8,-6,5,19,11
1513173078189622,14,44,13,7,7,-5,-11,-17
1513173078189622,-17,14,-21,-14,-14,-6,-2,13
1513173078191130,-3,-23,-60,-2,17,7,-2,-31
1513173078191130,-29,-28,32,23,17,10,-1,6
1513173078211644,34,48,45,7,-4,0,-14,-5
1513173078211644,-39,-4,-20,6,1,6,10,33
1513173078213638,-15,6,2,-12,-6,-4,16,17
1513173078213638,-12,-25,-73,6,-1,-6,-20,-20
1513173078234653,-9,-23,-58,-32,-8,2,10,16
1513173078234653,8,-7,-1,13,8,0,-22,-4
1513173078236153,33,-19,-28,-23,-12,-4,-5,-17
1513173078236153,-14,53,122,18,0,-6,-6,1
1513173078249162,-43,-90,-108,0,4,2,18,25
1513173078249162,11,5,51,11,-9,-6,-10,-18
1513173078251166,-15,-7,-82,-17,10,4,-10,-45
1513173078251166,26,-11,-28,2,5,-2,6,1
1513173078271689,26,-11,31,4,0,-3,-4,-21
1513173078271689,6,20,30,7,1,5,2,-2
1513173078273688,14,13,31,41,8,5,3,23
1513173078273688,3,-26,-59,-15,-9,-4,0,-5
1513173078294709,19,49,40,-6,-3,-9,-8,2
1513173078294709,0,4,35,-6,-4,12,20,-5
1513173078296210,3,14,-12,0,3,-6,-16,3
1513173078296210,13,-40,-100,0,6,2,9,13
1513173078309204,-25,-13,-2,6,-10,-4,-3,-14
1513173078309204,-10,1,3,-9,-1,-3,20,55
1513173078311205,0,-12,-18,-30,-10,-7,-28,-47
1513173078311205,-37,13,26,-6,-2,9,8,2
1513173078332220,-20,3,-31,2,3,0,0,-9
1513173078332220,12,31,58,25,9,-4,-11,1
1513173078338225,3,-22,-54,-26,-15,-4,1,11
1513173078338225,-25,-30,-45,-7,3,-5,-8,4
1513173078354245,13,10,81,26,9,5,6,8
1513173078354245,7,-11,-34,-14,-4,-1,-13,-22
1513173078355747,-32,26,33,-1,2,-1,15,20
1513173078355747,7,-24,36,-15,-10,-7,-10,-15
1513173078368758,-9,27,-30,1,4,4,1,4
1513173078368758,3,-24,22,23,5,-1,6,18
1513173078375751,-22,18,14,-24,-13,-1,-16,-53
1513173078375751,0,-36,22,-12,-6,-5,-1,-9
1513173078391774,0,50,58,4,3,-1,-8,-18
1513173078391774,-26,-50,-14,3,-3,-1,0,-11
1513173078393263,35,-9,20,26,4,2,11,36
1513173078393263,-4,14,1,-30,-9,-7,-14,-6
1513173078414278,-12,-12,-35,0,-5,8,3,7
1513173078414278,19,2,31,7,3,0,-2,-14
1513173078415789,14,-11,-51,-5,1,-6,-13,0
1513173078415789,57,-48,1,-11,-7,-4,20,3
1513173078428791,-4,-7,-47,3,5,4,0,-16
1513173078428791,23,42,47,12,8,-2,-6,-2
1513173078435793,5,-54,-57,-6,-6,1,-3,-15
1513173078435793,-72,21,26,16,2,-3,-4,37
1513173078452305,51,7,35,-9,-2,-3,10,-7
1513173078452305,10,-29,-94,-25,-9,-8,-39,-24
1513173078453837,-6,26,-4,-6,-2,-3,4,18
1513173078453837,-1,17,-27,18,7,6,11,-21
1513173078474321,-2,39,-74,-28,-11,-6,2,14
1513173078474321,-10,-24,-11,-2,-8,0,15,39
1513173078482326,-16,-23,2,-6,9,-1,-29,-53
1513173078482326,40,50,113,14,-1,-1,-3,7
1513173078488831,-15,-1,-59,17,11,8,2,-10
1513173078488831,-6,25,8,0,0,1,2,2
1513173078495348,12,36,-28,-19,-12,-1,17,-4
1513173078495348,8,-3,-98,1,2,4,-2,13
1513173078511858,-24,-4,66,-4,-7,-12,-7,-10
1513173078511858,-9,8,-32,-4,-1,-3,-2,-20
1513173078513349,7,-20,73,1,-6,-4,12,53
1513173078513349,-76,-8,25,12,7,4,1,-23
1513173078534864,36,-41,3,-10,-9,-11,-20,31
1513173078534864,-5,-19,-5,-6,1,8,21,-5
1513173078535866,0,17,-45,-31,-8,-2,6,6
1513173078535866,-4,4,39,30,12,2,1,10
1513173078548875,14,-28,-15,-16,-5,-4,-22,-18
1513173078548875,-52,15,62,26,10,6,20,-11
1513173078555388,-16,-20,-25,8,0,-1,-3,10
1513173078555388,2,1,-5,-21,-9,-3,4,14
1513173078571889,-38,-5,3,-1,-1,-4,-10,-13
1513173078571889,23,-6,-80,-26,-7,2,-7,-17
1513173078573391,-19,5,49,24,19,12,7,2
1513173078573391,18,50,74,10,2,-4,-20,-13
1513173078594418,-10,-56,-17,-14,-8,-2,30,50
1513173078594418,-7,-11,-34,-14,-12,-13,-8,10
1513173078595919,-5,-2,44,-3,-15,-2,1,-35
1513173078595919,3,-14,-43,7,8,5,-1,-5
1513173078608926,-6,18,6,30,22,9,1,10
1513173078608926,20,6,76,4,-1,-1,19,3
1513173078622926,-37,-18,-13,19,2,0,3,6
1513173078622926,1,-30,-19,-41,-23,-14,-23,-14
1513173078631932,18,11,46,25,0,0,4,-16
1513173078631932,40,-31,-36,-3,4,1,-20,-7
1513173078633433,-49,19,-2,-11,1,-1,8,37
1513173078633433,-11,17,-19,-27,-13,-7,-14,-36
1513173078654448,-10,-35,-59,1,1,-4,3,-11
1513173078654448,20,-30,0,-17,-6,-6,-31,-22
1513173078655949,24,23,97,18,0,-2,12,20
1513173078655949,20,10,-24,32,11,6,9,2
1513173078668959,15,21,-60,-13,6,9,15,44
1513173078668959,0,43,44,-13,-1,-3,-21,-22
1513173078675466,1,-12,-6,-1,2,-1,14,8
1513173078675466,-28,-40,-18,25,6,1,3,0
1513173078691975,30,32,53,-6,-2,8,10,-17
1513173078691975,13,-14,-49,-7,3,-1,-3,4
1513173078693488,-42,-13,44,19,1,1,3,-3
1513173078693488,15,8,-36,-25,-7,-3,-1,-3
1513173078714505,14,7,7,0,-7,-5,-8,-2
1513173078714505,-17,-14,25,8,-1,-2,14,50
1513173078715992,36,-12,-26,-18,-26,-9,-16,-68
1513173078715992,11,16,91,41,29,11,6,31
1513173078728003,-69,-66,-1,-6,6,3,-2,-36
1513173078728003,-21,38,-12,-10,-6,-8,-2,4
1513173078737015,43,-15,-40,13,8,0,6,19
1513173078737015,-11,-18,5,-34,-20,-6,-2,-3
1513173078752020,-9,23,4,4,-6,-7,-8,-8
1513173078752020,0,-36,14,17,10,6,22,6
1513173078753519,19,33,61,6,-1,-9,-13,-2
1513173078753519,17,-1,-101,-4,-6,-9,-9,-13
1513173078774536,-31,-18,74,11,4,20,16,33
1513173078774536,-10,15,-1,-22,-2,-6,-28,-58
1513173078776040,36,8,-46,-5,-1,1,-4,9
1513173078776040,-9,-26,-84,4,4,0,4,2
1513173078788042,-23,24,62,-7,-12,-15,-15,33
1513173078788042,-6,26,25,20,4,1,-2,-11
1513173078797061,8,19,1,-21,-4,0,-1,-18
1513173078797061,-24,-41,54,7,1,2,3,16
1513173078812071,37,23,25,20,1,-2,-7,5
1513173078812071,-49,-13,-48,-10,-3,-4,-11,-9
1513173078813562,-18,-33,-66,-11,1,-2,4,35
1513173078813562,6,5,63,-7,-10,-1,6,-36
1513173078835088,15,41,-78,-14,2,-3,-7,-18
1513173078835088,-43,-98,0,-17,-3,-1,3,7
1513173078836579,-1,10,8,20,-1,-1,-6,-7
1513173078836579,8,10,6,-13,-4,-3,-3,14
1513173078848095,-24,-44,-19,-7,-10,-12,-9,-14
1513173078848095,51,45,29,12,1,3,5,-14
1513173078857101,-6,-4,40,4,7,10,11,17
1513173078857101,-17,-1,-70,-33,-14,-9,-24,-3
1513173078872105,17,-42,75,11,3,-4,-10,4
1513173078872105,-76,-55,-57,-6,1,3,27,5
1513173078873613,-21,-27,13,-9,-11,-6,-15,-8
1513173078873613,36,59,31,40,10,1,-7,37
1513173078894629,-18,30,-44,-18,-2,3,30,-65
1513173078894629,38,9,-19,-10,-7,-7,-37,2
1513173078896131,38,34,43,23,13,7,-5,2
1513173078896131,-48,5,21,-25,-11,-5,11,26
1513173078908137,-12,0,-84,-5,-2,-3,4,37
1513173078908137,36,28,20,12,-1,-1,-3,-11
1513173078917145,-30,-14,-33,-2,2,0,-2,-16
1513173078917145,50,9,-21,-1,-2,2,4,-4
1513173078931647,1,30,48,4,1,3,-20,-12
1513173078931647,15,49,35,22,6,1,4,15
1513173078933645,-10,-37,-78,-21,-2,-7,-10,7
1513173078933645,17,24,30,0,-1,5,17,12
1513173078954160,-19,-18,26,14,3,6,2,-29
1513173078954160,6,-18,-61,-1,-3,-4,5,-1
1513173078956171,23,51,88,17,8,4,20,24
1513173078956171,-2,0,22,-8,-6,-13,-28,1
1513173078968181,2,-4,-34,-24,-5,-1,-4,-48
1513173078968181,17,-29,-26,6,1,2,-1,25
1513173078977176,-13,-5,64,11,2,2,-1,-2
1513173078977176,-18,-25,-90,-10,4,2,0,-41
1513173078991686,14,41,68,12,1,7,27,43
1513173078991686,-2,-3,-15,-13,-3,3,8,-9
1513173078993689,-5,-30,-44,17,10,2,-10,4
1513173078993689,11,25,50,-11,-10,-2,8,10
1513173079014203,23,8,-5,4,-2,-10,-27,-30
1513173079014203,-7,7,-7,6,-7,-9,-8,1
1513173079016221,-22,22,10,-32,-4,0,6,-20
1513173079016221,15,13,79,20,3,-3,1,-1
1513173079028212,-23,-21,-50,1,2,-2,0,11
1513173079028212,-24,-18,64,-30,-11,-1,-5,-17
1513173079037231,6,9,-16,4,-3,-2,0,-1
1513173079037231,-17,-49,-57,18,6,-2,2,-10
1513173079052238,9,19,19,-6,-3,-3,4,12
1513173079052238,-18,-24,-73,-17,-5,0,4,-5
1513173079053730,11,-38,-10,-8,-8,-6,-5,11
1513173079053730,-16,0,-21,1,7,3,3,-21
1513173079074245,25,-17,37,40,9,8,22,21
1513173079074245,27,81,24,-17,-4,0,-9,4
1513173079075746,0,-14,-44,-17,-11,-7,-3,8
1513173079075746,-11,7,-16,1,2,1,-22,-36
1513173079087754,4,-20,-10,-12,-6,-12,-4,22
1513173079087754,4,20,-22,2,3,8,23,9
1513173079096760,-8,0,27,4,-8,-6,-18,-18
1513173079096760,3,19,-14,8,7,1,3,8
1513173079111786,-4,-11,31,-20,-6,6,14,16
1513173079111786,-9,-53,-57,7,-4,-5,-9,-25
1513173079113272,7,24,61,2,4,-2,1,0
1513173079113272,-27,-16,-38,4,-1,2,14,-4
1513173079134788,-22,-1,-15,3,0,-4,-11,-2
1513173079134788,40,45,102,-4,0,0,7,26
1513173079135789,-12,-9,-53,-12,-2,2,-3,-12
1513173079135789,10,12,33,25,5,-6,-9,-8
1513173079156803,21,-12,-49,-19,-6,1,-6,-4
1513173079156803,-14,-60,-3,-5,3,-3,-3,3
1513173079158822,7,-10,26,-13,-6,-3,-1,-7
1513173079158822,-12,-44,54,-12,-6,0,-6,9
1513173079171814,20,14,31,28,10,1,6,4
1513173079171814,-32,21,-103,-12,-9,-4,12,-2
1513173079173315,-7,-11,-30,12,8,3,-1,7
1513173079173315,12,78,24,-25,-8,0,-26,-28
1513173079194341,3,-29,-26,-1,1,4,36,7
1513173079194341,27,28,58,12,0,-1,-22,18
1513173079195832,-17,7,-13,9,3,0,17,12
1513173079195832,26,-2,-9,-3,-11,-4,4,8
1513173079216866,-1,97,70,-7,-2,-4,-24,-15
1513173079216866,-18,-71,-20,-7,-8,-11,9,18
1513173079218355,27,7,-20,0,3,2,-10,-29
1513173079218355,-44,-12,79,-2,-3,1,9,-6
1513173079231859,33,19,-3,5,2,6,4,20
1513173079231859,-2,-9,66,33,8,0,-10,-12
1513173079233358,-29,-30,-38,-11,-7,-7,-15,-19
1513173079233358,10,14,31,7,1,3,18,5
1513173079254390,-5,12,20,-12,-4,-6,-20,-6
1513173079254390,-14,-20,-26,-6,1,-2,3,6
1513173079255877,-24,-6,1,-4,-4,-4,-15,-12
1513173079255877,-11,3,35,13,8,6,27,1
1513173079276897,-20,-45,-46,-24,-7,-3,-5,0
1513173079276897,17,17,-35,-7,-2,-3,-1,10
1513173079278389,6,2,4,38,8,-2,0,-22
1513173079278389,25,-34,-33,-23,-7,-1,-1,13
1513173079291908,-19,-17,-36,-3,-7,-7,-8,-8
1513173079291908,-9,9,34,2,2,2,3,6
1513173079293409,10,-19,-2,-12,-4,-1,12,8
1513173079293409,-3,11,-10,16,4,-4,-9,4
1513173079314414,-4,-5,18,12,2,2,-4,-3
1513173079314414,-13,-25,-41,-23,-6,-5,-1,-23
1513173079315915,27,43,16,4,-4,1,2,16
1513173079315915,-15,-24,-10,-29,-9,-6,-7,-11
1513173079336940,0,1,2,6,0,-2,-14,-2
1513173079336940,13,22,-3,11,2,0,-5,-1
1513173079338432,-6,9,33,0,-2,-3,1,2
1513173079338432,0,-19,-58,-2,-2,-2,-6,-1
1513173079351440,1,17,-4,-8,-2,-1,3,-6
1513173079351440,4,-21,25,8,1,1,0,-3
1513173079357945,3,-3,-4,-10,-3,-2,3,0
1513173079357945,0,-5,-16,-3,0,-3,-4,-1
1513173079374474,-8,-16,-19,-7,-3,-4,-2,2
1513173079374474,7,23,14,7,2,2,1,-5
1513173079375975,-10,-5,-3,-10,-8,-3,-6,-5
1513173079375975,3,-22,-10,-3,0,-3,-5,0
1513173079396990,-4,-13,-12,2,1,0,2,-2
1513173079396990,-1,10,14,0,-1,0,-4,-4
1513173079398476,-3,-5,-4,-3,-2,-1,-1,-1
1513173079398476,1,3,-9,1,-1,1,0,2
1513173079411495,-5,-14,-7,-2,-2,-2,0,-3
1513173079411495,4,13,2,-2,0,0,-3,-2
1513173079418000,-7,1,-1,-4,-2,-3,-2,0
1513173079418000,-4,-13,-5,2,1,0,1,0
1513173079434500,-2,-12,-7,-3,-2,-2,-4,-2
1513173079434500,3,3,11,-2,-1,-2,-2,-1
1513173079436003,-4,4,-1,-8,-8,-3,0,-3
1513173079436003,1,-1,-2,5,8,2,0,-1
1513173079459027,1,-9,-4,3,0,-1,0,-3
1513173079459027,2,12,5,3,0,1,0,0
1513173079461019,-2,-2,0,1,0,-1,-2,0
1513173079461019,0,-3,-7,-7,-9,-3,-3,-2
1513173079471026,-2,-7,-8,-5,-2,-2,1,2
1513173079471026,0,3,-2,4,-1,-4,-3,-2
1513173079478033,-2,-2,7,-6,1,0,-2,-4
1513173079478033,1,-6,-7,-3,-4,-4,-3,-1
1513173079494551,-4,-5,8,0,-1,0,1,-1
1513173079494551,-2,3,10,0,-1,3,-1,0
1513173079496053,-1,-2,-10,0,-2,-2,-2,0
1513173079496053,-1,2,9,3,-1,-2,1,-2
1513173079517058,0,-1,0,-2,-1,-2,-1,1
1513173079517058,-1,3,-4,-1,-1,-1,-2,-2
1513173079518561,-2,-1,2,0,1,2,0,1
1513173079518561,0,1,-6,1,0,-1,0,-1
1513173079531068,-3,-11,-5,-2,-2,0,-1,-1
1513173079531068,1,0,2,-1,1,0,0,-1
1513173079538073,-3,1,-2,0,-4,-2,-2,-1
1513173079538073,-3,-2,-4,-1,-1,-3,-4,-1
1513173079554585,1,0,-4,0,1,5,1,-1
1513173079554585,-2,-2,0,-1,-2,-5,-3,-1
1513173079556085,-2,-3,-1,-1,-2,0,1,-1
1513173079556085,0,0,-5,-3,-4,-2,-1,0
1513173079577110,-1,-1,-6,1,0,-2,-1,0
1513173079577110,0,1,13,0,1,0,-2,0
1513173079578604,-1,-3,-15,-4,-4,-4,-2,-1
1513173079578604,1,1,1,-2,-3,0,0,0
1513173079591110,0,-3,-5,0,-1,-3,-3,-1
1513173079591110,0,1,-4,-3,-2,-1,0,-1
1513173079598127,0,-3,0,1,-1,0,-1,-2
1513173079598127,0,0,3,-1,-1,0,1,0
1513173079614626,-2,-2,0,-4,-3,-3,-1,-2
1513173079614626,-1,-1,-3,-1,-1,-1,-3,-3
1513173079616133,-3,-2,3,-1,-1,1,0,-1
1513173079616133,0,0,-4,0,-1,1,-1,-1
1513173079637145,1,0,-3,-2,-3,-4,-2,-1
1513173079637145,-1,-1,-3,-2,-2,0,0,0
1513173079638646,-2,-1,-2,1,1,0,-1,-2
1513173079638646,-1,-3,-1,-3,-2,-1,-1,1
1513173079650672,0,4,-3,-4,-2,-3,-1,-1
1513173079650672,-2,-3,-3,-1,-1,-1,-1,-3
1513173079659660,0,-1,1,-1,-1,1,-1,-1
1513173079659660,-1,0,0,-1,-1,-1,-1,0
1513173079674170,1,0,0,-2,-1,-2,-1,0
1513173079674170,-1,0,-3,-2,1,-1,1,-1
1513173079676171,-2,-1,1,-2,-2,-1,-2,-2
1513173079676171,-3,-3,-3,-2,-2,-1,-1,-3
1513173079696705,-1,-1,-2,0,1,-1,0,-2
1513173079696705,0,-1,-3,-2,0,-1,-2,0
1513173079698693,-2,0,0,1,-1,-3,-2,-2
1513173079698693,-1,-1,1,0,-1,-2,-2,-1
1513173079710704,-1,-3,-1,1,-2,-1,-1,1
1513173079710704,1,-2,-1,-2,-2,0,0,1
1513173079719701,0,1,-2,-2,0,-1,-1,0
1513173079719701,-2,-1,-2,-2,0,-3,-2,-2
1513173079734211,0,0,0,-2,-1,0,-2,0
1513173079734211,1,1,-3,-2,-2,1,-1,-1
1513173079736212,-1,-2,-1,-1,-1,-1,0,0
1513173079736212,-1,-3,-1,-1,-2,-2,0,-2
1513173079756738,1,-2,1,1,-1,0,-1,0
1513173079756738,-1,-1,-1,0,0,-2,0,-1
1513173079758239,-1,-1,-1,0,-1,-1,-2,-1
1513173079758239,-2,-1,-2,-1,1,-1,-2,-1
1513173079770752,0,-1,-2,1,0,0,-1,-1
1513173079770752,-2,-3,1,0,0,1,-1,-1
1513173079779243,-1,-2,0,-1,0,-1,-2,-2
1513173079779243,-1,-2,-1,0,-2,-1,-1,-2
1513173079794254,0,-1,-2,-2,-1,0,-1,0
1513173079794254,-1,0,-1,-1,-1,0,-1,0
1513173079795755,-1,-2,-3,-2,-2,-2,0,-1
1513173079795755,0,-3,-2,-1,-1,1,0,-2
1513173079816784,-2,-3,-1,-2,-2,-1,-1,-1
1513173079816784,0,1,-1,-2,-3,0,-1,-1
1513173079818271,-3,-2,-1,0,-1,-1,-1,-2
1513173079818271,0,-1,-1,0,0,-1,-1,0
1513173079830789,-3,-2,-1,0,0,-2,-2,0
1513173079830789,-1,-1,-3,-1,0,-1,0,0
1513173079839286,2,0,0,-2,-2,0,-1,0
1513173079839286,-3,-2,1,-1,-2,-1,-1,-2
1513173079854313,1,-1,-2,0,-1,0,1,1
1513173079854313,0,-1,-2,-2,-1,-1,-1,-1
1513173079855798,0,-4,-2,-1,-2,0,0,-1
1513173079855798,0,-1,-1,-2,0,-1,-2,-1
1513173079876815,0,-1,0,-1,-2,-2,-1,-2
1513173079876815,-1,-3,0,-1,-2,-2,-2,-2
1513173079878313,-1,-3,-2,-2,-2,-3,-1,0
1513173079878313,-3,0,-2,0,0,0,-2,-1
1513173079890363,-1,0,-1,-1,-2,-1,-1,-1
1513173079890363,-1,-2,-2,1,-1,0,-1,-1
1513173079899359,-3,0,0,0,-2,0,-1,-2
1513173079899359,0,-3,-2,-2,-1,-4,0,-1
1513173079914409,-2,0,0,-2,-1,-2,1,-1
1513173079914409,-1,-4,-1,-1,-1,-2,-1,-1
1513173079915895,-3,-1,-1,-2,-3,-1,-1,-1
1513173079915895,-1,-1,0,-1,1,-1,-2,0
1513173079936886,-3,-3,2,-2,-1,-1,0,1
1513173079936886,1,-2,-1,0,-1,-3,1,-1
1513173079938387,-2,0,-3,-2,-2,-2,0,-4
1513173079938387,0,1,-4,-1,-1,-1,-1,-1
1513173079950395,3,5,-3,-2,0,-2,-3,0
1513173079950395,-2,1,0,-1,-1,1,-1,-2
1513173079959403,-1,-1,-1,-1,1,-1,-2,-1
1513173079959403,0,0,0,-1,-3,0,-1,-1
1513173079974413,-3,-1,-1,-1,-1,0,-2,-3
1513173079974413,-1,-1,0,-1,-1,0,-2,-2
1513173079975915,-1,0,0,-1,0,-2,-1,-1
1513173079975915,0,0,-1,-1,-3,-1,-2,-2
1513173079996930,-1,-4,-1,-1,-2,-2,1,1
1513173079996930,-4,-2,-2,0,0,1,0,-1
1513173079998442,-1,-1,-1,0,0,1,-1,-2
1513173079998442,-1,0,-1,-2,-3,-3,-2,-1
1513173080010451,-3,-6,2,-1,-1,0,2,0
1513173080010451,-5,-2,1,0,0,-2,-1,-3
1513173080019444,-1,0,-1,-2,-1,-1,-1,-1
1513173080019444,-4,-2,0,1,2,1,0,0
1513173080034455,1,1,-2,-2,-1,-1,-3,-1
1513173080034455,-1,1,-1,-3,-1,0,-2,-1
1513173080035956,-2,-1,-1,0,0,0,1,-1
1513173080035956,0,0,-2,-2,-3,-1,-1,-1
1513173080056970,-1,1,-2,-1,1,-1,-1,1
1513173080056970,-1,1,-3,-2,-3,1,-1,0
1513173080058473,-3,-1,-1,-2,1,-2,-1,-3
1513173080058473,0,-2,-2,0,-1,-2,-1,0
1513173080078988,1,-1,0,-3,-1,-1,1,-2
1513173080078988,-1,-2,-1,-4,-1,-3,-2,-3
1513173080085493,0,-2,-2,-1,-2,-2,-1,-1
1513173080085493,-3,-1,-1,-2,-2,-1,-1,-1
1513173080094497,1,-1,-2,0,0,1,1,-2
1513173080094497,-4,-1,2,-2,-2,-1,0,-1
1513173080095998,0,-1,1,-2,-3,-2,-1,-2
1513173080095998,-1,-1,-1,-1,0,-2,-1,-1
1513173080117015,-3,-4,0,2,-2,2,0,0
1513173080117015,3,2,-2,-2,-2,-1,0,0
1513173080118517,-1,0,-1,-1,-2,0,-1,0
1513173080118517,-1,-4,0,0,0,1,-2,-2
1513173080139529,-2,0,-3,-1,1,-1,0,0
1513173080139529,1,-1,-1,-1,-2,-3,-1,-1
1513173080141030,-3,-2,0,1,1,1,-1,-2
1513173080141030,0,0,-2,-1,-2,-1,0,-1
1513173080154539,0,-1,-1,0,0,-1,-2,-3
1513173080154539,-1,0,-2,1,-2,-4,-1,0
1513173080157041,-1,0,-1,-3,-1,-2,-2,0
1513173080157041,-8,-4,3,0,2,-1,2,-2
1513173080177059,1,1,-1,-3,-2,0,-1,0
1513173080177059,-2,-1,0,-1,0,-1,-1,-2
1513173080178560,0,-3,0,0,-2,-2,-1,-1
1513173080178560,-2,-4,-1,-1,-2,0,-3,0
1513173080199595,0,-1,-1,-2,-1,-1,-1,0
1513173080199595,0,-1,0,-1,-1,1,0,0
1513173080201073,-1,-2,-1,0,-2,0,-1,-1
1513173080201073,1,1,-1,0,-1,-1,-2,-2
1513173080213597,2,-1,-1,0,-3,-3,-1,1
1513173080213597,-2,-1,-1,1,1,1,-1,-1
1513173080220586,-3,-1,-1,-1,-2,0,0,-3
1513173080220586,1,-1,-2,-1,-2,-2,0,2
1513173080237100,-2,-1,-2,0,-1,-2,-2,-1
1513173080237100,-1,0,0,-1,0,-2,-1,-1
1513173080243103,-1,-4,-1,-2,1,-1,0,-1
1513173080243103,-3,-1,0,0,-2,-3,-1,-3
1513173080259114,-3,-2,-1,-4,-1,0,-1,-2
1513173080259114,2,1,-4,-1,-2,-1,-2,0
1513173080265628,-1,0,-1,1,-2,-2,-2,-1
1513173080265628,1,0,-1,-2,-1,-3,0,0
1513173080273624,0,-1,-2,0,-1,-3,-2,0
1513173080273624,-2,-2,-3,0,0,-2,-1,-1
1513173080280638,-2,-3,1,-1,-1,0,1,-1
1513173080280638,-1,-2,-1,0,0,1,0,-2
1513173080296679,2,1,0,0,-1,-3,-1,0
1513173080296679,-1,-2,-2,-2,-1,-2,-2,-2
1513173080298680,0,0,-2,-4,-3,-2,-3,0
1513173080298680,-3,0,-1,-2,1,0,0,-3
1513173080319659,-2,-1,0,0,0,-1,1,-1
1513173080319659,-1,-2,-1,-2,-4,-2,-1,0
1513173080321159,1,0,-1,-2,1,-1,-3,-1
1513173080321159,0,-1,-2,-2,-1,-1,-2,0
1513173080333692,-1,0,-1,0,1,0,-2,0
1513173080333692,-3,-2,1,0,0,0,0,-1
1513173080340698,-3,-1,0,-1,-3,-1,-1,-1
1513173080340698,-2,-2,-1,-1,-1,-3,-2,1
1513173080356695,-1,-2,-2,0,-1,-2,-1,-1
1513173080356695,-1,0,-1,0,-1,-1,0,-2
1513173080358697,2,4,-4,-2,-2,-4,-2,0
1513173080358697,1,-2,-2,-2,-2,-2,-1,0
1513173080378714,-1,0,-1,-2,0,0,-3,-1
1513173080378714,-3,0,-1,-1,-2,0,-1,-2
1513173080387219,-1,0,-2,-1,-1,0,-2,-3
1513173080387219,-2,-1,-1,0,0,0,-2,-2
1513173080393718,-1,-2,-1,0,-1,-1,0,-1
1513173080393718,1,1,-3,-3,-2,0,-1,0
1513173080400713,-1,-4,0,0,0,-1,0,0
1513173080400713,1,0,-2,0,-1,-1,-1,0
1513173080416726,-2,-3,-1,-2,0,-1,0,-1
1513173080416726,-2,-3,-1,-1,-1,-1,-1,-2
1513173080418739,-2,-1,-1,-3,-1,-1,0,-1
1513173080418739,0,0,1,-1,-2,1,-1,-1
1513173080439240,4,3,-3,-2,-2,-3,-3,-1
1513173080439240,0,1,-1,0,-1,-2,-1,0
1513173080440742,-1,2,0,0,-1,-1,-2,-2
1513173080440742,1,0,-2,-1,0,-1,0,0
1513173080454252,-1,2,-2,0,-1,0,-1,-1
1513173080454252,-4,-3,-1,-1,1,-1,-1,-2
1513173080468262,-2,-3,-2,0,0,-1,-1,-2
1513173080468262,-5,0,0,-3,0,0,1,0
1513173080476769,0,-1,-2,-2,-2,-1,0,0
1513173080476769,0,-2,-1,-2,-1,-2,-2,0
1513173080478268,-2,-2,0,0,-2,0,0,0
1513173080478268,0,-1,-1,-1,0,-1,-1,-3
1513173080499286,0,-2,-1,-1,-2,-1,-1,-2
1513173080499286,-1,0,1,-2,-2,0,-2,-1
1513173080505288,-1,-1,-2,-2,-1,-2,-3,0
1513173080505288,0,0,-2,0,-2,-2,-1,-1
1513173080514333,-3,-2,0,-2,-2,-1,-1,0
1513173080514333,-4,-1,-1,1,0,0,2,-1
1513173080520373,-6,-8,1,2,2,0,0,-3
1513173080520373,1,0,0,-1,-1,-1,-1,-1
1513173080536872,-5,-3,0,-1,0,-1,-1,1
1513173080536872,1,0,0,-1,-2,0,0,-1
1513173080538372,0,3,0,-2,-3,-2,-1,-3
1513173080538372,-1,-1,-3,1,0,-1,-2,-1
1513173080559395,-1,-1,-1,-2,0,0,0,1
1513173080559395,-2,-2,-2,-2,2,-2,-2,-1
1513173080560888,4,-1,-5,-2,-2,-2,0,0
1513173080560888,0,-1,-1,-1,-1,-1,-1,-2
1513173080572897,-1,-1,-1,-1,-1,-2,-1,-1
1513173080572897,-2,-2,0,-2,-1,-2,0,-1
1513173080581912,1,-2,-1,-3,1,0,-1,0
1513173080581912,0,-1,-3,-2,-1,-2,-1,0
1513173080597926,0,-2,-2,0,-2,0,-1,-1
1513173080597926,-2,-2,-1,1,0,0,-1,-1
1513173080602918,-2,0,0,0,-1,-1,0,-2
1513173080602918,-1,-1,0,-1,-1,-1,-1,0
1513173080619438,-10,-10,5,2,3,1,0,-1
1513173080619438,1,-1,-1,-3,-3,-2,-2,-4
1513173080620940,-3,0,-1,0,-2,-1,-1,-2
1513173080620940,-1,-1,-1,-2,0,-1,-1,1
1513173080632948,2,2,-3,0,-2,-4,0,-1
1513173080632948,-3,0,0,-1,-3,-2,-1,-2
1513173080641957,-4,-1,-1,-1,1,1,-1,1
1513173080641957,0,-1,-3,-2,0,-2,-2,-1
1513173080656967,1,0,-4,-2,-1,-1,-3,0
1513173080656967,1,-1,-1,0,-1,1,-2,-1
1513173080658459,-1,-1,-1,-3,-2,-2,-1,-2
1513173080658459,-6,0,2,1,-1,-1,0,-2
1513173080679494,0,2,-2,0,0,0,-1,0
1513173080679494,-1,0,-1,0,-2,-1,-1,0
1513173080680993,3,2,-2,-2,-1,-2,-2,-1
1513173080680993,-1,-4,-1,-2,1,1,-2,-1
1513173080692994,2,2,-3,-3,-3,-2,-2,0
1513173080692994,-3,-2,1,-1,0,0,1,-1
1513173080708001,-1,0,-2,-1,-1,-1,0,-1
1513173080708001,-1,0,-2,-1,0,-1,-1,0
1513173080717001,0,0,-2,-2,-3,-1,-2,-2
1513173080717001,-1,-2,-2,0,-2,-3,0,0
1513173080718500,-3,-3,0,-1,0,0,-1,-1
1513173080718500,1,-1,-1,-1,-1,-3,1,0
1513173080739514,-2,-4,0,-2,1,0,0,0
1513173080739514,0,-2,0,-2,-1,-2,-1,0
1513173080741015,-2,-2,-2,0,-1,-2,0,-1
1513173080741015,-2,-1,-4,-2,-3,-3,-3,-3
1513173080753024,3,-1,0,-1,0,1,0,3
1513173080753024,-1,0,-2,-1,-2,-3,0,-1
1513173080762040,-1,-1,-1,-2,-1,-1,0,-2
1513173080762040,6,5,-6,-3,-1,-2,-2,0
1513173080777043,-1,-1,0,0,-1,-1,0,-2
1513173080777043,-1,-2,-1,-2,-1,-2,-2,-2
1513173080778545,-3,-3,0,0,1,-1,-1,-1
1513173080778545,-1,0,-1,-2,0,1,0,-1
1513173080799076,-3,1,0,1,-1,-1,-1,-2
1513173080799076,0,1,-2,-1,-2,1,-1,-2
1513173080805573,-2,0,-1,-1,-1,-1,-2,-3
1513173080805573,-1,-3,1,-1,-2,-1,-2,1
1513173080813080,-2,1,-2,-3,-2,-1,-1,1
1513173080813080,-2,-1,-2,-1,-1,-1,-1,-3
1513173080822076,-1,0,-1,-1,-2,-1,-1,-1
1513173080822076,-4,-5,0,1,2,1,1,-1
1513173080837095,0,-1,-1,-2,-3,-1,0,-1
1513173080837095,-1,-2,-1,-1,-1,0,-1,-2
1513173080838586,0,-2,-3,-1,-1,-2,-2,-1
1513173080838586,-4,-2,-1,-1,-1,1,-1,-1
1513173080860099,0,-1,-3,0,0,-1,-2,0
1513173080860099,3,0,-3,-1,-2,-2,-1,0
1513173080867114,-2,0,0,1,-1,0,-1,-2
1513173080867114,1,-2,0,-2,-1,-3,-1,1
1513173080873118,-1,-2,1,-1,-1,-1,0,-1
1513173080873118,-2,-3,-1,-1,-2,-2,-1,-2
1513173080882124,-2,-4,-1,-2,-1,0,0,0
1513173080882124,1,-2,-1,0,-3,-2,-1,-1
1513173080897125,0,0,-2,0,1,1,-1,0
1513173080897125,-2,0,0,-2,-1,-2,-2,-2
1513173080898626,-2,-1,-1,0,-1,-2,0,-1
1513173080898626,-1,0,0,-2,-2,1,-2,0
1513173080919141,-1,0,-2,0,1,0,-2,-3
1513173080919141,-3,-1,-1,-1,0,0,0,0
1513173080925685,-4,-2,-1,0,0,0,-2,-1
1513173080925685,2,1,-2,-1,-1,-1,-2,0
1513173080933151,-1,-2,-1,-2,-1,-2,-1,0
1513173080933151,0,-1,-2,-1,-1,-1,-1,1
1513173080942169,2,2,-4,-2,-2,0,0,-2
1513173080942169,2,-2,0,-1,-1,-2,-2,-1
1513173080956679,-1,-2,-2,-1,-1,-1,0,-2
1513173080956679,-7,-6,3,1,0,0,-1,-2
1513173080958680,-2,-1,0,0,0,0,-3,0
1513173080958680,-2,-2,-1,-1,-1,0,-2,0
1513173080979204,-2,-2,0,-1,-1,0,0,-1
1513173080979204,0,0,-2,-2,-3,-1,-1,-1
1513173080985698,0,-4,-2,-2,-1,-3,0,0
1513173080985698,-2,-1,1,0,0,-1,0,-3
1513173080993203,-2,-1,-2,1,1,-2,-1,0
1513173080993203,-1,-4,-4,2,0,-1,-2,-1
1513173081002211,-3,2,1,-1,0,0,0,-3
1513173081002211,1,0,-3,-2,-2,-1,0,0
1513173081016713,1,-1,-2,-3,-3,-2,-1,0
1513173081016713,-3,-1,0,-1,-1,0,-1,-2
1513173081018712,-2,-2,-1,1,-2,-2,-1,-3
1513173081018712,2,1,-2,-2,-2,-3,-1,-1
1513173081039235,-2,-2,0,1,-2,0,-2,-2
1513173081039235,-2,0,-1,-2,-1,-2,-1,-1
1513173081040737,-1,0,0,-3,-1,0,-1,-3
1513173081040737,0,-2,-2,-1,-1,-2,-2,2
1513173081061741,-1,0,-1,-1,-1,-1,-1,-1
1513173081061741,-1,1,0,-1,-1,0,-3,-1
1513173081063743,-2,0,-1,1,-1,-1,-1,0
1513173081063743,-2,-3,-1,0,1,0,1,1
1513173081077255,0,0,0,-1,1,-2,1,0
1513173081077255,1,-1,-1,-2,0,0,-1,-1
1513173081078753,-2,-1,-1,-1,0,-2,-1,-2
1513173081078753,3,-1,-3,-2,-3,-2,-1,0
1513173081099291,0,0,-2,-2,-2,-2,-1,0
1513173081099291,-2,-2,-2,-1,0,-2,1,-2
1513173081100769,0,2,-1,-1,-3,-2,-1,-3
1513173081100769,-3,-1,-1,-1,-1,0,-2,0
1513173081121785,0,-2,-1,-1,0,-1,0,-1
1513173081121785,-3,-5,1,0,-1,0,-1,-2
1513173081123297,-1,0,-2,-3,-1,-2,-1,0
1513173081123297,0,0,-1,-2,-1,-2,0,-1
1513173081136796,-2,-2,0,-1,1,0,-2,1
1513173081136796,-2,1,1,-1,-3,-3,-1,-2
1513173081138296,-2,-3,-2,0,0,1,-1,0
1513173081138296,-2,-1,0,0,1,0,-1,-3
1513173081158819,0,0,-3,-2,0,-2,0,-1
1513173081158819,0,0,-2,-1,0,-2,-2,0
1513173081159310,-2,-2,-1,-1,-1,1,0,-1
1513173081159310,0,-1,-2,-1,-1,-1,-1,0
1513173081181326,-1,-1,-2,-3,-1,0,-1,-2
1513173081181326,1,1,-1,-2,-1,-2,0,-2
1513173081181827,-1,-1,0,-2,-4,-2,-1,0
1513173081181827,-2,-4,-2,-1,0,-1,-2,1
1513173081196349,0,-2,0,-1,-3,-1,0,-2
1513173081196349,-6,0,1,-2,0,1,-1,-2
1513173081196837,-4,-6,3,0,0,-1,0,-1
1513173081196837,-1,0,-1,-1,0,-3,-2,0
1513173081218852,-2,-2,0,0,0,-1,-1,-2
1513173081218852,0,-1,-2,-3,-1,-2,-1,-1
1513173081219353,1,-1,-2,-2,-2,-1,-2,-2
1513173081219353,-2,-2,-2,0,0,1,1,-1
1513173081240868,-1,-1,-2,0,0,-1,-1,1
1513173081240868,-3,-1,-1,-2,-4,-1,-3,-2
1513173081241881,0,0,0,-2,0,0,-2,0
1513173081241881,0,-1,0,-2,1,-2,0,-1
1513173081255878,0,-1,-2,-1,0,0,-1,0
1513173081255878,0,-2,-2,0,0,0,-2,-3
1513173081256892,-2,-1,-1,-1,-1,0,-2,-3
1513173081256892,-2,-1,-2,-1,-2,-1,-1,-3
1513173081278394,-1,0,-1,-2,-2,2,0,-1
1513173081278394,-2,-2,-2,-1,1,-2,-1,-1
1513173081279395,-1,0,-1,0,0,0,-1,-3
1513173081279395,-5,-6,3,1,-1,-1,-1,-1
1513173081300910,0,2,0,-1,-2,-1,-2,-2
1513173081300910,-1,0,-1,1,0,0,1,-1
1513173081301912,1,0,-3,-2,-1,-3,0,0
1513173081301912,1,1,-1,-2,-2,1,0,0
1513173081324430,-1,0,-1,0,-1,-2,-1,-1
1513173081324430,-1,0,0,0,-2,-2,-1,0
1513173081324928,-1,-2,-1,-2,-2,0,-1,0
1513173081324928,0,-1,-1,-1,1,-2,-2,0
1513173081338438,0,0,-1,0,-1,-2,-1,-1
1513173081338438,0,1,-2,-1,-2,-2,-3,-2
1513173081339438,-2,-1,-2,0,-1,-1,1,-2
1513173081339438,1,0,-2,-1,-2,-3,-2,-1
1513173081360965,0,-1,0,0,0,-1,-1,0
1513173081360965,-1,-4,0,-1,-2,-2,-2,1
1513173081361966,-2,0,1,-1,-1,0,-1,-1
1513173081361966,-1,-2,0,0,-1,1,-2,-1
1513173081375963,1,-1,-2,-1,-1,-3,-1,0
1513173081375963,-1,1,0,-2,-1,-2,0,0
1513173081376964,-1,0,-1,-1,-1,-2,-1,-1
1513173081376964,0,1,-3,-1,-1,-1,-2,0
1513173081398496,-1,-1,-2,-2,-1,-3,-3,-1
1513173081398496,-1,-1,-1,-1,-2,-1,0,-1
1513173081399493,4,-2,-5,0,1,-2,-1,0
1513173081399493,-4,-1,0,0,1,1,0,0
1513173081421005,-2,-1,-2,-2,-2,-1,-2,0
1513173081421005,-2,0,-1,-2,-1,0,1,-1
1513173081422004,0,-4,-1,-1,-2,-2,-2,-2
1513173081422004,0,-1,-1,-1,-1,0,-2,-1
1513173081436516,-2,-2,-1,-1,-1,-1,0,0
1513173081436516,-1,-1,-1,-1,0,0,-1,-1
1513173081443521,-4,-3,0,0,-1,-1,-1,-1
1513173081443521,-1,-2,-1,-1,-2,-1,0,-2
1513173081458522,-2,0,0,-1,-1,0,-1,0
1513173081458522,-1,0,-1,0,0,0,-2,-2
1513173081459523,-2,0,0,1,0,-1,-1,-1
1513173081459523,-5,-1,0,-1,-2,0,-1,-3
1513173081481541,-3,-6,2,0,-2,-1,0,-2
1513173081481541,-1,-1,-3,0,-4,-1,-2,-2
1513173081482539,-2,-1,0,-3,1,1,-2,-3
1513173081482539,1,1,-2,-1,0,-2,-1,1
1513173081496048,0,0,-2,-3,-1,0,0,-1
1513173081496048,-2,-1,1,-1,0,-1,-1,-3
1513173081497053,-3,-3,0,-1,-2,-1,-2,0
1513173081497053,1,-1,-2,0,-1,-1,0,0
1513173081519065,-1,0,-2,-1,-2,-2,-1,-2
1513173081519065,0,-5,-3,-1,0,-1,-2,-1
1513173081519566,-5,1,1,0,-1,-1,-2,-2
1513173081519566,2,-1,-1,-1,-2,0,1,-1
1513173081541092,0,0,-3,0,-1,0,-2,-1
1513173081541092,0,0,-2,0,0,0,0,-2
1513173081542092,1,-2,-3,0,-1,-1,-1,0
1513173081542092,-4,-2,1,-2,-2,0,-1,0
1513173081556100,-1,-2,1,0,0,-1,-1,-1
1513173081556100,0,-1,0,-3,-2,-1,-1,1
1513173081556602,-1,2,1,-3,0,-2,0,-1
1513173081556602,2,3,-5,-2,-1,-2,-2,-1
1513173081578610,0,0,-2,-1,-1,-1,-1,-2
1513173081578610,-2,1,0,-1,-2,-2,-1,-2
1513173081579615,1,-2,-3,-2,-1,-1,-1,0
1513173081579615,-2,0,-3,-3,1,-1,0,-1
1513173081601132,-1,3,-1,0,-1,-1,-1,-2
1513173081601132,1,-1,0,-1,-3,-2,-1,-2
1513173081602124,-2,0,-1,-2,-2,-3,-2,-2
1513173081602124,-2,-3,-1,-1,-2,0,-2,-1
1513173081615636,1,0,-1,-3,-3,-2,-1,0
1513173081615636,-6,0,2,-1,0,0,0,-3
1513173081623654,0,-1,0,0,0,-1,-1,0
1513173081623654,1,0,0,-1,0,-3,-2,1
1513173081638651,-3,-2,-2,0,-2,-1,0,-1
1513173081638651,0,-1,-2,-2,-2,0,-2,-1
1513173081639652,-3,-5,1,0,0,1,0,-1
1513173081639652,-2,-2,-2,0,-1,-1,-1,0
1513173081661165,0,-1,-1,-3,-2,-3,-1,-2
1513173081661165,-2,-4,-1,-2,0,-1,-2,-1
1513173081662166,-1,0,-2,0,-1,-1,0,-2
1513173081662166,0,-1,-2,0,-1,-2,-3,-1
1513173081675676,-1,-3,-1,-1,1,2,-1,1
1513173081675676,-1,1,0,-2,-1,-2,-2,-2
1513173081683694,0,0,0,-2,-3,-2,-2,-1
1513173081683694,1,-1,-1,0,0,0,0,-1
1513173081698691,-1,3,1,-1,-3,-2,-2,-1
1513173081698691,0,-2,-2,-1,0,1,1,-1
1513173081699692,-2,0,-1,-3,-2,1,0,-1
1513173081699692,1,1,-2,0,-2,-2,-1,0
1513173081721219,-1,-2,-1,1,-1,-2,0,0
1513173081721219,-3,-2,-2,-1,-2,0,-3,-1
1513173081722218,0,-2,-2,-1,-1,-2,0,-1
1513173081722218,-4,0,1,-1,1,0,-1,0
1513173081735790,-1,-4,-3,-1,-1,0,0,0
1513173081735790,-2,0,-1,-2,0,-3,-1,-1
1513173081743795,0,2,-1,0,-1,-4,-3,-1
1513173081743795,-2,-3,-1,0,-1,-1,-1,0
1513173081758793,0,0,0,-1,-1,-2,-1,0
1513173081758793,-1,-3,0,-1,-2,-1,-2,-1
1513173081759293,0,-1,-1,-1,-1,0,0,0
1513173081759293,-1,1,-1,-2,-2,-2,-2,0
1513173081781322,0,-1,0,0,0,0,-2,0
1513173081781322,-1,-1,-2,-1,-1,-1,1,-1
1513173081781810,-2,-1,-3,-3,-1,-1,-1,-1
1513173081781810,4,1,-3,-1,-3,-2,-1,-1
1513173081795319,-2,-2,-1,0,-1,0,0,-3
1513173081795319,0,-1,0,-1,-2,-2,0,-3
1513173081803826,-2,-1,-1,-1,-1,-1,-2,-4
1513173081803826,-2,-1,-2,0,1,0,-1,1
1513173081818839,-2,1,-1,-1,-2,0,-1,0
1513173081818839,-1,-1,-1,-1,-1,-2,-1,-1
1513173081819337,-1,-4,0,-1,-1,0,-1,0
1513173081819337,0,-1,-1,-2,-2,-2,0,0
1513173081841365,-1,-2,-2,-1,0,-1,0,0
1513173081841365,-3,-2,-2,0,-2,-2,0,-2
1513173081841853,2,-1,-3,-2,-2,-1,0,1
1513173081841853,-2,-3,1,1,0,0,1,-3
1513173081855363,-1,0,0,-3,0,-1,-2,-2
1513173081855363,-1,-1,-1,-1,-1,0,-1,1
1513173081863868,-2,-2,-1,0,0,0,-2,0
1513173081863868,-1,-1,0,-1,-1,-2,-2,1
1513173081878881,-4,-2,0,1,0,-1,1,-2
1513173081878881,-1,-3,-2,1,-1,-1,-1,-1
1513173081880382,-2,0,1,-2,-1,-1,-2,-2
1513173081880382,0,-1,0,-1,-1,-1,-1,-1
1513173081901394,-1,-2,-3,-1,1,0,-1,-2
1513173081901394,-2,-1,1,0,-3,-2,-2,0
1513173081901895,0,-2,0,1,-1,0,1,-1
1513173081901895,0,-1,-4,-2,-1,-1,-1,1
1513173081915404,-2,0,0,-1,0,-2,-1,-2
1513173081915404,-2,2,-1,-3,-1,0,-1,-3
1513173081923420,-1,-3,0,0,1,-1,-2,-3
1513173081923420,0,-2,0,-3,-1,-1,0,0
1513173081938936,1,-1,-1,-1,-2,-4,-2,0
1513173081938936,-2,-1,-1,-1,-1,-2,-2,-2
1513173081940432,-2,-2,-1,0,-1,1,0,-1
1513173081940432,-1,0,0,-1,0,1,-2,1
1513173081960936,-1,1,-2,-1,-2,-1,-1,0
1513173081960936,3,1,-3,0,-2,-4,-1,0
1513173081961937,-1,-1,-2,-2,-2,-1,-2,-1
1513173081961937,-1,-1,-2,-1,0,0,-1,-2
1513173081984453,0,-2,-1,-1,-2,0,0,0
1513173081984453,-4,-1,1,1,0,0,1,-1
1513173081984953,0,0,-3,-1,-3,-1,-1,0
1513173081984953,-2,-1,-2,0,-2,-1,-1,-2
1513173081998963,1,1,-1,-2,-1,0,-2,-1
1513173081998963,-1,-2,-1,-1,-1,-1,-1,-2
1513173081999964,0,3,-2,0,-1,-2,-1,1
1513173081999964,-1,-2,-1,0,-1,-1,-1,-3
1513173082020978,0,-1,-2,-3,-2,-3,-2,-1
1513173082020978,-2,-4,-2,0,0,-1,0,-2
1513173082021979,3,0,-2,-3,-2,-1,0,0
1513173082021979,-1,-1,-1,0,0,-1,-1,-2
1513173082044527,0,0,1,-1,-3,-2,-1,-1
1513173082044527,-4,-2,0,-2,-1,-2,-1,0
1513173082045028,-1,-1,-1,-1,-1,-3,-1,-1
1513173082045028,1,-1,-3,-1,0,-2,-2,-1
1513173082058548,-2,-2,-1,1,1,0,-1,-2
1513173082058548,-1,-1,0,-2,-1,0,-2,-1
1513173082059546,-2,-1,2,0,0,0,-2,1
1513173082059546,-1,-1,0,-2,-3,-1,-1,-2
1513173082081055,-1,1,-2,-1,-2,-1,-1,-1
1513173082081055,0,-1,-2,-1,-1,-2,-1,0
1513173082082055,-3,-7,2,0,-1,-1,0,-1
1513173082082055,0,0,-1,0,-2,0,-2,1
1513173082104569,1,-1,-2,-3,0,-2,-1,1
1513173082104569,-5,-2,-1,0,1,2,0,-4
1513173082105069,-2,0,-1,-1,-1,0,-1,-3
1513173082105069,-1,0,-2,-1,-2,-1,1,1
1513173082119082,-3,-1,-1,0,0,0,0,-2
1513173082119082,0,-1,-2,-1,-4,-3,-2,-1
1513173082119596,-5,-5,-1,-1,1,-2,0,-2
1513173082119596,-4,-3,1,1,0,-3,1,-2
1513173082141094,0,-1,-2,-1,-1,1,0,-1
1513173082141094,0,0,-1,-1,-1,-2,-1,-2
1513173082142095,-1,1,-5,-1,-2,-1,0,0
1513173082142095,0,-2,-2,-1,-1,0,0,0
1513173082164125,0,-2,1,-1,-2,-1,0,0
1513173082164125,-2,-1,-2,-1,-2,0,0,1
1513173082165111,-2,-1,-2,-1,0,-1,-2,-2
1513173082165111,0,-2,-2,-2,-2,-3,-2,-1
1513173082178635,0,1,0,0,-2,-3,-2,-1
1513173082178635,0,-1,-1,-2,-2,0,0,-3
1513173082179123,0,-1,-1,-2,-2,-1,-1,0
1513173082179123,0,1,-4,-3,0,-1,-1,-1
1513173082201138,-1,-2,-1,0,-1,-1,0,-2
1513173082201138,0,-3,0,-1,-2,0,-1,-3
1513173082201639,0,-1,-1,-1,0,-1,1,-1
1513173082201639,0,0,-1,0,-1,-1,-2,-1
1513173082224682,1,1,-3,-3,0,0,-1,-2
1513173082224682,-2,0,0,-3,2,-3,-1,0
1513173082225678,1,-1,-4,0,-2,0,-2,-3
1513173082225678,0,-1,-1,0,0,-1,0,-1
1513173082238663,0,-2,-1,0,-1,-2,1,-1
1513173082238663,-1,-2,-2,1,0,-1,-2,-2
1513173082239170,-1,-1,-2,-4,0,-2,1,0
1513173082239170,3,-2,-4,-1,-2,-1,-1,-1
1513173082261179,-4,-3,-1,-1,-2,-1,-1,-2
1513173082261179,-3,0,1,0,-1,-2,-1,-1
1513173082262180,-1,-2,-2,-1,-3,0,-2,-1
1513173082262180,1,-1,0,-2,-1,-1,-1,0
1513173082284195,2,1,-3,-3,-2,0,-2,0
1513173082284195,2,2,-2,-1,-1,-1,-1,-1
1513173082285196,1,-3,-1,0,1,-1,-1,-1
1513173082285196,-3,-1,1,1,0,-1,1,0
1513173082298706,-4,-1,0,0,-2,-2,-2,-2
1513173082298706,-1,1,-2,-1,-2,-1,0,-2
1513173082299206,-2,-3,1,-1,-1,0,-1,0
1513173082299206,-1,0,-1,-1,-1,-1,0,1
1513173082321222,-1,-2,0,0,-1,1,0,1
1513173082321222,-2,-4,-1,-1,-2,-1,0,-3
1513173082321725,0,0,0,-1,-2,-2,0,-1
1513173082321725,-3,-1,-1,0,1,1,-2,-1
1513173082344238,-1,1,0,-1,-1,-1,0,-1
1513173082344238,-2,0,0,-1,-2,0,-1,-1
1513173082345239,-1,-1,1,-1,-1,0,0,-2
1513173082345239,-4,0,-1,-1,0,-1,-1,-3
1513173082358748,0,-1,1,-1,-3,-2,-2,-2
1513173082358748,-2,-3,-1,1,-1,0,-1,-2
1513173082359249,0,-2,-2,1,-1,-1,-2,1
1513173082359249,1,1,-3,-2,-1,-2,-1,-1
1513173082381264,-2,-2,-3,0,-1,-2,-1,0
1513173082381264,0,-2,-2,-2,0,-1,0,-2
1513173082381764,1,-1,-2,-1,0,-2,-1,0
1513173082381764,-1,-2,0,-2,-1,-1,-2,-1
1513173082404280,-1,-3,-1,0,-1,0,-1,-1
1513173082404280,-2,-1,0,0,0,1,-1,-1
1513173082405282,1,1,-1,0,0,-2,-1,-1
1513173082405282,-1,-2,1,-1,-2,-2,0,-1
1513173082418792,-1,0,-3,-2,-2,-1,-1,-4
1513173082418792,0,0,0,-2,-2,0,-3,0
1513173082419294,-2,-1,1,-1,0,-1,0,-2
1513173082419294,0,-2,0,-1,0,-1,-1,-1
1513173082441306,-2,-2,-1,-2,0,-1,-1,-1
1513173082441306,-1,1,-1,-2,-1,-3,-1,0
1513173082441807,-2,-1,-1,0,-1,0,-1,-2
1513173082441807,0,-2,0,-2,-1,-2,-1,0
1513173082464338,-2,-2,1,0,1,1,-1,-1
1513173082464338,0,1,-1,0,-2,0,-1,-3
1513173082465324,-2,-1,0,-1,0,-3,-1,0
1513173082465324,-1,-2,-3,-1,-1,1,-1,-1
1513173082478847,-1,-2,-1,0,-1,-2,-2,0
1513173082478847,-3,-4,0,-2,0,-1,1,-1
1513173082479347,1,-2,-3,-3,-2,-1,-1,0
1513173082479347,-1,1,-1,-3,-1,-1,-2,-1
1513173082501350,-2,0,-2,-1,0,-1,-1,-3
1513173082501350,0,-1,-2,-1,-1,-2,0,-1
1513173082501850,-2,0,-1,-1,-2,-3,-1,-1
1513173082501850,1,-1,-2,-1,-1,-3,0,1
1513173082524367,-3,-1,0,-1,-1,0,-1,-2
1513173082524367,-1,-3,-1,2,0,-1,-2,-1
1513173082524866,-1,-2,-1,-1,0,-1,-3,0
1513173082524866,-1,-2,-1,-1,0,-2,-1,-2
1513173082538414,1,-1,-1,-1,-2,-3,0,0
1513173082538414,-2,-2,-1,-1,-1,-3,0,-3
1513173082539413,-3,-1,1,0,-2,0,-1,-1
1513173082539413,4,0,-2,-3,-3,-2,-2,1
1513173082560930,-1,0,0,-1,0,0,0,-2
1513173082560930,-3,-2,0,-2,-1,0,-2,-1
1513173082561928,1,1,-3,-1,-2,-2,0,-1
1513173082561928,-1,-2,-1,0,-1,-1,0,0
1513173082584445,0,-2,0,-1,-2,-2,0,0
1513173082584445,-2,-2,-1,-2,-1,-1,-3,-1
1513173082584944,0,-1,-1,-1,-1,0,0,0
1513173082584944,0,-1,-2,0,0,0,0,-1
1513173082597967,-1,-1,0,0,-3,-4,0,-2
1513173082597967,-2,0,0,-1,-1,-1,0,-2
1513173082605972,0,-3,-1,-1,0,-1,0,-1
1513173082605972,-2,-2,-1,-1,0,0,1,-1
1513173082620969,-1,-1,0,0,-2,-2,-1,-1
1513173082620969,1,-2,0,0,-2,0,-1,-1
1513173082621970,-1,-1,-2,-1,0,0,-1,0
1513173082621970,-5,-2,0,-1,0,1,0,0
1513173082644486,-2,-1,-4,-2,-1,-2,0,-1
1513173082644486,-2,0,0,-3,-2,-3,0,-1
1513173082644986,-2,-2,0,-2,-1,0,-1,-1
1513173082644986,0,-2,-2,0,0,0,-2,1
1513173082657995,-2,-1,-3,-1,-1,-1,-2,-1
1513173082657995,-2,-1,-1,0,0,-3,-1,1
1513173082666003,0,-1,-4,-2,-2,-1,-1,-1
1513173082666003,0,-1,0,-1,-1,-2,0,1
1513173082681027,-1,1,0,0,-1,-3,-3,0
1513173082681027,0,-1,-1,0,-1,0,-1,0
1513173082682013,0,1,-1,0,0,-2,0,-1
1513173082682013,-1,-2,-1,-1,-2,0,-3,-2
1513173082704042,-1,-1,-2,-1,-2,-1,0,0
1513173082704042,-2,-2,-1,0,-2,-2,-1,-2
1513173082705029,-2,-2,-1,-2,-2,-1,0,0
1513173082705029,-2,0,1,0,-2,-2,0,-3
1513173082718047,-3,-1,0,-1,0,-1,0,0
1513173082718047,-1,-2,-2,-3,0,0,-2,-2
1513173082726044,1,0,-2,-2,0,-1,0,-1
1513173082726044,-3,-1,0,0,0,-1,-2,-1
1513173082741054,-1,-1,-1,0,-1,-2,-1,-1
1513173082741054,-2,-1,0,0,0,2,1,-1
1513173082742055,0,-2,-3,0,-2,-2,-1,0
1513173082742055,-5,-1,0,-1,0,-1,-2,-2
1513173082764571,-2,-1,-2,0,-1,0,0,-2
1513173082764571,1,-2,-1,-2,-1,-2,0,-2
1513173082765072,-2,1,0,0,0,0,-2,-2
1513173082765072,2,0,-3,0,-2,0,-2,-1
1513173082778082,-2,-2,0,-1,-1,0,-2,0
1513173082778082,-2,-3,-2,0,-1,-1,0,-2
1513173082786087,-4,-2,0,0,1,0,1,0
1513173082786087,0,1,-1,-1,1,-2,1,-2
1513173082801114,0,0,-1,-1,-2,0,-3,-3
1513173082801114,-3,1,-1,0,-2,-2,-2,0
1513173082802098,1,-1,0,-2,-3,0,-1,0
1513173082802098,-3,-7,1,0,0,0,0,2
1513173082824632,-1,-1,-1,-3,-2,-1,-2,-3
1513173082824632,-1,0,-2,-1,-3,-3,-1,-2
1513173082825615,-1,-1,-1,1,-2,-1,-1,0
1513173082825615,-1,-2,-2,0,1,0,-2,-1
1513173082838124,-1,-1,-2,-1,-1,-1,0,-1
1513173082838124,-2,-2,-2,0,1,0,0,-2
1513173082846142,1,0,-2,-3,-1,-2,-1,-1
1513173082846142,1,0,-2,-1,-1,-1,-1,-1
1513173082861139,-7,-1,2,0,1,1,1,-1
1513173082861139,-1,2,-1,-1,-1,-2,0,-1
1513173082861639,0,-2,-1,0,0,-2,-1,-1
1513173082861639,-2,0,1,-2,-2,-1,-1,-1
1513173082884165,-1,-1,-2,-1,0,1,-2,0
1513173082884165,-1,-1,-1,-2,-3,0,-3,-1
1513173082885166,0,-3,-2,-1,0,0,-1,-1
1513173082885166,0,1,-2,0,-1,-2,0,-2
1513173082898171,-2,-1,-1,1,0,-1,2,-1
1513173082898171,0,-2,0,-2,0,-1,-2,0
1513173082906184,0,-2,-3,-3,-1,-2,-1,1
1513173082906184,1,-2,-2,-1,-1,-1,0,1
1513173082921684,1,0,-1,-2,-3,-2,-2,-2
1513173082921684,-1,0,-1,-2,-1,-2,-1,-1
1513173082922184,-1,-1,-1,-1,-1,0,-1,-1
1513173082922184,1,1,-1,-2,-3,-3,-1,-1
1513173082944217,0,1,1,-2,-2,-2,-1,-2
1513173082944217,2,-1,-1,-1,-1,-1,-1,-1
1513173082945229,-2,-3,-1,0,0,1,0,0
1513173082945229,-4,-1,0,0,0,-1,0,0
1513173082966733,0,-1,0,-2,-1,-1,0,0
1513173082966733,-1,-1,0,-1,-2,-2,-2,-1
1513173082967735,-1,0,-1,1,0,-1,-1,-1
1513173082967735,2,0,-3,-3,0,-2,-1,0
1513173082981254,-1,-1,1,0,-2,-1,-1,-2
1513173082981254,-1,-1,-2,-2,-1,0,1,-2
1513173082981744,-2,0,0,-1,0,-1,-2,0
1513173082981744,0,-1,0,0,-2,-2,0,-1
1513173083004260,0,5,-4,-1,-2,-3,-1,-2
1513173083004260,-1,-2,-4,-1,0,1,-2,-1
1513173083005271,-3,-1,-1,-1,0,-2,-1,0
1513173083005271,1,-1,-2,-3,-3,-1,-2,0
1513173083026806,-3,-3,-4,-1,1,0,0,-2
1513173083026806,-2,-1,-1,0,-1,0,-1,-2
1513173083027805,0,-1,-1,-1,0,-2,-1,0
1513173083027805,4,0,-2,-3,-1,0,0,1
1513173083041786,-1,-3,0,0,1,-1,-3,-2
1513173083041786,-1,-2,0,-1,-2,-2,-1,-1
1513173083042287,-2,-1,-1,-1,-1,-3,-1,0
1513173083042287,3,0,-5,-2,-2,-2,-1,0
1513173083064325,-6,-3,2,0,-1,-1,-1,-2
1513173083064325,-2,-2,-1,-1,0,0,-1,1
1513173083065317,1,-1,-1,0,-2,-2,0,-2
1513173083065317,-3,-1,0,-2,-1,-1,-1,-3
1513173083086821,2,-2,-2,-1,-2,-2,0,0
1513173083086821,-3,-2,0,0,-1,0,-1,-1
1513173083087818,1,4,-2,-4,-2,-3,-2,-1
1513173083087818,-4,-3,1,-1,1,0,-1,-1
1513173083101356,0,0,-2,-1,-3,-2,-2,0
1513173083101356,-2,-2,1,0,-1,-2,-1,-2
1513173083101838,1,0,-3,-2,-2,0,-2,0
1513173083101838,-1,-2,0,1,0,-1,-2,-1
1513173083124345,0,1,-1,-2,-3,-2,-3,-1
1513173083124345,-2,-2,-1,2,1,-1,-1,-4
1513173083125346,-2,-1,-1,-2,-2,0,-1,-1
