timestamp,emg1,emg2,emg3,emg4,emg5,emg6,emg7,emg8
1517207152848850,-3,-1,-2,0,-1,-2,-1,-2
1517207152848850,0,-1,-1,-1,-1,-1,-1,-1
1517207152850352,-2,0,0,1,0,0,-2,1
1517207152850352,-2,-1,-1,-1,-3,-1,1,-1
1517207152870864,-1,-1,-3,0,-1,1,-2,-1
1517207152870864,0,-1,-2,-2,-1,-1,0,0
1517207152872365,0,-2,-1,-1,-1,-1,1,-1
1517207152872365,-2,-1,-1,1,-2,-1,1,-1
1517207152885376,-1,-1,0,-1,-1,0,-1,-1
1517207152885376,-3,-1,-1,-1,-1,-1,-2,0
1517207152893383,-1,-2,-1,-1,0,-1,-1,-2
1517207152893383,0,0,-2,0,-1,-1,-1,0
1517207152908392,1,0,0,0,-1,-1,1,-1
1517207152908392,-1,-2,-1,-1,0,0,-1,-1
1517207152909899,-1,0,-1,-2,-2,-1,-4,-1
1517207152909899,-1,-1,-2,-2,-2,-1,0,-1
1517207152931411,-2,0,-2,-1,-2,-1,0,-1
1517207152931411,0,0,-4,-2,-2,-1,-1,-1
1517207152932411,-2,-1,-1,-1,-1,-1,-1,-2
1517207152932411,-2,-2,-1,-1,0,-2,-1,-2
1517207152944919,-1,-1,0,0,-1,-3,0,0
1517207152944919,-2,-3,-2,-1,-2,-1,1,-1
1517207152954423,1,1,-1,0,-2,-1,0,-1
1517207152954423,0,-1,-2,-2,0,0,-3,-1
1517207152968434,-1,0,0,-2,-1,-3,-2,-1
1517207152968434,0,0,0,-2,-2,0,-3,-1
1517207152969935,-2,-3,-1,0,-2,-2,0,-2
1517207152969935,-2,-1,-1,-2,0,-2,-1,-3
1517207152991956,-1,-4,0,0,-2,-1,0,0
1517207152991956,-3,0,-2,0,-1,-2,-1,-1
1517207152993454,-1,-1,-2,-3,1,-2,-1,0
1517207152993454,-1,-2,-1,-1,-2,-1,-2,-1
1517207153004463,-1,0,0,0,0,-1,-1,-1
1517207153004463,0,-2,1,-2,-1,0,0,0
1517207153013467,-3,-1,-1,-1,0,0,-1,-1
1517207153013467,-1,-1,0,-1,-2,-1,-2,0
1517207153028477,-1,-2,-1,-3,-1,-1,-1,-1
1517207153028477,-1,-2,0,1,-1,-2,-2,-2
1517207153029979,-1,0,-1,0,-1,-1,0,0
1517207153029979,-1,1,0,-1,-1,-1,0,-1
1517207153051512,-2,-1,-1,-1,-2,-3,-1,-2
1517207153051512,-1,-1,-2,-2,-1,0,-1,-1
1517207153053004,0,-2,-1,-1,-2,-1,-1,0
1517207153053004,0,-2,-2,0,-1,0,-1,-1
1517207153064501,-1,-3,0,-3,0,-2,0,0
1517207153064501,-3,-3,-1,-1,-1,-1,-2,1
1517207153073526,0,-1,-2,0,-1,0,-2,-1
1517207153073526,-3,-1,-2,-1,-1,-1,-1,-1
1517207153088529,-1,-3,-2,-2,-1,0,-1,-1
1517207153088529,-1,-2,0,0,0,-1,0,-2
1517207153090020,-2,-3,0,-2,-2,1,-1,0
1517207153090020,-1,-2,-2,-1,-2,-3,-3,1
1517207153111034,-2,2,-2,-1,-2,0,-1,-2
1517207153111034,-1,1,-1,-1,1,-2,-1,-1
1517207153112537,-1,-1,-2,-1,-2,-1,0,-1
1517207153112537,0,-2,1,-2,-1,-1,0,0
1517207153125092,-2,-2,-2,0,-1,0,-1,1
1517207153125092,-1,-2,-1,-1,-2,-1,-1,-2
1517207153133596,-2,1,-2,-1,-1,-2,-1,-1
1517207153133596,-1,-2,-1,-2,-2,1,-1,-1
1517207153148629,-1,0,-1,0,-1,0,-1,-1
1517207153148629,-1,-1,-1,-1,-1,-2,-1,-1
1517207153150108,0,0,0,-2,0,-2,-1,0
1517207153150108,-1,-1,-1,0,-1,-1,2,0
1517207153171175,0,-1,0,-3,0,-1,-3,1
1517207153171175,-1,0,-1,-1,-2,-2,-1,-1
1517207153172673,-1,-1,-2,-2,0,-2,-1,-1
1517207153172673,-1,-1,-2,0,2,-2,-2,-2
1517207153184713,-2,-1,-2,-1,-1,0,-1,-3
1517207153184713,-1,-1,-2,0,-1,-1,-1,-1
1517207153193706,0,0,-1,-1,-1,-2,-1,0
1517207153193706,0,0,-1,-2,-3,0,-1,-1
1517207153208715,1,-2,0,-1,1,-1,0,1
1517207153208715,-1,-3,-2,-1,-1,-1,0,-1
1517207153210219,-1,-2,-1,0,0,-2,1,0
1517207153210219,0,-1,-1,-2,0,0,1,-1
1517207153230728,0,-1,-2,-2,-1,-2,-2,-2
1517207153230728,-1,-1,-1,-1,-1,-1,0,-1
1517207153232743,-1,-1,-2,-2,0,0,-1,-1
1517207153232743,-2,-1,0,-1,-1,-2,0,-2
1517207153244752,-2,2,-1,1,-2,0,-3,-1
1517207153244752,-1,-3,-3,0,-1,-1,-2,-1
1517207153253766,0,0,-1,-1,0,1,-2,-1
1517207153253766,0,-2,-3,-2,-1,-3,0,0
1517207153268294,-1,-2,-1,-3,0,1,0,0
1517207153268294,-1,1,-1,-2,-2,-1,-1,-2
1517207153270296,-2,-1,0,0,-1,-1,0,-2
1517207153270296,-3,0,-1,-2,-1,-1,-1,-1
1517207153291273,-1,-3,1,1,0,-3,-1,-1
1517207153291273,-2,0,-1,-2,0,0,-3,-1
1517207153292774,0,-2,-1,-3,0,-2,0,0
1517207153292774,-1,-1,-3,0,-2,0,-2,-1
1517207153313299,-1,-2,-1,-1,-3,-2,0,-1
1517207153313299,0,-2,-3,-2,-1,1,0,0
1517207153315301,-2,0,1,0,-1,-1,-2,-1
1517207153315301,-2,0,-2,-1,-1,-1,-1,-1
1517207153328355,1,7,0,-1,-1,1,0,0
1517207153328355,-2,-22,-3,-1,-1,-3,0,-1
1517207153329864,0,1,0,-1,-3,0,-2,-2
1517207153329864,0,0,0,0,-1,-1,0,1
1517207153350870,-1,-5,-2,0,0,-1,1,-1
1517207153350870,-1,5,1,-1,0,0,0,0
1517207153352372,-1,-3,-3,-2,-1,-1,0,0
1517207153352372,-2,-3,0,-2,-1,-3,-1,-1
1517207153373425,-2,0,-1,0,-2,0,-1,-2
1517207153373425,-1,3,0,-1,-2,-1,-2,0
1517207153375395,0,-4,-2,1,-1,0,1,-1
1517207153375395,0,1,1,-1,-2,2,-1,-1
1517207153388400,0,-2,-2,-2,-2,-2,-1,-1
1517207153388400,0,1,-1,-1,-1,-2,1,0
1517207153389898,-1,-3,-2,-1,-2,-1,-2,0
1517207153389898,-1,-3,-1,0,-1,0,2,0
1517207153410920,0,-2,-1,-1,0,0,-2,0
1517207153410920,0,1,-1,-2,0,-1,-2,0
1517207153412417,-1,1,-2,0,-2,-3,-1,-4
1517207153412417,0,0,-2,0,-1,0,-1,-1
1517207153433486,-2,-2,-3,0,-2,-3,-1,-2
1517207153433486,-1,0,0,0,-1,0,-1,-2
1517207153434983,-1,-1,0,-1,-2,1,-2,1
1517207153434983,-1,-1,0,-1,0,0,-2,-2
1517207153448025,-1,-1,0,-1,1,-1,-1,1
1517207153448025,-1,1,-2,0,0,1,-2,0
1517207153454543,-2,-1,0,-2,0,-2,-1,-1
1517207153454543,-2,-2,-1,-2,-1,-2,-1,-1
1517207153471056,-1,-2,-2,-2,-1,0,-1,0
1517207153471056,-1,1,-2,0,-1,0,-1,0
1517207153472559,-1,0,-1,-2,-1,0,-1,-1
1517207153472559,0,0,-2,-1,-1,-1,0,-2
1517207153493560,-1,0,-1,-2,-2,-2,-1,-1
1517207153493560,-2,-1,0,-2,-2,-1,1,0
1517207153495059,-1,-2,-2,-2,-1,-2,0,0
1517207153495059,0,0,0,0,-1,-1,-2,-1
1517207153507569,0,-2,-3,-2,-2,-2,-2,-3
1517207153507569,0,-1,-1,0,-1,-1,-1,-1
1517207153514582,0,-1,-1,-1,0,-1,-1,0
1517207153514582,-1,0,-1,-1,0,-2,-2,1
1517207153531084,-1,-2,-2,-1,-2,-1,-2,-2
1517207153531084,-1,1,-1,-2,0,-1,-2,0
1517207153532584,0,1,-1,-2,-1,0,-2,-2
1517207153532584,0,-3,-1,-2,-2,-1,-1,-1
1517207153553634,-2,-2,0,2,-1,0,0,-1
1517207153553634,-1,-1,-1,-3,-1,-1,-2,0
1517207153555146,-2,-1,-2,-1,1,-1,0,-2
1517207153555146,-2,0,-3,-2,-2,-1,0,1
1517207153567671,1,-1,-2,-3,-1,-1,0,-1
1517207153567671,-1,-1,-1,-1,-2,-2,-1,-1
1517207153574645,-2,-2,-1,-1,-2,-2,-3,-2
1517207153574645,0,-1,-1,-1,-2,-2,-1,-2
1517207153591158,0,-2,-1,-1,0,0,1,-2
1517207153591158,-1,-1,-1,-2,-1,0,1,-2
1517207153592659,0,-1,-2,0,-2,-2,-1,0
1517207153592659,-2,0,-3,-2,-1,-1,-2,-1
1517207153613674,-1,1,0,0,-1,-1,-1,0
1517207153613674,0,0,-1,1,0,0,0,-2
1517207153615174,-2,-2,-1,0,0,0,0,-1
1517207153615174,-2,3,1,0,-2,-1,0,-2
1517207153627683,-1,-1,-1,0,-2,-1,-1,-1
1517207153627683,0,-2,0,-1,-2,-2,-3,-1
1517207153634728,-1,-1,-1,1,0,-1,-1,-1
1517207153634728,-1,-3,-1,-3,-1,0,-1,-1
1517207153651210,-2,-1,-1,-1,1,0,-1,-2
1517207153651210,0,-1,1,-1,-1,0,-2,-1
1517207153652723,-1,1,-2,-3,-2,-2,-1,0
1517207153652723,0,-2,-2,0,-1,-2,-2,0
1517207153673241,-3,0,0,-1,-1,0,-1,-1
1517207153673241,0,0,-1,-1,0,-1,-1,-1
1517207153675219,-4,0,-1,-1,-2,-2,-1,-1
1517207153675219,-1,1,0,-2,-1,-1,0,-2
1517207153688226,-1,-2,-2,-1,-1,-3,-2,-1
1517207153688226,0,-3,-1,-1,-1,-2,-1,1
1517207153694731,0,-1,-3,-2,-2,0,0,-1
1517207153694731,-2,-1,-1,-1,-1,1,-1,-2
1517207153711244,0,-3,1,-1,1,0,-3,2
1517207153711244,-2,0,-2,-2,-1,-2,0,-2
1517207153712745,-1,-1,0,-1,0,-2,-2,0
1517207153712745,-2,-2,-2,-2,-1,-1,0,0
1517207153733774,1,1,-2,-1,-2,-1,1,1
1517207153733774,-1,0,-1,-1,-2,-2,-1,1
1517207153735298,0,-1,1,0,-2,0,-1,-1
1517207153735298,-1,-2,-1,-2,-1,-1,-3,-3
1517207153748269,-1,1,0,-1,-2,0,-1,-1
1517207153748269,-1,-1,0,-1,-1,-1,-1,-1
1517207153754787,0,0,0,-1,0,0,-2,0
1517207153754787,-2,0,0,0,-1,-2,1,0
1517207153770845,-1,-2,-3,0,-1,-1,-1,-3
1517207153770845,1,-2,0,-3,-1,0,0,-1
1517207153772801,-1,-3,-1,-1,-1,-2,-2,-1
1517207153772801,0,2,-1,-1,-1,-1,-2,0
1517207153793310,-1,-1,-2,1,-1,-1,1,-1
1517207153793310,-3,1,-2,0,-1,-1,-3,-2
1517207153795302,-1,-1,0,-1,-2,-2,0,0
1517207153795302,0,-3,0,-2,-2,-1,0,-1
1517207153807311,-2,-2,-1,-2,-2,-1,-1,1
1517207153807311,1,-2,-4,-2,-1,-1,-1,-1
1517207153816326,-1,-2,-1,0,-1,-2,-2,-1
1517207153816326,-1,-2,-2,0,-1,0,-2,0
1517207153830837,0,-1,0,-1,-1,-1,-1,-1
1517207153830837,-2,-1,-1,2,-1,-1,-1,-1
1517207153832841,0,0,-2,-1,-2,-1,1,-2
1517207153832841,1,-1,-2,-1,-1,-2,-1,0
1517207153853346,-2,-1,-1,-3,0,-2,-1,-1
1517207153853346,-2,-1,0,0,-2,-1,1,-1
1517207153855344,-1,0,0,-1,-1,0,0,-1
1517207153855344,-1,-1,-1,-1,-2,-1,-1,0
1517207153867363,1,0,-1,-1,-2,-2,0,-1
1517207153867363,-1,0,-1,-2,-1,-3,-3,-1
1517207153882366,-3,-1,-1,-2,-1,-1,-1,0
1517207153882366,-1,-2,-1,-1,0,-3,1,-2
1517207153891369,0,-2,0,-1,-1,-2,-2,-1
1517207153891369,-2,-1,0,-2,-2,-1,1,0
1517207153892873,-1,-3,-2,-1,-1,0,-2,-1
1517207153892873,-1,2,-1,-2,-1,0,-1,0
1517207153913398,-1,-2,-3,-1,-2,-1,-2,-1
1517207153913398,-1,0,0,0,0,0,-1,-1
1517207153914886,0,-2,-1,-1,-2,-2,0,-2
1517207153914886,-1,-3,-2,-1,-1,0,-1,1
1517207153927395,0,-1,-1,0,-2,0,0,-1
1517207153927395,0,-1,-1,-2,-1,-2,-1,1
1517207153935902,-3,-1,0,-2,0,0,0,-2
1517207153935902,-2,-2,-1,-1,-2,-1,0,-3
1517207153950926,-2,-1,-1,-1,-2,-1,-1,-2
1517207153950926,-1,-1,-3,-1,-2,-1,-2,-2
1517207153952413,-2,1,-2,0,-1,-1,-3,-1
1517207153952413,-1,0,-1,-1,-2,-3,0,0
1517207153973431,-1,-2,-1,1,0,-3,-1,-1
1517207153973431,-2,0,-3,0,-2,-1,-1,-2
1517207153974929,0,0,-1,-1,0,-1,0,-1
1517207153974929,-1,-2,-1,-1,-1,1,-1,-1
1517207153987001,-2,1,-1,-1,0,-1,-1,0
1517207153987001,-1,-1,-1,1,-1,-1,0,-1
1517207153995945,-1,-2,-2,0,-1,-3,-1,0
1517207153995945,-1,-2,-1,-1,2,-2,0,-1
1517207154010955,-1,-1,-1,-2,-1,-1,-1,-1
1517207154010955,-2,-2,-1,-2,-1,1,-2,0
1517207154012456,-2,-4,-1,-1,-1,0,0,0
1517207154012456,0,1,1,-2,-2,-1,-1,0
1517207154033470,-1,-1,-1,-1,-2,-1,-1,-1
1517207154033470,-1,0,0,-1,-2,-2,1,-1
1517207154034972,-2,-2,0,0,-1,0,-2,0
1517207154034972,0,-2,-3,0,0,-3,-1,-1
1517207154046984,-3,-2,-1,-1,0,1,-1,0
1517207154046984,-2,0,-2,-2,-2,0,-2,-2
1517207154055986,-1,1,-2,-1,-1,-1,0,-1
1517207154055986,0,0,-3,0,-2,-1,-1,-1
1517207154070997,-2,-1,-2,-1,-1,-1,-2,-1
1517207154070997,0,-1,-2,0,0,-2,-1,1
1517207154072498,0,-2,-1,-2,0,-1,-1,-1
1517207154072498,-2,-3,0,-2,-1,0,-1,-1
1517207154093541,-2,-1,-2,0,-2,-1,0,-1
1517207154093541,0,-3,-1,-1,-1,-1,-1,-1
1517207154095013,-3,-1,0,0,-1,-1,-1,-1
1517207154095013,-2,0,-2,0,-1,-1,0,-1
1517207154107022,0,-1,-1,-1,-1,-1,-1,-1
1517207154107022,0,0,-1,-3,-1,-2,0,-3
1517207154116029,-1,1,-1,-1,-1,-2,0,0
1517207154116029,0,-2,-1,-1,0,-2,0,1
1517207154131039,-1,-1,0,-2,-2,-2,-1,-1
1517207154131039,-2,-1,0,0,-1,0,0,-1
1517207154132539,-1,-2,0,0,-1,0,0,-1
1517207154132539,-4,-2,-2,-1,-1,1,0,-2
1517207154153571,-1,3,-1,-1,-1,-3,0,-2
1517207154153571,0,-1,-2,-1,1,0,0,0
1517207154155079,-1,0,-1,0,-1,0,-2,-1
1517207154155079,-1,-1,0,-1,-1,-1,-2,-1
1517207154167074,-1,-1,-1,-1,-2,0,-4,0
1517207154167074,-3,-1,-2,-1,-1,-1,-1,-2
1517207154176071,-1,-2,-2,-1,0,-1,-1,-1
1517207154176071,-1,-1,0,-2,-2,-1,0,-1
1517207154191082,1,-2,-1,-2,-2,-1,0,1
1517207154191082,0,0,0,-1,-2,-1,-2,-1
1517207154192582,-1,-1,-2,0,-1,-2,0,0
1517207154192582,-2,-1,-1,0,-1,-2,-4,-2
1517207154213608,-2,-1,0,-1,-1,0,1,-2
1517207154213608,-1,-2,0,-1,-1,-2,-1,-1
1517207154215098,-2,0,0,-1,-2,-2,-2,-1
1517207154215098,0,-2,-1,-2,-1,-1,-2,0
1517207154235127,-3,-2,-1,-1,-1,0,-1,-1
1517207154235127,-2,-2,-1,0,-1,0,-1,-1
1517207154243619,0,-1,-2,-1,0,-1,-2,0
1517207154243619,-1,-2,1,-1,-1,-1,0,-1
1517207154251139,-1,-1,-2,-2,-1,-1,-1,0
1517207154251139,-2,0,0,-1,0,1,0,-2
1517207154252641,-2,-1,-2,-2,-2,-1,-1,-1
1517207154252641,-1,-1,-2,-1,1,1,-2,-1
1517207154273639,-1,-1,-3,-2,0,-1,-1,0
1517207154273639,-3,-2,-1,0,0,0,-1,0
1517207154275160,-1,-3,-1,-1,-3,-1,-1,0
1517207154275160,0,2,0,-2,-1,-2,-1,-1
1517207154296157,-1,-2,-1,-1,-1,0,0,-1
1517207154296157,-1,1,-2,-2,0,-1,-2,-1
1517207154297657,-2,-2,-1,-1,-1,-3,-2,-2
1517207154297657,-4,-1,-3,-1,-2,-1,0,-1
1517207154311166,0,-2,-2,1,0,-1,-2,-2
1517207154311166,-1,-3,-1,0,-2,-2,0,-1
1517207154312679,-1,1,-1,-1,-2,1,0,-2
1517207154312679,-1,0,-1,0,-1,-2,1,-1
1517207154333682,0,-1,-1,-1,-2,-2,-2,0
1517207154333682,0,-1,-2,-1,0,-1,0,-1
1517207154335183,2,-1,-2,0,0,1,-1,-2
1517207154335183,-2,0,0,-2,-1,-3,-2,-1
1517207154356208,-3,0,-3,0,0,-1,-2,-1
1517207154356208,-1,-1,-2,0,-2,-1,-1,0
1517207154357700,-1,-1,-2,-1,0,0,1,-1
1517207154357700,0,-2,-2,-2,-2,1,-1,-1
1517207154371209,0,-2,-1,-1,-1,1,-1,-1
1517207154371209,-1,0,-1,-1,-1,-1,-2,-3
1517207154372720,-2,-1,-1,-1,0,-1,0,-1
1517207154372720,-2,-1,-1,-2,-2,-2,-3,-2
1517207154393225,0,-2,0,0,-1,-1,-2,-1
1517207154393225,0,-1,0,-2,-3,-1,0,-1
1517207154399730,-1,-1,0,-1,-1,1,-1,0
1517207154399730,0,-1,-2,0,-2,0,0,-1
1517207154415753,0,-2,-1,-1,-1,-2,-1,-1
1517207154415753,-1,0,0,-1,-1,0,-1,-2
1517207154417781,0,-2,-2,-2,-1,-2,-1,0
1517207154417781,0,-1,-2,0,0,-1,1,1
1517207154430751,-1,1,-1,-2,-1,0,-2,-1
1517207154430751,0,-2,-3,-1,-1,-1,-1,1
1517207154437265,0,-2,0,-1,0,-2,-1,-3
1517207154437265,0,-1,0,0,-1,-1,-1,0
1517207154453270,-2,2,0,-2,-1,-2,0,-2
1517207154453270,-1,-1,0,-2,0,-2,-1,0
1517207154455271,-2,-1,-3,-1,-1,-2,0,-2
1517207154455271,-1,-2,0,-1,-1,0,-1,-1
1517207154476285,-1,-2,-2,-1,-1,-1,-1,-2
1517207154476285,-1,-1,-1,-2,0,-2,-2,0
1517207154477784,-1,0,-1,-1,-1,-1,-1,0
1517207154477784,-1,-1,-2,0,-1,0,-3,-1
1517207154490371,-1,-1,-1,-1,-1,-1,-1,-1
1517207154490371,-1,0,-1,-1,0,2,-1,-2
1517207154497355,1,-1,-2,-2,-1,-2,-2,-1
1517207154497355,-2,-1,-1,-1,-2,-1,0,-2
1517207154513366,0,-3,-1,-2,0,0,-1,0
1517207154513366,-1,-1,-1,-1,-2,-1,-2,-1
1517207154514867,1,-1,2,0,-1,1,-1,-2
1517207154514867,-1,0,-1,-2,0,1,-1,-2
1517207154535916,0,-1,-1,-2,-3,0,-2,0
1517207154535916,-2,-2,-1,0,-1,-1,0,-2
1517207154537417,-2,-2,-1,0,-1,-1,-1,0
1517207154537417,0,0,-1,-1,0,-1,-1,-1
1517207154550407,-1,-1,-1,-2,0,-2,0,-1
1517207154550407,2,-1,-2,0,-2,0,-1,1
1517207154556932,-1,-2,-1,-3,-2,-1,-1,-1
1517207154556932,-1,-1,-1,-1,-2,-2,-1,-1
1517207154573464,-1,0,-1,-1,-1,0,0,-1
1517207154573464,0,0,-2,-1,-1,-2,-1,-2
1517207154574947,-1,-3,-1,1,-1,-2,-2,-1
1517207154574947,0,-2,-1,-1,-3,-1,-2,1
1517207154595961,0,-2,-3,-1,0,-1,0,0
1517207154595961,-1,0,-1,-1,1,-3,-1,-1
1517207154597466,-2,-2,-2,-2,-1,0,-1,-1
1517207154597466,0,1,0,0,-1,-1,0,-1
1517207154610472,-2,-2,0,1,-1,-1,-1,-2
1517207154610472,-2,-1,0,-1,-1,-1,0,-1
1517207154616983,-1,1,0,-1,-2,-2,-2,0
1517207154616983,1,-2,-1,-2,0,0,-1,-2
1517207154633509,-2,-1,-3,-2,0,-1,-1,0
1517207154633509,0,-1,-1,-2,-1,-1,-2,-1
1517207154635010,-1,1,0,-1,-1,-1,-1,-1
1517207154635010,-2,-1,-1,-3,-2,-3,-2,-1
1517207154656038,-2,-1,2,-3,-2,-2,-1,-3
1517207154656038,-2,-2,-2,-2,0,-1,-1,0
1517207154657503,-1,-1,-2,-2,-1,0,1,-1
1517207154657503,-2,0,-2,0,0,0,-1,-1
1517207154670038,0,-1,-3,-1,1,-1,-2,-2
1517207154670038,1,-1,-1,0,-1,0,-2,-1
1517207154677519,0,-2,-2,-1,-1,-1,-2,1
1517207154677519,-1,-3,-3,0,-1,0,-1,0
1517207154693539,-1,-1,0,-1,-1,-1,-1,0
1517207154693539,-2,-1,-1,-1,-1,-1,-1,-2
1517207154695048,-1,-2,-2,-2,-2,-2,-2,-2
1517207154695048,-1,-3,-2,-3,-1,0,0,0
1517207154716045,0,-1,-3,1,0,0,-2,0
1517207154716045,-2,-2,-1,-1,-1,-1,0,0
1517207154717546,0,-1,0,-2,-1,0,0,1
1517207154717546,-1,0,-1,0,-1,-2,-2,-1
1517207154729553,-1,-2,-1,-1,-2,-1,0,-2
1517207154729553,-1,-1,-1,0,0,-1,-1,-2
1517207154746066,-2,-1,-1,-2,-1,-1,-1,-2
1517207154746066,-1,-2,0,-1,-1,0,-1,-2
1517207154753627,0,0,0,0,-2,-1,-3,-1
1517207154753627,-1,-1,-1,-3,-1,-1,-1,-1
1517207154755094,-1,-1,0,-1,-1,-3,-3,0
1517207154755094,-1,-1,-1,-1,-2,-2,-1,-1
1517207154776086,1,-1,-1,-1,-1,-1,1,0
1517207154776086,0,0,-2,0,-1,-1,-2,-2
1517207154777590,-2,0,-2,-1,0,0,-2,-1
1517207154777590,0,-1,0,-1,-1,0,-1,-1
1517207154799103,-1,-1,0,-2,-3,-1,-1,-1
1517207154799103,-2,-1,0,1,-1,-2,-1,-2
1517207154800605,-2,0,-2,-2,-1,0,-1,0
1517207154800605,0,0,-2,-1,-1,-2,-3,-1
1517207154813622,-2,0,-2,0,-1,-4,-1,1
1517207154813622,-1,-2,-2,-3,0,-1,-2,-1
1517207154815124,1,0,-2,1,-1,-1,-2,-1
1517207154815124,-2,-2,0,-2,0,0,0,-2
1517207154836159,-2,-2,-1,-1,-1,0,0,-1
1517207154836159,1,-1,-2,-2,-1,-1,0,1
1517207154837662,-2,-2,-2,-1,-1,-2,-2,-1
1517207154837662,0,-1,1,-1,-1,-1,-1,-1
1517207154849658,-2,0,-2,0,-2,-1,-1,-1
1517207154849658,0,-1,-1,-2,-1,-1,-1,-1
1517207154858661,1,0,-2,0,-1,-3,-1,-1
1517207154858661,-2,0,-2,0,-1,-2,0,-1
1517207154873687,-1,-2,-1,-2,-1,-1,-2,-1
1517207154873687,-1,0,0,-1,-2,0,0,0
1517207154875191,0,-1,-1,1,0,0,0,-2
1517207154875191,0,-2,-3,0,-2,-1,-1,-2
1517207154896188,-1,-1,-1,-2,-1,-1,0,-2
1517207154896188,-1,-1,-1,-1,-1,-1,0,1
1517207154897688,-1,-2,-1,-1,-1,0,0,0
1517207154897688,-3,0,-1,0,-1,-1,-1,-1
1517207154909698,0,0,-1,0,0,0,0,-3
1517207154909698,-1,-2,-1,-3,-3,-2,-1,-2
1517207154918704,-2,-2,-2,-2,-1,-1,-1,-1
1517207154918704,-2,-1,-1,-2,-1,-1,-1,-1
1517207154932723,0,-1,-2,0,-1,-1,-1,0
1517207154932723,-1,0,0,0,0,0,-3,-1
1517207154941229,-1,-1,-2,0,0,-2,0,-2
1517207154941229,0,-1,-2,0,-1,-1,0,0
1517207154955733,-1,-3,-1,-1,-1,-1,0,1
1517207154955733,-1,-1,0,1,-1,0,0,-1
1517207154957731,1,-1,-1,-1,-2,-2,-1,-1
1517207154957731,0,-1,0,-1,-1,-1,-1,0
1517207154969251,-3,-1,-2,-2,-1,-2,0,-1
1517207154969251,-2,-1,-2,0,0,-1,0,-1
1517207154978747,-3,-1,-1,-2,1,-1,-2,-1
1517207154978747,-2,0,0,-2,-1,-1,-1,-2
1517207154993273,-2,-1,-1,0,0,-1,0,0
1517207154993273,0,-3,-2,-1,-2,-2,-1,0
1517207154994761,-1,-1,-1,-2,-1,-1,0,0
1517207154994761,0,-2,-1,-1,-1,-2,0,-2
1517207155015781,-2,0,0,0,0,0,-1,-2
1517207155015781,0,0,0,0,0,1,-2,-1
1517207155017274,-1,-2,0,-1,-3,-3,0,0
1517207155017274,0,-2,-1,-1,0,-1,-1,-1
1517207155029282,0,-1,-1,-1,-1,-2,-3,-1
1517207155029282,-1,1,-1,0,-1,-2,-1,-3
1517207155038804,-1,0,0,-1,0,-2,-2,-2
1517207155038804,-3,-1,-2,-1,-1,-1,-1,-1
1517207155053321,-1,-1,0,-2,-2,-2,-1,-1
1517207155053321,-1,-1,-1,-3,-1,-1,-1,-2
1517207155054801,-2,-1,-1,-2,-3,-1,-1,-1
1517207155054801,-3,1,-1,0,-1,-1,0,1
1517207155076333,-1,-1,0,-1,0,0,1,-1
1517207155076333,0,-1,-2,-2,0,-2,0,-2
1517207155077818,-1,-1,-1,-1,-1,0,-1,0
1517207155077818,0,-2,-1,-1,-2,-3,-2,-3
1517207155089825,-2,0,-2,-1,0,-2,-2,-1
1517207155089825,-1,0,-1,-1,-3,-2,0,-1
1517207155098845,-1,-1,0,-2,0,-1,-1,-1
1517207155098845,-1,-2,-1,-1,-1,-1,-2,-1
1517207155113344,-1,-1,-2,0,0,0,1,-2
1517207155113344,-2,0,0,-1,-1,1,0,2
1517207155114842,0,0,-2,1,0,-2,0,-3
1517207155114842,0,-2,0,0,-1,-1,0,-1
1517207155135879,-1,-1,0,-1,-1,-1,-2,-1
1517207155135879,0,-3,-1,1,-1,1,0,-1
1517207155137358,-1,-3,-1,-2,-1,-2,-1,-1
1517207155137358,-1,0,-1,-3,0,0,-1,-1
1517207155149417,0,-2,-1,-2,-2,-1,-2,-2
1517207155149417,-2,1,0,-2,-2,-2,-1,2
1517207155158486,0,1,0,0,-1,-1,-1,0
1517207155158486,-2,-1,-1,-1,-1,-1,0,-1
1517207155172998,0,-2,-1,-1,0,0,-2,-4
1517207155172998,-3,0,0,-2,-1,-1,-1,-2
1517207155179500,0,-1,0,-1,-4,-3,-1,-2
1517207155179500,-1,-1,-1,-2,1,-1,-1,0
1517207155196015,-1,0,-2,-1,0,-1,-3,-1
1517207155196015,-1,-2,-1,-1,1,0,-1,0
1517207155197512,-1,-3,-1,0,-1,-1,-1,-1
1517207155197512,-1,0,0,0,-3,-2,-1,-2
1517207155218575,0,-1,0,-2,-2,-1,-1,0
1517207155218575,-1,1,-3,-1,-2,-1,-1,0
1517207155220089,-1,-1,-1,-1,-1,-1,0,0
1517207155220089,0,0,-1,-2,1,-1,-1,-1
1517207155233586,-1,-2,-2,0,-1,-1,-2,-1
1517207155233586,0,-2,-2,-2,1,-2,-2,-1
1517207155235101,-1,-2,-1,-1,0,1,-2,1
1517207155235101,-1,-3,-1,1,-2,-1,-1,-1
1517207155256127,0,-1,0,-1,-2,-2,-1,0
1517207155256127,-1,0,1,-2,-1,-1,-1,-2
1517207155257603,-1,0,-1,0,0,0,1,-2
1517207155257603,-1,-1,-2,0,-1,0,-2,-1
1517207155278116,0,-1,-2,-2,-1,0,-1,0
1517207155278116,-2,-2,-2,-1,-3,-2,-1,-1
1517207155280120,-1,-2,0,-2,-1,-1,-1,-1
1517207155280120,1,-1,-2,-1,-1,-3,-1,-1
1517207155293627,-3,-1,-3,0,-1,-1,0,0
1517207155293627,-2,-2,-3,-1,-1,-1,0,-2
1517207155295130,-1,0,-2,-2,-1,-1,-1,-1
1517207155295130,-1,-1,-2,0,-2,-3,-2,-2
1517207155316145,-2,-1,-2,0,-2,-1,-1,-2
1517207155316145,-1,-2,0,-1,-3,-1,-1,0
1517207155317644,-1,-1,-1,-1,-2,-2,-1,-1
1517207155317644,-1,-1,-1,-2,0,1,-1,-1
1517207155338175,-1,0,-1,-2,-2,-3,0,0
1517207155338175,0,-1,0,-1,-2,-1,0,-1
1517207155340167,1,-2,-1,-2,-1,-1,-1,-1
1517207155340167,-1,-3,-1,-2,0,-2,-1,0
1517207155352685,-1,0,-1,-1,-1,0,-2,-3
1517207155352685,-2,-1,-1,-1,0,-1,-1,-1
1517207155359678,-1,-1,-2,-1,-1,-1,-1,-3
1517207155359678,-2,-1,0,0,-1,0,-1,-1
1517207155376188,0,0,-1,-1,-2,0,-1,0
1517207155376188,-3,-1,-1,0,-1,0,-1,-1
1517207155377688,-2,-1,-2,-1,0,0,-1,0
1517207155377688,-1,0,-1,0,-2,0,-2,0
1517207155398706,-1,0,-1,-1,-1,0,1,-1
1517207155398706,0,-2,-2,0,-2,-2,-1,-1
1517207155400208,-3,0,-1,-1,-1,0,-1,-2
1517207155400208,0,0,0,-3,-1,-1,0,0
1517207155412714,-2,0,0,-2,-1,-1,-2,-1
1517207155412714,-1,-1,-2,-1,-2,-1,-2,0
1517207155419718,-1,0,-1,1,-2,-1,-1,-2
1517207155419718,-1,-2,-2,-1,-1,-2,-2,-1
1517207155436229,-1,-1,-2,-1,-1,0,1,0
1517207155436229,0,-2,0,-2,0,0,-3,-1
1517207155437230,-2,-2,-3,0,-1,-1,-1,0
1517207155437230,0,-1,0,0,-2,-1,-1,-1
1517207155458254,-1,-3,0,-1,0,-2,-1,-2
1517207155458254,-1,1,2,-1,-1,-2,0,0
1517207155460250,-1,-1,-2,-3,-1,-2,0,0
1517207155460250,-1,0,-2,0,0,0,-2,-1
1517207155472790,-2,-1,-2,-1,0,-1,-2,0
1517207155472790,-1,0,-1,0,0,-2,-2,-1
1517207155479273,0,-1,0,-1,-1,-2,-2,0
1517207155479273,-1,-3,-4,-2,0,0,0,0
1517207155495771,-1,-2,-2,-1,-1,-1,-1,-1
1517207155495771,-1,0,0,-1,-1,-1,0,-2
1517207155497273,0,-1,0,-1,1,0,1,-1
1517207155497273,-1,0,1,-1,-2,0,0,-3
1517207155518299,-1,0,0,-1,0,1,-1,0
1517207155518299,-1,-2,-2,-2,-2,-1,-2,-2
1517207155520290,-3,-2,0,1,-1,-2,-1,-1
1517207155520290,-1,0,-1,-1,-1,-4,-1,-1
1517207155532809,-2,0,-1,0,-2,-3,-1,-2
1517207155532809,-1,0,-3,-1,0,-2,-1,-1
1517207155546947,-1,-1,0,-2,-3,-1,-1,-1
1517207155546947,-2,-1,-2,-3,0,0,-2,0
1517207155555954,1,-2,0,-1,-2,-1,-2,-2
1517207155555954,-1,-1,0,-1,1,0,0,-1
1517207155557455,-2,0,-3,0,-3,-1,-3,-2
1517207155557455,1,-1,-3,-1,-2,-1,0,1
1517207155578479,1,-2,-1,-1,-1,-2,-1,-2
1517207155578479,-1,-1,-1,0,-1,-1,-2,-1
1517207155579985,-1,-2,0,-3,1,-1,-1,-1
1517207155579985,-1,-1,-1,0,-2,-1,-1,-1
1517207155592982,-1,0,-1,0,1,-1,-1,-1
1517207155592982,0,-1,-2,-2,-1,-1,1,-2
1517207155599485,0,0,-2,-1,-1,-1,1,-2
1517207155599485,-2,-2,-1,-2,-1,-1,0,-1
1517207155615005,-3,-2,-1,0,0,0,0,-1
1517207155615005,-3,0,0,0,1,1,-1,1
1517207155623549,-2,-2,-2,-1,-1,-1,-1,-2
1517207155623549,-1,-2,-1,0,0,-1,-1,-1
1517207155638545,0,-1,-5,-2,-1,-2,1,0
1517207155638545,0,1,2,-1,-2,-1,-2,-1
1517207155640054,0,0,0,-1,-3,-1,-2,-1
1517207155640054,-3,0,-1,0,-1,-1,-2,0
1517207155661058,-1,-2,0,-1,-2,-1,-1,-1
1517207155661058,0,-3,-4,-1,-3,-1,-1,0
1517207155662561,-1,-1,-1,-2,0,0,-1,1
1517207155662561,-2,-2,2,0,-2,-2,-2,0
1517207155676126,0,-1,-2,-1,-2,0,-2,-2
1517207155676126,0,-1,-1,0,-1,-2,-2,-1
1517207155677629,1,-2,0,0,-1,-1,-1,-3
1517207155677629,-2,0,-1,1,-1,-1,-1,-1
1517207155698165,-3,-2,0,-4,-1,-2,-1,-1
1517207155698165,-3,-2,-2,-1,0,-1,-1,-1
1517207155700156,-1,-1,-2,-1,-1,-1,0,0
1517207155700156,0,0,-1,-2,0,-1,0,-1
1517207155712166,0,-2,-2,1,-2,-3,-1,-1
1517207155712166,-1,-2,-1,-2,-1,0,0,-2
1517207155721174,-1,-1,-2,-2,0,-1,-2,1
1517207155721174,0,0,-1,0,-2,-1,-2,-1
1517207155735680,2,0,0,-2,-1,-1,-3,1
1517207155735680,1,-2,-1,-1,-2,-1,-2,-1
1517207155737361,0,0,0,-1,0,-2,-1,-1
1517207155737361,-2,-2,-1,-1,-1,0,-1,-3
1517207155758378,-2,-2,0,0,1,-1,-1,-1
1517207155758378,-1,-1,-1,0,1,-2,0,-1
1517207155759878,-3,-2,-2,-2,-2,0,1,0
1517207155759878,0,-1,-3,0,-1,-2,-1,-1
1517207155771941,-1,2,0,0,-1,0,-1,-2
1517207155771941,-1,-1,-2,-2,-2,-2,-1,0
1517207155780892,-2,-1,-1,-2,-1,-1,-2,-1
1517207155780892,0,-3,-2,-4,-1,-2,-1,0
1517207155795918,-1,-2,-2,-1,-3,-1,-2,-2
1517207155795918,0,-1,-1,-2,-3,-2,-2,-1
1517207155797405,-3,-1,-2,-1,-1,-3,0,-1
1517207155797405,-2,0,0,-2,-4,0,1,-1
1517207155818478,-2,0,-1,-1,-1,-1,-1,-1
1517207155818478,0,-1,-1,-4,0,-2,-1,-1
1517207155819920,-2,0,-1,-2,0,0,-2,-3
1517207155819920,1,-1,-1,-3,-2,0,-1,-1
1517207155831929,-2,0,-1,-1,-1,-1,-2,-1
1517207155831929,-1,-1,-2,0,-2,-1,-1,-1
1517207155840935,-1,-1,0,0,-1,-2,-1,0
1517207155840935,0,-2,-2,-1,0,-1,0,-1
1517207155855986,-2,0,-1,-1,0,0,-2,-1
1517207155855986,-1,-2,-2,-1,-1,-1,-2,0
1517207155857478,1,2,-2,-1,-1,-2,0,-1
1517207155857478,-1,0,0,-1,-1,0,-1,-1
1517207155878493,-1,-3,-2,-1,0,-1,0,0
1517207155878493,0,-2,-2,-2,-1,-1,-1,0
1517207155879994,-1,-4,0,-1,-2,-1,-1,-1
1517207155879994,0,0,-2,-2,0,-3,-2,-2
1517207155892504,0,-1,0,-2,-1,-1,0,-1
1517207155892504,-2,1,0,-1,-1,-1,-1,-1
1517207155901009,-2,0,-1,-1,0,-2,-2,0
1517207155901009,0,0,-1,-1,-1,-1,-1,0
1517207155916044,-1,0,-1,1,-2,-1,-2,-2
1517207155916044,-2,-1,0,0,-1,-2,-1,-1
1517207155917546,0,-1,-1,-3,-1,-3,0,-1
1517207155917546,-3,-1,-1,0,-2,-1,0,0
1517207155939088,-1,-1,0,0,0,0,0,0
1517207155939088,0,0,-2,-2,0,0,0,-1
1517207155940586,-2,-1,-1,0,-1,-1,-1,0
1517207155940586,-2,-4,-1,0,-1,-2,-1,-2
1517207155952070,-1,-1,0,-2,-1,-1,-2,-1
1517207155952070,-3,-1,-1,0,0,-1,-1,-2
1517207155961077,-1,-1,0,-1,-1,1,0,-1
1517207155961077,0,-1,-1,-1,-2,-1,0,0
1517207155975086,-1,0,-2,-1,-2,-1,0,0
1517207155975086,-2,-2,0,-1,-2,0,0,-1
1517207155976088,-1,-2,-1,-1,-2,-1,-1,1
1517207155976088,-3,1,-1,-3,-1,0,-2,-1
1517207155997613,-1,-2,0,0,-2,-1,-1,-1
1517207155997613,0,-2,-1,-2,-1,0,-1,1
1517207155998611,-2,-2,-1,-1,0,0,0,-1
1517207155998611,-2,-1,-2,-1,-1,-1,-1,-3
1517207156020118,-1,-2,-1,-2,-1,-3,0,0
1517207156020118,-2,0,-1,-1,-1,-1,-2,-1
1517207156021128,0,-1,-2,1,-1,-1,-2,0
1517207156021128,-2,-2,-1,1,-1,0,-2,-1
1517207156035159,-2,0,-1,-1,0,-1,-1,0
1517207156035159,-2,-1,-2,-1,0,-1,0,0
1517207156036158,-1,-3,-1,-2,0,-1,-1,-1
1517207156036158,-2,-1,-1,-2,0,-3,-1,0
1517207156057673,0,-2,0,-3,-1,-2,-1,-2
1517207156057673,0,0,0,-1,-2,-1,0,-2
1517207156065185,0,0,-1,-1,-1,0,-2,-1
1517207156065185,0,-3,-1,-1,-1,-1,-1,-1
1517207156080188,-1,-1,-2,0,-2,0,-1,-1
1517207156080188,-2,0,-2,0,0,-1,-2,-1
1517207156081189,-2,-2,-2,-1,0,-1,-2,-3
1517207156081189,-2,0,-2,-1,-1,-2,0,-2
1517207156095200,1,0,-2,-1,0,-2,-1,-1
1517207156095200,-2,-1,-2,-2,-2,-2,-1,0
1517207156096200,0,-1,0,-1,-1,-2,-1,-1
1517207156096200,-1,-3,-1,-1,-1,0,-1,-1
1517207156117756,0,-2,-1,0,1,-1,1,-2
1517207156117756,-1,-2,-1,-1,-1,2,-1,0
1517207156118257,-3,-1,1,-1,-1,-3,-1,1
1517207156118257,0,0,-2,-1,-1,-2,-2,-1
1517207156140289,-1,0,-1,-1,-1,0,-1,1
1517207156140289,-1,-2,0,-1,-1,-1,-2,1
1517207156140773,-2,-1,0,0,-1,0,0,-1
1517207156140773,-1,-2,-1,-1,-2,1,-1,-1
1517207156155298,-1,0,-1,0,0,-1,-1,0
1517207156155298,-1,-2,-1,-1,-1,-1,0,-3
1517207156155784,-1,1,0,-1,0,-2,0,-1
1517207156155784,-2,0,0,0,-1,-1,0,-2
1517207156177799,-1,-1,-1,0,-3,-1,-1,0
1517207156177799,-2,-1,0,-1,-1,-2,-2,-1
1517207156185304,0,-2,-2,-1,-2,-1,0,-1
1517207156185304,-1,-2,-1,-2,-1,0,0,-2
1517207156200353,0,-2,0,-2,-2,0,-2,-1
1517207156200353,1,0,-1,-2,0,0,0,-2
1517207156200816,0,-2,-1,-2,0,-1,-1,-1
1517207156200816,-2,0,1,-1,-1,-1,-1,1
1517207156215324,-2,-2,-2,-1,-1,0,1,-1
1517207156215324,-2,-2,-1,0,-2,-1,-2,-2
1517207156215843,1,-1,0,-1,-1,-1,-2,-1
1517207156215843,1,-2,-2,-1,-1,-2,0,-1
1517207156237857,-1,0,-2,-3,0,-1,-1,-1
1517207156237857,-3,-2,0,-1,0,-1,-1,0
1517207156238342,-1,-1,-2,0,-1,0,-1,-1
1517207156238342,-1,0,-1,-2,-1,-1,-1,0
1517207156260368,0,-1,-2,-1,-1,-2,-1,-3
1517207156260368,0,0,0,-1,0,-1,-1,-1
1517207156260858,-1,0,-2,0,-1,-1,-1,-1
1517207156260858,0,-1,-1,0,0,-1,-2,0
1517207156275377,0,-3,0,-2,-2,-1,-2,0
1517207156275377,1,-3,-1,-1,0,-1,-1,-1
1517207156275870,-1,-3,0,-1,-1,-2,-1,-2
1517207156275870,-2,-1,-1,0,-1,-2,-2,-1
1517207156297384,-1,-1,-1,-1,0,-1,-2,-1
1517207156297384,0,-1,-2,0,-1,-2,0,-1
1517207156298384,-2,-1,0,-1,-3,0,-2,0
1517207156298384,-1,-1,-2,-1,0,0,0,-1
1517207156319900,-1,1,0,0,0,-2,-1,-1
1517207156319900,-1,-2,0,-2,-1,-1,-2,-1
1517207156320900,-1,1,-1,-2,1,-2,-2,-1
1517207156320900,-1,0,-3,-1,1,-1,-1,-2
1517207156334913,-1,-2,-1,0,-1,-2,0,-2
1517207156334913,0,0,-1,1,-2,-1,-1,0
1517207156335910,-2,-3,-2,-2,0,1,0,-1
1517207156335910,-1,-2,-1,-1,-1,-2,-1,-2
1517207156357927,1,-1,-3,-1,-1,-1,-1,-1
1517207156357927,-1,0,0,-1,-1,-1,-1,-1
1517207156358427,-1,-1,-2,0,-1,-1,-2,-1
1517207156358427,-1,-1,-1,0,-1,-1,-3,0
1517207156380448,-1,-1,-2,-1,-1,1,-1,-1
1517207156380448,-1,0,0,1,-1,-2,-2,-1
1517207156380943,-1,-1,0,-1,-2,-2,1,-1
1517207156380943,0,-2,0,-1,-1,0,2,-1
1517207156395452,-2,0,-1,-1,0,-3,-1,0
1517207156395452,-1,-1,-1,-1,-1,-2,-1,-2
1517207156395954,0,0,-1,-2,-1,0,0,0
1517207156395954,0,0,0,-1,1,0,-1,-1
1517207156425975,-1,-2,0,1,-2,-2,-1,-1
1517207156425975,-1,-2,-2,-1,-1,-1,0,0
1517207156426974,-1,-1,-2,0,-1,-1,-2,0
1517207156426974,-2,0,-1,-1,0,0,0,0
1517207156440485,-1,-1,-1,-2,0,-2,-1,-1
1517207156440485,-2,-1,0,-2,-1,-1,-1,-1
1517207156440994,2,-1,0,-1,-1,0,-2,-1
1517207156440994,-2,-2,0,-1,-4,-1,-2,-2
1517207156455032,-2,-3,1,0,-3,0,-2,-1
1517207156455032,-1,-2,0,-2,-1,1,0,-1
1517207156456010,0,0,0,-2,0,-1,-1,0
1517207156456010,0,0,-1,-3,-2,-2,-2,0
1517207156477512,-1,1,0,-1,-1,-2,0,-2
1517207156477512,-1,0,0,0,-1,0,-1,0
1517207156478512,-1,-2,-2,-1,0,-1,-1,-1
1517207156478512,0,-2,-1,-1,0,-2,0,-1
1517207156500548,-1,-2,-1,-1,-2,-1,1,0
1517207156500548,0,-1,1,0,1,0,0,-1
1517207156501549,-2,-2,-1,-1,-1,-2,0,-2
1517207156501549,-2,0,-1,-2,-1,0,-2,0
1517207156515037,0,1,0,-2,-1,-1,0,-1
1517207156515037,-2,1,-1,-1,-2,-1,-3,-2
1517207156516038,-2,-3,-2,-2,-2,-3,0,-1
1517207156516038,0,-2,-1,-2,0,0,-2,0
1517207156537575,-2,-1,-2,-2,0,-1,-1,-1
1517207156537575,0,-2,-1,-1,-1,-3,-2,-1
1517207156538570,-1,2,0,0,-1,1,0,0
1517207156538570,0,-1,-2,-1,-1,0,-2,-2
1517207156560071,-1,-2,-1,-1,-2,0,-4,0
1517207156560071,0,-2,-2,-2,-1,0,0,-1
1517207156561070,-1,-2,-3,-3,-1,-1,0,1
1517207156561070,0,-1,0,0,-2,0,-1,-1
1517207156575579,0,-1,-1,0,0,0,-1,-1
1517207156575579,-3,0,-1,0,-2,0,0,-1
1517207156576080,0,-1,0,0,-1,-1,-2,-2
1517207156576080,0,0,-2,-1,1,0,0,0
1517207156597608,-2,-3,-1,-1,0,-1,-2,-1
1517207156597608,0,-2,-1,-1,2,-2,-1,-1
1517207156598605,-2,0,-1,-2,0,-1,-2,-1
1517207156598605,-2,-1,-1,1,-1,-2,-1,-2
1517207156620133,-2,-1,1,-2,0,-1,-2,0
1517207156620133,-2,-2,-3,0,-2,3,-1,-1
1517207156621133,-2,-2,-1,-1,-2,0,-1,-1
1517207156621133,0,-2,-1,0,-2,-3,-2,-1
1517207156635125,1,-1,-1,-2,0,1,-1,-1
1517207156635125,-2,0,-1,-2,-2,-2,-1,-1
1517207156636123,-1,-2,-1,-1,-1,-3,-1,-1
1517207156636123,-1,0,-2,-1,-2,0,-2,-1
1517207156657660,-2,-2,0,-1,-2,-1,0,-1
1517207156657660,-1,0,0,-3,-2,-1,-2,-1
1517207156658639,-2,0,-1,-1,0,-1,-1,-1
1517207156658639,-2,-2,0,-2,-2,-1,0,-1
1517207156680167,0,0,0,0,-1,-2,0,-1
1517207156680167,-1,0,-1,-2,-1,-4,-1,0
1517207156681158,0,-2,-1,-1,-2,0,-2,0
1517207156681158,-1,-1,0,-1,-2,-1,-1,-1
1517207156695164,0,-2,-1,-2,-1,-1,0,1
1517207156695164,-1,-2,-2,-1,0,-2,-1,0
1517207156696166,0,1,-1,-1,-2,0,0,-1
1517207156696166,-2,-1,0,-1,-3,0,-3,-2
1517207156717695,0,-1,-1,-1,-2,-1,-1,-1
1517207156717695,-1,-1,-1,1,-2,-1,-1,-2
1517207156718681,-1,-1,-1,0,-1,-1,0,-1
1517207156718681,-1,0,-1,-3,0,-1,1,-2
1517207156740220,-1,-1,-2,0,0,0,-1,-1
1517207156740220,0,-2,-1,-2,-1,-1,-2,0
1517207156741196,-1,-1,0,-1,-1,0,-1,-1
1517207156741196,-2,-1,-2,-1,-2,-1,0,1
1517207156754706,-1,-1,-1,-1,-2,-2,-2,0
1517207156754706,-1,-1,-1,-1,0,0,0,-1
1517207156762713,-2,-2,-1,-1,-1,-1,0,-1
1517207156762713,-1,-2,0,-1,0,-2,-1,-1
1517207156778224,-1,0,-1,-2,-1,-1,-1,0
1517207156778224,0,-1,0,0,-1,-1,-2,-1
1517207156778224,0,-1,0,-3,-1,-2,0,-1
1517207156778224,-1,-1,-2,0,0,0,0,-1
1517207156800255,0,-1,-1,0,-1,0,0,0
1517207156800255,0,-2,-1,1,0,-1,-2,0
1517207156800739,0,-2,-1,0,-2,1,-2,-1
1517207156800739,0,-2,-1,-3,-2,-3,-2,0
1517207156814249,1,0,-1,-2,-1,0,0,-1
1517207156814249,-4,-1,-1,-1,-1,0,1,1
1517207156822770,-1,-1,-1,-2,-1,-2,1,1
1517207156822770,0,-2,-1,0,0,-1,-1,-2
1517207156837768,-2,-1,-1,-1,-1,-1,0,-2
1517207156837768,-1,-1,-1,-3,0,-1,0,-1
1517207156838266,-2,-2,1,0,0,0,-1,-3
1517207156838266,-1,0,0,-1,-1,1,-1,0
1517207156860281,-1,0,-2,0,1,-1,-1,-3
1517207156860281,1,-1,-2,-1,-1,0,-1,-2
1517207156860781,0,-3,-3,-1,-2,-1,-1,-2
1517207156860781,-1,-1,-1,-1,-1,-1,-1,-2
1517207156874792,-2,-1,-1,-1,-1,1,-1,-2
1517207156874792,-1,-1,0,-1,-3,0,0,0
1517207156882797,-1,-1,-1,-2,0,-1,-1,-1
1517207156882797,-1,-1,-1,1,-1,-2,-1,0
1517207156897807,-1,-1,0,-1,-1,-1,0,0
1517207156897807,-2,-1,-1,1,-1,0,0,-1
1517207156898308,0,1,-2,0,0,0,-1,-1
1517207156898308,-1,-1,-1,-1,-1,-2,-1,-1
1517207156920334,-1,-1,0,-1,-2,-1,-1,1
1517207156920334,-1,-1,-2,-1,0,-2,-2,-1
1517207156920824,-2,-1,0,-1,-2,-1,-1,-1
1517207156920824,-1,-2,-2,-1,0,-1,-2,1
1517207156934333,-1,-2,-2,-1,0,-2,0,-2
1517207156934333,0,-2,-1,-1,-2,-1,0,-1
1517207156942841,-3,-1,-1,0,-1,-1,-1,0
1517207156942841,-1,0,0,-1,-3,1,-3,-1
1517207156957373,-1,-1,-3,0,-1,0,-1,2
1517207156957373,0,0,-2,-1,-1,-3,1,-1
1517207156958361,-3,-1,-2,0,-3,-2,-1,-1
1517207156958361,0,-1,0,-3,0,-1,0,-1
1517207156980188,-2,-2,-2,-1,0,0,-1,-2
1517207156980188,-1,0,0,-2,1,-1,-1,-1
1517207156981179,0,1,-1,-1,-1,-1,1,-2
1517207156981179,-2,-1,-2,1,0,0,0,-1
1517207156994688,1,1,-1,-2,-2,0,-1,-1
1517207156994688,0,-1,-3,-1,0,-2,0,-3
1517207157002906,0,-3,0,-2,-1,0,-2,-1
1517207157002906,-1,0,-1,-1,-1,1,-1,-1
1517207157017916,-2,-1,1,-1,-2,-3,0,0
1517207157017916,-3,1,-1,-1,-1,-1,-3,0
1517207157018914,-2,-1,-3,-2,-1,-1,-1,0
1517207157018914,-1,-1,-1,-2,-2,-3,0,-2
1517207157040417,-2,0,-3,0,0,-1,-2,-1
1517207157040417,-2,0,0,-1,-1,-1,0,-1
1517207157040917,-2,0,-1,-1,-1,-3,-1,-1
1517207157040917,-1,-2,-1,-1,-1,-1,-1,-1
1517207157054433,-2,-1,0,-1,0,0,-3,-2
1517207157054433,0,-2,-1,0,-2,-1,-1,-2
1517207157062933,1,-2,-1,-2,0,-1,0,1
1517207157062933,-1,-1,-1,-2,0,-1,0,0
1517207157077944,1,-3,-1,-1,0,0,1,0
1517207157077944,0,-1,-2,-3,-1,0,0,-1
1517207157078446,0,-1,1,-1,-1,-3,-2,-3
1517207157078446,-2,-1,-1,0,-2,-1,-1,-1
1517207157099983,-2,-2,-1,-2,1,0,-2,0
1517207157099983,-1,-1,-2,0,-1,-1,-2,0
1517207157100960,0,-1,-2,1,-1,-3,-1,-1
1517207157100960,-2,-1,-1,0,0,-2,-1,-1
1517207157123502,-1,0,-1,0,0,-1,-1,0
1517207157123502,-1,-2,0,-1,0,0,0,-1
1517207157123989,-1,-1,0,-1,-2,-1,-1,0
1517207157123989,-2,0,-2,-1,-3,-2,-2,-2
1517207157137486,0,0,0,-2,-2,-1,-1,0
1517207157137486,0,-3,-2,-1,0,-1,-1,-1
1517207157138487,0,-2,-1,-1,2,-1,0,-1
1517207157138487,0,0,-1,0,0,0,0,-2
1517207157161007,0,-2,-1,0,-2,-1,-1,-2
1517207157161007,-1,-1,-2,-2,0,0,-2,-1
1517207157161511,-2,-1,-2,-1,-2,0,0,-2
1517207157161511,-1,-1,-2,-1,0,-3,-1,0
1517207157183519,-2,-2,-2,-3,-1,-3,-1,0
1517207157183519,-1,0,0,-2,-1,0,-1,1
1517207157184019,-1,0,-2,-1,-3,0,0,-2
1517207157184019,-1,-1,-1,-2,0,2,-1,-1
1517207157197529,-1,0,-2,-1,-3,0,-2,-4
1517207157197529,-1,-2,-1,-1,-1,-1,-1,-2
1517207157198529,-3,-1,-2,-2,1,-1,-1,1
1517207157198529,-1,-1,-2,-3,0,-1,-1,0
1517207157221052,-1,-2,-1,-2,-1,0,0,-2
1517207157221052,-1,-1,-1,0,-1,-1,0,0
1517207157221547,1,-3,0,0,0,0,-1,-2
1517207157221547,0,-2,0,-1,0,-1,0,1
1517207157243604,0,1,-3,-1,0,-1,-1,-1
1517207157243604,0,-1,-1,-1,0,-3,0,-1
1517207157244104,-1,-1,-1,-1,-1,-1,-1,-1
1517207157244104,-2,0,-1,0,-2,-2,-1,-1
1517207157257635,-1,0,-2,1,-1,0,-1,-4
1517207157257635,-1,0,-1,-2,-1,-1,0,-1
1517207157258619,-1,0,-2,-2,-2,-2,-1,0
1517207157258619,-1,-1,0,-1,-1,0,-1,-1
1517207157280643,0,-2,0,0,-1,-2,0,-1
1517207157280643,-1,0,0,0,-1,-2,0,-2
1517207157281632,0,-2,-2,0,-1,0,-2,-1
1517207157281632,-1,-2,-1,-1,-1,-1,-1,0
1517207157303156,-2,0,-2,-3,-2,-1,-1,0
1517207157303156,-1,-1,-1,1,-2,-1,-2,-2
1517207157304170,-2,-1,0,-3,-2,-3,-1,0
1517207157304170,-1,0,-1,-2,-1,-1,-2,-3
1517207157317669,-1,-2,-1,0,0,-2,1,0
1517207157317669,-1,-1,-1,-1,-3,-1,-2,0
1517207157318658,-1,0,-2,-2,1,-1,-1,-3
1517207157318658,0,-1,0,0,0,-2,-1,-1
1517207157340692,-1,-1,0,-2,-2,-1,-1,-1
1517207157340692,0,0,-1,-1,-2,-1,-2,-1
1517207157341674,0,-2,0,-1,-1,-1,1,1
1517207157341674,-1,-2,-1,-1,-2,-1,0,-1
1517207157363189,-1,-1,-2,0,-2,0,-2,-2
1517207157363189,-2,-1,-1,0,-1,0,0,0
1517207157364190,-1,-1,-2,-1,-1,-1,-2,0
1517207157364190,0,-2,-1,-2,-1,-1,-2,-2
1517207157377728,-1,0,0,-1,0,-2,-1,-1
1517207157377728,0,-2,-1,0,0,0,-1,-1
1517207157378229,-2,-1,0,-1,-1,-1,-1,-2
1517207157378229,-1,0,-2,-2,-1,-1,-2,-1
1517207157400793,0,-2,-1,-2,-1,-1,-1,0
1517207157400793,-1,-1,-3,-2,-1,-1,0,-2
1517207157401794,-1,-1,-1,0,-1,-2,-1,-2
1517207157401794,-1,-1,-2,0,-1,-1,-1,0
1517207157423330,-1,-1,-1,-1,0,-1,0,0
1517207157423330,-1,-2,0,-2,-1,-1,-1,0
1517207157424320,0,-1,-1,0,-1,-1,-1,-2
1517207157424320,-1,1,-1,-1,0,-1,1,0
1517207157437841,0,-1,0,-1,-2,-1,-1,0
1517207157437841,-2,-2,-2,-1,0,-2,-2,0
1517207157438329,1,-1,-2,-2,-1,-1,-1,-1
1517207157438329,-2,-1,-2,-1,-2,-2,-1,0
1517207157460837,-1,-1,-2,-1,-2,-2,-1,-1
1517207157460837,-2,0,-1,-2,-1,-1,-1,-2
1517207157461839,0,-1,0,-2,0,-2,0,-1
1517207157461839,1,-1,-2,-2,-1,-1,-1,-2
1517207157482361,-2,-1,-1,0,0,0,-1,1
1517207157482361,-2,0,-2,0,-1,-3,0,-1
1517207157490356,-2,-2,-2,-1,-2,0,-2,0
1517207157490356,0,0,-1,0,-1,-2,0,-1
1517207157497862,-4,-2,0,-1,-1,-1,0,-3
1517207157497862,-1,0,0,-2,1,-1,-1,0
1517207157498363,0,-1,-1,-1,-2,1,-3,-1
1517207157498363,-2,-1,-1,-1,0,-1,-1,-1
1517207157520900,0,0,-3,-2,-2,0,0,0
1517207157520900,-1,-1,-1,0,-1,-1,-1,-1
1517207157521379,-2,1,0,-1,1,-3,0,-1
1517207157521379,-2,-2,1,-2,-2,-2,-1,-2
1517207157543395,-1,-2,-1,-1,0,0,0,-1
1517207157543395,0,0,-1,-1,-2,0,-1,0
1517207157543896,-1,0,-1,0,-1,-2,-2,0
1517207157543896,0,-1,-1,-1,-2,-1,-1,0
1517207157557419,-2,-1,-2,-1,-1,-3,-3,-1
1517207157557419,0,-1,-2,-1,0,-1,-1,-1
1517207157558406,-1,0,-2,-1,0,-1,-1,-1
1517207157558406,-1,0,0,-1,-2,-3,0,-1
1517207157580921,0,-1,0,0,-1,-1,-2,-2
1517207157580921,-1,-2,1,1,-1,0,-2,-2
1517207157581427,0,-1,-3,-1,-1,0,1,-1
1517207157581427,-2,-2,0,-1,0,-2,0,-3
1517207157603439,-1,0,-2,0,-1,-1,0,-1
1517207157603439,-1,-2,0,0,-1,-1,0,0
1517207157603938,-1,-1,0,-1,0,-1,-2,-1
1517207157603938,-1,-2,-2,-2,-1,0,-1,0
1517207157617459,-2,0,0,-1,-1,-1,-1,-2
1517207157617459,-1,-3,0,-2,0,-1,1,-2
1517207157618459,-2,-2,-3,0,-2,-1,0,-1
1517207157618459,0,-1,-1,-1,-1,-1,-2,0
1517207157641012,-1,-1,-1,-2,-1,-2,-2,0
1517207157641012,0,-1,-1,-1,-2,-1,-2,-1
1517207157641498,-2,-1,-2,-1,-2,-1,-2,-1
1517207157641498,-1,-1,-2,-1,1,-2,0,-2
1517207157663513,0,-1,-2,-1,0,-1,0,-1
1517207157663513,-2,-1,0,-2,-1,0,-1,0
1517207157664014,-1,-3,-1,-1,0,-1,-1,-2
1517207157664014,-1,0,-2,0,0,1,-1,-1
1517207157677025,-1,-2,1,0,0,0,-2,-2
1517207157677025,-1,-2,-2,-3,-2,0,-3,-1
1517207157685032,-2,-1,0,0,-2,-2,-2,-1
1517207157685032,-2,-1,0,-2,-1,-1,0,-1
1517207157701054,0,-2,0,0,-1,0,-1,-1
1517207157701054,-1,0,-3,-2,-1,-2,-2,-1
1517207157701541,0,0,-1,-2,-2,0,-1,-1
1517207157701541,-1,-1,-2,0,0,-2,-1,-1
1517207157723556,-1,-1,-1,1,-2,-3,-2,-1
1517207157723556,-1,-1,-1,0,-1,-1,0,-2
1517207157724056,-3,-1,-3,1,0,1,-1,-1
1517207157724056,-1,0,-2,-1,-3,0,-2,-1
1517207157746073,-1,-1,-1,-2,-2,-1,1,0
1517207157746073,-2,-2,-1,-1,0,0,-1,0
1517207157746572,-1,-1,-1,-2,-2,-1,1,-2
1517207157746572,0,-2,-1,0,-1,1,0,0
1517207157761093,-1,-1,-1,-1,-1,-1,-2,-2
1517207157761093,0,-2,0,-1,-2,0,0,0
1517207157761583,0,0,1,-1,0,1,0,2
1517207157761583,-2,-2,-1,-1,0,-1,-1,0
1517207157783600,-2,-1,0,-1,-1,-1,0,-2
1517207157783600,0,-1,0,-1,-1,-1,-1,0
1517207157784098,-1,-4,0,-2,-1,0,-2,0
1517207157784098,-1,-1,-2,0,-1,-1,-1,-1
1517207157797109,0,-1,0,-2,-1,0,0,-1
1517207157797109,-2,0,-3,-1,-1,-3,-2,0
1517207157805116,0,-1,-1,-1,-2,-4,0,-1
1517207157805116,-2,-1,-1,-1,0,0,-1,-1
1517207157821127,-1,-2,-1,-1,0,-1,-1,1
1517207157821127,0,-2,-1,0,0,-1,0,0
1517207157821625,0,-1,-1,0,-2,-1,0,-1
1517207157821625,-2,-1,-1,-4,-1,-2,-2,0
1517207157843643,0,1,0,-1,-1,-2,-1,1
1517207157843643,-2,-1,-1,0,-1,-1,-2,-1
1517207157844143,-1,-2,0,-1,-2,-2,-1,-2
1517207157844143,0,-1,0,-2,-1,-1,-2,-2
1517207157857150,-1,0,-1,-2,-1,-1,-1,-2
1517207157857150,0,-1,-2,-1,-2,-2,-1,-1
1517207157865156,-1,0,-2,-1,-1,0,-2,-2
1517207157865156,-1,-1,-2,0,-2,1,0,-2
1517207157880668,0,0,-1,1,0,-2,-2,-2
1517207157880668,-1,-2,-1,-1,-1,0,0,-1
1517207157881668,-3,1,-1,-1,-1,-2,-1,-1
1517207157881668,0,1,0,-2,-1,-4,-1,-1
1517207157903203,-1,-1,-3,-2,0,0,-1,-1
1517207157903203,-1,-1,-1,-1,-1,-1,-1,-1
1517207157903684,-1,-1,-1,-2,-1,0,-1,0
1517207157903684,-1,-1,0,-1,-1,0,-1,-1
1517207157916710,-1,0,-1,1,-1,-2,-1,0
1517207157916710,-1,0,-1,0,-1,-2,-3,-2
1517207157925208,-2,-1,-1,-1,0,-3,-3,-2
1517207157925208,-2,-2,-1,0,-2,-1,-1,1
1517207157940724,-1,-1,0,-1,-3,-1,-1,0
1517207157940724,-2,1,0,-1,-1,0,1,-1
1517207157941710,0,0,-1,0,-2,0,0,-3
1517207157941710,2,-1,-2,-1,-2,0,-2,-1
1517207157963726,0,-1,-2,-2,-1,-3,-1,-1
1517207157963726,-1,-1,-2,-2,-2,-2,0,0
1517207157964227,0,-2,-1,-1,-2,1,-1,0
1517207157964227,-1,0,-2,-1,0,-2,-2,0
1517207157977242,-2,-1,-3,0,-4,-2,-1,-2
1517207157977242,-2,-1,0,-2,-1,-1,-1,-2
1517207157985240,0,-1,0,-1,-1,-1,0,1
1517207157985240,-1,-3,-2,0,-1,-2,-1,-2
1517207157999251,-1,-2,-1,-1,0,1,0,1
1517207157999251,-1,-1,-2,0,0,-2,0,-2
1517207158008258,0,-2,-1,-1,0,-2,-1,0
1517207158008258,-1,-1,-1,-1,0,0,-2,0
1517207158023271,-2,0,-2,-1,-1,-3,-1,-3
1517207158023271,-1,-2,-1,-1,-1,1,-2,-1
1517207158024268,-1,-3,-1,-1,0,-1,-1,-2
1517207158024268,-1,-2,-3,0,-1,-1,0,-1
1517207158046369,0,0,-1,0,-1,-1,-2,-1
1517207158046369,-1,-1,-1,-1,-2,-1,-3,-1
1517207158046868,-1,-1,0,-1,-2,-3,-1,0
1517207158046868,0,0,0,-1,-2,-3,-2,0
1517207158059377,-2,-4,-1,-1,-3,0,-1,1
1517207158059377,0,-1,-1,-1,-1,0,0,-1
1517207158068392,-1,-1,-2,-1,-1,-1,-1,0
1517207158068392,-1,-1,-1,-1,-2,0,0,-1
1517207158083394,-1,-1,0,-1,1,0,-1,0
1517207158083394,-2,-1,0,0,1,-3,-2,1
1517207158084901,-1,0,-1,-2,-2,0,0,-1
1517207158084901,-1,-2,-2,-2,-1,0,0,-1
1517207158105924,-2,-2,-3,-2,-1,-2,-2,-3
1517207158105924,0,-1,0,-2,-1,-1,0,-2
1517207158107410,0,-1,-1,0,-1,-2,-2,-2
1517207158107410,-2,0,-1,0,-1,-1,0,-2
1517207158119453,0,-1,0,-2,-1,0,0,0
1517207158119453,-3,-1,-2,0,-2,2,-1,0
1517207158128531,2,0,1,-2,-1,-1,-2,0
1517207158128531,-6,-1,0,-2,-1,1,-2,1
1517207158143518,-8,-3,-1,-1,0,-1,-2,-1
1517207158143518,-1,1,-1,0,0,-2,-1,-1
1517207158145021,-1,-1,-2,-1,0,-1,-3,-2
1517207158145021,5,2,0,0,0,1,1,2
1517207158166033,3,3,0,-1,0,-1,-1,0
1517207158166033,-4,-1,-1,-2,-1,-1,0,-2
1517207158167534,-2,-3,-1,-1,-1,-1,-2,0
1517207158167534,2,-1,0,0,0,0,-2,-2
1517207158179556,1,0,-1,-1,0,-2,-2,0
1517207158179556,0,-1,-1,-1,-1,-1,1,-1
1517207158188572,-1,1,-2,-1,-1,-2,-1,-1
1517207158188572,-2,-1,-2,-2,0,-2,-1,-1
1517207158203560,0,-3,0,-3,-2,0,1,0
1517207158203560,0,2,-2,-5,0,-1,-2,-1
1517207158205076,0,-1,-2,-1,-2,0,0,-1
1517207158205076,-3,-2,-2,0,-2,-1,-1,-2
1517207158226077,-2,-1,-3,0,0,-1,-1,-3
1517207158226077,0,-3,0,-1,0,-1,1,-1
1517207158227577,0,2,0,-1,0,2,-1,0
1517207158227577,-1,-2,0,-1,-2,-2,-3,-1
1517207158240089,-1,-3,-1,-1,-2,-2,0,-1
1517207158240089,1,-1,-6,-3,-2,-1,-1,-1
1517207158247090,0,-1,-1,0,-2,0,-1,-2
1517207158247090,0,-2,1,0,-2,1,-2,1
1517207158263602,-9,-3,-1,0,-2,0,-2,-3
1517207158263602,-3,0,-1,-1,-2,-1,-2,1
1517207158265103,2,0,-2,-1,-2,1,0,1
1517207158265103,0,1,-3,-3,-1,0,-1,0
1517207158286119,2,-2,-1,1,0,-1,0,-3
1517207158286119,1,0,0,-1,-1,-1,-2,-3
1517207158287620,-6,-3,-1,-2,-1,-2,-1,-3
1517207158287620,2,0,-1,-1,-2,0,-1,0
1517207158300138,-5,-4,-2,-1,-1,-3,-2,-4
1517207158300138,-5,-4,-3,0,-1,-1,-1,-2
1517207158307149,2,0,2,1,1,-2,0,-1
1517207158307149,-4,-4,-1,-1,0,0,-1,-1
1517207158323160,4,3,4,-3,-2,-1,-1,2
1517207158323160,-2,0,-2,3,2,-1,-1,-2
1517207158325146,0,-4,0,-2,-2,-1,-1,-1
1517207158325146,6,1,-3,-1,-1,0,0,1
1517207158345661,-3,0,-4,-1,0,1,1,0
1517207158345661,2,-3,1,-2,-4,-2,-1,-1
1517207158347661,-2,-2,-1,0,1,0,-1,-1
1517207158347661,-2,-1,1,-2,-1,-1,0,-2
1517207158360671,1,1,-3,-2,-1,-2,-1,-1
1517207158360671,-1,-2,0,-2,1,0,0,-1
1517207158367177,-1,-2,-4,-2,-2,-2,-1,-3
1517207158367177,-2,-2,-2,1,-1,-1,-2,-1
1517207158383188,-1,-1,1,0,-1,0,-2,2
1517207158383188,0,-1,-1,-2,-2,-1,0,0
1517207158385189,-4,-3,-3,-2,-2,-1,-1,1
1517207158385189,-2,0,-2,1,0,-1,-2,-6
1517207158405706,0,0,-2,-3,-1,0,0,0
1517207158405706,2,3,-1,2,-1,-1,-1,-1
1517207158407204,-12,-5,2,-1,0,-2,-2,-1
1517207158407204,-1,-5,0,2,0,-2,0,0
1517207158420225,-2,1,-1,-1,-2,-1,-2,-4
1517207158420225,2,1,-1,-5,-2,0,0,1
1517207158427219,0,-1,-4,1,-1,1,-1,-1
1517207158427219,-5,-1,-1,0,-1,-1,-2,-1
1517207158443733,-3,-5,-2,-2,-1,-4,0,-1
1517207158443733,10,-1,-4,-7,-2,1,0,-2
1517207158444733,5,6,1,0,-2,0,1,1
1517207158444733,-2,4,-1,0,-7,-3,-2,-3
1517207158465755,-3,-2,-2,-9,-3,-2,0,2
1517207158465755,-4,-11,-7,-5,11,3,-1,-7
1517207158467246,3,-2,-1,-2,-4,-1,0,0
1517207158467246,-8,0,-3,-3,0,-2,-1,0
1517207158480268,1,-2,1,3,-6,-3,-1,3
1517207158480268,2,4,2,4,-2,-3,-1,0
1517207158486775,0,2,-2,-4,0,1,-1,-2
1517207158486775,0,-4,-2,-1,-2,-2,-2,0
1517207158503275,9,4,-1,2,0,1,0,0
1517207158503275,-11,-5,-4,-2,-4,-4,-3,-4
1517207158504773,1,-1,-2,1,0,-1,0,-1
1517207158504773,-1,-2,1,0,-3,-2,-1,1
1517207158525790,3,-3,-2,-5,3,0,-1,-4
1517207158525790,-8,-4,-1,1,0,-1,-1,-1
1517207158527289,3,-1,-3,-1,-3,-3,0,6
1517207158527289,2,-4,-1,0,2,0,0,-11
1517207158539321,-4,-1,2,-1,-1,0,-4,-4
1517207158539321,-2,7,-4,1,-4,-4,-2,1
1517207158548824,-2,0,3,9,0,-1,1,0
1517207158548824,-3,-8,-12,-17,-1,1,1,4
1517207158563316,-2,2,-2,7,5,1,1,-2
1517207158563316,-5,4,4,-3,-3,-1,1,-3
1517207158564815,-7,-9,-2,-1,-2,-2,-4,-4
1517207158564815,15,11,2,-1,-1,-3,1,2
1517207158585852,-22,-4,-2,-5,-4,-1,-2,1
1517207158585852,11,-12,0,3,-4,0,-7,0
1517207158587331,2,4,-2,-3,-1,2,-4,-1
1517207158587331,-16,-2,2,1,1,0,-1,0
1517207158599340,5,-3,-5,3,2,-2,0,-3
1517207158599340,5,5,2,4,0,1,5,6
1517207158608346,-7,-9,-4,-5,-3,-3,-4,-11
1517207158608346,-4,0,4,1,-1,-2,-5,-4
1517207158630862,-2,-1,-1,-1,-1,-2,0,-1
1517207158630862,-4,-3,-3,-1,-2,1,4,11
1517207158632373,-4,-5,2,-4,-1,0,-3,-10
1517207158632373,-2,7,0,18,-1,-2,2,0
1517207158645886,1,-3,1,-13,-1,-1,2,2
1517207158645886,7,4,0,-2,-4,-4,-11,0
1517207158647375,-9,7,-2,-1,2,3,2,2
1517207158647375,-2,-7,-1,0,-2,-2,-2,0
1517207158659384,6,1,-4,-2,-3,-4,-2,-1
1517207158659384,-11,-4,-1,-3,-2,-2,3,-1
1517207158668398,3,-4,-5,3,1,0,1,0
1517207158668398,1,7,2,-2,-3,0,-4,-3
1517207158683901,2,-1,-3,-10,-4,0,-1,19
1517207158683901,-4,4,4,-2,1,0,3,-26
1517207158685428,6,-1,-1,1,0,-4,-4,3
1517207158685428,-10,-7,-4,-7,0,1,4,-2
1517207158705915,8,5,1,6,0,0,-3,1
1517207158705915,-3,-2,-5,0,-1,-3,-3,4
1517207158707417,-1,0,2,-2,0,-1,1,2
1517207158707417,-2,-5,-1,-3,-2,0,1,2
1517207158719437,-6,-8,-5,1,0,2,4,-9
1517207158719437,-3,-1,0,-1,0,-1,-8,-7
1517207158728435,6,4,6,2,0,-2,-4,-6
1517207158728435,-2,1,-3,-4,0,-1,1,6
1517207158743441,-17,1,-1,-1,-2,-2,3,-4
1517207158743441,2,-9,2,2,0,2,3,5
1517207158744944,-3,-1,-2,-1,-2,-1,1,-3
1517207158744944,2,0,-9,-9,-2,0,-2,-4
1517207158765958,-1,3,2,2,-1,-1,-4,6
1517207158765958,4,-4,-7,-4,0,1,8,-16
1517207158767459,-4,4,9,6,1,-2,-3,1
1517207158767459,2,-6,1,0,-2,-2,-4,-2
1517207158779468,6,3,-4,-2,-3,-2,-6,-3
1517207158779468,-4,-2,-2,-4,-1,-2,2,-4
1517207158788546,-2,-4,-6,-4,0,0,-9,-1
1517207158788546,6,-3,-5,0,-1,-2,-2,2
1517207158803538,-3,7,7,0,-2,-2,-5,-7
1517207158803538,-3,4,3,2,0,1,-4,7
1517207158805054,1,-10,-5,-4,-1,-1,9,1
1517207158805054,-2,-2,0,-3,-1,0,-3,-9
1517207158826055,2,2,4,2,1,0,-1,5
1517207158826055,-4,-3,-17,-2,0,0,-2,-6
1517207158827555,-3,2,-5,-3,-2,-2,-1,-2
1517207158827555,-1,-5,4,11,0,1,-3,-1
1517207158839567,-1,-2,-7,-10,-2,0,4,-6
1517207158839567,-1,-1,1,-1,-3,-1,2,7
1517207158848570,-7,-9,-4,-4,-4,-1,-15,-16
1517207158848570,7,7,3,2,2,0,0,-1
1517207158863580,-1,-9,-3,0,-1,-2,2,-3
1517207158863580,-3,0,2,1,-1,-1,-1,0
1517207158865081,4,6,1,-3,3,2,6,10
1517207158865081,-4,0,0,-6,-3,-3,-1,2
1517207158885596,0,-3,2,0,0,2,1,-2
1517207158885596,-1,3,4,-2,0,-1,-6,-10
1517207158887097,12,9,-4,-2,-1,1,6,15
1517207158887097,-3,-16,-14,-5,-2,-1,7,2
1517207158899608,-2,-10,-6,0,-1,0,-3,-2
1517207158899608,-6,14,0,2,-3,-6,-22,-6
1517207158908612,7,5,7,-1,-2,-2,-3,0
1517207158908612,-3,-13,-9,-9,-2,1,-5,1
1517207158923149,-7,-7,-2,5,2,3,3,-28
1517207158923149,-5,14,-14,2,-3,-4,-25,0
1517207158925146,7,14,7,-4,-1,2,-4,-7
1517207158925146,-4,-37,-12,-5,-3,-4,7,2
1517207158946140,1,20,24,4,0,2,-2,4
1517207158946140,-3,-10,-11,0,-1,1,13,4
1517207158947139,6,-17,-21,-5,0,-2,7,7
1517207158947139,-4,12,11,3,0,0,6,20
1517207158968154,-2,15,-9,3,0,1,-12,-2
1517207158968154,10,-2,21,1,-2,-5,-2,10
1517207158970172,-8,-12,12,-2,-2,-2,-11,-9
1517207158970172,13,12,17,13,2,-2,10,-1
1517207158983165,-8,-12,-26,-19,-4,-4,-12,0
1517207158983165,2,-12,15,3,-1,-2,8,11
1517207158985166,-12,-8,-3,-6,-4,-3,-6,3
1517207158985166,11,10,-32,4,2,1,7,-5
1517207159005684,-12,3,5,0,-3,-3,-2,-21
1517207159005684,8,11,25,1,2,3,7,9
1517207159007682,-5,11,-5,8,1,-2,-15,16
1517207159007682,-12,-7,-33,-11,-4,-2,-14,-32
1517207159027698,13,3,11,3,1,0,6,15
1517207159027698,3,-4,-4,12,2,1,12,-2
1517207159035740,7,-13,-17,-18,-6,-3,10,9
1517207159035740,-34,24,6,3,1,-3,-40,-33
1517207159043246,6,-1,19,-3,-4,1,17,12
1517207159043246,-10,-59,-48,-4,1,0,-2,-3
1517207159044748,-7,-2,1,10,4,2,8,13
1517207159044748,7,37,59,2,-2,-3,1,4
1517207159065771,13,-4,-38,-2,0,0,12,2
1517207159065771,0,15,13,-1,-1,3,12,24
1517207159067273,-6,-17,-6,3,1,-3,-13,-52
1517207159067273,16,-3,20,-1,-1,4,12,24
1517207159088299,-6,2,2,14,-2,-5,-8,-13
1517207159088299,-4,3,8,-4,0,-1,-7,-1
1517207159089779,4,15,-34,-13,0,0,10,6
1517207159089779,32,20,14,2,3,2,-1,-3
1517207159103306,-12,1,1,0,-1,-3,-17,7
1517207159103306,-17,-4,-25,-13,-6,-6,-8,-6
1517207159104789,6,16,33,19,5,3,1,-13
1517207159104789,14,38,2,-7,-3,-2,16,36
1517207159125814,2,-59,-16,-3,0,-5,-18,-1
1517207159125814,1,24,42,-5,-3,-1,-11,-26
1517207159127306,-19,-6,-40,6,0,0,-1,-7
1517207159127306,6,-33,-13,-14,-1,-3,-3,-5
1517207159148324,9,45,34,12,0,2,10,13
1517207159148324,16,23,-16,-22,-5,-2,1,6
1517207159150837,-26,-24,11,4,-6,-3,3,5
1517207159150837,-11,9,17,4,5,3,11,-10
1517207159162848,7,-48,-78,-14,-9,-7,-12,1
1517207159162848,13,-4,3,11,3,-2,-11,-4
1517207159169347,-3,-9,8,1,0,2,12,24
1517207159169347,1,-8,-26,-8,-5,-3,12,-17
1517207159185861,-11,-4,28,1,1,-1,-14,-27
1517207159185861,3,-2,-12,-1,0,1,6,20
1517207159187348,11,45,20,-3,4,2,4,-5
1517207159187348,-14,-20,-3,-2,-5,-3,1,20
1517207159208411,4,9,-2,15,4,-1,-18,-30
1517207159208411,-4,-25,8,-2,-6,0,0,-10
1517207159209893,-14,-31,-58,-20,-3,-3,5,13
1517207159209893,-15,-26,-8,-5,-2,-4,-14,1
1517207159222411,17,21,-3,-3,-2,-2,13,5
1517207159222411,-6,8,52,18,6,3,5,7
1517207159229409,40,-42,-23,-5,-8,-9,-11,-25
1517207159229409,-40,-20,-30,-1,2,4,-1,-5
1517207159245928,2,6,11,-2,0,-1,4,11
1517207159245928,-5,13,-10,2,-2,-1,2,7
1517207159247420,6,-11,8,-16,-4,-1,-5,2
1517207159247420,19,0,17,18,3,-1,-8,-1
1517207159268446,-19,-1,10,-15,-8,-4,9,-1
1517207159268446,14,-27,-68,20,9,8,16,-1
1517207159269948,-32,64,64,4,6,2,-16,-7
1517207159269948,-1,5,-10,-4,-1,3,5,-7
1517207159281944,22,5,-18,-1,-3,-4,5,15
1517207159281944,-7,-13,41,-15,3,4,-2,-3
1517207159290950,-16,-4,9,19,-4,-3,8,17
1517207159290950,-19,-60,-47,-18,-10,-9,-22,-28
1517207159305964,-9,-32,32,12,6,6,23,48
1517207159305964,22,21,-48,-13,-6,-4,-22,-52
1517207159307465,1,-25,-24,-3,0,2,29,0
1517207159307465,1,-10,25,4,0,-4,-34,-11
1517207159328516,-6,-12,17,-12,-4,-2,0,-9
1517207159328516,-14,26,-31,-6,-2,-5,-8,-1
1517207159330017,-13,2,11,-23,-7,-3,-1,-2
1517207159330017,24,14,2,5,-1,-3,8,-9
1517207159342525,-1,-20,-30,-8,-7,-5,-12,0
1517207159342525,-6,-6,23,-14,-2,2,10,10
1517207159349531,-15,1,-20,9,0,0,-6,3
1517207159349531,55,52,41,3,4,2,14,14
1517207159367113,-31,-24,-81,-11,-1,-1,-5,-35
1517207159367113,-8,-57,3,-5,-7,-9,2,27
1517207159369113,1,33,32,21,-1,-1,0,19
1517207159369113,23,19,-23,-30,-6,-4,-7,-35
1517207159388617,-1,9,-28,6,3,0,-5,11
1517207159388617,8,-12,-17,10,-4,-7,4,-23
1517207159390133,3,-31,6,-2,5,2,-8,-7
1517207159390133,-18,4,4,16,3,1,-9,7
1517207159402628,13,-7,-4,0,0,-1,19,31
1517207159402628,-8,17,6,-5,-3,-2,-17,-57
1517207159409634,27,37,7,9,-1,-1,-6,1
1517207159409634,7,33,21,4,3,1,14,22
1517207159433165,1,-12,76,-13,-2,-2,3,-15
1517207159433165,-29,-43,-57,5,3,2,-11,-14
1517207159435153,25,27,41,1,0,1,14,22
1517207159435153,-2,-31,-58,8,3,0,-17,-15
1517207159448160,-5,27,-13,-14,-13,-5,-5,3
1517207159448160,-7,39,42,5,1,-4,-6,0
1517207159450662,-17,-25,-21,0,-2,1,-2,-20
1517207159450662,-17,13,11,-2,6,7,22,28
1517207159462670,11,-1,11,5,2,3,-6,-15
1517207159462670,-13,-1,38,14,3,1,5,38
1517207159469660,18,-42,-100,-24,-4,-1,8,-47
1517207159469660,-24,-17,11,9,-3,-3,-15,2
1517207159485663,-30,73,61,14,1,1,-10,-4
1517207159485663,-16,-26,20,-29,-11,-7,0,-7
1517207159487663,13,2,-10,5,0,0,-1,11
1517207159487663,-26,-4,33,-7,-4,0,14,-4
1517207159508181,25,-8,-21,-3,3,-1,-8,-15
1517207159508181,-5,39,-30,12,0,4,9,57
1517207159510179,-11,33,21,-17,-6,-7,-4,22
1517207159510179,-13,-57,-28,-4,-1,-2,3,-42
1517207159522188,29,12,-3,20,3,1,-7,7
1517207159522188,11,-11,8,-21,3,5,28,-18
1517207159530694,-12,-28,-29,-4,-4,-8,-37,-20
1517207159530694,16,52,47,5,-2,-2,-7,17
1517207159545707,-16,20,-3,-5,1,1,12,6
1517207159545707,9,-31,-60,-9,-10,-6,5,8
1517207159547205,-14,19,72,7,6,5,15,1
1517207159547205,-6,-47,-52,-3,-3,-2,-9,2
1517207159568220,-4,6,47,15,3,0,0,-8
1517207159568220,-21,23,-21,-9,-2,0,-3,20
1517207159569721,50,-7,24,6,1,-2,-15,-36
1517207159569721,-31,9,12,15,1,-3,4,10
1517207159581802,-7,-25,-36,-16,-2,3,1,-13
1517207159581802,-9,-12,19,45,13,0,-14,-12
1517207159590792,-6,14,-6,-34,-8,0,0,6
1517207159590792,9,28,26,-9,-5,-1,12,9
1517207159605841,-5,-34,-15,-9,2,1,-17,-9
1517207159605841,21,36,65,17,0,-2,-7,-8
1517207159607312,-16,-8,-35,-1,-6,-6,-4,-16
1517207159607312,8,5,-22,-1,2,2,8,26
1517207159628330,-6,14,30,-3,-3,-2,1,0
1517207159628330,15,9,-1,-6,-1,4,15,13
1517207159630319,1,-2,30,13,4,-3,-26,-17
1517207159630319,-6,-47,-19,-12,-7,-4,-5,0
1517207159641847,13,24,-28,1,-4,-5,2,6
1517207159641847,-9,-21,-9,-1,1,0,-14,-24
1517207159651849,13,15,18,0,-1,-2,13,20
1517207159651849,-4,30,-12,4,2,1,-3,1
1517207159665854,21,4,26,16,3,-1,-4,1
1517207159665854,1,7,-15,-16,-4,3,6,0
1517207159667355,-17,13,11,0,0,0,6,13
1517207159667355,-5,28,-19,-6,-2,0,-3,9
1517207159688375,3,6,23,-3,-1,2,-2,-7
1517207159688375,-17,19,-17,-16,-11,-10,4,68
1517207159689861,24,-13,-31,20,7,6,4,-34
1517207159689861,-14,6,33,1,-1,-4,-8,-39
1517207159701879,1,-43,-27,-15,-5,-1,-3,1
1517207159701879,2,-24,-43,-7,-1,5,22,46
1517207159710879,-6,47,49,10,1,-5,-35,-54
1517207159710879,10,-29,4,-11,-2,-3,6,-1
1517207159725904,10,30,-21,9,-3,-5,-9,-22
1517207159725904,-21,-35,18,-14,0,0,-2,-6
1517207159727387,1,11,33,11,-1,1,12,24
1517207159727387,12,-26,-24,-9,-3,-3,-24,-4
1517207159748415,-32,-52,-79,11,8,4,8,-14
1517207159748415,34,42,23,-3,-4,-1,2,-3
1517207159750931,-1,-38,-49,-20,-5,-1,0,0
1517207159750931,-11,-16,12,4,-5,-5,1,4
1517207159761925,-11,-40,10,4,3,3,4,19
1517207159761925,3,24,20,12,2,-2,-7,-42
1517207159770928,-9,-8,-17,-11,-1,-2,10,21
1517207159770928,16,-20,13,5,2,5,1,7
1517207159785929,-18,3,13,-9,-5,-5,-5,-2
1517207159785929,9,-14,45,-3,-4,-6,0,9
1517207159787430,-21,-35,-95,-5,-5,-7,-19,-43
1517207159787430,2,-7,-74,-15,-5,-2,3,7
1517207159808472,-57,-30,33,-7,-5,-6,4,2
1517207159808472,14,50,-21,11,9,5,-1,-10
1517207159809965,10,33,36,-4,-7,-2,-3,38
1517207159809965,-26,-37,-12,-9,-4,-2,-7,-25
1517207159821973,28,36,3,10,4,0,10,83
1517207159821973,-39,7,18,6,-2,-3,-2,-52
1517207159830978,43,32,54,-3,1,1,-12,-14
1517207159830978,4,-26,8,7,4,1,5,-1
1517207159845988,-13,21,57,2,1,2,0,-6
1517207159845988,-11,-47,-19,5,1,-1,6,-10
1517207159847489,3,-3,-5,20,1,4,34,48
1517207159847489,-13,-49,-15,-31,-7,-5,-28,-29
1517207159868022,11,31,29,7,0,2,4,-11
1517207159868022,-6,-37,19,10,5,6,-9,-12
1517207159870018,-15,-6,-22,-10,-5,-4,5,7
1517207159870018,-1,36,12,-5,-4,-2,-3,13
1517207159882015,-9,7,-1,3,2,-1,8,-7
1517207159882015,18,12,-5,-23,-11,-7,-26,-25
1517207159891024,-11,16,32,9,5,3,8,32
1517207159891024,18,65,25,10,-1,-5,2,-6
1517207159906052,4,33,3,-5,-6,-9,-21,-32
1517207159906052,19,-27,-16,-13,-4,-2,-2,8
1517207159907542,-24,-19,-6,2,2,2,24,47
1517207159907542,-8,-35,-7,12,2,-1,-23,-58
1517207159928548,40,-6,-61,-25,-12,-4,8,1
1517207159928548,-65,16,-23,2,5,2,-4,2
1517207159930050,6,-11,23,19,7,3,9,20
1517207159930050,22,-37,-20,-8,-1,0,11,22
1517207159950578,19,-13,11,8,1,2,-1,29
1517207159950578,13,27,-14,1,-6,-5,-2,-13
1517207159952564,-10,-21,6,-19,-3,0,-5,-3
1517207159952564,-13,11,-18,8,-4,-2,11,17
1517207159965587,18,2,-13,-4,-2,-2,-2,-25
1517207159965587,15,6,25,-1,1,2,6,10
1517207159967088,-16,39,18,12,3,0,-7,-24
1517207159967088,-4,19,2,10,1,2,1,7
1517207159988104,-14,0,-22,-28,-5,-3,6,4
1517207159988104,8,-2,30,10,1,0,1,-10
1517207159990112,15,10,-37,15,2,-1,-8,-4
1517207159990112,9,-22,-38,-21,-5,5,28,24
1517207160011107,-13,20,-40,7,3,-2,-47,-45
1517207160011107,-30,-2,24,-4,-1,-1,-4,2
1517207160012109,1,-6,26,6,2,1,-5,-9
1517207160012109,-24,-14,20,11,3,2,-2,-8
1517207160025632,17,-3,9,-9,-5,-4,3,9
1517207160025632,9,-76,-74,10,2,0,-5,6
1517207160027619,-1,-21,-24,-25,-5,-4,-11,-21
1517207160027619,12,38,38,-6,-2,-1,14,14
1517207160048132,-15,-28,-19,-5,0,2,8,3
1517207160048132,11,11,41,10,4,2,8,7
1517207160050158,-14,-4,1,5,-2,-4,-26,-21
1517207160050158,5,27,-24,5,3,2,1,-2
1517207160070657,2,-39,13,-2,-2,3,12,50
1517207160070657,-18,8,-37,-10,-4,-2,-13,-50
1517207160072149,3,-4,-5,-7,-6,-3,6,-2
1517207160072149,3,20,-6,-17,0,-1,-3,13
1517207160085177,-20,-16,12,9,1,-4,-3,-16
1517207160085177,0,27,-7,-14,-5,-1,6,12
1517207160092176,-8,-42,-27,-7,-3,-3,1,12
1517207160092176,-14,-50,-39,-11,-6,-9,-16,-48
1517207160108188,-16,5,17,5,2,1,12,19
1517207160108188,10,53,51,7,-1,-2,2,14
1517207160110176,3,-9,16,-5,-2,-3,-6,-71
1517207160110176,0,1,-30,18,6,3,1,22
1517207160131191,-8,-8,-6,-4,-1,0,1,-11
1517207160131191,48,4,-16,-10,-3,-3,-3,7
1517207160132692,2,-6,-3,-4,-3,2,11,17
1517207160132692,1,40,73,30,10,-2,-27,-11
1517207160145200,30,-16,-34,-8,-2,2,7,-13
1517207160145200,-27,20,39,11,-1,-4,-8,9
1517207160152205,31,14,-4,-11,0,5,13,21
1517207160152205,-16,-63,-16,-5,-10,-9,-9,-17
1517207160168229,-4,0,17,-11,0,-1,-6,0
1517207160168229,0,-63,-47,6,-3,0,0,4
1517207160169720,-8,-42,-68,-18,-3,-2,-2,3
1517207160169720,-3,100,56,10,3,6,10,12
1517207160190769,-24,-76,-37,-8,-8,-4,-13,-22
1517207160190769,5,66,28,1,0,-4,11,1
1517207160192270,-16,-52,-8,-2,-6,-7,-11,-10
1517207160192270,8,32,-3,-5,-3,0,9,23
1517207160205268,1,64,-15,-2,0,-4,2,-10
1517207160205268,-13,-10,24,-10,0,2,2,5
1517207160212248,-24,22,39,17,2,0,-9,-17
1517207160212248,-22,-25,-41,-12,-5,-8,-2,-3
1517207160228760,11,11,17,15,4,2,7,14
1517207160228760,8,18,11,-9,-3,-6,-20,-28
1517207160230263,-3,0,-38,-2,-1,-1,2,15
1517207160230263,-17,-11,20,0,1,2,3,-4
1517207160250830,-26,-67,-38,-11,-1,-1,-6,-20
1517207160250830,-6,-29,-36,-4,-1,0,-3,9
1517207160252276,-3,8,35,30,1,-1,13,16
1517207160252276,24,-15,9,-18,6,4,5,8
1517207160264820,20,61,5,5,3,2,5,16
1517207160264820,-24,-35,25,-6,-4,-4,-9,-10
1517207160271831,-22,-10,-51,-5,-3,-1,0,-35
1517207160271831,14,-10,5,9,0,0,-1,2
1517207160288351,5,43,76,10,4,1,-12,3
1517207160288351,-7,-49,-25,-5,-3,-4,-9,-22
1517207160289838,-5,-6,-35,-2,3,2,1,7
1517207160289838,15,-16,-3,3,-6,-4,-3,-1
1517207160310852,-27,-23,11,-21,-8,-5,2,-5
1517207160310852,24,13,-19,1,3,0,2,11
1517207160312353,-9,-1,-14,-12,-6,-4,-4,3
1517207160312353,-5,-39,-15,-12,-7,-3,-4,5
1517207160324897,3,3,-7,7,-2,-1,0,0
1517207160324897,-5,-14,0,7,2,-3,-8,-8
1517207160331870,4,13,-31,-13,-3,-3,3,5
1517207160331870,13,26,72,14,1,-1,7,8
1517207160348379,8,-9,-34,-1,-4,-7,-15,-8
1517207160348379,-14,20,-43,0,5,7,9,1
1517207160350889,4,-7,54,10,4,3,10,28
1517207160350889,-11,24,-29,-5,-3,-3,-23,-20
1517207160378401,-8,-23,27,5,5,4,6,-4
1517207160378401,19,-6,-5,5,-2,-3,-6,-13
1517207160379901,-23,0,-19,-10,-11,-7,2,23
1517207160379901,-23,-15,-24,-11,4,1,7,6
1517207160384906,-9,33,32,-1,-6,0,1,-5
1517207160384906,7,-2,-8,-12,-3,-3,5,10
1517207160391911,-26,-31,36,9,3,5,3,-2
1517207160391911,19,75,29,-8,-3,-3,-3,-3
1517207160408421,-33,-32,-25,-14,-8,-9,-22,-12
1517207160408421,4,-2,0,-1,2,4,10,36
1517207160409924,16,34,42,-3,0,-2,-3,-39
1517207160409924,-6,-8,-26,4,-4,0,3,-16
1517207160430937,20,18,29,6,2,1,7,7
1517207160430937,-13,-1,-10,-6,-3,1,-3,-11
1517207160432440,15,1,-15,-1,2,-2,-4,25
1517207160432440,9,-29,-11,7,5,3,13,12
1517207160444453,1,-22,-29,12,0,-3,0,-9
1517207160444453,-1,-31,21,-24,-8,-3,-1,3
1517207160453453,-7,18,24,3,6,0,-7,-15
1517207160453453,40,60,59,-11,-14,-8,4,11
1517207160468464,2,-3,-19,-5,-2,0,-2,-7
1517207160468464,0,-31,-27,0,1,-1,-2,-8
1517207160469965,10,-35,-25,-2,-4,-3,-7,7
1517207160469965,-26,27,84,11,4,5,15,12
1517207160490480,-13,42,32,1,-3,-7,-15,-19
1517207160490480,12,25,21,0,-3,-1,6,7
1517207160492481,-16,-35,-38,-26,-8,-4,-4,2
1517207160492481,-6,-8,-15,25,8,0,-21,-50
1517207160504519,0,-1,-12,-32,-4,1,1,4
1517207160504519,1,80,-60,10,6,2,24,22
1517207160513495,-19,44,43,3,-3,-7,-32,-22
1517207160513495,-2,39,29,15,6,6,14,20
1517207160528507,8,-38,-3,1,0,-1,2,-4
1517207160528507,10,-3,-25,6,0,0,0,4
1517207160530008,26,18,56,-8,-1,3,4,13
1517207160530008,-30,-39,-33,-5,-4,-6,-14,-20
1517207160551026,30,20,-55,2,0,0,11,38
1517207160551026,-25,-35,59,6,-4,-6,-23,-64
1517207160552543,10,-20,-24,10,1,1,3,-15
1517207160552543,12,-75,-12,-14,-4,0,3,17
1517207160573038,-3,11,20,3,1,0,-2,9
1517207160573038,5,-11,1,11,1,0,13,15
1517207160575039,4,-9,12,8,2,-1,-14,-12
1517207160575039,-11,0,-37,-18,-3,-1,-5,-17
1517207160588061,11,-25,-34,7,2,-2,6,8
1517207160588061,-8,-50,-25,-4,-3,-3,-8,4
1517207160590070,7,19,9,1,1,2,6,-6
1517207160590070,-2,14,-14,14,0,-6,-7,17
1517207160611066,13,29,-8,-22,0,1,2,-3
1517207160611066,-15,-15,21,5,-3,2,12,8
1517207160612566,-18,0,13,3,0,-2,-8,18
1517207160612566,-36,-103,-70,-15,-4,-5,-7,-21
1517207160624574,18,21,8,5,0,2,6,-8
1517207160624574,19,33,32,16,6,2,-6,-1
1517207160633593,-37,-4,-7,-27,-13,-7,6,-6
1517207160633593,15,52,4,6,5,-1,-4,8
1517207160648128,-11,11,36,10,2,2,-1,-5
1517207160648128,-17,-56,-11,-18,-7,-6,-7,-11
1517207160650127,47,28,20,19,4,2,9,10
1517207160650127,11,12,-38,-17,-5,-5,-4,1
1517207160670641,-19,-16,56,12,4,4,11,18
1517207160670641,-8,29,-3,-14,-6,0,3,-2
1517207160672143,18,-19,-32,9,4,0,1,-7
1517207160672143,-17,32,18,19,1,-1,0,-16
1517207160684652,-4,13,8,-20,-4,-1,-4,-6
1517207160684652,8,-43,-20,2,-3,-7,-11,-1
1517207160693157,6,11,3,-16,0,0,1,-3
1517207160693157,-10,-18,21,11,5,6,11,14
1517207160708168,-6,-28,25,6,-5,-3,8,-3
1517207160708168,4,29,-33,12,6,1,-16,-3
1517207160710178,-17,-11,-9,-17,-7,-6,-3,-3
1517207160710178,22,0,8,-11,-8,-3,8,8
1517207160730684,8,15,20,15,4,1,-21,-6
1517207160730684,-2,-24,-18,-8,-2,0,0,2
1517207160732186,-2,6,-51,12,4,4,4,-4
1517207160732186,16,6,24,-20,-11,-6,-6,4
1517207160744693,3,-80,-57,-8,-6,-4,-5,-17
1517207160744693,-40,0,19,6,3,2,2,13
1517207160753701,3,31,18,3,0,0,-3,-15
1517207160753701,3,9,17,10,0,0,2,1
1517207160768211,-9,1,-10,-6,-2,-1,2,9
1517207160768211,7,6,-12,-12,-6,-3,4,5
1517207160769722,14,26,32,7,2,-1,-5,6
1517207160769722,-14,-15,4,-6,0,1,-1,5
1517207160790742,-1,31,-17,18,0,-5,-3,-16
1517207160790742,17,26,60,2,1,-4,-1,9
1517207160792228,-33,9,-26,-19,-8,-1,8,-1
1517207160792228,-7,-17,-5,9,2,1,2,10
1517207160804272,-10,16,-50,1,2,-4,-32,-32
1517207160804272,2,-14,40,-16,-7,-1,0,6
1517207160813244,8,-6,-31,-9,-4,-4,-1,-5
1517207160813244,-11,7,-22,6,3,4,-1,-8
1517207160828258,-9,-25,-21,-16,-6,-2,9,11
1517207160828258,-12,44,28,12,3,-1,5,4
1517207160829756,-11,-36,29,10,4,2,-7,-20
1517207160829756,21,18,22,-9,-3,2,6,8
1517207160850790,-7,32,8,-2,-5,-2,0,-3
1517207160850790,7,8,-22,7,3,-1,6,-6
1517207160853271,10,9,-15,-5,-3,-3,2,36
1517207160853271,-24,-17,27,7,5,2,-8,-45
1517207160880790,9,26,33,11,-1,-3,3,4
1517207160880790,6,-37,-8,-5,1,4,-2,3
1517207160882291,-36,-55,-5,-7,-8,-7,-2,-6
1517207160882291,13,-3,5,0,-3,-7,-8,-2
1517207160887295,-4,-21,-27,5,1,-2,-4,-1
1517207160887295,24,-3,9,-12,0,2,-3,-3
1517207160895801,-6,24,-41,-14,-4,-2,-3,9
1517207160895801,13,4,2,7,1,-2,3,8
1517207160910814,-13,-43,20,1,2,1,1,6
1517207160910814,7,66,24,3,0,-4,-8,-5
1517207160912314,-2,-51,-3,-3,-1,2,2,-7
1517207160912314,-4,8,12,11,5,2,6,19
1517207160933327,-2,27,-32,-4,0,1,2,-8
1517207160933327,1,-12,-9,-7,-8,-5,0,2
1517207160934828,-21,13,-23,0,1,1,-22,-21
1517207160934828,-7,4,29,6,2,0,1,-1
1517207160948339,9,0,4,-6,0,3,8,20
1517207160948339,-3,19,-45,-31,-12,-8,-5,-2
1517207160949839,23,15,46,12,2,2,12,2
1517207160949839,3,6,-11,-7,-6,-3,-5,-3
1517207160970854,12,25,9,12,4,2,-4,-8
1517207160970854,-16,-39,-48,-9,-5,1,3,1
1517207160972355,13,42,66,2,-1,-2,1,10
1517207160972355,-8,-29,-85,-17,-8,-9,-9,-5
1517207160993370,3,-3,26,14,1,-2,1,-6
1517207160993370,-4,8,25,2,1,2,0,5
1517207160994872,1,28,15,8,3,0,2,-1
1517207160994872,4,-24,-35,-14,-7,-2,-6,1
1517207161008381,-5,4,9,2,-1,-3,2,2
1517207161008381,14,-18,4,13,1,0,-4,-11
1517207161009882,-14,-32,-60,-13,-3,-3,-1,1
1517207161009882,5,38,31,-14,-7,-2,2,1
1517207161030896,-15,7,25,6,4,2,5,-5
1517207161030896,4,-17,-54,10,0,-2,-10,-9
1517207161032398,37,29,19,-7,1,0,4,5
1517207161032398,11,13,28,14,4,3,10,10
1517207161053412,-41,-65,-46,-11,-3,-2,-17,-15
1517207161053412,10,22,23,-1,-5,-2,2,-2
1517207161054928,-10,-44,8,15,1,-4,-3,-8
1517207161054928,-17,-43,-117,-36,-9,-5,-11,-5
1517207161067434,23,44,70,0,-2,-3,-1,-1
1517207161067434,-1,6,3,4,-1,1,19,33
1517207161074439,-16,8,-17,7,3,-2,-30,-50
1517207161074439,-3,5,51,7,6,3,3,-2
1517207161090938,13,-8,-4,-5,-3,0,6,16
1517207161090938,-58,-10,-27,0,3,-2,-10,-18
1517207161092440,43,27,2,-16,-9,-4,9,8
1517207161092440,20,16,51,19,5,4,3,3
1517207161113455,2,24,-31,-12,-5,-3,-4,-9
1517207161113455,-8,-1,19,4,1,1,4,2
1517207161114963,20,-5,5,0,-2,-2,9,14
1517207161114963,-26,29,16,4,-1,-2,-12,-21
1517207161127966,-16,-19,-43,-13,-5,-2,7,16
1517207161127966,17,35,17,-2,1,-4,-8,-11
1517207161134473,12,-1,13,-3,-2,-1,6,12
1517207161134473,-2,4,-20,1,-3,-4,-3,-5
1517207161150517,-1,-23,23,9,2,2,3,4
1517207161150517,23,18,-18,-23,-4,-1,-8,-7
1517207161152497,-25,-2,30,-3,-4,-5,-6,-1
1517207161152497,-13,-3,15,10,3,0,3,-3
1517207161173006,2,-1,-55,-11,-1,-2,-1,-6
1517207161173006,6,-11,16,11,2,-1,-4,-4
1517207161175008,-5,0,12,11,5,5,4,8
1517207161175008,9,1,46,-10,-2,-1,3,13
1517207161187522,14,27,-11,-9,-8,-6,-3,-4
1517207161187522,-23,-33,-10,-2,-1,0,2,23
1517207161194513,4,28,-7,-13,-1,1,-6,-28
1517207161194513,-17,-33,4,14,5,2,3,0
1517207161211038,-3,23,23,9,1,-1,-1,12
1517207161211038,-3,2,-44,-16,-11,-7,0,-4
1517207161212525,4,-14,-15,7,3,2,2,8
1517207161212525,4,1,-11,-1,1,-1,-1,5
1517207161233043,-7,-15,10,-1,2,1,-1,-2
1517207161233043,1,-4,16,-1,-3,-4,-1,5
1517207161235057,-3,0,-34,8,1,0,3,-1
1517207161235057,2,15,22,-22,-6,-4,-1,1
1517207161247550,-22,-39,0,8,4,2,-2,-8
1517207161247550,15,-10,-2,5,2,2,-4,-13
1517207161254579,-15,-24,-46,-9,-5,-3,-2,-1
1517207161254579,-2,-40,-42,-3,-2,0,0,3
1517207161270575,0,30,22,6,3,2,3,-5
1517207161270575,-7,-45,16,0,0,1,0,-9
1517207161272577,-2,11,33,1,-1,2,3,6
1517207161272577,10,24,-8,6,4,1,-5,-9
1517207161293093,-44,3,-6,-4,-3,0,14,24
1517207161293093,-2,15,11,7,-2,-6,-25,-28
1517207161295083,-5,-10,-6,2,-1,1,4,11
1517207161295083,4,-19,-23,-17,-7,-5,-7,-11
1517207161307609,17,25,43,3,0,0,-6,-2
1517207161307609,-7,-1,-26,9,2,3,12,14
1517207161314600,-15,-18,-15,-17,-3,-5,-5,-1
1517207161314600,12,-34,-53,1,-2,-3,-8,3
1517207161330620,19,55,37,-17,-11,-9,-3,-9
1517207161330620,-9,24,31,6,6,5,5,-2
1517207161332109,-17,-61,-62,12,1,-3,-6,-6
1517207161332109,1,-2,-1,-22,-4,0,0,2
1517207161353149,29,-20,14,3,0,1,-2,-3
1517207161353149,-25,20,-11,9,5,1,3,-7
1517207161354635,-6,18,-3,-11,-5,-3,-3,-8
1517207161354635,-4,26,35,18,2,-2,7,11
1517207161367134,20,-31,-69,-5,-1,1,-1,3
1517207161367134,15,28,28,-3,-2,-1,-1,-2
1517207161376140,-5,5,27,1,1,3,11,12
1517207161376140,2,21,16,19,4,1,-15,-23
1517207161390666,1,-21,-37,-21,-2,0,-5,-4
1517207161390666,14,8,15,16,4,0,1,16
1517207161392151,10,11,-5,-22,-8,-5,-7,-11
1517207161392151,-15,-33,-32,-8,-5,1,7,3
1517207161413169,-7,-13,15,13,3,-3,6,20
1517207161413169,-2,-28,-9,-14,-4,-2,-18,-31
1517207161414668,-14,-7,-46,9,2,1,4,10
1517207161414668,8,1,35,-3,-1,0,-1,-9
1517207161427178,-15,0,19,0,-2,-1,-4,-2
1517207161427178,-5,-20,-9,8,1,-2,3,6
1517207161436182,6,-3,17,3,3,3,2,4
1517207161436182,-15,-29,-23,-5,0,-1,-3,3
1517207161458222,0,-42,-33,-9,-4,-2,-4,-14
1517207161458222,8,12,17,2,1,0,5,12
1517207161460200,-5,12,31,6,3,0,-2,-8
1517207161460200,6,9,-27,1,0,0,8,6
1517207161473210,-4,-2,43,7,0,-5,-8,-16
1517207161473210,-11,2,-32,-14,-7,0,6,7
1517207161474731,37,26,7,7,-1,-5,-10,-2
1517207161474731,4,18,16,-1,-1,1,3,5
1517207161486719,1,10,-18,0,-1,-3,-2,-8
1517207161486719,-2,1,44,6,2,-1,0,-7
1517207161495727,-12,-36,-61,-14,-4,0,2,9
1517207161495727,2,9,-14,-3,0,-3,-5,-15
1517207161510737,16,-3,-17,7,1,-3,-7,-4
1517207161510737,-18,-9,20,-12,-4,-3,1,4
1517207161512239,-2,-3,65,14,4,0,-2,-7
1517207161512239,10,28,3,22,8,4,14,20
1517207161533252,-1,15,-37,-31,-7,-3,-11,-11
1517207161533252,2,-7,5,1,-2,-3,1,3
1517207161534770,4,11,7,-7,-2,-1,8,-4
1517207161534770,-1,-30,-6,5,-4,-3,-10,9
1517207161546761,-15,-27,25,-8,-1,-1,4,-3
1517207161546761,15,0,-18,0,0,-2,-5,6
1517207161555768,-6,-10,44,1,1,0,5,-3
1517207161555768,-4,-1,-44,3,1,0,-2,-1
1517207161570778,-13,-12,-23,1,-3,-3,7,7
1517207161570778,6,26,25,1,1,-1,-7,-10
1517207161572279,-17,2,19,6,-2,-2,-4,-1
1517207161572279,-54,-14,-6,-15,2,0,2,-5
1517207161593345,-5,15,-13,11,1,1,-3,1
1517207161593345,-6,4,7,-17,2,3,4,-14
1517207161594836,5,15,-13,9,-1,-2,3,41
1517207161594836,13,19,41,-8,-2,-2,-19,-49
1517207161606843,5,38,40,10,3,1,7,25
1517207161606843,-10,-18,-110,-5,-4,-3,-4,-10
1517207161615860,-10,3,4,-2,-2,-1,1,-10
1517207161615860,16,5,18,-3,-2,-3,-8,12
1517207161630860,2,-21,6,8,4,4,0,1
1517207161630860,-1,-9,10,-5,-5,-5,0,-1
1517207161632361,-5,10,-9,-2,-2,-1,-3,-13
1517207161632361,17,-14,-37,-11,1,-3,4,11
1517207161653018,2,9,24,4,-1,-2,-2,-14
1517207161653018,-18,14,-9,-3,0,3,10,16
1517207161655012,-1,-33,-7,-5,-4,-3,-21,-22
1517207161655012,-40,-31,-10,-8,-5,-2,-1,-6
1517207161667007,-11,21,13,18,3,2,4,8
1517207161667007,24,-4,-12,-19,-4,-5,-14,-15
1517207161676023,13,8,17,-1,-2,-3,5,13
1517207161676023,8,-1,-8,7,-2,-5,1,6
1517207161690529,-17,10,-1,-10,-5,-1,-3,-7
1517207161690529,-4,5,2,10,1,-2,4,-1
1517207161692519,-1,-1,-27,-2,-1,0,-7,6
1517207161692519,21,18,52,-4,-2,-2,6,-1
1517207161713033,7,5,-6,-6,-3,-1,2,3
1517207161713033,-1,-38,-54,-6,-2,-3,-8,-4
1517207161715033,-3,-16,-20,1,2,1,3,6
1517207161715033,-11,38,30,6,1,2,12,31
1517207161727052,-5,-9,-4,-4,-3,-4,-19,-49
1517207161727052,18,10,-6,-7,-10,-4,0,10
1517207161736074,3,5,30,1,5,1,2,-14
1517207161736074,8,-26,-74,-10,-5,0,-1,11
1517207161750560,-8,-42,9,4,1,0,3,3
1517207161750560,-4,5,-32,-18,-2,-1,-4,-5
1517207161752558,-2,-9,-18,6,4,1,7,-2
1517207161752558,3,4,53,-2,0,0,-5,-4
1517207161773086,20,15,-6,-1,-2,-1,-4,-2
1517207161773086,-4,17,16,6,1,0,1,7
1517207161774575,-25,-38,-5,-1,-3,-3,1,4
1517207161774575,-12,-20,-5,6,-2,-2,-6,-25
1517207161787095,-21,4,-30,-9,-1,1,6,20
1517207161787095,9,31,56,15,7,5,12,-1
1517207161796091,5,5,-18,-14,-9,-8,-15,-3
1517207161796091,-32,-31,-15,-12,-4,-1,-18,-16
1517207161810600,15,12,20,6,-1,-4,-2,3
1517207161810600,-8,34,34,9,1,2,0,9
1517207161812117,1,15,-26,2,-2,-3,2,-9
1517207161812117,2,-3,-14,-10,-4,-5,-2,-3
1517207161833131,-9,-24,17,-3,-1,-1,0,4
1517207161833131,-8,-41,-1,6,3,-1,-2,1
1517207161834617,-3,17,7,-11,-6,-2,-5,-4
1517207161834617,21,-6,-14,3,-1,-2,-2,-2
1517207161855646,6,18,-12,8,5,3,2,-5
1517207161855646,-6,-64,-44,-31,-11,-4,-1,-1
1517207161857136,-5,-8,42,4,3,0,4,3
1517207161857136,6,16,-21,2,0,-1,3,2
1517207161870654,-26,6,11,1,-2,-1,0,5
1517207161870654,-10,7,-7,-1,-4,-5,0,14
1517207161872144,17,-4,-37,0,3,-1,-8,-35
1517207161872144,1,21,49,4,-7,-5,2,5
1517207161893161,26,-16,-1,-7,3,-2,1,11
1517207161893161,-7,4,7,-2,-1,0,1,-13
1517207161895159,11,33,36,8,0,1,5,9
1517207161895159,-4,-48,-41,-5,0,-4,0,3
1517207161915733,22,-17,-45,-8,-4,1,-4,-29
1517207161915733,3,-13,-6,-1,-3,-4,-2,1
1517207161917234,3,9,26,2,-1,0,-1,6
1517207161917234,25,-10,-18,3,0,0,1,-2
1517207161931243,-26,-21,32,-1,-4,-2,2,6
1517207161931243,26,10,40,6,5,-1,-5,-10
1517207161932767,-1,22,-52,-14,-10,-4,-2,1
1517207161932767,-4,27,29,2,0,1,0,-1
1517207161953776,5,10,15,13,3,3,6,16
1517207161953776,-30,4,3,2,-4,-3,-6,-16
1517207161959273,15,-2,8,-15,2,0,2,10
1517207161959273,0,-1,-1,-3,-1,-1,1,1
1517207161975797,3,49,26,5,3,-3,-5,-1
1517207161975797,-1,-33,-23,3,-2,-3,-2,3
1517207161977275,5,-16,-8,4,-1,1,1,-14
1517207161977275,-8,29,45,6,4,2,13,13
1517207161990285,-17,-12,-32,-13,-4,-3,-16,-18
1517207161990285,2,-33,-21,15,2,0,-2,-4
1517207161996795,-9,-6,-14,-17,-5,-3,-2,6
1517207161996795,20,-22,-17,5,2,0,3,2
1517207162013303,-11,6,27,17,6,2,0,-4
1517207162013303,-1,37,-38,-15,-4,-1,5,13
1517207162014805,16,-8,25,1,0,1,3,5
1517207162014805,-2,23,16,5,2,-1,-5,-3
1517207162035835,2,-22,-51,-23,-9,-7,-3,-7
1517207162035835,-7,-3,19,19,4,4,-5,3
1517207162037319,12,-48,-30,-18,-4,-5,3,2
1517207162037319,-22,29,20,1,-2,-3,-8,-8
1517207162050099,2,-41,-40,-8,-3,-4,-3,4
1517207162050099,4,27,-6,11,3,4,4,-5
1517207162057113,-4,12,18,1,-1,-3,-14,-11
1517207162057113,-28,-33,-39,-9,-2,-1,1,-6
1517207162073112,1,9,9,-2,-2,-3,-6,12
1517207162073112,23,-5,-33,-4,-2,0,1,-20
1517207162075138,-24,-14,20,9,0,-1,1,2
1517207162075138,-21,3,-7,1,-2,0,-3,-2
1517207162096120,16,33,46,7,2,0,2,-7
1517207162096120,-19,18,-45,-10,-4,-2,2,9
1517207162097119,-15,2,-13,-5,-3,2,2,-1
1517207162097119,9,8,1,-2,1,0,1,-5
1517207162110128,5,-9,4,-3,-1,0,3,7
1517207162110128,4,17,35,-1,0,-3,-5,0
1517207162117132,3,17,33,23,6,4,5,3
1517207162117132,-6,-4,-42,-23,-3,-1,-5,-1
1517207162133144,7,5,-13,-7,-4,0,2,-9
1517207162133144,-7,-15,30,-6,-1,-2,-5,0
1517207162134645,-15,3,2,9,1,-4,1,1
1517207162134645,8,8,16,-2,1,-1,8,8
1517207162155681,-13,-3,21,1,0,7,-1,-24
1517207162155681,1,-11,-29,-5,-2,1,1,5
1517207162157170,4,-5,-1,2,0,1,5,5
1517207162157170,17,-6,-5,9,0,-3,-8,7
1517207162170179,-23,-26,-12,-3,-5,-5,-1,10
1517207162170179,4,35,20,-4,1,-1,-4,-25
1517207162177180,-36,-21,4,1,-1,-2,-9,0
1517207162177180,22,-30,-14,-7,-4,-2,1,-8
1517207162193195,9,51,16,8,3,-1,3,20
1517207162193195,-8,-11,23,-3,-5,-4,-4,-2
1517207162194688,4,23,-10,-4,-5,-4,3,4
1517207162194688,-16,10,-1,-2,1,4,0,-17
1517207162215702,23,-36,-7,-9,-3,-4,1,3
1517207162215702,0,-15,3,5,3,-2,-2,2
1517207162217203,10,5,11,-1,-1,1,0,-6
1517207162217203,9,19,28,9,-6,-3,-4,8
1517207162230712,-16,6,-28,-16,0,-1,-3,-13
1517207162230712,-2,-48,-12,-6,-1,-3,-4,-1
1517207162237217,22,10,15,8,2,0,2,11
1517207162237217,-8,22,-8,7,4,4,1,-4
1517207162253267,2,-8,-19,-9,-3,-2,1,-1
1517207162253267,6,-11,-5,9,-2,-1,8,16
1517207162254763,8,-26,-65,-22,-4,-3,-11,-13
1517207162254763,-27,-8,15,4,-2,0,12,33
1517207162275253,-6,-26,-29,2,2,-1,-13,-26
1517207162275253,17,10,31,-8,-1,1,4,1
1517207162281748,0,5,-14,9,-1,-2,-6,-6
1517207162281748,6,43,2,-1,0,2,2,6
1517207162290258,3,-2,33,4,2,0,6,12
1517207162290258,-30,-37,-35,-6,-6,-4,-5,-5
1517207162297262,8,17,18,4,4,3,2,-1
1517207162297262,6,-7,-9,-5,-3,-4,-9,-7
1517207162313305,-15,16,-16,-2,-3,-1,2,-2
1517207162313305,-14,38,26,16,6,3,-2,-10
1517207162314791,-4,-23,4,-21,-8,-5,-3,-1
1517207162314791,-15,-59,-19,4,3,0,-1,-11
1517207162335887,13,-22,-25,-4,-5,-5,-2,6
1517207162335887,3,5,6,2,3,3,-1,-3
1517207162337366,-1,7,7,1,-2,-2,4,8
1517207162337366,15,1,6,14,1,-2,-14,-29
1517207162349397,-20,-7,-6,-21,-5,-1,1,5
1517207162349397,4,-1,6,0,-2,0,-1,-6
1517207162358391,-7,3,6,-5,1,2,12,11
1517207162358391,26,17,1,-10,-5,-7,-20,-10
1517207162373401,-6,12,1,14,-1,-2,4,12
1517207162373401,-1,-16,1,-14,-3,-2,-4,3
1517207162374893,-1,-12,41,20,1,-2,0,0
1517207162374893,-3,2,-29,-25,-7,-1,3,4
1517207162395909,8,-26,-30,3,-2,-4,-5,-8
1517207162395909,14,7,7,-2,-3,-4,-4,1
1517207162397409,-8,23,-32,0,0,-2,-9,-15
1517207162397409,-9,-8,45,0,-1,0,5,3
1517207162409470,10,9,-18,2,2,0,-2,-3
1517207162409470,8,9,28,-1,-3,-2,3,5
1517207162418072,2,-6,-34,-5,-3,-2,-7,-9
1517207162418072,-16,-27,0,7,-1,-3,-1,-1
1517207162433082,-17,14,24,-4,2,3,3,4
1517207162433082,14,-8,-15,0,-1,-3,-3,-9
1517207162434583,-24,-42,-44,-22,-6,-5,0,-12
1517207162434583,4,16,5,7,1,-1,7,15
1517207162455112,3,3,-13,-13,-3,-3,-17,-8
1517207162455112,11,1,3,-1,-3,-1,-1,0
1517207162455598,-14,-18,-2,3,2,4,2,-4
1517207162455598,11,3,18,6,0,-1,8,17
1517207162477630,4,41,39,9,1,-1,1,-10
1517207162477630,-2,2,-45,-17,-6,0,0,5
1517207162478113,-7,18,60,6,-2,-3,-7,-8
1517207162478113,8,29,8,-3,-1,0,-3,4
1517207162492627,-5,-35,-49,8,2,2,11,8
1517207162492627,-5,15,14,2,-3,-2,-2,7
1517207162493125,4,6,-35,-2,2,4,3,1
1517207162493125,-17,-9,14,-1,-3,-1,-1,-15
1517207162515148,-14,-11,23,-2,-3,-1,0,7
1517207162515148,-5,-7,-22,-12,-5,-1,-1,-4
1517207162515641,14,18,-17,4,1,-1,0,3
1517207162515641,-11,7,5,-11,-3,-2,-8,-10
1517207162537669,27,9,5,2,-1,-2,-3,1
1517207162537669,-1,-10,14,-2,0,-3,1,0
1517207162538158,1,24,-1,0,-4,-3,-3,-1
1517207162538158,2,-13,-15,-2,0,0,3,10
1517207162552690,10,-8,11,13,1,-3,-5,-30
1517207162552690,-10,1,-4,3,0,0,5,-1
1517207162553166,13,-7,43,-12,1,1,2,8
1517207162553166,0,18,25,9,4,2,0,-11
1517207162575239,-10,7,-24,-14,-7,-4,2,12
1517207162575239,9,-11,-9,8,3,2,-1,3
1517207162575738,0,32,35,6,0,0,1,9
1517207162575738,2,-26,-9,3,2,0,-3,-6
1517207162597764,15,20,35,8,3,3,2,4
1517207162597764,-9,15,-13,-3,-1,-2,-3,-13
1517207162598766,-9,-33,-27,2,0,0,4,11
1517207162598766,-3,-11,-36,-7,-4,-2,-13,-24
1517207162612768,5,22,10,0,2,5,7,11
1517207162612768,-3,-18,16,-1,-2,-3,-4,-4
1517207162613268,-4,33,34,7,4,5,3,-4
1517207162613268,4,-39,-68,4,1,1,5,5
1517207162635299,5,-3,16,-17,-6,-7,-9,-11
1517207162635299,-44,-38,-31,-2,-1,-2,-3,-7
1517207162642788,2,-2,-25,-8,-4,-2,-1,-2
1517207162642788,2,13,22,0,-3,-2,0,-1
1517207162657796,-4,17,2,12,5,2,-1,-3
1517207162657796,1,-32,-27,-12,-5,-6,-5,10
1517207162658297,1,-16,-5,1,-1,-1,-4,2
1517207162658297,-3,-3,-8,1,1,2,2,-3
1517207162672319,-16,6,25,-3,-4,-5,-15,-11
1517207162672319,15,31,30,15,2,1,3,9
1517207162673307,8,-31,-25,-6,-1,-1,-1,-13
1517207162673307,-32,12,2,-13,-5,-3,-2,2
1517207162695327,-11,-19,4,8,3,2,2,-6
1517207162695327,-4,17,34,18,6,6,6,3
1517207162695825,-3,11,7,-28,-9,-7,-10,-13
1517207162695825,6,13,6,5,1,1,5,5
1517207162717339,28,-19,-21,-5,-4,-3,-2,4
1517207162717339,-29,19,28,18,7,3,3,-6
1517207162718340,-1,-14,-16,1,-2,-2,4,13
1517207162718340,6,-3,-7,-14,-6,-4,13,-2
1517207162732852,-5,-10,-20,-4,0,-3,-20,-14
1517207162732852,25,0,-28,-17,-3,1,4,3
1517207162733351,-14,-15,3,7,3,-1,-7,-8
1517207162733351,-18,20,17,-3,-1,-1,9,10
1517207162763372,-1,-24,-34,-2,0,1,5,6
1517207162763372,8,12,25,4,2,0,-6,-7
1517207162763872,-1,10,16,-9,-2,-4,-2,-1
1517207162763872,10,-12,-36,-8,-5,-2,-5,-5
1517207162778389,-15,-21,27,8,2,1,0,-7
1517207162778389,0,4,17,-11,-1,-1,-2,1
1517207162778886,5,-1,18,14,2,0,1,3
1517207162778886,4,0,-14,1,1,-1,-5,-1
1517207162792406,0,38,25,-7,-3,-2,2,0
1517207162792406,0,-6,-4,2,1,-1,1,-1
1517207162793394,0,0,-6,3,-4,-2,-4,-1
1517207162793394,8,8,8,3,0,3,-4,-1
1517207162814920,-7,14,8,-4,-4,-2,5,12
1517207162814920,9,-24,-25,-4,-2,-3,-12,-36
1517207162815908,-25,3,10,3,-2,0,18,40
1517207162815908,2,-6,-1,11,3,-2,-25,-23
1517207162838424,-5,-25,-28,-25,-6,-1,8,9
1517207162838424,10,17,21,-2,-2,-2,0,-8
1517207162838925,0,12,10,11,2,3,25,21
1517207162838925,40,-34,-24,-6,-1,-2,-49,-41
1517207162852457,-18,9,-7,2,1,3,2,5
1517207162852457,-8,12,24,7,1,0,-6,-34
1517207162853455,4,6,-11,3,1,-7,-10,23
1517207162853455,-5,-21,-5,-17,-7,-3,23,18
1517207162875468,2,1,-17,3,-1,-2,0,45
1517207162875468,-7,-12,-6,-22,-5,-4,-27,-43
1517207162876462,10,-13,-13,6,1,3,25,-11
1517207162876462,-9,11,39,-5,-2,-5,-9,-16
1517207162898466,-1,-8,-11,4,2,0,11,0
1517207162898466,-8,-11,-38,-2,-4,-1,5,26
1517207162898968,-1,-7,7,-8,-3,-2,-11,-13
1517207162898968,-2,14,26,5,2,1,11,14
1517207162912476,3,11,28,10,3,2,1,-16
1517207162912476,1,-32,-28,-10,-4,-1,10,33
1517207162913477,3,9,11,-3,-3,1,-20,-44
1517207162913477,-7,-2,0,-4,-4,-1,15,14
1517207162935029,3,5,37,10,2,-2,-9,-29
1517207162935029,-3,-39,-77,-9,-3,-2,2,24
1517207162936014,2,17,2,-6,-2,1,2,0
1517207162936014,-6,9,33,17,2,0,7,-1
1517207162958027,0,-5,-17,-14,-1,-1,-6,-10
1517207162958027,-5,1,18,-4,-3,-2,4,6
1517207162959019,-6,-10,-26,2,1,-2,-8,-15
1517207162959019,0,-14,18,2,-1,1,8,28
1517207162972786,-7,-10,-2,-2,-5,-4,-18,-35
1517207162972786,6,37,12,2,2,0,7,19
1517207162973276,-4,-24,-14,-6,-2,-3,-12,-5
1517207162973276,-2,14,14,1,2,-1,-2,-5
1517207162995296,-2,-10,-23,-3,-2,-2,0,8
1517207162995296,-3,-12,14,6,-1,-2,0,-7
1517207162995793,1,-2,-6,-7,2,1,-7,-8
1517207162995793,-3,0,-9,-5,-3,-3,-1,2
1517207163018308,2,-5,-13,2,0,2,8,6
1517207163018308,-2,8,-1,0,-2,-4,-8,-5
1517207163018808,3,-1,-1,3,3,2,4,3
1517207163018808,-6,-5,-7,-7,-2,-1,-2,-5
1517207163040827,1,-6,-31,-9,-3,-3,-5,1
1517207163040827,-4,10,29,8,2,-1,-9,-10
1517207163041324,-2,-5,-6,-1,-4,-3,9,13
1517207163041324,-1,-5,-25,-5,0,0,-4,-2
1517207163054837,4,12,20,4,-1,-1,5,3
1517207163054837,2,6,2,1,0,-1,0,-1
1517207163055834,-2,-10,-1,-1,0,2,-6,-7
1517207163055834,1,10,-1,2,0,-2,-2,-2
1517207163078362,0,-4,-2,0,-1,-2,1,5
1517207163078362,1,0,3,-5,-4,-3,0,0
1517207163078850,-1,1,7,1,0,-2,-6,-4
1517207163078850,-2,-5,-13,0,-3,-4,-3,-3
1517207163093862,-5,-22,-22,-6,-2,0,-2,2
1517207163093862,1,15,12,0,-1,-1,1,0
1517207163094862,0,-5,-7,-2,-3,-1,-2,1
1517207163094862,-1,2,1,3,0,0,-1,-3
1517207163114877,0,7,2,-6,0,-2,0,1
1517207163114877,-3,-10,11,3,-1,1,1,0
1517207163115887,-2,3,-11,-9,-3,-1,-4,-4
1517207163115887,-2,1,-2,-5,-1,-1,1,0
1517207163138396,0,1,6,5,0,2,-2,-3
1517207163138396,-1,-3,-6,-6,0,-1,1,3
1517207163138893,-2,2,10,7,1,-2,-4,-5
1517207163138893,0,-7,-22,-9,-4,0,0,0
1517207163152473,-4,-2,-1,-2,0,-2,-3,-2
1517207163152473,0,2,7,0,-1,-3,-1,0
1517207163153445,-1,-3,-15,-5,-3,-1,-5,-4
1517207163153445,-1,1,-4,-3,-1,-1,0,7
1517207163174951,0,-6,5,1,-1,0,2,-4
1517207163174951,0,4,-3,-3,-3,-1,-2,1
1517207163175952,0,0,0,-1,-1,-2,-1,-3
1517207163175952,-4,-5,-3,2,1,-1,-1,-2
1517207163198467,-2,-1,-6,0,-1,-2,-2,-1
1517207163198467,-1,2,2,6,-1,0,1,-1
1517207163198983,0,-1,-6,-20,-2,-1,-1,0
1517207163198983,-1,-5,-1,2,1,-1,-2,-3
1517207163212480,-1,2,6,2,-1,0,2,2
1517207163212480,0,-2,-8,-2,-1,-1,-2,-3
1517207163213479,-1,-2,-1,2,-3,-2,-1,-1
1517207163213479,0,2,6,0,-3,-2,-2,-3
1517207163235011,-2,-1,-1,-1,2,0,-2,-2
1517207163235011,0,0,-5,-9,-3,-1,0,2
1517207163236013,-4,-1,7,5,-1,-1,-1,-2
1517207163236013,1,0,4,7,4,0,0,2
1517207163258024,-3,-3,-13,-6,0,-1,-3,-3
1517207163258024,-1,-1,8,4,-1,-1,-1,0
1517207163259011,-1,-3,-2,0,-2,0,-1,-2
1517207163259011,-1,2,6,2,-1,1,-1,-2
1517207163272519,-2,-2,2,4,0,-2,-3,-2
1517207163272519,0,-1,-11,-4,-1,0,-3,-1
1517207163273521,-1,-4,1,0,0,-2,-1,2
1517207163273521,-1,-3,1,4,-1,0,-2,-2
1517207163295038,0,-1,0,-4,-1,0,0,-1
1517207163295038,-1,0,-3,-7,0,-1,1,0
1517207163296037,-1,1,2,3,-2,-2,-2,-3
1517207163296037,-2,-4,-7,-8,-1,0,-2,-4
1517207163318100,0,-1,0,2,-2,0,3,2
1517207163318100,-3,-3,-1,2,0,2,-2,-7
1517207163319101,-1,-2,-2,-2,0,0,5,4
1517207163319101,-1,0,-4,-1,0,-1,0,0
1517207163332622,-2,0,-1,-3,-3,1,-3,0
1517207163332622,-1,1,-2,0,2,-1,-2,-2
1517207163333110,0,0,-3,0,-1,-1,-1,-3
1517207163333110,-2,-1,-3,-6,-3,-3,0,-1
1517207163355129,0,0,0,1,-1,-1,-1,-2
1517207163355129,-1,-2,-3,-4,0,-2,1,2
1517207163355627,-2,-1,-1,0,-1,0,-3,0
1517207163355627,0,0,-1,-4,-2,-2,-1,0
1517207163378643,-1,-2,-2,-2,0,-2,-2,-1
1517207163378643,-1,0,1,-1,-1,-1,0,0
1517207163379144,-2,-1,-4,-1,0,-4,-1,-3
1517207163379144,-2,-1,3,-1,1,-1,-3,-2
1517207163392162,0,1,0,0,-2,0,1,-1
1517207163392162,-2,-2,-3,-2,0,0,0,-2
1517207163399858,0,1,1,2,0,1,1,1
1517207163399858,0,1,-3,-2,-2,0,-4,-8
1517207163414869,-2,-5,-3,-1,0,-4,-2,2
1517207163414869,2,7,-2,1,0,0,-1,3
1517207163415871,-3,-6,-2,-2,-2,-1,-2,-3
1517207163415871,-3,-1,-3,-2,-3,-3,1,-2
1517207163438399,-1,-6,1,0,-3,-3,-4,-4
1517207163438399,-3,-3,-3,0,-2,-4,-2,-4
1517207163438886,-2,-5,-2,-2,1,0,-1,0
1517207163438886,-1,5,0,-1,0,2,1,2
1517207163451919,-1,-2,0,-1,-2,-2,-2,-3
1517207163451919,0,1,-1,0,-2,-1,0,2
1517207163459914,2,1,-2,0,-1,0,-3,-3
1517207163459914,0,-1,-1,-1,-3,-2,0,0
1517207163474921,-1,4,0,-1,0,1,1,1
1517207163474921,-1,-3,0,0,-1,1,1,0
1517207163475922,-1,1,1,-1,-1,0,-1,-1
1517207163475922,-1,-2,-1,0,0,-1,-1,0
1517207163498946,-1,-2,-1,-3,-1,0,-1,1
1517207163498946,0,-3,-2,-1,1,-1,0,-1
1517207163499451,-1,0,-1,-2,0,-1,-1,-1
1517207163499451,-1,-3,-3,-1,-1,-3,-1,0
1517207163511949,-2,-1,-2,-2,-2,-1,0,-1
1517207163511949,-1,-2,0,-2,0,-1,0,1
1517207163519953,-1,2,-2,1,-2,-3,-3,-2
1517207163519953,-1,-2,-2,-2,0,-3,-3,1
1517207163542984,0,0,0,-1,0,-2,0,-1
1517207163542984,2,-1,0,-1,-2,0,0,-1
1517207163543963,-1,-1,-1,-2,0,-1,0,-3
1517207163543963,-2,-1,-1,0,-2,-1,-1,-1
1517207163557973,1,-1,-2,-2,0,-1,-1,-2
1517207163557973,-1,-2,-1,1,-2,-1,-1,-2
1517207163558971,-1,-1,-2,-2,-1,-3,0,1
1517207163558971,-1,-3,-1,0,-2,1,0,-1
1517207163571980,-2,0,0,0,-1,-1,-1,0
1517207163571980,0,-1,-3,-2,-2,-2,-3,-2
1517207163579996,1,-1,-2,-2,-1,1,0,-1
1517207163579996,0,-2,-1,-1,0,-1,-2,-1
1517207163595508,0,0,-2,0,-1,-1,0,2
1517207163595508,0,-2,-1,-1,-2,-1,-2,0
1517207163596500,0,-1,-1,-1,-1,-1,-2,-1
1517207163596500,0,0,0,-2,0,-2,0,-2
1517207163618012,0,-2,-1,0,-2,-1,-1,-3
1517207163618012,0,-1,-1,-1,-1,0,-2,-2
1517207163619013,-2,-2,-1,-1,-2,-3,-1,0
1517207163619013,-1,0,0,0,-2,0,0,-1
1517207163632032,-1,-1,-1,-3,-4,-1,-1,-1
1517207163632032,0,0,-2,-1,0,-1,1,0
1517207163640050,1,-1,0,-1,-2,1,-1,0
1517207163640050,0,-2,-3,-1,-1,-1,-1,-1
1517207163655562,0,-2,-1,-2,-1,-2,-2,-1
1517207163655562,-1,1,-1,-1,-1,0,1,0
1517207163656041,-1,1,-2,-2,-1,-1,-1,-1
1517207163656041,-1,-1,-1,-3,-1,-1,-1,-1
1517207163678557,-1,-1,-1,-1,1,0,-1,-3
1517207163678557,0,-1,-1,0,0,0,1,4
1517207163679559,-3,1,-3,-2,-1,0,-2,-3
1517207163679559,-2,-2,0,0,-2,0,0,0
1517207163700574,-1,-1,-1,0,-1,1,0,-1
1517207163700574,-2,-1,-1,-2,-2,-2,-3,-1
1517207163701572,0,-2,-1,-1,-2,-1,0,-1
1517207163701572,0,-1,-2,-1,-1,-2,-1,-1
1517207163715081,-2,-2,-1,-1,0,-1,-1,-3
1517207163715081,-1,-2,0,0,-1,-3,-1,-3
1517207163715582,1,-1,-1,-1,-1,-1,-1,2
1517207163715582,-2,-1,-2,-1,0,0,-1,-1
1517207163738132,-1,1,1,0,-1,0,-3,-1
1517207163738132,-3,-1,-3,-3,-1,-1,-3,-3
1517207163739134,-2,-2,0,0,-1,-2,-1,-1
1517207163739134,0,-1,-2,-2,-1,-2,-1,-1
1517207163760615,-1,-1,-1,-1,-1,-1,0,0
1517207163760615,-1,-3,-2,-2,-1,-1,-3,-2
1517207163761615,-2,-2,-1,-1,0,-2,-3,-2
1517207163761615,-1,-1,-3,-2,-2,-2,0,-1
1517207163775127,0,-1,-1,-2,0,-1,-1,0
1517207163775127,-2,-2,0,-1,-3,-1,-2,-3
1517207163775624,0,0,-1,-1,0,-1,-2,1
1517207163775624,0,0,0,-1,0,1,-2,-1
1517207163798151,-2,-1,-1,-1,0,-1,-2,1
1517207163798151,0,0,-1,1,0,-1,0,-1
1517207163799141,-1,-1,0,0,-2,-2,-1,-2
1517207163799141,0,-2,-1,-2,-2,-1,1,-2
1517207163820670,-1,-1,0,-2,0,-1,-2,0
1517207163820670,-1,-2,-1,-2,-1,-1,-2,-1
1517207163821677,0,-3,-2,-1,0,-1,-1,-2
1517207163821677,-1,0,0,-1,-1,-2,-2,0
1517207163835166,-1,-2,-2,0,-2,-2,-1,-3
1517207163835166,0,-1,-2,0,-1,0,-1,0
1517207163835667,1,0,-1,0,-1,-2,0,0
1517207163835667,-3,0,-1,0,-1,-1,0,-2
1517207163858186,-3,0,-2,-2,0,-2,-1,1
1517207163858186,-2,-2,-1,-2,-1,-1,0,-1
1517207163859183,-1,0,-1,-3,-1,0,0,-1
1517207163859183,1,-2,-3,0,-1,-1,-1,-1
1517207163880708,2,1,0,-2,-2,-1,1,0
1517207163880708,-3,-2,-2,1,-1,0,-1,-1
1517207163881200,-2,0,-2,-2,-1,0,-2,0
1517207163881200,0,-2,-1,-1,-1,0,-1,0
1517207163895209,-1,-1,0,-2,-2,-2,-2,1
1517207163895209,-1,-1,0,-1,-1,-2,-1,0
1517207163895712,-1,-2,-1,0,1,-3,-1,-2
1517207163895712,-1,0,1,0,-1,-2,-1,0
1517207163918235,-1,0,-2,0,-1,-1,-1,-1
1517207163918235,1,-1,-2,-2,-3,-3,0,-2
1517207163918726,1,0,0,-2,-2,0,1,0
1517207163918726,-2,-1,-2,-2,-1,0,0,-2
1517207163940800,-1,0,-1,-2,-1,-2,0,-3
1517207163940800,0,-1,1,-2,0,0,-2,0
1517207163941282,0,-2,-2,0,0,-2,1,0
1517207163941282,-1,-2,-1,-2,0,-1,-2,-1
1517207163954863,-1,-1,-2,0,-2,-2,-1,-4
1517207163954863,-1,0,-2,-1,0,-2,-1,0
1517207163955866,-1,-4,0,0,-1,-1,-1,-1
1517207163955866,-1,-1,0,-1,0,-2,-1,0
1517207163978361,-2,-2,-1,-2,0,0,1,-1
1517207163978361,-2,1,0,-2,0,0,-2,-2
1517207163978858,0,0,-1,-1,-1,1,-1,-2
1517207163978858,0,-1,-2,0,0,-1,-2,-1
1517207164000885,-1,-3,-1,0,0,-3,-2,-1
1517207164000885,0,-1,0,1,-2,0,-1,-1
1517207164001374,-1,-2,-1,-1,0,0,-2,-2
1517207164001374,-1,0,0,-1,-1,0,-1,0
1517207164014884,0,-1,0,0,-1,0,1,0
1517207164014884,0,0,-1,-3,-2,-1,-1,0
1517207164015884,0,-2,-1,-2,-2,-3,-1,-1
1517207164015884,-1,0,0,-1,-2,-1,-2,-1
1517207164038441,0,-2,-1,0,-2,-1,-2,1
1517207164038441,-2,0,0,-1,-1,-1,-1,0
1517207164038942,-3,0,-1,-2,-1,-1,0,-3
1517207164038942,1,0,0,-1,-1,0,0,1
1517207164067966,-1,-1,-1,-1,-2,0,-1,-1
1517207164067966,1,-1,-2,-1,-1,-1,-1,-1
1517207164068953,-1,-2,-3,-1,-1,0,-2,0
1517207164068953,-1,-1,-2,-1,0,-1,-2,-3
1517207164074973,-3,1,0,0,-1,0,-2,-2
1517207164074973,-1,-2,0,0,-1,-1,0,-2
1517207164075981,-1,0,0,-1,-2,0,-2,-1
1517207164075981,-1,-1,-2,-2,-2,-2,3,4
1517207164098474,0,-1,0,-2,0,-2,9,5
1517207164098474,1,1,-1,-1,0,1,-5,-6
1517207164098975,-1,0,1,-2,-1,-2,-10,-6
1517207164098975,-1,-2,-1,0,0,0,1,2
1517207164120500,-2,-3,-1,0,-1,-1,-4,-3
1517207164120500,-3,-2,0,-2,-2,-1,7,4
1517207164121491,0,1,-2,0,0,-2,1,1
1517207164121491,0,0,0,-1,-2,0,-4,-3
1517207164135012,0,-2,-2,-1,-1,-1,1,0
1517207164135012,-2,-2,-1,-2,-1,-2,-2,-5
1517207164136011,1,-1,-1,-1,-1,-1,-1,-2
1517207164136011,0,-1,0,-1,-3,-1,-1,0
1517207164158024,-2,-2,-1,0,0,-2,-4,-6
1517207164158024,-2,-3,-3,0,0,-1,-2,-2
1517207164159017,-3,0,-3,-1,-2,-1,1,1
1517207164159017,0,-1,-1,-1,-1,-2,1,-3
1517207164180533,1,0,0,-1,-1,-2,-1,1
1517207164180533,0,-1,0,-1,-1,-1,-2,0
1517207164181535,-1,0,-1,-1,-1,-1,1,1
1517207164181535,-1,-2,-1,-2,-1,-1,-3,-3
1517207164195045,-1,0,-2,0,-1,-1,-3,-3
1517207164195045,-1,-2,-2,0,-1,-3,0,2
1517207164195544,-3,-1,-1,-2,-1,-1,0,-2
1517207164195544,-1,-2,-1,-1,-1,-1,-3,-1
1517207164218060,0,-2,-1,-3,-2,0,-1,-1
1517207164218060,-2,-2,-1,0,0,-1,2,1
1517207164219060,-2,-3,-1,0,-1,0,1,-2
1517207164219060,-1,-2,-1,-2,-1,-1,5,1
1517207164240603,-1,-1,0,0,0,-4,-20,-7
1517207164240603,0,-1,-1,-2,-2,-1,-1,-1
1517207164241597,-1,-1,-1,-2,0,1,-2,-4
1517207164241597,-2,-2,-2,-1,-2,-1,3,2
1517207164255088,0,-1,-2,0,-2,0,3,1
1517207164255088,2,-1,0,-2,-4,-2,-3,-3
1517207164255586,-2,-1,0,-1,0,-2,0,1
1517207164255586,-1,-1,-2,-1,-2,-3,-4,-4
1517207164278602,1,-1,-1,-3,0,1,1,0
1517207164278602,-1,0,-2,-1,0,0,-1,0
1517207164279106,-1,-2,1,0,-2,-3,1,0
1517207164279106,-3,-1,0,0,0,-1,-5,-2
1517207164300635,-1,-1,0,0,0,0,3,1
1517207164300635,0,0,-2,0,-2,-1,-1,2
1517207164301633,0,0,-2,0,0,0,-1,-1
1517207164301633,-1,-2,-1,1,-1,-1,-5,-6
1517207164314141,-2,-1,-1,-1,-2,-2,3,3
1517207164314141,-1,-2,-2,-1,1,0,0,-2
1517207164322646,0,-2,-2,0,-3,-2,-2,-1
1517207164322646,1,0,-2,-1,-1,-3,-2,-1
1517207164338168,-1,-1,0,-3,-2,0,3,-1
1517207164338168,-2,0,0,0,-1,-1,-3,0
1517207164339145,0,-2,-2,-1,0,0,-3,-1
1517207164339145,-2,0,-2,-1,-1,-2,-1,-1
1517207164360661,0,0,-1,0,-3,-1,0,-1
1517207164360661,-1,-1,-1,-3,0,-2,-2,-3
1517207164361161,-1,0,-2,-1,0,-1,-1,0
1517207164361161,-1,0,1,0,0,-1,1,1
1517207164374169,-1,-2,-3,0,-1,-2,0,-3
1517207164374169,0,-2,-2,-1,-1,-1,-1,-3
1517207164382675,1,-2,0,-1,0,0,1,4
1517207164382675,-2,-2,-1,-1,-2,0,0,-3
1517207164398197,-3,-2,-3,-1,0,-1,-2,-2
1517207164398197,-1,0,1,-3,-1,-1,0,0
1517207164398717,0,1,-2,-1,-2,-1,-1,-3
1517207164398717,0,-1,-1,-1,1,1,-1,0
1517207164420711,-1,-2,-2,-1,1,-1,-1,-1
1517207164420711,-1,-1,-2,0,0,1,0,-1
1517207164422213,0,-1,-1,2,-2,0,-3,-2
1517207164422213,0,0,0,-1,-1,-1,0,1
1517207164434221,0,2,-3,-1,-2,-1,-1,-1
1517207164434221,-1,-2,-1,-1,-1,-2,-1,0
1517207164442251,-1,-2,-1,-2,-2,0,-2,-4
1517207164442251,0,-1,-1,-2,-1,-3,-2,-2
1517207164458232,-1,-1,0,-1,-1,0,-1,0
1517207164458232,-1,0,-1,-1,-1,1,-2,-1
1517207164458730,-1,0,-1,0,-1,0,0,-1
1517207164458730,-2,-2,-1,-2,-2,-1,-1,0
1517207164481246,0,0,-1,-3,0,-2,0,0
1517207164481246,-2,-1,-1,-1,-2,-1,-1,-3
1517207164481748,0,-1,0,-1,-3,-2,-1,-1
1517207164481748,-1,0,-2,0,-1,-1,-2,-2
1517207164494757,0,-2,0,-1,-2,-1,-1,0
1517207164494757,0,-1,-2,-1,-1,-1,-3,0
1517207164502319,-1,-2,-2,-2,1,-1,-2,-4
1517207164502319,-2,-1,-1,0,-2,-1,2,4
1517207164518286,-1,-1,-2,-3,0,-1,2,0
1517207164518286,-3,-1,0,0,-1,-2,-2,-1
1517207164519772,-2,1,-1,-1,-3,-1,-3,-1
1517207164519772,0,-1,-1,-3,0,2,-2,-3
1517207164540808,-2,-1,-2,-1,-1,-1,-3,-2
1517207164540808,-1,-3,-1,-2,-2,-1,1,0
1517207164542310,-1,-3,-1,-1,-2,-2,-1,1
1517207164542310,-1,0,0,-1,-3,-1,-1,-2
1517207164554297,0,-1,0,-1,-2,0,-1,-1
1517207164554297,-1,0,0,-1,-1,-1,-1,-3
1517207164563304,-1,1,-2,-1,0,-1,-1,-1
1517207164563304,-1,-1,-2,-1,-1,-1,-1,-2
1517207164578314,-1,-1,-1,-2,-3,-1,-2,-2
1517207164578314,0,-1,-2,0,-1,-1,0,-1
1517207164579816,-1,-2,0,-2,-1,-1,1,1
1517207164579816,0,-2,-1,-1,0,-2,-3,-3
1517207164600839,-1,-1,0,-1,-1,1,-3,-2
1517207164600839,-1,-2,-2,-1,-1,-1,1,-1
1517207164602334,-2,-2,-2,-1,-1,0,0,-3
1517207164602334,0,-2,-2,-1,-1,-1,-1,-2
1517207164623385,-1,-2,0,-1,-2,-1,-3,0
1517207164623385,-1,-1,-1,0,0,-1,-1,1
1517207164624862,-2,-2,-2,-2,-1,-2,-2,0
1517207164624862,0,-2,0,-2,0,-2,-2,-2
1517207164638365,1,-1,0,2,-1,-2,-1,2
1517207164638365,-1,-2,1,-2,-1,-1,-5,-1
1517207164639882,0,-1,-1,-1,-1,-1,0,0
1517207164639882,-1,0,-2,-1,-2,0,0,0
1517207164660875,-2,-1,-1,0,-1,-2,0,-3
1517207164660875,-1,-1,-1,0,-2,-2,2,-1
1517207164662373,-1,-1,1,-2,-1,0,-1,-4
1517207164662373,-1,-1,-1,-2,-1,-2,2,3
1517207164683389,-1,0,-1,-3,-1,0,0,-1
1517207164683389,-2,-1,-1,-1,-3,-2,-1,0
1517207164684890,0,0,-1,-1,-1,0,-1,-1
1517207164684890,-1,0,-2,-1,-1,0,-1,-3
1517207164705427,0,-1,-1,-1,-1,0,-2,-3
1517207164705427,0,-2,-1,-2,-1,-2,0,0
1517207164707427,-1,-1,0,0,0,-1,-1,0
1517207164707427,-2,-2,-1,-1,-3,0,-2,1
1517207164720458,-2,-1,-1,-1,0,-2,-1,0
1517207164720458,-1,-2,-3,-1,1,-1,-2,-5
1517207164722480,0,-1,-1,1,-2,-1,1,4
1517207164722480,-2,-1,-1,0,0,-1,-2,-4
1517207164743004,1,-1,-2,-2,0,-2,0,2
1517207164743004,0,-2,0,-1,-1,0,1,1
1517207164744974,-1,0,-3,0,0,-1,-1,-1
1517207164744974,0,-1,-3,1,1,-2,0,-1
1517207164758007,-2,-1,-1,-2,-2,-2,0,-4
1517207164758007,1,-2,-1,-1,-2,-2,-11,-3
1517207164759486,0,-1,0,-1,-2,0,0,-1
1517207164759486,1,-1,-2,-2,-1,0,-2,-1
1517207164780509,-1,-1,0,1,0,-1,-2,0
1517207164780509,-1,-1,-1,-1,-1,-1,1,-1
1517207164782511,-1,-3,-2,-2,-2,-1,-1,-3
1517207164782511,-1,-1,-1,-1,-2,0,-2,-1
1517207164803062,-2,-1,0,-1,-1,-2,-1,-1
1517207164803062,-2,0,-1,-2,0,0,1,0
1517207164805060,-2,-3,-1,1,-1,-1,-1,-1
1517207164805060,-1,-2,-1,-2,-2,0,0,0
1517207164817582,0,-3,-3,-1,-3,-3,-2,0
1517207164817582,-2,0,-1,-2,-1,0,0,1
1517207164824584,-2,0,-3,-1,-1,-2,-2,-2
1517207164824584,0,0,-2,-1,-1,-1,-1,-2
1517207164840608,-2,-3,-2,-1,-1,0,0,-1
1517207164840608,-1,-1,-1,1,-1,0,0,-1
1517207164842086,-1,-1,0,0,-2,-2,-1,-4
1517207164842086,-1,0,0,0,-2,0,1,1
1517207164863113,1,0,-2,0,0,-1,-1,-1
1517207164863113,-1,-1,-2,-1,-1,-1,3,2
1517207164864613,-1,-2,-1,-1,0,0,-1,1
1517207164864613,-2,-1,1,0,-1,-3,-2,-4
1517207164877612,-1,-2,-2,-3,-2,-2,-2,-2
1517207164877612,-3,-1,-1,0,-2,0,-1,-1
1517207164884118,-2,-1,-2,-2,-3,-1,1,-2
1517207164884118,-2,-2,-2,-1,0,0,0,0
1517207164900644,0,-1,0,-1,0,0,0,-1
1517207164900644,-2,-1,0,-2,0,-2,-1,-2
1517207164902129,-2,0,0,0,0,-2,0,-3
1517207164902129,-2,-2,-1,-1,-1,-2,-1,-1
1517207164923175,0,-1,-1,0,0,1,-1,0
1517207164923175,0,-1,-1,-4,-2,0,0,-3
1517207164924662,-2,-1,-2,0,-2,-2,-2,-1
1517207164924662,-1,-1,-2,-2,0,-1,0,0
1517207164937663,-2,-1,-1,0,-1,-1,-2,-1
1517207164937663,0,-2,0,-1,-2,-1,-2,0
1517207164944159,0,0,-2,-1,-2,-2,0,0
1517207164944159,0,-1,0,-2,-2,-3,0,-1
1517207164960671,-2,-1,-1,0,-1,0,-1,-1
1517207164960671,0,1,0,-1,-2,-1,-1,-2
1517207164962171,0,-1,-2,1,-1,-1,-1,-1
1517207164962171,0,-2,-2,0,1,-1,-2,-1
1517207164983705,-2,-2,-2,-1,-2,-1,-2,-2
1517207164983705,0,-2,-3,-1,-2,-1,0,-1
1517207164985198,-3,-1,1,-2,-3,1,-1,-3
1517207164985198,0,-1,0,-1,0,0,0,-1
1517207164997696,-2,1,-1,-1,-1,-3,0,-1
1517207164997696,-1,-2,-1,0,-1,-1,-2,0
1517207165004224,-2,0,-1,-2,1,-2,-1,2
1517207165004224,-1,-1,0,0,-1,-2,-2,-2
1517207165020727,-2,-1,0,-1,-1,0,-1,-1
1517207165020727,-1,-2,0,-2,-2,-1,0,-3
1517207165022215,0,0,-3,-2,0,-2,-1,-2
1517207165022215,0,-2,-1,-1,-2,-2,0,-2
1517207165043282,-1,-1,0,-3,-2,-1,-1,-1
1517207165043282,-2,0,0,-1,0,-2,-2,-1
1517207165045769,-1,-1,-1,0,1,-1,-2,-1
1517207165045769,-1,-1,-1,0,-2,0,-2,-1
1517207165057276,1,-2,-2,-1,-1,-1,-1,0
1517207165057276,-2,0,-1,-1,1,-2,0,-1
1517207165064282,0,-3,0,-1,-2,0,-2,0
1517207165064282,-3,0,0,-1,-2,-1,-2,-2
1517207165080870,-3,-2,-2,-1,1,0,-1,-1
1517207165080870,0,-2,-2,0,-1,0,-2,0
1517207165082370,2,1,-1,-1,-1,0,0,-1
1517207165082370,-1,1,-2,-1,0,1,0,-1
1517207165102900,-3,-1,-1,-1,-2,-1,0,-1
1517207165102900,-1,0,-1,-1,0,-1,-2,-1
1517207165104893,0,-1,0,-2,-1,-3,-2,-1
1517207165104893,-1,-3,-1,0,-1,-1,-2,-1
1517207165116898,0,-1,-2,-1,-1,1,-2,-2
1517207165116898,0,-1,0,-1,0,0,0,2
1517207165125918,-1,-1,-1,0,-2,1,-1,-1
1517207165125918,-1,-1,-2,0,-1,-1,0,0
1517207165140905,-3,1,-2,-3,-1,-1,0,0
1517207165140905,-2,-1,-2,0,-2,-2,-3,-4
1517207165142416,-1,-1,-2,0,-2,1,0,1
1517207165142416,0,-2,-2,-2,-1,0,0,-3
1517207165163423,-1,-1,-1,0,-1,0,-1,1
1517207165163423,-1,-2,-1,-3,-1,-1,-1,-2
1517207165164942,-1,-1,-1,0,-2,-1,-2,-1
1517207165164942,-2,-1,-2,-1,-1,0,-2,-1
1517207165176940,-1,-3,1,0,-1,-3,0,-4
1517207165176940,-1,-2,-1,-1,-1,-1,0,1
1517207165185950,-1,-2,-1,-3,-2,0,-1,0
1517207165185950,-1,0,0,-1,0,-2,-2,-1
1517207165200468,1,-1,-1,-1,-1,-2,-2,-3
1517207165200468,0,-2,-1,-1,-1,-3,-2,-1
1517207165202469,-2,-2,-1,-1,-2,-1,-1,0
1517207165202469,-1,-2,-2,-3,-2,-1,0,0
1517207165223003,-1,0,-1,-1,-1,0,-2,0
1517207165223003,0,0,0,-2,-2,-2,-2,-2
1517207165224465,-2,0,-1,0,1,-1,-1,1
1517207165224465,-1,-1,0,-1,-2,-1,0,1
1517207165236973,-2,-2,-2,-2,0,-1,1,-2
1517207165236973,1,0,-1,0,-1,0,-2,-3
1517207165245980,0,-1,-2,-2,0,-3,1,0
1517207165245980,0,0,1,0,-1,-1,-1,-3
1517207165260489,0,-1,-1,-3,-1,-2,0,0
1517207165260489,0,-2,-2,-1,1,-1,0,0
1517207165261991,0,-2,0,-1,-2,-2,0,-2
1517207165261991,-1,-1,-2,-3,0,-1,-2,0
1517207165283007,-1,-1,-2,0,0,-2,-1,-1
1517207165283007,-2,-2,-1,-1,-1,-2,-1,-2
1517207165289532,-1,-1,-2,0,1,-1,-2,-2
1517207165289532,0,-1,0,-1,-2,-1,-1,-1
1517207165297017,-1,-3,-1,1,-2,-2,-1,-3
1517207165297017,0,-2,-1,-1,0,0,0,-1
1517207165306029,-1,-1,-2,-1,-1,0,-2,-1
1517207165306029,-1,-2,-2,0,-1,-1,-2,-2
1517207165320534,-1,-1,0,-2,-1,-2,-1,-2
1517207165320534,-2,-1,0,-1,1,0,-1,-1
1517207165322061,0,-1,1,-2,0,-1,0,-1
1517207165322061,0,-1,-3,-1,-1,-1,0,1
1517207165343063,-1,0,0,-2,-2,1,0,0
1517207165343063,-1,-1,-2,-1,-2,-2,0,-1
1517207165344551,-3,-3,-2,-1,0,-2,-2,-3
1517207165344551,-2,0,-1,0,-1,-2,0,-2
1517207165356560,0,0,-1,-1,-2,-3,-1,0
1517207165356560,-1,0,-1,0,-2,0,-2,0
1517207165371568,-2,0,-3,-1,-2,-1,-1,-1
1517207165371568,-2,-1,-2,-3,-1,-1,0,-1
1517207165380574,0,-1,-2,-1,1,0,-2,-2
1517207165380574,-2,-1,-1,-2,-2,-1,0,0
1517207165382076,-1,-2,1,1,-1,0,-1,-2
1517207165382076,-1,-2,-1,-1,1,-1,-1,1
1517207165403126,1,-1,0,0,-2,-2,-3,-3
1517207165403126,-2,-1,-1,-1,-2,-2,-2,-2
1517207165404592,-3,-2,-1,-2,-1,-1,0,-2
1517207165404592,-1,-2,-1,-2,-3,-1,-2,-1
1517207165416600,1,0,-2,-1,-1,0,-1,0
1517207165416600,-1,-1,-1,1,-1,-1,-2,-2
1517207165425616,0,-2,-1,-3,0,0,-2,1
1517207165425616,-1,-2,0,0,-1,1,0,-1
1517207165440634,-2,-1,-3,-1,-2,-2,0,0
1517207165440634,1,-1,-3,-1,-2,-2,0,-1
1517207165442133,0,0,-1,-1,-1,-1,-1,-2
1517207165442133,-1,-2,-1,1,-1,-3,-1,-2
1517207165463634,1,-1,1,-1,-2,0,-1,0
1517207165463634,-1,0,-3,-3,0,0,-2,-1
1517207165464637,-1,0,1,-2,-2,-2,-2,0
1517207165464637,0,-1,0,-1,-1,-2,-2,1
1517207165476642,-1,-3,-1,-1,-1,-3,-1,-3
1517207165476642,-1,-2,-1,-1,-2,1,1,-1
1517207165485649,0,-2,-2,-1,-2,0,-2,-2
1517207165485649,0,0,-1,-3,-3,-2,0,-1
1517207165500663,-2,-1,0,0,0,0,-1,2
1517207165500663,-1,-2,-1,-1,0,-2,0,0
1517207165502161,-1,0,-1,-2,0,-2,0,-1
1517207165502161,-1,1,1,-1,-1,0,0,-2
1517207165523210,-2,-1,-3,-2,-2,0,0,-1
1517207165523210,-1,-2,-1,0,0,-1,0,0
1517207165524707,-2,-1,-1,1,-2,-1,-1,-1
1517207165524707,-1,-1,0,-1,-2,-1,-1,-2
1517207165536708,-2,0,-1,-2,-2,-1,0,-1
1517207165536708,-1,0,-1,-2,-1,-1,0,0
1517207165545706,-2,0,-2,0,-1,-1,-1,-1
1517207165545706,-2,-1,-1,1,-1,1,-1,-2
1517207165561717,-2,-1,-2,0,0,0,0,0
1517207165561717,1,1,-1,-1,0,-1,-2,1
1517207165563219,1,-1,-3,-1,-3,-2,-2,-2
1517207165563219,-1,-2,-3,-1,0,0,-1,-1
1517207165583241,-1,-1,-1,-1,-2,1,-2,-1
1517207165583241,-1,-2,-1,0,-2,-3,-1,-2
1517207165584744,-2,-2,-1,-2,0,0,-1,-1
1517207165584744,-2,-2,-1,-1,-1,-2,-1,0
1517207165605759,-1,-1,0,0,-1,-1,0,-1
1517207165605759,-2,0,0,1,-2,0,-2,-1
1517207165607258,0,0,0,-1,-1,-1,-2,-2
1517207165607258,-1,-1,0,-3,0,-1,-2,-2
1517207165620760,0,1,0,-2,0,-1,0,-1
1517207165620760,0,-2,-3,-3,-1,1,-2,-4
1517207165622269,0,-1,-1,0,0,-1,1,0
1517207165622269,-1,0,-2,-2,-2,-2,-1,1
1517207165643277,1,0,-1,1,-1,0,-2,-2
1517207165643277,-2,-1,-1,1,-2,0,-1,0
1517207165644776,0,-1,-2,-3,0,-1,0,0
1517207165644776,0,0,-2,0,1,1,-1,1
1517207165665790,-1,0,-2,0,-1,-1,0,-1
1517207165665790,-1,-1,-2,0,-3,-4,-1,0
1517207165667302,-2,-2,-1,0,-2,1,-2,-1
1517207165667302,-1,-2,-1,-2,-2,-1,0,0
1517207165680817,-2,-2,0,-1,-1,-2,-2,0
1517207165680817,-1,-1,0,0,-1,-2,-2,-2
1517207165682303,-1,1,-2,-2,-2,0,0,4
1517207165682303,0,-1,-1,0,-1,-1,-1,-2
1517207165703326,1,-2,-1,-2,-3,1,-2,-2
1517207165703326,0,-2,-1,-1,-1,-1,0,-2
1517207165704839,0,-2,0,-1,-1,-1,0,-1
1517207165704839,0,0,-2,-1,-1,-2,0,-1
1517207165725832,-1,-1,-1,-1,-2,-2,0,-1
1517207165725832,-2,0,-2,-2,-1,-1,0,0
1517207165727349,-1,0,-1,0,0,-1,-3,-3
1517207165727349,-3,-2,-1,-2,0,0,-1,-2
1517207165739877,-3,0,-2,-1,-1,-1,-1,-1
1517207165739877,1,0,-2,-2,-1,-1,-2,-1
1517207165746848,-1,-2,-2,-2,-1,-2,0,-1
1517207165746848,-2,-3,0,-1,-2,0,0,-2
1517207165763377,-1,-1,1,-1,0,0,-3,-1
1517207165763377,-2,-2,-1,-2,-2,1,0,0
1517207165764861,0,0,-2,-1,-2,-1,-1,0
1517207165764861,-2,-1,-1,-1,-1,-1,-2,-1
1517207165785384,0,-2,-1,-2,1,0,0,-2
1517207165785384,-1,-1,-4,-1,-1,-2,-1,0
1517207165787393,-2,0,0,-1,0,0,-2,-2
1517207165787393,1,-1,1,0,-3,-2,-1,-2
1517207165799885,1,-2,-2,0,-1,0,-1,-2
1517207165799885,-1,-1,1,-3,0,-1,-1,-2
1517207165806890,0,0,0,-1,0,-2,-1,-2
1517207165806890,0,1,-1,-1,-1,-1,0,1
1517207165822922,-2,-1,-2,0,-3,-4,-1,0
1517207165822922,-1,-1,-1,-1,-2,-2,-1,-1
1517207165824912,-2,-1,-1,0,-1,-1,-1,-2
1517207165824912,-2,-2,0,-2,-1,0,-1,-1
1517207165845924,-2,0,-3,-3,-1,2,0,-3
1517207165845924,-1,-1,-2,0,-1,-1,-1,-1
1517207165847420,-1,-1,-2,0,0,-1,0,0
1517207165847420,0,0,-2,0,-2,-3,0,0
1517207165859937,-1,-2,-1,0,0,-1,-1,3
1517207165859937,0,-2,0,0,-2,0,-1,-1
1517207165866942,0,-2,-2,-2,-1,0,-1,-1
1517207165866942,-2,-1,-2,-1,-1,0,0,-1
1517207165883444,0,-1,-2,-2,-1,-3,-1,-2
1517207165883444,0,-2,-1,-1,1,0,-2,-2
1517207165884955,-1,-1,-1,-1,-1,-1,-1,-1
1517207165884955,0,-1,-2,-1,-1,0,-1,-2
1517207165905463,-2,-2,0,-3,0,0,0,-1
1517207165905463,0,0,0,0,0,-2,-1,1
1517207165906961,0,-1,-1,-2,-2,-2,-1,-1
1517207165906961,-1,0,0,-1,0,0,-1,1
1517207165919971,-1,0,-1,-1,-1,-1,1,-2
1517207165919971,-1,0,0,-1,-1,0,-1,-1
1517207165926499,-2,-2,-1,0,-1,-1,0,1
1517207165926499,-4,0,-1,-2,0,-1,-2,-1
1517207165943009,-1,-1,-1,-3,-2,-1,-1,0
1517207165943009,-2,-2,0,-1,0,-1,0,-3
1517207165944488,-1,-1,-1,-1,-2,-1,-1,-2
1517207165944488,-1,-1,-2,1,-2,-1,1,-1
1517207165966005,-1,-1,-1,-2,-2,-2,-2,0
1517207165966005,0,-1,-3,-1,-3,0,-2,0
1517207165967003,-1,1,0,-1,-1,0,-1,-1
1517207165967003,0,-2,-1,-1,0,1,0,-2
1517207165980012,0,0,0,-1,0,-1,0,-2
1517207165980012,-1,-1,-1,-1,-2,-1,0,0
1517207165987019,-1,-2,-2,-1,-1,-2,-1,-2
1517207165987019,0,-1,-1,-1,-1,-1,-2,-1
1517207166003050,-1,-1,0,1,-3,-1,-1,-2
1517207166003050,0,-2,0,-1,-1,1,-1,-1
1517207166005030,-2,0,-2,0,0,-1,-1,-1
1517207166005030,-2,-1,-2,0,-3,-1,-2,-1
1517207166025567,-1,-2,-1,1,-1,-1,-1,-1
1517207166025567,-1,1,-2,-1,-1,0,0,-3
1517207166027045,-1,-1,-1,-2,0,-1,-1,-1
1517207166027045,-1,-1,1,0,-2,-1,0,-1
1517207166040069,-2,-1,-2,-2,-1,0,0,-1
1517207166040069,-2,0,-1,0,0,-3,-2,-1
1517207166047060,0,-1,-1,-2,-1,-1,-1,-1
1517207166047060,-1,1,-3,-1,-1,0,0,-2
1517207166063072,0,-2,-3,0,-1,-2,-2,0
1517207166063072,-1,-4,-1,-1,-1,-1,-1,0
1517207166064573,-1,-2,0,-1,-1,0,-1,-2
1517207166064573,-2,-1,-1,-1,0,-1,-2,-1
1517207166093096,-1,-1,-2,0,-1,-1,-2,0
1517207166093096,-1,-1,-1,-1,-3,0,-1,1
1517207166094595,0,-1,-1,0,0,-2,-1,1
1517207166094595,-1,1,0,-3,-2,-1,-2,-2
1517207166099098,0,0,-1,-1,-1,-2,-1,-3
1517207166099098,-2,0,-2,-3,-2,-1,-2,-1
1517207166108104,-1,-2,-1,-1,-2,0,1,-1
1517207166108104,-1,-2,-1,1,0,0,0,-1
1517207166123133,-3,-1,-1,-2,-1,-2,-1,-1
1517207166123133,-1,-1,0,-2,0,-2,0,-1
1517207166124633,-2,-1,-1,-2,-1,0,0,0
1517207166124633,-1,-3,-2,0,-1,-2,-1,-1
1517207166146133,0,-1,-1,1,-2,-1,0,0
1517207166146133,-2,-1,-2,2,-1,1,-2,-2
1517207166148131,-2,-1,-1,1,-1,-1,0,1
1517207166148131,0,0,-1,-2,-2,-3,0,0
1517207166159142,-2,0,-2,-2,0,1,0,-1
1517207166159142,1,-1,-1,-2,-2,-1,-1,-3
1517207166168146,1,-2,-2,-1,-1,0,-1,-1
1517207166168146,-2,0,-1,0,-1,-2,-2,1
1517207166183158,-1,0,0,0,-1,-2,-1,-1
1517207166183158,-1,-2,0,-2,-1,0,0,-1
1517207166184658,-1,0,0,-1,-2,-1,-1,-1
1517207166184658,0,-2,-1,-2,-1,-1,-3,-1
1517207166206192,-4,0,-2,-1,-1,-3,-2,0
1517207166206192,0,-1,0,0,0,-2,-1,-2
1517207166207673,-2,0,-1,-1,-2,-2,0,-1
1517207166207673,0,0,-2,-1,-1,-1,-1,-1
1517207166219190,-1,-1,0,-2,-1,1,0,-1
1517207166219190,-2,-2,-2,-1,0,0,0,0
1517207166228191,0,0,-2,0,-2,-2,-1,1
1517207166228191,-2,-1,-1,-1,-1,0,-2,-2
1517207166243201,-2,-2,-2,-1,0,-3,-1,0
1517207166243201,-1,0,-2,-2,-2,-3,0,-1
1517207166244702,-1,-3,0,-1,1,1,-1,-2
1517207166244702,-1,-1,-1,0,-1,-1,-2,0
1517207166265715,0,-2,-1,-2,0,1,0,0
1517207166265715,-1,0,-1,-1,-1,0,0,0
1517207166267215,-2,-2,-3,-2,-1,-3,-2,-2
1517207166267215,-1,-2,-2,-1,0,-1,0,0
1517207166279241,-2,0,-2,-1,-2,-2,-1,-1
1517207166279241,-2,-1,-2,-1,0,-2,-1,0
1517207166288253,-1,1,-2,0,0,1,-1,0
1517207166288253,-1,-1,-1,0,-2,-2,-1,0
1517207166303256,0,-2,-1,0,0,-2,-1,-1
1517207166303256,-2,-1,-1,-1,-2,-1,-2,-2
1517207166304751,-1,-3,-1,-1,-1,-1,0,0
1517207166304751,-1,-1,-2,-1,-1,1,0,-2
1517207166325772,0,-1,0,-2,-3,0,0,-2
1517207166325772,-1,-1,-1,-2,0,0,-1,0
1517207166327282,0,-1,-2,0,-1,-2,-2,-1
1517207166327282,0,-1,-1,-2,-2,-1,0,-1
1517207166339266,-1,-1,-2,0,-1,0,-1,-1
1517207166339266,0,1,-1,1,-1,-1,-1,-1
1517207166348313,-4,1,-2,-1,0,0,0,-1
1517207166348313,1,-1,0,-2,-1,-1,0,0
1517207166370338,-1,-2,-2,-1,0,-3,-1,-1
1517207166370338,-1,-3,-3,-1,-2,0,-1,-2
1517207166372329,-2,0,0,-1,-1,0,-2,-1
1517207166372329,-2,0,-2,0,0,-2,0,-2
1517207166385351,-2,-1,-1,-3,-1,1,-1,-1
1517207166385351,-1,-1,-1,0,0,-2,-1,-2
1517207166387341,0,-1,1,1,-2,-1,-1,-2
1517207166387341,-1,-1,-1,-2,-1,-1,-1,-2
1517207166399349,-1,-1,0,1,1,1,0,1
1517207166399349,-2,-1,-1,-1,-2,0,1,1
1517207166408364,-1,-1,0,-2,-2,-2,-1,-1
1517207166408364,-1,1,-1,0,-1,-1,-1,-2
1517207166422880,1,-2,-2,0,-1,-2,-1,0
1517207166422880,0,-1,1,0,-1,-1,-1,0
1517207166424878,0,0,-2,-1,0,0,0,-2
1517207166424878,0,-3,-1,-1,-1,0,-1,1
1517207166445883,-1,1,-3,0,-1,-1,0,-1
1517207166445883,-1,-1,-2,-3,-2,-1,-1,-2
1517207166447883,-1,-1,-2,-3,-1,-2,-2,-3
1517207166447883,-1,1,-2,-1,0,-1,-1,-2
1517207166459411,0,0,-1,-2,-1,-1,0,1
1517207166459411,-1,-1,-1,-1,-2,-2,-1,0
1517207166468397,-2,-2,-2,-1,-3,1,0,1
1517207166468397,-1,-3,0,-1,-1,0,-2,-1
1517207166483408,-1,-1,-2,-2,-1,-2,-1,-1
1517207166483408,-1,0,0,-1,-1,-1,-1,0
1517207166484909,-2,0,-1,-2,-1,-1,0,-1
1517207166484909,-1,-2,0,-2,-1,-1,-1,-2
1517207166505482,-1,-1,-1,0,-2,0,-1,0
1517207166505482,-2,-2,0,-1,2,-2,-2,-2
1517207166507426,0,-1,0,-1,-2,-2,0,-1
1517207166507426,-1,-1,-1,-1,0,-1,0,-1
1517207166527940,-1,0,-1,-2,0,-1,-1,-2
1517207166527940,-1,-2,-2,-2,-1,-1,-1,0
1517207166529951,0,-2,-1,0,1,0,-1,-1
1517207166529951,-1,-1,0,-1,-1,-2,-2,-1
1517207166542974,-3,-2,2,-1,-1,0,-2,-3
1517207166542974,-1,-1,-1,-1,0,-2,-2,-1
1517207166544952,0,-1,-1,0,0,-1,-1,-1
1517207166544952,0,-3,-2,-1,-1,1,0,1
1517207166565967,-1,-1,-1,-2,-1,-1,-1,-1
1517207166565967,-1,0,-2,0,-2,1,0,-2
1517207166566968,-1,-3,-1,0,-1,-2,0,-2
1517207166566968,-2,-2,-2,0,-1,0,-3,-2
1517207166588007,-1,-2,0,0,-1,-1,0,-1
1517207166588007,0,1,-2,0,0,-1,-1,-1
1517207166589483,-2,-1,0,-2,-2,0,-1,0
1517207166589483,-1,-1,-3,-2,-3,-2,-2,-2
1517207166610498,-2,1,-2,0,0,-1,0,-1
1517207166610498,-1,-1,-2,-1,-1,-1,0,-2
1517207166612502,-1,-1,-2,0,-2,-2,-1,-1
1517207166612502,-3,0,0,-1,-2,-2,-1,0
1517207166625512,-1,-2,-1,1,-1,-2,-1,-1
1517207166625512,-2,-1,1,-1,0,0,-2,1
1517207166627509,-3,-1,0,0,0,-1,-2,-1
1517207166627509,0,-2,-1,-1,-2,0,-1,0
1517207166648025,-1,0,-2,-2,-2,-1,-1,0
1517207166648025,0,-3,-1,0,-2,-2,-1,-1
1517207166649526,-2,-1,0,0,-1,-1,-1,-1
1517207166649526,-2,-1,-2,0,0,-3,0,0
1517207166663537,-2,-2,0,-1,-2,-1,-2,-2
1517207166663537,-1,0,-1,-2,-2,-1,-2,0
1517207166664538,-1,0,-1,0,0,0,-1,-2
1517207166664538,-3,-1,0,-1,-1,-1,-1,-1
1517207166685552,0,0,-2,0,-1,-2,-1,0
1517207166685552,-1,-2,0,-2,-1,-3,0,-1
1517207166687053,-2,-1,-2,-1,-2,-1,-1,-2
1517207166687053,0,-1,-1,0,0,-1,-1,-1
1517207166708121,-4,-1,-1,-1,-2,-1,-2,-2
1517207166708121,0,-2,0,-1,-1,-2,-1,-2
1517207166709619,1,0,-1,-2,0,0,0,-1
1517207166709619,0,-1,-3,-1,1,0,0,-2
1517207166730634,-2,-2,-1,-1,-1,1,-2,-1
1517207166730634,-1,1,-2,2,0,-2,-1,0
1517207166732135,0,-2,-3,-2,-2,-2,-1,-1
1517207166732135,-2,-1,-1,-1,0,-1,0,-2
1517207166746146,0,-3,-1,-2,-1,-3,0,0
1517207166746146,-2,-2,-3,-2,-1,0,-2,-1
1517207166748149,-1,0,-1,0,-1,-2,0,1
1517207166748149,-2,-1,-1,-2,-2,-2,0,0
1517207166768170,-1,0,1,-1,0,-1,-2,-1
1517207166768170,-1,0,-1,0,-2,0,-1,-1
1517207166769671,0,-2,-2,-3,-2,-1,-3,0
1517207166769671,0,1,-2,-1,-2,1,-1,-1
1517207166782672,0,0,-2,0,0,-1,-1,-1
1517207166782672,-2,-2,-3,-2,0,-1,0,0
1517207166789215,-1,-1,-1,-1,0,-1,-1,-1
1517207166789215,0,-1,-1,-1,0,0,0,2
1517207166805687,-2,0,-1,-2,1,-1,-2,-1
1517207166805687,-1,-1,-1,-1,0,1,-1,-1
1517207166807188,-1,-1,0,1,-2,-4,0,-3
1517207166807188,-2,-2,-1,-1,0,-1,-1,-1
1517207166828704,2,-1,0,1,-1,0,-1,-2
1517207166828704,-1,0,1,-3,-2,0,1,-1
1517207166830207,-2,-1,-1,-1,-2,0,-1,-2
1517207166830207,-1,0,-1,0,-2,-1,-1,0
1517207166842246,-2,-3,0,0,-2,0,1,0
1517207166842246,-2,-1,-1,-1,-1,-1,0,-1
1517207166849219,-1,-1,-3,-1,0,0,-3,-1
1517207166849219,-1,-2,-2,0,-1,-2,0,-3
1517207166865729,1,0,-2,-3,-1,-1,-2,1
1517207166865729,0,-1,-2,0,-2,-1,-1,0
1517207166867230,-1,-1,0,-1,0,-2,-1,0
1517207166867230,0,-2,0,-2,-1,-1,-2,-1
1517207166895751,-2,-1,0,0,-1,0,-1,1
1517207166895751,-2,-2,0,-2,-1,-1,-2,-1
1517207166897255,0,-1,0,-1,-2,-1,-2,-1
1517207166897255,-1,0,0,0,-1,-1,-3,1
1517207166902255,-1,-1,0,-2,-2,-2,-1,0
1517207166902255,-1,-1,-2,-1,0,-1,0,0
1517207166909260,-2,-1,-3,-2,-1,-1,0,0
1517207166909260,0,-1,-3,0,-1,-2,0,-1
1517207166926272,0,-1,-1,-2,-3,-2,0,0
1517207166926272,-1,-1,-2,-1,-1,-1,-2,0
1517207166927780,0,-1,-1,-3,-2,-1,-1,-1
1517207166927780,0,0,0,0,-1,-1,0,-2
1517207166948288,-1,-1,-3,-1,1,0,-1,-2
1517207166948288,-1,-2,0,-1,0,-2,0,-1
1517207166950790,-1,0,-2,-2,-1,1,0,-4
1517207166950790,-1,0,0,-1,1,0,-1,-2
1517207166962297,0,-2,-1,0,-1,0,-1,-1
1517207166962297,-2,1,-2,0,0,-3,-1,-1
1517207166969302,-1,1,-1,0,1,-1,-1,-1
1517207166969302,-1,-1,0,0,-2,0,-2,-2
1517207166985326,0,-1,-2,0,-3,-2,0,-2
1517207166985326,-2,-3,-1,-1,-2,-1,-2,0
1517207166987315,-1,-3,0,0,-1,-2,-1,-1
1517207166987315,-1,-1,-2,-1,-1,-2,-2,2
1517207167008330,-1,0,0,-2,-1,-1,0,1
1517207167008330,-2,0,-2,-1,-1,0,0,-1
1517207167009831,1,0,-1,-1,-2,0,-3,-2
1517207167009831,0,-2,-1,-2,0,-3,-1,-1
1517207167021855,-1,-1,-1,-2,-1,-2,-1,-2
1517207167021855,-1,-2,-1,-1,-1,-1,-3,-2
1517207167030847,-1,-1,-1,-2,-1,-2,1,1
1517207167030847,-2,-2,-1,-1,-2,0,0,-1
1517207167045359,-3,-2,-1,0,1,-2,-2,-1
1517207167045359,-1,-1,0,0,-1,1,0,-1
1517207167048360,-1,0,0,0,-1,-1,0,0
1517207167048360,0,-1,0,-2,-2,0,0,-1
1517207167067873,-1,-1,-1,-3,0,0,0,0
1517207167067873,0,-1,-2,-2,-2,-1,-2,-1
1517207167069874,-2,-1,-1,0,-2,0,-1,0
1517207167069874,-1,-1,-2,-1,-1,0,-2,0
1517207167081884,1,-1,-1,0,-1,0,-1,-2
1517207167081884,-1,0,-2,0,1,-2,-1,-1
1517207167090892,-2,-3,-2,-2,-1,-1,-2,-2
1517207167090892,-1,-1,-2,-2,-1,-4,-1,0
1517207167105423,-3,-1,0,-2,-3,-2,-1,0
1517207167105423,-1,-1,-1,0,0,-1,1,-2
1517207167107411,0,-1,-2,-2,-3,-2,0,-1
1517207167107411,-3,-1,0,0,-2,0,-2,-1
1517207167128416,-1,-1,-1,0,0,-3,-2,-2
1517207167128416,1,-1,0,-3,-2,-1,-1,-1
1517207167129928,-2,-2,-3,0,-1,-1,-1,-2
1517207167129928,1,-2,0,-1,-2,-1,-1,0
1517207167141925,0,0,-2,0,-2,-2,0,0
1517207167141925,0,-1,-1,-1,-1,-1,1,-1
1517207167150431,0,1,-1,-2,0,-2,-1,-1
1517207167150431,-1,1,-1,-2,-2,-2,-2,-1
1517207167165943,-1,-1,-2,0,-1,0,0,-1
1517207167165943,0,0,1,-2,-2,-2,-2,0
1517207167166942,-2,-1,0,0,-2,-1,-1,1
1517207167166942,-2,0,0,0,0,1,0,-1
1517207167187957,-1,-2,-2,0,-2,-2,-1,-2
1517207167187957,-1,-2,-1,-1,-1,-1,-1,0
1517207167189459,-3,0,-2,-2,-1,-2,-2,0
1517207167189459,-4,1,-1,-3,0,-3,0,-2
1517207167201470,0,-1,-2,-2,-1,1,-1,1
1517207167201470,0,-1,0,1,-3,0,-1,0
1517207167210534,-1,2,-1,-1,-1,0,-1,-1
1517207167210534,-1,0,-2,0,-1,-1,-2,-1
1517207167225571,1,1,0,-3,0,-3,-1,2
1517207167225571,-3,-2,0,-2,-2,-2,1,-1
1517207167227046,-1,-1,0,1,-2,-1,-7,-2
1517207167227046,0,-1,-2,-1,-1,-2,0,-1
1517207167248063,-3,-1,0,-1,-2,-1,-2,0
1517207167248063,0,-1,-2,-1,0,0,-2,-1
1517207167249562,0,-2,-3,-1,-1,0,1,-2
1517207167249562,0,-1,-2,-3,-1,-1,-1,0
1517207167261571,-1,-2,0,-2,-1,0,-2,-4
1517207167261571,-1,-1,-2,-1,-2,-1,1,0
1517207167270577,-4,-2,-1,-1,-1,-1,1,1
1517207167270577,0,-1,-1,1,-1,-1,-2,-1
1517207167286100,0,-1,-1,-1,-1,0,1,-3
1517207167286100,0,-2,-1,0,1,-2,-3,-2
1517207167287589,1,-1,-1,0,0,0,-1,-2
1517207167287589,-3,-1,-1,-3,-1,0,0,0
1517207167308119,0,-3,-2,-1,-1,-2,-1,0
1517207167308119,-2,0,-1,-2,-2,-2,-2,-1
1517207167309605,0,-2,-3,-2,-1,0,0,-1
1517207167309605,1,-1,-1,-1,-4,-1,0,1
1517207167321628,-2,0,-2,-1,-1,-1,-1,-1
1517207167321628,-2,-2,-2,-1,-1,-2,-1,-1
1517207167330620,1,-1,0,-2,-1,-1,0,-3
1517207167330620,-1,-1,-2,-1,-1,1,-1,-3
1517207167346131,-4,-1,-1,-1,-1,1,-2,-2
1517207167346131,-1,1,-2,-1,-2,-1,0,1
1517207167348134,-2,-1,-1,0,-1,0,0,-2
1517207167348134,0,-2,-2,-2,-1,-2,0,1
1517207167368223,0,0,-2,-1,-1,-1,-1,-1
1517207167368223,1,0,-1,-3,-1,1,0,-1
1517207167369724,-1,-1,-1,0,-1,0,1,-1
1517207167369724,-1,-2,1,-1,-1,1,-2,0
1517207167381733,-1,-2,-2,0,-2,0,0,-3
1517207167381733,-1,0,0,-1,1,0,-1,-2
1517207167390727,-2,0,-1,0,0,-1,-1,0
1517207167390727,0,-2,-2,-1,0,-1,-2,-2
1517207167405740,-1,-1,-2,-1,1,-3,0,0
1517207167405740,-3,-3,0,-2,-1,-1,-2,-1
1517207167407245,-1,-2,-1,-1,-1,-1,-3,-2
1517207167407245,-2,-1,-1,-2,-2,-1,1,-1
1517207167428254,-1,0,0,1,-4,1,-2,-1
1517207167428254,-1,-1,-1,-1,0,-2,-1,0
1517207167429755,1,-1,-1,-1,-2,-2,0,-1
1517207167429755,0,-2,0,0,-1,-1,-2,-2
1517207167441786,-3,-1,-1,-1,-1,-2,-1,-3
1517207167441786,-1,-1,-1,0,-1,-1,-1,-1
1517207167451780,-2,-1,-1,-1,-2,-2,-1,-2
1517207167451780,-1,-2,-1,-1,0,-3,0,-2
1517207167465788,-1,-1,-1,-1,-3,-1,0,1
1517207167465788,-1,0,-1,-1,-1,1,-2,-1
1517207167467290,-2,-1,0,-1,0,-2,-1,1
1517207167467290,-1,-1,-1,-3,-2,1,-1,-1
1517207167488312,0,0,0,-1,-1,0,-1,-1
1517207167488312,-3,-1,-2,-1,-1,-1,-1,-1
1517207167489820,0,-2,-2,-2,-1,-1,-2,-1
1517207167489820,0,-2,-2,1,-2,-2,0,-1
1517207167510311,-2,-2,-3,0,0,-1,-1,0
1517207167510311,0,-1,-1,-1,-2,-1,1,-1
1517207167512313,-1,-1,0,-2,-1,-1,0,0
1517207167512313,-2,-1,-1,-1,0,-2,-1,-2
1517207167525822,-3,-2,-2,0,0,-1,-2,-3
1517207167525822,1,0,-1,-1,1,-2,-2,-1
1517207167527338,0,0,-1,-2,-1,-1,0,-1
1517207167527338,-2,-1,-1,0,0,-1,0,-1
1517207167548338,0,-1,0,-2,0,-2,-2,-1
1517207167548338,-2,-2,-1,0,-1,-1,-2,-2
1517207167549844,-1,-2,-1,-1,-2,-1,0,0
1517207167549844,-1,-1,-2,-2,-1,-1,-2,-1
1517207167570366,-1,-1,1,-2,-1,1,0,-1
1517207167570366,-1,-1,0,-2,-2,-2,-1,-1
1517207167572355,0,-1,-1,0,-1,-1,-1,-1
1517207167572355,-2,-1,-3,0,-1,-3,1,-1
1517207167585364,0,-1,-2,-3,-1,-3,-2,-2
1517207167585364,-2,1,-2,0,-2,-2,-1,1
1517207167587366,-1,-1,0,-2,0,-2,-1,-2
1517207167587366,-2,-1,-2,-1,-2,1,-2,0
1517207167607895,0,-2,1,0,-2,-1,-3,1
1517207167607895,-2,-2,-2,0,-2,1,0,-1
1517207167609882,-1,-1,-3,0,0,-3,-1,-2
1517207167609882,-2,-1,-1,0,-1,0,-2,-2
1517207167630898,0,-2,-1,-1,-2,1,1,1
1517207167630898,-2,-2,-1,-1,0,-1,-2,0
1517207167632397,-1,-1,-2,-1,0,0,0,1
1517207167632397,-1,-1,-2,-2,0,-1,0,-2
1517207167644907,-2,-1,0,0,0,0,-1,0
1517207167644907,-1,-1,-1,-2,-1,-3,-2,-1
1517207167651911,0,0,-3,0,-3,-1,-2,-1
1517207167651911,-2,-1,-1,-1,-1,0,-1,0
1517207167667935,0,-2,-3,0,0,-2,-1,-1
1517207167667935,0,-1,-1,-1,1,1,0,0
1517207167669426,-1,0,0,-1,-2,-1,-1,-1
1517207167669426,-1,-1,0,-2,-1,0,-1,-1
1517207167690453,-1,1,-3,0,-2,-2,-1,-1
1517207167690453,0,-1,-1,0,-1,1,-1,-2
1517207167691940,-1,-1,-3,0,0,1,-1,0
1517207167691940,0,-1,-1,-1,0,0,-1,-1
1517207167704972,-2,-1,-3,0,-2,-1,1,-2
1517207167704972,-3,-2,-2,-1,-1,-1,0,-1
1517207167711453,0,-2,1,-3,-1,-1,-1,-1
1517207167711453,-1,-2,-1,-2,-2,-1,-3,-1
1517207167728469,0,0,0,-1,-2,-1,-2,0
1517207167728469,1,0,-2,-1,-2,0,-1,-2
1517207167729467,-1,-2,0,1,0,0,0,-2
1517207167729467,0,-1,-1,1,-4,0,0,0
1517207167750481,-1,-2,-1,-1,1,-1,-1,0
1517207167750481,-1,-2,-2,-2,-2,1,0,1
1517207167751982,-2,-1,-2,-1,-2,-3,0,-1
1517207167751982,-2,0,-2,-2,1,-1,-1,-2
1517207167764991,-1,-2,-1,-2,-1,-1,0,-1
1517207167764991,0,-1,-1,0,0,-3,0,0
1517207167771496,0,-2,0,-1,0,-1,-1,-1
1517207167771496,0,0,0,0,-3,-2,-2,-1
1517207167788008,0,-3,-1,-2,-1,-1,-1,-1
1517207167788008,-1,0,-2,-1,-2,-1,-2,-2
1517207167789509,-1,-2,-3,-1,-1,-1,0,-1
1517207167789509,-1,-3,-1,-1,0,-1,-2,-2
1517207167810533,-1,-1,1,-2,-1,0,0,0
1517207167810533,0,-1,0,1,-2,-1,0,-1
1517207167812025,-2,0,-1,0,-2,-1,-2,-2
1517207167812025,-1,-1,0,0,-1,0,1,0
1517207167825048,-1,0,-2,-3,-1,-2,-3,-2
1517207167825048,0,-1,-2,-2,-1,0,-1,-3
1517207167831538,-1,0,0,-1,-1,0,-2,-1
1517207167831538,0,-2,0,-1,-2,-1,-1,-1
1517207167848070,0,-3,-2,0,-2,1,0,-1
1517207167848070,-1,-3,-1,-3,-2,-2,0,0
1517207167850552,0,-3,-1,-2,1,-2,-1,-2
1517207167850552,0,1,-1,-1,-1,0,1,0
1517207167870576,0,0,1,-1,-1,-1,-1,-1
1517207167870576,-3,0,-1,0,0,-1,-1,-1
1517207167872077,0,0,-1,-1,-1,-2,-1,0
1517207167872077,-1,-1,-1,-1,-1,-2,-2,-1
1517207167885077,-1,-1,-2,-1,-1,-2,-1,-1
1517207167885077,-1,-3,-1,-1,-1,-4,-1,-2
1517207167891596,0,-1,-2,-2,-2,-1,0,0
