timestamp,emg1,emg2,emg3,emg4,emg5,emg6,emg7,emg8
1517208029461821,-1,1,-1,1,-2,-2,-1,0
1517208029461821,-1,0,-2,-4,-2,-2,-2,-2
1517208029468827,-3,-1,1,0,-1,1,-1,-2
1517208029468827,2,0,-1,-4,0,-1,0,-2
1517208029485340,-1,-2,-2,-2,1,-2,1,0
1517208029485340,0,-3,-1,-1,-1,-1,-2,0
1517208029486338,-1,-2,1,1,0,1,0,-3
1517208029486338,0,-1,-1,-2,-1,-1,-1,-1
1517208029507353,0,-2,-1,-3,-1,-1,-1,0
1517208029507353,-1,-2,-1,0,0,-1,-1,1
1517208029508854,-1,-1,0,-3,0,-2,0,0
1517208029508854,-2,1,-1,-2,-2,1,-2,0
1517208029521863,-1,0,1,0,-1,-1,-1,0
1517208029521863,0,-1,-1,-2,-1,0,0,-1
1517208029528869,-1,-3,1,0,-2,0,-1,-1
1517208029528869,-1,1,-2,-1,0,-1,-1,-1
1517208029544879,1,0,-1,0,2,0,0,0
1517208029544879,0,-1,-1,-1,-1,-2,0,0
1517208029546380,-1,0,0,-1,-2,-1,2,1
1517208029546380,1,-3,-1,0,-1,0,0,-2
1517208029567396,-1,0,-1,-2,-1,0,-2,-1
1517208029567396,-2,0,-2,-1,-1,-1,-1,-2
1517208029568896,-1,-2,-1,-1,-2,-1,-1,0
1517208029568896,-2,-2,-1,-3,-1,-2,-2,-1
1517208029581905,0,0,-1,-1,0,-1,-2,-2
1517208029581905,0,-1,0,1,0,-2,-1,-1
1517208029588411,-2,1,-1,-1,-1,-1,-2,-2
1517208029588411,-2,0,-1,-2,0,-1,-1,-1
1517208029604923,0,-1,0,-1,-3,2,-1,-2
1517208029604923,-2,-1,-2,1,0,-1,-2,0
1517208029606423,-1,-1,-1,-1,0,-1,0,0
1517208029606423,-1,-4,-1,-1,-2,-1,-1,-1
1517208029627477,-2,-2,-1,-1,-2,-1,-1,-3
1517208029627477,0,-2,-1,-2,-1,0,-1,-1
1517208029628939,-1,-1,-2,0,-1,-1,-1,-2
1517208029628939,0,-2,-1,-3,0,-2,0,1
1517208029649955,-1,-1,1,-1,0,0,-2,0
1517208029649955,0,-1,-1,-3,-1,-1,-1,0
1517208029651456,0,-2,-1,-2,-1,-1,0,-1
1517208029651456,-1,-1,-1,-1,0,0,-1,-2
1517208029664982,-1,-1,-1,0,-2,-1,-1,-4
1517208029664982,-1,0,-1,-1,-1,-2,-1,0
1517208029666465,-3,0,-3,-1,0,-1,-2,0
1517208029666465,-1,0,0,0,-2,-1,-2,-1
1517208029687487,-2,-2,0,-1,0,-1,-1,0
1517208029687487,-2,0,-1,1,0,0,0,-2
1517208029688983,-1,-1,-1,-3,-2,0,-1,-1
1517208029688983,-3,-1,0,-1,0,-1,0,1
1517208029701508,-2,-1,-1,-1,-2,0,-2,0
1517208029701508,-2,-2,-1,-1,-1,0,1,-1
1517208029708510,0,-1,0,-2,-1,-2,0,-2
1517208029708510,0,-2,-2,-2,-2,-2,-2,-2
1517208029725020,0,0,1,0,-1,-2,-1,0
1517208029725020,2,0,-2,-1,-1,-1,0,-1
1517208029726520,-1,-2,-1,-2,-1,-2,-1,0
1517208029726520,1,-1,-2,0,-3,-1,-2,-1
1517208029747547,-1,0,-2,0,1,-2,-2,-1
1517208029747547,-2,-1,0,-2,-3,-1,-1,-2
1517208029749048,0,-1,0,-1,-1,-1,0,0
1517208029749048,-1,0,-2,-1,1,0,-1,-3
1517208029761559,-1,-4,-1,-1,-2,-2,0,-2
1517208029761559,0,-1,-2,-1,0,0,-2,-1
1517208029768586,0,-2,-3,-1,0,0,-1,-1
1517208029768586,-1,1,0,-1,-3,1,0,0
1517208029785083,0,-1,-2,-1,-1,-1,-1,-3
1517208029785083,-1,-1,-2,-2,0,-4,-1,-1
1517208029786574,-2,-2,-1,-1,-2,0,0,-1
1517208029786574,0,0,-1,0,-1,0,0,0
1517208029807624,-2,-1,-2,-1,-1,0,0,-2
1517208029807624,-2,-2,0,1,-3,0,-1,-1
1517208029809130,0,1,-1,1,0,-2,-1,0
1517208029809130,-2,-3,0,-1,-1,-2,-2,-1
1517208029821610,0,-1,-2,1,-2,-1,-2,-1
1517208029821610,-1,0,0,0,0,-1,0,-2
1517208029828621,0,-3,-1,-1,-3,-2,-3,-1
1517208029828621,-1,-2,-1,-1,-1,-2,-2,-2
1517208029845164,0,-2,-1,-1,0,0,-1,0
1517208029845164,-1,0,-1,-3,-1,-1,-2,-2
1517208029846667,-1,-1,-1,0,-2,-3,0,-2
1517208029846667,-2,-2,-1,-2,0,-2,0,-1
1517208029867180,-3,-1,-1,-2,-2,0,0,0
1517208029867180,-1,-1,-2,0,-2,-1,-2,0
1517208029868681,1,-2,0,-1,0,-2,-1,-1
1517208029868681,0,-1,-1,-1,-1,0,-1,-1
1517208029881703,-2,0,-2,0,-1,-2,-2,-1
1517208029881703,0,-1,-1,-1,-2,-1,-1,0
1517208029888695,-1,0,-1,0,-2,0,0,0
1517208029888695,-1,0,-1,0,-1,0,-1,-1
1517208029904708,-1,-2,0,-1,0,-1,-1,-1
1517208029904708,-1,-3,-1,-3,-1,-2,-1,0
1517208029906207,-1,-3,-2,-2,-2,-1,-1,-2
1517208029906207,0,-2,-1,0,-1,-3,1,-1
1517208029927222,-1,1,-2,-2,-2,-1,-1,-3
1517208029927222,-1,-1,0,0,-1,-2,0,-2
1517208029929224,-1,-1,-2,-1,-3,-1,-1,-1
1517208029929224,-1,-1,0,0,0,-1,-3,-1
1517208029941790,-1,-2,0,-1,-1,-2,-1,0
1517208029941790,-1,0,-2,0,-1,-1,0,0
1517208029948247,-1,-2,0,0,0,-1,-1,0
1517208029948247,-3,-2,0,-2,-2,-1,-1,-2
1517208029965259,0,-1,-3,-2,-2,-3,-1,0
1517208029965259,-1,-2,0,-1,-1,0,-1,-1
1517208029966753,-2,1,-1,-2,-1,-2,0,1
1517208029966753,-1,-1,-1,-3,-2,-1,-2,-3
1517208029987277,-2,-1,0,-1,0,-2,0,0
1517208029987277,0,0,-2,0,-2,-3,-2,0
1517208029988766,-2,-1,-1,0,0,0,-1,-2
1517208029988766,0,0,-1,-1,0,0,-1,-1
1517208030001275,-1,-1,0,-2,-1,0,-1,-1
1517208030001275,-2,-1,0,-1,0,-1,-2,-1
1517208030009780,-1,-1,-1,0,0,0,-2,0
1517208030009780,-2,0,-2,0,-1,-2,0,0
1517208030024791,0,-1,-1,1,0,0,-2,0
1517208030024791,-1,-2,-2,-1,-1,-1,-1,-1
1517208030026293,-1,-2,-1,-2,-1,-1,-1,0
1517208030026293,-2,-1,0,-3,-1,-1,-1,0
1517208030047308,-2,0,-2,-3,1,-1,0,-2
1517208030047308,1,-2,0,-1,0,2,0,-1
1517208030048808,1,0,0,-1,-1,-1,-1,-2
1517208030048808,-1,0,-1,0,-1,-1,-1,-1
1517208030069361,-2,-1,-1,-1,-2,-2,-1,2
1517208030069361,-3,0,-1,-1,-3,-1,-1,-1
1517208030069823,-1,0,-3,-2,-2,-1,-1,-1
1517208030069823,-1,1,-2,1,0,-1,-1,-1
1517208030084343,1,0,-2,-1,-1,0,-1,1
1517208030084343,-1,-1,-2,-2,-2,0,1,-1
1517208030084834,-2,-2,-1,-2,-1,0,-1,-2
1517208030084834,0,1,-1,-1,-1,-2,0,0
1517208030106851,-1,0,1,-1,0,-1,-2,-2
1517208030106851,-3,-1,-1,-1,0,0,-1,0
1517208030107353,-4,-2,0,0,0,-3,-1,-2
1517208030107353,-1,-1,-2,0,0,-1,-1,0
1517208030129367,0,-2,-1,0,-1,0,-1,-2
1517208030129367,-1,1,0,-2,-2,-1,0,1
1517208030129868,0,-2,-1,0,0,0,-1,0
1517208030129868,-2,-2,0,-2,0,1,-1,-2
1517208030144394,-2,-1,-2,-1,-2,-1,0,-2
1517208030144394,-2,0,-2,1,-1,0,-2,-1
1517208030144877,0,0,-1,-1,0,-2,-2,0
1517208030144877,-1,-4,-1,1,-1,-2,0,-1
1517208030166904,-2,-2,-3,0,-2,-1,-1,-1
1517208030166904,-1,1,0,0,-1,-2,1,-3
1517208030167393,-1,-1,1,-1,-1,-2,-1,-1
1517208030167393,0,-3,-2,0,-1,0,-1,0
1517208030189428,-1,-1,0,0,0,-1,-1,0
1517208030189428,0,-1,-2,-1,-1,0,-1,0
1517208030189908,-1,0,-1,-1,0,-1,-1,-2
1517208030189908,-1,0,-1,-2,-2,-2,-2,-2
1517208030204441,-3,-1,-1,-2,-2,-2,0,2
1517208030204441,0,-2,-1,0,-1,-1,-1,-2
1517208030204919,-2,-1,0,-1,-1,2,-1,-2
1517208030204919,-1,-2,0,-3,-2,-1,-1,-1
1517208030226944,0,-1,0,-1,0,-1,-2,0
1517208030226944,-1,-1,0,-1,-1,-2,1,-1
1517208030227434,-1,-1,-2,-1,0,0,-1,0
1517208030227434,-4,0,0,1,-1,-2,-1,-2
1517208030249950,-2,-1,-2,0,0,0,-1,-2
1517208030249950,1,-2,-1,-2,-1,-2,-1,-1
1517208030250452,-3,0,-1,-2,-1,-2,-2,0
1517208030250452,-2,-1,-2,-2,-2,0,-1,-1
1517208030264471,0,0,0,0,0,0,0,-1
1517208030264471,-1,-2,-1,-2,-1,0,-2,0
1517208030264967,-1,0,-3,0,-3,0,1,-2
1517208030264967,-1,-2,-1,-1,-1,-1,1,-1
1517208030286478,0,-1,-1,-3,-3,-2,0,-1
1517208030286478,-2,-1,-2,-1,0,1,-1,0
1517208030287477,0,0,1,0,-2,2,-1,-2
1517208030287477,0,-1,-1,-1,0,-1,-2,-3
1517208030310003,-1,-2,-2,-1,0,0,1,-2
1517208030310003,-1,-2,1,-1,0,-2,0,-1
1517208030310494,-1,-1,0,-2,0,-2,-2,-1
1517208030310494,-1,-2,-1,-2,-2,2,-1,0
1517208030324003,-1,-1,-1,-1,-2,-2,-2,-1
1517208030324003,0,-1,-2,-2,-2,-1,-1,-1
1517208030325004,-1,-1,-2,-2,-1,-1,-1,-3
1517208030325004,-1,-2,-1,-2,-1,-1,0,-2
1517208030346520,-1,0,-3,-3,-2,-1,-1,-1
1517208030346520,-4,-1,-2,-1,-2,0,-1,-1
1517208030347520,0,0,-1,-1,-2,-1,0,-1
1517208030347520,-1,-1,-1,1,-1,-2,-2,-2
1517208030370038,-1,-1,0,0,0,0,-1,-1
1517208030370038,0,-1,-1,-1,-1,-1,0,0
1517208030370536,-1,0,-2,-1,-1,-1,-1,0
1517208030370536,1,0,-2,-2,0,-1,-1,0
1517208030384055,-2,0,-1,0,0,-3,-3,-2
1517208030384055,0,-1,-3,-1,-1,0,-1,-1
1517208030385067,-2,-3,0,0,0,-1,-1,-1
1517208030385067,-1,1,0,-1,0,-1,0,0
1517208030406565,0,0,-2,-2,-1,-1,0,-1
1517208030406565,-1,0,0,0,1,1,0,0
1517208030407562,0,0,-3,-3,0,-1,-1,-1
1517208030407562,-1,-2,-1,-1,0,-1,0,0
1517208030429078,-2,-2,0,-1,-1,-1,-1,-1
1517208030429078,-2,-1,-1,-2,-3,-2,-1,-1
1517208030436592,-3,-2,-1,-1,-2,-1,-1,0
1517208030436592,0,-1,0,-1,-1,-1,-2,-1
1517208030444088,-1,-2,-1,0,-2,0,-1,-2
1517208030444088,-2,-1,-2,-2,0,-1,-1,-2
1517208030445099,1,-1,1,-1,-1,-1,-1,0
1517208030445099,-1,0,-1,-1,-2,0,-1,-1
1517208030466613,1,1,-2,0,-2,-1,0,1
1517208030466613,0,-2,-1,-2,-1,-1,-1,-2
1517208030467605,-1,-3,-1,-1,-1,-2,-1,-1
1517208030467605,-1,-2,-1,-1,-1,-1,-1,-2
1517208030490121,-1,-1,0,-2,0,-4,-1,-3
1517208030490121,-2,0,-1,0,-1,-1,-2,-3
1517208030490622,-2,0,1,-1,1,-2,0,-1
1517208030490622,-1,0,-1,-1,-3,0,-1,-3
1517208030504156,-1,-2,1,-1,-2,-1,-1,-2
1517208030504156,1,-1,-2,0,-1,-3,-1,0
1517208030505141,0,-1,-1,0,-2,-1,0,-2
1517208030505141,-2,-1,-1,-1,-1,-1,-2,-1
1517208030526670,-2,-3,-1,-1,-1,0,0,-1
1517208030526670,-1,0,0,0,0,-1,-2,-2
1517208030527656,0,-2,-2,-1,0,-2,-2,-2
1517208030527656,0,-2,-1,-1,0,-1,1,0
1517208030549663,0,0,-1,0,-1,-3,-2,0
1517208030549663,-1,-2,2,-1,0,0,1,-2
1517208030550664,-2,-1,-2,-2,0,-1,-1,-2
1517208030550664,-1,-1,-1,-2,-1,-1,-2,-1
1517208030564177,-1,-1,0,-1,0,0,-1,0
1517208030564177,-1,-1,0,0,-2,-3,-1,-1
1517208030565186,-1,-1,-3,-1,-1,0,-1,-1
1517208030565186,-2,-1,-2,-1,-3,-3,-2,-1
1517208030586691,-2,-2,-3,-3,-1,-1,0,-1
1517208030586691,-2,-1,1,-1,0,-1,-2,-1
1517208030587190,1,-1,0,-2,-2,-2,-1,0
1517208030587190,-1,-1,-2,-1,-1,-2,0,-1
1517208030609706,0,-1,-1,-1,-3,-1,-2,0
1517208030609706,-2,-2,-3,-3,0,-1,0,0
1517208030610715,-3,-2,0,-2,0,0,0,-2
1517208030610715,1,-1,0,-2,0,0,-1,0
1517208030624224,-1,-1,-2,-1,-2,-1,-1,-2
1517208030624224,0,0,-2,-1,-3,-1,0,-2
1517208030624715,-1,-1,-2,0,0,-2,-1,0
1517208030624715,-1,-1,-2,0,-2,0,0,-1
1517208030646742,-3,2,0,0,1,-1,0,-2
1517208030646742,2,-1,2,-2,-3,-1,-3,-1
1517208030647732,-2,0,-2,0,-2,0,-1,-1
1517208030647732,-1,-1,0,-1,0,-1,-2,0
1517208030669750,0,-1,-1,-1,-2,0,-1,-2
1517208030669750,-2,0,-1,-1,-1,-1,0,0
1517208030670748,0,-2,0,-1,1,-2,1,-2
1517208030670748,-1,0,-1,-1,0,0,-1,-1
1517208030684274,0,0,-3,-2,-1,0,-2,-1
1517208030684274,-1,-2,-2,-1,-2,-1,-1,-2
1517208030684762,-1,-1,-1,0,-4,-1,-1,0
1517208030684762,0,-1,0,0,-2,-1,-2,-3
1517208030706783,0,-3,-1,-1,-1,0,-2,0
1517208030706783,-1,-1,-2,-3,-1,0,-1,0
1517208030707273,-1,0,-1,0,0,0,0,-2
1517208030707273,-1,-1,-2,-1,-3,-2,-1,-1
1517208030730303,0,-1,-2,0,-2,-3,1,-1
1517208030730303,-1,-1,-2,0,0,-1,-1,-1
1517208030730811,-1,-2,0,0,-1,0,-1,-1
1517208030730811,-2,0,-1,-2,-1,1,-1,-1
1517208030744300,-1,0,-1,-1,-1,0,-2,-1
1517208030744300,-2,-3,-3,-1,-1,-1,0,-1
1517208030744801,0,-1,-1,-2,-2,-2,0,-1
1517208030744801,-1,-1,-1,-2,0,2,-2,0
1517208030766821,0,0,0,-1,-1,-2,0,0
1517208030766821,-1,-1,-1,-1,-2,-3,0,0
1517208030767341,-2,-2,-1,-2,-2,-2,-1,-1
1517208030767341,0,-2,-1,0,-2,-2,0,-1
1517208030789867,-1,-1,0,-1,-2,-1,0,1
1517208030789867,-1,0,0,-1,0,-1,-1,-2
1517208030790865,-1,-1,0,0,0,-1,-1,-1
1517208030790865,-2,-2,0,0,-1,-2,-1,-1
1517208030803842,-1,0,0,-2,-1,-1,-1,0
1517208030803842,0,-1,-2,0,-1,-1,1,0
1517208030804843,0,0,-3,-2,-1,-1,-2,1
1517208030804843,0,1,-2,-2,0,-1,0,0
1517208030826875,0,-3,-1,0,-1,-1,0,-2
1517208030826875,-2,-1,-1,-1,-2,-1,-2,0
1517208030827358,-2,-1,-2,0,0,0,-2,-2
1517208030827358,-1,-1,-2,-1,1,0,0,-1
1517208030849874,-1,-3,-3,0,0,-1,-1,0
1517208030849874,0,-1,0,0,0,0,-3,-1
1517208030850377,-1,-2,-1,-1,-1,-1,-1,-2
1517208030850377,-1,0,-1,-1,-3,-2,-1,-1
1517208030864885,-1,0,-1,-2,-2,-1,-1,-1
1517208030864885,0,1,0,-4,-1,-1,0,0
1517208030871900,-1,-1,0,-1,-2,0,-1,0
1517208030871900,-2,-1,-3,1,-2,-2,-2,0
1517208030886911,-2,-1,-2,-1,-2,-1,-2,0
1517208030886911,0,1,-1,-1,-1,-2,-1,-2
1517208030887401,0,1,-1,-1,-1,-1,0,0
1517208030887401,0,0,-1,-2,-1,-2,-1,-1
1517208030909939,0,-1,0,0,-1,-1,-1,-1
1517208030909939,-2,-2,-2,-1,0,-1,-1,-2
1517208030910417,-1,-1,-1,-1,-1,-1,0,-1
1517208030910417,-1,0,-1,0,-2,-1,0,0
1517208030923936,-1,-1,-2,-1,-1,-1,0,-1
1517208030923936,-1,-2,-2,-1,-2,0,-1,-1
1517208030924929,0,-2,0,-2,-2,2,0,0
1517208030924929,-1,0,-1,0,0,-2,-1,-1
1517208030946443,-2,-1,-1,-2,0,0,-1,-1
1517208030946443,-1,-1,-1,0,-1,-2,0,0
1517208030947444,-2,-2,-2,-1,-1,-2,-2,0
1517208030947444,-1,-2,0,-3,-1,-1,0,0
1517208030969972,-1,-2,0,-1,-2,1,0,0
1517208030969972,0,-1,-2,-2,-2,1,-1,-1
1517208030970460,0,-1,-1,0,-2,-2,-1,-1
1517208030970460,-1,-1,-1,-1,-2,-1,-2,-2
1517208030984471,-1,-1,-1,0,-1,-2,-2,-1
1517208030984471,-1,0,0,-2,-1,-2,0,-2
1517208030984972,-2,-1,-2,-2,1,-1,-2,0
1517208030984972,-1,-1,-1,0,0,-2,1,-2
1517208031006502,-1,-3,-2,-1,-1,-1,-1,-2
1517208031006502,0,0,-2,0,-1,1,-2,-1
1517208031007505,0,1,-1,-3,0,-1,-1,-2
1517208031007505,-2,0,0,0,0,-1,0,-1
1517208031030005,1,0,-3,-1,-1,-3,-1,-1
1517208031030005,-1,-1,-2,-2,0,-4,1,-1
1517208031030505,-1,-1,0,-1,-2,-1,-1,-2
1517208031030505,-2,-1,-1,-1,-1,1,-2,-1
1517208031043512,-1,1,-1,-3,1,0,-1,-1
1517208031043512,-1,-1,0,-1,-1,0,-2,-1
1517208031051517,-1,-2,-1,-1,-2,-2,-1,-1
1517208031051517,-1,-1,-3,-1,-4,-2,-2,1
1517208031066528,0,1,-1,0,-1,0,-1,-1
1517208031066528,-1,0,-2,-2,-2,-1,-1,0
1517208031067530,0,-1,-3,0,-2,0,-1,-1
1517208031067530,0,-1,-1,-1,0,-4,-1,0
1517208031090054,0,-1,0,-2,-1,0,-2,-1
1517208031090054,-1,-2,1,-1,-1,-2,-2,1
1517208031090544,-2,0,-1,0,-1,-1,-2,-1
1517208031090544,0,-1,-3,-1,-1,-1,-2,-1
1517208031111560,0,-1,-4,-1,-2,0,1,-1
1517208031111560,-3,-1,0,0,-2,-2,-1,-1
1517208031119078,-1,-1,-1,-1,-2,-2,-2,-1
1517208031119078,0,-1,-2,-1,-1,0,0,0
1517208031126609,-1,0,-2,-2,-1,-2,-2,-2
1517208031126609,-2,-1,-1,-2,0,0,0,-1
1517208031127611,-1,-2,-1,0,-1,-2,-2,-1
1517208031127611,-1,-1,0,-2,-1,-1,0,-3
1517208031150088,0,-1,-1,0,-1,-1,-2,1
1517208031150088,-2,0,-2,0,0,-1,-1,0
1517208031150588,-1,-1,-1,-2,-1,0,1,0
1517208031150588,-2,-2,-1,-2,-2,0,0,1
1517208031163707,-1,-2,0,0,-2,0,-1,-1
1517208031163707,-1,-3,-2,0,-1,-1,0,-1
1517208031171710,0,-1,0,0,0,0,-1,-1
1517208031171710,1,-1,0,-1,0,-2,-2,-2
1517208031186720,-1,0,-1,-1,-2,-1,-1,0
1517208031186720,-1,-1,-1,-2,-1,-1,-2,-1
1517208031187221,-2,-1,-1,0,-1,-1,-1,-1
1517208031187221,-1,-3,-2,-1,-1,0,0,0
1517208031209756,0,0,0,-1,0,-2,1,-2
1517208031209756,1,-2,-1,-2,-1,0,-2,-1
1517208031210755,-3,-3,-2,-2,-1,0,-2,0
1517208031210755,-2,1,-1,-1,-1,-1,-1,-1
1517208031223246,-1,-3,-1,-2,-2,-3,-1,-1
1517208031223246,-1,0,-1,-1,0,-1,0,1
1517208031231752,-1,1,-1,0,-1,-2,0,-1
1517208031231752,-2,-2,-1,-1,-1,1,-1,-1
1517208031246765,-3,-1,-1,-1,-1,-1,0,-1
1517208031246765,0,-1,0,-1,-1,0,1,0
1517208031247266,1,-1,0,-2,0,-1,-1,0
1517208031247266,-1,-1,-2,-1,0,-2,0,-1
1517208031269801,-2,-2,-1,-1,-2,0,-1,-3
1517208031269801,-1,-2,-3,-2,0,0,0,-1
1517208031270791,0,-1,-3,-2,-1,0,-2,-2
1517208031270791,-1,-1,-1,-2,-1,-1,-1,0
1517208031283289,-1,-1,-2,-1,-1,-1,-2,0
1517208031283289,-2,-1,-1,-2,-1,-2,-1,-2
1517208031291834,0,0,-2,-3,-1,-1,0,-2
1517208031291834,-2,-1,1,0,-1,-2,-1,-3
1517208031306820,-1,0,1,-1,0,-1,-1,0
1517208031306820,1,-2,-2,1,-2,-1,-2,-2
1517208031307305,1,0,-1,-1,-1,-2,-1,-1
1517208031307305,-1,-1,-1,1,-2,-2,0,-2
1517208031330361,-2,-1,0,-1,-1,1,-2,0
1517208031330361,-2,0,-3,-2,-1,-1,-1,0
1517208031330361,-1,0,-2,0,-1,-2,-1,-3
1517208031330361,0,-1,-2,-1,-1,-2,-1,0
1517208031352878,0,1,-3,0,-1,-1,0,-2
1517208031352878,-1,-2,0,-1,-1,1,0,0
1517208031353894,-4,-1,-2,0,-1,-2,0,-1
1517208031353894,0,-1,-2,0,0,-1,-2,-1
1517208031366388,-1,-1,-2,-1,0,-2,-3,-1
1517208031366388,0,0,-2,-1,-1,-1,-1,-1
1517208031367388,1,-2,0,-1,-1,0,0,1
1517208031367388,1,-3,-1,-2,-1,0,-1,-1
1517208031389904,0,-2,-1,-2,0,0,-1,0
1517208031389904,-1,-1,-1,-2,-1,-1,-2,-1
1517208031390405,-1,0,-3,-1,-1,-2,-2,-1
1517208031390405,-1,-1,0,-1,-2,0,0,-2
1517208031412419,1,-1,-1,0,-1,-1,-1,0
1517208031412419,-2,0,-1,-1,-1,-3,0,-2
1517208031412922,-1,-3,-2,-1,-1,0,0,0
1517208031412922,1,-1,-2,-2,-2,-2,-2,-1
1517208031426501,0,-1,-2,-1,-1,0,1,-1
1517208031426501,-1,-2,0,1,-3,-2,-1,-2
1517208031427431,-1,0,-1,-1,-3,-1,-1,-1
1517208031427431,-2,-1,-1,-1,-2,0,0,0
1517208031449957,-1,-1,0,-3,-2,0,-1,1
1517208031449957,-1,-1,-1,-1,1,-1,-1,-2
1517208031450446,0,-1,-2,-1,-1,0,0,-1
1517208031450446,-2,-1,-1,-1,0,-2,-2,-1
1517208031472462,-2,-1,-2,-1,0,-1,-2,-2
1517208031472462,0,-2,-1,-1,0,-1,-1,-2
1517208031472962,-1,-2,0,-1,-1,-2,-2,1
1517208031472962,0,-2,-1,0,0,-1,0,-2
1517208031486473,-2,-2,-2,1,0,-1,0,0
1517208031486473,-1,-1,-1,-3,-2,-2,-2,-2
1517208031487474,-1,-2,-1,0,1,-1,-1,-1
1517208031487474,-3,-3,-3,-2,-1,0,-1,-2
1517208031510035,1,-1,0,-1,-1,-1,0,0
1517208031510035,-3,-1,-1,-1,0,-1,0,0
1517208031510489,0,0,-2,-2,-2,-1,-2,-2
1517208031510489,-2,0,-2,0,-2,-1,-1,-2
1517208031532504,1,-2,-1,-1,-2,-2,0,-3
1517208031532504,-3,0,-1,-3,-1,-1,0,-1
1517208031532504,0,-1,-2,-2,-2,0,0,-2
1517208031532504,0,1,-4,-2,0,-1,-2,0
1517208031546938,-1,-1,-1,-1,-2,-1,-1,-1
1517208031546938,1,0,0,0,-3,-2,0,0
1517208031547440,-1,-3,-1,-1,0,1,-1,0
1517208031547440,-1,-1,0,-1,-3,-2,-1,0
1517208031569986,-1,-1,-1,0,-1,1,-1,-3
1517208031569986,-1,-2,-1,0,-2,0,-2,-1
1517208031570454,-2,-3,0,-2,-1,-1,-2,-3
1517208031570454,-1,-2,-1,-1,0,-1,-1,-1
1517208031592485,1,-2,-1,-1,1,-2,-1,0
1517208031592485,0,-1,-1,0,-2,0,-3,0
1517208031592970,-2,-1,-1,-2,-2,-2,-1,-3
1517208031592970,-1,0,0,-1,0,0,-1,-1
1517208031606483,-3,-1,-3,-1,-2,-2,0,-1
1517208031606483,0,-2,-2,-1,-1,-2,-1,1
1517208031607481,0,-1,-1,0,-1,-1,-1,0
1517208031607481,-2,-2,-1,-1,-1,-1,-1,-1
1517208031629996,-1,-1,-1,-1,-2,-2,-1,-1
1517208031629996,-1,-1,-2,-1,1,-2,0,-2
1517208031630514,0,0,0,-1,-2,-2,-1,-2
1517208031630514,-1,-1,-2,0,-2,0,-3,-1
1517208031652514,-2,0,0,-1,-1,0,-2,0
1517208031652514,-1,0,-2,-2,-2,-1,-1,-1
1517208031654013,-4,-1,-2,-1,0,-2,0,-2
1517208031654013,-1,-1,-2,-2,-2,0,-1,-1
1517208031666523,-1,-3,0,0,-1,0,-1,-1
1517208031666523,1,-2,-1,-1,0,-2,-2,-3
1517208031667523,-1,0,0,-1,-2,0,0,-1
1517208031667523,-1,1,1,-1,-1,0,-1,-1
1517208031690038,0,0,-1,-2,-1,0,-1,0
1517208031690038,0,0,-1,-1,-1,-1,-1,0
1517208031690549,0,-3,-2,-1,-1,-1,-1,0
1517208031690549,-1,-2,-2,-2,-2,1,-1,0
1517208031712554,-2,-1,0,-2,-1,-2,-3,-1
1517208031712554,-1,-2,-1,-1,-1,0,-1,-2
1517208031713056,-1,0,-1,-1,-1,-2,0,-1
1517208031713056,-1,-1,0,-1,-1,-1,1,-2
1517208031726591,-2,0,-2,-2,0,0,0,-1
1517208031726591,-1,-1,-2,0,-1,0,-1,-1
1517208031727579,-1,0,-3,-1,-1,-1,-2,0
1517208031727579,-1,-2,-3,-2,-1,-1,0,-1
1517208031749581,-2,0,-1,0,-2,0,0,-1
1517208031749581,-1,0,0,-1,-2,0,0,-1
1517208031750583,1,-1,-1,-2,-2,0,-1,0
1517208031750583,0,0,-1,-1,0,-1,-2,-1
1517208031772097,-1,-2,-2,-1,0,-1,-2,-2
1517208031772097,0,-2,-2,-2,-1,0,-1,-1
1517208031773098,-2,-1,0,-1,0,-1,-2,-1
1517208031773098,0,1,-3,-2,-2,-2,-1,0
1517208031786607,0,-1,-2,0,-2,-1,-1,-1
1517208031786607,0,-1,-1,-2,0,-1,-1,-1
1517208031787609,0,0,-2,-2,-1,-1,-1,-3
1517208031787609,-2,-2,-1,-1,-1,-2,-2,-1
1517208031809626,0,-1,-1,-1,-2,-3,0,0
1517208031809626,-1,-1,-3,-1,-1,-2,0,0
1517208031810624,-3,-2,-3,-1,0,-1,-1,-1
1517208031810624,-2,1,-1,1,-2,-1,0,-1
1517208031832140,0,-1,-1,-3,0,0,-1,-2
1517208031832140,-1,0,0,0,-1,-2,-1,-1
1517208031833141,-1,-1,0,-2,-2,0,-1,-1
1517208031833141,-1,0,0,0,-2,-3,-1,-1
1517208031846650,0,-1,-3,-1,-2,-1,0,0
1517208031846650,-2,-1,-2,-2,-1,-2,-1,-1
1517208031847650,-1,-3,-3,0,-1,0,-1,-1
1517208031847650,-2,0,0,-1,1,-2,-1,-1
1517208031870166,-1,0,1,1,-1,-1,-1,-1
1517208031870166,-1,-1,-1,0,-2,-1,0,-1
1517208031871167,0,0,-2,-1,-1,-1,-1,0
1517208031871167,1,-1,-1,-1,-1,0,-1,-1
1517208031892203,-1,-1,-2,-1,-1,0,-2,-1
1517208031892203,-3,0,-1,0,-2,-1,0,-1
1517208031893182,1,1,0,0,-4,0,-1,-1
1517208031893182,0,-2,-1,0,0,-1,-1,-2
1517208031906736,0,-2,-3,-1,-1,-2,1,-1
1517208031906736,-1,-2,0,0,-1,-2,-1,-1
1517208031907192,-1,0,0,0,-1,-2,0,-2
1517208031907192,-1,0,-1,-1,1,-2,-1,-1
1517208031930209,1,0,-1,-1,-2,0,-1,0
1517208031930209,-2,1,-1,-2,-2,-1,0,0
1517208031930710,-1,-1,0,0,1,-3,0,1
1517208031930710,-1,-2,0,0,-1,0,-2,0
1517208031952725,-2,0,-2,-1,0,-2,-2,-2
1517208031952725,0,-3,-1,-1,-2,-1,-3,0
1517208031953235,-3,0,-2,-1,-1,0,0,-1
1517208031953235,0,-1,-2,0,-1,0,-2,-1
1517208031966234,-1,0,0,0,-1,-2,0,-1
1517208031966234,-1,-1,-1,-1,-2,0,0,-1
1517208031981760,0,-1,-2,-2,0,-1,-1,0
1517208031981760,-2,0,0,-3,-2,-1,-1,0
1517208031989751,-1,-3,1,-1,1,-2,-1,-2
1517208031989751,1,-2,-2,-2,0,-1,-2,0
1517208031990753,-1,-1,-1,0,-1,0,-1,-3
1517208031990753,-1,-2,-1,-2,-1,-2,-1,-2
1517208032012769,-2,-1,-1,-4,-2,-1,-1,-2
1517208032012769,-2,-1,-1,-2,0,-2,-2,0
1517208032013267,-1,0,0,-3,1,0,0,-1
1517208032013267,0,0,-2,0,-1,0,-2,-1
1517208032025776,-1,-2,-2,-1,0,0,-2,-1
1517208032025776,-1,-1,0,-1,-1,-1,0,-2
1517208032034282,-2,-1,-1,-2,-2,0,0,0
1517208032034282,-1,-1,-1,0,-2,-1,-1,0
1517208032049793,0,-2,-1,0,-1,-2,0,0
1517208032049793,-2,-1,-2,-1,-1,0,-2,-1
1517208032050794,-2,-2,0,-1,-1,-1,0,-2
1517208032050794,0,1,-1,-1,-2,0,1,-4
1517208032072309,-1,-2,-2,-2,-1,-1,0,0
1517208032072309,0,0,-1,-1,0,-1,-3,0
1517208032072809,-1,0,-1,0,-3,-1,-1,0
1517208032072809,-2,-1,0,-1,-1,-2,-3,0
1517208032085823,0,0,0,1,-2,-2,-3,-1
1517208032085823,-1,-1,-1,-1,-1,-1,-1,-2
1517208032093859,-2,-2,-1,-1,0,-1,-2,-1
1517208032093859,1,-2,-1,-2,1,1,-1,0
1517208032109859,-1,-1,0,-1,-1,-1,-1,-2
1517208032109859,-1,-1,0,-1,0,-2,0,-2
1517208032110336,-1,-2,-1,-1,-3,-1,-3,-3
1517208032110336,-1,1,-2,0,1,-2,-1,0
1517208032132351,-2,-2,-1,-2,0,1,-1,-2
1517208032132351,0,-1,-1,1,-1,-1,-1,-1
1517208032132852,-1,-2,-1,0,-2,1,-1,0
1517208032132852,0,-2,-1,-2,-3,-1,-1,0
1517208032146371,0,0,-1,-1,0,-2,-1,-1
1517208032146371,-1,-1,0,-2,0,-1,-1,0
1517208032154367,0,-1,-1,-1,-1,-1,-1,-1
1517208032154367,-1,0,-1,-1,-1,-3,0,0
1517208032169893,0,-1,-1,-1,0,-1,0,0
1517208032169893,0,0,0,0,-2,-1,-1,-2
1517208032171379,0,-3,-1,-1,-1,0,0,0
1517208032171379,-2,-2,-1,-2,-1,-2,-1,-1
1517208032192415,-3,-2,-1,-1,-1,1,0,-1
1517208032192415,-1,-1,0,-2,0,-2,-2,-2
1517208032193917,-1,-2,-1,0,-1,-1,-1,0
1517208032193917,-1,-1,1,0,-2,-1,-1,-1
1517208032205942,-1,0,1,-1,-2,1,-3,-1
1517208032205942,0,0,-1,-2,-2,0,1,-1
1517208032231932,-1,-1,-2,0,0,-1,-1,-2
1517208032231932,-1,-1,-1,-3,0,-1,0,-1
1517208032232923,-1,0,0,-1,-3,-1,1,1
1517208032232923,1,-2,-2,-1,0,-1,-1,1
1517208032235938,0,0,0,-2,-1,-2,-2,-2
1517208032235938,-2,0,-2,-1,-1,-1,-3,-1
1517208032252446,-1,-2,-2,0,0,-1,-2,-3
1517208032252446,-3,0,-1,0,-2,1,0,0
1517208032254953,-1,0,1,-3,-1,-1,0,-1
1517208032254953,-1,-1,0,0,-3,-1,-1,-1
1517208032265945,0,-1,-1,-1,0,0,-2,0
1517208032265945,-2,-1,-1,0,-2,-3,-1,-2
1517208032274952,-2,1,0,-1,-1,-3,-3,0
1517208032274952,-3,-3,-2,-1,-2,0,-1,-1
1517208032289980,-3,-2,-1,-2,-1,-2,-1,-1
1517208032289980,-1,-1,0,-1,0,-2,0,-1
1517208032291492,-1,-2,-1,-1,0,0,0,-1
1517208032291492,0,-1,1,-1,-1,-1,0,-1
1517208032312492,0,-1,-1,0,-1,1,-2,-2
1517208032312492,-1,-1,-1,-1,-2,-1,-2,-1
1517208032313993,0,-2,-2,-2,-1,-1,-2,-1
1517208032313993,0,-2,-2,-1,0,-1,-1,-1
1517208032335007,-3,-2,-1,0,-2,-2,-1,0
1517208032335007,-2,0,0,-1,-2,-1,-2,1
1517208032336509,-2,-3,-3,-1,-2,0,0,-1
1517208032336509,-2,-2,-2,-1,-1,-2,-1,-2
1517208032350018,0,1,-1,-1,-1,-1,-1,1
1517208032350018,0,-2,-1,-1,-1,-1,-1,-2
1517208032351519,-2,0,-1,-1,-1,-1,-2,-1
1517208032351519,-1,-1,-2,0,-1,1,-1,-1
1517208032380043,-1,-2,-1,-3,0,-1,0,-2
1517208032380043,-2,-1,-1,-1,0,-1,0,-1
1517208032381540,-1,0,-1,-2,-1,-1,0,-2
1517208032381540,-1,-1,0,-1,-2,-1,-2,-1
1517208032395050,-2,0,-1,-2,-2,-2,0,-1
1517208032395050,-1,-1,0,0,-1,1,1,-2
1517208032396551,-1,-2,-1,0,-1,0,-1,0
1517208032396551,-2,1,-1,-1,0,0,-1,0
1517208032410564,0,-1,-2,-1,-3,-1,-2,-2
1517208032410564,0,-2,-1,-2,-2,-2,-2,-1
1517208032412063,-2,-1,-2,-1,-1,-1,-1,1
1517208032412063,0,-3,-1,-2,-2,1,-1,-3
1517208032432077,-3,0,0,-2,1,-2,-1,-1
1517208032432077,-2,-2,-1,-2,1,-1,-2,0
1517208032434088,-1,-1,-1,-2,-1,-1,-1,-3
1517208032434088,1,-1,-1,-2,0,-3,-1,0
1517208032454596,-1,-2,-3,0,-1,0,0,-1
1517208032454596,0,-1,-1,0,-3,0,-1,-2
1517208032456607,1,1,-1,0,-1,-2,-1,-1
1517208032456607,0,-1,0,-1,0,-1,0,-1
1517208032469125,0,1,1,0,-2,-1,1,-1
1517208032469125,-1,1,-2,-1,0,0,0,0
1517208032476111,-1,0,-2,0,0,1,0,-1
1517208032476111,-2,-1,-1,0,-1,-2,-1,0
1517208032492119,0,-3,0,-2,-1,-3,-2,-2
1517208032492119,-1,0,-2,0,-1,0,-1,-1
1517208032494119,-1,-2,-1,-2,0,-1,0,-1
1517208032494119,-1,-1,-1,-2,-1,-1,-2,-1
1517208032514636,-2,-1,-1,-1,-1,-1,-3,0
1517208032514636,-1,0,-1,-1,-1,-2,0,0
1517208032516636,-1,-1,-1,-2,-2,-1,-1,-1
1517208032516636,-1,0,-1,-1,-3,-2,-1,1
1517208032529218,-2,-1,-4,-1,-2,-1,-1,0
1517208032529218,-1,-2,-1,-2,-2,-2,-2,-2
1517208032535720,-1,-2,0,-1,0,-1,-1,-2
1517208032535720,-1,-2,-1,-2,1,0,0,0
1517208032553259,0,-3,0,-1,0,0,-1,0
1517208032553259,-1,-1,-2,0,-1,0,-1,-2
1517208032554787,0,-2,1,-1,-2,-2,-1,-1
1517208032554787,-1,0,-1,-2,-1,0,1,-1
1517208032574782,-1,0,-1,0,-2,0,0,0
1517208032574782,-1,-2,-1,-2,0,0,0,-2
1517208032576297,-1,-2,-1,-2,-2,-2,1,0
1517208032576297,-1,-2,-1,0,-1,-2,-2,-1
1517208032589293,-1,0,0,-2,0,0,-1,-2
1517208032589293,-2,-1,0,-1,-2,0,0,0
1517208032595798,-1,-1,-1,-1,-3,0,-3,-1
1517208032595798,-1,-2,-2,-2,-3,-1,-1,-1
1517208032612299,-2,-2,-1,-1,0,-1,-3,-1
1517208032612299,-2,-1,-2,-1,0,-2,-1,-1
1517208032613800,-3,-2,-2,-2,0,-1,-2,1
1517208032613800,-2,0,-1,0,-1,0,0,-2
1517208032634816,-1,-3,0,0,0,-1,1,-2
1517208032634816,-1,-1,-3,-3,-2,-1,-1,-1
1517208032636316,2,-1,-1,0,0,-1,-1,-1
1517208032636316,-1,-1,0,-2,2,-1,-1,-2
1517208032649327,-1,0,0,0,-1,-1,-1,-1
1517208032649327,-1,0,-1,-1,-2,0,0,1
1517208032655858,-1,0,-1,0,-1,-3,0,-1
1517208032655858,-1,-1,-1,0,1,0,-2,-1
1517208032672385,0,-2,-1,-2,0,-1,-1,0
1517208032672385,-1,-1,-1,-1,-1,0,-1,0
1517208032673888,-1,0,-3,-1,0,0,0,-2
1517208032673888,-1,-2,0,-2,-2,-2,-2,-1
1517208032694403,-1,-1,-2,-1,-2,-1,0,0
1517208032694403,-1,0,0,-1,-1,-1,-1,-2
1517208032696405,-1,-1,-1,-1,-1,-2,-1,1
1517208032696405,-1,-1,-2,-1,-1,-2,0,-1
1517208032708936,-2,-1,-2,-2,-1,-2,-2,-1
1517208032708936,-1,-2,-1,-1,-1,-3,-2,-1
1517208032715920,-1,-1,-1,-1,-1,-1,-1,-1
1517208032715920,-1,0,-2,1,-1,-1,-1,-1
1517208032732430,0,1,-2,-1,-1,0,1,-1
1517208032732430,0,0,-1,-1,0,-1,-1,-1
1517208032733931,1,-2,-1,-2,-2,-2,0,-2
1517208032733931,-2,-1,0,-2,-2,0,-1,-1
1517208032754960,-2,-2,0,-1,1,-3,-1,-1
1517208032754960,-2,0,-1,-2,-1,-1,0,0
1517208032756446,-3,0,-1,1,0,-1,0,-1
1517208032756446,-2,-1,-2,0,-2,-2,-2,-2
1517208032777514,1,-1,-2,0,-1,0,-1,1
1517208032777514,-2,-2,-1,-3,-2,-1,-3,-2
1517208032778965,-1,1,-1,-2,-1,-2,-2,-1
1517208032778965,0,0,-2,-1,-1,-1,-1,0
1517208032792488,0,-3,-1,-2,0,-1,-2,0
1517208032792488,-1,-3,0,-1,-2,-1,0,0
1517208032793973,-3,-1,-2,-1,-2,1,-1,-1
1517208032793973,-2,-1,0,-1,1,-2,-1,-1
1517208032815002,-2,-1,-2,-2,0,-2,-2,-1
1517208032815002,0,-1,-2,0,0,-1,-1,0
1517208032816492,-1,-2,0,-2,0,-2,-3,-2
1517208032816492,0,-3,-3,-3,-2,-3,-1,-2
1517208032828500,-1,-1,-1,0,-2,-1,-1,-2
1517208032828500,-1,-1,-3,0,-1,-1,-1,-1
1517208032837518,-2,-1,-1,0,1,-1,-1,0
1517208032837518,0,0,-2,0,0,1,-3,0
1517208032852515,0,-1,-1,-3,-2,-2,-1,-2
1517208032852515,-1,0,0,-1,-2,-1,-1,-1
1517208032855018,0,-1,-1,1,-2,-1,-1,0
1517208032855018,-1,-3,0,0,0,-1,-1,0
1517208032875035,-2,-1,0,0,-2,-2,-1,-1
1517208032875035,-1,-1,0,-1,1,0,-1,-1
1517208032876545,-1,-2,-1,-1,-1,-1,1,-1
1517208032876545,-1,0,-1,-2,-2,-1,-1,-1
1517208032888538,-1,1,-1,-1,-2,-1,-1,-1
1517208032888538,-3,-2,-1,-1,-1,-1,-1,-2
1517208032897548,-2,-1,-1,-1,-1,-2,-2,-1
1517208032897548,1,-1,0,0,-2,-2,0,-2
1517208032912557,0,-1,-2,-1,-2,-1,1,-1
1517208032912557,1,-1,-1,-1,0,-3,-3,-1
1517208032914057,0,-3,-2,-1,-2,0,0,0
1517208032914057,-2,-1,-1,-1,-1,0,0,0
1517208032934584,-1,-1,-3,-1,0,0,-2,0
1517208032934584,-1,0,0,-1,-2,-1,0,-2
1517208032936585,-1,1,0,0,-1,-2,-1,-2
1517208032936585,-1,0,-1,-2,-1,-2,-1,-1
1517208032948582,-1,-2,-1,-1,0,-2,-1,-2
1517208032948582,0,-2,-3,-2,0,1,-2,0
1517208032957608,-1,-2,-1,-1,-1,0,-2,-1
1517208032957608,-2,0,0,-1,-1,-1,2,-1
1517208032980105,-3,-1,-1,-1,-2,-2,-2,-2
1517208032980105,-1,0,-1,-1,-1,-2,0,-2
1517208032981627,-1,0,-2,-1,-1,-1,-2,-1
1517208032981627,0,-3,0,-2,0,0,-4,-2
1517208032994629,-1,-2,-1,-2,0,0,0,-1
1517208032994629,-1,-1,0,-2,-1,-2,-1,0
1517208032996616,-1,-2,-1,0,-2,-1,-1,-1
1517208032996616,-2,-1,-2,-2,-2,-1,-2,-2
1517208033008657,-1,1,-2,0,-1,0,0,-1
1517208033008657,-1,-1,-1,0,-2,-1,-2,-3
1517208033017382,-1,-2,0,-2,-1,0,1,0
1517208033017382,-1,-1,-1,-1,-1,-2,-1,0
1517208033032397,-2,-2,-1,0,-2,1,-2,-1
1517208033032397,-2,-1,-2,0,-2,0,-1,1
1517208033033893,0,-2,-1,-1,-1,0,0,-1
1517208033033893,-2,-1,-2,1,-1,-1,0,0
1517208033054408,1,-1,0,-1,-2,-1,-1,0
1517208033054408,-1,0,0,-1,-1,-1,-1,-1
1517208033060912,-1,0,0,-2,0,-1,-1,-1
1517208033060912,-1,-1,0,-2,-2,-1,0,-2
1517208033068417,-2,0,0,-2,0,-3,0,-2
1517208033068417,-1,-2,0,0,-2,-2,-1,-2
1517208033077436,-2,-2,-2,0,-1,-1,-1,-1
1517208033077436,0,-1,-1,-2,-1,0,0,-1
1517208033092494,0,1,-2,0,-2,-2,1,0
1517208033092494,-1,0,-1,-1,0,-1,0,-1
1517208033093995,-1,1,-3,-1,-2,-1,-2,-2
1517208033093995,-1,-2,0,0,-1,1,-2,0
1517208033114951,-1,-2,-2,0,-2,-2,-2,-1
1517208033114951,-1,-2,-1,-3,-1,-2,-1,-1
1517208033116464,-1,0,1,-4,-2,-2,-1,1
1517208033116464,0,1,0,-1,-1,0,-2,0
1517208033128514,-1,0,0,-3,-1,-1,-2,-3
1517208033128514,-3,-1,-1,-1,-1,0,0,-2
1517208033137476,-1,0,-2,-2,-1,-1,0,-1
1517208033137476,-1,-2,-1,-1,-2,-1,-1,-1
1517208033152478,-1,0,-2,-1,0,1,-1,0
1517208033152478,0,-1,-2,-2,-2,-2,1,0
1517208033154489,-1,-2,0,-2,0,0,0,-1
1517208033154489,-2,0,-2,-1,-2,-1,0,-1
1517208033174994,0,-2,-1,0,0,-1,-2,-1
1517208033174994,-2,-2,-1,-1,-2,-2,-2,-1
1517208033176495,-2,0,-1,-1,0,-1,-1,-2
1517208033176495,1,-1,-2,-1,0,-2,-1,-2
1517208033188503,-1,0,0,-1,-2,-2,-1,-1
1517208033188503,-1,1,-2,-1,-1,-2,-1,-1
1517208033197510,-2,-2,-1,-1,0,-1,-2,0
1517208033197510,0,-2,-1,-1,0,-2,-1,0
1517208033212520,-1,-1,-2,-1,0,0,0,0
1517208033212520,0,-1,0,0,-1,0,-1,-1
1517208033214021,-1,-2,0,-1,-3,-1,0,-2
1517208033214021,-1,-1,-2,-1,-2,0,-1,-1
1517208033234535,-1,-1,-3,-1,-2,-1,-2,-2
1517208033234535,0,-2,-2,1,-1,-1,-1,1
1517208033236538,-1,-1,-2,0,0,-3,-1,0
1517208033236538,-2,-1,-1,-1,-1,-1,-1,0
1517208033257051,0,-2,-1,-3,-1,-2,1,0
1517208033257051,-1,-1,-1,-2,-1,0,-2,0
1517208033259068,0,-1,-1,-1,-2,-2,-1,0
1517208033259068,-2,0,-1,-1,0,0,-1,0
1517208033272061,0,-2,0,1,-2,0,-1,0
1517208033272061,0,0,-2,-3,-1,1,1,0
1517208033274063,-1,-2,-1,-1,0,-1,-1,-2
1517208033274063,-2,-1,-1,-2,0,-2,-2,-1
1517208033294600,-1,-1,-2,-3,-1,-1,-1,-1
1517208033294600,-1,-2,0,-1,-1,-2,-1,-1
1517208033296579,-1,-1,-1,2,-2,-1,-1,-2
1517208033296579,0,-1,-1,-1,-1,0,0,-1
1517208033317594,-1,0,-2,-3,0,-2,-2,-1
1517208033317594,0,-3,-2,-1,0,-1,-2,-1
1517208033319599,-1,0,-2,-2,-1,0,-1,-1
1517208033319599,-1,-2,-2,-1,-2,-1,0,-2
1517208033332125,-1,-1,0,0,-1,-2,0,-1
1517208033332125,-2,-1,-1,0,-2,-2,1,-1
1517208033333898,0,0,-2,-2,0,0,-2,-1
1517208033333898,-1,-1,-2,-1,0,-1,-2,-1
1517208033354922,0,-1,-1,-1,-3,-1,-1,-2
1517208033354922,-1,0,-1,0,-2,-2,-2,-2
1517208033356425,-1,0,-3,0,0,-1,-2,-1
1517208033356425,-1,-2,0,0,-1,-1,1,-1
1517208033377426,-3,0,1,0,0,-1,-3,-1
1517208033377426,-2,-1,-1,-1,1,0,0,-1
1517208033378918,-1,0,-2,-1,-2,-2,0,-1
1517208033378918,-1,-2,-1,-1,-1,-1,-1,-1
1517208033391442,-1,0,-2,-2,-1,-1,1,0
1517208033391442,-2,-3,-1,-1,-2,-2,-2,-1
1517208033405937,-1,-2,0,-2,-1,-1,0,0
1517208033405937,-1,0,0,-1,-1,-2,-2,-2
1517208033414945,-1,-2,-2,-1,-2,-1,0,0
1517208033414945,0,-1,-2,-1,0,-1,1,0
1517208033416444,0,-1,-2,0,-2,-1,0,-1
1517208033416444,-1,-1,-1,-1,0,-1,-2,1
1517208033436999,-2,0,-2,-1,-1,-1,-1,-3
1517208033436999,-1,-1,-2,-1,-2,0,-3,1
1517208033439017,-1,-1,0,-1,-1,-1,-2,0
1517208033439017,0,-1,1,0,-1,-1,-1,-2
1517208033451508,-2,0,-1,-2,-2,-2,-1,0
1517208033451508,-1,0,0,-1,-2,-1,-1,-2
1517208033458589,-1,-3,-2,-1,-1,-3,0,-2
1517208033458589,-1,0,-3,-1,-1,0,0,-1
1517208033474587,-1,-3,0,-1,-1,-2,-2,-2
1517208033474587,-1,-1,-1,0,-1,-1,0,-2
1517208033476593,-2,-2,-1,-1,0,0,0,1
1517208033476593,0,0,-1,-2,0,-2,0,-1
1517208033498107,1,0,1,0,-2,1,0,-2
1517208033498107,-1,0,-2,-2,0,-1,-2,-3
1517208033499605,-1,1,-1,-1,-2,-2,-3,-1
1517208033499605,-1,0,-2,-2,-1,-2,-1,0
1517208033511631,0,-2,-1,-1,-1,0,-1,0
1517208033511631,1,-1,-1,-3,-1,0,1,-3
1517208033518634,-2,-1,-2,-2,0,0,-1,-2
1517208033518634,-2,-1,-1,-1,-1,-2,0,-2
1517208033535131,-1,1,-1,-3,0,-3,-2,-1
1517208033535131,0,0,-1,0,-2,-1,-1,0
1517208033537142,0,-2,-1,-2,0,-1,-1,-1
1517208033537142,-1,-1,0,0,-1,0,-2,0
1517208033557149,-1,-2,1,0,-2,-1,0,0
1517208033557149,-1,-2,0,-3,-2,-2,1,1
1517208033558647,-1,0,0,0,0,-1,-1,-1
1517208033558647,-1,-1,-3,-1,-2,-1,0,-1
1517208033571656,-2,-1,-2,-2,-1,-3,-1,-3
1517208033571656,-2,-2,-1,0,-1,0,-1,-1
1517208033578661,-1,1,0,-2,-2,0,0,-1
1517208033578661,-1,-1,-1,-3,-1,-1,-2,1
1517208033594682,-1,-1,-2,-1,0,0,-1,-1
1517208033594682,-2,0,0,0,-1,1,-3,1
1517208033596174,-2,-2,-1,0,-2,-2,-3,-2
1517208033596174,-1,-1,1,0,-2,-2,-1,-1
1517208033617188,-1,-1,-2,-1,-2,-2,-2,-2
1517208033617188,-1,0,-2,0,-1,-1,-2,-2
1517208033618690,-1,0,0,-2,-1,-2,0,-2
1517208033618690,-2,-1,0,-1,-3,0,0,-1
1517208033631700,0,-1,-1,0,-1,-1,-1,-1
1517208033631700,-1,-1,-2,-1,-1,-1,0,-2
1517208033638203,-2,0,-3,-1,-3,-1,0,-1
1517208033638203,1,-2,-2,-1,-1,-1,-1,0
1517208033654798,-1,0,-2,0,0,-1,-2,-2
1517208033654798,-1,0,-1,0,-2,-1,-2,-1
1517208033656285,0,-1,-2,-1,0,3,0,-3
1517208033656285,-2,0,0,-1,1,-1,-2,-3
1517208033677368,-1,0,-1,-2,-2,-3,0,-1
1517208033677368,0,-1,-1,-2,1,-1,0,-2
1517208033678801,0,-3,-1,-2,-1,-2,-1,-1
1517208033678801,-1,-1,0,-1,-1,-1,-1,0
1517208033691332,-2,-1,-1,-1,0,0,0,0
1517208033691332,0,-1,-1,-1,1,-1,0,1
1517208033698815,-1,1,-1,-1,0,-1,-1,0
1517208033698815,0,-1,-2,-2,-1,1,0,-3
1517208033714837,-2,0,-1,-1,1,-1,0,-1
1517208033714837,-2,0,-2,-1,-2,-2,-1,-2
1517208033716346,0,-1,-1,0,0,-1,-1,-1
1517208033716346,-2,-1,0,-2,-3,-1,0,-3
1517208033737342,-1,0,-2,0,-2,0,-1,0
1517208033737342,-2,0,-2,-1,-3,-1,-1,0
1517208033738856,-1,-1,0,-1,-1,-1,-2,-1
1517208033738856,-1,-3,-1,0,-1,-2,-1,0
1517208033750893,-1,-1,0,0,-1,-2,-1,0
1517208033750893,1,-2,0,0,-1,-2,-1,0
1517208033759921,0,-1,-2,-1,-1,0,0,-1
1517208033759921,-1,-1,-2,0,-1,1,-1,1
1517208033774909,0,-2,0,-2,0,-1,0,-1
1517208033774909,-1,-1,-3,-1,-1,-1,-1,-2
1517208033776410,0,-1,0,1,-1,-1,-2,-2
1517208033776410,-2,-2,-1,0,-1,-1,-1,-2
1517208033797436,-2,-1,-2,-1,-2,-1,-1,-1
1517208033797436,-1,0,0,1,-3,0,0,-1
1517208033798926,0,-1,-2,-1,-2,-3,-1,0
1517208033798926,-1,0,-1,0,0,-2,0,0
1517208033810938,0,-1,0,-2,0,-3,-1,-1
1517208033810938,-1,-2,-1,-2,-2,0,0,1
1517208033819979,-2,-1,-1,-1,0,0,-1,-1
1517208033819979,-2,-1,0,-1,0,0,-2,0
1517208033834952,-1,-2,-1,0,1,1,-2,-1
1517208033834952,-2,0,-2,-2,0,-1,0,-3
1517208033836454,0,-1,-2,0,-1,-1,-1,-1
1517208033836454,0,-1,0,-1,1,0,-2,-3
1517208033857468,-2,-2,-1,2,-3,-1,-1,-2
1517208033857468,-1,-3,0,0,0,-1,-2,-1
1517208033858984,-1,-3,-2,-1,-1,-2,-2,1
1517208033858984,1,1,-2,0,-1,-1,-1,-2
1517208033870978,0,-1,-1,-3,-1,0,-2,1
1517208033870978,-1,-1,-1,0,-1,-2,0,-1
1517208033879984,-1,-2,-1,-2,-1,-2,1,-1
1517208033879984,-1,-2,-1,-1,0,-3,0,-2
1517208033894503,0,-2,-1,-1,0,-1,-1,1
1517208033894503,-2,-1,-3,-2,-1,0,-1,-1
1517208033896496,-3,1,-2,-1,-1,0,-1,0
1517208033896496,-1,0,-3,-2,-1,-2,-2,1
1517208033916521,-3,0,0,0,-1,-2,0,-1
1517208033916521,-1,-1,-1,0,0,-1,-1,-1
1517208033925025,-1,-2,1,-2,-1,-1,0,-2
1517208033925025,-1,-2,-1,-2,-1,-2,-1,0
1517208033931031,0,-3,-2,0,-1,0,-1,-2
1517208033931031,-1,-1,-2,-2,-1,-2,-2,0
1517208033940044,-1,-1,0,-3,-2,-2,-1,0
1517208033940044,-2,-1,-1,-1,-2,-1,-2,0
1517208033954539,0,0,-1,-1,-2,-2,0,-1
1517208033954539,-1,-1,-1,0,-2,0,-1,-2
1517208033956037,-2,-1,0,-1,0,0,-2,-1
1517208033956037,0,-1,-3,-1,-1,-2,-3,-2
1517208033977565,-2,0,-3,-2,-1,-2,-2,0
1517208033977565,-2,-2,-2,-2,-1,-1,-1,-2
1517208033979054,0,1,1,1,0,-2,-2,-1
1517208033979054,0,0,0,-1,-1,0,0,-1
1517208033991101,-1,0,1,-1,-1,0,0,-2
1517208033991101,-1,-1,0,-3,-1,-1,-2,-2
1517208034000070,-2,-2,-1,-1,-2,0,0,-1
1517208034000070,-1,-1,-1,-2,-2,-3,-1,-2
1517208034015090,-1,0,-4,-3,-1,-2,1,-1
1517208034015090,0,0,0,-1,-1,-1,0,0
1517208034016592,-1,-1,-1,-1,0,0,-2,-1
1517208034016592,-2,-1,-2,-2,-3,-1,0,0
1517208034037095,-1,-1,0,-2,0,-3,1,-1
1517208034037095,-1,0,0,-1,0,-1,0,-2
1517208034039104,-1,-2,-1,-2,-1,-2,0,0
1517208034039104,-1,-1,-1,-1,0,0,-3,0
1517208034051107,0,-3,-2,-1,-3,-1,-2,-1
1517208034051107,1,-2,-1,-1,-2,-1,-1,1
1517208034059699,-1,0,-1,-1,-1,-2,-1,-2
1517208034059699,-3,-1,0,0,0,-1,-1,-2
1517208034074720,-1,-1,-1,0,0,1,-1,-1
1517208034074720,0,-2,-1,0,-1,-1,-1,-2
1517208034076222,-1,-1,-2,0,-3,0,1,-1
1517208034076222,0,-1,0,1,-1,-1,-1,-2
1517208034097225,-2,0,0,-3,-1,-1,-1,-2
1517208034097225,-1,0,0,-2,-2,-3,0,1
1517208034098745,-2,-1,0,0,-2,-1,-1,0
1517208034098745,-1,0,-3,-3,-2,0,0,0
1517208034110750,-1,-3,-2,0,0,-1,-2,-2
1517208034110750,-1,-2,-1,-2,-1,0,0,0
1517208034119740,0,-1,-2,0,-1,-2,-2,-2
1517208034119740,-1,-1,-1,-2,-2,0,-1,0
1517208034134760,-1,-1,-2,0,-2,-2,-1,-2
1517208034134760,-2,-2,-3,1,0,0,-4,-1
1517208034136254,-1,-1,1,0,1,-3,0,-2
1517208034136254,-1,-2,0,-2,-2,-1,0,-2
1517208034157290,0,0,-2,-1,-1,-1,-1,0
1517208034157290,-2,-1,-2,0,-1,-2,-1,-1
1517208034158790,-2,-1,-2,-1,-1,0,-3,0
1517208034158790,0,-1,0,0,-1,0,-1,0
1517208034179783,0,-1,0,-1,-1,-1,-2,-2
1517208034179783,0,-2,-1,-2,-1,1,-1,-2
1517208034181304,1,-1,-2,-1,0,-1,-2,-1
1517208034181304,0,-2,0,0,0,-1,-2,1
1517208034194812,-2,0,1,-2,0,-1,-1,0
1517208034194812,-1,0,0,1,-1,-2,-1,0
1517208034196295,-2,-1,-2,-1,-1,-2,0,-2
1517208034196295,-1,-2,-3,0,0,0,-2,-2
1517208034217328,-2,-2,-1,1,-2,0,0,-2
1517208034217328,0,0,-2,-1,-2,-1,-3,-1
1517208034218811,-2,-1,0,-2,0,-1,0,-1
1517208034218811,-1,1,-1,-1,-1,-2,-1,-1
1517208034239825,-2,-1,-2,0,-2,-2,0,0
1517208034239825,1,1,0,-2,0,-2,-1,1
1517208034241327,-3,-1,-2,0,-3,1,-1,-2
1517208034241327,-1,0,-2,-1,-1,-1,-1,-1
1517208034254839,-2,0,0,-2,0,0,0,-1
1517208034254839,-2,-1,-2,-2,-1,0,0,-1
1517208034256341,0,-1,-1,-2,-1,-1,-1,0
1517208034256341,-2,-1,0,0,-1,0,-1,-1
1517208034277365,0,0,-1,-1,-1,-2,-1,1
1517208034277365,-1,-1,-2,0,-2,-1,-1,-1
1517208034278867,-1,-1,-1,-3,-1,-2,0,-1
1517208034278867,-1,-2,1,-2,-1,-3,-1,0
1517208034299869,0,-1,-1,1,0,-2,-3,0
1517208034299869,-1,-2,-1,0,-1,0,-1,-4
1517208034301368,-1,-1,0,1,-2,0,-2,-1
1517208034301368,0,-2,0,-1,-2,0,-1,-1
1517208034314879,0,0,0,-2,-1,0,-2,-1
1517208034314879,-1,-1,-2,-2,-3,-2,-2,0
1517208034316379,-2,0,-2,0,-2,0,-2,-1
1517208034316379,-1,-1,-1,1,-1,0,-2,-2
1517208034337894,-1,-3,-1,-1,-2,-1,0,-1
1517208034337894,-2,-1,-1,-1,-1,-2,0,-2
1517208034339399,-1,1,-3,-1,0,-1,-2,0
1517208034339399,-1,0,-2,0,0,0,1,-1
1517208034358929,0,-1,-1,-1,-1,1,-1,-2
1517208034358929,-1,-1,1,-1,0,-1,-1,0
1517208034367418,0,-2,-2,-1,-1,-3,-1,-1
1517208034367418,-2,0,-2,-2,0,-2,0,-2
1517208034373920,-1,0,-1,0,-2,-2,-3,-3
1517208034373920,-2,-1,-1,-1,-2,-1,-2,-1
1517208034381425,0,-3,-1,-2,-3,-2,-1,-1
1517208034381425,-1,-3,-3,-1,-1,0,-1,0
1517208034397436,-2,-2,-2,-2,0,-1,0,1
1517208034397436,0,-3,-1,0,-2,-2,-1,0
1517208034398940,-2,-1,-1,0,-2,-1,-1,-2
1517208034398940,0,-2,0,-1,-3,-1,-2,0
1517208034419468,-1,0,-3,-1,0,0,-1,-3
1517208034419468,-2,2,-1,0,-1,-2,-1,-1
1517208034421463,0,0,-1,-3,0,-1,1,-1
1517208034421463,-2,0,-2,-1,-1,0,0,0
1517208034433962,-2,-3,-1,0,-2,-3,-2,0
1517208034433962,-2,-3,0,-2,0,0,-2,-1
1517208034440984,-1,0,-2,-1,0,-2,-2,-1
1517208034440984,1,-2,-1,0,0,-1,0,-2
1517208034456982,0,0,0,0,-1,0,1,0
1517208034456982,0,-1,0,-1,0,0,1,-3
1517208034458980,-1,-1,-1,-1,-1,-1,-1,1
1517208034458980,-1,0,-1,-1,-1,-1,-2,0
1517208034480008,0,0,-1,0,-1,-2,-2,-1
1517208034480008,-1,-2,-2,0,-1,-1,-2,0
1517208034481498,0,-1,-1,1,-2,0,-1,-2
1517208034481498,-1,1,-1,-2,0,0,-1,-2
1517208034494019,-2,-1,-2,-4,0,1,-1,-2
1517208034494019,-2,0,-2,-1,-1,0,0,-1
1517208034501011,-2,0,-1,-2,-1,-1,-2,-2
1517208034501011,-2,-2,-1,-1,-1,-4,-1,0
1517208034517032,-1,0,-1,0,-1,-2,-1,-1
1517208034517032,-1,0,-1,-1,-1,-2,-1,0
1517208034519032,0,-1,0,-1,-2,1,1,-1
1517208034519032,0,-1,-1,-1,-1,-2,0,0
1517208034539540,0,-1,-1,-1,-2,-2,-2,-1
1517208034539540,1,-1,-1,-1,-1,-2,0,-1
1517208034541038,0,-3,-1,0,0,-2,-2,-1
1517208034541038,-2,-2,0,-1,-2,-1,-3,-1
1517208034554047,0,0,-1,-2,0,0,0,0
1517208034554047,1,-1,-3,0,0,-2,1,1
1517208034561068,-1,-1,-1,0,-1,-1,1,-1
1517208034561068,-1,-2,-1,-1,-2,-1,-3,-2
1517208034577096,-1,-2,-1,-2,-2,-1,-1,-2
1517208034577096,-2,-1,-1,-2,-1,0,0,-1
1517208034579097,0,1,1,-1,-1,-1,-1,-1
1517208034579097,0,-1,0,-1,-1,-1,0,-1
1517208034600081,-1,-1,0,-1,-2,0,-2,-1
1517208034600081,0,0,-2,0,0,-1,-3,-1
1517208034601582,0,-2,-2,0,0,-2,1,0
1517208034601582,-2,-2,-1,-1,0,0,-1,-2
1517208034614092,-2,-2,0,-1,0,-2,-1,-2
1517208034614092,-1,-2,1,-1,-2,-2,-2,-2
1517208034621095,-1,-1,-1,-1,-1,-1,-1,-1
1517208034621095,0,-1,-1,-1,0,-2,-1,-2
1517208034644626,1,-1,-2,-1,-3,-1,0,1
1517208034644626,-2,-2,-2,-1,-1,-2,-1,0
1517208034646113,1,-2,-1,-1,-1,-1,0,0
1517208034646113,0,0,0,-1,0,-1,0,-1
1517208034659713,-2,-1,0,-2,0,0,0,-1
1517208034659713,-1,-2,0,0,-1,-1,-3,-3
1517208034661165,-1,-1,-1,-1,-1,-1,-1,-1
1517208034661165,0,0,-1,1,0,0,-1,-2
1517208034673686,-1,0,-1,-1,0,0,0,-1
1517208034673686,-1,-1,0,-1,-1,0,0,-1
1517208034682692,-3,-1,-1,-1,0,0,-2,-1
1517208034682692,-1,-2,-2,-1,-1,-1,-1,-2
1517208034697202,-1,-1,-1,0,-2,-1,-1,0
1517208034697202,1,-3,-1,0,-2,-1,-1,0
1517208034698706,0,-1,-2,-1,-2,-1,-2,-1
1517208034698706,-2,-2,-1,-2,0,-3,0,-2
1517208034719778,-1,-2,-2,-2,0,-2,-2,-1
1517208034719778,-1,0,0,-1,-2,-1,-1,-1
1517208034721267,-1,-1,0,-1,0,0,-1,0
1517208034721267,-1,-1,-1,-1,-2,-3,0,0
1517208034733274,-1,-1,1,0,-2,-2,-1,-1
1517208034733274,-2,0,1,-2,0,-1,-1,-1
1517208034742781,-1,-1,-2,-1,-1,0,-2,-2
1517208034742781,0,0,1,-1,-3,-1,-2,-1
1517208034757295,0,-2,-2,-1,-1,0,0,-2
1517208034757295,-1,-1,-3,0,0,-2,1,0
1517208034758793,0,0,-1,-1,-1,-1,-1,-2
1517208034758793,-1,-2,-1,-1,-1,0,-1,-1
1517208034779820,0,-3,0,-2,0,0,-1,-1
1517208034779820,-1,0,-1,-2,1,-2,0,0
1517208034781309,-3,0,-1,-2,-1,0,0,-2
1517208034781309,-1,0,-1,0,0,-1,-1,-2
1517208034793317,-2,0,-1,0,-2,-1,-1,0
1517208034793317,-1,-1,-3,-2,-2,0,-1,0
1517208034802323,-3,-1,-3,-1,-1,-3,-3,-1
1517208034802323,-2,-1,-1,-2,1,-2,-1,-1
1517208034817334,-1,-1,-1,-1,0,-1,-1,-1
1517208034817334,0,1,-2,-1,-1,-1,-1,-1
1517208034818835,1,0,-1,-2,-2,-2,-1,-1
1517208034818835,-1,-1,-2,-2,0,-2,-1,0
1517208034839866,-1,-2,-2,-1,-1,-2,-1,-1
1517208034839866,-2,-2,-2,0,-1,0,-1,-1
1517208034841351,-1,-2,0,0,-1,-1,-1,-1
1517208034841351,0,-1,-1,0,-3,-1,-1,0
1517208034853861,0,0,1,1,-1,-1,-2,-2
1517208034853861,-2,0,-1,-3,1,-3,-1,0
1517208034862391,-1,-3,-2,-1,0,-1,0,0
1517208034862391,-2,-2,1,-1,-3,0,-1,-1
1517208034877378,0,-1,-1,-2,-1,-2,-2,0
1517208034877378,0,-1,0,-1,-1,1,-2,0
1517208034878907,-3,-2,-1,0,-1,0,-2,-1
1517208034878907,-2,-1,-2,0,-1,-1,-2,1
1517208034899893,-1,0,-2,-2,-2,-1,0,-1
1517208034899893,-2,-2,-2,-1,-1,-2,-3,-1
1517208034901393,-1,-2,-2,-2,0,-2,0,-2
1517208034901393,1,0,-1,-1,-2,0,0,-1
1517208034921909,-2,-2,-2,-1,0,-3,-1,-1
1517208034921909,-1,-1,-1,-1,-2,-2,-2,-3
1517208034923910,-1,0,-1,1,0,0,-2,-1
1517208034923910,-2,0,-1,-1,0,-2,-1,-1
1517208034937419,0,-2,0,-1,-2,1,-2,0
1517208034937419,-1,-1,0,-2,-1,-1,0,-1
1517208034938920,-2,-1,-1,-1,-2,-1,-1,-1
1517208034938920,-2,0,-1,-3,0,-1,-1,-2
1517208034959438,-1,-3,-1,-1,-2,0,-1,0
1517208034959438,-2,-1,-2,-1,-2,-1,-2,-2
1517208034961436,0,-1,0,0,-2,-1,0,-1
1517208034961436,-1,-1,-1,0,-2,1,-1,-1
1517208034973445,-3,-1,0,0,0,-2,0,-3
1517208034973445,0,-1,0,-1,-2,-1,-1,-1
1517208034982453,-2,-1,-1,-1,-1,-1,1,0
1517208034982453,0,0,0,-1,-2,-1,-2,0
1517208034996962,1,0,-2,-2,-1,-2,-1,0
1517208034996962,-1,0,-3,0,-1,-2,-2,-1
1517208035003466,1,-1,1,-1,-2,1,-1,0
1517208035003466,-1,-3,-2,-1,-1,-1,1,-2
1517208035019493,-1,-1,-1,-1,-1,-1,-2,-1
1517208035019493,-2,-2,1,-1,-2,-1,1,-1
1517208035021479,0,-1,-2,-1,1,-2,-1,-2
1517208035021479,-1,-1,-1,-1,-2,-1,-3,-2
1517208035033487,-1,-1,-1,0,0,-2,-1,-2
1517208035033487,-1,-1,-1,-1,-1,-2,-1,0
1517208035042514,-2,-4,0,-2,-1,-2,-2,0
1517208035042514,0,-2,-1,-1,1,0,0,0
1517208035057004,-2,0,-1,0,-1,0,-3,0
1517208035057004,0,-1,-1,-2,1,-1,-2,-1
1517208035059005,1,-2,-3,0,-3,-2,-2,-2
1517208035059005,-1,-2,-1,-2,-2,-1,-1,-2
1517208035079520,-3,0,0,0,-2,-3,-1,-3
1517208035079520,-2,-1,-2,-1,-1,1,-1,-1
1517208035081522,-1,1,0,-4,-1,0,-1,-1
1517208035081522,-1,-1,-1,-1,-1,-3,-1,-3
1517208035102037,-1,-1,-1,-3,0,0,-1,-1
1517208035102037,-1,-1,-3,-1,-2,-1,-3,0
1517208035104038,0,0,-1,0,0,-2,-2,0
1517208035104038,-2,-1,-3,-1,-3,-2,0,0
1517208035117546,0,0,0,-2,-1,0,0,-1
1517208035117546,-1,0,1,1,0,-1,-1,-1
1517208035119048,-2,-2,-1,0,-2,-1,-1,0
1517208035119048,-1,-2,-1,-1,-1,-1,-1,0
1517208035139595,-1,-2,-3,-2,-1,-2,0,0
1517208035139595,-1,0,-1,0,0,-1,-2,0
1517208035141073,-3,0,-1,0,0,-2,-1,-1
1517208035141073,-2,0,0,-1,0,-3,0,-1
1517208035162092,-1,-1,-1,0,-1,-1,-2,-1
1517208035162092,-1,-3,-1,-1,0,0,0,-1
1517208035163580,1,-1,-1,-1,-2,-1,-2,0
1517208035163580,0,-2,-1,-2,0,-1,-1,-1
1517208035177106,-1,0,-4,-2,-2,-1,-2,-1
1517208035177106,-1,-2,-1,-2,-2,-1,-1,0
1517208035179109,-2,0,-1,0,0,0,-1,-2
1517208035179109,-1,-2,-1,-1,0,0,-2,0
1517208035200109,-1,-1,0,0,0,-1,1,-1
1517208035200109,0,-1,-1,-1,-2,-1,0,-1
1517208035201105,-1,-2,-3,-3,-2,-2,1,-3
1517208035201105,0,0,-1,-2,-1,-2,-2,-1
1517208035222130,-1,-2,-1,1,0,-1,-1,-2
1517208035222130,-3,-1,-2,-2,-2,0,-2,-1
1517208035223631,0,-1,-2,1,-1,1,-1,1
1517208035223631,-1,0,-1,0,-1,-1,0,-1
1517208035237131,-1,-2,-1,0,-3,-2,0,0
1517208035237131,-2,-2,-3,-2,-2,0,0,1
1517208035239132,-1,0,-1,-2,-1,-2,-1,-2
1517208035239132,0,-1,-2,1,0,0,-1,-1
1517208035259669,-1,-2,-2,-2,0,0,-1,-1
1517208035259669,-2,-2,-1,1,-2,-1,-1,-3
1517208035261160,-3,-1,0,-2,-1,-1,-3,-1
1517208035261160,-2,-1,-2,-3,-2,-2,-2,-1
1517208035282163,0,-2,0,0,-1,1,0,-2
1517208035282163,0,0,-2,-1,-1,-1,-1,-2
1517208035283665,-2,0,-1,-2,-3,-2,-1,0
1517208035283665,0,-1,-1,-2,-1,-1,-2,-3
1517208035296673,0,0,0,-2,-1,-3,-1,2
1517208035296673,-2,-1,0,0,-2,-2,0,-1
1517208035303178,0,-2,-1,-1,-2,-1,0,-2
1517208035303178,-2,-1,-1,-1,-1,-1,-1,1
1517208035319689,0,1,-2,-1,-1,1,-2,-2
1517208035319689,0,-1,0,-3,-1,0,0,-1
1517208035321191,1,-1,0,0,-1,0,-1,0
1517208035321191,-2,-2,-2,0,-2,-2,1,-2
1517208035342238,-1,-1,-1,-1,-1,0,-2,-2
1517208035342238,-2,-2,0,-1,-1,-2,0,0
1517208035343742,-1,-2,-1,-1,0,0,-3,-1
1517208035343742,0,-1,-1,-1,-1,1,-1,-1
1517208035356764,0,0,-1,0,-2,-1,0,-1
1517208035356764,1,-1,-1,-2,-1,-1,-1,-3
1517208035363256,-2,-1,-1,-2,-1,-1,-2,-1
1517208035363256,-2,-1,-2,-2,-1,-1,0,-1
1517208035379782,-1,-1,-1,-1,-2,0,-1,1
1517208035379782,1,0,-2,-2,-1,0,-2,1
1517208035381269,-2,-1,-1,-1,-1,-1,0,-2
1517208035381269,-1,-1,-1,-2,-2,-1,-1,0
1517208035402283,-3,-1,0,-2,-2,-1,-1,-1
1517208035402283,-1,-2,-1,1,-1,-1,0,0
1517208035403785,1,-1,-2,1,-1,-1,-1,0
1517208035403785,-1,-1,1,0,-2,-3,0,0
1517208035416302,-1,-3,-3,-1,-1,-3,0,-2
1517208035416302,-2,-2,-1,-1,0,-2,-2,-1
1517208035423307,1,-1,-2,-2,-1,-2,-1,-1
1517208035423307,-1,-2,-1,-1,-1,0,-1,-2
1517208035439813,-2,-1,-1,0,0,-2,-1,0
1517208035439813,-1,-1,-2,0,-1,-2,-1,-1
1517208035441311,-1,-1,-1,-1,-2,-1,0,-1
1517208035441311,-1,-2,-2,-1,-1,-1,-1,-2
1517208035462338,-1,-2,-1,-2,-2,-1,-1,0
1517208035462338,-1,-1,0,-1,-1,-1,-2,0
1517208035463826,-1,-1,-1,-1,-1,-2,-1,-1
1517208035463826,-1,-1,-1,-1,-2,-1,-2,-1
1517208035476348,-3,0,-2,0,-1,-1,-2,-1
1517208035476348,0,1,-2,-1,-1,-1,-1,-1
1517208035483340,-1,-2,0,0,-1,-1,-1,1
1517208035483340,-1,-1,-2,-1,-2,-1,0,-2
1517208035499853,0,-1,1,-1,1,0,1,-2
1517208035499853,-2,-2,-2,0,-3,1,-2,0
1517208035501353,-2,-1,-2,0,-2,0,-1,-1
1517208035501353,-1,-1,-3,-1,0,0,-2,-3
1517208035522368,0,0,0,0,-2,-2,-2,-1
1517208035522368,0,-2,-1,-1,-2,0,1,-2
1517208035523869,-2,-2,-1,-1,-1,0,-1,0
1517208035523869,1,-1,-1,1,-1,1,1,1
1517208035536379,-4,-1,-3,-2,-1,-2,-2,-2
1517208035536379,-1,-2,-2,2,0,-2,-2,-1
1517208035543383,-2,-1,0,-1,0,-1,0,-2
1517208035543383,-1,0,-1,0,-1,-3,-2,-1
1517208035560395,1,-1,0,-2,-1,-2,-1,-1
1517208035560395,-2,0,-2,-2,-1,-2,1,-1
1517208035561911,-1,0,-1,-3,-1,0,0,-2
1517208035561911,-4,-1,-1,-2,-3,0,-1,7
1517208035582412,3,1,-3,-1,-2,-3,0,-10
1517208035582412,0,0,-1,0,-2,-1,-3,-4
1517208035583913,-4,-3,-1,-1,-2,-1,0,-2
1517208035583913,0,0,0,1,0,-1,1,-4
1517208035595962,-1,-1,-1,-2,-1,0,-1,3
1517208035595962,-3,-1,0,-1,0,-2,0,-2
1517208035604951,2,0,-1,0,-1,-2,-3,-1
1517208035604951,-1,-1,-1,-3,0,0,0,-1
1517208035619440,-4,-1,-3,0,-1,-1,-1,1
1517208035619440,-1,-1,-2,-2,0,-1,0,-2
1517208035621438,-2,-1,-1,-1,0,-1,-2,1
1517208035621438,-1,-2,0,0,0,-2,-3,-2
1517208035641967,-1,-1,0,-1,0,0,-2,0
1517208035641967,0,-1,-1,-2,-1,-1,-1,1
1517208035643954,0,0,-1,-1,-2,0,0,0
1517208035643954,-1,-1,-1,-1,-1,0,-1,-2
1517208035655963,-1,-2,-2,0,-1,0,-2,-1
1517208035655963,-1,-1,0,0,-2,0,-2,-2
1517208035670976,-2,-3,-2,-2,-1,-2,-2,-1
1517208035670976,0,-2,-1,-1,-3,-2,-1,-3
1517208035680004,-3,0,0,-2,0,-1,1,0
1517208035680004,1,-1,-1,-2,0,-1,-1,0
1517208035681503,0,0,-1,-1,-1,-1,-1,-2
1517208035681503,-2,0,0,-2,-2,-1,-1,0
1517208035702017,-1,-3,-1,-1,-2,-2,0,-1
1517208035702017,0,0,-1,0,-3,0,-1,-2
1517208035704018,0,-2,1,0,1,-1,-2,0
1517208035704018,-1,-1,-1,-2,0,-1,-1,-1
1517208035716043,1,-1,-2,0,-1,-1,0,0
1517208035716043,-2,-1,-2,-2,-1,-1,-2,0
1517208035725043,-1,-2,-3,-2,-3,-1,-1,-1
1517208035725043,0,-2,1,0,0,0,0,0
1517208035739558,-1,-1,1,-2,-1,-1,-1,1
1517208035739558,0,-1,-3,-2,-1,-1,1,-1
1517208035741544,-1,0,-1,0,1,-1,-1,-1
1517208035741544,-1,-1,-2,-2,-2,0,-1,-1
1517208035762073,-1,0,-1,-2,-2,-2,1,-1
1517208035762073,-2,-1,1,0,-1,-1,-2,-1
1517208035763563,-2,-2,-2,-1,0,-1,-2,-3
1517208035763563,-2,0,-3,0,0,-2,-1,-2
1517208035776082,-2,0,0,0,-3,0,-1,-1
1517208035776082,0,0,-2,-2,0,-2,0,-1
1517208035785085,0,-2,-1,-1,-3,0,0,-1
1517208035785085,-1,-1,-1,-1,-2,-2,0,0
1517208035800086,1,0,0,-1,-3,-1,1,-1
1517208035800086,-1,0,-1,-2,0,-2,0,0
1517208035801091,-1,-2,0,-2,-1,-2,0,-1
1517208035801091,0,-1,1,0,-1,-3,-2,-2
1517208035829607,-1,0,-1,0,0,-1,-2,-2
1517208035829607,0,-2,-2,0,-3,-2,0,-1
1517208035831109,-1,-1,-2,-2,0,-2,0,-1
1517208035831109,-1,-1,-1,-1,0,-1,-1,-3
1517208035836111,-1,-2,0,-3,0,-2,-1,-1
1517208035836111,-3,-2,-1,-1,-2,0,-1,-2
1517208035845118,-1,0,-2,0,-2,-2,-1,0
1517208035845118,-1,-1,-2,-1,-2,-1,-1,-2
1517208035859656,-1,-3,-1,-1,0,-1,-1,0
1517208035859656,-2,0,-1,-2,-1,0,-1,0
1517208035861130,-2,-1,-1,-2,-2,-1,2,0
1517208035861130,-1,0,-1,-1,-2,-1,0,-1
1517208035882160,0,0,0,-1,-2,-1,0,1
1517208035882160,0,-2,0,-1,0,-1,-1,-2
1517208035884145,0,-1,-1,0,-1,-3,-1,-2
1517208035884145,-1,-1,-2,-3,0,-2,-2,0
1517208035895677,-2,-1,-1,0,-1,1,-2,-1
1517208035895677,-1,-1,-1,-1,0,-1,-1,0
1517208035904660,0,0,0,0,0,0,-1,-1
1517208035904660,-1,0,0,-2,-2,-2,0,-1
1517208035919687,-1,-2,-2,-1,-1,-4,-1,-2
1517208035919687,-3,0,-1,-1,-2,-3,-1,-1
1517208035921173,-1,0,-1,-1,-2,-1,-1,-2
1517208035921173,-2,-2,-2,1,-1,-2,0,1
1517208035942217,-1,0,-1,-2,0,2,-1,-3
1517208035942217,1,0,-1,-2,-2,-1,-1,-2
1517208035943688,-2,-1,-1,-1,0,0,-1,0
1517208035943688,-1,-1,-1,1,-1,-2,-2,0
1517208035955699,-1,-2,-3,-1,-1,0,-2,-1
1517208035955699,0,0,-1,0,-2,-1,-1,0
1517208035964740,-2,-1,-1,1,-1,0,0,0
1517208035964740,0,0,-2,-2,-2,-1,-1,-2
1517208035980261,-1,-1,-3,-1,1,-1,-2,-1
1517208035980261,-1,-2,0,-1,0,-2,-2,0
1517208035981752,-2,-1,0,-1,-2,-2,-1,0
1517208035981752,0,-3,-2,-1,0,-1,0,-2
1517208036002266,0,0,-1,0,-1,-2,0,-1
1517208036002266,-1,0,-1,1,-2,-1,-1,-1
1517208036003779,-2,-1,-1,-1,-3,-3,-1,-2
1517208036003779,-1,1,-1,-1,-1,0,-1,-2
1517208036015787,-1,-2,-1,-2,-1,-2,-1,0
1517208036015787,-1,-1,-1,0,-1,0,-2,0
1517208036032288,-2,-1,-1,-3,-3,1,-2,-3
1517208036032288,0,-1,1,-1,0,-1,0,-1
1517208036039807,-2,-2,-1,-1,-3,-3,-2,-3
1517208036039807,-1,-2,-3,-2,-2,-2,0,0
1517208036041293,-1,0,-1,1,-2,-2,-1,0
1517208036041293,-1,-1,-1,-1,-1,-1,-1,0
1517208036062364,0,-2,-1,-1,-1,-2,-2,-1
1517208036062364,0,-2,-1,0,0,-2,0,-1
1517208036063810,-1,-1,-2,-1,-1,0,0,0
1517208036063810,0,0,-1,-2,-2,1,-1,-1
1517208036084834,-2,0,-1,-1,-2,0,0,0
1517208036084834,-1,0,-2,-1,-1,-1,-2,-2
1517208036086335,0,-1,-1,-1,0,-2,-1,-1
1517208036086335,-2,0,0,1,-1,-1,-2,-3
1517208036099834,-3,-1,-1,-1,-1,0,1,-1
1517208036099834,-2,-1,0,1,-1,0,-2,0
1517208036101336,-2,-1,0,0,1,-1,-1,-2
1517208036101336,-1,0,-2,-1,-2,-1,-1,0
1517208036122380,-1,0,-1,-2,0,-3,-2,-2
1517208036122380,-1,-1,-1,-1,0,-1,1,1
1517208036123893,0,-2,-3,-1,-2,-2,-1,0
1517208036123893,-1,-1,-2,0,0,-2,0,-1
1517208036144907,0,-2,-1,-1,0,-1,1,0
1517208036144907,-2,0,-1,1,-2,-2,-1,0
1517208036146399,0,0,-1,-1,-2,-1,0,0
1517208036146399,0,-2,-1,0,-1,0,0,0
1517208036159925,-1,-1,-2,-1,-1,-1,-1,1
1517208036159925,0,-2,0,-1,-2,-1,0,-1
1517208036161433,-1,-1,-2,-1,0,-2,-1,0
1517208036161433,-2,-1,1,-1,-2,0,0,-1
1517208036182427,-2,-1,0,0,-1,-1,-1,-1
1517208036182427,-2,0,-1,-2,-1,0,0,-1
1517208036183925,0,-1,-1,-1,-1,0,-2,-1
1517208036183925,-3,0,-2,-1,0,-2,-2,-1
1517208036204471,-1,-1,-1,-1,-2,-2,-1,-1
1517208036204471,-1,-2,-2,-2,-2,-1,-1,-2
1517208036206463,0,-2,-1,-2,0,-2,-1,0
1517208036206463,-2,-2,-1,-2,-2,-2,-1,-3
1517208036218983,0,0,-2,0,0,-1,-1,-1
1517208036218983,0,-2,-2,-2,-1,-4,-2,-2
1517208036225989,-1,-2,-1,0,0,-2,-1,-2
1517208036225989,-1,-1,-1,-2,-1,-1,-1,1
1517208036242004,-2,-1,-2,-3,0,-2,0,1
1517208036242004,-1,-1,0,1,-2,-1,-2,0
1517208036243985,-2,-1,0,-2,0,-1,-2,-2
1517208036243985,1,-1,-2,0,-1,-1,-2,-2
1517208036272017,-2,-2,-1,-1,-1,-1,1,-2
1517208036272017,0,-1,-2,-3,0,-1,-1,0
1517208036273519,-1,-1,-1,-3,-2,-1,-1,-1
1517208036273519,-1,-1,-1,-1,-3,-1,-2,-1
1517208036279082,0,-1,-2,-1,-1,-2,0,0
1517208036279082,-2,-2,-2,-1,1,0,-1,-1
1517208036286027,0,-1,1,-1,0,-1,1,-1
1517208036286027,-1,-1,0,-3,0,-3,-1,0
1517208036302040,0,-1,-1,-1,-1,1,-2,-1
1517208036302040,-1,-2,0,-2,-1,-2,0,0
1517208036303540,-2,1,0,-1,-2,-1,-1,-1
1517208036303540,-2,1,0,0,-1,-1,-1,0
1517208036324565,0,-1,-3,0,-1,-1,-1,-1
1517208036324565,0,0,-1,-1,-1,-1,1,-1
1517208036326055,-1,-2,-2,-2,-1,-1,-1,-2
1517208036326055,-2,-1,-2,0,0,0,0,-2
1517208036339064,-3,-2,0,0,-1,-1,-1,-1
1517208036339064,-2,-2,-2,0,-3,-1,-2,-1
1517208036345572,-1,0,-2,1,-1,-1,-1,-1
1517208036345572,-1,-1,-2,-2,-1,-1,-1,-2
1517208036362080,0,-2,0,-1,-1,0,-2,-2
1517208036362080,-2,-1,-1,-2,-1,0,0,-1
1517208036363583,0,-2,-1,-1,-2,-1,-1,-1
1517208036363583,0,-2,0,0,-1,0,-2,-1
1517208036383595,-1,-1,-2,-1,-3,-2,-1,-1
1517208036383595,-1,-1,-1,-2,-2,-2,-1,-1
1517208036392122,0,-1,-1,0,-2,-1,-1,-1
1517208036392122,-1,-2,0,0,-1,-2,1,-1
1517208036399108,-1,1,-1,-2,-2,-1,-3,-2
1517208036399108,-1,-1,0,1,0,-1,-1,-2
1517208036405611,-1,-1,-2,-1,0,0,-1,0
1517208036405611,-2,-2,2,1,1,0,0,-2
1517208036422123,1,-1,0,-1,-1,-1,-1,1
1517208036422123,-2,-2,-5,-3,-1,-3,-3,-3
1517208036423625,-1,-2,-2,0,-2,-1,-1,1
1517208036423625,-2,-1,2,-1,-2,-1,-1,10
1517208036444674,-3,2,-2,-2,-2,-2,-3,-12
1517208036444674,-3,-5,2,1,2,2,1,0
1517208036446172,0,2,-3,-4,-5,-4,-4,-6
1517208036446172,2,3,0,1,1,2,4,4
1517208036459181,-8,-5,-1,-4,0,-3,-4,4
1517208036459181,-2,1,-2,-2,-3,-1,-7,-10
1517208036466191,7,-1,1,0,0,0,2,4
1517208036466191,-6,3,3,0,-1,0,-1,-5
1517208036482199,14,0,1,1,0,0,7,8
1517208036482199,2,-1,-10,-4,-1,0,1,7
1517208036483699,0,4,3,0,0,-3,-4,-17
1517208036483699,0,-2,5,0,0,-1,-8,-12
1517208036504731,-5,-3,-12,-3,-3,-3,1,12
1517208036504731,-3,26,9,1,0,2,-4,-23
1517208036506215,-1,-24,1,1,-1,-2,15,32
1517208036506215,11,-2,6,-4,-1,-3,-6,-9
1517208036518247,-2,-3,-15,-3,-1,0,-22,-15
1517208036518247,-3,-14,4,3,1,1,9,21
1517208036526764,-19,-4,-12,-2,-1,-3,6,-15
1517208036526764,-8,-10,-2,-4,-2,-5,-27,-27
1517208036541287,8,4,-2,0,0,-2,12,14
1517208036541287,-3,16,14,4,0,0,-3,-1
1517208036542286,-5,-14,1,4,1,2,-1,40
1517208036542286,-12,6,-17,-2,-4,-4,11,-25
1517208036563781,-3,-1,9,4,2,0,-16,-18
1517208036563781,0,-3,0,0,-3,-3,2,6
1517208036564781,10,5,12,6,2,2,-3,6
1517208036564781,-11,8,-12,-8,-7,-5,1,17
1517208036578360,6,-17,10,-1,0,2,5,-16
1517208036578360,-18,4,-1,11,-1,-4,8,18
1517208036585810,-5,0,-6,-8,-1,0,-19,-36
1517208036585810,-2,-10,25,-1,-2,1,9,23
1517208036601307,-6,-33,-16,-3,-3,-1,2,15
1517208036601307,18,10,4,-8,-5,-6,-15,-59
1517208036602307,-33,-31,-26,1,-2,1,1,16
1517208036602307,18,18,5,5,0,3,3,23
1517208036623863,-15,-18,-25,-6,-3,-2,5,-10
1517208036623863,32,-18,-10,4,1,0,3,26
1517208036624877,5,18,10,-1,-2,-7,-10,-28
1517208036624877,-15,-25,-1,-26,-2,1,3,20
1517208036638402,-17,13,-3,5,0,3,11,-6
1517208036638402,22,39,5,-6,-2,-6,15,15
1517208036646440,8,-12,-8,-6,-7,-5,-9,7
1517208036646440,-13,-34,-23,10,2,-1,-14,-10
1517208036669896,-7,32,34,-6,1,0,-6,-10
1517208036669896,-19,-48,-12,0,3,1,7,-13
1517208036670398,13,16,29,-8,-2,1,8,19
1517208036670398,25,1,3,-3,0,1,13,37
1517208036683906,7,-18,-38,-7,-3,-4,-23,-28
1517208036683906,-13,-16,9,8,-3,0,-3,-11
1517208036684906,13,54,37,31,13,2,-16,17
1517208036684906,-59,-47,2,-9,-4,-5,-19,-68
1517208036698418,9,3,-39,-8,-3,1,2,36
1517208036698418,18,25,-18,1,2,-1,-6,-8
1517208036706425,-11,-6,-22,-12,-8,-3,2,15
1517208036706425,9,21,36,9,5,4,-2,-38
1517208036721432,4,-19,3,1,-1,-3,-8,26
1517208036721432,-21,9,-14,-34,-3,2,15,-22
1517208036722470,6,-77,-30,-7,-6,-3,11,6
1517208036722470,4,51,-14,-2,-3,-2,13,21
1517208036743991,-4,-10,13,5,-1,1,-15,-5
1517208036743991,-18,-28,-22,-5,-3,-3,-13,-12
1517208036744992,12,36,-20,-6,-2,3,10,-18
1517208036744992,27,-6,29,9,2,-2,17,61
1517208036758497,-37,-28,12,-7,-2,-8,-10,-28
1517208036758497,-5,-14,-52,-10,-9,-6,6,21
1517208036766505,-15,5,96,21,5,2,-11,-29
1517208036766505,17,2,-83,0,-2,2,-6,0
1517208036781525,-2,103,2,-13,-6,-4,25,-3
1517208036781525,-3,-7,59,-5,-5,-5,-20,-28
1517208036782514,-13,-23,29,7,4,3,-5,-5
1517208036782514,30,27,36,-7,-6,-5,6,27
1517208036804045,19,6,11,26,7,6,10,-1
1517208036804045,15,-18,-27,12,2,4,44,107
1517208036805030,-71,-55,-77,-15,-4,-5,-42,-104
1517208036805030,4,21,72,17,4,1,9,9
1517208036827084,-13,0,-27,-37,-9,-7,19,22
1517208036827084,-21,-18,-24,-2,-4,-6,-47,-29
1517208036828073,54,7,55,2,-1,5,24,0
1517208036828073,26,11,19,19,7,2,5,2
1517208036841556,-14,-56,-1,1,-4,-7,-20,-24
1517208036841556,22,36,26,0,4,8,23,-3
1517208036842056,-19,6,-69,-6,-11,-6,17,41
1517208036842056,-17,15,-5,-19,-4,-7,-22,-3
1517208036864578,18,29,61,10,1,4,4,18
1517208036864578,-21,11,50,-3,-5,0,5,31
1517208036865073,44,1,-37,6,6,0,-43,-75
1517208036865073,-22,-15,-19,-8,-7,-4,-1,-3
1517208036878138,8,-70,-76,5,2,-4,-17,50
1517208036878138,10,17,31,3,0,-2,-34,-60
1517208036885590,21,-35,-63,-12,-1,2,17,59
1517208036885590,-26,4,45,-11,-4,-8,-16,-50
1517208036902099,29,-2,24,28,9,7,22,16
1517208036902099,-11,-49,-66,-52,-10,-3,7,-6
1517208036909123,38,7,-21,5,-1,-1,10,50
1517208036909123,-8,17,38,22,5,2,-9,-61
1517208036925115,32,48,25,25,12,10,12,1
1517208036925115,30,51,14,0,4,2,2,17
1517208036926116,1,-15,56,5,1,1,7,-5
1517208036926116,-2,1,-87,5,2,3,19,82
1517208036938147,1,45,37,-27,-5,-1,-18,-95
1517208036938147,32,-25,-34,29,8,-1,-37,-8
1517208036946629,-19,4,-30,-25,-7,-1,29,82
1517208036946629,4,10,39,29,10,1,-10,-59
1517208036961650,-21,-69,-106,-28,-12,-4,2,30
1517208036961650,1,58,56,10,1,1,16,60
1517208036962165,-19,30,-68,-21,-7,-11,-22,-71
1517208036962165,-10,-14,19,-10,-4,-5,-16,-24
1517208036984157,-39,-9,-38,7,-1,3,8,-14
1517208036984157,20,38,94,4,0,-5,-3,6
1517208036984657,-35,12,-11,1,-2,0,3,2
1517208036984657,29,-57,-4,-2,-3,4,15,24
1517208037007216,-17,11,48,-22,-6,-7,-30,-22
1517208037007216,16,-13,-68,-1,-8,-8,-45,-81
1517208037007713,7,45,118,20,8,5,10,28
1517208037007713,17,-7,-93,-18,-9,-6,-5,26
1517208037021226,15,-43,1,18,1,-2,5,-30
1517208037021226,-6,6,6,0,10,8,17,7
1517208037022224,-19,10,35,4,-1,-1,4,-12
1517208037022224,9,29,-52,-28,-9,-6,-9,9
1517208037043764,23,32,28,17,7,2,11,12
1517208037043764,7,13,11,8,1,2,-6,-20
1517208037044749,10,24,-4,-9,-3,-6,11,10
1517208037044749,-23,-14,-26,-4,1,0,22,12
1517208037067256,8,36,40,21,3,2,4,28
1517208037067256,-53,-41,-55,-35,-12,-13,-17,-42
1517208037067757,22,-14,42,-10,0,0,1,10
1517208037067757,16,-9,37,17,3,0,-4,-23
1517208037081766,-13,16,1,-18,-14,-9,5,17
1517208037081766,-15,0,38,-1,0,5,11,8
1517208037082267,26,38,-7,6,2,-2,-6,-17
1517208037082267,-39,-7,-33,-27,-15,-7,-9,11
1517208037103781,27,29,28,19,0,-6,-4,-8
1517208037103781,7,-44,34,8,3,1,21,4
1517208037104782,-4,-37,-12,-11,1,2,-9,33
1517208037104782,-22,5,68,18,3,0,7,-11
1517208037127310,17,-25,-66,-33,-6,1,-1,57
1517208037127310,-28,-26,-18,3,-5,-6,-5,-33
1517208037127798,-5,-6,22,12,1,-2,-10,-34
1517208037127798,8,-25,-62,-12,-1,6,5,-5
1517208037141323,-6,-3,43,10,9,8,2,14
1517208037141323,-13,-13,-63,-12,-10,-7,3,-5
1517208037142308,-5,59,19,-8,-1,2,26,76
1517208037142308,-33,-19,31,-16,-2,-3,-55,-89
1517208037163823,-19,13,66,11,5,2,0,-15
1517208037163823,10,19,-82,-1,-1,-1,2,29
1517208037164825,-1,50,13,2,-3,-1,11,61
1517208037164825,-6,-33,20,-1,-3,-3,-17,-50
1517208037186341,-1,4,-16,5,3,0,2,13
1517208037186341,-13,-28,71,22,6,5,-2,-50
1517208037187341,4,-22,-60,-16,-13,-9,-29,-31
1517208037187341,25,73,86,33,10,4,34,41
1517208037201360,-65,-22,-84,-36,-11,-8,1,-11
1517208037201360,-5,-5,60,2,1,-2,-7,23
1517208037202404,8,-24,-34,3,2,1,6,1
1517208037202404,1,-33,31,3,0,3,0,-16
1517208037223973,5,39,22,10,1,-3,1,-1
1517208037223973,12,12,-21,20,0,-2,1,49
1517208037224974,-8,-23,59,-20,4,5,-5,-48
1517208037224974,-32,-25,-77,-17,-9,-12,-20,13
1517208037247490,17,-5,26,4,6,0,-7,-9
1517208037247490,1,-8,-26,-10,-1,1,3,5
1517208037247989,-8,-15,81,37,8,2,-7,-33
1517208037247989,43,-17,-97,-23,-7,-5,-6,12
1517208037261522,-51,-67,-28,-17,-7,-4,-5,-15
1517208037261522,14,-13,-35,-5,-5,-6,4,-5
1517208037262500,2,16,-23,-7,-7,-5,6,7
1517208037262500,-2,10,-9,19,6,4,26,26
1517208037284018,33,9,15,-17,-7,-4,-10,-11
1517208037284018,-2,18,26,-21,2,5,20,66
1517208037284515,-8,-13,-46,4,-3,0,-15,-14
1517208037284515,11,47,21,-16,0,-1,4,-15
1517208037307105,9,-6,-5,-5,-4,-2,-4,-3
1517208037307105,-4,55,55,34,13,1,-3,-15
1517208037308094,-6,-63,-51,-17,-7,-1,-1,-15
1517208037308094,13,58,28,2,-2,0,-10,6
1517208037321602,-14,-22,29,11,-1,0,0,-2
1517208037321602,-15,6,-2,-15,-2,-1,-1,12
1517208037322103,-9,-36,-10,-7,-9,-10,-15,-10
1517208037322103,-31,-11,14,7,3,2,-6,-38
1517208037344016,-9,-26,-71,-10,-4,-1,14,15
1517208037344016,2,-31,2,4,-1,2,-9,12
1517208037345017,-20,12,2,0,-1,-1,-2,-5
1517208037345017,-4,-37,-37,-8,-3,-2,18,25
1517208037367536,9,-45,-5,3,3,0,-12,-12
1517208037367536,5,19,-19,-3,-6,-6,-2,-2
1517208037368034,-7,0,-37,-1,2,1,7,34
1517208037368034,13,24,35,9,3,-2,-17,-61
1517208037381543,-3,52,-6,16,2,2,-5,1
1517208037381543,-16,-71,-30,-30,-7,-6,14,21
1517208037382043,-1,59,15,12,3,1,-6,5
1517208037382043,-34,-6,-18,11,4,3,4,6
1517208037404058,34,16,39,-22,-8,-5,-14,-31
1517208037404058,5,14,34,25,5,3,-7,-10
1517208037404559,25,35,18,-13,-2,-1,10,-13
1517208037404559,-4,-69,-90,16,5,5,-3,31
1517208037427076,-10,7,30,-4,0,2,8,22
1517208037427076,19,6,-17,9,3,5,-3,-21
1517208037428096,1,-31,-11,4,-2,0,-2,2
1517208037428096,14,-9,20,0,-1,-2,4,31
1517208037441602,10,-32,-37,-1,0,2,4,-5
1517208037441602,-9,13,7,-7,-7,-6,-8,31
1517208037442086,1,5,-3,17,4,-2,-16,-41
1517208037442086,3,-1,-24,-4,-2,-6,11,25
1517208037464105,21,30,47,11,3,2,8,5
1517208037464105,-13,-19,-30,-26,-6,0,6,49
1517208037464602,7,-4,1,27,7,1,-16,-42
1517208037464602,-2,-8,20,-26,-8,-2,-3,6
1517208037487117,-6,56,45,12,1,0,5,20
1517208037487117,-1,-4,-14,1,-4,-6,-23,-30
1517208037488118,8,19,-5,8,4,6,17,31
1517208037488118,17,-44,-7,-25,-11,-6,-7,49
1517208037501630,-24,28,57,7,1,-3,-33,-41
1517208037501630,1,22,34,12,4,4,13,2
1517208037502129,-11,-18,-30,-2,-4,-2,-5,35
1517208037502129,-11,14,12,-12,-1,-2,12,1
1517208037523698,-2,-42,-49,-4,-2,-3,5,-2
1517208037523698,-12,-5,9,8,-4,-4,-1,-24
1517208037524698,-17,-13,1,-26,-8,-6,-3,8
1517208037524698,11,28,35,15,4,5,6,-7
1517208037547225,6,-18,-54,-12,-4,-4,-3,2
1517208037547225,-16,38,16,3,5,0,8,-2
1517208037547713,14,-4,4,-3,-2,1,9,18
1517208037547713,-14,39,36,-4,-1,0,-22,-33
1517208037561226,2,32,-1,-5,-5,-4,-9,-8
1517208037561226,10,-28,-3,5,-3,-5,-3,9
1517208037562224,-5,10,55,11,7,3,4,-26
1517208037562224,-1,-9,-45,-4,-7,-7,0,5
1517208037584243,4,16,36,6,0,0,-1,-8
1517208037584243,-14,-31,-60,-18,-1,-1,-1,-15
1517208037584740,1,40,57,-4,-5,-2,0,-9
1517208037584740,14,-4,47,6,0,0,0,-12
1517208037607278,-8,-19,-21,19,4,3,16,24
1517208037607278,16,18,-20,0,-1,3,15,-21
1517208037607757,-28,-50,-13,-4,-5,-3,-15,-28
1517208037607757,-3,-20,-65,-19,-2,-3,-4,15
1517208037620769,12,16,32,3,1,0,12,41
1517208037620769,16,-10,33,5,3,1,-3,-3
1517208037628831,-22,-20,-4,-8,-7,-8,-5,-35
1517208037628831,3,20,33,20,8,6,23,24
1517208037644105,-8,-46,-56,-7,-2,-2,-17,-9
1517208037644105,0,27,31,-12,-2,-3,-6,10
1517208037644606,-10,-42,-53,2,-3,-4,-6,-33
1517208037644606,2,-10,6,-3,-4,-2,3,18
1517208037667637,-1,26,30,10,1,-4,6,-25
1517208037667637,-6,-22,-9,-6,-2,1,2,6
1517208037668625,17,24,48,13,8,5,16,35
1517208037668625,18,-15,-69,-13,-4,-1,-6,-13
1517208037680641,-30,9,12,4,0,-4,-2,-17
1517208037680641,23,31,-36,-5,-8,-7,-15,-11
1517208037689137,7,5,-15,-9,-3,-2,3,4
1517208037689137,-17,31,27,-6,4,4,14,33
1517208037704147,3,3,-8,-2,-4,-3,-16,-36
1517208037704147,-3,-17,0,-14,-3,-2,11,43
1517208037704648,5,18,-6,-12,-1,-2,-7,-40
1517208037704648,-1,18,59,14,1,0,-3,-8
1517208037727198,-3,-20,-92,-17,-4,-2,7,32
1517208037727198,-15,3,76,15,0,0,-13,-19
1517208037727710,-6,-38,-84,-7,1,1,-6,13
1517208037727710,-1,6,70,10,-1,-1,14,26
1517208037740724,-27,18,27,5,5,-2,-31,-51
1517208037740724,-8,-27,-23,-5,0,-1,-2,-18
1517208037749214,-7,32,56,20,3,1,3,14
1517208037749214,24,3,-41,-22,-8,-4,4,-10
1517208037763724,-5,-55,-8,10,-1,1,-2,4
1517208037763724,0,15,63,12,4,1,-1,-25
1517208037764727,-9,27,23,-13,-4,-1,8,11
1517208037764727,-4,-32,-58,3,-3,-1,7,76
1517208037787240,11,22,21,-19,-2,-4,-7,-58
1517208037787240,2,12,-16,6,5,0,0,-4
1517208037787741,35,-1,21,3,-4,-2,-1,6
1517208037787741,-2,-8,-23,3,3,3,-10,-19
1517208037800809,30,6,1,0,1,3,11,26
1517208037800809,-30,-24,-7,-5,-9,-8,7,-13
1517208037808838,-2,1,7,-13,0,1,-13,4
1517208037808838,-10,2,-9,5,3,0,-9,-41
1517208037823824,10,20,20,10,0,2,9,27
1517208037823824,3,-26,-26,-19,-1,4,-6,7
1517208037824824,9,10,-43,-12,-5,-5,-8,2
1517208037824824,-7,52,49,21,7,3,-1,-18
1517208037847339,-14,-90,-6,8,4,-1,5,20
1517208037847339,-1,10,-33,6,-3,-4,-10,15
1517208037847842,9,16,9,-24,-8,-1,5,-11
1517208037847842,-2,-5,-13,7,1,-2,-10,-20
1517208037860871,12,20,49,2,-2,-1,-1,-2
1517208037860871,-27,-3,-37,1,-1,1,10,4
1517208037868856,-8,-4,-28,10,2,0,10,13
1517208037868856,-4,-22,8,2,2,1,-5,-23
1517208037883867,-1,-1,-49,-20,-9,-4,-1,7
1517208037883867,3,5,23,6,3,2,-5,-20
1517208037884886,-6,-20,6,-3,-1,-4,-1,-8
1517208037884886,-4,5,-5,4,-2,-2,-5,1
1517208037907382,17,28,5,-3,3,0,3,8
1517208037907382,1,-9,-31,-4,1,2,-1,3
1517208037907883,2,16,30,18,4,0,0,3
1517208037907883,-14,-25,-17,-18,-6,-5,0,-4
1517208037920891,-6,-59,-53,-6,-5,-2,5,24
1517208037920891,35,16,17,-1,4,0,-4,-4
1517208037928954,-45,-32,-49,-3,-1,0,-2,-19
1517208037928954,2,34,27,-5,-5,-4,-4,-3
1517208037943975,-9,22,-24,0,-3,-3,9,12
1517208037943975,-14,-39,4,-11,-5,0,14,26
1517208037944976,2,-26,-49,3,3,1,-4,15
1517208037944976,-2,6,28,-6,-2,-4,-26,-37
1517208037966993,-11,-5,-34,-11,-7,-6,-19,-23
1517208037966993,20,20,-1,9,4,3,2,10
1517208037967495,2,46,29,-17,-7,-4,5,7
1517208037967495,-12,-64,-8,12,4,3,11,-2
1517208037989508,19,52,37,-2,1,2,0,7
1517208037989508,-17,2,-23,-4,-6,-7,-3,-2
1517208037990509,6,-3,-40,8,3,4,-7,7
1517208037990509,-15,-10,-6,-12,-7,-6,-10,-5
1517208038004033,15,23,-9,-8,-2,1,2,-26
1517208038004033,-18,19,75,4,-3,-3,-5,5
1517208038004519,5,21,32,-1,-2,-4,0,-7
1517208038004519,-1,7,-23,-4,-2,1,-1,-3
1517208038027058,5,1,30,-10,0,1,19,32
1517208038027058,-5,11,-46,-5,-5,-3,-15,-15
1517208038028059,0,2,23,12,2,-3,9,6
1517208038028059,11,6,-40,-12,-5,-3,-7,3
1517208038050063,-18,-48,-24,11,-1,-6,0,-14
1517208038050063,20,5,4,-6,0,2,4,35
1517208038051064,-4,-10,31,2,-1,-3,-4,-9
1517208038051064,11,43,29,-20,-6,-3,5,13
1517208038064072,-5,1,-18,-3,-2,-2,-10,-18
1517208038064072,1,0,-15,2,-1,-1,10,-17
1517208038064573,-3,-13,-44,3,-2,-2,-7,8
1517208038064573,3,-26,10,11,4,2,3,-1
1517208038087106,12,-6,17,6,3,1,-1,22
1517208038087106,22,6,6,-6,0,4,14,-4
1517208038088089,-5,31,34,5,2,-1,-14,-9
1517208038088089,-10,-48,-46,-1,-5,-7,9,-1
1517208038109608,5,15,-21,-2,-1,2,-1,5
1517208038109608,3,-6,42,-4,0,-1,-11,-9
1517208038110605,14,-64,-58,-11,-5,-3,4,10
1517208038110605,-4,-18,4,8,3,1,11,9
1517208038124114,-2,23,15,5,1,0,-14,-23
1517208038124114,-12,24,65,-1,-2,-6,-14,-22
1517208038124615,3,-6,16,18,3,3,6,30
1517208038124615,-7,36,45,-7,-5,-3,-23,-24
1517208038147131,-12,-25,-1,-4,4,4,15,28
1517208038147131,-11,-29,-32,-13,-5,-7,-20,-53
1517208038148132,18,1,21,-14,-4,0,1,4
1517208038148132,-29,16,5,18,5,6,24,15
1517208038169647,1,-1,24,11,2,0,-1,-5
1517208038169647,-5,7,5,-5,-4,0,9,26
1517208038170148,9,-5,20,-1,0,1,-15,-31
1517208038170148,12,46,25,13,0,0,-3,-6
1517208038184157,-20,-12,36,-14,-9,-5,-7,-8
1517208038184157,-11,-12,-9,18,6,2,18,21
1517208038184659,-10,-48,-64,-8,-3,-1,2,-36
1517208038184659,3,5,-3,-12,-2,1,-2,-2
1517208038207190,-1,-16,-13,2,0,-1,13,23
1517208038207190,0,-8,29,13,3,2,-13,-28
1517208038207673,-13,19,3,1,-1,-3,1,17
1517208038207673,-5,-5,-11,-6,-4,-4,-11,-6
1517208038229742,7,-15,11,-1,1,-2,3,12
1517208038229742,-19,-23,-78,-2,-5,-2,-5,-16
1517208038230192,1,-2,9,-10,0,0,4,-4
1517208038230192,-15,-6,-5,-2,-3,-2,2,5
1517208038243699,13,30,-4,-6,-4,1,-1,-2
1517208038243699,-6,-45,7,13,2,0,11,32
1517208038244704,10,-13,-15,-6,-5,-7,-19,-25
1517208038244704,5,7,-15,-15,0,0,13,-9
1517208038267216,13,9,14,4,-2,-2,4,-55
1517208038267216,9,4,-54,-2,1,1,-11,9
1517208038267717,-26,0,28,7,1,0,4,17
1517208038267717,27,-37,-36,-6,-4,0,4,26
1517208038289731,-34,28,-13,-2,-3,-2,4,-8
1517208038289731,6,-41,2,-4,-4,-6,-16,14
1517208038290232,4,13,-19,9,3,2,-5,-11
1517208038290232,20,-12,-1,9,1,1,-6,13
1517208038319752,-20,-3,46,10,0,1,-6,-7
1517208038319752,6,7,-54,-29,-6,-6,-26,-36
1517208038320253,1,4,-18,4,1,1,3,-16
1517208038320253,31,15,48,9,1,-1,5,6
1517208038326758,-10,-13,-88,-28,-7,-4,-20,3
1517208038326758,-15,42,9,12,1,-1,1,-21
1517208038327759,33,-20,0,-5,-5,-2,11,23
1517208038327759,-16,9,-8,-11,0,2,3,14
1517208038349776,-7,-26,8,5,-2,-4,-6,-21
1517208038349776,27,41,11,13,2,2,13,59
1517208038350275,-27,-20,-38,-19,-3,-4,-27,-40
1517208038350275,11,-18,30,6,-3,-4,-1,0
1517208038363784,-5,-1,-12,5,1,0,7,19
1517208038363784,-3,-12,25,-10,0,2,-2,-13
1517208038364786,-2,34,45,12,0,3,4,31
1517208038364786,-27,-2,4,-18,-3,-3,-6,-19
1517208038387302,22,8,31,10,3,1,-6,3
1517208038387302,-9,-6,11,3,4,1,15,1
1517208038387801,-5,-8,31,-8,-5,1,18,39
1517208038387801,-4,22,-35,14,7,0,-28,-33
1517208038409836,-14,-35,-36,-4,-1,-1,1,0
1517208038409836,-8,16,22,0,-5,-1,0,3
1517208038410323,4,31,21,-9,-3,-3,-7,-16
1517208038410323,-25,-1,-15,4,0,-2,-2,2
1517208038423831,17,19,71,7,4,3,7,10
1517208038423831,-5,-31,-58,-5,-4,-4,-15,6
1517208038424831,-10,-27,-29,-5,-2,-1,0,13
1517208038424831,14,-5,-23,1,-5,-3,-2,-18
1517208038447347,10,29,1,11,1,-2,-5,0
1517208038447347,-15,-4,27,-17,-6,-2,13,-9
1517208038447860,-5,13,1,-11,-1,-2,-1,23
1517208038447860,-12,-22,-33,-8,-7,-5,-12,-46
1517208038469863,4,4,40,3,1,3,15,42
1517208038469863,24,33,38,12,3,-1,-32,-30
1517208038470364,-14,5,-12,-3,1,3,4,-6
1517208038470364,-4,-6,33,-2,-2,-1,6,15
1517208038483874,-27,-25,-38,-8,0,-2,-3,-6
1517208038483874,9,48,25,11,2,1,12,-1
1517208038484876,-17,-16,7,1,0,4,16,2
1517208038484876,25,20,43,5,0,-1,-6,19
1517208038506904,-8,18,-52,-12,-6,-6,-9,-24
1517208038506904,-1,-34,-10,6,6,5,7,28
1517208038507891,3,-9,40,16,2,-1,5,-14
1517208038507891,4,-42,-52,-17,0,-2,16,10
1517208038529907,-15,-20,18,-7,-6,-6,-28,-16
1517208038529907,1,19,-3,0,-2,0,7,-6
1517208038530408,9,-6,-27,8,-1,-2,-4,10
1517208038530408,-10,-25,14,9,-1,0,2,14
1517208038543416,30,35,-32,-2,4,1,4,-18
1517208038543416,3,-20,3,-13,-7,-5,1,2
1517208038551922,-18,-11,5,5,-3,-3,-2,-6
1517208038551922,19,34,-14,-15,-6,-3,-1,8
1517208038566947,4,10,28,14,6,3,-5,-19
1517208038566947,-19,-24,-52,0,0,3,28,46
1517208038567934,7,-27,23,-3,2,-2,-31,-55
1517208038567934,-16,13,11,-1,-5,-6,-11,-11
1517208038589949,-2,-12,-11,-7,-5,-2,18,40
1517208038589949,4,-7,-19,0,1,0,-6,-10
1517208038590448,29,7,-36,2,1,1,2,-1
1517208038590448,-11,-17,39,9,0,-1,-4,2
1517208038603458,-29,-1,61,-7,-5,-2,4,16
1517208038603458,4,-16,-20,-5,1,0,7,-6
1517208038611487,3,52,19,6,2,1,4,15
1517208038611487,-20,-77,-105,-13,-5,1,-7,-10
1517208038626975,18,41,46,5,1,2,7,5
1517208038626975,6,-24,9,-6,-4,-4,-18,-25
1517208038628983,9,19,20,15,0,-2,-12,-9
1517208038628983,0,-11,-34,-7,1,0,5,11
1517208038649513,-8,-15,-43,-16,-2,-1,2,-16
1517208038649513,-8,7,26,12,0,-1,-1,9
1517208038651492,-14,-16,-11,-5,-2,-4,15,30
1517208038651492,35,27,28,13,4,1,-24,-9
1517208038663025,-34,-73,-66,-4,-3,-1,-1,7
1517208038663025,14,51,63,-10,-3,-4,-15,-31
1517208038672006,-4,-15,-46,-8,-4,-3,3,11
1517208038672006,11,2,41,15,5,6,12,27
1517208038687031,-8,20,18,2,1,-2,-19,-48
1517208038687031,-18,-19,-48,-12,-3,-4,2,7
1517208038688522,26,31,69,9,-2,3,26,28
1517208038688522,-1,10,4,-7,-1,-1,-33,-54
1517208038709555,32,-9,-48,2,-2,0,-2,11
1517208038709555,-2,32,30,-2,-3,-3,-1,-11
1517208038711034,-12,-10,-5,0,-4,-4,4,-13
1517208038711034,1,22,-16,-13,-3,-5,-19,-3
1517208038723043,-1,12,-18,14,3,1,7,17
1517208038723043,15,-30,6,-10,-4,1,-3,15
1517208038732551,-29,30,25,-13,-6,-7,-8,-38
1517208038732551,12,-21,-8,17,6,4,19,23
1517208038747059,-7,6,9,-6,-5,-4,-9,-7
1517208038747059,4,-18,-12,-10,0,1,1,0
1517208038748562,5,-4,-27,-5,-1,1,15,31
1517208038748562,9,36,44,10,0,-1,-14,-17
1517208038769588,-6,13,-6,-18,-2,-3,-12,2
1517208038769588,-8,-10,38,8,0,0,4,-19
1517208038771077,-5,-5,-28,-5,2,3,-10,18
1517208038771077,-21,1,36,0,-3,-1,20,-4
1517208038783586,11,-25,-28,2,0,-2,5,9
1517208038783586,3,10,11,6,3,3,9,22
1517208038792091,8,-7,16,8,-1,-5,-32,-57
1517208038792091,-28,-15,-51,-22,-3,0,15,35
1517208038807105,16,11,32,7,4,2,6,-17
1517208038807105,-22,-1,-6,-7,-6,-5,-15,-8
1517208038808603,11,0,13,-1,1,0,-4,-6
1517208038808603,-23,-3,-11,18,2,0,8,4
1517208038829677,19,24,25,-14,-4,-1,9,0
1517208038829677,-8,22,-13,-7,-6,-4,-2,-5
1517208038831120,-30,-6,-20,-5,-1,0,8,6
1517208038831120,16,-31,-2,10,3,-3,-20,-21
1517208038843131,-5,3,-20,-16,-10,-7,-9,-3
1517208038843131,10,4,-5,15,2,1,-5,-18
1517208038852134,7,-36,-14,-19,-5,-3,-5,4
1517208038852134,2,19,16,14,1,2,32,20
1517208038867154,-1,-1,27,-6,-2,0,-4,-7
1517208038867154,5,1,-11,-1,-1,0,2,39
1517208038868663,-16,13,-8,-3,-2,-4,-12,-57
1517208038868663,7,-9,27,-4,-2,-2,4,0
1517208038889660,7,-9,-2,14,3,2,2,13
1517208038889660,-12,11,-17,4,2,0,-2,5
1517208038891172,-7,28,-5,-12,-2,0,7,15
1517208038891172,-22,-34,2,2,-2,-4,-7,-8
1517208038912179,-10,-38,-45,-8,-5,-6,0,5
1517208038912179,-8,-8,28,10,0,0,4,-14
1517208038913678,10,26,17,23,5,1,-15,8
1517208038913678,21,-4,-16,-29,-6,-1,-19,-60
1517208038927187,-7,9,64,21,4,4,0,12
1517208038927187,8,-28,-73,-7,0,-1,-1,-12
1517208038928716,-6,-22,14,5,-1,-3,7,14
1517208038928716,2,11,-20,-4,-2,-2,-3,3
1517208038949708,6,21,11,4,2,1,13,27
1517208038949708,11,-16,11,-2,0,-3,-16,-46
1517208038951217,23,17,13,3,0,-1,-7,-8
1517208038951217,-19,-17,-47,-27,-6,-5,2,5
1517208038972219,14,10,6,-6,-2,2,1,-1
1517208038972219,-20,-55,-29,1,-4,-4,2,8
1517208038973719,8,18,28,-11,-3,3,1,25
1517208038973719,-10,0,-30,5,1,-3,-1,-2
1517208038986228,-5,28,10,-3,-3,-6,-19,-31
1517208038986228,-1,33,20,3,4,4,8,12
1517208038993273,-2,-30,-12,-8,-5,-5,-21,-25
1517208038993273,-3,32,48,-4,-7,0,20,47
1517208039009745,10,-50,-70,2,2,0,-13,-16
1517208039009745,1,15,8,8,3,-2,-5,17
1517208039011247,-2,14,-31,-9,0,3,53,72
1517208039011247,10,-5,-7,-10,-3,-4,-44,-53
1517208039031260,-10,-33,13,11,-2,-1,-3,-8
1517208039031260,-14,4,-12,-16,-3,-4,6,-14
1517208039039795,21,-32,51,9,-3,-4,-2,6
1517208039039795,6,48,-45,2,1,3,12,8
1517208039047300,-13,-32,-55,-16,-5,-3,-2,-19
1517208039047300,-14,-20,5,-5,-5,-1,-11,-11
1517208039048801,6,19,0,9,2,0,-10,-16
1517208039048801,-15,22,14,3,1,1,9,16
1517208039069325,-25,-17,-45,6,-2,-4,-4,-11
1517208039069325,10,50,-5,-31,-9,-6,9,4
1517208039071317,3,-7,-7,13,7,3,-3,-8
1517208039071317,-6,-12,50,6,-1,-5,-12,-28
1517208039091853,-3,-24,-65,-12,-2,1,5,30
1517208039091853,-4,13,18,9,-3,-4,-2,-44
1517208039093832,-5,9,20,-10,-4,-4,-2,-5
1517208039093832,-11,-25,-14,19,8,9,26,39
1517208039106375,-3,0,4,-12,-8,-8,1,5
1517208039106375,21,26,-22,-17,-4,1,-5,-14
1517208039113380,-50,-62,22,14,1,-2,3,38
1517208039113380,8,-10,-8,-7,-1,-5,-3,-19
1517208039129901,4,31,15,-8,-4,-1,10,15
1517208039129901,2,-18,0,7,5,5,9,-6
1517208039131392,-23,-15,0,4,0,-1,-27,-5
1517208039131392,26,29,-30,-14,-5,-3,-6,15
1517208039151907,12,60,49,-17,-6,-3,-12,-17
1517208039151907,-12,-54,-14,21,7,2,17,33
1517208039153909,47,24,29,-4,-1,2,2,6
1517208039153909,-15,-37,-43,8,3,0,-2,-17
1517208039166417,-29,8,47,-2,-3,-1,8,1
1517208039166417,17,-12,45,16,5,3,-6,3
1517208039173432,4,-11,-112,-13,-1,0,11,9
1517208039173432,-8,32,42,-5,-6,-2,-3,12
1517208039189443,0,-3,62,29,8,2,13,4
1517208039189443,-8,-7,-6,-24,-9,-4,-5,23
1517208039191448,4,-21,7,6,3,3,-8,-79
1517208039191448,11,-17,17,-18,-5,-2,4,22
1517208039211964,0,-33,-14,-2,1,3,8,24
1517208039211964,7,26,44,41,4,-3,-21,-86
1517208039213451,46,17,49,-40,-9,-2,11,11
1517208039213451,-6,10,-46,2,-1,0,-2,-11
1517208039226473,12,35,17,4,1,2,10,9
1517208039226473,0,-7,31,-9,-6,-3,-5,37
1517208039233467,-60,-7,4,4,-2,-4,-12,-27
1517208039233467,7,2,10,10,6,5,6,24
1517208039249979,-2,9,-8,-2,0,1,-6,-24
1517208039249979,17,13,-25,-7,1,-3,-2,-4
1517208039251481,6,28,-6,12,2,-1,9,35
1517208039251481,-39,-48,22,3,0,-1,-17,-46
1517208039272004,-1,-24,-9,2,-3,-5,-28,-10
1517208039272004,-11,-3,-11,3,-3,1,15,6
1517208039273494,6,7,-58,-13,-4,-7,-22,-17
1517208039273494,12,17,43,27,7,6,16,24
1517208039286504,-6,-8,16,-17,-4,-1,-5,12
1517208039286504,-19,-22,-47,-4,2,2,-2,-39
1517208039293035,6,3,-56,-10,-5,-5,-6,-1
1517208039293035,7,3,19,6,-1,-1,26,79
1517208039309522,-21,15,65,6,6,0,-20,-68
1517208039309522,13,-4,-84,-39,-11,-5,2,51
1517208039311520,-29,-5,16,8,-1,-1,-8,-36
1517208039311520,-2,-14,15,-15,-2,-4,-1,-10
1517208039332535,6,-25,-18,12,1,-2,-1,3
1517208039332535,19,24,15,-3,0,0,1,25
1517208039333538,5,4,65,22,6,3,9,8
1517208039333538,5,10,-53,-17,-8,-1,9,3
1517208039346548,11,41,-20,9,4,-2,-16,-2
1517208039346548,11,8,-10,-20,-4,-2,-8,-17
1517208039353050,-2,10,-2,-5,-1,0,1,5
1517208039353050,0,-2,3,14,2,-1,4,-18
1517208039369574,-5,-28,-38,-16,-5,-7,-13,-17
1517208039369574,-15,-17,8,6,0,3,1,12
1517208039371063,10,6,-27,0,0,3,22,59
1517208039371063,-13,-57,23,-1,-1,-5,-40,-85
1517208039392092,8,-9,-92,-16,-3,-1,2,23
1517208039392092,-20,0,40,22,4,-1,-4,-4
1517208039393578,-27,-15,3,-16,-2,1,0,-54
1517208039393578,29,29,9,-5,-2,-1,1,2
1517208039405609,-42,-24,-2,-5,-5,-1,15,21
1517208039405609,10,33,55,27,7,1,-13,-8
1517208039414593,1,13,3,-10,-4,-1,4,11
1517208039414593,33,56,-31,-5,-3,-2,-6,11
1517208039429616,-39,-77,10,-9,1,3,21,60
1517208039429616,-31,-28,-76,-16,-11,-8,-40,-77
1517208039431106,12,8,31,23,5,3,5,6
1517208039431106,2,7,-9,-21,-7,-7,-7,3
1517208039452121,40,39,57,33,7,6,3,20
1517208039452121,-19,-20,-56,-40,-9,-5,7,15
1517208039453620,28,-33,14,9,-2,-3,3,16
1517208039453620,-25,-37,-66,-22,-6,-6,-18,-31
1517208039466133,43,52,49,17,1,1,10,-16
1517208039466133,-42,10,43,10,2,2,6,25
1517208039474636,7,9,4,11,0,-2,21,6
1517208039474636,-17,-1,64,-12,-1,-2,-20,-20
1517208039489647,18,6,-34,-7,-6,-4,12,13
1517208039489647,2,-1,17,7,0,-1,-17,1
1517208039491159,-20,-7,2,-2,0,0,-9,-9
1517208039491159,-22,-42,-26,12,9,5,24,47
1517208039512184,12,42,-26,-24,-8,-3,-20,-28
1517208039512184,-12,26,38,4,3,-2,3,-4
1517208039513663,-3,-32,-19,-6,-4,-3,-6,-12
1517208039513663,-3,-26,7,17,2,2,7,15
1517208039525672,-20,-18,-8,-6,2,-1,6,16
1517208039525672,24,1,-25,-10,-3,1,6,19
1517208039534679,-7,15,10,9,2,0,-12,-16
1517208039534679,8,24,37,2,-3,0,-5,-28
1517208039549689,-5,-16,-23,0,1,0,-1,5
1517208039549689,13,-2,-9,24,7,6,37,8
1517208039551190,-9,10,-22,-28,-6,-3,-18,-2
1517208039551190,9,48,24,16,-3,-4,-3,7
1517208039572259,-17,-58,-58,-19,-8,-3,0,-24
1517208039572259,18,-11,14,6,2,1,12,23
1517208039573751,-30,-12,-55,-8,0,0,6,-11
1517208039573751,16,52,9,1,-1,0,-5,3
1517208039585769,-4,-12,28,0,-1,1,5,-1
1517208039585769,28,-13,-44,-13,-2,-1,-10,-11
1517208039594766,-13,4,37,11,1,-4,3,23
1517208039594766,-1,-21,-14,-7,-2,-1,-2,8
1517208039610286,-1,14,16,5,1,-2,-1,-10
1517208039610286,-4,-24,30,8,1,-3,-7,7
1517208039611795,10,20,2,-4,-5,-3,-5,-13
1517208039611795,-14,9,-14,-21,-2,-3,12,8
1517208039639308,0,5,5,5,-1,-1,-8,-7
1517208039639308,-8,13,36,4,0,3,12,9
1517208039641302,24,-9,-34,-6,-4,-9,-29,-1
1517208039641302,4,-21,-37,4,-1,1,17,21
1517208039645805,-7,17,11,1,4,0,-7,-25
1517208039645805,18,5,6,-5,-3,-4,-14,-3
1517208039655842,-42,-9,7,0,1,1,10,24
1517208039655842,7,-32,-27,0,-2,0,0,-23
1517208039669330,-7,-1,6,1,-1,-6,-1,29
1517208039669330,5,-11,-23,3,-1,-2,-16,-29
1517208039671320,6,-8,-22,-12,0,3,6,4
1517208039671320,-15,8,34,5,2,2,1,-7
1517208039691851,12,23,23,1,-1,-1,4,17
1517208039691851,-12,-2,-20,-15,-9,-6,-1,-6
1517208039693850,1,-24,-8,0,-6,-2,3,3
1517208039693850,4,5,-7,-4,-2,-1,-2,11
1517208039705845,1,-40,-14,-1,0,0,-19,-55
1517208039705845,19,35,50,10,2,0,7,29
1517208039722366,0,-6,-42,-8,-4,-3,3,15
1517208039722366,-16,-7,6,4,0,-2,-17,-71
1517208039729382,17,7,-20,4,-3,1,7,15
1517208039729382,-35,-9,-10,-13,-1,-3,0,-1
1517208039731372,6,-15,50,7,1,2,-4,-5
1517208039731372,-6,11,-44,-4,-4,-5,5,9
1517208039751883,5,3,16,-8,2,0,-16,-18
1517208039751883,-26,0,-28,-3,-1,0,-3,-9
1517208039754889,1,-5,4,0,-2,-3,-7,-12
1517208039754889,1,10,24,8,2,0,-6,7
1517208039765889,-12,-25,-20,8,3,-1,4,-2
1517208039765889,2,-6,-2,-8,-2,-1,7,14
1517208039774893,8,14,19,16,4,2,1,-13
1517208039774893,-6,-7,-43,-29,-4,-2,2,4
1517208039789403,2,11,22,8,0,-1,4,14
1517208039789403,7,0,6,2,0,0,-3,-7
1517208039791408,-8,-31,-55,-21,-6,-3,27,3
1517208039791408,-2,9,50,14,4,1,-25,-9
1517208039811922,-1,9,-3,-5,-3,1,0,-3
1517208039811922,9,2,32,7,0,-2,-7,-10
1517208039813420,4,6,-34,-8,-2,0,5,-1
1517208039813420,-5,1,15,5,-1,0,9,16
1517208039825941,-3,-13,11,1,-3,-1,-1,1
1517208039825941,15,6,6,-5,3,2,12,37
1517208039834436,-13,11,21,1,-1,-3,-28,-68
1517208039834436,0,-10,23,3,1,-2,6,10
1517208039849947,6,3,-24,-3,-3,-2,-3,-2
1517208039849947,1,0,-11,-1,-2,-3,-4,-4
1517208039850948,0,1,5,-1,-2,-2,2,10
1517208039850948,1,-28,0,12,2,1,2,-1
1517208039879491,0,8,-9,-32,-4,-4,-3,-7
1517208039879491,-31,-3,-8,-2,-2,-3,1,0
1517208039880969,30,34,43,7,2,-1,-4,10
1517208039880969,-8,-17,-40,0,-3,-1,0,-17
1517208039894505,-5,9,14,-2,-5,-7,-4,9
1517208039894505,-5,-15,-4,7,-1,-1,0,-11
1517208039895980,-3,0,-18,-11,-3,-1,-6,-2
1517208039895980,9,15,35,0,0,-1,0,3
1517208039908502,-3,-7,-6,2,1,0,1,9
1517208039908502,-3,-8,-14,0,0,1,-4,-23
1517208039917496,3,11,13,3,0,0,-3,-2
1517208039917496,-1,-3,2,0,-2,-2,0,15
1517208039932012,-7,-4,-16,-18,-1,-1,3,-2
1517208039932012,10,10,10,5,1,1,0,1
1517208039933508,-1,9,20,0,0,0,2,8
1517208039933508,-4,-15,-50,-10,-1,0,-6,-11
1517208039954539,-18,7,13,20,4,3,14,8
1517208039954539,7,2,8,-8,-3,-1,-3,-3
1517208039957032,4,5,2,-8,-3,-3,-2,4
1517208039957032,-22,-21,-27,-10,-6,-5,-5,-5
1517208039977048,6,28,15,12,1,-1,3,-2
1517208039977048,-3,-38,-26,-9,-5,-2,-4,0
1517208039978539,-22,-7,1,3,0,0,-5,-12
1517208039978539,13,11,-6,2,-1,-1,3,5
1517208039999552,8,23,15,-6,1,-1,-2,0
1517208039999552,-7,-6,-18,-1,-2,-3,-2,-8
1517208040001074,7,-6,6,13,2,1,-1,3
1517208040001074,-3,-5,6,-4,-3,-2,-2,3
1517208040014563,-8,-6,-5,-9,-1,0,-4,-9
1517208040014563,6,12,3,-2,-2,-3,-1,-2
1517208040016564,-6,-16,-14,2,-1,-3,1,-2
1517208040016564,5,19,26,6,1,1,4,5
1517208040029086,1,-24,1,3,-2,0,-3,2
1517208040029086,0,-1,-14,-1,-1,1,3,4
1517208040035580,-3,-4,-7,-4,-1,-2,-2,-1
1517208040035580,-11,2,6,0,-2,-3,-1,-1
1517208040052090,6,-8,0,0,-2,-1,-3,-6
1517208040052090,-2,3,9,9,2,-2,0,-2
1517208040053591,-1,-6,-10,-15,-2,-2,-4,-4
1517208040053591,7,9,13,0,0,0,-1,-3
1517208040074683,0,-3,-9,2,-2,-2,-1,7
1517208040074683,-1,3,17,7,3,2,5,11
1517208040076184,-6,-8,-33,-8,-5,-5,-7,-8
1517208040076184,3,1,-4,-15,-3,-2,-3,-1
1517208040089195,-1,-5,4,2,-1,1,-1,-5
1517208040089195,-1,0,3,1,-2,-1,-3,2
1517208040095716,4,0,7,6,0,-2,1,4
1517208040095716,0,2,2,-1,1,-2,-1,-3
1517208040113721,-1,-3,-6,1,0,-2,-3,-2
1517208040113721,3,4,7,-3,-2,-1,-3,-5
1517208040115213,-4,-11,-7,-1,-2,-1,-2,-1
1517208040115213,0,8,7,2,-3,-2,-2,-1
1517208040134736,-1,-8,-20,1,0,-3,1,0
1517208040134736,-3,-4,-3,-9,-2,-1,-1,-4
1517208040136228,0,0,11,-4,0,1,0,-2
1517208040136228,-4,-2,-1,12,4,0,1,4
1517208040149241,0,-1,2,4,0,0,-1,-4
1517208040149241,-1,1,-9,-27,-1,-2,-1,-2
1517208040155755,-1,0,-8,-2,-2,-1,-2,0
1517208040155755,3,4,7,4,-1,0,-1,0
1517208040171761,-2,-3,-2,0,-1,0,-1,-5
1517208040171761,1,-2,-4,5,-1,-1,0,0
1517208040173763,2,-1,5,-1,-2,1,1,2
1517208040173763,0,-2,2,0,-1,-2,-2,-4
1517208040194781,0,-1,-2,-1,-3,-1,-4,-4
1517208040194781,-1,0,-1,2,-1,-2,-2,-3
1517208040196292,2,-1,-7,-3,-2,0,0,3
1517208040196292,-1,-1,-1,0,-2,-1,-2,-1
1517208040208785,1,-1,0,-3,1,-1,0,-2
1517208040208785,-2,1,2,0,-1,-2,-3,-2
1517208040215784,-2,-1,4,3,1,0,1,0
1517208040215784,0,-2,-7,-6,-3,-2,-1,0
1517208040232307,-1,0,8,3,0,-1,0,0
1517208040232307,0,2,-1,7,1,-2,0,1
1517208040233797,-5,-14,-25,-27,-5,-1,-2,0
1517208040233797,-1,0,0,0,-1,-1,-1,0
1517208040254379,0,0,0,-4,-2,-2,0,0
1517208040254379,-3,-2,-3,14,1,-1,-2,-3
1517208040257381,-1,2,7,3,1,0,0,0
1517208040257381,0,-1,0,-6,-1,-2,-1,-1
1517208040268889,-3,-1,-3,0,-1,-1,-1,-2
1517208040268889,-1,-4,-1,-4,-2,-1,-1,-3
1517208040275393,-1,3,5,4,0,0,0,0
1517208040275393,-1,-5,2,-4,-2,-2,-2,-2
1517208040291905,-1,0,3,0,-3,-2,0,-3
1517208040291905,1,-4,-7,-3,1,-2,-2,0
1517208040293406,0,0,11,3,0,-3,-1,1
1517208040293406,0,1,-9,4,0,-2,0,0
1517208040314923,-3,-7,0,-2,-1,-2,-2,-1
1517208040314923,-1,1,0,-7,-2,0,-1,-1
1517208040316437,-2,-1,-2,4,0,-2,0,-2
1517208040316437,-1,1,4,-2,1,0,0,1
1517208040327953,0,0,-4,-2,-2,-2,-3,0
1517208040327953,-1,-2,-5,-1,-2,-1,-1,0
1517208040337438,-1,-1,4,3,0,1,-2,0
1517208040337438,0,-1,-3,-4,-2,-1,0,1
1517208040351948,0,1,-3,-4,0,-1,-2,-2
1517208040351948,-2,-1,-4,1,-1,-2,-1,-3
1517208040354462,-1,0,-1,-1,-2,-2,-1,-2
1517208040354462,0,0,0,-2,-1,0,0,-1
1517208040374473,-1,-1,-2,-2,-1,-2,1,1
1517208040374473,-1,-3,0,-2,-1,-2,-2,-1
1517208040375965,0,1,1,0,0,-1,-1,0
1517208040375965,1,1,-1,1,0,1,0,1
1517208040388476,-4,-1,-3,-2,-3,-4,-5,-4
1517208040388476,-1,0,-3,-3,-1,-2,-1,-1
1517208040397490,-1,-2,-1,0,-2,-4,-2,-2
1517208040397490,-1,-1,-1,2,-3,0,-2,-2
1517208040412016,-1,-3,-4,-2,-1,0,0,-1
1517208040412016,-2,-1,0,0,-1,-1,-1,-2
1517208040413517,-1,0,-1,1,0,1,-1,0
1517208040413517,0,-1,-1,-3,-1,-1,-1,-2
1517208040434550,2,1,1,-1,1,1,1,0
1517208040434550,-2,-2,-3,-1,-3,-4,-1,-2
1517208040436032,1,-2,1,0,-1,0,1,-2
1517208040436032,-4,-4,-5,-4,-4,-3,-3,-2
1517208040448543,-3,-1,0,-3,-1,-1,-1,-2
1517208040448543,1,1,2,0,-1,-2,-1,-1
1517208040457573,-2,-2,-3,-1,-1,-1,0,-2
1517208040457573,0,1,-1,-1,-1,-2,-1,-2
1517208040472058,1,0,0,0,0,-1,1,0
1517208040472058,-1,0,-1,-1,-3,0,-2,-1
1517208040473559,-3,-2,-2,1,0,-1,-1,-1
1517208040473559,-1,-2,-1,1,0,0,0,-3
1517208040494593,0,-2,-2,-1,-1,0,-3,0
1517208040494593,-2,0,-1,1,2,3,1,-2
1517208040496076,-1,-3,-2,-2,-3,-4,-2,-1
1517208040496076,-1,-1,-2,-1,-1,0,0,-1
1517208040508106,0,0,3,0,0,-1,1,0
1517208040508106,-2,-4,-3,-3,-2,0,-1,-2
1517208040517096,-2,-2,-1,-1,-1,-1,-1,-1
1517208040517096,-1,1,-1,1,0,-1,0,1
1517208040532111,-2,0,-1,0,-1,-1,-2,-1
1517208040532111,0,2,0,0,-2,-1,1,1
1517208040533603,-1,-1,-3,-4,-2,-2,-3,-2
1517208040533603,-1,-1,-1,-2,-1,-2,-2,0
1517208040554617,-2,-2,-2,-1,-3,-1,-2,-1
1517208040554617,-1,-1,-1,0,0,0,-1,-1
1517208040556618,0,0,-1,-1,-3,0,-1,0
1517208040556618,0,1,1,-3,-1,-1,1,0
1517208040568137,-1,-2,-1,0,0,-1,-1,-2
1517208040568137,-2,-2,-3,-3,-3,-3,-2,-2
1517208040577134,-2,0,-1,0,-2,-2,-2,0
1517208040577134,0,0,-1,-1,0,0,-1,-2
1517208040592158,-1,1,0,1,0,-2,-1,-2
1517208040592158,-1,0,-1,0,0,2,-1,-1
1517208040593644,0,-3,-1,-3,-2,-1,0,-2
1517208040593644,-1,-2,-1,0,0,0,1,-1
1517208040614702,-2,2,0,-1,-1,-1,0,-1
1517208040614702,0,-1,-3,0,-1,0,-1,0
1517208040616195,-2,0,1,-1,0,-1,-1,-2
1517208040616195,-1,-1,-4,-1,-2,-1,0,1
1517208040628257,-1,0,-2,0,-2,-1,-2,-2
1517208040628257,1,-1,0,-1,-1,-1,-1,-1
1517208040637258,-1,-1,-1,-1,0,-1,0,-1
1517208040637258,-1,0,0,-1,-1,0,0,-2
1517208040652253,-1,-1,-1,-2,-1,-1,-1,-2
1517208040652253,-2,-1,-1,-2,-2,-2,0,0
1517208040653754,1,-1,-1,0,2,1,-1,0
1517208040653754,-1,-1,-1,-3,0,-2,-4,-2
1517208040674276,-1,-3,-3,-1,-2,0,-1,-1
1517208040674276,-2,-2,-1,0,1,0,-2,-1
1517208040676278,0,0,-1,-1,-3,0,1,0
1517208040676278,-2,-1,-1,-1,-1,-1,-1,1
1517208040688278,-3,0,-2,-3,0,-1,-1,-1
1517208040688278,-2,-1,-1,0,-1,-2,0,-1
1517208040697283,-1,-1,-1,0,-1,-1,-1,-1
1517208040697283,-1,-2,-2,-2,-2,1,0,-2
1517208040712303,0,0,-2,-1,0,0,0,-1
1517208040712303,1,-1,-1,0,-2,-1,-1,-3
1517208040713804,-1,0,0,-2,-2,-1,-1,-1
1517208040713804,1,-2,-1,-1,-1,-1,-1,0
1517208040734319,0,-1,-1,-2,-2,-1,-1,-1
1517208040734319,-1,1,-2,-1,0,-2,-2,-3
1517208040736319,-2,-2,-1,-1,0,-1,0,-2
1517208040736319,0,0,0,0,-2,-2,-1,-1
1517208040748822,-1,-1,-2,0,-2,-1,0,0
1517208040748822,-2,-3,-1,-1,-1,-3,-1,1
1517208040757340,-1,0,-1,-1,-2,-1,-2,-2
1517208040757340,-1,-1,-3,0,-1,0,-1,-3
1517208040771836,0,-2,-1,-1,-1,-1,-2,-1
1517208040771836,-1,-1,-1,-1,-2,-2,-1,-1
1517208040773837,0,-1,-1,1,-1,0,0,0
1517208040773837,-2,-1,-1,0,0,-1,-1,-1
1517208040794361,0,0,-1,0,-2,0,-1,0
1517208040794361,-1,1,-4,-2,-3,-2,0,-1
1517208040796353,0,0,-1,-2,-1,-1,-2,-1
1517208040796353,-1,-2,-2,0,-1,-3,-2,-1
1517208040817369,0,-2,0,-2,-1,-2,1,0
1517208040817369,-3,-2,0,-1,-1,1,0,0
1517208040818869,-2,-1,-2,0,-1,-2,-2,0
1517208040818869,-3,-2,0,-3,0,-2,-1,-1
1517208040832392,-1,-2,0,-1,-1,-1,0,-1
1517208040832392,0,-3,-1,-1,-2,-1,-1,0
1517208040833383,-1,-1,1,-3,-1,-1,0,0
1517208040833383,-2,-2,-1,-1,0,-1,-2,-1
1517208040854430,-1,-1,-3,0,-1,-2,0,-1
1517208040854430,0,-1,-1,0,0,-1,-1,1
1517208040856953,-1,0,-2,-2,-2,-1,-1,-2
1517208040856953,-1,0,-2,-1,-2,-2,-1,-1
1517208040877030,0,-2,-1,-2,0,0,-1,0
1517208040877030,-1,-1,-1,-2,-2,-1,-1,-2
1517208040878502,-1,-2,-2,-2,0,-2,-2,-1
1517208040878502,-3,-1,0,-2,0,-1,-1,1
1517208040892069,-2,-2,0,1,-3,-2,-1,-3
1517208040892069,0,0,-2,-3,-2,-2,-2,-1
1517208040893513,0,-2,-1,0,-1,0,0,-1
1517208040893513,0,-1,-1,-2,-2,0,0,-1
1517208040915029,-1,0,-1,-1,-1,-1,-2,-1
1517208040915029,-1,-1,0,-1,-1,0,-1,-2
1517208040916030,-1,-1,-2,-2,-3,-2,-2,-1
1517208040916030,1,0,0,-1,-1,0,-2,0
1517208040937053,-2,-1,0,-1,0,-1,0,-1
1517208040937053,-1,-1,0,0,-1,-2,0,-1
1517208040938545,1,-1,-1,-1,0,0,0,-2
1517208040938545,-1,-1,-1,-1,-1,0,-1,-2
1517208040951554,-2,0,-1,-2,-1,-1,-1,-1
1517208040951554,-2,-2,-1,-1,-1,-1,0,0
1517208040958110,-2,-1,-1,1,-1,-1,0,0
1517208040958110,0,-2,-1,-1,-2,-2,-1,-1
1517208040974570,-1,-1,-2,1,-1,0,-1,-1
1517208040974570,-2,-1,0,-2,1,-1,0,-1
1517208040976071,-2,-1,0,-1,-1,-2,-1,-1
1517208040976071,-1,-1,-2,0,-2,-1,-2,0
1517208040997152,-3,-2,-1,-1,0,0,-1,-1
1517208040997152,-1,-1,-2,-2,-2,-2,0,-3
1517208040998635,0,-1,0,-1,-1,-1,-2,-1
1517208040998635,-1,-2,-3,-1,-2,-1,-2,-2
1517208041011653,-2,1,-1,-2,-2,-4,0,0
1517208041011653,-1,-1,-2,-1,0,0,-2,-1
1517208041018149,-2,-1,-1,-1,-1,-3,-2,0
1517208041018149,-1,0,-1,-2,-1,-1,0,-3
1517208041034674,1,-2,-2,0,-2,-2,-1,0
1517208041034674,-1,-1,-1,1,-1,-1,-2,-2
1517208041036171,-1,0,-2,-1,0,1,-1,1
1517208041036171,-2,0,-1,-1,0,-1,-2,-1
1517208041057176,0,-3,-1,-2,-2,0,0,-1
1517208041057176,-1,-1,-1,-1,-1,-2,-1,0
1517208041058677,0,-1,-2,0,-2,-1,-1,-1
1517208041058677,-1,0,-1,-1,-1,-2,0,-1
1517208041071186,-2,-1,-1,-1,-2,-1,-2,0
1517208041071186,0,-1,-2,-2,-2,0,-2,0
1517208041078194,-2,0,-3,-3,-1,0,-1,-2
1517208041078194,0,-2,0,-1,-1,-2,-1,-1
1517208041094719,-1,-1,-1,-3,-1,0,-1,-2
1517208041094719,-2,1,-1,0,-2,-2,0,-2
1517208041096225,0,-2,0,0,0,0,-1,-2
1517208041096225,-2,-1,-1,0,-1,-1,-2,0
1517208041117720,0,1,-2,0,0,-2,0,-1
1517208041117720,0,-1,-3,0,-1,-1,-1,0
1517208041118720,-1,-1,-1,-2,-2,-3,0,-1
1517208041118720,-1,-3,0,-1,-1,0,-2,1
1517208041131728,-1,-2,0,-2,0,0,-3,-1
1517208041131728,0,1,-1,-2,0,1,-1,1
1517208041138237,-2,0,-3,0,-2,0,1,-1
1517208041138237,-1,-2,-2,-1,0,0,1,-1
1517208041154756,0,0,-1,0,0,-2,-1,-1
1517208041154756,-2,-1,-1,-1,-1,-1,-3,-3
1517208041156255,-2,-2,0,-1,-1,-1,0,1
1517208041156255,-2,-1,-1,-1,-1,-1,-2,0
1517208041177271,-2,0,-2,-2,-2,-2,-1,-1
1517208041177271,-1,-1,-1,-1,0,-2,-1,-2
1517208041178785,-2,0,-1,-1,0,0,-2,-2
1517208041178785,-1,0,-2,-1,-1,-2,-1,-2
1517208041191280,-1,0,-1,-1,-1,-1,1,-2
1517208041191280,-1,-1,-1,0,-1,0,0,0
1517208041198279,-2,-1,0,-1,-1,0,1,-2
1517208041198279,-1,-1,-1,-1,0,-1,0,1
1517208041214798,1,-2,0,-1,0,1,-1,0
1517208041214798,-1,0,-1,-1,-1,-2,-2,-2
1517208041216289,0,-1,-2,-1,0,-2,-1,0
1517208041216289,-1,0,0,-1,-2,-2,0,-1
1517208041236802,0,-1,-1,-1,-2,0,-1,2
1517208041236802,0,-1,-1,-2,-1,1,-1,-1
1517208041238804,-2,0,-1,-1,0,-1,-2,-2
1517208041238804,-2,0,-2,-3,-2,0,-1,-3
1517208041251314,-1,-4,-1,0,-1,-1,-2,-2
1517208041251314,-2,-2,-2,-1,-2,0,0,-1
1517208041258319,0,-2,-1,-1,-4,-1,-1,0
1517208041258319,-2,-1,-2,-2,0,-2,-1,0
1517208041274329,-1,-2,-2,1,-1,-2,-2,-2
1517208041274329,0,0,0,-1,-1,-1,0,-2
1517208041276335,-2,-2,-2,-1,-2,-2,-1,-2
1517208041276335,1,-1,-1,-2,-1,-1,-1,-1
1517208041296869,-1,-1,0,-2,-3,-1,-1,-2
1517208041296869,0,-2,-2,-1,-1,0,0,0
1517208041298858,-1,-2,-1,-2,-2,-1,-1,-1
1517208041298858,-2,-1,-1,-1,0,0,0,0
1517208041310865,-3,-1,-2,0,-1,-3,-1,-1
1517208041310865,-1,1,-3,-3,-1,-1,-1,-1
1517208041319864,-1,-1,0,0,-1,0,-4,0
1517208041319864,-1,-1,-2,0,-3,-1,-1,-3
1517208041334873,-1,-1,-2,-1,-1,0,0,-1
1517208041334873,-1,0,-1,-1,-2,-1,-1,0
1517208041335873,-1,-1,-1,0,-1,-1,0,-1
1517208041335873,0,0,0,-1,-3,-2,-1,0
1517208041356902,0,-1,-2,-1,-1,-1,-2,-1
1517208041356902,-3,-2,-1,0,-1,-2,0,-2
1517208041358389,-2,-1,-2,-2,0,0,-1,-2
1517208041358389,-1,0,0,-1,-2,-2,0,0
1517208041370898,-2,0,-2,-1,-1,-1,-1,-2
1517208041370898,-1,-1,-1,0,-2,-1,-3,-1
1517208041379403,0,-1,0,-2,-1,-1,-1,-2
1517208041379403,0,0,-3,0,0,0,-1,0
1517208041394429,0,1,-2,-2,0,-1,-1,1
1517208041394429,0,-2,0,0,0,-1,0,-2
1517208041395915,-1,1,-1,-1,0,-2,1,0
1517208041395915,0,-1,-1,-3,-3,-1,-1,-1
1517208041416931,0,-1,0,-2,-2,-1,1,-3
1517208041416931,-1,-4,-1,-2,-1,0,-1,-1
1517208041418435,-1,-1,-2,0,-1,0,-2,-2
1517208041418435,-2,-3,0,0,0,0,-1,-3
1517208041430457,0,0,0,0,-1,-1,-1,-1
1517208041430457,-1,0,-2,-2,-2,-1,0,0
1517208041439446,0,-2,0,-2,0,-1,-2,-2
1517208041439446,-1,-1,0,1,-1,-2,-1,-1
1517208041454457,0,-1,-2,1,-2,-1,1,1
1517208041454457,-2,1,-1,-2,0,-1,-1,-1
1517208041456959,-2,-1,0,0,-2,-1,0,2
1517208041456959,-1,-1,-1,-1,-1,-2,-1,1
1517208041477000,-2,-1,0,-1,-1,-1,-2,-2
1517208041477000,-1,0,-1,0,-3,-3,-1,1
1517208041478473,-1,0,-2,-2,0,-2,-2,-4
1517208041478473,-2,-1,-2,0,-1,0,0,-3
1517208041490983,-3,-2,0,-1,0,-1,-3,-1
1517208041490983,0,-1,-1,0,-2,1,-2,-2
1517208041499488,1,-2,-2,-1,-1,-2,-2,-2
1517208041499488,-1,-1,-2,0,1,-1,-1,-1
1517208041514523,-3,-1,-2,-3,-3,0,1,0
1517208041514523,-1,-2,0,-2,0,-3,-2,-1
1517208041516503,1,-1,0,-2,-2,-1,-2,0
1517208041516503,-1,-1,-1,-1,-2,0,0,-2
1517208041537025,0,0,-1,-1,1,-1,0,0
1517208041537025,-1,-3,-1,-1,-2,-2,2,-1
1517208041538516,-2,-1,-1,0,-2,-1,0,0
1517208041538516,-1,-2,-1,-1,-1,-2,-2,-1
1517208041550525,-2,-1,-1,0,-2,0,-1,-2
1517208041550525,-1,-1,0,0,0,1,1,0
1517208041559582,-1,-2,-3,-2,-3,-1,1,0
1517208041559582,0,0,-1,-2,-3,-2,-2,0
1517208041582092,0,-3,-1,-2,1,-2,-1,-2
1517208041582092,-1,0,-2,-2,-1,0,-1,-2
1517208041583584,-2,-3,-1,0,0,-3,-2,0
1517208041583584,-2,-2,0,-2,-2,-1,-1,-2
1517208041597107,1,-1,-2,-3,-1,0,-2,0
1517208041597107,-2,-1,-2,0,-1,-1,-1,-1
1517208041598595,-2,-1,0,1,-1,-1,0,-2
1517208041598595,-1,-3,-2,-1,-2,-1,-1,-1
1517208041610623,-3,-1,0,0,-2,-2,-1,0
1517208041610623,-2,-1,-2,-2,0,-1,-2,-1
1517208041619610,-3,0,1,-1,-1,-3,1,-1
1517208041619610,0,-3,-2,-1,-1,-3,-1,-1
1517208041634620,-1,0,-2,-1,-2,-1,-1,-3
1517208041634620,0,0,-1,-3,-2,-2,0,-1
1517208041636121,0,0,0,1,-2,-1,-2,-2
1517208041636121,0,1,-2,0,0,0,-3,0
1517208041656157,-1,-2,0,-1,-1,-1,-1,-1
1517208041656157,0,-2,-1,0,0,-1,-3,-1
1517208041664641,-1,-1,-1,-2,-1,0,-2,-1
1517208041664641,-2,-2,-1,-1,-2,-1,0,-1
1517208041670645,-2,-1,-2,-1,-1,-1,0,-1
1517208041670645,-2,-2,-1,-2,-2,-1,0,-3
1517208041679651,0,-2,-2,-1,0,-1,0,-1
1517208041679651,0,0,0,-1,-1,-1,-1,-1
1517208041694677,-1,-1,-1,0,0,-3,0,-1
1517208041694677,-1,-1,-1,-2,-2,0,-2,0
1517208041696198,-1,1,-2,-2,-1,0,-2,0
1517208041696198,-1,-2,-1,0,1,0,-1,-3
1517208041717178,0,-2,-1,-1,-2,-1,-2,-2
1517208041717178,-1,-2,-1,-1,0,-1,-2,-1
1517208041723191,-1,-2,0,1,-2,0,-1,-1
1517208041723191,-2,0,-1,-1,-2,-1,2,-1
1517208041739702,0,-3,-3,-1,0,1,0,-1
1517208041739702,-1,0,-1,0,0,-1,-2,-1
1517208041741210,-1,-1,-2,-3,0,-1,-2,-2
1517208041741210,0,-1,-2,-2,-1,-1,-2,0
1517208041754706,-3,-1,-1,1,-2,0,-3,-1
1517208041754706,-2,-1,-2,-1,-2,-1,-1,0
1517208041756219,-2,-2,-1,0,-1,-1,-1,-1
1517208041756219,-2,1,-1,-1,-2,-1,0,0
1517208041777230,-1,0,-1,-2,-3,-2,-1,0
1517208041777230,0,-1,1,-1,-1,-1,0,-1
1517208041778739,-2,1,-1,-1,0,-1,-1,0
1517208041778739,-1,-2,0,-1,-1,0,-1,-1
1517208041799736,-1,0,-1,-2,1,-3,-2,-1
1517208041799736,-1,-2,-1,1,-2,-2,-2,0
1517208041801238,1,-3,-3,-1,-2,0,-1,-1
1517208041801238,1,-1,0,-1,1,-2,-2,0
1517208041814748,-2,-1,0,2,1,1,0,-2
1517208041814748,-1,0,0,-4,0,-1,-1,-1
1517208041816249,-2,0,0,-2,-2,-2,-1,0
1517208041816249,0,-3,-2,-1,-2,0,1,-1
1517208041837262,0,0,-1,-1,-1,-1,-1,-2
1517208041837262,-1,-1,0,0,-1,-3,0,-2
1517208041838765,-1,-2,-3,-1,1,0,0,-1
1517208041838765,-1,-1,0,-2,-2,-1,0,-1
1517208041860291,0,-1,-1,-1,-1,-1,-1,-1
1517208041860291,-2,-2,-3,-1,0,-2,-1,-1
1517208041861801,-1,0,0,-1,-2,1,-2,-2
1517208041861801,-3,-1,-1,-1,0,-3,-1,0
1517208041873788,-2,1,-1,1,-2,-1,-1,-1
1517208041873788,-1,-2,-1,-1,0,0,-2,-1
1517208041880796,-2,0,-1,-2,0,-2,0,0
1517208041880796,-1,-2,0,-2,-1,-1,-1,-1
1517208041897321,-1,-3,0,-3,-2,-1,0,-1
1517208041897321,-1,-1,0,-1,-1,-1,-1,0
1517208041898818,-1,-3,-1,-2,-1,-2,-1,-1
1517208041898818,-1,-2,-3,-2,-3,-1,-4,-1
1517208041919821,-2,0,0,0,-1,-1,-2,0
1517208041919821,-1,0,0,-2,-1,0,0,-2
1517208041921833,-2,0,-2,-1,0,0,0,-1
1517208041921833,-2,0,-1,-2,0,0,-2,-1
1517208041933831,1,-2,-2,-1,-1,-4,-2,0
1517208041933831,-1,0,-3,-2,-1,-1,0,0
1517208041940877,-1,-3,0,1,0,0,-2,-1
1517208041940877,-1,-2,0,1,0,-3,0,-2
1517208041956848,-1,-1,0,-2,0,-1,0,-2
1517208041956848,-1,0,-1,-2,0,0,-3,1
1517208041958862,-1,0,-2,-1,-2,-2,0,-1
1517208041958862,1,-1,0,-1,-1,0,0,0
1517208041979386,-1,-2,-1,-1,-2,0,-2,0
1517208041979386,-2,-2,-1,1,-1,-1,0,-2
1517208041980864,0,-1,-1,-2,-2,-1,-1,0
1517208041980864,-1,1,-3,0,-1,-1,-1,-1
1517208041993873,0,-2,-2,-2,-1,-1,1,-1
1517208041993873,0,-2,-1,-1,-1,-1,-2,-2
1517208042000879,0,-1,-1,-1,1,-2,0,0
1517208042000879,0,-1,0,-1,-1,-3,0,0
1517208042017901,-1,-3,-1,-3,-1,-1,-2,0
1517208042017901,-1,-1,-2,-1,-2,-2,-1,-3
1517208042019402,-1,0,1,-1,0,-2,0,-1
1517208042019402,-1,-2,-2,0,-1,-1,-1,-3
1517208042039421,0,0,-1,-1,0,0,0,-1
1517208042039421,-1,-1,-1,0,-1,1,-1,0
1517208042040906,-1,0,-1,-1,-2,-1,-1,-2
1517208042040906,-2,-1,0,-1,0,-1,0,-1
1517208042053917,-1,-1,-1,0,-2,-2,-3,-2
1517208042053917,-1,-2,1,0,-1,-3,-1,0
1517208042060435,1,-1,0,-1,-3,-1,-1,-2
1517208042060435,-1,-1,-1,-2,-1,1,0,1
1517208042076955,-1,-2,-1,-1,-1,0,-2,-1
1517208042076955,-2,0,-2,-1,-1,-1,-1,-1
1517208042078433,0,0,-1,-1,-1,-1,0,-2
1517208042078433,-3,0,-1,0,0,-1,-1,-1
1517208042099466,-2,-2,-3,-2,0,-2,-1,-1
1517208042099466,0,-1,-1,-2,-3,0,-1,0
1517208042100949,-1,1,-3,-2,0,0,-3,0
1517208042100949,-2,-2,1,0,-2,-1,-1,-2
1517208042113968,-2,-1,0,0,0,-2,0,-1
1517208042113968,-2,0,-1,0,0,-2,-1,-1
1517208042120463,-1,-2,0,-1,-2,-1,-1,-1
1517208042120463,0,0,0,-1,-2,-1,-1,-2
1517208042136976,1,0,-1,-1,-1,-1,-1,-1
1517208042136976,-1,-2,-2,-1,0,0,0,-1
1517208042138475,0,0,-2,0,0,-3,-2,0
1517208042138475,0,0,-2,-2,-1,-1,-3,0
1517208042159513,-2,-1,0,-2,-2,0,-2,-1
1517208042159513,-1,0,-1,0,0,-2,0,0
1517208042160991,-1,-1,0,0,1,2,1,0
1517208042160991,0,1,1,-2,0,-2,-1,-3
1517208042174001,-2,0,-1,-1,-1,-1,-1,-1
1517208042174001,-2,0,0,-2,-1,-1,-1,-1
1517208042180526,-2,-2,1,-2,-2,0,0,-2
1517208042180526,0,-1,-2,-1,0,0,-1,0
1517208042197031,-1,-1,-1,-1,-2,-2,-1,0
1517208042197031,0,-1,-1,-1,-2,-3,-1,-1
1517208042198520,-2,0,-2,-1,-1,-1,-2,1
1517208042198520,-2,-1,-1,-1,0,-1,-1,-2
1517208042219533,-1,1,-1,0,-2,0,0,0
1517208042219533,-1,-2,-1,-2,-1,1,0,-1
1517208042221034,-2,-1,-2,-1,-2,-2,-1,1
1517208042221034,0,-2,-1,-1,-1,-2,-1,-1
1517208042233543,1,0,-2,0,1,-2,-1,-1
1517208042233543,-1,-1,-1,-1,-2,-1,0,-1
1517208042242048,-1,-2,-2,-1,-1,-1,-1,0
1517208042242048,-2,-2,-2,-1,-2,0,0,1
1517208042257116,-1,-1,-2,-3,0,0,-2,0
1517208042257116,-1,-1,-3,0,0,-1,-2,0
1517208042258616,-1,-2,0,0,-1,-2,0,-2
1517208042258616,1,-2,-2,0,-1,-1,0,0
1517208042279633,-2,-1,0,-1,1,-1,0,-1
1517208042279633,-3,1,1,-2,0,0,-2,0
1517208042281113,-1,-2,-1,-2,-2,-1,-1,-1
1517208042281113,-1,-1,-1,-2,-1,0,0,0
1517208042293122,0,-2,-2,-2,-3,1,0,0
1517208042293122,0,0,-2,-1,-2,-1,-1,0
1517208042302130,-1,-1,-1,-1,0,-2,0,0
1517208042302130,-3,0,-2,-1,-2,-1,0,-1
1517208042317139,-2,-3,0,0,-2,-3,-1,-1
1517208042317139,0,-2,0,-1,-3,-2,-1,-1
1517208042318652,-3,0,-1,0,0,-2,0,-2
1517208042318652,0,-1,-1,-1,0,0,-2,0
1517208042339655,0,-1,-1,-1,0,-1,-1,0
1517208042339655,0,-1,0,-2,-1,0,-1,-1
1517208042341156,-1,-2,-2,-1,-1,-1,-1,-2
1517208042341156,-2,-1,1,0,-1,-2,-1,0
1517208042353183,0,0,-3,-2,-1,-1,-1,0
1517208042353183,1,-2,-1,0,0,-2,-2,-1
1517208042362171,1,-1,0,-1,0,1,-3,0
1517208042362171,0,0,-2,0,-2,-1,-1,-3
1517208042377198,-1,0,1,-1,-2,-1,-1,-2
1517208042377198,-2,-2,-1,-1,-1,-2,-1,0
1517208042378700,-1,0,-4,0,-1,1,1,2
1517208042378700,-2,-3,-2,1,-1,-1,1,0
1517208042399697,-3,0,0,-2,-1,-1,1,1
1517208042399697,-1,-1,-2,-1,-2,0,-1,-1
1517208042401200,-1,0,-1,-1,-2,-1,-2,-2
1517208042401200,1,-1,-1,-3,-1,-1,-2,-1
1517208042413263,-2,-1,-3,-1,-2,-2,-2,-2
1517208042413263,-1,-4,1,-1,0,-2,1,0
1517208042422213,-3,-2,-1,0,-2,-2,-2,-1
1517208042422213,0,-1,-1,-2,-1,-1,0,-1
1517208042437225,1,-2,-1,0,-1,1,-1,-1
1517208042437225,-2,1,-3,-1,-2,0,-1,-2
1517208042438736,-2,-1,0,0,-2,-1,-2,-1
1517208042438736,-2,-1,-2,0,-1,-2,0,-1
1517208042459739,0,0,-1,1,1,-2,0,-1
1517208042459739,-2,-2,-1,-1,-1,-1,-1,0
1517208042461240,-1,0,-1,-1,0,-2,-1,-2
1517208042461240,0,0,-1,-1,-1,-2,-2,-3
1517208042473250,-1,0,1,-1,-1,0,-2,0
1517208042473250,-1,-1,-1,0,1,-2,0,-2
1517208042482269,0,0,-1,-2,-1,1,-1,0
1517208042482269,-3,-1,-1,-1,-2,-1,-1,-1
1517208042497274,0,-2,-3,-1,-1,-2,1,-2
1517208042497274,-1,0,-1,-1,0,-1,-1,-1
1517208042498777,1,0,-3,0,-1,1,1,-1
1517208042498777,-1,-2,-2,-1,-1,-2,-2,-1
1517208042519794,-1,-3,-2,-1,-1,-1,-1,0
1517208042519794,0,-1,0,0,-2,0,-1,-2
1517208042521283,-1,0,-1,-3,-1,-2,1,-1
1517208042521283,-1,-1,-2,-1,-1,-1,-1,-2
1517208042533296,0,-3,-2,-2,0,0,-2,-3
1517208042533296,-1,-1,-2,-1,-2,-4,-1,-1
1517208042542308,-2,-1,-1,-1,0,-2,-2,-1
1517208042542308,-2,-1,0,-1,-2,-2,-1,1
1517208042556826,-2,-1,-2,0,-1,-1,-3,0
1517208042556826,-1,-1,-3,0,-2,0,-1,-1
1517208042558825,1,-2,0,-2,-2,0,-1,-1
1517208042558825,-1,-1,-1,-1,1,-1,-2,-1
1517208042579342,1,0,0,0,-3,-1,-2,0
1517208042579342,0,-1,-2,-1,-1,-1,-1,2
1517208042581326,-2,0,1,-1,0,-1,-2,1
1517208042581326,-2,-2,-1,-1,-1,1,-1,-1
1517208042593334,0,-2,0,-2,-2,0,-2,-2
1517208042593334,-1,0,0,-1,-1,-1,-2,-2
1517208042602341,-1,-1,-3,1,-2,-2,-1,-2
1517208042602341,-1,0,-1,-2,-1,-2,-1,-1
1517208042617352,-3,-2,-3,1,0,-2,0,0
1517208042617352,-1,-2,0,-3,-1,0,-1,0
1517208042618852,-1,-2,0,0,-1,0,1,0
1517208042618852,-2,-1,0,-2,-1,0,0,-2
1517208042639376,0,1,-1,-2,0,-1,-2,-3
1517208042639376,0,-1,-1,-1,-1,0,-2,-2
1517208042641368,-2,1,-1,-2,-1,0,-1,-3
1517208042641368,0,0,-2,0,-1,0,-2,-1
1517208042653377,0,-1,1,-2,0,-2,0,-2
1517208042653377,-2,0,-2,-2,-2,-1,0,-2
1517208042661882,-1,-3,-3,-1,-2,-1,0,-2
1517208042661882,0,-1,-2,-2,-1,-2,0,0
1517208042676920,-4,0,-1,-1,-1,-2,-1,1
1517208042676920,0,-1,-2,-2,0,-1,-2,-2
1517208042678394,-1,-2,0,0,-1,0,-2,0
1517208042678394,-2,-2,-1,1,0,-1,1,-3
1517208042699411,1,-1,-1,-3,0,-2,0,-1
1517208042699411,-3,0,-2,-1,-1,1,-1,-1
1517208042701411,-1,-1,0,-2,-1,-2,-2,-2
1517208042701411,1,0,0,0,-1,0,-2,-1
1517208042721935,-1,0,0,-2,-1,-1,-1,-1
1517208042721935,-1,-1,-2,-2,-1,-1,0,2
1517208042723427,0,-2,-2,-1,1,-2,-1,-1
1517208042723427,-1,-1,-2,-1,-2,-1,-1,0
1517208042736445,-2,-1,-2,1,-3,0,0,-3
1517208042736445,-1,0,-1,-2,-2,-2,-3,-2
1517208042742941,-1,-1,0,-1,-2,-2,-1,-3
1517208042742941,-1,-2,0,-2,-1,0,0,0
1517208042759509,-1,-1,-2,-1,-1,0,-3,1
1517208042759509,-1,-1,-2,0,-1,-1,-1,-1
1517208042760974,-1,-2,-2,0,-1,-2,0,-1
1517208042760974,0,-2,-2,-2,-1,-2,0,-1
1517208042782470,1,0,-1,-2,-2,0,-1,-1
1517208042782470,-2,0,-1,0,0,-2,-3,-2
1517208042783474,0,0,-2,-2,-1,0,-1,1
1517208042783474,-1,0,0,0,-1,0,-3,-2
1517208042796490,-2,-2,-3,0,-2,-1,0,-1
1517208042796490,-2,-3,-1,-2,-1,-2,-1,-1
1517208042802983,-1,-1,-1,-1,0,-1,-1,-2
1517208042802983,-1,-1,-1,-2,-1,-2,-1,0
1517208042819494,-2,-1,1,-2,0,0,-1,-4
1517208042819494,0,-1,-1,0,-1,-1,-2,0
1517208042820996,2,0,-1,0,-1,-1,-1,0
1517208042820996,-1,-3,-3,-1,-1,0,0,2
1517208042842025,-1,-1,-2,0,-1,-3,-2,1
1517208042842025,0,-3,-2,-1,-1,0,0,-1
1517208042843511,-1,-2,-1,1,-1,0,0,-1
1517208042843511,0,0,-1,-1,-1,-1,-2,-2
1517208042857020,0,-2,-1,-1,-1,0,-1,-1
1517208042857020,-1,-1,0,-1,-2,0,0,-1
1517208042863038,-2,-1,-2,-3,-2,-1,-1,-1
1517208042863038,0,-2,-1,0,-1,0,-1,0
1517208042879589,-1,-1,0,-2,-1,-2,-1,-2
1517208042879589,0,-2,-2,-1,-1,-1,-1,-1
1517208042881068,-3,-1,-2,-2,-1,-1,-1,1
1517208042881068,-1,-2,0,-1,-1,0,-2,-4
1517208042902055,0,-1,-1,-2,-1,-1,-1,-2
1517208042902055,-1,-2,0,1,-1,-1,0,0
1517208042903559,-2,1,-2,-2,0,-1,1,0
1517208042903559,-1,-1,-3,-1,-1,-2,0,0
1517208042916563,-2,0,-1,0,-2,0,1,1
1517208042916563,-2,-1,0,-1,-1,-1,1,0
1517208042923067,1,-2,0,0,-1,0,-1,-2
1517208042923067,-4,-3,-1,0,1,0,-2,0
1517208042939580,0,-1,-1,0,-1,-2,-2,-2
1517208042939580,0,0,0,0,-1,-3,-3,0
1517208042941085,0,-1,-1,-1,0,-2,-2,-4
1517208042941085,-1,0,0,-2,0,-1,0,0
1517208042961621,-2,0,-1,-1,-2,-1,-1,-1
1517208042961621,1,-2,-1,-1,-2,0,0,-1
1517208042968100,-1,-1,-1,-3,-1,-1,-1,0
1517208042968100,0,0,-1,-1,-1,-3,0,-1
1517208042976115,-1,-2,0,0,1,-3,0,-1
1517208042976115,-2,-1,-2,-2,-1,-1,-2,-2
1517208042984111,-1,-2,2,0,0,0,0,-1
1517208042984111,-1,0,0,-2,0,-3,-2,-1
1517208042999131,0,-1,-1,-2,0,-1,-1,-1
1517208042999131,-2,-1,-1,-2,-2,-1,-1,1
1517208042999624,-2,0,0,-1,-1,-1,-1,-1
1517208042999624,-2,-2,-1,0,-3,0,-1,-1
1517208043021146,-1,0,-1,-2,-1,0,-1,0
1517208043021146,-1,-2,0,0,0,-1,-2,-2
1517208043022147,1,-1,-2,0,-1,-2,-1,0
1517208043022147,1,-1,-1,0,-1,0,-1,-1
1517208043035650,0,-1,-2,0,-1,1,-1,0
1517208043035650,-1,-1,-1,-1,-1,-2,0,-1
1517208043043653,-2,-1,-1,0,0,-1,-1,0
1517208043043653,-2,-1,-1,-1,-1,-1,0,-2
1517208043058664,-2,-2,-3,-1,-2,-1,-2,1
1517208043058664,-1,-2,-1,0,1,-1,-1,-1
1517208043059664,0,0,-1,-2,-1,-2,-1,-2
1517208043059664,0,1,-2,-1,-2,0,-1,-2
1517208043081183,1,0,1,-2,-1,-1,1,-2
1517208043081183,0,0,-1,-3,-1,-1,0,-1
1517208043082182,-1,-1,0,-1,-3,-2,0,-1
1517208043082182,-2,-2,-2,-3,-2,0,-1,-1
1517208043095692,1,-2,0,0,-2,2,-1,-1
1517208043095692,-1,-2,-1,-1,-1,0,-1,-2
1517208043103707,0,-1,-1,-1,0,0,-1,-1
1517208043103707,-1,-2,0,-1,-1,-1,1,0
1517208043119218,-2,1,-1,-2,0,0,-1,-3
1517208043119218,-1,1,-2,0,-2,-1,-1,0
1517208043119707,0,-2,-3,-1,-1,-1,-4,-3
1517208043119707,-1,-1,-2,-1,-1,0,0,-1
1517208043141222,-1,-1,-1,-3,-1,-3,-2,0
1517208043141222,-2,-1,-1,-1,-1,0,0,-2
1517208043142222,-1,0,-3,-2,-2,0,-2,-2
1517208043142222,-1,-1,0,0,-1,-2,-2,-2
1517208043155732,-2,-1,-1,0,0,-2,0,-2
1517208043155732,-2,-1,-2,-1,-2,-1,-1,-2
1517208043163747,-1,-1,-1,0,0,-2,-3,0
1517208043163747,-1,-2,-1,-2,-1,0,-3,-2
1517208043178771,0,-4,-1,-1,0,-2,-1,0
1517208043178771,-1,0,-1,0,-1,-2,-1,0
1517208043179771,-1,-2,0,-1,0,1,1,1
1517208043179771,0,-2,-1,0,-1,-1,-1,1
1517208043201264,-1,-1,-1,-1,0,-2,-2,-1
1517208043201264,-2,0,-2,-1,-1,-1,-2,-1
1517208043202266,-2,-2,1,-2,-1,-1,1,-1
1517208043202266,-1,-1,-1,0,0,-2,-2,-1
1517208043215784,-3,-1,0,1,-1,0,-1,-1
1517208043215784,-1,-3,-1,-1,0,-1,0,-1
1517208043223780,0,0,-1,-3,-1,-1,-1,-1
1517208043223780,-1,-1,-1,-1,0,0,-1,-2
1517208043246819,1,-1,-2,0,-2,-1,-2,-1
1517208043246819,-2,0,-1,-2,1,-2,-2,-2
1517208043247806,-2,0,-1,0,-1,-1,-1,0
1517208043247806,-1,1,-2,-1,-2,-1,-1,0
1517208043261379,1,-1,-1,0,-1,-1,-1,-1
1517208043261379,-2,-1,-1,0,-1,1,0,0
1517208043262366,0,-1,-1,0,-3,-1,0,0
1517208043262366,-2,0,0,-1,-1,1,-1,0
1517208043275862,-1,-1,-1,-2,-2,0,-2,-1
1517208043275862,-2,-2,-1,-1,-3,0,-2,-1
1517208043283870,-1,-1,0,1,-1,1,-2,-2
1517208043283870,0,-1,-2,0,0,-3,-1,-1
1517208043298879,-3,-1,0,-1,-1,-1,-1,0
1517208043298879,0,-1,-1,1,-2,-2,1,-1
1517208043299881,0,-2,-2,-2,-4,-2,-1,0
1517208043299881,-1,-3,-1,-1,-1,-1,-3,-2
1517208043321405,-2,1,-1,-1,-1,0,-1,-2
1517208043321405,-1,-1,-2,-1,0,-1,0,-2
1517208043321896,-2,-1,-1,-1,0,-1,0,0
1517208043321896,0,-1,-1,-2,-3,-2,0,-1
1517208043335443,0,0,-1,-2,-2,0,-1,-1
1517208043335443,-1,0,-2,-1,-1,-2,-1,-1
1517208043343955,0,-2,0,-1,-1,-2,0,0
1517208043343955,-2,-1,-1,-2,-2,0,-2,0
1517208043358962,0,-1,-1,-1,0,2,-1,-2
1517208043358962,-1,-2,-3,-2,-1,-1,-3,0
1517208043359460,-1,-1,0,-1,0,-3,-2,-4
1517208043359460,0,-2,0,-1,0,-2,0,1
1517208043381475,-2,-1,-3,0,-1,0,-2,-3
1517208043381475,-1,-1,0,0,-1,0,-1,2
1517208043381965,-2,-1,-3,-2,0,0,0,-1
1517208043381965,1,0,-2,0,1,0,1,0
1517208043395478,-2,-2,0,-2,0,-3,0,-1
1517208043395478,0,-1,0,-2,-1,-1,-2,-1
1517208043403990,-2,-1,-1,-2,-2,0,-2,-1
1517208043403990,-1,-2,1,-2,-2,-3,-1,-4
1517208043418997,-1,0,0,-1,-1,-1,-1,0
1517208043418997,0,-1,-1,-2,-1,-1,-1,1
1517208043419493,-1,0,-2,0,-1,-1,0,0
1517208043419493,-2,0,-1,-2,0,0,-2,0
1517208043441517,-1,1,-1,-2,-2,-3,-1,-1
1517208043441517,-1,-1,-2,-2,1,0,0,-2
1517208043442019,0,-1,0,-2,-3,-2,-3,-1
1517208043442019,-1,-1,-2,0,0,1,-2,-2
1517208043455518,-2,-2,-2,-1,-1,-1,1,-1
1517208043455518,-1,-2,0,-1,0,-3,-1,-3
1517208043464023,-1,-1,-1,0,-1,-2,-1,-1
1517208043464023,-1,-1,-2,-1,-1,-2,-1,1
1517208043479050,-1,-1,2,0,0,1,-1,-1
1517208043479050,-1,0,-1,-1,-1,-1,-1,1
1517208043479545,-1,0,-2,-1,1,-1,-1,-2
1517208043479545,-3,-2,-1,0,-2,0,-2,0
1517208043501552,1,-2,-3,0,0,1,-2,1
1517208043501552,-1,-2,0,-1,-3,-2,-1,-2
1517208043502051,0,0,1,-1,0,0,0,0
1517208043502051,-1,-4,-5,-2,-3,0,-1,-2
1517208043524566,-1,0,0,-2,-2,-1,-2,0
1517208043524566,-1,0,1,-1,0,-1,-1,-3
1517208043525067,-2,-1,-3,-1,0,-1,-1,-1
1517208043525067,0,2,1,0,-1,-3,-2,1
1517208043539077,0,-2,-2,-1,-1,-2,-2,-1
1517208043539077,0,-1,-2,-3,-2,-1,-1,-1
1517208043539578,-1,-3,0,0,-2,-2,0,-1
1517208043539578,-1,0,-1,-1,-1,0,-2,-1
1517208043561115,-3,-2,-3,-2,0,-1,1,-1
1517208043561115,0,0,0,-1,0,0,-1,0
1517208043562116,-1,-2,-1,-1,-2,-2,-2,1
1517208043562116,-1,-1,-1,0,0,-2,-1,-2
1517208043575615,0,-2,-1,-2,-1,0,0,-2
1517208043575615,0,-2,-2,-1,-1,-1,-1,-2
1517208043584119,-1,0,-1,-1,0,-1,0,-1
1517208043584119,0,-2,-1,-1,-1,-3,1,-1
1517208043599131,1,0,1,0,-2,-1,-1,-3
1517208043599131,-4,-1,-2,1,0,-2,-2,-1
1517208043599622,-1,-1,-2,1,-2,-2,-3,-3
1517208043599622,0,1,-1,-1,-1,-2,-2,-2
1517208043621150,-1,0,0,0,1,-1,-1,0
1517208043621150,0,-1,-1,-2,-1,-1,-1,-1
1517208043622135,-1,0,-1,0,1,1,0,-2
1517208043622135,1,-1,-1,-2,0,0,-2,0
1517208043644651,-1,-2,0,-2,-1,0,-1,-2
1517208043644651,0,0,-1,1,-2,-1,0,-2
1517208043645152,0,1,2,-3,-1,0,0,0
1517208043645152,-2,0,-1,-3,-2,1,-1,-1
1517208043667168,0,-1,-1,0,-1,-2,0,-1
1517208043667168,-1,-1,0,-1,0,-2,0,0
1517208043667668,-2,-1,-3,-1,-1,-1,-1,-2
1517208043667668,-3,-2,-1,0,0,-1,-1,-2
1517208043681193,-1,-1,-2,-1,0,-2,-1,-1
1517208043681193,0,-1,-2,-1,-1,-1,-1,-2
1517208043682178,-1,-2,-1,0,-3,-2,-1,0
1517208043682178,0,-2,0,-2,-1,-2,-1,-2
1517208043704704,-2,0,-1,-2,0,0,-2,-1
1517208043704704,0,-2,-2,1,-3,-1,-2,1
1517208043705194,-3,-1,-1,-3,-1,1,-3,0
1517208043705194,0,-1,-1,-1,-1,-2,-1,2
1517208043718714,-1,-2,-1,-1,-2,-1,0,-2
1517208043718714,-2,-1,1,-1,0,-2,0,-2
1517208043719716,-1,-2,-1,-3,-1,0,-2,-1
1517208043719716,0,1,0,-1,-2,-1,0,-1
1517208043741229,0,-1,-1,-1,0,-2,0,1
1517208043741229,-2,-3,-1,-2,-1,-1,-1,0
1517208043741720,0,-2,-2,2,0,-2,-1,0
1517208043741720,-1,-2,-2,-1,0,-2,-2,-2
1517208043764736,-2,0,-2,-1,-1,-1,-2,-1
1517208043764736,2,-1,-2,0,-2,-1,-3,-2
1517208043765237,-1,-1,0,-2,-1,-1,-1,-1
1517208043765237,-1,-1,-1,-1,0,1,-1,0
1517208043778758,-2,-1,-1,-1,0,-2,0,-1
1517208043778758,-2,0,0,-2,-1,-2,-2,-2
1517208043779246,0,-1,-2,-1,-1,-2,-2,-1
1517208043779246,-1,-1,-1,-1,-2,-1,0,0
1517208043801262,-1,-1,0,0,-1,-1,-2,-1
1517208043801262,0,-1,-3,-1,-1,0,0,-1
1517208043802262,-1,-1,-1,-1,0,0,-2,0
1517208043802262,-1,-1,-1,-1,-1,-1,0,0
1517208043824278,-2,-1,-1,0,-2,-2,0,0
1517208043824278,-2,0,1,0,-2,-1,0,-2
1517208043825279,-1,-1,-3,0,-1,-2,-1,-1
1517208043825279,-1,-2,0,-2,0,-2,-1,-1
1517208043838789,-1,-1,-1,-2,-1,1,-2,-1
1517208043838789,-1,-1,-3,-1,0,0,0,0
1517208043839790,-2,-1,-1,-1,-1,-1,0,-2
1517208043839790,-2,0,-2,-1,-1,-3,-1,-1
1517208043861322,1,-2,1,0,-1,-1,-2,-3
1517208043861322,0,0,0,-3,-2,0,-1,0
1517208043862320,1,0,-2,-1,-3,-1,0,-1
1517208043862320,-1,-1,0,0,-2,-1,-2,-2
1517208043884823,-1,-1,0,-1,-2,-2,-1,-1
1517208043884823,0,-1,-1,-1,-2,0,-1,0
1517208043885326,-1,-1,-1,-1,-1,-1,-3,-3
1517208043885326,-1,0,-2,0,0,1,-1,-1
1517208043898831,-3,0,-2,-2,-4,-2,0,0
1517208043898831,-2,0,0,-2,1,-1,-1,-1
1517208043899832,-1,-1,-1,-2,1,-1,0,0
1517208043899832,0,-1,0,0,-1,-3,-1,-1
1517208043921364,1,-1,-2,-2,0,0,-2,-1
1517208043921364,0,-1,-2,0,0,-1,-1,-2
1517208043922363,-2,0,-1,1,0,-2,0,-1
1517208043922363,0,-2,0,-2,-1,-1,-1,0
1517208043944366,-1,-1,-1,-1,1,0,0,-1
1517208043944366,-1,-2,-1,-1,0,-2,-1,-1
1517208043945364,0,-2,0,-1,0,-2,-2,-1
1517208043945364,0,-2,-1,1,-2,0,0,0
1517208043958928,0,0,-2,-1,-2,-1,-2,0
1517208043958928,0,0,-1,0,-2,0,-3,-1
1517208043959375,-1,-2,-1,0,0,-1,1,-1
1517208043959375,-2,-1,0,-2,-1,-2,-2,0
1517208043981411,0,-2,0,-1,-1,-1,-1,-1
1517208043981411,-1,0,-1,-1,-1,-1,-1,0
1517208043981890,-1,0,0,-2,-3,-2,-1,-1
1517208043981890,-3,-1,-3,0,-2,-2,0,-2
1517208044004414,-3,-2,-1,-1,-1,-1,-3,-1
1517208044004414,-1,-1,-1,-1,-2,-1,-1,0
1517208044005406,0,0,-1,-1,-1,-1,-1,-1
1517208044005406,-1,0,-1,0,1,0,-2,-1
1517208044018417,-1,0,-1,0,0,-1,0,-1
1517208044018417,-1,-3,1,-2,-1,-4,0,-1
1517208044026422,-1,-1,-2,0,-1,-1,-2,-2
1517208044026422,1,0,-1,-1,-1,0,1,-1
1517208044041433,1,0,-1,-1,-1,-2,-1,-1
1517208044041433,0,0,-1,-1,-2,-1,0,-2
1517208044041934,-1,-1,1,-1,-3,0,0,-1
1517208044041934,0,-2,-1,0,0,-1,0,-3
1517208044064463,-1,-1,-1,-2,-1,-1,-2,0
1517208044064463,-2,0,-2,-2,1,0,0,0
1517208044065448,-2,-2,-3,-1,-1,-1,-2,0
1517208044065448,-1,-1,-1,-2,-1,0,-2,0
1517208044078970,-1,0,-1,0,-1,-1,-2,-2
1517208044078970,-1,-1,-1,0,-2,-2,0,0
1517208044079459,0,-2,0,-1,-1,1,-1,0
1517208044079459,-1,-1,-1,-2,-1,-1,-1,0
1517208044101475,-1,0,-3,1,-1,-1,0,-2
1517208044101475,-2,-3,-1,-1,0,-1,-1,-1
1517208044101976,-1,-2,0,-2,0,-2,-1,1
1517208044101976,-2,-2,0,-1,-1,-2,1,-1
1517208044124500,-2,-1,-1,0,-1,-2,0,-1
1517208044124500,-2,-1,0,-1,-2,-1,0,-2
1517208044124990,0,-2,-1,-1,-2,0,-1,-2
1517208044124990,-1,-3,1,-1,-1,0,0,-1
1517208044139000,-1,-1,-2,-2,0,0,0,-1
1517208044139000,-2,-2,-2,-2,-1,-1,0,-3
1517208044139502,0,-1,-2,-1,1,-2,-1,-2
1517208044139502,-1,1,-1,-2,-1,1,-3,-1
1517208044161517,-2,-3,0,0,-3,-2,0,-1
1517208044161517,0,-2,-2,-1,-1,-1,-2,-1
1517208044162017,-1,-1,-1,0,0,-1,0,0
1517208044162017,-1,-1,-1,-1,-1,-1,0,0
1517208044184534,0,-1,-1,-3,0,0,-3,-1
1517208044184534,-2,-1,-1,-1,0,0,-1,-1
1517208044185035,-1,0,-2,-1,-2,-2,0,0
1517208044185035,0,-3,-2,-1,-1,-1,-1,0
1517208044198081,-2,-2,0,-2,0,-1,-2,0
1517208044198081,-1,-1,0,-1,-1,1,0,-1
1517208044206061,-1,-1,-1,0,0,0,-1,0
1517208044206061,0,-1,-1,0,0,-3,0,-2
1517208044221068,-1,0,-3,-1,-3,0,-1,-1
1517208044221068,-1,-2,-1,-2,-1,-2,-3,1
1517208044222060,-2,0,-1,-1,-2,-2,-1,-2
1517208044222060,-1,-1,-2,-1,-2,0,0,0
1517208044244575,1,-1,2,-1,0,0,-1,-1
1517208044244575,0,-1,0,2,-1,-1,-1,0
1517208044245075,-1,0,-1,-1,0,-2,0,-2
1517208044245075,-1,-2,-2,0,0,0,-2,0
1517208044258106,-3,-1,0,1,1,-1,0,-1
1517208044258106,0,-1,-2,0,-2,0,-2,-1
1517208044273596,0,-3,0,-2,-1,-2,-2,0
1517208044273596,-2,-1,-2,-1,-2,-1,-1,0
1517208044281158,0,-1,-1,-2,1,0,-1,-1
1517208044281158,1,-1,-1,-2,-2,-2,0,-1
1517208044282117,-3,-1,-1,0,-1,0,-2,-1
1517208044282117,-2,0,0,0,1,-2,-3,-2
1517208044304618,-1,-2,-1,-2,-2,-3,0,-1
1517208044304618,-2,-1,-1,-2,0,0,-1,0
1517208044305118,0,0,-2,0,-2,-1,0,-1
1517208044305118,-2,-1,-3,-1,-1,-2,-1,-2
1517208044318139,-2,-1,1,-1,-1,-1,0,0
1517208044318139,0,-2,-1,-1,0,-2,-2,0
1517208044326157,-1,0,0,-2,-1,-2,-2,-1
1517208044326157,-1,-2,0,-1,-1,-1,1,-2
1517208044341154,0,0,-1,-2,-2,-2,-1,-1
1517208044341154,-1,-1,-2,0,-1,0,1,-2
1517208044342154,-2,-1,-1,-1,0,1,-2,0
1517208044342154,0,1,-1,0,-2,0,-2,0
1517208044364160,-2,-1,-3,-2,-1,0,-2,0
1517208044364160,-1,0,0,-2,-1,-1,-2,0
1517208044365161,-3,-1,0,-1,-2,0,1,-2
1517208044365161,-1,0,-1,-1,-2,-2,0,-4
1517208044378195,0,-2,-2,1,-1,-1,-2,-2
1517208044378195,1,0,-1,-3,0,-1,-2,-2
1517208044386175,-1,-1,-1,-1,-2,-2,-1,0
1517208044386175,0,-2,-1,-1,-2,-2,-1,0
1517208044401706,-2,-1,-2,0,-2,-3,-1,-1
1517208044401706,-1,-3,-1,1,-1,-1,0,-2
1517208044402189,-2,-1,-2,-2,0,0,0,-1
1517208044402189,-1,-1,0,-2,0,1,0,-1
1517208044424702,-1,-2,0,-2,0,0,-1,0
1517208044424702,-2,-1,0,0,-1,-3,-1,-2
1517208044425203,0,-1,-1,-1,0,0,-4,1
1517208044425203,0,-1,0,-1,0,0,-4,-1
1517208044438212,0,-1,1,-1,0,0,0,-1
1517208044438212,-1,-3,1,-2,0,-3,-1,0
1517208044446241,0,0,1,-1,-1,0,0,0
1517208044446241,-1,-1,-2,-1,-3,-2,-1,-1
1517208044461238,1,0,-1,0,-2,-3,-1,-1
1517208044461238,-1,-1,-1,0,-1,-1,-1,0
1517208044462240,0,-1,-2,-1,0,-2,0,-1
1517208044462240,-2,-1,0,1,-1,1,-2,-1
1517208044484755,-1,-1,-1,-1,1,0,-3,-3
1517208044484755,0,-1,0,-1,0,0,0,-2
