timestamp,emg1,emg2,emg3,emg4,emg5,emg6,emg7,emg8
1514896544558264,-2,-2,0,-1,-1,-1,0,1
1514896544558264,-1,-1,-1,-1,-2,1,1,0
1514896544558765,-1,-1,-2,0,-3,0,-2,-2
1514896544558765,-1,-1,-3,-1,0,-1,0,-2
1514896544573276,-1,0,-1,-2,-1,0,-1,-2
1514896544573276,-1,-2,-2,-2,0,-1,-1,-1
1514896544574275,-1,-4,-1,0,-1,-1,0,-1
1514896544574275,-2,-2,0,0,-2,0,-1,1
1514896544588785,-1,0,-2,0,0,0,-2,0
1514896544588785,0,2,-2,-2,-1,0,-1,-3
1514896544588785,-1,0,-1,-1,0,-1,-2,1
1514896544588785,-2,-1,0,0,-1,-1,-1,-2
1514896544626314,-1,-1,-1,-1,0,-3,-1,0
1514896544626314,-2,0,0,-2,-1,0,-2,-1
1514896544626812,0,-1,0,-1,0,-2,-1,-1
1514896544626812,0,-1,-2,-1,-2,-1,-1,-2
1514896544640822,-2,0,-1,-2,1,1,0,0
1514896544640822,-1,-1,0,0,-1,-4,0,0
1514896544641824,-1,-2,-1,-1,-1,-2,-2,-1
1514896544641824,-1,-1,0,-1,0,-3,-3,0
1514896544647829,-1,-2,-2,-1,-2,-2,-2,-3
1514896544647829,-1,0,-2,-1,0,0,-2,-2
1514896544649828,-2,0,-1,0,-2,-1,-1,-2
1514896544649828,1,-1,0,-1,-1,-2,-1,0
1514896544670362,-1,-1,-2,0,-3,-1,-1,0
1514896544670362,0,0,0,-1,-2,0,1,-1
1514896544671344,-1,-1,-1,0,-2,-2,-2,-2
1514896544671344,-2,-2,0,-2,-1,-1,0,-2
1514896544693363,-2,-1,0,-2,-1,-1,-2,-1
1514896544693363,-2,-1,-2,-2,-1,-1,0,-1
1514896544693858,0,-1,-3,-2,0,-2,0,0
1514896544693858,0,-1,-1,-2,-2,0,-2,0
1514896544707379,-1,1,0,0,-2,-2,-2,0
1514896544707379,-2,-1,0,-1,0,-1,-2,-1
1514896544708870,-1,-2,-1,0,0,0,0,0
1514896544708870,-1,-2,-1,-1,0,0,1,-1
1514896544730894,-1,-1,-1,0,-2,-1,0,-1
1514896544730894,-1,-1,-2,-1,-2,0,0,-3
1514896544731386,-1,-2,-1,-2,0,-1,-1,0
1514896544731386,-2,-2,-1,-2,-2,-1,-1,-1
1514896544761406,1,-1,0,-2,-1,-1,-1,0
1514896544761406,-1,0,-3,0,-1,-2,-2,0
1514896544761907,-2,0,-1,-2,-1,0,-1,-2
1514896544761907,-3,-2,-1,0,-1,-2,-1,-2
1514896544766923,-2,0,1,-1,0,0,-1,0
1514896544766923,-1,0,0,0,-1,-2,-1,-2
1514896544782922,0,-1,-2,-1,-2,0,1,-1
1514896544782922,-1,-2,-1,-1,-1,-1,-1,0
1514896544790928,-2,-1,-3,1,-1,1,0,-1
1514896544790928,-1,0,-2,-1,-1,-1,0,-1
1514896544792429,-1,0,1,0,-1,-1,-1,-2
1514896544792429,-1,-1,-1,-1,-1,-3,-1,-1
1514896544813444,1,0,-2,-1,-1,0,-2,-1
1514896544813444,0,-1,-1,-1,-1,0,-1,1
1514896544814443,-2,-2,-1,0,-1,-2,-1,0
1514896544814443,0,-1,-2,-2,-1,-1,-3,-1
1514896544826966,-1,1,-2,-2,-2,-2,-2,-2
1514896544826966,-2,1,-2,0,-1,-2,-1,0
1514896544835459,0,-2,-3,0,-1,-2,-1,-2
1514896544835459,-2,-3,-2,1,0,0,0,-2
1514896544850484,-2,-3,0,0,-1,-2,0,0
1514896544850484,0,0,0,-2,-2,0,-1,0
1514896544851470,1,-2,1,-1,0,-1,0,-1
1514896544851470,-2,-1,-2,-1,-2,-1,0,-1
1514896544872985,0,0,-1,-1,-1,-2,0,-2
1514896544872985,-1,0,-1,-1,-1,1,-2,-1
1514896544873986,-1,-1,-1,-1,-2,-2,-2,0
1514896544873986,-1,-1,-1,0,-1,1,-1,0
1514896544886996,-2,-1,-1,-1,0,-2,-2,-2
1514896544886996,0,-1,-2,-1,-1,-1,-2,-1
1514896544902508,-2,-2,-1,-1,0,-1,-2,-1
1514896544902508,-1,-2,-2,-2,-1,-4,-1,1
1514896544910522,-1,-1,-1,1,1,0,-2,-1
1514896544910522,0,-2,0,-3,-1,-2,-1,-1
1514896544911523,-1,-3,-1,-1,-1,0,0,-1
1514896544911523,-1,-2,0,-4,-1,-1,-1,-2
1514896544933028,-1,1,-1,-1,-1,-1,-1,0
1514896544933028,-1,-1,-1,-1,-1,-4,0,-1
1514896544934032,0,-1,-2,-1,-2,0,-1,-3
1514896544934032,-1,-2,-1,-1,0,-2,-1,-1
1514896544955544,-1,-1,0,-2,-2,-2,-1,-1
1514896544955544,-1,-1,0,-1,0,-1,-1,0
1514896544957045,-3,0,0,-1,-1,-1,-1,0
1514896544957045,-1,0,-2,-1,-3,-1,-2,0
1514896544970554,-1,0,-1,-2,0,0,-2,0
1514896544970554,0,0,-2,-1,-1,-2,-2,-1
1514896544971555,-2,-1,-2,-2,0,-2,1,-2
1514896544971555,0,0,-1,-1,0,1,0,-2
1514896545000576,0,2,1,0,-1,-3,-1,-3
1514896545000576,-3,-2,0,-1,-1,0,-2,-2
1514896545001076,-1,-1,-1,-1,-2,0,-2,-1
1514896545001076,-1,-3,1,-1,0,0,-1,0
1514896545018091,-1,0,0,-2,-1,-1,-2,0
1514896545018091,1,0,-2,-1,0,-1,0,-2
1514896545019590,-2,-2,-3,-2,-2,-2,0,-2
1514896545019590,-2,-1,-2,-1,-1,0,-1,-2
1514896545029636,-1,-2,-4,-2,0,0,-1,1
1514896545029636,-2,1,1,-1,-1,1,-3,-1
1514896545037633,0,-2,-1,-1,0,-1,-2,-1
1514896545037633,-1,-4,0,-1,-1,-2,-1,-2
1514896545053157,0,0,-1,-1,-2,-2,0,-1
1514896545053157,-1,1,-1,-1,0,-2,0,-1
1514896545053664,-1,-1,0,-1,0,-1,0,1
1514896545053664,-2,-2,-2,0,-1,1,0,-2
1514896545066656,0,2,-2,0,-3,-1,0,-1
1514896545066656,-1,-2,-3,-2,-2,-2,-1,0
1514896545075160,-1,-3,-2,-3,0,-2,-2,-1
1514896545075160,-1,0,-1,-3,-1,-1,-2,0
1514896545090670,-1,0,-1,0,-1,-1,0,-1
1514896545090670,-1,-1,-2,0,-1,-1,-1,-2
1514896545091672,0,-3,0,0,0,2,-1,-2
1514896545091672,-1,-2,-2,-1,-2,0,-1,-1
1514896545113187,-1,0,0,-2,-1,-2,0,-1
1514896545113187,-1,-2,0,-1,0,-2,-2,0
1514896545115689,-2,-3,-1,-2,0,0,-1,0
1514896545115689,-1,0,-2,-1,-1,-1,-2,2
1514896545136203,-2,3,0,-1,0,-2,-1,-1
1514896545136203,-2,-7,-5,-2,-2,-2,0,-1
1514896545137203,0,-3,-1,-1,-2,-1,-1,0
1514896545137203,0,0,0,-2,-1,0,1,-2
1514896545149212,-2,-1,-2,1,-1,0,-2,-1
1514896545149212,-2,2,1,-1,-1,-1,-1,-2
1514896545158219,0,-1,-2,0,-2,-2,-2,0
1514896545158219,0,-7,2,2,-1,-2,-1,0
1514896545173730,0,0,1,0,-1,-1,-1,-1
1514896545173730,0,1,-1,0,-1,0,1,-1
1514896545175234,-1,-1,0,0,0,-1,0,0
1514896545175234,0,0,-1,-1,-1,-1,-1,-2
1514896545204251,-2,-3,-2,-1,-1,0,0,-2
1514896545204251,-2,1,-1,-1,0,-1,0,-2
1514896545206752,-1,0,-1,-3,-2,-1,-1,-3
1514896545206752,-2,-1,-2,-2,0,-1,-2,-2
1514896545218260,0,-1,-1,-2,-1,-1,-1,0
1514896545218260,-1,0,-1,0,-3,1,-1,-3
1514896545219763,1,1,-1,-1,-1,-4,-1,-1
1514896545219763,-3,-1,-1,0,-1,-2,-2,-1
1514896545232270,-1,-3,0,-3,-1,-2,-1,1
1514896545232270,0,1,0,0,-1,0,-1,1
1514896545240785,0,1,-1,-2,0,0,-1,0
1514896545240785,-1,-3,-2,-1,-2,-1,-2,-1
1514896545255287,-1,-2,-1,-1,-4,-1,-1,-2
1514896545255287,0,1,0,-1,0,-1,-1,0
1514896545261791,-1,-1,-1,-1,-1,0,0,-1
1514896545261791,-1,-3,-1,-1,0,-1,-1,-1
1514896545269797,0,-2,2,2,-1,0,-1,-1
1514896545269797,1,0,1,0,0,0,-1,1
1514896545276812,-2,-1,-3,-3,-1,-1,-2,-1
1514896545276812,0,-1,0,-1,0,-1,-1,-2
1514896545293814,0,-4,-2,0,0,1,-2,-2
1514896545293814,-1,0,1,-2,-1,-3,-2,-1
1514896545295825,-2,-1,0,-1,-3,-2,0,0
1514896545295825,-1,-1,-1,0,0,-2,-2,0
1514896545316342,-2,-1,-2,-1,-2,0,-2,-1
1514896545316342,-1,0,-2,-2,-1,-1,0,-1
1514896545319843,-2,0,-1,-2,-1,0,1,-2
1514896545319843,-1,-2,-2,-2,-1,-2,0,0
1514896545329842,-2,-3,-1,-1,0,-2,-2,-1
1514896545329842,-1,0,-2,1,-2,-1,-1,-1
1514896545336846,-1,-2,0,-1,0,0,-2,-1
1514896545336846,-2,-4,-1,-1,-1,0,-1,-1
1514896545360370,-2,-1,-2,-2,0,-2,0,-1
1514896545360370,-2,0,-2,-2,-1,-2,-2,-2
1514896545366875,-1,-2,-2,-1,-2,-3,-1,-2
1514896545366875,0,-1,0,0,-1,-1,-3,-1
1514896545375873,-2,-2,-1,1,-1,-1,0,0
1514896545375873,0,0,-1,-2,0,-1,0,0
1514896545377382,-4,0,-2,-1,-1,-1,-1,-2
1514896545377382,-2,-2,-1,-2,0,1,0,-1
1514896545389882,-2,0,1,-3,-3,0,-1,-1
1514896545389882,-2,0,-2,-1,-2,0,-1,0
1514896545396887,1,-2,0,-1,-1,-3,-1,0
1514896545396887,0,-3,-1,0,0,-2,-1,-1
1514896545420403,-1,-3,-3,-1,0,-3,-1,0
1514896545420403,-2,1,0,-1,0,0,-2,-1
1514896545421904,0,-1,-2,-1,-2,0,-1,0
1514896545421904,-1,-3,-1,-2,-2,-1,0,0
1514896545435925,-1,-3,-2,0,0,-2,-1,-1
1514896545435925,-1,-1,-1,-2,-1,-1,-1,-1
1514896545436915,0,-1,-1,-1,-1,-1,-1,-3
1514896545436915,0,-4,-1,-1,-2,0,-3,-2
1514896545449925,0,-1,-1,-3,-1,1,-1,-2
1514896545449925,-2,1,0,0,-2,-3,-1,0
1514896545456929,0,-1,-1,1,-2,0,-2,-1
1514896545456929,-1,-2,-2,-1,0,0,-1,-1
1514896545472952,-1,2,-1,-1,-1,-1,-2,-1
1514896545472952,-1,-1,-2,-2,0,0,1,-2
1514896545474952,-1,-1,-2,-2,-2,0,-1,-1
1514896545474952,-2,-2,-1,0,0,-2,-1,0
1514896545495466,-1,-2,-2,-1,-3,-1,-2,-2
1514896545495466,0,0,-1,-1,0,-1,-2,-2
1514896545497468,-2,-2,-3,0,-1,-2,1,0
1514896545497468,-1,0,-1,-1,0,1,-2,-1
1514896545509967,-2,1,-3,-1,-1,-1,-1,-1
1514896545509967,1,1,-1,-2,-1,-1,-3,-1
1514896545516971,0,-2,-1,-1,0,-1,-2,0
1514896545516971,-1,-2,-1,-1,-2,-1,-2,-2
1514896545533996,-3,1,-1,0,-1,1,-1,0
1514896545533996,-1,0,-1,-1,-2,-2,-1,-2
1514896545537495,-1,-1,-1,-1,0,0,-1,-1
1514896545537495,0,-3,-2,0,-2,-2,0,-1
1514896545555499,0,0,-2,-2,-2,-3,-2,-3
1514896545555499,1,0,0,-1,-1,-1,0,1
1514896545557010,0,-1,-2,-2,-1,-1,0,-2
1514896545557010,-2,-2,0,-1,-1,-2,-1,-1
1514896545570510,-1,-2,-1,0,0,0,-1,-1
1514896545570510,-3,0,-1,-1,-1,-1,-1,-1
1514896545577518,-1,-2,-1,-1,-1,-1,-2,-1
1514896545577518,-2,-3,-3,-2,-2,-1,-1,-3
1514896545593025,-1,-3,-1,-2,0,-2,0,-2
1514896545593025,0,-2,-1,0,0,-1,-1,-2
1514896545594526,-1,-2,-2,0,-2,-3,-1,1
1514896545594526,-2,-3,-1,0,-1,-1,-3,0
1514896545616041,0,0,-3,0,-1,0,1,0
1514896545616041,0,-1,-2,0,-1,-2,-1,-1
1514896545619544,-1,-1,0,-3,-1,-3,-1,-2
1514896545619544,-1,-3,-1,0,-1,-1,-1,-2
1514896545629051,-2,-1,-1,-2,-1,0,0,-1
1514896545629051,-1,0,-1,-1,-1,0,-1,-1
1514896545638057,0,-1,-2,0,-2,-1,-2,-1
1514896545638057,0,0,0,0,-1,-1,0,-1
1514896545660585,0,0,-1,-2,-1,-2,0,-1
1514896545660585,-1,0,-2,-2,-2,-1,0,0
1514896545662074,-1,-1,0,0,0,-1,-2,-1
1514896545662074,-1,-2,0,-2,-1,0,0,-2
1514896545675586,-1,0,-1,0,-1,0,-1,-1
1514896545675586,-2,1,-1,-2,-1,0,-2,0
1514896545678088,-2,-1,-2,0,-1,-1,0,-2
1514896545678088,-1,-2,-1,-1,-2,-2,0,1
1514896545689114,-1,1,-1,0,0,-1,-1,0
1514896545689114,0,1,-1,0,-2,-2,-1,0
1514896545698119,-1,-2,-2,-2,0,1,-1,-1
1514896545698119,-1,-2,-2,-1,-1,-1,-1,1
1514896545713114,-1,-1,-1,0,-1,-3,0,-2
1514896545713114,-1,-3,-2,-2,-1,0,0,-1
1514896545714614,-1,-3,-1,-2,0,-2,-2,-1
1514896545714614,-2,-4,-2,1,-2,0,-2,-2
1514896545735626,0,0,-1,-2,-2,-2,-1,-1
1514896545735626,-1,3,-1,0,-1,0,-1,0
1514896545737129,-1,-2,1,0,0,-1,-1,0
1514896545737129,-1,-3,0,-2,0,-1,-1,0
1514896545749636,-1,0,0,0,-3,-2,-1,0
1514896545749636,-1,-1,-1,-2,-1,-1,0,-1
1514896545758143,0,0,-2,-1,0,0,1,-1
1514896545758143,-1,-1,-2,-3,-2,-1,1,-1
1514896545773152,-1,0,-2,1,-1,-1,-1,-1
1514896545773152,1,0,-1,-1,-1,-3,0,-1
1514896545774654,-1,-3,-1,-3,-2,0,0,-2
1514896545774654,-1,-3,-1,-2,0,-1,0,-1
1514896545796168,-1,0,-2,-2,-1,-1,-2,1
1514896545796168,-2,0,-1,-3,-2,-1,-1,-2
1514896545798681,-2,-1,-1,-1,-2,0,-1,0
1514896545798681,-2,0,-2,-1,-2,-1,0,-1
1514896545809688,1,-3,0,-1,-1,-1,-1,-2
1514896545809688,0,0,-1,-1,-1,-1,0,-1
1514896545818185,-1,-2,1,-1,0,-1,0,-1
1514896545818185,-1,-3,-1,-1,1,-1,-1,-1
1514896545847705,-1,0,-1,-2,0,1,-1,0
1514896545847705,-1,0,-1,-1,-1,-1,1,-1
1514896545856211,-1,-3,-2,-1,-1,-1,-3,0
1514896545856211,-1,0,-1,-2,-1,-3,-3,-1
1514896545857212,-2,0,0,-1,-1,-2,0,-1
1514896545857212,1,-1,-1,-1,-1,0,-2,-1
1514896545858713,-4,-2,0,0,0,-1,-1,-1
1514896545858713,-2,-2,-1,0,-2,-1,-2,0
1514896545869237,-2,1,-2,-1,-1,-3,-2,-1
1514896545869237,-1,0,-1,-1,-1,-1,-1,0
1514896545885745,0,-2,0,-1,-1,-1,-1,-3
1514896545885745,0,-3,0,0,-1,-1,-1,-2
1514896545894238,0,-1,0,-3,-1,-2,0,-1
1514896545894238,-2,-1,-2,-1,0,0,-1,1
1514896545896239,-1,-1,-1,-3,-1,-2,-1,-1
1514896545896239,-2,-2,0,-1,-1,-1,-1,-1
1514896545922258,0,-1,-3,-2,-1,1,0,-3
1514896545922258,0,1,-1,-1,-1,0,-1,-2
1514896545931264,-2,-2,-1,-1,-1,0,0,-1
1514896545931264,-1,-2,-1,-2,-1,0,0,0
1514896545932267,-2,-2,-1,-1,-1,0,-1,-2
1514896545932267,-2,-3,-1,-1,-2,0,-2,0
1514896545938269,-1,-3,0,1,-2,-2,-1,-1
1514896545938269,-1,-2,0,1,-3,-2,-2,-1
1514896545953281,-2,1,1,2,-1,-2,-2,-2
1514896545953281,-1,0,-1,-3,-1,-2,1,-3
1514896545954791,-1,-1,0,-2,-1,0,-2,-1
1514896545954791,-1,-3,0,-1,-2,0,-1,-2
1514896545975796,-2,0,-1,0,-4,0,-1,1
1514896545975796,-1,0,-1,-2,0,-1,-2,-2
1514896545977338,1,-1,-2,0,-3,-1,-1,0
1514896545977338,-1,0,-2,-2,0,1,-2,-1
1514896545989315,0,-1,-1,-2,-1,-1,0,-1
1514896545989315,0,0,0,-1,-2,-1,-1,-1
1514896545998324,-2,-2,-1,-1,-2,0,-2,0
1514896545998324,-1,-1,-2,-1,-1,-2,-1,-1
1514896546012833,-2,-1,-3,0,0,0,-1,-2
1514896546012833,-1,1,-2,-1,-1,-1,-2,1
1514896546014825,-2,-2,-2,-1,0,-1,0,-2
1514896546014825,-1,-2,-1,0,-1,-2,1,-2
1514896546035850,0,0,0,-2,0,-1,-3,-1
1514896546035850,-1,0,-1,-1,0,-1,-1,-1
1514896546039351,1,-1,1,0,-2,1,0,0
1514896546039351,-2,-1,-1,0,0,1,0,0
1514896546074375,0,-1,-1,-2,-1,-1,-2,-1
1514896546074375,0,2,-2,0,-1,-3,-1,-3
1514896546076876,-2,-1,-1,-3,-1,-3,-1,-1
1514896546076876,-1,-3,-1,0,-1,-1,-1,-2
1514896546077868,-1,-1,-1,0,-2,0,0,-2
1514896546077868,-3,1,-2,-1,-4,-2,-1,0
1514896546081871,0,-4,-2,0,-1,-3,-2,-1
1514896546081871,0,-1,-1,-1,-2,-1,-3,0
1514896546096384,-1,-1,0,0,0,-1,0,-1
1514896546096384,1,-2,0,-1,-3,0,1,-1
1514896546098394,-4,-2,-2,-2,-1,0,0,-1
1514896546098394,-1,-2,-1,-2,-2,0,-1,-1
1514896546119412,0,0,1,0,-2,-2,0,-3
1514896546119412,-1,-1,-2,-1,-1,0,-1,-1
1514896546122900,0,0,-1,-1,-1,-2,-1,-1
1514896546122900,-1,-2,-2,-1,1,0,-1,-1
1514896546133430,-2,2,-2,0,-1,-2,0,0
1514896546133430,-1,-1,-1,-1,-1,-2,-1,-2
1514896546135408,-1,-1,-3,0,-1,-1,-1,-2
1514896546135408,-1,0,0,-1,-1,0,0,-2
1514896546155423,-2,0,-2,-3,-1,0,0,0
1514896546155423,-2,-2,0,-2,-2,-1,-2,0
1514896546157424,-1,-2,0,0,-1,0,-2,-2
1514896546157424,1,-3,-1,0,-1,-1,0,-2
1514896546177941,-1,-1,0,0,-3,-1,-2,-1
1514896546177941,-1,0,-1,0,0,0,-1,0
1514896546179943,0,-2,-1,-2,-1,-2,-1,-1
1514896546179943,-2,-1,0,-1,0,0,-1,0
1514896546192450,0,1,-2,-1,-1,-2,0,-2
1514896546192450,0,-1,-2,-2,-1,-2,-1,-1
1514896546199455,-1,-3,-1,1,0,-1,-1,-1
1514896546199455,-1,-3,-3,-2,1,0,-1,0
1514896546223471,-1,-3,-1,-2,0,0,-2,0
1514896546223471,-2,-1,-1,0,-1,-2,-1,0
1514896546224974,-1,-2,-1,-1,-1,0,0,0
1514896546224974,0,-3,-1,-1,-1,-3,-2,-1
1514896546237982,1,-1,-1,-1,1,-1,-1,0
1514896546237982,-1,0,-1,-2,-3,-2,-1,-2
1514896546239983,-1,-1,-1,-2,0,-1,-1,1
1514896546239983,0,-1,0,0,-2,-3,-2,-1
1514896546252992,-2,0,-1,-1,-2,-1,-1,-3
1514896546252992,-2,0,-1,-2,0,-1,-1,-2
1514896546258995,-1,-3,0,0,-1,-1,-1,-1
1514896546258995,-1,-2,-1,-2,-1,1,0,0
1514896546283057,-1,-1,-1,-2,0,-1,-2,-1
1514896546283057,0,0,-1,-1,0,1,-1,-1
1514896546284555,-1,-2,0,0,-1,-1,0,-2
1514896546284555,-2,-1,-2,-1,0,-2,0,1
1514896546298057,-1,0,-2,-1,-1,0,1,-1
1514896546298057,-1,-1,-1,-1,-3,0,-1,-2
1514896546299559,-1,1,-1,-1,-2,-1,-1,-2
1514896546299559,-1,0,0,0,-2,0,-2,-3
1514896546320583,0,0,-1,-1,-2,-2,-1,0
1514896546320583,0,-1,-1,-2,0,-1,-1,-1
1514896546322073,-1,-2,-1,-1,0,-2,0,-1
1514896546322073,-1,-3,0,-2,-2,2,-2,-1
1514896546335583,-1,0,-2,-1,-1,0,-1,-1
1514896546335583,1,-1,0,-1,0,-2,0,0
1514896546337087,0,-1,-1,-2,-1,-1,1,1
1514896546337087,-3,-1,-1,-1,0,-1,-1,-1
1514896546357610,-1,0,-1,-2,0,-1,-2,-1
1514896546357610,-1,0,-1,-3,0,-1,0,-2
1514896546364114,-3,-1,-1,-4,-1,1,-1,-2
1514896546364114,0,0,-1,-1,-1,-1,-2,-1
1514896546372609,0,-1,-1,-1,-2,-2,0,0
1514896546372609,-1,0,-1,1,-2,0,-2,-1
1514896546379113,-1,-1,-1,0,-1,-1,-1,-1
1514896546379113,-1,-1,-1,-2,-2,0,-2,-2
1514896546395625,-1,-1,2,-2,-1,-3,-1,-2
1514896546395625,-2,0,-1,-1,0,-3,-1,0
1514896546398127,-1,-1,-2,0,0,-1,0,-2
1514896546398127,-1,-1,0,0,-1,-1,1,-1
1514896546418141,-1,1,-1,0,-1,0,-1,-1
1514896546418141,0,-1,0,-1,-1,1,-1,-1
1514896546425647,1,0,0,0,-2,0,-2,-2
1514896546425647,0,-1,-1,0,0,0,0,0
1514896546432661,-1,-2,-2,-1,0,-1,0,-1
1514896546432661,-2,-2,-1,0,-2,-1,-1,0
1514896546439155,-1,-2,-2,-1,-2,-3,-2,-1
1514896546439155,-1,0,-1,-1,-1,-2,0,-1
1514896546455685,0,0,-1,-1,-1,0,-1,-1
1514896546455685,0,-1,-2,-1,-1,-2,-1,-1
1514896546457171,-1,-2,-1,-2,0,-1,-1,-2
1514896546457171,-2,-2,0,1,-2,0,-1,0
1514896546478192,-3,-1,-1,0,1,-1,-1,-1
1514896546478192,-1,0,-1,-1,-2,0,-2,-1
1514896546479694,-1,-3,-1,-1,-2,1,-2,-2
1514896546479694,-2,-1,-1,-1,-1,-1,0,-2
1514896546492702,-2,-1,-2,-3,-1,-1,-1,0
1514896546492702,-2,0,-3,-1,-1,-3,0,-1
1514896546500199,-1,-1,0,-2,-1,-1,0,0
1514896546500199,1,-1,-1,-1,-1,-1,-1,0
1514896546515724,0,-1,-1,-1,-2,-1,-1,0
1514896546515724,-1,-1,-3,-2,-2,-1,0,-2
1514896546518211,-1,-3,-2,0,-2,-1,-1,-2
1514896546518211,-2,-2,-1,0,-1,-2,0,-2
1514896546538226,-2,2,0,1,-2,-1,-2,0
1514896546538226,-1,-3,-2,-2,-1,-2,-2,-1
1514896546539727,0,-3,-2,-1,-3,0,0,0
1514896546539727,-1,-1,-1,-2,-2,-2,-2,-1
1514896546561256,0,-1,-2,-1,-2,-1,-1,-1
1514896546561256,0,-2,0,-2,0,-1,0,-1
1514896546562752,-2,-2,-2,-1,0,1,0,0
1514896546562752,0,-1,-2,-2,-2,-2,-1,1
1514896546575763,-2,-3,-1,-2,-1,-3,0,-1
1514896546575763,-1,0,-1,-1,-1,-2,-1,0
1514896546578276,-2,-3,-1,-2,-1,-2,0,-2
1514896546578276,1,-1,-1,0,1,0,-1,0
1514896546598788,-1,-1,-1,-1,0,0,-1,-1
1514896546598788,0,-2,-1,-1,-2,0,-1,-3
1514896546601290,-2,0,0,-1,0,-2,-2,0
1514896546601290,-1,-1,-3,-2,-1,-2,-1,-1
1514896546611797,-1,0,-1,-2,-1,-2,0,0
1514896546611797,-2,0,-3,0,-1,-1,0,-1
1514896546620804,-1,-1,-1,-1,-2,-2,-2,0
1514896546620804,-2,-1,-2,-1,-1,0,-1,0
1514896546635328,0,0,-1,-1,0,-2,-3,0
1514896546635328,-2,-1,-1,-1,-2,0,0,-1
1514896546637314,-2,-2,-3,-1,-1,0,-4,-1
1514896546637314,-2,-1,1,1,2,-1,-2,0
1514896546658329,-1,0,0,0,-1,-1,-1,-1
1514896546658329,1,-2,-2,1,0,-1,-1,-1
1514896546659833,0,0,0,-1,-1,-2,1,-2
1514896546659833,-1,0,-2,-2,-2,0,-2,-1
1514896546671840,-1,0,-2,-2,-1,0,1,-2
1514896546671840,1,-1,0,-1,-2,-2,-2,-1
1514896546686864,-1,-3,0,-1,-2,-2,0,0
1514896546686864,-3,0,-1,0,-1,-3,-1,0
1514896546702863,0,0,-1,-1,-2,-3,0,-1
1514896546702863,0,0,-1,-2,0,-1,-1,-1
1514896546704863,-1,-3,0,-2,0,-1,-1,-3
1514896546704863,-1,-2,-2,-2,-1,-2,0,-1
1514896546717871,-1,-1,-3,0,0,-1,0,0
1514896546717871,-1,-2,-1,-2,0,-1,-1,1
1514896546719872,0,-2,-1,0,-2,-1,0,-2
1514896546719872,0,0,0,-2,-2,-2,-1,-2
1514896546731881,0,0,-1,-1,-2,0,0,-1
1514896546731881,-2,-2,-1,-2,-1,-1,-1,0
1514896546740888,-2,-1,0,-1,-1,-1,-1,0
1514896546740888,-1,-1,1,-1,0,-1,-1,-3
1514896546756399,-1,0,-2,-1,-1,-2,-1,-2
1514896546756399,-1,-1,-2,-2,-2,-1,0,-1
1514896546757399,-1,0,-1,-2,-1,-1,-1,-1
1514896546757399,1,-1,-2,-2,-1,0,-1,-1
1514896546778414,0,-1,0,1,0,0,-3,-1
1514896546778414,-1,0,-1,-1,-1,-1,-1,0
1514896546781416,-1,0,-4,-2,-2,0,0,-2
1514896546781416,0,0,-1,-2,-1,-1,0,-1
1514896546792433,-1,0,-2,-1,0,-1,-1,-1
1514896546792433,-1,0,1,-2,1,0,-1,-2
1514896546800940,1,-1,0,-1,1,0,-1,-2
1514896546800940,-2,-1,-3,-1,0,-1,-3,0
1514896546815452,-1,-1,-1,-3,-2,-3,-1,-1
1514896546815452,0,-1,-2,-1,-3,-1,-2,-1
1514896546816950,-3,-2,-1,-1,0,-3,0,-1
1514896546816950,-2,-2,0,-1,-1,-2,0,-3
1514896546837957,-1,0,-1,-1,-1,-2,0,-1
1514896546837957,0,-1,0,1,-2,-1,0,-1
1514896546839958,1,-3,-2,-1,0,-2,-3,1
1514896546839958,1,-1,-1,-1,-1,-1,-1,-1
1514896546851480,-1,-1,0,-3,-1,-3,-2,0
1514896546851480,-2,-2,-1,-2,-1,-3,0,-2
1514896546860988,0,-2,-3,0,0,-1,0,0
1514896546860988,-2,-2,0,0,0,-1,-1,-2
1514896546875983,1,-1,-3,0,-2,1,0,0
1514896546875983,-1,-2,0,-3,-1,-1,-1,-2
1514896546877988,-1,-3,-1,1,-1,-1,-3,-3
1514896546877988,-1,-1,-1,0,-1,-1,-1,0
1514896546905504,-2,-1,-1,-1,-1,-1,1,0
1514896546905504,-1,-2,-1,-2,1,-2,-1,0
1514896546907005,0,-3,-2,-3,-3,0,-1,-1
1514896546907005,0,-1,-1,0,-3,-1,0,-1
1514896546911521,0,-1,-1,-2,0,-3,-3,-2
1514896546911521,-3,-1,-2,0,-2,0,-1,-1
1514896546920519,-2,-3,0,-2,0,-1,-2,-1
1514896546920519,-1,-1,-1,-2,0,-2,-1,-1
1514896546935525,-3,-1,-1,-2,-1,0,-2,-1
1514896546935525,0,-2,-1,-1,-1,-2,-2,-1
1514896546937026,0,-2,-2,-2,-1,-1,0,0
1514896546937026,-1,-1,-1,-1,-2,-2,-1,-2
1514896546958041,0,-1,0,0,1,-1,-1,-1
1514896546958041,-1,-1,-2,-1,-1,-2,-1,-1
1514896546959542,0,-1,-1,0,-1,-3,-1,-1
1514896546959542,-1,0,-2,0,-2,0,-2,1
1514896546971552,0,0,1,-2,-1,0,0,0
1514896546971552,0,0,-2,-1,-1,-2,-2,-2
1514896546981062,-1,-1,-2,-1,0,1,-1,-3
1514896546981062,-1,0,-1,0,-2,0,-1,0
1514896546995571,0,0,-1,-2,-2,-2,-1,-1
1514896546995571,0,-1,-2,-1,0,0,-1,1
1514896547002076,-2,-2,0,0,0,-1,-2,0
1514896547002076,-2,-2,-1,-3,0,-3,-2,-1
1514896547018085,0,0,-2,-1,-1,0,-1,-2
1514896547018085,-1,-1,1,-2,-1,-2,-1,-1
1514896547019584,-1,-1,0,-1,-1,1,-1,-1
1514896547019584,0,-1,-1,0,-1,0,-2,0
1514896547041103,-2,2,-3,0,-3,-2,-1,-2
1514896547041103,-1,0,-2,0,0,-1,-1,-2
1514896547042602,-2,0,-2,0,0,-3,-2,-1
1514896547042602,-2,1,-2,-1,-2,-2,-2,0
1514896547056115,-1,-1,-1,-1,-2,0,-1,-1
1514896547056115,-1,-1,-1,-2,-1,-1,-1,-2
1514896547057615,-2,-3,0,0,-1,0,-1,-1
1514896547057615,-1,-1,-1,1,0,-1,-1,-2
1514896547078128,-2,0,1,-2,0,-2,1,-3
1514896547078128,-2,-1,0,-2,-3,0,-1,-1
1514896547081629,-1,-1,-1,1,-1,-2,-1,0
1514896547081629,0,-1,-3,-1,-2,-1,0,-1
1514896547100642,-2,1,-2,0,-1,0,-1,-1
1514896547100642,-1,-2,-2,-1,-1,-1,0,-2
1514896547102144,-2,-2,0,-3,-2,-1,0,-3
1514896547102144,0,0,0,0,-1,-1,-1,-2
1514896547115653,-1,0,-3,-2,-1,-2,-2,-1
1514896547115653,1,-4,-1,0,-2,-1,-1,0
1514896547117154,-1,-3,-3,0,-2,1,0,0
1514896547117154,0,-2,-1,-2,0,-1,-2,0
1514896547138671,-1,-1,0,0,0,-1,-1,0
1514896547138671,-1,0,-1,-1,-1,-2,-2,-1
1514896547140671,-1,-1,-1,-2,-1,-1,0,-1
1514896547140671,-2,-1,-2,-2,-2,-1,-1,-3
1514896547161687,-1,-2,-1,-2,-2,0,0,-1
1514896547161687,0,-3,-2,-1,0,-2,-2,-2
1514896547163188,-1,-3,1,-2,0,0,-1,0
1514896547163188,-3,-1,-1,-1,1,0,0,-1
1514896547175198,-1,0,-1,-1,-1,0,-1,-1
1514896547175198,-2,-2,0,-1,-2,-2,0,0
1514896547181699,0,-2,-3,1,-1,-3,-3,0
1514896547181699,0,-1,-2,-1,0,-2,-1,-2
1514896547198210,-2,1,-3,0,-2,-3,-2,-1
1514896547198210,-1,-1,0,0,1,-2,-1,-2
1514896547199712,-1,-1,-3,0,-2,-3,0,-2
1514896547199712,-3,-1,-1,-1,-2,-2,-2,0
1514896547221231,-1,0,0,-1,-1,-1,1,0
1514896547221231,0,-1,-2,-2,0,0,-2,-1
1514896547222231,-1,-2,-2,-2,-2,-2,-2,-1
1514896547222231,0,0,0,0,-1,1,-1,-1
1514896547234739,0,0,-1,-2,-3,-3,-2,-1
1514896547234739,-1,-2,-2,-1,-1,-2,0,-1
1514896547243244,-1,-2,-1,-1,0,1,0,-1
1514896547243244,-1,-2,-1,0,-2,-1,0,-2
1514896547258255,1,-1,-1,-2,-2,-1,-2,1
1514896547258255,-1,-2,-2,-2,-2,0,-1,-1
1514896547259757,-2,-3,-1,-1,-1,0,0,-2
1514896547259757,-1,0,-1,-1,0,-3,0,-2
1514896547280773,-2,-1,-2,0,-1,1,-1,-1
1514896547280773,-2,-2,0,-1,-3,-1,0,-1
1514896547282271,-2,-1,-2,0,0,-2,-1,-1
1514896547282271,-1,-2,-1,-1,-1,-1,-2,-1
1514896547303788,-3,0,-1,-1,-1,-2,0,0
1514896547303788,-1,-1,-1,-3,0,0,-1,0
1514896547305289,-3,-3,1,-1,-2,-2,0,-1
1514896547305289,-3,0,0,-1,-2,-1,0,0
1514896547318296,1,-1,0,-1,-1,-2,0,-2
1514896547318296,-1,-1,-1,-1,0,-2,-2,-2
1514896547319798,0,-3,-1,-2,-1,0,-1,-1
1514896547319798,-1,0,-2,0,-1,-1,-1,1
1514896547340811,-2,0,-1,-1,-1,-1,0,-1
1514896547340811,-3,-1,-1,0,-1,-2,0,0
1514896547342314,-2,-1,-1,-1,-1,-1,-2,0
1514896547342314,-1,-1,0,0,-3,1,-2,-1
1514896547355827,-2,2,-1,0,1,1,-2,-3
1514896547355827,-1,-2,0,-1,0,-2,-2,0
1514896547369835,0,-3,-2,-1,-1,-1,-1,0
1514896547369835,-1,-2,-1,-1,-2,0,2,0
1514896547378340,-1,0,-1,-1,0,-1,-2,1
1514896547378340,-1,-2,0,-1,-1,-1,0,0
1514896547384345,0,-2,0,1,-1,-2,-1,-2
1514896547384345,-2,0,-2,-1,0,-3,0,-1
1514896547400854,-1,-1,-1,-2,-1,-3,-1,-1
1514896547400854,-1,-1,-1,-1,-1,-1,-1,-1
1514896547402355,-1,-1,0,-1,-1,-1,-2,-1
1514896547402355,0,0,-2,-2,-1,-1,-2,-1
1514896547414865,-2,-2,0,0,0,-2,-1,-1
1514896547414865,-1,-2,-1,0,0,0,-1,-1
1514896547421875,-1,-1,-1,-3,-1,-2,-1,-1
1514896547421875,0,0,-2,-1,-1,-1,-1,-1
1514896547437883,0,-1,-2,-1,-2,-2,-2,-1
1514896547437883,0,-1,-1,-1,-2,0,0,-1
1514896547447887,-2,-2,0,1,-1,-1,-2,0
1514896547447887,-2,0,-1,0,0,-1,-2,-2
1514896547460396,-2,0,0,-1,1,1,-1,-1
1514896547460396,-2,-3,-2,1,0,-1,0,-1
1514896547461897,-1,-3,-1,-3,0,-2,-2,-2
1514896547461897,0,0,-1,-2,-2,-1,0,-3
1514896547474906,-1,1,0,-1,-2,0,0,-3
1514896547474906,-1,-1,-2,-2,-2,0,-1,-1
1514896547481411,-3,-3,-3,0,0,0,-1,0
1514896547481411,-1,1,0,0,-2,-1,-1,0
1514896547497940,1,0,-1,-2,0,-3,-1,-2
1514896547497940,-3,-2,-2,-1,-1,-1,-2,-1
1514896547499425,0,-3,-1,0,-1,-1,0,0
1514896547499425,0,-1,-2,-1,-1,-1,-4,1
1514896547521941,-1,-1,-3,-1,-1,-2,0,-2
1514896547521941,-1,-3,-1,-1,-2,-1,-1,-2
1514896547525442,0,-4,-1,-2,0,0,-2,-2
1514896547525442,-2,-2,0,-2,-2,-1,-1,-1
1514896547534486,-2,-1,-1,-1,-1,-1,-1,0
1514896547534486,-2,-1,-1,-2,-1,-1,-1,-1
1514896547542991,-2,-1,-2,0,-1,0,0,-2
1514896547542991,-1,0,0,0,-1,-1,-1,-1
1514896547558002,-2,1,-1,-3,-1,-2,-2,-1
1514896547558002,-1,-1,-1,0,0,-2,0,-1
1514896547559504,-1,-2,-1,-2,-2,0,-1,-2
1514896547559504,-1,-1,-2,-1,0,0,-1,0
1514896547580535,-2,0,-1,0,-2,-1,-1,-3
1514896547580535,-1,-4,-3,0,0,-1,-2,-1
1514896547583052,-2,-3,-1,0,-1,-2,0,-2
1514896547583052,-1,-2,-2,-2,-1,-2,0,1
1514896547610566,0,-1,-2,1,0,0,-1,-1
1514896547610566,0,-3,0,-2,-2,-2,-1,0
1514896547612067,-1,-2,-2,-1,-2,-1,-2,0
1514896547612067,-3,-2,-1,-2,-2,-1,0,0
1514896547618061,-1,1,0,-1,-1,-1,0,-1
1514896547618061,-2,0,0,-2,-2,0,-2,-2
1514896547619562,-2,-1,-1,-1,0,0,-3,-2
1514896547619562,-1,0,-1,0,-1,-1,0,0
1514896547641078,0,0,-2,1,-1,-2,0,0
1514896547641078,-1,0,-1,0,1,0,0,-1
1514896547643580,-1,-2,0,-1,-1,0,-1,-1
1514896547643580,-1,-1,-4,0,-2,0,-2,-2
1514896547654588,-1,-1,-1,-1,-2,-1,-1,-2
1514896547654588,0,-1,-2,-1,-1,-1,0,-2
1514896547671111,0,-2,-2,-1,-2,-3,-1,0
1514896547671111,0,1,0,-1,-1,-1,0,-3
1514896547678149,-2,0,-1,-2,-2,-2,-1,-1
1514896547678149,-2,0,0,-1,-2,0,-1,-1
1514896547679641,-2,-3,-4,-2,-2,1,0,0
1514896547679641,-1,1,-2,-3,-1,1,1,0
1514896547700665,0,0,-1,-2,-1,0,0,-1
1514896547700665,-2,-1,-2,1,-2,-2,-1,-1
1514896547704174,-2,0,0,1,-1,-2,-1,1
1514896547704174,-1,0,0,-1,0,-2,-1,0
1514896547723674,-3,0,-2,-3,0,-1,-1,0
1514896547723674,-1,-5,0,0,-1,0,-1,-1
1514896547727178,-1,-3,-1,-1,-1,-1,0,-1
1514896547727178,-2,0,-1,-3,0,-2,0,-2
1514896547738182,0,0,-2,-2,-2,-1,-1,-1
1514896547738182,-2,-3,-1,-2,-1,-3,-1,1
1514896547739683,-1,-4,-3,0,0,-1,0,-3
1514896547739683,-1,-1,-2,-2,0,-2,-2,-2
1514896547760711,-2,-1,0,-1,-1,-1,-1,-1
1514896547760711,0,-1,-1,-1,-1,0,0,-1
1514896547763200,0,-3,0,-1,-1,0,-1,0
1514896547763200,0,0,0,0,-2,-3,-3,-2
1514896547774207,0,1,-3,1,0,-1,0,-2
1514896547774207,-2,-3,-1,-1,-1,-1,-2,-1
1514896547783717,-2,-2,-1,-2,-2,-3,0,0
1514896547783717,-2,0,-2,-1,-2,0,-1,-2
1514896547798725,-1,3,-1,0,-2,-1,-2,0
1514896547798725,-1,-1,-2,0,-1,-2,-1,-1
1514896547801727,-1,-2,0,0,0,-2,-1,-2
1514896547801727,-1,0,-1,-1,-2,0,0,0
1514896547821242,-2,-1,1,0,0,0,0,-2
1514896547821242,-1,-2,-2,-3,-1,-2,-1,-1
1514896547823742,-1,-3,-1,-3,-2,-1,1,0
1514896547823742,-2,-1,-2,0,-2,-1,-2,-1
1514896547834252,-1,0,-1,-2,-2,-2,-2,-1
1514896547834252,-1,-3,-3,0,-1,-1,-2,-2
1514896547843256,-1,-3,-1,0,-1,0,-3,-2
1514896547843256,0,-1,-1,-1,0,0,-1,0
1514896547857776,-1,0,-1,-1,-1,-2,1,0
1514896547857776,-2,-1,-1,-1,0,-2,0,-1
1514896547859778,-2,-3,0,-1,-1,-1,-1,-1
1514896547859778,0,0,0,-1,0,0,-2,-1
1514896547880853,-1,1,-1,-1,1,-1,-1,0
1514896547880853,-1,-2,-1,-2,-1,0,-1,0
1514896547883335,0,-1,1,-2,-3,0,-1,-1
1514896547883335,-1,-1,0,-1,-2,-1,-1,-2
1514896547894340,-2,0,-2,-2,-2,-2,-1,-1
1514896547894340,-1,0,-1,-3,0,0,-1,-2
1514896547911343,1,0,-1,0,0,0,-1,-1
1514896547911343,0,0,-1,-2,-1,-1,0,-1
1514896547917346,1,0,-3,-2,-2,-1,-2,1
1514896547917346,-1,-2,0,1,-2,-1,-1,-1
1514896547926353,-3,-3,-1,0,-1,0,-3,0
1514896547926353,-1,-1,1,-2,-2,-1,-2,-1
1514896547947869,0,-1,-1,-2,0,-1,-1,-2
1514896547947869,-2,-3,-2,-2,-3,1,-2,-1
1514896547949869,-1,-1,-2,-2,-1,-2,-4,-1
1514896547949869,-2,-1,-1,-2,-2,-3,-2,-1
1514896547962879,-1,-1,0,-3,-1,0,-1,0
1514896547962879,0,-2,0,0,-1,-2,0,-1
1514896547964379,-1,-3,0,-1,0,-1,-1,-2
1514896547964379,-1,-1,2,0,-2,-1,0,-1
1514896547977898,-2,-1,-1,-1,0,0,0,-1
1514896547977898,-1,-1,0,0,-1,-1,1,0
1514896547979891,0,-4,-1,0,-2,0,1,-1
1514896547979891,0,-1,-3,-1,1,-1,0,-2
1514896548000405,0,-2,-1,-1,-2,-1,-1,-1
1514896548000405,-2,-1,0,-1,-2,0,-1,0
1514896548002407,-2,-1,-2,0,-1,0,-2,-2
1514896548002407,-2,3,-1,0,-1,0,-1,-1
1514896548023932,0,0,-2,-2,0,-2,0,-2
1514896548023932,-1,-2,-2,-1,-1,1,-3,0
1514896548027428,-2,-2,-2,-2,0,-1,-1,0
1514896548027428,0,-2,-2,-1,-1,-2,-1,-1
1514896548036951,-1,-1,0,-2,-3,0,-1,-1
1514896548036951,-1,-2,0,-2,-1,0,0,0
1514896548045443,-1,-1,-1,0,0,-2,0,0
1514896548045443,-1,0,-2,1,-1,-2,-1,1
1514896548060457,-2,1,-2,-2,-2,-1,-2,-2
1514896548060457,-1,0,-1,-1,0,-1,-1,-1
1514896548061949,-1,-3,-2,0,-1,-1,-2,-3
1514896548061949,0,-3,-2,-1,-1,-3,0,-1
1514896548090970,-1,-2,-2,1,0,-2,-3,-1
1514896548090970,-1,-3,-1,-1,0,-2,-2,-2
1514896548093471,-2,-2,-1,-1,-1,0,0,-2
1514896548093471,-1,-1,0,1,0,-1,0,-2
1514896548097474,-2,1,-3,-3,-3,-2,1,-1
1514896548097474,0,-2,-2,-1,-1,-3,-1,-2
1514896548104478,-1,-2,-1,-1,-3,0,-1,1
1514896548104478,-2,1,0,-2,0,-1,-1,-2
1514896548120990,-2,0,-1,-2,-1,1,-2,0
1514896548120990,-2,0,-2,1,0,-1,-1,0
1514896548126497,-2,-2,-1,-2,0,-2,-1,-2
1514896548126497,-1,1,-4,-1,-2,-1,-1,-4
1514896548143007,-1,1,1,-1,-2,-3,-1,0
1514896548143007,-3,-2,-1,-1,0,-1,-1,-1
1514896548144508,-2,-2,-1,0,-1,0,0,-2
1514896548144508,-2,-1,-2,-2,-1,0,-2,-1
1514896548165535,0,-1,-3,-1,-3,-2,0,-1
1514896548165535,-1,-2,-1,-1,-2,-3,0,-1
1514896548167035,0,-2,-1,0,0,-1,-1,1
1514896548167035,-1,-1,-1,-1,0,-1,-2,-1
1514896548180544,0,-1,-1,-2,-1,0,-1,0
1514896548180544,0,-1,0,-2,-1,-1,-1,-1
1514896548183034,-2,-2,1,-1,1,-1,-2,-2
1514896548183034,-1,-2,0,-2,-2,1,-2,-1
1514896548203049,-2,-2,-1,-1,-1,0,-1,-2
1514896548203049,-1,-4,-2,-1,-1,-2,-1,-1
1514896548206563,-2,-1,-1,-1,0,-1,0,-1
1514896548206563,-1,1,0,-1,-3,0,-2,0
1514896548225564,-2,2,-1,-2,-2,-1,-1,-1
1514896548225564,0,-1,-1,0,-2,0,-1,0
1514896548227065,0,-2,-1,0,-2,-1,-2,0
1514896548227065,-1,1,-2,0,0,-1,1,1
1514896548241575,-1,-2,-2,1,-1,0,1,-2
1514896548241575,-1,-1,-1,-3,0,0,-1,-1
1514896548243077,0,-1,-1,-1,-2,-1,-1,0
1514896548243077,-2,0,-1,-1,-2,-1,0,0
1514896548263090,-1,0,-3,-3,-1,0,-2,-1
1514896548263090,0,-2,-2,-1,-1,-1,-3,0
1514896548265595,-3,-2,-1,-1,0,-1,-1,-2
1514896548265595,0,1,-1,0,-2,-1,-2,-1
1514896548277600,-2,0,0,0,-2,-2,0,-1
1514896548277600,-2,-3,-1,-1,-1,-1,0,-2
1514896548291611,0,-1,-1,-1,-1,-3,-1,0
1514896548291611,0,-1,-1,-2,-1,-3,0,-2
1514896548300627,-1,-1,0,-1,0,-1,-1,-2
1514896548300627,-2,-1,-1,-2,-2,-1,-1,0
1514896548302118,-2,-1,0,-1,-1,-1,-1,0
1514896548302118,-1,-1,-2,-1,-1,-1,-2,-2
1514896548323634,0,0,0,-1,1,-2,-3,0
1514896548323634,-2,-3,-2,0,1,0,-2,-2
1514896548327140,-3,-1,-2,-2,0,0,-2,-1
1514896548327140,-3,-1,-2,-1,-2,-1,-1,0
1514896548336643,-1,0,-1,-1,-1,0,-1,-1
1514896548336643,0,0,0,0,-3,-3,1,-2
1514896548368668,-2,1,-2,-1,-1,0,-2,0
1514896548368668,0,-1,-1,-1,-1,-1,-1,-2
1514896548369667,-1,-2,-1,-2,-1,-2,-1,0
1514896548369667,-1,-3,-1,-2,-1,0,-1,-1
1514896548371179,0,-2,-1,-1,-2,-2,0,-2
1514896548371179,-1,0,0,0,-1,-2,0,-1
1514896548383700,-3,-1,-2,0,0,-1,-2,-2
1514896548383700,-1,1,-1,-2,0,-1,0,-1
1514896548385177,-2,-2,-1,-2,0,0,-2,-1
1514896548385177,-2,1,0,-1,-1,-1,-2,0
1514896548397185,0,0,0,1,-2,-2,-1,-1
1514896548397185,-2,-2,-2,0,-1,-1,-1,-1
1514896548404193,-1,-2,-1,-1,-1,0,0,-1
1514896548404193,-2,-2,-1,0,-1,-1,-1,-2
1514896548421703,0,-1,-2,-1,0,-2,0,0
1514896548421703,1,0,-2,-1,-2,-3,-1,-1
1514896548423704,-1,-2,0,1,-2,-1,0,-2
1514896548423704,-1,-1,0,-1,-1,1,0,0
1514896548443217,-1,-1,0,-2,-1,-2,-2,-1
1514896548443217,-2,-3,1,0,-1,0,-2,0
1514896548444720,-1,-1,-2,-2,-2,-1,-1,-2
1514896548444720,-2,0,-2,-2,-2,-3,-1,-1
1514896548456740,-2,-1,-1,-1,-2,0,0,-1
1514896548456740,-1,-1,-2,-2,-1,-2,-1,-1
1514896548465735,-1,-2,-1,-1,-1,-2,-2,-1
1514896548465735,3,0,0,-1,0,-1,-2,-1
1514896548480748,-1,-1,-1,-1,-1,0,0,-1
1514896548480748,-1,-1,-1,1,-1,0,-1,0
1514896548483747,-1,-1,-2,0,-1,-1,-1,0
1514896548483747,0,-1,-1,-3,-1,-2,-1,0
1514896548503805,-1,0,-1,-1,-1,-1,-1,-4
1514896548503805,-1,-1,-2,-3,-1,1,-1,-2
1514896548505305,0,-2,0,-1,-1,-1,-1,-2
1514896548505305,-4,-2,-2,-1,-2,0,0,1
1514896548516812,-1,-2,-3,0,-1,-2,2,-1
1514896548516812,0,-1,0,0,-2,-2,0,-2
1514896548525819,-2,2,-1,-1,0,0,0,-1
1514896548525819,-1,1,-2,-2,-1,0,0,-2
1514896548540330,-3,0,-1,-2,0,-1,-2,-2
1514896548540330,-1,-3,-1,-1,-2,1,-2,-1
1514896548542330,0,-1,-2,-1,-1,0,-2,0
1514896548542330,-3,0,-2,0,-1,-3,-1,-2
1514896548562847,0,-1,-1,-2,-3,-1,-1,-2
1514896548562847,-2,-2,0,-1,0,-3,-1,0
1514896548564850,0,-2,-1,1,-2,-1,-1,-1
1514896548564850,-1,-1,0,-1,-2,-1,-3,-1
1514896548576855,0,-1,-1,-1,-1,-2,-2,-1
1514896548576855,1,-1,-1,0,0,-1,0,-3
1514896548585392,-2,-2,0,-1,0,-1,-2,-2
1514896548585392,-2,1,-1,-1,0,-1,0,0
1514896548600414,-2,0,-1,-2,-2,0,-1,-2
1514896548600414,0,-1,-1,-2,-1,1,-2,0
1514896548601904,-3,0,-1,-1,-2,-2,1,-2
1514896548601904,1,-1,-1,-1,0,0,-1,0
1514896548623419,-1,-1,-1,-1,-1,-1,-1,1
1514896548623419,-1,-4,-2,0,0,-2,-1,-1
1514896548628969,-3,0,-1,-1,-2,0,-2,-1
1514896548628969,-1,0,-1,-1,0,-2,0,-2
1514896548637009,0,-1,-1,0,-1,0,-1,0
1514896548637009,-2,-1,-1,1,-1,0,-2,1
1514896548645513,-1,-1,0,1,0,-1,-3,1
1514896548645513,-2,-1,-2,-1,-2,-2,0,-3
1514896548660522,-1,0,-1,-3,0,-1,-2,-1
1514896548660522,-2,-1,-1,-2,-3,1,0,-4
1514896548666530,-1,-1,-1,-1,-1,0,1,-2
1514896548666530,-2,0,-1,0,-2,-2,-1,-2
1514896548683042,-2,-2,-1,-1,-1,-1,-1,1
1514896548683042,-2,-2,-1,-1,0,-2,-1,-1
1514896548684540,-1,0,-1,-1,0,-2,-2,-1
1514896548684540,0,-1,-1,-2,-1,-1,-1,-1
1514896548697561,0,-1,0,-1,1,-2,1,0
1514896548697561,-2,-2,-1,-4,0,-1,-1,-1
1514896548705565,-2,-2,-1,-2,0,-3,-1,-1
1514896548705565,1,0,-2,-2,-1,-1,-1,0
1514896548721566,-1,-3,-2,-2,-2,-4,-2,0
1514896548721566,-2,-2,-1,0,-1,-1,-1,0
1514896548724068,-1,-1,-2,-2,-2,-1,0,-1
1514896548724068,-2,-1,-1,-2,-1,-2,0,-2
1514896548743582,0,-1,-3,-2,-2,0,0,0
1514896548743582,-1,-1,1,-1,0,0,-1,1
1514896548745083,-1,-2,-2,-2,1,-1,-1,-2
1514896548745083,-1,-1,-1,-1,0,0,-1,-1
1514896548765600,-2,1,0,-2,-2,-1,-1,-1
1514896548765600,0,-1,-1,-1,-1,-1,-2,-1
1514896548767101,-2,-1,-1,-2,-2,-1,-1,0
1514896548767101,-1,0,-1,-1,0,-1,-2,0
1514896548781151,-4,-1,1,-2,0,-1,-2,-2
1514896548781151,0,-3,-2,-2,-2,-1,-1,-2
1514896548782649,2,-1,-2,0,-2,-2,0,-2
1514896548782649,1,-1,-3,-2,-2,-1,-1,0
1514896548803199,0,-2,-1,-1,-1,-3,-1,-2
1514896548803199,-2,-1,-1,-2,-1,-2,0,0
1514896548804701,-1,-2,1,-1,-2,-2,-3,-1
1514896548804701,-1,0,-1,0,-1,0,-3,-2
1514896548816709,0,-1,-1,-1,0,-1,-1,-2
1514896548816709,-2,-2,-2,0,-1,-2,-1,-1
1514896548825716,-1,-1,-2,-2,-1,-1,0,0
1514896548825716,-2,1,0,0,-1,-1,-1,-1
1514896548840726,-1,-2,-1,1,0,-1,-1,-2
1514896548840726,-2,-1,-1,-2,0,-4,-2,-1
1514896548842228,-1,1,-1,-1,0,-1,-1,-1
1514896548842228,-2,0,-3,-1,0,-1,-1,-1
1514896548863244,-1,0,-1,-1,-2,0,-1,-2
1514896548863244,-1,-1,-1,0,-1,0,-2,-1
1514896548864759,-1,-2,-2,-1,-1,0,0,-2
1514896548864759,-1,-2,0,-1,-1,-1,0,0
1514896548885311,-1,0,-1,-2,-1,-1,-2,-2
1514896548885311,-1,-1,-2,-1,-1,-1,-1,-1
1514896548891813,-2,1,0,0,-2,-2,-1,0
1514896548891813,1,1,-1,-2,0,0,1,0
1514896548899819,1,-2,-2,-1,-1,0,-2,1
1514896548899819,-1,-2,0,-1,-2,-2,-1,-1
1514896548908337,-1,0,-2,-1,0,-1,-3,-2
1514896548908337,0,1,-1,-2,-1,-1,-1,-2
1514896548924356,-1,-2,-1,-1,-2,0,-1,-3
1514896548924356,0,-2,-1,0,-1,1,-2,-1
1514896548927845,0,-2,-1,0,-3,0,-2,-1
1514896548927845,-1,1,-1,-1,-2,-2,-1,-1
1514896548945374,0,-1,-2,1,1,-1,0,-3
1514896548945374,-2,-4,-2,0,-1,-1,-1,-1
1514896548947352,-2,-1,0,-1,-1,-1,0,0
1514896548947352,-3,0,-1,-1,1,-1,-2,-2
1514896548960374,-1,-4,-2,-2,-1,-1,-1,1
1514896548960374,-2,-1,-2,-2,-2,-2,-2,-3
1514896548962369,-2,-2,-2,-1,0,-3,0,-3
1514896548962369,-1,-1,0,-1,-3,-1,-1,0
1514896548982877,-3,-1,-2,0,-2,-3,-1,0
1514896548982877,-1,-3,0,-1,-1,0,0,-2
1514896548984879,0,0,-2,-2,-1,-1,-1,0
1514896548984879,-1,-1,-1,-1,0,-1,-1,-2
1514896549005896,-1,-1,-1,-2,-1,-2,0,-1
1514896549005896,0,1,-1,-1,-3,-2,0,2
1514896549007897,0,-1,0,-1,-1,0,-2,-4
1514896549007897,-1,-1,-1,-1,-1,-1,1,-1
1514896549020404,1,-2,-1,0,-2,-2,-2,0
1514896549020404,-1,-1,-1,-1,0,-1,-1,0
1514896549021906,-1,1,-2,0,-2,-2,0,-1
1514896549021906,0,-2,-1,0,-2,-2,-2,-1
1514896549043930,-2,-2,0,-1,-1,0,-1,-1
1514896549043930,1,-3,1,-1,-1,-2,-2,-1
1514896549046423,0,-1,-1,0,0,-2,-3,1
1514896549046423,0,0,-1,-2,-1,0,-1,-2
1514896549065445,-1,-2,-1,-3,-1,-1,-2,0
1514896549065445,-1,-1,0,-2,1,-1,0,-1
1514896549066936,-1,1,-2,-1,-1,0,0,0
1514896549066936,-2,2,-1,-1,-1,0,-1,0
1514896549079956,-2,-2,-1,0,-3,-2,0,-2
1514896549079956,-3,-3,-3,-1,-3,-2,-2,-2
1514896549093955,-1,-1,-1,-1,-2,0,-1,1
1514896549093955,-1,-1,-1,-1,-3,-1,-1,-2
1514896549110480,-1,0,-1,-1,0,-1,-2,-2
1514896549110480,-1,0,0,0,-1,0,-1,-1
1514896549111969,-1,-1,0,-1,-2,-1,-1,-2
1514896549111969,0,-1,0,0,-1,0,0,0
1514896549125478,0,0,-2,-1,0,0,-2,0
1514896549125478,1,-2,-1,-2,0,-1,0,-2
1514896549126989,-3,0,-1,0,-1,0,0,-2
1514896549126989,-1,-1,-1,-1,1,-3,-2,0
1514896549139989,-2,-2,-1,-2,-2,-2,-1,0
1514896549139989,-1,-2,-2,1,0,-1,1,0
1514896549146493,-1,-1,-1,-2,-2,-2,1,0
1514896549146493,0,-1,-2,-2,-1,-2,0,-1
1514896549163005,-1,0,-1,-1,-2,-1,0,-1
1514896549163005,-2,-2,-2,-2,-1,-1,-3,-1
1514896549165506,0,0,-1,0,0,0,-1,0
1514896549165506,0,0,-2,-1,0,-1,-2,-3
1514896549185020,0,-2,-1,-2,0,-1,-2,0
1514896549185020,0,-3,-1,-2,-3,-1,-1,-2
1514896549200535,0,-1,-2,0,-1,-1,-2,-1
1514896549200535,1,0,0,0,-1,0,-2,0
1514896549202546,-2,0,-1,0,-1,-1,-1,-1
1514896549202546,-2,-2,-1,0,0,-1,-1,-2
1514896549206550,-2,1,-1,-2,0,-1,-3,1
1514896549206550,-2,-1,-1,-2,-2,-2,-1,-1
1514896549223547,-1,-3,-2,-2,-2,0,-3,-2
1514896549223547,0,-3,-2,-2,-1,-1,-1,1
1514896549227050,-2,-2,0,-1,0,-1,0,0
1514896549227050,0,0,-1,-1,-2,-3,0,0
1514896549245075,-3,-3,0,-2,0,-1,0,-1
1514896549245075,-3,-3,1,-1,0,-1,-1,-1
1514896549251569,0,-2,-1,-2,-1,-1,-1,-4
1514896549251569,-4,0,-2,0,-1,-2,-2,-2
1514896549260095,0,-2,-2,1,-1,-1,-1,-2
1514896549260095,-2,-3,-2,0,-3,-1,-1,-1
1514896549266577,-1,0,-1,-1,-2,-2,-1,0
1514896549266577,0,1,-1,-1,-1,-2,0,-1
1514896549284142,0,-1,-1,-2,1,-1,-1,-1
1514896549284142,-2,-2,-1,-1,-1,0,-3,-1
1514896549286157,0,-1,-1,-1,-1,-1,-1,-3
1514896549286157,-1,-1,-1,-1,-3,-1,-1,-1
1514896549305667,-3,0,-1,-1,-2,-3,-1,1
1514896549305667,0,-2,-1,0,-1,-2,-1,-1
1514896549307169,-2,-2,-1,-2,-1,-1,1,-1
1514896549307169,-1,-2,-2,-1,-2,-1,0,-2
1514896549319666,-1,-2,0,-3,0,0,0,-1
1514896549319666,0,-1,-2,-2,-1,-1,0,0
1514896549328682,-2,1,-3,-1,-2,-1,-1,-1
1514896549328682,-3,1,0,1,0,-1,-1,-1
1514896549350688,1,-3,-2,0,-3,-1,-1,-1
1514896549350688,0,-3,0,0,-1,-1,-1,-1
1514896549353190,-1,0,-1,-2,-1,-1,-1,-2
1514896549353190,0,1,-1,-1,-2,-1,0,1
1514896549365709,-1,-3,-2,1,-2,-2,-1,-2
1514896549365709,-3,-1,-1,0,1,-1,1,-2
1514896549367210,-2,-4,-1,-2,-2,-1,-2,-1
1514896549367210,-1,0,-1,-2,-2,-1,0,-2
1514896549379209,0,-1,-1,-2,0,0,-1,-3
1514896549379209,0,-3,-2,-1,-1,0,0,0
1514896549388215,-2,1,-1,0,-1,-1,-2,-1
1514896549388215,-1,1,-1,-3,0,-1,0,-1
1514896549403233,-2,-4,0,-3,-1,-1,0,-1
1514896549403233,0,0,-2,-1,-2,-1,-1,-1
1514896549404733,0,0,0,0,-3,-2,-1,1
1514896549404733,-1,0,0,-1,-2,-1,-2,-1
1514896549427252,-1,0,-2,-1,-1,1,0,0
1514896549427252,-2,-2,-1,-1,-1,-1,0,-1
1514896549429254,-3,-1,-1,-1,0,-1,-1,0
1514896549429254,-1,2,-2,-1,-1,-2,-2,0
1514896549439251,0,-2,0,-1,0,-1,0,0
1514896549439251,-1,-3,-1,0,-3,-1,-3,0
1514896549448258,-1,-1,-1,0,1,-1,-2,-1
1514896549448258,-1,0,0,-1,-2,-1,0,0
1514896549462768,-1,-2,-2,-1,-1,-1,0,0
1514896549462768,-1,-2,-2,-1,-2,-2,-1,-1
1514896549476780,0,0,-2,0,-3,-2,-1,0
1514896549476780,-2,-1,-1,-1,0,0,-3,-2
1514896549485785,-1,-1,-2,-2,-2,-1,-1,0
1514896549485785,-1,-4,0,-2,-1,2,0,0
1514896549487287,-1,0,-2,-1,-1,-2,0,-1
1514896549487287,-1,-1,0,-1,0,-1,-1,0
1514896549499295,0,1,-2,-1,-3,-1,0,-1
1514896549499295,-2,-3,-3,-2,1,0,-1,-2
1514896549508310,-1,0,-1,-1,-1,-2,-2,-1
1514896549508310,-2,0,-2,-1,-1,-1,-1,-2
1514896549522810,-1,-1,0,0,-1,-1,-1,-1
1514896549522810,0,-1,0,-1,0,-1,-2,0
1514896549526813,-2,-1,-1,-2,-1,0,-1,-3
1514896549526813,1,0,-2,-3,-1,0,0,-2
1514896549545326,-2,-1,-1,0,-1,0,-2,-3
1514896549545326,0,-3,0,-2,0,0,-2,-1
1514896549547328,0,1,0,-1,-1,-2,-1,-1
1514896549547328,0,0,-1,-2,-2,-2,0,-1
1514896549567354,-2,-2,-1,-1,-2,-1,-1,1
1514896549567354,-1,-2,-2,1,-2,0,-1,-1
1514896549568363,0,1,-1,0,-1,-1,-1,0
1514896549568363,-1,1,-1,0,-2,-2,0,-1
1514896549582423,-1,-2,0,-2,-1,-1,-1,-2
1514896549582423,-1,-2,-1,-2,-2,-2,-2,-1
1514896549582902,-1,1,-1,-3,-1,-1,1,-3
1514896549582902,-1,-1,-1,0,1,-1,-1,-2
1514896549612923,-2,-3,0,0,2,0,-2,-1
1514896549612923,-2,-3,-2,-1,-2,-2,-2,-1
1514896549613924,-1,0,1,-2,-1,0,-1,0
1514896549613924,0,-1,-1,-1,-4,-2,0,-1
1514896549627435,-2,-2,-1,0,-2,0,-1,-1
1514896549627435,-2,-3,-1,-1,-1,-1,0,-2
1514896549628936,1,-1,-3,-1,-2,2,-2,0
1514896549628936,-1,0,0,-2,-3,-1,0,0
1514896549642446,-1,0,0,0,0,-2,-2,-1
1514896549642446,-2,-3,-1,0,-1,0,1,-2
1514896549642944,-2,-1,0,0,-1,-1,-1,0
1514896549642944,0,1,-2,-1,0,0,0,-2
1514896549664962,-1,-2,-3,-1,0,-1,-1,0
1514896549664962,-1,0,-1,1,1,-1,-2,1
1514896549665460,-2,-2,0,-3,-1,-1,1,-1
1514896549665460,0,1,0,-1,-2,-1,-2,0
1514896549687477,0,-2,-2,-1,-1,-2,-1,-2
1514896549687477,0,-3,-2,-1,1,0,-1,-1
1514896549688478,-3,0,-3,0,-1,-2,-2,-1
1514896549688478,-2,1,-2,-2,-1,-2,-2,-1
1514896549702988,0,-2,-1,-2,-1,0,-1,-1
1514896549702988,-2,-2,-2,-1,-1,0,-2,-1
1514896549704490,1,0,1,0,-1,-2,0,-2
1514896549704490,-3,-1,0,-3,-2,-2,-1,-1
1514896549724514,-1,0,-1,0,-1,-1,-1,1
1514896549724514,-1,-3,-1,0,-1,0,-1,0
1514896549725515,-1,-1,-3,-2,-1,-2,-1,0
1514896549725515,0,1,-1,-2,0,0,0,-2
1514896549747032,-3,-1,0,0,-1,0,-2,-1
1514896549747032,0,0,0,0,-1,-1,-2,-1
1514896549755094,0,-1,-1,-1,-2,-2,-1,-1
1514896549755094,-1,-1,-1,-1,0,-1,-1,0
1514896549762599,0,-1,-1,-2,-3,-2,-1,-1
1514896549762599,-3,-1,0,-1,-2,0,1,-2
1514896549763099,-1,-1,1,-1,-1,-1,-1,-2
1514896549763099,-1,0,0,1,-2,-1,-1,0
1514896549784617,-1,-3,0,-1,0,-1,0,0
1514896549784617,-2,-3,-1,0,0,0,-1,-1
1514896549785630,-1,-2,-1,0,-1,0,-1,0
1514896549785630,-2,0,-1,-2,-1,-2,0,-3
1514896549807130,-2,-2,-1,-2,-1,-2,-1,0
1514896549807130,0,-1,-1,0,-2,-2,0,-2
1514896549808131,-1,1,-2,-1,0,0,0,-2
1514896549808131,-1,1,-1,-2,0,0,-1,0
1514896549822140,0,-2,-2,1,-2,-1,-1,-2
1514896549822140,-1,-2,-3,-2,0,-2,-1,-3
1514896549823141,-2,-1,-1,-1,-1,-1,0,-1
1514896549823141,1,-2,-1,-3,-2,-1,-2,-2
1514896549844668,-2,-4,0,-1,-1,-1,0,-1
1514896549844668,-1,-2,0,-1,-2,-1,-1,0
1514896549845669,0,0,-2,0,-1,0,-1,-2
1514896549845669,-2,1,-1,-1,0,-1,-1,0
1514896549867172,0,-1,0,1,-1,-1,-2,0
1514896549867172,-2,-2,0,0,-1,-2,-1,1
1514896549868173,-1,0,-2,-3,1,-1,0,-1
1514896549868173,0,0,0,-2,-3,-2,-2,-2
1514896549890689,-1,-1,-1,-1,-1,1,-1,-1
1514896549890689,0,-1,0,0,0,-2,0,0
1514896549891189,-1,1,0,-2,0,-3,-2,-2
1514896549891189,-2,0,-3,-2,0,-1,-1,0
1514896549904702,0,1,-1,-2,-1,-1,1,0
1514896549904702,-2,-2,0,-3,-2,-1,-2,-2
1514896549905717,-2,1,-3,-1,-1,0,-2,-1
1514896549905717,0,-1,-1,-1,-2,-1,0,-1
1514896549927214,0,-2,-1,-1,-1,-1,-2,-1
1514896549927214,-1,-3,-2,-1,-1,0,-2,-3
1514896549929228,-2,0,-2,-1,-2,-1,0,0
1514896549929228,-1,-2,-1,0,0,-2,0,-1
1514896549942237,0,-2,-1,-2,0,-2,-1,-2
1514896549942237,0,-1,-1,-1,-2,-1,-2,0
1514896549943238,0,0,2,-1,-1,-1,-2,-2
1514896549943238,-1,-1,-2,0,-1,0,2,-2
1514896549964741,-1,-2,-2,-2,-2,-2,-2,-1
1514896549964741,0,-3,1,-1,-3,0,-1,-3
1514896549965757,0,-1,0,-1,0,-1,0,-1
1514896549965757,-1,0,-1,-1,-1,-1,-2,0
1514896549987257,-1,-2,0,0,-1,1,-1,-2
1514896549987257,-1,-2,0,-1,-1,0,-1,0
1514896549988257,1,-1,-2,-2,-3,1,-2,1
1514896549988257,-1,0,-1,-1,-1,-1,-1,0
1514896550002768,-2,0,-2,0,0,-1,-1,-1
1514896550002768,-3,1,-1,-1,-1,-2,0,0
1514896550004770,-2,0,0,0,-2,-2,-1,-1
1514896550004770,0,-3,-2,-1,-1,-4,-2,-1
1514896550033296,-2,-1,-1,-2,0,-1,-2,-1
1514896550033296,-1,-1,-1,0,0,-2,0,-1
1514896550034803,-3,-2,-1,-1,-2,-1,0,0
1514896550034803,-1,0,-1,0,-2,0,-1,-2
1514896550047299,-1,-2,-2,-1,0,0,0,0
1514896550047299,-2,-3,-1,-2,0,0,-2,-1
1514896550048302,-1,1,-2,-2,-1,0,0,-1
1514896550048302,-1,1,-1,-2,-1,-1,-1,-2
1514896550062322,0,-3,-2,-1,-2,-3,0,1
1514896550062322,-2,-2,-1,0,-1,-1,-1,-2
1514896550063323,1,-2,-3,0,-1,-2,-3,-2
1514896550063323,-2,-2,-1,-1,-1,-2,-1,-1
1514896550084826,0,0,0,-1,0,-2,0,0
1514896550084826,-2,-1,-3,-1,-2,0,-2,-2
1514896550085827,-2,-3,-1,1,-1,-3,-2,0
1514896550085827,0,-1,-2,-1,-2,-1,-3,0
1514896550107352,-1,-4,-2,-2,-2,-1,-1,-3
1514896550107352,0,-2,1,-2,-1,-2,-1,0
1514896550108352,-1,1,0,-1,-1,0,0,-1
1514896550108352,-1,0,-1,-1,-1,-1,-1,-1
1514896550122367,0,-3,-1,-1,-2,-1,-1,-2
1514896550122367,-1,-2,-2,-1,0,-1,-2,-1
1514896550123353,-1,0,-2,-1,-1,-2,0,-1
1514896550123353,0,-1,0,-2,-1,0,-2,-2
1514896550152874,-1,-2,-4,-1,-1,1,-1,-1
1514896550152874,-2,-2,-2,-1,-1,0,-2,0
1514896550153876,-1,1,-2,-2,-2,-1,-1,-1
1514896550153876,0,-1,-1,0,0,-1,1,-2
1514896550167885,-1,-1,-1,0,-1,-2,-2,-1
1514896550167885,0,-2,-2,-2,1,0,-1,0
1514896550168886,-1,0,-1,-2,0,-3,-2,-1
1514896550168886,-2,0,0,-1,-2,-2,-2,-1
1514896550182905,-1,-2,-1,-3,0,-2,-1,-1
1514896550182905,0,-1,-2,-1,-2,-3,-1,-1
1514896550184396,0,0,0,-2,-3,-2,-1,-1
1514896550184396,-1,-3,-2,-2,-2,-3,-1,-2
1514896550204912,-2,-1,-1,-1,0,1,-1,-1
1514896550204912,-2,-1,-3,0,-1,1,-1,0
1514896550205914,-1,0,-1,-2,-1,-1,0,-1
1514896550205914,0,0,-1,-2,-1,1,0,-1
1514896550227939,1,-1,0,0,-1,-1,-1,-1
1514896550227939,-2,0,-2,-1,-1,-1,0,-1
1514896550228940,-1,-2,-1,-2,-1,-1,-2,-2
1514896550228940,-1,0,-2,-2,-2,-2,0,-1
1514896550242437,-1,-1,-1,-1,-1,0,-1,-1
1514896550242437,0,0,-1,-1,0,-1,-1,-2
1514896550242939,-2,-1,-2,0,1,1,-1,-1
1514896550242939,-1,0,-2,-1,-1,-1,0,-2
1514896550264954,-1,-3,0,-2,-1,-1,-1,-1
1514896550264954,-1,-2,-2,0,-3,-1,0,1
1514896550265454,-1,0,-2,-1,-1,0,0,-1
1514896550265454,0,-3,-1,-1,-1,-1,-2,1
1514896550287971,-1,-3,-1,-2,0,0,-1,-2
1514896550287971,-1,-2,-1,-1,-1,-2,-2,-1
1514896550289981,-1,-1,-2,-3,-1,0,1,-2
1514896550289981,0,-1,-2,-3,-1,-1,-2,0
1514896550310485,0,0,0,-1,-3,-2,0,-1
1514896550310485,-1,-3,0,-2,-1,0,-2,-1
1514896550311486,-1,-2,0,1,0,-1,-3,0
1514896550311486,-2,-1,0,-1,-1,1,-1,-1
1514896550324996,-2,-1,-1,0,-2,0,-1,0
1514896550324996,-1,0,-1,-1,0,1,1,-1
1514896550325497,0,0,-1,-2,0,-2,-1,-3
1514896550325497,-1,0,-1,-1,0,-1,-1,-2
1514896550348012,-2,-2,-2,-2,0,0,-1,-1
1514896550348012,-2,0,-1,-1,-2,0,0,1
1514896550348513,-1,0,-2,0,-2,-1,-1,0
1514896550348513,-2,-2,-1,0,0,0,-2,0
1514896550362034,-1,-1,-3,0,-2,0,-2,-3
1514896550362034,0,-2,-1,-1,-3,-2,-1,1
1514896550363023,0,-1,-1,-2,-1,-1,1,-2
1514896550363023,-2,0,-1,-1,0,0,0,-1
1514896550384550,-2,-3,-1,-1,-1,-1,0,-1
1514896550384550,0,2,0,0,-1,-1,0,-1
1514896550385538,-1,0,-1,-1,-2,-1,-1,1
1514896550385538,-1,-1,-2,-1,-1,-2,1,0
1514896550408067,-3,-2,-1,-1,0,1,-1,-1
1514896550408067,-2,-1,-1,-3,0,-1,-2,-1
1514896550408555,-3,1,0,0,0,-1,0,-1
1514896550408555,-1,0,0,0,0,0,-1,0
1514896550430580,0,-1,-2,-2,0,-1,-1,-1
1514896550430580,0,-3,-2,-1,0,-1,-1,-1
1514896550431076,-2,-2,-1,-1,-1,-2,0,-1
1514896550431076,-1,-1,-1,-2,0,0,0,0
1514896550444590,-1,-2,1,-2,-1,0,0,1
1514896550444590,-2,-2,-2,0,-1,0,-2,-2
1514896550445590,-1,0,-1,-1,-2,0,-1,-1
1514896550445590,0,-1,-1,0,-2,-2,-1,-1
1514896550468099,0,-1,-1,-3,-2,-2,-2,-2
1514896550468099,0,2,-1,1,0,-1,0,-1
1514896550468599,1,-1,-2,0,-2,-2,-2,0
1514896550468599,0,-2,-2,-3,-2,-2,-2,0
1514896550481616,-2,-1,0,-1,-1,0,-1,-2
1514896550481616,0,0,-1,-1,-3,0,-1,-2
1514896550489612,-2,0,-1,-1,-1,-2,-2,-2
1514896550489612,-1,-1,-1,0,-2,0,-1,-2
1514896550505141,-2,-3,-2,0,1,0,0,0
1514896550505141,-1,-1,0,-1,1,0,1,-1
1514896550506126,-2,0,-1,0,-1,0,1,-1
1514896550506126,0,-2,-1,0,-2,-4,-1,-2
1514896550528139,-1,-1,-1,0,0,-2,0,-1
1514896550528139,-2,-2,-1,0,-3,-2,-2,0
1514896550529641,0,-1,0,-3,-1,0,-1,0
1514896550529641,-1,-1,-2,-1,-2,-2,0,-2
1514896550541650,-1,-2,-1,0,0,-2,0,0
1514896550541650,-1,-2,-1,0,-1,-1,0,-3
1514896550549655,-2,-1,-1,-3,-1,-1,1,-2
1514896550549655,-1,-1,-1,0,-2,-1,-1,0
1514896550564665,0,-2,-1,0,-1,-3,0,-1
1514896550564665,0,-1,-1,-2,1,-2,-1,-1
1514896550565666,0,-1,-2,0,-1,0,-2,-1
1514896550565666,-2,-2,-2,-2,0,0,0,-1
1514896550591183,0,-2,-2,-1,-3,0,-1,0
1514896550591183,-1,-2,-1,-2,-2,-1,-1,0
1514896550592184,-1,-1,-2,-1,-2,-1,-2,-2
1514896550592184,-1,-1,-2,-2,-2,-1,-2,-1
1514896550602692,0,-1,-2,-2,-1,-2,-2,-2
1514896550602692,0,-2,0,-1,-1,0,-1,-2
1514896550609697,-1,-1,-3,-2,-2,-2,-1,0
1514896550609697,0,-2,-1,-1,-1,-3,-3,-1
1514896550633214,-2,-2,-1,-3,-1,-2,-1,-1
1514896550633214,-2,-2,-1,-1,0,-1,-2,-2
1514896550634730,-2,-1,0,-2,-1,1,-1,-3
1514896550634730,0,-2,0,1,-1,-1,-1,0
1514896550648224,-1,-2,0,1,-1,-1,-1,0
1514896550648224,-2,-1,0,0,0,0,-1,0
1514896550648724,0,0,0,-1,-1,0,0,0
1514896550648724,-3,-1,-2,-2,0,0,0,-1
1514896550661746,-1,-1,-3,-1,-1,1,-1,-3
1514896550661746,-1,-1,-2,-1,-1,0,0,-1
1514896550669740,0,-1,-2,0,-1,-2,-1,-1
1514896550669740,-1,-1,-1,-2,0,-1,0,-2
1514896550685751,-1,-2,0,0,-1,-1,-1,-1
1514896550685751,-2,1,-2,1,-2,-2,-1,-2
1514896550686251,-1,-1,-1,-1,1,0,0,-1
1514896550686251,-1,-2,-1,-1,0,0,-1,-1
1514896550707766,-2,0,1,-1,-3,-1,-2,-1
1514896550707766,-1,0,-1,-1,-2,-2,-1,-2
1514896550708767,-1,0,0,0,0,-1,0,-2
1514896550708767,0,-1,1,-1,-1,-1,1,0
1514896550721791,1,-3,-1,-3,-1,-1,1,-1
1514896550721791,-2,-2,-1,-2,0,-1,0,1
1514896550729791,-1,0,-1,-1,-1,-2,-2,1
1514896550729791,-1,-5,-1,-2,0,-1,-3,-2
1514896550744793,-3,-2,-2,-2,-1,-1,-1,-3
1514896550744793,-1,-2,-1,0,0,1,-2,0
1514896550745793,0,2,-1,-1,-2,-2,-1,0
1514896550745793,1,0,-1,0,1,0,-1,2
1514896550767812,-1,-2,-1,-1,-2,1,1,-1
1514896550767812,-2,-1,-2,-3,-3,-2,-3,0
1514896550768809,1,0,-2,3,6,1,1,0
1514896550768809,3,0,-1,8,-5,-2,-1,0
1514896550790825,0,1,0,-9,2,0,0,-2
1514896550790825,-2,-4,-3,1,1,-1,0,-1
1514896550791825,-2,-2,0,-4,-5,-3,-2,-3
1514896550791825,-7,-4,-1,-1,2,-2,-2,-1
1514896550805338,6,7,4,4,-8,-4,-3,0
1514896550805338,-8,-17,-8,2,8,0,-1,-3
1514896550805839,-2,-13,-5,-4,-1,-1,-2,-3
1514896550805839,6,-9,0,5,4,2,2,0
1514896550827351,3,9,-3,-6,-3,-3,0,2
1514896550827351,4,8,3,-2,-5,-1,-1,1
1514896550828361,-7,-5,0,0,-2,-1,-3,0
1514896550828361,3,13,0,-5,-3,-3,0,-2
1514896550850369,4,6,1,7,4,2,1,2
1514896550850369,-9,-6,-3,-6,-5,-1,-2,-2
1514896550851368,-7,-15,-4,-3,0,-1,-3,-1
1514896550851368,-4,-5,0,-6,-4,-1,0,1
1514896550864889,4,6,-4,3,1,-1,-1,-2
1514896550864889,1,3,-2,-2,-4,-3,-2,-2
1514896550865377,1,9,3,3,0,2,2,-1
1514896550865377,-4,3,-2,-2,1,-1,0,4
1514896550888395,-15,-20,-6,4,-1,-4,-6,-11
1514896550888395,-5,-2,0,-18,-4,0,1,6
1514896550888897,14,21,3,0,1,2,1,2
1514896550888897,-8,-7,1,0,0,0,-2,-9
1514896550918915,1,-10,-6,-3,1,-1,-1,-1
1514896550918915,-4,-4,2,6,-2,-3,-4,-13
1514896550920916,29,31,4,1,0,2,5,17
1514896550920916,7,-19,-1,-9,-3,-1,-1,-3
1514896550925921,-6,-7,-7,1,-1,-2,-1,0
1514896550925921,4,-2,-3,-12,-4,-2,-3,-2
1514896550926921,16,15,0,15,2,2,-1,-2
1514896550926921,-17,12,4,-8,-2,-2,-3,-3
1514896550947966,-8,-25,-2,-10,-4,-3,-2,6
1514896550947966,74,51,3,12,0,-3,0,6
1514896550948967,2,4,-13,-30,1,2,3,5
1514896550948967,-52,-59,0,34,-1,-3,-9,-21
1514896550970483,4,15,-1,-19,-5,-2,-6,-9
1514896550970483,-44,-19,-8,-8,-4,-4,-4,-7
1514896550971484,6,-26,8,3,-1,-2,4,7
1514896550971484,-5,17,-20,0,-1,-2,-2,-11
1514896550992507,-23,-43,1,-9,-3,-3,0,19
1514896550992507,1,34,15,10,5,4,6,-2
1514896550993499,-16,-5,-2,4,-3,-3,-13,-35
1514896550993499,17,-4,-18,-38,-7,-4,-4,3
1514896551008009,9,32,8,25,4,3,3,3
1514896551008009,3,15,2,-10,0,0,0,2
1514896551008509,-2,-34,-3,14,-2,-3,8,19
1514896551008509,-3,6,3,-13,-3,-2,2,15
1514896551031025,10,-29,-3,-1,1,-1,-14,-43
1514896551031025,9,8,2,-3,1,3,-4,3
1514896551033029,4,-18,-9,-3,-4,-6,-7,-8
1514896551033029,-4,2,-1,2,-4,-3,0,6
1514896551044535,0,25,-1,-5,0,-1,3,8
1514896551044535,-23,-13,6,16,3,5,13,15
1514896551045536,-11,-22,-4,-6,-4,-5,-1,8
1514896551045536,6,31,1,1,-3,-1,-4,-17
1514896551068051,-8,3,9,4,1,-1,9,15
1514896551068051,6,-13,-14,-2,-1,-3,-4,1
1514896551069052,20,52,3,0,1,0,-10,13
1514896551069052,-34,18,9,16,3,3,-1,16
1514896551090567,-11,-71,-6,-12,-1,-1,8,-17
1514896551090567,-24,-19,-13,-2,-6,-6,-10,-26
1514896551091068,-10,3,-7,4,-4,-2,9,1
1514896551091068,14,7,0,-10,1,1,-10,-6
1514896551104577,21,54,12,6,2,-1,4,32
1514896551104577,-34,-50,-2,-4,0,-2,-14,-50
1514896551105585,7,17,8,11,-2,-2,-4,-3
1514896551105585,1,1,2,-8,0,-2,4,15
1514896551131099,-12,-17,-8,1,-3,1,12,23
1514896551131099,62,62,20,6,2,2,7,13
1514896551132597,-35,-23,-30,-2,-5,-4,-9,35
1514896551132597,10,-11,-13,-7,-2,-3,-8,-60
1514896551150610,14,25,1,-3,-2,1,-8,-13
1514896551150610,-1,-13,-2,0,0,0,3,19
1514896551151111,-7,9,47,5,4,5,8,-3
1514896551151111,20,-37,2,8,0,-4,-14,8
1514896551165129,-16,29,-29,-4,-1,1,1,-23
1514896551165129,26,22,16,0,2,4,3,-1
1514896551166130,2,23,-10,4,1,-1,0,3
1514896551166130,-43,-66,-9,-30,-3,-5,-6,-39
1514896551189638,25,15,19,10,3,2,7,15
1514896551189638,-10,11,23,13,3,1,-6,2
1514896551190638,7,20,-31,-14,-4,-3,5,3
1514896551190638,24,13,29,25,8,7,17,-2
1514896551210652,5,8,-34,-6,-5,-5,-14,-7
1514896551210652,-12,-10,-8,-11,-5,-7,3,-5
1514896551211153,-37,-42,25,14,1,-2,-2,-36
1514896551211153,47,-22,-23,-4,-2,2,10,71
1514896551224662,-22,-25,-33,-45,-19,-9,-4,18
1514896551224662,-5,22,11,37,0,-3,-4,-55
1514896551225663,1,-9,15,6,-1,2,-5,-19
1514896551225663,1,-29,37,-22,16,8,1,-7
1514896551248179,-18,-19,-17,-28,-16,-4,8,49
1514896551248179,-19,-82,-39,1,-4,-5,13,74
1514896551248679,-1,41,3,0,-4,-4,-23,-94
1514896551248679,-9,56,-8,21,-3,-6,9,44
1514896551269701,-59,-62,50,2,12,2,-11,-61
1514896551269701,2,-21,8,-4,-3,1,-4,-3
1514896551277199,43,44,29,1,-8,-5,11,78
1514896551277199,17,10,-69,1,-6,0,10,21
1514896551284706,0,31,19,4,0,-4,-24,-102
1514896551284706,-5,-47,25,-6,-2,-7,-14,37
1514896551285707,-7,24,52,31,21,11,19,33
1514896551285707,34,43,-45,-3,-2,5,8,-19
1514896551310227,23,-50,-32,-22,-7,-2,5,55
1514896551310227,46,54,-31,-2,1,-1,-3,-10
1514896551310723,-8,-36,-8,-30,-7,0,9,15
1514896551310723,-41,24,81,29,6,1,-1,23
1514896551330237,40,20,3,26,0,-3,-24,-66
1514896551330237,-11,23,15,-31,-2,0,6,51
1514896551332238,-32,-61,-30,1,2,0,-16,-25
1514896551332238,5,19,-8,-37,-18,-9,3,31
1514896551344747,-7,35,29,16,6,0,1,-36
1514896551344747,-31,-16,-20,-6,-4,-5,-12,-29
1514896551345748,-24,10,60,5,-3,-5,-8,-9
1514896551345748,13,-98,-31,15,-1,-1,-8,-29
1514896551367763,1,-14,11,3,4,5,20,59
1514896551367763,7,67,56,13,3,2,3,-4
1514896551368776,1,-8,-40,-41,-7,-2,-14,-35
1514896551368776,-6,-9,4,6,-3,-6,-11,26
1514896551390789,-2,-35,-61,-12,-7,-6,-3,13
1514896551390789,-15,7,-10,12,5,2,11,-32
1514896551391795,5,-7,-8,6,1,0,8,11
1514896551391795,5,8,31,-1,0,-1,-4,-13
1514896551404290,-42,-11,43,28,5,1,8,35
1514896551404290,9,2,-66,-20,2,4,-13,-46
1514896551411795,7,0,10,-12,-7,-1,0,-24
1514896551411795,45,12,-27,-18,-1,-2,0,-8
1514896551427806,17,37,-28,7,3,4,13,25
1514896551427806,8,-9,62,28,3,1,7,34
1514896551428831,-29,-39,-87,-18,-2,-4,2,13
1514896551428831,4,11,5,0,-6,-2,-10,-26
1514896551450332,41,24,37,11,6,2,3,44
1514896551450332,-17,-17,-10,-4,-6,-5,-11,37
1514896551451333,10,46,22,-4,14,3,2,-17
1514896551451333,-1,12,-5,1,-5,0,-11,-23
1514896551472850,-17,-74,-101,-13,-5,-2,-6,11
1514896551472850,8,1,-8,-6,-8,2,4,-45
1514896551473850,-1,-16,52,6,-2,-3,4,34
1514896551473850,23,27,5,0,1,3,11,-32
1514896551488851,-35,-30,35,18,5,3,-8,27
1514896551488851,-8,19,-8,-22,-12,-10,-14,-46
1514896551489849,1,-43,-42,-1,-5,-5,-10,15
1514896551489849,-16,23,57,1,3,4,6,-26
1514896551510373,14,66,-3,4,0,-1,-1,14
1514896551510373,-8,2,24,-5,-1,2,2,4
1514896551511375,26,2,-36,-26,-4,1,-5,-55
1514896551511375,-66,-66,-71,-14,-15,-15,-5,-25
1514896551524374,5,7,24,-1,1,-4,-14,-24
1514896551524374,-4,-1,-35,-6,2,4,24,19
1514896551532379,15,10,19,11,-6,-3,1,-18
1514896551532379,-5,9,8,0,4,0,5,28
1514896551555896,-3,-17,-20,2,-4,-8,-5,-42
1514896551555896,23,22,-11,-25,0,-1,3,24
1514896551556897,1,-13,4,5,1,1,4,11
1514896551556897,-4,11,40,7,3,5,14,44
1514896551571907,21,2,-3,1,2,2,0,-21
1514896551571907,-31,-41,11,8,-2,-3,-14,10
1514896551572908,0,34,-25,-6,-2,-4,8,7
1514896551572908,-9,10,-15,-3,-8,-11,-24,19
1514896551600427,27,46,33,7,7,7,7,-53
1514896551600427,13,-60,-41,-17,-7,-3,-25,-15
1514896551601431,19,-5,16,5,1,3,8,21
1514896551601431,-9,34,7,9,1,-2,6,26
1514896551607949,-15,-20,4,6,3,1,-6,-17
1514896551607949,-6,1,6,0,0,-1,13,-3
1514896551608933,14,15,-20,-3,-4,-5,-24,-3
1514896551608933,-5,-40,-8,-14,-2,2,3,-2
1514896551630449,10,6,13,-2,-2,-1,9,17
1514896551630449,-3,13,-13,3,0,-4,-3,4
1514896551631449,22,-11,-32,2,-3,-2,9,-4
1514896551631449,5,-2,10,15,3,3,12,21
1514896551643958,-1,-3,6,-22,-6,-3,-15,-32
1514896551643958,16,20,61,24,4,-1,-16,9
1514896551652464,-9,29,-30,-12,-5,-4,-2,-32
1514896551652464,-22,-28,-36,11,6,-1,-2,-10
1514896551675482,-12,-12,-4,-23,-4,-1,-12,-10
1514896551675482,-12,8,1,2,1,3,13,15
1514896551676982,13,1,-19,0,0,0,-9,10
1514896551676982,-16,3,56,4,0,4,4,-6
1514896551697997,0,20,0,8,-2,-3,8,31
1514896551697997,-42,-28,-19,-14,-1,-4,-12,-35
1514896551699498,-14,24,56,-1,-2,1,-2,8
1514896551699498,21,14,-48,8,2,-2,5,9
1514896551705002,2,35,27,-13,-2,0,11,31
1514896551705002,-4,-20,-3,14,2,-2,-6,24
1514896551720512,-36,-31,-3,-16,-5,-8,-23,-60
1514896551720512,2,-27,-39,2,2,0,-1,4
1514896551727018,19,-12,-36,-6,-5,-3,-12,-20
1514896551727018,-58,4,32,7,-1,0,5,-16
1514896551734022,10,3,5,13,4,0,3,6
1514896551734022,-40,-26,-23,-31,-14,-9,-29,-27
1514896551750543,8,12,-14,5,1,-2,23,38
1514896551750543,14,2,8,7,1,1,5,9
1514896551752045,-8,1,55,24,6,3,8,-18
1514896551752045,-3,-14,-16,-6,-2,-2,-20,-19
1514896551773050,5,-13,-41,-13,1,2,19,46
1514896551773050,19,16,5,-5,-8,-9,-33,-60
1514896551774550,-32,-17,-9,-5,1,1,11,58
1514896551774550,30,7,34,16,1,2,0,-37
1514896551787560,23,11,17,-22,-6,-1,-2,-19
1514896551787560,-12,-18,-113,-9,1,0,4,13
1514896551794064,-30,24,21,-1,0,-2,-2,-2
1514896551794064,50,8,18,19,5,4,4,5
1514896551810601,-43,-19,43,8,-2,0,-9,-4
1514896551810601,4,10,-15,-7,-4,0,18,-6
1514896551812087,21,8,39,0,-8,-5,-10,14
1514896551812087,-1,-42,-48,-15,2,1,4,-7
1514896551833592,-49,16,39,24,2,0,-17,-32
1514896551833592,-1,-30,-41,-27,-1,4,20,89
1514896551835095,27,-11,-14,8,-1,-3,-26,-77
1514896551835095,-17,49,53,0,-1,-1,6,52
1514896551847112,70,-21,-41,-20,-4,-2,-1,-10
1514896551847112,-30,-14,73,8,-2,-3,-11,-39
1514896551854107,4,6,-81,-11,0,1,15,30
1514896551854107,-33,-4,41,7,0,0,-1,-1
1514896551878138,-7,-32,-16,-23,-8,-4,12,41
1514896551878138,2,27,42,7,-3,-6,-23,-79
1514896551881630,3,-11,-3,1,3,4,12,9
1514896551881630,-15,-5,-3,-9,-3,-2,-3,-8
1514896551892634,-12,-3,72,40,11,2,-6,-17
1514896551892634,17,-2,-42,-8,-3,-3,9,19
1514896551894636,-17,-23,-6,-5,-3,-3,-13,5
1514896551894636,-1,2,-50,-23,-8,-7,-19,-10
1514896551907145,19,10,40,1,0,1,27,24
1514896551907145,-16,3,30,18,1,1,0,-9
1514896551914150,24,46,89,37,11,7,6,4
1514896551914150,-32,-41,-81,-28,-11,-7,-9,-44
1514896551930673,6,35,-59,-16,-7,-3,-5,-9
1514896551930673,12,-42,39,12,7,5,14,9
1514896551932176,-14,26,-38,-4,1,0,14,37
1514896551932176,20,-1,109,19,5,8,19,18
1514896551960682,-27,-1,-40,9,3,-1,-29,-34
1514896551960682,89,20,-18,-19,-10,-2,18,73
1514896551962184,0,-1,43,-15,-1,-4,-21,-29
1514896551962184,-7,16,-16,19,2,-7,-3,-1
1514896551967199,-24,-1,32,-5,0,3,-5,-25
1514896551967199,21,23,-35,6,0,-3,5,17
1514896551975695,-5,-49,-29,-12,-7,-2,5,1
1514896551975695,-31,-11,66,-47,-4,0,31,50
1514896551990708,15,39,19,67,12,1,-11,19
1514896551990708,-17,-33,2,-53,-14,-14,-45,-116
1514896551992706,34,42,57,24,2,5,23,43
1514896551992706,-36,-49,-103,-64,-1,8,29,53
1514896552013225,-16,-6,62,20,-4,-6,-33,-70
1514896552013225,-48,12,-42,-17,-2,-2,5,21
1514896552014721,49,-9,-67,16,-8,-8,15,40
1514896552014721,5,30,63,34,8,0,-20,-16
1514896552027732,-42,-78,-59,-22,-7,-3,15,-35
1514896552027732,38,45,58,49,16,9,-6,-36
1514896552034254,-23,-30,-68,-81,-17,-9,-1,20
1514896552034254,16,33,57,38,1,0,-2,-22
1514896552051264,-32,-38,-80,-47,-1,-3,3,34
1514896552051264,0,-26,23,4,-4,-2,2,-16
1514896552052749,-43,-26,-35,-1,-4,0,11,-7
1514896552052749,50,10,3,23,2,4,12,27
1514896552081270,43,-3,63,25,-1,-1,-11,-8
1514896552081270,-1,15,16,-26,0,3,9,34
1514896552082770,-17,10,-38,30,7,-5,-7,-24
1514896552082770,14,25,43,-31,-9,-5,-20,-41
1514896552087272,-1,-50,-49,6,2,5,7,43
1514896552087272,6,40,-18,-2,2,3,10,14
1514896552111289,29,55,75,34,10,4,-12,28
1514896552111289,-12,-50,-102,-17,-6,-3,-17,-23
1514896552111790,32,30,1,-18,-4,2,11,-2
1514896552111790,27,-16,17,6,0,-1,16,20
1514896552113290,1,-2,8,-26,-13,-3,4,39
1514896552113290,22,49,29,72,14,9,-7,17
1514896552133304,33,6,-20,-70,-5,-3,8,4
1514896552133304,-34,11,-39,-10,-7,-5,-39,-18
1514896552134807,-36,-24,51,-9,3,2,-9,-16
1514896552134807,30,2,5,30,0,-4,-1,-29
1514896552147316,-4,-22,-73,-17,-13,-9,10,-15
1514896552147316,-20,11,36,26,4,0,-1,34
1514896552154320,-16,-30,-69,-31,-11,-7,2,-34
1514896552154320,-19,0,33,2,3,-4,-8,-20
1514896552169330,8,48,31,20,0,1,4,86
1514896552169330,20,-46,-7,-6,-4,-2,9,-23
1514896552178338,-42,-43,12,0,-7,-10,-34,-35
1514896552178338,-5,-29,-65,-34,3,9,15,-24
1514896552192848,-9,45,82,17,5,2,8,45
1514896552192848,-4,-1,12,21,7,1,-7,24
1514896552194850,-1,-6,-67,-16,-6,0,7,44
1514896552194850,89,26,40,7,-4,-3,0,-9
1514896552207360,-57,-44,-58,25,0,-5,-24,-20
1514896552207360,18,27,33,-12,-6,-2,-2,-14
1514896552213861,-6,15,60,7,12,8,18,39
1514896552213861,-4,34,-26,-11,-8,-6,-23,-98
1514896552230873,-15,-38,-57,-2,1,-3,-1,61
1514896552230873,-30,1,65,11,-3,-2,1,-64
1514896552232376,60,-33,-95,-11,0,0,1,-12
1514896552232376,-21,16,26,-3,-7,-9,-3,47
1514896552253389,-24,-66,7,5,-1,2,5,-57
1514896552253389,2,22,-25,-3,-1,-4,9,50
1514896552255391,-6,46,61,9,4,2,15,9
1514896552255391,-32,-44,-86,-40,-6,-6,-10,-46
1514896552266408,-5,32,66,7,-1,-3,-14,-60
1514896552266408,-15,-8,-59,-1,-2,3,14,38
1514896552283412,37,16,50,17,3,-1,-12,-9
1514896552283412,-61,-25,-3,-2,0,1,7,-27
1514896552290920,-12,25,62,13,4,1,-7,43
1514896552290920,-17,-20,-100,-11,-11,-6,-6,-3
1514896552292919,2,35,15,-16,2,4,9,-38
1514896552292919,7,-4,-7,-4,-3,-8,-20,-5
1514896552312933,-36,-6,9,-4,2,2,13,-19
1514896552312933,29,-28,15,-8,4,7,5,22
1514896552314433,22,32,-29,29,2,3,-4,-15
1514896552314433,-16,-49,30,10,5,4,26,24
1514896552326944,-29,3,20,6,-3,-4,-10,5
1514896552326944,43,16,-33,-53,-10,-3,-13,26
1514896552335950,-4,-51,-48,5,0,-2,-6,2
1514896552335950,35,62,18,14,6,5,20,36
1514896552350960,-58,-37,2,-10,-9,-10,-19,-33
1514896552350960,48,49,10,23,12,9,13,-9
1514896552352462,8,43,22,-15,-7,-4,-6,-11
1514896552352462,-2,-49,17,-19,-5,-2,-5,19
1514896552372974,56,33,-40,19,2,3,7,-8
1514896552372974,-72,-20,0,17,0,-1,22,-13
1514896552388988,-5,26,34,23,2,-2,-27,-75
1514896552388988,-5,13,63,-17,-3,-3,-5,38
1514896552389989,2,-71,-39,-30,0,-3,-14,-73
1514896552389989,44,25,-61,-14,-9,-7,-8,20
1514896552395491,-63,-122,-44,5,-8,-11,-8,4
1514896552395491,-1,8,-10,12,1,-2,10,74
1514896552410506,29,40,37,-10,-1,0,-16,-75
1514896552410506,11,-45,7,-4,-3,-7,-9,15
1514896552412004,-18,-6,50,11,10,6,13,-2
1514896552412004,-15,-26,-91,-18,-13,-2,-2,28
1514896552440525,19,16,37,33,7,1,-10,-5
1514896552440525,-41,-6,-57,-48,-8,-6,-3,-25
1514896552442023,-5,-82,1,-11,-3,-6,-23,-21
1514896552442023,5,8,18,3,5,8,4,23
1514896552455533,20,64,12,0,2,3,17,15
1514896552455533,-10,-26,1,11,1,-4,-9,-58
1514896552457035,-1,19,-15,-23,-12,-5,-4,-19
1514896552457035,-14,-1,-41,30,4,-2,-13,-31
1514896552471546,28,-11,10,-16,2,2,20,80
1514896552471546,10,22,11,24,-3,0,-12,-24
1514896552474045,-10,29,-2,-13,2,1,11,20
1514896552474045,22,21,-19,8,2,-3,-21,-21
1514896552507068,-24,17,49,11,-6,-6,-8,5
1514896552507068,-3,-49,-41,-13,1,0,12,29
1514896552517585,5,58,14,2,-6,-4,8,31
1514896552517585,-41,-16,89,-5,-5,-5,-31,-65
1514896552518577,44,-36,-112,-4,5,5,5,5
1514896552518577,-25,13,70,25,0,-4,-4,35
1514896552521580,33,42,-92,-18,-5,0,-6,-32
1514896552521580,0,7,58,8,6,0,2,40
1514896552530598,18,-8,-81,-29,-15,-9,13,27
1514896552530598,-15,-11,45,0,-3,-3,-26,-30
1514896552532098,-20,-2,34,-6,1,7,19,34
1514896552532098,37,-28,-56,7,3,2,0,-76
1514896552553100,-31,9,15,25,-3,0,29,78
1514896552553100,24,30,12,-26,1,1,-2,-10
1514896552554601,-28,-27,-21,7,0,-7,-14,-7
1514896552554601,40,33,50,-22,-6,-2,12,12
1514896552566610,-70,-43,-29,-11,-6,-7,-12,-42
1514896552566610,-17,26,6,10,-4,-3,10,-6
1514896552583122,6,-11,12,-12,-2,1,-1,8
1514896552583122,-7,3,-8,17,-2,-1,18,102
1514896552591140,23,42,2,-13,3,-1,-33,-37
1514896552591140,-29,-26,-8,-25,-8,-8,-19,-52
1514896552593639,18,-8,13,14,3,1,-18,-24
1514896552593639,-17,-2,-43,-21,-2,2,5,8
1514896552612653,-10,14,31,-1,-1,-2,-3,-4
1514896552612653,4,-7,-2,5,0,3,25,40
1514896552614654,-10,-19,-86,-22,-4,-7,-40,-64
1514896552614654,50,-17,24,28,-1,-3,-6,-15
1514896552637160,-9,32,22,22,4,0,-12,-14
1514896552637160,-34,-7,-31,-32,-4,1,27,41
1514896552641664,-28,19,63,37,6,1,-6,-33
1514896552641664,-23,-21,-65,-60,-13,-7,-20,-60
1514896552665681,-13,1,58,7,-1,0,-6,-28
1514896552665681,15,9,8,38,4,-2,-19,16
1514896552668198,28,-21,-13,-10,-7,-6,1,33
1514896552668198,-13,10,-19,-29,-2,-2,-4,-33
1514896552673196,80,-27,-36,-2,5,11,56,119
1514896552673196,-23,4,33,34,11,4,-16,-33
1514896552674696,14,9,17,-16,-8,-8,-3,-48
1514896552674696,54,24,38,54,13,11,26,41
1514896552695702,0,34,9,-49,-7,-1,-12,-6
1514896552695702,-7,-75,-3,-3,-4,-2,-1,-1
1514896552697215,-7,-7,16,16,5,0,0,-2
1514896552697215,-45,-13,-16,-4,-3,0,5,11
1514896552717716,-13,10,-25,-4,-7,-8,-3,-48
1514896552717716,-3,41,33,16,5,1,-5,-9
1514896552719718,-52,9,28,-2,1,3,15,10
1514896552719718,32,-12,-4,1,-2,-1,-11,29
1514896552733228,8,-14,-36,-8,3,0,-11,-45
1514896552733228,17,38,11,-41,-10,-2,-2,-43
1514896552734729,-12,-16,-6,13,4,3,19,3
1514896552734729,-17,-37,40,12,-4,-5,-16,-32
1514896552756245,31,-14,-12,9,4,3,3,-4
1514896552756245,16,31,-42,-4,-3,-2,4,24
1514896552757245,-13,-25,40,10,-2,0,14,6
1514896552757245,-18,0,-20,-3,6,3,5,-26
1514896552770758,25,38,50,-16,-5,-4,0,30
1514896552770758,-26,-28,-46,7,4,-1,-10,-14
1514896552773256,43,3,-11,24,5,1,19,127
1514896552773256,-2,-16,8,-38,-10,-8,-9,-19
1514896552792769,-9,5,2,16,4,-1,12,19
1514896552792769,11,-41,6,1,-3,2,-2,0
1514896552794271,3,45,84,33,6,1,-9,3
1514896552794271,-28,-2,-92,-30,-13,-11,-5,-26
1514896552815285,34,-3,33,15,3,8,10,13
1514896552815285,-35,-31,-16,-5,-3,-2,4,6
1514896552816786,-5,-9,25,-9,-2,-2,0,-42
1514896552816786,49,25,-12,12,0,0,14,14
1514896552830296,-49,-22,-35,9,-5,-9,-8,-16
1514896552830296,-3,14,6,12,-2,-1,6,58
1514896552836801,6,-32,-33,-21,-5,-4,-8,-36
1514896552836801,-22,30,12,15,10,5,8,31
1514896552860318,15,-9,-46,-21,-6,-2,-4,-19
1514896552860318,-16,8,14,8,3,-1,8,6
1514896552861819,12,44,17,-12,-1,5,-8,-39
1514896552861819,-30,-1,37,28,6,2,0,25
1514896552875328,-39,-36,-42,-24,-5,-4,-14,-38
1514896552875328,-9,19,17,11,3,-1,-7,-33
1514896552876829,-23,-23,-44,-1,-2,-6,-1,37
1514896552876829,-11,4,42,-12,-6,-3,-10,-30
1514896552890339,-20,-6,0,3,6,3,-1,-24
1514896552890339,29,45,31,-4,-1,0,-7,24
1514896552896843,-15,-33,-29,-20,-5,-3,-1,-10
1514896552896843,22,7,-24,10,-3,1,27,26
1514896552920360,-26,-23,27,10,4,-1,-28,-41
1514896552920360,14,47,57,-26,0,0,5,-16
1514896552921862,11,0,-32,-5,-3,3,-1,63
1514896552921862,-42,-8,9,1,-3,-2,-4,-36
1514896552934370,8,-3,40,29,5,2,0,-3
1514896552934370,17,12,-9,6,5,2,-6,8
1514896552943887,34,-24,-17,-46,-11,-5,2,8
1514896552943887,6,49,-11,-1,0,-1,-16,-25
1514896552949891,5,12,95,30,2,2,12,39
1514896552949891,-13,-22,-64,4,3,-1,6,9
1514896552956386,23,-17,20,8,-6,-9,-9,-2
1514896552956386,7,-47,-55,-15,-5,-2,2,25
1514896552980412,9,42,11,-23,-1,1,3,29
1514896552980412,-3,-18,-4,-18,-7,-4,-12,-36
1514896552989410,-45,30,-59,-20,-1,-3,10,60
1514896552989410,13,-51,45,31,6,-3,-31,-88
1514896552995413,-35,-4,-9,9,-4,-1,5,52
1514896552995413,-16,14,-23,-18,-2,0,-9,-47
1514896552996915,32,-19,-28,17,1,1,6,39
1514896552996915,-54,-39,-8,-15,-5,-3,-1,2
1514896553009923,43,47,-40,-45,-6,-1,5,4
1514896553009923,24,31,85,24,6,0,6,-3
1514896553016428,-31,-41,-55,-1,-4,1,-3,3
1514896553016428,19,39,27,23,5,2,10,-16
1514896553031948,-9,-28,-4,-3,-3,-2,-7,-39
1514896553031948,16,-21,-105,-22,-13,-6,24,55
1514896553040454,-6,9,46,13,10,6,-3,-22
1514896553040454,11,-3,7,-26,-8,-1,2,20
1514896553062971,-17,4,21,24,2,-5,-22,-12
1514896553062971,30,-12,37,15,8,4,5,13
1514896553064472,-5,-17,-23,1,-7,-6,-8,-52
1514896553064472,4,40,27,7,6,2,10,37
1514896553069966,-27,-13,-51,-4,-3,-1,-13,-17
1514896553069966,4,-11,30,23,0,0,4,39
1514896553083986,-7,0,36,-13,2,4,3,-24
1514896553083986,-6,5,-42,-23,-7,-3,13,43
1514896553092982,11,0,25,10,-4,-9,-24,-10
1514896553092982,-38,-7,26,-16,-3,3,1,9
1514896553094494,-21,49,14,-3,1,-1,-8,-32
1514896553094494,3,-7,3,6,-3,-5,-15,-6
1514896553116008,14,-43,39,-11,0,3,24,14
1514896553116008,-11,-16,-113,12,-6,-11,-33,-61
1514896553117509,-8,73,85,-2,4,2,-6,1
1514896553117509,33,-50,-78,-2,-5,-1,5,1
1514896553138023,-15,-2,-22,-12,-3,-4,0,38
1514896553138023,-2,31,45,12,3,3,-5,13
1514896553139539,32,25,61,2,-2,-4,-13,-37
1514896553139539,-7,28,-48,26,9,6,9,0
1514896553153034,3,-11,-17,-42,-8,-5,-6,-20
1514896553153034,23,1,-4,-1,-5,-5,-6,-9
1514896553154541,36,25,16,9,3,6,16,-13
1514896553154541,-5,-29,43,1,-3,-5,-7,16
1514896553175541,15,27,11,18,2,3,24,33
1514896553175541,-2,-23,-27,-21,-5,1,19,7
1514896553178043,7,22,-2,3,-4,-7,-1,-25
1514896553178043,-21,-6,72,4,-2,-2,-3,-12
1514896553190052,12,-8,-82,-1,-1,0,8,-8
1514896553190052,3,-4,-5,1,4,6,16,36
1514896553198058,2,-33,-30,-8,-2,-4,-4,13
1514896553198058,5,21,47,18,3,2,-6,-4
1514896553212079,5,8,-20,-15,-1,0,4,-13
1514896553212079,-2,-18,-14,-23,-3,0,-2,4
1514896553220573,12,12,28,10,3,1,1,24
1514896553220573,-71,6,-9,-10,-5,-4,-8,-27
1514896553235582,-12,-29,-54,-2,-8,-6,-12,2
1514896553235582,5,-1,76,24,10,4,5,-5
1514896553237084,19,-3,-80,-31,-6,-2,7,6
1514896553237084,37,-22,-38,-22,-6,-2,-13,28
1514896553249092,-24,43,53,19,1,1,-8,-40
1514896553249092,-20,-47,-16,-12,-5,-8,-6,-18
1514896553258108,-55,-30,23,10,2,0,17,77
1514896553258108,14,21,-4,1,2,3,-7,-90
1514896553289123,-5,-40,-41,9,-2,-1,11,-3
1514896553289123,20,16,22,-24,-6,-4,-3,48
1514896553292633,-8,-17,-35,20,0,-2,-17,-17
1514896553292633,-4,13,-23,-43,-13,-8,-15,-18
1514896553295635,2,1,36,14,11,5,5,-6
1514896553295635,-40,50,47,21,2,1,2,-2
1514896553297136,2,-7,-44,-4,-4,-1,9,22
1514896553297136,7,7,-26,5,8,5,-1,12
1514896553309144,29,-17,45,47,-2,-3,-12,-2
1514896553309144,12,7,-15,-54,-10,-9,-10,-24
1514896553318151,-5,13,-2,-27,-8,0,-11,-24
1514896553318151,-24,-34,24,43,13,5,4,11
1514896553340670,-2,16,-39,-29,-10,-5,1,1
1514896553340670,22,-22,2,36,9,0,0,10
1514896553342159,-9,-41,-43,1,5,4,3,7
1514896553342159,21,71,73,-12,-14,-3,-2,1
1514896553362682,-10,-18,34,5,5,3,-10,18
1514896553362682,-1,0,33,6,0,-2,6,-30
1514896553364674,-6,-38,-64,9,4,3,2,-10
1514896553364674,40,13,3,-7,-2,0,19,77
1514896553369177,-29,20,17,-12,-2,-6,-16,-58
1514896553369177,-2,17,-42,21,-3,2,15,-8
1514896553378183,13,-15,-4,-54,-8,-5,6,3
1514896553378183,10,-11,5,7,5,1,-6,-17
1514896553393694,-31,0,-27,-9,-13,-8,1,6
1514896553393694,-12,1,9,-18,-1,0,-1,-21
1514896553396209,7,27,50,25,-1,-4,7,-13
1514896553396209,-22,-41,29,-15,-2,-2,-12,-5
1514896553415219,22,12,-26,13,6,3,2,-23
1514896553415219,-11,-8,-34,-1,-4,-2,-9,27
1514896553416711,-9,-5,46,20,-4,-1,2,-1
1514896553416711,-21,0,-60,-66,-7,-5,-2,-1
1514896553429229,-12,3,56,37,12,7,31,34
1514896553429229,11,-34,-52,-20,-5,-6,-14,-14
1514896553437725,-32,0,10,-8,-15,-7,-13,17
1514896553437725,-11,-31,-10,33,4,3,9,-47
1514896553452736,-10,33,21,-9,2,0,4,31
1514896553452736,3,32,47,36,4,6,16,-4
1514896553454238,-23,-23,-65,-37,-6,-7,-20,-15
1514896553454238,-8,8,-11,15,-3,-2,14,27
1514896553475764,65,0,9,-31,-2,-1,-4,80
1514896553475764,-19,19,64,24,2,-4,-29,-84
1514896553478271,16,4,-26,17,2,2,-2,-7
1514896553478271,16,-7,12,6,0,0,-4,16
1514896553490263,-2,14,7,-12,1,3,3,67
1514896553490263,15,15,-14,12,3,-3,-15,-88
1514896553497768,44,-12,9,-9,-2,3,0,-4
1514896553497768,-16,8,-16,6,2,-1,-2,-26
1514896553520784,0,11,5,-27,-6,0,1,-26
1514896553520784,-12,-16,0,7,0,-2,-4,38
1514896553522286,12,12,5,12,-1,-1,-14,-26
1514896553522286,32,12,-58,-10,-3,-4,-8,15
1514896553535307,-17,13,-19,18,-3,-6,-9,-43
1514896553535307,-7,-22,-2,-38,-1,3,23,27
1514896553536797,19,20,53,22,-1,-9,-12,18
1514896553536797,-15,-30,-19,-28,-6,-2,-4,3
1514896553549306,14,19,-15,19,6,4,7,58
1514896553549306,36,-4,-15,-8,-4,1,-12,-42
1514896553557810,-23,6,58,21,13,9,13,11
1514896553557810,9,-1,15,0,-4,-7,-10,-15
1514896553573323,-49,-17,-79,-49,-12,-3,-2,-25
1514896553573323,-14,13,45,23,2,1,23,45
1514896553575323,-2,30,-9,-2,3,3,-2,-23
1514896553575323,-28,-43,6,-17,-8,-4,-10,36
1514896553595337,-5,-22,45,32,3,0,-7,-59
1514896553595337,7,37,-13,14,-4,-10,-11,17
1514896553596839,-9,-1,-5,-37,-9,-6,9,30
1514896553596839,-22,2,2,-14,-2,-1,-6,-34
1514896553617868,21,-29,-27,0,-4,-2,11,10
1514896553617868,-25,-32,-38,-20,-2,4,12,28
1514896553619355,8,-15,53,48,13,4,3,-52
1514896553619355,-12,-10,-47,-29,-10,-8,-8,13
1514896553632863,-27,-24,-10,-6,-4,-4,-9,-33
1514896553632863,18,-14,-30,-4,-3,-4,17,80
1514896553634364,-50,-18,-22,15,-4,-5,-4,-22
1514896553634364,21,41,54,-15,7,7,7,22
1514896553655391,30,-4,38,27,0,-6,-8,-51
1514896553655391,15,25,-17,-57,-9,1,-1,35
1514896553656900,3,-17,-39,-21,0,-1,-3,15
1514896553656900,2,21,1,28,4,3,9,16
1514896553677905,-8,11,85,0,1,-1,-17,-7
1514896553677905,-7,-27,-16,2,6,2,-12,-112
1514896553679421,-17,-53,-62,-32,-10,-3,7,28
1514896553679421,-8,17,16,29,9,0,-4,-37
1514896553693419,6,1,11,-29,-11,-4,-5,26
1514896553693419,-13,15,-22,22,2,-9,-13,-31
1514896553694920,4,9,14,-40,-7,-1,-3,3
1514896553694920,-21,-23,-11,43,-3,-5,-6,-40
1514896553715923,-15,17,-5,21,4,0,2,0
1514896553715923,25,21,26,-23,-4,-4,7,-21
1514896553718942,-16,-12,45,37,2,-3,4,7
1514896553718942,38,11,9,-13,4,4,15,28
1514896553737952,-6,-36,-37,-7,-4,2,-14,-37
1514896553737952,-35,-7,-8,15,5,4,2,35
1514896553739439,1,-6,11,-31,-5,-3,7,31
1514896553739439,-4,-5,35,31,2,-5,-5,-53
1514896553752958,21,2,-45,-20,0,5,6,34
1514896553752958,-19,9,37,-4,-1,-2,7,48
1514896553754460,15,13,14,22,-3,-11,-26,-50
1514896553754460,-18,-9,22,-5,3,8,0,18
1514896553775982,-4,0,-4,-46,-9,-4,8,19
1514896553775982,-19,-6,37,17,0,3,-3,-9
1514896553778482,-5,12,-19,10,4,3,-3,26
1514896553778482,29,10,3,1,-2,-6,-3,-21
1514896553797980,17,28,-13,-5,-2,-4,-2,-6
1514896553797980,22,26,13,1,-2,1,6,18
1514896553799482,-16,-46,-40,1,0,6,-2,-10
1514896553799482,40,-18,14,-5,4,6,22,96
1514896553820509,23,14,5,20,-5,-2,-4,-26
1514896553820509,18,2,-20,-21,-2,-5,-4,11
1514896553822000,-2,-21,9,11,0,-3,-7,-22
1514896553822000,-23,0,-15,-6,0,3,5,32
1514896553835507,-30,-13,-32,-26,-8,-4,1,-12
1514896553835507,23,-2,-17,4,2,5,-11,-20
1514896553837008,-12,10,-3,-4,0,-1,-12,-15
1514896553837008,-8,-19,-47,-6,-4,-2,1,37
1514896553858022,6,38,32,34,11,1,-4,-68
1514896553858022,10,-24,-22,-28,-9,-6,-12,-7
1514896553859523,11,16,16,16,-2,-5,4,1
1514896553859523,-10,-55,-44,-27,-2,-2,-5,-43
1514896553872547,6,14,-4,8,-1,-7,-9,2
1514896553872547,0,-38,7,19,0,0,-2,-7
1514896553879039,12,6,-42,-15,-2,-4,11,34
1514896553879039,10,20,73,16,-4,-6,-5,20
1514896553896051,-15,-3,-31,-2,-1,-3,-18,-14
1514896553896051,8,5,55,11,6,2,-9,-23
1514896553897552,-35,-14,-8,-2,-5,-4,-2,14
1514896553897552,-18,0,-63,-11,-6,-1,-7,-26
1514896553918567,8,-1,28,20,5,6,18,-3
1514896553918567,-15,-22,-31,-5,-7,-8,-19,-18
1514896553920067,7,38,72,18,8,7,8,-9
1514896553920067,-21,-38,-93,-24,-11,-9,-18,-25
1514896553932076,3,10,25,1,3,3,5,23
1514896553932076,-1,-24,-34,-4,-2,-1,2,8
1514896553939081,24,2,-3,-4,-1,0,0,-11
1514896553939081,-54,27,38,5,0,0,14,-19
1514896553955593,14,-15,-37,-15,0,-4,-22,-55
1514896553955593,8,-4,3,7,-3,-1,14,26
1514896553957093,0,2,-4,-2,0,5,2,-9
1514896553957093,55,20,27,5,3,4,1,14
1514896553978624,-42,-27,-1,-19,-4,0,6,41
1514896553978624,4,27,-15,-13,-2,-4,3,-5
1514896553981114,-16,25,24,14,1,2,-1,-72
1514896553981114,11,5,-30,-6,0,0,11,8
1514896553992152,12,-3,-2,2,1,-1,13,26
1514896553992152,-11,-7,-12,7,1,2,-7,6
1514896553999157,-2,-8,13,-2,-7,-2,13,35
1514896553999157,-2,38,48,13,14,5,-23,-44
1514896554023173,-9,6,38,-2,-1,0,9,10
1514896554023173,16,13,6,-3,-6,-5,-4,-12
1514896554024687,0,7,-22,-22,-4,-2,-2,36
1514896554024687,-21,-13,81,7,-2,-2,-8,-29
1514896554038684,6,-24,-62,9,-2,-1,12,38
1514896554038684,-40,-26,-12,-1,1,1,-9,-21
1514896554054695,46,11,31,5,8,7,9,61
1514896554054695,-42,-10,1,-4,-7,-6,10,-28
1514896554055197,13,5,23,29,4,1,-30,-64
1514896554055197,-38,-4,-10,-23,-2,-2,1,7
1514896554059213,3,-2,-7,-10,-7,-5,-11,-39
1514896554059213,23,11,-42,17,5,4,11,51
1514896554075724,-4,-18,-20,-20,-8,-5,-2,15
1514896554075724,32,41,27,23,4,1,1,-30
1514896554077214,-8,-22,2,4,2,1,9,50
1514896554077214,9,17,16,-11,-2,-2,-3,44
1514896554098226,10,-9,19,18,6,3,-5,-45
1514896554098226,15,11,71,-25,-7,-3,-8,4
1514896554101228,-34,-68,-89,-13,-3,-1,1,-17
1514896554101228,16,21,21,-9,-7,-2,3,37
1514896554112236,-7,4,-1,6,2,2,7,44
1514896554112236,-7,-1,7,-4,-3,-5,-8,-55
1514896554118741,3,17,-15,6,-3,-5,-6,-4
1514896554118741,12,23,37,2,-5,-2,5,-12
1514896554143759,-29,-39,-41,-23,-2,0,0,10
1514896554143759,-2,-3,5,23,5,-2,-9,-18
1514896554148762,9,-9,-31,-1,-1,3,7,39
1514896554148762,-27,-22,-19,11,4,2,-21,-70
1514896554157768,5,15,14,8,1,-2,8,9
1514896554157768,-25,-19,-30,5,-1,0,0,8
1514896554159270,-5,12,24,-20,-7,-5,7,-24
1514896554159270,-7,-5,-27,-2,-2,-4,-22,0
1514896554180284,8,7,-8,4,3,1,3,25
1514896554180284,14,9,36,5,5,4,4,-31
1514896554181786,-14,3,34,-2,-1,-1,0,7
1514896554181786,8,-27,-38,7,-2,-1,5,-7
1514896554195807,19,-8,-12,-21,-7,-4,-7,-9
1514896554195807,11,13,2,2,-1,2,-1,3
1514896554197309,13,-15,51,19,8,5,-2,18
1514896554197309,6,-25,-58,-26,-5,-4,-2,-34
1514896554217821,10,4,31,10,3,2,-18,-2
1514896554217821,-44,6,3,3,-1,-3,10,61
1514896554223815,45,8,-17,-15,-4,-2,-21,-54
1514896554223815,-5,1,-12,-15,-5,-6,15,20
1514896554231330,-6,10,15,2,-4,-5,0,11
1514896554231330,-5,5,-20,3,0,4,2,23
1514896554248332,16,-1,8,-9,-5,-3,-3,23
1514896554248332,-19,-10,24,13,6,0,-3,-8
1514896554255339,13,26,-30,-7,-3,-2,9,-9
1514896554255339,-1,-17,7,-11,-7,-4,5,21
1514896554256841,-6,8,2,9,3,-2,-1,15
1514896554256841,12,-33,3,-15,-9,-7,0,12
1514896554277863,-39,12,31,20,9,4,1,-7
1514896554277863,0,-20,3,24,-5,-7,-13,-17
1514896554279365,14,-1,-79,-45,-7,-1,1,-4
1514896554279365,19,23,37,6,1,3,-6,66
1514896554300369,10,3,-30,1,3,1,-5,-51
1514896554300369,16,-14,-13,-7,-4,-5,-2,26
1514896554301870,-51,-33,20,-7,-2,-3,-11,-66
1514896554301870,-27,19,45,40,12,4,1,-26
1514896554315390,3,-19,0,-33,-7,2,7,29
1514896554315390,-8,19,16,15,4,3,10,10
1514896554316890,-32,-24,-37,-6,-2,-3,1,36
1514896554316890,17,17,4,0,3,4,-7,-62
1514896554338396,4,-14,19,18,-2,-7,-9,3
1514896554338396,-37,-1,-65,-17,-4,-5,-10,-19
1514896554341899,16,19,42,10,9,6,1,-9
1514896554341899,-19,12,-18,-8,-9,-6,-12,9
1514896554351418,-55,12,13,6,-3,6,19,19
1514896554351418,16,-10,-21,-35,-5,-1,-6,5
1514896554360415,0,25,42,24,10,0,-2,-17
1514896554360415,5,12,-19,-2,-6,-6,4,46
1514896554375432,-13,-16,11,-2,-4,0,6,-3
1514896554375432,-1,-42,-23,-6,-5,-3,0,-15
1514896554376938,17,21,-17,1,-1,-1,9,7
1514896554376938,-17,10,83,-10,-7,-7,-10,-21
1514896554398438,27,23,-47,-7,-3,-4,0,36
1514896554398438,9,-4,11,9,1,2,14,31
1514896554399939,4,10,-6,9,1,0,-22,-81
1514896554399939,3,-19,3,-24,-3,1,-2,-21
1514896554420464,-16,-9,-19,2,2,1,15,22
1514896554420464,9,-2,0,-2,0,-5,-34,-37
1514896554421968,0,39,4,15,-3,-3,3,-3
1514896554421968,-15,-36,-62,-6,-5,-2,-6,1
1514896554435465,9,12,70,18,11,8,1,34
1514896554435465,15,11,-5,0,4,3,9,-55
1514896554437966,-3,-21,-16,-37,-19,-13,-4,12
1514896554437966,29,4,11,20,6,6,5,3
1514896554458481,4,-16,-17,-16,-3,-6,-13,-14
1514896554458481,3,18,30,21,5,2,9,18
1514896554459982,-2,4,-8,13,-1,-2,-10,3
1514896554459982,12,-9,-18,-16,-3,1,1,-26
1514896554471992,-60,10,23,-17,-10,-8,5,32
1514896554471992,42,35,15,5,4,5,-8,7
1514896554480496,-9,-28,-21,0,1,-4,-2,-54
1514896554480496,-10,-31,-21,-14,-2,2,2,22
1514896554496508,26,4,3,0,0,-2,3,-18
1514896554496508,-3,-29,10,-10,-6,0,-6,10
1514896554501511,-28,-2,7,-8,-4,0,9,18
1514896554501511,12,0,-4,22,4,1,1,4
1514896554525538,-5,-12,-15,-11,-4,-6,-1,31
1514896554525538,-4,8,-20,0,-1,1,4,-32
1514896554527039,11,-20,20,-10,-4,-2,-3,27
1514896554527039,2,2,-19,-3,1,0,9,6
1514896554531542,15,30,-13,7,1,-1,-17,-14
1514896554531542,-40,1,11,-3,-2,-1,-11,-7
1514896554542040,2,-14,-15,1,-2,-2,2,3
1514896554542040,-5,7,28,6,2,-3,9,56
1514896554555551,0,-12,-19,-3,-7,-2,-10,-66
1514896554555551,-11,38,15,-3,1,1,2,-13
1514896554557054,-8,-38,-57,-9,-1,0,-7,0
1514896554557054,-8,16,25,27,5,2,-1,2
1514896554578065,22,14,-19,-22,-3,-5,-10,-16
1514896554578065,-26,-17,-7,-13,-7,-2,6,4
1514896554579566,11,20,19,3,1,2,6,13
1514896554579566,-14,12,44,21,5,1,-5,-24
1514896554600581,19,-37,-48,-17,-11,-7,-3,15
1514896554600581,-17,-3,-35,-8,0,1,7,-53
1514896554602100,-24,-19,59,18,3,-1,-4,19
1514896554602100,-21,8,-14,-28,-6,-5,-12,-30
1514896554623111,18,6,19,8,-3,1,18,10
1514896554623111,-5,-20,-15,-10,3,-1,-2,34
1514896554624603,20,13,28,16,2,0,-7,26
1514896554624603,9,18,-72,-9,-5,-3,-5,-61
1514896554638621,-30,-51,11,-11,-1,-1,2,64
1514896554638621,-21,-25,-22,7,-4,-6,-3,-23
1514896554642111,7,25,29,2,2,0,-13,-32
1514896554642111,18,3,-17,4,2,4,17,38
1514896554660123,8,-4,19,1,0,0,-25,-73
1514896554660123,8,9,-4,22,8,2,13,17
1514896554662124,13,-4,-36,-22,0,2,4,36
1514896554662124,-1,-20,49,10,-4,-4,9,50
1514896554675634,16,33,-41,-1,-6,-2,-7,-11
1514896554675634,-18,3,-10,0,0,2,30,72
1514896554677135,-14,-26,3,3,-2,-3,-9,-55
1514896554677135,27,17,-17,-7,-1,2,0,29
1514896554699151,-25,-4,-35,7,-3,-2,-15,-40
1514896554699151,42,12,56,-20,-6,-4,-10,11
1514896554700652,7,20,-42,2,0,2,14,38
1514896554700652,6,-15,-3,-4,-3,-1,2,-14
1514896554727671,7,17,56,10,3,2,5,-10
1514896554727671,34,-9,-47,4,-1,-2,-8,5
1514896554730673,-33,27,75,6,-2,-2,4,-18
1514896554730673,-19,-58,-103,-21,-8,-2,-12,-5
1514896554735689,-13,13,49,0,2,1,-4,-10
1514896554735689,18,-15,1,9,4,1,0,4
1514896554749197,-11,18,-13,-4,-5,-4,1,10
1514896554749197,-11,17,49,11,5,4,2,-18
1514896554757704,10,-8,-43,-15,-4,-3,21,71
1514896554757704,-6,2,42,-9,-1,-2,-17,-67
1514896554759693,-1,-8,2,22,6,2,7,-6
1514896554759693,0,-1,12,-16,-5,-6,-27,-8
1514896554787755,15,-5,-19,6,3,1,11,39
1514896554787755,-10,-16,6,9,-3,0,-14,-16
1514896554791258,-29,16,-19,-11,6,4,10,21
1514896554791258,-13,-18,13,-4,-7,-1,21,54
1514896554802766,-2,-13,-14,-15,4,-1,-31,-25
1514896554802766,56,17,7,2,-3,-1,6,-4
1514896554806270,-12,-18,-3,9,-2,-3,-8,-16
1514896554806270,-12,13,-27,-21,-5,-3,2,5
1514896554817789,-6,9,26,20,6,4,0,-15
1514896554817789,-1,-1,3,-1,-2,0,16,49
1514896554819277,6,4,25,-14,-4,-4,-18,-48
1514896554819277,21,1,38,14,-1,-2,-11,-40
1514896554841293,32,22,-22,-20,-4,-4,21,50
1514896554841293,-21,-40,-37,-5,-6,-5,-12,-63
1514896554845296,12,2,-6,-5,1,4,7,-13
1514896554845296,-19,1,-5,17,4,2,18,33
1514896554854802,-23,-2,32,1,1,-3,-14,-59
1514896554854802,40,-7,12,-3,-3,0,12,45
1514896554861320,-19,8,2,-6,-3,-4,-15,8
1514896554861320,7,-7,-33,-6,6,2,5,15
1514896554876818,-5,10,36,19,-3,-7,-12,-44
1514896554876818,-27,7,-60,-32,-5,-1,1,6
1514896554885324,23,-44,-12,-3,-4,1,11,22
1514896554885324,-9,-11,-43,-1,1,-4,-18,-11
1514896554899835,-24,-5,20,10,1,2,3,3
1514896554899835,-37,1,-1,11,5,0,0,17
1514896554906339,40,21,35,-2,-6,-4,-5,-4
1514896554906339,8,-38,-17,10,-1,-2,-5,11
1514896554914845,8,20,-18,-6,-3,2,10,17
1514896554914845,-5,2,40,-6,2,0,-9,-73
1514896554921350,-12,10,-33,-7,-1,-2,2,42
1514896554921350,28,15,71,2,0,-3,-7,-32
1514896554937871,-49,-20,-68,-6,-5,-7,-1,-1
1514896554937871,-1,-7,5,2,-4,-2,0,28
1514896554939866,-4,-4,-1,-1,0,-2,-7,-16
1514896554939866,-5,5,-37,-7,-3,-1,1,-11
1514896554960389,12,11,45,14,5,5,2,3
1514896554960389,-19,-1,-11,-21,-10,-8,-8,0
1514896554961879,-11,-15,4,12,4,0,2,-18
1514896554961879,-8,13,18,-30,-7,0,-4,-13
1514896554974387,13,1,0,-2,1,1,6,-1
1514896554974387,-3,3,3,7,-2,-3,-5,7
1514896554981392,6,0,2,6,-2,0,0,2
1514896554981392,2,15,17,7,2,0,0,0
1514896555005913,4,-4,1,-5,-5,-3,-4,-6
1514896555005913,-3,3,-4,7,3,1,0,8
1514896555007924,1,-15,-20,-10,-3,-3,-5,0
1514896555007924,2,9,5,11,3,2,5,-5
1514896555020432,-11,-17,-20,-12,-5,-6,-5,-10
1514896555020432,-2,-6,-2,4,-3,-2,-2,10
1514896555021921,9,4,-4,-12,-2,2,4,-1
1514896555021921,-6,3,7,2,-2,-2,-3,-6
1514896555033939,5,0,10,4,-1,0,-1,-3
1514896555033939,2,2,0,-3,2,0,0,8
1514896555043946,1,-9,-12,-4,-1,-4,-1,-2
1514896555043946,-5,2,-2,2,-2,-1,1,-4
1514896555057957,-1,5,0,-5,1,0,-5,-4
1514896555057957,-3,1,-4,6,2,0,-3,2
1514896555059447,-7,-9,-15,-6,-4,-1,1,-4
1514896555059447,-1,5,3,2,0,0,-2,-4
1514896555080972,3,1,2,-1,-1,0,1,0
1514896555080972,-3,-1,-4,-3,-2,-2,-2,2
1514896555082475,0,-1,-5,-2,0,-1,-1,-3
1514896555082475,1,5,4,1,-1,0,0,2
1514896555093971,-1,-1,-4,-4,0,-3,-1,-4
1514896555093971,-1,3,-3,1,-3,-2,0,1
1514896555102980,-3,-6,-5,-4,-2,0,-1,-2
1514896555102980,-3,-2,-3,1,-3,-4,-2,-4
1514896555117988,2,-3,-4,-4,-1,1,1,-1
1514896555117988,-3,-5,3,0,-4,0,-3,0
1514896555119489,1,-2,6,6,4,0,0,0
1514896555119489,-2,-3,-8,-4,0,0,-2,-4
1514896555143006,2,-3,1,0,0,-1,-1,2
1514896555143006,-1,-6,-2,0,-4,0,-2,0
1514896555146509,1,-3,1,-2,-4,-1,-2,1
1514896555146509,-1,-1,0,3,2,-1,1,-1
1514896555171028,-4,-10,3,-3,0,-2,-1,-2
1514896555171028,0,-3,-6,-2,0,-1,-1,0
1514896555173529,-1,-4,-1,-3,-2,0,-1,-2
1514896555173529,-2,-2,7,0,-2,-3,-1,-2
1514896555178031,0,1,-6,-1,-1,0,3,3
1514896555178031,1,7,-11,-1,4,0,-6,-13
1514896555179532,1,-3,21,4,-2,-2,-1,0
1514896555179532,-2,1,-51,-3,-1,0,-2,-2
1514896555208052,-3,5,10,-1,-4,-1,2,1
1514896555208052,5,-10,-2,-2,-1,0,2,6
1514896555209563,0,-1,-5,-4,-1,0,-1,0
1514896555209563,-2,-5,13,0,0,-5,-2,-2
1514896555214066,1,-2,-6,12,-3,-4,-3,-1
1514896555214066,-7,3,-2,-9,1,0,1,1
1514896555230568,0,0,-6,-3,-2,-2,-1,-2
1514896555230568,7,7,10,3,-1,0,1,4
1514896555238074,-6,-11,-10,-2,0,-3,0,-4
1514896555238074,4,1,6,6,0,-3,-2,0
1514896555239575,-13,-9,-7,-1,-3,-1,-2,-6
1514896555239575,-1,1,3,-4,-3,1,0,0
1514896555260611,2,6,8,0,-1,-1,-5,-1
1514896555260611,-1,-2,-4,0,0,0,1,1
1514896555262101,2,-1,-3,-4,-1,-2,-3,-1
1514896555262101,0,7,0,-3,-4,-1,-2,-2
1514896555274109,0,1,2,-5,-1,0,0,-1
1514896555274109,-3,-2,-1,-3,-2,-2,0,0
1514896555284125,2,2,-7,1,1,1,2,1
1514896555284125,-3,-2,7,0,-1,-2,-1,-3
1514896555306126,0,0,-8,-7,-1,-2,-2,-1
1514896555306126,-1,-3,20,7,-3,-3,-1,0
1514896555308124,1,0,1,3,0,1,0,1
1514896555308124,-1,-2,0,-1,1,-1,-1,-2
1514896555320142,-1,-2,-7,-4,-1,-3,-2,-3
1514896555320142,-1,-4,-11,-3,-2,-2,-1,-1
1514896555322144,0,-3,2,1,-1,0,-2,-1
1514896555322144,-4,-6,6,0,0,0,2,0
1514896555334151,1,0,-2,-2,0,0,-2,0
1514896555334151,-2,-3,-1,-1,1,-2,0,0
1514896555345159,-1,-2,1,-1,-1,-1,-2,-2
1514896555345159,-1,-2,-2,-2,1,-2,-2,0
1514896555357665,-2,1,2,-2,-2,-2,-1,1
1514896555357665,-3,1,0,-2,-1,-4,-1,-1
1514896555359660,0,4,-2,0,1,-1,1,0
1514896555359660,-2,3,-1,0,-1,-2,-3,-2
1514896555380174,1,1,3,-2,-1,-1,-3,-1
1514896555380174,-2,-1,-4,0,-2,1,-1,1
1514896555382194,-2,-4,-5,-2,-2,-2,-2,1
1514896555382194,0,-2,2,-1,1,-1,-1,-2
1514896555394184,1,-2,1,-1,1,-1,0,-2
1514896555394184,-1,-3,-2,-1,0,2,0,1
1514896555404190,-2,-4,-1,0,-1,-2,-3,-1
1514896555404190,-2,-1,0,-1,-2,-1,-1,-1
1514896555417700,0,0,0,1,-2,1,0,-2
1514896555417700,-1,4,-5,-2,-2,-2,-2,-1
1514896555419214,-2,-2,0,-1,-2,-1,-1,-1
1514896555419214,0,0,0,-3,-1,0,-1,-1
1514896555441717,2,1,1,-1,-3,-3,-2,-1
1514896555441717,-3,-5,-3,1,0,0,0,0
1514896555445732,-1,-3,-1,0,0,0,-1,-1
1514896555445732,0,2,0,-2,-1,-1,-2,-1
1514896555462733,0,-3,-1,-3,1,1,-2,-1
1514896555462733,-1,-3,-2,-3,-2,-2,0,-1
1514896555464234,-3,-1,-1,-1,0,-2,-1,-3
1514896555464234,-2,-2,-1,0,-2,-1,-1,-1
1514896555477743,0,-1,-2,-2,-1,-1,-1,-1
1514896555477743,-1,-1,-1,-1,-2,-3,-3,-1
1514896555479244,-2,-2,-1,-1,0,0,-2,-1
1514896555479244,-2,0,-2,-3,-2,1,-2,0
1514896555500259,-1,0,-1,-1,-3,-2,0,0
1514896555500259,-2,-3,0,-1,0,-1,-1,-1
1514896555501760,-1,1,-4,-1,0,-2,0,-2
1514896555501760,-1,-2,0,-1,0,-1,-1,0
1514896555523277,-2,-1,-1,0,0,0,-1,-1
1514896555523277,-1,-2,0,-2,-1,-1,0,-3
1514896555524276,0,-1,-1,-1,-2,-3,-1,0
1514896555524276,1,-1,-1,1,0,-1,1,-1
1514896555537785,-2,-1,-1,-1,-1,0,1,-1
1514896555537785,-1,-1,0,-1,-3,-2,-2,-1
1514896555539289,-1,-2,-1,0,1,0,-1,-1
1514896555539289,-2,0,-3,-1,-1,-1,-2,-2
1514896555560301,0,-2,-2,-1,0,-2,0,2
1514896555560301,-1,-2,0,-2,-1,0,-3,0
1514896555561802,0,1,-1,-2,-2,-2,-1,2
1514896555561802,0,-1,0,-2,-1,-1,-1,-1
1514896555582817,-2,-3,-1,-1,0,-1,-2,-3
1514896555582817,-4,-6,1,0,0,0,-1,-2
1514896555584330,-2,-2,0,-1,-2,-1,-2,-1
1514896555584330,-1,5,1,-1,-2,-1,-1,-2
1514896555597840,2,1,-2,-2,-1,1,-1,-1
1514896555597840,-4,-8,0,-2,-1,-1,-1,-1
1514896555599329,0,-2,0,-1,0,0,0,-1
1514896555599329,0,0,1,0,-1,-7,-3,-1
1514896555620343,0,1,0,0,-1,2,4,-1
1514896555620343,2,2,-4,0,0,0,0,1
1514896555621845,1,0,-2,-2,-1,0,-2,-1
1514896555621845,0,-1,-2,-1,-1,0,1,0
1514896555642860,-1,-4,1,-2,-3,-5,-3,-2
1514896555642860,0,-2,-1,0,-2,-2,-2,-3
1514896555644360,-1,-1,0,0,-1,-2,0,0
1514896555644360,-3,0,-2,-1,-1,-3,0,-2
1514896555657371,-2,-2,-2,0,0,0,-2,-1
1514896555657371,-1,0,-1,0,-1,0,1,-1
1514896555663892,-1,0,-1,-1,-2,-1,-2,-2
1514896555663892,-2,-2,-1,-2,-2,-1,-3,1
1514896555680395,-1,-2,-2,-3,0,-1,-3,1
1514896555680395,-1,-1,0,-3,0,-1,-1,0
1514896555681897,-2,-1,-1,0,0,-1,-1,-1
1514896555681897,-1,-1,-1,-1,-1,0,1,-1
1514896555709406,-1,-2,-2,-2,-2,-2,-1,-3
1514896555709406,1,1,-2,0,-3,-2,-3,0
1514896555719414,-2,-2,-1,-1,-1,-1,0,-2
1514896555719414,0,-1,-1,-1,-2,-1,-1,-2
1514896555719914,0,-1,-1,0,-2,-3,-2,-1
1514896555719914,0,1,-3,-1,-1,-1,-2,-1
1514896555723917,-1,-1,0,1,-1,-2,-1,-1
1514896555723917,-1,0,-2,0,-1,-1,0,-1
1514896555741429,-1,1,-1,-2,-2,0,-1,-2
1514896555741429,-1,-1,-2,-2,-1,1,-1,-1
1514896555744932,0,-1,-1,-1,-1,0,0,-1
1514896555744932,0,-1,0,-2,0,-1,-1,-1
1514896555762957,-1,-3,-1,-1,0,-1,-1,-1
1514896555762957,0,-3,-2,-1,0,-2,1,-1
1514896555764445,-1,-3,-1,0,-2,-2,0,-1
1514896555764445,-2,-1,0,-2,-1,0,0,-1
1514896555777467,-1,0,-1,-3,-1,-2,-2,-1
1514896555777467,0,-1,0,-3,1,-1,-1,-1
1514896555783982,-3,0,-1,0,-1,0,-1,-1
1514896555783982,-2,0,0,0,0,-2,-1,-2
1514896555800471,-2,-2,-2,-1,0,-1,0,2
1514896555800471,-2,-5,0,0,0,-1,0,1
1514896555802972,-1,-3,-1,-1,1,-3,-2,-1
1514896555802972,0,-1,-2,0,-1,-1,-2,-1
1514896555823987,0,1,-1,-1,-1,0,-2,-4
1514896555823987,1,1,0,0,-1,1,-1,-2
1514896555827490,0,0,-2,-2,-2,-1,-3,-1
1514896555827490,-1,-2,1,-1,-2,-1,-1,0
1514896555837000,-1,-2,-1,-2,-3,-1,-1,-2
1514896555837000,-2,-1,-2,-1,-1,-2,-3,0
1514896555861013,0,0,0,-1,0,1,-2,0
1514896555861013,-1,-2,-2,-2,0,-3,-2,-2
1514896555862028,-3,-1,-1,-1,-2,-2,-2,1
1514896555862028,-1,-2,-2,-1,-3,-1,-1,-2
1514896555863528,0,0,-1,-1,-2,-2,0,-2
1514896555863528,0,-1,-3,0,-2,-2,1,1
1514896555883545,-1,-1,-1,0,-1,-1,0,-2
1514896555883545,-2,-2,0,-1,-1,-2,-2,0
1514896555887035,1,0,-2,1,1,-2,-2,1
1514896555887035,-1,0,0,0,-1,-1,1,0
1514896555897540,-2,-2,-1,-1,-1,-2,0,-1
1514896555897540,0,-2,-1,-2,0,0,-3,-1
1514896555905045,-2,-1,-2,-2,-2,1,0,-2
1514896555905045,-2,1,-1,-1,-1,-1,-3,-1
1514896555920556,0,-2,0,0,-1,-1,-2,-1
1514896555920556,-1,-2,-1,-1,-1,-1,1,-2
1514896555922571,0,-1,1,-1,0,-2,0,2
1514896555922571,-1,1,-3,0,0,0,-1,-1
1514896555944074,0,-1,-1,-1,0,-1,-1,-2
1514896555944074,0,-1,0,-1,0,0,-1,-2
1514896555946074,-1,-2,-2,-2,-1,-2,-1,-3
1514896555946074,-1,-2,0,-1,-2,-1,-1,-3
1514896555957082,-1,-3,-3,-1,-1,-2,0,0
1514896555957082,-2,-1,-1,-2,-2,-1,-1,-1
1514896555964092,-2,2,-2,-1,-1,-2,-3,-3
1514896555964092,-1,2,0,-2,-2,-1,0,-2
1514896555980098,-2,-2,0,0,-1,-3,-3,1
1514896555980098,-1,-2,-2,-2,-4,0,1,-1
1514896555982100,-1,0,-1,-2,1,-1,-1,0
1514896555982100,-1,-1,-1,0,-2,0,0,-3
1514896556003614,0,-1,-2,-1,-1,-1,-1,-2
1514896556003614,-1,-3,-1,-1,-2,-1,-1,-1
1514896556006117,-2,0,-1,0,0,-1,0,0
1514896556006117,-1,0,-1,-2,-3,-1,1,0
1514896556016623,-1,-2,-2,-2,-2,1,-1,1
1514896556016623,-1,-3,-1,1,-2,-1,-1,-1
1514896556025630,2,0,-1,-2,-2,0,-2,-2
1514896556025630,-1,0,-1,0,-1,-2,-2,0
1514896556040140,-2,-2,-2,-2,-1,-1,-2,-3
1514896556040140,-2,-3,-1,-1,-1,-1,-2,0
1514896556042142,-3,-1,0,-2,-1,0,-1,-2
1514896556042142,0,-1,-3,-2,-1,-1,0,-1
1514896556062656,-1,-2,-2,0,-1,1,-1,-2
1514896556062656,-1,-1,-1,0,-1,-1,0,3
1514896556064657,0,0,-2,0,-1,-1,0,-1
1514896556064657,0,2,-2,-2,0,-1,-2,-3
1514896556076666,-1,0,-2,-1,1,-2,1,-1
1514896556076666,-2,-3,-3,-1,-1,-1,-1,-2
1514896556086673,-1,0,-1,-1,-1,-1,-1,0
1514896556086673,-1,3,-1,0,-2,1,-1,-2
1514896556100190,-1,-2,2,1,-1,0,-1,-2
1514896556100190,-1,-2,0,-1,-2,0,-1,-2
1514896556103685,-1,-2,-2,-1,-1,-1,-2,0
1514896556103685,-1,-1,-2,-2,-1,-1,-1,0
1514896556124204,-2,1,-1,-2,-1,-1,-1,0
1514896556124204,-2,-2,-1,-1,-1,-1,-1,-1
1514896556127702,0,0,-1,1,-2,-1,-1,-1
1514896556127702,-2,-1,-2,0,0,0,-2,-1
1514896556144724,-1,-3,-1,-1,-2,0,0,-3
1514896556144724,-2,-1,0,-1,0,0,0,0
1514896556145214,-1,-2,-1,-3,0,-2,-2,-1
1514896556145214,0,0,-2,-1,-1,0,-1,0
1514896556159737,2,-1,0,-1,-2,-3,-2,0
1514896556159737,-1,-2,-3,0,-1,-1,-1,-1
1514896556160228,-2,1,0,-1,-2,0,-2,-2
1514896556160228,-2,0,-1,-2,0,-1,-1,0
1514896556182259,-2,-1,0,-2,1,0,-1,1
1514896556182259,-2,-2,-3,-2,-1,1,-1,-2
1514896556183764,-1,-2,0,-2,0,-1,-1,0
1514896556183764,-1,0,-1,-3,-1,-2,-2,-1
1514896556204756,0,-1,-1,-1,-1,-1,-2,-1
1514896556204756,0,-2,0,-2,0,-3,-3,-2
1514896556205257,-2,-1,-2,0,-1,-1,-1,-4
1514896556205257,0,-1,-1,-1,-3,-1,0,0
1514896556219767,-1,-2,-2,0,-1,-2,0,-1
1514896556219767,-2,-2,0,-2,-2,0,-1,0
1514896556220268,-1,1,-1,-1,0,-1,-1,-2
1514896556220268,0,-1,-1,-2,-2,-1,1,-2
1514896556242283,-2,-2,-1,0,-1,-2,-1,-1
1514896556242283,0,-1,-3,1,-1,0,-3,-2
1514896556242784,-1,1,-2,2,-1,1,-1,-1
1514896556242784,-1,0,-1,0,-3,-1,-1,0
1514896556264298,-2,1,-1,-2,0,-2,0,-2
1514896556264298,-1,-5,0,-2,-3,-2,-1,-1
1514896556272316,-1,0,-2,-2,-2,-2,0,0
1514896556272316,-2,-1,0,0,0,-2,-1,-1
1514896556279809,-2,-3,1,-3,-2,-1,-1,-2
1514896556279809,0,-1,-1,-2,-1,-2,1,-1
1514896556280309,-1,-2,-2,-1,-1,-2,-1,0
1514896556280309,1,1,-2,-2,-1,0,-1,-3
1514896556302325,0,-3,-2,-1,-2,0,-1,-2
1514896556302325,-2,-1,0,-2,0,-3,-2,-3
1514896556303826,-1,-2,-2,-1,-2,-2,-1,-1
1514896556303826,-1,0,-2,0,0,-2,-1,-1
1514896556324842,0,-1,-2,-1,1,-1,-1,1
1514896556324842,-1,-2,-1,-1,0,-1,-1,-1
1514896556325342,-2,1,0,-3,-1,-1,-1,0
1514896556325342,-1,1,-2,-1,-1,-1,-2,0
1514896556339853,-1,-2,-1,1,0,0,-2,0
1514896556339853,0,-1,-2,1,-1,-1,0,-1
1514896556340353,-2,-1,-1,-1,-1,-3,-1,0
1514896556340353,-2,1,-1,-1,0,0,-2,0
1514896556362367,0,-1,-1,0,0,-1,0,-1
1514896556362367,-2,-4,-1,-1,-1,-1,-1,-2
1514896556362868,-2,0,-1,-1,-2,0,0,-3
1514896556362868,0,1,0,0,0,-1,-1,-1
1514896556384385,-1,-1,-1,-2,-1,-1,0,-1
1514896556384385,-2,-2,0,-2,-2,0,-2,-1
1514896556385384,0,2,0,-2,0,0,-2,-1
1514896556385384,-2,-1,0,-3,-1,-3,0,-2
1514896556399394,-2,-2,-1,1,0,-2,-1,-4
1514896556399394,-2,-3,-1,-1,-1,1,-1,-2
1514896556400395,0,-2,0,0,-1,-1,-3,0
1514896556400395,0,0,-2,-1,-1,-2,-2,-2
1514896556422411,-1,0,-1,-2,-2,0,1,-1
1514896556422411,-1,-4,1,-1,1,0,0,0
1514896556423918,-1,-1,-2,-2,-1,-2,-2,-1
1514896556423918,-1,-1,1,-3,-1,-1,-1,-3
1514896556444936,-1,0,-1,-1,-2,-2,-2,-1
1514896556444936,-1,0,-3,-1,1,0,0,-3
1514896556445936,-1,1,-1,0,-1,-1,0,-1
1514896556445936,-2,0,-1,-1,-3,-1,-2,0
1514896556469454,-1,-2,0,0,-1,-1,-1,0
1514896556469454,0,-2,-1,1,0,-1,0,-1
1514896556470445,0,0,-3,-1,0,-2,-1,-2
1514896556470445,0,-1,-3,1,-1,-2,0,-2
1514896556481955,-1,-1,1,-2,-1,-1,-1,-2
1514896556481955,0,-2,-3,0,0,-4,-2,0
1514896556482953,-1,-1,0,-2,0,-2,1,-1
1514896556482953,-1,1,-1,-2,-1,-1,1,-1
1514896556512983,-2,1,-2,-3,-1,1,-1,1
1514896556512983,-1,-1,-1,-1,-1,-1,-2,0
1514896556513474,0,1,0,-1,1,0,-1,-1
1514896556513474,1,-1,-3,-2,-2,-2,-2,-2
1514896556519479,0,-3,-1,1,-1,-1,0,-1
1514896556519479,0,-3,1,-1,0,-1,-1,0
1514896556520479,-2,-1,0,-1,-1,-1,-2,-1
1514896556520479,-2,0,-2,-1,-2,-1,0,-1
1514896556550501,-1,-2,-1,-1,-1,-1,-2,0
1514896556550501,-3,-3,-2,0,-1,0,0,-2
1514896556551002,1,-2,-3,1,0,-1,2,-3
1514896556551002,-1,0,0,0,0,-1,-1,-1
1514896556565521,-1,-3,-2,0,0,0,-2,0
1514896556565521,-2,-3,-2,-2,0,-1,-2,-2
1514896556566012,-1,-1,-2,-1,-2,0,-1,0
1514896556566012,-1,1,-1,-2,0,-1,-3,-1
1514896556579521,-2,-1,-2,-3,0,-2,-1,-2
1514896556579521,-1,-2,-1,-1,-1,-2,-1,-1
1514896556580522,-2,0,-1,-2,-3,-3,-1,-2
1514896556580522,-1,1,-1,-1,-2,1,-2,-2
1514896556602550,0,-3,-1,0,-1,-2,-1,0
1514896556602550,-2,-1,-1,-2,-1,1,-2,-1
1514896556603548,-1,-1,-1,1,-1,0,-1,-1
1514896556603548,-1,1,0,-2,-2,-2,1,1
1514896556625054,-1,-2,-1,-4,-1,-1,1,0
1514896556625054,-3,-3,-2,0,-1,-1,-2,-2
1514896556626055,0,0,-1,-1,-3,-1,0,0
1514896556626055,1,0,-2,-2,0,1,-2,-1
1514896556639595,-1,-2,-2,0,-1,0,-1,-1
1514896556639595,0,-4,-1,0,-1,-2,-3,0
1514896556640594,-2,0,-1,-1,-2,0,-2,-1
1514896556640594,-1,1,0,0,-1,-3,0,0
1514896556661609,-2,0,-2,-2,-2,-2,-2,0
1514896556661609,-1,-1,-2,0,-4,-2,-2,-2
1514896556669615,-1,-1,-1,-2,-1,-2,-1,-2
1514896556669615,-1,-1,-1,-1,-3,-1,-1,0
1514896556692631,0,-1,-1,-1,-1,1,-1,-1
1514896556692631,0,-2,0,-1,-1,0,0,-1
1514896556693632,-2,0,-2,-2,-1,-2,0,-1
1514896556693632,-1,-2,-2,-1,1,-1,0,-1
1514896556699636,-1,-3,0,-1,0,-1,-3,-3
1514896556699636,-2,-3,-2,0,-1,-2,-1,0
1514896556700636,0,-1,-2,-1,-1,1,-1,-1
1514896556700636,0,0,0,-1,-1,-2,0,-2
1514896556726154,-1,-2,-1,-1,-1,-1,-2,-2
1514896556726154,-1,-2,-1,-2,-2,2,0,1
1514896556727656,-1,-1,-1,1,-1,-1,-3,0
1514896556727656,-2,0,-1,0,-2,-1,0,-2
1514896556745167,-1,-3,-1,0,-1,-2,-1,0
1514896556745167,-1,-2,1,-2,-1,-1,-2,-2
1514896556746168,-2,0,-1,-1,1,-1,-1,-1
1514896556746168,-1,-1,0,-1,-2,1,-1,-3
1514896556759678,-2,-3,-2,-1,-1,-2,-2,-2
1514896556759678,-2,-1,0,1,-1,0,0,0
1514896556760679,-2,-1,-2,0,-1,0,0,-1
1514896556760679,1,2,-1,-1,-2,-2,-1,0
1514896556782209,-1,-2,-2,0,-2,0,1,0
1514896556782209,1,-2,-1,-1,-1,-2,-1,-1
1514896556783696,-1,-1,-2,-1,-1,-2,-1,-2
1514896556783696,-1,1,-1,-2,-1,-2,-1,-2
1514896556805215,-1,0,0,0,-2,0,-1,-1
1514896556805215,-1,-1,-2,0,0,1,0,-1
1514896556806212,0,-1,-1,-2,-2,-2,0,-1
1514896556806212,-1,0,-3,-1,-2,-2,-1,-2
1514896556819221,-3,-2,0,-1,-1,-1,-2,-1
1514896556819221,-1,-2,0,1,-2,0,1,0
1514896556827226,-1,1,-3,-3,0,0,0,-1
1514896556827226,-1,-2,-2,-1,0,-1,0,-1
1514896556842737,1,-1,-2,2,-1,0,0,-1
1514896556842737,0,-3,-2,0,-1,-2,-2,0
1514896556843738,-1,-2,-2,-1,-2,-2,0,-1
1514896556843738,-3,-1,-1,-1,-1,-1,-1,1
1514896556865253,-1,0,-1,0,-1,1,0,-1
1514896556865253,-1,-1,0,-1,0,-2,-1,0
1514896556866253,-1,0,0,-1,-2,-2,-2,0
1514896556866253,-1,-2,-2,-1,-1,0,-1,-1
1514896556879763,-2,-2,1,-1,-1,0,0,-1
1514896556879763,-1,-2,-2,-1,-1,0,-1,-2
1514896556881264,0,-1,-2,0,0,-1,-2,0
1514896556881264,0,0,-3,-2,-1,-1,-1,-1
1514896556902820,-1,-2,-2,-2,-1,-2,-1,-2
1514896556902820,0,-1,-1,-2,0,-1,1,1
1514896556904821,0,1,-1,-1,-2,-1,-2,-2
1514896556904821,-2,0,-1,-1,-1,1,-1,-1
1514896556925327,-1,-2,-2,-1,0,-2,-1,-1
1514896556925327,-1,-1,0,0,0,-1,-2,-2
1514896556926344,-1,-1,-1,-2,-3,-1,-1,-2
1514896556926344,-2,0,-2,-1,-1,-1,0,-1
1514896556939842,-1,-3,-3,-2,-1,-2,-1,1
1514896556939842,-1,-3,-1,-1,-3,-1,-2,0
1514896556940339,-1,-1,-1,-1,-2,0,-2,0
1514896556940339,-2,-1,0,-2,-1,-2,0,-1
1514896556970370,-1,-2,0,-2,-3,-3,-1,-1
1514896556970370,-1,-1,-1,1,-1,-1,-3,-1
1514896556970858,-1,-1,-2,0,0,0,0,-1
1514896556970858,0,-2,-1,-1,0,-2,-2,-1
1514896556985384,0,-2,-1,0,0,-1,-3,-3
1514896556985384,-2,1,0,-1,-1,1,0,-1
1514896556985870,-1,1,-1,-1,-1,-1,-1,-1
1514896556985870,1,0,-1,1,-2,0,-1,-1
1514896556999385,-1,-2,-1,-1,0,-1,-1,0
1514896556999385,-3,-2,0,-1,2,-3,-1,-1
1514896557007888,-2,-1,-1,-2,0,-1,-1,-2
1514896557007888,-1,0,-2,-2,1,-1,-1,-1
1514896557023396,-1,-1,0,-1,0,0,-1,-1
1514896557023396,-3,-2,-3,-2,-2,-2,0,-2
1514896557025399,-1,-1,0,-3,-2,-1,-2,0
1514896557025399,0,0,0,-1,-2,-2,-1,-1
1514896557045414,-1,-2,-2,-2,0,-2,-1,-1
1514896557045414,0,-2,1,0,0,-2,0,-1
1514896557046415,-2,0,-3,-2,-4,-3,-1,0
1514896557046415,-1,-1,-1,-3,-2,-1,-1,-2
1514896557058921,-1,0,-1,0,-2,1,-2,-1
1514896557058921,-1,-1,-3,-1,-2,-1,-1,-1
1514896557067427,0,-1,-1,-2,-2,0,-1,-1
1514896557067427,0,-1,-1,-1,-1,-1,-1,0
1514896557082440,-2,-2,-2,-1,-1,0,-1,-1
1514896557082440,-3,-2,0,-2,-1,1,-1,-1
1514896557082938,-2,1,1,1,1,-1,-2,-2
1514896557082938,-1,0,0,-2,-1,-1,0,0
1514896557105953,0,-2,-2,0,0,-3,0,0
1514896557105953,-2,-3,-2,0,-1,0,-1,-2
1514896557106957,-1,1,-2,-1,-2,1,0,0
1514896557106957,0,-2,-1,0,-1,-2,0,-2
1514896557118963,-1,-2,-1,-1,-1,-2,0,0
1514896557118963,-1,-1,-1,-1,1,0,-2,-2
1514896557127472,-3,0,-3,-1,-1,-2,-2,-1
1514896557127472,-1,-1,-1,-3,-1,0,-2,-3
1514896557143481,-1,0,0,-2,-2,0,-1,-2
1514896557143481,0,1,-2,-1,1,-1,-1,0
1514896557144982,-1,-1,-1,-1,1,-1,0,-1
1514896557144982,-1,-1,-2,1,-2,-2,0,0
1514896557166001,-1,-1,-2,0,-1,-2,-1,-1
1514896557166001,-2,-2,0,-1,0,-1,-2,1
1514896557172001,0,-1,-2,-1,-1,-1,0,-2
1514896557172001,-1,0,0,0,-2,-2,-1,1
1514896557179006,-1,-1,-1,-1,-1,0,0,-1
1514896557179006,-1,0,-1,0,-2,-2,-2,-2
1514896557187014,0,0,-1,-1,0,-1,-1,-2
1514896557187014,-2,-2,-2,-1,0,-2,-2,-1
1514896557203022,-1,-3,1,-1,-1,-1,-1,-1
1514896557203022,-2,-1,-1,-1,-3,-1,-1,1
1514896557205025,-1,-1,-1,-1,0,-2,0,0
1514896557205025,0,-1,-2,-1,-2,-1,-1,-3
1514896557225540,-2,-1,-2,-2,-1,-2,-2,-1
1514896557225540,-1,-1,-1,-1,-1,-1,-2,-2
1514896557226039,-2,-1,0,0,-1,-2,1,-1
1514896557226039,0,-1,-2,0,-1,-1,0,-1
1514896557240049,-2,-1,-1,-1,0,-1,-1,-2
1514896557240049,-1,-1,-2,-1,-1,1,0,-2
1514896557255559,-2,-1,-3,1,-3,-1,-1,0
1514896557255559,-1,0,-3,0,-1,-1,0,-2
1514896557262564,0,-2,0,0,-1,1,1,-3
1514896557262564,0,-2,-2,-1,-1,-1,-1,0
1514896557263065,-1,1,-2,-1,0,-1,-2,-1
1514896557263065,-3,-1,-2,-1,-1,-1,-2,-1
1514896557285081,0,-2,-1,-1,-1,-1,-1,0
1514896557285081,-1,-1,-2,0,-1,1,0,0
1514896557286081,0,-1,0,-2,0,0,-1,0
1514896557286081,-2,-1,-1,-2,0,0,-1,-1
1514896557299092,-1,-1,-1,-2,0,-1,-3,0
1514896557299092,-2,2,-2,-2,-3,-2,-1,-1
1514896557308599,-2,0,-1,0,0,-1,-1,0
1514896557308599,0,-1,0,0,-1,-1,-2,0
1514896557322608,-1,-3,0,-2,-2,-1,-1,-1
1514896557322608,-1,-1,-2,-1,1,-2,-3,-1
1514896557323607,0,0,-1,-2,-1,-1,-1,-2
1514896557323607,-2,-2,-1,-1,-2,-2,-2,0
1514896557345126,-1,-2,-1,0,-2,-3,-1,0
1514896557345126,-2,0,-1,-1,0,0,0,1
1514896557346127,-1,0,-2,0,-3,0,1,-1
1514896557346127,-1,-2,-1,-1,-1,-1,0,0
1514896557359636,-2,-3,-1,-1,0,0,-2,0
1514896557359636,-2,-1,0,-1,-2,-1,-2,0
1514896557367140,1,0,-1,-1,-2,-1,-2,-1
1514896557367140,-1,-1,-2,-1,-2,0,0,-1
1514896557382650,-1,0,-1,0,-2,-2,-1,-2
1514896557382650,1,-1,-2,-2,0,-1,-1,1
1514896557383652,-2,-1,-2,-3,-1,-3,-1,-2
1514896557383652,-1,0,-1,-1,0,-2,-2,-1
1514896557405165,-1,-2,-2,1,-1,-2,-2,-3
1514896557405165,0,-1,-2,-1,-1,-2,0,-1
1514896557406166,-1,1,-2,-1,-1,-1,-2,-2
1514896557406166,-1,0,0,-2,-1,-1,0,-1
1514896557428185,-1,-1,-2,1,-2,-1,-1,-1
1514896557428185,-2,-1,0,1,-1,0,-1,-2
1514896557428683,-2,-2,0,-2,-1,-2,-1,0
1514896557428683,-1,-3,0,-1,-1,-1,0,0
1514896557450197,-2,-2,0,-1,-3,-1,-1,-2
1514896557450197,-2,1,1,-1,-2,-2,-1,-2
1514896557451198,-1,0,-2,1,0,-2,0,0
1514896557451198,-1,-1,-2,0,-2,-1,0,-2
1514896557465207,0,-1,-2,-2,0,0,-2,1
1514896557465207,0,0,-2,0,0,-1,-3,-1
1514896557466208,-2,0,1,0,-3,-1,-2,0
1514896557466208,0,-1,-2,-4,-1,-1,-1,0
1514896557487723,-1,-3,-1,-2,0,1,0,-1
1514896557487723,-3,-1,-2,-1,-2,-1,-1,-1
1514896557489727,-1,-1,-2,-2,0,0,-2,-2
1514896557489727,-3,-2,-1,-1,-1,-1,-2,-1
1514896557502251,-1,0,0,0,0,-3,-2,0
1514896557502251,-1,-1,-1,-2,-1,-1,0,0
1514896557503752,-1,1,-1,-3,-1,0,0,0
1514896557503752,-2,0,-1,-2,-1,-1,-1,-1
1514896557525251,-1,-3,-2,-2,-1,-1,-1,-3
1514896557525251,-2,-1,-1,0,0,-1,0,-1
1514896557526267,-1,0,-1,0,0,-1,0,-4
1514896557526267,0,-2,-1,-1,1,-1,1,-1
1514896557547784,-2,-2,-2,0,-1,-1,-1,0
1514896557547784,0,-1,-2,-1,-1,-1,-1,-1
1514896557548766,-1,-1,0,-2,0,-1,-1,0
1514896557548766,-1,0,-3,-1,-1,-1,-3,-2
1514896557562277,-2,0,-1,-2,-1,2,0,-3
1514896557562277,-2,-1,-1,-1,-1,0,-1,1
1514896557562776,-1,0,-2,-1,-3,-1,-2,0
1514896557562776,0,-2,0,-2,0,-1,-1,-1
1514896557585296,-1,-2,-2,-2,-2,-1,0,0
1514896557585296,2,-1,-1,-2,-2,-2,-2,-2
1514896557586304,-2,-2,0,-1,-1,0,1,-2
1514896557586304,-1,-1,-1,0,-1,-2,-2,-1
1514896557607809,-2,-2,-1,-2,1,-2,-1,-2
1514896557607809,-1,0,0,-1,0,-1,0,0
1514896557608810,0,0,-2,0,0,-3,-1,-1
1514896557608810,-1,-2,-1,-1,-3,-1,-1,-1
1514896557622330,0,-3,0,0,-1,-3,-2,-1
1514896557622330,-2,-1,-1,0,-3,-2,-1,-1
1514896557623820,0,0,0,-1,-2,0,0,0
1514896557623820,-2,-1,1,-1,-1,1,0,0
1514896557645344,0,-2,-1,-2,-1,-2,-1,-1
1514896557645344,-1,1,0,0,-1,0,1,1
1514896557645835,-1,0,-2,0,-1,-1,-1,0
1514896557645835,-2,-1,-1,-1,-2,0,-1,-3
1514896557667874,-2,-3,-2,-2,-3,0,-1,0
1514896557667874,0,-1,-1,-1,-1,-1,-2,-3
1514896557668352,-1,1,-1,-2,0,-2,-1,0
1514896557668352,1,-3,-1,-1,0,-2,1,0
1514896557682362,-2,-3,-2,-1,-2,-2,-2,-1
1514896557682362,-1,-1,-2,0,0,-3,-1,-2
1514896557683362,1,1,-3,0,-1,-2,-1,-1
1514896557683362,-1,-2,-1,-1,-2,-1,-1,-1
1514896557705887,-1,-1,-1,-1,-1,-4,-2,-1
1514896557705887,-1,-1,-1,0,-1,0,-1,0
1514896557706380,-2,-2,-2,-1,-2,-2,-2,-1
1514896557706380,-2,-2,-1,0,-1,-2,-2,0
1514896557727893,0,-3,-4,0,0,0,-1,0
1514896557727893,-1,1,0,-1,-1,-1,-2,-1
1514896557729395,-1,0,-1,0,-2,-2,-1,-1
1514896557729395,-1,-2,-2,-2,0,0,0,-2
1514896557742403,-2,-2,1,1,-1,-1,0,-1
1514896557742403,-1,-1,-2,-1,-1,-2,-1,-1
1514896557743404,-1,-2,-1,0,-1,0,-2,-2
1514896557743404,-1,0,-1,0,-2,0,-1,0
1514896557765428,-2,-3,-2,-1,-2,0,-2,-2
1514896557765428,0,0,0,-1,-1,-2,0,-2
1514896557765920,-1,1,0,0,-2,-1,-1,-1
1514896557765920,-2,-1,-1,1,-1,-1,-1,-1
1514896557788477,-1,-2,-1,-1,0,0,-1,-1
1514896557788477,-1,-1,-3,0,-1,0,-2,-1
1514896557790480,0,0,-1,-1,0,1,-1,-1
1514896557790480,0,-1,0,-3,-2,-2,-2,-2
1514896557810983,0,0,-2,-1,-1,-1,0,0
1514896557810983,-2,-1,-1,1,-2,0,-1,-1
1514896557811484,0,0,-2,-1,0,-2,0,0
1514896557811484,0,-1,-1,-1,-2,-2,-3,0
1514896557824993,-1,0,0,-1,-1,0,-1,-2
1514896557824993,-1,-1,0,-2,-2,-1,-2,-1
1514896557826010,-1,0,-1,-2,-2,0,-2,0
1514896557826010,-2,-3,0,-1,-1,-1,-1,0
1514896557847509,0,-2,-2,-2,-1,0,0,0
1514896557847509,0,-1,-3,1,-1,-2,-1,-2
1514896557848510,-1,0,-1,-1,-1,-2,0,-2
1514896557848510,-1,-2,0,-2,0,-1,-1,-1
1514896557862020,-2,-3,-2,-1,-1,-1,-1,-1
1514896557862020,-1,0,-1,-2,0,-2,-1,1
1514896557863020,-1,0,-2,-2,-2,-2,-2,0
1514896557863020,-1,-2,-2,-1,0,-1,0,-2
1514896557885054,-2,-4,-2,-1,-1,-1,0,0
1514896557885054,0,1,-1,-2,-1,-2,-1,-1
1514896557886039,-1,0,0,-1,0,-2,0,-1
1514896557886039,-1,-2,0,-1,0,-2,1,-1
1514896557908052,-1,-3,-1,-2,-2,-1,-2,0
1514896557908052,-2,-2,-1,-1,-1,0,-1,-1
1514896557908552,-2,0,1,0,-2,-2,-1,-1
1514896557908552,-2,-2,-2,-1,-1,-1,0,0
1514896557922087,-1,-1,-2,0,-1,-2,-3,0
1514896557922087,-1,0,0,-3,-1,1,-2,-1
1514896557929567,1,1,-2,-1,-1,0,0,-2
1514896557929567,-2,-2,-1,-1,-1,-1,-2,0
1514896557945078,-2,-1,-1,1,0,0,-1,-1
1514896557945078,0,-1,0,-2,-2,0,0,-3
1514896557946079,0,0,0,-2,-1,0,0,-2
1514896557946079,0,0,-2,-2,-1,0,-1,-2
1514896557967595,-1,-3,-1,0,-1,-2,1,-1
1514896557967595,0,-1,0,0,-1,-2,0,-1
1514896557968596,-2,-2,-2,-1,-1,-1,0,-1
1514896557968596,-1,-3,-1,-2,-1,-1,0,0
1514896557982105,0,-2,-1,-1,-1,0,-3,-1
1514896557982105,-2,0,-1,-1,-2,0,-3,-1
1514896557983105,-2,0,-3,-3,-1,-2,0,-1
1514896557983105,-1,-1,-2,-1,-1,-2,0,-1
1514896558004632,0,-5,0,-1,-1,-1,-1,0
1514896558004632,-1,-1,0,-1,1,-1,1,1
1514896558012135,-1,1,0,-1,0,1,-3,0
1514896558012135,-1,-3,-2,-1,0,0,-2,-1
1514896558027646,-1,-1,-1,0,-1,-2,0,-1
1514896558027646,-1,0,-1,0,1,1,-1,-1
1514896558028647,-3,1,-2,-1,-2,-2,-1,-1
1514896558028647,0,-2,-2,0,-1,-2,-2,-3
1514896558041646,-1,-2,0,-1,-1,-1,0,0
1514896558041646,-1,-1,-1,-2,-2,-1,-1,0
1514896558049653,0,0,-1,0,-1,-2,-1,-1
1514896558049653,0,-3,0,0,-2,0,-1,-1
1514896558065163,-1,-2,-3,0,-1,-2,1,-1
1514896558065163,-2,0,-1,0,-2,-1,-1,-1
1514896558066163,-1,0,-1,-1,1,0,-2,0
1514896558066163,-1,-2,0,0,-2,-1,0,-3
1514896558087679,-1,-2,-1,-2,-1,1,-1,-4
1514896558087679,-1,0,-1,-1,0,-1,1,-1
1514896558089680,0,-1,0,-2,-1,-1,0,0
1514896558089680,-1,-1,-1,-1,-1,0,0,-1
1514896558101688,-2,-1,0,-1,-1,-1,-3,0
1514896558101688,0,-1,-3,-2,-1,-1,-1,-2
1514896558109695,-1,0,-1,-1,-2,-2,-1,-1
1514896558109695,0,0,0,0,0,-2,1,-2
1514896558133727,-1,-2,-1,-1,-1,0,0,-1
1514896558133727,0,-1,-2,-1,-3,-2,-2,0
1514896558135213,0,0,-2,-1,-1,1,-2,-1
1514896558135213,-1,-1,-1,-1,0,-2,-3,0
1514896558155238,-1,-3,0,0,-1,0,0,-2
1514896558155238,0,-1,-1,1,0,-1,0,-1
1514896558156231,0,-1,0,-1,-2,-2,0,-3
1514896558156231,1,-1,-2,-1,-1,-1,-1,1
1514896558161243,-1,-3,0,-1,-1,-2,-1,-4
1514896558161243,0,0,0,-1,-1,-1,-1,-1
1514896558169737,0,-2,-1,-2,-2,-1,0,-2
1514896558169737,-1,-2,-1,1,-2,-2,-1,-1
1514896558185257,-2,-1,-1,-2,1,-2,-2,0
1514896558185257,-2,0,-4,-1,-3,-1,-2,1
1514896558186259,-2,-1,-2,-1,-1,-2,-2,-1
1514896558186259,-2,-1,0,0,-1,-1,0,0
1514896558206770,-2,-1,0,-1,-1,0,-2,-1
1514896558206770,0,0,0,-2,0,0,-1,-2
1514896558214781,1,2,-2,0,-1,-1,0,-3
1514896558214781,-1,-3,-1,-2,-1,0,-1,1
1514896558221286,-1,-1,0,-2,-1,-1,-2,-1
1514896558221286,-3,-2,-3,-2,0,-1,-3,-1
1514896558229793,-1,1,-3,-1,-1,1,-2,0
1514896558229793,-2,-2,-1,-1,-1,-1,-2,-1
1514896558244789,-1,0,-2,0,-2,0,-1,-1
1514896558244789,0,1,0,0,-1,-1,-1,0
1514896558251294,-2,-1,-1,-2,0,-2,1,-1
1514896558251294,0,-3,-2,-1,-1,0,-2,0
1514896558267811,0,-2,-3,0,2,-1,-1,-1
1514896558267811,0,-2,0,0,-1,-2,-1,-1
1514896558269320,0,1,0,-1,-2,0,0,-1
1514896558269320,-2,-2,0,-1,-1,0,-2,-1
1514896558281816,-2,-3,0,0,-3,-2,-1,0
1514896558281816,0,-1,-1,-2,-2,-2,0,-2
1514896558291323,-2,0,-2,-1,-1,-1,-1,0
1514896558291323,-2,-1,-1,-2,0,0,0,0
1514896558305332,0,-4,-1,0,-1,0,-2,0
1514896558305332,-2,-1,-1,-2,1,0,-3,-1
1514896558311336,0,0,0,-1,0,-1,-2,-1
1514896558311336,0,-1,-2,-1,-1,-2,2,-2
1514896558327848,-1,-2,-2,0,-1,1,-1,-1
1514896558327848,-2,-1,-2,-1,-1,-1,0,0
1514896558337355,-1,-1,-1,-2,-1,-2,-1,-1
1514896558337355,0,-1,-1,-1,-1,-2,-1,-2
1514896558349363,-2,0,-1,-1,-2,-1,-2,-1
1514896558349363,-1,2,-1,0,-1,1,-2,-3
1514896558357870,-2,2,-2,-2,0,-1,1,0
1514896558357870,-2,-3,0,-3,-1,0,-1,1
1514896558365388,1,-4,-2,0,0,0,0,-1
1514896558365388,-1,-2,-1,-1,-1,0,0,0
1514896558366886,0,-1,1,-2,-1,-1,-2,-2
1514896558366886,-2,-2,0,0,1,-1,-2,-2
1514896558387894,-2,-1,1,-2,0,-1,-2,-2
1514896558387894,-1,0,-1,-1,-2,-3,-1,0
1514896558390395,-1,-1,-1,-1,-3,-2,1,1
1514896558390395,-1,-1,-2,-2,-2,0,1,-1
1514896558410416,-3,-3,-1,0,-2,0,-2,0
1514896558410416,-1,0,-1,0,0,-2,-1,0
1514896558411918,-1,0,-2,0,0,-2,-1,-1
1514896558411918,-1,-2,-1,1,-1,-2,-1,-2
1514896558425436,-1,-1,-1,-1,0,-3,0,-1
1514896558425436,-1,0,-1,0,-2,-1,-2,-2
1514896558426928,-1,-1,-3,-1,-1,-2,-2,-1
1514896558426928,-2,-2,-2,0,-4,-1,-1,-1
1514896558447933,-1,-4,0,-1,0,0,-1,-2
1514896558447933,0,-3,0,-2,0,-1,1,-1
1514896558449435,-2,-1,-1,0,-2,-1,-1,0
1514896558449435,-1,-1,-1,-3,0,0,-2,-1
1514896558470449,-3,-3,-1,0,-1,-2,-1,-1
1514896558470449,-1,0,-2,-1,-1,0,1,-3
1514896558472951,0,-1,-1,-3,-2,-1,-1,-1
1514896558472951,-1,-3,-1,-1,-1,-2,-1,-2
1514896558492465,0,-1,0,1,-1,-3,-1,-1
1514896558492465,-2,2,-3,-1,-3,-2,-1,-2
1514896558494466,0,-1,-2,-1,1,-1,0,0
1514896558494466,-1,1,-1,-1,-1,-2,-2,-2
1514896558507992,0,-1,0,1,-1,0,-1,-2
1514896558507992,-2,0,0,-1,-3,-1,0,-1
1514896558509489,-1,0,-1,-1,-2,-1,-1,0
1514896558509489,-2,-2,-1,-1,1,0,-1,0
1514896558531993,-1,-1,-3,-2,-1,-1,0,-1
1514896558531993,-1,-1,-1,-1,-1,-1,-1,1
1514896558535999,-1,0,-1,-1,-1,-3,-2,-1
1514896558535999,-2,-2,-1,-1,-1,-1,0,-1
1514896558552508,0,-1,0,-2,-3,-1,-1,-1
1514896558552508,-1,-1,0,-1,0,-3,-2,-2
1514896558554509,-1,-1,-1,-2,-1,0,-2,-1
1514896558554509,-2,-1,-2,1,-1,-3,-2,1
1514896558567531,-2,-2,-2,-1,-1,-2,-1,-1
1514896558567531,-1,-1,-2,-2,-2,-1,1,-1
1514896558569519,-2,-2,-1,-2,-1,-2,0,-2
1514896558569519,0,-2,0,-1,-1,-1,-1,0
1514896558590036,-2,-2,-2,0,0,0,0,0
1514896558590036,-1,-1,-1,1,-1,-1,-1,-1
1514896558592040,-1,1,-2,0,-1,-1,-1,-1
1514896558592040,-2,-2,0,-1,-2,-1,0,-1
1514896558604544,-1,-1,-1,-3,-2,-2,0,-1
1514896558604544,1,-2,-1,-1,-1,-1,-3,0
1514896558611549,-2,-1,0,-1,0,1,-1,-1
1514896558611549,-2,0,-2,-1,-2,-1,1,-1
1514896558627060,0,-3,0,0,0,-1,-1,1
1514896558627060,-1,-1,-1,-3,-1,0,-1,-1
1514896558641570,-1,-2,-2,-1,-2,0,-2,1
1514896558641570,-1,-1,-1,-1,-1,0,-2,-2
1514896558650077,-1,-3,-1,-1,0,1,0,-2
1514896558650077,-1,0,0,-1,0,-1,-1,-1
1514896558652078,-1,-1,-1,-2,-1,-1,0,-3
1514896558652078,0,-1,-1,-2,-2,-1,-1,-2
1514896558665087,-2,-2,-2,-2,0,-2,0,-1
1514896558665087,0,-2,-2,-1,-1,1,-2,1
1514896558679096,1,-1,-1,-2,-1,-3,-1,-1
1514896558679096,0,-3,-1,-2,-1,-1,-1,-1
1514896558687641,-2,0,-1,0,-1,0,-1,-1
1514896558687641,-2,0,-2,-2,-1,-1,0,-1
1514896558691116,-1,1,0,-1,-1,-1,1,-2
1514896558691116,-1,-3,-1,0,-1,-3,-1,0
1514896558710120,-1,0,0,0,-1,-1,-1,0
1514896558710120,-1,-1,1,-1,0,-2,0,-1
1514896558711621,-2,-1,-3,-1,0,-1,-2,-1
1514896558711621,-1,-2,-1,-2,-1,0,-1,-2
1514896558724628,-1,-1,-1,-1,0,2,0,0
1514896558724628,-1,1,-2,-1,-2,-3,0,-1
1514896558741143,0,-1,0,-1,-2,-1,-2,0
1514896558741143,-2,-3,-1,-1,-1,1,-2,-3
1514896558747646,0,0,-2,-1,0,-1,-3,-1
1514896558747646,0,1,-2,0,-1,-1,-1,0
1514896558749648,0,0,-1,-2,0,-1,-1,-2
1514896558749648,-1,-2,-2,-2,-1,-1,0,1
1514896558770163,-2,-2,-1,-2,-2,0,-1,-1
1514896558770163,0,0,1,-1,0,-2,-1,0
1514896558771672,0,-1,-3,-1,-1,0,-1,-1
1514896558771672,-1,-2,0,0,0,-3,-1,-1
1514896558784671,-1,-2,0,-1,-2,-1,-2,-1
1514896558784671,0,1,-1,-3,0,-1,-1,-1
1514896558791680,-1,-1,0,0,-2,-3,-2,0
1514896558791680,-1,-1,0,-1,-1,-1,-1,-2
1514896558807702,-1,-3,-3,-2,-1,-2,-1,-2
1514896558807702,-4,-2,-2,-1,-1,-2,-1,0
1514896558809189,-2,-1,0,-1,-1,0,-1,-2
1514896558809189,-1,-1,0,-1,-2,-1,-1,-1
1514896558837712,-1,2,-1,1,0,-1,-1,1
1514896558837712,0,-1,-2,-1,-1,-1,0,-1
1514896558839711,-3,-2,-1,-1,-2,-1,-1,-1
1514896558839711,1,0,-2,-2,-2,-1,-3,0
1514896558843725,-2,0,-2,-2,0,-2,-2,-2
1514896558843725,-1,-1,-2,-1,-1,-1,-1,-1
1514896558853220,-1,-2,0,-1,-2,1,-1,-1
1514896558853220,-1,-4,-1,0,0,-2,0,-1
1514896558867740,0,-3,-1,-1,-1,-1,-1,0
1514896558867740,-1,-1,1,-1,-1,0,0,-1
1514896558869241,0,-1,-1,-1,-1,-2,-1,1
1514896558869241,-2,-1,-1,0,-1,0,-2,0
1514896558890247,-2,-1,-1,-1,-1,1,-1,-2
1514896558890247,-1,1,-1,-2,0,0,-1,-1
1514896558891761,-1,-2,-2,-2,0,-1,0,-2
1514896558891761,-2,-2,-1,-2,-2,-1,0,-2
1514896558912780,0,-1,-1,-1,-2,-1,0,0
1514896558912780,-2,0,-2,-1,-1,-1,-1,-2
1514896558914280,-1,-1,-2,0,-1,-1,0,-1
1514896558914280,-1,-1,-2,0,-1,-1,-1,0
1514896558928291,-2,-1,0,-2,-1,-2,-1,-1
1514896558928291,-1,1,-1,-2,-1,-1,-1,-1
1514896558930274,-1,-2,-2,-2,-2,-2,-1,-2
1514896558930274,1,-1,-1,0,-2,-1,-2,-1
1514896558950289,-2,-1,-1,-1,-1,-1,-3,-2
1514896558950289,-1,-1,-2,-1,-1,-1,-3,-1
1514896558952790,0,-2,-2,-2,1,1,-2,-1
1514896558952790,-3,-2,-1,0,-1,0,0,-1
1514896558963797,-1,-1,-1,-1,-1,0,-1,-2
1514896558963797,-1,1,0,-2,-2,-1,0,-2
1514896558973323,-1,0,-1,-2,-2,-2,-2,-1
1514896558973323,-2,-3,-1,-1,0,0,-2,-1
1514896558986837,-2,-1,-2,0,-1,-2,0,-1
1514896558986837,-1,-1,-1,0,-2,-1,0,-1
1514896558995333,0,0,-1,-2,-2,-2,-2,0
1514896558995333,0,-3,-1,-3,-2,0,-1,-1
1514896559010341,0,-1,1,-1,-1,-1,0,-2
1514896559010341,1,-1,0,-1,0,-2,-1,-2
1514896559011842,-1,-1,-1,-1,0,-1,-1,0
1514896559011842,0,-2,-2,-1,0,-1,0,-1
1514896559024342,-2,-1,-1,0,0,-1,0,-2
1514896559024342,-1,-1,-2,0,0,0,0,-1
1514896559048370,-2,-1,0,-1,-2,0,0,-2
1514896559048370,-1,-2,0,-1,0,-1,-1,-1
1514896559049359,0,-2,0,-2,-2,-1,-1,-1
1514896559049359,-2,-1,-2,-1,-1,-1,-1,-1
1514896559050868,-1,-1,-3,0,-1,0,-1,-1
1514896559050868,0,-1,-2,-3,-2,1,-1,0
1514896559070390,-2,0,-1,-1,-1,-1,-2,-1
1514896559070390,-2,-1,-1,-2,-1,-2,-1,0
1514896559071884,-2,-3,-1,-2,0,-2,0,-1
1514896559071884,-1,-2,1,-2,0,-2,0,-1
1514896559083883,0,1,-1,0,-1,1,-1,0
1514896559083883,0,1,-1,0,-3,-1,0,0
1514896559092890,-1,-1,-3,-1,-1,0,-1,0
1514896559092890,0,-2,-3,-1,-1,-2,-1,1
1514896559107902,-1,-1,-1,-2,-2,-1,-3,-1
1514896559107902,0,0,-1,-3,-2,-1,-2,-3
1514896559109401,-1,-1,0,0,-1,-2,-1,-2
1514896559109401,-2,-1,-1,0,-2,-1,-1,-2
1514896559130415,-1,-1,-1,-3,1,-4,1,-2
1514896559130415,0,1,-2,-1,-1,-1,-1,-1
1514896559133932,-1,-2,1,-2,-1,-2,0,-1
1514896559133932,-2,-4,-2,-1,-1,0,0,1
1514896559143925,1,0,-2,0,-1,-1,-1,-1
1514896559143925,0,-1,0,1,-1,-1,-2,1
1514896559152932,-1,-1,0,-2,-1,-1,-2,-1
1514896559152932,0,0,-1,-1,-1,-1,-1,-1
1514896559167955,-3,-1,-1,0,-2,0,0,0
1514896559167955,0,-2,-1,-2,-1,-2,0,-2
1514896559169455,-1,-2,-1,-3,-1,-1,-3,-1
1514896559169455,0,-1,-1,-1,-2,0,-2,-1
1514896559190959,-1,0,-2,0,1,0,0,-1
1514896559190959,-2,-2,-1,-1,0,0,-1,-1
1514896559192460,-2,-3,-1,1,0,-1,-1,-2
1514896559192460,-1,-2,-1,0,-2,1,-2,-1
1514896559204469,-1,-1,-2,0,0,0,-1,-1
1514896559204469,-1,2,-1,0,-3,-3,-1,0
1514896559212985,-2,-1,-3,0,-2,-1,1,-2
1514896559212985,-1,-3,-1,-1,-1,-2,-2,-1
1514896559227484,0,0,-3,0,-4,-1,-2,-2
1514896559227484,0,0,-2,-1,-1,0,0,0
1514896559230000,-1,-1,-2,-3,0,-2,-1,-3
1514896559230000,-1,-1,-1,0,0,-2,0,-2
1514896559250001,0,0,-1,-2,-1,-1,-2,0
1514896559250001,-1,-1,-1,-2,0,1,0,-1
1514896559252001,-1,0,-1,-1,0,-1,1,2
1514896559252001,-3,-1,-1,0,-1,-1,-1,-2
1514896559273017,-2,-2,1,-1,-2,-2,0,1
1514896559273017,0,0,-2,-2,-1,-2,0,-2
1514896559274530,0,-3,-2,0,-3,0,-2,-1
1514896559274530,0,-2,-1,0,-1,-3,-1,-1
1514896559295032,0,-2,-1,-3,-2,-3,-2,-1
1514896559295032,-1,0,-1,-1,-2,-2,-2,0
1514896559297045,-1,0,-2,0,0,-2,-2,-1
1514896559297045,0,-3,-2,0,-1,-1,-1,-2
1514896559310055,-3,1,-1,0,-1,-1,-2,-1
1514896559310055,-1,0,-2,-1,0,-2,0,0
1514896559311543,0,-2,-1,-2,-2,-1,-2,0
1514896559311543,-1,-1,-1,-1,-3,-2,-2,0
1514896559333064,-1,1,-1,-2,-1,-1,-2,-2
1514896559333064,-1,0,-1,-1,-1,0,0,-2
1514896559336561,-2,-3,-1,-1,0,-2,-1,0
1514896559336561,0,-4,-1,0,0,-3,1,-2
1514896559347569,-1,-2,0,-1,-1,-1,0,0
1514896559347569,0,1,0,-2,-1,-1,-3,0
1514896559349583,0,-1,0,0,-1,0,0,-3
1514896559349583,-1,-2,0,-1,0,0,0,-1
1514896559377600,-2,0,-2,0,0,-2,-2,-1
1514896559377600,0,0,-1,-2,-1,0,-1,-2
1514896559379099,0,0,-2,-1,0,-1,-1,0
1514896559379099,-1,-3,-1,-3,0,-2,-1,-1
1514896559392601,-1,0,0,-1,-1,-2,-1,-2
1514896559392601,-1,0,0,0,0,-2,-1,-1
1514896559394602,-1,-1,-2,-2,-2,1,-2,0
1514896559394602,-2,-2,0,-2,-2,-1,-2,-2
1514896559407614,0,-2,-2,-1,-1,0,-1,-1
1514896559407614,-3,1,-1,0,0,-2,0,-1
1514896559409112,-1,-2,-1,-1,-1,-1,0,-1
1514896559409112,-1,-1,-3,-1,0,0,0,0
1514896559430140,-2,-2,0,0,-1,-1,0,0
1514896559430140,-2,-2,-1,-1,-1,0,-2,-2
1514896559432128,-2,-1,-1,0,0,-1,0,0
1514896559432128,-2,-2,0,-1,-1,0,-1,-2
1514896559452655,-2,-1,-1,-1,0,-3,-1,-1
1514896559452655,-2,1,-2,0,-1,-1,-1,-2
1514896559454145,0,-1,-1,-1,-2,0,0,-1
1514896559454145,-1,-1,-1,1,-2,0,-2,-2
1514896559467163,0,1,0,-1,-2,0,1,-1
1514896559467163,0,2,-1,-1,0,0,-1,0
1514896559474171,-1,-3,-2,0,-1,0,-3,-1
