timestamp,emg1,emg2,emg3,emg4,emg5,emg6,emg7,emg8
1517206881918553,-2,-3,-1,1,0,-1,-1,-1
1517206881918553,-2,-2,-1,-1,-1,0,-2,-1
1517206881920053,0,-2,0,1,-4,-2,-1,-1
1517206881920053,-2,-1,-1,-1,-2,1,-3,-1
1517206881941069,-1,-1,-3,-2,-2,-2,0,-1
1517206881941069,-1,0,-1,0,-1,0,-2,0
1517206881942067,-1,-2,0,-2,1,-3,-1,0
1517206881942067,-1,0,0,-1,-1,-1,-1,0
1517206881955078,0,-2,-1,-3,-1,-1,-1,0
1517206881955078,0,-1,-1,-1,-1,0,2,0
1517206881963583,-2,0,-3,-1,-1,-1,-1,-1
1517206881963583,-1,0,-1,-1,-1,-2,0,-1
1517206881979096,0,0,0,-2,-1,0,-1,-1
1517206881979096,-2,1,-2,0,-1,-1,-1,-2
1517206881979595,-2,0,-1,-1,1,-2,-1,-1
1517206881979595,-1,-2,-3,-1,-1,-2,2,0
1517206882001111,-2,-1,-2,-1,-1,-2,-2,0
1517206882001111,-3,-3,2,0,-1,-2,0,0
1517206882002111,-1,0,0,-1,-1,0,-1,-2
1517206882002111,-2,-3,-2,0,-1,-1,0,-1
1517206882014618,-1,-1,-1,-1,0,0,-2,-1
1517206882014618,-1,-2,-2,-2,-1,1,0,-2
1517206882023627,0,-1,-1,-2,0,0,0,-2
1517206882023627,-1,-1,0,-2,-1,0,-2,-1
1517206882038137,-1,1,-4,1,-2,-1,-1,0
1517206882038137,0,0,-2,-3,-1,-1,0,-1
1517206882040139,-1,-2,-2,0,-2,0,-1,-1
1517206882040139,1,0,-2,0,0,-1,-3,-1
1517206882060656,-1,0,-2,-2,0,-2,-1,-1
1517206882060656,-1,-1,-1,-1,0,-2,0,-2
1517206882062152,0,0,-1,-2,0,-2,0,0
1517206882062152,-3,0,-2,-1,-1,-1,-2,-1
1517206882083167,-2,-1,0,-2,-1,-3,0,0
1517206882083167,-1,-2,-1,-3,-2,1,-2,-3
1517206882084668,0,-1,0,-1,-1,0,-1,0
1517206882084668,-1,0,0,-1,0,-2,-2,-2
1517206882098178,-2,-1,-1,-2,-1,-1,-1,-2
1517206882098178,-2,-2,-2,-1,-3,-1,1,0
1517206882099679,-3,-1,-1,-1,0,-2,-3,-2
1517206882099679,0,-1,-2,-1,-2,-2,1,-1
1517206882120695,-2,-4,-1,-1,-1,-1,-3,-1
1517206882120695,-1,-1,-1,-1,-1,-1,-2,0
1517206882122194,-1,-1,-1,-1,-1,-2,0,-1
1517206882122194,-2,-2,-1,0,0,-3,-1,-2
1517206882143711,0,1,1,0,-2,-2,0,0
1517206882143711,0,-2,0,0,-2,0,-1,1
1517206882144710,-1,-2,-1,-1,0,0,-1,-2
1517206882144710,-1,-1,-1,-1,-1,-2,-2,-2
1517206882158224,-1,0,-1,-3,-2,1,-1,0
1517206882158224,0,-1,-1,-1,0,0,0,-1
1517206882160240,0,0,-1,-1,-2,0,-1,-1
1517206882160240,0,-3,-2,0,0,0,0,0
1517206882180737,-1,-3,-1,-2,0,-1,-1,-2
1517206882180737,-2,0,-2,-1,0,-3,-1,-1
1517206882182237,-2,-1,-1,-1,-1,-1,-1,0
1517206882182237,-1,-1,0,-1,-1,-1,-3,0
1517206882203262,-1,-2,-1,0,-1,-1,-1,0
1517206882203262,1,0,-2,-1,-1,-2,0,-1
1517206882204753,-3,1,-2,0,-1,-2,-2,0
1517206882204753,-1,-1,-1,-1,-1,-1,-2,-1
1517206882218267,-2,-1,-1,0,-2,-1,-1,0
1517206882218267,0,-1,0,-2,-1,-1,-1,-1
1517206882224272,-2,0,-2,-2,-1,-2,-1,-1
1517206882224272,-2,0,0,-1,-2,1,-1,-1
1517206882240779,-1,-1,-3,-3,0,0,0,-2
1517206882240779,-1,-1,0,0,0,-1,-1,0
1517206882242282,0,-1,-1,-2,-2,0,1,0
1517206882242282,-2,-2,-1,-1,-1,-2,0,-1
1517206882263294,-2,0,-2,-2,-2,-2,0,-2
1517206882263294,-2,0,-1,-1,-2,-1,-3,-1
1517206882264795,-1,-1,-1,-2,1,-2,-2,-2
1517206882264795,0,-2,-2,-1,0,0,-1,0
1517206882277806,2,-2,-1,-1,-1,0,-2,-2
1517206882277806,-3,-1,-1,-2,-1,-1,0,-2
1517206882284321,-1,-2,-2,0,-1,1,0,0
1517206882284321,-2,0,-1,-1,0,-1,-1,-3
1517206882300831,-1,-1,1,0,-1,-1,-2,-1
1517206882300831,-2,-2,-1,0,-1,-2,-2,-1
1517206882302344,0,-1,-1,-1,0,0,0,-2
1517206882302344,0,-1,0,-1,-1,-2,0,-1
1517206882323337,-1,-1,0,-2,0,-2,1,-2
1517206882323337,0,-2,0,-1,-1,-1,-1,-1
1517206882324838,-1,-1,0,0,-2,-1,-2,0
1517206882324838,-1,0,-3,-2,0,-4,-2,-3
1517206882337347,-1,-2,-1,0,-1,0,-1,0
1517206882337347,2,0,-1,-1,-2,-1,-1,-2
1517206882344352,0,-2,-1,0,-2,-3,0,-2
1517206882344352,0,-1,-1,0,0,1,-1,0
1517206882360868,-2,-4,-1,-3,1,0,0,0
1517206882360868,-1,-1,-2,-2,0,-1,-1,-1
1517206882362378,-3,-1,0,-2,-2,-2,-1,-1
1517206882362378,-1,-1,0,1,0,1,0,-1
1517206882383392,0,1,0,0,-2,-2,-3,-2
1517206882383392,-1,1,-1,0,-1,-1,0,0
1517206882384908,-1,-1,-2,-2,0,-2,-1,-1
1517206882384908,0,0,-2,-2,-3,0,0,1
1517206882397399,-2,0,0,-1,0,1,0,-1
1517206882397399,-1,-4,-1,0,-2,0,-1,-1
1517206882404409,-1,-2,-1,-2,-2,-1,-2,0
1517206882404409,-2,-1,-1,-1,-1,-2,1,-1
1517206882420906,-1,0,-3,-1,-1,-3,0,-1
1517206882420906,-2,0,0,-1,0,0,-1,-2
1517206882422407,-1,-1,-1,-3,0,-1,1,-1
1517206882422407,0,0,-1,-2,-2,0,0,-2
1517206882443423,0,-1,-1,-1,0,0,-1,-1
1517206882443423,0,-1,-3,-1,-2,-2,0,0
1517206882445950,1,-1,-1,0,0,0,-2,-2
1517206882445950,-3,-2,0,-1,-1,0,-1,0
1517206882465437,-1,0,-1,0,-2,0,-1,-1
1517206882465437,-2,0,-2,-2,-1,-2,0,-1
1517206882467451,-3,-2,-2,0,-3,-1,-1,0
1517206882467451,0,-2,-1,-1,-2,-1,-2,-1
1517206882480466,-2,0,-1,-2,-2,-1,-1,2
1517206882480466,1,1,0,-1,0,1,-1,-1
1517206882482462,0,-1,0,-1,-1,-1,-2,0
1517206882482462,-2,-1,-1,-2,-1,-1,-2,-1
1517206882502989,-1,-1,-1,-1,-1,0,-1,-2
1517206882502989,-1,-4,-4,-2,0,-2,-2,1
1517206882504975,-1,1,-1,0,-1,0,-1,-1
1517206882504975,0,-1,1,1,-1,0,-1,-1
1517206882517475,-1,-2,0,0,-1,-2,-1,-1
1517206882517475,-1,-2,0,0,-1,0,0,-2
1517206882524479,-1,-1,0,0,-2,-3,-1,-1
1517206882524479,-2,-3,-2,-1,-1,0,-1,-2
1517206882540992,-1,-2,-1,0,-2,-1,0,0
1517206882540992,-3,0,0,1,-1,-2,-2,-1
1517206882542494,2,1,-2,-1,-2,-2,-1,-2
1517206882542494,-1,-2,-1,-1,-1,-2,-1,-2
1517206882562516,-2,-1,-1,-2,-1,0,0,-1
1517206882562516,-1,-1,-2,-1,-2,0,-1,0
1517206882579018,-3,-3,-2,-2,-2,-1,-1,-1
1517206882579018,1,-2,-1,-1,-1,-5,-1,0
1517206882580020,-1,-2,0,0,-1,-1,-1,-1
1517206882580020,0,-2,0,-1,1,-1,0,-2
1517206882586024,-1,-2,-2,-1,0,-2,-1,0
1517206882586024,-1,-1,-1,-1,-2,0,-1,-2
1517206882600536,-2,-2,-2,-1,-2,-3,0,-1
1517206882600536,0,2,-2,-3,0,-1,0,-1
1517206882602535,-1,-2,0,0,-2,-1,-3,-1
1517206882602535,0,-1,-3,-2,-1,-1,-2,-1
1517206882623071,-1,-2,0,-2,0,-2,-2,-1
1517206882623071,-1,0,0,-1,0,0,-3,-1
1517206882625052,0,0,-1,-1,0,-2,0,-1
1517206882625052,-1,0,0,-1,-3,0,0,-1
1517206882637079,-1,-2,-3,-1,-1,-1,-1,-1
1517206882637079,-2,-1,-1,-1,-1,0,0,-1
1517206882646566,-2,-1,0,-2,-1,-1,0,-1
1517206882646566,-3,0,-1,-2,1,-1,-3,-1
1517206882660578,0,-1,-2,-3,-1,-3,-2,-1
1517206882660578,-1,1,0,-1,-2,-1,-1,-1
1517206882662581,0,-2,-2,-1,-1,0,-1,-1
1517206882662581,-2,-2,-1,0,-2,-2,0,-1
1517206882683093,0,-1,-2,0,-2,-1,-3,-1
1517206882683093,0,-2,-1,-2,-3,-2,-1,-1
1517206882685096,-1,-1,1,-1,-1,-2,0,-1
1517206882685096,0,-1,-1,-1,0,0,-1,0
1517206882697117,-2,-1,-2,0,0,-1,-2,-1
1517206882697117,-2,-2,-1,-1,-1,0,-3,0
1517206882705656,-1,0,-3,-2,0,0,-1,0
1517206882705656,-1,-2,-3,1,0,-1,-1,-2
1517206882720718,-1,-2,-2,-1,-1,1,-1,-1
1517206882720718,-2,-3,-3,-1,-1,-2,-2,-1
1517206882722206,-1,-1,-1,-1,0,0,-1,-2
1517206882722206,-2,-2,0,-1,0,0,-2,0
1517206882743217,0,0,-1,-1,0,-1,-2,-2
1517206882743217,0,-2,-1,1,-1,0,0,-2
1517206882745229,-2,0,-1,-2,-1,-1,0,-3
1517206882745229,-1,0,-1,-2,-2,-2,0,0
1517206882757226,0,-1,-1,-2,-2,-1,-2,-2
1517206882757226,-1,-3,-1,0,-1,-1,-3,0
1517206882765727,-1,-2,-1,0,-2,0,-1,-1
1517206882765727,-1,-1,0,1,0,-1,1,-3
1517206882780530,-1,-3,0,-1,-1,-1,0,-2
1517206882780530,0,0,0,0,-1,-1,0,-1
1517206882782522,-1,-1,0,-2,-2,0,-1,0
1517206882782522,0,0,-2,-2,-1,-2,-2,-1
1517206882803039,-1,-1,-2,1,-1,-3,-1,0
1517206882803039,-3,-1,-2,0,-2,-3,-1,-1
1517206882805037,-1,-1,-1,-1,0,-2,-1,-2
1517206882805037,-1,1,-1,0,-1,0,-1,-1
1517206882817066,-2,-1,0,-2,-1,-2,1,-1
1517206882817066,-2,-1,-3,-2,-1,-1,-1,-1
1517206882826055,-2,-3,-1,-1,0,-1,-2,-2
1517206882826055,0,-1,-2,-2,-2,0,-1,-1
1517206882841064,-1,1,-1,-2,-1,-3,-1,-1
1517206882841064,-2,-1,0,0,0,-2,-1,-3
1517206882842567,-2,-2,-1,-2,-2,-3,-1,0
1517206882842567,-1,-3,-1,-1,-1,-1,-2,-2
1517206882863589,-1,-3,0,-1,-2,1,-1,0
1517206882863589,-1,-1,0,-1,-2,-1,-1,0
1517206882865079,0,0,-2,0,0,-2,-2,0
1517206882865079,-1,-1,-2,-1,-2,-2,-1,-2
1517206882877089,-1,-1,-2,-1,0,-1,-2,0
1517206882877089,-2,-1,-2,-2,-1,-1,-1,-1
1517206882886121,-2,-1,-3,-1,0,1,0,-3
1517206882886121,0,-2,-2,-1,0,-2,1,-1
1517206882900605,-1,-1,0,0,-1,0,0,-1
1517206882900605,-1,-2,0,0,-1,-1,1,0
1517206882902106,-1,0,-1,-2,-1,-3,-3,0
1517206882902106,-1,-1,-2,1,0,-1,-2,-2
1517206882923145,0,0,0,-1,-2,0,-3,-1
1517206882923145,-1,-1,-1,-2,-2,0,-1,-1
1517206882924622,-1,-1,-1,0,-1,-1,-1,-1
1517206882924622,0,-2,0,0,-1,-1,-2,0
1517206882937143,-1,-1,-2,0,-1,0,-2,0
1517206882937143,-1,0,1,1,-2,-2,-1,-3
1517206882946137,-1,-1,-1,0,0,-1,-2,-1
1517206882946137,0,-3,-1,-3,-2,-1,0,0
1517206882960709,-1,-2,-2,-2,-1,-1,0,-1
1517206882960709,0,-1,-3,-2,-1,0,-2,0
1517206882962203,0,0,-2,-2,-2,-1,-1,-1
1517206882962203,-1,-1,-1,-2,-1,-2,-2,0
1517206882983216,1,0,0,0,0,0,0,0
1517206882983216,-1,0,0,-3,-1,-2,-1,0
1517206882984739,-1,0,0,-2,-1,-1,0,0
1517206882984739,-2,0,0,0,-2,0,-1,0
1517206883006285,-3,0,-1,-2,-2,-3,1,-2
1517206883006285,0,-3,-1,-1,-1,-2,-1,-1
1517206883011794,-1,-1,-1,-1,-1,-1,-2,-1
1517206883011794,-2,0,-2,-1,-1,-2,0,0
1517206883020809,0,-1,-1,0,-1,-2,-1,-1
1517206883020809,0,0,-2,-2,0,0,-1,-1
1517206883022295,-1,-2,-1,0,-2,-1,-3,0
1517206883022295,2,0,0,-1,0,1,-1,-1
1517206883042814,-2,2,-1,-1,-1,-1,-1,-1
1517206883042814,-12,-8,-1,0,0,-1,-1,-1
1517206883049506,0,-2,-1,0,-2,0,-1,-3
1517206883049506,-3,-1,0,0,-2,-1,-2,0
1517206883065497,0,-1,-1,1,0,0,-2,-1
1517206883065497,4,3,-2,0,-2,0,-2,-1
1517206883067498,0,-1,0,-2,0,-1,-1,-1
1517206883067498,-2,0,-1,-2,0,-2,-1,-2
1517206883080512,0,0,-2,-3,-1,-1,-2,-2
1517206883080512,-1,-1,-1,-3,-2,-2,-2,-1
1517206883082509,2,0,-1,-1,-1,-1,-1,-1
1517206883082509,1,0,-2,0,0,-1,-1,-1
1517206883103065,-1,-1,-1,-1,-3,-1,0,0
1517206883103065,0,-1,-1,0,-1,-1,0,-1
1517206883105066,-1,-1,-1,-1,1,-1,-1,1
1517206883105066,-1,-2,-1,0,0,-2,-2,-2
1517206883133088,-3,-3,-2,0,-3,-1,-3,-2
1517206883133088,0,0,-1,1,-1,-1,0,0
1517206883135089,-2,-2,-1,-1,-2,-1,-1,-2
1517206883135089,-1,-1,-1,-1,-3,0,-1,0
1517206883140605,-1,-2,-1,-2,-2,-1,-2,-2
1517206883140605,2,0,-2,0,-2,-2,0,0
1517206883142095,-2,-2,-3,0,-1,-1,-1,-2
1517206883142095,-1,-4,-1,0,-2,-1,-3,-1
1517206883163107,-1,-3,0,-2,0,-1,0,0
1517206883163107,-1,-1,-1,0,2,-1,-1,0
1517206883165109,-2,-1,-2,-1,-1,-2,-1,-1
1517206883165109,0,-1,-1,-1,-2,-1,-1,-2
1517206883185645,-2,-2,0,0,0,-1,-1,-1
1517206883185645,-1,-3,-1,-2,-2,0,-2,-2
1517206883187125,-1,-1,-1,-1,-2,-1,-2,-1
1517206883187125,-1,-1,0,-1,-1,-2,0,1
1517206883200150,0,-1,-2,0,-3,-1,0,0
1517206883200150,0,0,-1,-2,-1,-1,0,-2
1517206883207139,-2,-1,-1,-1,-2,-1,-1,0
1517206883207139,0,-1,-1,-1,-1,0,-2,-2
1517206883223173,-2,-1,-1,0,0,-2,1,-1
1517206883223173,-2,-2,-2,-1,-3,-1,-1,0
1517206883225156,-1,-2,0,-1,-2,-3,-1,-1
1517206883225156,-2,-1,-1,-1,0,-1,-1,-2
1517206883246166,0,-1,-2,0,-1,0,-2,-1
1517206883246166,-1,1,-1,-1,-1,0,-1,-2
1517206883248178,0,-2,-1,-2,-1,-2,0,0
1517206883248178,-1,-2,-2,-1,-1,-1,-1,-1
1517206883260176,0,-2,-1,-3,-2,-1,-2,-1
1517206883260176,-2,-1,0,0,-1,1,1,-2
1517206883266691,-1,0,-3,-1,-1,0,-3,0
1517206883266691,-2,-1,-1,-1,-1,-1,-2,-1
1517206883283237,-1,-2,-1,-1,-1,-2,-1,0
1517206883283237,-1,-1,-1,-1,-2,-2,-2,-1
1517206883284739,-2,1,-3,-2,1,-1,-2,-1
1517206883284739,1,1,-1,-2,-1,-1,1,-1
1517206883305753,-3,0,0,-1,-1,1,0,-2
1517206883305753,-1,-1,0,-1,-1,-1,1,-1
1517206883307254,0,-2,1,0,-1,0,0,-1
1517206883307254,-1,0,-3,-2,-1,-1,-2,-1
1517206883319786,-1,-2,-1,1,-2,-1,-2,-2
1517206883319786,-1,-1,-1,-1,-1,-2,-2,-1
1517206883328269,0,0,-1,-2,-2,0,0,-1
1517206883328269,0,-1,-1,0,0,1,0,-1
1517206883343282,0,0,-1,-3,-1,-2,-1,-2
1517206883343282,-1,-2,0,-2,1,-1,-1,-3
1517206883344785,-1,-2,-2,1,-2,-2,-1,-1
1517206883344785,-3,-1,0,-1,0,-2,-1,0
1517206883365796,-3,-1,-2,-1,0,-1,-1,0
1517206883365796,-1,-1,-1,-2,-1,-2,0,0
1517206883367297,-2,-2,-1,-3,-1,-2,-1,0
1517206883367297,-1,-1,-1,0,-2,-1,-1,-1
1517206883380308,0,-1,-1,1,-1,-1,0,-1
1517206883380308,0,-1,-1,-1,-2,-1,-2,-2
1517206883386879,1,-1,0,-2,0,1,1,-1
1517206883386879,-2,-2,0,0,-1,1,-1,-1
1517206883410829,-1,-2,0,-1,1,-1,-1,-1
1517206883410829,0,0,-1,0,-2,0,-2,0
1517206883412330,-1,-1,-1,-1,-1,-1,0,-1
1517206883412330,-2,-1,-1,-2,-1,-1,-1,-1
1517206883425839,0,0,0,0,-1,-2,0,-2
1517206883425839,0,-2,-2,-1,-1,-2,-1,0
1517206883427345,-2,-2,0,0,-1,-1,-2,1
1517206883427345,-1,-1,-1,-3,-3,0,1,-1
1517206883440850,-1,-1,-3,-3,-2,-2,-1,-2
1517206883440850,-1,0,0,-1,-1,0,-2,-1
1517206883446853,0,0,-3,-1,-1,-1,0,-1
1517206883446853,-2,-1,-2,0,-1,-2,1,0
1517206883463364,0,-2,-1,-1,-1,-1,-3,-1
1517206883463364,-1,-2,1,0,-2,-1,0,-2
1517206883464867,-1,0,-1,0,-1,-3,-3,-1
1517206883464867,-1,-2,-2,-1,-1,-2,0,-2
1517206883485880,-1,0,-3,-1,-1,0,-1,0
1517206883485880,-1,0,-1,-1,0,0,1,0
1517206883487382,-1,0,0,0,0,-1,0,-1
1517206883487382,-1,-1,0,0,0,-1,-2,-1
1517206883499405,-1,0,0,0,-1,1,-2,-1
1517206883499405,-3,-2,-2,-1,-1,-2,0,-2
1517206883508397,-1,-1,-1,1,-1,0,1,-1
1517206883508397,-1,-1,-1,1,0,-1,-1,0
1517206883523408,-2,-1,-2,-1,-2,-1,0,-2
1517206883523408,-1,1,0,-1,-1,-1,-1,0
1517206883524908,-2,-1,-1,0,0,0,-1,0
1517206883524908,0,0,-1,-1,0,-1,-2,-2
1517206883545923,-1,-1,-1,-2,-1,-2,-1,1
1517206883545923,-2,-1,-2,-2,-3,-1,0,-2
1517206883547468,-2,-1,-3,-2,-2,0,-2,-2
1517206883547468,0,0,-2,0,0,0,-1,0
1517206883559480,0,-1,-2,0,-1,2,-1,-1
1517206883559480,-1,-1,-1,-2,-1,-3,-2,-1
1517206883568469,-2,-1,0,0,-2,-1,-2,-1
1517206883568469,0,0,-1,-1,-1,-4,-2,0
1517206883583479,-1,0,-2,-2,-1,-2,0,-2
1517206883583479,-1,-1,-2,-1,0,-2,-1,-1
1517206883584997,-1,-2,0,-1,0,-1,-2,-2
1517206883584997,-3,-1,-1,-3,-2,1,-2,0
1517206883605995,-1,-3,0,-2,0,1,0,1
1517206883605995,-1,-2,-1,0,-1,0,-1,-1
1517206883607996,-1,-1,-2,-2,-3,1,-1,-1
1517206883607996,0,-1,0,-1,-2,-2,-2,-1
1517206883619505,1,-1,0,0,-1,-1,-2,1
1517206883619505,0,-3,-1,-1,0,-1,-1,-2
1517206883628511,-3,-3,-2,-3,-2,-1,1,-2
1517206883628511,-2,-3,0,0,1,-2,0,-3
1517206883643023,-1,-2,-2,0,-1,0,-1,1
1517206883643023,-2,-1,-1,0,1,0,-2,-1
1517206883646024,0,-1,0,1,0,-2,-1,-2
1517206883646024,0,-1,-2,0,-2,-1,0,-2
1517206883665549,-1,-1,0,-2,0,-1,-1,-2
1517206883665549,-1,-1,-1,0,0,0,-2,-1
1517206883667038,-1,-1,-3,-1,1,-1,-1,0
1517206883667038,-1,0,-1,-2,-3,0,-1,1
1517206883688068,-1,0,-1,-2,-1,-1,0,-1
1517206883688068,-1,-1,-2,-2,-2,-1,-1,-1
1517206883689554,-1,-2,-2,-2,-1,-1,-1,-2
1517206883689554,-2,-3,-2,-2,-2,-1,-2,1
1517206883703067,-1,0,-1,0,-1,-1,-3,0
1517206883703067,-1,2,-1,-1,-2,0,-1,-2
1517206883704565,2,0,-1,-1,-2,-2,0,0
1517206883704565,-1,-1,-2,-1,1,-2,1,-2
1517206883726081,-2,-3,-1,0,-2,-1,0,-2
1517206883726081,-1,-1,-2,-1,-2,1,-1,1
1517206883727082,-1,1,-1,-1,-1,0,-1,-1
1517206883727082,-2,-1,-1,-1,-1,0,-2,-1
1517206883739092,-2,-3,0,0,-2,-1,0,-2
1517206883739092,-1,-2,-1,-2,-1,-1,-2,-1
1517206883748611,-1,-1,0,-2,-1,-2,-1,-1
1517206883748611,-1,-1,1,0,-3,-1,-1,-1
1517206883763106,0,1,0,0,0,-1,-3,-2
1517206883763106,-1,0,-1,1,0,-2,-1,-2
1517206883765107,-2,-1,-1,0,0,0,1,0
1517206883765107,0,-1,-2,-1,-1,-2,-3,-2
1517206883785638,2,-2,-1,-1,-1,-1,1,-1
1517206883785638,-1,0,-1,-2,-1,-3,-1,0
1517206883787123,0,-1,-2,-3,1,-1,-3,-2
1517206883787123,-1,1,-1,-1,0,-2,2,-1
1517206883799646,-1,-1,-2,0,-1,-2,-2,-1
1517206883799646,0,0,-3,-1,1,-1,-1,0
1517206883808639,-1,1,0,-2,0,0,-2,0
1517206883808639,2,0,-1,-2,-1,0,-3,0
1517206883823172,0,0,-1,-2,-1,-1,0,0
1517206883823172,-1,-2,-1,-1,-2,-1,1,0
1517206883824651,-2,-1,-2,-2,-2,-1,-2,0
1517206883824651,0,-2,-1,-2,-2,-1,0,-2
1517206883845664,-1,-1,-2,0,-3,-2,-1,1
1517206883845664,-1,0,0,-1,-1,-2,0,-2
1517206883847166,-1,0,-1,-1,0,0,0,0
1517206883847166,-1,-2,-2,0,-1,-1,-1,-1
1517206883859676,-1,-1,-1,-1,0,0,-2,-3
1517206883859676,0,-1,-2,-3,0,0,-2,-1
1517206883868181,-2,-2,0,0,-3,-2,-1,-1
1517206883868181,-1,1,-1,-2,0,-1,-1,-1
1517206883883200,-2,0,-2,-2,-1,-1,0,0
1517206883883200,0,-1,-1,-1,0,-1,-2,-1
1517206883884693,-1,-1,1,-2,0,0,-1,-1
1517206883884693,-2,-2,-1,-1,-2,-1,0,-1
1517206883905707,0,-1,0,-2,-2,-3,-1,0
1517206883905707,-1,-2,0,0,-1,1,1,1
1517206883907208,0,0,-1,-1,-3,-3,0,-2
1517206883907208,-3,-2,-1,-2,-1,-2,-2,0
1517206883919217,0,-1,1,1,1,-1,-2,-2
1517206883919217,-2,-2,-1,-3,-2,-2,0,-2
1517206883928225,0,-2,-1,-1,-1,-1,-1,-2
1517206883928225,-1,0,-2,-2,-1,-1,0,-1
1517206883943233,-2,-1,-3,0,-1,-2,-1,-1
1517206883943233,-1,-1,-3,-1,-1,-1,-2,0
1517206883944734,0,-2,-2,-1,-2,1,-1,-2
1517206883944734,-1,-1,0,-1,-1,-1,-1,-2
1517206883965749,-2,-1,-1,-2,0,-1,-3,-3
1517206883965749,-1,0,-1,0,-1,-1,-1,-2
1517206883967250,-2,-2,-1,-3,-2,-1,-1,0
1517206883967250,-1,-1,-2,0,1,-1,0,-1
1517206883987293,-1,-1,0,-1,-1,-1,0,-1
1517206883987293,0,-1,-1,-1,0,-1,0,-2
1517206883995770,0,1,-1,0,-1,-1,-2,0
1517206883995770,0,-2,-1,-1,-2,-3,-1,-1
1517206884003277,-1,-1,-3,-1,-2,-1,-1,-1
1517206884003277,-1,-3,-2,-1,-1,-1,-2,-1
1517206884004777,-2,-1,-2,0,0,-2,0,-4
1517206884004777,0,0,-1,-1,-1,0,-1,-1
1517206884025791,-1,-1,-1,-2,0,0,0,0
1517206884025791,-1,0,0,-2,0,1,0,-1
1517206884027293,-2,-3,-2,-1,-3,-2,-1,-1
1517206884027293,-1,-2,-2,-2,0,-1,-1,-1
1517206884048308,-3,-1,-2,-1,-2,-2,0,-1
1517206884048308,-1,0,-2,-1,-1,-1,-2,-1
1517206884049858,-2,-2,-2,-1,-1,-1,-2,0
1517206884049858,-2,-1,0,1,0,0,-1,-1
1517206884063324,0,-2,-3,-1,0,0,-1,-1
1517206884063324,0,-2,0,-1,0,-1,-2,-3
1517206884064819,-1,-2,-1,-1,1,0,1,-2
1517206884064819,-1,0,-1,-2,-3,-2,-1,-1
1517206884085834,-1,-3,-1,-2,-1,0,0,-1
1517206884085834,-1,0,0,0,-3,-1,-1,0
1517206884087352,0,0,-1,0,-1,-1,1,-2
1517206884087352,-1,-2,-2,0,-1,1,-3,-1
1517206884108350,-1,1,-1,-2,-1,-1,-1,-1
1517206884108350,1,-3,-3,-1,-1,-2,-2,-1
1517206884109852,-1,0,-1,-2,-1,-3,-2,-1
1517206884109852,-1,0,0,-1,-1,-1,1,-2
1517206884122370,-2,0,-1,0,-1,0,-1,0
1517206884122370,-3,0,-1,0,-1,-3,-1,0
1517206884129382,-1,-1,-2,0,0,0,0,-1
1517206884129382,-2,-1,1,-1,-2,-2,-2,-2
1517206884145877,-1,-1,-1,-2,-1,0,-2,-3
1517206884145877,-1,-2,0,-2,0,-2,-1,-1
1517206884147378,1,-1,0,-2,0,-2,-2,1
1517206884147378,-1,-1,-1,-2,0,-1,-1,0
1517206884168392,0,0,-1,-2,-3,-2,0,0
1517206884168392,-2,0,-1,-1,-1,-1,-1,0
1517206884169902,0,-1,-1,0,-2,-1,-2,-1
1517206884169902,-1,0,-1,0,-1,-1,-1,0
1517206884182415,-1,-1,0,0,0,-1,0,-1
1517206884182415,-1,-1,-1,-1,0,-2,0,-1
1517206884189410,-1,-1,-1,0,-2,1,-1,1
1517206884189410,-1,-1,-4,-1,-2,-2,-1,-1
1517206884205919,-2,-1,-2,-2,-1,-3,1,0
1517206884205919,0,-1,-2,-2,1,-2,-1,0
1517206884207433,-2,0,-1,-1,-2,0,0,-2
1517206884207433,-3,-1,0,0,-1,-1,-2,-3
1517206884228435,-1,-1,-1,0,-1,0,-2,0
1517206884228435,-2,-2,-1,0,-1,-1,-1,0
1517206884229949,-1,-1,-2,0,-3,-2,-1,0
1517206884229949,-1,0,-3,-1,-1,0,-2,0
1517206884242946,0,0,-1,0,-1,-1,-3,-2
1517206884242946,-2,-1,-1,-2,-3,3,-1,-2
1517206884249450,-1,1,0,-1,0,-1,0,-1
1517206884249450,1,-2,-1,0,-1,0,-1,-1
1517206884273968,-1,-2,-1,-2,-1,-2,0,-1
1517206884273968,0,-1,-2,-1,0,-1,-1,-2
1517206884275468,-1,-1,-2,1,-1,-2,-2,-1
1517206884275468,-1,-1,1,-1,-1,-1,0,0
1517206884287477,-2,-2,-1,-2,0,0,0,0
1517206884287477,-1,0,-2,-1,-2,0,-3,-1
1517206884288487,-2,-1,-1,-2,1,0,0,0
1517206884288487,-1,-2,-1,1,0,0,-2,-2
1517206884303487,-2,-1,-1,-3,0,-1,-1,1
1517206884303487,0,-1,-1,0,0,0,1,1
1517206884309993,0,0,-1,-2,-1,-1,-2,-1
1517206884309993,-1,-1,-1,-2,-1,0,1,-2
1517206884325004,-1,-2,0,0,-2,-1,-2,-3
1517206884325004,-2,-1,-1,0,0,0,0,-2
1517206884326004,0,0,-2,0,-1,-2,-1,0
1517206884326004,0,0,-2,-1,-1,-1,-3,0
1517206884347520,-1,-1,-1,-2,-3,0,0,-1
1517206884347520,0,-2,0,-1,-1,-1,-1,0
1517206884349022,-2,-2,-1,-1,-2,-1,-2,-1
1517206884349022,-2,-1,-2,-2,0,-3,-1,-2
1517206884362030,-1,0,-1,1,0,-1,-3,-1
1517206884362030,0,-2,-2,-1,-2,-2,-1,-2
1517206884370074,-1,0,0,-1,1,-1,-1,-1
1517206884370074,-1,-1,-1,-2,-1,-1,0,0
1517206884385055,-1,0,1,-1,0,-2,-1,0
1517206884385055,0,1,-2,-2,-1,-2,-1,-1
1517206884385547,-2,-1,-1,-1,-1,-1,-1,-1
1517206884385547,-1,-2,-1,-2,-2,-1,0,0
1517206884407562,0,-1,-2,-1,-2,-2,0,-1
1517206884407562,-2,-2,0,-1,-1,-1,-1,-3
1517206884408062,-1,-1,-1,0,-3,0,-2,-1
1517206884408062,-2,0,0,-2,0,0,-1,0
1517206884421610,1,1,0,-1,-1,1,0,0
1517206884421610,0,0,-1,-1,0,-4,-2,0
1517206884437584,-2,0,-2,-1,-1,-1,-2,1
1517206884437584,0,0,-1,-1,0,-1,-1,-2
1517206884445590,-2,-1,-1,-3,0,-1,-1,-2
1517206884445590,-2,-1,-1,0,-1,-1,-1,-3
1517206884446609,-1,-2,-1,-3,-1,-1,-1,-1
1517206884446609,1,-2,-2,0,-1,-2,-2,-1
1517206884467611,0,-3,0,-1,-2,0,0,-2
1517206884467611,1,-2,-1,0,0,2,1,1
1517206884468105,-1,0,-1,-1,0,-1,-1,-1
1517206884468105,-1,-2,0,0,-3,-3,-3,1
1517206884482114,-2,0,-2,1,0,-3,-2,-2
1517206884482114,-3,-1,-2,-1,0,-1,-2,-1
1517206884490140,-2,-1,0,-1,-1,-1,-1,-1
1517206884490140,-1,-1,0,0,-1,0,-1,0
1517206884505130,0,-1,-1,-1,1,-1,-2,0
1517206884505130,0,-1,0,-2,-2,-2,0,-1
1517206884505641,-2,-1,-2,-1,0,-1,0,0
1517206884505641,-2,0,-2,-1,0,-1,-1,-1
1517206884527646,-3,-1,0,-1,-1,-1,-2,-1
1517206884527646,0,-2,-3,-2,-1,-2,0,-1
1517206884528150,-1,-2,-2,-2,-3,-2,-1,-2
1517206884528150,2,-1,-1,-1,-2,-1,0,-2
1517206884542157,0,0,-1,0,0,-1,-1,0
1517206884542157,-1,-1,-1,-1,-2,0,0,-1
1517206884550203,-2,-2,0,0,-1,0,-4,-2
1517206884550203,-1,-1,-2,-1,-1,1,-1,-2
1517206884565214,0,-3,0,-2,0,-2,0,-2
1517206884565214,-1,-3,-2,0,-2,-1,-2,0
1517206884565704,-1,-1,-1,-2,0,0,0,1
1517206884565704,-2,0,1,0,-2,-2,0,-2
1517206884587238,0,0,-2,-1,0,-2,-1,-2
1517206884587238,0,0,-1,-1,-2,-1,1,-1
1517206884588238,-1,0,-2,-1,-1,-1,-2,-1
1517206884588238,-2,0,-1,-1,-2,-2,-1,-1
1517206884601730,-1,-2,-2,-2,0,0,0,0
1517206884601730,-3,-1,0,-2,-1,-2,-2,2
1517206884610252,0,0,-1,-1,-1,0,-1,-1
1517206884610252,-2,-1,-1,-2,0,0,0,-1
1517206884625248,-1,-1,-1,0,-2,-1,-3,-1
1517206884625248,0,1,1,-1,0,-2,-3,-2
1517206884625749,-1,-2,-2,0,-1,-1,-1,-1
1517206884625749,-1,0,0,-2,-1,0,-1,-1
1517206884647773,-2,-1,0,-1,-2,-1,0,0
1517206884647773,-2,0,-1,1,-1,-1,-1,-2
1517206884648264,1,1,1,-1,0,0,0,1
1517206884648264,0,-1,-2,0,-1,-2,0,0
1517206884661799,-1,0,-1,-1,-1,-1,-1,-1
1517206884661799,-1,-2,-1,-2,0,0,-1,0
1517206884670830,0,-3,-1,-2,0,-3,0,-2
1517206884670830,-1,-2,-1,0,0,0,0,-2
1517206884684828,1,-1,-2,0,-1,0,-1,-2
1517206884684828,-1,-2,-1,0,-1,-2,-1,-2
1517206884685814,0,0,-1,-1,-1,-2,-2,-1
1517206884685814,-1,0,-2,-2,0,1,-2,0
1517206884707830,1,-1,-2,0,0,-2,0,-1
1517206884707830,-1,0,0,-1,0,0,0,-2
1517206884708330,-2,-1,0,1,-1,-2,-2,-1
1517206884708330,-1,-1,-1,1,-2,-3,-3,-3
1517206884721843,-1,0,0,-3,-1,-1,-2,-2
1517206884721843,0,-2,-1,-2,-1,-1,-1,0
1517206884729858,0,-2,0,-1,0,-2,0,-1
1517206884729858,-2,0,-1,-1,1,-2,-1,0
1517206884745856,-1,-1,0,1,0,-2,-1,0
1517206884745856,-2,0,-2,0,-2,0,-1,0
1517206884746357,-1,0,-1,-1,-1,0,-2,-1
1517206884746357,0,-2,-1,-2,0,-1,-1,-2
1517206884767381,-2,-1,-1,-1,-1,-1,0,0
1517206884767381,-2,-2,-2,-1,0,-1,-1,-1
1517206884768373,-3,-3,-2,-1,0,0,-1,0
1517206884768373,-1,0,-1,0,-3,-1,0,0
1517206884781891,0,0,-1,-2,0,0,-1,-1
1517206884781891,1,1,0,0,1,-1,0,0
1517206884789911,1,0,-2,-1,-3,-1,-3,0
1517206884789911,0,-3,0,-1,-1,-2,-1,0
1517206884804901,-1,0,1,0,1,-2,1,-1
1517206884804901,-1,0,-1,-3,-1,-1,0,0
1517206884805899,-2,0,-1,-1,-1,-1,-1,-1
1517206884805899,-1,-1,-3,0,-1,0,-2,-1
1517206884827414,1,-2,-1,-1,-2,-1,-2,1
1517206884827414,0,-1,-2,0,0,-1,-1,-1
1517206884828417,-2,-3,-1,-1,-1,-1,0,-2
1517206884828417,-2,-3,-1,-2,-1,-1,-1,-1
1517206884841926,-3,-1,0,-1,-2,-1,-2,-1
1517206884841926,-2,-2,-1,-1,-2,-2,0,-2
1517206884849933,-1,-1,-1,-2,0,0,0,-1
1517206884849933,0,-2,-1,-2,-1,1,0,1
1517206884864941,0,-2,-3,0,0,1,-1,-1
1517206884864941,0,-2,-1,-2,-1,0,0,0
1517206884865941,0,-1,-1,1,-2,-1,0,-1
1517206884865941,-1,-1,-1,-2,0,-2,-1,-1
1517206884887457,0,-2,-3,-1,-3,-1,0,-1
1517206884887457,-2,-1,-2,-1,-1,1,-2,-3
1517206884888472,-2,-2,0,-2,0,-1,-1,-2
1517206884888472,-2,0,0,0,-2,1,-1,0
1517206884910974,-2,-2,0,0,-1,-1,0,0
1517206884910974,-2,-2,-1,-2,-1,-2,-2,-1
1517206884911473,0,-1,-1,0,-2,-1,0,-1
1517206884911473,-1,-1,-1,0,-1,-2,0,-2
1517206884924984,0,-2,0,-1,1,1,-1,0
1517206884924984,0,0,1,-2,0,-2,-1,-2
1517206884925984,-1,0,1,-1,-1,-1,-1,0
1517206884925984,-3,-1,-1,-1,-1,1,0,-2
1517206884947518,-1,-1,-1,-1,-2,-3,-1,-1
1517206884947518,-1,0,-1,-1,1,-2,0,-1
1517206884948506,-1,-1,-2,-2,0,1,0,-1
1517206884948506,0,0,-2,-1,-1,0,-1,-1
1517206884970542,-1,-1,-1,-1,-2,0,0,-1
1517206884970542,-1,0,-1,-1,-1,1,-2,-2
1517206884971518,-1,-1,-2,-1,-1,0,-1,0
1517206884971518,-1,-1,-1,-2,0,-1,-2,0
1517206884985081,-1,0,0,0,0,-1,-1,-1
1517206884985081,-1,-2,0,-1,-1,-2,-2,0
1517206884986026,-1,-2,0,-1,0,-1,-1,-1
1517206884986026,0,-2,-1,-2,-1,-4,-2,-1
1517206885007542,-2,-1,-1,-1,-3,-2,-1,0
1517206885007542,-4,-1,-2,0,-2,-1,1,0
1517206885008542,-2,-1,-1,-1,0,-1,-1,-1
1517206885008542,0,-2,-1,1,-2,-1,0,0
1517206885030570,0,-2,-3,-3,0,-1,-1,-1
1517206885030570,0,-2,0,0,-1,-1,0,-1
1517206885031581,0,1,-1,-2,-1,-1,-2,0
1517206885031581,-3,0,-1,0,-1,-1,-1,-1
1517206885045090,-1,-1,-1,-1,-1,0,-2,-2
1517206885045090,-1,0,0,-1,-1,-1,-2,-1
1517206885046070,-1,-2,-2,-3,-3,0,-1,-2
1517206885046070,-2,-2,0,-1,1,0,-2,-2
1517206885067597,0,0,-1,-1,-1,2,0,-2
1517206885067597,0,-2,-2,-1,-1,0,0,-1
1517206885068084,-3,0,-1,0,-1,0,0,0
1517206885068084,0,1,-1,-1,-1,-1,0,-1
1517206885090603,-2,-1,0,-2,0,-2,0,0
1517206885090603,-1,1,-1,-1,-2,-1,-1,-2
1517206885091609,-2,-1,-1,2,-2,-3,-1,-1
1517206885091609,-2,-2,-3,-1,-1,1,0,-2
1517206885105111,-3,0,-2,-2,-1,-3,-1,0
1517206885105111,0,0,-1,-1,0,-2,-1,-1
1517206885105612,-1,0,-1,0,-1,0,-2,0
1517206885105612,0,1,0,0,-2,-1,-2,-1
1517206885127628,-1,-1,-1,-2,-2,-2,-1,0
1517206885127628,-1,-1,0,-1,-1,-2,-2,-1
1517206885128127,0,0,0,-1,-2,-1,-1,-2
1517206885128127,-1,-1,0,-2,0,-1,-1,-2
1517206885150646,-2,0,-1,1,-3,-1,-3,-1
1517206885150646,1,-2,-3,-1,-1,0,2,-1
1517206885151643,-2,-3,-2,-3,-1,-1,-1,-2
1517206885151643,0,-2,-2,-1,-2,0,-1,0
1517206885164687,-2,-1,0,-1,-1,-2,-2,-4
1517206885164687,-1,-1,0,-2,-3,0,-2,-2
1517206885165687,0,0,-1,-2,0,-1,-2,0
1517206885165687,-1,-2,-1,-2,-2,-1,-3,0
1517206885187202,-1,0,-1,-2,0,-1,0,-1
1517206885187202,-1,-2,-3,-1,-1,-5,-2,-1
1517206885188203,0,-2,-2,0,-1,-1,0,-1
1517206885188203,0,0,-1,0,0,-3,0,-3
1517206885210720,0,-1,1,-2,-3,-2,-1,-1
1517206885210720,-2,-1,0,-2,-2,-1,0,-1
1517206885211222,-1,-1,-2,-1,-1,-2,-1,-3
1517206885211222,-2,-1,-1,-1,0,-2,-2,-1
1517206885225229,-1,0,-3,-1,0,0,0,0
1517206885225229,-1,0,-1,-2,-1,-1,0,-1
1517206885226231,-2,-2,-2,-2,-1,-2,0,0
1517206885226231,0,-1,-1,-1,-1,-1,0,0
1517206885247247,-2,-1,-1,0,-1,0,0,-1
1517206885247247,-3,-2,-2,-2,0,-1,-2,-1
1517206885248245,1,-2,0,-2,-1,-2,-2,-1
1517206885248245,-1,-1,-2,-2,-2,-2,-1,0
1517206885270765,-1,-3,-2,-1,-1,-2,-1,-1
1517206885270765,-2,0,-1,1,-2,-2,-2,-1
1517206885271261,-2,-1,-1,-1,0,-1,-2,-1
1517206885271261,0,0,-1,-2,-1,-1,0,-1
1517206885284771,-1,-2,-1,0,-1,0,0,-3
1517206885284771,-2,-2,0,-2,-2,0,-1,1
1517206885285772,-1,-1,0,-2,1,-1,0,-1
1517206885285772,-2,-2,0,-1,-1,0,-2,0
1517206885307323,-1,-1,-2,0,0,-1,-1,-1
1517206885307323,1,0,-2,0,-2,-1,-2,1
1517206885308325,1,0,-1,-1,-3,-1,-2,0
1517206885308325,-1,-1,0,-1,0,0,-2,-3
1517206885330840,-1,-2,0,-1,-1,-1,1,-1
1517206885330840,-2,0,-3,0,-1,-2,-1,-1
1517206885331342,-1,0,-1,-1,-2,-1,-2,-2
1517206885331342,0,0,-1,-1,-1,-1,0,-1
1517206885345373,-1,0,0,-2,-3,-2,0,0
1517206885345373,0,-1,0,-3,1,0,-1,-1
1517206885345851,-2,0,-2,3,-1,0,0,0
1517206885345851,0,0,-2,-2,-3,0,-1,0
1517206885367379,0,-1,-1,1,1,1,0,-1
1517206885367379,-2,1,0,0,0,0,1,-1
1517206885368367,-2,-2,0,-1,-3,-1,-2,1
1517206885368367,-1,-1,2,-2,0,0,1,-2
1517206885391384,-1,-1,-1,-2,-3,-1,-1,-1
1517206885391384,-1,-1,0,-1,0,-2,-2,-3
1517206885391884,-2,-1,-1,-1,0,0,0,-4
1517206885391884,0,0,-2,0,0,-1,-1,0
1517206885404439,-1,0,-2,-1,0,0,-2,-1
1517206885404439,0,-1,-2,-1,-1,-3,-2,-1
1517206885412446,0,-2,-2,-1,-1,-2,0,0
1517206885412446,-1,-2,-3,-1,-1,-2,-1,0
1517206885427461,0,-1,-1,-1,-2,-2,-3,-2
1517206885427461,-1,0,0,0,-1,-1,-1,0
1517206885428452,-1,-1,-1,-2,-2,-2,0,-1
1517206885428452,-1,-1,-1,0,-1,0,0,-1
1517206885450471,-1,-1,-1,-3,0,-1,0,-1
1517206885450471,-1,-1,-1,-2,-2,0,0,0
1517206885451469,-1,0,-2,-1,-2,-1,-2,-1
1517206885451469,-2,-1,0,1,0,-3,-1,-1
1517206885464990,0,-1,-2,-3,-1,-2,1,0
1517206885464990,1,-2,0,-3,-2,0,-1,-1
1517206885465991,-2,0,-2,-1,0,-2,-1,0
1517206885465991,-2,-2,-1,-1,-1,-2,-1,-1
1517206885487495,-2,-1,-1,0,0,1,-3,0
1517206885487495,-1,-1,-2,0,-3,0,-1,1
1517206885488509,-1,0,1,-1,-1,-2,-1,-2
1517206885488509,-1,-1,0,-1,-1,-1,0,-2
1517206885511012,-2,-1,-3,-2,-1,0,-1,-1
1517206885511012,-1,-2,-1,-1,-1,-1,-1,-2
1517206885511512,-2,-1,-2,-2,0,-1,-2,0
1517206885511512,-2,0,-1,-1,-2,-2,-2,-2
1517206885524531,-2,-2,0,-2,-1,-2,0,-2
1517206885524531,-1,-1,1,0,-2,-1,0,-1
1517206885532557,0,0,0,-1,-1,-2,-1,0
1517206885532557,-1,-1,-1,-2,-1,0,0,-2
1517206885547549,0,-2,-3,-2,-2,0,0,-1
1517206885547549,-2,0,-2,-2,-1,-1,-1,-1
1517206885548037,-1,0,1,-1,-1,-1,-1,-2
1517206885548037,-1,-3,-1,-2,0,0,0,0
1517206885570574,0,-1,1,-1,-1,-2,-1,-2
1517206885570574,-1,-1,-1,0,-1,1,0,0
1517206885571560,-1,-3,-2,-1,-2,0,1,-2
1517206885571560,-1,0,-2,-1,-1,-2,-1,-1
1517206885584562,-1,-1,-1,-1,-1,-1,-1,-2
1517206885584562,-2,-1,-1,-2,0,-1,-2,-1
1517206885592570,-2,-1,-1,-1,-2,-1,-2,-1
1517206885592570,-3,0,-1,0,-3,-3,-2,0
1517206885607589,-3,-2,0,2,-1,-1,-1,-1
1517206885607589,-1,-3,-2,-1,-1,-3,0,-1
1517206885608080,0,0,-2,-1,-1,-2,-1,-1
1517206885608080,-1,0,-1,-3,-1,0,-1,1
1517206885630596,-2,-1,-1,-1,-2,-1,0,0
1517206885630596,0,-2,-2,0,-1,0,-1,-1
1517206885631610,0,-3,-2,-1,0,1,0,0
1517206885631610,-1,-1,-2,-1,1,-1,0,-1
1517206885645106,0,-1,0,-2,0,0,-1,-2
1517206885645106,0,-1,-1,-2,-2,0,-2,-1
1517206885652627,0,-1,-1,-2,-1,-1,-1,-1
1517206885652627,-1,0,-2,-1,-2,0,-1,-1
1517206885667621,1,1,-1,0,-1,-2,-1,-2
1517206885667621,0,-2,0,-1,-1,-2,-1,-2
1517206885668147,-2,-1,-1,0,-2,-1,-1,-1
1517206885668147,-1,-1,-1,-2,-1,-1,-1,-1
1517206885690659,-2,-1,-1,0,-1,-2,-1,-2
1517206885690659,-1,-1,-2,-1,0,-1,0,0
1517206885691641,-3,-1,-3,-2,0,2,-1,-1
1517206885691641,-2,-3,-2,-2,-1,1,-2,-1
1517206885704150,-2,-2,-1,-1,-1,1,-1,0
1517206885704150,0,0,-1,-2,-2,-1,-1,-2
1517206885712654,-1,-2,0,1,-1,0,-2,0
1517206885712654,0,-2,0,0,-1,-1,0,0
1517206885727665,-1,0,-1,-2,-2,-1,-2,1
1517206885727665,0,0,-2,-2,-2,0,0,0
1517206885728165,0,0,0,-1,-1,-1,0,0
1517206885728165,-1,-1,-1,-2,0,0,-2,-1
1517206885750696,1,-1,-1,-1,0,-2,-1,0
1517206885750696,-2,-1,-1,0,-1,0,-1,-1
1517206885751682,-2,-1,-1,-2,0,-1,-1,-1
1517206885751682,0,-1,-1,1,-1,-1,0,-2
1517206885764202,-1,-1,-1,0,-1,-2,1,1
1517206885764202,-2,-2,-2,-1,-1,0,-2,1
1517206885772226,-1,-1,-1,-2,0,0,1,0
1517206885772226,-2,-2,-1,-1,0,-1,0,0
1517206885787227,-1,0,-2,-2,-1,-1,0,-1
1517206885787227,-1,-1,0,-1,-1,-3,-1,-1
1517206885788208,-1,-1,0,-2,-2,-1,-1,-3
1517206885788208,-1,-1,-1,-1,-1,-1,-1,0
1517206885810741,-2,-1,-1,1,0,1,-1,-3
1517206885810741,-1,1,-1,-1,0,-1,0,-1
1517206885811224,-1,0,0,0,-2,0,2,-2
1517206885811224,0,0,0,-1,-2,0,-1,-1
1517206885833254,-3,-2,0,-2,-1,-1,-1,-1
1517206885833254,-1,-1,0,0,-3,0,-2,0
1517206885833739,-2,0,-1,1,1,-4,-1,-2
1517206885833739,-1,-2,-1,-1,-1,-1,-1,-1
1517206885847252,0,-1,-1,-1,-2,1,-1,-1
1517206885847252,-1,0,-1,-1,-1,-2,1,-2
1517206885848250,-1,-3,0,-1,-1,-1,-2,1
1517206885848250,-1,0,0,-1,-2,-1,0,-2
1517206885870768,-1,-1,-1,-1,-1,-3,-1,-2
1517206885870768,-1,-1,-1,-1,-1,-1,0,-1
1517206885871265,-2,-2,-2,-3,-2,-2,-2,-2
1517206885871265,-2,-2,-1,0,0,-2,-2,0
1517206885893284,-1,0,-2,-1,0,0,-1,-1
1517206885893284,0,-2,0,-1,-1,-2,0,0
1517206885893783,0,-2,-1,-1,-1,-1,-1,1
1517206885893783,-1,0,-1,0,0,-2,-1,-1
1517206885907291,0,0,0,-1,-2,-1,-2,-1
1517206885907291,-3,0,-1,-1,1,-1,-1,-1
1517206885908296,-1,0,-1,-1,-1,0,0,-4
1517206885908296,-1,-1,-2,-1,0,0,-1,-2
1517206885930822,-1,-1,-1,0,-3,-2,2,-1
1517206885930822,0,-2,-2,-2,-2,-1,-2,-2
1517206885931308,0,-1,-1,1,-2,-2,-3,0
1517206885931308,-2,-2,-2,-1,-2,0,0,0
1517206885953323,-1,-2,-2,-1,0,-2,0,-1
1517206885953323,0,-2,-1,-2,-2,-2,-2,0
1517206885953824,0,1,0,-1,-1,-1,0,-1
1517206885953824,-1,-1,-1,-2,0,-2,-1,-1
1517206885967334,-2,-3,-2,-2,0,-2,-2,-1
1517206885967334,-1,-2,-1,-2,-1,0,-3,-1
1517206885968347,-1,-1,-3,0,-2,-1,1,-2
1517206885968347,-1,-1,-1,0,-3,-2,0,-2
1517206885990900,-2,0,0,-1,-1,0,0,0
1517206885990900,-1,-1,0,0,-1,-1,0,-2
1517206885991418,-1,0,-2,-1,-1,-2,-2,-1
1517206885991418,-1,-1,-1,-2,-3,-1,0,-1
1517206886013917,-2,-2,0,-1,-2,1,-3,-2
1517206886013917,-1,-1,0,0,-1,-2,-1,-1
1517206886014417,-1,-1,0,0,-1,-1,-1,-2
1517206886014417,-2,0,0,0,-1,-2,0,-2
1517206886027463,1,-2,-2,0,-1,-2,-1,0
1517206886027463,0,-1,-1,-2,0,-2,0,-1
1517206886028463,-1,-2,-1,0,-1,-1,0,0
1517206886028463,-1,-2,0,-1,0,1,-1,-1
1517206886050479,0,-1,-2,0,-2,-2,0,-1
1517206886050479,-1,0,-1,-1,-3,-2,-1,0
1517206886051480,0,-1,-2,-3,0,-3,-1,2
1517206886051480,1,-1,-1,-2,-2,0,-2,-1
1517206886073016,-1,0,-1,-1,-1,0,1,-1
1517206886073016,-1,-3,-1,0,0,-1,-1,-2
1517206886074005,-1,-1,0,-1,1,-1,0,-1
1517206886074005,1,-2,-1,-1,-1,-2,-1,-1
1517206886087520,-1,-1,0,-4,-3,-3,-2,0
1517206886087520,-3,-2,0,1,-2,-2,0,0
1517206886088506,-3,0,-1,-1,-2,0,-2,-1
1517206886088506,-1,-2,-1,-2,-1,-3,2,0
1517206886111021,0,0,0,1,1,-2,-1,0
1517206886111021,0,-2,-1,-2,0,-1,-1,-1
1517206886111523,0,-2,-1,-2,-2,-1,-1,-1
1517206886111523,-2,-1,0,0,-1,0,-3,-1
1517206886133037,0,-1,-1,-2,-1,-2,-2,-1
1517206886133037,-1,1,-1,-2,-1,0,0,-1
1517206886134038,0,0,-1,-1,-2,1,0,0
1517206886134038,0,0,-2,-1,0,-2,-2,-2
1517206886147584,0,0,-2,0,0,0,-2,-1
1517206886147584,-1,0,-1,-1,-1,1,-2,-2
1517206886148085,-2,0,-1,0,-1,-1,-1,-2
1517206886148085,1,0,0,-1,-1,0,-1,-1
1517206886170622,-2,-2,0,-2,0,0,-1,0
1517206886170622,-2,-2,-2,-1,0,-1,-1,1
1517206886171620,-1,-1,0,-1,-2,-1,-1,-1
1517206886171620,-2,-1,1,-1,-1,-1,-1,0
1517206886193186,-2,-3,-3,-1,0,-2,1,0
1517206886193186,1,-1,0,-2,-2,-2,-1,1
1517206886194184,-1,-3,-1,-1,0,-1,0,-1
1517206886194184,-2,-1,-2,-2,-2,-1,-1,-2
1517206886207201,-1,0,-1,-2,-1,0,-1,-1
1517206886207201,-2,-2,-1,0,-1,-2,0,-1
1517206886208193,-2,-1,-1,0,-1,-1,-1,-2
1517206886208193,-1,-1,-1,2,-1,-1,1,-1
1517206886230717,-1,-3,-1,0,-4,-2,-2,-1
1517206886230717,0,-2,-1,-1,0,-1,1,-2
1517206886231208,0,0,1,-2,-1,0,-1,0
1517206886231208,-2,0,-1,-2,-2,-1,-1,-1
1517206886253227,-2,2,-1,0,-1,-1,-1,-2
1517206886253227,-1,1,-3,-1,0,-2,-2,-3
1517206886253725,-1,-1,-1,-2,1,-1,-2,0
1517206886253725,-1,-1,-1,-1,1,0,0,0
1517206886267234,0,-2,0,0,-3,-3,-1,0
1517206886267234,-3,0,-1,-1,0,-2,-1,0
1517206886268235,0,-1,-2,-1,-2,0,-1,-1
1517206886268235,-2,0,-1,-1,-1,-1,-3,-1
1517206886290765,-1,-1,-1,-3,-1,-1,-1,-2
1517206886290765,0,0,-1,0,0,0,0,0
1517206886291251,-3,0,-2,-1,-1,-2,0,1
1517206886291251,0,0,-1,0,-1,-1,-1,0
1517206886313279,-2,-2,0,0,-3,1,0,0
1517206886313279,0,0,0,-1,-3,0,-2,0
1517206886313767,-1,-3,-3,-1,-2,-1,-1,-2
1517206886313767,-1,-2,-2,-1,-1,0,-2,-2
1517206886327486,0,1,-2,-2,2,-1,-3,-1
1517206886327486,-1,-3,-1,0,-2,-2,-1,-2
1517206886328484,0,0,-2,-1,-2,-1,0,-1
1517206886328484,-1,1,-1,-1,1,-2,0,-1
1517206886350500,0,-1,-1,-1,-1,-1,0,-2
1517206886350500,0,0,-1,-2,-3,-2,-1,0
1517206886352501,0,-1,-3,-1,0,0,-2,-1
1517206886352501,1,-2,-2,-1,1,-2,0,-2
1517206886373019,-1,0,-1,-1,-1,0,0,-1
1517206886373019,-3,-3,-1,-2,0,0,-1,-2
1517206886375017,-1,-3,0,-1,-2,-3,-2,0
1517206886375017,1,-1,-1,-2,-2,0,-1,-1
1517206886386546,-3,-2,-2,-1,1,-1,0,0
1517206886386546,-1,0,-1,0,-2,0,0,-2
1517206886395551,-2,0,-3,-1,0,-2,0,-2
1517206886395551,-2,-1,-1,-1,-1,-1,-3,-1
1517206886410543,0,-1,-1,-3,-1,-1,-1,-2
1517206886410543,-1,-1,-3,-1,-1,-1,-1,-1
1517206886412044,-2,1,0,-1,0,0,-1,0
1517206886412044,0,-1,0,-1,-1,-1,0,0
1517206886433071,-1,-2,-2,-1,-2,-1,-2,-2
1517206886433071,-1,-1,1,1,0,0,0,-1
1517206886434572,0,-2,-1,-1,0,-2,-2,-1
1517206886434572,-2,-2,0,0,-2,0,-1,0
1517206886446571,-1,-2,-1,0,-1,0,-4,1
1517206886446571,0,1,-1,-1,-1,2,-1,-1
1517206886455574,-1,-1,-1,0,1,-1,-1,-1
1517206886455574,-1,-1,-1,-1,-1,-1,1,-2
1517206886470600,0,-2,-1,-1,-1,-3,0,-2
1517206886470600,-2,-2,-1,-1,0,-1,-1,-1
1517206886472086,-1,-1,0,0,-1,0,-1,-1
1517206886472086,-2,-3,-2,-2,-1,-1,0,-1
1517206886493100,-1,-1,-1,0,-2,0,-2,1
1517206886493100,0,-2,-2,-2,-1,-1,-1,1
1517206886494603,-1,0,-1,0,-1,0,-1,-1
1517206886494603,-1,-1,-2,-2,-1,0,-1,0
1517206886506610,-2,-1,0,-3,-1,0,0,0
1517206886506610,-1,1,-2,0,-2,-2,-2,0
1517206886515619,-1,-2,-1,-2,-3,0,-1,-1
1517206886515619,-1,-1,-1,0,-1,0,-1,0
1517206886530645,-1,-1,-1,-1,-3,-1,0,-1
1517206886530645,-1,-2,-1,-1,1,-2,2,-1
1517206886532139,0,-2,1,-1,-2,-2,-1,0
1517206886532139,-1,-1,-2,0,-2,-2,-2,0
1517206886553146,0,-2,-2,-2,1,-2,-1,0
1517206886553146,0,0,-2,-1,-2,-1,0,-1
1517206886554644,0,-1,-1,-1,-1,-1,0,-1
1517206886554644,-1,-3,0,-2,-1,-3,0,-2
1517206886566652,-1,-1,-2,-1,-2,0,-2,-2
1517206886566652,-1,-1,-2,1,-1,0,-2,0
1517206886575659,0,0,-1,0,0,-1,-2,-1
1517206886575659,0,-2,-1,0,0,0,-1,-1
1517206886590684,0,-1,0,0,-2,0,-1,-1
1517206886590684,-2,-1,-1,-2,-1,-2,-2,-1
1517206886592175,-2,-1,0,-1,-1,-1,-2,0
1517206886592175,-2,-1,-2,-2,0,-1,-1,0
1517206886613185,-3,-3,-1,-1,-2,1,0,-2
1517206886613185,1,-3,0,1,-1,-1,-1,-1
1517206886614699,-3,-1,-2,0,0,-2,1,-2
1517206886614699,0,-2,-1,-2,-1,0,-1,-2
1517206886626699,-1,-1,-2,0,1,-1,0,-1
1517206886626699,-1,-1,-1,-1,0,-1,-1,-1
1517206886635701,0,-2,-1,-1,-1,0,-1,-1
1517206886635701,0,1,-1,1,-3,-3,0,-1
1517206886650252,1,1,-2,-1,-1,-1,0,-1
1517206886650252,0,0,-1,-1,-1,-1,0,-1
1517206886656755,1,-1,-1,0,-3,-1,-2,0
1517206886656755,-1,-1,-2,-1,-2,-2,-3,-2
1517206886673267,-1,-1,-4,-2,-1,-1,-1,0
1517206886673267,-2,-1,-1,-2,-1,-1,-1,-1
1517206886674768,-1,-2,-1,-1,0,0,0,-1
1517206886674768,-3,0,-1,0,-2,-1,-1,-2
1517206886686778,0,-1,1,-1,-2,-2,-2,-2
1517206886686778,-1,-4,0,-1,-1,0,-1,-3
1517206886695782,0,-1,-2,-2,-1,-2,0,-1
1517206886695782,-2,-2,-1,-1,0,0,0,-2
1517206886710796,-2,-1,0,-2,0,-3,-1,0
1517206886710796,0,-1,-2,-1,-1,1,-1,-1
1517206886712306,-1,-1,-2,-2,-1,0,-1,-1
1517206886712306,-2,0,0,-1,-1,-1,-2,0
1517206886740864,-2,-2,-1,1,1,-1,-2,-1
1517206886740864,-1,-1,-2,-2,-2,-1,-1,0
1517206886742366,-3,-2,-2,0,0,-1,-1,-1
1517206886742366,0,-1,-2,0,-1,1,-2,-1
1517206886746871,-2,-1,-1,-2,-1,-1,0,-1
1517206886746871,-1,-1,0,-2,-1,-1,-2,-2
1517206886755876,-2,0,-3,-3,-3,-2,-1,-1
1517206886755876,0,-2,0,-2,0,-2,0,0
1517206886770886,-1,-2,0,-1,-1,-2,-1,-1
1517206886770886,-2,0,0,-2,-3,-1,-2,-1
1517206886772401,-2,-1,1,0,0,-1,0,-3
1517206886772401,-3,-1,-2,-1,-1,-1,-1,-1
1517206886793407,-1,0,-2,-1,-1,0,-1,-2
1517206886793407,-1,-1,-1,1,-2,-1,-1,-1
1517206886794903,-2,-2,0,0,0,-1,-2,-1
1517206886794903,0,-2,-2,-2,-3,-2,-2,-1
1517206886815500,0,-2,0,-1,0,-1,0,-1
1517206886815500,-2,0,-1,-1,-1,-1,-1,-1
1517206886817490,0,-2,-1,-3,-1,-1,0,0
1517206886817490,-1,-1,0,0,-1,-1,-1,-1
1517206886830498,-2,0,-1,-1,-2,-1,-2,-1
1517206886830498,-2,-1,1,-2,-1,-1,0,-1
1517206886831999,-1,0,-1,-2,-1,-1,-1,1
1517206886831999,-1,-1,0,-1,0,-2,-1,-1
1517206886853029,-2,-2,-1,-2,-1,1,-2,-1
1517206886853029,-1,1,-2,-1,-2,-2,0,-1
1517206886854515,0,1,-1,-1,-2,0,0,-3
1517206886854515,-2,-1,0,0,-2,-1,1,-1
1517206886876032,-1,-2,-2,0,-1,-3,-1,-2
1517206886876032,-2,-2,-1,-1,0,0,-2,0
1517206886877031,-2,-2,-1,0,-2,-1,-2,0
1517206886877031,0,-2,-1,-1,-2,-1,0,0
1517206886890544,-2,0,-1,0,-1,-1,-1,0
1517206886890544,-2,0,-2,-2,-1,-2,-1,-1
1517206886892542,-1,-1,-1,-1,-1,0,-1,-2
1517206886892542,2,-2,-1,-1,0,0,-1,0
1517206886913058,-1,0,-2,-1,0,0,-2,-2
1517206886913058,-2,-2,-1,-3,-1,-1,-1,0
1517206886914575,-2,-1,0,0,-1,0,0,-1
1517206886914575,-1,-1,-1,-2,-1,-1,-2,-2
1517206886936096,-1,-1,0,-2,-1,-1,-1,0
1517206886936096,-1,-1,-2,0,-1,-1,1,1
1517206886937574,0,-1,-1,-1,-1,-1,0,-2
1517206886937574,-1,-1,-2,-2,-1,-1,-2,-1
1517206886949085,-1,-1,0,0,-2,0,-2,-2
1517206886949085,0,-2,-3,-1,0,-1,-1,-1
1517206886964094,-2,-2,-2,-2,0,0,1,-1
1517206886964094,-1,1,-3,-1,0,-2,-1,0
1517206886973119,-1,-1,-1,-3,-2,-1,-2,0
1517206886973119,-1,-1,-1,-2,-3,0,-1,-2
1517206886974601,0,0,-1,-1,-3,-2,-1,-1
1517206886974601,-2,0,0,-1,0,-2,0,-2
1517206886995617,-1,-1,0,1,-4,-2,0,-1
1517206886995617,0,-2,-1,-1,-1,-2,-2,-3
1517206886997134,1,-1,0,-1,-1,-2,-1,-2
1517206886997134,0,0,0,-2,-1,0,-1,0
1517206887010143,-3,-1,-2,-1,-1,0,3,0
1517206887010143,-1,-1,-2,-1,0,-2,0,-1
1517206887016647,-2,0,-1,-1,1,0,-1,-1
1517206887016647,-1,-2,-2,-2,0,-2,-1,0
1517206887033164,1,-1,-1,-1,-1,-1,-1,1
1517206887033164,-1,-3,-2,-1,-2,-2,0,-1
1517206887034660,-1,-2,-1,-1,-1,-1,-2,0
1517206887034660,0,-2,-3,0,-2,-1,-2,-1
1517206887055714,0,-2,-3,-1,-1,0,-2,-2
1517206887055714,-1,1,0,0,1,3,-2,0
1517206887057216,-1,-2,0,-1,-1,-2,-1,0
1517206887057216,-1,-1,-2,0,-1,-1,-1,-1
1517206887078231,-2,-1,-2,-1,-1,0,-2,-2
1517206887078231,-1,0,0,-2,-1,0,-3,-2
1517206887079733,-1,-2,-2,0,-2,1,1,-1
1517206887079733,-2,-1,1,0,-1,-1,0,-1
1517206887093242,1,-1,-2,-1,0,0,-1,-2
1517206887093242,-1,-1,-1,-1,-1,-3,0,-3
1517206887094743,-1,-2,-2,-2,-2,-1,-2,-1
1517206887094743,0,-2,-2,-1,-1,-1,0,-1
1517206887116257,-1,-2,-1,0,-2,-1,-3,0
1517206887116257,0,-1,-2,-2,-1,0,-1,-1
1517206887121789,0,-1,-1,-1,-2,0,-1,-1
1517206887121789,1,-1,0,-1,-2,-3,0,-3
1517206887129767,-2,-1,-2,-1,0,-2,1,-2
1517206887129767,-1,-2,0,-2,-2,0,-2,-3
1517206887136782,-1,-1,-1,-1,-1,-2,-1,-2
1517206887136782,-2,0,-1,-2,0,-1,-2,1
1517206887152831,0,0,0,-1,-2,-2,0,0
1517206887152831,-2,-1,-3,-1,-1,-1,-2,-1
1517206887154833,-1,-1,0,0,0,-1,-1,-1
1517206887154833,-3,-2,-2,0,-2,1,-1,0
1517206887176334,-1,0,-1,-3,-2,-3,-3,-2
1517206887176334,-2,-1,-2,0,-1,-1,-1,-1
1517206887177835,1,-1,-1,-3,-1,-2,-3,-1
1517206887177835,0,-1,0,-1,-1,0,-1,0
1517206887189871,0,-1,0,-1,-1,0,-1,-1
1517206887189871,1,-1,0,0,0,-2,0,0
1517206887196858,0,-1,-1,-1,-1,-1,0,-1
1517206887196858,-1,-1,-2,-2,-2,-1,-2,-2
1517206887213383,-2,-1,-1,-1,1,-1,0,-1
1517206887213383,-2,0,1,0,-4,-2,0,-1
1517206887214873,0,-2,-1,1,0,-2,-2,-1
1517206887214873,0,-1,0,-3,-1,2,-1,-1
1517206887235885,-1,-2,-2,-1,-3,-2,0,-1
1517206887235885,-2,-1,-2,-1,-1,-1,-1,-1
1517206887237399,0,-2,-1,-1,1,-1,0,-1
1517206887237399,-1,0,-1,1,-1,-1,-1,-1
1517206887249888,-1,-1,0,-2,0,0,-1,1
1517206887249888,-1,-1,-1,-1,-1,-1,-1,0
1517206887256890,-3,-3,-2,-1,-2,-2,-1,0
1517206887256890,-2,0,1,0,0,-1,-1,-3
1517206887272928,-1,-2,1,1,-1,-1,-3,-2
1517206887272928,0,-1,-1,0,1,-1,-3,-2
1517206887274903,-2,-1,-3,0,0,-2,-1,-1
1517206887274903,0,-2,-1,-1,-2,-2,-1,-1
1517206887295936,-1,0,-4,-3,0,-1,0,1
1517206887295936,-1,-1,-2,-3,-1,1,-1,-1
1517206887296920,-1,0,-1,-2,-1,1,-2,-1
1517206887296920,-2,-2,-1,-1,-1,-1,-2,-2
1517206887309427,-1,-1,-1,2,0,-1,-2,-1
1517206887309427,-1,-1,-1,0,-1,0,2,-1
1517206887318435,-2,0,-1,-2,-1,-2,-1,-1
1517206887318435,0,0,-1,-2,-2,-2,-1,0
1517206887332944,-2,-2,-2,-1,-1,-1,-1,0
1517206887332944,-1,-3,0,0,-2,-2,-2,0
1517206887334450,-2,-1,-1,-2,0,0,-1,-1
1517206887334450,-1,-2,-1,0,0,-1,-2,0
1517206887355479,-1,2,-1,-1,-1,-1,-4,-2
1517206887355479,0,-2,-2,-3,-3,-2,-1,-1
1517206887356970,-2,-1,-2,-2,-2,-1,0,-2
1517206887356970,-1,-4,-1,0,-2,0,1,0
1517206887369484,0,-3,-1,1,-1,-1,0,-2
1517206887369484,-1,0,0,-1,-2,-1,-2,1
1517206887378478,0,0,0,-1,-2,-2,-1,-1
1517206887378478,-1,0,-1,-3,-2,-2,-1,-2
1517206887392988,-1,-1,0,-2,0,-1,0,-1
1517206887392988,-1,-2,-1,-3,0,-2,-1,-2
1517206887395020,0,-1,0,0,-1,1,-1,1
1517206887395020,0,0,-2,-1,0,-1,-1,-1
1517206887415515,-1,0,-2,-1,-2,-3,0,-1
1517206887415515,-2,-1,-1,-1,-2,-1,-1,-1
1517206887417016,0,1,-2,-2,1,-1,-1,2
1517206887417016,-2,-1,-1,0,-2,0,-3,-1
1517206887429512,-2,-1,-1,0,0,0,-1,-1
1517206887429512,0,-1,-2,-2,0,0,1,-1
1517206887438019,0,-1,-1,-2,-1,-2,-1,-1
1517206887438019,0,0,-1,-1,-1,-3,1,-1
1517206887453044,0,-1,-1,-3,-2,0,-3,-1
1517206887453044,-2,-1,-1,0,0,-1,-1,0
1517206887454530,0,-2,0,-1,-2,-2,-1,-2
1517206887454530,-3,-3,0,-2,-2,-1,-1,0
1517206887475556,-1,2,-1,-1,-2,-1,-1,-2
1517206887475556,2,1,1,0,0,-1,-1,-2
1517206887477554,1,0,-1,-2,-2,0,1,-1
1517206887477554,-6,-2,-3,-1,-1,-2,-1,-2
1517206887489079,-2,-3,0,0,-1,-1,-2,1
1517206887489079,0,-1,-1,-1,-2,1,-2,0
1517206887498061,-4,-2,-1,-2,-2,-3,-2,-3
1517206887498061,-1,-1,0,-1,0,1,-1,0
1517206887513071,-1,1,-1,0,-2,0,1,1
1517206887513071,2,1,-1,-1,0,0,-1,1
1517206887514573,-7,-1,0,0,0,-2,0,1
1517206887514573,-2,0,-1,-2,-1,-3,-2,-2
1517206887535604,-4,-4,-2,-1,-2,-2,-1,0
1517206887535604,-2,-4,-1,0,-1,-2,-3,-2
1517206887537089,1,-2,-1,-1,0,-1,-1,-1
1517206887537089,0,-2,-1,0,0,0,-1,0
1517206887549098,0,1,1,-1,-1,-2,0,-1
1517206887549098,-2,1,-4,-6,-3,0,-3,-2
1517206887573626,0,1,-2,0,-2,-1,-2,-3
1517206887573626,-2,3,-1,1,0,1,0,1
1517206887574634,4,-7,0,1,0,-2,1,-2
1517206887574634,-3,-4,-1,-2,-1,0,0,0
1517206887576117,0,0,-2,-1,-1,1,-1,0
1517206887576117,3,0,1,0,0,-1,2,0
1517206887595631,-4,-1,-1,-4,-1,1,-3,0
1517206887595631,-5,-1,-2,0,0,1,-3,-1
1517206887597133,-2,-8,-4,0,-2,-2,-2,-3
1517206887597133,0,0,1,-2,0,-2,-1,-1
1517206887609143,1,3,0,0,0,-2,-2,0
1517206887609143,-2,2,-1,-3,-1,-2,2,0
1517206887618152,-2,1,0,1,0,1,-2,-4
1517206887618152,-1,-2,-2,-2,-2,-1,-1,-1
1517206887633184,0,-2,0,-4,0,-2,0,-1
1517206887633184,-9,-6,1,2,0,-1,-1,0
1517206887634684,0,3,1,1,0,-2,0,4
1517206887634684,-6,-5,-6,-6,-1,-2,-3,-5
1517206887655672,-11,0,-3,-3,-2,-3,-1,-2
1517206887655672,6,0,-1,-1,-3,-3,-3,-3
1517206887657174,-3,-5,0,0,-1,1,-1,-1
1517206887657174,-3,-2,1,1,-2,1,0,-1
1517206887669182,4,-2,-4,-3,-3,-2,-3,-2
1517206887669182,1,-1,-2,-1,0,-1,-1,0
1517206887678189,1,2,1,-4,-1,-3,-2,-1
1517206887678189,1,-1,1,1,-1,-2,-2,-1
1517206887693199,3,3,1,-1,1,1,0,1
1517206887693199,0,-4,-2,0,-2,0,-2,-3
1517206887694702,1,-2,0,1,0,1,0,1
1517206887694702,12,3,-3,-2,-3,-2,-2,-3
1517206887715715,-15,-11,2,8,-1,0,1,-2
1517206887715715,-2,-1,-7,-15,-1,-1,-1,-1
1517206887717227,5,4,2,-1,-2,-1,-1,0
1517206887717227,-4,-3,-5,-4,0,0,-2,-2
1517206887738240,2,6,-3,3,1,1,-2,-2
1517206887738240,3,-5,0,2,0,-2,-1,7
1517206887739757,-5,-5,-2,-2,-3,-2,-3,-15
1517206887739757,-12,3,-2,-2,-2,-1,0,4
1517206887753252,9,1,-1,-1,-3,-2,-4,-3
1517206887753252,-1,-5,0,-1,0,-3,-2,-6
1517206887754766,-2,0,1,-1,1,0,2,4
1517206887754766,1,-2,1,1,0,-1,-2,-5
1517206887775758,-1,-3,-3,-4,-2,-1,0,5
1517206887775758,3,6,1,2,-1,0,0,2
1517206887777260,0,-4,-3,1,-1,1,-2,0
1517206887777260,-3,0,1,-2,-1,-2,-1,-2
1517206887797773,2,-1,0,0,-1,-2,-1,1
1517206887797773,6,0,1,2,-2,0,-1,-4
1517206887799774,9,5,-4,-3,0,0,0,3
1517206887799774,-8,1,0,-2,0,0,1,3
1517206887813305,0,-2,0,1,1,0,-1,-3
1517206887813305,-15,-4,-4,3,-1,-3,-2,-6
1517206887814795,20,-1,-2,-11,-5,-3,-1,1
1517206887814795,2,3,-10,2,2,0,-4,-4
1517206887835322,1,4,16,5,0,-2,-1,-3
1517206887835322,-3,12,2,2,2,1,1,4
1517206887837324,-40,-35,-10,-6,-6,-6,-3,-8
1517206887837324,10,4,2,0,0,0,2,4
1517206887857815,4,-1,-10,-5,-2,1,-1,-2
1517206887857815,-9,6,1,-2,-3,-2,-5,-4
1517206887859817,5,13,2,1,-1,2,5,7
1517206887859817,4,-15,1,-1,0,0,7,6
1517206887872847,-3,-4,-7,-4,-4,-3,-9,-13
1517206887872847,5,12,2,-2,0,-1,-1,-2
1517206887880832,-6,-22,-3,3,1,0,-2,-2
1517206887880832,-3,3,1,-1,-3,0,0,-3
1517206887895842,9,-4,-2,-3,-1,0,6,13
1517206887895842,-16,-5,0,2,-1,-1,-1,-3
1517206887897365,4,10,2,5,0,-2,0,-6
1517206887897365,-9,-8,-6,-12,-5,-2,-2,-5
1517206887917868,2,2,-2,0,-1,-2,0,18
1517206887917868,-1,-8,0,-3,0,3,1,-15
1517206887919874,-1,11,2,0,0,1,-3,0
1517206887919874,-13,-6,0,2,-2,-2,-4,-6
1517206887932369,-4,-3,-1,-2,-2,-1,2,6
1517206887932369,-1,-9,-6,-2,-1,-3,3,-7
1517206887939383,-4,2,-2,-1,-1,-2,-7,1
1517206887939383,7,7,-2,-1,0,0,-1,2
1517206887955394,-21,-8,2,-2,-3,-3,-7,-6
1517206887955394,4,0,-2,0,-1,0,2,6
1517206887957400,-2,-7,-2,-2,-2,0,1,-6
1517206887957400,7,8,-1,0,-2,-2,-5,0
1517206887978402,-10,-7,-3,1,-1,-3,-1,-7
1517206887978402,0,-6,-6,-13,-3,-1,1,4
1517206887979402,5,6,1,-1,0,0,-4,-14
1517206887979402,-8,-10,-1,1,-2,-3,1,2
1517206887992413,3,11,2,-1,2,3,1,-3
1517206887992413,14,6,5,5,1,1,2,5
1517206887999426,-10,-6,-6,-3,-2,-4,-1,18
1517206887999426,1,7,1,-1,1,0,1,-16
1517206888015428,4,-6,-2,-2,-2,-3,-12,-9
1517206888015428,-3,-3,-1,1,0,-2,-5,-7
1517206888017428,9,9,2,1,3,2,5,14
1517206888017428,0,-9,-7,-4,-3,-1,-2,0
1517206888037952,-2,1,4,1,-2,-1,2,1
1517206888037952,2,4,2,0,-1,-1,-3,-9
1517206888039445,-5,-13,-2,1,0,-1,-4,-1
1517206888039445,0,5,0,1,-2,-1,-3,-2
1517206888052473,1,1,-4,-3,0,0,-1,-5
1517206888052473,-2,-3,-1,1,-1,-2,4,9
1517206888059460,0,1,-1,1,1,-1,3,-4
1517206888059460,-1,-10,2,1,0,-2,-3,2
1517206888075479,-8,-3,-6,-1,-1,-1,7,-15
1517206888075479,4,0,-2,-2,-3,-1,0,8
1517206888077471,1,10,3,0,0,-2,-3,-14
1517206888077471,2,-2,-1,1,-1,-2,-5,0
1517206888097985,-8,-12,-7,1,0,-1,3,0
1517206888097985,0,-2,14,1,-2,-2,-4,4
1517206888099496,-2,-4,-17,-7,-2,-3,1,-7
1517206888099496,0,3,11,2,0,2,-2,6
1517206888112495,6,5,-1,0,-2,-2,0,2
1517206888112495,-1,-4,-2,4,1,2,7,-3
1517206888119510,0,5,-2,-6,-4,-1,1,9
1517206888119510,-9,-7,-5,-1,-2,-5,-1,-9
1517206888135535,4,9,4,-2,-3,-1,-5,-1
1517206888135535,-5,-16,-1,-1,1,1,0,9
1517206888137513,-11,-5,-5,-3,-2,-3,-5,-20
1517206888137513,-3,1,-4,0,0,-1,-1,-5
1517206888158037,3,3,1,-2,0,-1,-3,-4
1517206888158037,-3,0,-2,-2,-4,-3,-5,2
1517206888159528,1,-3,9,8,2,3,5,7
1517206888159528,7,1,-7,-7,-2,0,1,-7
1517206888172553,3,1,-5,-4,-1,1,1,7
1517206888172553,-5,0,-1,0,0,-3,-10,-13
1517206888179043,1,-5,-1,-2,-2,-2,0,6
1517206888179043,3,-9,-4,4,1,-1,-1,11
1517206888195568,2,19,11,-4,0,1,0,-15
1517206888195568,0,-7,-9,0,-3,-1,0,4
1517206888197055,-7,-1,9,0,-2,-5,-4,-1
1517206888197055,-6,13,-5,1,1,0,1,5
1517206888218071,4,-12,-10,-5,-5,-4,-2,2
1517206888218071,-2,11,11,2,0,0,-3,-8
1517206888219583,5,7,10,4,-3,-3,-7,-8
1517206888219583,-6,-8,-6,-8,0,1,15,4
1517206888231588,13,1,0,1,-1,-1,-7,11
1517206888231588,2,15,-13,-2,-3,-5,-14,-18
1517206888240602,-3,-10,7,1,0,2,1,0
1517206888240602,-2,-8,-3,5,0,-1,-13,-9
1517206888255600,-2,-13,-9,-4,-1,-2,25,23
1517206888255600,-4,16,10,0,-1,-2,-11,-21
1517206888257098,4,-20,-20,-3,-1,-1,0,4
1517206888257098,-5,-2,14,1,-3,-3,-10,-19
1517206888278115,-6,10,-10,-5,-1,5,28,28
1517206888278115,-1,-8,-11,2,-1,-6,-48,-32
1517206888279614,-2,3,-8,-14,-1,0,-7,-8
1517206888279614,5,15,10,6,2,4,5,10
1517206888292124,-6,-32,-5,-1,-3,-1,3,-15
1517206888292124,11,-6,-11,-9,-3,0,23,19
1517206888300636,-6,0,2,-2,-5,-5,-9,-2
1517206888300636,-10,-12,-8,0,-1,0,3,8
1517206888315649,14,17,28,7,0,-3,-9,-1
1517206888315649,-16,-18,-23,-1,-1,1,17,19
1517206888317150,5,12,4,-11,-2,-2,-12,-19
1517206888317150,9,3,-4,-5,-5,-2,23,12
1517206888338177,-3,-25,10,9,1,-5,-45,-32
1517206888338177,-2,-1,-5,-11,-2,-2,1,-4
1517206888339678,7,12,-11,2,0,3,-17,-5
1517206888339678,-16,-25,-15,-3,-3,-5,6,8
1517206888351688,-4,-4,-12,1,-1,3,-2,-12
1517206888351688,9,-21,23,4,3,1,5,7
1517206888360673,-12,27,-8,-7,-5,-3,-2,14
1517206888360673,3,14,-11,-6,-4,-3,-9,-17
1517206888375692,4,16,4,5,2,1,23,16
1517206888375692,2,1,12,1,-5,-2,-35,-8
1517206888377187,-2,-20,-27,-21,1,2,13,-10
1517206888377187,9,-19,4,3,0,3,13,20
1517206888398205,-20,45,0,-8,-5,-7,-25,-27
1517206888398205,0,-22,15,7,1,3,22,2
1517206888399699,9,-12,-21,12,2,-1,4,5
1517206888399699,-22,-13,0,-1,0,2,-3,-2
1517206888411707,2,-6,24,-2,-3,-2,-10,4
1517206888411707,-2,34,23,7,0,0,14,4
1517206888420731,9,-4,-31,1,4,6,17,19
1517206888420731,-24,-36,-10,-21,-10,-8,-8,-17
1517206888435746,5,2,20,14,5,-1,-14,-9
1517206888435746,-16,0,27,9,5,7,5,-4
1517206888437225,21,-31,-18,-14,-8,-8,4,24
1517206888437225,-14,58,-7,20,2,0,-27,-40
1517206888458250,-11,-13,-39,-17,-4,1,9,-1
1517206888458250,9,-22,-12,-14,-5,-4,6,14
1517206888459759,-28,-12,-16,8,1,0,-7,-26
1517206888459759,3,-34,-17,-3,4,4,11,43
1517206888471750,1,41,36,4,-5,-6,-6,-33
1517206888471750,4,-2,-25,1,-2,-2,5,2
1517206888480756,29,48,20,-2,-2,3,17,16
1517206888480756,19,-27,-50,4,-1,-6,-4,-15
1517206888495269,-30,4,36,-5,6,8,10,5
1517206888495269,8,33,-24,-3,-3,-4,14,43
1517206888497267,5,-48,9,-11,1,0,-11,-25
1517206888497267,0,4,20,12,4,2,2,3
1517206888518283,21,-29,14,14,3,3,1,12
1517206888518283,-4,36,-41,-17,0,-1,-3,19
1517206888519798,-11,-22,33,14,-1,-1,1,-30
1517206888519798,-12,12,17,1,1,0,2,0
1517206888531795,-6,-24,-36,1,-2,-2,4,9
1517206888531795,-3,36,15,-12,-6,-4,-12,1
1517206888540813,-25,-28,-30,16,9,4,-14,20
1517206888540813,13,1,49,-8,-8,-9,-11,-49
1517206888555812,-33,-15,-44,-3,-4,-3,-19,-30
1517206888555812,7,-36,27,2,0,1,16,4
1517206888558314,-24,36,-6,-8,-9,-11,-8,-7
1517206888558314,12,41,0,-6,-2,-3,-8,23
1517206888578325,-5,-31,-47,-15,-8,-7,2,8
1517206888578325,32,59,-5,20,7,4,9,-9
1517206888579842,-44,-76,24,-9,-7,0,-5,-11
1517206888579842,91,90,8,12,5,4,-18,46
1517206888591835,-83,-85,-10,-10,-9,-11,-17,-71
1517206888591835,-36,-60,1,-6,-2,-1,0,-5
1517206888600857,-17,12,-46,-6,-1,1,10,-9
1517206888600857,43,54,5,16,7,4,7,16
1517206888615360,29,39,43,-38,-9,-1,-1,18
1517206888615360,41,22,-6,15,3,2,-6,-2
1517206888617375,-9,-66,-39,5,0,-1,9,51
1517206888617375,-35,25,-47,-4,-2,1,-9,-51
1517206888637877,39,43,77,20,8,7,19,38
1517206888637877,-25,-64,-55,-17,-10,-9,-22,-25
1517206888639878,45,127,53,12,0,-4,-27,-32
1517206888639878,-43,-64,-55,-19,-3,2,19,33
1517206888651886,13,-16,-35,-1,1,1,2,-30
1517206888651886,4,48,16,17,7,7,7,-4
1517206888660885,-12,-46,13,-10,-6,-8,-6,0
1517206888660885,-4,-9,40,-10,-7,-1,-4,-18
1517206888675394,-5,15,-101,8,0,-2,0,-19
1517206888675394,-23,-109,26,-30,-6,-5,7,15
1517206888677395,-14,-21,-49,5,1,-1,-21,-32
1517206888677395,-9,-17,-40,-19,-7,-7,-9,-25
1517206888697920,4,-5,-4,8,3,4,20,62
1517206888697920,7,2,-52,-4,-6,-4,-4,-11
1517206888699411,32,17,57,-2,1,1,6,21
1517206888699411,-31,-70,21,17,9,2,-12,-22
1517206888720453,-1,-20,0,-13,-6,-7,3,27
1517206888720453,-17,76,10,19,6,-1,-39,-90
1517206888722447,51,72,16,-13,-6,-1,16,38
1517206888722447,-8,-21,22,14,6,4,-5,-8
1517206888735450,7,69,-19,10,4,-1,-15,-20
1517206888735450,10,23,-12,-7,2,7,40,74
1517206888737438,-28,-21,4,-17,-3,0,-7,-64
1517206888737438,16,30,-2,-13,-5,-2,11,6
1517206888759461,18,35,22,14,4,2,-1,10
1517206888759461,-45,-101,1,6,0,-2,-8,8
1517206888760955,10,54,-17,-2,-3,-4,1,5
1517206888760955,-13,-16,-14,4,-1,-4,18,8
1517206888780477,1,-29,34,-26,-7,-2,-23,-15
1517206888780477,18,59,80,27,4,2,16,27
1517206888781969,-37,-33,28,-6,0,-4,-3,-5
1517206888781969,-11,-36,0,-15,-4,-3,-34,-34
1517206888795486,10,32,10,6,-1,-3,9,18
1517206888795486,3,40,8,-11,-5,-2,-14,-19
1517206888796979,-5,-40,0,2,5,6,9,8
1517206888796979,-5,13,38,5,-3,-2,21,20
1517206888817995,17,-25,-42,-7,-1,1,14,8
1517206888817995,2,-7,-21,-2,-3,-2,-16,-6
1517206888819520,4,72,61,16,2,2,6,-2
1517206888819520,1,-3,-58,-26,-10,-6,12,-6
1517206888840510,-12,-15,-12,-19,-8,-3,-7,26
1517206888840510,-2,-37,6,2,-2,-6,3,-66
1517206888842011,24,-3,12,14,10,7,15,38
1517206888842011,3,-7,9,13,3,3,-12,-4
1517206888855030,-49,-48,60,-1,-5,-6,1,-23
1517206888855030,17,3,-45,-22,-3,0,13,30
1517206888861525,25,1,66,15,2,6,20,14
1517206888861525,-23,-17,-42,-12,-8,-6,-21,-14
1517206888878036,9,19,-46,3,2,0,-3,-1
1517206888878036,6,27,14,8,-1,0,0,50
1517206888879541,-18,-18,-14,-6,-3,-6,-6,-8
1517206888879541,11,4,54,9,3,4,17,49
1517206888900553,5,55,7,-14,-5,-3,-17,-35
1517206888900553,-13,-31,-35,-14,-7,-2,-3,11
1517206888902054,24,41,15,18,6,3,-16,-24
1517206888902054,17,-4,-15,-17,-12,-7,8,15
1517206888915063,-38,-2,17,17,6,4,-2,3
1517206888915063,-14,-84,-30,-8,-4,-6,-19,-41
1517206888921571,-25,-7,-28,-3,-4,-4,-5,-3
1517206888921571,-1,14,19,-1,3,3,16,12
1517206888938094,11,-21,-3,-5,-3,-4,-19,-47
1517206888938094,16,64,38,0,-2,0,2,3
1517206888939598,-13,-17,-32,-9,-8,-7,-4,8
1517206888939598,-1,17,32,7,1,-3,-3,-4
1517206888961611,21,25,1,-5,-3,2,25,32
1517206888961611,6,-20,-11,3,1,-5,-25,-12
1517206888962596,-10,-9,-11,2,0,2,-3,-10
1517206888962596,-5,17,33,6,1,-1,-12,-12
1517206888975127,-3,36,-52,-12,-9,-6,5,23
1517206888975127,-6,10,-1,9,1,-3,-3,-17
1517206888981615,-6,-12,-16,-6,-2,-3,-4,19
1517206888981615,8,16,7,-20,-4,-1,-6,8
1517206888998131,15,-14,18,17,5,2,-6,-4
1517206888998131,-17,-15,1,-6,1,2,24,20
1517206888999633,1,22,-26,-25,-7,-4,-2,-5
1517206888999633,-10,34,29,21,5,2,-3,-20
1517206889020657,-2,-49,-3,0,0,-1,0,19
1517206889020657,-10,9,-13,-10,-6,-4,7,-7
1517206889022138,18,12,-27,8,1,1,-8,0
1517206889022138,9,20,3,-10,-5,1,-4,38
1517206889035158,-31,-19,-8,14,1,-1,-8,-15
1517206889035158,-6,-31,9,-5,-1,1,-3,-17
1517206889041667,-9,33,-18,7,-5,-3,7,1
1517206889041667,-3,1,-17,-25,-6,-1,2,10
1517206889058174,-16,-32,4,20,10,5,-4,-8
1517206889058174,8,-1,6,-2,1,2,7,-4
1517206889059666,8,-14,31,-2,-3,-2,14,43
1517206889059666,-20,4,-4,19,5,1,1,-21
1517206889080680,7,-5,-32,-11,-2,-1,3,27
1517206889080680,10,-9,29,3,-2,-1,-25,-19
1517206889082181,-5,-13,-66,-19,-7,-1,20,2
1517206889082181,25,16,63,30,4,-3,-29,-17
1517206889095193,0,-9,-5,-28,-5,0,11,5
1517206889095193,-2,-20,-29,1,1,-2,-5,7
1517206889101710,4,12,-14,24,9,5,1,8
1517206889101710,-11,-36,24,-16,-6,-5,9,-8
1517206889118206,-4,-11,-57,-29,-9,-5,-2,15
1517206889118206,13,30,30,18,4,3,-6,0
1517206889119724,-7,-48,11,-18,-5,-5,-7,-25
1517206889119724,6,5,-20,9,2,-1,-2,13
1517206889140736,9,34,83,9,7,7,-1,3
1517206889140736,10,0,-23,-2,-5,-2,17,-12
1517206889142224,-5,18,15,-10,-3,-2,-13,-16
1517206889142224,29,2,-42,12,2,2,5,10
1517206889155233,14,16,5,3,2,3,10,3
1517206889155233,-19,-28,-43,-10,-5,-7,-7,3
1517206889161738,-14,-8,44,4,-3,-3,-5,-16
1517206889161738,-5,-8,-39,-7,-2,1,6,1
1517206889178249,4,-21,25,5,-3,-6,1,10
1517206889178249,-5,10,-12,7,5,4,-1,2
1517206889179751,1,29,44,6,-2,-2,3,23
1517206889179751,-16,-7,-37,-36,-5,1,-16,-43
1517206889200765,25,26,48,26,5,1,1,13
1517206889200765,-1,42,30,-15,-2,1,-3,-34
1517206889202267,11,14,44,27,11,8,7,12
1517206889202267,2,-38,-41,-20,-10,-6,0,8
1517206889214276,-7,22,6,9,2,-1,1,-34
1517206889214276,7,-43,6,-15,-4,-1,-8,8
1517206889223294,-8,14,-5,17,4,3,-3,-18
1517206889223294,-18,10,4,-18,-8,-7,9,16
1517206889238291,30,-17,-1,10,4,4,3,30
1517206889238291,-5,9,9,-9,-6,-5,0,8
1517206889239816,1,-38,-22,-15,-4,-5,-15,-49
1517206889239816,6,-13,15,14,6,2,-2,-8
1517206889260819,-12,25,-14,-20,-8,-9,0,15
1517206889260819,-5,1,-16,6,-2,-2,3,-3
1517206889262310,-5,4,0,4,0,1,4,13
1517206889262310,12,-30,-37,0,1,-1,3,18
1517206889274318,-5,-10,24,1,-2,-2,-10,-39
1517206889274318,1,37,4,9,3,5,10,27
1517206889283340,-2,-20,-15,2,-4,-7,-16,-15
1517206889283340,6,11,12,-8,-4,0,4,-5
1517206889297835,-2,1,-28,-3,-1,-2,-17,-4
1517206889297835,4,-1,3,11,6,4,15,15
1517206889299851,-17,-36,-5,-9,-3,-2,-21,-36
1517206889299851,-1,-9,-14,16,6,3,4,9
1517206889320372,-1,36,-20,0,-2,-1,-2,-4
1517206889320372,6,-60,-50,-17,-7,-5,0,-13
1517206889322369,0,37,26,5,1,-1,2,9
1517206889322369,-7,-32,35,31,8,3,13,5
1517206889334383,-7,-33,-48,-38,-11,-6,-10,-19
1517206889334383,-12,2,15,4,3,-2,-14,7
1517206889343365,13,-16,-33,-2,-6,0,9,20
1517206889343365,-18,-20,0,-2,-3,1,11,23
1517206889357886,27,2,7,18,5,1,-13,-46
1517206889357886,-3,-7,35,7,4,4,1,18
1517206889359879,-13,-51,-50,-16,-2,-3,-6,-12
1517206889359879,39,28,19,0,-1,-3,-13,-21
1517206889380403,-38,-12,7,11,2,2,1,9
1517206889380403,2,5,44,-18,-12,-9,-5,-2
1517206889382393,-3,22,-33,1,-2,-3,-2,-2
1517206889382393,1,9,-24,-11,0,5,5,20
1517206889394402,6,-1,19,8,3,0,-3,21
1517206889394402,11,18,-3,10,4,1,-13,-46
1517206889403423,-24,11,-3,-20,-5,-2,13,28
1517206889403423,17,7,28,11,0,-4,-38,-21
1517206889417918,13,-16,-10,-6,-1,0,8,-1
1517206889417918,-30,-57,5,18,-1,-2,13,27
1517206889419432,18,-27,2,-7,4,-5,-28,-37
1517206889419432,-6,49,56,-7,-7,-5,1,-3
1517206889440464,-10,-1,-47,0,1,2,2,-1
1517206889440464,-7,6,-19,-13,-9,-5,-1,0
1517206889441936,6,15,40,17,3,2,3,-8
1517206889441936,-7,-5,-14,-16,-7,-5,-10,-25
1517206889453947,-4,-13,21,13,4,1,5,8
1517206889453947,13,20,0,-17,-3,-1,1,-26
1517206889462951,0,-4,-10,-20,-5,0,11,13
1517206889462951,-20,11,-13,9,5,0,-14,-27
1517206889477964,-2,5,27,18,3,3,15,13
1517206889477964,7,3,33,-5,-2,0,-5,6
1517206889479461,23,45,61,16,6,3,15,25
1517206889479461,0,0,-7,3,-2,-1,3,2
1517206889500579,-23,-64,-41,-17,-9,-7,-1,-7
1517206889500579,-9,19,3,-15,-4,-2,-18,-8
1517206889502033,-7,-12,-17,6,1,0,10,5
1517206889502033,-29,-1,5,5,2,3,8,10
1517206889514033,17,6,-5,-14,-7,-4,5,-6
1517206889514033,-22,-29,-62,-22,-4,-3,-11,-17
1517206889523037,20,10,10,3,-2,-1,-2,11
1517206889523037,-24,-35,-23,11,7,1,-3,-14
1517206889538058,-18,27,67,-1,-4,-2,12,6
1517206889538058,11,-20,-100,16,2,-1,1,-1
1517206889539588,-4,-7,5,-23,-8,-2,-3,-11
1517206889539588,11,-5,-22,2,-1,-2,12,26
1517206889560565,0,9,-18,-6,0,-1,1,-3
1517206889560565,-4,31,46,4,1,1,-3,11
1517206889562065,3,-47,-66,-3,0,2,4,8
1517206889562065,-12,24,52,18,3,2,15,52
1517206889574086,5,-1,-39,-29,-7,-5,-27,-47
1517206889574086,0,17,34,1,-7,-7,-4,-10
1517206889583082,-3,-1,-3,-5,-1,-2,4,11
1517206889583082,6,34,8,8,-2,-6,-15,-4
1517206889598091,17,25,66,-8,-5,0,-3,9
1517206889598091,-3,8,-40,8,2,4,13,37
1517206889599592,-7,17,10,0,-1,-3,-22,-21
1517206889599592,0,-30,-21,-16,-8,-8,4,-1
1517206889621130,-31,-7,28,6,-2,-2,-5,32
1517206889621130,14,13,-2,-6,1,1,-1,-39
1517206889623120,-6,23,9,1,-6,0,12,41
1517206889623120,-15,-13,-17,-23,-6,-5,-15,-52
1517206889643122,8,-7,22,17,4,3,0,4
1517206889643122,3,4,-11,-16,-5,-3,-2,12
1517206889644626,-2,-25,-7,2,4,1,9,4
1517206889644626,3,15,16,11,-2,-4,-6,-2
1517206889658142,1,-2,4,0,4,4,-3,-14
1517206889658142,-3,0,20,4,-3,-4,-12,-8
1517206889659635,4,1,-3,-17,-2,-3,-2,-19
1517206889659635,36,18,47,-7,-3,-4,4,6
1517206889680648,-13,-4,-40,-5,1,4,7,1
1517206889680648,7,10,-2,12,7,2,19,33
1517206889682150,-10,-21,-30,-2,-3,-4,-19,-22
1517206889682150,7,3,4,6,2,-1,6,2
1517206889710670,13,-41,-18,15,8,5,-5,-6
1517206889710670,31,46,14,-6,-6,-3,-5,4
1517206889712172,-38,-18,2,-6,-6,-1,5,10
1517206889712172,-5,-12,-4,-3,1,3,0,1
1517206889718175,6,8,-34,11,2,-4,1,-9
1517206889718175,17,-8,-15,-18,-7,-3,3,25
1517206889719717,2,-5,16,5,0,-3,-19,-40
1517206889719717,-4,2,0,-13,-4,-3,0,-3
1517206889741195,-4,0,-17,-7,-4,-2,-7,-3
1517206889741195,-14,-14,-9,9,4,1,8,25
1517206889742693,8,35,7,8,0,-1,-14,-33
1517206889742693,-10,-44,-23,-14,0,0,5,8
1517206889763221,-7,7,4,9,-1,-3,-3,-24
1517206889763221,-5,-1,0,-13,-1,0,7,-1
1517206889764718,2,41,29,16,3,4,14,18
1517206889764718,-28,-48,-65,-8,-3,-2,3,13
1517206889777718,-4,-9,12,14,0,-4,-18,-31
1517206889777718,-14,-7,23,-2,-2,-4,-2,-20
1517206889784234,4,-30,-55,-17,-3,-5,-4,0
1517206889784234,12,18,-7,0,-2,-2,-5,-11
1517206889800744,0,9,-10,-1,1,0,14,17
1517206889800744,-10,-2,42,10,4,4,8,-17
1517206889802258,-12,-17,-3,6,1,2,-16,-18
1517206889802258,18,27,-3,2,-1,3,14,9
1517206889823262,-15,-25,0,-13,-4,-3,-7,-12
1517206889823262,-2,1,-55,4,-3,0,-6,7
1517206889824771,-12,6,16,0,2,-1,16,16
1517206889824771,-1,18,-17,-9,-5,-1,-5,0
1517206889837269,-10,18,20,7,2,1,6,29
1517206889837269,-15,-21,-23,-18,-4,0,-5,-16
1517206889844267,9,5,-6,0,-2,1,10,13
1517206889844267,-23,-43,-21,-3,-4,-5,-27,-23
1517206889860776,10,23,0,-2,0,1,3,6
1517206889860776,2,-14,43,2,-4,-3,1,40
1517206889862279,-20,-1,9,10,0,-4,-13,-39
1517206889862279,15,23,21,-8,1,1,1,-1
1517206889882804,-12,-32,-27,-3,-2,-2,-2,-2
1517206889882804,-8,-2,-21,-3,-3,-2,5,5
1517206889884793,42,14,-10,4,2,5,3,-11
1517206889884793,-28,-17,9,20,-2,-1,2,-1
1517206889897302,4,-8,12,-40,-6,-2,5,0
1517206889897302,-13,45,54,24,10,2,-16,-28
1517206889904337,32,-1,-7,-3,-2,2,12,29
1517206889904337,-16,-13,-10,-3,-4,-4,5,-8
1517206889920340,5,8,-17,12,5,4,8,35
1517206889920340,25,1,29,4,0,-1,-5,-6
1517206889922337,-12,-39,-33,-5,-1,-2,3,1
1517206889922337,-6,-20,-3,3,1,-2,-13,-25
1517206889943336,-7,24,-8,-9,-6,-3,5,8
1517206889943336,-3,-37,3,27,8,5,0,0
1517206889944845,-2,17,32,-21,-7,-5,1,13
1517206889944845,20,-8,-23,-9,-4,-4,-3,2
1517206889957344,14,30,31,7,-2,-3,-6,-7
1517206889957344,-32,-53,-15,-10,-3,-6,-21,-39
1517206889965863,0,20,17,12,3,2,15,22
1517206889965863,2,-2,19,6,2,3,-1,26
1517206889979860,16,7,-1,-4,-4,-4,-14,-46
1517206889979860,-17,30,25,4,0,2,8,-1
1517206889988394,-16,-31,-55,20,1,-5,0,12
1517206889988394,24,15,22,-28,0,1,7,14
1517206890003887,-24,-23,9,20,3,0,-3,-1
1517206890003887,16,-1,-31,-15,-1,1,11,2
1517206890005388,-8,30,39,10,2,1,-17,-14
1517206890005388,7,21,4,10,2,2,7,3
1517206890017401,3,-8,-19,2,2,-1,1,-4
1517206890017401,6,0,12,-4,-1,2,8,17
1517206890024401,20,-1,28,6,2,0,3,18
1517206890024401,-29,9,-18,-22,-6,-5,-6,-32
1517206890047909,6,-20,-41,-6,-5,-5,9,46
1517206890047909,6,21,7,4,2,-1,-39,-82
1517206890049410,12,15,-3,2,3,3,7,3
1517206890049410,-10,-53,7,8,0,-2,-6,12
1517206890062925,-5,3,-15,-7,-5,-6,-8,-15
1517206890062925,4,-8,-5,-11,-1,-1,14,20
1517206890064433,-46,-12,-11,-13,-5,-4,1,-5
1517206890064433,-16,-19,24,32,8,2,-10,-24
1517206890077431,-2,32,6,-29,-5,1,13,27
1517206890077431,-3,-12,-34,6,-2,-4,8,12
1517206890083944,14,-14,17,-21,-5,-2,-21,-32
1517206890083944,8,27,18,17,5,5,18,30
1517206890100449,-9,-6,-56,-8,-5,-3,-5,20
1517206890100449,10,2,31,-4,-3,-5,-13,-18
1517206890101947,17,27,26,7,2,-2,1,7
1517206890101947,-4,-48,-21,-13,-5,-2,12,1
1517206890122965,-4,-3,13,9,4,3,-17,-23
1517206890122965,-3,-12,-28,-5,-3,-1,6,17
1517206890124462,-7,21,20,11,2,2,2,-4
1517206890124462,3,32,36,-5,-3,-4,-5,-4
1517206890136496,31,-12,33,20,2,0,0,-15
1517206890136496,-21,-5,-37,-16,-5,-4,11,30
1517206890146490,17,-15,-36,2,-2,-2,3,2
1517206890146490,-1,18,-11,1,-1,-1,3,33
1517206890160511,8,-27,-10,3,1,0,-13,-68
1517206890160511,9,22,13,0,-3,0,-3,4
1517206890161991,-13,-18,-64,-8,-4,-6,-3,-1
1517206890161991,5,-15,-5,-11,-3,4,7,-11
1517206890183004,-4,35,-5,11,2,-4,11,22
1517206890183004,-13,-11,18,8,2,-3,-22,6
1517206890184514,-7,-6,17,-11,-4,-1,-19,-21
1517206890184514,-1,4,19,23,4,-1,-1,-11
1517206890196524,11,17,39,-30,0,2,4,15
1517206890196524,13,17,-26,-18,-7,-2,7,5
1517206890205529,-23,-4,26,10,3,0,3,22
1517206890205529,13,1,-27,-5,-3,-5,-17,-17
1517206890220534,-8,-33,19,-15,-7,-1,9,51
1517206890220534,-16,-19,-20,1,1,-4,-16,-53
1517206890222032,8,-27,-1,-1,0,0,8,29
1517206890222032,17,80,13,1,0,-3,-16,-33
1517206890243047,-6,-21,-43,13,-1,-1,-2,-4
1517206890243047,-17,-29,94,-12,-2,0,17,31
1517206890244549,2,-23,-63,-8,-6,-4,-19,-32
1517206890244549,8,-10,-40,1,3,1,3,11
1517206890265562,-17,23,13,-9,-1,-2,4,0
1517206890265562,23,7,-25,5,-4,0,-1,-6
1517206890267063,-1,1,19,-5,-2,-2,8,-4
1517206890267063,-5,-37,0,2,-1,-1,2,12
1517206890280573,-15,18,18,-12,-4,-1,6,-50
1517206890280573,42,36,1,4,5,2,-5,13
1517206890282075,-17,1,-39,-12,-4,-3,0,2
1517206890282075,-28,-22,-9,-16,-10,-5,-2,-8
1517206890303089,23,23,34,23,6,0,3,23
1517206890303089,-16,-30,-21,-1,-4,-3,-4,2
1517206890304590,10,23,28,-9,-1,1,8,-12
1517206890304590,-17,2,-14,-7,-2,-6,-13,4
1517206890316598,-1,-25,22,20,3,1,5,9
1517206890316598,0,31,1,-17,2,2,-14,-17
1517206890325623,-24,-49,5,4,-2,-1,-6,12
1517206890325623,20,-13,8,-4,1,4,16,1
1517206890339618,-14,-8,-37,8,2,2,-9,-10
1517206890339618,6,12,6,3,4,2,1,-3
1517206890348122,-2,4,22,7,-2,-2,2,0
1517206890348122,11,22,1,-18,-4,-2,1,8
1517206890363184,5,-6,-44,8,0,-1,-5,-10
1517206890363184,-8,13,21,-3,-6,-7,0,9
1517206890364699,16,15,-9,-2,0,-1,-5,-2
1517206890364699,-12,23,30,8,-2,-2,-4,-2
1517206890376696,-15,-3,-20,-15,-4,1,-12,7
1517206890376696,3,14,43,15,1,0,-7,-24
1517206890385702,-5,-41,-39,-7,-5,-3,0,8
1517206890385702,-15,-17,-54,-10,-6,-6,-9,-13
1517206890400720,9,-8,28,13,3,2,16,30
1517206890400720,-20,-5,-66,-19,-6,-5,-12,-48
1517206890402212,-26,11,21,-2,-1,-3,-7,-6
1517206890402212,9,0,31,13,4,5,2,-1
1517206890423242,-3,-13,23,0,1,-2,-5,-7
1517206890423242,7,-11,-21,-12,-7,-5,15,32
1517206890424737,23,27,18,2,0,2,-3,0
1517206890424737,-14,-1,-48,-5,0,1,-3,-13
1517206890436755,7,21,44,6,-1,-3,6,2
1517206890436755,-1,-21,-63,6,6,6,8,0
1517206890445777,-5,-9,-12,1,-1,-2,-6,9
1517206890445777,0,-32,8,-15,-1,2,2,6
1517206890460789,-1,19,-1,4,-2,0,-3,33
1517206890460789,12,-23,1,-9,0,0,-10,-38
1517206890462288,-7,-5,9,20,7,3,0,2
1517206890462288,5,16,2,-9,-1,0,10,3
1517206890482803,-27,-28,-9,-1,1,-3,-6,-22
1517206890482803,-53,6,-15,1,-2,1,14,14
1517206890484806,15,30,42,6,-1,0,8,10
1517206890484806,-4,-21,-19,-10,-1,-1,-6,3
1517206890496829,-16,-16,2,-1,-2,-3,-9,-34
1517206890496829,9,14,38,7,1,1,12,30
1517206890505819,24,38,-16,-9,0,0,1,-11
1517206890505819,-34,-13,1,13,2,2,8,2
1517206890520333,9,24,27,-3,-1,-1,4,8
1517206890520333,4,9,2,6,1,1,3,8
1517206890522334,-2,-33,-12,4,-2,-1,4,52
1517206890522334,23,25,25,-17,4,0,-22,-75
1517206890543346,6,-17,-38,-12,-7,0,4,-5
1517206890543346,2,32,38,17,2,-2,0,13
1517206890545353,5,-38,-23,-12,-4,-3,1,-10
1517206890545353,8,17,43,13,2,-1,9,13
1517206890565361,-2,-16,-82,-29,-12,-7,-6,-15
1517206890565361,11,-27,18,12,6,1,-6,6
1517206890567362,-7,45,-3,-8,-4,-3,-30,-33
1517206890567362,15,-5,-5,14,-2,-2,-4,7
1517206890580387,-2,29,15,-13,-6,-1,-3,-10
1517206890580387,-1,-28,-17,5,1,0,1,-4
1517206890581873,-21,-15,22,18,3,-1,13,28
1517206890581873,10,34,31,-6,-3,-1,-13,-26
1517206890602909,-11,-10,-31,-18,-4,-3,-6,3
1517206890602909,11,-12,-1,15,5,3,3,5
1517206890604890,1,0,25,-6,0,2,4,-1
1517206890604890,16,0,-23,18,-1,-3,2,15
1517206890625426,-2,-18,-15,-11,1,-1,2,-2
1517206890625426,-5,-13,-38,-11,-5,-4,-6,-10
1517206890627424,3,10,8,-4,-2,-1,3,-5
1517206890627424,6,-17,9,18,7,2,-2,16
1517206890640438,13,17,-12,-7,-7,-6,-7,-9
1517206890640438,-14,-4,-24,-4,-7,-4,1,-3
1517206890641916,6,-33,-23,-14,-1,-1,5,26
1517206890641916,-11,-15,-29,-8,-6,-1,-11,-55
1517206890663433,10,-41,47,14,4,-3,-6,15
1517206890663433,8,42,46,10,3,-2,0,4
1517206890664432,-7,-27,-19,-8,-3,0,5,-7
1517206890664432,-18,-7,-24,-2,-3,-2,-5,14
1517206890685447,37,17,20,11,2,3,2,-8
1517206890685447,-21,5,20,-7,-8,-7,-4,-3
1517206890686947,-14,-28,-29,-16,-2,0,-1,-8
1517206890686947,0,13,32,7,0,0,5,-8
1517206890700463,0,22,5,-7,-2,2,-11,15
1517206890700463,7,1,30,5,1,4,5,12
1517206890701973,31,-22,-24,0,-4,-4,-9,-16
1517206890701973,-9,34,30,1,1,2,6,25
1517206890723489,-7,-44,-39,-8,-6,-3,24,8
1517206890723489,-6,-2,-4,8,2,1,-19,-16
1517206890724974,10,63,50,11,1,2,11,16
1517206890724974,-4,-5,-42,-22,-4,-4,-7,-6
1517206890745003,-19,12,-3,15,7,3,0,1
1517206890745003,22,3,-36,-14,-2,-2,-11,-7
1517206890745498,-7,-15,6,11,0,2,4,-1
1517206890745498,-17,-18,-13,-7,-4,-2,5,5
1517206890759008,4,10,29,3,-1,-2,6,11
1517206890759008,-16,-42,-50,1,-1,-1,3,5
1517206890767504,-7,12,9,-9,-5,-6,-14,-22
1517206890767504,-16,-49,-37,4,-1,0,3,12
1517206890782515,5,-28,-20,-25,-6,-2,-9,-12
1517206890782515,1,18,22,4,0,-1,-1,-6
1517206890783515,-2,4,0,6,-1,-8,-6,-9
1517206890783515,-1,-3,-30,-5,-2,1,7,3
1517206890805034,2,24,51,10,2,-1,12,66
1517206890805034,-2,-2,7,-4,-2,0,-35,-76
1517206890805531,-15,-9,-41,-7,-4,-5,-7,-9
1517206890805531,18,19,65,14,4,2,2,12
1517206890819052,3,-25,-52,-7,-6,-1,-1,-8
1517206890819052,-34,17,-3,-17,-3,-3,-5,9
1517206890827547,-9,5,2,-4,-2,0,-2,-14
1517206890827547,19,29,28,10,-1,-2,0,20
1517206890842057,-5,8,-2,-9,-4,-4,-12,-32
1517206890842057,5,-21,-9,-3,-4,-2,19,37
1517206890843059,-6,2,12,-1,-1,-3,-2,-18
1517206890843059,-1,-14,-15,5,-1,-3,-10,-18
1517206890864572,-6,-6,-3,-15,0,-3,-5,-13
1517206890864572,17,10,7,3,3,2,21,23
1517206890865573,-8,-18,-8,2,3,4,-8,4
1517206890865573,-2,-12,5,1,-1,2,0,-2
1517206890879122,-4,-5,-11,11,-2,-5,-3,-9
1517206890879122,6,-8,6,-20,-2,0,12,11
1517206890887628,-11,-19,-28,4,0,0,-11,-18
1517206890887628,0,20,-15,-25,-6,-2,4,12
1517206890902140,9,14,6,19,5,3,-5,-9
1517206890902140,0,1,24,-6,-2,-1,10,18
1517206890903161,9,1,-23,2,-3,-4,11,-24
1517206890903161,15,0,-18,-9,-1,-3,-9,1
1517206890924713,-22,23,16,13,4,2,-1,-30
1517206890924713,9,0,-45,-20,-7,-4,-3,11
1517206890925711,15,-12,42,2,2,3,1,16
1517206890925711,18,-17,-17,0,-1,-3,-10,-12
1517206890939725,13,34,30,12,3,1,0,-4
1517206890939725,-18,-52,17,8,0,1,4,7
1517206890940723,5,13,5,-4,-2,0,8,3
1517206890940723,-8,-8,-34,-29,-8,-5,-9,24
1517206890962224,0,0,26,12,3,3,-11,-20
1517206890962224,-29,-42,-49,7,-1,-3,-12,-16
1517206890963225,21,13,14,-7,-2,0,5,4
1517206890963225,-15,-3,-25,1,-1,-1,9,20
1517206890984789,23,9,7,-2,1,3,8,-7
1517206890984789,8,29,-17,2,-2,-4,-15,-25
1517206890985791,-15,50,31,9,3,1,3,11
1517206890985791,1,0,-10,-3,1,-1,1,-21
1517206890999814,-12,-24,-43,2,0,-2,6,23
1517206890999814,0,4,-26,-1,-2,-3,7,-2
1517206891000829,32,39,27,0,3,1,-4,-5
1517206891000829,-76,-8,38,0,0,1,-2,-13
1517206891022404,-15,2,-25,-11,-4,-3,-4,2
1517206891022404,-15,-11,28,13,6,4,7,-5
1517206891022881,5,-31,-43,-8,-4,0,2,13
1517206891022881,13,22,62,10,1,1,8,4
1517206891044946,-6,-28,-37,-1,0,-1,7,0
1517206891044946,-11,22,34,11,1,-2,-18,-1
1517206891045445,-6,-9,7,-26,-6,-4,-12,-8
1517206891045445,12,11,-22,10,2,1,9,9
1517206891058955,-3,1,-20,-16,-5,0,-5,8
1517206891058955,26,-8,-29,-1,-1,0,0,6
1517206891067460,-9,-6,20,5,-1,-2,8,7
1517206891067460,4,-16,-16,10,-4,-2,-9,-10
1517206891082484,16,1,18,-18,-5,-4,12,13
1517206891082484,-6,10,-7,0,0,-1,5,8
1517206891082969,-11,-45,-6,7,1,0,-8,-22
1517206891082969,-2,13,-15,-12,-3,1,4,1
1517206891104994,3,-29,-11,-1,-3,-2,-5,1
1517206891104994,19,23,56,6,2,1,-4,-31
1517206891105495,-22,5,-40,-14,-8,-5,-1,2
1517206891105495,21,5,36,13,3,-2,-1,6
1517206891120011,-18,7,26,-2,-1,-2,-8,1
1517206891120011,1,-8,-27,-4,-1,-1,7,12
1517206891120496,7,6,34,13,1,0,3,1
1517206891120496,8,-2,-82,-14,-2,-1,-21,-26
1517206891142526,-11,15,13,-23,-9,-5,-4,3
1517206891142526,-1,-18,28,-3,0,0,1,5
1517206891143012,-1,22,21,11,1,1,-1,5
1517206891143012,-2,11,-17,-18,-4,-3,2,7
1517206891165028,-3,-12,9,15,1,3,1,-2
1517206891165028,-24,-26,-59,-15,-4,-2,0,-28
1517206891165528,9,34,31,7,3,0,-1,-3
1517206891165528,20,-33,1,4,-1,-1,4,11
1517206891179051,-27,-7,2,3,-2,-3,-10,-17
1517206891179051,10,3,16,-4,-5,-4,13,29
1517206891187043,3,33,-16,-6,1,-1,-17,-8
1517206891187043,-14,-34,21,5,-2,-2,-3,-17
1517206891202068,1,-17,-19,10,4,0,-6,-3
1517206891202068,23,26,14,11,-1,2,3,17
1517206891203054,-16,-52,5,1,-1,0,9,12
1517206891203054,-9,13,16,-5,1,-1,5,6
1517206891225089,21,25,27,12,-1,1,-11,-10
1517206891225089,-8,-15,-41,-20,-6,-6,-9,-4
1517206891225570,1,-24,-4,-1,-2,-1,6,41
1517206891225570,9,-22,-1,12,-1,-4,-15,-64
1517206891239100,-10,1,42,-11,1,1,3,-4
1517206891239100,9,6,-2,10,2,3,4,2
1517206891247590,19,63,16,-7,-6,-4,-3,-1
1517206891247590,-17,-18,-37,0,-3,-1,5,8
1517206891262655,13,2,1,-8,-2,1,0,6
1517206891262655,-6,5,12,15,1,-3,-17,-22
1517206891263135,-7,-17,-46,-28,-5,-5,-7,-11
1517206891263135,1,-3,53,9,0,-1,3,11
1517206891285168,11,3,-10,6,3,0,5,-8
1517206891285168,-14,-15,-12,2,-5,-3,-1,28
1517206891285652,0,25,52,-7,3,2,-6,-23
1517206891285652,0,20,15,7,1,2,5,17
1517206891299184,8,-5,-20,-9,-6,-6,-22,-1
1517206891299184,2,-21,18,-1,3,1,3,-35
1517206891307166,-6,-12,-49,-2,-1,0,9,1
1517206891307166,1,11,5,-1,4,4,2,17
1517206891322207,5,23,23,15,1,-1,-1,-5
1517206891322207,3,4,1,-17,2,2,0,5
1517206891323208,-8,-22,6,1,-2,1,-3,-4
1517206891323208,-15,-20,-47,1,2,3,5,-2
1517206891345696,7,-4,0,10,2,-2,-3,-11
1517206891345696,1,23,31,14,2,0,7,12
1517206891346195,-13,-43,-43,-25,-9,-10,-17,-22
1517206891346195,-3,-8,39,3,2,0,-1,2
1517206891359213,19,0,-7,3,-3,-4,-3,-2
1517206891359213,-15,12,-4,-12,-4,1,8,49
1517206891374737,-13,11,0,27,5,1,-10,-57
1517206891374737,6,1,-3,-18,-3,-5,-21,-11
1517206891382220,-39,-58,-45,-14,-4,-4,-4,-10
1517206891382220,14,31,8,13,3,-1,-7,-14
1517206891383220,-19,-24,2,7,2,2,5,21
1517206891383220,1,32,8,-18,-5,-3,1,-2
1517206891404738,2,0,10,0,1,4,10,13
1517206891404738,-7,17,-2,2,0,0,-4,-10
1517206891405736,1,-32,-42,1,-1,-3,5,6
1517206891405736,4,-7,-27,5,1,1,4,2
1517206891419246,4,14,21,-13,-4,-2,2,11
1517206891419246,-10,-17,10,14,0,-2,-3,-10
1517206891427281,7,38,-19,-14,-3,0,7,-14
1517206891427281,9,5,-3,-4,-4,-5,-5,14
1517206891442315,-25,-35,-9,-4,-6,-4,-3,-13
1517206891442315,12,-9,-18,-6,-3,-3,-4,-1
1517206891443793,-4,-12,11,-5,0,-2,7,5
1517206891443793,-10,-11,1,1,-2,-4,-5,-12
1517206891464807,-5,23,-28,2,1,1,0,-5
1517206891464807,-3,-6,18,-9,-5,-8,9,-1
1517206891465307,2,21,-6,6,-1,0,-1,10
1517206891465307,-8,-11,10,-9,-5,-3,-2,1
1517206891479328,5,24,15,5,6,2,-3,-2
1517206891479328,-4,-33,-25,0,-3,-4,10,8
1517206891487332,25,16,21,-11,-3,0,-6,18
1517206891487332,-11,6,-8,3,-1,0,-13,-36
1517206891502337,1,-20,-34,-7,-3,-1,11,15
1517206891502337,12,8,41,4,0,3,1,-5
1517206891503335,-14,-11,-32,16,3,0,-3,13
1517206891503335,22,-6,4,-15,0,2,14,40
1517206891524866,8,24,28,8,-1,-5,-25,-66
1517206891524866,-8,-16,-38,-22,-6,-3,0,-6
1517206891525350,12,-6,31,6,2,3,3,6
1517206891525350,-15,15,26,8,-1,-1,-2,1
1517206891547866,12,26,-18,2,1,0,8,17
1517206891547866,-16,-7,26,0,-1,0,-7,-2
1517206891548872,11,-36,-30,-4,-5,-2,0,-10
1517206891548872,-7,-7,-46,-2,-3,-3,-8,4
1517206891562386,-11,15,44,1,1,-1,-14,-8
1517206891562386,7,-19,-44,-3,-1,-1,-3,12
1517206891562888,-17,21,15,-11,-4,-4,-2,-11
1517206891562888,8,11,23,8,3,2,4,-8
1517206891584895,-7,-28,-14,-19,-5,-2,8,20
1517206891584895,-5,0,-26,12,5,5,-4,-37
1517206891585394,3,28,29,-6,-1,-1,6,7
1517206891585394,13,-8,-9,-2,-3,-2,1,4
1517206891607909,-19,-11,-9,4,2,-2,-1,-3
1517206891607909,2,-8,-39,-15,-4,-2,-3,12
1517206891608909,15,22,22,14,3,1,0,-2
1517206891608909,0,-10,11,5,0,0,10,-19
1517206891622428,14,-15,12,4,-1,3,5,12
1517206891622428,-5,18,6,0,0,0,1,3
1517206891629925,5,1,-4,5,0,0,-3,6
1517206891629925,-21,-18,-33,-10,-1,-5,-11,-3
1517206891644937,4,25,7,-2,-3,-4,0,-3
1517206891644937,-11,-5,28,10,2,3,4,9
1517206891652443,-31,7,19,2,-3,-5,-18,26
1517206891652443,-14,-15,16,3,0,-2,-6,-41
1517206891667951,14,6,-37,-25,-8,-2,12,10
1517206891667951,6,57,47,-1,-2,-1,-12,-19
1517206891668951,13,-31,-43,-3,-1,-3,6,14
1517206891668951,-6,17,61,3,-2,-3,-11,0
1517206891682461,16,-20,-68,-3,-1,-2,-3,4
1517206891682461,2,13,18,-10,-6,-3,-6,-10
1517206891682961,3,0,9,1,0,1,3,0
1517206891682961,-4,13,-5,6,2,0,1,4
1517206891704982,-17,-38,7,7,2,3,0,-3
1517206891704982,7,6,-1,-5,-2,-3,-2,6
1517206891705477,-3,-5,-9,3,2,1,12,-4
1517206891705477,4,-17,1,-6,-4,-2,-7,6
1517206891727995,-5,22,21,-12,0,-1,-5,18
1517206891727995,-9,-10,-22,-9,-3,-2,4,13
1517206891728995,-1,-8,27,13,5,4,-3,-26
1517206891728995,-2,-1,-22,-9,-3,-3,-1,20
1517206891742003,23,7,28,10,-1,-2,-9,-29
1517206891742003,12,18,-4,2,3,0,1,10
1517206891743006,-23,-37,2,-4,-3,-2,-5,-13
1517206891743006,5,4,-7,1,-3,-1,8,6
1517206891765019,-17,-16,-6,3,1,-1,-5,-14
1517206891765019,-1,-3,1,-3,-3,-5,-2,5
1517206891765519,19,22,-11,5,0,-1,-6,-4
1517206891765519,-26,-4,-2,-22,-6,-3,4,-1
1517206891788049,-7,19,44,18,5,5,5,15
1517206891788049,11,-31,-75,-33,-8,-4,-6,-20
1517206891789061,-31,-1,-13,-2,-2,-3,-5,5
1517206891789061,42,3,-10,7,3,1,2,6
1517206891802058,-7,7,22,-3,-5,-5,-8,-5
1517206891802058,0,5,18,16,6,2,2,14
1517206891803059,7,-23,-2,-11,-9,-4,-4,-9
1517206891803059,0,26,-13,-4,1,1,4,8
1517206891824583,-31,-9,-46,0,-2,-3,-5,-19
1517206891824583,1,-21,-3,-3,-4,-3,-2,0
1517206891825584,10,19,1,-10,-4,-1,10,13
1517206891825584,0,45,42,20,5,3,-4,3
1517206891848580,-6,-4,-26,-3,-2,-2,6,-10
1517206891848580,-10,-3,22,1,4,3,3,-6
1517206891849589,-5,11,-7,5,2,0,1,4
1517206891849589,3,-27,0,-8,-5,-5,-7,-18
1517206891862588,7,14,9,12,4,0,11,21
1517206891862588,3,-1,17,0,-5,-3,-4,-9
1517206891863093,-6,-35,9,-11,-3,-3,-2,-13
1517206891863093,3,42,11,1,-2,2,8,19
1517206891884616,4,7,9,-11,-2,-1,-3,-6
1517206891884616,3,-30,8,1,3,2,1,8
1517206891885605,15,-1,34,9,1,4,2,-5
1517206891885605,-2,13,-18,-11,0,-4,-1,3
1517206891908121,-26,-12,16,-1,-2,0,8,17
1517206891908121,-15,3,-27,-8,-8,-5,-22,-38
1517206891908621,12,-6,2,-4,-2,-1,10,23
1517206891908621,-2,3,22,17,2,1,-12,-19
1517206891922157,1,-24,-10,-6,-2,-1,3,7
1517206891922157,-7,-30,4,11,2,-1,-10,10
1517206891923133,-9,12,-27,-7,2,0,-2,-11
1517206891923133,-1,-23,6,-4,-4,-2,-2,-3
1517206891945149,2,-5,-31,10,0,1,3,10
1517206891945149,-16,24,6,-12,-1,3,0,-14
1517206891945649,1,-2,5,-1,0,-3,-8,-5
1517206891945649,-2,-4,-24,-5,-2,0,3,-6
1517206891968163,5,-8,-7,5,3,1,3,50
1517206891968163,-2,4,-7,5,0,-1,-9,-78
1517206891968663,6,36,25,5,2,3,3,9
1517206891968663,-13,-22,-39,-7,-2,-4,-6,1
1517206891982174,-2,-7,30,5,3,2,1,4
1517206891982174,4,22,-42,2,0,-1,6,24
1517206891983174,-4,-11,26,-12,-4,-5,-12,-13
1517206891983174,-6,17,-19,4,-4,-4,-1,1
1517206892004692,-4,1,9,-6,0,-1,-3,-15
1517206892004692,3,-15,13,-5,-3,-2,8,16
1517206892005690,5,12,-16,8,0,2,-5,-7
1517206892005690,-2,-25,-23,-5,0,-2,5,8
1517206892028207,19,24,22,16,0,-1,0,-16
1517206892028207,-2,26,28,8,0,-4,-3,13
1517206892028706,-4,-24,-32,-17,-3,-1,-2,9
1517206892028706,-17,-45,-11,-6,-4,-5,-3,-16
1517206892042239,9,-2,0,-6,-1,-2,-3,-18
1517206892042239,16,3,-25,1,2,1,4,15
1517206892043217,-3,-7,9,11,2,-2,-3,-1
1517206892043217,8,-16,-14,-2,-1,-1,1,-6
1517206892064731,2,34,5,-8,-5,-4,-7,-8
1517206892064731,-11,-21,-20,-6,-2,-2,3,6
1517206892065732,2,12,-15,3,-1,-2,-8,-13
1517206892065732,0,5,29,6,2,2,9,18
1517206892088247,-1,-18,-17,-2,-3,-1,-3,-8
1517206892088247,14,34,27,-9,-4,-3,-1,11
1517206892088758,-2,-5,-16,0,-2,-2,-6,-18
1517206892088758,10,-1,8,5,3,1,-5,-2
1517206892102258,-6,-4,4,-5,-2,-3,-5,-1
1517206892102258,-1,-17,4,0,0,-2,0,2
1517206892102759,-7,5,18,5,0,-1,3,0
1517206892102759,-3,-2,-3,-9,0,-1,-1,2
1517206892124802,-6,-16,-17,-2,0,0,-4,-18
1517206892124802,-2,-2,15,8,1,0,3,14
1517206892125275,0,8,-33,-11,-6,-5,-1,6
1517206892125275,-4,1,18,8,4,2,-2,-8
1517206892148290,-1,-2,-14,1,-1,-2,0,0
1517206892148290,0,-7,-1,-23,-2,3,2,-4
1517206892148791,-5,3,4,2,1,0,1,4
1517206892148791,7,26,8,9,-1,1,-2,-10
1517206892161807,-8,-8,-17,-17,-2,-2,0,7
1517206892161807,-3,5,2,13,2,-2,-3,-7
1517206892169807,-3,-14,11,-1,1,0,-4,-1
1517206892169807,0,0,-14,-2,-1,-3,1,6
1517206892184828,-1,-1,2,1,-1,-4,-4,-5
1517206892184828,-4,-6,-4,2,0,-1,1,-1
1517206892185827,-4,-24,-38,-7,-1,-1,1,2
1517206892185827,1,8,4,0,-2,-1,1,-3
1517206892208333,0,7,-1,-1,-2,0,0,-3
1517206892208333,-2,-1,15,7,2,0,-3,-6
1517206892209333,-2,-10,-12,-12,-6,-3,-2,1
1517206892209333,0,-1,11,-1,0,1,2,0
1517206892221842,2,1,-3,0,0,-1,0,-2
1517206892221842,-4,16,16,7,-2,-2,-1,10
1517206892229858,-1,6,-10,-13,-2,1,2,-8
1517206892229858,-1,-13,-2,1,1,0,0,0
1517206892244859,-6,-1,2,-8,-4,-1,-3,-3
1517206892244859,3,-5,16,6,0,1,0,0
1517206892245881,-2,-3,-22,5,-1,-2,-3,-1
1517206892245881,-2,-3,-7,-14,-4,-2,-3,-3
1517206892269385,0,-7,12,4,2,0,0,-1
1517206892269385,-5,-14,-12,-3,-4,-3,-4,-4
1517206892270377,4,7,7,6,0,1,-1,2
1517206892270377,-4,-4,4,0,0,-2,-2,-2
1517206892281885,-1,-6,-1,-2,-2,-3,-2,0
1517206892281885,1,2,-4,-7,-3,-1,0,-3
1517206892289915,0,-11,-7,3,-1,-2,-2,1
1517206892289915,0,3,7,2,-2,-2,-2,-1
1517206892304905,0,0,-1,-5,-2,0,0,-2
1517206892304905,-1,-7,-6,3,2,0,1,-2
1517206892305402,-2,4,15,4,0,-1,-2,0
1517206892305402,2,4,13,12,2,0,1,0
1517206892327929,-6,-7,-34,-18,-5,-4,-4,-4
1517206892327929,1,4,7,-3,-3,-2,-1,-3
1517206892328920,-1,3,2,8,0,0,-1,1
1517206892328920,-1,-3,0,-1,-1,-2,1,-2
1517206892350437,4,9,4,4,1,1,2,1
1517206892350437,-1,3,-5,0,0,-1,1,-2
1517206892350935,-2,-2,7,-6,-3,-2,-2,-2
1517206892350935,1,-1,-11,-4,-2,2,0,-1
1517206892364945,1,-1,1,-4,-2,-1,0,2
1517206892364945,-4,-7,-5,-3,-1,-1,-2,-2
1517206892365444,-1,0,-1,1,-1,-1,-1,0
1517206892365444,-4,-1,-1,-4,-3,-3,-3,-4
1517206892387963,-2,-7,1,7,0,-1,-1,-2
1517206892387963,-3,-6,-7,0,0,-1,-1,-1
1517206892388960,2,3,0,-18,-3,-2,1,2
1517206892388960,1,-2,-2,7,1,-1,-1,-1
1517206892401470,1,-2,8,-4,-1,0,0,2
1517206892401470,-1,-2,-12,5,0,0,-1,-1
1517206892409976,1,3,-5,0,1,0,0,-1
1517206892409976,-1,-4,-12,-1,-1,0,0,2
1517206892424986,2,0,14,-6,-4,-2,0,-2
1517206892424986,-4,-6,-4,-4,-2,-2,-1,-1
1517206892425487,3,4,9,0,-1,-1,-2,1
1517206892425487,-10,-7,-6,-2,-1,0,-3,-3
1517206892448004,-2,2,1,16,3,0,1,0
1517206892448004,-3,0,7,-14,-2,2,-1,-1
1517206892449003,-1,-5,-10,-4,-3,-1,0,-1
1517206892449003,1,-3,-6,-2,0,-3,-1,-1
1517206892470519,-1,-1,-1,2,0,-3,-1,-2
1517206892470519,1,-1,0,3,0,-1,-1,-1
1517206892471020,-4,-3,4,5,0,-2,-2,-2
1517206892471020,2,3,3,-6,-2,-1,0,-2
1517206892484538,-4,-6,1,0,-1,-2,-1,-1
1517206892484538,2,0,-6,5,-2,0,0,2
1517206892485538,-2,2,-7,-4,-2,-2,-2,-1
1517206892485538,-1,-2,9,-3,-1,-2,-2,-2
1517206892508045,0,-9,-6,-2,1,1,-1,0
1517206892508045,1,-2,-6,-7,-3,-2,-1,0
1517206892508545,-4,-1,12,2,1,-2,0,0
1517206892508545,-4,-3,3,14,1,-2,-2,-2
1517206892530572,-1,3,-11,-19,-3,-1,-1,0
1517206892530572,-1,0,-1,-14,-1,-1,-1,-2
1517206892531062,0,0,-4,-1,0,0,-1,0
1517206892531062,6,-2,-3,-1,-1,-1,0,1
1517206892545070,-1,-4,-2,7,-1,-1,-4,-3
1517206892545070,-2,3,0,2,1,-4,-1,-1
1517206892545573,-1,-2,-4,-3,-2,-3,-1,-2
1517206892545573,0,-1,-4,-4,-1,2,0,1
1517206892568087,-2,0,2,1,-1,-2,-1,-2
1517206892568087,0,-1,-2,-3,-1,-2,1,0
1517206892568588,-1,-1,-3,3,-2,-3,-2,-2
1517206892568588,-1,0,0,-4,-1,-1,1,0
1517206892590124,-1,-2,-1,-3,0,0,0,-1
1517206892590124,0,-2,-4,3,-3,-2,-3,-2
1517206892591123,-1,-2,1,-1,-1,-2,-2,-3
1517206892591123,-2,1,-2,-6,-2,0,-1,0
1517206892604629,0,-2,-3,0,-3,-2,0,-1
1517206892604629,-1,-2,2,4,0,0,-1,0
1517206892612620,-2,0,-1,1,-1,-1,0,-2
1517206892612620,-1,-2,-4,-5,-1,0,-2,-1
1517206892628130,-1,0,-1,-1,-1,-1,-1,0
1517206892628130,-3,-1,0,1,-1,-1,-1,-2
1517206892628632,-1,-1,-3,-2,-2,-1,0,0
1517206892628632,-2,-2,-2,-3,-3,-3,-1,-2
1517206892650646,0,0,0,1,0,1,0,-1
1517206892650646,0,-3,-2,0,-1,-1,-1,-1
1517206892651146,-1,0,-2,-2,-2,-2,0,0
1517206892651146,-1,-1,0,-2,-2,-1,-2,0
1517206892664665,-1,-1,1,-1,-2,0,-1,-2
1517206892664665,-1,0,-1,-3,-1,-4,-1,-1
1517206892665656,-1,-2,-2,0,0,-1,-1,-2
1517206892665656,0,1,-1,-1,-1,0,0,-2
1517206892687699,-2,-1,-1,-2,-2,-1,-1,0
1517206892687699,-1,-2,-1,1,-1,0,-1,-2
1517206892688673,1,-1,1,-1,0,-1,0,-2
1517206892688673,0,-1,-2,-3,-1,-1,0,-1
1517206892710689,-4,0,-1,-1,-1,-1,-2,-3
1517206892710689,-1,0,2,0,-1,-2,-1,-1
1517206892711188,-1,0,-2,-1,-1,1,0,0
1517206892711188,-2,-1,-1,-3,-2,-3,-2,0
1517206892724893,-1,-1,0,-1,1,0,0,-1
1517206892724893,-2,0,-3,-1,-3,-1,-1,-2
1517206892725391,-1,-1,-1,-2,0,1,-1,-1
1517206892725391,-2,-1,-3,-3,-2,-2,-1,-1
1517206892747907,-1,-2,-2,0,0,-2,-1,1
1517206892747907,-1,0,-3,-1,-2,-2,-1,-2
1517206892748912,-1,-3,-2,-2,-1,-3,-3,-2
1517206892748912,-2,-1,-3,1,0,0,0,-1
1517206892770434,-1,-1,-1,-2,-1,0,0,0
1517206892770434,-2,-2,-2,-1,-1,-1,-1,-2
1517206892771436,-3,0,-1,0,-3,0,1,-1
1517206892771436,-1,-2,0,-1,-2,0,-2,-4
1517206892784465,-1,0,0,-1,2,-2,-2,0
1517206892784465,-1,-1,-1,0,-1,0,0,0
1517206892792476,-2,-1,0,0,-1,-1,-2,-1
1517206892792476,-2,-1,-1,-1,0,-1,0,0
1517206892807980,0,-2,-2,-1,-2,0,-1,-3
1517206892807980,1,0,-1,-2,0,0,-1,0
1517206892808481,-1,-1,-2,-2,-1,-3,-3,-1
1517206892808481,0,0,-1,0,-1,0,0,0
1517206892830496,-1,-1,0,-1,-1,-3,0,-2
1517206892830496,-1,0,-1,-1,0,0,1,-2
1517206892831998,-2,-3,0,-1,0,0,-2,0
1517206892831998,-1,0,-1,-1,-1,-1,-1,-1
1517206892844007,-2,-2,-2,-2,-2,0,-2,-1
1517206892844007,-1,0,1,-1,-2,-2,-1,0
1517206892853013,-1,-1,-2,-2,-1,-2,-2,1
1517206892853013,-1,-1,-1,-1,-1,-2,-2,0
1517206892868023,0,-1,-2,1,-2,0,-1,-2
1517206892868023,0,-1,-1,-1,-2,-1,-1,-1
1517206892869524,-1,-2,-2,-1,1,-1,0,-2
1517206892869524,-1,-2,-1,-1,0,0,-1,-1
1517206892891082,0,0,-2,-3,-1,-2,-1,-2
1517206892891082,0,-1,-1,-2,0,-1,-2,0
1517206892892568,1,0,1,-1,-2,-1,-1,0
1517206892892568,-1,-2,-2,0,0,-2,-1,-1
1517206892904090,-1,-2,0,-2,-2,-2,-1,-2
1517206892904090,-1,-2,-1,-1,-2,-2,0,-3
1517206892913083,1,-1,-2,0,-1,-1,-1,-1
1517206892913083,-1,0,-3,-2,-1,-1,0,-2
1517206892928093,-3,0,-1,0,-1,-1,-2,-1
1517206892928093,-2,-2,-1,-1,0,-2,-2,-3
1517206892929597,-2,-1,-2,0,-1,0,0,-1
1517206892929597,-1,-1,2,-1,-1,-1,-1,-1
1517206892950630,-1,-1,-1,0,-2,-2,0,-1
1517206892950630,0,0,-1,0,-1,1,0,0
1517206892952124,-3,-1,-1,-1,-1,-2,-1,0
1517206892952124,-1,0,-1,-1,-3,-3,-1,0
1517206892964131,-1,-1,-1,-3,-3,-1,0,1
1517206892964131,-1,-3,-2,0,-1,-1,-1,-2
1517206892973125,1,-1,0,-2,-1,0,0,-1
1517206892973125,0,-2,0,0,-1,-1,0,-2
1517206892988135,-1,-2,-3,0,-1,0,-1,-1
1517206892988135,0,1,-1,-2,-1,-2,0,-1
1517206892989660,1,-1,-2,-1,-2,-1,0,-2
1517206892989660,0,-2,0,-1,-2,1,-2,1
1517206893010652,-2,-1,-1,-1,0,-1,-1,-1
1517206893010652,-1,-2,0,-1,0,-2,-1,-1
1517206893012153,-1,-1,-1,-2,-2,-1,-1,-2
1517206893012153,-2,0,0,-1,0,0,-1,-1
1517206893024200,0,-2,-1,-1,-1,-1,0,-1
1517206893024200,-1,-1,-1,-1,-1,-1,1,-1
1517206893040672,0,-1,-1,-2,-1,-1,-1,-1
1517206893040672,2,-2,-1,-1,-1,-1,0,0
1517206893048177,-2,-1,0,0,-3,-2,-2,-2
1517206893048177,1,0,-1,-2,-2,0,-2,0
1517206893049692,-1,0,-1,0,-1,-2,0,0
1517206893049692,-1,0,-2,-2,-1,0,0,-1
1517206893070202,0,0,-1,-2,-1,1,-3,-3
1517206893070202,0,-1,-1,-1,-1,0,0,-1
1517206893072209,-1,0,1,-2,-2,0,0,0
1517206893072209,-1,-1,-3,-2,-1,-1,-2,0
1517206893084204,-2,-1,-1,-2,-1,-2,0,-1
1517206893084204,-2,-2,-1,0,-1,-1,0,0
1517206893093210,-2,-2,0,-2,0,-2,-2,-1
1517206893093210,-2,-2,-3,-1,0,-1,-1,-2
1517206893107720,0,-3,0,-1,-1,-2,-2,-2
1517206893107720,-2,-2,-1,-1,-1,-1,-3,0
1517206893114224,-1,-1,0,-1,-1,1,0,-2
1517206893114224,-2,-3,-1,0,-1,-1,0,-3
1517206893130246,1,-1,-2,-2,-1,-2,-1,1
1517206893130246,-1,0,-1,-1,1,0,0,0
1517206893132237,-1,0,-3,0,-1,-2,0,0
1517206893132237,-1,0,-1,-2,-2,0,-3,0
1517206893144746,-1,-2,-1,-2,0,-2,-1,0
1517206893144746,0,0,0,1,-2,-1,-1,-1
1517206893153272,0,-1,-2,0,-2,-3,-1,-1
1517206893153272,-1,-1,-1,0,-2,0,0,-2
1517206893167763,-3,-1,-2,-2,0,0,-3,-1
1517206893167763,-2,-1,-1,-2,-3,-2,-2,-2
1517206893169265,-1,-2,-3,-3,-2,0,0,-2
1517206893169265,0,1,-2,-3,1,-2,-1,0
1517206893190281,-1,1,-2,0,-1,0,-1,-1
1517206893190281,-1,-1,-3,-2,-1,-1,1,-2
1517206893192283,-1,-1,0,-1,1,1,-1,1
1517206893192283,-2,-2,0,-2,-4,-3,-2,-2
1517206893203828,0,0,0,-1,-1,-1,0,0
1517206893203828,-2,-1,-1,-1,-1,-1,-2,-1
1517206893213296,-3,-2,-1,0,-2,-1,0,-3
1517206893213296,0,-1,-1,0,1,1,0,1
1517206893227805,-1,0,-1,-1,-2,-1,-1,-2
1517206893227805,0,-3,-1,-2,-1,-1,0,2
1517206893229808,-1,-1,0,-2,-1,-2,-1,0
1517206893229808,0,-1,1,-1,-2,-2,-1,-2
1517206893250342,0,-2,-1,0,-1,-2,-1,-1
1517206893250342,0,1,-1,0,1,-1,-2,0
1517206893251821,-2,1,-1,-1,-1,-1,-2,-1
1517206893251821,-1,-1,-1,-2,-3,-1,0,-1
1517206893264330,-1,-2,0,-3,-1,-2,0,-1
1517206893264330,-1,-3,-1,-1,-2,0,-2,-1
1517206893273347,0,-1,-2,0,-1,1,-1,1
1517206893273347,-1,-2,0,-2,-1,0,0,-1
1517206893287860,-1,-2,-2,0,1,0,1,-1
1517206893287860,0,-1,1,-3,-3,-1,0,-1
1517206893289357,-1,-1,-2,-1,-2,-2,-3,-2
1517206893289357,-1,0,-2,-2,0,-1,-1,-1
1517206893310378,-2,-1,0,-1,0,0,-2,0
1517206893310378,0,-1,-2,0,-2,-2,-1,-2
1517206893312375,-1,-1,-1,1,-2,0,0,1
1517206893312375,-1,-1,0,0,-1,-2,-1,-2
1517206893324372,-3,0,-2,-2,-2,0,-1,-2
1517206893324372,-1,0,-2,-2,0,0,-2,-1
1517206893332879,0,-1,-1,-1,1,-2,0,-1
1517206893332879,-1,0,-2,0,-2,0,-2,0
1517206893347889,-1,-2,-1,-2,-3,-2,-1,0
1517206893347889,-2,0,-2,0,-2,-1,-1,-2
1517206893349390,-2,-1,-3,0,-1,-2,0,-1
1517206893349390,0,-1,-1,-2,-1,-2,-1,-2
1517206893370405,-2,0,0,0,-1,0,1,-1
1517206893370405,-1,-2,-2,-3,-2,-2,-2,-2
1517206893371922,-1,-1,0,-1,0,0,-2,0
1517206893371922,-1,-1,-1,-2,0,0,1,-2
1517206893392936,1,-2,-1,-2,-1,-2,-1,-1
1517206893392936,-1,-1,-1,-1,-2,-1,-1,1
1517206893394424,1,-1,-2,-2,-1,0,0,-1
1517206893394424,-1,-2,-1,0,-2,0,-1,0
1517206893407932,-1,0,-2,-1,-2,-2,-1,-2
1517206893407932,-2,0,-3,-1,0,-1,0,0
1517206893409445,-2,0,0,-2,-2,-1,-1,-3
1517206893409445,-1,-2,-1,1,-1,0,-2,-1
1517206893430448,-1,0,0,0,-1,0,-1,0
1517206893430448,0,-1,0,0,0,-1,-1,-1
1517206893431969,-1,-1,-3,-1,-1,-1,0,0
1517206893431969,-1,-2,0,-1,0,-1,-1,-2
1517206893452987,0,-1,-1,-1,-1,-2,0,-1
1517206893452987,-1,-1,-3,0,0,-1,0,0
1517206893454465,0,0,-2,-1,-2,-2,1,-1
1517206893454465,-1,0,-2,-2,-2,-1,-2,-1
1517206893467976,-3,-2,-3,1,-1,0,-3,-2
1517206893467976,0,-1,2,0,-1,1,-3,-4
1517206893469475,0,-1,-1,-3,-2,0,-1,-1
1517206893469475,-1,-1,-2,0,0,-2,0,1
1517206893490493,-2,-1,1,-2,0,0,0,0
1517206893490493,-2,1,0,-2,-2,-3,0,0
1517206893491992,-1,-1,-1,-1,0,-1,-2,-1
1517206893491992,0,1,-1,-1,0,-1,0,-2
1517206893513006,-1,-1,-1,-1,0,-2,0,0
1517206893513006,-3,-2,0,-1,1,-1,-1,0
1517206893514507,-1,-2,0,-1,-2,-3,-2,-1
1517206893514507,-2,-1,-3,-1,-2,-2,-1,0
1517206893528020,1,-2,-1,-3,-1,-1,-2,1
1517206893528020,-3,-1,-4,-2,-2,1,-2,-2
1517206893529519,0,-1,0,1,0,-1,-2,-2
1517206893529519,-2,0,0,-1,1,0,-1,-1
1517206893550543,-1,-1,-2,-1,-1,-1,-1,-1
1517206893550543,0,-3,-2,-2,-1,-1,0,-1
1517206893552055,0,-1,-1,0,-3,-1,-1,-1
1517206893552055,-1,-1,-1,-1,0,-2,-1,-1
1517206893573064,-2,1,-1,-1,0,-1,-2,0
1517206893573064,-1,-1,0,1,-3,-1,-1,0
1517206893574550,-3,-3,0,-3,-1,1,-2,-2
1517206893574550,-2,-2,-2,-1,0,-2,-2,0
1517206893595607,0,-2,-2,-3,-1,-2,0,1
1517206893595607,0,0,-2,-1,0,-2,0,-1
1517206893597105,-2,-2,-2,0,-1,-1,-1,0
1517206893597105,-1,0,-1,-2,-2,-1,0,-2
1517206893610613,-2,-2,-3,0,-1,0,-2,-2
1517206893610613,0,-1,-1,-2,-1,-2,-1,-2
1517206893612118,-1,-1,-1,-1,-1,-2,-2,-1
1517206893612118,-1,0,-2,-1,-1,-2,-2,-2
1517206893633139,-1,-2,-2,0,-1,0,-1,-2
1517206893633139,-1,1,0,-1,-1,1,-1,-1
1517206893634632,-3,-1,-1,-2,-1,-1,-1,-1
1517206893634632,0,-1,-1,-2,0,-1,-2,0
1517206893647143,-1,0,-1,-1,-2,-1,-1,-2
1517206893647143,0,-2,-2,0,0,-3,0,-1
1517206893654145,0,-1,-1,0,-1,0,1,-1
1517206893654145,1,-2,-1,-1,-1,0,0,-2
1517206893670155,-2,-1,0,-1,-1,-3,0,-1
1517206893670155,-2,-1,-2,-2,0,0,-2,-1
1517206893676668,-2,-1,0,-1,-2,-2,-3,-1
1517206893676668,-1,-1,0,0,-1,-3,-2,0
1517206893692698,-1,-1,-2,1,-1,1,0,0
1517206893692698,0,-2,0,-1,0,-2,1,0
1517206893694673,0,-2,0,-1,2,-1,0,0
1517206893694673,-1,-1,-1,-1,-3,-1,-1,-1
1517206893707182,1,-2,0,-2,-2,-1,0,-1
1517206893707182,0,-2,-1,-1,-1,0,-1,-1
1517206893714188,-1,0,-1,-2,-2,-1,-1,0
1517206893714188,-1,-2,-1,-1,0,-1,0,-1
1517206893731199,-1,-1,0,-1,1,-2,-2,-1
1517206893731199,-1,-2,-2,-2,-2,0,-3,-2
1517206893732699,0,0,1,-1,0,-1,0,-1
1517206893732699,-1,0,-3,-1,-1,-2,-1,-1
1517206893752729,-2,-3,-3,0,-2,-1,-2,-1
1517206893752729,-2,-1,-1,-1,0,1,-1,-2
1517206893754715,-2,-1,0,0,0,0,-2,0
1517206893754715,-1,0,0,1,-1,0,1,1
1517206893767224,-1,-1,-1,-2,-1,-1,1,0
1517206893767224,-2,-1,-1,-1,-2,-3,-2,-1
1517206893774229,-3,-2,-1,-1,-2,0,-1,-2
1517206893774229,-1,-3,0,0,-1,-1,-2,-2
1517206893790255,-1,-1,-1,0,0,-2,-3,-1
1517206893790255,-1,0,-1,-1,-1,-1,0,0
1517206893792242,-1,-1,-2,-2,-1,0,0,0
1517206893792242,-1,-1,-1,0,-2,1,-1,-2
1517206893813257,-1,0,-1,-1,-1,-1,1,-1
1517206893813257,-3,-1,-1,-1,-3,-2,-1,-1
1517206893814759,-2,0,-1,0,-2,-1,-1,0
1517206893814759,0,-2,-1,-1,-1,0,0,-1
1517206893827280,0,0,0,-3,-2,-2,-2,-1
1517206893827280,-1,-2,-2,0,0,-1,-1,-2
1517206893833785,0,-2,0,-1,0,-1,-1,-2
1517206893833785,0,-1,1,-2,-1,-1,-2,0
1517206893850293,-1,-1,-1,-1,-3,1,0,-1
1517206893850293,-2,0,-2,-2,0,-1,-2,-1
1517206893851784,0,0,-3,0,-1,-1,-1,-1
1517206893851784,0,1,-1,-1,-2,-1,-2,-2
1517206893872808,0,-1,-1,0,-1,1,-1,-2
1517206893872808,0,0,-1,-3,-3,-2,-1,-2
1517206893874310,-3,-2,-1,-1,-1,0,-2,0
1517206893874310,-2,0,0,-1,-1,-3,-2,-1
1517206893886309,-1,-1,-1,0,1,-1,-2,-1
1517206893886309,0,-1,0,0,-1,-1,-1,0
1517206893895816,-2,-1,-2,-2,0,-1,-1,0
1517206893895816,-3,-1,-2,-1,-1,-1,0,1
1517206893910826,-2,-1,-2,-2,-1,-1,0,-2
1517206893910826,0,-1,-1,1,-1,-1,0,-1
1517206893912328,2,-2,0,1,-1,-2,-2,1
1517206893912328,-1,-1,0,-1,-1,0,-1,-2
1517206893932842,-1,-1,0,0,-1,-3,-1,-2
1517206893932842,0,-1,0,-2,-2,-1,0,-1
1517206893934350,-1,-1,-1,-2,-1,-1,0,-2
1517206893934350,0,0,-2,-1,0,-1,-1,0
1517206893946851,0,-2,-1,0,-2,0,-1,1
1517206893946851,-1,-1,-1,-2,0,-2,-1,0
1517206893955858,0,-2,-1,-1,-1,-2,-3,-2
1517206893955858,0,-2,-1,-2,-2,-1,-1,0
1517206893970368,-2,-1,-1,-1,1,-1,0,0
1517206893970368,-3,-2,-2,-1,-1,-1,-1,0
1517206893971881,-1,-1,0,0,-2,-3,0,-2
1517206893971881,-2,-2,-1,0,-2,-1,-1,-2
1517206893992887,-2,0,-1,-1,-1,-1,0,-1
1517206893992887,-1,-1,-3,-2,0,-1,-1,1
1517206893994386,-2,-1,0,-1,1,-1,1,1
1517206893994386,-1,-1,-3,-2,-2,-2,-1,-2
1517206894006393,-2,0,0,0,1,0,-1,-1
1517206894006393,-1,0,0,-1,-1,1,0,-2
1517206894015400,-1,-1,0,0,-2,0,-1,-2
1517206894015400,-1,-2,-1,-2,-1,-2,-1,-1
1517206894030431,0,0,-1,-3,0,-3,-1,0
1517206894030431,0,-3,-2,0,-1,-1,-1,-2
1517206894031911,-1,-1,-2,-2,0,-1,0,0
1517206894031911,-1,0,0,-2,-1,-1,-1,0
1517206894052936,-1,0,-2,-2,-3,-3,-2,-1
1517206894052936,-1,0,0,1,-4,-1,-1,-1
1517206894054428,-2,-2,-2,-2,-2,-1,-1,-1
1517206894054428,0,-2,-2,0,-1,-2,0,-2
1517206894066445,-1,-1,0,0,0,0,-1,-1
1517206894066445,-2,-2,-1,-2,-1,-1,0,0
1517206894075451,-2,0,-3,-2,-3,-3,-1,-2
1517206894075451,-1,-1,-2,-1,-2,-2,-1,-1
1517206894090469,-1,-2,-2,-1,-1,0,-3,-1
1517206894090469,-1,-1,0,0,-1,0,-1,-3
1517206894091972,-1,-1,-1,0,-1,-1,0,-2
1517206894091972,-2,-1,-1,-2,-1,-1,-1,-1
1517206894112969,-2,-2,0,-1,0,0,-1,-1
1517206894112969,-1,-1,-2,-3,-1,0,-1,-3
1517206894114470,-1,0,-2,0,0,-4,-1,-2
1517206894114470,0,0,-1,-1,-2,1,-1,-2
1517206894126501,1,-1,-2,-1,-3,0,-1,0
1517206894126501,-3,-2,0,1,0,-3,-2,0
1517206894136485,0,-2,-1,0,-1,0,0,-2
1517206894136485,-1,-1,-1,-1,0,0,-2,-1
1517206894150496,-2,-2,-4,-1,-1,-3,-2,0
1517206894150496,-1,0,-2,-2,1,-1,0,-1
1517206894152000,-1,0,-1,-1,-3,-1,-2,-1
1517206894152000,-2,-2,-1,0,0,-2,-1,-3
1517206894173032,0,0,0,-1,-3,2,0,-2
1517206894173032,-1,-1,-2,-1,0,-1,-2,-1
1517206894174522,0,-1,-1,-2,0,-1,-1,1
1517206894174522,0,0,0,0,0,-2,-1,0
1517206894186551,-1,-1,-1,0,0,-4,-1,-1
1517206894186551,0,0,0,-1,-2,0,0,-1
1517206894195562,0,0,-1,-1,-2,0,0,-2
1517206894195562,-3,-2,-2,1,-2,2,-2,0
1517206894210569,-3,0,-2,-2,-2,-1,-1,-2
1517206894210569,-2,-1,-1,1,-1,-2,-1,1
1517206894212071,0,-1,-2,-1,-1,-2,-2,-2
1517206894212071,0,-2,0,-1,2,0,1,-1
1517206894233095,-1,-2,0,-1,0,-2,-2,-1
1517206894233095,1,-1,-3,0,-2,-2,-2,0
1517206894234587,-1,-2,0,-2,-1,-1,-1,1
1517206894234587,-1,-1,-2,0,-1,-2,-2,0
1517206894246595,-1,-4,0,-3,-1,-1,1,-1
1517206894246595,-2,-1,0,-2,0,0,-1,-1
1517206894255601,-2,-1,-1,-2,-2,-1,-3,0
1517206894255601,-1,-2,-1,-1,-2,-1,-1,-1
1517206894270612,-1,0,-1,-2,-1,0,0,-1
1517206894270612,-1,-1,0,-1,0,0,-1,0
1517206894272131,-2,0,-2,1,-2,-3,0,-2
1517206894272131,1,-1,0,-2,-2,0,-1,-1
1517206894293127,-1,0,-2,0,-1,-1,-2,-1
1517206894293127,0,-2,0,-3,0,-3,0,0
1517206894294630,-2,0,-2,-1,0,2,-2,-2
1517206894294630,-1,0,-2,-2,-1,-3,0,-1
1517206894307138,-2,-1,-1,1,-2,-1,-1,-3
1517206894307138,-1,-1,0,-4,-2,-1,0,0
1517206894315644,-2,-1,0,0,0,0,0,0
1517206894315644,-1,-1,-1,-2,0,-2,0,0
1517206894330654,-1,-1,-2,-1,0,1,0,-1
1517206894330654,-1,-2,0,-1,0,0,-2,-2
1517206894332163,-1,-2,-2,-2,-2,0,-2,-1
1517206894332163,-1,-1,-1,0,-1,-1,0,-2
1517206894352673,-2,-1,0,0,-2,-1,0,0
1517206894352673,-1,-2,-2,1,-2,-1,-2,-1
1517206894354686,-1,-2,-3,-2,0,0,-1,-1
1517206894354686,-2,-1,-2,-2,-1,-1,-2,-1
1517206894375204,-2,-2,0,0,0,-3,-2,-1
1517206894375204,-1,0,-2,-1,-1,0,0,0
1517206894377187,0,-2,-1,0,-1,-2,-1,0
1517206894377187,-1,0,-2,-1,-3,-2,-1,-1
1517206894390213,-2,-1,-1,-2,1,1,-2,-2
1517206894390213,-2,-1,-1,-1,0,-2,-2,-2
1517206894396701,-1,-1,1,0,0,-2,0,-1
1517206894396701,-2,-1,-1,0,0,0,0,0
1517206894413213,-1,-1,-2,-1,0,-1,-1,-1
1517206894413213,-2,-2,-2,1,0,-1,1,2
1517206894414715,-2,-1,0,-2,-1,0,-1,0
1517206894414715,-1,-1,0,0,-1,-1,0,-1
1517206894435251,-1,-1,1,-1,-2,0,0,-2
1517206894435251,-2,-1,-1,-2,0,-1,-2,-3
1517206894437230,0,2,1,-1,0,-1,0,-1
1517206894437230,-2,0,-1,0,-2,-1,-2,0
1517206894450238,0,-1,-2,0,-2,0,-1,1
1517206894450238,0,-3,-1,-1,-1,-2,-1,-2
1517206894451740,0,-1,0,0,-2,-1,1,-2
1517206894451740,-1,-2,-2,-2,0,0,0,-2
1517206894472784,-1,-1,0,-1,1,0,0,0
1517206894472784,-1,1,-1,0,-1,0,0,1
1517206894474261,-1,-1,-1,-1,0,-2,-3,0
1517206894474261,-1,-1,-1,-1,0,0,0,-1
1517206894495271,0,-2,-2,-1,-2,-2,-1,0
1517206894495271,0,-1,-2,0,-2,0,-1,0
1517206894496773,0,-3,-1,-2,-3,-1,-2,-1
1517206894496773,-1,-1,-1,-2,0,-1,-2,-1
1517206894509781,-1,1,-1,-1,-2,-1,-2,-3
1517206894509781,-1,-3,0,-1,1,-1,0,-2
1517206894516285,-2,-2,-3,-1,0,-1,0,-1
1517206894516285,-2,-2,-2,-2,-5,-2,-2,-1
1517206894532811,0,-1,-1,0,-2,0,-1,0
1517206894532811,-2,-1,-1,-1,-2,-1,-2,0
1517206894534314,-3,0,-2,-1,-1,-1,0,-2
1517206894534314,-2,-1,-1,-1,1,0,1,0
1517206894555329,-2,-1,-2,-1,-2,-2,-1,-1
1517206894555329,-1,0,0,-2,-2,-1,-1,1
1517206894556814,-1,-1,0,-1,-1,-1,-3,-1
1517206894556814,-2,1,-2,0,0,-1,-2,-1
1517206894569824,1,-1,-2,-2,-2,0,0,-1
1517206894569824,-1,-1,-2,0,-1,0,0,-2
1517206894576330,-1,-1,-2,-1,-1,-2,-1,1
1517206894576330,1,0,-1,-2,-1,0,0,0
1517206894592863,-1,-1,-1,-1,0,-2,-2,0
1517206894592863,0,-2,1,0,0,-1,-2,-1
1517206894594342,-1,-2,-1,1,0,2,-1,-1
1517206894594342,1,-2,-1,-1,-2,-2,0,0
1517206894615355,-1,-2,-1,-3,-1,0,0,0
1517206894615355,-3,-2,-1,-1,-2,-2,-1,0
1517206894616857,0,-1,-1,-1,-2,-2,0,-1
1517206894616857,-1,0,-1,-1,-1,1,-1,-1
1517206894629877,-1,-2,-2,0,0,0,-2,-4
1517206894629877,-1,0,-1,-1,-1,-2,-1,-2
1517206894636374,0,-1,-2,-1,-1,-1,-1,-1
1517206894636374,-2,-2,-2,1,-1,-1,-1,0
1517206894652882,-3,0,-1,-1,-2,-2,-1,1
1517206894652882,-1,1,-1,-2,-2,-1,-1,-2
1517206894654384,0,-3,-1,-1,-2,-1,-1,0
1517206894654384,-1,-3,-1,-1,0,-2,0,-2
1517206894675421,0,0,1,0,-1,-2,0,-1
1517206894675421,-1,-1,-1,-3,0,1,-1,-2
1517206894676899,-2,-1,-2,-1,-3,-1,0,0
1517206894676899,0,-1,-1,1,-2,1,-2,-2
1517206894689944,-1,-2,-1,-1,-1,0,3,-1
1517206894689944,-1,0,-1,1,-1,-2,-1,-1
1517206894696414,-3,0,-2,-1,1,-1,1,-2
1517206894696414,-1,0,-1,-1,-3,0,-1,-1
1517206894712924,-2,0,-1,0,-1,-2,-1,-1
1517206894712924,0,0,-1,-1,0,-1,-1,-1
1517206894714425,-2,-1,-1,-1,0,-1,-1,0
1517206894714425,-1,0,-2,-3,-2,-2,-1,-2
1517206894735444,1,-2,-3,-1,-3,-2,-1,-1
1517206894735444,-1,-2,-1,-2,1,-3,0,0
1517206894736942,-3,0,0,-1,-3,-1,-2,0
1517206894736942,-2,-2,-1,-1,-1,-3,-2,-2
1517206894749950,-1,0,0,0,0,-1,-2,-1
1517206894749950,-3,-2,-2,-1,-3,1,-2,-3
1517206894756456,0,0,-1,-2,-1,-1,0,-1
1517206894756456,-1,-2,1,-3,0,-2,-1,-3
1517206894772991,0,-1,-1,-2,0,-1,-2,1
1517206894772991,-1,-1,-2,-1,-1,-3,-1,1
1517206894774469,1,-2,1,-3,-2,1,0,0
1517206894774469,0,0,-1,-1,0,-3,0,0
1517206894795485,-1,0,-1,-2,-1,0,-1,-2
1517206894795485,-2,-1,-1,-2,1,-1,0,-1
1517206894796985,-1,-1,-1,0,-2,0,0,-1
1517206894796985,0,-1,-2,-1,-3,0,-1,-1
1517206894809493,-1,-1,-1,0,-1,-1,-2,-1
1517206894809493,-1,1,-1,-3,-1,-1,-1,-2
1517206894816499,-2,-2,-2,0,0,-3,-2,-1
1517206894816499,0,0,-1,0,-1,-1,-1,-1
1517206894833010,0,0,0,-2,1,-1,0,0
1517206894833010,0,-1,-2,-1,-2,-1,-1,-1
1517206894834511,-1,-2,0,-2,0,-1,-1,0
1517206894834511,-1,-2,-1,-1,-2,-2,-3,-3
1517206894855529,-2,0,-1,0,-1,-2,-1,-1
1517206894855529,1,-1,0,-1,-2,-1,-2,-1
1517206894857028,-2,-1,0,-1,-1,0,-2,-1
1517206894857028,-1,0,-1,-4,-1,0,-1,-1
1517206894869038,-1,-2,-1,-2,-2,0,-2,0
1517206894869038,-1,-1,0,-1,-2,-2,-1,-1
1517206894878043,-1,-1,-1,-1,-2,-1,0,-2
1517206894878043,-3,-2,0,-1,-3,-2,-2,-1
1517206894893071,-1,-1,-3,-1,-1,-2,-1,-2
1517206894893071,-1,-1,-1,1,-2,0,1,-1
1517206894894557,0,0,-2,0,-2,0,-1,-2
1517206894894557,0,-2,-1,1,0,0,1,0
1517206894915567,-1,-1,-1,-1,-1,-1,1,-1
1517206894915567,0,0,-2,-1,0,-2,0,-1
1517206894917081,-1,-1,-2,-3,0,-3,0,-3
1517206894917081,-1,-1,-1,-2,0,-1,-2,0
1517206894929080,-2,2,-1,0,-1,-2,-1,-2
1517206894929080,-1,0,-2,-1,-3,-2,-1,0
1517206894944089,0,-1,2,-1,-2,0,0,-2
1517206894944089,-1,0,-1,-2,0,0,-3,0
1517206894953094,0,-3,-1,-2,-1,-4,-2,-1
1517206894953094,-1,-2,-1,-2,-1,1,-2,0
1517206894954614,-1,0,-2,0,0,-2,-2,-2
1517206894954614,-2,0,0,-1,0,-2,0,-3
1517206894974631,-2,-1,-2,-1,0,0,0,-1
1517206894974631,-2,0,-1,-1,-1,0,-1,0
1517206894983117,-2,-2,-1,-2,-2,-1,-1,-1
1517206894983117,0,-1,-3,-1,-2,-2,-2,-1
1517206894989123,0,-2,-1,-2,-1,0,0,0
1517206894989123,0,-2,-1,-1,1,0,-1,-1
1517206894998626,-2,-2,-2,-1,-1,-1,0,1
1517206894998626,-1,-2,-2,-1,0,0,0,-1
1517206895013138,-1,-2,0,-1,0,1,1,-2
1517206895013138,-1,-3,-1,-1,0,-1,-1,-3
1517206895014638,-2,-1,-1,-2,0,0,0,-1
1517206895014638,-1,-1,-1,-1,-1,-1,-2,1
1517206895035156,-1,-1,-1,-3,-1,-1,-1,-1
1517206895035156,-1,0,-1,1,-1,-1,0,0
1517206895037170,-1,-1,-1,0,0,-2,-2,-2
1517206895037170,0,-2,-1,1,-1,-1,0,-1
1517206895049178,-1,-2,-1,0,-1,-1,-1,-2
1517206895049178,-1,0,-1,-2,-1,0,-1,0
1517206895058169,-2,-2,-2,0,0,-1,-3,-3
1517206895058169,-2,1,-2,-1,-2,2,1,0
1517206895072718,-2,-1,-1,0,0,-1,0,-1
1517206895072718,-1,0,-2,-1,-1,-2,0,-1
1517206895074695,-1,-1,0,0,0,0,1,1
1517206895074695,0,-2,-1,-1,-1,-2,-2,-1
1517206895095697,-1,-3,0,-1,-2,0,-2,0
1517206895095697,-3,-2,0,0,-2,-1,-1,-1
1517206895097197,-1,0,1,-1,0,-1,1,0
1517206895097197,-3,-1,-1,-2,-2,-3,-2,-1
1517206895109205,-3,-1,-1,-1,-2,0,0,2
1517206895109205,-2,-2,-1,-1,0,-3,-3,-1
1517206895118211,0,-1,-2,-1,0,0,1,0
1517206895118211,-1,-2,1,-1,0,0,0,-1
1517206895132723,0,-1,-2,-3,-2,-2,0,-1
1517206895132723,-1,-1,-1,-2,-2,-2,0,0
1517206895134224,-2,-4,-1,-1,-2,-1,-3,0
1517206895134224,-2,1,-2,1,1,-1,-1,-1
1517206895155238,-1,1,0,-2,0,-2,-2,-1
1517206895155238,-1,-1,-2,-1,0,0,-1,0
1517206895156738,0,1,-2,-1,0,-2,-2,-2
1517206895156738,-1,-2,-1,0,-2,0,-1,0
1517206895169253,0,-1,0,1,0,1,-2,-3
1517206895169253,-1,1,-1,0,-1,-1,0,1
1517206895178253,0,-3,-2,-3,-1,0,0,-1
1517206895178253,0,-3,-2,-1,-1,-1,-1,0
1517206895192787,0,-2,-1,-2,-1,0,1,0
1517206895192787,-1,-2,0,-2,-1,0,-2,-1
1517206895194767,-3,1,0,-2,-2,-2,-1,0
1517206895194767,-1,-1,-1,-1,-1,1,-1,-2
1517206895215280,-1,0,-4,-1,-2,-2,0,0
1517206895215280,-1,-3,-2,0,0,-1,-1,-1
1517206895216781,1,-1,-2,0,-2,-3,1,-1
1517206895216781,-1,-1,0,1,0,-1,0,-3
1517206895229290,-1,-1,1,0,0,0,-2,-1
1517206895229290,-1,-1,-1,-1,-1,-1,0,-3
1517206895237798,-1,0,-3,-1,-1,-1,0,-2
1517206895237798,-1,-2,0,-1,0,-3,-2,0
1517206895260312,-1,-1,-2,-1,0,-1,-2,-2
1517206895260312,-1,0,1,-1,-1,-1,-1,-2
1517206895262313,0,-2,0,-1,1,0,-1,1
1517206895262313,-1,0,-1,-3,-1,-2,1,-1
1517206895275323,-1,-2,-2,-1,-2,-1,0,0
1517206895275323,-1,-1,-2,-1,-1,-1,-2,0
1517206895276823,-1,0,0,-1,-3,-1,-2,-1
1517206895276823,0,0,-2,-1,-2,-1,0,-2
1517206895297838,0,-1,-2,1,-1,-4,-2,-2
1517206895297838,0,0,-2,-1,0,0,0,-2
1517206895299339,-1,0,-1,-2,-4,1,-1,-1
1517206895299339,-2,-1,0,-1,0,0,-1,0
1517206895312864,-2,-2,1,-2,0,-1,0,-2
1517206895312864,1,0,0,-1,0,0,-1,-1
1517206895314352,0,-1,-1,1,0,0,-3,-2
1517206895314352,-2,0,-2,1,-3,-2,-1,0
1517206895335380,-3,-1,-3,-2,-2,-2,0,0
1517206895335380,-1,-3,0,-1,2,0,0,-2
1517206895336866,-1,-2,-2,-1,-1,-1,-1,-3
1517206895336866,0,0,-2,-1,-1,0,-1,-1
1517206895357881,-1,-1,0,-1,-2,-1,-2,1
1517206895357881,-2,-1,-1,-1,-3,-2,0,1
1517206895359382,0,0,0,-1,0,-2,-1,0
1517206895359382,-2,-4,-3,-1,-3,-2,-1,-1
1517206895372907,-1,0,0,0,0,-1,-1,-1
1517206895372907,0,0,-1,-1,-2,-2,-2,-1
1517206895374393,-1,-1,-1,0,-1,-1,-1,0
1517206895374393,-1,-1,-1,-3,-1,0,0,0
1517206895395408,-2,0,0,0,-2,-2,-1,0
1517206895395408,-1,-1,0,0,-2,-1,-2,-1
1517206895396909,-2,0,-1,-2,-2,-1,-2,-3
1517206895396909,0,0,-1,-1,0,0,-1,-1
1517206895417934,-1,-1,-2,-3,-2,-2,-1,-1
1517206895417934,-2,-1,-2,-1,0,-4,-1,0
1517206895419425,-2,-2,-4,-1,-1,0,-1,-1
1517206895419425,1,-1,-1,-2,-1,-2,-2,-2
1517206895432934,-1,-2,-1,0,0,-1,-2,-3
1517206895432934,-2,-1,-3,-1,-2,-1,-1,0
1517206895434435,0,-1,0,-1,-1,0,0,-1
1517206895434435,-1,-1,-2,0,-1,-2,0,0
1517206895455465,0,-1,-1,-2,-1,0,-1,1
1517206895455465,0,0,0,-2,-2,-2,0,0
1517206895456951,-1,-1,-1,-1,-1,-3,0,-1
1517206895456951,-2,-1,0,-1,-1,0,-2,-1
1517206895477976,1,-1,-2,1,-2,-1,-2,-1
1517206895477976,-2,-2,-1,0,0,0,0,-2
1517206895479467,-1,-2,-2,-1,0,-2,2,0
1517206895479467,0,-1,-1,0,-1,-1,-2,0
1517206895492475,-1,-2,-1,0,-1,-1,-2,-2
1517206895492475,0,-2,-1,-2,-1,0,-2,-3
1517206895498981,0,-1,-2,-2,-1,-1,-2,-1
1517206895498981,-2,1,-2,-2,-2,-2,0,-1
1517206895515492,-3,-1,-1,0,0,-1,0,0
1517206895515492,-2,0,-1,-1,2,-1,-2,-1
1517206895516993,-1,-2,-1,-1,-1,-1,-1,-1
1517206895516993,-2,-1,0,-1,-1,-2,0,-1
1517206895538008,-2,1,-2,-3,-1,0,-2,-1
1517206895538008,-1,-2,-1,0,0,0,0,-1
1517206895539531,-1,0,-1,-2,-2,0,-1,-1
1517206895539531,-1,-2,-1,-1,-1,-1,0,-1
1517206895552519,-1,-1,0,0,0,0,-1,-2
1517206895552519,-2,-2,-2,-2,-1,-1,-1,1
1517206895559023,-1,0,-1,0,-1,-2,-2,-1
1517206895559023,-2,-2,0,-2,-1,1,0,0
1517206895575544,-1,0,-1,-1,1,-2,0,-3
1517206895575544,0,-1,-1,0,-1,0,0,0
1517206895576537,-2,0,0,-1,-1,-3,-2,-2
1517206895576537,-1,-1,-2,-1,0,-2,-1,0
1517206895598197,-2,-1,-2,-2,-1,0,-2,-2
1517206895598197,0,0,1,-1,-3,0,1,-1
1517206895599698,-1,-3,-1,-2,-2,1,-2,-1
1517206895599698,-1,-2,-2,0,-2,-2,-2,-2
1517206895612709,0,1,-1,-1,-2,-2,-2,-2
1517206895612709,-1,0,-1,-2,-1,-2,-3,0
1517206895619212,-1,-1,-1,1,-1,-1,0,-1
1517206895619212,-1,0,0,-1,-2,-1,-1,-1
1517206895635247,0,-2,-2,0,-1,0,-1,0
1517206895635247,-1,-2,-2,-2,1,-1,-1,-1
1517206895637225,0,-1,0,0,-1,1,0,-1
1517206895637225,-1,-1,0,-2,-2,-1,-1,-2
1517206895657740,1,-2,0,1,-1,-1,0,-2
1517206895657740,-1,-1,-2,-2,-2,-1,0,0
1517206895659241,-1,-1,0,0,-1,0,-1,0
1517206895659241,-1,-2,-1,-2,-1,-3,-2,0
1517206895680268,-1,-1,-1,-2,-1,0,-1,-2
1517206895680268,0,-3,-2,0,-1,-3,0,-1
1517206895681756,0,-1,-1,0,-1,-2,-2,-2
1517206895681756,-1,0,-2,0,0,-1,0,-2
1517206895695766,-1,0,-2,-1,-3,-2,0,-1
1517206895695766,-2,-2,-1,-1,-2,-3,0,-1
1517206895696768,0,0,-2,0,0,0,1,-1
1517206895696768,0,0,0,0,-1,1,-1,-1
1517206895717782,-2,-1,-1,-1,-2,-1,1,-1
1517206895717782,-1,-3,0,-2,-2,-1,-2,-3
1517206895719295,-1,-2,-1,-1,-1,-1,-1,-1
1517206895719295,-1,0,-2,0,0,-1,-2,1
1517206895732292,-2,-2,-2,-2,0,0,-2,-1
1517206895732292,0,0,1,-3,-1,-1,-1,0
1517206895738816,-2,-1,-1,-1,-2,0,0,0
1517206895738816,0,-2,-1,0,0,-1,-1,-1
1517206895755311,0,-2,-1,0,-2,-2,-1,-2
1517206895755311,-1,-1,-3,0,-1,-1,-2,0
1517206895756811,0,0,0,-2,0,0,-1,-2
1517206895756811,-1,-2,-1,-2,-2,0,1,0
1517206895777826,0,-1,-1,-1,0,-3,-2,1
1517206895777826,-2,-2,-3,0,-2,0,0,-1
1517206895779826,-1,-1,0,-1,-2,-3,-2,-1
1517206895779826,-1,-1,-2,-1,0,0,-2,-1
1517206895791337,-1,-1,0,-1,-2,-1,-1,-2
1517206895791337,-2,-1,-1,-2,-1,-1,-2,1
1517206895800340,-1,-1,-2,-1,0,-1,-1,0
1517206895800340,-2,-1,-1,0,-2,-1,-1,-1
1517206895815852,-2,-2,-1,-1,-2,-2,-1,-1
1517206895815852,-1,-1,-1,-1,-2,0,0,-2
1517206895817355,-3,0,-1,-1,-1,-2,-1,-1
1517206895817355,-1,0,-1,-1,0,-1,-2,0
1517206895837868,0,1,-2,1,-2,0,-1,0
1517206895837868,-1,0,-1,0,-2,0,-1,-1
1517206895839368,-1,-3,0,-3,-1,0,0,0
1517206895839368,-1,-2,0,-2,-1,-3,0,-1
1517206895851377,0,0,-1,0,1,-2,-2,-1
1517206895851377,-1,1,0,-1,0,-1,-1,-2
1517206895860391,-2,-2,-1,-2,1,-3,0,-1
1517206895860391,-1,-1,0,-1,-1,0,-2,-1
1517206895875408,-1,-2,-1,-1,0,1,-2,0
1517206895875408,-1,0,-2,-1,1,0,1,-1
1517206895876895,-3,0,0,0,-2,-2,-4,-3
1517206895876895,0,0,-1,0,-1,-1,2,1
1517206895897921,-2,0,-1,-3,-3,-3,0,0
1517206895897921,-2,-2,-3,0,0,-1,-1,0
1517206895899410,-1,0,-3,-2,-2,1,0,0
1517206895899410,1,-1,-1,0,-1,-2,-1,-2
1517206895911436,-2,-2,-1,-1,0,0,-1,-1
1517206895911436,-2,-3,-1,-2,-2,-1,0,-1
1517206895920426,-2,-2,0,-1,-1,-1,-2,-3
1517206895920426,-1,-2,0,-2,-2,-1,0,0
1517206895935455,-1,-2,-2,-2,0,-2,-1,-1
1517206895935455,-1,-1,-2,0,-1,0,-2,0
1517206895936937,0,-1,-2,0,-2,-1,0,-1
1517206895936937,0,0,-1,-2,-3,-1,-2,-2
1517206895957953,0,0,0,-1,-1,-2,-1,-2
1517206895957953,-1,-3,-1,-1,-2,-2,-1,-1
1517206895959453,-1,-1,-2,0,1,-1,0,1
1517206895959453,-2,1,-1,0,0,-1,-1,-1
1517206895971989,0,-1,0,0,0,-2,0,0
1517206895971989,0,0,-2,-1,-1,-2,-1,-1
1517206895980471,-1,-1,-2,-2,-1,-1,-1,2
1517206895980471,-3,-3,-1,0,-2,0,-1,-1
1517206895995479,-3,-1,-1,-2,-2,0,-2,-1
1517206895995479,-2,-1,0,-3,-1,-1,-2,0
1517206895996981,-2,-1,-1,-1,0,-2,0,-2
1517206895996981,-1,-2,-3,-2,0,-1,-1,-1
1517206896017994,-2,-1,0,1,-2,-1,-2,-2
1517206896017994,0,-2,0,0,-2,0,-1,-2
1517206896019508,0,0,-1,-1,-2,-1,-2,1
1517206896019508,-2,0,0,-2,-2,-2,-1,-1
1517206896031504,-4,-1,-2,-1,0,-1,0,0
1517206896031504,-1,0,0,-1,-1,-2,-2,1
1517206896040533,1,-1,-2,-2,0,-2,-1,-1
1517206896040533,-1,-2,-2,-1,-2,-1,0,0
1517206896056021,-1,0,-2,-1,-1,0,-1,-2
1517206896056021,-2,-3,0,-2,-1,-2,-3,-1
1517206896057522,-2,0,-2,0,-1,0,0,-2
1517206896057522,1,0,-1,-2,-1,0,0,0
1517206896078038,0,-2,-1,-3,-1,-2,-2,-1
1517206896078038,-1,0,-1,-1,-1,-1,-1,-1
1517206896079550,1,-2,-1,1,-1,-2,-1,-1
1517206896079550,-1,0,-1,-1,-2,-2,-1,-2
1517206896092069,0,-2,0,-1,-2,-2,-1,-1
1517206896092069,0,1,-2,0,-1,-2,0,-1
1517206896100562,3,3,2,0,-1,1,-1,-1
1517206896100562,-2,-4,-1,-2,-1,-2,-2,-1
1517206896115563,-4,2,-3,-1,-1,-1,-1,-1
1517206896115563,-5,-7,-2,-1,-1,-2,0,-1
1517206896117066,-1,-8,-2,0,0,0,0,0
1517206896117066,-1,-6,-3,0,-2,0,-2,-1
1517206896138087,0,0,-1,0,-2,-3,-3,0
1517206896138087,-2,2,1,-1,-1,-1,0,0
1517206896139596,-1,2,-1,-1,-1,-1,2,1
1517206896139596,0,3,0,0,1,0,1,1
1517206896151589,-1,-5,-1,-2,-2,1,0,-2
1517206896151589,0,2,-1,1,-1,-2,-2,-2
1517206896168100,-3,-2,-1,-3,-2,-1,-3,-3
1517206896168100,-1,0,-2,-1,0,-1,-2,-1
1517206896175605,1,0,-2,0,-2,-2,-1,-1
1517206896175605,-1,-3,-1,-1,-2,-2,1,-1
1517206896177108,-2,0,-2,-2,-1,-2,-2,0
1517206896177108,-3,0,-2,-3,-1,-1,-2,-1
1517206896205127,-1,-1,-1,-1,-1,-1,0,0
1517206896205127,-1,-1,1,-1,-1,-2,-3,-2
1517206896207128,-2,-1,-2,1,-2,-2,-1,-2
1517206896207128,0,0,-1,0,-1,-2,-2,-2
1517206896211631,-2,-2,0,0,1,0,0,0
1517206896211631,0,-1,-1,-2,-2,0,0,-1
1517206896220653,-1,-2,1,-2,-1,-1,-1,-2
1517206896220653,1,0,-1,-1,-1,0,0,-1
1517206896235164,-3,-2,-1,-2,-1,-2,0,-1
1517206896235164,0,1,-1,0,-1,-1,0,0
1517206896237152,-3,-1,-1,-1,-1,1,0,-1
1517206896237152,-3,-4,-1,-1,-3,-2,-2,-2
1517206896257664,0,-1,-1,-1,0,-2,-1,-1
1517206896257664,0,-3,-1,-2,-2,0,-2,1
1517206896259665,1,-1,-2,-1,-1,-2,1,-1
1517206896259665,-1,1,-1,-2,1,-1,0,-2
1517206896280686,-1,0,-2,-2,-1,-2,0,-1
1517206896280686,0,0,-1,0,-2,0,0,-3
1517206896282181,-2,-2,-2,0,-1,-1,-1,0
1517206896282181,0,-1,-2,-1,-1,-1,-1,0
1517206896295690,1,-1,-1,-1,-1,0,0,-1
1517206896295690,-2,-1,0,-2,-1,0,-2,-1
1517206896297193,0,1,0,-1,-2,0,-2,1
1517206896297193,-2,0,-1,-1,-1,-1,-1,-1
1517206896317707,-1,-1,-2,1,-1,0,-2,-1
1517206896317707,0,-2,-3,0,1,-1,0,0
1517206896319707,1,-1,0,-2,-1,0,-1,-2
1517206896319707,-1,-1,0,-1,-1,-2,-1,-1
1517206896339225,1,-1,0,-1,-1,-2,-1,0
1517206896339225,-2,-2,-2,-1,0,-2,0,0
1517206896357234,0,-2,-1,-1,-1,-2,0,-2
1517206896357234,-1,0,0,-1,-1,0,1,-1
1517206896358235,-3,-1,0,1,-2,-2,-2,-3
1517206896358235,-1,-1,-1,0,-2,-1,-3,-1
1517206896361737,-2,-3,-1,1,-2,-3,-2,-2
1517206896361737,-1,0,-1,-1,-1,-1,-2,-2
1517206896377751,-1,-1,-1,-2,-1,0,-1,-1
1517206896377751,0,0,-1,-1,0,-2,-1,-1
1517206896379750,-1,-2,-2,-1,-1,0,0,0
1517206896379750,-1,-1,-1,-1,0,-2,-1,-2
1517206896400267,0,-1,-1,0,-1,-1,2,1
1517206896400267,0,0,-1,-1,-1,-1,-3,-1
1517206896401766,-3,-1,-1,-1,-1,0,0,-1
1517206896401766,-2,0,-1,0,-2,-1,-1,-3
1517206896414777,-2,-1,0,0,-1,0,-3,0
1517206896414777,0,-2,0,-1,-1,-1,0,2
1517206896421280,0,-1,0,-1,-1,-1,0,-1
1517206896421280,1,-1,-1,-2,-1,-1,-1,1
1517206896437791,-1,-1,1,0,-1,-1,-2,-2
1517206896437791,-2,0,-1,-1,-3,-2,-1,-2
1517206896439292,0,-2,-1,-2,-2,1,-3,-2
1517206896439292,-1,-1,-1,0,-2,-1,0,-1
1517206896460329,-1,-1,-4,-1,-1,1,1,1
1517206896460329,-1,-1,-1,-1,-2,-1,-1,-1
1517206896461814,0,0,0,-1,0,-3,-2,-1
1517206896461814,-2,-2,-1,-1,-2,-1,0,0
1517206896474818,0,-1,-1,2,-1,0,-4,-3
1517206896474818,-1,0,-2,-1,-1,0,-1,-1
1517206896481823,-1,1,-2,-1,-3,0,-2,-1
1517206896481823,-2,-2,0,0,0,-2,-1,0
1517206896498335,-2,-2,0,0,0,-2,0,0
1517206896498335,-1,-2,0,0,-1,-1,1,-1
1517206896499336,-1,0,0,-1,0,-4,0,-1
1517206896499336,-2,-1,-1,0,-1,-2,-1,0
1517206896520352,-1,-1,-2,-3,-2,0,0,0
1517206896520352,-2,-2,0,-2,0,0,-1,-2
1517206896521851,-1,-1,-2,-2,-3,-1,-2,1
1517206896521851,1,-1,-1,-1,-3,0,-1,-1
1517206896534872,0,-2,-1,0,-3,-3,0,0
1517206896534872,-1,-1,-2,-1,-1,-3,-1,-1
1517206896541388,-1,0,-1,-1,0,1,-1,-2
1517206896541388,-2,0,-2,-3,0,-1,0,0
1517206896557876,-2,-3,-1,-2,-2,0,-2,-2
1517206896557876,-1,-1,-1,-1,-2,-2,0,-1
1517206896559377,-1,-2,-1,0,-2,0,-1,1
1517206896559377,0,-2,-3,-1,0,-2,-2,-3
1517206896580393,-1,-2,0,0,-2,-2,-2,-3
1517206896580393,-1,0,-1,-2,-1,-1,0,-2
1517206896581893,-3,-2,-2,-1,0,-1,0,-1
1517206896581893,0,-1,0,0,0,1,-1,1
1517206896594902,-1,1,-1,-2,0,-2,0,0
1517206896594902,-1,-1,0,0,-1,-1,-2,-2
1517206896601418,-1,-1,0,-1,-3,-2,-2,0
1517206896601418,0,-3,0,-2,-2,-1,-1,0
1517206896617926,-1,0,-1,-1,0,2,-1,-2
1517206896617926,0,-1,-1,-1,-2,0,-1,-1
1517206896619433,-1,0,1,-1,0,0,0,-1
1517206896619433,-2,-1,-1,-1,-3,-2,1,0
1517206896640434,1,-2,-1,-2,-1,-1,0,1
1517206896640434,0,-1,-1,1,0,0,-2,-3
1517206896641944,-1,-2,-2,-1,-2,-2,-2,-2
1517206896641944,-2,-1,0,2,-2,1,-2,-2
1517206896654944,-1,0,-1,-3,0,-2,1,-1
1517206896654944,-2,-1,0,0,-2,0,0,-1
1517206896661464,-1,-1,-2,-1,0,-2,-2,-1
1517206896661464,-1,-1,0,0,0,0,0,-1
1517206896677961,0,0,-2,-1,-2,-1,0,-1
1517206896677961,-1,-2,-2,-1,-1,0,0,-2
1517206896679463,1,1,-2,0,-1,0,-2,0
1517206896679463,0,0,-1,-2,0,-1,1,-2
1517206896700497,-1,-2,-2,-2,0,0,-1,0
1517206896700497,-1,-2,-2,0,0,0,-2,0
1517206896701978,-2,1,-1,0,-1,-1,0,-1
1517206896701978,1,0,-2,-1,-2,2,-3,-1
1517206896714488,-1,1,0,-2,-1,0,-2,-1
1517206896714488,-3,1,-1,-3,-1,-3,0,0
1517206896728997,-2,-3,0,-1,-1,-2,-1,-2
1517206896728997,-1,0,-2,-1,-2,-1,-1,-1
1517206896738004,0,-3,-1,0,-1,0,-1,0
1517206896738004,0,-1,-2,-1,-2,-1,-2,-1
1517206896739514,0,0,0,0,-2,0,-1,0
1517206896739514,0,2,0,-3,-2,-1,-2,0
1517206896760519,-3,-1,-2,-1,-1,-1,0,-2
1517206896760519,1,-1,0,-2,-2,-2,-1,-2
1517206896762041,-1,-1,-3,-2,-2,-3,-2,-2
1517206896762041,-1,-2,-1,0,-2,-1,-3,1
1517206896774063,-1,0,-1,-1,-1,-2,-1,-2
1517206896774063,-2,-1,-1,-1,-1,-1,-1,1
1517206896783036,1,-2,-1,-1,-1,-2,-1,-1
1517206896783036,-3,-2,-1,-1,0,-1,0,0
1517206896798547,-1,0,-1,-1,-2,-2,-1,-1
1517206896798547,-1,0,-2,-2,-1,0,-2,-1
1517206896800048,0,0,-1,0,0,-1,-1,-1
1517206896800048,-1,-2,-3,-2,-3,-2,-1,-1
1517206896820570,0,-2,-1,0,0,-1,-1,0
1517206896820570,0,-1,1,-1,1,-1,-1,1
1517206896822063,-1,-1,-3,-1,-1,-1,0,0
1517206896822063,-1,-1,-1,0,0,-1,1,-1
1517206896834071,-4,0,-3,0,-1,-1,1,0
1517206896834071,-1,-1,-2,-1,-2,-3,-2,-1
1517206896843078,-2,-2,-2,-3,-1,1,0,-1
1517206896843078,1,-2,-2,-2,0,0,-1,-2
1517206896858088,0,-1,-1,-1,-1,-1,0,0
1517206896858088,-1,-1,-2,-1,-2,-2,-1,-3
1517206896859590,-1,-2,-1,1,1,-1,1,-2
1517206896859590,-1,-1,-1,0,0,-2,-2,1
1517206896880604,-1,-1,-1,-1,-2,0,-2,-1
1517206896880604,0,0,-2,0,-1,0,0,0
1517206896882105,0,0,0,0,-2,-2,0,-1
1517206896882105,0,-1,0,0,-1,2,-2,-2
1517206896894135,0,0,-1,-1,-1,-3,-1,0
1517206896894135,-1,-1,0,-2,0,0,-1,-1
1517206896903121,-2,0,-2,-1,-2,-1,-1,-2
1517206896903121,-1,-1,-1,0,-2,0,-1,-3
1517206896918130,-2,-1,-2,0,-1,-1,-1,-3
1517206896918130,-1,0,-1,-2,0,-1,0,0
1517206896919671,-1,-2,0,-1,0,2,-1,0
1517206896919671,-2,-2,0,-3,-2,-3,-1,-2
1517206896940646,-1,-2,-1,-3,-1,-1,-1,-1
1517206896940646,-2,-1,-1,-1,0,-2,0,-1
1517206896942167,-1,-2,-2,-2,-1,-2,0,0
1517206896942167,0,-1,0,0,-1,-2,0,-2
1517206896954171,-1,0,-2,-2,-1,-1,-1,1
