timestamp,emg1,emg2,emg3,emg4,emg5,emg6,emg7,emg8
1512363096324819,0,1,2,-1,0,-2,-1,-2
1512363096324819,-1,0,-2,0,-1,1,-1,-1
1512363096325818,0,1,-1,0,-1,-1,-1,-2
1512363096325818,-2,2,-3,-2,0,-2,-2,-2
1512363096338825,-1,-2,-1,0,-1,-1,-1,1
1512363096338825,-2,-1,-1,-3,-1,-1,-2,-2
1512363096346831,0,-1,1,-2,-1,-1,0,-1
1512363096346831,0,0,-1,-2,-2,0,0,-1
1512363096361841,2,0,-1,0,-3,-2,-1,-1
1512363096361841,0,-1,1,-1,-2,0,-1,-3
1512363096362842,-2,-1,-1,2,-1,-3,0,0
1512363096362842,1,-2,1,-1,-1,-1,-1,0
1512363096384857,-2,-3,-5,-1,-1,0,-2,0
1512363096384857,-1,-1,6,2,0,-1,-1,-1
1512363096385858,0,-1,-2,-1,-2,-1,-1,-1
1512363096385858,-1,-1,0,0,2,-1,0,-1
1512363096398867,-2,-1,-2,0,-1,-1,0,1
1512363096398867,0,-2,-5,0,-2,-1,-3,0
1512363096407876,0,-1,1,-1,0,-2,-1,-1
1512363096407876,1,0,-1,-1,-1,-1,-2,-2
1512363096421884,1,-3,-2,-1,-1,1,-1,-2
1512363096421884,-4,-2,-2,-2,-2,-4,-1,0
1512363096422884,-2,-1,0,-1,-2,-2,0,0
1512363096422884,-1,-2,-3,2,-1,-2,0,-1
1512363096444900,-1,-1,0,-1,-2,-2,0,-1
1512363096444900,0,-1,-2,-2,0,-1,-2,-1
1512363096445900,-1,-1,-2,-2,-3,0,-2,-1
1512363096445900,-1,0,0,-2,-1,0,-1,-1
1512363096458922,0,2,3,-2,0,-2,-1,0
1512363096458922,-3,1,-1,-1,-1,0,1,-2
1512363096466928,0,-2,-2,-1,0,0,-1,-2
1512363096466928,-3,-3,-1,-2,-1,-1,-1,-2
1512363096481938,0,-1,0,-2,0,-1,-2,-1
1512363096481938,-1,-1,-2,-2,0,0,-1,0
1512363096482934,-2,-1,-1,0,0,-1,-2,-2
1512363096482934,-2,-3,-2,0,-2,-2,-1,0
1512363096504942,-2,-1,-1,-1,-1,-2,-1,-1
1512363096504942,-1,-1,-3,-1,-1,-1,-1,-1
1512363096504942,0,-1,-3,-2,0,-1,-2,-2
1512363096504942,1,-3,2,2,1,1,0,0
1512363096527959,0,1,-1,-3,0,-2,0,-2
1512363096527959,-2,-1,-1,-2,-1,-2,-2,0
1512363096528960,-2,0,0,-1,-2,-2,-1,-1
1512363096528960,-2,-1,-2,-1,-1,-2,-2,-1
1512363096541969,-2,-2,1,-2,0,1,0,0
1512363096541969,0,-1,-2,-1,-1,-1,-1,-3
1512363096542981,1,-2,-1,-2,-1,-1,-1,-1
1512363096542981,1,0,-1,-1,-2,-2,-1,-1
1512363096565052,-2,-2,-1,-1,-1,-1,0,-1
1512363096565052,0,2,-2,0,0,0,-1,-1
1512363096565052,-1,0,-2,-2,0,0,-2,1
1512363096565052,-2,0,-3,-1,-1,-1,-2,0
1512363096588080,-1,-2,-2,-3,-2,-2,-1,-2
1512363096588080,0,-2,0,0,-2,-2,0,-1
1512363096589059,-1,-1,-1,0,-1,-2,0,-1
1512363096589059,0,0,1,-3,0,-1,-1,-2
1512363096603069,-1,0,-1,0,-2,0,-1,0
1512363096603069,-1,-1,-2,-1,-2,0,-1,-1
1512363096604070,-2,-2,0,0,-1,-2,0,-1
1512363096604070,-2,-2,0,-1,-1,-1,0,-2
1512363096625086,-2,0,-1,-1,-1,0,-1,-2
1512363096625086,-1,1,0,0,0,-2,-2,-1
1512363096625086,-2,-2,-1,0,0,-2,-1,1
1512363096625086,-1,-2,-2,-2,-1,-1,-1,-1
1512363096648118,0,-5,1,0,0,0,0,1
1512363096648118,0,-3,-1,-3,-3,-3,-2,-1
1512363096649102,-1,-3,-2,-2,-1,0,-4,-2
1512363096649102,-1,0,-2,-1,-2,-1,-1,-2
1512363096662125,0,-1,-2,-1,0,-2,-1,-2
1512363096662125,0,-1,-2,-2,-3,-2,-2,1
1512363096663112,-4,2,-1,0,0,2,0,0
1512363096663112,-1,1,-3,-2,-2,-1,-1,-3
1512363096685127,-2,1,-3,1,-3,-1,-1,-5
1512363096685127,-3,-1,1,-3,-2,1,0,0
1512363096685127,0,-2,-2,-2,-2,-3,-1,0
1512363096685127,0,-1,-1,-1,-1,0,0,0
1512363096708146,-1,1,0,-2,-3,-2,-2,0
1512363096708146,-2,-1,0,0,-1,-2,-2,-2
1512363096709144,1,-1,-1,-3,-1,0,-2,-3
1512363096709144,-2,0,1,-1,-2,-1,0,-1
1512363096722155,0,-2,-2,-2,0,-1,1,1
1512363096722155,-1,-1,-2,-1,-2,-1,0,-1
1512363096723159,1,-2,0,0,-1,1,-1,-1
1512363096723159,-4,-2,-3,1,0,-1,-3,-1
1512363096745169,-2,1,-2,-3,-3,-2,-1,-2
1512363096745169,-1,-1,-2,-1,0,0,0,-2
1512363096745169,-3,-1,-2,-1,-1,-2,0,0
1512363096745169,0,-2,-1,-2,-1,-1,0,-2
1512363096768198,-1,0,0,-1,-1,-1,-2,0
1512363096768198,-1,-1,-1,-2,-1,-2,-1,-1
1512363096768198,2,-1,0,-1,-3,-1,0,-3
1512363096768198,2,0,-1,-1,0,-1,-2,-1
1512363096782234,0,-1,-2,0,1,0,-2,-2
1512363096782234,-1,-1,-1,-1,2,0,-2,-1
1512363096784212,-2,1,0,-3,0,1,-2,-1
1512363096784212,-1,-2,0,-1,0,-1,-1,-2
1512363096804211,-1,-2,-2,-1,-1,-1,1,-2
1512363096804211,0,-1,0,0,-1,-1,-1,-1
1512363096805220,-3,-1,-3,0,-2,-2,-1,0
1512363096805220,-1,-1,-2,0,0,-1,-1,-1
1512363096828241,0,0,-1,1,-2,0,-1,0
1512363096828241,1,-2,-1,1,-2,-1,0,-2
1512363096828241,0,-2,0,-1,-3,-1,0,0
1512363096828241,0,-1,-2,-1,-1,-1,0,0
1512363096842247,-1,-3,-3,-2,-2,0,-2,-1
1512363096842247,0,-3,-3,-4,-1,-1,-1,0
1512363096843256,-2,-1,-4,-1,-1,-2,2,0
1512363096843256,-1,-3,1,-2,-1,-2,0,1
1512363096864266,-1,0,-1,-1,0,-2,1,-1
1512363096864266,-2,-1,0,-1,-2,0,-1,0
1512363096865263,1,-1,0,1,0,0,-2,-2
1512363096865263,-1,0,-1,-2,-3,-1,-3,0
1512363096888301,1,0,0,-1,0,-2,-2,1
1512363096888301,0,-2,0,-2,-1,-2,-1,-1
1512363096888301,-1,-2,-1,-2,0,-2,-2,-2
1512363096888301,-4,0,-1,0,0,0,-2,-1
1512363096902312,-3,-5,-2,-2,0,0,-3,-2
1512363096902312,-1,-1,-3,0,0,-1,0,1
1512363096903329,-1,-2,-2,0,0,0,-1,0
1512363096903329,-1,-3,-1,-2,-1,-3,-1,0
1512363096924327,0,0,-2,-1,-1,-2,0,-3
1512363096924327,-1,1,-3,-1,-2,-1,1,0
1512363096925328,0,1,-1,0,-3,0,-1,-1
1512363096925328,-1,-1,-3,-2,-2,-1,-1,0
1512363096948349,-2,-2,-1,0,-1,-2,-1,0
1512363096948349,-5,3,-3,-2,-3,-2,-3,-1
1512363096948349,0,-1,0,-2,0,-2,-2,0
1512363096948349,0,0,-2,0,-3,0,-1,-1
1512363096962353,-3,1,-1,0,-1,-1,-2,-2
1512363096962353,0,1,0,-2,1,-1,0,0
1512363096963354,-1,-1,1,0,-2,-1,-1,-1
1512363096963354,-1,-1,-1,0,-2,1,-1,-1
1512363096984370,1,-1,-2,-1,-1,-1,-2,-1
1512363096984370,-1,-3,-1,-2,0,-1,-2,-1
1512363096985369,0,0,-1,-1,0,-1,-1,-2
1512363096985369,-1,-2,0,-2,1,-1,-1,-3
1512363097008393,-2,0,-2,0,-1,1,-1,0
1512363097008393,-3,-1,-2,0,-1,1,2,-3
1512363097008393,-2,-2,-3,-1,0,-2,1,-2
1512363097008393,0,-2,-1,-2,1,-2,0,-1
1512363097022395,-1,0,1,-2,0,0,-2,1
1512363097022395,-1,-1,0,-1,-1,-2,-1,-1
1512363097023396,-1,-2,-3,-1,-1,-1,-2,0
1512363097023396,-1,-1,1,0,-3,0,0,1
1512363097044424,0,-1,-1,-3,-1,-1,-2,0
1512363097044424,0,-1,1,0,-2,-3,1,-1
1512363097045412,-2,1,0,-1,0,0,-1,-2
1512363097045412,-1,0,-2,-1,1,-2,-2,0
1512363097067440,0,0,-3,0,-2,-3,-1,0
1512363097067440,-1,-1,-2,1,-1,0,-2,-2
1512363097068457,-2,-1,-1,-3,-4,-1,-2,-1
1512363097068457,-1,0,-1,-3,-1,-1,0,-2
1512363097082511,-1,-2,-2,-1,-3,-2,0,-1
1512363097082511,0,-2,-1,-1,-1,0,-1,-3
1512363097083514,-3,0,0,1,-1,-2,-1,0
1512363097083514,0,-1,-2,2,-2,1,-2,-1
1512363097104528,-2,-2,0,-3,-1,-1,0,-2
1512363097104528,0,-1,1,-1,0,-1,0,-2
1512363097112523,-1,-2,-2,1,-1,0,1,2
1512363097112523,0,-2,-2,0,-1,-3,-1,0
1512363097127533,-2,-1,-2,-1,1,-2,-1,0
1512363097127533,0,-2,-1,-2,0,-2,-2,-1
1512363097128532,0,0,1,-1,-1,-2,-1,-2
1512363097128532,-1,-2,2,-1,-1,-1,0,-2
1512363097141532,0,-2,-5,-2,0,-1,1,-3
1512363097141532,-1,-1,-4,-1,-1,1,-1,-1
1512363097149537,2,0,-2,-2,-1,-2,0,0
1512363097149537,0,0,-3,-2,-3,-2,-2,-2
1512363097164547,0,-2,2,-1,-1,0,-2,-1
1512363097164547,0,0,-2,-3,-2,-2,0,0
1512363097165548,0,-1,-1,-1,-2,1,0,-3
1512363097165548,-1,0,0,0,-1,-1,-1,0
1512363097186564,0,-1,-2,-2,-3,0,-1,1
1512363097186564,-1,-1,-1,-1,-4,-1,-1,-1
1512363097194568,-1,-2,-2,-1,-1,-1,0,1
1512363097194568,-2,0,-2,0,1,0,1,-1
1512363097210580,-1,0,-1,-1,-2,-1,-2,-1
1512363097210580,-2,-1,-1,-1,-1,0,0,-1
1512363097211581,0,-2,-1,-2,-2,-1,-1,-1
1512363097211581,0,-1,0,-2,-1,-1,-3,-3
1512363097224589,-1,0,0,0,0,1,-2,-1
1512363097224589,-1,0,-2,-2,-2,-2,0,-2
1512363097225590,-3,1,-4,-1,1,-2,0,-3
1512363097225590,-1,-1,-1,-1,-1,-1,0,-1
1512363097247606,0,-1,-3,0,-2,-2,1,-1
1512363097247606,1,0,-1,-1,0,-2,0,0
1512363097248606,-2,-1,-3,-1,-1,0,-1,0
1512363097248606,-1,-2,-1,-1,-1,-1,-1,2
1512363097261616,-2,-1,-2,-1,-2,0,-2,-1
1512363097261616,-1,-1,-3,0,0,3,-1,1
1512363097269621,0,0,-1,0,-2,-2,0,-3
1512363097269621,-1,-2,-2,-2,-2,-1,0,-1
1512363097284634,-2,-1,2,-1,0,-1,2,0
1512363097284634,-3,-1,0,0,-2,-3,-2,0
1512363097285633,-2,-1,2,0,-1,0,-2,0
1512363097285633,0,-3,-2,0,-1,-1,-1,-1
1512363097307651,1,0,-1,-1,-2,0,0,-3
1512363097307651,-1,-2,-1,-2,-1,1,1,-2
1512363097308651,-3,-3,-1,1,-2,-2,-2,-1
1512363097308651,-2,-1,-1,-1,-2,-2,-2,1
1512363097321659,-3,-2,-2,1,0,0,-1,-1
1512363097321659,1,-1,-1,-1,0,-1,0,0
1512363097329665,-2,-3,-1,-2,0,0,1,-1
1512363097329665,-2,-1,-1,-2,-2,-2,-1,-3
1512363097344687,-1,-3,2,0,0,0,-3,1
1512363097344687,-3,-1,1,-1,-1,0,-3,-2
1512363097345676,0,0,1,-1,-2,-1,-1,1
1512363097345676,-1,0,0,-1,0,1,-2,-1
1512363097375704,-1,0,0,-2,-2,-1,1,-3
1512363097375704,-1,-2,-1,-1,-1,-3,-2,-1
1512363097376700,0,-1,-3,-2,-1,-2,-3,-1
1512363097376700,-1,-1,-3,0,-1,1,0,2
1512363097381727,-1,0,-1,-1,-1,-2,-1,1
1512363097381727,-2,-3,-2,-1,-1,0,0,-2
1512363097389708,0,0,0,-2,-3,-1,-1,-2
1512363097389708,-1,0,-2,-1,0,-1,0,-4
1512363097404755,0,0,-4,-1,-1,-2,-3,-3
1512363097404755,-2,-3,-1,-1,0,-1,-2,-1
1512363097405730,1,-2,-1,-2,0,-1,0,-2
1512363097405730,-2,0,-2,-3,-1,1,-1,0
1512363097427745,-1,0,-2,-1,-3,-3,-2,0
1512363097427745,-2,1,-1,1,-2,-1,0,0
1512363097428734,1,0,0,-1,-1,-1,0,0
1512363097428734,-1,-2,1,0,-2,0,0,-1
1512363097441758,-2,-1,-3,-2,-1,-1,-1,0
1512363097441758,0,0,-2,-1,-2,-2,-1,-1
1512363097449748,-1,-2,-1,-1,0,-3,-2,-3
1512363097449748,1,-1,0,0,-1,-1,-1,0
1512363097464772,-1,-2,1,0,1,-1,-2,0
1512363097464772,-1,-4,-2,0,-3,-1,-1,0
1512363097465760,-1,-1,-3,1,-1,-2,-1,1
1512363097465760,1,-1,2,1,-1,-1,1,1
1512363097488776,-1,-1,-3,-1,-3,-3,-2,-2
1512363097488776,0,0,-2,-2,-1,0,0,-1
1512363097488776,-2,-1,-2,-2,-1,-2,-3,-2
1512363097488776,-2,1,-3,-2,-1,-2,0,-1
1512363097510810,-2,-1,-1,0,-1,0,1,1
1512363097510810,-1,0,-1,-1,0,-1,2,0
1512363097510810,-1,0,-2,-2,-1,0,0,0
1512363097510810,-3,-1,1,-1,-1,-2,-2,0
1512363097524814,-1,1,0,-2,0,0,1,-1
1512363097524814,-1,-2,-1,-1,-2,-2,-2,-1
1512363097532821,-2,-2,-2,0,-1,-1,0,-2
1512363097532821,0,-3,-3,-1,-1,-2,-2,0
1512363097547819,-1,-2,0,1,-2,-1,-1,0
1512363097547819,1,-1,-1,-1,-2,0,-1,-2
1512363097548820,-1,-1,-1,-1,-3,0,0,0
1512363097548820,2,0,-3,-1,-2,-1,-1,-1
1512363097569847,0,-1,-2,-2,-1,-1,-2,-1
1512363097569847,-1,-2,-1,-2,1,-2,-2,-1
1512363097576838,0,0,-2,0,0,-2,0,0
1512363097576838,-1,0,-2,0,-1,-1,0,-2
1512363097584898,-1,-4,-2,1,-3,0,0,-1
1512363097584898,-3,-1,0,-1,-2,-1,0,-1
1512363097585845,0,-5,4,-1,0,0,-1,-1
1512363097585845,-3,-1,-2,-2,0,-1,-2,0
1512363097607863,-2,1,-3,-1,0,0,-1,0
1512363097607863,-2,0,-1,-2,1,-1,-1,0
1512363097608863,0,0,-1,-1,-3,-1,1,-1
1512363097608863,1,0,0,0,0,-2,-3,-2
1512363097629889,-2,-2,0,0,1,-2,0,0
1512363097629889,-1,-1,-1,-2,-1,-1,-4,0
1512363097630877,-1,-1,-2,0,0,0,-2,0
1512363097630877,-1,0,0,0,-1,-1,0,-1
1512363097644890,-1,0,-1,0,-1,0,2,-2
1512363097644890,-1,0,-1,-1,-1,-2,0,-1
1512363097645887,-2,-1,-2,-2,0,0,-1,-2
1512363097645887,-1,-2,1,-2,-2,-1,-2,-1
1512363097667920,-1,-1,-2,-1,-2,0,0,-2
1512363097667920,2,0,-1,1,-1,0,0,-2
1512363097668916,-1,-2,1,1,-2,-1,-2,-1
1512363097668916,0,-2,-1,0,-3,-1,-1,-1
1512363097689919,-1,-1,-2,-1,1,0,-1,-1
1512363097689919,-1,-2,0,-1,-1,-1,0,1
1512363097690918,-1,-1,-1,-5,-1,-1,-3,0
1512363097690918,-2,-3,-3,0,-1,-2,0,-1
1512363097704956,0,0,0,-1,-1,-1,0,-3
1512363097704956,0,0,-1,-1,-1,0,0,-2
1512363097705931,1,0,-3,0,-1,0,-1,2
1512363097705931,-1,-2,-2,-2,1,0,-1,0
1512363097727958,1,0,0,-2,-1,0,-1,-3
1512363097727958,-1,0,-3,-2,-3,-2,-1,-1
1512363097728958,0,-1,-1,0,-1,-1,0,0
1512363097728958,-1,0,1,-3,-1,-1,0,-1
1512363097749973,-2,-2,-2,-1,-2,-3,-2,0
1512363097749973,-2,-3,0,-3,-2,0,0,-1
1512363097750963,-1,-2,-2,-2,-2,1,-2,-1
1512363097750963,-2,-1,-1,0,-2,-1,-1,-1
1512363097764981,-1,-3,-1,0,-1,-2,0,1
1512363097764981,1,-2,-2,1,-1,-1,-1,-2
1512363097765989,-3,0,-1,-1,-1,-1,1,-1
1512363097765989,-2,-2,1,-1,-1,0,-1,-1
1512363097788004,-1,-2,0,-3,-1,-1,-2,-1
1512363097788004,-1,-2,0,0,-2,-2,-2,-1
1512363097789991,0,-1,-2,-1,-3,-2,-1,-1
1512363097789991,0,-2,-1,1,0,-2,0,-2
1512363097810015,-2,-3,0,-1,-1,-1,0,-1
1512363097810015,-3,0,-1,-1,-1,-2,0,1
1512363097812005,0,-1,-1,-1,-1,-2,-1,0
1512363097812005,-1,0,-1,-2,-1,-1,0,1
1512363097824014,1,-2,-3,-3,0,0,-2,-1
1512363097824014,0,-2,-2,-2,0,-2,-1,0
1512363097833020,-2,0,-2,-1,0,-1,0,-1
1512363097833020,-3,0,-2,-1,0,0,-2,-1
1512363097848047,-1,-2,-1,0,0,-3,-1,0
1512363097848047,-2,-2,0,-2,0,0,0,0
1512363097849031,-1,-1,0,-2,-2,1,0,-1
1512363097849031,1,0,-1,-1,-2,-1,0,-1
1512363097870046,-1,-1,-3,-2,-2,0,-2,-1
1512363097870046,-1,-1,-1,1,-1,0,-2,-3
1512363097872047,-2,-1,0,2,0,-3,-3,-3
1512363097872047,-1,-1,0,0,-2,-1,-1,-2
1512363097884057,-2,0,1,-1,-1,0,1,0
1512363097884057,-2,0,0,-3,-2,-2,-3,0
1512363097893062,-2,-3,-1,-1,0,-1,-1,-1
1512363097893062,-2,-3,-1,-1,-1,-2,-1,1
1512363097908093,-2,-1,-2,1,-1,-1,-2,-2
1512363097908093,-3,-1,-3,-1,0,1,-2,-2
1512363097909074,0,-1,0,-2,-1,-1,0,1
1512363097909074,0,0,-1,-1,-1,0,0,-1
1512363097930102,1,0,0,0,-3,-1,1,-2
1512363097930102,0,-1,0,-1,-2,-3,-2,-2
1512363097932089,-3,0,0,0,-1,-2,-2,-2
1512363097932089,-1,-5,1,1,1,-2,0,0
1512363097944112,-1,-2,-1,-1,-1,0,-2,0
1512363097944112,0,0,-1,-2,-3,-1,1,-1
1512363097953107,-2,-1,-3,1,-3,0,1,0
1512363097953107,-2,0,-3,-1,-1,1,-1,-2
1512363097968127,-2,0,-2,-1,1,-1,-1,0
1512363097968127,0,0,-2,0,-1,-2,1,-1
1512363097969126,0,-1,0,1,-1,-2,-1,0
1512363097969126,1,-3,-2,-1,0,-2,-2,-1
1512363097990145,-2,-2,-1,0,-1,0,0,-1
1512363097990145,-1,0,-1,-1,0,0,-1,0
1512363097992144,-2,1,-2,-3,-1,0,-2,0
1512363097992144,-3,1,-1,-2,-1,-1,0,1
1512363098004214,0,0,0,-1,0,-2,-1,-1
1512363098004214,-2,-3,0,0,1,-1,2,-2
1512363098013197,1,-3,-2,0,-1,-1,-2,-1
1512363098013197,-2,-1,-2,-1,-3,-1,-4,0
1512363098028220,-1,-2,-2,-1,-1,-1,-1,-3
1512363098028220,0,-1,-1,0,-3,0,-2,-1
1512363098029209,0,-1,-1,-2,-1,-3,0,-2
1512363098029209,1,0,-1,-1,0,-1,0,-1
1512363098050235,-1,0,-1,-1,0,-1,-1,-2
1512363098050235,-1,-1,-1,1,-2,-1,-2,0
1512363098052224,-1,1,-1,-2,-1,-2,-1,0
1512363098052224,-1,-2,0,-2,-2,-1,0,0
1512363098064250,-1,0,-4,-2,-3,-2,-2,0
1512363098064250,0,-3,-2,-3,-1,0,-1,1
1512363098073243,-1,-1,0,-1,-2,-3,-1,-2
1512363098073243,-1,0,-1,0,-1,-2,-1,-4
1512363098088249,-3,1,0,-2,0,-1,-1,-1
1512363098088249,-3,0,-2,0,-1,0,-2,-2
1512363098089251,-1,0,-2,-1,-2,-2,-1,-3
1512363098089251,-1,0,-2,-2,-2,-1,-1,0
1512363098110275,0,-3,-1,-1,-1,-2,1,1
1512363098110275,0,-2,-2,0,-1,-1,-1,0
1512363098112277,-1,-1,-1,0,2,-2,0,-1
1512363098112277,-1,0,1,0,-2,-2,0,-2
1512363098124290,-1,-1,2,-2,0,-1,-3,-1
1512363098124290,-3,-1,0,-2,-1,-1,-2,-2
1512363098133282,-1,-1,-1,-2,0,0,-2,-1
1512363098133282,-1,-4,-1,-1,0,-1,1,0
1512363098148292,-3,-1,1,0,-3,-1,-2,-3
1512363098148292,0,-2,0,1,-1,-1,-1,-1
1512363098149294,0,-3,-2,0,-1,0,0,-1
1512363098149294,-1,2,-3,-1,-1,0,-4,-1
1512363098171308,1,-2,-1,-1,-1,1,-2,2
1512363098171308,1,0,1,-1,-1,0,-3,-2
1512363098172310,-5,-2,-3,-1,-2,0,0,-1
1512363098172310,-3,-2,-1,1,-1,-1,0,-1
1512363098184321,-1,0,-2,-1,-1,-2,1,-2
1512363098184321,-1,-2,-2,-1,-1,-2,-1,-1
1512363098193325,2,-1,-1,-2,0,-1,-2,0
1512363098193325,-1,0,1,-1,-1,-2,-3,-1
1512363098207335,-2,1,-3,-2,-1,-3,1,-1
1512363098207335,0,-2,-2,-3,-2,-1,0,-1
1512363098209335,1,-1,-1,-1,-2,-2,-3,-1
1512363098209335,-3,-2,-1,0,0,-1,0,-1
1512363098230351,0,0,0,-2,-1,0,0,-1
1512363098230351,-1,0,-4,-2,0,-2,-1,-2
1512363098232361,-1,0,-1,-1,-1,-2,0,-1
1512363098232361,0,-2,-1,-1,-3,-1,-1,-2
1512363098244370,-1,-4,0,1,-2,-2,-1,-2
1512363098244370,-3,-1,1,0,-1,-2,0,0
1512363098253369,-2,-3,-1,0,-2,-1,0,0
1512363098253369,-2,-3,-4,-4,-1,-1,-2,0
1512363098267391,0,-1,-2,-3,-1,2,0,-1
1512363098267391,0,-2,0,-2,-2,0,0,-1
1512363098269392,-3,0,-1,0,1,-1,-3,-2
1512363098269392,-1,-1,-1,-2,0,-1,1,-1
1512363098290395,-1,-2,0,0,-1,-1,0,0
1512363098290395,0,-4,2,0,-1,0,0,-1
1512363098292393,-2,0,0,0,0,0,0,-1
1512363098292393,-1,0,0,-2,0,1,0,-3
1512363098304421,0,0,-1,-1,-1,-2,-1,-1
1512363098304421,-2,0,-1,-1,0,-2,-1,1
1512363098313410,-2,1,-1,-2,-1,-2,-1,-2
1512363098313410,-2,0,-1,0,-1,-2,-1,-1
1512363098327419,-1,0,-2,-1,-2,-1,-3,0
1512363098327419,1,-1,-1,1,-2,-3,-2,-1
1512363098329430,1,-1,-2,0,0,-1,-2,0
1512363098329430,0,-1,-1,-2,-1,0,-1,1
1512363098350444,-2,0,0,-1,-1,-1,0,-1
1512363098350444,-1,1,-1,-2,0,-1,-1,-2
1512363098351437,-1,-2,-1,-2,-3,0,-2,-1
1512363098351437,-1,-2,-3,1,-2,-2,-1,2
1512363098373452,-2,-3,-2,-1,-1,-1,1,0
1512363098373452,-2,-2,-4,1,1,0,0,0
1512363098374454,-1,-3,-2,0,0,-2,-1,-2
1512363098374454,-1,-4,4,0,-1,-1,-2,-1
1512363098387465,2,0,-2,-2,-1,0,-1,-2
1512363098387465,-2,1,0,-2,-2,-2,0,-1
1512363098389462,0,-2,-1,-2,-3,-1,0,1
1512363098389462,-1,-1,0,1,0,-2,-1,-1
1512363098410489,-1,0,-2,-1,-1,-1,-1,-1
1512363098410489,-1,-1,0,-1,0,-1,-1,-1
1512363098411478,-2,-1,-1,1,-1,-2,-2,-2
1512363098411478,1,0,-2,-2,-2,-2,-2,-2
1512363098432505,-2,-1,-2,0,-2,-1,-3,-2
1512363098432505,-2,-1,-3,-4,-2,-3,-2,-1
1512363098438516,0,-2,-2,1,1,-1,1,0
1512363098438516,-2,0,-2,-1,-1,-1,-2,-1
1512363098447522,0,-2,-1,1,0,-2,-2,-1
1512363098447522,0,-2,0,0,-1,1,-1,-2
1512363098449506,-1,-1,1,-1,-2,-2,-1,0
1512363098449506,0,-1,-1,-1,-1,0,-2,-1
1512363098470520,-1,0,-2,-1,-1,0,-2,-1
1512363098470520,-2,-1,1,0,-2,0,-2,-2
1512363098471521,-1,1,0,-2,-2,-1,-1,-2
1512363098471521,0,0,-1,-1,-1,-1,0,-1
1512363098492549,-1,-1,-1,-1,1,-1,0,0
1512363098492549,2,0,-3,-1,-1,0,-1,-2
1512363098494552,-2,2,-7,-1,-2,0,-1,-1
1512363098494552,-1,0,-3,0,0,0,-1,-1
1512363098507569,-1,0,0,-2,0,-1,-3,-2
1512363098507569,1,-2,-3,-1,-1,0,-1,-1
1512363098509548,-1,-1,0,-2,-1,0,0,-2
1512363098509548,-2,-3,-1,-1,-2,-2,0,-1
1512363098530572,1,-2,1,-1,-2,-2,1,1
1512363098530572,-2,0,0,-1,0,-3,-1,0
1512363098531563,-1,-2,1,-2,-2,-1,-3,-1
1512363098531563,-1,0,-2,-1,-1,1,0,1
1512363098560596,0,0,1,-1,-1,-2,-1,-2
1512363098560596,-1,-1,-2,0,0,-2,-1,-2
1512363098561588,-1,-1,0,-1,-1,-2,0,-1
1512363098561588,-2,-2,0,-1,-2,-3,-1,-1
1512363098567598,-2,0,0,-2,-1,-1,0,-1
1512363098567598,0,-2,-1,0,-2,-1,0,0
1512363098569599,-2,-2,-1,-1,-1,0,0,0
1512363098569599,-1,-2,-1,-2,0,-2,0,-1
1512363098590606,-4,-3,-2,-1,-2,-3,-2,-1
1512363098590606,-2,0,-1,-1,0,-1,0,1
1512363098592606,-2,0,-2,-1,0,-1,-1,-1
1512363098592606,-1,-1,-2,2,-2,0,-2,-1
1512363098612634,-1,0,-2,-1,-1,-1,0,-1
1512363098612634,-1,-1,-1,-1,-2,-1,2,0
1512363098614624,0,1,-2,0,0,0,-1,-1
1512363098614624,2,-1,-3,-1,-1,0,-1,-2
1512363098626639,0,-1,0,-1,-2,-1,0,-2
1512363098626639,0,-2,-1,-2,-2,-3,0,-2
1512363098633635,-2,-3,1,-2,-1,-1,0,-1
1512363098633635,-2,-1,-1,-1,-1,-2,-3,-1
1512363098650656,0,-3,1,0,-1,0,-1,-1
1512363098650656,-1,-3,-2,-2,0,-2,-2,-1
1512363098651648,-1,-1,0,-1,-1,0,-1,-2
1512363098651648,-1,1,-5,-1,-2,-2,0,0
1512363098673669,-3,0,-5,-1,-1,-1,-2,-1
1512363098673669,-2,-1,-1,0,0,-1,-1,0
1512363098674664,1,-2,-1,-2,-1,-3,-3,0
1512363098674664,0,-3,0,-3,-1,1,0,-2
1512363098687673,-1,-2,0,-1,-1,0,1,0
1512363098687673,-2,-2,-1,-1,-2,-2,-2,1
1512363098693689,-1,-1,-1,0,0,-1,-2,-1
1512363098693689,-2,1,-1,0,-1,-2,-1,-1
1512363098710708,-1,-1,-2,-3,-3,-2,-1,0
1512363098710708,-1,-1,0,-2,-2,-1,-1,-2
1512363098711690,-1,-3,-1,0,-2,-1,-1,-2
1512363098711690,0,-1,0,-1,-1,-1,0,-2
1512363098732717,-1,-1,-3,0,0,-3,-1,-1
1512363098732717,0,1,-2,1,-1,-1,-1,-2
1512363098734707,-1,1,-2,-2,-1,-3,-1,-1
1512363098734707,0,-2,2,-2,-3,-1,0,0
1512363098746727,-2,0,1,-2,-2,0,-1,-1
1512363098746727,-3,-1,-1,-2,0,0,-2,-1
1512363098753729,-1,-2,0,-1,0,-2,1,0
1512363098753729,-3,-1,0,-3,-1,-1,-1,-1
1512363098770732,-3,-1,0,-3,-1,-2,-1,0
1512363098770732,0,-1,-2,-1,-1,1,-1,-2
1512363098771736,0,-1,-2,0,-2,0,-2,-1
1512363098771736,-1,1,-2,-1,0,0,-1,-1
1512363098792758,-2,0,0,-1,1,-1,0,-1
1512363098792758,0,1,1,-2,-3,-1,0,-1
1512363098794759,0,-2,1,-2,-2,0,-1,-1
1512363098794759,-1,0,-2,-2,-1,0,-1,-1
1512363098806769,-1,-2,-1,0,0,0,-1,-2
1512363098806769,0,-3,-2,-2,2,0,-1,-1
1512363098813772,-2,-2,-1,0,0,2,-2,-1
1512363098813772,-1,-2,1,0,0,-2,-1,-1
1512363098830774,1,-1,-2,-1,-1,0,-3,-1
1512363098830774,-1,-1,-1,-1,-1,-2,0,0
1512363098831776,0,-2,-4,-1,-2,-2,-3,-1
1512363098831776,-2,-1,-2,-2,-1,-2,0,-1
1512363098852814,1,1,0,-1,-2,0,-2,-1
1512363098852814,-1,-2,-2,1,-2,-3,-3,-2
1512363098854793,-1,-3,-1,0,-2,-1,0,-2
1512363098854793,-1,-2,0,-1,-2,1,-1,-2
1512363098866800,-1,-1,-2,-3,-1,0,0,-3
1512363098866800,-3,1,2,-3,0,1,0,-1
1512363098873825,-2,-1,-1,-2,0,-1,0,-1
1512363098873825,0,-1,0,0,-1,-1,-1,0
1512363098890817,0,-2,-3,1,0,-1,-1,-1
1512363098890817,-2,0,0,0,-2,0,-1,-1
1512363098891836,-1,1,0,-1,1,-2,-1,0
1512363098891836,0,-2,0,-2,-2,-1,-2,-1
1512363098912841,-1,-4,-1,-3,-1,-2,-1,-1
1512363098912841,-1,-2,-3,0,0,0,-2,-1
1512363098914835,-1,-3,-2,-2,-2,-1,0,-2
1512363098914835,-1,-1,-2,0,-1,-1,-1,-1
1512363098926842,-1,-1,-2,1,-1,-1,1,0
1512363098926842,0,1,-2,-2,-1,-2,0,-2
1512363098935887,0,0,0,-1,-2,0,-2,1
1512363098935887,-2,-1,-1,-1,-2,-1,-3,-3
1512363098949868,-1,0,0,-2,-1,-1,-2,-2
1512363098949868,-1,-2,1,0,-1,-1,-2,-1
1512363098951869,-1,-2,1,0,1,-1,0,-2
1512363098951869,0,-2,1,-1,0,-1,-2,0
1512363098972876,1,0,-2,1,-1,0,-1,-1
1512363098972876,1,0,0,1,0,-1,-1,0
1512363098974878,0,0,-2,1,-2,-1,-2,0
1512363098974878,-3,0,-2,-2,-1,0,-1,-1
1512363098986884,-2,-1,0,-2,-1,0,0,-2
1512363098986884,-1,-1,-3,-3,-1,-2,1,-2
1512363098995890,0,-2,-1,-1,-1,1,-1,-1
1512363098995890,-1,-2,-2,1,-2,-1,1,0
1512363099009915,-2,-1,0,0,-2,-1,-3,0
1512363099009915,-2,-4,-1,-1,-2,-1,1,0
1512363099011903,-1,1,-1,-1,1,-1,0,-1
1512363099011903,-2,0,-3,-1,-1,-1,-2,0
1512363099032927,0,-1,-1,-2,-1,0,-1,1
1512363099032927,-1,-2,-2,0,-1,-3,-1,1
1512363099033927,0,0,0,-2,-2,-2,-1,-2
1512363099033927,0,1,-1,-1,-2,-2,-2,-1
1512363099046926,-1,0,0,0,0,-1,-1,-3
1512363099046926,-2,1,-1,0,0,0,-3,-3
1512363099054954,-2,-1,-4,-1,-1,-1,0,-1
1512363099054954,0,-1,0,-1,-1,-2,-2,-1
1512363099069955,-2,-3,-1,-2,-1,-3,1,-1
1512363099069955,0,-1,0,-1,-1,1,-1,-2
1512363099071956,-2,-2,-1,-1,-1,0,-1,-1
1512363099071956,0,-2,-1,0,0,-1,1,0
1512363099092973,0,-1,0,0,-1,0,-1,0
1512363099092973,-2,-1,-1,-2,-2,-1,-3,-2
1512363099093967,-1,0,-1,-1,-2,-1,-2,-1
1512363099093967,-1,0,-2,-2,-1,0,-1,-2
1512363099106969,-1,-1,-2,0,0,0,-1,-2
1512363099106969,-2,-1,-2,0,-2,-1,0,0
1512363099114988,-2,-2,0,-3,-1,0,0,-1
1512363099114988,-3,-1,-2,-2,0,-2,-1,-2
1512363099129986,0,-1,-2,-2,0,-2,-2,-1
1512363099129986,-1,-1,-2,-1,0,0,-2,-1
1512363099131987,1,0,-2,0,-1,-2,-1,-1
1512363099131987,-2,0,0,-2,-1,-1,-1,-2
1512363099153012,-2,-1,-3,-2,-3,-1,0,-1
1512363099153012,1,-2,-1,0,-1,-1,-1,0
1512363099154013,-1,0,-2,-2,-2,-2,0,-2
1512363099154013,-1,-2,-2,-1,-1,-3,-2,-1
1512363099167012,0,-1,-2,0,-3,-1,0,-1
1512363099167012,0,-2,-1,-2,-3,-2,-3,-1
1512363099175027,0,-1,0,-1,-1,-1,-2,-1
1512363099175027,-1,-1,0,0,-1,-2,1,0
1512363099191030,-1,0,0,0,0,-2,-2,-1
1512363099191030,-2,1,1,-1,-1,-1,0,-2
1512363099192032,-1,-1,1,-1,-1,0,0,-2
1512363099192032,0,1,0,-2,-2,0,0,-1
1512363099213044,0,-1,0,0,-2,-1,-1,0
1512363099213044,0,0,-2,-2,-2,-3,-2,0
1512363099214044,-2,-2,-1,-1,-1,-2,0,-1
1512363099214044,-1,-1,-2,-1,-1,-1,-1,-2
1512363099226067,-1,-1,-2,-2,0,0,-1,0
1512363099226067,0,-3,-1,1,-1,-1,-2,1
1512363099235078,-2,-1,0,0,-2,-1,-1,-1
1512363099235078,-1,-1,1,2,-3,-1,-1,-2
1512363099250080,-3,0,1,-1,-2,-2,-1,-4
1512363099250080,-1,-2,-2,0,-1,-2,-2,-2
1512363099252081,0,0,-3,-1,-1,0,-2,-2
1512363099252081,0,-1,-2,0,0,0,-1,0
1512363099273088,-1,-2,0,-1,-1,-1,0,0
1512363099273088,0,0,-2,0,0,-1,0,-1
1512363099274087,0,-1,-1,-1,0,0,0,-1
1512363099274087,0,-2,1,-1,-1,0,-1,0
1512363099286135,1,-2,-1,-2,-3,-2,-1,0
1512363099286135,-1,-1,-3,0,-1,-2,0,0
1512363099295103,-2,0,-1,-3,-2,-2,0,0
1512363099295103,-1,0,-2,-1,0,0,-2,0
1512363099310113,0,-1,-3,-5,0,0,-3,-1
1512363099310113,-1,-1,-3,-1,-2,2,-2,1
1512363099312126,1,-1,-1,0,1,0,0,-1
1512363099312126,-2,-4,-1,-2,-2,-2,-3,-1
1512363099333129,-1,-2,0,3,-3,-2,0,-2
1512363099333129,-1,1,0,-2,-1,-1,0,-1
1512363099334129,-3,0,-1,1,0,-1,-2,-1
1512363099334129,1,-3,-2,-1,-1,-3,-1,-1
1512363099347140,-2,-1,-1,1,-2,-1,-1,-1
1512363099347140,-2,-2,0,-2,-1,0,-2,-2
1512363099355144,0,0,-1,-1,-1,-1,-1,-1
1512363099355144,-1,-1,-1,1,0,-2,0,-2
1512363099370172,1,-1,-2,-1,-1,-2,-2,-1
1512363099370172,-1,-2,1,-2,0,0,0,-1
1512363099372157,0,-1,-2,0,-1,-2,-1,0
1512363099372157,-2,0,-1,-1,0,0,1,-1
1512363099393172,-1,-1,-2,2,0,-2,-1,0
1512363099393172,0,-1,-1,-2,0,-1,-1,-1
1512363099394172,0,-2,-1,-2,-1,-1,-3,0
1512363099394172,1,-2,0,-2,-2,-3,-1,-3
1512363099415187,-1,-1,1,0,-1,-1,0,-2
1512363099415187,-1,-1,-1,-1,-1,-1,1,-2
1512363099417188,-1,-1,0,-1,-1,-1,0,-1
1512363099417188,-3,-2,0,-2,-1,-1,-2,-1
1512363099430214,-3,0,-1,-2,-1,-2,-5,-1
1512363099430214,-1,-1,0,0,0,-2,-1,-1
1512363099432216,-1,-2,-2,-1,-2,-1,-1,0
1512363099432216,0,0,-2,-2,1,0,0,-1
1512363099453225,-1,1,-1,1,-2,-1,0,1
1512363099453225,0,0,-1,0,-3,-1,1,-2
1512363099454215,0,-3,-1,-1,1,-2,-1,-1
1512363099454215,-2,-2,-1,-1,1,-1,-1,0
1512363099483247,1,-3,-2,-3,-1,0,-2,0
1512363099483247,-1,-1,-2,-2,-1,-2,-3,-1
1512363099485238,-2,-2,1,-1,-1,-1,-1,0
1512363099485238,-2,1,-1,-1,-3,-2,0,-1
1512363099489240,-1,0,0,-2,1,-2,-1,0
1512363099489240,-4,0,-3,-2,-2,0,0,1
1512363099496250,-1,0,-1,-1,-1,0,-2,-3
1512363099496250,-2,-1,-2,-1,-1,-1,-1,1
1512363099512255,0,-1,-1,-2,-1,0,-1,-1
1512363099512255,-1,-1,1,-2,-1,-3,-3,-2
1512363099520260,-1,-1,-1,-2,-1,-1,-2,-1
1512363099520260,-1,0,0,-2,-1,0,-1,-1
1512363099535293,-1,-2,-3,-1,-1,-2,-1,-1
1512363099535293,0,0,-1,1,-1,1,-1,0
1512363099537288,0,-4,-1,0,-1,-1,0,-1
1512363099537288,0,-2,0,-2,-2,1,-2,-1
1512363099549291,-2,-1,0,-3,-1,-1,-2,-2
1512363099549291,-2,-2,-1,-3,-1,-1,-1,0
1512363099556289,-2,0,0,-1,-1,-1,-1,-1
1512363099556289,-1,1,-1,0,-2,-1,0,-2
1512363099573299,-4,0,-1,0,-1,0,1,-3
1512363099573299,0,-3,-2,0,-3,-2,-2,-1
1512363099574302,-2,0,-6,-1,-2,-3,-4,-1
1512363099574302,-3,-2,-1,0,-1,-3,-2,0
1512363099595326,1,-1,-2,-1,1,0,-1,0
1512363099595326,0,1,-1,-2,0,0,0,-1
1512363099597325,-1,0,-1,-1,-1,-1,-1,-1
1512363099597325,0,0,-1,-1,-1,-1,-1,-2
1512363099609324,-1,-2,-1,-1,-1,-3,1,-1
1512363099609324,0,-2,-4,-1,1,-2,0,0
1512363099616330,-1,-3,1,0,0,-1,1,0
1512363099616330,-1,-1,-1,-2,0,-1,-1,0
1512363099632340,-1,-3,1,0,-1,-1,-1,-1
1512363099632340,-1,-1,1,-2,-2,1,-1,-2
1512363099634343,-1,-2,-2,-1,-1,0,0,-1
1512363099634343,0,-1,-1,1,0,-2,0,0
1512363099655375,-2,-1,-1,-2,0,-2,0,-2
1512363099655375,0,-1,-2,1,-1,-2,0,-1
1512363099657363,-1,-1,-1,-1,0,-1,-2,0
1512363099657363,0,-1,-3,-1,-2,0,1,-2
1512363099669378,-2,-2,-2,0,-1,1,-1,-2
1512363099669378,-2,-1,-1,0,0,0,-1,1
1512363099676384,-2,-1,0,-1,-2,-1,0,1
1512363099676384,-2,-2,0,-1,-1,0,-2,-1
1512363099692424,-1,-1,-2,-1,-2,-1,-1,-1
1512363099692424,-1,-1,0,-1,-1,-3,0,-1
1512363099694415,-1,0,-2,-1,-2,-2,-1,0
1512363099694415,-1,0,-1,-1,0,0,1,-2
1512363099715440,-1,-3,-1,-1,0,-3,-1,-1
1512363099715440,-3,-2,0,-1,1,-2,0,-2
1512363099716442,-1,-1,0,-3,1,0,0,-1
1512363099716442,0,-1,-2,-1,-1,-1,-1,0
1512363099729441,-1,-1,-1,1,-3,0,-2,-2
1512363099729441,0,0,-3,-2,-1,-2,-2,-3
1512363099736468,1,-1,-2,0,-2,-1,0,-2
1512363099736468,0,-1,-2,-1,-3,-2,-1,-2
1512363099752493,-1,1,-1,-2,-1,-2,-1,0
1512363099752493,0,0,0,0,0,-1,-3,-1
1512363099754459,-1,-1,0,-1,-3,1,-2,-1
1512363099754459,-1,-2,0,0,-2,-1,0,-1
1512363099775488,0,-2,-1,-1,-4,-2,2,-1
1512363099775488,-1,-1,-2,-1,-2,0,-2,-2
1512363099776487,-2,-1,-2,-1,-2,-2,-1,-1
1512363099776487,-1,-1,-2,-1,-1,-1,-2,-1
1512363099789500,-3,-1,0,-2,1,0,-2,0
1512363099789500,-2,-3,2,-1,-2,0,-1,-1
1512363099796488,-1,-1,-3,0,-1,-2,0,-2
1512363099796488,-3,-1,0,-1,0,-2,-2,-1
1512363099812509,0,-1,-3,-1,-1,-1,-1,-1
1512363099812509,-1,-1,-2,0,-2,0,-1,-1
1512363099814501,0,-1,0,-1,-1,-1,-2,0
1512363099814501,-2,-1,-2,-1,-2,-2,-2,-3
1512363099835519,-1,-1,-2,0,-1,0,-2,-1
1512363099835519,1,-1,-1,-2,-3,0,-2,1
1512363099836516,0,1,-3,-2,-2,0,0,-2
1512363099836516,1,-2,-2,-2,1,-1,0,-1
1512363099849537,0,0,-1,-1,2,-2,-1,1
1512363099849537,0,-1,0,-2,-2,-1,-1,-1
1512363099856544,-3,-2,0,-1,0,-1,-2,0
1512363099856544,-1,-3,-1,-2,0,0,-2,0
1512363099873545,-2,-2,-2,-1,0,-2,-2,-1
1512363099873545,-2,0,-3,-2,-1,-1,-1,-3
1512363099874557,-1,0,0,-1,0,-1,0,0
1512363099874557,-1,0,0,-1,-2,-2,1,-2
1512363099895564,0,-1,-2,-1,-1,0,-1,-1
1512363099895564,-1,-3,-1,-1,-1,-1,0,0
1512363099896558,-2,-3,-1,1,-1,-1,-2,-3
1512363099896558,-2,0,-1,-1,-1,-3,0,0
1512363099908567,-2,0,0,-1,-1,-1,2,-2
1512363099908567,1,0,0,-2,0,0,-2,-1
1512363099917573,0,-1,-2,-1,-2,-1,0,-1
1512363099917573,1,0,-1,-2,-2,0,-2,0
1512363099933585,-2,0,-2,-2,-2,-3,-2,-1
1512363099933585,-3,-2,-2,0,-1,-2,0,-1
1512363099934585,0,-2,0,1,0,-1,-1,-1
1512363099934585,-2,-1,0,1,0,0,-1,-2
1512363099955714,1,-1,1,0,0,0,-2,-3
1512363099955714,-2,-1,0,1,-1,-1,-1,0
1512363099956673,-2,1,-1,-2,-1,0,0,0
1512363099956673,-1,0,-2,-2,-2,-1,-1,-1
1512363099968678,-1,0,-2,-1,-3,1,-2,-1
1512363099968678,-1,-1,0,-1,-2,-1,-2,-2
1512363099977673,-2,-2,-1,-3,-2,-2,-1,0
1512363099977673,0,0,0,-2,0,-2,0,-1
1512363099993689,0,-1,-1,-1,0,-2,0,0
1512363099993689,-1,-1,-2,-1,-1,-1,-1,0
1512363099994685,-1,-2,-2,-3,-1,0,0,-2
1512363099994685,-1,-3,-1,-3,-2,-2,-1,-2
1512363100015700,-1,0,-1,-2,0,-2,-2,0
1512363100015700,-1,-3,-1,0,-1,-2,0,-2
1512363100016700,0,0,-1,0,-1,-2,-2,0
1512363100016700,1,-2,-1,-1,-2,0,-2,-1
1512363100028721,-2,-3,1,0,-1,-1,-1,-2
1512363100028721,-1,0,-2,-2,0,-3,0,0
1512363100037716,0,-2,0,1,0,-2,0,-1
1512363100037716,-1,-1,0,0,-1,-1,0,-1
1512363100052782,-2,1,0,-2,-1,-1,-1,-1
1512363100052782,0,-1,-1,-1,-1,1,-2,0
1512363100054781,-1,1,-1,-2,0,0,0,0
1512363100054781,-2,-1,-1,-1,0,0,2,0
1512363100075754,1,-2,-2,-2,-2,-1,-1,-2
1512363100075754,0,-2,-1,-3,-2,-2,0,-3
1512363100076742,-1,-2,-1,-1,0,-1,-1,-1
1512363100076742,-1,0,-3,-3,-2,-1,-1,0
1512363100088751,-1,-1,-3,-2,0,-2,-1,-1
1512363100088751,-1,-3,-1,-1,-1,-2,-2,0
1512363100097758,-2,-2,-1,-1,-3,-1,-1,0
1512363100097758,-1,-2,1,2,-1,-2,-1,-2
1512363100112785,0,-2,1,1,-1,0,1,-1
1512363100112785,-2,-2,-4,-1,-1,-2,1,-1
1512363100114787,1,-2,-2,-1,-1,-1,-1,-2
1512363100114787,0,-1,-1,0,-1,0,-2,-2
1512363100135802,-2,-2,-2,-1,-2,-1,-2,-1
1512363100135802,0,0,-1,-2,0,-1,-2,-1
1512363100136789,0,-1,-1,-1,-2,-1,-1,-2
1512363100136789,-1,-1,-1,-1,-1,-2,-1,0
1512363100148803,0,0,1,-1,0,-2,0,0
1512363100148803,-3,0,-2,-1,-1,-2,-2,-3
1512363100157801,-2,-1,-2,-1,-1,0,-2,0
1512363100157801,-1,-2,-2,-1,-1,0,-3,-1
1512363100172824,1,-3,-1,-1,-3,-2,-1,-2
1512363100172824,-1,0,-1,-2,-1,-2,-1,0
1512363100174826,1,-1,-3,-3,0,-2,1,-1
1512363100174826,-1,-1,-1,0,0,-1,0,-1
1512363100194836,-1,0,-2,0,-3,0,-1,-1
1512363100194836,0,-2,1,1,-1,0,0,-1
1512363100196829,-1,0,0,-2,-2,0,-3,-2
1512363100196829,-2,-1,-1,-3,-1,-2,-1,-1
1512363100208848,-1,-1,-1,-1,0,0,-1,-2
1512363100208848,-1,-1,1,0,-1,0,-1,0
1512363100217855,-1,-1,-1,-1,-1,-2,0,1
1512363100217855,0,-2,-2,-1,-2,-2,0,-3
1512363100232853,-2,-1,0,-1,-1,-1,-4,-3
1512363100232853,1,-1,-2,-2,-1,-1,-1,-2
1512363100234855,-1,-1,-1,0,0,1,-1,-1
1512363100234855,0,0,-2,-1,0,0,1,0
1512363100255885,-1,-3,-1,-2,-2,-1,-1,0
1512363100255885,0,1,0,-1,-1,-3,-3,-1
1512363100256872,-2,0,-1,0,-1,0,0,-2
1512363100256872,-1,0,-4,-1,-3,0,0,0
1512363100268890,0,0,-2,0,-3,0,0,0
1512363100268890,-1,-2,0,-2,-2,0,-1,-1
1512363100277884,-1,-3,-1,-1,-2,-4,-2,-1
1512363100277884,0,-2,0,-2,-1,-1,-1,-1
1512363100292897,0,0,-2,-1,-2,-1,3,-2
1512363100292897,-2,-2,-1,0,-1,0,-1,-1
1512363100293897,-2,-2,1,0,-2,0,-2,-1
1512363100293897,-2,-1,-3,0,2,-2,-2,-1
1512363100314912,0,-3,-2,-3,0,-1,-2,1
1512363100314912,0,-1,0,-2,0,1,-1,1
1512363100316914,1,-1,1,-3,-1,-1,-1,-3
1512363100316914,-1,1,1,0,-1,-1,-1,-1
1512363100337941,-1,0,0,-2,-1,-2,-1,-2
1512363100337941,-1,0,-3,0,-2,-1,0,0
1512363100338952,-2,0,0,-1,-2,-1,0,0
1512363100338952,-1,-1,-1,-3,-2,-1,-2,-2
1512363100352939,1,-3,-2,-2,-2,-1,-2,-1
1512363100352939,0,-2,0,-1,1,-3,0,-1
1512363100354940,-1,1,-1,-1,0,0,-1,-2
1512363100354940,-1,-1,-1,1,-1,-1,-2,0
1512363100374966,-3,-2,-2,0,-1,0,-1,-2
1512363100374966,-1,-2,-2,-1,0,0,-1,0
1512363100376965,-2,0,-2,-1,-2,-3,-2,0
1512363100376965,0,-2,-2,0,-1,-3,1,-1
1512363100397979,-2,-1,-1,0,-2,-3,-1,-3
1512363100397979,-1,-1,-2,1,-3,-2,-1,-2
1512363100398972,0,0,-3,0,-1,0,0,1
1512363100398972,-1,-2,-1,-2,0,1,0,-3
1512363100412981,-2,1,-1,-1,0,-3,-2,-1
1512363100412981,-1,-2,-1,-1,-1,-3,-1,-3
1512363100413993,0,-2,-2,-1,0,-1,-1,-1
1512363100413993,-2,-2,0,-1,-2,-1,-1,-1
1512363100434037,-1,-1,-1,-1,1,-2,0,-1
1512363100434037,-1,0,0,-1,-1,-1,0,1
1512363100443004,-1,-2,-1,0,-1,-1,-2,-1
1512363100443004,-1,-1,-1,-3,0,-1,-1,-1
1512363100458013,1,0,0,-3,-1,1,0,-2
1512363100458013,-1,-1,0,0,-1,-1,-1,-2
1512363100459016,0,-1,0,-1,-1,0,-3,-2
1512363100459016,1,0,-1,-1,-2,-1,-1,1
1512363100472024,-1,0,-2,0,0,-1,-1,1
1512363100472024,-1,0,-2,-3,-1,-3,0,0
1512363100479039,-2,-1,-1,-3,0,-2,-1,0
1512363100479039,0,-4,0,-2,-1,-2,0,-1
1512363100495050,-1,-3,1,0,-2,-2,-1,0
1512363100495050,-1,-1,0,0,-3,-1,-1,-1
1512363100497048,-1,0,-1,0,0,-2,-1,-1
1512363100497048,-2,-2,0,-2,-2,-2,0,-1
1512363100518054,-1,0,-2,-2,-1,0,-3,-1
1512363100518054,-2,-1,-1,-1,-2,0,-1,-2
1512363100524060,0,-1,-1,-1,-1,0,0,-1
1512363100524060,-1,-1,-3,0,0,-1,-2,-1
1512363100532076,-1,-4,-2,-1,-2,-1,0,-1
1512363100532076,-1,0,0,-1,-2,-2,0,-1
1512363100539108,-1,-2,-2,-2,-1,-1,-2,1
1512363100539108,0,-2,0,-1,0,2,-2,1
1512363100555134,-1,0,0,0,0,-2,-2,-1
1512363100555134,-1,-1,-5,1,1,-1,-1,-1
1512363100557084,-2,-1,-3,0,-2,-1,1,-1
1512363100557084,-3,0,-2,0,-1,-2,-1,-1
1512363100578096,1,-3,-3,-3,-2,-1,0,-1
1512363100578096,0,0,-1,-2,0,1,-3,-1
1512363100579098,-2,0,1,-2,-1,-2,-2,-1
1512363100579098,-2,0,1,-3,-1,-1,-2,-2
1512363100592106,-2,-3,-1,0,0,0,0,1
1512363100592106,-1,-3,-1,-1,0,-1,0,-2
1512363100606129,-1,-1,-1,-2,-1,0,0,-1
1512363100606129,-1,0,-2,-1,1,-1,1,-1
1512363100615123,0,0,-3,0,-1,-2,-3,-2
1512363100615123,-1,0,-1,-1,-1,-2,-2,-1
1512363100629145,-1,-1,0,-1,-3,-1,-2,-1
1512363100629145,-1,-2,1,0,-2,-1,-1,0
1512363100638152,-3,-1,-1,-2,0,-1,-1,0
1512363100638152,-3,-1,-3,-2,-1,1,-2,-1
1512363100639140,0,-2,-1,0,-3,0,-3,0
1512363100639140,0,0,-1,-1,-2,-1,-1,-1
1512363100652176,0,-2,-1,-3,-2,-2,0,-1
1512363100652176,-1,-2,0,-3,-1,-2,0,0
1512363100659154,-2,0,-1,0,-1,-1,1,-2
1512363100659154,-1,-1,-1,-3,1,-2,-1,-1
1512363100675165,-1,0,-2,-1,-1,0,-1,0
1512363100675165,-1,-1,-4,-2,-1,-2,1,-2
1512363100677166,0,-2,-2,-2,0,-2,-2,0
1512363100677166,-3,0,0,-1,1,-2,-1,-2
1512363100697190,-1,-2,1,-1,-1,-1,-1,-1
1512363100697190,-1,-2,0,0,-1,-1,-1,0
1512363100699183,1,-2,-4,-1,0,-2,-1,-2
1512363100699183,-1,-1,-1,0,-2,-2,-2,-2
1512363100712204,-1,-2,-1,-1,-2,0,-1,-1
1512363100712204,0,-1,-1,0,-2,-1,-2,-1
1512363100719201,-3,0,2,1,0,0,-1,-2
1512363100719201,-1,-2,-1,0,-1,-1,-1,-1
1512363100735228,0,-1,-1,1,-2,-1,1,-1
1512363100735228,-1,-2,0,0,-1,0,-1,-1
1512363100737213,-1,-2,-1,0,-1,-1,0,1
1512363100737213,-2,-1,-2,1,-2,0,-1,1
1512363100758224,0,-1,0,-1,-3,-1,-1,-1
1512363100758224,-1,-1,-2,-1,-1,-2,-2,-1
1512363100759224,0,-2,-3,-1,-1,-1,-1,0
1512363100759224,-2,0,-2,0,0,0,-2,-1
1512363100771245,-1,0,-1,-2,-2,1,0,1
1512363100771245,-1,-2,-1,-1,0,-1,0,0
1512363100780240,0,-1,-1,-1,-1,-1,-2,-3
1512363100780240,1,-1,-2,-1,-2,-1,-3,-1
1512363100795260,-1,-1,0,2,-1,-1,-3,-3
1512363100795260,-1,-2,0,-3,-2,-1,-1,0
1512363100797280,0,-2,-3,0,-1,0,1,-1
1512363100797280,-1,-1,-3,-1,-2,0,1,-1
1512363100817266,-1,1,-1,0,0,0,-1,0
1512363100817266,0,-1,-1,0,-2,-1,-1,-1
1512363100819276,0,0,-1,0,-2,0,-1,-1
1512363100819276,-2,-3,-3,-3,-2,-2,0,-2
1512363100831275,-4,-2,0,-3,-1,-1,1,-1
1512363100831275,-1,0,0,-3,-1,1,-1,-2
1512363100841283,-3,0,0,-1,-1,0,-1,-2
1512363100841283,-2,0,-1,-1,-1,-1,-1,-3
1512363100855351,0,1,-1,0,-2,-2,-3,0
1512363100855351,-2,-2,-2,-2,0,-2,-1,0
1512363100857293,0,0,-2,-2,-1,0,-1,-2
1512363100857293,0,0,2,-1,0,-3,-1,-2
1512363100877309,0,0,1,-1,-1,-2,-1,-2
1512363100877309,-1,0,-1,-1,-2,-2,0,1
1512363100879310,-2,0,-3,-2,-2,-2,0,2
1512363100879310,-1,0,-2,-1,-2,1,-1,0
1512363100891319,-1,-2,-4,-2,-1,1,-1,0
1512363100891319,-1,-3,-1,-1,1,0,-2,0
1512363100900324,-3,-2,-2,0,0,-1,0,-1
1512363100900324,1,-1,-1,0,-2,0,-1,0
1512363100915335,-2,0,-1,-2,0,-1,-1,-2
1512363100915335,-3,1,-2,-1,-2,0,1,-1
1512363100917337,1,0,1,-1,-1,-2,2,-1
1512363100917337,-1,-1,1,-2,-3,-2,-1,0
1512363100937366,0,-3,-1,1,0,-4,-1,-2
1512363100937366,0,-1,-2,0,0,0,-3,0
1512363100939362,0,0,1,-2,0,0,-3,-1
1512363100939362,-1,-1,0,0,-3,-2,-1,0
1512363100951360,-2,0,-1,-1,-1,-1,-2,-1
1512363100951360,-2,-2,0,1,-2,-1,0,-1
1512363100960366,-3,-2,-3,0,0,0,-1,-1
1512363100960366,-3,-2,-3,-1,-1,2,-1,-1
1512363100975378,-3,-1,-1,-1,0,0,2,-2
1512363100975378,0,0,1,0,-2,-1,-1,-1
1512363100976391,-2,0,0,-1,-1,-1,-3,-1
1512363100976391,1,-3,0,-1,-1,-1,0,-1
1512363100997393,0,1,0,0,-1,-1,-2,-1
1512363100997393,-1,0,-2,-1,0,0,-2,-2
1512363100999394,-1,-4,-1,-1,-1,-3,0,-3
1512363100999394,-1,-3,-3,-1,1,-2,-1,-1
1512363101011403,-1,-3,-3,-1,0,-1,-1,1
1512363101011403,-2,-3,0,-2,-1,-3,1,-2
1512363101020409,-2,-3,1,-2,-3,0,-1,-2
1512363101020409,0,-1,1,0,0,0,-3,-3
1512363101035421,-1,-1,1,-1,0,-2,-2,1
1512363101035421,0,0,-1,1,-1,-1,-1,0
1512363101036431,0,1,-1,0,-2,-2,-1,0
1512363101036431,-1,-1,0,-1,-1,-3,0,-2
1512363101057436,0,-1,-3,-1,0,-2,-1,-2
1512363101057436,-2,-1,-3,-1,-1,-1,0,0
1512363101059436,-2,-3,-2,0,-1,-1,0,0
1512363101059436,1,-1,-1,-1,-1,-1,1,-1
1512363101071484,-1,-3,0,-1,-2,1,-2,-1
1512363101071484,-1,-2,-1,-1,1,-1,-1,-1
1512363101080452,0,1,-1,-2,0,0,0,-2
1512363101080452,-1,1,0,-1,-1,-1,0,-1
1512363101095603,-2,0,-2,-1,-2,-2,-1,1
1512363101095603,-1,-2,1,-1,-1,-1,-1,-1
1512363101096589,0,-3,-3,-2,-1,-1,-2,1
1512363101096589,0,-1,-2,-2,0,0,-2,-2
1512363101117605,-1,-2,-1,-1,-1,0,1,-1
1512363101117605,-2,-2,-1,1,-2,0,-1,-2
1512363101119606,-3,-1,1,-1,-2,-2,-2,-2
1512363101119606,-1,-2,-2,0,-2,-2,0,0
1512363101131626,1,0,-2,-2,-2,-1,0,1
1512363101131626,-1,0,-2,-1,0,-1,-2,0
1512363101140636,0,-3,-1,0,0,-2,-1,-1
1512363101140636,-2,0,-1,-2,-1,-1,-2,1
1512363101155668,-1,-2,-2,-1,-2,0,0,0
1512363101155668,0,-3,0,-1,-1,-2,-1,-1
1512363101156632,-1,1,1,1,-2,-1,-2,-3
1512363101156632,0,0,-1,1,-1,-1,-2,-2
1512363101177659,-1,-2,-1,1,-1,-1,-2,0
1512363101177659,-1,-1,-1,-1,0,0,-2,0
1512363101179653,-1,-2,-1,-1,0,0,-1,-1
1512363101179653,-3,-2,-1,-2,0,-1,1,-1
1512363101191657,1,-2,-1,-2,0,-1,-3,-2
1512363101191657,-1,-4,-2,-2,-3,-2,-1,-2
1512363101200673,0,0,-1,-1,-2,-2,1,0
1512363101200673,-1,-2,1,-1,-1,-2,-2,0
1512363101215681,-2,-2,0,-1,-2,0,0,-1
1512363101215681,-1,1,-3,-2,-1,1,0,0
1512363101216687,-1,-2,-2,-1,0,0,-3,0
1512363101216687,-1,0,-1,-2,0,-1,0,0
1512363101237715,0,-1,-1,0,-1,-3,-1,0
1512363101237715,-1,-1,0,-1,-1,-1,-2,-1
1512363101239701,-1,2,0,-2,-2,0,1,1
1512363101239701,-2,-2,-2,-1,-2,0,-1,-1
1512363101259705,1,-2,0,-3,0,-2,-2,-2
1512363101259705,-2,-1,0,-1,-1,-1,-1,0
1512363101261708,-3,-1,-2,-2,0,-1,-1,0
1512363101261708,-1,0,-2,0,-2,0,0,-2
1512363101274730,-2,0,-4,-2,-1,-1,1,-2
1512363101274730,1,-2,-2,-1,-1,-1,-1,-1
1512363101281725,2,-1,-1,-1,-1,-2,0,-2
1512363101281725,-1,0,-1,0,-2,-2,-1,-2
1512363101297745,-1,1,-1,2,-2,-1,0,-3
1512363101297745,-1,-1,0,1,-1,-1,-1,0
1512363101299746,-1,-1,0,-1,-1,-2,-2,-1
1512363101299746,-1,-3,0,-1,-1,0,-1,0
1512363101320748,-3,-2,1,-2,-1,-2,-2,-2
1512363101320748,0,-1,1,-3,-2,0,1,0
1512363101321749,0,0,-3,-2,-1,0,0,-1
1512363101321749,-1,0,-4,-1,0,-3,-1,-1
1512363101335774,-2,1,-2,-2,-1,0,-1,0
1512363101335774,-2,1,-2,0,0,0,0,-3
1512363101336772,0,0,-1,-1,-2,-1,-1,-1
1512363101336772,1,-1,-1,0,-1,-3,1,-1
1512363101357775,0,-2,-1,1,-1,-2,2,-2
1512363101357775,-1,-2,-2,-1,-2,-1,0,-1
1512363101359776,-1,-1,-3,-1,-2,-1,-2,0
1512363101359776,-2,-2,-1,-3,-1,-1,-2,-1
1512363101380791,-2,0,0,-2,-1,-2,-2,1
1512363101380791,-1,-1,-1,1,-1,-1,0,0
1512363101381791,-2,0,-1,1,0,0,0,-1
1512363101381791,1,-1,-2,-1,-2,0,0,0
1512363101395803,-2,-1,-1,-2,0,1,-2,-1
1512363101395803,-1,0,-1,-2,0,0,-2,1
1512363101401819,-2,-2,1,-2,-2,-2,0,-1
1512363101401819,-2,0,-1,-1,0,-3,-2,-1
1512363101417837,-1,-1,-4,-2,-2,-2,-1,-2
1512363101417837,-3,-1,-2,1,-1,-2,-1,-3
1512363101423822,0,-2,-1,-1,0,0,-2,0
1512363101423822,-2,-4,1,-1,-1,-2,-3,0
1512363101439853,0,-1,0,0,0,-1,-2,0
1512363101439853,-1,-1,-3,-2,-1,-1,1,-1
1512363101441835,-2,-1,-3,-1,-2,0,1,-1
1512363101441835,-2,0,-1,-2,0,-2,0,-1
1512363101454863,-1,-1,-1,0,-1,-1,0,0
1512363101454863,-1,0,-2,0,-1,-3,-1,-1
1512363101461848,0,-2,-2,1,-1,0,0,0
1512363101461848,-2,0,-2,1,-1,1,-2,-1
1512363101477859,-1,-3,0,-2,-1,-1,0,0
1512363101477859,1,0,-1,-2,-2,-1,-1,0
1512363101479862,0,-1,-2,-3,-1,-1,-1,-1
1512363101479862,0,1,-1,0,-2,1,-2,0
1512363101499874,-1,-1,-1,0,0,0,0,-3
1512363101499874,-1,-2,-1,-2,0,1,-2,-3
1512363101502903,-2,-2,-2,-2,-1,-2,-3,-2
1512363101502903,-3,-3,2,-2,-2,-2,-2,-1
1512363101514886,-2,-1,-3,-2,-1,-2,-2,0
1512363101514886,0,-1,0,-1,-2,-2,1,-1
1512363101521890,0,0,-1,-2,0,-1,0,-1
1512363101521890,1,-2,-3,-1,-1,0,1,-1
1512363101544908,0,1,0,-1,-2,1,1,0
1512363101544908,-2,-1,0,-1,-1,-2,-3,0
1512363101546908,-1,0,-2,-1,0,-2,-2,-1
1512363101546908,-3,-1,-1,-1,-2,0,-2,-1
1512363101559917,-2,-1,1,-3,-2,-1,-1,-2
1512363101559917,1,-1,-2,0,-3,-2,-3,-3
1512363101561919,0,1,1,1,-3,-1,-1,-1
1512363101561919,0,0,-1,-2,-1,0,-1,-2
1512363101574941,-3,-6,-2,0,0,-1,-1,-1
1512363101574941,-2,0,-3,1,1,-1,-3,0
1512363101581942,-1,-1,-1,0,-2,-2,-1,-2
1512363101581942,1,0,-1,-2,-1,-2,0,0
1512363101597944,0,0,0,0,-2,-2,-1,0
1512363101597944,-2,-1,0,-2,-1,-1,2,0
1512363101598944,-1,-2,0,-3,0,0,-1,0
1512363101598944,-1,-1,-3,-2,-1,-3,0,-4
1512363101619960,0,0,0,-2,-2,-1,-2,-2
1512363101619960,0,-2,-2,-1,-1,-2,-2,-2
1512363101621961,-1,-2,-2,0,-2,0,-1,-1
1512363101621961,-2,0,0,0,-3,-1,-2,-1
1512363101634970,0,0,1,-1,0,-1,1,0
1512363101634970,-1,0,-2,-2,-1,0,1,-1
1512363101641975,-1,0,-1,-1,-3,-1,-2,1
1512363101641975,0,-1,-2,0,-1,0,-4,1
1512363101657987,-1,0,-2,0,0,-3,-2,-1
1512363101657987,-2,-1,1,0,-1,-2,-1,0
1512363101658990,-1,-1,-3,-1,-1,-1,-2,-1
1512363101658990,-2,-2,-1,-1,1,0,-1,0
1512363101680003,0,-1,-3,-2,-2,-2,-1,-2
1512363101680003,1,-2,1,-2,-1,-1,0,0
1512363101682004,0,-3,-1,-2,0,-2,1,-3
1512363101682004,-1,1,0,-1,0,-2,1,-2
1512363101694013,-1,-2,-2,0,-1,1,-2,-1
1512363101694013,-2,-2,-2,-1,-1,-1,-2,-1
1512363101703028,-2,-2,0,-1,-2,-3,-1,-1
1512363101703028,-1,-1,-1,-1,-1,-1,-2,-1
1512363101718038,-2,-2,1,0,0,-1,0,-1
1512363101718038,0,-2,-1,0,-1,-2,-1,1
1512363101719045,0,0,-2,-1,-2,0,-1,-1
1512363101719045,-1,-2,-1,0,-1,-2,0,0
1512363101741060,-2,1,-3,0,-1,-1,-1,0
1512363101741060,-1,0,-1,0,0,0,-2,-3
1512363101742047,-2,-2,-2,-2,-1,-1,0,-1
1512363101742047,0,-1,-1,-1,-2,-1,1,0
1512363101754120,-1,0,-2,-2,-3,-1,-1,-1
1512363101754120,-1,1,1,-1,-1,1,-2,-2
1512363101763063,-1,0,1,-1,0,0,0,-2
1512363101763063,-2,-1,-1,0,0,-1,-1,-1
1512363101778084,-2,0,-2,0,-1,-1,-1,-2
1512363101778084,-1,-2,-3,-1,1,-1,-2,-1
1512363101779073,1,0,0,-2,-2,-3,-2,0
1512363101779073,-2,-2,-1,-2,-2,0,-1,-1
1512363101800086,0,-2,-2,-1,-3,-2,-2,0
1512363101800086,-2,-3,1,-2,-1,0,-2,-1
1512363101803140,1,-3,-1,1,-1,1,0,1
1512363101803140,-1,-1,-1,-1,-1,-1,0,-1
1512363101814098,-2,-1,-2,-3,0,-1,-1,-1
1512363101814098,-1,1,-3,-1,-1,-3,-2,-1
1512363101823117,0,-1,-1,-1,0,-2,-1,0
1512363101823117,0,-1,-2,-1,-1,-1,-1,0
1512363101838134,-1,-1,-2,0,1,-2,1,-3
1512363101838134,0,-1,0,-2,-1,-2,0,-2
1512363101839124,-2,-2,0,-3,-1,1,-2,-1
1512363101839124,-1,-2,0,-1,-1,0,-2,-1
1512363101860141,-1,-1,1,-2,-3,-2,0,-2
1512363101860141,-2,-2,-2,-1,-1,0,-1,-1
1512363101862131,-3,-1,-2,-1,0,-1,-1,-2
1512363101862131,-2,-1,-2,-1,-2,-1,-1,-2
1512363101874156,-1,-2,-2,-2,0,-1,0,2
1512363101874156,-1,1,0,-1,-1,1,-1,-1
1512363101883159,-2,-2,0,-3,0,-1,1,-2
1512363101883159,0,0,0,-3,0,-2,-1,-2
1512363101898170,0,1,0,0,-1,-2,0,0
1512363101898170,0,-3,-2,-1,-1,-2,1,-2
1512363101899169,1,-1,-1,0,-1,-1,0,0
1512363101899169,-1,-1,-1,1,-1,0,-1,-2
1512363101920171,-2,-2,-1,0,0,0,-1,-1
1512363101920171,-3,-2,-2,-2,0,-1,-1,0
1512363101926176,-2,-2,-1,-1,-2,-2,-1,-1
1512363101926176,-2,-1,0,-1,-1,0,1,-1
1512363101934181,-1,-1,0,-1,0,2,-4,-1
1512363101934181,-1,-1,-2,0,-2,0,-2,0
1512363101943187,-2,-2,-2,0,0,-1,-2,-3
1512363101943187,0,0,-1,-1,-1,-1,-2,-1
1512363101958199,-1,-2,0,-1,-1,-1,-1,-2
1512363101958199,-1,-1,0,-1,-1,-2,-1,-1
1512363101959199,-1,1,-2,-2,-1,0,0,-1
1512363101959199,-1,-3,-2,-1,-2,0,-2,-1
1512363101980224,-3,-3,-1,-1,0,-2,-2,-1
1512363101980224,-1,-1,-1,0,0,-1,-1,0
1512363101982232,-2,-1,-1,-1,-3,-1,-1,-1
1512363101982232,-2,-3,-2,-2,-1,0,0,-2
1512363102002229,1,0,-1,0,-1,0,-3,-2
1512363102002229,0,-1,-2,-2,-1,-2,1,0
1512363102004230,-1,0,-2,-1,-1,0,-2,0
1512363102004230,0,0,1,-1,-1,-1,0,0
1512363102017245,1,-1,0,-2,-2,-2,0,1
1512363102017245,-1,0,-1,0,-2,0,-1,-1
1512363102019242,-2,-1,0,1,0,-1,-2,-2
1512363102019242,-3,0,-2,-1,0,-2,1,0
1512363102040269,-1,1,-2,-2,-1,-1,-1,0
1512363102040269,1,-1,-2,-1,-2,0,0,-1
1512363102042260,1,-1,-2,-1,-1,-1,-2,-1
1512363102042260,0,-2,0,0,0,-3,-3,-2
1512363102054278,0,0,1,-3,-2,-1,1,-1
1512363102054278,-3,-3,-2,-3,0,0,-1,-2
1512363102063272,-2,-3,-1,0,-1,-1,0,-3
1512363102063272,0,-1,-3,-1,-1,-1,0,-1
1512363102077282,0,0,-2,-1,0,-4,-1,-1
1512363102077282,-1,1,-1,-1,-2,-2,-2,-1
1512363102079283,-1,-1,-1,-2,-2,-1,1,-1
1512363102079283,0,-1,0,-1,-3,0,-1,0
1512363102101313,-1,-2,-2,0,0,0,0,-2
1512363102101313,0,0,-2,1,0,-2,-1,-1
1512363102102301,-1,0,-2,-2,-1,0,0,-2
1512363102102301,-2,-1,1,-2,-1,-2,-1,-2
1512363102114309,-2,-3,-2,-1,-1,-1,-2,-1
1512363102114309,1,-2,0,2,-2,-2,0,2
1512363102123333,-1,-1,-1,-1,-3,-2,1,0
1512363102123333,-1,0,-3,0,-1,-2,0,0
1512363102137336,-2,0,-1,0,-2,0,-2,-2
1512363102137336,-2,0,0,-2,-2,0,-1,-2
1512363102137336,-1,-1,-1,-2,-1,0,-3,-1
1512363102137336,0,0,0,-3,-2,0,-1,-1
1512363102159352,-1,-1,-1,-4,0,-2,-1,0
1512363102159352,0,-2,1,-2,0,0,-1,0
1512363102160350,0,-1,0,-1,1,-1,-2,-1
1512363102160350,-1,-2,-1,-2,0,-1,-3,-2
1512363102182359,0,-2,-1,-1,0,0,-1,-2
1512363102182359,-4,-2,-2,-3,-1,-1,0,-1
1512363102183358,0,-2,0,0,0,-1,-2,-2
1512363102183358,-1,-3,-2,-1,-1,-1,0,-2
1512363102197377,0,0,-2,0,-1,-1,-1,-3
1512363102197377,-1,0,-1,-1,0,-2,-2,-4
1512363102197377,1,0,-2,0,0,0,0,0
1512363102197377,0,-1,1,-1,-1,1,-1,0
1512363102219395,-1,1,-1,-1,-2,-2,-1,-1
1512363102219395,-2,-1,-2,-2,-3,0,-1,0
1512363102220384,0,-2,-3,-2,-2,-2,-2,-1
1512363102220384,0,0,-1,-2,-2,-1,-2,-1
1512363102242411,-2,-4,1,0,-1,0,1,1
1512363102242411,0,-1,-1,0,-1,-2,-1,1
1512363102242411,-1,-1,-1,-1,-1,-1,0,0
1512363102242411,-1,-1,0,-2,-1,0,-1,1
1512363102257411,1,-2,-1,-1,-2,0,-2,-1
1512363102257411,1,-2,-2,-3,-1,-1,-2,-1
1512363102258414,-1,0,-2,-3,-2,-2,0,-2
1512363102258414,-1,1,-3,0,-1,-2,1,-3
1512363102279444,-1,-1,-1,1,0,-1,-1,-1
1512363102279444,-1,-1,1,2,-1,0,0,-2
1512363102280428,-1,0,0,-2,0,-2,-1,0
1512363102280428,-2,-1,-1,-1,0,-1,-1,-1
1512363102302442,-1,0,-1,-1,-1,-1,0,-2
1512363102302442,0,-2,-3,-1,-1,-1,0,-1
1512363102302442,-1,-1,-2,0,-3,1,-2,-1
1512363102302442,0,-2,-2,1,-1,-4,-2,0
1512363102317452,-2,-1,0,-2,0,-1,-2,0
1512363102317452,-1,1,-1,-1,-2,-1,0,-2
1512363102317452,-2,-1,0,-1,0,-2,0,-3
1512363102317452,-2,-1,-1,0,-1,0,0,-1
1512363102339469,-1,0,-2,-2,0,-1,-1,-2
1512363102339469,-2,-1,-1,0,0,-2,-2,0
1512363102347473,0,-1,-1,-2,-1,0,-1,1
1512363102347473,-1,-1,-1,-2,-2,0,-3,-2
1512363102361483,-2,-2,0,0,-1,1,-4,-1
1512363102361483,1,-2,-1,0,0,0,-1,0
1512363102362484,-1,-1,-4,-1,-1,-2,-1,-1
1512363102362484,-1,1,-1,0,-2,-1,1,0
1512363102376493,1,0,0,0,-4,-1,1,-1
1512363102376493,-1,0,0,0,-1,0,0,-1
1512363102377494,-2,0,0,-1,-2,-1,-1,1
1512363102377494,-2,0,0,-3,0,0,-1,-2
1512363102400520,-2,-2,-2,-2,0,-2,-1,-1
1512363102400520,1,0,-1,-1,-1,1,-1,1
1512363102401522,1,-1,0,1,-1,-1,-1,-2
1512363102401522,-1,-1,-1,-1,0,0,-2,-2
1512363102422538,-1,0,-1,0,-2,-2,-1,0
1512363102422538,-2,-2,-3,-2,-2,-2,-1,-2
1512363102422538,-2,-1,0,0,-2,-1,-1,-1
1512363102422538,0,-2,-2,-1,-1,-1,-1,-1
1512363102437538,0,-3,-2,0,-3,-3,-2,-3
1512363102437538,-1,-2,-1,-4,-1,-1,1,-2
1512363102437538,-2,1,-2,-2,-1,-1,-1,-1
1512363102437538,0,-2,-1,-2,0,-2,-1,-1
1512363102459565,0,0,0,-1,1,-2,0,-1
1512363102459565,-2,1,-1,-1,-2,0,0,-1
1512363102460565,-3,-1,-1,0,-3,-1,-2,-2
1512363102460565,-4,-2,0,-1,-2,0,-2,-4
1512363102481580,3,-1,0,-2,-1,-1,0,1
1512363102481580,-6,1,-1,0,-1,-4,-5,-4
1512363102483569,1,1,0,0,1,1,-1,2
1512363102483569,-6,-2,-2,-1,0,-1,-2,0
1512363102496578,9,2,-2,-2,-1,3,0,0
1512363102496578,1,-1,0,-2,-2,-2,-1,0
1512363102497579,2,0,0,-3,-1,-1,0,-2
1512363102497579,-1,-7,-3,-1,-3,-2,-2,-3
1512363102519607,-5,2,0,-1,-1,-1,-3,-3
1512363102519607,7,-1,0,0,2,0,-1,2
1512363102520608,5,3,-1,0,-2,-1,2,2
1512363102520608,10,5,1,-4,-1,1,2,4
1512363102541611,-6,-2,-7,-2,-1,0,-3,-2
1512363102541611,-3,-5,-3,0,-1,-2,-2,-3
1512363102542610,-10,0,6,-1,-1,-1,-1,0
1512363102542610,2,1,-4,-1,1,0,1,-2
1512363102556645,-2,-1,-7,-4,-1,0,0,2
1512363102556645,-1,0,0,1,-2,-1,0,-4
1512363102557623,-9,-13,-2,-2,0,0,-1,-3
1512363102557623,-4,2,0,-5,-4,-4,-1,-2
1512363102579638,-1,-2,0,-8,0,-4,1,9
1512363102579638,4,17,-1,2,-1,-1,-3,-13
1512363102580638,0,-7,-3,2,-1,-1,-2,-3
1512363102580638,5,-1,-2,1,-2,0,-3,-2
1512363102601653,-12,1,-4,0,0,-1,-2,-3
1512363102601653,10,-16,-7,-5,-2,1,2,3
1512363102603656,0,11,5,0,-1,-4,-1,-7
1512363102603656,4,5,-1,0,-1,-1,3,2
1512363102616673,-2,-11,4,9,-1,-2,1,-3
1512363102616673,-7,5,6,-8,-2,0,-2,3
1512363102617664,8,3,-1,0,-1,-1,0,2
1512363102617664,-8,0,-7,-4,-2,-1,-3,-5
1512363102639700,1,-3,3,2,-2,-2,-4,-6
1512363102639700,-6,-6,6,5,-1,-1,1,-2
1512363102640690,1,7,-8,-5,-1,-1,-1,0
1512363102640690,-6,-2,4,2,1,-2,1,0
1512363102661704,9,8,-4,-6,-2,1,1,2
1512363102661704,-6,-5,-3,-3,-3,-4,-5,-5
1512363102662695,-5,-7,0,-4,-4,-2,-4,-4
1512363102662695,-4,-4,-1,-1,-3,0,2,3
1512363102676718,9,10,-3,-3,-1,-2,-2,-1
1512363102676718,-10,-18,-3,1,2,1,-1,8
1512363102677706,3,2,1,3,-4,-2,-2,-18
1512363102677706,-7,-5,-1,-5,0,-1,-1,-2
1512363102699722,9,-5,1,-2,-2,-3,-1,-7
1512363102699722,0,9,-6,-2,0,0,0,4
1512363102700725,-1,-5,2,1,-1,-1,3,8
1512363102700725,-7,-11,2,0,-2,-2,-2,-2
1512363102721738,-1,9,3,0,-1,1,0,0
1512363102721738,13,12,-5,-2,0,-1,-1,1
1512363102722738,-15,-6,-5,-7,-1,-1,-1,1
1512363102722738,4,-12,1,0,-1,-1,-2,-2
1512363102736767,-10,-4,2,6,2,-1,-2,1
1512363102736767,-2,-2,-3,-3,-5,-3,-3,-7
1512363102744753,-7,11,-6,-2,-1,-2,-2,-2
1512363102744753,18,0,4,1,0,-2,1,7
1512363102759764,1,-6,-3,0,-3,-2,2,8
1512363102759764,0,2,1,1,0,0,1,-8
1512363102760765,-4,-10,-4,-7,-4,-3,-4,-4
1512363102760765,6,14,-3,-2,1,0,-3,2
1512363102781780,-23,-5,-1,-1,-4,-5,-4,-10
1512363102781780,-9,-7,-3,-2,1,-2,1,3
1512363102782791,-1,-3,0,1,3,3,5,7
1512363102782791,-5,-2,-9,-3,-2,-2,-4,-5
1512363102795799,2,0,-3,-3,-3,0,1,2
1512363102795799,-13,5,16,11,1,-2,-3,-6
1512363102804808,16,-3,-2,-2,-3,-2,0,3
1512363102804808,-4,4,-5,-2,1,-4,1,6
1512363102819807,5,4,8,-8,-1,-1,-4,-16
1512363102819807,5,-6,-5,-3,-1,1,-1,0
1512363102819807,-5,-2,-2,0,-3,1,-2,-5
1512363102819807,16,4,-5,2,0,1,-1,5
1512363102849843,-8,-6,1,0,-3,-3,-4,-2
1512363102849843,5,-1,-2,1,-1,-2,-5,-2
1512363102850830,-2,-9,4,-1,-1,-2,0,4
1512363102850830,4,-9,-1,-6,-1,1,1,5
1512363102856833,5,10,0,-3,0,-3,-8,-18
1512363102856833,28,4,0,-1,-1,2,6,4
1512363102864838,-21,-2,-16,-6,-2,-3,8,-3
1512363102864838,3,4,2,-2,-2,0,0,14
1512363102879861,-17,-4,-8,15,4,0,2,-18
1512363102879861,22,-4,1,-5,-2,-3,-12,7
1512363102879861,-6,8,7,1,2,-2,-14,-27
1512363102879861,-20,-17,-2,-2,-2,-2,-7,-8
1512363102901874,0,-1,3,-4,0,2,19,32
1512363102901874,17,4,0,1,-1,1,7,16
1512363102903889,-13,-9,0,-1,-3,-4,-24,-40
1512363102903889,-15,-12,-3,-2,0,0,12,20
1512363102915876,7,4,-5,-2,-1,-1,-5,-26
1512363102915876,-28,-4,-1,-4,-4,-3,3,19
1512363102924880,4,6,5,3,1,2,11,-14
1512363102924880,24,-4,4,4,-2,-4,-9,-17
1512363102939913,-4,-10,-1,3,4,4,10,5
1512363102939913,-7,3,-16,-1,0,0,14,34
1512363102939913,13,4,-1,-5,2,5,15,96
1512363102939913,-9,-3,9,6,-6,-13,-17,-101
1512363102961930,-3,-5,0,-5,-3,0,-12,16
1512363102961930,-3,-2,-1,-7,-3,-3,-1,-33
1512363102962911,-12,-6,-5,-7,-3,-6,-58,-15
1512363102962911,5,2,-4,2,-1,0,16,-3
1512363102975921,13,5,9,7,0,-1,-14,11
1512363102975921,-24,-12,-11,-16,-3,-4,-14,-39
1512363102984924,31,20,-10,3,4,10,19,40
1512363102984924,-18,-19,-3,1,-4,-8,18,44
1512363102999934,-8,-23,-23,-11,-5,-10,-44,-56
1512363102999934,-1,0,14,11,1,1,-9,24
1512363102999934,-17,-13,0,-6,0,-2,5,-49
1512363102999934,13,28,5,11,4,6,-28,8
1512363103021965,-11,-9,-1,-4,-1,3,8,-7
1512363103021965,24,1,-22,-12,-2,0,-3,16
1512363103023951,8,32,20,0,-5,-10,16,-23
1512363103023951,-4,-18,-46,-14,-6,1,-18,28
1512363103035976,2,-10,-23,1,-4,-3,46,-4
1512363103035976,-8,26,1,4,-3,-4,-17,-12
1512363103043979,5,-31,0,-9,1,1,37,83
1512363103043979,-4,19,15,1,-2,-7,-29,-83
1512363103059991,21,46,14,2,0,-2,-9,52
1512363103059991,10,-38,-4,-2,-3,-3,17,-44
1512363103059991,-6,-4,-7,-5,-5,-3,-6,32
1512363103059991,-5,5,11,5,5,6,12,4
1512363103082008,-12,-15,7,-10,-2,1,8,5
1512363103082008,-10,16,17,15,2,1,-9,-16
1512363103082993,11,-7,-7,6,1,-2,-6,-17
1512363103082993,-16,-10,0,-16,-4,3,17,54
1512363103106021,6,19,17,16,7,4,6,-59
1512363103106021,-34,-20,-4,8,3,2,14,17
1512363103107010,30,11,1,-19,-7,-4,-8,-17
1512363103107010,-4,12,-4,-14,-2,6,24,90
1512363103119019,5,-6,15,5,-1,-5,-40,-43
1512363103119019,-17,22,-17,13,0,-2,1,46
1512363103127037,-20,7,-18,5,0,0,28,20
1512363103127037,9,-12,23,-5,-4,-6,-26,-56
1512363103143048,-1,14,-10,-9,-4,-3,14,48
1512363103143048,3,8,23,1,2,1,-12,-26
1512363103144035,11,3,-1,16,-1,-3,-17,-12
1512363103144035,-4,-32,-26,-2,-2,2,54,49
1512363103165051,8,10,17,-25,-5,-3,-7,60
1512363103165051,-20,-22,-18,-10,-12,-8,-5,-98
1512363103166051,3,-7,7,2,4,4,-10,-33
1512363103166051,-26,37,13,16,4,1,1,74
1512363103179072,-10,0,-10,5,0,0,4,-76
1512363103179072,22,-11,-13,-10,2,3,16,123
1512363103180061,-10,-47,-16,3,-2,-1,-10,-86
1512363103180061,6,-23,6,0,3,1,-9,-3
1512363103202145,-16,-31,-9,-13,-1,-4,-5,-32
1512363103202145,8,51,5,-19,-8,-4,7,66
1512363103203148,23,2,-5,31,4,3,-22,-59
1512363103203148,-3,40,-10,-13,5,-3,-13,-42
1512363103225175,-5,-54,-33,8,-18,-14,-8,44
1512363103225175,26,-20,15,31,20,5,-1,15
1512363103226164,-32,41,1,-47,-1,-1,1,-22
1512363103226164,43,33,6,-16,-4,-4,-17,-7
1512363103239198,16,-42,1,1,1,6,19,73
1512363103239198,-34,41,76,25,0,-1,-14,-128
1512363103240183,22,-50,-33,3,-9,0,26,84
1512363103240183,-20,48,-12,16,8,-1,-7,-42
1512363103270220,-33,7,-13,-15,1,-1,-3,-14
1512363103270220,23,11,-2,6,-7,-4,-11,-9
1512363103271206,5,33,32,-5,-2,-2,17,45
1512363103271206,3,-7,25,9,-6,-4,3,-30
1512363103285220,-2,-11,13,2,2,3,-3,25
1512363103285220,-23,-15,-32,-7,0,1,6,15
1512363103286224,9,9,56,10,-1,-2,-18,-61
1512363103286224,12,-70,-83,-29,-14,-11,-6,16
1512363103299228,-13,52,23,18,2,0,-9,-14
1512363103299228,31,-22,6,-16,1,1,8,20
1512363103300217,-43,-28,-56,-10,-4,-3,-6,41
1512363103300217,-7,1,32,20,0,-2,-12,-51
1512363103322244,44,9,39,0,6,6,13,74
1512363103322244,-12,-40,-48,-20,-9,-2,4,-57
1512363103323233,-12,-15,-34,-12,-9,-12,-35,-59
1512363103323233,-11,8,35,18,9,6,16,30
1512363103345260,-10,5,-46,-12,-4,-2,-5,-22
1512363103345260,8,41,12,9,1,5,-3,14
1512363103346249,12,-23,34,-2,-3,-5,10,38
1512363103346249,-12,15,20,-6,-7,-3,-18,-35
1512363103359259,11,-16,69,20,17,6,13,17
1512363103359259,-5,16,-93,-37,-17,-8,-15,-10
1512363103360259,14,14,-6,8,7,5,12,17
1512363103360259,-39,-20,9,5,0,-2,4,14
1512363103382285,10,49,12,-11,-8,2,8,30
1512363103382285,12,-28,36,39,7,3,-5,25
1512363103383275,-39,-4,-44,-54,-13,-10,-2,5
1512363103383275,30,31,6,4,-4,-5,-10,22
1512363103405305,-10,-74,-9,13,2,-4,13,-39
1512363103405305,-27,-35,-1,0,1,-1,-7,-18
1512363103407293,1,1,47,17,9,8,-2,-18
1512363103407293,4,19,-11,3,-3,-6,-1,-28
1512363103419310,27,5,4,-40,-3,-1,-15,34
1512363103419310,7,13,2,6,-4,-2,49,36
1512363103420305,23,0,-19,7,-2,-1,0,39
1512363103420305,-8,4,-32,-29,-2,-2,11,-11
1512363103442327,-20,25,-18,8,-6,-2,-22,-37
1512363103442327,-20,-12,14,-3,-2,-1,4,17
1512363103442327,-8,5,41,13,-1,-4,-12,8
1512363103442327,43,18,23,9,10,11,20,33
1512363103465333,-17,-28,-28,-2,-6,-8,-7,-54
1512363103465333,12,62,35,-29,-13,-12,-24,48
1512363103466338,-18,-41,-54,9,-5,1,32,-7
1512363103466338,10,-41,4,-21,4,6,-27,-9
1512363103479343,-8,30,11,-3,-14,-10,8,-9
1512363103479343,-50,-72,-18,2,23,3,-7,25
1512363103480344,19,74,42,20,-14,3,14,13
1512363103480344,-15,-105,-30,-10,-12,-11,-39,-49
1512363103502359,-13,14,1,10,9,9,7,42
1512363103502359,12,-3,-12,3,-1,-3,-13,-8
1512363103502359,-25,14,-55,-9,3,3,-4,34
1512363103502359,18,-1,1,4,-2,1,25,-97
1512363103525390,-41,-28,-19,-13,-5,-7,-19,-90
1512363103525390,26,10,17,53,-15,-13,-4,9
1512363103526377,5,-21,6,-29,34,19,11,-20
1512363103526377,1,61,12,-14,-13,-7,-2,48
1512363103539395,5,-16,23,8,6,3,-3,8
1512363103539395,-5,-12,-77,1,-8,5,16,-75
1512363103540387,-3,-35,35,-22,-9,-9,-7,32
1512363103540387,-18,26,23,25,6,0,-4,15
1512363103561411,13,-22,-47,-14,-5,-4,7,34
1512363103561411,-3,-18,-10,-15,0,-4,-22,70
1512363103562402,5,7,-8,46,-1,-6,2,-75
1512363103562402,-25,19,14,-40,-5,2,15,18
1512363103585418,49,61,-25,2,-3,-4,-8,37
1512363103585418,-32,-77,16,-13,-4,1,6,-14
1512363103585418,-10,-12,-16,-10,4,-2,-11,-35
1512363103585418,-24,44,20,35,5,1,7,44
1512363103599438,52,-5,3,-9,-5,0,15,50
1512363103599438,21,27,38,-3,6,2,-8,-97
1512363103600438,8,-1,-18,-15,-25,-15,-29,-40
1512363103600438,-25,-48,-49,1,-3,-6,-4,-21
1512363103621443,16,23,28,-13,7,9,18,66
1512363103621443,-12,22,-49,-1,-5,-5,30,-31
1512363103622444,-17,-10,66,-3,-4,-9,-83,-39
1512363103622444,53,-12,-17,23,13,8,5,-22
1512363103645461,-31,-28,-22,-7,-5,-3,4,49
1512363103645461,11,-8,42,-13,-9,-5,-18,-7
1512363103645461,30,16,-13,27,15,10,54,127
1512363103645461,-12,-27,-19,-21,3,2,-22,-32
1512363103659484,-8,-39,-29,34,-1,-2,17,71
1512363103659484,-2,33,40,-9,2,4,-22,-13
1512363103660487,-19,-4,-15,-17,-7,-3,18,-39
1512363103660487,27,-23,-6,5,-2,5,-18,27
1512363103681488,-14,42,31,32,9,0,22,21
1512363103681488,-15,-3,-31,-46,-12,-6,-22,-49
1512363103682495,30,19,22,12,-4,1,6,36
1512363103682495,-6,-21,23,13,5,-2,22,96
1512363103705542,4,35,-16,-20,-9,-6,-32,-82
1512363103705542,-4,35,29,26,14,10,42,80
1512363103706503,-25,-36,-22,-3,-4,3,-6,17
1512363103706503,17,-2,19,23,6,-3,45,94
1512363103719512,-23,-7,9,-30,-9,1,-52,-96
1512363103719512,-1,-26,-54,-5,-4,-5,-4,91
1512363103720513,0,8,-8,-4,-2,0,-6,-32
1512363103720513,29,20,-5,9,-5,-2,32,36
1512363103742529,4,0,44,-3,15,10,18,0
1512363103742529,29,25,-3,-2,-4,1,-15,-4
1512363103742529,-44,-30,-80,-10,-8,-8,14,-22
1512363103742529,-3,-6,32,0,-4,0,24,66
1512363103765551,4,4,3,3,-1,-7,-26,-56
1512363103765551,-1,-14,-52,-6,-5,-1,1,-53
1512363103765551,33,22,30,-7,6,-6,-25,-22
1512363103765551,-39,-28,-24,3,-1,0,-8,-100
1512363103778554,15,34,40,7,-5,-4,-7,10
1512363103778554,-26,-3,-41,-23,-2,1,14,81
1512363103787561,37,-33,38,15,9,5,-4,-35
1512363103787561,-4,7,10,-21,0,0,21,40
1512363103803575,-32,-48,-35,1,-8,-4,-2,-5
1512363103803575,31,20,16,-2,1,0,14,7
1512363103804596,21,65,54,36,5,-3,-10,15
1512363103804596,-20,-57,-57,-26,-2,1,-7,12
1512363103825591,12,20,7,8,-2,-1,-31,-68
1512363103825591,-33,-23,44,-1,5,1,1,59
1512363103825591,17,14,-18,-28,-8,-3,-5,-29
1512363103825591,-1,20,8,6,-7,-8,-18,28
1512363103838619,-23,37,-8,10,4,0,4,-71
1512363103838619,30,-51,-16,0,5,5,20,7
1512363103846603,-4,32,-35,-19,-4,-2,-20,-25
1512363103846603,5,5,47,3,-7,-8,-16,-44
1512363103862613,-13,4,-64,-5,-14,-9,-5,11
1512363103862613,-4,14,50,-2,3,-2,19,80
1512363103863615,-2,-5,30,35,11,10,-5,-28
1512363103863615,-13,8,-9,-54,-24,-12,-33,-48
1512363103885630,-5,-45,10,14,4,0,15,58
1512363103885630,8,-20,20,4,1,-2,-5,-57
1512363103885630,-9,62,-8,-4,0,4,17,36
1512363103885630,-24,-41,-25,14,0,-4,-19,-11
1512363103898649,7,10,43,6,2,-1,15,-2
1512363103898649,-13,19,-4,-3,-6,-5,-33,28
1512363103906665,-25,-18,-43,-13,-3,-5,14,29
1512363103906665,23,42,3,2,4,3,-10,77
1512363103922665,-8,1,-7,5,-3,-2,20,-25
1512363103922665,22,-9,-42,6,1,-8,-14,-30
1512363103923657,-35,-63,5,-5,-3,-2,11,35
1512363103923657,-3,38,11,8,-2,-9,-29,-64
1512363103944671,-2,-25,17,6,3,5,6,107
1512363103944671,3,-11,-26,-5,0,2,-8,-126
1512363103945672,-7,3,-16,-10,-6,-6,-12,-28
1512363103945672,3,-23,-13,18,5,2,-4,-49
1512363103958704,-1,13,-8,-12,-4,-4,11,85
1512363103958704,-9,36,21,12,3,4,-16,-30
1512363103966705,2,-73,9,0,-7,-4,25,106
1512363103966705,13,63,24,9,13,6,-15,-29
1512363103981715,2,-54,-32,9,7,0,-9,-61
1512363103981715,3,-11,-4,-1,-7,-4,8,25
1512363103989721,4,23,24,-2,3,4,22,22
1512363103989721,-11,-11,5,23,-9,-3,-34,-58
1512363104004725,4,16,-4,-23,1,-2,-2,-31
1512363104004725,12,-23,0,-14,0,-1,0,78
1512363104005727,-7,22,11,19,-3,-7,-30,-99
1512363104005727,-3,13,25,-10,-1,4,29,31
1512363104018741,-9,-26,-14,3,5,-2,-16,-17
1512363104018741,-17,-1,19,13,-5,-3,4,-7
1512363104026733,-23,-9,-20,-19,-4,-1,-3,14
1512363104026733,-5,-54,-13,1,-11,-7,-2,-1
1512363104042759,-7,-10,2,11,-1,-2,-21,-88
1512363104042759,-6,40,46,-18,13,8,-9,30
1512363104043742,12,-24,-53,0,-3,-4,-7,-7
1512363104043742,-7,-7,-3,-8,-1,-5,-2,-23
1512363104072771,15,47,24,-4,-4,0,21,87
1512363104072771,-2,-8,-22,-23,-9,-6,18,1
1512363104073772,20,22,38,8,1,2,7,-32
1512363104073772,-30,-7,-33,-8,-6,-2,-8,-20
1512363104078776,51,9,-9,8,2,2,10,69
1512363104078776,6,-17,7,5,2,1,-7,-47
1512363104086793,-5,12,33,-6,-3,2,19,28
1512363104086793,0,-4,-14,-3,2,-1,-6,-15
1512363104101783,-29,-21,18,-15,-9,-6,10,-3
1512363104101783,10,3,-15,13,0,-1,-15,-37
1512363104102784,-6,-7,14,12,1,-3,32,126
1512363104102784,16,4,-29,-18,-4,1,-18,-70
1512363104125799,-22,-15,-28,-4,2,1,14,33
1512363104125799,7,24,6,16,-3,-7,-18,-61
1512363104125799,-6,-21,-2,-24,3,5,-5,-1
1512363104125799,7,39,-19,9,4,7,33,96
1512363104147824,-16,-33,5,-11,-8,-10,-25,-71
1512363104147824,-20,-4,0,-3,-4,-2,-3,-20
1512363104148825,12,34,11,11,3,1,-17,21
1512363104148825,-1,-52,-32,-19,-2,1,8,-10
1512363104162837,-10,12,43,3,-4,-3,-19,11
1512363104162837,-16,14,8,-7,2,2,2,-49
1512363104163839,31,-16,-38,-3,-5,-2,-3,-11
1512363104163839,6,12,34,15,6,2,4,-17
1512363104192847,-13,24,9,10,-2,-1,2,18
1512363104192847,18,-49,-24,-2,2,0,6,23
1512363104193849,15,54,51,1,7,7,12,24
1512363104193849,-8,-69,-35,-5,0,-1,10,54
1512363104208858,1,-2,31,9,-1,2,-15,-35
1512363104208858,-19,23,1,9,0,-3,1,33
1512363104209860,3,7,-18,-3,-2,-2,-1,-17
1512363104209860,5,1,7,18,7,5,19,51
1512363104220879,3,18,-14,-13,3,1,1,-29
1512363104220879,-5,-42,-7,-10,-11,-6,-3,8
1512363104229872,-7,-7,-7,-2,0,1,-1,13
1512363104229872,0,3,31,19,0,-5,-3,-24
1512363104244896,-2,11,-6,-28,-3,-1,-11,-22
1512363104244896,9,43,2,3,-3,1,10,65
1512363104246893,-8,-65,-35,-8,-6,-7,-11,-42
1512363104246893,-27,11,-13,-31,-15,-8,-3,15
1512363104267912,18,-7,-14,4,6,6,20,-20
1512363104267912,-10,-3,-9,-6,-4,-5,-13,-39
1512363104268901,-5,1,22,36,7,2,10,57
1512363104268901,8,44,12,-14,-5,-4,-28,-75
1512363104280909,3,-48,-35,-13,-2,3,22,67
1512363104280909,18,22,32,-1,-4,-3,-5,-38
1512363104289944,-18,0,-6,-5,-4,-7,-21,-47
1512363104289944,22,26,4,25,5,1,4,31
1512363104304927,2,-3,-17,-9,-4,-4,-9,-17
1512363104304927,-4,17,13,8,3,2,9,25
1512363104306929,2,-27,-3,-11,-1,3,7,13
1512363104306929,-2,11,-18,-17,-6,-4,-1,6
1512363104327953,5,9,-15,15,5,1,9,20
1512363104327953,-2,-32,-13,-20,-3,-1,16,108
1512363104328943,7,15,28,12,7,6,-30,-95
1512363104328943,3,9,11,-1,0,2,-4,4
1512363104341953,-4,5,20,18,3,0,-8,-20
1512363104341953,-17,-54,-10,-10,-5,-7,4,-7
1512363104348957,-2,3,-20,9,1,1,9,33
1512363104348957,-17,-12,35,-10,0,-2,8,13
1512363104364978,3,32,-12,0,-2,-6,-29,-48
1512363104364978,-9,-8,6,14,8,7,5,-18
1512363104366972,-1,-18,-61,-16,-12,-8,-10,18
1512363104366972,-11,0,7,3,3,-1,-4,-10
1512363104388010,-5,26,19,0,-2,0,9,37
1512363104388010,14,-21,-21,6,-1,-3,-2,10
1512363104389020,8,-7,-6,-16,-8,-5,7,-6
1512363104389020,-39,10,-3,-15,-4,-5,-17,-34
1512363104402032,24,6,15,24,2,-1,2,45
1512363104402032,-11,16,13,-18,-2,1,-18,-52
1512363104409034,-4,9,-26,-8,-8,-10,4,18
1512363104409034,12,-21,9,3,2,3,22,3
1512363104425045,-8,-22,-28,-11,-5,-2,2,95
1512363104425045,4,33,-18,12,4,1,-25,-103
1512363104427060,1,47,15,6,0,2,8,50
1512363104427060,-17,-33,-5,-26,-2,1,-9,-46
1512363104448053,-3,-36,-6,14,-4,-3,-2,-2
1512363104448053,5,13,-5,-54,-4,2,25,45
1512363104449053,-5,10,3,-1,-1,-1,-18,-18
1512363104449053,12,23,-21,12,6,1,-5,30
1512363104462075,23,6,20,4,-4,-1,-19,-93
1512363104462075,-7,17,-8,23,0,2,4,12
1512363104469079,-7,20,15,-8,-1,2,24,-6
1512363104469079,8,8,-38,-2,-5,-8,-13,80
1512363104485088,-18,-41,0,-22,-9,-4,2,-64
1512363104485088,-7,-5,9,-17,-3,-3,-4,25
1512363104487091,-20,-18,31,12,4,0,-30,-73
1512363104487091,15,-5,-7,20,0,-2,11,22
1512363104508096,9,36,-25,-13,4,5,17,20
1512363104508096,-12,-16,-32,3,-9,-1,21,65
1512363104514111,-11,-24,7,-7,1,-2,-30,-75
1512363104514111,18,-40,-2,0,0,0,7,24
1512363104522117,-18,11,22,1,1,-2,-10,-7
1512363104522117,8,1,-15,-11,-5,-4,0,5
1512363104529120,8,-9,-1,12,1,-3,23,58
1512363104529120,-17,-5,-6,6,1,4,0,-44
1512363104545134,-16,-24,-5,-16,0,0,16,20
1512363104545134,21,20,22,16,1,-2,0,-4
1512363104547124,-13,-19,-27,3,-3,-1,11,45
1512363104547124,8,27,23,-29,-3,-3,-19,-78
1512363104567138,-14,-53,-32,-8,-5,-3,15,11
1512363104567138,3,24,23,11,0,0,-14,40
1512363104569143,-10,-7,-10,-23,-5,-4,4,-6
1512363104569143,22,7,33,12,-1,-2,2,21
1512363104582148,-4,18,-13,6,1,-1,-11,-4
1512363104582148,13,-10,-21,-11,0,0,10,23
1512363104589176,-4,-8,20,24,6,3,0,-5
1512363104589176,-10,-3,2,-20,-6,-3,2,13
1512363104605166,6,-3,6,-5,0,-3,16,30
1512363104605166,-11,-25,11,33,3,0,-12,-4
1512363104607191,-1,69,13,-4,4,3,8,23
1512363104607191,10,-26,-39,-10,-11,-10,-6,-41
1512363104628184,1,-25,10,11,1,-1,-22,-12
1512363104628184,-15,5,15,19,-2,0,0,-5
1512363104629183,4,-22,3,-34,-3,-2,-16,-66
1512363104629183,5,49,-7,21,9,5,18,102
1512363104641208,-20,-7,17,10,-7,-7,-36,-105
1512363104641208,15,-6,5,-2,1,3,2,-8
1512363104650198,-10,3,-9,5,-1,-4,-5,30
1512363104650198,-18,16,23,-9,-5,-1,2,-29
1512363104665219,18,14,-8,27,4,4,8,22
1512363104665219,-2,12,-17,-29,-3,-5,-16,-35
1512363104667224,25,-3,12,9,0,3,7,81
1512363104667224,-21,-24,-16,4,0,-1,-22,-100
1512363104688234,1,0,-3,6,-1,-2,1,20
1512363104688234,-9,11,-11,8,6,6,17,10
1512363104689235,15,1,10,24,-2,2,3,28
1512363104689235,-14,-17,-36,-60,-12,-5,14,37
1512363104701232,16,16,17,6,2,2,-6,4
1512363104701232,-13,-10,6,-6,-3,-1,5,62
1512363104710242,-19,-29,-18,29,-6,-7,-24,-126
1512363104710242,-10,54,27,-18,1,2,11,28
1512363104725259,2,-12,-33,-35,-3,4,30,78
1512363104725259,-15,-39,56,21,2,-5,-39,-87
1512363104727254,4,-3,-3,7,4,2,-9,-1
1512363104727254,-1,11,-73,19,-4,1,8,39
1512363104747276,-2,-17,-18,-5,3,-2,-14,-47
1512363104747276,22,5,15,0,1,-2,11,37
1512363104749265,-4,12,5,-3,5,7,34,94
1512363104749265,-23,-18,59,36,7,0,-18,-41
1512363104761284,28,13,-56,-39,-12,-4,7,54
1512363104761284,6,-18,-33,26,7,5,8,-21
1512363104770281,15,-7,-12,-41,-12,-6,-9,-32
1512363104770281,41,10,12,13,3,3,8,11
1512363104792297,-18,18,36,15,0,-1,-1,1
1512363104792297,-2,6,9,-9,-11,-7,-8,-67
1512363104794298,-11,13,-49,3,-2,-3,8,26
1512363104794298,-21,-65,-18,-44,-6,-10,4,14
1512363104807319,-9,29,15,-11,0,-1,-12,-66
1512363104807319,-10,-13,0,-14,-5,-4,1,10
1512363104809310,-15,-34,-59,-5,0,0,-6,5
1512363104809310,-1,23,21,23,1,-2,-9,-14
1512363104821328,-13,-41,7,4,2,2,9,28
1512363104821328,0,1,-9,-13,-2,1,2,-12
1512363104830324,14,70,37,15,3,-5,-5,-5
1512363104830324,-23,-81,13,7,-3,1,-11,4
1512363104845343,-15,14,-13,-3,-1,1,-1,14
1512363104845343,33,-3,-47,-2,-2,0,-5,-2
1512363104846337,0,24,84,-34,-1,-1,-4,30
1512363104846337,-14,1,-83,-23,-8,-5,7,-11
1512363104867358,1,-3,10,2,0,-2,-2,30
1512363104867358,6,8,8,23,0,-2,-15,-75
1512363104869360,-9,-38,6,-10,-1,-2,15,43
1512363104869360,18,23,14,-10,-1,0,-5,-3
1512363104890380,3,-47,-5,4,1,-2,-9,-16
1512363104890380,-13,56,5,-14,-11,-7,11,32
1512363104891375,-16,-31,10,4,1,2,-14,1
1512363104891375,4,-13,30,5,-2,1,-11,-51
1512363104905387,-5,15,8,13,4,-2,3,10
1512363104905387,-26,-12,3,2,-5,-5,-1,7
1512363104907387,30,14,28,9,8,7,4,1
1512363104907387,15,-2,1,12,4,2,14,54
1512363104927391,-13,77,58,5,1,2,-1,15
1512363104927391,-25,-53,-28,-9,-1,-1,-27,-14
1512363104929393,-15,9,8,9,0,-2,-2,-22
1512363104929393,3,-4,4,0,3,2,-16,-74
1512363104941401,-5,-10,-48,-23,-9,-10,-3,7
1512363104941401,19,35,13,5,5,5,19,27
1512363104950408,-3,-13,-4,-5,-2,0,10,-23
1512363104950408,-4,1,-10,2,-5,-5,3,14
1512363104965419,5,5,27,16,5,1,0,15
1512363104965419,4,-15,-41,-32,-5,0,-7,-57
1512363104966421,-5,-28,-6,24,2,2,-3,-18
1512363104966421,14,8,22,-26,-10,-3,7,52
1512363104987433,-5,-7,-31,-7,-1,2,11,9
1512363104987433,-11,-9,38,22,6,-2,-24,-43
1512363104989435,17,16,-17,-15,-9,-6,-3,12
1512363104989435,-20,8,-41,10,3,-3,-6,4
1512363105010451,1,-15,13,-7,0,1,6,-6
1512363105010451,-7,-3,25,3,-1,1,-6,-37
1512363105011453,-4,-8,-37,-29,-7,-10,-21,-58
1512363105011453,7,-9,77,47,9,6,8,23
1512363105025466,6,4,-89,-44,-9,-8,-10,-7
1512363105025466,-10,6,-6,46,4,-4,3,14
1512363105026462,19,-3,23,-24,2,5,9,8
1512363105026462,-19,-9,-57,-6,-3,-1,1,-28
1512363105047487,48,-6,87,42,10,5,10,-7
1512363105047487,-28,-14,-53,-29,-11,-9,2,51
1512363105049487,19,7,-23,-9,-3,-1,9,54
1512363105049487,3,-5,-13,-7,-3,-1,-28,-52
1512363105070509,-8,6,23,-4,-4,1,3,61
1512363105070509,-1,0,35,17,5,-3,9,-20
1512363105071496,-7,19,-17,25,-2,-2,-9,-44
1512363105071496,27,16,15,-40,1,8,32,68
1512363105085520,-21,38,11,25,4,-1,-22,-61
1512363105085520,-4,-38,-18,-42,2,5,15,37
1512363105086520,12,-18,14,-11,-9,-2,23,39
1512363105086520,1,11,3,17,1,-4,-20,-37
1512363105107530,0,36,-13,-5,-3,-2,8,11
1512363105107530,37,-10,53,11,0,-2,3,70
1512363105110532,-32,-11,33,15,-2,-2,-8,-24
1512363105110532,0,-53,-77,-21,-3,-3,-12,-27
1512363105130546,-6,-7,16,-5,-3,1,9,14
1512363105130546,-4,45,13,2,-9,-3,-9,-34
1512363105131552,-18,-29,-72,-18,-3,-3,11,52
1512363105131552,-4,18,52,20,-2,-6,-10,-68
1512363105145557,-17,-23,17,2,3,2,-5,-42
1512363105145557,-14,-4,-44,4,-1,-2,6,40
1512363105146548,-17,31,51,-27,-3,2,-3,-11
1512363105146548,-12,-8,-69,1,-3,-8,-2,18
1512363105167573,27,-36,9,7,-1,1,-10,-38
1512363105167573,7,25,4,17,3,0,17,78
1512363105169586,-9,2,-31,-40,-10,-11,-41,-92
1512363105169586,-24,-14,12,13,4,6,12,50
1512363105189594,8,-14,-1,0,-5,-5,-11,-9
1512363105189594,2,-15,-6,-1,5,4,12,46
1512363105191578,22,27,-2,3,3,0,-4,33
1512363105191578,25,2,2,-3,-3,1,-7,-29
1512363105204628,-8,0,-22,35,5,1,-3,-21
1512363105204628,-3,29,34,-54,-4,4,7,-55
1512363105211644,-1,-36,-17,25,1,-2,2,23
1512363105211644,6,14,-3,-14,-9,-7,11,56
1512363105227658,11,-13,5,0,-5,-5,-14,-25
1512363105227658,2,-4,8,-17,-3,-6,-8,-7
1512363105229648,30,7,-20,7,-2,-5,-6,-41
1512363105229648,-2,43,50,36,8,3,9,30
1512363105249672,-31,-23,-105,-41,-13,-7,4,34
1512363105249672,21,-38,31,-17,-6,2,2,-35
1512363105257667,0,14,35,23,9,3,-1,-22
1512363105257667,-19,-26,-19,-4,1,1,-17,-36
1512363105264674,3,33,57,-2,-3,-6,-1,7
1512363105264674,8,-20,-72,4,-3,-1,9,32
1512363105271679,-28,-3,22,26,4,0,-4,2
1512363105271679,9,-7,11,9,7,0,8,31
1512363105287703,-32,-53,-80,-20,-11,-7,-14,-45
1512363105287703,-6,4,-1,-19,1,-2,-13,-18
1512363105289700,15,-9,16,12,-1,-2,3,33
1512363105289700,-7,16,22,3,-2,-4,-4,-3
1512363105309705,1,22,37,3,1,0,-3,46
1512363105309705,-11,-10,-7,21,7,2,-8,-50
1512363105311707,8,29,11,-11,-5,0,12,16
1512363105311707,30,-11,-4,-15,-8,-4,-2,-14
1512363105324714,-13,36,-19,6,6,7,8,13
1512363105324714,-10,-23,-8,4,-1,1,4,18
1512363105331721,-4,-25,3,-7,-2,-2,-7,-22
1512363105331721,6,12,11,-3,0,2,12,31
1512363105347741,10,-11,-3,-8,1,0,-4,-5
1512363105347741,-17,18,6,-9,-6,1,-7,-30
1512363105349740,1,-22,-10,9,5,-1,-4,14
1512363105349740,-13,15,20,8,2,-1,1,5
1512363105368745,31,-11,13,1,-3,-3,-10,2
1512363105368745,0,32,-1,16,5,-2,-6,43
1512363105377756,16,24,-15,-4,-5,-1,9,4
1512363105377756,-19,-45,-16,-31,-4,-1,-2,60
1512363105384761,11,38,27,0,3,3,11,-43
1512363105384761,17,-21,6,12,4,1,12,35
1512363105391778,-45,-28,-19,-21,-9,-5,10,17
1512363105391778,33,26,27,19,1,-5,-31,-38
1512363105407791,-9,-20,-45,1,-2,0,5,1
1512363105407791,-12,-9,-2,-33,-10,-5,0,-5
1512363105409776,-1,18,17,10,3,2,3,25
1512363105409776,0,9,3,-12,-2,2,2,-10
1512363105429801,-21,13,34,15,3,-1,0,-23
1512363105429801,7,10,25,14,-2,-5,3,-12
1512363105431790,-14,-16,-41,-5,3,3,20,57
1512363105431790,-15,9,1,-14,-6,-4,-6,-41
1512363105444809,-5,5,-24,-18,-3,2,5,-14
1512363105444809,3,-8,-7,11,0,-6,-10,12
1512363105450813,-29,3,-8,-11,-3,-5,-12,-29
1512363105450813,0,-15,10,26,2,2,6,21
1512363105467816,-3,-10,-22,13,3,-1,3,25
1512363105467816,3,20,23,-12,1,2,-13,-28
1512363105468816,10,-25,-47,-54,-16,-7,0,53
1512363105468816,1,29,8,26,10,0,-16,-83
1512363105489844,12,9,30,-27,-9,-7,1,32
1512363105489844,-19,-3,-24,17,-3,-4,-10,-38
1512363105491832,5,-29,12,26,5,5,-1,23
1512363105491832,-11,-34,-20,-18,-5,-4,6,-19
1512363105504854,-1,10,27,13,4,-2,6,14
1512363105504854,9,-25,-74,-8,-6,-4,-3,-2
1512363105510861,9,7,40,1,0,-4,-4,-7
1512363105510861,-24,15,-3,-14,-3,-1,1,2
1512363105527861,4,-16,7,14,1,-2,-4,-15
1512363105527861,11,-1,7,4,0,1,19,39
1512363105528858,8,31,25,6,3,1,-15,-64
1512363105528858,46,8,14,17,3,1,12,65
1512363105549883,-33,-5,-33,-33,-5,-3,2,44
1512363105549883,-32,29,70,29,4,-1,-21,-72
1512363105551884,2,-40,-90,-10,-3,0,5,19
1512363105551884,3,4,25,11,0,-4,5,-34
1512363105563890,-12,14,34,-35,-6,-2,-10,-42
1512363105563890,35,11,14,12,4,5,8,36
1512363105572890,-35,-48,-41,-34,-9,-5,-12,-26
1512363105572890,-7,-3,-25,-5,-2,-4,1,1
1512363105587929,15,-26,10,18,7,6,7,22
1512363105587929,6,21,21,0,0,2,-5,-5
1512363105588930,11,15,36,15,2,-4,-1,20
1512363105588930,-12,-3,-4,-7,1,5,-2,-10
1512363105609917,2,17,-34,-17,-8,-6,-6,-8
1512363105609917,2,-23,28,3,0,-1,5,35
1512363105611918,8,8,0,11,0,-1,-8,-50
1512363105611918,-6,10,-1,-7,-5,-3,-2,17
1512363105623926,-5,17,32,23,5,4,11,-19
1512363105623926,-18,-56,-110,-20,-7,-8,13,61
1512363105632933,50,12,39,11,3,3,-19,-64
1512363105632933,-7,6,7,-1,-1,-1,11,22
1512363105647960,8,14,26,-4,0,2,-20,-73
1512363105647960,-20,-47,-32,-18,-6,-5,6,45
1512363105648943,2,24,46,3,1,1,4,-3
1512363105648943,-6,-57,-100,-4,-3,0,8,8
1512363105669976,-2,-36,9,5,3,1,2,36
1512363105669976,2,30,-38,-8,-5,-3,-4,3
1512363105671960,-28,18,33,10,6,4,-6,-31
1512363105671960,14,11,2,8,1,1,-14,18
1512363105683985,6,2,-25,-31,-10,-2,10,-13
1512363105683985,-9,-24,-8,2,2,-2,-13,-40
1512363105692974,-8,16,-12,-1,-3,2,11,18
1512363105692974,-14,8,15,8,0,-2,10,7
1512363105707999,12,-21,-68,-21,-5,-3,5,87
1512363105707999,22,22,50,16,6,2,-17,-104
1512363105708990,-44,-11,-9,4,0,-1,2,31
1512363105708990,58,-5,32,-20,0,0,-3,-14
1512363105730013,-17,-8,-50,1,-4,-4,-1,-13
1512363105730013,-5,36,29,-3,2,2,3,11
1512363105732014,-8,-11,6,25,4,2,7,13
1512363105732014,-4,6,10,1,-3,0,1,-33
1512363105744020,4,0,17,-6,-3,-4,-1,47
1512363105744020,-10,11,25,23,2,0,-14,-44
1512363105753026,4,-5,-19,-20,-2,-5,-15,-15
1512363105753026,-11,-4,11,3,3,0,-2,6
1512363105768027,-1,-26,24,28,6,1,-1,-48
1512363105768027,-11,7,-63,-19,-9,-4,-2,13
1512363105769037,35,37,49,18,5,2,6,0
1512363105769037,-36,-27,-16,-18,-7,-8,0,9
1512363105790066,-20,1,2,-1,1,-2,0,10
1512363105790066,3,-15,-12,-25,-4,-1,-5,-6
1512363105792046,-11,-17,12,12,-1,-2,10,44
1512363105792046,2,17,14,-6,0,2,9,33
1512363105804065,-12,-1,12,13,-2,-6,-25,-54
1512363105804065,6,16,-16,-21,-3,1,11,15
1512363105813061,16,-17,-31,-14,-5,-6,-1,-3
1512363105813061,-24,13,51,16,3,2,-2,29
1512363105827069,4,-14,-13,-13,-1,-5,-20,-42
1512363105827069,-1,1,-10,-4,-3,0,14,34
1512363105829072,4,-14,-3,-5,-8,-5,-12,-8
1512363105829072,-8,-15,-8,7,3,-2,-10,-37
1512363105850095,7,11,0,-13,-1,-1,2,10
1512363105850095,-12,6,27,4,-1,-5,-1,-1
1512363105852088,5,-19,-11,8,2,1,14,18
1512363105852088,13,10,16,-25,-2,2,-20,-46
1512363105864104,9,7,17,4,0,1,10,21
1512363105864104,4,-24,3,3,0,-3,-2,12
1512363105873114,-11,-3,8,8,-1,0,-2,-45
1512363105873114,48,-12,0,6,0,-2,0,23
1512363105888113,7,9,-11,10,1,2,1,-5
1512363105888113,33,10,41,-3,3,1,-13,-26
1512363105890131,-46,-23,-30,19,-2,-2,2,40
1512363105890131,18,25,24,-27,-7,-7,-12,-25
1512363105910139,5,-13,-67,8,0,-4,-10,-18
1512363105910139,-7,-13,22,8,0,1,10,1
1512363105912129,25,18,-3,-6,-1,-4,-11,-16
1512363105912129,-10,4,-14,11,2,0,-5,20
1512363105924155,10,6,23,10,2,0,10,28
1512363105924155,-33,-7,0,6,3,7,8,3
1512363105933156,14,-30,-53,-27,-10,-9,-8,15
1512363105933156,-17,29,12,1,4,8,24,33
1512363105947164,7,-36,16,16,3,0,-12,-64
1512363105947164,-24,8,-7,-18,-5,-1,2,22
1512363105949155,10,19,2,-6,0,-2,-16,-46
1512363105949155,-2,12,-18,-13,-3,-3,-13,-24
1512363105970170,-13,-18,23,6,-1,2,17,61
1512363105970170,7,-4,6,-10,-3,-2,-5,14
1512363105971171,-18,11,30,8,2,0,-3,-36
1512363105971171,-7,8,5,10,3,2,20,38
1512363105993187,-7,-1,-37,-18,-7,-4,-13,39
1512363105993187,34,2,5,11,-1,-3,-3,45
1512363105994187,-23,14,-3,-10,2,7,8,-40
1512363105994187,-20,-23,-46,3,-4,-4,0,-17
1512363106007196,-5,10,52,-7,-3,-1,37,-14
1512363106007196,4,-4,-55,-3,-8,-7,-22,2
1512363106009201,5,14,-11,-7,-1,-3,-27,-69
1512363106009201,-33,-32,22,8,1,1,11,76
1512363106030212,2,-10,-15,-4,-3,3,20,-47
1512363106030212,14,-1,-51,-26,-6,-4,-12,-25
1512363106032214,15,36,26,3,-1,-5,-7,33
1512363106032214,-14,-19,-2,3,-5,-8,-12,-69
1512363106052228,10,14,19,-4,-3,-4,4,1
1512363106052228,-38,-14,33,12,1,-1,11,8
1512363106054229,8,-2,-18,-5,1,3,5,55
1512363106054229,10,18,-21,-15,-10,-4,9,-8
1512363106067273,7,2,5,4,1,2,3,44
1512363106067273,-25,-8,12,7,0,-5,-20,-128
1512363106069274,0,0,8,1,-1,-3,13,41
1512363106069274,13,13,16,11,6,3,-7,0
1512363106090313,-16,-26,-20,-11,-7,-7,-13,-17
1512363106090313,6,35,39,11,4,3,3,6
1512363106092296,4,-35,-8,-6,-1,-1,5,-5
1512363106092296,-8,-6,-55,-7,-6,-4,9,36
1512363106112316,17,2,-9,-7,1,0,-25,-22
1512363106112316,9,7,1,2,-1,0,-1,6
1512363106114308,16,10,19,15,1,1,20,79
1512363106114308,0,-15,18,-19,-4,-4,-20,-55
1512363106126315,-3,0,-32,-13,-3,-4,-4,87
1512363106126315,-13,6,44,19,6,0,-12,-57
1512363106135323,-3,3,-35,-8,-4,-1,-2,-19
1512363106135323,-19,-22,-12,3,0,3,6,13
1512363106150348,0,28,22,5,3,2,-16,-9
1512363106150348,8,-12,-4,-6,-1,0,12,-6
1512363106151335,-9,10,19,-1,0,-1,3,-6
1512363106151335,-13,-19,-22,5,2,2,2,29
1512363106172358,4,2,27,-3,-1,-2,-18,-28
1512363106172358,21,27,-16,5,-5,0,40,58
1512363106174349,-7,-10,14,-15,-1,-1,-3,4
1512363106174349,11,-3,-13,-4,-1,-3,-8,-22
1512363106187361,4,-5,-26,15,4,2,14,40
1512363106187361,4,20,7,-12,-6,-7,-17,-2
1512363106193364,10,6,9,-9,0,1,4,4
1512363106193364,-8,-21,-5,6,-1,-1,-5,-28
1512363106210396,-7,-2,35,4,-3,1,18,45
1512363106210396,13,-2,-50,-11,0,3,-12,-20
1512363106211376,-3,-17,17,0,0,0,-6,-18
1512363106211376,14,29,11,6,-1,-4,-18,20
1512363106232393,-26,-7,20,-8,-3,0,29,79
1512363106232393,15,-29,-21,-5,-2,-4,-48,-82
1512363106234406,-3,17,-6,5,-4,-5,-5,17
1512363106234406,7,16,23,-2,2,2,20,9
1512363106246411,-21,4,-46,2,-1,5,-10,-14
1512363106246411,-8,-9,38,15,4,4,31,127
1512363106253412,-31,-11,-33,-19,-7,-4,-18,-107
1512363106253412,27,14,4,5,3,2,-4,42
1512363106270416,0,6,-27,-1,-1,0,0,-42
1512363106270416,-3,-7,17,2,0,2,8,2
1512363106271417,3,13,-9,2,2,0,6,32
1512363106271417,-7,2,7,15,0,-1,4,-5
1512363106292435,1,-12,8,-6,1,0,-7,-47
1512363106292435,-20,-14,-1,-5,-3,-3,20,57
1512363106294435,0,-20,-37,5,2,2,-19,-24
1512363106294435,-10,-45,11,-35,-9,-1,-6,-35
1512363106307482,-2,6,16,15,3,-1,-11,-51
1512363106307482,7,11,7,-2,-3,-2,5,41
1512363106313463,5,8,16,5,1,-1,-5,-21
1512363106313463,-3,4,-1,5,1,0,6,19
1512363106330474,8,9,20,-1,-2,-1,-16,-75
1512363106330474,-7,-6,-54,-12,-5,-4,-4,2
1512363106331459,-11,-46,-11,3,0,1,7,9
1512363106331459,4,21,-10,-1,-2,0,-7,-11
1512363106352474,6,14,45,5,0,-3,1,25
1512363106352474,0,0,-15,-10,0,-1,-4,-67
1512363106354475,-1,-5,0,1,-1,-2,0,-13
1512363106354475,1,-2,3,9,3,-1,2,18
1512363106366550,4,-6,-19,-4,-3,-2,3,4
1512363106366550,-9,1,6,1,0,1,-3,-13
1512363106373556,1,2,0,-1,-2,-2,4,31
1512363106373556,-1,-3,-8,0,0,-1,1,-4
1512363106389581,-6,1,-18,-7,-1,-1,-8,-24
1512363106389581,1,-4,7,4,0,0,-1,-3
1512363106391556,-2,3,13,0,-1,-2,-1,8
1512363106391556,-2,-1,-9,0,-1,1,0,12
1512363106412571,10,-1,-11,-3,-2,-3,-6,-14
1512363106412571,-8,2,10,0,-1,0,18,60
1512363106414572,-1,-4,-6,-1,-2,-3,-8,-12
1512363106414572,-8,1,0,-6,0,-1,-2,-8
1512363106426581,-6,-7,-3,0,-1,-2,-1,-6
1512363106426581,1,-3,1,4,-1,1,4,1
1512363106433589,-4,4,7,-3,-2,-1,22,36
1512363106433589,0,0,-4,0,-2,-2,-21,-42
1512363106449601,1,-5,-2,0,2,4,12,35
1512363106449601,-1,1,9,2,1,1,-3,-18
1512363106451599,5,7,10,-1,-2,-1,-15,-52
1512363106451599,-3,-1,-25,-10,-5,-4,2,-14
1512363106472627,-8,-1,-2,2,0,1,2,-3
1512363106472627,-4,-4,2,-2,0,-4,-3,-2
1512363106474615,5,3,10,1,1,0,2,8
1512363106474615,1,7,21,7,1,0,4,10
1512363106486636,1,4,-35,-4,-3,-5,-5,1
1512363106486636,-8,-11,-7,-8,-2,-4,-1,-3
1512363106495632,3,-2,13,0,0,0,8,43
1512363106495632,-3,2,8,4,0,0,-11,-42
1512363106510646,-2,-3,-15,-3,-2,-2,5,23
1512363106510646,5,-1,19,7,0,1,-7,-16
1512363106511641,-4,6,11,2,1,0,6,33
1512363106511641,6,-8,-49,-7,0,1,-5,-58
1512363106532655,0,-5,23,0,-1,-2,-5,-5
1512363106532655,-1,0,-14,-5,-3,-2,-7,-1
1512363106533671,-5,-2,7,2,-1,-1,-5,25
1512363106533671,2,3,1,-2,-3,0,15,26
1512363106546666,-1,-4,-1,1,0,-3,-1,-6
1512363106546666,-1,-1,-9,-2,0,-3,-7,-16
1512363106555672,-2,-3,-4,-2,-2,-2,2,4
1512363106555672,0,0,12,0,0,0,-1,10
1512363106569682,-8,-3,-15,-8,-4,-3,-4,-6
1512363106569682,1,2,11,2,0,-3,-6,12
1512363106571683,0,-1,-8,-2,0,0,-2,-20
1512363106571683,-1,-6,-11,-5,-2,-1,2,26
1512363106592699,-3,2,10,0,-1,2,1,-26
1512363106592699,0,0,-6,-1,-2,-1,-8,-6
1512363106594699,0,-2,-13,-3,-3,-1,0,-1
1512363106594699,-1,-4,2,-1,0,-2,-6,-2
1512363106606716,2,-2,4,2,2,0,6,29
1512363106606716,0,1,4,0,-3,-1,3,-4
1512363106615714,-3,-3,-15,-3,-1,1,-5,-25
1512363106615714,3,-2,10,1,-2,-3,5,30
1512363106631726,1,-1,-1,-1,-2,-1,-3,-10
1512363106631726,0,-4,-2,-2,1,-1,1,-6
1512363106633727,-3,-6,-3,-1,-1,-2,-3,-2
1512363106633727,0,1,4,0,0,0,-4,2
1512363106652740,-2,-1,-4,-2,-1,-1,-4,1
1512363106652740,-2,-2,-4,-1,-1,-2,-5,-10
1512363106654742,-1,-1,-3,-3,-1,-1,1,4
1512363106654742,-2,-2,-1,-1,-1,0,1,-3
1512363106666751,1,-3,0,-1,0,-1,-2,-6
1512363106666751,-2,0,-2,1,-1,0,5,10
1512363106675762,-1,0,-1,-3,-2,-1,-1,-11
1512363106675762,0,-1,1,1,-3,-1,0,1
1512363106689768,-1,0,-1,-2,-1,-2,-3,2
1512363106689768,1,1,1,-2,1,2,1,-3
1512363106691768,-2,-3,-6,-2,-2,-2,-4,-1
1512363106691768,-2,-1,5,0,0,0,-5,-1
1512363106712783,-2,-1,-1,-2,-1,1,3,5
1512363106712783,-1,-1,-1,0,1,0,-1,-3
1512363106713783,1,-1,0,-1,-1,-2,1,17
1512363106713783,-3,1,0,-1,1,-2,-4,-17
1512363106726798,-1,-2,0,2,-1,-1,-5,-5
1512363106726798,-1,1,-2,-1,-2,-2,0,-1
1512363106734800,-1,-1,-2,1,-1,1,-2,-2
1512363106734800,0,-3,-2,-4,0,-1,0,4
1512363106749809,-2,-1,0,-1,-1,-1,-3,-3
1512363106749809,0,-3,-2,-1,-1,0,-2,-3
1512363106751810,0,0,1,0,0,-2,1,-5
1512363106751810,0,0,-1,0,-3,-4,-1,2
1512363106772837,3,-1,-3,-1,0,-2,2,-5
1512363106772837,0,-1,-2,0,-4,-3,1,2
1512363106773827,-2,-2,-3,-2,-2,-1,-4,-8
1512363106773827,0,-3,-1,-1,-1,1,0,3
1512363106785855,-3,0,2,-2,-2,-1,-1,2
1512363106785855,-1,-5,0,-1,1,0,0,0
1512363106794859,-1,1,-1,-1,-2,-1,-2,-6
1512363106794859,0,-1,2,0,0,0,0,2
1512363106809873,0,-1,-2,-2,0,2,4,7
1512363106809873,-3,-2,-3,-3,-2,-3,-12,-17
1512363106811866,2,-1,-1,-1,0,1,2,-4
1512363106811866,-2,-2,-3,-1,-2,-1,-3,2
1512363106832867,-3,0,0,0,0,-2,-2,12
1512363106832867,-1,1,1,-2,1,-1,1,-23
1512363106833868,-1,-1,-3,-2,1,-2,0,-1
1512363106833868,-3,0,-2,-1,-1,-2,0,-1
1512363106846878,-2,-10,2,0,0,0,1,-3
1512363106846878,-2,0,-4,-1,-1,-3,1,9
1512363106854883,-2,-1,-2,2,-3,-1,-1,-4
1512363106854883,2,-1,-2,0,-1,-1,2,0
1512363106869906,0,0,-3,-2,-2,-1,-4,-4
1512363106869906,1,0,-1,-1,-1,1,2,7
1512363106871895,1,-1,0,-1,1,0,-1,-3
1512363106871895,0,0,-3,-2,0,-3,-2,3
1512363106892924,0,3,-1,-1,-1,-1,-3,-5
1512363106892924,-1,0,-2,-1,-1,0,-1,5
1512363106893911,-1,1,-1,-3,-3,-3,-3,-3
1512363106893911,-2,-2,1,-2,-3,-1,0,-1
1512363106914938,-2,-2,-3,-2,0,-4,-5,-6
1512363106914938,0,-2,-1,-1,0,-1,0,2
1512363106916939,-2,-2,0,0,0,-1,0,-1
1512363106916939,-2,0,-4,0,-3,1,2,-1
1512363106929936,-1,-2,-1,-2,-1,-1,-1,-4
1512363106929936,-1,0,-1,1,-1,-1,-1,2
1512363106935954,-2,-2,-1,-2,-1,-2,0,0
1512363106935954,0,-2,-1,-1,0,0,-1,0
1512363106952966,1,2,0,-2,-2,0,0,-3
1512363106952966,0,0,0,-2,-2,1,-1,0
1512363106953953,-1,-1,-3,-1,-1,0,-2,-1
1512363106953953,-2,-2,-3,0,-1,-3,-2,-2
1512363106974981,0,1,0,1,2,0,-1,0
1512363106974981,-2,0,-1,0,1,-2,-1,2
1512363106976971,0,0,-1,-1,-1,0,-1,-1
1512363106976971,0,0,-2,-2,0,0,-1,0
1512363106990006,0,1,-4,-1,-2,-1,-3,-2
1512363106990006,-1,-1,-2,0,-2,-1,-1,-1
1512363106991982,-1,1,2,0,2,1,-2,-1
1512363106991982,-1,-1,0,-2,0,-1,0,-1
1512363107012996,0,-3,-1,-1,-3,0,-1,0
1512363107012996,0,-2,-1,-2,-3,-3,-1,0
1512363107014001,-2,-2,-3,-1,-2,0,-1,-1
1512363107014001,-1,-1,-1,-1,0,0,-2,-3
1512363107036024,-2,-1,0,-2,-1,-4,-1,-3
1512363107036024,-1,-1,1,-1,-1,-1,1,0
1512363107041070,-3,-3,-1,-1,-2,-2,-2,-1
1512363107041070,0,-1,-1,-1,-3,-2,-1,0
1512363107050033,0,-1,-1,0,-1,-1,-2,1
1512363107050033,1,-3,-1,-1,0,-1,-2,0
1512363107052034,-2,1,-1,-1,0,0,0,-1
1512363107052034,-1,-2,-2,0,-1,-1,0,-2
1512363107073050,1,1,-2,-2,-1,-2,1,-1
1512363107073050,0,1,-1,-2,-1,0,0,0
1512363107074039,1,-2,-1,-2,-2,0,-2,-1
1512363107074039,-2,-1,-2,-2,0,0,-3,1
1512363107095062,-2,-1,-1,-2,1,0,-1,-3
1512363107095062,-2,0,-4,0,-1,-1,-4,-2
1512363107097064,-1,1,0,1,-1,0,1,0
1512363107097064,-1,-2,-2,0,-1,-2,-3,-1
1512363107109063,-2,-2,1,0,-3,-4,-1,-1
1512363107109063,-2,-3,0,-1,-1,0,-1,-1
1512363107116080,1,-2,0,0,0,-1,-2,-2
1512363107116080,-3,-2,-1,-2,-2,-1,-3,-4
1512363107132091,-2,-3,-3,-2,-2,-2,-2,-3
1512363107132091,-1,-1,-1,-2,-2,-2,0,0
1512363107134081,-2,0,0,-3,1,-3,-2,0
1512363107134081,-1,0,1,-1,-1,-2,1,0
1512363107155150,-1,0,-3,1,-1,-2,0,-3
1512363107155150,0,0,0,-1,-2,-3,0,-1
1512363107157111,-1,-2,-1,-1,-1,0,1,1
1512363107157111,0,1,-2,0,0,0,-2,0
1512363107169117,-2,0,-2,-1,-2,-1,-1,-1
1512363107169117,0,-1,-1,0,0,0,-1,-2
1512363107176111,1,-2,-2,-2,-1,-2,-1,-2
1512363107176111,1,-2,0,0,-3,-2,-2,-2
1512363107192174,0,-3,1,-1,0,-2,0,-2
1512363107192174,-2,0,0,-2,-2,1,-1,-1
1512363107194176,-1,0,-2,-2,-2,-1,-2,-2
1512363107194176,0,-1,-2,-1,0,0,0,1
1512363107215191,-2,-2,-2,-1,-1,1,-1,-1
1512363107215191,0,-2,-1,0,0,-1,-1,-1
1512363107216192,-2,-2,-1,-1,-2,-2,-2,-1
1512363107216192,-1,-1,2,-2,-1,-1,0,0
1512363107229212,-1,4,-2,1,0,-1,-2,0
1512363107229212,-3,-2,-3,-3,-1,-1,-1,-1
1512363107236204,-2,0,-3,0,-1,0,0,-2
1512363107236204,-1,-2,-2,-1,-1,-1,1,-3
1512363107252234,-1,-2,0,-2,-2,-1,0,0
1512363107252234,-1,-2,1,-1,1,-1,1,0
1512363107254220,-2,0,0,0,-2,-1,-2,-1
1512363107254220,-1,0,-1,-1,-2,-1,-3,-2
1512363107291266,1,-2,-1,-3,-2,0,0,-1
1512363107291266,-2,0,-2,0,-1,-1,-2,0
1512363107293246,-1,-5,-3,-1,-1,-1,0,-2
1512363107293246,0,-2,-2,0,-2,-3,-1,0
1512363107293246,-1,0,0,-1,-1,-1,-1,0
1512363107293246,-1,-2,-1,-2,-3,-1,-2,0
1512363107297257,-1,-1,0,-1,0,0,-1,-1
1512363107297257,0,1,0,0,0,1,0,-2
1512363107312271,-1,-2,0,-2,-1,-1,-1,-2
1512363107312271,-4,1,-1,-3,0,-1,-1,0
1512363107314263,-2,-1,-1,-1,0,-1,-2,-1
1512363107314263,-2,-1,-2,-1,0,-2,-3,0
1512363107335279,-2,-1,0,0,0,-3,-1,-1
1512363107335279,-1,-1,-2,1,-1,-2,-3,-2
1512363107336279,-1,-1,-1,-1,-3,-1,2,-3
1512363107336279,-2,-1,-2,-1,-1,-1,0,-2
1512363107349294,-2,-2,-2,1,0,1,0,-2
1512363107349294,0,-1,-2,0,-1,-1,0,-1
1512363107356299,-1,0,1,-1,-1,0,0,-2
1512363107356299,0,0,1,0,-1,-2,-3,-1
1512363107372310,-2,-1,0,-1,-1,0,-2,-1
1512363107372310,0,-1,-1,-2,0,2,-1,-1
1512363107374312,1,-2,-2,0,0,-2,-2,-2
1512363107374312,-2,-2,-3,-4,-1,-2,-2,-1
1512363107395343,0,-2,-2,-2,0,-2,-1,0
1512363107395343,-1,-3,-1,-1,0,-4,0,-1
1512363107396343,-1,-2,-1,-1,0,-1,-1,-2
1512363107396343,-1,-2,1,-1,-1,0,0,-1
1512363107409374,0,0,-1,-2,-2,0,-3,0
1512363107409374,-1,-3,-3,-2,-1,-1,0,-1
1512363107416375,-2,-2,-1,1,-1,0,-1,0
1512363107416375,-1,0,0,0,0,-1,0,-1
1512363107432382,-3,-2,-1,-2,-2,-4,-2,-1
1512363107432382,-1,0,1,-2,-1,0,-1,-1
1512363107434383,-1,-1,-1,-1,-1,-1,-2,-3
1512363107434383,1,-1,-2,-1,-2,-2,-1,-2
1512363107454398,-1,0,0,0,-2,-1,1,-3
1512363107454398,0,0,-1,-2,-1,-3,1,0
1512363107462401,-2,1,0,-2,-2,-3,-4,1
1512363107462401,0,-1,0,-2,-1,0,-1,0
1512363107468403,-3,0,0,-1,-2,-1,-1,-2
1512363107468403,-1,-2,-2,0,-1,-2,-2,0
1512363107477401,-1,-2,-1,0,-3,1,-1,-2
1512363107477401,-2,-1,-1,-2,-1,-1,-1,-4
1512363107492414,1,-2,-1,-1,-2,0,1,0
1512363107492414,0,-1,0,-1,-1,-1,-1,-1
1512363107494413,0,-2,-3,-1,-2,-1,-1,0
1512363107494413,-2,-4,-1,0,-1,1,-2,0
1512363107515445,0,-2,-2,-2,0,-1,-1,0
1512363107515445,-2,-1,-1,-1,-2,1,-1,-2
1512363107516428,0,0,-1,-1,0,-1,-1,1
1512363107516428,-2,1,-1,-1,-2,-1,-1,0
1512363107528436,-2,1,-1,0,1,1,-1,1
1512363107528436,-2,-2,-1,-1,-1,-2,0,0
1512363107537443,-3,-1,0,-1,0,-2,-2,-2
1512363107537443,-2,-2,-3,0,-1,-1,-1,1
1512363107552463,-1,0,0,-2,0,-3,1,-2
1512363107552463,0,-1,0,1,0,0,0,-1
1512363107554465,0,-3,-2,0,0,-1,-1,-1
1512363107554465,-1,-2,-1,-2,-1,-2,-1,-1
1512363107575482,-1,0,-1,-1,-2,-2,-2,-1
1512363107575482,0,0,-2,-1,-1,-1,-1,-1
1512363107576470,-2,-2,1,-3,-1,0,-4,0
1512363107576470,0,1,-1,1,-1,-2,0,-1
1512363107597485,0,-2,-1,-1,0,-1,-1,-1
1512363107597485,-1,0,-2,-1,0,-2,-1,-2
1512363107599498,-1,0,-1,-2,-1,-1,-1,-1
1512363107599498,-1,-1,-2,-1,0,0,0,-3
1512363107612497,0,-1,-4,0,-1,-2,1,-1
1512363107612497,-1,-1,-1,-1,-2,-1,-1,0
1512363107614497,-2,0,0,-1,-1,-2,0,1
1512363107614497,-1,-1,-1,0,0,-1,-2,-1
1512363107635528,0,-1,0,-1,-1,-1,-2,-1
1512363107635528,-1,0,0,-1,-1,-1,-2,-2
1512363107636530,1,-2,-1,-1,-1,-1,0,-1
1512363107636530,0,-3,-1,-1,-2,0,-1,-2
1512363107648534,-1,-1,0,-2,-1,2,-2,-2
1512363107648534,-1,0,1,-1,-2,-3,-2,-1
1512363107657528,-2,-2,-2,-1,-2,-1,1,0
1512363107657528,-1,-3,-1,0,-1,-1,0,-2
1512363107672548,-2,-2,-1,0,-1,1,-1,-3
1512363107672548,-2,-3,0,-1,-1,-1,-1,0
1512363107674554,0,0,0,-1,-1,-2,1,-2
1512363107674554,-1,0,-1,-3,-1,-2,0,0
1512363107695554,-2,1,-2,-1,-1,-2,0,1
1512363107695554,0,-1,-3,1,0,-1,-2,-1
1512363107696556,-2,-1,-3,0,-1,1,0,-1
1512363107696556,-3,-1,-1,-1,-2,-2,-1,-3
1512363107708578,-2,-2,-1,-2,-2,0,-3,-2
1512363107708578,-2,-3,-3,-3,-1,-2,1,-1
1512363107717571,1,0,-1,-1,0,-1,-2,-1
1512363107717571,-2,0,-4,-1,0,0,-1,1
1512363107732590,0,0,-1,-2,0,-2,-1,-1
1512363107732590,-2,1,-1,-1,-1,1,-1,-2
1512363107734583,-1,-1,-1,-1,-1,-3,0,-3
1512363107734583,0,1,-1,0,-2,0,-2,-1
1512363107754597,-2,-1,-2,1,0,-2,2,-2
1512363107754597,-1,0,-2,-1,0,-1,-1,-1
1512363107756598,-1,-1,-1,-1,1,-2,1,0
1512363107756598,-1,-2,-1,-2,-4,-3,-2,-3
1512363107768616,-1,0,-1,-1,-1,-1,-1,-1
1512363107768616,-1,-1,0,0,-1,0,-1,1
1512363107777613,-2,-2,-1,-1,-2,-2,-1,-2
1512363107777613,1,-2,1,0,-1,-2,-1,1
1512363107792634,-1,-2,-1,-2,0,-3,-2,-1
1512363107792634,0,-2,-1,0,-2,-1,0,-1
1512363107794624,0,0,-3,-2,-1,0,-1,-1
1512363107794624,-3,0,-2,-1,0,0,2,-1
1512363107814638,-2,-1,-2,-2,0,-1,-1,-1
1512363107814638,-2,2,1,-2,-1,0,-1,-3
1512363107816639,-1,-2,-2,-2,-1,-1,-1,-3
1512363107816639,-2,-3,1,-1,0,-1,-1,-1
1512363107828649,-1,0,-1,-1,-1,1,-1,1
1512363107828649,-1,-1,-3,-1,-3,-1,-2,-2
1512363107837654,-2,0,-1,2,-3,0,0,0
1512363107837654,-2,1,-1,-1,0,-2,-1,-3
1512363107852703,0,-1,0,-2,-1,-1,-1,0
1512363107852703,-1,-1,0,-3,0,0,-1,1
1512363107853685,-2,-2,1,0,-1,-3,-3,0
1512363107853685,-2,-2,-3,-2,0,-2,-1,0
1512363107874768,0,-2,0,-1,-1,-3,-2,-2
1512363107874768,-1,-1,-1,-2,-1,0,1,-1
1512363107876717,-1,-1,-3,-2,-3,-1,0,-1
1512363107876717,-1,0,-1,0,-2,-3,-1,-1
1512363107897781,-2,-1,-3,1,-3,-1,-1,-1
1512363107897781,-1,-3,-2,0,-1,1,0,-2
1512363107898781,0,-2,1,0,2,0,-3,-2
1512363107898781,-1,-2,-1,-1,-2,1,0,-1
1512363107912860,1,-1,-1,-2,0,2,-1,0
1512363107912860,0,-1,0,-1,-1,-3,-1,0
1512363107913861,1,1,0,-1,-1,-2,-1,1
1512363107913861,-1,0,-2,-3,0,-1,-1,-2
1512363107934893,-1,-1,0,0,0,-2,1,-1
1512363107934893,-1,-2,-1,-1,-1,-2,-1,0
1512363107936877,-2,-1,-3,-2,-2,-1,-1,-2
1512363107936877,0,-1,-3,0,-2,0,0,-1
1512363107957973,0,-2,-1,0,-2,-1,-1,-1
1512363107957973,1,0,-2,0,0,-1,-1,-2
1512363107958894,-1,-2,-1,-2,-2,-2,1,-1
1512363107958894,1,-2,-1,-1,-1,-1,0,0
1512363107972902,-1,-2,-1,-4,-1,-1,-1,-2
1512363107972902,-2,-3,-3,0,0,-1,-2,0
1512363107973904,0,1,-2,0,1,0,-1,-1
1512363107973904,0,-1,-1,-1,-2,-2,-2,-1
1512363107994918,-2,-1,-2,0,-2,-3,-3,-2
1512363107994918,-1,-1,-1,-1,-2,-2,-1,-1
1512363107996919,-1,-1,-2,-1,0,0,1,-1
1512363107996919,-4,-3,-2,0,1,0,0,-3
1512363108017946,-2,-2,-2,-1,-1,-2,-2,-2
1512363108017946,-2,-2,-1,-1,0,-2,-2,-1
1512363108018961,0,-1,0,0,-2,0,-2,0
1512363108018961,-2,0,-1,-3,-2,1,-2,0
1512363108031944,-1,-1,0,-2,0,-1,-3,0
1512363108031944,-2,0,-2,-3,-1,-1,0,-1
1512363108038976,-1,-1,1,-2,-1,-2,0,0
1512363108038976,0,0,1,-1,-1,-2,-1,-1
1512363108054962,-2,0,-1,0,-1,-3,1,0
1512363108054962,-1,-2,-1,-1,-2,-1,-1,-1
1512363108056988,-2,-4,-1,-1,-1,1,-2,0
1512363108056988,0,1,-2,0,0,-1,-4,-1
1512363108077977,1,-3,-1,-1,-2,-1,-1,-1
1512363108077977,-4,1,-2,-2,-1,0,-2,-2
1512363108078977,-2,-2,-2,-1,-1,-2,-2,-3
1512363108078977,-1,-3,-2,-2,0,0,1,-1
1512363108091999,0,0,2,0,-2,0,1,-3
1512363108091999,2,-1,-1,-2,-1,-2,-2,-1
1512363108099001,-1,1,-1,-3,-2,-3,-2,-1
1512363108099001,1,0,-2,-2,-1,-2,-2,0
1512363108123009,-3,-1,-2,-1,0,0,0,1
1512363108123009,-3,0,-1,0,-2,0,-1,-1
1512363108124010,-1,0,0,-1,0,-1,-2,-1
1512363108124010,-1,-1,-1,-2,0,-1,-2,-2
1512363108138038,-2,-1,-1,-2,-2,-1,-1,-2
1512363108138038,-1,-4,0,1,0,-1,-1,0
1512363108139037,-1,-2,-3,0,1,-1,1,0
1512363108139037,-2,-1,-1,0,-2,0,0,-2
1512363108152029,-2,1,-1,1,-1,-2,0,-1
1512363108152029,-2,0,0,-3,-1,-1,-2,-2
1512363108159034,0,-3,0,-1,-1,-2,-2,0
1512363108159034,-1,-2,0,-1,0,-1,1,0
1512363108175045,-2,0,-1,-1,-1,-2,0,0
1512363108175045,2,-2,-2,1,1,-3,0,-1
1512363108177060,-1,-3,-1,0,-2,1,0,-2
1512363108177060,-1,-1,-2,0,-1,1,-1,-1
1512363108205123,0,-1,-4,-3,-2,-2,-1,-1
1512363108205123,0,-1,-1,-1,0,-2,-1,0
1512363108207086,-2,0,-1,-2,0,0,-1,0
1512363108207086,-4,-1,0,-2,-4,-3,-2,-1
1512363108212073,-1,-1,0,-2,-2,-1,-2,-2
1512363108212073,-1,0,0,0,-2,-2,0,-1
1512363108219076,-1,-2,-3,-1,0,0,0,-2
1512363108219076,1,-1,-1,1,0,-2,-1,-2
1512363108235109,0,-4,0,-1,-1,-2,-2,-1
1512363108235109,-1,-2,-2,-1,-1,-1,-1,-1
1512363108237102,0,0,-1,-2,-1,0,-2,1
1512363108237102,1,-1,0,0,1,0,-2,1
1512363108257162,0,-1,-1,1,-1,1,-2,0
1512363108257162,-2,-1,-2,0,-1,0,-1,-1
1512363108259104,-1,1,-1,3,-2,-2,-1,-2
1512363108259104,-2,0,0,-2,-3,-2,0,0
1512363108272170,-1,0,-2,0,0,-1,0,-1
1512363108272170,1,-2,0,-2,-1,-2,0,0
1512363108279134,0,0,-1,-2,-1,0,-1,2
1512363108279134,-1,-1,-2,-1,0,-1,-2,-1
1512363108295145,-2,-1,0,-1,1,-2,-2,1
1512363108295145,-1,-1,-2,-3,-1,-2,-1,-3
1512363108297133,-2,-2,0,-2,0,-1,0,-3
1512363108297133,0,-3,-1,0,-1,-1,-2,0
1512363108317145,-1,0,0,-1,-2,0,0,-1
1512363108317145,-3,-2,-2,-1,-1,-1,-1,-1
1512363108319147,-1,0,-2,-2,-2,0,-2,-2
1512363108319147,1,1,0,-2,-2,0,2,0
1512363108332157,-2,0,-1,-1,0,-1,1,0
1512363108332157,0,0,-1,-1,-1,0,-1,0
1512363108338173,-1,-1,-1,-1,1,-2,1,-1
1512363108338173,-2,-2,-2,-1,0,-1,-1,-2
1512363108355200,1,-1,-2,-2,0,-1,-2,-2
1512363108355200,0,-2,0,-2,-2,-2,-1,0
1512363108356191,0,-1,-1,-1,-2,-3,-2,0
1512363108356191,1,-1,-1,0,0,-1,-1,-1
1512363108377190,0,-1,-2,-1,-2,0,1,-2
1512363108377190,-2,0,-2,0,0,0,-2,-1
1512363108379199,-1,0,-1,-2,-3,0,1,-1
1512363108379199,-1,-1,2,-2,-1,-3,-2,-3
1512363108391252,-1,0,1,-2,0,-1,-1,-1
1512363108391252,-2,-2,1,-1,-2,-1,-2,0
1512363108400239,-2,-1,-1,1,3,1,-2,0
1512363108400239,-1,-1,-1,0,-1,-1,0,-2
1512363108415265,0,-3,-4,0,0,-1,-2,-2
1512363108415265,-1,-3,-1,-1,-2,-1,-1,-1
1512363108416248,-2,-1,-1,-4,-2,-3,0,-1
1512363108416248,0,0,-1,-2,0,-2,-1,-2
1512363108437274,-1,-1,-2,-2,0,0,-2,-2
1512363108437274,-1,1,0,0,0,-1,-2,-1
1512363108439263,0,-2,-2,-2,-2,0,-2,-1
1512363108439263,0,0,-2,-1,-1,-1,0,0
1512363108451284,0,-3,-1,0,-1,-3,1,1
1512363108451284,0,-1,0,0,0,-1,-1,1
1512363108460279,-1,-1,-2,1,-1,-3,-1,0
1512363108460279,-1,-2,-1,0,-2,1,-1,-1
1512363108475303,-1,0,-1,-1,-1,-1,0,0
1512363108475303,-3,-2,-2,-1,-2,0,0,-2
1512363108476292,-2,-1,0,0,0,-1,0,-1
1512363108476292,-1,-2,-2,-1,0,0,-4,-1
1512363108497316,-1,-4,0,-1,-2,0,-1,0
1512363108497316,-2,1,0,-1,-2,0,-1,-2
1512363108499316,0,1,-1,-2,-1,-1,0,-1
1512363108499316,-1,0,-2,-3,0,-3,1,-1
1512363108511314,0,1,-2,0,-2,-3,-2,-2
1512363108511314,0,-1,-2,-1,1,0,-1,0
1512363108520320,-1,-3,-1,0,-1,0,-1,0
1512363108520320,-2,0,-2,-2,-3,-1,-2,0
1512363108535331,0,-1,-2,-1,0,-1,-1,-2
1512363108535331,0,-1,-1,-2,-2,-1,-2,0
1512363108536350,-1,-2,-1,0,0,-2,-1,-2
1512363108536350,-2,-1,-1,-1,-1,-3,0,-1
1512363108557348,-2,-1,0,-1,-1,-3,0,0
1512363108557348,-1,1,0,-2,-1,-1,0,-1
1512363108559349,-3,-1,0,0,-2,0,-2,-1
1512363108559349,1,-1,-2,-2,-1,-1,-1,0
1512363108579362,-1,-2,-2,-2,1,-1,-3,-1
1512363108579362,-2,-1,-2,-1,-2,-1,1,-2
1512363108580364,-1,-1,-3,-2,-2,-1,0,0
1512363108580364,-3,1,-3,0,-1,0,-1,-2
1512363108595374,-3,0,-1,-1,-1,-2,0,-1
1512363108595374,-2,0,-1,0,0,-3,-2,-1
1512363108596374,0,1,-1,1,-1,0,-2,-1
1512363108596374,-1,1,-2,1,-2,-2,0,0
1512363108617402,1,-1,0,-2,-3,0,-1,-1
1512363108617402,0,-2,-1,0,0,-4,-1,-1
1512363108617402,2,-2,-2,-1,0,0,-1,-1
1512363108617402,1,-1,-1,-2,-1,-1,-1,-1
1512363108639427,0,1,-3,-2,-2,-2,1,-2
1512363108639427,-1,-1,0,0,-1,0,-1,-1
1512363108640427,-2,-1,-1,-1,-1,-2,-3,-4
1512363108640427,-1,-2,1,0,1,0,-1,-2
1512363108654448,-3,-3,-1,-2,-1,-1,-1,-4
1512363108654448,-2,-2,-2,-2,-2,-1,0,-1
1512363108655418,-3,-2,-3,0,0,-2,0,-1
1512363108655418,0,-1,-1,-2,-1,0,0,-2
1512363108677432,-1,-1,-2,1,-3,-3,-2,0
1512363108677432,-1,-1,-4,-1,-1,1,0,1
1512363108677432,0,-1,-1,-1,-2,-1,0,0
1512363108677432,0,-2,1,-3,-3,-1,-1,0
1512363108699459,-1,1,2,-1,1,1,2,0
1512363108699459,-1,-2,-1,-2,-2,-1,-6,-2
1512363108700460,-1,0,0,-3,-1,-1,1,0
1512363108700460,-1,-1,-2,-1,-1,-3,-3,-1
1512363108714467,-1,-3,2,0,0,1,-2,-1
1512363108714467,1,-2,-2,0,-1,-3,-1,-2
1512363108715468,-2,-1,-1,-1,-2,0,-2,-2
1512363108715468,-3,-3,-3,-1,-1,0,0,-1
1512363108736479,-1,0,-3,-2,0,-1,-1,0
1512363108736479,0,0,3,-1,-2,-1,0,-3
1512363108737485,-2,-1,0,-2,-2,-2,-1,9
1512363108737485,-2,0,-2,-2,-1,-1,-1,-6
1512363108759499,-1,-2,0,1,-1,-2,-4,-2
1512363108759499,-1,0,0,-1,1,-2,0,-3
1512363108760506,2,-1,-3,1,1,0,-1,-5
1512363108760506,-1,-1,-1,-1,-1,-1,0,4
1512363108774500,-1,-1,-3,-1,-1,-2,0,1
1512363108774500,-2,-2,-3,0,-2,-2,-1,-3
1512363108775513,-3,-2,-1,-1,-3,-1,0,1
1512363108775513,0,-1,-1,-2,-2,0,-3,-2
1512363108796517,0,-1,-1,-1,-2,-1,-3,-3
1512363108796517,-1,0,-1,-1,-1,0,-1,-1
1512363108797518,-1,-1,-2,-1,1,-2,0,-3
1512363108797518,0,-3,-1,-1,-1,0,0,-2
1512363108819644,0,-2,2,-2,-2,-1,0,-1
1512363108819644,-1,0,0,-2,-3,-1,-1,2
1512363108820631,-2,1,2,-1,-2,-1,-1,-3
1512363108820631,-1,0,-1,1,0,0,0,-2
1512363108834654,-1,-1,-2,-1,0,-1,-1,-1
1512363108834654,0,-3,-3,0,1,-1,-1,-1
1512363108834654,2,-2,-3,-1,0,-3,-2,-3
1512363108834654,-1,-1,1,-1,-1,-1,-2,-1
1512363108856662,-2,0,-1,-2,-1,-1,-1,-1
1512363108856662,-3,1,-2,-1,-2,0,0,-2
1512363108857653,-2,0,0,-2,-2,-1,-1,-3
1512363108857653,-2,0,-3,-1,-1,-3,-2,-2
1512363108879682,1,-1,-1,0,-1,-3,0,0
1512363108879682,-2,-2,0,-2,-2,-1,-1,-1
1512363108879682,0,-3,0,-1,0,0,-2,0
1512363108879682,-1,-1,1,0,-1,-1,0,1
1512363108894692,-3,1,-1,-2,-1,-1,-3,-1
1512363108894692,1,-1,-3,-1,-1,-3,1,-1
1512363108894692,-2,1,-1,-3,-2,0,-2,-2
1512363108894692,0,-1,-1,0,-1,0,1,-1
1512363108916695,1,0,-1,-1,0,-1,-2,-1
1512363108916695,0,1,0,1,0,0,-2,-2
1512363108917695,-3,0,-1,0,1,0,1,-2
1512363108917695,-2,-2,-1,-1,0,-3,0,-1
1512363108939713,-1,-1,-1,0,-2,-2,2,-2
1512363108939713,-2,0,-2,-1,-1,-2,-3,-1
1512363108939713,0,-1,-3,-1,-1,0,-2,0
1512363108939713,-2,-1,-1,-2,-1,-1,0,-1
1512363108955741,-2,-2,0,-3,-2,-1,-1,-1
1512363108955741,2,1,0,1,1,1,0,1
1512363108956735,1,4,-1,-1,-2,-3,-1,-1
1512363108956735,-14,-7,0,-2,0,-2,-4,-2
1512363108976747,-1,-5,-1,0,0,1,-1,0
1512363108976747,-1,-5,-2,-2,-2,-4,-2,0
1512363108977738,0,1,-1,0,-1,-1,0,0
1512363108977738,2,3,-2,0,0,-1,-1,1
1512363108999770,-1,1,0,-1,-2,-1,-2,0
1512363108999770,-2,2,-2,0,-2,1,0,-1
1512363108999770,-1,-3,-4,0,-1,0,0,-4
1512363108999770,3,0,0,-2,-1,-1,-1,-2
1512363109014764,-4,-2,-1,-2,-1,-1,-1,-3
1512363109014764,2,-1,0,-1,-1,-2,-2,-2
1512363109014764,-2,-2,-2,-1,-2,-2,-1,0
1512363109014764,2,1,-2,0,-1,0,-3,-3
1512363109036791,1,0,-1,0,0,-2,-2,-1
1512363109036791,-3,0,0,-2,1,-1,-1,-2
1512363109037782,-2,-5,0,-2,0,-2,0,-1
1512363109037782,0,0,-2,-2,-3,-1,-1,-1
1512363109059799,1,1,-3,-3,-2,-1,0,1
1512363109059799,-2,-2,-1,0,-1,-1,-2,0
1512363109059799,1,-2,-1,-2,-1,-1,-3,1
1512363109059799,0,-1,1,-2,-1,-3,0,2
1512363109073815,0,1,1,0,-1,-2,-1,0
1512363109073815,-2,-1,0,-2,0,-1,1,-2
1512363109074807,-1,0,-1,0,-2,-1,-1,-3
1512363109074807,0,-1,-2,0,-1,-1,-2,0
1512363109096832,-3,-1,-1,0,0,-1,-1,-2
1512363109096832,1,-2,-4,-3,0,-3,-2,2
1512363109097836,0,-3,-2,-1,0,0,0,-1
1512363109097836,-1,-2,-2,-2,-2,-1,-1,-1
1512363109119848,-2,-2,0,-1,-2,0,0,0
1512363109119848,-1,-1,1,-1,0,-3,-1,0
1512363109119848,-2,-1,-1,-2,-1,-1,-1,-2
1512363109119848,-2,1,-3,-2,0,0,1,-1
1512363109133870,-2,-3,-3,-2,-1,-2,0,-4
1512363109133870,-1,-2,-1,-2,0,1,-1,-1
1512363109134849,-2,-1,0,0,-2,-4,-2,-2
1512363109134849,0,-2,1,0,1,-1,-2,-4
1512363109156886,2,0,0,0,1,0,-1,0
1512363109156886,-4,0,-3,0,-2,0,0,-1
1512363109157866,-1,-2,-1,-1,0,0,-3,-1
1512363109157866,-1,-3,-2,0,-3,-1,-1,1
1512363109178891,-2,-2,-1,-2,-1,-2,-3,1
1512363109178891,-1,-3,-1,0,-1,-2,2,-1
1512363109179912,-1,1,0,1,-1,-2,1,1
1512363109179912,-1,0,-2,1,-2,-2,1,-2
1512363109193891,0,0,-1,-1,-1,-1,0,0
1512363109193891,-3,-2,-1,0,0,0,0,-1
1512363109194893,0,0,-1,-2,0,-1,-2,-1
1512363109194893,-3,0,-1,-1,0,-1,-1,-1
1512363109216919,1,0,0,-2,-2,0,-2,0
1512363109216919,-1,0,0,0,-3,-2,-1,-3
1512363109223921,0,-2,-1,-1,-1,-2,1,-1
1512363109223921,1,-1,0,-1,-2,1,-2,-1
1512363109239946,-2,-2,-1,-1,-1,-1,-3,-2
1512363109239946,-1,-2,-1,-1,-2,-1,-2,-1
1512363109240924,-2,-1,-3,-2,0,2,-2,0
1512363109240924,-3,-2,-1,-2,0,1,-1,-1
1512363109253945,-1,-2,0,-1,-2,0,-2,0
1512363109253945,-2,-3,1,-1,-3,0,-3,-1
1512363109254933,0,-1,0,0,-1,-1,0,-1
1512363109254933,-2,-2,0,-1,0,-3,-1,0
1512363109276961,1,-1,0,-1,1,-2,1,-1
1512363109276961,-2,0,-2,-2,-1,-3,1,-1
1512363109277952,0,1,0,-1,-2,0,0,-1
1512363109277952,0,0,-1,-1,-2,0,1,0
1512363109299977,-1,-1,-1,-1,0,0,0,-2
1512363109299977,-1,-1,-1,0,-2,-1,-1,-1
1512363109300966,-1,-2,-1,0,-1,0,-1,0
1512363109300966,-1,-2,-1,0,-1,-2,-2,-1
1512363109313976,-2,-1,-2,-1,-2,-3,-2,-1
1512363109313976,1,2,1,-1,-2,-2,-2,-3
1512363109314976,0,-1,-2,0,-1,-1,-2,-1
1512363109314976,0,-1,-1,0,-1,0,-2,-2
1512363109337014,-1,-1,-2,0,0,0,-1,-1
1512363109337014,1,-2,-3,-4,1,2,-1,-1
1512363109338011,0,0,-3,-1,-1,-2,0,-1
1512363109338011,-2,-1,-1,-1,-1,-1,1,0
1512363109360010,-1,-1,-2,-1,1,-1,1,1
1512363109360010,-3,-1,-2,-2,1,0,-1,-2
1512363109361010,-2,-1,0,-1,3,-1,-2,-2
1512363109361010,-1,-1,-2,-1,-1,0,0,-1
1512363109374035,-1,-2,0,0,-2,-2,-1,-2
1512363109374035,0,-1,-2,-2,-2,0,0,0
1512363109375035,0,0,0,0,-3,-1,0,-1
1512363109375035,-2,-2,0,-2,-1,-1,-2,-1
1512363109397043,-2,-2,-1,-2,-1,-1,-2,-1
1512363109397043,0,0,-1,-1,-1,-2,-1,4
1512363109398044,-1,-2,-3,-2,-1,0,-1,-1
1512363109398044,0,0,-1,0,-3,-3,-1,-2
1512363109420059,-1,-1,-1,-3,-1,-1,-1,-1
1512363109420059,0,-2,-2,0,0,0,-1,0
1512363109421052,-2,0,-1,0,-2,-3,-1,0
1512363109421052,-2,-1,-2,0,-2,-2,-1,-3
1512363109434080,-1,-1,-2,-1,0,-1,0,-1
1512363109434080,-2,0,0,0,-1,-2,0,-1
1512363109442084,-2,-2,0,0,-1,-1,-1,-3
1512363109442084,-3,-1,2,-1,-1,-1,-3,-1
1512363109457094,0,0,0,1,-3,0,-3,-1
1512363109457094,-2,-2,-1,0,-2,-2,0,0
1512363109458079,-2,-1,-2,-2,-1,0,-1,0
1512363109458079,0,-1,-3,-2,0,0,1,0
1512363109479109,0,-1,-3,-2,0,-1,0,-2
1512363109479109,-2,1,-1,-2,-2,-1,0,-4
1512363109480096,-1,-2,0,0,-2,-2,0,0
1512363109480096,1,-1,-1,-1,-1,0,-1,0
1512363109494105,-1,0,-2,-1,-1,-1,-2,-1
1512363109494105,-1,-2,0,0,-2,-1,-2,-1
1512363109502120,-1,-4,-2,-1,-2,0,0,0
1512363109502120,1,-2,-1,-1,0,-2,-1,0
1512363109517132,-1,-2,-2,-1,-1,-1,-1,1
1512363109517132,-2,-3,-2,-1,1,-2,-1,-1
1512363109518119,-3,0,-1,-1,-2,-2,-2,-2
1512363109518119,1,-1,-1,-2,-1,-1,-1,-1
1512363109540156,-3,1,1,0,-2,0,0,-3
1512363109540156,-1,-1,-2,-4,-3,-2,1,-2
1512363109541150,1,0,-2,-3,0,0,-2,0
1512363109541150,0,-2,-1,-1,0,-2,1,1
1512363109554144,0,-3,-2,1,-1,0,0,-2
1512363109554144,-1,-2,-1,0,0,0,-1,-1
1512363109562152,-2,0,-1,0,0,0,-1,-2
1512363109562152,-3,1,1,1,-1,0,-2,-1
1512363109577176,-1,1,-1,-1,-1,-1,-1,1
1512363109577176,0,0,0,0,-1,0,-1,0
1512363109577176,-2,0,-2,-2,-3,-3,-2,-3
1512363109577176,-1,-2,-1,-2,-2,-1,0,-3
1512363109600192,-2,-3,1,-2,0,-1,0,-1
1512363109600192,-1,-1,-1,-2,1,1,-2,-1
1512363109601191,-2,-2,-2,-1,0,-2,-2,0
1512363109601191,-1,-1,-2,-3,-1,-2,-1,0
1512363109613186,-2,-1,-1,-3,-3,-4,-3,-1
1512363109613186,1,-1,0,1,-2,-1,0,-1
1512363109622193,0,-2,1,-1,-2,-2,-1,1
1512363109622193,0,0,-3,1,-1,1,-1,-1
1512363109637217,0,-1,-1,0,-1,-1,0,0
1512363109637217,-2,-1,-2,-2,-1,0,-1,-4
1512363109637217,0,-1,0,-2,-1,-1,1,-2
1512363109637217,-3,-3,-1,-1,0,1,-1,-4
1512363109660220,-1,0,-2,0,-2,0,1,1
1512363109660220,-1,1,-2,-1,-1,0,-1,1
1512363109661224,0,-2,-2,-3,-1,0,-1,-1
1512363109661224,0,-2,-1,1,-2,-2,-1,0
1512363109673238,-1,-3,0,0,-1,-3,-1,-2
1512363109673238,-1,-1,0,-1,-1,-2,-1,-1
1512363109682254,-1,-2,-1,0,-1,-1,-2,-3
1512363109682254,-1,-2,-1,-3,0,1,0,1
1512363109697259,0,-3,-1,0,0,0,-2,-1
1512363109697259,-2,-2,-2,0,-1,-1,-1,-1
1512363109697259,-2,-1,-1,-1,-1,0,0,0
1512363109697259,-1,0,0,-1,-2,-2,-1,0
1512363109720265,-1,1,0,-3,-2,-2,-1,-1
1512363109720265,0,0,0,0,-2,0,-2,-1
1512363109720265,0,0,-1,-2,1,-2,-3,0
1512363109720265,-1,0,-3,-2,-1,-2,-1,-1
1512363109733275,-1,0,-3,-1,0,-2,1,-2
1512363109733275,-1,-2,0,0,0,0,-1,0
1512363109742279,-1,-1,-1,-2,0,1,0,-2
1512363109742279,0,-2,-1,-2,-2,-1,0,-3
1512363109756296,-1,1,-1,-2,0,-2,-2,0
1512363109756296,-1,-1,-1,-1,0,-1,0,0
1512363109757287,-1,-1,1,-1,-3,-1,0,0
1512363109757287,-2,0,-1,-2,0,-2,-2,-1
1512363109787324,-1,0,-2,-2,-2,0,0,-1
1512363109787324,1,-1,-1,-2,0,-1,0,1
1512363109788310,-1,1,0,-2,-1,-2,-1,1
1512363109788310,-1,-1,0,-2,-1,-2,-1,-3
1512363109802332,-2,-2,0,0,-2,0,-2,-1
1512363109802332,-1,-2,-1,-1,-2,-1,-1,-4
1512363109803323,-2,-2,-2,-1,-3,-1,0,-2
1512363109803323,0,0,-1,0,-2,1,-1,-2
1512363109816334,-1,-2,-4,1,0,-1,-1,-2
1512363109816334,1,-2,-2,-1,-1,-1,-1,1
1512363109817331,0,-1,-3,-1,-1,-1,0,-1
1512363109817331,-1,0,0,-1,0,-2,0,1
1512363109840365,-3,1,1,-2,0,0,0,-1
1512363109840365,-1,-1,-1,-1,0,0,-1,-2
1512363109840365,-1,-1,-1,-1,-1,-1,-2,-1
1512363109840365,0,-1,-1,0,-2,-1,0,0
1512363109862362,-2,0,-1,-1,-1,-1,0,-3
1512363109862362,0,-1,-2,-2,-1,-1,-2,-2
1512363109863363,-1,0,-3,-3,0,-1,0,0
1512363109863363,-2,-1,-1,0,-1,-3,0,-3
1512363109876373,0,-1,-3,0,-3,-1,0,-2
1512363109876373,-1,-1,0,-1,-2,-2,0,-1
1512363109877373,-1,-2,0,0,0,-2,-1,-1
1512363109877373,-1,-1,-1,-2,-1,-2,-2,2
1512363109900399,-1,-1,-3,-1,-1,-2,-1,-1
1512363109900399,-2,-2,-3,0,0,0,0,0
1512363109900399,0,-1,1,0,1,-2,-1,-3
1512363109900399,0,0,0,-1,-1,-1,-2,0
1512363109922465,-2,0,1,-2,-1,-1,-2,1
1512363109922465,-3,1,1,-2,-1,0,-1,1
1512363109923466,-1,0,2,0,-2,0,0,0
1512363109923466,0,-1,-1,-1,0,0,-1,-3
1512363109936493,1,1,-1,-2,-3,0,-3,-2
1512363109936493,1,0,-3,0,0,-2,-1,0
1512363109937467,-1,-1,-2,-3,-1,-3,-1,-3
1512363109937467,-2,-2,-2,0,-1,-1,-1,0
1512363109960496,0,-2,1,0,0,-1,-1,-1
1512363109960496,-1,-2,0,0,-2,-1,0,-2
1512363109960496,-1,-2,-2,0,-2,1,-1,-1
1512363109960496,0,0,-2,-2,0,0,-2,-2
1512363109982501,-3,-3,-2,-1,-2,-3,0,-1
1512363109982501,-2,-2,0,-2,-2,-1,-3,-1
1512363109983501,-2,0,-2,0,-1,-1,-1,-1
1512363109983501,0,-1,0,-2,-3,1,-1,-2
1512363109996519,-1,-2,-1,-1,-1,-2,-1,-1
1512363109996519,-1,1,-2,-2,-1,-2,-1,-3
1512363109997508,-1,-1,0,-1,0,-1,1,0
1512363109997508,-1,0,-2,-1,-1,-1,0,0
1512363110018540,0,-2,-1,-1,-2,-1,1,1
1512363110018540,-3,-3,0,-2,-1,-1,-2,-1
1512363110026555,-2,0,-1,-1,-1,-1,-2,1
1512363110026555,-1,-1,-1,0,-1,1,-1,-2
1512363110042569,0,0,-1,-2,0,1,-2,-2
1512363110042569,-1,0,-2,-2,-3,-2,-1,-1
1512363110043546,0,1,-3,0,-1,-1,-1,-2
1512363110043546,-2,-2,0,-1,-1,-2,0,-1
1512363110056563,-3,-2,-1,-1,0,-2,-2,-1
1512363110056563,0,-1,0,0,0,-1,-1,0
1512363110064565,-1,-2,2,-2,-1,-1,-2,-2
1512363110064565,-2,1,-2,-1,-1,-2,-2,-1
1512363110079579,0,0,-1,-3,-1,0,-1,-1
1512363110079579,-2,-1,-2,-1,-2,-1,-1,-1
1512363110080568,-1,-1,0,1,-2,-1,1,-1
1512363110080568,0,-1,0,-1,0,-1,0,0
1512363110102594,-2,0,0,1,0,-1,-3,-1
1512363110102594,-1,-1,-1,0,-1,-1,0,0
1512363110103593,-1,0,-2,-1,-2,-2,-2,1
1512363110103593,-2,-1,-1,-2,1,-1,0,-3
1512363110116602,-1,-2,1,0,-2,-1,-1,1
1512363110116602,-3,-1,0,-2,-1,-2,0,-1
1512363110117593,-1,-2,-1,-1,-1,-1,-2,-4
1512363110117593,-2,-1,-2,-2,-2,-2,-1,-4
1512363110147614,1,-2,-1,-3,0,-1,0,-1
1512363110147614,-1,-1,-1,-1,0,-1,-1,0
1512363110148627,1,-3,-2,-2,-1,-1,0,-1
1512363110148627,-1,-1,-2,0,0,-1,-2,-2
1512363110162634,0,-1,-1,-1,-1,0,1,-3
1512363110162634,-3,1,0,-2,0,-1,-2,0
1512363110163626,0,1,1,-1,1,-1,1,-1
1512363110163626,-2,0,-1,-1,0,0,0,-1
1512363110176636,-1,1,-1,0,-1,-2,-1,0
1512363110176636,-1,-1,0,0,-1,1,0,-2
1512363110177638,-2,-2,-1,0,-1,1,-1,-3
1512363110177638,0,-2,0,-3,-1,-1,-1,2
1512363110199652,-2,-2,0,-3,1,0,-1,-1
1512363110199652,0,-2,-1,-1,0,-1,0,-2
1512363110200653,-1,-2,0,-1,-1,0,0,1
1512363110200653,0,-2,-3,0,-2,-1,-2,1
1512363110222680,0,-3,-2,0,-3,-2,-2,1
1512363110222680,-2,-1,0,-2,-1,-2,0,-2
1512363110223681,0,1,-1,-1,-1,-1,0,-1
1512363110223681,0,1,1,-1,-1,-2,-2,-2
1512363110236687,-3,0,-2,0,0,0,-1,-2
1512363110236687,-1,-3,-2,0,-1,-1,-2,-2
1512363110237679,-3,-2,-2,-1,0,-2,-2,-1
1512363110237679,-3,-1,-1,-2,-1,-2,0,1
1512363110260695,1,-1,-2,-1,-2,-1,1,0
1512363110260695,0,-2,-2,0,-2,-1,-1,-1
1512363110260695,-2,-2,-3,-3,-1,-1,0,-1
1512363110260695,-1,-2,0,-1,-1,-2,-1,-2
1512363110282709,-3,-2,-1,-2,-1,-1,0,-1
1512363110282709,0,-2,-1,-1,-1,-3,0,0
1512363110283753,1,-2,-2,-1,-3,-1,-1,0
1512363110283753,-2,-1,0,0,-1,0,-1,0
1512363110296731,0,-3,0,1,0,-1,-1,-2
1512363110296731,-3,-1,-1,-1,0,-2,-3,-1
1512363110297722,-1,0,-1,0,-1,-3,-3,0
1512363110297722,0,-2,-1,-1,-1,-1,1,-1
1512363110319736,-1,0,0,-2,-1,0,-2,0
1512363110319736,-2,2,-1,-3,-1,0,-1,0
1512363110320737,0,-3,-2,-1,0,-1,-1,-3
1512363110320737,11,2,0,-1,1,-3,-1,2
1512363110342767,-2,-1,-2,-1,1,-2,-1,-2
1512363110342767,1,-2,0,2,-1,0,-1,-2
1512363110343754,-11,3,2,1,-1,0,-1,-2
1512363110343754,-4,-7,-4,-4,-2,-2,-2,-2
1512363110355761,9,3,-2,0,-1,-1,-1,2
1512363110355761,5,-1,-3,-1,-2,0,-2,3
1512363110364773,-2,-6,-4,-1,-2,-1,-2,-2
1512363110364773,-7,1,0,1,0,-1,-2,-3
1512363110379790,-3,-2,0,-1,-1,-1,-1,1
1512363110379790,-1,1,0,-3,1,-2,-1,-2
1512363110380780,2,1,0,-1,-1,-3,-2,-2
1512363110380780,-2,-2,-1,-2,-1,1,0,-1
1512363110402807,-1,-2,-3,-1,0,-1,1,-2
1512363110402807,0,-1,-1,0,-1,-1,-1,-1
1512363110402807,-1,-2,-1,-3,-1,-2,-2,0
1512363110402807,0,-3,-1,-1,0,-2,1,-1
1512363110415805,-2,0,-1,-2,0,-1,-1,-2
1512363110415805,-3,-2,-2,0,-1,-2,0,-1
1512363110423810,1,-1,-1,0,1,-2,-1,0
1512363110423810,0,1,-1,0,-1,-1,-1,-1
1512363110439844,-4,-1,0,1,0,-1,-2,-1
1512363110439844,-3,0,1,-1,-2,0,0,-3
1512363110440822,1,-1,1,-2,0,1,-1,0
1512363110440822,0,-2,-1,-3,-2,0,-1,0
1512363110462837,-1,-2,-2,-2,-2,0,-1,-3
1512363110462837,-2,-1,-2,-3,0,-1,1,0
1512363110462837,0,1,-3,-1,-1,-2,0,1
1512363110462837,-3,0,-1,1,-1,-1,-1,0
1512363110475846,-3,-1,-1,-3,-1,-1,-1,-1
1512363110475846,-2,-3,-1,1,-1,-1,-1,0
1512363110483866,1,1,1,-2,-1,-2,0,0
1512363110483866,0,1,-1,-1,0,-1,1,-2
1512363110499878,-1,-1,-1,-1,-2,-1,-1,1
1512363110499878,-1,-1,0,-2,-2,-2,1,-2
1512363110500864,0,0,0,-2,-1,-1,-1,-1
1512363110500864,-1,-2,-2,0,-3,-1,0,-1
1512363110522879,-2,-1,-2,1,0,-2,-1,-1
1512363110522879,-2,-2,-1,-1,0,0,-1,-1
1512363110522879,-2,-3,0,-1,-3,-2,-2,0
1512363110522879,-4,-4,0,-2,-1,-2,-2,-4
1512363110535890,5,-2,-1,0,-2,0,0,2
1512363110535890,0,-2,-1,0,-1,-1,0,-1
1512363110544896,0,0,0,0,-1,1,-2,-2
1512363110544896,0,2,0,0,-2,1,-2,-3
1512363110559906,-2,-1,-3,-1,-1,-3,-2,-1
1512363110559906,0,-2,-1,0,-1,-1,-3,0
1512363110560909,0,-1,-2,-3,-1,1,0,-1
1512363110560909,-3,0,-1,-2,-2,-1,0,-2
1512363110582936,-2,1,0,-2,0,0,0,-2
1512363110582936,-1,-1,0,1,-2,0,-1,0
1512363110582936,-1,-1,-1,-1,-2,-1,0,-1
1512363110582936,-1,-2,-1,-2,-1,0,-2,0
1512363110596932,-2,-1,0,0,0,-2,-3,-1
1512363110596932,-3,-2,-2,-3,-1,-2,-2,-4
1512363110603936,1,-2,-2,0,-1,0,1,-2
1512363110603936,2,-2,-1,-1,-1,-3,-1,-1
1512363110619948,-2,-1,-1,0,-2,0,-2,-1
1512363110619948,-2,-1,0,0,1,0,-3,-2
1512363110620948,-2,0,-1,-2,-3,-4,-1,1
1512363110620948,0,-1,-1,0,0,-2,1,2
1512363110641965,-3,1,1,0,-1,-1,0,-1
1512363110641965,-1,-3,-3,-1,-1,-3,-1,-2
1512363110643966,-3,-1,-1,1,-2,0,-1,-3
1512363110643966,3,2,0,2,0,-2,0,2
1512363110655973,-2,-1,0,-2,1,-1,-1,-3
1512363110655973,0,1,-1,-1,-1,1,1,0
1512363110664979,0,-1,0,0,1,0,-2,0
1512363110664979,-2,-2,2,-2,0,-1,-1,-2
1512363110678989,-1,-3,0,-2,-3,0,-2,-2
1512363110678989,-2,2,-1,-2,-1,-2,1,-1
1512363110686995,-2,-1,0,0,-1,-2,-1,0
1512363110686995,-1,0,-1,-1,-1,-1,-1,0
1512363110703006,0,0,-1,-3,-1,-1,-2,1
1512363110703006,0,-1,-2,-1,-1,-1,-2,-2
1512363110705018,-1,0,-3,-3,-2,-2,-2,-1
1512363110705018,-2,0,-2,-2,0,-1,-2,0
1512363110725061,-2,-1,-2,-1,0,-1,-2,-1
1512363110725061,0,0,-1,-2,-1,1,0,-1
1512363110727024,0,-1,1,-1,-1,1,0,-1
1512363110727024,-2,-3,-1,0,-1,-1,-2,-1
1512363110739065,0,-1,-1,-1,-1,-2,0,0
1512363110739065,-1,0,-2,-2,-1,-2,1,-1
1512363110746048,0,-3,0,0,1,-1,1,-2
1512363110746048,-1,-1,-1,-1,-3,-1,-1,-1
1512363110762055,0,1,-1,-1,-1,1,-2,1
1512363110762055,0,-2,1,-1,-1,-1,-1,1
1512363110764049,-2,-1,-2,-1,-2,-1,-2,-2
1512363110764049,-4,-2,-1,0,0,-1,-1,-2
1512363110785078,0,-1,-2,0,-1,-3,2,0
1512363110785078,-2,-2,-1,-2,-2,-1,-1,-2
1512363110791091,0,-1,-1,-2,-1,-2,0,0
1512363110791091,-1,-1,-1,0,-1,0,-1,-1
1512363110800085,-2,-1,-2,-1,-1,-1,0,-2
1512363110800085,-1,-2,-2,-1,0,0,-1,1
1512363110802086,-1,-2,-1,-2,-1,-1,-1,-1
1512363110802086,2,0,-2,-1,-4,-1,-1,-1
1512363110822090,-1,-2,2,0,-1,0,0,0
1512363110822090,0,-1,1,-1,-3,-1,-3,-1
1512363110824092,-1,-1,0,-2,-1,0,-1,0
1512363110824092,-1,-2,0,-1,0,-1,-2,-2
1512363110845120,-1,-1,-1,-3,0,-1,-1,-1
1512363110845120,-2,0,-3,0,-1,0,-1,-3
1512363110846118,-1,-1,-3,1,-1,-1,0,-1
1512363110846118,-1,-3,0,-1,1,0,-1,-1
1512363110859129,-4,0,0,-1,0,0,-2,-2
1512363110859129,-1,-2,-3,-2,1,-1,-1,0
1512363110866122,-1,1,-3,-1,-1,-1,-1,-1
1512363110866122,-1,-1,-2,-1,-3,0,0,0
1512363110882133,-1,-2,-1,2,-2,-1,-5,-2
1512363110882133,-1,0,3,0,0,-3,0,-1
1512363110885158,-1,0,-1,-1,-1,-4,-1,-1
1512363110885158,-1,0,-1,-3,-2,-2,-1,-2
1512363110905245,0,1,-1,-1,0,-2,-1,-2
1512363110905245,-4,0,-2,-1,-2,1,-2,-1
1512363110906223,6,-1,-1,-1,1,1,0,2
1512363110906223,-3,-2,-1,-1,0,-2,0,-1
1512363110927240,-1,-1,-2,-3,0,0,1,0
1512363110927240,-3,-1,-2,0,-2,-2,-2,-4
1512363110929254,-1,0,0,0,-2,1,0,0
1512363110929254,-1,-1,-1,0,-1,0,1,0
1512363110950266,0,0,1,1,-1,-2,0,0
1512363110950266,-1,0,-2,-1,0,-2,-1,-1
1512363110951257,-3,-1,-2,-1,-1,-1,-1,-3
1512363110951257,1,-1,0,-4,1,1,0,0
1512363110965279,-1,-2,-4,-1,-3,-1,-2,-2
1512363110965279,0,0,-1,0,-1,-2,-2,0
1512363110966267,-2,-3,-3,-2,-2,-3,-3,-3
1512363110966267,1,1,-2,-1,0,-2,-1,-1
1512363110979276,0,-1,-3,-2,-1,0,-1,-2
1512363110979276,0,-2,-1,-1,-1,1,-1,0
1512363110986292,-3,-2,0,0,0,1,-1,-5
1512363110986292,-1,-4,0,0,-1,-2,-2,-1
1512363111002301,-2,0,0,0,-1,-1,1,0
1512363111002301,-1,-1,-1,-2,-2,-2,-2,-1
1512363111005303,-2,-1,1,-1,1,-4,-1,-1
1512363111005303,-1,1,-1,0,-2,-1,-3,-1
1512363111025315,-2,-1,-1,-1,-1,-1,-1,-1
1512363111025315,0,-3,-1,1,-1,0,1,-1
1512363111026310,-2,-2,-3,-2,-2,-1,-2,-2
1512363111026310,0,-2,-2,-1,-1,-2,0,-1
1512363111038340,0,-1,-2,-1,0,-1,-1,-1
1512363111038340,0,-1,-1,-3,0,0,-2,0
1512363111047387,-2,-2,1,-1,0,-1,0,0
1512363111047387,-1,-2,0,-2,-2,-1,-2,-1
1512363111070389,0,0,-2,-2,0,-3,1,-3
1512363111070389,-1,-1,-1,-2,0,0,-1,-2
1512363111071390,0,2,-2,-1,-2,0,-1,-2
1512363111071390,-2,1,-2,-1,0,-1,0,-1
1512363111084411,-1,-1,0,0,-2,0,-1,-1
1512363111084411,-2,0,-1,0,-2,-1,0,-1
1512363111086401,-3,-1,1,1,-2,-2,-1,-1
1512363111086401,-2,-2,0,0,-2,0,-1,-1
1512363111099422,1,0,-1,-1,-2,0,-2,0
1512363111099422,0,-2,-1,-1,1,-2,-1,-1
1512363111106424,-3,-1,-2,-2,-1,-1,-1,0
1512363111106424,-2,-2,-1,-2,1,0,1,-2
1512363111122465,-2,0,-2,-1,-2,-2,1,2
1512363111122465,0,0,1,-2,-1,-1,0,-1
1512363111124467,0,0,-1,-2,-1,-2,-1,-2
1512363111124467,-3,-1,-3,-1,-2,-3,-1,-2
1512363111144456,0,-2,-2,-1,-2,1,-2,-2
1512363111144456,0,-1,-3,1,-1,-2,-1,-1
1512363111146443,-2,0,0,0,-1,0,-1,0
1512363111146443,-1,0,0,0,-1,-1,-1,-1
1512363111159457,-1,-2,-1,0,-2,-3,-2,-1
1512363111159457,-1,0,-1,-1,-1,0,0,0
1512363111166476,0,-2,-1,0,-2,1,0,1
1512363111166476,-2,-2,-1,0,0,0,-2,-1
1512363111182479,-4,-2,-2,3,0,0,-2,-1
1512363111182479,3,-3,0,-3,0,-2,2,2
1512363111184471,1,-1,-2,-2,-1,-2,-1,-2
1512363111184471,6,1,-3,-1,-1,-2,2,1
1512363111204498,-2,1,-4,0,0,-1,-1,-2
1512363111204498,0,-1,-3,-2,0,0,-1,-1
1512363111206486,-1,0,-6,0,-2,1,0,0
1512363111206486,-3,-2,1,-1,-2,-2,-4,1
1512363111218496,-5,-1,2,-2,-1,-1,-1,-5
1512363111218496,4,-1,0,-1,0,0,-2,-2
1512363111227501,0,-1,0,0,-1,0,-2,-2
1512363111227501,-2,1,0,-1,-1,0,-1,-1
1512363111242523,0,-2,1,-1,-1,0,-2,-1
1512363111242523,-4,-1,-1,-1,-2,-1,-1,-2
1512363111244516,-1,0,-1,-2,-1,-2,1,-2
1512363111244516,-4,-1,-1,0,-2,1,-1,-2
1512363111264526,9,0,0,-1,1,0,-1,6
1512363111264526,-4,0,-1,1,-2,-1,0,-1
1512363111266531,0,0,-3,-2,1,-1,-1,-1
1512363111266531,-2,0,-3,-3,0,-2,0,-1
1512363111278540,-2,-1,-2,-2,0,-1,-1,0
1512363111278540,-1,-1,-2,-2,-1,0,-1,1
1512363111287543,-1,-2,0,-2,-2,0,-2,0
1512363111287543,-1,-2,-1,-1,-1,0,0,-1
1512363111302553,1,-3,-2,0,-2,-3,0,0
1512363111302553,-3,-3,-1,0,-1,0,0,-1
1512363111304554,-4,0,-3,-1,-2,0,-2,-3
1512363111304554,1,0,-1,-2,-1,-2,0,-1
1512363111324581,-1,-2,-2,-3,0,-3,-1,-1
1512363111324581,-1,1,-2,-2,0,-1,0,-1
1512363111326587,0,-1,-1,0,1,-2,-1,-1
1512363111326587,0,-2,-1,1,-1,0,-2,-1
1512363111338621,1,0,-1,0,0,0,-1,-1
1512363111338621,-2,-1,-2,-1,-2,-1,-1,-1
1512363111347585,-4,-2,1,-2,0,-1,0,1
