timestamp,emg1,emg2,emg3,emg4,emg5,emg6,emg7,emg8
1513175023187688,-2,-1,1,-3,-2,-2,1,-1
1513175023187688,-1,-1,0,6,-2,-1,-1,-1
1513175023189190,0,-2,-1,-7,0,-1,-2,-3
1513175023189190,0,-2,-3,5,0,-1,0,-2
1513175023200698,-2,0,0,3,4,2,-2,0
1513175023200698,-1,0,-2,-7,-3,0,-2,-1
1513175023209705,-1,1,-2,-3,-3,0,0,1
1513175023209705,-2,-1,-2,1,-1,0,-1,0
1513175023224216,0,-1,-5,-4,-3,-2,-1,-1
1513175023224216,-3,-3,2,1,-1,-2,-2,-2
1513175023225715,1,-2,-1,-3,-2,-2,-2,-1
1513175023225715,-1,-1,-2,1,0,-1,2,1
1513175023246730,0,0,0,1,-1,-1,-1,-1
1513175023246730,1,-2,-2,-2,-1,-2,-1,0
1513175023248231,-2,-1,-2,1,-2,-2,-1,-2
1513175023248231,0,-1,1,-1,0,0,-1,-2
1513175023269246,-1,-1,-1,-1,-2,-2,0,1
1513175023269246,-2,-1,-1,-2,-1,-2,-1,0
1513175023270749,-2,-3,-1,1,0,-2,-2,-1
1513175023270749,-1,0,-2,0,-1,-2,-2,-2
1513175023283271,-1,0,-2,-6,-3,-2,0,0
1513175023283271,1,-1,-2,3,1,-1,-2,-1
1513175023291777,-2,-1,-2,0,0,-1,0,-1
1513175023291777,-1,-1,-3,-3,-3,-1,-1,-1
1513175023306773,-1,-2,0,7,0,1,-1,-2
1513175023306773,0,0,-3,-4,-2,-2,0,-1
1513175023308286,-1,-3,1,-1,-3,0,0,1
1513175023308286,-2,-2,0,-1,0,-1,0,0
1513175023329289,-2,-1,-1,-3,-3,-2,-1,0
1513175023329289,-1,-1,-2,-2,-1,-2,0,0
1513175023330802,-1,0,-3,0,0,-2,-2,0
1513175023330802,-2,-1,-2,-3,-3,-1,-3,-1
1513175023343810,-1,0,-1,2,0,0,-1,-1
1513175023343810,0,1,-1,-1,0,-1,0,-2
1513175023350303,-1,-2,-2,-4,0,-1,0,0
1513175023350303,-1,-3,0,5,0,-1,-1,-1
1513175023366837,0,-1,-1,1,0,-1,-1,0
1513175023366837,-1,0,0,-6,-2,0,1,-3
1513175023368327,1,-1,-1,1,-2,-1,0,-1
1513175023368327,-1,-1,-2,-3,0,0,-1,-2
1513175023389332,-2,1,0,-2,-2,0,-1,-1
1513175023389332,-1,0,-1,-1,0,-1,1,0
1513175023390842,-2,-1,-2,-2,0,-2,-1,0
1513175023390842,-1,-1,-1,-2,-3,-3,-2,-2
1513175023404374,-2,-4,0,-2,0,-2,-2,-2
1513175023404374,-1,-1,1,-1,-2,0,-3,1
1513175023405876,0,0,-2,2,1,-1,-1,-1
1513175023405876,-2,-1,-2,0,0,-2,0,0
1513175023426893,-1,0,-1,-5,-4,-3,0,-4
1513175023426893,-1,-2,-1,-3,-2,-1,0,-1
1513175023428402,-2,-1,-2,3,1,0,-1,0
1513175023428402,-1,0,-1,2,-2,-2,-2,0
1513175023449416,-3,-1,-1,-1,-3,0,0,-2
1513175023449416,-1,0,-2,0,0,-1,-1,0
1513175023450907,0,-2,-1,-5,-3,-2,-1,-2
1513175023450907,-2,-1,-1,-3,0,-1,-1,-2
1513175023463439,-2,0,0,3,0,1,-2,-1
1513175023463439,1,-2,-1,-2,-2,-2,-2,-2
1513175023470421,-1,-2,-1,-3,0,0,-1,-1
1513175023470421,0,-1,0,-4,-1,-2,-1,-2
1513175023486932,-2,-1,-1,2,-1,0,-1,0
1513175023486932,-1,-2,-2,-1,0,0,-2,-1
1513175023488443,0,0,-1,-2,-1,-1,-1,0
1513175023488443,-1,-2,-1,-1,-1,0,-1,-2
1513175023508947,-2,-2,1,-3,0,0,0,0
1513175023508947,-1,-2,0,1,-1,-1,0,-1
1513175023510949,-2,2,-3,-1,-4,-2,-1,-1
1513175023510949,-3,-1,1,2,-1,-1,-3,0
1513175023523463,0,0,0,0,1,-2,-1,-2
1513175023523463,-2,-2,-1,-1,-1,0,-1,-2
1513175023530487,-1,-2,-1,-2,0,-2,-2,-1
1513175023530487,1,0,-2,-4,-2,1,1,-2
1513175023546492,2,0,-1,-2,-1,-1,-1,-1
1513175023546492,0,-4,-1,0,-1,0,0,-1
1513175023548479,0,0,-1,1,-1,-2,0,0
1513175023548479,-1,-1,-2,-1,-2,-1,0,-1
1513175023576517,-1,-1,-2,-4,-2,-1,-1,-3
1513175023576517,-1,0,-3,-3,-2,-2,-1,0
1513175023578521,-1,-1,-1,0,-2,0,0,-2
1513175023578521,0,-3,-1,-3,-1,-2,-2,-2
1513175023583504,-2,-1,-1,2,2,-1,0,-2
1513175023583504,-1,-1,0,-7,-1,-2,-1,-1
1513175023590508,-1,-1,-1,9,3,0,-1,1
1513175023590508,-1,0,0,-2,-2,-1,0,-1
1513175023607019,0,1,-2,-2,-3,-2,-3,-2
1513175023607019,0,-3,-2,-1,-1,0,-2,-1
1513175023608519,0,-1,-2,-4,-1,-1,-2,-2
1513175023608519,-1,-2,-2,-2,-1,-1,-1,0
1513175023629120,-3,-1,-2,-4,-2,-2,-2,0
1513175023629120,-2,1,-1,1,0,0,0,-1
1513175023630602,-1,-2,0,-3,-1,-3,-1,0
1513175023630602,-3,-2,0,2,0,-1,0,0
1513175023644117,-4,-2,-1,-3,-2,0,1,-2
1513175023644117,1,-1,0,1,-1,-1,-1,0
1513175023650620,0,-3,-3,1,1,0,-1,-1
1513175023650620,-1,0,0,-2,0,-1,-1,-2
1513175023674644,0,0,-1,0,-1,-3,-2,-1
1513175023674644,-1,-2,-2,-2,0,0,-1,-1
1513175023676134,-1,-1,-1,-3,-2,-2,-1,-1
1513175023676134,0,0,-2,0,0,0,0,-3
1513175023689154,1,-2,-1,0,-2,-1,0,-2
1513175023689154,1,-2,-1,-4,-2,-1,-1,-1
1513175023691144,0,-1,-2,1,-2,-1,-1,1
1513175023691144,-2,-1,0,1,0,0,-1,-1
1513175023703677,-2,0,2,1,1,0,-1,0
1513175023703677,-4,0,-2,-1,-2,-4,-1,-1
1513175023717686,-2,-2,-2,-6,-2,-1,-2,-2
1513175023717686,-1,-1,-4,-2,0,-1,-1,-3
1513175023726681,1,0,-1,0,0,1,0,-1
1513175023726681,0,-1,-1,0,-1,0,0,-1
1513175023728171,-1,0,-1,-1,-2,-1,-2,-1
1513175023728171,-1,0,-3,0,0,-1,-1,-1
1513175023749209,-1,-2,-1,-1,-1,-2,-1,-3
1513175023749209,0,-2,-3,1,-2,-1,0,0
1513175023750697,-2,-1,-1,0,-1,-1,-1,-1
1513175023750697,-2,0,-2,-2,-2,-1,-1,-1
1513175023762696,-1,-2,-2,-4,-3,-1,-2,0
1513175023762696,0,-1,0,2,-1,-1,-2,-2
1513175023771744,0,-2,-2,-1,-1,-2,0,-1
1513175023771744,-1,0,-1,-1,-2,-2,-2,0
1513175023786754,-3,-1,-1,-6,-1,-1,0,-2
1513175023786754,0,-1,-2,1,-2,-3,-2,-1
1513175023788255,-1,1,-2,3,-1,0,-1,0
1513175023788255,-2,0,-1,0,0,-2,-3,-2
1513175023809270,1,0,-1,-1,1,-1,-1,-3
1513175023809270,-2,-1,-1,-1,0,-1,-1,-1
1513175023810771,0,-1,-1,-4,-3,-1,-1,1
1513175023810771,-1,-3,-1,-11,-3,0,0,0
1513175023822780,1,-1,-1,9,1,-2,-2,-2
1513175023822780,0,-2,-1,4,6,1,1,-1
1513175023831786,-2,-1,-2,1,-1,0,-1,-1
1513175023831786,-1,0,-1,5,0,1,0,-1
1513175023846800,-2,0,-1,-6,-3,-2,-2,-2
1513175023846800,0,-1,0,-2,-4,-2,-2,-2
1513175023848298,-1,0,-4,-6,-1,-1,-3,0
1513175023848298,0,-1,-1,3,-1,0,-1,-2
1513175023869313,-1,-4,-2,1,2,-1,0,-1
1513175023869313,-1,-2,-1,0,-3,-1,0,0
1513175023870814,-1,-2,0,-6,-3,-1,0,-2
1513175023870814,-1,-1,2,-1,-2,-2,-1,-2
1513175023882841,1,0,-1,2,1,-2,-1,0
1513175023882841,-1,0,-2,-4,-2,-2,-2,0
1513175023891830,0,-1,-2,-1,-1,-1,-2,0
1513175023891830,-1,1,-1,-2,0,0,-2,-2
1513175023906856,-2,-2,1,4,-2,0,-1,-1
1513175023906856,-1,-1,-3,-10,-1,0,-1,1
1513175023908359,-2,-1,-1,2,-1,-1,-1,-1
1513175023908359,-1,-2,-1,1,-1,-3,-1,-1
1513175023929391,-2,-2,-1,-8,-4,-3,0,-2
1513175023929391,-1,0,-1,3,-1,1,0,-3
1513175023930869,-2,-2,-1,3,1,0,-2,-1
1513175023930869,-3,-1,-3,-2,-1,0,0,-1
1513175023942874,-2,0,0,-3,-2,-2,-1,0
1513175023942874,-3,-2,0,-2,0,-1,-1,-2
1513175023951873,-2,-3,-2,-3,0,-2,-2,-1
1513175023951873,-1,-1,0,-1,0,-1,-1,-1
1513175023974400,-1,0,-2,-2,-1,-1,-1,-1
1513175023974400,0,0,-1,1,-1,-1,-2,0
1513175023975897,0,-1,-2,1,-1,0,0,-1
1513175023975897,-1,-1,-2,-2,-1,-1,-1,-1
1513175023996915,-1,1,-1,-3,-2,-1,0,-2
1513175023996915,0,-1,-1,0,0,-1,-2,0
1513175023998419,0,-1,-1,-2,-1,0,-1,-2
1513175023998419,-1,0,-2,-1,-1,-2,-2,0
1513175024002920,-2,-1,-1,0,-2,1,-1,-1
1513175024002920,-2,-3,-1,-2,-1,-2,-1,1
1513175024011916,-1,-2,-1,-3,-3,1,-1,-1
1513175024011916,0,-2,-1,-1,-2,-1,-2,-2
1513175024026924,-1,-1,-1,2,-1,0,-1,-2
1513175024026924,-1,-2,-1,0,-3,-1,-2,-1
1513175024028425,-1,0,-1,0,-1,-1,-1,-1
1513175024028425,-1,-3,-1,-4,-1,-3,-1,-1
1513175024049459,-1,1,0,0,-1,2,-1,0
1513175024049459,-1,-1,-3,-2,-1,0,-1,-2
1513175024050942,-1,-2,-1,0,0,-1,-1,0
1513175024050942,-2,-2,-2,1,0,0,0,-1
1513175024063462,0,-2,1,-1,-1,-1,-1,-1
1513175024063462,-1,0,0,-1,-1,0,-2,-2
1513175024071956,-1,-1,-1,-1,-3,-1,-1,-1
1513175024071956,-2,-2,1,4,0,-1,-1,-2
1513175024086967,-1,-3,-2,-1,-1,-1,-2,0
1513175024086967,-1,-2,-1,-1,0,-2,-1,0
1513175024088468,-1,0,-1,-4,-1,-3,-1,0
1513175024088468,-2,0,-2,-2,-2,-2,-1,-2
1513175024108994,-1,1,-1,-1,-3,-1,-1,-1
1513175024108994,1,0,0,-1,0,0,0,0
1513175024110996,0,-2,0,0,0,-1,0,-2
1513175024110996,-2,-1,0,-4,-3,0,-1,1
1513175024123505,0,-1,-1,0,-1,-2,0,-1
1513175024123505,0,-4,-3,-2,-2,-1,0,-1
1513175024131999,0,-1,-1,3,0,-1,0,0
1513175024131999,-2,-1,-1,-1,-1,-1,0,-2
1513175024146605,-1,-2,0,-4,-2,0,1,-2
1513175024146605,-1,0,0,-1,-2,-1,0,0
1513175024148072,0,-2,-1,-1,-1,-1,-3,0
1513175024148072,-3,-3,-1,-1,-1,-1,-1,-2
1513175024168588,-1,-2,-1,-2,0,-2,-2,-1
1513175024168588,0,-2,-3,-2,-1,0,0,0
1513175024185099,-1,-1,-1,-1,0,0,1,-1
1513175024185099,0,1,-1,0,-2,0,-2,-1
1513175024185600,0,0,-1,0,-1,-2,-2,0
1513175024185600,0,-2,-1,1,0,-2,-1,-1
1513175024192112,0,-1,-2,-2,0,-1,1,-1
1513175024192112,-1,-1,0,-2,-1,-1,-1,-2
1513175024206616,-2,-3,-1,-1,-2,0,-1,-2
1513175024206616,-2,0,-3,-2,-2,-1,-1,-1
1513175024208118,-1,1,-2,-1,-1,-2,-2,-1
1513175024208118,-2,1,-1,-2,-2,-3,0,-2
1513175024229144,0,-1,-1,0,-1,0,-1,-1
1513175024229144,-1,-1,-2,2,1,0,0,0
1513175024230645,0,-1,-2,-1,-1,0,-1,-1
1513175024230645,-1,-1,0,0,-1,-1,-2,-2
1513175024251661,-2,-1,-1,-1,-1,-4,-2,-1
1513175024251661,-1,0,0,-2,-3,-1,0,-1
1513175024253148,0,1,-3,-2,-3,-2,-1,1
1513175024253148,-2,-3,-1,-1,0,-2,0,-1
1513175024265179,-2,-1,-2,-2,-1,-2,-1,-2
1513175024265179,-2,-2,-2,-2,-2,-1,-2,-1
1513175024274161,-2,-1,-3,-2,-2,-1,0,-1
1513175024274161,0,0,-2,0,-3,1,1,-1
1513175024289174,-1,0,0,-1,-1,-1,0,-2
1513175024289174,-1,-2,-2,0,0,0,-1,0
1513175024290674,-2,-2,-1,-1,0,-3,-1,-1
1513175024290674,0,-1,0,-1,-1,-1,-1,-1
1513175024311718,1,0,-1,-1,-2,-2,-1,1
1513175024311718,-1,0,0,-1,-1,-2,-2,1
1513175024313189,0,0,-1,0,-2,-1,-2,0
1513175024313189,-3,1,0,-3,-1,0,0,0
1513175024326699,-2,-3,-2,-3,-2,0,-1,-1
1513175024326699,0,-1,-2,0,-1,-1,0,-2
1513175024328200,-2,-3,-1,0,-2,0,0,-1
1513175024328200,-1,-1,1,0,1,0,-1,-3
1513175024349229,0,-1,0,-6,-2,-1,-1,-1
1513175024349229,-1,-1,-1,0,-1,-3,-1,-2
1513175024350717,0,-2,-1,-1,0,0,0,1
1513175024350717,-1,0,-4,-1,-3,-1,1,0
1513175024371745,0,0,0,0,-1,-1,-1,-1
1513175024371745,-1,0,0,-3,-1,0,0,0
1513175024373232,-1,-1,-2,-1,-2,0,-1,-2
1513175024373232,-1,-1,-2,-1,-2,-3,-3,-2
1513175024386240,-2,-3,-1,0,1,-3,0,-1
1513175024386240,-2,-2,-3,-1,-1,-2,0,0
1513175024400250,-2,-1,-2,-2,-2,0,-2,-1
1513175024400250,-1,-1,0,-3,-1,-1,-1,-2
1513175024409257,-2,-3,-2,1,0,-1,0,0
1513175024409257,0,-1,-1,-1,1,0,0,-3
1513175024410758,0,-1,-1,-2,0,0,-1,-1
1513175024410758,-2,-1,-2,0,0,-2,-3,-1
1513175024431788,0,0,-1,2,-1,-1,-2,-1
1513175024431788,-2,-3,-1,0,0,-1,-2,-3
1513175024433297,2,-1,0,-2,-1,-2,-2,-1
1513175024433297,0,-1,1,1,-3,-1,-1,-1
1513175024446295,-3,-2,-1,-1,0,-2,-1,-2
1513175024446295,-2,-2,-3,-2,-2,0,-1,-1
1513175024452799,-1,-2,0,6,1,-1,-2,-2
1513175024452799,0,-2,-2,-1,-1,0,1,0
1513175024469300,0,-1,0,-1,-1,0,1,-1
1513175024469300,-1,-1,-3,-3,0,-2,0,0
1513175024470801,0,1,-1,-2,-2,0,0,1
1513175024470801,-2,-1,-3,-1,1,-1,-3,-1
1513175024491829,0,-1,-2,-1,0,-1,-2,0
1513175024491829,0,-2,1,-1,-1,0,-1,-1
1513175024493317,-1,-1,0,-3,-2,-3,0,-1
1513175024493317,-2,-1,0,0,-2,0,0,0
1513175024505825,-3,0,-1,-2,-1,-2,-2,-3
1513175024505825,-1,0,-2,0,0,-1,-2,-1
1513175024512830,-2,0,-2,-2,-1,-1,-1,-2
1513175024512830,0,0,0,-3,0,0,-1,0
1513175024529352,-1,-1,-1,0,-2,0,-1,-2
1513175024529352,1,-2,-2,0,-1,-2,-1,1
1513175024530843,-2,-2,-1,-2,0,-1,0,-1
1513175024530843,-1,-2,1,-1,0,0,-1,-1
1513175024551860,-1,-1,-2,0,-2,1,-1,-1
1513175024551860,-1,0,0,-1,-2,-2,-1,-1
1513175024553371,-1,-1,-2,-2,-2,-2,-2,-1
1513175024553371,-2,0,-2,-1,-1,-2,-1,-1
1513175024565871,1,1,0,0,0,-1,-2,-1
1513175024565871,1,1,0,-2,-1,0,0,-1
1513175024572888,-1,-1,-1,-1,0,-2,-2,-1
1513175024572888,-3,-3,-1,0,-2,-3,-1,-1
1513175024589385,-1,-2,-3,-1,-1,-1,-2,0
1513175024589385,-1,-3,-3,-1,0,-1,-3,0
1513175024590887,-1,0,-1,-1,0,-1,-1,-1
1513175024590887,-1,0,0,-1,-3,-1,-1,-2
1513175024611926,-1,0,-1,-1,-1,-2,0,-2
1513175024611926,0,0,-1,-2,0,0,-1,0
1513175024613403,-2,-3,-3,-1,-2,0,0,-1
1513175024613403,-2,-1,-1,-2,-1,-2,-1,-1
1513175024625935,-1,-3,0,0,-2,-2,0,0
1513175024625935,-1,0,0,-1,-2,-3,-2,0
1513175024632940,-1,-1,0,-2,-2,-1,-2,-1
1513175024632940,2,-1,-1,-2,-1,-1,-1,-1
1513175024649441,-2,0,0,0,-1,-1,1,0
1513175024649441,0,-1,-1,-1,-1,-2,-1,-2
1513175024650938,1,-2,0,0,-1,-2,-2,0
1513175024650938,-1,-4,0,-1,0,-2,-1,-2
1513175024670943,-1,-2,-1,-1,0,-2,-1,-1
1513175024670943,-1,-1,-2,-3,0,-1,-1,-1
1513175024679451,-1,-2,-2,-2,0,1,0,-1
1513175024679451,-1,-2,1,-1,-2,-1,1,-1
1513175024694470,-2,-1,-1,-1,0,-1,-1,-2
1513175024694470,1,-1,-2,-2,-1,1,0,-2
1513175024695961,-2,-3,-1,-2,0,-1,-3,-2
1513175024695961,0,-3,-1,-1,-1,-1,-1,-3
1513175024709481,0,0,-3,0,0,-1,-1,-2
1513175024709481,0,-1,-3,0,-2,0,-1,-1
1513175024710982,-2,0,-4,-1,-1,-4,1,-1
1513175024710982,-2,-1,-1,-2,0,0,-1,-1
1513175024731986,0,-2,-2,-2,-2,-1,-1,1
1513175024731986,-1,-1,-1,-1,-1,-1,-1,1
1513175024733499,0,0,-1,-2,-2,-1,-1,-1
1513175024733499,-1,1,0,1,2,0,-2,-2
1513175024745505,0,-1,-1,1,-1,-1,1,-1
1513175024745505,-2,-2,0,0,-1,-2,0,1
1513175024754511,-2,-1,0,0,0,-1,-1,0
1513175024754511,-2,0,-2,-2,-1,-3,-2,-2
1513175024769511,-3,-1,-2,-3,-2,0,-1,0
1513175024769511,-1,-2,-2,0,0,1,0,0
1513175024771012,-1,-1,-1,0,-1,-2,-1,-3
1513175024771012,-1,-1,-3,-2,-2,-3,0,-2
1513175024800056,-1,-2,0,0,-1,-1,0,-1
1513175024800056,-3,-1,0,-1,-1,-1,1,-1
1513175024802576,-1,-2,0,0,-1,-1,-2,-1
1513175024802576,0,0,-2,-2,-2,-1,-2,-2
1513175024805037,-2,-2,-2,-3,-2,-2,0,-2
1513175024805037,0,-2,-1,-2,-2,-1,-1,-1
1513175024814045,-1,0,-1,0,-2,-1,-1,1
1513175024814045,-2,-1,0,1,-1,-2,0,0
1513175024829063,1,1,-1,-1,1,-1,-1,-1
1513175024829063,-2,-1,-1,-1,-2,-2,-1,-2
1513175024830555,0,0,0,1,2,0,2,0
1513175024830555,-1,-2,1,-2,-2,-3,0,0
1513175024851571,-2,-1,-2,1,-2,0,-2,-1
1513175024851571,-1,-1,-1,-1,0,-1,0,1
1513175024853071,-2,-1,-1,-2,-2,0,-1,0
1513175024853071,0,-2,0,-2,-2,-1,-2,-1
1513175024865103,-1,-1,-1,-2,1,-2,-1,-1
1513175024865103,-1,-2,-1,0,0,-2,-1,0
1513175024874587,-2,-2,-2,-1,-2,-1,-2,-1
1513175024874587,-2,1,-2,1,-2,0,0,-1
1513175024889098,-1,0,-1,-1,-2,-1,0,-2
1513175024889098,0,-2,-1,-1,-1,-2,-2,0
1513175024890597,-1,-2,-2,0,-1,0,0,-4
1513175024890597,-3,-1,0,0,0,0,-1,-1
1513175024911629,0,-2,-1,0,-1,0,-3,0
1513175024911629,-1,-1,-1,-1,-1,-2,-1,-2
1513175024913140,0,0,0,-1,-1,-3,-2,-1
1513175024913140,0,-1,-3,-3,-4,-1,-3,-2
1513175024925123,-2,0,-1,1,0,-3,-1,-1
1513175024925123,-2,-2,-2,0,0,0,-1,-2
1513175024934129,-2,1,-1,-1,-1,-1,-1,0
1513175024934129,0,0,-1,0,-2,1,0,-1
1513175024949138,0,-3,-2,-1,-2,-1,-1,-1
1513175024949138,-2,-2,-2,-1,-2,0,-2,-2
1513175024950640,-1,-2,-2,-1,-1,0,-1,-1
1513175024950640,-2,-2,-1,-2,-1,-1,-2,-1
1513175024971659,0,0,-2,-1,-1,1,1,0
1513175024971659,-1,0,-1,-1,-1,1,-1,0
1513175024973155,-1,-1,-1,-3,-1,-1,-1,-1
1513175024973155,-2,-1,-1,1,-1,-2,-1,-1
1513175024986179,0,1,-2,-1,0,-2,-3,-1
1513175024986179,-1,0,-4,-1,-2,-1,-2,-1
1513175024994171,-2,-2,-2,-2,-2,-1,0,-1
1513175024994171,-1,1,-1,-1,0,-1,-2,-1
1513175025009195,-2,-2,-1,-2,-1,-1,-1,-1
1513175025009195,1,-2,-1,-1,1,-1,-1,0
1513175025010687,-1,-3,-2,-1,-2,0,-2,-2
1513175025010687,0,0,-1,0,-1,-1,0,-1
1513175025031711,0,-1,-1,-1,-3,-2,1,-1
1513175025031711,0,-1,-1,0,1,-1,-1,1
1513175025033202,-1,0,1,0,-3,-1,1,-1
1513175025033202,0,0,-1,-2,-2,-2,-1,0
1513175025045209,-2,0,0,-2,-1,-1,0,-2
1513175025045209,-1,-1,-2,-4,-3,-1,-1,-1
1513175025054212,-1,-1,-1,0,1,-2,-2,-3
1513175025054212,-1,-2,-1,-1,-1,-1,0,-2
1513175025069224,-1,-2,-1,0,-1,0,-1,-1
1513175025069224,-2,-1,-2,-1,-1,-2,-3,-2
1513175025070724,-1,0,-1,-1,-2,-1,-1,0
1513175025070724,-2,-2,0,-2,-1,-1,-1,-2
1513175025099260,0,-3,-1,-1,-2,-3,-1,-1
1513175025099260,-1,-2,-2,0,-1,0,-1,-2
1513175025101753,0,-1,0,-3,-1,-1,-1,-2
1513175025101753,0,-2,0,-1,-2,0,-1,-2
1513175025105256,-1,0,0,-1,-3,-2,-1,-1
1513175025105256,-2,-1,-1,0,-1,1,0,-1
1513175025114256,-1,0,-1,-1,-1,-1,-1,0
1513175025114256,1,-2,0,-1,0,-1,0,-1
1513175025129267,-1,-1,-1,-1,0,0,-2,0
1513175025129267,-1,-1,-1,-1,-1,-1,0,-1
1513175025130767,-2,-1,-1,-2,-1,-1,0,0
1513175025130767,-2,-1,-1,1,-1,0,-1,-1
1513175025151800,-2,-1,-2,1,-1,-1,-1,0
1513175025151800,-2,-3,-1,-1,-1,-2,-1,-1
1513175025153286,-1,-2,-1,-6,-2,-1,-1,-2
1513175025153286,-2,-1,-2,2,-1,-2,-1,0
1513175025174316,0,-1,-2,-2,0,-1,1,0
1513175025174316,-1,-1,-2,-1,-3,-1,-2,-1
1513175025175817,0,-2,-1,-1,-2,-1,-1,-2
1513175025175817,-3,-2,-1,-4,0,-3,-2,-1
1513175025189312,-1,-3,-1,-1,-2,-2,-1,-1
1513175025189312,-1,1,-1,1,4,0,-3,0
1513175025190810,0,1,-1,-2,-1,0,-2,-2
1513175025190810,-1,0,0,-1,-2,2,-1,-2
1513175025211824,0,-1,-1,-2,-2,-1,-2,-1
1513175025211824,0,-3,1,-2,-2,-1,0,-1
1513175025213340,-2,-1,-2,1,-1,0,-1,0
1513175025213340,-3,-1,-1,-1,-2,0,0,-1
1513175025234344,-1,-1,-1,-2,0,-2,-1,-1
1513175025234344,0,-2,-3,-3,-2,-1,-1,-1
1513175025235846,-1,-3,0,2,0,-1,-1,-1
1513175025235846,-1,0,-2,-1,-2,-2,-1,0
1513175025249370,0,-1,0,-2,-1,-3,-1,0
1513175025249370,0,0,0,-1,-1,-1,-1,0
1513175025250864,-1,0,0,-1,-2,0,-1,-2
1513175025250864,1,-2,0,-1,-1,-1,-2,-1
1513175025270884,0,1,0,0,0,0,-1,-1
1513175025270884,0,-1,-1,-1,0,0,0,0
1513175025279386,-2,-2,-2,-1,-2,-1,1,-1
1513175025279386,1,-1,1,-2,0,0,-1,-1
1513175025294395,-1,-1,-2,0,0,0,-1,-1
1513175025294395,0,-1,-2,-1,-1,-1,-2,-1
1513175025295893,-2,-1,-2,0,0,-1,-1,-1
1513175025295893,-3,-1,-2,-3,-1,-1,0,-1
1513175025308393,-1,-1,-2,0,-3,0,-1,-1
1513175025308393,0,-1,-2,0,-1,-2,1,0
1513175025315398,-1,0,-2,1,-1,-1,-2,-2
1513175025315398,-1,-1,-1,-1,-1,-1,-2,-2
1513175025331423,-1,-1,0,-1,0,-1,-1,0
1513175025331423,-2,-1,-1,-1,-1,-1,-1,-2
1513175025333450,-1,-1,-1,-1,-1,-3,-1,-1
1513175025333450,-1,-1,-1,0,-1,1,-1,-2
1513175025353928,-1,-2,-3,0,0,0,-1,-1
1513175025353928,-2,-3,-1,-1,-3,-1,-1,-2
1513175025355926,0,-2,0,0,-2,-1,-3,-1
1513175025355926,-1,-1,0,-2,0,-3,-1,0
1513175025376451,-1,-2,-2,0,-2,-1,-1,-1
1513175025376451,-1,-1,-1,-1,-1,-1,-1,0
1513175025382979,-2,0,0,2,0,0,-2,-1
1513175025382979,-2,-2,-1,-1,0,-2,0,-1
1513175025391961,-1,0,0,-1,-2,-2,-1,-1
1513175025391961,-1,-3,-1,-2,-2,-2,-2,-1
1513175025393456,-1,-1,0,-1,-1,-1,0,-1
1513175025393456,-2,-1,-1,-1,0,-2,0,0
1513175025413987,-1,-2,-1,-2,0,-1,0,0
1513175025413987,0,0,0,-2,-1,-3,-1,0
1513175025415992,-1,0,0,-2,-2,-1,-2,-1
1513175025415992,0,0,-1,0,0,0,-1,-1
1513175025428491,-1,0,-1,-1,-2,0,-2,-1
1513175025428491,-2,1,-2,0,-1,1,-3,-1
1513175025435494,-1,-2,-4,-1,-2,-2,1,-2
1513175025435494,-1,-1,-2,-2,-2,-2,-1,-2
1513175025451995,-2,-1,-2,0,-1,-1,0,-2
1513175025451995,0,-4,-1,0,-1,-2,0,-1
1513175025453495,-1,-1,-1,0,-1,-1,-1,-1
1513175025453495,-2,-3,-1,0,-2,-1,0,0
1513175025474010,-1,-2,-2,-1,0,0,-3,0
1513175025474010,-3,-1,-2,-1,-2,-2,0,0
1513175025476012,0,-2,-1,0,-1,0,0,-2
1513175025476012,0,0,0,-1,-3,1,-1,-2
1513175025488520,-1,0,1,1,0,0,1,-2
1513175025488520,-3,-1,-1,-2,1,-1,-2,-1
1513175025495531,-1,0,1,-2,-1,-1,-1,-1
1513175025495531,0,0,0,-2,0,-1,-1,-3
1513175025511561,-1,-2,-3,-1,-2,-3,-1,-2
1513175025511561,0,0,-2,3,1,0,0,0
1513175025513568,-3,-2,-2,-2,-1,-1,-1,-1
1513175025513568,-2,-2,-2,-1,-3,-1,-2,-3
1513175025534065,0,-1,-1,-1,-1,-1,-1,-1
1513175025534065,0,-3,-1,-1,-1,0,1,-2
1513175025540566,-1,1,-1,-1,-1,-3,-1,-1
1513175025540566,-2,0,0,-2,-1,-2,-1,-1
1513175025548565,-1,-2,-2,-2,-1,-1,-1,-1
1513175025548565,-2,1,-2,-2,-2,-2,-1,-1
1513175025555067,0,-2,0,-1,-1,0,-1,-2
1513175025555067,-1,0,-1,0,-1,0,-1,0
1513175025571589,0,0,1,-1,-1,0,-2,1
1513175025571589,0,-1,0,-2,0,-1,-1,1
1513175025573090,-1,-1,-2,-1,-2,-2,-2,-1
1513175025573090,-1,0,0,-1,0,-2,-1,-2
1513175025594097,0,0,-1,-1,0,1,-1,-2
1513175025594097,1,1,-3,-1,-3,-1,-1,-1
1513175025595596,-2,0,0,-1,-2,-1,1,0
1513175025595596,-1,-2,-2,-1,-1,-1,-1,-1
1513175025608656,-1,-1,-3,-1,-1,1,-1,0
1513175025608656,-2,-2,-1,0,0,0,-1,-1
1513175025615161,-3,-1,-1,0,0,0,-2,0
1513175025615161,-2,1,-1,-2,0,0,-1,0
1513175025631660,0,-1,-3,-1,-2,-2,0,0
1513175025631660,0,-2,-2,0,-1,-1,-1,-1
1513175025633158,0,-1,-1,-2,0,-2,0,-1
1513175025633158,-2,-2,-1,0,-2,-1,-1,-2
1513175025654170,-1,0,-2,-3,-1,-1,-2,-3
1513175025654170,-1,-3,-1,-1,-1,-2,-1,-1
1513175025655671,-2,-3,-1,-1,-2,-1,-1,-2
1513175025655671,0,-3,-1,-1,-2,0,-2,-2
1513175025667680,-1,-3,0,-2,0,-1,0,0
1513175025667680,0,0,-2,-2,-1,0,-1,0
1513175025676686,-1,0,0,-2,-1,1,0,-1
1513175025676686,0,-1,-2,-2,-2,-1,-1,-1
1513175025691696,-1,0,-1,0,-2,0,-1,-1
1513175025691696,-1,0,-3,0,-1,0,-2,-1
1513175025693198,-2,0,0,0,0,-2,-1,-1
1513175025693198,-1,-2,-1,-1,-1,-1,0,-1
1513175025714231,1,-3,-2,-1,-1,-3,-1,-2
1513175025714231,-1,-1,0,-1,-3,-2,-1,0
1513175025715732,-1,1,-1,-1,-1,-2,-2,-1
1513175025715732,0,-1,1,-1,-1,-1,-1,0
1513175025727724,-2,0,-1,-1,0,-3,0,-1
1513175025727724,0,-2,-1,-3,-2,-1,-2,-1
1513175025736729,-2,-2,-1,-1,-1,0,-2,-1
1513175025736729,-2,-1,-1,0,-2,-2,-2,1
1513175025751751,-1,-3,-1,-1,-1,-2,-2,-1
1513175025751751,0,-3,-1,0,0,-1,-2,-1
1513175025753240,0,-2,-1,-1,-2,-2,-1,-2
1513175025753240,-2,-2,-1,-1,0,1,1,-2
1513175025774766,-2,0,-4,0,-2,-1,-1,1
1513175025774766,-1,-1,-1,-2,-2,-1,0,0
1513175025776268,0,0,-2,0,-2,-3,-2,-1
1513175025776268,-1,2,-2,2,-1,-2,0,-1
1513175025787774,-3,-1,-2,1,0,0,-1,0
1513175025787774,-2,0,-2,-2,0,-1,0,-2
1513175025796771,-1,1,0,-3,-1,1,-1,-2
1513175025796771,-1,-2,-1,-1,0,-1,-2,-2
1513175025811782,-2,-1,1,-1,-1,-2,-1,-1
1513175025811782,0,-1,-2,1,-1,-1,-2,-1
1513175025817786,-1,-3,-1,0,-2,-2,-1,-2
1513175025817786,-1,1,-3,-1,-1,-2,0,-2
1513175025834313,1,-1,-2,0,-2,2,1,-1
1513175025834313,0,0,-3,-2,-1,-2,0,0
1513175025835798,-1,0,-1,-1,-2,-1,-2,-1
1513175025835798,0,-2,-1,-1,0,0,-1,-1
1513175025847810,0,-3,-2,-2,0,-2,-3,-1
1513175025847810,-1,-1,0,-1,0,-2,0,0
1513175025856818,-1,-1,0,-1,-2,-1,-1,-3
1513175025856818,-1,-1,0,0,0,-2,-3,-1
1513175025871846,-2,-1,0,1,0,-2,-2,0
1513175025871846,-2,-4,-2,0,-2,0,-1,-3
1513175025873347,-2,-2,0,-1,0,0,-1,0
1513175025873347,-2,0,-1,-2,-2,-2,-1,-1
1513175025894343,0,0,-1,-2,-3,-1,-2,0
1513175025894343,0,0,-1,0,0,-1,-2,-1
1513175025895841,-2,0,-1,-1,-1,-1,-2,-2
1513175025895841,-1,-1,-1,-1,-2,-1,0,-2
1513175025907851,-1,-1,-2,-2,-2,-1,-2,0
1513175025907851,-1,1,-1,-2,-2,0,-2,-2
1513175025922859,-3,-1,-3,-2,-2,-2,-1,-1
1513175025922859,-1,-2,0,-2,-2,0,-2,-2
1513175025931868,-1,-2,-2,-1,-1,-1,0,1
1513175025931868,-1,-1,-1,-1,-1,-1,-2,-2
1513175025933387,-2,-1,-1,0,-1,-2,0,-1
1513175025933387,-1,-1,0,-1,0,-1,0,-2
1513175025954382,0,-2,-2,-2,-1,-1,0,-1
1513175025954382,1,-1,-1,-2,0,-1,0,-1
1513175025955883,0,0,-1,0,-1,-1,-2,-1
1513175025955883,-2,1,0,0,-1,-3,-1,0
1513175025967897,-2,-2,-1,-2,-2,-2,-1,-1
1513175025967897,-2,-1,0,0,-2,-1,-1,1
1513175025984405,0,1,1,-1,1,-1,-1,-2
1513175025984405,-1,-1,-1,-1,-2,0,1,-1
1513175025991913,0,-2,-1,-1,1,-1,-2,0
1513175025991913,0,-1,-1,-1,-1,-2,-3,0
1513175025993414,0,-2,-1,0,-2,-2,-1,0
1513175025993414,0,-1,-2,-2,0,-4,-1,0
1513175026014438,-1,-1,-2,-1,0,-1,-2,-1
1513175026014438,-1,-1,-3,0,-2,0,0,-1
1513175026015927,-2,-1,-1,-1,-1,-1,-1,-2
1513175026015927,-1,-1,0,-2,-1,-1,-2,-2
1513175026027945,-2,1,0,0,-1,0,-1,0
1513175026027945,-1,-2,2,-1,-2,1,-2,0
1513175026036953,0,-3,0,-1,-2,-1,-1,-1
1513175026036953,1,-2,0,0,-3,-1,-2,-1
1513175026051452,1,-4,-1,-1,0,-1,-1,-3
1513175026051452,-2,-3,-3,-1,-1,-1,0,-2
1513175026053457,-1,-3,-1,-1,-1,-1,0,-1
1513175026053457,-1,-2,-1,-2,-2,0,1,1
1513175026073978,0,-1,0,-1,-1,-2,0,-1
1513175026073978,0,0,-2,-2,-1,-1,-2,0
1513175026075971,1,1,-1,0,-2,-1,-1,-1
1513175026075971,0,0,-1,0,1,-2,-1,0
1513175026096984,-1,1,-2,1,0,-2,-1,-1
1513175026096984,0,-1,-1,0,-1,-2,-1,-1
1513175026098485,-3,0,-1,-1,-2,-2,-4,-1
1513175026098485,1,1,-1,-1,-2,0,-2,-1
1513175026119514,-1,-1,0,-2,-1,0,-1,0
1513175026119514,-1,-1,-2,-1,1,0,-2,0
1513175026121005,-1,-1,0,-1,-1,1,-2,-1
1513175026121005,-2,-1,-2,0,0,-2,1,-1
1513175026134523,-1,-2,-3,0,-1,-2,-2,0
1513175026134523,-2,0,-1,0,-2,-2,0,1
1513175026140540,-3,-2,0,-1,1,-2,0,0
1513175026140540,-1,-1,0,-1,-1,1,-2,-2
1513175026156539,-1,-3,-1,-2,-3,0,0,-3
1513175026156539,-1,-1,-1,-1,-1,0,-1,0
1513175026158026,-1,-1,-1,-2,-1,-1,-1,-1
1513175026158026,-1,-1,-2,-1,-3,-3,0,0
1513175026171548,-2,-1,-4,-2,-1,-2,0,0
1513175026171548,0,-1,-2,0,-1,-1,-2,-2
1513175026173549,0,1,-1,-1,-1,-1,-1,-1
1513175026173549,-1,-1,-2,-1,0,0,0,-2
1513175026194055,-1,0,-1,-1,0,-1,-1,1
1513175026194055,-3,-2,-3,-2,-1,-2,0,-2
1513175026195553,1,-1,-2,-2,0,0,-1,-1
1513175026195553,0,-2,-2,0,-1,-2,0,-2
1513175026216568,0,0,-2,-1,0,0,-2,-3
1513175026216568,-2,1,-1,-1,0,0,-1,-1
1513175026218069,-1,-1,-1,0,-3,0,0,-2
1513175026218069,0,0,-1,-1,-1,-1,-1,-2
1513175026231578,-2,-2,-3,-2,-1,0,-1,1
1513175026231578,-1,-2,1,-1,-2,-1,-1,0
1513175026233079,-1,1,0,0,-2,-2,-1,-2
1513175026233079,-2,-2,0,0,0,-2,0,-2
1513175026254097,-1,-1,-1,0,-1,-1,-2,-2
1513175026254097,-1,1,0,-1,-1,0,-3,-2
1513175026255597,-2,-2,-1,-3,-3,-2,-1,0
1513175026255597,-1,-2,-1,-2,-1,-1,-3,1
1513175026276110,-2,0,-2,0,-2,-2,-1,-2
1513175026276110,-2,-2,-2,0,-2,-2,-1,-2
1513175026276611,0,-1,0,-1,0,-1,-1,-1
1513175026276611,0,-2,-3,-1,0,0,-1,0
1513175026290120,0,-3,-2,0,-2,-3,-2,-1
1513175026290120,0,-1,0,-1,-3,0,-3,1
1513175026298628,-1,-2,-1,0,1,-1,-1,-1
1513175026298628,-1,-1,0,-1,-1,0,-1,-1
1513175026313661,-2,-1,-1,-1,-2,-1,0,1
1513175026313661,-1,-1,0,-2,-2,-1,1,-2
1513175026314136,-1,-1,0,-1,-1,-1,-2,-2
1513175026314136,-2,0,1,0,-2,0,-2,0
1513175026335707,-1,-1,-3,-1,-1,-2,-2,-1
1513175026335707,0,-1,-1,-2,-1,-3,-1,-2
1513175026336708,-1,-1,-1,0,-2,0,0,1
1513175026336708,-2,-1,-1,-1,-1,-1,-1,-2
1513175026351718,0,-2,-1,0,0,0,0,-2
1513175026351718,-1,-1,-2,-2,-1,-3,-2,-1
1513175026358738,-1,-1,-3,0,-1,-2,1,-3
1513175026358738,0,-1,-2,0,0,-2,-2,-2
1513175026373733,1,0,-1,-1,-2,-3,-1,-1
1513175026373733,0,-3,-2,-1,0,-1,-1,-3
1513175026374233,-3,-1,-1,-1,-1,-2,-1,-3
1513175026374233,-2,-1,-2,0,-2,-1,-1,-2
1513175026395763,-2,-2,1,-1,0,-1,-1,0
1513175026395763,-1,-1,0,-1,-3,-1,-1,0
1513175026396751,0,1,-2,-1,-3,-1,-2,-2
1513175026396751,1,-1,-2,-2,0,-2,0,-2
1513175026410259,-1,-1,-2,-2,0,1,-1,-1
1513175026410259,-2,1,-2,0,-1,0,0,0
1513175026418775,-2,0,-1,-1,0,-1,-1,0
1513175026418775,0,-2,-1,0,-1,-1,-1,1
1513175026433286,0,-2,-1,0,0,0,0,0
1513175026433286,-3,0,-1,-2,0,-1,-1,-1
1513175026434293,-1,0,1,0,-3,0,0,-1
1513175026434293,0,-1,-1,-1,-1,-2,-1,-1
1513175026456307,-2,-3,0,-1,0,-1,-1,-1
1513175026456307,0,-2,-2,-1,-1,0,0,-2
1513175026456794,-3,-1,-2,-2,-3,-1,0,-2
1513175026456794,-2,-3,0,-3,0,-1,-1,-1
1513175026470331,0,-2,-1,-1,-1,0,-1,-1
1513175026470331,-2,0,-1,-1,-1,-2,1,-2
1513175026478320,0,0,0,0,1,-1,-1,-2
1513175026478320,-2,0,-1,0,-1,-1,0,1
1513175026493349,-1,0,-2,0,-1,-1,-2,1
1513175026493349,-2,-3,-1,-2,-2,-1,-1,0
1513175026494321,-1,-2,0,-2,-2,-3,-2,-2
1513175026494321,-1,-2,-1,-1,-3,-1,-2,-2
1513175026515852,1,-3,-2,-1,0,0,-1,-1
1513175026515852,0,-2,-2,-1,0,-2,-1,-1
1513175026516853,-1,-1,-1,-1,0,-1,-1,0
1513175026516853,0,0,-2,-1,-3,-1,-2,0
1513175026530845,-1,0,-1,-1,-2,-1,0,1
1513175026530845,-3,-3,0,0,-2,0,0,-2
1513175026531845,-3,-1,-1,-3,0,0,-2,-2
1513175026531845,-3,-3,-1,-1,-1,-1,1,-2
1513175026553360,0,-2,-1,-2,-2,-1,-2,-1
1513175026553360,-3,-1,0,-1,-1,-1,-1,-1
1513175026554360,0,-2,-1,1,0,-1,-1,1
1513175026554360,1,0,0,0,0,-2,-3,-1
1513175026575901,0,0,-3,-1,0,-1,-1,0
1513175026575901,0,0,-1,-3,-1,-1,-3,-2
1513175026576898,-2,-2,0,-1,-2,-2,-1,0
1513175026576898,-2,-2,-3,-2,-2,0,-2,-2
1513175026590387,-1,-1,-4,-1,-1,-2,-2,-1
1513175026590387,-2,0,-2,-1,-1,0,-2,-1
1513175026598395,-1,1,-1,0,-3,-1,0,-1
1513175026598395,0,0,-1,-1,-2,0,-2,-1
1513175026613423,0,-1,-1,-3,0,-1,-2,0
1513175026613423,0,-3,-2,-1,-3,0,1,0
1513175026614404,-1,-2,-1,-1,-1,-1,0,-3
1513175026614404,0,-1,-1,0,0,-1,-1,0
1513175026635918,-2,-2,-1,0,-1,-1,-1,0
1513175026635918,-1,-1,0,-1,-1,-2,0,-1
1513175026636919,-1,-2,-1,0,0,-1,1,0
1513175026636919,-1,0,-1,0,1,-1,1,0
1513175026650453,-2,-1,-1,-2,-3,0,-1,-1
1513175026650453,0,0,-1,-1,-1,0,-2,-1
1513175026658434,1,-2,-1,-1,-2,0,-2,-1
1513175026658434,-2,-1,0,-1,-1,-2,-1,-2
1513175026673447,-1,0,-1,-1,-1,0,0,-1
1513175026673447,-2,0,0,1,-1,-1,-1,-4
1513175026674447,-1,-2,-2,0,0,-1,-2,-1
1513175026674447,1,-2,0,0,-1,-1,-1,-1
1513175026695966,-1,-1,-2,-1,0,-1,0,0
1513175026695966,0,-1,-3,-1,-1,0,0,-1
1513175026696962,-1,1,2,-1,-1,0,0,-1
1513175026696962,0,1,-1,-1,0,-2,-1,0
1513175026710483,0,-1,-1,0,-2,0,-1,-1
1513175026710483,0,-1,0,0,-1,-2,-2,0
1513175026718489,-1,0,-1,-2,0,-1,-1,-2
1513175026718489,-2,-2,-2,-2,0,-1,-1,0
1513175026733509,-1,-1,0,-2,0,-2,-1,-1
1513175026733509,-1,-1,-1,0,-2,-1,1,-1
1513175026733989,-2,-4,0,-1,-1,0,-1,-4
1513175026733989,-1,0,2,0,-1,0,-1,-1
1513175026756003,0,-2,-1,1,-2,-1,-3,0
1513175026756003,-2,0,-2,0,-1,0,-1,-2
1513175026757006,-1,0,-3,0,-1,-2,0,-1
1513175026757006,-1,-1,-2,-3,-2,0,0,0
1513175026770568,-1,0,0,-2,0,-1,-2,-1
1513175026770568,0,0,0,-1,0,-1,-1,0
1513175026778597,0,0,-1,0,-2,-2,-2,-1
1513175026778597,-1,-1,-2,-1,-1,-1,-1,-2
1513175026793585,0,-2,-2,-1,-2,0,-1,-1
1513175026793585,-1,0,-1,-1,0,-1,-3,0
1513175026794085,0,1,0,-1,-2,-1,-1,0
1513175026794085,0,-2,-2,-1,-1,0,1,0
1513175026816101,-1,1,-1,0,-3,-1,0,0
1513175026816101,0,-1,0,-1,1,-1,0,-3
1513175026816602,-2,-2,0,-1,-2,-2,-1,-1
1513175026816602,0,0,-1,-1,-1,-2,-1,0
1513175026830111,-2,-1,-2,-2,-2,-1,-1,-2
1513175026830111,-2,0,0,0,-1,0,-1,-2
1513175026838618,-3,0,0,-1,0,0,0,-1
1513175026838618,-2,-1,-2,-1,-2,0,-1,-1
1513175026853628,-1,0,-1,-1,-1,-1,-2,-2
1513175026853628,-2,-2,0,-2,-1,-2,-1,-2
1513175026854128,0,0,-1,-2,-2,-2,-1,-1
1513175026854128,0,-1,-3,-1,-2,-2,-1,-1
1513175026884159,0,-1,-1,1,0,-2,-1,0
1513175026884159,0,0,-1,-1,-1,-2,-1,0
1513175026885151,-1,-1,-1,0,-1,0,-1,-1
1513175026885151,-1,-2,-2,0,-1,-1,0,-1
1513175026890155,-3,-2,-1,-2,0,-1,-2,-1
1513175026890155,-2,-2,-4,-2,-2,-2,-1,1
1513175026898688,-2,-1,1,-1,0,-1,-2,-1
1513175026898688,0,0,-1,-1,-1,-2,-2,-1
1513175026913673,0,-1,-1,0,-1,-1,0,-1
1513175026913673,-1,-2,1,-1,-1,-2,-1,-2
1513175026914170,0,-1,-1,-2,-2,-1,0,-1
1513175026914170,-1,-2,0,0,-1,0,0,-1
1513175026935722,-1,-1,-1,-3,-3,-2,-3,-1
1513175026935722,-2,-3,-1,0,-3,-1,-1,-4
1513175026936686,-2,0,-2,0,-1,-1,0,0
1513175026936686,0,1,0,-1,1,-1,-1,1
1513175026950261,-1,-2,-2,-2,-2,-2,1,-1
1513175026950261,0,-1,1,-1,-2,-2,-4,-1
1513175026958764,-1,-2,1,-2,0,-2,-2,-2
1513175026958764,-3,-2,-2,-1,-1,-1,-2,1
1513175026973274,0,-1,-3,-1,0,-1,0,-1
1513175026973274,-3,0,-1,-1,0,0,-1,-1
1513175026974276,-1,-1,0,-1,-1,-1,1,-2
1513175026974276,1,0,0,-2,-2,-1,0,0
1513175026995857,0,-2,-1,0,0,-1,1,-1
1513175026995857,-3,0,-2,0,-1,1,0,-2
1513175026996841,0,-2,-1,-1,-2,0,-1,-2
1513175026996841,-1,0,-1,-1,-1,1,0,-2
1513175027010369,-1,-1,-1,-3,-2,-1,-1,-1
1513175027010369,-2,-2,-2,1,-2,-1,-1,0
1513175027018374,-1,1,-1,-2,0,-1,-1,-1
1513175027018374,0,-1,0,-1,0,-1,-2,-1
1513175027033363,0,-2,-1,0,0,-1,-2,-2
1513175027033363,0,-1,0,0,-1,-2,-2,-1
1513175027034364,-1,-3,-2,-1,-3,0,0,-2
1513175027034364,-1,0,-1,-2,0,-2,-1,-1
1513175027055889,1,-1,-1,-2,-1,-1,0,-2
1513175027055889,-2,-1,-2,-2,-1,-2,0,-2
1513175027056879,-1,-1,-1,-1,-1,-2,-2,-1
1513175027056879,-1,-3,-1,0,-2,0,-1,-2
1513175027079410,-3,0,-1,-1,-1,-1,-1,1
1513175027079410,-1,0,-1,-2,0,-1,0,-2
1513175027079897,0,0,0,0,-1,-2,-3,-1
1513175027079897,-3,-2,-3,-1,-2,-1,0,0
1513175027093426,-1,-2,-1,0,0,0,-1,0
1513175027093426,-1,-2,0,-2,-1,-2,0,-3
1513175027094416,-3,1,-1,-1,-1,-2,-2,0
1513175027094416,-1,-1,0,-1,-2,-1,-2,0
1513175027115926,-1,0,-3,0,-1,-1,0,-1
1513175027115926,-1,1,-1,-4,-2,0,1,-1
1513175027116927,0,-2,0,-2,-1,0,-1,-2
1513175027116927,1,0,-1,1,1,-2,-2,-3
1513175027139938,-1,-1,-1,0,-1,-2,-1,0
1513175027139938,-1,-2,-1,-2,0,-2,-1,-1
1513175027140440,-2,-2,-1,-2,-2,-1,0,-2
1513175027140440,-2,-1,-1,-2,-1,-2,-1,-1
1513175027153448,0,-1,-1,0,0,0,-1,-2
1513175027153448,0,-1,0,0,-2,0,0,0
1513175027153949,-1,-1,-1,0,-2,-1,1,-1
1513175027153949,0,-1,1,-2,-2,1,0,-1
1513175027175963,-3,-2,-1,-2,-4,-1,-1,-3
1513175027175963,-3,-1,-2,0,0,-1,-1,0
1513175027176965,-2,0,-1,0,-1,-1,-1,-2
1513175027176965,0,-2,-2,0,-1,-2,-1,-2
1513175027200001,-1,-2,-2,-1,-1,-1,-1,0
1513175027200001,-1,-1,-2,1,-2,0,-2,-1
1513175027201483,-1,-1,-1,0,-1,-1,-1,-2
1513175027201483,0,-1,-3,-1,1,-1,-2,0
1513175027213494,-3,0,-2,-1,0,-2,-2,0
1513175027213494,0,-2,-1,-1,-2,-1,-2,-2
1513175027213992,0,0,-1,-2,0,0,1,0
1513175027213992,-1,0,-1,-1,-2,0,-2,1
1513175027236007,0,-1,-1,-1,-2,-1,0,-1
1513175027236007,-2,1,0,-1,-2,0,-1,-2
1513175027237008,-2,-3,-2,-1,-1,-1,-1,-1
1513175027237008,-2,-3,-1,-1,1,-3,-2,0
1513175027259073,-3,0,0,-1,0,-2,-1,1
1513175027259073,-1,-1,-2,-1,-1,-2,-2,-1
1513175027260074,1,-1,0,-1,-1,1,-1,-2
1513175027260074,1,-2,0,0,0,0,-1,0
1513175027273599,0,-2,-1,0,-1,-1,-3,0
1513175027273599,-2,1,-1,-3,-2,-1,-2,1
1513175027274086,-2,-2,0,-2,0,-2,-1,0
1513175027274086,0,1,-1,0,-2,-2,0,0
1513175027296113,-1,0,0,-2,0,-1,0,-1
1513175027296113,-2,-3,-1,-1,-2,-1,0,-2
1513175027296601,1,-1,0,1,-1,-1,1,-2
1513175027296601,-3,-1,-1,-2,-3,0,0,-1
1513175027319118,-1,0,-3,-1,-1,-1,0,-1
1513175027319118,-1,-1,-1,-2,-2,-2,-2,0
1513175027320118,-1,1,-2,-1,-1,-2,-1,1
1513175027320118,0,-1,-1,0,-1,-1,-1,1
1513175027333627,-1,-1,0,-1,-1,-1,-2,-1
1513175027333627,0,-2,-2,0,-1,-2,0,-4
1513175027334128,-2,-1,-2,-3,-2,-1,-1,-3
1513175027334128,-1,-3,-2,-1,-2,-2,1,-1
1513175027355697,-1,-1,-1,-2,-1,-1,-1,-1
1513175027355697,-1,-1,1,0,-1,-1,-2,-2
1513175027356697,-2,0,0,-2,0,0,-2,0
1513175027356697,-1,0,-3,-1,0,-2,-1,0
1513175027379212,-1,-2,-1,-1,-1,0,-2,-1
1513175027379212,-2,-1,0,-2,-1,0,0,-1
1513175027379703,-1,-1,0,0,-2,0,0,-1
1513175027379703,-3,-2,-1,-1,-1,-2,-2,-2
1513175027393216,-1,-4,-3,-1,1,0,-2,-2
1513175027393216,-1,0,-1,-2,-1,-1,0,-2
1513175027394213,-3,-1,-1,-2,-1,-1,-1,-1
1513175027394213,1,-3,-3,-1,-1,1,1,-1
1513175027415767,-1,-1,-1,-1,-1,-3,0,1
1513175027415767,-1,-1,-1,-1,-3,0,-1,-1
1513175027416738,-1,-1,-1,-2,0,-2,-1,-1
1513175027416738,-1,-2,-2,0,0,-1,-1,-1
1513175027439260,-1,-2,-1,-1,-1,-1,-2,-2
1513175027439260,-2,0,-2,1,-1,0,-1,-2
1513175027440251,-1,-1,0,-2,-1,-1,-1,-1
1513175027440251,-2,-2,-1,-2,0,-2,-2,0
1513175027453784,0,-2,-3,0,-2,0,-1,-1
1513175027453784,-2,-1,-1,-1,0,-3,-1,-2
1513175027454257,0,-3,-1,1,-2,-1,-1,-1
1513175027454257,0,-1,-1,-2,0,-1,0,-2
1513175027475800,0,-2,0,-2,0,1,-1,-1
1513175027475800,0,-1,-2,-1,1,-1,0,-1
1513175027476773,1,0,-1,0,-1,-1,1,-1
1513175027476773,0,-1,0,-1,0,-1,-2,-1
1513175027499289,-1,1,0,0,-1,-1,-1,0
1513175027499289,0,1,-1,0,-2,0,-3,-1
1513175027499789,-1,-3,-2,-1,-2,-1,0,-1
1513175027499789,-1,-2,-3,0,-1,0,-1,-2
1513175027513819,-1,-3,-1,-2,-1,-1,0,0
1513175027513819,-1,-1,0,0,-1,-1,-1,-1
1513175027514301,-1,0,1,-2,-2,-3,-2,0
1513175027514301,0,0,-1,-1,-1,-2,0,1
1513175027536317,0,0,1,0,-1,-2,-1,0
1513175027536317,-2,-1,0,-1,-2,-3,-1,-2
1513175027536816,0,0,-1,0,-2,0,-1,-3
1513175027536816,-1,-3,-1,-2,-1,-1,-2,-1
1513175027558340,0,-2,-2,-1,-2,-1,-1,-1
1513175027558340,0,-1,-1,-2,-1,1,-1,1
1513175027566346,-2,-1,-1,-2,-1,-1,-1,-1
1513175027566346,-1,0,0,0,-1,-1,-1,-1
1513175027573350,-2,1,-2,0,-1,-1,-1,1
1513175027573350,-1,-2,-1,-2,-2,-2,-2,-2
1513175027574340,0,-1,1,-1,0,-2,-1,-1
1513175027574340,-1,0,-3,-1,-4,1,-2,0
1513175027595874,-2,-1,-1,-1,-2,0,0,0
1513175027595874,-1,0,0,-2,0,-1,-1,-4
1513175027596857,-2,-2,-1,-1,-1,-2,0,-2
1513175027596857,-2,-2,-1,-1,-1,0,-1,-2
1513175027619374,0,-1,-2,0,0,-3,-1,-1
1513175027619374,-1,-1,-1,-1,-3,0,1,0
1513175027619873,-2,2,-1,-1,-2,-2,-2,-1
1513175027619873,-1,-1,-1,0,-2,-3,-2,-2
1513175027632906,-2,0,-2,-1,-1,-2,0,1
1513175027632906,-1,-1,-1,-2,-1,-1,-1,-1
1513175027640889,0,-2,-2,-2,-1,-3,0,-1
1513175027640889,-2,0,-1,-3,-1,-1,-1,0
1513175027655898,-1,-1,-1,-1,-2,0,-1,-2
1513175027655898,-2,-1,-1,0,1,-1,0,0
1513175027656899,-1,-2,-3,-2,0,0,0,-2
1513175027656899,0,0,0,-1,0,0,0,-1
1513175027679415,-2,-2,-2,-2,-2,-1,-1,-1
1513175027679415,-1,1,0,-1,0,-2,0,-2
1513175027679916,-1,-3,-1,-1,-3,-1,-2,0
1513175027679916,-1,-1,-3,-1,-2,-1,0,2
1513175027701433,0,-2,-2,0,-1,-3,-1,-1
1513175027701433,-2,1,-1,-1,-2,0,-1,-2
1513175027702432,0,0,-1,0,-1,-1,0,-2
1513175027702432,0,-1,-2,-2,0,-2,-2,-1
1513175027715955,-3,-1,0,0,0,-1,-1,1
1513175027715955,-3,-2,-1,-1,-3,-3,0,-2
1513175027716952,1,-2,-2,-1,-1,0,-2,-1
1513175027716952,1,-2,0,-1,-1,1,-1,-1
1513175027738957,-2,0,0,-3,-1,0,0,-1
1513175027738957,0,0,0,0,-1,-1,0,0
1513175027739968,-2,1,-2,0,-1,-1,0,-1
1513175027739968,0,-1,-1,0,-2,-3,-1,-2
1513175027761487,1,-1,-1,-1,-1,0,-1,-2
1513175027761487,-1,0,0,-1,0,0,-3,-2
1513175027762476,-1,-1,0,0,-1,-2,-1,-1
1513175027762476,-2,-1,0,-1,-1,-1,-1,0
1513175027775983,-2,-1,-2,-2,1,-2,1,-1
1513175027775983,0,-2,-3,0,0,-1,-3,-1
1513175027776484,0,0,0,-2,0,0,0,0
1513175027776484,-1,-2,-2,-1,-1,-3,-1,-2
1513175027799023,-1,0,0,-1,-2,0,-1,-2
1513175027799023,-1,-2,-1,-1,-1,1,1,0
1513175027801013,-3,-3,-1,0,-2,-1,-1,0
1513175027801013,0,0,-1,-1,0,-1,-1,1
1513175027813010,-1,0,-1,-1,-1,-4,-1,0
1513175027813010,-1,1,-1,0,-1,-2,-1,-2
1513175027821015,-2,-1,-1,-1,-1,1,-1,-2
1513175027821015,-1,-2,-4,-2,0,-1,0,-2
1513175027836526,1,-1,-1,0,0,0,-2,-1
1513175027836526,-1,-1,0,-1,-1,-3,-1,-2
1513175027837026,-1,-1,0,-3,0,-1,-2,0
1513175027837026,-1,-2,0,0,0,-1,0,1
1513175027859044,0,-1,1,-2,-2,-1,1,-2
1513175027859044,-1,-2,2,-2,-1,0,-3,-2
1513175027860046,0,-1,-2,1,-1,-4,-1,-1
1513175027860046,0,0,-1,-2,-2,-2,0,-2
1513175027872551,-2,0,-1,-1,0,-1,-2,0
1513175027872551,-2,-2,0,-2,-3,-1,0,-1
1513175027881072,-2,-1,-1,-1,0,-1,-1,0
1513175027881072,0,-2,-2,-2,-1,0,0,-1
1513175027896071,-1,0,0,0,0,0,-1,-2
1513175027896071,-2,-2,-1,-2,-1,-3,0,-1
1513175027896568,-1,-1,-1,-1,0,-2,-1,-1
1513175027896568,1,-1,-2,-2,-3,-2,0,0
1513175027919587,-2,-1,-1,0,-2,-1,0,-1
1513175027919587,0,-1,0,-2,0,-3,0,-2
1513175027920590,-2,-3,-2,-2,-1,-1,-1,-1
1513175027920590,-3,-2,-1,-1,-1,-2,-3,-3
1513175027932619,0,-1,-2,-1,-1,-3,-1,-1
1513175027932619,-1,0,0,1,-3,-1,-1,-1
1513175027941101,-1,0,0,-2,1,-3,0,0
1513175027941101,-2,-1,0,0,-1,-2,0,0
1513175027956110,0,0,-1,-2,-2,0,0,-1
1513175027956110,0,0,1,-1,-1,-1,1,0
1513175027956610,1,0,-1,-1,-1,-1,-1,-3
1513175027956610,-2,0,-1,0,0,1,-2,-2
1513175027979139,-2,-1,-2,-2,-3,0,-2,-2
1513175027979139,-2,-2,-2,1,-1,-1,-1,0
1513175027980137,0,-1,0,-1,-1,0,-2,-2
1513175027980137,1,-2,-2,-1,0,-1,-2,-1
1513175028001643,-2,-2,-1,-3,-2,-2,0,-1
1513175028001643,-3,-1,-1,-2,-1,-1,-1,-1
1513175028002645,-1,-1,-1,1,-2,0,-2,-2
1513175028002645,0,-2,-2,-1,-1,0,-1,1
1513175028015655,-2,-2,-3,1,0,1,0,-1
1513175028015655,0,0,-1,-2,0,-1,-1,-2
1513175028016653,-1,-2,-1,-1,-1,-1,0,0
1513175028016653,-2,-1,0,-1,-1,0,-1,-1
1513175028039672,0,-3,-1,-1,-2,-2,-2,0
1513175028039672,-1,0,-1,-1,-1,0,0,-2
1513175028040691,0,0,-1,0,-1,-1,-1,-2
1513175028040691,-2,-2,-1,-1,-1,0,-1,-1
1513175028061686,-1,-1,-2,-1,1,0,-2,0
1513175028061686,-1,-3,-1,0,-2,-2,-2,-4
1513175028062686,-1,-1,-2,0,-2,-1,-3,0
1513175028062686,1,-1,-2,-1,-1,0,-1,-1
1513175028076196,-1,0,-2,0,-2,-3,0,0
1513175028076196,0,-1,-2,-2,1,0,-1,-2
1513175028076697,-1,0,0,-1,0,-2,1,-1
1513175028076697,0,-2,-2,-2,-1,-1,-1,1
1513175028099213,-2,-1,-1,0,0,0,-1,0
1513175028099213,-1,0,-1,-1,-2,0,0,-1
1513175028100714,0,0,-1,-1,-2,0,0,0
1513175028100714,-1,-1,-1,-2,-3,-1,-1,-1
1513175028121743,0,-1,-1,-3,-1,-3,-2,-2
1513175028121743,-1,-1,1,0,0,-2,-1,-2
1513175028122230,0,-1,-2,-2,0,-1,-1,2
1513175028122230,-1,-1,-1,-1,-1,-1,-1,0
1513175028135739,-2,-3,-1,-1,-1,-1,-1,-1
1513175028135739,-3,0,0,-1,-2,-2,-1,-1
1513175028136745,-2,-2,-2,-2,0,0,0,-2
1513175028136745,-1,0,-1,-2,-2,-1,-1,0
1513175028159254,-2,-2,-1,-2,-1,-1,-2,-1
1513175028159254,-2,-2,1,-1,-1,-2,-1,-1
1513175028159754,-1,-1,0,-2,-2,-2,0,0
1513175028159754,-1,0,-1,0,-1,-3,-2,-1
1513175028181782,1,0,0,0,0,0,-1,-1
1513175028181782,0,-2,0,-1,-2,-1,-1,0
1513175028182272,0,-1,-1,-1,-1,0,-1,-2
1513175028182272,-1,-2,-2,-2,-1,1,-1,-2
1513175028195804,-1,-1,1,-2,-1,-1,-1,0
1513175028195804,-1,-2,-1,-1,0,-1,-1,0
1513175028203286,-1,-2,-1,1,-1,-1,-1,-1
1513175028203286,0,-2,-1,-1,-1,-2,-1,-1
1513175028219298,-2,2,-1,1,0,0,0,-3
1513175028219298,0,-1,-2,-2,-2,-1,-3,1
1513175028219800,-3,-3,-2,-1,1,0,-1,-1
1513175028219800,-2,-3,-2,-1,1,0,0,-1
1513175028241870,-1,0,0,-1,-3,-1,-2,-3
1513175028241870,-1,-1,-1,1,-1,-1,-2,-1
1513175028242335,0,-1,-3,0,-2,0,0,0
1513175028242335,0,-1,-2,-2,0,-2,-2,-1
1513175028255822,0,-1,0,-2,-1,0,-1,-2
1513175028255822,0,1,0,-4,-1,-1,-2,-1
1513175028256824,-1,0,0,0,-1,-2,-2,-2
1513175028256824,-3,-2,-1,-1,0,-1,-2,-1
1513175028279351,-1,-2,-1,0,-1,0,-1,0
1513175028279351,-1,-1,0,0,-2,0,-2,-2
1513175028279839,2,-2,-1,-3,-2,-1,-1,0
1513175028279839,0,-2,0,0,-2,-2,0,-1
1513175028301868,0,-1,-2,-2,-2,-1,0,-1
1513175028301868,-1,-1,-1,-1,1,-2,0,-3
1513175028303357,-2,-2,0,-2,-1,-1,-3,1
1513175028303357,0,0,0,-1,0,-3,-1,1
1513175028315878,0,-1,-1,-1,0,-1,-2,-1
1513175028315878,-3,-2,-2,0,-1,-2,0,-1
1513175028316866,0,0,-3,0,-2,0,0,-1
1513175028316866,-1,-1,-2,-1,-1,0,-2,-1
1513175028338882,-1,0,-1,-1,0,-2,0,0
1513175028338882,0,-1,0,0,-1,-3,0,-1
1513175028339882,-2,-1,-1,-1,0,-2,0,0
1513175028339882,-1,-1,0,-1,-2,-1,1,1
1513175028361396,-1,0,-1,-1,-1,0,-1,-1
1513175028361396,0,1,-1,-1,0,0,-3,-1
1513175028362397,-1,-1,-2,0,-1,-2,-2,-2
1513175028362397,0,-2,-2,0,1,0,-1,-2
1513175028375429,-2,-3,1,-1,-1,0,-1,-1
1513175028375429,-2,-4,-1,-2,-2,0,-2,-2
1513175028384414,-2,0,0,-1,-1,-1,-1,0
1513175028384414,-2,-1,-2,-1,-1,0,-1,-2
1513175028399925,-3,-1,-1,-1,-2,-2,-1,-1
1513175028399925,0,1,-2,-2,-2,0,0,2
1513175028402427,1,-3,-1,0,0,-1,-1,0
1513175028402427,-1,-2,-2,-2,-1,0,-3,-1
1513175028421440,-2,-2,-2,-1,0,-2,-2,0
1513175028421440,-1,0,-1,0,-3,0,1,-2
1513175028422952,0,-1,-3,-1,0,0,-2,-3
1513175028422952,1,2,-1,-1,-1,-2,0,0
1513175028435451,-1,-2,-2,-2,0,-3,-2,0
1513175028435451,-2,-2,0,-1,0,-1,-1,-2
1513175028444456,0,-2,0,-2,-1,-2,-1,-1
1513175028444456,0,-3,-2,-1,0,-2,-3,0
1513175028458966,0,0,-1,0,-3,-1,1,-3
1513175028458966,1,-3,-1,0,-1,0,-2,-1
1513175028460968,-1,-2,0,-1,-2,0,-1,-2
1513175028460968,1,-1,-2,1,0,-1,0,-1
1513175028481493,-2,0,-1,-3,0,-2,-1,1
1513175028481493,-2,-1,0,-1,-1,-1,-1,-1
1513175028483500,-1,0,0,-1,0,-1,-1,0
1513175028483500,0,0,0,-2,-1,0,-2,0
1513175028495510,-3,0,0,-1,-1,0,-1,-1
1513175028495510,-1,-1,-1,0,0,-1,-2,-1
1513175028503999,-1,-1,-2,0,0,-1,0,-1
1513175028503999,-3,-1,-1,-2,-1,-1,0,-2
1513175028519019,0,-2,-2,-1,-1,-1,-1,-2
1513175028519019,0,-1,-1,-2,-2,-1,-2,-1
1513175028521009,-2,-2,-2,-1,-2,-2,-2,0
1513175028521009,-2,-4,-2,0,0,-2,0,-1
1513175028541524,-1,-1,1,0,1,-1,-2,-1
1513175028541524,-2,-1,-1,1,-1,-1,-1,-2
1513175028543033,0,0,0,-1,-3,-1,0,0
1513175028543033,-1,0,-1,0,-2,-2,-1,1
1513175028555534,-3,-1,-1,0,-1,0,-3,0
1513175028555534,0,0,-1,-2,-2,-4,0,0
1513175028564040,-1,1,-1,1,-2,0,-2,-1
1513175028564040,-2,-2,-2,-2,-2,-1,-1,-1
1513175028579104,-1,0,0,-2,-2,-2,-1,-1
1513175028579104,-1,0,-1,0,-1,-2,-2,-2
1513175028580553,1,-1,0,-2,-2,-1,0,0
1513175028580553,0,-1,-2,-1,-2,-1,-4,-1
1513175028601567,1,-1,-2,-2,-2,-2,-1,-2
1513175028601567,0,0,-1,-2,1,-1,-1,-2
1513175028603573,-1,-1,-3,0,0,-1,0,-1
1513175028603573,-2,-2,-2,0,0,-1,0,-1
1513175028615087,0,-1,-2,0,0,-1,0,-1
1513175028615087,-2,-1,1,-1,-1,-2,1,0
1513175028624083,-2,-2,-2,-3,0,0,-1,-1
1513175028624083,-1,-1,-3,-1,-1,0,-1,1
1513175028639094,-1,0,-1,-1,-2,0,0,-2
1513175028639094,-4,-1,-2,1,-1,0,0,-2
1513175028640595,-1,1,-1,0,-1,-1,-3,-2
1513175028640595,-1,-2,-1,0,-2,-1,-2,-1
1513175028661609,-1,0,1,-1,0,-1,-2,0
1513175028661609,0,-1,0,-2,0,-1,-1,-2
1513175028663111,-2,-2,0,1,-1,-1,-1,0
1513175028663111,-2,-1,-2,-2,-2,0,0,-1
1513175028675119,-3,0,-2,-2,-2,-3,-2,-1
1513175028675119,-2,-2,-1,-1,-1,-1,-1,-1
1513175028684125,-1,-1,-2,-2,0,-1,-1,-1
1513175028684125,-2,-1,-1,0,1,-2,-2,0
1513175028699160,1,-1,-2,-2,-1,-1,0,-1
1513175028699160,-2,-1,-1,-2,-1,-1,-1,0
1513175028701650,0,-3,-1,-1,0,0,-2,-1
1513175028701650,-2,-1,-4,0,0,-1,-1,0
1513175028721652,-3,-1,-2,0,-1,-1,0,-1
1513175028721652,1,0,-2,-1,-1,-1,-1,0
1513175028723173,-1,-2,-3,-2,0,-2,0,1
1513175028723173,-1,-2,0,-2,-2,-1,-2,-1
1513175028735161,0,-1,-1,-1,-1,0,0,-2
1513175028735161,-2,-3,0,-2,-2,-2,-1,-2
1513175028744167,-1,-1,-2,-2,-1,-2,-1,0
1513175028744167,1,-2,-1,-2,-1,1,0,-2
1513175028759689,-2,-1,-2,-1,-1,-1,-1,-1
1513175028759689,0,0,-2,0,-2,-1,0,-1
1513175028761180,-1,-1,1,-1,-2,-1,-1,1
1513175028761180,0,-2,-1,-1,0,-1,-1,-1
1513175028781713,-1,-2,-1,-1,-2,-1,1,-3
1513175028781713,0,0,0,0,0,0,0,-3
1513175028783216,-1,-1,-2,0,0,-1,-1,-1
1513175028783216,-1,1,-2,0,-1,-1,-2,0
1513175028795207,-1,1,-1,-3,-1,-1,-1,-2
1513175028795207,-1,-1,-2,-1,-1,-2,-2,0
1513175028804209,-1,-4,-1,-1,0,-1,0,0
1513175028804209,-2,-1,-1,-1,-2,-3,1,0
1513175028819220,0,0,1,-1,-1,0,-3,-1
1513175028819220,-1,0,1,-1,-1,0,0,-1
1513175028820722,0,-1,-2,-2,-1,0,-1,-2
1513175028820722,-1,0,-2,0,-1,0,-1,-2
1513175028841752,-1,0,0,-1,-1,-1,-2,-2
1513175028841752,0,-1,0,-3,-1,-1,-2,-1
1513175028843255,-1,-1,-2,-2,-2,0,-2,-2
1513175028843255,-2,-2,0,-1,0,-1,-1,-1
1513175028855746,0,-1,0,0,-1,0,-1,-1
1513175028855746,0,-2,-2,0,-1,0,1,-1
1513175028864474,0,-2,0,-1,-1,-1,0,-1
1513175028864474,-1,-1,0,-1,-2,-1,-1,-1
1513175028878983,-1,-2,1,-1,-2,0,-1,-1
1513175028878983,-2,0,-1,-2,1,-2,-1,-2
1513175028880995,-1,0,-1,-1,-1,0,-2,-1
1513175028880995,2,-2,-1,-2,-2,-2,0,0
1513175028901488,-1,0,-2,-1,-1,-2,0,-1
1513175028901488,-2,-3,-2,-2,-1,0,-1,-1
1513175028903489,-1,-1,0,-2,-3,0,-1,0
1513175028903489,-2,-1,0,-2,-1,0,-1,-1
1513175028914998,-2,1,2,-1,-2,-1,0,-2
1513175028914998,-1,-1,0,0,-2,-1,-2,-1
1513175028924004,0,0,-1,0,0,0,-2,-1
1513175028924004,-1,-2,-1,0,1,-1,-2,-1
1513175028940015,-1,-1,0,-1,-1,-1,-2,0
1513175028940015,-1,1,-2,-2,-1,0,0,-2
1513175028941526,-2,0,-3,0,-2,-1,0,-2
1513175028941526,0,0,-2,-2,-2,0,0,-1
1513175028961541,-2,-1,-2,-1,-1,-2,-1,-1
1513175028961541,-1,-1,-1,0,-1,-2,-2,-1
1513175028963042,-1,-3,-1,-1,0,0,-2,1
1513175028963042,-2,0,-1,-2,-1,-1,-1,-2
1513175028984058,-1,-1,-2,0,-2,0,-1,-1
1513175028984058,0,-1,0,0,-2,-3,0,-1
1513175028985557,-1,0,0,-2,1,-1,0,0
1513175028985557,-1,-3,-2,0,0,0,0,-2
1513175029006584,0,-3,-1,-3,-3,-1,-1,-2
1513175029006584,0,-1,0,-2,-3,-3,-3,0
1513175029008085,-2,0,-2,-5,-2,0,-1,-1
1513175029008085,-2,-1,-2,3,1,-1,-1,-1
1513175029021595,-1,-1,1,5,-1,-1,0,-1
1513175029021595,-2,-1,-2,-4,-2,1,-1,0
1513175029023087,-1,0,0,2,0,0,-1,-2
1513175029023087,-1,0,-2,-7,-3,-1,0,-1
1513175029044110,-2,-1,-3,-9,-3,-2,-2,-1
1513175029044110,-1,-3,0,3,-2,-2,0,-2
1513175029045612,-1,-1,-1,4,3,1,0,0
1513175029045612,-2,0,0,-2,-1,1,-3,2
1513175029058610,-1,-1,-1,-6,-3,-1,0,-2
1513175029058610,0,0,0,0,-3,-1,-2,0
1513175029065124,0,-1,-2,0,4,0,-1,-1
1513175029065124,2,0,-3,3,-1,-1,-1,-2
1513175029081649,-1,-2,-6,-7,-3,-1,-2,-2
1513175029081649,-2,0,-1,5,3,-3,-3,-1
1513175029083146,0,1,-3,2,-3,-3,1,0
1513175029083146,-1,-1,-1,-2,0,0,-2,0
1513175029104158,-2,-1,5,-1,-2,-1,-2,-1
1513175029104158,0,-2,-11,-12,-3,1,-1,1
1513175029105644,-1,-2,0,5,-4,-1,1,-1
1513175029105644,-1,-2,-3,1,0,-1,-2,-2
1513175029118670,0,2,-4,0,2,-1,0,-2
1513175029118670,0,-2,2,-15,-2,-1,-2,-2
1513175029125175,-1,-2,-2,5,-2,-2,-3,-1
1513175029125175,-3,-2,0,1,-1,-2,0,-1
1513175029141670,-2,0,2,4,-1,-3,-1,0
1513175029141670,-2,-1,-2,-2,2,0,0,-1
1513175029143172,3,-1,-3,-7,-3,0,0,1
1513175029143172,-2,-3,1,1,2,0,-1,-1
1513175029164211,-2,0,-2,5,1,0,-1,-1
1513175029164211,0,0,2,-2,-5,-3,1,-1
1513175029165714,-2,0,-1,-6,-4,-4,-2,-3
1513175029165714,1,0,-5,-4,-2,-1,-1,-1
1513175029178758,-2,-1,2,0,0,0,0,0
1513175029178758,-3,-2,-3,-1,0,-1,-2,-2
1513175029185286,0,-1,-2,3,3,-1,-2,0
1513175029185286,0,0,7,-12,-9,-3,-1,-2
1513175029201284,-1,-2,-11,-4,-2,-2,-3,-3
1513175029201284,-1,-2,4,3,0,1,2,-1
1513175029203278,-2,-2,5,3,5,0,-1,-1
1513175029203278,0,-4,-4,0,1,-1,-2,-1
1513175029224300,-2,-3,3,-2,-3,-1,-1,2
1513175029224300,-1,1,-7,12,10,2,-1,-1
1513175029225801,1,-2,-5,-7,-4,-2,-1,0
1513175029225801,-2,-2,-2,-1,-5,-2,0,-3
1513175029238300,-3,1,-1,-5,-3,-2,-1,-2
1513175029238300,1,0,2,-7,-6,-1,-2,-2
1513175029245308,-1,-4,-10,-4,-1,1,0,0
1513175029245308,0,2,9,5,3,-1,-1,0
1513175029261817,0,-1,1,6,-1,-2,0,0
1513175029261817,0,-2,0,6,3,0,0,-1
1513175029263341,-6,-1,14,-11,-6,-3,-3,-5
1513175029263341,-3,-1,-11,1,-4,1,1,0
1513175029284354,-3,-2,-9,4,6,-1,-3,-2
1513175029284354,0,2,14,6,-5,-2,0,0
1513175029285836,0,-2,7,-3,1,-2,-1,1
1513175029285836,-2,-1,-11,-7,-1,0,-2,-1
1513175029298365,-2,0,-4,-10,-3,0,1,-1
1513175029298365,-2,-5,-9,-4,-5,-2,-2,-1
1513175029305360,2,0,-29,-17,-1,1,-1,-1
1513175029305360,-4,3,46,30,4,-3,-2,-3
1513175029321360,4,0,-16,-9,4,1,0,0
1513175029321360,-7,-6,16,4,-4,-3,-1,-4
1513175029323360,-2,-3,-17,5,-5,-3,-2,-2
1513175029323360,1,-2,-9,-12,5,0,1,2
1513175029343900,2,-1,-3,7,1,-1,0,0
1513175029343900,-4,4,3,1,0,-1,-3,-2
1513175029345888,2,2,-2,2,-6,-3,0,0
1513175029345888,1,-2,-4,-14,-5,-2,-3,-2
1513175029358395,-6,-8,22,-3,0,-2,-2,-4
1513175029358395,3,-5,-17,6,6,1,2,4
1513175029365413,-3,-3,7,16,4,-2,-2,0
1513175029365413,2,2,-5,-7,-4,-2,-2,1
1513175029381412,-1,2,5,-1,-5,-2,-3,-4
1513175029381412,-7,-9,-7,-24,-10,-2,-4,-5
1513175029383425,0,-3,3,5,8,2,0,1
1513175029383425,-1,3,7,8,1,0,-2,0
1513175029403930,5,1,-3,1,3,-1,1,3
1513175029403930,3,4,-17,1,-4,-1,0,-2
1513175029405919,-4,-4,21,-4,-1,0,-2,0
1513175029405919,-2,-10,-10,-4,-1,-2,-1,-2
1513175029426445,0,0,8,11,-3,-3,-1,0
1513175029426445,-1,-1,-8,-7,-2,-3,-2,-2
1513175029427935,-4,2,-8,-13,-7,-2,-2,-2
1513175029427935,2,0,-6,0,2,1,0,-1
1513175029441456,5,-2,1,6,3,1,2,4
1513175029441456,-3,-2,-6,-6,-3,-2,-2,2
1513175029442945,0,-2,5,2,0,-1,-2,-5
1513175029442945,-15,-5,-7,9,-2,-2,0,-5
1513175029463970,-2,3,-9,-19,-4,-1,-1,-3
1513175029463970,2,-2,7,8,2,-1,-2,2
1513175029465470,-15,-7,-6,-6,-2,-1,-1,2
1513175029465470,-2,1,-6,3,-4,-2,-2,0
1513175029477979,-3,-6,-3,-9,-4,-2,-3,-4
1513175029477979,0,6,3,5,2,-2,-3,-6
1513175029486478,6,4,-1,1,3,4,3,4
1513175029486478,12,-5,-6,-13,-5,-1,-1,4
1513175029501497,-4,5,1,3,-4,-1,-2,-3
1513175029501497,-5,-2,4,14,8,1,1,0
1513175029507500,-3,-7,0,7,-6,-3,-2,-4
1513175029507500,2,1,3,-11,-1,-3,-2,0
1513175029524011,-3,-12,-11,-14,-6,-3,-2,-2
1513175029524011,8,-1,3,-3,-3,-1,0,-1
1513175029525513,4,-6,-7,4,3,-1,-1,2
1513175029525513,-6,-3,-5,-2,-1,-2,-3,-5
1513175029538016,1,12,19,1,-4,-3,-1,-9
1513175029538016,-3,-5,-21,-5,-7,-2,-2,-1
1513175029546524,-2,5,-3,8,13,3,0,-1
1513175029546524,-6,-8,-8,-2,-5,-4,-2,-1
1513175029562054,6,7,4,4,2,0,0,-5
1513175029562054,-8,-9,21,-8,-5,-1,2,-1
1513175029564041,11,-2,-18,-6,-8,-3,-5,-3
1513175029564041,10,1,1,6,5,3,2,4
1513175029584557,-11,-1,-13,3,-1,-2,-1,2
1513175029584557,-5,5,-1,-12,-1,-2,-1,-2
1513175029590052,15,5,2,2,-5,-3,-1,1
1513175029590052,3,10,5,-4,-1,-1,-2,-1
1513175029598071,1,-4,-9,-2,-2,0,1,4
1513175029598071,-3,-5,3,10,3,0,1,-3
1513175029614067,0,13,8,3,0,-1,-1,-3
1513175029614067,-17,-5,-14,-9,-3,-1,-1,-2
1513175029621581,4,8,19,3,-1,-2,-3,-1
1513175029621581,0,-1,-16,-11,-3,-1,-2,0
1513175029623083,-17,-24,23,-4,-2,-1,-2,-2
1513175029623083,12,7,-20,3,0,2,4,1
1513175029644105,-16,-1,0,4,0,0,-3,-6
1513175029644105,3,-3,-8,-7,-1,-3,-3,-3
1513175029645593,3,4,0,-8,-7,-4,-3,-1
1513175029645593,-4,3,6,-2,2,-1,0,0
1513175029657716,12,-3,7,7,2,0,6,10
1513175029657716,-18,-16,-11,2,-3,-2,-12,-12
1513175029666711,-15,-11,-28,-14,-4,-2,0,-2
1513175029666711,-3,1,31,1,-2,-1,-4,-4
1513175029681746,-3,2,-29,7,4,0,0,-1
1513175029681746,19,24,8,0,1,-1,4,7
1513175029683247,-2,-24,-6,5,0,0,0,1
1513175029683247,9,12,25,-2,-3,-4,1,16
1513175029704238,-37,-45,-61,-14,-3,-3,-13,-13
1513175029704238,0,-1,28,1,-3,-5,-4,-2
1513175029705739,-4,12,-1,5,3,1,0,-12
1513175029705739,23,-1,20,-2,1,-1,-1,10
1513175029717746,2,14,28,4,0,0,8,3
1513175029717746,-13,14,-11,-7,-4,-2,-1,0
1513175029726752,-8,-15,-9,-12,-6,-8,5,8
1513175029726752,5,1,-1,13,0,-3,-7,-15
1513175029741762,7,-13,-10,3,1,-3,0,2
1513175029741762,-11,-10,-19,-13,-3,0,-1,-9
1513175029743280,-15,3,22,18,1,0,-9,-1
1513175029743280,-31,-29,-45,-22,-3,-2,-3,-13
1513175029764278,24,2,-10,-8,-5,-4,6,24
1513175029764278,12,5,16,9,3,1,-3,-11
1513175029765781,7,11,-11,-3,-3,-2,8,3
1513175029765781,-1,6,-11,12,2,-1,1,3
1513175029777788,-25,-6,-18,-3,0,1,-13,-24
1513175029777788,6,-22,11,-4,1,4,3,8
1513175029786795,-15,-5,31,-3,-2,-3,-3,4
1513175029786795,-10,-12,-20,4,-4,-2,6,-2
1513175029801304,-8,-10,-10,3,4,-1,-4,-23
1513175029801304,1,18,17,-1,-9,-9,4,22
1513175029803339,11,-7,-47,-13,3,4,-11,-7
1513175029803339,12,-11,-3,-8,-5,-1,7,25
1513175029824847,-8,-3,44,11,-2,0,3,4
1513175029824847,-7,-2,-82,-22,-8,-1,-3,-28
1513175029826328,8,27,19,6,-2,-1,3,1
1513175029826328,32,11,-4,12,11,5,-14,8
1513175029846336,9,-6,34,-10,-4,0,4,17
1513175029846336,-32,-28,-29,17,6,3,4,-4
1513175029848342,-7,-1,-29,-12,-5,-1,-11,-8
1513175029848342,1,-7,-8,-6,-4,-2,-3,-16
1513175029861357,5,40,22,8,0,3,18,-1
1513175029861357,-1,-4,64,-3,1,1,11,13
1513175029863365,24,-3,-38,-18,-7,-7,-11,-8
1513175029863365,-49,-41,-23,-15,-4,-4,-20,-25
1513175029883863,10,30,38,6,-6,-6,-11,-1
1513175029883863,30,30,-32,14,10,7,37,17
1513175029885865,10,-25,21,1,-1,-3,-22,3
1513175029885865,-24,26,-12,-11,-2,-3,-7,-22
1513175029922891,-2,-43,6,9,0,-1,4,0
1513175029922891,-13,-1,-1,-32,-10,-4,15,17
1513175029924393,-4,24,32,8,0,-2,-25,-1
1513175029924393,34,30,-23,26,6,1,-4,-40
1513175029925407,-33,-60,-12,-3,-2,-1,-14,16
1513175029925407,18,46,46,13,6,6,5,8
1513175029929425,2,-12,-4,11,10,6,14,-24
1513175029929425,1,11,0,-6,-4,1,0,16
1513175029944415,7,17,-8,8,7,5,19,-10
1513175029944415,-7,2,35,26,-2,-4,-28,-22
1513175029945908,-19,-37,36,-24,-8,0,33,14
1513175029945908,20,16,5,10,7,5,-3,11
1513175029967942,9,39,56,6,4,4,-7,-42
1513175029967942,-38,-89,-95,-34,-15,-8,-8,20
1513175029969925,10,51,56,6,-8,-5,0,-2
1513175029969925,-21,-13,-19,3,6,0,22,14
1513175029981445,38,45,19,-9,1,1,-10,15
1513175029981445,2,-23,-8,16,3,-9,-25,-28
1513175029982941,-13,42,-21,-12,1,4,13,-18
1513175029982941,37,-17,32,-11,-10,-6,13,35
1513175030011453,-43,-13,-16,-10,-12,-9,-13,-10
1513175030011453,5,0,-48,-4,-1,1,5,-8
1513175030012954,-10,-17,-6,-7,-3,-4,-2,-13
1513175030012954,-6,-35,-26,13,6,1,17,28
1513175030033992,39,19,19,-7,-2,-3,-13,0
1513175030033992,7,-18,22,10,9,4,-7,30
1513175030035483,-21,-4,-21,-7,-9,-7,-11,-1
1513175030035483,2,13,48,9,-2,-3,-8,-40
1513175030040977,-21,-26,-122,-45,-11,-8,12,-5
1513175030040977,13,16,16,20,-3,-1,-8,5
1513175030047489,2,10,23,4,14,2,-12,-7
1513175030047489,-25,-33,-18,6,-4,3,19,4
1513175030064000,-18,2,23,-4,-5,-8,-23,-19
1513175030064000,12,55,51,8,11,2,-2,-24
1513175030065493,8,-13,-52,-30,-15,0,7,36
1513175030065493,-29,-11,38,5,-6,-5,-2,-17
1513175030086586,-19,-11,-21,11,0,-2,-2,5
1513175030086586,7,-11,0,-37,-5,0,-3,-5
1513175030088072,15,18,30,42,4,-2,11,15
1513175030088072,-5,-7,-6,-8,-4,3,9,-17
1513175030101096,11,-22,-100,-8,9,0,9,24
1513175030101096,2,-27,-9,-21,-11,-6,-8,-14
1513175030107584,-19,-22,-50,-25,1,0,-2,33
1513175030107584,-2,9,-4,6,-1,-1,6,10
1513175030124105,-1,25,75,28,0,2,-9,-23
1513175030124105,-9,-22,-1,30,11,4,6,-7
1513175030125607,34,-23,-58,-1,9,5,4,-7
1513175030125607,-5,44,65,-12,-10,-4,-9,1
1513175030146614,9,-4,7,-12,-3,-1,-15,16
1513175030146614,-11,3,-23,9,-1,0,23,-17
1513175030148113,20,23,38,12,0,-1,-36,4
1513175030148113,-1,-51,-20,-12,-6,-5,-16,-5
1513175030161122,28,36,7,-6,-3,-5,8,13
1513175030161122,-6,13,32,7,-5,-10,-19,-9
1513175030167652,-14,-56,-13,7,6,4,16,-38
1513175030167652,4,-11,-81,-2,14,6,-6,39
1513175030184160,17,28,-5,-2,-5,6,22,9
1513175030184160,-23,-5,-4,-9,-8,-4,-17,-18
1513175030185662,-6,12,13,23,5,5,27,23
1513175030185662,-7,-5,19,-16,1,-7,-32,-39
1513175030206654,-1,-16,-43,-5,0,-1,12,-4
1513175030206654,12,13,45,18,-1,5,11,41
1513175030208156,-29,-43,-10,-19,1,-5,-4,-12
1513175030208156,-3,27,40,33,-1,4,15,5
1513175030229171,12,-12,-1,-7,10,7,1,-12
1513175030229171,-25,16,2,1,5,2,8,-20
1513175030230674,29,-5,-36,-7,-8,-3,-8,34
1513175030230674,-6,-17,45,-1,1,-3,-1,-11
1513175030244691,-38,-33,-19,-12,-12,-12,-16,-6
1513175030244691,14,31,37,14,7,6,1,-4
1513175030246192,28,55,35,20,11,9,34,16
1513175030246192,-23,-24,-30,-33,-7,-1,-12,-11
1513175030266711,-4,-11,67,28,4,0,-9,-25
1513175030266711,-6,-18,14,-2,3,-2,-7,21
1513175030268212,13,37,-31,-11,-9,-4,0,-25
1513175030268212,-1,-29,-43,-27,-18,-6,8,12
1513175030280709,-9,-8,38,3,4,-2,-4,-14
1513175030280709,17,-2,-77,-3,15,4,3,15
1513175030287714,0,-20,2,28,21,3,-2,13
1513175030287714,12,-2,27,12,2,1,4,-13
1513175030304227,-3,-40,5,9,1,1,-11,15
1513175030304227,-20,-13,-45,-42,-30,-17,-22,-16
1513175030305736,-8,12,24,-3,4,0,-5,-7
1513175030305736,10,9,-48,-8,5,2,5,5
1513175030334256,-9,16,34,2,-2,-2,24,5
1513175030334256,32,-8,4,10,-3,0,-7,45
1513175030335756,-11,22,10,2,-11,-8,-13,-18
1513175030335756,8,38,26,-12,-8,-4,-13,-23
1513175030340760,-19,-9,13,-14,-13,-4,-10,-23
1513175030340760,9,0,-26,9,15,5,1,21
1513175030355259,6,-7,7,-7,-5,2,8,-33
1513175030355259,-3,-33,-17,9,-1,-1,23,78
1513175030363778,-10,31,15,10,1,-3,-35,-26
1513175030363778,-9,-32,-9,-14,-5,-3,5,-17
1513175030365780,2,6,57,24,4,4,-17,-16
1513175030365780,9,14,-78,-9,0,-4,-22,-13
1513175030386793,-20,-47,2,-5,-5,-4,12,6
1513175030386793,31,60,75,-2,1,-7,-18,1
1513175030388284,-50,-60,-51,-21,-14,-1,6,13
1513175030388284,-6,-1,12,13,10,-3,7,-8
1513175030400801,33,24,-29,-8,0,6,-8,6
1513175030400801,1,-12,-2,20,-26,-4,8,6
1513175030409298,25,-10,-28,-15,29,8,7,7
1513175030409298,-18,22,10,-20,-7,-4,14,-21
1513175030424308,-1,-4,59,13,1,-2,-32,-2
1513175030424308,-24,-60,-69,-24,-8,-1,15,-10
1513175030425831,-1,26,-26,-26,-30,-14,-14,-3
1513175030425831,-11,-46,30,11,6,3,-6,-8
1513175030446333,13,29,-30,-15,-2,-3,16,15
1513175030446333,29,22,14,-3,-1,2,8,-1
1513175030448344,-40,9,-17,8,-9,-12,-9,-26
1513175030448344,14,14,-6,-18,-3,-3,-9,2
1513175030460343,3,30,61,25,7,1,7,-5
1513175030460343,-22,-40,-73,-6,5,3,6,-22
1513175030469349,20,-7,-18,2,5,2,-3,35
1513175030469349,-27,-3,14,-4,-5,-5,-15,-23
1513175030491356,9,20,-19,0,-1,-1,9,10
1513175030491356,0,17,37,-5,4,-9,-5,-13
1513175030493360,-13,37,84,19,2,5,-13,4
1513175030493360,2,-15,-57,-4,-5,2,5,10
1513175030506866,-4,-60,-37,-6,-2,-1,-7,-10
1513175030506866,-12,29,-28,-29,-3,-5,-8,-8
1513175030508367,15,5,40,-2,-9,-2,15,26
1513175030508367,10,31,33,6,-1,-6,-14,-32
1513175030520376,19,6,-57,6,7,6,36,52
1513175030520376,-8,6,6,1,-2,0,-10,7
1513175030529382,-3,-43,-18,7,1,-1,4,-7
1513175030529382,26,43,6,-13,-8,-5,18,-6
1513175030543893,3,-1,-11,-12,5,3,-14,-15
1513175030543893,-19,-2,52,17,6,2,0,-13
1513175030545895,-1,-25,-38,-4,-1,-1,-14,-11
1513175030545895,-11,-31,-37,-7,-7,1,7,9
1513175030566928,-9,22,-27,18,5,-1,0,-7
1513175030566928,18,-54,13,-13,-5,3,3,1
1513175030568930,-11,11,-18,-2,3,0,7,-16
1513175030568930,2,4,59,16,5,0,-34,2
1513175030580419,-14,-49,27,-17,-4,-3,2,-4
1513175030580419,-9,-20,-69,3,1,5,-8,-13
1513175030588924,-26,3,20,2,-7,-5,16,16
1513175030588924,28,48,12,-13,-8,-4,-2,13
1513175030603935,-15,-4,20,5,6,0,-2,-1
1513175030603935,-2,42,107,22,7,4,8,2
1513175030605436,1,-44,-29,-26,-24,-7,-10,-23
1513175030605436,-1,-3,-41,36,27,6,1,11
1513175030626450,-9,16,26,-13,-7,-6,-10,-11
1513175030626450,19,32,5,-4,0,5,6,20
1513175030627951,28,24,14,11,6,4,14,8
1513175030627951,32,22,50,-4,-7,0,-11,1
1513175030639960,-22,-34,-105,-6,1,4,17,11
1513175030639960,-4,7,-1,-4,0,-2,-8,-20
1513175030649470,-5,-19,-66,-2,-1,-3,-2,7
1513175030649470,12,9,33,24,9,9,33,24
1513175030664010,11,45,-29,-33,-15,-4,-3,14
1513175030664010,-1,-40,9,3,-3,-7,-41,-8
1513175030665479,-1,29,32,15,7,-2,-4,-30
1513175030665479,-11,-28,10,-13,-2,3,-8,-30
1513175030686508,1,-38,-54,0,-2,0,15,24
1513175030686508,6,8,55,3,-2,-7,3,14
1513175030687995,-6,-51,-28,-11,2,2,-9,-8
1513175030687995,-7,18,9,5,-6,-7,-13,-3
1513175030700503,45,0,-7,31,10,6,-14,-9
1513175030700503,-21,-15,-36,-40,-8,-1,9,-9
1513175030709013,-14,-23,6,-9,-7,-2,3,12
1513175030709013,-4,32,-4,-2,3,1,8,4
1513175030724044,14,7,12,-3,-7,2,6,-3
1513175030724044,-30,-33,15,36,2,-8,-16,-9
1513175030725546,12,28,20,-26,5,3,0,-1
1513175030725546,-21,3,27,18,7,3,10,13
1513175030746552,-6,-1,-19,-17,-4,3,19,0
1513175030746552,10,-2,-7,19,10,2,-3,-10
1513175030748037,-22,64,-24,-10,-10,-2,-3,6
1513175030748037,-24,-50,40,-22,-12,-12,-13,-12
1513175030760046,12,70,59,26,8,-4,-23,-9
1513175030760046,-2,-22,-59,-27,-6,1,10,10
1513175030769052,21,3,14,20,8,5,0,2
1513175030769052,8,13,-18,-4,-4,-1,11,8
1513175030784078,-54,6,57,-12,-7,-5,-12,-8
1513175030784078,18,18,-97,1,0,3,5,-6
1513175030785579,10,-15,78,27,2,-6,-16,-14
1513175030785579,-16,-4,-48,-30,-8,-1,9,7
1513175030806578,20,21,71,1,-2,4,42,21
1513175030806578,5,14,-45,7,-5,-4,-58,-35
1513175030808088,13,-33,59,-15,5,2,3,21
1513175030808088,6,28,-13,13,5,2,-6,-22
1513175030829114,-14,-74,-35,-15,-9,-5,2,12
1513175030829114,19,62,74,-1,4,3,24,17
1513175030830615,-5,7,12,3,-10,-9,-7,-12
1513175030830615,-1,-8,-39,3,-11,0,-18,-3
1513175030844609,9,-9,26,6,4,0,-4,-1
1513175030844609,1,19,42,-10,9,1,21,7
1513175030846118,-7,0,-77,-13,-5,-5,-4,-20
1513175030846118,19,-4,22,3,2,1,-2,31
1513175030866641,-6,34,17,0,-10,-6,-13,-22
1513175030866641,-21,-62,-30,-12,-1,-1,1,-3
1513175030868122,29,47,78,6,3,1,9,4
1513175030868122,-12,-27,-120,11,-3,-2,0,-17
1513175030889136,-25,-8,-19,-27,-6,-5,-9,-25
1513175030889136,14,15,22,16,1,2,-9,18
1513175030890651,-25,8,-20,-11,-1,-5,6,-3
1513175030890651,-7,16,99,2,-3,0,-1,14
1513175030904147,-5,-28,-87,-16,-4,-6,-16,-6
1513175030904147,3,3,-6,-2,-1,-2,12,8
1513175030905649,-1,-37,-4,6,-7,-8,-13,-10
1513175030905649,-16,19,20,-2,-1,-2,1,-13
1513175030926683,17,4,6,-12,0,1,4,12
1513175030926683,-7,-44,-41,-11,-12,-7,4,-1
1513175030928167,-21,-23,-4,14,4,5,-4,3
1513175030928167,10,21,-9,-3,5,0,2,5
1513175030949205,0,-10,-13,0,-2,0,4,1
1513175030949205,2,-6,21,1,-5,-4,13,21
1513175030950706,-6,-42,-35,-15,-13,-5,-32,-35
1513175030950706,-28,-34,-51,-12,5,-4,-8,-7
1513175030971695,14,2,13,16,7,6,3,7
1513175030971695,-21,1,-25,0,1,0,-2,-9
1513175030973196,6,43,43,17,8,7,26,24
1513175030973196,65,13,19,5,2,2,-15,-8
1513175030986706,-17,-45,-40,-1,-6,-6,-10,17
1513175030986706,-21,10,76,18,3,3,5,-6
1513175030988208,8,18,-12,-24,-2,0,0,-7
1513175030988208,-11,-45,-25,-3,-7,-5,0,-14
1513175031009222,-10,-15,-5,2,16,5,0,-9
1513175031009222,11,13,3,2,-3,-3,-10,-1
1513175031010722,-5,-16,-4,-15,-6,-3,2,20
1513175031010722,-3,3,24,7,-1,0,0,1
1513175031023231,-3,-20,-31,-1,-10,-4,-2,-11
1513175031023231,0,24,19,9,4,-1,-1,0
1513175031030236,-5,-11,-54,-7,-6,-4,-7,-8
1513175031030236,-34,-15,8,-14,-5,0,26,2
1513175031046748,12,23,68,22,-2,-6,-33,-6
1513175031046748,7,4,-32,-24,-4,1,-3,-17
1513175031048252,4,6,3,6,0,-4,-4,12
1513175031048252,3,16,-1,14,2,2,16,-1
1513175031069263,-18,41,-18,-36,-7,-2,-7,3
1513175031069263,-12,-35,30,18,1,-2,-1,1
1513175031070766,9,16,55,26,6,2,5,5
1513175031070766,-12,-27,-83,-26,-1,-1,-9,-2
1513175031083275,30,64,98,39,9,3,12,-3
1513175031083275,34,18,-24,-30,-6,-1,0,15
1513175031090278,-19,-21,-13,15,3,-1,-5,-15
1513175031090278,3,-7,12,-6,1,1,15,-2
1513175031107303,5,4,19,16,7,-1,-12,-2
1513175031107303,6,25,-6,-2,-1,-1,-20,-11
1513175031108792,-6,4,-12,0,-1,-1,-1,5
1513175031108792,1,-19,5,10,-1,-2,4,11
1513175031128815,-16,-22,-64,-22,-9,-6,-10,-11
1513175031128815,-21,2,-36,-16,-9,-6,0,-5
1513175031130817,4,12,15,7,1,0,-8,-13
1513175031130817,14,65,37,9,-1,-4,-16,-4
1513175031143319,-22,-40,-28,-11,0,3,18,-32
1513175031143319,-15,-8,-13,-10,-4,1,39,43
1513175031157826,12,-1,11,-14,-7,-11,-67,-15
1513175031157826,-6,20,39,5,-8,-2,-2,4
1513175031166345,8,-17,-13,19,12,-1,4,-8
1513175031166345,-3,-10,15,-2,1,3,-1,-43
1513175031168347,-7,12,-42,-14,-4,0,28,39
1513175031168347,7,-6,49,10,0,-4,-25,-8
1513175031189349,14,35,36,7,-5,0,5,37
1513175031189349,-19,-55,-19,-33,-9,-7,-3,1
1513175031190856,10,7,-46,-1,3,0,-12,-18
1513175031190856,-36,8,-31,-6,-4,-4,-5,-33
1513175031203430,-10,-47,-24,-22,-12,0,17,17
1513175031203430,11,-4,8,14,-1,-4,-11,-2
1513175031210389,-1,41,100,35,18,11,23,1
1513175031210389,-8,-16,-85,-71,-23,-11,-14,29
1513175031226400,-12,-8,-10,-6,-6,-1,26,7
1513175031226400,32,-4,1,13,1,1,-11,-5
1513175031228401,-2,-10,38,4,-5,1,2,5
1513175031228401,-7,-14,18,0,9,4,23,-5
1513175031248900,8,13,0,-10,-3,-1,-17,-24
1513175031248900,8,33,16,12,2,-3,-8,18
1513175031250402,-15,-36,21,10,2,-4,7,-4
1513175031250402,22,2,-57,-10,1,3,7,15
1513175031262401,-11,-49,-52,-8,-5,-1,12,-11
1513175031262401,-7,23,37,20,5,4,-23,-28
1513175031271908,-7,-26,-41,-37,-7,-5,-3,1
1513175031271908,6,-51,-25,13,-4,-1,-2,-13
1513175031286427,-2,33,101,12,2,-2,16,-24
1513175031286427,9,38,11,22,9,8,10,33
1513175031288419,14,-44,-111,-10,-4,-2,4,29
1513175031288419,-27,-19,5,-4,-1,3,-15,-48
1513175031308942,-3,-37,-35,-21,-8,-4,-13,3
1513175031308942,4,8,36,28,12,2,27,12
1513175031310452,-13,-3,19,-17,-7,-9,-21,-38
1513175031310452,12,2,52,13,-3,-2,7,23
1513175031322958,3,17,-18,-9,0,1,-9,16
1513175031322958,-4,-7,-19,5,7,2,2,-3
1513175031331452,2,-4,-25,2,-4,3,-1,3
1513175031331452,-3,-28,24,12,4,1,-2,-19
1513175031346963,-8,-5,3,-32,-16,-10,-6,-4
1513175031346963,16,14,33,16,6,2,-3,10
1513175031348461,-30,-24,-42,-11,-3,4,15,-38
1513175031348461,11,10,10,-3,4,2,0,33
1513175031369032,19,23,7,8,-2,-2,-7,16
1513175031369032,-23,-49,-83,-39,-11,-4,4,-1
1513175031370478,25,24,24,17,5,2,7,0
1513175031370478,1,29,22,12,5,0,-2,-21
1513175031382508,16,-43,10,4,4,4,-9,17
1513175031382508,-17,24,-26,-14,-13,-8,0,-12
1513175031391492,15,20,22,10,-1,-1,-5,7
1513175031391492,26,8,27,2,0,1,14,34
1513175031406502,-24,-36,-50,7,5,2,-8,-35
1513175031406502,20,-22,2,-10,-6,-5,-7,-5
1513175031408003,-24,25,27,-2,-2,-1,4,20
1513175031408003,-4,-9,-42,1,1,1,-2,-3
1513175031429047,-8,8,15,-1,-2,-1,-1,-8
1513175031429047,12,-5,2,4,2,3,11,9
1513175031430519,-1,31,5,-4,-5,-6,-28,-12
1513175031430519,-12,-14,-22,-7,-7,-4,9,-3
1513175031442530,-7,12,19,12,8,3,-5,-2
1513175031442530,-11,-37,-6,-15,-11,-2,-2,-9
1513175031451534,9,11,30,10,5,2,2,18
1513175031451534,-10,6,7,-1,0,-4,-7,-17
1513175031466581,13,14,17,13,3,1,-3,-2
1513175031466581,-11,2,-16,-6,-2,2,0,13
1513175031468082,-11,-31,-28,-8,-3,-1,32,5
1513175031468082,8,43,48,6,0,3,-25,-3
1513175031489060,10,7,-28,0,1,-4,6,-14
1513175031489060,-26,-17,-40,-16,-8,-5,-13,12
1513175031490569,26,2,-6,-17,-1,-1,-3,3
1513175031490569,-28,3,45,31,7,2,7,-7
1513175031502573,0,15,-45,-14,-5,-4,-10,-17
1513175031502573,-4,15,5,10,4,2,11,7
1513175031511577,-8,-28,-22,-16,-5,1,-4,-12
1513175031511577,-5,-21,-1,6,3,0,2,9
1513175031526599,17,63,57,5,-3,2,-7,3
1513175031526599,-12,-53,-50,-23,-7,-7,-7,-28
1513175031528088,-2,16,70,42,15,5,3,3
1513175031528088,-1,-31,-2,-34,-9,0,-5,-3
1513175031556609,-7,6,-11,25,13,1,4,4
1513175031556609,14,23,-32,-10,-3,3,2,14
1513175031558110,-7,-8,17,2,-5,-4,-22,-19
1513175031558110,3,-23,-20,-1,0,-4,-4,20
1513175031562612,-15,-38,-4,-15,-8,-3,-4,-21
1513175031562612,8,49,60,20,6,2,2,2
1513175031571620,-25,-23,-40,-18,-9,-6,3,-3
1513175031571620,-13,23,-49,-15,-6,-3,-1,-3
1513175031586687,-19,-52,-24,9,-3,-5,-3,5
1513175031586687,22,-2,-23,-34,-5,-6,-20,-23
1513175031588141,15,14,43,4,-1,8,27,21
1513175031588141,-9,10,-46,-4,1,1,20,-4
1513175031609146,6,23,9,12,8,5,-24,2
1513175031609146,3,-9,29,27,3,-5,-4,0
1513175031610647,-6,-41,-31,-20,-7,0,0,4
1513175031610647,12,20,5,15,6,1,-6,-19
1513175031622668,11,35,32,-13,-8,-5,17,22
1513175031622668,-6,-69,-12,6,6,4,7,11
1513175031631661,2,23,-23,-2,3,1,-7,-18
1513175031631661,-7,-24,17,-1,-10,-5,-1,27
1513175031646675,3,0,-13,-1,9,3,-3,-6
1513175031646675,1,39,35,15,2,2,6,5
1513175031648176,3,4,-29,-5,1,1,5,-7
1513175031648176,-5,-13,-25,2,-5,-6,-15,-21
1513175031669219,4,-11,-9,-6,-6,-2,13,9
1513175031669219,-3,49,56,-3,-1,3,11,3
1513175031670721,0,-9,-11,10,-1,-7,-4,0
1513175031670721,5,40,-26,-15,-4,0,0,-1
1513175031682744,-7,-49,-16,-6,-3,-1,6,7
1513175031682744,-26,-37,-12,-6,-1,-4,-18,-24
1513175031691744,-7,8,14,7,-2,-4,-3,-3
1513175031691744,18,12,54,19,5,2,-1,11
1513175031706749,-14,23,10,1,-2,1,5,-18
1513175031706749,8,13,-47,-9,-1,3,5,3
1513175031708247,0,7,26,13,4,2,12,4
1513175031708247,-37,-62,23,-14,-4,-5,-10,-3
1513175031729271,18,24,-26,-3,1,3,-1,25
1513175031729271,0,3,50,27,6,3,0,-20
1513175031730785,-14,-11,-23,-28,-13,-6,8,8
1513175031730785,3,-3,-3,-8,1,3,-29,-42
1513175031742790,4,25,32,10,4,5,11,34
1513175031742790,-13,-13,-12,-26,-18,-11,-15,-18
1513175031759328,4,-7,-14,5,1,2,11,11
1513175031759328,1,10,-19,-12,-6,-6,-14,-2
1513175031766333,9,-15,-12,5,1,-2,1,-12
1513175031766333,-18,-11,-1,11,6,-1,-21,21
1513175031768335,17,71,68,-1,-3,-3,-10,-16
1513175031768335,5,-8,-27,-7,-6,-6,5,12
1513175031788848,-20,-17,-64,-23,-7,-5,-11,-4
1513175031788848,8,5,58,11,1,2,20,5
1513175031790852,-8,-17,-85,-20,-7,-4,-16,-23
1513175031790852,10,13,31,6,7,7,13,22
1513175031811377,8,2,72,6,-6,-5,1,-5
1513175031811377,-10,-12,-23,0,2,-1,1,-11
1513175031813378,7,-2,3,9,2,2,-4,8
1513175031813378,4,12,12,29,9,4,6,-2
1513175031826375,6,-17,-59,-42,-17,-10,2,-2
1513175031826375,-5,-1,10,0,0,2,-7,-6
1513175031827876,14,4,29,3,4,-1,-17,8
1513175031827876,-16,-30,-40,-7,-1,2,7,21
1513175031856406,-9,22,40,2,-6,-10,-5,-33
1513175031856406,4,-23,-61,-19,-7,-1,-2,2
1513175031857907,2,15,23,6,1,0,-6,4
1513175031857907,13,44,-9,5,-3,-2,4,14
1513175031871409,-23,-50,5,-9,-4,3,-2,-10
1513175031871409,15,5,28,16,6,1,8,10
1513175031872908,-41,-41,0,16,3,-1,18,0
1513175031872908,-1,-19,31,-32,-10,-9,-33,-23
1513175031885936,13,42,3,16,10,9,5,7
1513175031885936,-1,-10,28,-3,-7,0,-3,-16
1513175031892425,-4,4,-47,-17,-1,-5,-2,5
1513175031892425,8,13,13,24,3,-1,4,-6
1513175031908934,-1,-1,-5,2,4,0,-4,7
1513175031908934,-11,-15,-70,-10,-5,-1,13,-5
1513175031910436,-10,-18,-9,-3,0,0,-8,-4
1513175031910436,13,21,4,7,-2,-2,6,-4
1513175031931451,-22,-16,-29,1,0,-4,-7,-18
1513175031931451,15,13,41,2,-1,-3,9,22
1513175031932973,21,26,17,6,0,2,8,12
1513175031932973,-26,-47,-37,-13,-5,-5,-21,-18
1513175031945976,32,32,36,29,9,8,14,16
1513175031945976,2,-17,-15,5,1,-7,-29,-27
1513175031952465,-51,-21,-10,-34,-11,0,4,13
1513175031952465,19,15,75,1,1,0,1,-5
1513175031968990,-2,13,-78,6,-1,-1,-6,10
1513175031968990,12,19,37,-12,-3,-2,0,5
1513175031970495,22,-11,34,24,9,3,-11,-18
1513175031970495,-12,-4,-89,-19,-8,0,33,21
1513175031991495,-16,-8,35,-1,-1,0,-2,9
1513175031991495,-9,1,-12,1,-1,-5,-14,-45
1513175031992994,-4,-51,-44,-6,-10,-5,7,-3
1513175031992994,5,56,68,-20,-10,-2,1,3
1513175032006016,1,-38,-28,20,11,5,-6,12
1513175032006016,-20,-8,-47,-47,-18,-9,-14,-21
1513175032012517,4,8,-7,0,2,3,22,35
1513175032012517,-12,-15,-12,1,0,-5,-24,-20
1513175032029021,4,27,43,-16,-9,1,20,-15
1513175032029021,14,9,18,16,11,4,-8,29
1513175032030520,-6,-22,-25,2,3,0,-19,-11
1513175032030520,-1,-2,5,-1,-2,-2,-3,-26
1513175032051602,-2,3,41,27,8,3,17,33
1513175032051602,4,-2,-76,-17,-3,4,19,7
1513175032053058,3,-15,17,8,-2,-4,-13,-3
1513175032053058,6,53,72,12,3,-1,-5,-17
1513175032065561,-17,-87,-90,-19,-7,-6,-12,-27
1513175032065561,27,64,52,10,0,0,14,32
1513175032072566,-17,15,32,7,-1,-2,-8,-9
1513175032072566,-3,-31,-54,-18,-7,-2,7,1
1513175032089078,6,26,41,2,-3,-9,-18,-15
1513175032089078,-4,-2,-6,17,4,0,-13,17
1513175032090578,16,12,16,-35,-7,-1,17,2
1513175032090578,-18,-12,-7,-2,0,-3,-16,-22
1513175032111577,-7,-12,-37,-11,-5,1,-6,8
1513175032111577,-14,-1,10,17,9,3,-1,-16
1513175032113078,9,5,3,8,6,2,6,2
1513175032113078,2,0,-7,2,1,-2,6,14
1513175032134096,6,23,20,4,-1,1,3,0
1513175032134096,-3,-21,52,-10,-7,-5,-5,-12
1513175032135595,-9,-22,-2,-2,-5,-1,-2,0
1513175032135595,10,-18,-21,11,8,5,11,5
1513175032149616,4,10,43,3,3,3,0,-2
1513175032149616,8,2,-28,-9,2,5,17,26
1513175032155610,33,27,32,2,-3,-4,-15,-22
1513175032155610,-10,-1,49,13,0,0,3,17
1513175032171619,-19,-7,-15,-14,-3,-3,-2,-16
1513175032171619,-9,-1,5,3,-1,-6,-5,-13
1513175032173121,5,2,-40,-2,-1,1,-4,1
1513175032173121,10,43,-6,19,4,0,3,-11
1513175032185632,-11,-39,-41,-24,-8,-5,12,18
1513175032185632,17,52,52,-2,-6,-2,-13,-10
1513175032192637,-17,-9,6,11,1,1,-6,-2
1513175032192637,-10,-80,-28,-5,1,-3,7,-3
1513175032208645,6,11,29,-1,1,-1,-5,3
1513175032208645,-2,33,2,5,2,3,28,4
1513175032210647,16,-11,19,6,4,3,-8,1
1513175032210647,-2,11,5,11,0,3,4,1
1513175032231677,-13,-47,-98,-18,-11,-10,-15,-10
1513175032231677,4,-11,32,11,1,2,3,-6
1513175032233190,-1,5,-39,-25,-11,-6,-3,-13
1513175032233190,-2,2,5,-1,-1,0,-3,-4
1513175032245687,3,5,-9,-2,-3,-5,-4,8
1513175032245687,-2,-17,-15,4,0,-3,-4,25
1513175032252680,2,24,47,-1,-2,-1,6,5
1513175032252680,-8,-38,-79,-33,-12,-4,-5,6
1513175032269191,13,50,87,9,-1,0,-7,-25
1513175032269191,-13,-27,-41,-5,-6,-5,6,-5
1513175032270689,-1,-14,-24,4,4,5,5,0
1513175032270689,2,-17,28,-7,0,2,0,8
1513175032291707,-1,17,30,17,1,1,11,4
1513175032291707,-29,-47,-99,-29,-9,-8,-23,-21
1513175032293215,30,53,0,1,1,0,1,2
1513175032293215,-29,-12,-28,7,4,1,-8,-27
1513175032305214,2,-6,23,7,-2,-3,3,17
1513175032305214,13,21,27,-6,3,2,4,7
1513175032314244,-6,-8,-8,-3,-6,-1,3,5
1513175032314244,17,15,45,14,4,-1,-2,-22
1513175032329233,16,5,-54,-17,-7,-2,-6,41
1513175032329233,-12,10,36,20,5,-1,-6,-8
1513175032330732,-17,-21,-30,-10,-4,-5,1,-13
1513175032330732,18,1,-15,0,2,2,0,18
1513175032351761,-16,-15,43,-2,-4,-1,-2,-24
1513175032351761,6,-1,-30,-8,-4,-3,-1,-11
1513175032353248,-17,24,49,18,-1,-2,10,8
1513175032353248,-5,-42,-84,-28,-6,-2,-20,-3
1513175032365280,19,38,-10,12,14,6,-3,3
1513175032365280,-2,14,17,-18,-9,-2,1,4
1513175032374264,1,-13,14,-3,-4,-3,-10,-7
1513175032374264,0,13,42,34,5,2,16,27
1513175032388773,7,-2,-9,-2,7,1,-15,-13
1513175032388773,-7,-30,6,10,-3,-3,-5,-8
1513175032390775,6,19,-66,-7,1,-3,7,-5
1513175032390775,-14,1,64,1,-6,-1,16,5
1513175032411288,0,-8,-60,-15,-3,0,-8,-7
1513175032411288,-1,0,42,14,4,2,4,9
1513175032413290,-4,-2,7,-4,-3,-2,-12,-15
1513175032413290,-2,25,-13,-13,-6,-5,-2,3
1513175032425329,4,5,13,32,3,2,-2,-25
1513175032425329,-13,-25,14,-20,-4,-2,4,4
1513175032434327,-12,-18,-20,-16,-7,-4,-6,9
1513175032434327,15,0,24,10,2,0,7,10
1513175032448329,-15,10,13,11,3,-1,3,-10
1513175032448329,5,-21,-36,2,3,4,-1,-4
1513175032456821,-2,8,32,1,4,1,2,5
1513175032456821,3,-4,-3,11,6,5,0,-5
1513175032471341,0,10,23,-6,-4,-2,4,7
1513175032471341,13,17,-52,-7,-2,0,-11,-2
1513175032473343,-24,-21,8,5,0,-4,-21,-40
1513175032473343,1,34,18,3,-1,-1,3,33
1513175032485358,-1,-23,4,7,5,3,1,2
1513175032485358,7,32,40,10,6,0,2,2
1513175032494348,-14,-34,-43,-30,-11,-8,-10,-29
1513175032494348,0,-8,25,0,-4,-3,3,2
1513175032508858,-5,-10,-26,-15,-7,-3,-8,-6
1513175032508858,-5,-2,19,16,3,2,20,28
1513175032510359,3,2,-6,8,1,2,-11,-12
1513175032510359,-3,-15,-27,-35,-9,-4,-3,-13
1513175032538882,-1,2,15,-8,-4,-4,5,16
1513175032538882,2,18,-38,11,3,0,-7,-28
1513175032540881,-7,-28,-62,-9,-5,-5,0,26
1513175032540881,-12,-10,3,3,-4,-2,-3,-16
1513175032553891,-11,14,-43,-33,-6,-6,-6,-10
1513175032553891,13,8,9,7,2,4,-19,-2
1513175032555892,-2,-16,-1,12,0,-1,9,7
1513175032555892,3,10,-6,4,3,-3,-2,6
1513175032568922,-3,-20,21,7,4,5,-12,-36
1513175032568922,-3,7,13,-13,-9,-8,5,24
1513175032570925,5,5,-26,7,6,4,-2,-3
1513175032570925,4,-18,2,2,2,5,12,23
1513175032591440,2,-9,36,25,0,-2,-4,-9
1513175032591440,0,-2,-30,-25,-2,2,7,13
1513175032592919,2,-1,-7,-9,-3,-3,-1,4
1513175032592919,8,13,-9,6,1,1,-1,4
1513175032604942,-4,-16,10,6,-1,-1,5,9
1513175032604942,-9,-2,-5,-8,-6,-6,-19,-15
1513175032613932,11,0,30,-1,2,1,9,13
1513175032613932,-2,24,-4,8,3,-3,-4,-11
1513175032628953,-5,-9,-51,-27,-12,-8,-7,3
1513175032628953,-2,-42,-38,2,-1,-1,12,-9
1513175032630446,9,12,14,12,2,1,-2,6
1513175032630446,4,25,23,10,4,2,4,-5
1513175032651480,-7,-4,-45,-24,-6,-3,-3,9
1513175032651480,4,-23,19,5,1,1,-26,5
1513175032652982,-5,21,-15,-7,0,-2,-4,-5
1513175032652982,0,6,38,14,2,4,-2,-5
1513175032674488,5,4,-22,-2,-4,-2,5,7
1513175032674488,-19,-13,6,-4,2,1,6,-11
1513175032680002,2,5,0,7,-2,0,0,6
1513175032680002,-12,9,-10,-18,-6,-5,0,-13
1513175032688985,20,14,47,3,3,2,-7,15
1513175032688985,-6,-14,-3,-1,-11,-12,-7,-11
1513175032690486,12,2,19,4,0,-1,1,-1
1513175032690486,-8,-15,-46,-27,-7,-3,-8,-11
1513175032711573,1,1,7,11,1,-4,-2,1
1513175032711573,-15,0,24,8,3,4,7,-10
1513175032713069,8,30,-14,3,-6,-6,-13,-7
1513175032713069,-4,-36,-6,-9,0,-2,1,12
1513175032734072,7,-4,29,12,5,6,-2,-14
1513175032734072,-2,-22,-50,-14,-7,-5,1,23
1513175032735575,-13,-17,30,9,0,1,16,1
1513175032735575,3,10,55,11,-4,-5,-12,-10
1513175032749099,3,2,-50,-21,-5,2,-1,-7
1513175032749099,1,2,12,7,7,2,17,-2
1513175032750607,-10,-2,-9,10,0,0,-15,-10
1513175032750607,13,-7,11,-17,-8,-8,-5,7
1513175032771598,-11,-37,6,2,-3,-2,12,4
1513175032771598,10,25,-7,-6,-5,-1,-16,-11
1513175032785111,11,29,11,-9,-2,2,6,5
1513175032785111,-13,-43,-26,16,1,2,-1,-13
1513175032794117,-9,-5,-11,-14,1,2,19,41
1513175032794117,6,18,31,20,4,2,-7,-9
1513175032795615,-12,-1,-29,-25,-10,-3,7,2
1513175032795615,3,22,-22,-2,-1,1,8,-7
1513175032809126,14,26,23,15,4,0,-8,4
1513175032809126,-7,-26,-32,12,5,3,11,5
1513175032810628,9,26,58,1,3,3,-12,-2
1513175032810628,5,-1,-8,11,1,0,0,-3
1513175032830660,-10,-1,39,-8,-7,-6,1,-19
1513175032830660,-9,-23,-80,-24,-8,-6,-20,-3
1513175032831661,0,-15,55,15,6,1,6,15
1513175032831661,0,-10,-73,-21,-6,1,-4,4
1513175032853159,-2,18,32,28,9,0,-5,-17
1513175032853159,-1,13,33,-13,-8,-4,6,-10
1513175032854157,-15,-27,-36,-13,-5,-2,-31,-15
1513175032854157,7,29,40,16,2,-2,-9,-7
1513175032868169,-2,-26,-9,-2,-4,-2,6,16
1513175032868169,-6,0,38,-14,-1,0,5,-6
1513175032869202,-13,-28,-66,-7,-3,-3,5,-5
1513175032869202,8,12,-51,5,3,0,3,15
1513175032890683,-8,2,-8,-12,-5,1,-11,-22
1513175032890683,14,29,26,6,2,1,10,13
1513175032891683,-14,-32,31,6,0,-3,-2,-3
1513175032891683,2,3,51,13,7,-2,1,8
1513175032913217,-22,-40,-114,-19,-8,-2,15,-2
1513175032913217,9,27,43,-6,-6,-3,-34,-8
1513175032914201,-1,10,-38,-1,-3,1,11,8
1513175032914201,-6,-9,0,-15,0,0,-7,-20
1513175032928222,11,33,21,3,0,2,-1,21
1513175032928222,-1,0,32,15,4,3,11,-1
1513175032929223,-4,-19,-56,-12,-9,-8,-3,-13
1513175032929223,0,1,59,9,5,2,-4,4
1513175032950747,-4,-3,-78,-16,-3,1,-5,-11
1513175032950747,1,28,13,10,5,1,2,1
1513175032951737,10,4,17,-10,-2,0,6,9
1513175032951737,-2,-5,-8,7,0,-1,0,-5
1513175032973744,4,-8,6,1,2,2,0,5
1513175032973744,-6,-26,-28,-8,-5,-3,5,2
1513175032974743,0,13,7,8,5,3,0,-16
1513175032974743,-10,-13,-12,4,-5,-4,-13,-9
1513175032988252,9,13,54,-5,5,0,-6,-4
1513175032988252,-7,-3,-30,2,-3,-3,2,2
1513175032989252,6,13,22,4,3,2,5,7
1513175032989252,-3,-4,-11,-11,-8,-1,2,2
1513175033010767,-1,0,-1,11,-2,-4,-6,-4
1513175033010767,-4,-6,9,5,3,-1,-2,-6
1513175033011268,-5,1,2,-7,-2,-2,1,-1
1513175033011268,7,11,20,-3,-4,0,0,5
1513175033033310,10,4,2,5,-1,-1,-1,-2
1513175033033310,-6,-3,-3,-7,-1,0,8,6
1513175033034327,1,9,22,11,5,4,-1,-2
1513175033034327,-11,-12,-84,-19,-6,-2,-2,-8
1513175033048297,5,-8,39,5,-3,-1,-4,-1
1513175033048297,17,-16,-54,-14,-7,-3,3,9
1513175033048794,1,6,24,2,3,2,3,-6
1513175033048794,4,2,25,8,3,1,1,0
1513175033070820,-13,-23,-16,-7,0,-2,7,8
1513175033070820,-8,-4,-25,-1,0,-1,-6,-4
1513175033071813,1,10,41,-3,-4,-5,-14,-15
1513175033071813,3,-15,-25,-17,-3,-3,-3,3
1513175033093344,3,-9,37,20,7,4,2,2
1513175033093344,-13,-1,35,-5,-4,-3,-1,1
1513175033094340,-1,8,-27,-6,1,-3,4,-2
1513175033094340,-5,22,21,17,2,-2,-5,6
1513175033108336,-14,-53,-64,-27,-8,-5,-7,-9
1513175033108336,3,-22,12,8,2,0,-1,-6
1513175033108837,2,31,19,0,-4,1,5,-1
1513175033108837,2,-12,-3,-10,-2,0,-1,5
1513175033130862,1,30,38,8,-1,-6,0,5
1513175033130862,-5,-11,-57,0,-2,0,-6,-8
1513175033131354,-4,-41,-17,0,0,-2,2,-1
1513175033131354,-4,10,31,-6,0,1,3,0
1513175033153368,8,35,-10,-2,-1,-2,-5,-1
1513175033153368,-12,17,41,18,1,-2,2,-13
1513175033153869,-25,-47,-19,-7,-2,2,1,4
1513175033153869,5,7,8,4,-3,-2,-2,-10
1513175033167878,1,12,-1,7,8,5,12,6
1513175033167878,8,34,15,10,5,1,-20,-1
1513175033175887,1,-13,-20,-5,-5,-4,1,3
1513175033175887,22,-3,13,5,-1,1,-1,0
1513175033190895,-34,-2,-31,-14,-6,-4,-1,-6
1513175033190895,5,16,7,0,-1,-5,-13,-24
1513175033191395,-1,-15,-1,-5,1,1,5,5
1513175033191395,1,-15,-8,1,2,-1,-5,8
1513175033212956,9,22,29,15,1,1,-3,-2
1513175033212956,1,-9,24,-15,-6,-3,0,0
1513175033220953,8,48,35,14,3,1,3,7
1513175033220953,-11,-5,-21,-22,-9,-3,5,0
1513175033228464,12,2,25,9,3,1,-3,1
1513175033228464,-7,-19,-48,-9,-5,-4,5,0
1513175033228956,13,6,-16,-2,-1,-1,-2,13
1513175033228956,-10,11,-5,0,-1,-2,-6,-6
1513175033250995,-11,1,-17,-13,-5,-4,2,-16
1513175033250995,11,-6,17,5,2,2,-15,-3
1513175033251511,1,-2,13,3,-2,-5,1,4
1513175033251511,-18,0,1,-3,-2,-3,-1,-11
1513175033273011,18,3,-7,5,0,5,2,14
1513175033273011,0,-3,39,12,2,2,10,21
1513175033274011,-6,-26,-86,-12,-7,-6,1,-10
1513175033274011,-9,36,41,-5,3,3,0,-12
1513175033296531,-5,-21,-29,-10,-5,-4,-1,6
1513175033296531,-3,-2,10,2,1,2,1,4
1513175033297029,-7,-5,17,2,3,1,-6,0
1513175033297029,16,-1,9,15,0,-2,-2,-5
1513175033310550,-7,-21,-45,-11,-2,0,-7,-10
1513175033310550,-15,4,5,-6,-3,-3,2,-8
1513175033311551,6,10,24,7,-1,-2,-2,3
1513175033311551,-5,-5,-21,-9,0,0,-3,-2
1513175033333055,-1,4,29,8,2,-1,-2,-7
1513175033333055,6,-15,-46,-12,-6,-4,2,9
1513175033334057,0,0,22,4,1,1,1,-2
1513175033334057,3,0,-3,3,-3,-2,10,12
1513175033347583,3,6,-13,-25,-11,-3,-19,-10
1513175033347583,1,-9,4,-3,-1,0,6,-3
1513175033355571,0,3,3,1,0,-3,-7,-7
1513175033355571,-4,-13,-9,6,1,2,0,-1
1513175033370599,0,0,-1,5,1,-2,2,3
1513175033370599,-3,-2,-14,-15,-10,-2,0,-3
1513175033371581,0,0,-1,10,6,1,-1,0
1513175033371581,0,-8,-23,-2,-2,0,-3,0
1513175033393597,1,8,18,6,4,1,-1,0
1513175033393597,1,8,-1,-3,0,-1,1,-2
1513175033394097,-5,-6,4,-3,-3,-1,-2,-5
1513175033394097,-2,-9,-3,-4,0,0,0,1
1513175033407618,-2,-2,4,2,2,-1,-3,-2
1513175033407618,0,-1,-3,7,2,-1,0,-2
1513175033416112,-1,6,3,-4,-2,-3,-1,-2
1513175033416112,-2,-6,-16,-8,-5,-4,-3,-2
1513175033430634,-1,-5,9,8,0,1,0,3
1513175033430634,-2,1,-9,-7,-6,-1,-2,-2
1513175033431623,-1,3,-3,3,2,-1,-3,-3
1513175033431623,-2,-8,-15,-3,2,0,-3,-2
1513175033454640,3,2,11,4,-2,-3,1,0
1513175033454640,-6,-11,-8,3,2,1,0,-3
1513175033455641,3,4,10,-6,-5,-1,-2,1
1513175033455641,1,-3,-7,-5,-3,-1,-1,1
1513175033467650,-3,0,6,3,-2,0,0,0
1513175033467650,1,2,-8,1,0,-1,1,0
1513175033475729,-2,-2,-1,11,-6,-2,-2,-3
1513175033475729,-1,-3,-10,-9,8,0,1,1
1513175033490740,0,1,7,-5,-5,0,-1,1
1513175033490740,1,-3,6,0,1,4,0,0
1513175033491722,0,1,4,-3,-3,-1,-2,0
1513175033491722,3,-1,-3,0,-7,-2,-2,1
1513175033513245,-4,-2,-1,-3,-2,0,-1,-1
1513175033513245,0,1,-3,-3,0,-2,-1,-1
1513175033514236,-1,-1,3,-1,-1,-1,0,0
1513175033514236,0,-1,1,5,1,-1,-1,-1
1513175033527755,-2,-1,-1,-4,-1,-3,0,0
1513175033527755,-2,-6,1,-1,-2,-2,-1,-2
1513175033543266,3,15,-8,-9,-2,-2,0,0
1513175033543266,-4,-5,3,4,4,1,-2,-3
1513175033550783,-4,-2,-2,3,0,-1,-1,-1
1513175033550783,2,-3,0,-2,3,-1,-1,2
1513175033551784,1,-1,-3,2,2,0,0,1
1513175033551784,1,2,1,-1,-5,-3,-2,-3
1513175033573278,0,0,0,4,-1,-1,-2,0
1513175033573278,0,7,2,-3,-1,1,0,-1
1513175033574279,-3,-10,-8,-9,-1,-1,-2,-3
1513175033574279,-4,-3,-1,-1,-2,-2,-1,1
1513175033589293,1,-3,-5,1,2,-1,-1,-1
1513175033589293,-3,0,-1,-1,-3,-3,-3,-3
1513175033595797,-1,-1,3,0,-1,1,-1,-1
1513175033595797,1,-1,-3,1,-1,2,-1,-1
1513175033610832,0,1,-2,-4,-4,-3,-3,0
1513175033610832,-1,0,1,1,0,0,0,-1
1513175033611805,-2,-3,-1,-2,1,-1,-2,-1
1513175033611805,1,2,-2,-2,-3,-2,0,0
1513175033633348,0,0,0,-2,1,1,-1,1
1513175033633348,0,-4,0,2,-3,-3,-1,-1
1513175033634320,-6,-3,-5,-5,-1,0,0,0
1513175033634320,-3,-3,-1,0,0,-1,-1,-2
1513175033656837,6,7,0,0,-2,1,0,1
1513175033656837,-13,-13,-1,0,-5,-5,-4,-6
1513175033657337,-2,-3,-3,-3,-2,-2,-2,-2
1513175033657337,-1,-2,-1,-1,-1,0,-1,-1
1513175033670847,-1,0,0,0,0,-1,0,-2
1513175033670847,2,4,2,-2,1,0,0,0
1513175033671347,-1,-2,-1,0,-1,0,0,-1
1513175033671347,-3,-1,-2,-1,-2,-2,-1,0
1513175033701883,0,-3,0,0,0,-1,-3,-1
1513175033701883,0,1,-2,-1,1,0,-1,0
1513175033702369,-1,-1,0,-1,-2,0,-2,-2
1513175033702369,1,0,-1,1,-1,1,2,0
1513175033716377,-2,-2,-1,-2,-2,-2,0,-1
1513175033716377,1,1,0,0,0,0,-1,-2
1513175033717378,0,-3,-1,-1,0,-1,-1,-1
1513175033717378,-1,-2,-1,-2,0,-1,-2,-1
1513175033730889,0,-1,0,0,0,0,0,0
1513175033730889,-1,-1,-1,0,-2,-2,-1,-1
1513175033731388,0,0,-1,-1,1,1,-1,0
1513175033731388,-2,-3,-1,-2,-3,-3,-2,-1
1513175033753426,-5,-4,-1,-2,0,-1,-1,0
1513175033753426,1,2,-1,-2,-1,-1,0,-1
1513175033753903,-1,3,-1,-1,0,-1,0,0
1513175033753903,-1,-1,-1,-1,0,0,-2,0
1513175033776422,0,-1,-1,-1,1,0,1,-2
1513175033776422,-3,0,0,0,-2,-3,-1,-3
1513175033777423,-2,-2,-3,1,-1,-2,-2,-2
1513175033777423,-1,0,-2,-1,-2,0,0,-2
1513175033790931,-1,-1,-2,0,-1,0,-2,0
1513175033790931,-1,-3,0,0,-2,-1,-1,-1
1513175033791432,-1,0,0,0,-2,-2,2,-2
1513175033791432,0,-1,-1,-2,0,-2,-1,1
1513175033813490,-1,-2,-1,-3,-2,-1,-1,-1
1513175033813490,-1,0,-2,1,2,2,-1,0
1513175033813981,-1,-3,-2,-1,-3,-2,-4,-1
1513175033813981,0,0,0,0,0,3,1,0
1513175033836996,-3,-3,-3,-1,-4,-5,-4,-3
1513175033836996,-3,-1,-1,-2,-1,0,-1,0
1513175033837495,0,-1,-2,-1,-2,-2,-2,-1
1513175033837495,1,2,0,-1,2,2,0,1
1513175033851005,0,-2,-1,-1,0,1,0,-1
1513175033851005,-1,1,-1,-3,-2,-2,-1,-1
1513175033851506,1,-2,0,-2,-2,-2,0,-1
1513175033851506,-1,-1,-1,-1,-1,-2,-2,-3
1513175033873531,1,0,0,1,1,-2,-1,0
1513175033873531,-2,-1,-2,-3,-1,-2,-2,-1
1513175033874022,0,0,-2,-2,0,1,0,-1
1513175033874022,-1,-3,-3,-2,-3,-2,-1,-1
1513175033897051,-1,0,0,-1,-2,-1,-1,-1
1513175033897051,0,-1,-1,1,-3,0,0,-1
1513175033898040,-1,-2,-2,0,-2,-2,-2,-2
1513175033898040,-2,-2,-1,-1,-1,-1,-2,-1
1513175033911053,-2,-1,-1,0,-1,0,-1,-1
1513175033911053,0,0,0,0,-2,-1,0,-1
1513175033911548,-2,0,-1,-1,0,0,1,-1
1513175033911548,0,-2,-2,-1,-2,-2,0,-1
1513175033933569,0,0,-1,-2,0,0,-1,-1
1513175033933569,0,-1,-1,-1,0,-1,-1,-2
1513175033934070,-1,-1,0,0,-1,-1,1,-2
1513175033934070,-2,-1,-2,0,-3,-2,-2,0
1513175033956590,-1,0,-1,-1,0,1,-1,-1
1513175033956590,-1,-1,-1,-3,0,-2,-2,-3
1513175033957080,-1,-1,-1,-1,-1,0,0,-1
1513175033957080,-2,-2,-3,-2,-1,-1,-1,-1
1513175033970606,-1,-1,-3,-2,-3,-1,-1,0
1513175033970606,-1,0,-1,-2,1,-1,0,-1
1513175033971590,-2,-1,-1,-1,-1,-1,-1,-1
1513175033971590,1,-2,-1,-2,0,2,-1,-2
1513175033993116,-2,-2,-1,-1,-3,-2,-1,-2
1513175033993116,-2,0,0,-1,-2,0,-3,0
1513175033994107,0,-1,-3,-2,-1,-2,-2,-1
1513175033994107,1,-1,-1,0,-1,1,-1,0
1513175034016625,-2,-3,-2,-1,0,-2,0,0
1513175034016625,-1,-2,-2,-2,0,-1,0,0
1513175034017122,-1,-2,0,-2,-4,-2,-1,-2
1513175034017122,-3,-2,-2,-2,-2,-1,-2,-2
1513175034030646,1,-1,0,-1,0,-1,-2,-3
1513175034030646,-2,0,0,1,-1,1,-1,-2
1513175034031647,-1,0,0,0,-1,-1,0,0
1513175034031647,-2,-1,0,-1,-1,-2,0,1
1513175034053170,-1,-2,-1,-2,-1,0,-1,-2
1513175034053170,-1,-2,-1,0,-1,1,-2,-1
1513175034054149,-1,-2,0,-2,-1,-2,-3,-1
1513175034054149,0,-3,-2,1,0,-1,0,-1
1513175034084175,-1,0,-2,-1,1,1,-1,-1
1513175034084175,1,-1,-1,-1,0,1,-1,-2
1513175034084671,-1,0,-1,-1,-1,-2,-2,1
1513175034084671,-2,-1,-1,-1,-2,-5,-1,0
1513175034090700,0,-1,0,-2,0,-2,-1,0
1513175034090700,-1,1,-2,-3,-2,-3,-1,-1
1513175034091684,-1,0,-1,-1,0,0,0,-2
1513175034091684,-2,0,0,-1,0,-1,-3,-1
1513175034113204,-1,0,-2,0,-2,-1,0,-1
1513175034113204,-1,-1,1,-1,-1,-3,-2,-1
1513175034114192,0,-4,0,0,-2,-2,0,-2
1513175034114192,0,-2,-1,-1,0,-1,0,0
1513175034136718,0,-1,-1,0,0,-1,-1,0
1513175034136718,-2,-2,0,0,0,-1,-1,0
1513175034137219,-2,0,0,-2,-1,0,-1,-2
1513175034137219,0,0,-2,1,-2,2,-1,0
1513175034150741,-2,-2,-1,0,-3,-1,-2,-2
1513175034150741,0,-2,-2,1,-1,-1,0,-2
1513175034151719,-2,-2,-2,-3,0,1,0,-1
1513175034151719,0,-1,-2,-2,-1,-1,0,0
1513175034173236,-1,0,-1,-2,0,0,1,-1
1513175034173236,-1,1,0,-1,-2,-2,0,-3
1513175034174237,-1,0,-1,0,0,-1,-1,-1
1513175034174237,-2,-2,-1,-1,1,-1,-2,-1
1513175034196759,1,-2,0,1,-1,-1,-3,0
1513175034196759,-1,-3,-2,-2,-1,-2,-3,-4
1513175034197260,-1,-2,-2,0,-2,-1,-1,-1
1513175034197260,-1,-2,-3,-1,-3,-2,-2,-1
1513175034210759,-2,-1,-1,-1,-1,-1,-1,-1
1513175034210759,0,-1,-1,-3,-1,0,0,0
1513175034211260,-1,3,-1,-2,-1,-2,-1,0
1513175034211260,1,-1,-1,-1,0,0,-1,-1
1513175034233291,-1,-1,-1,-1,-2,-1,0,0
1513175034233291,-1,0,-1,-2,-2,-2,0,0
1513175034233775,-1,-2,-1,0,-1,-1,-1,-2
1513175034233775,-2,0,-1,0,-2,-2,0,-2
1513175034256793,-1,1,-2,-3,-1,-2,-2,-2
1513175034256793,-3,-1,1,1,1,-1,0,0
1513175034257293,1,-2,-1,0,-1,-1,-2,-2
1513175034257293,1,-1,1,-1,1,0,0,-2
1513175034270318,-3,-2,-1,-1,-1,-1,0,-1
1513175034270318,-1,-1,-3,0,-1,-2,0,-1
1513175034278308,0,-1,0,0,0,-1,-1,-1
1513175034278308,-2,1,-1,-2,-1,-1,-1,0
1513175034293320,-1,-1,-2,-1,-2,-1,-2,-2
1513175034293320,-2,2,-2,-2,-1,-2,0,-2
1513175034293817,0,-1,-1,0,-2,-1,-2,-3
1513175034293817,-2,-1,-3,-1,0,0,0,-2
1513175034316357,0,-4,0,-3,1,0,0,-1
1513175034316357,-1,-1,-2,-1,0,-1,-1,-1
1513175034317339,-1,-2,-2,-2,0,-1,-2,0
1513175034317339,-1,-2,0,-1,-1,0,-2,1
1513175034330364,-1,1,-1,-1,-2,-2,-1,-2
1513175034330364,0,-1,-1,-1,-1,0,-1,-1
1513175034338359,-2,-2,-1,-3,-1,-1,1,-2
1513175034338359,0,-1,-1,-2,-2,-3,-2,-1
1513175034353369,-1,-1,-1,-1,1,0,-1,0
1513175034353369,0,-3,0,-1,-3,-3,-1,0
1513175034353860,-1,0,-1,0,1,0,0,-1
1513175034353860,-1,-1,-2,-1,0,-1,-1,0
1513175034376391,-2,-4,0,-1,1,-1,-3,-2
1513175034376391,0,-2,-1,0,-1,0,-1,0
1513175034377386,0,-1,-1,-1,-1,1,0,0
1513175034377386,0,-1,0,-3,-2,0,0,-1
1513175034389886,0,0,-1,0,0,-2,-1,-1
1513175034389886,-2,0,-1,-3,-1,-1,1,0
1513175034398395,-1,-2,-2,1,-2,-2,-1,-1
1513175034398395,1,-3,-2,-1,0,-1,-1,-1
1513175034412903,-2,0,-2,1,-2,-1,-2,-2
1513175034412903,-2,0,0,-1,-2,0,-2,-2
1513175034420908,0,0,0,-1,-1,0,0,0
1513175034420908,-2,0,-2,-2,-1,0,0,-1
1513175034436422,1,-1,-2,-1,-1,-2,1,0
1513175034436422,-2,-1,0,0,-1,-1,-1,-2
1513175034437420,-1,-1,0,-2,-2,-2,0,-1
1513175034437420,0,-1,-3,0,-1,-2,-2,-1
1513175034449931,-1,-1,0,-3,0,1,2,-1
1513175034449931,-2,-2,-2,-2,-4,-1,-1,-1
1513175034458436,1,-1,0,-1,0,-1,0,1
1513175034458436,-1,-2,-2,1,-1,-1,-2,-2
1513175034473465,-2,-2,-3,0,-2,-1,-2,-2
1513175034473465,-1,-1,-1,-1,0,0,-2,-2
1513175034473946,-1,0,-1,-2,1,0,-2,-1
1513175034473946,-1,-1,-2,-1,-1,-2,-1,-1
1513175034496478,-2,2,1,-1,-1,0,-1,1
1513175034496478,-2,0,-1,-1,-1,-1,1,0
1513175034497462,-1,-1,-1,0,-2,-3,0,1
1513175034497462,-1,-2,-3,-1,0,-1,-1,-2
1513175034509997,-1,0,-1,-3,-1,0,-1,0
1513175034509997,0,-1,0,0,1,-1,-2,-2
1513175034518503,-2,-2,0,-1,-3,-3,-2,-2
1513175034518503,0,-1,-2,0,0,0,-1,-2
1513175034533514,0,-2,-2,-1,-2,-3,-2,-2
1513175034533514,-1,0,-3,-3,0,-1,-2,-1
1513175034534015,-2,-2,-2,-2,-1,-1,-1,0
1513175034534015,-1,-1,-1,-1,-1,0,0,0
1513175034556533,-1,-2,-1,-1,0,-2,0,-2
1513175034556533,-1,0,1,-2,-2,-2,-1,0
1513175034557531,-2,-2,-2,-1,-2,-2,-2,-1
1513175034557531,0,-4,0,-1,-2,-3,-1,-2
1513175034586604,-1,0,-2,0,-1,0,-1,0
1513175034586604,-1,-1,-1,-1,-2,0,0,-2
1513175034587053,0,-1,-1,-1,-1,-1,-1,-2
1513175034587053,-1,0,-1,-2,1,0,0,1
1513175034593066,0,-1,-1,-1,-1,0,-1,-1
1513175034593066,-2,-2,-1,1,-2,0,-1,-1
1513175034594057,-1,-1,-1,0,0,0,0,0
1513175034594057,0,-1,-2,0,0,0,-1,1
1513175034616572,-2,-1,-3,-1,-2,-2,-1,-1
1513175034616572,0,1,0,-2,-1,-1,-1,-1
1513175034617073,0,-1,-1,-2,-2,0,0,-1
1513175034617073,-1,-1,0,-2,-1,-2,-1,-1
1513175034639089,-2,-1,-2,-2,-1,-2,-2,-2
1513175034639089,-2,-2,-1,-1,0,-1,0,-1
1513175034639590,-1,-2,0,-1,-1,0,-1,-1
1513175034639590,-1,-1,-1,0,-1,-1,-1,0
1513175034653125,0,-1,1,-1,-2,0,1,-1
1513175034653125,0,-1,0,-1,0,-2,-1,0
1513175034654100,0,-2,-1,-1,2,0,-1,-2
1513175034654100,-2,-1,-1,-1,-3,-1,-1,0
1513175034676628,0,1,0,0,-1,-3,-3,-2
1513175034676628,-1,0,1,-1,-2,-2,-2,-1
1513175034677116,-1,0,-1,0,-1,1,-3,-1
1513175034677116,0,-1,-2,-2,-1,0,-1,0
1513175034699131,-1,-2,-1,0,-2,-2,-2,-1
1513175034699131,-2,-1,-1,-2,-2,0,1,-1
1513175034699631,-2,-1,-2,-1,-1,-1,-1,-2
1513175034699631,-1,-2,-2,-1,-1,0,-1,-1
1513175034713152,-1,-1,0,0,-1,-3,0,-1
1513175034713152,-1,0,0,1,0,-1,0,-1
1513175034714142,-1,-1,-3,-2,0,0,-1,-1
1513175034714142,-2,0,0,-2,-2,-2,-1,-1
1513175034736196,-1,-1,-2,1,-2,1,-1,-1
1513175034736196,-1,-1,0,0,0,-1,-1,-1
1513175034737157,0,-1,0,0,-1,-1,-2,-2
1513175034737157,-2,-2,-1,-1,2,0,-2,0
1513175034759173,-1,-1,-1,-3,-1,1,0,0
1513175034759173,1,0,-1,-1,-1,-2,-1,-1
1513175034759674,-1,-1,-1,1,-2,-1,-1,1
1513175034759674,0,0,0,0,-1,-2,-2,0
1513175034773184,1,-2,0,-2,-1,-2,-3,-1
1513175034773184,-1,0,-1,-2,-3,0,-1,-2
1513175034774184,1,1,-1,-2,-1,-2,0,0
1513175034774184,0,-3,-3,1,-3,-2,-1,-1
1513175034796701,-3,-2,0,-2,-2,0,-1,-1
1513175034796701,-1,0,-1,1,0,-1,-1,-2
1513175034797700,-1,0,-1,0,-1,0,-1,0
1513175034797700,-1,-1,-2,-1,-2,2,-1,0
1513175034818715,-2,1,-1,-1,0,-1,-1,-2
1513175034818715,-2,-2,-2,-1,-2,-2,-2,-1
1513175034819716,-1,-1,-1,0,-2,-1,1,-1
1513175034819716,0,-1,-1,-2,0,-1,-1,-2
1513175034833237,-2,-2,-2,-2,-1,-1,-1,1
1513175034833237,-1,-1,-1,-2,-1,-1,0,-1
1513175034834228,-1,-1,-1,-3,0,1,-1,-1
1513175034834228,-1,-1,-1,0,-1,-1,-1,-1
1513175034856742,0,0,-2,-2,-1,0,0,-1
1513175034856742,-1,-3,0,-1,-2,-1,-1,-2
1513175034857245,-3,-2,0,-2,-2,-2,-2,-1
1513175034857245,0,-1,-2,-1,-2,-2,-1,0
1513175034879258,-1,0,0,-2,-1,0,0,-2
1513175034879258,0,-1,-1,-2,-2,-2,-2,0
1513175034879759,-1,-1,-1,0,0,-1,-1,-1
1513175034879759,-1,-1,0,-1,-2,-1,-2,-1
1513175034893268,-2,-3,-2,-1,0,-2,-1,0
1513175034893268,-1,-1,-1,0,-1,1,0,-1
1513175034893768,-1,-2,-1,-2,-2,-2,-1,-1
1513175034893768,-1,-2,-1,-1,-1,-2,-2,-1
1513175034916299,-2,0,-2,-1,-1,0,-2,-1
1513175034916299,-3,-1,-4,-1,-2,0,-2,-2
1513175034917285,-1,-2,-2,0,-2,-2,0,-2
1513175034917285,-1,-1,0,-2,1,1,-1,-2
1513175034946321,-1,-2,0,-1,-3,-1,-1,-2
1513175034946321,0,1,-1,-1,-1,0,-2,-1
1513175034948319,0,1,-2,-2,-1,-3,-1,-1
1513175034948319,-1,-1,-3,-1,-2,0,-1,-2
1513175034952820,-2,0,2,-2,-1,-2,1,-1
1513175034952820,-3,-3,0,-2,0,-1,-1,-1
1513175034961315,-2,-4,-2,0,0,-1,-1,0
1513175034961315,-1,-2,-2,0,-2,0,0,1
1513175034976338,-3,-1,-2,0,-1,-2,0,-1
1513175034976338,-1,-1,0,0,-2,-2,-1,-1
1513175034978328,-2,-1,-2,-1,-1,0,-1,-1
1513175034978328,-2,0,0,-1,-2,-2,-1,-1
1513175034998842,-1,-1,-2,0,-1,-2,-1,-1
1513175034998842,-1,-2,0,-1,-2,-2,-2,0
1513175035001345,0,-3,0,-2,0,-1,-1,0
1513175035001345,-1,-2,-2,0,-2,-1,-1,0
1513175035012367,-1,0,-2,-1,-1,-1,-2,-2
1513175035012367,-2,0,0,0,0,-3,-1,-2
1513175035021858,0,-1,-1,1,0,-1,-1,0
1513175035021858,0,-1,-2,-1,0,-1,-1,0
1513175035036391,-1,-1,-1,0,-3,1,0,-3
1513175035036391,0,-3,0,0,-1,1,0,1
1513175035038370,-1,-2,-1,-2,-2,0,-2,0
1513175035038370,-1,-1,0,-1,-2,-1,-1,-1
1513175035058885,0,-3,2,-1,-2,-1,-2,-2
1513175035058885,0,1,-1,-1,-1,-2,-2,-1
1513175035060386,0,-2,-1,-1,-1,0,-1,-1
1513175035060386,0,-2,-4,0,-1,-1,1,0
1513175035072395,-1,0,-2,-2,0,-1,-2,-1
1513175035072395,-1,0,-1,-3,0,-1,1,-1
1513175035081401,-1,0,1,0,-1,-3,0,0
1513175035081401,-3,-2,-2,-1,0,0,0,-1
1513175035096466,-3,-2,-1,0,-2,-1,1,-1
1513175035096466,0,-1,0,-3,-2,-2,-1,-2
1513175035097943,-1,-1,-4,-1,-1,-2,-2,-1
1513175035097943,-2,0,0,-1,-2,-1,-1,-3
1513175035118978,-2,-1,-1,0,0,0,-1,0
1513175035118978,-1,1,-1,0,-3,-1,-1,-2
1513175035120470,-1,-1,0,-3,-2,1,0,0
1513175035120470,-1,-1,-1,-2,-1,-2,-2,0
1513175035132467,-1,-1,2,-2,-3,-3,-1,-1
1513175035132467,-1,-2,0,0,-3,-1,1,-1
1513175035141476,-1,1,-1,-1,-1,-2,-2,0
1513175035141476,-3,0,-2,-2,-2,-2,-1,0
1513175035156488,-1,-1,-1,1,0,-1,-3,-1
1513175035156488,-1,-1,-1,-2,-1,-2,0,-2
1513175035157999,0,-2,-2,0,-1,-1,1,-1
1513175035157999,-1,-1,-1,-1,-2,-1,1,-3
1513175035179002,-1,-1,-2,-1,-3,-1,-2,-2
1513175035179002,-3,-3,-1,-1,-2,-1,-2,-1
1513175035180512,1,-1,0,0,0,-2,-1,-1
1513175035180512,0,-1,0,-3,0,0,-3,0
1513175035192510,-1,-1,-1,-2,0,-1,-2,-1
1513175035192510,0,0,-1,-2,0,-2,-2,-1
1513175035202017,-2,-1,-2,0,-1,0,0,-1
1513175035202017,-1,-1,-2,0,-1,-1,-1,-3
1513175035216579,-2,-3,-1,-1,-1,-1,0,-1
1513175035216579,-2,-1,-1,0,-1,-1,0,-1
1513175035218079,-1,-2,-3,-1,0,0,-2,-2
1513175035218079,-2,2,-1,0,-2,-1,-1,0
1513175035254566,-2,0,-2,-1,-3,-1,0,-2
1513175035254566,0,-2,-1,0,1,-1,-1,-2
1513175035256056,0,0,-1,0,-1,-1,-2,-1
1513175035256056,0,-3,-1,0,-1,-1,-2,0
1513175035257057,-1,1,-1,-2,0,-2,-1,0
1513175035257057,-1,2,1,0,-2,-1,-1,-1
1513175035261565,-2,-2,-2,-1,-1,-1,-1,-1
1513175035261565,1,-3,-2,0,1,-2,0,0
1513175035276575,1,0,-1,1,-2,-1,-1,-2
1513175035276575,-1,-1,-2,-2,-1,-1,-3,-2
1513175035278076,0,-1,-2,-3,0,-1,-1,-1
1513175035278076,0,-1,0,-2,-2,0,0,0
1513175035299099,-2,-2,-2,-1,-1,-1,0,-2
1513175035299099,-2,-1,0,0,1,1,0,-1
1513175035300589,-2,-1,0,-1,-2,-2,-1,-2
1513175035300589,0,-2,-1,-2,-2,0,0,-2
1513175035312605,0,-1,-2,0,-1,-1,-1,-2
1513175035312605,-2,-1,-1,-1,-2,-2,0,-2
1513175035321612,-3,-1,-2,-1,-2,0,-2,0
1513175035321612,-1,0,-2,-2,-1,1,-2,-1
1513175035336621,-1,0,-1,0,-1,-2,-2,-2
1513175035336621,-1,-2,-2,-1,-1,-1,0,-1
1513175035338130,0,-1,-2,0,-1,-1,0,1
1513175035338130,-2,0,-1,-3,-1,-2,-2,-1
1513175035358687,-2,-2,-2,-1,0,0,-1,-1
1513175035358687,1,-2,0,-1,0,0,-1,-1
1513175035365191,-3,-2,-2,0,0,0,0,-1
1513175035365191,-1,0,-3,-1,-3,0,0,-3
1513175035372698,-1,1,-2,-1,-2,-1,-1,-3
1513175035372698,0,0,0,-2,-2,-2,-2,-1
1513175035381702,0,-1,0,0,0,1,-1,0
1513175035381702,-1,-1,0,0,-1,0,-2,1
1513175035396719,-2,0,0,-2,0,-1,0,0
1513175035396719,-2,-2,-1,-1,-1,-1,-2,-1
1513175035398210,0,-2,0,-2,-1,-1,-1,-1
1513175035398210,-1,-2,-2,0,-1,-3,-2,-3
1513175035418737,-1,-2,0,0,-3,-2,-2,-1
1513175035418737,-2,-1,-2,0,0,-1,-1,-1
1513175035420739,-1,0,-2,0,-2,0,-1,1
1513175035420739,-1,-2,-1,-1,-1,0,2,-1
1513175035432758,1,1,0,-2,0,-1,-1,0
1513175035432758,-2,2,-1,-2,-2,-1,-1,-1
1513175035441253,0,-1,-1,-3,-1,-2,-2,-2
1513175035441253,-3,-1,-1,-1,1,-1,0,0
1513175035456779,0,-2,-2,-2,-1,-1,-1,0
1513175035456779,0,-2,-1,0,-3,-3,0,0
1513175035458266,-1,-2,-3,-1,-1,0,-1,-1
1513175035458266,0,-2,-2,-2,-1,0,-2,-2
1513175035486789,-1,-1,-1,-2,-1,-2,0,-2
1513175035486789,-1,0,-1,-3,-1,-2,-1,-1
1513175035487787,0,-2,-2,0,-1,-1,-1,1
1513175035487787,-1,-2,-2,0,-1,-1,-2,1
1513175035492301,-1,-1,-2,0,-2,1,-1,-3
1513175035492301,-2,-1,-1,-2,-1,0,0,-4
1513175035501296,-1,0,-2,-1,-1,-1,-1,-1
1513175035501296,-1,0,-2,-2,0,-1,-1,-1
1513175035516307,-3,-1,0,-4,0,-1,-2,0
1513175035516307,-2,0,-2,0,-1,-1,0,-1
1513175035517807,0,-2,0,-1,1,-2,0,-1
1513175035517807,-1,0,0,0,-1,-1,-1,-1
1513175035538838,0,-1,-3,0,-2,-1,0,-1
1513175035538838,0,-1,0,0,-1,0,1,0
1513175035540336,-3,-2,-1,-1,-2,-2,-3,-1
1513175035540336,0,-2,-2,-2,-2,-2,-1,-2
1513175035561338,0,1,-1,-1,-1,0,-1,-2
1513175035561338,-1,0,-1,0,1,0,-3,-1
1513175035562839,0,0,-1,-1,-2,0,0,-2
1513175035562839,0,-2,0,0,0,-2,0,-1
1513175035576371,-2,0,0,-1,0,-1,-2,-1
1513175035576371,0,-3,-1,-1,-2,-2,-2,-1
1513175035577850,-1,-1,0,1,1,0,0,-1
1513175035577850,-1,-2,-2,-1,-2,-1,-2,-1
1513175035598865,-5,-2,0,2,0,-1,0,-1
1513175035598865,0,0,-2,-2,-1,-2,0,1
1513175035601367,-1,-1,-3,-2,-2,-2,-2,-1
1513175035601367,-1,-1,-2,-3,-2,0,-1,-1
1513175035621388,-1,-2,-1,-2,-3,0,-1,-2
1513175035621388,-1,0,0,-1,-1,-1,0,-3
1513175035622884,-2,-1,0,-1,-1,1,-1,-1
1513175035622884,-1,0,0,-1,0,-2,0,1
1513175035636415,-2,-2,-1,-2,-3,-3,0,0
1513175035636415,0,-2,-2,-1,0,-2,-3,1
1513175035637894,-1,-2,-1,-1,0,-1,-1,-2
1513175035637894,-3,-2,-2,-2,-1,-1,-2,-3
1513175035658908,-1,-2,0,0,0,0,-2,-1
1513175035658908,0,-2,-2,-1,0,-2,-2,-1
1513175035660409,1,-1,-2,-2,0,-2,-1,1
1513175035660409,-2,-2,-1,1,0,1,-2,-1
1513175035681440,-2,1,-1,-1,-1,0,-1,-2
1513175035681440,-2,1,-1,-1,-3,0,-2,-1
1513175035682925,-1,-1,-2,-2,-2,-1,-1,0
1513175035682925,0,-2,-1,0,-1,-4,-2,1
1513175035695949,0,-3,-1,2,-1,-1,0,0
1513175035695949,-1,-3,-1,-2,0,-1,-1,-1
1513175035702438,0,-2,-2,0,-2,-1,-1,-2
1513175035702438,-1,-1,-3,-1,-2,-1,0,-1
1513175035718951,-1,0,-2,-1,-3,-1,-1,-2
1513175035718951,0,-1,0,0,-1,-1,0,0
1513175035720475,0,0,-2,0,-1,-3,-2,1
1513175035720475,-1,2,0,-3,-2,-1,-2,-1
1513175035741465,-2,-2,-2,-3,0,-1,0,-2
1513175035741465,-2,-1,-1,0,-1,-1,-1,-2
1513175035742967,-1,-1,0,-1,-2,-2,-1,-1
1513175035742967,-1,-1,-1,0,-2,-1,-1,0
1513175035763996,0,-1,-1,-1,-2,-2,-1,-2
1513175035763996,0,-3,-2,-2,-1,-1,-1,-1
1513175035765504,0,-2,-1,-2,1,1,0,-2
1513175035765504,-3,-2,0,-1,-1,-1,-1,-3
1513175035778992,0,-1,-2,-2,-3,-1,-1,0
1513175035778992,0,-2,-2,0,-2,-1,-1,0
1513175035780498,-4,-2,-2,-2,-1,-4,0,-2
1513175035780498,1,3,0,0,-1,0,1,1
1513175035802008,-3,-1,0,-1,-1,-1,0,-2
1513175035802008,0,-2,1,-2,-1,-1,0,-1
1513175035803513,0,-3,-1,0,-3,0,0,1
1513175035803513,-1,-2,-3,0,-1,0,-3,-2
1513175035816023,-3,-1,0,-3,0,-1,-2,-1
1513175035816023,-2,0,-1,-1,-1,-1,0,-1
1513175035822527,-1,0,-1,-1,-1,-1,-2,-2
1513175035822527,-2,-1,-3,-1,-2,-1,-1,-1
1513175035839047,1,-1,0,0,0,0,-1,-1
1513175035839047,-2,1,-2,-1,-1,-1,1,-3
1513175035840548,-1,-1,-3,-1,-2,-2,-2,0
1513175035840548,0,-1,0,-1,-1,-1,0,-1
1513175035861550,0,-2,-1,-1,-3,0,-1,-1
1513175035861550,-2,-1,0,0,-1,0,-1,0
1513175035863051,0,-2,-2,-1,-2,0,-3,-1
1513175035863051,0,-3,-1,-2,-1,-2,-2,0
1513175035876063,0,-1,-1,0,-1,-2,0,0
1513175035876063,1,-2,-2,-1,-1,0,-1,-2
1513175035882569,1,1,-2,-1,1,1,-1,-1
1513175035882569,-2,-2,0,-1,0,0,-1,0
1513175035899080,-3,0,0,-4,-1,-1,-1,-2
1513175035899080,-1,-1,-2,-1,-1,-1,-3,1
1513175035901099,-1,-4,1,0,-2,0,-1,1
1513175035901099,-2,-1,-3,0,0,-1,0,-2
1513175035921593,0,-1,-1,-1,-1,-1,-1,-2
1513175035921593,1,0,1,-1,0,-1,-1,1
1513175035923095,-2,-2,-1,-2,-2,0,-1,-2
1513175035923095,-2,-2,0,0,0,-2,-1,-1
1513175035935643,0,1,-1,-1,-1,0,1,0
1513175035935643,-3,-2,-1,-1,-1,0,-1,0
1513175035942609,0,0,-3,-3,-1,-1,0,-1
1513175035942609,-2,-1,-1,-3,-3,-1,-1,1
1513175035959130,-1,-1,-1,0,-2,-1,-1,-1
1513175035959130,-1,-2,-1,-1,0,-1,-3,-2
1513175035960631,-1,-1,0,-1,-1,-1,-1,0
1513175035960631,-3,-2,-2,-1,-2,-1,-1,-2
1513175035981650,1,-1,1,0,-1,-3,0,2
1513175035981650,-2,-1,-2,-2,-1,0,0,-1
1513175035983137,-2,-2,-1,-2,0,-3,-1,-1
1513175035983137,-1,0,-1,-2,0,-1,-2,-1
1513175035996171,-1,-1,0,-2,-2,1,-3,-3
1513175035996171,0,-1,-2,0,-1,0,-1,-1
1513175036003176,-1,1,-2,0,-1,-1,-1,-1
1513175036003176,-1,0,0,-2,-1,0,-1,-2
1513175036019188,-3,-2,0,0,0,0,0,-1
1513175036019188,-1,-2,-1,-1,-2,-2,0,-1
1513175036020664,-2,-2,-1,-2,-1,-2,-1,-2
1513175036020664,-1,-1,0,-2,0,1,0,-1
1513175036041706,0,-1,-3,-1,-1,-2,-1,-3
1513175036041706,-1,0,-1,-2,-1,0,-1,1
1513175036043180,-1,-2,-3,-1,-1,1,-2,1
1513175036043180,-2,-1,0,0,-1,-1,0,-1
1513175036063709,-1,-2,-1,-4,0,-1,-3,-1
1513175036063709,-3,-1,-2,-2,0,0,-1,-2
1513175036065710,0,-2,-3,-2,0,-2,0,-2
1513175036065710,-1,0,-1,0,-1,-2,-1,-3
1513175036078727,-3,-2,0,-1,-2,-2,0,1
1513175036078727,0,-2,0,-2,-1,-1,-1,-3
1513175036080715,0,-2,-2,-2,-3,-1,0,1
1513175036080715,0,-2,0,-3,-2,-1,-2,-1
1513175036101720,-2,0,1,0,-1,-2,-1,-1
1513175036101720,-1,-2,0,0,-1,-1,-1,0
1513175036103221,0,0,-1,-1,-1,-2,0,0
1513175036103221,-1,-2,-2,0,-2,0,-2,-1
1513175036115255,-1,-1,-2,-1,-2,-1,-1,-3
1513175036115255,-2,1,0,-1,-1,1,-1,-1
1513175036124237,1,-2,-3,0,-1,-1,-1,-1
1513175036124237,-1,0,-1,0,0,-3,0,-1
1513175036138760,-2,-1,0,-1,-2,-2,-2,-2
1513175036138760,-2,-2,-2,-3,-2,-1,-1,-2
1513175036140249,-1,-1,-2,-3,0,-1,0,-2
1513175036140249,-2,-3,1,-1,1,-1,-3,-1
1513175036161763,-3,-1,-1,-1,-1,-1,1,-2
1513175036161763,0,-2,-1,-2,-1,0,0,1
1513175036163264,-2,-1,-1,-1,-2,-1,-2,0
1513175036163264,1,-2,-1,-1,-2,0,-1,0
1513175036174787,-1,-2,-1,-1,1,0,0,-1
1513175036174787,1,-2,-2,-1,-2,-2,-1,-2
1513175036184312,-2,0,0,0,-1,0,1,-1
1513175036184312,-1,-2,-1,-1,-2,-1,-1,-1
1513175036199303,-3,1,0,-2,-1,0,0,0
1513175036199303,-1,1,-2,0,0,-1,0,-1
1513175036201795,0,-2,0,0,0,-3,-1,1
1513175036201795,-1,0,-2,-2,-1,0,-1,-1
1513175036220805,-1,1,-1,-2,-3,-3,-2,-1
1513175036220805,-1,-2,0,-2,0,0,2,-2
1513175036228812,0,0,0,-1,-1,-1,-1,0
1513175036228812,-3,0,-1,0,-3,-1,0,-1
1513175036234827,0,0,-1,0,-1,0,-1,-2
1513175036234827,1,-1,-1,-1,0,-1,-2,-1
1513175036243823,0,-1,-1,-1,-1,0,0,0
1513175036243823,-1,-2,-1,-1,0,-1,0,-1
1513175036258831,1,0,0,-1,-1,2,1,0
1513175036258831,0,-3,-1,1,-1,-1,0,-2
1513175036260333,-2,-3,-1,-1,0,0,0,-1
1513175036260333,-2,1,-2,-1,-2,-2,-1,-1
1513175036281389,-1,-2,-1,-2,-3,-2,-1,0
1513175036281389,1,0,-2,0,-1,2,-2,-2
1513175036282848,-1,-1,-1,0,-2,-1,-3,0
1513175036282848,-1,-2,-1,-2,-1,-1,-1,-2
1513175036294880,-1,-2,-2,-1,1,0,-2,-3
1513175036294880,-1,0,0,-1,0,3,4,1
1513175036303887,-1,-1,-3,-2,-6,-4,1,-3
1513175036303887,-1,-1,-1,-1,-1,-4,-4,-2
1513175036318904,-2,-2,-1,1,-2,-3,-3,-1
1513175036318904,-1,-2,-3,-3,0,-3,-3,0
1513175036320377,0,-2,-4,-1,1,2,-2,-1
1513175036320377,0,-2,-2,-2,-2,-2,1,0
1513175036341391,-1,-1,-1,0,-1,1,-1,-1
1513175036341391,-3,-1,0,0,0,-2,-3,1
1513175036342892,1,-1,-1,-1,-1,1,1,-1
1513175036342892,0,0,-1,-1,-1,-1,-1,-1
1513175036355400,-1,-2,0,-1,1,1,-1,-2
1513175036355400,-2,-1,-2,-1,-2,-2,-1,0
1513175036363906,-2,1,-2,-1,-1,0,-1,0
1513175036363906,0,0,-1,0,-1,1,-1,-1
1513175036378918,-1,-2,-2,-1,-1,-3,0,-2
1513175036378918,-1,-1,-1,-1,-2,-1,0,-1
1513175036380417,0,-1,-1,-1,0,-3,-2,-1
1513175036380417,0,-2,-1,0,1,0,0,0
1513175036401432,-1,-1,-2,-1,-2,1,0,0
1513175036401432,-1,-1,-3,-2,-3,-2,-2,-1
1513175036402933,-2,-2,-1,-1,-1,0,-2,-1
1513175036402933,0,-2,-1,-1,-1,-1,-1,-1
1513175036423948,-1,-2,0,-1,-2,-1,-1,0
1513175036423948,-1,-2,-1,-3,0,-2,-1,-1
1513175036425449,-1,-1,0,0,0,-1,-1,0
1513175036425449,0,-1,-2,0,-3,0,-1,-3
1513175036438962,-1,0,-1,0,-2,-1,-2,-1
1513175036438962,-2,-3,-1,-1,1,-1,-1,1
1513175036440461,-2,-2,-2,-1,-1,0,0,0
1513175036440461,-2,0,0,-2,-2,0,-2,-2
1513175036461505,0,-1,-3,0,1,0,-2,-2
1513175036461505,0,-1,-1,-1,-2,-1,-1,-3
1513175036463006,0,-2,-2,-3,0,0,0,-1
1513175036463006,-2,0,0,0,0,-2,-1,1
1513175036484037,-2,-1,-1,-1,0,-2,-2,-3
1513175036484037,-1,0,0,1,-1,-3,1,0
1513175036485523,-1,0,-3,-1,0,0,-1,-1
1513175036485523,-1,-2,0,0,-1,0,0,-1
1513175036499062,-2,-2,-1,-3,-1,-2,2,0
1513175036499062,0,-2,-1,0,0,0,-2,-3
1513175036501549,0,-2,-1,0,-1,-2,-4,-1
1513175036501549,0,0,-1,-1,-2,1,0,-3
1513175036521563,-1,-1,-1,-2,-2,-2,-3,-1
1513175036521563,-1,1,-3,0,-2,-2,0,-1
1513175036523049,-1,1,-1,-1,-2,-2,-1,-3
1513175036523049,-2,0,-1,-1,0,-1,-1,1
1513175036544064,-1,-1,1,-2,0,-1,0,0
1513175036544064,-1,0,-2,-3,-1,0,-1,-1
1513175036545565,-2,0,-1,-1,-2,-1,-2,-1
1513175036545565,0,-1,-2,-1,-1,-1,-1,-3
1513175036559076,-1,-1,0,0,-1,-1,-1,-1
1513175036559076,1,-1,-1,-1,-1,0,-1,0
1513175036560576,-2,-2,-1,0,0,-1,-1,-1
1513175036560576,-3,0,0,-2,-1,-1,-1,0
1513175036581591,-2,1,-1,-1,-2,0,0,-1
1513175036581591,0,-3,-1,-1,-2,0,-3,1
1513175036583097,-2,-2,-1,0,0,0,-1,-1
1513175036583097,-1,-3,-1,-1,-1,-3,-2,0
1513175036603687,0,0,-1,-1,-1,-1,0,-3
1513175036603687,-2,0,0,0,0,-3,1,-1
1513175036605672,-1,-1,-2,-1,-3,0,0,-1
1513175036605672,-1,-1,-2,0,-1,0,-1,-2
1513175036619181,1,-2,-2,-1,-2,-1,-3,-2
1513175036619181,-1,-2,-2,-1,-2,-2,-1,0
1513175036621182,1,-2,-3,-2,-1,0,0,-1
1513175036621182,-1,-4,-2,0,-1,0,-2,-3
1513175036641198,-2,0,-1,0,0,-1,0,-1
1513175036641198,-1,-2,-2,-1,0,0,-1,0
1513175036643199,-2,-1,0,-1,-1,-1,-2,0
1513175036643199,-2,0,-2,0,-1,0,1,-1
1513175036663723,-1,0,-1,-1,-4,-1,-1,-2
1513175036663723,-2,-1,-1,-1,0,0,-1,-2
1513175036665719,-1,-1,-1,-1,-2,-2,-2,-1
1513175036665719,0,-2,0,0,-2,-1,-2,-2
1513175036678223,0,-2,0,0,-1,-1,0,-1
1513175036678223,-3,-1,-3,0,-1,-1,-2,0
1513175036685228,-2,-2,-1,0,-2,-1,0,-2
1513175036685228,-2,1,0,-1,-1,0,0,-1
1513175036701750,-1,0,-1,-2,-2,-1,-1,-1
1513175036701750,-2,0,0,-2,0,0,0,0
1513175036703251,0,-2,-1,-1,0,-1,0,-1
1513175036703251,-3,-1,0,-2,0,-1,-2,-1
1513175036723756,-2,1,-1,-1,0,-2,-2,-1
1513175036723756,-1,0,-3,-1,-1,-1,0,-1
1513175036725756,0,0,-2,-1,-1,2,-1,-2
1513175036725756,-2,-2,-1,-3,-1,-2,1,-2
1513175036738265,-2,-2,-2,-1,-1,-1,-1,0
1513175036738265,0,-1,1,0,-2,-2,-1,-1
1513175036744769,0,-3,-1,-1,-1,-1,-3,-1
1513175036744769,-1,-3,-1,-2,-1,-2,0,-2
1513175036761281,1,0,0,-2,0,0,0,-1
1513175036761281,1,-2,-1,-1,-2,-1,-1,-1
1513175036762782,-1,-1,0,0,-1,-1,0,1
1513175036762782,-1,0,-1,0,0,-1,-2,-1
1513175036783800,-2,-2,-2,-1,0,-3,-2,-2
1513175036783800,-1,-2,-1,0,-1,-1,-1,-1
1513175036785298,-2,0,-1,-1,-1,-2,-1,-2
1513175036785298,0,-1,-2,0,-1,-2,0,-1
1513175036798353,-3,0,0,-1,-3,-4,-2,0
1513175036798353,0,0,0,-2,0,-2,-1,0
1513175036804841,0,-1,-1,1,-1,-2,0,-3
1513175036804841,-2,1,1,0,0,0,0,1
1513175036821353,-2,-1,0,-2,1,1,-2,0
1513175036821353,-2,-1,-2,-1,0,0,-1,0
1513175036822858,-1,-1,-1,-1,-1,-1,-1,-1
1513175036822858,-1,-2,0,-2,-2,-1,-2,-2
1513175036843869,0,-2,-1,0,-1,-1,0,-3
1513175036843869,0,-1,-3,-2,-1,-2,1,-1
1513175036845370,0,-2,-1,-2,-1,0,-1,-2
1513175036845370,-2,0,-1,-1,-1,-1,1,0
1513175036858380,-2,0,-1,0,-2,0,0,-1
1513175036858380,-1,-1,-1,-1,0,-1,-2,-1
1513175036864884,0,-1,-2,-1,0,-1,0,0
1513175036864884,0,-1,0,0,1,0,-2,-1
1513175036881411,0,0,-1,-1,-1,-1,-1,-2
1513175036881411,0,0,-2,-2,-2,-1,-1,0
1513175036882897,-2,-2,-3,-3,-1,0,-2,-1
1513175036882897,-2,0,-1,-1,-2,-2,-1,-2
1513175036903935,-1,-1,-1,-2,-1,-1,0,-1
1513175036903935,-1,-2,0,-2,-1,-1,-2,-1
1513175036905412,-1,0,0,-1,-2,-1,-2,1
1513175036905412,-2,-1,-1,-2,-1,-1,0,1
1513175036918435,-1,-2,-2,-1,-1,-2,0,-1
1513175036918435,-2,-1,-1,-1,0,0,0,0
1513175036924940,-1,-2,0,0,0,-2,-1,0
1513175036924940,-1,-1,-1,-1,-4,-2,0,0
1513175036941445,1,-3,0,-1,-1,-2,-1,-1
1513175036941445,-1,-2,-1,-1,-1,-2,-1,-1
1513175036942940,-2,-2,-3,0,-3,-2,-1,-1
1513175036942940,-2,0,-1,0,-1,-2,0,-1
1513175036963965,0,-1,-1,-3,-1,-2,-2,0
1513175036963965,0,0,-2,1,-1,0,-1,1
1513175036965468,-1,0,-3,1,2,1,0,-1
1513175036965468,-2,-1,-1,-1,-2,-2,-1,-1
1513175036977475,-1,-1,0,-2,-2,0,-2,-2
1513175036977475,-1,-1,-1,-1,-1,-1,-1,-1
1513175036993976,0,-1,0,0,-1,-1,-1,-1
1513175036993976,3,0,0,0,0,-1,-1,-2
1513175037001517,-7,-1,-2,0,-1,-1,-1,-2
1513175037001517,-2,-2,-3,-1,-1,0,0,-2
1513175037003037,0,-1,-1,-1,-3,-2,-1,-1
1513175037003037,-2,6,0,-1,0,0,-1,-2
1513175037024029,7,0,-1,0,2,0,0,1
1513175037024029,13,-1,-1,0,-1,-1,-2,-3
1513175037025531,8,6,-1,-2,-1,-1,-1,0
1513175037025531,-23,-14,-3,-2,-2,-2,-2,-5
1513175037037559,-4,-2,-1,-3,-2,-2,-1,-1
1513175037037559,-1,1,-2,-2,0,0,-3,0
1513175037046563,5,-1,0,0,0,0,-2,1
1513175037046563,6,8,1,1,-2,-1,-1,1
1513175037061555,-1,2,0,0,-2,3,1,-1
1513175037061555,-4,-3,-2,-1,0,-3,1,0
1513175037063057,-1,3,-2,-1,-1,-2,-1,-3
1513175037063057,0,-3,0,0,0,-3,-1,-1
1513175037084090,-2,-4,-1,0,-1,-2,-3,-2
1513175037084090,-1,1,0,-1,-3,-1,0,0
1513175037085596,-6,-5,-3,-1,-1,0,-2,-1
1513175037085596,3,-3,-3,-2,0,0,0,-1
1513175037097603,3,1,-3,-1,-2,-2,0,0
1513175037097603,-2,-1,0,-2,-2,-3,-2,0
1513175037106588,-5,-5,-1,-1,-1,-2,-1,-2
1513175037106588,1,0,-1,-1,-2,-1,-3,-1
1513175037121604,-1,0,0,0,-1,-2,0,-1
1513175037121604,-2,-3,-3,-1,0,-1,0,-1
1513175037123100,-5,-4,0,-2,0,0,-1,-1
1513175037123100,4,-1,-3,-1,-1,-1,-2,0
1513175037144127,-2,0,-1,0,-2,0,-2,-1
1513175037144127,-2,-2,0,-1,0,0,-1,-1
1513175037145630,0,-2,-2,-2,-1,-2,-2,0
1513175037145630,0,-2,0,-3,-1,1,-2,-1
1513175037157624,-2,-1,-1,-2,0,0,-2,-1
1513175037157624,-2,-1,-1,0,-1,-1,-1,0
1513175037166639,0,0,-2,-1,-2,0,0,-2
1513175037166639,-1,0,-1,0,-1,0,-1,-3
1513175037181140,-2,-3,0,-2,-1,-2,0,0
1513175037181140,0,1,-1,-2,0,-1,1,0
1513175037183145,-5,-2,-1,-1,-2,-1,-2,-1
1513175037183145,0,0,0,-2,-1,-1,-1,-2
1513175037203682,-1,-3,-1,0,-1,-1,-2,-3
1513175037203682,-2,-2,-1,0,-2,-1,-1,-2
1513175037205671,-1,-1,0,-1,0,-2,1,-1
1513175037205671,0,-1,0,0,-3,-1,1,-1
1513175037217678,0,-1,-2,-1,-1,-2,-1,-1
1513175037217678,0,-4,-1,0,-2,0,-1,-1
1513175037226676,1,1,-1,-1,-1,2,0,0
1513175037226676,-1,-1,-2,-2,-2,-1,0,-1
1513175037241695,-1,1,-1,-2,-1,-3,-1,0
1513175037241695,-4,0,-2,-1,0,-2,-2,-1
1513175037243197,-2,-2,0,-1,-1,-1,0,-3
1513175037243197,-1,-1,-1,-2,-1,-1,0,0
1513175037263712,1,-1,-1,0,-2,2,0,-2
1513175037263712,0,-2,-1,-1,-1,-3,0,-1
1513175037265713,-1,-2,-1,-1,0,0,-2,-2
1513175037265713,-3,-1,0,-1,-1,0,-1,-1
1513175037277709,-2,-3,-1,-1,0,0,-1,-2
1513175037277709,0,-1,0,-4,0,0,0,0
1513175037286735,0,-2,-3,1,-2,-1,-2,-1
1513175037286735,-2,-1,0,0,0,-3,-3,-2
1513175037301743,-1,-2,-1,1,-1,-4,-1,1
1513175037301743,1,-2,-1,-1,1,-1,0,-1
1513175037303232,0,-3,0,-2,-2,0,0,1
1513175037303232,1,-2,-1,-1,-1,-2,-3,-2
1513175037324244,-2,1,-1,-3,-1,0,0,-3
1513175037324244,-2,0,-1,-1,-1,0,-1,-2
1513175037325746,-1,-1,0,-1,-1,0,-2,-1
1513175037325746,-2,1,0,-2,-1,-1,-1,-3
1513175037337761,0,1,0,-2,-1,0,-1,0
1513175037337761,0,0,-4,-1,-3,-1,-1,-1
1513175037346258,-1,-1,-2,-2,0,-3,-2,0
1513175037346258,-1,-1,0,-2,-1,-2,-1,0
1513175037361320,-1,0,1,-1,-2,-2,0,0
1513175037361320,-2,-1,-1,-1,0,-2,-2,0
1513175037362821,-1,-3,-2,-3,0,-1,-1,1
1513175037362821,0,-1,-2,-1,0,-2,-1,-1
1513175037383837,-1,-2,-3,-2,-1,-1,-3,-2
1513175037383837,-1,-3,-1,-1,-2,-1,2,-1
1513175037385337,1,-1,-1,-1,-2,-2,0,0
1513175037385337,-1,-1,0,-1,-1,1,1,0
1513175037397847,0,-1,0,0,-1,0,-2,-1
1513175037397847,1,1,-2,-2,0,0,0,0
1513175037412357,-1,-2,-1,-1,-1,-2,-2,-1
1513175037412357,1,1,-2,-2,-1,0,1,-1
1513175037421364,-2,0,-1,-1,-2,-1,-2,-2
1513175037421364,0,-1,-3,0,-1,-1,-1,-2
1513175037422865,-1,-1,0,-1,-1,-2,0,-1
1513175037422865,-4,-4,-2,-1,-1,-2,-1,0
1513175037443894,-1,-2,-2,0,-1,-1,0,-1
1513175037443894,-1,0,-2,-1,-1,-1,-2,0
1513175037445391,-2,1,-2,-2,-2,0,-2,-2
1513175037445391,0,-1,0,0,-2,0,-1,-1
1513175037467406,-1,-1,-2,-2,-1,0,1,-1
1513175037467406,-2,-2,-1,-1,-2,1,-2,-1
1513175037468908,-1,-2,-1,-1,-1,0,-1,-2
1513175037468908,-3,0,-1,0,0,-2,-1,-2
1513175037481421,-2,-1,-1,-2,0,-2,-1,-1
1513175037481421,-3,-1,-1,0,-2,-1,-2,0
1513175037482907,-3,0,-2,-1,0,0,1,-2
1513175037482907,-1,0,0,-1,-1,-1,-1,-1
1513175037503921,1,0,-2,-1,-2,0,0,-1
1513175037503921,0,-2,-1,0,0,-2,-2,0
1513175037505423,-7,-4,0,-1,0,0,-2,0
1513175037505423,1,-1,-1,0,-1,-1,-1,-1
1513175037526440,0,-1,-1,-1,-2,-2,-2,0
1513175037526440,0,2,-1,-3,0,-1,-3,-2
1513175037527938,-3,-1,-2,-2,-1,1,0,-1
1513175037527938,-4,0,-3,-1,-1,-1,0,-2
1513175037540948,2,-3,-1,-1,-1,-1,-2,-1
1513175037540948,-2,0,-2,-1,-1,-3,1,0
1513175037547491,1,-2,-2,-1,-1,-2,0,-2
1513175037547491,-3,-1,-1,-1,-2,-2,0,-2
1513175037562963,-1,-3,-1,-2,-1,-2,0,-1
1513175037562963,0,0,-2,-2,-3,-2,-1,1
1513175037571469,-2,-3,-3,-1,-1,-2,-1,-2
1513175037571469,-1,-1,-1,-1,-2,-2,0,-2
1513175037586482,-2,-3,-1,-1,-1,0,-2,-2
1513175037586482,-2,-3,0,1,-1,0,-1,-1
1513175037587981,0,-1,-2,0,-4,-1,-1,0
1513175037587981,0,4,-1,0,-1,0,-1,0
1513175037600990,-1,0,-1,-2,1,-2,0,-1
1513175037600990,0,-3,-2,-2,-1,-1,-1,-1
1513175037607495,0,0,-1,-1,-1,-2,0,-2
1513175037607495,-1,-3,-2,-2,0,-1,-1,-2
1513175037624007,-2,-3,-1,0,-2,0,-1,-2
1513175037624007,-1,-3,-2,0,0,-1,-1,0
1513175037625517,-2,0,-2,-3,0,-2,-1,0
1513175037625517,-2,1,-1,-1,-2,-1,-2,-1
1513175037646525,-1,1,-3,-1,0,-2,1,-1
1513175037646525,-2,-1,-1,0,-2,1,-1,0
1513175037648023,2,-1,-1,1,-2,0,-3,0
1513175037648023,0,-1,0,-1,-1,0,-2,-3
1513175037660532,-4,-4,-1,-1,-2,-1,-2,0
1513175037660532,-1,-2,-4,-1,0,-1,1,-2
1513175037667576,-1,1,-2,-3,-2,-2,-1,-1
1513175037667576,0,0,0,-1,-1,0,0,-1
1513175037684051,0,-3,-1,-1,0,-1,-1,-2
1513175037684051,-2,-2,-1,1,0,-1,-2,-1
1513175037685553,0,-1,0,0,1,0,0,-1
1513175037685553,1,-2,1,-3,0,1,-1,-2
1513175037707100,-1,-2,-1,-1,-1,0,1,1
1513175037707100,-1,0,0,-2,-2,-2,-2,0
1513175037708601,-1,-2,-3,-1,-2,-2,-2,-2
1513175037708601,-3,-2,-1,-2,-1,-1,-1,0
1513175037720608,0,-1,-1,0,-1,0,0,-1
1513175037720608,0,0,0,-2,0,-4,-1,0
1513175037727613,0,0,0,-1,-2,0,-1,-2
1513175037727613,0,-2,-2,-2,-2,-1,-1,-1
1513175037743638,0,1,0,0,0,-1,-2,-2
1513175037743638,-4,-2,-2,-2,0,0,-1,-1
1513175037745646,-2,-1,-2,-3,0,-2,-2,-1
1513175037745646,-3,-2,-2,1,0,-1,-3,-1
1513175037766647,0,-3,-1,-2,0,0,1,0
1513175037766647,-1,-2,-2,0,-1,0,-2,-3
1513175037768142,-1,-1,-1,-2,0,-2,-2,-1
1513175037768142,0,-2,-1,-2,-1,0,0,-2
1513175037780743,-1,-1,-1,-1,0,-3,-2,-2
1513175037780743,-1,-1,-3,-1,-2,1,-1,-1
1513175037787737,0,-1,1,-1,-2,-1,0,0
1513175037787737,-2,0,-2,-1,-2,-2,-1,-2
1513175037803778,-1,1,-1,-2,-2,-1,-1,0
1513175037803778,1,2,0,-1,0,0,-2,0
1513175037805742,-7,-5,-1,-1,0,-1,-1,-3
1513175037805742,-2,-1,0,-1,-3,0,1,0
1513175037826264,1,0,-3,-2,0,-1,-1,-1
1513175037826264,1,-2,-2,0,-1,-1,-1,-1
1513175037828254,2,0,-2,0,-1,-1,-3,0
1513175037828254,-5,-3,-1,-1,-2,-1,-1,-1
1513175037840762,-1,-2,-1,0,-2,0,-1,-1
1513175037840762,-1,-2,-1,-1,-2,1,-2,0
1513175037847766,-1,1,0,-2,-2,-3,1,-1
1513175037847766,-1,1,0,-1,-1,-2,-2,0
1513175037863789,-2,1,-1,0,0,-1,-1,0
1513175037863789,-2,-4,-2,-1,-1,0,-1,0
1513175037865279,0,0,-1,-2,-1,0,1,-1
1513175037865279,1,-1,-2,-1,0,0,-2,-3
1513175037886297,-4,-5,-2,-2,0,-2,-1,1
1513175037886297,0,-2,0,-2,-2,-2,-2,-1
1513175037887796,-1,-1,-2,-1,-1,0,-1,-1
1513175037887796,0,1,-1,-2,0,-2,-1,-1
1513175037908934,0,1,0,-1,0,0,-1,-2
1513175037908934,0,-1,-3,-1,-1,-1,1,-1
1513175037910424,-1,-2,0,0,-1,-1,-2,-1
1513175037910424,-5,-2,0,0,-3,-1,-1,-4
1513175037923925,-2,0,-1,-2,-3,-2,-2,-2
1513175037923925,-1,-2,-2,-1,-1,0,-2,0
1513175037925434,0,-2,-2,-1,-2,1,-1,-2
1513175037925434,1,-2,0,0,-1,0,-2,1
1513175037946462,-3,-3,-2,-1,-1,-1,-1,-1
1513175037946462,-1,-2,0,-1,-1,-1,0,1
1513175037947939,-2,-2,-1,-2,0,-2,2,0
1513175037947939,1,-1,-1,-1,0,-1,-1,-1
1513175037959960,1,1,0,0,-2,0,0,0
1513175037959960,-5,-3,-2,-1,0,-2,-1,-2
1513175037968954,-1,-3,-1,-1,-2,-1,-2,-2
1513175037968954,-2,-2,-2,-1,0,-1,0,-3
1513175037983982,0,0,-1,-2,0,-2,-2,1
1513175037983982,-1,-1,-1,0,-2,-1,-1,-1
1513175037985468,-3,1,-2,0,-1,-1,-3,-1
1513175037985468,-2,2,-2,-2,-2,-1,-1,-1
1513175038006481,-1,0,-2,-2,-2,-1,-2,-1
1513175038006481,-2,-1,-2,-1,0,-1,0,0
1513175038007982,0,-1,0,-1,-1,-2,0,0
1513175038007982,0,0,0,1,0,-2,-1,1
1513175038020015,1,-2,-2,-2,-2,-3,0,-1
1513175038020015,1,0,-2,-1,-1,0,0,0
1513175038029013,0,-1,-1,-1,-1,-2,-1,-1
1513175038029013,-2,-3,-1,-2,-1,0,-1,-1
1513175038044017,-3,1,1,1,-1,0,-1,-2
1513175038044017,-1,-1,-3,-2,-1,-2,0,0
1513175038045507,-3,0,0,-1,-2,-2,-2,-1
1513175038045507,-2,-2,1,-2,-1,-1,-1,0
1513175038066540,-2,-1,-1,-1,0,-3,0,-1
1513175038066540,0,-2,0,-1,0,-3,-1,0
1513175038068042,-2,0,-1,0,-1,-1,0,-1
1513175038068042,-1,-2,-2,0,-1,-3,0,0
1513175038080057,1,-2,-1,-1,-1,1,-2,-1
1513175038080057,-1,-1,-3,-1,0,-1,-3,-2
1513175038095042,0,-1,-2,-2,-2,-1,1,-2
1513175038095042,1,1,-1,-1,-2,-1,-1,0
1513175038104051,-1,-4,-2,-1,-1,-3,-1,-1
1513175038104051,-1,0,-1,-1,-1,-1,-1,0
1513175038105550,-2,0,-1,-2,1,0,-2,-1
1513175038105550,-1,-1,0,1,-2,-2,-2,-2
1513175038126089,-2,2,0,1,0,-1,1,-2
1513175038126089,0,-2,-1,0,-1,-1,0,-1
1513175038132570,-3,-3,-2,-1,0,-2,-1,-1
1513175038132570,1,-2,-1,-3,0,-2,-1,-2
1513175038140101,-1,0,-1,-3,-1,-1,0,2
1513175038140101,-2,0,-1,0,-3,-2,0,0
1513175038149081,-4,-2,-2,0,-3,-1,0,-1
1513175038149081,-1,-3,-1,-2,-1,-1,-1,-3
1513175038164092,-1,-1,-2,-1,0,-1,-1,-1
1513175038164092,1,-1,-2,-2,-1,-1,0,-1
1513175038165593,3,1,0,-2,-1,0,-2,-1
1513175038165593,0,0,-1,-2,-2,-2,-1,-1
1513175038186617,-1,-4,-3,-2,-1,-1,-1,-2
1513175038186617,-1,0,-2,1,-2,-2,-1,1
1513175038188112,-1,-1,-1,-1,-1,-1,-2,0
1513175038188112,-1,0,1,-1,0,-1,0,-1
1513175038200139,0,-1,-1,-1,0,0,0,1
