timestamp,emg1,emg2,emg3,emg4,emg5,emg6,emg7,emg8
1514955407738102,-1,-1,-3,-3,0,-2,-1,-1
1514955407738102,-1,-1,-1,-1,-1,0,-1,-2
1514955407754113,-1,-2,-4,-1,0,-1,-1,-2
1514955407754113,-1,-2,0,1,-2,1,1,-1
1514955407755117,-2,-1,-2,-3,-2,-1,-3,-1
1514955407755117,-1,-1,0,-1,-1,-2,-1,1
1514955407777124,-3,-1,-1,-1,0,-3,-1,-2
1514955407777124,-1,-1,-1,-3,0,-2,1,-1
1514955407780149,-2,-3,-2,0,-1,-1,0,-3
1514955407780149,0,0,-3,-1,0,-2,-1,-2
1514955407791137,-2,-1,-1,-1,-3,0,-1,0
1514955407791137,0,-1,1,-1,0,0,-1,-1
1514955407797138,-1,-2,0,1,-2,-1,-1,0
1514955407797138,-3,-1,-1,-1,0,-3,0,-1
1514955407813150,-2,0,-2,1,0,-1,0,-1
1514955407813150,1,-1,-3,-3,-1,-1,0,-2
1514955407815151,-2,0,-1,-1,-1,-2,-2,0
1514955407815151,-1,-3,0,-1,-2,-1,-1,0
1514955407836167,0,-2,0,-3,-2,-1,0,-2
1514955407836167,-1,-1,-1,-1,-1,-1,-2,-2
1514955407838170,1,0,0,-1,-1,-1,-2,0
1514955407838170,0,-2,-2,-2,-1,-2,-1,-3
1514955407849176,-1,1,-1,-1,-1,-2,-1,0
1514955407849176,-2,0,0,-2,-1,-1,1,-1
1514955407859183,0,-1,-1,-1,-1,-2,0,-2
1514955407859183,-2,0,-2,0,0,-1,-1,0
1514955407874206,0,-1,-1,0,0,0,1,-1
1514955407874206,-3,-1,-3,1,-2,-1,-2,-3
1514955407877197,-1,-2,1,0,-2,-1,-2,-5
1514955407877197,-2,-1,0,-2,-1,1,-1,0
1514955407896209,-2,-1,-1,0,0,0,-1,-3
1514955407896209,0,-1,1,0,-1,-1,1,0
1514955407897210,-2,0,-3,-2,-1,-2,-1,0
1514955407897210,-1,-1,-1,0,0,-2,-4,-3
1514955407910235,-2,-1,-3,-2,-2,-3,0,-1
1514955407910235,-1,-1,-1,-1,-2,-2,-1,2
1514955407921248,0,-1,0,-3,-2,-1,-1,-2
1514955407921248,2,-2,-1,0,0,-1,0,0
1514955407933236,1,-1,-1,-3,-1,-1,-2,0
1514955407933236,-2,-2,-2,0,-2,0,0,-3
1514955407935236,0,-1,-2,-1,-1,-1,2,-3
1514955407935236,-2,-2,-2,-1,-3,-2,-3,1
1514955407956251,2,0,0,-1,-1,0,-2,-2
1514955407956251,0,-2,0,-1,0,-2,-1,-1
1514955407958252,-3,-1,-2,2,-1,0,0,0
1514955407958252,-1,-2,-2,-1,-1,0,-1,-2
1514955407970262,-2,-1,-2,-1,0,1,-3,0
1514955407970262,0,-1,-1,-2,-1,-1,-1,-2
1514955407979267,-1,0,-2,-1,-1,-3,-2,-1
1514955407979267,-1,-2,-2,1,-1,-1,-1,-2
1514955407993281,0,-2,-1,0,0,0,1,-1
1514955407993281,-1,-2,-1,-3,-2,0,-1,-2
1514955407997280,-3,-1,0,-2,1,-1,0,-2
1514955407997280,0,-2,-2,-1,1,-3,2,-2
1514955408016311,-2,-1,-3,-2,-2,-2,0,-2
1514955408016311,-3,-1,-1,-1,-1,0,2,-1
1514955408019296,1,0,0,-1,0,1,0,0
1514955408019296,0,1,-1,-1,0,0,-5,1
1514955408030318,0,-1,-1,-1,-1,-1,0,-1
1514955408030318,0,0,-1,-1,-1,0,-1,-2
1514955408038324,-1,-1,-2,-1,-2,-2,-2,0
1514955408038324,0,-1,-1,-2,-1,0,-1,1
1514955408053334,-1,-2,-1,-2,0,-2,0,0
1514955408053334,-1,-2,-1,-1,0,-3,0,-1
1514955408055331,-2,1,-1,-2,-3,-1,-2,-2
1514955408055331,-3,-3,-1,-1,-2,-2,0,-3
1514955408076351,-2,-3,-1,-2,1,-1,0,0
1514955408076351,-1,-1,-4,-1,-2,0,0,-4
1514955408079338,0,-2,0,1,0,-2,0,-1
1514955408079338,1,-1,-1,-1,-2,-3,0,1
1514955408090348,-3,-1,-1,0,0,-1,0,0
1514955408090348,-3,0,0,-2,0,1,-1,0
1514955408098364,0,-1,-1,-2,-1,-1,-1,-1
1514955408098364,0,-2,0,-2,-1,0,-1,1
1514955408113376,4,0,-1,-1,-3,0,-1,-2
1514955408113376,0,-1,-2,-2,-2,-1,-4,-1
1514955408115374,-2,-2,0,0,-1,-1,-1,-1
1514955408115374,-1,0,-1,0,-2,-1,-2,-2
1514955408136381,-2,-2,-1,0,-1,-1,0,-3
1514955408136381,0,0,-2,-1,-1,0,0,-2
1514955408137381,0,0,-1,-1,0,-2,-1,0
1514955408137381,0,-1,-1,-1,-2,-2,1,0
1514955408149455,-1,-1,0,-3,-3,-3,-3,0
1514955408149455,-1,-1,0,0,-1,-3,0,-2
1514955408164477,0,0,-1,0,0,-1,-2,0
1514955408164477,-2,0,-1,0,0,-1,0,-1
1514955408173466,-1,-1,0,0,0,-1,-1,1
1514955408173466,-2,-2,-2,0,-1,-2,2,0
1514955408175484,0,-3,-3,-3,1,-2,1,0
1514955408175484,-1,-1,-1,-2,0,1,-4,-1
1514955408196493,-2,0,-2,-1,0,-2,-2,-3
1514955408196493,-2,0,0,0,0,-1,-2,-2
1514955408197480,-1,-3,-1,0,-1,1,-2,0
1514955408197480,-1,-2,0,-1,-1,-3,-2,-1
1514955408210491,0,-1,0,-2,-2,-1,-1,-1
1514955408210491,0,1,-1,-1,2,-2,0,-2
1514955408218508,0,-1,-3,0,0,0,-2,0
1514955408218508,-1,0,0,-2,-3,-2,0,-2
1514955408233518,0,-2,-2,1,-1,0,0,-2
1514955408233518,0,-2,-2,-3,-2,0,-1,1
1514955408235507,1,-2,-1,-1,-1,0,0,-2
1514955408235507,-2,-3,-2,-1,-1,-2,-2,-2
1514955408257523,-3,-1,-2,-1,-1,-2,-1,-1
1514955408257523,-1,-1,0,-1,-1,-1,-1,-1
1514955408259524,-1,-1,0,-1,0,-1,-2,1
1514955408259524,-1,0,-2,-1,-1,0,-1,1
1514955408279553,-1,1,-1,-1,-1,-1,-2,0
1514955408279553,-2,-2,-3,-1,-2,-2,-1,-2
1514955408280539,-1,0,0,-1,-1,-1,0,0
1514955408280539,1,-1,-2,-1,-1,-1,-2,0
1514955408293558,-1,0,-1,0,0,0,-2,1
1514955408293558,0,0,0,1,0,1,-4,-2
1514955408295556,-2,1,-2,-1,-2,-2,0,-2
1514955408295556,-1,-1,-1,-2,0,-1,0,-2
1514955408316564,-2,-1,-1,-3,-1,-2,-1,-2
1514955408316564,0,0,0,0,-1,0,-2,-2
1514955408318565,0,-1,-2,0,-2,-2,-1,-1
1514955408318565,1,-2,-1,-1,0,0,-1,-1
1514955408338580,-3,-1,-3,-3,-1,-1,0,-2
1514955408338580,-2,-1,1,-1,-1,-1,0,-1
1514955408340582,-2,-2,-1,-2,-1,-1,-2,-3
1514955408340582,-2,-1,-2,1,-1,-1,1,-2
1514955408353593,1,-2,-3,-1,-2,0,0,0
1514955408353593,-2,0,0,-3,0,0,0,0
1514955408355593,-1,-1,-2,-2,-1,-1,0,-2
1514955408355593,-1,-2,-1,0,1,-1,0,1
1514955408375606,-1,-3,-1,-1,-2,-4,-4,-2
1514955408375606,-2,-1,0,-2,-1,0,-2,-3
1514955408378608,-1,1,0,-2,0,-2,0,-1
1514955408378608,-1,-2,-1,-2,-2,-2,0,0
1514955408398635,-1,-1,-1,-1,-2,-2,-1,-1
1514955408398635,-1,-3,-2,0,-2,-2,1,0
1514955408400623,-1,0,-1,-2,0,0,-3,-3
1514955408400623,-2,-1,-1,-1,0,-4,-3,-2
1514955408413634,1,-1,0,0,0,-1,-1,-3
1514955408413634,-2,-2,-2,-1,-2,-1,0,0
1514955408415634,0,0,-1,-2,0,-1,1,-2
1514955408415634,-2,0,-1,-2,0,-1,-4,-2
1514955408436652,-2,-2,-1,-1,0,-1,-5,1
1514955408436652,-1,-2,0,-1,-1,-1,-2,-2
1514955408437649,0,-1,-2,-1,-2,0,-1,-1
1514955408437649,-1,-2,-1,-2,-1,1,-1,-3
1514955408458731,-3,-2,-1,-1,-2,-2,0,0
1514955408458731,0,-1,-1,-1,-2,-1,2,-1
1514955408460728,-2,-1,-2,0,-3,-1,0,1
1514955408460728,0,0,-2,-1,-1,-3,-1,-1
1514955408472756,0,-2,0,-3,1,2,-1,0
1514955408472756,0,-1,-2,-1,-2,0,-1,0
1514955408479761,0,0,0,-1,0,0,-1,-3
1514955408479761,-3,-1,-4,0,-2,-1,-1,-1
1514955408495752,0,1,-1,-2,-3,-3,-1,-1
1514955408495752,-1,-1,-1,-2,1,-1,-1,-2
1514955408497754,-3,-1,1,-1,-2,-2,0,-1
1514955408497754,-3,-1,-1,-2,-1,-1,-2,2
1514955408518770,-1,-1,0,-1,0,-3,0,1
1514955408518770,0,-2,-2,-2,-2,0,-1,-4
1514955408520770,-1,-1,-2,1,-2,-3,-1,0
1514955408520770,-1,0,-2,-1,-1,0,1,-3
1514955408532791,-1,-2,-2,0,-3,-1,0,-3
1514955408532791,-3,-1,-2,-1,0,-3,-1,-1
1514955408540793,1,-3,0,-1,-1,0,0,1
1514955408540793,2,-2,-1,1,1,0,-1,1
1514955408555812,-3,0,-1,-2,-1,-1,-4,0
1514955408555812,0,0,-1,0,-3,-1,-2,-3
1514955408557806,-2,-1,-1,-3,-3,2,-1,-1
1514955408557806,-1,-1,-2,-1,-3,-1,2,0
1514955408578839,-2,-1,-1,0,0,-1,0,0
1514955408578839,-3,-2,-1,-2,-2,0,0,0
1514955408580843,-2,0,-2,-2,-3,-1,-2,-3
1514955408580843,-1,-1,-1,1,0,0,0,1
1514955408592866,-1,-2,-2,-2,0,1,-2,-1
1514955408592866,0,0,-1,-2,0,-3,-2,1
1514955408599856,0,-2,0,-1,-2,0,1,-5
1514955408599856,0,-1,0,-3,-1,-3,-2,-3
1514955408615871,0,-3,-3,-1,0,-2,1,0
1514955408615871,-1,-1,-2,0,-1,-1,-2,1
1514955408618870,0,-2,-1,-1,-1,0,1,-1
1514955408618870,-1,-1,-1,-2,-2,-1,-1,-2
1514955408638897,0,-1,-1,-2,-2,0,-1,-1
1514955408638897,-3,-1,-1,-2,-2,-1,-3,-2
1514955408639895,-3,-1,-1,0,1,-1,1,-1
1514955408639895,-3,-2,-1,0,-2,-1,-2,-1
1514955408652911,-1,-1,-2,-2,-1,-1,-2,-2
1514955408652911,0,0,-1,0,-1,0,-1,-3
1514955408659910,-1,-1,-1,-3,-2,-1,1,-3
1514955408659910,1,0,0,-2,-1,-2,-1,0
1514955408675924,-3,-2,-2,-1,0,-1,-1,1
1514955408675924,-2,-2,-1,0,-1,0,0,1
1514955408677925,-2,-2,-1,-1,0,0,-3,-2
1514955408677925,-2,-1,-1,-1,-1,1,-2,-3
1514955408698937,1,-3,-1,-1,1,-2,-2,-3
1514955408698937,0,-1,-1,-1,-1,-1,4,-2
1514955408699928,-1,-1,1,0,-2,0,-1,2
1514955408699928,0,-2,-1,-1,-1,-1,-2,2
1514955408711947,-3,0,-2,-2,-2,-1,-2,-1
1514955408711947,0,-2,-1,-2,0,1,-2,-2
1514955408720944,-2,-1,-1,-1,0,-1,-2,-1
1514955408720944,-1,-1,0,-1,-2,0,-1,-2
1514955408736960,0,-2,1,0,-1,-3,2,1
1514955408736960,1,0,-1,-1,-2,-1,0,-3
1514955408739969,-1,0,-1,-1,-2,-2,0,-1
1514955408739969,-3,-1,-2,-2,-1,-1,-1,0
1514955408758981,0,1,-3,-2,-1,-1,-1,-2
1514955408758981,-2,-2,-2,-3,-1,0,-1,0
1514955408759981,-1,0,-1,-1,-1,-2,0,-2
1514955408759981,0,-2,-2,-1,-3,-1,-1,0
1514955408771977,-3,0,-2,0,-2,-1,-1,0
1514955408771977,0,-2,-1,0,-1,0,-1,-1
1514955408783986,-2,0,-1,-2,-2,-2,-4,-2
1514955408783986,0,-1,-2,0,0,-2,0,0
1514955408796021,-1,-1,-1,-2,-1,0,1,-1
1514955408796021,0,0,-4,1,0,-1,0,-1
1514955408798008,-3,-3,-1,0,0,0,-1,-4
1514955408798008,-1,-3,-1,-1,0,-1,-2,-2
1514955408820013,2,-1,-1,-1,-1,1,-4,0
1514955408820013,-1,-2,0,-1,-1,1,-1,-1
1514955408823015,0,-1,-2,-2,0,-1,1,0
1514955408823015,-3,-2,-3,-2,-2,-2,0,1
1514955408832023,-3,-1,-1,-1,0,-2,-1,-1
1514955408832023,-1,-1,0,-1,-2,-1,-1,-2
1514955408841028,0,0,-1,0,-1,-3,-3,-1
1514955408841028,2,-1,-1,-2,-2,-1,0,1
1514955408856036,-1,-1,-1,-2,0,-1,-1,-2
1514955408856036,-5,-1,-1,0,-1,-1,0,0
1514955408858051,1,-2,-2,-2,0,0,0,-4
1514955408858051,-1,0,-2,-1,0,0,-2,-2
1514955408886058,-1,-2,-3,-1,-3,0,-3,-1
1514955408886058,0,-2,-1,-1,-2,0,0,0
1514955408888061,-2,-2,-1,-2,0,-1,0,-1
1514955408888061,-2,-1,-1,-1,-1,-1,-1,0
1514955408892063,0,-1,-2,-1,-2,-2,0,-3
1514955408892063,0,-1,0,-2,-1,-2,-2,-1
1514955408901068,-2,0,-1,-1,0,-1,0,0
1514955408901068,0,-2,-1,0,1,0,-1,-2
1514955408916091,-2,-2,-1,1,-1,-2,0,-1
1514955408916091,0,0,-1,0,-2,0,-3,-3
1514955408918093,-2,0,-1,-2,-2,-1,-1,-1
1514955408918093,0,0,-2,-3,-1,-3,0,0
1514955408939096,-2,0,-1,-2,-2,-1,0,-1
1514955408939096,-1,0,-1,-3,0,-3,-1,0
1514955408943100,-1,-1,-2,0,-1,-1,-2,-2
1514955408943100,-1,-1,-1,0,0,-1,-2,0
1514955408952106,-1,0,-1,0,0,-1,0,-1
1514955408952106,-2,0,-1,-2,-1,0,-1,-2
1514955408961139,0,-1,0,0,-2,-1,-1,0
1514955408961139,0,0,-1,-2,-1,-1,0,-1
1514955408976134,-1,-2,1,2,0,2,0,0
1514955408976134,0,1,-1,-2,0,-1,-2,-2
1514955408978124,0,0,-1,-1,-2,0,-1,0
1514955408978124,-1,0,-1,-1,-1,-1,0,-1
1514955408998149,-2,-2,1,-3,-1,0,0,-1
1514955408998149,-2,-1,-3,-1,-3,-1,0,-2
1514955409000141,-1,-2,-1,-1,-1,-1,-2,-1
1514955409000141,-1,-1,0,-2,-2,-3,-4,-2
1514955409012157,-1,-1,-2,0,-1,-2,1,1
1514955409012157,-3,-3,-2,0,-1,-2,-1,-2
1514955409021155,0,-1,-1,-1,0,1,0,-1
1514955409021155,-2,-1,0,0,-1,-3,-5,-2
1514955409037165,2,-1,-1,-1,0,-3,-1,1
1514955409037165,-1,-2,-1,-2,-1,-3,0,-1
1514955409040168,-1,-1,-1,-1,-2,0,-1,-1
1514955409040168,0,-1,-1,0,0,1,-2,-3
1514955409058180,0,-1,0,-2,-2,-2,-1,-2
1514955409058180,0,-1,0,1,-1,0,3,0
1514955409060181,-1,-2,0,0,0,-2,-1,-2
1514955409060181,-2,-1,-2,-1,-1,-1,1,1
1514955409072202,-2,-1,-1,-1,-1,-1,-1,-1
1514955409072202,-1,-1,-1,-3,0,0,-1,-1
1514955409088201,0,0,0,-2,0,-1,-2,-1
1514955409088201,0,0,-1,0,0,0,1,-2
1514955409096232,-2,-1,-2,-2,0,0,0,-1
1514955409096232,-2,-1,0,-1,-1,-2,-1,-2
1514955409097220,-1,-1,-2,-2,-3,-1,-2,-1
1514955409097220,-3,-1,-1,-2,-1,-1,-1,-1
1514955409119223,1,0,-1,-2,-2,-1,0,-2
1514955409119223,-1,-1,-1,-1,-1,-1,-1,-2
1514955409123227,-1,0,-2,-1,-2,-1,-2,-2
1514955409123227,0,-1,-2,-2,-1,-4,-1,0
1514955409132235,0,-1,-1,-1,-1,-1,-2,-1
1514955409132235,0,-1,0,0,-2,-1,0,-1
1514955409141238,-1,-1,-3,-1,-3,-3,0,-1
1514955409141238,-2,-2,-1,0,0,-1,-1,-1
1514955409156261,-2,-2,0,-3,-1,0,-2,0
1514955409156261,-2,-2,0,-2,1,-1,-2,-2
1514955409157261,-4,-1,0,0,-1,-3,1,-1
1514955409157261,-3,0,0,-1,0,-3,-2,0
1514955409179265,0,0,-1,-2,-1,-1,-2,0
1514955409179265,0,1,-3,-1,-2,0,1,-3
1514955409182283,-3,-1,-2,-2,0,-2,-1,-3
1514955409182283,-1,-2,-1,-1,-2,-1,1,0
1514955409192277,-1,-1,-1,0,-1,-2,-1,-1
1514955409192277,-1,-1,-1,-2,-3,-3,-1,1
1514955409201293,0,-1,1,1,-1,3,-1,1
1514955409201293,0,-2,-3,-1,-1,-1,0,-3
1514955409216307,-2,0,-3,0,-1,-1,-2,0
1514955409216307,-1,-2,-1,0,-1,-1,1,0
1514955409225298,0,-1,-1,0,0,0,0,-1
1514955409225298,-2,0,-1,-1,-3,1,-3,1
1514955409238307,-1,0,-1,-1,-1,-1,-1,-3
1514955409238307,-2,-1,-2,0,-2,-2,-1,-1
1514955409240308,-4,-2,0,-2,-1,-2,-1,-1
1514955409240308,-1,0,-2,-3,0,-1,-2,-1
1514955409261333,-1,-1,-1,-1,-1,0,0,-2
1514955409261333,0,-1,0,-1,0,0,-3,-2
1514955409262324,0,-1,1,-1,-2,-1,-4,1
1514955409262324,-1,-2,0,1,0,0,-1,-1
1514955409276334,-2,0,-1,0,-2,1,0,-1
1514955409276334,-1,-1,-2,-3,-1,0,0,-1
1514955409277347,-1,-1,-1,-1,-1,-1,-2,0
1514955409277347,0,-1,-1,-1,0,-2,0,-2
1514955409298362,0,-2,-2,-1,0,-1,0,-2
1514955409298362,0,0,0,1,-2,0,0,-2
1514955409300351,0,0,-2,-4,-2,-2,0,-1
1514955409300351,1,-1,0,-2,-1,-1,-1,0
1514955409321388,0,-1,-1,0,-1,-2,1,-2
1514955409321388,0,0,-2,-1,-1,-1,0,-2
1514955409322367,-3,-1,-1,-1,0,-1,-1,-2
1514955409322367,0,0,-1,-2,-3,-2,-3,1
1514955409336380,0,0,-1,-3,-3,-3,0,-1
1514955409336380,-3,-1,-3,-1,0,-1,-2,-3
1514955409337383,0,-2,-2,0,0,1,-1,0
1514955409337383,-3,-2,-1,0,0,1,2,-3
1514955409358404,-1,-1,-2,-1,0,-2,-3,0
1514955409358404,0,-1,0,-1,-2,-3,0,1
1514955409360393,-1,-2,-2,-2,-2,-1,3,-1
1514955409360393,-2,-1,-1,-1,-2,-1,0,0
1514955409381420,0,0,0,-3,-3,-1,-1,-3
1514955409381420,-3,0,1,-1,-1,1,-2,-1
1514955409382408,-3,0,-1,-1,-1,-4,-3,-1
1514955409382408,1,-2,-4,-2,0,-1,-2,-2
1514955409395431,-3,-1,-3,0,1,-2,0,-1
1514955409395431,1,-2,-2,-1,-2,-1,-2,-1
1514955409402423,0,-1,-1,-1,-2,-1,0,-1
1514955409402423,-3,0,-1,-1,-2,0,2,-1
1514955409418434,-2,-2,-2,-3,-1,-1,0,0
1514955409418434,0,-2,-2,-3,-2,-1,0,1
1514955409422438,-5,-2,1,-1,-2,0,-2,-3
1514955409422438,2,-2,-2,-2,-1,-2,-3,-1
1514955409441451,0,0,-1,-2,-1,0,-2,-2
1514955409441451,1,-1,0,1,-1,0,0,-3
1514955409442458,-1,0,-3,0,-1,-1,-2,2
1514955409442458,-1,-2,-1,-1,-2,0,-4,1
1514955409455460,-2,-2,-1,-1,1,-2,2,-2
1514955409455460,-2,-2,-2,-1,0,0,-1,-1
1514955409462465,4,-1,-1,0,-1,-2,-1,-2
1514955409462465,-1,-1,-2,-1,0,-2,-2,-2
1514955409478480,-2,-2,-1,0,-2,0,-5,0
1514955409478480,-4,-1,-3,-3,-1,-1,1,-3
1514955409480479,-2,0,-1,-1,-1,0,1,2
1514955409480479,0,-1,-1,-1,0,-2,1,0
1514955409501498,-1,-1,-2,-2,-3,-2,-1,-2
1514955409501498,-2,-1,-1,0,1,-1,0,1
1514955409502495,-1,-3,-2,-2,0,-1,-2,-1
1514955409502495,1,0,-2,-1,-2,-1,-2,-3
1514955409515521,0,-1,0,0,-3,1,-1,-2
1514955409515521,-7,-1,1,1,-1,-1,-1,-3
1514955409529522,3,-1,-3,-1,0,-2,-2,0
1514955409529522,-3,-2,1,-1,-2,-2,0,1
1514955409539524,0,-2,-1,-1,0,-3,-1,-2
1514955409539524,0,-1,0,-1,-1,1,0,-1
1514955409542524,-1,-2,0,-1,-1,-2,-3,-1
1514955409542524,-2,0,-2,-1,-1,-2,-2,-3
1514955409561537,-1,-1,-1,-1,-2,-1,2,-3
1514955409561537,1,0,-1,-2,-2,-2,-2,2
1514955409562539,-6,-1,-1,-2,0,-3,-1,0
1514955409562539,-1,-1,-2,-1,-1,1,-2,-1
1514955409575547,1,-1,0,0,0,0,-3,-2
1514955409575547,1,-1,-2,1,-2,-2,1,1
1514955409583554,-2,-1,-1,0,-3,0,-1,-1
1514955409583554,-1,-2,0,-1,0,1,-2,1
1514955409598562,-1,-1,0,-2,-2,-3,0,-3
1514955409598562,-1,-1,-2,-4,1,-1,-1,-2
1514955409600563,0,-1,-1,0,0,1,-1,0
1514955409600563,-1,-1,1,-1,0,0,-1,0
1514955409621580,-3,0,-4,-1,-1,-1,-2,-2
1514955409621580,-1,-2,0,-2,-1,-2,0,-3
1514955409623592,0,-2,-4,-1,-2,0,0,-1
1514955409623592,-2,0,-1,0,0,-2,0,-3
1514955409635588,0,-1,-1,0,-1,0,0,-1
1514955409635588,-1,-1,-2,-1,-2,-2,-1,-3
1514955409642594,-1,-1,-1,0,-2,-1,0,-2
1514955409642594,1,-3,-3,-1,-1,-2,0,1
1514955409658605,-2,-2,0,1,-1,-2,1,1
1514955409658605,-2,-1,-2,-1,0,-1,-1,-2
1514955409660610,-1,-2,-1,-1,1,-1,1,-1
1514955409660610,-1,-1,-2,-1,-1,-1,-1,0
1514955409681621,-1,1,-1,-1,-1,0,-1,1
1514955409681621,-1,0,-1,-2,-1,1,1,0
1514955409683622,-1,-2,1,-1,-1,0,-1,-2
1514955409683622,-1,0,0,-3,1,-3,0,-1
1514955409695631,-2,-2,-1,-1,1,0,-2,-5
1514955409695631,-1,-3,-1,0,-2,0,-2,-3
1514955409703638,0,0,-1,0,-1,-2,-1,0
1514955409703638,-1,-2,-1,1,-1,-1,1,0
1514955409719648,-1,0,-1,-2,-1,-1,0,-1
1514955409719648,1,0,-3,-2,0,-2,-4,-1
1514955409722655,-3,-1,-1,-1,-2,-1,-2,0
1514955409722655,1,1,-3,-1,-3,-1,-2,-1
1514955409741665,-2,-2,-1,-1,0,-3,-1,0
1514955409741665,-3,-1,2,0,-2,-1,-1,-2
1514955409742668,0,-1,-2,-2,-1,0,-3,-1
1514955409742668,-2,0,-2,-2,-2,-2,-1,0
1514955409754674,0,-1,0,-4,-1,-1,-2,-5
1514955409754674,-2,-1,-3,-1,-2,0,1,-2
1514955409763680,-1,-1,-2,-1,2,-1,-1,-2
1514955409763680,-3,-2,-1,-1,-2,-2,0,-2
1514955409778693,0,-2,-1,1,-2,0,-2,2
1514955409778693,0,-1,-1,0,-1,0,-1,0
1514955409782694,-3,-1,-2,-1,-2,-2,-2,0
1514955409782694,-3,-1,-3,-1,0,0,1,0
1514955409800705,1,0,0,-3,-2,-1,2,-1
1514955409800705,-2,-1,1,0,-1,0,-2,-1
1514955409802706,-1,1,-1,-1,0,-3,-1,0
1514955409802706,1,0,-1,-1,0,0,-3,-2
1514955409814714,-3,-1,-2,-1,0,0,-1,-1
1514955409814714,-1,-1,-2,0,-2,-1,1,-1
1514955409823732,1,-3,-2,-1,-2,-1,-2,-2
1514955409823732,-2,-2,-1,0,-1,-2,0,-3
1514955409839738,0,0,1,0,-2,0,-2,0
1514955409839738,-2,-1,-1,-1,-1,0,-2,-1
1514955409841735,0,-2,-1,-1,0,-1,-2,-2
1514955409841735,0,-2,-2,-2,-2,-1,0,0
1514955409861752,-1,-1,-1,-1,-1,-2,-2,-2
1514955409861752,0,0,-2,-2,-2,-2,-2,-1
1514955409862752,0,0,-1,-1,0,1,-1,0
1514955409862752,-3,-1,-1,-1,0,-1,-2,0
1514955409874759,-2,-2,0,0,-1,-3,2,-2
1514955409874759,-1,0,-2,-1,-1,1,1,1
1514955409883765,1,-1,-1,-1,-1,-2,-2,-1
1514955409883765,-1,0,-1,-2,0,-1,-1,-2
1514955409898775,-2,-1,-1,1,-1,0,-1,-3
1514955409898775,1,-3,-1,0,-2,-1,-1,0
1514955409900775,-1,-2,-2,-2,-1,-1,1,1
1514955409900775,0,-1,-1,-1,1,0,2,-3
1514955409921792,-1,1,-2,-2,-1,-2,-2,-1
1514955409921792,-2,-2,0,0,-1,-2,0,-3
1514955409923794,-3,0,-1,-2,-2,-1,1,-1
1514955409923794,-1,-2,-1,-2,0,-4,-2,0
1514955409934800,-2,-1,-1,-2,-1,0,-2,-3
1514955409934800,-2,-1,-3,-1,-1,0,-1,-1
1514955409943806,-1,-3,-1,-1,0,-2,-2,2
1514955409943806,-1,-1,-1,-1,-1,2,-1,-1
1514955409958816,1,-1,-1,-2,-1,-1,0,2
1514955409958816,-1,-1,-1,-2,1,-1,-1,-1
1514955409959817,-1,-2,-1,0,1,-1,1,-3
1514955409959817,-1,0,-3,-3,-3,-3,-2,-1
1514955409981832,-2,-2,-3,-1,-3,0,0,-1
1514955409981832,-1,0,-1,0,0,-2,1,-1
1514955409982833,-1,-1,-1,-1,-1,-3,-1,0
1514955409982833,-2,-1,0,-1,-2,-2,-2,1
1514955409994842,-3,-2,-2,0,-1,2,0,-1
1514955409994842,-1,-1,-1,-1,-2,-2,-2,-1
1514955410003851,-1,-1,-1,-2,-3,-2,-2,-2
1514955410003851,-3,-2,-1,-1,-1,0,-3,-2
1514955410018858,-1,0,-1,-2,-1,-2,-1,-4
1514955410018858,1,-1,0,0,-2,0,-1,-2
1514955410019860,1,0,0,0,-1,0,-1,1
1514955410019860,-1,-1,0,-1,0,-1,-2,1
1514955410040876,-1,-1,-2,0,0,-1,-1,-1
1514955410040876,-2,0,0,0,0,-2,-2,-1
1514955410042875,-2,-1,-2,-1,-1,0,-1,0
1514955410042875,-1,0,-2,-1,0,0,1,-3
1514955410054884,0,-1,0,-1,0,-2,1,-1
1514955410054884,-1,-1,0,-2,1,0,-1,-1
1514955410063890,-1,-1,-2,0,-2,0,-2,-1
1514955410063890,-2,-2,-1,-2,0,-2,-2,-1
1514955410078913,0,0,-1,0,-1,-2,-2,-2
1514955410078913,-1,-1,-2,-2,-1,-1,1,-2
1514955410081903,-1,-1,2,1,-1,1,1,-2
1514955410081903,-1,0,-2,0,-2,-1,-4,-1
1514955410100929,-1,-1,0,-1,-2,-1,0,0
1514955410100929,-2,-2,0,0,-3,-1,-1,-2
1514955410102934,-3,-1,-2,-1,-1,-1,-1,0
1514955410102934,2,-1,0,0,-1,0,-1,0
1514955410114958,-1,-3,0,-3,-2,1,2,-1
1514955410114958,-3,1,-2,-2,-1,0,-2,-3
1514955410125935,-2,-1,-2,-1,-3,-2,-2,1
1514955410125935,-1,-2,-2,0,0,-1,-1,-2
1514955410138957,-1,-2,-1,-2,-1,-2,0,-3
1514955410138957,-2,0,0,-2,-2,-1,1,1
1514955410139948,0,-2,-3,-2,0,0,0,0
1514955410139948,0,0,-2,-2,0,-1,-1,-1
1514955410160958,-1,1,0,0,-2,0,-2,-3
1514955410160958,-1,-2,-1,-2,-1,-1,0,-2
1514955410162973,0,-1,-2,-2,-1,-2,-2,-1
1514955410162973,-2,-2,1,0,-3,-1,0,0
1514955410183976,-2,0,-2,0,0,0,0,0
1514955410183976,-1,-1,-2,0,-2,-2,-1,0
1514955410184979,-1,-1,0,-1,0,0,-5,-3
1514955410184979,0,-1,0,-1,0,-2,0,-1
1514955410198986,0,-1,-1,0,-2,-1,0,-1
1514955410198986,0,0,-1,0,-1,-2,-1,-2
1514955410200997,2,-2,0,0,-1,0,2,-1
1514955410200997,-2,-2,-3,-2,-1,-2,2,-1
1514955410222002,-1,-3,-1,-4,-1,-2,-2,-2
1514955410222002,-2,-1,2,-3,0,1,-1,0
1514955410225005,0,-1,-1,-1,-4,-3,0,0
1514955410225005,-3,-1,-1,0,1,0,-1,-1
1514955410244018,-2,0,-1,0,0,-2,-1,-1
1514955410244018,-1,-2,-3,-2,0,1,-2,-2
1514955410245018,-1,1,-3,-2,-1,-2,-3,0
1514955410245018,-2,-1,0,0,-2,1,0,0
1514955410259028,1,0,0,0,-2,-2,1,-1
1514955410259028,0,-1,-1,1,-3,-1,-2,-4
1514955410261031,-2,-2,0,-1,-1,0,0,0
1514955410261031,-1,-2,-2,-2,-2,-2,-3,-1
1514955410281044,-1,-1,-1,-1,-1,1,-1,-1
1514955410281044,-3,0,-1,-1,1,0,-2,-3
1514955410283066,-1,-1,-2,-2,-1,-2,-2,-1
1514955410283066,0,-3,-1,-1,-2,-2,-1,1
1514955410304079,-1,-2,0,0,-1,0,-3,2
1514955410304079,-1,-1,-1,-1,0,-1,-2,0
1514955410305068,-3,-1,-1,-1,1,-3,-1,-3
1514955410305068,-1,1,-1,0,-1,-2,-2,0
1514955410319080,-2,-1,-2,-2,-1,-2,-3,-3
1514955410319080,1,-2,0,-1,-3,-2,-1,-1
1514955410325085,-2,-2,-1,0,-1,2,-1,-1
1514955410325085,-1,-1,-1,-1,0,-3,-1,-3
1514955410341099,-1,-2,0,-2,-1,-2,1,-2
1514955410341099,-1,0,-2,1,-1,-1,0,1
1514955410343098,1,-1,-1,-2,-2,-2,-1,-1
1514955410343098,2,-2,-1,-1,-2,1,-1,-1
1514955410363102,-4,-1,-2,-1,-3,0,-2,-1
1514955410363102,-1,-2,-1,-1,-2,-1,0,-1
1514955410365104,-1,-1,0,0,-1,0,-2,-1
1514955410365104,-1,0,-1,1,-1,1,0,-2
1514955410386118,-3,0,-2,-1,0,0,-1,-1
1514955410386118,-2,-1,-2,-2,-2,0,1,-1
1514955410388123,-1,-2,0,-1,-2,-2,0,-1
1514955410388123,-1,-1,0,-2,-3,-1,0,0
1514955410401142,-2,-1,-1,-1,0,1,-2,-4
1514955410401142,0,-1,-1,0,-1,-2,-3,-1
1514955410403140,-1,-2,-2,-2,-1,0,-1,-2
1514955410403140,-1,-1,-3,-1,-1,-2,-1,0
1514955410424146,0,-1,-3,-2,-2,-1,-1,-1
1514955410424146,-2,-1,-2,-2,-1,-2,-1,-1
1514955410428163,-2,-1,-2,-2,-1,-1,-3,-1
1514955410428163,-2,-1,-2,-2,0,-3,0,-1
1514955410438155,0,-2,-2,0,-1,-1,-3,-1
1514955410438155,1,-1,-2,-2,0,1,1,-4
1514955410444194,-2,0,-3,-1,0,-2,1,1
1514955410444194,-1,-1,-1,0,1,0,-1,-1
1514955410461188,-1,-1,-2,1,-1,-2,-1,1
1514955410461188,-1,-1,0,0,-1,-2,0,-3
1514955410462172,-1,-1,0,0,0,0,-2,-1
1514955410462172,0,0,-2,-2,-2,-2,0,-1
1514955410484191,-1,0,0,-3,1,-1,-2,-3
1514955410484191,1,-1,-1,0,-1,-1,0,0
1514955410486189,1,0,-3,-2,-2,-2,0,-1
1514955410486189,-1,-3,0,-2,1,-2,-2,1
1514955410498210,-2,-1,0,-1,-2,-1,0,-1
1514955410498210,-1,-1,0,-1,-1,-1,-1,0
1514955410505202,-1,-2,-1,0,0,-2,-2,0
1514955410505202,0,-1,-4,0,-1,-1,0,-1
1514955410521215,1,-2,-2,0,-1,2,-2,0
1514955410521215,-3,-1,0,-1,0,0,1,1
1514955410522214,-1,-2,-3,-1,0,-1,0,-3
1514955410522214,-1,-2,0,-2,0,0,-3,0
1514955410544230,0,-2,0,-1,-2,-3,1,-3
1514955410544230,-1,-1,0,-2,-2,0,-1,-2
1514955410546231,0,-3,-2,-2,-1,-1,-2,-1
1514955410546231,0,0,-1,-1,-1,-1,-1,-1
1514955410558252,-1,-1,-2,-1,0,-2,0,0
1514955410558252,0,-1,0,-1,-1,-1,-1,1
1514955410564244,-2,0,0,-1,-2,-2,-3,-2
1514955410564244,-1,-1,-2,-1,-2,0,-2,-2
1514955410581270,-2,-1,-3,1,-3,-1,-1,-4
1514955410581270,1,0,-2,-2,0,-3,-1,-2
1514955410584257,-2,-2,-1,-1,1,-2,2,-1
1514955410584257,-2,-1,-1,-1,-3,-1,-3,-3
1514955410603272,-1,-2,-1,1,-1,0,-1,-2
1514955410603272,-4,-2,-2,-2,-1,0,-2,-2
1514955410605273,-1,-1,-2,-2,-3,-3,-1,0
1514955410605273,-1,0,-1,-1,-2,-1,0,-1
1514955410618297,-1,0,0,-2,-2,0,2,-2
1514955410618297,-1,-1,-3,0,-1,0,-3,-1
1514955410625288,-2,-2,0,-2,-2,1,-1,0
1514955410625288,-1,-3,-1,0,0,-1,2,1
1514955410641330,0,1,-1,-2,-1,-2,-2,-1
1514955410641330,-2,-2,-2,-1,0,-1,-1,0
1514955410642333,-1,0,-2,0,-1,0,-1,0
1514955410642333,-2,-2,-1,-1,-1,-1,0,-2
1514955410664334,-1,-2,-1,-3,0,-1,0,-1
1514955410664334,0,-1,1,-1,-3,-2,-2,-2
1514955410665328,-3,0,0,-1,1,0,-2,0
1514955410665328,0,-1,0,-1,-1,-1,-2,-1
1514955410677327,-1,-1,0,-1,-3,-2,-1,-4
1514955410677327,-1,-1,-1,-1,-3,-1,-2,-2
1514955410686342,-1,-1,-2,1,-1,-2,1,-2
1514955410686342,-3,-2,-3,0,-2,-1,0,0
1514955410701367,-1,1,-1,0,-3,-1,-1,-1
1514955410701367,-3,-1,-1,0,-1,-1,0,-2
1514955410702341,2,1,-1,-2,-1,-2,0,1
1514955410702341,0,0,-1,-1,-1,-1,-1,-2
1514955410724358,-1,-2,-1,-1,-1,-2,-4,-1
1514955410724358,-2,-1,-1,-1,-2,0,-1,0
1514955410727359,0,-1,-1,-2,1,-1,-2,0
1514955410727359,1,-1,-1,-2,-1,0,0,-1
1514955410737384,-1,-1,-1,0,0,2,1,1
1514955410737384,0,0,0,-1,0,1,-2,-2
1514955410753440,-1,-1,-1,0,0,-1,1,-1
1514955410753440,-1,0,0,0,0,-2,0,-2
1514955410761445,0,-2,-2,-1,-1,-1,-1,1
1514955410761445,0,-2,-2,-2,-1,0,1,-1
1514955410762433,-2,-3,0,0,-2,0,-2,0
1514955410762433,-1,-2,-1,-1,-1,-3,-2,-1
1514955410783503,-1,-1,-2,-1,-1,1,1,-2
1514955410783503,-2,0,0,-1,-1,-1,0,-4
1514955410785450,0,-2,-1,-2,-1,-1,-1,-2
1514955410785450,-1,-1,-1,0,-1,-2,-1,0
1514955410797459,1,0,1,-3,-1,-1,0,-1
1514955410797459,-1,-2,-2,0,-1,-1,1,1
1514955410806477,-2,-1,-2,-1,0,0,0,-1
1514955410806477,1,0,0,-2,0,0,-2,-1
1514955410821476,-4,-2,-2,-1,-1,-1,-1,-2
1514955410821476,-1,-1,0,-1,0,-2,-3,-1
1514955410825478,0,-1,-2,-1,0,0,-1,-2
1514955410825478,-2,0,-2,-2,-1,-1,-1,0
1514955410843491,-1,-1,0,-2,0,-2,2,-1
1514955410843491,1,0,0,1,-1,-1,0,-2
1514955410845507,0,-1,0,-1,-2,-2,0,0
1514955410845507,-2,-2,-1,-2,-1,-1,-1,-1
1514955410857518,-1,-2,-1,-1,-1,-1,0,-2
1514955410857518,-1,-1,-2,-1,-2,-1,-1,-2
1514955410866517,-1,0,-1,0,-3,-1,-3,0
1514955410866517,0,-1,-3,0,-2,-1,0,-3
1514955410881533,0,-1,0,-2,-3,1,-1,0
1514955410881533,1,1,-1,-1,-2,0,-2,0
1514955410885524,-1,-1,-3,-1,-1,-1,-2,-1
1514955410885524,-1,-1,1,-1,0,-2,1,-3
1514955410903549,-2,-1,-1,0,-2,-1,-1,1
1514955410903549,-1,-2,1,-1,-1,-1,0,-4
1514955410905534,1,-2,-1,-3,-1,0,1,-3
1514955410905534,-1,-2,-1,0,-1,0,-2,0
1514955410917543,-1,-1,-3,-1,-1,-1,-2,0
1514955410917543,0,-2,-3,-1,0,-1,-1,0
1514955410928565,0,-1,-2,-1,-1,-2,-2,0
1514955410928565,0,-1,-1,-1,0,0,1,0
1514955410940559,-2,-1,-1,0,-1,1,-1,-3
1514955410940559,-2,-2,-1,-2,-1,-1,0,0
1514955410942561,0,-3,-1,-1,-1,1,0,-2
1514955410942561,0,-1,-1,-1,-2,0,-2,-1
1514955410963590,2,0,-1,0,-1,-3,0,-1
1514955410963590,-2,0,0,-1,-2,-3,-1,0
1514955410965600,-3,0,0,-1,1,-2,-2,0
1514955410965600,-3,-2,-2,-2,-2,-2,0,0
1514955410977589,1,-3,-2,-1,-1,-2,-1,0
1514955410977589,0,-1,-3,-3,-2,0,-1,0
1514955410986615,0,0,0,0,-1,-2,-1,-1
1514955410986615,-1,0,-1,-1,-1,1,-3,-4
1514955411000626,-4,2,-1,-1,0,-3,-5,-1
1514955411000626,-2,-2,-2,-2,0,-2,-1,0
1514955411002627,-2,-1,-1,-1,-2,-2,-1,1
1514955411002627,0,-2,-1,-1,0,-1,-2,-2
1514955411024642,-2,-3,1,-1,0,-2,2,-2
1514955411024642,-1,-1,0,0,-2,0,-1,-3
1514955411027644,-4,0,-1,-2,1,-1,-1,-1
1514955411027644,-4,-1,0,-1,0,1,1,-1
1514955411036651,-2,0,-1,-2,-1,1,-2,-3
1514955411036651,-1,-1,0,-2,-2,-1,-1,0
1514955411046659,-1,-2,-3,-2,-2,-2,-1,-1
1514955411046659,1,0,-2,0,0,-2,-1,0
1514955411060672,-1,0,-1,-2,-1,-2,0,0
1514955411060672,-2,0,-1,0,-1,-2,0,2
1514955411062673,-1,-1,0,-1,-2,-1,-2,-2
1514955411062673,-1,-2,-1,-3,-1,-1,-1,-1
1514955411082697,2,0,-1,-1,-2,-3,-1,-1
1514955411082697,-2,0,-3,0,-2,0,1,-4
1514955411090703,-2,-2,0,-1,0,-2,-1,1
1514955411090703,-2,-1,0,-1,-1,-3,-1,-2
1514955411106701,-1,-1,-2,-1,-1,0,-1,-2
1514955411106701,0,-2,-1,0,-1,-2,-4,0
1514955411110702,-1,-1,-2,0,0,-1,-1,-2
1514955411110702,0,-2,-2,-1,-3,-1,1,-2
1514955411121711,-2,-3,0,-1,-2,-2,-2,-2
1514955411121711,0,-1,-1,0,0,-1,-1,0
1514955411124713,1,-1,-1,-2,0,1,0,-2
1514955411124713,2,-1,-1,-1,-3,-1,-4,0
1514955411143776,-1,0,-2,-3,-2,1,1,-1
1514955411143776,-2,-3,-2,-1,-1,0,0,-2
1514955411144763,0,-1,0,0,-2,-1,-2,-1
1514955411144763,-2,0,-3,-1,-1,0,0,-4
1514955411165781,0,-1,0,0,-1,-2,0,-2
1514955411165781,0,-1,0,-1,-1,0,-1,-2
1514955411168780,0,-2,-3,-4,-1,-2,0,0
1514955411168780,-1,-1,0,-1,-1,1,-2,2
1514955411180792,-3,-1,-2,0,-2,0,-1,-2
1514955411180792,-2,-2,-1,-1,0,2,-3,0
1514955411182833,0,-1,-2,0,-2,-2,1,-4
1514955411182833,-3,-2,-1,-1,-2,-2,2,-4
1514955411203815,0,-2,0,-2,-1,0,-1,0
1514955411203815,-1,0,-1,0,0,-2,0,-1
1514955411204806,0,1,-2,1,-1,-1,-3,-1
1514955411204806,-1,-1,-1,-2,-2,-2,-1,-2
1514955411226827,0,-1,-1,0,0,-2,2,0
1514955411226827,-1,-3,-1,-3,-2,-4,0,-4
1514955411228824,-3,-2,-2,0,0,-1,-1,3
1514955411228824,0,-2,1,-1,-1,-1,-2,-1
1514955411240846,-2,-1,-1,0,0,0,0,-1
1514955411240846,-2,1,-2,0,-2,0,1,-1
1514955411242838,1,-2,-2,-1,-1,-2,-1,-1
1514955411242838,0,1,-2,-2,0,-1,-1,-2
1514955411263861,-1,-1,0,0,-1,0,-4,-1
1514955411263861,0,-1,0,0,-2,-1,-1,-1
1514955411264849,-3,1,-1,-1,-2,0,-1,-3
1514955411264849,-2,-1,-1,-1,-1,-1,-1,-1
1514955411285864,-3,-1,0,-2,-1,-1,-2,0
1514955411285864,2,0,-1,0,1,-3,-3,-2
1514955411287869,0,-1,-1,0,-1,-1,0,0
1514955411287869,0,-1,-1,0,-1,-1,-1,-3
1514955411299885,0,-2,-2,-3,-2,0,-2,-2
1514955411299885,-1,-3,-1,-2,0,-2,0,2
1514955411306889,-1,-1,-1,-2,0,-1,-2,-2
1514955411306889,0,-2,-1,0,-1,-1,-4,-1
1514955411323891,-2,0,-1,-2,0,0,-2,1
1514955411323891,-2,-1,-1,1,-1,-1,-2,-1
1514955411329894,-3,-1,-1,-2,-2,-2,0,-1
1514955411329894,-4,0,-2,0,0,-2,0,-1
1514955411345918,2,-2,-2,0,0,0,0,-4
1514955411345918,0,0,0,-2,-1,-1,-1,0
1514955411348908,0,-1,-1,0,-2,0,-1,-1
1514955411348908,0,-2,-1,-2,-1,-2,0,0
1514955411368921,-1,-2,-1,-2,-1,0,-1,-2
1514955411368921,-1,-1,-1,-2,0,-3,-2,-1
1514955411369923,-1,-3,0,0,-1,0,0,-2
1514955411369923,-1,-1,-2,-1,-2,0,2,-1
1514955411383944,-2,0,-2,0,-1,-3,-1,2
1514955411383944,0,0,1,-2,-2,0,-1,-4
1514955411384934,1,-1,-2,-2,-2,-1,-3,0
1514955411384934,-2,-1,1,0,-1,-1,1,0
1514955411405953,-1,-1,-1,1,0,0,-1,-3
1514955411405953,0,0,-1,-1,-2,1,-3,-3
1514955411407951,-1,-1,0,-1,-1,-1,-3,-1
1514955411407951,0,-2,-2,-2,0,1,-2,0
1514955411420975,-2,0,-2,1,-1,-1,-1,-1
1514955411420975,1,-2,-3,-1,-1,-2,-1,-1
1514955411427963,-1,-3,-3,-1,-1,-1,1,-2
1514955411427963,-2,-2,-1,-1,-1,-3,1,-3
1514955411443975,0,0,0,-1,-2,-1,0,1
1514955411443975,0,1,-1,-2,-1,-1,-2,1
1514955411444976,-2,-2,-1,-2,-3,-1,-2,-1
1514955411444976,-1,-1,-2,0,-1,0,-1,-3
1514955411465994,-1,-1,-1,-1,0,-4,0,-4
1514955411465994,-2,-2,-2,1,-1,0,1,-1
1514955411469008,0,-1,-1,-2,0,0,-4,-1
1514955411469008,0,0,-1,-1,-1,0,-2,-2
1514955411480004,0,-1,0,-1,-1,1,-2,0
1514955411480004,-2,-1,-3,-1,-2,-1,-1,-1
1514955411487020,-3,0,0,-1,-1,-3,1,1
1514955411487020,-1,-2,0,-2,-2,-1,-2,-1
1514955411503018,0,0,1,0,-1,0,-1,-2
1514955411503018,-3,-1,0,-2,1,0,-1,0
1514955411505022,-1,-1,-1,-1,0,-1,1,1
1514955411505022,-1,0,-2,0,-1,0,-1,-2
1514955411527034,0,-2,-2,-3,-1,-3,-2,-2
1514955411527034,-2,-1,-1,-1,-1,0,1,0
1514955411530035,-2,0,-3,-1,-1,-4,-1,-2
1514955411530035,1,-1,0,-2,-1,-1,0,-1
1514955411540058,-3,0,-3,-2,-2,-1,-1,-2
1514955411540058,0,-2,1,1,-1,-1,-2,-1
1514955411548061,1,-2,0,-2,-1,-1,-2,0
1514955411548061,-3,-3,-2,-1,-1,-2,1,0
1514955411563058,0,-1,-3,0,-1,0,-1,-1
1514955411563058,-3,0,-1,-1,-1,0,-1,-1
1514955411565060,0,0,-2,-1,0,-2,0,-2
1514955411565060,-2,0,1,-1,1,-2,-1,-2
1514955411586133,-1,-1,-2,-2,-2,-4,-2,-2
1514955411586133,-2,-1,-2,-1,-2,-2,-2,-3
1514955411588077,0,-3,-2,-1,0,0,-2,0
1514955411588077,-1,0,-2,-1,0,-1,-1,-1
1514955411600098,-1,-2,-1,-1,-2,0,0,0
1514955411600098,1,-1,-1,-1,-2,-2,-3,-1
1514955411607090,-1,-1,-1,-1,-2,1,-1,-3
1514955411607090,0,0,1,-1,-3,1,-1,-2
1514955411623101,-2,0,0,-4,0,1,-1,1
1514955411623101,-1,-1,-2,-1,1,-2,-1,-1
1514955411625103,-3,-1,-3,0,-3,1,-2,-2
1514955411625103,-3,-1,-3,-2,-1,0,-1,-3
1514955411646135,-1,-1,-2,0,-1,-1,1,-1
1514955411646135,0,-1,-1,-3,0,-2,-1,1
1514955411649120,-2,-2,-2,-1,1,-4,-2,0
1514955411649120,-1,-1,-1,-1,0,0,-4,-1
1514955411660140,-2,0,0,-2,0,1,-1,-1
1514955411660140,0,-1,-1,-2,-3,0,-1,-2
1514955411668145,-3,-1,-1,0,-1,-2,3,-1
1514955411668145,1,-1,-1,0,-3,-1,1,0
1514955411684144,-1,-3,-2,0,-2,-1,0,-4
1514955411684144,-1,0,0,-1,-2,-1,-1,0
1514955411688149,0,0,-2,-3,-1,-2,-2,-1
1514955411688149,-3,-1,-2,-1,-2,-1,-1,-1
1514955411706160,0,-1,-1,0,0,0,-1,-3
1514955411706160,-1,-1,0,-2,-2,-1,-1,1
1514955411707162,1,-1,0,-2,-1,0,-3,1
1514955411707162,-2,0,-1,-3,-1,-4,-1,-4
1514955411720171,-1,-1,-2,-1,-1,-2,-1,1
1514955411720171,-1,-2,-1,0,2,2,-4,0
1514955411729180,-1,-1,0,0,-2,1,-1,-2
1514955411729180,1,-1,-1,-2,-1,-3,-2,0
1514955411743243,-2,1,1,-1,0,-2,0,-5
1514955411743243,0,-1,-2,0,-1,-1,-1,1
1514955411745208,-1,0,-1,-2,-1,-1,-1,-2
1514955411745208,-1,-3,-2,0,0,0,1,-1
1514955411766226,-2,-1,0,-2,-2,0,-1,-1
1514955411766226,-1,-3,-2,-2,-2,-1,-2,-2
1514955411768217,-1,-1,0,0,-1,-1,-1,0
1514955411768217,-1,-1,-1,0,-2,-1,-3,-3
1514955411779215,-2,-3,-1,-2,-1,-2,-2,1
1514955411779215,-1,-1,-1,-1,0,-1,-1,0
1514955411788275,0,-2,-2,-1,-2,-3,-1,1
1514955411788275,0,0,-1,-1,-1,0,0,-4
1514955411803347,-1,0,0,1,-2,-2,-1,-1
1514955411803347,-1,-2,-1,-1,-2,0,-1,-1
1514955411805336,-3,-3,-2,-1,-2,-1,1,-3
1514955411805336,0,-3,-1,-2,-2,2,-1,-1
1514955411827345,0,0,-1,0,-2,0,-3,0
1514955411827345,-3,-1,-2,-1,0,-1,1,-4
1514955411829341,-1,-2,-1,0,-1,-1,-1,-2
1514955411829341,-1,-2,-2,-1,-1,-1,-2,-1
1514955411848355,0,-1,-1,-3,-2,0,1,0
1514955411848355,-2,-1,0,-1,-1,-2,-1,0
1514955411849361,-1,1,-1,-2,-1,-2,0,1
1514955411849361,-2,1,2,-1,-1,-2,-1,-2
1514955411864370,-1,-1,-2,-2,-1,-1,-1,-3
1514955411864370,-2,-2,-1,-2,-1,-1,-1,1
1514955411865367,-3,0,-1,-1,-1,-1,0,0
1514955411865367,0,-1,-2,0,-2,-3,2,-1
1514955411885382,0,0,-2,0,-1,2,0,-2
1514955411885382,-1,-1,0,-2,-1,-1,-2,-4
1514955411886382,1,-1,-1,-1,-2,-1,-1,0
1514955411886382,-2,-1,0,0,-1,0,-2,-1
1514955411908396,-2,-2,-2,0,0,0,-1,-4
1514955411908396,1,-2,-2,-1,-2,0,-2,-2
1514955411909396,-1,-1,-3,-1,-1,0,-4,-1
1514955411909396,-1,-1,-1,-1,-1,-2,-2,0
1514955411923408,-2,0,-1,0,-2,0,2,-3
1514955411923408,0,0,0,-1,-1,-2,0,-1
1514955411925409,1,0,-2,0,-1,2,0,-1
1514955411925409,-1,-1,0,-1,0,1,0,-1
1514955411945426,-2,-2,-1,-2,-1,-2,-2,-1
1514955411945426,-2,-1,0,-1,-3,-1,-1,-1
1514955411946424,-2,-2,-2,-1,-1,-2,-1,-2
1514955411946424,0,-1,-4,1,0,-1,1,-1
1514955411967438,-2,-1,0,1,-1,-2,1,-1
1514955411967438,-1,-2,-3,-2,-1,-2,-2,1
1514955411968438,-2,-1,-2,-1,0,0,-3,-2
1514955411968438,-1,-1,-1,-2,-2,-2,0,-2
1514955411982448,1,0,-1,-3,0,-2,-1,-2
1514955411982448,-1,0,0,-2,0,-1,1,-1
1514955411983449,-3,-1,-2,0,-3,0,-4,1
1514955411983449,-2,-1,-3,-2,-1,0,-2,-1
1514955412005468,-1,-1,-1,0,-2,1,-1,-2
1514955412005468,0,-3,1,-2,1,-1,0,0
1514955412006466,-1,-1,0,0,1,-1,1,1
1514955412006466,2,0,1,0,-1,-2,-1,2
1514955412027485,1,-1,-3,-1,-1,2,-2,-1
1514955412027485,1,-2,-1,0,-1,-1,-2,-1
1514955412028480,-2,-1,-1,-1,0,0,0,0
1514955412028480,-3,-2,-3,0,-1,1,0,-4
1514955412042494,-2,-2,-1,-1,-1,-2,-2,1
1514955412042494,0,0,-2,-1,0,0,0,0
1514955412050497,0,-1,0,-2,0,-1,0,-2
1514955412050497,0,-1,-1,-2,-2,0,-3,0
1514955412065508,-2,-1,-1,-1,-2,-2,0,-2
1514955412065508,-2,0,-1,-2,-2,0,-4,2
1514955412066508,0,-1,-2,-2,-2,-3,-1,-1
1514955412066508,-1,0,-3,-1,0,-2,0,-1
1514955412088525,1,-2,-1,0,0,-2,0,-3
1514955412088525,-4,-1,-1,0,0,-2,-1,-1
1514955412090530,0,-1,-1,0,-1,1,-2,-3
1514955412090530,-4,0,0,-1,-1,-1,0,2
1514955412102537,-1,-1,-1,0,-1,-2,0,0
1514955412102537,1,-1,-1,-2,-1,-2,0,0
1514955412103534,-1,-3,-1,-1,-1,0,1,-2
1514955412103534,-2,-3,-2,-1,-3,-1,0,-1
1514955412126550,-1,0,-1,-1,0,-1,-2,-1
1514955412126550,0,1,-2,0,-1,-2,-3,-1
1514955412127570,-1,0,-1,0,-1,-2,0,-1
1514955412127570,0,-3,-2,-1,-1,0,0,-1
1514955412148568,-3,-1,0,-3,-1,1,1,0
1514955412148568,-1,-4,-1,-3,-3,-1,-3,-3
1514955412149579,0,-1,-1,-1,-1,-3,-2,0
1514955412149579,-1,-2,0,0,0,1,0,-3
1514955412162593,-1,-1,-1,0,-3,0,1,0
1514955412162593,0,-1,-3,0,0,0,-2,-3
1514955412163577,-2,-1,-2,-2,-1,-2,0,0
1514955412163577,0,0,0,0,0,-1,-2,-2
1514955412185602,-2,-2,0,-2,-1,-2,-2,-2
1514955412185602,-1,-2,-3,-1,0,-2,3,-1
1514955412186592,0,-2,-1,-1,-1,-3,-2,-4
1514955412186592,-1,-2,-1,-2,-1,-1,-1,-1
1514955412207609,-1,0,-2,-1,0,0,-1,0
1514955412207609,-1,0,-1,0,-1,-1,-3,-1
1514955412208608,-1,-1,-3,-2,-2,0,-3,-1
1514955412208608,0,-1,-1,-2,-2,-2,2,-2
1514955412222618,-1,-3,-1,-2,-2,-1,1,-3
1514955412222618,-3,0,-1,-1,-2,-2,-1,0
1514955412223619,-1,1,0,0,0,-1,-1,-2
1514955412223619,-1,-1,0,0,1,-1,-1,-4
1514955412245634,0,0,-1,0,-1,0,0,-2
1514955412245634,1,0,-1,-1,0,1,0,0
1514955412247637,0,-2,-1,-2,0,0,-1,2
1514955412247637,-3,0,-1,-3,-2,-2,1,-2
1514955412267650,-1,0,0,-1,0,-1,0,0
1514955412267650,-2,0,-2,-2,0,-1,-2,1
1514955412268650,0,-1,-1,-1,0,-1,0,-1
1514955412268650,0,0,0,0,-1,0,-3,0
1514955412282673,-1,-2,-1,-1,-2,-1,-2,-1
1514955412282673,0,-1,0,-2,0,-3,-1,-1
1514955412283679,0,1,0,-2,-3,-2,1,0
1514955412283679,-1,0,-1,-1,-2,-2,-4,-1
1514955412305677,1,1,-2,0,-1,1,-1,-3
1514955412305677,0,-2,-2,0,-2,-1,0,0
1514955412305677,0,-2,0,-1,0,1,1,-3
1514955412305677,-3,-1,0,-1,-1,-1,-1,-2
1514955412328735,-2,-1,-1,-3,-2,-2,-1,1
1514955412328735,1,-1,0,0,-1,-1,-1,-3
1514955412329709,-1,-2,-1,-1,0,-3,-2,-1
1514955412329709,-1,-1,0,0,-1,-2,0,0
1514955412342706,-2,0,-2,0,-2,0,-2,-2
1514955412342706,0,0,-2,-2,-1,0,-2,-2
1514955412343704,0,-1,-3,-1,-1,-2,0,-1
1514955412343704,-2,-1,0,-1,-1,0,0,-2
1514955412365721,1,0,-1,-2,-2,0,-3,2
1514955412365721,-1,-2,0,-2,-1,0,-1,-1
1514955412365721,-2,-1,-1,-1,-1,0,-2,-1
1514955412365721,-1,0,-1,-1,0,-1,-2,-1
1514955412387750,0,-2,0,2,-1,-1,2,-2
1514955412387750,-3,0,-1,1,-1,-2,-3,1
1514955412388737,0,-2,-3,-1,-4,-2,-2,0
1514955412388737,1,-1,0,-1,-2,-1,2,0
1514955412402855,-2,0,0,-2,0,0,-2,-2
1514955412402855,-1,0,-1,-1,-1,-3,0,-1
1514955412403821,-2,-1,0,-1,-1,-2,-2,0
1514955412403821,1,-1,-3,-1,0,0,-1,-2
1514955412426850,0,-2,-1,0,0,-1,-1,-1
1514955412426850,-2,-2,-1,1,0,-1,-2,-1
1514955412427840,-2,-2,-1,-1,-1,-2,-2,-1
1514955412427840,1,-2,0,-1,-3,-1,-1,0
1514955412447875,-1,-1,-1,-2,-2,-4,0,-2
1514955412447875,-2,-1,-1,0,-1,0,1,2
1514955412448876,-3,-1,-2,0,-1,0,1,-1
1514955412448876,-1,-1,-2,-1,-1,-1,-1,-1
1514955412462876,1,-1,-2,0,-2,-3,0,0
1514955412462876,1,-2,-1,0,-1,-2,-1,-3
1514955412463876,1,-1,-2,0,-1,-2,0,0
1514955412463876,-4,-1,-1,-1,-1,-1,1,-1
1514955412484894,-1,-4,1,-2,-1,0,-1,1
1514955412484894,-2,-2,-2,-3,-2,-2,-1,-2
1514955412499913,-1,-1,-2,-1,-1,1,0,-1
1514955412499913,0,0,0,-2,-1,0,-2,-2
1514955412507919,0,0,0,-1,0,-2,-2,-2
1514955412507919,-1,-3,-1,-2,-1,-1,1,0
1514955412508919,-1,-2,-1,-1,-1,-1,0,-4
1514955412508919,-1,-2,0,-1,-1,-1,-1,0
1514955412522933,-1,1,-2,-1,-1,0,-2,-2
1514955412522933,-1,0,-1,1,-3,0,-2,-1
1514955412523919,-1,0,-1,-1,0,0,-3,-4
1514955412523919,-1,-1,1,-2,-2,-1,1,-2
1514955412546935,-2,-2,-1,0,-2,-1,-2,-2
1514955412546935,-2,0,-2,-2,0,-1,0,-2
1514955412547936,-2,-3,-1,-3,0,-1,-2,1
1514955412547936,-2,1,-2,0,0,0,-1,-2
1514955412567949,0,-2,-1,-1,-1,-1,-2,1
1514955412567949,0,0,-1,0,-1,-2,-2,0
1514955412568951,-1,-1,0,-1,-1,0,0,-1
1514955412568951,-1,-2,-1,-2,-1,-1,-1,0
1514955412582974,-2,-1,0,-2,-1,-1,-2,-3
1514955412582974,0,-1,-2,-1,0,-3,1,0
1514955412583988,0,-1,-2,0,-2,-2,1,0
1514955412583988,-2,0,-1,1,0,-1,-1,-2
1514955412604996,-3,1,0,-2,-2,-1,-1,1
1514955412604996,1,0,-1,-4,-1,-2,-1,-1
1514955412605994,-3,-1,1,0,-1,-1,-3,-3
1514955412605994,-1,-2,-3,1,-1,-1,-1,-2
1514955412628007,0,-2,-2,0,0,-2,2,-2
1514955412628007,0,0,1,-1,0,-1,-2,0
1514955412628992,-1,-1,-1,-2,-2,-4,-1,2
1514955412628992,-1,-1,0,-2,-1,-1,-3,-1
1514955412643003,-1,-1,0,1,-1,-2,1,-2
1514955412643003,-1,-1,0,-2,0,-1,-1,-3
1514955412643003,1,-1,-1,0,-1,0,1,-1
1514955412643003,-2,-1,-1,-2,-2,-3,0,-2
1514955412665018,1,-2,-2,-1,0,0,-3,0
1514955412665018,-1,-2,-1,0,0,1,-2,0
1514955412666019,0,1,-1,-1,-1,1,-1,0
1514955412666019,0,0,-2,0,-1,0,-2,-2
1514955412688039,-3,-1,-2,-2,-2,1,0,1
1514955412688039,-1,-2,0,0,-1,0,0,0
1514955412695041,-2,-2,0,-1,-1,-1,-1,-1
1514955412695041,0,-1,-1,0,0,-3,-1,-1
1514955412702057,-1,-2,0,-2,-1,1,-2,-2
1514955412702057,-2,-2,0,-3,-1,-1,-3,0
1514955412710062,-1,0,-1,-2,-1,-2,0,-1
1514955412710062,1,0,0,-1,-3,-1,0,-1
1514955412725073,-3,0,-2,0,0,0,0,-3
1514955412725073,0,-1,-1,2,1,-1,-1,-1
1514955412726061,0,-2,-1,-1,-2,-3,0,-2
1514955412726061,-1,-1,-2,-1,-1,0,-2,-1
1514955412748078,1,-1,0,-1,-1,-2,1,1
1514955412748078,-2,-1,-1,-1,-1,1,-3,-1
1514955412755087,-3,-1,-1,-3,0,-2,-2,-3
1514955412755087,-2,0,0,0,-2,0,-1,-4
1514955412771107,-1,1,-1,-3,-2,-3,-3,-2
1514955412771107,-3,-2,-1,0,-2,-2,1,-2
1514955412772096,-2,-1,-1,-1,0,0,-1,0
1514955412772096,-2,-1,-1,-1,1,-1,-1,1
1514955412785118,-1,-3,-1,0,-1,-1,0,1
1514955412785118,1,0,-3,-2,-2,-2,-1,0
1514955412786114,-1,0,-2,-2,-1,0,2,-3
1514955412786114,0,-1,0,-2,-1,0,-1,-2
1514955412808119,-1,0,-1,-1,-2,-2,-1,-3
1514955412808119,-1,-2,-1,-1,0,-3,-3,-1
1514955412808119,0,-3,-3,0,-2,-2,0,-1
1514955412808119,0,-1,-2,-2,-2,1,0,-1
1514955412823131,0,-1,-2,-1,-2,0,-1,0
1514955412823131,0,-2,-2,-2,-2,-2,-1,-2
1514955412830174,1,-2,-2,-1,-1,-2,0,-1
1514955412830174,-4,-1,1,0,1,-1,0,-1
1514955412845148,0,-2,-2,-1,0,0,-3,-2
1514955412845148,0,1,-1,-2,-3,-1,1,-2
1514955412846146,-2,-1,-1,-2,-2,-2,-1,2
1514955412846146,0,-2,-1,0,-2,1,0,-1
1514955412868171,0,-2,-2,1,0,-1,-1,-1
1514955412868171,0,-2,-1,-2,1,0,0,1
1514955412870164,0,0,-1,0,-1,-1,-3,-2
1514955412870164,-1,0,-2,-1,-1,-1,0,0
1514955412882202,-2,0,1,-2,-3,-1,-1,2
1514955412882202,-2,-1,-1,1,-1,-2,1,-1
1514955412890234,0,-2,-1,-1,1,0,-2,-1
1514955412890234,0,-1,-1,0,-2,-2,0,-2
1514955412905202,-2,-1,0,-2,-1,-1,-2,-2
1514955412905202,-4,-1,-3,-1,-1,-2,-3,2
1514955412906190,0,0,-1,-1,-1,0,0,-2
1514955412906190,0,-1,0,0,0,-1,-3,0
1514955412928208,1,0,0,1,0,-2,-2,-1
1514955412928208,-2,1,0,0,-2,-2,-1,-2
1514955412929205,-1,0,-1,-1,-1,-3,-3,-3
1514955412929205,0,-2,0,-2,0,-1,-3,-1
1514955412951230,-1,-1,-1,-1,-1,-2,-1,-2
1514955412951230,-2,-1,-1,0,-1,1,-1,0
1514955412952221,-1,-2,-2,-2,0,2,0,0
1514955412952221,-2,-2,-2,-2,-4,-1,0,-4
1514955412973259,-2,-2,-2,-2,-1,-1,-1,2
1514955412973259,-1,-2,-2,-2,-1,-1,0,1
1514955412974237,-2,-1,0,0,0,-2,-1,0
1514955412974237,0,-1,-2,-1,1,-1,0,-3
1514955412988261,0,-3,1,-3,-1,0,-2,-4
1514955412988261,0,-1,-1,-1,-2,0,-2,0
1514955412989251,-2,-2,-2,-1,-2,-3,2,-4
1514955412989251,-3,0,-2,0,-1,0,0,1
1514955413011278,0,0,0,1,0,-1,-1,2
1514955413011278,2,-1,-1,-1,-2,-2,-2,-2
1514955413011278,-1,-1,1,-2,-2,-1,0,-3
1514955413011278,0,-2,-1,-1,-2,-2,2,-1
1514955413025273,-1,-1,-2,-1,-1,-1,-1,-2
1514955413025273,-1,-2,-1,-1,0,-3,0,0
1514955413026273,-3,0,-2,-1,-2,-1,0,-1
1514955413026273,-2,-2,0,-1,-1,-1,-2,-1
1514955413050291,-1,-2,0,0,0,0,-2,-1
1514955413050291,-2,-3,1,-3,-1,-1,0,-1
1514955413052292,0,0,-1,-2,-1,-1,-1,-2
1514955413052292,0,-1,1,0,-1,-3,-1,-2
1514955413071324,-2,-2,-2,-1,-1,-1,0,-2
1514955413071324,0,0,-3,-1,-2,-3,-1,-1
1514955413072307,-2,-2,-2,1,-1,0,-1,-1
1514955413072307,-1,-2,-1,0,-2,-1,1,0
1514955413085329,-1,0,-1,-1,1,-1,-2,0
1514955413085329,-1,-1,-2,-1,0,-1,0,0
1514955413086325,-1,-2,0,-1,0,0,-1,0
1514955413086325,0,-2,-1,0,-1,-1,-1,-1
1514955413108336,-3,-2,0,-1,-1,-1,-1,0
1514955413108336,-1,-1,1,0,1,1,-3,-4
1514955413109333,1,0,-2,-2,0,-2,0,-1
1514955413109333,-2,-1,-1,-1,0,0,1,-2
1514955413131349,-1,0,-1,-1,-1,-1,-1,1
1514955413131349,0,0,-1,0,-2,0,-1,-4
1514955413132349,0,-1,-1,-3,-1,-1,-3,1
1514955413132349,-1,0,-1,-1,-2,1,0,-3
1514955413145398,-1,-1,-1,-1,-2,-1,-1,-4
1514955413145398,-2,-1,-1,-2,-2,0,0,-1
1514955413146364,-2,0,-1,-1,-2,-2,0,0
1514955413146364,0,-1,-1,-1,-1,-2,0,-1
1514955413168389,-1,0,-2,0,0,1,-1,0
1514955413168389,-2,-1,-1,-2,-1,0,-2,-1
1514955413169375,0,-1,0,0,-1,1,2,0
1514955413169375,-2,-2,-1,0,-3,0,-3,1
1514955413191401,0,-2,1,0,-1,-2,-1,-2
1514955413191401,-2,-2,-1,-1,-1,0,0,-1
1514955413191401,-2,-1,-1,-1,0,0,-3,-1
1514955413191401,0,0,0,-1,-1,-2,-2,-1
1514955413205410,-2,0,-1,-2,-2,-1,-2,-1
1514955413205410,0,-1,-1,-2,-2,-2,2,0
1514955413206410,-1,0,-1,0,-1,-1,-1,-1
1514955413206410,-1,0,-2,-1,0,-1,-1,1
1514955413228417,1,-1,-2,0,-2,0,-1,-3
1514955413228417,0,-1,-1,-1,-2,0,-1,1
1514955413229416,-2,-2,-1,-1,-2,-1,-1,-1
1514955413229416,-1,0,-2,-1,-2,-1,-2,-2
1514955413251447,0,-1,-1,-1,-1,-1,-1,1
1514955413251447,1,-4,-3,-1,-2,-1,0,-2
1514955413252445,-1,-1,-2,-1,-1,-2,-1,-1
1514955413252445,-2,-1,-1,-2,-3,0,-3,1
1514955413265461,-2,-1,-1,0,-1,-2,1,-1
1514955413265461,-2,0,-2,-1,0,-1,0,-1
1514955413266461,-2,0,-1,-2,-2,-1,1,-3
1514955413266461,-2,-1,0,-2,-1,-1,-3,-5
1514955413288461,-1,-1,0,-2,-2,-1,-2,2
1514955413288461,1,0,-2,0,0,-1,-2,-1
1514955413289460,0,-1,-2,-1,-2,-2,0,1
1514955413289460,0,-1,-1,-2,0,-2,0,0
1514955413311489,-1,-2,-1,-2,0,0,-2,-1
1514955413311489,0,0,0,0,0,-1,-1,-2
1514955413312485,-2,-1,-1,-2,-1,1,-1,-2
1514955413312485,-1,0,-1,0,0,-1,1,-1
1514955413327486,-2,-2,-1,-1,-1,0,-1,1
1514955413327486,-1,1,-2,-1,-1,-2,-2,0
1514955413328486,-1,0,-1,-1,-2,-2,-2,-1
1514955413328486,-1,-1,-1,-3,-3,0,-1,1
1514955413348545,0,-1,-2,-1,-1,-1,1,-3
1514955413348545,0,-1,0,0,1,-1,-2,0
1514955413349545,-2,-2,0,-2,-2,1,-1,-1
1514955413349545,-2,-2,-1,-2,-2,-1,-1,-2
1514955413371549,-2,-3,-4,2,-1,-2,-2,-1
1514955413371549,-1,0,1,-1,-3,-1,-1,0
1514955413373551,1,-2,-1,-2,0,-2,-1,0
1514955413373551,1,-1,4,0,-1,0,-1,-1
1514955413385613,0,1,1,-2,-2,1,-1,-1
1514955413385613,-2,0,-9,1,1,-2,-5,-3
1514955413385613,1,2,20,3,-1,2,3,0
1514955413385613,-2,-7,-43,-14,-4,-3,-5,-1
1514955413408584,0,1,-11,1,0,-1,1,0
1514955413408584,-2,-7,-4,-10,-2,-1,0,0
1514955413409585,-1,1,2,1,0,0,-3,-2
1514955413409585,-2,1,12,1,-1,-1,1,-1
1514955413430593,0,0,18,3,0,1,-2,-2
1514955413430593,-1,0,-5,0,-3,-2,1,2
1514955413431590,-3,-3,-10,-2,-1,-2,0,-2
1514955413431590,0,3,11,2,-2,-1,1,1
1514955413445617,0,-2,-5,-6,-3,-1,-3,0
1514955413445617,-1,-1,7,8,0,-2,-2,0
1514955413446602,-3,-2,-4,-2,-1,-1,-1,-2
1514955413446602,-1,2,4,4,-2,-3,-1,-2
1514955413468620,0,-1,-5,1,-1,-3,1,1
1514955413468620,-3,-3,-2,-14,-6,-3,-1,-1
1514955413470622,0,3,8,12,4,0,1,0
1514955413470622,3,-3,5,-6,-1,1,0,-2
1514955413490688,0,0,-8,-6,0,0,2,1
1514955413490688,-7,0,-1,1,0,-1,-2,-4
1514955413491634,1,-4,-2,-5,-4,-3,-1,-2
1514955413491634,-9,-2,-11,-2,-2,0,-1,-1
1514955413505664,-7,-4,-1,0,1,-1,-2,-1
1514955413505664,12,0,-12,2,-1,-2,1,3
1514955413505664,-2,6,19,10,1,0,1,0
1514955413505664,-5,-12,-14,-15,-9,-2,-1,-6
1514955413528663,0,0,-7,-4,-1,0,-2,-2
1514955413528663,-3,0,-1,-3,0,-1,-3,-2
1514955413529664,-2,-3,-6,1,0,-3,-1,-2
1514955413529664,4,4,3,7,1,-1,1,1
1514955413550684,-3,-1,-5,-3,-2,-5,-2,-3
1514955413550684,-2,-3,6,1,-1,1,1,-2
1514955413551675,-3,-3,-8,-9,-3,-1,-3,-1
1514955413551675,2,4,-11,6,3,1,0,0
1514955413565716,1,-2,21,1,1,-3,-2,0
1514955413565716,4,-1,16,2,4,1,-2,-1
1514955413565716,-4,-8,-24,-14,-8,-2,-3,-3
1514955413565716,7,-1,15,0,-1,0,1,1
1514955413588704,-2,2,3,2,-1,-1,1,1
1514955413588704,-2,-1,-13,0,-2,0,-1,0
1514955413590704,-4,0,12,-1,3,-1,0,-2
1514955413590704,-2,-4,-16,-4,-1,-4,1,0
1514955413610719,2,2,5,0,-1,1,-2,-1
1514955413610719,-1,-2,-8,-1,0,-1,1,-2
1514955413611718,1,-1,2,1,-2,-2,-3,1
1514955413611718,-5,1,3,4,2,-1,-3,-1
1514955413625728,-4,-1,-26,0,-3,0,0,-2
1514955413625728,5,3,13,3,1,-2,-2,0
1514955413632736,-8,-4,-8,-3,0,-3,0,-1
1514955413632736,5,2,30,4,-1,-1,0,0
1514955413648754,-5,-2,-28,-2,-1,-2,-3,0
1514955413648754,-3,3,20,3,3,0,0,2
1514955413648754,1,5,14,0,-2,-1,1,-2
1514955413648754,6,-7,-1,4,1,1,0,-3
1514955413671761,-16,-9,-44,-15,-6,-1,-1,-2
1514955413671761,7,2,1,-2,-3,0,-3,-3
1514955413673762,-30,-8,-4,0,-2,-1,1,-3
1514955413673762,-2,1,-2,-2,1,1,-1,-1
1514955413684796,9,1,26,6,2,0,1,1
1514955413684796,-6,5,-25,-7,-1,-3,-3,0
1514955413692779,18,2,-3,-2,-1,1,-2,3
1514955413692779,-7,-11,1,1,-3,-2,-4,-5
1514955413708815,0,-6,-7,-3,0,-1,-1,0
1514955413708815,-2,2,2,-4,-2,-2,0,0
1514955413708815,16,13,3,0,-2,0,-1,-2
1514955413708815,-7,1,-9,-1,1,0,-4,1
1514955413730805,9,-8,12,-1,-3,-2,1,1
1514955413730805,-6,-5,1,0,-2,-2,-1,-2
1514955413731803,2,4,10,-6,-1,0,0,-2
1514955413731803,-4,-3,4,-1,-4,-2,-2,-2
1514955413744836,1,-5,9,3,2,1,0,-1
1514955413744836,-1,-3,2,-1,0,0,2,4
1514955413752830,3,-4,-33,-5,-2,0,0,-1
1514955413752830,-2,6,13,1,0,1,0,0
1514955413768830,5,2,7,-1,-1,-1,-2,1
1514955413768830,-11,-2,-6,1,-2,-1,-4,-2
1514955413769840,3,-3,1,2,1,-1,0,-1
1514955413769840,1,7,-6,-4,-3,-1,-1,-3
1514955413790869,-19,-6,2,1,-1,-1,0,-1
1514955413790869,5,-3,-2,-3,-1,0,0,0
1514955413791855,-5,-5,-3,0,-2,-2,0,-1
1514955413791855,6,4,-5,-1,-1,0,-2,0
1514955413804877,-1,7,9,2,0,-2,-1,-2
1514955413804877,3,-4,-13,-3,2,1,-1,-1
1514955413812883,-8,-6,9,4,-2,-2,-1,-3
1514955413812883,-5,-10,-16,-8,-2,-3,1,-4
1514955413828886,8,10,8,0,0,-3,-5,-1
1514955413828886,-8,-2,-6,1,-1,1,1,1
1514955413828886,-1,-1,4,-1,1,-2,-6,1
1514955413828886,5,0,-3,5,2,0,6,-2
1514955413850898,4,0,0,2,0,4,2,0
1514955413850898,-12,-6,-20,-11,-6,-3,3,-4
1514955413852899,6,6,-1,-3,-4,-6,-14,0
1514955413852899,-18,-5,-22,-2,0,-4,0,2
1514955413865898,-5,-14,-1,-3,-2,-2,1,-1
1514955413865898,16,6,6,2,0,-2,-1,-1
1514955413873904,-5,3,6,0,-1,3,-2,1
1514955413873904,-17,-2,11,3,2,1,-1,-1
1514955413888925,-3,2,-1,0,0,-3,-2,-3
1514955413888925,-5,-8,12,0,-1,0,-2,-1
1514955413890915,1,-1,-22,-5,-4,-3,-1,-4
1514955413890915,-1,12,23,1,1,0,2,0
1514955413910930,3,1,-30,-3,-1,0,0,-2
1514955413910930,-37,-9,14,-4,-5,-3,-3,-7
1514955413911931,18,4,7,0,0,1,2,3
1514955413911931,-1,-9,-17,-4,-2,2,-3,-2
1514955413925943,-10,-3,6,0,-2,-2,-4,1
1514955413925943,23,4,46,8,0,-3,-6,2
1514955413933950,7,0,-49,-1,0,-3,6,1
1514955413933950,8,-2,19,-1,0,5,-1,-1
1514955413947955,7,5,-6,-6,-3,-5,-2,-3
1514955413947955,16,-4,-24,-2,1,0,-2,2
1514955413955982,6,5,28,9,3,-3,5,3
1514955413955982,12,3,5,7,0,1,-1,0
1514955413970971,-26,-20,-24,-19,-9,-4,-2,-6
1514955413970971,19,3,4,3,2,1,4,2
1514955413974985,-28,-7,-11,-6,-3,-2,-4,-6
1514955413974985,7,-6,13,2,1,-2,3,1
1514955413993988,0,7,26,8,1,-1,-3,-2
1514955413993988,17,4,-20,-4,-3,1,-2,-3
1514955413994989,-30,-19,11,-2,-3,-3,-4,-3
1514955413994989,-11,14,2,5,3,9,-3,3
1514955414007010,3,-17,-16,-2,-3,-4,11,0
1514955414007010,5,17,3,-5,-2,-3,-3,2
1514955414016005,-6,-8,0,8,1,1,1,-3
1514955414016005,-16,4,4,-6,-5,-4,-4,-4
1514955414031060,17,9,9,-5,1,5,-2,1
1514955414031060,-19,-8,-12,5,-3,-2,-2,-3
1514955414032061,-4,1,-2,1,-2,2,1,-4
1514955414032061,16,-12,-29,-15,-6,-7,-4,-2
1514955414053071,-18,5,28,13,5,1,-5,-2
1514955414053071,-6,-1,-37,-10,-3,-3,8,3
1514955414055062,3,12,18,4,1,0,-2,8
1514955414055062,19,-13,0,3,0,-3,-6,-13
1514955414068084,-34,2,16,-5,0,-2,0,2
1514955414068084,10,-8,-28,-7,-2,-1,-10,-7
1514955414075076,26,-6,-7,-8,-3,-3,16,3
1514955414075076,-23,11,-3,2,2,4,-1,-6
1514955414091088,26,2,-17,7,-1,-10,-29,-18
1514955414091088,10,15,53,15,3,4,5,-13
1514955414092090,-6,-7,0,-11,2,9,55,28
1514955414092090,36,-17,-69,-16,-3,-7,-18,-22
1514955414113104,-18,3,49,-7,-4,-4,-27,-12
1514955414113104,16,-8,-18,-9,-7,0,74,17
1514955414115108,9,28,-8,10,8,10,12,-22
1514955414115108,-25,-18,45,10,2,16,61,124
1514955414128118,27,-2,8,-2,-3,-2,-8,2
1514955414128118,-53,-12,-42,-2,2,-5,-50,-36
1514955414142151,28,5,49,5,-4,-1,-7,-7
1514955414142151,-41,1,29,-6,-7,-9,-17,-20
1514955414151131,-18,-30,-73,7,1,2,-16,-24
1514955414151131,5,9,16,-19,-8,-3,22,32
1514955414152132,-6,-19,-33,-20,-4,-8,-42,-11
1514955414152132,-27,-2,18,-10,-7,-6,-28,-52
1514955414174152,41,3,17,9,5,1,-1,29
1514955414174152,-37,13,-17,1,-2,-4,-22,-47
1514955414178153,1,1,56,19,2,2,15,31
1514955414178153,-31,-20,-75,-25,-10,-9,-15,-21
1514955414188161,-32,9,59,-4,-2,2,51,35
1514955414188161,-1,-10,-12,-11,-4,-3,-12,-2
1514955414194271,-6,16,-6,2,1,-5,-39,-32
1514955414194271,-14,14,57,27,6,6,16,-33
1514955414212227,67,31,-33,12,1,0,8,69
1514955414212227,-32,-7,54,13,5,5,-16,-11
1514955414214228,-10,-20,-54,-23,-13,-9,-11,4
1514955414214228,38,4,-33,-6,5,5,-25,-24
1514955414233244,-19,24,20,10,2,-6,12,16
1514955414233244,9,-7,48,12,5,0,-2,6
1514955414235272,60,12,33,7,2,0,-22,-26
1514955414235272,-12,-11,28,11,2,0,-14,-2
1514955414248253,-5,-19,-15,-28,-12,-3,15,-13
1514955414248253,-37,-14,-30,-1,3,3,3,31
1514955414254276,13,11,-11,1,1,3,-1,3
1514955414254276,-1,17,25,12,3,-4,2,29
1514955414271288,-12,-14,-21,-19,-7,-1,-1,-10
1514955414271288,20,6,33,19,3,-5,-22,-20
1514955414272272,-74,-28,-22,-4,-1,-4,-30,-24
1514955414272272,74,14,-31,-13,-8,-7,24,26
1514955414293296,-44,-9,-6,-2,5,4,-8,-23
1514955414293296,11,-32,-24,2,3,1,-22,-13
1514955414295297,-16,21,14,5,-4,-3,22,12
1514955414295297,4,11,41,6,-2,-1,-12,-37
1514955414308294,0,-17,-45,-1,-9,-8,-40,-1
1514955414308294,3,21,-20,-19,2,6,22,-8
1514955414315298,0,-1,-1,-7,-1,-5,-26,-18
1514955414315298,-10,-26,15,1,-2,-2,22,87
1514955414331323,5,0,-5,-1,-4,-2,-13,-41
1514955414331323,-2,-3,19,5,-2,-3,-20,-15
1514955414332310,4,-3,-58,-16,-3,0,14,-7
1514955414332310,6,16,-11,-6,2,-2,-8,-16
1514955414361340,-42,-8,19,4,8,5,6,-5
1514955414361340,34,-5,-9,11,-9,-11,-4,45
1514955414362331,-18,-12,48,8,3,1,31,27
1514955414362331,41,0,-70,-33,-9,-6,-15,-18
1514955414367345,-16,-14,13,5,2,1,3,-18
1514955414367345,-29,13,-9,2,3,3,52,35
1514955414374350,69,17,7,14,-2,-4,-39,-31
1514955414374350,-24,-11,64,21,7,6,21,28
1514955414391354,-8,-18,-89,-21,-7,-3,11,-34
1514955414391354,69,34,28,0,1,-2,-15,37
1514955414393356,-17,18,17,4,1,2,21,30
1514955414393356,27,-2,-26,8,-1,-5,-12,-8
1514955414413391,59,9,-7,12,4,0,-7,-2
1514955414413391,-36,-6,-42,-33,-16,-6,0,-27
1514955414420373,-36,-17,0,-7,0,5,20,-2
1514955414420373,17,35,2,9,3,-2,-13,-47
1514955414428382,-40,-29,17,2,-3,-2,7,32
1514955414428382,93,5,-6,14,3,-1,10,-8
1514955414434383,-65,-19,-27,-7,-4,2,13,45
1514955414434383,-94,-15,-1,-13,-2,2,5,-13
1514955414451397,117,39,0,-7,-1,-1,2,1
1514955414451397,-40,-20,42,8,1,2,-3,-5
1514955414452395,-24,22,10,13,1,-2,-9,-34
1514955414452395,21,1,-65,-21,-1,2,9,-23
1514955414473429,35,3,35,-7,-3,4,1,53
1514955414473429,-55,-2,-21,2,0,-5,-20,6
1514955414475413,-12,-16,-17,-3,-2,-3,0,-17
1514955414475413,58,1,27,23,0,-8,-20,-40
1514955414487421,-52,7,1,-6,1,3,31,43
1514955414487421,30,8,-5,-6,0,-1,-2,-14
1514955414496429,43,-9,0,-2,-3,-1,-12,10
1514955414496429,-43,-7,17,-1,-3,1,5,18
1514955414511462,-28,-1,18,12,7,1,-7,-50
1514955414511462,48,17,16,7,-5,-7,-5,-7
1514955414512439,20,1,-27,-21,-4,0,5,3
1514955414512439,-24,-19,28,22,6,5,17,28
1514955414533458,-38,13,-3,-11,-9,-2,-10,-19
1514955414533458,-26,-7,12,-2,2,7,29,7
1514955414535455,-12,6,16,0,-4,-8,-25,-25
1514955414535455,49,-2,41,2,6,4,8,8
1514955414547463,-69,-11,-72,-3,-6,-1,2,10
1514955414547463,77,-22,34,10,13,6,5,20
1514955414556470,32,17,-24,-17,-9,0,7,1
1514955414556470,71,-4,6,10,1,0,-4,-7
1514955414571483,62,-12,67,5,1,-1,-3,19
1514955414571483,-63,-15,-66,-39,-18,-8,-3,17
1514955414572480,42,-31,9,13,7,1,-20,-21
1514955414572480,-78,16,-4,4,5,4,-9,9
1514955414593500,3,-14,15,-2,-1,-8,4,-21
1514955414593500,-13,10,-5,11,1,3,-9,-24
1514955414595497,49,4,10,1,-5,-5,-16,-2
1514955414595497,-43,36,-2,-11,-3,-1,9,28
1514955414607510,51,-14,1,0,-3,-6,-12,-23
1514955414607510,-15,23,17,-7,-4,0,-2,-9
1514955414617515,-38,-28,-27,-16,-4,-1,6,5
1514955414617515,30,-35,-11,-9,-3,-6,-12,-27
1514955414638529,34,24,13,9,4,4,3,10
1514955414638529,-60,-20,-25,3,-3,-9,-34,-31
1514955414640530,73,12,6,9,7,7,30,51
1514955414640530,35,16,-17,-8,-4,2,8,-9
1514955414653542,-36,-13,-8,-19,-6,-2,5,20
1514955414653542,-3,0,2,-6,-3,-2,-14,-57
1514955414654538,1,-19,43,13,5,7,18,39
1514955414654538,-111,-27,-57,-7,-6,-5,-6,29
1514955414667566,55,15,13,10,2,1,8,-48
1514955414667566,-94,3,-2,-4,-1,0,1,10
1514955414676556,44,-8,-31,2,6,-4,10,31
1514955414676556,35,11,-20,-5,-10,-5,-1,6
1514955414691568,-41,-15,8,-4,-5,-3,-3,2
1514955414691568,78,16,-21,-12,5,1,-5,16
1514955414692567,-34,-50,5,-28,-11,-7,4,-30
1514955414692567,50,10,2,7,-1,-7,-20,-4
1514955414713582,-49,23,-22,5,1,0,-10,-5
1514955414713582,97,-26,57,10,-3,-2,-4,29
1514955414714585,-112,65,20,24,12,8,11,-38
1514955414714585,66,-52,-63,-17,-8,-4,-6,-24
1514955414727594,-66,-39,-30,-20,-5,-4,-13,19
1514955414727594,-25,3,40,10,2,5,25,-36
1514955414735595,-28,-5,-52,-12,-7,-8,-18,5
1514955414735595,-32,-17,52,23,-3,0,6,-18
1514955414750607,57,48,-35,-17,2,-8,-35,-2
1514955414750607,-52,-18,-2,1,2,-1,15,8
1514955414752608,47,19,-30,1,-4,3,-3,-13
1514955414752608,-8,35,9,13,-1,-1,-6,-27
1514955414773624,-4,-6,14,-2,9,6,1,8
1514955414773624,7,15,47,13,-4,-6,1,49
1514955414775631,-49,-41,-62,-29,-11,-8,-8,-17
1514955414775631,17,17,37,7,-1,0,-32,-34
1514955414786634,-20,-18,24,32,2,-1,-1,8
1514955414786634,69,14,-54,-29,-6,-4,2,-11
1514955414796639,-61,4,-17,17,3,3,-5,-1
1514955414796639,43,65,-64,-2,-1,-4,16,61
1514955414811650,33,12,-4,-14,5,5,11,5
1514955414811650,-44,-54,-20,14,-7,-2,-24,-51
1514955414812654,61,-15,7,-14,9,2,23,30
1514955414812654,-21,1,51,-10,-5,4,-6,3
1514955414833666,0,48,-26,16,3,-2,-5,18
1514955414833666,-7,-17,40,16,-3,5,14,-6
1514955414834669,3,18,-9,-15,-8,-4,-16,9
1514955414834669,46,6,61,5,9,2,8,-30
1514955414847676,35,28,54,46,18,8,3,-14
1514955414847676,1,-6,-103,-28,-13,-8,-19,-11
1514955414855683,12,-15,45,-33,-16,-3,10,7
1514955414855683,-56,-77,21,20,12,-1,2,-11
1514955414870692,4,7,-38,-5,-10,1,11,17
1514955414870692,48,9,16,-5,-3,-3,-7,-10
1514955414872697,-91,-55,-71,-22,-5,-1,-15,-25
1514955414872697,50,5,-32,-14,-7,-2,10,17
1514955414893708,46,17,65,-6,-3,-5,9,21
1514955414893708,-30,-11,82,43,19,9,5,-2
1514955414894709,-70,-30,-37,-46,-19,-9,0,-8
1514955414894709,29,27,4,-9,-2,-5,-11,-4
1514955414917726,-69,-50,9,22,-1,-5,-27,-80
1514955414917726,-30,0,4,-40,4,5,38,67
1514955414921731,122,60,41,27,0,-2,10,-10
1514955414921731,-50,-52,-9,10,0,-1,-9,8
1514955414930733,-1,15,41,-1,1,0,-9,-15
1514955414930733,46,37,-80,-32,-9,-4,4,52
1514955414936738,-20,37,61,53,13,3,-4,-65
1514955414936738,-78,-27,-12,-40,-14,-4,23,46
1514955414953750,-45,-8,-22,-19,-8,-3,-6,-39
1514955414953750,-9,29,-3,6,2,-1,-11,19
1514955414956757,21,4,81,31,5,-1,-18,1
1514955414956757,-6,15,-29,-7,1,8,15,17
1514955414975766,72,-8,-49,-15,-3,0,2,24
1514955414975766,-17,-36,2,-13,-8,-3,26,-2
1514955414977771,7,67,-5,13,10,3,-17,11
1514955414977771,-7,24,21,4,2,-5,2,-26
1514955414991785,-62,-41,-41,-21,-7,3,24,34
1514955414991785,-7,8,18,15,-3,-9,-24,-58
1514955414993778,37,30,6,1,-4,-1,4,33
1514955414993778,-32,-12,27,13,6,7,-3,-4
1514955415013792,-3,-29,-82,-49,-21,-12,-7,-16
1514955415013792,2,-16,37,23,12,4,-20,-32
1514955415014792,-15,20,83,14,4,3,20,22
1514955415014792,-32,36,-50,-19,-4,-3,-6,-50
1514955415036809,52,-30,11,14,-2,-4,-6,17
1514955415036809,-53,-26,-16,-9,-7,-2,13,-5
1514955415040811,23,5,9,-7,1,4,-2,34
1514955415040811,15,-5,-43,-1,-2,-5,-8,-17
1514955415049827,-23,39,22,0,3,0,16,10
1514955415049827,-14,-48,4,3,-8,-3,-2,-5
1514955415056823,4,-9,-43,-14,1,7,16,-5
1514955415056823,82,15,65,3,-6,-8,-4,20
1514955415073851,14,9,-2,-2,-7,-5,0,-22
1514955415073851,21,-1,-11,6,4,7,-2,-1
1514955415074835,-24,-15,23,14,1,-4,-13,-8
1514955415074835,-22,-24,-32,-15,-5,3,5,19
1514955415095853,64,47,23,16,7,-5,-29,-19
1514955415095853,-44,-3,-52,-24,-7,-1,19,6
1514955415097852,7,-79,-39,0,-1,-4,-14,-12
1514955415097852,29,18,-9,4,1,0,6,22
1514955415109870,-23,-35,28,11,-4,-10,-21,-29
1514955415109870,50,111,5,0,14,8,-5,20
1514955415116874,-13,-55,-24,-13,-14,-10,-5,-87
1514955415116874,50,4,5,13,3,-5,-13,14
1514955415133889,-18,16,57,4,1,6,14,-4
1514955415133889,20,6,-23,-2,-2,-6,-4,22
1514955415136889,24,31,39,6,3,3,8,-3
1514955415136889,-3,-25,-11,-14,-3,2,-9,2
1514955415162907,-60,-35,9,6,4,8,27,-17
1514955415162907,-22,-38,-48,-26,-12,-7,-26,11
1514955415164907,14,-9,-7,-8,0,-2,5,18
1514955415164907,-37,-1,22,18,2,0,-8,-21
1514955415169919,8,-32,-11,-8,-3,-2,8,40
1514955415169919,-1,-50,-13,-5,0,-1,-7,-19
1514955415176924,33,31,-2,6,-4,-1,-4,1
1514955415176924,-81,-75,-13,6,5,0,-4,-17
1514955415193929,7,-1,-17,-13,1,-3,-17,-3
1514955415193929,-39,-6,30,6,0,3,16,-6
1514955415195920,22,35,24,-3,1,1,-10,21
1514955415195920,7,23,23,9,2,3,12,-8
1514955415215946,-28,-4,-20,-3,0,0,-16,-43
1514955415215946,-8,-12,0,-5,-3,1,-8,5
1514955415217937,-20,-14,40,12,4,3,25,13
1514955415217937,43,51,-1,-32,-11,-4,-6,-13
1514955415229955,-37,-71,-49,0,-1,-2,5,10
1514955415229955,21,14,25,14,2,0,-4,8
1514955415236961,-9,-25,-2,-7,-5,-5,-14,-9
1514955415236961,12,21,24,-2,-7,-7,7,18
1514955415253979,25,20,-78,-12,-4,-1,1,0
1514955415253979,3,14,21,-2,-2,1,2,12
1514955415256965,-41,-96,-64,-3,-2,0,1,-10
1514955415256965,-12,-13,-5,-14,2,2,-7,-36
1514955415275987,73,57,18,16,7,6,13,19
1514955415275987,-3,-37,-28,9,-6,-2,23,33
1514955415276979,-12,12,41,0,5,1,-26,-12
1514955415276979,-41,-27,-71,-14,-6,-1,19,19
1514955415289997,18,-2,-19,-15,-6,-5,-14,1
1514955415289997,37,24,28,8,1,0,7,-23
1514955415297002,-61,34,-1,12,1,2,-12,6
1514955415297002,-35,-56,-8,-15,1,1,8,12
1514955415313016,-15,36,56,16,2,0,9,20
1514955415313016,37,26,-26,-8,-1,-1,-3,-32
1514955415315005,-29,-8,-45,-1,-13,-8,1,4
1514955415315005,22,-7,28,-9,10,4,-13,-30
1514955415336032,-20,-14,0,4,5,6,16,6
1514955415336032,-15,34,50,8,-4,-4,-4,2
1514955415337021,0,-11,-33,-13,-4,-4,-3,-5
1514955415337021,20,22,-18,21,3,-3,-18,8
1514955415350040,-28,-20,9,-5,-5,0,0,-3
1514955415350040,-17,-19,7,0,-1,-6,-17,-9
1514955415358035,14,12,-9,-5,1,1,0,-17
1514955415358035,12,41,25,11,-1,3,7,2
1514955415373058,34,-14,34,-5,1,-2,-10,1
1514955415373058,12,7,-11,7,0,0,-7,-7
1514955415375057,-38,-21,9,6,-1,0,-1,12
1514955415375057,2,34,12,-11,4,-1,-6,-7
1514955415396062,-44,-43,18,2,-3,-2,3,-3
1514955415396062,63,34,57,-1,3,-2,2,11
1514955415400065,22,1,-51,2,-2,1,-4,-15
1514955415400065,-27,-15,-19,-9,-6,-8,2,18
1514955415409071,13,22,42,16,3,-1,-14,20
1514955415409071,-25,-10,-61,-6,-5,-2,-2,2
1514955415419078,56,18,62,6,4,-1,2,-11
1514955415419078,-67,-12,-46,5,-6,-4,-7,32
1514955415433090,-28,-44,-19,-16,-6,-4,1,-9
1514955415433090,2,14,1,14,6,1,13,-4
1514955415435089,9,0,37,1,1,2,-7,35
1514955415435089,14,-23,-23,-2,-6,0,14,-7
1514955415456105,21,39,-9,-5,6,0,-6,-18
1514955415456105,-6,-4,31,4,-7,-2,-12,13
1514955415457105,2,13,-14,-7,3,3,10,1
1514955415457105,12,-28,32,12,6,-4,-18,-17
1514955415470126,20,24,13,3,-7,-2,26,90
1514955415470126,-17,-23,-69,-16,-3,-1,14,-12
1514955415478132,17,22,6,-4,-2,1,-3,-27
1514955415478132,32,-3,23,6,1,-3,-11,-5
1514955415493153,36,27,11,5,7,5,8,-11
1514955415493153,7,-57,-19,-11,-3,-6,-10,2
1514955415495133,11,-6,-1,-6,-7,-3,5,3
1514955415495133,-10,28,9,1,-6,0,11,3
1514955415516157,10,32,34,17,4,-6,-36,-19
1514955415516157,1,40,-33,-16,-8,-2,16,-4
1514955415517147,-4,-36,-30,-15,-1,2,4,5
1514955415517147,-1,22,28,2,-3,0,-1,10
1514955415529156,-5,1,26,-4,0,1,0,-8
1514955415529156,-18,30,-1,13,2,-4,-13,4
1514955415538164,-33,-6,-2,-3,-6,-4,-2,-13
1514955415538164,14,-38,-25,-1,-3,-3,-8,3
1514955415555185,-17,15,-2,5,-5,-1,3,-1
1514955415555185,-18,-10,-5,-4,3,1,-22,-28
1514955415558186,8,-14,10,-16,-5,-7,-12,-8
1514955415558186,-10,-16,8,12,1,0,3,27
1514955415576202,34,14,-32,-17,-10,-9,-13,-12
1514955415576202,-21,-34,26,4,2,-2,-24,-28
1514955415577202,-22,16,1,17,4,-1,2,-4
1514955415577202,13,29,9,-14,1,0,-2,17
1514955415590201,15,-12,-17,4,4,1,-1,-4
1514955415590201,-8,-18,15,0,-1,2,7,-6
1514955415600206,-4,23,20,-4,-1,1,8,11
1514955415600206,12,52,-34,2,4,0,2,-8
1514955415613215,-25,-75,-30,-15,-8,1,23,5
1514955415613215,-1,-6,5,-6,-6,-6,-14,-18
1514955415615216,14,5,20,14,3,-1,-4,-8
1514955415615216,17,26,14,-5,-2,3,7,8
1514955415637232,-29,-22,-69,-13,0,0,-10,-30
1514955415637232,31,29,59,16,0,2,6,8
1514955415640235,17,11,-18,-1,-1,1,8,29
1514955415640235,-26,-27,-13,-10,-5,-2,-8,-40
1514955415649241,-36,18,28,11,5,4,1,7
1514955415649241,29,-3,-7,2,-2,-2,16,26
1514955415658248,-30,12,-3,2,-2,2,-11,-9
1514955415658248,45,-60,22,-3,-2,-3,4,-7
1514955415673258,-20,-8,-51,-3,-5,-3,-11,0
1514955415673258,0,16,13,2,8,2,-1,-6
1514955415675259,-16,-8,-25,-16,-1,0,-15,-34
1514955415675259,62,41,21,14,0,-1,24,19
1514955415696291,18,-3,41,0,-9,-7,-12,11
1514955415696291,-56,-27,-50,-4,0,-1,0,-27
1514955415697276,5,-5,9,12,1,-1,4,21
1514955415697276,-18,-2,-20,-18,-5,-1,-1,-23
1514955415709285,-6,35,20,15,7,-1,-3,-14
1514955415709285,-34,-26,6,-6,-6,-4,-9,9
1514955415718291,13,46,5,-4,-3,-3,30,3
1514955415718291,-17,-58,-21,2,-3,0,-13,-5
1514955415733312,2,-23,-10,-18,0,2,2,2
1514955415733312,17,21,1,-9,-3,-4,-31,-10
1514955415735314,13,22,18,9,1,3,26,-21
1514955415735314,-59,-29,-14,-21,-7,-3,-4,39
1514955415756323,60,4,-6,6,-3,2,1,2
1514955415756323,-27,-13,12,15,7,6,12,13
1514955415759321,39,-25,-43,-14,-12,-10,-5,14
1514955415759321,-17,41,3,6,3,0,-8,-10
1514955415769326,-15,-50,-23,-4,2,-1,-5,-25
1514955415769326,11,25,4,-10,-6,-2,9,15
1514955415778333,0,-36,30,25,4,-1,-8,2
1514955415778333,-10,15,-41,-19,-7,-2,-3,2
1514955415793343,23,18,5,-4,3,-2,-11,-4
1514955415793343,6,-28,-12,1,3,-1,-5,-31
1514955415795357,0,5,-25,-10,-9,-3,4,36
1514955415795357,-26,-22,27,6,9,1,-13,-47
1514955415815358,-30,4,6,1,-4,-2,3,4
1514955415815358,26,7,-10,2,2,2,4,-5
1514955415823364,-37,-12,1,-5,-1,1,-7,-6
1514955415823364,50,1,-1,5,-2,-6,13,27
1514955415829378,-11,5,21,11,2,4,5,5
1514955415829378,2,9,-19,-11,-1,-2,-3,0
1514955415838375,12,-10,0,-4,-4,-4,0,-22
1514955415838375,13,19,15,6,4,5,1,24
1514955415854405,-33,5,0,-2,-7,-8,17,4
1514955415854405,-20,-1,11,5,0,2,-21,-29
1514955415857388,46,27,-27,-13,5,2,2,38
1514955415857388,-9,-9,12,7,-5,-3,-6,-28
1514955415876415,18,6,-10,-23,-3,-2,7,4
1514955415876415,9,-11,-53,1,-4,-1,7,8
1514955415877409,-9,33,-7,1,-1,-2,-16,-31
1514955415877409,-6,4,-1,-1,1,3,1,-9
1514955415898417,-7,10,18,13,0,0,-4,2
1514955415898417,18,-6,-2,3,-4,-1,18,15
1514955415900428,-1,-8,8,4,7,0,-5,1
1514955415900428,-2,-15,-7,-12,-7,-4,-4,5
1514955415913427,-6,15,-6,-2,0,-4,-2,-23
1514955415913427,-24,-8,9,3,0,1,7,3
1514955415915429,-30,-51,19,8,2,-3,-2,-7
1514955415915429,0,34,12,3,1,-1,-2,-10
1514955415935455,37,19,-14,-16,-6,-3,-7,3
1514955415935455,-45,-26,0,9,-1,-7,-4,-25
1514955415938445,21,3,-4,-6,1,9,23,38
1514955415938445,-16,-26,-13,-3,-2,-4,10,-15
1514955415958469,-51,-6,-17,10,4,1,-4,29
1514955415958469,63,60,23,-1,-4,-2,11,10
1514955415960461,-44,-90,-8,-5,-5,-2,-17,4
1514955415960461,41,6,-3,4,-1,0,-6,-5
1514955415973471,3,-29,-12,-3,-4,1,14,8
1514955415973471,8,19,25,5,3,3,4,11
1514955415975472,10,53,15,-4,-1,-2,-3,-24
1514955415975472,-3,-4,-41,-9,-2,1,-3,-3
1514955415995486,8,-7,26,12,-2,-5,-20,-10
1514955415995486,26,-6,21,-6,-1,1,0,5
1514955415997487,-20,14,-28,1,11,4,-5,-17
1514955415997487,-2,9,26,-5,-2,-2,-7,-4
1514955416026508,36,14,-23,2,-4,-4,-6,-3
1514955416026508,-10,-33,-4,-7,-3,0,27,25
1514955416030526,-36,-9,1,10,-3,-4,-10,-19
1514955416030526,-30,-54,-1,8,5,2,1,-1
1514955416032515,21,8,-7,0,4,0,-3,-8
1514955416032515,-1,-7,-10,-10,-9,-7,-11,39
1514955416039517,0,0,-52,-16,-4,1,14,-9
1514955416039517,-2,12,16,-5,-7,-3,9,30
1514955416055541,10,18,35,14,5,4,-4,-36
1514955416055541,-16,-28,-27,-6,-3,-3,10,8
1514955416057542,29,5,10,1,-4,-1,0,0
1514955416057542,2,20,-28,0,-3,-5,-11,0
1514955416078545,-24,-5,0,-5,1,3,9,20
1514955416078545,-3,28,12,-1,0,1,-8,-43
1514955416080546,16,45,12,-3,-9,-5,-2,26
1514955416080546,-4,11,34,17,4,-3,-9,1
1514955416092555,-20,-9,-7,-17,-10,-5,-2,-10
1514955416092555,10,13,3,3,-1,-2,-6,-15
1514955416099559,-17,-15,47,4,4,1,4,18
1514955416099559,4,22,-19,-3,-2,0,-8,-28
1514955416115571,22,18,17,-7,-2,-2,0,-11
1514955416115571,12,-24,2,14,1,0,-7,-4
1514955416117572,-38,-27,2,-6,-2,4,-4,-23
1514955416117572,0,14,21,20,0,0,-6,-6
1514955416138604,4,-12,-25,-21,5,1,8,1
1514955416138604,-25,-14,18,-5,-6,-1,2,-3
1514955416139588,8,15,27,15,0,-6,-10,-13
1514955416139588,-4,-12,-56,-24,-9,-2,22,8
1514955416152596,-23,-20,-15,6,-3,1,-11,2
1514955416152596,0,-11,0,1,9,3,17,-9
1514955416159602,20,-6,1,2,0,-4,-12,-6
1514955416159602,-9,-16,-5,-3,-1,1,19,40
1514955416176614,2,6,-3,-2,-4,-2,-4,11
1514955416176614,16,16,-10,-8,-2,-1,2,27
1514955416179615,-13,11,-17,-8,-6,-6,-26,-47
1514955416179615,28,-25,-4,4,4,3,27,23
1514955416198639,-5,21,5,0,0,1,10,6
1514955416198639,3,-3,-14,3,-3,-1,-15,-8
1514955416199639,-10,-13,-45,-16,5,1,7,17
1514955416199639,0,-43,45,1,-4,-4,-8,-17
1514955416212648,-28,-7,-16,-6,-2,-2,-4,-9
1514955416212648,24,15,18,5,-1,-2,-8,-16
1514955416219644,18,-7,-13,6,-1,1,3,21
1514955416219644,15,-33,-40,-14,1,-4,-19,1
1514955416235655,-1,16,21,23,2,3,30,-1
1514955416235655,-28,-16,-19,-15,2,-1,-15,-16
1514955416239678,5,-5,52,1,-10,-2,11,10
1514955416239678,9,6,-19,-5,0,1,-11,7
1514955416258686,-7,-3,11,-10,-4,-7,-18,7
1514955416258686,-5,12,-21,9,-1,0,5,-13
1514955416259685,-17,-7,11,-6,-4,-1,12,13
1514955416259685,-26,18,31,13,5,3,-6,-10
1514955416272683,12,16,-56,-20,-14,-4,-8,-3
1514955416272683,-14,-26,0,-7,1,0,14,0
1514955416279701,-11,-1,28,7,4,3,-9,-25
1514955416279701,2,14,-22,2,-1,-8,-5,5
1514955416295712,-18,-10,-9,4,-1,-4,-4,1
1514955416295712,-21,4,14,0,0,-2,-5,16
1514955416301712,43,3,3,5,-3,-2,-5,10
1514955416301712,-12,15,4,-5,4,4,1,-13
1514955416318726,28,-7,3,-4,0,-1,27,30
1514955416318726,29,37,5,-2,-3,-2,-3,1
1514955416319715,-58,-53,-9,5,0,-2,1,-20
1514955416319715,4,9,-37,-20,-6,-3,-8,-3
1514955416332734,-15,-29,35,12,1,0,-3,3
1514955416332734,-16,6,13,-2,-9,-4,-18,-27
1514955416340730,4,20,-9,-3,3,1,11,24
1514955416340730,-28,-2,-41,-9,-6,-4,-16,-32
1514955416363758,-3,-31,22,-4,0,-5,-8,-13
1514955416363758,-23,-15,-9,-8,-6,-4,-20,-18
1514955416364765,5,42,-24,2,-1,-1,-3,-8
1514955416364765,32,-24,27,-1,-4,-2,5,23
1514955416378758,25,8,-28,9,6,5,-4,-11
1514955416378758,4,0,-8,1,3,-1,-1,-4
1514955416379757,8,9,31,-9,-7,-2,6,19
1514955416379757,-5,4,5,7,-2,1,1,-3
1514955416391778,3,15,-12,-9,1,0,-2,-15
1514955416391778,-20,-7,7,2,-1,0,5,23
1514955416400777,6,-10,-15,-12,-4,-4,0,2
1514955416400777,-11,-13,15,10,2,-1,7,4
1514955416416785,2,-9,-5,-1,-2,-4,-16,-1
1514955416416785,7,11,22,-3,0,-2,3,-4
1514955416419785,17,7,-35,0,-3,3,8,-6
1514955416419785,-4,20,53,6,3,0,-11,-9
1514955416438815,-20,-2,-24,-4,-2,3,13,5
1514955416438815,14,13,7,6,-2,-1,-8,3
1514955416439801,11,-66,-10,-2,-2,-4,-15,-7
1514955416439801,13,14,20,4,-5,-4,0,0
1514955416451820,8,10,-4,-1,1,0,-14,-27
1514955416451820,9,-17,-16,-2,4,6,28,16
1514955416460814,-13,11,-7,-1,-4,-4,-15,-24
1514955416460814,-1,-4,-14,-4,-1,1,23,53
1514955416475838,7,-6,25,-1,-1,-4,-24,-52
1514955416475838,21,-9,-16,-17,-3,0,5,7
1514955416477828,-17,9,4,21,3,2,5,14
1514955416477828,1,39,23,11,0,0,-7,-28
1514955416499842,5,-24,-40,-9,0,1,10,16
1514955416499842,26,-11,0,-3,-4,-4,-11,-1
1514955416502844,11,-8,-9,-14,-5,-3,9,9
1514955416502844,2,-10,-5,4,5,1,-7,-20
1514955416511891,-3,5,17,0,-6,0,8,5
1514955416511891,-25,-7,21,18,2,-2,-1,12
1514955416523860,17,5,-33,-19,-2,1,2,9
1514955416523860,9,1,-9,-3,-2,-2,-13,-31
1514955416535867,1,16,23,13,-7,-8,-7,-2
1514955416535867,21,-9,-5,-3,5,5,4,8
1514955416537869,3,26,3,2,0,-1,-1,-7
1514955416537869,-8,-33,-14,-12,-3,-2,4,10
1514955416557941,-30,-9,-1,-11,-1,0,-12,-6
1514955416557941,-23,21,32,12,-2,-1,-9,-23
1514955416559943,-6,-11,-16,3,-4,-3,-3,4
1514955416559943,-13,-11,-5,-9,3,1,2,-8
1514955416581948,22,-7,-3,3,-1,2,7,34
1514955416581948,-30,25,-3,2,2,0,6,-16
1514955416585952,14,-25,24,-9,-2,-1,-13,-1
1514955416585952,2,-5,-43,2,-3,-2,-3,-2
1514955416595959,-22,-31,43,1,-5,-4,2,4
1514955416595959,57,33,-9,-4,2,4,3,24
1514955416597958,-11,-6,16,11,8,5,4,-7
1514955416597958,-10,-41,-16,-6,-5,-5,-10,-9
1514955416618972,-10,13,1,-6,5,7,21,26
1514955416618972,6,-25,-24,-5,-5,-7,-21,-11
1514955416621977,5,27,17,-1,2,1,-15,-32
1514955416621977,-9,12,37,1,-4,0,15,39
1514955416631985,9,0,-11,3,0,-2,-9,-14
1514955416631985,-48,-19,0,-4,-1,1,-19,-26
1514955416640988,-2,20,6,12,-7,-6,29,33
1514955416640988,15,8,-16,-13,1,-5,-6,-21
1514955416656014,-6,1,-25,-2,2,1,-4,-12
1514955416656014,10,12,30,3,2,-1,0,-3
1514955416657007,-20,-18,-49,-5,-4,-4,-7,-12
1514955416657007,-11,-1,-15,5,-1,0,-4,-10
1514955416678028,9,-18,37,7,-2,-2,2,9
1514955416678028,23,8,-26,-20,1,1,5,16
1514955416680015,14,-7,50,25,7,3,9,2
1514955416680015,10,0,-47,-6,5,0,-2,17
1514955416692024,-33,14,1,-11,-4,-2,-4,-24
1514955416692024,28,-11,2,2,-5,-3,6,12
1514955416701048,-4,5,8,1,-3,-3,-15,7
1514955416701048,-15,2,11,-15,-2,0,-6,-19
1514955416716051,25,7,19,12,3,0,-6,10
1514955416716051,-47,-9,-51,-13,-8,0,5,-40
1514955416717041,-63,-31,2,-8,-2,2,1,-18
1514955416717041,21,-10,40,3,-1,-5,1,25
1514955416739093,-2,0,-28,4,3,-1,-1,17
1514955416739093,-12,2,4,11,-4,0,12,-3
1514955416743061,17,8,-13,-18,2,1,-4,-4
1514955416743061,-56,-1,19,11,-3,-1,4,-25
1514955416752066,15,-11,-8,-8,-1,-1,8,21
1514955416752066,-5,-10,-4,-3,2,-1,-2,10
1514955416761073,13,-21,-17,-7,-9,-6,-6,-4
1514955416761073,8,54,28,9,3,0,-3,0
1514955416776093,27,-16,8,-4,-1,-1,1,12
1514955416776093,10,-24,-33,3,-3,-4,-13,-24
1514955416777084,12,22,9,-18,-4,-3,-14,-3
1514955416777084,3,-3,-36,-4,-2,-3,0,2
1514955416798099,-16,-10,6,5,-4,-1,-3,-34
1514955416798099,-4,43,-3,2,2,4,13,17
1514955416800113,40,-13,14,9,1,-2,-12,-4
1514955416800113,-3,-13,5,6,-1,-3,-19,-31
1514955416822119,6,9,-17,-13,-2,4,36,54
1514955416822119,-2,-21,-2,-6,-6,0,-6,-13
1514955416825127,0,11,-3,1,1,-3,1,-1
1514955416825127,17,-9,3,2,2,2,-4,-4
1514955416836129,7,17,7,13,2,-2,11,2
1514955416836129,-5,-2,18,-8,-4,-3,-1,25
1514955416837126,-16,-9,-4,-2,-1,2,-1,-29
1514955416837126,18,-16,-11,-2,-5,-3,-2,13
1514955416859154,-6,12,3,-2,-3,1,-16,-13
1514955416859154,10,4,-13,-3,1,-3,4,1
1514955416860173,9,30,0,1,-6,-5,-2,0
1514955416860173,5,34,16,1,1,-2,3,7
1514955416882158,-14,-36,-38,1,-1,-4,-14,-19
1514955416882158,-39,5,7,-4,-1,0,-6,0
1514955416885176,2,23,-1,3,2,4,13,10
1514955416885176,13,18,30,6,0,0,4,16
1514955416896207,-11,-8,-57,-15,-5,-3,-14,-13
1514955416896207,-6,-7,19,7,4,-1,1,11
1514955416897169,-20,2,9,-1,-1,0,-10,-17
1514955416897169,6,1,-11,-2,-5,0,17,32
1514955416918184,12,31,37,12,7,0,-10,0
1514955416918184,-15,-45,-18,-8,-2,0,14,-16
1514955416922209,-4,24,-33,-3,1,1,2,7
1514955416922209,12,-57,20,-7,0,-1,-1,-15
1514955416941201,-32,-7,11,3,-4,-5,-6,-3
1514955416941201,44,13,-1,-1,-4,-2,-2,-2
1514955416942201,-66,1,14,6,-2,0,2,16
1514955416942201,8,31,-8,-10,-2,0,-3,4
1514955416955210,-21,-29,3,-1,-3,-3,-6,-31
1514955416955210,1,11,7,0,-2,-4,-6,13
1514955416962215,4,-51,-12,-11,-4,-6,5,-7
1514955416962215,-8,12,5,6,2,1,-7,-12
1514955416978236,4,37,-13,2,-6,-3,3,-5
1514955416978236,-23,14,32,3,3,4,-3,-2
1514955416981228,42,-26,-17,-6,-1,-2,-4,16
1514955416981228,3,20,-8,3,3,1,-2,4
1514955417001255,-5,-13,6,-2,-3,-3,0,-8
1514955417001255,24,-8,-17,5,1,4,8,-3
1514955417002259,-10,0,0,-4,-4,-5,-14,-15
1514955417002259,-23,8,4,-4,-4,-4,-3,-8
1514955417015264,4,32,-1,-5,1,1,2,0
1514955417015264,-36,-60,-6,-1,0,0,-6,4
1514955417022258,7,7,4,7,2,2,4,-19
1514955417022258,19,2,-1,3,-2,0,-4,-10
1514955417047279,4,-11,-5,-6,-2,-3,0,13
1514955417047279,-9,14,16,-5,-3,-4,-12,10
1514955417051278,18,5,-16,9,-2,-2,2,-13
1514955417051278,-53,0,4,-5,0,0,-10,-11
1514955417061298,5,-6,-18,-9,-2,0,1,5
1514955417061298,2,-5,-5,-4,0,-1,-2,-10
1514955417062285,49,-6,4,-1,0,-1,-1,18
1514955417062285,-6,-2,31,6,3,-1,5,3
1514955417075309,-5,-7,-30,-6,-1,-1,3,-5
1514955417075309,22,30,11,1,0,-2,-3,-12
1514955417082299,-13,4,9,-10,1,2,23,30
1514955417082299,4,-17,-31,1,-8,-5,2,1
1514955417098324,-8,24,38,-9,2,2,1,-10
1514955417098324,17,-9,-35,10,-1,-4,-2,6
1514955417100325,-14,0,-18,-4,-4,-1,0,-10
1514955417100325,17,-9,4,-5,0,0,2,8
1514955417122329,-61,1,-23,-8,-5,-5,-3,-1
1514955417122329,-39,-12,4,2,-3,-2,-3,-6
1514955417125330,1,-2,6,6,7,2,-6,-7
1514955417125330,-30,2,-4,-13,-8,-6,-5,-23
1514955417135337,45,-15,-17,5,5,2,-8,0
1514955417135337,32,30,28,-3,1,-1,7,3
1514955417142342,-38,-3,20,2,-1,1,-6,-2
1514955417142342,0,-8,-3,-3,-2,1,11,13
1514955417158365,-7,23,3,4,-1,0,-8,-1
1514955417158365,23,-19,-18,-12,-4,-2,-3,5
1514955417160367,-33,18,5,2,2,-1,-1,-9
1514955417160367,3,-13,-1,0,1,-1,-7,-13
1514955417181385,44,5,37,13,-3,0,12,25
1514955417181385,-22,0,-37,3,5,4,-2,11
1514955417184372,29,3,15,-8,-6,-4,-16,-55
1514955417184372,-24,-27,-33,-1,5,2,1,5
1514955417195383,15,7,-4,-8,-5,-2,-9,-2
1514955417195383,-2,-3,5,7,-3,-2,1,-10
1514955417202397,-25,5,2,-5,-1,-1,3,12
1514955417202397,-34,-17,-1,2,-3,-3,-3,-4
1514955417218413,27,-3,-16,-6,3,0,3,22
1514955417218413,-4,2,3,10,4,1,-6,-17
1514955417220398,-5,8,10,2,-2,-1,-9,-2
1514955417220398,33,16,-17,-5,-3,-4,-6,-9
1514955417241412,-38,-10,21,3,1,2,0,7
1514955417241412,7,5,8,-2,-1,0,-3,-15
1514955417243413,16,-5,-13,1,-3,-1,5,24
1514955417243413,5,-4,10,5,2,-1,-8,-14
1514955417255437,-9,-7,-22,-10,-4,-5,-2,-26
1514955417255437,3,31,38,9,-2,-1,-3,-2
1514955417262439,24,-6,-24,-4,-3,-2,3,-4
1514955417262439,-23,10,-19,-5,1,4,5,10
1514955417278451,-19,-35,8,8,1,-1,-2,-9
1514955417278451,-6,-7,10,-4,-7,-6,2,2
1514955417280439,19,-30,-34,-11,-3,-3,-1,25
1514955417280439,-12,-19,-12,-5,-4,0,8,-2
1514955417300454,55,31,23,6,2,3,-3,2
1514955417300454,-15,-12,0,1,-1,2,4,5
1514955417302456,5,0,-7,1,1,-3,-11,-14
1514955417302456,17,19,22,3,0,-1,3,18
1514955417324471,-9,9,-22,-11,-1,2,9,8
1514955417324471,-7,-33,-28,-5,-4,-7,-5,-19
1514955417327473,8,6,11,-4,2,4,3,30
1514955417327473,-7,-15,-13,0,2,1,1,0
1514955417338481,-6,-5,29,-4,-3,-4,0,-16
1514955417338481,10,5,-38,-2,-5,-2,1,6
1514955417339485,-39,6,33,0,1,0,3,-10
1514955417339485,48,3,-17,-2,-5,-5,4,7
1514955417360508,-10,-30,-30,0,5,1,-11,6
1514955417360508,-11,23,31,-18,-9,-6,-8,-20
1514955417362510,-8,-29,-25,2,2,3,5,-8
1514955417362510,18,23,3,-14,-9,-5,4,32
1514955417374518,-38,-10,-26,14,11,5,-2,-31
1514955417374518,11,-38,4,-11,1,0,4,10
1514955417383517,13,17,34,9,-3,-3,-4,7
1514955417383517,-40,-12,-27,1,1,1,-7,-25
1514955417398534,6,33,14,-1,-3,1,9,17
1514955417398534,22,-13,-9,2,0,2,19,22
1514955417399526,-25,11,-2,-2,-5,-5,-6,3
1514955417399526,-12,-15,16,-1,2,-2,-3,14
1514955417419548,25,-10,-9,-4,-10,-6,-8,-5
1514955417419548,-46,32,21,13,7,4,-3,-9
1514955417428545,16,-24,-6,-11,-7,-4,-5,-7
1514955417428545,19,15,20,-4,1,-1,0,-6
1514955417434549,1,-3,-1,-1,1,-1,-5,-2
1514955417434549,7,5,2,0,0,0,-5,-1
1514955417443555,10,16,-15,2,1,-3,0,-12
1514955417443555,-23,-5,-25,-5,-6,-2,-3,8
1514955417458567,21,-3,21,-5,-1,-3,-7,-3
1514955417458567,-18,-21,2,-1,0,0,1,-2
1514955417462570,-26,16,12,4,2,-1,-4,-3
1514955417462570,36,-11,19,7,3,4,7,21
1514955417488588,8,31,-12,-3,-9,-7,-4,-1
1514955417488588,-18,-28,-5,2,-1,-3,-10,-10
1514955417491589,7,-13,33,8,1,-1,-8,-2
1514955417491589,6,2,4,1,1,-3,0,-4
1514955417494592,-21,13,1,-10,-2,1,12,2
1514955417494592,29,-10,-5,2,3,-1,-12,-5
1514955417503602,-14,2,-12,-6,1,3,10,25
1514955417503602,-2,-5,34,18,0,-2,3,-30
1514955417518618,18,-9,-13,-9,-7,-2,-1,18
1514955417518618,-6,15,-3,-21,0,-1,0,-5
1514955417519620,-6,-2,20,23,1,-2,3,4
1514955417519620,-16,-10,-37,-13,3,3,-5,-16
1514955417540634,20,10,17,10,0,-2,-7,-11
1514955417540634,-23,15,20,9,2,6,15,21
1514955417542635,10,-9,-45,-19,-10,-7,1,17
1514955417542635,6,-13,25,6,2,-2,-7,18
1514955417554644,-36,-18,-14,-1,2,-1,-2,-6
1514955417554644,15,32,-7,2,-4,-1,5,-7
1514955417563640,-6,-15,-14,3,1,1,-7,-11
1514955417563640,19,24,21,-7,-2,-3,6,-5
1514955417578652,-36,-24,-8,1,1,1,2,11
1514955417578652,-7,-17,-8,0,0,2,16,-11
1514955417579651,-8,-22,-4,0,-1,-6,-5,-16
1514955417579651,-5,-1,-11,2,1,-2,-6,0
1514955417600677,-30,18,11,0,-2,-2,2,-18
1514955417600677,3,-40,-23,0,-2,-4,-4,3
1514955417602677,-1,-21,-31,-19,-1,0,2,23
1514955417602677,3,22,46,10,-1,-1,-9,-44
1514955417614676,0,-21,6,-5,-3,0,-10,-27
1514955417614676,16,14,4,7,2,-1,-4,3
1514955417623684,32,-24,27,0,-4,1,2,12
1514955417623684,-55,9,2,1,-2,-2,-9,4
1514955417638693,15,-17,-77,-4,-4,0,12,10
1514955417638693,16,27,3,-12,2,0,-8,-6
1514955417639717,1,27,59,1,-4,-3,1,-11
1514955417639717,-33,-15,3,-7,1,2,-15,-39
1514955417662710,-22,-3,-4,8,1,3,17,7
1514955417662710,23,-32,-3,-1,-5,-6,-3,15
1514955417666713,-23,15,-19,1,0,-1,0,28
1514955417666713,-13,-7,-20,-8,-3,-2,10,3
1514955417674719,48,15,47,2,3,-1,-13,10
1514955417674719,-4,-11,-34,-16,-7,-2,0,-32
1514955417683752,-23,-17,19,11,1,-1,1,-11
1514955417683752,35,26,-43,-9,-7,-2,3,12
1514955417698735,-25,-20,-1,-7,-2,1,-1,-4
1514955417698735,4,21,-17,11,0,1,1,7
1514955417699745,6,13,2,-13,1,-1,-5,-7
1514955417699745,15,-9,-14,-2,-2,-4,2,2
1514955417721752,2,-5,2,-1,1,-6,-6,9
1514955417721752,-34,2,16,6,1,1,-4,-3
1514955417724754,6,9,-15,-5,-5,0,15,12
1514955417724754,16,-1,0,1,3,0,-7,8
1514955417742783,18,6,-8,3,0,3,8,3
1514955417742783,-14,-4,20,2,-6,-7,-15,-7
1514955417750775,-20,-4,-11,-5,4,1,-7,-9
1514955417750775,-19,-2,5,3,-3,-1,-1,3
1514955417765798,13,3,21,7,2,0,-4,-13
1514955417765798,-16,17,-14,-8,-3,-1,-1,5
1514955417767784,13,3,-9,-15,-9,-6,-12,-22
1514955417767784,-6,-11,-6,0,3,-1,6,20
1514955417780813,-26,-20,18,2,-3,-2,-9,-29
1514955417780813,16,21,51,8,0,0,3,4
1514955417782831,35,-6,-58,-7,3,2,2,-9
1514955417782831,-32,4,4,4,-6,-1,5,-8
1514955417802809,37,1,25,7,4,-1,0,19
1514955417802809,10,-3,-10,-12,2,7,6,-2
1514955417804810,46,29,25,5,0,1,0,-17
1514955417804810,-1,-29,29,13,4,-2,-3,22
1514955417818820,-16,-2,-93,-18,-11,-6,-1,2
1514955417818820,-1,26,2,-18,3,1,-5,-3
1514955417822823,13,4,15,6,4,1,-1,4
1514955417822823,33,-10,-11,-14,-6,-4,-2,-8
1514955417840836,21,13,32,9,1,0,0,4
1514955417840836,-34,-32,-31,6,-4,-1,-12,1
1514955417842837,-20,0,-12,-1,-4,-2,8,-4
1514955417842837,23,-2,66,-1,1,-1,-10,25
1514955417862863,-4,-3,-57,-19,-6,-1,12,-14
1514955417862863,12,26,18,-2,-5,-5,-4,2
1514955417864852,-16,-15,-21,8,2,0,-1,-4
1514955417864852,-3,-13,-33,4,-4,0,-2,-5
1514955417877872,-9,-4,22,1,5,4,-3,-7
1514955417877872,11,14,18,11,-1,-1,5,12
1514955417879863,-33,-31,-21,-18,-7,-4,-2,1
1514955417879863,25,30,-28,-7,4,-3,1,2
1514955417900878,-10,-16,27,11,0,-2,1,24
1514955417900878,40,26,10,-11,-7,-5,-3,-37
1514955417902879,-40,-22,1,15,6,1,-7,4
1514955417902879,-13,-23,-2,-4,-2,-1,-5,-15
1514955417923895,27,2,-1,1,3,1,4,1
1514955417923895,-26,-19,-3,-1,-8,-7,-10,4
1514955417924896,9,15,4,3,2,-1,0,6
1514955417924896,-22,2,11,11,6,3,-9,-7
1514955417938905,4,18,16,-5,-5,-2,3,12
1514955417938905,-15,-29,-9,2,-1,-1,4,0
1514955417946911,12,19,-23,-11,-2,-2,-3,-11
1514955417946911,-20,-9,-9,7,1,2,5,7
1514955417968940,-2,15,13,-1,-3,-3,-8,-8
1514955417968940,12,-7,-14,-1,3,1,7,4
1514955417971929,-15,1,18,5,0,-1,-5,-6
1514955417971929,6,2,-16,-7,-5,0,3,2
1514955417982936,-2,-3,-7,-3,-1,-1,2,-12
1514955417982936,-8,-13,-12,-2,-2,0,-3,1
1514955417984938,-8,-4,-4,0,2,0,2,3
1514955417984938,-1,6,-5,-1,-1,0,2,-2
1514955417997948,-16,-8,-2,-1,-2,-2,-6,-8
1514955417997948,-14,-13,-5,-2,0,-2,4,1
1514955418004951,21,8,8,4,-3,-1,-3,2
1514955418004951,0,-1,-18,-9,-3,-3,1,-6
1514955418020980,8,-4,9,-3,-1,1,1,-6
1514955418020980,-55,-6,3,3,1,-2,-1,0
1514955418022982,52,4,-5,-7,-4,-3,-2,2
1514955418022982,-24,-2,1,2,0,-2,-3,-3
1514955418042984,-9,-7,1,0,-3,-1,-3,-5
1514955418042984,12,3,-7,-4,-1,1,3,1
1514955418044983,-15,-1,1,-3,-3,-1,-1,1
1514955418044983,-3,-4,-9,-3,0,1,0,-2
1514955418057989,-12,0,8,3,-1,-1,-7,-5
1514955418057989,19,4,-4,0,-2,0,-2,4
1514955418063994,-15,-2,3,0,0,0,-2,0
1514955418063994,11,0,-3,-4,-3,0,0,0
1514955418081018,-8,-3,0,-3,-2,-1,-1,-4
1514955418081018,11,-2,0,0,0,-2,-3,-1
1514955418082007,-7,-3,0,-2,-1,-3,-3,3
1514955418082007,-4,0,-4,-1,-1,-1,0,-1
1514955418105035,4,-1,-1,-2,-1,1,-3,-1
1514955418105035,4,0,-1,-2,-2,2,-1,0
1514955418106039,-5,0,2,1,0,1,1,2
1514955418106039,2,0,-3,-1,-3,-2,-3,-2
1514955418119032,7,-5,-6,-4,-3,-3,-1,-4
1514955418119032,-9,1,2,0,1,-1,2,3
1514955418126051,1,-4,-2,0,-1,0,-1,-2
1514955418126051,3,2,3,-1,0,-1,-2,0
1514955418141048,1,-3,5,-2,-3,-4,-4,-2
1514955418141048,9,1,-12,-5,0,-3,1,2
1514955418142049,-8,1,0,-3,-1,0,1,-2
1514955418142049,-5,-3,2,1,-1,1,2,-3
1514955418163082,-4,-4,-7,-2,-3,0,-1,-2
1514955418163082,7,0,3,3,2,2,-3,0
1514955418165065,-5,6,9,0,1,-1,0,1
1514955418165065,0,-7,-19,-3,-2,-1,-1,-4
1514955418178084,-4,4,29,11,2,0,0,0
1514955418178084,3,-3,-23,-2,-3,-1,0,-1
1514955418184088,-1,-7,1,-10,-4,-3,-3,2
1514955418184088,0,2,11,-5,1,-2,-1,-1
1514955418201100,-4,0,-8,-1,0,-1,0,-3
1514955418201100,1,-2,12,3,1,-1,-1,1
1514955418202106,-5,3,14,9,1,0,-2,1
1514955418202106,-1,-6,-29,-5,-3,-2,0,-1
1514955418223106,0,0,18,4,-1,0,-1,-2
1514955418223106,4,-2,-6,-5,-2,-2,0,-1
1514955418225107,-1,-3,-12,-2,-2,-2,-2,-1
1514955418225107,-2,1,6,2,1,0,-1,0
1514955418237115,2,-1,0,2,0,-1,1,0
1514955418237115,0,-2,-11,-4,-3,-1,0,-3
1514955418246121,-4,-3,10,0,-1,0,-2,0
1514955418246121,0,0,2,0,0,-1,-1,0
1514955418262143,-3,1,-1,1,0,-2,-1,-1
1514955418262143,0,-2,-12,-3,-1,-2,4,1
1514955418265136,-4,-1,4,0,1,0,0,-1
1514955418265136,2,4,-4,-1,0,-2,-1,0
1514955418283149,-5,-8,12,-5,-3,-2,-1,-5
1514955418283149,3,-4,5,4,-4,-1,0,-4
1514955418285165,0,7,9,4,4,1,-1,3
1514955418285165,0,-11,-82,-15,-8,-3,-2,-5
1514955418298164,-1,-1,14,-7,-2,-1,0,-3
1514955418298164,-1,2,2,1,3,-1,-2,-1
1514955418306178,1,-1,17,3,-2,-2,-1,-1
1514955418306178,0,3,9,9,4,2,0,1
1514955418321177,-1,-1,-12,-1,-3,0,-2,0
1514955418321177,-2,-1,14,-3,-4,-1,-1,-3
1514955418322177,0,0,-24,-1,0,-1,1,0
1514955418322177,0,2,22,-1,-1,-3,-3,0
1514955418343200,0,-3,-13,-2,-1,2,0,-4
1514955418343200,0,-1,8,0,-2,0,-4,-2
1514955418345202,-1,0,-14,-4,-1,-2,-2,0
1514955418345202,-5,-4,2,-4,-3,-2,0,-1
1514955418365206,-2,1,19,-1,-2,-2,-1,-2
1514955418365206,3,6,-28,3,4,1,0,3
1514955418366219,-3,-12,-5,-9,-6,-2,-3,-3
1514955418366219,1,4,56,9,-2,-1,-1,-1
1514955418380217,4,12,-45,6,4,2,3,2
1514955418380217,-6,-15,1,-6,-3,-1,2,-7
1514955418381217,2,2,16,3,0,2,2,-1
1514955418381217,1,-4,-20,-5,-2,-2,0,1
1514955418403233,0,4,10,6,0,-1,-2,3
1514955418403233,0,1,6,1,-3,-2,-6,-1
1514955418405234,0,1,-8,-1,-1,-3,-1,-2
1514955418405234,-1,-3,-12,-6,0,-1,-1,-2
1514955418425259,-3,-1,5,-5,-1,-2,-1,0
1514955418425259,0,-1,6,-1,0,1,-2,-2
1514955418426266,-2,-5,-14,-3,-1,-2,-2,-1
1514955418426266,2,6,15,5,1,0,0,0
1514955418441260,-3,-1,0,-4,-3,-3,-2,-1
1514955418441260,-3,-5,-20,-8,-4,-2,0,0
1514955418443263,-1,-1,7,1,0,0,-3,0
1514955418443263,0,0,1,1,-1,-2,-1,-2
1514955418462284,-2,-6,-8,4,1,1,1,-1
1514955418462284,3,7,14,-3,5,2,-1,1
1514955418463291,-4,-8,-14,-5,-8,-4,-2,-5
1514955418463291,-1,-4,9,-2,0,0,-2,-3
1514955418486308,-1,-3,-6,-7,-12,-5,-3,0
1514955418486308,0,3,7,-7,5,3,2,-2
1514955418487296,-1,6,7,4,-1,-1,1,0
1514955418487296,-5,-7,-6,-4,-1,0,-2,-3
1514955418500314,-1,-6,-9,-3,-7,-3,-2,-4
1514955418500314,0,-2,2,2,-2,-3,-3,3
1514955418501315,0,-1,-4,-4,2,-2,0,0
1514955418501315,-1,0,3,5,-4,-2,0,0
1514955418522317,-1,-1,-2,-2,3,0,0,-2
1514955418522317,-6,-5,-8,-3,-4,-1,0,-3
1514955418523339,-3,1,-5,-1,0,-1,0,-2
1514955418523339,2,6,15,2,0,1,-2,1
1514955418545337,-4,-1,18,-2,1,-1,0,-2
1514955418545337,-2,-11,-30,-7,-3,-4,-1,0
1514955418546334,4,1,8,3,-2,-1,-1,3
1514955418546334,-1,0,-1,0,-1,-1,-1,-2
1514955418560345,0,-3,8,-6,-2,-2,-1,-1
1514955418560345,0,4,15,7,-2,-2,-4,1
1514955418561346,-2,-3,-1,-2,-2,-3,0,-2
1514955418561346,0,-2,-5,-2,-2,-3,-1,-2
1514955418582364,0,4,-7,1,5,1,0,-2
1514955418582364,-2,-2,7,-1,-3,0,-3,0
1514955418583360,-1,-7,-6,-5,-2,2,-3,-2
1514955418583360,-3,0,-6,-2,1,-2,-2,1
1514955418606383,-1,1,-5,2,-2,0,-1,-1
1514955418606383,0,0,0,-1,-2,-2,0,-1
1514955418606383,-1,1,2,-1,1,0,0,0
1514955418606383,-1,-5,0,-4,-1,-2,-2,-2
1514955418620405,-1,-4,-17,0,-1,-2,-2,-2
1514955418620405,-1,1,11,5,0,-2,-2,0
1514955418620405,-1,-1,-16,0,0,-2,-2,-1
1514955418620405,0,-2,-8,-3,1,1,1,1
1514955418642409,-3,-3,0,-4,-1,2,1,-2
1514955418642409,-2,3,4,-1,1,1,0,-3
1514955418643405,1,7,13,5,2,0,0,4
1514955418643405,-6,-8,-6,-7,-8,-1,0,-7
1514955418665436,0,0,-6,-1,0,-1,-1,0
1514955418665436,-1,-1,-1,2,-1,-3,-4,0
1514955418666419,2,-1,-3,-1,1,0,-1,-2
1514955418666419,-1,2,-3,0,1,0,-1,-2
1514955418680430,-3,-6,-3,-4,-1,0,-2,-2
1514955418680430,-2,0,-2,-1,-1,-1,-2,-2
1514955418680430,-3,-5,-3,-4,-4,-1,-1,0
1514955418680430,2,1,1,1,0,-2,-1,1
1514955418702483,-2,1,-2,1,-1,-2,-1,-3
1514955418702483,-1,1,-1,2,1,-2,-3,0
1514955418710451,0,-1,5,-1,-2,0,-2,-1
1514955418710451,0,-3,-12,-1,-2,-3,1,-3
1514955418726463,1,0,-3,0,0,1,0,0
1514955418726463,1,-1,0,1,-1,0,2,3
1514955418728463,-7,-6,-11,-9,-4,-2,-2,-4
1514955418728463,-2,2,10,2,0,0,2,0
1514955418740486,-2,-1,3,1,-4,0,0,-4
1514955418740486,-1,1,-1,1,-2,0,-1,0
1514955418740486,-1,3,5,4,0,1,-2,-2
1514955418740486,0,-4,-12,-5,-2,-1,-2,-1
1514955418762496,-2,1,17,2,-1,-2,-2,-1
1514955418762496,-2,-9,-37,-13,-4,-2,1,-1
1514955418763488,0,0,6,2,0,0,0,-2
1514955418763488,0,-3,-12,-3,-1,-2,-2,-2
1514955418786504,2,0,5,1,0,-1,-1,-1
1514955418786504,1,4,12,4,-1,-3,0,-3
1514955418788505,-3,-11,-11,-7,-2,-2,-2,-3
1514955418788505,-2,2,7,-1,-1,-1,0,-1
1514955418800526,0,-2,-9,-2,0,0,0,-2
1514955418800526,0,2,7,1,-2,0,-2,-1
1514955418800526,-2,0,-5,-2,-2,-3,0,1
1514955418800526,0,1,10,1,-1,-1,-1,-2
1514955418822541,-2,-2,-9,-2,-2,0,1,1
1514955418822541,-1,-1,0,-2,0,0,-1,0
1514955418824533,0,-1,0,1,-1,-2,-1,-2
1514955418824533,-1,-3,1,-1,-2,-1,-1,1
1514955418845560,0,1,-5,-1,2,0,-2,1
1514955418845560,-1,1,21,5,2,-1,-2,-1
1514955418846546,-3,-8,-42,-15,-6,-3,-2,-2
1514955418846546,0,2,7,3,2,0,1,-2
1514955418860556,-2,-2,-4,-3,-2,-1,-2,-3
1514955418860556,0,-1,2,1,0,1,0,3
1514955418860556,-1,3,15,3,-1,-1,2,-2
1514955418860556,-1,1,-6,-1,-3,0,-1,-2
1514955418882584,-1,-1,-2,-4,-2,-2,-4,-1
1514955418882584,-1,-3,-6,-4,-2,-2,-2,-3
1514955418883573,-1,1,4,0,2,0,-1,-1
1514955418883573,-3,-2,-5,-4,0,-1,0,-2
1514955418905606,-1,0,1,0,-1,-1,0,-2
1514955418905606,-2,-2,-2,-3,0,-1,0,1
1514955418906593,0,0,0,1,0,0,-2,1
1514955418906593,-1,-2,3,2,-1,-2,0,0
1514955418920617,0,-1,-6,-2,0,0,0,-2
1514955418920617,0,0,-2,-4,-2,-2,-1,-1
1514955418920617,0,-1,3,1,-2,-2,-2,0
1514955418920617,-1,-2,-3,-1,-1,0,-3,-2
1514955418942628,0,-3,-2,0,-3,-2,0,1
1514955418942628,-1,-3,-2,-3,-4,-2,0,-1
1514955418943617,-1,1,2,1,0,-1,-2,-1
1514955418943617,-1,-1,-2,-2,-1,-1,-3,-1
1514955418966631,-1,-1,-2,-3,-2,-1,-1,-1
1514955418966631,1,0,1,1,0,-2,-1,0
1514955418967632,1,0,0,-1,-1,-1,0,-1
1514955418967632,0,-1,-3,-1,-1,-2,-1,-1
1514955418979640,-3,-1,0,-2,-2,-2,0,-1
1514955418979640,-1,-3,-2,-3,-3,-1,0,-1
1514955418980644,-1,1,1,-2,-1,0,0,-1
1514955418980644,-1,-2,-2,0,-2,0,-2,-2
1514955419002679,0,-1,-1,-1,-2,0,-1,0
1514955419002679,0,-1,-3,0,-1,-1,0,0
1514955419003657,-3,-2,-2,-1,-1,-2,-3,-1
1514955419003657,0,-2,-1,-2,-1,1,-1,-1
1514955419025673,-2,-2,-1,-2,-1,-2,-3,-1
1514955419025673,0,0,-2,-1,-1,-1,0,-2
1514955419026674,-1,-1,0,-2,0,1,1,-1
1514955419026674,-2,1,1,-2,0,0,2,0
1514955419041684,-2,-2,-10,-3,-1,0,-3,0
1514955419041684,-1,-2,-4,-2,-1,0,-3,-1
1514955419043687,0,-3,9,1,-2,-1,-2,-2
1514955419043687,-1,-1,0,-1,0,1,-1,-2
1514955419062699,-1,-1,0,-1,-1,-1,3,-3
1514955419062699,-2,0,-2,0,-2,-2,-5,-1
1514955419063699,1,1,-6,-1,-2,-1,0,1
1514955419063699,0,-2,-1,0,-1,-2,2,-2
1514955419085731,1,-1,3,0,-1,-1,-1,-1
1514955419085731,-1,-3,-1,-1,0,-1,-1,0
1514955419086716,-1,-1,-1,-1,-1,-1,-2,-3
1514955419086716,0,-1,-2,-1,-2,-2,0,-1
1514955419099737,-1,-2,1,2,-1,-2,0,-3
1514955419099737,-1,-1,0,-2,-1,1,-1,1
1514955419100744,-1,-2,-2,0,0,-2,-3,-2
1514955419100744,-1,-1,-1,-1,-1,-1,-1,-2
1514955419122759,-1,-1,-1,0,-2,-1,-3,2
1514955419122759,-2,-2,-2,-3,-1,0,-3,0
1514955419123742,-2,-1,-1,-1,-1,0,1,2
1514955419123742,-1,-1,-2,0,1,-1,-2,-1
1514955419144767,0,-1,1,-1,-3,0,0,-1
1514955419144767,-1,-2,0,0,1,-2,0,-1
1514955419153764,-1,-3,-2,0,-1,0,-1,1
1514955419153764,-1,-1,-1,-1,-2,-1,-1,-3
1514955419160769,-2,0,0,0,-2,-1,-1,-1
1514955419160769,0,0,0,-1,-4,0,0,0
1514955419162770,-2,-1,-2,-1,-2,-1,-3,-1
1514955419162770,-1,-1,0,-3,-2,-1,1,-3
1514955419182796,-1,0,0,-2,0,-1,2,-3
1514955419182796,0,-1,0,-1,-2,-3,-3,-3
1514955419183795,1,0,-3,-1,-1,-4,-1,-1
1514955419183795,-1,0,-1,-1,-1,-1,-2,-1
1514955419205800,1,-1,-3,-1,-1,1,1,-2
1514955419205800,-2,-1,0,0,-1,-3,-2,-1
1514955419206802,-2,-1,-3,-1,0,-2,-1,-2
1514955419206802,-4,-1,-2,0,-2,0,0,-1
1514955419221815,-3,-1,-1,1,-1,0,-2,0
1514955419221815,-2,-1,-1,-2,-2,0,-1,-2
1514955419222813,0,-1,0,-2,-1,-2,-2,0
1514955419222813,1,-1,-1,-1,-4,-2,-2,0
1514955419242856,1,-1,0,-1,0,-2,-1,0
1514955419242856,-1,-1,-1,-1,-1,0,0,0
1514955419243844,0,-1,-1,0,-1,0,-2,-2
1514955419243844,-1,-1,0,-2,-2,0,-2,1
1514955419265860,-2,-2,-1,-3,-1,-2,-2,0
1514955419265860,-2,-2,-3,-1,-2,0,-1,-1
1514955419266861,-2,0,-2,-1,0,-1,1,0
1514955419266861,0,-1,-1,0,-2,-1,-1,-3
1514955419279870,0,1,-1,-1,-1,-1,-1,0
1514955419279870,0,-1,-1,-2,-1,0,-3,1
1514955419287871,-1,-2,-1,-1,-2,0,-2,-1
1514955419287871,-3,-2,-2,-1,-2,-1,-1,-1
1514955419302882,-2,-1,-2,-1,-2,-2,-3,-1
1514955419302882,-1,-1,0,0,-1,-1,-1,0
1514955419302882,-2,-2,1,-1,-1,-2,-1,-1
1514955419302882,-2,0,0,-2,0,0,1,-1
1514955419325899,0,-1,-2,0,1,-1,-1,-3
1514955419325899,-2,-1,-1,-2,0,-1,-2,-2
1514955419326900,0,-1,-2,0,-2,-2,-2,-1
1514955419326900,1,0,0,-1,-1,-2,-1,-2
1514955419339897,-2,-1,-2,-2,-1,-1,0,-1
1514955419339897,-1,-2,-2,-1,0,-3,-3,0
1514955419348911,-2,-2,-2,-2,-1,-1,-1,-1
1514955419348911,2,-3,-2,-2,0,1,-2,-2
1514955419362912,-2,-2,0,1,-1,1,2,-1
1514955419362912,-4,0,-1,-2,-1,-1,-2,-1
1514955419363913,-2,0,0,-1,2,-1,0,1
1514955419363913,-1,-2,-1,-1,-1,-2,-1,1
1514955419385929,0,-1,-1,-1,0,-1,0,-2
1514955419385929,1,-2,0,-1,-1,-3,-1,-1
1514955419386938,-1,-1,-1,0,-2,-2,1,-1
1514955419386938,-3,0,1,-1,-2,-2,1,-1
1514955419399937,-2,-1,-1,-1,-1,0,-1,0
1514955419399937,0,0,-1,-4,-1,0,3,-3
1514955419414960,1,0,-1,-3,-1,-1,-3,1
1514955419414960,-2,0,-1,-1,-1,-3,-3,0
1514955419422968,-1,-2,0,0,-1,-1,0,-2
1514955419422968,-2,-4,-1,1,-1,0,-1,0
1514955419423964,-2,-1,-1,-2,-2,-1,-1,-1
1514955419423964,-1,-2,-2,0,0,0,1,-2
1514955419446970,-2,-1,-1,-1,-1,0,-2,-3
1514955419446970,2,0,-1,-1,0,-1,0,1
1514955419447973,-1,-2,-1,-1,0,1,-1,-3
1514955419447973,-1,-2,-2,-1,-1,-1,-2,0
1514955419459984,-1,0,-1,1,-2,0,-2,-1
1514955419459984,-1,-1,0,-1,-3,-2,0,0
1514955419467987,0,-2,-1,0,-3,-1,-2,-1
1514955419467987,-1,-1,0,0,0,-1,-1,0
1514955419482997,0,0,-1,-2,-1,-1,-1,-1
1514955419482997,0,-1,0,0,0,-1,-3,-1
1514955419482997,0,-2,-2,-1,-1,-2,1,0
1514955419482997,0,-1,-2,-1,0,0,-2,-3
1514955419506030,0,-3,-1,-2,-1,-2,0,-1
1514955419506030,0,-2,-1,0,-2,-1,-2,-1
1514955419507013,-1,-1,-1,-2,0,0,1,-1
1514955419507013,-1,-2,-2,-1,1,0,-1,2
1514955419519025,-1,0,0,0,-2,-1,-1,0
1514955419519025,-1,-1,-2,-1,1,-2,-2,0
1514955419528044,-1,-1,-1,1,-2,-1,-3,-3
1514955419528044,0,-1,-1,-1,-1,-1,0,-1
1514955419544042,0,-1,0,-1,-1,-2,0,-3
1514955419544042,-3,-1,0,-2,-1,-2,1,0
1514955419544042,-3,1,-2,0,0,0,-2,-3
1514955419544042,-1,0,0,-1,-2,-2,-1,0
1514955419566059,-1,-1,0,-2,-2,-1,0,-1
1514955419566059,1,-1,-2,-1,-1,0,1,0
1514955419567074,0,-1,-1,0,0,-1,-1,-1
1514955419567074,0,-1,0,-2,-1,-1,-1,-1
1514955419580067,-3,-2,-3,0,-1,-2,-4,-1
1514955419580067,0,-1,-1,-2,0,-1,0,0
1514955419588088,-2,-3,-1,-1,-2,-3,-1,1
1514955419588088,-1,0,-1,-1,-2,0,0,-3
1514955419603081,-1,-1,1,-1,-3,-1,0,0
1514955419603081,-1,0,0,-1,0,-1,0,-1
1514955419605083,0,-1,-1,-2,1,-1,-1,-1
1514955419605083,-2,-1,0,-1,1,-1,0,-2
1514955419633103,0,-2,-1,-1,0,-2,-1,-2
1514955419633103,-1,-2,-2,1,0,0,-1,-1
1514955419634104,0,0,0,-4,-2,-3,0,-1
1514955419634104,-1,0,-1,0,-2,0,-3,-2
1514955419649120,1,-1,-1,-1,-1,-1,-1,-1
1514955419649120,-1,-1,1,0,-1,-2,-2,-1
1514955419649120,-2,0,-2,0,0,0,-2,1
1514955419649120,-3,-2,-1,-2,-1,-2,-1,-3
1514955419663126,1,-1,0,-3,-2,-1,0,-1
1514955419663126,-2,-1,-1,0,-1,-2,-1,-2
1514955419664124,1,-2,-1,0,-1,-1,-2,-2
1514955419664124,-1,-1,-2,0,-1,-2,-1,0
1514955419686140,-1,-1,-2,-1,1,2,-2,-1
1514955419686140,2,0,-2,-1,-2,-1,0,-1
1514955419686140,-1,0,0,-1,-1,-3,0,-1
1514955419686140,-2,-3,-3,-1,-1,-1,-1,-1
1514955419708157,0,-1,-1,-2,-1,0,-1,-2
1514955419708157,-2,-1,-1,-1,1,0,-2,1
1514955419709159,-2,-1,0,-2,-1,-1,-1,-1
1514955419709159,0,-1,0,-3,0,-2,0,-1
1514955419723168,0,-1,0,-1,-2,-1,-2,-4
1514955419723168,-1,-2,-3,-3,-1,-1,-1,0
1514955419723168,0,0,-1,-1,-2,-1,-1,0
1514955419723168,-2,0,-1,0,0,-2,-1,-1
1514955419747185,0,-1,-1,-2,-1,-1,-3,0
1514955419747185,-1,-1,-1,-1,-3,0,-1,0
1514955419748184,-1,-1,-3,-1,0,-1,-2,-1
1514955419748184,-1,0,-1,0,0,-1,0,-3
1514955419768199,-3,-2,-1,0,-1,0,2,-2
1514955419768199,0,-1,-2,-2,1,-2,1,-1
1514955419769200,-1,-2,-1,-2,0,0,-2,-2
1514955419769200,-1,0,-1,-1,-2,0,1,-1
1514955419783209,-3,-1,-1,0,-2,-3,1,-1
1514955419783209,-2,-1,-1,0,-1,-2,-3,-1
1514955419783209,-1,0,-2,0,-2,0,0,-2
1514955419783209,1,-2,-1,1,-1,0,-1,0
1514955419806224,-1,-1,0,0,-2,0,-1,-2
1514955419806224,-2,-3,0,-1,-1,-2,-3,0
1514955419807226,-1,1,0,0,0,-3,-2,0
1514955419807226,2,-1,0,-3,-2,1,-1,-3
1514955419828242,-6,-1,-1,0,0,-2,1,-1
1514955419828242,0,-2,-2,-3,-2,-1,-1,-2
1514955419829241,-2,-4,-2,-1,0,-2,-1,-1
1514955419829241,1,0,0,-1,-1,-1,0,0
1514955419844256,1,-1,1,-2,-2,-1,-2,-1
1514955419844256,-3,-1,0,0,-1,-3,-2,-2
1514955419845255,0,-1,-1,-1,-2,-2,0,0
1514955419845255,-1,0,-2,-1,-1,-1,1,-3
1514955419866267,-1,-1,-1,0,-2,0,-2,-2
1514955419866267,1,-1,0,0,0,0,0,0
1514955419867271,0,-2,-1,0,0,-1,-3,-2
1514955419867271,-2,-2,-3,0,0,-2,-2,-1
1514955419888300,-2,-1,-2,0,0,-1,0,-1
1514955419888300,-2,1,-1,1,0,0,1,0
1514955419889284,0,-2,-1,-1,0,-1,2,-2
1514955419889284,-3,-1,0,-1,-1,-1,-1,-2
1514955419903293,3,0,-1,-1,-1,-1,-1,-1
1514955419903293,1,-1,-1,0,-1,-1,-1,-1
1514955419910300,0,0,-1,0,0,0,-3,0
1514955419910300,-3,-2,-1,0,-1,-2,-1,-1
1514955419926310,0,-2,1,-2,0,-1,-1,0
1514955419926310,-1,0,-2,0,-1,-1,-2,0
1514955419926310,-1,-3,0,0,-1,0,0,0
1514955419926310,0,-2,-2,-2,-2,0,1,-3
1514955419949325,-1,1,-2,-1,-1,-2,-3,0
1514955419949325,-3,-1,-2,-1,-2,-1,0,-3
1514955419951327,-2,-1,-2,-1,-1,-1,-2,-1
1514955419951327,0,-1,-2,0,-2,-1,-1,-1
1514955419963336,-2,-2,-1,-2,-2,-1,-1,-1
1514955419963336,-1,1,-1,-1,-1,-2,0,0
1514955419965337,-1,-1,-1,-1,-1,-2,-1,0
1514955419965337,-3,-1,1,1,1,0,-1,-1
1514955419985365,0,-1,-2,0,0,0,1,1
1514955419985365,-1,-1,-1,0,-1,0,-4,-1
1514955419986351,1,1,-1,-2,1,-2,0,1
1514955419986351,-2,-1,-1,-1,-1,-1,-1,-2
1514955420008367,-1,-2,0,0,-1,0,-1,-2
1514955420008367,0,-2,0,-2,-3,-1,-2,-1
1514955420009368,-1,-3,-1,-1,-1,-1,0,-1
1514955420009368,1,0,0,-1,-1,-4,-1,1
1514955420023379,0,-2,-1,0,-2,-3,-2,0
1514955420023379,0,-1,-2,-1,0,-1,1,-2
1514955420025380,-3,-1,-3,-2,-3,-1,0,-3
1514955420025380,0,0,0,-1,-3,-3,0,-3
1514955420045396,-1,0,-1,0,-1,1,-3,0
1514955420045396,-2,-2,-1,0,-1,-1,-2,0
1514955420047394,-1,-1,-2,-2,-1,-2,-1,1
1514955420047394,-1,0,0,-1,-2,-1,-1,-2
1514955420068458,1,-2,-1,-3,-2,-1,0,-3
1514955420068458,-1,-1,-2,-2,-1,-1,-2,-2
1514955420070427,-2,-1,-1,-1,-2,0,-2,-1
1514955420070427,-1,0,-1,-1,-1,1,0,-1
1514955420082439,0,3,0,-1,-2,0,-2,-1
1514955420082439,1,-2,1,-2,1,-2,-2,0
1514955420083422,-1,-3,0,-1,-2,-1,0,-3
1514955420083422,-1,-2,-2,1,-1,-1,1,-1
1514955420105493,1,-1,0,0,-2,-2,0,-2
1514955420105493,0,0,0,0,0,-1,-1,0
1514955420106451,0,1,-1,0,-1,0,-1,-1
1514955420106451,0,-2,-1,0,-1,-3,-3,-2
1514955420128475,-2,-3,-2,-1,-1,0,-1,-2
1514955420128475,0,0,-2,-2,-2,-1,-1,1
1514955420129494,1,-1,-3,-1,-1,0,-1,2
1514955420129494,-3,-1,1,0,-1,-2,-1,-4
1514955420142504,-2,-2,-3,-1,-1,-2,-2,0
1514955420142504,-2,-2,-2,-1,-1,-1,-2,0
1514955420143489,-3,-2,-3,-3,-1,-2,-2,-2
1514955420143489,-1,1,0,-1,-1,0,-1,0
1514955420165527,-1,0,-2,-1,-1,-2,-1,-2
1514955420165527,-2,-2,-1,-1,-1,-2,0,0
1514955420166526,-2,0,-1,0,0,0,2,-1
1514955420166526,-1,0,-1,-1,0,1,-2,-2
1514955420188533,-2,-2,-2,-2,-1,0,0,-1
1514955420188533,1,-1,-1,0,-1,1,-2,-1
1514955420189520,1,1,0,0,-1,-2,-1,-2
1514955420189520,-2,-1,-1,-2,0,-2,-2,1
1514955420202540,-2,0,-1,-2,0,0,1,0
1514955420202540,-1,-2,-2,-2,-1,-2,-1,-1
1514955420203532,0,-2,0,-1,-1,-1,1,1
1514955420203532,-1,-3,-2,-1,-2,-1,2,-3
1514955420225561,0,-1,1,-2,-1,-2,-1,1
1514955420225561,0,-1,-1,-2,0,-1,-2,-1
1514955420226561,-1,0,-1,-1,0,-1,-1,-2
1514955420226561,-2,-1,-3,0,0,0,0,-1
1514955420248576,0,-1,0,0,-1,1,-1,-2
1514955420248576,-2,0,-1,-1,-2,0,0,1
1514955420250570,-1,-1,0,-1,-1,-1,0,-1
1514955420250570,-2,1,0,-1,-2,1,-2,-1
1514955420261572,-1,-2,-1,-1,-1,-2,-1,-2
1514955420261572,-2,-2,0,-1,0,-3,0,-1
1514955420270577,-1,-1,-1,-2,-1,-1,-4,-2
1514955420270577,-1,-1,-1,0,-2,-1,0,1
1514955420285589,0,0,0,0,-2,-2,-1,-2
1514955420285589,-1,0,-1,-1,0,-1,-1,-2
1514955420287590,-1,-2,-1,0,-1,-1,-2,0
1514955420287590,-1,-2,-3,-1,-2,-1,0,-1
1514955420308618,-2,-1,-2,1,0,-1,-2,0
1514955420308618,0,-2,-1,0,-1,-2,0,-1
1514955420309626,-2,-3,-1,0,0,-1,-1,0
1514955420309626,0,-1,0,-1,-1,0,-2,0
1514955420323633,-1,-1,-1,-2,-4,1,0,-1
1514955420323633,-1,-2,-3,-1,-1,-2,-1,-1
1514955420329635,-1,-2,-1,-1,-1,0,0,0
1514955420329635,-1,0,-1,-1,1,-1,0,-2
1514955420345634,0,0,-2,0,-2,0,-1,-1
1514955420345634,-1,-2,-3,-1,-1,-1,-1,-1
1514955420347632,-2,1,0,-1,-2,0,1,-1
1514955420347632,0,-1,2,-1,-2,1,-2,-3
1514955420367695,-1,-1,-2,-1,-1,-2,-3,-1
1514955420367695,0,-2,-2,-2,-2,-1,-3,-1
1514955420374655,1,-1,-1,1,0,-1,-1,0
1514955420374655,0,-1,-3,-1,0,-2,0,0
1514955420381678,0,0,-3,-2,-2,0,-1,0
1514955420381678,-2,-2,-2,0,-2,-1,-2,-1
1514955420389675,-1,-3,0,-1,-2,-1,0,-3
1514955420389675,-1,0,0,-1,-1,0,0,-1
1514955420405683,1,-3,-1,-1,-1,0,-1,-1
1514955420405683,0,0,-2,0,-3,0,-1,-1
1514955420406686,-2,-1,-1,-1,-1,-2,0,0
1514955420406686,-2,-1,-1,-1,-1,-1,1,0
1514955420428690,-1,1,1,0,-1,-1,-4,-3
1514955420428690,1,0,-1,-1,-1,-1,2,0
1514955420429690,-1,-1,-3,-3,-2,0,-2,-1
1514955420429690,-1,0,0,-1,-2,-2,-2,-2
1514955420441699,-1,-1,0,-1,1,-2,-2,1
1514955420441699,-1,-2,1,0,-1,1,1,-1
1514955420450705,0,-1,-2,-1,-2,-1,-2,-2
1514955420450705,-3,-1,-3,-2,-3,-1,-1,-2
1514955420466731,-3,-2,-2,-1,-1,-1,2,-2
1514955420466731,-1,-1,-1,-1,0,-1,-2,1
1514955420467717,-1,-2,-1,-1,0,-1,-2,-2
1514955420467717,-1,-2,1,-1,0,0,0,-2
1514955420487732,-1,-1,-2,-1,-1,-2,0,-4
1514955420487732,-2,-2,-3,-3,-1,-2,-1,0
1514955420489736,0,-1,1,-1,-1,-1,-1,-2
1514955420489736,-1,0,0,-1,-1,-2,-3,0
1514955420501741,-2,-2,-2,-3,-2,-1,-1,-1
1514955420501741,1,-1,-4,-2,-1,-2,-1,-2
1514955420510747,0,-1,-3,-2,-1,1,-1,-1
1514955420510747,1,-2,-2,-2,-1,0,-1,1
1514955420525757,-1,0,-1,-1,-1,-3,2,0
1514955420525757,-1,1,0,0,-2,-1,-1,-2
1514955420527760,-1,-2,0,1,-1,-1,2,-2
1514955420527760,0,0,0,-1,-1,0,-1,0
1514955420547774,0,-1,-3,1,-2,0,-3,-1
1514955420547774,-1,-1,-1,-1,0,-2,1,-1
1514955420549775,0,-1,-1,0,-2,-1,-3,0
1514955420549775,-2,0,-1,1,0,0,0,-1
1514955420571791,-1,-1,2,0,0,-2,-1,0
1514955420571791,-1,0,-1,-1,-1,0,-1,0
1514955420574796,0,0,-1,-1,0,-2,0,-4
1514955420574796,0,-3,-1,-3,-3,-3,-2,-1
1514955420585828,0,-1,0,-2,-3,-1,0,-1
1514955420585828,0,0,-1,-2,-1,-2,-1,-2
1514955420587839,-4,0,-1,-1,-1,0,1,0
1514955420587839,1,-1,-1,-1,-2,-1,-1,-4
1514955420607817,-2,-2,0,-2,-2,-1,-3,-2
1514955420607817,0,-2,-1,-1,-1,-1,0,1
1514955420609818,-1,-3,-1,-1,-1,1,0,-2
1514955420609818,-2,-1,-1,0,-1,-1,0,-4
1514955420630835,-1,0,-3,0,-1,-1,1,-1
1514955420630835,0,-1,-1,0,0,0,-3,-1
1514955420631839,0,-1,-2,-1,-1,-4,-2,2
1514955420631839,-1,-2,-1,-1,-2,-3,0,-1
1514955420644865,-2,-1,-1,0,-1,0,-3,-1
1514955420644865,-1,-1,-1,-1,-2,0,-2,-4
1514955420653848,-2,-1,-1,-2,-3,-2,-1,-3
1514955420653848,-1,-2,-3,-1,-1,1,0,-2
1514955420667858,-1,0,-1,-1,-1,-2,-2,-1
1514955420667858,-2,-2,-1,-2,-2,1,0,1
1514955420671877,-1,-1,-2,-1,-1,0,-1,1
1514955420671877,-1,-1,-2,-1,-1,-2,-1,-1
1514955420690876,1,-2,-2,-2,-1,-3,-2,-2
1514955420690876,-3,-2,0,-2,0,-1,-1,2
1514955420691887,0,0,-1,-1,-2,-1,0,-1
1514955420691887,-2,0,-1,-1,-1,-2,-1,-1
1514955420705885,-1,-1,-2,0,-2,-1,0,-1
1514955420705885,-1,0,0,0,-2,-1,-2,-2
1514955420706886,-1,0,-1,-2,-2,0,0,-1
1514955420706886,-1,-1,-2,0,0,-1,0,0
1514955420728902,-1,-3,-2,0,-1,0,1,0
1514955420728902,-3,-1,-2,-1,-2,-4,1,-3
1514955420730904,-2,-1,-2,0,-1,1,-2,-2
1514955420730904,-1,0,0,-2,-2,1,-2,-1
1514955420750940,-1,-1,-2,-2,0,-2,-1,-1
1514955420750940,-1,-2,-1,0,-1,-2,-1,0
1514955420751940,0,-1,-1,-1,-3,-2,1,-3
1514955420751940,0,-1,-1,-2,0,-1,-1,-2
1514955420765949,-3,0,-1,-2,-2,0,0,2
1514955420765949,0,0,-2,0,-1,-2,-1,0
1514955420771955,-3,0,-1,-1,1,-2,-1,-3
1514955420771955,-2,-1,0,-2,-2,0,-1,-2
1514955420787956,-1,-1,-1,-1,0,0,0,0
1514955420787956,-1,-3,-1,-3,-1,1,0,-2
1514955420789944,0,-2,-1,-2,1,-2,-1,1
1514955420789944,-2,0,-2,0,-2,-1,-2,-1
1514955420818975,-1,-2,-2,-1,-1,0,-1,-1
1514955420818975,0,0,-1,-2,-2,-2,0,-2
1514955420821977,1,-3,0,0,-1,-1,-3,-1
1514955420821977,0,0,1,-2,0,1,2,1
1514955420825974,0,-2,-3,-2,-1,-1,-1,-3
1514955420825974,0,-1,-2,-2,-1,-1,-1,0
1514955420832990,-2,-1,-2,-3,0,0,2,0
1514955420832990,-2,-1,0,-1,0,-1,-3,-3
1514955420847989,-2,0,1,-2,0,-1,-2,0
1514955420847989,0,0,-1,-2,0,0,-2,0
1514955420850014,-2,0,-2,0,-2,-2,-2,-4
1514955420850014,-1,-2,-3,0,-1,-2,-1,1
1514955420871028,-3,-1,-1,-1,-3,0,0,1
1514955420871028,-3,0,-2,0,1,-1,-1,1
1514955420873004,1,0,-1,0,0,-1,2,-1
1514955420873004,0,0,-1,1,0,-2,0,-4
1514955420885013,1,-1,-1,-1,-1,-1,-1,-3
1514955420885013,-2,-3,-1,-1,-2,0,-2,-1
1514955420892029,-2,-1,-2,-2,-3,-2,-3,-1
1514955420892029,-2,-2,0,-2,-1,-2,-1,0
1514955420908048,1,-1,-1,-2,-1,-3,-2,0
1514955420908048,-1,-1,-1,0,-3,0,0,-1
1514955420910046,0,-1,-2,-2,1,0,-1,-2
1514955420910046,-5,-1,-1,-2,-2,1,0,-2
1514955420931054,0,-2,0,0,-1,0,-3,1
1514955420931054,-3,0,-1,-2,-1,0,1,-3
1514955420932045,-1,-1,-1,-2,-1,-1,-1,0
1514955420932045,-2,0,-2,-1,-3,-2,-2,-3
1514955420946062,2,-2,-1,1,0,-3,-1,2
1514955420946062,-1,-1,-2,-1,-2,-1,-2,-2
1514955420953060,-2,-2,-1,-3,-1,-1,0,-1
1514955420953060,0,0,-2,-1,0,1,-1,-2
1514955420968071,-2,1,-1,-2,0,-1,1,-1
1514955420968071,0,0,-1,0,-1,-1,-2,-1
1514955420970072,-1,-1,0,-1,-1,-3,0,-3
1514955420970072,0,-2,-2,0,-1,0,0,0
1514955420992087,0,-1,-2,-2,-1,-2,-1,0
1514955420992087,0,-1,0,-1,-1,-2,-2,-2
1514955420996091,-2,-2,-1,0,-2,0,-3,-2
1514955420996091,0,-1,-1,-2,0,-2,0,1
1514955421005106,0,-2,-2,0,-1,1,-1,-1
1514955421005106,-2,-2,-2,-1,-1,-3,2,-1
1514955421012111,0,-1,0,-1,-2,-2,-1,-2
1514955421012111,0,-2,0,0,-2,-1,-1,-3
1514955421029126,-2,0,-1,-2,0,-1,-2,0
1514955421029126,-2,0,-1,-3,1,-1,1,0
1514955421032137,0,-1,-2,-1,0,-2,1,-2
1514955421032137,-2,-1,0,-1,-2,-2,-1,-3
1514955421051129,-5,-1,-1,-2,-1,-2,-2,-1
1514955421051129,-3,-3,-3,0,-1,0,-2,1
1514955421052131,0,0,0,0,-1,-1,-1,-1
1514955421052131,0,-2,-2,-2,-2,0,-1,-1
1514955421064150,-2,-1,0,-1,-4,0,-2,-3
1514955421064150,-1,-1,-2,0,0,-1,-2,-1
1514955421073145,-1,0,-2,-1,-1,1,-2,0
1514955421073145,0,0,-1,-1,-1,-2,-2,0
1514955421088158,-2,-2,-2,-1,-2,-3,1,0
1514955421088158,-3,-2,0,-1,-2,0,-1,0
1514955421094163,0,-3,0,0,0,-1,0,-2
1514955421094163,-2,0,0,-1,-1,-1,2,-1
1514955421111181,-2,-1,-2,-1,0,-1,-1,0
1514955421111181,-1,0,0,-1,-3,-2,-2,-2
1514955421112174,-3,-2,-1,-2,-1,-1,0,2
1514955421112174,0,-3,-2,0,-2,-2,-2,-1
1514955421125182,-1,0,-3,0,0,-1,-1,-2
1514955421125182,-1,-1,-1,0,-2,0,-2,-2
1514955421133188,-3,0,-1,-1,-1,-2,-3,-2
1514955421133188,-2,-3,1,-1,-1,-2,0,-1
1514955421148271,-3,-1,0,-1,-1,-1,0,0
1514955421148271,0,-1,0,-1,1,-1,-1,-2
1514955421150273,-1,-3,-1,-3,-2,-1,-1,-3
1514955421150273,-2,1,-1,-1,-2,-3,-2,0
1514955421171288,-1,-1,0,0,-1,-1,-1,-2
1514955421171288,-2,0,-1,-1,-3,-2,1,0
1514955421175291,-2,-2,0,-2,-2,0,-1,0
1514955421175291,0,-1,0,-2,-2,-1,-3,-1
1514955421184321,0,-2,-1,-2,-1,0,-2,1
1514955421184321,0,-1,-3,-1,1,-2,-2,0
1514955421193303,-2,0,-2,-1,0,-1,0,-1
1514955421193303,-3,0,-1,-2,-1,0,-1,-1
1514955421208315,-2,-1,-1,-1,1,-3,1,-1
1514955421208315,2,-3,-1,-1,-1,-2,-3,-1
1514955421210318,2,-1,1,-1,-4,0,0,1
1514955421210318,-1,-2,-2,-1,0,-2,-1,-1
1514955421230368,-2,-3,-2,-1,-3,-1,-2,0
1514955421230368,-2,-1,0,-2,0,-1,1,-2
1514955421232332,-1,-1,-1,-1,0,-1,-1,-1
1514955421232332,-1,-2,0,0,0,0,-1,-1
1514955421244363,-1,-1,0,0,-1,0,-2,-1
1514955421244363,-1,-3,-1,-1,-2,-2,1,-1
1514955421253355,-1,0,-3,-2,-1,1,1,-1
1514955421253355,-1,-1,-1,-2,-1,0,0,-2
1514955421268357,2,-1,-2,-1,-1,0,-1,-3
1514955421268357,-1,-1,-1,0,0,2,-3,-1
1514955421270373,-1,-2,-1,0,-1,-1,1,-1
1514955421270373,0,-1,0,-3,-1,-2,0,-3
1514955421290390,-1,-1,-1,-1,1,-2,-1,2
1514955421290390,-1,-1,-3,-1,-1,-2,-3,-4
1514955421296388,-1,-2,0,-1,-2,0,-4,-3
1514955421296388,0,0,0,0,0,0,0,0
1514955421304394,1,0,-1,-1,-1,0,-2,-1
1514955421304394,-2,-1,-2,0,-3,-3,0,-1
1514955421313396,-1,0,-1,-1,1,-3,-1,0
1514955421313396,-1,0,-1,-1,-1,1,-2,-1
1514955421329401,-1,-2,-2,-1,-1,-1,-1,-3
1514955421329401,-2,-2,-1,-1,-2,1,0,0
1514955421332402,0,-2,-1,1,-2,-2,-2,-3
1514955421332402,-3,-1,-1,-1,-2,-1,1,-2
1514955421350415,-2,-1,-1,-1,-2,-4,0,3
1514955421350415,0,-1,-1,-2,-1,-2,-1,-1
1514955421352417,-2,0,0,-2,-1,2,-1,-2
1514955421352417,1,0,-1,-1,-1,-2,0,-1
1514955421373435,-3,-2,-2,0,0,0,-3,-1
1514955421373435,0,-1,-1,-2,-1,-2,-2,-1
1514955421374435,-4,0,-2,-2,-1,-2,-2,0
1514955421374435,-1,-1,-3,-1,-3,0,0,-1
1514955421388455,-2,-1,-2,-2,-1,0,-4,-3
1514955421388455,1,-1,-1,-2,-1,-1,1,2
1514955421390446,-1,-3,0,-1,-2,-1,2,-4
1514955421390446,-2,-2,-2,0,0,0,1,0
1514955421410467,-1,-2,0,0,0,0,-1,1
1514955421410467,-1,-1,-1,-1,-1,-1,0,-1
1514955421412459,-1,-2,0,-1,-2,-1,-1,-1
1514955421412459,-2,-2,-1,-1,-2,-1,-1,0
1514955421424467,0,-1,0,-1,-1,-2,1,-1
1514955421424467,1,-1,-1,-3,-1,-1,-3,-1
1514955421433473,0,1,-1,-1,-2,0,-1,-1
1514955421433473,3,-2,-1,-3,-1,-2,-2,-3
1514955421448496,1,-3,-2,-1,-1,0,-2,-2
1514955421448496,-1,-1,-1,1,-1,0,-2,-1
1514955421449496,-2,-1,-1,-2,0,-2,-1,-1
1514955421449496,-2,0,-1,-2,-1,-1,-2,-1
1514955421471509,-2,-2,0,-2,-3,-1,1,1
1514955421471509,-3,0,-1,-1,-1,-1,-1,2
1514955421474502,0,1,-2,-2,-1,-1,0,-2
1514955421474502,0,-2,0,-1,-1,-1,-1,-3
1514955421484510,-1,-2,-2,-2,-1,-2,-3,-1
1514955421484510,0,-2,-1,-2,-3,0,0,-1
1514955421493516,-1,-1,-2,0,-2,-1,-1,1
1514955421493516,-1,-1,-2,1,-1,-1,1,1
1514955421508529,2,0,-3,-3,-3,-1,1,-1
1514955421508529,-1,2,0,0,1,-1,-1,-2
1514955421509535,-1,0,-2,-2,0,0,0,-1
1514955421509535,-1,-1,-1,-1,0,0,0,-2
1514955421530558,-2,-2,0,1,-2,0,-2,-2
1514955421530558,-4,-2,-1,-1,1,-1,-2,-2
1514955421532571,0,-2,-2,-2,-3,-1,0,-2
1514955421532571,0,-1,-1,-3,-2,-1,-3,-1
1514955421553602,1,-2,0,-2,0,0,-1,0
1514955421553602,1,-2,-2,-1,-1,0,-1,-1
1514955421555577,-1,-2,-1,1,-1,-3,-1,1
1514955421555577,-2,-2,1,-1,-2,-1,-3,-1
1514955421575575,-4,0,0,-2,-1,-2,-2,0
1514955421575575,-1,0,-2,-1,-1,-1,0,-2
1514955421577576,-2,-1,-1,-1,0,-1,-1,-1
1514955421577576,-2,-2,0,0,-2,0,0,-2
1514955421590587,1,-2,-1,0,0,-1,-1,0
1514955421590587,-1,-1,-1,-1,-1,0,-2,-2
1514955421592587,-3,0,-1,-2,0,1,-3,-1
1514955421592587,-1,-1,-2,-1,0,-2,0,-2
1514955421613614,-4,1,0,-2,-2,-1,-3,-2
1514955421613614,-2,-1,0,-1,-1,-2,1,0
1514955421614603,2,-1,-1,0,-2,-2,0,-2
1514955421614603,-1,0,-2,0,0,0,-3,-1
1514955421628612,-1,0,-4,-2,-2,0,0,-2
1514955421628612,-2,-2,-2,-2,-2,-2,-2,-1
1514955421635629,-1,0,-2,-1,0,-2,1,-1
1514955421635629,-2,-1,-1,-2,-1,-3,-1,-1
1514955421650628,1,-1,-1,0,-1,-2,-1,0
1514955421650628,-1,-1,-1,-2,0,0,-1,0
1514955421652629,-2,-2,1,-1,-2,-2,0,-1
1514955421652629,0,0,-2,-2,-1,0,-1,0
1514955421673683,-1,1,-2,0,1,0,-1,0
1514955421673683,1,0,-2,-2,-3,0,0,-3
1514955421676657,-1,-1,0,-1,0,-1,0,-3
1514955421676657,-2,-1,-2,-1,0,0,-1,-1
1514955421687669,-2,-2,-1,0,-3,-4,0,-3
1514955421687669,1,1,-2,0,-1,-2,-1,0
1514955421694675,0,-2,-1,-1,-3,1,2,-2
1514955421694675,0,-2,0,-1,0,0,1,-1
1514955421710678,0,-1,0,-2,-1,0,-2,-1
1514955421710678,-1,-1,-3,0,-2,0,0,2
1514955421712680,-1,-1,-2,-1,-1,-1,-2,-2
1514955421712680,-1,-1,0,0,-2,0,-1,-1
1514955421733710,-1,-1,-2,0,1,-2,-1,1
1514955421733710,0,0,-1,-1,-1,-2,0,-2
1514955421734693,0,-1,0,-1,-1,-1,-1,-3
1514955421734693,-1,-3,-1,-2,-1,1,-1,0
1514955421747720,0,-1,0,0,-1,-1,-3,1
1514955421747720,-2,-2,-1,0,-1,-1,-1,-1
1514955421754724,0,-1,-2,-3,-2,0,0,-1
1514955421754724,-1,-1,0,-1,-1,-1,0,-2
1514955421770718,-1,-1,-1,-1,0,-3,-1,0
1514955421770718,-1,-1,-3,-3,-1,-1,0,1
1514955421772719,0,-2,0,0,0,0,0,-2
1514955421772719,0,-1,-2,-1,-3,-2,-1,-3
1514955421793728,-2,-1,-2,-1,0,-2,-2,-2
1514955421793728,-1,-2,-1,0,-1,-2,-2,0
1514955421794729,-2,-2,-2,-1,1,-1,-1,-1
1514955421794729,-2,0,-2,-1,-1,0,-1,-1
1514955421807766,-2,-2,-1,-2,-2,0,-1,-3
1514955421807766,-1,-1,-1,-1,-1,-1,-1,-2
1514955421814759,-1,0,-1,0,-1,-3,0,-1
1514955421814759,0,-2,0,0,-2,-1,-2,1
1514955421830757,0,0,-1,-3,0,-1,-3,1
1514955421830757,0,-1,-1,-2,-2,-1,-2,-3
1514955421832758,0,-1,-1,0,-2,1,-1,0
1514955421832758,0,-1,-1,-2,-2,-1,-1,-2
1514955421853773,-1,-2,0,-1,-1,0,0,0
1514955421853773,-2,-2,1,0,1,0,-1,-2
1514955421855774,-2,0,-1,-1,-1,-1,-1,0
1514955421855774,-1,0,-2,-1,-1,-2,-1,0
1514955421868792,0,-2,-2,-2,0,0,-1,0
1514955421868792,1,-1,-1,-2,-2,-2,-1,0
1514955421874785,-1,-1,-1,-1,-1,-1,0,-3
1514955421874785,0,0,-1,1,-1,-1,0,0
1514955421890797,1,-3,-1,-2,1,0,2,-2
1514955421890797,-2,-2,-2,1,-1,1,-2,-3
1514955421892810,-2,1,-1,0,-1,-2,-2,-3
1514955421892810,0,0,-1,-1,-2,-2,-3,1
1514955421912812,-1,0,-1,-1,-1,0,0,1
1514955421912812,-4,-2,-2,-2,0,1,0,-1
1514955421914814,1,-2,-1,-1,-2,1,0,-2
1514955421914814,0,0,-1,0,-1,0,-1,-2
1514955421927823,0,-1,-2,-1,-2,-2,-1,0
1514955421927823,-1,-2,0,-1,-1,-1,0,-1
1514955421935843,-1,-1,0,0,1,-1,-3,-1
1514955421935843,-2,-1,0,-2,-2,-1,2,-2
1514955421950838,-1,0,-1,1,-1,-3,-2,-3
1514955421950838,1,0,0,-1,-1,-2,-1,-2
1514955421952856,0,0,-1,-1,-1,-2,-2,-2
1514955421952856,-3,-2,-2,-1,-1,-1,-1,0
1514955421972854,-4,-2,-2,-1,-2,0,1,1
1514955421972854,-2,1,-3,-1,-2,-2,-2,-1
1514955421974864,1,-1,0,-1,0,-2,0,-1
1514955421974864,-2,-1,-2,-1,-1,1,-1,-1
1514955421987866,0,-1,-1,-2,-2,-1,0,-1
1514955421987866,-1,-1,-2,-1,0,-1,0,0
1514955421994872,-3,0,-2,-1,-2,0,-2,-1
1514955421994872,-2,-2,-1,-1,-2,0,-2,-2
1514955422010899,-1,0,-3,-1,-2,-2,-1,-3
1514955422010899,-1,-1,-1,-2,-1,-2,-2,0
1514955422011885,-2,-1,-1,-1,-2,-1,-1,-2
1514955422011885,1,0,-1,-1,-2,-3,-3,-2
1514955422034937,-2,-1,-2,-1,-1,0,-2,0
1514955422034937,0,-1,0,0,0,-2,0,0
1514955422037940,-3,-1,-1,-2,-2,0,-2,-1
1514955422037940,1,0,0,-2,0,-1,-1,-1
1514955422046947,-2,-1,1,-1,-2,0,-2,-3
1514955422046947,-1,-1,-1,-1,-1,0,0,0
1514955422055953,-1,-2,-2,-1,0,1,2,-1
1514955422055953,1,-2,-1,0,-2,-2,-1,-1
1514955422070994,-2,0,1,0,-2,-2,-1,0
1514955422070994,-3,0,-1,-1,0,1,0,-2
1514955422073965,0,-1,0,-1,0,-1,-1,-3
1514955422073965,1,-1,-2,-3,0,-1,1,0
1514955422092990,1,0,-1,-1,1,-3,-2,-4
1514955422092990,1,0,-1,-2,-1,-1,-1,-1
1514955422094981,-1,-1,-3,-1,-1,0,-1,0
1514955422094981,-3,-1,0,1,-1,0,-2,-1
1514955422106999,0,-2,-1,-1,0,0,-3,0
1514955422106999,-1,-2,-2,-2,1,0,1,-1
1514955422115995,-1,-2,0,-2,-2,-3,1,-3
1514955422115995,-1,0,0,-1,-2,-1,0,0
1514955422131020,1,-1,-2,-1,0,0,0,0
1514955422131020,-3,-3,-1,1,-1,0,-1,-3
1514955422133022,-3,-1,1,-2,-2,-2,-1,0
1514955422133022,0,-2,-1,-1,1,-1,-2,-3
1514955422154071,-2,0,-2,-1,-1,-2,1,-1
1514955422154071,3,-1,-2,-1,-2,0,-2,0
1514955422155028,0,-1,-1,0,-2,-1,1,1
1514955422155028,-3,-1,-1,-1,0,-1,-1,-2
1514955422167089,-2,-2,0,-1,-2,-2,-1,-1
1514955422167089,-2,-1,0,-2,-2,-2,-1,-2
1514955422176037,0,-2,-1,0,-1,0,-3,-3
1514955422176037,-2,-1,0,-1,-2,0,1,-2
1514955422191062,1,-2,-1,-3,-1,-1,-1,-3
1514955422191062,-2,-1,0,0,-2,-1,0,-1
1514955422192048,-2,1,-1,-3,0,-2,-1,-2
1514955422192048,-2,-1,-2,-2,-2,0,-2,-2
1514955422213077,-3,-2,-1,0,-1,-1,-4,1
1514955422213077,0,-1,-2,-1,-1,-2,-2,-1
1514955422215089,-2,-2,-2,-1,-1,0,1,1
1514955422215089,-2,-1,-3,-1,-1,0,-2,-2
1514955422227080,-1,0,-2,-2,-1,0,-1,0
1514955422227080,0,-1,-3,0,0,-1,-1,1
1514955422236080,1,-2,-1,-2,-2,-1,0,-1
1514955422236080,1,-2,-2,-1,-3,0,-2,-3
1514955422251091,0,-1,-2,-1,-1,-2,-1,1
1514955422251091,-3,-2,-1,-3,-2,-2,-1,-4
1514955422253112,0,-1,0,-1,-1,-2,2,-2
1514955422253112,-1,-1,0,-1,-1,-2,-2,-1
1514955422274106,-3,-2,0,-1,1,-1,-2,-1
1514955422274106,-2,-2,-3,-1,-2,-1,0,-1
1514955422276114,-1,-2,-2,-1,0,-3,-4,-1
1514955422276114,1,-1,-1,0,-1,-1,0,0
1514955422287178,-1,-2,-1,0,0,-1,1,-1
1514955422287178,0,0,0,-2,-1,-2,-2,0
1514955422296123,-2,-2,-1,0,-2,0,0,0
1514955422296123,-2,-1,-2,-2,0,-1,-1,-1
1514955422310144,-1,-2,-1,-1,0,-3,0,-2
1514955422310144,-2,0,-1,-1,-2,-1,0,0
1514955422320150,-1,-2,0,0,-2,0,-1,-4
1514955422320150,0,-1,0,0,-1,0,-3,-1
1514955422333164,-1,0,-1,-2,-2,-1,0,0
1514955422333164,-1,0,-2,-3,-1,1,-1,1
1514955422335166,0,0,-1,-2,0,-1,-3,-2
1514955422335166,-1,-1,-1,-1,-1,-1,-1,1
1514955422347159,0,-1,-2,2,-2,-1,-2,-2
1514955422347159,-1,-2,-1,-1,1,-3,-1,-1
1514955422356166,-1,-1,-2,-1,-3,1,1,-1
1514955422356166,0,0,0,-1,-1,-1,-1,-1
1514955422371175,-1,-2,0,-1,0,-2,-1,-1
1514955422371175,-3,-3,-2,-1,1,-1,0,0
1514955422372175,-2,1,-2,0,-1,-2,-1,-2
1514955422372175,-2,-1,-2,-4,1,-2,4,-1
1514955422393191,-1,-1,1,-1,-2,-1,0,-1
1514955422393191,-2,-1,-1,0,-1,-2,0,-2
1514955422395193,1,-2,-2,1,-1,-2,-1,-2
1514955422395193,-1,-1,0,0,-1,-1,-1,-1
1514955422407217,0,-2,-1,-1,-1,-1,1,0
1514955422407217,-1,-1,0,-1,-2,-1,0,0
1514955422416208,-1,-2,0,-1,1,-1,0,0
1514955422416208,-1,-2,-2,0,-1,-1,-3,-1
1514955422430220,-1,1,-1,-1,-1,-2,-2,-1
1514955422430220,-1,0,0,0,-2,-1,-2,-2
1514955422432219,-4,-1,-1,-1,0,-2,0,0
1514955422432219,-1,-1,-2,-2,-2,0,0,-3
1514955422453261,-1,-1,-2,1,-1,0,-3,-1
1514955422453261,0,-1,-2,-1,-1,-2,-3,-1
1514955422455255,0,1,0,-2,-2,0,0,1
1514955422455255,-3,-1,-2,-1,1,-2,0,-2
1514955422475251,-2,-1,-1,-1,1,-1,-1,-1
1514955422475251,-1,-1,-1,-2,0,-1,-2,0
1514955422482256,-2,-1,0,-1,-1,-2,-1,0
1514955422482256,0,-2,-1,0,-1,-1,0,0
1514955422491260,1,-1,-1,-1,0,0,-1,-4
1514955422491260,-2,-2,0,-1,-2,-2,0,0
1514955422492261,-2,-1,-1,-2,-1,0,-1,-2
1514955422492261,-2,-2,-1,-1,-2,0,-2,2
1514955422513279,-2,-2,0,-1,-2,-1,1,0
1514955422513279,0,-2,-1,0,-1,1,3,-1
1514955422515277,1,-1,0,-2,-1,-2,-2,0
1514955422515277,-2,-1,0,-1,0,0,-1,-1
1514955422536309,0,-1,-2,-2,-1,0,-1,-1
1514955422536309,-1,0,-1,-2,-1,0,-2,-3
1514955422540294,-2,-1,0,-2,0,0,-1,-3
1514955422540294,-1,-2,-1,0,-2,-1,-1,0
1514955422550312,-1,-1,-2,0,-2,-1,-1,-2
1514955422550312,-2,0,-1,-1,-1,-1,1,-1
1514955422552315,-1,-1,-2,-2,-2,-2,-1,-2
1514955422552315,-3,-1,-1,-1,0,-3,-2,0
1514955422573319,-1,-1,-1,-1,-1,-2,0,-1
1514955422573319,0,-2,-3,-2,-2,-2,-2,0
1514955422575321,0,-2,-2,-1,-1,-1,0,-1
1514955422575321,0,-1,-1,0,-2,-2,-1,-1
1514955422595351,-1,-1,-1,0,-2,-1,0,0
1514955422595351,-3,-3,-3,0,-1,-2,-2,1
1514955422597335,-2,-1,0,-1,-1,-1,0,-1
1514955422597335,-1,-2,0,0,0,-2,-1,-3
1514955422610361,-2,-3,0,-1,-2,-2,-3,0
1514955422610361,0,-1,-1,-1,-1,-1,0,-2
1514955422612348,-2,0,-1,-1,-1,-1,-1,-2
1514955422612348,-1,-1,-1,-2,-2,-2,0,0
1514955422633360,-2,-1,0,-1,-1,0,-2,1
1514955422633360,-3,-1,0,0,-1,-1,2,-1
1514955422636378,0,-1,-1,1,-1,1,-2,0
1514955422636378,1,-1,-1,-1,-2,-2,0,0
1514955422655377,1,1,0,-1,0,0,-2,-1
1514955422655377,-1,-1,1,-2,-1,0,0,-2
1514955422658399,0,0,-1,-1,-1,-1,1,-3
1514955422658399,-1,-1,-1,0,-1,-1,-1,-1
1514955422671387,-1,-3,-3,-2,-1,-1,1,-2
1514955422671387,-1,0,-2,-1,1,-1,-1,0
1514955422677394,-1,-1,-1,0,-1,-2,-4,0
1514955422677394,0,0,-3,0,-1,1,-1,-1
1514955422693416,1,-2,-1,-4,-2,-2,-3,1
1514955422693416,0,0,-1,-1,0,1,-2,-3
1514955422694408,0,0,-1,-1,0,0,-1,-2
1514955422694408,-3,0,0,-2,-2,-2,-1,0
1514955422715437,-1,0,-1,0,-1,0,-2,-1
1514955422715437,-1,-3,0,-1,-1,-2,1,-2
1514955422717421,0,-1,-1,0,-2,0,0,-1
1514955422717421,-1,-1,-1,0,0,0,-2,-1
1514955422731430,1,0,-1,-1,-2,-1,0,-3
1514955422731430,-3,0,-2,-1,-2,-2,-1,1
1514955422736473,0,-1,-1,-2,-2,-1,0,1
1514955422736473,-1,-1,-1,-3,-2,0,-1,-1
1514955422760450,-1,-2,-2,-1,-1,-1,0,-1
1514955422760450,2,-1,0,-1,-1,0,-2,-1
1514955422762471,-2,-1,-4,-3,-1,-1,-1,-1
1514955422762471,-4,-2,-2,-2,-2,0,-2,-1
1514955422776480,-3,-1,-1,1,-1,-1,-1,1
