timestamp,emg1,emg2,emg3,emg4,emg5,emg6,emg7,emg8
1514898551672509,-2,-1,-1,-3,-1,0,-1,-1
1514898551672509,1,0,-1,-2,-1,1,-1,0
1514898551673510,-2,1,-1,0,-2,-1,0,-1
1514898551673510,-1,-1,-1,-2,-1,-1,-1,-2
1514898551686518,-2,-1,0,-1,0,-1,-1,-1
1514898551686518,-2,0,-2,0,-1,-2,-2,-1
1514898551693023,0,-1,-2,1,0,-1,-1,1
1514898551693023,-1,0,-2,-1,1,-2,0,-2
1514898551709536,-1,0,-2,-1,0,-1,-2,-1
1514898551709536,-2,-2,-1,-1,-1,-2,0,-3
1514898551711037,-2,-2,-1,-4,-2,-1,-1,-2
1514898551711037,1,0,1,-1,-3,0,-2,0
1514898551732048,0,-1,-1,-1,-2,-2,0,-1
1514898551732048,-1,0,0,-1,1,-1,-1,0
1514898551733550,1,-1,-1,-1,-2,-2,1,-1
1514898551733550,-2,-1,-1,0,1,-1,-1,-2
1514898551754564,-2,-1,0,1,-1,-2,-1,-1
1514898551754564,0,-1,-1,-1,-1,0,-3,-1
1514898551756067,-1,-1,-2,-1,-3,-2,-1,-1
1514898551756067,-2,-3,-1,-1,0,-1,0,0
1514898551769576,-1,-1,-1,-1,-1,-2,0,1
1514898551769576,-2,-3,-3,-1,-2,-3,-3,-1
1514898551771076,-1,0,-1,-1,0,0,-2,0
1514898551771076,0,-1,-1,-2,-2,-1,-2,-1
1514898551792092,0,-2,0,-1,-1,-2,0,0
1514898551792092,-2,-3,0,0,-1,1,-1,-1
1514898551793594,0,-1,0,-1,-1,1,-2,-1
1514898551793594,-2,-1,-1,-1,-1,-1,-1,-1
1514898551806103,-2,-2,-1,-2,0,-1,-2,0
1514898551806103,0,1,-1,-1,-1,-1,-1,-1
1514898551814607,-1,0,-1,-1,-1,-1,-2,-2
1514898551814607,0,0,-1,-1,0,0,-2,0
1514898551829620,-2,-2,-1,-2,0,-1,0,-3
1514898551829620,-2,-3,-2,0,0,0,0,0
1514898551831119,-1,-3,-1,1,-2,-2,-2,-1
1514898551831119,-1,-1,-2,-1,1,-3,0,-3
1514898551852633,-1,-2,0,0,-2,-3,-2,0
1514898551852633,-1,-1,0,-1,-1,-2,0,0
1514898551855638,-1,0,1,-1,-2,0,1,-1
1514898551855638,0,-3,-2,-1,-2,-2,-1,0
1514898551866643,-1,0,-1,-1,-2,1,-2,0
1514898551866643,-1,-1,0,-1,-1,-1,-1,0
1514898551874651,-2,0,-2,-1,-1,-1,-3,-1
1514898551874651,-1,-2,-2,-1,0,-1,0,-2
1514898551889660,0,0,-1,-2,-1,-2,-2,1
1514898551889660,-1,0,0,-3,0,-3,0,-2
1514898551891161,-1,-1,-2,-1,0,-1,-1,-2
1514898551891161,0,0,-1,-1,-4,0,-1,0
1514898551911675,-1,-1,-1,-2,-2,1,-1,-2
1514898551911675,-1,-1,-1,0,-2,2,-2,-2
1514898551913677,-1,-1,-2,-2,0,-1,-1,0
1514898551913677,-1,-4,0,-2,-2,-1,0,-2
1514898551925685,-1,-5,-2,-1,1,-1,0,0
1514898551925685,-1,0,-2,1,0,-1,-1,-1
1514898551936693,-2,0,-1,0,0,1,-1,-1
1514898551936693,-1,0,0,-1,-1,0,-1,-1
1514898551949202,-1,-2,-1,-2,-1,-1,-1,-2
1514898551949202,-1,0,-1,-1,-1,-1,0,0
1514898551951203,0,0,-1,0,-2,-1,0,-1
1514898551951203,-1,-1,-1,-2,-1,-1,0,-1
1514898551972219,-2,0,-2,0,0,0,-3,-1
1514898551972219,1,0,0,-2,0,-1,-3,-3
1514898551973719,-1,-1,0,-1,-2,-1,-1,-3
1514898551973719,0,-1,-2,1,-2,-2,-1,0
1514898551985746,0,1,-2,-1,-2,-2,-1,-1
1514898551985746,-1,0,-1,-1,-2,-2,-1,0
1514898551994235,-2,-1,-2,-2,0,1,-2,-1
1514898551994235,-1,-2,0,-1,0,-1,-1,-2
1514898552016762,-1,-2,-1,-3,0,-2,-1,-1
1514898552016762,-2,-1,0,-1,0,0,0,-1
1514898552018250,1,-2,0,0,-2,-1,-1,0
1514898552018250,-2,-2,-1,-1,1,0,-3,-1
1514898552032263,-2,-1,-1,-1,0,-2,0,-1
1514898552032263,-2,-1,-3,-1,-1,-1,-1,-1
1514898552034273,-1,-1,-2,-2,-1,-1,0,0
1514898552034273,-1,-1,-1,-2,-3,0,0,-2
1514898552045780,1,-3,0,1,-2,-1,-1,-1
1514898552045780,0,1,-1,-1,-1,-1,-2,-3
1514898552054777,-2,-1,-1,0,-1,-1,0,-1
1514898552054777,-1,0,-1,-1,0,0,-1,-1
1514898552069296,-2,0,0,-2,0,-1,2,1
1514898552069296,-1,-1,-2,0,-1,-1,-1,-1
1514898552070798,0,-1,-1,-2,-1,-1,-1,-3
1514898552070798,-1,0,-1,-2,1,-2,-1,-2
1514898552091812,-1,-2,0,-2,0,0,-1,0
1514898552091812,-1,-1,-1,0,-1,-1,-2,0
1514898552093303,-1,0,-1,-1,-2,0,-3,-1
1514898552093303,-1,-2,-1,0,-1,-4,0,1
1514898552105828,0,0,0,-1,-1,-2,-2,-2
1514898552105828,0,-1,-2,-2,-2,1,0,-1
1514898552114819,-3,0,-2,0,-1,-1,-1,-4
1514898552114819,-2,-3,-2,0,0,1,-2,-1
1514898552129329,-1,-1,-2,0,-2,-2,-2,-1
1514898552129329,-1,-1,-2,-1,-1,-1,-1,0
1514898552130830,-1,-3,-2,-2,-2,-2,1,-2
1514898552130830,-1,-2,0,-3,1,-2,-2,-2
1514898552151845,-2,-2,-2,-2,0,0,0,-3
1514898552151845,-3,-2,0,-1,-1,0,-2,-3
1514898552154351,0,-1,-2,-2,-1,0,-1,-1
1514898552154351,-3,-1,-1,0,-2,-2,-1,-1
1514898552165354,0,-2,-1,-1,0,0,-1,-1
1514898552165354,-2,-1,-2,-3,-1,1,1,-2
1514898552174873,-1,0,0,-2,-3,-1,-1,-3
1514898552174873,0,-1,-1,0,-1,-2,-1,0
1514898552189372,-1,-1,-2,-1,-3,0,-2,-1
1514898552189372,-2,1,-1,0,0,1,-1,-3
1514898552190873,-3,-4,-4,-2,-2,-2,-4,0
1514898552190873,2,-2,-1,0,0,-2,0,0
1514898552211887,-4,-2,-7,-1,0,1,-1,-1
1514898552211887,0,3,9,-2,-2,-1,0,-1
1514898552213388,-1,-4,-1,-2,-2,-1,-1,-1
1514898552213388,-1,-4,-1,0,-2,-2,0,-1
1514898552234405,2,-1,-1,0,-1,-2,-1,-1
1514898552234405,-4,-2,-7,-4,-3,-1,1,-2
1514898552235905,-2,-4,1,-2,0,-1,-1,-1
1514898552235905,2,-2,-2,0,-1,0,-2,0
1514898552249416,0,-2,0,-1,-2,-1,0,-1
1514898552249416,0,-1,-2,-2,-2,-1,-2,-1
1514898552250915,-1,4,0,0,0,-2,0,-1
1514898552250915,0,6,1,0,-1,-1,0,-2
1514898552271931,-1,-4,2,-1,-1,-2,-1,-2
1514898552271931,2,3,0,1,-1,-2,-1,1
1514898552273437,-2,-2,-2,-1,-1,0,1,1
1514898552273437,2,-7,-2,-1,-1,-1,-3,-3
1514898552294446,-2,0,1,0,0,-1,0,0
1514898552294446,-2,-2,-1,-1,0,-2,-2,1
1514898552295947,1,1,-1,0,-2,0,-1,-2
1514898552295947,-4,0,-1,-2,-1,-2,-1,-1
1514898552309457,0,2,0,-1,-2,-2,-1,-1
1514898552309457,-1,-7,-3,-2,-3,-1,-1,-1
1514898552310967,-2,0,-2,-1,0,0,-1,0
1514898552310967,-2,-1,0,-3,-1,1,-1,-1
1514898552332973,-1,-1,0,-2,-3,-1,-1,0
1514898552332973,0,-1,-3,-1,0,-1,0,-1
1514898552335475,0,0,0,-2,-2,-1,-2,-2
1514898552335475,-1,0,0,0,-3,-1,-1,-2
1514898552354989,1,0,-2,-1,-1,-2,-1,-1
1514898552354989,0,-2,-1,0,-2,-2,0,-1
1514898552356493,1,0,-2,0,0,-1,-1,0
1514898552356493,-2,-1,-1,-2,0,1,0,-1
1514898552368517,1,-3,-2,0,-2,-2,-2,-1
1514898552368517,-1,0,-1,-1,-1,-1,-1,-1
1514898552375513,-1,1,-3,-1,-2,-1,-1,-2
1514898552375513,-2,-1,-2,-1,-1,-2,-2,-1
1514898552392015,-2,-2,-2,-2,0,-3,-1,-2
1514898552392015,-1,-1,-2,-1,-1,-1,-2,0
1514898552393516,0,-2,-1,1,0,-1,-1,-2
1514898552393516,0,5,0,-2,-1,0,-1,-1
1514898552414043,-1,0,-1,0,-1,0,-1,-2
1514898552414043,-1,-1,-1,-1,1,-1,-2,-3
1514898552420545,-1,-1,-1,-2,-1,-1,0,-1
1514898552420545,-2,-3,-1,-1,0,0,1,-2
1514898552430042,-2,-2,-1,-2,-2,-2,-1,1
1514898552430042,-1,1,0,0,-1,-2,0,0
1514898552436047,0,-1,-1,0,0,-2,-2,-1
1514898552436047,0,-3,-2,-1,-2,-2,-2,-2
1514898552451563,1,-2,-1,-1,-1,-1,1,-2
1514898552451563,-1,-4,-1,0,0,-1,-2,-1
1514898552465567,-1,1,-1,-2,-3,1,-1,0
1514898552465567,-5,0,-2,-3,-2,-1,0,-2
1514898552474573,-1,-2,-1,-1,0,-1,-3,-1
1514898552474573,0,-1,0,0,-1,-2,0,-2
1514898552476074,-1,1,-1,0,0,-3,0,-2
1514898552476074,-1,0,-1,-1,-3,-1,-1,-2
1514898552489083,-1,-1,0,0,-2,-2,0,-1
1514898552489083,-1,-2,-1,-1,0,-1,0,0
1514898552495601,-1,0,-3,-1,-1,-1,-1,-2
1514898552495601,-2,0,-2,-3,-1,-3,-1,-2
1514898552512101,-3,-2,-1,-1,-1,-1,-1,-3
1514898552512101,1,-1,0,-1,-1,-2,0,0
1514898552513610,-3,-2,-2,-1,-1,-1,0,-3
1514898552513610,0,-1,-1,0,-1,-1,-2,-1
1514898552535116,-1,-3,-1,-2,-2,1,-1,0
1514898552535116,-2,-2,1,-1,-1,-1,0,1
1514898552538618,-2,0,1,-1,-1,-1,-1,-1
1514898552538618,0,-2,-2,-1,0,-1,-1,-2
1514898552548627,0,-1,0,-2,0,-3,-2,0
1514898552548627,-1,-1,-1,-1,-4,0,0,0
1514898552556134,-1,0,-1,-1,-1,0,0,1
1514898552556134,0,-2,-1,-1,-1,0,-1,-1
1514898552572145,0,-3,0,-1,-1,-1,-1,0
1514898552572145,-1,-2,-2,-1,-1,0,0,-1
1514898552573649,-2,-2,0,-2,-1,-1,-2,-3
1514898552573649,0,-1,-1,-2,-1,-2,-1,-1
1514898552594659,-3,-7,-5,-2,-1,-1,-1,-1
1514898552594659,-1,0,-1,-2,1,-2,-3,-2
1514898552596163,0,1,-1,-1,1,0,-1,-1
1514898552596163,-2,-1,-1,0,1,-1,-3,-1
1514898552609172,-3,-3,-1,-2,-1,-1,-1,-2
1514898552609172,-2,-2,-3,-1,-1,-1,-1,-1
1514898552615673,-1,-1,-2,-1,-3,-3,0,-1
1514898552615673,-1,-2,-1,1,-1,0,-2,-1
1514898552632187,1,1,-1,1,0,-1,0,1
1514898552632187,-2,1,0,-2,-1,1,-2,-1
1514898552633687,-2,1,-1,-2,-1,1,-1,-1
1514898552633687,-3,-1,-1,-1,-2,-1,1,2
1514898552654701,-1,1,0,-2,-1,-2,-1,-1
1514898552654701,-1,-2,-1,-2,-1,1,-1,-2
1514898552656201,0,-2,-3,-1,0,-1,0,-1
1514898552656201,-1,-2,0,0,-1,-1,-1,-3
1514898552676717,1,4,-1,0,-2,1,-1,0
1514898552676717,-1,-2,-3,-1,-1,-2,0,0
1514898552678717,-3,0,-3,-1,-1,0,-3,-1
1514898552678717,-1,2,0,-1,0,-2,0,-2
1514898552692228,0,-2,-1,-1,-1,-3,0,-1
1514898552692228,0,0,-1,0,-1,-2,0,-1
1514898552693730,-1,-1,-1,-1,-1,-1,-1,-2
1514898552693730,-1,-2,-2,-1,-1,-1,0,0
1514898552714743,-1,-2,-1,0,-1,-1,-1,-1
1514898552714743,-2,-1,0,-1,-2,-1,0,-1
1514898552716244,-2,-2,-1,-1,0,0,-1,-2
1514898552716244,-1,-1,-1,-2,-1,0,-2,0
1514898552728254,1,-2,0,-2,0,0,-2,0
1514898552728254,-1,-1,-2,-1,-1,-1,-2,-1
1514898552744265,0,-1,-1,-2,-1,0,-1,-2
1514898552744265,0,-1,-2,0,-1,-2,0,-1
1514898552751769,-2,-3,0,0,0,-2,-1,-1
1514898552751769,-1,-1,-2,-1,-1,-1,-1,-1
1514898552753273,-1,0,-1,1,-2,-1,-1,-1
1514898552753273,0,4,2,-1,-1,-2,0,0
1514898552774786,0,-1,-2,-1,-1,-1,-1,0
1514898552774786,-2,-2,-1,-1,0,-1,0,-1
1514898552776287,-3,-1,0,-2,-2,-3,-1,1
1514898552776287,-2,-1,-3,-1,-1,1,0,-1
1514898552788295,-2,-1,-1,-1,0,-2,1,-1
1514898552788295,0,0,-1,0,-1,-1,-3,-2
1514898552798303,-1,1,-2,-1,-3,-1,-2,-1
1514898552798303,-2,-4,-3,0,0,-1,-2,-1
1514898552811818,0,-2,0,0,-1,0,-2,-1
1514898552811818,-1,-2,-4,-1,0,-3,1,-1
1514898552813815,0,-1,-2,-1,-1,-2,-2,-3
1514898552813815,0,-2,-2,-1,-2,0,-1,-1
1514898552834329,-1,-1,-2,-2,-1,0,0,-3
1514898552834329,-2,-2,-1,-1,0,-2,-1,-1
1514898552835828,-1,-4,-1,-1,-2,0,0,0
1514898552835828,1,3,1,-1,-1,-2,-1,-1
1514898552848338,0,-1,-2,-1,-1,-2,-3,-1
1514898552848338,-2,-2,-1,-2,-1,-1,-2,-2
1514898552857345,-1,-2,-1,-2,-1,-1,-1,-1
1514898552857345,-3,-3,-2,-1,0,1,-3,-1
1514898552871854,-1,-1,-2,1,-1,-1,1,-1
1514898552871854,-1,1,0,-1,-1,-1,0,-1
1514898552878361,-1,0,-1,-1,-1,-2,-1,-3
1514898552878361,0,-4,-2,-3,-2,-3,-1,-2
1514898552894872,-2,-2,-1,0,-1,-2,-2,0
1514898552894872,0,-1,-1,-1,-1,-1,-1,0
1514898552895873,-1,0,0,-2,-2,-1,-2,0
1514898552895873,-1,-2,-2,-2,-1,-2,-2,-2
1514898552908382,1,5,2,2,1,0,0,1
1514898552908382,1,1,-2,-1,-1,-1,-1,-2
1514898552916886,-1,-1,-2,-2,-1,0,-1,-1
1514898552916886,0,0,-1,0,-2,-1,0,0
1514898552932397,-1,-2,-2,-2,-2,-3,-1,-1
1514898552932397,-1,-3,-1,-2,-1,-1,-2,-2
1514898552933899,-3,1,-2,0,-1,-1,0,-2
1514898552933899,-2,-2,0,-3,-1,-1,0,0
1514898552954412,-1,-2,-3,0,-1,0,0,-2
1514898552954412,-3,-1,0,-1,-1,-1,-1,0
1514898552956415,0,-1,-2,-2,-1,-2,-1,-2
1514898552956415,-3,-8,-4,-1,0,-2,-1,-1
1514898552967924,-1,-1,-1,-3,-1,-1,0,-1
1514898552967924,0,-1,-1,0,-1,-1,-2,-1
1514898552977931,-2,-1,-1,-2,-1,0,-1,-1
1514898552977931,-1,-1,-1,-2,-1,-2,-2,-1
1514898552991943,0,-3,-2,-2,-1,-2,-2,0
1514898552991943,-1,-2,-1,-1,-1,1,-1,-2
1514898552993942,-2,-1,-1,-1,0,-1,-2,-1
1514898552993942,0,-1,-3,-2,0,1,0,-1
1514898553014455,-2,-5,-2,-1,1,0,-2,-1
1514898553014455,-1,0,-1,-1,-3,-2,1,0
1514898553016957,-2,-1,-1,-2,-2,-1,-1,-2
1514898553016957,1,0,-1,-1,-2,-1,-1,-1
1514898553027966,-1,0,0,0,-2,-2,-1,-1
1514898553027966,-1,-2,-2,-1,0,-1,-1,-2
1514898553036971,0,0,-1,0,-2,-1,-1,-2
1514898553036971,0,-5,-2,0,0,0,-2,2
1514898553052982,0,0,1,-1,-1,-1,-1,-1
1514898553052982,-1,-1,-1,-2,-1,0,-2,-1
1514898553054984,0,-1,-3,-2,-3,-1,-1,-2
1514898553054984,-2,-1,-1,0,-1,-2,-2,-2
1514898553075498,-1,0,-3,-3,-1,-2,1,-1
1514898553075498,-1,0,0,-2,-1,-1,0,-2
1514898553077501,0,1,0,-2,-1,-1,-1,0
1514898553077501,-2,1,-1,0,-1,-2,0,-3
1514898553088006,-1,-3,1,0,-1,1,-1,1
1514898553088006,-2,-1,-2,-1,-1,-1,0,0
1514898553097013,-1,-3,0,-1,-2,0,0,-1
1514898553097013,-1,1,-2,-1,-1,-1,0,-3
1514898553111533,0,-3,-2,-2,-2,-3,-1,-1
1514898553111533,-4,-1,-2,-1,-1,0,0,0
1514898553118038,-2,-2,0,0,-1,-1,-3,-1
1514898553118038,-1,0,-1,-1,-1,0,0,0
1514898553134540,-1,-1,-1,-1,0,-1,0,-1
1514898553134540,-1,0,0,-1,0,-1,-3,-2
1514898553137041,-2,1,-2,-1,-1,-1,0,-2
1514898553137041,-2,0,0,0,0,-1,0,-1
1514898553157055,-1,-3,-1,0,0,0,0,0
1514898553157055,-2,-10,-3,-2,-2,-2,-2,-1
1514898553158558,-2,0,-2,-1,-1,-1,-2,0
1514898553158558,0,-1,-1,0,0,-2,-2,-2
1514898553172087,-2,-1,-2,-2,0,-3,-1,0
1514898553172087,-2,0,-2,-1,0,0,-2,0
1514898553173567,-1,0,-1,0,-1,-2,0,-2
1514898553173567,-1,-1,-1,-1,-2,0,0,-1
1514898553194582,0,-1,-2,0,1,-3,0,-2
1514898553194582,1,0,-1,-1,-1,-1,-1,1
1514898553196083,-1,-1,0,-2,0,-1,1,-1
1514898553196083,-1,-1,-1,0,0,-2,-1,-1
1514898553217098,-1,-1,0,0,-2,-2,1,-1
1514898553217098,0,2,-2,-1,-3,-2,-1,-3
1514898553219601,-1,-1,-1,-1,0,-1,-2,-1
1514898553219601,0,-1,-1,-2,-2,-3,-3,-2
1514898553232108,0,-1,0,-1,-2,-1,-1,-1
1514898553232108,-1,0,1,-1,-2,-1,0,-1
1514898553234610,-2,0,-1,-1,-2,0,-2,-2
1514898553234610,0,-3,0,-2,-1,-2,-1,1
1514898553254143,0,-4,-2,-2,-2,-2,-3,0
1514898553254143,0,1,1,0,-2,0,0,-2
1514898553260629,-1,-1,-3,-2,-1,-1,-1,-1
1514898553260629,-2,-1,-2,-1,-1,-2,0,-1
1514898553277141,-3,-1,-1,-1,1,0,0,-1
1514898553277141,0,0,0,-1,0,-1,-2,-1
1514898553278642,-2,0,-2,-1,-2,-2,0,-1
1514898553278642,0,0,0,-1,-2,-1,-2,-1
1514898553291663,0,7,2,0,-1,-1,0,0
1514898553291663,0,0,-3,-2,-1,-1,-2,-2
1514898553293665,-2,-1,-2,-2,0,-1,0,-1
1514898553293665,-2,0,-1,-2,0,-1,-1,1
1514898553314166,-1,-3,-3,0,-1,-1,-1,-2
1514898553314166,-1,-3,-2,-1,-2,-1,0,0
1514898553316168,0,1,-1,-2,-2,-3,-2,-1
1514898553316168,-1,-3,-1,-2,-3,-1,0,-1
1514898553337182,-2,-2,0,-1,-2,-1,-2,0
1514898553337182,-1,-1,-2,-3,-2,-3,-1,0
1514898553339184,-1,-1,-2,-1,-2,-1,-1,-1
1514898553339184,0,-2,-2,-1,-2,-2,0,-1
1514898553351193,-2,-2,0,0,-2,-2,-1,-2
1514898553351193,-2,1,0,-1,-1,-1,0,1
1514898553358198,-1,-1,0,-2,-2,0,-1,-1
1514898553358198,-2,-1,-1,-1,-1,-1,-2,-1
1514898553373708,0,-1,-2,0,-1,-1,-1,-2
1514898553373708,0,-1,-1,-3,-1,-1,-2,-1
1514898553382214,-1,-2,-2,-1,-1,-3,-1,-1
1514898553382214,-1,-2,-1,-1,0,0,-1,0
1514898553396725,-1,-2,-1,-2,0,0,-1,1
1514898553396725,-3,0,0,0,-2,-2,-1,-2
1514898553398726,1,8,1,0,-1,0,-2,-1
1514898553398726,1,-2,-1,0,-1,-2,-2,-2
1514898553411247,0,-1,-3,-1,0,-3,-2,0
1514898553411247,1,1,-1,-1,0,1,0,-1
1514898553417750,0,-2,-2,0,-3,0,0,-1
1514898553417750,-1,-1,-1,-1,-2,-1,-2,-1
1514898553434252,-1,0,0,-1,-1,-2,-2,0
1514898553434252,-2,-1,-1,-1,-1,-2,-1,-2
1514898553437753,-1,-2,-2,1,-2,-3,0,-2
1514898553437753,0,-1,-1,-2,-1,0,-1,-1
1514898553456768,-1,-4,-1,-3,-2,1,-1,0
1514898553456768,-1,-2,-1,-1,-1,0,-2,-2
1514898553458768,-3,-2,-1,-2,-1,-2,-2,-1
1514898553458768,-1,-1,-1,-1,1,-1,0,-2
1514898553471287,-1,-1,0,-2,0,0,0,-2
1514898553471287,1,-1,-1,-2,-1,-1,-2,-1
1514898553477782,0,-2,-2,-1,-2,-1,-2,0
1514898553477782,-1,-1,0,-1,0,-2,-1,-4
1514898553494306,-2,-2,-2,-2,-1,-2,-2,0
1514898553494306,0,-2,-1,-3,0,0,-3,-1
1514898553495807,0,-2,-1,0,-1,0,0,0
1514898553495807,0,-2,-1,0,-3,-1,0,-1
1514898553517832,-1,-1,0,0,-1,-1,1,-2
1514898553517832,-1,0,-2,-2,0,-1,-1,-1
1514898553521313,-1,-1,-1,-2,-2,-1,-1,0
1514898553521313,-2,-1,-3,-3,0,-2,-2,1
1514898553531346,0,-3,-1,-1,0,-2,-1,-1
1514898553531346,-2,-2,-1,0,-2,-2,1,-1
1514898553537825,-1,-1,-1,-3,0,-1,-1,-1
1514898553537825,-2,-2,0,-1,-1,-1,-1,-1
1514898553554373,-1,-1,-1,0,-1,0,0,-2
1514898553554373,-2,0,-1,0,0,-2,-2,-2
1514898553555866,0,-2,-2,-1,-1,-1,-1,-2
1514898553555866,-1,-2,-1,-2,-3,-1,-1,-1
1514898553576880,0,-1,-1,-3,-2,-1,-1,-1
1514898553576880,0,0,-2,0,-1,-3,-2,-2
1514898553578391,-1,0,-3,-1,0,-2,-1,-1
1514898553578391,1,-1,-1,0,-1,-2,-1,0
1514898553599896,-1,0,-1,-2,-1,-1,0,-1
1514898553599896,-2,-3,-1,0,-1,0,-1,0
1514898553603399,-2,-1,-1,-2,0,0,-2,-1
1514898553603399,-2,-1,-1,0,-2,-2,-2,-1
1514898553614920,0,-1,-2,0,0,-1,-2,-1
1514898553614920,-2,-1,-1,-1,-2,1,0,-2
1514898553617419,-2,-2,-1,1,0,-1,-1,-1
1514898553617419,0,-3,0,-1,-2,0,0,-2
1514898553644428,0,-3,-1,0,-1,0,-1,1
1514898553644428,-2,0,-3,-2,-2,-3,-1,0
1514898553645929,-2,-3,-1,-1,-2,-2,-1,0
1514898553645929,0,-1,-3,-1,0,-1,-1,-2
1514898553650432,0,-2,1,-1,-1,-1,-1,0
1514898553650432,0,0,-1,-1,-1,-1,-1,-1
1514898553665442,-1,-1,-1,-1,-1,1,0,-2
1514898553665442,-1,1,-2,0,0,-3,-1,-2
1514898553681956,-1,-1,-1,-1,-1,0,0,-2
1514898553681956,-2,-2,-1,-1,0,-2,0,-1
1514898553684478,-1,-1,0,-4,-1,-1,0,-1
1514898553684478,0,-1,-1,-2,-1,-2,0,0
1514898553704972,-1,0,-1,-1,-1,-1,-1,-2
1514898553704972,-1,0,-2,-1,-1,-1,-1,-2
1514898553708473,-1,-1,-1,0,-1,-1,-2,0
1514898553708473,-1,-2,0,-1,0,0,-1,-2
1514898553710474,-1,-2,-2,-2,-1,-1,-3,0
1514898553710474,-2,-2,-1,1,-1,-2,-1,-1
1514898553719480,-1,-1,-2,-1,-1,-1,1,-4
1514898553719480,-1,-1,-3,-1,-1,0,-1,0
1514898553733991,-1,-1,-2,-2,-1,0,0,-1
1514898553733991,0,0,-1,-2,0,-1,-1,-3
1514898553740509,-1,1,0,0,-2,-2,-2,-1
1514898553740509,-2,0,-1,-1,-2,-2,0,1
1514898553757017,-2,-1,-1,0,-2,-3,-1,-1
1514898553757017,-1,-2,-1,0,1,-1,-2,-1
1514898553758519,-2,-1,-1,-2,0,1,-2,-1
1514898553758519,0,-1,-2,-1,-2,0,-1,-1
1514898553770517,-2,-2,0,-2,-1,-1,0,-1
1514898553770517,-2,0,-1,-1,-2,0,0,-1
1514898553779526,-2,-1,-2,0,-2,-2,-1,-2
1514898553779526,-2,-1,-1,-2,-1,0,-1,-1
1514898553802540,-1,0,-2,0,-1,-1,-2,-1
1514898553802540,0,-2,-1,-2,-3,-1,-2,0
1514898553806042,-2,0,-3,-1,-2,-1,-2,-2
1514898553806042,-1,-1,-1,0,0,0,0,-2
1514898553816061,-1,-1,-1,0,-1,-1,0,-2
1514898553816061,-1,0,0,-2,0,-2,-1,-2
1514898553832573,-2,-4,-1,-1,-2,0,0,1
1514898553832573,-2,-2,1,0,-1,-1,-2,-2
1514898553834578,-3,-2,-1,-1,-3,-1,-2,-1
1514898553834578,-1,0,-2,0,-2,0,-1,-1
1514898553839567,0,-1,-2,-1,-1,-2,-2,-2
1514898553839567,-1,-4,-2,0,-3,-1,0,-1
1514898553854576,0,0,-1,-3,-1,-2,0,0
1514898553854576,0,-2,-2,-1,-2,-1,1,-3
1514898553856079,0,0,1,-3,0,-2,-1,-2
1514898553856079,-2,-2,-1,-1,-1,0,-1,-3
1514898553877092,-1,-1,-2,-1,-1,-2,0,0
1514898553877092,-2,-1,-1,0,0,0,-1,0
1514898553878595,-1,0,-2,-2,-1,-1,0,-1
1514898553878595,-2,-1,1,0,-1,-3,0,-1
1514898553890656,-1,-1,-1,-1,-1,-1,-1,-1
1514898553890656,-2,2,0,-1,-1,-1,-2,0
1514898553899662,0,-1,-2,1,-1,-2,-1,-2
1514898553899662,0,-1,0,-1,-1,-1,0,-1
1514898553914172,-1,1,0,-1,-2,-1,0,-3
1514898553914172,0,-1,-1,-2,-3,-1,-1,-2
1514898553916173,-2,-2,0,0,-1,-1,-1,-1
1514898553916173,-1,-1,-2,-1,-1,-2,-1,-1
1514898553937693,0,-1,-2,1,0,-1,-1,1
1514898553937693,-1,2,0,-1,-1,-1,0,0
1514898553940197,0,-2,-1,-1,-2,-1,1,-2
1514898553940197,-2,-1,-3,-1,0,-1,-1,-1
1514898553950704,-1,-1,-1,-2,0,0,0,0
1514898553950704,-1,-2,-2,0,-2,-2,-1,-2
1514898553959730,-1,-2,0,-1,-1,-1,-1,-1
1514898553959730,-1,-2,1,-2,-1,-1,-1,-1
1514898553974715,-2,-2,0,-2,0,-1,-1,-1
1514898553974715,0,-2,-1,-1,-2,-2,0,-3
1514898553976216,-2,-1,0,-1,-1,-3,-2,-2
1514898553976216,0,-1,-1,-1,-2,-1,-1,-1
1514898553996730,-1,-1,-2,-2,0,-2,-2,0
1514898553996730,0,1,-2,-1,-1,-2,-1,1
1514898553998753,-1,-1,-2,-1,-2,0,-2,-4
1514898553998753,0,-1,-2,-1,-1,-2,-1,0
1514898554010740,1,-1,-1,-2,-3,-1,-1,-1
1514898554010740,-2,-2,-3,-1,0,-1,-1,-1
1514898554019247,-2,-1,-2,-1,0,-1,-1,-2
1514898554019247,-2,0,0,1,-1,-2,-2,1
1514898554034757,-1,-1,0,0,-2,-1,-1,-2
1514898554034757,-1,0,-1,-1,-2,0,-1,-1
1514898554037759,0,0,-1,-2,0,-1,1,0
1514898554037759,-2,-2,-2,-2,0,-1,-2,0
1514898554056773,0,-1,-1,-1,0,0,-1,-2
1514898554056773,-3,0,0,-1,-2,0,-1,0
1514898554058274,-2,-1,-1,-1,-2,-1,0,0
1514898554058274,0,-1,0,-1,-1,-3,0,-1
1514898554070380,-2,-1,0,-1,0,-2,-1,-1
1514898554070380,-2,-2,-2,0,-2,-1,-2,-2
1514898554079362,-2,0,-1,0,-1,-1,0,-1
1514898554079362,-1,-1,-1,-2,0,-1,-1,-2
1514898554094383,-1,-2,-2,1,-1,-1,0,-2
1514898554094383,0,0,0,0,0,-1,0,-2
1514898554095873,-1,0,-1,-1,-3,0,-2,-1
1514898554095873,-1,0,-1,0,-1,-1,0,-2
1514898554132400,-1,-1,-1,-1,-2,-1,0,0
1514898554132400,-1,-1,-2,-2,-1,-1,-2,-1
1514898554135440,-1,-1,-2,-2,-2,-1,-1,-2
1514898554135440,1,-1,-1,1,-1,-1,-1,-2
1514898554139406,0,-1,-1,0,-1,-1,0,-1
1514898554139406,0,-1,0,-1,-2,0,0,-2
1514898554140906,-1,0,-1,-1,-1,-2,0,1
1514898554140906,-1,-1,-2,-3,-1,-1,-2,-1
1514898554155416,-3,-1,-2,-2,-1,-1,0,0
1514898554155416,-1,-2,-3,-2,0,0,-1,0
1514898554156417,-1,-1,-1,-2,-1,0,-2,-1
1514898554156417,-1,-2,-1,-1,-3,-1,0,-1
1514898554176931,-3,1,-1,-1,1,-1,0,-2
1514898554176931,0,-1,-1,-1,-1,-1,0,-1
1514898554178432,0,-2,-2,1,0,-1,-2,-1
1514898554178432,0,-1,-2,-1,0,-1,-2,0
1514898554199465,1,0,-2,0,-2,-2,-2,0
1514898554199465,-2,-1,0,-1,-2,-1,0,0
1514898554200965,-1,-2,-1,-1,-2,-1,-1,-3
1514898554200965,-1,-3,-2,-2,-2,-1,-1,1
1514898554214486,-2,-2,-1,-1,-1,0,-2,0
1514898554214486,-1,-1,-1,-1,-2,-1,-1,-1
1514898554215987,-1,-2,-1,0,-1,-2,0,-2
1514898554215987,-1,-2,0,-1,0,-1,0,-1
1514898554236999,-1,1,0,-2,-1,0,-3,-3
1514898554236999,-1,-1,-1,1,-1,-3,-2,0
1514898554238500,-1,-1,-1,-2,-1,0,-2,-1
1514898554238500,-1,0,-1,-1,1,0,0,-1
1514898554259505,0,-3,-2,-1,-2,-1,0,-3
1514898554259505,-2,-2,-2,-2,0,-1,-2,-3
1514898554261006,-1,0,-1,1,0,-2,-1,-2
1514898554261006,0,-2,1,-1,-4,-1,-2,-1
1514898554273517,-3,0,1,-1,-1,0,-1,2
1514898554273517,0,0,-1,-1,-1,0,-1,1
1514898554280544,-3,0,-3,-3,-1,0,-1,1
1514898554280544,0,-1,-1,-1,-1,-2,0,-2
1514898554297031,-1,0,-1,0,-1,-2,0,-1
1514898554297031,-1,0,-2,-2,-1,-2,-1,-2
1514898554299535,1,0,1,-1,-1,-2,0,-1
1514898554299535,-1,-2,-2,-1,0,-1,0,0
1514898554320552,-2,-1,-2,-1,-2,-2,0,-1
1514898554320552,-2,0,-2,-1,0,-1,-1,-1
1514898554323052,-1,-3,-2,-1,0,-1,-2,-1
1514898554323052,-1,-2,-1,0,-2,-2,-1,-1
1514898554333574,1,0,-2,0,-2,0,-1,-1
1514898554333574,0,1,0,-2,-1,-1,-1,-2
1514898554340564,-2,1,-1,-1,-3,-1,-2,-1
1514898554340564,-1,0,-1,0,-2,-3,-1,0
1514898554357074,0,-1,-1,0,-1,-1,-2,-2
1514898554357074,-2,-2,-3,0,-1,-1,-1,-2
1514898554358576,-2,-1,-1,0,0,-1,0,0
1514898554358576,-1,-1,-1,-2,0,-3,-1,-3
1514898554379590,0,-2,0,-2,0,-2,0,0
1514898554379590,-1,-3,-2,-2,-2,-1,-1,-1
1514898554381106,-1,-2,-1,-1,-1,0,0,0
1514898554381106,-1,-1,-1,-2,-1,-3,-2,-1
1514898554393601,-2,-1,-1,-1,0,-3,-3,-1
1514898554393601,-2,-2,-1,0,-1,0,-1,-2
1514898554401605,-1,-2,-2,-2,0,0,-1,-1
1514898554401605,-1,-3,-1,-2,-2,1,0,0
1514898554416134,-1,-2,-1,-3,-2,1,-1,-1
1514898554416134,-2,0,-2,-2,-1,-3,-1,-2
1514898554424622,0,-1,-1,-1,-2,-2,0,-1
1514898554424622,-1,0,-1,0,-2,0,-1,-1
1514898554439633,-1,-2,-1,0,-2,1,0,-1
1514898554439633,-3,0,-2,0,-1,1,0,-1
1514898554441136,-3,0,-1,-2,0,0,-2,-1
1514898554441136,-1,-2,-2,-1,-2,0,-1,0
1514898554453661,-2,-2,0,-2,-1,1,-1,-1
1514898554453661,1,-1,1,-1,-3,0,-2,-2
1514898554460652,0,-2,0,-1,-1,-2,-1,0
1514898554460652,0,-2,-1,-1,-1,-1,-2,-4
1514898554476660,0,1,-1,0,-1,-3,0,-1
1514898554476660,-1,-2,-1,-1,0,1,-2,0
1514898554478662,-2,-1,-2,-1,-1,1,0,-2
1514898554478662,-2,0,0,-2,0,-1,-2,1
1514898554499180,0,-1,-1,-1,-2,-2,-1,-1
1514898554499180,-2,-1,-1,-1,-1,0,-2,0
1514898554501185,-1,0,0,1,-2,-2,0,-2
1514898554501185,-3,-2,-2,-1,-1,0,-1,-1
1514898554513685,-2,-2,-2,-3,-1,-1,0,-1
1514898554513685,-1,-1,1,-2,0,-1,-2,-1
1514898554520690,1,-3,-2,-1,-2,1,-1,-2
1514898554520690,1,-2,0,-3,-3,-2,0,-1
1514898554536702,0,-2,-2,-1,0,-1,0,-1
1514898554536702,-2,-1,-2,-1,-3,-3,0,-2
1514898554538702,-1,-2,-1,-2,-1,-3,1,-2
1514898554538702,-1,0,0,-1,0,-1,-1,-1
1514898554559217,-1,-2,0,-2,-1,-1,-1,1
1514898554559217,-1,-2,1,-2,-1,0,-1,-1
1514898554561218,-1,-3,-2,-2,0,-1,-3,1
1514898554561218,-2,-2,-1,1,-1,-1,-1,0
1514898554581743,0,-1,-1,0,0,-1,-1,-1
1514898554581743,-1,1,-2,-1,-2,-1,-1,0
1514898554583235,-2,-2,-2,-1,0,-2,0,1
1514898554583235,0,-2,-2,-1,-2,-1,-2,-1
1514898554604268,-1,-1,-1,-3,0,0,-2,-1
1514898554604268,-1,1,-2,-2,-1,-3,0,-1
1514898554610253,0,-2,-1,-1,-2,-1,-1,-1
1514898554610253,-1,0,-1,-2,0,-2,-1,0
1514898554619269,-2,-1,-1,0,-2,-2,-1,-1
1514898554619269,-1,-1,1,-1,0,1,-1,-2
1514898554620761,-3,1,-1,-2,0,-3,-2,-1
1514898554620761,0,-1,-3,-2,-1,-1,-2,-1
1514898554641776,-1,-1,0,-2,0,0,0,-1
1514898554641776,-1,-1,-1,-2,-1,-1,-1,-2
1514898554645282,-2,-1,-1,-3,-1,-1,-1,-2
1514898554645282,-2,-1,-1,-1,0,-2,-2,0
1514898554656787,-3,-1,-2,-1,-2,-1,-1,-3
1514898554656787,-2,0,-1,0,-1,0,-1,-1
1514898554658288,1,-1,-1,1,0,-2,-2,-1
1514898554658288,-1,-2,0,0,-2,0,-2,-2
1514898554686808,-1,-1,-3,-1,-1,-1,-1,0
1514898554686808,0,-3,-2,0,-2,-1,-1,0
1514898554688308,0,0,-1,-2,-1,1,0,-1
1514898554688308,-1,-2,0,-1,-2,-1,1,-1
1514898554692813,-1,0,-1,-1,-1,-1,-1,-2
1514898554692813,0,-2,-3,-2,-1,-2,0,-1
1514898554703819,0,1,-1,-1,-2,-1,-1,-1
1514898554703819,0,-1,-1,0,0,-1,0,-1
1514898554716847,-3,-1,0,-1,0,-1,-2,0
1514898554716847,-1,-1,0,-1,-1,-2,-1,-1
1514898554718341,-1,-1,0,-2,-1,-1,-1,-2
1514898554718341,0,-2,-1,-1,0,1,-1,0
1514898554739344,-1,0,0,-1,0,0,-1,-2
1514898554739344,0,-1,0,-2,-1,0,-2,-1
1514898554742857,-3,-1,-2,0,-2,-2,-1,-1
1514898554742857,-2,-2,-1,0,-1,0,-2,0
1514898554752864,0,-2,-1,-2,-3,-1,-1,-1
1514898554752864,-2,0,-1,0,-1,-2,-3,-1
1514898554761862,-1,-1,-1,-1,-1,0,-2,-1
1514898554761862,1,0,-2,-1,-2,-2,0,0
1514898554776871,-1,-1,-3,0,-1,-1,-1,0
1514898554776871,-2,0,-1,-1,-1,-1,-1,-2
1514898554779382,-1,-1,-2,-2,-1,-2,0,-1
1514898554779382,0,-2,-2,-1,0,-2,-1,-1
1514898554800389,-1,-1,-1,-2,-2,-2,-1,-1
1514898554800389,0,0,-2,-3,-1,2,0,-1
1514898554804393,0,-2,-1,0,-3,-1,-1,-2
1514898554804393,-1,-3,-2,-1,-1,0,0,0
1514898554821903,0,-3,0,0,-3,-2,-2,0
1514898554821903,-2,0,-3,-1,1,-1,-1,-1
1514898554823404,0,-2,-1,0,1,0,-1,-2
1514898554823404,-1,-1,-2,0,-2,-2,-1,0
1514898554836914,-3,0,-1,-2,-1,0,-1,-3
1514898554836914,-2,1,0,-2,-3,1,0,-2
1514898554838415,-1,-2,0,-2,0,-2,-1,1
1514898554838415,0,-1,0,0,-1,-3,-2,-1
1514898554859429,-1,1,-2,0,-1,1,-1,0
1514898554859429,-1,-1,-2,-1,-2,-2,-2,-2
1514898554860930,-1,-1,-2,-1,-1,-1,-2,-2
1514898554860930,0,-2,-2,1,-3,-3,-1,-1
1514898554872950,0,-1,-1,0,0,-2,-1,0
1514898554872950,1,1,0,0,-2,0,0,-1
1514898554881945,0,-1,-1,0,-1,-2,0,-1
1514898554881945,-1,-2,0,-2,-2,0,0,-2
1514898554896955,-2,-2,-2,-2,-2,-2,-1,-1
1514898554896955,-1,-1,-2,-2,0,0,0,0
1514898554898456,-1,-1,0,-3,-2,0,-2,1
1514898554898456,-1,-1,-1,-2,0,-1,-1,-1
1514898554920473,-3,0,-1,-1,-1,-1,0,-3
1514898554920473,0,-2,0,-1,-2,1,-1,-1
1514898554923475,-1,-1,-2,-1,-2,0,0,-1
1514898554923475,0,-1,0,-2,0,-1,0,-1
1514898554934482,0,1,-2,-2,0,-2,-2,0
1514898554934482,-1,-2,-3,0,-2,-1,-3,0
1514898554941989,0,0,-1,-2,-1,-2,-1,-1
1514898554941989,-1,-2,-2,0,-1,-1,-1,0
1514898554957009,-1,-1,0,0,-1,0,0,0
1514898554957009,-3,0,-1,-1,-2,-1,0,-2
1514898554958509,-1,-3,-1,0,-1,-1,0,0
1514898554958509,-2,-1,-1,-1,-1,-2,-1,-1
1514898554979518,0,-2,0,0,-1,-1,0,-1
1514898554979518,1,0,0,-1,0,0,-2,-1
1514898554981018,-2,-1,-1,-2,-2,0,1,-1
1514898554981018,-1,-1,0,-2,0,0,-1,0
1514898554993526,0,-1,-1,-1,-1,0,0,1
1514898554993526,-1,-1,-3,-1,-2,-2,-2,-1
1514898555002042,1,-1,-3,0,-2,-2,-3,-2
1514898555002042,-1,-2,-1,1,-2,1,-2,-2
1514898555017044,0,-1,-1,-2,0,-1,-2,-1
1514898555017044,-2,-1,0,0,0,0,-1,-2
1514898555018545,-1,-1,0,-2,1,-1,-1,-1
1514898555018545,-1,0,-2,-2,-2,-2,0,-1
1514898555039558,-2,0,-1,-2,-2,-2,-1,-2
1514898555039558,-1,0,-1,-2,-2,-3,-1,-3
1514898555046561,-1,-2,0,0,-1,-2,-3,-2
1514898555046561,-1,-1,-1,0,-1,0,-1,0
1514898555062072,0,-1,-2,-1,0,-1,0,-1
1514898555062072,-2,-2,-1,-1,0,-1,0,-1
1514898555065074,-2,-1,-2,-1,-1,-2,1,-1
1514898555065074,-1,-1,0,-2,-2,0,-2,-2
1514898555091594,-1,-1,-1,-2,-1,-2,0,-1
1514898555091594,-1,0,-1,-1,-2,0,-1,0
1514898555093594,1,-2,-1,1,-1,-2,0,0
1514898555093594,0,-3,-1,-2,0,-2,-1,-2
1514898555100100,-2,-3,0,-1,-1,0,0,0
1514898555100100,-1,0,-1,-1,-3,0,-1,-1
1514898555103602,-3,0,-1,-1,-1,-1,-1,-2
1514898555103602,-1,0,-1,-1,0,-2,-1,-1
1514898555122114,-2,0,-1,1,-2,-2,-2,-1
1514898555122114,-2,-2,-1,-1,-1,-2,-3,0
1514898555123618,-2,-1,0,-2,-1,-1,0,-1
1514898555123618,1,-1,0,-2,-1,0,-1,0
1514898555136626,1,1,-1,0,-2,0,-3,-2
1514898555136626,-1,0,0,-1,-2,-1,-1,-2
1514898555138628,-1,1,-1,-1,-1,-1,-1,-2
1514898555138628,-2,-3,-1,-1,-2,-1,-1,-2
1514898555159141,-2,-4,-1,0,0,-1,0,-2
1514898555159141,-2,-1,-1,-2,-2,-1,-2,-1
1514898555161143,0,-1,-1,-1,0,-2,-1,-1
1514898555161143,-1,-2,-1,-2,-2,-3,-2,1
1514898555181657,-1,-1,-1,-2,-1,0,-2,-2
1514898555181657,-1,1,-2,-1,-1,-1,-1,-1
1514898555183662,-1,-1,-2,0,0,-1,0,-2
1514898555183662,0,-2,0,1,0,-1,-2,-2
1514898555196167,-1,-1,-2,-3,-1,-2,-1,-2
1514898555196167,-1,-1,-2,0,0,-2,-1,-3
1514898555204185,-2,-1,1,-2,-2,0,-1,-1
1514898555204185,-1,-2,-1,0,-2,-2,-1,-1
1514898555226706,-2,1,-1,-1,-1,-1,0,-2
1514898555226706,-1,-1,-1,-2,-1,-3,0,-1
1514898555228192,0,-1,-2,-1,0,-2,-2,0
1514898555228192,-1,-1,-3,0,0,-2,0,-1
1514898555241703,-2,0,0,-2,0,-2,-1,-1
1514898555241703,-2,-1,0,-1,-3,0,-1,-1
1514898555243701,0,-1,-1,0,-1,0,0,-1
1514898555243701,1,-2,-2,-1,1,-2,-1,-1
1514898555264216,-1,-2,-3,0,-1,-1,-3,0
1514898555264216,-1,-1,-2,-1,0,-1,1,-1
1514898555265216,-1,-3,-2,0,-1,-1,-3,-1
1514898555265216,-1,-1,0,-1,-3,0,-1,0
1514898555278733,0,0,1,-1,0,0,-1,-1
1514898555278733,-1,1,0,-3,-1,-1,-2,-1
1514898555279226,0,-2,0,0,-1,-1,-1,-1
1514898555279226,-3,-2,-2,-2,-1,-1,0,-1
1514898555301255,0,-2,-2,0,-1,0,-1,0
1514898555301255,0,0,-1,1,0,0,0,-2
1514898555301742,-2,-2,0,-2,-2,0,-1,-2
1514898555301742,1,-1,-2,-1,0,-1,-2,-1
1514898555315752,0,-1,-1,-1,-1,-2,-3,-1
1514898555315752,-1,-1,0,-2,-2,-1,-1,-2
1514898555325275,-2,-4,-1,-1,2,-1,-1,0
1514898555325275,1,-2,0,-2,-2,-2,-1,0
1514898555339268,-3,0,-3,0,-1,1,-1,-1
1514898555339268,-1,-1,-3,-1,-2,-1,-1,-2
1514898555340270,-3,0,-1,-2,-1,0,-2,-2
1514898555340270,-1,-1,0,1,-1,-1,-1,-2
1514898555361283,0,-2,-1,-2,-2,0,0,-1
1514898555361283,-2,0,0,-1,-2,0,0,-2
1514898555361784,0,0,-2,-2,-2,0,-1,-3
1514898555361784,-2,0,-1,0,-2,-3,0,0
1514898555375794,-3,-1,0,-1,-2,-2,-1,-1
1514898555375794,-3,-2,0,-1,0,0,0,1
1514898555383800,-1,-1,0,-1,-2,-3,-2,-1
1514898555383800,-1,-1,-2,0,-1,-1,-1,-1
1514898555398810,0,-2,-1,-1,-2,0,-1,-2
1514898555398810,0,0,-1,-2,-2,-1,0,-1
1514898555399310,0,-1,0,-1,-1,0,-1,0
1514898555399310,-1,0,-2,-2,-2,-1,-1,-1
1514898555421826,0,-1,-1,-1,-1,-1,0,-1
1514898555421826,-1,-2,-2,-1,0,-1,-1,-2
1514898555423329,-2,-1,0,-1,-1,-1,0,0
1514898555423329,-1,-2,0,-1,-1,-2,0,-1
1514898555435337,-1,-1,-2,-2,-2,-1,-1,0
1514898555435337,-2,-1,-1,-1,0,0,-2,-1
1514898555451347,1,-1,-2,0,-1,0,-1,-1
1514898555451347,0,-2,0,-1,-1,0,-2,0
1514898555458852,-3,-2,-1,-1,-1,-1,-1,-1
1514898555458852,0,0,-2,0,-1,0,-4,0
1514898555459353,1,1,0,-2,0,-1,-1,0
1514898555459353,1,-2,0,-1,-1,-2,-3,-1
1514898555480868,-2,0,1,-1,0,-2,-1,-1
1514898555480868,-2,-2,-1,-1,-2,-2,0,-2
1514898555481869,-2,-1,0,-1,-1,-2,0,-1
1514898555481869,-1,-1,1,0,0,-1,0,-1
1514898555495380,1,1,0,1,0,-1,0,-1
1514898555495380,-1,1,-1,0,0,-1,-2,0
1514898555504401,-1,-2,-2,-3,-1,-2,0,-2
1514898555504401,0,-3,-2,0,0,0,-1,-1
1514898555519396,-1,-1,-1,-2,-1,-1,-2,-1
1514898555519396,0,-1,-1,-1,-2,0,-2,-2
1514898555521400,-2,-1,-2,0,0,-3,-2,-2
1514898555521400,-2,0,-2,-1,-1,-1,0,0
1514898555541412,-2,-1,0,-1,-1,0,-1,-2
1514898555541412,-1,1,-1,-1,0,-1,-2,-1
1514898555542413,-1,-1,0,1,-2,-1,-1,-1
1514898555542413,-1,-2,-2,-1,-1,-3,-2,0
1514898555555923,-1,-1,-1,0,-2,-1,-1,-1
1514898555555923,0,0,-1,-2,0,-2,1,-2
1514898555570951,-2,-2,-1,-2,-1,0,-2,-1
1514898555570951,-2,-1,-2,-1,0,-3,0,0
1514898555578456,0,0,-1,0,-2,-1,-1,-2
1514898555578456,-2,-1,-1,0,-3,-1,0,-1
1514898555579450,-1,1,-1,0,-2,-2,-2,-2
1514898555579450,-1,-2,0,-1,0,-1,0,-1
1514898555601953,-2,-1,-2,-2,-2,-1,-1,0
1514898555601953,-2,-2,-1,0,-1,-1,0,-1
1514898555603455,-1,-2,-2,-1,0,-1,0,-1
1514898555603455,-1,-1,-1,0,-1,-1,-1,1
1514898555615464,-2,0,-2,-1,-1,-1,-1,-2
1514898555615464,-1,-1,-2,-1,-2,-1,-2,-2
1514898555623470,-2,0,1,-2,-3,-2,1,-1
1514898555623470,0,-1,-1,-1,0,-1,0,-2
1514898555639483,-1,-2,0,-1,-1,-3,-1,-1
1514898555639483,-2,0,-2,0,-1,-2,-1,-1
1514898555640482,-1,0,-1,-1,-1,0,-1,-1
1514898555640482,-1,-1,-1,-1,0,0,0,0
1514898555660997,0,-1,-1,-1,0,-1,1,1
1514898555660997,-3,-1,-1,-1,1,-2,-1,-3
1514898555661997,1,-1,-1,0,-2,0,-1,-2
1514898555661997,-3,-2,-1,-1,-1,1,-2,-2
1514898555675507,0,-3,-2,-1,0,0,0,-1
1514898555675507,-3,0,-2,-2,-1,0,-1,-2
1514898555683513,-1,-1,-1,-2,-1,-2,0,1
1514898555683513,-1,-1,1,-1,-1,-3,-2,0
1514898555698522,-1,-1,-2,-1,-1,-3,-3,-1
1514898555698522,-3,0,-1,-2,0,-2,-2,0
1514898555699522,-1,-2,-1,0,-2,-3,-1,-2
1514898555699522,0,-1,-1,0,0,0,-1,0
1514898555722039,0,1,0,0,-2,-1,0,-1
1514898555722039,-2,-2,-1,-1,-1,0,-1,-1
1514898555723540,-1,-2,-2,0,-1,-1,-2,-1
1514898555723540,-1,-3,0,-1,-1,-1,-1,-2
1514898555735552,-1,-1,1,-1,0,1,-2,-2
1514898555735552,0,-1,0,0,-2,-1,-1,-2
1514898555743555,-1,-1,-1,-2,-3,-1,0,-1
1514898555743555,1,-2,-2,0,-1,-2,-1,1
1514898555758577,-1,1,0,-1,1,0,-2,-2
1514898555758577,-2,0,1,-1,-2,0,-2,-2
1514898555759565,-1,-1,-1,-1,1,0,-1,1
1514898555759565,-1,0,-3,-1,-1,0,-1,-2
1514898555781103,-1,-2,-1,-1,-2,-2,-2,-1
1514898555781103,1,-2,-1,-1,-1,-2,-1,0
1514898555782081,1,-2,-1,0,-1,0,-1,-1
1514898555782081,1,-3,-1,-2,-2,-2,-1,0
1514898555795592,-1,0,0,-1,-2,-3,-1,-2
1514898555795592,-1,-1,-2,-2,-1,-2,0,-1
1514898555803615,-1,-1,0,-1,0,-1,-2,-1
1514898555803615,-1,-1,-1,-1,-2,-1,-2,0
1514898555818622,-1,-1,-3,0,-2,-2,-1,-1
1514898555818622,0,0,1,1,-1,-1,-1,-2
1514898555820108,0,-2,-2,-1,1,0,-1,-1
1514898555820108,-2,1,-2,-1,-2,-1,0,0
1514898555841131,-1,-1,-1,0,0,-2,0,-1
1514898555841131,0,0,-1,-2,-1,-1,0,-2
1514898555841624,0,-2,-1,-1,-1,-2,0,-2
1514898555841624,-1,-2,0,0,0,-1,-1,-2
1514898555855633,0,1,-1,-1,-2,-1,-1,-1
1514898555855633,-1,0,-2,-1,-1,-2,-1,-1
1514898555863651,-2,-2,1,-1,-1,-2,-1,-2
1514898555863651,0,0,-1,-1,-1,-1,-1,-1
1514898555878661,-1,0,-1,-2,-1,0,-1,-1
1514898555878661,-1,-2,0,-2,0,-2,-3,-2
1514898555879149,-1,-1,-3,-1,0,0,-3,-2
1514898555879149,0,-4,0,0,-1,-2,-1,0
1514898555902240,0,-3,-2,-1,-1,-1,-1,0
1514898555902240,0,0,-3,-2,-1,0,-1,-1
1514898555903725,-2,-1,0,-2,-1,-3,-2,-1
1514898555903725,-1,0,0,-1,0,0,-3,-2
1514898555915733,-1,-3,-3,-2,-2,1,-1,0
1514898555915733,-3,0,-1,-1,-3,-1,-1,-1
1514898555924739,0,0,-2,-1,-1,-1,1,-1
1514898555924739,-1,-3,0,0,-1,0,-1,0
1514898555938750,-2,-1,0,-2,0,-2,-2,-1
1514898555938750,0,-1,-1,-1,-1,-2,-2,-1
1514898555939250,-1,-1,-2,-1,-1,-2,-1,-1
1514898555939250,1,0,-1,0,0,0,0,0
1514898555961266,-2,-1,1,-3,-2,-1,-1,0
1514898555961266,-1,-3,-2,1,-1,-1,-1,-2
1514898555961766,-2,-2,1,-1,-2,-1,-1,0
1514898555961766,-2,-1,-2,-2,-1,-2,-1,-1
1514898555984291,-2,0,-2,-1,-1,-3,1,-1
1514898555984291,-2,1,-1,-1,0,0,-1,-2
1514898555985292,-2,-1,-1,-1,-1,-1,-2,-1
1514898555985292,-2,-1,0,-1,-1,-3,1,-1
1514898555998801,-1,-1,-1,-1,0,-2,-2,-1
1514898555998801,-3,-2,-2,-3,-2,-1,0,0
1514898555999293,1,-2,-2,-1,-2,0,-1,0
1514898555999293,1,-2,0,-1,-1,1,-3,-2
1514898556022310,0,-2,-1,-1,-2,-1,-1,-1
1514898556022310,-1,0,0,-1,-2,0,-1,-2
1514898556023309,-2,-2,0,-2,0,-1,0,0
1514898556023309,-1,-1,-2,-2,-1,-1,-2,0
1514898556044324,-2,1,-1,0,0,-1,-1,-1
1514898556044324,0,0,-1,0,-1,0,-1,-3
1514898556045343,-1,0,-1,0,0,-1,-2,-2
1514898556045343,0,0,-1,-1,-1,-2,-1,-1
1514898556058844,0,-2,0,0,0,0,0,-1
1514898556058844,-1,-2,-1,-1,-1,0,0,-1
1514898556059349,1,-1,-1,-1,-1,0,-1,0
1514898556059349,1,-1,-1,-2,-2,-1,0,-2
1514898556081854,-2,-1,0,-1,-1,1,-1,-1
1514898556081854,-2,0,-1,-1,-2,0,-1,0
1514898556088855,-1,-1,-1,-1,-1,0,0,-1
1514898556088855,-1,-1,-2,0,-1,-1,0,-1
1514898556104867,-1,0,-1,-1,0,-1,-1,-3
1514898556104867,-1,1,-2,-3,-1,-3,0,0
1514898556106868,-1,-1,0,-1,-3,-1,-1,-1
1514898556106868,-2,-1,-2,-1,-2,-1,-1,-1
1514898556119893,1,-2,0,0,-2,0,-3,0
1514898556119893,0,-2,-2,-2,-1,-1,-1,-1
1514898556121379,-1,-3,-1,-3,-1,-2,-1,-1
1514898556121379,-1,-1,-1,-1,-1,-2,-1,-1
1514898556140895,-1,0,-2,-1,-2,-1,-2,0
1514898556140895,-1,0,-1,0,-2,-3,-2,0
1514898556141893,0,0,-2,-1,-2,-3,-2,0
1514898556141893,-1,0,0,-2,-1,-2,-3,-1
1514898556164418,-2,0,-3,-1,-1,-1,0,-1
1514898556164418,-1,-2,0,-2,0,-2,0,-2
1514898556164909,-1,0,-1,-2,-2,0,-2,-1
1514898556164909,0,-2,1,-1,0,0,-1,-1
1514898556178428,-1,-3,-1,-1,-1,-1,-2,-1
1514898556178428,-3,-1,-3,-2,-1,-1,-1,-1
1514898556179429,-2,-3,-2,0,-1,-2,-1,0
1514898556179429,-3,-2,-1,-2,-2,-1,-1,-1
1514898556201950,0,-1,0,-2,-3,-2,-2,-1
1514898556201950,2,-2,-2,-1,1,-1,-3,-2
1514898556203437,0,-2,-2,0,0,-1,-1,0
1514898556203437,-3,-1,0,-1,0,-2,0,0
1514898556224451,-1,0,1,-2,-3,1,-1,-2
1514898556224451,-1,0,-1,-2,-1,-2,-1,-1
1514898556224951,0,-2,-1,-2,-1,-1,0,-1
1514898556224951,1,-1,-2,-1,-1,-1,0,-1
1514898556238461,0,0,-2,-1,1,0,-2,-1
1514898556238461,-1,-2,-2,0,-2,0,0,-2
1514898556239471,-2,0,1,-2,-1,0,-1,-2
1514898556239471,-1,-3,-4,-1,0,0,0,-1
1514898556260989,-3,-1,-2,-1,-1,-1,1,0
1514898556260989,-1,-1,0,-1,-1,0,-2,0
1514898556261995,-1,0,-1,0,0,-1,-3,0
1514898556261995,-2,0,-2,-1,0,-1,-1,0
1514898556284494,-1,0,-1,0,-2,-2,-1,-1
1514898556284494,-1,-3,1,0,-1,-1,1,-1
1514898556284994,-3,-2,1,-2,-1,0,0,-3
1514898556284994,0,-2,0,0,-1,-1,-3,-1
1514898556298517,-1,-4,-2,-1,-2,-1,0,0
1514898556298517,-2,-1,-1,-2,-3,-2,-3,-1
1514898556299504,0,-2,-1,0,-1,-2,-1,-1
1514898556299504,0,-2,0,-1,-1,-2,-3,-3
1514898556321019,-2,-1,-1,-1,-1,-2,-2,-2
1514898556321019,-1,-1,-2,-1,0,-1,0,-1
1514898556323035,0,-1,-1,-3,-1,0,0,-2
1514898556323035,-2,0,0,-1,-1,0,-1,-1
1514898556344548,0,-1,-2,-1,1,0,-1,-1
1514898556344548,-2,0,-2,-2,-2,-1,-2,-2
1514898556345037,-2,-1,-3,0,0,-1,0,1
1514898556345037,-1,-1,-1,0,-1,0,0,-1
1514898556358555,-2,-2,-1,-1,-2,1,0,1
1514898556358555,0,0,-1,-1,-2,-1,-1,0
1514898556359556,-1,-2,-1,-1,-1,-1,-1,-2
1514898556359556,-1,-3,-2,-1,-2,-1,0,0
1514898556381074,-1,0,-2,-1,-2,0,-1,-3
1514898556381074,-1,-2,-1,-1,-1,0,-1,-3
1514898556382062,-2,-2,1,-1,-1,-3,-2,-2
1514898556382062,0,0,-1,-2,-1,0,-3,-1
1514898556404579,-1,-2,-2,-1,-1,-3,-1,0
1514898556404579,-1,-1,-1,-1,-3,0,-1,0
1514898556406580,1,0,-1,-1,-1,-1,-1,0
1514898556406580,-1,-1,-1,-1,0,-2,1,-1
1514898556418605,-1,1,-1,-1,0,0,-2,-1
1514898556418605,-1,-1,-2,-1,-1,-3,-2,-1
1514898556419606,-1,-2,0,1,-1,-1,-2,0
1514898556419606,-2,0,0,-1,-1,0,0,-1
1514898556442115,0,0,0,-1,-1,-2,0,-2
1514898556442115,0,-1,-2,-1,0,-1,1,-2
1514898556442618,0,-1,-1,-1,-2,0,-1,0
1514898556442618,-1,-1,-1,-1,-2,-1,0,0
1514898556464121,-2,1,-1,-2,0,-1,-1,0
1514898556464121,-1,-2,-2,0,-1,-2,-1,1
1514898556465122,0,-3,-3,0,0,-1,1,-2
1514898556465122,-2,-3,-2,-2,-1,-2,0,-2
1514898556478631,-1,-3,0,-2,0,-1,-1,-2
1514898556478631,-1,-1,-1,-2,-2,-1,0,-1
1514898556479131,-2,0,-1,-1,-1,0,-1,0
1514898556479131,-1,0,-1,0,0,-2,-2,0
1514898556502148,0,0,-2,-3,-1,1,0,-3
1514898556502148,-1,-1,1,-1,-3,-2,-2,-1
1514898556504149,0,-2,0,-1,-1,-1,0,-1
1514898556504149,-1,1,-1,-1,-2,0,-1,-1
1514898556524163,0,0,0,-1,-1,-1,-1,0
1514898556524163,0,-1,0,1,0,1,-1,-3
1514898556525164,-2,-2,-2,-1,-1,-2,-2,-1
1514898556525164,-2,-2,-1,0,-1,-1,0,-2
1514898556538673,-1,0,-2,-1,1,-2,0,-1
1514898556538673,0,-2,-1,-2,0,0,0,-1
1514898556539174,-1,0,-1,-1,0,-2,-2,-1
1514898556539174,-1,0,-1,-2,-1,0,-1,-2
1514898556561192,-1,2,-1,-1,-3,-1,-2,0
1514898556561192,-1,-1,-2,-2,0,-1,-1,-1
1514898556561689,0,0,-1,-2,-1,0,-1,-1
1514898556561689,-1,-1,-2,1,-1,-2,-2,0
1514898556584706,-1,-1,-1,-1,-1,0,-1,-3
1514898556584706,-1,0,-2,-1,-1,-3,0,0
1514898556585206,0,-1,-2,1,-1,-1,-1,-2
1514898556585206,-1,-1,-1,-1,-1,-2,-2,1
1514898556598716,-3,-1,-1,0,-1,-1,-1,0
1514898556598716,-2,0,0,-2,-1,-2,0,-1
1514898556606223,-1,-2,-1,-2,-2,-1,-1,0
1514898556606223,0,-1,-2,-3,-1,-2,-1,-1
1514898556622232,-1,-3,-1,0,-2,-1,-1,-3
1514898556622232,-1,-1,-1,-2,-1,0,-2,-1
1514898556623234,0,-1,-1,-2,-1,1,0,-2
1514898556623234,-2,0,-1,0,-1,1,-2,-1
1514898556644260,-1,-1,0,-2,-2,0,-2,-2
1514898556644260,-2,0,-1,-2,-2,-2,0,-1
1514898556645261,-2,-2,0,0,-1,-1,-2,-1
1514898556645261,0,-2,-2,-1,-2,-1,-1,-1
1514898556657758,0,1,-2,-3,-1,-1,0,-2
1514898556657758,0,0,-1,-1,0,-1,-1,-1
1514898556666267,-1,-2,-2,-3,-1,-1,0,-2
1514898556666267,0,-3,-1,-1,-2,-2,0,0
1514898556689785,-1,-1,-1,0,0,-1,0,0
1514898556689785,-2,-2,-1,0,-2,-1,-2,-2
1514898556690303,-1,-2,-2,-2,-1,-2,0,1
1514898556690303,1,-2,0,-1,-2,1,-1,-1
1514898556704291,0,-1,-1,-1,-1,-1,-1,0
1514898556704291,-2,-1,-2,-1,0,-2,-2,-2
1514898556705291,0,-3,-1,0,-1,-3,-1,0
1514898556705291,-1,-1,0,-1,-1,-2,-1,-1
1514898556717812,-2,0,-1,-1,-2,-2,-1,-1
1514898556717812,-1,0,-3,0,0,-1,-2,-1
1514898556726318,-1,-3,-1,-1,-1,-1,-1,-1
1514898556726318,-3,0,-1,-1,-1,-2,1,-1
1514898556741316,-2,-1,0,0,-1,0,-2,-1
1514898556741316,1,-3,-1,-3,-1,-1,-1,0
1514898556741829,-2,-1,-1,-2,0,-1,-1,-1
1514898556741829,0,-1,-1,-1,-1,0,-1,-1
1514898556764332,-1,0,-1,-1,1,-1,-2,-2
1514898556764332,0,0,-1,0,-3,-2,-2,-1
1514898556764833,-1,-1,0,0,-2,-1,-1,-1
1514898556764833,-1,-1,-1,-2,-1,0,0,-2
1514898556777843,-1,0,0,-3,-1,0,0,-1
1514898556777843,-1,-2,-2,0,-1,-2,0,-2
1514898556785860,0,0,-3,0,-2,-1,-2,-1
1514898556785860,-2,-2,-1,-2,0,-1,-2,0
1514898556802875,-1,-3,-1,-1,-1,0,0,0
1514898556802875,-1,0,-1,-1,-3,0,0,1
1514898556804862,0,-1,0,-1,-1,0,-2,-1
1514898556804862,-2,0,-1,-1,0,-1,-1,-2
1514898556825376,-1,-1,-1,-1,-1,-2,-2,1
1514898556825376,0,-1,-3,-2,-1,-1,0,-1
1514898556826877,-1,-2,0,0,-2,-1,-2,-1
1514898556826877,-2,-2,-1,-2,-2,-1,-2,0
1514898556837885,-1,-1,-2,0,-3,-1,0,0
1514898556837885,0,-1,-1,-2,0,0,-1,-2
1514898556845894,0,-1,0,-3,1,-1,0,-1
1514898556845894,0,0,0,-1,0,-2,0,-1
1514898556861401,0,-1,-2,0,0,-1,0,-1
1514898556861401,-2,-1,1,-1,-3,-2,-1,0
1514898556861901,0,-3,-2,-2,-1,-2,-1,-1
1514898556861901,-1,-2,-1,-1,-3,0,-3,-3
1514898556884417,-1,-1,-2,-3,-1,-2,-1,-1
1514898556884417,-1,1,-1,-1,0,0,0,-1
1514898556884918,-1,-1,-1,-1,-1,-1,0,-1
1514898556884918,0,0,0,0,0,0,0,0
1514898556897939,0,1,-1,-1,-1,-2,-1,-2
1514898556897939,-2,-2,-1,0,0,-1,-2,0
1514898556906936,-1,-2,-2,0,-1,-2,-1,-1
1514898556906936,0,-3,-2,-2,-2,0,0,-1
1514898556922445,-1,0,-2,-1,-1,-1,-2,-1
1514898556922445,-1,-1,-1,-2,-2,-2,-1,-3
1514898556923945,-1,0,-2,1,-1,0,-2,0
1514898556923945,-1,-1,-1,0,-1,-1,0,1
1514898556944460,-1,-2,-1,0,-2,0,0,-1
1514898556944460,-1,-1,-2,0,-2,-1,-3,-1
1514898556944962,-2,-1,-1,-2,-1,-2,0,1
1514898556944962,-2,1,-2,-1,-1,-1,-2,0
1514898556966979,-1,-1,-1,-2,-2,0,-1,0
1514898556966979,-1,-3,-1,-2,-1,-1,-2,-1
1514898556968477,-2,-2,-1,-1,-1,0,1,-1
1514898556968477,1,-2,0,-1,-1,-2,-1,-2
1514898556980989,1,0,-2,-1,-2,0,-2,-2
1514898556980989,-1,-2,-1,0,-1,-1,-2,0
1514898556982003,-1,-1,1,-1,-2,-3,0,-2
1514898556982003,0,-1,-2,0,-1,-1,-1,-1
1514898557012508,-2,1,0,-2,-1,-2,-2,-2
1514898557012508,0,-2,-1,-1,-1,-1,-1,-1
1514898557013015,1,-1,-2,0,-2,-2,-2,0
1514898557013015,-2,-1,-2,0,-2,-1,0,-1
1514898557027018,-1,1,0,-1,-2,-1,0,-2
1514898557027018,-2,0,-2,0,-1,-1,-1,-1
1514898557027531,-1,-2,-1,-1,-2,0,-2,0
1514898557027531,-1,-2,-2,-1,-1,-1,-1,-2
1514898557041538,0,-1,-1,-1,-2,-1,-1,-1
1514898557041538,0,0,-1,0,0,-1,0,-2
1514898557042544,0,0,-1,-1,-1,0,0,0
1514898557042544,-1,-1,0,-1,-2,-2,-1,-2
1514898557064054,-2,-3,-2,-1,-2,-1,0,-3
1514898557064054,0,0,-1,-1,-2,-2,-2,-2
1514898557065055,0,-3,-2,-2,-1,-1,-1,-1
1514898557065055,-1,0,-1,0,-1,-2,-2,0
1514898557094066,-1,-1,-2,-1,0,-1,1,0
1514898557094066,-1,-2,-1,0,-1,1,0,-2
1514898557095067,0,-1,-1,-3,-1,-2,-1,-2
1514898557095067,-1,0,-2,-1,-1,-1,-1,-1
1514898557102075,-1,-1,-1,-2,-2,-2,-1,-2
1514898557102075,0,-3,-2,-1,-1,-1,1,0
1514898557103075,0,-1,0,-1,0,-2,-2,-1
1514898557103075,-1,0,-4,-1,-2,0,-1,-1
1514898557124587,0,1,0,-2,-2,0,-1,0
1514898557124587,-1,1,0,-1,-2,-1,-1,0
1514898557125087,-1,-1,-2,1,0,-1,-1,-2
1514898557125087,0,-2,0,-2,0,-1,-1,-2
1514898557146615,-1,-2,-1,1,-1,0,-1,-1
1514898557146615,-1,-2,-2,-2,-1,-1,-1,0
1514898557147604,-1,-2,0,-2,-3,-2,0,-1
1514898557147604,-1,-2,-2,-2,0,-3,-1,0
1514898557161183,-4,-1,-1,-2,0,-2,0,-1
1514898557161183,-1,0,0,-1,-1,0,0,-2
1514898557161673,-2,-1,0,-1,-1,-2,-1,-2
1514898557161673,0,-1,-1,-1,-2,0,0,-1
1514898557184190,-1,-1,-1,-2,0,0,-1,-1
1514898557184190,1,-1,-2,-3,-2,-2,0,-1
1514898557185189,-1,-1,2,0,1,-2,-2,-1
1514898557185189,-1,0,1,-2,-1,-1,0,0
1514898557223216,0,-2,-1,-1,-1,-1,-1,-1
1514898557223216,-1,0,-1,-1,-2,0,-1,-1
1514898557223716,0,-1,-2,0,-4,-1,0,0
1514898557223716,0,-1,0,0,-1,-1,-2,-2
1514898557225217,-1,-2,-1,0,-2,-1,-2,-1
1514898557225217,0,0,-1,-1,-2,-1,1,-2
1514898557228719,-1,-1,-2,-1,-1,0,0,0
1514898557228719,0,-1,-2,-1,-1,-2,-1,0
1514898557244261,0,-1,-1,-1,-1,0,-2,-1
1514898557244261,-3,-1,1,-1,-1,-1,0,-1
1514898557244762,0,-1,-1,0,-1,0,0,-1
1514898557244762,-1,-1,-1,0,-2,-1,-1,-2
1514898557266804,-1,-2,-2,0,-1,-1,-1,-2
1514898557266804,-1,-3,-3,-2,0,-2,-2,-1
1514898557268297,1,-2,-1,1,-1,0,-1,0
1514898557268297,-2,-1,-1,-2,0,-1,0,0
1514898557281336,-2,0,-1,-1,0,-2,1,-1
1514898557281336,-2,-2,0,-2,-1,-1,-2,0
1514898557282330,0,-1,-2,-3,0,-1,-2,-2
1514898557282330,-1,-3,-1,0,-3,-1,0,-1
1514898557304354,0,-1,0,0,0,-1,-1,-2
1514898557304354,-2,-1,1,0,1,-1,-2,-3
1514898557305338,-2,0,-1,-2,-1,-1,-1,-2
1514898557305338,-1,-1,-1,-2,0,0,-1,-2
1514898557327355,-2,0,-2,-1,-1,-1,-2,0
1514898557327355,-2,-1,-2,0,0,0,0,0
1514898557329367,-1,-1,-2,0,-2,-3,0,-1
1514898557329367,-1,-1,-2,-2,-1,-1,-1,0
1514898557341363,-2,2,-1,0,-1,-1,0,-1
1514898557341363,0,0,-2,0,0,0,-2,-1
1514898557341875,-3,-4,-2,0,-1,0,-1,0
1514898557341875,-3,1,-1,0,-2,-1,0,-1
1514898557364379,-2,-3,0,-1,-3,0,-1,1
1514898557364379,0,-4,0,-1,0,-1,-1,-2
1514898557364879,-1,0,-2,-3,0,-1,-3,-1
1514898557364879,0,-2,0,-2,-1,-2,-1,-1
1514898557387396,0,0,0,-1,-3,0,-2,-2
1514898557387396,-1,1,-2,-1,-2,-2,-1,0
1514898557388905,1,-2,1,-2,-1,0,-1,0
1514898557388905,-1,-1,-1,-1,-3,-1,-1,0
1514898557400405,-1,-1,-2,-2,-1,-1,-1,-1
1514898557400405,-1,-3,-2,-1,-2,-1,-1,-1
1514898557409415,-1,-2,0,0,1,-2,-1,-3
1514898557409415,0,-2,-3,-2,0,0,-1,1
1514898557425422,-1,-1,-1,0,-1,-2,-1,-2
1514898557425422,-1,-2,0,-2,-2,-1,-1,0
1514898557427424,0,-2,0,-1,-2,-2,0,0
1514898557427424,-3,-1,-1,0,-1,-1,0,-1
1514898557446938,-2,1,-2,-1,1,0,-2,-3
1514898557446938,1,-1,-2,-1,-1,-1,-1,0
1514898557448439,-2,-2,-1,0,-1,-1,0,0
1514898557448439,0,0,-1,-2,-1,-1,-2,0
1514898557460456,0,-1,-2,-3,0,0,0,-1
1514898557460456,-2,-1,-1,-1,-1,0,-2,-2
1514898557470474,0,-1,-3,-1,-1,0,1,0
1514898557470474,0,-2,1,-1,-1,-1,-1,-2
1514898557484478,-2,-1,-2,1,-2,-1,-1,-2
1514898557484478,-1,-2,0,0,0,-2,0,-2
1514898557485966,0,-1,-1,-2,0,-1,-2,-1
1514898557485966,-1,0,-1,-2,0,0,-2,-1
1514898557506983,-3,-1,-1,-1,0,1,-2,-1
1514898557506983,0,-1,-1,0,-1,-1,0,0
1514898557508482,-1,-1,-3,0,0,-2,-4,-1
1514898557508482,0,-1,0,0,-1,-1,-2,-1
1514898557521490,-2,1,0,-1,0,2,-1,-1
1514898557521490,-3,1,0,-1,0,-2,0,-2
1514898557529496,3,-3,0,-1,-2,0,1,-2
1514898557529496,0,1,-1,0,-1,0,-1,0
1514898557544507,-6,-2,-1,-2,-2,-3,0,-3
1514898557544507,-4,-3,-1,-2,-1,-2,-3,-1
1514898557546007,6,2,1,0,-2,-1,2,5
1514898557546007,-8,4,3,0,-3,-2,0,-2
1514898557566524,3,-4,-1,-1,0,-1,-2,-4
1514898557566524,-13,-5,-4,-5,2,3,-1,-2
1514898557568524,-1,-6,-3,-2,-3,-3,-4,-4
1514898557568524,4,4,-2,-1,-1,0,-1,3
1514898557580533,6,5,0,1,-4,-3,-1,1
1514898557580533,0,5,2,0,-6,-2,-1,-2
1514898557589539,-9,3,-3,1,8,1,2,3
1514898557589539,14,-16,-6,-7,-4,-2,-4,-7
1514898557604050,-27,-3,1,4,2,0,-1,2
1514898557604050,9,-15,-12,-2,0,-2,-1,-4
1514898557606051,-1,10,3,-3,-3,-2,-2,-1
1514898557606051,-5,-4,-1,-1,-1,-3,-3,-5
1514898557627067,1,2,-7,-1,5,2,3,3
1514898557627067,4,10,12,-2,-3,-1,0,-1
1514898557628566,-19,-11,-4,0,-4,-2,-3,-3
1514898557628566,-9,-2,0,-1,-1,-2,-2,-3
1514898557640575,-5,-4,-5,-7,-4,-1,-2,0
1514898557640575,18,15,5,5,2,2,3,8
1514898557649585,6,9,-2,1,-2,-2,-4,-11
1514898557649585,-6,-3,-3,0,-1,0,-4,-4
1514898557664091,8,-5,-1,-1,-1,-1,-1,1
1514898557664091,-12,-13,-6,-1,-1,-2,-1,-4
1514898557666094,-3,-5,8,3,0,2,0,2
1514898557666094,5,-8,-6,0,-3,-2,0,5
1514898557686608,-15,9,0,-1,-3,-3,-2,-6
1514898557686608,12,2,3,-1,-1,-1,-1,-1
1514898557688108,-3,-16,3,-1,-2,-3,-1,0
1514898557688108,-10,4,3,2,2,0,2,-4
1514898557700617,8,-10,-8,-3,-4,-2,-4,-4
1514898557700617,-7,5,-8,-1,-2,-3,-5,-3
1514898557709626,1,10,-9,-7,-3,-2,0,0
1514898557709626,16,-17,-2,-4,0,0,1,8
1514898557732145,1,2,2,2,-1,-1,-7,-16
1514898557732145,-2,0,-7,-5,-2,-2,2,3
1514898557733641,2,-2,-6,0,-2,-1,-1,2
1514898557733641,-21,-7,13,6,-2,-3,-1,-6
1514898557747153,12,16,9,2,1,0,1,4
1514898557747153,-10,-4,0,0,-1,-2,2,6
1514898557748154,8,0,-5,-6,-2,-3,-9,-12
1514898557748154,-11,-5,-8,1,0,0,-1,-4
1514898557761160,35,12,1,-2,-4,-2,1,9
1514898557761160,8,6,2,-4,-1,-1,8,2
1514898557769167,2,-36,7,7,3,1,-16,6
1514898557769167,-2,5,-4,-2,0,-1,-5,2
1514898557784177,-31,1,2,3,2,2,2,-2
1514898557784177,13,-10,-16,-7,0,0,-6,-18
1514898557785677,-10,7,6,0,2,4,8,6
1514898557785677,8,-7,-11,0,-2,0,-2,-5
1514898557807193,-4,3,16,-4,-5,-4,7,-4
1514898557807193,2,9,5,-1,0,-1,-11,7
1514898557808696,1,0,-8,-1,-3,-1,-5,-7
1514898557808696,1,-16,3,-2,0,1,-3,3
1514898557820202,2,-5,-2,9,1,3,12,10
1514898557820202,-11,-10,-12,-16,1,1,-3,-18
1514898557830211,-2,7,-1,-1,-1,-2,1,-3
1514898557830211,15,34,-7,-4,1,1,2,2
1514898557843721,22,3,5,-1,-1,-2,-3,14
1514898557843721,-52,-2,17,15,1,-3,-5,-22
1514898557851725,13,10,-1,-2,-1,2,10,31
1514898557851725,-25,-9,0,1,0,-3,-3,-27
1514898557866737,3,-6,-1,-1,0,1,-5,-9
1514898557866737,-2,-9,3,7,-2,-2,-4,2
1514898557868237,-3,29,-13,-14,-4,-5,16,12
1514898557868237,13,6,16,13,1,1,-18,3
1514898557889752,-22,-52,-18,-15,-4,-4,-9,0
1514898557889752,14,36,-4,-5,-3,0,8,-22
1514898557892756,8,-13,4,8,0,0,-1,-13
1514898557892756,-4,14,4,-5,-2,-3,8,22
1514898557904263,8,12,12,3,-1,0,-2,15
1514898557904263,-8,15,11,7,-3,-2,-19,-19
1514898557905762,-1,-50,13,5,1,0,-2,-1
1514898557905762,-13,-7,-32,-30,-9,-6,-7,-29
1514898557927282,-7,-24,-12,0,2,2,-6,-6
1514898557927282,4,-34,-13,-7,-3,-3,7,17
1514898557928780,-5,28,5,4,0,-2,-2,-15
1514898557928780,6,-16,2,1,3,3,-4,17
1514898557949295,-6,3,14,11,-2,-5,6,-12
1514898557949295,4,-40,-23,-11,-1,1,5,15
1514898557950794,-11,25,0,-2,-3,-4,-18,-24
1514898557950794,-12,21,0,2,-2,4,15,7
1514898557964304,-1,20,-16,-16,-2,-2,-19,-12
1514898557964304,40,28,43,29,5,2,20,69
1514898557965806,-33,-21,-38,-16,-6,-7,-10,-58
1514898557965806,-17,9,-8,-5,-3,-2,-9,-19
1514898557986819,12,-7,-8,-6,-2,0,-10,6
1514898557986819,24,56,29,4,-1,0,-4,-20
1514898557988320,-8,-72,-2,10,0,-1,22,20
1514898557988320,8,9,-25,-1,-2,3,6,8
1514898558009839,-13,3,16,-10,-1,0,13,-5
1514898558009839,-5,13,-28,-9,-5,-4,6,-4
1514898558010838,-42,-16,2,-14,-7,-6,-30,23
1514898558010838,9,-19,4,16,2,0,-6,-35
1514898558023847,-4,63,18,10,3,0,-8,-18
1514898558023847,-31,-77,-33,-16,-4,-3,-3,6
1514898558030351,54,29,4,13,3,-2,4,5
1514898558030351,16,2,12,-12,-8,-9,-25,14
1514898558046864,4,26,3,2,-5,-5,18,15
1514898558046864,1,38,27,-8,5,1,-23,-15
1514898558052866,17,2,-5,-2,-3,-3,10,6
1514898558052866,11,40,-2,8,3,0,6,9
1514898558069878,11,-64,-15,6,-1,3,11,5
1514898558069878,-11,-60,-28,-17,-3,4,33,46
1514898558071379,1,9,-1,-7,0,2,-14,-20
1514898558071379,7,-13,-11,1,-1,-4,-15,-43
1514898558083887,-22,-29,-1,-5,-4,-1,-1,-8
1514898558083887,-3,-3,4,5,-1,-6,-13,-19
1514898558090393,-5,-21,19,-1,1,1,-1,14
1514898558090393,26,58,4,-6,-3,1,27,20
1514898558121914,-14,-50,-41,0,3,-2,-1,-1
1514898558121914,-25,55,-4,0,-1,3,11,11
1514898558124417,-1,-32,0,-5,1,2,7,-6
1514898558124417,-8,6,45,6,2,-4,-3,29
1514898558129420,0,60,-15,-15,-8,-3,4,5
1514898558129420,-29,-6,5,16,5,2,-31,-83
1514898558130921,26,51,14,-10,-7,-1,2,32
1514898558130921,-29,-128,-13,13,0,-4,-18,-26
1514898558144931,5,41,-37,-18,9,4,-2,19
1514898558144931,-8,-46,17,-8,-6,-7,-14,-8
1514898558150435,-28,1,-27,-4,-2,-1,-19,-36
1514898558150435,6,-14,5,5,-3,2,26,26
1514898558166446,-16,-54,-17,2,-3,-3,8,-2
1514898558166446,42,29,-20,7,3,-1,-3,-18
1514898558172951,23,14,25,4,-2,-4,7,41
1514898558172951,9,-1,23,-9,-3,2,8,16
1514898558189482,-23,21,15,5,-3,-1,-4,-43
1514898558189482,23,10,-2,-19,-3,-1,2,-3
1514898558190965,19,17,-2,7,-2,-2,-2,5
1514898558190965,-20,36,-23,-13,-5,-6,0,-14
1514898558204483,1,-9,0,-2,0,4,8,30
1514898558204483,8,-9,20,14,3,-2,-2,3
1514898558213980,1,33,-2,-6,-2,0,-1,9
1514898558213980,7,-33,-28,1,3,4,18,22
1514898558227008,26,39,33,11,-2,-7,-23,-1
1514898558227008,-25,-40,-32,-6,-4,-1,7,37
1514898558228502,-15,7,22,-1,0,-4,-1,-49
1514898558228502,35,25,0,0,3,6,6,45
1514898558249014,-23,19,18,-6,-2,-4,-11,-20
1514898558249014,-4,-17,29,41,0,-3,11,28
1514898558251016,-30,-40,-57,-47,-4,-1,-10,-24
1514898558251016,26,57,30,9,-3,-2,-9,-30
1514898558264018,-15,-63,5,-2,-2,0,-1,12
1514898558264018,13,14,22,3,2,-1,-4,-14
1514898558270529,-3,-50,-38,8,-1,0,15,37
1514898558270529,-34,-10,4,-3,0,0,-17,-14
1514898558286541,5,-11,-16,-15,-10,-9,1,-15
1514898558286541,17,59,-8,-1,0,0,-8,-2
1514898558288532,-25,-15,-2,8,2,3,12,5
1514898558288532,-19,-2,8,-5,-1,-4,-13,-26
1514898558309047,37,17,-4,13,3,4,14,26
1514898558309047,-27,-19,0,-10,-6,-4,-26,-51
1514898558311050,10,-5,-19,4,-3,-1,-5,12
1514898558311050,-17,-43,-31,-4,-5,-6,-19,-10
1514898558324561,-5,7,7,-1,-1,-1,-12,-15
1514898558324561,-83,46,17,-10,-1,-1,-2,-2
1514898558332075,48,-19,-14,6,2,2,3,14
1514898558332075,5,-8,-4,4,0,-3,2,-2
1514898558346583,3,-42,-30,-5,-2,2,2,3
1514898558346583,-13,19,4,6,3,1,-9,-8
1514898558348574,28,31,35,9,-2,-2,13,18
1514898558348574,-24,6,5,5,7,2,-13,-30
1514898558369591,-6,-21,-4,-25,0,3,0,16
1514898558369591,47,33,0,-9,2,3,14,-2
1514898558371093,-16,21,21,1,-2,-3,-6,-2
1514898558371093,-10,-38,-13,4,-3,-2,12,35
1514898558391615,-30,-1,10,21,0,1,-24,-59
1514898558391615,39,7,22,-4,-3,-8,7,-3
1514898558393607,-3,-14,-25,6,0,1,6,-11
1514898558393607,-48,-15,-2,-5,-4,-6,0,10
1514898558407117,-11,7,-42,-29,-5,0,-8,3
1514898558407117,-7,-33,2,0,0,5,5,32
1514898558410619,-19,-16,25,11,5,2,11,3
1514898558410619,0,39,26,8,-1,1,11,-27
1514898558429131,28,22,-23,16,5,4,1,9
1514898558429131,-4,-95,-51,-40,-13,-11,-9,-9
1514898558430632,7,7,9,21,5,2,-8,-11
1514898558430632,-13,3,-12,-21,-6,0,17,-14
1514898558443144,19,-11,20,4,-2,-8,-8,-19
1514898558443144,-3,16,-1,11,4,6,-2,26
1514898558451666,-20,-23,1,-3,-4,-4,-2,10
1514898558451666,5,17,-15,-17,-3,0,-16,-3
1514898558466658,0,19,13,4,-2,-7,-16,0
1514898558466658,-2,-64,-51,-4,-5,-3,15,-22
1514898558468160,6,31,5,-4,1,0,-11,-16
1514898558468160,-24,28,-12,5,-4,-3,9,6
1514898558489174,-26,-3,29,-6,-1,2,12,-8
1514898558489174,30,-18,13,19,-3,-1,-6,20
1514898558490683,-27,6,-19,-12,6,-1,-23,2
1514898558490683,39,37,-15,-13,-4,-1,5,-20
1514898558503700,7,8,35,15,0,2,13,17
1514898558503700,10,18,-19,-5,-2,-1,16,26
1514898558511690,2,-17,13,-4,-1,1,-9,-24
1514898558511690,32,21,1,4,3,4,12,47
1514898558534706,-19,-41,1,-3,-1,-8,-40,-22
1514898558534706,-6,30,3,19,4,3,-5,3
1514898558538209,10,-35,-13,-25,-5,-2,9,56
1514898558538209,-26,8,11,2,4,-1,-12,-33
1514898558548217,-3,-15,-5,-8,-6,0,-1,6
1514898558548217,11,41,-9,7,2,-1,-5,-1
1514898558565228,15,28,-14,-10,-2,1,9,-3
1514898558565228,11,-4,13,7,4,7,18,39
1514898558565728,-46,26,-12,0,-7,-4,-8,-56
1514898558565728,-18,-70,-3,12,5,2,-2,7
1514898558571732,-7,64,6,-10,-8,-2,10,-16
1514898558571732,34,-9,11,-6,-3,-4,-33,-32
1514898558586743,17,59,43,13,4,2,2,15
1514898558586743,-7,-24,-27,-20,-9,-6,3,-39
1514898558588244,-10,-37,17,13,2,-1,-1,-22
1514898558588244,-11,0,-9,-11,1,0,2,-4
1514898558609759,37,8,-17,-1,-2,-1,15,23
1514898558609759,-17,22,15,4,-1,-4,-15,-27
1514898558613262,-7,-8,23,-1,5,5,10,26
1514898558613262,12,-17,-53,-13,-6,-2,-16,16
1514898558631775,19,58,0,10,7,5,29,-14
1514898558631775,-21,2,19,-4,-2,1,0,16
1514898558633276,26,17,-2,10,2,-3,-24,-52
1514898558633276,-13,-13,32,-11,-4,-2,9,-4
1514898558646285,-2,-28,-18,6,-3,-4,6,7
1514898558646285,33,36,-3,-30,-3,-3,3,11
1514898558652789,-16,-62,0,-2,-4,-4,-6,12
1514898558652789,-12,-15,-16,8,-2,-6,10,-28
1514898558669301,-21,-61,14,3,1,2,-8,12
1514898558669301,41,-8,-5,-18,-8,-5,-1,68
1514898558670802,-11,-2,-4,11,-3,-4,-3,-51
1514898558670802,7,-2,9,20,6,-2,9,57
1514898558682811,-34,-52,-2,-18,-3,0,-18,-78
1514898558682811,-10,-18,-46,-10,0,1,-5,23
1514898558692318,-5,21,20,20,-1,-2,5,7
1514898558692318,-5,-23,4,-9,-1,-2,-5,4
1514898558706829,21,-55,-27,-21,-10,-5,7,8
1514898558706829,-8,14,26,8,3,-2,-4,2
1514898558708329,2,4,-5,-4,-7,-6,-13,-16
1514898558708329,-7,27,15,14,0,2,13,10
1514898558729344,-2,-25,-63,-15,-3,-5,-25,17
1514898558729344,-9,-13,-1,-3,-2,-2,-4,-48
1514898558730845,-18,33,-13,-7,-2,-2,25,66
1514898558730845,40,10,60,16,6,5,-36,-52
1514898558742854,6,17,-19,-4,-3,-5,3,-51
1514898558742854,-28,17,-15,-3,-7,-4,2,-22
1514898558751859,30,-13,27,5,2,-3,-25,3
1514898558751859,-27,-25,-48,1,5,3,15,14
1514898558766870,3,4,44,9,3,4,25,25
1514898558766870,7,14,-38,0,5,7,1,1
1514898558768371,32,2,-13,-21,-6,-1,24,33
1514898558768371,-12,-3,12,-4,-3,0,-2,-39
1514898558789386,-27,0,-7,5,-2,-6,-1,42
1514898558789386,18,5,40,17,4,0,-13,7
1514898558791888,-38,32,-8,0,0,-1,5,-18
1514898558791888,15,-21,-22,-12,-2,2,-15,4
1514898558802895,-3,53,37,14,6,6,31,45
1514898558802895,-5,-1,45,-4,-4,-4,-11,-1
1514898558811902,-44,-59,-99,-8,-3,1,-1,-35
1514898558811902,-23,13,6,-8,-6,-5,-7,-6
1514898558834418,13,29,48,8,1,-1,-13,36
1514898558834418,-25,-34,-21,0,-6,-7,15,6
1514898558835919,38,13,15,-10,-1,-2,-2,-8
1514898558835919,-24,-47,-18,-8,-5,-6,-6,21
1514898558849443,-9,44,-6,-13,-3,1,2,-12
1514898558849443,20,10,1,7,-2,2,12,1
1514898558850941,46,47,39,12,7,2,-5,27
1514898558850941,-25,-78,-26,1,-2,-2,-5,-27
1514898558871954,18,16,10,0,2,-5,-10,0
1514898558871954,-26,-9,16,-6,-3,-2,3,-7
1514898558873446,8,62,12,11,4,0,-6,32
1514898558873446,11,26,21,10,0,-1,18,-9
1514898558886955,-1,-2,-7,-9,-2,2,3,13
1514898558886955,4,-35,-5,-1,-4,-3,-16,18
1514898558888456,-20,-42,-11,-9,0,-2,-9,-10
1514898558888456,-3,24,53,41,5,2,13,29
1514898558908971,4,-36,-76,-39,-8,-6,-29,-19
1514898558908971,-4,-10,5,-15,0,-2,9,-10
1514898558910972,4,-21,11,15,2,2,21,46
1514898558910972,1,-29,7,-18,-9,-10,-21,-19
1514898558931987,50,17,10,18,2,5,16,-35
1514898558931987,20,21,-6,-13,0,-1,-3,18
1514898558934527,-30,-41,-28,7,-2,-3,-10,-41
1514898558934527,-11,48,3,-23,-5,-2,-5,0
1514898558954017,1,-88,-31,-1,-2,0,13,15
1514898558954017,3,-7,-17,1,-1,0,8,-1
1514898558956014,24,26,32,15,5,3,-7,16
1514898558956014,-18,0,8,-7,-4,-6,-2,-2
1514898558969568,12,15,-3,10,4,3,13,42
1514898558969568,-25,28,31,7,5,2,-2,-23
1514898558972018,-15,-17,-50,-17,-12,-13,-10,19
1514898558972018,51,85,39,-15,6,8,6,11
1514898558992030,-57,-46,-68,-18,-12,-10,-27,-2
1514898558992030,27,6,-29,12,2,5,32,-38
1514898558993532,-23,-14,46,7,-4,-6,-16,-20
1514898558993532,5,-9,-58,5,-2,-7,-8,4
1514898559007041,11,12,30,-29,-2,-3,0,-20
1514898559007041,-1,19,46,27,10,6,-7,13
1514898559013057,49,8,-50,-31,-7,-2,28,36
1514898559013057,-8,-29,19,34,2,5,-3,-8
1514898559028567,27,72,103,21,7,3,2,31
1514898559028567,-38,-74,-122,-49,-21,-14,-34,-88
1514898559038562,-38,11,76,10,5,5,-10,-39
1514898559038562,31,14,2,2,3,8,8,31
1514898559051571,-19,-10,-5,11,0,-6,-22,-15
1514898559051571,22,46,63,14,2,2,9,47
1514898559053573,2,-7,-99,-27,-11,-8,-10,-24
1514898559053573,-4,-47,-39,-14,-6,-2,3,-40
1514898559066082,-53,9,19,3,-1,2,-9,-3
1514898559066082,51,12,24,14,3,3,12,6
1514898559073087,-28,-1,38,6,-2,-3,-9,-26
1514898559073087,-3,-7,-43,-19,-3,-9,10,18
1514898559089107,-10,46,-15,-6,1,-1,0,-1
1514898559089107,-39,-13,25,-6,0,2,8,56
1514898559091102,12,-17,-14,-4,-4,-2,-10,-98
1514898559091102,-2,-18,-48,-16,-5,1,16,120
1514898559111626,-35,5,23,11,-4,-7,-8,-64
1514898559111626,2,27,-19,9,2,-1,4,27
1514898559113625,7,17,8,-15,2,5,-13,8
1514898559113625,-8,-15,14,4,1,-1,4,-9
1514898559126124,-11,-13,-25,6,-1,2,-3,7
1514898559126124,-37,3,24,3,-1,-4,-17,-32
1514898559132628,-21,-12,17,7,3,1,12,61
1514898559132628,-8,-2,-24,2,0,2,-14,-4
1514898559149140,21,-23,-11,-1,-3,-3,11,27
1514898559149140,25,36,4,-3,-6,-10,-24,-9
1514898559150642,-35,-82,-25,-20,0,1,-2,10
1514898559150642,17,4,13,9,-3,-1,8,-20
1514898559171666,20,3,3,0,0,-1,-25,-56
1514898559171666,24,22,6,-20,-4,1,41,19
1514898559173659,-8,-16,15,16,3,2,5,-3
1514898559173659,-1,18,7,1,0,2,2,8
1514898559186167,18,8,30,13,3,-3,-6,44
1514898559186167,16,60,-1,-11,-5,-2,-14,-57
1514898559192671,10,-52,-3,16,4,0,-18,-10
1514898559192671,-12,32,21,-10,-4,-4,16,11
1514898559209193,-27,34,11,2,-1,3,14,-12
1514898559209193,19,-66,11,0,1,-1,-3,43
1514898559210684,27,35,4,2,-3,-1,7,38
1514898559210684,5,12,9,6,0,-5,-39,-32
1514898559239204,-30,-31,-12,3,-2,-6,-11,17
1514898559239204,-3,34,-23,-9,-4,1,5,-1
1514898559240705,-23,-20,-25,-13,-6,-8,-16,-77
1514898559240705,32,-20,27,-2,-1,-1,-2,-19
1514898559246722,-7,51,-7,-6,-1,2,0,6
1514898559246722,-7,-69,8,28,4,1,-3,-21
1514898559260219,-42,7,6,-3,-2,1,18,6
1514898559260219,-22,26,-27,-20,-5,-3,-15,5
1514898559269225,34,-86,-22,2,1,-2,-20,-63
1514898559269225,-47,-24,-11,16,3,-1,-11,3
1514898559270726,19,95,30,0,2,5,6,53
1514898559270726,-12,-29,7,10,5,1,-4,-30
1514898559291741,11,-4,-37,-13,-5,0,20,28
1514898559291741,-37,-71,-15,-11,-7,-6,-37,-24
1514898559293242,12,23,4,7,4,0,-1,0
1514898559293242,12,-2,22,8,2,3,-2,2
1514898559305767,-3,-1,-16,-13,-6,-5,-9,-8
1514898559305767,29,8,8,2,1,-1,7,23
1514898559312771,12,54,18,-9,-3,-2,25,27
1514898559312771,-5,3,-10,-19,-6,-2,-9,-23
1514898559329295,20,25,-27,5,2,-1,6,35
1514898559329295,34,-33,4,-18,-7,-2,2,11
1514898559330785,-18,-9,-50,-12,1,2,-10,6
1514898559330785,6,-21,35,19,3,3,58,74
1514898559351799,13,29,-15,-9,1,0,-40,-77
1514898559351799,-50,0,8,11,2,0,-7,-24
1514898559353301,13,1,11,-13,-3,0,-14,7
1514898559353301,-10,49,-60,-17,-6,-8,-20,-40
1514898559365308,26,-14,82,22,4,3,8,5
1514898559365308,3,7,-40,-25,-6,-6,7,-4
1514898559374315,22,-11,20,13,-2,-2,-7,-29
1514898559374315,-61,-27,20,4,0,1,13,6
1514898559389325,-22,10,6,-6,-6,-2,0,2
1514898559389325,-4,-30,-4,-5,0,-1,-4,-17
1514898559390827,8,-4,-14,12,0,3,28,51
1514898559390827,2,73,34,-3,1,2,-14,-10
1514898559411841,23,-14,-17,-10,-4,0,40,110
1514898559411841,-31,-20,-18,6,3,-3,-15,-41
1514898559414355,5,4,-16,19,5,3,6,-19
1514898559414355,11,-7,-10,-21,-7,-4,-15,-10
1514898559433864,-8,12,13,0,-2,1,27,43
1514898559433864,43,17,-11,5,0,-1,-22,-56
1514898559440863,-70,-35,15,7,1,0,10,-1
1514898559440863,6,-3,-14,1,-2,-4,-3,-9
1514898559449368,-1,27,30,8,4,4,4,-15
1514898559449368,3,-12,10,22,1,-3,21,24
1514898559450893,19,-19,-45,-28,-9,-3,4,-5
1514898559450893,9,0,19,10,9,8,-29,-34
1514898559471887,-29,-8,-30,-15,-6,-8,2,-16
1514898559471887,-27,11,3,-1,-4,-3,4,16
1514898559473384,28,45,64,32,7,1,-15,-17
1514898559473384,-1,-85,-66,-22,-4,-5,-11,2
1514898559485396,-24,5,12,8,0,-3,-9,-43
1514898559485396,-25,5,15,7,5,6,1,36
1514898559503406,-3,0,-11,-21,-8,-8,-3,-54
1514898559503406,15,-14,31,18,-1,1,4,22
1514898559509911,30,19,31,7,5,5,3,-38
1514898559509911,0,-24,-85,-22,-6,-7,0,3
1514898559510914,-23,-14,18,-2,0,2,-12,10
1514898559510914,-4,29,27,16,2,3,15,17
1514898559531936,-3,-16,-10,5,-1,-2,-15,-5
1514898559531936,23,75,46,-4,0,5,10,29
1514898559533431,0,-55,-17,-1,-2,-5,2,27
1514898559533431,23,32,-8,2,-1,-7,-38,-41
1514898559545445,-22,-31,7,1,-2,-1,0,15
1514898559545445,14,13,16,-1,1,-3,0,-3
1514898559554452,11,-26,-49,-17,-6,-4,-6,-5
1514898559554452,-1,71,73,26,4,6,28,5
1514898559569452,8,-22,-48,-50,-12,-9,-7,19
1514898559569452,7,-16,-29,-6,-3,-1,1,33
1514898559570953,-10,42,54,10,2,0,-10,-36
1514898559570953,-6,3,-19,4,4,5,33,55
1514898559591968,39,-11,-21,4,-3,-3,-12,-17
1514898559591968,-62,10,30,5,1,-2,-9,-2
1514898559593469,12,35,-11,0,-2,1,8,15
1514898559593469,-41,-46,-6,-13,-6,-5,-12,-29
1514898559605478,15,-10,-22,-1,1,2,-12,15
1514898559605478,30,20,14,3,-1,-1,18,22
1514898559615486,5,-1,5,6,1,-2,-20,-40
1514898559615486,-15,-44,-8,-11,-5,-6,-6,17
1514898559629495,-7,36,10,14,5,6,16,-25
1514898559629495,5,-23,-72,-25,-9,-3,0,5
1514898559632497,12,11,46,10,0,-5,-9,33
1514898559632497,-1,-16,-32,-4,-2,-1,-23,-1
1514898559651528,-13,-15,-7,-6,1,-1,14,-11
1514898559651528,3,-15,27,-1,2,6,15,-7
1514898559653529,-15,13,28,-2,-5,-9,-14,-25
1514898559653529,2,-32,-59,-4,-1,-1,0,-12
1514898559665520,-12,14,12,7,-1,0,-6,18
1514898559665520,8,11,16,27,8,3,-10,-3
1514898559674528,59,-56,-39,-37,-11,-2,-12,14
1514898559674528,-25,21,33,17,2,-2,15,11
1514898559690037,-20,1,-8,-15,-4,-4,-17,-69
1514898559690037,-17,4,-4,-2,0,0,20,-2
1514898559691541,32,45,35,15,3,2,0,-8
1514898559691541,6,-11,-36,-12,-9,-6,-1,-10
1514898559711565,4,36,-5,1,-4,-2,-6,69
1514898559711565,-19,-75,-25,-17,-7,-11,-15,-43
1514898559713554,-12,-26,-61,-5,-3,0,7,-12
1514898559713554,7,22,26,-15,-3,-2,6,5
1514898559725562,31,17,-2,4,1,0,19,38
1514898559725562,18,44,38,3,0,-2,-11,46
1514898559734579,-33,-47,-40,-4,-5,-4,16,-75
1514898559734579,19,-12,-4,-3,-3,-1,0,26
1514898559749089,2,0,23,15,6,3,-12,-19
1514898559749089,7,13,-5,2,1,-2,-43,19
1514898559750590,4,30,17,15,9,3,13,18
1514898559750590,28,-46,1,-7,-6,-2,-13,0
1514898559771605,-27,-54,-13,-14,-10,-9,11,-1
1514898559771605,-8,-22,-24,-4,1,-1,-12,-34
1514898559773609,1,25,14,-13,-7,-4,-6,40
1514898559773609,18,33,41,27,6,3,-2,-35
1514898559794122,-17,-26,-17,-15,-5,1,23,23
1514898559794122,-8,-23,-8,-2,-3,-4,-22,-49
1514898559795613,17,29,40,11,7,6,1,13
1514898559795613,-27,3,4,6,0,0,14,-18
1514898559809123,-6,-22,-29,-13,-5,-5,-8,-3
1514898559809123,-10,-46,3,-7,-4,-1,9,58
1514898559810623,4,10,-13,6,0,-2,2,-88
1514898559810623,-27,20,11,6,4,2,-3,29
1514898559831638,-9,-2,4,-4,3,2,-2,-11
1514898559831638,7,32,18,4,-2,-2,5,8
1514898559833139,-8,-18,-52,-12,-8,-8,-17,25
1514898559833139,-1,-38,-55,-9,-1,-1,5,1
1514898559854154,4,15,31,12,-2,-5,-33,-42
1514898559854154,14,30,18,-21,-3,1,12,-26
1514898559855655,-57,-17,6,5,2,1,0,32
1514898559855655,14,20,-16,1,-1,2,1,27
1514898559869665,-8,-3,37,14,6,-2,-3,-15
1514898559869665,-13,13,-11,-5,-1,2,-3,-5
1514898559871166,7,-10,-9,5,3,2,-1,-38
1514898559871166,-6,-2,9,-14,-8,-4,-19,-1
1514898559892191,15,44,-18,-4,2,3,2,4
1514898559892191,-11,32,23,24,5,4,-11,2
1514898559893682,-9,-58,-5,-15,0,2,10,-16
1514898559893682,-9,-13,25,5,-1,-4,3,-11
1514898559915207,14,-34,-18,-3,-3,0,1,-2
1514898559915207,-14,15,-15,-11,-4,-1,18,5
1514898559918699,13,8,17,16,2,0,0,105
1514898559918699,-13,25,15,-28,-5,-2,-14,-23
1514898559928707,-11,-45,-10,1,1,-2,-10,-5
1514898559928707,31,23,25,6,-3,-1,31,46
1514898559944225,-17,-6,20,6,0,-1,0,-38
1514898559944225,14,9,-22,4,2,4,1,39
1514898559951735,17,-83,-23,-9,-4,-4,2,-33
1514898559951735,7,-19,0,9,3,0,-15,-13
1514898559953233,-33,9,-16,-22,-4,-1,-7,6
1514898559953233,-5,40,36,10,3,0,24,-28
1514898559974260,6,6,-11,-15,-9,-7,-12,16
1514898559974260,15,39,77,11,1,1,4,7
1514898559980252,-2,-58,-91,-30,-9,-8,-14,-12
1514898559980252,16,8,-9,-3,-5,-4,15,9
1514898559988748,-26,55,27,19,4,5,12,29
1514898559988748,16,-29,6,-10,-6,-7,1,-39
1514898559995263,-10,30,37,11,2,3,5,14
1514898559995263,8,-17,-38,-5,-3,-4,-1,31
1514898560011775,11,41,17,5,1,-1,-8,-40
1514898560011775,-16,-1,-7,-12,-3,-3,-13,-31
1514898560015267,-3,-12,-25,3,1,3,8,21
1514898560015267,4,-37,-7,-8,-6,-2,-20,-22
1514898560034281,10,9,24,6,4,3,32,45
1514898560034281,-10,12,-3,1,0,0,-12,-37
1514898560035781,12,-12,-22,-4,-5,-5,-21,-18
1514898560035781,13,10,14,6,4,1,-1,20
1514898560048300,-8,-26,25,8,1,0,-9,-31
1514898560048300,-46,-64,-25,-11,-4,2,16,19
1514898560055305,30,23,4,5,-1,-3,12,43
1514898560055305,-18,12,-8,-2,-1,0,-26,-35
1514898560071819,23,8,14,11,4,2,2,15
1514898560071819,-3,-14,-24,-15,-4,-1,4,-47
1514898560073323,-1,19,47,14,1,3,8,9
1514898560073323,-7,-43,-23,-25,-1,-2,-3,-19
1514898560095334,4,38,-9,-4,-5,0,14,14
1514898560095334,-13,-18,-19,9,4,-1,-39,-62
1514898560096826,0,33,36,9,2,2,19,16
1514898560096826,-1,-1,-27,-10,-8,-4,4,-15
1514898560108834,-13,-6,-25,-6,2,1,-13,36
1514898560108834,24,15,40,16,1,3,6,-6
1514898560116839,-6,-16,-48,-17,-2,-4,-2,27
1514898560116839,10,12,20,7,2,0,-13,-30
1514898560130861,-32,-43,14,9,0,-5,-14,-1
1514898560130861,18,15,-43,-14,-4,-3,-5,21
1514898560145376,-5,-23,19,15,4,5,-8,-31
1514898560145376,17,21,-10,-2,-2,-1,10,15
1514898560153877,-13,21,-6,-8,-2,0,-2,7
1514898560153877,-10,-31,-7,7,-1,-1,31,67
1514898560155877,13,45,58,4,1,1,-18,-91
1514898560155877,-17,-33,-45,-15,-6,-10,-10,-20
1514898560168385,-5,-34,-50,-19,-5,0,17,22
1514898560168385,5,21,0,3,1,-2,-8,-7
1514898560175393,-6,-5,-3,-6,-1,-2,17,17
1514898560175393,8,20,51,-3,0,4,23,17
1514898560191900,2,-12,-5,5,-2,3,16,7
1514898560191900,-7,-5,-52,-12,-3,-3,-15,1
1514898560197906,14,9,51,13,0,-6,2,30
1514898560197906,-4,-7,-72,-33,-11,-5,-5,-9
1514898560214918,-9,-18,0,2,-1,-1,-11,26
1514898560214918,15,9,5,5,-3,-5,18,-29
1514898560218411,1,17,31,4,0,1,0,-15
1514898560218411,-2,-18,-2,4,-1,0,12,43
1514898560228418,23,49,14,-1,-1,-1,30,-67
1514898560228418,-10,-19,11,6,-2,-4,10,9
1514898560235924,-12,-8,-33,1,-1,-2,-14,-20
1514898560235924,-2,20,-8,-23,-1,1,-6,-15
1514898560251962,-28,-25,-18,-13,-8,-2,5,15
1514898560251962,22,30,29,21,9,6,14,58
1514898560253448,-1,-67,5,-12,-10,-9,-17,-81
1514898560253448,-6,24,2,20,7,4,1,35
1514898560274451,-6,-19,-47,0,0,-2,-25,-26
1514898560274451,-6,-5,-6,-8,-2,0,-3,15
1514898560275952,9,18,-33,5,-3,-5,-20,27
1514898560275952,-13,22,73,6,0,4,3,-52
1514898560287970,-7,-53,-21,-20,-7,-9,-18,-9
1514898560287970,2,-30,3,-1,1,-3,-17,-18
1514898560296966,-3,42,-8,-14,-3,6,24,52
1514898560296966,2,-56,-31,13,1,0,12,-11
1514898560312481,3,45,35,14,5,-1,-25,-26
1514898560312481,8,5,19,-7,-7,-5,8,-11
1514898560313979,-32,-4,-46,-26,-6,-2,-3,16
1514898560313979,7,-26,35,24,6,1,5,40
1514898560334505,7,-9,-9,0,0,-2,-8,2
1514898560334505,3,23,4,-2,1,0,-11,-14
1514898560343499,-23,-2,2,-3,0,0,11,35
1514898560343499,-5,8,14,1,-6,-8,-13,-8
1514898560348003,-20,-3,1,1,-7,-3,21,34
1514898560348003,-13,-9,18,-1,2,-2,-36,-70
1514898560357017,28,3,-22,-4,-6,-3,-3,32
1514898560357017,-22,-2,-11,10,1,-1,-3,-20
1514898560372029,29,46,48,1,2,4,25,-10
1514898560372029,5,11,-11,11,1,-3,-23,-38
1514898560373520,-18,-37,-29,-17,-3,1,20,31
1514898560373520,10,10,16,12,3,-2,-35,-48
1514898560394045,8,-7,-21,0,-2,2,-7,56
1514898560394045,-22,38,-4,-8,-6,-7,15,14
1514898560396038,2,-33,15,25,6,1,0,24
1514898560396038,8,11,7,-17,-1,5,25,14
1514898560408056,-8,-28,-1,0,-2,-5,-18,-22
1514898560408056,30,8,-16,4,0,2,12,59
1514898560423055,-31,6,34,-8,-1,-1,-26,-37
1514898560423055,-4,0,-10,15,1,0,37,91
1514898560431571,49,-8,-23,-11,-3,-2,-12,-34
1514898560431571,-13,-30,-35,-19,-1,1,7,19
1514898560434073,-1,-2,-14,10,-3,-8,-33,-60
1514898560434073,17,8,6,-10,2,4,8,31
1514898560454089,-5,46,31,1,0,0,10,-66
1514898560454089,-18,-47,4,11,-1,-3,2,61
1514898560455591,26,35,20,-6,-5,-4,17,-41
1514898560455591,-2,4,-37,-14,-5,-1,-6,-3
1514898560468087,-13,-47,-32,9,0,0,-18,-38
1514898560468087,2,-1,6,-1,-2,0,23,37
1514898560476595,-2,6,-9,-16,-5,-1,0,37
1514898560476595,8,33,2,2,-4,-7,-26,-31
1514898560491615,-16,-2,-14,6,5,0,-8,68
1514898560491615,-20,-21,-2,-13,-7,-6,-14,-64
1514898560493105,18,11,41,14,2,1,16,23
1514898560493105,-11,-4,24,9,2,1,-9,-53
1514898560514120,-5,7,1,-4,-1,-2,19,18
1514898560514120,-7,-51,-71,2,4,6,-6,0
1514898560515631,-4,-9,15,-13,-2,6,23,76
1514898560515631,-31,-22,28,2,0,-4,-17,-81
1514898560527639,34,9,-43,-13,-7,-5,-22,27
1514898560527639,-14,10,34,-5,0,2,27,28
1514898560538647,29,34,18,21,6,-2,-23,-86
1514898560538647,14,0,-24,-24,-9,-6,6,-42
1514898560551656,-18,-2,25,4,2,-2,4,38
1514898560551656,16,9,-21,-5,-4,-3,-28,20
1514898560558152,19,-30,-24,-4,-2,3,37,61
1514898560558152,15,66,56,11,0,-1,10,35
1514898560574162,-9,-35,-26,-5,2,0,-9,-43
1514898560574162,-10,7,6,-11,-6,-5,-3,-20
1514898560576164,22,20,-35,3,4,8,45,44
1514898560576164,-34,-50,0,7,-6,-3,-20,-56
1514898560587682,6,42,73,26,13,5,0,9
1514898560587682,-5,14,-15,-42,-7,-3,-19,-9
1514898560596678,-3,13,23,7,2,3,7,-9
1514898560596678,17,-80,-76,-13,-9,-2,2,55
1514898560611699,-3,0,43,29,9,3,-5,-22
1514898560611699,15,22,-25,-7,-4,0,-8,-25
1514898560613190,-21,3,-14,2,4,-1,2,-23
1514898560613190,18,22,-10,-39,3,0,-20,16
1514898560634204,-4,-25,-39,-21,-10,-3,4,-7
1514898560634204,39,21,16,5,0,-4,-17,-23
1514898560635705,-25,-33,-35,1,-9,-8,-25,-84
1514898560635705,-4,22,45,33,3,2,4,39
1514898560647714,9,59,-36,-21,-6,-6,-23,-79
1514898560647714,-5,-25,12,11,-2,2,23,72
1514898560656721,4,0,29,12,2,-2,-26,-2
1514898560656721,35,-6,-11,-3,1,-3,-1,-5
1514898560671731,-1,-17,5,-9,-3,0,44,99
1514898560671731,-7,-34,3,10,-2,-11,-34,-35
1514898560685241,-58,-22,-16,-9,-9,-4,-20,-44
1514898560685241,18,-7,-16,-18,0,1,14,1
1514898560693259,-20,-18,10,10,-2,0,-13,-10
1514898560693259,-5,-1,-11,-8,1,2,7,19
1514898560701753,2,14,25,1,5,2,16,40
1514898560701753,5,-8,-18,12,-4,1,-4,41
1514898560716773,-12,-3,-26,-28,-7,-8,4,-25
1514898560716773,8,2,19,27,11,7,11,23
1514898560718274,-5,-16,-13,-6,-6,-7,-1,6
1514898560718274,-14,32,7,-9,1,5,26,55
1514898560732774,-21,-4,32,6,0,2,0,-39
1514898560732774,0,-14,36,1,6,5,28,47
1514898560734276,-8,-5,-34,1,0,-1,-32,86
1514898560734276,-11,-17,-2,-5,-7,-9,-19,-110
1514898560754802,-4,1,-9,-8,-5,-11,-27,-30
1514898560754802,0,24,19,10,2,7,17,13
1514898560756292,42,25,-20,-3,0,8,26,-23
1514898560756292,-25,6,2,-12,1,2,30,82
1514898560784320,19,15,23,-6,-4,-4,-15,47
1514898560784320,-1,-16,-8,2,-4,-2,-9,23
1514898560785821,14,10,17,-7,4,0,18,0
1514898560785821,-36,-9,-19,6,2,3,-23,-43
1514898560791827,17,25,15,3,-5,0,45,33
1514898560791827,-3,34,-34,1,-1,-7,-49,-36
1514898560793327,-16,-10,-17,-13,-5,-8,-29,-114
1514898560793327,-19,-21,28,30,6,0,-21,-25
1514898560814833,-9,-48,-11,-16,-7,1,13,21
1514898560814833,-18,6,18,6,2,0,-13,1
1514898560817334,-2,-4,-26,-16,-6,-8,22,-60
1514898560817334,-2,-5,14,-3,-4,-6,-25,19
1514898560836848,28,11,-23,14,4,0,-1,0
1514898560836848,-11,25,39,7,2,-3,-13,-55
1514898560840350,-7,-23,31,5,0,1,10,52
1514898560840350,-5,34,-31,-7,-5,-2,10,14
1514898560850870,3,1,-55,-9,-3,-2,-3,-25
1514898560850870,29,-1,-1,-17,-12,-4,51,-9
1514898560858365,-27,-26,21,13,5,2,-48,15
1514898560858365,3,-22,-10,6,-6,-4,14,-49
1514898560874377,-7,2,9,-14,-3,-2,-37,-53
1514898560874377,-20,-34,20,7,0,3,25,59
1514898560875878,19,-23,-61,-15,-3,-3,-6,-13
1514898560875878,7,-42,-15,4,-2,-1,-10,-10
1514898560896400,-11,14,16,7,2,3,30,25
1514898560896400,-9,-29,-13,-7,0,-3,1,5
1514898560898401,-1,34,37,8,0,4,7,-8
1514898560898401,-9,-5,-12,-18,-3,-2,-15,-25
1514898560910910,15,-25,-1,24,0,-2,27,21
1514898560910910,3,16,-4,-20,0,-2,3,-47
1514898560918914,-1,35,36,2,1,6,5,57
1514898560918914,7,-33,-58,-12,-5,-7,18,-26
1514898560933917,-21,27,32,7,2,3,-19,-7
1514898560933917,9,-54,-41,4,-4,-2,-5,-2
1514898560935918,12,53,45,9,-1,1,5,5
1514898560935918,-2,5,-19,-7,-2,-3,4,25
1514898560956445,6,-1,35,3,4,2,-6,11
1514898560956445,5,21,-44,3,2,8,38,20
1514898560958456,29,-2,-4,-16,-1,-6,-59,-36
1514898560958456,3,9,4,1,0,-4,-32,38
1514898560970952,-15,-5,-9,-6,1,5,7,-24
1514898560970952,-7,-37,10,1,-2,-1,18,66
1514898560977957,-8,-12,-15,-9,-4,-6,-32,-71
1514898560977957,2,-1,5,13,2,-3,-15,39
1514898561001474,22,-8,15,-8,-2,-4,-10,-10
1514898561001474,16,35,5,12,4,6,10,66
1514898561003475,-30,-23,-22,-2,-8,-7,48,23
1514898561003475,-1,17,11,0,6,4,-2,-16
1514898561016475,41,0,35,5,1,2,-10,20
1514898561016475,-30,12,8,4,1,-4,-35,-58
1514898561018489,-11,-4,-46,-20,-3,0,5,24
1514898561018489,15,22,29,11,4,5,31,56
1514898561031496,-7,-13,-5,5,3,3,15,-44
1514898561031496,-15,-11,17,21,-6,-8,3,-39
1514898561038505,0,-14,-10,-27,3,3,-11,0
1514898561038505,-12,-36,5,-7,-4,6,9,32
1514898561061508,11,35,5,11,4,5,24,19
1514898561061508,13,5,-30,-36,-6,-4,-22,-14
1514898561063508,-24,-18,25,24,1,1,17,-63
1514898561063508,-4,22,-12,3,-3,-1,1,36
1514898561077529,-7,9,5,-13,0,1,-11,28
1514898561077529,13,-1,-1,8,-2,-2,26,7
1514898561079029,-4,-7,19,-2,-6,-5,-20,-41
1514898561079029,5,-7,2,2,0,2,0,4
1514898561091535,-26,-19,-34,-3,-6,-12,-32,-31
1514898561091535,11,16,12,-13,-7,-9,-29,-34
1514898561098038,12,-9,-12,1,1,7,35,113
1514898561098038,-17,-6,2,-6,-3,-9,-22,-126
1514898561115054,2,-3,-35,-15,-5,-5,1,49
1514898561115054,6,27,25,-1,0,1,-4,15
1514898561116562,14,19,3,19,3,1,10,48
1514898561116562,-15,2,22,-15,-9,-5,-6,-79
1514898561137570,-15,-29,-74,0,-1,-2,-13,4
1514898561137570,13,38,18,-19,1,-2,-4,-35
1514898561141064,-4,-16,-8,-1,-9,-7,-12,0
1514898561141064,20,22,-5,-4,-4,-1,20,15
1514898561151073,-16,-19,10,4,-1,-3,-29,73
1514898561151073,-1,28,8,17,4,4,-1,65
1514898561158089,-6,6,1,-9,0,-4,-10,-34
1514898561158089,12,26,-39,-7,-2,0,22,21
1514898561174097,3,1,28,-3,-6,-11,-51,-84
1514898561174097,1,-24,-11,12,3,4,-13,74
1514898561175588,-21,-27,-1,-11,3,6,-7,-36
1514898561175588,4,18,9,17,4,-7,-14,-22
1514898561196602,-13,16,14,-18,-2,5,52,36
1514898561196602,-22,-15,-23,-3,0,-7,-41,-128
1514898561198103,27,9,15,10,2,3,2,97
1514898561198103,-20,21,25,9,-2,-4,10,-84
1514898561210112,2,-17,-2,1,4,4,-4,-3
1514898561210112,-11,17,20,-2,-2,-1,12,12
1514898561219118,15,12,-43,-16,-6,-4,26,17
1514898561219118,7,-25,2,0,-2,1,-1,55
1514898561241634,-9,6,30,22,6,1,5,11
1514898561241634,31,-5,25,-5,-4,-6,-20,-94
1514898561243635,-42,-12,-31,-7,-3,-5,-2,-52
1514898561243635,-15,-17,-38,-20,-6,-4,-6,71
1514898561256662,9,-1,-4,10,3,3,21,18
1514898561256662,-8,-28,-18,-8,-5,-1,17,-7
1514898561258647,-4,0,33,5,1,1,-8,6
1514898561258647,8,-7,3,4,1,2,8,19
1514898561270154,6,9,-5,-4,-6,-3,19,-14
1514898561270154,-22,-7,-17,-3,5,5,-4,21
1514898561279160,15,14,-6,9,-4,-9,-35,-10
1514898561279160,14,30,10,-7,-3,2,18,-1
1514898561301691,0,-7,3,-5,-3,-2,-6,6
1514898561301691,5,11,-13,6,1,5,67,43
1514898561303190,-8,11,10,-9,-6,-7,-22,-21
1514898561303190,-14,-25,-38,-17,-2,1,9,43
1514898561316698,-1,16,-3,9,0,3,0,-53
1514898561316698,-28,-12,-2,1,0,-1,7,-19
1514898561318198,5,10,7,15,5,1,9,23
1514898561318198,-10,-10,4,11,1,-1,-1,18
1514898561330706,-14,-26,1,-17,-7,-7,-6,7
1514898561330706,11,-21,-9,-1,1,5,5,42
1514898561340204,7,4,-3,9,3,0,8,-14
1514898561340204,12,-16,4,1,3,0,-21,-17
1514898561354223,1,-24,-8,-6,-5,-4,13,21
1514898561354223,13,9,-5,-13,-8,-5,2,86
1514898561355725,5,26,0,-2,-4,-3,-29,-29
1514898561355725,-9,-16,-5,-6,0,4,-13,-15
1514898561376731,-3,14,-4,-2,-3,-4,2,1
1514898561376731,-29,-2,-11,-4,-1,-3,-2,0
1514898561378240,13,4,25,7,1,1,11,25
1514898561378240,-5,27,47,23,5,5,32,35
1514898561390239,-10,-57,-74,-32,-13,-9,-25,36
1514898561390239,23,6,21,6,6,8,-16,-13
1514898561399256,-17,-14,-18,-10,-4,1,29,104
1514898561399256,17,29,47,15,1,-3,-12,-47
1514898561414267,11,28,10,-9,6,5,11,49
1514898561414267,-57,-40,-42,-10,-6,-6,-7,-39
1514898561417773,-1,-76,-33,-2,0,3,5,-14
1514898561417773,2,23,16,3,0,0,-2,22
1514898561437773,17,12,-5,7,4,5,21,4
1514898561437773,19,21,11,-4,-5,-15,-21,-49
1514898561440274,-9,19,-7,-7,-1,2,-7,-5
1514898561440274,-9,-3,-6,5,0,0,-17,-47
1514898561450281,0,-16,15,-15,-3,1,3,25
1514898561450281,4,1,14,20,4,1,-8,-15
1514898561459289,27,2,-22,-21,-8,-5,13,58
1514898561459289,-11,13,-13,-7,-2,-2,-28,-55
1514898561481814,8,-8,22,11,1,0,2,-9
1514898561481814,-11,-3,-4,-7,-7,-7,-13,4
1514898561484315,15,19,3,10,4,4,4,-45
1514898561484315,-22,-21,3,-1,-2,-3,24,9
1514898561496824,-11,39,26,8,-4,-2,-16,-38
1514898561496824,17,-19,-46,-13,-2,-1,2,16
1514898561498325,-27,-14,38,11,4,-2,-10,-66
1514898561498325,20,-5,-14,-17,-3,2,2,16
1514898561510824,-2,29,0,15,2,1,-12,-47
1514898561510824,-2,-29,15,2,-6,-10,-25,20
1514898561519342,12,18,-16,7,2,1,-11,13
1514898561519342,5,7,5,-12,2,2,0,11
1514898561534350,-35,-5,-20,-35,-10,-3,2,-17
1514898561534350,9,30,4,0,-1,0,-11,37
1514898561537853,-6,-14,-9,-8,-7,-6,-23,-61
1514898561537853,-7,7,1,8,0,-9,-49,-33
1514898561556359,-4,-18,-22,6,-3,-8,-19,-59
1514898561556359,3,3,11,-3,3,2,7,32
1514898561558359,-14,2,7,-8,-7,-5,-3,-20
1514898561558359,11,-2,-15,4,1,3,0,17
1514898561578883,10,39,15,3,-1,-3,-2,5
1514898561578883,-5,-10,-16,2,0,1,5,-20
1514898561580874,3,8,10,-4,1,0,8,18
1514898561580874,-3,-7,0,-3,-2,-2,8,13
1514898561594893,12,14,-3,14,5,0,3,16
1514898561594893,7,-16,17,5,0,3,7,-26
1514898561596396,-4,-2,-4,-9,1,1,8,13
1514898561596396,-4,5,2,-4,-4,-2,5,10
1514898561625406,-7,-10,3,21,5,4,4,0
1514898561625406,-11,1,-6,-23,-3,-1,-2,-23
1514898561627908,-9,10,3,13,2,3,2,-2
1514898561627908,4,-14,-9,-8,-2,1,18,22
1514898561630409,1,-20,8,-9,-4,-7,-35,-28
1514898561630409,14,1,-7,3,1,1,8,-6
1514898561640417,9,-24,2,-6,2,0,-2,10
1514898561640417,2,30,19,16,1,0,-1,1
1514898561653928,4,13,-3,1,0,1,3,10
1514898561653928,4,32,-2,4,-1,-1,9,-7
1514898561655927,-3,-6,9,2,1,1,-2,-2
1514898561655927,3,-23,-15,0,-2,-4,-7,-4
1514898561676441,0,6,-11,-11,-3,-3,3,18
1514898561676441,-5,-10,-2,-1,-2,0,-6,-33
1514898561678442,0,8,0,9,-1,0,0,5
1514898561678442,-4,-8,-4,-5,-3,0,7,3
1514898561698958,4,-13,43,19,10,8,16,27
1514898561698958,20,53,-38,-20,-9,-6,9,-8
1514898561700460,-5,-26,9,0,-2,-5,4,4
1514898561700460,-15,-16,-28,-10,-2,-3,-26,-31
1514898561713968,-1,0,7,1,-1,-4,-5,-8
1514898561713968,-3,-12,25,22,5,2,14,23
1514898561715469,14,-1,-38,-11,-4,1,1,-6
1514898561715469,-9,46,17,4,2,1,13,55
1514898561738000,-13,-51,-16,8,-3,-1,2,-25
1514898561738000,-6,0,30,0,1,1,-7,-31
1514898561743489,9,18,-27,-19,-5,-1,1,22
1514898561743489,-15,-35,-24,-9,-5,-4,7,53
1514898561758999,-17,42,16,14,7,4,5,-18
1514898561758999,50,9,27,2,1,6,0,29
1514898561761001,2,10,-16,1,0,-5,-20,-22
1514898561761001,4,-24,6,6,-1,-3,-2,-3
1514898561774512,16,-28,5,-8,-3,-2,6,44
1514898561774512,-16,6,-9,-22,-6,-9,-77,-42
1514898561776524,-22,-52,-13,5,5,3,-3,59
1514898561776524,-6,-32,-4,1,-2,-4,0,-64
1514898561797036,4,14,0,-7,1,-1,-16,-21
1514898561797036,-16,-13,27,14,4,4,12,-9
1514898561804032,-2,2,-12,1,-8,-3,16,42
1514898561804032,20,0,5,-5,0,0,-38,-46
1514898561818542,-3,-9,14,5,0,2,23,33
1514898561818542,-16,-11,-13,7,-5,-7,7,36
1514898561819042,-5,11,-43,1,-2,-2,18,-87
1514898561819042,-2,9,18,-19,-2,-1,9,24
1514898561834565,39,44,9,-8,-3,-2,-6,-1
1514898561834565,11,-102,-25,-4,1,3,26,18
1514898561841069,-33,-13,24,4,-2,-1,4,10
1514898561841069,10,24,-4,2,0,4,7,43
1514898561856068,19,5,19,7,2,0,28,9
1514898561856068,0,10,1,15,2,-3,-30,-38
1514898561856568,24,36,20,-3,-2,1,-12,17
1514898561856568,-17,-22,-35,-18,-5,-2,15,-51
1514898561878584,-10,-3,-2,2,-2,-6,-16,-8
1514898561878584,1,26,-4,-3,0,-1,24,13
1514898561879085,-7,-6,11,-6,0,2,4,10
1514898561879085,30,57,-9,0,-2,-1,-6,100
1514898561901610,-39,-81,-43,-16,-8,-6,-24,-58
1514898561901610,-17,18,30,9,-1,-5,18,54
1514898561902611,-10,12,-4,-6,1,-2,-43,-82
1514898561902611,-3,-9,-11,6,-1,4,-8,19
1514898561916120,6,-23,6,4,-1,-6,-13,29
1514898561916120,0,-7,-55,-31,-6,2,24,17
1514898561916612,3,2,24,12,2,-6,-52,-32
1514898561916612,1,10,10,6,-2,-3,-6,-10
1514898561938627,16,48,14,6,-4,0,11,28
1514898561938627,-15,11,-17,0,2,-2,-31,-103
1514898561939628,50,-28,80,5,3,2,17,46
1514898561939628,-13,-27,-57,-1,-4,-8,10,-31
1514898561962144,-12,33,-24,-19,0,2,-24,21
1514898561962144,-32,-56,12,3,0,0,13,-59
1514898561963143,-39,5,21,14,-2,0,21,3
1514898561963143,53,33,37,3,-2,-8,-37,-12
1514898561976158,-15,-9,-31,-1,-4,0,-1,-7
1514898561976158,7,5,18,-8,-1,0,12,21
1514898561976653,21,11,-17,-6,1,6,46,84
1514898561976653,-36,-4,18,6,1,0,-2,-31
1514898561998670,-5,-26,-14,-5,-6,-8,-36,-86
1514898561998670,15,8,-21,-11,-3,1,-13,-1
1514898561999169,-9,-5,7,4,2,3,27,17
1514898561999169,-12,46,0,3,0,-5,-18,-3
1514898562012679,-9,-33,9,6,4,4,7,-20
1514898562012679,-9,-3,-34,-19,-6,-7,12,2
1514898562021207,-12,-6,2,-8,-1,2,-20,-61
1514898562021207,7,-1,27,12,2,2,-9,-43
1514898562035707,-28,16,13,-2,1,2,19,68
1514898562035707,16,-26,0,-7,-3,-2,-14,-27
1514898562036705,-9,-14,-21,2,0,-3,-11,-59
1514898562036705,21,19,7,0,1,5,33,67
1514898562059214,-14,-12,-27,-6,0,0,5,-32
1514898562059214,-6,18,19,15,-4,-5,3,44
1514898562060712,-15,-20,-28,-19,-3,-4,-37,-56
1514898562060712,-20,-14,10,-2,4,5,33,-1
1514898562073722,-9,26,2,5,0,-2,2,0
1514898562073722,24,-12,-12,-16,-4,-3,-5,22
1514898562074222,17,4,2,15,2,0,5,12
1514898562074222,-18,-7,4,-16,-2,-2,-3,-10
1514898562095747,24,-7,9,12,3,0,4,14
1514898562095747,2,16,-21,-20,-5,-2,-9,10
1514898562096740,-10,4,-4,-4,-3,-2,3,26
1514898562096740,-4,-27,-7,-1,-2,0,3,-8
1514898562118263,2,5,-8,-14,0,2,6,11
1514898562118263,-4,1,21,21,6,3,-5,2
1514898562119263,14,10,0,-1,-4,-4,0,10
1514898562119263,3,-10,-11,-4,-4,-4,-4,-9
1514898562132773,-9,-5,-3,2,-2,-2,-2,0
1514898562132773,-8,7,10,9,3,2,-5,4
1514898562141282,3,2,-12,-12,-5,-3,3,17
1514898562141282,2,-18,-1,6,2,0,-3,-9
1514898562156292,8,-3,-6,-9,-4,-2,1,3
1514898562156292,-5,2,-1,1,-1,1,5,4
1514898562163290,4,7,-2,1,0,-3,0,12
1514898562163290,-6,-14,-4,-2,-1,-3,-5,-2
1514898562178816,2,0,0,-6,0,-2,-1,-5
1514898562178816,-10,6,3,5,0,0,0,3
1514898562179296,-5,3,5,3,-1,0,-1,4
1514898562179296,-3,-13,-6,-3,-1,-3,-2,-4
1514898562201812,5,-1,-6,-6,-2,-3,-1,4
1514898562201812,-3,-1,7,8,1,1,-3,-3
1514898562202323,0,2,-4,-4,0,-1,1,4
1514898562202323,-1,-6,-5,-3,-1,1,3,-4
1514898562219835,7,2,0,-2,-1,-2,-1,2
1514898562219835,-7,0,10,14,1,2,-1,3
1514898562220335,-3,-3,-9,-14,-4,-2,-1,2
1514898562220335,-5,-4,-3,-2,-1,-1,-1,2
1514898562239349,-1,-2,-3,2,0,-2,0,-4
1514898562239349,-4,0,1,-3,-3,-2,-2,-1
1514898562240340,1,2,2,10,9,3,2,3
1514898562240340,2,-4,-3,-1,-2,-1,-2,-2
1514898562254359,1,-1,-4,-5,-3,-2,-1,0
1514898562254359,-1,1,-1,-1,-2,-2,-2,0
1514898562260855,-1,3,0,0,-5,-2,0,-1
1514898562260855,2,12,4,-2,1,2,-2,1
1514898562275864,-3,-1,-2,-4,-2,0,1,-3
1514898562275864,0,-1,-3,-2,-2,-2,-4,4
1514898562276874,-3,2,5,3,-2,-1,-1,1
1514898562276874,0,-7,-6,-8,-3,-1,-1,-4
1514898562298380,5,-4,-5,-6,-3,-1,1,2
1514898562298380,-4,-1,0,-5,-2,0,-2,-1
1514898562299381,0,-2,1,7,-1,-1,-1,0
1514898562299381,-3,-5,4,-3,-2,-1,-1,-1
1514898562312907,0,1,4,5,3,0,0,1
1514898562312907,-2,0,3,12,4,2,-2,-1
1514898562320906,-2,-1,-11,-15,-4,-1,-2,0
1514898562320906,0,-6,-4,-6,-3,-3,-2,-2
1514898562335917,-6,0,1,2,-1,-1,-2,-2
1514898562335917,-1,1,-3,-7,-4,-3,-1,-2
1514898562336917,0,-2,4,9,0,0,0,0
1514898562336917,0,-8,-4,2,-1,-3,-2,-1
1514898562358425,-2,1,0,-5,-2,-1,-1,0
1514898562358425,3,3,-2,0,1,0,0,-1
1514898562359425,1,2,-3,-2,-1,-2,-3,1
1514898562359425,-7,-7,-3,-2,0,-2,-2,-1
1514898562372944,2,-2,-3,2,0,-2,-1,0
1514898562372944,-2,-7,-2,0,0,-1,0,-1
1514898562380939,1,1,0,-7,-2,0,0,-3
1514898562380939,1,2,2,5,1,2,-1,-1
1514898562395950,-2,0,-1,2,0,0,0,0
1514898562395950,-3,-1,-3,-4,-1,0,1,-1
1514898562397951,-2,-2,-2,-4,-3,-3,-2,0
1514898562397951,-1,-1,-2,2,0,1,-2,-1
1514898562418965,-2,0,-2,0,-3,0,-1,-1
1514898562418965,-2,-1,-1,-6,-1,1,0,2
1514898562419966,-2,-2,-1,-1,0,-2,-1,-2
1514898562419966,-1,0,0,1,1,0,0,-1
1514898562434478,0,-1,-1,-2,-1,-1,-2,1
1514898562434478,0,0,-1,0,0,-3,-1,-1
1514898562448487,-1,-1,-1,0,-1,-1,-2,-2
1514898562448487,0,0,0,1,0,-1,-1,-2
1514898562455992,0,-4,0,-2,-1,0,-1,-2
1514898562455992,-2,-1,-1,-2,-1,1,0,0
1514898562456992,0,0,-1,-1,-1,0,0,0
1514898562456992,0,0,-2,-2,0,-3,-1,-2
1514898562478517,-1,-4,-1,-1,-2,-3,-1,-1
1514898562478517,1,0,-2,-2,-1,-1,-1,0
1514898562479008,-1,-2,-2,-2,-1,-1,-1,0
1514898562479008,-1,-1,0,-1,-1,-1,0,0
1514898562494548,-1,-1,0,-3,0,1,-1,-1
1514898562494548,-1,0,-2,-1,1,-1,-2,-1
1514898562501033,-3,-2,-1,-1,0,-1,0,-3
1514898562501033,-1,0,-1,2,1,-1,0,1
1514898562516044,0,-1,0,-1,1,0,-1,-1
1514898562516044,-1,0,-3,-1,-3,-2,-1,-3
1514898562517045,-1,0,0,-2,-1,0,0,-3
1514898562517045,-1,1,-1,0,0,-1,-2,-1
1514898562539552,-1,-1,0,-1,-2,-1,-1,-1
1514898562539552,-2,-2,-2,-1,-2,0,-1,-1
1514898562541563,-1,-1,-1,-3,-3,-2,0,0
1514898562541563,0,0,0,-1,-2,-1,-3,-1
1514898562552562,-1,-1,-1,-3,0,-1,0,0
1514898562552562,-2,-1,0,-2,1,0,-1,-1
1514898562561066,-1,1,-2,0,0,-2,-3,-1
1514898562561066,-1,-2,-1,-2,-2,-1,-1,-2
1514898562576577,0,-1,-2,0,-2,-2,0,-3
1514898562576577,-2,-1,-2,-2,0,-2,-1,-3
1514898562577078,-2,-1,0,0,0,-2,-1,-1
1514898562577078,-1,-2,-1,0,0,-2,-1,-1
1514898562599093,0,-2,0,-2,-2,-1,-1,1
1514898562599093,1,-1,-2,1,-1,1,0,1
1514898562599597,1,0,0,-3,-2,2,1,-1
1514898562599597,-1,-2,-1,-2,-1,-1,1,-1
1514898562621610,-1,-2,-1,-2,0,-1,-1,-3
1514898562621610,-1,-1,2,0,-2,0,-1,-1
1514898562622610,-1,0,-2,0,0,0,-1,-2
1514898562622610,-1,-1,-1,-2,-1,0,0,-1
1514898562635620,-2,-2,-2,-1,-2,-2,-1,-2
1514898562635620,-3,-2,0,-2,-1,-1,0,-1
1514898562636620,-2,-1,-3,-1,-1,-2,-3,-1
1514898562636620,-2,0,-1,1,-2,-3,-2,-1
1514898562658637,-1,0,0,0,1,1,-2,-1
1514898562658637,-2,-2,-3,-3,0,-1,-2,-3
1514898562659638,-1,-1,-2,-2,-1,-1,0,-1
1514898562659638,0,-2,-3,-1,-1,0,0,-2
1514898562681651,-1,-1,-2,1,-2,-2,-2,-1
1514898562681651,0,-1,-1,0,0,0,-2,0
1514898562682652,-2,-2,0,-1,-1,-2,-1,-2
1514898562682652,-1,-1,-1,-1,0,-1,-2,-1
1514898562696163,0,0,0,-1,-1,-1,-1,-2
1514898562696163,-1,-1,-2,-2,-2,-3,-1,-1
1514898562697167,0,0,-1,0,-4,-1,0,0
1514898562697167,-1,-2,-1,-1,-1,-1,0,-1
1514898562718178,-1,-1,0,-1,-1,-1,-1,-1
1514898562718178,-1,0,-3,-1,-2,-2,-2,-1
1514898562719178,-2,-1,-1,-2,-1,1,-2,-1
1514898562719178,1,-1,0,0,-1,0,-1,-1
1514898562742195,-1,-2,-1,-2,-1,-3,-1,2
1514898562742195,1,0,-2,-1,0,-1,-1,-2
1514898562742696,-1,0,0,-1,-1,0,-1,-1
1514898562742696,0,0,0,-1,-2,0,0,-1
1514898562756205,-1,-1,-3,-1,-2,1,0,-1
1514898562756205,-3,-2,-1,-2,-2,-1,-1,0
1514898562756707,-2,-1,-1,-1,-1,-2,-1,-3
1514898562756707,-2,-1,0,-1,0,-2,-2,0
1514898562778723,-1,-1,0,0,1,0,-1,0
1514898562778723,-2,1,-2,1,-2,0,-2,1
1514898562779223,0,-2,-2,-1,-1,0,-1,-1
1514898562779223,-1,0,-1,0,-2,-1,0,0
1514898562802237,-1,-1,-1,-2,-2,0,0,-1
1514898562802237,0,-2,-2,-1,-1,0,-1,-1
1514898562802737,-1,0,-2,-2,-1,-1,0,0
1514898562802737,0,-3,-2,-2,-1,0,0,0
1514898562816752,0,-3,-1,-2,-2,-3,-1,-2
1514898562816752,0,-2,0,-4,1,-1,-1,-2
1514898562817255,-1,-2,-3,-2,-2,-1,0,-3
1514898562817255,-1,-1,-1,-2,0,0,-1,0
1514898562838763,-1,-2,-2,-2,-1,-2,-2,0
1514898562838763,-1,0,-2,-1,-1,-2,-2,-1
1514898562839263,0,-1,-1,-1,-1,-2,-1,-2
1514898562839263,-1,0,0,0,-1,-2,0,-2
1514898562861782,-2,-2,-2,-1,0,-3,-1,2
1514898562861782,-1,0,-2,-2,-4,-3,-2,0
1514898562862784,-2,-1,-2,-1,-1,1,-1,1
1514898562862784,-1,-1,-1,-2,-2,0,-2,-1
1514898562876295,0,-1,1,1,0,-1,-2,-1
1514898562876295,-2,-3,-1,-1,-1,-1,-2,-1
1514898562876793,-1,-1,0,-1,-2,-1,0,-1
1514898562876793,0,-1,-2,-1,-1,-1,-1,-1
1514898562898307,0,-2,-1,-3,0,-1,-1,0
1514898562898307,1,-2,2,0,-1,-1,-1,-1
1514898562899306,-1,0,-1,0,-2,0,-1,-2
1514898562899306,-2,-1,-1,-1,0,-1,-2,-2
1514898562921321,-1,-1,1,-1,-2,-1,0,0
1514898562921321,1,0,0,0,0,-2,0,-1
1514898562922322,-1,-1,-2,-2,-2,-3,-1,-1
1514898562922322,0,-2,-3,-2,-1,-1,0,0
1514898562935833,-1,-1,-3,-1,-1,-1,-2,0
1514898562935833,-1,-1,-2,0,-1,0,1,-2
1514898562936832,0,0,-1,1,0,-1,-1,-3
1514898562936832,-2,-1,-1,-1,-2,-2,-2,-1
1514898562958848,-1,-4,-1,0,0,1,1,-1
1514898562958848,-2,0,-3,0,-2,1,2,-2
1514898562959348,0,0,-2,-3,0,0,0,-1
1514898562959348,-2,0,0,-1,-1,-1,-2,-1
1514898562981865,0,0,0,-2,-1,-1,-1,-1
1514898562981865,-1,0,-1,0,-1,0,-1,0
1514898562982367,-3,0,-1,0,-1,-3,-2,-2
1514898562982367,-1,-2,-1,0,-2,0,-2,0
1514898562995879,0,-1,0,0,-2,-1,-3,-1
1514898562995879,0,-1,0,-2,0,-2,-2,-2
1514898562996878,0,0,-1,-1,-2,-2,-1,-1
1514898562996878,-1,-2,-1,0,0,-3,-1,-1
1514898563018890,-1,-2,-2,0,-2,-1,-2,-1
1514898563018890,-2,-2,0,-1,0,0,0,-2
1514898563019391,0,0,1,0,-1,-2,-2,-1
1514898563019391,0,-1,-1,-1,0,-2,0,-1
1514898563041908,0,-2,-1,0,-1,-3,0,0
1514898563041908,-2,-3,-1,-1,-2,-1,-1,-2
1514898563043407,-1,-1,-2,-2,-1,-1,-2,0
1514898563043407,-1,-2,-1,-1,-1,1,0,-3
1514898563055916,0,1,-2,-1,-1,-2,-2,0
1514898563055916,-3,-2,0,-1,-1,-2,-2,-2
1514898563056917,-1,0,0,-1,-2,-1,1,-1
1514898563056917,0,-1,0,-1,-1,-1,-2,-1
1514898563078448,0,-2,-1,-1,0,0,0,-1
1514898563078448,-2,1,-2,-1,-2,-1,0,0
1514898563079452,-2,-3,-2,-1,-1,-1,-4,-1
1514898563079452,-2,-4,-3,0,-2,-1,-1,-1
1514898563101458,-1,-2,-1,-1,-2,-1,0,-1
1514898563101458,1,0,-1,0,-2,-1,-3,-2
1514898563102460,1,1,-1,-3,-1,0,-1,-1
1514898563102460,0,0,0,1,0,-2,-1,-2
1514898563115968,0,0,-2,0,-3,-1,0,-2
1514898563115968,-2,-1,0,-2,0,-1,-1,-2
1514898563116459,-1,-1,-1,-1,-1,-1,-1,-2
1514898563116459,-1,-2,-1,-2,-1,-2,-3,0
1514898563138484,-2,-1,0,-1,-1,0,0,-1
1514898563138484,0,-1,-2,-2,-2,-1,-1,0
1514898563138984,-1,-3,-2,0,0,-1,0,-1
1514898563138984,0,-1,0,-2,0,-1,-1,-3
1514898563161490,-1,-2,0,-1,2,-1,-1,-1
1514898563161490,-1,-1,-2,-2,-1,-2,-3,-2
1514898563162492,0,-1,-1,-2,-1,1,-2,0
1514898563162492,-1,0,-2,-1,-2,-2,1,-2
1514898563176001,-1,-1,-2,-1,0,0,-1,0
1514898563176001,-1,0,-2,0,-1,0,0,0
1514898563176501,-3,0,-2,-3,0,1,0,-2
1514898563176501,-1,-1,-2,-2,-1,1,-3,-1
1514898563198517,-1,-1,-2,-1,-1,0,-1,0
1514898563198517,0,-1,0,-1,1,-1,-1,0
1514898563199017,-2,-1,-1,0,-2,-2,-1,-1
1514898563199017,-1,-2,-2,-2,1,-2,0,0
1514898563223034,-2,-2,0,0,-1,-1,-2,-2
1514898563223034,-1,0,0,-1,1,1,1,-1
1514898563225035,-1,0,0,-2,-1,-1,0,-1
1514898563225035,-1,-2,-1,1,-1,1,0,-1
1514898563235556,-1,-2,-1,-1,0,-1,-1,-3
1514898563235556,-2,-2,-1,-2,-2,0,0,-2
1514898563243548,1,0,-1,-2,-1,-3,0,-1
1514898563243548,0,-2,-2,0,-1,-1,0,-1
1514898563259059,0,-1,-1,0,-2,-2,0,-1
1514898563259059,-2,0,-1,1,-2,-1,0,0
1514898563259560,-2,0,0,0,-1,-1,0,-1
1514898563259560,0,-1,0,-1,-2,0,0,0
1514898563281585,-2,-2,-1,-1,0,-1,-2,1
1514898563281585,1,0,-1,-2,-1,-3,-2,-1
1514898563282598,-1,1,-1,0,-1,1,0,-2
1514898563282598,-1,1,0,0,-1,-3,-1,-1
1514898563295094,-1,0,-1,-1,-1,0,-1,0
1514898563295094,0,0,-2,-1,-2,-1,1,-1
1514898563304091,-1,0,-3,-1,-1,0,-3,-2
1514898563304091,-1,-2,-1,-2,-2,-3,-2,-1
1514898563318101,1,-1,-2,-1,-1,-2,0,0
1514898563318101,-1,-1,-1,-2,0,-3,-2,-1
1514898563319101,-2,-1,1,0,1,-1,0,0
1514898563319101,-1,-1,-1,-2,-1,1,-1,-2
1514898563342131,0,-2,-2,-1,-2,0,-1,0
1514898563342131,-2,0,-2,-2,0,0,-2,-2
1514898563343119,-1,-2,-2,-1,-2,-1,0,-2
1514898563343119,-2,-2,-1,-2,0,-2,-1,-1
1514898563356629,-1,-1,-2,-2,1,1,1,-2
1514898563356629,-2,-2,-2,-1,-1,0,-2,-2
1514898563363634,-3,-2,-1,-1,-4,-1,-2,-1
1514898563363634,-3,-1,-1,-2,-1,0,-1,1
1514898563378656,-2,-1,0,0,-1,-1,-2,-1
1514898563378656,0,0,-2,-2,-2,0,0,0
1514898563379144,-2,-1,-1,-1,-2,-2,-1,-1
1514898563379144,0,-2,-1,0,0,0,-3,0
1514898563402661,-2,-2,-1,0,-1,-2,-2,-2
1514898563402661,-1,0,-1,-2,-2,-2,-1,-1
1514898563404162,-2,-2,-1,0,0,-1,-2,-4
1514898563404162,-1,-1,-1,-1,-1,-2,-1,1
1514898563415170,-1,-2,0,-3,-1,-2,0,-1
1514898563415170,-1,-1,-2,-1,-2,-1,1,1
1514898563423188,-1,2,-1,-1,0,0,0,0
1514898563423188,0,0,-1,-1,-1,0,2,-1
1514898563438195,-1,-1,0,-1,-1,-2,-1,0
1514898563438195,-2,-2,0,0,-1,-2,-2,1
1514898563439197,-2,0,0,-2,-1,1,0,-2
1514898563439197,1,0,0,-1,-1,0,1,-1
1514898563461703,0,-1,-1,-2,-1,1,-1,0
1514898563461703,0,-2,0,0,0,0,0,-1
1514898563462203,-2,-1,-3,-1,0,-2,0,-1
1514898563462203,0,-2,-1,-2,-2,-2,-2,0
1514898563475716,-2,0,-1,-2,-1,-2,-1,-2
1514898563475716,0,0,-1,-1,0,0,-2,-3
1514898563491243,0,-1,0,-1,-1,-1,-2,0
1514898563491243,-2,-4,-1,-1,-1,-1,-1,-1
1514898563498729,1,-1,-2,0,-1,-2,-1,-1
1514898563498729,-2,-1,-2,-1,-2,-1,1,-1
1514898563499229,-1,1,-2,1,-1,-2,0,0
1514898563499229,-1,0,-2,-3,-1,-2,-1,-2
1514898563522261,-1,-2,-1,0,0,-2,1,-1
1514898563522261,-2,-2,0,0,-1,-2,-2,-2
1514898563523747,0,-2,0,-2,-2,-2,-2,-1
1514898563523747,-1,-2,0,0,-2,-2,0,0
1514898563544261,0,-1,-2,0,-1,0,-1,2
1514898563544261,0,-3,-2,0,-2,-1,-2,-1
1514898563544771,0,-1,0,-1,-1,1,-1,-1
1514898563544771,-2,-2,-2,-1,-1,-1,-3,-1
1514898563558773,-2,-2,0,-1,-1,-2,-2,-3
1514898563558773,0,0,-2,-2,-2,-2,-2,-2
1514898563559275,-1,-1,-1,0,-1,-1,-2,-3
1514898563559275,-1,-1,-1,-1,-2,-1,0,-2
1514898563581788,-2,-1,-1,-1,-1,-2,2,-1
1514898563581788,-2,-1,0,-1,0,0,-1,1
1514898563582288,-1,-1,-2,-2,-1,0,0,-1
1514898563582288,1,0,1,-2,-1,-1,-1,-3
1514898563605305,0,-3,-1,-2,0,0,0,0
1514898563605305,-2,-1,-2,-1,-1,-1,-1,-3
1514898563607317,-1,-2,-2,-2,-1,-1,-2,1
1514898563607317,-2,-2,0,1,-1,-1,-1,-1
1514898563618313,-1,-1,-1,-1,-2,-1,-1,-1
1514898563618313,1,0,-1,-1,-1,-1,0,0
1514898563619324,-1,-1,-3,0,-1,-1,-1,-2
1514898563619324,-1,-1,0,-3,-2,-1,0,-2
1514898563641831,-2,-1,-1,-2,0,-2,-1,0
1514898563641831,-1,-1,0,0,0,0,-1,0
1514898563642336,-2,-1,-1,-3,-2,-1,-2,-2
1514898563642336,-1,0,-1,-2,0,-1,-1,1
1514898563663855,-1,-2,-3,-1,-1,0,-1,-2
1514898563663855,-1,0,-2,-1,0,-1,0,-2
1514898563664856,-1,-1,-2,-2,-3,0,-1,0
1514898563664856,0,-2,-2,-1,0,0,0,-2
1514898563678368,-2,-2,-1,-1,-2,-3,-2,1
1514898563678368,-2,-1,0,-1,-2,-1,0,-1
1514898563679369,-2,-2,0,-1,-1,-2,0,0
1514898563679369,-2,-3,-1,0,0,-1,-1,0
1514898563701372,-2,0,-2,-1,0,-1,-2,-1
1514898563701372,-1,1,-2,-2,-1,0,0,0
1514898563702374,-2,0,-1,-1,-1,-1,-2,-1
1514898563702374,-2,-1,1,-1,0,-2,-2,-1
1514898563731406,-1,-2,0,-1,0,1,0,-1
1514898563731406,0,-2,-2,-2,0,-1,-2,-1
1514898563732400,-1,-1,-2,-2,-1,0,0,-1
1514898563732400,-1,-2,-2,-3,-2,-2,0,-2
1514898563738408,0,1,0,-1,-1,-2,-1,-1
1514898563738408,-1,-1,-1,0,1,-1,1,0
1514898563739408,0,-1,-2,-1,-1,-2,-1,-1
1514898563739408,-2,-3,0,0,0,-1,-2,1
1514898563761927,1,-1,0,0,0,0,-1,0
1514898563761927,1,-1,-1,-2,-2,-1,-1,-1
1514898563762427,-1,-1,-3,0,-1,-2,-2,0
1514898563762427,-2,-1,-2,-1,-1,-2,-1,-1
1514898563783939,-2,-1,-1,-1,-2,-2,1,0
1514898563783939,-2,-1,0,-1,-1,-1,0,-2
1514898563784941,0,-1,0,-1,0,0,-1,-1
1514898563784941,0,-1,-3,-1,-1,-2,-1,-1
1514898563798456,-1,-1,-2,-2,-1,-3,-2,0
1514898563798456,-2,-1,-2,-1,-2,-2,-1,-3
1514898563798941,-3,1,-2,0,0,-2,1,-3
1514898563798941,-1,0,-1,-1,-1,1,0,0
1514898563822473,0,0,-1,-1,-2,-1,-3,-3
1514898563822473,0,-2,-1,-2,-1,-2,-2,-1
1514898563824459,1,-1,-1,-2,-1,-1,-2,-3
1514898563824459,0,-2,0,0,1,-2,0,-2
1514898563843973,-1,-2,-1,-1,0,-3,-1,-2
1514898563843973,-1,1,-1,0,-1,0,-1,0
1514898563844973,-2,0,-1,0,-2,-3,-3,-1
1514898563844973,1,-1,-3,-1,2,0,-1,-3
1514898563858483,-1,-2,-1,0,-2,-1,-2,0
1514898563858483,-2,0,-2,-1,-2,-1,0,0
1514898563859496,-1,-1,-1,-2,-1,1,0,-1
1514898563859496,-2,-2,-1,-1,-3,-2,-2,1
1514898563881500,-1,0,-2,-2,-1,1,1,2
1514898563881500,-1,-2,0,-2,-2,0,-1,0
1514898563882500,0,-2,-1,-2,-3,-3,-2,-1
1514898563882500,-1,-3,-2,-1,-1,0,-1,-1
1514898563905016,-2,0,-1,1,-1,-3,-1,-2
1514898563905016,-1,-2,-3,0,-1,-1,1,-2
1514898563907020,-1,-1,-2,-1,-2,0,0,-2
1514898563907020,0,0,0,-1,-1,-1,-3,-1
1514898563917537,-1,-3,-1,-2,-1,-1,-2,-1
1514898563917537,-1,0,-1,-1,0,-2,0,0
1514898563929045,-2,-1,-1,-1,-1,-1,0,-2
1514898563929045,-2,-1,0,0,-2,-1,-1,-1
1514898563941543,0,0,-1,-1,0,-1,-1,-1
1514898563941543,-3,-1,-1,-1,-1,-1,-1,-2
1514898563943044,0,-2,-2,-1,-1,0,0,-1
1514898563943044,-2,0,-3,-1,-1,-1,0,0
1514898563972087,-1,1,0,-1,0,0,0,0
1514898563972087,-1,0,-1,-3,-2,0,-1,0
1514898563973587,-1,-2,-2,-1,0,-1,-2,-3
1514898563973587,-2,-2,0,-3,0,-1,-1,-1
1514898563977567,-1,-2,-1,-2,-2,0,0,1
1514898563977567,-2,0,-1,0,-1,1,-2,-2
1514898563986574,0,1,-1,-1,-1,-1,-1,0
1514898563986574,0,-1,-1,-1,0,0,0,-2
1514898564002595,-1,-2,-2,-2,0,-2,-2,-1
1514898564002595,0,-2,0,-1,0,-2,-2,-2
1514898564006087,-3,-1,-2,0,-1,-1,-2,-1
1514898564006087,1,0,-1,0,-1,-2,-1,-2
1514898564024601,-1,-2,1,0,-2,-2,0,-2
1514898564024601,-1,-1,-1,0,-2,-2,-1,-2
1514898564030104,-1,-1,0,-1,-1,-2,-1,0
1514898564030104,-1,-1,-2,-1,-2,-2,-1,0
1514898564037609,-2,-2,-2,-1,-2,-1,-1,-3
1514898564037609,0,-1,-1,-1,-2,-1,-2,0
1514898564046628,-2,-2,0,0,-1,0,0,0
1514898564046628,0,-2,1,1,-2,-1,0,-1
1514898564061636,1,-2,-1,1,-1,-1,-1,-2
1514898564061636,-2,-1,-1,-1,0,-1,0,-1
1514898564063137,-1,1,0,-1,-1,-2,1,-2
1514898564063137,-1,-1,-2,-1,-2,1,-1,-1
1514898564084155,0,0,0,-1,-1,-2,0,-1
1514898564084155,-1,-1,-2,-1,0,-1,0,-1
1514898564085655,0,-1,-2,-2,0,0,-2,0
1514898564085655,-3,-1,-1,-2,-2,-3,0,0
1514898564097661,-1,-1,-2,-1,-1,0,0,-1
1514898564097661,0,0,-1,0,0,0,-1,0
1514898564106659,0,-2,-2,1,-2,-1,-1,-2
1514898564106659,0,-3,-2,-1,-2,-1,0,0
1514898564121682,-3,-1,-1,0,1,0,-1,0
1514898564121682,-1,-2,-1,-1,-2,-1,1,0
1514898564123176,-2,-1,0,-2,-2,0,-1,-2
1514898564123176,0,-2,-2,-1,0,-2,-1,1
1514898564151747,1,0,-2,-1,-2,-2,0,-2
1514898564151747,-2,0,0,-2,-2,-1,-1,-2
1514898564153249,-1,-1,-2,-2,-3,1,-2,-2
1514898564153249,-1,-2,-1,0,-1,0,0,-1
1514898564157750,-2,0,-1,-3,0,-1,-3,-2
1514898564157750,-3,-1,0,-1,-2,-1,-1,-2
1514898564166756,-1,-3,-1,-2,-1,-1,-1,-3
1514898564166756,-1,-2,0,-2,-3,-1,-1,-1
1514898564181767,-2,-3,-1,-1,-1,-3,-4,-3
1514898564181767,0,0,1,-1,-1,1,3,3
1514898564183268,-1,-1,-1,0,-1,-2,-2,0
1514898564183268,-5,-2,-1,-1,0,-2,-2,-3
1514898564204798,0,1,1,-1,-1,0,0,1
1514898564204798,1,-1,-2,0,-2,-2,-2,-1
1514898564208289,-1,0,-1,0,0,-3,0,-2
1514898564208289,1,-1,-1,-1,-2,-1,-3,-2
1514898564217792,1,0,0,-2,0,1,1,2
1514898564217792,-2,-1,-4,0,0,-1,-2,-1
1514898564228812,-1,1,0,-1,1,-1,1,0
1514898564228812,1,1,-2,0,0,-2,-2,-2
1514898564241809,-2,-2,-1,0,-1,-2,-2,-2
1514898564241809,-1,-2,0,-1,-2,-1,-2,-2
1514898564243311,-1,0,0,-1,-2,-1,1,-1
1514898564243311,-1,-1,0,-1,-2,-1,1,0
1514898564264325,-1,-2,-2,0,-1,-1,-2,-1
1514898564264325,-1,-1,-2,0,0,-2,-1,-2
1514898564265826,-3,-1,-1,1,-1,0,-2,-2
1514898564265826,-1,-3,-1,-3,0,-2,-1,-1
1514898564277837,-1,-2,-1,2,-1,1,-1,-1
1514898564277837,-1,0,-2,-3,-1,0,-1,-1
1514898564286842,0,-1,-1,-1,-1,-2,0,-1
1514898564286842,0,-2,-1,0,0,-2,-1,-2
1514898564309857,-1,-1,-2,-1,-2,0,-1,-3
1514898564309857,-1,0,0,-2,0,-1,-2,-1
1514898564313359,-1,-2,-1,-1,-3,-2,-2,0
1514898564313359,-1,-1,-1,0,-3,-1,-1,0
1514898564325378,-2,-1,-1,-1,-2,-1,1,-1
1514898564325378,-1,-1,-2,-1,-2,-2,-2,-2
1514898564328870,-2,-2,-2,-1,-1,-1,-1,-1
1514898564328870,0,-3,-2,-1,-1,-1,-1,0
1514898564337887,0,-2,-1,0,-2,-1,0,-3
1514898564337887,0,-1,0,-1,-2,1,-1,-1
1514898564346893,0,-1,-2,-2,-1,0,-2,-1
1514898564346893,-3,-2,-1,-1,-3,0,-2,-2
1514898564361403,-1,-2,-1,-1,-1,-2,0,0
1514898564361403,-2,0,-1,-2,0,-2,1,0
1514898564363400,-1,0,-1,-1,0,0,1,-2
1514898564363400,-1,-1,-1,-2,-1,-2,0,-1
1514898564383932,-1,-1,-1,-2,0,-2,-2,-1
1514898564383932,-2,-1,-1,0,-3,-3,-1,-1
1514898564385921,-3,-1,0,-2,-2,-2,-2,-1
1514898564385921,-1,0,-1,-2,-1,0,0,-1
1514898564397919,-2,-3,-1,-1,0,2,-1,1
1514898564397919,-1,0,-1,-1,0,-1,-1,-2
1514898564407430,-1,-3,-1,-1,0,-1,-1,0
1514898564407430,1,0,-1,-1,-2,-1,-1,-1
1514898564421436,-1,-1,0,-1,-1,-1,0,1
1514898564421436,0,-1,0,0,-3,-2,-1,-2
1514898564424438,-1,-1,0,0,-1,0,0,0
1514898564424438,-1,-2,-2,-1,1,-2,-2,-1
1514898564443954,0,-2,-2,-1,-2,-1,0,1
1514898564443954,-3,-4,-2,-2,-2,-1,-2,-2
1514898564445454,0,-1,-2,-2,-2,-1,-1,-1
1514898564445454,0,-1,-1,-2,-1,-3,-2,-1
1514898564457973,-2,-2,-1,-2,-1,-1,-1,-1
1514898564457973,-1,-1,-1,-1,0,-1,0,-1
1514898564466469,-2,-1,-2,-3,-2,0,-1,-1
1514898564466469,-1,-2,-1,0,-1,-1,-1,-2
1514898564481488,1,-1,-2,-1,0,-1,0,-2
1514898564481488,-1,-1,-1,0,0,-2,-1,-1
1514898564482991,1,-2,-1,-2,-1,-3,-1,-2
1514898564482991,0,0,-1,-1,-1,-2,-1,0
1514898564505005,-1,0,-2,0,-1,-1,0,0
1514898564505005,0,-2,-1,-1,-2,1,-2,-2
1514898564508498,0,1,-1,-1,-1,0,-1,-3
1514898564508498,-1,-1,0,-1,-1,-1,0,1
1514898564526511,-2,0,0,0,-1,-2,-2,0
1514898564526511,-2,1,-2,0,-1,-2,-1,1
1514898564528012,-2,-2,0,-1,0,0,0,-1
1514898564528012,0,0,-2,-2,-1,0,0,-1
1514898564541523,-1,-1,0,-1,-2,-2,0,-1
1514898564541523,0,-2,-3,-2,-2,-1,0,-2
1514898564543024,0,-2,-2,-2,-1,-1,-2,0
1514898564543024,-1,0,0,0,-1,-2,-1,0
1514898564564037,-2,-2,-3,0,-2,-1,-1,-2
1514898564564037,0,2,-1,0,0,-2,0,-3
1514898564565538,0,-3,-1,0,-1,-1,0,-2
1514898564565538,0,-3,-2,0,0,-1,-1,-2
1514898564586562,-1,0,-2,-2,-3,-2,-3,-1
1514898564586562,-1,-1,-1,-1,-2,-1,-1,-2
1514898564588054,0,-2,-2,-1,-1,-1,0,-1
1514898564588054,-1,0,-2,-1,-2,0,-1,0
1514898564601564,-1,-1,0,-2,-1,-2,-1,0
1514898564601564,0,0,-1,-2,-1,-2,0,-2
1514898564605080,0,-1,-1,-1,-1,-1,-1,0
1514898564605080,-1,-3,-2,-1,-1,-2,-1,0
1514898564624079,-2,0,0,-1,-1,0,-1,-2
1514898564624079,-1,-1,-2,0,-1,0,-1,-1
1514898564625582,0,0,-1,-2,-2,-3,-2,-1
1514898564625582,-2,-2,0,-1,1,-1,0,-2
1514898564646595,-2,-2,-2,-1,-1,-2,-2,-2
1514898564646595,-2,0,-1,-1,-2,-1,0,-1
1514898564648096,-2,-2,-1,-1,-1,0,0,-1
1514898564648096,-1,-2,-2,-1,-1,-2,-2,-1
1514898564660617,0,-1,-2,-1,-4,0,-1,-2
1514898564660617,-3,-1,-1,-2,0,-2,-1,-1
1514898564667610,0,0,0,-2,0,-3,-2,-1
1514898564667610,-1,-2,0,0,-1,-3,-4,-1
1514898564684122,2,0,-1,-1,1,2,2,3
1514898564684122,-2,1,-3,0,-2,0,-2,1
1514898564686623,-2,0,-2,0,0,-2,-1,-1
1514898564686623,-2,-1,-1,-2,0,0,0,-2
1514898564705639,-1,-1,1,-3,-2,-1,-1,-2
1514898564705639,-1,-1,-1,-1,-1,1,-2,0
1514898564714143,-1,0,-1,-1,-1,-1,0,-1
1514898564714143,-1,-1,0,0,-1,-1,-2,-1
1514898564720647,-2,-1,-1,-2,-1,-3,-1,-3
1514898564720647,-1,-1,-2,-1,-1,0,-1,-2
1514898564727653,0,-2,-1,-2,-1,-1,-2,1
1514898564727653,-2,-2,-1,-1,-1,1,-1,0
1514898564744664,0,-2,-3,-1,-1,-1,-1,1
1514898564744664,0,-1,-1,-1,-1,-2,-1,-2
1514898564746165,0,0,-1,0,-2,-1,0,-1
1514898564746165,1,-1,-2,-1,-2,-1,0,-1
1514898564766692,-2,-1,-2,-1,-1,-1,-2,-1
1514898564766692,-2,0,-1,-2,0,0,0,-1
1514898564768181,-2,-1,-2,-2,0,-2,-1,-2
1514898564768181,-1,-2,-1,-1,0,-1,0,-1
1514898564780689,-1,-2,-1,-1,-1,-1,-2,-4
1514898564780689,-1,-3,-1,-3,-2,1,1,1
1514898564787709,-1,1,-3,0,-1,0,-2,-2
1514898564787709,1,-1,-3,0,-1,-2,-2,-2
1514898564805207,0,0,-1,-1,0,-2,1,-1
1514898564805207,-1,-2,0,-1,0,0,-2,0
1514898564807709,-1,5,-2,0,-1,0,-1,-1
1514898564807709,-2,-9,-2,0,-1,0,-2,-4
1514898564826724,-3,-1,-3,-3,-1,0,-1,0
1514898564826724,-1,-1,-1,-2,-2,-1,-1,-1
1514898564828224,0,0,0,-1,-2,1,-1,0
1514898564828224,0,0,-1,-2,-3,-3,-1,0
1514898564841239,-1,-1,-1,-2,-2,0,-1,-1
1514898564841239,-3,1,-1,-2,-1,-2,-1,-1
1514898564847737,-1,-5,-1,-1,-1,-2,-1,-2
1514898564847737,-2,1,0,0,-1,-1,-2,-1
1514898564871255,0,-3,0,-1,-2,0,-2,-1
1514898564871255,-2,0,-1,-2,-2,-1,-1,-1
1514898564873257,0,-3,-2,-1,-1,-2,-3,-1
1514898564873257,-3,-2,0,-1,-1,-3,0,-1
1514898564886266,-2,1,-3,-1,-1,-1,-4,-1
1514898564886266,-1,-1,-1,-2,-1,0,0,-1
1514898564888266,-2,-3,-1,-3,-3,-2,-1,-1
1514898564888266,0,-1,-1,-3,-1,-1,-2,-1
1514898564900775,-1,0,-2,0,-1,-3,-1,-3
1514898564900775,1,-3,-3,0,-2,0,0,-2
1514898564907780,-1,-2,-1,-3,-2,-1,-3,-1
1514898564907780,0,1,0,1,0,0,1,0
1514898564924793,-1,-2,-1,-1,-1,-1,-1,-1
1514898564924793,-2,-2,-2,-1,-1,-1,-3,-2
1514898564926297,-3,0,-1,-3,0,-2,-1,-2
1514898564926297,-1,-1,-2,-1,0,-1,0,0
1514898564946819,-1,0,0,-1,-1,-1,-1,1
1514898564946819,0,2,-1,-1,-1,-1,-1,-1
1514898564948318,0,-1,-1,-1,-1,-1,-2,-2
1514898564948318,-2,-1,-1,-1,-2,-1,-1,-2
1514898564960819,-1,-2,-1,-1,0,-2,-1,-2
1514898564960819,-1,-1,-1,-1,-2,-2,-2,-1
1514898564967822,-1,-2,-1,-2,-1,-1,1,0
1514898564967822,-1,-3,0,-2,-3,-2,-2,-2
1514898564984333,0,-2,-1,-2,0,0,0,1
1514898564984333,0,0,-1,-1,1,-1,-2,-4
1514898564985834,0,-2,0,0,-1,-1,-1,-1
1514898564985834,-1,0,-1,-2,0,-1,0,0
1514898565007350,-1,-2,-1,-2,0,1,0,-2
1514898565007350,-2,-1,-1,0,-1,-2,0,0
1514898565008853,-2,0,-1,-2,0,-1,0,0
1514898565008853,0,-2,-1,-2,1,-1,-3,-1
1514898565021360,-2,-1,0,0,-1,-2,-1,-1
1514898565021360,-2,-1,-1,-3,-2,-1,-1,-1
1514898565029365,-2,-1,-1,0,0,-2,-1,0
1514898565029365,0,-2,-1,-1,-2,-1,-1,-1
1514898565044376,-2,-1,0,-2,-3,-3,0,-1
1514898565044376,-1,-1,-2,-2,-1,-2,-1,-1
1514898565045877,-2,-2,-2,-1,-3,-1,-1,0
1514898565045877,-1,-1,-2,-1,-2,0,-1,-1
1514898565066402,-1,-2,0,-1,0,-2,-1,-1
1514898565066402,-1,0,0,0,-1,-1,-1,-1
1514898565068403,0,-1,-1,0,-1,1,-1,-1
1514898565068403,-1,-1,-1,-1,-1,-2,0,-1
1514898565080412,-3,-2,-1,-1,-2,-1,0,0
1514898565080412,-1,1,-1,-1,-2,0,0,-2
1514898565089408,0,-2,-2,-1,-2,-1,-2,1
1514898565089408,-2,-2,-1,0,-1,-2,0,-2
1514898565103937,-1,-1,-1,-1,-1,-1,-2,-1
1514898565103937,-1,-2,-1,-1,-1,-3,0,-1
1514898565107421,-3,0,-2,-1,0,-1,-2,0
1514898565107421,-1,-1,-3,-1,-1,-1,-2,-1
1514898565126445,0,0,-1,-1,-1,-2,-2,-3
1514898565126445,-1,0,-2,-3,-1,-2,-1,-1
1514898565128437,-1,-2,-1,0,0,0,-1,-3
1514898565128437,-2,-2,-2,-1,-1,0,0,1
1514898565139953,-2,-1,-1,0,1,-1,-1,0
1514898565139953,-2,0,-1,0,-2,-1,-2,-1
1514898565149451,-1,-1,-2,0,-1,-1,0,-1
1514898565149451,-2,0,0,-1,-2,0,-3,0
1514898565163961,-1,0,0,-1,-2,0,-1,0
1514898565163961,-1,-3,-2,-2,-2,-1,-1,-1
1514898565165462,-2,1,0,-2,-2,-3,-2,-2
1514898565165462,-2,-2,0,-2,-2,0,-1,-1
1514898565186486,-1,0,-2,-1,-2,-1,0,0
1514898565186486,-3,-1,0,0,0,0,-1,0
1514898565187987,-2,-1,0,-1,-1,0,1,-1
1514898565187987,-1,0,0,-2,0,-2,0,0
1514898565200987,-1,-1,-2,1,-2,0,0,-1
1514898565200987,0,0,-1,0,-1,-1,0,1
1514898565208995,0,-2,0,-2,-1,1,-2,1
1514898565208995,-1,-2,-1,-2,-1,-1,0,-1
1514898565225004,-2,-2,-2,-1,0,-1,-2,-2
1514898565225004,-1,0,-2,-1,0,-1,-1,0
1514898565226506,0,-1,1,1,0,0,1,0
1514898565226506,-1,-4,-1,-1,-1,-3,-2,0
1514898565262539,0,0,0,-3,-1,0,0,-2
1514898565262539,-1,-1,1,0,-2,0,-1,-3
1514898565264032,0,-1,-2,-2,-2,-1,-1,-1
1514898565264032,1,0,0,-1,-1,-1,2,0
1514898565264532,0,-1,-2,-2,-1,1,-1,-2
1514898565264532,-1,3,-2,-3,-1,-1,0,-3
1514898565269044,0,0,-1,0,0,-2,-1,-1
1514898565269044,-1,0,0,1,-1,-1,-1,-1
1514898565284045,-1,0,-1,-1,-2,-1,-2,1
1514898565284045,-1,-1,0,-1,-1,-1,0,-1
1514898565285548,0,-2,-2,-2,-1,-4,-2,0
1514898565285548,-1,-1,-2,0,0,-1,-3,-1
1514898565323074,-1,1,-1,-1,-2,0,-2,0
1514898565323074,-2,1,-2,-2,0,1,-1,-2
1514898565324575,-1,0,-1,-1,-1,-4,-1,-1
1514898565324575,-2,-1,-1,0,1,-1,-1,0
1514898565325576,-2,-2,0,-3,-2,-1,0,-2
1514898565325576,-2,-3,-1,-2,-2,0,-2,0
1514898565329078,-1,-1,0,-1,-1,0,-1,-1
1514898565329078,0,-2,-1,-2,-1,-1,0,0
1514898565344100,1,-2,0,0,0,0,-1,-1
1514898565344100,-3,-2,0,0,-1,-1,-1,1
1514898565345600,0,-1,-2,-1,0,0,-2,-1
1514898565345600,-1,-1,0,-2,-1,-1,0,-2
1514898565366616,-1,-1,-2,0,0,-1,-1,0
1514898565366616,0,0,-2,-3,-2,0,1,0
1514898565368117,-4,-2,1,-2,-2,-2,-1,-3
1514898565368117,0,-2,0,0,-2,0,-1,-1
1514898565380123,-1,-2,-2,-3,-2,-1,-1,-4
1514898565380123,-2,-2,-2,0,-2,-1,-2,-2
1514898565389132,-2,-2,-1,0,-3,-1,-2,-1
1514898565389132,-1,-1,-2,0,-1,-1,-1,-1
1514898565405138,-1,-2,-2,-1,-1,-3,1,-2
1514898565405138,-1,-1,-2,-2,1,-1,0,0
1514898565407636,0,-2,-1,-1,-2,-1,0,-1
1514898565407636,-2,-1,0,-2,0,-1,-1,0
1514898565426651,-2,1,0,1,1,1,-1,0
1514898565426651,0,-2,0,-1,0,0,-1,1
1514898565428147,0,-2,-1,-2,0,-1,0,-1
1514898565428147,1,-1,-2,-1,-1,-2,-1,-1
1514898565449176,-2,-1,-1,-3,0,-1,-2,-1
1514898565449176,0,0,-1,0,-2,-1,-3,0
1514898565450663,0,-3,0,-1,-1,0,-1,-1
1514898565450663,-1,-3,-1,-1,-1,0,0,0
1514898565464173,-1,-1,-1,0,-1,-1,-1,-2
1514898565464173,-2,2,-1,0,-1,0,-2,-3
1514898565465683,-1,-1,1,-2,1,-1,0,-1
1514898565465683,-1,-1,-1,-1,0,-2,-1,-2
1514898565486688,0,0,-1,-1,-2,-2,-1,-2
1514898565486688,-3,0,-2,-1,-1,-1,-1,-2
1514898565488205,-1,0,-2,-1,-3,0,-2,-1
1514898565488205,-1,-2,-1,-1,-1,-1,0,-2
1514898565509208,-2,-1,-1,1,-1,-1,-2,0
1514898565509208,-1,-1,-3,-1,-1,0,0,-1
1514898565510706,0,-1,-1,-1,-2,-2,-2,-2
1514898565510706,-1,-1,-1,-1,-3,-1,-2,0
1514898565525217,-2,-3,-2,-2,-3,1,-1,0
1514898565525217,1,-1,-2,-2,0,0,-1,-1
1514898565528719,0,1,-1,0,-1,-2,-1,0
1514898565528719,2,-1,-1,-1,-1,-1,-2,-2
1514898565546233,-2,-1,-2,-1,-1,-1,1,-2
1514898565546233,-2,-1,-2,-1,-2,0,0,-2
1514898565548233,-1,-2,-1,-2,-1,-1,-1,-1
1514898565548233,1,-2,-3,0,0,-2,-1,-2
1514898565569267,-1,-1,-1,-1,-2,-1,-2,-2
1514898565569267,0,0,-2,-1,-2,-1,-1,-2
1514898565571772,-2,0,-1,0,-2,-2,-2,-1
1514898565571772,0,-1,0,-1,-2,0,-1,1
1514898565583257,-1,-1,-1,-1,-1,-2,-1,-1
1514898565583257,-3,-2,-2,0,0,-1,-1,-1
1514898565590262,0,-2,-1,-2,0,-1,-1,-1
1514898565590262,-2,-1,-1,0,-2,0,0,0
1514898565606277,0,-1,-1,-1,-2,-2,-1,1
1514898565606277,0,-1,0,0,-1,-2,-1,-3
1514898565608275,-1,-1,-2,0,0,0,-1,-1
1514898565608275,-1,-2,-3,0,-1,0,0,-2
1514898565628791,0,-1,-1,-1,-2,-1,-2,-2
1514898565628791,0,-1,0,-3,-1,0,0,-1
1514898565631793,-1,-2,-1,-1,-2,-1,-1,0
1514898565631793,-1,-2,-1,0,0,-3,-1,-1
1514898565643301,-1,1,-2,-2,-2,0,0,-1
1514898565643301,-2,-1,-2,0,-2,0,-1,-1
1514898565650305,0,-2,0,-2,0,-1,-1,-1
1514898565650305,-2,0,-2,-2,-2,-1,-1,1
1514898565666826,0,0,0,-1,0,-1,0,-1
1514898565666826,0,-1,0,-2,-2,-1,-2,0
1514898565669321,-1,-3,-3,1,-1,-1,-1,-2
1514898565669321,-2,0,-2,0,0,-2,-3,-2
1514898565689344,-1,0,-2,-3,0,0,-1,1
1514898565689344,-1,-1,-1,-2,-2,-3,-1,-2
1514898565690845,-1,0,0,-1,-2,-1,-1,1
1514898565690845,-1,-1,-2,-2,0,-3,0,0
1514898565703344,1,-1,-2,0,-2,-3,-1,-2
1514898565703344,-1,1,-2,-1,-1,-2,0,-3
1514898565710849,-2,0,-1,0,-1,0,0,-2
1514898565710849,-1,-3,0,0,-1,-3,-2,0
1514898565726859,-3,-1,-1,0,1,1,-1,-1
1514898565726859,-2,0,-2,-1,-2,0,-1,-1
1514898565734366,0,-1,-3,-1,-1,-1,-1,0
1514898565734366,-2,0,-1,-1,-1,-2,1,0
1514898565748887,-2,-2,-1,0,-1,0,0,-1
1514898565748887,-1,-1,-2,-3,1,0,0,0
1514898565750888,0,-1,0,0,-1,-2,0,-3
1514898565750888,-1,-1,0,0,-2,0,1,-2
1514898565763396,-1,-1,0,-4,-1,-1,-1,0
1514898565763396,-1,0,-1,0,-1,-1,-1,0
1514898565770402,1,-1,-1,-3,-1,-2,-3,-1
1514898565770402,-1,-2,-2,-1,0,1,-2,0
1514898565786410,-2,0,0,-1,0,-2,-1,-2
1514898565786410,-4,-3,-1,-1,-2,0,-1,-1
1514898565788902,-1,-2,-2,-1,-1,-1,-1,0
1514898565788902,0,-2,0,1,-1,-1,-1,-1
1514898565810438,0,-1,-2,-1,-2,-2,-2,-1
1514898565810438,0,-1,-1,0,-2,-1,-2,-4
1514898565813920,-4,-1,-2,-1,0,-1,-1,-2
1514898565813920,0,-2,-2,-4,-1,-2,-2,-1
1514898565823436,-2,-1,-3,-1,-2,1,-1,-1
1514898565823436,0,0,-1,-1,-2,-1,0,0
1514898565837446,1,-1,-2,-2,-2,-4,0,-1
1514898565837446,0,-2,-1,-3,0,-1,-2,-1
1514898565846943,-2,-1,0,-2,-3,-2,-2,-1
1514898565846943,1,-3,0,-1,-1,-2,-1,-1
1514898565848945,-1,-2,1,0,-2,-1,1,0
1514898565848945,-2,-1,0,-1,-1,-2,-1,-1
1514898565868971,-1,-1,-1,-2,-1,-1,-1,-2
1514898565868971,-2,-1,-2,-1,-2,-1,-2,-1
1514898565870478,-2,-2,-2,-1,1,1,0,-1
1514898565870478,1,-2,0,-1,-2,0,0,-1
1514898565883469,-1,0,0,0,0,-1,0,-1
1514898565883469,-2,0,-1,-2,-1,-1,-2,-1
1514898565889983,0,0,-1,-2,-1,0,-1,0
1514898565889983,-1,1,0,0,1,-1,0,-1
1514898565906500,1,-2,-3,-1,-1,-1,-2,0
1514898565906500,-2,0,-1,-2,-1,1,-3,-1
1514898565909988,0,0,-1,-1,-1,0,0,-1
1514898565909988,-2,-1,0,-1,-2,-1,0,1
1514898565929501,-2,-1,-2,-1,1,-1,-1,-3
1514898565929501,1,-1,-2,0,-1,0,1,0
1514898565931002,7,0,0,0,-2,0,-1,-1
1514898565931002,2,1,-2,-1,0,-1,-1,-1
1514898565943013,-7,-1,-1,0,0,-1,-2,-2
1514898565943013,-2,0,-1,-2,0,-1,0,-2
1514898565953028,-16,-12,-2,0,-3,-4,-2,-5
1514898565953028,6,1,-2,0,1,0,0,1
1514898565966528,5,2,-1,-1,-2,-1,0,0
1514898565966528,0,2,1,1,0,0,0,3
1514898565968029,7,10,0,-1,-1,-2,-1,3
1514898565968029,-6,-13,-3,-2,-2,-1,-2,-6
1514898565989043,-2,-4,-3,0,-2,-2,-1,-2
1514898565989043,-1,3,0,-1,-1,-1,0,0
1514898565991545,4,-1,0,-1,0,-1,-1,-1
1514898565991545,3,2,-2,-3,-1,-1,-2,0
1514898566002554,3,3,0,0,-1,-1,0,1
1514898566002554,3,-3,-1,-1,-1,-2,-2,-3
1514898566011572,-4,0,-2,-1,0,-1,-1,0
1514898566011572,-9,-4,0,0,-1,-1,-2,-4
1514898566026570,1,-2,-1,-1,0,0,0,-1
1514898566026570,-4,0,-2,-2,-3,-1,-2,-3
1514898566028079,-2,-1,0,-1,-2,0,0,1
1514898566028079,-1,1,0,0,-2,-4,-1,1
1514898566049086,-1,-2,-1,1,-2,-2,-2,0
1514898566049086,-6,1,-1,1,0,0,-1,0
1514898566050598,-1,-3,-2,-1,0,-1,0,-2
1514898566050598,-2,-1,0,0,-1,0,0,0
1514898566062611,-1,1,0,-1,0,0,-1,-1
1514898566062611,1,-3,-2,-1,-2,-1,0,-3
1514898566077607,-1,-1,-1,-3,0,0,-1,-3
1514898566077607,-1,-1,-1,13,-2,0,-1,0
1514898566086613,-3,-2,-3,-15,-1,-3,-1,-1
1514898566086613,0,-1,-2,-3,-2,0,0,-2
1514898566088114,-2,-3,-3,1,-2,-1,1,1
1514898566088114,0,-1,1,-3,-1,0,-1,0
1514898566116634,0,-1,0,3,-2,1,1,-1
1514898566116634,-2,-2,-1,1,-1,-1,-3,-3
1514898566118148,-1,0,-2,-3,1,0,-2,0
1514898566118148,-1,0,0,0,1,-1,-2,0
1514898566131654,-1,-1,0,1,-2,-2,-1,0
1514898566131654,-2,1,-2,-3,-1,-2,-2,-2
1514898566133157,0,-2,-1,2,-1,-1,-1,-2
1514898566133157,0,0,-2,-4,0,-1,-1,-1
1514898566146664,-2,-3,-1,0,-2,-1,0,-1
1514898566146664,-2,-1,-2,0,-1,-1,-2,-2
1514898566149167,0,0,1,-2,-1,0,-1,-2
1514898566149167,0,-1,-3,-3,0,-2,-1,-1
1514898566169184,-2,-1,-1,-1,-1,0,-2,-1
1514898566169184,0,-2,0,-2,-1,0,0,-2
1514898566171687,-2,-2,-2,-1,-1,-2,-2,-1
1514898566171687,0,-1,-2,-4,-2,-3,0,0
1514898566182680,1,0,-2,-1,0,1,-2,-2
1514898566182680,-1,-2,0,0,-3,-3,-1,-1
1514898566199192,-2,0,0,-2,-1,-1,-1,0
1514898566199192,0,-2,-1,-1,-2,-1,-1,-2
1514898566206200,-2,-2,-1,1,0,0,-1,-1
1514898566206200,-1,-1,-2,-1,-1,-2,-1,0
1514898566208199,-1,-2,-2,-1,-1,0,0,-1
1514898566208199,-1,-2,-1,0,-2,0,-2,2
1514898566228713,-1,-2,0,0,0,-1,0,0
1514898566228713,0,-2,-1,-2,0,-1,0,-2
1514898566231730,2,-2,-1,-2,-1,-3,-1,1
1514898566231730,-1,-2,-1,-1,-2,0,0,-1
1514898566242722,-1,0,-2,-2,-2,-1,-1,-1
1514898566242722,-2,-2,-1,0,0,0,0,-1
1514898566251767,-1,0,-1,-1,-1,-1,-1,0
1514898566251767,-1,-2,-1,-2,0,-1,-1,-1
1514898566266252,-1,2,0,-1,-1,-2,0,-1
1514898566266252,-1,-2,-3,-1,-1,-1,-1,-1
1514898566268251,-2,-2,-3,0,-1,-2,-1,0
1514898566268251,-2,1,-1,-1,0,0,-3,-2
1514898566289256,-1,0,-1,0,0,-3,-1,-3
1514898566289256,0,-2,-1,-1,0,0,-1,0
1514898566290766,-1,-2,-1,-1,-1,0,-1,-1
1514898566290766,-1,-1,-2,-3,-1,-3,-2,0
1514898566302765,-2,-1,-1,-1,-2,-1,-2,-2
1514898566302765,1,0,-1,1,0,-1,-2,-2
1514898566311772,-1,-1,-1,0,-1,-2,-1,-1
1514898566311772,-1,0,0,0,-2,0,1,-1
1514898566326786,-2,-1,-1,-2,-1,-2,-1,-1
1514898566326786,-1,-1,-2,-2,-3,0,-1,-2
1514898566328284,2,-1,0,-1,-2,-1,0,-1
1514898566328284,1,-1,-1,-2,-1,-2,-1,-1
1514898566348807,-1,1,-2,-1,-1,-2,-2,-1
1514898566348807,-4,1,0,-2,-1,0,0,0
1514898566350799,0,-3,0,-1,0,-1,0,-2
1514898566350799,-1,-2,-2,-1,-1,-1,-1,-1
1514898566362816,0,-1,0,0,0,-1,0,0
1514898566362816,-1,-1,-1,-1,0,0,-2,-1
1514898566371814,-2,-1,-2,-2,-2,-1,0,-2
1514898566371814,3,-1,1,-1,-1,1,1,1
1514898566386324,-3,-2,-2,0,0,-1,0,-1
1514898566386324,-1,-2,-1,-3,0,-1,-1,-3
1514898566387825,-1,-1,-2,-1,0,-2,-1,-2
1514898566387825,0,0,-1,-1,-2,-1,-1,-1
1514898566409342,0,-1,1,-1,-2,-2,-2,-1
1514898566409342,-2,0,-1,-1,-1,-1,1,-2
1514898566410842,-1,-2,-1,-1,-1,-2,-3,0
1514898566410842,-4,-2,-2,0,-1,-2,0,0
1514898566431357,-2,-3,-2,-2,-2,-1,-1,-2
1514898566431357,-1,-1,-2,-1,-1,-1,1,0
1514898566433357,-1,-1,-1,-1,-2,-2,-1,-2
1514898566433357,-2,0,-1,0,1,-2,-2,-1
1514898566446367,-1,-2,0,-1,-2,0,-3,-2
1514898566446367,-1,-1,-2,-1,-3,-3,-2,-1
1514898566447868,1,-1,-2,0,-1,1,2,0
1514898566447868,-2,-2,-1,-1,-1,-2,-1,0
1514898566468882,0,-2,-2,-4,-2,1,1,0
1514898566468882,-2,-1,-3,-2,-2,-2,-2,1
1514898566471384,-2,-1,0,-1,-1,-2,-2,-1
1514898566471384,-1,0,0,-1,-1,1,0,-1
1514898566491422,-2,-1,-2,-1,-1,-1,0,-2
1514898566491422,-1,-2,0,-2,-2,0,0,-1
1514898566493403,-1,-3,-3,0,-2,-1,-1,-3
1514898566493403,-1,-1,-2,-3,-1,-1,-1,-1
1514898566505409,-2,0,-2,-1,-2,-2,-1,-1
1514898566505409,1,-2,-1,-2,1,-1,1,-2
1514898566513922,-2,0,0,0,0,-3,-3,-1
1514898566513922,-1,-2,-1,-1,-1,-2,-1,0
1514898566528926,-1,-2,-2,0,-1,1,-2,-2
1514898566528926,-3,-1,-1,-1,-3,-1,-2,-2
1514898566530426,1,-2,-1,0,-2,1,0,-1
1514898566530426,-1,-2,-2,-2,-1,-1,-1,-2
1514898566551453,-2,0,-1,-2,-3,-1,-1,-1
1514898566551453,0,0,-2,0,0,-1,-1,-2
1514898566552945,-1,0,0,0,-2,-1,-3,1
1514898566552945,0,-1,-1,-1,-1,-2,-2,-1
1514898566565951,0,0,-1,-1,-2,-3,-1,-2
1514898566565951,-1,1,0,-1,0,-2,-2,-1
1514898566572455,-2,0,-1,0,0,-2,0,-1
1514898566572455,-1,-2,-1,-2,-2,2,0,1
1514898566589470,-2,0,-1,0,-1,-1,-1,0
1514898566589470,-1,-2,-1,1,-2,0,0,1
