timestamp,emg1,emg2,emg3,emg4,emg5,emg6,emg7,emg8
1517207020881431,-2,-1,-1,0,-1,-1,-2,-2
1517207020881431,0,-2,0,1,-1,-1,1,1
1517207020881931,-2,0,-2,-1,0,0,-2,-2
1517207020881931,-1,0,-1,-3,-3,-4,-4,0
1517207020911954,-1,-2,-1,-1,1,-1,-3,-1
1517207020911954,0,-2,-3,-2,-3,-1,-1,1
1517207020912953,-2,-1,0,1,1,-1,0,0
1517207020912953,-1,-1,-1,-2,-2,1,0,-2
1517207020918459,-2,-1,-1,-2,-2,-1,-3,-2
1517207020918459,-1,-1,-1,-3,-1,-1,-1,1
1517207020926463,1,0,-1,2,0,-1,-2,1
1517207020926463,0,-1,-1,-2,-2,0,-2,-1
1517207020941474,0,0,0,-1,-2,-1,-1,-1
1517207020941474,-1,-5,-2,-2,-2,0,-1,-2
1517207020941974,0,0,0,-2,-1,-2,-1,-1
1517207020941974,-2,-1,0,0,0,1,2,0
1517207020964493,0,-3,-2,-2,0,-2,-2,-1
1517207020964493,-1,0,0,-1,1,-1,1,0
1517207020964990,-1,-3,-1,0,-2,-1,-1,0
1517207020964990,1,0,-1,-3,-3,-3,-1,0
1517207020987007,-1,0,-1,-1,-2,0,0,-2
1517207020987007,1,-1,-1,-1,-1,1,0,-2
1517207020988012,-1,-1,-1,0,-1,0,0,0
1517207020988012,-1,0,-2,0,-2,0,0,-1
1517207021001517,-1,0,0,-1,-1,0,0,-1
1517207021001517,-2,-1,-3,-1,-1,0,-3,-1
1517207021002019,-1,-3,-3,-2,-1,0,0,-2
1517207021002019,0,0,0,0,0,0,-2,-3
1517207021024033,-1,-2,0,-3,-2,-1,1,-1
1517207021024033,-3,-2,0,0,-3,-4,-3,-1
1517207021024533,1,0,-1,-3,0,0,-1,0
1517207021024533,-1,-1,-3,-2,0,-2,-1,0
1517207021047052,0,0,-2,0,-1,-2,-2,1
1517207021047052,0,-1,0,1,-1,-1,-2,0
1517207021047550,-2,-1,-1,-1,-1,-2,-3,-2
1517207021047550,-1,-2,-1,0,0,0,-1,-2
1517207021061068,-1,-1,-1,-1,-1,-2,-2,-1
1517207021061068,-1,0,1,1,-1,1,-1,1
1517207021062060,-1,-3,-1,0,-1,-1,-2,-2
1517207021062060,-1,0,-2,-1,-1,0,-1,-1
1517207021084103,-2,0,-5,-3,-2,-3,0,-2
1517207021084103,0,-1,-2,-2,2,-1,0,-1
1517207021084603,-2,1,-3,0,0,-2,-1,-1
1517207021084603,-2,-1,-1,-2,-2,0,0,0
1517207021107117,-1,0,-2,-1,-1,-1,-1,-1
1517207021107117,-2,-5,-4,-1,-4,-2,-2,-1
1517207021107616,-1,0,-1,-1,-2,-1,1,0
1517207021107616,-1,-1,-1,0,0,-1,1,0
1517207021121130,0,-1,1,0,-2,-3,-1,-1
1517207021121130,-1,-1,-1,-4,-2,0,-1,1
1517207021122127,-1,-2,-1,-3,-1,0,-2,-1
1517207021122127,0,-2,-1,0,0,-1,0,-1
1517207021143654,0,-2,-1,-1,0,1,1,0
1517207021143654,-1,0,0,-1,-2,-1,1,-2
1517207021144643,-2,-1,-1,-1,0,-1,-2,0
1517207021144643,0,0,0,-3,0,-2,-1,-2
1517207021167159,-2,-2,-1,0,-1,1,-1,0
1517207021167159,0,1,-2,0,2,0,-1,0
1517207021167662,-2,-2,-1,-1,0,1,0,0
1517207021167662,0,-1,-2,0,-1,0,0,0
1517207021181192,-1,-2,1,-1,-2,-2,-2,-1
1517207021181192,-2,-1,-2,1,-1,-2,-5,-2
1517207021182170,0,0,0,1,-1,1,0,-1
1517207021182170,-2,-1,0,-2,-2,-1,-3,-1
1517207021203710,-1,-2,-2,-1,-2,-3,1,0
1517207021203710,0,-1,0,-2,-2,-1,0,-2
1517207021204709,-1,-1,-2,-1,-3,-2,-3,-1
1517207021204709,-3,-1,-1,-1,0,-1,0,0
1517207021226737,-1,-1,-2,-2,0,1,-1,-1
1517207021226737,-2,0,0,-1,-1,-1,0,-1
1517207021227726,0,-1,-2,-3,-2,0,-2,-1
1517207021227726,-1,-2,-2,0,-2,-1,-1,-1
1517207021241235,-1,-1,-2,-1,1,-1,-2,-1
1517207021241235,0,-1,-1,-1,-1,-1,1,-1
1517207021242236,-1,1,0,0,-1,-2,-1,-2
1517207021242236,-1,-1,-2,-4,-2,0,-1,0
1517207021264270,-1,-1,0,3,0,0,0,-3
1517207021264270,-3,0,-2,-2,-1,-1,0,-3
1517207021271257,0,1,0,-2,1,1,-1,0
1517207021271257,-3,-2,-2,2,-2,-2,0,-1
1517207021287269,-1,-1,-1,-2,-1,-1,-2,1
1517207021287269,0,-2,-1,-1,0,-1,-1,-1
1517207021287769,-2,-1,-1,-3,-3,-1,-3,0
1517207021287769,0,0,0,-3,-1,-1,-2,0
1517207021301796,0,-2,-3,1,-3,-3,-2,-2
1517207021301796,-3,-1,0,-1,-1,-1,0,-1
1517207021302279,-1,-1,0,-2,-2,-1,1,-1
1517207021302279,0,-2,-1,-1,-2,-2,-2,0
1517207021323793,-1,-1,0,-2,-1,-1,-1,-1
1517207021323793,-2,-2,-1,-1,-2,0,1,1
1517207021324294,0,-3,0,-3,-1,-1,1,-1
1517207021324294,-1,-1,-1,2,0,-1,1,-2
1517207021346847,-1,-1,-1,0,-1,1,0,-1
1517207021346847,-2,-2,-1,-3,-1,-2,-2,-1
1517207021347848,0,-1,-2,1,-1,-2,-1,-2
1517207021347848,-2,0,-2,0,1,0,0,-1
1517207021361370,-1,-2,-1,-3,-1,0,-2,-1
1517207021361370,-1,-1,0,-1,-3,-3,-2,0
1517207021361859,-1,-1,-1,-2,-3,-1,1,0
1517207021361859,-1,-2,-1,-3,-3,-1,-1,-1
1517207021383874,0,-4,-3,1,-2,0,-1,-1
1517207021383874,0,0,-1,-2,1,1,0,-1
1517207021384874,-1,-3,-3,0,-1,-3,-2,-1
1517207021384874,-1,0,-2,0,-1,-2,-1,0
1517207021406899,-1,0,-2,-2,0,0,1,0
1517207021406899,-2,-2,0,-2,0,0,-1,-2
1517207021407891,-1,-1,-1,-1,0,-2,-4,-1
1517207021407891,0,-2,-2,0,-3,-1,-3,-3
1517207021421910,-1,0,-1,-1,-2,-1,-1,-2
1517207021421910,-1,-2,0,-2,0,-3,-2,1
1517207021422911,-2,1,-2,-1,-1,0,0,-2
1517207021422911,-1,-1,-1,-2,-1,-3,-2,-2
1517207021443915,-2,0,0,-3,0,0,-1,0
1517207021443915,-1,1,-3,1,-1,0,-1,0
1517207021445417,0,-2,-4,-3,-1,-2,-1,-1
1517207021445417,-1,-3,-1,-2,-1,-1,-1,-1
1517207021466941,0,-1,1,-1,1,-1,0,-2
1517207021466941,-1,0,0,0,-2,0,-1,-3
1517207021467932,-2,-1,-1,-1,1,0,-1,0
1517207021467932,-1,-2,-1,-2,-3,1,-2,-1
1517207021496956,-1,-1,-2,-3,-1,-2,-3,-1
1517207021496956,0,-1,-1,2,2,2,0,-2
1517207021497954,-2,-1,-2,-2,-2,0,-1,0
1517207021497954,-1,-1,0,-1,-2,-1,0,-2
1517207021503960,-2,0,-1,-2,-3,-1,0,1
1517207021503960,-1,-2,0,-2,-1,-1,1,-1
1517207021504462,-2,-1,-1,1,-1,0,0,-1
1517207021504462,-1,-1,-2,-2,0,0,-1,-1
1517207021526998,-2,-1,-1,-1,-1,0,1,1
1517207021526998,-2,-1,-3,-1,-1,-3,-1,-1
1517207021527998,0,-2,-1,-1,-1,-1,-1,0
1517207021527998,-1,-1,-1,-2,-2,0,3,0
1517207021541512,-1,-1,-1,0,-1,-1,1,-2
1517207021541512,-1,-2,-2,0,-1,-1,-2,-1
1517207021549015,0,0,-1,-2,-1,-3,-3,-2
1517207021549015,-1,0,-2,-1,-1,-2,0,1
1517207021564030,-1,-1,1,-1,-2,-1,-1,2
1517207021564030,-1,-4,-2,-1,-1,-1,-1,1
1517207021564524,2,7,-2,-3,0,0,0,-2
1517207021564524,-3,-18,0,-1,-3,-1,-3,-2
1517207021594560,-2,-4,-2,-1,1,-1,-2,-1
1517207021594560,-2,-1,-3,-3,0,-2,-1,-2
1517207021595560,-2,-4,1,2,-2,-1,-2,0
1517207021595560,0,4,-1,0,0,-1,-3,-1
1517207021600551,-1,-1,1,-1,-3,-2,-1,-2
1517207021600551,-1,-1,2,1,-3,-2,0,-2
1517207021609056,-2,-1,-2,-1,-1,-1,1,-2
1517207021609056,0,3,-1,-1,0,-2,-1,0
1517207021624073,-1,-2,-1,0,0,-1,-1,0
1517207021624073,-2,2,-2,-3,-2,0,0,-1
1517207021624567,-2,-2,0,-1,-1,-1,0,0
1517207021624567,0,2,0,0,0,-1,-1,0
1517207021647118,-1,-3,0,-1,0,0,0,-1
1517207021647118,0,2,0,-1,-1,-3,-3,-2
1517207021647618,-1,-4,-4,-1,-2,-1,-1,0
1517207021647618,-3,0,-1,-1,-2,0,-1,-1
1517207021660637,-2,2,-2,0,0,-1,-3,0
1517207021660637,0,-1,-2,1,-3,-1,-1,-1
1517207021669136,-2,-2,0,-2,-1,-2,-3,-1
1517207021669136,-2,-1,-2,-3,-1,0,-2,-1
1517207021684145,0,0,-3,0,-1,-2,-1,-1
1517207021684145,0,-1,-1,-2,0,0,-3,0
1517207021685146,-2,0,-2,0,-1,-1,-1,-1
1517207021685146,1,-1,-3,-2,1,-1,0,-2
1517207021707160,-1,-1,-1,-2,-1,-1,-1,-2
1517207021707160,0,-3,-2,-2,-1,0,0,0
1517207021707660,-2,-2,-1,-2,0,-1,-1,-1
1517207021707660,0,1,0,-2,-1,-1,-1,-1
1517207021720679,-1,-1,-2,-1,0,-1,0,0
1517207021720679,0,1,0,1,0,-3,0,0
1517207021728695,-1,-1,-1,-1,-1,-2,-2,0
1517207021728695,-2,0,-1,-1,-1,0,0,-1
1517207021743832,0,-1,-1,0,0,-1,0,-1
1517207021743832,-2,-2,0,-1,-1,1,0,0
1517207021745822,-1,-1,-1,-1,-2,-1,0,-3
1517207021745822,0,-1,-2,-1,-1,0,0,-1
1517207021767329,-2,0,-1,0,-2,0,-2,-1
1517207021767329,0,0,-1,-2,-1,-1,-1,-2
1517207021767829,-2,-2,0,0,-2,0,-2,1
1517207021767829,-1,0,1,0,0,-1,0,0
1517207021780852,0,-2,-1,0,-2,-2,-1,1
1517207021780852,-1,0,-1,-2,-2,-1,-1,-1
1517207021788853,-2,-2,-1,-2,-1,-1,0,-3
1517207021788853,0,0,1,-2,-1,-1,-2,0
1517207021803886,-1,-1,-1,-2,-1,-2,-2,-2
1517207021803886,-1,-4,-4,-1,-2,-1,0,-1
1517207021804385,0,-2,-1,-2,0,-2,-1,-3
1517207021804385,0,-1,0,0,-1,-2,-1,0
1517207021827405,-1,-1,-1,-4,-2,-2,-4,-2
1517207021827405,0,1,-1,0,-1,-1,1,-2
1517207021828402,0,1,-1,1,-1,-1,-1,0
1517207021828402,-2,-1,-3,1,2,1,-2,-2
1517207021840421,-2,0,-1,-1,0,0,-1,-3
1517207021840421,-1,-2,0,-3,-2,-2,-3,0
1517207021848919,-1,0,-2,-3,-2,-2,-1,-1
1517207021848919,-1,-1,-4,0,-1,-3,-3,-2
1517207021863936,-2,-2,-2,1,0,-2,-1,-2
1517207021863936,-2,-1,0,-2,0,-1,0,-1
1517207021864441,-1,-1,-2,-1,0,0,0,0
1517207021864441,0,-1,0,-2,0,-2,-2,1
1517207021886944,0,-2,-1,0,-1,0,0,-1
1517207021886944,0,-1,-1,1,-1,-1,-1,-3
1517207021887948,0,-1,1,-1,-2,0,-2,-2
1517207021887948,-2,0,-1,-1,-2,-2,1,-2
1517207021900954,-2,-1,-1,0,2,1,-1,1
1517207021900954,-2,-2,0,-2,-2,-1,-3,0
1517207021908958,-2,-1,-2,-1,-1,0,-1,-1
1517207021908958,0,0,-1,-2,-1,-2,-2,-1
1517207021923970,-1,1,-2,-2,-2,-2,-1,-2
1517207021923970,-2,-4,-1,-1,-1,0,-1,-1
1517207021924469,0,2,0,0,0,0,1,1
1517207021924469,0,0,1,-1,-1,-1,1,0
1517207021946995,-1,-2,-1,-2,0,-2,1,1
1517207021946995,-1,0,-1,0,-1,-1,-2,-2
1517207021948005,-1,-3,-3,-3,-1,0,-2,-1
1517207021948005,0,1,-2,2,0,-1,-2,-1
1517207021969502,-1,-2,-3,0,-2,0,-1,-2
1517207021969502,0,0,-1,-2,0,-1,-1,0
1517207021970503,-2,-1,0,-1,-1,-1,1,0
1517207021970503,-1,-1,0,-2,-1,-2,0,0
1517207021984014,-1,-1,-1,-1,0,-1,0,-1
1517207021984014,-3,-2,0,-1,-1,0,-1,-2
1517207021984516,-2,-1,-1,-2,-2,-1,-3,-3
1517207021984516,-2,-2,-3,-1,1,0,-1,0
1517207022007029,0,-1,0,-1,-2,-3,0,0
1517207022007029,0,-2,-1,0,-2,-1,0,0
1517207022008040,0,-1,-1,-1,0,-1,-2,-1
1517207022008040,-1,-2,-3,-1,-2,0,-1,-1
1517207022029432,-1,-1,0,0,-2,1,1,0
1517207022029432,-1,1,-2,0,0,-2,-1,-1
1517207022030412,0,-2,-2,1,-1,-1,-2,-1
1517207022030412,-2,-2,-1,-1,0,-1,0,-1
1517207022043931,-1,-1,-1,-4,-2,-3,0,-3
1517207022043931,0,-1,0,-1,0,-2,0,-1
1517207022044422,0,-3,0,0,-1,0,0,0
1517207022044422,-1,0,-2,-1,-2,0,0,0
1517207022066977,1,-2,0,0,-2,-2,-2,0
1517207022066977,-1,-3,-3,-3,-3,0,-1,0
1517207022067981,-2,2,-2,-2,0,-2,1,-2
1517207022067981,-1,-2,0,-1,-3,2,-1,-2
1517207022089508,-1,0,-1,1,0,1,-2,-1
1517207022089508,-2,-1,-3,-2,-2,1,-2,1
1517207022090509,-2,0,-2,-2,-1,-1,-2,0
1517207022090509,0,-4,-1,-2,-1,0,-1,-2
1517207022104018,-1,-1,-1,-1,-1,-3,-1,-1
1517207022104018,1,1,1,0,-2,-1,-1,-2
1517207022104519,-1,-1,-2,-2,-2,0,-1,-1
1517207022104519,-1,0,0,1,-3,-3,0,-1
1517207022134574,-1,-3,-1,-2,0,0,-1,-2
1517207022134574,-2,-1,-1,0,0,-1,0,0
1517207022135574,-2,-1,1,-1,-1,0,-1,0
1517207022135574,-1,-1,-1,-1,-1,-1,-3,1
1517207022150587,-1,0,-2,-3,-2,0,-3,-2
1517207022150587,-1,0,0,0,0,-1,-1,-1
1517207022151587,-1,-2,-2,0,-1,-2,-2,-2
1517207022151587,-1,0,-1,1,-1,-2,-2,-1
1517207022163095,-1,-2,-2,-2,-2,0,1,-2
1517207022163095,-1,-1,-2,-2,-1,-2,1,-1
1517207022172113,-1,-2,-2,0,-3,-1,1,0
1517207022172113,0,-1,0,-1,-1,0,-2,1
1517207022187123,0,1,-2,-1,-3,-1,-2,-1
1517207022187123,0,-1,-2,-1,0,-2,-1,-2
1517207022188624,-1,-2,-1,-1,0,0,-1,0
1517207022188624,-1,-1,-2,-1,-1,-2,-2,0
1517207022209628,0,-1,-1,-1,0,0,-1,0
1517207022209628,-2,-2,0,1,-1,-2,-1,-1
1517207022211129,-2,-1,0,1,-1,-2,-1,-2
1517207022211129,-1,-2,-1,0,-1,1,0,0
1517207022232153,-3,-2,-2,-2,-2,1,-1,0
1517207022232153,-1,0,-1,-1,-1,1,-3,0
1517207022233647,-1,-1,0,-1,-1,-2,-2,1
1517207022233647,-1,-2,1,-2,-3,-3,-1,-3
1517207022247153,-1,-1,-1,-1,-2,-1,-2,0
1517207022247153,-1,-2,-1,0,-2,0,-1,-1
1517207022248662,-1,0,-1,-2,-1,-1,0,0
1517207022248662,-1,0,-1,-1,-1,0,0,-1
1517207022269673,-1,0,0,0,-2,-3,-1,-2
1517207022269673,0,-2,-2,-1,-1,-2,-1,0
1517207022271171,-1,-1,-1,0,-1,-1,-1,0
1517207022271171,-1,-1,-2,0,0,-2,-2,1
1517207022291185,0,0,-3,-1,-1,-1,-1,-2
1517207022291185,-1,-2,0,-1,-1,-2,0,0
1517207022299690,-2,-3,-1,0,-1,-2,-3,-1
1517207022299690,-2,0,-2,-1,-1,-2,-1,0
1517207022314735,-3,0,-1,-2,-3,-3,-1,-2
1517207022314735,-1,0,-2,-1,-1,-2,-1,-1
1517207022316252,0,-1,0,-1,-1,0,-1,-1
1517207022316252,-3,-1,-2,-1,0,-1,-1,-2
1517207022329250,-1,-1,-1,-1,-3,-2,-2,1
1517207022329250,-1,-2,-1,-1,-1,-2,-1,-1
1517207022331231,0,0,0,0,-2,-2,-2,-1
1517207022331231,-1,-2,-1,-3,-1,-1,-1,-1
1517207022351800,-3,-2,-2,1,-1,0,-1,0
1517207022351800,-1,-1,0,0,-1,-1,0,-2
1517207022353803,-1,1,0,0,-2,0,-2,0
1517207022353803,-1,-2,0,0,-3,0,0,0
1517207022367312,-2,-1,0,0,1,0,1,-2
1517207022367312,0,-1,-2,-4,-1,-1,-1,0
1517207022368814,-4,-3,-2,0,0,-2,-1,-2
1517207022368814,0,-1,-1,-2,-1,-1,1,-1
1517207022389327,1,-1,0,-2,-2,-1,-1,-1
1517207022389327,-1,-1,-2,-1,0,-1,-1,-1
1517207022390828,0,-1,-1,-1,-1,-1,0,-2
1517207022390828,0,0,0,0,-1,-2,-3,-3
1517207022403337,0,-1,0,-1,-1,-1,-1,-2
1517207022403337,-3,-1,-1,-1,0,-1,0,-1
1517207022411843,-1,0,-2,-2,-3,0,1,0
1517207022411843,-2,-1,-2,-1,-3,-1,-1,-1
1517207022426854,0,-1,-1,-1,0,-1,0,0
1517207022426854,-1,-2,-1,0,-1,-3,-1,-2
1517207022428354,-1,-3,-1,0,-2,0,-1,-3
1517207022428354,0,-2,-2,-1,-1,-2,-1,-2
1517207022449371,-2,-1,0,-2,-2,-1,-1,-1
1517207022449371,-1,-1,-2,-1,-1,1,-3,-1
1517207022450871,-2,0,-1,-1,1,0,-3,-2
1517207022450871,-1,-1,-2,-1,-1,-2,-2,1
1517207022462879,-1,-1,-2,-1,-2,-1,-1,0
1517207022462879,-1,-3,0,-1,-1,-2,-2,1
1517207022471885,1,2,0,-1,-1,-1,0,1
1517207022471885,-1,-3,-3,-1,-1,0,-1,0
1517207022485907,-2,-2,-1,-3,0,-1,-2,0
1517207022485907,-1,0,0,1,-2,-2,0,-2
1517207022494901,-2,-2,-1,-1,-1,-1,-1,-1
1517207022494901,-1,0,-2,-1,-1,-1,-2,-2
1517207022516973,-2,-2,-1,0,-2,-2,-1,-1
1517207022516973,-1,-1,-1,-2,-1,-1,-1,-1
1517207022518474,-1,-2,-1,0,-1,-1,-2,-1
1517207022518474,-1,-1,-1,-1,-2,0,1,0
1517207022523481,-1,-1,-2,-1,0,0,0,-1
1517207022523481,-1,0,0,-1,0,0,-1,0
1517207022531983,-2,-2,-1,0,-1,-1,-1,-2
1517207022531983,-2,-1,0,0,-1,0,-1,1
1517207022546994,-1,-1,-2,-1,-1,-2,-2,-1
1517207022546994,-2,0,-1,-3,-2,0,-1,0
1517207022548495,-1,-1,-2,-3,-2,-2,0,-1
1517207022548495,-1,-2,0,-1,-1,-1,-1,-1
1517207022569509,0,0,0,-1,0,0,-1,-1
1517207022569509,0,0,-3,-2,-2,0,0,-3
1517207022571012,0,-2,-1,-2,-1,-2,-1,-2
1517207022571012,-2,-1,-2,-2,0,-2,-2,-3
1517207022583046,-1,0,-1,0,-2,-3,-1,-1
1517207022583046,-2,-2,-1,-1,-2,-1,0,0
1517207022592026,1,-3,-1,-1,-1,-1,-2,-1
1517207022592026,-2,0,0,-2,-1,0,-1,-2
1517207022607538,-1,-1,-2,-1,-2,1,0,1
1517207022607538,0,-2,-1,2,0,0,-2,-1
1517207022609039,-1,-2,-2,-3,-2,-2,-1,0
1517207022609039,-1,0,0,-1,-2,0,0,-1
1517207022629561,-2,-3,-1,0,0,-3,0,0
1517207022629561,-1,-1,-2,-2,-2,-1,-2,-2
1517207022631077,-1,-3,0,-1,0,-1,-1,0
1517207022631077,-1,-3,-2,-1,0,-1,-2,-1
1517207022643065,-1,1,-1,-1,-1,-1,-3,-1
1517207022643065,-1,0,-2,1,-1,-3,0,-1
1517207022652069,-2,-1,0,-1,0,-1,-2,0
1517207022652069,0,0,0,-1,0,0,-1,-1
1517207022667089,-2,-1,0,-2,-1,0,0,-2
1517207022667089,-1,-1,0,-2,0,0,-2,-2
1517207022668581,0,-1,-2,-1,-2,-2,0,-2
1517207022668581,-1,3,-1,-1,-1,-2,0,-1
1517207022689595,-1,-2,-1,0,-1,-1,0,0
1517207022689595,-2,-2,0,-1,-2,0,-2,-1
1517207022691096,0,0,0,-1,-4,-1,-1,-2
1517207022691096,-1,-2,-3,-2,0,1,0,-1
1517207022703107,0,1,-2,0,-2,-1,-1,-2
1517207022703107,-1,-1,-2,-1,-2,-3,0,-1
1517207022712111,-3,-2,-1,0,0,-1,0,1
1517207022712111,-2,-1,0,0,-4,0,-1,-2
1517207022727121,-1,-2,-1,0,0,0,0,-2
1517207022727121,-1,-2,-1,0,-1,-1,-1,-1
1517207022728622,1,2,-1,-2,-1,0,0,-1
1517207022728622,-2,-1,0,-1,0,0,0,-2
1517207022749652,0,-1,-1,-2,-1,0,-1,-1
1517207022749652,-1,-1,-3,-1,-2,-3,-3,0
1517207022751152,-3,0,-1,0,1,0,-1,0
1517207022751152,-1,-2,0,-2,-1,-2,-1,1
1517207022772168,-3,-2,0,0,-1,0,-1,-2
1517207022772168,-1,-1,-1,-2,0,1,0,0
1517207022773669,0,-1,0,-3,-1,-1,-2,-1
1517207022773669,-1,-1,-1,0,0,0,-2,-1
1517207022787186,-1,-2,0,-2,-1,-1,-1,0
1517207022787186,0,-2,-1,-2,-1,-1,-1,-1
1517207022788678,-1,-2,-1,-2,-1,-1,-2,-1
1517207022788678,0,-2,-1,-1,-2,-3,-4,-2
1517207022817200,-1,0,-2,0,0,0,0,-2
1517207022817200,0,0,-1,-2,-1,0,1,0
1517207022818701,-1,1,-1,-1,-1,-2,-1,-2
1517207022818701,0,0,0,-1,-2,-2,-1,-1
1517207022823204,-1,-2,-2,-2,-3,0,-2,-1
1517207022823204,-3,-2,1,0,-1,-2,-1,-2
1517207022832211,0,-3,-2,1,0,-1,0,-1
1517207022832211,-3,-2,-1,-1,-1,-3,-1,0
1517207022846720,0,-1,-2,0,-1,-3,0,0
1517207022846720,0,-1,-2,-1,0,-1,-1,-1
1517207022848721,-1,0,-1,-2,-2,-1,-2,0
1517207022848721,0,0,0,-1,0,-1,-1,-1
1517207022876742,-2,0,1,-1,-2,-2,-3,0
1517207022876742,-1,-2,-2,-1,-1,-3,0,0
1517207022878743,-2,0,-1,-2,1,-1,-1,-2
1517207022878743,-1,-2,-1,0,-2,0,0,0
1517207022891751,-1,-1,-1,-1,0,-1,0,-2
1517207022891751,-1,-2,-1,0,-3,-2,-1,-1
1517207022893761,-1,-2,-2,-1,-2,1,0,-1
1517207022893761,-2,-1,-3,-3,-1,-1,-1,-1
1517207022906786,0,0,-2,-1,-2,-1,0,0
1517207022906786,-1,-1,-2,-2,0,0,-1,-1
1517207022908765,-1,-2,-1,-1,-1,-2,-2,-1
1517207022908765,0,-1,-2,-1,-1,-3,-2,-1
1517207022929290,-2,0,-1,0,-1,1,-2,-1
1517207022929290,0,0,0,0,-1,1,1,-1
1517207022931280,-1,0,0,0,-2,-1,-1,0
1517207022931280,-2,-3,0,-2,-1,-1,-1,0
1517207022951796,-2,-2,-1,-3,0,-2,-2,-2
1517207022951796,-1,0,-1,-1,-2,-1,-1,-2
1517207022953798,-1,-2,-2,0,-1,-2,-2,-1
1517207022953798,-1,1,-2,0,0,0,0,-2
1517207022967805,-3,-2,-2,-2,-2,-2,0,0
1517207022967805,-2,-1,-1,0,-1,-1,-1,-1
1517207022969307,1,-1,0,-1,0,-1,-1,-2
1517207022969307,0,-1,-1,-1,-1,-1,0,-2
1517207022989320,1,-1,-1,-1,1,-1,-1,-1
1517207022989320,-1,-1,-1,-2,-3,-1,-1,-1
1517207022990822,-1,-2,-1,0,0,0,-1,0
1517207022990822,-1,0,-1,1,-1,0,0,-2
1517207023011836,0,0,-2,0,-2,-1,-1,0
1517207023011836,0,-1,-2,-1,0,0,-1,-1
1517207023013338,-1,-1,-1,-1,-1,0,-2,-1
1517207023013338,-1,-2,-1,-1,-1,-1,1,-1
1517207023026386,0,-2,-2,0,-2,-2,1,-1
1517207023026386,-1,-1,0,-2,-1,-1,-1,-1
1517207023040896,-2,-1,-1,-2,-1,2,-1,-2
1517207023040896,0,-1,-1,-1,-1,-3,-1,-1
1517207023049381,-1,-1,-1,-3,-1,-1,-1,0
1517207023049381,-2,-1,-3,0,-1,-3,-3,-1
1517207023050865,-1,-1,-1,0,-1,-3,-2,-3
1517207023050865,1,-1,-2,-2,-1,-1,-2,-1
1517207023071879,-2,-2,0,-1,-2,0,-2,-1
1517207023071879,0,-2,-1,-2,-1,1,-1,-1
1517207023073381,-2,0,-1,-2,-1,0,-2,-1
1517207023073381,0,-1,-1,-1,0,-1,-2,-2
1517207023086396,-1,-1,-1,-1,0,-1,0,-1
1517207023086396,-1,0,0,-1,1,0,-1,-2
1517207023092948,0,0,0,-2,-2,-1,-1,0
1517207023092948,-2,-1,-1,0,-2,-1,-1,0
1517207023109407,-2,-2,-2,-1,-2,0,-1,1
1517207023109407,-1,-2,-1,0,-1,-2,0,-1
1517207023110908,2,0,-3,1,-2,-1,0,-1
1517207023110908,-1,-1,0,-1,-2,-1,-1,-1
1517207023132043,-1,-2,-1,0,1,-1,1,-1
1517207023132043,-1,0,0,-1,-1,-2,-3,-1
1517207023133544,-2,0,0,-1,-2,-1,-1,0
1517207023133544,-2,-2,-2,-1,-1,-1,-3,-2
1517207023146074,0,-2,0,-1,-1,0,-1,0
1517207023146074,-1,0,-1,-2,-1,-1,1,0
1517207023153058,0,-1,-1,-1,-1,-2,0,0
1517207023153058,-1,-1,0,-1,0,-3,0,-1
1517207023169570,1,0,-3,-1,0,-2,-2,-1
1517207023169570,0,-2,-1,0,0,0,-1,-2
1517207023171073,0,-1,-1,-3,0,-1,-1,-1
1517207023171073,-1,2,-2,-2,1,1,0,-1
1517207023192096,-3,0,-1,-1,-1,-2,-2,0
1517207023192096,-1,1,0,-1,-2,-2,-2,-1
1517207023193587,-2,-3,-1,-1,-2,-1,-1,-2
1517207023193587,-1,-2,-1,-2,-1,-2,0,-2
1517207023206096,0,-2,-1,0,-1,-3,-2,-1
1517207023206096,-2,-1,-2,0,-2,-1,0,0
1517207023213127,-1,0,0,-1,0,0,-2,-1
1517207023213127,0,-3,-2,-1,-2,-3,-1,-2
1517207023237117,-1,-1,-2,-1,-2,1,-2,-1
1517207023237117,0,-1,-3,-1,-1,0,0,-1
1517207023238620,0,0,-2,-2,-1,-2,0,0
1517207023238620,0,-2,0,-2,-1,0,-2,1
1517207023252138,-1,-1,1,-1,0,-3,0,0
1517207023252138,-1,-2,-2,0,-1,0,-3,-2
1517207023253630,-1,0,-3,-2,0,-1,0,0
1517207023253630,-1,0,0,-1,-2,1,-1,1
1517207023266153,-1,-1,-2,-3,-2,-1,-2,-1
1517207023266153,0,-1,-1,-1,-2,-2,-1,0
1517207023273155,-1,-2,-2,0,0,-1,-1,0
1517207023273155,-2,0,-2,1,-1,-2,0,-2
1517207023289656,-1,0,-1,-1,-1,0,-1,-3
1517207023289656,-2,1,0,-2,-1,-1,-2,-2
1517207023291166,0,-2,-1,-1,-2,-2,-2,0
1517207023291166,-1,-3,-1,-2,-1,-1,0,-1
1517207023312172,-1,-2,0,0,-1,0,0,-1
1517207023312172,1,-1,-1,-1,-2,-1,-1,-1
1517207023313698,-2,-3,0,-1,0,0,-2,-2
1517207023313698,0,-1,-2,-1,1,-2,-1,-1
1517207023326247,-1,-2,-2,-2,0,-3,0,0
1517207023326247,-2,-2,-1,-1,0,0,-1,-1
1517207023334742,-2,-2,0,1,-2,-1,-2,0
1517207023334742,-2,0,-1,1,-2,0,-1,0
1517207023349250,-1,0,0,-3,-1,0,-1,0
1517207023349250,-2,-1,-1,-1,-2,0,-1,-1
1517207023351252,0,-1,-1,-1,-1,-1,1,-1
1517207023351252,-1,-1,-1,0,0,-1,-1,0
1517207023371766,0,0,-1,0,-2,1,0,1
1517207023371766,0,0,0,-1,0,1,0,0
1517207023373767,0,0,-1,-4,-1,0,-3,-1
1517207023373767,-1,-2,-1,-1,-2,-1,-1,0
1517207023385778,0,2,-1,1,1,-2,0,-2
1517207023385778,-2,-3,-1,-1,-1,-4,-2,1
1517207023394783,-1,-1,-1,-1,-1,1,-1,-2
1517207023394783,-1,0,-1,-1,-2,0,0,0
1517207023409293,-1,-1,0,-2,-1,0,-2,-2
1517207023409293,-3,0,0,-3,-1,0,-1,-2
1517207023411294,-1,-2,-2,-1,0,-2,-1,-1
1517207023411294,0,0,-2,-4,-1,-1,-1,-1
1517207023431831,-1,-2,-2,-1,-1,-1,0,-1
1517207023431831,1,-1,-2,0,1,-1,2,0
1517207023433310,-1,-2,0,-2,-1,-1,-2,-1
1517207023433310,-1,-1,-1,-1,-1,-2,-1,-2
1517207023446320,-1,-4,0,-2,-1,1,-1,-1
1517207023446320,-1,-1,-1,-1,0,-1,-3,-3
1517207023454825,-1,-2,-2,2,-3,-1,-1,-3
1517207023454825,-1,0,0,-1,-1,-1,-1,-1
1517207023469335,0,0,-1,-1,-3,-2,-2,1
1517207023469335,0,-3,1,-1,-2,0,-1,-2
1517207023470838,-1,-2,-1,-1,-1,-2,-1,0
1517207023470838,-2,-1,-4,0,0,-3,-2,-1
1517207023492355,-1,1,0,0,-1,-2,0,0
1517207023492355,-1,-1,-2,-1,-2,-2,-1,-2
1517207023493853,1,-1,0,-1,0,0,-2,-2
1517207023493853,0,-2,1,-1,0,1,-1,-2
1517207023505364,-1,-2,-1,-2,-2,-1,-1,-2
1517207023505364,-1,0,0,-1,0,0,1,1
1517207023520377,-2,1,-2,0,-2,1,0,-2
1517207023520377,0,-3,1,-1,-1,-2,-2,-1
1517207023529400,-1,-3,-3,-1,-1,0,-2,0
1517207023529400,-1,-3,-2,-2,0,-3,-1,-2
1517207023530879,-1,-2,-2,-2,-1,0,0,-2
1517207023530879,-2,-1,-1,-2,-2,-2,0,-1
1517207023551896,-3,-2,0,-1,-1,1,-1,-1
1517207023551896,-1,0,-2,-1,-1,-2,-2,0
1517207023553396,-1,0,-1,-3,-1,-1,-2,0
1517207023553396,-2,-3,-3,-1,-4,1,-1,-1
1517207023574409,-2,-1,-1,-2,0,-2,-1,-2
1517207023574409,-1,-1,-2,0,-1,-2,-2,-1
1517207023575911,-2,-1,-1,-1,-2,-1,-1,-1
1517207023575911,0,-1,0,-1,-2,-1,-1,0
1517207023589420,-1,-1,-2,-1,-1,-2,0,1
1517207023589420,-1,-1,-2,-1,-3,-1,-1,-1
1517207023590925,0,-1,-1,-2,-1,-1,0,-1
1517207023590925,1,-3,-2,1,1,0,-1,-1
1517207023612436,-1,-2,-2,0,-1,-1,0,-2
1517207023612436,0,-1,-1,-1,-1,0,-2,-1
1517207023613938,-2,0,-1,-1,-1,-2,-1,-2
1517207023613938,-2,0,-1,-2,0,-2,-1,-1
1517207023625461,0,-1,-1,-2,-1,-1,0,-2
1517207023625461,0,-1,0,-1,1,0,0,1
1517207023634452,-2,-1,0,-3,0,-2,-3,-3
1517207023634452,-1,-3,0,-1,-2,-1,-1,-3
1517207023649463,-1,-1,-1,0,-2,-3,-1,-2
1517207023649463,-2,0,-1,-2,-2,-3,-2,0
1517207023650965,-2,-1,0,0,0,0,-2,0
1517207023650965,-1,-2,-1,0,2,0,-1,1
1517207023679503,-2,-1,0,-1,1,0,-2,-2
1517207023679503,0,-2,-2,-1,-2,-2,0,0
1517207023680985,-1,-1,-3,0,0,-1,-1,-1
1517207023680985,-2,-1,-3,-2,-2,-1,-1,-1
1517207023685502,0,-2,-3,-1,-2,-1,-2,-2
1517207023685502,-2,0,0,-1,-2,0,0,-2
1517207023694494,-2,-2,0,0,-1,-2,0,0
1517207023694494,-1,0,-1,-1,-2,-1,-2,0
1517207023717010,-1,-1,-2,-1,-2,-2,-1,-1
1517207023717010,-1,-2,1,-2,-1,-1,0,-3
1517207023718524,1,-3,0,-1,-1,-1,0,-2
1517207023718524,1,1,0,-1,-2,0,0,0
1517207023739526,-2,-2,0,-2,-1,-1,-1,0
1517207023739526,-1,-2,-1,-2,0,-1,-3,0
1517207023741028,1,-1,0,-1,0,-2,-2,0
1517207023741028,-1,-2,-2,-2,-1,-2,0,-1
1517207023746031,-3,2,-1,0,0,-1,0,-1
1517207023746031,-1,-2,-2,0,-3,0,0,-2
1517207023754537,-1,-1,-3,0,-2,-1,0,-1
1517207023754537,-1,0,0,-1,0,0,0,0
1517207023769548,1,-1,0,-2,-1,2,0,1
1517207023769548,-2,-2,-3,0,0,-1,0,-2
1517207023771050,-1,-1,-2,-1,-1,-1,0,-1
1517207023771050,-1,-1,-1,0,-1,-3,-3,-1
1517207023792064,0,-3,-1,-1,0,0,-2,-1
1517207023792064,-1,0,-1,1,-2,0,-1,-1
1517207023793592,-2,-1,-2,-2,-2,-1,0,0
1517207023793592,0,-1,-1,-2,-1,0,-1,-1
1517207023822086,0,-2,-2,-3,0,-1,-1,0
1517207023822086,-1,0,-2,-3,-1,0,-2,-1
1517207023823587,0,-2,-2,-1,-2,0,0,-1
1517207023823587,-1,-1,-1,-1,0,-1,-2,-1
1517207023829622,-3,1,1,1,-2,-1,-2,-1
1517207023829622,-1,-2,-1,-1,-1,-1,-1,-2
1517207023831120,-1,0,-2,-2,-2,-1,-2,-1
1517207023831120,0,-2,-3,-2,0,-1,0,-2
1517207023852107,-3,-1,-3,-1,-2,-1,0,-1
1517207023852107,-1,-2,0,-1,0,-3,-1,0
1517207023853607,-1,0,0,-1,-1,-1,0,-1
1517207023853607,-2,-1,0,0,-1,-1,-1,-2
1517207023882642,1,-1,-1,-2,-2,-1,0,-2
1517207023882642,-1,0,0,-1,-1,-1,-2,-1
1517207023884131,0,-1,0,-1,0,-1,-2,-2
1517207023884131,-2,-1,-2,-1,-1,-2,1,-1
1517207023889633,-1,0,-2,-1,0,-2,-2,-1
1517207023889633,1,-1,-2,-1,-1,0,-1,0
1517207023891134,0,-1,-1,0,-3,-1,-2,-1
1517207023891134,-2,-1,-1,-1,-2,-1,-1,1
1517207023911692,-1,-1,-1,-1,-3,-1,-1,-2
1517207023911692,-3,-2,-1,-2,-1,-3,0,0
1517207023913709,-2,-1,-2,0,0,-1,-2,-1
1517207023913709,0,-1,-1,-2,-2,0,0,-1
1517207023934708,-3,-2,-1,-1,-2,0,-1,-1
1517207023934708,1,1,-2,-1,0,0,-2,0
1517207023936210,0,-1,-1,-1,-1,-1,0,0
1517207023936210,0,-2,-2,-1,-2,-1,-2,-1
1517207023949219,0,0,-1,-2,-2,-1,-2,-3
1517207023949219,-2,0,0,-1,-2,-1,-1,1
1517207023951220,0,-2,-1,-2,-1,-2,-1,-1
1517207023951220,0,-1,-2,-1,-2,-1,-1,0
1517207023971736,-1,-2,-1,-1,0,-1,1,0
1517207023971736,-1,-2,-2,-1,-2,0,-1,-1
1517207023973736,-1,0,-2,-2,-2,-2,-1,-1
1517207023973736,0,1,-1,-1,-1,-1,0,0
1517207023994266,-2,-3,-2,-1,1,-1,-1,0
1517207023994266,-2,-2,-2,-1,1,-3,0,0
1517207023996268,-1,-1,0,-2,-3,-1,-2,-2
1517207023996268,-2,-2,-1,-1,-1,-1,-3,-2
1517207024008260,-1,0,0,-2,0,-1,-2,0
1517207024008260,0,0,-2,-1,-2,-1,-2,-2
1517207024017268,-2,-1,-2,-3,-1,-1,0,0
1517207024017268,-2,0,-2,-2,1,-1,-1,-2
1517207024031792,1,-1,-1,0,-2,0,-1,0
1517207024031792,-2,-1,-2,0,-2,-1,-2,-2
1517207024033778,-2,-1,0,0,-2,0,-1,0
1517207024033778,0,-1,0,1,-1,-2,-1,0
1517207024054294,0,-2,-3,-1,-1,-1,0,-1
1517207024054294,0,-1,-1,-2,0,-1,0,-2
1517207024056301,-2,-2,0,-1,1,1,0,1
1517207024056301,0,-2,-1,-1,-1,0,0,-2
1517207024068804,-1,-2,-1,-2,-1,-2,-1,-1
1517207024068804,0,-1,0,-1,-1,-1,-1,0
1517207024075826,-1,-1,-3,-1,0,-3,-2,-1
1517207024075826,-2,-1,-1,0,1,1,-1,-1
1517207024091839,0,1,-2,-2,-1,-1,-1,-2
1517207024091839,-1,-1,-1,-1,0,0,-1,-1
1517207024093341,-2,1,-2,-1,-2,-2,0,-1
1517207024093341,0,0,1,-2,-2,-3,-2,-2
1517207024114355,-1,0,0,0,-2,0,-2,-2
1517207024114355,0,-1,-1,0,-2,1,-1,0
1517207024115856,-1,0,-2,-1,-2,0,-1,0
1517207024115856,-2,-1,-2,-1,-1,-1,-1,0
1517207024128869,-2,-1,-1,0,1,-2,-2,0
1517207024128869,-2,-1,0,-1,-3,-2,-1,0
1517207024135372,-1,2,1,0,0,-1,-3,-3
1517207024135372,-2,-1,-4,-2,-2,-1,0,0
1517207024150881,-2,-1,-2,-2,-1,-1,0,-2
1517207024150881,0,-2,-1,-1,1,1,-3,-2
1517207024159387,-1,-1,-1,-1,1,-2,-1,-1
1517207024159387,0,1,0,-1,-1,0,-2,-1
1517207024174398,-2,-1,-1,-1,0,-1,-2,0
1517207024174398,-1,0,-2,0,-1,-3,0,-1
1517207024175900,-2,-1,-2,-2,-1,-1,0,-1
1517207024175900,1,-1,1,-1,-1,-2,0,0
1517207024188909,0,-1,0,1,-1,-1,-1,0
1517207024188909,0,-1,-2,-1,0,0,0,0
1517207024195416,1,-2,-1,0,-2,-2,1,0
1517207024195416,-1,-2,-2,0,0,-1,-1,0
1517207024211924,-1,0,0,-2,-1,-1,-1,-2
1517207024211924,-1,0,-1,-2,-2,-1,-1,0
1517207024213425,0,-3,-2,-1,-1,1,-2,-3
1517207024213425,-1,0,-3,-1,-2,-2,-2,-1
1517207024234440,-1,0,-1,-1,-3,0,0,0
1517207024234440,-1,-2,-1,-2,-1,-2,-2,-1
1517207024235942,0,-2,-1,-3,0,0,-1,0
1517207024235942,-3,-1,0,-3,-1,0,-1,-2
1517207024248954,0,0,0,0,0,-1,-2,1
1517207024248954,-2,0,-2,0,-2,-2,1,-1
1517207024255468,-3,-1,0,0,-2,-1,-1,0
1517207024255468,0,-1,0,-1,-1,1,-1,-1
1517207024271982,0,-4,-3,-1,-1,-1,-1,1
1517207024271982,0,-4,-1,-2,0,0,0,-1
1517207024273483,0,1,1,-1,-1,-1,0,-1
1517207024273483,-1,-1,0,-1,-1,-1,-1,-2
1517207024294506,-2,-1,-3,-1,0,-1,0,-1
1517207024294506,-2,-1,-1,-2,-2,-1,-3,-1
1517207024296001,-1,0,-1,-1,0,0,-2,-1
1517207024296001,-2,0,-2,-1,-2,0,0,-2
1517207024316999,-1,-1,0,-1,0,0,1,-1
1517207024316999,0,-1,1,-1,-1,-1,-1,-1
1517207024318502,1,-1,-1,0,-2,-1,0,-1
1517207024318502,-1,0,0,0,-1,-2,-1,-1
1517207024332012,-2,-2,-1,-1,-1,-1,-4,-2
1517207024332012,-3,0,-1,-2,-2,-1,-1,-2
1517207024333511,0,0,-3,-2,-1,0,0,0
1517207024333511,-1,-2,0,-1,0,-2,-2,1
1517207024354525,-2,-1,0,-2,-1,-1,-2,-1
1517207024354525,0,0,1,0,-1,-1,-2,-1
1517207024356027,-2,-2,-1,-1,0,-1,-1,0
1517207024356027,-1,-4,-2,-2,-2,-3,0,-1
1517207024368035,-1,-3,-2,-2,-1,1,1,-2
1517207024368035,-3,-2,-1,-1,-1,0,-1,-1
1517207024377041,-1,-2,-1,-1,0,-2,-2,-3
1517207024377041,-1,0,-3,0,0,-1,-1,-1
1517207024392053,-1,-1,-1,-2,0,-4,-2,-1
1517207024392053,0,0,-2,-1,-1,-1,-2,0
1517207024393552,-2,-2,-3,-2,-2,-2,-2,-2
1517207024393552,-2,1,-1,-2,-2,0,1,-1
1517207024414592,-1,-3,0,-1,-1,0,0,-1
1517207024414592,-1,3,-1,-1,-1,0,0,0
1517207024416091,-1,1,-1,0,0,-1,-2,-2
1517207024416091,-2,0,-1,-2,-2,-1,-2,-1
1517207024428087,-1,-1,-4,0,0,0,-1,-1
1517207024428087,-2,-1,-1,-1,-1,0,-1,0
1517207024437083,-2,-1,1,-2,-2,-1,-1,-1
1517207024437083,1,-3,0,-1,0,-1,0,-1
1517207024452095,-1,0,0,-2,-4,-2,1,-2
1517207024452095,-1,-3,-1,1,-1,1,0,-2
1517207024453597,-1,-1,0,-1,-1,-2,0,-3
1517207024453597,0,-2,0,-2,-1,-1,-2,-2
1517207024474110,0,-2,-1,0,-1,-2,-1,-1
1517207024474110,-1,-1,-2,-2,1,-2,-3,-3
1517207024482115,-3,0,0,0,-3,-2,0,1
1517207024482115,-2,-1,-2,0,-1,-1,0,-1
1517207024488119,-1,2,-2,-2,-2,-2,-2,-1
1517207024488119,0,-2,-1,0,0,-2,0,-1
1517207024497126,0,-2,-2,-2,-2,-1,-1,-1
1517207024497126,0,-2,-1,-1,-1,0,0,0
1517207024512137,-1,-2,-1,-1,-4,0,-1,0
1517207024512137,-3,-1,-1,-1,-2,-1,-2,1
1517207024513653,-1,-2,-2,-1,0,0,-1,-1
1517207024513653,0,0,-2,-1,0,-1,0,-1
1517207024542168,-2,-3,2,-1,-1,0,0,-1
1517207024542168,1,-2,0,-2,-2,-1,-1,0
1517207024543659,0,-1,-2,0,-1,-1,0,2
1517207024543659,-1,-1,-3,-2,-2,-2,0,-2
1517207024548178,0,-1,-1,-2,1,0,-1,1
1517207024548178,-1,-3,-2,0,-1,-2,-2,-1
1517207024557169,0,-1,-1,-1,1,0,-3,-1
1517207024557169,0,-2,-1,1,-1,0,0,-2
1517207024572181,-3,0,-1,-1,1,-1,-2,-1
1517207024572181,0,-3,-2,-1,-1,0,-1,0
1517207024573681,-1,-1,-1,-3,-1,0,-1,-2
1517207024573681,-1,-1,1,-2,-2,-1,-2,-1
1517207024594198,-2,-2,-3,-2,-1,-1,-1,0
1517207024594198,-1,1,-1,-1,-1,0,0,0
1517207024596212,-1,-1,-2,0,-1,-1,0,-2
1517207024596212,-1,0,-1,0,-1,0,0,-1
1517207024608205,0,0,-1,-1,0,-1,-1,0
1517207024608205,-2,0,-1,-1,0,-2,-1,0
1517207024617210,-2,-1,-2,-2,-1,-1,-1,0
1517207024617210,-2,-2,-2,-2,-1,-1,-1,-1
1517207024631746,0,-1,-2,0,-3,-2,-3,-2
1517207024631746,-2,0,-2,0,-1,0,-1,-2
1517207024633747,-3,-1,-1,1,-1,-1,-1,0
1517207024633747,-1,-2,-1,0,0,-1,0,0
1517207024654753,-1,-1,-1,-3,0,1,0,0
1517207024654753,-1,0,-1,-1,-1,-1,-2,-3
1517207024656254,-1,-1,-1,-1,-1,-1,-1,0
1517207024656254,-3,1,-1,-2,1,-1,-4,0
1517207024668247,-1,1,0,-1,0,0,0,-2
1517207024668247,0,-1,0,-1,0,0,-1,-1
1517207024677253,-1,0,-2,-3,-3,-1,0,-1
1517207024677253,0,-1,0,0,0,-1,1,0
1517207024699272,0,-1,-1,-3,0,1,-2,0
1517207024699272,0,2,-2,-2,-1,-1,0,1
1517207024701271,0,0,-2,0,-2,-2,-1,0
1517207024701271,-1,-2,0,-1,-3,-2,-1,-1
1517207024714302,-2,-2,-2,-1,-1,-1,-2,-2
1517207024714302,-3,-2,-1,-1,-1,-1,-2,0
1517207024716290,-1,-1,0,-1,0,1,-1,-1
1517207024716290,-1,-1,-2,-1,-2,0,0,1
1517207024736796,-1,0,-1,-1,-1,-1,-2,0
1517207024736796,0,-1,-2,0,0,0,-2,-2
1517207024738799,0,-1,-1,-1,-1,-1,-2,-1
1517207024738799,-2,0,-1,-1,0,-2,-1,-2
1517207024752308,0,0,0,-1,-2,0,0,0
1517207024752308,-2,0,-1,-1,-1,-2,-1,-2
1517207024753809,-1,-1,-2,-1,0,-2,0,-2
1517207024753809,0,0,-1,-1,0,0,-1,-1
1517207024774321,-1,-3,-4,0,-1,-4,-1,-2
1517207024774321,0,0,0,0,-3,-1,0,-1
1517207024776334,0,-1,0,-1,1,0,0,-2
1517207024776334,0,0,0,-2,-1,-2,-1,-1
1517207024796838,0,-2,-1,-2,-1,0,-1,-1
1517207024796838,-2,-1,-1,-2,-1,-1,0,1
1517207024798339,-2,-2,-1,-1,-1,-2,-3,-1
1517207024798339,0,-2,-1,-1,-2,0,-2,-1
1517207024811849,-1,-2,-1,0,-1,0,-1,-1
1517207024811849,-2,0,0,-1,-1,-2,-1,-1
1517207024813370,-2,0,-1,-2,-1,-2,-1,-1
1517207024813370,-1,-2,-2,-1,-1,-1,0,-2
1517207024834364,-1,-2,-2,-1,-1,-1,0,-1
1517207024834364,-1,-3,-2,-1,-1,-2,-1,-2
1517207024835868,-2,-1,0,-2,-1,-1,-1,1
1517207024835868,1,0,0,-1,0,0,0,0
1517207024856880,-1,-1,-2,-1,-1,-2,0,0
1517207024856880,0,-1,-2,-2,-1,0,0,1
1517207024858381,-1,0,0,-1,-2,-2,0,-1
1517207024858381,-3,-4,-4,0,-2,-1,-2,-1
1517207024871909,0,0,0,-1,-2,-2,0,-1
1517207024871909,-1,-1,0,-1,-1,0,-1,-1
1517207024873393,0,-1,-2,0,-1,-2,-2,0
1517207024873393,-1,-1,-1,-2,-2,0,-1,-1
1517207024894928,-2,-1,-2,-1,0,-1,-2,-2
1517207024894928,-2,0,-1,-2,-1,-2,-2,-2
1517207024896414,-1,-2,-3,-1,0,-1,0,-2
1517207024896414,-2,-1,1,-3,-2,0,0,0
1517207024916926,-2,0,-2,0,0,-2,-1,-1
1517207024916926,0,0,0,-3,-2,-1,0,-1
1517207024918425,0,1,1,-1,-2,0,0,-1
1517207024918425,-2,1,-1,-1,-1,0,-1,-1
1517207024931433,-1,-1,1,-3,-2,-2,-1,-1
1517207024931433,-1,-2,-1,1,-1,-2,-1,-1
1517207024938438,-1,-2,-2,-1,-2,0,-1,-2
1517207024938438,1,0,-2,0,0,-2,-2,0
1517207024954950,-1,-1,-1,-1,-1,-1,-2,-1
1517207024954950,-1,-2,-3,-1,-2,0,-3,0
1517207024960453,-2,-2,-2,-1,-2,-1,-2,1
1517207024960453,0,-3,1,0,-2,-1,1,-2
1517207024976965,-2,-1,0,0,-1,-1,-1,-1
1517207024976965,-2,-2,0,-1,-2,-2,1,-1
1517207024978503,0,-1,0,-1,-1,-1,0,-2
1517207024978503,-1,-1,-2,-2,-2,-1,-1,-1
1517207024991475,0,-1,0,0,0,0,0,0
1517207024991475,-2,0,1,-1,-1,0,-1,-1
1517207024997980,-2,0,0,-2,-1,-2,-2,-3
1517207024997980,-1,-2,-1,-1,1,0,-2,0
1517207025014492,0,0,-1,0,0,0,1,0
1517207025014492,0,-1,-1,-1,-2,-1,-1,-2
1517207025015993,-2,-1,-1,-1,-2,-1,0,0
1517207025015993,0,0,-1,0,-1,-1,-1,-1
1517207025037026,0,2,-2,-2,-2,-1,-1,0
1517207025037026,0,-2,-3,-1,0,0,0,-1
1517207025038509,-1,-1,-1,-2,-1,-2,-1,0
1517207025038509,-1,0,-1,-1,-3,-1,-2,-1
1517207025051018,-1,-2,-2,0,-2,-1,-2,-1
1517207025051018,0,-1,-2,1,-3,0,0,-1
1517207025058035,-1,-2,-1,-1,-1,0,-1,-3
1517207025058035,0,-1,-1,-1,0,-1,-1,0
1517207025074535,0,-2,-1,-3,-2,-1,-2,-2
1517207025074535,-1,-2,-2,-1,0,-2,1,-1
1517207025076035,-1,-2,-3,1,-1,-1,0,0
1517207025076035,-2,0,-1,-1,-1,-2,0,0
1517207025097058,-2,-2,-1,-3,-2,-3,0,-1
1517207025097058,-1,-1,0,-1,-1,0,-2,-1
1517207025098551,-2,-2,-1,-1,-1,0,-1,-2
1517207025098551,-2,-1,-2,0,-1,1,0,-2
1517207025111097,0,1,-1,-1,-1,0,0,-3
1517207025111097,-1,-2,0,0,0,0,0,0
1517207025125607,0,-1,-2,-2,0,-3,-3,-1
1517207025125607,-1,-3,-1,-3,0,-1,0,-1
1517207025134612,-2,-1,-2,0,-3,-2,0,-2
1517207025134612,-1,-2,0,-3,0,-2,-2,-1
1517207025136117,0,-1,0,-1,0,0,0,0
1517207025136117,-1,-2,-1,-1,-3,-2,-2,0
1517207025157141,-1,-2,-1,-2,-1,-1,-1,0
1517207025157141,-1,0,-2,-1,-1,-1,-1,-1
1517207025158631,0,1,-1,-1,-2,-1,-1,0
1517207025158631,-1,-2,0,-1,-2,-2,-1,-1
1517207025171148,-2,0,0,0,0,0,-2,-3
1517207025171148,-1,0,-1,-1,-1,-2,-3,-1
1517207025178153,-1,-1,0,-1,0,-1,-1,0
1517207025178153,-2,-2,-1,1,1,-1,-1,-1
1517207025194655,0,-1,-2,-3,-1,-3,-1,0
1517207025194655,-1,0,-2,-1,-1,1,-1,-1
1517207025196159,-1,0,-2,-1,-1,1,-2,-1
1517207025196159,-2,1,-1,-1,-2,0,0,-1
1517207025216740,-1,-2,0,-1,-1,-1,0,-2
1517207025216740,-2,0,-1,-1,-1,-1,-2,0
1517207025218707,1,-2,0,-1,-1,1,0,-2
1517207025218707,-1,-2,-1,0,0,-1,-1,-1
1517207025231217,-1,0,0,0,0,-2,-2,1
1517207025231217,-1,-1,-1,-2,-1,-1,0,-2
1517207025238220,-1,1,-1,-1,0,-1,-3,-2
1517207025238220,0,0,-2,0,-2,0,-1,-1
1517207025255240,-1,-1,-2,0,-1,-1,-1,-1
1517207025255240,-2,-3,-1,-1,-2,-2,0,1
1517207025256734,-3,-3,-2,-2,-2,-2,0,-1
1517207025256734,-1,-2,0,-1,-1,0,-1,-3
1517207025277247,-2,0,-1,-2,-2,-1,-1,-1
1517207025277247,0,-2,-1,0,-1,-2,0,0
1517207025278771,-1,-2,-1,0,0,0,0,-1
1517207025278771,-1,0,-1,-2,-4,-1,-2,-1
1517207025290757,-1,-2,-3,0,0,0,-1,-2
1517207025290757,-1,-1,-2,0,0,1,-1,1
1517207025299763,-1,0,-1,0,-2,-2,-1,0
1517207025299763,-2,-1,-1,-2,0,0,0,-1
1517207025314300,-2,0,-1,-1,-1,-2,-1,0
1517207025314300,-1,-2,-2,-1,-2,-2,-1,-3
1517207025316274,1,-2,-1,1,1,-1,0,0
1517207025316274,-1,-1,0,-1,-1,-2,-2,-1
1517207025344804,0,-1,-2,0,-1,-1,-2,-1
1517207025344804,-1,-1,0,0,0,-1,-2,0
1517207025346808,-1,0,0,-2,-4,-1,0,-1
1517207025346808,0,-2,-2,-2,-1,-1,-3,0
1517207025350314,-2,-1,-1,-2,0,0,-2,1
1517207025350314,-2,0,-2,0,-2,0,-2,-2
1517207025359305,-2,1,-1,-1,-2,-2,-2,-2
1517207025359305,0,-1,0,0,-1,0,-1,-2
1517207025374328,-1,-1,0,0,-2,-2,0,0
1517207025374328,0,1,0,-1,-1,-1,0,-1
1517207025375816,-2,-5,-4,-2,-1,-1,-2,0
1517207025375816,-1,-1,-1,-2,-2,-1,0,1
1517207025395834,0,-2,1,-2,-1,0,-1,-1
1517207025395834,-2,-2,0,-1,-1,-2,0,0
1517207025404338,0,-1,1,0,-3,-2,-2,0
1517207025404338,0,-1,-1,-1,-1,-2,-1,-2
1517207025410353,-1,-1,-3,-2,-1,0,0,0
1517207025410353,0,-2,0,-2,-1,-2,-1,0
1517207025419850,-1,-1,-3,-2,1,-1,-1,0
1517207025419850,-2,-1,-1,-1,-1,-2,-2,-2
1517207025434358,-1,-2,0,-1,0,-1,-1,-3
1517207025434358,-1,-1,-2,-1,-1,-1,-1,0
1517207025435860,-2,-3,0,-2,-1,1,-2,0
1517207025435860,0,-1,0,-1,1,-1,1,0
1517207025456878,1,-1,-1,-1,-1,-1,0,-1
1517207025456878,-2,-1,-3,-1,-1,-1,-2,-1
1517207025458376,-3,-1,-1,0,-2,0,-2,-1
1517207025458376,-1,-1,-2,-1,-3,-1,0,-1
1517207025470383,-2,-1,-1,1,1,-1,0,1
1517207025470383,-1,-1,-1,0,0,1,0,-2
1517207025479391,-1,1,-1,0,-1,-2,0,-2
1517207025479391,-2,1,-2,-1,-2,0,-1,0
1517207025494401,-2,-2,-1,-2,-3,-1,0,-2
1517207025494401,0,-2,-2,0,0,0,-1,-3
1517207025495902,-1,-1,-2,0,0,-1,-2,-1
1517207025495902,0,-3,-1,0,0,-2,-1,-1
1517207025516916,-1,-1,-1,-2,-2,-1,-2,-2
1517207025516916,-2,-1,0,-1,-1,0,-1,0
1517207025518419,0,-1,0,-2,-1,-1,-3,-2
1517207025518419,-1,-1,-2,0,1,-1,-1,0
1517207025530429,-1,-1,-3,-1,0,-1,-2,-1
1517207025530429,-1,-3,0,-2,-2,-2,-2,-2
1517207025539433,-1,-1,-2,-1,-1,0,-1,0
1517207025539433,-2,-2,0,-1,0,-1,-1,-2
1517207025554455,-1,0,0,-1,-2,-1,-1,-2
1517207025554455,-1,0,-1,-1,-1,0,-1,-1
1517207025555946,-1,-1,-1,0,0,-2,0,-1
1517207025555946,-1,1,0,1,0,0,1,-1
1517207025576959,-1,-4,-1,-2,-2,-1,-2,2
1517207025576959,0,-1,-1,-2,-1,-1,0,-1
1517207025578473,-1,-1,0,-1,-2,-1,-2,0
1517207025578473,-1,0,-2,0,-2,-2,-1,0
1517207025590468,-2,0,-1,-1,-1,0,-1,-2
1517207025590468,0,-2,-3,-1,-1,-1,0,0
1517207025599510,-1,-1,-1,0,-1,-1,-1,-2
1517207025599510,0,-1,-2,0,1,-1,-1,0
1517207025614562,0,0,-2,-1,-2,0,-1,-1
1517207025614562,0,-1,-2,-1,-2,-2,-2,0
1517207025616021,0,-2,-1,-2,0,-1,1,-2
1517207025616021,-1,-2,0,-1,-1,0,-1,-1
1517207025636536,-2,-1,-1,0,1,0,0,-3
1517207025636536,-2,-1,0,1,-1,0,-1,-1
1517207025643041,0,-2,-1,-1,-4,-2,-1,1
1517207025643041,0,1,0,-3,0,-3,-2,-1
1517207025650549,-1,-1,-2,-1,-1,-2,0,0
1517207025650549,-1,0,-2,-1,1,0,-1,-1
1517207025659553,0,-1,-2,-1,0,-1,-1,-1
1517207025659553,-2,-2,-1,-1,-1,0,-1,0
1517207025674075,-1,-2,0,0,-2,-2,0,-1
1517207025674075,-2,0,-2,-1,0,-1,-1,-2
1517207025680606,-2,0,-2,0,-2,0,-1,0
1517207025680606,-1,-2,-2,-2,-2,0,0,1
1517207025696614,-1,-2,0,-2,0,-3,-2,-1
1517207025696614,-1,-2,-1,-2,-1,-1,-2,0
1517207025703086,-1,-2,-1,0,-1,1,-1,-1
1517207025703086,0,-1,-1,-1,-1,-2,-3,-2
1517207025719596,-1,0,-2,0,-2,0,-2,-1
1517207025719596,0,0,-2,-2,-2,-3,-1,0
1517207025721106,-1,-1,-1,-2,-1,-2,0,-2
1517207025721106,-1,-1,0,-1,-1,-1,0,-1
1517207025734607,0,-2,-2,-1,-3,-3,-1,-1
1517207025734607,-1,0,-2,-1,-1,-1,-2,-1
1517207025736108,-1,-1,-2,-2,0,1,-2,-2
1517207025736108,-1,-2,-3,-1,-1,-2,-1,-2
1517207025764640,0,-1,-1,-1,0,-2,-1,-1
1517207025764640,-2,0,-4,-1,-2,-1,-1,-1
1517207025766128,-1,-2,0,-3,-2,-1,-1,-2
1517207025766128,-2,-1,-2,-1,-2,-1,-3,-1
1517207025779637,-1,-1,-1,-2,-1,1,-1,-2
1517207025779637,-1,-2,0,0,0,0,-1,-1
1517207025781139,0,-2,-1,0,-1,-1,-1,-1
1517207025781139,0,-1,0,1,-1,-1,-1,-3
1517207025794648,-1,-2,0,-1,0,-1,-1,-1
1517207025794648,-1,-1,-2,-1,-2,-1,0,0
1517207025796164,-1,-1,-2,-1,0,0,-1,0
1517207025796164,-2,-1,0,-2,-1,-2,0,-1
1517207025824675,-2,0,-2,0,1,1,-2,0
1517207025824675,-1,-3,0,-1,-2,-1,0,-2
1517207025825683,-1,-1,-2,-2,-1,-3,-2,0
1517207025825683,-1,-1,-1,-1,-1,0,0,-1
1517207025839702,-1,-1,-1,-2,0,-3,-2,-2
1517207025839702,0,-1,1,-1,0,-1,-1,0
1517207025841202,-1,-2,-2,-2,-2,-1,-2,-1
1517207025841202,-1,-2,0,-2,0,0,-1,0
1517207025853690,-1,-2,-1,-1,-2,-1,-1,-2
1517207025853690,0,-1,-1,-1,-1,0,-1,-1
1517207025860707,0,1,0,0,1,-2,-1,0
1517207025860707,-1,1,-3,0,-2,1,-1,-1
1517207025877206,-1,-1,0,0,0,-1,-1,1
1517207025877206,1,-1,0,1,-1,-2,-1,-1
1517207025878207,-1,-1,-1,-2,-1,-1,0,-2
1517207025878207,-1,-1,0,-1,0,-2,-1,0
1517207025899225,-1,0,-1,-1,-1,-1,0,0
1517207025899225,-2,0,-2,-1,0,-2,-2,-2
1517207025901224,-2,0,-1,0,-1,-2,0,-1
1517207025901224,-2,-1,-2,0,0,-2,0,-1
1517207025913754,0,-2,-2,-1,-2,-3,0,-1
1517207025913754,-1,-2,0,-1,-1,0,-2,0
1517207025920259,-2,-1,-1,-1,-2,-2,-2,-2
1517207025920259,-2,-1,-2,-2,0,0,-2,-2
1517207025936793,0,-2,-2,-1,-1,0,-1,0
1517207025936793,-1,-1,-2,-2,-1,-2,0,-1
1517207025938295,-1,-1,-2,-1,-1,-1,-1,0
1517207025938295,-1,-1,-1,-2,0,0,0,-1
1517207025959808,-1,0,-1,-1,-3,-1,0,-1
1517207025959808,-2,-1,-2,0,0,-2,0,0
1517207025961310,-1,-1,0,-2,0,-2,-1,0
1517207025961310,-1,-1,-2,1,-2,0,-1,-1
1517207025973835,-2,-1,0,-1,1,-2,0,-1
1517207025973835,-2,-2,-1,-3,-3,-1,-2,0
1517207025987841,-1,-2,-2,-1,-2,0,-1,-2
1517207025987841,-2,0,-1,0,0,-2,-2,-1
1517207025996835,-1,0,-1,1,-1,0,-1,0
1517207025996835,-1,-2,-1,-1,0,1,0,-1
1517207025998336,-1,-1,0,-2,0,-2,0,0
1517207025998336,0,0,-2,-2,-1,0,-2,-1
1517207026019371,0,-2,-1,-1,-2,-2,-1,-2
1517207026019371,0,1,-1,-2,-1,-1,-1,-1
1517207026020852,-2,0,-1,-1,-2,1,0,-1
1517207026020852,1,0,0,-1,-2,-1,-2,-1
1517207026033864,0,-1,-2,0,-2,-1,0,0
1517207026033864,-2,-1,-3,-1,-1,-2,-1,-2
1517207026040366,-2,-1,0,-2,-2,1,1,-1
1517207026040366,-1,-1,0,0,-2,-3,0,0
1517207026056877,-1,-1,0,-3,0,-1,-2,-1
1517207026056877,0,0,0,0,-1,-1,-2,0
1517207026058399,-1,-2,-2,0,-1,-2,-1,-1
1517207026058399,-2,-1,-2,-2,-1,0,-1,0
1517207026079403,-2,-2,-1,-1,-2,1,-1,-1
1517207026079403,0,-1,0,0,-2,0,1,-2
1517207026080904,-1,-1,-1,-2,-1,-3,-2,-2
1517207026080904,0,-1,-2,-1,1,0,-1,-2
1517207026093904,-1,-2,-2,-1,0,-1,-1,0
1517207026093904,-1,0,-1,-2,0,0,0,-2
1517207026100423,-2,-2,-1,2,-1,-1,-2,1
1517207026100423,-2,-1,0,-2,-2,0,-1,-2
1517207026116920,-1,1,-1,-3,-2,-1,-1,-1
1517207026116920,-2,-1,0,-2,-1,0,-1,0
1517207026118421,0,-2,-1,-2,0,-1,0,-1
1517207026118421,-2,0,-1,0,-1,-1,0,0
1517207026139436,-2,-2,-1,-1,-2,0,0,-1
1517207026139436,-1,-1,-1,-2,-1,-1,-2,0
1517207026140938,0,-3,-2,-1,0,0,-1,0
1517207026140938,0,-1,-1,-2,0,-1,-2,-1
1517207026153949,-2,1,0,-1,0,-3,-2,0
1517207026153949,0,-1,-1,-2,-1,-2,-3,1
1517207026160460,0,-1,3,1,0,-1,0,0
1517207026160460,0,0,-2,-2,-2,-1,-1,-1
1517207026184968,0,-2,-2,-1,-2,-1,0,-2
1517207026184968,-2,1,0,0,-2,1,0,-1
1517207026186470,-3,-2,-6,-3,-3,-1,-3,-1
1517207026186470,-3,-3,-1,-2,-2,-1,-1,-2
1517207026214992,-2,-1,-2,-1,1,-2,-2,-2
1517207026214992,0,0,-2,-1,-2,0,-2,-1
1517207026216490,-1,1,-2,0,-2,-3,-1,0
1517207026216490,-3,-2,1,0,-1,1,-1,-1
1517207026217491,5,1,-3,-2,0,-3,-1,0
1517207026217491,2,-4,-1,0,-1,1,-2,-1
1517207026221995,-8,0,0,1,0,-1,-2,0
1517207026221995,-12,-2,-2,0,0,-3,-1,-1
1517207026237004,1,-3,1,-1,-1,0,-1,2
1517207026237004,2,2,-2,-2,0,-2,-1,-1
1517207026238519,-5,-8,-1,-1,-1,-2,0,-2
1517207026238519,4,-1,-3,-1,-1,-1,-3,-1
1517207026259552,-2,3,-2,-2,0,0,-1,-1
1517207026259552,-3,-2,-2,-1,-1,-2,-1,-1
1517207026261053,1,9,0,1,-1,1,1,-2
1517207026261053,3,-3,-1,-2,0,-2,1,2
1517207026273061,-7,-5,-1,-1,-3,-1,-3,-1
1517207026273061,0,-6,0,0,1,-1,0,0
1517207026282116,4,3,0,-1,0,0,-2,0
1517207026282116,12,8,1,1,0,0,0,0
1517207026297079,-5,3,-2,-1,-2,-1,1,-2
1517207026297079,-15,-16,-5,-4,-2,0,-2,-4
1517207026298580,0,0,-1,0,-2,1,-1,0
1517207026298580,2,-5,1,1,0,-1,3,10
1517207026319610,-1,0,0,-1,-1,-3,-5,-13
1517207026319610,-1,3,-1,-1,-2,-1,-2,-2
1517207026321095,-2,-4,-3,-1,-2,-1,-2,-3
1517207026321095,0,2,1,1,-1,-1,-1,-2
1517207026333104,2,1,0,-2,-1,-1,2,6
1517207026333104,3,1,-2,1,0,-1,-1,-1
1517207026342110,-1,0,-1,-2,-4,-2,-2,1
1517207026342110,-13,-4,-3,-3,-2,-3,-5,-5
1517207026357133,2,-5,-1,1,-1,1,0,0
1517207026357133,9,6,-1,-3,-1,-1,-1,-2
1517207026358633,2,2,1,-2,1,-1,1,2
1517207026358633,-8,-4,-3,-2,-2,0,1,-4
1517207026379669,-4,-6,-1,-2,-2,-2,-2,-5
1517207026379669,-1,1,1,0,-1,0,1,1
1517207026381198,-3,-1,-1,-1,-1,-4,-1,-1
1517207026381198,2,-4,-3,0,-1,-1,-2,-3
1517207026402154,5,4,-3,-1,2,1,-1,3
1517207026402154,5,7,1,2,-1,-2,-1,0
1517207026403655,13,-5,-3,-1,-2,-1,0,0
1517207026403655,-7,0,-2,-6,-4,-3,-3,-4
1517207026416175,-4,-5,0,0,-1,-1,-1,-1
1517207026416175,3,3,-1,1,2,-1,0,1
1517207026424668,-10,-3,-3,-3,-2,-2,-1,10
1517207026424668,9,9,0,1,-1,1,-1,-10
1517207026439683,-9,-11,-4,-1,-4,-2,-2,-3
1517207026439683,-2,-11,0,-5,-2,-1,2,5
1517207026441182,9,-5,-1,1,0,0,-1,-4
1517207026441182,0,3,-2,-1,0,0,1,6
1517207026453191,5,12,0,-3,-3,0,-2,2
1517207026453191,-10,-1,3,1,-2,-1,-2,-3
1517207026462205,-11,-12,-4,-4,-2,-2,-2,-4
1517207026462205,0,-1,2,0,-2,1,0,0
1517207026477208,3,-3,-6,-3,0,-3,0,-1
1517207026477208,-1,-6,-6,-4,1,-1,-2,-4
1517207026478716,-6,15,9,4,-1,1,0,-4
1517207026478716,14,-7,2,6,0,-2,-2,0
1517207026499290,-3,-4,1,-1,0,0,0,3
1517207026499290,3,2,-6,-8,0,2,4,4
1517207026500777,2,-8,-12,-7,-3,-2,1,-6
1517207026500777,-2,-3,7,3,2,-1,-8,0
1517207026513795,12,4,4,-3,-2,0,2,4
1517207026513795,-28,-3,0,9,5,1,-3,-5
1517207026521793,20,7,3,0,1,2,6,17
1517207026521793,-16,-3,1,2,2,0,-1,-12
1517207026545309,-9,-6,0,10,-2,-2,0,2
1517207026545309,-15,-4,-4,-18,-1,-2,-2,-6
1517207026547310,-27,-7,-1,-4,-4,-2,-3,-4
1517207026547310,6,2,5,0,-2,-2,1,4
1517207026566883,0,5,1,3,1,0,-4,-8
1517207026566883,17,4,-8,-8,-5,-3,-1,0
1517207026567824,-2,4,-1,0,1,0,0,-3
1517207026567824,-13,-15,-16,-10,-4,-4,1,-5
1517207026581335,10,-1,-1,0,3,0,-8,0
1517207026581335,-3,7,7,10,-1,-1,-1,7
1517207026581833,-2,-8,-3,-2,1,-2,-7,-13
1517207026581833,-11,16,-1,-8,-2,1,-1,-3
1517207026596359,15,-11,-5,-4,-2,-2,3,7
1517207026596359,-2,2,-1,0,-2,-3,-8,-10
1517207026596846,-5,10,5,2,1,3,5,4
1517207026596846,-8,-22,-4,2,-1,0,-1,-3
1517207026626874,-7,4,-5,-4,1,-2,3,-4
1517207026626874,-3,-6,6,1,-2,-3,-1,1
1517207026627867,6,-1,-7,0,-3,-4,-6,-7
1517207026627867,-30,-3,-3,-3,-1,0,1,-1
1517207026641376,1,0,1,0,-1,0,1,12
1517207026641376,15,9,0,3,0,-1,-2,-11
1517207026641877,0,-11,-2,-1,1,0,1,8
1517207026641877,11,7,-1,2,-3,-2,-2,9
1517207026657908,-5,7,-1,-3,-2,0,1,-17
1517207026657908,1,3,2,4,0,-1,-4,8
1517207026658401,-9,-11,-2,-2,-1,-3,-4,-9
1517207026658401,13,-4,-7,-4,-2,-1,-1,4
1517207026678904,-21,0,6,2,-1,0,-4,-6
1517207026678904,37,-6,-5,-2,-3,-2,7,7
1517207026679405,-4,14,1,-1,-1,-2,-3,-1
1517207026679405,5,-6,-2,-10,-1,1,-1,4
1517207026701456,-3,7,1,2,0,1,3,-9
1517207026701456,-26,-12,-5,1,-2,-2,-7,-11
1517207026701955,21,-3,-4,-4,-2,1,-1,0
1517207026701955,0,0,4,-3,0,0,3,1
1517207026715974,-3,-2,-9,-4,-2,-3,-4,-4
1517207026715974,-1,3,-4,-6,2,0,3,2
1517207026716966,-1,-4,0,4,1,1,4,-1
1517207026716966,1,2,1,-1,0,0,-3,8
1517207026738482,-1,-5,-7,-6,-4,-3,-7,-17
1517207026738482,-25,-10,-2,2,1,-1,-1,-1
1517207026739497,-18,-8,1,5,1,0,3,-2
1517207026739497,9,0,2,3,-1,-2,4,-2
1517207026761020,-9,-3,-1,1,-3,-1,-5,8
1517207026761020,19,3,5,-7,-4,0,-3,-10
1517207026762021,-2,3,1,1,-1,-2,2,-3
1517207026762021,13,-14,-10,-5,-3,-3,-2,-4
1517207026776031,-12,-11,-3,-7,2,1,2,0
1517207026776031,-2,4,-2,-3,0,1,-1,8
1517207026777034,6,8,8,0,0,2,4,0
1517207026777034,-1,-1,-8,4,-2,-2,-2,-7
1517207026798619,1,1,5,4,0,0,-13,-7
1517207026798619,-2,0,-3,5,-1,1,2,-4
1517207026799604,9,7,-5,-22,-3,-5,-4,5
1517207026799604,-1,6,9,15,5,2,3,1
1517207026821118,4,-3,-5,-12,-5,-2,0,1
1517207026821118,-1,-8,-1,0,-2,-2,0,6
1517207026822120,-15,-9,-9,-2,-2,-2,-2,2
1517207026822120,-8,4,4,1,-2,-1,-4,-13
1517207026836140,-11,2,-3,5,2,-1,1,2
1517207026836140,20,2,9,14,1,-3,-1,1
1517207026837132,-8,-8,-6,-3,-3,-1,-1,-1
1517207026837132,7,1,1,-11,-1,0,0,1
1517207026858646,-3,3,6,18,0,-1,1,3
1517207026858646,-11,-6,-9,-6,-2,-2,3,0
1517207026859146,10,-1,3,-1,-1,-3,-12,-5
1517207026859146,-9,-5,-2,2,-1,-2,-8,-7
1517207026881165,12,7,9,-5,1,-1,2,2
1517207026881165,-1,-2,-3,-3,-2,-2,0,-2
1517207026881663,-8,-5,5,3,-4,-1,-6,-8
1517207026881663,-5,-2,-4,-1,-2,-1,-2,-1
1517207026896175,-10,3,7,4,1,2,5,0
1517207026896175,1,-7,-3,-8,-2,-1,5,5
1517207026896673,-4,-6,-13,-1,0,-1,-17,-10
1517207026896673,1,2,-3,6,1,-1,2,0
1517207026918744,-5,-5,-1,0,-5,-4,-1,2
1517207026918744,-10,-6,-6,-13,-1,1,1,-6
1517207026919744,2,-9,16,9,0,-1,5,5
1517207026919744,2,5,-3,-4,0,0,-2,0
1517207026941269,4,-3,-13,-10,-3,-2,0,6
1517207026941269,1,7,10,9,1,0,-4,-2
1517207026941764,-5,2,-5,-5,-1,1,1,-2
1517207026941764,19,-6,3,-5,-4,-5,-1,-5
1517207026956269,-7,-11,-1,4,3,1,3,-3
1517207026956269,3,9,5,-2,-3,-2,-4,13
1517207026956772,1,-6,-13,5,0,-1,2,-18
1517207026956772,-10,18,1,-2,-2,-1,4,0
1517207026978875,10,-6,-10,-6,-1,-1,8,3
1517207026978875,-1,-1,13,1,-1,-1,-6,-5
1517207026979875,3,9,-10,-4,-3,-3,0,6
1517207026979875,-10,-16,-3,0,0,1,-1,4
1517207027009397,11,10,-2,-15,-3,-2,3,-1
1517207027009397,-8,-15,-4,12,0,-3,-1,-2
1517207027010396,-7,1,-4,-22,-3,-1,-1,4
1517207027010396,1,16,16,3,-3,-4,-6,-9
1517207027016410,-20,-23,-15,2,0,-1,4,2
1517207027016410,16,16,-9,-4,-1,-1,-1,-7
1517207027016906,-12,20,6,7,4,0,-10,-7
1517207027016906,-1,-3,2,2,0,-1,-3,4
1517207027038917,-8,-21,-38,-7,-2,1,-6,-8
1517207027038917,-10,-6,-6,-10,-2,1,8,5
1517207027039426,0,13,16,3,-3,-3,1,1
1517207027039426,-2,-14,2,-2,1,0,-2,1
1517207027060943,-14,5,18,15,3,3,4,-4
1517207027060943,3,6,-6,-7,-1,2,4,-1
1517207027061932,-2,-12,-7,0,-3,-2,-1,5
1517207027061932,9,1,1,-4,0,-2,5,-11
1517207027076447,8,-5,8,-2,0,-2,-6,4
1517207027076447,-13,-11,-14,-3,-2,-2,-4,-3
1517207027076943,1,-5,17,3,-1,-2,5,8
1517207027076943,2,9,-20,5,0,-1,-4,1
1517207027098458,9,5,4,0,-4,-3,2,3
1517207027098458,-12,3,-7,-7,-2,-2,-2,-14
1517207027099459,0,-8,-19,5,0,3,18,26
1517207027099459,0,2,1,-1,1,3,-15,-20
1517207027120977,23,4,3,3,-3,-6,-15,-23
1517207027120977,-38,17,4,-13,-5,-5,1,-6
1517207027121976,13,-7,24,3,1,3,5,0
1517207027121976,4,-34,-32,-3,-1,-1,2,9
1517207027136506,4,6,36,5,0,1,-4,14
1517207027136506,10,3,2,5,0,-2,-8,-32
1517207027137008,13,3,4,-5,3,3,0,-1
1517207027137008,-15,4,-19,-7,-3,1,7,-1
1517207027158520,6,12,12,-2,0,-2,-2,-1
1517207027158520,6,-15,12,5,2,1,0,13
1517207027159521,-11,-33,-8,4,-1,-2,-5,-1
1517207027159521,-15,-9,-21,-11,-3,1,-5,-3
1517207027181158,6,11,17,0,1,4,14,6
1517207027181158,21,10,-14,-3,-3,-5,-11,11
1517207027182107,-2,2,-2,-2,-1,-2,-2,5
1517207027182107,-18,3,28,9,1,1,-4,-12
1517207027196116,-23,-39,-57,-25,-7,-5,-3,-7
1517207027196116,6,27,4,1,1,1,-2,-10
1517207027197126,6,18,13,10,0,0,-2,-2
1517207027197126,16,-13,-25,-5,-1,-4,1,10
1517207027218641,-20,-1,-4,-9,-1,1,2,-2
1517207027218641,-21,-20,-9,-1,-2,-1,-18,-4
1517207027219635,33,27,12,-1,-2,-1,3,22
1517207027219635,11,14,33,10,3,-1,3,-11
1517207027241147,-1,13,-26,2,-1,-1,-2,2
1517207027241147,-1,-37,-11,5,1,-2,-4,3
1517207027241655,-10,-17,0,-6,-1,0,-4,-2
1517207027241655,1,11,36,3,0,-1,-5,-4
1517207027255674,0,23,-24,-1,1,0,2,18
1517207027255674,-7,-49,31,-1,-3,-2,9,-2
1517207027263663,-4,34,-12,-9,-5,-3,-3,-8
1517207027263663,16,14,18,14,3,0,-2,6
1517207027278704,-9,-49,-31,-17,-5,-2,4,3
1517207027278704,35,37,29,6,7,6,-8,-2
1517207027279198,-3,-11,-30,5,-1,-6,-10,-14
1517207027279198,-9,22,15,-9,-3,-4,-1,11
1517207027301206,13,-6,-25,2,0,1,5,-22
1517207027301206,2,-33,-39,11,2,0,-20,15
1517207027301709,-15,-16,9,-19,-3,0,4,-1
1517207027301709,10,10,-31,-5,-3,-2,-1,-6
1517207027315740,-12,24,68,21,3,-2,-9,7
1517207027315740,-17,-17,-28,-4,-1,3,14,2
1517207027323723,-27,-23,-20,-14,-5,-4,-17,-16
1517207027323723,9,-2,33,2,-1,0,15,17
1517207027338738,-29,-66,-32,-12,-3,-4,-13,-21
1517207027338738,-9,36,-5,-5,-6,-9,-6,-7
1517207027339235,11,2,9,13,5,1,2,-3
1517207027339235,-9,-2,-10,-5,-2,2,4,7
1517207027369757,11,10,60,25,8,4,3,17
1517207027369757,-3,5,-26,-12,-5,-5,2,-6
1517207027370259,3,-17,12,-6,0,0,13,-5
1517207027370259,-13,-14,-18,-13,-4,1,-7,-10
1517207027375260,12,21,-7,5,1,0,8,1
1517207027375260,-1,-8,-44,-8,-4,1,3,9
1517207027383782,29,-26,49,3,-3,-3,-3,-23
1517207027383782,-15,4,-28,3,-2,-3,-3,-18
1517207027398778,-29,-4,8,-15,-3,-4,-9,21
1517207027398778,7,40,53,12,4,2,17,-51
1517207027399276,4,-30,-66,5,-2,0,10,11
1517207027399276,29,1,-2,-20,-4,-4,-11,-6
1517207027421291,7,-15,-16,4,-4,-1,7,-5
1517207027421291,-32,36,90,10,4,2,-2,9
1517207027428809,21,55,0,-7,1,3,5,14
1517207027428809,-18,-39,-17,4,2,1,2,-10
1517207027435364,-23,27,-14,-9,-6,-6,-11,4
1517207027435364,5,-39,34,15,5,2,13,-6
1517207027443870,-30,-24,-26,-10,-5,-2,-8,-7
1517207027443870,5,2,-2,7,5,5,17,20
1517207027458866,9,5,15,8,2,-5,-23,-12
1517207027458866,22,7,42,10,6,6,3,17
1517207027459366,19,-8,-77,-10,-3,-2,7,-9
1517207027459366,-23,-8,25,3,-3,-6,-9,23
1517207027481395,29,17,-16,-6,-1,1,5,40
1517207027481395,15,-45,-16,-18,-14,-12,-9,-39
1517207027481882,40,29,18,21,11,8,3,16
1517207027481882,-30,-15,12,-3,-2,0,9,8
1517207027495401,22,54,69,12,1,5,20,-3
1517207027495401,-26,-5,-70,-4,1,4,-12,-1
1517207027503899,33,33,19,-19,-11,-7,-8,36
1517207027503899,28,39,7,5,-3,-7,-7,-60
1517207027518911,-6,25,-17,-7,-3,-2,-6,-16
1517207027518911,8,3,-13,-6,-8,-4,-1,3
1517207027519413,-59,-6,44,-5,-2,0,-6,-12
1517207027519413,9,34,31,9,6,1,-3,3
1517207027542453,-23,-57,-82,-24,-7,-6,-7,-13
1517207027542453,7,2,-15,-10,-5,-5,1,25
1517207027543426,-12,19,38,10,-2,-8,-12,-13
1517207027543426,-3,-99,-26,-6,-5,-1,9,26
1517207027564463,-31,-18,-33,-12,-6,-5,-37,-44
1517207027564463,-1,1,-9,3,2,-1,-6,19
1517207027564941,-7,10,31,10,3,1,-2,26
1517207027564941,-22,29,-6,-2,-4,0,2,-14
1517207027578450,51,21,-36,5,1,6,16,3
1517207027578450,-4,-59,20,10,5,1,9,6
1517207027579451,-14,-34,-3,-1,3,3,9,16
1517207027579451,8,41,-64,-20,-6,-3,-11,10
1517207027601466,-46,18,73,18,4,2,7,42
1517207027601466,23,45,-9,-3,-3,0,7,-2
1517207027601968,6,-61,-15,33,7,1,-2,-24
1517207027601968,20,52,11,-30,-10,-5,-18,-32
1517207027624493,1,8,58,7,-1,-1,-4,-1
1517207027624493,-43,0,-34,-11,1,-1,7,23
1517207027624984,2,12,14,2,-3,-2,-4,-19
1517207027624984,-4,39,-32,-5,-5,-3,3,10
1517207027638994,-15,19,-25,2,-1,-6,-16,-14
1517207027638994,18,-53,1,-20,-7,-4,-3,-6
1517207027639494,-9,13,-24,8,3,0,-5,-12
1517207027639494,-18,20,68,22,-2,-6,-5,6
1517207027661009,25,20,22,-51,-9,-1,12,17
1517207027661009,4,20,17,12,8,10,9,-55
1517207027662010,11,65,13,-19,-5,-3,-19,17
1517207027662010,21,-65,21,45,17,8,15,18
1517207027684529,-25,13,46,-25,1,-1,-4,-22
1517207027684529,13,-44,-24,22,0,0,4,28
1517207027685028,-25,-17,13,22,1,3,17,26
1517207027685028,29,55,-1,-23,-3,-2,-31,-51
1517207027698535,12,-39,-14,-15,-7,0,8,-23
1517207027698535,-14,47,14,-6,-3,-2,12,47
1517207027699536,28,-17,-32,14,-1,-2,-23,-65
1517207027699536,1,-54,23,11,-2,-9,-13,24
1517207027721064,-21,-29,-41,5,0,2,14,5
1517207027721064,17,23,23,7,-5,-6,-35,-13
1517207027722058,-14,-46,-97,-31,-8,0,15,20
1517207027722058,1,-32,13,5,4,2,10,-2
1517207027745068,46,43,33,7,1,0,-6,17
1517207027745068,19,36,18,18,4,-1,0,10
1517207027746072,-48,0,-34,-27,-9,-5,0,-5
1517207027746072,-7,28,7,10,5,10,11,7
1517207027758593,-2,2,-9,5,7,3,2,-13
1517207027758593,6,-28,-22,-3,-5,-4,1,17
1517207027759591,-10,-12,3,-18,-6,-8,-11,-24
1517207027759591,-18,-42,-19,-11,-6,-2,4,-3
1517207027781611,24,23,0,40,10,2,-3,1
1517207027781611,-10,-13,-5,-35,-8,-4,-5,4
1517207027788599,21,34,40,-11,-5,-6,2,-14
1517207027788599,-35,-24,-23,8,5,3,7,5
1517207027805113,17,2,18,31,3,-3,-14,-27
1517207027805113,20,-7,-41,-32,-5,1,12,8
1517207027805611,14,-16,13,21,6,0,2,3
1517207027805611,1,14,10,-4,3,2,-1,-9
1517207027818621,-1,-14,-30,4,-6,0,6,22
1517207027818621,-33,-1,-19,-18,-3,-1,-3,-8
1517207027819621,-6,7,19,16,5,2,1,-6
1517207027819621,17,-27,15,-8,-2,-1,2,22
1517207027841637,-13,-38,-10,20,8,2,4,-3
1517207027841637,9,6,23,30,5,2,-7,-33
1517207027848645,-10,-36,-8,-41,-5,5,16,13
1517207027848645,-18,62,-16,-20,-9,-9,-26,-15
1517207027863666,6,-26,-16,-2,-1,-1,-2,8
1517207027863666,17,9,60,34,14,3,-1,-16
1517207027880167,-13,4,-19,-8,-1,1,1,46
1517207027880167,-23,16,15,-4,3,8,25,22
1517207027881680,21,-34,-35,-22,-19,-13,-18,-10
1517207027881680,-5,47,35,0,1,0,9,14
1517207027882666,-22,-31,-23,11,0,-5,-28,-14
1517207027882666,-2,-33,-46,-3,-7,-6,4,7
1517207027901179,-8,47,44,-3,7,6,-3,-9
1517207027901179,15,-40,-36,-21,-9,-2,18,35
1517207027902181,18,29,-34,8,1,-5,-30,-51
1517207027902181,-10,-8,-10,-10,-9,-4,-2,3
1517207027924196,-7,-41,-47,2,4,3,5,14
1517207027924196,4,-29,42,10,-4,-4,-12,-24
1517207027925197,13,76,45,-4,6,5,20,32
1517207027925197,-41,-35,-9,-29,-12,-12,-28,-36
1517207027938705,8,-10,16,-16,-5,-4,4,-4
1517207027938705,14,34,42,8,3,2,-12,14
1517207027939206,0,-28,-35,3,-3,-3,8,-20
1517207027939206,28,-7,12,-3,-6,-6,2,2
1517207027961254,-7,14,46,30,6,3,10,5
1517207027961254,-28,35,-9,-46,-14,-10,-21,-28
1517207027961764,1,5,-26,-2,-3,-3,1,8
1517207027961764,51,-11,31,22,9,7,9,10
1517207027985773,-21,-12,-46,-26,-15,-10,-11,-30
1517207027985773,16,0,-11,31,2,-3,3,-6
1517207027986772,13,34,45,20,4,2,3,0
1517207027986772,19,25,5,-44,-10,-4,-12,-32
1517207027998803,-2,11,34,26,8,4,3,19
1517207027998803,-12,19,-14,-7,3,5,1,-8
1517207027999281,16,-7,23,-9,-12,-11,-13,-27
1517207027999281,7,55,-17,11,5,2,6,24
1517207028021296,-15,-50,-45,-7,3,0,-2,-21
1517207028021296,-31,3,15,-12,-8,-8,-13,-20
1517207028021797,17,-65,-4,20,8,2,6,54
1517207028021797,16,21,-2,12,2,3,-10,-36
1517207028044327,6,14,12,-12,0,2,14,12
1517207028044327,-14,-43,-83,-5,-3,-7,-20,-5
1517207028045819,-17,-3,24,-6,-1,-2,-7,-4
1517207028045819,-23,1,40,24,7,0,2,20
1517207028058833,7,31,-30,-13,-3,0,0,-22
1517207028058833,-3,-9,52,23,9,5,11,-5
1517207028059333,16,21,-40,-27,-14,-4,-17,-30
1517207028059333,37,-39,16,17,8,2,10,52
1517207028081863,-15,37,75,-12,-11,-7,-17,-56
1517207028081863,-13,0,-68,-9,-1,-2,0,2
1517207028082858,0,36,35,12,5,3,11,1
1517207028082858,-7,-11,13,0,-2,-1,-6,-13
1517207028104355,9,-37,-23,-11,-4,-7,3,41
1517207028104355,9,-25,-36,-10,-6,-1,3,6
1517207028105412,-23,10,20,2,0,1,9,7
1517207028105412,-14,-29,-10,2,1,-1,-1,-8
1517207028126956,-22,11,-1,4,0,2,5,36
1517207028126956,3,-37,2,4,0,0,1,25
1517207028127430,-24,-27,-37,-16,2,3,5,-32
1517207028127430,-19,1,-1,17,1,-2,3,2
1517207028141440,7,5,-6,-8,-2,0,-1,12
1517207028141440,7,15,23,-7,0,-2,4,12
1517207028141940,5,40,27,10,4,1,-14,33
1517207028141940,-12,-31,-23,-4,-1,2,3,-1
1517207028164455,-3,62,42,0,-7,-4,-9,-21
1517207028164455,-4,10,-19,-13,-4,-5,-1,-11
1517207028164958,-6,-8,10,5,3,-1,8,-12
1517207028164958,-9,-21,-41,-23,-9,0,-1,8
1517207028178970,2,-31,0,15,4,-1,-7,-2
1517207028178970,-80,43,56,-8,-7,-3,-3,-21
1517207028179968,-9,-9,-54,-3,-5,-4,5,9
1517207028179968,19,-9,-11,4,4,1,14,35
1517207028202041,19,25,41,9,2,-1,-6,-6
1517207028202041,6,3,-45,7,1,-2,-3,-3
1517207028202543,30,-27,-51,-27,-7,0,1,16
1517207028202543,-22,8,16,14,0,-3,-10,-25
1517207028224055,-2,31,-16,-18,-4,-4,0,-12
1517207028224055,18,-39,-34,-1,-1,1,3,16
1517207028225056,-41,1,37,8,5,3,-5,-52
1517207028225056,6,-26,-21,-8,-2,-1,9,19
1517207028238066,20,-12,-54,-9,-3,-4,-17,-8
1517207028238066,20,33,43,11,1,-1,-3,2
1517207028246072,-57,5,-10,-4,-6,-5,-4,-1
1517207028246072,-13,-77,-41,-2,-2,2,0,1
1517207028262095,-6,-10,-2,-6,0,0,3,-23
1517207028262095,24,37,5,-10,-2,1,0,2
1517207028263083,18,8,34,1,-1,-1,2,12
1517207028263083,-20,7,-18,3,-4,-5,3,-15
1517207028284117,8,-17,-12,-7,1,3,-7,17
1517207028284117,-8,-29,-18,1,1,-1,2,-9
1517207028285099,4,-11,4,15,3,0,-1,6
1517207028285099,17,34,24,-14,-2,0,-15,-33
1517207028298108,-50,-24,17,17,3,0,15,15
1517207028298108,24,32,10,-14,-3,2,5,-8
1517207028306114,0,-82,-35,-3,-2,-5,-17,-27
1517207028306114,1,14,13,2,0,-1,-2,4
1517207028321626,-8,-36,-45,-2,0,1,-1,4
1517207028321626,-15,-39,55,16,8,6,6,-26
1517207028322626,4,-2,15,9,0,3,8,23
1517207028322626,-9,21,-29,-22,-9,-3,1,2
1517207028344641,5,15,10,10,5,1,-4,-21
1517207028344641,13,-10,-33,-3,-5,-1,4,31
1517207028346142,45,-32,19,-3,0,-2,5,20
1517207028346142,-31,8,5,-9,-3,-5,-15,-6
1517207028357663,-4,-10,-16,3,0,0,3,-7
1517207028357663,26,1,-28,17,3,-2,-11,2
1517207028366179,-6,22,46,-3,-3,0,14,12
1517207028366179,-14,30,29,11,3,-2,-10,0
1517207028381689,10,5,-42,-17,-10,-6,-4,-4
1517207028381689,-8,33,36,-2,-5,-6,-5,1
1517207028382692,12,39,12,13,-2,-1,13,69
1517207028382692,-8,0,2,-7,-5,-8,-17,-78
1517207028404685,29,-29,24,14,4,2,10,24
1517207028404685,-25,8,-75,-6,-6,-2,0,-4
1517207028405184,2,-31,-2,-18,-7,-5,-7,-24
1517207028405184,-12,-59,-39,-18,-5,-6,3,12
1517207028417733,-24,-32,-15,9,-4,-5,-3,2
1517207028417733,26,15,46,-9,-2,-2,-6,-17
1517207028433728,-7,76,-12,-7,-7,-7,-2,3
1517207028433728,13,9,-70,8,4,3,5,7
1517207028442213,0,-51,-14,-18,-7,-3,-3,-9
1517207028442213,-2,-36,-3,24,5,-3,2,14
1517207028443220,21,14,12,-18,-4,-2,-11,-24
1517207028443220,16,24,19,16,5,3,6,1
1517207028464289,-13,-2,29,3,2,5,7,29
1517207028464289,-19,-38,-77,-31,-5,-1,-3,40
1517207028464790,12,21,33,17,4,3,1,-28
1517207028464790,9,65,-12,-5,-3,-4,-6,52
1517207028478298,-15,18,12,2,2,0,-5,3
1517207028478298,-4,-29,35,7,0,-2,-2,-13
1517207028486305,-13,-20,-21,-7,0,1,-3,-26
1517207028486305,4,-5,43,-4,-7,-1,9,13
1517207028501815,1,-18,-57,9,2,1,-1,0
1517207028501815,8,14,42,-17,-7,-4,8,-10
1517207028502819,-10,-7,-37,-2,0,-4,-19,0
1517207028502819,-3,-47,25,4,7,7,5,-7
1517207028524331,23,61,-23,-4,-4,-3,-5,-5
1517207028524331,-65,3,40,4,-1,3,4,-14
1517207028524837,30,-29,-30,2,2,4,6,25
1517207028524837,22,10,-53,-11,-4,-1,-2,-69
1517207028538341,24,19,50,31,8,1,-1,2
1517207028538341,-11,-19,-42,-29,-7,-2,-3,9
1517207028546847,-50,22,9,2,-3,-4,3,-22
1517207028546847,-15,17,14,8,2,-4,-14,-24
1517207028569868,26,11,19,2,-2,-1,11,6
1517207028569868,22,41,7,7,3,-1,-6,-19
1517207028570367,-28,-18,-8,-9,-2,1,1,3
1517207028570367,10,-27,1,-1,-3,-3,-1,19
1517207028584377,-4,1,-2,-13,-4,-2,6,1
1517207028584377,-2,-14,1,19,6,4,5,-22
1517207028584874,5,-27,44,4,2,-1,-1,-1
1517207028584874,-1,31,-32,5,1,1,10,21
1517207028606889,1,-5,28,-28,-5,-4,-3,-2
1517207028606889,11,27,-3,1,1,1,-1,15
1517207028607390,-25,11,-41,-3,-5,-6,-8,-12
1517207028607390,13,20,31,11,3,2,8,19
1517207028621900,-12,13,25,1,3,2,-5,-9
1517207028621900,-17,-88,-74,-18,-9,-5,-7,-3
1517207028622901,-11,-13,-5,-8,-3,-1,5,-5
1517207028622901,-3,12,22,8,-5,-6,-2,-3
1517207028644419,-14,26,-34,-5,-6,-2,1,7
1517207028644419,8,16,67,12,8,5,5,11
1517207028645917,11,-37,-71,-7,-5,-2,-3,-10
1517207028645917,-16,-15,31,-6,-8,-7,-9,3
1517207028666943,1,3,-13,0,-4,-5,-2,-2
1517207028666943,-1,29,29,2,15,8,1,-3
1517207028668434,14,-9,-39,-7,-2,1,3,4
1517207028668434,23,21,29,-5,1,0,3,12
1517207028680441,-37,-9,44,6,-4,-4,-1,-1
1517207028680441,15,29,-49,-29,-11,-3,-4,-14
1517207028689448,-15,-13,-6,-10,-4,-3,-6,-11
1517207028689448,23,-26,-24,-12,-3,-3,-6,-2
1517207028704460,7,61,31,19,5,2,15,37
1517207028704460,-16,-79,-17,10,1,3,-14,7
1517207028705984,-32,50,57,-4,3,2,-2,-89
1517207028705984,24,29,-14,12,4,4,-3,16
1517207028726000,2,5,28,13,4,4,7,2
1517207028726000,-21,-20,-52,-13,-4,-5,0,12
1517207028734499,-30,-12,6,1,-5,-1,2,6
1517207028734499,-20,-21,19,11,7,5,4,-1
1517207028740484,6,-2,-13,-6,-2,-1,-1,-18
1517207028740484,32,5,10,-5,-1,-3,-1,-26
1517207028749512,-4,13,12,10,1,2,7,10
1517207028749512,-11,-20,-28,-31,-6,-3,3,-3
1517207028764511,30,-21,20,11,5,2,-10,14
1517207028764511,-11,60,-12,2,-6,-4,4,-12
1517207028766022,2,15,-12,14,3,-2,1,23
1517207028766022,26,37,27,0,0,-2,-2,-4
1517207028787032,-13,-64,-53,-22,0,1,5,-15
1517207028787032,-7,-16,-15,4,-3,-2,-1,16
1517207028788520,9,5,17,6,3,1,12,50
1517207028788520,-17,7,39,16,5,3,-13,-23
1517207028809533,-11,-25,27,-4,-8,-8,-14,-81
1517207028809533,44,-12,-75,-14,-5,-2,0,7
1517207028811034,6,-41,36,28,4,2,-3,53
1517207028811034,9,30,9,-23,-2,0,11,24
1517207028824543,-12,-58,-74,-21,-4,-2,-8,21
1517207028824543,4,53,50,7,0,-2,-3,-14
1517207028826046,-16,33,32,2,-3,-4,3,-11
1517207028826046,18,-14,-20,13,5,4,11,12
1517207028846562,-2,66,71,7,-4,-3,-5,-2
1517207028846562,7,4,-23,1,2,3,16,22
1517207028848561,16,0,-3,-12,0,-1,-11,0
1517207028848561,6,-42,-6,-9,-7,-3,-5,-7
1517207028861069,-17,-40,-29,-4,2,-1,-2,4
1517207028861069,-33,-18,39,5,-1,-1,-5,-14
1517207028868074,46,25,31,-4,-1,-2,0,-6
1517207028868074,-47,5,-6,8,-1,-2,-2,-17
1517207028884100,11,-6,15,-4,3,4,3,3
1517207028884100,0,15,-30,0,-1,0,14,35
1517207028886088,-12,-10,-37,-2,-3,-3,-7,22
1517207028886088,-46,-36,-16,-11,-5,-2,-20,-52
1517207028907112,28,-38,-1,10,-2,-2,1,24
1517207028907112,-20,0,-18,2,0,-2,-14,-22
1517207028908613,8,-41,-2,-4,-2,-4,-2,-3
1517207028908613,5,-16,-12,-23,-13,-7,5,15
1517207028921612,-12,1,18,15,4,2,2,4
1517207028921612,46,50,59,3,3,1,-6,24
1517207028928118,15,-51,-22,-13,-2,-1,-5,-11
1517207028928118,7,53,55,5,-3,-3,6,2
1517207028951636,-24,31,-45,-11,-4,-3,-4,-12
1517207028951636,52,5,28,9,5,0,6,7
1517207028953636,-5,50,-12,10,3,4,9,3
1517207028953636,-19,-47,-48,-15,-2,-1,-3,8
1517207028966701,24,29,21,13,5,3,3,14
1517207028966701,2,15,0,-7,-7,-8,-5,-20
1517207028968645,17,1,10,2,-1,0,-4,-15
1517207028968645,-47,-13,-26,1,-5,-3,0,-4
1517207028981679,6,-15,4,8,3,0,4,8
1517207028981679,-27,8,0,5,-3,-5,-12,-14
1517207028989159,-4,-45,-22,-27,-11,-9,-14,-61
1517207028989159,12,3,17,3,1,4,1,19
1517207029004677,-7,35,20,0,-3,-3,-2,4
1517207029004677,-16,1,29,1,0,1,-3,-27
1517207029006174,13,9,-6,-21,-5,2,11,37
1517207029006174,-11,-1,-15,4,1,-2,-16,-2
1517207029026703,-1,-14,-12,-14,-7,-3,4,-32
1517207029026703,8,-44,-31,2,-3,-4,-16,2
1517207029028193,-10,18,14,15,-4,-5,1,0
1517207029028193,11,-8,-74,-13,1,0,9,-5
1517207029041196,38,-31,22,-4,1,2,0,4
1517207029041196,-35,-60,-30,-16,-10,-6,8,19
1517207029047704,-1,-4,15,24,8,4,-29,-32
1517207029047704,4,7,14,-16,-6,-2,12,27
1517207029064225,-22,-3,-19,-7,-6,-7,-7,-2
1517207029064225,-1,-23,24,23,8,5,7,5
1517207029065719,2,81,44,-16,-7,-5,2,0
1517207029065719,10,-43,-38,16,2,1,-3,1
1517207029086739,3,19,-3,-21,-4,2,0,0
1517207029086739,-25,-1,-28,-4,-2,0,2,3
1517207029088231,-69,23,7,10,1,-4,1,-2
1517207029088231,43,31,48,11,6,3,-2,-29
1517207029100256,-2,12,-4,8,-4,-2,-6,-7
1517207029100256,-10,7,-20,-16,0,0,5,-6
1517207029109245,18,-8,41,1,2,1,13,22
1517207029109245,-18,6,-6,1,-4,-6,-12,-7
1517207029124259,-19,-36,-43,9,4,3,-5,4
1517207029124259,18,66,101,34,9,2,1,-9
1517207029125760,12,-72,-38,-7,0,4,14,26
1517207029125760,-12,12,-9,-1,0,2,1,11
1517207029146294,-10,42,1,-13,-3,-4,-7,-50
1517207029146294,4,14,12,-9,-3,0,1,25
1517207029154280,4,-65,-40,2,1,-4,-9,-14
1517207029154280,14,-17,-29,10,4,2,10,15
1517207029160281,-26,2,-21,-17,-3,2,12,16
1517207029160281,24,-57,-25,4,1,-3,-32,-26
1517207029169288,-8,-7,-58,-28,-9,-3,2,-12
1517207029169288,36,26,10,7,4,0,2,1
1517207029184299,-11,-34,44,12,2,-2,-4,-57
1517207029184299,-11,58,-15,1,-4,-2,9,11
1517207029185800,10,6,35,19,6,3,-12,-3
1517207029185800,11,56,48,5,6,4,-4,-7
1517207029206820,15,-48,24,-8,-3,-5,-4,16
1517207029206820,-12,-25,-18,-5,-1,4,14,15
1517207029208316,16,58,-3,-5,-2,-1,-3,0
1517207029208316,-24,7,29,2,-2,-5,-2,-9
1517207029220824,27,40,-34,-2,4,2,5,28
1517207029220824,-32,24,65,-14,-4,-2,7,15
1517207029229330,-18,-60,-62,-2,-4,-4,-13,-20
1517207029229330,-26,-38,-12,3,-2,-3,-8,-8
1517207029244353,55,43,-11,2,-1,3,2,13
1517207029244353,-40,-47,-4,-26,-3,-5,-1,5
1517207029246852,13,-12,-56,-25,-9,-7,-4,-7
1517207029246852,1,18,57,25,8,5,8,19
1517207029266865,-9,-20,-8,-12,-7,-7,-5,51
1517207029266865,-19,-9,25,11,3,1,1,-2
1517207029268367,19,66,36,8,-4,-5,-4,-2
1517207029268367,-11,-78,-18,-27,-5,-1,11,12
1517207029280377,19,27,31,19,1,-5,-7,-21
1517207029280377,16,55,14,-35,-9,-4,-18,-1
1517207029289373,5,0,27,32,11,4,7,3
1517207029289373,-8,20,8,-9,-10,-7,1,8
1517207029304384,-26,-44,-9,-5,-1,0,1,-7
1517207029304384,7,12,37,28,7,6,5,-1
1517207029305886,0,-29,17,-11,-5,-5,1,-7
1517207029305886,-58,-20,-5,-3,0,0,-2,-11
1517207029326899,3,-4,-51,3,1,1,-6,-5
1517207029326899,20,-31,-20,15,0,-3,-5,-18
1517207029328400,-14,1,15,-4,0,4,7,21
1517207029328400,6,-23,-3,-14,-3,1,-2,-5
1517207029340408,-13,-22,-43,-4,-3,-4,-3,-3
1517207029340408,6,-7,-34,-10,-9,-10,-4,8
1517207029349424,3,51,51,7,3,0,-2,2
1517207029349424,-23,-60,-59,-2,-6,-6,-7,-18
1517207029371931,-3,24,0,-6,-3,-1,-2,5
1517207029371931,-10,-8,-40,7,-2,-5,-5,-21
1517207029373432,-12,-5,10,-19,0,-1,0,27
1517207029373432,-25,34,3,-11,-12,-8,-5,-17
1517207029386943,11,-17,1,4,4,0,-15,-1
1517207029386943,5,-23,17,14,2,1,1,-15
1517207029388446,-36,-35,-23,-1,1,4,7,-1
1517207029388446,24,25,-12,-10,-3,2,1,8
1517207029400454,-1,-7,12,21,-1,-1,1,30
1517207029400454,2,41,18,-33,-6,-4,3,-2
1517207029409469,-1,-55,-14,7,6,4,0,-1
1517207029409469,13,-2,-12,-6,-1,-2,-2,0
1517207029431988,-13,6,5,21,4,4,14,-2
1517207029431988,6,-22,-23,-5,-2,1,-20,-37
1517207029433477,28,30,-15,-5,-3,-4,1,6
1517207029433477,-1,69,69,-1,-5,-3,1,-8
1517207029446983,-16,-37,-23,5,0,-3,-3,-9
1517207029446983,-15,-10,-25,-9,4,2,2,7
1517207029448500,19,-11,-56,-6,-7,-5,-1,-14
1517207029448500,17,-22,42,11,3,3,4,16
1517207029460493,-5,3,-30,-39,-15,-8,-11,-28
1517207029460493,-4,10,19,33,7,5,8,25
1517207029477004,21,17,3,-31,-8,-3,-8,-52
1517207029477004,14,-24,-67,-7,-3,-2,-4,-4
1517207029484520,-3,10,30,2,-1,0,2,4
1517207029484520,-1,4,-10,-13,-7,-7,-6,-26
1517207029486023,0,32,12,30,10,7,12,14
1517207029486023,7,-3,-25,8,-1,-4,-15,3
1517207029514541,4,-19,25,-10,2,2,5,4
1517207029514541,-4,0,-62,-2,-2,1,1,2
1517207029516047,-19,7,-7,-1,-4,-2,0,6
1517207029516047,-6,-51,-5,6,0,-2,-1,-8
1517207029529542,-32,8,-5,-16,-1,0,1,-1
1517207029529542,20,34,29,14,6,6,3,28
1517207029531058,16,6,18,-12,-5,-2,-5,-20
1517207029531058,-5,12,-35,15,6,0,0,-14
1517207029544568,12,16,-25,-4,-3,1,7,17
1517207029544568,-2,-11,-3,1,0,0,-1,-17
1517207029546554,-31,-66,4,-10,-8,-4,-7,-8
1517207029546554,24,24,23,15,3,3,3,18
1517207029567125,-9,2,-2,7,2,4,0,-25
1517207029567125,24,-1,6,-10,-12,-6,0,23
1517207029568569,-34,13,12,3,3,-1,-4,-8
1517207029568569,12,1,20,-2,6,2,4,-8
1517207029596605,-6,-17,39,21,4,-3,-3,11
1517207029596605,-3,-9,-71,-9,-10,-5,-5,-5
1517207029598594,-39,-4,-6,-7,0,-4,0,4
1517207029598594,21,-8,20,-12,-3,-1,-4,-3
1517207029604597,1,85,47,-16,-6,-3,-4,-7
1517207029604597,-16,-53,-30,3,2,-2,-5,-18
1517207029606098,14,20,34,28,1,-2,3,55
1517207029606098,-2,8,-3,-15,0,0,3,-20
1517207029627111,-1,-10,-9,9,-4,-4,-7,-6
1517207029627111,-4,26,27,-15,-5,1,0,-11
1517207029629127,12,22,-8,8,0,-2,-4,-3
1517207029629127,-7,-37,-20,-2,1,-3,-7,-5
1517207029649642,15,22,13,-6,-4,2,2,6
1517207029649642,-14,-4,22,-7,-1,-6,-7,-19
1517207029651628,26,7,3,18,6,6,5,12
1517207029651628,2,23,-17,-5,-3,-2,-2,9
1517207029663649,1,-8,-26,7,0,-4,-3,-18
1517207029663649,-25,-43,4,-19,-6,-3,3,4
1517207029670652,-9,23,-3,2,0,-1,-2,-10
1517207029670652,6,53,22,31,4,0,3,27
1517207029686612,-7,-61,-58,-65,-10,-2,1,10
1517207029686612,21,42,33,35,13,6,9,14
1517207029688630,-14,-46,-10,-21,-7,-4,-17,-35
1517207029688630,-1,26,21,2,-2,1,4,0
1517207029709126,-15,-9,-9,4,-3,-8,-9,-4
1517207029709126,19,-4,25,7,3,2,-2,0
1517207029710628,-4,12,1,-3,-3,0,2,5
1517207029710628,-6,-40,-24,-3,2,1,2,15
1517207029723637,-19,-2,29,11,-3,-3,-6,-19
1517207029723637,4,-6,-5,-29,-5,-4,-3,6
1517207029730642,-7,3,-43,11,1,-2,-2,14
1517207029730642,12,15,-6,-20,-4,0,-3,-1
1517207029754661,-7,7,-17,11,4,1,1,-18
1517207029754661,-8,-19,-20,-11,-6,-3,-2,22
1517207029756160,-19,-56,-65,-11,-3,-3,1,26
1517207029756160,1,39,31,23,2,0,2,9
1517207029769179,6,-65,-49,-34,-4,-2,-8,-37
1517207029769179,-38,-13,7,-6,-5,-6,-4,-7
1517207029770671,32,77,91,23,10,9,11,11
1517207029770671,-17,-63,-18,-12,-9,-5,-12,-7
1517207029792185,-16,21,9,-1,2,1,6,17
1517207029792185,24,2,6,17,3,1,0,-5
1517207029793698,15,-3,-22,-7,2,1,3,4
1517207029793698,-59,-58,-17,-15,-3,0,1,-9
1517207029807195,-4,51,-24,7,-3,-2,-5,-29
1517207029807195,10,0,29,12,5,2,-1,5
1517207029808196,-31,-28,-33,-2,-5,-5,-6,-19
1517207029808196,-25,25,-17,4,0,1,3,3
1517207029829233,-3,-7,-27,-9,-5,-5,0,37
1517207029829233,-1,4,-8,16,2,0,0,-34
1517207029830733,10,64,61,-15,-5,-1,-3,36
1517207029830733,50,7,-9,0,2,0,0,9
1517207029843722,2,-32,-18,1,0,-1,1,25
1517207029843722,1,34,-2,4,-3,1,0,-8
1517207029850226,-4,-31,35,5,7,5,3,-9
1517207029850226,8,11,0,-6,-8,-6,-8,-12
1517207029866747,-10,-11,8,5,5,4,1,12
1517207029866747,20,-27,4,4,-2,-5,-4,16
1517207029868239,38,26,-28,-2,-2,-3,-2,-12
1517207029868239,-7,-7,22,-20,-3,0,1,-6
1517207029889754,26,17,45,26,5,3,2,-6
1517207029889754,-14,1,-9,-14,-5,-4,-4,14
1517207029890758,-5,3,-13,10,1,2,3,-18
1517207029890758,8,19,19,-28,-4,-6,-5,-13
1517207029903764,-1,-15,-17,-9,-6,-3,9,24
1517207029903764,22,28,40,-3,4,5,-8,-13
1517207029910281,-2,-59,-19,-3,-1,-2,-7,-11
1517207029910281,15,50,49,11,6,4,9,7
1517207029926780,-5,37,11,1,-2,-4,-6,-1
1517207029926780,14,-19,9,-1,2,0,3,2
1517207029928282,29,16,19,-10,-10,-7,-4,5
1517207029928282,-43,-40,-35,9,0,1,-2,-20
1517207029949352,12,63,88,-9,1,2,4,-6
1517207029949352,10,-46,-72,11,2,0,-3,-13
1517207029950852,1,-40,7,2,-3,-5,-5,-12
1517207029950852,23,7,-13,-10,2,2,7,95
1517207029963349,14,17,-8,-9,-8,-5,-13,-41
1517207029963349,-16,38,35,22,4,0,2,-6
1517207029970362,-8,-37,-41,-11,1,3,2,-1
1517207029970362,-21,-5,-24,-13,-9,-5,-5,-7
1517207029986857,2,-47,9,15,4,1,8,15
1517207029986857,-17,30,-6,-15,-3,0,-1,8
1517207029988360,24,35,25,10,3,3,4,11
1517207029988360,18,-13,6,-12,-7,-4,-8,-28
1517207030009385,5,20,1,6,1,0,1,4
1517207030009385,-26,-11,-7,-23,-8,-7,-5,-4
1517207030010886,13,93,73,26,10,6,2,-5
1517207030010886,-8,-45,-40,-2,-4,-3,-3,-22
1517207030022883,3,-31,7,19,7,4,2,10
1517207030022883,6,-2,-22,-11,-8,-5,-4,14
1517207030031890,-7,29,-10,-27,-8,-3,0,-1
1517207030031890,22,-8,-5,16,3,-1,-3,-7
1517207030046908,7,11,11,10,1,-2,-3,9
1517207030046908,-5,-8,-18,4,4,2,3,-1
1517207030048423,-6,-9,24,-12,-8,-5,-1,4
1517207030048423,-14,21,-7,5,-4,-6,-13,-28
1517207030068920,-14,-43,-10,-13,-2,2,1,1
1517207030068920,-33,-65,-30,5,-4,-5,-5,-10
1517207030070919,-10,-37,-34,-12,0,0,3,-3
1517207030070919,-30,-36,-46,-8,-4,-5,-3,-1
1517207030082947,-8,28,15,6,0,2,-3,-9
1517207030082947,8,24,41,-18,-5,0,11,60
1517207030091931,-12,-30,-21,0,-1,-4,-10,9
1517207030091931,11,24,-15,13,4,3,5,8
1517207030106943,4,-35,17,10,1,0,0,-9
1517207030106943,-17,-29,-41,-14,-7,-5,-5,-4
1517207030108455,-7,22,3,-7,-5,-3,-2,6
1517207030108455,24,6,5,11,8,2,1,-6
1517207030128957,15,59,76,10,0,-2,-1,8
1517207030128957,13,12,-11,-1,1,5,3,-6
1517207030130959,-30,-56,-11,4,0,0,-6,-21
1517207030130959,16,5,30,9,9,7,7,-3
1517207030142989,-16,59,-39,-28,-2,1,0,6
1517207030142989,-13,-67,-11,-16,-3,0,0,-17
1517207030151974,-8,-14,-31,-6,-5,-2,-7,-23
1517207030151974,5,38,76,24,4,-1,-2,15
1517207030174518,-51,-18,-39,-11,-4,0,0,-17
1517207030174518,4,36,-14,7,3,1,1,-9
1517207030175990,-25,-79,-25,4,0,-1,0,-7
1517207030175990,7,10,-29,-21,-9,-2,-1,-7
1517207030189516,10,-22,-15,11,2,0,-3,4
1517207030189516,8,42,1,-1,-5,-6,-7,-17
1517207030191011,-1,44,65,-1,3,7,5,7
1517207030191011,-13,-57,-22,9,0,1,-1,2
1517207030203514,7,-20,-19,-17,-7,-5,-2,-2
1517207030203514,12,46,90,33,10,4,4,-5
1517207030212026,-2,-37,-52,-10,-4,-2,-1,11
1517207030212026,-7,24,13,-10,-5,-4,-5,-7
1517207030234032,-28,-48,7,4,1,-1,-1,2
1517207030234032,-3,-34,14,3,-1,-1,-1,1
1517207030236033,8,53,-1,2,-1,0,2,7
1517207030236033,5,-22,-19,-4,1,-1,7,1
1517207030249046,7,1,39,-10,-6,-4,-5,-22
1517207030249046,-9,1,10,5,1,-4,-2,25
1517207030251047,-5,-25,-18,-11,-7,-5,-5,-8
1517207030251047,-23,22,15,15,-2,-1,16,24
1517207030263061,28,10,-52,-17,-1,-4,-28,-32
1517207030263061,4,-28,-39,-6,-2,-1,2,-4
1517207030272059,11,30,8,0,-3,-3,-1,1
1517207030272059,-6,9,29,16,2,1,-2,4
1517207030287070,23,36,7,-14,-2,-1,6,12
1517207030287070,-5,28,-7,9,5,4,-1,-10
1517207030288571,-7,-7,-11,8,3,1,0,-6
1517207030288571,28,20,36,-7,-4,-3,-4,-7
1517207030309128,-6,4,-28,1,-4,-1,6,5
1517207030309128,7,2,-6,-7,2,3,0,0
1517207030311129,28,34,23,18,6,-3,3,4
1517207030311129,-35,19,-46,-21,-7,-3,-4,-7
1517207030323138,-22,-80,-46,-19,-8,-8,-6,0
1517207030323138,9,12,3,6,3,3,4,-7
1517207030338149,-17,-17,30,-2,-4,-6,-6,-5
1517207030338149,-1,7,-3,-22,-9,-4,-5,-6
1517207030346681,19,-10,14,14,4,-2,3,-2
1517207030346681,-27,-4,-8,-7,-8,-6,-3,-7
1517207030348157,18,-2,-21,-21,-7,-3,-2,-6
1517207030348157,-2,-25,15,19,7,1,7,5
1517207030369171,-13,-5,10,2,1,0,-7,-3
1517207030369171,11,1,-1,-27,-8,-4,0,-3
1517207030371172,24,25,19,24,10,5,4,4
1517207030371172,-8,-24,-55,-23,-8,-3,-5,-6
1517207030383196,-26,31,32,29,3,-2,5,29
1517207030383196,12,-6,-13,-13,-1,-1,-2,-9
1517207030399192,-10,36,2,-1,-1,0,-4,1
1517207030399192,-6,-44,8,-4,-3,-6,-2,1
1517207030406698,-35,22,3,-10,-3,-2,3,21
1517207030406698,4,-17,-41,6,1,-2,-5,-13
1517207030408199,1,-23,11,0,-3,-1,6,8
1517207030408199,11,0,-8,7,3,3,-4,-5
1517207030429213,-36,-15,12,-2,0,4,2,-4
1517207030429213,19,7,-12,5,-2,-3,-7,-4
1517207030430714,8,20,9,-4,-3,-3,-5,-3
1517207030430714,-2,7,12,-6,-3,-3,-1,0
1517207030459247,17,-1,10,1,-3,-1,0,-6
1517207030459247,-23,-53,-29,-3,-3,0,2,5
1517207030460748,-1,16,9,5,6,5,2,0
1517207030460748,-6,-4,15,12,5,2,-2,-10
1517207030467260,13,-40,-71,-24,-11,-6,-4,-7
1517207030467260,-1,17,44,7,-1,0,1,1
1517207030469251,5,-2,-36,2,1,1,1,2
1517207030469251,-22,-38,-26,-23,-5,-2,-3,-5
1517207030489257,23,44,43,5,1,1,0,-6
1517207030489257,12,-13,3,8,2,0,0,4
1517207030490758,-10,-23,-7,3,2,2,3,5
1517207030490758,20,-14,-22,12,2,-3,-3,-4
1517207030511783,4,8,17,-6,0,0,-1,-9
1517207030511783,8,18,-3,0,1,1,2,9
1517207030513274,-13,17,-51,-5,-4,-1,-3,15
1517207030513274,4,32,3,13,1,-1,-2,-29
1517207030526784,17,-13,-16,-4,3,1,3,9
1517207030526784,-14,47,31,2,-2,-2,-3,6
1517207030532786,-4,-25,-7,-7,-5,-3,-3,-21
1517207030532786,-6,17,33,7,-1,-1,-3,3
1517207030549301,5,-9,-18,-6,0,1,3,0
1517207030549301,-14,10,21,12,4,3,1,-3
1517207030550799,-9,-8,21,-8,-5,-6,-5,-4
1517207030550799,-13,-58,-11,-9,1,2,2,0
1517207030571824,-25,16,8,-5,-7,-7,-7,-15
1517207030571824,-1,-29,-13,-1,-3,-2,-3,0
1517207030573315,-8,-21,-2,-5,0,-1,-2,-4
1517207030573315,4,7,6,1,1,2,-1,0
1517207030586836,8,21,19,12,2,0,4,9
1517207030586836,-1,-15,-7,-9,-4,0,-3,-8
1517207030588326,-14,-5,-23,-9,-4,-1,-6,-6
1517207030588326,2,63,48,14,4,3,6,17
1517207030616861,52,-22,-53,-1,2,-1,-4,-12
1517207030616861,-27,2,18,19,0,-3,-4,2
1517207030618347,15,27,4,-22,-4,-1,-1,6
1517207030618347,13,-32,-8,2,1,3,2,2
1517207030631856,2,26,13,3,-2,0,0,8
1517207030631856,29,26,29,15,5,0,2,-3
1517207030633357,-2,-87,-50,-23,-7,-2,-4,0
1517207030633357,7,28,9,13,2,2,1,2
1517207030654374,-4,-41,0,-5,-2,-2,-2,-4
1517207030654374,5,9,-9,-5,1,3,5,2
1517207030655877,2,61,53,14,4,1,4,-1
1517207030655877,18,-3,-26,-13,-5,-2,-2,-1
1517207030668404,-27,-15,25,12,-1,-2,-1,-8
1517207030668404,-16,-19,-6,-12,2,3,0,2
1517207030676888,13,38,-4,8,3,2,3,-2
1517207030676888,-9,3,-36,-1,-4,-3,-7,-4
1517207030691900,-1,-4,6,10,6,3,0,10
1517207030691900,12,17,19,-18,-10,-8,-3,-6
1517207030693405,-11,-19,-4,8,-2,-3,-5,-8
1517207030693405,-15,9,-45,-22,-2,-3,-3,-3
1517207030705919,0,8,-4,0,0,-2,-1,1
1517207030705919,9,-12,-1,-12,-2,-1,0,5
1517207030712914,-17,-24,-7,1,-4,-4,-1,-9
1517207030712914,-16,16,33,-2,-3,0,1,-2
1517207030729483,-7,-12,-25,-11,-3,-3,2,17
1517207030729483,-1,18,7,-2,-4,-5,-5,-13
1517207030730981,9,-2,23,8,2,1,5,7
1517207030730981,19,-21,-16,-6,-4,-5,-6,-12
1517207030751483,4,-3,-10,8,6,4,2,6
1517207030751483,6,3,23,1,1,1,-3,2
1517207030757985,-9,8,-33,3,0,0,1,1
1517207030757985,-6,13,-8,-24,-7,-4,-1,-1
1517207030766003,6,21,22,10,2,2,2,-6
1517207030766003,-10,-22,-51,-3,-3,-4,-2,2
1517207030780513,3,-7,13,-6,-3,-5,-4,-3
1517207030780513,-4,10,32,6,-2,-2,0,1
1517207030789017,0,-33,-25,-3,-1,1,-2,-4
1517207030789017,-21,4,5,-5,-2,-3,-2,-3
1517207030791014,-7,18,9,-5,-3,-1,0,2
1517207030791014,-5,-18,-10,0,-1,0,0,1
1517207030819044,12,55,18,-1,-1,0,-1,-5
1517207030819044,5,-5,-8,-2,-2,-2,-3,-5
1517207030821031,-8,-23,16,11,1,-1,1,0
1517207030821031,-1,-28,-13,8,3,-1,-1,-4
1517207030826034,5,24,3,-17,-5,-3,0,0
1517207030826034,-3,-9,-2,5,1,1,3,14
1517207030840543,4,28,-24,-1,-1,1,-2,-21
1517207030840543,12,-15,12,-1,-4,-6,-4,4
1517207030849052,-12,26,23,11,2,0,2,1
1517207030849052,-12,-13,-45,-25,-12,-10,-9,-13
1517207030851050,-12,7,18,-3,-1,0,0,14
1517207030851050,-12,2,45,22,4,3,-1,-28
1517207030871566,19,37,-17,-24,-3,-2,-2,1
1517207030871566,3,-22,-23,5,4,3,6,5
1517207030873567,-1,-23,14,12,4,3,2,6
1517207030873567,-1,16,-2,-7,-5,-4,-3,0
1517207030886086,2,-12,-15,-2,-5,-4,-1,3
1517207030886086,3,2,19,-10,-1,1,0,-9
1517207030893089,9,9,-1,-2,1,-1,-1,0
1517207030893089,12,7,-3,8,5,1,3,12
1517207030909106,-47,-25,-3,16,1,1,-1,-17
1517207030909106,16,47,24,-8,0,1,1,9
1517207030911107,10,-32,-20,2,3,-1,0,-9
1517207030911107,-6,-1,28,-21,-10,-4,-3,3
1517207030931610,0,-4,-1,13,2,0,0,1
1517207030931610,-10,-9,-5,5,1,-1,-1,-2
1517207030933621,-3,19,8,-3,-1,-1,-1,-3
1517207030933621,2,4,-2,0,0,1,1,3
1517207030945617,2,-28,-13,-11,-4,-3,-3,0
1517207030945617,9,38,15,12,4,2,3,-7
1517207030954624,2,11,11,4,-1,-4,-4,-2
1517207030954624,-3,17,-3,-13,-1,2,0,9
1517207030969636,-6,-40,-43,-6,-6,-4,-3,-3
1517207030969636,-6,-21,4,-1,-3,-3,-3,-4
1517207030971138,1,17,-8,4,0,0,-2,5
1517207030971138,-12,-15,-14,2,3,0,1,-4
1517207030991651,4,16,52,6,3,1,0,-1
1517207030991651,-13,-23,-47,-6,-3,-1,-3,-10
1517207030993151,-30,-13,-1,-2,-4,-3,0,-3
1517207030993151,-9,8,-31,-3,-2,-2,-1,6
1517207031006176,6,3,14,0,1,3,0,-2
1517207031006176,11,-1,-15,6,0,-2,-1,7
1517207031014250,-16,7,-7,0,1,0,-3,2
1517207031014250,4,-39,22,2,-2,-2,-1,-5
1517207031036808,4,26,18,-4,0,0,0,3
1517207031036808,-12,-11,-9,1,-3,-3,-2,-3
1517207031038308,3,-8,-7,-6,-1,2,2,7
1517207031038308,4,-17,4,5,0,-3,-2,-1
1517207031051816,-1,11,-7,15,0,-1,-3,-6
1517207031051816,-1,-4,18,-19,-2,-1,-1,5
1517207031053317,7,-3,14,-2,1,1,1,-3
1517207031053317,16,13,-21,0,-1,-2,0,4
1517207031065880,-5,-16,7,2,-2,-2,-2,-3
1517207031065880,7,-8,-30,-9,-2,-2,-2,-3
1517207031074331,4,-11,13,-6,-6,-4,-2,5
1517207031074331,1,4,-5,0,2,1,2,-2
1517207031089343,-1,3,-1,-4,2,0,2,0
1517207031089343,-4,4,17,11,-1,0,-1,1
1517207031090846,7,-13,-12,-8,-4,0,-2,-4
1517207031090846,-7,8,12,1,-1,1,1,0
1517207031111870,2,-5,-25,-16,-2,-2,-2,0
1517207031111870,-4,-13,27,10,-2,-4,-2,1
1517207031113372,0,-7,-21,-4,-4,-4,-4,-6
1517207031113372,-5,11,-14,3,0,-1,-3,-4
1517207031125381,3,-10,0,1,-1,-2,0,2
1517207031125381,4,-8,-14,-2,2,0,-1,2
1517207031134374,0,29,-1,-3,-4,-5,-4,-3
1517207031134374,-6,-15,0,-10,-2,-2,-1,-2
1517207031149388,1,3,1,3,0,1,-1,0
1517207031149388,1,-26,6,10,2,0,0,1
1517207031150886,10,2,-9,-12,-6,-4,-3,-1
1517207031150886,-13,2,11,7,0,-2,-5,-8
1517207031171901,-4,-11,-23,-12,-3,-2,-2,-3
1517207031171901,4,5,-9,10,1,1,1,2
1517207031173421,-9,-28,-30,1,2,0,-2,0
1517207031173421,1,1,-8,-10,-5,0,2,1
1517207031185413,5,16,15,6,3,0,-1,-1
1517207031185413,-6,1,-9,-3,-3,-1,-1,-1
1517207031194416,6,6,38,6,0,0,1,1
1517207031194416,-3,12,-14,-4,-2,-2,-2,-3
1517207031209427,-3,-9,8,-13,-5,0,-4,-3
1517207031209427,2,0,0,0,-2,-1,0,0
1517207031210928,-1,-10,0,-4,0,-3,-1,-3
1517207031210928,3,2,9,8,3,1,2,3
1517207031231946,-3,-7,0,11,1,-2,-2,-2
1517207031231946,-5,10,0,-17,-4,-2,-1,-1
1517207031233960,0,0,-2,-2,-1,-1,2,-1
1517207031233960,-4,-3,0,2,-1,-2,-4,-1
1517207031245473,1,1,-17,-5,-1,-2,0,0
1517207031245473,-1,11,6,2,-2,-2,-1,0
1517207031254501,1,11,-2,10,0,0,1,0
1517207031254501,-7,-18,-24,-22,-7,-2,-3,-2
1517207031270512,-5,-12,-6,-2,-2,-1,2,0
1517207031270512,5,5,13,6,0,-2,-2,-1
1517207031272512,4,12,29,1,1,0,2,2
1517207031272512,-5,-17,-42,-2,-4,-3,-3,-4
1517207031292039,-3,1,13,4,-1,-3,-1,0
1517207031292039,-8,-20,-19,-2,1,1,-1,-4
1517207031293535,-2,17,17,15,1,0,-2,-3
1517207031293535,4,0,-5,-15,-3,0,0,1
1517207031305615,2,-3,6,1,-2,0,-1,0
1517207031305615,2,8,1,-9,-2,1,-3,0
1517207031314246,-2,-27,-19,2,1,1,0,-1
1517207031314246,-3,14,34,12,2,-3,-3,-3
1517207031329265,-2,-3,-70,-14,-3,1,0,1
1517207031329265,1,5,14,-5,-1,-1,-1,0
1517207031330768,0,2,-17,-13,0,0,0,-2
1517207031330768,2,4,0,7,0,1,1,2
1517207031351775,2,0,29,1,-3,-2,0,1
1517207031351775,-1,0,-8,6,-2,-4,-3,-3
1517207031353274,-3,-9,-13,-4,-4,-2,-2,-1
1517207031353274,-1,-4,2,-3,0,-2,-2,0
1517207031365281,-1,-7,3,-9,-3,-1,-2,-3
1517207031365281,-2,1,6,0,-3,0,0,-2
1517207031374289,-12,-6,9,13,1,-1,-2,-1
1517207031374289,0,-2,24,-19,-6,-4,-3,-1
1517207031389298,-2,-2,-83,-9,1,1,0,-1
1517207031389298,-3,4,57,9,2,1,0,-1
1517207031390800,10,-11,-10,-10,-5,0,-1,0
1517207031390800,8,16,9,13,2,1,1,4
1517207031411843,-5,-6,5,-5,-3,-1,-2,-3
1517207031411843,-6,-3,-18,-3,-2,-1,1,-1
1517207031413344,6,2,-5,0,-1,-4,-4,-3
1517207031413344,-2,1,0,-4,0,0,2,-2
1517207031434360,2,-5,19,8,-1,-2,0,3
1517207031434360,-1,-2,-14,4,0,-2,0,-1
1517207031435872,-11,10,10,-8,-4,-1,-3,-3
1517207031435872,-2,-29,-8,-4,-2,-2,-1,-2
1517207031447872,-9,3,6,7,3,-2,0,-3
1517207031447872,0,-4,-3,-6,-3,-1,-4,-3
1517207031456875,0,5,-2,-10,0,0,1,1
1517207031456875,-4,3,-9,5,0,0,-1,-4
1517207031471900,-2,-1,17,5,0,0,0,-1
1517207031471900,1,-1,-6,-6,-1,-1,-1,0
1517207031473398,-2,-1,-8,-4,-2,-3,-2,-3
1517207031473398,-2,1,0,5,1,1,-1,1
1517207031494405,2,0,12,-3,-3,-1,-3,-1
1517207031494405,-2,5,-8,-4,0,-1,-1,0
1517207031495918,0,-5,-1,2,1,0,0,-2
1517207031495918,0,4,-1,1,1,-1,0,-2
1517207031509413,0,1,9,-2,-3,-3,-1,-4
1517207031509413,1,-3,-12,1,-1,2,-1,-2
1517207031511427,-3,-6,-1,-3,-1,0,-2,1
1517207031511427,-1,2,1,-1,-1,0,-3,0
1517207031531429,-3,-1,2,-1,-1,-2,-2,-1
1517207031531429,-2,-7,-5,-3,-1,-2,-2,0
1517207031533468,1,1,2,-2,0,0,0,-1
1517207031533468,2,3,-6,-1,-3,0,0,0
1517207031554946,-1,-2,0,0,-2,-3,-4,-1
1517207031554946,-3,0,0,2,0,-3,-1,-1
1517207031556446,-4,-4,-4,-5,-4,-2,-1,-1
1517207031556446,0,2,-1,-1,0,-3,0,-1
1517207031568470,0,0,3,1,-1,2,-3,-2
1517207031568470,0,-2,-1,-4,-3,1,0,-1
1517207031575461,-3,-3,-2,0,-2,-2,-2,-3
1517207031575461,-4,-2,-3,2,-1,-3,-1,-2
1517207031591971,0,0,2,-1,0,-1,-2,-2
1517207031591971,1,2,1,1,0,0,0,-1
1517207031593472,-2,-5,-5,-1,-1,-3,0,-2
1517207031593472,0,-1,-1,-1,-2,0,1,0
1517207031622011,0,-3,0,-3,-2,-3,-2,-1
1517207031622011,-2,-3,-4,-3,0,-1,-1,-1
1517207031623501,-1,-2,0,-1,-3,1,-1,0
1517207031623501,0,-1,2,2,1,1,0,-1
1517207031628498,-2,-1,0,-1,0,0,0,-2
1517207031628498,-3,-4,-4,-2,-2,-1,-3,-1
1517207031635518,-1,-1,1,-2,0,-1,-1,-1
1517207031635518,0,1,-4,-2,-2,0,-1,-1
1517207031651513,1,0,-1,-1,-1,1,2,0
1517207031651513,-1,-1,-1,0,-1,-2,-2,-1
1517207031653515,-1,0,-1,1,-1,-1,-1,-1
1517207031653515,-1,0,-2,-1,0,-1,-2,0
1517207031674529,0,-1,-2,-1,0,-1,-1,0
1517207031674529,-1,1,3,0,-1,1,0,-1
1517207031676065,0,-1,0,-1,0,-1,-1,-2
1517207031676065,0,-1,-2,-2,0,-1,-2,-1
1517207031688549,-1,-3,0,-1,-2,-2,-1,-2
1517207031688549,-2,-1,-1,-2,-2,-1,-1,0
1517207031695564,-3,-1,0,-2,-1,-1,0,-1
1517207031695564,1,-1,0,1,0,0,-1,-1
1517207031711565,-2,-2,-4,-4,-1,-1,0,-1
1517207031711565,-1,-2,0,1,0,-1,1,-1
1517207031713567,0,-1,-1,-1,-1,-2,-1,0
1517207031713567,-2,-1,-2,-1,-4,0,-1,-1
1517207031734093,-1,1,-1,0,0,1,-1,0
1517207031734093,-1,-2,-2,-1,-1,-3,-2,-1
1517207031735573,-1,-2,-1,0,-2,0,-1,-1
1517207031735573,-3,-3,-1,-2,-2,-3,-2,-3
1517207031748596,0,-1,1,-1,0,0,-2,-1
1517207031748596,0,-1,-3,1,0,1,-1,-1
1517207031755587,-2,-1,-1,-1,0,0,-1,0
1517207031755587,-2,0,-1,0,-1,-2,-1,-1
1517207031771599,-1,0,-2,0,-1,-2,-3,0
1517207031771599,-1,-1,-2,-1,0,0,0,0
1517207031773599,0,0,-3,-1,-1,-1,-1,-1
1517207031773599,-1,-3,0,-2,-2,-2,0,0
1517207031794116,-1,0,-1,-2,-3,-2,-1,-1
1517207031794116,-2,0,-1,-2,-1,-2,-1,-2
1517207031796131,-2,-2,-1,0,-1,-1,-1,-2
1517207031796131,0,0,-1,0,0,0,0,-2
1517207031816651,0,-1,-2,0,-1,1,0,-1
1517207031816651,-1,1,-1,-1,-3,-1,-2,-1
1517207031818631,0,-2,-1,-1,0,0,-1,-1
1517207031818631,-2,-1,-1,-2,-1,-4,-2,-1
1517207031831672,-1,-3,0,0,-2,1,0,-1
1517207031831672,-1,-1,-1,-1,0,0,0,0
1517207031833656,-3,-1,-1,-2,0,-1,-1,0
1517207031833656,-1,0,0,-2,0,-2,1,-2
1517207031854665,-2,-1,0,-1,-1,-1,-2,-1
1517207031854665,0,-3,0,-2,0,-1,-1,-1
1517207031855662,-1,-2,-2,-1,-1,-2,-2,-1
1517207031855662,-2,-1,-1,0,-1,0,-2,-1
1517207031868670,-2,-1,-1,-2,0,-1,-2,0
1517207031868670,0,-2,0,-1,-2,-1,1,1
1517207031875175,-1,-1,-2,0,-1,0,0,-1
1517207031875175,-1,-1,-3,0,-1,0,1,0
1517207031891700,-1,-1,-1,1,0,-1,0,-4
1517207031891700,-3,0,-2,-1,-2,-1,-3,-1
1517207031893204,-1,-1,-1,-2,-1,-1,-1,-1
1517207031893204,-2,-1,0,-1,0,0,-1,0
1517207031913202,-2,-1,-1,-2,-1,-2,-1,0
1517207031913202,-1,-1,-1,0,1,-1,0,-2
1517207031921710,-1,1,-2,0,-1,-1,-1,-1
1517207031921710,1,-1,0,-2,-1,-2,-1,-2
1517207031927722,-1,-1,-1,-1,-1,-1,-1,-2
1517207031927722,-1,-1,0,-2,-1,-1,-2,-2
1517207031936719,-2,-2,-1,0,-2,0,-2,2
1517207031936719,-3,-1,-1,0,0,-1,0,-1
1517207031951738,-2,-2,-1,-1,-2,0,0,-1
1517207031951738,-1,-1,-1,-2,-1,-1,-1,-2
1517207031953232,0,-1,0,-1,-1,0,-2,-1
1517207031953232,-2,0,-2,-1,-2,2,-1,0
1517207031974245,-2,-1,0,-1,0,-2,-1,-2
1517207031974245,-2,-2,-1,-1,0,-2,-1,-3
1517207031975746,-1,-2,0,-1,-2,-1,1,-1
1517207031975746,-1,-2,-1,-1,-1,-1,-1,-1
1517207031988274,0,-2,-2,-2,-2,0,-2,-1
1517207031988274,-1,1,-2,0,0,0,0,0
1517207032002765,-1,-1,-1,0,-1,-2,-1,-1
1517207032002765,0,-1,0,-3,-3,0,-1,0
1517207032011781,-1,0,-3,-1,-3,-2,1,0
1517207032011781,0,-2,-1,0,-2,-1,-1,-1
1517207032013282,-3,0,0,-1,-1,-1,-1,-1
1517207032013282,-2,-1,-1,0,1,-1,1,-1
1517207032034309,-2,-1,-2,0,0,-4,0,0
1517207032034309,-1,-1,-1,-1,-1,-1,0,0
1517207032035794,-1,-3,-1,0,0,-1,1,-1
1517207032035794,-1,-2,0,-3,0,-1,-1,-2
1517207032047800,-1,-1,0,-2,0,-1,0,-1
1517207032047800,0,-1,-1,-1,0,-1,-2,-2
1517207032064321,0,-1,-1,-2,0,-3,-1,0
1517207032064321,-1,0,-3,-1,-1,-1,-2,0
1517207032071840,-2,0,-1,0,0,0,-1,-2
1517207032071840,-2,-1,-1,0,-2,0,-1,-1
1517207032073325,-2,0,0,-3,-2,-1,-2,-1
1517207032073325,2,0,0,0,-1,0,-2,0
1517207032094353,-1,-1,-1,-3,-1,-1,-1,-1
1517207032094353,0,-1,-2,0,0,0,-1,-1
1517207032095850,0,-2,-1,-1,-2,0,-1,-1
1517207032095850,-1,0,0,-2,-1,-1,-1,-2
1517207032107841,-1,-2,-1,-3,-2,-2,-1,-1
1517207032107841,-2,-2,0,-2,-1,-2,-1,-1
1517207032116856,-2,0,0,-2,0,-2,0,-2
1517207032116856,-1,-2,-2,-1,-3,-2,-1,-1
1517207032131876,-2,0,-1,1,-1,-1,-2,-2
1517207032131876,-1,0,-2,-1,-1,-2,-1,0
1517207032133381,0,0,-3,-2,-2,-1,-1,-2
1517207032133381,-2,0,-2,-1,-1,0,-1,1
1517207032154379,-1,-2,-1,-2,-1,-1,-2,-1
1517207032154379,-2,0,0,-1,-1,-2,0,-1
1517207032155876,-1,-1,-2,-1,0,0,-2,-2
1517207032155876,0,-2,-1,-1,0,-1,0,-2
1517207032176889,-1,0,-2,1,-2,-1,-1,0
1517207032176889,0,-1,-2,-2,0,-1,-3,-2
1517207032178402,-1,1,1,-2,0,-1,-1,0
1517207032178402,0,-1,-1,-2,-2,0,0,-3
1517207032190908,0,0,-1,-1,-1,-1,1,-1
1517207032190908,-2,-1,-1,-1,-1,0,0,0
1517207032199404,-1,-1,-1,-1,-2,-2,1,-1
1517207032199404,-3,-1,-3,0,-1,-2,-3,-1
1517207032214428,-2,-1,0,-1,-2,-1,-2,-2
1517207032214428,-2,0,-1,0,-2,0,0,1
1517207032215925,0,0,-2,0,-1,-1,-2,2
1517207032215925,-3,0,-1,-2,-1,-1,1,-1
1517207032228448,1,0,-1,0,-1,0,0,-1
1517207032228448,0,-1,-2,-1,-1,-2,-1,-1
1517207032236933,0,0,0,0,-2,-2,-1,-1
1517207032236933,-1,-2,-2,-2,-2,-3,-2,0
1517207032251958,-3,-1,-2,-2,1,-1,-2,0
1517207032251958,0,-2,-1,-2,-1,0,1,0
1517207032253442,-3,-4,-2,-1,0,-1,-2,-1
1517207032253442,-1,-1,0,1,-1,-1,0,0
1517207032273957,-1,-2,-1,1,-1,-1,-2,0
1517207032273957,-1,0,0,-1,0,-1,-2,-2
1517207032275958,-1,-1,-2,-3,-2,-3,-1,-1
1517207032275958,0,0,-1,0,-1,-2,-2,-1
1517207032287982,-1,0,-3,-2,0,-1,-1,-1
1517207032287982,-2,-1,-2,-2,-1,-1,0,-1
1517207032297000,-1,0,-1,-2,-2,0,0,-2
1517207032297000,1,-1,-2,-1,-1,0,-1,0
1517207032311500,-1,-2,-1,-3,-2,-2,0,1
1517207032311500,-1,-1,-2,0,-1,0,-1,1
1517207032313500,-1,-2,-1,0,0,1,-2,-2
1517207032313500,-1,0,0,-2,-1,-1,-1,0
1517207032334037,-1,0,-1,1,0,-3,-3,0
1517207032334037,-2,0,-1,-2,-1,-1,-1,-3
1517207032342031,0,-1,-1,0,0,0,-1,1
1517207032342031,-1,-2,0,0,-1,-2,-2,-1
1517207032357048,1,0,-2,1,-3,-1,-1,0
1517207032357048,0,-1,-3,-1,-1,-2,-1,1
1517207032358541,-1,0,-2,-1,-1,-2,0,-1
1517207032358541,0,-2,0,-2,-1,2,0,-2
1517207032371541,-2,-1,-2,-3,0,-2,1,-3
1517207032371541,-1,-1,-1,-1,-2,-1,0,-2
1517207032373542,-1,-1,0,-1,0,-2,-2,-2
1517207032373542,0,0,-2,0,-1,-1,-1,0
1517207032394556,-1,-3,-1,-2,-2,-2,-2,-2
1517207032394556,-1,-1,-1,-1,-2,-2,0,0
1517207032396057,-1,-2,-3,-1,-2,-2,-1,0
1517207032396057,-2,-1,-2,-1,-1,0,-2,0
1517207032417573,-1,-2,0,-1,0,1,-1,0
1517207032417573,0,-2,-1,-1,0,-3,-1,-2
1517207032419094,-1,-1,-1,0,-1,-2,0,0
1517207032419094,-1,-2,-2,0,-1,-1,-2,-1
1517207032431609,-1,-1,-1,-1,0,-1,-2,-1
1517207032431609,-1,-2,-2,-1,1,-3,-2,1
1517207032433093,0,-1,0,-2,0,0,-2,0
1517207032433093,-1,-1,-1,-1,1,-1,-1,-2
1517207032454108,-1,1,0,1,-1,-2,-1,-2
1517207032454108,-1,-1,0,-2,-3,-1,-2,-2
1517207032455600,-1,1,-3,-1,-1,-1,0,-1
1517207032455600,-2,-1,0,-1,-1,-1,-1,-1
1517207032476614,-2,-2,-1,-2,-1,-1,0,0
1517207032476614,-1,1,-1,-1,0,-2,-2,-1
1517207032484650,-3,-1,0,-1,-1,-3,-1,-3
1517207032484650,-2,-3,-1,-2,-3,-1,-1,-2
1517207032491134,0,-1,-2,0,-2,-4,-1,-1
1517207032491134,-1,0,0,-2,-1,-1,-2,-1
1517207032497629,-1,-3,-1,-2,-3,0,1,-1
1517207032497629,-1,-1,0,-1,-1,-1,0,0
1517207032514192,0,-2,-1,0,0,-2,0,-1
1517207032514192,-1,-2,-2,-1,0,-2,-1,0
1517207032515671,1,0,-1,0,-1,-2,-3,0
1517207032515671,0,0,-1,-3,-1,-1,0,-1
1517207032536726,0,1,-2,-2,-2,0,-1,0
1517207032536726,-2,-1,-1,-1,-2,1,0,-2
1517207032538227,0,-2,-2,-1,-3,-1,-1,-2
1517207032538227,-1,-2,-1,0,-1,-2,-1,-1
1517207032551245,-1,-1,-2,-2,-2,-1,-2,1
1517207032551245,-2,-1,-1,1,-2,0,0,-1
1517207032557741,-1,-4,0,-1,0,-1,-1,-1
1517207032557741,-1,-2,-2,-1,-2,-1,-2,0
1517207032574251,-2,-1,-2,0,0,0,-2,-3
1517207032574251,-3,-1,0,-1,-2,-1,-1,-1
1517207032575752,-1,-1,-1,-2,-2,-2,-1,0
1517207032575752,-2,0,-1,-1,1,-2,0,1
1517207032596782,0,-2,-1,-1,-2,0,0,-2
1517207032596782,0,-1,-2,-1,1,0,-2,0
1517207032598268,0,0,-1,-1,0,-2,-1,-1
1517207032598268,-3,-1,-1,-1,-2,-1,-3,-2
1517207032610789,-3,-1,-1,-1,-3,-1,-1,-2
1517207032610789,-2,-2,-2,-2,-2,-2,-1,-2
1517207032617841,-1,-1,-1,0,-3,-1,-1,-1
1517207032617841,-1,1,-1,-1,-1,-2,0,-4
1517207032649396,0,-1,-1,0,-1,0,0,-1
1517207032649396,1,-1,-2,-3,-2,-1,-1,0
1517207032650897,-1,-1,-2,-2,0,-1,-1,-1
1517207032650897,-1,-1,-2,-1,-3,-1,-2,0
1517207032656903,0,-2,-1,0,-1,-1,-2,0
1517207032656903,-1,0,-2,-1,-1,-2,0,-1
1517207032658404,-1,0,-1,-1,-1,0,0,-2
1517207032658404,-1,0,-3,-1,1,-1,-1,-2
1517207032678918,-1,0,-1,-3,-1,-1,-2,0
1517207032678918,1,-1,0,-2,-1,0,0,1
1517207032680933,-3,-2,-2,-2,-4,0,-1,0
1517207032680933,-2,-2,-2,-1,-1,1,-2,0
1517207032701481,-2,-2,0,0,-2,-1,-2,1
1517207032701481,-2,0,-1,0,1,-2,-1,-1
1517207032703470,0,-1,-2,1,0,-1,-1,-2
1517207032703470,-1,0,0,-2,-1,-1,1,-1
1517207032716538,-3,-1,-1,-3,0,-3,-1,0
1517207032716538,-1,-2,1,-3,0,0,-2,-1
1517207032718495,-1,-1,0,-1,-1,-2,-1,-1
1517207032718495,1,-1,-1,-1,0,1,-1,-1
1517207032731546,-1,-2,-2,1,0,-1,-1,-2
1517207032731546,0,-1,0,-1,0,1,-1,-1
1517207032737995,-3,-2,-3,-1,-1,-2,-3,0
1517207032737995,-1,-2,0,-2,-2,-2,-1,0
1517207032754006,0,0,-4,-2,-1,-1,-1,-2
1517207032754006,-1,-1,1,-1,-2,0,0,-2
1517207032756009,-1,-1,-2,-1,0,-1,1,0
1517207032756009,-2,-3,-1,-1,-1,-1,0,-1
1517207032776522,-1,-2,1,-1,-2,-1,0,-1
1517207032776522,-1,-1,-3,0,-1,-1,-3,-2
1517207032778522,-1,-1,-1,0,0,0,-1,-1
1517207032778522,0,-2,-1,-2,0,-3,0,-2
1517207032791031,0,-1,-1,-1,0,0,0,0
1517207032791031,0,-2,-2,0,-1,-1,-1,1
1517207032798083,0,-1,0,-3,0,0,-2,-1
1517207032798083,-1,0,0,1,1,1,0,1
1517207032814610,-2,-2,-1,-1,-1,-2,-1,-2
1517207032814610,-2,-2,-1,-1,-1,-2,-2,-1
1517207032816093,-2,-2,-1,0,-2,-3,-1,1
1517207032816093,1,-2,-3,-2,-1,-1,-1,-1
1517207032844127,0,0,-1,-1,-2,0,0,-2
1517207032844127,-1,0,0,-1,-1,-1,0,-2
1517207032846614,-1,-1,-1,-3,0,0,0,-2
1517207032846614,0,0,0,0,-2,-1,-1,1
1517207032850617,-1,-1,-1,-2,-1,0,-2,0
1517207032850617,-1,0,-1,0,-2,-2,-1,-1
1517207032865628,0,-1,-1,-1,-2,1,-1,0
1517207032865628,-1,-2,-1,0,-2,-1,-1,-2
1517207032874133,-2,-2,-1,0,0,0,-2,-1
1517207032874133,0,0,-1,-2,0,-1,-1,0
1517207032875634,0,-3,0,-1,-2,-1,-1,0
1517207032875634,-1,0,0,-1,-2,-3,-3,0
1517207032896650,0,-1,-3,-1,0,0,-1,1
1517207032896650,-2,-2,-1,0,-1,0,0,-2
1517207032898151,-1,0,-2,-2,0,-1,-2,-1
1517207032898151,0,-1,0,-1,0,-2,-1,-1
1517207032910171,0,0,-1,-1,-1,-1,0,1
1517207032910171,-1,0,-2,-1,0,0,-1,0
1517207032919227,0,0,-1,-3,-2,-1,-1,0
1517207032919227,-1,-1,-1,-2,0,0,0,-1
1517207032934239,-3,0,-2,-2,-1,0,-1,-1
1517207032934239,-2,-2,-2,-2,-3,0,-1,-1
1517207032935763,-1,0,0,0,-2,-1,-1,-1
1517207032935763,-2,-1,-1,-2,-1,-2,-1,-2
1517207032956766,-1,-2,-1,-2,-1,-2,-1,-1
1517207032956766,-1,-2,-2,0,-2,-3,0,-2
1517207032958255,0,-1,-1,0,-2,-1,0,-2
1517207032958255,-2,-2,-2,-2,-1,0,-3,-1
1517207032979288,-1,-1,-1,0,-1,0,-1,-1
1517207032979288,-1,-2,0,-2,-1,0,-2,0
1517207032980784,-2,0,-2,-2,-1,0,0,0
1517207032980784,-1,-1,-2,-1,-1,0,-1,-1
1517207032994281,0,-1,-1,-1,0,-3,-1,-1
1517207032994281,0,-1,-1,-1,-2,-3,-2,-1
1517207033000307,-1,-2,-1,-1,-1,-1,-2,-2
1517207033000307,-1,-1,-2,1,-2,-2,-2,-1
1517207033016796,0,-1,-2,-2,-2,0,-2,1
1517207033016796,0,0,-1,0,0,0,-2,-1
1517207033018298,-2,0,-1,-2,0,-2,-1,-1
1517207033018298,-2,0,-1,-1,-1,-1,-1,-1
1517207033038315,-2,0,-1,0,-3,-1,-2,-3
1517207033038315,-1,-3,-1,-3,-3,-3,-2,-1
1517207033039312,-1,0,0,-1,0,0,0,0
1517207033039312,0,-2,0,-2,-2,0,-1,-2
1517207033061828,1,-1,0,0,1,0,-2,0
1517207033061828,-1,1,-2,-1,-1,0,0,-1
1517207033062328,-2,-2,-1,0,-2,-1,-1,-1
1517207033062328,-2,-1,-1,-1,-1,0,-1,-1
1517207033075853,-2,-1,0,-1,-2,-2,0,-1
1517207033075853,-1,-1,-1,-1,-2,-1,-1,0
1517207033076841,0,-1,-1,-1,-1,-2,0,0
1517207033076841,0,0,-2,-2,0,-2,-1,-1
1517207033098369,0,-2,-1,-2,-1,-1,-1,-3
1517207033098369,-1,0,-1,-1,1,-1,-1,-2
1517207033099355,-1,-2,-1,0,-1,-1,0,-2
1517207033099355,-1,0,-1,-2,0,-1,-2,0
1517207033113387,-1,0,0,0,-2,-1,0,-1
1517207033113387,-1,-2,-3,-2,0,-1,0,-2
1517207033114366,-1,0,-2,-2,0,1,-2,-1
1517207033114366,1,-1,-1,1,-1,-1,0,-2
1517207033135884,-1,-3,-2,-2,-1,-2,0,0
1517207033135884,-1,-1,-1,0,-1,-1,1,-1
1517207033136882,-1,-2,-1,-1,0,-2,-1,-2
1517207033136882,-2,-3,-1,-1,-2,1,0,0
1517207033158396,-1,0,-1,0,0,-1,-1,-1
1517207033158396,-1,-3,-1,-2,-1,-1,0,-1
1517207033159397,0,-2,-1,-2,-1,-1,0,-1
1517207033159397,-2,-1,-1,-1,-2,-3,-2,-2
1517207033174908,-2,-1,0,0,-1,-1,-1,0
1517207033174908,-2,-1,-2,-1,-2,-1,-1,-1
1517207033175910,-2,-2,-1,0,1,-1,-2,-2
1517207033175910,0,-2,-2,-2,-2,-2,-2,-2
1517207033195932,0,1,-2,-2,0,-1,-1,-2
1517207033195932,0,-1,0,-1,-1,-1,-2,2
1517207033196924,0,-1,-2,-2,-1,0,-1,-2
1517207033196924,0,-1,0,0,-2,-1,0,-1
1517207033218963,0,0,-2,-2,-2,-2,-2,-2
1517207033218963,-2,-1,0,-1,-1,-1,0,-2
1517207033225944,-1,-1,0,0,-1,-2,-1,-1
1517207033225944,-1,0,-1,-1,-1,-2,0,-1
1517207033233522,-3,0,-2,0,-2,-1,-1,-1
1517207033233522,-1,-2,-1,0,-1,0,-1,-2
1517207033234511,-2,0,-2,-2,-3,0,-1,2
1517207033234511,-2,-2,0,-1,0,-1,-1,-2
1517207033256015,-2,-2,-1,-2,-2,-1,-1,0
1517207033256015,0,-1,1,-1,-1,-1,-1,-2
1517207033257017,-3,-2,-1,-1,0,-1,1,-1
1517207033257017,-1,-1,-2,-3,1,0,-1,0
1517207033279032,-1,-1,-1,-1,0,-1,-1,-1
1517207033279032,-1,-1,-1,-2,-1,-2,-2,0
1517207033286045,0,0,-1,0,-2,-4,-2,-2
1517207033286045,-2,-1,0,0,-1,-1,0,-2
1517207033293542,-1,-2,0,0,-1,-1,-1,-1
1517207033293542,-1,-1,-1,-1,0,-1,-1,0
1517207033294552,-1,0,0,-2,-2,0,-2,-2
1517207033294552,-2,0,-2,-2,0,-2,-1,-1
1517207033316087,-3,-1,-2,0,-1,-1,1,-1
1517207033316087,-1,0,-2,1,-1,-1,-2,1
1517207033316558,-2,-1,1,-2,0,-2,-1,-1
1517207033316558,-2,0,0,1,0,-2,0,-1
1517207033338575,-1,-1,-1,-1,-2,-3,-1,-1
1517207033338575,0,-1,-1,-1,-2,-1,0,0
1517207033339077,-2,-1,-2,0,-2,0,-1,-1
1517207033339077,-1,-1,-2,-1,-1,0,-1,-1
1517207033353585,-1,1,-1,0,-1,1,-1,0
1517207033353585,-2,0,0,-1,-2,-2,-1,-3
1517207033354585,-2,-1,-1,-2,-1,-2,-1,0
1517207033354585,1,0,0,-1,-3,0,-1,0
1517207033376116,1,-2,-1,-2,-2,0,-2,-1
1517207033376116,0,0,-1,-4,-1,-1,0,0
1517207033376600,-3,-3,-2,-3,0,0,1,-2
1517207033376600,-1,-1,0,-1,-1,-2,-2,-2
1517207033398620,-1,0,-1,-2,0,-2,1,-1
1517207033398620,-1,-2,-2,0,-2,0,-1,-1
1517207033399125,-2,-1,0,0,0,-2,1,-1
1517207033399125,-1,0,-3,-1,-2,-2,-1,0
1517207033422633,-1,-1,-1,1,0,1,-3,-1
1517207033422633,-1,-2,-1,-1,-1,0,0,-2
1517207033423134,-1,0,-1,0,-2,0,0,-1
1517207033423134,1,0,-1,1,0,0,-1,0
1517207033436157,-1,-2,-1,-1,0,-2,-2,-1
1517207033436157,-2,-1,-2,-1,0,-3,0,-1
1517207033436642,1,0,0,0,0,-1,-2,-2
1517207033436642,-2,1,0,0,1,-1,0,-1
1517207033458671,-1,0,-1,-2,-3,0,-1,1
1517207033458671,0,-2,-1,-2,0,-1,-1,-3
1517207033459159,-1,0,0,-2,-1,-2,0,-1
1517207033459159,-1,-2,-1,-2,-2,-2,-1,0
1517207033475184,-1,-2,-2,0,0,-2,0,-1
1517207033475184,-2,-1,-1,1,-2,-2,-1,-1
1517207033475670,0,-2,-2,-2,0,0,-2,-1
1517207033475670,-2,-1,-1,-1,0,-1,-2,-2
1517207033496199,0,-1,0,-1,-2,-1,-1,-2
1517207033496199,-2,-1,1,1,-1,0,0,-1
1517207033496684,-1,-1,-1,-1,-2,-2,0,0
1517207033496684,-1,-1,-1,-1,-1,-1,-2,-2
1517207033518220,0,-1,0,-2,-1,-1,-2,1
1517207033518220,-2,-1,-2,-1,-1,-1,-1,0
1517207033519216,0,-2,-1,0,-1,0,-2,-1
1517207033519216,-1,-1,-2,-1,-1,-1,0,-2
1517207033533210,-2,-2,0,-2,-1,1,-1,-3
1517207033533210,0,0,-1,-4,-2,0,-1,1
1517207033534211,-1,0,-2,-2,-2,-2,-1,-1
1517207033534211,0,-2,-2,0,-2,0,-3,-2
1517207033556729,-1,0,-2,1,0,-2,0,-2
1517207033556729,0,-2,-2,-1,-2,-2,-2,1
1517207033557231,-1,-4,0,-1,-2,0,-2,-1
1517207033557231,0,-2,-1,-2,-2,-1,0,-1
1517207033578743,0,0,-1,0,-1,0,-1,-1
1517207033578743,-1,-1,0,1,-1,0,0,-1
1517207033579243,-1,0,0,0,-2,-1,-1,-1
1517207033579243,0,-1,0,-1,-2,-1,0,-2
1517207033593768,-2,-4,-1,0,-2,0,-1,0
1517207033593768,-1,-2,-1,-1,0,-1,0,-1
1517207033594253,-1,-1,-1,0,-2,-1,-1,-2
1517207033594253,-1,0,-3,0,0,-2,-2,0
1517207033616269,0,-2,-1,-2,-2,-1,0,-1
1517207033616269,0,-1,0,-1,-1,-1,0,0
1517207033616770,-2,-2,-2,0,0,-2,-2,0
1517207033616770,-1,-2,0,-1,-2,0,0,-2
1517207033639287,-1,-2,0,-1,-2,-1,-1,-2
1517207033639287,-1,-1,0,-1,0,-1,-1,0
1517207033639787,0,0,-1,0,-1,-1,-2,0
1517207033639787,-2,-2,-1,0,0,0,0,-2
1517207033653797,-1,1,-2,-1,0,-1,0,-1
1517207033653797,-2,0,-1,-2,-2,0,-1,-2
1517207033654297,-1,1,-2,-2,-1,-2,1,0
1517207033654297,0,-1,0,-1,0,-2,0,0
1517207033675811,-2,-2,-1,-2,-2,-1,0,-2
1517207033675811,-2,-1,0,-1,0,-1,0,-2
1517207033676813,-2,-3,-2,-2,0,-1,-2,-1
1517207033676813,0,-1,-2,-2,-2,-1,-2,-1
1517207033706834,-1,-1,-1,-3,2,-1,-1,-2
1517207033706834,0,-3,-2,-2,-1,1,0,-1
1517207033707335,-2,0,-1,1,-2,-2,-1,-1
1517207033707335,-3,0,-2,-1,0,-1,0,0
1517207033713337,-1,0,-3,-1,0,0,0,-1
1517207033713337,1,-2,-3,0,0,-2,-2,-2
1517207033714338,-1,0,-2,-1,-2,0,-1,-1
1517207033714338,-1,-1,-1,-1,-1,-2,-1,-1
1517207033735869,-2,2,0,0,-2,-1,-1,0
1517207033735869,-1,1,-1,0,-1,-1,-1,-2
1517207033736854,-1,0,-1,-1,-1,0,-1,0
1517207033736854,-1,-1,-2,-1,-1,-1,-3,-1
1517207033759370,0,-3,1,0,0,0,-1,-1
1517207033759370,-1,-2,-1,-1,0,-2,-1,-2
1517207033759871,0,-1,0,-1,-1,-1,0,-2
1517207033759871,-1,0,-1,-3,-2,-1,0,0
1517207033773393,-1,0,1,-2,-3,-2,-2,0
1517207033773393,-4,-1,-1,-1,0,-2,-3,-2
1517207033774394,0,-1,-1,-2,0,-1,1,-1
1517207033774394,-1,-1,-1,-1,-1,-1,-1,0
1517207033795906,2,-1,-3,0,-2,-1,-1,-1
1517207033795906,-3,-1,0,-2,0,0,-3,0
1517207033796897,0,-2,-1,-2,0,-3,-1,-2
1517207033796897,0,-2,-1,-1,-1,-1,-1,-2
1517207033818936,-3,0,-1,-2,1,-2,0,0
1517207033818936,0,0,0,-1,-1,-1,-2,-2
1517207033819921,-2,-2,-3,0,-2,0,0,-1
1517207033819921,-1,-1,0,-2,-1,-2,-1,-1
1517207033841930,-1,-2,-2,-2,-1,-2,-1,-1
1517207033841930,1,-2,-2,-2,-1,-1,1,0
1517207033842430,-2,-1,0,-1,0,-2,-2,-1
1517207033842430,-1,0,-2,0,0,0,0,-1
1517207033863964,1,-1,-1,-1,0,-1,-1,-1
1517207033863964,1,0,-1,-3,-4,-1,0,-2
1517207033864956,-1,-2,-1,-1,0,0,-1,-1
1517207033864956,-1,-1,-3,-1,-2,-1,0,-2
1517207033879455,-2,-2,0,0,-2,-1,-2,-1
1517207033879455,-1,0,1,0,0,1,0,-2
1517207033879955,-1,1,-3,0,-1,0,-2,1
1517207033879955,0,0,-2,-1,0,0,-1,-1
1517207033893467,0,-1,-5,-2,0,1,0,1
1517207033893467,0,-3,-1,1,-2,1,0,0
1517207033900971,0,0,-2,-2,-2,-2,-1,-2
1517207033900971,-2,-1,0,-1,0,2,-2,-2
1517207033915999,-1,-1,0,0,0,-2,-2,-2
1517207033915999,-1,-1,1,-3,-1,-3,-1,-1
1517207033916993,-1,0,0,-2,-1,0,-2,-2
1517207033916993,-1,0,-1,-1,-1,-1,1,-1
1517207033946526,-2,-1,0,-1,-1,2,-1,-1
1517207033946526,-2,-1,-3,1,-1,-1,-1,0
1517207033947513,0,-2,-1,-1,0,-1,-1,-2
1517207033947513,0,-1,0,0,-1,-2,-2,-1
1517207033953007,-1,-1,-2,-2,-1,-2,1,0
1517207033953007,-1,-2,-3,0,-1,-1,-2,-1
1517207033961015,-2,0,-2,0,-2,0,2,-1
1517207033961015,-3,0,0,0,-1,-2,-4,0
1517207033976036,-1,0,-1,0,-1,-2,0,-2
1517207033976036,-1,0,0,-1,-1,-2,-1,0
1517207033976524,-1,-1,-2,-1,-2,-1,-2,-1
1517207033976524,-2,-2,-2,0,0,-3,-1,-1
1517207033999040,-2,-2,-2,0,-2,-2,-1,-2
1517207033999040,0,0,-2,-2,-1,-1,-1,-2
1517207034000041,-1,-1,-1,-1,0,-1,-1,1
1517207034000041,-1,0,0,-2,0,0,-1,-1
1517207034012550,-1,-1,-1,-1,-1,-1,-2,-1
1517207034012550,0,-1,0,-1,0,-1,-2,-1
1517207034021115,1,-2,0,0,-2,-3,-2,-1
1517207034021115,1,-3,-1,-1,-1,1,-1,0
1517207034036126,0,-2,1,-1,-2,-2,-2,-1
1517207034036126,-1,-1,-1,1,-1,-2,-1,-2
1517207034036625,-1,0,0,-1,-1,-2,-1,-1
1517207034036625,-1,0,-3,0,-3,-1,0,-1
1517207034066667,-2,-1,-1,-1,-1,0,0,0
1517207034066667,-1,-1,1,-1,1,1,0,0
1517207034067668,-2,0,0,0,-1,-2,0,0
1517207034067668,-1,-1,0,0,0,0,-2,1
1517207034072651,-1,1,-3,-1,-2,0,-1,0
1517207034072651,-1,-1,-1,-1,-1,-3,-1,-1
1517207034088664,-1,-2,-1,0,0,0,-1,-1
1517207034088664,-2,-1,-1,-1,-1,-2,0,-1
1517207034096184,-2,-1,0,0,0,-2,-1,-1
1517207034096184,-1,-2,-2,-1,-1,-1,-1,-2
1517207034096668,0,-1,-1,-2,-1,0,0,-2
1517207034096668,0,-1,-1,-1,0,-1,-1,0
1517207034119187,-1,-3,-1,-2,-1,-2,-3,0
1517207034119187,-1,0,0,0,-2,0,0,-1
1517207034119684,-2,0,-1,0,-1,-1,-2,-1
1517207034119684,-2,-1,-2,-1,-2,0,0,0
1517207034132713,1,-1,-2,-2,0,-2,-1,1
1517207034132713,-2,-2,0,-1,0,-2,-2,1
1517207034141200,-3,-3,-1,-1,0,-1,-1,-1
1517207034141200,0,-2,1,0,-3,-1,-2,-2
1517207034155774,0,-1,-2,0,-2,-2,-1,-3
1517207034155774,-2,-1,-2,-2,-2,-1,-1,0
1517207034156776,-1,-1,-3,-1,-1,-1,1,0
1517207034156776,-1,-2,0,-2,0,-2,-2,-1
1517207034179307,-2,-1,0,-1,0,-2,0,0
1517207034179307,0,0,-1,0,-1,-1,0,-2
1517207034179831,1,-1,-2,1,-1,-1,-2,-3
1517207034179831,-2,-2,0,-1,-1,-1,-2,-1
1517207034192802,-1,-2,-1,-1,-1,0,-1,-1
1517207034192802,-1,-2,-1,-2,-1,-2,-2,0
1517207034200811,-1,-2,-1,-1,-2,0,-1,0
1517207034200811,-1,0,-3,-1,-1,0,0,-2
1517207034215838,0,0,-1,0,-3,-3,0,-3
1517207034215838,-3,-2,-3,0,-2,-1,-1,-2
1517207034216819,0,0,-1,-1,0,-2,-2,0
1517207034216819,0,-3,0,-1,-1,-1,-1,-1
1517207034239335,-1,-1,0,-1,0,2,-1,-1
1517207034239335,0,0,-2,0,-1,-2,0,-2
1517207034239840,-1,-1,-2,-2,-2,-1,0,-2
1517207034239840,-2,-1,-3,0,0,-2,0,-1
1517207034261864,-1,-1,-2,0,1,-1,-1,-1
1517207034261864,-1,0,0,-2,-1,-1,-1,1
1517207034262352,0,0,1,-2,0,1,-1,0
1517207034262352,-1,0,0,-2,-1,-1,0,1
1517207034275864,-1,-1,-2,-3,1,1,-1,-1
1517207034275864,1,-1,-2,0,-1,0,-1,-1
1517207034276862,-1,-1,-3,0,-2,-3,0,-1
1517207034276862,1,1,0,-1,-1,-3,0,-1
1517207034298925,-2,-1,-1,-2,-1,-2,-1,-2
1517207034298925,-1,-1,0,-1,-2,0,0,-1
1517207034299912,-2,-1,-1,-2,-1,-1,0,0
1517207034299912,-1,-2,-1,-1,-3,-1,0,-1
1517207034321416,-2,0,-1,-1,-1,-3,-2,-1
1517207034321416,-1,-3,-2,-2,-1,0,1,-1
1517207034322420,-1,-2,0,-1,-2,-2,-1,-2
1517207034322420,-3,1,-2,-1,-1,0,-2,-2
1517207034335942,-1,0,0,-1,-1,-1,-2,-1
1517207034335942,-2,-1,0,-2,-1,-1,-2,1
1517207034343432,-1,-1,-1,-1,0,-1,-2,-1
1517207034343432,-1,-1,-1,-1,-1,-2,-3,-1
1517207034359446,0,-2,-2,-1,-3,0,-1,-2
1517207034359446,-2,-1,0,-1,-1,0,-2,-2
1517207034359945,-1,0,-1,-3,-2,-1,-1,0
1517207034359945,-2,-2,-1,1,1,-2,-2,1
1517207034381468,-4,0,-2,0,-1,1,1,0
1517207034381468,-2,0,0,0,0,-1,1,-2
1517207034382469,-2,-1,-1,-2,-2,-1,0,0
1517207034382469,-1,1,-2,0,-2,-1,-4,-1
1517207034395982,0,-2,-1,-1,-3,-2,-1,-1
1517207034395982,-1,-2,-1,-3,-1,-1,-3,-1
1517207034396971,0,-2,-1,0,-2,-1,-2,-1
1517207034396971,-2,-1,-3,-2,0,0,0,-2
1517207034419004,-2,0,-1,0,0,0,1,0
1517207034419004,-1,-1,-2,-1,-2,-1,-1,-1
1517207034419496,-1,-2,0,-1,0,-2,-2,-1
1517207034419496,-1,-1,0,-2,0,0,-1,-3
1517207034441517,-2,0,1,-1,-2,-1,-2,0
1517207034441517,-1,-1,-2,-3,-2,-1,0,-2
1517207034442502,1,-1,-1,1,1,-1,0,-1
1517207034442502,-1,0,0,-1,-2,0,-1,-2
1517207034456015,0,-2,-2,0,0,-1,-1,-3
1517207034456015,-1,0,-2,-2,-1,-1,-1,0
1517207034457014,-1,-2,-2,-3,-1,-1,-2,-1
1517207034457014,-2,-1,-1,0,-1,-2,-1,0
1517207034479030,0,-1,-1,-2,0,-2,0,0
1517207034479030,-1,-1,0,0,0,-1,-2,-2
1517207034480039,-1,-3,-1,-1,0,-1,-1,-2
1517207034480039,-1,-3,-1,-1,-1,-2,-1,0
1517207034502047,-3,-2,-1,-3,0,-1,1,1
1517207034502047,-1,-1,-4,-1,-1,-1,-2,-1
1517207034503045,-2,-2,-1,1,-1,-1,-2,-1
1517207034503045,0,-1,-1,-2,-1,-2,1,-1
1517207034516107,0,0,-1,-2,-2,1,-2,-3
1517207034516107,-1,1,-1,0,0,-1,0,-2
1517207034516568,-2,0,-2,-1,-3,0,-1,-1
1517207034516568,-1,-3,-1,-1,-1,0,-2,-2
1517207034539072,-1,-2,-1,-1,-1,-1,0,0
1517207034539072,-1,-3,0,-2,-2,-1,0,-1
1517207034540071,-1,-1,0,-1,-1,0,0,0
1517207034540071,-1,-1,0,-2,1,-2,0,0
1517207034561586,-2,-1,-1,0,-3,-2,-2,-1
1517207034561586,-1,0,-2,-1,-2,-2,0,-1
1517207034562587,-1,-2,-1,0,0,0,-1,0
1517207034562587,0,0,0,-2,-2,-1,1,0
1517207034576109,-1,-1,-2,-3,-2,-2,-1,0
1517207034576109,-1,-1,-1,-1,-1,1,0,0
1517207034576597,-2,-1,-2,-3,-1,0,-2,-2
1517207034576597,0,-1,-2,-1,0,-1,0,0
1517207034599132,0,-1,0,0,1,-1,-1,-1
1517207034599132,0,-2,-1,0,0,0,1,-1
1517207034600125,-3,-1,-1,-3,0,0,-1,-3
1517207034600125,-1,0,-2,0,-1,0,-2,0
1517207034621630,-2,0,0,-2,-1,-1,-1,0
1517207034621630,-1,0,0,-3,-2,-1,-3,-2
1517207034622630,-1,0,-1,-1,-2,0,-2,1
1517207034622630,0,-2,0,-4,0,-1,-1,0
1517207034636161,0,-2,-1,-1,1,0,1,-1
1517207034636161,-1,-2,-1,0,0,-1,-1,0
1517207034636649,-1,0,0,-1,-1,-2,-1,0
1517207034636649,-2,-2,-1,0,-3,-1,-2,-2
1517207034666684,0,-1,0,-1,-2,-2,-1,0
1517207034666684,-3,-2,0,0,-1,-1,0,0
1517207034667161,1,-1,-2,-2,-3,-1,0,-2
1517207034667161,-2,-2,1,-1,0,-1,-1,-1
1517207034681686,-1,1,-2,1,-2,-1,0,-1
1517207034681686,0,-2,-1,-1,0,-1,-2,-1
1517207034682699,-1,1,-1,0,-1,-1,-1,-2
1517207034682699,0,0,-4,-1,-1,0,-2,0
1517207034704188,-2,-1,-1,0,0,-1,-1,-3
1517207034704188,-1,-1,-1,-2,-1,0,-1,-1
1517207034704688,-1,0,-1,0,-1,-2,-1,-3
1517207034704688,-2,-1,-2,0,-2,-2,0,-2
1517207034719276,-3,-1,-1,-1,-1,0,-1,-2
1517207034719276,-1,0,-1,-1,-2,-2,1,-1
1517207034719755,-2,-3,0,1,-1,0,-1,1
1517207034719755,1,-2,0,-2,-1,-1,-1,-2
1517207034741770,0,0,-1,-2,-1,0,-2,0
1517207034741770,-2,-1,0,-3,-2,-1,0,-1
1517207034742271,-2,1,-1,-3,-2,-2,-1,-1
1517207034742271,-2,-1,-1,0,-1,-2,0,-1
1517207034755782,-1,-2,-1,-2,-1,-1,-1,-1
1517207034755782,0,0,-3,0,-1,-1,-2,-1
1517207034756781,-3,-2,-1,-1,-1,-2,-1,0
1517207034756781,-2,-1,-1,0,-2,0,-2,-1
1517207034779797,0,-1,-2,-2,-1,-3,-1,1
1517207034779797,0,-2,-2,0,1,-2,0,0
1517207034780298,-1,0,-2,-2,0,-1,-1,0
1517207034780298,0,0,-1,-1,-2,-2,1,0
1517207034801827,-1,-2,-1,-1,0,2,0,0
1517207034801827,-2,-2,-1,0,-1,0,-1,0
1517207034802313,-1,0,0,-2,-1,-1,-1,-1
1517207034802313,-3,-3,-1,-1,-2,1,-1,-1
1517207034815340,0,0,-1,-1,-1,-1,0,-2
1517207034815340,-2,-2,0,-2,-1,-2,0,-1
1517207034823830,0,-3,-3,0,-1,-1,-1,-2
1517207034823830,-3,-1,-1,-1,-2,-1,-1,1
1517207034839340,-3,-1,-2,1,0,0,0,0
1517207034839340,-1,-1,-1,0,-1,-1,-1,0
1517207034839841,1,-2,0,-1,0,-2,1,-2
1517207034839841,0,1,0,-2,0,-2,0,-1
1517207034861857,0,-2,-1,-1,1,-1,-2,-3
1517207034861857,-1,0,-1,-1,-3,-2,-2,-3
1517207034862357,0,-1,-2,0,-2,-1,-1,-1
1517207034862357,-1,-2,1,0,-1,-2,0,-1
1517207034875365,-1,-1,0,-2,-2,-1,1,-1
1517207034875365,0,0,-2,0,-1,-2,0,-2
1517207034883386,-2,0,0,-1,-1,0,0,-1
1517207034883386,-1,0,-1,0,0,-2,-2,-1
1517207034899392,-2,-3,-1,-2,-2,-1,-2,0
1517207034899392,-2,-1,0,0,-1,-1,1,-2
1517207034899883,-1,0,0,-2,-1,-1,-1,0
1517207034899883,-1,0,-2,-2,0,0,-1,0
1517207034921949,-2,-1,-1,-1,-1,0,-3,1
1517207034921949,-1,0,-1,-1,-2,-3,-2,-1
1517207034922451,-1,-1,1,0,-2,1,-2,-2
1517207034922451,-1,0,-1,-3,0,-1,-1,-2
1517207034935462,-1,-1,-3,-1,-1,-1,0,0
1517207034935462,-1,-2,-2,-2,-1,-1,-1,-1
1517207034950973,-2,-3,0,-1,0,-1,-1,-1
1517207034950973,-1,0,-1,1,-2,0,-1,0
1517207034958975,1,-1,-1,-2,-2,-1,-2,0
1517207034958975,0,-2,-2,-2,-1,-1,0,0
1517207034959980,0,-2,-1,-3,-1,-1,-2,0
1517207034959980,-1,-2,0,-1,-3,-2,-1,-2
1517207034981491,-3,0,0,-2,-2,-2,0,-1
1517207034981491,-2,-1,0,-2,-1,-2,-2,-2
1517207034982493,-1,0,-2,-1,1,-1,-1,-1
1517207034982493,-1,-3,-2,0,1,-1,-1,0
1517207034995512,-1,-1,0,0,1,-2,-1,-2
1517207034995512,-2,-2,-1,1,0,0,-1,-1
1517207035003516,-3,-2,-2,-1,-3,-3,-1,0
1517207035003516,-1,-1,-1,-2,-1,-1,-1,-1
1517207035019028,0,1,-1,0,-2,-2,-2,-2
1517207035019028,-1,-2,-1,-3,0,2,-2,-1
1517207035020019,0,-2,0,-1,0,0,0,-1
1517207035020019,-1,-1,-2,0,-2,-1,-2,0
1517207035041535,-1,-3,-1,-1,-1,0,0,0
1517207035041535,-1,-1,0,0,-1,-1,-1,0
1517207035042535,-2,1,-2,-2,-2,-1,0,0
1517207035042535,-1,0,-1,-1,-2,0,0,-1
1517207035055543,-1,-1,0,-1,-1,-2,-1,-1
1517207035055543,-2,-1,-1,0,-2,-1,0,0
1517207035063562,0,-1,-1,-1,-1,-2,-1,-1
1517207035063562,0,-2,-1,-1,-1,-1,-2,-1
1517207035079061,0,-1,1,-2,-1,-1,0,-1
1517207035079061,-2,0,0,-2,0,0,-1,0
1517207035080063,-2,1,-1,0,-2,-1,0,-1
1517207035080063,-1,-1,-2,0,-2,-1,-2,-1
1517207035101577,-1,-1,-2,1,-2,-1,-1,-3
1517207035101577,-1,-3,-3,-2,-3,-2,0,-1
1517207035102577,-1,0,-1,-1,-3,1,-1,-2
1517207035102577,0,-1,-1,-1,-2,-2,-1,-2
1517207035115152,-1,-2,-2,-1,0,0,1,-2
1517207035115152,-1,-1,-2,0,-1,-3,-1,-1
1517207035124191,-1,-2,-2,-1,0,0,-3,0
1517207035124191,0,-1,-1,-1,-1,-1,-1,0
1517207035138772,-1,-1,-2,-1,-2,-1,-1,0
1517207035138772,0,1,-1,0,0,-1,-1,-3
1517207035145276,-2,-1,-1,-1,-1,0,0,-1
1517207035145276,0,0,1,0,0,-1,-1,-1
1517207035161861,-1,0,-1,0,0,-3,-3,-1
1517207035161861,0,-2,-2,-1,0,-2,-1,-1
1517207035163362,-2,-1,0,-1,-2,0,0,-1
1517207035163362,-1,-1,-3,-2,0,-1,0,-1
1517207035184377,-1,-1,0,-1,-1,1,0,-2
1517207035184377,-1,-1,-1,-1,-2,1,-1,0
1517207035185894,-1,0,-1,0,-2,-2,-1,-3
1517207035185894,-2,0,1,-3,-1,-1,-1,0
1517207035198387,-2,-1,-2,-2,-1,-2,0,0
1517207035198387,-1,-1,-1,0,-1,1,0,0
1517207035205394,-1,-1,0,-1,-1,-1,-1,-1
1517207035205394,0,-1,-1,-1,-1,1,0,-1
1517207035221915,-1,-2,-2,-1,0,-2,-2,-1
1517207035221915,-1,1,0,-2,-1,-1,-1,-2
1517207035223405,0,-1,-1,-2,0,-1,-2,-1
1517207035223405,-1,0,-1,-1,-1,-1,-2,-3
1517207035243920,0,-1,0,-2,-3,1,-1,-1
1517207035243920,0,-1,0,-1,-1,-3,0,-1
1517207035246936,-2,0,-2,-2,1,-1,0,0
1517207035246936,-1,-2,-1,-1,-1,-1,1,-2
1517207035259485,-2,-1,1,-1,-2,-1,-3,0
1517207035259485,-2,0,-2,-1,-1,-1,-1,1
1517207035260484,0,1,0,-1,-2,-2,-2,-2
1517207035260484,-2,-3,0,-3,-1,0,-1,0
1517207035281499,-1,0,-1,-1,0,0,1,-1
1517207035281499,-2,0,-1,0,-1,-2,-1,-1
1517207035283510,-2,-1,-2,0,-1,-3,-1,0
1517207035283510,0,-1,-1,0,-1,0,0,0
1517207035304516,-1,-1,-2,-1,-2,-2,-1,0
1517207035304516,-1,-1,0,-1,0,-1,-1,0
1517207035306017,-2,-3,-1,-2,-2,0,-2,1
1517207035306017,0,-1,-1,0,2,-1,-1,-2
1517207035318552,-2,-2,-2,-1,-1,-1,-1,-1
1517207035318552,0,0,-1,-1,-2,-3,-1,-1
1517207035325043,-1,-2,0,1,-1,-2,-3,-2
1517207035325043,-2,-2,0,0,-3,-2,0,0
1517207035341543,-2,0,-1,0,0,0,-2,-1
1517207035341543,-1,-1,-1,-2,-2,1,-1,0
1517207035343042,1,-1,-2,-2,1,-3,0,-1
1517207035343042,0,-1,2,0,-1,-3,0,-1
1517207035371600,-1,-1,-1,-1,0,-2,-1,-1
1517207035371600,-1,-1,-1,-2,-2,-2,-1,-1
1517207035373098,0,0,1,-2,-1,-1,-1,-2
1517207035373098,-1,0,-1,-1,-1,-2,-2,0
1517207035378606,-1,-1,0,-1,-1,-1,-2,1
1517207035378606,-1,-1,1,-1,-2,-1,-1,-2
1517207035385163,-2,-1,-2,-1,-2,0,0,-2
1517207035385163,-1,1,-2,-1,-1,0,-1,-1
1517207035401617,-1,-2,-1,-1,1,0,1,-2
1517207035401617,0,-2,-3,1,0,-1,-2,-1
1517207035403118,-1,-2,-1,-1,0,-1,0,-1
1517207035403118,-1,-2,-2,-1,-1,0,-1,0
1517207035424135,0,-3,-2,-1,-2,1,-1,-1
1517207035424135,-3,-1,-2,-1,-1,-1,1,-1
1517207035425635,-1,-3,-1,-1,-2,1,-1,-1
1517207035425635,0,0,-2,-2,-2,-1,-2,-2
1517207035438643,-3,0,1,-2,-2,0,-1,-1
1517207035438643,-1,-1,-2,-1,-1,0,-1,-2
1517207035445650,0,-1,-1,0,-2,-2,-1,0
1517207035445650,-2,-1,-3,0,-1,-1,1,-3
1517207035461659,0,-1,-2,-1,-2,-2,-1,-2
1517207035461659,-2,0,0,-1,-2,-1,-1,-2
1517207035463160,-2,-2,0,-1,0,-2,-2,1
1517207035463160,-3,-1,-1,-2,0,0,-2,-2
1517207035484205,0,-1,0,-1,0,0,0,0
1517207035484205,0,-1,-1,-1,-1,-1,-1,-2
1517207035485676,-2,-1,-2,0,-1,-1,0,-2
1517207035485676,0,-1,-2,-1,-2,0,-2,-3
1517207035499687,-1,-2,0,-2,-1,-2,-1,-1
1517207035499687,-1,-1,-1,-2,-1,-1,-1,0
1517207035506697,-2,-1,-2,0,-2,1,-1,0
1517207035506697,-1,-1,-1,0,-1,-2,0,0
1517207035521705,0,-1,-1,-1,-1,-2,-1,0
1517207035521705,-2,-1,-1,-1,-1,-2,0,-2
1517207035523203,-2,-2,0,-3,-2,0,-3,-2
1517207035523203,-1,-2,-1,-1,-1,0,-1,-1
1517207035544227,0,1,-2,-2,-2,-2,0,-1
1517207035544227,-1,-2,-1,-1,0,0,-2,0
1517207035546721,0,-1,-3,-1,-2,-1,-2,1
1517207035546721,-2,0,-1,-2,-1,-1,-1,0
1517207035558294,-1,-1,-2,0,-2,0,0,-1
1517207035558294,-2,0,1,0,0,-1,-1,-2
1517207035565282,-1,-1,0,-1,1,-1,0,-2
1517207035565282,0,1,-1,-1,-1,-1,-2,-1
1517207035581824,-2,0,0,0,0,1,-3,-1
1517207035581824,0,0,-1,-1,-1,-2,-1,-1
1517207035583334,-1,-1,-2,-2,-1,-2,0,-1
1517207035583334,-1,-3,-2,-2,2,-1,0,-1
1517207035604328,-2,0,-1,-1,-3,-3,-4,0
1517207035604328,-1,-1,-2,0,0,-2,-1,-1
1517207035605830,-1,-1,0,0,-2,-2,1,-2
1517207035605830,-2,0,-1,-1,-1,-2,1,0
1517207035618351,-1,-1,-1,-1,-1,0,-1,-2
1517207035618351,0,-1,-3,0,-1,0,-2,0
1517207035625342,-1,-2,-1,0,-1,-2,-2,-1
1517207035625342,-2,0,-2,-1,-1,-2,-2,0
1517207035641852,1,-2,1,0,1,0,0,-1
1517207035641852,-1,-2,1,0,-1,-1,-1,0
1517207035643364,-2,-1,-2,0,-2,0,-1,1
1517207035643364,-1,-1,0,-2,-1,-1,-3,-1
1517207035664368,-2,-2,-1,0,-2,-1,-1,-1
1517207035664368,0,-1,-2,-3,0,0,0,-1
1517207035665889,-2,-2,-1,0,-1,-2,-1,-1
1517207035665889,-2,0,0,1,0,-2,-1,-1
1517207035677878,-2,-1,0,-2,-2,-1,2,0
1517207035677878,-1,-2,-2,-1,-2,0,-2,0
1517207035702418,-2,0,0,0,-1,-1,-1,0
1517207035702418,-1,-1,-2,-2,-3,0,-1,0
1517207035702897,-2,-1,-1,-1,0,-1,0,-1
1517207035702897,0,-2,-2,-1,-1,-1,-1,0
1517207035704898,0,0,-1,-1,-1,-1,-1,-1
1517207035704898,0,-2,-1,-3,-2,-2,-2,0
1517207035723913,-2,0,0,-2,-1,0,-1,0
1517207035723913,-1,-1,-1,-1,-1,-1,-1,0
1517207035731955,0,1,-1,0,0,0,-1,-1
1517207035731955,-2,-2,-2,0,-1,-1,-1,0
1517207035737932,0,-1,-2,-1,0,-2,-1,0
1517207035737932,-1,1,-1,-1,-2,-1,-1,-3
1517207035746930,-1,-1,-1,-2,-2,0,0,-3
1517207035746930,0,-2,0,-2,-3,-1,-1,-1
1517207035761437,-1,-2,-2,-2,-1,-1,0,-2
1517207035761437,-3,-1,-2,-1,-3,-2,-2,-1
1517207035763439,0,-1,-2,0,0,-1,-1,-1
1517207035763439,-1,-1,1,0,-1,-1,-1,0
1517207035783953,-1,-1,-1,-1,-2,-3,-2,-3
1517207035783953,-2,0,-1,-2,-1,0,1,0
1517207035785969,-1,-1,-2,0,-1,1,0,0
1517207035785969,-1,-1,-1,-1,-1,-1,-1,-2
1517207035797963,-2,0,-2,0,0,-2,-2,-2
1517207035797963,-2,-1,-1,-1,-1,-1,-2,0
1517207035806980,-2,1,0,-1,-2,-1,0,0
1517207035806980,-3,-2,-2,0,0,-3,0,-2
1517207035821480,-1,-1,-1,-1,-2,0,-1,0
1517207035821480,-2,0,1,0,-1,-1,0,-2
1517207035823482,-1,0,-2,-1,-1,-1,-1,-1
1517207035823482,-1,-2,1,-1,-2,0,-2,-1
1517207035844010,-2,-3,0,1,-3,0,-1,-1
1517207035844010,0,-2,0,-2,-1,-3,-1,0
1517207035846497,-1,-1,1,-2,-2,-1,-2,-1
1517207035846497,0,-1,-1,-1,-1,-1,0,-2
1517207035858006,-1,-1,-2,-2,0,-3,-2,-1
1517207035858006,-2,0,-2,0,-3,-1,-1,0
1517207035866513,-3,-1,-2,0,0,-2,-1,-1
1517207035866513,-1,0,-1,-2,-1,-1,-1,-1
1517207035881522,0,-1,-2,1,-3,-1,0,-1
1517207035881522,-1,1,0,1,-1,-1,0,-1
1517207035887527,-2,-2,-2,-1,-3,-1,-1,-1
1517207035887527,0,-1,-1,-3,-2,-1,-1,1
1517207035904039,-2,-2,-1,0,0,-1,0,1
