timestamp,emg1,emg2,emg3,emg4,emg5,emg6,emg7,emg8
1517207272522986,-2,-2,0,0,-2,0,0,0
1517207272522986,-1,0,1,0,-1,-2,-1,-1
1517207272522986,-1,-1,0,0,-3,-2,-3,-1
1517207272522986,0,-2,-3,-3,-2,-3,0,0
1517207272544501,-3,-3,-1,-1,-1,-1,-1,-3
1517207272544501,0,-1,1,-1,0,1,0,1
1517207272545501,0,-1,0,0,0,-1,-1,-1
1517207272545501,-1,-3,-3,-1,-1,0,-3,-1
1517207272559511,0,-1,-2,0,-2,-1,0,-1
1517207272559511,-1,-1,-2,0,-2,-2,0,-1
1517207272560512,-3,-2,-1,-2,-2,-1,0,-1
1517207272560512,-2,1,1,-2,0,-1,-1,-1
1517207272582527,-1,0,0,0,0,-1,-2,-1
1517207272582527,-1,-2,-2,-2,-2,2,-2,-2
1517207272583528,-1,0,-1,0,-1,-1,0,0
1517207272583528,-1,-1,-1,-1,-1,-1,0,-1
1517207272604543,-1,-2,1,-1,-1,-1,-2,-2
1517207272604543,0,-1,-2,0,-1,-1,-2,-1
1517207272605545,0,1,-2,-2,-1,-2,0,-1
1517207272605545,-2,-1,-1,-2,-3,-1,0,-1
1517207272619553,0,-2,-1,-1,-3,-2,-1,-1
1517207272619553,-2,0,0,-2,0,-2,1,0
1517207272620555,-1,-1,-3,-2,-1,-1,-3,-1
1517207272620555,-1,-1,-1,1,-1,0,-2,-2
1517207272650075,-2,-1,0,1,-1,-1,-1,0
1517207272650075,-1,-1,0,-2,-1,-2,-1,-1
1517207272651076,-3,-2,-1,0,-2,-1,-4,-1
1517207272651076,-1,-1,0,0,1,-1,0,-1
1517207272672637,-2,-2,-2,-3,-2,-2,0,0
1517207272672637,-1,-2,-2,0,-1,-2,-2,-2
1517207272673633,2,0,0,-1,0,-1,0,-1
1517207272673633,0,-3,-3,0,0,0,-2,-2
1517207272679640,0,-1,0,0,-1,0,1,-1
1517207272679640,-2,1,-3,-2,-1,-2,0,0
1517207272680640,-1,-1,0,-2,-1,0,-1,0
1517207272680640,-1,1,-1,-1,0,-1,-2,-1
1517207272710162,-1,1,-1,-1,-1,-2,-3,1
1517207272710162,0,-1,-1,-2,0,0,-1,-2
1517207272711168,-1,-2,-1,1,0,-1,-1,0
1517207272711168,-2,-1,0,-1,0,-2,0,-3
1517207272724179,-1,-2,-2,-1,-1,-2,-1,-2
1517207272724179,0,1,-1,-1,0,-1,-1,-1
1517207272732174,-1,-1,-2,0,-1,-2,-1,-3
1517207272732174,-3,0,-1,-3,-1,-1,-1,0
1517207272739777,-1,-2,-2,0,-2,-1,-1,-1
1517207272739777,-1,-1,0,-1,-2,1,-2,0
1517207272740266,-1,-2,-1,-1,0,0,-1,0
1517207272740266,-1,-3,0,-1,-1,-1,0,0
1517207272762282,-1,-2,-1,-3,-1,-1,-2,-2
1517207272762282,-2,-1,-1,0,-1,-1,1,0
1517207272762783,0,0,-2,-3,-2,0,0,-1
1517207272762783,0,-2,-1,-1,-1,-2,-1,0
1517207272784807,-1,-1,0,-2,-1,0,-2,0
1517207272784807,1,-2,-1,-2,-2,-2,-1,0
1517207272785298,-2,-2,0,-1,-3,-2,-1,-3
1517207272785298,-1,0,0,-2,-1,0,1,-2
1517207272799824,-1,-1,0,-1,-2,0,0,-2
1517207272799824,-2,-1,-1,-1,-1,-1,-1,-1
1517207272800308,-2,0,-1,0,0,0,0,-1
1517207272800308,-1,0,-3,0,0,-1,0,0
1517207272822325,-2,0,-1,0,-1,-2,-2,0
1517207272822325,-2,1,-2,-2,-2,-3,-3,-2
1517207272822825,-1,-1,0,-2,-2,-2,0,0
1517207272822825,0,0,-1,1,-2,-1,-2,0
1517207272844840,-2,2,-2,0,0,0,0,-1
1517207272844840,-2,-1,0,0,-1,-2,0,0
1517207272845340,0,-3,-3,-1,1,0,-1,-1
1517207272845340,1,-1,-3,0,-2,-1,-1,-1
1517207272859413,1,-2,-2,-3,-2,-2,0,0
1517207272859413,-1,-2,-1,2,0,0,-2,-1
1517207272860397,-1,-1,0,1,-1,-1,-1,1
1517207272860397,-1,-2,1,-2,-2,-2,-1,-1
1517207272882414,-1,1,-1,-1,0,1,-1,-1
1517207272882414,-1,-2,0,-1,-1,0,1,-1
1517207272882914,-1,-1,-2,0,-1,-1,-2,-1
1517207272882914,-3,-1,-2,-3,-1,0,-1,0
1517207272904428,-2,-2,-1,-1,-1,-2,-2,1
1517207272904428,0,-2,-2,0,1,-1,-2,-1
1517207272905429,-1,5,-1,-3,-1,-2,-1,-2
1517207272905429,-1,-1,-1,0,-1,0,-1,0
1517207272927945,0,0,0,-1,0,1,1,-1
1517207272927945,0,0,1,-2,-1,0,0,0
1517207272928450,-1,-3,-1,-2,-2,0,1,-3
1517207272928450,-2,-1,-2,-1,-1,-3,-1,-1
1517207272941978,-2,-2,-1,0,2,0,-1,2
1517207272941978,0,0,-2,-1,0,-2,-1,-1
1517207272942975,0,-3,0,-1,-1,-1,0,0
1517207272942975,0,-2,-1,-2,-2,-3,1,-3
1517207272965054,0,-2,-2,-1,-1,-1,0,-1
1517207272965054,-2,-1,0,-2,-2,-2,-2,-1
1517207272965547,-1,-1,-2,-3,0,-2,-1,0
1517207272965547,-3,-1,0,2,0,1,-1,-2
1517207272979060,-1,-1,0,-1,-1,-1,-1,-1
1517207272979060,-2,-2,0,-2,-2,1,-1,-2
1517207272987077,-1,-1,-1,-1,-2,-1,-2,0
1517207272987077,1,-1,0,-2,0,-1,-2,-1
1517207273010079,0,-2,-2,-1,1,-1,-1,-2
1517207273010079,-1,-1,-3,-2,-1,-1,-1,-1
1517207273011081,-1,-2,-1,-2,-1,-1,-1,-1
1517207273011081,-1,0,1,0,-1,-3,0,1
1517207273024630,0,-1,0,-1,-1,-1,-1,-2
1517207273024630,0,0,-1,-2,-2,0,1,0
1517207273025089,-1,-1,-3,0,-2,0,-1,-2
1517207273025089,-1,0,0,0,-1,-1,-1,0
1517207273040625,-1,-2,-2,0,0,-2,-2,-1
1517207273040625,-1,0,-1,-2,-1,0,-1,-1
1517207273047108,0,0,-2,-1,-1,-1,-1,0
1517207273047108,0,0,0,-1,-2,0,-1,-2
1517207273062116,-2,-2,0,-1,-2,-2,0,0
1517207273062116,-1,-2,-2,-1,-2,-1,0,-1
1517207273063121,-1,-1,0,-3,-1,-2,0,0
1517207273063121,0,-2,-2,-2,2,0,-2,0
1517207273084641,-1,-2,-1,-2,0,-1,-2,0
1517207273084641,-1,-1,-1,0,0,-3,0,-1
1517207273085133,-1,-1,0,-1,0,0,-1,0
1517207273085133,-1,-1,-1,-3,-2,0,-2,0
1517207273099171,-2,2,-2,1,-1,0,-1,-1
1517207273099171,1,-2,-1,0,0,0,-1,-1
1517207273107181,-3,-2,-1,0,-1,1,1,-2
1517207273107181,-1,-1,-2,0,-1,0,-1,-2
1517207273122175,-2,-1,-1,-1,-2,0,-3,-3
1517207273122175,-1,-3,-2,0,-2,-2,0,-1
1517207273122675,-1,0,0,2,-1,-2,-2,1
1517207273122675,0,-2,-2,-1,-3,0,0,1
1517207273144691,0,-2,0,-3,0,-1,1,-1
1517207273144691,-2,0,-1,-2,-1,-1,-1,0
1517207273145192,0,0,-1,0,-1,-1,0,-1
1517207273145192,-1,-1,0,0,-1,-1,-1,-2
1517207273158711,-1,-1,-2,-2,-1,-2,0,-3
1517207273158711,-1,-2,0,-2,-3,-2,-3,-1
1517207273174753,-1,0,1,-1,-1,-2,0,-2
1517207273174753,-4,-5,-1,0,-1,-1,-1,-1
1517207273181718,-1,-1,-1,1,0,1,-1,-2
1517207273181718,-1,-1,-3,-2,-1,-2,-1,-1
1517207273190254,-1,-1,-3,-2,-1,-1,-1,-1
1517207273190254,0,11,-2,0,-2,-3,-1,-1
1517207273204737,-3,-17,0,-1,-1,-2,0,-1
1517207273204737,0,-2,-4,0,0,1,-1,-2
1517207273205234,-2,-4,0,-3,0,-2,-4,0
1517207273205234,3,2,-1,-2,-2,-1,0,0
1517207273227752,-1,7,0,-1,-1,-1,-2,0
1517207273227752,0,-1,-1,-1,-1,0,-1,-2
1517207273228752,0,-3,0,-1,0,1,0,0
1517207273228752,-3,-5,-4,-2,-1,0,-2,-2
1517207273242260,0,1,-1,0,-1,-1,-3,0
1517207273242260,-1,-2,2,-1,1,0,1,2
1517207273242761,0,3,-2,1,-1,-1,-2,-1
1517207273242761,-2,-4,0,-1,-1,-2,0,-1
1517207273265780,1,-1,0,-1,0,-1,-2,-1
1517207273265780,0,4,-3,-2,-3,-1,-2,-1
1517207273266779,-2,-3,0,0,-1,1,0,0
1517207273266779,0,-2,1,0,1,-1,0,-2
1517207273279287,0,-2,-4,-2,0,0,-2,-1
1517207273279287,-1,-1,1,-1,-1,-1,0,-2
1517207273287292,-2,-1,-1,-2,0,-2,0,-1
1517207273287292,-3,-3,1,-1,-2,-2,-1,-2
1517207273302317,-1,3,0,0,-2,-1,0,-2
1517207273302317,-2,-1,-1,1,1,-3,-1,-2
1517207273302803,-1,-1,-2,0,-1,0,-1,-1
1517207273302803,-1,0,-3,-2,1,-1,-2,-1
1517207273324832,1,6,0,-1,-3,-2,-1,2
1517207273324832,0,1,-1,1,-1,0,-1,1
1517207273325319,1,0,-1,-2,-1,1,-1,-1
1517207273325319,-1,-1,-1,0,-1,1,0,-1
1517207273348334,0,0,-2,-2,-1,-1,0,-1
1517207273348334,-1,1,1,-1,-2,-2,-1,-1
1517207273348835,0,-3,-1,-1,-1,-1,-1,-1
1517207273348835,0,1,0,-3,-1,0,-2,0
1517207273370350,0,-1,-1,-1,-1,0,-1,-1
1517207273370350,-1,-3,-1,-3,-1,-2,0,-1
1517207273370854,-2,0,-2,-2,-3,0,-2,-1
1517207273370854,-1,-3,-1,-1,-1,-1,-2,0
1517207273384370,0,-2,0,0,-1,-2,-2,1
1517207273384370,0,-2,-1,0,-2,0,0,-1
1517207273385361,0,-1,0,0,-1,0,0,0
1517207273385361,0,-1,-2,-2,-1,-2,-1,-1
1517207273407909,-2,-2,-2,-3,0,-2,-1,-1
1517207273407909,-2,0,-1,-1,0,0,-2,-1
1517207273408378,-1,-3,0,-3,0,-4,-1,-3
1517207273408378,0,0,0,-1,0,-2,0,0
1517207273422388,-2,-1,0,-2,-1,0,0,-3
1517207273422388,0,0,-2,-2,1,-3,0,0
1517207273423414,-2,-1,-2,-1,1,-2,-1,-1
1517207273423414,0,-3,-2,0,-1,-2,-2,1
1517207273444905,-1,0,0,0,-2,-3,-1,-1
1517207273444905,-1,-2,-2,-1,-2,0,-1,-1
1517207273445403,-1,-4,-2,-1,-2,0,-2,-1
1517207273445403,-1,-1,-2,-2,0,-1,-1,-1
1517207273467934,-1,-1,-1,-2,-1,-1,-2,0
1517207273467934,-1,-3,0,-1,0,-1,-1,0
1517207273468439,2,3,1,-1,0,0,-1,0
1517207273468439,-1,-6,-2,-1,-2,-1,-2,-2
1517207273482431,-1,4,1,-2,0,-2,-2,-2
1517207273482431,-1,-1,-1,0,-1,-3,-1,-3
1517207273483432,-4,-2,-3,-3,-2,-2,-1,-1
1517207273483432,0,-1,-1,-1,0,1,1,-2
1517207273504449,-1,-3,-2,0,-1,-2,-1,-1
1517207273504449,-1,0,0,0,-2,1,-3,-2
1517207273505446,-2,-1,0,-2,-2,-1,0,-2
1517207273505446,-1,2,0,-1,-1,-1,-2,-3
1517207273527964,0,-4,-3,0,-1,1,0,-1
1517207273527964,-1,-1,-2,0,-1,-1,0,-1
1517207273528462,1,0,0,0,0,-2,-2,-1
1517207273528462,-2,-2,-1,-1,-2,0,-1,0
1517207273541972,-3,-4,-1,-2,-1,1,0,-1
1517207273541972,-3,-2,-1,-1,-1,0,-2,0
1517207273542987,0,-2,0,1,-2,0,-2,-1
1517207273542987,2,1,1,-2,-1,-1,-1,0
1517207273564489,0,-2,-1,1,-3,-2,0,-1
1517207273564489,-1,-1,-4,-1,-1,-2,-1,1
1517207273565490,0,1,0,-1,0,-2,-1,0
1517207273565490,-2,0,0,-1,-1,-1,-2,0
1517207273588024,-1,0,0,-1,0,-1,-2,-1
1517207273588024,-1,-1,-1,-1,-1,-3,-1,-2
1517207273589028,-1,-1,-1,-1,-1,-2,1,0
1517207273589028,-1,-2,-3,0,-1,-2,0,0
1517207273602016,-1,1,-2,-3,-2,-2,-3,-3
1517207273602016,-1,-2,1,0,0,1,2,-1
1517207273603028,-1,1,0,-1,-2,-1,-1,-3
1517207273603028,-1,-4,-2,-1,0,0,-2,-2
1517207273624557,-1,-2,-3,-2,-2,-2,0,0
1517207273624557,0,1,-1,-2,-1,-1,-3,1
1517207273625544,0,0,0,0,-2,0,0,-1
1517207273625544,-2,0,-2,0,-1,-2,-1,-3
1517207273647557,-2,-1,-3,-2,-1,-1,-1,-1
1517207273647557,-1,-2,-2,0,-3,0,-2,1
1517207273648548,0,-2,-1,-3,0,0,-1,0
1517207273648548,0,0,0,-2,-1,-1,-1,0
1517207273662558,-1,-4,0,-1,0,-1,0,0
1517207273662558,-1,2,0,-1,-2,-2,-1,-2
1517207273663560,-1,-2,0,-2,-1,0,0,0
1517207273663560,0,-2,-1,-2,-2,-1,-2,-2
1517207273684573,-2,-2,-2,0,-1,-1,-2,-2
1517207273684573,-2,-1,-2,-2,-1,-1,-1,-1
1517207273685573,-1,-1,-1,0,-1,-2,0,-2
1517207273685573,-1,-1,0,0,0,-1,-1,0
1517207273707589,0,-1,0,-1,-1,0,-1,-1
1517207273707589,1,-2,-2,-1,-1,-1,-1,-1
1517207273708624,-1,-1,-1,-1,0,0,-1,0
1517207273708624,-2,-2,-1,-1,-2,-1,-1,0
1517207273722099,-1,2,1,0,-2,-2,0,-1
1517207273722099,-1,-1,1,-1,-1,-1,2,-2
1517207273722600,1,-1,-3,-1,0,-2,-2,-2
1517207273722600,-2,1,-1,-1,0,-1,0,0
1517207273744616,-1,-3,-1,-2,1,-1,0,1
1517207273744616,-1,-3,-1,-1,0,0,-2,0
1517207273745116,-1,-1,-1,-2,-3,-1,-2,-1
1517207273745116,-2,0,-2,0,-1,-3,-1,-1
1517207273767632,0,1,0,-1,-1,0,0,-2
1517207273767632,0,-2,-1,1,0,-2,-2,-1
1517207273768633,-1,-3,-1,-2,0,0,-1,-2
1517207273768633,-2,0,-1,-1,-1,-1,0,-2
1517207273782142,-1,-1,-3,-2,-2,-2,-2,-2
1517207273782142,-2,-1,-2,-2,-1,-1,-1,-1
1517207273782643,-1,-1,-2,0,-1,1,-1,0
1517207273782643,-1,-2,-1,-2,-2,-2,-1,-1
1517207273804679,0,-2,-1,-1,1,0,1,0
1517207273804679,0,-2,0,0,-2,-2,0,-1
1517207273812163,-2,0,-2,-1,-1,-1,-2,-4
1517207273812163,0,-1,-1,-1,-1,0,-2,-1
1517207273826673,-1,-1,0,0,-1,1,-2,-2
1517207273826673,0,0,-2,-1,-2,1,-3,-2
1517207273835179,0,-1,-1,0,-3,-3,-1,-1
1517207273835179,0,0,0,0,-2,-2,-1,-1
1517207273843700,-1,0,-3,-1,-1,1,-2,-1
1517207273843700,-1,-1,0,-1,-1,0,0,0
1517207273844185,-2,-1,-4,-1,-1,-2,-1,-1
1517207273844185,0,0,-1,-2,0,-3,-1,-1
1517207273864700,-1,-2,1,-2,0,-3,0,0
1517207273864700,-2,-1,-1,-3,-3,-1,0,0
1517207273872218,-2,0,-1,-1,0,0,0,0
1517207273872218,0,-2,-2,-1,-2,0,0,-1
1517207273895223,0,-1,0,0,0,1,-2,-1
1517207273895223,-2,-1,-1,-1,-1,-2,-1,-3
1517207273896222,0,-1,-2,-1,-2,-3,1,-1
1517207273896222,-1,-1,-2,-2,0,-2,0,0
1517207273902248,0,-2,-2,-1,-4,0,-2,0
1517207273902248,-1,-1,-1,-3,0,-1,-1,-1
1517207273902737,-1,-1,-1,0,0,-1,-2,-2
1517207273902737,0,-1,-1,2,-1,0,1,-1
1517207273924757,0,-1,-3,-3,-1,-1,0,-1
1517207273924757,0,-1,-1,-1,-2,-1,-1,-1
1517207273925244,-1,-3,1,-2,-2,-1,-1,-1
1517207273925244,0,-1,0,-1,0,1,-1,0
1517207273947763,-1,0,0,0,-1,-1,-1,-1
1517207273947763,0,-1,-1,-1,1,-1,0,1
1517207273948762,-1,-1,-1,0,-3,1,-1,0
1517207273948762,-2,-2,-1,-2,0,0,-1,-1
1517207273961268,-2,0,-1,1,-1,-1,-1,-3
1517207273961268,-2,-1,-2,0,-3,-1,-2,-2
1517207273969774,-1,0,0,-1,-1,-3,-2,-1
1517207273969774,0,-2,-2,-2,-2,0,0,-1
1517207273984785,-1,-2,-1,-1,0,0,1,-2
1517207273984785,-2,-1,-1,-2,-1,0,-1,0
1517207273985287,0,0,-1,1,1,0,0,0
1517207273985287,-1,-2,-1,-1,-2,-2,-2,-2
1517207274007816,0,-1,-1,-3,-1,-2,0,-1
1517207274007816,-2,-1,0,-1,0,-2,-1,-2
1517207274008812,0,-2,-1,0,-2,0,-1,-1
1517207274008812,0,-1,0,-1,0,0,1,-2
1517207274021320,-1,-1,-3,0,-1,-1,-3,-1
1517207274021320,-2,0,-1,0,0,-1,-1,-1
1517207274029819,1,-1,-1,-1,-1,-2,-3,-1
1517207274029819,-1,-2,-2,-2,0,-3,-3,-2
1517207274044828,-3,-2,-1,-3,0,-1,-1,1
1517207274044828,-2,0,-1,-1,-1,0,1,-3
1517207274045328,-2,-3,-2,-2,-1,0,0,0
1517207274045328,0,-2,0,0,-1,-1,0,-1
1517207274067853,1,0,1,0,0,-2,-2,-1
1517207274067853,-1,-1,0,0,-1,0,0,-1
1517207274068345,-1,-2,0,1,1,0,-2,-1
1517207274068345,-1,1,-2,-1,-2,-1,-1,-1
1517207274090363,-1,0,-3,-1,0,-2,1,-1
1517207274090363,1,-2,-1,-1,-3,-2,-1,0
1517207274090860,-2,1,-1,0,-2,-1,-2,-1
1517207274090860,-1,0,0,0,-1,0,0,-2
1517207274104384,0,0,0,-1,-1,-1,-1,1
1517207274104384,-1,0,0,0,1,-1,-2,-2
1517207274105380,-1,-1,-1,-1,-2,-1,1,-2
1517207274105380,-1,-1,-1,-1,-1,-1,-2,1
1517207274127897,-1,-2,-3,-2,-1,-1,0,-2
1517207274127897,-1,-2,-2,0,1,0,-1,-1
1517207274128388,-1,-1,-1,-3,-1,-3,0,0
1517207274128388,-1,1,-2,-1,-1,-1,-1,-3
1517207274141411,-2,0,0,0,0,0,-2,-2
1517207274141411,-1,-1,0,-2,-1,-1,-1,0
1517207274149902,-2,0,-2,-1,-1,2,-1,1
1517207274149902,-2,-1,-2,0,-2,-1,-1,-2
1517207274164412,0,-2,-2,0,-1,-2,0,0
1517207274164412,1,0,-2,-1,-1,-1,-1,-2
1517207274165413,-2,0,0,-2,0,0,-1,-2
1517207274165413,-1,-1,-1,-2,-1,0,0,-1
1517207274187928,-1,-1,1,-1,0,0,-1,-1
1517207274187928,-2,-5,-3,-1,-2,-1,0,0
1517207274188430,0,0,-2,-2,1,-1,-1,0
1517207274188430,-1,-2,-1,0,1,0,-1,0
1517207274201453,-1,0,-2,-2,-1,-1,-1,-2
1517207274201453,0,0,1,-1,0,-2,-1,0
1517207274209459,-1,-2,-1,0,-2,-2,-1,-2
1517207274209459,-2,-1,0,-2,0,0,-2,0
1517207274224478,-2,-1,-2,-1,-2,-1,-1,0
1517207274224478,-2,0,-1,-2,-2,-2,-2,-1
1517207274225474,-1,0,-2,-1,-2,0,-1,-1
1517207274225474,-1,0,-1,0,-2,-1,0,0
1517207274247977,-2,0,-1,-1,0,-2,-2,0
1517207274247977,-2,-1,-2,0,0,-1,0,0
1517207274248471,-3,0,-1,-2,-2,-2,0,-1
1517207274248471,0,-3,-2,0,1,0,0,-3
1517207274261480,0,-2,1,-1,0,-1,-2,-2
1517207274261480,-1,1,-1,-2,-1,-2,0,-2
1517207274269498,-2,-1,-1,-2,0,0,-2,0
1517207274269498,0,0,-2,-3,-2,-1,0,0
1517207274284499,-3,0,-3,-1,-1,-2,-3,-2
1517207274284499,-1,-1,-2,-1,0,-1,-1,-1
1517207274285499,-1,-3,-1,-2,-1,0,-1,0
1517207274285499,-2,0,-2,-2,1,-1,-1,0
1517207274307523,-2,-1,-1,-1,-3,0,-1,-1
1517207274307523,0,-1,-2,-2,-2,0,-2,-1
1517207274308515,-1,-2,0,0,-1,-1,0,-1
1517207274308515,-1,-2,0,-1,-2,-1,0,-1
1517207274330530,0,-3,-1,-1,0,-1,2,-1
1517207274330530,0,-1,-3,-1,-3,-2,-2,0
1517207274331030,0,-1,-1,0,-2,-2,-1,0
1517207274331030,-1,0,-1,1,-1,0,-2,-2
1517207274344553,-2,-3,1,-1,-2,0,-2,-1
1517207274344553,-2,-2,-2,0,0,0,-1,-2
1517207274345541,0,-1,-1,-1,0,-2,-3,-1
1517207274345541,-1,0,-1,-1,1,-2,0,0
1517207274367557,0,-1,0,0,-1,-1,-1,0
1517207274367557,-1,-1,1,-2,-1,-1,0,-1
1517207274368556,-1,-1,-2,-1,0,0,2,-2
1517207274368556,-2,1,-1,-1,-2,-3,-2,-2
1517207274398079,-1,0,-3,-2,-1,0,0,0
1517207274398079,-1,-3,-2,-2,-1,0,-1,0
1517207274398578,1,-1,0,0,-2,0,-2,0
1517207274398578,-1,-2,-1,-1,-2,-2,-1,0
1517207274404596,1,1,-2,-2,-3,-1,-2,-1
1517207274404596,-1,-1,0,-2,-1,-2,-2,-1
1517207274405083,-2,-2,-1,-1,-1,-2,-1,-2
1517207274405083,-1,-1,-1,0,-2,-1,0,-1
1517207274427599,-2,1,0,0,0,-2,-1,-3
1517207274427599,-1,-1,-1,-1,-1,0,0,-1
1517207274428599,-1,-2,0,-1,-1,-2,-3,0
1517207274428599,1,-2,0,-1,-1,-2,-1,0
1517207274451115,-1,-2,-1,-1,0,-1,1,-1
1517207274451115,-2,-1,-1,0,0,-1,-1,0
1517207274451615,-3,-1,-1,-2,0,0,-1,-2
1517207274451615,-1,-2,-1,-1,-2,-1,-1,-2
1517207274465126,-1,-1,-2,-2,-2,0,1,-1
1517207274465126,-1,-1,0,-1,-1,-1,1,0
1517207274465126,-2,-2,-1,-2,-2,-2,-1,0
1517207274465126,-2,-2,-2,-1,0,0,-2,-1
1517207274487645,1,-2,-1,-1,-1,-1,-1,-2
1517207274487645,-2,0,0,0,-2,0,0,-1
1517207274488658,0,1,-2,0,-1,-3,0,-2
1517207274488658,-1,0,-1,-2,-2,-1,-1,0
1517207274510161,0,-1,-1,-2,-1,-1,-1,-1
1517207274510161,-3,-2,-1,1,-2,-1,-2,-3
1517207274511157,0,-2,-3,0,-2,1,-1,-1
1517207274511157,-1,0,0,0,0,-2,-1,-1
1517207274532673,-1,-3,-1,-1,-1,-3,-3,-2
1517207274532673,-1,4,0,-2,0,-2,-1,-1
1517207274533674,-2,0,0,0,-2,-2,-1,-1
1517207274533674,0,0,-2,-1,-1,0,1,-1
1517207274547685,-2,-3,1,0,0,-1,-1,1
1517207274547685,-2,-3,-3,-1,-1,1,0,1
1517207274548685,-1,0,-2,-1,-1,-1,-1,1
1517207274548685,-1,1,-2,-1,-2,-1,-2,0
1517207274570199,-1,2,0,-1,-4,-2,-1,-2
1517207274570199,0,-1,-1,-1,-1,-2,1,-2
1517207274570699,0,-1,-3,0,-1,-1,0,-3
1517207274570699,-3,-3,-1,0,0,0,-1,-3
1517207274583709,-3,0,-3,0,0,0,-3,-1
1517207274583709,0,0,-1,0,-1,-2,-4,1
1517207274592715,0,-2,-3,-1,0,0,-1,1
1517207274592715,-1,-2,1,-2,-2,-2,-2,0
1517207274607725,-1,0,-1,-2,-2,-1,1,-1
1517207274607725,-1,0,1,0,-2,1,0,-2
1517207274609227,0,-2,-1,-1,-2,-1,0,-2
1517207274609227,-1,-2,-3,-1,0,-2,-1,1
1517207274630242,0,-2,-1,0,0,-1,-1,-1
1517207274630242,-1,-2,0,-2,0,-2,-1,-2
1517207274631743,-1,1,0,0,-2,-1,-1,-1
1517207274631743,0,-2,-1,-1,-2,-1,-2,-1
1517207274652757,0,-1,-1,-2,-2,-2,-1,-1
1517207274652757,1,-2,-1,0,0,0,-1,0
1517207274654258,-1,-2,-1,-1,-2,-1,-1,-1
1517207274654258,0,-1,-1,-1,-2,-1,0,-3
1517207274667767,-2,-1,-2,-1,-1,-1,-1,0
1517207274667767,-1,-1,-2,-2,-2,-1,0,-1
1517207274669269,-2,-1,0,-2,-2,1,-1,0
1517207274669269,-1,-1,-1,-1,0,-2,0,0
1517207274690287,0,1,0,0,0,-1,-2,0
1517207274690287,-2,-2,-2,-1,0,-1,0,-2
1517207274691793,-2,-2,0,-2,0,-1,-1,-2
1517207274691793,0,-1,-2,-1,0,-1,-2,-1
1517207274703794,-1,0,-2,-2,-2,-1,-2,-1
1517207274703794,0,-2,1,-2,0,0,-1,0
1517207274712801,-1,0,0,-2,-2,-2,-1,-1
1517207274712801,0,0,0,-1,-1,1,-2,-1
1517207274728312,-1,-2,-1,-1,0,-2,-1,0
1517207274728312,-1,-1,-2,-2,-2,-1,0,0
1517207274729813,0,0,-1,-2,-1,-2,0,-1
1517207274729813,-1,0,-1,-1,-1,1,0,0
1517207274750326,-2,-1,-2,0,0,-2,0,-1
1517207274750326,0,0,-1,0,-2,-1,-2,-2
1517207274752843,-2,-2,-3,0,-1,-1,-2,-1
1517207274752843,-2,-1,-1,-2,-1,-3,0,0
1517207274763837,-1,-1,-1,-1,-2,2,-1,-1
1517207274763837,-3,1,-3,-1,0,-2,-2,-2
1517207274772855,-2,0,-1,-1,-2,0,0,-1
1517207274772855,-1,-1,-2,0,-1,1,-2,-1
1517207274787853,-1,-1,0,-1,-2,0,-2,-2
1517207274787853,-1,-1,-2,0,-1,0,0,-1
1517207274789354,-1,-2,0,-1,1,-1,0,-2
1517207274789354,-1,0,-2,-1,-1,-2,-2,-3
1517207274817893,-1,-1,-1,-1,1,-2,-1,-1
1517207274817893,0,0,0,0,-2,-1,-3,1
1517207274819388,-1,-1,-2,-1,0,-1,-2,-2
1517207274819388,-1,-1,-3,-1,-1,-2,-1,-1
1517207274823878,-1,-2,-2,0,-1,-1,-2,-1
1517207274823878,-1,0,0,0,-2,-1,-1,-2
1517207274832897,0,-2,-1,-2,-1,1,-1,-3
1517207274832897,0,-1,-1,0,-1,-2,-2,-1
1517207274847911,0,-1,0,-2,0,0,0,-1
1517207274847911,-1,-2,0,0,1,-1,-1,0
1517207274849397,0,0,-1,-1,-2,-1,-2,-3
1517207274849397,-2,-2,-1,-2,-1,-1,-2,-1
1517207274870412,-2,-1,-1,-2,-1,0,-1,-1
1517207274870412,-2,-1,1,-1,0,-1,-1,-1
1517207274871922,-2,-1,-2,0,0,-2,-1,2
1517207274871922,-1,0,0,0,-1,-2,-1,-2
1517207274900447,-1,-1,-2,0,-2,-2,-1,-1
1517207274900447,0,-3,-3,-2,-2,-2,-1,-2
1517207274901934,-2,0,-1,0,-2,-3,-1,-1
1517207274901934,0,-1,1,-1,-2,0,0,-3
1517207274907438,0,0,0,-1,-1,-2,-1,-2
1517207274907438,0,-1,-1,0,0,-1,1,-1
1517207274909439,-1,0,-1,-1,-2,-1,-1,0
1517207274909439,-1,-2,-1,-1,-1,1,-2,-1
1517207274930465,-2,-1,-2,-2,-1,-1,-1,-1
1517207274930465,-1,-2,-3,-2,0,-1,-1,-1
1517207274931974,0,-1,-1,-1,0,-1,-1,-1
1517207274931974,-2,-2,-2,0,0,-2,0,0
1517207274943978,-1,-2,-2,0,-1,-1,-1,-1
1517207274943978,-2,-2,0,-1,-1,-2,-1,-1
1517207274952970,1,-1,-2,-1,-2,0,0,-1
1517207274952970,-2,0,-1,-2,-1,-1,1,-1
1517207274967492,-1,-1,0,1,-1,-3,-1,-1
1517207274967492,0,0,-2,-2,-2,-1,-1,0
1517207274969483,0,-2,0,-2,-1,-1,-1,0
1517207274969483,-2,-2,0,-2,0,-1,-1,-2
1517207274990496,-1,0,-1,-2,0,-1,-1,1
1517207274990496,-1,0,-1,-1,-2,-3,-2,-1
1517207274992026,-3,-1,-1,0,-1,-1,0,0
1517207274992026,-2,-2,-1,-1,-1,1,-2,-1
1517207275004006,-1,-2,-2,1,-1,-1,0,-2
1517207275004006,-1,-3,-2,-1,-1,0,-1,-2
1517207275013013,-1,-1,1,1,0,-1,0,-1
1517207275013013,0,0,-1,-1,0,-2,0,0
1517207275027526,-1,-1,-2,-1,-2,-1,0,-2
1517207275027526,-1,-1,0,-1,-1,-1,-2,0
1517207275029024,-2,-1,-1,-4,0,-1,0,-1
1517207275029024,-2,-1,-2,-1,0,0,-1,-2
1517207275066055,1,-2,0,-2,-1,-3,-2,1
1517207275066055,-2,-1,-1,0,-2,0,1,-2
1517207275067563,1,-2,0,-1,-2,-2,0,-1
1517207275067563,-1,0,-1,-1,-1,-1,-1,-2
1517207275068051,-2,0,-2,-2,-2,0,-2,-2
1517207275068051,-1,-2,-1,-2,0,-2,0,0
1517207275072564,0,-1,-2,-1,0,1,-1,0
1517207275072564,0,-1,0,-2,-2,-1,-2,-1
1517207275088077,-1,-3,0,0,-1,-1,-1,0
1517207275088077,-1,-1,-3,-2,0,-1,-1,-1
1517207275089579,-2,-2,-1,-1,-1,-2,-3,-1
1517207275089579,-1,-2,0,-1,-2,-2,0,0
1517207275109083,-1,-1,-2,-1,0,-1,-2,-2
1517207275109083,-1,-1,-1,0,-2,0,-3,0
1517207275117698,-1,-2,0,-1,0,-1,-1,0
1517207275117698,-1,-1,-2,-1,0,0,-2,-1
1517207275123706,-1,-1,0,-2,-1,-1,-1,-1
1517207275123706,-1,-2,-2,0,-1,0,-1,0
1517207275132709,0,0,-1,-1,-2,0,-2,-2
1517207275132709,-1,-1,-2,-1,1,-1,0,-1
1517207275148220,-1,0,0,0,-2,-2,-1,-1
1517207275148220,-1,-2,-2,-2,0,-1,-1,1
1517207275149721,1,-2,-1,-1,-2,0,0,-2
1517207275149721,0,-2,-2,-2,-3,0,0,-1
1517207275170247,-3,-1,-1,-1,-2,0,-1,0
1517207275170247,-1,-1,-1,-1,-1,-1,-1,0
1517207275171746,-3,-1,-2,-2,-2,-2,-2,-2
1517207275171746,-1,-2,0,-2,0,-1,-2,0
1517207275193252,0,-3,-3,0,0,0,0,-2
1517207275193252,-1,1,-1,-1,-1,-3,-1,-3
1517207275194759,-1,-1,-1,-2,-2,-1,-1,1
1517207275194759,-1,-1,-1,1,-1,-1,1,-2
1517207275207774,-2,0,-1,-2,-1,-1,0,0
1517207275207774,1,-1,-1,-2,0,-2,0,-1
1517207275209275,-2,-1,-2,0,0,-1,0,-1
1517207275209275,-2,-1,-2,-1,-2,-1,-2,-1
1517207275230288,0,-1,-1,1,-2,-1,-1,-1
1517207275230288,-1,-1,-2,0,0,-1,-1,-1
1517207275231789,0,0,0,-1,-1,-1,0,-1
1517207275231789,-1,-1,-2,0,-1,-1,0,-1
1517207275252818,-1,-1,-1,-3,-1,1,-3,0
1517207275252818,0,0,1,-1,-2,-1,-2,-1
1517207275254308,-2,-2,-1,-1,-1,-1,-1,-2
1517207275254308,-2,-1,0,-1,-1,-2,-1,-1
1517207275267804,-1,-2,-3,-1,0,-1,-1,0
1517207275267804,-1,1,1,-1,-1,0,-1,-1
1517207275269305,0,-1,0,0,-1,0,0,-1
1517207275269305,0,-2,-1,-2,0,-2,0,0
1517207275290323,-2,-1,-2,-3,-2,-1,1,-1
1517207275290323,-1,-1,-2,0,-1,-1,0,-1
1517207275291836,-2,0,-2,-1,-2,-1,0,-1
1517207275291836,-2,0,-2,0,-2,0,-1,0
1517207275312837,1,-2,0,-1,-1,0,-1,-1
1517207275312837,0,-1,-1,0,-1,-1,-1,0
1517207275314349,0,-1,-1,-2,-1,-1,-1,-2
1517207275314349,-1,0,-1,-1,-1,-1,-1,-1
1517207275327847,-2,-1,-2,-1,-2,-4,-2,-1
1517207275327847,-2,-1,-1,-2,-2,-2,0,-1
1517207275329348,-2,-2,-1,-1,0,-1,-2,0
1517207275329348,-1,-2,-2,-3,-2,0,-1,-1
1517207275350373,-2,0,0,0,0,-1,-1,0
1517207275350373,0,1,-1,-1,-1,-1,-2,-1
1517207275351878,-3,-2,-1,0,-2,0,-1,0
1517207275351878,-1,0,-1,-1,0,-1,-1,-1
1517207275372878,-1,1,-1,-2,0,-1,-1,-1
1517207275372878,0,-3,-2,-1,-1,0,0,0
1517207275374383,-2,-1,0,-2,-1,0,-1,-1
1517207275374383,-2,-1,-1,-2,0,-2,-3,0
1517207275395437,0,0,-2,1,0,0,0,-1
1517207275395437,-1,-2,-1,1,1,-2,-1,-1
1517207275396937,-1,0,-1,-1,-1,-1,-1,-2
1517207275396937,0,-3,-1,1,-1,-2,0,-1
1517207275409970,-1,-1,-1,-2,-1,-3,1,0
1517207275409970,-2,-2,-1,-2,-2,-1,-3,-2
1517207275411949,-2,-1,-2,-1,-1,-2,0,-1
1517207275411949,0,0,-1,0,-3,-2,-2,-3
1517207275432462,0,-2,0,-1,0,-1,-2,0
1517207275432462,-1,-1,-2,-2,-3,-1,-1,-2
1517207275434464,0,-1,-3,0,-2,-1,0,-2
1517207275434464,0,0,-1,0,0,0,-2,-1
1517207275447474,-1,-3,-1,-1,-3,-2,-1,-3
1517207275447474,0,-2,-2,-1,0,-2,-1,0
1517207275455496,1,-1,-1,-2,-1,-1,-2,0
1517207275455496,0,-1,0,-1,-2,-1,1,-1
1517207275477494,-2,-2,0,0,-2,-1,-1,1
1517207275477494,-4,-1,-1,-2,-2,0,-1,-2
1517207275479496,-3,0,-2,-1,-1,-3,0,-1
1517207275479496,-3,-1,0,-1,-2,-2,-1,0
1517207275492520,-1,0,-1,0,0,-1,-2,-1
1517207275492520,0,0,0,0,-1,0,-1,-1
1517207275494506,-2,-1,-1,-3,-1,0,0,-2
1517207275494506,0,-2,-1,-1,-1,0,-2,-1
1517207275507015,-3,-1,-1,1,-1,-1,0,-2
1517207275507015,-3,-2,0,-1,-2,-2,-2,-1
1517207275514021,-1,-1,0,0,-2,0,-1,0
1517207275514021,-2,-2,-1,-2,-1,0,0,-2
1517207275537598,0,0,-1,-4,0,-2,0,0
1517207275537598,-1,0,0,-1,-1,0,-1,0
1517207275539550,-1,-1,-2,-1,-1,-3,-1,-1
1517207275539550,0,-2,0,0,-2,-1,-1,-2
1517207275553048,-3,0,-3,1,-4,1,0,-2
1517207275553048,-2,-1,0,0,0,-1,0,0
1517207275567698,0,-2,-1,0,0,-2,-2,-1
1517207275567698,0,-1,-2,-3,0,-1,-2,-2
1517207275568698,-1,-1,-1,-3,1,0,-3,-2
1517207275568698,-2,-3,-1,-1,-2,0,-1,-1
1517207275573690,1,0,-1,-1,-1,-2,-2,-3
1517207275573690,-1,-1,-1,-1,-1,-2,0,-2
1517207275590243,-1,-2,0,-1,-1,0,1,-2
1517207275590243,-1,-1,-1,-1,-3,0,-1,-1
1517207275591744,-1,-1,-1,-1,-1,-1,0,-2
1517207275591744,-3,0,-1,-2,-1,-2,-1,-1
1517207275612760,-1,0,1,0,0,0,-2,0
1517207275612760,0,-2,-1,0,-1,-1,0,-2
1517207275614261,-1,-1,-1,0,-1,0,-1,1
1517207275614261,-2,0,-1,0,-2,0,-3,0
1517207275627292,-1,2,-3,-2,-2,-1,-2,-1
1517207275627292,-1,-1,-2,-2,0,-1,-2,-2
1517207275633796,0,0,-1,-2,-1,-1,0,1
1517207275633796,-2,-1,-1,-2,-3,-2,-1,-1
1517207275650311,-1,-2,-1,-1,0,-1,0,-3
1517207275650311,-2,-1,-2,-1,-1,-2,-1,0
1517207275651809,-1,-1,0,0,-1,-2,-2,-3
1517207275651809,0,-1,-3,0,1,0,1,-1
1517207275680329,0,-2,0,-1,-2,-2,0,-1
1517207275680329,-1,0,-1,-1,1,-2,0,0
1517207275681831,-2,-2,-3,0,-2,0,0,0
1517207275681831,-2,-1,-1,-1,-1,-1,-1,-1
1517207275686332,-1,-3,-2,-1,-3,-2,-1,0
1517207275686332,-1,0,-1,0,0,1,-1,-2
1517207275695341,-1,1,0,-1,1,-1,-2,-2
1517207275695341,0,0,-1,-1,-1,1,-2,-1
1517207275710353,-2,-2,-2,-1,-1,0,-1,-1
1517207275710353,0,-1,-1,-3,-3,-2,-1,0
1517207275711851,-3,-2,-1,-2,-1,-1,0,0
1517207275711851,-1,0,0,0,-1,-1,-4,-2
1517207275732866,-3,-1,0,0,1,-1,-2,1
1517207275732866,0,-1,-2,0,-2,-2,-1,-2
1517207275734869,-1,-1,0,-1,-2,-1,0,-2
1517207275734869,-2,0,-2,-1,-1,-1,0,0
1517207275746378,0,-1,-2,-1,-1,-3,-1,0
1517207275746378,-1,-1,-2,-2,0,-1,0,-1
1517207275755398,-2,0,0,-1,-1,-1,-1,-1
1517207275755398,1,0,-1,0,-2,-1,-1,0
1517207275770405,1,-3,-1,-1,-1,0,0,-2
1517207275770405,-1,-1,-2,-3,0,-1,-1,0
1517207275783912,-1,-2,-2,-4,-1,-2,-1,-1
1517207275783912,-1,-2,-1,0,-2,-1,-1,-3
1517207275792908,-1,-1,-2,-1,-2,-1,-1,0
1517207275792908,0,0,0,0,0,-1,-2,-1
1517207275794425,-1,-2,0,-1,-1,-1,-1,-1
1517207275794425,-2,-1,-2,-1,0,-1,0,-1
1517207275806433,-2,-2,-1,0,-2,-2,0,-1
1517207275806433,0,-2,-2,-1,-1,-2,-1,-2
1517207275815424,0,-1,0,0,-1,0,-2,0
1517207275815424,-1,-1,-1,-1,-2,-3,-1,0
1517207275830458,-3,-2,-2,-3,-1,-2,-3,-1
1517207275830458,-1,-1,0,-1,-1,0,-1,-1
1517207275831937,-1,-1,-1,-1,-1,-2,-1,0
1517207275831937,0,-1,0,-2,0,-1,0,1
1517207275852451,0,2,0,-1,0,0,-2,0
1517207275852451,-2,-1,-2,0,-1,-2,-2,0
1517207275853954,-1,0,-2,-1,-1,0,0,-2
1517207275853954,0,-3,-1,-1,-1,-1,-2,-3
1517207275866460,-1,-3,0,-2,-1,-2,-2,0
1517207275866460,0,-3,0,-1,-1,-1,-1,0
1517207275875479,-1,-1,-1,-2,-1,0,-2,-2
1517207275875479,-2,-2,0,-1,-1,0,-3,1
1517207275889986,-1,0,-1,-2,-1,-2,0,-1
1517207275889986,0,-1,-1,-2,0,0,-1,0
1517207275891988,-2,-2,-2,0,-2,-1,0,-1
1517207275891988,-1,-1,-2,0,0,0,1,0
1517207275928507,-1,0,0,0,-1,-1,-1,-1
1517207275928507,-2,0,0,-1,-2,0,0,1
1517207275930005,0,-2,-1,-2,-1,-1,-2,-1
1517207275930005,0,-1,-3,0,-1,-3,0,-1
1517207275931007,0,-1,-2,0,-2,0,-2,-1
1517207275931007,-1,-2,0,-1,0,0,0,-2
1517207275935512,-1,0,-1,-1,0,-1,0,-3
1517207275935512,-2,-2,1,-1,-2,-3,-1,0
1517207275950020,-1,0,-1,-2,0,-1,-1,-1
1517207275950020,-2,-2,0,0,-1,-2,-1,0
1517207275956025,-1,-2,-1,0,-2,-1,-1,-2
1517207275956025,-1,-1,-1,-1,0,0,-1,-2
1517207275972535,-2,0,-1,0,-2,0,-1,-2
1517207275972535,-3,0,-1,0,-2,1,-1,0
1517207275979041,-1,-1,1,-1,2,-2,0,0
1517207275979041,-2,-1,0,-3,-1,-1,-1,0
1517207275986548,1,0,0,-1,-2,0,-2,-1
1517207275986548,-1,-1,-2,0,0,-3,0,-2
1517207276010616,-2,-2,-2,-2,-2,-1,-2,-1
1517207276010616,0,-1,0,-2,-2,-1,0,-1
1517207276011622,-1,0,-2,-3,0,-1,-1,-1
1517207276011622,-1,1,-1,-2,-1,-2,-2,0
1517207276013115,0,0,-1,0,-1,0,-1,1
1517207276013115,-1,-2,-2,-1,-1,-1,-1,-3
1517207276031633,-1,-2,-1,0,-1,-1,0,0
1517207276031633,1,-1,-1,-1,-1,1,1,-2
1517207276040127,0,0,-3,-1,-1,0,0,-1
1517207276040127,-1,0,2,-2,-1,-1,-1,0
1517207276046632,-1,-1,-2,-1,-2,-3,-2,-1
1517207276046632,-2,-2,0,-2,-1,0,-1,-1
1517207276062644,-1,-2,0,-2,-1,0,1,1
1517207276062644,-1,-1,0,0,-1,-3,-1,-1
1517207276070149,-2,-2,1,-3,-1,0,-2,-1
1517207276070149,-2,0,-2,-2,1,-2,-1,1
1517207276071663,0,0,-1,0,-1,1,-1,-1
1517207276071663,1,0,-3,0,-2,-1,-1,0
1517207276093188,-1,-1,-1,1,-1,-2,-1,0
1517207276093188,-2,-2,-1,-1,-2,0,0,-2
1517207276094666,-2,-2,-1,-1,-1,0,-2,-2
1517207276094666,-2,0,-2,-2,-2,-2,-1,-1
1517207276106174,0,-1,-2,0,0,1,0,-1
1517207276106174,1,-2,-1,-3,-2,0,0,-1
1517207276115182,-1,1,0,-2,1,-3,-1,1
1517207276115182,0,-3,-1,-2,-1,0,-1,0
1517207276130192,-1,-1,-2,-2,-1,0,-1,-1
1517207276130192,-1,0,0,0,-2,-1,-1,-2
1517207276131692,0,-1,1,-1,-2,-1,-1,0
1517207276131692,-1,0,0,0,0,-2,-1,-1
1517207276152719,-2,-2,0,0,0,-1,1,-2
1517207276152719,-1,-1,0,0,0,-1,-1,-1
1517207276154221,-1,-1,1,-1,-1,-1,0,-1
1517207276154221,-2,-1,1,-1,-1,0,-1,0
1517207276175262,-1,-1,-4,0,-1,0,-1,0
1517207276175262,-1,-1,-1,-1,-2,-3,-3,-3
1517207276176725,-1,-2,-1,0,-1,-1,-1,-1
1517207276176725,-2,-1,-1,-1,0,1,0,-2
1517207276197002,1,-1,-1,-1,0,0,-1,0
1517207276197002,-2,-1,-2,1,-2,-1,-1,-1
1517207276205519,-2,-2,-2,-2,-2,-2,-1,-1
1517207276205519,-1,-1,-2,0,0,-2,-2,-1
1517207276212514,-1,-2,1,-2,-1,-2,-1,-1
1517207276212514,-2,0,-1,-2,0,-1,0,0
1517207276214015,-1,0,-2,-1,-1,-1,-2,-2
1517207276214015,-1,-2,-2,0,-2,-1,-2,0
1517207276235041,-2,-1,0,-2,-2,-1,-1,-2
1517207276235041,0,-1,-2,-1,-1,-1,0,0
1517207276237037,-1,0,-1,-1,-2,-1,-1,-2
1517207276237037,-2,-3,-2,0,-1,-1,-1,-1
1517207276257597,-1,0,-1,0,1,-1,0,-1
1517207276257597,-1,-2,-2,0,-3,-2,-1,-1
1517207276259084,-3,-3,-1,0,0,-1,0,-2
1517207276259084,1,0,0,-1,0,-1,0,-1
1517207276280599,-1,-1,-2,-1,-1,-1,-3,0
1517207276280599,0,-1,0,-1,-2,-2,-1,-2
1517207276286104,-1,-1,-1,-2,-1,-2,-1,-1
1517207276286104,-3,0,-1,-2,-2,-1,-1,0
1517207276295109,0,-1,-2,0,0,-2,-1,-1
1517207276295109,-2,-2,-2,-1,-1,0,-1,-1
1517207276296612,0,-2,-2,0,-2,1,-1,-1
1517207276296612,-2,-2,-1,-1,-1,-1,-3,-3
1517207276310140,-2,0,-1,-1,-1,0,1,0
1517207276310140,-1,-2,-1,-2,-1,-1,0,-1
1517207276311635,0,0,-2,-1,-1,0,-2,-1
1517207276311635,-2,-1,-1,-1,-1,0,0,-1
1517207276332648,-2,-1,-1,0,-1,-1,-1,-3
1517207276332648,-1,0,-1,0,-3,1,-2,-1
1517207276338655,-4,-2,-1,-1,-2,0,-1,-1
1517207276338655,-1,0,-1,-1,0,0,0,0
1517207276355199,-2,-1,-1,-1,-1,-1,-1,0
1517207276355199,0,-1,0,-2,-2,0,-2,0
1517207276356677,0,-1,-1,-2,-1,-2,-2,-1
1517207276356677,-1,0,-2,-2,-2,1,-1,-2
1517207276369699,0,-2,-2,-1,-1,-1,-2,-2
1517207276369699,-1,-1,-1,-2,1,-1,-1,-1
1517207276376204,-2,-1,-1,-1,-1,-2,-2,-1
1517207276376204,-1,-2,-2,-3,0,-1,-1,-2
1517207276392217,0,0,-2,-1,-2,-2,-1,0
1517207276392217,-1,0,-2,-1,-1,-1,-2,-2
1517207276400208,-2,0,-3,-1,0,-1,-1,0
1517207276400208,-1,0,-1,-1,-1,-2,-2,0
1517207276422724,-1,2,-2,1,-2,-1,0,0
1517207276422724,-1,-2,0,0,-1,-2,0,-1
1517207276424225,0,-2,-1,-1,-1,-1,-1,0
1517207276424225,-2,0,1,0,-2,-1,-1,-1
1517207276429729,0,-2,-1,-2,0,0,-1,-1
1517207276429729,-3,-1,-1,-1,-1,-1,0,1
1517207276436246,0,0,-1,-2,0,0,-1,-1
1517207276436246,-1,-1,-2,0,0,-1,-1,-1
1517207276452772,-1,-1,0,-1,-1,1,-1,-2
1517207276452772,-1,-1,-1,-1,-1,-1,-1,0
1517207276454265,-1,-2,0,-1,-2,-1,0,-1
1517207276454265,1,-1,-1,-1,-1,-1,0,-2
1517207276483269,-2,-1,-1,-2,-3,0,0,-2
1517207276483269,0,-1,-3,-1,0,-1,-1,-2
1517207276484780,-3,-2,-1,-2,-2,-1,-2,-1
1517207276484780,0,-2,-1,-1,0,-2,-2,0
1517207276489779,1,-2,-2,-1,-2,-2,-2,0
1517207276489779,0,-1,-1,-1,-2,-3,-2,0
1517207276496280,1,0,-1,-1,-3,-1,0,-3
1517207276496280,-2,-2,-2,-3,-1,-1,-1,-2
1517207276512787,-1,-1,-1,0,-1,0,-3,0
1517207276512787,-2,-2,-2,-2,-3,-2,0,1
1517207276514289,-2,0,-1,-2,-1,-2,-2,1
1517207276514289,-1,0,-2,-3,0,-2,0,0
1517207276535314,-1,-2,-1,-3,0,-1,-1,-1
1517207276535314,0,-1,-1,-2,0,-1,0,-3
1517207276536805,0,-2,-2,-1,-1,-1,-1,-1
1517207276536805,-2,0,-1,0,-1,0,0,-3
1517207276557819,0,-1,-3,-1,-1,-1,-1,0
1517207276557819,0,0,0,0,-2,-1,-1,-3
1517207276563829,0,0,-1,0,-1,-1,-1,0
1517207276563829,-1,-1,1,-2,-3,1,-2,-1
1517207276572331,0,0,-1,-3,-2,-2,-1,-1
1517207276572331,-2,0,-2,-2,-1,-1,-1,-2
1517207276574371,-1,-1,-1,0,0,-1,1,-1
1517207276574371,1,-1,-2,-1,-2,-2,-2,1
1517207276594846,-1,-1,1,-2,-1,-3,-1,-2
1517207276594846,-2,-1,-1,-3,-1,-1,0,0
1517207276596847,-1,-1,-1,-1,0,0,0,-3
1517207276596847,-1,-2,-2,1,-1,-1,-1,-1
1517207276609359,-2,0,-1,-1,-2,-1,-2,-1
1517207276609359,1,-1,-2,1,-1,-1,-2,0
1517207276616360,0,-1,0,-1,-2,-1,-2,-2
1517207276616360,-1,0,-1,-3,-1,0,-1,-1
1517207276632885,-3,-1,0,0,0,1,0,0
1517207276632885,-2,-2,-1,-1,-1,-1,-1,-2
1517207276634373,-2,-1,-2,0,0,-3,-2,-2
1517207276634373,-2,-3,-2,0,1,-1,0,-1
1517207276654903,0,-2,-2,0,0,-2,-1,-1
1517207276654903,0,0,-2,-2,0,-1,0,-2
1517207276656905,-1,-1,-2,-2,0,-1,0,-1
1517207276656905,-1,-2,-1,-1,-1,-1,0,-1
1517207276668915,-2,-1,-2,-1,-1,-2,-1,-1
1517207276668915,-1,-1,0,-1,-2,-1,-2,0
1517207276677921,0,-1,-2,-1,-2,-1,-3,1
1517207276677921,0,0,-1,0,-1,-2,-2,-3
1517207276692432,-1,0,-2,-2,-1,0,1,0
1517207276692432,-1,-2,-2,-2,-1,0,-1,0
1517207276693932,-1,-1,-1,0,-1,-2,-1,-2
1517207276693932,-3,-1,-1,-2,0,-1,0,-1
1517207276714448,0,-2,0,0,-1,1,-3,-2
1517207276714448,-2,-2,-1,-2,-2,-1,-2,1
1517207276729460,-1,0,-2,-2,-1,1,-1,1
1517207276729460,0,-1,-2,-1,0,-3,-3,-2
1517207276730459,-2,-2,-1,0,0,0,0,1
1517207276730459,1,-1,0,0,1,-3,-2,0
1517207276737993,-1,-1,-1,0,-1,0,0,0
1517207276737993,-1,-2,-2,0,-2,0,0,1
1517207276752477,1,-1,-1,-1,-2,-1,-1,-1
1517207276752477,-1,-1,-2,-1,-2,1,-3,0
1517207276754475,-3,-2,0,-1,-1,-1,0,-1
1517207276754475,-2,0,-1,0,-1,-1,-1,-2
1517207276774053,-1,-2,-2,-2,0,0,-2,-1
1517207276774053,-1,0,-2,-1,-1,-2,-1,-1
1517207276783023,-1,0,0,0,-2,0,-2,-2
1517207276783023,-2,-2,-1,-1,-2,-1,-1,0
1517207276789034,-1,-1,-3,0,-1,-1,-3,0
1517207276789034,-2,-1,1,-1,0,-1,1,-2
1517207276798031,0,-2,-3,1,-1,-2,-1,-2
1517207276798031,-1,1,-1,-1,-1,0,0,-1
1517207276812540,1,-1,0,0,1,-1,0,0
1517207276812540,-1,-1,-3,-3,-3,-2,0,0
1517207276814042,-1,-2,-2,-2,-1,0,-1,1
1517207276814042,-2,-1,-1,-1,-2,-2,-1,-1
1517207276843065,-2,-3,0,0,0,-2,-1,0
1517207276843065,-1,1,-1,0,-1,1,0,1
1517207276844563,-1,0,-1,0,-3,-1,-1,0
1517207276844563,-1,0,0,-1,-1,0,-1,0
1517207276848566,-1,-2,0,-3,-1,0,0,-2
1517207276848566,0,-2,0,0,1,-1,0,-1
1517207276873584,0,-1,-1,-1,-2,-1,-1,-2
1517207276873584,0,-2,1,-1,2,-1,-3,-1
1517207276874085,0,0,-1,0,-2,-1,-2,-3
1517207276874085,-2,-3,-1,0,0,0,-1,-2
1517207276875597,-2,-2,-1,-3,1,-1,1,0
1517207276875597,-1,-2,-1,-2,-2,-3,-1,-2
1517207276895099,-2,-1,-2,0,-1,-1,0,-2
1517207276895099,-2,-1,-1,0,-2,-1,-2,-2
1517207276896601,-1,1,-1,-1,-1,-1,-2,-2
1517207276896601,-1,-1,-1,0,-2,-1,-1,-1
1517207276925137,-1,0,-2,-2,-2,-1,-1,1
1517207276925137,-1,-2,-1,-1,-1,-2,-1,-2
1517207276926639,-1,0,-2,0,0,-1,-1,-2
1517207276926639,-1,-2,-2,-2,-1,-1,0,-1
1517207276932643,-2,-2,-1,1,0,-1,0,-1
1517207276932643,-2,-1,-1,-1,-1,-1,-1,0
1517207276934147,0,-2,-1,-1,-1,-3,-1,-1
1517207276934147,-1,-1,-2,-2,2,-2,-2,-2
1517207276955181,-1,0,0,-1,-1,-2,-2,0
1517207276955181,-1,-1,-1,-1,0,0,1,0
1517207276956681,-1,0,0,-1,-2,-2,0,-1
1517207276956681,0,0,1,-1,-2,-1,-2,-1
1517207276968704,-1,0,-3,-1,-2,-3,-1,-2
1517207276968704,-2,0,-1,-1,-3,-1,-2,-2
1517207276977710,-1,-1,0,-2,-2,-1,0,-2
1517207276977710,1,0,-1,-1,-2,0,0,-2
1517207276999716,-1,0,-1,-2,0,-1,-2,0
1517207276999716,0,0,-1,-2,-1,-1,1,-1
1517207277007722,-2,-1,-2,-1,0,-1,0,-1
1517207277007722,-1,-1,1,1,-1,-1,-2,0
1517207277015227,-1,-2,-2,-1,0,-2,-1,-1
1517207277015227,-2,0,-2,-1,-1,-1,-3,-1
1517207277016728,-2,-1,-1,0,1,-2,0,-1
1517207277016728,-2,-1,-4,-2,-1,-1,0,-2
1517207277029238,-1,-2,0,-1,-1,0,0,-1
1517207277029238,-1,-1,1,0,-1,-2,-1,-2
1517207277037743,-1,0,-1,-1,-1,-2,-2,0
1517207277037743,-2,0,-1,-1,-1,-1,-1,0
1517207277052268,-2,-2,0,-1,-1,-1,-2,0
1517207277052268,0,-1,-1,-1,-1,-1,0,-1
1517207277066274,-2,-2,-1,-2,-1,-1,-1,-1
1517207277066274,-1,-2,-1,0,-3,0,-2,-2
1517207277075270,-1,0,-1,0,-2,1,0,-1
1517207277075270,1,-2,-2,-1,1,-2,-2,-2
1517207277076771,1,-1,-2,-1,-1,-2,-3,-1
1517207277076771,-2,-2,0,-1,-2,-1,-2,0
1517207277097788,-1,-2,-1,-3,-1,-2,-1,-2
1517207277097788,-1,-2,-2,0,-1,-1,-1,0
1517207277099288,0,-2,0,-2,-3,-2,-2,0
1517207277099288,-1,-1,-2,-2,-1,-1,-1,-2
1517207277112296,0,1,-1,0,-2,-2,-2,-1
1517207277112296,-2,-1,-1,-2,0,1,-1,-2
1517207277120302,0,-2,-1,-1,-2,1,0,-2
1517207277120302,0,-3,0,-1,0,-2,-1,0
1517207277142837,-2,-2,-1,0,-2,-2,0,-1
1517207277142837,-1,-1,-1,-1,-1,0,-1,-2
1517207277150322,-1,0,0,-2,0,-2,-1,-1
1517207277150322,-1,-1,-1,-1,1,0,-1,-1
1517207277157343,-1,-2,-2,-2,0,-1,0,0
1517207277157343,-1,-2,0,0,-1,-2,-1,0
1517207277159329,-1,-1,-2,-1,-1,1,-2,-1
1517207277159329,0,0,-2,-2,-1,-2,1,0
1517207277172852,-1,0,0,-1,-1,-3,-1,0
1517207277172852,0,-2,-1,0,-1,-3,-1,-1
1517207277174840,-2,-1,0,-2,0,1,-2,0
1517207277174840,-1,-1,-1,-1,0,0,-1,0
1517207277195354,0,-1,0,-2,-2,-1,-1,-2
1517207277195354,0,-1,-3,-1,0,-1,-3,-1
1517207277201359,-2,0,-1,0,-3,0,-2,-1
1517207277201359,-1,-1,-1,0,-2,-2,-1,-2
1517207277224892,-1,0,0,-1,0,-2,0,-1
1517207277224892,-2,0,0,-2,-2,-1,0,-2
1517207277226890,-1,0,0,0,-1,-1,0,-1
1517207277226890,-2,0,-2,-1,-1,-1,0,-1
1517207277232883,-2,-1,-1,-2,0,1,-1,-1
1517207277232883,-2,-3,0,-2,-1,-2,0,-1
1517207277234384,0,-2,-1,-1,1,0,1,-1
1517207277234384,-1,-2,1,-2,-3,-1,-1,-2
1517207277255897,0,0,-3,0,-2,-2,-2,0
1517207277255897,0,-1,-2,0,-1,-1,-2,0
1517207277256898,-2,0,-2,0,0,-2,-1,-2
1517207277256898,0,-2,-2,0,0,-1,-1,-1
1517207277277412,-1,-1,-3,-2,-3,0,-2,-1
1517207277277412,-1,-1,-1,-1,0,-1,0,-1
1517207277285418,-1,-4,0,1,0,-1,-1,-1
1517207277285418,0,0,-2,0,-2,-1,-1,-1
1517207277291735,0,-1,-1,0,-2,-3,-2,0
1517207277291735,-1,-2,-1,0,0,0,0,-1
1517207277298741,-1,-1,-2,-2,-1,0,-2,-2
1517207277298741,-2,-2,-2,-1,1,-1,-1,-1
1517207277315273,-1,-1,0,0,-1,-2,0,0
1517207277315273,-1,0,0,-1,-4,-1,0,-1
1517207277316754,1,0,-1,-1,-2,-2,0,0
1517207277316754,-1,0,-1,-1,0,0,-1,-1
1517207277337768,-2,0,1,-1,0,-1,-1,-2
1517207277337768,-2,-2,0,-1,1,0,-1,0
1517207277345273,-2,1,-2,-3,1,-2,-1,0
1517207277345273,0,-2,-1,-4,-1,0,0,-3
1517207277351790,1,-1,-1,-2,-2,0,-2,-2
1517207277351790,1,-2,-1,-1,-1,-2,-2,-2
1517207277366290,-1,-2,-1,-1,-2,-1,-1,-2
1517207277366290,-1,0,-2,-1,0,-1,-1,-1
1517207277375344,-2,-2,0,-2,-2,-2,-2,0
1517207277375344,-2,-1,-1,-1,-3,-3,0,-2
1517207277376846,-2,-2,-1,0,-1,0,-1,0
1517207277376846,-2,-2,1,-1,-3,-3,-1,0
1517207277397862,0,-2,-1,-1,0,0,-1,-2
1517207277397862,-1,0,0,-3,-1,-2,-1,0
1517207277399375,-1,0,-1,-1,-1,-3,-1,0
1517207277399375,-3,0,0,-1,-1,-1,-2,-2
1517207277419376,-2,-1,-1,-1,-2,0,1,0
1517207277419376,0,1,-3,-2,-1,0,-2,-2
1517207277427883,-1,-1,-1,-1,-1,1,-2,-1
1517207277427883,-2,-2,-2,-1,-2,-2,-1,1
1517207277434887,-2,-1,-1,-2,0,-2,-1,-1
1517207277434887,-1,-2,-1,-1,-1,0,0,0
1517207277436889,-3,-2,-1,-1,-2,0,-1,-1
1517207277436889,0,-1,-1,0,-1,-1,-1,-2
1517207277457916,-1,0,-1,0,-2,0,-1,-1
1517207277457916,-2,-1,0,0,-2,0,0,-4
1517207277458903,-1,-1,0,-1,-1,-2,-2,-1
1517207277458903,0,-3,-1,-1,-1,-2,-3,-1
1517207277480420,0,-1,-1,-3,0,0,-3,-2
1517207277480420,-2,-1,0,0,-3,-1,-1,2
1517207277481921,-2,0,-1,-1,0,-1,-1,0
1517207277481921,-2,0,-2,0,-2,0,1,-2
1517207277503436,-1,1,-2,0,-1,0,0,0
1517207277503436,-1,-3,-2,0,0,-1,-2,-2
1517207277504936,-2,-1,-1,-1,-1,-1,0,-1
1517207277504936,0,-1,-1,-1,-1,-1,-1,-2
1517207277517445,-2,-1,-1,-2,-1,-1,0,-1
1517207277517445,-2,-1,-1,-2,0,-1,0,0
1517207277519446,0,-1,-1,0,-2,-2,1,-1
1517207277519446,0,-2,-1,-2,-1,-3,-2,-1
1517207277532458,0,-2,-3,-1,-1,-1,-2,-1
1517207277532458,-1,-1,-1,-3,0,-1,-2,-3
1517207277538961,0,0,-1,-1,0,-3,-2,-1
1517207277538961,-1,0,-2,0,-2,1,0,-1
1517207277554973,-1,-3,-1,-1,-1,0,-1,-2
1517207277554973,-2,-1,-1,-1,-2,-2,-2,0
1517207277556983,0,0,-2,-1,-1,0,-1,-2
1517207277556983,-2,-1,1,-2,-1,-1,-2,-1
1517207277577487,-1,-2,-1,-1,-1,-1,-1,1
1517207277577487,-1,0,-3,0,-2,-1,0,-1
1517207277578989,0,-2,-1,-1,-1,0,0,-2
1517207277578989,1,-1,-1,-1,-1,-2,-2,1
1517207277591498,-1,0,0,-1,-1,-3,0,-2
1517207277591498,0,-2,-1,-3,-1,-1,-2,0
1517207277600003,0,-1,-1,-1,-1,0,-2,-1
1517207277600003,-2,-1,-2,-1,-3,0,0,0
1517207277615014,-2,-3,-1,-1,-2,0,-2,-1
1517207277615014,-1,-1,1,-1,0,-2,-2,0
1517207277616515,-1,-2,0,-1,-2,0,-2,-2
1517207277616515,-1,-1,-1,-2,-2,0,0,1
1517207277637035,0,-1,-2,1,0,-2,1,-1
1517207277637035,-1,-1,-2,-1,-1,-1,1,-3
1517207277645035,0,0,0,-2,-1,-3,2,1
1517207277645035,-1,-1,0,0,0,-1,-1,-1
1517207277651540,-2,-3,-1,-1,-2,0,0,-1
1517207277651540,-2,0,-2,-1,-1,-1,0,-1
1517207277667551,0,-2,-1,-1,-1,0,-2,0
1517207277667551,-1,-1,-3,0,0,-2,-2,-2
1517207277675060,0,-1,-2,-3,-2,0,-1,-2
1517207277675060,-1,0,0,-1,-2,-2,-2,0
1517207277676558,-1,-2,-1,-2,-2,-1,-2,0
1517207277676558,-1,0,-2,0,0,-2,0,0
1517207277697594,-2,-1,1,-1,0,-1,-4,-2
1517207277697594,1,0,-4,-2,-1,-2,0,-2
1517207277703612,0,-2,-1,-1,-2,0,-1,-1
1517207277703612,-1,-1,1,-1,-1,-1,-3,-1
1517207277711102,-2,0,-1,-2,0,-2,-1,1
1517207277711102,0,0,0,0,-1,-1,-1,-2
1517207277727613,-3,0,-1,0,0,0,-1,-1
1517207277727613,-2,-3,-1,-2,-1,-1,0,-1
1517207277735134,0,0,-3,0,-1,-2,-2,0
1517207277735134,-1,0,0,-2,0,1,-1,-1
1517207277736632,-1,-1,-2,-1,-2,-1,-1,-1
1517207277736632,-1,-1,0,-2,-2,-1,-2,0
1517207277757635,-2,-1,-1,-1,-1,-2,-1,-2
1517207277757635,0,-2,-1,-2,-2,-2,-1,0
1517207277759136,-1,-1,-1,-1,-1,-4,-1,-3
1517207277759136,-2,-1,-3,0,-1,-2,-1,-2
1517207277771147,0,-1,-1,-2,0,-1,0,-1
1517207277771147,0,-2,-2,0,-2,-1,-1,0
1517207277780162,-1,-1,-1,-1,1,-1,0,0
1517207277780162,0,-2,-1,0,-2,0,-1,-1
1517207277795177,-1,0,-2,1,0,1,0,-2
1517207277795177,-2,0,-1,-1,1,-1,-1,0
1517207277796663,-1,-2,-2,-2,-2,-1,-2,1
1517207277796663,-1,0,0,-1,0,-2,0,-1
1517207277817687,-2,-2,0,0,0,-2,-1,0
1517207277817687,-1,-1,-2,0,-2,-1,0,-2
1517207277819179,0,-1,-1,-2,-1,-3,-1,0
1517207277819179,-1,0,0,0,-2,0,-1,-1
1517207277840167,0,-2,-1,-2,-1,-1,-3,-2
1517207277840167,0,-1,-1,0,-1,-1,0,3
1517207277841665,-2,-3,-2,-1,0,0,-2,0
1517207277841665,1,-2,-1,-4,0,-1,-2,-2
1517207277870185,-1,-2,0,-1,-3,-2,-1,1
1517207277870185,-1,-2,0,-2,0,-1,-2,-1
1517207277871690,-1,-1,0,-1,-1,0,-1,-3
1517207277871690,-2,-1,-2,-3,-2,-1,-2,1
1517207277877693,-1,-1,-1,-1,-1,0,-1,-2
1517207277877693,-1,0,-2,0,-1,-2,0,-2
1517207277879191,-2,-2,-2,1,-2,-2,-1,-1
1517207277879191,-1,1,-2,1,0,-2,-2,-2
1517207277900206,0,-1,-1,-1,-1,0,-1,-1
1517207277900206,-1,-1,-2,-2,-3,1,-1,0
1517207277901722,-1,-2,0,-1,-2,1,-1,-2
1517207277901722,-2,-2,0,-2,-1,-2,-2,0
1517207277915216,-3,-1,-2,-2,0,0,1,1
1517207277915216,-1,-2,-2,-2,-2,1,0,-1
1517207277916718,1,-1,0,0,-1,-2,-2,-1
1517207277916718,1,0,-1,-1,-1,1,-1,-2
1517207277938243,-1,-1,0,-1,-2,-3,1,-2
1517207277938243,-2,-1,-2,-1,1,1,0,-1
1517207277939746,-1,-1,-3,-3,0,-2,0,0
1517207277939746,-2,-4,-2,-1,-2,0,-1,0
1517207277951242,-1,0,-1,-1,0,-2,-1,0
1517207277951242,-1,-1,-1,0,-1,-1,-1,-1
1517207277960249,-1,-1,-1,0,-1,-1,-2,0
1517207277960249,-3,-1,-1,-1,1,0,0,-2
1517207277975761,-3,-2,-4,-2,-2,-1,-2,-2
1517207277975761,-1,-2,0,-1,-1,-1,-2,-2
1517207277977261,-2,-1,-1,-2,-2,0,-1,0
1517207277977261,0,-2,-1,0,0,-1,-2,0
1517207278005282,1,0,0,-1,0,1,0,-1
1517207278005282,-2,0,-1,1,0,-3,-2,-1
1517207278006796,-2,0,-1,0,0,-1,-1,-2
1517207278006796,0,-3,-5,-2,-3,-3,-1,-3
1517207278011286,2,0,0,0,0,0,0,1
1517207278011286,-2,-2,-1,-2,-1,-1,-2,-1
1517207278020291,0,-2,0,0,-1,0,0,0
1517207278020291,-2,0,0,1,-2,-1,0,-2
1517207278035317,-2,-1,-4,-3,-2,-2,-2,-2
1517207278035317,1,0,0,-3,-1,1,-1,-1
1517207278036803,-2,-1,-1,-2,-1,-1,-1,-2
1517207278036803,-1,-1,-1,0,0,-2,-2,0
1517207278058318,-2,-2,-2,0,-2,-1,-2,-2
1517207278058318,0,0,-1,-1,-2,-2,-1,-2
1517207278063823,1,-2,-3,-3,-2,-2,-1,-1
1517207278063823,2,1,0,-1,1,1,1,-3
1517207278079834,-3,-3,0,-1,0,-1,-1,0
1517207278079834,-2,-3,-2,-2,0,-2,-3,-2
1517207278086355,-1,0,-3,-3,-1,0,-1,0
1517207278086355,-1,0,-2,-2,-2,-1,-1,0
1517207278095347,-3,-3,1,0,-1,-1,0,-2
1517207278095347,-3,-1,-1,-2,-2,1,0,-1
1517207278096847,-1,0,0,0,0,-1,0,-1
1517207278096847,0,0,-2,-4,-1,-1,-3,0
1517207278117361,-4,-2,-1,0,-2,2,1,1
1517207278117361,-8,-3,-1,1,2,-2,0,0
1517207278119362,-4,-5,-1,0,-2,-2,-1,-4
1517207278119362,-1,0,-1,0,-2,1,0,0
1517207278139876,3,2,0,-1,-1,-3,-1,-3
1517207278139876,0,-2,-1,-3,-3,-1,-2,0
1517207278141916,-1,0,1,-2,0,-1,0,-1
1517207278141916,0,0,-3,-1,1,-1,3,9
1517207278154887,0,-1,-2,0,-1,-2,-3,-12
1517207278154887,3,6,1,-1,0,-3,-2,-2
1517207278156888,-8,-1,-3,-2,-2,-2,-3,-4
1517207278156888,9,-1,1,-1,-4,-1,-2,0
1517207278177404,-2,4,0,-2,0,-1,2,3
1517207278177404,-6,-10,-5,-4,-5,-3,-2,-4
1517207278179405,3,-1,-1,2,0,-2,0,0
1517207278179405,-2,-2,-2,-1,-1,-3,-1,-3
1517207278200419,2,3,0,0,0,0,-1,3
1517207278200419,-1,2,0,1,-1,-1,1,0
1517207278201920,0,1,0,-3,-3,-2,-1,-1
1517207278201920,-5,-3,-2,0,2,-1,0,-5
1517207278214431,-2,-5,0,-1,-2,-1,-2,0
1517207278214431,1,-1,0,1,-1,0,0,-4
1517207278221445,-1,0,-3,-1,-2,-1,0,3
1517207278221445,-1,0,-2,-3,-1,-1,-1,0
1517207278237445,2,2,-1,-1,0,0,-1,1
1517207278237445,2,-1,0,0,-1,0,-1,1
1517207278239461,7,-6,-1,-4,-2,-2,-1,-2
1517207278239461,-11,-4,-2,-4,-4,-2,-6,-9
1517207278259970,-7,-1,-4,-1,1,-1,0,-2
1517207278259970,-9,-4,-1,1,0,-2,-1,-3
1517207278261466,4,-1,2,-2,-7,-1,-1,1
1517207278261466,1,1,0,-8,-1,0,2,1
1517207278274051,2,-1,-2,-11,-2,-1,-1,-2
1517207278274051,3,2,-2,0,-3,-3,-1,1
1517207278283058,-9,-1,-2,6,5,2,0,-2
1517207278283058,0,-4,-4,-1,0,-1,-2,-1
1517207278304086,0,-1,1,-9,-8,-4,-2,-1
1517207278304086,-3,-1,9,28,-6,-1,0,1
1517207278312579,-6,-2,-11,11,11,3,0,-5
1517207278312579,0,0,-2,-17,4,1,-2,-2
1517207278320085,0,-1,-6,0,2,0,-2,0
1517207278320085,-4,-2,-4,-9,-7,-3,-4,-2
1517207278321586,2,-7,2,3,-9,-4,-2,4
1517207278321586,-3,3,2,13,0,-2,-2,-7
1517207278342600,-2,-1,-1,-3,-3,-2,-2,-1
1517207278342600,-3,-1,2,-4,-1,-1,-3,0
1517207278344101,9,-1,-3,-5,-2,-2,-2,-4
1517207278344101,-4,-3,-2,-5,2,1,3,4
1517207278365117,2,6,4,4,-2,-2,-3,-4
1517207278365117,9,12,-3,-3,5,3,3,6
1517207278366617,-13,-17,0,-8,0,-1,3,2
1517207278366617,3,0,1,3,-4,-3,-2,-2
1517207278386631,-7,-4,-1,7,1,-2,-3,-6
1517207278386631,-3,-4,-2,-3,3,1,2,1
1517207278396643,-1,7,-3,-13,-5,-2,-3,4
1517207278396643,4,-3,1,7,-1,-2,0,-8
1517207278397641,4,9,2,-1,0,-1,-1,3
1517207278397641,-2,10,0,-7,3,-3,-2,-5
1517207278401154,-6,-15,-8,-6,-5,-3,0,-4
1517207278401154,-2,1,0,3,-3,-2,-1,6
1517207278425199,-11,-12,-2,-3,0,0,0,-1
1517207278425199,0,1,-2,-3,1,-2,-3,-4
1517207278426684,7,7,2,2,-2,-1,2,3
1517207278426684,-7,-4,-2,2,-1,-1,-3,1
1517207278440197,9,3,2,-5,-1,1,4,0
1517207278440197,2,-6,-3,-1,-4,-4,-2,-8
1517207278441694,2,8,0,-3,3,1,-2,0
1517207278441694,-3,-3,-1,-2,-2,-1,0,-1
1517207278454707,-2,-1,2,8,-1,0,-2,2
1517207278454707,6,-11,-3,-7,1,0,2,0
1517207278461209,3,-3,4,1,-1,0,-2,-3
1517207278461209,9,2,2,3,-4,-2,-1,2
1517207278477720,-4,-10,-9,0,0,-1,4,1
1517207278477720,3,11,1,-2,0,0,0,11
1517207278479221,3,0,0,2,0,-1,-9,-14
1517207278479221,-9,-2,5,-2,-2,0,3,6
1517207278500236,4,-12,-17,0,0,-3,1,0
1517207278500236,-1,6,4,-3,-1,1,2,0
1517207278501737,-8,2,6,4,-2,-1,1,3
1517207278501737,-12,-6,-12,-15,-3,-2,-5,-7
1517207278514792,0,6,3,7,2,1,-1,2
1517207278514792,3,-9,-1,-12,0,0,1,1
1517207278521303,-9,6,3,3,0,1,5,1
1517207278521303,5,-4,0,-1,-3,-3,-6,-14
1517207278537310,-4,-1,-1,2,-2,0,-1,-4
1517207278537310,-1,-2,-5,2,-1,-1,-3,-8
1517207278539315,-2,5,2,5,-3,0,2,8
1517207278539315,-6,-15,-10,-10,1,-2,4,8
1517207278560010,-3,3,9,-3,-4,-5,-28,-27
1517207278560010,2,7,5,11,2,0,6,15
1517207278561512,-9,-21,-10,-13,-1,-1,-4,-5
1517207278561512,-8,10,-1,2,-3,0,3,-1
1517207278590042,-3,-4,2,0,0,0,3,2
1517207278590042,-26,-15,-2,0,-2,-1,-11,-18
1517207278591533,1,2,-4,-4,-4,-4,0,-2
1517207278591533,15,7,6,6,2,1,0,-1
1517207278597540,-3,2,0,-3,-2,-4,-4,-3
1517207278597540,0,2,6,1,-1,4,9,1
1517207278599038,2,-6,-9,-1,-1,-1,3,-4
1517207278599038,-1,-9,-2,-2,-3,-2,-4,0
1517207278620054,1,19,3,1,0,0,-1,-3
1517207278620054,3,-18,-13,-6,-3,-3,-7,0
1517207278621562,5,11,1,0,-1,-3,6,6
1517207278621562,16,0,0,2,0,-1,-11,-15
1517207278634063,-8,1,3,-1,-1,0,5,6
1517207278634063,-1,-7,-3,-3,-3,-2,0,-6
1517207278642579,-3,1,2,2,2,2,6,2
1517207278642579,3,5,-1,0,0,-2,-14,-1
1517207278657595,6,-9,-8,-4,-1,1,12,9
1517207278657595,7,7,6,2,-2,-6,0,2
1517207278659080,-7,1,1,3,0,-1,-4,3
1517207278659080,-9,-5,-4,-9,-7,-6,0,-14
1517207278680096,-2,-22,-13,0,1,2,2,8
1517207278680096,-1,4,8,-3,-1,0,19,1
1517207278681597,8,5,-3,-3,0,-1,-2,3
1517207278681597,-10,3,11,5,0,2,3,4
1517207278693628,14,-2,7,5,-1,0,-2,-4
1517207278693628,4,12,-19,-20,-3,-6,-8,-17
1517207278702675,11,17,-3,-6,-3,-2,4,14
1517207278702675,-13,-1,4,3,0,-1,8,2
1517207278725179,-6,-1,0,1,2,0,-14,-8
1517207278725179,2,4,-1,7,1,2,-10,8
1517207278726705,-7,-4,10,-5,-6,-6,-14,-15
1517207278726705,4,3,9,0,1,-4,-28,2
1517207278740192,-7,-13,-22,-4,-2,-2,0,0
1517207278740192,-4,-18,-1,-2,0,1,-5,3
1517207278741705,3,7,14,0,2,3,23,17
1517207278741705,-4,-6,3,4,1,0,-36,-29
1517207278753738,-3,6,-15,-3,-4,-4,5,-12
1517207278753738,-10,4,8,2,0,2,15,12
1517207278762706,-11,-8,11,8,2,2,8,7
1517207278762706,4,7,-17,-4,0,3,14,10
1517207278776715,-16,-33,-10,-7,-4,-7,-5,-12
1517207278776715,-10,-16,-14,-1,-2,-3,6,1
1517207278785221,9,17,17,9,0,1,-3,-10
1517207278785221,6,-17,-20,-10,0,-1,20,40
1517207278800237,2,24,12,-8,-5,-1,-24,-33
1517207278800237,-3,-9,-8,9,-1,-5,-3,0
1517207278801753,-7,0,-8,-15,-2,2,10,0
1517207278801753,2,26,26,5,-2,-3,-21,-17
1517207278813742,12,-45,-31,-5,-2,0,43,48
1517207278813742,-3,25,18,1,-3,-8,-50,-39
1517207278828780,11,-9,-10,7,0,2,-17,-18
1517207278828780,2,33,5,-3,-4,-3,30,39
1517207278837784,-5,-3,0,-5,2,4,-23,-40
1517207278837784,11,36,44,27,2,1,15,14
1517207278839285,-2,-40,-41,-32,-4,-6,-19,-2
1517207278839285,-16,-32,-27,-4,-2,3,-2,-16
1517207278859802,-2,38,31,6,1,0,16,27
1517207278859802,8,-30,-30,-5,-3,-1,-8,-9
1517207278861802,-12,-12,2,12,7,4,4,17
1517207278861802,-8,14,15,-5,0,2,8,-4
1517207278873809,5,8,-42,4,3,7,48,38
1517207278873809,-7,-49,-14,-2,-1,-2,-48,-55
1517207278882817,-1,15,-4,-9,-4,-5,-15,-2
1517207278882817,3,-18,-11,3,-4,-7,1,-17
1517207278897827,12,45,49,1,0,-2,-6,10
1517207278897827,-6,5,-22,-18,-7,0,16,30
1517207278899340,19,-11,16,21,5,5,24,16
1517207278899340,-2,-11,1,-9,0,-1,-24,-7
1517207278919841,-10,6,-1,-5,-6,-4,-26,-59
1517207278919841,10,-11,-8,6,4,4,31,23
1517207278921843,0,38,8,8,1,1,-6,0
1517207278921843,1,-8,-24,-5,-6,-5,2,0
1517207278933854,8,32,40,12,-23,-8,-1,7
1517207278933854,-25,-53,-31,-27,27,11,24,4
1517207278942863,3,23,-4,5,-13,-13,-32,12
1517207278942863,10,-19,9,9,9,9,-2,-15
1517207278957369,-8,-10,-33,-18,-7,-9,-17,-18
1517207278957369,-1,14,36,14,-14,-9,0,7
1517207278959369,-10,29,36,26,-9,-2,6,-1
1517207278959369,23,16,-15,-48,41,20,20,-16
1517207278979384,-3,-7,11,0,-4,-6,-19,18
1517207278979384,-8,-23,-19,-17,-7,0,18,5
1517207278980385,-24,-40,-31,-7,-6,0,2,-5
1517207278980385,-10,3,5,21,-23,-14,-11,4
1517207279002427,7,2,1,0,12,7,14,-15
1517207279002427,11,49,45,-6,-4,-5,-11,-7
1517207279002900,-23,-51,-49,-8,0,0,9,0
1517207279002900,-3,-25,-47,-2,-8,-3,13,-10
1517207279016910,23,-34,29,-9,7,1,-20,18
1517207279016910,-30,19,-51,1,-11,-6,5,23
1517207279017410,-10,57,1,-23,-3,-4,-9,-14
1517207279017410,-6,-20,37,2,-2,-1,23,-1
1517207279039449,15,1,11,19,7,-1,3,-6
1517207279039449,-10,8,-8,-11,-8,-3,-17,-6
1517207279039926,3,-4,-13,-11,7,4,4,27
1517207279039926,5,-27,-1,29,1,0,3,-14
1517207279061942,-7,28,12,-17,-18,-6,2,-1
1517207279061942,14,26,25,-31,1,-5,-28,-10
1517207279062451,13,35,18,15,4,-1,6,11
1517207279062451,7,31,-11,7,3,2,-11,-19
1517207279077465,-10,-33,7,1,-5,-8,-10,12
1517207279077465,20,40,25,-2,-3,4,27,44
1517207279091963,-11,-61,-10,-19,-4,-3,-40,-64
1517207279091963,-8,13,84,13,-8,-9,2,24
1517207279100972,10,24,-9,-2,10,7,9,25
1517207279100972,-1,-14,-36,3,-1,1,-20,-34
1517207279101470,-3,-18,36,12,2,-3,0,-25
1517207279101470,19,33,-44,-19,-14,-7,8,27
1517207279121985,-42,-49,-8,-8,-3,-6,-1,3
1517207279121985,6,-30,47,18,3,-1,-5,5
1517207279122495,11,-16,-18,13,2,7,33,12
1517207279122495,-12,5,6,-12,-5,-7,-32,-17
1517207279136995,-18,46,0,20,-3,-3,-16,-7
1517207279136995,4,-12,-8,-1,1,4,6,10
1517207279137496,8,-28,18,-28,-3,-7,-13,-32
1517207279137496,-3,54,-4,5,3,11,36,32
1517207279159514,-9,-25,23,0,1,-2,0,-1
1517207279159514,4,3,7,30,3,0,3,-1
1517207279160012,-11,-15,20,-6,-8,-7,3,8
1517207279160012,-11,-25,-22,-12,-5,-6,-4,-47
1517207279182030,5,-12,-17,2,3,8,30,22
1517207279182030,-8,-19,-47,-3,-3,-3,-39,-20
1517207279182537,4,-19,-16,-13,-4,2,1,3
1517207279182537,-7,12,7,14,0,-1,-13,16
1517207279197038,14,-37,-33,-15,2,1,6,12
1517207279197038,-21,-20,28,0,-1,1,-1,-15
1517207279197540,13,59,21,26,10,6,3,0
1517207279197540,-4,-27,-16,-10,-3,-2,-24,-14
1517207279219063,13,64,5,5,5,2,4,-2
1517207279219063,4,-12,-17,-5,-1,1,15,9
1517207279227079,10,45,-4,1,2,-1,13,-4
1517207279227079,1,-11,25,33,7,0,10,34
1517207279250078,-3,4,-1,-44,-5,-3,-49,-35
1517207279250078,-10,39,-22,6,-1,-2,8,-19
1517207279251079,2,-31,1,12,6,6,19,24
1517207279251079,-6,-49,-49,-30,-16,-9,10,27
1517207279257080,-13,-21,10,12,6,9,8,-23
1517207279257080,10,31,19,-12,-5,-6,12,16
1517207279257581,-10,-2,26,3,2,-3,-19,-4
1517207279257581,-15,-3,0,11,6,5,-10,-14
1517207279279109,-7,-27,-13,-8,-9,-6,3,5
1517207279279109,5,-28,-16,-9,0,-1,3,4
1517207279280102,-8,69,29,-1,-2,0,-4,-28
1517207279280102,-6,-6,-22,-22,-9,-5,21,23
1517207279310118,-14,23,100,19,0,-5,-4,-14
1517207279310118,14,-45,-71,8,6,3,-7,0
1517207279310618,11,-10,-7,2,-2,-4,-3,-4
1517207279310618,-15,-36,31,-1,6,5,12,32
1517207279317122,23,43,2,-3,-13,-2,-3,-18
1517207279317122,9,11,-31,-4,0,-3,37,31
1517207279317623,-12,-16,-50,-34,-5,-2,-41,-6
1517207279317623,4,5,51,30,0,-1,-14,-45
1517207279339638,-6,-34,-71,-4,3,0,10,8
1517207279339638,-12,-17,0,-12,-3,-2,-6,-28
1517207279340139,8,7,15,-14,-5,-3,7,-18
1517207279340139,24,20,7,18,5,6,13,25
1517207279370160,-3,8,-11,-12,-5,-8,-34,-26
1517207279370160,-31,24,46,14,1,-2,1,-30
1517207279370660,-14,-42,-27,-13,-10,-7,2,38
1517207279370660,14,10,29,-15,0,-6,-27,-25
1517207279377165,12,-28,-24,0,0,0,-3,54
1517207279377165,24,31,1,-5,0,-3,-10,5
1517207279377678,-19,-54,-22,6,-3,-5,-19,-39
1517207279377678,-15,16,-28,-6,2,5,17,-5
1517207279399682,6,-8,-21,4,3,1,-3,-1
1517207279399682,8,-2,32,-3,-4,2,12,39
1517207279400204,18,37,-1,5,4,3,-41,-12
1517207279400204,-12,-61,6,8,-4,-8,-15,-16
1517207279421706,-23,-12,-22,-33,-2,3,18,1
1517207279421706,-2,3,5,8,1,0,-31,-37
1517207279422697,35,55,77,7,-1,-1,26,48
1517207279422697,-36,-25,-101,-13,-1,-1,-33,-27
1517207279445213,11,1,25,30,13,6,3,-7
1517207279445213,-3,-40,-1,-4,6,7,-2,18
1517207279445714,-3,15,-7,-2,0,0,17,11
1517207279445714,13,35,19,14,-4,-4,-22,-23
1517207279459223,3,20,-4,-31,-2,3,21,22
1517207279459223,-3,-41,-49,1,-1,2,-9,1
1517207279460224,4,-17,19,9,7,4,11,-2
1517207279460224,51,32,6,12,3,4,13,15
1517207279481754,-18,-17,-16,-2,2,-1,-14,-26
1517207279481754,7,1,47,4,-4,-5,-5,24
1517207279482739,-5,-13,-16,1,-4,-5,-7,-2
1517207279482739,-3,17,37,-21,0,-3,3,-3
1517207279497251,14,6,22,2,-6,-2,16,1
1517207279497251,-3,-54,-77,-2,-1,-4,-13,11
1517207279504270,-11,-3,41,-4,-8,0,-6,-43
1517207279504270,-2,28,20,-2,-3,-3,8,6
1517207279519266,1,-19,24,13,6,3,14,-4
1517207279519266,-9,54,-36,2,0,-4,17,21
1517207279520267,-10,-16,-43,4,1,1,12,-3
1517207279520267,-8,-9,-37,-31,-5,3,8,17
1517207279541785,-1,5,36,28,5,-3,5,14
1517207279541785,-3,-25,30,-7,-2,2,1,-36
1517207279542797,-19,-21,10,-4,-6,-5,8,25
1517207279542797,3,-4,-9,15,-4,-2,-9,-48
1517207279564840,8,-15,-38,-9,9,-3,-2,10
1517207279564840,-1,46,54,-9,-11,0,18,-12
1517207279565841,17,6,-37,-10,-5,-6,2,3
1517207279565841,3,-3,-20,-9,-3,-5,-13,-2
1517207279587356,-45,-29,16,12,-1,-1,9,-7
1517207279587356,2,-17,25,-7,-4,-7,-19,-24
1517207279588359,23,8,1,3,7,6,6,18
1517207279588359,-9,26,4,1,-1,3,34,113
1517207279602367,7,40,-25,14,3,4,-1,-67
1517207279602367,1,-4,-9,-12,-5,-9,-40,0
1517207279609375,4,66,33,18,4,2,3,3
1517207279609375,-42,-31,6,12,4,4,2,8
1517207279616376,7,-45,-79,-37,-11,-4,3,-13
1517207279616376,4,20,28,4,-2,-1,-18,-13
1517207279624382,-21,5,-3,-13,-4,-5,-7,-12
1517207279624382,16,14,3,23,-3,-7,-15,-15
1517207279647399,9,-9,-31,-18,5,3,-3,53
1517207279647399,0,9,4,6,-4,3,10,-33
1517207279648399,-12,-26,17,14,13,-4,-17,-29
1517207279648399,-3,-1,-8,-9,-8,0,0,-9
1517207279661909,1,-37,28,10,-4,-2,15,29
1517207279661909,19,45,-5,-19,-8,-8,-9,7
1517207279662409,-15,20,1,6,-1,-1,-8,-5
1517207279662409,6,-13,12,-29,2,-3,-9,17
1517207279675919,17,75,65,29,-1,-1,-5,-14
1517207279675919,6,-13,-32,-2,4,3,9,18
1517207279684424,-13,31,56,19,-11,-6,-2,-48
1517207279684424,-5,4,-54,-41,7,0,-19,-2
1517207279699438,-2,29,48,10,-9,-4,-5,-6
1517207279699438,-38,15,-10,9,2,-4,-9,9
1517207279699935,-1,-89,-49,-38,-11,-3,6,4
1517207279699935,23,-12,17,26,8,5,5,-6
1517207279722469,-29,9,-14,-35,-17,-11,-12,-7
1517207279722469,6,-49,-18,11,3,-1,14,-49
1517207279722971,-3,-21,-22,-2,1,4,26,42
1517207279722971,14,22,12,-6,-6,-4,-2,-16
1517207279735979,-5,24,40,13,0,-4,-33,-18
1517207279735979,-24,-6,-21,-16,-2,2,11,48
1517207279744494,40,29,-10,15,7,4,-6,-15
1517207279744494,4,9,25,-20,-4,2,-2,-16
1517207279759505,9,-7,-20,15,2,-4,-2,-4
1517207279759505,25,-16,-7,-9,-3,0,4,5
1517207279759996,-19,-14,-3,-5,0,3,-11,-23
1517207279759996,-7,-5,29,11,-3,-4,8,5
1517207279782011,-9,-66,-5,7,-2,-3,-12,-4
1517207279782011,24,18,22,5,7,5,19,5
1517207279782511,-14,11,-31,-2,-2,1,3,29
1517207279782511,10,-3,5,9,3,2,-14,-11
1517207279796021,-18,-7,-80,-27,-9,-10,-16,-37
1517207279796021,-21,-44,3,9,-4,1,16,-26
1517207279804527,17,58,52,21,15,4,9,47
1517207279804527,-47,-21,-12,-21,-12,-4,-16,-35
1517207279819537,36,41,11,-2,4,1,6,17
1517207279819537,-28,-6,4,15,2,4,14,26
1517207279820043,-13,-15,-40,0,-2,-6,-28,-25
1517207279820043,16,-38,1,-34,-6,-4,6,5
1517207279841569,1,18,4,6,4,4,-2,-2
1517207279841569,15,-20,24,3,-2,-5,-9,-10
1517207279842554,1,-29,-42,-13,-6,-1,-2,5
1517207279842554,-16,-16,2,28,2,-3,4,-27
1517207279856067,-14,-67,-108,-38,-6,1,23,11
1517207279856067,19,28,55,-4,-4,-3,-6,45
1517207279864569,-16,-28,-37,-6,-1,-1,3,-11
1517207279864569,13,-5,-28,1,-1,4,3,-16
1517207279879608,17,23,49,5,1,-7,-28,28
1517207279879608,-49,29,-7,6,2,-3,-29,-45
1517207279880109,48,-4,27,11,0,1,16,46
1517207279880109,-16,2,-29,-3,4,3,8,11
1517207279902125,-21,-26,27,13,-2,-1,9,26
1517207279902125,4,55,6,-23,-5,-4,-4,-25
1517207279902625,9,26,-7,-5,-5,-3,-7,-4
1517207279902625,-10,2,24,28,5,3,0,-5
1517207279925141,2,-33,-8,1,10,8,13,3
1517207279925141,-6,23,19,3,-6,-3,-7,37
1517207279925641,14,9,-36,-18,-12,-12,-39,-47
1517207279925641,-8,-25,-11,3,-3,-4,16,8
1517207279947657,8,19,-5,-9,-4,2,-4,3
1517207279947657,-4,-22,-60,-11,0,-5,-32,-21
1517207279948657,-11,7,39,-1,4,7,36,59
1517207279948657,11,-39,50,26,1,-4,-36,-30
1517207279961666,0,60,-4,-19,-8,-3,-1,19
1517207279961666,24,32,36,21,14,6,-7,-42
1517207279962667,-14,1,12,-4,-6,-1,10,8
1517207279962667,8,-20,-49,-21,0,-6,-14,10
1517207279985214,2,38,39,20,3,4,9,1
1517207279985214,-1,-5,-19,-19,-9,-6,-4,-10
1517207279985714,10,-33,5,28,7,1,13,16
1517207279985714,12,33,21,-23,0,0,-8,1
1517207279999224,-19,-1,-14,-2,-7,-6,-16,-40
1517207279999224,-5,-6,14,3,0,4,8,-13
1517207280000224,4,-34,-72,-8,0,0,0,21
1517207280000224,-8,-4,-30,-13,-11,-5,8,-25
1517207280030258,-12,-29,-11,-5,0,-3,3,-1
1517207280030258,16,-18,41,17,11,6,10,10
1517207280030746,-10,-10,-47,-10,-8,-6,-10,-23
1517207280030746,-22,2,20,-3,-3,0,10,31
1517207280045275,17,-8,35,10,4,1,25,23
1517207280045275,-15,-44,-75,-19,-12,-5,4,-1
1517207280046767,-9,12,64,12,8,6,14,-7
1517207280046767,-8,-39,-20,-5,-2,-10,-37,-25
1517207280059269,3,-24,18,14,-1,-5,-11,-2
1517207280059269,-5,-2,34,-12,-5,-7,1,14
1517207280060267,-3,-16,-34,-16,-4,-2,-14,-22
1517207280060267,6,22,-27,7,-2,-3,11,10
1517207280081783,6,16,-15,5,3,2,5,15
1517207280081783,18,16,88,17,1,-4,0,12
1517207280089790,-30,-69,-63,-45,-14,-10,-23,-49
1517207280089790,4,54,48,11,2,-2,9,18
1517207280121539,15,8,-57,9,-2,2,20,28
1517207280121539,5,8,-11,-14,2,2,-38,-45
1517207280122040,22,42,68,23,1,0,-2,6
1517207280122040,8,-4,1,-4,1,4,3,-11
1517207280123545,-14,-25,0,0,-6,-3,-17,-5
1517207280123545,-4,19,-5,-2,0,-1,16,5
1517207280127043,-6,-7,10,8,-3,-7,-10,-15
1517207280127043,-28,8,-48,-6,0,3,-3,23
1517207280142554,17,47,80,6,7,4,8,-4
1517207280142554,3,-27,-121,-14,-6,-1,-2,-12
1517207280143055,-13,-4,44,0,7,3,-5,-13
1517207280143055,23,34,25,14,-1,-1,23,33
1517207280165085,-18,-17,0,4,-2,-4,-15,-25
1517207280165085,-20,-44,-25,-18,-4,-3,27,31
1517207280165571,13,41,-17,5,2,0,-30,-6
1517207280165571,5,-22,24,-7,-10,-4,-1,-6
1517207280179590,-1,6,21,15,9,5,-2,6
1517207280179590,22,11,-2,4,4,3,-1,-36
1517207280180081,-14,-11,-20,-9,-7,-6,-3,10
1517207280180081,-2,-4,-21,-18,-3,2,3,-12
1517207280201596,1,17,-16,3,-1,-2,-9,-13
1517207280201596,-20,-46,3,12,-1,0,9,20
1517207280202598,3,0,9,-7,0,1,18,22
1517207280202598,0,29,10,16,7,3,-6,-14
1517207280225112,-34,-36,-26,-2,-13,-8,-8,-4
1517207280225112,-14,-6,-46,-21,5,4,3,11
1517207280225613,-2,-3,28,-5,-6,-2,11,-1
1517207280225613,10,7,6,3,5,2,23,61
1517207280239162,-11,5,-5,-14,-8,-7,-20,-71
1517207280239162,-5,35,60,15,0,-4,-10,3
1517207280240133,-6,-43,13,2,-1,-5,-2,3
1517207280240133,-25,-7,-53,-12,-4,-1,8,-7
1517207280261688,8,4,-21,-11,-1,0,6,30
1517207280261688,32,30,56,9,-4,-2,-4,-8
1517207280262690,4,-1,-21,15,5,2,17,13
1517207280262690,16,1,39,-7,4,1,-18,-31
1517207280285696,-6,-9,11,-3,-4,-2,13,-23
1517207280285696,-13,7,-7,-20,-2,1,12,46
1517207280286197,-3,18,22,20,-3,-1,-14,-11
1517207280286197,3,-7,9,-5,3,-6,-11,-18
1517207280299223,-11,-8,-22,-17,-3,3,5,-1
1517207280299223,-7,30,24,15,0,2,17,13
1517207280300206,10,14,14,16,-8,-2,-25,-8
1517207280300206,11,11,-52,-29,5,-1,37,-6
1517207280321721,-10,-41,-26,-9,-3,0,-4,10
1517207280321721,11,23,-29,16,-5,1,2,-1
1517207280322723,-6,-11,4,-32,-4,-5,-8,-15
1517207280322723,-6,9,22,18,-21,-6,1,5
1517207280344841,24,42,18,23,4,-7,-18,29
1517207280344841,-9,-32,-28,-30,24,12,-5,-21
1517207280346837,2,11,9,2,-5,-3,24,34
1517207280346837,-4,8,37,24,9,7,-20,-8
1517207280359336,-20,-26,-11,-17,-11,-9,10,31
1517207280359336,3,-5,19,11,-9,-3,4,-56
1517207280360337,3,-10,-43,-10,4,-4,-15,-39
1517207280360337,32,40,61,18,0,2,0,25
1517207280381855,-5,19,-11,-10,3,2,-9,-47
1517207280381855,-27,-19,-7,15,-2,-6,-7,4
1517207280382855,2,18,36,-18,4,5,36,44
1517207280382855,10,-19,-35,0,-4,-7,-11,-22
1517207280404883,-10,-42,-65,-14,-7,-2,15,12
1517207280404883,-4,-18,0,19,-2,-6,-25,-15
1517207280405879,-9,6,-24,-41,-5,4,-3,-11
1517207280405879,-32,17,24,-8,-1,1,0,19
1517207280419380,12,-14,-14,16,6,-1,-2,-2
1517207280419380,3,5,10,0,-5,-8,8,16
1517207280426884,-1,-19,-56,12,3,2,-28,-36
1517207280426884,-24,-31,-66,-32,-4,-2,16,12
1517207280441933,10,30,20,-8,0,1,5,-5
1517207280441933,-19,-6,27,-1,-7,-3,8,0
1517207280442408,13,0,-2,24,-3,-8,-19,1
1517207280442408,19,-39,-41,-7,3,-1,4,17
1517207280472426,-21,14,45,-22,-6,-2,-11,-25
1517207280472426,-12,2,3,4,3,0,-11,3
1517207280473418,-18,6,-19,-15,-1,1,19,10
1517207280473418,0,-6,12,23,2,-5,-9,21
1517207280479443,14,35,17,-4,-2,-2,-11,-50
1517207280479443,0,-42,-49,-11,-9,-7,-5,16
1517207280479922,-10,-15,-1,3,5,2,14,-6
1517207280479922,-10,-38,-7,-9,-3,1,5,-17
1517207280501975,24,25,25,13,4,5,-3,25
1517207280501975,40,18,13,15,5,3,-14,4
1517207280502448,-6,7,-8,-10,-7,-3,8,-9
1517207280502448,-30,-33,-9,2,-1,-3,-11,-20
1517207280532459,17,-9,18,9,-4,-4,-14,19
1517207280532459,-20,-16,-9,-4,-1,-5,10,-35
1517207280533472,-4,-6,73,-16,5,4,-8,34
1517207280533472,60,33,7,18,2,2,-10,-23
1517207280539464,-14,-14,-26,-7,-2,0,1,2
1517207280539464,-27,-3,-8,13,-2,-3,-1,16
1517207280539965,-11,9,-6,6,-3,-1,-17,-16
1517207280539965,17,47,11,-2,-2,-2,6,-12
1517207280561980,-12,-47,-16,-22,0,0,-13,-27
1517207280561980,-3,19,1,1,1,2,26,62
1517207280562492,4,-15,-43,-12,-6,-4,-4,-14
1517207280562492,-10,25,59,16,-1,-2,-15,30
1517207280584998,10,-32,-56,2,-3,-3,-9,-28
1517207280584998,-22,19,-33,-10,-2,1,-5,12
1517207280586000,4,-62,33,-19,-1,-5,-10,-16
1517207280586000,-6,9,18,15,4,0,14,16
1517207280599007,30,-2,75,10,3,3,11,1
1517207280599007,-39,-11,-60,-33,-10,-3,1,-26
1517207280607027,19,30,-8,30,2,0,24,15
1517207280607027,30,6,58,-16,-5,-5,-9,-6
1517207280621532,-8,-14,-25,-2,5,2,11,12
1517207280621532,11,-2,39,1,-2,0,8,16
1517207280622522,3,9,-6,-13,-3,-3,-20,-55
1517207280622522,-20,-11,32,20,3,-2,-2,-8
1517207280645083,-13,10,-49,-16,-4,-2,2,10
1517207280645083,39,30,31,0,2,1,-2,-14
1517207280646081,-19,-13,-25,7,-3,-5,2,21
1517207280646081,-16,-21,-9,-5,-2,-1,-9,-32
1517207280658642,-1,9,21,19,2,0,4,2
1517207280658642,-10,-8,11,2,-2,-2,-17,-11
1517207280666649,3,10,42,-4,0,0,6,12
1517207280666649,-17,-21,-93,-7,-3,-3,-38,-37
1517207280681661,-30,4,25,-9,0,2,22,56
1517207280681661,-4,-6,-1,3,-2,-6,-13,-37
1517207280682662,-9,-16,-21,3,-3,-1,-26,-32
1517207280682662,-8,5,-15,-9,7,4,24,22
1517207280705246,6,-53,-70,1,-5,-4,4,16
1517207280705246,29,13,46,3,4,0,-10,-30
1517207280705734,-6,1,-1,-5,-4,-2,-1,1
1517207280705734,-14,9,-2,8,-5,-7,5,2
1517207280719243,-9,2,-29,-20,-1,4,15,-19
1517207280719243,28,-20,-4,-1,0,-5,-17,20
1517207280726748,9,14,7,3,2,1,5,24
1517207280726748,14,10,-20,-1,-4,-2,-16,-45
1517207280741762,2,25,47,28,8,5,-1,16
1517207280741762,7,-8,-22,-37,-9,-4,20,20
1517207280742775,8,31,84,20,2,0,-8,-8
1517207280742775,-18,-65,-24,-13,-6,0,8,27
1517207280765275,4,21,-5,1,0,-3,-11,-31
1517207280765275,-4,21,-7,14,1,0,3,15
1517207280765777,22,13,-3,-23,7,5,1,11
1517207280765777,-15,11,49,11,-7,-4,12,8
1517207280778810,1,-28,-69,-35,-9,-5,-13,-11
1517207280778810,-16,3,31,19,6,2,9,22
1517207280786803,18,0,-4,31,3,-1,-17,-39
1517207280786803,-1,-29,-7,-32,0,1,16,17
1517207280801825,8,20,43,19,1,-1,0,28
1517207280801825,16,-11,-16,15,2,1,-13,-23
1517207280802822,-30,-20,-53,-30,-13,-9,-9,-11
1517207280802822,17,23,2,-14,-3,-1,-8,-9
1517207280825319,1,-3,9,14,0,-4,-13,-17
1517207280825319,8,15,30,6,2,4,22,19
1517207280825820,16,-7,29,28,3,1,15,15
1517207280825820,-6,-16,-49,-21,0,4,26,15
1517207280838838,-20,11,18,-24,-6,-10,-26,-36
1517207280838838,27,4,-6,21,2,2,-17,48
1517207280846913,-23,-39,-36,-29,-5,-6,-11,-26
1517207280846913,38,22,22,29,-1,0,-7,-7
1517207280861914,11,-1,-32,-43,-10,2,17,17
1517207280861914,-23,6,10,-6,-3,-2,3,-15
1517207280862415,6,-33,-15,11,4,0,0,11
1517207280862415,-23,8,28,-22,-4,1,-3,7
1517207280885454,7,20,35,22,2,0,-7,-13
1517207280885454,0,-40,-11,-14,-2,-4,-8,-1
1517207280886455,16,44,-18,13,0,3,14,27
1517207280886455,-23,17,13,-3,-7,-4,13,-13
1517207280914993,5,-7,37,16,4,-1,2,22
1517207280914993,-9,-16,-38,-16,-5,-7,-33,-64
1517207280915492,-19,8,26,9,2,4,14,13
1517207280915492,4,8,5,-3,1,2,8,21
1517207280921997,4,1,-3,-1,-5,-1,-1,-3
1517207280921997,13,44,86,15,2,1,-12,-15
1517207280922497,-45,-37,-110,-19,-15,-9,-5,-5
1517207280922497,6,-5,-20,-27,2,3,-4,-6
1517207280952521,11,-3,36,24,0,-1,13,-1
1517207280952521,5,0,-25,-11,2,5,23,38
1517207280953519,-28,27,32,-10,-6,-1,6,19
1517207280953519,5,11,24,29,7,-5,-42,-42
1517207280967528,-24,-32,-38,-10,-1,1,0,-8
1517207280967528,13,34,8,-2,2,2,9,25
1517207280968029,23,10,51,25,-4,-4,-9,6
1517207280968029,-6,-16,-88,-39,3,1,-6,11
1517207280981539,-5,16,19,12,4,2,4,16
1517207280981539,-9,-17,-20,5,-4,-2,-6,-14
1517207280982539,10,16,92,14,8,3,13,-23
1517207280982539,23,15,-25,11,-5,-1,-1,10
1517207281005070,9,-14,-22,-8,-2,-4,0,1
1517207281005070,-20,-15,-20,-24,-6,-3,-7,-9
1517207281005556,-7,4,30,14,5,0,14,12
1517207281005556,-20,-11,10,21,5,1,19,0
1517207281027571,8,-40,-84,-17,-8,-1,-4,-3
1517207281027571,-22,-9,12,-6,1,-1,10,-13
1517207281028071,18,19,-5,-3,2,-1,-12,-7
1517207281028071,10,-14,13,-4,-6,-4,-6,-1
1517207281042596,-5,6,66,43,13,4,1,4
1517207281042596,-5,-16,-101,-47,-14,-5,0,7
1517207281043083,9,-6,21,17,9,6,2,-1
1517207281043083,-47,-51,18,-3,-5,-2,-11,-13
1517207281065104,17,42,45,7,6,4,10,-4
1517207281065104,1,-20,4,20,1,-2,-7,15
1517207281066600,14,7,-17,-6,-3,-5,-24,-47
1517207281066600,16,-34,-32,0,-2,3,40,59
1517207281087615,-55,5,8,-3,-2,-9,-65,-69
1517207281087615,-1,9,-2,10,4,1,12,44
1517207281089117,-8,27,29,-7,2,2,-23,-48
1517207281089117,7,16,-14,-10,-5,-6,-16,-5
1517207281101123,4,0,18,3,2,4,20,10
1517207281101123,-7,-10,-61,-6,-2,-2,5,-7
1517207281110139,-10,-28,2,-18,-11,-3,0,15
1517207281110139,9,12,-12,11,1,-2,-1,6
1517207281125182,-22,-15,-14,-12,-3,1,13,7
1517207281125182,6,7,10,-4,-2,-3,-11,-19
1517207281126654,21,-1,1,4,1,-2,33,39
1517207281126654,1,-5,-26,-3,2,4,-23,-29
1517207281147689,-6,1,-32,-14,-6,-5,-6,1
1517207281147689,6,4,17,4,-4,0,6,-12
1517207281149157,-16,2,-34,-7,1,-2,12,34
1517207281149157,-17,9,30,-12,-2,-2,-14,-12
1517207281161166,1,15,-15,10,-1,-1,10,38
1517207281161166,2,-25,27,5,-1,-1,-12,-52
1517207281170184,22,-21,-51,-30,-2,3,19,34
1517207281170184,3,7,23,27,1,0,17,2
1517207281185184,8,23,13,-1,3,0,-5,18
1517207281185184,-29,6,-32,-13,-8,-2,5,-7
1517207281186684,4,4,12,15,6,5,-16,5
1517207281186684,2,0,-23,-14,-4,-8,-11,-11
1517207281207720,18,-9,-19,-14,-8,-1,12,41
1517207281207720,7,6,30,23,5,0,-8,-25
1517207281209216,-19,11,10,-10,-4,-5,-17,-22
1517207281209216,3,3,-9,-11,-4,-1,5,0
1517207281229714,10,-17,0,-4,-4,-2,2,-12
1517207281229714,10,-1,51,16,3,-1,-1,6
1517207281231717,-4,-11,-66,-22,-8,-6,-5,-2
1517207281231717,-16,13,51,19,-3,-4,-1,0
1517207281244238,6,17,27,-21,0,-2,-25,-27
1517207281244238,22,-17,-34,-28,-6,0,4,5
1517207281252730,-13,-3,25,16,2,-2,-1,-3
1517207281252730,-3,-15,23,12,2,-1,8,21
1517207281267741,9,4,-18,-13,-1,-1,1,-30
1517207281267741,-13,38,53,0,-1,1,8,9
1517207281269242,40,-12,-11,2,0,2,0,4
1517207281269242,9,-3,-55,-16,-6,-3,-23,-19
1517207281282254,-5,-47,14,13,-5,-1,16,-2
1517207281282254,-11,-20,11,6,3,-1,-3,2
1517207281288772,-5,0,2,-13,-2,-1,4,2
1517207281288772,-2,13,26,17,2,-1,2,12
1517207281312773,27,3,10,-9,-2,0,-4,3
1517207281312773,-11,-6,-25,-6,-2,-1,1,-3
1517207281314274,-8,-12,-55,1,-3,-8,-16,3
1517207281314274,-9,-6,15,-13,0,3,0,-15
1517207281327359,11,10,15,10,2,-3,-17,-23
1517207281327359,-2,-22,-18,-4,-8,-10,-8,-8
1517207281329363,1,14,24,-3,-2,0,6,8
1517207281329363,-6,-18,-31,-4,-3,-2,-7,-4
1517207281341889,9,30,39,0,0,5,17,18
1517207281341889,5,-6,20,2,3,-1,-28,-17
1517207281348872,-15,21,-42,-3,-5,-1,6,-8
1517207281348872,4,-6,18,-7,0,2,-1,-1
1517207281365385,-7,16,21,26,6,3,23,25
1517207281365385,-9,-20,-28,-22,-5,-1,-4,-38
1517207281366386,15,32,49,-1,0,-3,-3,-12
1517207281366386,25,14,17,10,3,1,-2,-12
1517207281394907,-4,4,-44,-1,-4,-4,15,14
1517207281394907,12,10,69,22,5,2,6,16
1517207281396405,-23,-9,-30,-4,-4,-3,-1,0
1517207281396405,9,17,23,-11,-4,0,13,-4
1517207281400935,-30,0,-60,-10,-2,-2,-9,-1
1517207281400935,13,35,6,5,-1,-1,-9,-7
1517207281409914,-28,-3,17,7,-3,-2,-2,0
1517207281409914,1,-5,-21,6,3,5,3,4
1517207281424928,-23,-13,29,3,-1,-4,-19,-18
1517207281424928,-3,-45,-65,-23,-8,-2,-4,-3
1517207281426426,15,-5,5,7,5,2,3,11
1517207281426426,-11,12,6,3,3,3,11,2
1517207281448028,0,9,19,0,-4,-4,-18,-28
1517207281448028,25,1,-1,-7,-3,1,11,32
1517207281449530,-12,-20,-20,-2,1,-2,-14,-12
1517207281449530,3,-44,-9,-4,-5,-7,-4,5
1517207281470056,4,22,30,14,1,1,8,-2
1517207281470056,-1,16,-22,-14,1,1,5,9
1517207281471557,-4,-40,-40,-2,-1,1,4,7
1517207281471557,-7,29,14,-6,-9,-5,0,3
1517207281485055,6,-30,-45,-7,0,-1,5,6
1517207281485055,-22,9,47,16,1,2,0,-5
1517207281486566,5,-6,-16,-3,-1,0,-9,1
1517207281486566,-8,3,-7,7,-2,-4,1,-2
1517207281507596,2,-25,31,-15,-1,-1,4,8
1517207281507596,-10,-16,-11,23,8,1,5,1
1517207281509081,-3,31,13,-33,-10,-5,-10,-25
1517207281509081,-16,6,44,8,3,1,-1,19
1517207281521081,2,-13,-69,11,2,-1,-9,-12
1517207281521081,-23,19,25,-23,-8,-7,10,40
1517207281530087,10,-2,36,30,11,3,-27,-56
1517207281530087,-5,-4,-48,-23,-9,-5,-6,0
1517207281545117,-7,2,39,25,2,1,15,22
1517207281545117,-12,29,6,-13,-1,-5,-18,-33
1517207281547600,0,-25,-14,-6,-5,1,4,7
1517207281547600,0,31,8,1,-2,-4,-7,-21
1517207281567613,-1,-27,-38,-2,-2,-1,-13,-11
1517207281567613,20,38,11,5,1,0,14,33
1517207281569128,-3,-2,-13,6,1,0,6,3
1517207281569128,-12,-36,18,-39,-6,-2,-11,-17
1517207281581634,7,23,-17,1,-2,-4,1,2
1517207281581634,25,-28,28,9,6,5,-8,-20
1517207281590139,-4,19,-14,-6,-6,-4,-2,3
1517207281590139,10,10,28,35,6,2,-1,7
1517207281605140,-5,7,-21,-20,-10,-6,-1,-13
1517207281605140,-8,-19,11,-3,1,5,-4,4
1517207281606641,4,34,-31,-8,-5,-5,1,7
1517207281606641,5,-16,-42,-11,2,2,22,16
1517207281627656,-2,-10,1,-6,-2,-1,-27,-23
1517207281627656,10,7,33,34,3,-2,-10,-11
1517207281629171,3,1,-17,-15,-4,3,34,-10
1517207281629171,-2,-32,-26,-21,-1,-2,9,32
1517207281641168,11,31,32,13,4,2,-13,-15
1517207281641168,-17,-6,-11,-5,-3,-5,8,5
1517207281650172,-12,0,34,-2,1,0,1,-3
1517207281650172,4,6,-30,-6,-2,-1,0,-4
1517207281672688,4,4,-4,-1,1,-3,-7,7
1517207281672688,15,-6,-8,14,0,2,22,4
1517207281674190,-18,8,22,-7,-7,-4,-17,13
1517207281674190,-3,5,25,7,4,0,-16,-17
1517207281687698,-3,-21,-1,2,1,5,8,9
1517207281687698,-9,-2,-43,-21,-4,-5,9,5
1517207281689210,3,-15,30,19,3,0,-23,-7
1517207281689210,34,13,26,2,0,2,-7,13
1517207281701224,-40,-17,-50,-12,-5,-2,-4,-37
1517207281701224,-4,-24,-40,-1,-1,0,2,15
1517207281710246,3,-17,-17,-10,-2,-3,-4,9
1517207281710246,-12,-3,14,9,-1,-4,-17,-35
1517207281725257,21,56,92,16,6,2,10,15
1517207281725257,-27,-23,-73,-12,-5,-4,6,4
1517207281726758,-2,-13,19,11,-3,-4,-13,-18
1517207281726758,3,8,34,2,1,0,0,9
1517207281747774,-22,-11,-83,-14,-4,-1,12,3
1517207281747774,4,8,41,-9,-1,2,14,15
1517207281749273,14,-26,-11,-5,-3,0,-2,4
1517207281749273,4,5,0,31,1,1,-6,-7
1517207281761282,-14,-40,-31,-49,-4,0,6,3
1517207281761282,-13,30,13,7,-6,-5,-11,-24
1517207281770290,7,2,8,0,0,-2,5,14
1517207281770290,-3,-4,-41,-9,-3,-1,-20,-19
1517207281785311,-11,-35,22,6,-3,-4,23,26
1517207281785311,-2,0,-25,-10,1,-3,-44,-59
1517207281786800,17,21,7,0,2,2,1,19
1517207281786800,-30,16,16,10,-1,1,19,-12
1517207281807330,0,-25,-7,-6,-5,-3,10,7
1517207281807330,7,-13,8,3,1,2,-17,41
1517207281809344,7,29,69,38,13,8,4,-48
1517207281809344,16,-13,-67,-44,-13,-6,2,-2
1517207281821327,16,7,22,0,1,0,-3,8
1517207281821327,2,16,-10,9,-2,-1,7,2
1517207281837837,-2,-33,40,-12,-1,2,14,22
1517207281837837,0,-4,-3,6,-1,-4,-10,-5
1517207281844841,-19,26,30,9,1,-1,-12,-7
1517207281844841,11,-6,0,1,0,0,15,-1
1517207281847344,-16,-1,-12,-8,-4,-1,-6,5
1517207281847344,6,-19,8,-2,-1,-6,-33,-34
1517207281867858,20,22,19,12,0,-1,-6,5
1517207281867858,1,23,0,-1,3,4,-1,-14
1517207281869867,-19,-9,-24,-15,-7,-7,18,3
1517207281869867,17,-13,29,13,4,5,7,18
1517207281889874,-7,11,-2,8,-3,-3,-12,-14
1517207281889874,-5,14,27,4,-3,-5,0,-13
1517207281891886,-2,-31,-107,-16,-1,-1,10,10
1517207281891886,-3,5,14,12,0,-4,-16,-1
1517207281904887,-9,-13,-2,-14,-3,0,-1,-19
1517207281904887,33,46,69,14,5,2,-6,4
1517207281910901,-53,-52,-42,-34,-17,-8,11,35
1517207281910901,-3,21,30,12,8,5,20,-37
1517207281927414,13,-14,-18,-13,-3,-4,3,17
1517207281927414,-12,-3,-10,10,5,-1,-15,-2
1517207281928910,6,25,19,26,2,-3,-8,-13
1517207281928910,-20,-5,-20,8,3,2,14,24
1517207281950416,4,16,52,-28,-9,-7,-11,-3
1517207281950416,4,-34,-91,-15,-1,1,-1,-11
1517207281951420,1,0,24,4,3,0,2,5
1517207281951420,6,-19,-38,5,0,0,13,20
1517207281964464,-22,-19,11,-2,-8,-6,-24,-46
1517207281964464,-16,-10,23,4,-3,-5,-3,2
1517207281971020,7,-4,-37,-13,5,6,-10,11
1517207281971020,-15,8,84,16,-4,-9,-6,-2
1517207281994796,9,-23,-55,-4,5,6,20,9
1517207281994796,15,50,-49,-21,-6,-2,6,11
1517207282001315,-58,-64,30,27,4,-1,-6,-26
1517207282001315,-2,20,-66,-16,-6,-1,7,32
1517207282009845,5,19,-21,-24,-2,-1,-29,-24
1517207282009845,17,-26,52,19,2,-1,12,6
1517207282011808,20,59,47,23,-1,-3,0,-9
1517207282011808,11,-2,13,-35,1,6,20,22
1517207282023817,-11,15,52,24,-1,-2,-19,-11
1517207282023817,3,-19,-50,-31,-5,-3,3,-9
1517207282032826,8,-16,20,9,0,-3,4,3
1517207282032826,-14,-15,14,3,-6,-3,-3,-6
1517207282047836,20,31,-29,-7,2,4,14,11
1517207282047836,-23,4,29,5,0,-3,-8,-12
1517207282049336,30,16,-23,-5,1,0,16,4
1517207282049336,-5,7,-2,3,0,1,-2,-13
1517207282069903,-14,-5,7,19,6,3,11,16
1517207282069903,51,4,8,20,2,4,9,13
1517207282071394,3,-2,5,-31,-11,-6,-15,-4
1517207282071394,-11,-26,-60,-6,2,0,-10,-2
1517207282084404,10,17,6,11,-1,-2,-10,-13
1517207282084404,-50,-29,17,3,0,-2,-5,-11
1517207282091409,7,0,22,-1,-4,-7,-19,-16
1517207282091409,20,-4,-28,7,3,2,9,6
1517207282107442,3,3,19,11,-1,0,2,-2
1517207282107442,-11,-29,-33,-8,-4,0,-7,-1
1517207282108932,0,11,6,-5,1,2,18,1
1517207282108932,-2,1,-46,-8,-2,-3,-5,28
1517207282129940,8,-31,-29,-13,-7,-5,-5,-9
1517207282129940,-1,23,18,11,5,0,-2,-9
1517207282131438,-1,3,-37,-19,-6,0,-10,-4
1517207282131438,10,28,37,-4,-1,0,7,15
1517207282144450,-20,-21,12,12,6,1,2,19
1517207282144450,-2,23,22,-8,-10,-6,-2,-28
1517207282151455,9,-17,-60,-17,0,1,-3,43
1517207282151455,-21,2,-40,0,1,-6,-45,-59
1517207282167462,8,4,17,15,2,0,7,7
1517207282167462,-16,-6,20,-18,-2,-3,2,8
1517207282168963,-24,19,9,12,3,1,16,3
1517207282168963,6,-56,4,3,-3,-3,-2,-38
1517207282188978,21,12,-36,-5,-3,1,-3,21
1517207282188978,-15,3,15,-6,-1,-1,-3,11
1517207282197495,3,24,-18,19,0,1,10,-4
1517207282197495,4,-8,-9,-27,-3,-5,-8,2
1517207282204499,-4,41,18,-2,-1,-4,-1,-12
1517207282204499,-5,-40,-38,7,3,4,6,11
1517207282211045,42,3,22,-2,1,-1,-8,-11
1517207282211045,-16,7,15,12,-2,-2,17,-3
1517207282227560,-10,-17,23,8,1,3,-3,0
1517207282227560,18,4,7,-4,-3,-6,-25,-22
1517207282229074,-20,-28,-74,-10,-1,2,15,-12
1517207282229074,7,29,28,-12,-1,3,-8,-2
1517207282250094,-1,-38,-10,8,1,0,8,3
1517207282250094,-28,-5,12,-3,-2,0,12,18
1517207282251574,38,-2,-11,8,4,2,-9,-16
1517207282251574,12,9,0,-13,-7,-3,3,14
1517207282264083,-18,-2,4,10,1,-2,7,1
1517207282264083,8,17,-33,-17,-4,0,-11,-9
1517207282271087,0,0,52,5,-1,-3,7,14
1517207282271087,-28,12,15,17,3,2,1,10
1517207282287599,17,-17,-4,-22,-4,-6,0,-10
1517207282287599,20,22,16,1,-2,-1,20,42
1517207282289100,-36,3,25,12,2,3,-7,-28
1517207282289100,19,-10,-61,-13,-5,-5,4,0
1517207282310115,-18,6,17,25,6,2,-13,-6
1517207282310115,-34,-20,-69,-30,-9,-2,-1,-11
1517207282311616,12,-3,12,-9,-3,-1,-4,13
1517207282311616,-9,3,32,15,1,-2,25,-1
1517207282324124,11,13,28,7,1,1,-9,22
1517207282324124,2,-16,-58,-12,-3,-2,-7,-15
1517207282338638,1,-2,7,-5,0,-1,-5,2
1517207282338638,-19,-6,22,8,-1,0,-11,-15
1517207282347642,-12,7,-15,-29,-9,-2,1,-18
1517207282347642,12,17,38,9,5,2,1,6
1517207282349143,-15,-12,-12,-8,-5,-5,10,44
1517207282349143,-16,-7,19,9,3,-1,-33,-51
1517207282369669,-2,5,29,3,1,1,15,11
1517207282369669,-19,-51,-58,-5,-5,-6,-38,-25
1517207282371671,3,3,8,0,3,-2,-4,-3
1517207282371671,25,36,19,4,2,5,7,25
1517207282384169,-8,0,-18,8,-4,-7,-7,11
1517207282384169,-4,-44,24,-18,-2,-3,15,-8
1517207282392674,11,7,-30,-6,-4,-3,-13,-25
1517207282392674,22,-10,33,18,6,7,5,23
1517207282407718,-25,-5,-19,1,1,1,0,-25
1517207282407718,0,7,49,17,1,-2,2,4
1517207282409219,4,8,-40,-8,-1,-2,-8,-23
1517207282409219,13,-13,-6,-5,-3,1,24,68
1517207282429729,-8,9,-33,13,0,-1,-17,-43
1517207282429729,10,-14,10,-33,-2,1,-1,-1
1517207282431746,16,11,30,6,-2,0,-1,-2
1517207282431746,-8,9,-11,14,3,2,-2,-1
1517207282443739,9,-3,24,-16,-1,1,7,13
1517207282443739,9,3,-59,6,-4,-6,-3,-3
1517207282452748,-24,19,52,8,2,3,-1,-6
1517207282452748,28,-1,-5,-2,0,0,10,3
1517207282474827,-17,-23,-24,-6,-7,-6,-16,3
1517207282474827,-4,5,-28,-1,1,4,0,-14
1517207282476320,-14,-7,5,6,3,-1,-1,6
1517207282476320,-20,-14,-32,-14,-4,-6,-12,-15
1517207282497835,17,25,50,5,2,3,3,4
1517207282497835,-8,-4,-21,10,1,-4,1,-15
1517207282499336,13,-5,-12,-14,-6,-2,-3,5
1517207282499336,-1,-7,6,7,2,3,14,-2
1517207282503338,19,23,-31,-23,-7,-7,-7,4
1517207282503338,7,24,31,7,3,5,3,4
1517207282512845,20,-14,31,20,1,-5,7,7
1517207282512845,-49,-16,-70,-41,-15,-9,-18,-34
1517207282527371,-1,-16,-5,-1,-1,-4,2,1
1517207282527371,15,6,34,21,3,1,-4,12
1517207282529356,-26,7,-9,0,-1,-1,-1,3
1517207282529356,-11,-12,-12,-29,-7,-6,-5,-4
1517207282549872,14,-4,14,3,1,2,7,2
1517207282549872,-22,-40,-1,7,2,-1,-8,0
1517207282551881,8,7,34,4,0,-1,4,-5
1517207282551881,-6,3,-47,-6,-5,-6,-11,-2
1517207282563882,-5,-21,-12,-2,1,4,8,5
1517207282563882,8,37,51,8,-2,-2,-11,-5
1517207282572389,-17,-33,11,5,0,-1,5,12
1517207282572389,8,-1,32,21,3,0,4,12
1517207282587399,-1,7,-28,-29,-5,-3,-23,-31
1517207282587399,2,5,16,6,-2,-1,5,17
1517207282588907,2,-2,-35,1,1,0,-5,-14
1517207282588907,9,11,14,-1,-2,-2,1,-4
1517207282609917,-1,-8,-6,8,3,3,7,8
1517207282609917,-34,-26,-9,-2,-4,-5,2,2
1517207282611415,2,8,2,1,-2,-3,-10,-7
1517207282611415,11,21,31,7,2,0,-9,-16
1517207282623423,-2,-31,-2,2,-2,1,8,21
1517207282623423,10,12,-19,-11,0,2,-1,-9
1517207282632939,-11,1,-14,-7,-3,-1,2,3
1517207282632939,-9,14,19,7,-1,-3,1,0
1517207282647450,-11,-11,-36,-18,-6,-2,-1,2
1517207282647450,2,-8,14,12,3,1,7,9
1517207282648941,-4,6,-7,-7,-1,-1,-7,-13
1517207282648941,19,-10,-27,-5,-2,0,-2,1
1517207282669956,-7,11,57,13,2,0,2,4
1517207282669956,3,-13,-72,-23,-11,-9,-6,-13
1517207282671467,-1,25,43,16,5,4,4,5
1517207282671467,-14,-34,17,-35,-7,-5,-13,-10
1517207282683465,1,-3,-21,6,0,-3,5,3
1517207282683465,5,7,-36,-4,2,0,0,5
1517207282692484,18,36,40,2,-1,-4,-3,-2
1517207282692484,-11,-30,-52,6,1,3,6,-2
1517207282707486,6,-7,1,3,2,2,11,13
1517207282707486,-5,30,46,14,-1,-5,-16,-21
1517207282708984,23,-10,-57,-23,-5,0,19,19
1517207282708984,8,14,57,9,2,0,-23,-13
1517207282730014,-23,-5,-39,1,-1,-5,-8,-11
1517207282730014,19,19,13,-2,1,2,5,5
1517207282731501,-26,-39,-14,-20,-5,-2,-2,2
1517207282731501,21,-2,11,7,2,3,8,0
1517207282743547,-2,21,14,5,-1,-2,9,12
1517207282743547,8,5,20,6,-1,0,2,10
1517207282752514,-28,-9,2,0,0,0,-13,-12
1517207282752514,7,11,6,-6,-1,1,12,14
1517207282767539,14,-4,23,6,1,-1,-16,-8
1517207282767539,1,-3,10,-3,1,1,3,-6
1517207282769038,6,-5,-4,-5,-4,-3,0,4
1517207282769038,-7,6,10,12,3,0,0,-4
1517207282790043,7,14,-54,-16,-4,0,3,5
1517207282790043,-12,-21,-32,-12,-3,-2,-5,-7
1517207282791554,8,25,34,12,4,1,-9,-5
1517207282791554,-23,-4,-19,-14,-7,-7,-1,5
1517207282812566,10,21,51,10,1,-2,-1,-16
1517207282812566,5,-16,-23,-5,-2,0,3,11
1517207282814058,0,-43,-29,-2,-1,0,-2,-7
1517207282814058,1,-1,7,4,3,-1,-2,0
1517207282827571,3,-4,-8,-3,-2,-2,-1,-2
1517207282827571,4,14,46,16,-1,1,6,8
1517207282829094,-26,0,-28,-25,-5,-2,1,-5
1517207282829094,4,1,12,11,5,2,2,1
1517207282849084,-12,-21,-19,-13,-6,-4,-6,-9
1517207282849084,6,5,30,8,6,2,5,9
1517207282857589,16,5,-16,3,-1,-3,-5,-7
1517207282857589,-3,-4,-8,-6,-1,-1,-2,-1
1517207282872599,-4,8,4,1,1,1,3,4
1517207282872599,-10,-16,-5,4,1,1,-1,-7
1517207282874101,6,26,27,-1,-5,-1,1,17
1517207282874101,-17,-24,-46,-1,-3,-3,-14,-16
1517207282895115,12,5,18,-8,-1,0,-1,-2
1517207282895115,1,21,9,-8,-5,-2,-1,-1
1517207282896643,-10,-23,-22,3,2,-1,-5,-8
1517207282896643,9,14,13,10,0,2,6,12
1517207282909125,-13,-21,-9,-10,-5,-1,3,-4
1517207282909125,8,9,-4,9,3,-3,-5,2
1517207282917632,-6,5,-11,-6,-3,-3,-5,-7
1517207282917632,7,5,9,4,1,1,-3,-3
1517207282932643,-6,-19,-10,1,-1,1,-2,-3
1517207282932643,-6,-1,5,-2,0,0,0,-1
1517207282934144,9,-1,3,13,2,0,-2,-1
1517207282934144,-8,-8,-7,-14,-7,-3,1,-9
1517207282947152,1,7,-5,-1,3,1,0,0
1517207282947152,-3,1,8,4,0,0,0,-3
1517207282953667,-5,1,28,10,-2,-1,-3,3
1517207282953667,-3,8,-19,-13,2,1,1,-1
1517207282969668,1,-7,22,4,-1,2,-1,13
1517207282969668,-5,-6,-4,1,-2,-3,-4,-13
1517207282971669,-4,-20,-57,-8,0,1,2,-6
1517207282971669,-4,14,39,6,-1,-1,3,0
1517207283000190,6,-5,-15,0,-1,-3,-3,1
1517207283000190,-3,-4,0,-5,-1,0,2,3
1517207283001691,2,0,7,3,1,-1,-2,-1
1517207283001691,-2,-7,-10,0,0,-1,2,2
1517207283006697,-5,-1,10,-1,0,-1,-2,-2
1517207283006697,-3,0,-4,-3,-2,0,-3,1
1517207283013699,0,3,2,-1,-1,-1,0,-4
1517207283013699,-2,-7,-2,-3,-3,1,-1,2
1517207283029728,-2,3,-2,3,1,-1,-2,-5
1517207283029728,2,-6,-6,-2,-1,-1,-1,2
1517207283031712,1,-1,-1,-5,-4,-1,-3,-1
1517207283031712,1,-2,5,1,-1,-1,0,-1
1517207283059732,1,-3,-3,11,2,1,-1,-2
1517207283059732,-3,-1,-16,-31,-6,-3,-2,-1
1517207283061733,-1,4,9,4,1,-1,-2,-3
1517207283061733,-1,1,0,-2,-3,1,1,2
1517207283067014,-4,-3,-10,-2,-1,-4,-3,-4
1517207283067014,-1,-1,0,5,1,-2,-2,0
1517207283073518,0,1,2,-4,-2,-1,2,-1
1517207283073518,1,-5,-2,3,1,-2,-2,-2
1517207283090032,-2,-2,-4,-2,-2,-1,-2,-2
1517207283090032,-3,0,1,-3,0,0,2,1
1517207283091545,0,3,7,-1,-2,-2,-1,-2
1517207283091545,0,-3,-13,2,0,-2,-2,-1
1517207283112546,-1,-2,-4,-5,-4,-2,-1,-3
1517207283112546,-2,2,7,9,1,1,1,0
1517207283114046,0,1,-6,-23,-4,-3,-2,-2
1517207283114046,-2,0,3,6,1,-2,1,0
1517207283126556,0,0,-2,2,2,1,1,0
1517207283126556,1,1,-3,8,1,-1,0,0
1517207283133563,-2,-8,-3,-4,-4,-3,1,-2
1517207283133563,-1,-4,0,-6,-2,-1,-2,-1
1517207283149073,-3,-4,-11,1,-1,-3,-2,-1
1517207283149073,-4,-2,-1,-6,-3,-3,-1,-1
1517207283157588,-2,1,2,2,2,-2,0,-1
1517207283157588,-2,-1,-16,-8,-5,-2,-3,-4
1517207283172588,0,-3,-2,-2,0,0,1,0
1517207283172588,-1,-3,-5,9,0,-2,-1,-1
1517207283174102,-1,1,1,-3,-2,0,-1,-1
1517207283174102,0,2,1,-9,-2,0,0,0
1517207283186612,-1,3,-4,-8,-1,-1,-1,0
1517207283186612,-3,-3,2,11,0,0,-2,0
1517207283193604,0,1,-10,-8,-2,-1,0,-1
1517207283193604,-2,-2,11,10,0,-1,-1,-2
1517207283211115,-1,-2,-1,-3,-2,-1,-1,-1
1517207283211115,0,-1,-1,-4,0,-1,-1,1
1517207283213126,-3,-2,-3,3,-1,0,-2,-2
1517207283213126,-1,0,-2,-4,-3,-1,-1,-1
1517207283232630,-3,-1,0,-4,-3,-2,-3,-2
1517207283232630,-1,-3,-3,-4,-1,-2,-2,-1
1517207283234138,-1,-3,1,4,2,1,-1,-2
1517207283234138,-1,-2,-2,-2,-5,-4,-1,-1
1517207283255148,-1,1,-2,-3,-1,0,-1,-2
1517207283255148,-1,-2,-1,4,-4,-2,-1,-2
1517207283256650,-1,1,-3,-8,0,0,0,0
1517207283256650,-3,-2,0,-1,-2,-3,-2,-1
1517207283270156,2,2,3,2,0,0,-1,0
1517207283270156,-3,-2,-2,-3,-3,-1,-3,-2
1517207283271658,1,-1,-1,5,-1,-1,-1,0
1517207283271658,-2,0,0,1,1,2,0,-1
1517207283292674,-2,-2,-1,0,-1,-3,-1,-3
1517207283292674,-2,0,-1,-4,-1,-2,0,-2
1517207283294193,0,-1,0,2,-2,-1,-1,1
1517207283294193,-1,-2,-1,-1,2,1,-2,0
1517207283306182,-3,0,-1,-2,-3,0,-1,-2
1517207283306182,0,-1,-3,-5,0,0,0,-1
1517207283315190,-1,-1,1,3,0,0,-1,-2
1517207283315190,-1,-4,0,0,-1,-2,0,-3
1517207283337713,-1,-1,-2,-2,-1,1,-1,-1
1517207283337713,0,-1,-1,-4,-1,-1,-3,-1
1517207283339219,-2,2,2,3,0,-1,-1,0
1517207283339219,-1,0,-2,1,-2,-2,-2,-1
1517207283360237,-1,-1,-1,0,-1,1,0,-1
1517207283360237,2,0,-3,-2,-3,1,-1,0
1517207283362221,0,-2,0,2,-2,0,-1,0
1517207283362221,-2,-1,-1,-2,0,-1,-2,-2
1517207283366226,-1,-2,1,0,1,-3,-1,-3
1517207283366226,-1,-1,-1,-2,-1,-2,-1,-2
1517207283375233,0,-1,-1,-1,0,-1,-2,-2
1517207283375233,-1,-2,-1,-1,-2,-1,-1,0
1517207283390242,-1,0,1,-3,-2,-1,-2,-2
1517207283390242,-1,-2,1,-2,0,0,0,-1
1517207283391746,-2,0,-2,0,0,-2,-1,-1
1517207283391746,0,0,-1,-2,1,-1,-1,-1
1517207283419775,-2,-1,0,-2,-2,-1,0,0
1517207283419775,-1,-2,0,-2,-1,0,-1,-1
1517207283421764,-3,0,-2,-1,0,-1,-2,0
1517207283421764,-1,-2,0,0,-1,1,0,0
1517207283426267,-1,-1,-2,0,-1,-1,-2,-1
1517207283426267,-2,0,-2,-1,-2,-3,-1,0
1517207283435274,-1,-2,-2,-1,-2,-2,-2,-1
1517207283435274,-1,-2,-1,-1,-2,-2,-1,-2
1517207283449785,-1,0,-1,1,-1,-1,0,-1
1517207283449785,0,-1,-2,-2,-2,0,1,-1
1517207283451798,-2,-2,1,-1,-1,-2,-1,-2
1517207283451798,-1,0,0,-2,-2,0,-1,-1
1517207283472800,0,-2,-1,-2,0,0,-1,0
1517207283472800,-2,-1,-2,-1,0,0,-2,-2
1517207283474303,0,-2,-1,1,-2,-3,0,1
1517207283474303,-1,-1,0,-1,-1,-1,0,0
1517207283485822,1,-1,-1,0,0,0,0,0
1517207283485822,-1,-1,-2,-1,0,-1,-1,-1
1517207283495331,-2,-1,-3,0,-2,-1,-2,-2
1517207283495331,0,1,0,-3,0,0,0,-2
1517207283509841,0,1,-1,-2,0,-2,-1,-2
1517207283509841,-1,0,0,-2,-1,-2,-2,-1
1517207283511328,0,-2,-2,-1,0,0,2,-2
1517207283511328,-1,-1,-1,0,-3,-1,-2,1
1517207283532343,-3,-1,1,0,0,0,0,0
1517207283532343,1,0,-2,-2,0,-1,0,-1
1517207283533847,-2,-1,-1,-1,-1,-1,-3,-1
1517207283533847,0,1,-2,-2,0,-2,0,-1
1517207283546352,-1,-2,-3,-1,-2,-3,-2,0
1517207283546352,-1,-1,0,0,-1,0,0,-1
1517207283554859,0,-1,-1,-1,-2,0,0,-1
1517207283554859,1,0,-1,-1,-1,-1,0,0
1517207283568868,-2,-2,-3,-2,-3,0,-2,-2
1517207283568868,-1,-1,0,-1,-1,0,-2,-1
1517207283583884,0,-1,0,-1,-1,-2,-1,-2
1517207283583884,-2,0,-1,0,0,-1,-1,0
1517207283592385,-1,0,0,-2,-1,-1,-2,-1
1517207283592385,0,-3,-1,-1,-1,-2,0,-1
1517207283593886,-1,-1,-2,0,-1,-1,-1,-1
1517207283593886,0,-1,0,-1,-1,-2,0,-2
1517207283606152,-2,0,-3,0,0,-2,-1,0
1517207283606152,-2,1,-3,0,-1,-1,-1,0
1517207283615161,-1,-1,0,-2,0,-1,0,-2
1517207283615161,0,-3,-2,-1,-2,-2,-1,-1
1517207283629749,-1,-2,0,-1,-1,-1,-1,0
1517207283629749,-2,1,1,0,-1,-3,0,-1
1517207283631739,-1,0,0,0,-3,-2,0,-3
1517207283631739,-2,-2,1,0,-2,0,-2,-2
1517207283652742,0,-2,-1,-1,-2,-2,0,0
1517207283652742,-2,-2,-2,-2,0,-1,0,0
1517207283654243,-1,0,-2,-3,-1,-2,-1,-1
1517207283654243,0,-1,-3,-1,0,0,0,0
1517207283666251,-2,-1,-2,-1,-1,-1,-1,0
1517207283666251,0,-1,-1,-1,-1,-1,-1,-2
1517207283675282,0,0,0,-2,-2,-1,-3,-1
1517207283675282,-2,-1,-1,-1,-1,-1,-1,-1
1517207283690269,-1,0,0,-2,-1,0,-1,-1
1517207283690269,-2,-2,-2,-2,0,-1,0,-1
1517207283691270,-2,0,-1,-1,0,0,-1,-1
1517207283691270,-2,-1,-1,-1,-1,0,-1,-2
1517207283712284,0,-2,-1,2,-1,-1,-1,-1
1517207283712284,-1,-1,0,-1,-1,0,-1,-2
1517207283713786,0,-1,-2,0,-1,-2,-1,0
1517207283713786,-2,-2,-2,-1,-1,0,-1,-2
1517207283734800,-1,-1,-1,-2,-1,-1,0,-1
1517207283734800,-2,-1,-1,-2,-3,-1,-3,-1
1517207283736303,-1,-1,-2,-2,0,0,-1,0
1517207283736303,0,-1,0,-1,-1,-2,0,0
1517207283749811,-2,1,-1,-2,-2,-1,-2,-1
1517207283749811,0,-3,-2,-2,-1,-1,0,0
1517207283751813,-2,0,0,-1,-1,-1,-2,-1
1517207283751813,1,-2,-1,0,-1,-1,0,-1
1517207283772327,0,-1,-2,-3,-1,-1,-1,-1
1517207283772327,-2,-1,1,-1,-1,0,-2,0
1517207283773829,-2,-1,-1,0,-1,-1,0,1
1517207283773829,-1,-1,-2,-2,0,-2,-2,-2
1517207283794842,-3,-2,-2,0,-2,-2,-1,-1
1517207283794842,0,-1,-2,-1,0,-3,0,0
1517207283796844,-1,-2,-1,0,-1,-1,-1,-2
1517207283796844,-1,0,-2,-2,-2,-1,-2,0
1517207283809853,-1,-1,-1,-1,-1,-1,1,-1
1517207283809853,0,-1,-1,1,-1,-2,-2,-1
1517207283811354,-2,-1,1,-1,-1,0,-1,0
1517207283811354,-2,-2,0,-1,-2,-1,-1,-1
1517207283832871,0,-2,0,-2,-1,0,-3,0
1517207283832871,-2,-2,-1,-1,-1,-1,-1,0
1517207283833880,-2,-3,-3,-1,-2,-1,-1,-3
1517207283833880,-2,-1,-1,0,-1,0,-1,-1
1517207283862391,-1,-1,-1,0,-2,1,0,-2
1517207283862391,-2,0,-2,0,-2,-1,1,-1
1517207283863891,-1,-2,0,0,-1,1,1,-2
1517207283863891,-2,1,-2,-1,0,-1,-2,-1
1517207283869905,-1,-2,-2,-1,-1,-2,-3,-1
1517207283869905,1,-1,-1,-3,-1,0,-1,2
1517207283871407,-1,0,-1,-2,-1,-3,-1,-2
1517207283871407,-2,-2,0,-2,-2,0,-2,-1
1517207283892415,0,-1,1,0,0,-1,-2,-1
1517207283892415,1,1,-2,0,-1,-2,-1,0
1517207283893913,1,-1,-2,0,-1,-3,0,1
1517207283893913,-1,-2,-1,-2,-2,-1,0,-3
1517207283915428,-2,0,-1,0,-2,-1,0,-2
1517207283915428,-2,-2,1,-1,-2,0,-1,-1
1517207283916929,-1,-2,1,-2,-1,-1,0,-1
1517207283916929,-1,-1,-1,0,-1,-3,-2,0
1517207283929953,0,-1,-2,-1,-1,0,-1,1
1517207283929953,-1,0,-1,-1,-2,-2,0,-1
1517207283935943,0,0,-1,-1,-1,-1,-1,-1
1517207283935943,1,-1,-2,-1,-2,-2,1,0
1517207283952458,-1,-2,-1,0,-2,-1,0,-2
1517207283952458,0,-1,0,-1,-2,0,-3,-2
1517207283953956,-2,0,-2,-1,-1,0,-2,-1
1517207283953956,0,-1,-1,-1,0,0,-1,-1
1517207283974983,-1,1,-2,0,-2,-2,-2,0
1517207283974983,-1,0,-2,-2,-2,-1,0,0
1517207283976471,0,-2,-1,-2,-1,0,-2,0
1517207283976471,-2,-1,-1,-1,-2,-1,-1,-2
1517207283989481,-1,-1,0,-2,-1,-2,-2,-1
1517207283989481,1,-1,2,0,0,0,0,0
1517207283995988,0,0,-2,0,-2,-1,0,-1
1517207283995988,-2,1,0,-2,1,-1,-1,1
1517207284012538,0,0,-1,0,0,-1,0,0
1517207284012538,-1,-2,-1,-2,-1,-1,-1,-1
1517207284014039,-1,-1,-1,-2,-1,0,0,-1
1517207284014039,-1,-4,-1,-1,-3,-3,-2,-2
1517207284035067,-2,-1,-1,-1,-1,-1,0,-3
1517207284035067,-3,-1,-1,0,1,-1,-2,-2
1517207284036558,-2,-2,0,-1,0,-1,-1,0
1517207284036558,-1,0,-2,-2,0,-2,0,0
1517207284057573,0,-2,-1,-2,-3,0,-1,0
1517207284057573,-1,-1,-3,-1,-2,0,-1,-1
1517207284059071,-1,0,-1,-1,-1,0,-3,1
1517207284059071,-1,0,0,0,-1,1,-1,1
1517207284072580,-1,-3,-3,-2,-2,-2,0,0
1517207284072580,-1,-2,-1,-1,-2,-3,0,-2
1517207284074082,-1,-1,-2,0,0,-1,-1,-2
1517207284074082,1,-1,0,-1,-1,0,-1,-1
1517207284095106,-1,1,1,-1,0,-1,0,1
1517207284095106,-2,0,-2,0,-1,-1,0,-1
1517207284096598,-3,-1,-1,-3,-1,0,-1,-2
1517207284096598,-2,-2,-1,-1,-1,-2,1,-3
1517207284109109,-2,-3,-2,0,0,-2,-1,-1
1517207284109109,-1,-3,-1,-1,-2,-2,-3,0
1517207284116112,-1,-1,0,0,-1,-3,-1,-1
1517207284116112,1,-1,-1,0,-1,1,-1,-2
1517207284132624,-1,-1,-1,-2,-1,-2,-1,-3
1517207284132624,-2,-1,-1,-1,1,-1,-1,1
1517207284134123,-1,-3,-2,-2,0,-2,-1,0
1517207284134123,1,-1,0,0,-1,-2,-2,1
1517207284155138,1,0,-1,1,-2,0,0,0
1517207284155138,-1,-1,0,-1,-1,1,-2,-1
1517207284156654,0,0,0,-1,-2,0,0,-1
1517207284156654,-1,-1,-1,-2,0,-2,0,0
1517207284169162,-1,-1,-1,-2,-2,-1,-2,-1
1517207284169162,0,-1,-3,-2,-1,-2,-2,-2
1517207284176153,-1,-2,0,1,-2,-2,-1,-2
1517207284176153,0,-1,-1,-1,-2,-1,-1,-1
1517207284192165,-1,-2,0,0,-1,-1,-1,-1
1517207284192165,-1,1,-1,0,-1,0,-1,-1
1517207284194170,-1,-2,-1,-1,-1,-1,-1,0
1517207284194170,-2,0,0,0,0,-1,-1,-1
1517207284215182,-2,-1,-1,-2,-1,-1,-1,-1
1517207284215182,0,-2,0,0,0,-1,-2,0
1517207284216682,0,0,-1,-1,-1,-1,0,-2
1517207284216682,0,-2,-1,-3,-1,-1,-1,-1
1517207284228711,0,-2,-2,0,-1,-2,0,-2
1517207284228711,-2,-1,-1,-1,-1,-1,-1,-2
1517207284237733,0,0,0,-2,-1,-1,-1,0
1517207284237733,-2,-3,-1,-2,-2,-2,-2,-2
1517207284252752,-1,0,0,-1,0,-2,0,0
1517207284252752,1,-2,-2,-1,-2,-2,-1,0
1517207284254244,-1,-2,-3,0,-1,-1,-1,-1
1517207284254244,-1,0,-1,-1,-1,0,-2,-1
1517207284274771,-2,-1,-2,0,0,0,-2,-2
1517207284274771,0,-2,0,-1,0,0,0,0
1517207284276761,0,-1,-1,-1,0,0,1,-2
1517207284276761,-1,-1,-2,-1,-1,0,0,-1
1517207284288768,-1,-2,0,-1,-1,0,-1,1
1517207284288768,-1,-1,-1,-3,0,-2,-1,0
1517207284305281,-2,-1,0,0,0,-1,-2,0
1517207284305281,0,-1,0,-2,-1,-2,-1,-3
1517207284312284,-2,-2,0,-2,0,-1,-2,-1
1517207284312284,-1,1,-3,-1,-2,-1,0,-3
1517207284313789,1,-1,-1,-2,-2,0,-1,0
1517207284313789,-2,0,-1,0,0,-1,-1,0
1517207284334801,-2,-2,-2,-2,-1,0,-1,-1
1517207284334801,-1,0,0,-2,-1,0,-1,-1
1517207284336302,-2,0,-2,-1,-3,-3,-1,-2
1517207284336302,-3,0,-1,-1,-2,1,-2,0
1517207284348311,-1,-2,-2,0,1,-1,0,-1
1517207284348311,0,-1,0,-3,-2,-1,0,0
1517207284363321,-1,-3,-3,-1,-2,0,-1,0
1517207284363321,-1,-2,0,1,0,-2,0,-1
1517207284372326,0,0,0,-1,0,-1,-1,-1
1517207284372326,-1,-1,-2,-2,0,-1,0,-1
1517207284374330,-2,0,1,-1,0,0,-1,0
1517207284374330,-1,0,-3,-2,-3,-4,-3,0
1517207284394857,0,2,-4,0,-3,-2,-2,0
1517207284394857,-2,-1,0,-2,0,-1,-2,-2
1517207284396344,0,-2,-1,-1,-1,-2,-2,-2
1517207284396344,0,-2,0,-1,-1,-1,0,-1
1517207284408355,-1,-1,1,0,-1,-1,-2,-1
1517207284408355,-1,-2,-2,1,-2,-1,-3,-1
1517207284417358,-1,-1,-1,-1,-1,-1,-2,-1
1517207284417358,0,-2,-1,-2,1,0,0,-1
1517207284432370,-1,-1,-1,-2,-2,-2,-2,-1
1517207284432370,-3,-3,-2,-1,-2,-2,0,-2
1517207284433886,0,0,-1,-2,-2,0,-1,-1
1517207284433886,-1,-2,1,-2,-1,-1,0,-2
1517207284454886,1,0,0,-2,-1,-1,-1,-3
1517207284454886,1,-2,0,0,0,-1,0,-2
1517207284456387,0,-1,-1,0,-1,-2,0,-1
1517207284456387,-2,0,0,-2,0,-2,-2,-1
1517207284468395,-1,-3,-2,0,-2,-1,-1,-1
1517207284468395,-1,0,-1,-2,-1,-1,-2,-1
1517207284477401,-2,-1,0,-1,-1,-2,0,-2
1517207284477401,0,-1,-2,-2,-3,-1,0,0
1517207284492423,-1,-2,-2,-2,0,0,-2,-1
1517207284492423,-2,-1,-2,-1,0,-2,-1,-1
1517207284493913,-2,-1,-1,-1,1,0,0,0
1517207284493913,-1,0,-2,0,-2,-1,-2,-1
1517207284514929,-2,-1,-1,-2,-1,-1,-1,-1
1517207284514929,-2,-1,-1,-1,-2,-1,0,-1
1517207284516430,-1,1,-2,-1,-1,-3,-2,1
1517207284516430,-3,-2,-2,0,-1,1,0,-1
1517207284528452,0,-1,0,-2,-1,0,0,-1
1517207284528452,-1,-1,0,-2,0,-1,0,-2
1517207284537444,-2,-2,-1,-1,-1,-1,-1,0
1517207284537444,0,-4,-2,-2,-1,-1,-1,-2
1517207284559973,-1,0,-1,-2,-3,-2,-1,0
1517207284559973,-1,0,0,0,0,0,-1,-2
1517207284561471,0,-2,0,-1,-2,-1,-3,-2
1517207284561471,-2,-1,-1,0,-1,-1,-1,0
1517207284582476,-1,-2,-1,-2,-1,-1,0,-2
1517207284582476,1,-1,-2,0,-2,-2,0,-2
1517207284583976,-1,-2,-3,-2,-2,0,-2,0
1517207284583976,1,0,-1,0,-1,-1,-1,-2
1517207284588489,-1,1,-1,0,-2,-3,0,0
1517207284588489,0,0,-2,-1,0,-1,-2,-1
1517207284597486,-2,-2,-2,-3,-3,-2,-2,-1
1517207284597486,-1,0,-1,-1,-2,-1,0,0
1517207284612496,0,-1,-2,-1,-1,0,0,-1
1517207284612496,0,-1,-2,0,-3,1,-3,0
1517207284613998,-2,-2,-1,-1,0,0,-2,-1
1517207284613998,-3,1,0,-1,-1,-2,-1,-1
1517207284636014,-3,-1,-2,-1,0,-1,-2,-2
1517207284636014,-4,-1,0,-2,-1,-1,1,-1
1517207284641040,-2,0,-1,-2,-2,-2,-1,0
1517207284641040,1,0,-1,-1,-1,0,-1,0
1517207284648525,-1,0,-3,-2,-2,-1,1,-1
1517207284648525,-1,-1,-2,-2,0,-3,-2,-1
1517207284657529,-1,-1,0,0,1,-1,1,0
1517207284657529,-1,0,-2,-1,0,0,0,-1
1517207284672539,-2,-1,-1,-2,-2,-2,-3,-2
1517207284672539,-1,-2,-1,-2,0,-1,-1,-1
1517207284674040,0,1,0,0,-1,-2,0,-2
1517207284674040,-1,-1,-1,0,-1,-1,-1,-1
1517207284695085,0,0,0,1,-1,-1,-1,-1
1517207284695085,0,-1,-1,-2,-1,-2,0,-1
1517207284696573,-2,-2,-1,-2,-2,0,-2,-2
1517207284696573,-2,-2,0,0,-1,-3,0,1
1517207284717070,-3,-1,-1,0,-1,1,-2,0
1517207284717070,-1,0,-2,-1,0,-1,0,1
1517207284723592,-1,-1,0,-1,-2,-1,-2,-2
1517207284723592,-2,1,-1,-3,-1,-1,-2,-1
1517207284732582,-1,-2,-1,-2,-1,-1,0,0
1517207284732582,-2,0,1,-1,-2,0,-1,-1
1517207284734083,0,-1,-1,0,-1,-1,-1,-1
1517207284734083,-1,-2,-2,-1,-1,0,0,-1
1517207284755097,0,-3,-2,0,0,-1,-1,-1
1517207284755097,-1,-1,-1,-2,-1,-2,-2,0
1517207284756599,-2,-1,-1,-2,-2,0,-1,-2
1517207284756599,-2,-2,-1,0,-2,-2,-2,-2
1517207284777613,-1,0,-3,-1,-1,0,2,-1
1517207284777613,0,-3,-1,0,-2,-2,0,0
1517207284779124,-1,-1,0,-1,-2,-2,0,-1
1517207284779124,-1,-2,-2,-1,0,-2,-2,-1
1517207284791124,-1,0,-2,-1,-1,0,-1,1
1517207284791124,-1,0,-2,-2,0,0,0,0
1517207284800129,0,-1,-1,-1,0,-1,0,0
1517207284800129,-1,-1,-1,-2,1,0,-3,0
1517207284814639,-1,-1,0,-1,-2,-2,-3,-1
1517207284814639,-1,-1,-1,-1,-1,0,-2,-2
1517207284821144,0,0,-2,0,-1,-1,0,-2
1517207284821144,1,-2,-1,-2,0,-1,0,-1
1517207284837656,0,-1,0,0,1,-1,-1,-1
1517207284837656,-2,-1,-1,1,-2,0,-2,-1
1517207284839170,-1,-1,-2,0,-2,-1,-1,-1
1517207284839170,-1,0,-1,-1,-2,-2,-1,-1
1517207284851666,0,-2,0,-1,-1,0,-2,-2
1517207284851666,-1,-2,-1,-1,-1,-2,-1,0
1517207284858674,0,-1,-1,-2,-1,-1,-1,-1
1517207284858674,-2,-2,-1,-1,-2,-1,-1,-2
1517207284874703,-2,-1,-1,0,-1,0,1,-1
1517207284874703,0,-1,-1,-2,-1,-1,-1,-3
1517207284876704,-2,1,-2,-2,0,-2,-1,0
1517207284876704,0,-2,0,-2,-2,-1,-2,-1
1517207284897223,0,-1,0,0,1,-2,-2,-1
1517207284897223,0,-2,0,0,-1,-1,-1,-1
1517207284899221,-2,-1,0,1,-1,-1,-2,-1
1517207284899221,-1,-1,-1,-1,-1,-1,0,-1
1517207284911730,-2,0,-1,0,-3,0,-1,-1
1517207284911730,0,-1,-1,-1,0,-1,0,-1
1517207284918735,-1,-2,-1,-1,-1,-2,-2,-2
1517207284918735,-2,0,0,-1,-1,0,-1,1
1517207284934246,0,-1,-1,-2,-1,-2,0,-2
1517207284934246,-1,-2,-1,-1,-2,-1,0,0
1517207284942768,-1,-2,-1,-1,0,-2,-2,-1
1517207284942768,-2,-1,-2,-2,-1,0,-1,-3
1517207284957265,0,-2,-2,-2,0,-1,0,1
1517207284957265,-2,-1,-2,-1,-2,-2,-1,0
1517207284958763,-2,0,-1,-1,-2,-1,-1,-1
1517207284958763,-1,-2,-1,0,-2,-1,-1,0
1517207284971785,-2,-1,-1,-1,-3,-5,-2,-1
1517207284971785,-1,0,-1,-1,0,0,-2,0
1517207284978777,1,-1,-2,-1,-1,0,-1,-1
1517207284978777,-2,-1,-1,0,-1,-2,-1,-1
1517207284994788,0,-1,-1,0,0,-1,-1,-1
1517207284994788,-1,-2,-2,0,-1,0,-1,-1
1517207284996290,0,-1,-1,-1,-1,0,0,0
1517207284996290,-1,1,0,0,-1,0,0,-1
1517207285017304,-2,-3,-2,0,1,-2,0,-3
1517207285017304,-3,-1,-1,-1,-1,-1,0,-1
1517207285018805,-2,-2,-1,-1,-3,-1,-3,0
1517207285018805,-1,-2,-2,-1,-1,-1,-1,0
1517207285031825,-1,-2,-1,-3,-1,-1,-1,0
1517207285031825,-1,-1,-2,-1,1,-1,0,-2
1517207285038819,-1,-1,-2,0,-3,0,0,0
1517207285038819,0,-2,-2,1,-1,-1,1,-1
1517207285054831,-2,-2,-1,-1,-1,-1,-2,0
1517207285054831,-1,-2,0,-1,-1,-1,-2,-1
1517207285056333,1,-2,-2,-2,0,-3,-2,0
1517207285056333,-1,-2,0,-3,-1,1,-1,-1
1517207285077359,0,-1,-2,-2,0,2,-2,0
1517207285077359,-1,-1,-2,-1,-2,-3,-1,-1
1517207285078861,-1,0,-1,-2,-1,0,1,1
1517207285078861,-2,0,-1,-1,-2,-1,-3,0
1517207285091857,0,0,-1,1,-1,-1,-2,-1
1517207285091857,-1,-2,1,-1,-1,-1,0,0
1517207285105923,0,0,-1,-1,0,-1,-1,-2
1517207285105923,0,-1,-2,-2,-1,-1,0,0
1517207285114929,-1,-1,-1,0,-2,1,1,-1
1517207285114929,-1,0,-2,-1,-2,0,-2,0
1517207285116432,-1,-3,-1,-1,-2,-1,-1,-1
1517207285116432,-1,0,-2,-1,-1,-1,-2,-1
1517207285137946,-1,-1,-2,-1,-2,-1,0,-2
1517207285137946,-1,-3,-1,-1,-1,-1,1,-1
1517207285139447,-1,0,0,-1,-1,-1,-1,0
1517207285139447,-1,-2,0,-1,-2,-1,-2,1
1517207285151956,-2,0,0,-3,-2,-2,-1,-1
1517207285151956,1,-2,0,-2,-1,1,-2,-1
1517207285158463,-2,-1,-1,-1,0,-1,-1,-3
1517207285158463,1,-2,-2,-1,0,-2,-2,-1
1517207285174973,0,0,0,-2,-1,-1,-1,1
1517207285174973,-1,-1,0,-1,-2,-1,-2,1
1517207285176473,-2,-1,-2,0,-1,1,-1,0
1517207285176473,-2,-1,-2,0,-1,1,-1,-1
1517207285197508,-4,-1,-2,-1,-1,-2,-2,-1
1517207285197508,-2,1,-1,-2,-1,-3,-1,-1
1517207285198989,-1,0,0,-2,1,-1,0,-1
1517207285198989,-1,0,-1,0,-1,-1,0,0
1517207285210997,1,-3,-1,-1,-2,0,-1,-1
1517207285210997,-1,-2,-1,-1,-1,-1,-1,0
1517207285220016,-1,-2,-2,0,-1,-1,-1,-1
1517207285220016,-1,-1,-1,-1,-2,0,0,-2
1517207285235017,-2,0,-1,-2,-1,-1,0,-1
1517207285235017,0,-1,-1,-2,0,-2,-1,-2
1517207285236516,-1,-1,0,-1,-2,-1,-1,1
1517207285236516,-1,-2,0,1,-1,-1,-1,-1
1517207285257534,-2,-1,-2,-1,-3,0,-2,0
1517207285257534,-1,-1,-1,0,-1,0,-3,-1
1517207285259046,-2,-1,-2,-1,-3,-2,-2,0
1517207285259046,0,-1,0,-1,-1,0,-3,-1
1517207285271540,-1,0,-1,-1,0,0,1,-1
1517207285271540,0,-1,-1,0,-1,-1,1,-1
1517207285280056,-1,-2,0,-1,0,-3,1,-2
1517207285280056,-1,-1,0,-2,0,-2,0,0
1517207285295060,-1,-1,-1,0,-2,-2,-2,-1
1517207285295060,-1,-1,-2,-1,-1,0,-1,-1
1517207285296558,0,-1,0,-1,-1,-2,-1,-2
1517207285296558,-1,-2,-2,-1,-1,-3,-1,-2
1517207285317572,-2,-2,-1,1,0,0,-2,-2
1517207285317572,-1,-1,-2,-1,-1,-2,0,0
1517207285319074,0,0,0,0,0,0,-1,-1
1517207285319074,-1,-1,-1,-2,-1,-1,-2,1
1517207285331082,0,-1,-2,-2,0,-1,-1,-2
1517207285331082,-2,-2,-1,-2,-2,-2,-2,0
1517207285340113,-2,0,-1,0,-2,-1,-1,-2
1517207285340113,0,1,0,-1,0,-2,0,-2
1517207285355099,0,0,0,0,0,-1,-1,-1
1517207285355099,-1,0,-1,-1,-1,-1,0,-1
1517207285356600,-1,-2,-1,-1,-2,0,-1,-2
1517207285356600,-2,-1,-1,-1,-1,-1,0,-1
1517207285385129,-2,0,-1,-1,-1,-4,-1,0
1517207285385129,0,0,-2,0,-1,-1,-1,-2
1517207285386622,-4,-1,-2,-1,-1,-1,0,-2
1517207285386622,-1,-1,-1,1,-1,-2,0,0
1517207285391137,0,-2,-2,0,0,-2,-1,1
1517207285391137,-1,-2,-1,-2,0,1,-1,-1
1517207285400132,-1,0,-1,0,-1,0,-1,-1
1517207285400132,0,0,-2,0,-2,-2,0,-1
1517207285415642,-2,-1,-2,-3,-1,-1,-2,-1
1517207285415642,0,0,0,0,-3,-1,0,0
1517207285417156,-3,-2,-1,-1,0,-1,-2,1
1517207285417156,-1,-1,-2,-2,-1,-1,-2,-1
1517207285437657,0,-1,-1,-1,-1,-1,0,0
1517207285437657,0,-1,-1,-1,-2,0,-1,-1
1517207285439170,0,-3,-1,-2,0,-1,-2,-1
1517207285439170,-1,-1,-2,-2,-1,-1,-1,-1
1517207285459225,-2,-2,-3,0,-2,-1,-1,-1
1517207285459225,-2,-1,-2,0,0,-1,0,-1
1517207285460216,-1,1,-1,0,-2,-2,0,-3
1517207285460216,-1,-2,-1,-2,-1,1,-1,0
1517207285474225,1,-1,1,-1,-1,-1,-1,-2
1517207285474225,-1,-1,0,-1,0,0,1,-1
1517207285475226,1,-1,-1,-3,-2,0,0,1
1517207285475226,-3,0,0,-2,-1,-1,0,0
1517207285497243,-1,0,0,-1,-2,-1,-1,0
1517207285497243,-1,-2,-2,1,1,-2,-1,-2
1517207285497743,-1,0,-1,-1,-1,0,0,-1
1517207285497743,-1,-2,-3,-2,-2,0,-3,-2
1517207285519258,-2,0,-2,1,-1,-2,1,1
1517207285519258,-2,0,0,-2,-2,0,-4,1
1517207285519758,1,-1,-2,-1,-1,0,-1,-1
1517207285519758,-1,0,-1,-1,-1,-1,-1,-1
1517207285534286,-2,-2,0,-1,-2,-1,0,-3
1517207285534286,-1,0,-1,0,-1,0,-1,0
1517207285534769,0,-1,-2,1,-1,-2,-1,-1
1517207285534769,-2,0,-2,-1,-1,0,-1,-2
1517207285556785,1,-2,-1,-3,-2,0,-1,-1
1517207285556785,-1,0,0,-1,-1,-1,-2,1
1517207285557285,-2,-1,0,-1,-1,-1,-1,0
1517207285557285,0,0,-1,0,-1,0,-2,-1
1517207285579313,-1,-1,0,-1,-2,-1,-2,0
1517207285579313,-2,-1,-2,-2,-2,-1,0,-2
1517207285579802,-2,0,-1,-1,-1,-1,-2,0
1517207285579802,-2,-2,-3,-1,-1,-1,-1,-2
1517207285594824,0,0,-2,-2,-2,0,-1,-2
1517207285594824,-2,-2,-1,-2,-1,2,-2,-2
1517207285595812,1,0,-2,-1,-1,-1,0,0
1517207285595812,-1,-1,0,-2,-1,0,-1,-1
1517207285616827,0,0,-1,-1,-1,-2,-2,0
1517207285616827,-2,-3,-2,-2,0,-2,-1,-3
1517207285617343,-2,-2,0,-1,-1,0,-1,-2
1517207285617343,-2,-2,-2,-1,-1,-1,-1,0
1517207285639343,-1,-2,0,0,1,-2,0,-2
1517207285639343,0,-2,-1,-1,-2,0,0,-2
1517207285639843,-2,-2,0,-2,0,-1,-1,-1
1517207285639843,-1,0,0,-1,-1,-2,-1,0
1517207285654353,-2,0,-1,0,-2,-1,-1,0
1517207285654353,1,-1,-1,-2,-1,-2,0,0
1517207285654863,-2,0,-2,-2,0,-1,0,-1
1517207285654863,0,-2,-1,-2,-2,-1,-1,-1
1517207285676869,0,-3,-2,-2,-3,-1,-1,-1
1517207285676869,-2,-2,-1,0,-1,0,0,-1
1517207285677371,0,0,-1,-1,-2,-1,-3,-1
1517207285677371,-2,2,0,-1,0,-2,-1,-1
1517207285699387,-1,-2,-1,-1,-1,0,-1,0
1517207285699387,-2,-2,-1,0,-1,-2,-1,-1
1517207285700387,-1,-1,-2,0,-1,-1,-2,-2
1517207285700387,1,0,-1,1,-1,-1,-1,-1
1517207285713896,-1,-1,0,-1,0,-1,-1,-3
1517207285713896,-1,-1,-2,-1,0,0,-1,-1
1517207285714896,-3,-3,1,-2,-1,-2,-2,0
1517207285714896,0,0,-1,-1,-1,-1,-2,0
1517207285736911,-1,-2,-1,-1,-1,-1,0,-2
1517207285736911,-1,0,-1,-1,-3,-1,-1,0
1517207285737413,2,0,-2,0,0,-1,0,0
1517207285737413,-2,-1,-1,1,1,-2,-2,-1
1517207285759013,-1,-1,-1,-2,-1,-2,-1,-2
1517207285759013,-1,-1,-1,0,1,-1,-1,-2
1517207285760014,-1,-1,1,-1,-2,0,-1,0
1517207285760014,-3,-4,-1,-3,-1,-2,-2,0
1517207285774036,0,-1,-1,0,1,0,-1,-1
1517207285774036,-2,-1,-1,-2,0,-3,-2,0
1517207285775025,0,-1,-3,-2,-1,0,-1,0
1517207285775025,-2,-1,0,0,-2,-3,0,-2
1517207285796561,0,-1,-1,0,-1,-1,-2,0
1517207285796561,-1,0,0,0,0,-2,-1,-1
1517207285797561,0,-1,-1,-2,0,0,-1,-1
1517207285797561,0,0,-2,-1,-2,-2,0,0
1517207285819056,-1,-1,-2,-1,0,-1,-1,-1
1517207285819056,-1,-2,-1,-1,0,-3,-2,-1
1517207285820056,-2,0,-1,-1,-1,-1,0,-3
1517207285820056,-1,0,-2,0,0,2,1,0
1517207285835568,-3,-2,-1,-1,0,0,-2,-1
1517207285835568,-1,-2,0,-1,0,0,0,1
1517207285836568,-2,-1,-2,0,-2,-1,-1,-2
1517207285836568,-2,-2,-2,-1,-2,-1,-2,-1
1517207285856582,-1,-1,-1,0,-1,-2,0,0
1517207285856582,0,-2,-2,-1,-1,-1,1,-1
1517207285857585,0,-1,1,-1,-3,-1,-1,0
1517207285857585,0,-1,-1,0,-1,-1,0,-1
1517207285879120,-2,0,-1,0,-1,-1,-2,-1
1517207285879120,-1,-2,-2,-1,-2,-1,-2,-2
1517207285880118,0,0,-1,0,-2,-1,-2,1
1517207285880118,-1,1,-1,-2,-1,0,-3,-1
1517207285894123,-1,-2,0,-2,-2,-3,-2,-2
1517207285894123,-1,-2,0,-2,-1,0,-2,0
1517207285895131,-2,-1,-2,0,0,-2,-1,-1
1517207285895131,-2,-2,-1,-2,-2,0,-2,-2
1517207285916626,-1,1,0,-2,-2,0,1,-1
1517207285916626,0,0,1,1,0,0,0,1
1517207285917625,-1,-2,-1,0,0,-2,-2,-2
1517207285917625,-2,0,-1,-2,-1,-1,0,-1
1517207285939142,-2,0,-1,-1,1,1,0,-1
1517207285939142,-1,-2,-2,0,0,-1,-1,-2
1517207285940154,0,-2,1,-2,1,-2,-1,0
1517207285940154,0,-2,0,0,-1,0,-1,0
1517207285954151,-2,-2,0,-1,-1,-1,-1,-2
1517207285954151,-1,-1,-3,-2,-4,-2,-2,-1
1517207285955152,-2,-3,-2,0,-1,1,-2,-2
1517207285955152,-1,-1,-2,-2,-1,-1,-1,-1
1517207285976676,-1,-1,-2,0,0,0,0,-1
1517207285976676,-1,0,-2,-2,-3,-1,-1,-1
1517207285977685,1,-1,-3,0,0,0,0,-2
1517207285977685,1,-2,0,-2,-2,-1,-1,-2
1517207285999185,-1,1,-2,-1,-1,-1,-1,-1
1517207285999185,-2,-2,-2,-1,-1,-2,-1,-2
1517207286000187,-1,-2,1,-2,-1,0,-2,0
1517207286000187,0,-2,0,0,0,-2,-2,0
1517207286014193,-1,1,-1,0,-1,-2,-1,0
1517207286014193,-1,-1,0,0,1,-1,0,-2
1517207286015194,-2,-1,-2,-2,-2,-1,1,0
1517207286015194,-2,-1,1,-1,0,-1,0,-2
1517207286036713,-1,-3,-1,0,0,2,-2,-1
1517207286036713,-2,0,1,-2,-2,0,-1,-2
1517207286037711,-1,-2,-2,-2,-1,-2,-1,-1
1517207286037711,0,0,-3,0,-1,-1,-1,-2
1517207286059225,0,-1,0,-1,0,-1,-1,0
1517207286059225,0,0,-1,0,0,-1,-2,-2
1517207286060226,-1,-1,0,0,1,-1,-1,-2
1517207286060226,-1,-1,-1,-1,-2,0,-1,-2
1517207286073735,-3,-1,-1,-2,-1,0,-1,-1
1517207286073735,-1,-1,-1,-1,0,0,-1,0
1517207286081741,-2,1,-3,0,-2,-2,1,-1
1517207286081741,-2,0,-1,-1,-1,-1,-2,1
1517207286096753,-1,0,-2,0,-1,-1,-1,-1
1517207286096753,-2,0,-2,-2,-1,0,-1,1
1517207286097753,-1,-1,0,0,0,-1,-2,-3
1517207286097753,0,-1,-1,0,-1,1,-2,-2
1517207286119267,-1,-1,0,-3,-1,-1,-1,0
1517207286119267,0,-1,-1,-2,-1,-1,0,-2
1517207286119768,-1,-1,-1,-1,-4,-1,-3,0
1517207286119768,-1,-1,-1,-1,1,-2,1,-1
1517207286134279,-1,-2,0,0,-2,-3,0,-1
1517207286134279,-1,0,0,-2,-2,-1,-2,0
1517207286134780,-1,0,0,-1,0,-2,-1,-1
1517207286134780,-1,0,-2,-1,-2,-1,0,-1
1517207286156295,0,-2,-3,1,0,-3,-1,1
1517207286156295,0,-3,-3,-2,-1,0,-1,0
1517207286164299,-2,-1,-1,-2,0,-1,0,-1
1517207286164299,-1,-2,0,-1,-2,-3,-3,-2
1517207286179332,-1,-1,-1,-2,-1,-1,0,-1
1517207286179332,0,-1,-1,-2,0,-1,-1,-1
1517207286179810,0,-1,-1,-2,-1,-1,-1,0
1517207286179810,-2,-1,-1,-1,0,-1,-2,0
1517207286193320,0,0,0,0,-2,1,-2,0
1517207286193320,-1,-2,0,-2,0,-2,0,0
1517207286201826,-2,-1,-1,-2,0,0,0,0
1517207286201826,-1,-2,-1,-2,-2,-1,-1,0
1517207286216838,-1,0,-1,-2,-2,-1,-3,-2
1517207286216838,-1,-1,-2,-2,0,0,-1,0
1517207286217337,-2,-1,-1,0,-1,-1,-2,-1
1517207286217337,-3,-2,-2,-1,-1,-2,0,-1
1517207286238853,0,-1,0,-1,-1,-2,0,-2
1517207286238853,-3,-1,0,0,-2,-1,0,0
1517207286247359,0,1,0,-1,0,-1,-1,-1
1517207286247359,1,0,0,0,-1,-1,-3,-1
1517207286253378,-2,-1,-1,-1,-1,-2,-1,0
1517207286253378,-1,-2,-1,-1,-1,-2,-2,-2
1517207286261870,-1,-2,-1,-2,-2,-1,-1,0
1517207286261870,-1,-1,-1,-2,-1,-1,0,-2
1517207286276879,-1,-1,-2,-1,-1,1,1,-2
1517207286276879,0,-1,-2,0,-2,-2,-1,0
1517207286277379,-2,-2,-2,0,-1,1,0,0
1517207286277379,-2,-1,-2,-1,-1,-1,-2,0
1517207286299395,-2,-2,-2,0,-2,-2,-2,-2
1517207286299395,0,0,0,-1,-1,-1,-1,-5
1517207286299904,0,0,-1,0,0,-2,0,-1
1517207286299904,-1,-2,0,-1,0,-3,1,-1
1517207286313405,0,-1,-1,-1,-2,-2,-1,-1
1517207286313405,-1,-2,-2,-2,1,-1,0,2
1517207286321410,-2,-2,-1,-1,-1,0,0,-2
1517207286321410,0,-1,0,0,-1,-1,0,0
1517207286336921,0,-2,1,-2,-2,-2,-1,1
1517207286336921,0,-1,-1,0,-1,-1,0,-2
1517207286337423,-1,-1,-3,0,-1,-2,-1,-1
1517207286337423,-1,-1,-2,-1,-1,-1,1,-1
1517207286358937,0,-2,-1,-2,-2,-2,1,-1
1517207286358937,-1,-1,-3,-1,0,-2,-2,-1
1517207286359939,-1,-1,-1,-1,-3,-2,-1,-1
1517207286359939,-1,-1,0,0,-2,-1,-1,0
1517207286382467,-1,-2,-2,-1,0,0,-1,-1
1517207286382467,0,1,-1,-2,-1,0,-1,-1
1517207286382957,-2,0,-1,-3,-1,1,-1,-2
1517207286382957,-1,-2,-1,-2,-2,1,-1,-2
1517207286397464,-2,0,-2,-1,-1,-2,-1,0
1517207286397464,0,-2,-2,-2,-2,0,-1,-1
1517207286397966,0,-1,0,-1,-1,-1,0,-1
1517207286397966,1,-2,-1,-1,-1,-2,-2,-1
1517207286418980,-1,-1,0,0,0,-1,-1,-2
1517207286418980,-1,-2,-2,-2,-3,-1,-1,-2
1517207286419980,-2,-2,0,-1,-3,-1,-2,-1
1517207286419980,0,-1,-2,-2,-1,-1,-2,-1
1517207286433492,0,-2,-1,0,-1,-1,0,-1
1517207286433492,-2,-2,0,0,-1,-1,-1,0
1517207286441536,-1,0,-2,-1,-3,-2,-2,-2
1517207286441536,-2,-2,-3,-2,-2,-1,-2,-2
1517207286465012,0,-1,-1,-1,-1,-1,-2,-2
1517207286465012,-1,-1,-1,0,-1,-1,-2,-2
1517207286465515,-1,-2,0,0,-1,0,-2,0
1517207286465515,-1,-1,-1,-3,-2,1,0,0
1517207286479023,-2,1,-1,-4,-1,0,0,-1
1517207286479023,1,-1,0,-2,-2,0,-1,0
1517207286486603,0,-1,-2,-2,1,0,-2,-3
1517207286486603,0,-2,-1,-1,-1,-1,-2,-1
1517207286493604,2,-1,-1,-1,0,0,1,0
1517207286493604,-2,-1,-2,-1,0,-2,-1,-1
1517207286501627,-1,-2,-1,-1,-1,-1,2,1
1517207286501627,-1,-1,-1,-1,-1,-1,-1,0
1517207286525124,-2,0,0,-2,-2,0,-2,-1
1517207286525124,-1,-1,1,0,-2,-1,0,0
1517207286525625,-1,-1,0,-1,-3,-2,1,-1
1517207286525625,-1,-1,-1,0,-1,-1,0,0
1517207286547204,-2,-3,-3,0,-1,-1,-1,-2
1517207286547204,-2,0,-2,0,-1,0,-2,-1
1517207286548169,0,-2,0,-2,0,-1,-1,-1
1517207286548169,-2,0,-2,-1,-2,-3,-1,-1
1517207286562179,-1,-2,-1,-2,-1,0,-2,1
1517207286562179,-2,-3,-2,-1,0,-1,-1,0
1517207286563180,1,1,-1,-1,-1,-1,-2,-2
1517207286563180,0,1,-1,-2,-1,0,-1,-2
1517207286576689,-1,-3,-2,-3,-1,-1,0,0
1517207286576689,0,-1,0,0,-2,-1,2,-1
1517207286577701,-2,-2,-2,-1,0,0,0,-1
1517207286577701,0,-2,-1,-1,0,-2,1,-1
1517207286607214,-1,-1,-1,-1,-2,-3,1,1
1517207286607214,-1,-1,1,-2,0,0,-3,-1
1517207286608212,-2,-1,0,-2,-1,0,-1,-1
1517207286608212,0,-1,-1,-1,0,-1,0,-1
1517207286622263,0,-1,-1,-2,-2,1,-1,-1
1517207286622263,-2,0,-1,-2,-1,-1,0,-2
1517207286622721,-2,-1,-2,0,-1,-1,-1,-1
1517207286622721,-2,-1,0,-1,-2,-1,-3,0
1517207286636731,1,-1,-1,0,0,-2,-1,-1
1517207286636731,-3,-1,-1,-1,-1,-1,-2,0
1517207286637732,-2,-1,-1,-2,-2,-1,-2,-1
1517207286637732,0,-1,-3,0,-1,1,-1,-2
1517207286659752,-2,-1,-1,-1,0,0,-2,0
1517207286659752,-1,1,0,-1,-2,-1,1,0
1517207286660749,0,-2,-2,0,0,-1,0,0
1517207286660749,-2,0,-2,-1,0,-1,-1,-1
1517207286682320,-2,-1,-1,0,-2,-1,-1,-1
1517207286682320,0,-2,-1,-1,-1,0,-2,-1
1517207286683322,-1,-1,0,-2,0,-2,-1,0
1517207286683322,0,-1,0,-2,0,-1,-1,-2
1517207286696830,-2,0,-2,0,-2,-1,-2,-2
1517207286696830,-2,-1,0,-1,-1,-1,-2,0
1517207286697331,1,-1,0,-1,-2,-3,-2,-1
1517207286697331,-1,-1,-2,-1,-1,-3,-3,-1
1517207286719847,-1,-1,-1,-2,-1,-1,-1,0
1517207286719847,-1,0,0,0,0,0,2,0
1517207286720847,-1,-1,-2,-1,-1,1,-1,-2
1517207286720847,-1,-1,-1,-1,-2,0,-1,-1
1517207286749871,-2,-1,0,0,-1,-2,0,-2
1517207286749871,0,0,-2,-1,-1,-2,-2,-1
1517207286750381,0,0,-1,-1,-1,0,0,0
1517207286750381,-2,-1,0,-2,0,0,-1,-1
1517207286756372,0,-3,-1,-2,-3,-1,-3,0
1517207286756372,-2,-2,-1,-1,-2,-1,-1,0
1517207286757374,-1,-1,-1,-2,-1,-1,-2,0
1517207286757374,-2,-1,-2,-3,-1,-2,-1,1
1517207286780393,1,1,-1,-1,-1,-1,-1,-3
1517207286780393,0,-3,0,-1,0,-2,1,-2
1517207286780890,-3,-1,-3,-1,-2,-1,-1,-1
1517207286780890,-1,0,0,0,-1,-1,0,-1
1517207286802406,-2,-3,-3,-2,0,-1,-2,0
1517207286802406,-1,-1,-3,-1,-1,-1,-2,-1
1517207286802906,0,1,0,-1,0,-2,0,-1
1517207286802906,0,-2,0,0,-3,-1,0,0
1517207286816915,-1,-1,0,0,-1,0,-2,-1
1517207286816915,-1,-1,-1,-2,0,-2,-1,-2
1517207286817416,-1,-1,-2,-1,0,1,0,-1
1517207286817416,-1,-1,-3,-1,-1,-1,-1,-1
1517207286839932,-1,0,-2,-4,-1,0,0,-1
1517207286839932,0,-1,-1,0,-3,0,-2,0
1517207286840432,0,-2,-2,-2,-1,-2,-1,-1
1517207286840432,-1,-1,-2,-1,-1,-2,0,-3
1517207286862448,0,-1,-1,-1,-2,-1,-1,-1
1517207286862448,-1,0,0,-1,-1,1,-1,1
1517207286862948,0,1,-2,0,-3,-1,-3,-1
1517207286862948,0,-1,-1,0,-1,0,-2,0
1517207286876958,-2,-1,-3,-2,0,0,-2,0
1517207286876958,-1,-2,0,-3,-1,0,-1,-2
1517207286877459,-1,-2,0,-1,0,-1,0,1
1517207286877459,-2,-2,0,-3,-1,0,-2,-1
1517207286900474,-2,1,1,0,-1,-1,1,-1
1517207286900474,0,-1,-2,0,0,0,0,-1
1517207286901475,-2,-2,0,-1,-1,-2,-1,-2
1517207286901475,-1,0,-1,-2,-1,-2,-1,-1
1517207286922490,-1,0,0,-1,-1,-2,-1,-2
1517207286922490,1,0,-2,1,-1,-3,-3,-2
1517207286922990,-1,-1,-1,-1,-2,-1,0,0
1517207286922990,1,-1,-1,-1,-1,0,1,-1
1517207286945007,-1,-2,-1,0,-3,0,-2,0
1517207286945007,-3,-1,-2,0,-1,-2,-1,-1
1517207286946508,-1,-1,0,-1,-1,0,0,-2
1517207286946508,-2,-2,-2,1,-1,-1,-2,0
1517207286960020,-1,-1,0,-1,0,-1,-1,-2
1517207286960020,0,-2,-2,-2,-1,0,-1,-1
1517207286960517,-1,-1,0,-1,-2,0,0,-1
1517207286960517,-2,0,0,-1,-2,-1,2,0
1517207286982533,-1,0,0,-1,-2,0,-1,0
1517207286982533,-1,-1,-2,-3,-3,0,-2,0
1517207286983033,-1,-1,-2,0,-1,-2,-1,-3
1517207286983033,-1,-2,0,0,0,-1,-1,1
1517207286996583,-1,-1,-1,1,-1,-1,1,-1
1517207286996583,-2,-1,0,0,-1,-3,0,-1
1517207286997543,-1,0,1,0,-2,-1,0,-1
1517207286997543,-1,-1,-1,-2,1,0,-2,-2
1517207287019109,0,-2,-2,-1,-1,0,0,1
1517207287019109,-3,-3,-2,-1,0,-2,-1,-2
1517207287026612,-2,0,-3,-3,-1,0,-1,-2
1517207287026612,0,-1,0,-1,-1,0,-1,2
1517207287042619,-1,-1,-2,-1,0,0,-1,0
1517207287042619,0,-1,0,-2,-2,0,2,-2
1517207287043118,-1,-2,-2,-1,0,-1,-1,0
1517207287043118,0,-2,0,-1,0,-1,0,-1
1517207287056618,-1,-1,-1,0,0,-2,-1,-1
1517207287056618,-1,-2,0,0,-2,-1,-1,-1
1517207287057619,-1,0,-3,-1,-2,-2,-1,1
1517207287057619,-2,0,0,-1,-1,-2,-1,-1
1517207287080157,1,-2,-1,-1,-1,-3,-2,-1
1517207287080157,0,1,-1,-1,0,-1,0,-1
1517207287081158,0,-2,0,-2,-1,0,-1,0
1517207287081158,0,0,-3,-2,-1,-2,-1,-2
1517207287102650,-1,-1,0,-1,0,1,-1,-2
1517207287102650,-1,0,-2,-2,0,-2,-2,0
1517207287103153,0,-1,0,0,0,1,0,0
1517207287103153,-1,0,-1,0,-1,1,-1,-1
1517207287117161,-1,-2,-1,-2,-1,0,-1,-1
1517207287117161,-2,-1,-2,-1,-1,-1,0,-1
1517207287124187,-2,0,-2,-1,-1,-1,0,-1
1517207287124187,-1,-2,-1,0,-2,-2,-1,-1
1517207287139680,-1,-2,-2,-3,-2,-1,-2,0
1517207287139680,0,-1,1,0,-2,1,-1,-2
1517207287140678,0,-3,0,-1,0,-2,-1,-1
1517207287140678,-1,0,0,-1,-1,0,-1,-1
1517207287162193,-2,-1,1,-1,0,-2,1,-2
1517207287162193,-1,-1,-1,0,0,-2,0,-1
1517207287163194,0,-1,0,-1,0,-1,0,-1
1517207287163194,-1,-3,0,0,0,-2,-1,-1
1517207287176215,-1,-2,-1,0,-1,-1,-1,-1
1517207287176215,-2,-1,-1,-2,-1,0,-2,1
1517207287184209,-2,-1,0,-2,-2,-2,0,-1
1517207287184209,-2,-1,-1,0,-1,-2,-2,0
1517207287200221,-2,0,-1,0,-1,-1,-3,0
1517207287200221,1,-1,-1,0,-1,0,-3,-2
1517207287200720,0,-2,0,-1,-2,-3,-3,-1
1517207287200720,-2,-2,-1,-3,-2,-2,-1,-2
1517207287222276,-2,0,0,-1,-1,-1,-1,-2
1517207287222276,-1,-1,0,-1,-1,-1,-1,1
1517207287223249,-2,-3,0,-2,0,-1,-1,0
1517207287223249,0,-1,-2,-2,-2,0,-1,-2
1517207287236252,1,-1,-1,-1,-2,-2,-1,-1
1517207287236252,-1,-1,-1,-3,-1,-1,-1,0
1517207287244251,-1,-1,-2,-1,-1,-1,-2,-2
1517207287244251,1,-1,-1,-1,-1,-2,-2,0
1517207287267267,0,0,-2,0,0,-1,-3,1
1517207287267267,-2,-2,-1,-2,-1,-1,-2,-3
1517207287268268,0,-2,-1,-1,-1,-1,0,-1
1517207287268268,-2,-1,-2,-1,-2,-2,-2,-2
1517207287282780,-1,-1,-1,0,-2,-1,1,0
1517207287282780,-1,-1,-1,-1,0,-1,1,0
1517207287283280,0,-2,-2,-1,-1,-2,-3,-1
1517207287283280,-1,-1,-1,-1,0,-1,-1,0
1517207287295787,-3,-1,-1,-1,-2,-1,-1,-2
1517207287295787,0,-2,-1,-2,0,-1,-1,-1
1517207287304293,0,-2,1,1,-1,0,0,-2
1517207287304293,-2,-1,-1,0,0,-1,-2,-1
1517207287327330,0,-2,0,-1,0,-3,-1,-1
1517207287327330,-1,1,-2,0,-1,-1,0,1
1517207287328330,-1,0,-1,0,-1,1,-2,-1
1517207287328330,-1,0,-1,-3,-1,-1,-1,-1
1517207287342320,-2,-1,-1,-1,-1,0,0,-2
1517207287342320,0,-1,0,-1,-1,-1,-1,-1
1517207287343321,1,-3,-2,-1,-1,-1,0,-1
1517207287343321,0,-1,-1,-2,-1,-2,-1,-2
1517207287364846,0,-3,0,0,-1,-1,-3,-1
1517207287364846,-1,-3,-2,-1,-2,-2,-2,0
1517207287365837,-2,0,-3,-2,0,-2,1,-1
1517207287365837,-1,0,-1,0,-2,-2,2,0
1517207287379870,0,-1,1,-2,-1,-1,-1,-2
1517207287379870,0,-1,-1,-2,-2,-2,1,-1
1517207287380858,-1,0,0,-2,-1,0,-2,0
1517207287380858,-1,1,-1,-3,-1,-1,-1,0
1517207287402364,0,-1,-2,-2,0,-1,2,0
1517207287402364,-2,1,-1,0,-2,-2,-1,-2
1517207287403377,-2,-2,0,-3,-1,-2,-1,-1
1517207287403377,-1,-1,-3,0,0,-1,-2,-1
1517207287416373,0,0,-1,0,-1,-1,-2,0
1517207287416373,-2,-1,-1,-1,1,-1,-1,-3
1517207287424388,1,2,-2,0,0,-1,-1,0
1517207287424388,0,-1,0,-1,-1,-3,-1,-2
1517207287439907,1,-3,-1,-3,-2,-4,-3,-2
1517207287439907,-2,-1,0,0,-1,-1,-1,-1
1517207287440889,-2,-2,-1,-1,-1,-2,-1,-1
1517207287440889,-1,-2,-1,-1,-1,0,-1,0
1517207287463406,-1,-1,-2,-3,1,0,1,0
1517207287463406,0,-1,-1,-1,-2,-3,-1,-1
1517207287463907,-2,-2,-2,-2,-2,0,0,-2
1517207287463907,0,-1,-1,-1,0,0,0,-2
1517207287475955,-1,0,-2,0,-3,-2,-1,-2
1517207287475955,-1,-1,-2,-1,-1,-1,0,0
1517207287491929,-1,0,-1,0,-2,0,0,-1
1517207287491929,2,-2,-1,-1,-3,-1,-1,0
1517207287500431,-1,0,1,-1,-1,-1,-1,1
