timestamp,emg1,emg2,emg3,emg4,emg5,emg6,emg7,emg8
1514898921299116,0,0,0,-1,0,-1,0,-1
1514898921299116,-4,0,0,-4,-3,0,0,-1
1514898921300617,0,-2,-2,4,0,-2,-2,-2
1514898921300617,-3,0,-3,-2,-1,-1,-2,-2
1514898921313626,-1,0,-1,-3,-1,-2,-2,-1
1514898921313626,-2,-8,-5,-3,1,-3,-2,-2
1514898921328136,-3,0,0,2,-1,-1,0,0
1514898921328136,-1,0,1,-1,0,-2,-1,-1
1514898921337145,-1,-1,-3,0,-2,-2,0,-1
1514898921337145,1,-2,-2,-1,-2,-1,0,-1
1514898921338644,-4,-1,-3,-2,0,0,0,-2
1514898921338644,1,-2,-1,-3,-2,-3,-1,-2
1514898921359158,0,-2,-2,2,0,1,0,1
1514898921359158,-1,0,-1,0,-3,-2,0,-2
1514898921362660,-1,-1,0,-5,-3,-2,-3,-1
1514898921362660,-1,0,-2,1,-1,0,0,-1
1514898921373669,1,-2,-2,0,0,0,-1,-1
1514898921373669,-1,1,-2,-2,0,-1,-2,0
1514898921380173,-3,1,-1,-5,1,-2,-1,0
1514898921380173,-2,1,0,6,-3,-1,0,-1
1514898921396685,-1,0,-4,-9,-1,-2,0,0
1514898921396685,-2,-1,-2,-3,-1,-2,0,0
1514898921399187,-1,-1,-1,-1,-2,-1,-1,-1
1514898921399187,-2,0,0,-4,-2,0,-1,0
1514898921419702,1,-3,1,7,0,0,-1,-1
1514898921419702,0,5,2,-2,-1,0,-1,0
1514898921421202,-1,0,1,-2,-2,-1,0,1
1514898921421202,0,0,-4,-5,-2,-2,1,0
1514898921434713,-2,-1,0,-1,-3,-1,-2,-3
1514898921434713,-1,-3,0,-3,1,-1,-3,-2
1514898921447721,2,-2,-2,1,-1,1,-1,2
1514898921447721,1,2,1,2,1,0,-1,0
1514898921457228,-4,-4,-5,-7,-1,0,-2,-3
1514898921457228,1,-1,-1,1,-1,-2,0,1
1514898921462731,-1,0,-2,2,-2,-2,1,-2
1514898921462731,-2,0,1,-1,-2,-2,-2,-1
1514898921479743,0,1,1,-1,-1,-1,-1,-1
1514898921479743,-2,-3,-3,0,1,-2,0,-2
1514898921481245,-2,-2,-3,-8,0,-2,-2,-1
1514898921481245,-2,-1,-2,-1,1,-1,0,0
1514898921493762,1,-2,0,3,-1,-1,-2,1
1514898921493762,0,-3,-1,-1,-2,-1,-1,-2
1514898921500258,-2,0,-1,-2,1,1,0,-2
1514898921500258,-1,0,0,1,0,-1,-2,-2
1514898921517270,-1,-1,-3,-8,-1,-1,1,0
1514898921517270,-1,-1,0,0,1,2,0,1
1514898921520780,-2,-1,-2,-1,-2,-2,-1,-4
1514898921520780,-2,-3,-2,-1,-1,-1,-1,-2
1514898921539286,0,-1,1,5,-1,-2,0,0
1514898921539286,-1,-1,-2,-3,-3,-1,-1,-2
1514898921540787,-1,4,0,1,1,0,-1,-2
1514898921540787,-1,-1,-1,-1,-2,-2,-2,-2
1514898921553811,0,-2,-1,1,-1,-1,0,0
1514898921553811,-1,-2,-3,-3,-2,-1,0,2
1514898921560300,0,-1,0,-2,-3,-1,-2,-2
1514898921560300,-1,-1,-4,-6,-1,-1,-1,-1
1514898921576811,0,0,-1,0,-1,0,-2,-1
1514898921576811,-1,-3,1,0,0,0,0,-2
1514898921578312,-2,-1,-2,-1,-3,-1,0,-1
1514898921578312,-3,0,-2,-1,-3,0,-1,-2
1514898921599829,0,-2,-5,-5,2,-1,-1,0
1514898921599829,1,-2,0,0,0,-1,-2,-4
1514898921603331,3,-2,-1,2,-1,1,0,7
1514898921603331,0,2,1,-6,-1,0,0,-1
1514898921612838,-1,-2,0,3,1,-2,0,-2
1514898921612838,-5,0,-1,0,-1,-3,-1,0
1514898921621845,2,-2,-2,-1,0,-2,-1,-3
1514898921621845,-1,2,2,10,-5,-1,-2,-2
1514898921637354,-3,-1,-5,-13,4,0,-1,-1
1514898921637354,-1,-2,-6,-6,1,-1,-1,-1
1514898921639369,-2,0,1,-1,-2,-1,-2,-2
1514898921639369,-1,0,-3,-1,0,0,0,-1
1514898921659370,-1,-1,5,10,-3,-2,-2,-1
1514898921659370,-1,-2,-1,-2,0,-1,0,1
1514898921660871,-4,-1,-3,-5,0,-2,1,-4
1514898921660871,1,0,-1,0,-2,-2,0,1
1514898921673379,-3,-3,0,4,1,1,-1,-1
1514898921673379,1,-1,0,-3,-2,-1,-1,-1
1514898921681903,0,-1,0,0,-2,-3,-3,-1
1514898921681903,-5,-2,-7,-6,2,2,-1,-2
1514898921696896,0,0,2,1,-3,-2,0,-2
1514898921696896,-1,-8,-6,-6,-3,0,-1,-1
1514898921698401,-3,2,-1,1,1,0,1,-1
1514898921698401,1,6,0,-5,-3,0,-1,-2
1514898921720413,0,-2,-1,-1,-2,-2,-1,0
1514898921720413,0,-1,3,8,0,1,-1,-2
1514898921723916,-2,-3,-6,-10,-2,0,-2,-1
1514898921723916,0,1,-2,-4,-1,-1,-2,0
1514898921732922,-3,-1,-1,-3,-4,1,0,-1
1514898921732922,3,-4,1,5,-2,-1,0,-1
1514898921741937,-1,0,0,2,-1,-1,-1,-2
1514898921741937,-1,-3,-2,-4,0,-4,-2,-2
1514898921757226,1,-1,-5,-2,-1,-2,-1,-1
1514898921757226,-2,1,3,1,-1,-2,0,0
1514898921759239,-3,-3,0,0,-1,0,-2,-2
1514898921759239,-1,-1,0,0,-2,0,-1,-1
1514898921779751,-2,-3,-1,0,1,-2,-2,-1
1514898921779751,-2,1,-3,-4,-3,-2,-1,0
1514898921781242,0,-2,0,1,-1,-2,-1,1
1514898921781242,-1,-1,0,2,-1,-1,-1,-1
1514898921792750,0,1,-1,-1,-1,-2,-1,-1
1514898921792750,-1,-1,-2,-6,0,-2,-1,-2
1514898921801758,-3,-1,1,4,-1,-2,-1,-2
1514898921801758,-1,-2,-3,0,0,-1,-1,-1
1514898921817768,-2,0,-3,-6,-2,-1,-1,-3
1514898921817768,0,-2,-1,-1,0,-2,-1,0
1514898921821271,-1,-1,0,3,0,0,-1,1
1514898921821271,-1,-1,-1,-2,-1,-2,-2,-2
1514898921839289,-3,0,-2,-5,0,-1,-1,0
1514898921839289,4,-4,-2,0,1,-3,-2,-1
1514898921840802,-3,1,1,-1,-3,-2,-1,-1
1514898921840802,0,-3,-5,-7,-1,1,0,-1
1514898921853293,1,-2,2,1,-2,-2,-1,-1
1514898921853293,-1,0,1,0,1,-1,0,0
1514898921862800,-1,-1,1,-2,-1,-2,0,-3
1514898921862800,4,-1,-1,3,0,-1,0,4
1514898921883824,0,-2,1,-3,-2,-3,-1,0
1514898921883824,-2,0,-2,-2,0,1,1,-1
1514898921900326,-1,0,2,3,-3,1,-2,-1
1514898921900326,-4,-2,-1,-5,0,-1,-3,-3
1514898921902330,-2,-2,-4,-1,2,-1,-1,-1
1514898921902330,-2,-1,0,1,-1,-2,-1,1
1514898921906330,-1,1,-2,-1,0,1,-2,-1
1514898921906330,-3,0,1,-2,-1,0,-1,-3
1514898921921852,-1,-1,1,0,-2,1,-1,-2
1514898921921852,-1,-2,-1,0,0,-1,-1,-1
1514898921923342,-1,-4,-3,-5,-1,1,0,-1
1514898921923342,-1,-1,0,0,-1,-1,1,-3
1514898921936852,0,-1,-1,-3,-3,-1,-1,1
1514898921936852,-5,0,0,2,0,-3,-2,-2
1514898921938855,4,-1,-3,-5,-1,0,-2,-3
1514898921938855,3,-3,-2,2,-1,-2,-2,3
1514898921959382,0,-1,-1,5,-1,-1,-1,-2
1514898921959382,1,1,-2,-4,-1,-1,-2,0
1514898921960884,-1,-1,-3,-3,1,-1,0,-3
1514898921960884,-5,0,-1,-3,-3,-1,-1,-5
1514898921972893,-1,-1,0,2,0,-1,0,-2
1514898921972893,-1,-1,1,0,-1,-1,-1,1
1514898921981899,-3,-7,-4,-1,-1,-2,-3,-1
1514898921981899,-2,0,-3,-4,-1,0,-1,-2
1514898922004399,-1,0,0,-2,-3,-1,-3,1
1514898922004399,-3,-1,-2,0,-2,-1,0,-4
1514898922005901,1,0,2,4,-1,0,0,4
1514898922005901,-3,0,0,1,-2,-1,-3,-2
1514898922026916,-2,0,-1,-4,-1,1,-2,0
1514898922026916,1,-3,-3,-3,-2,-1,-3,-1
1514898922028417,0,0,-1,2,-1,-3,1,-1
1514898922028417,-1,0,0,3,-1,-1,1,-1
1514898922032932,-1,-3,-3,-4,-1,-1,0,-2
1514898922032932,0,-3,-1,0,-2,-2,-2,-1
1514898922041926,-2,1,0,-5,-3,-2,0,-1
1514898922041926,0,1,1,4,1,-3,0,-1
1514898922064442,-3,-2,-2,1,-3,-3,-1,-2
1514898922064442,1,-2,-1,1,-2,0,0,0
1514898922065943,-3,-1,-3,-2,1,0,-1,-2
1514898922065943,1,-2,-2,-4,-2,-2,-2,2
1514898922079465,1,-3,1,3,-2,-1,-1,-2
1514898922079465,-1,-1,-2,1,0,-1,-2,-2
1514898922080953,1,2,2,0,0,0,-1,3
1514898922080953,-2,-1,0,-7,-1,0,-1,-2
1514898922102471,0,-1,2,-3,-2,-3,-1,-3
1514898922102471,-5,1,0,1,1,0,0,0
1514898922104971,1,5,0,-2,-1,-3,-2,-2
1514898922104971,-1,0,-4,-2,0,-1,-1,0
1514898922116489,0,-2,-2,-2,-1,-2,0,0
1514898922116489,-1,1,0,-1,-1,-3,-1,-1
1514898922118495,-2,-1,-1,5,-1,0,-1,-1
1514898922118495,-2,-2,-3,-2,-1,-1,-1,-3
1514898922139495,-3,-2,0,-4,1,0,-1,-2
1514898922139495,1,-3,-1,-3,0,-2,-1,-1
1514898922140997,-2,-2,-5,-3,0,-1,1,-2
1514898922140997,-1,-2,0,-1,-1,-1,-2,-1
1514898922162016,-3,-1,-2,2,-2,-1,-1,-2
1514898922162016,-1,-2,-1,-2,-2,-1,-1,0
1514898922163512,-1,-2,-1,0,-1,-1,-1,-2
1514898922163512,-6,1,1,-1,-2,-3,-1,-4
1514898922176531,1,-2,-1,2,0,-1,2,-1
1514898922176531,-1,-3,-3,-9,-2,-1,0,0
1514898922178532,-1,1,-1,3,0,-1,-1,-3
1514898922178532,-2,-1,-4,-3,-1,0,-2,-3
1514898922200042,1,0,-3,-2,-1,-2,-1,1
1514898922200042,1,-1,0,4,1,0,1,0
1514898922203541,-3,-2,-2,-6,0,-2,0,-1
1514898922203541,0,-2,1,-1,-2,-2,1,-1
1514898922221052,0,-1,-2,-3,0,-1,-1,-1
1514898922221052,-2,0,2,2,-2,-2,0,-2
1514898922229571,-3,-3,-4,-9,-3,0,-2,-1
1514898922229571,2,2,0,0,1,0,-1,2
1514898922236064,0,-2,-2,-1,0,0,-1,-1
1514898922236064,0,-1,-1,2,0,-2,0,1
1514898922243087,-2,0,0,1,-1,-1,-1,-1
1514898922243087,0,0,-3,-3,-2,0,-1,0
1514898922259080,-2,-4,0,-1,-2,-1,-2,2
1514898922259080,-1,0,-3,-5,0,0,-1,-1
1514898922261081,0,0,1,2,-3,-2,-2,-3
1514898922261081,-1,-1,-2,-3,0,1,-1,-1
1514898922281610,-2,0,1,1,0,-2,0,-3
1514898922281610,-1,-2,-3,-2,-1,-2,-1,-1
1514898922283097,0,1,-1,-1,-2,-1,-2,-1
1514898922283097,-1,0,0,2,1,-1,0,-2
1514898922296608,1,-1,-1,3,0,-1,0,1
1514898922296608,-1,-2,-1,-7,-2,-1,-1,0
1514898922303613,0,-1,-1,-1,0,-2,0,-1
1514898922303613,-1,-1,-1,0,-3,-1,-2,-2
1514898922319623,-2,1,1,1,-2,-1,-2,-3
1514898922319623,2,0,-5,-5,0,0,-2,2
1514898922320623,-1,-1,0,0,1,-1,-2,2
1514898922320623,-2,-8,-3,-3,-1,-1,-1,-1
1514898922341647,3,-3,-2,-5,-2,-1,-1,-2
1514898922341647,-3,-1,0,4,0,0,-1,-4
1514898922343148,0,0,-2,2,1,0,0,-5
1514898922343148,2,-2,-2,-1,-1,-1,-1,-1
1514898922356158,0,-3,-2,-1,0,-2,-2,1
1514898922356158,-1,2,-1,1,0,-1,-2,-1
1514898922363153,-1,-2,-3,-3,0,0,0,0
1514898922363153,-1,-1,-1,1,-1,-2,-2,-2
1514898922379174,-5,1,0,-2,-3,-3,-1,-2
1514898922379174,2,0,0,-4,-2,0,-1,4
1514898922380665,-3,-1,-3,-1,-1,-1,-1,-1
1514898922380665,-2,1,-1,-2,-1,-3,-1,0
1514898922402682,-2,-1,-1,1,2,1,-1,-2
1514898922402682,-1,-1,0,0,-2,0,-2,-3
1514898922408186,-1,0,1,-5,-1,-1,-2,-1
1514898922408186,0,-1,0,1,-1,-1,0,-1
1514898922416205,0,0,0,2,-1,-1,-2,-1
1514898922416205,0,-2,-2,-1,2,0,0,1
1514898922422705,0,0,0,-3,-1,-2,-1,-1
1514898922422705,-1,-2,-2,-3,-1,-2,1,0
1514898922439208,1,-1,1,2,-1,-1,0,0
1514898922439208,-6,-2,-1,-1,-2,-2,-1,-3
1514898922440708,0,-1,1,-1,-2,0,-1,-3
1514898922440708,-3,-1,-4,-4,0,0,-1,-4
1514898922461738,5,-2,-3,-2,0,1,0,6
1514898922461738,0,-1,1,1,-1,-2,-1,-3
1514898922476748,-1,1,-2,-1,1,-1,0,-1
1514898922476748,-1,-1,0,1,-1,-1,-2,-2
1514898922477234,-3,-2,-2,-3,-1,-3,-1,0
1514898922477234,-1,-2,-1,-5,-1,0,-2,-1
1514898922484240,0,-1,-1,2,-1,-1,0,-2
1514898922484240,2,-2,1,0,-1,-1,-1,-2
1514898922499249,-2,-3,-2,-4,-1,-2,-1,-2
1514898922499249,1,-2,1,2,-1,-2,0,-1
1514898922501760,-2,6,1,-1,1,0,0,-1
1514898922501760,-1,0,-1,-3,-1,-2,-1,-1
1514898922521766,-1,-2,-2,-2,0,-1,2,-3
1514898922521766,4,2,-2,1,-2,-1,1,4
1514898922527770,-5,-2,-4,-4,-2,-1,0,0
1514898922527770,1,-2,-1,2,-2,-2,-1,-2
1514898922536277,-1,0,1,-1,0,-1,-1,-2
1514898922536277,-5,-1,-2,-1,-2,-1,0,-1
1514898922542790,2,-1,-2,-1,-2,-2,-2,0
1514898922542790,-1,1,-1,-4,0,0,-1,-1
1514898922559301,-2,-2,0,-4,-3,-2,-2,-3
1514898922559301,-1,0,-1,0,0,0,-2,0
1514898922560793,1,-3,0,1,-2,-1,-2,-2
1514898922560793,1,3,-1,-3,0,-2,0,0
1514898922581808,-1,-2,-4,-2,-1,0,-1,-1
1514898922581808,-1,1,0,10,-1,-1,-2,-4
1514898922583308,-1,0,-4,-9,-3,-4,-1,-3
1514898922583308,1,-6,-1,2,-2,-4,-3,0
1514898922595317,-1,0,3,-1,-2,-3,-1,-3
1514898922595317,-4,-5,-3,4,2,1,0,-4
1514898922604323,2,1,0,1,-3,0,1,3
1514898922604323,1,-9,-1,1,-1,0,0,2
1514898922619836,-2,-2,-1,-5,-2,-2,-1,1
1514898922619836,-2,-1,-11,-5,-2,-2,0,0
1514898922623338,-3,4,11,-2,-2,-1,-3,-3
1514898922623338,-4,-8,-6,-6,-2,-1,-1,-2
1514898922649358,1,-2,-3,-2,-1,0,1,0
1514898922649358,1,6,1,2,-1,-1,0,-3
1514898922650857,-6,-4,-6,-6,-1,-1,0,0
1514898922650857,0,4,0,0,-2,-2,-2,-2
1514898922655868,-1,-2,1,-2,-1,-1,-3,-1
1514898922655868,-2,-1,-1,-4,-3,-1,-1,-2
1514898922664367,-3,-4,-1,7,-2,-1,-2,-2
1514898922664367,-1,-2,2,2,3,0,-1,-3
1514898922687386,1,2,-3,1,0,-2,-3,1
1514898922687386,-4,-1,0,-4,0,-1,-1,-3
1514898922688888,1,0,-1,0,0,-2,-1,2
1514898922688888,-2,3,-1,0,-1,0,-1,-2
1514898922701893,-4,-2,-2,-1,-2,-2,-1,-3
1514898922701893,0,-2,0,-3,-2,-1,-1,0
1514898922703394,-2,-1,-2,-1,-1,-1,-1,-3
1514898922703394,-3,0,-1,-3,-2,1,-1,-4
1514898922716404,0,-3,1,1,-1,0,0,1
1514898922716404,2,-4,0,-1,0,-1,-3,0
1514898922724414,-2,1,-2,0,-1,-2,-1,1
1514898922724414,-1,2,-1,-2,-1,-2,0,-4
1514898922740424,-3,1,1,0,0,0,1,2
1514898922740424,5,-3,1,-1,-1,-3,-1,0
1514898922740921,0,2,-3,-1,-1,0,-2,-2
1514898922740921,-3,-1,-1,-2,-3,-2,0,-2
1514898922762440,-1,-2,-2,-1,-1,-3,-1,-2
1514898922762440,-1,-1,1,0,1,-1,0,0
1514898922765439,-3,-2,-1,0,-1,1,0,-1
1514898922765439,1,0,-1,-4,-2,-2,-3,0
1514898922775446,-1,0,1,1,-1,-1,0,-2
1514898922775446,0,-2,-1,1,0,-2,0,1
1514898922791958,-1,-2,-2,-3,-2,-1,0,-2
1514898922791958,-1,2,0,1,-1,0,1,2
1514898922799462,0,-2,-1,-4,-2,-2,-2,-1
1514898922799462,-4,-1,0,-1,-1,-1,-1,-1
1514898922800962,-1,-1,-2,1,0,0,-2,-2
1514898922800962,-3,-1,-2,-1,-1,-1,-3,-3
1514898922821981,0,-3,-3,0,0,-1,-1,-4
1514898922821981,0,-2,0,-2,0,-1,0,-1
1514898922823480,0,-1,-1,-1,-1,-1,0,0
1514898922823480,-1,2,-2,-2,-2,-1,-1,0
1514898922835489,-4,-2,-2,3,-2,-1,-2,0
1514898922835489,3,-5,-2,-2,-3,-1,-1,-1
1514898922844503,-1,2,1,-1,0,-2,1,-1
1514898922844503,-1,-2,-2,-3,-1,0,-1,-2
1514898922859508,0,-1,-1,-1,-2,-1,0,-1
1514898922859508,-3,-1,-2,-1,-2,-2,-1,-2
1514898922861006,0,-2,-2,-3,-1,-2,-2,-1
1514898922861006,-4,0,-1,0,-1,-1,-1,-4
1514898922882021,2,-2,-1,-2,-1,-2,0,3
1514898922882021,-3,0,0,0,-2,0,-1,-1
1514898922883522,0,-1,-1,-2,-2,0,-1,-2
1514898922883522,-1,0,-1,0,-1,0,-1,-3
1514898922895533,0,-3,-2,1,0,-1,-1,-2
1514898922895533,0,0,-2,-4,-2,-3,-1,-1
1514898922905038,0,-2,0,0,-1,-2,-2,-1
1514898922905038,1,-1,-2,-1,0,-2,0,-1
1514898922920049,-1,-1,0,-1,-1,1,0,-2
1514898922920049,-2,0,-1,-2,-2,-1,-1,1
1514898922921548,-2,1,-1,-1,-3,-1,-1,-3
1514898922921548,0,-1,-3,-3,-3,-3,-1,0
1514898922942064,-2,-2,-2,-1,0,-3,-2,-2
1514898922942064,0,0,0,-1,1,1,-2,0
1514898922943566,-3,0,-1,-2,-1,0,-3,-2
1514898922943566,5,-2,-2,-1,-1,-1,0,0
1514898922965080,-4,-1,-1,1,0,-3,-1,-3
1514898922965080,0,-2,-1,-2,-1,-2,0,2
1514898922966581,-2,-1,-1,-2,-1,-1,0,-1
1514898922966581,0,-1,0,0,-2,-2,-1,0
1514898922979591,-3,-3,0,-1,0,-2,-2,-2
1514898922979591,-1,-1,-3,-2,-2,0,-1,-4
1514898922981091,-2,0,-2,1,0,1,-2,1
1514898922981091,-3,0,-1,-1,-1,-1,0,-1
1514898923002105,2,-1,0,0,0,0,-1,0
1514898923002105,-3,-2,0,-1,0,-2,-1,0
1514898923006109,-2,-2,-1,-2,-2,-1,-1,-1
1514898923006109,-2,0,-2,0,-1,0,-2,-2
1514898923024120,-1,-3,-5,-1,-2,-3,-1,-1
1514898923024120,0,-2,0,0,-1,-1,-1,-1
1514898923026122,-1,-1,-1,-1,-2,-1,0,-2
1514898923026122,-1,-1,1,-3,-1,0,-1,-1
1514898923039634,-1,-3,-2,-4,0,0,-2,0
1514898923039634,-3,0,-2,2,0,-1,-1,-3
1514898923041136,7,0,-1,-1,0,-1,1,5
1514898923041136,-3,0,1,3,-2,-2,0,0
1514898923070655,3,-2,0,-2,-1,-1,-2,-2
1514898923070655,-1,0,-2,-1,0,-2,-1,-2
1514898923074171,-2,-1,1,-1,-2,0,-3,-1
1514898923074171,0,-1,-1,-1,-1,-2,0,-1
1514898923084664,0,0,0,-1,-1,-1,-1,0
1514898923084664,-1,0,1,0,-2,-1,0,-1
1514898923086164,0,-1,-3,0,-2,-2,-3,-3
1514898923086164,-2,-2,-1,-2,0,1,-1,-1
1514898923099173,-3,-2,-1,0,-1,-2,0,-2
1514898923099173,-1,0,-2,-2,-2,0,-3,-2
1514898923100674,-2,1,-1,-1,0,-1,-3,-1
1514898923100674,0,-1,-2,-2,-1,1,-2,-2
1514898923122190,-1,-1,-1,0,-2,-1,-1,-1
1514898923122190,-1,0,-1,-3,-1,-1,0,-2
1514898923123190,4,0,-1,0,0,-1,0,4
1514898923123190,-2,-3,1,0,-2,-1,-3,-1
1514898923144205,1,-1,-1,-2,-1,0,-1,-1
1514898923144205,0,0,-2,1,-2,0,0,1
1514898923146707,-3,-4,-3,-1,-1,-1,1,-4
1514898923146707,0,0,0,-2,1,-1,-1,0
1514898923158716,-3,-2,0,0,-2,-1,-1,0
1514898923158716,-1,-1,0,-1,-2,-1,-1,-1
1514898923165220,-2,1,-2,-2,-2,0,-1,-4
1514898923165220,-1,-2,-2,-1,0,-1,-1,-2
1514898923181743,-1,0,-1,2,0,0,-1,-1
1514898923181743,-4,1,0,-2,0,0,0,-1
1514898923183250,1,-2,-3,-2,-1,-2,-1,-2
1514898923183250,-2,-2,-3,-3,-1,-2,-1,0
1514898923205248,0,-1,0,0,-1,-1,-2,-2
1514898923205248,0,0,0,2,-1,-1,-2,-2
1514898923208751,-4,1,-2,-1,-3,-1,-1,-3
1514898923208751,2,-2,-1,0,-1,-1,-1,2
1514898923218758,-1,-4,-2,-1,-1,-2,-1,-1
1514898923218758,-1,0,-2,-1,-2,0,0,0
1514898923225275,-3,0,0,-2,-3,-1,-1,-3
1514898923225275,-1,-2,-2,-1,0,-2,-2,-3
1514898923242278,-1,-1,0,-2,-2,-2,0,-1
1514898923242278,-1,-4,-3,2,2,-2,1,0
1514898923243790,-2,0,-2,-2,0,-2,-2,-1
1514898923243790,-1,-2,-1,0,-2,-1,-1,-2
1514898923271805,-1,-1,0,-3,0,-1,0,0
1514898923271805,-2,-1,-1,-2,-2,-3,-2,-2
1514898923273296,1,-1,-2,-2,-2,-1,-1,-1
1514898923273296,-1,-1,-2,-1,0,-1,0,-3
1514898923278800,-1,-3,2,1,-1,-1,0,-2
1514898923278800,0,-1,-4,-5,-2,1,-1,0
1514898923285306,-3,0,-2,0,1,0,0,-1
1514898923285306,-1,-1,-1,0,-1,-1,-1,-1
1514898923303819,0,-1,-1,-1,0,-1,-1,1
1514898923303819,-1,-1,-1,0,-1,0,-1,-2
1514898923307824,0,-1,0,-2,-2,-2,-1,-1
1514898923307824,-2,-1,-2,1,-1,-2,-2,-1
1514898923324345,1,-5,-2,2,-1,-1,2,-2
1514898923324345,0,3,1,0,-2,-1,-3,1
1514898923325846,-2,1,-2,-3,-1,-1,-1,-2
1514898923325846,-1,-1,-2,0,-2,-1,-1,-3
1514898923338359,-6,-2,-2,-4,-1,-3,-1,1
1514898923338359,2,-3,-2,-2,-2,-2,-2,-1
1514898923345347,0,1,0,1,-2,-1,-1,-1
1514898923345347,2,0,-1,-2,-1,-1,-1,0
1514898923361869,1,1,-2,-1,-1,-2,0,-1
1514898923361869,-1,-3,-1,-4,-1,0,-1,-3
1514898923367873,-2,1,0,1,1,-1,-1,-2
1514898923367873,-1,-2,0,-2,-3,-2,0,-1
1514898923384379,0,-2,-1,-1,-1,-1,-2,0
1514898923384379,-3,0,0,-1,0,0,-3,-1
1514898923385886,-2,-2,-1,-2,-2,-1,-2,-2
1514898923385886,-1,-1,1,0,-1,-1,-1,-2
1514898923398384,0,-1,1,2,0,0,-1,-1
1514898923398384,0,-2,-4,-3,-2,-1,-1,-2
1514898923413896,-2,-1,-2,-1,-2,-1,-2,-1
1514898923413896,0,-1,-1,0,-2,-1,0,0
1514898923421901,1,0,-1,-2,-2,-1,-3,-2
1514898923421901,-4,-2,1,-1,-1,0,0,-3
1514898923423403,0,-1,-1,-1,-2,0,0,-1
1514898923423403,-1,-1,-2,-2,-2,-3,-1,0
1514898923444429,0,-1,-1,-1,-1,-2,-1,-1
1514898923444429,-2,-1,-2,3,1,0,-1,0
1514898923445930,-2,-2,-3,-1,0,-2,-1,-1
1514898923445930,1,-2,0,-3,0,0,1,0
1514898923458436,-4,-2,0,-2,-2,-2,-1,-5
1514898923458436,3,8,2,0,0,1,1,3
1514898923465432,-4,1,0,-1,-1,-1,-2,-3
1514898923465432,-2,-4,-3,-2,-1,-1,-2,-2
1514898923481444,0,-2,-1,-1,-1,-1,-1,0
1514898923481444,-3,-3,-2,-2,-1,-2,0,-1
1514898923487948,0,0,0,-1,-1,1,-1,-1
1514898923487948,1,0,2,0,-1,-1,-1,-1
1514898923503959,-2,-3,-4,-3,0,-1,0,0
1514898923503959,1,-2,0,-2,-3,-2,1,-1
1514898923505961,-1,0,-2,0,-3,0,-1,-1
1514898923505961,-3,-2,-3,-6,-2,0,0,-2
1514898923526475,0,-3,-1,5,1,0,-1,0
1514898923526475,-2,-2,-2,-1,-2,-3,-2,-3
1514898923527476,-1,1,1,0,1,-1,0,-1
1514898923527476,-1,-3,-1,1,-2,-1,-1,0
1514898923540986,-2,2,-1,-3,-3,-2,-2,-2
1514898923540986,3,-1,0,-2,-1,-1,-1,4
1514898923541986,-2,-3,-4,-3,-1,1,-1,0
1514898923541986,-1,-3,-1,1,-1,-3,-1,0
1514898923563501,0,-4,-1,0,2,1,-1,1
1514898923563501,-3,-3,-1,-1,-2,-2,-3,-1
1514898923564502,0,1,1,-1,-2,-4,-1,-2
1514898923564502,1,2,0,0,0,-1,-1,-1
1514898923578011,0,-1,0,0,-3,0,-2,-1
1514898923578011,0,0,0,0,-1,0,-1,-3
1514898923586021,-6,-3,-1,-4,-2,1,0,1
1514898923586021,-1,-1,-2,3,0,0,-2,0
1514898923601528,-2,-2,0,-2,0,-2,0,0
1514898923601528,-1,-8,-3,0,-2,-2,-1,-2
1514898923603030,-1,-1,-1,-2,-1,-2,-1,-4
1514898923603030,-2,-3,-2,-1,0,1,-1,1
1514898923631550,1,-1,-1,-2,-3,-1,-2,0
1514898923631550,-4,2,-4,-4,-3,-1,-2,-3
1514898923633567,3,2,-1,-1,-1,1,-1,1
1514898923633567,-1,0,1,0,-3,-2,-2,0
1514898923638054,0,-6,-4,0,2,-2,1,0
1514898923638054,-3,0,1,1,-1,0,0,-3
1514898923646060,1,-1,-2,1,-2,-2,0,-3
1514898923646060,0,0,0,-1,0,1,-1,0
1514898923661070,-1,0,0,-1,-3,-4,-1,-1
1514898923661070,0,0,-1,0,0,-1,0,1
1514898923662071,-1,0,-2,-1,-2,0,-1,-1
1514898923662071,0,-1,0,-3,-1,-3,0,-1
1514898923683587,-1,-3,0,-3,-1,-1,-1,-2
1514898923683587,0,-1,-1,2,2,0,0,-1
1514898923684592,-5,-1,0,-2,-1,-1,-1,-3
1514898923684592,2,-1,-1,1,0,-2,-1,-3
1514898923698107,0,-2,-1,1,-2,-1,-1,1
1514898923698107,-2,-1,-1,-1,-2,-2,-2,-2
1514898923706102,4,-5,-2,-2,-2,2,-1,4
1514898923706102,-3,1,-1,-2,-1,-2,-1,-1
1514898923721112,-2,-1,0,-1,-2,-1,-1,0
1514898923721112,1,-2,-3,-3,-1,-2,-1,0
1514898923721613,-2,-2,0,3,0,-1,-1,-3
1514898923721613,0,-5,-1,-1,-2,0,-1,-1
1514898923743629,0,-2,-2,-3,-1,-2,-1,0
1514898923743629,-2,-2,-2,-1,0,-1,-1,-2
1514898923744129,-1,0,0,0,-1,-1,-1,-3
1514898923744129,-1,-4,-1,-6,-3,0,-1,-2
1514898923757648,-1,-1,-1,2,1,-2,0,-1
1514898923757648,-1,0,-1,-2,-1,-1,-2,0
1514898923766154,-1,1,-3,-3,-1,-2,-1,-2
1514898923766154,-1,-1,0,3,-1,-1,-1,-1
1514898923780837,-1,-3,0,-3,-3,0,-1,-2
1514898923780837,-1,-1,-1,2,-1,1,-1,-1
1514898923781832,-1,-1,-1,3,-2,-2,-2,0
1514898923781832,-2,-2,0,-3,-1,-1,-1,-3
1514898923804344,-2,3,-1,-4,-1,-2,0,-2
1514898923804344,0,1,0,-1,0,0,-1,-1
1514898923805845,-2,-1,0,0,-2,-2,-1,-2
1514898923805845,-2,-2,-3,0,0,-1,-1,-2
1514898923826859,0,-4,-1,0,-2,0,-1,-1
1514898923826859,-1,-2,0,-4,-1,0,-2,-2
1514898923827359,0,3,-2,-3,0,-1,1,-2
1514898923827359,-3,-1,0,-1,0,-1,-1,-1
1514898923841379,0,-2,0,-2,0,-2,-2,-1
1514898923841379,-1,-1,0,2,-1,-2,-2,-2
1514898923842380,-2,-2,-5,-5,-2,-1,-1,-2
1514898923842380,0,0,-1,0,1,-2,-2,0
1514898923863886,0,-2,-4,-3,-1,-3,0,0
1514898923863886,-1,0,0,-4,-2,-1,0,2
1514898923865387,-1,1,0,2,1,-1,-3,-3
1514898923865387,-2,-1,-2,1,-2,0,-2,0
1514898923877896,0,-2,-2,0,-1,-1,0,0
1514898923877896,-2,-1,-1,0,-1,-2,-1,-2
1514898923885902,-4,-1,1,-3,-4,1,0,-2
1514898923885902,3,-2,0,-4,-2,-1,1,3
1514898923900922,-1,-2,-5,-1,0,0,-3,-1
1514898923900922,-1,0,-2,-2,-3,-1,-2,-2
1514898923902913,-1,-1,-3,-3,-3,-1,-1,-1
1514898923902913,1,3,3,5,0,-2,-3,-3
1514898923923428,-5,-2,-2,-1,-1,-4,1,-1
1514898923923428,3,-2,-2,-5,-1,-3,-2,-1
1514898923924429,-1,-2,-1,0,-1,-2,-1,-2
1514898923924429,-2,-5,-2,-1,-1,-3,1,-3
1514898923946954,1,-2,0,-1,-1,1,-1,0
1514898923946954,-3,0,-4,-4,-1,0,1,-1
1514898923947452,1,-1,0,1,-1,-1,-1,-4
1514898923947452,-1,-2,-2,-8,0,-2,-2,0
1514898923969461,-2,1,1,8,0,-2,-1,0
1514898923969461,-3,-1,-1,0,0,0,0,-2
1514898923969961,0,1,0,-2,-1,-1,-3,0
1514898923969961,-1,-1,-1,-3,-2,-2,-2,-2
1514898923983470,0,-2,-1,-4,-1,-2,-3,-1
1514898923983470,-4,-1,-1,-1,-2,-1,-2,-1
1514898923984471,-1,0,-2,-1,0,0,0,0
1514898923984471,-2,-4,-4,3,0,-2,-1,-2
1514898924006987,0,0,2,1,0,0,-1,-2
1514898924006987,-2,1,-1,-2,-2,-2,-1,-3
1514898924008988,-1,-2,-1,-3,-2,-2,0,-2
1514898924008988,-1,-2,-1,-2,-3,-1,-1,-1
1514898924020998,-1,-2,-2,-1,-2,1,-2,-1
1514898924020998,1,-1,2,3,-3,-1,-1,0
1514898924021998,-2,1,-4,-3,0,-1,-3,0
1514898924021998,-2,-1,-2,-1,0,-1,0,-1
1514898924043517,-4,-1,-1,-3,0,-2,0,-1
1514898924043517,3,-3,-1,-1,-1,-1,-2,-1
1514898924044013,0,-1,0,1,-2,0,-2,-2
1514898924044013,-1,-1,1,1,0,-2,-1,-1
1514898924066542,0,-1,0,0,0,0,-1,0
1514898924066542,-2,-1,0,-1,-1,-2,1,0
1514898924067040,2,-1,-1,0,0,0,0,1
1514898924067040,-2,-1,-2,-3,-1,-2,0,-2
1514898924081049,1,0,-2,-2,-1,-2,-1,-3
1514898924081049,0,0,-1,0,0,0,-1,0
1514898924082051,-1,0,1,3,0,1,-1,-1
1514898924082051,-2,-2,-1,-1,-2,0,0,-1
1514898924103557,1,-1,1,-2,-3,-2,-1,-1
1514898924103557,-1,0,-3,-6,-2,-1,-2,-2
1514898924104556,1,0,-2,-1,0,-3,-1,-3
1514898924104556,0,-2,-1,-2,-3,0,-2,0
1514898924126581,-2,2,2,-2,-2,0,0,-1
1514898924126581,-1,-1,-2,-1,-1,0,0,-3
1514898924127572,-3,-2,0,-2,1,-2,-2,-1
1514898924127572,0,0,-2,-1,0,-1,-3,-2
1514898924141091,-2,-2,-2,-3,-2,-2,-3,1
1514898924141091,-3,0,1,3,-1,-2,-3,-1
1514898924142092,0,0,-2,-3,-2,0,-1,0
1514898924142092,-2,-2,-2,-3,0,-1,-1,-4
1514898924171613,-3,-3,-2,3,0,-1,-1,-2
1514898924171613,-1,2,-1,-1,-1,-2,0,0
1514898924172614,-2,-1,-1,1,-4,-2,0,0
1514898924172614,-1,0,-1,1,-2,-1,-1,0
1514898924186617,-4,-1,0,-1,-1,-1,-1,-1
1514898924186617,3,-2,-4,-5,-1,0,1,-2
1514898924187614,-1,0,2,0,-1,-2,-1,-3
1514898924187614,-2,-4,-5,-7,1,-1,0,-1
1514898924201138,1,1,-1,1,1,-1,1,-1
1514898924201138,-4,0,0,1,-1,-3,0,-2
1514898924203130,-2,-3,-2,-2,-1,-2,-2,1
1514898924203130,2,-1,-1,-1,-2,-1,-1,0
1514898924223640,-1,-2,-2,-1,-1,0,-1,1
1514898924223640,-4,-1,-2,0,-1,-1,-1,0
1514898924224140,-3,0,-2,-4,-2,0,-1,-2
1514898924224140,-3,0,0,4,1,0,-1,0
1514898924246668,2,-1,-1,-3,-3,-2,-1,0
1514898924246668,0,1,3,3,0,1,1,-3
1514898924247658,-2,-2,-3,-2,0,-1,0,0
1514898924247658,-1,-2,1,-2,-2,-2,-1,0
1514898924261167,-1,0,-1,0,-2,-1,-2,0
1514898924261167,0,-1,-2,-4,-2,0,-1,-2
1514898924261667,-2,-2,-2,-4,-1,-1,-2,-3
1514898924261667,0,-2,-4,-1,-1,-2,0,1
1514898924283695,1,-2,-1,0,-2,-1,-1,-1
1514898924283695,-1,8,1,-1,-1,-1,-1,0
1514898924284182,-1,0,-1,-1,-2,-1,-1,0
1514898924284182,0,-1,0,1,-1,-2,0,-1
1514898924306708,0,0,0,-1,-1,-4,-2,-1
1514898924306708,-1,-2,0,6,-1,-1,-2,-2
1514898924308701,-1,-2,-3,-4,-2,-2,-2,-1
1514898924308701,-1,0,-2,-4,0,0,-1,0
1514898924321208,-2,-3,-2,-2,0,-2,1,-2
1514898924321208,-1,-2,-2,-1,0,-2,-2,-2
1514898924321709,0,-1,0,0,-2,-1,0,-3
1514898924321709,-1,-2,-1,0,-1,-1,1,1
1514898924343737,-1,-2,-1,0,0,0,-3,0
1514898924343737,-5,-4,-3,-2,-1,-1,-3,-2
1514898924344225,2,-1,-1,-1,-2,1,-1,0
1514898924344225,-1,1,-1,-3,-3,-1,-2,-2
1514898924366751,-3,-1,-1,-3,-1,0,-1,-2
1514898924366751,2,-3,-3,-1,-3,-2,-1,-1
1514898924367742,-1,-1,0,-1,1,-2,0,-2
1514898924367742,0,-1,-1,1,-2,-1,0,-1
1514898924380761,-1,-1,-1,0,1,0,-2,0
1514898924380761,0,-2,-2,-3,-2,-1,-1,-1
1514898924381751,-2,-2,0,-3,-2,-1,-2,-2
1514898924381751,-1,-2,0,0,-3,-4,-2,-1
1514898924403768,-1,-3,-1,0,0,1,-1,-1
1514898924403768,-1,-2,-1,-2,0,0,-1,0
1514898924405285,-4,0,-2,-2,-3,-3,-2,-3
1514898924405285,3,0,0,4,2,-1,0,3
1514898924426798,1,-1,-1,-2,-3,-4,-1,-1
1514898924426798,-2,1,-2,0,-2,0,1,0
1514898924427284,-2,0,-1,0,0,1,-1,-2
1514898924427284,-1,-2,-1,0,-3,-1,-3,-2
1514898924448809,-1,-1,-3,-3,1,-1,0,-2
1514898924448809,-1,1,1,1,-1,-1,1,1
1514898924449810,-1,0,0,0,0,0,0,-1
1514898924449810,-2,-2,-1,0,-1,-1,-1,-1
1514898924463815,1,-1,-2,-1,-1,-2,-1,0
1514898924463815,0,0,-1,-1,-3,-1,-2,-3
1514898924465311,-1,-4,-1,0,-1,-3,-1,1
1514898924465311,-1,-2,-1,-1,-1,-1,-1,0
1514898924486827,-3,-2,-1,0,-2,-1,0,-2
1514898924486827,0,-1,-2,-2,0,0,0,-1
1514898924487826,-1,0,0,-1,-2,-3,-1,-1
1514898924487826,-3,-1,-2,0,1,1,0,-2
1514898924500878,5,-2,-3,0,-2,0,0,4
1514898924500878,-2,-2,-1,-2,-2,-3,-2,-2
1514898924502838,0,0,-1,0,-1,0,-1,-1
1514898924502838,-1,-3,-1,-4,-1,-2,0,-2
1514898924523353,-2,-1,0,-1,-2,-1,0,-1
1514898924523353,-1,-1,-1,-3,-1,-1,-1,-3
1514898924524353,0,-2,-2,1,-3,-2,-1,-1
1514898924524353,-2,-3,-1,-1,0,-2,-1,-2
1514898924554407,-2,-1,-3,0,0,-1,-1,-3
1514898924554407,-1,-2,-2,-3,0,-2,0,0
1514898924554907,-1,-1,-1,0,-2,0,-3,-3
1514898924554907,0,1,1,-2,-2,-1,-1,0
1514898924568917,-1,-2,-3,-2,-1,-1,-1,-1
1514898924568917,-3,-1,-2,-4,0,-2,1,-2
1514898924569920,-1,-2,0,3,1,-1,-1,-1
1514898924569920,-1,-3,0,-3,-1,-1,-1,-2
1514898924583437,-3,-2,2,-1,0,-1,-2,-4
1514898924583437,0,-1,-1,-1,-2,-2,1,-1
1514898924584438,0,-1,-2,-1,-1,-2,0,-1
1514898924584438,-4,-2,-2,-4,-1,-3,-2,1
1514898924607454,-2,0,0,-1,-3,-2,-3,-3
1514898924607454,-2,0,0,2,-2,0,-1,0
1514898924608455,0,-3,-2,-2,1,-1,0,0
1514898924608455,0,-1,0,-1,1,1,-2,-1
1514898924620453,-1,-1,-2,-1,-1,-3,0,-1
1514898924620453,-1,-2,-2,-1,-2,0,-2,-1
1514898924628460,-2,-2,-1,1,-1,-1,-1,0
1514898924628460,-2,-3,-2,-1,-1,-2,-2,-1
1514898924643482,-1,2,0,0,0,0,1,-1
1514898924643482,-1,1,-1,-2,-2,-3,-2,0
1514898924644470,1,0,-2,-3,-3,-1,-1,-1
1514898924644470,0,-3,-1,3,0,-2,-1,-1
1514898924666498,0,-1,-5,-7,0,-1,0,2
1514898924666498,-3,1,-1,2,1,-1,0,-4
1514898924667496,0,-1,1,1,-2,-1,-1,0
1514898924667496,1,-3,-2,-4,-1,0,0,-2
1514898924680511,-2,-1,0,0,-4,-2,0,2
1514898924680511,-3,-1,-1,1,0,-1,-3,-3
1514898924689012,-2,-2,-3,-3,0,-1,-2,-1
1514898924689012,0,-2,0,0,-1,-2,-1,0
1514898924703524,-1,-2,-1,-2,-1,0,-2,-1
1514898924703524,1,0,0,0,-1,-1,0,-1
1514898924704513,-1,-2,-1,0,-2,-2,0,-2
1514898924704513,-1,0,-2,-1,-1,-1,0,1
1514898924726540,-2,-1,0,-2,0,0,-2,-1
1514898924726540,-1,-1,-1,-2,0,-1,0,-1
1514898924727539,-1,-1,1,-1,-1,-1,-1,-2
1514898924727539,-2,-3,-2,-2,-1,-2,0,-3
1514898924740549,0,-2,-1,3,-1,0,-2,-1
1514898924740549,1,-1,-3,-1,-1,-2,-2,0
1514898924748555,-2,-1,0,-1,-2,-2,-2,-2
1514898924748555,0,-1,0,-1,-1,-1,-2,0
1514898924763559,1,1,0,1,-1,0,0,-2
1514898924763559,-1,1,0,-2,-3,0,-1,-1
1514898924764568,-1,-3,-2,-3,-2,0,-1,-1
1514898924764568,-1,-2,-1,2,-2,-2,0,1
1514898924787073,0,0,0,3,1,-2,0,-1
1514898924787073,-1,-1,-3,-6,-1,-1,-3,-5
1514898924787575,2,-1,-2,-3,-1,-1,-1,1
1514898924787575,-1,-2,-1,0,0,-2,-1,0
1514898924800590,-1,-2,-1,-2,-2,-1,0,0
1514898924800590,-2,-2,0,0,-1,-1,1,0
1514898924808588,-2,0,-1,0,0,0,0,-1
1514898924808588,-2,-1,-1,-3,-1,0,-2,-1
1514898924831603,-1,0,-1,-1,-2,-1,-2,-2
1514898924831603,-2,-1,-1,2,0,0,-2,0
1514898924833604,-2,-2,-1,-1,-1,-2,0,-3
1514898924833604,-1,0,-1,-2,0,-1,-1,0
1514898924846652,-2,0,-1,-2,-1,-1,-2,0
1514898924846652,1,-1,-1,-3,-3,0,-1,0
1514898924847626,1,-2,-1,0,-2,-3,0,-2
1514898924847626,1,-3,-2,0,-1,-1,-1,0
1514898924869139,-1,-2,0,-2,-2,-2,-2,-3
1514898924869139,-1,0,-1,-1,-2,-2,-1,0
1514898924870131,-3,-1,-3,-1,-2,-1,-1,-2
1514898924870131,-1,0,-2,-2,-2,-3,0,-3
1514898924883654,-2,-2,-1,-1,1,1,1,0
1514898924883654,-1,1,-2,0,0,-1,0,0
1514898924884139,-1,0,0,-2,-2,-1,-1,-2
1514898924884139,0,-2,-2,-1,-1,-1,0,-1
1514898924907157,-3,0,-1,0,0,-3,-2,-2
1514898924907157,-1,0,0,-1,1,0,0,-2
1514898924907657,-2,-1,-2,0,-3,-3,-1,-1
1514898924907657,-1,0,1,1,-2,0,-1,0
1514898924929172,0,-1,-5,-4,-2,-3,-1,0
1514898924929172,-2,-6,-3,-2,-3,-2,-1,-3
1514898924930173,0,1,1,-2,-1,0,-2,-1
1514898924930173,-1,-3,0,-2,0,-1,-1,0
1514898924943699,-1,-2,-1,2,-2,-2,0,-2
1514898924943699,1,-1,-1,0,1,-1,-1,-1
1514898924944182,-1,-3,-2,-1,-1,0,-1,-1
1514898924944182,-2,-2,-3,-1,-1,-1,0,-1
1514898924967199,0,1,1,0,0,-1,-2,1
1514898924967199,0,2,0,-2,-1,-2,0,-2
1514898924968199,-1,-2,-2,0,1,0,-1,-1
1514898924968199,-4,-1,0,-3,-1,-1,-1,-2
1514898924989226,3,-2,-1,1,-3,1,1,2
1514898924989226,-3,0,-3,-1,-3,1,-1,0
1514898924990214,-1,-1,-2,-1,-2,-3,-1,0
1514898924990214,-2,-3,-2,-5,-2,-1,-3,-3
1514898925003725,-2,0,-2,1,2,-3,-1,-3
1514898925003725,-1,0,0,-2,-3,-1,0,0
1514898925004728,1,-2,0,1,-1,-1,-1,1
1514898925004728,0,-2,-2,-1,-2,-1,-1,1
1514898925026750,-2,0,-2,-3,-4,-1,0,-1
1514898925026750,2,1,-2,-1,0,-2,-1,-1
1514898925027242,-4,-3,-2,-1,0,-1,-2,-2
1514898925027242,0,-1,-1,0,0,-4,0,-1
1514898925056262,-2,-1,0,0,1,-1,-2,-2
1514898925056262,-4,-1,1,-3,-3,-1,-2,-3
1514898925063777,1,0,1,-2,-2,0,-2,1
1514898925063777,-1,-2,-1,-2,-1,-1,0,-1
1514898925073285,-2,-3,-3,-2,-1,0,-2,-1
1514898925073285,-2,1,-2,1,-2,0,-2,-3
1514898925073802,-2,-2,-1,1,2,-1,-1,-1
1514898925073802,0,-3,-3,-1,0,-1,0,1
1514898925086783,-2,0,1,-1,-2,0,-1,-3
1514898925086783,0,1,-1,-2,-1,-1,-1,1
1514898925087788,0,0,0,-1,-2,-1,-1,-2
1514898925087788,0,0,0,-3,-1,-1,0,1
1514898925109301,1,-1,-1,0,-3,-2,1,-1
1514898925109301,-1,0,-3,-1,0,-1,-1,-1
1514898925109799,-1,-1,-1,-2,0,0,-1,-3
1514898925109799,-3,-2,-1,0,-2,-2,-2,-4
1514898925123309,-5,0,0,0,0,-1,-1,0
1514898925123309,0,0,1,0,0,0,-1,-1
1514898925124310,-2,-3,-2,0,-2,-1,0,0
1514898925124310,-1,-4,-2,-1,-2,-2,0,-3
1514898925146826,-1,1,-1,-2,-2,-2,1,0
1514898925146826,0,0,-2,-1,-1,-1,0,-2
1514898925147327,-2,-1,-1,1,-1,-1,-1,-3
1514898925147327,0,-1,-2,0,0,-1,-2,1
1514898925169360,0,-1,0,-2,-2,0,1,-1
1514898925169360,-3,0,-1,-1,0,0,0,-2
1514898925169845,0,0,0,-2,0,-2,1,1
1514898925169845,-1,0,1,1,0,0,-1,0
1514898925183361,0,0,1,-2,0,-2,0,-1
1514898925183361,-2,0,-1,-1,-1,-1,-2,-2
1514898925184362,-1,-1,-1,-2,-3,-2,-2,-1
1514898925184362,0,-2,-1,0,0,-2,-1,-1
1514898925207882,1,-2,-2,-3,-1,-1,-2,1
1514898925207882,-1,-1,0,0,-3,-3,-1,-2
1514898925208871,-1,-2,-2,-2,-1,-1,1,-2
1514898925208871,0,-4,-1,3,1,1,-1,1
1514898925229384,-2,-1,-1,0,-2,0,-1,-1
1514898925229384,-1,-1,-4,-3,-1,-1,-1,-1
1514898925229884,0,0,-2,-2,1,-1,-1,1
1514898925229884,0,-2,-1,-1,-1,-2,-3,-2
1514898925243403,-1,-1,-1,2,0,-2,-1,-3
1514898925243403,-2,-3,0,-1,0,0,-3,0
1514898925244404,0,-1,0,-2,-1,0,-1,-2
1514898925244404,-5,-1,0,-1,-1,-3,-2,2
1514898925266420,2,0,-3,-2,-1,-1,-1,0
1514898925266420,0,2,-2,-2,-1,-2,0,-1
1514898925267420,-3,-1,0,0,-3,-2,-2,-4
1514898925267420,4,0,0,-2,1,1,1,4
1514898925288935,-2,-1,-2,-2,-2,0,-2,-2
1514898925288935,0,0,-1,-1,-1,1,-1,-2
1514898925289932,0,-2,-2,1,-3,-1,-2,0
1514898925289932,1,-3,-1,-2,-1,-1,-2,-4
1514898925303939,-2,-2,-3,0,0,-1,0,-2
1514898925303939,0,-1,-3,-5,-1,1,-2,-4
1514898925304938,-1,-1,-1,4,1,-1,-2,0
1514898925304938,-1,-2,-2,-4,-3,-1,-1,0
1514898925325952,-1,1,-1,-1,-1,-1,-1,1
1514898925325952,-3,-1,-1,1,-1,-1,-1,1
1514898925333457,-1,-3,-2,-2,0,-1,-2,-1
1514898925333457,0,-4,-1,2,-2,-2,-2,0
1514898925348981,0,-1,0,-1,-1,0,0,0
1514898925348981,-1,0,-1,-2,-1,-2,-2,-1
1514898925349978,1,-2,-1,-3,0,-1,-1,0
1514898925349978,-7,0,-2,0,0,-2,1,-2
1514898925363479,4,0,-1,0,-1,-2,-3,2
1514898925363479,-2,1,0,2,-2,0,0,1
1514898925363978,1,-2,1,-2,-2,-2,0,1
1514898925363978,-1,-2,-2,-2,0,0,0,-2
1514898925386996,-3,0,-1,-3,-2,-2,0,-3
1514898925386996,0,-2,-2,-2,0,0,-2,0
1514898925387496,-2,-2,-2,1,-1,-1,-1,0
1514898925387496,0,-2,-1,-2,-2,-1,0,0
1514898925409011,-3,0,-1,-2,-3,0,-1,-1
1514898925409011,1,-1,0,-2,-1,-1,-1,-1
1514898925410011,-1,0,0,-2,-1,0,-1,-2
1514898925410011,-2,-2,0,3,-1,-3,-2,-2
1514898925423533,-4,-2,-2,-3,-2,-1,-2,-2
1514898925423533,-2,1,-2,-2,-3,-2,-2,-3
1514898925424022,-5,0,-1,-1,-1,-1,-2,-3
1514898925424022,2,-1,-1,0,0,-1,-2,0
1514898925446537,-1,1,0,-1,0,-1,-3,0
1514898925446537,-2,-1,-1,-2,-2,-1,-1,-2
1514898925447538,-2,-2,-2,-2,-1,-1,-1,-1
1514898925447538,1,-3,0,0,0,0,0,2
1514898925469088,-2,0,-1,0,-1,0,-1,-1
1514898925469088,-1,0,-1,-3,-1,-3,-3,-2
1514898925470080,0,-1,-4,-1,0,-3,0,-2
1514898925470080,0,-2,-1,0,-1,-3,-2,-3
1514898925483597,0,-1,-1,-1,-2,0,-1,-2
1514898925483597,-3,-1,1,-1,-1,-1,0,0
1514898925484094,0,-2,-1,0,-1,-1,1,1
1514898925484094,0,-1,-2,-3,-2,0,-2,-1
1514898925506604,-2,-2,-2,-2,-1,0,0,-1
1514898925506604,-2,0,-2,0,-2,-1,-1,-3
1514898925507604,5,-2,0,-3,-1,-1,-1,4
1514898925507604,-3,-1,-1,1,-2,-1,-1,1
1514898925529133,-1,0,0,-1,-1,-1,1,0
1514898925529133,-1,-1,-4,-1,0,0,0,0
1514898925530122,-3,-1,-2,-1,-2,-1,-1,-1
1514898925530122,-1,-1,0,-3,-2,0,0,1
1514898925542639,0,1,-1,-2,-1,-3,-2,0
1514898925542639,-1,-2,-2,0,-1,0,-1,-2
1514898925551145,-3,0,-1,-3,0,-1,-1,-2
1514898925551145,0,0,0,-1,0,-1,-1,0
1514898925566146,0,-1,-1,-4,-3,-1,-2,-1
1514898925566146,-1,1,-1,2,-1,-1,-1,0
1514898925567157,-1,-2,-1,0,-1,-1,-2,-2
1514898925567157,-1,-2,1,0,-3,-1,-1,-2
1514898925589164,-2,0,-2,0,1,0,-1,-1
1514898925589164,-2,0,0,-3,-3,-1,0,-3
1514898925590164,3,-1,-1,1,0,-1,0,4
1514898925590164,-1,-2,-1,-3,-1,0,0,0
1514898925604176,0,-1,-2,-1,-1,0,0,-2
1514898925604176,-2,1,-2,1,-1,-1,0,-1
1514898925611213,-1,-1,-1,0,-2,-2,0,-3
1514898925611213,-4,-1,0,-2,0,-1,0,1
1514898925634209,1,-2,-3,-1,-2,-1,-1,-1
1514898925634209,-2,1,-2,-1,-1,-1,-3,0
1514898925637699,-2,-1,-2,0,0,-1,-1,-2
1514898925637699,-1,-1,-1,-1,2,-1,-1,-2
1514898925649232,-1,-1,1,3,-1,0,-1,-1
1514898925649232,-1,-1,-2,-7,-3,-2,0,0
1514898925650729,-1,-2,0,0,-3,-3,0,-2
1514898925650729,0,-2,-4,1,1,-3,-1,0
1514898925663215,-2,0,1,1,-1,-1,1,-2
1514898925663215,-1,-3,-1,-1,-1,-2,-1,0
1514898925679227,-2,-1,-1,-3,-1,-2,0,1
1514898925679227,0,-1,-1,0,-3,-2,-2,-2
1514898925686744,-2,-2,-1,1,0,-1,-1,-1
1514898925686744,-2,0,-1,-1,-2,0,-2,-1
1514898925688240,1,-2,-1,-5,-3,0,-2,-1
1514898925688240,2,-1,-1,-1,0,-1,0,1
1514898925709248,0,1,-1,-3,-1,-1,0,-2
1514898925709248,0,-1,-1,1,0,-1,0,-1
1514898925710749,-1,-3,-3,1,-1,0,-2,-3
1514898925710749,0,0,-1,-1,-3,-1,0,-1
1514898925722757,4,-2,-2,-3,-1,-1,-2,0
1514898925722757,-1,0,0,2,-1,0,1,-1
1514898925732264,-2,-3,-1,-3,-1,-3,0,-1
1514898925732264,0,-1,0,-2,0,-1,-1,-2
1514898925745773,-7,-1,-3,-1,-1,0,-1,-2
1514898925745773,-1,-1,-2,0,-3,0,-2,0
1514898925754280,0,-1,0,-1,-1,-1,0,-1
1514898925754280,-2,-3,0,1,-3,-1,0,0
1514898925769290,-2,-2,0,0,-1,-1,-1,-1
1514898925769290,0,0,1,-3,-2,-2,-1,-3
1514898925770806,-1,0,-3,0,-4,-1,1,1
1514898925770806,-1,-3,-4,-3,0,-2,-2,-2
1514898925782799,0,0,-1,0,-1,1,-1,0
1514898925782799,-2,-1,-1,0,0,0,-1,-1
1514898925791806,0,-1,-2,0,-1,-3,-2,-3
1514898925791806,-1,-2,0,1,-1,-1,0,-1
1514898925806818,0,-1,-1,-2,-1,-2,0,0
1514898925806818,0,-1,-1,0,-1,0,-3,-2
1514898925816324,-2,-1,-1,0,0,0,-2,0
1514898925816324,-2,-2,-1,-3,0,-1,-1,-1
1514898925829346,-2,-1,-2,0,-3,-2,0,-4
1514898925829346,0,1,-1,-2,-1,-1,1,4
1514898925830833,2,-2,-2,0,-1,-1,-2,-1
1514898925830833,-1,-2,-1,-1,-1,-1,-2,-1
1514898925852348,-1,0,-3,0,0,1,-1,-2
1514898925852348,-4,-1,-2,1,-2,0,0,-3
1514898925854851,-5,-1,0,-1,-1,-1,0,-2
1514898925854851,-2,-1,0,-2,-1,-2,-2,-1
1514898925866358,-5,-1,-2,-3,-1,-2,-2,0
1514898925866358,-3,-2,-2,1,-2,-1,-2,-2
1514898925868360,2,-3,-1,1,-2,-1,-2,3
1514898925868360,4,-2,-1,-3,-1,-1,0,-1
1514898925888874,1,-1,0,-1,-2,-1,-2,-1
1514898925888874,2,0,-3,-6,0,-3,-1,-4
1514898925890876,0,-2,-2,-1,0,0,1,-1
1514898925890876,0,-1,0,1,-1,-1,-2,1
1514898925911890,2,0,0,-1,0,-1,-2,0
1514898925911890,-4,-2,0,-1,0,-1,-2,0
1514898925915393,-1,-1,-2,-3,-2,-1,-3,-1
1514898925915393,-2,-3,-2,0,-2,-1,-1,-1
1514898925926401,-2,-2,-2,0,-1,-1,1,0
1514898925926401,0,0,-3,0,-1,0,-2,-3
1514898925928402,-3,-1,2,-2,0,-2,-2,0
1514898925928402,0,-1,0,1,-1,0,0,-1
1514898925948916,0,1,-1,2,0,-1,-1,-2
1514898925948916,-1,-4,-1,-4,-3,-3,-2,-3
1514898925950919,2,0,1,3,0,0,2,1
1514898925950919,-2,-1,-1,-1,-1,-1,0,-1
1514898925971446,-1,-1,-3,-3,-2,-1,0,-1
1514898925971446,-1,-1,-1,0,-1,0,1,-2
1514898925973447,-1,-3,-2,-5,0,-2,-2,-3
1514898925973447,-1,-1,-2,3,1,-2,1,0
1514898925986946,-1,-1,-3,-1,-1,0,0,-2
1514898925986946,-1,-3,-1,-2,-1,0,0,0
1514898925988448,-1,-2,-2,-2,-1,0,-2,-2
1514898925988448,-1,-2,0,-2,-1,-1,-3,1
1514898926016464,-1,0,-1,-2,-1,-1,-1,-1
1514898926016464,2,0,-1,-1,-2,-1,-1,-2
1514898926018466,-2,0,-2,-1,-2,-1,0,-1
1514898926018466,-1,-2,-2,0,-2,-2,-1,-1
1514898926031987,-2,-1,-1,-2,-1,-1,-3,-3
1514898926031987,3,0,-2,0,-1,-2,0,3
1514898926033481,-3,-1,0,-3,0,-1,-1,1
1514898926033481,0,-1,1,2,-1,0,0,0
1514898926045985,0,-3,-2,-5,-1,-1,0,-1
1514898926045985,-1,-1,-1,-2,-1,-3,-1,-2
1514898926052507,0,-1,-2,-1,-1,0,-3,-2
1514898926052507,-2,-2,-1,-1,0,-2,-1,0
1514898926069011,-2,-1,0,0,-1,0,0,0
1514898926069011,-2,2,1,0,-1,-2,-2,-2
1514898926071015,-2,-2,0,1,-1,-1,-1,-2
1514898926071015,-2,0,-1,-4,-2,-1,-2,-3
1514898926091526,0,0,-2,-3,-4,-2,-1,-2
1514898926091526,-1,1,-2,3,1,1,0,0
1514898926094019,1,0,0,-1,-1,-3,0,-1
1514898926094019,-2,-2,0,0,-1,-1,0,-1
1514898926106028,-2,0,1,0,-3,-1,-1,1
1514898926106028,-2,-3,-1,-3,-1,-1,-1,0
1514898926113033,0,-3,-2,0,0,-2,-1,-1
1514898926113033,-1,1,-1,-2,-2,0,-2,-3
1514898926129061,-5,-2,-1,-2,1,-2,-1,-1
1514898926129061,3,-3,-2,-3,-2,0,-2,-2
1514898926131547,0,-1,-2,2,1,-2,0,-1
1514898926131547,-1,-2,-2,-2,0,-2,-1,0
1514898926150574,-2,1,1,0,-1,0,-2,-2
1514898926150574,-2,0,-1,-1,-1,-1,-2,-2
1514898926159566,-2,0,-2,-1,0,-2,-1,0
1514898926159566,1,1,-2,-1,-1,0,0,0
1514898926166070,-1,-1,1,0,1,-1,-2,-2
1514898926166070,2,-2,1,-1,-1,-2,1,3
1514898926172575,0,-2,-1,-6,-2,-1,0,-2
1514898926172575,-2,-1,-1,3,0,0,0,1
1514898926188586,-1,-1,-2,0,0,-1,-1,-2
1514898926188586,-5,0,-2,0,-1,0,-2,-3
1514898926196593,0,-1,0,0,-2,-3,0,-1
1514898926196593,0,0,-2,-3,-1,-1,-1,-2
1514898926211602,-5,-1,-1,-2,-1,-1,0,0
1514898926211602,1,-1,-3,-2,0,-2,-2,-2
1514898926215105,0,-4,-1,0,-2,-2,0,-1
1514898926215105,-3,-2,-3,0,-2,-2,-1,-3
1514898926226112,0,0,-2,1,-2,-2,-2,-1
1514898926226112,-3,-2,0,-1,-2,-1,-1,-1
1514898926234118,-1,-2,1,-3,-1,1,-2,-2
1514898926234118,1,0,1,-2,-1,-3,-1,-1
1514898926249140,1,0,-1,-2,-1,0,-1,-1
1514898926249140,-1,0,-2,-1,-2,-1,-2,0
1514898926250647,-1,0,0,3,-1,-1,0,-1
1514898926250647,0,-1,-3,-2,0,0,0,0
1514898926271655,0,0,-2,-1,-1,0,-1,0
1514898926271655,-3,-2,-1,-1,0,-2,-2,-3
1514898926273145,0,-1,-2,0,-2,-1,-2,-3
1514898926273145,1,-3,-1,-1,0,0,-1,-1
1514898926286165,0,-1,-2,-1,-1,-1,0,-2
1514898926286165,-1,0,-1,0,-1,-1,0,-3
1514898926292669,-1,-2,1,-1,-2,-2,0,1
1514898926292669,-3,-1,-2,1,-1,-2,-1,-1
1514898926309172,-1,-1,-1,-3,-1,-1,0,0
1514898926309172,-1,-3,-2,-3,-2,0,-1,-1
1514898926310674,1,-2,-2,-4,-2,-2,-2,0
1514898926310674,-2,-1,0,1,0,-1,-1,-2
1514898926332188,2,-1,-1,-1,-2,0,-2,2
1514898926332188,-2,0,-1,-2,-1,-1,0,-1
1514898926334689,-3,-2,1,2,-1,-1,-1,-1
1514898926334689,0,-2,-3,-6,-3,-2,-2,-1
1514898926345196,-2,-1,-1,1,-2,-1,-1,-2
1514898926345196,-1,0,-2,-2,-1,1,0,0
1514898926354217,-1,-3,-1,-1,-1,-2,-1,-1
1514898926354217,-2,-4,1,0,0,-1,0,-2
1514898926369216,-1,1,-2,-3,-2,1,0,-1
1514898926369216,-1,-1,-1,0,1,-1,0,-1
1514898926370716,1,0,-3,0,-2,1,0,-2
1514898926370716,-1,0,-1,0,-1,0,-1,0
1514898926391729,-1,-2,-1,0,-1,-2,-2,-3
1514898926391729,0,-3,1,0,0,-1,0,-1
1514898926393236,-2,-1,-1,-1,-1,0,-2,-1
1514898926393236,0,0,-1,-4,-1,-1,-2,-1
1514898926406240,-5,-1,0,1,0,-1,0,-3
1514898926406240,4,-2,-4,0,-2,-3,-2,-1
1514898926416247,0,-1,-2,-3,-1,-1,-2,-1
1514898926416247,-1,0,-1,1,-1,1,-1,1
1514898926429268,-2,1,0,-2,-1,0,-1,-1
1514898926429268,-4,-1,-1,0,-2,-1,-1,-2
1514898926430770,-1,-2,-1,-2,0,-2,1,-1
1514898926430770,0,-2,1,0,-2,-1,-2,1
1514898926452309,-1,-2,-1,2,-2,-2,-3,0
1514898926452309,-2,1,-1,-3,-1,-1,-1,0
1514898926457777,0,-2,-1,-1,-2,0,-2,1
1514898926457777,-2,-3,-2,0,-2,-2,-1,-1
1514898926465281,1,-1,-2,-2,-1,0,-1,2
1514898926465281,-1,1,0,-3,-1,-1,-1,-2
1514898926474287,-3,0,0,1,-1,-3,-1,-4
1514898926474287,2,0,-2,-1,0,-1,0,3
1514898926489298,-1,-1,-2,-2,-2,-2,-1,-2
1514898926489298,-2,-1,-2,-1,0,-3,-2,-3
1514898926490799,-1,0,0,1,-1,-1,-1,-2
1514898926490799,-2,-1,0,0,-2,-2,0,-1
1514898926511824,3,2,0,0,0,1,0,0
1514898926511824,-6,-2,-1,-4,-2,-1,-2,1
1514898926515326,1,-3,-2,-1,-1,-1,-1,-2
1514898926515326,-2,2,-1,0,-1,-1,-1,-1
1514898926534332,-2,-1,0,-1,-2,-2,0,-2
1514898926534332,-3,-2,-1,1,-1,-1,-1,-1
1514898926535843,0,-1,-1,-2,-2,0,-3,2
1514898926535843,1,-1,0,-3,0,0,-1,-1
1514898926549350,-2,-2,-4,-1,-1,-1,-3,-3
1514898926549350,-1,-2,-3,-1,-1,0,-1,-1
1514898926550852,-1,-2,-1,0,0,-2,0,2
1514898926550852,0,0,-1,-2,0,-1,-1,-3
1514898926571856,0,1,1,-2,-2,-2,-1,-1
1514898926571856,0,1,1,1,-1,-1,-2,-2
1514898926573359,-2,-1,-2,-1,-3,1,-2,0
1514898926573359,-2,0,-1,2,-2,0,-1,-2
1514898926585366,-1,-2,-1,-1,-1,-1,0,-1
1514898926585366,0,-2,-1,0,-1,-1,0,-1
1514898926594373,-1,-2,-1,-2,0,-2,-2,-1
1514898926594373,0,1,0,-2,-1,-2,-1,0
1514898926609884,-5,-1,-1,-1,-1,0,-1,-1
1514898926609884,1,-2,-1,-2,-1,-1,0,-2
1514898926611885,-1,-2,-1,-1,0,-1,-1,0
1514898926611885,-2,-1,-4,-1,-1,-1,-1,-3
1514898926638404,-4,-1,-1,-1,-1,0,-1,-3
1514898926638404,2,-3,1,-1,-2,-2,0,3
1514898926647431,-1,-1,-1,-1,2,-1,1,-1
1514898926647431,-1,-1,-1,-1,-1,-2,0,0
1514898926648414,1,-1,0,-1,-1,-1,-1,-3
1514898926648414,-2,0,0,-1,-1,-1,-4,0
1514898926654416,-2,-2,0,2,-2,-2,-1,-3
1514898926654416,-1,-2,-1,-4,-1,0,-1,-1
1514898926668926,0,0,-1,-2,-1,0,-1,1
1514898926668926,0,-2,-1,3,1,-1,-2,-2
1514898926670929,0,-2,-1,-3,-2,-1,-1,0
1514898926670929,-2,-1,0,3,-1,0,-2,-3
1514898926691942,1,-1,-1,-3,-1,-1,-2,0
1514898926691942,1,-1,-1,-2,-2,-2,0,-3
1514898926693944,-6,-1,-1,0,0,-2,-1,0
1514898926693944,0,-1,0,0,-2,-3,-2,-4
1514898926705451,4,2,-2,-3,-1,0,1,3
1514898926705451,0,-1,-3,-1,-1,0,1,1
1514898926715959,-2,-1,-1,0,-1,-2,0,0
1514898926715959,-2,-1,0,0,-2,-2,-1,-2
1514898926728968,-2,0,1,0,-2,-2,-2,-3
1514898926728968,-3,-2,0,0,-1,-1,-2,-3
1514898926730969,2,-2,-1,-2,-1,-1,-1,0
1514898926730969,-1,0,0,-1,-1,-2,-1,0
1514898926751487,0,0,-1,-2,-1,-2,-1,-2
1514898926751487,0,-2,-3,-2,-4,0,0,0
1514898926757988,-1,-3,0,-2,-2,-2,-1,-3
1514898926757988,0,-2,-3,-1,-2,0,-1,0
1514898926764993,-5,0,-1,0,0,0,-1,-2
1514898926764993,2,-2,-2,-2,-1,0,-1,4
1514898926774501,-2,-2,0,-1,0,0,-1,0
1514898926774501,4,-3,-2,-3,-1,-1,0,-1
1514898926789011,-2,0,-1,-4,-2,-2,-2,-2
1514898926789011,-3,-1,1,3,0,0,-3,-4
1514898926790511,1,0,-2,-1,-1,-3,0,0
1514898926790511,-2,0,-1,-1,-1,-1,0,0
1514898926811527,0,-2,-2,-1,-2,-1,0,-1
1514898926811527,0,-1,-2,-3,0,-2,-1,-3
1514898926815029,-1,-3,-2,-1,-1,0,0,-1
1514898926815029,-2,-3,-1,1,0,0,-2,0
1514898926834047,-1,0,0,2,-2,-3,-1,0
1514898926834047,-3,0,-3,-1,0,-1,-1,-3
1514898926835546,-2,-1,-2,-1,-2,0,-1,-3
1514898926835546,2,1,0,-1,1,1,1,5
1514898926849065,1,2,-2,0,0,0,0,-3
1514898926849065,-1,0,-2,-1,-2,-2,-2,-1
1514898926850555,-3,-2,0,-2,-3,0,-1,-2
1514898926850555,-2,0,-1,1,1,0,-1,-1
1514898926872076,-4,-1,-2,1,0,0,-1,0
1514898926872076,4,-1,-1,-2,-2,-3,-1,-3
1514898926873570,1,-1,-3,-2,1,-2,-2,1
1514898926873570,-3,0,0,0,-2,0,-1,-2
1514898926894113,-1,1,-1,0,0,-1,-1,-1
1514898926894113,-2,-1,0,-3,-2,-2,-2,-2
1514898926901089,0,-2,0,2,-1,-2,-1,0
1514898926901089,-3,-2,-6,-2,2,-2,-2,-1
1514898926909095,-3,-2,0,-2,-2,-1,0,-3
1514898926909095,-2,-1,-1,1,-2,-1,-1,1
1514898926910596,1,-2,-1,-1,1,-1,0,0
1514898926910596,-2,0,1,-2,-2,-1,-2,-1
1514898926932113,-1,-1,-3,-1,0,0,-2,-2
1514898926932113,-2,0,0,1,0,-1,0,0
1514898926934613,-1,-2,-2,-2,0,-1,0,0
1514898926934613,-2,-1,0,1,-1,-1,-1,-2
1514898926954127,-1,-1,-3,-3,-1,-1,0,-1
1514898926954127,1,1,0,-2,-2,-1,-1,-1
1514898926955628,-5,-1,-1,0,0,-2,-1,-2
1514898926955628,3,-1,-3,-4,-1,-1,0,-2
1514898926968651,-1,-1,1,1,-2,0,0,-2
1514898926968651,-2,-4,-2,-2,1,-2,-1,-1
1514898926975154,-1,-1,0,0,-1,0,-1,-3
1514898926975154,2,-1,-2,-2,-2,-1,-2,3
1514898926991663,-1,-1,-1,0,-1,-1,-1,0
1514898926991663,0,1,-2,-4,-2,-2,0,1
1514898926993164,0,0,-1,0,0,-1,-4,-1
1514898926993164,-3,1,-1,2,0,0,-1,-2
1514898927015170,2,0,-4,-3,-2,1,-3,-2
1514898927015170,-1,-2,-1,-1,-2,0,-1,0
1514898927018673,1,-2,-1,-2,0,0,0,0
1514898927018673,-2,1,-1,0,-1,-3,0,0
1514898927028680,-1,2,-1,1,-2,-2,-2,0
1514898927028680,-1,-3,-2,-3,-1,-2,0,-2
1514898927035194,0,-2,-1,-1,-3,-2,0,1
1514898927035194,-3,-2,-1,-2,0,0,-1,-2
1514898927052222,-2,-1,-3,-1,-1,-1,-1,-1
1514898927052222,0,-2,0,0,0,-1,-2,0
1514898927054699,2,-2,-1,1,0,-1,-1,-2
1514898927054699,-2,0,0,-2,-3,-2,-1,-1
1514898927074224,0,1,-1,-3,-2,0,-3,-1
1514898927074224,-6,-3,0,0,2,0,0,-2
1514898927075723,-1,-5,-2,-1,-1,-2,-2,-1
1514898927075723,-2,-1,-1,-2,1,-1,-1,-2
1514898927088722,0,1,-1,0,0,-1,-1,-3
1514898927088722,0,0,0,1,-1,-1,0,0
1514898927095226,-2,-2,0,-1,0,-2,0,-2
1514898927095226,-2,0,-2,-1,-1,-1,-1,-1
1514898927111238,-1,-1,-1,-2,-1,0,-1,-2
1514898927111238,0,-3,-2,1,-2,-2,-1,-2
1514898927117743,0,-2,-1,-1,0,-2,1,1
1514898927117743,0,-2,0,1,-2,-1,-1,-2
1514898927134755,-1,-1,0,-1,-3,-2,1,-2
1514898927134755,0,-2,-1,-2,-1,-1,-1,2
1514898927137756,0,-1,-2,-2,-2,-3,-2,1
1514898927137756,-2,-2,-2,-1,-2,-1,-3,0
1514898927156780,-1,-3,-3,-3,0,-3,0,0
1514898927156780,-1,-1,-1,1,0,-2,0,-2
1514898927158280,-3,0,-1,-3,-1,-2,1,1
1514898927158280,-1,0,0,0,-1,1,-3,0
1514898927171280,-2,1,-1,0,0,-1,-1,-2
1514898927171280,1,-2,-1,-2,-1,-3,-2,-2
1514898927177794,-1,-1,0,2,-1,-2,-2,-1
1514898927177794,1,1,-2,-4,-3,-1,-1,-2
1514898927194306,-5,-1,0,1,1,0,0,2
1514898927194306,0,-1,-2,0,-2,0,0,-1
1514898927196816,1,-2,-1,1,1,0,-1,-1
1514898927196816,-1,-2,1,1,-4,0,0,-2
1514898927208309,-2,-1,1,-2,-1,-2,-2,-3
1514898927208309,-2,-1,-1,1,0,0,-1,-1
1514898927216312,-2,-1,-2,-2,-2,-2,-1,-3
1514898927216312,4,0,-2,0,1,1,1,5
1514898927231846,-1,-2,-3,-1,-2,-1,0,-2
1514898927231846,0,-2,-1,-3,-2,-1,-1,-2
1514898927234325,1,-2,-1,-2,0,0,0,0
1514898927234325,-3,0,-1,-2,-1,-3,-2,-2
1514898927254356,1,-1,-1,-2,-4,-1,-1,-1
1514898927254356,-1,2,-1,-1,1,-1,-1,-1
1514898927255842,-1,-2,-1,1,0,-2,0,1
1514898927255842,-2,-1,-1,-4,-1,0,0,-3
1514898927268850,-1,0,-1,-3,-1,-1,0,-3
1514898927268850,2,-3,-1,0,-2,-2,-2,0
1514898927275354,-1,-1,0,0,0,-1,-1,-2
1514898927275354,-2,0,-1,-2,1,-1,-1,-2
1514898927291866,-2,1,-4,-1,-1,0,-1,-2
1514898927291866,2,0,-1,-2,0,-2,1,4
1514898927293366,-1,0,1,0,-2,-1,-2,1
1514898927293366,-1,-2,-4,1,-1,-1,-1,-2
1514898927313881,-1,0,0,0,0,0,0,1
1514898927313881,-3,-2,-1,-1,-2,2,-1,-3
1514898927315882,-1,-2,-2,-2,-2,0,0,1
1514898927315882,-1,0,-1,-1,0,-2,0,-3
1514898927328892,-1,-2,-1,0,0,0,-2,-1
1514898927328892,-3,-1,0,-3,-1,-2,-1,-2
1514898927336897,2,-3,-1,-2,-2,0,-2,1
1514898927336897,-1,-2,-1,-2,-2,-1,0,-2
1514898927351408,-2,2,-1,-2,-2,-2,-2,-2
1514898927351408,3,-1,-1,2,0,-2,-1,1
1514898927354410,-3,1,-2,-1,-2,-1,0,-3
1514898927354410,-1,0,-3,1,0,-1,-2,-2
1514898927374425,1,0,-1,-2,-3,-2,-1,-2
1514898927374425,-4,-3,-1,-2,-1,0,0,-1
1514898927375935,-1,-3,0,1,0,-1,-1,-2
1514898927375935,0,-1,-2,-1,1,-2,1,1
1514898927387938,-3,-1,0,-1,-2,-1,-1,0
1514898927387938,-1,-2,-2,0,-1,-2,-1,-2
1514898927396949,-1,-2,-3,0,-1,-1,-1,-2
1514898927396949,-1,0,-1,-2,0,0,-3,0
1514898927411462,0,0,-1,-1,-2,-1,-1,0
1514898927411462,0,-2,1,1,-2,-2,-1,-1
1514898927418965,-5,-1,-3,-3,-1,-1,-1,-3
1514898927418965,1,0,1,0,-2,0,-1,2
1514898927433976,-2,-2,-2,0,1,-2,-1,-2
1514898927433976,-1,0,-1,-4,-3,-2,-2,-1
1514898927435467,-1,-2,1,1,0,-2,0,-1
1514898927435467,-4,-2,-1,-1,-2,-1,-1,-3
1514898927447996,-2,0,0,-2,0,0,-2,0
1514898927447996,-1,-1,-3,-3,0,1,-2,-1
1514898927456482,2,-1,0,-2,-1,-1,0,2
1514898927456482,-1,-1,-2,-1,-2,0,-1,-1
1514898927471493,1,0,-1,0,-2,0,1,-2
1514898927471493,-3,0,-2,-3,-1,-2,0,-3
1514898927472995,2,-1,-1,-2,-2,-1,-1,2
1514898927472995,0,-1,-1,-1,0,-3,-1,-1
1514898927494010,-2,-1,-2,-1,-1,-3,-2,-2
1514898927494010,2,0,-1,0,1,0,0,0
1514898927495519,-6,-3,-1,0,-1,-1,-1,-1
1514898927495519,-1,0,-1,-4,-1,-1,-1,-2
1514898927507518,0,0,0,1,-1,0,-1,0
1514898927507518,-1,-2,-1,0,-1,-1,-2,-2
1514898927517525,-1,-1,-1,-1,0,0,-1,1
1514898927517525,-2,-1,-1,1,-1,1,-1,-1
1514898927531535,-1,0,-1,-2,-1,-2,-1,-1
1514898927531535,-2,1,-1,-1,-2,-1,0,1
1514898927534037,1,-1,-3,-4,-1,-1,0,-2
1514898927534037,-1,-2,-1,-2,-1,-2,-1,-2
1514898927554052,0,-2,-1,-1,-1,1,-3,-2
1514898927554052,-2,-2,1,2,-1,-2,-1,-1
1514898927555551,0,-1,0,-1,-3,-1,-1,0
1514898927555551,-3,0,-2,-3,-1,0,0,-2
1514898927567561,1,1,0,0,-3,-1,0,0
1514898927567561,0,-3,-2,-1,-2,-2,-3,-1
1514898927576566,-5,1,-3,-1,-1,0,-1,-1
1514898927576566,3,-2,-2,-1,-2,-2,-2,-1
1514898927591577,-2,-1,-1,-1,0,0,0,-1
1514898927591577,-1,-2,-1,-2,-3,-2,-2,0
1514898927593078,3,0,-1,-2,-1,-2,-1,0
1514898927593078,-3,-1,0,2,0,-1,-1,-1
1514898927614594,-2,-2,-1,1,-1,0,0,-2
1514898927614594,-4,-2,-3,0,1,-1,-2,-2
1514898927618096,0,-2,1,1,0,-1,-1,-1
1514898927618096,-2,-1,0,-3,-2,0,-2,-1
1514898927627603,-1,-2,-2,-1,-2,-3,0,-2
1514898927627603,-1,-1,0,-1,-1,-2,1,-2
1514898927636609,-1,0,-1,2,0,-1,-1,0
1514898927636609,-2,0,-2,0,-1,-1,0,-1
1514898927651622,-1,0,-2,-2,-1,-1,-2,-1
1514898927651622,-1,-1,-1,0,0,-1,-1,1
1514898927653135,-1,-3,-2,-1,-1,0,-1,1
1514898927653135,-2,1,-1,1,-1,-1,-1,-1
1514898927674740,-2,-1,-1,-9,-2,-1,-1,-1
1514898927674740,-1,-2,0,1,-1,-1,-1,-2
1514898927675740,1,-2,-1,-2,-1,0,-1,-1
1514898927675740,-2,0,0,-1,-2,0,0,0
1514898927688248,1,0,-1,0,-1,-2,-1,-1
1514898927688248,-3,0,-1,-2,-2,0,-1,-1
1514898927696754,3,-3,-2,0,-1,-2,-1,-3
1514898927696754,0,0,-2,-1,-1,-1,-2,-2
1514898927711766,-1,1,-1,-2,-2,-2,-3,-3
1514898927711766,0,-3,-2,-4,-2,-1,0,-1
1514898927713266,-2,-2,-1,4,1,-1,-1,0
1514898927713266,-2,-1,0,-1,-3,0,0,-1
1514898927733792,-1,-2,-2,-1,-3,-1,-1,1
1514898927733792,0,-2,0,-1,-2,-4,0,-2
1514898927740285,-1,1,-1,-2,-3,-3,-1,-2
1514898927740285,-2,-1,-2,-3,-1,-3,-1,-1
1514898927756819,-4,-1,-1,0,-1,0,-2,-2
1514898927756819,-1,-3,-2,-3,-1,-1,-1,0
1514898927758298,-2,0,0,3,0,0,-1,1
1514898927758298,-1,-1,1,0,-2,-1,-1,0
1514898927772818,-1,-1,-4,-6,-1,-1,-2,0
1514898927772818,0,-2,-1,-4,1,-1,0,0
1514898927777813,1,-2,-1,-2,-1,-1,-3,0
1514898927777813,-3,-1,-1,0,-1,-2,-2,-1
1514898927794336,-1,-2,-2,1,-2,-2,0,-1
1514898927794336,-2,-1,0,-1,-1,0,-1,-1
1514898927795835,-1,0,-1,3,0,-1,0,-1
1514898927795835,-1,-2,-4,-2,0,0,0,0
1514898927816839,0,-1,-1,-1,0,0,-1,-1
1514898927816839,-6,0,-2,-3,-2,-3,-2,0
1514898927820342,-1,-2,0,-3,-2,-1,-1,-3
1514898927820342,0,0,2,2,-2,-1,-2,1
1514898927831850,0,0,0,3,0,-1,0,-1
1514898927831850,-1,-2,-2,-5,-1,-2,-2,-2
1514898927834355,-1,-1,3,-2,-4,-1,-2,0
1514898927834355,-1,-2,-5,0,5,2,1,-2
1514898927861871,-2,-2,-1,-3,-2,-1,0,-1
1514898927861871,2,0,0,0,-3,-1,-1,-2
1514898927863373,-1,-2,-3,2,0,-2,-1,-1
1514898927863373,-1,-1,0,-2,-4,-2,-2,-3
1514898927877384,-1,-3,1,1,-1,0,-1,-1
1514898927877384,1,-2,0,-4,-2,0,-1,2
1514898927880385,0,-1,-4,-12,-2,-2,-1,-1
1514898927880385,-1,1,0,3,1,0,0,-1
1514898927890898,0,-2,-1,-1,0,-2,-3,-1
1514898927890898,1,0,0,5,-1,-2,-1,-1
1514898927897897,-3,-1,-1,0,-2,-1,-2,-1
1514898927897897,-2,-1,-1,-2,-2,-2,-1,0
1514898927914408,0,-2,1,0,-1,-2,-1,-2
1514898927914408,0,-1,-2,1,-1,-1,0,-2
1514898927915909,-4,0,-1,0,-2,-1,1,-1
1514898927915909,2,-4,-2,-3,-3,0,0,0
1514898927936924,-2,-1,-1,-1,-2,1,-2,-2
1514898927936924,-1,-2,-2,-2,-2,-1,0,-2
1514898927938425,-1,-3,0,-2,1,-1,0,0
1514898927938425,-2,1,0,-4,-2,-2,-1,-2
1514898927950934,-3,0,-1,0,-1,0,0,-1
1514898927950934,0,-1,-1,-1,-1,-1,0,-1
1514898927957940,-1,-1,-2,0,-2,-2,-1,-1
1514898927957940,-1,2,1,2,-2,-2,-1,0
1514898927974455,-4,-3,-6,-6,-1,0,-3,-6
1514898927974455,3,-3,-1,1,0,-1,-1,4
1514898927975955,0,-2,0,2,1,0,1,0
1514898927975955,-2,-1,-2,-1,-1,-1,0,-1
1514898927997466,0,-1,1,3,-1,-1,1,-1
1514898927997466,-2,0,-2,-2,-1,0,-1,-1
1514898927998968,-1,0,-1,-2,-1,-2,-2,0
1514898927998968,0,0,-1,4,0,0,0,-2
1514898928010981,-1,-1,-1,-4,-1,-3,0,0
1514898928010981,-1,-3,-2,0,-1,0,-2,-2
1514898928017982,-1,-2,0,0,-2,-1,0,-1
1514898928017982,-3,-1,-1,-3,-2,-1,-1,-2
1514898928033993,-1,-1,0,1,-2,-1,-1,1
1514898928033993,-3,-2,-2,-2,-1,-1,0,0
1514898928036994,1,-1,0,-3,-2,-1,-2,0
1514898928036994,-2,0,-4,-1,-3,0,0,-2
1514898928057009,-1,-2,-2,1,-2,-3,0,-1
1514898928057009,-2,-1,1,-1,0,0,-2,-4
1514898928058511,4,1,1,2,0,1,0,4
1514898928058511,0,-1,-2,-7,-1,-1,-1,-2
1514898928071019,-1,1,0,0,1,-1,-1,0
1514898928071019,-2,-2,-1,5,-1,-1,-1,0
1514898928078026,-1,0,-1,-5,-1,-1,0,-3
1514898928078026,1,0,-1,-1,-2,-2,-3,0
1514898928101539,0,0,-1,-2,0,-1,-1,-1
1514898928101539,-1,-2,-3,0,0,0,-2,0
1514898928103040,-3,-3,-1,3,0,1,-1,-2
1514898928103040,-1,1,-1,-2,-3,0,-1,-3
1514898928117050,-2,-1,-1,0,-2,-2,0,-1
1514898928117050,1,0,-3,-5,-1,-3,-1,-2
1514898928118552,-4,-2,0,1,-1,-2,-2,-2
1514898928118552,-2,-2,-1,0,-2,-3,-3,-4
1514898928131060,2,-2,-5,-5,-2,-1,0,5
1514898928131060,-2,-1,1,-3,-2,0,0,0
1514898928137565,-2,1,-1,4,2,-1,0,0
1514898928137565,0,-1,-3,-3,1,0,-1,-2
1514898928154079,0,-1,1,4,-1,0,0,-3
1514898928154079,-2,-1,-5,-2,-1,-2,0,0
1514898928157579,-1,-4,-2,0,-2,-1,-1,-3
1514898928157579,-6,-1,1,-3,-1,-1,0,0
1514898928176594,2,2,-1,-2,-2,-1,0,4
1514898928176594,12,-5,-2,-3,-3,-4,-2,-2
1514898928178094,-12,0,1,-6,-4,-2,-1,-2
1514898928178094,1,-1,1,15,4,1,2,-1
1514898928191121,-15,-5,-6,-4,0,-1,-2,-6
1514898928191121,1,1,2,0,-1,-2,-2,-1
1514898928197617,4,3,-3,-8,-3,-1,0,-2
1514898928197617,0,3,1,-5,-1,1,3,9
1514898928215120,-15,-10,-5,0,-3,-1,-3,-8
1514898928215120,4,-4,-1,0,-1,0,-3,-4
1514898928218623,-3,-2,-2,1,1,-3,-3,-2
1514898928218623,-2,0,-5,-6,-3,-2,-2,-3
1514898928236648,6,3,3,-1,-4,-1,1,1
1514898928236648,5,2,-2,2,3,0,1,-3
1514898928238139,0,4,5,1,-2,2,4,3
1514898928238139,2,-8,-5,-6,-2,-2,-2,-1
1514898928250655,-8,-4,-2,2,1,-4,-3,-2
1514898928250655,-2,-3,2,-4,-1,-2,0,0
1514898928265166,11,6,-4,-2,0,-2,0,1
1514898928265166,0,1,-2,-1,0,-1,-3,-4
1514898928274161,13,3,2,-4,1,3,3,1
1514898928274161,-6,0,-4,2,-1,-1,0,-1
1514898928275663,-5,-9,1,-1,-1,0,1,4
1514898928275663,-1,3,-3,1,-3,-3,-3,-8
1514898928296679,11,1,-2,0,-1,-1,-3,2
1514898928296679,3,-1,1,-2,-1,-1,0,3
1514898928298188,6,2,-2,5,0,-1,-3,-3
1514898928298188,-20,-6,0,-5,-3,-3,-5,-7
1514898928310197,0,-1,2,2,0,1,1,-3
1514898928310197,-8,-4,-3,-3,-2,0,2,3
1514898928319208,-8,-6,1,0,-3,-1,-8,-11
1514898928319208,16,4,1,1,1,1,-1,8
1514898928334213,-23,-1,-4,0,-1,-3,-1,-5
1514898928334213,-16,-2,4,0,-2,-3,-1,-2
1514898928335715,7,-7,-5,-5,-1,-1,-2,0
1514898928335715,-6,1,-6,0,-1,1,2,1
1514898928356729,23,-2,3,-6,-4,-3,-1,4
1514898928356729,-2,-1,-2,0,-1,-1,0,-5
1514898928358221,-16,-3,10,8,0,-2,-1,-4
1514898928358221,1,1,-17,-9,-4,0,1,-3
1514898928370239,10,7,-10,-10,-3,-1,-2,0
1514898928370239,3,0,10,7,0,2,-2,3
1514898928379236,-12,-1,-3,-2,0,1,0,-1
1514898928379236,7,-2,11,9,-1,-1,-1,-1
1514898928401780,4,10,3,12,2,0,0,4
1514898928401780,0,-6,-24,-17,-3,-3,-4,-2
1514898928405284,2,-8,-6,-9,-2,-1,-2,-2
1514898928405284,-26,-6,4,4,1,-1,0,-2
1514898928416792,-12,2,8,-1,-1,-1,2,4
1514898928416792,-3,4,8,7,-1,-3,-10,-16
1514898928418294,-4,-9,-3,2,2,0,1,6
1514898928418294,0,1,-4,-4,-1,1,-1,2
1514898928430303,-4,-6,0,1,1,0,-3,-5
1514898928430303,17,4,-8,-8,-5,-3,4,5
1514898928439308,11,9,-3,-5,-3,-1,1,2
1514898928439308,-4,2,3,5,2,-2,-1,-4
1514898928454319,-9,-9,1,5,-1,-2,-3,-5
1514898928454319,-22,-6,-8,-6,2,0,1,-2
1514898928455833,32,4,-2,1,-5,-4,-2,4
1514898928455833,-8,-2,-7,-9,-2,-1,0,4
1514898928476834,4,-5,2,-6,-3,-3,-3,-10
1514898928476834,-3,-3,7,6,1,0,4,12
1514898928478337,14,5,0,4,-1,-2,-6,-7
1514898928478337,7,0,-3,1,-1,-1,-2,-3
1514898928490345,-3,-2,-7,-7,-3,-1,-1,-4
1514898928490345,1,-2,1,-2,-3,0,-1,0
1514898928499351,-5,1,-3,-2,-1,0,0,0
1514898928499351,10,2,6,4,0,2,3,0
1514898928514871,-16,-10,-5,0,-3,-6,-7,-8
1514898928514871,-10,-3,-6,-8,-3,-3,-1,-2
1514898928517363,6,-3,1,-1,-1,-1,1,-12
1514898928517363,15,1,-6,-4,-3,-3,-7,6
1514898928536388,14,8,4,10,0,4,2,3
1514898928536388,-20,-3,7,-2,-1,-4,-4,-9
1514898928538378,-8,3,-10,-12,0,1,5,6
1514898928538378,-10,-9,0,-2,-3,-1,1,-8
1514898928550396,2,-3,3,3,0,0,13,9
1514898928550396,3,0,3,10,0,-2,-13,-10
1514898928560394,-1,1,-5,-16,-2,2,-2,0
1514898928560394,-13,4,-3,-2,3,1,2,7
1514898928581909,-10,3,-8,-12,-2,-3,-4,-5
1514898928581909,-4,-7,11,18,1,0,3,-7
1514898928583925,-5,1,-3,-5,-3,-4,-3,1
1514898928583925,-11,-3,-7,-6,-4,0,2,-3
1514898928596420,-10,-7,-1,0,-3,-2,8,1
1514898928596420,22,10,1,-1,0,0,-6,-1
1514898928598420,-5,-1,8,10,1,0,7,10
1514898928598420,-18,7,0,-2,-7,-5,-5,-7
1514898928610428,6,-10,-13,0,0,-2,-2,-1
1514898928610428,0,-3,-9,-14,-4,-1,7,13
1514898928619435,-13,-3,-1,3,-1,2,-3,5
1514898928619435,9,19,2,1,1,-2,7,-21
1514898928633958,-6,-28,-6,-10,-3,3,-14,0
1514898928633958,-1,5,10,4,1,-1,11,-7
1514898928635955,-7,-17,-14,-3,0,-2,-13,-6
1514898928635955,15,-2,24,8,-2,-1,14,32
1514898928656974,3,29,-3,-13,-3,-7,-37,-20
1514898928656974,-11,-36,-17,-4,1,2,-6,-7
1514898928658963,34,2,-4,-4,-3,-1,2,7
1514898928658963,23,8,9,7,1,3,7,1
1514898928670971,-19,2,-12,0,-1,-3,-13,-6
1514898928670971,3,4,-1,-1,2,2,2,15
1514898928686992,-27,8,4,3,-1,-3,-3,-8
1514898928686992,1,-6,0,-1,-1,0,-6,11
1514898928693989,35,31,23,9,1,1,24,20
1514898928693989,-3,-18,-10,-19,-2,-3,-19,-23
1514898928695490,-29,-20,-25,-7,-5,-7,9,-18
1514898928695490,5,9,4,2,5,6,-9,1
1514898928718005,3,-8,-2,-4,2,0,17,10
1514898928718005,13,7,17,16,-1,-6,-31,-4
1514898928721510,-9,2,4,-5,1,3,-7,4
1514898928721510,-9,-5,-6,-9,-5,-7,7,5
1514898928739021,10,3,-18,1,-1,-2,-9,-27
1514898928739021,-23,-24,2,-2,-1,0,21,15
1514898928740522,-8,1,-1,4,-2,-5,5,-22
1514898928740522,0,6,-21,-8,-2,-1,-19,-14
1514898928754033,-27,-22,13,2,-2,1,19,21
1514898928754033,40,19,2,6,-3,-5,2,8
1514898928756033,-3,-1,-2,-3,-2,-7,-32,-7
1514898928756033,-19,-5,15,-4,-2,-4,-25,-37
1514898928776547,-14,6,-10,-2,1,-1,-3,-11
1514898928776547,4,18,-3,-3,-1,3,12,6
1514898928778048,-5,-18,9,3,0,1,10,3
1514898928778048,43,-8,-14,-8,-1,1,24,12
1514898928799063,-87,11,5,1,-1,0,-20,-6
1514898928799063,6,4,-27,-15,-6,-4,-2,7
1514898928802580,45,-27,18,3,0,-1,7,-19
1514898928802580,5,-44,-61,-10,-8,-9,-8,-15
1514898928815074,-33,15,4,4,1,4,20,21
1514898928815074,27,23,16,8,2,-3,2,10
1514898928820078,10,-5,39,-8,-9,-3,4,1
1514898928820078,-13,-66,-8,-13,-9,-5,-23,7
1514898928836590,38,-31,-42,-22,-6,-3,2,-4
1514898928836590,-36,30,35,-6,4,5,12,2
1514898928838097,70,55,56,16,-1,-3,9,55
1514898928838097,-35,12,-2,5,1,-3,-10,-36
1514898928859105,-6,-4,-6,-6,-3,-1,7,52
1514898928859105,-64,-13,39,10,2,4,-12,-98
1514898928860606,-19,25,-52,-4,5,7,10,52
1514898928860606,-22,18,6,-2,-4,-2,13,-43
1514898928873614,18,-35,8,-1,-3,-4,1,-3
1514898928873614,14,5,-5,6,-7,-6,-15,16
1514898928880120,-51,5,18,-1,10,5,8,-10
1514898928880120,-25,35,-14,-2,-1,3,-2,11
1514898928896631,21,-42,0,-5,-3,-5,-10,12
1514898928896631,24,11,0,4,0,1,21,7
1514898928899133,-25,-23,-9,0,-7,-9,-46,-20
1514898928899133,-61,-33,-14,-4,-3,-2,2,16
1514898928919148,17,-24,-9,3,2,-3,-9,-63
1514898928919148,-7,16,-10,-5,-2,-5,8,19
1514898928920649,12,-14,-45,4,2,6,4,6
1514898928920649,45,36,41,3,8,2,-1,5
1514898928933658,-20,2,-6,8,-4,-3,-26,-1
1514898928933658,33,-38,-7,8,7,2,-4,-48
1514898928940176,-15,15,0,-15,-5,-2,7,-33
1514898928940176,36,-2,39,14,0,-4,-14,42
1514898928956674,35,14,-29,-15,-6,1,-3,10
1514898928956674,-8,42,-21,-1,1,-3,3,0
1514898928960176,-57,-57,6,10,2,7,29,74
1514898928960176,68,28,20,-2,-4,-7,-23,-88
1514898928979191,-5,72,-2,-20,-7,-9,-29,-32
1514898928979191,-53,-61,2,5,2,-1,4,30
1514898928980691,20,-15,-2,10,0,-1,18,12
1514898928980691,-43,42,-18,-11,-4,-1,-33,-29
1514898928994230,-16,-20,-36,-5,1,-2,21,-2
1514898928994230,23,6,-9,-18,-4,-1,-17,-1
1514898929003737,7,28,10,10,-2,-6,-2,-6
1514898929003737,16,5,-13,-4,-1,2,9,34
1514898929016745,-5,-6,41,19,2,2,4,-3
1514898929016745,41,9,-22,-4,12,4,28,73
1514898929018246,17,34,31,-2,-3,0,-23,39
1514898929018246,-35,-45,-34,-11,-11,-6,5,-73
1514898929039261,18,-9,21,11,0,-2,-22,-32
1514898929039261,-40,-13,-26,-15,-8,-1,3,7
1514898929040762,4,19,15,-6,0,0,-7,-29
1514898929040762,-71,-47,-20,6,6,6,21,49
1514898929054284,24,37,36,12,3,1,20,16
1514898929054284,82,-2,9,5,-6,-5,-3,3
1514898929060285,-31,-18,-26,-23,0,-5,-9,-56
1514898929060285,-23,38,10,1,-2,-1,14,53
1514898929076798,34,-17,1,7,6,5,-2,-9
1514898929076798,-3,-22,-26,-11,-6,-3,-1,27
1514898929078298,-38,22,15,8,-1,1,-5,-50
1514898929078298,33,-11,17,1,2,-2,-4,-10
1514898929099804,28,38,-7,0,-1,-2,5,11
1514898929099804,-13,-22,9,9,0,0,-3,0
1514898929103306,51,1,-15,4,-2,-2,7,-8
1514898929103306,5,31,17,-17,2,6,18,25
1514898929113826,-18,16,8,-2,-5,-4,11,6
1514898929113826,5,-14,9,9,2,0,-18,3
1514898929121821,-15,-25,0,-11,1,1,5,-49
1514898929121821,1,-8,-10,2,-3,2,-6,29
1514898929136831,41,13,10,5,4,0,-2,-10
1514898929136831,-26,4,4,3,-4,-5,3,29
1514898929138332,-4,23,-6,5,3,2,9,36
1514898929138332,-17,-29,-1,1,-5,-6,2,-30
1514898929158855,-4,-15,8,-3,5,7,25,-1
1514898929158855,17,64,10,0,1,0,-37,-34
1514898929160856,5,-45,-19,-4,-4,-3,-13,12
1514898929160856,6,-58,16,-4,-1,-1,2,10
1514898929172855,-45,-40,-44,-12,-4,-7,3,15
1514898929172855,21,35,24,-2,-1,2,10,5
1514898929181871,-49,13,-4,0,-1,-4,-11,-26
1514898929181871,19,13,-15,-2,-4,-1,-1,-8
1514898929196381,2,-3,11,-9,-4,-5,-17,-4
1514898929196381,-25,-22,1,3,1,-5,-5,-6
1514898929204389,26,-46,-49,-16,-6,-4,-8,-9
1514898929204389,17,22,19,14,3,3,15,38
1514898929219889,-5,12,9,-1,-3,0,7,41
1514898929219889,-50,-34,-18,-10,-4,-4,-4,-62
1514898929221390,20,37,11,4,7,2,13,-20
1514898929221390,-5,-37,-3,4,-2,-4,2,-11
1514898929249910,-6,5,-29,9,1,5,-4,5
1514898929249910,6,17,8,-11,-1,-1,-4,5
1514898929252412,19,-7,-2,0,-3,0,-12,-1
1514898929252412,4,42,21,4,2,1,0,13
1514898929256415,-7,28,27,10,2,-3,-13,-6
1514898929256415,7,-50,-40,-1,-3,-2,-3,-4
1514898929258416,-12,8,19,5,-4,-2,-1,10
1514898929258416,21,42,3,1,2,1,-15,-29
1514898929278930,-15,-23,-1,-17,-2,1,9,23
1514898929278930,23,11,0,-5,1,5,20,23
1514898929280932,-27,-46,-18,-6,-5,-1,-4,4
1514898929280932,-24,18,10,9,2,2,13,-2
1514898929292940,-2,6,8,10,-2,-5,11,-48
1514898929292940,-13,-22,-21,-9,-2,-4,9,9
1514898929320961,18,-8,10,-7,-5,-7,-43,-72
1514898929320961,-9,-11,2,6,2,1,-5,-12
1514898929322961,-3,12,-4,-9,-2,-3,8,7
1514898929322961,10,10,-4,3,0,1,10,32
1514898929326464,0,-8,-11,3,-5,-6,2,8
1514898929326464,4,-7,-26,-10,-4,-2,0,17
1514898929339476,7,18,33,6,3,1,-13,-8
1514898929339476,-19,-38,-25,-5,-3,-5,-24,-28
1514898929340975,16,25,-4,-2,0,3,17,28
1514898929340975,9,-18,22,6,0,2,15,22
1514898929352993,28,3,-7,1,1,0,-1,-39
1514898929352993,-31,-15,6,-8,-8,-5,8,21
1514898929361489,-7,9,6,0,4,1,-21,-41
1514898929361489,2,7,7,2,-2,-3,-7,-15
1514898929376499,-1,-3,-23,-13,-6,-6,6,12
1514898929376499,-7,7,17,4,1,-3,-11,-4
1514898929378001,9,32,9,7,0,2,7,25
1514898929378001,-5,-31,-10,-2,-3,-6,-34,-23
1514898929399519,-29,-24,2,-10,-2,-3,5,9
1514898929399519,18,6,4,12,-1,-1,-10,-19
1514898929403021,-13,24,3,-15,1,1,8,29
1514898929403021,-6,-2,-25,15,2,1,18,26
1514898929414038,23,-28,5,-18,-8,-5,-12,5
1514898929414038,0,6,11,11,4,2,1,-12
1514898929421532,-2,5,-4,-2,-3,1,10,9
1514898929421532,31,-4,1,-7,2,2,-14,-2
1514898929436541,-26,-21,-7,5,1,1,-13,-7
1514898929436541,11,12,14,0,1,-1,8,-5
1514898929438058,24,24,3,5,0,0,14,38
1514898929438058,-23,-2,-3,-1,0,0,10,9
1514898929460059,2,1,5,-1,0,1,-12,-23
1514898929460059,8,17,-14,-2,0,2,-14,-12
1514898929461561,30,5,27,5,-1,-2,6,32
1514898929461561,-10,-29,-42,-11,-4,-3,7,-10
1514898929472569,9,-9,13,11,2,2,8,44
1514898929472569,-31,6,6,-4,-1,-5,-28,-57
1514898929488082,7,-15,-12,-6,-4,-3,-4,-12
1514898929488082,15,26,7,-6,-1,2,3,-3
1514898929504090,3,-4,16,14,4,3,-9,0
1514898929504090,0,-7,-12,-3,-1,-1,11,15
1514898929506091,-10,-3,-5,-5,-1,0,12,9
1514898929506091,-17,-6,23,3,1,-1,-21,-26
1514898929520110,7,-12,-14,6,4,3,5,6
1514898929520110,-8,18,-1,-7,-4,-3,-6,-6
1514898929522603,-11,-10,15,6,2,3,34,9
1514898929522603,5,9,-31,-9,-4,-2,-19,-1
1514898929532621,-21,5,-11,2,1,0,-13,8
1514898929532621,16,5,15,0,-1,-4,-14,-10
1514898929541617,1,-24,-12,3,-2,-1,-13,-2
1514898929541617,20,2,11,-15,-6,-6,11,15
1514898929556630,-3,-6,6,7,2,-3,-10,-13
1514898929556630,2,-3,18,-4,2,1,21,11
1514898929558128,-30,11,-23,-6,-4,-3,-4,26
1514898929558128,-7,22,-15,-9,-4,-2,-33,-48
1514898929579152,5,12,4,5,1,2,9,0
1514898929579152,8,-26,-1,0,-2,-1,7,22
1514898929580653,-2,5,-12,-1,1,-2,-20,-92
1514898929580653,1,-4,-4,1,1,1,4,15
1514898929592662,-9,4,27,1,-2,2,-10,31
1514898929592662,-1,7,-34,-7,-4,-7,11,-39
1514898929601668,-14,-6,3,1,1,4,3,10
1514898929601668,15,-16,13,8,2,4,41,28
1514898929624175,32,-2,-23,-15,-8,-7,-30,-33
1514898929624175,11,1,13,13,2,5,10,26
1514898929625676,-12,-5,-12,-17,-4,-6,-9,35
1514898929625676,-18,-8,5,-3,-2,-2,11,-8
1514898929639185,6,14,9,8,2,2,22,12
1514898929639185,15,60,10,2,3,2,-1,-5
1514898929640698,-29,-105,-25,-5,-6,-4,6,10
1514898929640698,9,10,6,-3,0,1,7,10
1514898929661710,-28,4,-3,-3,-1,-4,-16,-40
1514898929661710,7,-34,-2,0,-2,-1,-3,13
1514898929663211,29,41,36,20,6,3,-14,-10
1514898929663211,-41,-16,-49,-10,-8,-5,-9,11
1514898929676721,-1,-45,-21,-14,-4,-2,-9,-30
1514898929676721,-10,14,-11,-2,2,5,31,40
1514898929678222,19,28,3,3,-4,-2,-11,-28
1514898929678222,-3,8,51,12,4,3,-2,-9
1514898929698737,-2,8,-42,-9,-4,-5,24,13
1514898929698737,-12,-12,-12,-1,0,-3,-24,-5
1514898929700739,3,19,-4,-1,1,1,4,-5
1514898929700739,-13,-24,7,1,-3,-7,-23,-11
1514898929721244,-19,6,-6,-4,-2,-2,21,25
1514898929721244,6,-42,13,1,-2,-6,-32,-27
1514898929731253,-19,-8,-22,-3,-3,-3,-4,-6
1514898929731253,20,27,6,5,0,0,-7,-23
1514898929737255,11,4,45,8,4,4,36,66
1514898929737255,-19,-5,-17,-13,-4,-4,-12,-36
1514898929738756,-4,-24,-5,-5,-1,0,8,5
1514898929738756,23,21,-7,-6,-2,-1,-17,-12
1514898929758782,11,-4,-5,-3,-5,-3,-11,-2
1514898929758782,-16,38,23,10,2,4,10,3
1514898929765283,35,-7,13,-3,-5,-4,10,4
1514898929765283,-19,-15,-13,-3,-1,-2,-9,-39
1514898929781285,-1,19,5,2,-2,-4,-4,-9
1514898929781285,1,-3,-22,0,1,0,-7,-6
1514898929783286,-3,-28,-7,-15,-3,0,-11,0
1514898929783286,8,-19,0,-4,-3,-6,3,24
1514898929795808,-8,-3,7,1,0,-3,-6,-33
1514898929795808,-37,-17,-4,4,-3,-3,3,3
1514898929803802,41,31,33,8,3,1,-20,3
1514898929803802,-38,-2,-16,-12,-2,-4,14,-5
1514898929819312,-37,-17,-5,9,2,3,2,-35
1514898929819312,12,-10,-57,-18,-6,-4,-2,13
1514898929825317,-15,6,24,15,-1,-4,-9,-1
1514898929825317,15,-20,11,1,2,3,13,17
1514898929841328,-14,33,22,0,0,0,-4,0
1514898929841328,15,-13,-16,2,-4,1,4,5
1514898929843331,-7,14,8,-7,2,0,7,-4
1514898929843331,14,12,-32,5,0,0,-3,12
1514898929855839,-4,-20,14,-4,-1,-2,2,-9
1514898929855839,31,11,22,9,2,4,26,60
1514898929862855,-22,6,-16,-2,-3,1,-4,-40
1514898929862855,15,26,49,5,0,0,-5,-4
1514898929878864,-3,-20,-13,-6,1,4,-1,-13
1514898929878864,-22,-15,0,-10,-2,-1,12,-6
1514898929880865,-3,19,-10,11,1,0,-4,12
1514898929880865,-7,27,10,-9,-3,-5,-20,-8
1514898929909376,14,-52,-29,-14,-4,-2,15,27
1514898929909376,3,-2,22,7,1,-4,-26,-41
1514898929910877,-31,-17,5,-6,-3,-2,-5,2
1514898929910877,21,-16,-22,0,-2,1,40,22
1514898929931391,20,-7,-11,1,-1,0,2,10
1514898929931391,-9,20,13,5,0,2,-2,5
1514898929932892,-51,-41,-5,-14,-5,-7,0,-52
1514898929932892,-3,-14,39,13,2,3,0,4
1514898929938906,6,1,-41,-15,-8,-4,-15,0
1514898929938906,-18,2,9,3,-1,-6,-1,-17
1514898929940899,35,8,-16,-15,-3,-1,2,7
1514898929940899,21,14,4,2,3,3,-2,14
1514898929961412,-37,5,21,3,0,-2,11,-8
1514898929961412,-6,-8,-31,-1,-3,-5,-35,-1
1514898929964924,22,10,-18,-10,-1,-3,-7,-26
1514898929964924,-47,-1,9,2,-2,-4,-7,-18
1514898929975924,24,-2,-32,-1,-3,-3,-7,11
1514898929975924,17,-2,21,-10,-2,-1,21,0
1514898929982929,-21,-2,-31,6,-1,-1,10,16
1514898929982929,-16,-9,-35,-12,-5,-4,-9,-7
1514898929998951,-18,37,20,1,1,5,21,-1
1514898929998951,45,-12,8,1,-2,-4,-26,-4
1514898930000950,13,-9,-9,-7,-3,0,-2,29
1514898930000950,-1,-5,-1,8,2,1,8,-46
1514898930021960,3,9,-17,1,1,2,-17,4
1514898930021960,-41,6,-9,-8,-3,1,34,20
1514898930023456,6,-8,11,3,-3,-2,6,17
1514898930023456,5,-18,-26,-6,-3,-4,-19,-1
1514898930035975,6,10,31,2,1,-1,7,5
1514898930035975,-1,-1,8,9,0,0,-3,-14
1514898930042980,11,9,-7,5,3,4,11,17
1514898930042980,-26,-17,-7,-6,-2,-2,5,0
1514898930059491,-2,-8,35,5,0,-4,-5,-15
1514898930059491,6,8,-42,0,3,1,7,-7
1514898930064995,-12,2,27,6,0,-3,-11,-7
1514898930064995,12,8,-15,-3,-3,-1,3,13
1514898930081507,6,-12,-11,-3,-2,-7,-14,-2
1514898930081507,-4,2,52,2,-1,1,-4,5
1514898930082999,-8,4,-33,-4,-1,-2,-10,-35
1514898930082999,-5,-5,-5,2,2,-4,-20,-53
1514898930095016,9,-5,-1,5,-2,-3,-11,-12
1514898930095016,25,6,18,-2,0,2,19,1
1514898930111028,-19,-10,-43,-4,-2,2,-6,3
1514898930111028,-13,21,34,10,0,-1,8,35
1514898930120024,1,-24,-24,-7,1,-1,-10,-15
1514898930120024,-20,-15,-49,-15,-5,-2,7,-16
1514898930121527,17,21,40,7,2,5,28,33
1514898930121527,28,8,11,5,1,-4,-24,-6
1514898930141053,-1,3,13,-1,-1,1,-17,2
1514898930141053,-19,3,-11,-5,1,-1,-3,-5
1514898930141541,9,12,-14,-7,-1,1,24,36
1514898930141541,-8,-42,-28,-7,-4,-5,-30,-3
1514898930156068,0,19,20,-2,-4,-3,-13,-6
1514898930156068,5,12,16,1,-2,1,-4,2
1514898930163574,24,-8,7,6,-2,-1,15,-1
1514898930163574,-8,11,-12,-8,0,0,-8,13
1514898930178577,-21,-17,-6,0,0,0,2,-31
1514898930178577,3,15,20,3,0,-2,-9,6
1514898930179067,-2,5,-68,-5,2,2,4,11
1514898930179067,31,-1,20,-4,-3,-2,12,-8
1514898930201083,-15,10,-12,2,-1,0,3,7
1514898930201083,-9,-12,2,-24,-6,-4,-6,-15
1514898930201583,-13,-4,28,4,0,-1,3,-2
1514898930201583,-22,-7,-2,-5,0,0,30,65
1514898930225099,22,0,-59,-3,-1,-2,-31,-51
1514898930225099,-4,-19,1,2,1,-1,-21,-18
1514898930226600,-19,-4,19,-1,-3,-3,-16,-2
1514898930226600,-2,8,-42,-6,0,0,10,-1
1514898930238610,14,8,43,6,2,2,23,30
1514898930238610,18,-4,8,3,-3,0,5,17
1514898930239610,-28,12,42,6,4,1,-6,-2
1514898930239610,7,2,-34,-9,-4,-1,-7,-36
1514898930260636,39,-22,-16,0,-2,-5,6,0
1514898930260636,1,-1,-4,-5,1,2,-6,-8
1514898930261624,13,19,61,4,-2,1,7,14
1514898930261624,7,7,17,12,5,6,18,4
1514898930284142,3,29,-16,-7,-3,-3,-5,37
1514898930284142,-12,-5,8,4,-1,-1,28,5
1514898930284642,7,-6,-13,1,1,-2,-62,-43
1514898930284642,-17,-10,24,-5,-2,-1,12,7
1514898930298163,-21,-12,-4,5,4,1,-3,-8
1514898930298163,-2,20,12,-3,-1,1,9,18
1514898930299152,21,-5,-18,-3,-1,0,11,5
1514898930299152,14,20,28,9,-2,-4,-13,7
1514898930321669,-58,-11,3,-13,-1,1,12,10
1514898930321669,24,-33,-37,-7,-5,-5,-13,-6
1514898930323168,-16,-15,9,1,-1,-1,0,-6
1514898930323168,-5,8,-6,-4,1,-1,-4,5
1514898930344183,3,-5,11,2,-2,-3,5,-54
1514898930344183,36,53,16,13,4,1,-23,-14
1514898930344684,-21,-47,-78,-34,-11,-3,8,0
1514898930344684,10,-12,28,9,1,-1,-21,-3
1514898930358254,-8,25,-1,1,0,-1,-9,8
1514898930358254,-21,-52,1,-4,-2,-1,1,5
1514898930359246,-8,10,11,2,-1,-1,-1,-12
1514898930359246,-16,-4,-15,-5,-1,1,0,-10
1514898930380769,16,13,28,0,-3,-2,14,15
1514898930380769,-22,-4,-33,-2,-3,-5,-9,-10
1514898930381771,28,9,-12,3,0,-1,-1,1
1514898930381771,-15,-19,13,4,0,0,0,-10
1514898930395280,-29,-19,-29,-18,-3,-3,14,54
1514898930395280,12,4,23,13,2,2,28,14
1514898930403276,-4,0,-8,-7,-2,-3,-7,-5
1514898930403276,28,-5,2,5,2,0,-2,-17
1514898930419287,6,13,27,5,-1,0,6,17
1514898930419287,-31,-22,-24,-8,-2,4,-6,-3
1514898930420788,19,7,10,5,0,-1,6,-2
1514898930420788,5,-15,-10,3,-1,-1,14,18
1514898930441304,7,-7,22,-12,-4,-1,4,3
1514898930441304,-10,5,27,14,5,1,-41,-33
1514898930442305,-1,-4,-45,-21,-7,-5,-3,-5
1514898930442305,25,18,21,0,0,2,11,-6
1514898930455313,1,4,-7,4,-2,-2,16,14
1514898930455313,11,-9,25,6,1,1,-8,-2
1514898930463319,3,14,19,9,1,1,-2,-33
1514898930463319,-25,2,-8,-7,-4,-1,4,15
1514898930478330,26,-33,-5,0,1,-1,3,2
1514898930478330,-17,12,-17,-5,-3,-5,-42,-26
1514898930479331,32,7,12,4,0,1,18,26
1514898930479331,9,-28,-6,-5,-1,2,0,7
1514898930500844,-13,-11,-9,4,-1,0,-9,-24
1514898930500844,4,15,-15,-12,-4,-1,33,41
1514898930501347,-32,-25,-37,-5,-2,-1,-13,2
1514898930501347,19,3,-8,-3,0,-2,0,-15
1514898930532867,7,33,13,10,0,3,-4,42
1514898930532867,21,-45,32,7,1,-4,-17,-46
1514898930533869,-5,14,-62,-11,-1,-1,-9,3
1514898930533869,2,3,-11,2,2,0,-5,9
1514898930538373,16,-8,-13,-5,-2,-4,-20,3
1514898930538373,-22,-4,19,7,-2,2,30,21
1514898930539872,12,20,34,-7,1,-2,-13,-14
1514898930539872,-19,-5,-9,2,2,2,5,13
1514898930561397,-14,-16,8,2,1,1,-13,-23
1514898930561397,-10,39,-32,-9,-3,-1,-7,-4
1514898930561889,-57,-44,-1,7,-3,-3,-5,-40
1514898930561889,16,-4,-18,-12,-8,-10,-19,-7
1514898930591421,0,10,27,10,5,5,0,18
1514898930591421,6,9,-19,-5,-3,-1,-1,3
1514898930592411,-21,9,41,20,6,3,33,38
1514898930592411,9,-11,-52,-16,-2,-5,-44,-54
1514898930598423,-26,-5,-6,-11,-2,2,8,7
1514898930598423,8,-5,8,8,3,0,-12,-25
1514898930598915,11,14,12,-7,-3,-4,2,14
1514898930598915,25,7,11,5,-1,1,42,24
1514898930628945,-22,-34,-27,-3,-1,-3,-15,-38
1514898930628945,-12,10,20,3,0,0,7,20
1514898930629946,32,25,29,18,2,-1,1,23
1514898930629946,-54,-30,14,-1,-3,-3,-2,-25
1514898930644456,-9,0,-24,-8,-3,-4,5,8
1514898930644456,40,29,-5,-1,-1,-2,-11,-14
1514898930644947,-11,-35,22,8,-1,-1,1,-7
1514898930644947,4,47,26,8,3,3,-3,25
1514898930658457,17,-49,-22,1,0,-2,-3,-14
1514898930658457,-25,-31,-20,-15,-4,-1,23,31
1514898930658965,20,32,-16,-3,-2,2,-12,0
1514898930658965,-9,-28,-8,10,1,5,-5,13
1514898930680981,13,17,-15,-24,-5,-13,-45,-75
1514898930680981,38,20,31,1,2,-1,9,38
1514898930681472,-30,-31,-11,-7,-3,0,-10,-32
1514898930681472,4,17,22,-2,-2,2,9,32
1514898930703988,32,23,3,10,-3,-5,2,15
1514898930703988,-10,-14,-19,-6,-5,-1,10,9
1514898930704989,-25,13,-7,-2,-2,-1,-17,-23
1514898930704989,6,-10,36,-1,2,0,16,-2
1514898930718499,-15,-6,2,5,3,0,3,14
1514898930718499,5,8,-9,-7,-4,1,12,-5
1514898930718999,23,-5,18,2,-1,-2,3,30
1514898930718999,-33,19,-12,-20,-9,-6,-10,-32
1514898930741016,21,8,11,2,0,0,0,1
1514898930741016,-25,-36,-35,1,3,0,0,-4
1514898930741516,-12,1,24,6,0,3,5,8
1514898930741516,-11,17,-25,-15,-4,-2,22,30
1514898930764031,47,-9,8,0,0,-4,-33,-43
1514898930764031,-1,4,68,17,0,-3,-16,-16
1514898930765032,42,4,-46,-13,-2,2,-7,-9
1514898930765032,-9,-13,-61,-18,-8,-8,-5,-10
1514898930778550,1,19,12,11,2,2,23,32
1514898930778550,15,-18,-1,11,7,4,19,40
1514898930779042,0,5,24,15,2,-2,-15,-30
1514898930779042,22,-49,9,0,0,-1,-8,-4
1514898930801058,-17,12,-7,8,1,0,-2,-7
1514898930801058,-47,12,3,-9,-1,1,12,3
1514898930801557,26,30,46,15,5,3,18,4
1514898930801557,-3,-24,-82,-18,-5,-2,-17,-13
1514898930823573,-36,-8,3,-4,-2,-1,6,3
1514898930823573,6,38,20,8,3,0,-6,-13
1514898930840084,-23,-44,-33,-12,-3,1,9,20
1514898930840084,-15,40,84,24,7,0,-29,-62
1514898930842098,2,-44,-47,-10,-5,-6,-1,-7
1514898930842098,0,23,-10,3,-2,1,-3,-6
1514898930843099,-16,-7,1,-8,-4,-6,-13,-5
1514898930843099,9,24,27,-6,-3,-1,-7,13
1514898930862101,7,-23,-6,-5,0,2,8,18
1514898930862101,-5,-15,-27,1,1,-1,-2,-38
1514898930863111,-11,-20,-23,-4,-3,-1,28,2
1514898930863111,11,11,11,4,0,0,-1,15
1514898930884116,1,-15,4,11,5,3,13,-1
1514898930884116,-11,2,-16,-27,-7,-6,-12,16
1514898930884616,5,-9,23,10,-1,-1,2,-2
1514898930884616,-31,-26,-64,-8,-5,-7,3,-3
1514898930898126,-1,13,13,0,-4,-3,-5,-4
1514898930898126,14,-12,-25,3,-3,-1,29,46
1514898930899127,-32,23,1,-5,0,-1,-19,-27
1514898930899127,-29,-8,-32,-1,-1,-4,-12,-4
1514898930922144,26,-8,28,4,2,1,0,1
1514898930922144,-58,-5,-17,-8,-5,-5,7,-21
1514898930924144,29,27,28,11,1,2,8,3
1514898930924144,4,-7,-30,-10,-2,1,8,23
1514898930944158,-43,20,1,5,0,0,2,2
1514898930944158,78,5,13,4,0,-6,-13,-13
1514898930946160,-23,-9,-24,-15,-6,-5,-2,10
1514898930946160,17,-17,15,13,7,6,7,-20
1514898930958169,-5,-7,-10,-15,-5,-2,6,14
1514898930958169,8,8,-28,4,1,0,-21,-10
1514898930959170,35,8,37,10,3,4,-5,9
1514898930959170,1,8,-55,-10,-6,-4,24,12
1514898930980693,-41,23,28,14,4,2,3,13
1514898930980693,15,-8,28,-17,-2,2,4,8
1514898930981685,-30,8,-37,9,-4,-12,-50,-73
1514898930981685,20,-23,15,-23,-3,-2,18,20
1514898931004701,-11,-16,40,33,6,7,10,15
1514898931004701,33,14,-32,-37,-9,-3,-18,-26
1514898931011206,-19,-8,23,16,0,-1,9,27
1514898931011206,-1,12,14,26,0,-3,-16,-27
1514898931019712,84,38,3,-53,-6,0,9,4
1514898931019712,-53,-16,42,16,1,0,5,54
1514898931021213,13,-15,-68,-25,-7,-4,-2,-7
1514898931021213,-4,26,36,7,3,2,-6,-27
1514898931040727,38,-18,-21,6,-5,-4,0,21
1514898931040727,-24,11,17,12,4,1,-23,-6
1514898931041729,-4,-29,-35,-16,-6,-2,-1,-20
1514898931041729,-9,-3,30,16,1,-1,3,6
1514898931063754,-23,3,24,-9,-1,-2,-10,-26
1514898931063754,-8,-31,-109,-25,-7,-2,14,-9
1514898931064244,-6,16,59,12,3,1,14,40
1514898931064244,-15,24,22,-1,-3,-4,-18,-2
1514898931078263,-54,-18,-52,-9,-7,-6,-3,-9
1514898931078263,13,13,38,12,5,5,1,1
1514898931079263,-9,-10,-4,-13,1,0,9,24
1514898931079263,11,24,28,21,3,2,-6,-10
1514898931100769,8,-4,-1,-3,4,0,-15,-15
1514898931100769,-28,-35,-5,4,-6,-6,13,-6
1514898931101770,15,-2,-14,-11,0,1,-21,-21
1514898931101770,23,-30,-6,-25,-2,1,20,28
1514898931125298,-30,8,-3,12,0,-2,-30,-3
1514898931125298,64,-22,-16,-7,-4,-7,2,14
1514898931127299,-31,3,5,-5,-3,-2,4,-39
1514898931127299,-19,5,13,12,4,6,9,5
1514898931138310,3,-1,13,16,-1,-3,-7,-1
1514898931138310,-32,38,15,-4,3,0,0,-22
1514898931139296,-1,8,-2,-3,-4,1,0,16
1514898931139296,-10,-33,-79,-20,-9,-9,-12,-21
1514898931160811,9,15,43,8,3,2,30,24
1514898931160811,-17,19,-26,11,-5,-4,-24,-41
1514898931161812,23,19,-6,-1,1,-4,6,3
1514898931161812,14,16,21,6,0,-3,-11,-27
1514898931183837,27,-21,-24,-19,-4,-2,17,8
1514898931183837,18,24,28,7,-1,1,-15,-3
1514898931184838,4,-22,-10,-3,1,-1,-4,-1
1514898931184838,28,9,-15,4,-2,-4,6,40
1514898931197847,12,36,2,-3,1,1,7,-20
1514898931197847,0,-35,-1,-2,-1,0,6,-7
1514898931205845,3,15,14,0,-4,3,20,19
1514898931205845,-33,-60,12,-4,-2,-3,3,21
1514898931221856,-15,-17,-42,5,0,0,10,6
1514898931221856,3,-17,-6,-8,-4,-4,-14,-25
1514898931223356,-9,7,5,-3,0,-2,-9,-3
1514898931223356,32,17,10,8,1,2,28,11
1514898931244380,-26,-11,-8,-11,-7,-9,-57,-22
1514898931244380,11,-2,-11,1,3,3,1,5
1514898931245381,-21,-36,18,10,0,1,-5,-10
1514898931245381,2,-2,-31,-1,0,2,-11,15
1514898931257889,9,7,-41,-21,-3,1,13,-59
1514898931257889,-19,22,34,-7,-1,-2,-11,-4
1514898931265895,13,-11,-10,-1,-2,-4,-7,-2
1514898931265895,6,7,13,-9,-6,-7,7,2
1514898931280908,13,-9,-21,-1,-2,-1,6,27
1514898931280908,-19,20,31,11,1,0,-14,-4
1514898931281398,9,38,-20,-11,-5,-9,0,-2
1514898931281398,14,-36,-5,-18,-3,-5,-14,-14
1514898931304422,-25,-12,15,5,-2,-5,-2,-1
1514898931304422,-5,7,-16,-8,-2,-1,4,8
1514898931311419,6,5,-12,-18,-4,4,28,33
1514898931311419,-13,-3,-13,7,4,-2,-59,-25
1514898931317423,-1,38,37,6,2,2,-7,22
1514898931317423,6,-103,-15,26,4,1,1,-21
1514898931325938,-10,19,5,-13,-2,1,-5,-5
1514898931325938,-22,-5,-19,1,-1,2,9,14
1514898931341448,-5,-25,10,-7,2,5,14,5
1514898931341448,6,34,35,13,3,2,-4,12
1514898931341940,13,4,6,18,4,1,-9,-7
1514898931341940,-2,-4,0,-3,-3,-1,15,19
1514898931363964,-18,30,21,-4,-5,-3,-19,-27
1514898931363964,21,42,-35,-10,-1,3,29,18
1514898931364965,-4,-35,-6,11,3,1,2,-5
1514898931364965,10,54,58,6,4,2,-5,-7
1514898931377474,-33,-61,-82,-20,-4,-3,15,6
1514898931377474,25,17,30,-5,-6,-7,-19,1
1514898931385980,-2,3,-5,-8,-4,-5,-7,-11
1514898931385980,-3,-1,-1,18,1,-4,-17,-24
1514898931400982,-4,21,21,3,2,4,1,-7
1514898931400982,-3,-11,20,5,2,1,7,-7
1514898931401487,13,-9,-27,-10,-4,-1,0,-7
1514898931401487,5,-13,4,10,1,2,0,-2
1514898931424498,13,2,1,-3,3,-1,6,17
1514898931424498,-17,-13,-24,0,0,2,8,7
1514898931426499,13,25,14,-10,-2,-3,-1,1
1514898931426499,-14,33,16,-7,0,1,32,6
1514898931437519,-3,-14,-10,10,1,0,-7,3
1514898931437519,8,10,14,2,0,1,11,29
1514898931446023,-41,-13,-8,8,0,0,-10,-58
1514898931446023,6,-7,6,-22,-1,3,3,7
1514898931461086,3,11,-12,17,2,1,16,15
1514898931461086,16,2,-9,-21,-11,-10,-16,-13
1514898931461586,25,-24,-64,-18,-4,0,-5,25
1514898931461586,-22,-10,14,19,2,-5,-30,-31
1514898931483611,-16,1,15,-9,-6,-5,-2,-7
1514898931483611,1,12,15,-1,1,2,3,21
1514898931490616,-20,-28,2,8,2,-1,-18,-30
1514898931490616,4,20,6,-5,-3,-2,7,14
1514898931497621,55,58,26,13,3,2,2,3
1514898931497621,-70,-86,-58,-19,-7,-3,-5,-17
1514898931506119,18,5,9,-5,-1,-1,-26,19
1514898931506119,-2,8,17,5,0,-2,16,-10
1514898931522140,-23,-5,25,12,2,1,1,9
1514898931522140,0,11,6,11,4,1,1,3
1514898931524131,10,3,-8,-8,-1,2,32,32
1514898931524131,-26,-11,9,5,-1,-3,-27,-39
1514898931544154,29,-21,-23,-14,-5,-5,-8,31
1514898931544154,-11,-14,8,14,4,3,-3,-21
1514898931545145,-16,17,-17,-32,-11,-2,20,4
1514898931545145,34,21,43,18,17,8,22,30
1514898931567171,-27,-32,-98,-23,-13,-13,-39,-51
1514898931567171,-33,-3,-11,-21,-3,-3,11,-3
1514898931567671,23,38,85,40,5,-1,-12,-7
1514898931567671,11,-79,-78,-34,-13,-4,-10,-1
1514898931580680,-10,27,54,9,8,4,25,-17
1514898931580680,21,-17,-54,-15,-8,-4,1,6
1514898931581681,0,28,18,10,1,0,6,5
1514898931581681,18,45,49,25,3,1,-16,-24
1514898931604202,-9,-20,-15,-25,-10,-5,2,14
1514898931604202,14,2,-30,-2,-3,-1,-11,-36
1514898931604687,-5,-24,-15,-5,1,-3,4,36
1514898931604687,-21,-1,30,5,3,1,-9,-2
1514898931626703,63,50,27,15,0,0,10,1
1514898931626703,13,11,23,0,-3,-2,-8,-5
1514898931627204,14,-22,-9,8,-1,-3,-16,9
1514898931627204,-2,-16,-11,-17,-3,0,11,13
1514898931640713,-19,8,-29,-14,-4,0,-12,-38
1514898931640713,50,-2,22,-6,1,-1,17,25
1514898931641714,-51,-11,23,20,7,3,-5,-19
1514898931641714,10,-14,-31,4,-4,-1,12,27
1514898931671765,3,-2,-10,-16,-2,-2,-10,-29
1514898931671765,-13,22,55,2,-1,2,6,10
1514898931672258,7,-33,-70,-3,-3,-3,-2,-5
1514898931672258,23,-4,-1,-2,-2,0,15,9
1514898931686246,-14,5,30,22,6,-2,-20,1
1514898931686246,7,22,-10,0,-2,-3,3,10
1514898931687245,0,6,1,-12,-3,-5,-7,0
1514898931687245,-21,1,-13,5,-3,-7,1,1
1514898931700765,8,16,10,-10,-2,-3,-7,-4
1514898931700765,7,-9,20,10,-2,-1,0,-15
1514898931701766,-12,15,19,6,3,4,8,10
1514898931701766,-27,-17,-17,-17,-5,-6,-1,-46
1514898931723772,-22,-31,-4,8,-2,-3,9,26
1514898931723772,-23,23,40,28,10,4,-15,-24
1514898931724772,28,-32,-60,-37,-10,-7,-8,3
1514898931724772,27,-7,3,0,0,2,8,-5
1514898931753794,15,-8,16,18,2,3,-8,0
1514898931753794,-37,17,26,26,2,1,10,10
1514898931754795,-8,-20,-15,-13,-4,-5,-7,-26
1514898931754795,-11,50,27,-7,-6,-5,-17,-20
1514898931769308,-20,-41,-24,15,-2,-2,2,3
1514898931769308,3,-8,-62,-33,-7,1,-11,-3
1514898931769813,14,4,27,3,5,1,28,28
1514898931769813,-26,28,-14,-15,-10,-7,-19,-8
1514898931783814,0,-2,26,-5,4,3,7,-3
1514898931783814,-42,-17,-2,2,-1,0,4,2
1514898931784314,-8,-15,-12,-3,-8,-5,-13,-17
1514898931784314,3,-9,-6,-3,2,3,6,16
1514898931806331,9,13,9,15,-2,-2,0,19
1514898931806331,-11,-43,-26,-16,-4,-7,-21,-7
1514898931807336,-3,-3,9,9,1,-3,-4,-7
1514898931807336,-8,-15,-14,-28,-10,-6,4,40
1514898931821341,2,1,4,3,2,3,-3,-21
1514898931821341,12,17,1,2,1,-3,-9,24
1514898931823356,5,11,7,-14,-3,1,-7,-17
1514898931823356,-4,0,11,14,0,-1,2,20
1514898931843857,-11,-19,-35,1,-2,-2,4,-9
1514898931843857,30,29,8,-22,-6,-3,21,-10
1514898931844857,-4,5,14,-21,1,2,-1,11
1514898931844857,1,-16,13,15,4,-4,1,-9
1514898931873877,17,15,10,3,2,4,17,50
1514898931873877,-17,-53,-29,-15,-3,-5,-34,-57
1514898931874878,25,19,19,26,3,3,7,-12
1514898931874878,-9,-6,-32,-9,3,2,-6,-11
1514898931880882,9,6,-12,0,-8,-5,-4,22
1514898931880882,-41,-11,-4,14,5,3,16,7
1514898931881383,-22,6,43,18,-1,1,6,12
1514898931881383,-4,-16,-7,-14,2,-1,-23,-26
1514898931904400,32,11,34,5,2,-1,-7,-15
1514898931904400,-1,5,-88,-15,-9,-7,-1,24
1514898931905421,-8,2,14,18,1,1,-7,-9
1514898931905421,-5,15,-17,-1,-5,-3,5,3
1514898931927426,-12,-30,-6,-24,-3,2,9,11
1514898931927426,19,11,46,26,0,0,5,-8
1514898931929418,0,-9,-56,-27,-2,-2,-12,3
1514898931929418,18,-15,-29,-6,-5,-2,6,7
1514898931940926,-13,-16,44,16,9,5,6,-1
1514898931940926,9,22,-7,-11,-8,-4,16,40
1514898931941426,-19,-22,-5,19,5,1,-1,-18
1514898931941426,-26,23,14,10,2,1,-7,-9
1514898931971448,-26,-53,-43,-37,-16,-11,-20,-30
1514898931971448,7,20,15,10,16,8,-3,-9
1514898931972448,4,8,28,6,-4,-6,29,49
1514898931972448,17,3,5,13,-3,0,-10,-14
1514898931986466,-8,6,-7,-3,2,-1,31,4
1514898931986466,8,-21,-1,-5,-5,2,-14,40
1514898931987457,-8,14,-27,-15,2,-5,6,-98
1514898931987457,-6,-12,11,-15,-1,-2,-33,-24
1514898931999976,-11,10,11,16,1,-1,13,6
1514898931999976,15,12,-1,7,-7,-3,22,-9
1514898932008491,11,24,19,-7,5,5,7,79
1514898932008491,-10,-21,-44,7,-1,-8,-18,-52
1514898932023984,-12,24,-16,-12,-2,0,-24,-61
1514898932023984,-9,-59,-26,-7,-3,-1,13,37
1514898932025994,11,7,30,36,3,3,-11,13
1514898932025994,-13,-73,1,-12,1,3,20,-3
1514898932055530,-15,38,17,21,2,-1,-16,-7
1514898932055530,55,4,7,-14,-2,0,-12,-11
1514898932056019,-28,-14,-64,-24,-13,-8,-4,-9
1514898932056019,11,-3,29,26,6,2,8,16
1514898932061016,29,-5,13,-8,-3,0,-4,-5
1514898932061016,-40,22,42,18,4,2,5,-20
1514898932061514,5,-1,-1,-2,-2,1,-6,11
1514898932061514,19,14,-31,-16,1,-1,34,13
1514898932085528,-23,-18,-4,9,-4,2,-33,-10
1514898932085528,11,25,-34,-23,-10,-7,10,4
1514898932086528,-26,-13,-1,0,1,1,-21,-17
1514898932086528,-21,-7,10,25,4,5,-4,-4
1514898932130068,28,31,11,-16,-5,-5,18,39
1514898932130068,5,-4,-33,-21,-2,1,-12,-13
1514898932131060,-10,18,51,22,4,2,-6,-34
1514898932131060,-6,-8,-22,2,-1,-1,-6,23
1514898932132560,30,-13,-41,-20,-6,-4,-18,32
1514898932132560,-27,6,43,22,3,3,14,0
1514898932136089,9,4,1,-11,-3,-3,-4,-53
1514898932136089,18,-11,-3,-16,-4,-2,31,7
1514898932143580,-28,-6,21,17,4,2,4,-20
1514898932143580,51,4,-37,-26,-7,-6,-22,42
1514898932150584,11,-17,-31,0,0,-2,-25,29
1514898932150584,-8,28,17,17,6,4,-12,-47
1514898932166093,-8,9,-15,-11,-4,-4,3,6
1514898932166093,-16,-19,27,17,-1,1,18,8
1514898932167094,-23,-22,-15,0,-5,-5,-3,-9
1514898932167094,-2,12,-16,-24,-3,-1,-1,25
1514898932181604,40,6,5,6,0,-3,2,51
1514898932181604,-51,6,51,15,4,0,-21,-76
1514898932204612,8,8,-33,1,-6,-5,16,10
1514898932204612,18,6,39,0,0,-1,-23,-24
1514898932211616,-23,-6,-7,-9,3,5,11,9
1514898932211616,-8,-2,7,27,0,1,-19,-2
1514898932213117,4,3,0,-25,-8,-9,26,-6
1514898932213117,13,17,20,6,1,-2,-2,22
1514898932226144,6,9,6,6,1,5,13,31
1514898932226144,16,-8,-45,-6,-1,-6,-23,-35
1514898932234133,4,6,30,-2,-4,-3,12,11
1514898932234133,-15,-7,-8,2,2,0,-31,25
1514898932240171,-23,0,-2,3,2,-2,-3,-50
1514898932240171,6,-23,3,-12,-4,2,29,109
1514898932249143,1,-29,12,25,6,0,-39,-58
1514898932249143,2,32,-29,-47,-20,-14,27,-7
1514898932264154,-23,-63,-15,8,3,-2,-14,-15
1514898932264154,-13,11,-11,-19,-7,0,-3,-1
1514898932266658,-19,-32,-24,-15,-4,-2,9,24
1514898932266658,6,17,46,32,8,2,9,20
1514898932286671,7,-9,-19,14,-1,-3,-15,-38
1514898932286671,-4,26,17,-46,-8,-6,-1,-51
1514898932288178,9,-8,-15,8,1,2,-4,31
1514898932288178,-17,-24,-58,-10,-4,-5,8,1
1514898932309185,0,-6,9,-5,-1,1,-39,-16
1514898932309185,1,13,24,23,5,-4,-21,-18
1514898932310688,24,34,24,6,1,3,14,24
1514898932310688,14,21,11,8,6,10,14,39
1514898932323696,13,-5,-8,-11,-5,-2,1,-16
1514898932323696,-24,6,-21,-4,1,-1,1,9
1514898932330200,4,5,10,-16,-5,-2,4,47
1514898932330200,-18,-2,21,12,4,4,-5,-20
1514898932346729,14,14,-47,-13,-7,-3,15,-2
1514898932346729,-9,-13,21,7,0,1,0,-13
1514898932348225,4,-12,-47,-7,-1,4,31,24
1514898932348225,-18,-25,14,0,-3,-6,2,6
1514898932361241,16,18,22,0,-4,-2,-13,-4
1514898932361241,13,11,18,1,3,1,7,71
1514898932369238,3,-31,-2,-15,-4,-5,-38,-123
1514898932369238,16,12,-6,-2,-1,-2,-10,12
1514898932391243,-15,22,1,-19,-4,-5,-6,-2
1514898932391243,-5,-6,6,10,1,3,5,-16
1514898932397757,17,2,-10,5,1,1,4,7
1514898932397757,6,4,27,12,2,-2,-5,-20
1514898932406757,-12,-26,-15,-2,-1,0,17,20
1514898932406757,-1,-3,21,3,0,-2,14,-6
1514898932408271,6,67,8,-7,-3,0,5,26
1514898932408271,-39,-88,-44,-8,-6,-3,-17,-35
1514898932420270,23,53,11,19,1,-2,11,20
1514898932420270,-6,-15,-9,-19,-2,1,1,-17
1514898932430771,14,5,7,-10,1,-1,-1,20
1514898932430771,-9,26,-7,4,-5,-4,-1,-5
1514898932443780,-5,-12,23,-6,0,1,8,11
1514898932443780,-14,-8,-24,6,-2,-3,-13,-30
1514898932445781,-13,6,11,3,0,-3,-3,4
1514898932445781,12,8,4,-2,0,3,9,19
1514898932466296,-7,-5,2,-6,-2,-2,1,4
1514898932466296,0,5,-8,-4,-1,-1,-4,-7
1514898932468298,-16,-22,6,11,0,-2,-4,-2
1514898932468298,28,-2,3,-11,-1,-2,-1,10
1514898932489321,-17,1,-4,0,-1,-2,-5,-16
1514898932489321,4,0,-14,2,1,-1,-2,-8
1514898932490814,-7,-7,4,3,-1,-1,-1,2
1514898932490814,8,5,1,-4,0,-1,-1,1
1514898932505343,-12,-7,-2,-3,0,1,5,1
1514898932505343,15,-2,1,7,-2,-1,-2,0
1514898932508826,-2,-5,12,1,1,0,-2,1
1514898932508826,1,2,-3,-4,-3,-3,2,3
1514898932526339,9,-6,-7,-2,-1,-2,2,1
1514898932526339,0,2,-4,5,1,0,-3,-2
1514898932527840,-10,-2,6,-1,0,-1,-4,-8
1514898932527840,5,-3,-7,-4,0,0,2,3
1514898932550365,-2,-3,-2,-1,-2,-2,-1,-3
1514898932550365,0,4,-4,1,1,1,-2,-4
1514898932551866,0,-4,4,-5,-4,-1,0,0
1514898932551866,4,2,0,4,-2,-1,-2,4
1514898932572372,3,-5,0,-1,3,2,3,1
1514898932572372,-2,-2,0,2,-4,-2,-1,-3
1514898932573872,-2,-4,-3,-1,0,-1,-2,-1
1514898932573872,-1,-2,-2,-2,-6,-3,-3,-1
1514898932586390,-3,-3,2,0,1,1,0,-3
1514898932586390,0,-1,-6,-1,0,1,-1,-2
1514898932587881,-2,-3,1,0,-2,1,-2,-1
1514898932587881,0,0,-1,0,2,0,1,0
1514898932608906,-1,-5,-3,-1,-4,-1,-1,-1
1514898932608906,2,1,-9,-6,-2,1,0,2
1514898932610400,0,-3,6,4,1,0,0,0
1514898932610400,-3,0,-2,-1,-1,0,1,-1
1514898932623411,1,-3,0,-3,1,-1,1,-1
1514898932623411,-2,0,-6,-1,-4,-1,-2,-4
1514898932637919,1,3,5,-2,-4,-3,-2,1
1514898932637919,2,-1,-4,18,3,2,0,2
1514898932646423,-2,-4,-8,-26,5,2,-2,-2
1514898932646423,-2,0,8,51,-3,-2,-3,-5
1514898932661934,-3,-1,3,-16,10,2,0,-2
1514898932661934,0,-2,-7,-18,-12,-4,-1,-1
1514898932676947,-3,-1,4,-3,0,-1,-3,-1
1514898932676947,0,0,-9,-12,0,2,2,0
1514898932678449,-3,-4,3,9,-3,-2,-2,-5
1514898932678449,4,0,2,1,-2,-1,0,3
1514898932683451,-1,2,2,5,-6,-1,-1,-4
1514898932683451,0,1,-6,-10,-1,0,-3,-2
1514898932690456,0,-1,-3,0,-3,-1,0,1
1514898932690456,-2,0,0,-5,3,-1,-2,-2
1514898932706466,1,1,-2,4,-3,1,-1,-1
1514898932706466,0,-1,-1,-7,4,-1,-2,-1
1514898932708468,0,-1,-3,-4,-2,-1,-2,0
1514898932708468,-2,-2,-2,-4,0,-2,-1,-1
1514898932728981,-1,0,-3,6,-2,-1,-2,-1
1514898932728981,-3,-1,1,-10,-4,-1,-2,-2
1514898932730482,-2,-3,-5,-1,-1,1,-3,-1
1514898932730482,0,-2,-2,-1,0,-1,-1,-1
1514898932744495,1,-1,0,1,-3,-2,1,-2
1514898932744495,-1,-1,-4,-8,-2,-1,-1,-2
1514898932750998,0,-2,2,0,-3,0,1,-1
1514898932750998,0,-1,-1,-1,1,-1,0,-1
1514898932766509,0,-1,0,3,-1,-1,-1,-1
1514898932766509,-1,-2,-9,-10,-3,-4,-2,0
1514898932770010,-1,-3,-4,1,0,-1,0,-2
1514898932770010,-3,-2,2,0,0,-1,-1,1
1514898932797033,-3,0,-3,-2,-1,-2,-2,-1
1514898932797033,1,-1,-2,-2,-2,-1,0,-1
1514898932798032,-2,-1,1,0,-2,-2,-2,0
1514898932798032,-1,-2,-9,-4,-1,0,0,-1
1514898932803535,-2,0,8,1,-1,-1,-2,-1
1514898932803535,0,-1,-4,-3,0,0,-2,-3
1514898932810039,-2,-1,-3,-1,-3,-1,-1,0
1514898932810039,1,0,-1,1,1,-1,-1,-1
1514898932826551,-1,-1,-4,-1,-2,-4,-1,-2
1514898932826551,-3,0,-1,-1,-3,0,-1,-1
1514898932828053,-1,-1,0,0,1,-3,-1,0
1514898932828053,-3,-2,-2,-1,0,-1,0,-1
1514898932849067,1,-1,-1,-1,-1,1,1,-1
1514898932849067,-1,-1,2,-1,0,-3,-1,-1
1514898932850568,-1,-1,-6,-1,-3,0,-1,-1
1514898932850568,0,2,0,-1,-1,-1,0,0
1514898932864581,-3,-3,-1,0,-2,-2,-3,-3
1514898932864581,-2,-1,0,0,0,-1,-1,-2
1514898932878088,-1,-1,-1,-1,2,-2,-3,0
1514898932878088,0,-3,0,-1,-1,0,-2,0
1514898932886593,-1,0,-3,-1,-1,0,-1,0
1514898932886593,-1,2,1,-3,-1,-1,0,-1
1514898932888095,-1,-2,-3,-1,0,0,1,-1
1514898932888095,-1,-3,1,-2,-1,-1,0,-2
1514898932909615,-4,0,-3,0,-2,-1,-1,-1
1514898932909615,0,-3,-1,-1,-1,0,-1,-2
1514898932911112,0,0,-2,-2,-1,0,-1,-2
1514898932911112,-2,-1,-1,-1,-1,0,0,-1
1514898932923128,-2,-1,-1,-1,1,-1,-1,-2
1514898932923128,0,1,0,0,-1,-2,-1,-1
1514898932931625,2,-3,1,-1,-1,-1,-1,0
1514898932931625,-2,0,0,0,-2,-1,-1,-1
1514898932946646,-1,-1,-1,0,-1,0,-1,-1
1514898932946646,-2,-1,1,-2,-2,-1,-1,-1
1514898932948141,-1,-3,-3,-1,-1,-2,0,-2
1514898932948141,0,-2,-2,-1,-1,-1,-3,-2
1514898932969153,-1,1,0,-2,-2,0,-1,-2
1514898932969153,-2,-1,-2,0,0,-1,-1,0
1514898932970653,-2,-1,-3,-1,-2,0,0,-2
1514898932970653,0,0,0,-2,-1,-1,-1,0
1514898932982664,0,1,0,1,0,0,0,-1
1514898932982664,-1,-2,-2,-2,-2,-1,0,-1
1514898932992670,-1,0,-1,-2,-3,-3,-1,0
1514898932992670,-1,0,-1,-2,-1,0,-1,-1
1514898933006679,-2,-1,-4,0,0,-2,-2,-1
1514898933006679,0,0,-2,-2,-1,0,-1,-2
1514898933008681,-2,-3,-2,-1,-1,1,-2,0
1514898933008681,-2,-2,-2,-3,0,-3,-2,0
1514898933029198,-1,0,0,-1,-1,-1,0,-2
1514898933029198,-1,-1,0,-2,-1,-2,-2,-1
1514898933030695,-3,0,0,0,-2,-2,0,-2
1514898933030695,0,-1,-1,-1,-2,-1,-1,-1
1514898933042708,0,-1,0,-1,-2,-2,-1,0
1514898933042708,0,-2,0,1,0,1,-2,-1
1514898933051710,-1,-2,0,-1,0,-2,-2,-1
1514898933051710,0,-2,-1,0,0,0,-1,0
1514898933066723,-3,-3,-3,0,-2,-1,-2,-2
1514898933066723,-1,-2,-1,-1,-1,1,0,0
1514898933068222,-2,-3,-1,0,-2,-2,0,-1
1514898933068222,-2,-3,-1,-1,-1,-2,-1,0
1514898933089237,-2,1,-1,0,-1,-1,1,-3
1514898933089237,-1,1,-1,-1,-2,0,0,-2
1514898933091739,0,-2,-1,-1,0,-1,-2,-2
1514898933091739,-1,0,-2,-2,-1,-1,0,-1
1514898933103246,-1,1,-1,-3,-3,-1,-2,-1
1514898933103246,-1,-3,-1,-2,-1,-1,-2,-1
1514898933111753,-1,-1,-2,0,-1,-2,-1,-1
1514898933111753,0,-1,-1,-3,-1,-1,0,1
1514898933126262,0,-1,1,-1,-2,0,-1,1
1514898933126262,1,0,-2,-2,-1,-2,0,-1
1514898933128263,0,-3,-2,-1,-1,0,-1,1
1514898933128263,-2,-1,-1,-1,-1,0,-1,-1
1514898933150280,-1,-1,-1,-2,0,2,0,0
1514898933150280,-1,2,-2,-1,-1,-1,-1,-3
1514898933153782,-1,-1,-1,-1,-1,-1,0,0
1514898933153782,-2,-1,-1,-1,-1,-3,-2,0
1514898933162789,0,0,-2,0,-2,0,0,0
1514898933162789,-3,-3,1,-1,-2,-3,-1,-1
1514898933171820,-2,-1,-2,-1,-2,-1,-2,-1
1514898933171820,-2,-1,-1,0,0,1,1,0
1514898933186306,-2,-1,-1,0,-1,-2,-2,-1
1514898933186306,-1,0,-2,0,0,-1,-2,0
1514898933188307,-1,-1,0,-2,-1,0,-2,0
1514898933188307,0,-1,-2,-1,-1,-1,-3,-1
1514898933209822,-2,0,-2,-2,0,-1,0,-1
1514898933209822,-1,-1,0,-1,-1,-2,1,-2
1514898933212824,0,2,-2,0,1,-2,0,-1
1514898933212824,0,1,-1,-1,-2,-2,-1,-2
1514898933222850,1,-1,-2,-3,-1,-1,-2,0
1514898933222850,-1,-2,-1,-2,-2,-2,-1,-1
1514898933231337,-1,-1,1,-1,-1,-1,-1,-1
1514898933231337,-1,-2,-3,0,0,-2,-2,0
1514898933246357,-3,-2,-1,0,-1,-3,0,-2
1514898933246357,-1,-2,-1,-1,0,0,0,-1
1514898933247858,0,-1,-1,-1,0,-2,0,0
1514898933247858,0,-3,-2,0,-3,-2,-1,-1
1514898933268873,-2,0,-2,-1,-1,0,-2,-2
1514898933268873,-1,-1,-2,1,-2,-2,-2,-2
1514898933270365,0,-2,-1,-1,-2,-1,0,-3
1514898933270365,-1,0,0,0,0,-1,0,-1
1514898933282372,-1,0,0,0,0,-2,1,0
1514898933282372,-1,-1,-2,-4,-2,0,0,-1
1514898933291386,-2,-2,-1,-1,0,-1,0,-1
1514898933291386,-1,-1,-1,-1,-2,0,1,-2
1514898933307918,-2,-3,-1,-1,-2,1,-1,-2
1514898933307918,-1,0,-1,-2,0,-1,-1,-1
1514898933311408,0,-2,-2,0,-1,-2,-2,0
1514898933311408,-1,-2,0,-3,-1,-1,-1,-1
1514898933328918,-1,0,-2,-2,0,-1,-1,-2
1514898933328918,0,-1,1,0,-2,-1,-1,-3
1514898933330407,-1,0,0,-1,-1,-2,0,-3
1514898933330407,-1,-2,-1,0,0,-1,-1,-1
1514898933342415,-2,-1,-1,-1,-1,1,1,-1
1514898933342415,-2,-2,-2,-2,0,0,-2,1
1514898933351422,-1,-2,0,-1,-1,-2,-3,-1
1514898933351422,-2,0,-2,0,-2,-1,0,-1
1514898933366933,-1,0,-1,-3,-2,0,1,-2
1514898933366933,-1,-1,-1,-1,-1,-3,0,0
1514898933368934,0,-2,-2,-2,-1,1,-2,0
1514898933368934,-1,-2,0,-1,-1,-1,-3,1
1514898933389448,0,1,-1,-3,-2,-3,-2,-2
1514898933389448,-2,-2,-1,-1,-1,1,0,-1
1514898933390449,-1,-3,0,-2,0,-3,-1,-1
1514898933390449,-2,0,-1,-1,-2,-3,-2,-1
1514898933411466,0,-1,0,0,-1,-1,-3,-1
1514898933411466,0,-1,-2,-2,-1,-4,-1,-1
1514898933413975,-1,-2,-2,-2,-2,0,-2,-1
1514898933413975,0,1,-2,-1,0,-2,-1,-1
1514898933426475,-2,-1,-1,-1,-1,-1,-1,-1
1514898933426475,-2,-2,-2,-1,-2,0,0,-2
1514898933427976,-1,-3,-2,0,0,-1,0,-1
1514898933427976,-2,0,0,-1,1,-1,0,-1
1514898933449000,0,0,-1,-1,-2,-1,-1,-2
1514898933449000,-1,-1,0,-2,-1,0,0,1
1514898933450493,-1,-1,-1,1,-2,0,-2,-1
1514898933450493,-1,0,0,-1,-1,-1,0,-1
1514898933471006,-1,-1,-1,0,0,-1,-1,0
1514898933471006,1,-2,-2,0,0,-2,-2,-2
1514898933477522,-2,-1,-2,-2,-1,-4,0,-1
1514898933477522,0,-3,0,-2,0,1,-3,-1
1514898933494023,-1,0,0,-2,0,-1,-1,-1
1514898933494023,-2,0,-1,-2,-2,-1,-1,-1
1514898933495524,0,-2,-1,-1,-1,0,0,0
1514898933495524,-1,-2,-3,0,-1,-1,-1,-1
1514898933509043,0,-1,-5,2,-3,0,-1,-1
1514898933509043,-1,-2,-1,0,0,-1,-1,0
1514898933512535,-2,-2,-1,-1,-3,-1,0,-2
1514898933512535,0,0,-2,-2,-1,-1,-1,0
1514898933531561,-3,0,-1,-2,-1,-1,-1,-1
1514898933531561,-1,0,1,-1,-1,-2,-2,-1
1514898933533062,0,-3,-1,0,1,1,-1,1
1514898933533062,-1,-1,-1,-1,-1,0,0,-1
1514898933545058,-1,0,0,-1,-2,-2,0,-2
1514898933545058,0,-1,-3,0,-3,0,-2,-1
1514898933554065,-1,-1,-1,-2,-1,0,-1,0
1514898933554065,-2,0,-2,-1,0,1,-3,-1
1514898933569087,0,-2,-3,-1,-1,0,-1,-3
1514898933569087,-1,-1,-1,-2,0,-2,-1,-1
1514898933570588,-2,-3,-1,0,-2,-2,-2,-2
1514898933570588,-1,-2,-3,-1,0,1,-2,0
1514898933591607,-2,0,1,-1,-1,0,-1,-1
1514898933591607,-2,-2,0,-2,0,-2,-1,0
1514898933593093,0,-2,-2,-2,-1,-4,-1,-2
1514898933593093,0,-1,0,-2,-2,-2,0,-1
1514898933606103,-2,1,-1,-2,-1,-2,-1,-1
1514898933606103,0,1,-3,-2,-2,0,-1,0
1514898933612607,0,-2,-2,-3,-1,-1,-1,1
1514898933612607,-3,0,-1,-1,-2,0,0,-2
1514898933629129,-1,-2,-2,-2,-1,-2,-1,1
1514898933629129,0,-2,-2,0,-1,-1,-1,0
1514898933630628,-1,-2,-2,0,-1,0,-2,0
1514898933630628,-1,-2,-1,-2,0,0,-2,-3
1514898933651634,0,1,0,-2,1,0,-1,0
1514898933651634,-2,-2,-1,-1,-1,-2,0,-2
1514898933653135,-1,0,-1,0,-1,-1,-2,0
1514898933653135,-1,-1,0,-1,-1,-1,0,-1
1514898933665644,-1,1,-1,-2,-4,0,-1,-4
1514898933665644,-1,-1,-1,0,1,-1,-1,0
1514898933672651,-1,-2,1,-1,-1,-1,0,-1
1514898933672651,-2,-1,-2,0,-1,-1,-1,0
1514898933689165,-1,-1,-1,0,-1,0,-2,0
1514898933689165,0,-1,0,-2,0,0,-1,-1
1514898933690663,-1,-3,0,-2,-2,-2,-1,0
1514898933690663,-1,0,-1,-1,0,-3,-2,-1
1514898933711176,-1,-1,-2,0,-1,0,0,-1
1514898933711176,-1,-1,1,-2,-1,-1,-2,-2
1514898933713177,-1,-2,-2,-2,1,-1,0,-1
1514898933713177,-1,0,-1,-1,-2,-1,-2,-1
1514898933725686,-1,-1,-3,0,-1,0,-3,-1
1514898933725686,1,0,-2,0,0,-3,0,0
1514898933732693,1,-1,-1,0,-1,-1,0,-2
1514898933732693,0,-2,-2,-2,0,-1,0,-1
1514898933749202,-1,0,-2,-2,-2,-1,-1,-1
1514898933749202,0,-3,-1,-2,-2,-1,-2,-1
1514898933750704,-1,-2,-2,1,0,-2,-2,-1
1514898933750704,-1,-2,-1,0,-2,-1,-1,-1
1514898933771230,-3,0,0,0,0,-1,-2,0
1514898933771230,0,-1,-2,-1,-1,-1,-1,-1
1514898933773220,-1,-2,-1,-2,-3,-2,0,-1
1514898933773220,-2,-2,0,-1,0,-1,0,-2
1514898933785729,-1,-3,-1,-1,-3,-3,-1,-2
1514898933785729,0,-2,-2,-2,-1,-2,-1,-2
1514898933792747,0,-3,-1,0,0,0,0,-1
1514898933792747,0,1,-2,0,-1,0,-1,-3
1514898933809246,-1,0,-2,-2,-1,-1,0,0
1514898933809246,-3,-1,-1,0,0,-2,-2,-1
1514898933812748,0,-1,-1,0,0,0,-2,-1
1514898933812748,-2,-1,-2,-1,-2,0,-2,-2
1514898933831261,-1,1,-2,-1,-2,-2,-1,-1
1514898933831261,0,-2,-1,-1,0,0,1,-1
1514898933833262,-2,-1,0,-1,0,-1,-1,0
1514898933833262,-1,0,-2,-1,-1,0,0,-1
1514898933845772,-1,0,-1,-1,-1,-1,-1,-2
1514898933845772,-2,-2,-1,-2,-3,-2,0,-2
1514898933852780,-2,-2,-1,-2,-2,-2,-1,0
1514898933852780,0,0,0,-1,0,0,0,-1
1514898933868787,-2,0,-2,-2,-1,-1,-3,-1
1514898933868787,-1,-1,0,0,-1,-1,-1,-1
1514898933870288,0,-3,0,-2,-2,-3,0,-1
1514898933870288,-2,1,0,-3,0,-1,-2,1
1514898933891312,-2,0,-1,-1,0,-2,-3,-1
1514898933891312,-1,-3,-1,0,-1,0,0,0
1514898933893329,-1,-2,0,-2,0,0,-1,-1
1514898933893329,-3,-2,0,-1,-2,-2,-1,-1
1514898933921324,-1,-1,-2,0,-1,-3,1,-2
1514898933921324,0,-2,-2,0,0,0,-3,-2
1514898933923328,0,-1,-2,0,0,-1,1,-1
1514898933923328,-2,0,-1,-2,-2,0,0,-1
1514898933928841,-3,0,-1,-1,0,3,0,-3
1514898933928841,0,0,0,-2,-2,-1,-2,-2
1514898933930330,2,0,-1,-2,1,-1,0,0
1514898933930330,-2,1,-2,0,-2,-2,-1,0
1514898933951857,-2,0,0,0,-1,0,-2,-2
1514898933951857,-1,-2,-2,1,-2,1,-1,0
1514898933953346,-1,-1,-2,-2,-2,-1,-2,-1
1514898933953346,-1,-1,-2,-2,0,-1,-2,-1
1514898933964865,-1,-2,-2,-2,-2,0,-2,-2
1514898933964865,0,-1,-2,-2,-1,-3,-1,-2
1514898933974362,0,-1,0,1,0,-1,-1,0
1514898933974362,1,-2,-2,-1,-1,-1,1,-2
1514898933988873,-1,0,-1,-1,-2,-2,-1,-1
1514898933988873,-2,-2,-1,-1,0,0,0,0
1514898933990376,0,-2,-3,-1,0,-1,-1,0
1514898933990376,-1,-3,-1,-2,-2,0,-3,-1
1514898934011888,0,0,-2,-3,0,-1,-2,-1
1514898934011888,-1,-1,-1,0,-2,-2,-2,1
1514898934014390,0,-3,0,-1,0,-2,-1,-1
1514898934014390,-1,0,-1,0,0,-1,0,-1
1514898934024898,0,-2,0,0,-2,-1,1,-1
1514898934024898,0,-2,-2,-1,0,-1,-1,-2
1514898934033904,-4,-1,0,0,-1,-1,0,0
1514898934033904,-1,0,-1,-1,0,-1,-1,-1
1514898934048924,-2,0,-2,-2,-2,-1,0,-1
1514898934048924,-1,0,-2,-2,-2,0,0,-1
1514898934050416,-1,-3,-1,0,-1,-1,0,-2
1514898934050416,0,-1,0,-1,-3,-1,-2,-1
1514898934070942,-1,1,0,-2,-1,-1,-3,-1
1514898934070942,0,-2,0,-2,-1,0,-1,-1
1514898934077446,-1,-2,-2,-1,-1,0,-1,-2
1514898934077446,-2,-1,-2,-1,0,-1,-1,-1
1514898934084941,0,-1,-1,-1,-1,0,-1,-1
1514898934084941,-1,-1,-1,0,-2,-2,-1,-1
1514898934109479,1,0,1,-2,-1,-2,0,-1
1514898934109479,-2,0,-1,-1,0,0,0,0
1514898934110458,0,1,-1,-1,-1,0,-2,-1
1514898934110458,-2,-1,-2,-1,0,-1,0,-2
1514898934112960,0,-2,-1,-1,-1,0,-2,0
1514898934112960,-2,-2,-2,-1,-1,-1,-3,1
1514898934131473,-1,-4,-2,-1,0,0,1,-2
1514898934131473,-1,-1,0,-1,-1,-1,1,-2
1514898934132974,-1,-2,-2,0,-3,-2,-1,0
1514898934132974,-1,-1,-2,0,-1,-1,0,-3
1514898934144982,-2,1,-3,-2,-1,-1,-1,-2
1514898934144982,0,0,0,-1,-1,-1,-1,-1
1514898934153989,-1,-2,0,0,-1,-1,-2,0
1514898934153989,-1,0,0,-2,-1,-2,-2,1
1514898934176514,0,0,-2,0,-1,1,-2,0
1514898934176514,-2,-3,-1,-2,-2,-2,0,-1
1514898934178015,-2,-2,-2,-1,0,-1,-2,-2
1514898934178015,0,-1,-1,0,-1,-2,-1,-1
1514898934191515,0,-1,0,2,-2,0,1,-2
1514898934191515,0,-1,-1,-1,-1,-2,-2,0
1514898934193016,-1,-2,0,-1,-2,-1,0,-1
1514898934193016,-2,-1,-1,-3,-1,-1,0,-3
1514898934205526,0,-1,0,-1,-1,-2,-1,-1
1514898934205526,-2,-2,-1,0,0,0,-3,-1
1514898934216032,0,0,-1,-1,-1,-2,-2,0
1514898934216032,0,0,-2,-1,-1,0,-1,-2
1514898934229553,-1,0,-1,-3,-2,-1,-2,-2
1514898934229553,-1,-3,-2,0,-2,-3,0,0
1514898934231060,0,-1,-2,-1,-1,1,-1,0
1514898934231060,-2,-1,-2,-1,-2,0,-1,-1
1514898934251557,-3,1,-2,1,-1,0,1,1
1514898934251557,-1,-1,-1,-2,-1,1,-1,-1
1514898934253062,0,-2,1,-1,-2,-2,-1,0
1514898934253062,-2,-1,-1,-2,0,-2,-1,-1
1514898934274085,0,-2,-1,-2,-1,-1,-1,-1
1514898934274085,-2,-3,-2,0,0,0,-3,-1
1514898934275584,-1,-1,-2,-1,0,-2,1,-2
1514898934275584,0,-1,-1,-1,-3,3,0,-1
1514898934289098,-1,-2,-3,-3,-3,-3,-1,-1
1514898934289098,0,-1,-1,-1,0,-2,1,1
1514898934290586,1,-1,-1,0,-1,0,-1,1
1514898934290586,-1,-2,0,1,-1,-2,-1,-1
1514898934311602,0,0,-1,-1,0,-1,-1,-2
1514898934311602,2,0,-1,0,-2,-1,-2,-1
1514898934317604,-2,-3,-1,-2,1,-1,1,-1
1514898934317604,-1,0,-2,0,-1,0,0,-1
1514898934334115,-3,-1,1,-2,0,-2,-1,-1
1514898934334115,-2,-1,-2,-2,1,0,0,-1
1514898934335618,0,-1,0,-1,-2,0,0,-1
1514898934335618,-1,-1,-1,-2,0,-1,-2,-1
1514898934349136,0,0,0,-1,-2,-1,-1,1
1514898934349136,0,-1,-1,0,0,-2,-1,-3
1514898934352643,0,-1,-2,0,-1,-1,-1,0
1514898934352643,0,1,-1,-2,-3,-1,-1,-1
1514898934379157,-3,-2,-2,-1,-2,1,-1,-2
1514898934379157,0,-1,-2,0,-1,-1,-1,-1
1514898934380658,-1,-1,0,0,-1,-1,-2,-1
1514898934380658,-1,-1,-1,1,-2,-2,-1,0
1514898934394168,-2,0,-1,-2,-2,0,-1,-3
1514898934394168,-1,-2,-1,-1,-1,0,1,1
1514898934395670,-1,-2,-2,-1,0,-1,-3,-2
1514898934395670,-1,0,-2,-1,0,-1,-1,0
1514898934416173,1,0,-3,-1,0,-1,-1,0
1514898934416173,-1,-2,-1,-2,-1,-1,-1,-1
1514898934418175,-1,-1,-1,0,-1,-3,0,-1
1514898934418175,-1,-2,-1,-1,-1,-1,-1,-1
1514898934431685,-2,-3,-1,0,-1,0,-1,-2
1514898934431685,0,-2,0,0,-1,0,-1,0
1514898934433186,-1,-1,-3,1,0,0,0,-2
1514898934433186,-2,-1,0,1,-2,-2,-2,-1
1514898934461248,-1,-2,-1,-1,-2,-2,-1,0
1514898934461248,0,-2,0,-2,-2,-1,0,-1
1514898934463740,-1,0,0,-2,-2,0,-2,-1
1514898934463740,0,-1,-2,-2,-1,0,0,-1
1514898934468744,0,-1,-1,-3,-3,0,0,-3
1514898934468744,-1,1,-1,-1,0,-2,-1,-2
1514898934470745,-1,-2,-1,1,-1,-2,-1,-1
1514898934470745,-1,0,-3,0,-2,-2,1,0
1514898934491260,-2,-1,-2,1,0,-1,-2,-1
1514898934491260,-1,-3,-1,-1,0,-1,-1,-2
1514898934493264,1,-1,-1,-1,-3,-2,0,0
1514898934493264,0,1,-2,0,0,-1,-2,-1
1514898934521284,-2,0,0,-1,-2,-2,-2,-3
1514898934521284,0,-1,-2,0,-2,-2,0,-1
1514898934522784,-2,-2,-1,-1,0,1,-1,0
1514898934522784,-2,-1,0,-2,0,-1,-1,-1
1514898934528303,1,0,0,-1,-2,-1,-2,-2
1514898934528303,-2,-2,-2,-3,-2,-2,-1,-1
1514898934535308,0,-2,-1,-1,-1,-1,-1,0
1514898934535308,-1,-1,-2,0,-2,-2,0,-1
1514898934551806,-3,-2,-2,-2,-1,-1,-1,-2
1514898934551806,-1,-2,-1,-1,-1,0,-2,0
1514898934553306,-2,-2,-3,-1,-2,0,0,1
1514898934553306,-1,-2,-1,0,-1,-1,-1,-2
1514898934573821,-1,-1,-3,-1,-1,-3,-1,-2
1514898934573821,-2,-2,-2,-2,-1,-1,0,-1
1514898934575824,-1,0,-1,-2,-2,-1,-1,-2
1514898934575824,-1,-1,-1,-1,-2,-1,-1,-1
1514898934588339,0,0,1,0,-2,-1,-2,-1
1514898934588339,-1,-1,-1,-2,0,-1,-2,-1
1514898934594843,-2,-1,0,-2,-1,0,-1,-1
1514898934594843,-2,-1,0,-1,-2,-1,-2,-2
1514898934620351,1,-2,-2,-1,-1,-1,0,-1
1514898934620351,-2,-1,-1,0,-1,-1,-2,0
1514898934623855,1,-1,-2,-1,-1,-1,-2,1
1514898934623855,0,-2,-2,-2,0,0,-1,0
1514898934633870,0,-1,-2,-2,0,1,0,0
1514898934633870,0,0,1,0,0,1,-1,-2
1514898934636373,-2,-2,-1,-3,1,-2,-1,-2
1514898934636373,-1,-2,-1,0,-2,-1,0,-2
1514898934656377,0,-1,-2,-1,-1,-2,-2,-1
1514898934656377,0,-4,-1,-1,-1,-3,1,-1
1514898934662394,-1,-1,-2,-1,-1,-3,-1,0
1514898934662394,0,1,0,0,-2,-1,-1,-3
1514898934671399,-2,-1,-2,-3,1,-1,1,-2
1514898934671399,-1,-1,-1,-2,-1,0,-1,-1
1514898934672887,-1,-1,-1,0,0,0,-1,-2
1514898934672887,1,0,-2,-1,0,1,-1,-1
1514898934693912,-1,-1,0,0,-3,-1,-1,-2
1514898934693912,-1,-2,-3,-1,-1,-2,-2,0
1514898934695414,-2,-2,-2,0,-1,-2,-2,0
1514898934695414,-1,-1,-1,-2,0,-2,-1,-1
1514898934709413,-3,-2,0,-1,-1,-2,0,-1
1514898934709413,0,-3,-2,0,-2,-2,0,0
1514898934715927,0,0,0,-1,-2,0,0,-1
1514898934715927,0,0,-4,0,0,-2,-3,-2
1514898934731439,0,-3,-2,1,-1,-2,-2,-1
1514898934731439,-1,-2,-1,-2,-2,-2,-2,-1
1514898934732930,-1,-1,-1,-1,-3,-1,-2,0
1514898934732930,-3,0,-2,-2,-3,-1,-1,-1
1514898934754946,0,0,0,0,1,0,-1,-1
1514898934754946,1,-1,-2,-1,-1,-1,0,0
1514898934756948,-2,-1,-1,-2,-3,-1,-1,-2
1514898934756948,-1,-1,-1,-3,0,-1,0,0
1514898934768465,-2,-1,-2,0,-2,-1,-2,-1
1514898934768465,-1,0,-1,-1,-1,-1,0,-2
1514898934774962,0,-2,-1,-1,-3,0,0,-1
1514898934774962,-2,-1,-2,-1,-2,1,1,-1
1514898934791482,-1,-1,-1,-1,-2,-1,-1,-1
1514898934791482,0,-1,-1,-1,-2,-2,-1,-1
1514898934792982,0,0,-2,0,-1,1,0,-1
1514898934792982,-2,0,-1,0,-1,-1,-2,-1
1514898934813987,2,-2,0,-2,-1,-3,0,0
1514898934813987,-2,-3,-1,-2,-1,-1,-1,-1
1514898934817500,-1,-1,0,-1,-2,-2,0,-2
1514898934817500,-1,-1,-1,-2,-1,-1,-1,-1
1514898934828498,-2,-1,-1,-1,0,0,0,-2
1514898934828498,0,0,-3,-1,-1,-2,-2,0
1514898934835003,-1,-1,-1,-1,-2,-1,-2,-2
1514898934835003,0,0,0,-2,-2,0,0,-1
1514898934851515,-1,0,-2,-3,0,-2,-1,-2
1514898934851515,0,-1,-1,0,0,1,-2,-1
1514898934853035,0,0,-2,-1,-1,0,-3,1
1514898934853035,-2,-1,0,-1,-3,0,-2,-1
1514898934874031,-2,-2,-3,-1,-1,0,-1,0
1514898934874031,0,0,0,-2,-1,-2,-1,-1
1514898934875541,0,-1,0,-1,0,0,0,-2
1514898934875541,-1,-1,-1,0,-2,-1,-2,-1
1514898934888043,0,-1,-1,1,-1,0,-2,-1
1514898934888043,-2,-3,-2,0,-1,0,-3,-2
1514898934896545,-2,-1,-1,0,0,0,-1,-1
1514898934896545,0,-2,-1,-2,1,0,0,-1
1514898934911583,-1,0,-1,-2,-2,-1,0,-2
1514898934911583,-1,-2,-1,-1,-2,0,0,0
1514898934914070,1,1,-1,0,0,-2,-1,0
1514898934914070,0,-1,-3,-1,0,-1,0,0
1514898934935098,-2,-1,-3,-1,-3,-1,0,0
1514898934935098,-2,-3,0,-1,1,-1,0,1
1514898934937590,-2,-3,-2,-1,0,0,-1,-1
1514898934937590,-2,-1,-1,-1,-2,0,-1,-1
1514898934947582,-1,-2,-1,0,-2,0,-1,0
1514898934947582,-2,-1,1,0,-1,0,-1,-2
1514898934956589,-2,-3,-2,-3,-1,-1,-1,0
1514898934956589,-1,0,-1,0,-1,-1,-1,-2
1514898934971099,-1,-2,-2,-2,-1,0,-1,-3
1514898934971099,-2,-1,-1,-1,-2,-1,-1,-2
1514898934977604,-1,0,-2,-2,0,-2,-1,-1
1514898934977604,-2,0,-1,0,-1,-3,-2,0
1514898934994125,0,-1,-2,1,-1,-1,-2,-1
1514898934994125,-1,-1,-2,-1,-1,-2,-1,0
1514898934995625,-1,0,-2,-2,-4,-3,-1,0
1514898934995625,-1,1,-2,0,-2,-1,0,-2
1514898935008625,-1,0,-1,2,-1,-2,1,-1
1514898935008625,-1,-3,0,-2,-2,-2,-1,-1
1514898935018632,0,-2,-2,-1,-1,0,0,-1
1514898935018632,0,0,-1,-1,0,0,-2,1
1514898935030641,1,-1,0,-1,-2,-1,-1,-1
1514898935030641,0,-1,-1,0,-1,-3,0,-3
1514898935039159,-2,-1,-1,0,-1,-3,-1,-1
1514898935039159,-1,-1,-1,0,-1,0,-1,-2
1514898935054157,-1,1,-2,-2,-1,-1,-1,-2
1514898935054157,0,-2,1,0,-2,-1,1,-3
1514898935055658,-1,-1,0,1,0,-1,0,-1
1514898935055658,-1,-1,-1,0,-1,0,-2,-2
1514898935067679,0,-1,-1,0,-1,0,-2,0
1514898935067679,0,-2,-3,-1,-1,-1,-1,-1
1514898935076674,-1,-3,-2,-1,-1,-1,-1,0
1514898935076674,-3,-2,-3,-1,-2,-2,-2,-3
1514898935091693,-2,-2,0,-3,0,-2,2,-2
1514898935091693,-1,-3,-1,-2,-1,0,-1,0
1514898935093705,0,-2,-1,-1,-2,-1,0,0
1514898935093705,-1,2,1,-2,-1,-1,0,-1
1514898935114200,-2,-1,-1,-3,-1,-2,-1,-3
1514898935114200,0,-2,-1,0,1,0,-2,2
1514898935117202,-1,1,-1,-2,0,-1,-1,-3
1514898935117202,-1,-3,-2,-1,-2,-2,-3,0
1514898935137729,-2,-1,-2,-1,-2,-2,-1,0
1514898935137729,-1,-2,-1,0,0,-1,-2,-2
1514898935139229,-1,-2,1,-1,-1,1,0,0
1514898935139229,0,0,-1,-1,0,-1,0,-3
1514898935152227,0,-3,-1,-1,-2,-1,-1,-3
1514898935152227,-1,-2,-2,0,-3,-1,-2,-2
1514898935154728,-2,-2,-1,-1,0,1,-1,-2
1514898935154728,-3,1,-1,-3,-2,-1,0,-1
1514898935173741,0,-3,-1,-1,-1,-2,-1,0
1514898935173741,-1,-2,-1,-1,1,-2,-1,0
1514898935175753,0,0,-2,-1,-1,-1,-1,-1
1514898935175753,-1,0,0,-1,-2,0,-1,0
1514898935187781,-1,-1,-3,-1,-2,-2,-1,-1
1514898935187781,-1,0,0,-1,-1,-3,0,1
1514898935196767,-1,-1,-1,0,-1,0,-2,-1
1514898935196767,-1,0,-1,-1,-2,0,-1,0
1514898935211271,-2,-2,0,-1,1,1,-1,0
1514898935211271,-2,-2,-2,-1,0,-2,1,-1
1514898935217773,0,0,0,0,-2,-1,0,-1
1514898935217773,1,0,-1,0,-1,0,-1,-1
1514898935233785,-1,-4,-1,0,-1,-3,-1,0
1514898935233785,-2,-3,-1,-1,-1,1,-1,-1
1514898935235286,-2,0,-1,-1,-2,-3,-1,0
1514898935235286,-2,0,0,0,0,-1,-1,-2
1514898935247794,0,0,0,-1,-1,-1,-1,-1
1514898935247794,-1,-3,-1,-2,-1,-2,-2,-3
1514898935256302,-2,-1,-2,-2,-3,-1,0,1
1514898935256302,0,-1,0,-3,-1,1,-2,-1
1514898935271320,0,-2,-2,-1,-2,1,-1,0
1514898935271320,1,-2,-1,-1,-1,-2,-3,0
1514898935273323,0,0,-1,-1,0,0,-3,0
1514898935273323,-2,0,-1,-1,1,-2,0,-1
1514898935301335,-1,0,0,-2,-1,-3,-2,-1
1514898935301335,0,-3,-1,0,1,1,-2,0
1514898935304838,-2,0,-3,0,0,-1,0,-2
1514898935304838,-1,0,-2,-1,-1,-1,-1,0
1514898935316343,-1,0,0,-1,-1,-2,-1,-3
1514898935316343,-1,-1,-1,0,-1,-2,0,-1
1514898935317852,0,-1,-1,-2,0,0,-1,-1
1514898935317852,-1,0,-1,-1,-2,-2,-2,-1
1514898935331365,-1,0,-1,-2,0,0,-1,-2
1514898935331365,0,-2,-1,-2,-1,-2,-2,0
1514898935332855,-1,-1,-1,-1,0,-2,-1,-3
1514898935332855,-2,1,-2,-1,-4,0,-2,-2
1514898935361878,-1,-2,0,-1,-2,-1,-2,0
1514898935361878,0,-3,2,-1,-1,-1,-2,-1
1514898935364377,-2,0,-3,-1,-1,-3,-1,-2
1514898935364377,-3,-1,0,-2,-2,-1,0,-2
1514898935376395,-1,-1,0,1,-2,1,-1,-1
1514898935376395,0,-2,0,0,-1,-1,1,1
1514898935377886,1,0,-2,-2,0,-1,-1,0
1514898935377886,-2,-2,-2,-1,-2,-1,-1,-1
1514898935391408,0,0,-3,-2,1,-1,-1,-1
1514898935391408,0,-1,-2,-1,-2,-1,-1,0
1514898935392897,-2,-2,-1,0,-1,1,-2,0
1514898935392897,0,-1,-2,0,-1,-2,-2,-1
1514898935413911,-1,0,-2,0,-1,-3,-2,1
1514898935413911,-2,-1,-1,1,-1,-1,-1,-2
1514898935417414,0,-1,-1,-2,-1,-2,-1,-1
1514898935417414,0,-3,-2,-1,-1,0,0,-2
1514898935436427,-1,-2,0,1,0,-1,-3,-1
1514898935436427,0,0,-1,-1,-1,0,-3,-2
1514898935438929,-2,-2,-2,-1,-2,-2,-1,0
1514898935438929,-1,-1,-2,-2,-1,-1,-1,-1
1514898935458944,-1,-2,-1,-2,-2,-1,1,-1
1514898935458944,0,-3,-1,-2,-2,-1,1,1
1514898935462468,-2,-2,-1,0,0,0,-1,0
1514898935462468,-1,0,-2,-2,0,-1,-2,-1
1514898935473976,-1,-3,-1,-2,-1,-1,0,0
1514898935473976,-1,-2,-2,-1,0,1,-2,0
1514898935475477,1,0,-1,0,-2,-1,-1,-2
1514898935475477,-1,1,-2,-1,-1,-2,-1,0
1514898935496491,0,-1,-2,-1,1,-1,-2,-2
1514898935496491,1,-3,-1,-2,-1,-3,0,0
1514898935497993,-1,-3,1,0,0,-1,-1,-1
1514898935497993,-2,0,-1,-3,-1,-2,0,-3
1514898935510502,-1,-1,0,1,-3,-3,-1,0
1514898935510502,-1,-1,-1,-3,-1,0,0,0
1514898935518518,-3,-1,-2,-3,-1,-2,-1,-2
1514898935518518,-1,-1,-1,0,-1,0,0,0
1514898935534032,-2,-3,-1,-2,1,-1,0,-1
1514898935534032,-1,-2,-1,-1,0,-1,-2,-1
1514898935535520,-2,0,-3,-2,-1,0,-1,0
1514898935535520,-2,0,0,-2,-2,1,-2,-1
1514898935556535,-1,-2,0,-1,-2,0,-1,-2
1514898935556535,-1,-2,-1,1,-1,-3,-2,0
1514898935558035,-2,0,0,0,-1,0,0,-1
1514898935558035,0,-1,-2,0,-2,0,0,-3
1514898935570554,0,0,-2,-2,-2,-2,-1,-1
1514898935570554,0,0,-1,-1,-2,0,0,0
1514898935577559,-1,0,-1,-2,-1,-1,-3,-1
1514898935577559,-3,0,0,-2,1,0,-2,-1
1514898935595071,0,-1,0,0,-1,-2,-1,-2
1514898935595071,-2,-2,-3,-1,-2,0,-2,0
1514898935596563,-2,-2,-1,0,-2,-1,-2,-2
1514898935596563,0,0,-3,-1,-2,-1,-2,-2
1514898935616589,-1,-2,-1,-1,0,-2,0,-1
1514898935616589,0,-2,-1,-2,-1,-2,-1,-1
1514898935618079,-1,-1,-2,-1,-1,1,-1,1
1514898935618079,-1,-1,-2,-1,-2,-1,-1,-2
1514898935630596,-2,-1,0,-1,-2,-1,-2,0
1514898935630596,0,-1,-1,0,0,-3,-2,-1
1514898935637601,1,-1,-1,0,-2,-2,-1,-1
1514898935637601,-1,-1,-2,0,-2,0,0,0
1514898935653612,-3,-3,0,-1,-1,-2,-1,-2
1514898935653612,-3,-2,0,-2,0,-1,-1,-1
1514898935655605,-1,-1,-2,-1,0,0,-2,-3
1514898935655605,-4,0,-1,-1,0,-1,-1,-1
1514898935676128,0,-1,-1,0,0,-2,-1,-1
1514898935676128,-1,-1,0,1,-1,-2,-1,0
1514898935678130,-1,0,-1,-2,-1,-1,0,-1
1514898935678130,0,0,-2,0,-2,-2,-2,0
1514898935690629,-1,-2,-1,-1,-1,-1,1,-1
1514898935690629,-1,-2,-2,-1,0,0,-1,-1
1514898935697634,-1,-1,-1,-1,0,-1,-2,-2
1514898935697634,-1,0,-2,-2,-1,-1,-2,-3
1514898935714646,-2,-1,-2,-2,-1,-1,-1,-2
1514898935714646,-1,-1,-1,-1,-1,0,1,1
1514898935718149,-2,-2,-1,-1,-1,-1,0,-2
1514898935718149,-2,-1,-1,-1,-1,-1,0,-1
1514898935736174,1,-3,-1,-1,0,-1,-3,-2
1514898935736174,0,-3,1,-1,-2,-2,0,0
1514898935738175,-2,-1,0,1,-1,-1,0,0
1514898935738175,1,-2,-1,-1,-1,-2,-1,1
1514898935751172,-1,-1,-2,0,-1,-2,-2,-1
1514898935751172,0,-1,0,0,-1,-2,-1,0
1514898935757676,0,-1,-1,-2,-1,1,-1,-3
1514898935757676,-2,-1,-1,-1,-1,0,0,-1
1514898935774188,0,-1,-1,-1,-1,-1,-2,-2
1514898935774188,-1,-1,-2,-1,0,0,-1,-2
1514898935775190,0,-1,-1,0,-1,-1,-1,-1
1514898935775190,-2,0,-1,-2,0,-2,-3,-1
1514898935797204,-1,-1,-2,-1,-1,0,-1,0
1514898935797204,1,-1,-1,-1,-2,-2,-1,0
1514898935800707,-2,1,-2,-1,-2,-1,-1,-1
1514898935800707,-2,-1,-2,0,-1,-2,-2,-1
1514898935810216,-1,-1,0,-2,0,-1,0,-1
1514898935810216,0,-2,-1,-1,0,-2,0,0
1514898935818719,0,1,-2,-2,-1,-1,-1,-1
1514898935818719,-2,0,-1,0,-1,-1,-1,-2
1514898935833740,-2,-2,0,-1,0,-1,-1,0
1514898935833740,1,-2,-1,-2,-1,0,-1,-1
1514898935835231,-1,-2,0,0,-1,-1,-2,-2
1514898935835231,-1,0,-1,-2,-2,-1,-1,-1
1514898935856757,-1,-2,-2,-2,-2,0,0,0
1514898935856757,-1,-3,-1,-1,1,-1,-1,0
1514898935858249,0,-2,-1,0,-1,-3,-3,-2
1514898935858249,0,-1,-1,-2,-2,1,-1,-3
1514898935870257,0,-1,-2,0,0,-1,0,0
1514898935870257,-1,0,-1,-2,-1,0,-1,-1
1514898935879263,-2,1,-1,-1,-1,-1,1,-1
1514898935879263,-1,0,-1,0,-1,0,-1,-1
1514898935893782,-1,-2,-2,0,-1,-1,0,-1
1514898935893782,-3,-3,-1,-2,-2,-1,-1,-3
1514898935895774,0,-2,-2,-2,-1,0,-1,0
1514898935895774,0,0,-1,-1,0,0,0,-2
1514898935917289,-1,0,0,-1,0,-2,-2,-2
1514898935917289,-1,-1,-1,1,-2,-2,0,-1
1514898935920303,-1,1,0,0,-2,-1,-1,0
1514898935920303,-1,-1,-2,-2,-2,-2,-2,-1
1514898935929808,-2,0,-1,-1,0,0,-2,-1
1514898935929808,1,-2,-2,1,-1,-1,-1,-1
1514898935939313,-1,-1,-1,-2,-2,-1,-2,-2
1514898935939313,-2,-2,0,0,0,0,-2,-1
1514898935953824,0,-1,-1,-1,-2,-1,-2,-1
1514898935953824,-1,-1,0,-1,-1,0,-2,0
1514898935955317,-1,-2,-3,-1,-1,-1,0,0
1514898935955317,-1,-1,-1,-2,-3,0,-2,0
1514898935976340,1,-2,-2,-2,-1,-2,0,-1
1514898935976340,0,-3,0,-1,-1,-3,0,0
1514898935977841,-1,-1,-1,-3,0,-1,0,0
1514898935977841,0,-1,-1,-1,-2,-1,-1,0
1514898935990343,-1,-1,-1,0,0,0,-2,-1
1514898935990343,-1,0,-1,-1,1,-1,0,0
1514898935998847,-1,-1,-2,-1,0,-1,0,0
1514898935998847,-1,-1,-2,-2,0,-1,0,-2
1514898936014858,0,-3,0,0,-2,-1,-1,-1
1514898936014858,0,-2,-1,-1,-3,-1,-2,-2
1514898936018361,-2,-2,-1,0,1,-2,-1,-2
1514898936018361,-2,-1,0,-1,-1,0,-1,-1
1514898936036373,-2,-2,0,0,-2,-2,-1,0
1514898936036373,-1,-2,-1,-2,-1,0,0,0
1514898936037875,-2,-3,-2,-2,-2,-2,0,-1
1514898936037875,0,-1,-1,-1,-1,-2,-1,-3
1514898936049895,-1,0,-1,-1,-2,-1,0,-1
1514898936049895,0,-1,-1,0,1,-2,-1,0
1514898936058889,-1,0,-1,-2,-1,0,-2,-2
1514898936058889,-1,0,-2,-2,-1,-1,1,-1
1514898936073914,1,-3,-2,-2,-1,-1,-2,1
1514898936073914,0,-1,-2,1,-1,0,0,-1
1514898936075401,-1,-1,-2,0,-1,0,0,-2
1514898936075401,-1,-1,-1,-1,-1,-1,-1,-2
1514898936096416,-2,-3,-1,-2,-1,-1,0,-1
1514898936096416,0,-1,0,-1,0,-2,0,1
1514898936098917,-2,0,-1,1,0,-1,-2,0
1514898936098917,-1,-1,-1,1,-2,-1,-1,-2
1514898936109925,-1,-2,-1,-1,0,-1,-1,-2
1514898936109925,-2,-2,-1,0,-2,0,-3,0
1514898936118933,-2,1,-1,-1,-2,-1,-2,-2
1514898936118933,-1,-1,-1,-1,-1,1,-1,0
1514898936133962,-1,-2,-1,-1,1,-2,-2,0
1514898936133962,-1,-1,-2,-2,-1,-2,-1,-1
1514898936137445,-1,-1,-2,-3,-1,-1,-2,-1
1514898936137445,-1,0,-1,-1,-2,0,-3,-2
1514898936156459,0,-2,-1,-2,-1,-1,0,0
1514898936156459,-1,-1,-2,0,0,-2,0,-2
1514898936170477,0,-2,-1,-1,-1,-1,-1,-2
1514898936170477,-1,0,-2,0,-1,-1,-1,-1
1514898936171478,-2,-2,-1,-1,-3,-1,-3,-1
1514898936171478,0,-1,-1,0,-1,-1,-1,0
1514898936178979,0,0,0,0,-3,-1,-1,-1
1514898936178979,-3,-1,-1,-1,-1,-1,-2,0
1514898936193994,0,0,-2,-2,-1,-3,-1,-2
1514898936193994,0,-1,-1,-2,-1,1,0,-1
1514898936195485,-2,-1,0,-2,-1,-2,-2,0
1514898936195485,-1,0,-2,-1,-1,-3,-1,-1
1514898936216501,0,-2,-1,-1,-1,-2,0,-1
1514898936216501,-2,-3,-1,-3,-1,-2,0,0
1514898936231512,0,-3,0,-3,-1,-2,1,0
1514898936231512,-1,0,1,-1,-1,-1,-1,-1
1514898936239016,-1,1,-2,-1,0,-1,-1,-1
1514898936239016,0,0,0,-2,-2,-1,0,-2
1514898936240519,0,1,-1,1,-2,-1,0,-1
1514898936240519,0,-3,2,-2,0,-1,0,-1
1514898936254537,-1,-2,-1,-2,-1,-1,-2,0
1514898936254537,-1,-1,-2,-1,0,1,-1,0
1514898936256029,0,1,-2,0,-1,-2,-1,-3
1514898936256029,-1,0,-2,0,0,-1,-1,0
1514898936276553,-1,-3,-1,0,-1,-2,-2,0
1514898936276553,-2,-1,0,-1,-1,-1,0,-1
1514898936278054,-1,-1,-2,-1,-2,1,-3,0
1514898936278054,-1,-2,-2,-2,-1,-2,-2,0
1514898936299559,-1,-2,0,-1,1,0,-1,-3
1514898936299559,-1,0,-1,-1,-1,-3,-1,-1
1514898936303065,-2,-1,-1,-2,0,1,-1,-1
1514898936303065,-1,0,-1,0,-2,-2,1,0
1514898936314570,-2,-1,-2,-1,-1,0,-1,0
1514898936314570,0,0,-1,0,-2,0,-2,0
1514898936318072,-1,-1,-1,0,-2,-2,0,-2
1514898936318072,-1,-2,-2,-3,0,-1,-1,-4
1514898936336095,0,-2,1,-1,-1,-1,0,-1
1514898936336095,1,-2,-1,-2,1,0,-1,-1
