timestamp,emg1,emg2,emg3,emg4,emg5,emg6,emg7,emg8
1512443584456060,-1,0,-2,-1,0,1,-1,-2
1512443584456060,-2,-3,1,-3,-5,-2,-1,-1
1512443584458066,1,-1,-2,0,1,-1,0,-4
1512443584458066,1,1,0,-1,-1,-1,-2,1
1512443584479076,-1,-1,-2,-2,-1,-1,0,0
1512443584479076,-1,-1,-2,0,1,-1,-1,1
1512443584480077,-1,-2,-1,-1,-3,0,-4,0
1512443584480077,0,-3,-3,-2,-1,-2,-2,-4
1512443584493086,0,0,-2,0,-1,-1,-1,-1
1512443584493086,-1,-2,-3,-3,-3,1,-2,0
1512443584500091,-4,1,1,-1,-3,0,0,2
1512443584500091,0,-4,0,-1,-1,0,-1,0
1512443584516103,0,0,-2,-2,0,-2,-5,-2
1512443584516103,0,-3,0,-1,-1,-4,0,0
1512443584518105,1,-1,0,-1,0,0,1,3
1512443584518105,1,1,1,0,-2,-1,3,0
1512443584539118,0,0,-1,1,-2,-3,-2,-2
1512443584539118,-1,-5,-2,-2,1,0,0,-2
1512443584540120,-3,-1,0,-2,-3,-2,-4,-2
1512443584540120,0,2,0,-1,-1,-1,0,0
1512443584553128,-1,-3,2,-2,-2,0,1,-1
1512443584553128,1,-4,-1,-2,-2,-3,-1,-1
1512443584560137,-2,-6,-1,-2,-3,-2,2,-3
1512443584560137,-1,-2,-1,2,0,-1,-4,-1
1512443584576145,-3,-2,-2,-2,1,0,-1,0
1512443584576145,-1,-1,0,-3,-2,0,0,-1
1512443584578158,-2,1,1,-1,-2,-2,-2,-1
1512443584578158,-3,1,-2,2,-2,-1,0,0
1512443584599161,0,1,-2,-1,-1,-1,-1,-2
1512443584599161,2,0,1,0,0,0,-4,-3
1512443584600168,-1,-2,0,0,-2,-1,-2,1
1512443584600168,-2,0,-2,-1,-3,-2,0,0
1512443584612170,-3,1,-1,-2,0,0,1,-5
1512443584612170,0,-2,-5,-2,-1,0,0,-2
1512443584621186,-1,0,-2,-1,0,1,-1,-1
1512443584621186,-1,-6,1,1,-3,0,-3,0
1512443584636216,-2,-1,-1,-2,2,-1,-2,1
1512443584636216,0,1,0,-1,1,0,0,3
1512443584638219,3,1,0,-2,-2,-3,-1,-1
1512443584638219,1,-2,-1,-1,1,-2,-1,-5
1512443584658202,-1,0,-1,0,-3,-2,-1,-1
1512443584658202,-7,0,-1,1,-3,-1,0,-2
1512443584660204,-3,-2,-2,-2,-2,-1,3,0
1512443584660204,-3,-2,-1,-3,1,0,2,-4
1512443584672222,1,-2,0,0,-1,-2,0,-2
1512443584672222,-1,0,-1,-1,-3,-1,-2,-2
1512443584681219,-2,-4,-2,-2,-4,-3,-1,1
1512443584681219,-1,2,-2,-2,0,1,-3,1
1512443584697255,-3,-3,-5,-1,2,0,-1,-2
1512443584697255,-1,0,0,-2,-1,1,1,3
1512443584702235,-2,-1,-1,-1,-3,-1,1,-2
1512443584702235,0,-1,1,-2,-1,-2,-1,-2
1512443584718246,2,1,-1,-2,0,0,-4,1
1512443584718246,-3,0,-1,-1,-1,-1,1,-2
1512443584720248,0,0,0,1,-3,0,-2,-1
1512443584720248,-1,-1,0,0,-1,-2,0,1
1512443584732271,-3,0,-2,-4,-1,-1,2,-1
1512443584732271,-2,-2,-1,-1,-1,-1,-1,-5
1512443584741262,-1,-3,0,0,0,-1,-2,-2
1512443584741262,-3,4,-2,-3,-2,0,-3,0
1512443584755272,2,1,-1,-1,0,-2,0,1
1512443584755272,1,-2,0,-1,0,-2,-1,2
1512443584764279,-3,0,0,-3,-3,-1,2,-3
1512443584764279,0,0,-1,-1,1,-1,0,-1
1512443584778297,0,-2,-2,-1,-2,0,-4,-2
1512443584778297,0,-1,0,-4,-1,0,-2,-3
1512443584780289,2,-1,1,3,0,-1,-1,0
1512443584780289,1,-4,-1,-1,0,1,2,0
1512443584792298,-2,2,-3,-1,-3,0,-1,0
1512443584792298,0,-1,0,0,-3,-1,0,-1
1512443584801305,0,0,-1,-1,2,-2,-2,1
1512443584801305,-3,2,0,0,-2,-2,-1,-1
1512443584816355,1,-3,-2,-4,0,0,-3,-2
1512443584816355,-2,-3,-1,-4,-3,-1,-2,3
1512443584818350,0,-2,-2,-2,-2,1,0,-1
1512443584818350,0,-1,0,0,-3,-1,-1,0
1512443584838346,-1,-1,0,1,-1,-1,0,-3
1512443584838346,-3,2,-3,1,0,-4,2,2
1512443584840332,-2,-2,0,-1,-2,-2,-2,-1
1512443584840332,-1,-2,-1,0,0,-1,-3,-1
1512443584852350,-1,-2,1,-1,-2,-1,2,0
1512443584852350,2,-2,-2,-1,1,0,-2,-4
1512443584861354,0,-1,0,-1,1,-1,-2,-3
1512443584861354,-1,-1,-2,0,0,-2,1,-1
1512443584876358,-2,-2,-2,0,-1,-2,-1,2
1512443584876358,0,1,1,1,-4,1,-1,-3
1512443584878359,-1,-1,2,0,-4,-2,2,0
1512443584878359,-3,-2,-1,-1,-1,0,-1,-3
1512443584898397,1,-1,-3,-1,0,0,-3,-2
1512443584898397,-1,-3,-1,0,0,-2,-3,1
1512443584900381,-2,2,2,-1,-2,0,-1,-1
1512443584900381,-1,-3,-2,-2,-3,-2,0,0
1512443584912408,0,-3,-1,-1,0,-4,1,0
1512443584912408,-1,-2,0,-1,0,-1,-1,-4
1512443584921395,-1,-1,-3,0,1,0,0,-3
1512443584921395,-4,-3,0,-1,-2,1,1,-2
1512443584936415,-4,1,-1,-3,1,-1,0,-2
1512443584936415,-1,0,-2,1,-3,-4,-2,0
1512443584937402,0,-2,-1,-1,0,-1,-2,-3
1512443584937402,-2,-1,-1,0,-1,0,-1,1
1512443584958417,0,-3,-3,-3,0,0,-2,-2
1512443584958417,-1,0,2,-2,-2,-2,3,0
1512443584960431,1,1,0,0,-3,-1,-1,-2
1512443584960431,1,3,0,0,-1,-3,-1,-2
1512443584972426,-2,0,-3,-2,0,-1,-3,-1
1512443584972426,-4,-1,-2,-1,0,0,1,0
1512443584981436,-3,-3,0,0,-1,-1,-1,-1
1512443584981436,3,-1,0,0,-2,-1,-1,-1
1512443584996444,0,4,0,-1,-3,0,-1,2
1512443584996444,0,-2,-1,-3,-1,0,-1,-3
1512443584997455,-4,-3,0,-1,-3,-2,-1,2
1512443584997455,-1,-3,-3,-1,1,0,-2,0
1512443585018458,4,-1,-1,0,1,-1,1,2
1512443585018458,-2,-5,0,-2,-1,-1,-3,0
1512443585020460,3,4,-2,1,0,1,-1,0
1512443585020460,0,-5,-1,-2,-2,-3,-2,-2
1512443585032483,-3,-1,-2,-2,-3,1,-1,-3
1512443585032483,-2,-1,-2,-2,-3,0,-1,-2
1512443585041483,-2,-4,-1,-2,0,-1,0,1
1512443585041483,-2,0,-1,-1,0,0,-2,-1
1512443585056484,0,-2,-2,-1,-2,0,2,-1
1512443585056484,-2,1,-1,0,0,-2,-1,0
1512443585057485,-2,-3,1,2,-3,-1,2,-1
1512443585057485,-1,-1,0,-1,-1,-1,-3,1
1512443585078503,0,2,-2,-3,1,-1,-4,-3
1512443585078503,-1,0,-3,-1,-3,-1,-1,0
1512443585080501,0,0,0,-1,-2,2,-1,-1
1512443585080501,-1,-4,0,-2,1,-2,-1,1
1512443585101517,-1,-2,-3,0,-1,-2,1,-2
1512443585101517,-3,-2,-1,0,0,-3,-3,0
1512443585103518,0,-1,-2,-2,-2,-2,3,0
1512443585103518,1,2,0,-1,-2,-1,1,-3
1512443585116527,-1,-1,-5,0,-1,0,-2,1
1512443585116527,2,-2,1,1,-3,0,-2,-3
1512443585117528,-2,-2,1,-1,-2,-3,-4,4
1512443585117528,1,3,-1,-2,-1,-2,-1,-2
1512443585138557,1,0,0,-2,-1,-1,-2,-1
1512443585138557,-4,-2,-2,-1,1,0,1,0
1512443585140544,1,0,-1,0,-2,-2,-3,0
1512443585140544,-5,-2,-1,-1,-2,0,1,0
1512443585161558,0,1,-3,-1,-2,1,-1,-1
1512443585161558,4,-2,0,-2,-2,0,0,-4
1512443585162565,-2,-5,-2,-2,-1,-1,-2,-4
1512443585162565,-3,-4,-1,-1,-2,0,-1,-1
1512443585176569,-3,-2,-3,0,-2,-1,0,-2
1512443585176569,1,-5,-2,-2,-4,0,4,1
1512443585177570,-1,1,-1,-1,-1,-2,-4,1
1512443585177570,-2,-1,-3,2,1,1,-3,-2
1512443585198584,0,-1,0,0,-1,-4,-2,-2
1512443585198584,-3,-3,2,0,-1,-3,-4,1
1512443585200587,1,-1,-1,-2,0,0,1,0
1512443585200587,-2,-1,-2,-1,-2,0,-1,-1
1512443585228606,-1,0,-2,-3,-1,1,-2,-1
1512443585228606,-1,1,-2,0,-1,-2,0,2
1512443585230607,-5,-2,0,-1,-3,0,-1,2
1512443585230607,-1,2,-1,0,1,-2,-2,-2
1512443585235685,-3,-1,0,-3,-1,0,1,-2
1512443585235685,1,1,0,-2,-2,-1,-5,-2
1512443585242677,-3,0,-2,-3,-1,-3,-2,-1
1512443585242677,0,-3,-1,0,-3,-2,2,0
1512443585273683,-1,-3,-2,1,0,-2,-4,-4
1512443585273683,1,-3,-1,-1,-1,0,-1,0
1512443585275683,3,-2,-1,0,1,-1,2,-2
1512443585275683,-1,-2,-1,0,-2,-2,0,0
1512443585280693,-2,-2,0,-2,0,-2,-3,-1
1512443585280693,-2,1,-2,-2,-1,0,-1,-2
1512443585282678,-2,2,2,1,-2,0,-1,-1
1512443585282678,-2,-2,-3,-1,0,-2,-3,1
1512443585295775,-2,-2,0,-2,-2,0,1,2
1512443585295775,-1,-1,-3,-1,0,-2,0,-4
1512443585302724,-2,-3,-1,0,0,-2,0,-3
1512443585302724,1,-1,1,-1,-1,0,1,1
1512443585318757,-2,2,-1,2,1,-1,1,2
1512443585318757,-4,0,0,0,-1,1,0,-2
1512443585320743,-4,2,0,0,-2,0,-2,-3
1512443585320743,-1,-1,-1,-2,-1,0,1,-1
1512443585340751,1,-6,-2,-1,-1,0,-3,-2
1512443585340751,-2,0,0,-1,-1,-1,2,3
1512443585342752,1,-2,-2,-2,-4,-2,-3,-1
1512443585342752,2,-3,-1,-1,-1,-2,-2,-2
1512443585355761,-1,0,-3,-2,-1,0,-2,1
1512443585355761,-1,-3,-1,-1,1,1,-2,-2
1512443585362767,-2,-1,0,-1,-1,-2,-1,0
1512443585362767,-2,1,-1,-1,-2,-1,0,1
1512443585378777,0,-1,-1,0,0,-2,1,-2
1512443585378777,-1,-1,-1,-2,-4,-1,0,1
1512443585380778,0,-4,-1,-2,-3,-2,1,-2
1512443585380778,-1,-1,-3,-2,1,2,-2,0
1512443585401795,-1,0,0,-3,0,-3,-3,-3
1512443585401795,-3,1,-1,2,-4,-2,-1,-4
1512443585403796,-1,-1,0,-1,-3,-1,-3,0
1512443585403796,-1,1,-1,-1,-2,-1,2,-2
1512443585415806,0,-3,-2,0,-1,1,-3,0
1512443585415806,1,1,-2,-3,0,-1,2,-2
1512443585429816,-1,0,0,0,-1,1,1,-1
1512443585429816,0,2,-1,-2,-1,0,-3,0
1512443585438819,3,-2,-1,0,0,-1,-1,0
1512443585438819,-1,-5,-1,-2,0,-2,-1,1
1512443585439821,-4,0,2,1,-1,-2,-2,-2
1512443585439821,0,0,-2,-1,-1,0,-2,-3
1512443585459861,0,0,-2,-2,-2,0,-2,-4
1512443585459861,-1,0,1,1,-4,-1,1,-1
1512443585468850,-2,-2,1,-2,1,1,1,-1
1512443585468850,-3,-1,-1,0,-2,-2,-1,-1
1512443585475856,-2,2,-2,-5,-3,0,0,0
1512443585475856,2,1,1,0,-1,1,-3,-3
1512443585481861,0,2,-3,0,-1,-2,1,0
1512443585481861,2,-1,-1,0,-1,-3,2,-4
1512443585498872,0,-3,-2,0,-2,-1,0,-4
1512443585498872,-1,-1,-4,-1,2,-3,-4,-1
1512443585500873,2,0,1,-1,1,-1,-3,-1
1512443585500873,-1,0,-2,-1,0,0,-1,-2
1512443585520887,0,0,0,-2,0,0,-2,1
1512443585520887,-2,-1,0,-1,-2,0,-1,2
1512443585522889,-1,-2,-2,0,-2,-1,-4,-4
1512443585522889,-2,-4,0,-1,1,0,0,-2
1512443585534909,-1,-1,-3,-2,1,0,0,-2
1512443585534909,0,0,-1,-2,-3,-1,-1,-1
1512443585543903,-3,-1,-4,0,-2,0,-1,3
1512443585543903,0,0,0,-1,-2,0,-2,0
1512443585558931,-2,1,-2,-1,3,1,-3,0
1512443585558931,1,-3,2,-1,-2,0,-2,-2
1512443585559932,0,0,-2,-1,-2,0,0,2
1512443585559932,-1,-4,-3,-2,-1,-2,1,0
1512443585580939,-2,-1,1,0,0,-1,-1,-1
1512443585580939,-3,-5,-2,-1,-1,-1,1,-1
1512443585582941,-1,-2,-1,-1,-1,0,-1,-1
1512443585582941,0,-2,-1,-1,-2,-1,-2,-2
1512443585594963,-2,-4,-3,-1,-3,-2,0,-4
1512443585594963,-1,4,-1,-2,-1,-2,-3,0
1512443585604035,-3,-3,0,0,-1,0,1,0
1512443585604035,0,-1,-2,1,-1,1,0,1
1512443585619059,-1,-1,0,-1,-2,-1,-1,-2
1512443585619059,0,-1,-1,-2,0,-1,1,-4
1512443585620045,-2,-5,-1,-2,-1,-1,-1,-1
1512443585620045,-3,-1,0,-2,-1,-2,-3,1
1512443585641055,0,0,1,-1,-1,-3,-1,-2
1512443585641055,-3,-2,-2,0,-1,-1,0,1
1512443585643048,0,-2,-1,-2,-2,0,0,3
1512443585643048,0,2,-2,-1,0,0,0,-3
1512443585655056,-2,-2,1,-2,-3,2,-1,1
1512443585655056,-3,-1,-2,0,1,-1,-4,0
1512443585664063,2,0,-2,0,-1,-3,-4,-2
1512443585664063,-1,0,-2,-2,2,0,-2,-4
1512443585679073,0,1,-1,0,2,-2,-1,1
1512443585679073,2,-1,-1,0,-4,-1,0,-3
1512443585680075,-1,-3,1,-1,-2,-1,1,-1
1512443585680075,-2,0,2,-1,-2,-2,-2,-1
1512443585701088,-1,-1,-5,-1,0,-2,-2,-3
1512443585701088,1,-1,-1,-1,-2,-1,-1,1
1512443585704091,-2,1,1,0,-1,-2,-1,-3
1512443585704091,-1,-1,0,-2,-3,-1,-3,0
1512443585715109,-1,-2,-4,-2,0,-2,2,0
1512443585715109,-3,0,-1,-3,-3,-1,-1,2
1512443585724106,-1,0,0,-1,2,0,1,-4
1512443585724106,-1,-3,1,-1,2,-1,1,1
1512443585739125,-2,-2,2,-2,-2,0,-1,1
1512443585739125,-1,0,-1,-2,-2,-2,-3,-6
1512443585740117,1,1,-2,-2,-1,-1,2,-2
1512443585740117,-1,-1,-1,0,-3,-3,-1,-1
1512443585761140,-3,-3,-2,0,-1,-2,-1,-2
1512443585761140,-1,-3,1,0,-3,-1,0,2
1512443585763133,-2,-2,-2,-2,1,-1,0,2
1512443585763133,0,-2,-2,-2,0,0,-2,-4
1512443585775151,-2,1,1,-2,0,-3,-2,-3
1512443585775151,-1,-3,-4,-2,0,-1,2,-4
1512443585784148,-4,-1,0,-1,-3,-1,0,-2
1512443585784148,0,-3,0,-2,0,-1,-1,0
1512443585798158,-2,1,-1,-2,-3,0,0,-4
1512443585798158,-1,0,-1,-3,1,0,0,-3
1512443585800160,0,-3,-3,0,-1,-1,-2,0
1512443585800160,-1,0,-2,-1,1,-3,-1,-1
1512443585821176,-1,3,-1,1,0,-1,0,-3
1512443585821176,-1,0,0,0,3,-2,-1,1
1512443585823194,-3,-1,1,-1,-2,-3,-3,-2
1512443585823194,0,-3,-3,-1,-2,1,-1,-2
1512443585835205,2,-2,-4,1,-1,0,-1,-4
1512443585835205,-2,-1,-2,0,1,-1,1,-1
1512443585844190,-1,0,0,-1,-4,-1,-2,-1
1512443585844190,1,1,-3,1,-2,-2,1,0
1512443585858247,2,1,-3,-3,1,-3,-2,0
1512443585858247,-1,-1,0,-2,-3,1,-2,-1
1512443585860248,1,-1,-1,-1,0,-3,-1,0
1512443585860248,0,2,2,-1,-2,0,-3,-1
1512443585881265,1,-3,-1,-2,2,-1,-3,1
1512443585881265,1,0,1,-2,-1,-1,-1,-2
1512443585883250,0,0,-2,1,-1,0,1,-3
1512443585883250,-2,0,-3,1,-5,-1,1,-4
1512443585895258,0,-2,-3,-1,1,0,-2,2
1512443585895258,0,-1,-1,-2,0,-2,-2,-2
1512443585904275,-2,1,-2,-1,-2,-1,-3,-1
1512443585904275,-4,-1,-1,-2,0,-2,-2,-3
1512443585918274,-1,-5,-1,-1,-2,0,0,1
1512443585918274,1,-2,-2,2,-1,-2,0,-2
1512443585920277,-2,-1,1,0,-1,-3,-1,2
1512443585920277,-1,1,-1,-1,-2,-2,-1,-1
1512443585941300,-3,-2,-2,-3,-4,0,2,-2
1512443585941300,-1,-2,-3,0,-2,0,-1,0
1512443585947305,0,-2,2,-2,-1,-1,-1,2
1512443585947305,-3,0,2,-1,1,-2,-4,-1
1512443585954300,-1,0,-4,-1,-2,-1,0,1
1512443585954300,0,-2,-1,-1,-2,0,1,-1
1512443585963319,1,-4,0,-1,-3,-2,0,-1
1512443585963319,2,-2,0,0,0,0,-1,0
1512443585978331,-1,-2,-2,-2,-1,-1,-3,-3
1512443585978331,-4,1,-2,-3,0,-1,-1,-2
1512443585980319,1,-2,-1,-1,-1,-1,-3,1
1512443585980319,-1,-2,-2,1,-1,-4,-1,1
1512443586001333,0,0,0,-1,0,-1,-2,1
1512443586001333,-2,-1,-1,-3,-1,-1,-1,0
1512443586003335,-2,-3,0,0,-3,-1,0,-3
1512443586003335,-3,2,0,1,-3,-3,0,-2
1512443586023350,-2,0,0,-1,-2,-1,3,-3
1512443586023350,-2,-2,1,1,-2,-2,-4,-2
1512443586025350,0,0,-4,-1,1,-2,1,0
1512443586025350,0,0,-3,-3,-2,0,-2,1
1512443586038359,-2,1,0,0,-2,-3,-2,0
1512443586038359,-1,-2,-1,-1,0,1,1,0
1512443586040364,-2,-2,-1,-2,-3,0,1,0
1512443586040364,-1,-2,1,0,-3,-1,-5,-2
1512443586061377,2,-3,-3,-2,2,-2,-1,-2
1512443586061377,-1,-3,0,-2,-2,-3,-1,1
1512443586062376,0,-2,1,0,-3,-1,0,-4
1512443586062376,0,-2,-2,-1,1,0,1,1
1512443586083395,-3,0,-1,-2,0,-1,-2,-1
1512443586083395,0,-1,-2,0,-1,-1,0,0
1512443586085393,-2,-1,2,-1,-2,-1,-2,-4
1512443586085393,-1,0,-1,-2,-4,-1,3,-3
1512443586098428,1,0,0,1,-3,-1,-2,-2
1512443586098428,-3,-1,-3,0,-2,-2,-3,1
1512443586100404,-3,-1,0,-1,-1,-2,0,-3
1512443586100404,-2,-2,1,-1,1,-1,1,-2
1512443586121442,-2,-2,-5,-1,0,-2,2,-1
1512443586121442,-1,-1,1,-2,0,-1,0,-2
1512443586122420,-2,-5,0,0,-4,1,-3,-1
1512443586122420,-2,0,1,-2,0,-1,-3,-2
1512443586143446,-2,-2,-1,-4,1,0,0,-4
1512443586143446,-3,-3,-3,1,-1,-1,0,-1
1512443586145436,-4,-2,0,0,-2,-1,1,0
1512443586145436,-2,-2,0,-1,-1,-3,-2,0
1512443586157455,-1,0,0,0,0,1,-1,0
1512443586157455,-2,0,-1,-2,0,0,-3,-1
1512443586166463,-1,0,-1,-1,0,-1,-3,-1
1512443586166463,0,-2,-2,-1,-3,0,0,-1
1512443586181475,-1,2,-2,2,-3,-1,-4,-1
1512443586181475,2,-1,-3,-2,-1,-1,-2,-1
1512443586182469,-2,2,1,0,2,-2,-1,0
1512443586182469,2,2,-1,-1,0,-2,1,-2
1512443586203476,-2,0,-1,-2,-2,-4,0,-2
1512443586203476,0,1,-1,0,-2,-1,-1,0
1512443586205477,-2,-1,-3,0,1,-1,0,0
1512443586205477,0,-3,0,-1,0,-1,-2,1
1512443586218486,-1,-2,0,-2,-2,1,-1,-3
1512443586218486,-3,0,-1,0,-1,-2,1,-1
1512443586224509,0,0,0,-2,0,0,0,2
1512443586224509,-3,-3,-2,0,0,0,-2,-4
1512443586241503,0,-1,-1,-3,-1,-1,-1,0
1512443586241503,0,-3,-2,-2,-1,-1,0,-2
1512443586242504,-1,1,0,1,-1,-1,-3,-1
1512443586242504,-1,-2,-1,0,1,-1,-2,-1
1512443586263519,0,0,-2,-2,0,-1,0,0
1512443586263519,-2,0,-3,-2,-2,-1,0,-1
1512443586265520,0,-3,-2,0,-4,-3,-2,0
1512443586265520,-2,0,-2,0,-1,-1,-1,-1
1512443586277529,-1,1,-3,-4,-2,-1,-2,-1
1512443586277529,-2,-2,2,-1,2,-2,-2,0
1512443586284533,-1,-3,-1,0,-2,0,2,-4
1512443586284533,0,-1,0,0,-3,-2,-2,2
1512443586301545,0,-4,-1,0,1,-3,-1,0
1512443586301545,-2,-3,-2,-2,-2,-1,-4,0
1512443586303547,-2,2,0,-2,-1,-3,-2,-1
1512443586303547,-2,0,-2,0,-1,0,0,-3
1512443586323562,0,0,0,-2,0,0,0,-2
1512443586323562,0,-5,0,-1,-2,-1,-2,1
1512443586325563,1,-1,0,-2,-1,0,0,-2
1512443586325563,-1,-1,-1,-2,0,-1,0,-2
1512443586337573,-2,-2,-1,1,2,2,-1,-1
1512443586337573,-3,-1,-1,-1,-2,-2,2,-1
1512443586344578,-1,0,-2,-2,-3,-1,-1,-1
1512443586344578,-2,-1,0,-1,1,-2,1,-2
1512443586361588,-5,0,-1,0,-2,-1,-2,-1
1512443586361588,0,0,-2,-1,0,-1,1,-1
1512443586362588,0,0,-3,-1,-2,0,-2,1
1512443586362588,-2,-2,-5,-3,-2,-3,1,-2
1512443586383605,-1,0,-1,-1,0,-1,-3,0
1512443586383605,-1,0,0,-1,-1,-1,0,0
1512443586385607,-1,0,-2,-1,-2,-2,-2,1
1512443586385607,-1,-2,0,-1,0,0,-1,-2
1512443586397615,0,0,-1,-3,0,-1,-2,-1
1512443586397615,-3,-1,0,0,-3,-1,-3,-3
1512443586404620,-1,-3,0,-1,-2,-2,-1,0
1512443586404620,0,-2,0,0,-1,0,-2,-1
1512443586421631,-1,-2,-2,-1,0,-2,-2,-3
1512443586421631,-1,-1,0,0,-3,-1,1,0
1512443586422639,-3,-1,0,-1,0,0,-2,1
1512443586422639,1,-1,-2,-1,-1,0,1,2
1512443586443646,2,1,-1,-3,-2,0,0,-2
1512443586443646,1,-2,0,-4,-3,-2,0,0
1512443586445647,-3,-3,0,0,-3,0,-2,-1
1512443586445647,-2,-2,0,-2,-2,-2,-2,-2
1512443586457656,-3,-1,-2,1,-2,-1,-3,0
1512443586457656,0,-1,-3,-1,2,-1,0,-3
1512443586464661,1,-1,0,-1,2,0,1,-3
1512443586464661,1,-2,0,-1,1,-2,-2,2
1512443586488677,-1,-1,-2,1,-2,-2,-1,-1
1512443586488677,-2,1,-1,-2,-3,-1,-2,-1
1512443586490682,-1,-2,2,-1,-1,-2,0,1
1512443586490682,-4,-1,-1,0,2,1,-1,0
1512443586503689,-1,-1,-2,-4,0,-1,0,-4
1512443586503689,2,-3,1,0,-2,-1,-2,-2
1512443586509693,0,-1,2,-2,-3,-3,-1,-2
1512443586509693,-2,1,-2,-2,-4,-1,-2,2
1512443586517699,0,0,0,-2,0,1,-1,-1
1512443586517699,-1,1,-1,0,0,1,1,0
1512443586526704,-1,-1,-1,-1,3,-2,0,-4
1512443586526704,0,-2,-1,-2,-1,-1,0,-4
1512443586541715,0,-1,-4,-1,-3,0,-1,1
1512443586541715,-2,-2,-1,-2,-1,-2,-3,-1
1512443586547719,-1,-1,-1,-1,0,-1,0,2
1512443586547719,-1,-1,0,0,-1,0,0,-4
1512443586563731,1,-3,-4,-2,1,-1,-2,0
1512443586563731,0,-3,0,0,-1,0,-2,-2
1512443586565732,-2,1,0,2,-4,-1,0,-2
1512443586565732,-4,1,-2,-2,0,-2,-2,-1
1512443586577741,0,-1,-1,-3,-3,-1,-1,2
1512443586577741,-1,0,-1,-2,1,0,-2,1
1512443586586747,-3,1,-1,-1,0,1,-4,-2
1512443586586747,0,-2,-3,0,0,0,0,-1
1512443586600815,0,-2,0,-2,0,1,1,0
1512443586600815,-1,0,-1,-3,1,-1,1,-2
1512443586603778,0,-1,-2,0,1,-1,-1,-3
1512443586603778,0,-1,0,-2,-3,-1,-2,-1
1512443586623788,-2,-1,-2,-2,1,-2,-1,-3
1512443586623788,-2,-3,0,1,-1,1,4,2
1512443586624774,-2,-1,-2,-2,-1,-3,-1,1
1512443586624774,-1,-1,-2,-2,-1,0,-1,-1
1512443586636783,-2,-2,0,2,-1,-1,-3,-4
1512443586636783,0,2,-1,-2,-3,-2,-1,0
1512443586646789,0,1,0,-2,-1,0,-3,-1
1512443586646789,0,-4,-3,-1,0,-2,-1,-2
1512443586660799,-3,0,0,-2,-2,-2,-3,1
1512443586660799,-3,-1,0,0,-2,-2,-2,-1
1512443586662802,1,-2,0,0,-3,0,0,-1
1512443586662802,2,-3,-2,-2,2,-2,0,-3
1512443586683816,-3,-1,-2,-1,-1,1,-1,-3
1512443586683816,1,2,0,-2,-2,0,-2,-1
1512443586684817,-2,-2,-2,-2,-2,-2,1,-1
1512443586684817,-3,1,-4,0,0,-1,-1,1
1512443586696826,1,-1,1,0,1,-2,-1,-1
1512443586696826,0,-4,-1,-1,0,-1,0,-2
1512443586705831,0,-1,-1,-2,0,-1,-2,1
1512443586705831,-1,1,-1,0,-3,0,0,-4
1512443586720842,-1,-1,-3,-3,-2,-1,1,0
1512443586720842,0,0,0,-1,-1,-2,-2,3
1512443586722843,-5,-3,1,1,-3,-1,0,0
1512443586722843,-1,1,0,-3,-2,0,-1,0
1512443586743859,-1,0,-1,-1,-3,-1,2,-2
1512443586743859,-1,-2,-1,-1,-4,0,-3,-1
1512443586744860,1,-2,1,1,-1,2,-3,-2
1512443586744860,-1,3,-1,0,2,0,-2,-4
1512443586756880,-3,-1,0,-2,-4,-1,-3,0
1512443586756880,0,-4,-3,-2,-1,0,-2,0
1512443586765874,-1,-4,-2,-2,-3,-2,1,1
1512443586765874,0,1,0,-1,1,-1,-4,1
1512443586780884,0,0,-1,0,0,0,-1,-1
1512443586780884,0,-2,0,-1,-2,-2,-2,-2
1512443586782886,-2,1,-1,0,-1,0,0,-2
1512443586782886,-1,-2,-1,-2,-1,-2,-1,-3
1512443586803937,-1,3,-2,-1,0,-2,-2,2
1512443586803937,-4,-2,-1,-2,-2,0,-2,-1
1512443586804937,0,-2,0,0,1,-5,-2,0
1512443586804937,-1,0,-3,-1,-3,1,-2,-2
1512443586825965,-3,-1,-2,-1,0,-2,-2,-1
1512443586825965,-1,-1,0,-1,-2,0,3,-3
1512443586827954,1,1,1,1,1,0,-1,0
1512443586827954,-2,-1,-2,-3,-3,-2,-1,0
1512443586839979,1,-1,-3,-3,-3,-3,-2,-2
1512443586839979,-1,0,-1,-2,-2,-1,-2,1
1512443586848992,-2,-2,-1,-2,1,-1,-1,-1
1512443586848992,0,-5,0,0,-3,-2,-1,-1
1512443586863979,-1,-4,-2,-1,-2,1,2,0
1512443586863979,0,-1,0,0,0,-1,0,1
1512443586864981,-2,1,0,-1,-3,-2,-1,-2
1512443586864981,-2,0,0,0,-1,0,-3,0
1512443586876988,0,0,-4,-3,0,0,-1,1
1512443586876988,-3,0,-1,1,-3,-1,-3,-1
1512443586886005,-2,-1,-1,1,-1,0,0,-3
1512443586886005,-1,-2,-4,-3,-1,-1,0,4
1512443586902016,1,-4,-2,0,-1,-1,-1,-3
1512443586902016,-2,0,1,-2,0,-2,4,-1
1512443586903007,1,0,-1,-2,-4,-2,0,-2
1512443586903007,2,-2,-2,0,-2,-1,0,-3
1512443586924033,-1,-1,-1,-2,-2,-3,0,-1
1512443586924033,-1,0,-4,0,0,-2,-1,1
1512443586925023,-1,0,-1,-3,-1,0,-2,0
1512443586925023,-3,0,-2,-2,2,-2,-1,0
1512443586946054,-1,0,-2,-2,-1,-1,-2,-3
1512443586946054,-2,-3,0,-1,-3,-1,-2,-4
1512443586948040,-2,-3,-2,-2,-3,-3,2,-2
1512443586948040,-3,0,-2,0,2,0,-3,0
1512443586961058,-1,-4,0,0,-1,0,1,-2
1512443586961058,-2,-1,-1,-1,-1,-3,0,-1
1512443586963059,-3,-3,1,-2,-1,1,1,2
1512443586963059,-2,1,-3,-1,-1,-1,-1,-3
1512443586984064,2,-2,-2,-1,-1,-2,-2,-1
1512443586984064,0,-3,-1,-1,-1,1,-3,-1
1512443586985066,-1,-3,2,-1,-4,1,-2,-1
1512443586985066,-1,-1,-1,0,1,-2,-1,-4
1512443587006092,-3,-2,-1,-2,-1,-1,-4,-1
1512443587006092,0,-1,1,0,-1,-1,0,-1
1512443587008093,-3,-4,-2,0,1,-3,-2,-1
1512443587008093,-1,1,0,0,0,-2,3,0
1512443587022104,-2,-1,-2,-2,-4,-1,-2,-1
1512443587022104,1,-1,1,-1,0,0,-1,-2
1512443587029096,-3,-4,-2,-1,-4,-2,-1,-1
1512443587029096,-2,-1,-3,-2,0,0,2,0
1512443587044119,1,1,0,-2,-1,1,0,-4
1512443587044119,-1,2,1,0,-1,-3,0,3
1512443587045109,0,-1,-1,-1,-3,0,-2,-1
1512443587045109,2,-1,0,-3,-1,1,-4,0
1512443587066122,-1,-3,-2,-1,1,0,-1,-2
1512443587066122,-2,1,-3,1,-2,0,-1,-3
1512443587068136,2,0,-1,-1,-1,-1,-1,-1
1512443587068136,0,-3,-1,-1,0,-1,-1,-2
1512443587080132,-4,-1,-2,-2,0,2,-3,1
1512443587080132,-3,-5,1,-3,-3,-1,-1,1
1512443587087137,-1,-1,-2,-2,-2,-1,0,-3
1512443587087137,-1,-2,-2,-2,-2,-2,0,0
1512443587103161,0,-1,1,-2,-1,-1,-1,0
1512443587103161,-3,-3,-1,-1,0,-2,1,2
1512443587105149,-1,0,0,1,1,-1,-4,0
1512443587105149,0,-2,0,-3,-2,1,-3,2
1512443587133169,-2,1,-2,0,-1,-2,-1,-4
1512443587133169,-1,-1,-1,0,-3,0,0,-2
1512443587135173,3,1,-1,0,1,-2,0,-1
1512443587135173,1,2,-3,-2,1,2,-3,0
1512443587140220,-1,-2,1,-1,-3,-3,0,2
1512443587140220,-2,-2,0,1,-4,-1,-1,-1
1512443587147179,-3,-5,-2,-2,-2,-1,-2,-1
1512443587147179,-1,-2,-1,0,0,0,-3,-4
1512443587163193,0,0,-3,-3,0,-2,2,1
1512443587163193,-2,0,-1,-2,0,-2,-2,0
1512443587165201,-2,0,1,-1,-3,-3,1,-4
1512443587165201,0,-1,-2,0,-2,-2,0,-5
1512443587186217,0,4,0,1,-4,1,-1,0
1512443587186217,3,-3,-1,0,1,-1,-1,-2
1512443587188221,-3,-3,0,-1,-1,0,0,2
1512443587188221,-1,0,-2,-1,1,-1,0,0
1512443587200232,2,0,0,-2,2,-2,-1,-3
1512443587200232,2,-1,-1,-3,0,0,-1,0
1512443587207223,0,-1,-2,-3,0,0,1,0
1512443587207223,0,-3,0,-1,-2,-2,1,-3
1512443587224235,-3,-3,-1,1,-2,-2,-1,1
1512443587224235,-2,-2,2,1,-3,-1,-1,-1
1512443587225234,0,-1,-1,-1,-4,-2,-1,2
1512443587225234,-3,-2,-1,-1,0,-1,-1,0
1512443587246262,-1,-4,0,-2,1,-1,-2,0
1512443587246262,1,0,-2,-2,-1,-3,0,-2
1512443587247250,1,2,0,-1,-1,-1,-2,-1
1512443587247250,-4,-3,0,-1,-1,-3,-2,-1
1512443587260272,-1,2,-3,-3,-1,-1,1,1
1512443587260272,-2,-4,0,-2,-1,-3,0,1
1512443587267276,0,-3,-1,-1,-1,1,-2,-1
1512443587267276,0,2,-1,1,-1,1,-2,-1
1512443587283278,-2,-2,-1,-2,0,-1,-1,-4
1512443587283278,-2,-2,1,1,-2,-1,-2,-2
1512443587285289,-3,-2,1,0,-2,-3,1,-2
1512443587285289,0,0,-3,-2,-3,-1,2,-3
1512443587306309,0,-2,-2,-1,0,0,-2,-3
1512443587306309,-3,2,-2,-2,-2,-1,0,0
1512443587307310,-2,0,0,0,1,-2,-4,-3
1512443587307310,-3,1,-2,-1,-1,-2,-1,-2
1512443587320307,1,-2,-1,0,-3,-2,0,-1
1512443587320307,0,-1,-1,-3,0,-2,1,-1
1512443587327307,0,-3,0,0,-3,-1,-1,0
1512443587327307,0,1,-1,-1,-1,1,-2,-1
1512443587343319,-3,1,-1,-2,-2,-1,1,-5
1512443587343319,-3,-1,1,-2,-1,0,-3,-3
1512443587345319,0,2,-2,-1,2,-1,0,-2
1512443587345319,-1,0,-1,-1,-1,-1,-4,-2
1512443587374342,-3,-2,-2,1,0,-1,-1,-4
1512443587374342,-3,1,-2,0,-2,-1,0,1
1512443587375341,0,0,-2,0,-2,0,0,2
1512443587375341,2,-1,-2,-1,1,1,2,-1
1512443587380344,-2,-1,-1,-2,-3,0,-1,0
1512443587380344,2,-3,1,1,-2,-2,-1,-1
1512443587387349,-2,1,-2,0,-1,0,0,-3
1512443587387349,-3,-1,-3,0,0,-2,0,3
1512443587402360,-1,0,0,-2,-1,-1,-3,0
1512443587402360,2,0,-3,-1,1,-1,0,-2
1512443587411366,0,-2,-2,0,0,-1,-1,1
1512443587411366,2,-1,-2,-2,-3,-3,-4,-3
1512443587426378,0,0,-1,1,0,-1,2,1
1512443587426378,0,-2,-1,-2,-2,-2,-2,-1
1512443587427379,-3,-2,-1,-2,1,-1,-2,-3
1512443587427379,1,-5,0,-1,0,-1,-2,-3
1512443587439386,-1,0,-2,-1,-2,-1,-2,2
1512443587439386,0,-2,0,-1,-1,1,-3,-1
1512443587448392,-3,1,-1,0,0,-1,-3,0
1512443587448392,-1,-2,-3,-2,1,-2,3,-2
1512443587463403,-1,-1,-1,0,-1,-1,-1,-2
1512443587463403,-3,-4,-1,-2,-1,0,2,-3
1512443587465405,-3,-4,0,-1,-2,-1,-1,1
1512443587465405,2,-1,-2,-1,-1,0,-3,2
1512443587486420,-2,0,-2,0,-2,-1,-1,-2
1512443587486420,-2,4,0,0,-3,-1,1,1
1512443587487430,3,0,0,1,-1,-1,-5,-2
1512443587487430,-3,-3,0,-1,-1,-1,1,-2
1512443587499432,1,-5,0,-2,0,-2,1,0
1512443587499432,-2,-1,-1,1,0,-2,-2,0
1512443587514479,2,-2,0,-2,-3,-2,-1,-2
1512443587514479,-1,0,-2,0,-1,0,0,-1
1512443587531465,-1,-2,0,-1,0,0,-4,-4
1512443587531465,-3,-3,-1,-2,-1,0,0,0
1512443587532464,-3,-1,-2,-1,-1,-3,0,-1
1512443587532464,-1,0,-2,-1,1,-2,-2,0
1512443587545461,-3,1,-1,-1,-1,0,-1,1
1512443587545461,3,-1,0,-1,-3,-2,3,1
1512443587553466,-3,0,2,0,-3,-1,-2,-4
1512443587553466,-1,1,-3,-2,-1,2,-4,0
1512443587559471,0,1,-2,-1,0,-3,-1,1
1512443587559471,-2,-2,-1,2,-1,0,-3,0
1512443587568478,1,-2,-3,0,0,-2,2,1
1512443587568478,-5,-2,-2,-1,-1,-2,-1,-2
1512443587583506,1,0,0,-1,-3,0,-1,2
1512443587583506,0,-1,-1,0,-2,-2,-3,-2
1512443587585489,0,1,1,-3,-2,-2,1,-5
1512443587585489,0,0,-1,-2,0,1,0,3
1512443587606504,0,-2,-1,-1,1,-2,0,-3
1512443587606504,-2,-1,-1,-1,-2,-3,1,-2
1512443587607506,-3,0,-2,-1,-1,0,1,4
1512443587607506,3,1,-2,-1,0,-2,-1,-2
1512443587619513,-3,-2,-1,0,0,-2,-3,1
1512443587619513,-2,-2,1,-2,-1,-2,-2,-3
1512443587628520,-1,-2,-4,-2,0,0,-2,-1
1512443587628520,-2,0,-2,-2,-2,-1,1,1
1512443587643542,2,-1,-1,0,-1,1,-3,1
1512443587643542,-1,-1,0,-2,-1,-3,-3,-4
1512443587649547,-1,1,-1,0,1,0,-2,-2
1512443587649547,-1,-3,-1,-1,0,-1,0,-4
1512443587666547,-1,3,-1,-4,1,0,-2,-3
1512443587666547,-1,0,2,1,-2,-1,-1,2
1512443587667549,1,-4,-2,-1,-3,0,1,2
1512443587667549,0,0,-1,-1,1,1,0,-3
1512443587679558,-3,-3,-1,-1,-4,-3,-1,-4
1512443587679558,3,0,-2,0,-6,1,-1,0
1512443587688563,-4,-2,-1,-1,-1,-1,2,-1
1512443587688563,-1,-2,-2,0,-2,-3,-4,-2
1512443587703585,0,1,-2,-1,-2,-1,3,-1
1512443587703585,-1,-1,1,-1,1,0,-1,1
1512443587705586,0,-2,1,-1,-5,-1,-2,-2
1512443587705586,1,-2,-4,-1,-1,0,-1,-1
1512443587726590,-1,0,-1,-3,0,-1,-1,-1
1512443587726590,0,0,0,-1,-1,0,1,-2
1512443587727590,-1,2,0,-3,0,-1,-3,-1
1512443587727590,-3,0,-1,0,1,-3,0,-1
1512443587739612,-2,-3,0,2,1,1,1,-1
1512443587739612,-2,-1,-1,-1,-3,0,0,-2
1512443587756629,0,-1,-1,-4,0,-2,-2,-1
1512443587756629,1,-2,-1,-2,-1,0,-1,-2
1512443587763615,0,0,-1,0,-2,-2,1,0
1512443587763615,-4,-2,-2,-1,-1,-3,1,-4
1512443587765616,1,0,0,0,0,-3,-1,-1
1512443587765616,0,0,-2,0,0,-1,-3,1
1512443587786632,-1,-3,-1,-1,2,-2,-3,-2
1512443587786632,0,-2,-1,-3,-1,0,1,-1
1512443587787633,-2,-1,-1,1,-2,1,-1,2
1512443587787633,0,0,1,-2,-1,0,-1,-4
1512443587799658,-3,-2,-4,-4,0,-2,-1,0
1512443587799658,0,-1,1,0,-2,-3,-4,0
1512443587808676,-2,0,-1,-1,-1,-2,1,0
1512443587808676,0,-1,-2,0,-1,1,-2,-2
1512443587823658,-2,3,-3,0,-2,0,1,-1
1512443587823658,-1,-2,-2,1,-1,-3,-1,0
1512443587825661,0,-2,-2,-2,2,-1,1,1
1512443587825661,0,0,-2,-4,1,-1,-2,1
1512443587845688,-1,-2,-1,-2,-4,-2,-3,-3
1512443587845688,0,1,0,-2,0,0,0,0
1512443587847675,-2,-1,1,1,-1,0,-2,-2
1512443587847675,0,-2,-2,-3,0,-2,0,-1
1512443587859693,-2,0,-2,0,-2,-1,-1,1
1512443587859693,-2,-2,0,2,-2,-1,0,-1
1512443587868690,1,-4,-4,-3,-1,-1,3,-1
1512443587868690,-3,-2,0,-1,0,-2,0,-2
1512443587883710,-1,0,-1,-1,1,-1,1,1
1512443587883710,-3,-2,1,0,0,0,-3,-1
1512443587885711,-3,-1,-1,0,-2,-1,-4,-2
1512443587885711,-1,2,-3,-2,-1,1,1,0
1512443587905733,-1,-2,-4,-2,1,-2,1,0
1512443587905733,-2,1,1,-1,-2,-1,1,0
1512443587907717,-1,0,0,-2,-3,-1,-1,1
1512443587907717,-1,2,-3,-2,-1,-2,1,-1
1512443587935746,-1,-1,0,-1,-3,0,-3,0
1512443587935746,-2,-2,-1,0,0,0,-2,-3
1512443587937754,-1,-3,-1,0,-2,-2,0,-3
1512443587937754,0,0,0,-1,-3,-1,0,0
1512443587943743,-2,0,0,-1,-1,-2,1,-1
1512443587943743,-1,-3,2,-1,-4,-1,0,-1
1512443587944754,0,1,-1,-1,0,0,-1,0
1512443587944754,-1,-4,-2,0,-2,-1,-3,0
1512443587965760,-1,-1,-3,-1,-2,2,-2,-1
1512443587965760,-1,-1,1,-3,1,-2,-1,-2
1512443587967762,1,0,-1,-1,1,-2,-1,-1
1512443587967762,2,-2,-1,-1,-3,-1,1,-1
1512443587988792,-3,-1,-2,-2,-3,-1,1,0
1512443587988792,-1,-2,-2,0,-2,0,0,-1
1512443587990778,-4,0,1,-1,-3,-1,-4,-1
1512443587990778,-1,0,1,-5,0,0,0,-1
1512443588003795,0,-1,0,0,0,-1,-3,0
1512443588003795,-1,0,-1,-1,-1,-1,0,-1
1512443588004796,-2,-1,-2,1,-2,1,-2,1
1512443588004796,-4,4,-4,0,-2,-1,0,1
1512443588026806,3,-1,0,-2,-1,0,1,-3
1512443588026806,1,-2,-2,0,-1,-1,0,1
1512443588031819,0,-1,0,-1,-1,-2,0,-5
1512443588031819,0,0,-3,-1,-1,2,-1,-4
1512443588048834,-1,-3,4,-2,1,-5,-1,1
1512443588048834,-2,-4,0,-3,-2,-3,-1,0
1512443588049833,0,-4,-2,-1,-1,-1,1,-1
1512443588049833,-4,-1,-1,-2,-1,0,-1,-2
1512443588062836,1,-3,1,0,-3,-3,-1,0
1512443588062836,-3,2,0,-1,1,-1,-2,-3
1512443588069835,-2,-3,1,1,-3,-2,0,-1
1512443588069835,-2,-1,-2,0,0,-1,-2,-2
1512443588085843,0,1,0,-1,-3,-1,2,-3
1512443588085843,-1,1,-2,-3,0,-1,-3,-1
1512443588087844,0,2,-2,-2,2,-1,-4,-2
1512443588087844,1,-5,-2,0,1,-2,-2,-1
1512443588108859,-1,-2,-3,-2,-1,0,-5,-1
1512443588108859,-2,-1,-1,0,-3,-2,2,-1
1512443588109863,-3,-1,0,-1,-2,-1,-1,-2
1512443588109863,1,-2,-2,-3,-2,-1,-1,0
1512443588122869,-5,-2,-1,-1,1,0,-3,-1
1512443588122869,-1,1,0,0,-3,-2,1,-1
1512443588129875,1,-1,-2,0,-1,-1,-1,1
1512443588129875,-1,0,-1,-2,2,0,0,0
1512443588145885,-1,-3,-3,-2,-2,0,2,-4
1512443588145885,0,-3,-2,-1,1,-1,-2,1
1512443588147887,-2,-1,0,0,-2,-4,-2,-3
1512443588147887,-3,1,-1,1,0,0,0,-5
1512443588168903,1,-1,0,-2,0,-1,-1,-4
1512443588168903,0,-3,-1,0,-3,-2,1,0
1512443588169902,-1,-1,-2,-1,-2,-2,0,1
1512443588169902,-2,0,-3,-4,1,-2,-3,0
1512443588182911,-4,2,-3,1,2,-1,-4,3
1512443588182911,0,-2,-2,1,-2,0,-1,0
1512443588189931,-2,-3,-2,-2,1,-1,-2,-3
1512443588189931,-1,2,1,-3,-4,0,2,-4
1512443588205929,2,1,-4,-3,0,-2,-3,-1
1512443588205929,-1,-2,-2,-1,-3,0,-2,-1
1512443588207930,1,2,1,1,-1,-2,-2,-2
1512443588207930,-1,-3,-1,-1,-1,-3,-3,-1
1512443588228945,1,-1,-1,0,-1,1,0,-1
1512443588228945,0,-2,3,-2,-2,0,-3,3
1512443588229947,-2,1,-2,-2,1,0,0,-4
1512443588229947,-1,-1,0,-1,-1,0,-2,0
1512443588242967,1,-1,-3,1,-2,-1,2,-4
1512443588242967,-2,-2,0,-2,-4,-2,-1,0
1512443588249971,-3,-2,0,-2,-3,-1,-2,2
1512443588249971,1,-1,-1,0,0,0,-2,-2
1512443588265974,-3,-2,2,-3,-2,-4,2,1
1512443588265974,-1,0,0,-1,1,1,2,0
1512443588267972,2,1,-1,-1,0,-1,-1,2
1512443588267972,-2,-2,-1,-1,-2,0,-1,-1
1512443588288999,-2,0,0,-1,-2,0,-3,-1
1512443588288999,1,0,0,-1,-3,-3,-2,-4
1512443588289987,-1,-3,0,-1,0,0,-2,-1
1512443588289987,-1,0,-3,-2,-1,-1,-2,-1
1512443588311002,-1,-3,-2,0,-2,0,4,-1
1512443588311002,-3,-1,1,0,0,-1,-1,-2
1512443588312003,0,2,-3,-1,-2,1,0,-3
1512443588312003,-2,-1,-2,-1,-1,-2,0,-1
1512443588325032,0,-3,0,0,-2,0,-5,0
1512443588325032,-3,0,-2,-2,0,-2,1,-2
1512443588326014,0,0,-2,-1,-3,-2,0,-2
1512443588326014,1,-1,-2,-1,0,-1,-4,0
1512443588348041,-2,2,0,-3,-2,0,0,2
1512443588348041,1,-1,-2,2,-4,-1,-1,-1
1512443588349029,-3,-3,2,-1,-1,-2,-1,-1
1512443588349029,-2,-2,-2,-2,-1,-3,-1,1
1512443588362055,-2,-2,0,0,0,0,-1,0
1512443588362055,-2,-1,1,-2,-1,-1,0,1
1512443588370062,1,-1,0,1,0,-2,-1,1
1512443588370062,-4,0,0,0,-2,0,0,-3
1512443588385054,0,-3,-2,-1,-1,0,-2,1
1512443588385054,-1,-4,2,-2,2,0,-1,-2
1512443588386055,-1,-2,1,-2,-3,-1,0,1
1512443588386055,0,1,-2,-1,-1,-1,1,0
1512443588408072,1,-2,-3,-1,-4,-1,-1,-3
1512443588408072,0,2,1,0,-2,-1,1,-2
1512443588415075,-3,-1,-1,-2,1,0,-1,-1
1512443588415075,0,0,-1,-1,-1,0,-2,-4
1512443588422080,-1,0,-2,1,-5,0,0,-1
1512443588422080,-1,-2,-1,0,1,-2,-3,-3
1512443588430086,2,-2,-2,-2,-1,-1,-1,-3
1512443588430086,-3,-2,-1,-1,0,-1,-1,-1
1512443588445097,-1,0,1,-1,-1,-2,-1,1
1512443588445097,-2,-1,-2,1,0,-2,-1,0
1512443588446097,-4,-1,-1,-2,-3,0,0,1
1512443588446097,0,-2,-2,0,0,-2,-3,-5
1512443588468113,-2,0,0,-1,0,-1,0,-3
1512443588468113,0,0,0,-1,0,0,-1,-1
1512443588468113,2,0,-3,0,0,0,-4,-2
1512443588468113,-1,0,-3,0,-1,-3,0,2
1512443588491130,-4,-3,2,-1,-2,-1,-3,0
1512443588491130,-3,0,-1,-3,-3,-2,-1,-1
1512443588492130,-1,-2,-1,1,0,-2,-2,0
1512443588492130,-1,1,-1,-2,0,1,1,1
1512443588505140,0,0,-2,-2,0,-2,-2,-3
1512443588505140,1,-1,-1,-2,-4,0,-2,0
1512443588513145,0,2,0,-1,1,0,0,-2
1512443588513145,-1,-1,0,-2,1,0,-1,0
1512443588536161,-4,-1,0,-1,0,-3,1,2
1512443588536161,0,-1,-1,-3,-2,0,-2,-1
1512443588537163,-2,-2,-1,0,-2,-1,1,-3
1512443588537163,-1,0,-2,-1,0,-1,-1,-3
1512443588542169,-1,-2,-1,0,0,-1,0,-3
1512443588542169,1,-2,0,1,-1,-1,-2,-4
1512443588550189,0,-2,-1,-1,-1,-1,1,3
1512443588550189,2,-2,-1,0,-2,1,0,0
1512443588565182,-3,0,-1,-1,1,0,1,1
1512443588565182,0,-3,-1,0,-2,0,-1,-1
1512443588566184,-3,0,0,0,-1,-1,1,-4
1512443588566184,-1,-1,-3,-1,-2,-3,-2,1
1512443588588215,-2,1,-3,-1,-1,2,2,-2
1512443588588215,-2,1,0,1,-1,0,-3,1
1512443588589217,-1,-1,-1,2,-1,0,0,-3
1512443588589217,1,-1,-3,-2,0,0,-4,-1
1512443588602208,0,-5,0,0,0,-2,-2,-1
1512443588602208,-3,-1,0,-1,0,-1,3,-2
1512443588610215,-2,0,-2,-3,-1,-1,-3,0
1512443588610215,1,-1,-1,-1,-4,-2,0,-4
1512443588625246,0,0,0,-1,-3,-2,-1,1
1512443588625246,0,-2,-2,1,-3,-2,0,1
1512443588626225,-1,-1,1,-1,-2,-3,1,-1
1512443588626225,0,-1,-1,-1,-1,0,-3,-1
1512443588648253,4,-3,-1,-3,-1,-1,-1,-2
1512443588648253,-4,-2,-3,0,0,0,-2,-5
1512443588648253,0,-2,-3,-2,0,-1,-1,2
1512443588648253,-2,0,-1,0,-2,-1,1,-1
1512443588662250,1,-2,0,1,-4,-2,-4,1
1512443588662250,-2,4,0,1,1,-2,-4,2
1512443588670257,0,-4,-4,-2,-1,1,-2,-1
1512443588670257,0,-4,-2,-3,0,0,1,0
1512443588685268,0,-1,0,-1,-2,0,2,-3
1512443588685268,2,-2,-3,-1,1,1,1,2
1512443588686267,0,-1,0,-1,-4,-1,-1,-3
1512443588686267,-2,1,-2,1,2,1,-3,2
1512443588708284,-1,1,-1,0,-1,1,-2,-4
1512443588708284,-2,-2,-2,0,-2,0,0,-2
1512443588708284,0,1,2,-3,-1,-2,-1,-3
1512443588708284,1,0,0,-1,-2,-1,-2,-2
1512443588722310,1,0,1,-1,-1,0,1,2
1512443588722310,-3,-2,2,-1,-1,-2,0,1
1512443588730318,-1,1,-2,-2,-2,-3,-3,-1
1512443588730318,-2,-3,-4,-3,0,1,-1,-2
1512443588745327,-2,2,-1,-1,2,-2,1,-2
1512443588745327,-3,-1,-1,1,-6,-2,0,-1
1512443588746327,2,1,-1,1,0,-1,1,1
1512443588746327,-1,-1,-1,-1,-1,-4,-2,-3
1512443588768343,-2,-1,-2,-1,-1,-1,-3,-1
1512443588768343,-2,-2,0,-1,-1,-1,-1,0
1512443588768343,-1,4,-1,-1,0,-1,2,0
1512443588768343,-2,-3,-2,-1,-1,-1,1,-2
1512443588790341,-1,-2,-1,-1,2,-3,0,-3
1512443588790341,0,0,-1,-2,-5,-1,-1,-1
1512443588798359,0,-3,1,0,0,-1,-3,-3
1512443588798359,1,4,-1,-2,1,0,-2,2
1512443588805362,-5,0,-2,0,0,0,1,2
1512443588805362,-2,-2,-3,-1,-2,-3,-2,-1
1512443588806362,2,1,-3,-1,0,2,-1,-1
1512443588806362,-2,0,-3,-2,-2,-3,2,-1
1512443588836397,-2,-2,1,0,-4,-2,-2,-2
1512443588836397,-1,2,1,-2,2,-1,0,-1
1512443588837384,-1,-2,-2,0,0,-1,-3,-2
1512443588837384,0,-2,0,-3,-1,-1,2,-1
1512443588851393,-1,-1,-1,-2,-3,-1,-1,0
1512443588851393,-2,-1,-1,-3,2,1,0,-2
1512443588851393,-1,-1,-2,-1,0,-2,-3,-1
1512443588851393,2,1,-3,-1,-2,0,-2,-1
1512443588873417,-2,0,0,0,-1,-2,-1,2
1512443588873417,0,-6,0,0,-3,-3,-1,0
1512443588874401,-2,-1,-3,-1,-1,2,0,-4
1512443588874401,-3,-4,-3,-2,-1,0,2,1
1512443588887422,1,-1,-3,-2,-3,-1,-3,0
1512443588887422,0,0,-1,-1,0,-3,0,-3
1512443588888410,-1,-2,1,-2,-3,-2,-4,1
1512443588888410,2,2,-3,-2,-4,-1,-2,-4
1512443588911427,1,-1,-3,-3,3,0,-1,0
1512443588911427,1,-3,-2,1,-2,-1,0,-1
1512443588911427,1,-3,0,0,1,-1,0,0
1512443588911427,-2,-1,1,0,0,0,-2,0
1512443588925436,1,-1,0,-2,-4,-1,0,-3
1512443588925436,-1,-2,1,-1,0,-1,-3,-2
1512443588926437,-3,0,-2,-1,-1,-1,1,-1
1512443588926437,-2,0,-1,-2,0,-1,-4,-2
1512443588947455,-2,-2,1,-1,-2,-2,1,-1
1512443588947455,-2,-3,0,-2,-4,-1,-1,-1
1512443588948453,0,-3,0,-2,-2,-1,0,0
1512443588948453,-1,1,-2,-1,2,1,-2,0
1512443588971481,-2,1,-1,1,0,-2,1,-3
1512443588971481,0,1,-2,-1,-5,-1,-2,1
1512443588971481,-1,-3,-2,-1,-1,-3,-1,-4
1512443588971481,-1,-1,-3,-1,-1,-1,-2,-3
1512443588985518,-1,-2,0,-3,-1,-1,0,3
1512443588985518,-1,1,-2,-2,1,-3,-2,-2
1512443588986494,-1,1,1,-1,0,-2,-2,-1
1512443588986494,-1,-3,-2,-1,0,-1,0,2
1512443589007496,2,1,-3,0,-2,-1,1,-3
1512443589007496,-4,0,0,-1,-1,-1,2,1
1512443589008496,0,-2,-1,-2,-1,-1,0,2
1512443589008496,-1,-1,-1,0,0,-1,-2,-1
1512443589031525,-4,-5,-1,-3,-1,-1,-2,-1
1512443589031525,0,-1,0,-1,-3,-2,0,-2
1512443589031525,-1,0,-3,-3,-2,0,0,-2
1512443589031525,-4,-2,1,-1,-2,-2,0,-1
1512443589045521,-3,0,-3,-1,-2,-2,-3,1
1512443589045521,0,-1,0,1,0,0,0,2
1512443589046523,0,-2,3,-1,2,1,-3,1
1512443589046523,0,-1,-2,-2,-2,1,-1,-4
1512443589067547,1,-3,-1,0,1,0,-2,0
1512443589067547,0,-1,-2,0,-2,0,-3,-4
1512443589068558,-5,-2,-3,0,-1,0,-2,-1
1512443589068558,0,-2,0,-1,1,-2,-2,2
1512443589091555,0,0,2,-2,-3,0,-4,-2
1512443589091555,0,0,0,-1,0,1,1,-4
1512443589092554,-2,-3,-3,-1,0,-3,0,-2
1512443589092554,0,2,-1,-2,-2,-1,0,-1
1512443589105581,-1,-5,-1,0,-3,-1,-2,-2
1512443589105581,-2,-1,-2,-1,1,-2,1,-2
1512443589106566,-1,5,1,-1,-3,1,1,0
1512443589106566,-1,-2,1,0,-1,0,-2,0
1512443589127579,1,3,0,-1,-2,-1,-4,-1
1512443589127579,-1,0,2,-1,-3,-3,-4,0
1512443589128581,0,0,-2,-2,1,-2,-2,-2
1512443589128581,-2,-2,-2,-1,-4,-1,1,-4
1512443589151609,1,-1,-1,-1,-3,1,1,2
1512443589151609,1,0,-2,0,-1,-1,-1,1
1512443589151609,-2,0,-1,-1,0,-1,0,-4
1512443589151609,-3,0,-1,-1,0,-1,-3,0
1512443589165606,-5,-4,-3,-1,-1,-2,-1,-4
1512443589165606,-1,1,-2,-1,-4,0,1,-2
1512443589166617,0,1,-2,-1,0,0,-5,3
1512443589166617,-1,-3,0,-2,-1,-1,1,-1
1512443589187621,0,0,1,-1,-2,-3,1,2
1512443589187621,-1,-3,-2,1,0,0,-1,-2
1512443589188622,-3,0,-2,0,-2,1,0,-2
1512443589188622,0,-3,-2,-2,0,-2,-2,0
1512443589218661,1,1,-1,0,0,-1,0,1
1512443589218661,-2,-2,2,-2,-1,0,-2,2
1512443589219646,0,-2,-1,-1,-2,0,-2,0
1512443589219646,0,1,-3,0,0,0,1,-2
1512443589225665,0,1,-1,-1,2,-2,2,0
1512443589225665,-3,-2,-1,-1,1,-1,0,-1
1512443589225665,1,0,-3,-1,0,0,-1,-1
1512443589225665,-3,0,-2,1,0,-1,-3,-2
1512443589247664,-3,-1,-4,-1,-2,0,-1,1
1512443589247664,0,-1,0,-1,-2,-3,-1,0
1512443589248665,-1,-3,-2,-2,2,-1,2,1
1512443589248665,0,1,-2,-3,-1,1,-1,-2
1512443589270682,0,-1,-1,0,-1,-2,-1,-1
1512443589270682,-1,0,0,0,-1,0,-1,1
1512443589271682,-1,-2,0,-1,-1,-3,-2,-1
1512443589271682,-1,1,-3,-2,1,0,-1,1
1512443589285692,-2,-2,1,0,-2,1,-1,-2
1512443589285692,0,-1,-4,0,0,-3,-1,-4
1512443589286693,-1,-3,-1,-1,-1,-2,-1,-1
1512443589286693,0,0,-2,1,-2,-4,1,-1
1512443589307708,-2,-1,1,-2,-4,2,-1,0
1512443589307708,-3,-3,-1,-2,3,1,1,-6
1512443589308709,-3,1,-3,-1,-2,-1,1,-1
1512443589308709,3,-1,-2,-1,2,-1,-2,2
1512443589330724,-3,-2,-1,0,-2,-3,-3,-2
1512443589330724,1,-2,0,0,-1,2,-4,4
1512443589331726,2,-1,-2,-2,1,-2,-3,-2
1512443589331726,-1,-1,0,0,-2,1,-1,3
1512443589353740,-2,-4,1,-1,-2,-2,2,-1
1512443589353740,-2,0,-1,0,-2,-1,-3,-1
1512443589354740,-1,1,0,-2,-1,0,0,-4
1512443589354740,-1,-4,-1,-1,-1,1,1,-1
1512443589367749,0,-1,1,-3,-1,-1,-2,0
1512443589367749,-3,0,-1,-2,-2,-2,1,1
1512443589368750,1,3,-1,-2,0,-1,0,-1
1512443589368750,-1,-5,1,-1,-1,-3,-1,-4
1512443589391770,-2,1,-3,-1,-3,-1,1,1
1512443589391770,0,0,0,1,-1,-2,3,1
1512443589391770,-2,1,-3,0,0,0,-4,-1
1512443589391770,1,1,0,-4,-4,-1,1,-1
1512443589405793,-2,-2,-1,0,0,-2,-3,-2
1512443589405793,1,-2,-1,0,-1,-1,0,-3
1512443589405793,0,-2,-1,-1,0,-2,0,2
1512443589405793,1,-2,-3,-2,1,1,-2,0
1512443589427791,0,-1,0,-1,0,-2,0,0
1512443589427791,-3,0,-1,0,-2,0,0,-3
1512443589428793,0,-1,-1,2,-2,-1,1,-3
1512443589428793,-2,0,-2,-4,-1,0,-2,-2
1512443589450808,1,-1,-1,-1,1,-1,0,0
1512443589450808,1,-1,-2,-3,-2,-1,1,0
1512443589451808,-2,-4,0,-2,-2,-1,0,0
1512443589451808,1,2,-3,-1,-1,0,0,-2
1512443589464818,-1,2,-1,-2,-2,0,-1,-3
1512443589464818,0,1,-2,-2,-1,-1,-2,3
1512443589472840,-3,0,-1,-3,-1,1,-1,-4
1512443589472840,0,-1,-1,0,-2,-1,-1,-1
1512443589487873,1,-3,-1,0,-1,-1,2,-2
1512443589487873,-1,-4,-1,0,-2,0,-3,0
1512443589488846,-1,-2,-1,-1,2,-1,0,2
1512443589488846,-6,-4,1,-3,-1,-1,-2,-1
1512443589510851,1,-2,-2,0,-2,-3,0,-2
1512443589510851,-1,-2,1,1,-3,-1,-1,-1
1512443589511851,0,-2,-1,-1,-2,-2,-3,-2
1512443589511851,1,-2,-1,0,-1,-1,0,1
1512443589524875,-3,-2,2,-2,-2,1,0,2
1512443589524875,-3,-2,-3,-1,0,-2,-2,0
1512443589532905,-1,0,-2,-1,-1,0,-1,1
1512443589532905,-2,-1,-1,0,-2,-2,-2,-1
1512443589547886,-2,-3,-2,-2,-4,-1,-2,-1
1512443589547886,-1,-3,-2,0,2,0,1,-2
1512443589548877,-3,1,-2,-1,1,-1,0,0
1512443589548877,-1,1,-2,-2,-1,0,0,-3
1512443589570966,-2,2,0,0,-1,-2,-4,-1
1512443589570966,2,1,2,-1,-2,-2,-2,-2
1512443589571895,1,-1,-2,0,0,-4,0,-4
1512443589571895,-3,-2,-1,0,-1,0,4,-4
1512443589584924,1,-2,0,0,-3,-3,1,0
1512443589584924,-5,-1,0,-1,-1,-2,-2,-1
1512443589592909,2,-1,-2,0,-1,1,-1,2
1512443589592909,-2,-1,-2,-1,-1,-1,0,-3
1512443589607919,2,0,0,-1,-1,1,-2,-1
1512443589607919,2,-3,-2,-3,-1,-1,-3,1
1512443589608931,-1,-3,-2,-2,-2,-1,-1,-3
1512443589608931,-2,0,-1,0,-2,-1,1,-1
1512443589630945,-1,-3,-3,0,2,0,1,2
1512443589630945,-1,-4,1,0,-1,-2,-1,-2
1512443589631937,-1,4,-1,-1,1,1,-1,-4
1512443589631937,-3,-2,-1,-2,-1,1,-3,-1
1512443589644971,0,-1,-2,-2,-1,-1,-3,0
1512443589644971,-2,2,-3,0,1,0,1,0
1512443589652961,-1,-2,-2,-4,-4,-1,-2,-3
1512443589652961,3,1,-2,0,1,0,2,1
1512443589667977,-5,-1,1,3,0,0,-2,-2
1512443589667977,0,-1,-1,0,-2,-2,-2,1
1512443589668962,0,2,-1,-1,0,1,1,0
1512443589668962,1,-2,-1,-3,-2,1,-2,0
1512443589690988,-2,-2,0,-2,-1,0,1,0
1512443589690988,0,-2,-1,-2,0,-1,1,-1
1512443589691979,-1,1,-1,-1,0,-2,-2,-3
1512443589691979,-1,-4,-1,-3,-2,-2,0,2
1512443589704987,-1,1,0,0,-4,-2,-3,-4
1512443589704987,0,-1,1,-2,-3,-2,4,0
1512443589712993,1,-2,-3,0,2,-2,-1,-3
1512443589712993,-2,-4,-1,-1,1,0,-2,-1
1512443589736019,-4,0,2,-2,-2,-1,-1,0
1512443589736019,-1,1,1,0,-2,0,-1,0
1512443589737010,1,-2,1,-1,-3,-4,-4,-2
1512443589737010,2,0,-2,0,-2,1,0,-2
1512443589751030,1,-1,-2,-2,1,-3,0,2
1512443589751030,-4,-2,0,0,-1,-1,-2,-2
1512443589752020,-4,-2,-2,-1,-1,1,1,-1
1512443589752020,1,-1,0,0,-2,-1,-2,-5
1512443589774059,-1,1,-1,0,-3,-1,-1,-1
1512443589774059,-2,-2,-2,0,-3,-3,-1,2
1512443589774059,-1,-3,-3,-2,-1,0,-4,-1
1512443589774059,-4,-4,-2,0,-1,-2,-2,1
1512443589788058,-1,-2,-2,-1,-2,0,1,-1
1512443589788058,0,-1,0,-2,0,-1,-3,-2
1512443589789065,-1,0,-1,1,-1,1,-1,1
1512443589789065,1,0,-1,-2,-5,-1,-2,-3
1512443589811062,-1,-1,-2,-1,1,0,-4,-3
1512443589811062,-1,-1,-2,-1,1,1,-2,-4
1512443589812063,1,-1,-3,-2,0,-2,0,1
1512443589812063,-3,0,-1,-1,0,-2,0,0
1512443589834091,-2,1,1,0,-4,-2,2,2
1512443589834091,0,-2,0,-2,-1,-2,-5,-1
1512443589834091,1,-2,0,-3,0,0,0,-3
1512443589834091,-3,-2,-1,-1,0,-1,-1,-3
1512443589848101,-2,-2,-2,0,-5,-3,-2,1
1512443589848101,0,-1,-1,-1,-3,0,2,1
1512443589849108,0,0,-3,0,0,0,-2,-1
1512443589849108,-1,-1,1,0,-4,-2,-1,1
1512443589871117,-2,-3,0,-1,0,1,-2,-3
1512443589871117,-1,-2,0,-2,-3,0,-2,-1
1512443589872107,0,1,-2,-1,-2,0,-1,2
1512443589872107,-3,0,-1,-1,-2,-2,-2,0
1512443589893122,-1,0,0,0,1,-3,-2,-2
1512443589893122,-2,0,0,-2,-3,1,-2,-3
1512443589894122,1,0,0,-2,0,-2,-1,2
1512443589894122,-1,-1,-1,-1,0,-1,-1,-2
1512443589908131,-1,0,0,-2,-3,-2,2,-2
1512443589908131,-2,-1,-1,-1,1,0,-2,-4
1512443589909131,-2,0,0,-2,-2,0,-1,-1
1512443589909131,0,-1,-2,-2,0,-2,0,-2
1512443589931157,-1,-3,0,-1,-1,-1,0,0
1512443589931157,0,-3,0,-1,-1,-3,0,-1
1512443589938162,-5,-3,-2,0,0,-2,0,-1
1512443589938162,-3,-1,-1,-3,-2,0,-1,-1
1512443589953175,1,0,-1,-2,-3,0,-3,-4
1512443589953175,1,-1,0,-1,-1,-2,1,-4
1512443589954166,-3,2,-3,-3,-2,0,-2,0
1512443589954166,0,0,1,-2,0,-1,1,1
1512443589968183,0,-2,0,0,1,-2,-4,-2
1512443589968183,-3,1,-3,0,-2,-1,0,-2
1512443589968183,1,-2,0,-1,0,-2,2,-2
1512443589968183,-3,-1,-1,0,2,-1,-2,0
1512443589991192,-3,-3,0,0,-3,1,1,-2
1512443589991192,0,1,-1,-1,-2,-1,-1,3
1512443589992193,1,-1,-2,-2,2,0,-3,0
1512443589992193,-2,-1,-1,-2,-1,-2,0,-1
1512443590013206,0,-1,-2,-1,0,0,-1,3
1512443590013206,-2,-3,-2,-2,-1,-1,1,-2
1512443590014216,-2,-1,-3,-1,-2,1,1,-4
1512443590014216,1,0,-1,-2,-1,0,0,1
1512443590028216,-3,-2,0,-2,0,-1,-3,-4
1512443590028216,-2,2,-3,0,0,0,-1,-3
1512443590028216,4,0,0,-3,-1,-1,-3,-4
1512443590028216,-1,-3,-1,0,-3,-1,-3,0
1512443590051245,-2,0,-2,0,-2,-2,-3,-1
1512443590051245,-2,0,1,-1,-1,-2,-1,2
1512443590052245,-3,-2,0,0,0,-1,-1,-2
1512443590052245,4,-1,-3,-1,-2,-1,0,-1
1512443590074269,2,-1,0,-1,-2,0,-2,2
1512443590074269,-2,0,-1,0,-1,-1,0,0
1512443590074269,-1,-2,-4,0,0,-2,-2,-1
1512443590074269,-2,1,-2,-1,-1,0,1,-2
1512443590088258,-1,-2,-1,-1,-2,-2,2,2
1512443590088258,0,0,-1,0,0,0,-1,0
1512443590088258,-4,1,0,0,-2,-2,-1,1
1512443590088258,-2,2,-1,-3,-2,0,-3,-4
1512443590111287,1,-1,0,-2,-1,-1,2,0
1512443590111287,-3,-3,-1,-1,-1,0,1,-1
1512443590112288,-1,-2,-2,-1,2,1,2,-3
1512443590112288,-1,-1,-1,0,-2,-1,-3,-2
1512443590134291,-1,-2,0,-2,-4,0,-3,-1
1512443590134291,-2,-3,-3,1,-1,0,0,0
1512443590135292,2,0,-1,-1,0,-1,1,-2
1512443590135292,-1,-2,-1,-1,2,-2,-3,4
1512443590148301,-2,0,2,1,0,-1,0,-3
1512443590148301,-1,-1,-1,-1,0,-2,-3,-2
1512443590148301,-1,-1,-2,-2,-3,-2,-3,0
1512443590148301,0,0,-2,-1,-2,0,1,-3
1512443590171317,-1,-2,-1,-3,-2,-1,-1,1
1512443590171317,-1,-1,0,-2,0,-1,2,-2
1512443590172319,-1,0,-2,-3,-2,0,-1,-3
1512443590172319,1,-3,-1,0,0,-2,1,-2
1512443590193333,0,1,-1,-1,-1,-2,-2,1
1512443590193333,-2,-6,0,-1,-1,-1,-1,0
1512443590194344,2,-1,-1,0,-1,-2,-2,-1
1512443590194344,-3,-2,0,-1,-2,-1,0,0
1512443590207352,-2,-2,-2,0,1,0,3,0
1512443590207352,-2,-3,0,-1,-3,-3,-4,0
1512443590223372,-1,2,2,0,-2,-1,0,3
1512443590223372,-2,1,-3,-1,-1,0,0,-4
1512443590231361,1,-3,-1,0,1,-2,-1,1
1512443590231361,0,1,1,-1,-3,-3,0,1
1512443590231361,-2,-4,-2,-2,0,1,1,-2
1512443590231361,-1,-1,1,0,-3,-3,-2,-1
1512443590253375,-4,-1,-2,-1,-1,0,-1,-2
1512443590253375,-2,0,-4,0,-2,0,-2,0
1512443590254376,-5,3,-2,-3,-3,-2,-2,1
1512443590254376,-1,-1,1,-1,-1,2,-1,0
1512443590268386,0,-5,1,1,-4,-1,0,-1
1512443590268386,-1,-3,-1,1,0,2,-3,-2
1512443590268386,0,-2,-1,-2,-2,-2,-1,2
1512443590268386,-3,-1,-2,-1,0,-2,1,-1
1512443590291403,-1,-4,-1,0,-2,0,-2,-1
1512443590291403,-2,2,-1,0,-3,-2,-1,-5
1512443590292403,-4,-2,0,-1,0,-1,0,0
1512443590292403,0,-1,-3,-3,-3,-3,-1,3
1512443590313418,0,0,2,0,-2,0,3,-2
1512443590313418,-1,-3,0,0,2,-2,0,2
1512443590315419,-2,-1,-3,0,-2,0,-2,-4
1512443590315419,2,-2,-1,-1,1,-1,-3,0
1512443590327427,-1,4,1,0,-1,-5,-1,-1
1512443590327427,-2,1,1,1,-2,2,0,-1
1512443590336434,-2,-3,-1,0,-1,-1,-1,-2
1512443590336434,-2,-3,-3,0,0,-1,-1,-1
1512443590350444,-1,1,-1,-1,0,1,0,-2
1512443590350444,0,0,1,-2,2,-2,-1,-3
1512443590364453,1,1,-3,-4,0,-2,-1,0
1512443590364453,-2,1,0,-1,0,0,0,2
1512443590373460,-1,1,2,0,-1,-2,-1,-1
1512443590373460,0,-2,-1,1,-2,-1,-2,-2
1512443590375461,-1,-1,0,-1,0,-1,-1,-4
1512443590375461,0,-2,-2,0,1,1,-1,-1
1512443590387470,-2,-3,0,-3,-2,-4,-1,2
1512443590387470,-1,-1,-1,-1,-3,0,-3,-2
1512443590396476,1,0,-1,0,1,0,2,1
1512443590396476,-1,-2,1,-1,0,-2,-3,-2
1512443590411487,0,-2,1,-2,-2,2,-2,0
1512443590411487,4,-2,-4,-1,0,-3,2,-1
1512443590412488,-1,-3,-1,-2,-1,1,-1,-1
1512443590412488,-1,-1,-1,-2,-2,-1,-1,-1
1512443590433504,-1,-1,-1,-1,0,-2,0,0
1512443590433504,-3,1,1,-1,-4,-1,-1,1
1512443590435505,0,-2,-1,0,-1,-1,-1,-1
1512443590435505,1,4,-2,-3,-2,0,-2,-2
1512443590447529,-1,-2,-2,7,2,0,-2,-4
1512443590447529,0,-1,-6,-11,0,-2,1,-1
1512443590463525,-1,2,-1,1,1,0,-3,-3
1512443590463525,1,1,-1,-2,-2,-1,-1,-2
1512443590471542,-2,-1,-1,0,0,1,0,1
1512443590471542,0,-2,0,0,0,0,-3,-1
1512443590472531,-3,-2,-3,-1,-3,-2,1,-1
1512443590472531,-1,-2,-3,-3,-1,-2,-3,3
1512443590493563,0,1,-1,-1,-1,-3,-1,-4
1512443590493563,-2,-1,1,2,-2,-3,-1,-1
1512443590499566,-2,-1,-2,-3,-1,-1,-2,-5
1512443590499566,0,0,-2,-1,-2,2,0,0
1512443590507572,-3,-2,-1,-5,2,0,-1,0
1512443590507572,2,-1,-2,-7,-1,0,0,-1
1512443590516562,0,-2,-4,8,1,-2,-2,-1
1512443590516562,-2,-1,-1,8,-4,-3,-3,1
1512443590538578,-6,-1,-5,-18,2,2,0,1
1512443590538578,-1,-1,1,2,-4,-3,2,0
1512443590540589,-1,-1,-2,7,-2,-2,-1,-1
1512443590540589,1,-1,-1,-1,2,-1,-1,-5
1512443590553588,-3,-2,1,5,-4,-2,1,0
1512443590553588,-3,0,1,-1,-3,0,-1,-3
1512443590555590,-3,-1,-4,-7,-1,-3,-3,-1
1512443590555590,-2,-1,-3,0,1,0,1,1
1512443590567597,4,-1,1,0,-4,-3,-3,-2
1512443590567597,-2,-2,3,1,1,-2,-3,-2
1512443590583610,0,-1,1,-1,-1,0,0,-3
1512443590583610,-3,-2,-2,-4,-1,-1,-5,-2
1512443590591615,-5,-1,-2,1,-2,-1,1,1
1512443590591615,0,-1,-2,0,0,-3,0,1
1512443590592615,-1,-1,1,2,-1,1,-2,0
1512443590592615,-2,-4,2,-1,-1,-3,-1,-1
1512443590613630,1,0,-2,-2,-2,-2,-4,-2
1512443590613630,-1,-1,9,0,3,1,-3,0
1512443590615632,-1,-4,-11,0,3,0,0,-2
1512443590615632,0,4,15,-4,-3,2,2,0
1512443590627641,-3,-3,9,11,2,1,-4,-4
1512443590627641,-7,-8,-35,-34,-8,-4,1,3
1512443590636647,3,1,-3,3,1,1,-2,3
1512443590636647,-2,-3,8,-17,-3,-1,1,-3
1512443590650668,4,-2,-2,2,-1,0,-2,-4
1512443590650668,-2,4,8,10,0,1,0,-3
1512443590652657,3,-3,8,2,-2,-3,1,-4
1512443590652657,-6,-4,-9,4,0,-1,-1,1
1512443590673684,4,0,-6,-5,-3,-1,0,-3
1512443590673684,-1,1,5,5,0,-3,-1,0
1512443590675695,0,2,-11,-8,-2,0,0,1
1512443590675695,-4,-1,3,6,0,-2,0,0
1512443590696690,0,-4,-1,-9,-2,-3,1,-2
1512443590696690,-10,-2,7,13,1,-1,-1,1
1512443590697690,-2,3,-11,-9,-2,-1,0,-1
1512443590697690,4,0,-7,20,3,1,-3,-5
1512443590710699,-2,3,11,-30,-8,-1,0,0
1512443590710699,2,-5,-21,4,-1,-3,-2,-2
1512443590712701,0,-1,1,-4,-4,0,0,-1
1512443590712701,-3,0,-5,1,-2,-2,0,-1
1512443590733716,-1,1,-8,4,-2,-5,1,-3
1512443590733716,-2,0,-1,-4,0,-4,-3,-2
1512443590734716,2,-2,4,3,0,-1,1,-1
1512443590734716,-2,-3,-9,-5,0,1,0,-2
1512443590763736,-12,-2,5,7,-1,-1,-2,-3
1512443590763736,7,1,0,-8,0,2,-3,2
1512443590764743,-4,0,-3,-2,0,0,3,2
1512443590764743,-8,1,1,-7,-4,-2,-3,0
1512443590778747,7,-5,-4,6,-2,-1,-1,2
1512443590778747,3,2,2,11,1,2,-1,-1
1512443590779747,-5,-5,-5,-11,0,-2,-2,0
1512443590779747,-4,1,9,-6,2,-1,1,1
1512443590793758,9,5,1,-11,-5,-1,-1,0
1512443590793758,-18,-4,10,3,-3,0,2,-4
1512443590794758,2,0,11,0,2,-1,-3,1
1512443590794758,4,-3,-9,-5,-1,-2,0,-6
1512443590815774,0,-2,5,12,1,-1,-2,-1
1512443590815774,3,-3,-14,-8,-2,-2,-2,0
1512443590817792,-6,-1,-6,-4,-6,-3,-3,-2
1512443590817792,0,-6,-1,-1,-1,-2,1,1
1512443590830784,-14,-9,-7,2,-3,-3,-3,0
1512443590830784,-6,-7,1,-5,-2,2,-1,-3
1512443590832786,-4,0,-5,0,1,1,-1,-2
1512443590832786,8,1,-2,1,-3,-2,-1,1
1512443590853799,1,-2,-1,2,1,-1,3,-1
1512443590853799,-1,4,9,3,-2,-3,1,-1
1512443590854800,-7,-7,-6,5,2,-1,-1,-4
1512443590854800,-4,-8,4,-7,-3,-2,0,-1
1512443590875816,-2,2,-4,0,4,-2,-3,-1
1512443590875816,8,3,2,2,2,1,-2,-2
1512443590877816,5,6,11,23,0,-1,-2,-3
1512443590877816,-8,-6,-9,-21,0,2,0,3
1512443590890843,6,0,-3,0,-4,-2,-2,0
1512443590890843,-4,-5,-2,0,-1,-2,-2,-1
1512443590896846,0,3,6,-1,-1,0,-2,1
1512443590896846,12,0,-7,5,-3,-4,0,-1
1512443590913842,-6,5,-1,3,0,0,-1,0
1512443590913842,-4,-6,-1,-4,-1,-3,-2,-3
1512443590914846,2,-2,-5,-5,-3,0,1,1
1512443590914846,9,0,11,2,2,0,-5,-1
1512443590935875,0,1,-11,-3,3,0,0,2
1512443590935875,6,1,2,1,-3,-1,1,-2
1512443590937869,-7,-3,-4,-9,-2,-1,-2,-2
1512443590937869,-8,1,1,7,-1,-2,0,2
1512443590949882,-4,-5,2,-5,-2,1,-3,-3
1512443590949882,0,-2,2,-2,0,2,0,-1
1512443590956874,7,8,1,-5,3,-5,-2,-2
1512443590956874,-13,-4,4,5,-6,-3,-3,-6
1512443590973897,-9,-5,-11,-3,-2,-1,0,1
1512443590973897,-1,-1,-6,5,-4,-3,-1,2
1512443590974901,-7,-3,-7,-7,-1,-1,-2,2
1512443590974901,-4,2,-3,-4,0,-1,-4,0
1512443590995910,-1,-4,9,0,-3,-1,0,-4
1512443590995910,-2,3,0,4,-2,-2,0,-1
1512443590997902,-14,-1,4,11,-1,2,1,-3
1512443590997902,8,-3,-22,-5,-1,1,1,-1
1512443591009910,-8,-7,8,-6,-2,-2,-2,-2
1512443591009910,3,4,-3,-1,-4,-2,2,-1
1512443591016916,-8,-1,1,8,-1,-2,-1,2
1512443591016916,1,1,3,-9,-3,0,-3,-3
1512443591033946,1,-2,7,6,0,1,0,0
1512443591033946,1,-1,0,-8,1,-1,-2,-1
1512443591034927,12,-6,-2,-9,1,1,2,-3
1512443591034927,12,6,19,5,-1,-3,-3,-2
1512443591055943,-1,0,-16,6,-1,-2,1,1
1512443591055943,-3,-2,4,-7,-1,0,-2,0
1512443591057945,5,3,3,-5,-4,-1,-4,-2
1512443591057945,-3,-2,-11,-3,-3,-2,-1,-2
1512443591069954,10,-1,12,10,0,-2,0,1
1512443591069954,-11,-4,-11,-6,1,0,1,-1
1512443591076958,-6,-3,-4,-8,3,-2,0,-5
1512443591076958,12,1,2,5,-1,-1,-1,-1
1512443591093981,-15,2,-2,7,2,1,0,-1
1512443591093981,7,-3,5,2,0,-1,-4,-5
1512443591094971,2,-1,-5,-10,-3,-1,-4,2
1512443591094971,-6,1,-5,-1,4,-1,0,0
1512443591115985,9,5,1,0,-3,-1,-2,-4
1512443591115985,-1,6,-8,2,2,0,-1,2
1512443591117987,15,-1,5,-1,-1,0,-3,-2
1512443591117987,-15,6,-9,7,-2,0,2,1
1512443591130008,21,-5,-19,-21,-2,0,-2,-4
1512443591130008,-13,-7,15,7,1,-2,5,1
1512443591145030,-3,3,0,-3,-2,0,-1,0
1512443591145030,1,1,1,5,-2,1,1,1
1512443591154029,0,5,6,3,-2,0,-1,-1
1512443591154029,-3,-5,2,-2,0,1,0,-1
1512443591155030,-2,-4,-2,-3,-3,-4,-1,-7
1512443591155030,5,-7,-5,-6,-4,-2,2,1
1512443591176038,-18,-1,2,5,2,2,-2,-1
1512443591176038,2,1,0,-7,-8,-6,-6,-5
1512443591178052,-19,-1,-1,-1,0,1,-2,1
1512443591178052,-6,-3,7,-3,-3,2,-3,1
1512443591190068,-2,-4,-15,-6,-4,-5,-1,-3
1512443591190068,4,9,1,5,2,1,-4,-1
1512443591197052,6,-9,-15,2,0,-2,5,0
1512443591197052,-9,0,-8,3,-2,-2,-6,-5
1512443591213055,6,-4,12,6,-4,1,1,2
1512443591213055,13,-5,4,-13,0,-3,-4,-7
1512443591215056,-2,0,13,5,-1,-2,-7,0
1512443591215056,3,1,-23,3,4,0,2,-3
1512443591236127,13,5,-23,-34,-8,-3,10,5
1512443591236127,11,-12,-6,11,-1,1,-2,0
1512443591238120,12,14,13,-3,3,-1,-2,1
1512443591238120,-15,-6,6,4,-3,-2,-4,-8
1512443591250081,-9,6,10,8,3,1,-4,-5
1512443591250081,-22,-5,-15,-5,-2,1,11,6
1512443591259087,-8,-4,11,1,1,1,5,-2
1512443591259087,-1,4,6,-7,-1,0,-1,1
1512443591273119,-17,-7,-5,-4,-1,-4,8,3
1512443591273119,-17,3,9,7,4,0,-2,-3
1512443591275099,10,3,19,2,-1,2,-1,3
1512443591275099,-13,-9,-61,-26,-8,-5,-4,-6
1512443591296135,19,1,11,4,3,1,-3,0
1512443591296135,8,3,6,9,-5,-3,0,-1
1512443591298129,22,-2,-2,-4,0,1,2,0
1512443591298129,14,2,13,-2,-1,2,0,7
1512443591310135,-10,-28,9,6,6,1,-3,-10
1512443591310135,44,15,-19,-3,5,1,-2,6
1512443591319149,-27,0,-25,-3,0,-1,-1,-1
1512443591319149,1,1,-12,-18,-5,-4,-9,5
1512443591333138,2,12,5,2,-5,-5,-16,-3
1512443591333138,-14,-9,6,2,-1,1,-6,-16
1512443591335140,20,-12,-2,2,-2,-2,-3,7
1512443591335140,-20,10,11,2,-5,-10,-16,-27
1512443591356177,-27,-16,-2,5,-7,-2,12,24
1512443591356177,16,-11,8,-15,-2,-5,-23,3
1512443591357156,-36,-1,0,-5,0,-4,-7,-26
1512443591357156,-22,-7,-10,-1,-3,8,24,1
1512443591370187,8,11,36,2,0,-1,-4,-5
1512443591370187,-12,10,14,6,-4,-6,-4,-3
1512443591378171,-10,-13,-6,-3,-7,-5,3,6
1512443591378171,45,6,29,29,17,5,-3,6
1512443591393181,-39,-4,-100,-71,-13,-6,1,-9
1512443591393181,-2,-7,34,5,-3,-1,10,8
1512443591395183,3,8,0,-2,5,0,-2,-7
1512443591395183,20,-5,29,9,-1,1,2,1
1512443591416197,-5,8,4,17,4,-2,-2,19
1512443591416197,12,-6,-30,-8,-3,-1,-10,-23
1512443591417199,-9,-1,-6,-12,-7,-9,-9,2
1512443591417199,-21,-14,-5,1,-1,1,3,4
1512443591430210,6,-7,-11,2,1,1,8,3
1512443591430210,-2,14,12,-6,2,-5,0,-6
1512443591439247,3,-8,-6,10,1,3,8,5
1512443591439247,2,-2,-8,7,-1,-3,0,10
1512443591453243,4,-5,31,2,0,0,-6,-9
1512443591453243,-32,-29,8,17,2,2,4,0
1512443591455228,26,2,-21,-8,-1,4,2,2
1512443591455228,-10,-5,27,-8,-2,-3,1,6
1512443591476253,7,7,-9,-7,-4,-8,-4,-6
1512443591476253,-17,12,-29,-7,2,5,6,0
1512443591477240,28,17,12,4,2,3,-1,3
1512443591477240,-8,2,18,-1,6,-2,-4,-10
1512443591489272,3,-1,-7,5,-8,-6,-5,-8
1512443591489272,-11,18,2,-4,1,1,5,6
1512443591498259,-6,-4,-14,-5,1,1,1,-2
1512443591498259,-25,-14,21,-3,-4,-3,-1,-3
1512443591513279,26,5,3,15,-3,0,-3,-1
1512443591513279,1,-2,-21,-6,0,-1,2,11
1512443591515267,-30,-1,-1,0,-4,-2,0,-1
1512443591515267,3,0,4,0,-2,0,-3,-7
1512443591536297,23,-8,7,-6,8,4,-1,-2
1512443591536297,13,8,2,7,-2,-4,-4,-7
1512443591537323,-14,-7,3,6,-6,-6,-7,-1
1512443591537323,23,-5,-26,-10,1,4,0,-5
1512443591549294,-21,-3,18,20,-1,-3,0,1
1512443591549294,-20,1,7,4,1,-1,-2,-7
1512443591558311,11,-5,4,-5,2,-1,-1,-3
1512443591558311,-23,-2,-6,-3,-6,-7,0,2
1512443591573359,16,0,10,-6,2,4,-1,-1
1512443591573359,-2,-12,-10,-2,2,-1,-10,-11
1512443591575325,-12,0,3,4,-6,0,2,10
1512443591575325,25,1,-13,4,0,-1,-5,-17
1512443591596383,15,7,-6,-5,1,-2,-6,-2
1512443591596383,26,-8,-19,-12,-4,-5,-5,3
1512443591597346,-20,7,-2,-6,1,2,2,-3
1512443591597346,39,-4,2,2,-1,-2,-2,2
1512443591609347,-16,8,13,14,1,1,2,-9
1512443591609347,-5,0,-27,-28,0,-2,3,3
1512443591618353,-8,-8,5,7,-3,-3,-2,-5
1512443591618353,12,15,-11,-6,-3,-2,2,8
1512443591632369,-30,-4,10,6,2,0,-2,-7
1512443591632369,5,-11,-26,-14,-5,2,5,9
1512443591648381,-3,0,21,-1,2,1,-3,-10
1512443591648381,-24,-2,7,-2,-1,0,1,9
1512443591656380,-4,-11,-43,-25,-6,-7,-4,-4
1512443591656380,-35,7,36,13,-1,2,2,-1
1512443591657367,14,-11,-48,-12,-2,-1,0,2
1512443591657367,31,11,1,3,9,4,3,1
1512443591678383,-17,-25,7,5,-1,-1,2,-2
1512443591678383,-20,-19,3,3,-1,-3,-2,-5
1512443591680385,11,4,3,3,2,1,-1,-2
1512443591680385,-6,15,-5,-6,-1,-4,-6,-4
1512443591693393,10,16,17,18,0,1,-3,-4
1512443591693393,29,8,-30,-29,-6,1,2,1
1512443591695395,-6,-6,17,9,-3,-4,0,-1
1512443591695395,-26,-23,1,1,-4,-2,-2,1
1512443591716457,12,19,-10,-9,-6,-2,-1,-4
1512443591716457,-40,-42,-1,10,-8,-6,-4,-3
1512443591717443,14,-11,-4,-2,-3,0,-6,-1
1512443591717443,-35,0,6,-7,-4,-1,3,-1
1512443591745464,11,-3,-4,14,0,1,3,0
1512443591745464,25,13,17,9,7,4,-1,3
1512443591754468,4,12,-10,-3,1,0,1,1
1512443591754468,7,-4,-5,-7,-6,-5,-5,-5
1512443591755469,5,12,11,4,6,3,-4,3
1512443591755469,-2,-8,-32,-27,-6,2,1,2
1512443591756469,-16,6,17,5,-5,-4,-5,-7
1512443591756469,46,-7,-12,13,2,9,2,14
1512443591783491,1,7,-13,-9,5,0,-5,2
1512443591783491,11,12,21,23,5,4,8,5
1512443591785490,-11,8,-12,-11,-2,-6,-8,2
1512443591785490,-15,-33,-5,0,-5,-3,-6,-1
1512443591798512,-13,-17,4,-13,-5,-2,-5,-7
1512443591798512,20,12,4,5,5,-3,-2,3
1512443591800511,4,-9,-12,-11,2,0,-1,6
1512443591800511,-40,12,-18,-11,-4,-7,-3,-13
1512443591812509,6,18,6,20,-4,0,-2,7
1512443591812509,-44,8,18,-18,-5,0,-1,-7
1512443591819537,-28,-2,-9,9,-1,5,5,-6
1512443591819537,31,11,10,-13,-3,-3,1,2
1512443591836527,-68,-19,-6,-14,-3,-1,5,-3
1512443591836527,32,4,-22,7,-12,-5,-1,-5
1512443591837528,-24,-8,-26,5,3,4,-1,-6
1512443591837528,-6,18,38,7,7,5,2,-9
1512443591858542,26,-21,-29,-68,7,2,4,10
1512443591858542,-2,7,35,17,15,0,-3,8
1512443591860543,18,4,-3,-21,2,-4,-2,4
1512443591860543,-9,-15,-12,21,-6,-3,4,9
1512443591872567,-41,-4,6,22,0,-3,-3,-4
1512443591872567,22,9,-6,-7,1,-1,-1,-6
1512443591879560,-1,-7,0,-20,-4,-4,0,-9
1512443591879560,-17,-1,11,-3,-1,-6,-7,0
1512443591895568,16,4,7,12,-10,-10,-6,-14
1512443591895568,3,-6,-11,0,-5,-3,-2,2
1512443591897569,15,10,6,7,7,8,5,23
1512443591897569,19,11,-19,-15,-1,-4,-1,-6
1512443591918599,22,2,8,40,-8,-4,-7,-3
1512443591918599,2,-12,5,32,18,10,0,2
1512443591920587,4,6,4,-36,8,2,0,6
1512443591920587,2,-8,-15,-26,-1,-4,0,13
1512443591932597,18,4,9,-19,-6,-2,-5,-18
1512443591932597,-34,-20,-13,23,-10,-7,-1,3
1512443591939614,31,1,6,17,-8,-5,-6,-6
1512443591939614,-27,-35,-18,4,0,-1,0,-10
1512443591955610,20,18,18,8,1,3,10,8
1512443591955610,19,5,-3,-11,0,2,-1,-4
1512443591957612,-23,-2,14,0,-7,-9,-13,-20
1512443591957612,-17,-8,8,5,-8,3,-1,-26
1512443591978627,-25,-5,12,11,1,1,-1,18
1512443591978627,31,3,-10,-39,-1,-4,-2,12
1512443591979627,-3,2,-1,29,-6,-3,-6,-36
1512443591979627,5,6,0,15,-2,2,1,12
1512443591992636,-7,-24,6,-3,-2,2,-7,-8
1512443591992636,20,-24,13,25,-1,8,4,9
1512443591999658,-27,-12,9,-6,-5,-6,-1,-7
1512443591999658,18,13,-4,-20,-9,-5,0,15
1512443592015653,-26,-10,-14,7,2,0,-5,-13
1512443592015653,-8,23,-5,9,0,-5,1,17
1512443592017654,18,-14,-26,-5,-6,3,0,-17
1512443592017654,8,11,8,8,7,6,3,-21
1512443592038669,23,13,-50,-16,-2,-2,3,25
1512443592038669,7,23,20,-10,2,-2,-2,-25
1512443592039687,-31,2,13,5,3,-5,-2,34
1512443592039687,-57,-9,8,6,-2,-3,-9,-58
1512443592052679,33,-9,4,-5,-3,2,7,50
1512443592052679,4,17,-18,-17,-5,-10,-4,-40
1512443592059684,36,15,12,-1,-4,-1,3,14
1512443592059684,-14,-21,3,12,-6,-4,-3,5
1512443592075708,-10,11,-10,-14,3,5,2,-14
1512443592075708,-30,-24,6,3,2,-3,-1,8
1512443592077696,10,6,-15,-10,8,10,10,18
1512443592077696,-24,-39,-3,-19,-16,-13,-7,6
1512443592098712,30,16,1,16,-1,-6,-5,-30
1512443592098712,41,0,0,9,-4,6,1,8
1512443592100713,-30,-34,0,14,0,-5,1,15
1512443592100713,29,-3,-32,0,2,2,7,6
1512443592112721,-24,-7,16,6,-1,-7,-3,10
1512443592112721,-14,2,26,-1,1,2,-1,-21
1512443592119744,2,12,-15,-5,0,0,8,40
1512443592119744,24,6,20,5,2,4,-5,-4
1512443592135739,9,-18,16,1,6,-3,-7,-1
1512443592135739,-2,1,-43,-8,-8,1,-4,-1
1512443592137740,-8,-23,0,-6,-5,-2,7,5
1512443592137740,-35,2,3,-10,-1,1,4,0
1512443592157753,21,37,-3,2,-4,2,5,14
1512443592157753,4,-10,5,-3,7,5,4,12
1512443592165759,13,4,4,-2,4,-2,-11,-12
1512443592165759,-4,19,-2,-9,0,5,1,2
1512443592171764,-13,-9,-4,-2,-7,-1,1,-26
1512443592171764,31,1,-1,-14,-1,-4,-2,7
1512443592180773,7,12,10,16,-11,-2,-4,-25
1512443592180773,-3,-7,12,-8,5,-8,-5,27
1512443592195781,-39,-27,21,-7,-15,-4,6,9
1512443592195781,-26,17,46,6,-9,-4,-7,-38
1512443592197783,1,-17,-36,-35,-2,-6,2,18
1512443592197783,20,27,-55,11,5,4,3,24
1512443592218796,27,-24,0,21,-4,1,-4,-16
1512443592218796,16,13,32,-8,13,-3,-1,39
1512443592219797,-37,-21,-33,-4,-14,-6,3,-13
1512443592219797,34,-10,36,1,-3,0,-3,17
1512443592231806,15,19,-19,-10,12,3,-3,-11
1512443592231806,-70,-13,-12,6,0,5,2,37
1512443592240813,23,5,2,-10,-4,-1,-8,-38
1512443592240813,28,-1,-12,-8,0,0,4,29
1512443592255822,-6,-2,9,9,8,3,0,-17
1512443592255822,-7,6,-10,26,-3,-7,-12,-12
1512443592257824,-2,2,11,-42,-4,7,9,50
1512443592257824,-1,12,0,41,5,-1,-9,-31
1512443592278840,14,9,-13,-46,-3,-2,1,-24
1512443592278840,-43,-8,-4,6,-9,-4,-5,-44
1512443592279843,33,-5,6,18,12,2,7,17
1512443592279843,-17,16,28,-22,5,4,3,-19
1512443592291852,-31,-13,-5,7,5,1,1,24
1512443592291852,28,0,-42,-12,-3,1,2,-1
1512443592301856,14,26,11,11,8,8,-1,-22
1512443592301856,7,-5,33,17,-2,-10,-16,-39
1512443592315865,-42,-6,23,-7,-11,-8,-1,-5
1512443592315865,-10,1,-29,-18,7,5,-4,19
1512443592317866,-25,1,17,17,0,3,5,46
1512443592317866,9,-8,28,-14,-12,-6,9,-34
1512443592338882,-3,-9,-41,15,3,6,-4,-23
1512443592338882,0,-4,-11,-20,-4,-4,1,4
1512443592339883,1,21,17,27,-2,-3,-10,-25
1512443592339883,2,-2,-22,1,0,3,-2,16
1512443592351890,14,12,-10,-49,5,-4,-1,24
1512443592351890,-4,-9,20,4,-12,-14,-15,-26
1512443592360897,-21,-10,-30,-2,6,-3,-3,-8
1512443592360897,-27,-7,5,-23,-7,-7,-12,-13
1512443592375908,12,20,16,23,1,-4,-4,24
1512443592375908,-24,-18,-16,-6,-2,2,9,26
1512443592377909,-5,10,1,37,4,1,6,42
1512443592377909,-26,-14,-33,-28,10,7,7,-17
1512443592398925,74,34,1,0,-1,-15,-17,11
1512443592398925,17,-3,-6,9,8,11,8,30
1512443592399925,15,-22,-48,1,-11,-8,7,12
1512443592399925,-21,11,-12,3,-2,-1,-12,-4
1512443592411933,-3,-20,-22,6,-6,4,5,16
1512443592411933,14,14,18,-12,-16,-6,7,-64
1512443592420939,-7,-4,34,-17,6,-3,-7,32
1512443592420939,-16,-6,-17,6,-7,-6,12,34
1512443592443965,-34,-20,1,-2,-2,-3,-5,-30
1512443592443965,8,-8,-15,-22,5,0,-3,4
1512443592444957,3,-5,32,15,-14,-3,-3,-31
1512443592444957,10,10,-59,-39,26,9,16,83
1512443592458969,-1,-24,-18,-2,-26,-16,-8,-37
1512443592458969,-23,-2,46,12,4,7,1,14
1512443592459966,14,0,15,-26,-2,0,-1,-28
1512443592459966,30,18,-51,52,-18,-16,-25,-20
1512443592480982,-35,-1,11,3,15,15,18,73
1512443592480982,34,8,-20,-13,8,1,4,7
1512443592482983,17,17,6,-1,2,1,-4,-21
1512443592482983,6,-3,46,16,-2,3,4,35
1512443592496051,12,5,-16,4,-2,0,-7,-53
1512443592496051,-12,-9,0,2,-8,-10,-7,10
1512443592498025,2,8,-1,-7,3,3,-4,-2
1512443592498025,2,7,-4,-12,-2,0,22,48
1512443592519021,-9,-17,42,10,0,-1,-22,-71
1512443592519021,-61,-32,-44,-8,1,-5,2,14
1512443592520010,30,9,10,-3,1,-4,-5,-3
1512443592520010,13,1,-34,-9,8,7,-5,46
1512443592533035,-13,-1,14,27,-16,-6,6,-91
1512443592533035,8,-1,5,-38,8,11,7,20
1512443592541025,7,5,-8,16,-13,-10,-9,-33
1512443592541025,-14,-9,19,-42,-2,2,-3,-92
1512443592556035,-36,-10,8,14,-5,2,10,94
1512443592556035,-29,-33,0,18,-2,-2,-13,-58
1512443592558036,23,-5,-24,-16,2,3,-11,45
1512443592558036,20,-1,76,10,2,4,14,17
1512443592578051,-6,7,-78,-2,5,3,-2,22
1512443592578051,21,28,37,8,-1,-2,-1,-26
1512443592580053,-24,-15,-11,-5,3,1,-7,-12
1512443592580053,-18,4,-8,7,-17,-6,-13,-21
1512443592601080,30,12,8,-12,8,-2,0,39
1512443592601080,5,4,-2,15,-2,-1,1,0
1512443592604086,-24,-11,-13,4,-1,-1,-3,-28
1512443592604086,-3,-8,-14,18,2,2,-1,4
1512443592616078,7,10,3,-16,-3,2,4,-31
1512443592616078,-33,20,-25,-11,-4,-6,0,28
1512443592618079,-21,-29,-39,-81,-16,-14,-11,-77
1512443592618079,10,-4,6,-30,-8,-1,0,-32
1512443592638151,-25,-17,12,13,4,0,1,18
1512443592638151,-8,-8,-28,5,0,-7,0,23
1512443592640095,42,35,24,2,-1,6,11,24
1512443592640095,-49,-43,11,57,-24,-15,-14,-39
1512443592661109,37,7,-3,-68,29,14,16,104
1512443592661109,-3,-6,12,9,-2,-5,-10,31
1512443592662110,-15,-6,36,29,10,-2,9,16
1512443592662110,-9,0,7,4,-8,-1,2,11
1512443592676132,52,18,33,17,0,-4,-5,11
1512443592676132,49,-1,-33,3,-1,1,-8,7
1512443592684126,-5,-16,17,-1,2,1,-6,27
1512443592684126,15,40,-24,-1,10,0,-4,2
1512443592698159,-31,-6,14,14,-10,-11,5,-34
1512443592698159,38,19,13,-23,19,16,10,11
1512443592700137,16,15,-2,-72,5,-1,-1,-3
1512443592700137,8,-11,25,46,-12,-5,2,-21
1512443592721152,-5,8,-16,-18,-9,1,0,3
1512443592721152,29,0,21,20,-8,-3,2,-14
1512443592723153,-19,9,-25,34,1,7,8,9
1512443592723153,4,-41,2,7,20,8,7,72
1512443592737184,-42,-19,12,-21,-13,-5,2,9
1512443592737184,-3,5,9,15,-6,-6,-2,-1
1512443592738165,-4,3,-3,24,2,3,2,18
1512443592738165,2,10,-63,-26,-14,-11,-8,-30
1512443592759180,-54,-25,-32,18,-7,-5,-9,-12
1512443592759180,14,7,10,-2,7,3,0,-1
1512443592760179,-4,-12,27,16,-5,-1,-6,-39
1512443592760179,-3,-6,-30,-24,-6,-4,5,42
1512443592781199,9,1,46,8,9,0,-7,-3
1512443592781199,-25,-20,-34,-22,-14,-10,-3,-29
1512443592787201,-34,-8,-28,-6,-5,-2,7,-13
1512443592787201,8,13,38,-3,2,-4,-15,-38
1512443592795205,21,-3,-22,-4,2,8,11,39
1512443592795205,9,-7,4,44,-4,-7,-13,-13
1512443592802208,19,17,1,4,11,7,-2,34
1512443592802208,0,-11,-7,-50,5,-2,5,-21
1512443592818232,-18,13,12,28,-3,-9,-4,9
1512443592818232,24,5,11,-17,-8,-2,5,-26
1512443592820222,-19,-8,-12,7,1,-2,-7,24
1512443592820222,14,29,-20,10,2,3,6,4
1512443592841238,-22,0,6,4,1,2,-6,-61
1512443592841238,2,-11,-1,-8,-3,5,8,21
1512443592842238,8,8,0,9,-10,-5,-2,-56
1512443592842238,5,12,28,0,8,7,3,19
1512443592855246,-50,-19,-3,-3,-9,-7,0,-9
1512443592855246,9,8,-19,2,-5,-8,-11,21
1512443592862251,8,4,-2,-6,-1,-3,1,23
1512443592862251,-26,1,32,6,-10,-8,-10,-78
1512443592878262,27,7,-7,-10,8,6,2,-27
1512443592878262,-33,-26,-13,-7,-4,-4,-3,8
1512443592880271,9,-2,20,4,4,0,6,11
1512443592880271,-3,-7,-7,3,3,3,0,29
1512443592901279,26,14,51,20,3,-3,0,-15
1512443592901279,-10,3,-31,-36,11,7,3,1
1512443592903280,4,-13,-8,8,-17,-10,-4,-1
1512443592903280,-19,-19,-5,16,5,6,2,-9
1512443592915295,36,40,-1,-10,-7,-3,6,21
1512443592915295,-25,-4,39,1,6,1,-4,-19
1512443592922333,-24,-26,-33,1,-5,-1,-1,0
1512443592922333,33,25,5,-9,2,-6,0,13
1512443592938306,-32,-9,-48,-10,-7,-3,-1,-24
1512443592938306,4,-5,5,11,-2,1,-1,24
1512443592940316,-3,-2,25,3,-6,0,-4,-60
1512443592940316,-7,-9,-11,3,-1,0,-2,14
1512443592961322,0,-27,-7,-7,-1,0,0,3
1512443592961322,3,25,-12,7,0,-6,-4,3
1512443592962323,-17,-27,46,-17,-4,-1,-12,-69
1512443592962323,-10,3,7,23,1,-1,-1,48
1512443592975336,29,2,-6,-32,1,6,6,7
1512443592975336,1,1,12,16,-5,-2,1,-44
1512443592982348,15,12,-2,5,2,0,-3,25
1512443592982348,13,-8,19,-1,-1,-2,-3,-58
1512443592998365,21,15,10,6,5,2,-5,59
1512443592998365,-22,-19,24,14,0,-3,-7,-61
1512443593000350,10,-2,-74,-20,1,4,8,27
1512443593000350,6,-8,19,-15,-5,1,4,15
1512443593021374,2,0,7,18,-2,-4,-1,26
1512443593021374,-6,12,-6,-19,-2,-1,3,1
1512443593022379,-7,-6,-1,12,2,-2,-1,26
1512443593022379,-10,2,-18,4,-4,-4,0,-1
1512443593035383,2,-13,10,-12,-2,-1,-4,-19
1512443593035383,0,4,2,-2,-3,-2,-1,-12
1512443593042381,-3,11,-11,5,1,-7,0,5
1512443593042381,8,3,6,4,-7,1,-6,28
1512443593058390,-13,-8,-12,-14,1,1,-6,-15
1512443593058390,32,9,-17,-15,-6,-7,1,-19
1512443593060399,22,12,39,1,3,-3,-6,20
1512443593060399,3,-13,-25,-12,-1,0,8,14
1512443593081421,-6,5,14,19,-8,-11,-4,-28
1512443593081421,-4,-11,-42,-9,-5,-2,5,24
1512443593082418,-1,-13,28,-20,-4,2,4,-6
1512443593082418,-2,1,29,11,2,-3,-1,11
1512443593095434,-2,-22,-58,-1,2,3,-3,16
1512443593095434,12,-8,-12,11,-1,1,4,-15
1512443593102431,-56,-15,-36,3,3,-1,-5,8
1512443593102431,-9,9,94,3,-12,1,0,-9
1512443593118436,-21,-48,-54,-3,-8,1,-3,5
1512443593118436,7,10,22,-3,8,3,-7,20
1512443593120444,2,12,-15,-4,1,6,7,3
1512443593120444,-5,6,-7,22,-2,0,-3,-19
1512443593141458,4,-5,31,-2,7,5,4,1
1512443593141458,-10,3,36,-7,-1,-4,-15,-15
1512443593142452,11,4,19,0,-1,-2,-3,-14
1512443593142452,-6,19,-10,8,0,2,-2,-30
1512443593154457,-4,-12,-32,-13,-10,-7,-6,-16
1512443593154457,-1,-2,-16,-1,11,6,9,51
1512443593163464,6,0,10,-2,-3,2,0,-18
1512443593163464,-6,3,-22,-13,4,1,-4,-3
1512443593178484,1,22,-13,-3,0,0,3,-3
1512443593178484,6,-5,36,17,0,3,-1,-13
1512443593180478,10,6,-1,4,-1,1,1,-8
1512443593180478,-10,-22,-24,-19,-5,-7,5,27
1512443593208508,-2,11,23,10,1,1,-2,-17
1512443593208508,-3,0,-9,-13,-4,0,6,35
1512443593210509,9,-5,-1,5,-3,-1,1,-10
1512443593210509,3,-2,8,-10,-4,-6,-4,-2
1512443593214517,6,-1,4,20,2,2,3,1
1512443593214517,-21,14,12,-19,-7,-3,0,-1
1512443593223523,10,-7,-15,3,1,3,4,22
1512443593223523,-4,3,-64,-7,-2,-3,3,-14
1512443593238530,11,20,48,-8,-3,-5,-1,7
1512443593238530,10,18,10,13,18,15,10,17
1512443593240520,11,-3,-7,-6,-6,-16,-5,11
1512443593240520,-6,-11,-27,0,3,6,2,15
1512443593260533,-26,2,25,4,-7,-10,-8,-15
1512443593260533,4,-5,4,3,0,0,-2,-10
1512443593262534,10,3,1,14,3,-1,-6,0
1512443593262534,7,-12,39,-13,1,-3,-2,3
1512443593274552,17,9,-25,0,0,-5,-8,17
1512443593274552,2,-3,-17,-12,2,-2,-9,-23
1512443593283553,-24,0,-8,6,-16,-4,2,-15
1512443593283553,-3,3,17,-9,5,2,4,25
1512443593297569,-6,-12,-57,3,-2,0,2,-20
1512443593297569,-10,2,-4,-6,-6,-5,-2,7
1512443593306565,-2,-2,9,5,-3,-2,-6,2
1512443593306565,-2,2,-27,-14,3,1,-2,-3
1512443593320574,2,3,8,11,-2,0,-1,-2
1512443593320574,-4,-9,11,7,-7,-2,2,-16
1512443593322579,-14,4,14,-16,4,4,5,-14
1512443593322579,-18,-7,28,6,-5,-1,1,6
1512443593334585,14,-14,58,-1,2,-6,-5,-28
1512443593334585,3,-4,-34,5,2,4,5,-10
1512443593343593,-6,4,-6,-29,0,-4,-4,2
1512443593343593,-7,-16,6,8,-1,-2,-2,11
1512443593358602,12,17,26,-2,0,2,-4,-27
1512443593358602,19,-4,-15,-5,-1,1,1,7
1512443593360603,9,-5,-4,22,-2,-8,-7,-14
1512443593360603,26,7,-25,0,9,7,3,-20
1512443593380617,-1,4,-3,-41,7,-2,4,33
1512443593380617,4,-3,-9,8,-5,-4,-8,-18
1512443593382619,0,5,-3,0,5,4,2,13
1512443593382619,5,5,5,7,-7,-4,-3,-12
1512443593394627,-5,-1,-18,-6,3,5,-1,3
1512443593394627,-4,9,8,-2,-1,-7,-8,-1
1512443593411639,-20,-11,23,-2,0,0,-2,-7
1512443593411639,-5,2,18,-5,0,-3,-3,-6
1512443593418645,1,-7,-14,8,-7,0,-1,-20
1512443593418645,-38,-16,9,-6,0,-1,8,32
1512443593419648,3,11,22,6,0,0,4,0
1512443593419648,0,1,5,2,-6,-6,-5,-14
1512443593440661,6,-12,-6,19,4,0,-6,30
1512443593440661,4,-5,10,-4,0,-2,-1,-17
1512443593442661,-8,-1,-8,4,-2,0,-4,15
1512443593442661,-1,-1,-7,-47,4,0,-2,-11
1512443593454670,-16,-1,20,15,0,-2,1,9
1512443593454670,-6,-14,-20,7,-10,-9,-1,-1
1512443593463676,16,6,-33,-16,0,1,-7,-12
1512443593463676,1,-8,17,13,-8,0,2,19
1512443593478687,-20,-3,-11,-11,-4,2,4,-7
1512443593478687,-3,1,4,-2,4,-4,-5,-14
1512443593479688,4,0,-26,-3,-6,-1,3,-6
1512443593479688,-16,0,-32,14,-3,-6,0,8
1512443593500703,9,-13,12,-5,-1,1,-3,2
1512443593500703,-17,-20,-55,9,-8,-3,1,-10
1512443593503704,-17,-4,19,-3,4,5,6,5
1512443593503704,-6,0,-7,0,0,0,-3,-5
1512443593514714,2,7,3,0,-2,3,0,9
1512443593514714,-15,-25,0,-8,1,2,-7,4
1512443593523719,5,3,13,10,2,1,4,10
1512443593523719,-9,-1,-13,12,0,6,8,-18
1512443593538741,4,-15,-10,-49,6,4,5,38
1512443593538741,27,12,18,10,7,6,-1,15
1512443593539742,-9,0,8,-3,1,-1,3,12
1512443593539742,4,3,5,6,-4,-6,-8,-20
1512443593560745,-8,8,22,15,-1,-2,6,5
1512443593560745,-12,4,-74,-13,-2,-5,0,-7
1512443593562746,7,-9,23,-12,1,-1,-5,-10
1512443593562746,12,2,18,6,-4,-4,7,15
1512443593583784,10,5,-7,11,1,-2,-7,-33
1512443593583784,2,9,-2,2,-6,-1,0,8
1512443593584783,-3,-6,-9,14,-5,-7,-3,-9
1512443593584783,7,11,25,-3,2,2,0,-12
1512443593598784,3,-4,-23,9,-4,-6,-5,7
1512443593598784,9,1,30,-5,-3,0,1,-19
1512443593599784,0,-1,-59,-3,-9,-8,1,3
1512443593599784,-11,-18,4,2,-6,-4,-9,3
1512443593620819,1,7,16,-9,-4,-3,1,-6
1512443593620819,11,13,30,-5,-4,-2,-6,-1
1512443593622796,-2,6,26,13,3,2,-4,3
1512443593622796,-4,-13,-12,6,-1,0,-1,0
1512443593643803,6,0,-11,1,2,-4,-6,-9
1512443593643803,-6,-2,1,-11,1,3,0,6
1512443593644806,-9,-7,-2,2,-7,-2,-8,-6
1512443593644806,-22,-3,-3,-2,-8,1,0,-28
1512443593658843,6,0,7,-9,-3,-2,3,0
1512443593658843,-16,-21,-9,6,10,0,3,34
1512443593659815,-3,12,18,1,-2,0,0,-66
1512443593659815,-1,-6,-18,-16,1,4,3,42
1512443593680842,-12,-14,-24,19,0,-1,-3,-11
1512443593680842,11,9,2,14,-3,-5,-1,0
1512443593682841,-9,-1,23,-13,-9,-2,-3,-5
1512443593682841,8,0,-42,1,0,-3,-6,10
1512443593703858,-21,-7,25,4,-2,0,-1,-27
1512443593703858,21,11,30,-8,1,2,2,1
1512443593704846,-21,-12,-44,10,3,0,-2,-4
1512443593704846,1,5,29,9,-3,-2,-7,-14
1512443593717872,-8,-7,-30,-8,-3,0,4,20
1512443593717872,-4,-4,10,4,-4,1,-5,-41
1512443593724873,2,-3,5,6,-4,-3,1,6
1512443593724873,4,-1,-3,-24,4,3,2,10
1512443593740884,-4,2,-3,4,1,1,0,-18
1512443593740884,-1,5,0,-9,-2,-4,-1,-5
1512443593742874,5,0,-24,-3,1,2,13,41
1512443593742874,-1,0,21,-22,9,1,-7,9
1512443593763900,7,0,-37,8,-9,-6,-1,9
1512443593763900,-9,9,17,2,3,8,-1,-5
1512443593764900,3,-1,-38,-16,1,-1,5,27
1512443593764900,20,17,27,6,-4,-12,0,5
1512443593777898,-1,2,-31,2,-6,-2,-1,-43
1512443593777898,-5,-1,-9,-12,-3,-3,0,20
1512443593784917,-15,-15,-6,-1,3,-2,-3,-5
1512443593784917,12,2,8,3,-4,0,-3,-10
1512443593801915,3,5,6,6,0,-4,-4,14
1512443593801915,-29,-10,-21,-8,3,-3,-1,-11
1512443593803917,18,14,28,-8,-2,3,4,-1
1512443593803917,5,-7,14,25,-6,-5,3,-5
1512443593823948,3,1,23,-14,14,8,9,23
1512443593823948,2,6,15,2,-5,-5,-6,-5
1512443593824933,6,5,14,2,0,-2,-9,6
1512443593824933,-21,-10,2,17,3,2,-4,-14
1512443593837942,-3,-1,-22,-16,-5,2,0,43
1512443593837942,5,5,3,8,3,-2,-4,-14
1512443593844947,-4,-13,-11,-3,-2,4,-2,-28
1512443593844947,0,2,-4,-1,-2,-1,6,22
1512443593860958,10,2,4,-10,8,-2,-5,5
1512443593860958,17,8,-23,-11,6,5,7,19
1512443593862960,-4,-1,22,10,2,-3,-6,-1
1512443593862960,-8,1,-16,-5,-1,0,0,-2
1512443593883973,11,-14,-18,0,-5,-2,1,-10
1512443593883973,3,5,11,4,0,2,3,11
1512443593884974,-13,-7,21,-9,0,-4,-3,-14
1512443593884974,3,-2,-31,-7,-7,-4,-3,-6
1512443593897987,-10,-6,24,-10,0,-3,3,25
1512443593897987,-14,-19,-27,13,-10,-4,-9,-74
1512443593904988,-1,-10,-12,-12,-3,-3,0,33
1512443593904988,8,1,-6,11,-4,-6,-4,-6
1512443593921001,-8,11,17,-12,-2,1,-2,-34
1512443593921001,-7,-9,-21,0,-6,-5,2,33
1512443593923004,0,1,14,-4,-7,-6,-6,-36
1512443593923004,12,0,1,13,-4,-3,-2,0
1512443593944015,-4,-2,5,9,5,1,0,-12
1512443593944015,-24,-7,7,-4,-4,-3,-10,14
1512443593945016,11,-4,20,37,8,8,8,10
1512443593945016,-24,-15,-33,-27,-4,-2,4,7
1512443593958025,-5,13,-6,16,-2,1,2,0
1512443593958025,-2,-8,-14,-21,-12,-6,-7,-13
1512443593965044,4,7,1,13,7,3,-5,18
1512443593965044,10,5,6,-9,-6,-5,-8,1
1512443593981050,-34,-4,11,15,-6,-3,-4,-26
1512443593981050,-9,-8,-2,-6,-3,-2,-2,-16
1512443593983044,-4,-4,1,-5,5,7,14,2
1512443593983044,0,-1,4,16,8,0,2,-2
1512443594003057,4,6,-4,-19,-3,-1,-1,5
1512443594003057,8,23,36,6,0,-2,-2,-29
1512443594005059,21,-15,-44,-3,7,3,-3,36
1512443594005059,12,14,-10,5,3,-2,2,5
1512443594018068,-7,-2,7,4,-3,-2,-3,-13
1512443594018068,13,-1,-5,-9,-1,-2,3,20
1512443594025073,8,12,-15,-13,-6,0,-7,-20
1512443594025073,-12,-7,-33,-8,4,5,4,-2
1512443594041086,16,10,16,-4,-6,-2,0,6
1512443594041086,-2,3,-8,1,12,3,3,12
1512443594043086,-3,0,5,1,-9,-5,-3,8
1512443594043086,-8,-7,21,3,-2,-3,-4,-11
1512443594063100,3,-6,-12,14,-1,0,1,-20
1512443594063100,3,-6,1,-12,-4,-1,1,8
1512443594065101,12,5,-13,-20,-1,1,-4,-11
1512443594065101,-20,0,27,8,2,0,0,-33
1512443594077122,7,-8,-7,-16,2,-1,2,23
1512443594077122,12,0,5,6,-1,0,-3,4
1512443594086117,-11,9,-14,-4,-2,-1,0,5
1512443594086117,13,-7,-10,-8,-5,0,-4,-8
1512443594108149,1,-1,1,0,7,-2,-9,0
1512443594108149,2,4,4,-3,8,0,-1,11
1512443594110146,-21,-9,20,-5,-6,-3,-1,-13
1512443594110146,9,6,-11,-6,-4,-2,-1,4
1512443594124182,6,-2,31,12,0,-4,-1,-9
1512443594124182,-21,-7,-32,0,-9,-2,-2,15
1512443594129149,-6,1,8,8,-7,-9,-12,-16
1512443594129149,-21,1,28,3,4,3,3,11
1512443594137162,-9,-11,-31,-8,-3,-2,-7,-11
1512443594137162,5,-6,4,8,-4,-1,1,-5
1512443594146158,-5,-3,-5,-21,-7,-4,3,-25
1512443594146158,10,5,-11,-11,10,9,4,21
1512443594161169,-6,8,19,21,2,-1,-5,-20
1512443594161169,6,1,-41,-3,6,10,5,3
1512443594162170,7,-4,3,-7,-5,0,6,14
1512443594162170,1,-11,9,3,-3,-6,-8,-11
1512443594183185,-11,5,-7,-4,-7,-3,-1,7
1512443594183185,2,-3,5,-3,-3,0,-3,-5
1512443594185187,-6,-2,40,5,-2,-7,-6,-1
1512443594185187,-15,-3,-35,-4,-4,-3,-1,-6
1512443594197198,21,1,14,-9,-5,2,1,17
1512443594197198,1,-4,2,7,2,-8,-6,-7
1512443594206219,1,6,-26,1,1,5,4,-4
1512443594206219,-1,-4,-8,-11,-2,-3,-6,11
1512443594221224,5,-1,13,-3,-3,0,2,-7
1512443594221224,-24,1,14,-1,-7,-5,1,-24
1512443594222225,-3,0,-60,-5,7,5,4,18
1512443594222225,2,3,46,-6,-6,-7,-2,-3
1512443594243231,-10,-3,-28,-7,0,0,1,-1
1512443594243231,4,-7,-14,-4,-6,-3,5,3
1512443594245231,8,-5,4,7,-3,-2,-2,-5
1512443594245231,0,-1,-18,-5,-3,0,2,23
1512443594266263,7,-6,-9,7,7,0,-3,22
1512443594266263,13,11,2,-13,5,1,0,7
1512443594267250,-22,-2,15,5,1,0,2,7
1512443594267250,-13,2,21,2,-1,0,-1,0
1512443594281257,-3,5,0,-3,0,4,3,7
1512443594281257,3,-6,8,21,1,-5,-7,-14
1512443594282257,11,5,7,-15,-5,-6,-4,6
1512443594282257,0,-3,10,0,-1,0,-1,-16
1512443594303270,-9,-3,-6,-2,4,2,-3,20
1512443594303270,-19,7,-13,3,-8,-6,0,-42
1512443594305271,4,-7,11,-14,2,5,3,2
1512443594305271,7,-4,1,12,1,-2,0,-4
1512443594317294,4,12,26,-9,-8,-3,-7,3
1512443594317294,5,-21,-20,7,7,5,5,23
1512443594332292,7,7,7,-12,5,1,1,1
1512443594332292,3,2,-7,-10,0,2,1,-17
1512443594341309,6,8,-16,6,2,1,2,14
1512443594341309,-1,0,6,-4,-2,-3,-12,-55
1512443594342314,-16,-13,-1,8,-14,-8,1,27
1512443594342314,-12,-2,-8,-5,-4,-4,-3,-32
1512443594363312,9,-7,9,-5,-4,-5,-2,-13
1512443594363312,-4,8,11,-2,1,2,2,24
1512443594365316,8,-5,-67,5,0,-3,-3,-2
1512443594365316,6,-3,9,-3,-1,-4,-7,-4
1512443594377335,-8,2,5,4,0,0,-2,-22
1512443594377335,15,0,5,0,1,0,1,25
1512443594386330,3,11,25,7,5,4,-1,14
1512443594386330,-8,-1,-1,5,-8,-6,-8,-54
1512443594401339,2,-9,-34,3,6,-2,1,8
1512443594401339,1,4,43,3,-1,1,-5,27
1512443594403340,3,2,6,6,6,-1,0,13
1512443594403340,-6,-11,5,-1,-3,3,10,-25
1512443594423410,-11,-6,29,3,0,-1,2,-11
1512443594423410,5,8,8,-7,-1,-5,-10,-3
1512443594425368,-7,-4,11,1,-8,2,2,-13
1512443594425368,4,2,-8,-7,5,3,7,25
1512443594437374,-10,-11,7,6,-9,-10,-12,-62
1512443594437374,10,-6,-6,-4,-5,-3,6,11
1512443594446372,2,3,17,-1,1,-4,0,-19
1512443594446372,0,1,7,-3,-5,0,-7,16
1512443594461389,-9,3,-31,-9,-1,2,3,-3
1512443594461389,-4,-2,-11,6,-2,0,-3,-8
1512443594462390,1,-1,-5,-14,-2,-3,-4,1
1512443594462390,9,1,-15,-12,11,0,-3,13
1512443594482436,-1,0,-1,-18,-6,-6,-1,8
1512443594482436,5,6,15,1,6,5,-2,6
1512443594491430,-5,3,-22,12,-2,-2,-1,-4
1512443594491430,1,-9,25,13,-2,-1,0,7
1512443594506426,-10,0,7,-2,1,4,-2,0
1512443594506426,-5,0,-29,-12,-5,-2,5,-16
1512443594507415,-3,-13,7,10,-1,-1,-5,1
1512443594507415,9,26,25,9,-1,1,3,20
1512443594529429,1,-16,-20,-4,4,-1,0,20
1512443594529429,-27,-8,-9,1,0,2,7,5
1512443594530432,6,3,-11,2,-8,-2,-5,-42
1512443594530432,-6,-21,-3,-1,-5,-2,3,15
1512443594542441,4,7,13,11,2,2,0,2
1512443594542441,-5,-15,-14,-9,-3,-5,-3,-2
1512443594543442,5,2,-9,-19,-4,-3,1,5
1512443594543442,-9,-5,-13,7,3,5,1,-3
1512443594565456,2,9,-8,-6,1,-2,-1,19
1512443594565456,11,2,9,14,0,-2,-12,-18
1512443594566457,-12,-4,17,-19,1,2,-2,2
1512443594566457,-3,-8,-4,-1,-13,-8,-3,-14
1512443594580469,2,-5,10,0,9,9,6,15
1512443594580469,3,16,4,-13,5,0,2,26
1512443594581478,-9,-8,-30,15,-5,-3,-3,-30
1512443594581478,0,8,-12,9,4,1,1,26
1512443594602482,19,8,37,-1,1,1,-6,-20
1512443594602482,-22,-2,-9,-4,4,3,4,8
1512443594603482,13,-1,28,4,-4,-4,-6,6
1512443594603482,-10,-8,0,-8,-7,1,-4,-13
1512443594625499,-29,-7,-27,18,-8,-8,-2,14
1512443594625499,-1,0,5,-4,7,9,15,9
1512443594626500,2,3,23,5,-4,-5,-7,-2
1512443594626500,-3,7,1,4,5,-4,1,30
1512443594639524,1,4,-3,1,-4,-1,0,-19
1512443594639524,-1,-10,-6,-16,-4,2,-2,-6
1512443594648524,-3,-2,4,0,-1,2,1,0
1512443594648524,16,2,-13,-5,3,-2,-4,18
1512443594662524,2,1,-7,17,-4,0,-3,-2
1512443594662524,6,6,12,-11,-5,-1,-2,19
1512443594663524,-7,-12,-7,-4,3,-5,-6,-13
1512443594663524,-6,0,3,-6,-7,-6,-3,-8
1512443594685541,11,4,-13,-9,-5,-3,3,-4
1512443594685541,0,-5,-5,10,-7,-6,-11,-10
1512443594686542,0,-1,-15,-17,-6,0,3,15
1512443594686542,-5,-6,-17,-3,2,3,1,12
1512443594700609,11,-1,3,-1,6,4,-1,11
1512443594700609,-3,5,-9,51,-4,-3,-8,-10
1512443594701551,-3,12,9,-50,-1,-1,-2,-21
1512443594701551,12,-8,-5,11,-4,-4,0,7
1512443594722579,-13,4,9,-2,5,6,6,-4
1512443594722579,-12,-13,-16,-5,-9,-8,-7,-29
1512443594723571,1,-10,-43,21,1,1,4,19
1512443594723571,0,14,16,0,1,2,-1,-12
1512443594745595,-5,-5,-22,-16,-1,-2,-3,-2
1512443594745595,0,-6,7,-8,-3,1,-1,14
1512443594746584,3,8,8,16,6,5,6,25
1512443594746584,-2,-6,8,-16,3,-2,-9,-24
1512443594760593,-10,3,-3,1,5,0,2,3
1512443594760593,5,-10,1,-11,-8,-6,1,-7
1512443594761594,14,4,-4,-13,12,7,-1,4
1512443594761594,-6,0,-11,0,-9,-6,-3,24
1512443594782619,-6,-8,17,-8,-8,-9,-5,-27
1512443594782619,8,8,-5,0,9,3,4,8
1512443594783611,-11,3,11,16,-8,-5,-5,-14
1512443594783611,-10,-12,-9,-5,8,8,7,12
1512443594805682,3,0,14,-2,-5,-5,-6,-27
1512443594805682,6,4,-29,-4,-1,-3,-2,3
1512443594805682,4,2,-5,0,-5,1,0,8
1512443594805682,-12,-2,-3,1,-2,0,-9,-16
1512443594820697,1,-9,-3,-1,-4,-4,-1,-27
1512443594820697,6,2,1,-2,4,3,3,7
1512443594820697,-5,1,21,11,1,-2,-3,-12
1512443594820697,2,4,-19,-4,-4,-5,-5,-8
1512443594842716,-7,-4,-7,4,5,6,1,30
1512443594842716,3,1,-19,-28,-3,-2,-1,-5
1512443594843711,-5,-1,3,7,2,-2,3,-17
1512443594843711,6,-3,-19,-9,-9,-4,1,9
1512443594865716,13,6,-24,-19,8,1,-2,17
1512443594865716,4,5,35,16,-4,-2,-3,-17
1512443594865716,6,-1,-14,-5,-6,-4,4,10
1512443594865716,4,0,14,-1,1,-2,-4,-4
1512443594879726,7,0,6,12,-1,0,3,-8
1512443594879726,-3,-2,-6,-4,5,2,2,13
1512443594880737,-2,-4,14,8,3,0,-11,-22
1512443594880737,0,1,18,13,-3,-3,0,-9
1512443594902752,2,-7,19,-6,-5,-2,-4,13
1512443594902752,0,1,14,1,3,2,2,-17
1512443594903753,5,-7,1,5,-4,-1,-2,-10
1512443594903753,-17,-8,4,1,1,1,7,-32
1512443594925772,-3,6,-11,-3,-1,2,1,15
1512443594925772,-7,-4,-1,-1,-2,-1,-4,-21
1512443594925772,4,-2,0,-1,-3,-4,0,-7
1512443594925772,2,-4,1,-10,1,-2,-5,-5
1512443594939769,4,6,-3,-10,-2,2,2,2
1512443594939769,4,-4,11,0,2,1,-1,25
1512443594940780,-7,6,-16,-2,-3,0,5,0
1512443594940780,-5,-5,23,10,-5,1,0,2
1512443594962796,-6,-9,-23,-24,-2,-3,0,2
1512443594962796,0,11,21,12,-1,1,1,-9
1512443594963786,-13,-4,-9,-6,-7,-8,-2,11
1512443594963786,0,2,-20,-13,-3,-4,-3,4
1512443594984801,5,-2,-22,17,-4,-3,-2,-3
1512443594984801,-5,-3,-25,-9,-8,-6,-8,-16
1512443594985811,-4,-14,6,-5,-3,1,2,-13
1512443594985811,23,11,14,13,2,-1,1,9
1512443595008830,-3,1,20,0,0,-2,-4,-13
1512443595008830,-4,2,-19,-6,1,1,2,14
1512443595008830,2,-3,7,1,-5,-2,-5,-10
1512443595008830,-8,2,-12,-9,1,-2,0,28
1512443595022827,-3,2,31,14,2,-3,-1,-6
1512443595022827,1,-11,8,-20,-3,-2,-10,-1
1512443595023828,1,9,11,7,5,2,1,10
1512443595023828,6,-7,-18,12,-8,0,2,12
1512443595045899,6,-5,-19,-29,-3,-5,-1,-14
1512443595045899,-1,-1,-3,8,1,-2,5,-4
1512443595046875,-5,-3,6,-1,-4,-4,0,3
1512443595046875,8,-3,-30,18,8,2,-1,9
1512443595059853,-14,2,16,-29,-5,-2,-6,-36
1512443595059853,8,-1,3,-6,-2,1,0,5
1512443595060858,2,-3,28,-5,-1,-5,-2,6
1512443595060858,-9,1,15,-1,-3,-3,-6,-13
1512443595082886,18,0,-15,24,5,0,-4,2
1512443595082886,0,3,31,-3,3,-1,-7,0
1512443595083884,0,-16,-44,6,-3,1,0,19
1512443595083884,3,12,6,-12,0,0,-2,-14
1512443595104885,3,-10,0,7,-2,3,6,16
1512443595104885,-4,-10,-10,3,-7,-5,0,-21
1512443595105886,19,0,-15,8,-1,-1,0,25
1512443595105886,-13,1,20,-9,3,4,-3,-12
1512443595119913,-7,-9,-52,12,-3,2,0,2
1512443595119913,-1,7,-3,-15,-2,2,5,38
1512443595127901,-6,-11,8,9,1,-1,-4,-42
1512443595127901,2,10,19,-18,4,-2,4,-7
1512443595142913,3,8,14,16,1,3,-3,26
1512443595142913,-4,-14,4,5,-8,-4,2,-21
1512443595143913,-4,16,7,-20,3,3,-1,-3
1512443595143913,-2,-15,-20,8,-5,-3,1,1
1512443595164976,-3,4,0,-2,5,1,-1,16
1512443595164976,-8,5,-31,-6,-3,-4,-3,-35
1512443595165977,-8,2,20,2,-7,1,3,22
1512443595165977,-4,-8,19,11,1,3,6,-37
1512443595179987,4,-10,-31,-10,-7,-1,-1,-7
1512443595179987,-23,-9,-15,18,7,0,-2,9
1512443595187992,-3,-5,-39,-11,-2,-3,8,22
1512443595187992,1,1,12,0,-3,-1,-9,-24
1512443595203004,-3,4,3,0,-4,-3,6,8
1512443595203004,11,3,11,10,4,4,-2,4
1512443595204003,-9,-9,1,2,-1,-2,0,-41
1512443595204003,8,7,-13,-24,-5,-1,-5,17
1512443595225036,-10,-12,-3,3,-1,-3,-1,-8
1512443595225036,9,7,0,-26,8,3,3,14
1512443595226022,-10,-7,-14,-8,-1,-5,-3,9
1512443595226022,11,10,37,11,-2,-2,0,4
1512443595240076,0,20,18,-4,-1,0,-3,-15
1512443595240076,-5,-6,-13,14,-3,-2,1,3
1512443595248044,-4,2,-6,11,4,0,-3,23
1512443595248044,-14,-7,-33,-24,6,-2,2,-17
1512443595263046,1,0,-14,2,-4,-2,1,15
1512443595263046,2,1,10,-1,-1,0,5,0
1512443595264056,7,3,22,5,-5,-3,-3,-36
1512443595264056,-10,-12,-39,12,-8,-8,0,-8
1512443595285070,-32,-10,18,-5,2,-3,-4,10
1512443595285070,13,16,-10,-1,3,1,2,6
1512443595286061,-20,-16,20,0,-6,3,-4,-40
1512443595286061,-10,-6,-4,3,1,-2,-5,16
1512443595300071,9,8,-22,-15,0,-1,1,-10
1512443595300071,-19,-11,12,-17,-15,-9,-5,-1
1512443595308077,2,1,-29,-1,-3,-2,2,30
1512443595308077,1,-9,-26,13,-5,1,4,15
1512443595323101,0,-1,23,19,3,-1,-8,-10
1512443595323101,17,2,7,12,5,4,1,-9
1512443595323101,0,13,-2,-11,4,7,4,36
1512443595323101,-3,-4,-27,-12,-3,-1,-5,-26
1512443595345103,7,-9,-1,9,2,0,2,-11
1512443595345103,-8,-8,-42,-3,-3,-3,-5,9
1512443595346104,-2,7,16,9,5,5,4,-8
1512443595346104,6,9,31,6,3,3,-1,11
1512443595359132,-9,-3,-12,-7,-6,-9,-3,-13
1512443595359132,-5,-4,2,-3,-4,-3,-3,-23
1512443595368130,-2,-1,-10,-5,-1,-3,-8,-3
1512443595368130,8,7,-23,-4,-6,-6,-3,19
1512443595383130,19,0,5,-5,-2,1,0,-29
1512443595383130,-8,-6,-4,5,1,1,-2,18
1512443595383130,9,7,-6,0,-7,-8,-4,6
1512443595383130,4,0,25,0,4,2,1,18
1512443595405147,13,6,11,28,1,1,-1,-2
1512443595405147,-10,-8,-1,-14,-4,5,5,-14
1512443595406147,5,2,20,5,-2,-2,6,-15
1512443595406147,3,5,34,-4,9,2,3,25
1512443595428172,-2,9,24,-5,13,10,-1,3
1512443595428172,3,-6,-2,4,-7,-4,2,-14
1512443595429164,-1,8,5,2,9,1,-5,1
1512443595429164,0,-1,-8,18,-4,1,4,-7
1512443595443187,-9,-8,-22,-26,1,-3,-4,14
1512443595443187,6,1,-1,6,0,1,-1,-6
1512443595443187,1,0,-2,-9,-2,-2,-4,0
1512443595443187,-20,-9,-6,16,-5,-2,-2,-26
1512443595465257,3,-5,4,-10,0,-1,-2,12
1512443595465257,-6,6,3,-4,-1,-1,1,13
1512443595466265,7,-12,-27,2,-6,-7,-4,-4
1512443595466265,-2,1,20,-7,-7,1,2,1
1512443595496302,-7,7,1,-1,-4,-5,-4,2
1512443595496302,11,4,-9,7,8,2,-4,5
1512443595496302,-5,-2,10,-4,1,5,2,8
1512443595496302,-5,-4,-1,-7,1,-4,-2,-18
1512443595502277,14,-1,11,8,-7,0,0,-9
1512443595502277,4,1,20,-7,6,1,3,-4
1512443595503284,-1,-5,-24,3,1,0,-4,-19
1512443595503284,-15,-7,-21,-2,-2,-1,0,-3
1512443595525306,0,-3,-50,-10,0,4,5,-4
1512443595525306,-25,-1,8,-5,-9,-4,-6,1
1512443595526295,-13,-18,15,-5,-14,-8,-3,-5
1512443595526295,0,2,5,-4,1,-4,-5,-12
1512443595556315,2,-3,22,0,0,-5,-2,18
1512443595556315,-4,-4,-21,4,0,1,-5,-3
1512443595556315,1,2,29,-4,-4,-5,5,14
1512443595556315,4,2,0,14,1,1,-9,-5
1512443595562320,-8,-5,-19,-32,-7,1,-9,-11
1512443595562320,9,-2,-18,-19,-4,-9,10,9
1512443595563320,3,5,29,16,3,-7,-4,-2
1512443595563320,6,1,-6,-1,3,13,10,3
1512443595585339,0,0,8,20,2,-5,-7,-8
1512443595585339,-1,1,4,-3,-1,1,3,6
1512443595586337,-1,2,-14,-6,-1,3,-1,-1
1512443595586337,-3,0,20,7,0,-5,2,3
1512443595608354,-8,-4,1,14,-1,0,-1,0
1512443595608354,10,-2,8,-34,2,2,-6,1
1512443595609364,5,-1,-14,8,1,-2,0,0
1512443595609364,5,-2,4,-10,-2,-2,-6,-1
1512443595623375,-4,-1,-16,-4,-6,-5,3,0
1512443595623375,6,0,31,24,-1,-1,-6,-3
1512443595630368,-9,-4,-49,-12,-1,-1,-1,-3
1512443595630368,-2,-2,4,-13,-3,-4,2,2
1512443595645379,8,8,55,24,1,2,-18,-2
1512443595645379,-10,-8,-57,-33,-11,-11,4,3
1512443595646379,10,5,34,3,1,0,0,6
1512443595646379,-16,0,-12,-1,-6,-8,-12,-2
1512443595668395,-6,-2,13,-1,0,-4,3,1
1512443595668395,7,2,17,22,4,5,-3,1
1512443595669395,-8,-1,-7,-6,-3,-1,-2,-2
1512443595669395,-1,1,-2,-6,-1,-2,2,0
1512443595683416,2,-1,-5,-8,-1,-1,7,4
1512443595683416,-6,1,5,9,-2,-1,-4,-5
1512443595683416,-2,-3,-16,-6,0,-1,6,-1
1512443595683416,5,2,14,3,2,1,-1,2
1512443595706422,-9,-1,-31,-11,2,2,0,-1
1512443595706422,3,-1,-2,1,-2,-2,1,-1
1512443595707430,-2,0,10,1,-1,0,-4,-1
1512443595707430,4,-2,-7,-6,-1,0,-1,-1
1512443595728438,-3,-3,-13,-5,-3,-4,3,5
1512443595728438,0,0,18,8,-2,-3,-3,-3
1512443595729439,0,-2,-7,0,-1,2,0,0
1512443595729439,-3,-4,-5,-8,-1,-5,-5,-1
1512443595743448,0,-2,-2,-9,0,-1,3,3
1512443595743448,-3,0,12,8,-3,-2,-1,-15
1512443595743448,-5,-2,4,1,-3,0,-2,-1
1512443595743448,3,-1,-7,-5,-1,-2,2,8
1512443595765464,-5,-4,6,-2,-4,0,-3,-15
1512443595765464,1,2,-2,2,-1,-2,-3,7
1512443595766465,0,2,-2,-6,-3,-1,-3,1
1512443595766465,-3,-8,-4,-2,1,-2,0,1
1512443595788483,-1,-2,3,1,-2,-1,1,-3
1512443595788483,6,0,1,1,2,2,-3,2
1512443595789480,-18,-3,-10,-4,-1,0,1,-5
1512443595789480,5,-5,9,1,0,-1,3,2
1512443595803490,-1,3,0,-1,0,1,2,2
1512443595803490,-6,0,0,1,2,-2,-2,-2
1512443595804503,2,2,4,-3,0,-3,-1,2
1512443595804503,-2,-2,3,-1,-3,1,-3,-6
1512443595825507,-2,-3,-9,-3,0,0,1,3
1512443595825507,4,4,3,0,-2,0,1,0
1512443595826509,0,-7,18,7,-2,0,-3,-3
1512443595826509,0,1,-11,-17,-3,0,-2,-1
1512443595848523,1,2,3,-2,0,-3,0,1
1512443595848523,-5,-2,-3,-1,-2,0,-2,-1
1512443595849524,2,-7,5,1,-1,-3,-2,0
1512443595849524,0,0,-3,4,-1,-2,3,-2
1512443595862542,-4,-2,-1,0,-1,-2,-4,3
1512443595862542,-4,-5,-7,-4,-2,-1,0,-2
1512443595863533,1,3,-8,-1,0,0,0,1
1512443595863533,-1,4,3,2,-1,0,0,-3
1512443595885550,3,1,1,-2,1,0,0,-1
1512443595885550,-1,0,1,2,-1,-1,-2,1
1512443595885550,3,-5,-4,-2,0,-1,1,0
1512443595885550,1,-2,-5,1,-2,1,1,0
1512443595908584,-3,1,3,-1,-1,0,-1,-1
1512443595908584,-1,-2,-2,-2,-6,-2,1,-1
1512443595909567,-3,2,-2,-3,-1,-3,0,-1
1512443595909567,-1,0,0,1,0,-3,-2,0
1512443595922579,-3,-1,0,0,0,1,-3,0
1512443595922579,-3,-4,-8,-3,0,-2,-1,-1
1512443595930585,5,1,6,1,-2,-1,0,0
1512443595930585,-1,-3,-8,-6,-2,-2,0,-3
1512443595945592,0,-3,-7,2,-2,0,-1,0
1512443595945592,-2,0,-3,-2,-2,-2,-2,-1
1512443595946600,-2,1,0,6,-1,2,0,-1
1512443595946600,-1,-2,1,-4,-2,-1,0,-1
1512443595968609,0,-1,-7,-2,1,2,1,-1
1512443595968609,0,-1,-2,0,0,-1,-1,2
1512443595969609,-4,-1,0,0,-3,-1,-2,-2
1512443595969609,4,-1,4,4,-3,0,-2,-3
1512443595982618,1,0,-5,-7,-2,-3,-1,-3
1512443595982618,0,0,19,3,1,1,-2,1
1512443595983618,-1,-1,-29,-4,-4,-3,0,3
1512443595983618,-5,-4,-11,-20,-2,-6,-3,-2
1512443596005646,1,0,6,5,1,0,-3,-3
1512443596005646,-2,0,-9,-3,-2,1,-1,1
1512443596005646,1,-1,11,0,-1,0,-1,-2
1512443596005646,-1,-1,-6,6,4,2,0,-1
1512443596028663,-1,-2,-3,-1,-2,-3,1,-2
1512443596028663,-1,-1,2,-1,0,-1,4,-2
1512443596029663,0,-3,-6,-3,-2,1,-2,3
1512443596029663,-3,-2,2,2,-2,-1,0,-2
1512443596041671,-1,0,0,-5,0,-1,0,-1
1512443596041671,-1,-3,-4,0,-1,-2,0,-2
1512443596050665,1,-2,10,0,-2,-1,-2,1
1512443596050665,-1,2,4,3,-1,-2,0,-2
1512443596065693,2,-2,5,6,1,-1,0,0
1512443596065693,0,0,2,-5,-1,-1,0,-3
1512443596065693,-2,-2,-8,-6,-3,-2,0,-6
1512443596065693,0,0,31,15,4,1,-3,4
1512443596088747,-2,-5,-44,-15,0,-1,-2,3
1512443596088747,0,0,17,5,1,-1,-2,0
1512443596089727,6,-4,-15,-9,-2,-2,-1,1
1512443596089727,-12,0,-7,4,0,1,-1,-4
1512443596102720,1,0,9,7,0,1,1,0
1512443596102720,-3,-1,-9,0,-2,-2,-1,-2
1512443596110708,3,0,5,-2,0,-2,0,-4
1512443596110708,0,-1,-5,-1,-2,1,2,2
1512443596125718,-1,-1,1,-5,-1,-1,-2,0
1512443596125718,-3,-2,-18,-6,-1,-1,-2,-4
1512443596125718,-4,-1,12,3,-2,-1,1,2
1512443596125718,1,-2,-3,-3,-3,-4,-2,0
1512443596148734,-1,1,1,-2,1,-2,0,-1
1512443596148734,2,-1,1,0,0,-1,-2,-2
1512443596148734,-4,1,-4,3,-1,0,-2,-4
1512443596148734,1,-1,-10,-2,-1,-1,2,2
1512443596161743,2,0,9,3,1,-1,-1,-1
1512443596161743,-1,-2,-6,-8,-1,-1,-2,-1
1512443596170752,-2,0,5,-2,-2,-2,0,0
1512443596170752,0,-5,-7,-2,-3,-1,0,-2
1512443596185762,-3,-3,5,1,0,0,1,-1
1512443596185762,-1,0,2,1,-1,1,1,1
1512443596192766,0,0,-5,0,1,0,-3,1
1512443596192766,1,5,2,0,0,-1,-3,-5
1512443596207808,-1,-4,-2,-7,-2,-2,-1,-1
1512443596207808,-2,-2,2,1,-4,-2,2,0
1512443596214813,-1,-1,-1,-4,1,-1,-3,-3
1512443596214813,1,-1,6,1,1,-1,-4,-4
1512443596221829,-2,1,3,2,1,0,-3,-3
1512443596221829,-1,-7,-25,-11,-2,-1,0,0
1512443596229835,-3,4,12,2,-3,0,0,1
1512443596229835,-1,-1,-3,-4,-4,-1,-1,1
1512443596244833,0,2,0,-1,-1,-2,-2,0
1512443596244833,0,0,7,4,1,-2,-2,-2
1512443596245851,-4,-3,-5,0,-2,-1,2,1
1512443596245851,-1,-3,-5,-4,1,-1,-1,-2
1512443596268864,-1,-2,2,2,-2,-2,1,0
1512443596268864,-1,-3,1,1,-4,2,-3,-1
1512443596268864,-4,-1,-4,-2,1,-2,2,-3
1512443596268864,2,1,3,1,3,2,-3,-1
1512443596281859,-3,-1,-2,-2,-1,-2,0,0
1512443596281859,-2,-2,0,1,-3,-1,0,-1
1512443596289879,0,-1,-1,-2,0,-3,-3,0
1512443596289879,-1,1,-2,-1,-2,-1,0,0
1512443596304876,-2,2,-4,-1,-1,-1,-2,-1
1512443596304876,2,2,-1,-3,-2,-2,-2,1
1512443596305877,0,-4,0,0,-3,-2,-2,-3
1512443596305877,-2,1,2,0,-3,1,-2,0
1512443596328893,-1,-3,-8,-4,0,0,-1,2
1512443596328893,2,2,10,2,3,0,0,-2
1512443596328893,-2,-1,-1,1,-4,-1,-3,-2
1512443596328893,-1,-3,-4,-5,2,-1,1,-1
1512443596341954,-1,1,3,-1,0,0,-1,-3
1512443596341954,-3,-1,-1,1,0,-2,0,0
1512443596349928,0,0,-1,2,-1,-1,-2,-1
1512443596349928,1,-2,-1,-1,0,-2,0,-2
1512443596364917,-2,-1,-1,-4,-2,-1,0,0
1512443596364917,-2,1,1,0,-1,0,-1,-3
1512443596365918,-3,0,1,-1,-1,-1,-1,-1
1512443596365918,-1,0,-2,-3,3,-4,3,-2
1512443596388939,-1,-2,-2,-2,1,0,2,-4
1512443596388939,-2,-1,-3,-1,1,-2,-2,0
1512443596388939,0,-2,0,-2,-2,-2,-1,-2
1512443596388939,1,-1,-3,-1,-1,0,-2,1
1512443596410951,-1,-2,-1,0,-2,0,-5,1
1512443596410951,-4,-3,-2,-3,0,0,-2,3
1512443596411952,-2,-2,0,-1,-2,-3,-2,3
1512443596411952,3,3,-2,1,-1,3,4,-2
1512443596424972,-2,0,-2,-2,-4,-1,-6,-6
1512443596424972,-2,-1,-5,-3,-1,-1,0,5
1512443596425960,-2,-3,1,0,-1,0,1,-2
1512443596425960,-7,0,-2,-2,-2,1,-6,-1
1512443596447986,2,1,2,-2,0,-1,-4,0
1512443596447986,-4,0,-1,-1,0,1,1,-4
1512443596448977,2,-1,0,-2,0,-2,-2,-4
1512443596448977,1,-3,-2,2,-5,-3,1,2
1512443596471062,-4,-3,4,-1,0,-1,-1,-3
1512443596471062,2,-2,-5,1,-2,-2,0,-1
1512443596471995,-2,-2,-6,-3,-1,0,-2,-3
1512443596471995,3,-2,3,1,1,8,-6,-2
1512443596486006,-1,-4,-6,-3,-4,-12,12,7
1512443596486006,10,0,3,2,-2,4,-11,-2
1512443596487027,-4,-2,-2,-2,-2,1,4,0
1512443596487027,-2,-3,-3,1,-2,-8,-2,2
1512443596508031,-4,0,1,-7,0,8,-18,-6
1512443596508031,-6,-2,10,1,-2,-11,32,-2
1512443596509019,14,-4,-20,-4,-2,3,-15,10
1512443596509019,-11,0,3,0,-1,-2,-4,-9
1512443596531039,2,-4,-2,-1,0,4,2,1
1512443596531039,-7,-2,5,1,-4,-6,-4,-3
1512443596532040,3,-4,3,0,-2,-1,-14,-3
1512443596532040,-1,-1,-4,0,-2,-5,9,3
1512443596553052,2,3,-2,0,-1,0,2,-1
1512443596553052,-4,-3,-8,-4,-1,1,-14,-2
1512443596555052,1,1,3,1,0,-3,15,2
1512443596555052,3,-1,-1,-2,-3,4,-8,1
1512443596568063,-4,-2,2,1,0,-1,6,-1
1512443596568063,4,-2,-5,-3,-1,-1,-29,-1
1512443596570065,-3,0,1,-1,-1,2,3,-3
1512443596570065,25,0,-2,-5,-1,-6,-2,9
1512443596591087,-1,3,-2,2,1,4,-5,-2
1512443596591087,-5,-1,2,3,-4,1,0,3
1512443596593091,8,3,-1,-26,1,-9,-9,-8
1512443596593091,-11,-3,-1,3,-4,4,-9,-3
1512443596605088,1,-1,-2,1,-3,-3,3,1
1512443596605088,2,-1,3,2,0,1,7,0
1512443596613093,-4,-2,5,6,0,0,0,2
1512443596613093,-2,0,-5,-4,1,-3,10,-2
1512443596628105,-2,-3,-1,0,-2,-6,-5,-1
1512443596628105,-4,-2,-4,-2,-1,4,3,-2
1512443596630105,-8,-2,4,3,-1,-4,1,-1
1512443596630105,-3,-5,0,-2,-1,-5,-4,-1
1512443596651133,0,-2,-1,2,2,2,2,-3
1512443596651133,-4,1,-9,-4,-1,1,-2,-1
1512443596652122,-4,-1,2,3,-2,-4,5,1
1512443596652122,-1,2,-1,0,0,1,1,-5
1512443596664147,-4,0,0,-2,-2,-4,0,-1
1512443596664147,-2,-2,-3,-1,-3,-3,6,-4
1512443596673149,-1,0,5,3,-1,-4,9,0
1512443596673149,-4,0,-1,-2,1,1,5,-6
1512443596688146,0,-5,-5,-4,-1,-2,7,-4
1512443596688146,2,-1,-4,-4,-1,-4,0,-1
1512443596690148,-1,0,0,3,-2,-2,-13,0
1512443596690148,-1,-1,-4,-2,0,5,-17,-1
1512443596711163,-1,-2,-1,-2,-2,-6,4,2
1512443596711163,-1,0,0,-1,1,-1,0,-1
1512443596712164,-1,-1,0,1,0,2,2,1
1512443596712164,1,-1,0,-1,0,0,-1,-2
1512443596725212,-2,-2,-3,-2,1,-1,-9,-2
1512443596725212,0,-4,0,1,-1,-3,-3,-1
1512443596732178,-4,0,-3,0,-1,2,-1,-3
1512443596732178,-1,-2,-1,-3,-1,-4,-1,1
1512443596748203,-1,3,-2,-2,1,2,-2,0
1512443596748203,-3,-2,1,-2,-1,-3,0,0
1512443596750199,0,1,0,-1,1,0,0,-3
1512443596750199,0,-2,-3,2,2,1,8,-1
1512443596771217,2,-1,1,0,-5,-3,-21,0
1512443596771217,-2,-1,-3,-1,-2,2,17,4
1512443596772205,-2,-2,1,1,0,0,-16,-3
1512443596772205,-4,-2,-2,-3,0,-4,-1,-2
1512443596785227,1,2,-4,-1,2,1,6,-2
1512443596785227,-1,0,0,-2,-3,0,9,0
1512443596792229,0,1,-5,0,1,-1,-1,-4
1512443596792229,-1,0,1,0,-4,-1,-10,2
1512443596808269,0,-1,-1,-2,0,0,-5,-2
1512443596808269,-4,-3,0,-1,-2,-5,-5,-1
1512443596810233,0,2,4,2,-3,0,4,-3
1512443596810233,-4,1,-7,-1,1,-2,-2,-1
1512443596831247,0,-2,-8,-4,-1,0,13,0
1512443596831247,-2,2,-1,0,-2,3,-12,-2
1512443596832248,-5,-3,0,0,-4,0,0,-2
1512443596832248,0,1,6,0,0,-2,5,-3
1512443596845264,-3,-3,-1,1,-1,2,-10,2
1512443596845264,2,-2,-1,-2,-2,-1,0,-2
1512443596852280,1,-1,-3,-1,-2,-2,6,1
1512443596852280,-1,-3,-4,-1,0,-1,4,1
1512443596868284,-1,-1,-1,-1,-3,-1,-23,-4
1512443596868284,-1,0,-1,-2,0,-4,-14,-2
1512443596870275,-1,-3,-1,1,-1,0,2,1
1512443596870275,2,-2,-1,-1,0,2,-4,-1
1512443596891289,-1,3,1,-1,-2,-1,6,-3
1512443596891289,0,-2,1,0,-1,2,-2,0
1512443596892290,-1,-2,-6,-2,-1,0,-4,-3
1512443596892290,-2,1,-1,-1,0,-1,-1,0
1512443596904300,-2,-3,-1,1,0,-1,7,-2
1512443596904300,-2,0,0,-1,-3,-3,1,1
1512443596913307,-3,-2,-2,0,-1,0,7,2
1512443596913307,1,-1,-1,-2,1,2,-1,-2
1512443596928317,0,-1,1,-1,0,-7,1,0
1512443596928317,-1,-1,1,-2,1,2,-4,-1
1512443596930318,-3,-1,4,-1,-2,-2,-1,-1
1512443596930318,1,1,1,-1,-2,-1,3,-4
1512443596951333,-1,0,-3,0,0,-2,0,4
1512443596951333,0,-3,1,-1,-5,-3,-3,0
1512443596952334,-3,-3,-1,-2,-2,-3,-2,-2
1512443596952334,0,0,-4,1,-1,-2,0,0
1512443596964342,-3,-2,0,-4,-3,2,2,0
1512443596964342,1,0,-2,2,1,-2,-1,1
1512443596973360,-1,-2,-4,-2,-1,1,0,-2
1512443596973360,-3,0,1,-1,0,-2,1,-4
1512443596988373,2,0,-4,-2,-1,-1,4,-2
1512443596988373,3,-5,-2,0,0,1,3,-1
1512443596990375,1,-2,-1,1,0,-3,-2,1
1512443596990375,-2,-3,0,-1,-2,-1,-2,1
1512443597010375,-2,-1,-2,0,0,-1,2,-3
1512443597010375,-2,1,1,-1,-1,-1,0,0
1512443597012376,-2,1,0,0,1,0,-1,0
1512443597012376,1,-3,1,-3,-2,-1,-2,-1
1512443597024441,-3,-3,-2,0,-2,-1,-3,0
1512443597024441,-1,0,-3,0,-1,0,1,1
1512443597033390,-2,-2,-1,0,-1,-1,0,-2
1512443597033390,-1,0,-1,0,0,-1,-1,-3
1512443597048402,-2,-1,-3,-2,0,-2,1,-1
1512443597048402,0,1,-1,-2,-1,-4,-6,2
1512443597050403,0,-1,-1,-2,0,2,-2,-4
1512443597050403,-2,1,1,-3,2,-2,-2,1
1512443597070418,3,-1,-1,-1,1,0,0,-1
1512443597070418,-3,-4,0,-1,-4,0,-2,-4
1512443597072419,0,0,-2,0,-1,-2,-1,-1
1512443597072419,-2,-1,-1,-2,-2,0,-6,-3
1512443597084427,-3,-3,0,1,-2,-3,1,-2
1512443597084427,-5,-3,-2,-1,-1,-2,3,1
1512443597093434,-1,0,-1,-1,-1,-1,2,-2
1512443597093434,0,-1,-1,-1,0,-2,-1,0
1512443597108529,-2,-2,0,0,1,0,3,-2
1512443597108529,-1,-3,-2,-2,-1,-1,1,3
1512443597110502,-4,-4,3,-1,-4,-4,-3,-1
1512443597110502,-1,2,-6,-3,0,2,3,-3
1512443597138511,2,1,0,-1,-2,-4,-2,0
1512443597138511,-2,-1,1,-1,-1,1,-30,-2
1512443597140513,-2,-3,1,-2,-2,-6,2,0
1512443597140513,0,1,-3,0,1,-4,-1,0
1512443597144517,0,0,0,-1,-1,1,-5,-1
1512443597144517,1,0,-1,-1,-2,0,6,-3
1512443597153522,-1,1,-2,-3,-1,-2,-3,2
1512443597153522,1,-5,-2,-1,1,-2,-4,-1
1512443597168533,0,-1,-2,-1,-1,-3,1,-2
1512443597168533,2,-3,-4,0,-3,0,9,-2
1512443597170542,-2,-1,0,-2,-1,-2,-1,-3
1512443597170542,-1,-1,0,0,-3,-3,-5,-2
1512443597191561,1,0,-3,-4,0,2,8,1
1512443597191561,-4,1,2,0,3,-1,2,-3
1512443597192549,-1,-2,-2,0,-3,0,-3,2
1512443597192549,-1,0,-3,-3,0,-2,-6,-1
1512443597204558,0,0,-2,-2,0,1,-4,1
1512443597204558,-4,-1,-2,0,-2,-8,2,0
1512443597213564,1,-1,-3,-2,-1,-3,2,0
1512443597213564,0,-2,-2,-2,0,1,3,-1
1512443597228575,-3,-1,-3,-2,-2,0,-2,-1
1512443597228575,-1,-3,1,-2,-1,3,3,-3
1512443597230576,-3,0,-1,1,0,1,-9,1
1512443597230576,-1,0,-1,-2,-4,-7,12,-2
1512443597250593,-2,-1,-2,1,0,1,-4,-1
1512443597250593,0,1,-4,-3,-4,-3,-2,1
1512443597252592,3,-1,1,-1,0,0,-9,0
1512443597252592,-2,0,0,1,-2,1,11,0
1512443597264601,0,-2,0,-2,-2,-2,-5,-1
1512443597264601,-2,-2,0,-1,-2,-5,8,1
1512443597273607,-2,-2,-2,0,-1,0,3,-3
1512443597273607,1,0,-3,-3,0,-2,-1,1
1512443597288630,-3,-1,-1,-1,-1,-1,-8,1
1512443597288630,0,-2,1,0,1,2,4,-1
1512443597289618,0,1,-2,-2,-1,0,1,2
1512443597289618,1,-1,-1,-1,2,-2,-9,1
1512443597311645,-1,-1,-2,0,-2,-2,6,-1
1512443597311645,2,0,0,-1,-1,0,-4,-1
1512443597312646,-2,-1,1,2,-3,0,1,-1
1512443597312646,0,-1,-3,-1,2,1,-5,-5
1512443597333650,1,-1,-1,-2,0,-1,-5,-3
1512443597333650,-2,0,0,1,-1,-1,-3,-1
1512443597334651,-4,0,0,-1,-3,-3,-3,0
1512443597334651,-3,-3,-2,-1,-1,2,-5,1
1512443597348660,-1,3,-2,1,-2,0,0,0
1512443597348660,-1,-3,0,0,-1,-2,-1,-1
1512443597349661,2,-3,0,-2,-3,0,5,0
1512443597349661,-2,-5,0,-2,-3,-1,-7,-3
1512443597370677,-1,-1,0,-1,2,-1,-1,1
1512443597370677,0,0,-3,0,-2,3,-18,-1
1512443597372696,-5,-4,0,2,-6,-5,6,0
1512443597372696,-2,0,-2,1,2,0,-4,0
1512443597393707,2,-2,-3,-2,0,1,0,-4
1512443597393707,2,0,1,-2,-1,-1,-5,0
1512443597394693,2,1,-2,-1,2,0,-1,-2
1512443597394693,-1,0,1,-4,-2,-1,-3,0
1512443597408715,-2,0,1,1,-3,0,-1,-1
1512443597408715,-6,0,-1,-2,-1,-3,7,-2
1512443597409706,-2,-1,-1,-2,-1,0,-7,1
1512443597409706,1,2,-1,0,-3,-1,2,-3
1512443597438724,-2,-1,0,-4,0,0,-1,-1
1512443597438724,1,-4,0,-1,-1,0,2,-1
1512443597439724,-2,1,1,-1,-1,-1,-4,-1
1512443597439724,-2,-2,-4,0,-1,1,-17,-2
1512443597453746,-2,-1,-1,-1,-3,-8,5,2
1512443597453746,-4,-3,-2,-2,-4,1,2,-1
1512443597454736,-1,-2,-3,-2,1,-3,0,0
1512443597454736,-4,-2,-2,-1,-1,-1,-2,-1
1512443597468745,-3,-2,-1,-2,1,-1,-1,-3
1512443597468745,-2,0,0,-1,-2,-5,5,1
1512443597474773,-1,1,-1,1,-2,2,-8,-2
1512443597474773,-2,3,-1,-3,0,-1,3,-2
1512443597490793,3,-5,-1,-3,-2,-2,-1,-2
1512443597490793,-5,-1,1,-1,0,-2,-1,-1
1512443597492763,-2,-4,1,0,-1,0,-3,1
1512443597492763,1,1,-2,-2,-2,-3,10,-2
1512443597513789,-4,3,-1,-1,0,3,-8,2
1512443597513789,0,-3,0,0,-3,-1,-3,0
1512443597514778,1,-5,-1,-2,1,0,6,-1
1512443597514778,3,-1,-2,-2,0,2,-1,1
1512443597527797,1,-4,-1,-1,-3,0,1,-3
1512443597527797,0,-1,-1,-1,0,-1,-1,-3
1512443597534792,-4,-1,-2,-1,1,1,2,-3
1512443597534792,-4,-2,-1,0,0,-3,-4,0
1512443597550803,-2,-1,-2,0,-3,-3,-1,0
1512443597550803,0,-2,-1,0,-1,0,0,-2
1512443597552804,0,-1,-2,0,-4,-3,-1,0
1512443597552804,0,0,-2,-1,1,0,1,-1
1512443597572842,-3,-1,1,-2,0,0,0,-4
1512443597572842,2,-3,-2,1,-1,0,1,-2
1512443597580824,0,-2,0,-2,-2,-1,4,1
1512443597580824,-3,2,0,0,-4,-2,-7,-1
1512443597587829,0,-2,-3,-1,1,8,14,0
1512443597587829,-1,0,2,-1,-4,-2,-3,-1
1512443597594834,0,2,0,-3,-1,1,5,-4
1512443597594834,-3,-1,-5,-2,1,-1,-1,-2
1512443597610902,-1,0,-2,-1,0,0,0,-4
1512443597610902,-1,-1,1,-2,-3,1,-3,-1
1512443597612847,-2,-1,0,0,0,-4,1,0
1512443597612847,1,1,-1,-1,0,-1,0,-1
1512443597633864,1,-1,1,-2,0,-4,-7,-3
1512443597633864,0,-4,-2,-1,-1,-1,4,0
1512443597634864,1,0,-1,-1,-3,-2,-5,-3
1512443597634864,-3,-4,2,0,1,-1,0,-3
1512443597647881,-1,-2,-2,-2,1,-2,-3,-1
1512443597647881,-2,-2,0,-1,1,-2,-1,0
1512443597669890,0,-2,-2,0,0,0,-1,0
1512443597669890,3,-3,-3,-1,-1,0,1,-1
1512443597678906,0,-1,0,0,-2,-3,-5,0
1512443597678906,-2,-2,0,-3,-3,-1,0,-3
1512443597679895,0,0,-3,-2,-1,1,-1,1
1512443597679895,2,-3,-3,-1,-1,0,-3,1
1512443597693905,-4,-3,1,-3,-4,-2,-6,2
1512443597693905,0,1,0,-1,0,-2,4,0
1512443597694905,-1,-2,-3,-1,-2,-1,-4,-3
1512443597694905,-2,-2,-1,-2,-1,-1,2,1
1512443597707952,1,-4,0,0,-1,-1,-2,1
1512443597707952,-2,-2,0,-1,0,-2,-2,-1
1512443597714937,-1,-1,1,-1,-3,-1,-4,-3
1512443597714937,1,1,-1,-1,-3,-1,1,1
1512443597730931,3,0,-2,-1,0,-2,-2,-1
1512443597730931,-3,0,-1,1,-1,-1,0,-1
1512443597732931,-2,-1,-1,-1,-1,-2,0,-3
1512443597732931,-1,-2,0,0,0,0,-2,-1
1512443597752960,-1,0,-1,-3,-2,-3,-3,-3
1512443597752960,-2,0,-2,-3,0,-3,-2,-2
1512443597754948,-1,-2,2,0,-1,0,0,2
1512443597754948,1,-2,-3,0,1,0,5,-3
1512443597767960,-5,-1,0,1,-1,1,-11,-1
1512443597767960,-3,-1,-2,0,-1,1,17,1
1512443597781979,-3,2,1,-1,-1,-5,-10,-1
1512443597781979,1,0,1,-2,-2,-1,0,-2
1512443597790982,0,-2,-3,-2,-3,-2,-6,0
1512443597790982,0,3,-2,-2,-3,0,4,-2
1512443597791984,-1,-3,-2,0,1,-3,-1,0
1512443597791984,-2,-1,-1,-3,-1,-2,-1,-2
1512443597820994,0,-2,-4,0,-2,-1,-1,-2
1512443597820994,0,-1,3,1,-3,-2,-7,2
1512443597821996,-1,-1,1,0,-3,-2,5,-2
1512443597821996,-1,-1,-2,-1,2,-3,-7,-3
1512443597827020,-3,2,-2,-1,-1,-1,5,-3
1512443597827020,0,-2,1,0,-2,-1,-7,-3
1512443597836005,2,-3,0,-2,-4,-3,2,-1
1512443597836005,0,0,-3,0,-2,0,-8,-1
1512443597851016,-2,-2,1,-2,-5,-5,12,0
1512443597851016,-3,-2,-3,0,0,-1,-3,-1
1512443597852028,0,-1,-1,1,-1,-1,-3,1
1512443597852028,-1,-1,0,0,0,-2,-4,-2
1512443597873046,0,-4,0,-1,1,-2,0,3
1512443597873046,2,-3,-2,-2,-1,0,-4,-3
1512443597875032,0,-1,0,-3,-2,1,-1,1
1512443597875032,-4,-1,-1,-3,-5,-5,10,-1
1512443597887044,1,3,-2,1,1,3,-5,-3
1512443597887044,-1,-2,-3,-1,-2,0,-3,-3
1512443597896048,-3,0,-3,-1,0,0,1,0
1512443597896048,-3,-1,-4,0,-1,0,-4,0
1512443597911074,2,0,0,0,0,0,5,-4
1512443597911074,2,-4,-1,-1,-2,-4,-11,2
1512443597912075,0,1,-2,0,0,2,9,-6
1512443597912075,-4,0,1,0,-2,1,-7,-1
1512443597933087,-2,-3,-3,-4,-1,-2,-4,0
1512443597933087,-1,-2,-1,0,0,-1,3,1
1512443597935086,0,-5,-2,1,0,-1,-6,-1
1512443597935086,0,1,-3,-2,1,-1,-2,0
1512443597947124,0,-2,1,-3,1,2,3,-2
1512443597947124,-3,0,1,1,-2,-2,-3,-2
1512443597956090,-2,-1,1,-2,-1,1,-3,0
1512443597956090,1,-2,-1,0,-3,2,3,-2
1512443597971100,-3,-1,-1,-2,-4,-3,-3,-1
1512443597971100,-2,2,0,-1,-2,-1,5,3
1512443597972103,-2,-1,1,-1,-1,-2,2,-1
1512443597972103,2,-3,-2,-1,-1,-2,-2,-3
1512443597993117,-1,-3,-2,-2,-1,1,4,-3
1512443597993117,-4,-3,1,-3,-2,-2,-3,-2
1512443597995117,-2,0,-3,1,-3,-4,-2,2
1512443597995117,-1,-1,-1,-3,-1,1,1,1
1512443598007126,1,-2,-2,-1,0,-1,0,-4
1512443598007126,2,2,-1,-2,0,-3,-4,-2
1512443598016132,-3,-4,0,-1,-4,0,-5,-4
1512443598016132,-3,-3,-3,-1,-2,-1,-4,-2
1512443598031142,-1,-2,-1,-1,-1,-3,1,1
1512443598031142,-3,-4,-1,-1,-2,-1,4,0
1512443598032144,-1,0,1,-1,-2,0,-4,-1
1512443598032144,0,-4,-2,-2,-2,-3,3,-2
1512443598053173,-2,3,-1,0,0,-1,2,-1
1512443598053173,-1,0,1,-1,-3,0,-3,-4
1512443598055169,-3,-1,-1,-1,-3,-2,-3,-1
1512443598055169,1,-3,-1,1,0,0,4,-3
1512443598067169,0,-1,0,0,0,1,-1,2
1512443598067169,-2,-1,2,1,-1,-4,1,-2
1512443598076178,-1,0,-2,-2,1,-2,1,0
1512443598076178,0,-2,0,-1,0,0,1,-1
1512443598091191,0,0,-1,0,-1,-2,-5,-1
1512443598091191,0,7,4,-2,4,0,-1,0
1512443598092188,-3,-1,-2,-1,-1,-1,-3,0
1512443598092188,-1,3,-3,-3,1,-1,-4,2
1512443598113204,-3,0,-2,-2,-4,-2,-3,-1
1512443598113204,-1,-5,-2,-1,-2,-1,-2,2
1512443598115205,2,-4,-2,0,-1,1,4,-2
1512443598115205,-3,2,1,-2,2,0,-2,1
1512443598127215,0,1,-2,-3,-3,0,-1,1
1512443598127215,-4,0,-2,-1,-3,-1,-2,4
1512443598136217,-2,0,0,0,-2,-5,-4,-1
1512443598136217,-1,-5,-1,0,-4,-3,-1,-1
1512443598151248,0,-4,0,-3,1,0,-3,0
1512443598151248,0,-2,-1,1,-3,-2,-1,0
1512443598152229,-3,-4,-1,-1,-2,-1,-1,1
1512443598152229,-1,-1,1,-2,-1,2,-1,-1
1512443598173256,-3,-1,0,-1,-2,-1,0,-1
1512443598173256,3,-3,-2,0,-2,1,-1,-2
1512443598175246,-2,-2,-1,-1,0,-1,-2,-2
1512443598175246,0,-1,-3,0,-1,-1,-3,-2
1512443598187263,0,1,-3,0,1,0,3,-2
1512443598187263,0,-1,0,0,-4,-1,-5,-2
1512443598196264,0,2,-1,0,-2,-1,-2,-3
1512443598196264,-2,0,-2,-2,-1,-2,-4,2
1512443598211283,-1,-2,0,-1,-1,-1,-1,-3
1512443598211283,0,-1,-2,-3,-3,-2,2,-1
1512443598212271,0,1,-3,-1,1,2,8,-1
1512443598212271,-2,0,-1,-2,2,-1,-2,-2
1512443598233285,-3,-3,1,-2,-1,0,-5,2
1512443598233285,-4,0,0,-3,0,0,-1,0
1512443598235289,-1,-1,1,0,-1,-1,-3,-4
1512443598235289,2,-2,-1,-2,2,0,1,0
1512443598247296,-1,-1,-2,2,-1,-1,-14,-1
1512443598247296,-1,-2,0,1,-1,1,7,1
1512443598256303,1,1,-2,-3,1,1,0,-1
1512443598256303,1,-2,-1,-2,0,2,-5,-5
1512443598271328,-4,-2,-2,-2,-2,-6,8,1
1512443598271328,-1,-2,-1,-2,1,0,2,-1
1512443598273317,0,2,0,0,-2,-2,-5,2
1512443598273317,1,0,-4,0,0,0,6,-4
1512443598293341,-1,-1,-1,-2,-3,-2,0,-4
1512443598293341,-1,-1,-2,-1,-4,-3,-2,1
1512443598299347,1,-1,1,-1,-4,-3,1,1
1512443598299347,0,0,-2,-4,0,0,0,-3
1512443598316344,-1,1,-1,1,-2,1,2,-2
1512443598316344,0,-3,-1,-1,-1,-4,0,-4
1512443598317346,-3,-8,-2,-1,2,1,-2,-1
1512443598317346,-1,1,-3,-1,0,-4,1,0
1512443598331354,-2,-1,-2,-1,0,1,-2,-2
1512443598331354,0,-2,1,0,-3,0,-3,-2
1512443598332355,2,-1,-3,-2,-4,0,4,-1
1512443598332355,-5,-1,-2,1,0,-1,1,4
1512443598353398,-1,-1,0,-3,-3,-1,0,-2
1512443598353398,-3,2,0,-1,-1,-1,-4,-2
1512443598355381,-2,-2,-1,0,0,-3,-3,0
1512443598355381,0,-1,0,-3,-2,-1,-3,-1
1512443598376386,-1,0,-2,0,0,-1,0,-1
1512443598376386,0,-5,-1,0,-2,-1,0,2
1512443598377390,1,2,0,-1,-1,-2,-6,-3
1512443598377390,-2,0,-3,-1,-2,-1,-6,0
1512443598390396,-2,-4,-1,-1,-2,0,0,-1
1512443598390396,-1,-3,-2,-1,-2,-5,1,-1
1512443598392398,-2,0,2,0,-1,-2,1,2
1512443598392398,1,-2,-1,-1,-4,-2,0,1
1512443598413430,1,-2,-1,-1,-1,0,1,-2
1512443598413430,-1,1,-3,-1,-1,0,-3,-1
1512443598415416,-2,-2,1,-1,-3,-2,-2,-4
1512443598415416,-3,-1,0,-3,1,-2,-2,-1
1512443598443447,0,5,0,-2,0,-2,-4,1
1512443598443447,-3,-2,-1,1,-5,1,5,-1
1512443598445437,-1,-4,-3,-3,-2,-2,4,0
1512443598445437,1,-2,2,-1,-1,-3,0,-2
1512443598450439,0,-4,-3,-1,-2,-2,-1,2
1512443598450439,0,-4,-1,0,0,-2,-1,-2
1512443598457483,-2,-1,2,1,-1,0,0,3
1512443598457483,1,0,-2,-2,1,1,0,0
1512443598473470,0,0,-1,0,0,-1,-1,-2
1512443598473470,0,0,0,-1,-1,-1,-2,-1
1512443598475471,0,-2,-2,-1,2,0,0,1
1512443598475471,-3,-1,-2,0,-3,-3,-3,1
1512443598495472,1,0,1,-3,0,-1,-2,-1
1512443598495472,0,1,-2,-3,-2,0,4,0
1512443598497473,-5,2,-2,1,-3,-4,-2,0
1512443598497473,-1,0,-2,-1,0,1,-1,1
1512443598510494,1,-3,-2,0,1,-1,-1,-2
1512443598510494,0,-2,0,-1,-1,0,8,-1
1512443598517487,2,2,0,-2,-2,-1,-1,-3
1512443598517487,-1,-2,-3,-2,2,0,-1,-3
1512443598533508,-3,0,0,1,-3,-4,-1,0
1512443598533508,-1,-4,2,-2,1,-2,-4,0
1512443598534520,1,-3,1,-2,-2,1,-1,-3
1512443598534520,0,1,0,-1,-2,-1,0,-3
1512443598555530,-2,0,-4,-1,0,1,-1,-1
1512443598555530,0,-1,1,0,-2,-2,-1,-1
1512443598557515,-1,-2,-3,0,-1,-2,-4,-3
1512443598557515,3,-1,-3,-2,2,2,6,-3
1512443598569547,-3,-1,0,-1,-1,-3,-3,0
1512443598569547,-5,-2,0,-2,-3,0,-2,-3
1512443598584535,-3,-1,-2,0,1,-1,-3,1
1512443598584535,-3,1,-1,-3,-3,0,-2,-4
1512443598593573,1,-1,-3,0,1,-1,-1,-1
1512443598593573,-2,-1,-2,2,1,1,3,-2
1512443598595542,3,-1,1,-2,0,-1,-3,2
1512443598595542,-3,-6,0,-1,-1,-3,-6,1
1512443598615574,-2,-3,-1,-1,-1,0,3,1
1512443598615574,1,0,0,1,-1,0,-8,-1
1512443598617558,-2,-1,-3,1,-2,-3,-1,-3
1512443598617558,1,0,-2,-2,-2,-1,-4,0
1512443598630585,0,-1,2,-2,-2,-3,-1,-1
1512443598630585,-2,-1,-3,-1,1,-2,-7,-2
1512443598637572,-2,-5,-1,-3,-4,3,7,-4
1512443598637572,1,3,-3,-1,0,-1,2,-2
1512443598653602,0,0,-1,-1,0,-2,-4,0
1512443598653602,-3,-2,0,-2,-2,0,1,1
1512443598654596,-1,1,-2,-1,-1,-1,-2,-1
1512443598654596,-3,0,0,-2,-1,-1,-3,0
1512443598675598,-6,-4,-1,1,-1,-1,-8,-3
1512443598675598,0,1,-2,-2,-2,-2,3,-1
1512443598677601,-2,-2,-1,0,1,2,-1,-2
1512443598677601,0,-4,-4,0,-2,-5,0,-2
1512443598690622,0,-2,-2,-3,-3,0,3,0
1512443598690622,-4,1,0,1,0,-2,-5,-4
1512443598697614,-1,-2,-1,-3,-1,0,-3,0
1512443598697614,1,-1,-3,-1,-2,-2,-1,-1
1512443598713639,-1,-2,0,-2,0,-1,0,-1
1512443598713639,1,-2,0,-1,-3,-3,-1,0
1512443598714627,1,1,1,1,-1,-3,0,1
1512443598714627,-4,-4,-2,-1,3,1,-2,-1
1512443598735640,-1,-1,-1,-1,0,-1,4,-3
1512443598735640,0,-1,-1,-3,-2,0,0,2
1512443598737642,0,-2,-1,0,-1,-1,-3,-1
1512443598737642,-2,-1,-2,0,-1,0,0,1
1512443598750651,1,0,-1,2,2,-1,-6,-2
1512443598750651,-2,-4,0,-2,-1,1,-10,-1
1512443598756655,-4,1,3,-1,-2,-6,-4,2
1512443598756655,1,-2,-4,-1,2,-1,-1,-2
1512443598773669,-2,-1,0,0,-2,0,-4,1
1512443598773669,2,-1,0,0,-1,-1,-2,-4
1512443598774691,0,-2,0,0,0,-1,-2,0
1512443598774691,-1,-1,-1,0,-2,2,-5,-3
1512443598795684,0,-1,-3,-2,-4,-2,-1,-2
1512443598795684,0,0,0,-1,0,-2,-2,1
1512443598797697,-1,-2,0,-2,-1,-1,-2,-3
1512443598797697,-1,0,0,0,-1,1,4,-2
1512443598809694,-2,-5,-1,-2,0,-1,1,-1
1512443598809694,-2,3,-1,0,-3,-2,1,2
1512443598818700,-2,-2,-3,-2,-1,2,1,-3
1512443598818700,-3,-2,0,-3,-2,-1,-3,-3
1512443598833710,-1,-3,1,-3,-1,-1,-1,1
1512443598833710,-3,-1,-3,1,0,0,11,-1
1512443598834711,0,1,0,0,0,-1,-2,-1
1512443598834711,-1,0,-1,-1,0,-3,1,2
1512443598855742,-2,0,-3,1,-3,-1,2,-3
1512443598855742,-1,-2,2,-1,0,-3,-1,0
1512443598857744,2,-4,-3,-2,-2,-1,2,0
1512443598857744,-2,0,-1,-2,-2,0,-2,-5
1512443598869752,0,1,0,0,-1,-2,-6,0
1512443598869752,-3,-1,2,-1,-2,-1,7,-2
1512443598878752,-1,0,-3,1,-2,-1,-7,-2
1512443598878752,0,0,-2,-1,1,0,-1,0
1512443598893764,-2,-3,-1,-4,-3,-1,-2,-2
1512443598893764,-1,-1,1,-1,-3,-1,0,2
1512443598894756,-5,-3,1,0,-1,-1,1,-1
1512443598894756,2,1,-4,-2,-1,-1,1,1
1512443598915769,-1,0,-1,-2,-3,-2,3,-3
1512443598915769,-2,-3,-1,0,-1,-2,-6,-1
1512443598917769,-2,-1,-3,-3,-2,0,3,-2
1512443598917769,1,-5,0,0,-3,-1,-5,0
1512443598929790,-2,1,1,0,-1,0,-1,3
1512443598929790,-4,-5,1,-2,-3,-1,-6,-2
1512443598938785,-1,-2,-1,-2,1,-1,-2,-1
1512443598938785,-3,-3,-1,-2,-3,-1,-4,1
1512443598953794,3,0,-2,-1,0,-2,4,-1
1512443598953794,-4,-3,1,0,-1,-1,0,-1
1512443598954805,0,1,0,-2,-1,-3,-5,-3
1512443598954805,0,-3,-1,-1,-1,-2,-1,1
1512443598975834,0,1,-1,-2,-1,-1,3,-2
1512443598975834,0,-1,1,2,-1,-2,-5,-1
1512443598977823,-2,0,-1,-1,0,-1,1,1
1512443598977823,1,2,-5,0,-2,-2,3,1
1512443598998826,-3,-2,0,1,0,3,-11,0
1512443598998826,-1,-1,0,-1,-1,-3,-5,0
1512443598999834,1,-1,-2,-1,0,1,-3,-3
1512443598999834,-1,0,-1,-2,1,1,1,0
1512443599013838,-1,-1,-1,-2,-1,-1,-4,-3
1512443599013838,1,0,-2,0,1,1,-4,-1
1512443599014839,-1,0,2,0,-2,-2,1,-1
1512443599014839,-3,1,2,1,-1,2,2,-2
1512443599035854,1,-5,-3,1,-2,-1,3,2
1512443599035854,0,1,-2,0,0,-2,1,-1
1512443599037856,-2,-2,-2,-3,1,-1,2,0
1512443599037856,0,-1,-5,-3,1,-3,-3,-2
1512443599049876,-2,-2,-1,-3,0,-3,2,2
1512443599049876,-1,0,-1,0,0,-3,0,0
1512443599058870,1,-1,-4,1,1,0,0,-1
1512443599058870,-4,-1,0,-2,-2,-1,-3,-3
1512443599072893,-5,-3,-1,-1,-2,-2,-2,-1
1512443599072893,0,-3,0,0,-1,1,-4,-4
1512443599079894,3,-1,-2,1,-2,-3,-1,-1
1512443599079894,0,3,-2,-1,3,2,-2,-2
1512443599095905,-4,3,1,-2,0,-2,4,-1
1512443599095905,-1,2,0,-2,0,-1,-2,0
1512443599097912,-3,-3,-2,-1,-2,-4,-2,-2
1512443599097912,-2,-2,-3,-3,-2,-1,0,-3
1512443599109906,-1,0,-3,0,-2,-1,-1,-1
1512443599109906,0,0,-2,-1,0,-2,-2,0
1512443599118911,-4,-3,1,-1,-1,1,0,-2
1512443599118911,2,1,-2,-1,1,-3,-1,-2
1512443599132921,-1,1,1,0,-2,-2,0,2
1512443599132921,1,0,-1,0,1,-1,5,0
1512443599134943,1,-1,-1,0,0,1,-2,0
1512443599134943,0,-3,-1,-2,-2,0,-4,1
1512443599155937,-1,-1,-1,-1,-2,-1,-3,-2
1512443599155937,-1,-2,0,-2,-1,-1,2,-1
1512443599157939,-2,-1,-2,-3,-1,-1,0,-2
1512443599157939,0,-1,-1,-2,2,-1,-4,-1
1512443599169952,0,-1,-1,-1,-1,-1,-4,-2
1512443599169952,-3,-5,-1,-2,-5,1,4,1
1512443599178954,0,1,-1,-2,0,0,0,1
1512443599178954,-2,-1,-1,-1,1,-3,1,-1
1512443599193966,-2,0,1,-1,-1,-1,-5,-1
1512443599193966,-2,0,0,-1,0,-1,1,-3
1512443599194965,-2,-1,-1,0,-2,0,1,0
1512443599194965,0,0,-2,-1,-4,-1,-2,0
1512443599215993,-1,-1,0,-2,-1,0,-1,0
1512443599215993,-2,-1,-2,-1,-3,-5,0,1
1512443599217019,0,1,0,1,0,-3,2,-2
1512443599217019,0,-1,-2,-2,0,-1,-1,-2
1512443599238018,0,0,-3,-1,0,-1,2,-5
1512443599238018,-1,-2,0,0,-3,0,-4,-3
1512443599240007,1,-2,-1,-2,-1,0,-5,1
1512443599240007,1,-2,-2,-1,-2,0,-1,0
1512443599253022,-1,0,-1,-2,-2,-2,1,-1
1512443599253022,0,-1,0,-1,0,-1,-2,-1
1512443599255008,-3,0,1,-1,-1,-1,-4,-1
1512443599255008,-2,-3,-2,-1,-1,0,3,1
1512443599276032,-2,-1,-1,0,-4,1,1,-1
1512443599276032,0,2,-1,1,-3,-3,-4,0
1512443599277025,1,-2,-1,-1,-3,-3,-1,-2
1512443599277025,-5,0,-2,-2,1,0,-1,-2
1512443599298054,-1,-2,-1,-3,1,-1,-1,-3
1512443599298054,-4,-1,-1,-1,-2,-2,2,1
1512443599300049,-1,-1,-2,1,-1,0,-1,-2
1512443599300049,-4,0,-2,-1,0,-2,-3,-2
1512443599313058,0,-2,0,-2,-1,-1,1,0
1512443599313058,0,1,-1,-1,-1,-1,2,-2
1512443599315051,0,-1,-1,-3,-2,-1,-2,-3
1512443599315051,0,-3,-1,1,-2,-2,-4,-1
1512443599336065,-2,0,-1,-1,-1,0,1,1
1512443599336065,-2,-1,-1,-1,0,0,-4,-1
1512443599337066,-4,-4,-1,-3,-3,0,0,-2
1512443599337066,1,2,0,-1,-3,-1,-1,0
1512443599358098,1,-4,-2,-1,-4,-1,-2,-1
1512443599358098,-2,0,0,-1,0,-2,-4,-1
1512443599360090,1,0,-4,0,-1,0,0,-2
1512443599360090,-2,0,0,-2,-1,0,6,0
1512443599373102,-3,-1,0,1,-2,0,0,-2
1512443599373102,-3,-1,-1,0,-3,-1,-1,1
1512443599379108,-1,2,-2,0,-2,-1,-1,1
1512443599379108,0,-1,-4,-2,1,0,0,0
1512443599396109,1,-1,-1,-1,0,-2,-2,1
1512443599396109,-3,1,1,-1,3,-1,5,-1
1512443599397109,0,-4,1,-2,0,-3,-5,0
1512443599397109,-1,-4,-4,0,-5,-1,-1,-3
1512443599418124,-1,-2,-1,0,1,-2,-1,0
1512443599418124,-1,1,-3,-2,-3,1,-2,-2
1512443599420125,0,0,-1,-1,0,0,-2,-1
1512443599420125,-2,-1,0,-2,1,-1,1,0
1512443599433134,-3,-3,0,-3,-3,-3,-5,-2
1512443599433134,-1,-5,0,-1,-1,0,-5,-1
1512443599439142,-1,4,-3,-1,1,-1,-2,-2
1512443599439142,-1,2,-1,0,0,-2,1,-4
1512443599456150,1,-3,1,-4,-3,1,-1,-3
1512443599456150,0,0,1,-1,-2,0,-1,-2
1512443599457151,1,0,-2,-2,-1,1,2,0
1512443599457151,-2,-2,-1,-1,0,-1,-3,-1
1512443599478167,-1,-2,-3,-1,1,0,-3,3
1512443599478167,-1,0,-1,0,-2,-2,1,-1
1512443599480168,-3,-5,-3,-2,-1,-2,-1,-3
1512443599480168,0,2,1,-1,-1,-1,-3,-1
1512443599493176,0,2,-1,-1,0,0,5,-1
1512443599493176,1,-2,-1,-2,1,-3,-7,0
1512443599499184,2,-1,-2,-3,-1,2,-1,-2
1512443599499184,0,-2,0,0,-1,1,-5,-4
1512443599516195,-2,0,-1,0,-3,-2,1,2
1512443599516195,-3,-1,1,-1,-1,-2,-1,-2
1512443599517193,-1,0,0,-2,-1,-4,0,-1
1512443599517193,-1,-3,-1,-3,-2,-1,3,-1
1512443599538208,-1,-1,1,1,-2,-4,-5,0
1512443599538208,2,0,-4,0,-2,1,4,0
1512443599540210,-3,0,0,0,1,-2,-5,1
1512443599540210,-3,-2,-1,-3,-4,1,-2,1
1512443599553218,-2,-2,-2,1,-1,-3,0,-2
1512443599553218,0,0,0,-2,-3,-1,0,-1
1512443599559223,-1,-2,-1,-1,1,-3,0,-2
1512443599559223,2,-2,0,-1,-2,-2,-4,-2
1512443599576245,-2,1,1,-2,-5,0,-1,-3
1512443599576245,-2,-1,-1,1,0,-1,-1,-3
1512443599577236,-2,0,-3,1,1,-1,2,1
1512443599577236,0,-3,-1,-1,-2,-3,-1,-3
1512443599598262,-2,-2,-3,-2,1,-1,-2,-2
1512443599598262,-1,0,1,1,-3,-2,0,1
1512443599600267,-2,0,0,0,1,1,-3,-3
1512443599600267,0,2,-3,0,-1,2,-2,2
1512443599612261,-4,-2,1,0,-1,0,1,4
1512443599612261,-1,-4,-3,-1,2,0,-4,0
1512443599619285,1,0,-2,-2,-2,-3,0,0
1512443599619285,1,1,-1,-2,1,0,-3,-3
1512443599636291,-1,-1,0,-2,-3,-1,1,-5
1512443599636291,-3,-1,0,-1,-3,0,-1,-2
1512443599637278,-1,1,-3,-1,-2,0,-1,-2
1512443599637278,-2,-4,-2,0,-2,-2,1,2
1512443599658310,-2,1,0,-1,1,0,-2,3
1512443599658310,0,-3,0,-2,-2,0,-1,-2
1512443599660311,0,-4,-2,-1,0,-1,2,-1
1512443599660311,-4,-2,0,-3,-4,-3,5,3
1512443599672315,1,-1,-3,-1,0,-1,-2,0
1512443599672315,-1,-1,-1,1,0,0,-2,1
1512443599688315,-3,-1,-1,0,-2,0,0,-3
1512443599688315,-3,-2,-1,-2,1,1,-3,-4
