timestamp,emg1,emg2,emg3,emg4,emg5,emg6,emg7,emg8
1517206625207536,-2,-2,-1,-1,0,-2,-1,0
1517206625207536,-1,-1,-1,-1,0,0,-1,-1
1517206625209536,0,-2,-2,0,-2,-1,0,0
1517206625209536,-1,0,-1,-3,-1,-1,1,-2
1517206625230052,0,-1,1,0,-2,-2,-1,-2
1517206625230052,-1,-2,-1,0,0,0,0,-1
1517206625232052,-3,-1,-3,-2,0,-1,-2,-2
1517206625232052,0,-1,-3,-2,-2,-2,-3,1
1517206625244563,0,0,-3,-1,-2,-1,-1,-3
1517206625244563,-3,-2,-1,-2,-3,-2,-3,0
1517206625259071,-1,1,0,-1,1,-2,0,-2
1517206625259071,-2,-2,0,-2,-1,-2,-1,1
1517206625267577,-1,-1,-1,0,0,1,-1,-1
1517206625267577,-1,-2,-1,0,0,-3,0,0
1517206625269078,-1,-3,-1,-2,-2,-2,-2,0
1517206625269078,-1,-1,-1,-1,-2,0,-1,-1
1517206625290095,-2,-1,-1,-1,0,-1,-2,0
1517206625290095,1,0,0,-1,-1,-2,-2,-2
1517206625291594,-2,0,-1,0,0,-1,-1,-1
1517206625291594,-1,-2,-2,-1,-1,0,0,-2
1517206625304103,-2,-1,0,-1,-2,-2,-2,-3
1517206625304103,-2,0,-1,-1,-1,0,-1,0
1517206625313110,0,-3,-1,-3,-2,-1,-1,-1
1517206625313110,-1,0,-1,0,1,-1,-2,0
1517206625327621,-1,-2,-2,-1,0,0,-1,-1
1517206625327621,-2,-1,-1,-2,-1,1,-2,-1
1517206625329123,-1,0,-2,-1,0,0,-1,-1
1517206625329123,-2,0,-1,-1,-1,-1,1,-1
1517206625350137,-1,-1,0,-2,-1,-3,0,-1
1517206625350137,0,0,-2,0,-1,-1,-2,1
1517206625351637,-2,-2,1,-1,-2,0,0,-1
1517206625351637,0,-1,-1,-1,-3,0,-1,-1
1517206625364683,-1,0,-1,-1,-1,0,-1,-1
1517206625364683,0,-2,0,-1,-1,-1,1,-1
1517206625371189,-1,-2,0,-1,1,-1,1,-1
1517206625371189,-1,-2,0,0,-1,-2,-1,-2
1517206625387738,-2,0,-1,-2,-3,-1,0,-2
1517206625387738,-1,0,0,-1,-3,-1,0,-1
1517206625389227,-1,0,0,-1,-1,-1,-1,1
1517206625389227,2,0,-1,0,-1,-1,0,-2
1517206625417720,-1,-1,-2,-2,0,-2,-1,-1
1517206625417720,-4,-1,0,0,1,-1,0,-1
1517206625419230,-1,-1,-2,1,-2,-2,0,-1
1517206625419230,-1,0,-1,-2,-1,-1,-3,-3
1517206625424261,-2,-1,-2,1,-1,-1,-2,0
1517206625424261,1,-1,-1,0,-3,-1,-2,-1
1517206625431252,-1,-1,-1,-1,-2,-1,-1,-2
1517206625431252,-1,-1,0,-1,-1,-2,0,-1
1517206625447741,-1,-1,0,-2,-1,-2,0,-1
1517206625447741,-1,-1,-2,-2,0,0,-1,-1
1517206625449245,-3,0,-1,-1,-1,-2,-1,-1
1517206625449245,-2,0,-1,-1,-2,-2,-2,0
1517206625470258,0,-1,-2,-1,-1,0,0,0
1517206625470258,0,-1,-2,1,-1,0,-1,-1
1517206625471774,1,0,-1,-1,0,1,0,-3
1517206625471774,-3,-1,0,-1,-1,-2,-1,-1
1517206625483784,-1,1,-2,-1,-2,1,0,-2
1517206625483784,-1,0,0,0,0,0,-2,-1
1517206625492773,0,0,-3,1,0,-3,-2,-1
1517206625492773,-1,-1,-2,0,0,-1,-2,0
1517206625507783,-1,-1,-2,-1,-2,-2,-1,-1
1517206625507783,0,-2,-1,-3,0,-2,0,-1
1517206625509300,-2,-3,-1,-4,-2,-1,-1,-1
1517206625509300,-3,-1,-1,0,0,-1,-1,-1
1517206625529300,-1,-3,-1,-1,-2,1,-2,0
1517206625529300,-1,-1,-1,-1,-2,-2,0,-2
1517206625537832,0,0,-1,-1,-2,0,0,-1
1517206625537832,0,-3,-1,-1,-2,-1,0,-1
1517206625543812,0,-2,0,-2,-1,-1,-1,1
1517206625543812,0,0,-2,-2,0,-1,-2,0
1517206625552816,-1,-3,0,0,-1,-1,-2,-2
1517206625552816,0,-2,-2,-1,-1,-1,-2,-2
1517206625567326,-1,-1,-1,1,0,-1,0,-2
1517206625567326,0,0,-2,0,-2,-2,0,-2
1517206625569327,-1,-1,0,-1,-1,-2,0,-1
1517206625569327,-1,0,-1,-2,0,-1,-2,-2
1517206625589845,-1,-1,0,-1,1,-1,-2,-2
1517206625589845,-1,-1,-2,0,-3,0,-1,-1
1517206625591859,-1,-2,-2,-3,-2,0,-2,0
1517206625591859,-1,-2,-1,-2,-1,-1,-1,0
1517206625603852,-1,-1,0,-3,0,-2,-1,-1
1517206625603852,-2,-2,-2,-1,-1,-1,-1,-1
1517206625612860,0,-1,-1,0,0,0,-1,-1
1517206625612860,-2,-1,-2,-1,-1,-1,0,-1
1517206625627425,-1,-2,-3,0,0,-2,0,0
1517206625627425,0,-1,0,-1,-1,-2,0,-1
1517206625629426,0,-2,-3,1,-2,-1,-2,0
1517206625629426,0,-2,0,0,-1,1,0,-1
1517206625649956,-2,-2,0,-1,-1,-1,0,0
1517206625649956,-1,-1,-2,0,-2,0,-1,-1
1517206625651943,-3,0,-2,-1,-3,-2,-1,0
1517206625651943,1,2,-1,-1,0,-2,-1,0
1517206625671985,1,-1,-2,-1,-2,-1,-2,-1
1517206625671985,-2,0,0,0,-1,-1,1,-1
1517206625672458,0,0,0,-1,0,-2,-1,-1
1517206625672458,-1,-4,-2,0,-3,-1,-1,-1
1517206625688512,-2,-2,0,0,0,0,1,0
1517206625688512,-2,-2,-1,-3,-2,-2,-1,1
1517206625688979,-2,-1,-1,-2,-1,0,-1,-1
1517206625688979,-1,0,0,-4,-2,-2,0,-1
1517206625709534,-1,-2,-2,-1,-2,-1,-1,-1
1517206625709534,0,0,-1,0,0,-2,0,-1
1517206625709986,-3,-2,-1,-1,0,-1,-1,-2
1517206625709986,0,-1,-2,-1,-1,-2,-1,-2
1517206625731999,-2,-3,0,-1,-1,0,-1,0
1517206625731999,1,0,-2,-2,0,-1,-3,-2
1517206625732499,-2,-2,-2,-1,-1,-2,-1,-1
1517206625732499,0,-2,0,-2,0,1,0,1
1517206625747014,0,-1,1,-1,-2,-2,0,-3
1517206625747014,-1,1,-1,-2,-1,-1,-1,-1
1517206625748011,1,-1,0,-1,0,1,0,0
1517206625748011,-1,-1,-2,0,0,-1,-2,-2
1517206625769599,0,-1,-1,0,0,0,0,-1
1517206625769599,-2,-2,0,-1,0,0,0,1
1517206625770087,-4,-1,-1,-2,-1,-2,-2,-4
1517206625770087,1,0,-2,0,-1,0,-1,1
1517206625792102,0,0,0,0,0,-2,0,-1
1517206625792102,-1,-2,-1,-2,-1,-1,0,0
1517206625792602,-1,-2,-1,1,0,-1,-1,-1
1517206625792602,-2,0,-1,-1,-1,0,1,-1
1517206625807115,-2,-1,-2,0,-2,-1,-1,-2
1517206625807115,-1,-2,-2,0,-1,-1,-2,-2
1517206625807614,0,-1,0,1,-1,0,1,0
1517206625807614,-2,-1,-1,-2,0,-2,-2,-2
1517206625829630,-1,1,0,-1,-2,-2,-1,1
1517206625829630,-3,-2,-2,-1,-1,0,-1,-2
1517206625830131,-2,1,-2,0,-2,-2,-1,-2
1517206625830131,0,-2,0,-2,-1,0,-2,-2
1517206625851644,0,1,-1,-2,-1,-2,-3,0
1517206625851644,0,1,0,-1,0,-1,-1,-1
1517206625852645,0,-5,-3,-1,-2,-1,-1,0
1517206625852645,-1,-1,-2,-1,0,-3,0,0
1517206625867194,-2,-2,0,0,0,-2,-1,-1
1517206625867194,0,0,-1,0,0,-1,-1,0
1517206625867694,1,0,0,-2,-2,-1,0,0
1517206625867694,-2,1,-1,-1,-1,0,-1,-2
1517206625889212,-3,0,-2,-1,1,0,-2,-2
1517206625889212,1,-2,-1,0,-1,-3,-1,0
1517206625897214,0,0,0,-1,-1,-1,0,0
1517206625897214,-3,-1,-1,1,-1,0,-3,-1
1517206625912226,1,0,-1,-2,-3,0,0,0
1517206625912226,-3,-1,-1,0,-1,0,-2,-1
1517206625912726,0,-2,0,-2,-1,-2,-2,-1
1517206625912726,-2,-1,-1,0,-2,0,-2,-1
1517206625926735,1,-2,-1,-1,-1,0,-1,-1
1517206625926735,0,-2,-2,0,-1,-1,0,-2
1517206625927737,-1,1,-1,-2,0,-2,-1,-1
1517206625927737,0,-2,-1,-1,0,-2,-2,0
1517206625949264,-3,-1,-1,0,0,0,0,-1
1517206625949264,-2,-1,-1,-2,-2,-1,0,-2
1517206625950252,-1,-2,-2,-1,-1,1,-2,-1
1517206625950252,-1,-1,-3,-2,-1,-1,-1,-2
1517206625971766,1,-2,-2,-3,0,1,-1,-1
1517206625971766,-1,-2,0,-2,-1,0,-1,-1
1517206625972767,-1,0,0,-2,-1,-3,-1,-1
1517206625972767,-1,-2,-1,-1,-3,-1,-1,-1
1517206625986792,-1,-1,-1,-1,0,-2,2,-1
1517206625986792,-2,-2,0,-2,-1,-2,-3,-2
1517206625987778,0,-1,-1,0,0,-2,-3,0
1517206625987778,-2,-1,-2,-1,0,-1,1,-2
1517206626009296,-2,0,-1,0,-1,-2,-2,-1
1517206626009296,1,-4,-4,-1,-2,0,-2,-1
1517206626010294,-1,-1,-2,0,-1,1,-2,-1
1517206626010294,-2,-3,-2,-2,-1,-1,-1,-1
1517206626032310,0,1,-1,-2,-2,-1,-3,-1
1517206626032310,-2,1,1,-2,-2,0,0,-3
1517206626032810,-1,-1,0,-1,-1,1,-2,-1
1517206626032810,0,0,-1,1,-1,0,-1,-2
1517206626047339,-4,-2,0,-1,-2,-1,-2,-1
1517206626047339,-1,1,-1,-2,0,-3,-3,0
1517206626047838,-1,-1,-2,-2,-1,-2,0,-1
1517206626047838,0,0,0,-1,-1,-1,0,-1
1517206626069353,2,-3,-2,-1,-1,-3,-1,-1
1517206626069353,-1,-2,0,1,-2,-2,0,-1
1517206626070355,-1,-4,-1,0,0,-1,1,-2
1517206626070355,-1,-1,0,-1,0,-2,-2,-1
1517206626091886,-1,-1,-1,-3,0,0,-1,0
1517206626091886,-2,-2,0,-3,-1,-2,-1,0
1517206626092887,0,1,0,-1,-1,-2,0,0
1517206626092887,1,-2,0,-3,0,0,-1,-1
1517206626106899,0,1,-4,0,0,-2,-4,0
1517206626106899,-3,-2,-2,0,-1,0,-1,-2
1517206626107897,-1,0,-2,2,-2,0,-2,0
1517206626107897,-2,-1,-2,-1,-2,-2,-1,-1
1517206626129407,-2,1,-1,-1,0,-2,-1,-1
1517206626129407,-1,0,-2,-1,0,1,-1,-1
1517206626130401,-1,-1,-1,-2,0,0,0,-1
1517206626130401,-1,-1,-1,-2,-1,-1,1,-1
1517206626151922,-1,-2,0,-1,-2,0,0,-1
1517206626151922,0,0,-1,0,-1,-2,0,0
1517206626152913,-1,-2,-2,-1,-2,-2,0,-1
1517206626152913,1,0,0,0,-2,-1,1,0
1517206626166923,-2,-3,-2,-1,-1,1,-1,-1
1517206626166923,-1,0,0,0,0,-1,0,-1
1517206626174431,-3,-1,0,-1,-1,-3,-1,-1
1517206626174431,0,-1,-1,-2,-1,-2,-2,0
1517206626189454,-1,-1,-1,-3,-1,0,0,-1
1517206626189454,0,-2,-3,0,-2,1,0,-1
1517206626189939,0,1,-1,-1,-2,1,-1,-3
1517206626189939,-1,-2,-1,0,1,0,0,-1
1517206626211954,-1,-1,-1,0,-1,-1,-1,-1
1517206626211954,0,-2,0,-1,0,0,1,0
1517206626212455,-2,-1,-1,-2,-1,-2,-1,-1
1517206626212455,-2,-1,-1,-1,0,-1,-2,-2
1517206626226968,0,-3,0,-1,0,-2,-1,-1
1517206626226968,-1,1,-1,-1,-2,-1,0,0
1517206626227465,-3,-2,-2,0,-1,0,-1,-2
1517206626227465,0,-1,-2,-2,-1,-1,-1,0
1517206626249491,1,-2,-1,-2,-2,-1,-2,-2
1517206626249491,-2,-1,0,-2,-1,-1,-1,-1
1517206626249982,1,-2,0,-1,-1,-1,-1,-3
1517206626249982,0,-2,0,0,-1,-1,-1,-1
1517206626272498,0,0,-1,-1,0,1,-2,-2
1517206626272498,-1,-1,-1,-4,0,0,0,-1
1517206626273498,-1,-1,-1,-1,0,0,-1,-1
1517206626273498,-2,0,-1,-1,1,-1,-1,-1
1517206626287021,-1,0,-1,-2,-1,-4,0,-2
1517206626287021,0,-2,-1,-1,-2,-2,-1,-1
1517206626287509,-2,1,1,0,-1,-1,0,0
1517206626287509,0,0,-2,-1,-1,-1,-1,-1
1517206626309532,-1,0,-2,-1,-1,-1,0,0
1517206626309532,0,-2,-1,-1,-2,0,-2,0
1517206626310024,-1,-1,0,-3,-1,-2,-2,0
1517206626310024,-2,-1,-1,-3,-2,-1,0,-1
1517206626332540,-1,-1,1,0,0,0,-1,0
1517206626332540,1,-2,-1,-2,0,-1,-2,0
1517206626333549,0,-2,-2,-2,0,0,0,-1
1517206626333549,-2,0,-1,0,-2,-2,-2,0
1517206626347050,-1,-1,-1,0,-1,-1,0,-1
1517206626347050,-2,-1,0,0,0,-2,-1,-2
1517206626347551,-1,0,-1,0,-1,-2,-1,-1
1517206626347551,1,-2,-1,-1,1,-2,-2,-2
1517206626370066,-2,-1,-2,-1,-2,0,-1,-2
1517206626370066,-1,-1,-1,-2,-2,-2,-1,-1
1517206626370568,-1,0,-2,-2,-1,-1,-1,-2
1517206626370568,-2,0,-2,1,-1,0,0,0
1517206626392585,0,-2,0,-1,-1,-1,-1,-2
1517206626392585,-3,-1,-1,1,0,0,-1,0
1517206626393082,0,-2,-2,-1,-2,-2,-1,0
1517206626393082,1,-1,-1,-1,-1,0,0,0
1517206626407132,-1,-1,-3,-3,0,-2,-2,-1
1517206626407132,-2,-1,-2,-1,-1,-2,-3,-2
1517206626407594,0,-1,-2,-1,-1,-3,-1,-1
1517206626407594,-1,-2,-1,-3,-1,-2,-1,-1
1517206626429609,-3,-1,-1,-1,0,-1,-1,-3
1517206626429609,-1,-1,0,-2,-2,-1,-2,0
1517206626430111,-2,0,-1,-1,0,1,-1,0
1517206626430111,-1,-1,-1,-2,-1,0,-2,-1
1517206626452624,-1,-1,-2,-2,-1,0,1,-3
1517206626452624,-3,-2,-3,-3,0,-1,1,-1
1517206626453134,-1,-1,0,-1,-2,-1,-3,-1
1517206626453134,-3,-1,0,-2,-2,-1,-1,0
1517206626466635,-1,-1,0,-1,-2,-3,0,-2
1517206626466635,1,-1,-1,2,0,0,1,0
1517206626467636,0,-2,-1,0,-1,-2,0,0
1517206626467636,-1,0,-2,0,-1,-2,-3,-1
1517206626489275,1,-1,0,-1,-2,-2,-1,2
1517206626489275,-1,-3,-1,0,-4,-1,-3,-1
1517206626490261,-1,-3,-1,-1,-1,0,-1,-1
1517206626490261,-1,-3,0,-1,0,0,0,-1
1517206626513245,-2,-1,0,-1,-1,1,-1,-2
1517206626513245,0,-1,-1,-3,0,-1,0,0
1517206626513745,-2,-1,-2,-2,-1,0,-1,-1
1517206626513745,0,-1,-2,-1,-1,-1,0,-1
1517206626526261,0,0,-1,1,-2,0,-3,0
1517206626526261,1,0,-1,-1,-3,0,0,-1
1517206626534759,-1,1,0,1,-1,-2,-1,-1
1517206626534759,-1,-1,-1,0,0,-1,-1,-1
1517206626549260,-1,-1,-3,-2,-2,0,0,0
1517206626549260,-1,-1,-1,-2,-2,-3,-1,-2
1517206626550267,-1,-1,-2,-1,0,-2,-2,-1
1517206626550267,-1,-1,0,-1,-3,-1,-2,2
1517206626572793,-1,-1,-1,0,1,-1,0,1
1517206626572793,-2,0,-2,-1,1,-2,-2,-1
1517206626573290,-1,-1,-1,-1,0,0,0,0
1517206626573290,-3,0,-2,0,-1,0,0,-2
1517206626586286,-3,-1,0,0,-1,-2,-2,-1
1517206626586286,0,-4,-2,-1,-1,-2,-1,0
1517206626594291,-2,-1,-2,-1,-1,-1,0,-2
1517206626594291,-1,-1,0,0,0,0,1,-1
1517206626609383,0,0,-1,-1,-1,-1,-2,0
1517206626609383,-2,-1,1,0,-3,-3,-1,-2
1517206626610383,0,-1,-1,-1,-3,1,-2,-1
1517206626610383,-1,-1,-2,-1,-1,-2,-2,-1
1517206626632381,-2,-3,0,0,0,-1,1,0
1517206626632381,0,-1,-1,0,0,1,1,-2
1517206626633382,0,-2,0,0,-1,-1,-1,-2
1517206626633382,-2,0,-2,-2,-2,0,1,-1
1517206626646911,-1,-1,-1,-1,-1,-1,0,-2
1517206626646911,0,-1,-3,1,-1,-1,-1,-1
1517206626654406,-2,-2,-2,-2,-1,-2,-1,-2
1517206626654406,-1,-1,0,-1,-2,-1,-3,-2
1517206626669407,-1,-1,-1,-1,-1,-2,-3,-1
1517206626669407,-1,-2,-1,-2,-1,-2,0,-1
1517206626670408,-2,0,0,0,1,0,0,0
1517206626670408,-2,0,-1,0,0,-1,-1,-1
1517206626692439,-2,0,-1,-3,-2,-2,-1,-1
1517206626692439,-2,-2,1,-1,-1,-1,-1,-2
1517206626693424,-1,-3,-1,-2,-2,0,0,0
1517206626693424,0,1,-1,-2,-2,-1,-1,0
1517206626706434,-3,-1,-1,-1,0,-2,-1,-1
1517206626706434,0,0,-3,-4,0,-1,-1,0
1517206626714942,0,1,-1,-1,-1,0,-1,-1
1517206626714942,-2,0,-3,-1,-2,0,-2,-1
1517206626729449,1,-2,-2,0,-2,-2,0,-1
1517206626729449,-1,-3,-1,-2,-1,-1,-1,-3
1517206626730450,0,-1,-1,-1,0,-1,-1,-1
1517206626730450,-1,-3,-1,0,-2,-2,-1,0
1517206626752515,-2,0,-1,0,-1,1,-1,-1
1517206626752515,-2,0,0,0,-1,0,-2,0
1517206626753517,1,-1,-1,-2,-1,0,-1,-2
1517206626753517,-1,0,0,-1,0,0,-1,-2
1517206626766024,0,-1,0,-1,-2,-1,-1,0
1517206626766024,0,-2,-2,-1,-4,-2,-1,-1
1517206626774531,-1,-1,0,-2,-1,-3,-1,1
1517206626774531,-1,-1,-1,-1,-1,-1,1,-1
1517206626789542,-2,-1,-2,-2,-1,1,-2,-2
1517206626789542,-2,2,0,1,0,-1,0,0
1517206626790042,-2,1,-2,-2,-2,-1,-1,-1
1517206626790042,0,-4,-2,-2,-2,0,-1,-1
1517206626812558,1,-1,0,-1,2,0,-1,0
1517206626812558,-1,-1,1,0,0,-1,0,-2
1517206626813561,-1,-1,-2,0,-1,-2,0,-2
1517206626813561,-1,-3,-1,0,-3,0,-1,-1
1517206626826067,1,-1,-2,0,-3,-1,0,1
1517206626826067,-3,1,-2,-2,-3,-1,-3,1
1517206626834575,0,-1,1,-1,-1,-2,-1,-2
1517206626834575,-1,-2,-1,-2,-1,-3,0,-2
1517206626849128,-2,0,-1,0,-1,-1,-1,-2
1517206626849128,-1,-3,-1,0,1,1,1,0
1517206626850117,-2,0,-1,0,-1,-1,0,0
1517206626850117,0,0,-2,-3,0,-1,-1,-1
1517206626872647,-2,-2,-1,0,-1,-1,-2,-1
1517206626872647,-1,-1,-2,-1,1,-1,1,0
1517206626873132,-1,-1,0,0,-2,1,-1,-1
1517206626873132,-3,-2,0,-1,0,-3,0,-1
1517206626895154,-3,-1,-1,-1,-2,-1,1,0
1517206626895154,1,1,-2,0,0,-1,0,-1
1517206626896148,0,-2,-1,0,-3,0,-2,0
1517206626896148,2,0,-1,-2,-1,-2,-2,0
1517206626909179,0,-1,-1,-2,-2,0,-2,0
1517206626909179,-1,-1,-1,-2,-2,-1,-1,-1
1517206626910181,0,-2,-1,-1,0,-1,-1,0
1517206626910181,-3,-1,-1,-1,0,0,0,-1
1517206626932176,0,-1,-1,-1,-2,-2,-1,-2
1517206626932176,-1,-2,-1,-1,-1,-2,-2,0
1517206626932675,-1,-2,-2,-2,0,0,1,0
1517206626932675,0,-2,-1,-2,-1,1,-1,1
1517206626955200,-1,-1,-2,-2,0,-2,0,-1
1517206626955200,-2,-3,0,0,-1,-2,0,-1
1517206626955690,-2,-3,-2,-1,1,-1,-1,-1
1517206626955690,-2,0,-1,1,-1,-1,-1,0
1517206626969213,0,0,-2,-1,-1,-1,-1,-1
1517206626969213,-1,0,-3,-1,-1,-1,-1,-1
1517206626970201,-1,1,-2,-1,-2,-1,-2,-2
1517206626970201,-1,-1,-2,1,-1,-1,-2,-2
1517206626992720,-1,0,0,-2,-1,-1,-1,-1
1517206626992720,0,0,0,-2,-1,0,-2,-1
1517206626993218,-1,0,-2,-2,0,-1,-1,0
1517206626993218,-1,-1,-2,-2,-2,-2,-1,-2
1517206627015234,-1,-1,-1,0,-1,0,-2,0
1517206627015234,-1,-2,-3,0,-2,-1,-1,-2
1517206627015734,-3,0,0,1,-2,-1,0,-1
1517206627015734,-2,-1,-1,-2,-1,-1,-1,0
1517206627029246,0,0,0,1,0,0,-2,-4
1517206627029246,-1,0,0,-1,-3,-1,-1,1
1517206627030245,0,-2,-1,-2,-1,-1,-2,-1
1517206627030245,0,1,-3,-2,-1,-1,0,-1
1517206627051759,0,-2,0,0,-1,-2,-2,-1
1517206627051759,-1,0,0,-1,-2,-2,-1,0
1517206627059265,0,1,-2,-2,-1,-4,0,-2
1517206627059265,-1,-2,0,-2,-2,-2,-3,0
1517206627075280,0,-1,-1,-1,1,0,0,0
1517206627075280,-1,-2,0,0,0,1,0,-1
1517206627075776,0,-3,-1,-1,-2,-1,-1,-1
1517206627075776,0,-2,-2,0,0,-1,-1,-1
1517206627089312,-1,-3,-3,-1,-1,-4,0,-1
1517206627089312,-2,-1,-1,-1,1,-3,0,-1
1517206627090310,-2,0,-1,-1,0,-2,0,-1
1517206627090310,-2,1,0,-1,-2,-1,-1,-1
1517206627112803,-1,0,1,0,-1,-1,-1,0
1517206627112803,1,1,-3,-2,0,-2,0,-1
1517206627113303,-1,-1,-1,-1,-1,1,-2,-1
1517206627113303,-2,-2,0,-1,-1,0,-1,1
1517206627134857,-1,0,-4,-2,0,0,-1,-2
1517206627134857,0,-2,-1,0,-2,1,-1,-2
1517206627135819,-1,-1,0,0,-1,-1,-1,0
1517206627135819,0,-1,-1,0,-1,-3,-2,1
1517206627149341,-1,-1,-2,-2,-2,-2,-1,0
1517206627149341,0,0,-1,-2,-1,-2,-3,-1
1517206627150341,-1,-1,0,-1,-2,-1,0,-1
1517206627150341,-1,0,-1,-1,-2,0,-2,-1
1517206627172383,-2,-2,-1,-2,0,0,0,0
1517206627172383,-3,0,-2,0,0,-2,-2,-3
1517206627173354,-2,-1,-2,1,-2,-1,-2,0
1517206627173354,-1,-1,0,-1,-1,-2,0,-1
1517206627194360,-1,-1,1,-1,-1,0,0,0
1517206627194360,-2,1,0,0,-1,-1,-1,-2
1517206627201878,1,1,-2,-2,-2,-1,0,-2
1517206627201878,0,0,-2,-1,-1,-1,-1,-2
1517206627209387,0,-2,-1,-1,-2,-2,-3,-2
1517206627209387,-1,-2,0,-1,0,0,-1,-1
1517206627210386,-3,-1,-1,0,1,-1,0,-1
1517206627210386,0,-2,-1,0,-1,0,1,-1
1517206627232888,1,0,-2,2,0,1,1,1
1517206627232888,-2,0,-2,0,-3,0,-1,0
1517206627233387,-1,-1,-1,1,-1,-2,-1,-1
1517206627233387,0,-1,-1,-3,-2,-2,0,-1
1517206627254915,-2,-2,-1,-1,0,-1,0,-1
1517206627254915,-1,-3,-1,-2,-1,-1,0,-2
1517206627255915,0,0,-2,-1,-1,0,-2,-1
1517206627255915,-2,-1,-1,-1,-1,0,-1,-2
1517206627269412,-2,-1,-2,0,-1,0,0,-1
1517206627269412,-1,0,0,-1,-1,1,0,-1
1517206627270423,-1,-1,0,-1,-2,-1,-1,0
1517206627270423,-1,-2,-2,0,-1,0,-2,0
1517206627292429,-2,0,-2,-2,-1,-1,-1,-1
1517206627292429,-1,0,-1,-2,-2,0,-2,0
1517206627293430,0,0,-2,-2,-1,1,0,0
1517206627293430,-1,-1,0,0,-1,0,-1,1
1517206627314944,-1,-2,0,-2,-3,0,-1,0
1517206627314944,0,-1,-1,-2,-1,-2,-2,-2
1517206627315959,-1,-1,-1,-2,-1,-2,-1,-3
1517206627315959,-1,0,-1,1,0,-2,0,0
1517206627329456,0,-2,-2,-2,-1,-2,-1,1
1517206627329456,-1,-3,0,0,1,0,-1,-1
1517206627329957,-1,-1,0,-2,-2,0,-2,-3
1517206627329957,0,-1,-1,-1,0,-1,-1,-2
1517206627352472,-1,-1,0,-1,-2,1,0,-1
1517206627352472,-2,-2,0,-1,0,-3,-1,-1
1517206627353472,0,-2,-1,0,0,0,-1,-2
1517206627353472,-1,-1,-2,-1,-1,-4,-1,-2
1517206627375005,-1,1,-1,0,-1,-3,-2,-1
1517206627375005,0,0,-2,0,0,-1,1,0
1517206627375998,-1,0,-1,-1,0,-1,-1,-1
1517206627375998,-1,-1,1,-2,-2,0,-1,-2
1517206627389020,0,-1,-1,-2,-1,-4,-1,-1
1517206627389020,-1,-1,-1,0,-2,-1,-2,-1
1517206627397004,-3,-4,-3,-1,-1,-3,0,-1
1517206627397004,-2,-1,-3,-2,-1,-1,-3,-1
1517206627412513,-1,-1,-2,-1,0,0,-1,-1
1517206627412513,-1,0,0,-2,-2,-1,0,0
1517206627413514,0,-1,-1,0,-1,-1,-1,-1
1517206627413514,-1,-1,0,-1,0,-1,1,0
1517206627435053,-3,-1,-2,0,-2,-1,-2,-2
1517206627435053,0,-1,0,-2,0,-3,-1,-2
1517206627436041,-1,-1,-2,-1,0,1,0,1
1517206627436041,0,-1,1,-1,-1,0,-1,-1
1517206627449542,0,-2,0,-1,-1,-2,-2,-1
1517206627449542,0,1,-1,-2,-1,0,0,0
1517206627457058,-1,-1,0,0,-1,-2,-2,-1
1517206627457058,-1,-2,-2,-1,-1,-1,-2,-1
1517206627480063,-1,-2,-1,-1,-1,0,-1,0
1517206627480063,-1,-1,-1,-1,-2,-2,-1,0
1517206627480563,-1,-3,-1,-1,0,-2,0,-2
1517206627480563,-1,-1,-3,0,-1,1,0,-1
1517206627495073,0,-1,-1,-1,0,0,0,-1
1517206627495073,1,-2,-3,0,-1,-3,-2,-1
1517206627495573,-1,2,0,-1,-2,-1,-2,1
1517206627495573,0,-2,-2,0,-2,1,-1,-1
1517206627508591,-1,-1,0,-2,-1,-1,-1,-1
1517206627508591,-1,-1,-2,-1,-1,-1,0,-1
1517206627516587,-1,0,-1,-1,-1,-1,-1,0
1517206627516587,-1,-1,0,-2,1,0,-1,1
1517206627532603,-1,-1,-1,1,0,-1,-2,-1
1517206627532603,-1,0,-1,0,-2,-1,-1,-2
1517206627533110,0,-3,-1,-2,-1,-1,-1,-2
1517206627533110,0,-2,-2,-1,-2,-2,-1,0
1517206627554627,-1,-1,-1,-1,1,-1,0,-2
1517206627554627,-1,-1,-2,-1,0,0,-1,1
1517206627562122,-1,1,-1,-1,-1,-1,0,-2
1517206627562122,-2,-1,-1,0,-2,-2,-1,-1
1517206627568637,0,-1,0,0,-1,0,-1,0
1517206627568637,-1,-1,0,-1,-2,0,-2,-2
1517206627577144,0,-2,-1,-1,-3,-1,0,0
1517206627577144,-2,-2,-2,1,0,-3,-2,-1
1517206627592645,-1,0,0,-2,-1,-1,-2,-1
1517206627592645,-2,0,-2,0,-1,-1,-1,-3
1517206627593141,-1,-1,-2,-1,-1,-2,-1,0
1517206627593141,-1,1,-2,-2,-2,-2,0,-1
1517206627615157,0,-2,-2,0,-1,-2,-2,-1
1517206627615157,-1,-1,1,-1,-2,1,-1,0
1517206627615658,-2,0,-1,-2,-1,-1,-1,-1
1517206627615658,-1,-1,-1,-1,-2,-1,2,-1
1517206627628669,-1,-2,0,1,1,0,1,1
1517206627628669,-1,-2,-2,0,-1,-1,-1,-1
1517206627636687,0,-1,-1,-1,-1,-1,-2,-2
1517206627636687,0,-1,-1,-2,-2,-1,0,-1
1517206627652684,-1,-1,-2,-1,-2,-2,-2,-2
1517206627652684,-2,-1,-3,0,0,0,-1,0
1517206627653185,-2,-1,-1,-1,-2,-1,-2,-1
1517206627653185,-1,0,-2,-1,-1,-1,-2,-2
1517206627675219,0,-2,-3,-1,-2,-1,-2,-2
1517206627675219,1,-1,1,0,-2,-3,-1,0
1517206627675700,-2,-1,0,-1,-2,-1,-1,1
1517206627675700,-2,-2,0,-1,0,-1,-1,0
1517206627688731,0,0,-2,-1,-2,-1,-2,-1
1517206627688731,-3,1,0,-3,0,-2,-1,-1
1517206627704220,-2,0,-1,-1,-1,0,-2,-1
1517206627704220,0,-1,0,0,-1,0,-1,-1
1517206627712728,-1,0,-3,0,0,-1,0,-1
1517206627712728,-1,-3,-2,-1,0,-1,0,0
1517206627713227,-1,-3,-1,-1,-1,1,1,-1
1517206627713227,-1,-1,0,0,-1,-2,-1,0
1517206627735271,-2,-3,-3,-2,-1,-1,0,0
1517206627735271,-3,-1,-1,-1,-1,0,1,-2
1517206627735743,-1,-1,-2,-1,-1,-1,-1,-2
1517206627735743,-1,0,-1,-2,-2,-1,-1,-3
1517206627748766,0,1,-1,0,0,-2,-1,-1
1517206627748766,0,-2,-2,-2,-1,-2,-2,-1
1517206627757783,0,0,-1,-1,-1,-3,-2,-2
1517206627757783,-1,0,0,-1,0,-1,0,-2
1517206627771771,-3,-2,-1,-1,-2,0,-1,0
1517206627771771,0,1,-3,-2,-1,-2,-1,0
1517206627778773,-3,-1,-2,0,-2,0,-1,0
1517206627778773,-1,-1,-1,-2,-2,-4,-2,-1
1517206627795286,-1,0,0,-2,0,-2,0,-4
1517206627795286,-1,-1,-1,0,0,0,-1,-3
1517206627796787,-1,0,-1,-1,-1,0,1,-1
1517206627796787,-2,0,-2,1,0,-2,-1,0
1517206627808794,0,-3,-2,-1,-1,1,-1,-1
1517206627808794,-1,-2,-2,-1,-1,-2,-1,0
1517206627817802,0,-2,0,0,-1,0,-1,-1
1517206627817802,-1,0,-2,-1,0,0,-2,0
1517206627831810,-1,-1,-1,-2,-3,-2,-1,-1
1517206627831810,-1,-2,-1,-3,1,-2,-1,0
1517206627840317,0,-1,-1,-2,-1,-1,1,0
1517206627840317,-1,-2,-1,-1,-1,0,-2,-2
1517206627854839,-2,-1,0,-1,-2,-1,-2,-1
1517206627854839,0,-1,0,-1,-2,0,0,-1
1517206627856838,-3,0,-3,-1,-2,-1,-1,0
1517206627856838,-1,0,-1,-2,-2,-1,-1,-2
1517206627877352,0,0,-1,-2,-1,-2,-1,0
1517206627877352,-1,-1,-1,0,0,1,-2,-1
1517206627879344,-1,-1,-1,-2,-2,-2,0,-1
1517206627879344,1,-1,0,-1,0,-1,1,-1
1517206627899859,-3,-1,-2,-1,-4,-1,-2,0
1517206627899859,-1,-1,-2,-1,-1,-1,0,0
1517206627901860,-2,-1,-1,-1,0,-1,-1,-1
1517206627901860,0,-2,-1,-2,-2,-1,-1,-1
1517206627915370,0,-2,-1,-1,-2,-2,0,-1
1517206627915370,-1,-2,-3,-1,-2,0,-2,-1
1517206627916881,-1,-2,-1,-2,-1,-2,-1,-2
1517206627916881,-1,-1,-3,0,-2,-1,0,-1
1517206627938386,-1,-2,-1,-1,0,-1,-1,-1
1517206627938386,0,-1,1,-1,0,0,0,-3
1517206627939902,1,-1,-1,-2,1,-1,-1,-2
1517206627939902,0,-1,-2,0,0,-1,-2,0
1517206627951895,0,-1,1,0,-1,-2,-1,-1
1517206627951895,-1,2,-1,-1,-1,-2,-2,-2
1517206627958900,-1,-1,-1,-1,-1,0,0,-2
1517206627958900,-3,-1,-1,-2,1,1,-1,-1
1517206627973936,-2,-1,-1,-1,0,-2,-1,-3
1517206627973936,-1,-1,-1,-1,-1,-1,-1,-2
1517206627982420,1,-2,-1,-2,-1,-1,0,0
1517206627982420,-1,-1,-1,-1,-2,-2,-1,-1
1517206627997928,0,0,-1,-1,1,1,1,0
1517206627997928,-1,-1,-2,-1,-2,-2,-3,0
1517206627999436,-2,-1,-2,-2,-1,-2,0,0
1517206627999436,0,-3,-2,-1,0,-1,-1,0
1517206628011938,-1,-1,-1,-2,-1,0,-2,-1
1517206628011938,0,-1,-1,-2,-1,0,-1,-2
1517206628018571,-1,-1,0,-2,-2,-2,-3,-1
1517206628018571,-2,0,-1,1,-1,-1,-1,-1
1517206628035605,-3,-2,0,0,2,0,0,0
1517206628035605,-1,-1,-1,-2,-1,0,-1,-1
1517206628037115,-1,-2,-1,-1,-1,-3,-1,-2
1517206628037115,0,0,-1,-3,0,-2,-1,-2
1517206628057654,-1,1,-1,-2,-2,-1,-3,-3
1517206628057654,-1,0,-1,1,1,0,1,0
1517206628059156,1,0,-1,-1,-1,-1,-1,-1
1517206628059156,-2,-2,-1,-1,0,0,1,-1
1517206628072157,-1,-2,-4,-1,-3,-4,-2,-2
1517206628072157,-2,-1,0,-2,-1,0,-1,1
1517206628078646,1,0,-1,0,-1,-1,-1,0
1517206628078646,-2,-3,-2,-1,-1,-1,0,0
1517206628095176,-1,-1,-1,-2,0,-1,-1,-1
1517206628095176,-2,-2,-2,0,-1,-3,-1,-1
1517206628096659,-1,1,-2,0,-2,-2,0,-2
1517206628096659,0,-1,-1,-1,-1,1,-1,-1
1517206628117683,0,-1,-1,-1,-2,-2,0,2
1517206628117683,-1,0,-1,-2,0,0,-1,-2
1517206628119174,-2,-2,-1,0,0,0,0,0
1517206628119174,-1,-1,0,-1,-1,-4,0,-1
1517206628132185,-3,-1,-1,0,-2,-2,-1,-2
1517206628132185,-1,0,-2,-1,-2,-1,-2,-2
1517206628146194,1,-1,-2,0,0,-1,-3,-1
1517206628146194,-1,-1,-2,-1,0,-1,0,1
1517206628155200,-1,-1,0,-2,-1,1,-1,0
1517206628155200,-1,-2,0,0,-1,-1,-1,-1
1517206628156701,-3,-2,0,-2,-1,-1,-1,-1
1517206628156701,1,-1,-1,-3,-1,-1,-2,0
1517206628177731,0,-2,-1,-2,-1,-1,0,0
1517206628177731,-1,-2,-2,-1,-1,-2,0,1
1517206628179221,-2,0,-2,-2,-2,0,0,-2
1517206628179221,-1,-1,0,0,0,1,-1,-1
1517206628191740,-2,-1,1,-1,1,-1,0,-1
1517206628191740,-1,0,-1,0,-2,-1,-1,-1
1517206628198736,-2,-2,-1,-1,0,0,-1,-1
1517206628198736,-2,0,-2,-1,-2,-3,-1,-1
1517206628215248,-2,-1,-2,-1,-1,-1,0,-1
1517206628215248,-1,0,-2,1,-1,-1,0,1
1517206628216756,0,-1,-1,-2,-1,2,1,-1
1517206628216756,-2,0,-2,-1,-1,-2,-2,-1
1517206628237765,0,-3,-2,-1,0,-2,-2,0
1517206628237765,-2,0,-1,-1,-2,-2,-3,-2
1517206628239260,0,-2,-2,-1,0,0,0,-1
1517206628239260,0,-2,-2,-2,-1,0,-1,0
1517206628251768,-1,0,-1,-1,-2,-2,0,0
1517206628251768,-1,1,-1,-2,0,-1,-2,0
1517206628258801,-1,-1,0,-2,-3,-3,-3,0
1517206628258801,0,-2,-1,1,-1,0,0,-3
1517206628275294,0,-1,-1,-1,0,-1,0,-1
1517206628275294,1,-1,0,0,-1,-1,0,-2
1517206628276786,0,-1,-2,0,-2,-1,-2,-2
1517206628276786,-1,-2,-1,1,-1,-1,-1,-4
1517206628297804,-3,-3,-2,-1,-2,-1,-1,-1
1517206628297804,-2,-1,-1,0,-2,0,-1,0
1517206628299311,-1,0,-1,-1,0,-3,-1,1
1517206628299311,0,-3,-2,-3,-2,-2,-1,0
1517206628311821,-1,-2,-1,2,0,0,-1,0
1517206628311821,-1,-2,1,-2,-1,0,1,-1
1517206628318815,0,-2,-2,-1,-1,-1,-2,-1
1517206628318815,-1,-1,0,0,-1,-2,0,-1
1517206628334827,-1,1,-3,-2,-2,-2,-1,-1
1517206628334827,-1,-2,-1,-2,-1,-1,-1,-1
1517206628336843,-2,-1,0,0,-1,-3,-1,0
1517206628336843,-2,0,-1,-2,0,-1,-1,-1
1517206628357374,-1,-2,-1,0,0,-1,-1,0
1517206628357374,0,-2,-1,0,-1,-1,0,0
1517206628359376,0,0,-2,0,0,1,0,-1
1517206628359376,0,-1,-1,0,0,0,0,0
1517206628371379,0,-1,1,1,-1,-1,-1,-2
1517206628371379,-2,0,-1,-3,-1,-1,-2,-2
1517206628380359,1,-2,-1,-1,-2,-1,1,0
1517206628380359,0,0,0,-1,-2,-3,-1,-1
1517206628395371,-1,0,0,-2,0,-1,-1,-1
1517206628395371,-1,0,1,0,1,-2,1,-1
1517206628396871,-2,-1,-2,-1,-2,-2,-1,-2
1517206628396871,-1,-1,-1,0,-2,-1,0,-1
1517206628417386,0,-1,-1,-2,-2,-1,0,-1
1517206628417386,-1,-3,-2,-2,-1,-1,-1,-2
1517206628419387,-2,-1,0,0,0,1,0,-1
1517206628419387,-2,-2,-1,0,0,-1,1,-1
1517206628431395,0,-2,0,0,-1,0,0,-2
1517206628431395,-1,-1,-2,0,-1,0,-2,0
1517206628440402,0,0,-1,-2,-2,-2,-1,1
1517206628440402,0,0,-1,-1,-1,-2,-2,1
1517206628454913,-2,1,-1,-1,-1,0,0,-2
1517206628454913,-2,0,0,-2,-1,-1,1,-2
1517206628456929,-1,-2,-1,0,-2,0,-3,-1
1517206628456929,1,-2,-1,-1,-1,-1,1,0
1517206628477451,-1,-2,-1,-3,1,-2,-1,0
1517206628477451,0,-1,-1,-1,-2,-1,-1,0
1517206628479432,-1,-2,0,-1,0,-1,-2,-2
1517206628479432,-2,-1,-1,-1,-3,-2,-2,-1
1517206628491450,0,-1,-1,-1,-1,-3,0,-2
1517206628491450,-1,-1,-1,0,1,-1,-1,-2
1517206628499945,-2,-3,0,-1,0,-1,-1,-1
1517206628499945,-2,-2,-1,-1,-1,0,-1,0
1517206628515459,0,-1,-2,-2,-1,-1,-1,0
1517206628515459,-2,-2,-2,-1,-2,-1,-2,-1
1517206628516458,0,1,-2,0,-1,-2,0,-2
1517206628516458,0,0,-1,-2,-1,-1,-3,-1
1517206628537474,-2,-2,-1,1,0,-1,-1,-1
1517206628537474,0,-1,-1,-2,0,-4,-3,-1
1517206628538972,-1,-1,-2,0,-1,0,0,-1
1517206628538972,-1,0,-1,-1,-3,-1,0,-3
1517206628550983,-1,0,-1,-1,-2,-1,-1,-2
1517206628550983,0,-1,-2,1,-2,-1,-1,-3
1517206628560505,0,-1,0,0,-1,-1,0,-1
1517206628560505,-2,0,-2,-1,0,-2,1,-1
1517206628575014,1,1,-2,-3,-2,-1,-2,0
1517206628575014,-2,-1,0,0,-1,-1,0,1
1517206628576508,-2,-2,-1,-1,0,-1,-2,-1
1517206628576508,-1,-2,-1,0,0,-1,0,0
1517206628598037,-1,-1,-3,-1,-2,-4,-1,-2
1517206628598037,-2,0,-1,-1,-1,0,0,0
1517206628599014,-3,-1,0,0,-2,-1,-2,-1
1517206628599014,-2,-1,0,0,-1,0,-2,0
1517206628611044,-1,-1,-3,-2,-2,-1,-2,-1
1517206628611044,-1,0,-1,-3,-1,-1,-1,-2
1517206628620029,-2,-1,-1,0,0,-1,-2,0
1517206628620029,-1,-2,-1,1,0,0,0,-2
1517206628635062,-3,-2,-1,-1,-1,-1,-1,0
1517206628635062,1,-1,-1,-1,-1,-1,-1,-1
1517206628636552,0,-1,-2,-2,-3,-2,0,-1
1517206628636552,-2,0,-2,-1,0,-1,-2,0
1517206628657121,0,-2,0,-1,-1,0,0,-2
1517206628657121,-1,0,-1,0,0,-2,-1,0
1517206628663618,-1,-2,-2,-1,-1,-1,-1,-2
1517206628663618,-2,-1,-2,-2,-2,0,-1,-2
1517206628671131,-1,-1,-2,-1,-2,-1,-1,-3
1517206628671131,-3,-2,-1,-2,-1,-2,-1,-1
1517206628680128,-1,0,-1,-1,0,0,-1,-1
1517206628680128,-1,-2,0,-1,-1,0,-1,0
1517206628695138,-2,-2,0,-1,0,-1,-1,0
1517206628695138,1,-1,-2,0,-2,0,-1,-1
1517206628696639,-1,-1,-1,-1,-2,-2,-1,0
1517206628696639,1,-2,0,0,-2,-1,-1,-1
1517206628717666,-1,-1,-1,0,-3,-1,-3,0
1517206628717666,-3,0,0,0,-1,0,-1,0
1517206628719153,-2,-1,-2,-2,0,1,-1,-1
1517206628719153,1,0,-2,-1,-1,-1,-1,-2
1517206628731161,0,0,2,-1,0,0,0,-2
1517206628731161,1,-2,0,-1,-1,-2,0,-1
1517206628740169,0,-2,-1,1,0,0,-1,0
1517206628740169,-1,-2,-1,-2,-2,-1,-1,-2
1517206628755179,-2,-1,-2,0,0,-2,-2,-2
1517206628755179,-1,1,-2,-1,0,1,-1,0
1517206628756680,-1,-1,0,-4,-2,-1,-1,0
1517206628756680,-1,-1,-1,-3,0,-1,0,0
1517206628777194,-1,-1,-1,-1,-2,-2,-1,0
1517206628777194,0,-3,-1,0,0,1,0,0
1517206628779197,0,0,1,0,-1,-2,-1,-2
1517206628779197,-1,-1,-2,-2,-1,0,0,0
1517206628800214,0,0,-1,-2,-2,0,0,0
1517206628800214,-1,-2,-2,-1,-1,-2,-3,-2
1517206628801712,-2,-1,-1,-1,-2,-2,-1,-1
1517206628801712,0,0,-1,-1,1,-1,0,0
1517206628815222,-1,1,-2,2,-1,1,-1,0
1517206628815222,0,-3,-2,-1,-1,-2,-1,0
1517206628816729,-2,-1,-3,-2,0,0,0,0
1517206628816729,-1,0,-1,-1,-2,-1,-2,-1
1517206628837254,-2,-3,-1,-3,-1,-2,0,0
1517206628837254,0,0,-2,0,-2,-1,0,-1
1517206628839254,0,-1,-1,-1,-1,0,-1,0
1517206628839254,0,-1,-1,0,-2,0,-2,-1
1517206628867771,-1,-1,0,-2,-1,-1,-3,-1
1517206628867771,-2,-2,0,-1,-4,-1,0,-1
1517206628869260,0,0,-1,-2,0,-2,-1,-1
1517206628869260,-2,-2,-1,-1,-1,0,-1,-1
1517206628875276,-1,0,0,-2,-1,1,-1,-1
1517206628875276,-2,-1,-1,-2,-1,-1,-1,-1
1517206628876789,-1,-2,-1,-2,-1,-1,-2,0
1517206628876789,-1,-1,-2,-2,-1,-1,-3,-2
1517206628897329,-1,-1,-1,-1,0,0,0,-1
1517206628897329,-1,0,0,-2,0,0,-1,-1
1517206628899330,-1,-1,-1,-1,-1,-2,0,0
1517206628899330,-1,-1,1,-1,-1,-2,-1,-3
1517206628919871,-1,-2,-2,-1,-2,-1,0,0
1517206628919871,1,0,-1,-2,-1,-2,-1,-2
1517206628921873,0,-1,-1,-2,-2,-2,-2,0
1517206628921873,0,-2,-1,-1,-1,-1,-1,1
1517206628934355,-1,-2,-2,-2,0,0,-1,-1
1517206628934355,-2,-1,0,0,0,-1,-1,0
1517206628941360,0,-1,-1,-1,-2,-2,-1,-2
1517206628941360,-1,-1,0,-1,-1,-1,1,-2
1517206628957428,-2,-1,-2,-1,-1,-3,0,-2
1517206628957428,-1,0,-1,-1,-1,0,-2,-2
1517206628959394,-2,-1,0,0,-1,-1,0,-3
1517206628959394,-1,-2,0,-1,-1,1,0,-1
1517206628979887,-1,0,0,-2,-1,-2,-2,0
1517206628979887,-1,-2,-2,-1,-2,-1,-2,-2
1517206628981887,-1,0,-1,-1,-1,-2,-1,0
1517206628981887,-1,0,-2,-1,-1,-2,0,0
1517206628993898,0,-2,-2,0,-3,-4,-2,-2
1517206628993898,0,-2,-3,-1,-2,-1,-1,0
1517206629002404,0,-1,-1,0,-1,0,0,1
1517206629002404,-1,-2,-1,-1,-1,-1,-1,0
1517206629017413,-2,-2,-2,-2,0,-1,-2,-1
1517206629017413,-1,0,0,-1,-1,-2,0,-1
1517206629018914,-1,-2,-2,-2,-1,0,-1,-1
1517206629018914,-1,-2,0,-1,-1,0,1,0
1517206629039944,0,-2,0,1,-1,-1,-2,-1
1517206629039944,-3,-1,-3,-2,-1,-3,-2,-1
1517206629042431,-1,-1,1,0,-2,0,0,-4
1517206629042431,1,-1,-1,-2,-1,0,-2,-3
1517206629054439,0,0,-3,-3,-1,0,-2,1
1517206629054439,-3,0,1,1,0,-1,1,0
1517206629060944,-1,1,-1,-1,-1,-1,-3,1
1517206629060944,-3,-1,-2,-1,-2,-4,-1,0
1517206629077455,-1,-2,-2,-1,0,0,0,-2
1517206629077455,0,-2,-1,-2,0,-1,0,-1
1517206629078957,-3,-1,0,0,-1,-2,0,-2
1517206629078957,0,-1,-3,-2,-1,-1,-1,-2
1517206629099971,-1,-1,-2,-1,-2,-1,0,0
1517206629099971,-2,-1,-2,-1,-1,-1,-2,0
1517206629101482,-1,-2,-1,-1,-1,1,0,-1
1517206629101482,-2,0,-1,-2,-1,-1,-1,0
1517206629114484,-2,-1,0,-2,-1,-1,0,-2
1517206629114484,0,-1,-1,-1,-2,-1,-1,-1
1517206629120996,-2,1,1,-2,-2,-1,-2,-2
1517206629120996,-1,-1,0,0,1,-1,-1,0
1517206629136500,-1,0,-2,0,-2,0,-1,-1
1517206629136500,0,-2,-1,0,-1,0,-1,0
1517206629145003,-1,-1,-3,0,-1,-2,1,-2
1517206629145003,-4,-2,-1,-1,-1,1,-1,-1
1517206629160017,-1,0,-1,-2,1,1,-1,-1
1517206629160017,-2,-2,-1,-1,-1,-1,-3,0
1517206629161515,0,-1,-1,-2,1,0,-2,0
1517206629161515,-1,-1,0,-2,-1,-3,-3,-1
1517206629174534,-2,-1,0,0,-1,-1,0,0
1517206629174534,-1,-1,-1,0,-4,-3,0,-2
1517206629181049,1,-1,-2,-1,1,-1,1,-1
1517206629181049,-1,-1,-2,0,-1,-2,-1,1
1517206629197541,-1,-1,0,-2,0,-4,-1,0
1517206629197541,-2,-1,0,-2,-1,-1,-2,-3
1517206629199042,-2,-1,-3,-1,-2,-1,-1,0
1517206629199042,0,-1,-2,-1,0,-1,-2,-2
1517206629220056,-3,-2,-1,-1,-2,0,-1,-1
1517206629220056,-1,-2,-1,0,1,0,0,0
1517206629221558,-1,-2,-1,-2,-2,-1,-2,-2
1517206629221558,0,-1,-2,-1,-2,-1,-2,-1
1517206629234068,-1,-1,-1,-1,-1,0,-2,0
1517206629234068,-1,-1,0,-2,0,-1,-1,-1
1517206629241087,-1,-2,-1,0,0,-2,-1,0
1517206629241087,-1,-2,0,0,-1,0,-1,-1
1517206629257637,1,1,-3,-1,-2,-1,-2,-2
1517206629257637,-2,-1,-1,-3,-2,-1,-1,0
1517206629259138,-3,-3,-2,-1,0,-1,-2,0
1517206629259138,-2,-1,-2,-1,-2,-2,0,-2
1517206629280134,-1,-2,-1,0,0,-2,0,-2
1517206629280134,-2,0,0,0,-1,1,-1,-2
1517206629281655,0,-1,0,-1,-2,-1,-1,-1
1517206629281655,-1,0,-2,-1,-4,0,-2,0
1517206629293663,-1,-2,-1,-3,-1,-1,0,-1
1517206629293663,-1,-1,-2,-1,0,0,-2,-1
1517206629302649,0,-1,0,2,-1,1,-1,-1
1517206629302649,-2,-1,1,-1,-1,-1,1,-1
1517206629317661,-3,0,-2,0,-2,-2,0,0
1517206629317661,-2,0,-2,-2,-2,-1,-2,1
1517206629319160,-2,-1,0,-4,-2,-2,-1,-1
1517206629319160,-1,0,1,0,-1,0,-2,-2
1517206629340175,0,0,-2,-1,0,-1,-1,-1
1517206629340175,0,-3,-1,0,-2,-3,-2,-1
1517206629342692,0,-2,-2,-2,-3,-1,0,-1
1517206629342692,-2,0,-2,-1,0,-1,0,0
1517206629353697,-2,-3,0,-1,-2,0,-2,-2
1517206629353697,-3,1,0,0,0,-1,-2,0
1517206629362709,-2,-1,-2,-1,0,-2,-1,-1
1517206629362709,0,-2,0,-1,-1,0,-1,-2
1517206629377711,1,1,0,0,0,-1,0,-2
1517206629377711,0,1,-2,-4,-1,-1,0,-2
1517206629379202,-1,0,-1,-1,-1,-1,-1,-2
1517206629379202,-1,0,-2,0,-3,-3,-2,0
1517206629400230,0,-2,-1,-1,-3,-1,-2,0
1517206629400230,-1,0,0,2,0,0,0,0
1517206629401719,-2,-1,-2,-1,-1,-1,-1,0
1517206629401719,-1,-1,-1,0,-1,-1,-1,0
1517206629413728,0,-1,1,-1,-2,-2,-3,0
1517206629413728,-2,-3,-2,-3,-3,-1,0,-2
1517206629422738,-2,0,0,-1,0,-1,-2,-2
1517206629422738,-2,-1,0,-3,0,1,1,-2
1517206629437747,-1,1,-2,1,2,-1,-1,-1
1517206629437747,-1,2,-1,-2,0,0,1,-1
1517206629439261,-1,-2,0,-1,-2,1,-1,1
1517206629439261,2,-1,-1,0,-1,-3,-1,-1
1517206629459782,-1,0,0,-2,0,-2,-2,-2
1517206629459782,0,-2,-2,-1,-1,-2,-1,-2
1517206629461761,0,-1,-3,0,-2,-1,0,-1
1517206629461761,0,1,0,-2,0,0,-1,-1
1517206629473773,-2,-2,-1,-1,-2,-1,0,-1
1517206629473773,-2,-1,-1,1,-1,0,-1,0
1517206629482776,-2,0,-2,-1,-2,-4,0,0
1517206629482776,-1,-2,-3,-1,-2,-1,-1,0
1517206629497788,-2,-1,-2,-1,0,-1,0,-1
1517206629497788,-1,-3,0,0,-1,0,-2,-1
1517206629499289,1,-2,-2,0,0,1,-1,0
1517206629499289,-1,-2,-1,-2,-1,-1,-1,-1
1517206629519803,-2,-2,-1,-1,-2,-2,-1,-1
1517206629519803,0,0,-1,-1,-2,-2,-1,0
1517206629521805,-1,-2,0,-1,-2,-1,-1,0
1517206629521805,-2,0,-1,-1,-1,-1,-1,-1
1517206629533812,-1,0,-1,-1,0,-1,-1,-1
1517206629533812,0,-1,-1,-2,-1,-1,0,0
1517206629543319,-1,1,-2,0,-1,-2,-2,-1
1517206629543319,-2,0,-1,-1,0,-2,1,0
1517206629557829,-1,-1,-2,1,0,-1,-3,0
1517206629557829,-2,-3,-3,-1,-1,-2,-1,-1
1517206629559345,-1,0,-1,-2,-1,-2,-1,-2
1517206629559345,-2,-1,-1,-1,-2,0,-2,-2
1517206629579845,0,-2,0,-3,-1,0,0,-1
1517206629579845,1,-1,-1,-1,-1,0,0,-1
1517206629581345,-1,-1,-1,-2,-1,-1,-2,-1
1517206629581345,-2,-2,0,-2,-2,-2,0,-1
1517206629593858,-3,-2,-1,-2,-1,0,-1,0
1517206629593858,-1,-3,-1,-1,-1,-1,0,0
1517206629602871,-3,-1,-2,-2,-1,0,-2,0
1517206629602871,-1,1,0,0,0,-1,0,-1
1517206629617378,-1,-1,0,-2,0,-2,-1,-2
1517206629617378,-2,-2,-1,-2,-2,-3,-1,-1
1517206629619373,-2,-3,1,1,-1,-1,0,-2
1517206629619373,0,-2,-2,0,2,0,-1,-1
1517206629639890,-1,0,-3,-1,-2,-1,-2,-1
1517206629639890,-2,0,-2,-1,-2,-2,-2,-1
1517206629642389,-1,0,-1,-1,-2,-2,0,-1
1517206629642389,-1,-1,-1,1,1,0,-1,0
1517206629653407,-1,-1,0,0,0,0,-1,-1
1517206629653407,-2,-1,0,-2,-1,-2,-3,-1
1517206629662906,-1,0,-1,-1,-1,-1,-2,0
1517206629662906,-1,-1,-1,0,-1,-1,-2,0
1517206629677417,-2,-1,-2,-1,-1,-3,-1,-1
1517206629677417,1,0,1,-1,1,0,-2,-1
1517206629679417,-1,0,0,0,0,-1,-1,-1
1517206629679417,0,-1,-3,-4,-2,-2,-1,-1
1517206629699929,-1,0,-1,-1,-1,-1,0,-1
1517206629699929,-2,-2,-1,-1,0,-1,0,-1
1517206629701431,0,-3,-1,-3,-1,0,-2,0
1517206629701431,-1,-1,0,-1,-2,-1,-2,0
1517206629722469,1,-1,-2,-1,-1,-1,-2,-1
1517206629722469,-1,-2,-1,-1,-1,-2,-1,-1
1517206629723973,0,-1,-2,0,-2,-1,0,-1
1517206629723973,-1,-2,0,-1,-2,-3,1,0
1517206629737456,-2,1,-3,-2,-2,-2,0,1
1517206629737456,-1,-1,-1,-1,0,-1,-1,-1
1517206629738957,-1,-2,-2,0,-1,-1,-1,-2
1517206629738957,-1,-2,-3,-2,-1,-1,-2,-2
1517206629759994,0,-1,-1,1,-2,-2,1,-3
1517206629759994,-1,0,-1,-1,0,-1,-1,-1
1517206629761494,-2,0,-1,-2,0,-1,-1,-1
1517206629761494,-2,-1,-1,-2,-2,-2,-1,-2
1517206629782503,-2,0,-1,-1,0,0,-1,0
1517206629782503,-1,0,-1,-1,-1,-1,-1,-2
1517206629783989,-1,0,-1,1,0,-2,-1,-1
1517206629783989,0,-2,-1,0,0,-2,0,1
1517206629797498,0,0,1,-2,-3,-1,-2,-1
1517206629797498,-1,-2,-2,1,-1,-2,0,-1
1517206629799001,0,-2,-1,-1,-2,-1,-1,-2
1517206629799001,-2,0,-2,0,-1,0,0,0
1517206629820036,-1,-3,-4,0,-2,-1,-1,-1
1517206629820036,0,-1,-2,1,-2,-2,1,-2
1517206629821516,-2,-1,-2,-2,-2,-3,0,-4
1517206629821516,-2,-1,-1,0,-1,-2,-2,-2
1517206629843071,-1,-1,-2,-1,0,-1,-1,-1
1517206629843071,-3,-1,-1,-1,-1,-3,-1,0
1517206629845087,-1,-3,-1,0,-1,-3,0,-1
1517206629845087,0,-1,1,0,-2,-3,-3,-1
1517206629857081,-1,-2,-2,-1,-3,-3,-1,-2
1517206629857081,-2,-1,-4,-1,1,-1,0,-2
1517206629863586,-1,-1,-3,0,1,2,0,0
1517206629863586,0,-2,-1,-2,-1,0,-1,0
1517206629880100,1,-2,0,-2,0,-1,0,-1
1517206629880100,1,0,-1,-2,-3,1,-2,-1
1517206629881616,-1,-2,-2,-1,-1,-1,-1,-1
1517206629881616,0,-2,-1,-1,-1,-1,0,-2
1517206629902613,-2,1,0,-3,-1,0,-1,0
1517206629902613,0,-3,-1,-2,-2,-2,-1,0
1517206629904123,-1,1,-1,0,0,-2,-1,-1
1517206629904123,0,-2,-1,-1,-1,0,-2,-1
1517206629917123,-2,-2,-3,-2,-3,-1,-1,-1
1517206629917123,-1,-2,0,-2,0,-1,0,0
1517206629923981,-1,-1,-3,-2,-2,-2,0,1
1517206629923981,-1,0,-1,-1,-1,-1,-1,-1
1517206629940059,-1,0,1,-1,-1,-1,-2,-1
1517206629940059,-2,-1,-1,0,-1,-1,-1,-1
1517206629942553,1,-1,0,-3,-1,-1,-2,0
1517206629942553,-2,-1,-1,0,1,1,-1,0
1517206629962551,-2,-1,0,-1,-1,-2,-2,0
1517206629962551,-1,-1,0,-1,-1,0,-2,-1
1517206629964053,-1,0,-1,-1,-1,-2,0,0
1517206629964053,-1,-1,-2,-1,-1,-3,-2,0
1517206629977062,-2,-1,-1,1,-1,0,-2,-1
1517206629977062,0,-1,-2,1,-3,1,0,-1
1517206629983568,-2,-2,-2,-1,-2,-1,-1,1
1517206629983568,0,0,-1,-1,0,-1,-2,-1
1517206630000079,-2,-1,-2,2,0,2,0,-2
1517206630000079,-2,-2,-1,-2,-1,-1,-1,0
1517206630001592,-1,-2,0,-1,0,0,-2,-1
1517206630001592,-1,0,-1,-2,-2,-3,0,-2
1517206630022608,-1,-2,-1,-3,-1,-3,0,-2
1517206630022608,-1,0,-1,-2,-1,1,-2,-2
1517206630024096,-2,-1,-1,-1,-2,0,0,0
1517206630024096,-2,-1,-2,0,1,-2,-1,-1
1517206630036619,-1,-1,-1,0,-1,-3,-1,-1
1517206630036619,0,-1,-1,-2,-1,1,-1,-1
1517206630043609,-1,-2,0,0,-1,1,-1,-1
1517206630043609,-2,-2,-2,-1,-1,0,-1,0
1517206630060171,-1,1,-1,0,-1,-1,0,-1
1517206630060171,-2,-2,0,0,0,0,-2,1
1517206630061626,1,0,0,-1,-2,-1,-2,-2
1517206630061626,0,0,-2,0,0,0,0,-2
1517206630083138,-1,-2,0,0,-1,-1,-2,-1
1517206630083138,1,-1,-1,-1,-2,-2,-2,-2
1517206630088641,0,-1,0,0,0,-3,-2,-2
1517206630088641,-3,0,-2,-1,-2,0,0,0
1517206630096647,-1,-3,-1,-3,0,0,-1,0
1517206630096647,-1,-1,0,-2,-1,-3,-1,-2
1517206630103651,-1,0,-2,1,0,-1,-1,-2
1517206630103651,-1,-2,-2,-2,-1,-3,0,-3
1517206630120163,-1,-1,-2,0,0,1,1,0
1517206630120163,-1,0,-2,-1,-1,-3,-2,-1
1517206630121686,-2,-2,-2,-3,-2,-1,-1,-1
1517206630121686,0,0,1,-1,-2,-1,-1,-2
1517206630142679,0,-1,0,-3,-1,-2,-1,0
1517206630142679,-1,-2,0,0,1,1,0,1
1517206630144180,0,-1,1,-1,-2,-1,-2,0
1517206630144180,-1,-2,-1,-1,-2,0,-2,0
1517206630156715,-1,-2,-1,-2,-2,-1,1,-1
1517206630156715,-1,-1,-3,0,-2,-1,0,0
1517206630163694,-1,1,-2,-2,-1,0,0,-2
1517206630163694,0,-2,-2,-1,-1,0,0,-1
1517206630180205,-3,-1,-2,-2,0,0,-1,-2
1517206630180205,-1,0,-2,-2,-1,-2,-1,-2
1517206630181708,-3,-1,-1,-2,0,-1,0,-1
1517206630181708,-2,0,-1,0,-1,1,-2,-1
1517206630202233,-1,-1,-3,-1,0,-2,-1,0
1517206630202233,-1,-1,-1,-2,0,-1,-1,-1
1517206630204233,-1,-2,-1,0,-1,0,-1,-3
1517206630204233,0,-4,0,0,-2,-2,0,-1
1517206630216231,-1,0,-2,0,-1,-1,-1,0
1517206630216231,-3,-1,-1,-2,-2,-1,-2,-1
1517206630225254,1,0,-1,0,1,0,0,0
1517206630225254,0,-1,0,0,-1,-1,0,-2
1517206630239751,-1,-2,-1,-2,-1,0,-3,-1
1517206630239751,-3,0,0,0,0,-3,-1,-1
1517206630242749,-1,-1,-1,-1,-2,1,0,-1
1517206630242749,-1,-2,-1,-1,-1,-1,-2,0
1517206630262278,-2,-1,-1,0,-1,-2,0,-1
1517206630262278,0,-2,-1,-1,-1,0,1,0
1517206630264265,-4,-2,0,-2,1,-1,-1,0
1517206630264265,0,-1,0,-1,-1,-2,-2,-1
1517206630276286,-2,-1,0,-1,-2,0,-3,0
1517206630276286,-1,-1,0,-1,-2,-1,-2,0
1517206630284779,-3,-1,-2,-1,1,-1,-1,-1
1517206630284779,-1,-3,-1,-2,-2,-2,-1,0
1517206630300291,0,-1,0,-2,-1,-1,-1,-3
1517206630300291,-2,-1,-2,0,-2,-3,-2,-1
1517206630301791,-1,-1,-1,-3,-3,-3,-1,-1
1517206630301791,-2,0,0,-1,-1,-1,-1,-1
1517206630322333,-1,-1,-3,0,-1,-1,-1,-1
1517206630322333,0,-2,-1,-1,-1,3,0,-1
1517206630323807,0,-2,-2,-1,-2,-1,-3,-2
1517206630323807,-1,-2,-2,0,0,0,-1,0
1517206630336319,-1,-2,0,-1,0,-1,-1,-2
1517206630336319,0,-2,-1,-2,-1,-2,-1,-2
1517206630345322,0,-1,-1,-1,-1,1,1,0
1517206630345322,-1,-1,0,-1,-1,0,0,-1
1517206630367366,-1,1,-2,-2,0,0,-1,-1
1517206630367366,0,-1,-3,1,0,-1,-1,0
1517206630368868,-1,-1,0,-2,-2,-4,-2,0
1517206630368868,-1,-3,-2,-2,-1,-1,0,-1
1517206630382378,-2,-1,-1,1,0,-3,-1,0
1517206630382378,-1,-1,-1,-1,-2,0,-1,-1
1517206630383879,0,0,-2,-1,-3,-3,-3,-1
1517206630383879,-3,0,0,-2,0,0,0,0
1517206630396389,-2,-1,-1,0,-2,-1,-1,-1
1517206630396389,-2,-2,-1,-1,-2,-1,-2,0
1517206630405394,-1,0,-2,-2,-1,1,0,-1
1517206630405394,-1,-1,-3,0,-2,-1,-1,1
1517206630419915,-1,-2,0,-3,0,0,0,-1
1517206630419915,-1,0,-1,-1,0,-1,0,-1
1517206630421907,0,1,-1,-1,0,-1,-1,-2
1517206630421907,-1,-1,-1,-1,1,1,0,-3
1517206630442468,-2,-1,-1,0,0,0,-2,-1
1517206630442468,-2,0,-1,-1,-2,-1,-1,-1
1517206630443946,-1,-1,0,-1,-1,-2,-1,-2
1517206630443946,-2,0,-2,-1,0,-2,-2,-1
1517206630455955,-1,-2,-2,-1,-2,-1,1,1
1517206630455955,-1,-2,1,-2,-2,-3,0,-1
1517206630465461,0,-3,0,-1,0,-3,0,-1
1517206630465461,-1,1,0,-1,-1,0,-3,-2
1517206630479979,0,0,-1,-1,-1,-1,-1,1
1517206630479979,-1,0,-2,-2,0,-1,-1,-2
1517206630481474,1,-3,-1,0,-1,-1,0,0
1517206630481474,0,-1,-1,-1,-2,-1,-1,-1
1517206630502500,0,0,-2,2,-1,-1,-2,-2
1517206630502500,1,0,-2,-1,-2,-1,-1,-1
1517206630504000,-1,-2,0,-1,0,1,-2,-1
1517206630504000,0,0,-2,-3,-1,-1,0,-1
1517206630515997,-1,0,-1,-1,0,0,0,1
1517206630515997,-1,0,0,-2,0,0,0,0
1517206630532508,-2,-1,-2,-2,0,1,-1,0
1517206630532508,0,-2,-1,0,-1,-1,-1,-1
1517206630540037,0,0,-2,-3,-2,-3,-1,-1
1517206630540037,-1,0,-1,0,-1,-2,-2,-1
1517206630542515,-1,0,1,-1,-1,-1,-2,-1
1517206630542515,-2,-1,-1,0,-1,-2,-2,-1
1517206630562532,-1,0,-2,-2,0,0,0,0
1517206630562532,-2,-2,-1,-1,-1,-1,-2,1
1517206630564030,-1,-1,-2,-1,-4,0,0,0
1517206630564030,-1,-4,-3,-1,-2,-1,0,-1
1517206630576063,-1,-3,0,-1,0,-1,-1,-3
1517206630576063,-1,-2,-1,-1,0,2,-1,-2
1517206630585046,-1,0,-1,-1,0,-2,-2,0
1517206630585046,0,0,0,0,-1,-1,-1,-1
1517206630599067,-1,-2,-1,0,-1,-2,-2,0
1517206630599067,-1,0,-2,0,0,0,1,-1
1517206630615067,-1,-1,-1,-1,-1,-1,1,-1
1517206630615067,-3,0,0,-3,-2,-3,-1,-2
1517206630622572,0,0,-1,-2,-1,-2,-2,0
1517206630622572,0,-2,-1,-2,-1,-3,-1,0
1517206630624073,-1,-2,0,-1,-1,-2,-1,-1
1517206630624073,-1,-3,-2,-1,-1,-1,-1,0
1517206630636096,-2,0,1,-1,1,-1,0,-3
1517206630636096,1,1,-2,-2,-2,-1,-1,-2
1517206630645088,-1,-1,-2,-4,-1,-3,-1,1
1517206630645088,0,-2,-2,-1,-1,0,-1,2
1517206630660118,-4,-1,-1,0,-2,0,-1,-1
1517206630660118,0,0,0,0,1,-1,-2,0
1517206630661620,0,1,-2,1,-2,1,-1,-3
1517206630661620,-1,0,-1,-2,0,-3,-1,-2
1517206630682616,-1,-2,-2,-1,-1,-1,1,-1
1517206630682616,-2,-1,0,1,-2,-2,-1,-1
1517206630684116,-1,0,0,0,-1,-2,0,0
1517206630684116,-2,0,-2,-2,0,1,-2,1
1517206630705145,-1,-1,0,-1,-1,1,1,1
1517206630705145,-5,-2,-2,-2,-1,-2,-1,-2
1517206630706641,-1,0,0,-1,-1,-2,-1,-1
1517206630706641,0,0,-1,-1,-1,0,1,-2
1517206630720141,1,-3,-1,-2,-2,-2,-2,-2
1517206630720141,0,-1,-1,2,1,2,0,1
1517206630721667,0,-3,-3,-2,-1,-1,-1,0
1517206630721667,-1,0,-1,-2,-1,-2,-1,-1
1517206630743220,0,0,-3,0,-1,-1,-1,-3
1517206630743220,-1,-1,-1,2,-1,-2,0,0
1517206630745213,-3,-2,0,-1,0,0,-1,-1
1517206630745213,-1,-3,0,0,-2,-1,0,-1
1517206630765215,0,0,-1,-1,-1,-2,-1,1
1517206630765215,-3,-5,-3,-5,0,-2,-1,-2
1517206630766714,-2,-1,-4,3,1,1,-1,0
1517206630766714,-1,-2,-1,0,-2,-2,-1,-1
1517206630780225,-2,-1,1,1,-1,0,-1,0
1517206630780225,-1,2,1,-3,-2,0,-1,-2
1517206630781724,-1,-1,-1,1,-1,-2,0,-1
1517206630781724,-2,-3,1,-1,-2,-4,-2,0
1517206630802241,0,-1,-2,-1,-2,-2,-3,-2
1517206630802241,0,0,0,0,-3,-1,0,0
1517206630804241,-2,-2,0,-1,3,2,1,0
1517206630804241,-3,-1,-2,-1,-1,0,-3,-2
1517206630824778,-2,-1,-3,-5,-2,-1,-1,-1
1517206630824778,-3,-2,1,-1,-1,-1,-5,-2
1517206630826766,1,1,-1,-4,-2,-2,0,-1
1517206630826766,-4,1,0,3,0,2,-1,-1
1517206630839293,0,-1,-3,-4,-1,-2,-3,-2
1517206630839293,0,0,-3,0,-1,-1,0,0
1517206630853788,-4,-3,0,0,-2,-2,-2,-2
1517206630853788,0,-1,-1,0,-2,-2,0,0
1517206630862292,0,0,-1,0,-2,-3,-2,-2
1517206630862292,0,0,-3,-2,0,-1,-2,-1
1517206630864285,-2,-2,1,-2,-1,-2,0,-2
1517206630864285,1,2,2,-1,-1,1,-1,-1
1517206630884798,-4,-3,2,3,0,-3,1,-2
1517206630884798,0,-1,-5,-12,-2,-1,-1,-2
1517206630886298,1,2,-1,0,-4,-1,-1,0
1517206630886298,3,2,-3,-1,-1,-1,-1,-1
1517206630899307,-3,-8,-1,-3,0,-2,-2,-1
1517206630899307,-1,-4,2,4,1,-1,1,0
1517206630905821,0,-1,-4,-3,0,-1,-3,-2
1517206630905821,5,0,1,-3,0,0,1,1
1517206630922351,6,10,-1,0,0,0,0,0
1517206630922351,0,-9,1,0,-3,-2,-1,-2
1517206630923824,0,-2,-5,-2,0,0,-2,-1
1517206630923824,0,-4,2,-1,-1,-2,0,1
1517206630944864,-2,4,-6,-1,0,0,-1,-1
1517206630944864,-2,1,1,2,0,-1,-1,-2
1517206630946341,2,0,3,-1,1,-1,0,1
1517206630946341,-7,-4,-6,-3,-1,-2,-3,-1
1517206630959369,-2,-3,-2,-4,-2,0,0,-3
1517206630959369,4,6,1,2,1,0,-1,-1
1517206630966356,2,0,2,6,1,1,-1,0
1517206630966356,-1,2,-12,-13,-3,-3,-5,-3
1517206630982366,-4,-6,7,2,1,1,-1,-1
1517206630982366,1,3,-3,-2,-2,-1,-1,0
1517206630983867,-12,-5,-1,-6,-4,-3,-1,-1
1517206630983867,3,1,2,3,-1,-1,-2,-6
1517206631004894,1,-4,-5,-2,-2,0,-1,1
1517206631004894,3,9,2,0,0,0,1,0
1517206631006395,-20,-8,-3,1,-1,-2,-2,-3
1517206631006395,-4,-4,-2,-3,0,-1,0,-2
1517206631019401,4,1,-3,-4,-2,-2,0,2
1517206631019401,4,1,4,3,1,0,4,11
1517206631025919,-2,-1,-3,-6,-3,-2,-4,-12
1517206631025919,-3,-3,2,2,-1,1,-1,-1
1517206631042909,-14,-13,-1,-1,-3,-3,-2,-3
1517206631042909,-5,5,-4,-2,0,0,0,1
1517206631044924,6,-10,-2,-1,-1,-3,0,0
1517206631044924,2,-2,1,1,-2,0,-1,-1
1517206631064928,5,6,2,1,1,0,1,4
1517206631064928,0,-1,-8,-4,-3,-1,-4,-7
1517206631066426,-2,0,4,-2,-1,0,-2,-3
1517206631066426,0,-1,6,5,1,-2,1,11
1517206631079439,0,4,-3,3,1,-1,0,-9
1517206631079439,-3,-6,-3,-5,-2,0,3,-1
1517206631085953,7,8,0,2,1,2,-3,-2
1517206631085953,-1,-5,-7,-3,-2,-3,-4,1
1517206631102453,-7,4,3,5,1,1,0,5
1517206631102453,-3,-12,-4,0,-1,-2,0,-7
1517206631103962,-21,-7,2,-3,-2,-2,-4,-7
1517206631103962,10,-3,-2,-2,-2,-1,5,7
1517206631124988,7,6,-2,-3,-2,-3,1,2
1517206631124988,-1,-4,0,0,-1,-1,8,12
1517206631126478,14,10,-4,-5,-3,-3,-15,-1
1517206631126478,-18,-2,-4,-2,0,-2,-4,-16
1517206631139572,12,1,0,-2,-1,1,2,-2
1517206631139572,-5,0,4,1,-1,1,-10,-7
1517206631146067,6,1,-4,3,-2,1,10,10
1517206631146067,0,0,0,-2,-1,-1,-1,-2
1517206631162114,1,1,-3,-3,-4,-2,-5,-4
1517206631162114,0,-7,-2,-1,-1,-4,2,5
1517206631170094,-3,-11,-4,2,1,-1,-1,0
1517206631170094,2,2,-8,-11,-3,-1,3,-4
1517206631185094,-1,5,5,-3,1,-1,-5,-6
1517206631185094,-5,5,7,3,0,1,-3,-2
1517206631186595,19,5,-3,-3,-2,-3,-4,-4
1517206631186595,-13,-18,-3,3,-2,-2,-3,-3
1517206631198605,-7,0,-6,-2,-2,-2,-3,0
1517206631198605,-1,0,-2,-3,-1,0,-3,-7
1517206631207620,-2,4,1,-1,2,3,8,1
1517206631207620,2,0,-1,0,0,-3,-11,3
1517206631222624,-7,1,5,-2,-2,-3,-3,-2
1517206631222624,-19,-20,-7,-4,-4,-4,-6,-5
1517206631224122,-11,9,-5,-2,-2,-1,2,1
1517206631224122,0,5,10,3,0,1,2,9
1517206631245137,-4,-19,-7,4,0,-1,1,-17
1517206631245137,1,2,-1,-4,0,1,-1,1
1517206631246640,12,-4,-8,-3,-1,-3,-15,-13
1517206631246640,-6,6,5,0,-2,-3,-3,-4
1517206631258648,-2,3,3,-6,-2,-2,-2,5
1517206631258648,-6,0,-4,1,-2,-1,6,1
1517206631267663,-3,-21,-13,-3,-3,2,7,9
1517206631267663,6,11,-4,2,0,0,-8,-8
1517206631282663,-2,-9,0,-3,-2,-1,5,13
1517206631282663,9,4,-8,-5,-1,-1,-6,-13
1517206631284164,9,5,11,1,0,0,2,9
1517206631284164,-7,6,-3,-1,-2,-2,3,-3
1517206631304679,-15,-15,-8,2,-2,0,14,10
1517206631304679,-1,4,-2,-9,-1,-4,-9,-4
1517206631306681,-4,-2,6,3,1,-1,4,-4
1517206631306681,3,-1,0,2,1,1,3,4
1517206631318691,-4,12,11,0,0,2,2,1
1517206631318691,9,-6,-15,-4,-2,-3,-1,-1
1517206631327736,-6,4,7,-4,-2,-1,-5,-5
1517206631327736,-7,-7,0,-3,-1,-1,1,-6
1517206631342717,6,10,-2,-2,0,-1,-6,5
1517206631342717,-9,3,12,6,1,0,-2,0
1517206631344744,-4,5,2,-2,-4,-5,1,2
1517206631344744,5,-8,-18,-6,-3,-1,-1,-6
1517206631365222,-14,-35,1,7,-2,-3,-4,-28
1517206631365222,14,35,-5,-19,-1,1,4,7
1517206631366724,-21,-27,-23,-7,-3,-1,19,6
1517206631366724,12,10,16,1,-2,-7,-59,-16
1517206631378741,7,6,-7,-3,-4,-2,-8,-1
1517206631378741,-6,0,-1,4,1,1,-8,-5
1517206631387752,-2,6,11,6,0,-1,-1,-1
1517206631387752,-6,7,-1,0,-2,1,13,8
1517206631402258,9,-9,-4,3,2,0,6,8
1517206631402258,-14,-8,6,2,-5,-3,-5,-10
1517206631404259,4,-1,-8,-21,-1,-1,5,8
1517206631404259,-10,-17,1,6,1,2,13,-1
1517206631424785,0,20,2,-5,-1,0,-8,12
1517206631424785,5,-10,-1,-4,-1,-2,2,-3
1517206631426776,1,7,1,4,-2,-2,-6,0
1517206631426776,-2,-11,-7,-6,-4,-3,-1,-7
1517206631438788,1,12,18,6,0,1,-2,6
1517206631438788,1,-1,-10,6,-2,-4,5,5
1517206631447781,0,-4,-5,5,0,-1,-7,-2
1517206631447781,4,8,4,-9,0,1,3,-1
1517206631462313,-13,-21,-22,-6,-1,-3,-5,-15
1517206631462313,18,-7,8,-7,-2,0,4,12
1517206631464291,4,-2,1,1,0,2,5,-2
1517206631464291,1,13,-7,1,-2,-5,2,9
1517206631484821,9,-14,22,6,0,-1,-5,-13
1517206631484821,-6,6,2,-7,-2,1,3,3
1517206631486307,-9,-5,5,2,0,-3,-21,-2
1517206631486307,11,10,10,7,4,4,19,21
1517206631498818,-7,-4,-22,-1,-3,-7,-27,-23
1517206631498818,7,4,5,-4,0,-4,11,33
1517206631507322,-5,47,-1,4,1,2,-17,-42
1517206631507322,-22,-65,0,2,-3,-5,-3,0
1517206631522343,12,27,6,-8,-1,-1,4,6
1517206631522343,-10,-15,-11,6,0,0,-1,-13
1517206631523834,12,5,-8,1,-4,-2,-3,12
1517206631523834,-2,19,7,-3,-2,1,6,10
1517206631544849,-3,-11,-11,6,3,2,2,-1
1517206631544849,-7,-16,-14,-9,-6,-1,8,-6
1517206631546350,-12,-17,22,11,2,-3,-15,1
1517206631546350,1,21,-27,-28,-5,-2,-1,-22
1517206631558372,-14,-42,6,2,-2,-1,12,18
1517206631558372,3,7,-6,-3,-1,-1,-23,-26
1517206631567365,-5,1,13,-4,-3,-2,21,20
1517206631567365,19,29,2,4,0,3,-11,-5
1517206631582375,-4,-41,-10,-7,-7,-9,-11,-1
1517206631582375,-3,-12,-2,6,3,2,2,0
1517206631583876,7,-5,4,0,-1,0,10,-3
1517206631583876,-7,-12,-23,-4,1,1,4,-6
1517206631604901,0,63,4,-21,-6,-1,4,5
1517206631604901,3,-24,42,18,5,3,7,3
1517206631606392,-30,-29,-37,-14,-5,-5,-28,-19
1517206631606392,10,15,20,5,2,2,2,0
1517206631627421,-1,21,-1,8,5,3,6,3
1517206631627421,5,-14,13,-5,-7,-5,4,2
1517206631628908,19,50,10,3,0,1,-13,-5
1517206631628908,-10,-15,-17,23,1,-3,-2,-32
1517206631642417,-4,-15,-3,-32,-4,0,6,11
1517206631642417,-10,16,-8,7,1,-2,-4,-5
1517206631644919,9,-6,32,9,6,3,8,10
1517206631644919,-8,-9,-7,1,-5,-4,-8,0
1517206631664948,-8,7,1,15,3,2,8,0
1517206631664948,-18,32,-16,-12,-6,-3,-7,-8
1517206631666436,9,-21,-20,-4,-2,1,-11,2
1517206631666436,-5,9,23,6,1,-1,4,8
1517206631687449,12,1,-9,-4,-3,-2,-6,-12
1517206631687449,-11,-11,-6,1,1,2,5,4
1517206631688951,6,16,17,11,0,-4,25,12
1517206631688951,-1,-4,2,-13,-3,0,17,26
1517206631702469,31,-2,27,16,2,-1,-14,-15
1517206631702469,-23,3,-53,-17,-5,-3,1,-18
1517206631703971,0,-57,-25,-6,-4,0,-3,2
1517206631703971,9,4,1,2,4,2,4,-8
1517206631725008,-35,-22,-13,1,-4,-5,-5,-15
1517206631725008,26,30,53,14,5,3,20,42
1517206631726478,-12,-16,-61,-12,-2,-3,-10,-31
1517206631726478,3,-11,8,1,-4,-2,8,-16
1517206631747503,-13,17,0,-3,0,0,7,18
1517206631747503,4,8,-9,-9,-4,-4,-7,-2
1517206631748994,-13,-12,-51,-16,-1,1,4,6
1517206631748994,-1,-27,4,1,-1,-2,-27,-9
1517206631762017,18,28,-11,-1,-7,-7,-2,-3
1517206631762017,-19,-26,20,4,-3,-5,-4,-13
1517206631768516,6,-4,14,3,-1,-5,-6,-15
1517206631768516,-14,-37,-17,-5,0,2,24,9
1517206631785018,3,-31,15,-2,-2,-4,-19,6
1517206631785018,3,68,7,-2,-3,-3,-4,-8
1517206631786530,8,1,22,4,-1,-1,-2,15
1517206631786530,3,-1,-34,-5,-4,-5,-10,11
1517206631807534,8,15,-23,-6,-1,3,4,-9
1517206631807534,0,-38,33,11,6,3,-2,3
1517206631809035,11,23,-35,-10,-7,-4,6,3
1517206631809035,4,-6,33,-20,-5,-1,-10,3
1517206631822060,-25,14,14,9,2,2,8,5
1517206631822060,0,-46,-49,-2,-1,-2,-22,-27
1517206631828568,8,30,32,3,1,3,8,-8
1517206631828568,-2,16,13,13,4,1,8,13
1517206631845071,9,-21,-25,-16,-8,-2,-18,-5
1517206631845071,0,7,5,12,4,7,16,19
1517206631846562,-4,-10,-13,-11,-7,-2,3,-40
1517206631846562,9,-68,-17,-23,-4,-1,-11,26
1517206631867577,-29,19,32,1,1,-2,-1,-14
1517206631867577,3,-4,-4,14,5,2,-4,16
1517206631869078,3,2,37,15,4,0,-2,16
1517206631869078,-34,-38,-38,-7,-2,-1,12,-4
1517206631882087,58,15,8,4,-2,-3,-5,-31
1517206631882087,-9,-19,-42,-3,-2,-5,-12,-5
1517206631888591,-50,23,37,-14,-1,4,12,16
1517206631888591,13,11,16,18,4,-5,-31,-21
1517206631906619,-25,41,-14,-6,-3,-2,21,27
1517206631906619,11,-38,5,-4,-3,-9,-47,-50
1517206631908120,14,27,-6,23,4,2,5,21
1517206631908120,-2,43,-1,-18,-4,-3,-1,-8
1517206631927632,-13,-62,-12,13,5,5,5,28
1517206631927632,16,39,10,-18,-6,-4,-5,-29
1517206631929130,-9,-46,20,-6,-5,-6,5,-4
1517206631929130,14,50,39,19,1,0,-15,7
1517206631942138,-8,-30,-55,-14,-3,-3,5,-8
1517206631942138,-7,6,39,11,2,5,13,27
1517206631948635,6,1,-25,-2,-1,-3,-7,-2
1517206631948635,5,34,2,-9,-5,-5,0,-14
1517206631965146,2,-12,-16,-5,-3,-2,15,10
1517206631965146,-3,-14,-3,12,2,5,7,7
1517206631966649,11,27,-15,-11,-1,-5,-30,-2
1517206631966649,-12,6,28,15,-2,-3,-6,-28
1517206631987661,19,24,23,-3,5,7,15,13
1517206631987661,10,-3,-24,-9,-5,-4,-11,20
1517206631989163,-7,-18,-42,-5,-3,0,17,-3
1517206631989163,-8,-17,1,-9,-6,-3,-14,-23
1517206632001682,-21,36,4,11,-1,-7,-21,-17
1517206632001682,0,-31,-10,-28,-5,0,14,-2
1517206632008686,-15,-16,10,3,0,-2,-4,39
1517206632008686,-25,-65,-54,-5,4,3,25,11
1517206632025198,-7,25,7,5,-3,-3,-15,-12
1517206632025198,16,19,11,-18,-6,-3,-5,8
1517206632026689,-12,-51,-3,9,0,0,-17,-46
1517206632026689,15,-35,-39,-10,1,1,0,5
1517206632047709,-3,21,48,8,4,1,-10,5
1517206632047709,-22,-40,-42,-10,-6,-7,7,-3
1517206632049207,11,10,53,5,3,2,12,12
1517206632049207,19,19,-46,0,-3,1,1,0
1517206632061738,3,-27,-11,-4,1,0,-8,-21
1517206632061738,-4,14,-6,14,0,1,16,15
1517206632068729,-15,-1,26,-10,-4,-1,-12,-8
1517206632068729,-6,33,24,4,-3,-2,6,13
1517206632084730,8,-21,7,-2,-3,-1,5,15
1517206632084730,15,-26,-7,0,-3,-5,-2,-16
1517206632086746,-4,21,3,-1,0,0,-5,-7
1517206632086746,-5,40,39,10,3,4,24,24
1517206632107257,-11,-57,-24,-6,-7,-4,-8,-8
1517206632107257,-10,-2,16,-7,-4,-2,-9,-16
1517206632109264,24,25,-23,-6,0,-1,5,5
1517206632109264,-8,-24,3,-2,-1,-4,-8,-15
1517206632121256,14,32,23,11,4,3,14,12
1517206632121256,7,34,20,6,1,-3,-8,-4
1517206632131274,2,-5,-6,0,0,2,9,11
1517206632131274,-16,9,-42,-8,-1,-1,8,-29
1517206632144297,-3,-23,-23,-2,-1,0,-7,-14
1517206632144297,-13,22,4,-6,-3,-2,18,22
1517206632145283,-15,-36,19,-8,-3,-6,-33,-43
1517206632145283,11,12,-1,13,-1,-2,12,28
1517206632166788,-29,7,-13,-13,1,1,-6,-15
1517206632166788,22,-6,-28,1,-2,0,-9,-10
1517206632167289,-5,13,43,11,0,0,19,11
1517206632167289,8,-2,-48,-7,-3,-4,-10,-5
1517206632197813,-22,-24,-22,-26,-8,-7,4,-4
1517206632197813,0,37,20,17,8,7,5,9
1517206632198312,-12,-9,-23,-10,-6,-2,12,3
1517206632198312,11,33,35,8,1,-2,-12,8
1517206632204325,17,10,-4,-3,1,2,-4,-14
1517206632204325,-2,-8,-25,4,2,3,8,30
1517206632204816,-2,13,27,5,0,0,25,-1
1517206632204816,-13,37,20,-15,-2,2,-45,-18
1517206632226845,26,-53,-25,7,0,-2,1,12
1517206632226845,-8,-9,12,1,4,-1,-16,-21
1517206632227330,27,-7,-23,-6,-6,-2,10,26
1517206632227330,-12,-15,-3,-10,-4,1,20,-29
1517206632249847,-18,-29,-6,6,2,1,-4,11
1517206632249847,-4,37,37,13,0,1,-2,-1
1517206632250848,7,-48,-44,-16,-2,-4,-13,-11
1517206632250848,18,12,51,13,3,2,22,24
1517206632264362,7,15,-57,-1,-3,-1,-3,-1
1517206632264362,-4,-29,-1,-13,-2,0,11,-2
1517206632264859,6,3,-8,6,-1,0,-1,19
1517206632264859,-12,-6,-23,-15,-4,-7,-19,-13
1517206632286873,-3,24,53,-3,-3,1,5,5
1517206632286873,-1,-10,-40,-2,-2,-5,-12,2
1517206632287373,-27,-11,33,13,7,1,-21,-23
1517206632287373,0,-26,-39,3,0,0,4,35
1517206632309911,3,27,19,-4,-7,-6,-5,-19
1517206632309911,-1,5,-16,-17,-7,-3,-13,-17
1517206632310909,-5,14,8,4,0,2,-6,-12
1517206632310909,5,-27,4,13,3,1,12,8
1517206632324409,0,38,75,19,6,3,5,21
1517206632324409,3,-14,27,-18,-7,1,-9,-18
1517206632324910,-5,-2,10,9,0,-7,-19,0
1517206632324910,2,-12,16,-4,-3,-1,-1,11
1517206632346916,-18,37,57,6,3,0,13,-24
1517206632346916,15,-26,-27,-9,-1,-8,-42,-37
1517206632347416,11,-17,-3,5,0,4,2,-9
1517206632347416,-11,-11,-27,-9,-2,1,2,-10
1517206632369958,7,-23,18,2,-3,-5,-10,12
1517206632369958,-11,-1,2,14,5,1,22,8
1517206632370934,-64,7,-33,-9,-3,-2,12,4
1517206632370934,22,3,49,23,4,2,-31,-29
1517206632384442,12,7,6,-16,1,0,21,28
1517206632384442,-20,-32,-57,4,-5,-3,3,12
1517206632384942,29,-50,-12,-16,-4,-2,-13,-27
1517206632384942,-24,5,2,3,-3,-2,2,-4
1517206632406458,5,-2,-3,8,4,4,9,10
1517206632406458,-8,-19,-11,3,-1,0,17,19
1517206632407458,19,53,2,-4,-6,-7,-21,-7
1517206632407458,-7,-10,24,-17,-5,-4,1,-4
1517206632421010,16,-54,-69,6,3,1,-8,-12
1517206632421010,-16,-1,9,-14,-1,-2,-7,3
1517206632429503,8,27,13,9,4,5,22,6
1517206632429503,-17,-13,-7,-4,-1,3,-8,-4
1517206632444035,16,25,24,1,-5,-2,-11,2
1517206632444035,-1,17,4,14,3,1,7,-6
1517206632445024,8,-4,-26,-11,1,4,13,1
1517206632445024,17,13,13,-8,-2,-4,-5,13
1517206632467030,-32,-10,-21,-1,-5,-4,-6,3
1517206632467030,1,23,0,4,-2,-2,-10,-18
1517206632467540,11,41,74,-20,-6,-2,13,10
1517206632467540,3,-15,-71,-11,-1,-4,2,3
1517206632490066,-10,-31,31,7,3,-1,-41,-17
1517206632490066,6,14,25,4,2,5,10,-3
1517206632491056,6,22,38,13,4,4,17,30
1517206632491056,19,14,23,2,-5,-4,-21,-20
1517206632504068,-12,-8,-37,0,-5,-6,4,9
1517206632504068,13,1,-30,-29,0,1,-1,-9
1517206632505068,-23,7,40,6,-2,-5,-22,-2
1517206632505068,-6,-17,-62,-9,-2,2,10,-2
1517206632527072,-2,-6,-21,0,-2,-2,3,6
1517206632527072,8,70,73,23,3,0,-4,-12
1517206632527572,-22,-40,-46,-18,-4,0,11,4
1517206632527572,57,14,-12,8,0,-2,2,5
1517206632549089,-21,18,19,-16,-2,3,13,-4
1517206632549089,-8,14,31,-2,1,-1,-17,1
1517206632556605,7,-30,-25,5,1,-1,-7,-6
1517206632556605,-18,21,41,9,2,1,5,7
1517206632564099,4,-6,1,4,0,1,12,24
1517206632564099,44,-17,-19,-9,-4,-5,-6,-43
1517206632565099,-3,42,26,3,-2,-4,-5,5
1517206632565099,-5,-4,7,2,2,1,10,-4
1517206632586615,13,-23,-38,12,6,2,-20,-6
1517206632586615,-30,-13,14,-34,-13,-5,15,48
1517206632587615,17,-3,-36,5,4,-3,-21,-28
1517206632587615,-22,-57,-38,-9,-5,-1,2,-5
1517206632610145,10,51,26,15,3,-1,-9,-8
1517206632610145,-16,-32,-35,2,-4,-6,-1,2
1517206632610646,28,15,13,0,-3,-1,5,0
1517206632610646,-32,-1,17,-10,-4,-5,-11,-6
1517206632624144,19,13,4,-3,-1,0,-1,-3
1517206632624144,-37,-30,3,15,3,2,0,-5
1517206632625157,38,-1,-14,-12,-7,-3,14,53
1517206632625157,-20,0,-19,15,4,0,-2,-42
1517206632646657,-5,-22,-23,-29,-2,-1,1,-8
1517206632646657,-1,18,-6,18,3,2,-3,3
1517206632647657,-14,12,-21,-20,-5,-2,3,-11
1517206632647657,21,4,41,9,0,-2,9,16
1517206632670174,14,-5,-5,5,0,1,8,-9
1517206632670174,-36,10,-46,-16,1,5,7,16
1517206632670674,-12,-35,14,10,1,-3,-16,-20
1517206632670674,5,35,-28,-14,-5,-2,0,12
1517206632684184,-23,7,6,-8,-9,-8,0,-32
1517206632684184,38,16,34,10,6,4,10,39
1517206632685197,-17,-42,-35,-6,-7,-7,-14,-56
1517206632685197,23,15,16,14,5,3,-8,16
1517206632706698,-9,18,-11,-14,-8,-5,2,4
1517206632706698,22,-9,32,10,2,0,2,12
1517206632707699,9,-3,-21,14,4,1,5,8
1517206632707699,-6,-20,-17,-21,-3,1,-3,-9
1517206632729726,-37,-12,-48,6,-1,-1,2,-10
1517206632729726,20,-1,4,4,-9,-7,-2,-9
1517206632730727,-14,-7,1,-17,-5,-3,-1,1
1517206632730727,22,40,13,14,4,6,14,13
1517206632744240,12,-8,22,3,1,3,5,25
1517206632744240,-6,-39,11,6,0,-3,-24,-36
1517206632745229,-18,17,-15,-16,-9,-7,-3,-1
1517206632745229,9,-6,12,5,-1,-2,-3,-17
1517206632766751,6,-2,-37,-8,0,1,19,9
1517206632766751,8,4,11,4,1,1,5,2
1517206632767757,13,4,14,5,0,3,1,16
1517206632767757,-53,-55,-7,8,4,4,2,-1
1517206632789758,32,76,60,-11,0,1,-6,4
1517206632789758,-22,-78,-64,-17,-5,-4,3,-21
1517206632790758,-1,8,19,18,11,6,2,20
1517206632790758,-7,16,23,-1,-2,1,10,8
1517206632804281,8,-57,-30,0,5,4,-3,-18
1517206632804281,-10,43,42,5,-3,1,20,15
1517206632805268,-4,-16,-23,2,1,-1,-4,-8
1517206632805268,3,-20,-14,-16,-4,-5,-12,-7
1517206632826802,-26,46,44,13,2,0,1,16
1517206632826802,10,-6,-37,-24,-13,-11,-27,-15
1517206632827795,-1,-45,-48,2,0,2,10,-3
1517206632827795,-2,17,36,20,4,0,-2,10
1517206632850324,18,35,-14,-19,-5,-2,-8,10
1517206632850324,3,-26,-6,-5,-1,-1,23,-1
1517206632850816,-22,45,1,-1,-2,-4,-12,-14
1517206632850816,-15,-13,-20,-21,-8,-6,-14,-14
1517206632864311,-5,-53,16,19,3,0,1,3
1517206632864311,21,27,-6,2,0,-1,11,33
1517206632864815,14,13,-6,10,6,3,-13,-24
1517206632864815,8,24,63,9,2,1,0,7
1517206632886826,2,-23,-51,-30,-11,-4,9,-13
1517206632886826,-13,14,19,18,3,1,-12,1
1517206632887326,11,11,1,-29,-6,0,7,11
1517206632887326,-14,-10,-9,4,1,-1,2,6
1517206632909863,-4,-4,10,8,-6,-4,-2,-6
1517206632909863,0,12,10,-14,-2,-5,-35,-13
1517206632910861,-7,20,26,19,4,3,6,11
1517206632910861,-3,7,-6,-17,-9,-3,3,-4
1517206632924371,1,-7,8,10,3,-2,5,-1
1517206632924371,12,-13,-36,3,3,4,1,6
1517206632924862,0,1,30,-4,-5,-3,8,26
1517206632924862,-8,20,-1,-9,-2,-4,-12,-15
1517206632946870,-7,-19,16,16,3,1,-7,-17
1517206632946870,1,19,-2,-7,2,6,16,14
1517206632947370,9,-31,-50,-11,-10,-5,-10,-5
1517206632947370,3,9,-12,-1,-1,1,11,9
1517206632969895,-13,-7,32,6,3,0,-8,-4
1517206632969895,12,3,-3,8,-2,1,7,2
1517206632970385,4,-8,18,-10,-1,1,-12,-14
1517206632970385,12,4,-4,-12,-2,-3,1,-2
1517206632984395,-14,8,-5,-1,0,0,-5,-22
1517206632984395,-5,5,16,1,0,1,9,48
1517206632984896,-25,-11,-14,1,-2,-3,-23,-47
1517206632984896,28,-2,74,25,2,-5,-10,4
1517206633006924,0,0,-89,-23,-5,-2,1,15
1517206633006924,-7,-27,-28,-4,1,0,-5,-9
1517206633007430,11,1,59,12,-1,-5,6,-5
1517206633007430,12,3,-8,9,1,0,8,11
1517206633029930,11,-12,-17,-27,-9,-5,-20,-13
1517206633029930,-18,4,6,12,4,1,19,-2
1517206633030929,13,26,0,1,-2,-3,-35,-17
1517206633030929,-15,-14,-12,-4,-2,-3,8,4
1517206633043941,-7,-2,6,-7,-4,-4,0,3
1517206633043941,-8,9,-21,15,2,4,-4,-19
1517206633044938,6,-15,-22,-39,-8,-3,19,14
1517206633044938,-21,-3,-16,16,-2,-3,8,-5
1517206633066466,-2,12,20,-25,-4,-2,-23,-3
1517206633066466,7,40,41,4,-2,-2,-3,-3
1517206633067454,8,-21,-68,5,1,0,5,7
1517206633067454,40,22,13,13,2,0,27,21
1517206633089986,-58,-73,-11,5,-1,-2,-26,-10
1517206633089986,-22,-3,-60,-44,-11,-7,-15,-30
1517206633090975,5,3,-5,19,6,2,11,22
1517206633090975,9,-18,1,-6,-1,0,-6,0
1517206633103480,3,2,44,13,-1,-1,23,11
1517206633103480,15,-1,0,-13,-2,-2,-27,-17
1517206633112037,-22,-16,3,6,0,0,-1,-27
1517206633112037,-19,15,47,3,0,-4,-13,1
1517206633127006,1,2,-40,1,-3,-5,-9,-27
1517206633127006,-11,-45,-58,-27,-7,-2,0,-5
1517206633127497,44,27,31,-9,-3,-2,18,23
1517206633127497,-13,18,-4,4,2,0,-14,-14
1517206633150012,-15,13,24,16,0,2,5,-5
1517206633150012,18,-24,-6,11,2,-1,1,5
1517206633151013,3,8,-5,10,3,2,26,21
1517206633151013,-42,-46,-34,-22,-6,1,-9,-15
1517206633163522,21,47,60,1,3,2,4,7
1517206633163522,-13,-7,-1,12,-1,-3,4,23
1517206633172028,-22,-7,-20,1,2,3,-6,-40
1517206633172028,0,-52,-3,-21,-9,-8,-2,8
1517206633187040,6,32,-35,-3,1,-2,0,-3
1517206633187040,21,8,32,9,4,1,6,-7
1517206633187541,-10,-45,-6,-5,-7,-4,-21,8
1517206633187541,13,-13,-64,-5,-2,0,1,11
1517206633210079,5,-15,-18,16,-1,0,-8,-8
1517206633210079,1,4,48,0,-2,-2,6,12
1517206633210555,-31,35,2,-6,2,2,-1,1
1517206633210555,5,20,26,5,3,-1,-6,-8
1517206633223577,25,6,11,6,-2,0,12,46
1517206633223577,-18,9,-63,-12,-7,-6,-24,-50
1517206633232080,-25,-32,17,13,4,3,2,3
1517206633232080,9,16,41,-6,-3,-2,-8,-7
1517206633246580,2,-20,-31,-16,-2,1,14,22
1517206633246580,10,38,49,11,0,-2,-7,-10
1517206633247596,4,-41,0,-1,-5,-6,14,35
1517206633247596,-12,6,-13,-5,-1,1,-10,-23
1517206633270123,-15,-13,14,0,3,-1,2,-5
1517206633270123,11,21,28,4,3,-2,2,-1
1517206633270598,-8,25,-2,3,-6,-6,-3,-12
1517206633270598,29,8,-12,-5,2,1,3,27
1517206633283659,-33,-25,-2,1,-3,-2,-8,-8
1517206633283659,-10,-22,17,5,2,0,2,2
1517206633291679,-3,46,7,6,1,2,7,4
1517206633291679,-16,-8,-4,-6,-4,-3,-2,25
1517206633306684,15,22,-4,11,0,-5,-35,-64
1517206633306684,-36,-29,-28,-31,-4,-2,-1,-1
1517206633307675,20,16,-26,3,-5,-2,-5,8
1517206633307675,-7,-1,17,9,3,2,0,-13
1517206633337195,20,5,0,9,3,2,13,7
1517206633337195,-36,-4,-4,3,-2,2,11,12
1517206633338196,-7,-17,-9,-19,-5,-3,-19,-15
1517206633338196,-18,-12,39,8,1,-2,6,-4
1517206633343715,43,-2,-56,-17,-6,-1,11,1
1517206633343715,7,-15,50,23,0,-1,-9,4
1517206633351706,2,-1,-40,-28,-3,-1,-4,0
1517206633351706,21,43,45,7,4,1,7,-5
1517206633366720,-19,-28,-43,-9,-1,0,-1,9
1517206633366720,4,-14,3,-4,-5,-4,-2,-6
1517206633367732,3,13,44,11,2,1,0,1
1517206633367732,-1,-4,-13,-6,-1,2,6,5
1517206633389749,-2,-21,16,-1,-1,-5,-25,-14
1517206633389749,1,7,-56,-1,0,-2,6,-4
1517206633390734,4,-10,17,12,2,-1,-8,15
1517206633390734,-2,-13,-38,-22,-4,-2,-1,-25
1517206633403743,-6,25,29,-4,0,-2,2,9
1517206633403743,-11,-49,28,39,6,3,-6,-1
1517206633411749,-1,12,-28,-41,-10,-5,-11,-12
1517206633411749,-23,-6,-46,2,-3,0,13,7
1517206633426781,-2,-12,19,1,3,4,9,32
1517206633426781,21,45,18,4,-3,-3,-25,-48
1517206633427769,11,28,22,14,8,6,17,14
1517206633427769,3,-16,-29,-25,-3,0,4,4
1517206633450277,-22,17,18,1,-7,-9,-13,-10
1517206633450277,11,-13,-16,-12,2,2,15,18
1517206633450777,-6,-6,6,10,3,1,0,-5
1517206633450777,7,7,-7,3,-5,-1,-9,-7
1517206633463797,5,-34,22,9,4,0,5,-4
1517206633463797,-16,28,40,-5,-2,1,7,19
1517206633471791,-7,-7,-51,-4,-1,0,-1,-13
1517206633471791,-5,-1,0,7,0,-1,3,10
1517206633486834,-20,16,-2,-5,-6,-1,6,-30
1517206633486834,19,14,30,2,-1,-3,-2,10
1517206633487335,-1,-63,-13,8,1,3,10,22
1517206633487335,-15,-2,-55,-16,-6,-4,-13,-15
1517206633509919,22,16,32,13,7,0,-4,6
1517206633509919,-3,39,34,-8,-1,1,0,-2
1517206633510916,-17,-71,-48,-24,-13,-9,2,0
1517206633510916,23,14,4,21,7,3,-8,-1
1517206633532412,6,-38,-16,-18,-5,-3,-1,-9
1517206633532412,8,25,8,-11,-5,-2,-1,17
1517206633532914,-18,45,44,21,4,2,1,-10
1517206633532914,0,1,14,8,0,-1,-2,0
1517206633546923,0,6,-21,2,-1,-2,-3,8
1517206633546923,-16,-53,-65,-3,1,-1,6,-10
1517206633547424,-10,0,8,-1,0,-1,-12,-17
1517206633547424,-5,-2,-14,-3,-2,-2,-5,-1
1517206633569947,4,30,20,-2,-2,-1,3,9
1517206633569947,17,7,24,9,2,-1,-4,7
1517206633570949,0,-26,-52,-19,-11,-9,-1,7
1517206633570949,-2,8,24,16,1,-1,-4,-12
1517206633592454,23,15,15,-16,1,6,21,22
1517206633592454,-31,-43,-63,-3,-4,-2,-46,-29
1517206633592955,23,57,51,25,4,-1,3,8
1517206633592955,-4,13,10,-22,-4,-5,-6,-15
1517206633606477,-12,-23,-3,-1,-7,-3,12,10
1517206633606477,1,-1,-34,-19,-4,-3,-4,-12
1517206633607477,-3,-28,-5,11,1,2,4,2
1517206633607477,-23,-4,-10,4,1,-2,-13,-10
1517206633629981,-12,6,-1,8,2,1,-7,-14
1517206633629981,7,20,27,-9,-6,-5,13,-11
1517206633630981,-2,42,6,-4,-1,0,0,8
1517206633630981,26,-46,24,19,2,1,1,-1
1517206633652561,2,-26,-30,-21,-3,1,11,11
1517206633652561,-23,-7,-8,6,1,1,-13,33
1517206633653049,23,50,39,-12,-1,0,-17,-57
1517206633653049,-19,-31,-56,1,-2,1,1,7
1517206633667063,-3,15,0,8,1,-1,-1,-1
1517206633667063,-2,1,3,-4,-4,-2,14,11
1517206633667620,5,-47,4,0,1,0,4,-7
1517206633667620,6,11,36,3,1,2,8,25
1517206633690124,12,-3,-55,-6,-5,-5,-14,-13
1517206633690124,-2,13,19,4,-2,-3,1,-9
1517206633690624,0,-23,3,-18,0,1,0,3
1517206633690624,-8,-20,1,-9,-5,-3,-11,-11
1517206633712649,0,-6,-16,-19,-9,-7,-1,6
1517206633712649,14,-11,14,9,5,5,6,-7
1517206633713140,-11,-1,-24,9,1,-2,4,9
1517206633713140,-21,17,38,5,-2,-1,8,14
1517206633726708,-5,-2,-11,-3,0,-1,-25,-23
1517206633726708,-44,-6,21,10,2,0,7,-16
1517206633727664,8,-5,-30,1,-4,-2,-1,11
1517206633727664,23,-3,-29,-16,-6,-4,1,-5
1517206633750180,-18,-9,16,8,2,-2,-4,1
1517206633750180,26,-10,-43,-10,-3,1,10,4
1517206633750666,-2,5,54,14,4,1,2,18
1517206633750666,-24,-13,0,-8,-2,-4,-14,-54
1517206633772682,18,7,-3,3,-1,0,5,13
1517206633772682,13,15,4,3,1,-1,3,10
1517206633773184,-6,7,11,-3,-3,-2,-3,4
1517206633773184,20,-9,-46,-9,-2,1,-2,19
1517206633786702,7,-5,1,8,3,3,6,-19
1517206633786702,-23,5,38,4,3,2,-3,-2
1517206633787192,0,1,-20,-9,-4,-5,-2,2
1517206633787192,5,5,15,-11,-1,-1,-6,0
1517206633809718,-1,2,20,8,0,-3,4,4
1517206633809718,3,-20,-34,-15,-4,-5,0,2
1517206633810717,10,7,35,7,2,2,4,-3
1517206633810717,-2,26,-56,2,-2,-3,-4,2
1517206633832729,-11,2,14,0,3,1,-2,2
1517206633832729,9,4,3,0,-2,-1,0,-7
1517206633833228,-6,-3,16,6,2,1,-3,-5
1517206633833228,5,3,-11,-1,-1,-2,3,2
1517206633846734,-15,-2,5,-2,-1,-1,-4,-2
1517206633846734,-10,3,5,-3,-1,0,-1,-1
1517206633847772,8,5,3,20,2,-1,0,-8
1517206633847772,-7,0,7,-24,-3,-2,1,5
1517206633869784,-2,4,1,-3,-4,-3,-5,-5
1517206633869784,11,-19,-46,-8,-4,-5,-6,-4
1517206633870785,-1,11,9,-2,0,2,3,7
1517206633870785,9,1,18,11,0,-1,-3,-13
1517206633892303,-11,-23,-6,-2,-1,0,1,5
1517206633892303,6,21,13,-1,-1,-2,0,1
1517206633893305,-5,-3,-9,5,-2,-3,-4,-4
1517206633893305,4,7,-4,-10,-1,-1,1,7
1517206633907325,-1,0,6,0,-2,0,-4,-4
1517206633907325,5,6,-1,-3,-3,-2,1,1
1517206633914316,3,-5,-8,-3,1,-1,-2,-6
1517206633914316,-7,-1,25,5,-1,0,3,13
1517206633930330,2,12,-17,7,-1,-3,-1,-1
1517206633930330,-4,-13,-4,-7,1,3,2,-1
1517206633930829,1,12,4,-7,-5,-2,-6,-5
1517206633930829,-7,-1,12,-5,-4,-4,-1,-4
1517206633952352,8,8,-3,2,1,-1,2,4
1517206633952352,5,11,15,9,2,0,0,2
1517206633953359,-10,-23,-25,-14,-4,-1,0,-6
1517206633953359,-1,3,1,8,1,-1,-1,-1
1517206633966853,-2,-2,5,1,-1,1,0,2
1517206633966853,4,5,-8,-4,-2,-1,-2,0
1517206633967353,-6,-4,-6,-4,-1,-3,-4,-3
1517206633967353,-2,-8,0,5,1,-1,0,1
1517206633989886,2,-3,-8,-2,0,0,-1,0
1517206633989886,0,-1,8,1,-1,-1,1,0
1517206633990885,-2,2,-5,-1,-2,0,0,-1
1517206633990885,-3,-9,-26,0,0,1,-2,-1
1517206634012386,1,12,5,2,0,0,1,0
1517206634012386,0,-18,-20,-5,-3,-2,3,-5
1517206634013385,-5,7,3,0,0,0,0,-2
1517206634013385,-1,-7,-10,0,-3,-2,-3,0
1517206634026895,0,5,17,8,2,0,-2,2
1517206634026895,-1,0,-3,-8,-2,1,-1,2
1517206634027396,0,-3,0,-3,0,0,-2,1
1517206634027396,-4,0,-2,-1,0,-1,-3,-6
1517206634049912,-3,-1,5,-2,-1,0,1,-2
1517206634049912,-2,-3,2,3,1,-4,-1,0
1517206634050914,-1,-7,-1,-3,-2,0,-1,-3
1517206634050914,0,1,6,0,-1,1,0,0
1517206634072428,-2,-5,-9,-3,-1,0,-2,-1
1517206634072428,0,0,5,-2,-4,-2,-1,0
1517206634072927,-3,-1,-10,-3,0,2,-2,0
1517206634072927,-1,-4,-1,3,0,0,0,0
1517206634085937,2,-3,-1,-2,-2,-2,-1,-1
1517206634085937,-1,1,1,-13,-3,-1,-2,-1
1517206634094452,-1,2,1,1,-1,-2,-3,-1
1517206634094452,-1,-5,-7,-4,-2,-1,1,0
1517206634109953,-3,-8,-7,-3,-2,-1,-3,-4
1517206634109953,-1,3,5,8,2,2,0,1
1517206634110461,-1,1,2,-6,-3,-2,1,0
1517206634110461,1,-9,-6,0,0,1,-1,-1
1517206634131469,-2,4,5,-3,-2,-1,-1,-2
1517206634131469,0,-1,0,5,1,-1,1,0
1517206634138975,-3,-3,0,-2,-4,-2,-2,0
1517206634138975,-2,2,0,4,1,-1,-1,-1
1517206634145989,1,-1,-5,-4,-1,-1,-1,1
1517206634145989,-1,-2,-10,0,-2,-2,-1,-4
1517206634153994,0,-5,-1,-2,-2,-1,-1,-3
1517206634153994,0,1,5,1,0,0,0,1
1517206634170012,-4,-6,-7,-2,-2,-3,-1,-3
1517206634170012,-2,1,0,-4,-1,-3,-1,-2
1517206634170507,-3,-3,-2,0,-1,-1,1,-1
1517206634170507,-2,0,5,0,-1,-1,-1,-2
1517206634192535,2,1,-2,0,-1,-1,-2,1
1517206634192535,-3,-5,-1,2,-1,1,-1,0
1517206634193014,-3,-2,2,0,-1,0,0,-2
1517206634193014,-5,2,4,0,1,0,-2,-2
1517206634206023,1,-3,0,0,0,0,2,1
1517206634206023,2,-1,-3,0,-1,0,-2,-1
1517206634214039,0,0,1,0,0,-1,0,0
1517206634214039,-1,2,-2,0,-3,-3,0,-2
1517206634230039,-2,-6,-7,-4,-2,-1,-1,-1
1517206634230039,0,3,2,0,-1,0,-1,-1
1517206634231540,0,0,0,-1,0,0,-1,1
1517206634231540,0,-3,-3,-1,-2,-2,-1,0
1517206634252067,-4,-1,0,-4,-1,0,0,-3
1517206634252067,1,-1,1,3,0,-1,1,0
1517206634254068,0,0,-4,0,0,0,-2,-1
1517206634254068,0,0,1,-3,-1,-2,1,1
1517206634266064,-1,1,3,1,1,-2,-1,1
1517206634266064,-2,-1,-3,-4,-2,-1,-3,-1
1517206634275070,-2,-3,-1,-1,-1,-2,-2,-2
1517206634275070,0,-1,-1,0,-1,-1,0,0
1517206634290134,0,1,-2,-3,-4,-1,-3,-3
1517206634290134,-1,-2,-1,-1,0,-2,-1,0
1517206634291649,1,2,-1,-1,-1,-1,-1,-1
1517206634291649,-1,-1,3,0,0,1,-1,0
1517206634312650,-2,-2,-4,-4,-3,-1,-2,-1
1517206634312650,-1,1,0,-1,-1,-1,-1,-2
1517206634314151,-1,0,-1,-2,-1,-2,-1,0
1517206634314151,-1,0,-3,-2,-1,0,0,-1
1517206634326179,-1,-2,0,-1,-1,-1,-2,-1
1517206634326179,-1,-1,-1,-1,0,-2,-1,0
1517206634335176,0,-2,-2,0,-1,-3,-1,-1
1517206634335176,-2,-2,-2,-2,-1,-1,-4,-2
1517206634350176,0,-1,-1,0,-3,-1,-1,-1
1517206634350176,-1,-1,0,1,-2,-1,0,-2
1517206634351678,0,0,-1,-1,-1,-1,-1,0
1517206634351678,1,0,0,0,-1,-1,-2,-1
1517206634372204,-1,-2,-1,-3,-3,-1,-1,-1
1517206634372204,0,-1,-2,-1,-1,1,0,0
1517206634373693,-1,1,0,-1,0,0,0,-2
1517206634373693,-1,-1,0,-2,1,0,1,-2
1517206634394730,0,-2,-2,0,0,0,-1,0
1517206634394730,-1,1,0,-1,-1,0,-3,0
1517206634396721,-3,-2,-1,0,-1,0,-2,-1
1517206634396721,-2,-2,0,-2,-1,-2,-3,-2
1517206634417226,0,-1,0,-2,-1,1,0,-2
1517206634417226,-1,-1,-4,-1,-3,-1,0,1
1517206634418725,0,-2,-2,-1,-2,0,-1,-1
1517206634418725,-1,-2,1,-2,-2,0,-2,0
1517206634432735,0,-1,-1,-1,1,0,-1,-1
1517206634432735,0,-1,-1,-3,0,-2,-1,-2
1517206634434236,-1,1,-1,-1,0,-1,0,-1
1517206634434236,-1,-1,-1,-1,0,-2,0,-1
1517206634454765,0,0,1,0,0,-3,-2,0
1517206634454765,-2,-4,-1,-1,-1,-2,-1,-1
1517206634456251,-1,-2,-1,-3,-2,-1,-2,0
1517206634456251,-3,0,-4,-1,-2,-3,0,-1
1517206634469771,-3,-1,-1,-1,-1,-3,0,-1
1517206634469771,1,0,0,0,1,-1,-1,0
1517206634471263,0,-2,-1,-1,0,-1,-2,-1
1517206634471263,-1,-1,-1,-1,-2,-1,0,1
1517206634492793,-1,-1,-1,-2,-1,-1,0,0
1517206634492793,1,-1,0,-3,-3,0,-1,-3
1517206634494279,-3,-2,-1,-2,-2,-1,0,-3
1517206634494279,0,-1,-2,0,-2,-2,-3,0
1517206634515294,-2,-1,-2,-1,1,-1,-2,-1
1517206634515294,-1,-1,0,0,-2,-1,-2,-2
1517206634516797,0,0,0,-1,-1,-1,-1,0
1517206634516797,-2,-1,-1,-2,-1,0,-1,-3
1517206634529826,-1,-2,0,-2,-2,0,-1,0
1517206634529826,-1,-1,-1,-2,1,0,0,0
1517206634531805,-2,-1,-2,-1,-1,-1,-1,1
1517206634531805,-1,-1,-2,0,-2,-1,1,-2
1517206634552325,-2,-1,-1,-1,-2,-2,2,-2
1517206634552325,0,-2,0,-1,-2,-1,0,-1
1517206634553821,-2,-1,-2,0,-2,-1,0,1
1517206634553821,0,-2,-1,-2,-1,-2,-2,-2
1517206634574845,-1,0,-2,-2,-1,-2,0,-2
1517206634574845,-1,1,-1,0,0,-1,0,0
1517206634576338,-1,-1,-3,-1,-1,1,-1,-2
1517206634576338,-1,0,0,0,0,-1,-1,1
1517206634589846,-2,-1,-2,-2,-1,-1,0,-2
1517206634589846,-1,0,-2,0,0,0,-1,-1
1517206634591348,1,-1,-1,-2,-1,1,-1,-1
1517206634591348,-1,0,-2,-1,-1,1,0,-1
1517206634612422,-2,-3,-1,-1,0,-1,-1,-3
1517206634612422,-1,-3,-1,-2,0,-1,0,0
1517206634613878,-1,-1,-2,-1,0,-1,0,-3
1517206634613878,0,-1,-1,-2,-2,-1,-1,0
1517206634634880,-1,1,0,0,0,0,0,1
1517206634634880,-1,-2,-1,0,-1,-2,-4,-2
1517206634636380,-1,0,-2,-1,-2,-1,-1,0
1517206634636380,0,-1,-1,-2,-2,-1,-2,1
1517206634649389,0,-1,-1,-2,0,-2,-2,0
1517206634649389,0,-1,-1,-1,-1,1,-2,-2
1517206634655907,0,-1,-1,-1,0,-1,-1,-2
1517206634655907,-3,0,-2,0,0,0,-1,-2
1517206634672435,0,-2,-1,1,-2,-1,-3,-2
1517206634672435,-3,-1,-2,0,-2,-1,0,-1
1517206634673936,-1,-1,0,-2,-2,-1,-2,-1
1517206634673936,1,0,-1,-1,0,-2,-1,-2
1517206634694961,-1,-1,0,1,-2,-2,-1,-1
1517206634694961,0,-1,-1,-1,1,0,0,-2
1517206634696476,-1,-3,-1,0,0,-4,1,-1
1517206634696476,0,0,-1,-1,0,-2,-1,1
1517206634708963,-2,-2,-2,-2,-2,-2,-1,-2
1517206634708963,0,0,-1,0,0,-1,0,0
1517206634716485,-3,-2,-1,-1,-1,-1,-2,-2
1517206634716485,0,-2,0,0,1,0,1,0
1517206634732490,-2,-1,-1,-1,-1,0,0,0
1517206634732490,-2,1,-2,-1,-2,-1,-2,-1
1517206634733981,0,0,1,-2,-2,-1,-2,-1
1517206634733981,-1,-2,-3,-2,-1,-1,-1,-3
1517206634755008,-1,-1,-1,0,-1,-1,-1,-2
1517206634755008,-1,0,0,-1,-2,0,1,-1
1517206634756509,-1,-1,-1,0,0,-1,-1,0
1517206634756509,-2,1,-1,0,-2,-2,-1,0
1517206634769003,1,-1,-1,0,0,1,0,0
1517206634769003,0,-1,-2,-2,-1,-2,-2,-1
1517206634777509,-1,-1,-2,-1,-1,1,-1,-1
1517206634777509,0,0,1,-2,-1,-3,-2,-2
1517206634792559,1,-1,-2,-1,0,1,-1,0
1517206634792559,-2,-2,0,-1,-2,-2,-2,-2
1517206634794036,0,-1,-1,-1,-1,-1,-1,-1
1517206634794036,-1,0,-2,-2,0,-2,-1,-1
1517206634815048,-1,0,0,-1,-1,-2,-1,-1
1517206634815048,-2,-1,-1,0,0,-1,0,1
1517206634816548,-1,0,-2,-1,-1,2,-2,-1
1517206634816548,1,-2,-1,0,0,0,-2,-2
1517206634829055,-1,-3,0,-1,-1,-2,-2,-2
1517206634829055,0,0,0,0,-2,-1,1,-1
1517206634836052,-2,-1,0,-1,-1,-3,1,-1
1517206634836052,-2,-2,0,-1,-1,-1,-2,0
1517206634852062,-2,0,-1,0,-1,1,-1,-1
1517206634852062,-2,-2,0,-1,0,0,0,1
1517206634854064,-2,0,1,0,-1,-3,-1,-1
1517206634854064,-2,-2,-1,-1,-2,-1,-1,-3
1517206634875095,-1,-1,-1,-2,-1,-2,-2,-1
1517206634875095,-1,-1,-2,-2,-2,-3,-3,-2
1517206634876587,0,-2,0,-1,-2,-1,-2,-1
1517206634876587,-1,-1,0,2,-1,0,1,0
1517206634889098,-2,0,-3,0,-3,-1,-1,-2
1517206634889098,-1,-2,-2,-2,-2,-1,-2,-1
1517206634896108,-1,-1,-1,-1,-2,0,-1,-2
1517206634896108,0,0,0,-1,-1,1,0,0
1517206634912123,-1,-1,-1,-1,-1,-2,-1,-1
1517206634912123,1,-1,-1,-2,0,0,0,0
1517206634914106,-1,-2,-2,-2,-1,0,0,-1
1517206634914106,0,-2,-1,-2,-1,-2,-1,-1
1517206634935122,0,-1,-1,0,0,-1,1,0
1517206634935122,-1,0,0,-1,0,-1,-1,-1
1517206634936622,-1,-1,-1,0,-1,-3,-1,-1
1517206634936622,0,-2,-1,-2,-1,-1,-2,-2
1517206634948631,-1,-2,-1,-3,-1,-2,-2,-2
1517206634948631,0,-1,-1,0,-2,1,-1,-2
1517206634957636,0,0,0,0,-1,-3,-1,-1
1517206634957636,-2,-1,-1,0,-1,-2,-1,0
1517206634972147,-2,-1,0,-2,-1,0,-2,-2
1517206634972147,-1,0,-2,-1,1,-1,-1,0
1517206634974149,-1,0,-2,0,-1,0,-2,-1
1517206634974149,0,0,-2,-2,-1,-1,0,-1
1517206634994663,-1,0,0,-1,-1,-1,0,-1
1517206634994663,-2,-2,0,-1,-2,-1,-1,0
1517206634996680,-1,-1,1,-2,0,1,-1,-1
1517206634996680,0,-1,-1,0,0,-1,0,-2
1517206635008683,0,0,-2,0,-1,-1,-2,-1
1517206635008683,-3,-2,-1,-1,0,-1,-2,-1
1517206635017681,-1,-1,-2,-2,-1,-1,-1,0
1517206635017681,-1,-2,0,-2,0,0,-1,0
1517206635032204,0,-1,-1,-1,0,-2,-2,0
1517206635032204,-1,-1,-3,1,-1,-1,-1,-3
1517206635034192,0,-1,-2,0,-2,0,1,0
1517206635034192,-3,-1,-1,0,-2,-1,-1,0
1517206635054716,-1,-1,0,0,-2,-1,0,0
1517206635054716,-1,-1,-1,-3,-1,-3,-1,-1
1517206635056206,1,-1,-1,0,0,0,-1,-1
1517206635056206,-1,0,-2,-2,-2,-2,-1,-1
1517206635068726,-1,-1,0,0,0,1,1,-3
1517206635068726,-1,-1,-2,0,-1,-1,-1,-2
1517206635077741,-2,-2,-2,-2,-1,-2,-1,-3
1517206635077741,0,-1,-3,1,-2,1,-1,0
1517206635092247,-3,-1,-2,3,-2,0,-2,0
1517206635092247,1,0,-1,-1,-1,-2,0,0
1517206635094247,-1,-2,0,0,0,-2,-1,-1
1517206635094247,0,-1,0,-1,-1,-3,-1,0
1517206635114751,0,-1,-2,-2,-2,-1,-3,-4
1517206635114751,0,-1,-3,-2,-2,0,3,0
1517206635116250,-3,-1,-3,-3,-2,1,8,2
1517206635116250,0,1,-1,0,0,-4,-28,-13
1517206635128767,-3,-3,-3,-2,-3,0,4,13
1517206635128767,0,2,0,-2,-2,-5,-11,-7
1517206635137290,-1,0,0,0,0,-1,-2,-1
1517206635137290,-2,-1,-1,0,0,0,7,1
1517206635152316,1,1,-2,-2,0,-1,-7,-4
1517206635152316,-1,-1,-2,-2,-2,1,3,1
1517206635153812,-1,0,0,0,-2,0,2,1
1517206635153812,-2,-2,0,0,-3,-3,0,1
1517206635174856,0,-1,-1,-1,-1,-1,5,-2
1517206635174856,-1,1,1,-1,-1,1,3,1
1517206635176318,0,-1,-2,-2,0,-2,-5,-3
1517206635176318,-3,-3,0,-2,-2,1,3,2
1517206635188327,-1,-2,0,-1,0,-1,-2,-3
1517206635188327,-2,-2,-2,-1,-1,0,0,0
1517206635197334,-2,-1,0,-1,-2,-2,-6,-2
1517206635197334,-1,-1,-1,-2,-1,1,2,1
1517206635212861,-1,-1,0,-2,0,-2,0,-2
1517206635212861,-2,-2,-2,0,-1,0,-4,-1
1517206635214347,0,-1,-2,0,1,0,1,-2
1517206635214347,-1,-1,-2,-1,-1,0,3,-1
1517206635234860,0,-1,0,0,-1,-1,-4,-3
1517206635234860,0,-1,-1,0,-1,0,0,0
1517206635236376,-1,-2,-1,0,-1,-3,-2,-2
1517206635236376,0,-1,-1,-1,-2,-3,0,-1
1517206635248871,0,0,-3,-1,0,-2,-2,-2
1517206635248871,-1,-1,0,-1,-1,-1,-2,-1
1517206635257376,-1,0,-2,-1,0,-1,0,0
1517206635257376,-1,-3,-1,-2,0,1,0,1
1517206635272387,-3,-2,-1,1,-2,-1,0,-1
1517206635272387,-3,-1,0,-2,-1,-1,0,0
1517206635273896,-1,-1,-1,-2,0,-1,-1,-3
1517206635273896,-3,0,-1,-1,1,-2,-1,-1
1517206635294912,-2,-1,-2,-2,-2,-2,-2,-2
1517206635294912,-1,-2,-2,0,-1,-1,-1,-1
1517206635296403,-2,-1,-1,-2,-2,-1,-3,0
1517206635296403,-1,-1,-2,0,0,-1,0,-2
1517206635308439,-1,0,0,0,0,-1,-1,-3
1517206635308439,-1,0,-2,-2,0,-3,0,0
1517206635324979,-2,-2,-1,-2,-1,-2,-3,-3
1517206635324979,0,-1,-2,-1,-1,-1,0,-1
1517206635332447,-1,-2,-1,-3,-3,0,-1,-2
1517206635332447,0,0,-1,0,-1,0,-3,-2
1517206635333948,0,-2,-1,0,0,-1,-1,-1
1517206635333948,-3,-1,0,0,-1,-2,1,0
1517206635354980,-1,-1,0,-1,0,-2,-1,-1
1517206635354980,-1,-2,-1,-2,-3,-1,0,-1
1517206635356476,1,-1,-3,-1,-1,1,-1,-1
1517206635356476,-2,0,-1,-1,1,-2,-3,-1
1517206635368471,-2,-1,-2,-2,-1,0,0,0
1517206635368471,-2,-2,-2,-1,0,-1,-1,-1
1517206635377496,-2,-1,-2,0,0,0,-1,-2
1517206635377496,-1,-2,-1,-1,-3,-2,0,-1
1517206635392503,-2,-1,-1,0,0,-1,0,-3
1517206635392503,-1,-1,-1,0,0,-1,-1,-1
1517206635394012,-1,-1,0,-1,-2,-3,-1,1
1517206635394012,0,-1,-2,-1,-2,-1,0,-1
1517206635415011,-1,-2,0,-1,-1,-1,0,0
1517206635415011,0,-2,-1,-2,0,-2,-1,-2
1517206635416508,-2,-1,-2,-2,-1,0,2,0
1517206635416508,1,-2,0,-2,-1,0,-1,-1
1517206635437521,-1,-1,-1,-3,-1,-3,-2,-2
1517206635437521,-1,0,-2,-2,-1,0,0,-1
1517206635439022,-2,-1,-1,-1,-2,-2,-3,-1
1517206635439022,0,-1,-2,-1,-1,-1,-1,-1
1517206635451532,-2,0,-1,0,-2,-2,-1,-2
1517206635451532,-1,-2,-2,-1,0,-2,0,-1
1517206635458536,-3,0,-1,-2,-1,-1,-2,-1
1517206635458536,0,-1,-2,-2,-1,0,1,0
1517206635475047,-1,-1,0,0,-2,-2,1,-1
1517206635475047,-1,0,-1,-1,-2,-1,-2,-1
1517206635476564,0,-2,0,-1,-1,-1,-2,-2
1517206635476564,-2,0,-1,-1,0,-1,-1,0
1517206635497563,-2,-2,-2,-2,0,0,-1,-2
1517206635497563,0,-1,0,0,-1,-2,-1,-1
1517206635499064,-2,-1,-1,-1,-1,-1,1,0
1517206635499064,-1,-1,-1,-2,-1,1,-1,-1
1517206635512074,1,-1,-2,-1,-2,0,-1,1
1517206635512074,-1,-1,-1,0,0,0,-2,-1
1517206635514086,0,-2,-2,-1,-2,-1,-2,1
1517206635514086,-2,-1,1,0,-3,-2,-1,-2
1517206635534651,0,-1,-1,-1,0,-2,-1,0
1517206635534651,-1,0,-1,-1,-2,0,-2,-1
1517206635536155,0,0,-1,0,-1,0,0,-2
1517206635536155,0,-1,-5,0,0,-1,-2,-2
1517206635557179,-1,0,-2,0,-1,-2,0,-1
1517206635557179,-2,-1,1,-2,-1,0,0,-1
1517206635559195,-1,0,-1,0,-2,-2,0,-1
1517206635559195,-1,0,0,-2,-1,-1,0,-1
1517206635571681,0,0,0,-1,0,2,0,-1
1517206635571681,-1,-2,-3,-1,-2,-1,0,-1
1517206635578742,-1,-2,-2,-2,-1,-1,-2,-1
1517206635578742,-1,0,-3,-1,-2,-1,-2,-3
1517206635594772,-2,-1,-1,-2,1,-2,-1,-1
1517206635594772,-1,0,0,-2,-2,-1,-1,-1
1517206635596273,-1,0,0,1,-1,-1,-1,0
1517206635596273,-2,-1,1,0,-2,-1,-1,-2
1517206635617265,-3,0,-1,-1,-2,-1,-1,3
1517206635617265,-2,-1,-3,-1,-2,-2,0,-1
1517206635618771,-1,-2,-1,-1,-1,-2,-2,-1
1517206635618771,-1,-1,0,1,-1,-1,0,-1
1517206635631776,1,-2,-3,-1,-3,-2,-1,-1
1517206635631776,-2,-1,-2,-1,0,-1,-1,-2
1517206635638782,-1,0,-2,-2,0,0,-1,1
1517206635638782,0,0,-1,-1,-2,-2,-1,1
1517206635662367,0,0,0,0,-2,0,-1,-1
1517206635662367,-2,0,0,-1,-2,-2,0,-1
1517206635663809,-2,-2,0,-1,0,0,1,-1
1517206635663809,-1,-2,-1,-3,-1,0,-3,-1
1517206635677330,-1,-3,-1,-1,-1,0,-1,-3
1517206635677330,0,-2,-1,1,1,0,0,-1
1517206635678810,0,0,0,-1,-1,-2,-1,-2
1517206635678810,-1,0,0,0,-2,0,-1,0
1517206635691845,-1,-2,1,0,0,-1,-1,-2
1517206635691845,-1,-1,-1,-1,-1,-1,-2,-1
1517206635698362,-1,-1,-3,-1,-2,-1,0,-1
1517206635698362,-1,-2,-1,-1,-2,-1,0,0
1517206635714872,-3,0,-2,-1,-1,0,-1,0
1517206635714872,-3,-1,0,-2,0,0,0,0
1517206635716375,0,0,-1,-2,-1,-2,0,-1
1517206635716375,0,-2,-1,-1,-1,-1,-1,-1
1517206635737889,-3,0,-2,-1,-1,-1,0,-1
1517206635737889,-3,-1,-1,-1,0,-3,-2,0
1517206635739890,-1,-2,-1,-2,-2,-1,-2,-2
1517206635739890,0,-1,-2,1,0,-1,-2,-1
1517206635751900,-1,-2,-1,-3,0,-2,-1,-2
1517206635751900,0,-2,-2,-1,-2,0,-3,0
1517206635758430,-1,-1,0,0,-1,0,-1,0
1517206635758430,-3,-1,-1,-1,-3,-1,-2,-2
1517206635774918,-2,-2,-3,-1,-1,-1,-1,-4
1517206635774918,0,0,-1,0,-1,-1,1,1
1517206635776416,0,-3,-1,-1,-1,-1,-2,-1
1517206635776416,-3,-2,0,-2,-1,0,1,1
1517206635797431,0,-2,-1,-1,0,-1,-2,-1
1517206635797431,0,0,0,-2,-1,-1,-2,-2
1517206635798933,-2,0,-1,-1,1,0,-2,0
1517206635798933,-1,0,0,-2,-1,-1,1,-3
1517206635811957,-2,1,-2,-1,-1,-1,-2,-1
1517206635811957,-1,-1,0,0,-1,-1,-2,0
1517206635818445,-1,-2,-1,-1,-1,-2,0,-2
1517206635818445,-1,-2,-1,-1,-1,0,0,-2
1517206635834957,-2,-1,0,-1,-1,-1,-1,0
1517206635834957,1,-2,-1,-2,-2,-1,-2,-2
1517206635836459,-1,1,0,-1,-1,-2,-1,-2
1517206635836459,0,0,-1,-2,-1,-3,0,-2
1517206635857476,1,0,0,-1,-2,-1,0,0
1517206635857476,0,-2,-1,0,-2,0,2,0
1517206635858974,-3,-2,-2,-1,-1,-1,-1,1
1517206635858974,-1,-1,-2,-1,0,-3,-1,-2
1517206635871983,0,-1,-2,-2,1,-1,-2,-1
1517206635871983,-1,-1,0,-3,-1,-1,0,-1
1517206635878491,-1,-1,-1,0,-2,-1,-1,0
1517206635878491,-2,-1,-1,1,-1,0,-1,-1
1517206635894999,-2,-1,-2,-1,-1,0,0,-1
1517206635894999,0,0,-2,-2,0,-1,-2,-2
1517206635896516,-1,0,0,-1,0,-1,-1,-1
1517206635896516,-1,-1,0,-1,0,-2,0,0
1517206635917529,1,-1,1,-2,-1,1,-2,-2
1517206635917529,-2,-1,-1,0,-1,0,-2,-1
1517206635919017,1,-2,-2,-2,-2,-1,-2,-1
1517206635919017,-1,0,-1,-2,0,-1,-2,-1
1517206635931025,-1,-1,-1,0,-1,0,-1,0
1517206635931025,-2,0,-1,0,-1,-1,-2,-3
1517206635940031,0,0,0,-1,-1,-1,-2,-2
1517206635940031,-1,-1,-2,-2,-1,-2,0,0
1517206635954624,-2,-1,0,0,-3,0,0,1
1517206635954624,0,-1,-2,-1,-2,0,-1,-3
1517206635956625,-2,-2,-1,-2,-1,0,1,0
1517206635956625,1,-2,1,-1,-2,0,-1,0
1517206635977132,1,-1,-2,-1,0,-2,0,-1
1517206635977132,-2,0,-1,0,0,-2,-2,-1
1517206635979130,0,-1,0,-1,0,-1,-1,-2
1517206635979130,-3,-2,0,1,-2,-2,-1,-2
1517206635991139,-2,-2,1,-2,-1,-1,0,-1
1517206635991139,-2,-1,1,-1,-1,-2,-1,-1
1517206636000147,-2,-1,-1,-1,0,-2,-2,-2
1517206636000147,-1,-2,-1,-2,-1,-1,-1,0
1517206636015157,-2,-1,0,-2,0,-4,-3,-2
1517206636015157,-1,-1,-1,0,0,-3,1,-1
1517206636016156,-1,-1,-2,0,-2,0,-1,-1
1517206636016156,-1,-1,-1,-2,-2,0,-1,-1
1517206636037171,0,-2,-1,-3,-1,-2,0,0
1517206636037171,-2,-2,-2,-3,-1,0,-1,1
1517206636038672,-1,-1,0,-1,-1,-2,-2,-1
1517206636038672,-1,-2,0,-1,-1,0,-2,-1
1517206636051218,-2,-1,0,-1,-1,0,0,-1
1517206636051218,-1,-2,-2,-1,0,-1,0,-1
1517206636060237,-1,-1,-1,-1,-2,0,-1,0
1517206636060237,-1,0,-2,-1,0,0,-1,-1
1517206636074732,-3,0,-2,-1,0,0,0,0
1517206636074732,0,-3,0,-1,-1,-2,-1,-1
1517206636076230,-2,0,-1,-1,-2,-1,1,-1
1517206636076230,0,-2,0,0,1,-3,-3,0
1517206636097245,-1,0,-3,-1,-1,1,-1,2
1517206636097245,-2,-1,-1,-2,0,0,-1,-2
1517206636099246,-1,0,-1,-2,-1,-1,-1,-3
1517206636099246,-1,-2,-1,0,-1,-1,-1,1
1517206636110804,-1,1,-1,-1,-2,-2,-2,-3
1517206636110804,-1,-1,-2,1,-3,-2,-1,-1
1517206636119795,-1,0,-1,-2,0,-1,-1,-1
1517206636119795,-1,1,-2,-1,-1,-1,0,-2
1517206636134806,0,-2,-1,-2,-1,-1,-1,-1
1517206636134806,0,-1,0,-1,0,0,-2,0
1517206636136308,-1,-2,-2,-2,-1,-1,-1,-2
1517206636136308,-1,-2,0,0,0,-1,-2,-2
1517206636157334,-1,-2,-1,-2,-2,0,-1,0
1517206636157334,-1,-2,-1,0,-3,-1,-1,1
1517206636158834,-2,-2,-1,-1,-1,0,-2,-1
1517206636158834,-2,-3,-1,0,0,-2,-1,-1
1517206636170842,-1,-1,0,0,-1,-2,-1,-1
1517206636170842,-1,-2,-2,-3,-2,-1,-1,-1
1517206636179894,0,-2,-1,-1,1,0,-2,-1
1517206636179894,0,-1,-1,-1,-1,0,1,-1
1517206636194901,0,-1,-3,-1,-1,-2,-1,-2
1517206636194901,-1,-1,-2,-1,0,-1,0,0
1517206636196393,-1,-1,-2,0,-1,-2,-1,0
1517206636196393,1,-2,0,-2,-2,-1,0,-2
1517206636217408,-1,-1,-1,1,-1,0,0,-1
1517206636217408,0,0,-1,-2,-1,-2,0,-3
1517206636219032,-1,-1,-2,-2,-1,-1,-2,0
1517206636219032,-2,0,0,-2,-1,0,-1,0
1517206636231043,-1,-1,-1,-1,-2,-3,-1,-3
1517206636231043,-1,-1,-2,-1,1,-1,-1,-2
1517206636240072,-2,-2,0,1,0,-2,-1,-1
1517206636240072,-1,-1,-2,0,0,-1,-1,-1
1517206636254604,-1,-1,-2,-2,-1,0,-1,-1
1517206636254604,-1,0,-2,-1,-1,-1,0,-1
1517206636256605,-1,-1,-1,-1,-1,0,0,-3
1517206636256605,-1,-1,-2,-2,-1,-2,-2,-1
1517206636277172,-1,-3,1,0,-1,0,-2,-1
1517206636277172,-2,-1,0,-1,-1,0,-1,-1
1517206636278648,0,-1,-2,-1,0,-1,-1,-1
1517206636278648,-1,-1,-2,0,-2,-1,-1,0
1517206636291156,-3,-1,-1,-1,-1,-1,-1,-3
1517206636291156,0,-1,0,-1,-1,0,-1,-3
1517206636307691,0,-2,-1,-1,1,-1,-2,0
1517206636307691,0,-2,0,-2,-1,-2,-2,-1
1517206636314675,0,-3,-1,-1,-1,-1,-1,0
1517206636314675,-1,-2,0,-1,-2,-1,-2,0
1517206636316677,-1,-1,1,-3,-1,-1,-2,-2
1517206636316677,-1,0,-2,-1,0,0,-1,-1
1517206636337190,-1,-1,-1,-1,-1,-1,-1,0
1517206636337190,0,0,-1,1,0,-1,-2,0
1517206636338690,-2,-1,-1,-1,-3,-1,0,-1
1517206636338690,-3,0,-1,0,-1,1,-2,-2
1517206636359724,-2,0,-1,0,-1,-3,0,0
1517206636359724,-1,0,-1,-1,0,0,0,-1
1517206636361206,0,0,-1,0,-1,-1,-1,-2
1517206636361206,0,-3,-2,-1,-2,-1,0,-1
1517206636374740,-2,-1,-1,1,-1,0,-1,-2
1517206636374740,-1,-2,-1,-2,0,-1,0,0
1517206636376217,-1,-1,-3,0,0,-2,-2,-1
1517206636376217,-1,0,0,-1,0,-4,-1,-3
1517206636397244,2,2,0,-1,2,2,1,5
1517206636397244,-2,-1,-1,-3,-1,-2,1,-1
1517206636398734,0,-1,0,-1,-1,-2,1,1
1517206636398734,-2,-3,-3,-1,0,-1,0,-1
1517206636419748,-1,-2,-1,-1,-1,-1,-2,-4
1517206636419748,0,-1,-3,-2,-1,-1,-1,-2
1517206636421250,-1,-1,-2,-1,0,-1,-1,0
1517206636421250,-2,-1,-3,-1,-2,-2,0,-1
1517206636434259,0,-3,0,-2,-1,-2,-2,-1
1517206636434259,0,-2,0,-1,-1,1,-1,0
1517206636440784,-1,-1,0,-2,0,-1,-3,-1
1517206636440784,-1,0,1,-1,0,0,-1,0
1517206636457284,-2,0,-2,-1,-2,0,-1,-3
1517206636457284,-1,-1,-3,0,-2,-2,-2,-2
1517206636458781,0,-1,-1,-1,-1,-1,0,-2
1517206636458781,0,-1,-2,-1,-1,-1,-1,-2
1517206636479805,0,-1,-2,-1,-1,1,0,1
1517206636479805,-2,0,0,0,-1,-1,-1,0
1517206636481293,-1,1,-2,0,-2,0,-1,-3
1517206636481293,-2,0,-2,-2,-2,-1,0,-1
1517206636494303,-1,-2,-1,-1,-1,-3,-3,-2
1517206636494303,-1,-2,-1,-2,-1,-2,-1,0
1517206636500805,-3,-1,0,0,0,0,1,-1
1517206636500805,1,1,-1,-1,0,0,-2,0
1517206636517817,-1,1,-2,-2,-1,-1,-3,0
1517206636517817,-1,-1,0,-1,0,-1,-1,-2
1517206636519319,0,-2,-3,-1,-1,-1,-1,-1
1517206636519319,-2,-2,-1,-1,-3,-3,-1,-1
1517206636539848,1,-1,-1,-2,-1,0,0,-2
1517206636539848,-1,1,-1,-1,-3,-1,-3,0
1517206636541334,-1,-1,-2,-2,0,-1,-2,-2
1517206636541334,-1,-1,-2,0,-2,0,-2,-1
1517206636554357,-2,-1,-1,-1,-1,-1,-2,-1
1517206636554357,-1,-2,-1,-1,0,0,0,0
1517206636560875,0,-1,-2,-1,-1,-2,0,0
1517206636560875,0,-1,1,-1,0,-1,-1,1
1517206636577383,-2,1,-3,-2,-2,-2,1,-1
1517206636577383,-3,-2,-3,0,-1,0,0,-3
1517206636578862,-1,-1,-1,-1,1,-2,-1,-1
1517206636578862,-1,-1,0,-1,0,-1,-1,-1
1517206636600376,-1,-2,0,1,-1,-1,-1,-1
1517206636600376,-2,-1,0,-1,-1,-3,-1,1
1517206636601877,0,0,-1,-1,-1,0,-2,0
1517206636601877,-1,-1,-1,-1,-1,1,-1,-1
1517206636614386,-1,-1,-2,0,-2,-2,0,-1
1517206636614386,0,0,0,0,-1,-1,0,1
1517206636620896,-2,-2,-1,-2,-2,-1,-1,-2
1517206636620896,-3,-3,-1,-1,-2,-1,0,-1
1517206636637927,-1,-1,0,-2,-1,-1,-2,-2
1517206636637927,-2,-1,-2,0,-2,-1,-1,-2
1517206636639425,0,-1,0,-1,-1,-3,0,0
1517206636639425,-2,0,-2,0,0,-1,0,-1
1517206636659943,-1,-1,-2,-2,0,-2,-1,-1
1517206636659943,-1,0,-1,-3,-1,-2,-2,-1
1517206636661442,-2,0,-1,-1,-2,2,0,-1
1517206636661442,-2,-1,-1,-2,-2,-3,-2,0
1517206636673954,-3,-1,0,-1,-1,-1,0,-2
1517206636673954,-1,-2,-3,-3,-1,-1,-3,0
1517206636680933,1,-2,-1,0,0,0,0,-1
1517206636680933,0,0,0,-1,-1,-2,0,0
1517206636697445,-1,-1,-1,0,-1,-3,-2,-1
1517206636697445,0,-1,-1,0,-2,-2,0,-2
1517206636698946,-2,0,0,0,-1,-1,-2,-2
1517206636698946,-1,-1,-2,-1,-1,0,-1,-2
1517206636719969,0,-3,-1,-2,-2,0,-1,0
1517206636719969,-2,-2,-1,-1,-1,-1,-1,-2
1517206636721462,-2,-2,-3,-1,-1,-2,-1,0
1517206636721462,0,-1,1,0,0,-2,-1,0
1517206636734473,-2,-1,0,-2,-1,-2,0,0
1517206636734473,-3,-1,0,-1,-2,0,-2,-1
1517206636740998,-1,0,-2,-1,-2,-2,-1,-2
1517206636740998,0,2,-1,0,0,0,-1,0
1517206636757498,1,0,-1,-1,-3,1,-2,-2
1517206636757498,0,1,-1,-1,0,-1,-1,1
1517206636759015,-1,-3,-1,-1,-1,-1,-1,0
1517206636759015,1,-1,0,-1,-1,0,0,0
1517206636780002,-2,-1,0,0,0,-1,-1,-1
1517206636780002,-1,-1,-2,-1,-1,-1,0,-1
1517206636781503,-1,1,0,-1,-2,-1,-3,-1
1517206636781503,-1,-1,-3,-1,-1,-1,0,-2
1517206636794051,0,-2,0,0,0,-1,-2,0
1517206636794051,-1,-1,-2,-2,0,-1,-1,-1
1517206636801033,0,0,-1,-2,-1,-1,-2,1
1517206636801033,-1,-4,-3,-3,-3,0,-1,-1
1517206636817538,-1,-1,-1,-3,-1,-1,0,-1
1517206636817538,-2,0,-1,-1,-2,0,-1,-1
1517206636819030,-2,-2,-3,-2,0,-3,-2,0
1517206636819030,-2,0,-2,-1,-2,0,-1,-2
1517206636840055,1,-1,-1,0,-1,-1,-1,1
1517206636840055,2,-1,-2,-2,-1,0,-2,-2
1517206636841555,-1,-1,0,-1,0,-1,0,-1
1517206636841555,-2,-1,-2,-1,-1,-1,-1,0
1517206636853567,-2,0,-3,-2,0,-1,0,-1
1517206636853567,-2,-1,-2,0,-1,-2,-1,0
1517206636862561,0,0,-1,-1,0,-1,-1,1
1517206636862561,2,-1,0,-1,-3,-1,-1,-1
1517206636877087,-1,-1,-1,0,-1,1,-1,0
1517206636877087,0,-2,-1,-1,0,-1,-2,-2
1517206636879072,-1,-1,-2,-2,-1,-1,-1,0
1517206636879072,-1,-1,0,-1,-2,-1,0,-1
1517206636900087,-3,-1,-2,-2,-1,-3,-2,-1
1517206636900087,-1,-2,-2,0,-2,-1,-2,-1
1517206636901601,-2,-2,1,0,-2,-1,-3,-1
1517206636901601,0,-2,-1,-2,-1,-2,-1,0
1517206636914097,-3,-1,-2,0,1,-2,-1,1
1517206636914097,-2,-1,-2,0,0,-2,-1,-1
1517206636922603,-2,1,-2,0,-2,0,0,-2
1517206636922603,-1,0,-1,-2,0,-1,-2,0
1517206636937121,-2,-1,0,-2,-1,0,0,-2
1517206636937121,-1,0,0,0,-1,-1,-1,0
1517206636939125,-1,-2,-1,0,-2,-1,-2,-2
1517206636939125,-2,0,-2,0,0,-2,0,-1
1517206636959654,-1,-2,-1,0,-2,-1,-1,-1
1517206636959654,-1,-1,-2,-2,-1,-3,-1,-1
1517206636961631,0,-1,0,-2,-1,-1,0,-1
1517206636961631,-1,-2,-1,0,0,0,0,-1
1517206636973650,0,0,-2,0,-2,-2,-2,-1
1517206636973650,-2,0,-1,-2,-2,1,-1,-1
1517206636982650,-1,-1,-3,-1,-2,-2,-2,0
1517206636982650,0,-2,1,-2,-2,-2,-1,-1
1517206636997178,0,-1,-1,-1,-1,0,0,-3
1517206636997178,-2,-1,0,-2,-2,-2,0,0
1517206636999158,-2,-2,-1,-2,-2,-1,-2,-2
1517206636999158,-1,-1,-2,-3,-2,-2,0,-1
1517206637019674,-1,-1,-1,0,-2,0,0,0
1517206637019674,-2,-2,0,1,-2,0,-2,-1
1517206637021175,0,-1,-1,-1,0,0,1,1
1517206637021175,-1,-2,-2,0,-1,-2,-2,0
1517206637033683,-1,-1,-1,-1,-1,-1,-1,0
1517206637033683,-1,-1,-2,-3,0,0,0,-2
1517206637043220,0,-2,0,-2,-1,0,0,-2
1517206637043220,1,-1,-1,-1,-1,1,-1,-2
1517206637057199,0,-2,-2,-1,-2,-1,-2,0
1517206637057199,0,-1,0,-1,0,-4,-2,-1
1517206637058701,0,-1,-1,-1,1,2,-1,-2
1517206637058701,-2,-3,-1,-1,0,-1,-1,0
1517206637079730,-3,0,0,-3,-1,-1,0,-2
1517206637079730,-2,0,-2,0,1,0,-2,0
1517206637081216,-4,-2,-2,1,-2,-3,-1,-1
1517206637081216,0,0,0,0,-2,0,-1,0
1517206637093239,-1,-2,1,-2,-1,-2,-1,-2
1517206637093239,1,-1,-1,-3,-1,0,0,1
1517206637102230,-1,0,-2,-1,-1,-2,-1,-1
1517206637102230,-3,-2,-2,0,-1,-1,-1,-1
1517206637117242,-1,-2,-2,0,0,-3,0,-1
1517206637117242,-1,-1,-3,-1,-1,1,0,-1
1517206637118745,0,0,-1,-2,-1,-1,-2,-2
1517206637118745,-2,-1,-1,-1,-1,-1,-1,0
1517206637139785,-2,1,0,0,-2,1,-1,-1
1517206637139785,-2,0,-2,-2,-2,-1,-2,0
1517206637141771,-1,-3,-1,-2,-1,-1,-1,1
1517206637141771,0,2,-1,-1,0,-1,-3,-1
1517206637153267,0,-2,-1,0,-1,-1,-2,0
1517206637153267,-1,-2,-1,-1,-1,-2,-1,-1
1517206637162273,-2,-2,0,-2,-1,-2,-1,-1
1517206637162273,-3,0,1,-2,0,-2,-1,-1
1517206637177293,-2,-1,0,-1,-1,-1,-1,0
1517206637177293,0,-1,-1,-1,-1,-1,-3,-2
1517206637178795,-2,0,-2,-1,-1,-2,-1,1
1517206637178795,0,-2,-2,-1,-1,0,0,-2
1517206637199806,0,0,-3,-2,-2,-2,-2,-1
1517206637199806,0,-1,-1,0,-1,-1,0,-2
1517206637201304,0,-1,0,-1,-2,-1,-2,-3
1517206637201304,-1,0,-2,0,-3,-1,-1,0
1517206637213343,-2,-2,-1,-1,-1,-2,-1,-1
1517206637213343,0,1,0,1,-2,0,0,0
1517206637222315,-1,-1,0,-2,-1,-1,0,-1
1517206637222315,0,-3,-3,-2,0,-2,0,-1
1517206637237330,0,-3,-1,0,-1,0,-2,-2
1517206637237330,-1,-1,0,0,-1,-2,-1,-1
1517206637238828,-3,-2,-1,-2,-1,2,-2,-1
1517206637238828,-1,-2,-1,-2,-2,0,-1,0
1517206637259862,-2,-1,-3,-2,0,-1,0,0
1517206637259862,-2,-1,-1,0,0,-3,-1,-2
1517206637261343,-1,-1,-1,-1,-1,1,-1,-1
1517206637261343,-1,-1,-1,-3,-1,-2,-2,-2
1517206637282360,-2,-1,-1,-1,-2,0,-1,0
1517206637282360,0,-1,-2,-1,-3,0,-1,0
1517206637283860,0,-2,-2,0,-1,-1,0,0
1517206637283860,-2,0,-2,-1,-2,-1,-2,-1
1517206637297390,0,-1,-1,-1,1,-1,-2,-2
1517206637297390,-1,-2,0,-2,0,-2,-1,-1
1517206637298871,0,-1,-2,-2,-1,-2,-3,-1
1517206637298871,-3,-1,0,-1,-2,-2,0,-1
1517206637319884,-1,-1,-2,0,-3,-1,0,-1
1517206637319884,-1,-2,0,-1,-2,-2,-1,0
1517206637321385,-1,0,-2,0,0,-2,0,-1
1517206637321385,-1,-2,-1,0,0,0,-2,-2
1517206637342423,-2,0,-1,-2,-1,0,0,0
1517206637342423,-2,-1,-2,-3,-1,0,-2,0
1517206637344912,-1,0,-2,-1,-1,-2,0,-1
1517206637344912,-1,-1,-1,0,-2,-1,0,-1
1517206637357426,0,-2,-3,-1,-2,-2,-1,0
1517206637357426,0,-1,-1,0,-1,-1,0,0
1517206637358926,0,-1,0,-1,-1,0,-2,0
1517206637358926,1,-1,0,-2,-1,0,-2,-1
1517206637379949,-1,-2,-1,-1,-1,-1,-1,-1
1517206637379949,-2,-2,-2,-2,-1,2,-2,-1
1517206637381429,0,-2,-1,-1,-1,1,-1,-1
1517206637381429,0,-1,-1,-1,-1,0,-1,1
1517206637402445,-4,-2,-2,-2,-1,-2,-1,-2
1517206637402445,-2,-2,-1,-1,-1,-1,0,-1
1517206637403945,-3,-2,1,-1,-3,-2,-1,-3
1517206637403945,1,-2,-2,-1,-1,-1,-1,-3
1517206637417455,-1,0,-1,-2,-1,-1,0,-2
1517206637417455,-2,-2,-2,-2,0,-1,-1,-1
1517206637418955,-1,-2,-2,0,-1,-1,-2,-1
1517206637418955,-2,0,-1,-1,-1,-1,-1,-1
1517206637439997,-1,-1,-2,-1,0,1,-2,-1
1517206637439997,-1,-1,-1,0,-2,0,-2,-2
1517206637442485,0,0,-1,-1,0,-3,-1,1
1517206637442485,0,-1,-1,-1,-1,-1,-2,0
1517206637462496,0,-1,-1,-1,-1,-1,0,-1
1517206637462496,-1,0,-2,0,-2,-2,0,-1
1517206637463987,-1,-2,-2,-2,-1,-1,-1,-2
1517206637463987,-1,-1,0,-2,-1,0,0,0
1517206637476535,-1,-1,-1,-1,-2,-1,0,0
1517206637476535,-2,-2,0,-1,-1,0,-1,-1
1517206637483511,-3,-1,0,-1,-1,-1,-2,-1
1517206637483511,-2,0,-1,-1,-1,0,-1,-1
1517206637500014,1,0,0,-2,-1,-1,-1,-1
1517206637500014,1,-3,-1,-1,-2,-2,-1,-2
1517206637501514,-1,0,-1,-1,1,-1,-1,-1
1517206637501514,0,-1,-1,0,-3,0,0,0
1517206637522528,-2,0,0,-1,-1,-1,0,-1
1517206637522528,-2,-1,0,-1,0,0,-2,0
1517206637524031,1,-2,0,-1,0,0,-1,-1
1517206637524031,-1,-1,-1,-1,0,0,-1,0
1517206637536540,-1,-1,-2,0,-1,-1,-2,-2
1517206637536540,0,-2,-2,0,0,-1,-1,0
1517206637543563,-2,-1,-1,-2,-1,-1,-1,-2
1517206637543563,0,1,-2,-2,1,-1,0,0
1517206637560065,1,-2,-1,-2,-2,-1,-1,0
1517206637560065,-1,-1,-1,-1,0,-2,-1,-2
1517206637561592,-3,1,-2,-1,0,-1,-1,-3
1517206637561592,-1,-3,0,-2,-2,-5,-2,0
1517206637582570,-3,-1,-1,0,-1,0,-1,0
1517206637582570,-1,0,-1,0,-2,0,-1,0
1517206637584071,-3,-1,-2,-1,-3,0,1,-1
1517206637584071,-1,-2,-1,-2,0,0,-1,-2
1517206637596590,0,-2,0,0,-1,-1,-2,-3
1517206637596590,-1,0,-2,-1,0,0,0,0
1517206637603627,-1,-2,0,0,-2,-2,-1,-2
1517206637603627,-1,-2,-1,-1,-1,-2,-1,-1
1517206637619626,-2,-2,-1,-1,-1,-1,0,-2
1517206637619626,-1,-1,-2,-1,-2,-1,-1,-2
1517206637621627,2,-2,-2,-2,-1,-2,-1,-1
1517206637621627,0,0,-1,-1,0,0,0,-2
1517206637642639,0,-1,0,0,-1,0,0,0
1517206637642639,-1,-1,-2,-1,-2,-1,0,0
1517206637644662,-1,0,-2,0,-1,-2,0,0
1517206637644662,-2,-1,-4,-1,-1,-2,-2,-2
1517206637656659,0,-1,-1,-2,0,-2,-2,-1
1517206637656659,-3,-1,1,-2,-2,0,-1,0
1517206637663163,1,-3,-1,-2,-1,0,-1,0
1517206637663163,-1,1,-2,-1,-2,1,-1,-2
1517206637679668,-3,-1,-2,-2,0,-1,-1,-1
1517206637679668,-1,-1,-1,-1,-1,-3,-1,-3
1517206637681167,-1,-2,1,-1,-2,-1,-2,0
1517206637681167,-1,0,-1,0,-1,0,0,-1
1517206637702182,0,0,-2,0,-1,-2,-1,0
1517206637702182,-1,-1,-2,0,-1,-2,-2,-2
1517206637703682,-2,-3,-2,-1,-1,0,1,0
1517206637703682,-1,-1,-1,-1,-1,-1,-1,0
1517206637724721,-2,0,-2,-2,0,0,0,-1
1517206637724721,0,-2,-1,-2,-1,-1,-1,0
1517206637726698,1,1,-2,-2,-1,-2,0,-1
1517206637726698,-2,-2,-1,-2,2,-1,-2,0
1517206637739708,-1,-1,-1,-2,-2,1,-2,-1
1517206637739708,-1,0,-1,-2,0,0,-1,-2
1517206637745728,-2,-1,-1,-1,-1,1,-1,-1
1517206637745728,-1,-1,-1,0,-2,-2,1,0
1517206637762283,0,-1,-1,0,-1,-1,-1,-1
1517206637762283,-1,-2,-2,0,-2,-1,-2,-2
1517206637763727,1,0,-2,-1,-1,-1,-1,-3
1517206637763727,-2,-1,-1,0,-1,-1,-1,-2
1517206637775757,-3,-2,-2,-1,-1,-1,-3,-1
1517206637775757,2,-1,0,0,-1,0,1,2
1517206637784742,0,0,0,1,-1,-1,-2,-2
1517206637784742,0,0,-1,-2,-1,1,-2,-1
1517206637799751,-1,0,0,-3,-1,-3,-1,-2
1517206637799751,-1,-1,-2,-2,0,1,0,-1
1517206637801252,-3,-2,-2,-1,0,0,-1,-2
1517206637801252,0,-2,-2,0,0,-1,-1,0
1517206637821779,-1,-1,-1,-1,-2,1,0,-1
1517206637821779,0,-1,-2,-1,-3,-3,-2,-1
1517206637829772,-1,0,1,0,1,0,-1,0
1517206637829772,-2,-1,-2,0,0,-1,0,-1
1517206637835777,1,-1,-1,0,1,0,-1,-1
1517206637835777,0,-1,-1,-1,0,-2,-1,-1
1517206637844782,-1,-1,-2,-1,-2,-1,-1,0
1517206637844782,-1,-1,-1,-1,-2,-2,-2,0
1517206637859803,-2,-2,0,0,-2,0,1,-1
1517206637859803,-1,2,-2,-1,-1,-1,0,-2
1517206637861294,-2,-2,-1,-2,-3,-4,0,0
1517206637861294,-1,0,-1,-1,-2,0,-1,-1
1517206637882308,1,0,-1,-1,-1,-1,-2,-2
1517206637882308,0,-1,-1,-1,-3,-1,-2,0
1517206637883810,0,-3,-1,-3,-1,-2,-2,-1
1517206637883810,-1,-2,0,0,0,0,-2,-1
1517206637895818,-1,-1,0,0,-2,-1,-2,-1
1517206637895818,-1,0,-1,-1,-1,0,-2,0
1517206637904829,-1,0,-3,-2,-1,-1,-2,0
1517206637904829,-2,-1,-3,-2,-3,-2,-1,-3
1517206637919838,-1,0,-2,0,0,-2,-1,1
1517206637919838,-3,-2,0,0,-1,-1,-1,0
1517206637921351,-2,-1,0,0,-1,0,0,-1
1517206637921351,0,-1,0,-1,0,-1,-1,-1
1517206637942852,-1,-1,0,0,-1,-3,-1,-1
1517206637942852,-1,-2,-1,-1,-1,-2,-2,-2
1517206637944853,0,-2,0,1,0,-2,0,-1
1517206637944853,1,0,-1,-1,-2,-1,0,0
1517206637955873,-1,-1,0,-1,-1,-1,-2,-1
1517206637955873,0,0,-1,-1,0,-1,-1,-1
1517206637964867,0,-3,-1,0,-2,-1,-2,-2
1517206637964867,-1,-2,-3,0,-1,0,-2,0
1517206637979881,-2,-2,-2,-1,-2,-1,-1,-2
1517206637979881,-2,-2,-1,-2,-1,-2,-1,-1
1517206637981379,1,-1,-2,1,-1,-1,0,0
1517206637981379,0,-1,-1,0,1,-1,-2,-2
1517206638002420,1,-1,-1,-3,-2,-2,-1,1
1517206638002420,-1,-3,-1,1,1,-1,0,-2
1517206638003895,-1,-1,0,-3,-3,-2,-2,-1
1517206638003895,-1,0,-1,-1,-1,0,0,-1
1517206638024925,-1,-3,-2,-2,0,0,-1,-2
1517206638024925,0,-1,-2,-1,-1,-2,-2,-1
1517206638026426,0,-1,0,-1,-1,-2,0,0
1517206638026426,-2,-2,0,-1,-2,-3,-1,-1
1517206638039941,-1,1,-1,-1,-1,-2,-1,-1
1517206638039941,-1,0,-2,-2,-3,0,0,-1
1517206638041422,-1,-1,-2,-1,1,2,0,0
1517206638041422,-1,-2,-2,-2,-2,0,-2,-1
1517206638062467,-1,-1,-1,-1,0,0,-2,0
1517206638062467,0,-2,1,-3,-1,-1,0,1
1517206638063968,-2,0,-1,0,-2,-1,-1,-1
1517206638063968,-1,-1,-2,-2,-1,-1,0,-1
1517206638075961,-3,-1,-2,-1,-2,-2,-1,-2
1517206638075961,-2,-2,-2,0,-2,-1,1,-2
1517206638084952,-1,-1,0,-1,-2,-3,-2,-1
1517206638084952,-2,-2,0,-2,-1,-2,-2,0
1517206638099963,-1,-3,0,-1,-2,-1,0,-1
1517206638099963,-2,0,-1,-2,0,0,-1,0
1517206638101464,-1,0,-1,-2,0,-2,-1,-1
1517206638101464,-1,-1,0,0,-1,-1,-2,-2
1517206638122480,0,0,-1,-1,-1,0,-2,-1
1517206638122480,-2,-2,-2,-3,-1,-1,-1,0
1517206638123995,0,-2,-2,-2,-1,0,-1,-1
1517206638123995,-1,-1,-1,2,0,-1,0,-1
1517206638135989,-1,0,-1,-1,-1,-2,0,-2
1517206638135989,1,0,-1,-1,-1,-1,-1,0
1517206638145011,-2,0,-1,-1,-2,0,0,0
1517206638145011,-1,-2,-1,-2,-1,-2,0,0
1517206638160014,0,-3,-1,-1,-3,-1,-1,-1
1517206638160014,-2,0,-1,-1,0,0,-1,-1
1517206638161525,0,-1,-1,-2,0,-2,-3,0
1517206638161525,-1,-1,-1,-2,-2,-1,0,1
1517206638182523,-3,-1,-2,-3,-1,-1,-1,-1
1517206638182523,0,-1,0,0,-3,0,-1,0
1517206638184023,-3,0,-2,-2,-1,-2,-1,-3
1517206638184023,-1,0,-1,0,-2,0,-1,-1
1517206638196051,0,-1,0,2,0,-1,-2,0
1517206638196051,-2,-1,-1,-2,-1,-3,-1,0
1517206638205047,-1,-2,-1,-2,-1,1,0,0
1517206638205047,-2,0,-1,-1,0,-1,-1,0
1517206638220047,0,0,-1,-1,0,-2,-2,-2
1517206638220047,-1,-3,-2,0,0,-1,-1,0
1517206638221550,-2,0,-2,-1,-2,-2,-1,-1
1517206638221550,-1,-1,0,-1,-2,0,-1,-1
1517206638242564,-1,0,0,-1,-1,0,-1,1
1517206638242564,-2,-2,-2,-1,-1,0,1,-2
1517206638248569,0,-1,0,1,-1,-1,0,-2
1517206638248569,-1,-2,-2,-3,1,-2,0,0
1517206638272088,-1,-2,-1,-1,-2,-2,0,-1
1517206638272088,-1,-1,-2,0,-2,1,-2,0
1517206638274106,-1,-1,-2,1,-2,0,-1,1
1517206638274106,-1,-2,-2,0,-2,-2,0,-2
1517206638279606,-2,1,0,-1,-2,-1,0,-1
1517206638279606,-2,0,-1,-1,0,-2,-2,0
1517206638281595,-1,-1,-2,-1,0,0,-2,-2
1517206638281595,1,-1,-1,0,-2,0,0,1
1517206638302614,-1,-3,-2,-2,-2,-1,-2,0
1517206638302614,-1,0,1,0,-1,-1,0,-1
1517206638304608,-1,-1,-1,0,1,-1,1,-2
1517206638304608,-1,0,-2,-1,-1,-2,-1,-1
1517206638324644,-1,0,-1,-3,1,0,0,-2
1517206638324644,-2,0,-1,-2,0,-1,-1,0
1517206638326633,-1,-2,0,0,-2,-2,0,-1
1517206638326633,-2,-2,-1,-1,0,0,-2,-2
1517206638339656,0,-1,-3,1,-3,-2,-1,-1
1517206638339656,-1,-1,0,0,-2,-1,-1,-1
1517206638341633,0,-1,-1,-1,-1,-1,-1,0
1517206638341633,-1,0,-1,-2,-2,-3,-2,-2
1517206638362148,-1,1,-2,1,-2,-1,-2,0
1517206638362148,-2,1,-1,-1,0,-1,0,-2
1517206638363649,-1,-1,-2,-1,-2,-2,-1,-2
1517206638363649,-1,-3,-1,-2,-1,0,1,-1
1517206638384680,-3,-2,-2,-2,-1,-2,-2,-2
1517206638384680,1,-1,0,-1,-1,0,2,-1
1517206638386166,-1,-1,-2,-2,-2,0,-3,-1
1517206638386166,-1,-1,0,-1,-1,-1,-1,0
1517206638399175,0,-1,-1,0,-1,1,-2,-1
1517206638399175,0,-2,0,-1,-2,-2,-1,-3
1517206638405679,-1,-2,0,0,0,0,-1,0
1517206638405679,0,-1,-2,-1,0,0,-2,-2
1517206638421189,0,-4,0,-1,-1,1,-1,0
1517206638421189,-1,-1,-1,0,-1,-1,-1,-1
1517206638429696,-2,-2,0,-2,-2,0,0,0
1517206638429696,-2,0,0,0,-2,-1,-3,-1
1517206638444706,0,-1,-1,0,1,1,-1,-1
1517206638444706,-3,-2,-2,0,-1,-1,-1,-2
1517206638446208,-1,0,-2,0,-2,-3,-1,0
1517206638446208,-1,-2,0,0,0,-1,-3,-2
1517206638459244,-1,-2,0,-2,-1,-1,1,-2
1517206638459244,0,-2,-2,-1,0,-2,-1,1
1517206638465731,-1,-1,-2,-1,-1,-1,-1,-1
1517206638465731,-2,-1,-1,-1,-1,0,-2,0
1517206638482234,-3,0,-1,1,-1,-1,-1,-1
1517206638482234,1,-2,0,-2,-1,0,0,-3
1517206638483734,-3,-1,-1,0,-2,-2,-1,1
1517206638483734,0,-1,-1,-2,-1,-2,1,-1
1517206638504758,0,-1,-3,-1,-1,0,-1,1
1517206638504758,-1,-1,-1,0,-1,0,-2,-3
1517206638506250,-1,-2,-1,-2,0,-1,-1,-2
1517206638506250,-3,0,-2,0,0,-1,-1,0
1517206638519259,-1,-2,0,0,0,-2,-2,-1
1517206638519259,-3,-2,-1,-1,0,0,-1,-2
1517206638525791,0,-1,-1,-2,-2,-2,-1,0
1517206638525791,-2,0,-1,-2,-1,-1,-1,-1
1517206638542275,-1,-3,-3,-2,-1,-1,-2,-2
1517206638542275,1,-2,-2,0,-1,-1,0,1
1517206638544777,-2,0,-1,-2,0,0,-1,-1
1517206638544777,-1,-1,0,-1,-1,-1,-2,-1
1517206638564801,-2,0,-2,-1,-1,-1,0,-2
1517206638564801,-1,-1,0,0,-2,-1,-1,-1
1517206638566294,-2,-1,0,0,-1,-1,0,0
1517206638566294,-1,-1,-1,-1,-1,-1,-1,-2
1517206638579339,-1,0,0,-3,-1,-1,0,0
1517206638579339,-1,-1,0,-1,0,-1,-2,-1
1517206638586308,-2,-2,0,-2,-1,-1,-1,-2
1517206638586308,0,-3,-3,-1,-1,-2,-1,-2
1517206638601817,-2,-1,-1,-1,0,-2,-1,-1
1517206638601817,-2,0,-1,-1,-2,0,-1,-1
1517206638602329,-1,-1,-2,-1,0,1,-1,0
1517206638602329,-1,0,-1,0,-1,-1,-1,-1
1517206638623848,0,-1,-1,0,-2,-2,0,-3
1517206638623848,-1,0,-2,-2,0,-2,0,-1
1517206638624851,1,0,-1,0,1,-1,1,-1
1517206638624851,-1,-2,-1,-2,0,-2,-1,-3
1517206638638343,-1,-1,-1,-1,-2,-1,-3,-1
1517206638638343,0,-1,-1,-1,0,0,-1,0
1517206638646349,-2,-2,-1,-1,-1,-1,-2,-2
1517206638646349,-1,-1,-1,-1,0,0,0,0
1517206638661888,0,-1,-1,-1,-1,0,-1,0
1517206638661888,0,-1,0,-2,0,0,-2,-2
1517206638662883,-2,-2,-1,-1,-2,-2,0,-3
1517206638662883,-1,-1,0,0,-2,-2,-1,0
1517206638683876,-2,-2,1,-1,-1,-2,-1,-3
1517206638683876,-1,-1,-4,-1,-1,-1,0,-1
1517206638684879,0,-1,0,-2,0,-2,0,-3
1517206638684879,-2,0,-1,-2,0,-1,-1,0
1517206638698386,0,-2,-1,1,0,-1,0,0
1517206638698386,0,-1,0,0,-1,-2,-1,-1
1517206638706404,-1,-1,-2,0,-2,0,-2,-1
1517206638706404,-2,-1,-1,-2,-3,2,0,-1
1517206638721413,-2,0,0,-3,-2,-3,-1,0
1517206638721413,-1,0,-1,-1,0,-1,-1,-3
1517206638722416,-1,0,0,-2,-1,-2,-1,0
1517206638722416,1,0,-2,-1,-1,-2,-1,1
1517206638743921,0,-2,-2,-2,-1,-1,-1,0
1517206638743921,-1,-1,0,0,-3,-2,-3,-1
1517206638744934,0,-1,-2,-1,1,1,0,-1
1517206638744934,-2,-1,-2,-1,0,-1,-1,-2
1517206638758429,1,0,-2,0,-1,-2,-1,-1
1517206638758429,-1,1,-2,-1,-1,-3,1,-1
1517206638766437,-1,0,-1,-2,-2,1,-1,0
1517206638766437,-1,-1,0,-2,-1,2,-1,-1
1517206638781445,0,-2,0,-1,-2,-1,0,-1
1517206638781445,-1,-1,0,0,-2,-1,-1,-2
1517206638782447,-1,-1,-1,-1,-2,-1,0,-1
1517206638782447,-2,0,-1,-1,-2,-1,-1,-1
1517206638803970,-1,1,-2,-3,-1,-2,-1,-2
1517206638803970,0,-2,-1,-2,-1,0,-2,0
1517206638804971,-2,0,-1,-1,-1,-1,-2,0
1517206638804971,0,-1,-1,-1,0,-3,-2,-1
1517206638818472,-1,-1,-3,-1,0,-1,0,-3
1517206638818472,-1,0,-2,-4,-1,-3,-1,0
1517206638826479,-2,0,-2,-1,-1,0,-1,-2
1517206638826479,0,-1,0,-2,0,-2,-1,0
1517206638841487,-2,-2,0,1,-1,0,-2,1
1517206638841487,0,-1,-2,0,-1,1,0,0
1517206638843489,0,-3,-2,-1,0,-1,-1,-2
1517206638843489,0,-1,0,-1,-2,0,-1,-3
1517206638864026,1,-1,-3,-2,-2,-1,-2,-1
1517206638864026,-1,-1,-2,-1,-1,-1,-1,0
1517206638865013,0,-1,-1,0,-1,-2,-1,-3
1517206638865013,0,-1,-3,-2,-1,-1,0,-2
1517206638878513,-3,-1,0,1,-2,-1,-2,-1
1517206638878513,-2,-1,0,-1,-1,-1,-2,-2
1517206638886518,-1,0,-2,-1,0,-1,-3,-1
1517206638886518,-1,-2,0,0,-2,0,0,-1
1517206638910046,0,1,0,-1,-1,-1,0,-2
1517206638910046,0,-1,-1,-1,1,-1,-1,-1
1517206638910541,-1,-1,-1,0,-1,-1,1,-2
1517206638910541,-2,-1,-2,0,-1,0,0,-2
1517206638924060,1,-1,-3,-1,-1,-1,-1,0
1517206638924060,-2,-3,0,-1,-2,-1,-1,-1
1517206638925061,-2,-3,0,-2,0,0,-1,-2
1517206638925061,0,-1,0,-1,0,0,0,-1
1517206638938556,-3,1,-1,-2,1,-1,0,-2
1517206638938556,-2,-2,-1,-1,-1,-1,-1,-2
1517206638946576,-1,-1,-2,0,-3,-1,-1,0
1517206638946576,-1,-2,-1,-2,-1,-2,-2,-2
1517206638961626,-2,-2,0,0,1,-1,-3,-2
1517206638961626,-1,1,-2,-1,-2,-2,0,-2
1517206638962626,0,-2,-1,-2,-2,-1,0,-1
1517206638962626,0,0,-1,-1,-1,-1,-2,-2
1517206638984089,0,-3,-2,-3,-2,-2,-1,-1
1517206638984089,-1,-1,-1,-2,-2,-2,0,0
1517206638985089,-1,0,-1,0,-1,-3,-3,-2
1517206638985089,-2,-1,-2,0,-1,-1,1,0
1517206638998600,-2,0,-2,-2,-1,-1,-1,0
1517206638998600,1,0,-1,0,-1,0,-1,0
1517206639006613,-2,-1,-1,-2,0,0,0,-1
1517206639006613,-1,-2,-2,-3,-2,-1,-1,-2
1517206639021615,-1,0,-2,1,-1,-1,0,0
1517206639021615,0,-1,0,0,0,0,0,-2
1517206639022615,-2,0,-2,-2,-1,-1,0,1
1517206639022615,0,0,-1,-1,1,-3,-3,0
1517206639044133,0,-3,0,-2,-1,-1,0,-1
1517206639044133,-1,-1,-2,-1,-1,0,-1,0
1517206639045131,0,0,-1,-3,-1,-1,-2,-1
1517206639045131,-2,0,0,0,-3,-1,-2,-1
1517206639058650,-1,-3,-2,-2,-2,0,-2,0
1517206639058650,0,-1,-1,1,-1,-2,-1,-2
1517206639066646,0,0,0,0,-2,0,-1,0
1517206639066646,-1,-1,-2,0,-1,-1,1,-2
1517206639081670,0,1,-1,0,-1,-3,-1,-2
1517206639081670,-2,-2,-1,-3,-1,0,-1,-1
1517206639082172,-2,0,-1,-2,-1,-2,-2,0
1517206639082172,-1,-1,-1,-2,-1,0,-2,-2
1517206639104183,0,-2,-1,-1,0,1,-1,0
1517206639104183,-3,-1,-3,-1,1,-1,1,-2
1517206639104673,-1,-2,0,0,-1,-2,0,-1
1517206639104673,-2,-1,-2,-1,0,-2,-1,0
1517206639118690,-2,-2,-1,0,0,-1,0,0
1517206639118690,0,-1,0,0,-1,0,-3,-1
1517206639134193,1,-1,0,0,0,1,-2,-1
1517206639134193,-2,0,-2,-1,-2,-1,1,-1
1517206639141699,-2,0,-1,-2,-2,0,-2,-2
1517206639141699,-2,-1,-1,-1,-2,-2,0,-2
1517206639143216,-2,-3,-1,1,-1,-1,-3,-2
1517206639143216,-1,0,0,0,0,0,-3,1
1517206639164736,0,0,-1,-1,0,1,0,-1
1517206639164736,-1,-1,0,-1,-1,0,1,0
1517206639165716,-1,-1,-2,-2,-2,-1,1,-1
1517206639165716,-1,-1,0,-2,-2,-3,-3,0
1517206639187234,-1,-1,1,1,-3,-2,-1,-1
1517206639187234,-2,-2,-1,-2,-1,-2,-2,-2
1517206639188234,-1,-1,-1,0,0,-2,-2,-2
1517206639188234,0,-2,-1,-1,0,0,-2,-3
1517206639201746,-2,-1,-2,-1,-1,-1,-1,-2
1517206639201746,0,-2,-1,-1,-1,-3,-2,-1
1517206639202242,0,0,0,-1,0,1,0,-1
1517206639202242,-1,-2,-1,-1,-2,1,-2,0
1517206639224258,0,0,-1,-1,-1,-1,-1,1
1517206639224258,-2,-1,-3,-2,-1,-2,-3,0
1517206639224758,-1,-1,-2,-1,-1,-1,0,0
1517206639224758,-1,-1,-1,-2,-1,0,1,-2
1517206639247305,-2,-1,-1,-1,-1,-1,-1,-2
1517206639247305,-1,-2,-1,-1,-2,0,-1,-2
1517206639247802,1,-1,-1,-1,-1,-2,-1,-2
1517206639247802,-1,1,-2,-1,-2,1,-1,-3
1517206639261816,-1,-3,0,-1,0,-2,-1,0
1517206639261816,0,1,-1,-1,0,-1,-2,0
1517206639262314,-2,-2,-1,-1,-1,-1,0,-2
1517206639262314,0,-1,-1,0,-2,0,-1,0
1517206639284329,-2,-1,-2,0,-2,-2,0,-1
1517206639284329,-1,0,0,-1,-2,-1,-2,-1
1517206639284828,-2,-1,-1,-1,-2,0,0,-1
1517206639284828,1,0,-1,-1,-1,-2,0,0
1517206639307384,-1,-1,-3,-1,-1,-2,-1,-1
1517206639307384,-2,-1,-2,-2,0,0,-1,-1
1517206639307896,-1,0,-1,-1,-2,-2,-1,-1
1517206639307896,0,-1,-3,0,-2,-1,1,-1
1517206639321404,0,0,-1,-2,-1,-1,-3,-3
1517206639321404,-1,-1,0,-1,-2,-1,0,-1
1517206639322395,1,-3,-2,0,0,0,-3,0
1517206639322395,-1,-1,0,0,-1,0,-2,-1
1517206639343912,-1,0,-2,-2,-3,0,0,-2
1517206639343912,0,-1,-1,-1,-1,-1,1,-1
1517206639344913,-1,0,-1,-1,1,0,-1,-1
1517206639344913,-1,-1,0,-1,-1,-3,-1,0
1517206639366426,-1,-1,-1,0,1,1,0,-1
1517206639366426,0,-1,-1,-1,-1,0,-1,-2
1517206639373931,-2,-1,0,-1,-2,1,-3,-1
1517206639373931,-1,0,-1,0,0,-2,-1,-1
1517206639381440,0,1,-1,-2,-1,-2,-2,0
1517206639381440,-1,-2,-1,-1,-2,-1,-1,0
1517206639382438,0,0,-2,-2,0,-1,0,-1
1517206639382438,-1,-4,-3,0,-2,-3,-1,-1
1517206639403952,0,-1,0,-2,-2,-1,-2,0
1517206639403952,0,-2,-2,-1,1,-2,-2,-1
1517206639404953,-1,-1,-1,0,-2,-3,0,-2
1517206639404953,-1,-1,-1,-1,0,0,-1,0
1517206639427468,-1,0,-2,-1,1,-1,0,-1
1517206639427468,-1,-1,0,-1,-2,1,-2,-1
1517206639427969,0,0,-1,-1,-1,-2,-2,0
1517206639427969,0,0,0,-2,0,-1,-3,-1
1517206639441482,1,-1,-2,-1,-1,0,-1,-1
1517206639441482,0,-1,-1,0,0,0,-2,0
1517206639443487,-2,-1,-1,-2,0,0,-1,0
1517206639443487,-1,1,-3,0,0,-1,-1,0
1517206639464015,-2,-2,-2,-1,-1,-1,-2,0
1517206639464015,-1,-3,1,-1,-1,0,-1,-1
1517206639464995,0,-1,0,-2,-2,-3,-1,0
1517206639464995,-2,-1,-2,-1,-2,-1,0,-1
1517206639495016,0,0,0,0,-3,0,0,-1
1517206639495016,-2,-1,-1,-2,0,-2,-1,0
1517206639495517,-1,0,-1,-2,0,-1,-2,-1
1517206639495517,-1,-2,0,-1,0,0,0,-3
1517206639501531,-1,-1,-3,0,-1,0,-1,-1
1517206639501531,-2,1,-1,-1,-2,-2,-1,-1
1517206639502524,-2,0,-1,0,-2,-1,-1,-2
1517206639502524,1,0,-1,-1,1,-1,-1,0
1517206639524090,1,-1,0,0,0,-1,-2,0
1517206639524090,0,-1,-2,0,-1,-1,0,0
1517206639525091,-1,-2,-2,-3,-1,-3,-2,0
1517206639525091,-1,1,0,-4,-3,1,-1,0
1517206639547177,-2,-3,0,-1,-1,0,-1,0
1517206639547177,-2,1,-1,-1,-1,0,1,-3
1517206639548164,-1,-2,-1,0,1,0,1,-1
1517206639548164,-2,-1,1,0,-2,-1,-2,-2
1517206639561684,-1,-1,-1,-1,1,-1,-1,-1
1517206639561684,-1,-2,-1,-1,-1,-2,0,-1
1517206639562163,-1,0,-1,-2,-2,0,-2,-2
1517206639562163,1,-1,0,0,-1,-1,-2,-3
1517206639584189,-2,-2,-1,-1,0,0,-1,0
1517206639584189,-2,-1,-1,-1,1,0,-1,-2
1517206639584679,-2,0,-2,0,-2,-3,0,-1
1517206639584679,-1,-1,-1,-2,0,0,1,-1
1517206639607205,-1,1,0,-1,-3,-2,0,-1
1517206639607205,-1,-2,-2,-2,-2,-3,-2,-1
1517206639608213,0,-3,0,1,0,-1,-1,-1
1517206639608213,-1,-1,-2,0,1,-1,0,1
1517206639621719,1,-1,0,-1,-1,-1,0,-1
1517206639621719,0,-2,-1,-1,-1,-1,-2,-1
1517206639622206,-1,-3,0,0,0,0,-1,-2
1517206639622206,-1,-1,-2,-1,-1,-2,1,-1
1517206639644221,-1,-2,0,-2,0,0,-1,-1
1517206639644221,-1,0,-1,-2,-1,-1,0,-1
1517206639644722,-1,0,-2,-2,0,1,0,1
1517206639644722,-2,-2,-2,-2,-2,-1,-1,0
1517206639667247,-1,-3,-1,-1,-1,-2,-1,-2
1517206639667247,0,-2,-2,-1,-3,-1,-1,1
1517206639668240,-1,-1,0,-2,-2,-1,-1,-1
1517206639668240,-2,0,-1,-1,0,-1,0,-1
1517206639689766,-1,0,-2,-2,-1,-2,0,0
1517206639689766,0,-3,-1,1,0,-2,-1,-1
1517206639690269,-1,0,-1,-2,0,-1,-2,-1
1517206639690269,-1,-1,0,1,-3,0,-2,-1
1517206639703777,-1,-2,-1,0,0,0,-2,-2
1517206639703777,-2,0,2,-1,-1,-1,-2,1
1517206639704778,-1,-2,-2,-2,-3,0,0,-1
1517206639704778,1,-2,-1,0,-1,-3,-1,0
1517206639727280,-1,0,1,0,-1,-1,-3,-1
1517206639727280,-2,1,-2,-3,-2,-2,-2,-2
1517206639727781,-1,-2,-1,-1,-1,-1,-2,0
1517206639727781,1,-2,-2,-1,-1,-1,-2,-1
1517206639741305,-1,-1,-1,-1,-2,0,0,0
1517206639741305,0,-1,-3,-2,-1,0,-1,-1
1517206639742291,-2,0,0,0,0,-2,-1,-2
1517206639742291,-1,-1,-3,-1,-1,-2,0,-2
1517206639763833,-2,-1,0,-1,0,-1,1,1
1517206639763833,-1,-1,-1,-3,0,1,0,-2
1517206639764833,-1,0,-1,0,-1,0,0,-1
1517206639764833,-1,-1,-1,1,0,0,-2,-2
1517206639787324,0,1,-2,-2,-3,-2,-3,-1
1517206639787324,-1,1,1,-1,0,0,0,0
1517206639787824,-1,-2,-1,-3,-1,0,-2,0
1517206639787824,-1,-1,-1,-1,-1,0,0,-1
1517206639801337,-2,-1,-2,0,-1,-1,-2,-1
1517206639801337,0,-2,-1,1,0,1,-1,-1
1517206639808855,-2,-1,0,0,-2,-2,-2,0
1517206639808855,-2,0,0,-1,-1,0,-2,-1
1517206639823852,-1,-2,0,-1,0,-1,0,-2
1517206639823852,-2,-2,0,-1,1,-2,0,-1
1517206639824849,0,-2,-1,-2,0,-2,-2,0
1517206639824849,0,-3,-2,-1,0,0,-2,0
1517206639847379,-3,0,-3,-1,-1,-1,-1,-1
1517206639847379,-1,0,0,0,-2,-1,-2,-2
1517206639847866,0,-3,-2,0,-1,-2,0,1
1517206639847866,-1,1,-1,-1,-1,-2,-2,-1
1517206639860933,-2,0,-2,0,-1,-2,-2,-1
1517206639860933,0,-1,-1,-1,0,-1,-1,-1
1517206639868880,0,-2,0,-1,-1,-2,-1,-2
1517206639868880,-1,0,-1,0,-2,0,0,-1
1517206639884407,0,-1,-2,-1,-2,-3,-1,-1
1517206639884407,-2,0,-1,-1,-2,-1,-1,1
1517206639884891,-1,-2,-2,-1,-1,0,-2,-1
1517206639884891,-1,-2,-2,-2,-1,0,1,-1
1517206639906924,-2,0,-1,0,-1,1,-2,-3
1517206639906924,-1,-2,0,-1,-1,-2,-1,-1
1517206639907908,-2,-1,-2,-1,-1,0,0,-1
1517206639907908,0,-2,1,-2,-2,-2,-2,0
1517206639920917,0,-3,-1,-3,1,2,-1,-1
1517206639920917,-1,-1,-2,-2,-1,-1,-1,-1
1517206639928923,-1,0,-1,0,-1,-1,-1,-1
1517206639928923,-1,0,-1,-2,-1,0,0,0
1517206639943958,0,-2,-2,1,-2,-2,-1,-3
1517206639943958,-1,-1,-1,0,-3,-1,-2,-2
1517206639944954,-2,-1,-2,-1,-1,0,-1,-1
1517206639944954,-1,0,0,-2,-1,-1,-2,-1
1517206639967488,0,-1,-2,-2,-1,-2,-2,-1
1517206639967488,0,-2,-3,0,-1,0,0,-2
1517206639967988,0,-1,1,-1,-1,-1,0,1
1517206639967988,-2,-2,-2,-1,-1,-3,-1,-1
1517206639981011,-1,1,0,-2,0,0,2,-1
1517206639981011,-1,-1,-2,-2,0,-3,-2,-1
1517206639989002,0,0,-2,-2,-1,-2,-3,-1
1517206639989002,0,-2,0,-1,0,-1,-1,0
1517206640004024,-1,0,2,-1,-1,1,0,0
1517206640004024,0,-1,-1,-1,-1,-1,0,0
1517206640005032,-1,-3,-1,-2,-1,-2,0,-2
1517206640005032,-2,-1,-1,-1,-2,1,0,0
1517206640027528,-2,-1,-2,-2,0,-1,0,-1
1517206640027528,-1,-2,-1,-1,0,0,-1,-1
1517206640028029,-1,0,-1,-1,-1,-1,0,-1
1517206640028029,0,-3,0,-1,-2,-1,-1,-2
1517206640041038,0,-1,1,0,-1,-2,-1,1
1517206640041038,-1,-3,-2,-2,0,-1,-2,-1
1517206640049044,-1,-1,-2,0,-2,0,0,0
1517206640049044,-1,0,-2,-1,-1,-2,0,-1
1517206640064057,-1,-1,-2,-2,-2,-2,-1,-2
1517206640064057,-1,-1,-1,-2,-1,-1,-2,-2
1517206640065055,0,0,0,0,-1,-2,-1,-1
1517206640065055,0,-2,-3,-2,0,0,-2,-1
1517206640087070,0,-1,-2,0,0,0,-1,1
1517206640087070,-1,-1,-3,-1,-1,-2,1,0
1517206640088089,-3,-3,-1,-2,-2,-1,-1,-1
1517206640088089,-1,-1,-1,0,-2,0,-1,-2
1517206640109604,-1,-1,0,-1,0,-2,-1,-2
1517206640109604,0,1,0,-1,-2,-2,0,-1
1517206640110609,-2,-1,-1,-1,0,0,-1,-1
1517206640110609,0,-1,-1,-1,1,0,-1,-1
1517206640124107,-3,-2,-2,0,-2,1,-1,-2
1517206640124107,-1,1,-2,-1,0,-1,0,0
1517206640125108,-1,-1,-1,0,-3,-1,-1,-1
1517206640125108,0,2,-2,-1,-2,-2,0,-2
1517206640147123,-1,-3,-2,0,-1,-1,-2,0
1517206640147123,0,-1,0,0,-1,2,0,-1
1517206640148123,-2,-2,0,-3,0,1,-2,-1
1517206640148123,-1,-1,-2,-1,-1,-1,-1,-1
1517206640169629,0,-2,0,-1,-1,-2,0,0
1517206640169629,-1,-1,-1,0,-1,-1,0,-1
1517206640170629,-1,-1,-2,0,0,-1,0,-1
1517206640170629,-2,-2,-1,-1,-2,-2,-1,-2
1517206640184139,-2,-1,-2,1,-2,0,-1,-3
1517206640184139,-2,0,-1,0,-2,-2,-2,0
1517206640184640,1,-1,0,-2,-2,0,0,0
1517206640184640,-2,-2,0,1,0,-2,0,-2
1517206640207166,-1,-1,0,-1,0,0,-2,-1
1517206640207166,-1,-1,1,-1,-1,1,-2,-2
1517206640208180,-2,0,-2,0,-1,0,0,-1
1517206640208180,-2,-1,0,-2,0,-1,0,0
1517206640229710,0,-2,-1,-2,-1,-1,0,0
1517206640229710,-1,0,-1,-1,-2,0,0,-1
1517206640230707,-2,-1,-2,-2,-1,-2,-2,0
1517206640230707,0,-2,-2,-1,0,0,0,0
1517206640244185,0,-1,-1,0,-1,-2,0,0
1517206640244185,-1,-3,-3,-1,-3,-2,-2,-1
1517206640244682,1,-1,-2,-1,0,0,0,-1
1517206640244682,-1,-1,0,-2,-1,-2,-1,-1
1517206640267210,-1,1,0,-2,-2,0,-1,0
1517206640267210,0,-1,-1,-1,-1,0,0,-1
1517206640268199,-1,0,-1,0,-2,-1,-1,-1
1517206640268199,0,0,-2,-2,-2,-2,-3,-1
1517206640289714,-1,-1,-1,-3,-1,-2,0,-1
1517206640289714,-2,-2,-1,-1,0,-1,0,-1
1517206640290715,-1,-1,0,1,-1,-1,0,0
1517206640290715,0,-1,0,0,-1,0,0,0
1517206640304224,-2,1,-2,0,-2,-2,-2,0
