timestamp,emg1,emg2,emg3,emg4,emg5,emg6,emg7,emg8
1514955701745717,1,0,-3,0,-2,1,0,-3
1514955701745717,0,-1,0,0,1,0,-1,2
1514955701747718,-3,-1,-1,-1,-1,-2,0,-3
1514955701747718,-1,-1,-1,-1,0,1,-2,-1
1514955701760727,-3,-3,-1,-2,-2,-1,0,-2
1514955701760727,1,-1,-1,0,-2,0,-1,-3
1514955701766730,-1,-1,-1,0,2,-2,1,1
1514955701766730,0,-1,-3,-1,-1,-1,-2,0
1514955701783743,0,0,0,-1,-1,-1,-2,-1
1514955701783743,-1,0,-1,-2,-1,-1,-1,2
1514955701784745,-1,-3,-2,-1,-1,-3,-2,-2
1514955701784745,-2,-2,-1,-2,-3,-2,2,-1
1514955701806756,1,-1,-1,-1,-1,-1,0,-2
1514955701806756,-3,-3,-3,-2,-1,0,-2,-1
1514955701810758,0,-1,-2,-1,-1,-1,-2,0
1514955701810758,1,1,-1,-1,-2,0,-2,0
1514955701819765,2,0,-1,-1,-1,-1,-2,1
1514955701819765,-2,0,-1,-1,0,-1,-2,-1
1514955701827772,0,-1,-1,-1,0,-1,-1,-2
1514955701827772,-1,-1,0,-1,-1,0,-1,-4
1514955701843787,-1,-1,-1,0,0,-2,-2,1
1514955701843787,-1,-3,-2,-1,0,-1,0,-3
1514955701844785,-1,-2,-1,-2,0,1,-2,0
1514955701844785,0,-1,0,-1,-3,-1,-1,-3
1514955701866801,-2,0,0,0,1,0,-1,0
1514955701866801,-1,0,-1,-3,-2,1,-1,0
1514955701869802,-3,-2,-2,-1,-3,-1,-1,-3
1514955701869802,-2,0,-2,-1,0,-2,0,-1
1514955701880810,-3,0,-1,-2,-1,-2,0,0
1514955701880810,0,-1,-1,0,-1,-2,-1,-1
1514955701886812,0,-1,1,-1,-1,-1,0,-1
1514955701886812,0,-1,0,-3,-2,0,-3,0
1514955701902824,-3,-2,-2,-1,-1,-1,-2,-2
1514955701902824,-2,-1,-1,0,-3,-1,-1,-3
1514955701904825,0,-2,-2,-1,0,0,0,0
1514955701904825,-1,-2,0,0,0,-2,-2,-1
1514955701926842,-1,-2,-1,0,-2,-3,1,-3
1514955701926842,-1,0,0,-2,-1,2,0,-3
1514955701930843,0,0,-2,0,-4,-1,-2,-2
1514955701930843,-2,-2,0,-1,-2,-1,-3,0
1514955701939851,-2,-1,0,0,0,0,-1,-1
1514955701939851,-2,0,-2,-1,-1,-2,-3,-2
1514955701946855,0,1,-3,-1,-1,-1,-1,-1
1514955701946855,-1,-1,-1,0,-1,0,-1,-3
1514955701963898,-1,-2,-3,-2,-2,-1,-1,-2
1514955701963898,-1,-2,2,-1,0,-3,0,-1
1514955701965899,-2,0,1,-1,-1,1,2,-3
1514955701965899,-1,0,-1,1,0,0,-1,-1
1514955701985916,0,-1,0,-1,-1,-1,-1,1
1514955701985916,-1,-1,-2,0,-1,0,0,0
1514955701986914,-1,0,-1,-1,-2,-1,0,1
1514955701986914,-1,-1,-1,-1,-2,1,0,-1
1514955701998923,-2,-2,-2,0,-2,-1,-1,-1
1514955701998923,-2,0,0,-1,-1,0,-1,-1
1514955702008937,-3,0,1,-2,-1,-2,0,0
1514955702008937,0,-1,-2,-2,0,-2,-1,-1
1514955702023953,0,-1,-2,-1,0,0,-2,0
1514955702023953,0,-1,-3,-1,0,-1,0,-3
1514955702027943,-3,-3,-2,-1,-1,-2,2,-1
1514955702027943,-1,0,0,-1,-1,-1,0,0
1514955702045955,0,-1,-1,-2,-2,0,-1,-1
1514955702045955,-1,-1,0,-1,0,-1,1,0
1514955702046967,2,-2,-2,0,0,-3,-2,0
1514955702046967,-1,0,-1,-1,-1,-1,-1,0
1514955702058964,0,-1,-2,-1,0,0,-2,-3
1514955702058964,-2,-2,-1,0,-2,-1,-1,-1
1514955702068971,-1,-1,0,-1,1,0,-4,0
1514955702068971,-3,-1,-1,-1,-3,0,2,-2
1514955702082983,-1,-3,0,-1,-1,-2,1,-3
1514955702082983,0,-1,-2,-1,-1,0,-3,-2
1514955702085000,0,-1,-2,-1,0,0,-1,-2
1514955702085000,0,-1,-2,0,-1,-2,-1,-2
1514955702106000,-2,0,0,-1,-1,0,0,-1
1514955702106000,-1,0,-2,0,-1,-1,-1,0
1514955702107001,-3,-2,-3,0,-2,-1,-2,-3
1514955702107001,0,-1,-2,-3,-1,0,1,1
1514955702120010,-1,0,-2,0,-2,-3,-2,-3
1514955702120010,0,0,-1,-1,-2,-1,-3,0
1514955702128013,-1,0,-1,-1,-2,-1,-2,-1
1514955702128013,-1,-2,-2,0,0,-1,-1,-1
1514955702143023,-1,-1,-2,-1,-1,0,0,-1
1514955702143023,-1,-2,-1,-1,-1,-2,2,2
1514955702145026,-2,-1,0,0,-1,-2,-1,-2
1514955702145026,-3,-2,0,-1,-2,-2,-1,-3
1514955702166040,-1,-1,-1,-2,-1,-1,-2,-1
1514955702166040,-1,-2,0,-2,1,-1,-1,0
1514955702170043,-1,-2,-1,-2,-2,-1,-1,0
1514955702170043,1,-2,-2,0,-1,1,-1,-1
1514955702179052,0,0,-1,1,-3,-1,2,-1
1514955702179052,-3,-1,-1,0,-2,-1,0,-3
1514955702188078,-1,-1,-2,-2,-1,-3,-1,1
1514955702188078,-1,-2,-2,-1,0,0,1,-3
1514955702203088,0,0,-2,-1,0,0,-2,1
1514955702203088,-3,-1,-2,-1,0,-2,1,0
1514955702205078,0,-1,-2,0,-1,-1,0,0
1514955702205078,-1,-2,0,-1,-1,-2,-1,-1
1514955702227093,0,-1,-1,0,1,-1,-2,-1
1514955702227093,0,-2,-1,-2,-2,0,-3,-3
1514955702229095,1,-2,-3,0,0,-1,0,-1
1514955702229095,-1,0,2,-2,1,-2,0,1
1514955702239165,-1,-1,0,-1,-2,-3,-1,-1
1514955702239165,0,-1,-1,0,0,-1,-1,-1
1514955702248201,1,-1,-1,-2,-2,-1,0,-1
1514955702248201,-1,0,-2,0,-1,1,0,-1
1514955702263235,0,-2,-1,-3,-2,2,0,0
1514955702263235,-3,-1,-2,0,-1,-2,-2,-2
1514955702265212,-1,-1,-1,-2,-1,-1,-2,-1
1514955702265212,1,-2,0,0,-2,-3,-1,1
1514955702285241,-2,-2,1,-2,-1,-2,-2,-1
1514955702285241,-1,-3,-2,-1,-2,-2,1,1
1514955702287227,-3,0,-2,-1,-3,-1,0,0
1514955702287227,-1,-1,-2,-1,-1,-1,-2,0
1514955702299251,-1,-1,-3,1,-1,-1,-4,-2
1514955702299251,1,0,-1,-2,-1,-2,-1,0
1514955702308258,-4,-3,-1,0,0,-2,1,-2
1514955702308258,-1,-2,-2,-1,-2,-2,-3,-2
1514955702323253,-1,-1,-1,-1,-2,-2,0,-3
1514955702323253,0,-1,-1,-2,0,0,0,0
1514955702325254,-2,0,1,-1,-1,0,-2,-2
1514955702325254,-1,-1,-2,1,0,0,0,1
1514955702347281,-2,-2,-1,-1,0,-3,-3,-1
1514955702347281,1,-2,-1,0,-2,-1,-1,0
1514955702350271,0,0,-1,-1,-1,0,-1,-2
1514955702350271,0,-1,0,-2,-1,-2,-3,-2
1514955702359300,-3,-1,1,1,-1,-1,-1,-2
1514955702359300,-1,-2,-2,-1,-2,-1,-2,1
1514955702368296,-1,-1,0,-1,0,0,-3,1
1514955702368296,-1,0,-2,-1,-2,-1,-1,-2
1514955702383308,-1,-2,-1,-1,0,-1,1,0
1514955702383308,-2,-1,-3,-1,-1,-2,-4,-3
1514955702385308,-1,-2,-1,2,-1,0,-2,-2
1514955702385308,-1,1,0,-3,-1,-2,0,-1
1514955702405320,-1,1,-2,0,-1,-1,1,-1
1514955702405320,-2,0,-2,0,-1,-2,1,-1
1514955702407321,2,-1,-2,-1,-2,-2,-2,-2
1514955702407321,1,-1,-1,-1,0,0,1,-1
1514955702429328,0,-1,0,-2,-1,-1,-1,-2
1514955702429328,-1,-1,0,0,-1,-2,-4,-2
1514955702432330,-3,-1,0,-1,0,0,-2,-3
1514955702432330,0,-2,-1,0,0,0,-1,0
1514955702443352,-1,-1,-1,-2,-2,-1,1,0
1514955702443352,-1,-1,-2,-2,-1,-2,-2,-1
1514955702445339,1,0,-1,-2,-1,-3,-1,-1
1514955702445339,-1,-1,-2,0,-1,-1,-1,-1
1514955702465352,1,-1,-2,0,0,-1,-2,0
1514955702465352,-1,-2,1,-1,-1,0,2,-2
1514955702473358,-3,-1,-1,-1,-1,0,-2,-2
1514955702473358,-3,-2,0,0,-2,-3,-2,-4
1514955702488419,-3,-2,-2,-3,-2,0,0,0
1514955702488419,1,-1,-1,-1,-1,-3,-1,-1
1514955702490392,2,-2,-1,-1,-2,0,1,0
1514955702490392,-2,0,-2,-1,-2,0,1,-2
1514955702502456,-3,1,0,-3,0,2,-1,2
1514955702502456,-1,-1,0,-1,-1,-2,0,-1
1514955702511452,0,0,-1,-2,0,0,-1,1
1514955702511452,-1,0,-1,-2,-1,-1,-2,-2
1514955702526467,-3,1,0,-2,0,-2,0,0
1514955702526467,0,-1,-2,-1,-1,0,-1,0
1514955702529467,-2,-1,-3,-1,-2,-2,-1,-4
1514955702529467,-1,-3,-1,0,0,-1,-2,-1
1514955702548480,-1,-1,-2,-2,-1,0,0,-3
1514955702548480,-3,0,-1,-2,-1,-1,0,-1
1514955702550490,-2,-1,0,0,-1,-2,0,-1
1514955702550490,1,0,0,-1,-2,0,2,1
1514955702563501,1,-3,-2,0,-2,-3,-3,-3
1514955702563501,0,0,-2,0,-1,-2,0,-2
1514955702564502,-1,0,-1,-1,-2,-1,0,-1
1514955702564502,-2,-2,0,-2,-2,-1,-2,0
1514955702585508,-2,-1,-1,0,0,-1,-1,-1
1514955702585508,-1,-2,-1,0,-1,0,1,-3
1514955702587506,-1,-1,0,-3,-2,-2,-1,-1
1514955702587506,-1,-1,0,-1,0,-1,-1,0
1514955702608573,0,1,-1,0,-2,-2,-1,-3
1514955702608573,-1,-2,-3,-1,-3,0,-2,-1
1514955702609523,-2,0,-1,1,0,0,1,-1
1514955702609523,-2,0,-1,-1,1,-2,0,0
1514955702623533,1,-3,0,-1,-3,-2,1,-3
1514955702623533,0,0,0,0,0,0,-3,0
1514955702629536,1,-1,-3,-1,0,0,-1,-2
1514955702629536,0,-1,-1,-1,-2,-2,-1,1
1514955702645551,-2,-1,-1,-3,-1,0,-1,-1
1514955702645551,0,-2,0,-3,0,0,0,-1
1514955702647549,0,-1,-3,-2,-1,0,-1,-1
1514955702647549,-3,-2,-2,-3,0,-1,0,-2
1514955702668564,-3,-2,-1,-2,1,-2,0,0
1514955702668564,-1,0,0,-1,-1,-1,-1,2
1514955702674568,0,-1,-1,-1,1,-2,-3,1
1514955702674568,0,1,-1,-2,-3,-1,0,-3
1514955702682575,-1,0,0,-1,-3,0,-3,-4
1514955702682575,-1,-1,1,0,-1,-1,-1,0
1514955702689620,-3,-1,-1,-1,-1,-2,0,0
1514955702689620,-1,-1,-2,0,-1,-1,-1,0
1514955702705593,-2,-1,-1,0,-2,-1,-2,1
1514955702705593,0,0,-2,-2,0,-4,-3,0
1514955702707595,0,-1,0,-1,-1,-1,-1,-2
1514955702707595,0,0,-2,-1,0,-1,0,-2
1514955702728606,0,-1,-1,-1,1,1,0,0
1514955702728606,-1,-2,-2,0,-2,1,1,-2
1514955702729608,-1,-1,-1,-2,0,0,0,1
1514955702729608,-2,-1,-2,-2,-2,-2,-1,-3
1514955702751623,0,-2,-2,-2,0,-1,-1,1
1514955702751623,-1,-2,-2,-1,-2,-2,1,-1
1514955702754625,-1,-1,-1,-1,-1,-1,0,-1
1514955702754625,0,-1,0,-1,0,0,-2,1
1514955702765633,-1,-1,-3,-1,-1,-2,-1,1
1514955702765633,-3,-2,-2,-1,-2,-2,-2,-1
1514955702767634,-1,-1,-1,-1,-2,0,-1,0
1514955702767634,-1,-2,0,0,-1,-1,-2,0
1514955702789666,-2,0,-1,0,-1,-1,-1,-2
1514955702789666,1,-1,0,-2,0,-3,-1,0
1514955702790667,-1,-1,-1,-1,-1,-2,0,-1
1514955702790667,-1,-2,-2,-2,-2,1,-1,0
1514955702802671,0,1,0,0,0,-2,2,-1
1514955702802671,0,-1,-1,-2,0,0,-2,-1
1514955702809675,0,-1,-2,-2,0,0,-2,-1
1514955702809675,-1,1,0,-2,-2,-1,0,-1
1514955702826675,-3,-1,-2,-1,-3,-2,0,-1
1514955702826675,-3,-1,-2,-2,0,-1,1,-3
1514955702829678,1,0,-1,-1,-1,-1,-3,0
1514955702829678,-1,-1,-1,-1,-2,-3,-4,2
1514955702848691,-1,-2,-1,0,-1,2,0,-2
1514955702848691,-1,-1,0,-1,0,0,-2,-2
1514955702849693,-2,-1,-3,-2,-2,-1,-1,0
1514955702849693,0,0,0,-2,-1,0,0,-3
1514955702862713,-1,-1,-1,-1,-2,-1,1,-3
1514955702862713,-1,-1,-3,-1,-2,-1,0,0
1514955702869705,-1,-2,-2,0,-1,-2,0,-1
1514955702869705,-1,-1,-1,1,-1,-2,-2,0
1514955702885727,1,-1,-2,-1,1,-1,-1,0
1514955702885727,-1,-1,0,-1,-2,1,-2,-1
1514955702887719,-2,-2,0,-1,-1,-1,-1,-1
1514955702887719,-1,-1,-3,0,-3,1,-3,-2
1514955702908775,-1,-1,0,0,-2,-2,-1,-3
1514955702908775,-2,-1,-2,-1,-2,0,1,-1
1514955702914737,-1,-2,-1,1,-1,-2,-3,-1
1514955702914737,-3,-2,-1,-2,-1,-2,-1,-1
1514955702922758,-2,0,0,-1,-1,-1,-2,0
1514955702922758,0,-1,-1,-1,-3,0,-1,-2
1514955702932750,-1,-1,-1,-2,-2,0,0,0
1514955702932750,0,0,-3,-2,-1,-1,0,-3
1514955702952777,-2,-1,-1,-1,-2,1,-1,-2
1514955702952777,-1,-2,-1,-1,-2,-2,-1,-1
1514955702954775,0,-1,-1,1,-2,-1,-2,-2
1514955702954775,-1,0,-1,-1,0,-1,-3,-1
1514955702967789,-2,-1,-3,-3,0,-1,-1,2
1514955702967789,-2,1,-1,-1,-1,0,-3,-2
1514955702974780,-2,-1,-2,-2,-1,-2,1,-1
1514955702974780,1,0,0,-1,-2,0,1,-4
1514955702981797,1,0,-1,-2,-2,-2,1,-3
1514955702981797,-2,0,-1,0,1,-2,-3,-1
1514955702992792,1,-1,-1,-1,-1,-1,-2,-1
1514955702992792,-1,-2,1,-1,-3,-1,-1,0
1514955703013807,0,-1,-1,-1,0,-2,0,-2
1514955703013807,2,-1,-1,0,0,-1,-2,-1
1514955703014809,-3,0,-1,-1,-3,0,0,0
1514955703014809,-2,-2,-1,-1,-1,0,0,0
1514955703028818,-1,-3,-1,-1,-3,-2,-2,-2
1514955703028818,-2,-2,-2,-2,-1,-2,-1,0
1514955703032821,0,-1,-1,1,-3,-1,-1,-2
1514955703032821,-2,-1,-2,-1,-2,-2,-1,1
1514955703041867,-1,-2,0,-1,-1,-1,-2,1
1514955703041867,1,-1,-2,-2,-2,-1,0,-2
1514955703050837,-2,0,-1,-2,-1,-1,-2,0
1514955703050837,-1,-2,0,0,-3,0,0,-1
1514955703065856,0,-2,-3,-2,0,0,-1,0
1514955703065856,-1,0,-2,-1,0,-1,-2,0
1514955703066845,-1,-1,0,0,-1,0,-1,-2
1514955703066845,-2,-1,-1,0,-1,-1,-1,-1
1514955703087863,-1,-1,-1,-1,-1,0,-3,0
1514955703087863,-1,-2,-1,-2,0,-2,1,0
1514955703089861,1,-1,-2,-2,-1,0,0,1
1514955703089861,0,0,0,-3,-1,-1,0,-4
1514955703101871,-1,-1,0,0,0,-1,-2,0
1514955703101871,0,-1,-1,-1,-2,-1,-1,0
1514955703110876,-2,-2,-2,-2,-3,-2,-3,-4
1514955703110876,-1,-1,-1,-1,0,-1,-1,-1
1514955703126887,-1,-1,-2,-1,-1,0,0,-1
1514955703126887,-2,-2,-1,-1,-2,1,2,-2
1514955703129890,-1,-2,-2,-1,0,-1,-1,-2
1514955703129890,-1,0,0,-1,-1,-3,-2,-1
1514955703147903,-1,-1,-2,0,-2,0,-1,-4
1514955703147903,-1,-2,-2,-2,-1,-2,-2,1
1514955703149904,-1,-2,-1,-1,-2,-1,0,1
1514955703149904,0,-1,-1,-2,0,-2,-2,0
1514955703161912,0,0,0,-2,-2,0,-1,0
1514955703161912,-1,0,-2,1,-2,-1,0,-2
1514955703170918,0,0,0,0,-1,0,-1,-3
1514955703170918,0,-2,-2,-1,-2,0,-2,-1
1514955703185944,-3,-1,-2,-2,-1,-1,-1,-1
1514955703185944,-2,-3,0,0,-2,-1,-1,-2
1514955703188931,0,-1,0,-1,1,0,1,-2
1514955703188931,0,-2,0,0,0,-3,-2,-1
1514955703207971,0,-3,0,-1,-1,1,-1,-2
1514955703207971,-2,-1,-1,-1,0,-2,0,-2
1514955703209946,1,-1,-3,-1,0,-3,1,-1
1514955703209946,-2,-2,-1,-2,-1,1,1,-3
1514955703222955,0,-1,-1,-1,-1,-3,1,-1
1514955703222955,0,-1,0,-1,-1,-1,-3,0
1514955703231964,-2,-1,-1,0,0,1,-2,0
1514955703231964,-2,-1,-2,-2,0,-1,0,-1
1514955703245985,0,0,0,0,-1,-3,-2,-2
1514955703245985,-1,-2,-1,-1,-2,0,-3,-2
1514955703246984,-4,-1,-2,0,-3,-1,-1,-1
1514955703246984,-1,-1,-1,-2,-1,-2,0,-1
1514955703268022,0,-1,-2,-1,-1,0,0,0
1514955703268022,1,-1,-1,-1,0,0,-1,0
1514955703272005,1,-1,-1,-1,-1,-1,-2,0
1514955703272005,0,0,1,-2,-1,1,-2,-2
1514955703291022,-2,-1,-1,-1,-4,-1,0,-3
1514955703291022,0,-1,-2,-2,-2,-1,-1,0
1514955703292021,-2,-1,0,-2,-1,-3,-1,0
1514955703292021,-1,-2,-1,1,-1,1,0,-1
1514955703306041,-3,0,-1,0,-1,-1,-2,0
1514955703306041,-2,0,-1,-1,0,0,1,1
1514955703307022,-2,-2,-2,-3,0,-2,0,-1
1514955703307022,0,-2,-2,-1,-2,0,-1,-1
1514955703329031,-1,0,0,-3,-3,-1,-2,-1
1514955703329031,-3,-2,0,-1,-2,-1,-1,-1
1514955703332032,1,0,1,-1,-1,-1,-3,-4
1514955703332032,-2,-1,-2,-2,-1,-3,-1,1
1514955703342067,0,-1,-1,-1,-1,-2,1,-3
1514955703342067,0,-2,-2,-1,-2,-2,-2,-2
1514955703351053,0,-1,-3,-1,-2,-2,-2,-1
1514955703351053,1,-1,-1,1,-1,-1,-1,-1
1514955703365061,-2,-1,0,-1,-1,-1,0,1
1514955703365061,-1,0,0,-1,0,0,0,0
1514955703372061,-1,0,1,-1,-1,0,0,-1
1514955703372061,-3,-2,-2,-1,-1,-1,0,0
1514955703388094,-1,-2,-1,-1,-1,0,1,-1
1514955703388094,-1,-2,-2,-1,0,-1,2,-1
1514955703390096,-1,0,-1,-2,-1,-1,-1,-2
1514955703390096,-2,0,0,0,-1,-1,-1,-3
1514955703411102,1,-1,-1,0,-1,-2,-2,0
1514955703411102,0,0,-2,-2,-2,-1,-2,-1
1514955703412091,0,-1,-1,-1,-1,0,1,1
1514955703412091,-1,1,-2,0,0,0,1,0
1514955703426099,-2,-1,-2,-1,0,-1,-2,-2
1514955703426099,-1,0,0,-1,-1,-1,-4,0
1514955703427100,-1,-2,0,0,0,0,-1,0
1514955703427100,-1,-2,-1,-2,-1,-1,-4,-1
1514955703449138,-1,-3,0,-1,-1,1,0,-1
1514955703449138,0,0,-2,1,0,-1,-1,-3
1514955703450117,0,-1,-1,-3,1,-2,-4,-3
1514955703450117,-1,-1,-1,-1,0,-1,-1,-2
1514955703471153,1,-1,1,-1,0,-2,-2,-2
1514955703471153,-2,-1,-2,-2,-3,-2,-1,0
1514955703472135,-2,0,0,1,-1,0,-2,0
1514955703472135,-2,-2,0,-1,-2,0,-2,0
1514955703486145,-1,0,0,-2,0,-2,0,-1
1514955703486145,-1,-1,-2,0,-1,-1,0,-1
1514955703487142,-1,0,-1,0,-1,-3,0,-4
1514955703487142,0,-1,-1,-2,-2,-1,-1,-1
1514955703508156,-3,-1,-1,-1,-2,-2,-1,-1
1514955703508156,-1,0,-1,-1,-1,0,0,-1
1514955703510158,-3,-3,-3,-1,-1,0,0,1
1514955703510158,-2,1,-1,-2,-2,0,0,-3
1514955703531180,-1,-2,-3,-1,0,1,-1,-2
1514955703531180,-1,-1,-1,-1,0,-1,-1,0
1514955703532177,0,0,-2,-3,-1,0,-1,-2
1514955703532177,-1,-2,0,-2,-3,-2,-3,-1
1514955703545199,-1,-2,-1,-1,-2,-1,-1,0
1514955703545199,0,-1,-2,0,-1,-1,-1,0
1514955703552200,-2,-2,0,0,-1,-1,-1,-2
1514955703552200,0,-2,-2,-1,0,0,-1,-2
1514955703568209,-1,-1,-2,-1,-2,-2,-3,-1
1514955703568209,-3,-1,0,-1,-1,-2,-2,-1
1514955703570210,-3,-2,-2,0,-1,0,-2,0
1514955703570210,0,-1,-1,-1,0,-3,0,0
1514955703591217,0,-2,-1,-2,-1,0,0,-1
1514955703591217,0,-3,-1,-2,1,0,0,0
1514955703595234,0,-1,-1,0,-1,-3,-1,0
1514955703595234,-2,0,1,1,-1,-2,1,-2
1514955703605237,1,1,-1,-3,-1,-2,0,0
1514955703605237,-1,-2,0,-1,0,-1,1,0
1514955703612233,-2,0,-2,-2,-1,-1,-1,-1
1514955703612233,0,0,-1,0,-1,-1,-1,-3
1514955703629243,-1,0,-1,-1,-1,-1,0,1
1514955703629243,-3,-2,-1,-2,-1,-2,-1,-3
1514955703632246,-1,-2,-1,-1,-2,-1,-2,2
1514955703632246,0,-1,-1,-1,-1,-1,-1,-2
1514955703650258,-5,-2,0,-2,0,0,-1,-2
1514955703650258,-1,-1,-2,1,-1,0,-1,-1
1514955703652259,0,0,0,-2,0,-1,2,-1
1514955703652259,-2,-1,0,-2,-2,0,-1,0
1514955703665271,-2,-1,-1,0,-2,-1,-2,-3
1514955703665271,-1,0,0,-1,-1,-1,-2,-1
1514955703672273,1,-1,-1,0,-2,0,-1,0
1514955703672273,-2,-2,-3,1,-1,0,-2,-1
1514955703688299,-1,0,-1,-1,-1,-1,-1,-2
1514955703688299,-2,-2,0,0,-3,0,0,-1
1514955703696290,-2,-1,-1,0,0,-2,0,-1
1514955703696290,0,-1,-1,0,-1,-3,-1,0
1514955703711301,-1,-2,-2,-1,0,-1,-2,-1
1514955703711301,-1,-3,-2,-1,-1,-2,-2,-1
1514955703712303,1,1,0,0,-3,-1,0,-3
1514955703712303,0,-1,-2,-1,1,-1,-1,-1
1514955703725311,-1,0,-1,-1,-1,-2,-3,0
1514955703725311,0,-1,-2,-1,-1,-2,-1,1
1514955703732315,-2,-2,-1,0,-1,0,0,-1
1514955703732315,-1,0,-1,0,-2,0,1,0
1514955703748330,-1,0,-1,0,-3,-1,1,-1
1514955703748330,0,-1,0,-2,1,1,-2,0
1514955703750330,-1,-2,-2,-3,-1,-2,-2,-3
1514955703750330,-1,-1,-2,-2,-1,-2,0,-1
1514955703771345,-2,-2,-1,0,-1,-1,-2,0
1514955703771345,0,-1,-1,0,-2,-2,1,0
1514955703772345,0,-1,-3,-1,0,0,0,-1
1514955703772345,1,-1,0,-2,0,0,-3,-2
1514955703785370,-1,-1,-2,-3,0,-1,0,-2
1514955703785370,-1,0,0,-1,-1,-2,-1,-2
1514955703791357,-1,0,-2,-3,0,0,-2,-1
1514955703791357,-4,-1,0,0,0,-2,-1,0
1514955703808428,1,-1,-1,0,-2,-1,0,1
1514955703808428,-1,-1,-1,-1,-1,-1,-1,0
1514955703809370,1,-2,-2,-2,-1,-2,0,-2
1514955703809370,-1,-1,-1,-1,-1,-1,-1,0
1514955703831389,-2,-1,-2,-3,-1,0,-1,-1
1514955703831389,-1,0,0,-1,-1,-1,-2,-2
1514955703835391,-4,-1,-2,1,-2,-3,1,-2
1514955703835391,-1,-1,-1,0,-1,0,0,-1
1514955703845437,-1,-2,-1,1,0,-2,-1,-3
1514955703845437,-3,0,0,-2,-2,-2,-1,-1
1514955703859460,-2,0,-1,-2,-1,0,-2,-1
1514955703859460,0,-2,-2,-1,-2,-1,-2,-2
1514955703868444,2,0,-1,-1,-1,0,0,-1
1514955703868444,0,-1,-4,-2,-2,-2,-1,-1
1514955703869443,0,-1,0,1,0,-1,-2,-3
1514955703869443,-3,-1,-1,0,-1,1,1,1
1514955703890461,-1,0,-1,-1,-2,-1,-4,-2
1514955703890461,-1,-1,-2,-2,0,-1,0,0
1514955703892460,-1,-2,-1,1,-2,1,-3,0
1514955703892460,2,0,-2,-2,-2,-1,-2,-3
1514955703904487,-1,-2,0,-2,0,-1,2,-4
1514955703904487,-1,-2,-1,-2,-2,-4,-2,1
1514955703913494,0,-1,-1,0,-1,-1,-1,-1
1514955703913494,0,-1,0,-1,0,-1,-1,0
1514955703928497,-1,-3,-1,-1,-1,-1,-1,0
1514955703928497,-2,-1,0,-1,0,-1,-1,-2
1514955703929505,-1,0,-2,-2,-2,-2,1,0
1514955703929505,-3,-1,0,-2,-1,-1,-2,-1
1514955703951502,0,0,-1,0,-1,0,-1,0
1514955703951502,-1,-2,-1,-2,-2,1,-2,-4
1514955703954504,-3,-2,-1,1,-1,-2,0,-1
1514955703954504,1,-2,0,0,0,0,-2,-2
1514955703964511,-2,-1,0,-1,-2,-2,-1,-1
1514955703964511,-1,-1,-1,0,1,1,-1,1
1514955703973516,-1,-1,0,-2,-1,-3,-2,0
1514955703973516,-1,-1,-2,-2,-3,-2,-2,-2
1514955703988553,-1,-1,1,0,-1,0,-2,2
1514955703988553,0,1,-1,-1,0,-1,0,-2
1514955703992533,-1,-2,0,-1,0,0,1,0
1514955703992533,-1,-1,-3,1,-1,-2,0,1
1514955704010557,-1,-1,-1,-1,0,-2,-1,-1
1514955704010557,0,-1,-2,1,-3,-1,-2,-2
1514955704012544,0,-1,-1,-2,-2,1,2,-3
1514955704012544,0,-1,-2,-2,-2,-1,-2,-1
1514955704025554,-2,0,-1,0,-2,0,-4,0
1514955704025554,0,-2,-2,-2,0,0,-3,0
1514955704033559,-1,0,-2,0,-3,0,0,-1
1514955704033559,-2,0,-1,-1,-1,0,0,-2
1514955704048582,-2,-1,-2,0,-1,0,2,0
1514955704048582,1,-1,0,-1,0,-2,-1,-1
1514955704050571,-1,-2,0,-1,-1,-2,-2,-1
1514955704050571,-2,-1,-1,-1,0,0,0,0
1514955704071586,-1,-1,-1,-1,-1,-2,-2,0
1514955704071586,0,-1,-2,-2,-3,-1,0,-3
1514955704074588,-3,-1,0,-1,-1,0,-1,-2
1514955704074588,-1,-3,-1,-1,-2,-1,0,-2
1514955704084657,-1,-1,-2,-3,-2,-1,1,0
1514955704084657,0,1,-2,-1,-1,-1,1,-2
1514955704093604,0,-1,-1,-2,-2,-1,-1,-1
1514955704093604,-1,0,0,-1,0,0,1,-3
1514955704108663,-3,-1,-1,0,-1,0,0,-4
1514955704108663,-1,-1,0,-1,-2,-1,-1,0
1514955704109623,0,-1,-1,-1,-2,-3,-4,-2
1514955704109623,0,0,-2,0,0,-2,0,0
1514955704129628,-2,1,-1,-3,2,-4,1,0
1514955704129628,-3,-1,-1,0,0,1,2,-2
1514955704138633,-2,-2,-1,-1,0,-1,-1,0
1514955704138633,-1,-2,-1,-2,-2,-2,-1,-2
1514955704144639,0,1,-1,-2,-2,-1,0,-3
1514955704144639,-1,0,-2,-1,-3,-3,0,-1
1514955704153647,-2,0,-1,-2,-3,-1,-5,-1
1514955704153647,-2,0,-1,0,-1,0,0,0
1514955704168664,-1,-3,-2,-1,-2,-2,-3,-4
1514955704168664,0,-1,-1,-2,-2,-1,0,1
1514955704169655,-1,-2,-1,-2,-1,0,0,0
1514955704169655,-1,-3,-2,-1,-1,-2,0,1
1514955704191685,-2,-1,-1,-1,-1,-1,-2,0
1514955704191685,-2,-2,-1,-1,-1,0,-1,-2
1514955704194674,-3,-1,1,-1,-3,-1,1,-1
1514955704194674,-1,-1,-1,1,0,0,-1,-1
1514955704204693,-2,-2,-2,1,0,0,-2,0
1514955704204693,-1,-2,-2,-2,-2,-1,-4,0
1514955704213701,-1,0,-2,-1,0,-2,0,-3
1514955704213701,-2,-1,0,-1,-2,-3,0,0
1514955704228697,1,-1,-3,-2,-2,-2,-1,0
1514955704228697,2,-1,-1,-1,0,-1,-1,0
1514955704232714,-1,-2,-2,0,-1,-1,0,-5
1514955704232714,-2,-2,-1,-3,0,0,-2,-1
1514955704251725,-1,-1,1,-2,-1,-1,-2,1
1514955704251725,-2,-2,1,0,-2,0,-3,0
1514955704252726,-1,0,-1,-1,-1,-1,-1,1
1514955704252726,-2,-2,-2,0,1,1,-1,0
1514955704264732,-1,-2,-1,1,0,0,-2,2
1514955704264732,-2,-1,-2,-2,-2,-1,1,0
1514955704275730,0,-2,-2,0,1,-1,0,0
1514955704275730,-1,-2,-1,-2,-2,-3,1,-2
1514955704288755,-2,0,-2,-2,0,0,0,-3
1514955704288755,0,-1,-2,0,0,-1,-3,-1
1514955704289740,-1,-1,-1,0,0,1,-2,0
1514955704289740,0,0,-1,-2,-2,-1,-1,1
1514955704310766,-1,-2,-1,-2,-2,-1,-1,0
1514955704310766,-1,-1,0,1,0,1,0,-3
1514955704312772,0,0,-1,-2,-1,-1,-3,-2
1514955704312772,-2,-1,0,-3,-1,0,0,-1
1514955704340803,1,-1,-1,0,-1,0,1,-1
1514955704340803,0,0,-1,-2,0,-1,2,1
1514955704342819,0,-1,0,0,-1,-1,-3,0
1514955704342819,0,0,-2,-1,-1,-1,0,0
1514955704348794,-2,-2,-2,0,-2,-2,-2,-1
1514955704348794,0,-1,-2,-2,-1,-2,0,-1
1514955704350783,-2,-1,-2,-1,-1,-1,0,-2
1514955704350783,0,-2,-1,0,-1,-1,-1,-2
1514955704371817,0,0,0,0,-1,1,0,-2
1514955704371817,-1,-2,0,-1,0,0,-1,-1
1514955704375823,1,-1,-1,-3,-2,-1,0,0
1514955704375823,-3,-1,0,0,-1,1,-2,-2
1514955704392828,-1,-2,-2,0,-2,-2,-2,-2
1514955704392828,-3,-3,-2,-1,-3,-1,-2,-2
1514955704394815,-4,-1,-1,0,-2,-1,1,-1
1514955704394815,1,0,-1,-2,-3,-1,0,-2
1514955704407823,1,-2,-1,-2,0,-2,0,1
1514955704407823,-2,-3,-2,-1,0,-1,-2,-1
1514955704415829,-1,0,-1,-2,0,0,-1,-1
1514955704415829,-2,0,-2,-1,-1,-2,-2,-2
1514955704430846,-2,0,0,-1,-1,1,-2,-2
1514955704430846,0,-1,0,-2,-1,-1,0,-2
1514955704431853,-1,-3,-1,-2,-1,0,-2,0
1514955704431853,1,-1,1,-1,0,-3,0,0
1514955704452867,-1,-2,0,0,-1,-2,-1,-2
1514955704452867,-1,0,0,0,-1,1,-1,-2
1514955704455859,-1,-3,-2,0,0,0,0,-2
1514955704455859,-2,-1,-3,0,-1,-1,-2,-2
1514955704467866,-1,0,-1,-2,0,-1,-2,-3
1514955704467866,0,0,-1,-1,-1,-2,-2,-3
1514955704473889,-1,-1,-2,1,-2,0,1,-1
1514955704473889,-1,-3,-1,-1,-2,-1,-2,-2
1514955704490882,-2,-2,0,-2,-2,-1,-2,-1
1514955704490882,0,-1,1,-1,-2,-1,-1,0
1514955704491883,0,-1,0,-2,-1,-2,-1,-1
1514955704491883,-2,-2,0,-1,-2,-1,-2,-1
1514955704513900,0,-1,-2,0,-1,-1,0,-2
1514955704513900,-1,1,-1,0,-2,-2,0,-2
1514955704514903,-1,-1,-1,-3,-2,0,-2,0
1514955704514903,-2,0,-1,-1,-2,0,1,-1
1514955704527910,-2,1,0,-2,-1,0,-2,-2
1514955704527910,-4,-1,-1,-1,-2,-3,1,-1
1514955704533917,-2,0,-2,-1,-1,-2,-1,-3
1514955704533917,1,-3,-2,-2,-2,-1,-3,-1
1514955704550926,-1,-1,0,-2,-2,-2,-1,1
1514955704550926,-2,-2,-1,-1,1,-1,-1,2
1514955704551928,-1,-2,-2,0,-2,-2,-2,-3
1514955704551928,1,-2,-1,1,-3,0,0,-2
1514955704572940,-1,-2,-2,0,0,-1,-1,-1
1514955704572940,-1,-1,-1,-2,-2,0,-3,-1
1514955704574942,-1,-2,-2,-2,-2,-1,-2,0
1514955704574942,-2,0,-1,-2,0,0,-1,-1
1514955704587951,-2,-3,0,-3,-1,-1,0,0
1514955704587951,0,-2,-2,0,-2,-1,-1,0
1514955704593956,0,0,0,-1,-2,0,0,0
1514955704593956,1,1,0,-1,-1,-1,-3,-2
1514955704618976,-1,0,-2,-1,-2,0,1,1
1514955704618976,-1,-2,0,-4,0,-3,-1,-3
1514955704619977,-1,0,-1,0,1,-1,-2,-2
1514955704619977,0,0,-2,0,-1,-1,0,-1
1514955704632987,-2,-1,-3,-1,0,0,-1,-1
1514955704632987,0,-1,-2,0,-3,-2,-2,0
1514955704634984,1,-3,0,-1,0,-2,0,1
1514955704634984,-2,-2,0,0,-3,1,0,0
1514955704648004,1,0,-1,0,-2,-1,-2,-4
1514955704648004,0,-2,-2,-1,-1,0,2,1
1514955704653999,-2,0,-2,0,0,-2,-2,1
1514955704653999,0,-1,-2,-1,-1,-1,-2,1
1514955704671010,-2,-2,0,0,-2,-3,-1,-2
1514955704671010,-3,0,-1,0,-1,-1,-1,-2
1514955704672011,1,-2,-1,-1,0,-1,0,0
1514955704672011,-2,-2,-2,-3,-1,-1,-1,-3
1514955704694028,-1,-2,-2,0,-2,-2,-3,-1
1514955704694028,0,-1,-2,1,0,0,-1,-2
1514955704698031,-2,0,-1,0,-1,0,-1,0
1514955704698031,0,-1,0,0,1,0,-1,-2
1514955704708036,0,0,-2,-2,-3,-1,-1,-2
1514955704708036,-2,-2,-2,-1,-2,0,0,-1
1514955704715044,-2,-1,0,-2,-2,0,-1,-1
1514955704715044,-1,-1,-1,-1,-2,0,0,0
1514955704731052,-1,-2,-1,-1,0,-1,1,0
1514955704731052,-1,0,-1,-2,-1,-2,-2,-3
1514955704732054,-2,-1,-1,-1,-3,-1,0,0
1514955704732054,1,-1,1,-1,-2,-1,-1,1
1514955704754072,0,0,-1,-2,0,-1,0,-1
1514955704754072,-2,0,-1,-2,-2,0,0,0
1514955704755073,0,-3,-1,-1,-2,0,1,-3
1514955704755073,-2,-1,-1,0,0,-2,-3,-2
1514955704767079,-1,-2,-2,0,0,-1,-2,0
1514955704767079,-1,-2,0,-1,0,-2,-2,0
1514955704774087,-2,-1,-2,0,-1,-2,-1,0
1514955704774087,-2,0,-1,-1,-1,-1,-1,-1
1514955704791096,-2,-1,0,-1,0,0,0,-1
1514955704791096,0,-1,0,-2,-1,-1,-2,0
1514955704792095,0,-1,-1,-1,-1,-2,-2,-4
1514955704792095,0,-2,-2,-1,-2,-1,-1,-2
1514955704813111,-1,-1,0,0,-1,-2,-2,-2
1514955704813111,-1,-2,-1,1,0,-2,-2,-1
1514955704815115,-1,-2,-1,-1,-2,0,-1,0
1514955704815115,-2,-1,-1,-1,0,-2,1,0
1514955704827123,-3,0,-2,-1,-1,-1,-1,0
1514955704827123,0,-2,-2,-2,-1,-1,-2,-1
1514955704836128,-1,0,-1,-1,-1,-3,-2,-3
1514955704836128,-1,0,0,-2,2,-2,-1,-1
1514955704851137,0,-1,0,-1,0,0,-1,0
1514955704851137,-1,-2,-1,-1,-2,1,1,-1
1514955704852137,-1,-1,0,-1,-2,-2,-2,1
1514955704852137,-1,0,-2,0,1,0,2,-1
1514955704873155,1,-1,-2,0,-2,-2,1,-1
1514955704873155,0,-1,-2,-2,-1,-1,-2,-2
1514955704875154,0,1,-1,0,0,-2,-1,-1
1514955704875154,1,0,-1,-2,0,0,-1,0
1514955704896172,-1,-1,0,-1,-1,1,-2,-2
1514955704896172,-2,0,-2,-2,-1,-2,0,0
1514955704897175,-1,-3,-1,-2,0,-1,-1,0
1514955704897175,0,-1,-1,-1,-1,-1,-1,0
1514955704911183,0,-1,-2,-1,-2,-2,-2,-1
1514955704911183,0,0,-2,-2,-3,-3,-2,1
1514955704912181,-1,-1,-1,-4,-1,1,-1,-1
1514955704912181,-3,0,-1,-1,-2,-1,-1,-2
1514955704933195,-1,-2,-1,-1,-2,-2,-1,1
1514955704933195,-4,0,-1,-1,0,0,0,-2
1514955704934196,-1,0,-1,-1,-1,-2,-1,0
1514955704934196,0,-4,-3,-1,-2,-1,1,-3
1514955704947209,0,-3,-2,-3,0,-1,-2,0
1514955704947209,-2,-3,-1,-1,-1,-2,-1,-2
1514955704956211,-3,-1,0,0,0,0,1,-1
1514955704956211,-2,-1,-1,0,-1,-1,-1,2
1514955704971222,1,0,-2,0,-1,-2,1,0
1514955704971222,1,-1,0,-1,0,-1,-3,-2
1514955704972224,-1,-2,-2,0,-2,-2,-2,-3
1514955704972224,-2,-1,0,-1,-1,-2,-2,-1
1514955704993237,-2,-3,-2,-1,0,0,0,0
1514955704993237,-1,-1,-2,-1,0,-1,0,0
1514955704995241,1,0,-1,-1,-3,0,-1,-2
1514955704995241,1,-1,-1,0,-3,-1,-1,-2
1514955705007247,-1,0,0,0,-2,0,-2,-2
1514955705007247,-1,-1,-1,0,0,1,-1,-1
1514955705016254,0,-2,0,-3,0,-1,-2,0
1514955705016254,-1,-2,-2,-1,0,-2,-2,0
1514955705030263,1,-2,-1,-1,-2,-2,-1,1
1514955705030263,0,0,-2,-1,0,-1,0,1
1514955705032265,-3,-2,-3,1,-1,0,-2,-2
1514955705032265,1,0,-2,-1,-1,-1,0,-2
1514955705053279,-2,-1,0,-3,0,0,-1,-2
1514955705053279,-1,-3,-2,0,-1,-1,0,-1
1514955705054280,-1,-1,-1,0,-1,-1,0,-3
1514955705054280,-2,-2,-1,0,-2,0,1,-2
1514955705067289,-2,0,-2,0,-2,-2,0,-1
1514955705067289,-1,-1,-2,0,-1,1,-3,0
1514955705076312,0,-1,-1,-4,-1,-1,-1,1
1514955705076312,-1,-1,-2,-2,-2,0,-2,-3
1514955705090309,-3,-1,0,0,-2,-1,-1,-2
1514955705090309,0,0,-2,-3,-1,0,-1,-2
1514955705092319,-1,-3,-1,-1,-1,-2,0,-1
1514955705092319,-2,-1,-2,-1,-2,-2,-2,0
1514955705113334,-1,-1,-1,-2,0,-1,-1,1
1514955705113334,-1,0,-2,0,-1,-1,0,-3
1514955705114339,0,0,-3,-1,-2,-2,-1,-2
1514955705114339,-1,-2,-1,-1,0,-2,1,-1
1514955705127347,-2,-1,0,-1,-2,-1,-1,-3
1514955705127347,-1,-1,0,-2,-2,-1,1,0
1514955705135340,0,0,-1,-1,-1,-2,0,-2
1514955705135340,-2,-2,-2,-2,-1,-1,0,0
1514955705150361,3,-2,-1,-1,-1,-2,-3,0
1514955705150361,-1,-1,-1,-1,-1,-1,-2,-2
1514955705152350,0,-1,2,-1,-1,-1,0,-1
1514955705152350,-2,-1,-1,-3,-2,-1,-2,-1
1514955705174386,-1,-1,-1,1,1,0,0,-2
1514955705174386,-2,-2,-1,-1,0,-1,-1,1
1514955705176382,1,-2,-1,-2,-1,1,1,-2
1514955705176382,0,0,-1,1,-1,-2,0,-1
1514955705195392,-2,-1,-1,-1,-1,-1,-2,1
1514955705195392,0,-2,-2,0,-3,-2,-3,-1
1514955705195392,-2,-1,-2,1,1,-1,0,1
1514955705195392,-1,-1,0,-1,-2,-1,0,-2
1514955705210403,-3,-2,-3,-3,-2,-1,2,0
1514955705210403,-1,-1,0,0,1,-2,1,-2
1514955705210403,-2,0,0,0,-2,-1,-4,-2
1514955705210403,-2,-1,0,-1,-1,0,1,-2
1514955705232406,1,0,-2,-2,-1,-3,-1,-2
1514955705232406,-1,-2,-2,-2,-1,1,-2,-1
1514955705233417,-1,-1,-1,-2,0,1,-1,-1
1514955705233417,-1,0,-2,-2,1,-2,-3,-1
1514955705255430,-3,-2,-3,-2,-1,-2,-2,-2
1514955705255430,-1,-2,-2,-3,-2,-2,3,-1
1514955705256445,0,-2,-2,-1,-2,-1,1,0
1514955705256445,0,-2,1,-1,-2,1,0,0
1514955705270448,0,-1,-1,0,-1,-2,-1,0
1514955705270448,-1,0,-1,-1,-1,1,-2,-2
1514955705272435,-3,-3,-1,-1,0,-1,-1,-2
1514955705272435,-1,-1,-1,-2,-2,-3,-1,-1
1514955705292471,-1,0,0,-1,1,-1,-1,-1
1514955705292471,-1,-1,-1,-2,-2,-1,-1,1
1514955705293459,-2,-2,-2,-2,-1,-1,-1,-2
1514955705293459,0,0,-1,0,0,-1,-1,0
1514955705314463,0,0,-1,0,-1,-1,-1,-2
1514955705314463,-1,-1,0,-2,0,-1,-2,-2
1514955705315464,-3,-1,-2,-2,0,-1,-1,-2
1514955705315464,-2,-2,-2,-1,-2,-1,-3,-3
1514955705331477,-1,-1,-3,-1,-1,0,0,-1
1514955705331477,-1,0,-1,-1,-1,-1,1,0
1514955705332480,-1,-1,-1,-3,-1,0,0,-1
1514955705332480,-1,-2,-1,-1,-1,-1,-1,0
1514955705352491,1,-1,0,-2,-1,0,0,-2
1514955705352491,-3,-2,-1,-1,-1,-2,-2,-2
1514955705353492,0,-1,-2,0,0,-3,0,0
1514955705353492,-3,-1,-2,0,0,-2,0,-2
1514955705374506,-2,0,-1,-1,-1,-1,0,-3
1514955705374506,0,-1,-1,1,-1,0,-2,1
1514955705375507,-1,0,-1,0,-1,-1,-1,0
1514955705375507,-1,-2,-2,-3,0,-2,-2,-1
1514955705389517,-2,-2,-1,-1,-1,-1,0,-1
1514955705389517,0,-2,-1,-1,-1,-2,-2,-3
1514955705390519,-3,-1,0,-1,-2,-1,2,1
1514955705390519,0,-1,-1,-1,-1,0,-1,0
1514955705412542,1,0,-1,-3,1,1,1,-1
1514955705412542,-2,-2,-4,-2,-3,0,-2,-2
1514955705414540,1,-1,1,1,0,1,-3,-3
1514955705414540,0,-1,0,-1,-1,-1,0,0
1514955705434559,-1,0,0,-1,-2,-3,-2,-2
1514955705434559,-3,0,-1,-1,-2,-3,0,-1
1514955705435550,-2,0,-2,-2,-2,0,-2,-3
1514955705435550,0,-2,-1,0,-1,-2,0,1
1514955705450561,-1,-3,-1,-1,-2,-1,-2,0
1514955705450561,0,-2,0,-1,0,0,-1,-1
1514955705452564,-3,-2,-1,-3,-2,0,0,-1
1514955705452564,-2,0,-1,-1,-1,-1,-1,-3
1514955705472575,-2,-1,-1,-1,0,0,-2,0
1514955705472575,0,-1,0,0,-1,-1,-1,-2
1514955705473576,-1,-2,-3,-2,-1,-1,-5,-2
1514955705473576,-2,-2,-2,-2,-1,-1,-2,-1
1514955705495593,0,-4,0,0,-1,-1,0,0
1514955705495593,-2,-1,0,-1,-1,-2,0,-1
1514955705497603,2,0,0,0,-1,-2,-1,1
1514955705497603,-1,0,-2,0,-2,-1,-1,-1
1514955705509601,-1,0,-3,-1,-2,-1,-2,-2
1514955705509601,-1,-1,-1,-1,1,-1,0,1
1514955705510602,-1,-1,-1,0,-1,-3,-3,-3
1514955705510602,-1,-1,-1,-2,-2,0,-1,-2
1514955705532618,-2,2,-1,0,-1,-1,-2,0
1514955705532618,1,-2,-3,-1,-3,-1,0,0
1514955705533619,-2,-2,0,-3,-1,-1,-2,-2
1514955705533619,-1,-3,-1,-2,-1,0,0,-1
1514955705554634,-2,0,0,-1,-2,1,2,-2
1514955705554634,0,1,-1,-1,0,0,0,-3
1514955705562640,-1,-1,-1,1,0,-2,0,0
1514955705562640,-1,-2,-1,-2,-2,-2,-2,0
1514955705569645,0,-4,-2,-1,-1,-1,-1,-2
1514955705569645,-2,-1,-1,-1,0,-1,-3,-1
1514955705570645,0,1,0,-2,-2,0,-2,0
1514955705570645,-2,0,-1,-2,-1,-1,-4,-3
1514955705592673,-1,-1,-1,-2,0,0,-2,-1
1514955705592673,0,-1,-1,-2,1,-1,-1,1
1514955705593662,-1,-1,0,-2,-2,0,2,-2
1514955705593662,-1,-1,-1,-1,-1,0,-2,0
1514955705614688,-3,-2,-1,0,-1,1,-1,0
1514955705614688,-2,-2,-2,-2,-2,-2,-1,-1
1514955705615678,-2,-1,-1,-3,-2,0,-1,0
1514955705615678,-1,-2,-4,0,0,-1,-1,1
1514955705630687,-2,-1,0,-1,0,-2,1,-1
1514955705630687,-2,0,-4,-1,-1,-1,-2,-2
1514955705637731,-1,-1,-1,0,-2,-2,-1,-1
1514955705637731,-1,-1,1,-1,-1,-1,0,-1
1514955705652716,0,-1,-1,-1,-2,-1,-4,-1
1514955705652716,-1,-1,0,0,-4,-2,0,0
1514955705653703,-1,0,-2,-1,-1,-4,0,0
1514955705653703,1,0,-3,-1,-2,0,-2,-2
1514955705674720,1,-2,-2,-2,-2,-1,1,0
1514955705674720,-1,-3,1,-2,-1,-1,-2,0
1514955705675721,0,-2,-2,0,-2,-1,-1,0
1514955705675721,-1,1,-1,0,1,-2,0,-2
1514955705689786,-3,-1,-2,-2,-1,-3,-3,-3
1514955705689786,0,1,-3,0,-1,1,-1,-2
1514955705690743,1,-2,-1,0,-1,-3,-1,-2
1514955705690743,0,-1,0,-3,-1,-1,-1,0
1514955705712746,0,0,-2,-2,0,-1,1,1
1514955705712746,0,-1,0,-2,0,-1,-2,-2
1514955705712746,0,-3,-1,-1,0,-1,1,-1
1514955705712746,0,-1,1,1,-2,-1,-1,-2
1514955705734765,0,-2,-2,0,0,-1,-2,0
1514955705734765,-1,-3,-2,-1,0,-2,-1,-1
1514955705735761,-3,0,-2,-1,1,1,-1,-3
1514955705735761,-2,-2,0,0,-2,-2,0,1
1514955705751788,2,0,-1,0,0,-1,0,-2
1514955705751788,-1,1,-1,-1,-1,0,-1,-1
1514955705752791,1,-1,1,-2,-1,-1,-1,-2
1514955705752791,-2,0,0,-2,0,-1,1,-1
1514955705773835,-1,-1,0,-2,-2,-2,-1,0
1514955705773835,-1,-2,-2,-3,-1,0,-2,-3
1514955705774804,-3,-1,-2,-2,0,-1,0,-2
1514955705774804,-1,-1,-1,-1,-3,0,-1,0
1514955705794806,-4,-1,-1,0,-1,1,-1,-1
1514955705794806,1,-2,-2,0,0,1,1,1
1514955705795805,-2,-2,-1,-1,-2,-1,-4,-1
1514955705795805,0,-1,-2,-1,1,-1,0,-2
1514955705809823,0,-1,0,0,0,-1,-2,-1
1514955705809823,-1,0,-1,-1,-1,-3,-2,0
1514955705817819,-2,-2,-2,0,1,0,0,1
1514955705817819,-1,-2,1,-1,-1,-1,0,-3
1514955705832831,-2,-1,-3,-1,-2,-1,0,-2
1514955705832831,-2,0,1,-1,-1,-1,-1,1
1514955705832831,-2,-2,-1,0,-2,-2,-1,-4
1514955705832831,-2,-2,-2,-2,-2,-1,-1,-1
1514955705854858,2,-3,-2,-1,-1,1,0,-1
1514955705854858,0,-1,-1,-1,0,-1,-1,-1
1514955705855859,0,-1,-3,-3,-1,0,0,0
1514955705855859,-3,1,0,-2,2,0,-1,-1
1514955705868871,-4,-1,1,-1,-1,-2,-2,-2
1514955705868871,-2,0,1,0,-1,-1,1,0
1514955705877874,2,0,0,-1,0,0,-2,-3
1514955705877874,1,-3,-3,-1,0,-1,-2,-2
1514955705892888,-1,-2,0,-3,0,-2,-1,-1
1514955705892888,-1,-2,-3,-2,-2,-3,1,-2
1514955705892888,1,0,0,0,-3,-1,0,0
1514955705892888,-1,-2,0,0,-1,-1,-1,-1
1514955705914907,-1,-1,-1,0,-1,-1,1,1
1514955705914907,-2,-1,-2,-1,0,0,-3,0
1514955705915894,-3,0,-2,-2,-1,0,-2,-2
1514955705915894,-1,0,-1,-1,0,-2,0,-1
1514955705929899,1,1,-1,0,-1,-1,-2,-2
1514955705929899,-1,-1,-1,-3,-3,-1,0,-2
1514955705937904,2,0,0,-1,-3,-1,1,0
1514955705937904,0,-1,-2,-1,-2,-1,-1,-1
1514955705952929,-3,-1,-1,0,0,-3,-1,-2
1514955705952929,-1,-1,-1,0,0,-1,-3,-1
1514955705952929,-1,-1,0,-1,0,0,-1,0
1514955705952929,-1,-1,0,-1,-2,-1,0,0
1514955705974945,0,-2,0,-2,-1,-2,0,-1
1514955705974945,-3,-1,1,1,0,1,-2,0
1514955705975933,-2,-1,-2,-2,-1,-1,-1,-1
1514955705975933,-2,-1,-1,-3,-2,0,-2,-1
1514955705988955,-2,-1,-1,-1,-1,-3,0,0
1514955705988955,-1,-2,-1,-1,-1,-2,0,-2
1514955705997947,-1,0,-1,-1,-1,-2,0,-2
1514955705997947,1,1,-1,-1,-1,-3,-2,-2
1514955706012960,-1,-1,-2,-1,-1,-2,1,-3
1514955706012960,1,0,0,-1,-1,0,1,0
1514955706014958,-1,-2,0,-1,0,-2,-1,-1
1514955706014958,-1,-3,0,-1,-1,0,0,-2
1514955706035977,-2,-1,-2,-2,-2,0,-2,0
1514955706035977,-2,-1,-1,-3,-2,-1,1,-2
1514955706036975,0,-2,-1,-3,-2,1,-2,-2
1514955706036975,-1,-1,-3,-1,-1,-2,0,0
1514955706048984,1,-1,-1,-1,0,-1,-1,0
1514955706048984,-1,-3,-2,-2,-2,-4,-5,-1
1514955706057001,0,-1,-1,-2,-1,0,0,-2
1514955706057001,-2,0,-1,-1,-3,0,0,-2
1514955706072000,1,-1,0,-1,-1,1,-3,0
1514955706072000,-1,-1,-2,-3,0,-2,0,0
1514955706073000,1,-1,-1,0,-1,-1,0,0
1514955706073000,0,-1,-1,-2,-1,-1,0,1
1514955706095019,-1,-1,-1,-2,-2,-1,0,0
1514955706095019,1,-2,0,-1,-2,-1,0,-3
1514955706096018,-1,-1,-2,-1,0,-1,-1,2
1514955706096018,-2,-1,0,1,0,-1,2,0
1514955706109064,-1,-2,-3,-2,-1,1,-2,2
1514955706109064,-2,0,-2,-1,-1,0,1,-2
1514955706117043,-1,0,0,0,0,-1,0,-4
1514955706117043,0,-1,0,-1,-1,-3,-3,-1
1514955706132042,-1,0,1,-1,2,0,-2,3
1514955706132042,-2,-2,0,0,-2,0,-1,-1
1514955706133044,-1,-4,-1,-1,-1,0,-3,-2
1514955706133044,-2,-1,-2,-1,-1,1,-1,-2
1514955706155058,1,0,-1,-2,-1,-1,-1,0
1514955706155058,-1,-1,-2,-2,-2,-1,2,1
1514955706156059,-2,0,-1,0,-2,-2,-2,-3
1514955706156059,0,1,-2,-3,0,-1,-2,-3
1514955706178074,-2,-1,-2,-1,0,1,-1,-2
1514955706178074,-2,-1,-1,-1,-2,-1,-2,0
1514955706179074,-1,-1,0,0,-2,-3,1,0
1514955706179074,-3,-4,-1,-1,-1,-2,-3,-1
1514955706193085,-1,0,0,-1,-2,-3,0,-1
1514955706193085,1,0,-2,0,0,-1,-3,-2
1514955706194085,-1,1,0,-1,0,-1,0,-2
1514955706194085,1,0,0,1,0,-2,-1,-1
1514955706215100,0,0,-2,0,0,-1,-1,-2
1514955706215100,-1,-2,0,-1,-2,0,0,-3
1514955706216101,0,0,0,-2,-2,0,0,2
1514955706216101,-2,-3,-1,-2,0,-1,-1,-1
1514955706239118,-2,-1,-1,-1,-1,-2,-2,-3
1514955706239118,-1,-1,-1,-1,0,-1,-3,-1
1514955706239118,0,0,-3,1,-1,-2,0,1
1514955706239118,-2,-1,-1,0,-3,0,-2,0
1514955706252139,-1,0,0,1,-1,-1,-1,-1
1514955706252139,1,-1,0,-2,1,1,-2,-1
1514955706253127,0,1,-2,0,-1,0,-2,-3
1514955706253127,-1,0,-1,-2,0,-1,0,0
1514955706275165,1,-1,-1,-1,-3,0,0,-2
1514955706275165,-2,-1,0,-1,-1,0,-1,0
1514955706282198,0,-2,-1,-1,-1,-1,1,0
1514955706282198,0,-3,-2,-1,-2,-1,-1,1
1514955706298194,-2,-1,-2,-1,1,-2,0,0
1514955706298194,0,0,-2,-1,-1,-1,-1,0
1514955706299184,-1,-2,-2,-2,0,0,-2,-2
1514955706299184,-2,0,-1,0,-1,0,0,-2
1514955706312204,-2,-1,-1,-2,-1,-1,1,-1
1514955706312204,-2,-2,-1,-1,-1,-1,2,0
1514955706313194,-2,-3,1,0,0,-1,1,0
1514955706313194,-1,-2,-1,-2,0,-3,-1,-1
1514955706335211,-1,-2,0,0,1,-1,0,-1
1514955706335211,-1,-2,0,0,0,1,-1,0
1514955706335211,0,-2,0,-3,-1,-2,-2,-1
1514955706335211,-1,-1,-1,-1,-2,-1,-2,-2
1514955706358230,-3,-1,0,-3,-2,-1,0,-2
1514955706358230,1,-1,-1,-2,0,-3,-2,-4
1514955706359230,-3,-2,-2,0,-1,-1,-2,0
1514955706359230,1,1,-1,0,-2,-2,-3,1
1514955706372240,-2,-1,-1,-2,-1,-2,-1,-4
1514955706372240,0,2,0,-1,-1,0,1,-1
1514955706373240,-3,-1,-1,-1,0,-1,-1,-2
1514955706373240,1,-1,-1,-1,0,-3,0,-2
1514955706395256,0,-1,0,0,-2,0,-1,1
1514955706395256,-3,-3,-1,1,-1,-1,-2,0
1514955706396254,0,-1,-1,-1,-1,-1,-2,-2
1514955706396254,-2,-2,-1,-2,-1,1,0,-1
1514955706419269,0,-1,-1,0,-1,0,-1,1
1514955706419269,-3,-4,-2,-1,-2,0,0,-1
1514955706420270,-3,0,-1,-4,0,0,-1,0
1514955706420270,0,-1,0,-1,-2,-1,0,-1
1514955706432289,2,-1,-2,0,-1,-2,1,-3
1514955706432289,0,-1,-2,-2,-1,-1,-1,-1
1514955706433279,-2,0,-2,-1,-2,0,-3,-2
1514955706433279,-1,-1,-2,-1,0,1,-1,-2
1514955706455296,-3,-2,-2,-1,1,0,-2,-2
1514955706455296,-1,-1,-1,0,-2,0,-2,-2
1514955706455296,0,-2,0,0,-2,0,1,-3
1514955706455296,-2,-1,-1,-1,0,-1,-1,0
1514955706478312,0,-2,-1,0,-1,-2,-2,0
1514955706478312,-2,-1,-1,0,-2,-2,-2,-1
1514955706479314,1,-1,-1,-2,-2,0,0,-1
1514955706479314,-3,-1,-1,-1,-2,-2,0,0
1514955706492320,-1,-3,-1,-3,0,-1,-2,-1
1514955706492320,-3,-1,-1,-1,0,-2,0,-2
1514955706494323,0,-1,0,0,-1,0,-1,0
1514955706494323,-2,-1,1,-2,0,-1,0,-1
1514955706515337,-1,0,0,0,-2,-3,-2,-2
1514955706515337,0,0,-1,0,-2,-1,-1,-1
1514955706515337,-2,-1,-2,0,-1,-2,0,-3
1514955706515337,-2,-1,-4,-3,-2,-1,-3,0
1514955706538384,-2,-2,0,0,0,-1,0,-3
1514955706538384,-1,-2,-3,-2,-1,-1,1,1
1514955706539381,-1,0,-1,1,-2,-2,-1,-1
1514955706539381,-1,0,-1,-2,-2,-1,-1,-1
1514955706560389,0,-3,-1,-2,-2,-3,-2,1
1514955706560389,0,1,1,-2,0,-1,-2,0
1514955706561385,-3,0,-2,-2,-1,-2,0,-2
1514955706561385,-1,-2,0,0,1,-2,-2,-1
1514955706575395,-1,0,-3,-1,-2,1,-2,-2
1514955706575395,-2,-1,0,-2,-3,-1,-3,-2
1514955706576380,-1,-1,0,-2,-1,-2,-3,0
1514955706576380,0,0,-3,0,-2,-1,2,-2
1514955706598399,-2,-2,-2,-1,-1,-1,0,0
1514955706598399,-1,-1,0,-1,0,-1,-2,-2
1514955706599397,0,-1,-3,0,1,0,-2,-1
1514955706599397,0,-1,-1,0,-1,-1,-4,-2
1514955706620415,1,-1,-2,0,-1,-1,-2,-4
1514955706620415,0,0,-3,0,-3,0,2,0
1514955706621416,-2,-2,0,-1,-1,0,-1,1
1514955706621416,1,-1,1,0,-2,1,2,-2
1514955706635422,-1,1,0,-2,0,-1,1,0
1514955706635422,1,1,-1,-1,-1,0,-1,0
1514955706635422,-1,0,0,-1,-2,-2,-1,-2
1514955706635422,0,0,-2,-2,1,-3,-1,0
1514955706659439,-1,-1,-2,-2,-1,0,0,0
1514955706659439,-1,-2,-2,-1,0,1,-2,-1
1514955706661442,-1,0,-2,-3,-2,0,0,1
1514955706661442,-1,-1,0,-1,0,0,-1,0
1514955706672449,-1,-2,-1,-1,-2,0,-3,0
1514955706672449,-1,-1,-2,-2,0,-2,-1,-1
1514955706673449,0,-1,0,1,-2,-1,-1,0
1514955706673449,-2,-3,0,-1,-1,-1,-1,-2
1514955706696467,-1,0,-2,0,-1,0,0,-2
1514955706696467,0,-1,-1,0,-1,-1,1,-1
1514955706697465,-3,-2,-2,-1,-1,-1,-1,-3
1514955706697465,-1,-1,-1,-2,-2,-1,-1,-2
1514955706718480,-1,-1,-1,1,0,-3,2,0
1514955706718480,-1,-1,-2,-1,-1,-1,-1,-1
1514955706718480,0,-2,-1,-2,-2,-1,0,0
1514955706718480,-2,0,-1,-1,-1,-1,0,-1
1514955706733501,1,-2,-1,-2,-3,-2,-2,0
1514955706733501,-2,-1,1,-1,-1,-1,-2,-3
1514955706735495,-2,-1,0,-2,0,-1,0,-2
1514955706735495,0,-1,-2,0,-3,-2,-1,1
1514955706754516,0,0,0,-1,0,1,0,-1
1514955706754516,-1,-1,0,0,0,-2,-1,-1
1514955706755508,-2,-2,1,-2,0,1,-2,-3
1514955706755508,-1,-1,-1,-1,-1,-2,0,-1
1514955706778524,-3,-1,-1,1,0,0,0,-3
1514955706778524,0,0,-1,1,-1,0,1,-1
1514955706780524,0,-1,-3,0,-2,0,-1,-2
1514955706780524,-1,-2,-2,-1,0,0,0,2
1514955706792537,-1,-1,-2,-2,-4,-2,-3,0
1514955706792537,-1,-1,0,-3,0,-1,-1,0
1514955706793534,-2,-1,-2,0,0,-2,0,-1
1514955706793534,0,-1,-2,0,-1,-1,-1,-1
1514955706814549,0,0,0,-1,-1,-1,-2,-1
1514955706814549,-2,-1,-2,0,-2,-1,0,-1
1514955706815550,-2,0,-1,-1,0,0,0,-3
1514955706815550,0,-2,-1,-1,-1,0,-1,-1
1514955706838565,-1,-1,-1,-1,-2,-3,-1,0
1514955706838565,-1,0,-1,-2,-2,-2,0,-2
1514955706838565,-2,0,-1,-1,0,-3,-3,-2
1514955706838565,-1,-1,0,-1,-2,-1,-3,1
1514955706851575,-1,0,0,-1,-2,1,1,-1
1514955706851575,0,-1,-1,-1,0,-1,-1,-3
1514955706859646,-2,-1,-1,-1,-2,-1,-3,0
1514955706859646,0,-1,0,-2,-1,0,1,-1
1514955706874595,0,0,0,-3,-1,-1,2,0
1514955706874595,-3,0,-1,0,-2,-3,-1,2
1514955706875592,-1,-2,0,-1,-1,0,-1,-3
1514955706875592,-1,1,-3,-1,0,0,-3,-4
1514955706898609,-3,-1,-1,0,-1,1,0,1
1514955706898609,-1,0,0,-2,-1,-1,-2,0
1514955706898609,-1,-1,-3,1,-1,-1,1,0
1514955706898609,-3,-1,0,-1,-1,-1,-1,-1
1514955706911635,0,-2,-1,-1,-1,-1,-1,-2
1514955706911635,-2,-3,-1,-1,0,0,-1,-1
1514955706919640,0,0,0,0,-1,-1,-1,-1
1514955706919640,1,-2,-1,-2,-2,-2,-1,-1
1514955706934634,-3,-1,-2,0,-2,-2,-1,0
1514955706934634,-2,0,-1,-1,-2,-1,-3,-1
1514955706935635,0,-1,-2,0,-3,-2,-1,-1
1514955706935635,-1,-2,0,-2,1,0,0,-2
1514955706958650,-2,-1,0,0,-1,-1,0,-2
1514955706958650,-2,-2,0,0,-2,-1,-1,-2
1514955706960652,2,-2,0,-2,1,0,0,-1
1514955706960652,-2,-2,-1,-1,-1,-1,-1,1
1514955706971671,0,-1,-2,0,1,-2,-3,-1
1514955706971671,-1,0,-3,-2,-1,-1,-2,-1
1514955706980667,1,-1,-2,-1,-2,-1,-1,-2
1514955706980667,-2,0,0,0,-1,-3,0,1
1514955706995678,-2,-2,-1,-2,0,0,0,0
1514955706995678,0,-2,-1,0,-1,0,2,-1
1514955706997677,-2,0,-2,-1,0,-3,-1,0
1514955706997677,-1,-2,-1,-1,-1,1,0,0
1514955707017693,-1,1,-2,-2,-1,-1,-1,-2
1514955707017693,-1,0,-1,-2,-1,0,-1,-2
1514955707018697,0,-1,-1,-1,-1,0,-1,-1
1514955707018697,-1,-1,-1,-1,-1,-1,1,-2
1514955707032709,-1,-2,1,-1,-1,0,-1,-3
1514955707032709,0,-1,-1,-1,-1,0,1,0
1514955707039730,0,0,-2,-1,0,-3,-2,1
1514955707039730,2,0,-2,-1,0,-1,-4,-3
1514955707055719,-2,-1,0,-1,-1,-1,-1,-2
1514955707055719,-2,-1,-1,-1,0,-2,-1,-2
1514955707056720,-2,-3,-1,-1,-2,2,0,-2
1514955707056720,-2,-1,0,-1,-2,0,-1,-1
1514955707077734,1,-2,-2,-2,0,-2,-3,0
1514955707077734,-1,-1,0,-2,-1,-2,-1,-2
1514955707078735,-1,0,-1,-1,-1,0,0,1
1514955707078735,-2,0,-1,0,-2,-1,0,-1
1514955707091766,-1,-1,-2,-2,-2,-1,0,-1
1514955707091766,0,0,0,1,-3,-1,-1,2
1514955707099751,-1,-1,-2,0,-1,-1,-2,-2
1514955707099751,-2,-2,-3,-2,-1,-2,-1,-1
1514955707114765,1,0,-1,-1,-1,-2,-2,-1
1514955707114765,0,-1,-1,-2,0,1,0,-3
1514955707115766,-2,-1,1,0,-2,0,2,-3
1514955707115766,-1,0,-2,-2,1,-2,-1,1
1514955707137781,-1,-2,-1,-2,0,1,-2,-2
1514955707137781,-2,-1,-1,-3,0,1,-1,-2
1514955707138779,0,0,0,-1,-2,0,-2,0
1514955707138779,-3,0,-2,-1,0,-2,-2,0
1514955707160794,-2,-1,-1,0,0,-2,-2,0
1514955707160794,1,-2,-2,-2,0,-3,0,-1
1514955707161794,-2,0,0,-2,-1,0,-1,0
1514955707161794,1,0,-1,0,0,0,-1,-2
1514955707175812,-3,-1,-2,0,-1,-1,0,1
1514955707175812,1,-2,0,-1,-3,-2,1,-1
1514955707176804,-2,-1,0,-2,-2,-1,1,-2
1514955707176804,-2,-1,-1,0,-2,1,-1,-3
1514955707197820,0,-2,-1,-2,-1,1,0,-1
1514955707197820,0,-2,0,1,-1,-1,-4,-2
1514955707198821,0,0,0,-2,-1,-2,-1,0
1514955707198821,-1,-1,-1,0,-2,-1,-1,0
1514955707220854,-4,0,-1,-2,-1,-2,0,-1
1514955707220854,1,-1,-4,1,-1,-1,0,0
1514955707222836,-1,-1,-2,-1,0,-1,-1,0
1514955707222836,-1,-1,1,0,0,0,-2,-2
1514955707235881,0,0,-2,-1,-2,-1,-2,-2
1514955707235881,-1,-1,0,0,-1,-1,0,-3
1514955707236882,-1,-1,-1,-2,-3,-1,2,-3
1514955707236882,0,-1,-1,-1,-3,0,0,0
1514955707257912,1,-1,0,0,-1,0,-1,-1
1514955707257912,-2,0,0,-2,-2,-2,-1,0
1514955707258863,0,-2,-2,0,0,-2,0,-1
1514955707258863,-1,-2,-1,-2,-1,-1,-1,0
1514955707280879,-3,-1,0,0,-2,-2,-1,-2
1514955707280879,-2,-2,-1,0,-1,-2,-2,-2
1514955707281883,-1,-1,0,-1,-1,-1,0,0
1514955707281883,-1,0,-1,0,0,-2,-1,0
1514955707293944,-1,0,-1,0,-1,-2,0,-3
1514955707293944,-2,-1,-3,-2,-2,1,-2,0
1514955707302893,0,-3,-1,1,0,0,-3,-1
1514955707302893,2,-1,0,-1,-2,0,-2,-2
1514955707317904,-1,-1,-2,0,-1,-1,-1,0
1514955707317904,-3,1,-1,-2,-3,-1,-3,-2
1514955707320922,-2,0,0,0,-1,-1,0,-2
1514955707320922,-4,-2,-2,-2,-1,-1,0,0
1514955707340976,3,-1,-1,-3,-1,-2,-2,-1
1514955707340976,4,-1,-1,-2,-1,1,-1,-2
1514955707341930,5,-1,-2,0,0,0,-2,1
1514955707341930,-5,-2,-1,-1,-1,0,0,-1
1514955707353935,-2,0,-2,-2,-1,-2,-1,-1
1514955707353935,-5,1,-1,-1,-2,-1,0,-2
1514955707362938,8,1,-2,-1,-1,-2,-1,-2
1514955707362938,-1,0,-2,0,-1,-1,-1,-2
1514955707377946,-3,-1,-2,0,-3,-1,1,1
1514955707377946,1,0,1,0,0,0,1,0
1514955707379948,-5,-3,-1,-1,-2,-2,-2,0
1514955707379948,1,-1,-1,-1,-1,-2,1,-1
1514955707400964,-2,-1,-2,-1,0,1,-2,-2
1514955707400964,-4,-1,-3,0,-1,-1,-2,-1
1514955707401965,-4,-1,-1,0,-1,1,-3,-2
1514955707401965,-1,-1,-2,0,-1,0,-2,-1
1514955707413982,0,-1,-1,-3,-1,-1,-2,1
1514955707413982,0,0,-1,0,0,-2,0,-2
1514955707422979,-4,0,-1,-1,-4,0,-3,-1
1514955707422979,-1,-3,-2,-1,-1,0,-1,0
1514955707437990,-2,-2,0,-1,-1,-1,2,0
1514955707437990,-2,-3,-1,-1,-1,-2,1,-1
1514955707439991,-3,0,0,-2,-2,-2,-2,1
1514955707439991,0,-1,-2,-2,-2,-1,-1,-2
1514955707468011,1,-1,-1,1,1,-1,0,-3
1514955707468011,-2,-2,-1,-2,-1,1,0,-1
1514955707470012,-2,0,-1,-3,-2,-1,0,-1
1514955707470012,-2,0,0,-1,-2,-2,-1,1
1514955707474026,-2,-2,0,0,0,-1,-3,0
1514955707474026,2,-2,-2,-1,-2,0,0,-2
1514955707483021,-2,0,-1,0,-1,-2,-2,-3
1514955707483021,0,-1,-1,-2,1,-2,-3,-1
1514955707498032,-2,-2,0,1,-2,-1,-2,-1
1514955707498032,-1,-2,0,-1,-1,0,-1,-2
1514955707504036,-2,-1,-1,-1,-1,-1,1,-1
1514955707504036,-2,-2,0,-1,0,-3,0,-2
1514955707521048,-1,0,-1,-1,-1,-1,-2,-1
1514955707521048,0,-2,-2,-1,0,1,-1,-1
1514955707525067,-1,-2,-3,0,2,-1,0,-1
1514955707525067,0,-1,-1,-1,0,-3,2,-1
1514955707535058,1,0,-3,-1,1,-2,-3,-2
1514955707535058,-2,-1,0,-2,-4,-2,-1,-3
1514955707542066,0,-2,-2,-3,-1,-1,0,-1
1514955707542066,1,-2,-1,-1,-2,1,-1,-2
1514955707558105,-1,-2,-1,-3,-3,-1,-1,2
1514955707558105,-1,-1,0,-1,-1,-2,-1,2
1514955707560093,-1,-1,1,-1,-2,-1,-1,0
1514955707560093,-2,0,0,1,-1,0,-2,-1
1514955707581092,-1,0,-1,-1,-2,-1,-1,-2
1514955707581092,0,-1,0,-2,-2,-1,-1,1
1514955707582091,-1,-1,-1,1,1,1,0,-1
1514955707582091,0,0,-1,-2,-2,0,1,1
1514955707595112,-1,-2,1,-1,-1,-1,1,-3
1514955707595112,-2,-1,-3,-2,-2,-2,-3,0
1514955707602105,-1,-1,-2,0,-1,0,-1,-1
1514955707602105,0,0,-2,0,3,0,-1,-1
1514955707618117,-2,-1,-1,0,-2,0,-4,1
1514955707618117,1,0,0,-2,-1,-1,1,-3
1514955707620133,4,-3,-1,-1,-1,-2,1,-2
1514955707620133,-7,-2,-2,-2,-3,-1,-2,-1
1514955707641135,-2,-4,-1,-1,-1,-2,-2,1
1514955707641135,-3,-1,5,2,0,1,-4,-1
1514955707642152,-1,0,-10,0,-3,0,-1,-1
1514955707642152,-3,-5,-1,-7,-2,-1,0,-4
1514955707654160,0,1,9,2,-2,-1,0,-2
1514955707654160,0,-1,-13,-2,0,-1,2,-2
1514955707663149,-2,-2,13,-2,0,-1,-2,-3
1514955707663149,0,-1,-12,1,0,-2,-2,1
1514955707678173,-1,-2,-4,-4,-2,-1,-1,-1
1514955707678173,0,0,2,2,0,-1,-1,-3
1514955707679173,-4,1,-2,-1,-1,-1,0,-1
1514955707679173,0,0,2,0,-2,-1,1,3
1514955707700174,1,-2,2,0,-1,0,0,0
1514955707700174,-2,-3,-2,0,0,-2,0,-3
1514955707702175,-3,-3,-3,-3,-3,-2,-3,0
1514955707702175,1,0,3,-4,-2,-2,-2,-1
1514955707714187,-3,-1,-6,1,1,1,1,1
1514955707714187,-2,1,9,6,-6,-5,-2,-1
1514955707723192,-3,-4,-20,-2,4,-1,0,-1
1514955707723192,-1,-4,11,-10,-5,1,1,-3
1514955707738210,0,0,-13,-4,-1,-1,0,-3
1514955707738210,-3,-5,-16,-10,-1,0,0,-1
1514955707739211,-1,4,9,13,-3,-4,-3,0
1514955707739211,-1,-1,-14,-5,1,-1,-2,0
1514955707760226,-1,0,5,1,0,-1,-2,-1
1514955707760226,1,2,2,-1,1,0,1,1
1514955707762218,0,-2,-2,-2,-2,1,-1,-2
1514955707762218,-3,-1,1,4,0,-1,1,0
1514955707774239,-1,0,3,0,-2,0,-2,-2
1514955707774239,-1,0,0,1,0,1,-1,-1
1514955707783240,-1,-1,1,-3,-2,-1,-1,1
1514955707783240,-2,2,14,6,0,0,-3,-2
1514955707798257,-2,-3,-23,-9,-1,-3,-1,-2
1514955707798257,-1,-3,-1,1,-1,-1,-1,-3
1514955707800250,3,3,4,-4,-4,-2,-1,-3
1514955707800250,-1,-2,-14,5,3,-2,-2,0
1514955707821260,-3,-5,3,-9,-4,-4,0,-4
1514955707821260,-1,-2,9,4,0,0,0,0
1514955707825263,-2,-1,11,-1,-2,-1,-1,-4
1514955707825263,1,2,-5,-3,-3,-2,0,1
1514955707834269,0,4,4,6,-2,0,-2,1
1514955707834269,-1,3,-12,-1,9,3,0,-1
1514955707843303,-3,-7,-20,-19,-9,-2,-4,-3
1514955707843303,0,-8,-7,-5,-4,-2,-1,-2
1514955707858343,1,0,-3,1,-3,0,0,0
1514955707858343,1,3,8,-1,-1,-2,-2,0
1514955707859325,0,5,14,8,5,0,1,1
1514955707859325,0,-1,-7,-2,-1,0,-1,-3
1514955707880302,0,-2,2,-1,2,-1,1,-2
1514955707880302,-2,0,1,-1,-2,1,0,-1
1514955707882302,0,-4,-2,-2,0,1,-1,-3
1514955707882302,0,-1,-1,0,-5,-1,1,1
1514955707894317,-2,-1,4,2,2,0,-2,0
1514955707894317,1,-2,1,-6,-5,-2,-2,1
1514955707903317,-4,-2,-9,3,3,0,-4,-1
1514955707903317,1,-1,2,9,-1,-1,0,-2
1514955707918328,0,3,3,0,0,-1,0,2
1514955707918328,-1,2,-15,-4,-2,-1,-1,-1
1514955707919329,-5,-9,5,-8,-6,-4,1,-3
1514955707919329,1,4,-14,5,1,0,-2,0
1514955707948354,-1,-4,26,-1,1,0,-4,0
1514955707948354,-5,-4,-26,-13,-4,-2,-2,-4
1514955707950355,2,0,-16,2,1,1,1,2
1514955707950355,6,1,-8,-5,-3,-1,-1,0
1514955707954359,-7,-6,-9,0,-7,-4,0,-5
1514955707954359,-4,-1,8,0,-1,0,-1,2
1514955707963362,8,-1,-6,-1,-2,0,-1,-1
1514955707963362,-8,-4,2,-5,-1,-2,-3,-1
1514955707978375,-2,5,2,-2,-1,0,-1,1
1514955707978375,2,-6,9,4,0,-2,-4,-1
1514955707979373,-2,3,-3,-1,0,-1,1,-2
1514955707979373,1,-2,4,-4,0,-1,-3,0
1514955708000407,0,1,-6,8,1,0,-2,-2
1514955708000407,0,-2,-1,-7,-1,0,4,-1
1514955708002408,3,2,3,4,1,0,0,1
1514955708002408,1,7,4,-7,-2,-2,-2,0
1514955708023405,-9,-4,3,2,0,-1,-1,-2
1514955708023405,-3,-11,-15,-4,-2,-2,-1,-2
1514955708024403,1,-3,-6,-1,1,1,1,-2
1514955708024403,-12,-1,21,1,-4,-1,-1,0
1514955708038428,6,0,-24,-5,-1,-2,-1,-1
1514955708038428,-4,2,0,6,-1,-2,-2,-3
1514955708039414,-1,-2,1,0,1,0,-3,-2
1514955708039414,-1,2,3,-2,-1,-1,-1,0
1514955708060430,-9,4,-3,-3,0,0,2,1
1514955708060430,13,-3,-3,0,-2,-3,0,1
1514955708062431,-10,0,25,5,-3,-2,-4,-3
1514955708062431,-6,-8,-45,-8,-1,-2,-1,-2
1514955708083455,1,3,24,4,1,-1,-1,2
1514955708083455,-7,-8,-23,-9,-4,-3,-5,-4
1514955708084447,5,-1,3,-1,1,-3,1,0
1514955708084447,5,4,9,3,-1,-2,-2,-2
1514955708098456,-13,-9,-21,-4,-2,0,0,-2
1514955708098456,6,-1,16,4,-2,1,2,-2
1514955708100458,-3,9,-8,-3,-3,-1,0,2
1514955708100458,9,-4,-2,2,5,1,2,-1
1514955708120480,-5,2,-14,-4,-1,-2,-5,-3
1514955708120480,-1,0,16,-2,-1,0,-1,0
1514955708122482,-1,-5,-3,0,-2,-2,-1,-3
1514955708122482,1,-2,-3,1,-2,-1,1,0
1514955708143497,-2,-8,5,-4,-1,-2,-1,-1
1514955708143497,4,5,2,1,-2,0,-2,-1
1514955708146489,5,-1,-10,-5,0,-3,0,0
1514955708146489,1,3,20,1,-1,-2,-1,1
1514955708158497,16,1,-25,0,2,0,-2,-1
1514955708158497,-7,-5,6,0,-2,1,0,-2
1514955708159498,-4,-2,17,1,0,0,2,1
1514955708159498,-16,-5,-8,-2,-1,0,-3,-4
1514955708181515,11,0,2,-3,-1,-2,0,4
1514955708181515,6,2,-8,2,2,0,-1,0
1514955708184528,3,1,7,4,-1,-1,-3,-2
1514955708184528,-3,-10,2,-7,-4,-3,0,-1
1514955708203529,-1,1,1,0,-1,0,-1,-5
1514955708203529,-3,3,11,3,1,-1,0,-3
1514955708204530,-7,-10,-25,-11,-4,-3,-1,-2
1514955708204530,8,3,21,9,2,0,-2,1
1514955708226561,-3,-3,-47,-6,-1,-1,-2,0
1514955708226561,3,0,22,-9,-6,-2,-1,-2
1514955708229548,-7,5,-4,1,-1,0,0,-1
1514955708229548,10,-2,-11,0,-2,0,0,0
1514955708240559,-2,4,21,1,0,0,-1,2
1514955708240559,-3,-2,0,4,1,-2,-1,-1
1514955708242572,-8,-6,-7,-4,-4,-1,-5,-3
1514955708242572,-7,1,10,-2,0,-2,0,-1
1514955708262574,24,-2,1,-8,-6,-2,1,0
1514955708262574,-7,3,-9,7,2,0,1,-3
1514955708264578,4,-4,8,2,0,0,-2,-2
1514955708264578,-22,-2,-10,-2,-2,0,-3,-2
1514955708277585,20,-3,13,1,-2,0,-1,-1
1514955708277585,-10,-3,-16,-6,1,-1,-2,0
1514955708284588,-6,4,-19,-1,-1,-1,0,0
1514955708284588,1,-9,2,-8,-4,-2,-2,-2
1514955708300620,-17,-2,20,3,0,-3,-2,-3
1514955708300620,4,-8,11,-2,-2,-1,0,-1
1514955708302621,-13,8,9,4,0,2,-2,-2
1514955708302621,0,2,2,1,-1,-1,-3,1
1514955708322635,0,-8,-12,1,-1,-1,-2,-1
1514955708322635,-16,0,6,-6,-2,-1,0,-1
1514955708324620,17,-3,-5,-5,0,-1,0,2
1514955708324620,9,-7,3,1,-1,-5,-3,-1
1514955708337648,-13,0,-11,-9,-5,0,-1,-5
1514955708337648,-20,-9,-4,2,-1,1,-1,-2
1514955708344629,15,1,8,3,2,0,1,4
1514955708344629,-5,4,-15,-6,-2,-1,-1,-1
1514955708360641,14,6,8,7,5,0,2,3
1514955708360641,-4,3,-1,-4,-3,-1,2,-2
1514955708362644,-41,-21,-8,-9,-4,-3,-3,-3
1514955708362644,51,7,6,7,3,0,-1,2
1514955708382666,-40,3,19,9,-1,1,0,-1
1514955708382666,6,-6,-27,-14,-6,-2,-3,-5
1514955708384667,5,12,17,5,3,0,2,3
1514955708384667,-2,-1,-6,0,0,1,0,-4
1514955708397672,-31,4,2,4,-3,-3,-1,-2
1514955708397672,25,1,-14,2,0,-4,-2,5
1514955708404686,-22,-13,18,-8,-6,-1,-2,-7
1514955708404686,0,-2,7,0,-2,-2,1,0
1514955708420685,13,1,-22,-5,0,-1,-3,1
1514955708420685,8,1,5,0,0,0,-1,0
1514955708423694,12,11,-10,-1,0,0,-3,-3
1514955708423694,-15,-9,-4,-5,-2,-2,1,-3
1514955708442712,2,-7,20,-3,-2,-2,-2,1
1514955708442712,-8,6,-10,0,-1,-2,2,-6
1514955708444701,-8,-13,-22,4,1,2,1,-2
1514955708444701,8,4,36,2,-2,-1,-2,1
1514955708457746,-16,-7,-13,3,0,-2,-1,1
1514955708457746,-2,-7,-6,-16,-6,-1,-3,-8
1514955708463713,9,4,7,3,3,1,0,1
1514955708463713,-6,-1,-25,-1,-5,-6,-4,0
1514955708480727,0,0,2,-2,0,1,0,-5
1514955708480727,10,1,-17,0,2,0,1,8
1514955708481728,-10,-1,35,4,-4,-3,-4,-2
1514955708481728,-16,-3,-25,-15,-4,-5,-6,-12
1514955708502742,21,12,3,2,3,1,1,8
1514955708502742,3,5,29,22,6,2,0,1
1514955708504743,-14,-17,-5,-15,-4,-5,0,-7
1514955708504743,6,-2,-16,-3,0,3,0,1
1514955708517752,-12,-13,7,-5,-6,-5,-5,-3
1514955708517752,32,-3,-12,-7,-2,-2,-6,-13
1514955708524757,12,23,28,11,1,1,-2,4
1514955708524757,9,12,35,25,9,1,0,3
1514955708540795,11,-21,-79,-34,-7,-4,-3,-5
1514955708540795,-19,24,77,12,2,0,0,13
1514955708541769,-1,-10,-57,0,0,0,-2,-4
1514955708541769,-5,-1,-24,-19,-8,-2,-4,-3
1514955708562788,8,0,15,9,1,1,5,0
1514955708562788,-14,-5,-2,-2,-3,-2,-2,-8
1514955708564786,3,17,26,3,3,3,7,14
1514955708564786,-13,0,-30,6,1,2,2,1
1514955708576808,14,-3,-25,-3,2,-2,-1,-6
1514955708576808,-10,-8,-15,-3,-2,-2,-2,8
1514955708585806,-20,-14,2,-4,-1,-1,0,-37
1514955708585806,44,10,41,13,3,2,-4,44
1514955708600833,-22,2,18,6,-1,0,11,-4
1514955708600833,6,-5,10,-9,-7,-3,-6,-5
1514955708601815,0,-4,17,3,-3,-4,-5,-19
1514955708601815,-24,-1,-1,-1,6,1,-1,17
1514955708622850,-17,-9,37,26,2,-1,-5,-16
1514955708622850,-28,2,-53,-32,-5,1,-4,7
1514955708624831,33,-2,-12,-9,-4,-4,11,20
1514955708624831,24,3,22,3,1,1,-6,-16
1514955708636858,-35,9,21,7,1,1,-3,6
1514955708636858,5,-5,-43,-3,-1,0,0,-17
1514955708645843,7,-16,-12,0,-1,-3,-3,21
1514955708645843,-3,10,1,-12,-4,0,3,-9
1514955708661854,-23,-16,-42,-11,-2,-1,0,-4
1514955708661854,84,-4,28,17,2,1,6,6
1514955708663855,18,17,-45,-13,-6,-1,-6,5
1514955708663855,-21,5,23,16,7,4,9,-3
1514955708682870,3,-2,-13,-6,-3,-2,-3,-4
1514955708682870,-53,-1,-24,-11,-5,-4,-4,-9
1514955708684872,37,8,27,10,4,3,2,16
1514955708684872,-2,-1,-1,1,-2,-5,-8,-19
1514955708696882,60,1,-3,2,3,3,6,11
1514955708696882,-29,-8,31,-3,-8,-3,2,-17
1514955708707896,17,8,-22,0,3,4,5,28
1514955708707896,-28,-17,-12,-6,-7,-7,-8,-24
1514955708720895,-27,9,34,13,5,4,-3,8
1514955708720895,7,4,-14,-3,2,-3,-6,-6
1514955708721904,-4,-18,23,7,-1,-3,-2,-2
1514955708721904,2,12,10,-6,-6,-4,-3,-2
1514955708744913,-18,-20,-30,-4,1,-2,0,0
1514955708744913,35,-2,-20,-4,-7,-1,0,-15
1514955708749918,-33,1,10,-1,0,-1,-5,-10
1514955708749918,8,-3,10,10,1,2,7,9
1514955708756922,80,52,10,-4,-4,-3,-1,1
1514955708756922,-48,-34,-8,-17,-5,-1,-3,6
1514955708765928,-7,-8,-6,-2,0,-1,0,-14
1514955708765928,-29,-22,2,7,-2,-3,-3,1
1514955708780937,8,31,-7,-6,-4,-5,0,-1
1514955708780937,56,-25,-27,-22,0,1,0,8
1514955708782939,34,11,-10,-2,-8,-7,-6,-6
1514955708782939,-54,-26,21,-5,0,4,4,-6
1514955708802953,51,-14,28,5,0,-2,-9,-3
1514955708802953,42,53,19,12,3,4,7,17
1514955708804956,-8,-25,-3,13,6,4,2,-28
1514955708804956,8,5,6,-11,-3,-1,4,28
1514955708816965,45,-6,7,4,0,0,-4,2
1514955708816965,-24,20,-54,3,0,-2,3,6
1514955708825970,30,6,-24,-29,-8,-1,3,1
1514955708825970,-7,6,-14,4,1,-1,0,-18
1514955708840980,10,-19,11,-13,-6,-3,-2,7
1514955708840980,-92,-61,15,25,11,3,1,3
1514955708842982,26,19,16,0,-9,-7,-6,-19
1514955708842982,-21,8,-65,-21,-3,-2,-3,7
1514955708862997,-27,13,20,5,7,4,2,5
1514955708862997,-57,16,23,22,0,-1,-3,2
1514955708864997,-61,-52,-50,-29,-11,-10,-13,-29
1514955708864997,50,-22,12,23,4,0,0,-1
1514955708877006,-113,-21,-29,-42,-12,-4,-3,-32
1514955708877006,-27,20,14,21,-6,-6,2,7
1514955708886012,-58,1,12,-16,6,2,-3,-5
1514955708886012,-5,-4,-68,-11,-6,-2,0,-14
1514955708901023,-15,-11,29,3,2,3,1,14
1514955708901023,-15,8,37,6,1,-2,-6,-23
1514955708904025,-46,-21,-2,6,-5,-5,0,9
1514955708904025,43,22,13,16,3,2,-4,6
1514955708923041,-82,-47,-26,2,4,2,3,0
1514955708923041,45,-19,20,-11,-1,1,1,-22
1514955708926079,87,50,27,35,10,9,4,27
1514955708926079,-6,-21,-11,-22,-6,-7,2,21
1514955708937064,-9,9,-5,8,-2,2,2,-16
1514955708937064,7,11,-11,-5,-3,-5,-2,14
1514955708946055,20,-6,7,-8,4,1,1,31
1514955708946055,-42,9,7,-5,-1,3,5,-29
1514955708961065,0,-5,0,5,-3,-4,-4,-2
1514955708961065,-3,33,-4,3,3,3,3,0
1514955708962067,-40,-58,7,-2,2,1,-2,-8
1514955708962067,-41,4,-12,2,-1,-2,-4,4
1514955708983081,5,4,32,3,-5,-4,-1,-18
1514955708983081,51,-22,-14,1,4,2,0,39
1514955708985083,-13,22,13,-2,-6,0,4,-43
1514955708985083,-52,-30,10,-10,-3,-2,-1,42
1514955708997090,96,21,-34,-13,0,-2,0,5
1514955708997090,45,-2,30,11,-8,0,10,26
1514955709006098,32,31,-24,-9,10,0,-11,-18
1514955709006098,-29,-24,24,9,-1,-5,-8,-4
1514955709020108,-29,10,12,15,9,7,2,-45
1514955709020108,29,-12,2,-2,-10,-11,-6,11
1514955709022110,61,32,21,8,7,5,5,-1
1514955709022110,-14,-4,-24,-7,2,3,-4,-19
1514955709044124,73,-39,6,-10,-6,-10,-22,21
1514955709044124,-13,-16,-1,-5,-3,-4,-7,1
1514955709048126,-11,3,-11,-2,-5,-4,-1,-48
1514955709048126,41,25,-13,-4,-2,-4,-3,-4
1514955709065150,-8,31,-1,7,4,10,16,-2
1514955709065150,-41,-45,3,-1,3,-1,-6,1
1514955709067140,17,-23,2,13,-10,-9,-4,21
1514955709067140,6,13,-5,-6,4,3,3,5
1514955709081150,-10,24,10,-1,-5,-7,-2,4
1514955709081150,-1,4,18,-14,-3,5,6,4
1514955709083151,-57,5,7,9,0,-4,-15,-21
1514955709083151,53,15,12,-7,-12,-5,6,-25
1514955709103165,-12,-36,-2,11,-4,-5,-10,12
1514955709103165,48,45,-38,-29,7,1,-19,-3
1514955709105167,-28,9,9,-1,-2,-4,-1,87
1514955709105167,62,-9,8,3,-2,3,-4,-60
1514955709125182,-26,-35,39,7,1,3,2,15
1514955709125182,-3,10,-13,16,-5,-2,5,-24
1514955709129188,60,20,-4,5,13,13,14,45
1514955709129188,-43,-14,12,8,-1,-1,0,-9
1514955709140206,-1,-3,-32,-13,2,-1,1,51
1514955709140206,10,23,8,5,2,4,3,-32
1514955709142193,0,-18,27,-10,-12,-8,-7,-23
1514955709142193,-33,7,29,7,-4,-4,2,2
1514955709163250,-6,2,-14,1,0,-1,-3,-15
1514955709163250,-21,-27,-3,14,-5,-5,1,36
1514955709164210,-25,-14,-27,-26,-4,-4,-6,-47
1514955709164210,12,-13,-7,1,11,5,2,37
1514955709185226,42,38,8,3,-8,-4,0,-5
1514955709185226,13,16,12,-5,8,13,14,-34
1514955709187237,-1,2,-42,4,-4,-1,6,26
1514955709187237,-38,11,17,-7,-3,-2,-3,55
1514955709200247,23,-19,-55,-1,-3,-4,-3,-69
1514955709200247,-37,11,-4,2,-2,-4,-6,-11
1514955709206251,26,-39,-31,-7,1,5,10,20
1514955709206251,-42,6,7,-4,5,1,-7,24
1514955709223263,3,-25,-12,-14,-17,-9,0,-33
1514955709223263,6,21,15,16,8,3,8,4
1514955709224250,-12,-39,4,3,-2,-1,-6,5
1514955709224250,32,-6,4,-1,1,-1,-5,-2
1514955709247270,-2,9,-3,2,-4,-1,-1,47
1514955709247270,-4,-17,-35,-15,-1,-6,-10,-59
1514955709251270,-66,14,20,0,-3,2,2,-19
1514955709251270,63,-2,-22,16,-1,-5,-2,-16
1514955709260276,0,-7,9,-24,3,5,9,77
1514955709260276,51,-3,17,-19,-10,-10,-1,-33
1514955709266298,-70,8,-27,12,0,-2,-8,6
1514955709266298,88,36,-19,-14,-15,-10,-7,-30
1514955709283311,-37,-28,-3,-11,1,1,2,-4
1514955709283311,2,-7,-1,10,-5,-4,-17,9
1514955709284294,-24,11,14,1,-2,-3,-1,-19
1514955709284294,25,28,-25,-19,-3,0,7,-40
1514955709305321,-21,9,26,9,-1,-4,2,20
1514955709305321,-84,-60,-58,-8,-3,1,10,2
1514955709307309,39,5,4,-4,-5,-5,-6,-3
1514955709307309,-67,-31,-2,-5,-1,-2,-11,56
1514955709320319,40,20,5,10,7,4,-1,-57
1514955709320319,-20,13,18,-2,-5,-3,5,19
1514955709326336,19,30,-7,-1,2,0,-4,3
1514955709326336,-30,-27,-5,1,-1,3,6,34
1514955709343347,-81,12,-3,-5,-3,-5,-7,-24
1514955709343347,44,-13,21,15,2,1,1,50
1514955709344335,4,0,-4,-18,-1,-1,-1,-56
1514955709344335,5,3,12,-7,-1,3,15,30
1514955709365351,-12,20,9,13,-3,5,0,-32
1514955709365351,35,-20,-6,1,7,2,2,11
1514955709367353,13,12,0,6,-2,1,2,21
1514955709367353,53,35,-11,-10,-7,-7,-6,-45
1514955709379377,21,-6,2,-14,1,1,-1,12
1514955709379377,39,14,4,-2,-4,-5,-8,12
1514955709395372,52,-9,8,4,-2,1,2,5
1514955709395372,-58,31,-9,11,7,2,-10,-71
1514955709403377,8,-14,-24,-13,-8,-6,-2,21
1514955709403377,-1,2,10,1,2,4,5,-9
1514955709404389,-1,-2,0,-13,-3,-7,-5,-8
1514955709404389,46,8,16,1,-5,-2,-1,-8
1514955709426394,6,5,-20,13,-5,-5,-6,7
1514955709426394,-60,-11,-17,-17,0,5,7,-13
1514955709429396,36,8,7,10,2,1,3,17
1514955709429396,-72,-44,2,-10,-3,-4,-11,2
1514955709439406,17,-10,4,-1,-1,-4,5,-9
1514955709439406,58,23,13,1,1,0,-4,30
1514955709446426,-27,-21,-15,14,5,1,2,21
1514955709446426,8,14,3,1,-8,-3,2,-5
1514955709463440,17,1,-8,-4,4,3,2,15
1514955709463440,-20,15,1,3,-4,-5,-8,3
1514955709465421,-15,8,20,-4,-6,-2,2,17
1514955709465421,9,-7,-8,3,8,1,5,-27
1514955709485437,33,-44,11,-2,-1,-1,-5,17
1514955709485437,-49,-3,3,-3,-6,-5,-4,-31
1514955709487451,-5,24,-12,-3,-7,-2,0,-25
1514955709487451,3,-43,-1,-2,0,-1,-5,14
1514955709500447,22,60,22,6,1,-4,-11,-33
1514955709500447,7,-9,-26,-11,2,2,4,37
1514955709507452,-63,-73,-2,-3,-3,-2,-2,-4
1514955709507452,17,15,5,7,-1,-4,-4,-18
1514955709523468,-9,-30,-15,-2,10,5,5,25
1514955709523468,-30,27,3,2,-2,-3,-5,-19
1514955709524464,-9,1,-2,2,1,-2,2,16
1514955709524464,45,8,-6,-3,4,0,-1,14
1514955709545479,-23,2,-3,14,0,1,2,-5
1514955709545479,2,16,3,-14,-1,3,4,-11
1514955709547480,-1,-15,-12,-5,-7,-8,-4,4
1514955709547480,-7,3,9,1,3,1,3,13
1514955709559488,19,9,22,-6,-4,-3,-1,-60
1514955709559488,24,-18,-11,1,0,-1,-4,16
1514955709568495,0,10,-9,-6,-3,-1,-7,-15
1514955709568495,1,-19,18,1,-1,0,3,9
1514955709583510,-21,-18,-12,-2,-3,0,-3,24
1514955709583510,9,-19,2,8,1,-2,-1,-13
1514955709585507,-24,27,10,-1,3,3,7,-32
1514955709585507,13,-11,2,6,4,-2,-7,9
1514955709605521,-11,-6,-4,-8,-14,-6,-2,-14
1514955709605521,2,18,-4,-6,9,6,-3,7
1514955709611529,8,10,13,0,-5,-1,0,21
1514955709611529,35,40,-14,-3,-1,-2,-3,-39
1514955709619530,-43,-5,28,9,-2,-3,-5,3
1514955709619530,-45,1,-3,0,4,0,5,28
1514955709628538,2,-36,-7,4,-2,-1,2,-71
1514955709628538,2,5,35,-8,0,2,8,29
1514955709644549,-4,11,-39,-8,-2,-2,-4,-6
1514955709644549,-30,-40,-16,1,-6,-7,-10,2
1514955709646553,43,13,-6,-8,-2,-1,-4,-1
1514955709646553,-23,-32,36,15,1,-1,-2,-8
1514955709664566,25,-13,-43,-7,5,4,12,43
1514955709664566,30,16,-2,-5,-6,-2,-2,-58
1514955709673568,-5,13,-8,-4,1,1,-3,13
1514955709673568,27,-11,-30,7,-3,-4,-2,45
1514955709679575,18,-6,12,-1,8,5,1,-45
1514955709679575,14,12,15,-4,-2,-1,-4,0
1514955709688580,-30,-18,0,10,-6,-5,-6,32
1514955709688580,-19,5,-28,-8,-1,-1,3,30
1514955709703590,-24,8,-6,1,-5,-5,1,-22
1514955709703590,-17,-23,5,-3,-2,-1,-3,-11
1514955709704594,33,33,17,-4,-2,-4,-2,25
1514955709704594,-52,-40,-36,-14,-7,-1,-2,-27
1514955709725607,-1,1,19,14,3,-3,-9,24
1514955709725607,8,-9,14,-5,-4,0,11,1
1514955709727607,47,3,3,3,1,-2,-1,5
1514955709727607,-41,2,19,-1,-1,0,2,-8
1514955709739616,36,35,-27,-4,2,1,-2,-38
1514955709739616,-26,-31,-9,7,-1,-3,-2,35
1514955709748625,25,4,5,-9,-1,-3,-2,-38
1514955709748625,40,4,-13,2,-1,0,-4,17
1514955709763635,-12,12,11,-5,0,-1,-4,17
1514955709763635,18,6,24,13,6,4,9,23
1514955709764636,-54,18,-39,-13,-4,2,1,-31
1514955709764636,-3,-29,-10,0,-5,-4,0,12
1514955709785648,-76,0,0,4,4,2,1,-14
1514955709785648,30,-12,-33,-13,-8,-7,-6,-22
1514955709787650,-42,6,18,16,9,5,0,20
1514955709787650,32,6,-6,-14,-9,-6,1,16
1514955709799659,-24,10,16,-5,-10,-1,1,-52
1514955709799659,-35,-14,-4,-1,1,-4,-9,-20
1514955709809666,8,4,-3,1,0,1,2,19
1514955709809666,14,4,11,6,4,-2,-8,1
1514955709822674,0,-33,-6,-5,-8,-6,-4,-2
1514955709822674,-45,12,11,-4,-4,-1,2,1
1514955709824676,1,-11,25,8,7,1,1,8
1514955709824676,28,16,-17,-6,-2,1,-3,3
1514955709845691,-5,-24,-32,2,-2,-3,2,18
1514955709845691,11,14,18,-10,-3,0,-1,-19
1514955709848696,0,-6,1,15,4,0,3,52
1514955709848696,27,55,4,-6,1,-1,0,-70
1514955709859700,9,-24,-5,-9,-2,0,0,33
1514955709859700,-11,4,12,18,6,2,-2,-26
1514955709868724,1,-25,-26,-22,-10,-5,-5,2
1514955709868724,-18,-26,-3,10,9,2,0,3
1514955709881724,46,15,9,-7,-2,-2,0,5
1514955709881724,7,37,-13,8,-1,-2,0,13
1514955709890725,21,-2,21,9,1,-1,-6,-32
1514955709890725,-6,-25,-5,-14,-1,2,8,-3
1514955709905735,9,12,-11,-7,-5,-6,-3,-28
1514955709905735,10,16,-22,-4,-2,-1,1,8
1514955709906734,27,-5,4,-2,-3,-2,-1,18
1514955709906734,-30,-41,-4,-2,-3,-2,-1,-24
1514955709919745,-4,14,28,9,0,0,3,5
1514955709919745,35,14,-13,-11,-4,-3,-5,-18
1514955709929751,-10,-28,-18,-10,-5,-3,0,2
1514955709929751,-15,9,8,7,0,2,0,26
1514955709942759,-23,-2,14,-2,3,-1,-1,7
1514955709942759,8,-18,6,-4,-6,-7,-5,-24
1514955709944760,4,18,-7,-1,0,3,3,25
1514955709944760,-11,25,5,-8,-4,-1,-2,6
1514955709965777,-23,-25,27,0,-2,-1,-1,10
1514955709965777,-13,-8,-37,-14,-6,-4,-2,2
1514955709967777,5,9,-7,5,3,3,2,-27
1514955709967777,-27,21,-2,2,-2,-6,-4,-5
1514955709979786,34,-2,-4,-4,6,6,2,8
1514955709979786,-16,-14,4,2,-5,-3,-2,12
1514955709987790,-3,-11,3,-15,0,-4,-5,-38
1514955709987790,-2,27,-1,7,7,2,1,37
1514955710002801,-20,6,-1,-3,-7,-4,-12,-50
1514955710002801,23,22,23,4,0,-1,5,20
1514955710004803,15,22,-12,-11,1,1,5,3
1514955710004803,-20,-46,-14,3,-3,-2,-1,0
1514955710025817,39,9,-7,3,0,-3,-1,-22
1514955710025817,8,-9,-5,-4,4,4,0,5
1514955710026817,-22,-14,13,7,-3,-4,-7,-20
1514955710026817,-27,4,-8,-8,-5,0,9,2
1514955710048833,-47,-39,-1,3,-3,-1,-5,-12
1514955710048833,1,12,7,8,2,-2,-3,-4
1514955710051848,13,-34,-18,-2,-1,-3,0,-3
1514955710051848,-13,-27,18,12,3,5,5,25
1514955710062844,-2,12,-28,-9,-1,-2,2,7
1514955710062844,21,35,9,-13,7,4,3,7
1514955710064846,-14,-2,-10,-7,-10,-6,-4,-18
1514955710064846,27,-21,14,8,3,-2,-3,28
1514955710085878,-19,25,7,2,1,4,8,-4
1514955710085878,4,-20,-9,9,2,1,0,18
1514955710086860,13,41,18,-3,5,4,4,-12
1514955710086860,38,7,-27,-8,0,-5,-5,-16
1514955710107876,-17,-11,29,8,-4,-3,-3,20
1514955710107876,2,-12,-40,-10,-4,-3,-1,-6
1514955710109878,-27,10,2,-6,-1,-1,-5,-25
1514955710109878,-2,7,0,-7,-7,-3,-4,-17
1514955710122887,-24,-12,-3,-10,1,2,1,9
1514955710122887,20,9,-2,7,-4,-1,-2,10
1514955710124888,-25,-5,-7,-5,-6,-6,-4,-81
1514955710124888,-2,26,10,-2,0,-2,-5,7
1514955710146905,30,3,-35,1,-1,-2,3,18
1514955710146905,-6,-7,30,-6,-2,0,3,-7
1514955710149905,6,-28,-10,6,-1,-1,0,43
1514955710149905,9,9,-11,-2,-5,-2,-2,-47
1514955710167931,16,19,13,6,3,-1,-3,9
1514955710167931,9,14,-13,-6,-5,1,-2,28
1514955710169932,40,8,38,1,7,4,0,25
1514955710169932,9,-1,1,-5,-6,-5,-8,-24
1514955710181928,-17,5,-13,-9,-4,-4,-3,23
1514955710181928,16,11,12,2,3,0,-4,-8
1514955710190935,3,2,6,11,2,1,2,24
1514955710190935,-20,-3,15,-2,-2,-1,-7,-4
1514955710204956,10,-27,11,1,-5,-4,-3,12
1514955710204956,-44,-8,0,0,1,-1,-2,-53
1514955710206950,-17,14,-16,-10,-5,-3,-1,-28
1514955710206950,16,-8,12,8,0,0,3,-1
1514955710228967,29,4,-9,-3,-2,-3,-5,20
1514955710228967,8,-4,-1,1,-7,-4,-3,-13
1514955710231963,-24,-11,-10,-4,3,0,-6,38
1514955710231963,4,-11,-19,-11,-3,0,0,-31
1514955710241985,16,26,-6,-7,0,2,0,18
1514955710241985,-8,-5,0,6,-4,-4,-2,-2
1514955710248977,33,-7,-4,1,-4,-3,-3,19
1514955710248977,-16,26,8,12,3,1,3,11
1514955710264990,17,-28,-20,-10,0,-2,-2,-39
1514955710264990,-64,-16,19,1,-2,1,2,19
1514955710266989,7,13,-17,-3,-3,-2,-1,-24
1514955710266989,-6,-13,-1,-4,2,2,-3,11
1514955710288003,10,13,8,5,0,1,2,9
1514955710288003,-35,-66,4,-3,2,0,1,-37
1514955710292005,22,28,-11,-5,-4,-5,-3,47
1514955710292005,-9,-41,-10,2,-1,1,9,-31
1514955710302025,6,11,-13,-8,0,-1,-5,15
1514955710302025,0,-12,-10,5,3,1,-1,1
1514955710311031,-19,-10,-4,-19,-7,-4,-1,25
1514955710311031,28,10,5,3,1,1,1,15
1514955710326029,-29,1,4,3,-4,-1,3,22
1514955710326029,21,23,0,0,0,-1,0,-55
1514955710327031,-22,-22,0,-2,-7,-2,-2,14
1514955710327031,-9,25,-10,-3,-3,-2,2,21
1514955710348046,-12,-12,13,18,4,1,-2,16
1514955710348046,32,30,-7,-20,-5,-2,1,-15
1514955710356052,-47,-59,-11,-4,-8,-1,-4,-33
1514955710356052,11,0,-5,4,7,1,1,16
1514955710362056,0,-2,6,-6,-7,-4,3,8
1514955710362056,15,26,8,9,6,-1,-4,2
1514955710369072,19,-7,-1,0,3,-2,1,2
1514955710369072,15,-3,-4,-12,0,0,-3,-27
1514955710385101,12,-1,5,8,-2,-3,0,4
1514955710385101,-44,-7,1,2,-1,-5,-7,5
1514955710388073,36,16,7,4,2,1,6,-33
1514955710388073,-30,0,-2,2,-1,0,-4,31
1514955710408100,9,14,-1,-11,0,-3,0,-6
1514955710408100,8,-8,6,6,-2,-1,-6,-9
1514955710410111,-22,-9,11,3,3,0,-4,47
1514955710410111,-9,3,-36,-3,-2,-3,-3,-24
1514955710423098,6,8,15,0,4,5,4,-27
1514955710423098,-2,7,-9,-2,-4,-1,4,32
1514955710430103,18,-17,26,15,1,0,-3,22
1514955710430103,-17,24,-48,-10,-3,-4,2,-7
1514955710446117,-18,-11,3,-9,-2,-2,-2,-8
1514955710446117,-32,-9,9,8,-1,0,-2,-13
1514955710447116,-6,20,-7,-5,9,7,9,-14
1514955710447116,-5,-4,20,-5,-9,-4,-2,-22
1514955710468141,7,-4,7,-1,3,-1,-9,-9
1514955710468141,28,-25,-10,-2,-4,0,4,25
1514955710470131,-12,14,-5,2,-1,2,3,-10
1514955710470131,-1,-9,27,-1,-1,-5,-4,16
1514955710482140,-5,8,-34,-12,-3,1,-4,-23
1514955710482140,8,11,17,6,3,1,4,17
1514955710489173,3,-33,-13,-10,-4,-4,-3,-9
1514955710489173,29,10,16,7,-2,-2,-5,8
1514955710505168,-6,-13,-17,4,0,-3,-3,-7
1514955710505168,5,30,1,-4,1,0,-1,46
1514955710507187,23,-43,-30,5,-5,-3,0,-15
1514955710507187,-18,-15,26,-9,-1,1,0,-21
1514955710529173,3,26,14,6,0,1,3,4
1514955710529173,-13,-24,3,-5,-3,-2,-5,3
1514955710533178,6,29,-29,-12,-2,-3,1,-13
1514955710533178,-5,-31,17,7,-3,0,-1,28
1514955710542182,13,-3,-28,-11,0,3,-2,-31
1514955710542182,-4,-28,-14,-5,-7,-4,-3,-11
1514955710551189,-5,36,14,-3,-1,1,-1,10
1514955710551189,-21,-45,-5,2,-1,-5,-7,-18
1514955710565199,-7,1,9,5,-1,-2,0,-1
1514955710565199,1,-20,-26,-17,-2,0,-2,-26
1514955710567204,-4,50,13,14,2,-4,-2,2
1514955710567204,-16,-15,-4,1,-2,0,0,-1
1514955710588216,-4,-7,26,13,2,-3,1,-23
1514955710588216,9,1,-19,-11,-5,-3,0,41
1514955710589217,-43,4,19,-1,-6,-5,-4,-43
1514955710589217,25,33,-18,-8,7,6,6,-9
1514955710601224,-4,-28,1,-4,-5,-5,-3,19
1514955710601224,-7,6,-2,-6,2,2,2,4
1514955710610231,-29,-3,8,2,0,0,0,-21
1514955710610231,9,19,9,2,-1,-3,-2,35
1514955710624240,-16,-21,11,-4,-8,-5,-4,-1
1514955710624240,5,-12,-35,-1,5,2,2,-13
1514955710633247,14,4,1,-2,0,1,2,19
1514955710633247,15,0,5,-3,-4,-2,-1,-25
1514955710648269,16,15,41,12,-1,-1,0,21
1514955710648269,11,8,-23,-6,4,1,-2,0
1514955710652272,-11,4,-5,1,0,1,-4,-2
1514955710652272,-3,23,-12,-5,-1,0,8,18
1514955710661266,27,5,-16,15,6,1,-3,0
1514955710661266,21,9,16,-10,-8,-3,-4,-18
1514955710670272,-11,-28,2,2,2,0,1,7
1514955710670272,-36,-12,-27,-5,1,-1,2,-17
1514955710685295,-14,-3,-23,-9,-5,-1,1,-16
1514955710685295,15,19,47,12,1,-1,-1,-6
1514955710687284,3,2,-35,-6,-1,-2,-2,9
1514955710687284,-15,-30,18,3,-5,-5,-5,-1
1514955710708310,-9,-5,-12,-5,0,-1,2,-13
1514955710708310,-8,-3,3,3,-3,-1,-4,6
1514955710709301,19,16,17,3,-4,-5,-5,4
1514955710709301,-5,-10,-24,-11,-4,-4,-7,-16
1514955710721310,0,19,3,2,-1,-1,-2,14
1514955710721310,-8,-32,22,6,-6,-1,1,-3
1514955710732317,13,-12,-8,-10,-2,-1,-2,0
1514955710732317,-14,11,-7,7,-2,0,1,10
1514955710745335,24,35,6,-13,0,-1,0,-1
1514955710745335,-47,-18,13,14,2,0,-1,5
1514955710747328,7,-15,-9,0,-1,0,2,-10
1514955710747328,10,-6,15,-2,4,1,-2,-6
1514955710768353,-6,0,-29,-17,-6,1,1,-16
1514955710768353,5,4,-10,3,-1,-3,2,0
1514955710769342,0,-6,4,1,-2,-1,-8,-12
1514955710769342,-10,0,-5,-1,4,0,-3,-10
1514955710781352,13,7,10,-3,-2,-3,-1,3
1514955710781352,-29,8,-1,0,1,1,6,-1
1514955710790375,-6,3,-5,-10,-4,-2,-4,3
1514955710790375,-9,3,-5,7,1,1,4,5
1514955710805445,-3,12,21,5,1,-1,-3,-13
1514955710805445,1,-37,-29,-8,-2,-2,-6,-7
1514955710807441,0,2,25,6,0,-2,0,11
1514955710807441,6,15,30,5,-3,-1,-3,-12
1514955710829432,5,-7,-24,-9,-3,-1,3,12
1514955710829432,-27,-13,-9,-7,-1,-1,-2,22
1514955710832437,-2,0,-9,-1,-4,-1,-1,-44
1514955710832437,9,-10,7,1,4,3,3,14
1514955710841489,-5,5,13,0,-2,-2,0,-1
1514955710841489,26,26,7,6,-2,-4,-4,12
1514955710850451,-2,-10,5,3,1,3,6,30
1514955710850451,5,8,7,-3,-4,-4,-4,2
1514955710865460,-3,-5,-3,3,2,-1,-1,-4
1514955710865460,0,8,-10,-5,-3,-2,-3,-25
1514955710867462,-23,-3,-6,-4,6,4,7,21
1514955710867462,6,12,20,-4,-4,-1,0,-4
1514955710888473,-25,-21,-43,3,-1,-2,-9,-16
1514955710888473,-4,-12,13,-6,-3,-2,2,14
1514955710889475,16,-7,-10,-9,0,-1,-6,-21
1514955710889475,-7,4,-15,-6,-3,0,1,13
1514955710901481,25,-18,6,-5,-4,-2,4,16
1514955710901481,-19,5,4,4,-3,-3,0,-12
1514955710910487,15,24,12,16,0,-1,-3,8
1514955710910487,-9,-15,-37,-13,2,3,-1,-36
1514955710926500,29,-19,15,4,2,1,-2,43
1514955710926500,-7,18,-14,-3,-6,-3,-3,-18
1514955710929504,-1,18,-35,-1,6,0,-1,0
1514955710929504,1,-63,10,-1,-7,-8,-10,-14
1514955710948515,-24,-7,1,2,7,7,5,-9
1514955710948515,18,1,-1,-3,-4,-5,-5,-6
1514955710949515,-2,2,3,-7,-3,-1,0,5
1514955710949515,-12,25,3,14,-3,-3,3,-1
1514955710970542,1,4,-12,-11,1,-1,1,-20
1514955710970542,-19,-15,17,0,-1,0,-3,-10
1514955710972544,-17,4,-4,0,0,-2,-2,-13
1514955710972544,2,2,-5,-7,-2,-1,3,-23
1514955710985553,-4,10,20,0,-1,-2,-5,12
1514955710985553,-1,18,-2,8,1,1,3,-1
1514955710987554,16,-35,2,-6,-4,-6,-8,-10
1514955710987554,-18,15,-14,-11,-3,-3,-2,4
1514955711008558,-14,-9,-4,8,-5,-2,2,-8
1514955711008558,-6,3,-7,-9,2,0,-1,11
1514955711012560,13,-9,16,2,-7,-1,3,10
1514955711012560,3,-3,-26,-9,11,5,3,14
1514955711030573,35,60,27,6,-2,-2,-2,30
1514955711030573,-23,-58,-16,-7,-3,-2,-6,-58
1514955711032573,-16,1,14,7,1,1,5,32
1514955711032573,34,5,6,3,-3,-2,-5,24
1514955711046586,-23,9,-5,-9,0,0,3,-3
1514955711046586,27,-5,3,3,5,2,2,-8
1514955711049586,-17,8,-4,13,2,2,0,11
1514955711049586,64,3,22,-5,-1,0,-2,-7
1514955711066607,-23,-28,1,-3,-4,-2,-1,-10
1514955711066607,12,10,-21,-3,-4,-3,0,15
1514955711075605,-13,-4,-6,1,0,-1,-3,-10
1514955711075605,13,2,12,10,0,-2,3,0
1514955711090624,-20,-22,-34,-5,-5,0,-2,5
1514955711090624,6,52,21,-10,-5,-2,1,8
1514955711092626,-1,-26,-12,-5,-1,-1,-1,8
1514955711092626,4,14,9,2,0,0,-3,-31
1514955711104626,-19,-17,6,4,0,-2,1,27
1514955711104626,6,-10,-15,-7,-3,1,0,-19
1514955711111630,-2,0,7,1,-1,-1,1,15
1514955711111630,-20,7,0,-3,0,-1,-3,12
1514955711127641,17,-1,-23,6,2,-2,1,-5
1514955711127641,-33,11,9,2,1,0,0,2
1514955711129642,7,3,-2,-11,-7,-3,-2,-8
1514955711129642,4,-6,-22,-2,0,-1,-4,6
1514955711150658,-10,15,21,5,2,1,-1,-17
1514955711150658,-7,-13,-10,2,-2,-1,-4,-1
1514955711152658,3,-5,-6,-9,-2,-4,-1,-18
1514955711152658,-6,3,-9,3,-3,-1,0,-2
1514955711164669,-14,-4,7,-5,-1,-1,-3,2
1514955711164669,23,-2,11,-1,-2,-2,-5,-9
1514955711171673,-27,2,-1,-1,1,0,-3,7
1514955711171673,-2,-29,20,2,-1,0,0,13
1514955711187693,12,-39,-39,-12,-4,-2,-7,-46
1514955711187693,-17,10,16,0,-3,0,-2,29
1514955711191686,-16,9,-2,-1,1,0,-1,7
1514955711191686,0,1,-5,-6,-7,-3,-5,-44
1514955711210739,4,11,4,5,1,2,4,30
1514955711210739,6,0,-11,3,-1,-3,-2,-2
1514955711211709,-4,-7,7,-8,-3,0,1,-5
1514955711211709,-12,11,-8,4,0,-1,2,11
1514955711225719,-2,22,11,4,-4,-2,2,-12
1514955711225719,-1,-16,-4,-11,0,-1,1,11
1514955711232716,29,9,10,4,-4,-3,-2,-19
1514955711232716,11,3,-17,-5,-2,-2,3,7
1514955711247741,-37,5,-15,-9,-6,-1,-5,15
1514955711247741,34,-15,17,20,8,3,1,-8
1514955711249731,12,1,-11,-7,-5,-3,-2,-6
1514955711249731,-22,0,13,-8,-1,-1,-4,14
1514955711269742,-13,-4,-24,-1,0,0,-1,-12
1514955711269742,-20,14,22,1,-3,-1,1,-6
1514955711278748,20,-2,-8,-7,-2,-1,2,13
1514955711278748,5,-7,-8,0,-2,-3,-3,14
1514955711284755,7,6,26,0,1,2,1,-3
1514955711284755,-25,-21,13,3,-2,-1,-1,-9
1514955711291761,4,-17,-1,9,0,1,-4,2
1514955711291761,-11,9,1,-10,0,-1,-3,-5
1514955711307825,13,-16,6,0,0,-4,-4,4
1514955711307825,19,16,-8,-3,-2,-3,-5,0
1514955711309783,-17,-31,-11,1,-3,-2,-5,-1
1514955711309783,-2,16,13,4,-2,-1,1,-23
1514955711331786,-22,-31,11,5,1,2,0,-11
1514955711331786,22,12,-6,-8,-8,-5,-4,-11
1514955711333787,4,19,-6,-6,4,1,0,46
1514955711333787,-51,-50,-15,-3,-6,-1,-6,-91
1514955711352801,13,0,3,-5,0,-2,-7,24
1514955711352801,9,4,-4,-5,-4,-1,2,7
1514955711354802,2,-22,-7,-10,2,0,-1,-23
1514955711354802,-1,15,-4,3,6,4,-1,3
1514955711367812,17,-8,-16,-3,-2,-3,-2,12
1514955711367812,4,6,0,-1,2,-1,-2,-7
1514955711369813,-33,9,14,1,-2,-5,2,10
1514955711369813,25,13,-15,4,1,0,-1,17
1514955711390827,12,8,6,2,0,-1,3,-21
1514955711390827,0,12,-16,-6,-3,0,1,18
1514955711391840,-35,7,26,8,5,4,3,-26
1514955711391840,-5,-16,-14,1,-1,2,5,10
1514955711404838,25,49,1,-7,-4,-3,0,20
1514955711404838,3,-26,13,-1,0,-1,0,-43
1514955711411843,-5,26,2,5,-6,-4,-3,-36
1514955711411843,1,-16,-5,4,-3,-5,-9,17
1514955711427872,1,13,0,-9,0,0,-1,-16
1514955711427872,-2,-6,-1,6,2,1,1,13
1514955711430857,7,1,-31,0,-4,-2,-1,-11
1514955711430857,15,6,3,1,-2,-2,3,22
1514955711450871,11,-15,7,-9,0,0,5,2
1514955711450871,-24,2,-16,-1,0,0,-3,-22
1514955711451871,19,3,16,10,0,0,-6,6
1514955711451871,-39,-8,8,-9,1,-3,0,3
1514955711463879,13,-12,-21,-3,-2,-2,3,16
1514955711463879,-4,14,9,6,0,1,1,-12
1514955711472885,7,-12,-7,-4,-1,1,-2,-2
1514955711472885,15,31,21,1,-1,-1,-4,4
1514955711487896,-15,-39,3,14,-4,-4,-7,-17
1514955711487896,3,2,-6,-6,2,3,2,28
1514955711489898,30,6,-8,-3,-2,-2,1,-13
1514955711489898,-24,-16,-7,3,0,1,2,6
1514955711510924,-1,2,-6,-6,-1,1,3,-7
1514955711510924,15,15,12,5,-5,-2,0,21
1514955711511925,-3,-7,4,5,1,1,-2,13
1514955711511925,9,-3,-12,-13,-3,0,-3,-9
1514955711524922,-4,-4,5,6,-2,-2,5,32
1514955711524922,-10,11,-8,-1,-2,0,-3,-21
1514955711534929,-15,10,3,-6,-3,-3,-1,-3
1514955711534929,4,-12,15,4,-3,-2,3,13
1514955711555947,-14,-3,-12,-8,-3,-1,-3,-2
1514955711555947,-6,5,-24,-9,1,-2,-5,5
1514955711556947,16,-4,23,1,-1,0,2,22
1514955711556947,10,13,-19,-6,-3,0,-1,-9
1514955711570972,10,1,4,10,2,2,-4,-9
1514955711570972,-13,10,7,-4,2,1,5,7
1514955711577958,0,-15,-2,-9,0,-1,-3,-8
1514955711577958,8,3,3,3,-4,-2,2,5
1514955711583976,1,6,23,5,2,0,4,-10
1514955711583976,6,18,-8,3,0,-2,0,0
1514955711592969,6,-32,-21,-8,-1,-1,-2,6
1514955711592969,9,21,9,1,0,1,-1,5
1514955711607982,-25,-8,-21,-9,1,-2,-2,8
1514955711607982,17,5,-2,5,-2,-3,-2,-3
1514955711609994,-4,5,-7,-7,0,-1,0,-11
1514955711609994,-9,-17,-1,9,2,-1,0,14
1514955711631003,-4,3,-2,-7,-6,-1,-2,-18
1514955711631003,1,-23,-2,13,9,3,2,15
1514955711631997,-2,18,-8,-3,-2,1,0,-5
1514955711631997,-3,1,4,1,0,-2,-6,-2
1514955711645006,8,-9,4,-4,-3,0,1,-4
1514955711645006,7,-4,-6,-5,-3,-2,-8,-28
1514955711654014,-5,-10,-1,-10,-8,-3,2,7
1514955711654014,5,-7,-3,1,0,-2,2,-11
1514955711668024,-17,0,-8,-3,2,0,-1,3
1514955711668024,-12,-3,6,-5,-2,-4,-3,2
1514955711670025,-24,-42,1,0,-3,-1,-1,5
1514955711670025,17,14,-2,3,2,0,0,-23
1514955711690050,-13,7,11,1,-4,-2,-1,-11
1514955711690050,0,-14,-12,-1,-1,-1,-1,11
1514955711692054,-12,-5,-5,-9,1,1,-1,-29
1514955711692054,-3,-6,7,-1,-4,-2,-3,41
1514955711704061,-6,8,6,-3,-2,-2,-4,-53
1514955711704061,-12,-4,-13,0,-1,-3,-3,-5
1514955711713060,-69,10,3,7,1,-1,2,8
1514955711713060,8,-24,-10,-6,-2,-4,-2,-8
1514955711727076,4,-4,17,8,1,2,-1,5
1514955711727076,-8,-4,-3,-3,-3,0,-4,6
1514955711728066,12,26,-1,-6,-6,-3,-3,-4
1514955711728066,2,13,8,-1,2,2,-3,-3
1514955711751084,-24,-29,-8,11,4,0,1,-3
1514955711751084,19,6,10,-2,-4,-1,-2,-1
1514955711753093,8,-4,-33,-5,-1,-1,-1,6
1514955711753093,-9,-13,2,0,-3,-2,-2,-17
1514955711772105,46,39,11,-6,-5,-1,-4,5
1514955711772105,-23,-21,17,4,0,0,1,10
1514955711773097,23,11,9,6,4,-2,-6,-11
1514955711773097,7,6,-33,-5,-6,-2,-2,13
1514955711787108,-5,16,10,-1,-2,0,2,-37
1514955711787108,-9,-12,1,-11,-4,-4,1,-10
1514955711788109,43,8,-8,8,-1,-1,-2,-4
1514955711788109,-20,7,25,2,2,-3,0,3
1514955711810177,10,-6,-32,-2,0,0,-2,3
1514955711810177,4,-1,-26,-7,-4,-4,-4,8
1514955711811138,-11,6,33,-1,1,0,3,3
1514955711811138,-8,-13,-4,-3,-3,-3,-1,-9
1514955711832139,-6,13,3,1,-2,-3,-5,19
1514955711832139,26,-30,9,-13,2,-1,-3,-28
1514955711833140,22,-3,-31,5,-1,-3,-4,18
1514955711833140,-21,-9,0,-3,0,0,0,-14
1514955711847159,23,12,5,1,0,0,6,65
1514955711847159,-11,-25,-16,-2,2,2,-1,-48
1514955711848151,-13,9,24,0,-4,-2,0,12
1514955711848151,5,-13,-4,-9,-4,1,2,-14
1514955711870177,-7,-18,3,4,0,-2,-1,0
1514955711870177,5,18,-6,-5,-3,-1,3,24
1514955711870177,10,-3,-11,4,3,1,0,-17
1514955711870177,-7,12,-16,-1,-2,-1,-2,19
1514955711893182,-10,-22,17,3,-1,-4,-5,-33
1514955711893182,5,-1,16,6,-2,-3,2,28
1514955711894220,-19,9,-9,-4,-4,-1,-2,-32
1514955711894220,-19,-19,-20,7,12,7,3,12
1514955711907204,9,10,1,-2,-4,-1,-3,-8
1514955711907204,6,7,-5,-2,3,0,-2,7
1514955711908192,-5,-13,-1,4,-6,-5,0,38
1514955711908192,-6,9,-18,-9,-2,1,2,-3
1514955711930208,17,13,9,-7,-2,-2,-7,3
1514955711930208,-22,-5,-28,4,2,3,2,2
1514955711930208,9,9,45,7,-2,-1,-4,26
1514955711930208,2,-3,15,-3,-2,-3,0,-58
1514955711952224,-5,-9,-29,3,1,1,1,25
1514955711952224,-16,13,5,5,-2,-3,1,-17
1514955711953228,12,-7,-4,-3,0,-3,-7,-22
1514955711953228,38,9,4,-8,-3,-3,-3,20
1514955711967238,-39,-18,17,2,-1,0,-3,-32
1514955711967238,-19,0,-6,-7,-5,-3,-5,-6
1514955711968240,15,18,14,-1,4,0,2,13
1514955711968240,20,-15,-5,0,-3,-4,-3,3
1514955711990263,-23,-5,1,6,0,-1,-1,-5
1514955711990263,17,-35,-2,-7,-2,-1,-4,25
1514955711990263,-13,5,-17,-4,-1,-1,2,-28
1514955711990263,-18,1,-1,5,-3,1,0,-3
1514955712012281,4,14,-9,-10,-2,-1,2,4
1514955712012281,-16,4,13,9,-4,-3,-5,24
1514955712013283,6,-26,11,-4,0,1,0,-37
1514955712013283,-12,10,1,-1,-3,-1,6,18
1514955712028277,-22,7,-8,-3,-2,-2,-4,-7
1514955712028277,2,11,6,2,-2,-2,4,-6
1514955712030280,-10,-2,-16,-19,2,2,0,27
1514955712030280,-21,-13,-18,10,2,-2,-3,-5
1514955712050300,-5,-4,13,3,-1,-2,-1,12
1514955712050300,18,-2,-9,-8,-1,-1,0,54
1514955712050300,-28,-11,-24,-2,-1,-1,-2,-45
1514955712050300,25,14,14,4,-5,-3,-2,26
1514955712072309,-3,-14,16,-14,2,2,0,-15
1514955712072309,8,-4,-11,10,2,2,4,-6
1514955712073310,-27,20,3,2,-1,0,-8,2
1514955712073310,5,-45,4,-7,-2,-1,-4,-10
1514955712087320,11,12,-21,-1,-3,0,2,-2
1514955712087320,3,14,7,-13,-4,-3,-4,4
1514955712088321,4,1,23,13,2,3,1,-14
1514955712088321,8,12,-7,7,-1,1,-1,10
1514955712110335,-9,-22,-2,-14,-1,-1,-2,-13
1514955712110335,13,8,-9,2,0,-1,-2,-24
1514955712111336,11,-19,5,-2,-7,-5,0,17
1514955712111336,-2,25,1,-1,3,3,0,9
1514955712132352,-33,-20,-3,4,-2,-2,-2,13
1514955712132352,4,-1,-4,2,0,1,-2,-82
1514955712133352,11,12,-13,0,-2,-2,2,56
1514955712133352,-30,-22,1,-7,-1,-3,-3,-32
1514955712147363,33,-9,1,0,-1,-3,-1,5
1514955712147363,-20,1,-7,0,3,-2,-4,-27
1514955712148362,-17,3,16,6,0,-2,-2,15
1514955712148362,14,-1,2,-13,-2,-1,-1,-7
1514955712169380,-26,11,-20,2,0,1,1,-7
1514955712169380,-2,-20,7,-2,-3,-3,3,21
1514955712170381,27,6,-8,1,0,1,0,-20
1514955712170381,-6,20,39,-1,-3,-1,-3,4
1514955712192394,7,-11,-28,-2,-3,0,-1,-3
1514955712192394,-7,15,25,-1,-2,-1,-2,-15
1514955712193396,5,-6,-9,0,-3,-3,-1,8
1514955712193396,-6,4,-25,-11,3,0,-2,-7
1514955712207404,5,20,48,16,-5,-6,-5,16
1514955712207404,15,-9,-43,-31,0,2,2,-32
1514955712208405,-35,-20,-11,-2,-3,-3,-5,-17
1514955712208405,10,3,9,5,0,0,-1,-3
1514955712229420,6,-3,-4,2,-2,-1,-2,8
1514955712229420,-9,-4,15,11,0,-1,-2,16
1514955712230422,2,1,-19,-5,-1,-2,2,2
1514955712230422,15,14,-5,4,0,-2,-1,21
1514955712252437,0,-11,15,-4,0,1,4,4
1514955712252437,-9,-6,-14,1,-2,1,1,7
1514955712253438,7,-3,4,-7,1,0,-2,2
1514955712253438,10,-4,-6,1,-2,-3,-2,-5
1514955712267449,4,16,4,5,3,3,-2,-5
1514955712267449,3,-6,-3,-5,-2,-3,-2,26
1514955712268448,7,1,12,0,-2,-1,-3,-25
1514955712268448,-6,6,-10,-8,-3,0,7,-8
1514955712289462,-7,0,-12,-2,-3,-2,-4,-12
1514955712289462,4,3,20,4,-1,1,-4,34
1514955712290463,-10,0,-7,3,2,-3,4,-56
1514955712290463,-3,-3,18,27,-6,-2,-2,42
1514955712312478,8,-2,-31,-33,7,4,5,-37
1514955712312478,5,14,13,7,-1,0,-2,14
1514955712313482,32,-7,1,-2,0,3,2,14
1514955712313482,-28,-7,1,-10,-8,-6,-11,-34
1514955712328498,-22,-21,-7,18,3,-3,3,21
1514955712328498,5,7,-6,5,1,-3,-4,-64
1514955712329490,6,7,-3,-4,1,1,-1,32
1514955712329490,-8,-1,-4,-4,0,-2,2,-58
1514955712349505,14,-2,-11,-10,-2,0,-2,12
1514955712349505,0,9,7,1,0,-1,1,18
1514955712350506,-7,-6,-2,4,-6,-1,-4,-3
1514955712350506,4,-8,8,2,8,3,1,-2
1514955712372539,3,6,-21,-2,-8,-3,0,1
1514955712372539,4,-7,2,-4,-5,-2,-1,-1
1514955712373525,0,3,4,-4,0,0,1,9
1514955712373525,-2,-11,2,-2,-2,2,-1,11
1514955712387534,6,6,-9,3,-2,-2,-4,-15
1514955712387534,-4,-5,-3,-4,0,0,2,25
1514955712388532,-1,1,2,6,1,0,1,-25
1514955712388532,2,5,5,-9,3,-2,-1,12
1514955712409553,5,-2,9,2,-5,-2,-2,-11
1514955712409553,4,6,7,-2,-3,-1,3,-16
1514955712411551,-10,-6,-6,-5,0,-2,0,4
1514955712411551,0,-10,2,6,-2,-1,-1,6
1514955712432564,18,8,-4,-3,-2,-1,-2,-7
1514955712432564,-19,-16,0,1,-1,-1,-2,10
1514955712432564,-7,14,13,2,1,-2,-2,1
1514955712432564,16,0,-19,-6,-4,-1,-2,-1
1514955712447575,-7,-6,-21,-4,-1,-3,-1,15
1514955712447575,-5,-2,4,5,1,1,-3,-40
1514955712447575,9,6,-3,-1,2,-1,1,37
1514955712447575,-10,-8,-3,-1,-3,-4,-2,0
1514955712469601,-2,-4,11,2,1,1,-1,-4
1514955712469601,5,5,2,1,-3,-2,-2,3
1514955712470602,-2,-6,1,-2,0,1,-1,0
1514955712470602,0,5,-22,-5,-4,-2,-1,-4
1514955712492615,-2,-3,8,-1,-1,0,-1,0
1514955712492615,-5,-1,-3,2,-1,-1,-1,5
1514955712492615,0,-6,-2,-2,-3,-1,-3,0
1514955712492615,-6,1,0,-2,0,1,0,5
1514955712506627,5,0,2,0,-4,-4,-1,-6
1514955712506627,-7,-4,-15,-4,-1,-2,1,8
1514955712514631,9,-2,-1,-4,-1,-1,-3,0
1514955712514631,6,4,6,2,-1,-1,-6,-2
1514955712529633,-2,-2,-2,-1,-1,-4,0,-2
1514955712529633,3,3,5,0,0,-1,-3,5
1514955712530634,-5,-4,-6,-4,-1,-2,-1,-4
1514955712530634,-5,-2,1,0,0,-2,0,2
1514955712552649,1,-2,6,0,0,-1,-2,-2
1514955712552649,0,-1,-2,2,0,-1,0,3
1514955712552649,-4,-1,-3,-3,-1,-1,0,0
1514955712552649,2,6,4,2,-2,-2,0,0
1514955712566670,-2,-8,-9,-4,-1,-1,-1,-4
1514955712566670,3,-5,-2,-1,0,1,-1,7
1514955712574673,-7,4,6,3,-2,-1,-2,-5
1514955712574673,3,0,3,-2,-2,-1,4,0
1514955712589686,-1,2,2,2,1,0,-2,1
1514955712589686,-6,-2,-3,-3,-4,-4,-2,1
1514955712590674,8,-5,-6,3,0,-2,-2,-3
1514955712590674,-4,3,7,-8,0,0,-1,-2
1514955712612702,0,3,1,-1,-1,0,-3,0
1514955712612702,-1,0,2,-1,1,-1,-1,2
1514955712612702,-3,-1,-3,-2,-2,-2,-2,0
1514955712612702,-1,0,13,3,-1,-1,0,0
1514955712626713,1,-3,-11,-1,-1,0,0,-2
1514955712626713,-2,-3,3,-3,-1,0,-1,-1
1514955712634715,-4,0,2,1,-1,-2,-3,-1
1514955712634715,-2,-1,-4,0,0,0,1,-4
1514955712652720,-2,0,-12,-3,-1,-2,0,-1
1514955712652720,-1,-1,6,0,-1,-3,1,-1
1514955712654720,-1,-1,-2,0,-1,-2,0,-1
1514955712654720,-2,-4,-10,-4,-3,-2,-2,-1
1514955712672734,1,1,5,1,-1,-2,-1,-4
1514955712672734,3,-3,2,-3,-3,0,-1,1
1514955712672734,-5,-5,-9,5,-1,-1,-1,0
1514955712672734,1,-1,-4,-2,2,0,0,1
1514955712686756,1,2,34,-1,0,0,1,-3
1514955712686756,-2,-7,-51,-12,-4,-3,-1,-4
1514955712695765,-2,0,7,3,0,-1,-2,-1
1514955712695765,-1,1,3,4,-1,-1,-3,1
1514955712709770,-1,-7,-6,1,-2,-1,0,-1
1514955712709770,-1,3,8,3,1,-1,-2,-2
1514955712710771,-4,-7,-18,-16,-7,-3,0,-4
1514955712710771,0,2,11,8,1,-1,-1,-2
1514955712732814,-4,-4,-39,-8,-3,-3,-4,-2
1514955712732814,3,0,16,4,0,-1,-2,1
1514955712732814,-1,-1,-2,1,-1,-2,-2,0
1514955712732814,0,-2,6,0,0,-2,0,-1
1514955712747788,-2,3,4,-2,0,1,2,-1
1514955712747788,-1,-1,9,2,1,-1,-1,-1
1514955712754803,-1,-1,-23,-6,-1,-1,0,-2
1514955712754803,0,1,35,2,-1,0,-1,-2
1514955712778846,0,-2,-39,-4,0,0,0,-1
1514955712778846,-2,0,4,3,-1,1,-3,0
1514955712779809,-1,-6,-16,-15,-7,-3,-4,-2
1514955712779809,-2,-3,-23,-1,0,-1,-2,-2
1514955712792818,0,0,20,10,1,2,-1,1
1514955712792818,-3,-5,-2,-9,-6,-3,-1,0
1514955712792818,1,3,12,5,0,-1,2,0
1514955712792818,-2,-3,-20,-5,-3,-3,0,-1
1514955712806842,-1,4,15,3,0,-1,0,-2
1514955712806842,0,2,-3,0,-1,-2,0,-1
1514955712814834,-2,-2,10,1,-1,0,-3,-1
1514955712814834,-1,-3,-9,-4,-3,-3,-2,-4
1514955712829856,1,3,27,8,2,-1,0,1
1514955712829856,0,-2,-46,-9,-2,1,-2,-1
1514955712830845,1,2,25,4,1,1,2,0
1514955712830845,-1,-6,-51,-5,-1,0,0,-2
1514955712852860,-4,-8,39,-10,-5,-4,-2,-4
1514955712852860,0,3,15,14,4,0,1,-3
1514955712854863,0,4,10,5,3,0,1,1
1514955712854863,-2,-6,-32,-10,-5,-1,-1,0
1514955712875878,0,4,-2,8,3,1,0,1
1514955712875878,-2,-3,1,-7,-3,-1,-1,0
1514955712875878,-1,0,5,3,2,0,-1,-3
1514955712875878,0,2,14,4,0,-1,0,2
1514955712889899,-4,-4,-6,-4,-6,-4,-2,-1
1514955712889899,2,1,15,1,0,-1,-1,2
1514955712890899,-2,-5,-28,-5,-3,-2,-1,-1
1514955712890899,-3,1,11,-2,0,0,-1,-2
1514955712911914,-2,0,-18,-3,-1,-2,-2,-1
1514955712911914,-1,0,15,2,0,-1,-2,-2
1514955712912920,-1,-4,-1,3,-1,-1,-2,-1
1514955712912920,-4,-8,-1,-6,-4,-1,-3,-3
1514955712934927,-2,0,-7,-9,-3,-1,0,-1
1514955712934927,1,0,-2,-2,-1,0,3,-1
1514955712943939,0,0,8,4,0,-1,0,2
1514955712943939,-1,5,33,7,1,1,-2,3
1514955712949928,-3,-2,-35,3,0,-1,-1,-2
1514955712949928,-2,-2,6,2,-2,-3,-2,-1
1514955712951932,-2,-3,-4,-9,-3,-4,-2,-3
1514955712951932,0,0,7,2,0,-1,-2,-1
1514955712971956,-1,-3,-16,-7,-2,-1,-1,1
1514955712971956,-2,0,-2,5,0,1,0,-2
1514955712972946,0,2,5,-2,-2,-1,-3,-2
1514955712972946,-2,-3,-8,-6,-1,-1,0,-1
1514955713002978,1,-1,11,0,-1,-1,0,-2
1514955713002978,-2,-1,-3,-2,0,-1,-2,1
1514955713003979,-3,-2,4,0,-2,-1,0,-2
1514955713003979,0,1,19,4,0,-2,-1,0
1514955713009983,-2,-5,-31,-8,-3,0,-1,-1
1514955713009983,0,-1,-9,1,1,-1,-1,-2
1514955713010987,-2,-4,-6,-7,-3,-1,-1,-2
1514955713010987,0,-1,0,0,0,-1,0,-1
1514955713032988,0,1,9,3,-1,2,-1,-2
1514955713032988,0,1,0,1,0,0,0,-2
1514955713033989,-1,-1,-10,-2,-2,-1,-2,1
1514955713033989,-1,-3,-12,-6,-4,-2,1,-4
1514955713055003,-1,2,11,1,2,-1,0,1
1514955713055003,-1,-1,-8,-4,-2,-2,-1,-2
1514955713056004,-2,0,1,0,0,-2,-1,-2
1514955713056004,-1,0,-3,-3,-1,0,-2,-1
1514955713070026,1,-1,7,3,2,0,-1,-3
1514955713070026,-1,-1,2,0,-2,-2,-1,0
1514955713071039,-1,-2,-6,-2,-1,-1,-1,0
1514955713071039,1,-1,0,0,-3,0,-1,-3
1514955713093045,-1,-1,-3,1,3,0,0,-2
1514955713093045,-2,-1,6,-5,-1,-1,2,-1
1514955713095046,1,-1,-7,1,0,1,-1,-2
1514955713095046,-3,-2,10,-3,-3,-2,-1,0
1514955713115059,-2,2,9,-1,-3,-1,-3,1
1514955713115059,-3,-2,-16,-5,-1,-2,-2,-2
1514955713116047,0,-1,1,-2,0,0,1,-1
1514955713116047,-1,-2,-4,1,-1,1,-3,-2
1514955713131057,1,0,7,0,-3,-1,0,-2
1514955713131057,-1,-2,-2,-1,-1,-1,0,-1
1514955713133058,-1,-2,-2,-1,0,-1,-1,0
1514955713133058,-2,-1,-5,0,0,-1,1,0
1514955713153084,-3,-2,1,0,-3,-2,-1,-3
1514955713153084,2,3,4,0,-1,1,1,1
1514955713154085,-3,-5,-9,-3,-1,-2,-3,-3
1514955713154085,0,3,13,2,2,1,-1,-1
1514955713176088,-4,-11,-34,-11,-6,-3,-3,0
1514955713176088,-1,-2,5,1,0,-2,-1,-1
1514955713178093,-2,1,1,-1,-1,-1,-2,-1
1514955713178093,-1,-2,-5,-2,-2,1,1,-1
1514955713190106,0,0,9,-2,-1,-1,0,0
1514955713190106,-1,-3,-1,-3,-1,-2,-3,1
1514955713190106,-1,-2,-2,-1,-1,-1,-2,-1
1514955713190106,0,0,-5,1,0,-2,0,-2
1514955713212137,-1,2,6,1,-2,0,-2,0
1514955713212137,-1,-3,-6,-1,-1,0,-1,-2
1514955713220129,-1,1,3,0,-1,-2,1,0
1514955713220129,0,-2,-5,-3,0,-2,-2,-3
1514955713236132,-1,-1,3,0,0,2,1,2
1514955713236132,-3,-2,-1,-1,-1,-1,-3,0
1514955713237144,0,-2,0,-3,0,0,-1,-2
1514955713237144,-2,0,-3,-1,-2,-2,-1,-1
1514955713250153,1,1,0,-1,1,-3,-1,-1
1514955713250153,-2,-1,-3,-2,-1,0,-1,0
1514955713250153,-2,-1,-1,1,-2,-1,1,-1
1514955713250153,-1,-1,-4,-1,-1,-3,1,0
1514955713272168,-2,0,1,1,1,-1,0,-1
1514955713272168,-2,-1,0,-2,-2,0,1,-2
1514955713280165,0,0,0,-2,0,0,-3,-1
1514955713280165,-3,-1,-4,-2,-1,1,-2,1
1514955713295230,1,0,1,0,-1,-1,-3,0
1514955713295230,1,0,0,-1,-2,-1,0,-3
1514955713296188,-1,-2,-2,-2,-1,-1,0,1
1514955713296188,-1,-1,-2,0,0,0,-2,-2
1514955713310243,-2,0,1,-1,0,-1,-2,-3
1514955713310243,-1,-1,-1,-3,-1,-2,0,-2
1514955713310243,0,1,2,-1,-1,0,0,-1
1514955713310243,-1,-2,-3,-1,-2,-2,-2,-2
1514955713333203,-4,0,1,0,-3,-3,0,-2
1514955713333203,0,-2,-1,1,0,-1,-4,-1
1514955713335204,0,-1,0,0,-1,-1,0,-3
1514955713335204,-1,-1,-1,-2,-1,0,1,2
1514955713355229,-1,0,0,-3,-1,-1,-1,-2
1514955713355229,-1,-2,-2,-1,-2,-1,0,2
1514955713356218,-2,-1,-1,-1,0,-3,-1,-1
1514955713356218,-2,0,0,-1,-1,0,-1,-2
1514955713369243,1,-3,1,-1,-3,-2,-2,-2
1514955713369243,-2,-3,-2,-1,-1,-1,0,-1
1514955713377249,-1,0,0,0,-2,-1,0,-1
1514955713377249,0,0,-2,-2,-1,-2,0,-3
1514955713393261,-2,0,-2,-1,0,-1,-2,-1
1514955713393261,-3,0,-1,-3,1,-1,-3,-1
1514955713393261,-2,-3,-1,-1,-1,0,1,-1
1514955713393261,-1,-1,-1,-1,-1,-2,-1,-1
1514955713415276,0,-1,-1,-2,0,-1,0,-1
1514955713415276,0,-2,-2,-2,-3,0,0,-1
1514955713416260,-1,-1,0,0,-3,0,-2,-2
1514955713416260,-1,-3,-1,-1,0,0,-1,0
1514955713429268,0,-4,1,1,0,0,-1,-1
1514955713429268,0,-1,-2,0,-2,0,-1,3
1514955713437272,-1,0,0,-1,0,0,1,-2
1514955713437272,-1,-2,-1,-3,1,0,2,-3
1514955713453297,-1,-1,-1,0,-2,-1,-2,0
1514955713453297,1,0,-1,0,-1,-1,-1,-3
1514955713455298,0,-3,-2,-1,-1,-1,0,-1
1514955713455298,-2,0,-1,0,-1,-2,-1,-1
1514955713475301,1,-1,-2,-1,0,0,2,-2
1514955713475301,-2,-1,-1,1,0,-1,-2,0
1514955713476301,1,0,-2,-2,-1,0,-2,-1
1514955713476301,-2,0,0,-1,-1,0,-1,1
1514955713489309,-3,1,0,-1,-2,-4,-1,2
1514955713489309,-1,-2,-2,-1,-1,-2,2,-2
1514955713497331,-1,-1,-3,0,0,-1,-1,-1
1514955713497331,1,-1,-1,-2,-1,-1,-2,-1
1514955713513327,-1,-1,1,-1,-1,0,0,-2
1514955713513327,-2,1,-2,-1,1,0,-2,0
1514955713513327,-4,-1,-2,0,-2,-1,-1,-1
1514955713513327,0,-3,-1,0,-3,0,-1,0
1514955713535355,0,-1,-3,-1,0,0,-1,-1
1514955713535355,1,-2,-2,-1,-2,0,-2,-2
1514955713536344,0,0,-1,-1,-2,-2,0,1
1514955713536344,0,-1,-1,0,-1,-2,-2,-2
1514955713549353,-2,-1,1,-1,-2,-1,-1,-2
1514955713549353,-1,-1,0,-1,0,-2,0,2
1514955713557358,-1,0,-1,-1,-1,-1,-1,-2
1514955713557358,-1,-1,1,0,-2,-1,1,0
1514955713573372,-2,-1,-1,-3,-2,-2,-3,1
1514955713573372,-2,-1,0,-2,1,-1,1,-2
1514955713573372,-2,-2,0,-1,-1,-1,0,-1
1514955713573372,0,-1,-1,-2,0,-1,0,-2
1514955713595411,-3,0,-1,0,-1,-1,-1,-2
1514955713595411,-1,-1,-1,-1,-2,-1,-2,-1
1514955713596388,1,0,0,-1,1,-2,-3,2
1514955713596388,0,-1,-1,0,-2,-1,-2,-1
1514955713609445,0,-1,-2,-2,-2,-1,0,-2
1514955713609445,-4,-1,-1,2,0,-1,-1,-2
1514955713617415,-1,-1,-1,0,-2,-2,-2,-1
1514955713617415,1,0,0,-1,-1,0,-2,0
1514955713634413,-1,1,-1,-1,0,-2,-4,-1
1514955713634413,-1,-2,-1,-1,-1,0,-2,1
1514955713635414,-1,0,-1,0,0,-1,-1,-3
1514955713635414,-3,-4,0,-1,-2,-1,-1,-1
1514955713655445,0,-2,-3,0,0,0,0,2
1514955713655445,0,-1,-1,1,-3,-3,-1,-3
1514955713656431,-1,-2,0,-1,0,0,0,-1
1514955713656431,-1,-2,-2,-1,-2,-2,0,-1
1514955713669454,-1,-2,-1,-1,-2,-1,0,0
1514955713669454,-1,-1,0,-4,-2,-2,-1,1
1514955713677460,-2,-1,0,-2,-1,-2,-2,-2
1514955713677460,-1,0,0,-2,0,-1,0,-2
1514955713694454,-1,-1,-1,1,0,0,-1,0
1514955713694454,-1,0,-1,-3,0,0,-1,0
1514955713696456,-2,-2,-1,-2,-3,0,0,0
1514955713696456,-3,-2,-1,0,0,0,-1,1
1514955713715481,-1,-2,-2,0,0,-3,-1,-3
1514955713715481,1,-1,-1,-2,-1,0,-1,-1
1514955713716471,-1,0,-1,-1,-1,0,-1,0
1514955713716471,-1,1,-1,-1,0,0,0,-2
1514955713730482,0,-1,-2,-1,-3,-1,0,-1
1514955713730482,-1,0,-2,-2,-1,-2,1,-2
1514955713738501,1,-1,-2,-1,0,-2,-1,-1
1514955713738501,-1,-2,0,-2,0,-1,-2,-2
1514955713752496,-2,0,-2,-2,-1,-3,-2,-1
1514955713752496,-1,-1,0,-1,1,-1,-1,0
1514955713753498,-2,-1,-1,-1,-3,-2,0,-1
1514955713753498,-1,1,-2,-1,-1,0,-1,-3
1514955713776512,-2,-1,0,0,0,0,1,-1
1514955713776512,1,-1,-3,1,-1,0,-4,0
1514955713778514,-3,-1,-2,0,0,-2,-2,1
1514955713778514,0,-1,0,-1,0,-1,-1,-2
1514955713797539,-1,0,-1,1,-1,-2,0,1
1514955713797539,-2,-1,-3,-1,-1,-1,0,-2
1514955713798532,-1,0,1,-2,-2,-2,0,-3
1514955713798532,-1,0,-1,0,-1,-2,-1,0
1514955713812550,-3,-2,-1,-2,-1,2,0,-3
1514955713812550,0,-1,1,-2,-1,0,-3,-1
1514955713813544,1,-1,-2,-1,-1,0,0,-2
1514955713813544,-2,-1,-1,-3,-1,-1,-1,-1
1514955713836567,1,-1,1,0,-1,-1,-1,1
1514955713836567,-3,-2,-1,0,-2,-1,0,-1
1514955713839560,-4,-5,-1,-2,-2,1,-2,-1
1514955713839560,0,-1,-2,0,-2,-1,0,-1
1514955713858585,0,0,-2,0,-1,0,-1,-2
1514955713858585,-1,-1,-3,-2,-1,-1,0,-1
1514955713859571,-1,-1,-1,0,0,0,0,2
1514955713859571,-3,0,-1,-2,-2,-1,0,-2
1514955713871581,1,-2,-1,-1,-2,-2,-1,0
1514955713871581,1,-2,0,-1,-2,-3,-3,-3
1514955713880586,-2,-1,-2,-2,-3,-1,0,-4
1514955713880586,-1,-2,-2,1,0,-1,-2,0
1514955713895597,-1,-1,0,-2,0,-1,0,-1
1514955713895597,0,-2,0,-2,0,-1,2,1
1514955713896598,-1,0,-2,-1,-1,-2,-3,1
1514955713896598,-3,-2,-1,-2,-1,-1,-1,-2
1514955713917624,-2,-1,-1,-1,-1,-2,-1,-3
1514955713917624,-2,-2,0,-1,-2,-1,0,1
1514955713919618,1,-1,-1,-2,0,-3,-1,-2
1514955713919618,-2,-2,-3,-1,-3,-1,-1,-1
1514955713932627,1,1,-1,-1,-2,-2,-1,-1
1514955713932627,-2,-1,-2,-1,0,0,0,-2
1514955713940651,-1,-1,-2,-1,-1,-1,1,-3
1514955713940651,-4,0,-1,-2,-1,1,0,0
1514955713955652,-2,-1,0,-1,-1,-2,0,-1
1514955713955652,-1,-1,-1,-2,-1,-1,-1,1
1514955713956643,-2,0,-1,0,-3,-1,-2,1
1514955713956643,0,-3,0,-2,-1,1,-1,-1
1514955713977676,-2,-1,-2,-1,-3,0,-2,0
1514955713977676,-2,1,-1,-1,1,-2,-3,-3
1514955713979670,-1,-1,-2,-1,-2,1,-1,-1
1514955713979670,-1,-1,-1,0,-1,-1,1,1
1514955713992674,-1,-1,-2,0,0,-1,-2,-2
1514955713992674,-1,-2,-2,-1,-1,1,-1,-1
1514955713998679,-1,0,-1,-2,0,-1,-2,-3
1514955713998679,0,-2,-1,-1,-1,-2,-2,0
1514955714015683,0,-1,-1,-2,-1,-2,-2,-1
1514955714015683,0,-1,0,-1,-2,-2,-1,-1
1514955714016685,0,-2,-1,-1,-1,-1,-2,-1
1514955714016685,1,-1,0,-1,-1,-3,1,-3
1514955714037706,-3,-1,-1,-1,-1,0,1,-2
1514955714037706,0,-1,-3,0,-2,-2,-2,-1
1514955714039698,0,-1,0,0,-1,0,0,-2
1514955714039698,0,-1,-1,-2,-1,-1,-1,-1
1514955714052709,-1,-2,-1,-1,0,-1,-3,-2
1514955714052709,-2,-2,0,-1,-1,-1,-1,-2
1514955714058712,1,0,-1,-1,-1,-3,0,0
1514955714058712,1,-2,-1,0,-3,-1,-3,-2
1514955714075742,1,1,-1,-3,-1,0,-1,1
1514955714075742,-3,0,-2,-1,-3,-2,-1,-1
1514955714076725,-3,-1,-1,-1,-1,-1,-1,-1
1514955714076725,-1,0,-1,0,-2,-1,-1,-2
1514955714098762,-4,-1,-2,-1,0,0,-2,-2
1514955714098762,0,-1,0,-1,-1,-2,0,0
1514955714102754,0,-2,-1,-2,0,-1,-1,-1
1514955714102754,-1,0,-1,-1,-2,-1,-1,-2
1514955714112750,0,-1,2,-1,0,-3,-5,-2
1514955714112750,0,0,-2,-1,-1,0,11,2
1514955714126773,-4,0,-9,-1,-2,-1,0,0
1514955714126773,-2,-2,7,-2,-1,-2,-5,0
1514955714135766,-1,-3,-3,-3,-2,-2,-2,0
1514955714135766,0,-1,3,1,0,-2,0,-1
1514955714136767,-1,0,-2,0,-1,0,1,-3
1514955714136767,-1,1,-2,0,-1,0,-1,-2
1514955714157794,-2,-2,-1,-1,0,-2,-1,-1
1514955714157794,-1,1,-2,-2,-1,0,-7,-2
1514955714159795,0,-2,2,-2,-2,-2,-1,1
1514955714159795,0,-1,-3,0,-1,-1,0,-2
1514955714171801,-1,0,0,-1,0,-2,1,-2
1514955714171801,-2,0,-3,-2,-1,-1,-1,-1
1514955714180801,0,-1,1,0,-1,-2,-1,0
1514955714180801,-1,-1,-1,-1,-1,-2,0,1
1514955714195812,-2,0,-5,-1,-1,0,-1,-2
1514955714195812,-1,-1,0,0,-2,-1,-2,-2
1514955714196810,-1,-1,0,-1,0,-1,-1,-2
1514955714196810,-1,0,-4,-3,-1,-1,-3,-2
1514955714217827,-1,0,0,-1,0,-1,2,-1
1514955714217827,-1,-2,-1,-3,-1,-1,-2,-1
1514955714219844,-2,-3,-1,-2,-1,1,-3,-3
1514955714219844,-2,-1,-3,-1,-2,1,0,-2
1514955714231834,-1,-2,-3,-1,-2,-4,-1,0
1514955714231834,0,0,2,0,0,-1,-3,-1
1514955714238842,-1,0,-1,0,-1,-2,-1,-2
1514955714238842,-2,-1,0,0,0,-2,1,-1
1514955714255853,-1,-1,-1,0,-2,-1,-1,-1
1514955714255853,-3,-2,-3,-1,-2,0,-4,-1
1514955714256854,-2,-1,-1,1,-2,-1,-2,0
1514955714256854,0,0,-1,-1,-3,-2,-2,0
1514955714277883,-2,-2,-2,-1,-2,-2,-2,0
1514955714277883,-1,-1,-2,1,-2,-2,0,-1
1514955714279869,-2,0,-1,-1,-1,0,0,-3
1514955714279869,0,0,-3,-1,0,-2,-1,-1
1514955714291936,0,-2,-3,0,0,-3,-1,-1
1514955714291936,-2,-1,-2,-1,0,-2,0,-2
1514955714300889,0,-1,1,-1,-1,-1,-2,-1
1514955714300889,-3,-1,0,-1,-2,-2,-2,0
1514955714315917,0,0,0,-1,-1,-2,-1,1
1514955714315917,-1,-2,-1,-2,0,-1,-3,-1
1514955714316895,-1,-2,1,-2,-3,-1,0,-2
1514955714316895,-1,-2,0,-1,0,0,0,1
1514955714337923,0,-2,1,-1,0,-1,-3,0
1514955714337923,-2,-1,-2,-1,2,-2,0,-2
1514955714339924,0,-3,-2,-2,0,-2,-1,-2
1514955714339924,-1,0,-2,-1,0,-2,-2,-2
1514955714351936,1,-2,-1,-2,-2,0,0,-1
1514955714351936,0,-2,1,-1,-1,0,-1,1
1514955714360939,-1,-1,-1,0,-1,-1,0,-2
1514955714360939,-1,-2,-2,-1,1,2,0,0
1514955714374945,-2,0,-2,-1,0,-1,-1,-2
1514955714374945,1,1,-2,-1,-1,-2,-1,-1
1514955714376940,-3,0,-1,-2,-1,-2,-1,-1
1514955714376940,-1,-2,-2,0,-2,-1,-2,-2
1514955714397954,-2,-3,1,0,-1,0,1,0
1514955714397954,0,0,-2,-2,-1,-1,0,-2
1514955714399953,-1,-1,-2,-1,-2,-1,0,-1
1514955714399953,-1,-2,-2,-2,-2,-3,0,-1
1514955714411979,0,-1,-2,0,1,-1,-1,-1
1514955714411979,-3,-1,0,-1,-2,-2,-2,-2
1514955714420984,-1,-2,-2,-1,0,-1,-1,0
1514955714420984,1,0,-1,-1,-3,-2,0,-1
1514955714435980,-1,0,0,0,-1,-1,-2,-2
1514955714435980,0,0,-3,-1,-1,-1,-2,0
1514955714436983,-2,-1,-3,-1,-2,-1,-2,-1
1514955714436983,-2,-1,-2,-1,0,-2,0,-3
1514955714458006,-2,0,-1,-2,-1,-1,0,-2
1514955714458006,-1,-1,-2,-2,0,-1,-2,0
1514955714460008,0,-1,-1,-1,-1,-1,-3,-2
1514955714460008,1,0,-1,-1,0,-2,-1,0
1514955714472017,-1,0,-3,-3,-2,0,0,-1
1514955714472017,0,-1,0,0,-1,1,-1,-1
1514955714481014,0,0,0,-1,-1,-1,-2,0
1514955714481014,-3,-2,-2,-1,-1,-1,-2,0
1514955714496021,-2,-1,-1,-1,-1,-3,-1,-1
1514955714496021,-3,-1,-3,-2,-1,-3,0,-1
1514955714497033,0,-1,0,-1,-1,-1,0,1
1514955714497033,-1,0,0,-1,1,-1,-2,-3
1514955714518052,0,-1,-2,0,-1,-1,-1,-1
1514955714518052,-1,-2,-1,0,-1,0,0,-1
1514955714520045,-1,-2,-1,-1,-2,-1,-2,-2
1514955714520045,-2,-2,-1,-2,-2,-2,-3,1
1514955714532058,-1,-1,-2,-1,-1,-1,-1,-1
1514955714532058,-3,-2,0,-2,0,-1,0,0
1514955714540056,-2,-1,-1,-1,-1,0,1,-2
1514955714540056,-1,-3,0,0,0,-2,-3,0
1514955714556068,0,-2,-1,-2,-2,-2,-2,-1
1514955714556068,-1,-1,-2,0,-2,-3,0,0
1514955714557067,0,0,1,-1,-1,-1,-1,0
1514955714557067,1,0,-1,0,-1,0,0,-3
1514955714578090,-1,0,0,0,-2,0,-1,-1
1514955714578090,0,-1,-2,0,-3,-1,-2,-2
1514955714580081,0,-1,-2,-1,-2,-2,0,1
1514955714580081,0,0,-1,-2,-1,-2,-1,0
1514955714592091,-3,1,-1,0,0,0,-1,1
1514955714592091,-1,-2,-2,0,-1,0,-1,-1
1514955714602100,-2,-2,-1,-1,0,0,1,-1
1514955714602100,0,0,1,0,-2,0,-1,0
1514955714615106,1,-2,-3,-2,0,-1,-3,-2
1514955714615106,0,-1,0,-1,-1,-2,-2,-1
1514955714617111,0,-2,-2,0,-1,-2,0,-3
1514955714617111,-3,-1,1,-2,-2,0,1,2
1514955714638122,0,-1,-2,0,-2,-1,-1,0
1514955714638122,-1,0,-2,-1,-1,-1,-2,-1
1514955714639123,0,0,-1,-2,-1,-1,-3,-2
1514955714639123,-2,-2,-1,-1,0,-1,0,-3
1514955714652134,-1,0,-1,0,-1,-3,0,-2
1514955714652134,-1,-1,-1,-1,-2,-3,-1,-2
1514955714661145,-2,-1,-1,-1,-1,0,-1,-2
1514955714661145,-2,-2,-1,-1,0,-1,-1,-3
1514955714675148,-1,-1,-2,-1,0,0,-3,2
1514955714675148,0,-2,-1,-1,-2,-2,-1,-1
1514955714677149,-3,-1,-3,-1,-3,-1,-1,-4
1514955714677149,0,-2,-3,-2,0,-2,-2,-1
1514955714699166,-3,-3,-1,-1,-1,-1,1,1
1514955714699166,-1,1,-1,-1,-1,-1,2,-1
1514955714700172,1,-1,1,-1,2,-1,0,0
1514955714700172,1,-2,-2,-2,-1,-1,-1,-1
1514955714720180,0,0,-1,-1,-1,-2,-3,-1
1514955714720180,-2,-4,-2,0,-1,-1,-3,0
1514955714722181,-1,0,-1,-1,-2,-1,0,0
1514955714722181,-2,0,-1,-2,-1,-1,0,-3
1514955714735190,-3,-2,-2,-2,-1,-2,0,-1
1514955714735190,-2,-2,1,-1,-1,1,-1,0
1514955714737196,-1,-2,-1,-1,0,-2,-1,-1
1514955714737196,0,0,0,0,-1,-1,-1,-2
1514955714758206,-2,-1,0,-1,-2,-1,0,-3
1514955714758206,-1,1,-2,-1,0,-1,-1,-1
1514955714759207,0,-2,-2,0,-1,0,0,-2
1514955714759207,-1,1,-3,-1,-3,-1,0,0
1514955714781224,-2,-2,0,0,-2,-1,-2,0
1514955714781224,-1,0,1,0,1,-2,-1,-1
1514955714783228,-1,0,0,-1,-1,-2,-2,-1
1514955714783228,-1,-2,-1,-1,-1,-1,0,-2
1514955714795233,1,0,-1,0,-1,1,-1,0
1514955714795233,-2,-2,-2,-1,-2,-1,1,-4
1514955714797234,-2,-2,-2,1,-1,0,-2,-2
1514955714797234,-2,-1,1,-1,0,-2,-1,-1
1514955714819253,-2,-1,-2,-1,0,0,-2,-1
1514955714819253,0,-2,-1,-1,0,0,0,0
1514955714820255,0,0,-2,-1,-2,-2,-1,-2
1514955714820255,-1,0,0,0,-1,0,-1,-1
1514955714840267,-1,0,-1,-3,-1,-2,0,-2
1514955714840267,1,-2,-1,-2,-1,-3,0,0
1514955714842267,0,-1,-1,-1,1,-3,-1,1
1514955714842267,-1,-2,-1,-1,0,-1,-2,0
1514955714855276,-2,-1,-2,-1,-1,0,0,-4
1514955714855276,0,-1,-2,0,-1,0,-2,0
1514955714857276,0,-1,0,-1,0,-2,2,0
1514955714857276,-3,-2,-3,0,-1,-2,-2,0
1514955714877292,1,0,-2,0,-1,-2,-1,2
1514955714877292,-3,-1,-1,-1,-1,-2,-1,-1
1514955714886299,-1,-1,0,-1,-2,0,-1,-2
1514955714886299,-3,0,-2,-1,-1,0,1,-2
1514955714900309,-1,-2,1,0,0,1,-1,-1
1514955714900309,0,-1,-1,-1,-2,0,-2,-2
1514955714902318,-1,0,-1,-3,-1,-2,-1,1
1514955714902318,-1,-2,-1,-1,-2,-1,0,-2
1514955714915320,1,-1,-2,-3,0,-2,0,-2
1514955714915320,0,0,0,-1,-1,-1,-2,-1
1514955714921322,-1,-1,0,0,-1,0,-1,-3
1514955714921322,1,0,0,-1,0,-1,-2,0
1514955714937333,-2,-1,-1,-1,-1,-1,-3,-2
1514955714937333,-1,1,-1,-3,0,-1,-1,1
1514955714946341,-2,-2,-2,0,-1,0,0,-1
1514955714946341,-2,-1,0,-1,-1,-1,0,2
1514955714961350,0,-1,0,-1,-1,0,-1,-3
1514955714961350,-2,0,-2,-2,-2,-1,0,-2
1514955714962350,-1,-2,-2,-1,0,-1,-1,-2
1514955714962350,1,-2,0,0,-3,1,-1,-3
1514955714974360,0,-1,0,-3,-2,-2,0,0
1514955714974360,-1,-2,-2,-1,-1,-2,-2,-1
1514955714982370,-1,0,-1,-4,-2,0,0,0
1514955714982370,0,-1,-1,-2,-1,-1,1,-1
1514955714998377,-3,-2,-2,0,0,2,-1,-1
1514955714998377,-1,0,0,-1,1,0,0,-2
1514955714999379,-2,-1,0,-3,-2,1,-5,0
1514955714999379,-1,0,-2,-2,-2,0,0,-1
1514955715021392,-1,2,-2,0,-2,-1,-3,0
1514955715021392,1,0,-1,0,-2,-1,0,-2
1514955715023393,-2,-1,-2,0,0,-2,1,0
1514955715023393,-2,-1,1,-1,0,-3,-2,0
1514955715034401,-1,-3,0,0,-1,-3,-1,-2
1514955715034401,-2,-1,1,0,-1,0,-1,-1
1514955715041406,-1,-1,-1,-1,-1,-1,1,1
1514955715041406,-1,-1,-1,0,-2,-2,-1,-2
1514955715058418,-2,-1,-2,0,-1,0,-1,0
1514955715058418,1,-2,-1,-2,-3,0,-2,-3
1514955715062421,0,-2,0,1,-1,0,-2,-2
1514955715062421,-1,-2,-3,0,0,-1,-2,0
1514955715080435,-2,-1,0,-4,-2,-2,-1,-2
1514955715080435,0,-3,-1,-2,0,-1,-1,-3
1514955715083436,-1,0,1,1,-1,0,-2,-1
1514955715083436,-1,-1,-1,-2,-2,-2,-2,-1
1514955715094571,1,-2,-1,-2,-1,-2,-2,-1
1514955715094571,-3,0,-1,-1,-2,-1,-1,2
1514955715101519,-3,-2,-2,-1,-2,-3,-2,-2
1514955715101519,-1,-1,-2,-1,-1,0,0,-2
1514955715117540,0,0,-1,-1,-1,-1,0,1
1514955715117540,-2,-1,0,-2,0,-2,-1,-1
1514955715119541,0,-1,-1,-1,-1,-1,-3,-2
1514955715119541,-3,-3,-2,-1,0,-1,-1,0
1514955715140570,0,-1,0,-1,-1,-2,1,0
1514955715140570,0,-1,-2,1,-2,-1,0,-1
1514955715141570,0,0,-1,-1,0,0,-2,-1
1514955715141570,1,-1,0,-1,-2,0,-2,-2
1514955715154563,-1,0,-2,-1,0,1,-3,-1
1514955715154563,-1,-2,-2,-1,-2,-2,-1,0
1514955715162560,0,0,-2,0,0,-1,0,-2
1514955715162560,-2,1,-1,-3,-1,-2,-3,-1
1514955715177572,-2,-1,-2,-2,-1,-1,-1,-2
1514955715177572,0,0,1,-1,-1,0,0,0
1514955715179571,0,-2,-1,-1,-1,-3,0,0
1514955715179571,-2,-1,-1,-1,0,-2,1,0
1514955715200599,-3,-1,-1,-1,1,-1,1,-1
1514955715200599,-1,-1,-1,-2,0,-3,-2,-2
1514955715201604,1,-3,-1,-1,0,-2,1,-1
1514955715201604,-1,-1,0,0,-2,-1,0,-2
1514955715214607,0,-2,0,-1,-2,-3,-2,-3
1514955715214607,-2,-1,-1,0,0,-2,-2,0
1514955715224613,-1,0,-2,-1,-3,-1,-2,-1
1514955715224613,1,-1,-2,0,-1,1,-2,-1
1514955715238654,-2,0,-2,1,-2,-1,0,1
1514955715238654,-2,0,-2,-1,-1,-1,-1,-1
1514955715239631,-1,-1,0,-1,-3,-1,1,-1
1514955715239631,-1,1,-1,0,-2,-3,-2,0
1514955715260654,-1,-2,-1,0,0,-1,-2,-1
1514955715260654,-1,-1,0,-2,0,0,1,0
1514955715261653,-1,-2,-1,-3,0,0,-1,0
1514955715261653,-1,-1,-2,0,0,0,-1,-2
1514955715274655,0,-2,0,0,1,0,-1,-2
1514955715274655,-1,0,-2,-1,-2,-2,-2,-2
1514955715282645,0,-2,-2,-1,-1,-2,-1,-1
1514955715282645,-2,-1,0,-2,0,-3,0,-2
1514955715297666,-1,-3,0,-1,0,-1,0,1
1514955715297666,0,-1,-1,-1,0,-3,-1,-3
1514955715299658,-1,-1,-2,-2,-1,-1,-1,-2
1514955715299658,1,-1,0,-1,-2,-1,-2,1
1514955715320672,0,-1,-1,-2,-3,-2,0,1
1514955715320672,-2,-2,-2,0,0,0,-1,-1
1514955715321689,-2,0,-2,0,-1,-1,-3,-1
1514955715321689,0,-1,-1,-1,1,-1,-2,-1
1514955715335683,0,-1,-1,-1,0,-1,0,-1
1514955715335683,-1,1,-1,-2,-2,-1,0,-2
1514955715342751,-1,-1,-1,-1,-1,-1,-2,0
1514955715342751,-1,-2,0,-1,0,-1,1,-4
1514955715357800,-2,0,0,0,-1,0,0,-2
1514955715357800,-2,-3,-2,1,-1,1,0,0
1514955715359803,-2,0,-2,0,-2,-1,-2,-3
1514955715359803,-1,-1,-2,-1,-2,0,-3,-1
1514955715379798,-1,0,0,-1,-1,-2,-2,0
1514955715379798,-2,-1,-3,0,-1,-1,-1,-2
1514955715381795,-1,-2,0,-2,0,0,0,-1
1514955715381795,-2,0,-1,-1,-1,-1,-1,-1
1514955715393849,-2,0,-1,-1,-1,0,2,-2
1514955715393849,0,-2,-2,0,-2,-1,-3,-2
1514955715402814,-1,-2,-1,-2,-1,-2,0,-1
1514955715402814,-2,-2,-2,-2,-1,-2,-1,-2
1514955715417840,-1,-2,-2,-1,0,-1,-2,-1
1514955715417840,0,0,0,-2,-1,-1,-1,2
1514955715419841,-1,0,0,-2,-1,-1,1,-2
1514955715419841,-1,-1,-1,-1,-1,-1,-3,-1
1514955715440852,-2,-1,-2,-1,-2,-2,-1,-2
1514955715440852,-1,-1,-2,0,-1,-3,-1,-2
1514955715442859,-2,1,-3,0,-1,-1,-1,-2
1514955715442859,-2,0,1,-1,-1,-1,0,0
1514955715453847,2,0,-2,-1,-2,0,-1,1
1514955715453847,0,-1,0,-1,0,0,1,-2
1514955715462853,1,-3,-1,0,-1,0,0,-1
1514955715462853,-1,0,-1,-1,-1,-1,-1,0
1514955715477864,-1,0,0,-2,-1,-1,-1,-1
1514955715477864,-3,-1,-1,-2,-1,-2,-1,0
1514955715479865,-4,-1,-1,-2,-1,-2,-1,0
1514955715479865,-1,-1,-2,-1,-2,-1,-3,0
1514955715500894,-3,-2,-1,-1,0,-3,-2,-2
1514955715500894,-1,0,-1,0,-2,-2,-1,-2
1514955715503885,-2,-2,-2,-2,0,0,-1,-2
1514955715503885,-1,-1,-2,0,-1,-1,0,-1
1514955715513890,0,-1,-1,-1,-1,-1,0,3
1514955715513890,-1,-2,-1,0,-1,-1,-1,0
1514955715522897,-1,-1,1,-1,-3,-1,-1,-2
1514955715522897,1,-2,0,-2,-1,1,-1,-1
1514955715538910,-2,0,-2,-1,0,-2,0,-2
1514955715538910,-2,-1,0,-1,-2,-2,-2,0
1514955715542911,2,0,-1,-1,1,0,0,-2
1514955715542911,-2,0,-2,-1,-3,-1,1,-1
1514955715559923,1,-1,-1,-2,-1,-1,-3,-2
1514955715559923,-3,0,-1,-1,0,-1,-3,0
1514955715561924,-2,1,1,1,-1,0,-2,-1
1514955715561924,-1,-1,-2,-1,-2,-2,-1,0
1514955715574944,-2,0,0,-1,0,0,0,-1
1514955715574944,0,-1,-1,0,-1,-1,-1,0
1514955715582939,1,-2,-1,-2,-1,-1,-1,0
1514955715582939,-1,-2,-2,-1,0,-2,-1,-1
1514955715597952,-2,0,-1,0,-3,-1,0,0
1514955715597952,-1,-1,0,-1,-1,0,-1,-2
1514955715599950,-2,-1,0,-2,-1,0,-1,0
1514955715599950,0,-1,0,-1,-1,0,0,-1
1514955715619964,-1,-1,-3,-2,-2,-1,0,0
1514955715619964,0,-1,0,-1,-2,-1,2,-2
1514955715621966,-1,-1,-2,1,-4,-2,-1,-1
1514955715621966,-3,1,1,-1,-2,1,-2,-2
1514955715633982,1,-1,-1,-2,-2,-1,-2,-2
1514955715633982,-1,-2,0,-1,-1,0,0,-2
1514955715642980,-1,-2,-2,-3,0,0,-1,-3
1514955715642980,0,0,-1,0,-1,-1,-2,-1
1514955715657992,-2,0,-2,-1,-1,-1,-1,-1
1514955715657992,2,-1,0,-2,0,-2,-1,-1
1514955715660003,-2,-1,0,-1,-1,-2,-2,-2
1514955715660003,0,-3,0,-1,-1,0,-2,0
1514955715680007,-3,-2,0,-2,0,-1,0,-1
1514955715680007,1,0,-1,-2,0,-1,-1,-1
1514955715682008,-1,0,-2,1,-1,1,1,2
1514955715682008,-3,-2,-2,0,-2,-1,0,-1
1514955715703035,-1,-1,0,1,-2,-1,-3,-2
1514955715703035,-1,-1,-1,-2,-2,-1,1,0
1514955715704036,1,-4,-1,-2,-2,-4,-3,-2
1514955715704036,1,0,-1,-2,1,-1,1,-4
1514955715718033,-2,-2,-3,-2,-1,-1,-3,-1
1514955715718033,-1,-1,-1,-2,-2,0,-1,-2
1514955715719034,-3,0,0,-1,-2,-2,-2,-1
1514955715719034,-2,0,-1,-1,-2,-1,-2,0
1514955715740050,1,-1,0,-1,1,-2,0,-2
1514955715740050,-3,-1,-3,-1,-2,-2,1,-1
1514955715742051,0,-1,-2,0,1,0,1,0
1514955715742051,-1,-2,0,-1,-1,-1,-1,-2
1514955715763066,0,0,0,0,-1,0,0,-3
1514955715763066,0,-1,-1,-1,-2,0,-1,-4
1514955715764067,-1,-2,-2,-1,0,-2,-1,0
1514955715764067,-2,-1,-2,0,-1,0,-2,0
1514955715778076,0,-1,0,-2,-1,-2,-2,0
1514955715778076,-1,1,0,-2,-1,-1,-2,-3
1514955715779077,-1,0,0,-1,-2,1,-1,-2
1514955715779077,0,-1,-1,-2,1,-1,-1,-4
1514955715800092,-3,-2,-1,-1,-1,0,-2,-2
1514955715800092,1,-1,-2,1,-3,-1,-2,-1
1514955715802103,-1,0,-1,-3,-2,-1,-1,-2
1514955715802103,0,-2,-3,0,-2,-3,-1,-1
1514955715823108,-2,-2,-3,0,-1,-2,-1,0
1514955715823108,-3,-1,-1,-1,-1,-1,-1,0
1514955715826122,-1,-2,-1,-1,-2,-1,-2,-3
1514955715826122,1,-1,-2,-3,-2,-1,-1,0
1514955715837118,1,0,-2,-2,0,-3,-2,0
1514955715837118,0,0,-1,0,2,-1,-1,1
1514955715844134,-2,-2,-1,-1,-1,-1,1,-2
1514955715844134,-2,-1,-1,0,-1,-3,1,-1
1514955715860148,-1,-1,-1,-2,0,-2,0,-2
1514955715860148,-1,-1,-1,-2,-1,-1,-1,-1
1514955715862145,-1,0,1,2,-1,-1,-2,-2
1514955715862145,0,-2,-1,-1,1,0,-2,-1
1514955715883150,-1,0,0,-1,-2,0,-1,0
1514955715883150,-2,0,-2,-2,1,-1,-2,1
1514955715884153,-3,-2,-3,-2,0,-1,1,0
1514955715884153,0,-1,0,-1,-2,0,0,0
1514955715898163,-2,-1,0,0,-2,0,1,1
1514955715898163,-3,-2,0,-3,-1,0,-1,-1
1514955715904165,1,0,0,-2,-2,-2,-4,-1
1514955715904165,-1,0,-2,-1,-2,-2,-1,-1
1514955715920177,0,-2,0,0,-2,0,-2,-1
1514955715920177,-2,-1,1,0,0,-1,0,-3
1514955715923191,0,-1,-2,-2,-1,-1,-3,1
1514955715923191,-2,-1,-2,0,0,-1,-2,0
1514955715943221,-1,0,-2,-2,0,0,-1,-1
1514955715943221,-1,-1,0,0,-1,0,-2,0
1514955715944194,-1,-1,-2,-1,0,0,0,0
1514955715944194,0,-1,-2,-1,0,0,-3,-1
1514955715957214,-2,-2,0,-1,0,-1,-2,-3
1514955715957214,-1,-1,-2,-1,-1,-1,-1,-2
1514955715964208,0,-1,-2,-1,-1,-1,0,-3
1514955715964208,-2,-1,0,-1,-1,0,-1,1
1514955715981222,-3,-1,-2,-2,0,-2,0,0
1514955715981222,-1,-1,-2,0,-1,-2,-1,-1
1514955715985225,1,0,-2,-1,-1,0,-1,-2
1514955715985225,-2,-1,-2,0,-1,-1,1,-2
1514955716003266,-1,1,-1,-1,-2,-1,-1,0
1514955716003266,-1,-1,0,-1,-2,-1,-1,0
1514955716004266,-2,-1,1,0,0,-2,-2,-1
1514955716004266,-1,-2,-2,-1,1,-1,-2,-2
1514955716017275,-2,-1,-2,-2,-1,-1,-1,-1
1514955716017275,0,-1,-1,-2,-1,-1,1,0
1514955716024284,-2,-1,-2,0,-2,0,-1,-1
1514955716024284,-3,-2,-1,-3,0,-1,0,0
1514955716040312,-2,-2,-3,0,-1,0,-4,-2
1514955716040312,-2,-1,-1,-1,-2,1,-1,-2
1514955716042297,-3,-1,-1,-1,-3,0,0,-1
1514955716042297,0,0,-1,-2,-1,-2,-1,-2
1514955716070316,0,-2,-2,0,-1,-2,0,0
1514955716070316,-3,-1,-2,0,1,0,-1,0
1514955716072317,-1,-1,-1,-1,-1,-1,-1,0
1514955716072317,0,0,0,-1,-2,-1,-1,0
1514955716077320,0,-2,0,-1,-1,1,0,-3
1514955716077320,-2,-1,-1,-1,0,-2,-2,-2
1514955716084323,-2,-1,0,0,1,0,-1,-1
1514955716084323,-2,-2,-2,-1,-1,-1,-2,0
1514955716101337,-1,-1,-2,-2,-2,-1,0,-1
1514955716101337,1,-1,-1,-1,-1,-1,0,-1
1514955716104339,-1,-2,-2,0,-1,0,-1,-3
1514955716104339,-2,-1,0,-1,-2,0,-5,0
1514955716123360,0,0,-1,0,-1,-1,-1,-2
1514955716123360,-1,-2,-2,0,-3,-2,-1,-2
1514955716125353,-2,-1,0,-2,-1,0,0,0
1514955716125353,0,-1,-2,0,-1,-1,2,-1
1514955716137361,-1,-2,-3,-1,0,-2,0,-3
1514955716137361,-1,0,0,-1,-2,0,-1,-1
1514955716144380,2,0,-2,-2,-2,-1,-1,-4
1514955716144380,-1,-2,-1,0,-2,0,0,-1
1514955716160436,-2,-1,0,1,-1,2,-2,-2
1514955716160436,0,-2,-2,-1,-1,-2,0,-1
1514955716162401,-2,-2,-1,-2,-2,-1,1,-2
1514955716162401,0,-2,-2,-1,-2,-1,-1,-1
1514955716183395,-2,0,0,-2,-2,-1,-1,-1
1514955716183395,-3,-2,-2,0,-1,-1,-1,-3
1514955716184394,-2,-2,-1,-1,-1,-1,-2,1
1514955716184394,0,-1,-2,-2,0,-2,-1,-3
1514955716196459,-3,-1,-1,-1,0,0,0,1
1514955716196459,0,-1,-1,-1,-1,0,-1,-3
1514955716205427,1,-1,0,1,-1,-1,1,0
1514955716205427,-1,-1,-3,0,0,0,0,-1
1514955716220420,-3,-1,1,-2,-2,-1,-1,-2
1514955716220420,-1,0,-1,-1,1,1,-1,0
1514955716223436,-2,-2,-2,0,-1,-1,-2,0
1514955716223436,-1,-3,0,-1,-2,0,-2,-1
1514955716243450,-1,-1,-2,0,-1,-2,-1,-2
1514955716243450,-2,-2,-2,-1,0,0,-1,0
1514955716244452,1,0,-2,-1,-1,-1,-1,-2
1514955716244452,-1,0,-1,-1,-1,0,-2,-2
1514955716256457,2,-1,-2,1,1,-3,0,-1
1514955716256457,-1,-2,-1,-2,-1,-1,0,-1
1514955716273457,-1,1,0,-1,0,-1,-2,-1
1514955716273457,-2,-2,0,0,1,0,-2,1
1514955716280462,0,-2,-2,-1,-2,-1,1,-1
1514955716280462,-2,-1,-3,-1,-1,-3,-1,-1
1514955716282466,-1,-1,0,-1,-1,-1,-1,0
1514955716282466,-2,0,1,-2,-2,-1,-1,-1
1514955716302492,3,-1,0,-4,0,1,-1,0
1514955716302492,0,0,-2,-2,-1,-1,0,0
1514955716304488,-4,-1,0,0,-1,0,-2,-1
1514955716304488,-1,-2,-3,0,-4,-2,-2,1
1514955716316488,-4,-2,-2,0,-1,-1,-1,-2
1514955716316488,-2,-2,-2,-1,-2,-1,0,0
1514955716325493,0,-2,-1,-2,-1,-2,0,0
1514955716325493,0,0,-1,-1,-1,-2,-2,-1
1514955716341514,-2,-2,-1,0,-2,-2,0,1
1514955716341514,0,-1,-2,-1,0,-1,0,-2
1514955716344507,-3,-1,-2,-1,0,-1,0,-1
1514955716344507,-1,-1,-1,-2,-1,-1,1,0
1514955716362532,-1,-1,-1,-2,-1,0,1,-2
1514955716362532,-1,-2,0,0,-1,-2,0,-2
1514955716365524,1,-2,0,-1,-2,-1,-2,1
1514955716365524,0,-1,-1,-1,0,-1,-1,-1
1514955716376542,-3,1,-1,0,0,0,-2,-3
1514955716376542,-1,0,2,-1,-2,-2,-2,-3
1514955716385539,0,-1,0,0,-1,1,-3,0
1514955716385539,0,-1,-1,-1,-1,-1,0,2
1514955716400556,0,-1,-3,1,0,0,-3,-1
1514955716400556,1,-2,-2,-1,1,-1,1,1
1514955716402548,-2,0,-2,-1,-1,-2,0,-3
1514955716402548,0,-1,-2,-2,-1,0,-2,-1
1514955716423562,-1,-2,-1,-2,0,-1,-1,0
1514955716423562,0,1,0,-1,-2,-1,-1,-1
1514955716427580,-1,-1,-2,0,-1,0,-1,-2
1514955716427580,-2,-1,-1,-2,-1,-1,-1,-3
1514955716436572,-1,-2,-1,-1,0,-1,1,0
1514955716436572,-2,-1,-2,-1,0,0,-1,-2
1514955716445591,-2,0,0,-1,-1,-1,-1,0
1514955716445591,-1,-1,-1,-1,-1,-2,-2,1
1514955716460601,-3,-2,-1,-3,-2,0,-1,1
1514955716460601,-2,-3,-1,-1,-2,-1,1,-1
1514955716461590,0,-2,-2,-1,-2,-2,2,-2
1514955716461590,-1,-2,-3,-1,-2,-1,1,-2
1514955716483605,-2,1,0,1,0,0,-3,-2
1514955716483605,-1,-1,-1,-2,-2,1,0,-1
1514955716487609,-1,0,-1,0,-1,-1,-1,-1
1514955716487609,0,0,-1,0,0,-1,-3,0
1514955716496616,-1,-3,0,-1,-3,-2,2,-1
1514955716496616,-1,-2,-2,-1,-1,-1,-3,0
1514955716505621,-2,0,-2,-1,1,0,-2,0
1514955716505621,-1,-1,-2,-2,0,1,1,-2
1514955716520631,-2,0,-1,-2,0,-3,-2,-2
1514955716520631,-2,-1,-1,0,0,-1,1,-1
1514955716521632,-1,-3,-1,-2,-1,0,-1,0
1514955716521632,-1,0,-2,1,-2,0,-2,-1
1514955716541673,0,-1,-1,-2,-2,-2,1,-1
1514955716541673,-2,0,0,-1,-3,-3,-3,-3
1514955716550653,-1,-1,-1,0,-1,-1,-1,-2
1514955716550653,0,-1,0,0,-1,-2,-1,-1
1514955716556670,0,0,-2,0,-2,-1,-2,-2
1514955716556670,-1,-1,-1,-2,-1,-1,0,1
1514955716565665,-1,-3,0,-1,-3,-2,0,-2
1514955716565665,-2,0,0,-2,-1,-2,-1,-1
1514955716580688,0,0,-1,-1,-1,-2,-2,1
1514955716580688,-1,-1,-2,0,0,-1,-1,-1
1514955716583675,-1,1,-1,-2,0,0,-1,-4
1514955716583675,0,-2,-3,-2,1,-1,-2,-1
1514955716610696,-1,-3,-3,0,0,0,0,-1
1514955716610696,-1,-2,-1,-1,-1,-1,1,0
1514955716611701,0,-1,-2,-2,0,-1,0,1
1514955716611701,0,0,1,0,-1,-2,-1,0
1514955716626710,0,-2,0,-2,-1,-2,-2,2
1514955716626710,0,-1,-2,-1,-1,-2,-1,-3
1514955716629716,-2,-1,-3,-2,-1,1,-1,-2
1514955716629716,-2,-1,-1,0,-2,0,-1,-1
1514955716640745,-2,-3,-1,-1,-2,-1,-1,-1
1514955716640745,-1,-1,-1,-1,0,-2,-1,-2
1514955716641770,1,0,-1,-1,-1,-1,-1,-1
1514955716641770,-2,-1,-1,-1,0,-2,0,-2
1514955716662790,-1,0,-1,-1,-1,-2,-1,-1
1514955716662790,-1,-1,0,-2,-1,0,-3,-1
1514955716664747,-1,-1,-1,-2,-2,-1,1,-3
1514955716664747,-1,-2,-1,-2,0,-1,-1,-1
1514955716685751,-1,-1,-2,0,-1,-2,-3,-2
1514955716685751,-1,-2,0,-1,-1,1,-1,0
1514955716686752,-1,0,-1,-1,-2,-1,-2,2
1514955716686752,0,-1,-1,0,-1,-1,-1,0
1514955716700779,-1,0,0,0,-1,1,-1,-1
1514955716700779,-2,-1,-1,-1,-1,0,-3,-2
1514955716701760,-2,-3,0,0,-2,-2,-1,-4
1514955716701760,-1,-2,-1,-2,-1,-2,0,-1
1514955716722800,-1,0,-1,-1,-1,-1,-1,0
1514955716722800,-1,0,-3,-1,-1,0,0,-1
1514955716724780,-2,-1,-1,0,-2,-3,0,-2
1514955716724780,0,-3,0,-1,-3,-2,-2,-1
1514955716745790,-1,-3,0,1,1,-2,-1,-1
1514955716745790,-3,0,-1,0,-1,-1,0,0
1514955716746791,-1,-1,-3,-3,-1,0,-1,-3
1514955716746791,-2,-1,-3,-1,-1,-2,-1,-2
1514955716759816,2,0,-2,-2,-2,-1,-1,-1
1514955716759816,0,-3,-1,0,-1,-1,-1,0
1514955716774811,0,-1,-1,-1,-1,-2,-1,0
1514955716774811,-1,-1,-1,-2,0,1,0,-3
1514955716782817,0,-1,-2,-1,-1,0,0,1
1514955716782817,-2,-1,-1,0,-1,-1,-1,-2
1514955716784819,-2,0,-1,-1,-2,0,-1,0
1514955716784819,-1,-1,-1,1,-1,-1,-1,0
1514955716806844,-1,0,-3,-2,0,-1,-2,-2
1514955716806844,0,-1,1,-1,-1,-1,-1,-1
1514955716808835,-1,-1,-2,0,-1,0,-1,-1
1514955716808835,-1,0,0,-2,0,0,-1,-1
1514955716819855,-1,-3,-2,-2,-1,-3,-1,-2
1514955716819855,1,-2,-2,-2,0,-2,0,-1
1514955716826857,-2,-1,-1,-2,-1,-1,-1,0
1514955716826857,1,-1,0,-1,-2,0,-2,1
1514955716843860,-1,0,-1,-1,-2,-1,1,-2
1514955716843860,-2,-2,-2,-2,-1,0,0,-2
