timestamp,emg1,emg2,emg3,emg4,emg5,emg6,emg7,emg8
1514960479982455,0,0,-1,0,0,0,0,-1
1514960479982455,-2,-1,0,-1,-2,-1,-2,-2
1514960479984447,1,-1,0,-1,1,-1,2,-1
1514960479984447,-2,-1,-2,-1,-1,-1,-1,-4
1514960479984447,-3,1,-1,0,-1,-2,-2,-2
1514960479984447,-1,-1,-2,-1,0,-2,-1,-2
1514960479989452,-1,-1,-1,-1,0,0,-1,-1
1514960479989452,-1,-1,-1,-1,-2,0,-2,-1
1514960480004461,-1,-1,0,-1,0,-1,0,-1
1514960480004461,0,-1,-1,0,0,-1,-3,1
1514960480005461,-2,-2,0,-1,-1,0,-2,-1
1514960480005461,-1,-1,-1,-1,0,-2,1,-1
1514960480034486,-1,-1,-1,-2,-2,-1,0,-2
1514960480034486,-1,-2,0,-1,0,0,0,-1
1514960480035489,-2,-2,-2,-1,-3,-1,-2,-2
1514960480035489,-1,-1,1,-1,-1,-2,-1,1
1514960480040489,0,-1,-2,-1,-1,-1,0,-2
1514960480040489,-2,0,0,-2,-1,-1,-3,-2
1514960480049492,1,-2,-1,0,0,-2,0,-1
1514960480049492,-3,-1,-2,-2,-2,-1,-2,0
1514960480064502,0,-2,-3,0,0,0,1,0
1514960480064502,-2,0,-2,-2,-1,-2,-2,-2
1514960480065504,-2,-1,-2,-1,-1,-1,-2,-1
1514960480065504,0,0,-2,0,0,0,-1,-1
1514960480086561,-1,-1,2,-1,0,-1,-2,0
1514960480086561,-2,-2,-2,-1,-3,-2,-1,0
1514960480088523,-2,-1,-1,-1,-2,-3,0,-1
1514960480088523,-1,1,-2,-1,-1,-1,-2,-1
1514960480100541,0,-1,-1,0,-2,-1,-1,0
1514960480100541,1,-1,1,-1,1,-1,1,-3
1514960480109536,-1,0,-2,-1,-1,-1,-1,-3
1514960480109536,0,0,-1,-2,-1,-1,1,-1
1514960480124558,-3,-1,-3,-2,1,-1,-2,0
1514960480124558,1,-2,0,-1,-2,1,0,0
1514960480125546,-1,0,0,0,1,-1,-1,0
1514960480125546,0,-2,-1,-1,-1,0,-2,-4
1514960480146628,-1,1,-1,0,-2,-1,-1,-3
1514960480146628,-2,-1,0,-1,-2,-1,0,-1
1514960480148617,-1,-1,-2,-2,-1,-1,-1,0
1514960480148617,-1,-1,0,-1,0,-1,0,-2
1514960480160625,-3,-2,0,-2,-1,0,-2,-3
1514960480160625,0,-1,-2,0,0,-2,-1,-1
1514960480169631,-1,-1,-2,-1,-1,0,0,-1
1514960480169631,-2,-3,-2,0,-2,-1,-2,-2
1514960480183635,-1,-2,-2,-1,-4,-1,-2,-1
1514960480183635,-2,0,-1,-2,0,1,-2,0
1514960480185634,-2,0,0,-1,-1,0,-2,-2
1514960480185634,1,0,-1,-1,2,-2,-1,-1
1514960480206649,-2,-1,-2,-2,-1,-3,-1,-1
1514960480206649,0,0,0,-1,-1,1,-3,0
1514960480208662,-1,0,0,-1,-1,-1,-2,0
1514960480208662,1,-1,-1,0,-1,0,0,-2
1514960480229678,-1,-2,1,0,-1,0,0,-4
1514960480229678,1,-1,-1,-1,-2,-2,0,-1
1514960480230666,-2,1,-2,-2,-1,-2,-1,0
1514960480230666,-3,-2,-1,0,-2,-1,-2,1
1514960480251682,-1,-2,-1,0,-1,0,-2,-1
1514960480251682,-1,-1,-2,-1,0,0,0,0
1514960480253683,-1,-3,0,0,0,0,0,-1
1514960480253683,0,0,-2,-1,-1,-2,-1,-1
1514960480266691,-1,-1,-2,0,-1,-1,-1,-1
1514960480266691,-1,-2,-1,0,0,-2,0,-2
1514960480268694,-1,-2,-1,-3,-1,-1,-1,-1
1514960480268694,-2,-1,-1,-2,1,-1,-2,0
1514960480289727,-1,-1,-1,-1,-2,-1,-1,-1
1514960480289727,1,-1,-1,-1,-1,-1,-2,0
1514960480290708,0,0,0,1,-1,-1,-1,-1
1514960480290708,-2,-2,-1,-2,-1,-2,-1,-1
1514960480304718,-1,0,-2,-2,-1,-2,-1,2
1514960480304718,-3,-1,-2,-1,0,-3,0,-3
1514960480305718,-1,-2,0,0,-2,0,-1,0
1514960480305718,-2,-1,-1,-1,-3,0,-3,-1
1514960480326768,2,0,-1,-1,-1,-3,0,0
1514960480326768,-1,-1,-2,-2,-2,2,-2,1
1514960480327744,1,0,-3,-1,-2,-2,-2,-1
1514960480327744,-3,-1,0,-2,0,-1,-1,-3
1514960480348795,-2,-2,-1,-1,0,-3,-1,0
1514960480348795,-2,-1,1,-1,-1,-1,1,-2
1514960480350785,-2,-1,0,-1,-2,-3,-1,-2
1514960480350785,2,0,-1,-1,-1,1,-2,-2
1514960480364815,-2,-1,-1,-1,-1,1,-1,0
1514960480364815,0,2,-2,0,-2,-3,1,-1
1514960480365817,-1,-1,-2,-1,-1,0,-2,0
1514960480365817,-1,0,1,-2,-1,-3,1,-2
1514960480386866,0,-2,-1,-1,-1,-1,-3,-2
1514960480386866,-1,-1,-3,-2,0,-2,0,-1
1514960480387810,0,-2,-1,-2,-2,-1,-1,1
1514960480387810,0,0,-2,-1,-2,-2,1,0
1514960480425858,0,0,-1,-1,-1,-2,-2,-1
1514960480425858,-1,-2,0,0,-4,1,-3,-1
1514960480426847,-2,-2,-2,-1,-1,-2,-2,-2
1514960480426847,0,-1,-1,0,0,-3,-1,-1
1514960480427838,-2,-2,0,1,-1,1,-1,0
1514960480427838,-1,1,1,-1,-1,1,-1,0
1514960480431840,-2,-2,-2,-2,-3,-1,0,0
1514960480431840,-2,-1,-1,0,-1,-1,0,1
1514960480446864,-2,0,-3,-2,-1,-1,-2,-2
1514960480446864,0,-3,-1,0,0,-1,-2,-2
1514960480447865,-1,-1,-1,-1,0,-1,0,-3
1514960480447865,-1,-2,-2,-2,-2,-2,-2,0
1514960480476875,-3,0,0,-1,0,-2,2,-1
1514960480476875,0,0,0,-1,-1,-1,-2,1
1514960480477872,-2,-3,0,-1,0,-2,-3,-1
1514960480477872,0,-1,-1,-1,0,-1,0,-1
1514960480483878,-1,-1,0,0,-2,-1,-2,-1
1514960480483878,1,0,-1,-1,0,-2,0,-1
1514960480489881,-1,-1,-2,0,-1,-3,0,-3
1514960480489881,-2,-2,-2,-2,0,0,-1,0
1514960480506905,1,-1,-2,-2,-1,-1,-1,1
1514960480506905,-2,-1,-2,-1,-4,-1,-2,-1
1514960480507897,1,1,-1,-2,-1,-1,-1,0
1514960480507897,-1,-2,-1,-1,-2,-1,0,-2
1514960480528908,0,-2,-1,-1,1,1,-1,-2
1514960480528908,-2,-1,0,-1,-1,-3,-2,0
1514960480530910,0,0,-2,0,-1,-1,-1,-2
1514960480530910,0,0,-2,0,-2,1,-2,-1
1514960480543919,-2,-1,-2,0,-1,0,0,-4
1514960480543919,-1,0,0,-1,-2,0,0,0
1514960480549923,-4,0,-2,-1,-1,-1,0,0
1514960480549923,-1,-1,-2,-2,-1,-2,-2,-2
1514960480566940,0,-1,-2,-2,0,0,-1,-2
1514960480566940,0,-1,-1,-3,1,-1,2,-1
1514960480567958,0,0,0,0,-1,1,-1,1
1514960480567958,-1,-1,0,-1,-2,-2,-3,0
1514960480589968,1,-2,-1,-1,-2,-1,-1,0
1514960480589968,-1,-2,-2,-2,-2,-1,-1,1
1514960480590965,0,-1,0,-2,-2,-1,0,0
1514960480590965,-2,-2,-1,-1,-1,-2,-1,-2
1514960480603962,-1,-3,-1,-2,-2,-2,0,-2
1514960480603962,-1,-1,-2,-1,0,-1,0,-1
1514960480609966,0,-1,1,-1,0,0,-4,-1
1514960480609966,-1,-1,-2,-1,0,-1,1,1
1514960480627040,1,1,0,-1,-1,-1,-2,2
1514960480627040,-1,-1,-2,-1,-1,-3,-2,-1
1514960480627999,-1,-1,-2,-1,0,-1,-2,-2
1514960480627999,-3,-1,-2,0,-2,0,0,-3
1514960480649013,0,-1,-3,-2,0,1,0,0
1514960480649013,1,1,-1,0,-2,-1,-1,-1
1514960480651019,1,0,-1,-2,-3,-2,-2,-2
1514960480651019,-1,1,0,0,-1,0,0,0
1514960480663023,-3,-2,-2,-3,0,-1,-2,-1
1514960480663023,-1,-1,-2,-2,-1,-1,-1,-2
1514960480670028,-1,-2,-1,-1,-2,-1,0,-3
1514960480670028,0,-1,-1,0,0,1,-1,0
1514960480702030,-2,-1,0,0,-2,-2,-1,-2
1514960480702030,-2,0,-1,-1,0,-1,0,-2
1514960480703031,-3,0,-1,-1,-2,-1,1,2
1514960480703031,-2,-1,-3,-2,-1,0,-2,-1
1514960480709037,-1,1,-2,0,-1,-2,0,-1
1514960480709037,-2,-2,0,-1,-1,-1,-1,-2
1514960480711038,-1,-2,-1,-2,-1,-1,0,-1
1514960480711038,0,0,0,-1,-2,-3,-1,-1
1514960480723051,0,0,1,0,-1,0,-4,-1
1514960480723051,-1,-1,-1,-2,0,-2,1,-2
1514960480732053,-2,0,-2,-1,-1,-2,-3,-1
1514960480732053,-2,-1,-1,-1,0,-2,1,-1
1514960480747085,1,-1,0,0,0,-1,0,0
1514960480747085,-1,0,0,0,-1,-1,0,0
1514960480753089,0,0,1,0,-1,-1,-1,-1
1514960480753089,0,-2,-1,-2,-2,-3,-2,0
1514960480769093,-4,-1,0,-1,-1,-1,0,0
1514960480769093,0,-1,0,0,0,0,-3,-1
1514960480771095,1,0,-1,0,-1,-1,0,-1
1514960480771095,-1,-1,-2,-1,0,1,-2,-3
1514960480783099,-3,0,0,0,-3,-2,1,0
1514960480783099,-2,-1,-1,-1,-2,-1,-2,0
1514960480792095,-1,-1,0,-1,-2,-1,1,0
1514960480792095,-1,-2,1,0,-2,-2,0,-1
1514960480807105,0,-2,-3,-1,-3,-1,-1,-2
1514960480807105,-2,0,-3,0,-2,-1,-1,0
1514960480808108,-2,-1,-1,0,-1,-1,0,-2
1514960480808108,-1,-2,-1,-3,-2,0,-2,-2
1514960480829135,0,0,-2,-2,-1,0,-1,-1
1514960480829135,1,-2,-3,-1,-2,0,-1,-1
1514960480831143,-1,0,-1,0,1,-2,0,-1
1514960480831143,-1,-2,-2,-2,-2,-1,-1,-1
1514960480843131,0,-1,-1,0,-2,-1,-1,-1
1514960480843131,-2,-1,0,1,-1,0,-1,-1
1514960480852142,0,-1,0,-2,0,0,-1,0
1514960480852142,0,-2,-3,-1,0,-2,-1,-1
1514960480867149,1,-1,0,-2,-1,-1,0,-1
1514960480867149,-2,-1,-2,-3,-2,-1,-1,1
1514960480868161,0,-3,-2,-1,-2,-1,-2,0
1514960480868161,-3,0,-1,0,-2,0,0,0
1514960480889165,-2,0,-1,-2,-1,-1,-1,-4
1514960480889165,-1,-3,0,-1,-1,-1,-1,-1
1514960480891170,1,0,-2,-2,-2,-1,-1,-1
1514960480891170,0,-1,-1,-1,-1,-1,0,-1
1514960480903180,-1,-2,-1,-1,0,-1,-1,-1
1514960480903180,0,-2,1,-2,-2,-1,0,0
1514960480919192,-2,0,0,-1,1,-1,-2,1
1514960480919192,-1,-1,0,-2,-1,0,-4,-1
1514960480927190,0,-1,0,-1,-2,-2,-1,0
1514960480927190,-2,0,-2,-3,-1,-3,-2,0
1514960480928194,-1,-2,-2,0,-1,0,-1,-1
1514960480928194,-2,0,-2,0,0,-2,-1,0
1514960480949207,0,-1,-1,-1,-1,-2,0,-2
1514960480949207,-1,-1,0,-1,-1,0,2,1
1514960480951209,-2,-1,-1,-2,0,0,-2,-1
1514960480951209,-2,-2,-1,0,0,0,-1,-1
1514960480971228,-1,-2,0,-1,-1,-1,-1,-1
1514960480971228,-1,-1,-1,-1,-1,-2,-2,0
1514960480979228,-2,0,-1,0,-3,-2,-2,-2
1514960480979228,0,0,-2,-2,-1,0,1,-2
1514960480987234,-2,-2,-4,-1,0,-2,1,-1
1514960480987234,0,-1,-2,0,0,0,0,0
1514960480988235,-1,1,0,-1,-2,-1,-1,-1
1514960480988235,0,0,0,0,-1,-1,-2,-2
1514960481009252,-1,-1,-1,-1,-1,0,0,-1
1514960481009252,-3,-1,-1,0,-2,-2,-2,-1
1514960481011251,-1,-1,-2,-1,-2,-1,-1,-1
1514960481011251,-1,0,0,0,-1,-2,3,-2
1514960481023259,-1,-1,0,-2,-1,-2,0,-1
1514960481023259,0,-2,-1,-2,-1,-1,-3,-1
1514960481032265,-3,-1,-1,-1,-1,-2,-2,-2
1514960481032265,1,-1,-3,0,0,-1,-2,0
1514960481046274,0,0,-2,-1,-1,-1,-2,0
1514960481046274,1,-1,-3,0,-1,-2,1,-1
1514960481048276,-2,-1,-3,-2,0,1,1,-1
1514960481048276,-2,-3,0,-1,-2,-2,-1,-4
1514960481069301,-1,-1,-2,-2,-2,-3,-2,-1
1514960481069301,1,0,0,-1,-2,0,0,-3
1514960481071295,0,-2,0,0,0,-2,1,-2
1514960481071295,-1,-1,-1,-1,-1,0,-1,1
1514960481083300,-2,-1,-1,1,-1,-1,0,-1
1514960481083300,-1,-1,-1,-1,-3,-1,-1,-3
1514960481092310,-1,0,-2,-1,-3,-4,-1,0
1514960481092310,0,-3,0,-2,-2,-1,-3,-1
1514960481107319,-1,-1,-2,1,0,0,0,-2
1514960481107319,-2,0,-2,0,-1,-2,0,-1
1514960481108319,-2,-1,-1,-2,-1,-1,-2,-1
1514960481108319,-2,-1,-1,-2,1,-1,-1,0
1514960481137344,-1,-1,-1,0,-2,-1,-3,-2
1514960481137344,-1,-1,-1,-3,-2,0,0,-1
1514960481139343,1,-1,-1,-2,0,0,-1,0
1514960481139343,0,0,0,-2,-1,-2,0,0
1514960481143347,-1,-2,1,-1,-1,-1,-2,-2
1514960481143347,-2,-1,-1,1,-1,-1,-3,-1
1514960481152352,-1,-1,-3,-2,-1,-1,0,1
1514960481152352,-2,2,-2,-2,-2,-3,0,0
1514960481166360,0,-1,-1,-2,-2,-3,1,0
1514960481166360,1,-2,-2,-1,1,1,0,0
1514960481168360,0,-3,-1,-1,-1,-2,0,-2
1514960481168360,-1,-1,0,0,-3,0,-2,-2
1514960481196380,1,0,0,-2,-2,1,0,-1
1514960481196380,-2,0,-1,-1,-1,-1,-1,0
1514960481198382,0,0,-1,-2,-3,-1,-2,0
1514960481198382,1,-2,-2,-1,0,-1,0,0
1514960481211390,-3,0,1,-2,-1,0,-3,-1
1514960481211390,1,-1,0,0,0,-1,-2,-2
1514960481213392,0,0,0,-1,0,-2,0,-3
1514960481213392,-1,-2,-1,-1,-1,-1,-1,-1
1514960481226404,-2,-1,-4,-2,-1,-1,-2,0
1514960481226404,-1,0,0,0,-1,-2,0,0
1514960481228403,0,-2,1,-1,-1,1,-2,-1
1514960481228403,-2,-2,-2,0,0,-1,-1,-1
1514960481257426,-2,-2,-1,1,0,-2,0,-1
1514960481257426,-1,-2,0,-1,-1,-3,-1,0
1514960481258427,-1,0,-2,0,0,-3,-3,-1
1514960481258427,0,-1,-1,-2,0,0,-1,-2
1514960481279438,-2,-2,-2,0,-1,0,0,-1
1514960481279438,-1,-1,-1,-1,-1,-1,-1,-2
1514960481280440,-3,-1,-1,-3,-2,-2,-1,1
1514960481280440,-2,-1,-3,-3,0,2,-2,-1
1514960481287446,-1,0,-1,1,-2,-2,-2,1
1514960481287446,-1,-2,0,-3,0,0,0,-2
1514960481288449,1,-1,-1,-1,-1,1,0,1
1514960481288449,-1,-1,-1,-1,-2,-1,-1,-2
1514960481309460,-1,-2,-1,-2,0,-1,1,-2
1514960481309460,-1,-3,-1,-1,-1,-1,-3,-1
1514960481310463,-1,-1,-2,-1,-1,-2,-1,-1
1514960481310463,-1,-2,-2,-1,-2,-1,-1,-1
1514960481331479,-1,1,-2,0,0,-1,-1,-1
1514960481331479,1,-1,-1,-1,-1,0,0,-2
1514960481333477,0,-1,-1,-1,-1,-3,-2,-2
1514960481333477,0,0,0,0,-2,-1,-1,-1
1514960481345526,-1,-2,-1,-1,-1,-1,0,-1
1514960481345526,1,-1,-1,-3,-2,-2,-1,-1
1514960481352510,-2,-1,0,-1,-2,0,0,-1
1514960481352510,-1,-1,-1,0,-1,-2,0,-1
1514960481369505,0,-1,-2,-1,-1,-2,-2,-1
1514960481369505,0,-1,-2,0,-1,-1,0,0
1514960481370503,-1,-3,0,-1,-1,1,-1,-1
1514960481370503,-1,-2,-1,-1,-2,-2,-1,-1
1514960481391540,-3,0,-1,-3,-1,1,0,-2
1514960481391540,-1,-1,-2,-1,-1,-4,0,-2
1514960481393536,-2,1,-2,2,-2,-1,-2,-1
1514960481393536,0,-2,-2,0,-1,-2,1,0
1514960481405528,-2,-3,1,0,-1,0,-1,-2
1514960481405528,-2,0,0,-3,0,-1,-3,0
1514960481412556,0,-3,-2,0,-1,-1,0,-1
1514960481412556,-2,-1,0,-1,-1,-2,-2,-1
1514960481429545,3,1,0,-2,-1,-1,-1,-1
1514960481429545,-1,-1,-1,-1,-1,-1,-1,-2
1514960481430546,1,-1,-1,-1,-1,0,0,-2
1514960481430546,-2,-2,-3,-2,0,0,1,-1
1514960481451574,0,-1,0,-2,0,-3,-1,0
1514960481451574,-3,-1,-1,-2,1,0,-2,-1
1514960481453574,-2,-2,-1,-2,0,-1,-2,0
1514960481453574,0,-1,-2,-1,-1,-1,-1,-2
1514960481474577,-1,-2,-3,-2,-2,-2,-1,0
1514960481474577,-1,-1,-2,0,-2,0,1,0
1514960481475577,-2,-1,-1,-2,0,-1,-3,0
1514960481475577,0,0,-1,-1,0,0,-1,-1
1514960481488662,0,-2,-1,0,-2,-1,0,-3
1514960481488662,0,-1,0,1,-1,0,0,-2
1514960481490641,-1,-3,-2,-1,-2,1,0,-2
1514960481490641,-3,-1,0,-1,1,0,-2,-1
1514960481511655,-1,-1,-3,0,0,-2,-1,1
1514960481511655,-2,-2,-3,-2,-3,-2,0,-2
1514960481513661,-1,0,-2,0,-2,1,-2,-2
1514960481513661,-1,0,-1,-1,-2,0,-1,0
1514960481534673,-4,-1,-1,-2,-1,-1,1,-4
1514960481534673,1,-1,-2,-1,0,-1,-1,1
1514960481535674,1,-1,1,0,0,-2,-1,1
1514960481535674,-1,-2,0,-2,-2,-1,-1,1
1514960481548688,-1,0,-1,-2,-2,1,-2,-2
1514960481548688,-1,-1,0,-2,-1,0,-2,0
1514960481550690,-2,-2,-1,-3,-1,-2,0,-1
1514960481550690,0,1,-4,0,0,0,-2,-4
1514960481571705,-1,-2,0,-1,0,-1,-1,-1
1514960481571705,-1,-3,1,-1,-2,-1,-2,-2
1514960481573701,-1,-1,-1,0,-2,-3,0,-1
1514960481573701,-1,1,-2,-1,-2,1,-1,-1
1514960481585710,-1,0,-1,0,-1,-1,0,0
1514960481585710,-2,0,-3,-2,0,-1,-2,-1
1514960481592781,-1,0,-2,0,0,-1,-3,1
1514960481592781,-2,-2,-1,0,0,-3,-2,-2
1514960481608724,0,0,-1,0,-2,-1,-1,0
1514960481608724,0,-1,-1,-1,-2,-1,-1,-1
1514960481610725,0,0,-1,-1,-2,-1,1,-2
1514960481610725,0,-2,0,-2,-1,0,-1,0
1514960481631794,0,-2,-2,0,-1,0,-4,0
1514960481631794,-4,2,-2,0,-1,-2,0,-1
1514960481632756,-2,-1,-2,-2,0,-1,-2,-2
1514960481632756,-1,-2,-2,1,-2,-2,0,0
1514960481645758,-1,0,-1,-2,1,-1,-1,-2
1514960481645758,-1,0,0,-2,-2,0,0,0
1514960481652781,-2,0,-2,-1,-2,-2,0,0
1514960481652781,0,-1,-2,-2,-2,-2,-1,-1
1514960481668784,-1,-3,-3,0,-1,0,0,-1
1514960481668784,-1,-1,-2,-1,-2,-1,-3,-2
1514960481670768,-1,0,0,0,0,-2,-3,-2
1514960481670768,0,0,0,-2,-1,-1,-1,-1
1514960481692819,0,0,-2,-1,-2,-1,-2,-1
1514960481692819,1,-1,0,0,0,-1,-1,0
1514960481693785,0,-1,-2,-2,1,-1,-2,-2
1514960481693785,-2,-1,0,-1,-1,-1,-2,0
1514960481704795,-1,-1,-2,-2,-1,-2,3,-2
1514960481704795,0,-3,0,-2,0,-1,-3,-1
1514960481714800,0,0,0,-2,-2,-1,-2,0
1514960481714800,0,-3,-3,-1,-2,-1,0,-1
1514960481728865,-2,0,0,0,0,1,0,-2
1514960481728865,-1,-1,-2,0,-3,-2,-2,-1
1514960481730812,-3,-2,0,-1,-1,1,-2,-1
1514960481730812,-1,0,-1,-1,-1,-1,0,-2
1514960481751827,-2,-1,-1,-1,0,-1,-1,0
1514960481751827,0,0,0,-1,0,-1,1,0
1514960481752828,-1,-2,0,-2,-1,1,-1,0
1514960481752828,0,-1,0,-1,0,-2,-2,-2
1514960481765836,-1,0,1,0,0,-2,-2,-1
1514960481765836,-2,-1,-2,-1,-1,-1,0,0
1514960481773857,-1,-1,-2,-1,-2,0,1,-1
1514960481773857,-1,-1,0,-1,-2,-2,-1,-2
1514960481788888,-2,0,0,0,-3,-1,-2,1
1514960481788888,-1,-2,-1,-2,-1,0,1,-3
1514960481790853,-2,-1,-1,-1,0,-2,0,1
1514960481790853,0,-2,-4,-1,0,1,0,-1
1514960481811879,1,0,0,0,-2,-1,-1,-1
1514960481811879,-1,0,-2,0,-2,-1,-3,-2
1514960481812869,2,-1,0,0,-2,-3,0,-2
1514960481812869,-3,-1,-1,-1,-1,0,0,0
1514960481824933,1,-2,-1,-1,-2,1,-3,-2
1514960481824933,0,0,0,-2,-1,-1,0,-2
1514960481833890,-1,1,0,-2,0,-3,-1,-2
1514960481833890,-2,0,0,-1,-3,-1,-2,0
1514960481848980,-1,-1,-2,-1,-1,-2,0,1
1514960481848980,1,-1,-2,0,-1,0,-1,-1
1514960481850952,0,-1,-2,-1,-2,0,-1,0
1514960481850952,-2,-1,1,0,-2,-2,-1,-2
1514960481871995,-3,-1,-2,-1,-2,-1,-1,0
1514960481871995,-1,-1,-1,0,-1,-1,-2,1
1514960481872971,0,-1,-1,-1,0,-1,1,-2
1514960481872971,-2,-1,-1,-2,-1,-2,-1,-1
1514960481884991,0,-1,0,-2,-1,-2,-1,-3
1514960481884991,-1,-1,0,-2,-1,-1,-2,0
1514960481893980,-3,-3,-1,1,0,1,-1,0
1514960481893980,-1,-1,-3,-1,0,0,-1,1
1514960481907993,-1,0,-1,-2,0,-1,-1,-1
1514960481907993,-1,-2,-3,0,-2,-2,-2,-1
1514960481924002,-1,-1,-1,-1,-1,-2,-1,-1
1514960481924002,-1,-1,0,0,-1,-2,-2,-3
1514960481932066,-2,0,0,1,-2,-1,-1,-2
1514960481932066,-2,0,0,-1,-2,-1,1,0
1514960481933008,0,-2,-2,-2,-1,-2,-1,-2
1514960481933008,-1,-3,-2,-1,1,-2,0,-2
1514960481945034,-1,-3,-1,1,-2,-1,-1,0
1514960481945034,0,-3,-1,-1,0,-1,-1,-1
1514960481954024,-2,0,-1,-1,-1,0,-1,0
1514960481954024,-1,-1,0,0,-2,1,1,-2
1514960481969043,-2,0,-2,-2,-1,-1,-1,0
1514960481969043,0,-4,-1,-2,-1,-1,-1,-1
1514960481971036,-1,-1,0,-1,-3,-1,-2,-2
1514960481971036,0,-1,-1,-2,-1,-1,-3,-1
1514960481992061,0,-2,-1,-2,-1,-1,0,0
1514960481992061,-1,-1,0,-1,-2,0,0,1
1514960481993052,-2,-1,-1,0,-1,-2,0,-3
1514960481993052,-2,-2,0,-1,-1,-1,-2,0
1514960482005065,-2,-2,-1,-1,0,-2,-2,-1
1514960482005065,0,0,-1,-1,-2,0,-1,-2
1514960482014071,-1,-1,0,-1,-1,0,-1,-2
1514960482014071,0,-1,-3,-1,-1,0,1,-2
1514960482029138,-1,-2,-1,-1,-1,0,0,0
1514960482029138,1,-1,-1,-2,-2,-3,1,-2
1514960482031077,-1,-1,0,-2,-1,-1,-1,2
1514960482031077,-2,-1,-2,-3,-1,-1,-1,-1
1514960482051093,-3,1,-2,-3,-3,-1,-4,-2
1514960482051093,-3,-1,-1,-1,0,-2,-2,-2
1514960482058099,-1,-1,-2,0,-1,-2,-1,-2
1514960482058099,0,0,-2,-1,-1,-1,0,-2
1514960482073109,-1,0,0,-1,1,0,1,-1
1514960482073109,-2,-1,-1,0,-1,1,0,1
1514960482074114,0,-2,-2,-1,0,-1,-2,0
1514960482074114,0,0,0,0,-1,-1,-1,-1
1514960482088142,0,-2,-2,-1,-2,-1,-1,1
1514960482088142,-3,-1,-2,-1,0,-1,-1,-1
1514960482089119,1,-2,2,-2,0,-1,-1,-2
1514960482089119,-1,-2,-1,-1,-1,-2,-2,0
1514960482111160,0,-4,-1,-2,-2,-1,0,-2
1514960482111160,-3,0,0,-2,-1,-1,1,2
1514960482112136,0,-2,-2,0,-1,-1,-5,0
1514960482112136,-2,-1,-1,-1,-1,-1,0,-2
1514960482133174,-1,1,0,-1,-1,-2,-2,-1
1514960482133174,-1,-3,-3,0,-1,-2,-2,0
1514960482134157,-2,-1,-1,0,-2,0,-2,-1
1514960482134157,0,-2,1,-2,-1,-1,-2,0
1514960482148160,-1,0,-1,-1,-1,-2,-2,0
1514960482148160,0,-1,0,0,-1,-1,0,-3
1514960482149161,-2,-1,-2,-2,-2,-2,0,-1
1514960482149161,-1,-3,-1,0,-1,-2,-1,-2
1514960482171196,-1,-1,-1,-1,-1,2,0,-1
1514960482171196,0,-1,-1,-2,-1,0,-4,-2
1514960482172177,-2,0,0,-1,-1,-1,1,1
1514960482172177,-2,-3,-2,-2,0,-1,-3,-3
1514960482193214,0,0,0,0,-2,-1,-2,1
1514960482193214,-1,1,-1,0,0,-1,-2,1
1514960482194192,-1,0,-2,0,0,-1,1,-1
1514960482194192,-2,1,-2,-1,-1,-1,0,1
1514960482208257,-4,-1,-1,-2,-1,0,-2,0
1514960482208257,-2,-2,0,-2,-1,-2,-1,-1
1514960482209204,-2,-2,0,-1,-1,-1,0,-3
1514960482209204,1,-1,-1,-1,-1,-1,1,1
1514960482231239,-2,0,-1,-1,-2,-2,1,-2
1514960482231239,-3,0,0,-1,-2,-4,-2,-2
1514960482231239,-1,-2,-3,-1,-2,0,-1,0
1514960482231239,-1,0,-2,-1,-1,0,-3,-1
1514960482253279,1,1,-2,-1,1,-1,1,-2
1514960482253279,0,-2,-2,-2,-1,1,-1,-3
1514960482254268,-3,-1,0,-1,-1,-2,0,0
1514960482254268,-1,-2,0,0,-2,-2,-1,-1
1514960482268336,0,-2,1,0,-2,-1,0,-1
1514960482268336,-1,-1,-1,-2,0,-1,0,1
1514960482269277,0,-2,-1,-1,-1,-1,-2,-1
1514960482269277,0,-1,-1,0,-2,1,-1,0
1514960482291347,-1,-1,-2,0,-1,0,0,-2
1514960482291347,-1,-2,-1,-1,-2,-2,-2,1
1514960482291347,-1,-1,-1,-2,0,-1,-3,-2
1514960482291347,-1,-1,-1,0,-2,-3,-2,-1
1514960482313332,0,-1,-2,-1,0,0,-1,-1
1514960482313332,0,-1,-3,-1,0,-2,-1,-2
1514960482314310,-1,0,0,0,-1,-1,0,-1
1514960482314310,-3,-1,-1,-1,-2,-2,0,-2
1514960482329343,-2,-1,1,-1,-1,0,-3,0
1514960482329343,1,-1,0,-2,-1,0,-3,-1
1514960482330321,-1,0,-1,-2,-2,-2,-2,0
1514960482330321,-2,0,-1,-2,-2,0,-1,-1
1514960482351363,-1,-2,0,0,-1,-2,-1,0
1514960482351363,0,0,-2,-2,-2,-1,0,-1
1514960482352348,-1,-3,-1,-1,-3,-1,-1,-3
1514960482352348,-1,-1,-2,-1,0,-1,-2,1
1514960482373366,-2,-2,-1,-1,-2,-2,0,-2
1514960482373366,-2,0,0,0,0,-1,-1,0
1514960482374366,-1,1,-1,-1,-2,1,0,-1
1514960482374366,-1,-1,0,-2,0,-1,1,-1
1514960482388362,0,-2,-1,-2,-1,-1,-1,-2
1514960482388362,-1,-2,-2,0,-1,-2,0,0
1514960482389363,-1,-1,-2,-2,-1,-1,-4,-1
1514960482389363,-3,0,-1,0,-1,-2,-1,-3
1514960482411397,0,1,0,-3,-1,-2,-1,0
1514960482411397,-3,-2,-2,0,-2,-1,-1,-1
1514960482411397,0,-1,0,-1,-1,-1,1,1
1514960482411397,2,0,-1,-2,-1,-2,-3,-1
1514960482433394,-3,-2,-4,0,0,-1,-1,-2
1514960482433394,-3,-2,-2,-1,-2,0,0,-2
1514960482434395,-1,-2,-2,-1,0,1,-1,-1
1514960482434395,-1,-2,-1,-1,-2,-1,-2,-2
1514960482447420,-2,-2,-1,-1,-1,-2,1,-1
1514960482447420,0,-2,-2,-1,-1,-3,-4,-1
1514960482456426,-1,-2,-1,1,0,0,0,-1
1514960482456426,-1,-1,-1,-3,-1,-1,1,0
1514960482471421,0,-1,0,-1,-1,0,-1,-1
1514960482471421,-1,-1,-1,0,-1,-1,1,1
1514960482471421,-1,0,1,-3,0,-5,-3,-1
1514960482471421,0,-2,-2,0,1,-1,-4,0
1514960482493494,0,0,-2,-2,-2,-1,-2,-1
1514960482493494,0,-2,-1,-1,0,-1,-1,-1
1514960482494438,0,-2,-2,0,-1,0,-2,-2
1514960482494438,-1,-1,-1,-2,-1,-1,1,-2
1514960482508450,-2,-1,-1,-2,1,-1,-2,1
1514960482508450,-1,-1,-1,-1,-2,1,-1,-2
1514960482509447,-1,-1,-2,-1,-1,-2,-1,0
1514960482509447,-2,-2,0,-2,0,0,0,-1
1514960482530466,0,-3,-1,0,-1,-2,-1,1
1514960482530466,-3,0,0,-1,-2,0,-2,-2
1514960482531477,1,0,-2,-1,2,-1,1,0
1514960482531477,-1,-1,-1,-2,-1,-1,-1,0
1514960482553487,-1,-1,-2,0,-2,-2,-2,-3
1514960482553487,0,-1,0,-1,0,0,-2,1
1514960482554497,-2,0,0,0,-2,-1,1,-2
1514960482554497,-2,-2,-1,-1,0,-3,-2,-2
1514960482568514,0,0,0,-1,-1,0,2,0
1514960482568514,-2,1,-1,0,-1,-3,0,0
1514960482569491,-1,-2,-2,-1,-2,0,-3,-1
1514960482569491,1,-1,-3,0,-1,-1,-1,-1
1514960482591533,-1,0,-1,0,0,0,-2,-2
1514960482591533,0,0,0,-1,0,-1,0,-1
1514960482591533,-2,-2,-1,-2,0,-2,0,-1
1514960482591533,-2,0,-1,-1,-2,-1,0,-1
1514960482613546,-1,-2,-1,-2,-1,-1,-3,-1
1514960482613546,-1,0,-1,0,-2,-3,-2,-1
1514960482614523,0,-1,0,-2,-1,-2,-2,-2
1514960482614523,0,-1,-2,-3,0,-2,1,0
1514960482628533,-1,-1,-1,-2,1,1,-2,0
1514960482628533,0,-2,-1,-1,-1,0,-1,-2
1514960482629535,0,-1,-2,-1,-1,-1,-1,0
1514960482629535,-2,-1,0,2,-1,0,-1,0
1514960482651548,-2,0,1,-1,-2,-2,0,-1
1514960482651548,0,-4,-1,1,0,0,-2,0
1514960482651548,-1,-1,0,-1,-1,-2,-1,-1
1514960482651548,-1,-1,-1,-2,0,-2,-1,-2
1514960482673570,0,-1,-2,-1,-2,0,-1,0
1514960482673570,1,1,-1,-2,-1,-3,-3,-1
1514960482674585,-2,-1,1,-2,-1,0,2,-2
1514960482674585,0,-1,-2,-1,-4,-1,0,1
1514960482687601,-1,-1,-2,-1,0,-1,0,-3
1514960482687601,-2,-3,-2,-2,-1,-2,-1,-3
1514960482695655,-1,-1,-2,-1,-1,-1,-2,0
1514960482695655,0,1,-1,-1,-1,0,-1,0
1514960482710607,-2,0,2,1,-1,-1,-2,-1
1514960482710607,-3,-1,-2,0,-2,-2,-2,0
1514960482711590,-1,-1,0,-1,-1,-2,-1,-1
1514960482711590,0,-2,0,0,-1,-1,-1,-2
1514960482733607,-3,-1,-2,-2,-3,-1,-2,-1
1514960482733607,-1,0,-1,-2,-1,-1,0,-1
1514960482734622,0,-1,-1,-2,-3,0,-1,-2
1514960482734622,0,-1,-1,-2,-1,-1,-2,-2
1514960482747616,2,-2,0,-1,-2,-1,1,-1
1514960482747616,0,-1,-1,0,-1,0,-2,-3
1514960482755634,-1,-2,-2,0,-1,-1,-2,-1
1514960482755634,-3,-2,0,-1,-1,-1,-1,0
1514960482771650,-3,-2,0,-2,0,-1,-1,-1
1514960482771650,-2,0,-2,-2,-1,0,0,-1
1514960482778659,0,0,-1,-1,0,-1,0,0
1514960482778659,-2,0,-2,0,0,-1,-2,-3
1514960482793670,0,-1,-3,0,-1,-1,0,-1
1514960482793670,1,-1,0,0,-2,-1,1,0
1514960482794663,-2,-2,-2,-1,-3,0,-1,-1
1514960482794663,-1,-3,0,-2,0,0,0,-1
1514960482807717,-2,-1,0,-2,-2,-2,-2,2
1514960482807717,1,-1,-2,-1,-1,1,-1,-2
1514960482815693,-5,-1,0,-2,0,-1,-2,-2
1514960482815693,-1,0,-2,-1,-1,-1,-2,0
1514960482830736,0,-1,-1,-1,0,-2,0,-1
1514960482830736,-2,-4,0,0,-1,-2,1,0
1514960482831707,0,-1,-1,1,-1,0,-2,0
1514960482831707,-1,0,-1,-2,-1,0,-2,-1
1514960482853721,-1,-1,-2,-1,1,0,-1,-1
1514960482853721,0,-2,0,-1,-2,0,-1,1
1514960482854704,1,-2,-3,0,-2,-2,-1,-2
1514960482854704,-1,-1,0,1,-1,-2,-1,0
1514960482867731,-1,-1,-2,0,-2,-2,0,0
1514960482867731,-2,0,-1,-4,-1,0,1,-2
1514960482875725,-1,-1,-1,-1,0,-1,-1,-1
1514960482875725,1,-2,-2,-1,-2,0,-2,1
1514960482890777,-4,0,-2,-2,0,-1,-1,-2
1514960482890777,-3,-1,-2,1,0,-1,-2,1
1514960482891736,1,-2,0,0,-3,-1,-1,-1
1514960482891736,-3,-2,-1,-2,0,-2,-1,-3
1514960482913743,-1,-2,-1,-2,-1,-2,-2,-1
1514960482913743,0,-2,-3,-2,-1,-1,-4,-3
1514960482913743,-1,-1,-1,-3,0,-2,-3,-2
1514960482913743,-2,-1,0,0,-3,-2,0,-1
1514960482927766,-1,0,-1,-2,-1,1,-1,-1
1514960482927766,-2,0,-1,-1,-1,-2,1,0
1514960482935750,-2,-2,0,-1,-3,-2,0,0
1514960482935750,1,-2,-1,-1,-1,0,0,-1
1514960482950759,0,-2,-1,-1,-2,0,0,0
1514960482950759,-1,-1,0,1,-2,0,-2,-2
1514960482951761,-1,0,-2,0,-1,0,-1,-3
1514960482951761,-2,-1,-2,0,-2,0,-1,1
1514960482973784,1,-2,-2,-2,-2,-2,-2,-2
1514960482973784,0,-2,-2,-1,-1,1,-1,-2
1514960482974784,0,-3,-1,-1,-1,0,-1,0
1514960482974784,-2,-1,0,-1,1,-2,0,-4
1514960482987815,-1,0,-2,-2,0,-2,-1,0
1514960482987815,-3,0,0,-2,-2,-2,-2,-2
1514960482995821,-3,1,-1,-2,-1,0,-1,-2
1514960482995821,1,-1,0,-1,-3,-1,-2,1
1514960483010831,-2,-1,-1,-1,-2,-1,0,-2
1514960483010831,-1,-1,0,-1,-2,-4,0,1
1514960483011832,-1,-2,0,-2,-1,-1,-1,-2
1514960483011832,0,-1,-2,-1,-1,1,-2,-1
1514960483033818,-1,0,0,0,-1,1,-1,0
1514960483033818,1,-2,-1,-1,0,-2,-1,-2
1514960483034819,0,0,-1,-1,0,-2,0,1
1514960483034819,-1,1,-2,0,0,0,-3,0
1514960483056845,-1,-1,-1,0,-2,-1,-2,-2
1514960483056845,-1,-2,-1,-1,-1,0,-2,-1
1514960483056845,-3,-2,0,-2,-1,-2,-1,-1
1514960483056845,0,-2,-1,-2,0,-1,-1,-2
1514960483070855,1,-2,0,-1,-2,-2,-1,0
1514960483070855,-1,-1,-3,-3,-1,-1,-2,0
1514960483071845,0,-2,-1,1,-1,-2,-1,-2
1514960483071845,0,-2,-2,-1,-2,0,0,-1
1514960483093875,-1,-1,0,-1,-1,-2,-3,-2
1514960483093875,-1,1,1,0,-2,0,0,-1
1514960483093875,-2,0,-1,-1,1,0,0,0
1514960483093875,-2,0,-1,-1,-1,0,-1,-3
1514960483116878,-1,-2,-2,-1,0,0,0,1
1514960483116878,0,-1,-2,-1,0,-1,-3,-1
1514960483117879,-1,-1,-1,0,-2,1,-1,0
1514960483117879,-1,2,0,-1,-1,-2,-2,-1
1514960483130951,-1,-1,-1,0,0,1,-2,-3
1514960483130951,0,1,-1,0,-1,1,-2,-2
1514960483131915,-1,0,-1,-1,-1,-2,0,-1
1514960483131915,-2,-4,-1,-2,-1,-2,1,0
1514960483153928,-1,0,-1,-2,-1,-2,-1,-2
1514960483153928,-1,-1,0,0,0,0,1,0
1514960483153928,0,0,-2,-1,0,1,0,-2
1514960483153928,-1,-1,-3,-1,-2,0,0,-3
1514960483176932,0,0,-1,-3,-2,-2,0,-1
1514960483176932,-2,-2,-1,-1,-1,0,-1,-1
1514960483176932,-2,-1,-2,-2,-2,-1,-3,-1
1514960483176932,-1,-3,-1,-1,1,0,0,2
1514960483191005,-3,-1,-2,-2,-1,0,-3,-1
1514960483191005,0,-1,-2,-1,-1,-2,-1,-2
1514960483191989,-1,-1,0,-1,0,2,0,-2
1514960483191989,-1,0,0,0,-2,-2,0,-1
1514960483213004,-2,-2,0,0,-1,0,0,0
1514960483213004,-1,-3,-1,0,-2,-3,-1,0
1514960483214004,-2,-2,-2,0,-1,-2,-2,-1
1514960483214004,-1,-1,-2,0,-2,0,0,-1
1514960483237021,-1,0,-3,-1,-2,-1,1,2
1514960483237021,-2,-1,-2,-1,-2,-1,0,-2
1514960483238021,-2,-2,-2,0,0,-2,-1,0
1514960483238021,0,-1,0,-2,0,-1,-3,-1
1514960483251045,-2,-1,-1,-1,-1,-2,0,-2
1514960483251045,-1,-1,0,0,-2,-1,-1,0
1514960483252031,0,-1,-1,-1,-1,-2,-2,-2
1514960483252031,0,-1,-2,0,-2,-3,1,-1
1514960483273058,0,-2,-3,0,1,0,-2,-2
1514960483273058,1,-1,-2,-1,-1,-2,-1,-1
1514960483274047,0,-1,0,-1,-1,1,-2,1
1514960483274047,-2,-1,0,-1,0,-2,-2,-1
1514960483297079,-2,-2,-1,-1,-1,-1,-1,0
1514960483297079,0,0,-2,-1,-1,-2,1,-1
1514960483297079,0,-1,-2,-1,-1,-1,-1,-1
1514960483297079,-2,-2,-1,-2,-1,-1,-2,-2
1514960483311073,0,-1,1,0,-1,-1,0,-2
1514960483311073,-2,-1,0,0,0,-2,-2,0
1514960483312074,-2,0,-1,-1,-2,-2,1,-3
1514960483312074,-1,-1,-2,1,-1,-1,0,-1
1514960483333091,-1,-2,-1,-2,-1,-1,-1,-2
1514960483333091,0,0,1,-2,0,0,0,-1
1514960483334090,-2,-2,-2,-1,-2,-1,-2,-2
1514960483334090,-2,0,-2,0,-1,-2,-1,-2
1514960483356128,1,0,-2,0,-2,-1,0,1
1514960483356128,-2,-3,-1,-2,-2,-1,-1,-1
1514960483357129,-1,-1,-2,0,-1,0,-2,-1
1514960483357129,-1,-2,0,-1,-1,-2,-1,1
1514960483371158,1,-1,0,1,0,0,0,0
1514960483371158,-2,-1,-1,-2,-2,-2,-1,1
1514960483371158,-1,-1,-1,-2,-1,-1,0,-1
1514960483371158,-1,1,-3,-1,-2,-2,-1,0
1514960483393177,-1,-1,1,0,0,-1,-2,-2
1514960483393177,-1,-1,-1,-2,0,0,-1,-1
1514960483394154,1,-1,-1,-1,-1,0,-1,0
1514960483394154,-2,-2,0,0,-2,0,-1,-4
1514960483416233,0,0,-1,-3,-1,-1,-2,1
1514960483416233,-2,-1,-1,-1,0,-1,-1,-1
1514960483417176,-2,-1,-1,-1,-1,-3,-1,-1
1514960483417176,-1,0,-2,-1,-2,1,0,-1
1514960483431203,-1,-3,0,-1,-1,-1,-1,1
1514960483431203,0,-1,-2,-1,-2,-2,-2,0
1514960483432183,1,0,-2,-2,0,-1,-1,-1
1514960483432183,-3,-1,-3,-3,0,1,-1,-2
1514960483453197,2,0,-2,1,-1,-2,-1,-1
1514960483453197,-1,-1,0,-1,-1,0,-1,-1
1514960483454198,0,-2,0,-1,-1,-3,0,0
1514960483454198,1,-1,-2,-1,-1,-2,-1,0
1514960483476236,-1,-2,-1,-2,-1,-1,0,-2
1514960483476236,1,-1,-2,-2,-2,-2,-1,-1
1514960483477213,-1,-1,-2,0,-2,-1,0,-1
1514960483477213,-1,-1,1,-2,0,-1,-2,2
1514960483491225,-3,-2,-2,0,-1,-2,1,-3
1514960483491225,-2,-1,-1,0,0,-1,1,-1
1514960483491225,-1,-2,-3,-1,0,0,-1,1
1514960483491225,0,-1,1,-1,-2,-3,-1,-1
1514960483513241,1,0,-3,-2,-2,-3,0,0
1514960483513241,0,-1,-3,0,-2,0,-1,-1
1514960483514242,-1,-2,-1,0,-1,0,-1,-1
1514960483514242,-1,-3,-1,0,-2,0,-1,-1
1514960483536257,-3,-3,-1,0,-2,-1,-2,0
1514960483536257,-1,0,0,-2,-1,-2,0,-1
1514960483537259,-2,-2,-2,0,-1,0,-1,-1
1514960483537259,0,-3,-1,0,-2,-2,0,-2
1514960483559272,-4,-1,0,-1,-1,1,0,-3
1514960483559272,0,-2,-2,-2,-1,0,-2,0
1514960483560273,-2,0,-1,-1,1,-2,-1,-4
1514960483560273,0,-1,-1,0,0,-1,-2,-2
1514960483573282,-2,0,-1,0,-1,-1,0,0
1514960483573282,-2,-2,-2,0,-4,-1,0,-3
1514960483574283,0,-1,0,-2,-2,-1,0,0
1514960483574283,0,-1,-3,0,-1,-2,0,-1
1514960483596300,1,0,-3,1,-1,-2,1,0
1514960483596300,1,0,-1,0,0,-2,-2,-1
1514960483597300,-2,-1,1,-2,-1,0,0,-2
1514960483597300,-2,0,-1,-2,0,0,-2,0
1514960483611333,-2,-1,0,-2,-3,-2,-2,0
1514960483611333,-1,-3,-1,-2,0,-2,-1,-1
1514960483611333,1,-1,0,-1,-1,-2,-2,-3
1514960483611333,1,-1,-3,-3,0,-1,-1,-2
1514960483633326,-1,-1,-3,-1,0,2,-2,0
1514960483633326,-2,-2,-2,1,-1,0,-1,1
1514960483634326,-3,-2,-2,-1,-1,-1,0,1
1514960483634326,1,1,-2,0,0,-1,-1,0
1514960483656350,-1,-1,-2,-2,-2,-1,-1,-2
1514960483656350,0,-1,0,-1,-2,-1,1,0
1514960483657342,0,-1,0,-1,-1,-2,0,-3
1514960483657342,-1,0,-2,-1,-3,-1,-1,-2
1514960483670356,0,0,0,1,-1,-2,-2,0
1514960483670356,-2,-1,0,0,0,0,-1,-2
1514960483678415,1,1,-3,-1,-1,-1,0,-2
1514960483678415,-2,0,-2,-2,-2,-1,-1,1
1514960483693389,1,-2,-1,-3,-1,1,-3,-3
1514960483693389,-5,-3,0,-1,-2,-1,-1,-2
1514960483694382,0,-2,0,0,-3,-2,1,0
1514960483694382,-3,0,0,0,0,-1,-2,0
1514960483716440,-2,-1,-2,0,-1,-1,0,0
1514960483716440,0,1,-1,-1,0,1,-1,0
1514960483717397,-1,-1,-2,0,-1,-2,-1,-2
1514960483717397,-4,-1,1,-1,-2,-1,0,-2
1514960483730414,-2,0,0,0,-2,-2,-2,0
1514960483730414,-2,-1,-2,-2,0,-1,-2,-1
1514960483746405,-2,1,-1,-1,-1,0,-1,-1
1514960483746405,-1,-2,-1,-1,-1,-1,2,0
1514960483753423,-1,-1,-2,0,0,-1,-1,-1
1514960483753423,0,0,-1,-2,-1,1,0,0
1514960483754419,-2,-1,-3,-2,-2,-1,-3,1
1514960483754419,-1,-1,-1,0,0,-1,-1,-2
1514960483776428,-1,-1,0,-1,-1,-3,-2,0
1514960483776428,0,-1,-1,0,-1,-2,-1,0
1514960483777426,-1,-1,-2,0,-2,-1,-1,-2
1514960483777426,-2,-1,0,-1,-2,0,-2,-2
1514960483790476,0,-2,-2,-1,-2,0,-1,0
1514960483790476,-1,-1,-2,0,-1,-1,0,-2
1514960483806447,-1,-2,-2,-2,-1,-1,-1,-2
1514960483806447,-2,-1,-3,1,-1,-1,-1,-2
1514960483813454,0,-1,-1,-1,-1,-1,-2,-2
1514960483813454,0,0,0,-1,-1,-1,-3,1
1514960483814476,-2,0,0,0,-2,-2,-3,1
1514960483814476,-2,-1,0,-1,-1,-1,-1,0
1514960483836525,0,-1,-2,-1,-1,-2,-1,-1
1514960483836525,1,-2,-1,-1,-1,-1,-2,-1
1514960483838496,0,-1,-1,0,1,0,0,-2
1514960483838496,0,-3,-3,-2,-2,0,0,-1
1514960483850478,-2,-1,-1,-1,-1,-2,0,1
1514960483850478,-2,0,0,0,-3,-2,-1,-2
1514960483858489,-2,0,-1,-2,-2,-1,-1,-1
1514960483858489,-2,-2,-1,-1,-1,0,-1,-3
1514960483873518,-2,-2,-2,-2,1,1,1,-3
1514960483873518,-2,0,-2,-2,-1,-2,-1,1
1514960483874496,-1,-1,0,-2,1,1,0,1
1514960483874496,-1,1,0,-2,0,-1,-2,0
1514960483896513,-2,0,0,0,-2,0,-1,-2
1514960483896513,-2,-2,-1,-1,-1,0,-1,-4
1514960483897512,-1,-2,-2,-1,-2,-1,-2,-3
1514960483897512,0,-2,-1,-1,-1,-2,-2,1
1514960483910544,-1,0,-1,0,-1,-1,-3,0
1514960483910544,1,1,0,-1,-1,-1,0,0
1514960483918544,-2,-1,-1,1,-1,-2,-2,-1
1514960483918544,0,-2,-1,0,0,-1,-2,-1
1514960483933538,-1,-1,-2,-2,-1,0,0,-1
1514960483933538,1,-3,-1,-1,-1,-2,1,0
1514960483934540,1,-1,-1,-2,-1,-2,0,-2
1514960483934540,-2,1,0,1,-1,0,-1,-1
1514960483956553,0,-1,-2,-1,-2,-1,-1,0
1514960483956553,0,0,-3,-2,-1,0,-2,-4
1514960483957555,-1,-3,-1,-1,-2,0,-1,-2
1514960483957555,1,-3,-1,-2,0,-2,-2,0
1514960483970591,-2,-1,-1,-2,-1,0,1,-2
1514960483970591,-3,-3,-2,-1,0,-1,0,-1
1514960483978581,-1,-1,-1,-2,-1,-1,0,-1
1514960483978581,-1,1,-1,-2,-1,-2,0,-1
1514960483993602,-1,-1,-2,0,0,-1,-1,1
1514960483993602,0,-2,0,0,-3,-2,-2,0
1514960483994582,0,-1,-1,0,-1,0,-1,-3
1514960483994582,1,0,-1,-1,-2,-2,-1,-2
1514960484017648,1,0,-1,-1,-1,1,-1,-2
1514960484017648,-1,0,-1,0,-1,1,0,-2
1514960484018598,-2,-1,-3,-1,-1,-1,-1,0
1514960484018598,0,-1,0,0,-1,-2,1,-2
1514960484039619,-2,-2,-1,-3,-1,-2,-1,-1
1514960484039619,-1,0,-1,-1,0,-3,0,-2
1514960484039619,1,-2,0,-1,1,-3,0,0
1514960484039619,0,-1,-1,0,0,0,-1,0
1514960484053622,0,-1,-1,-1,-2,-1,-1,-2
1514960484053622,-2,-2,-1,0,-2,0,-1,0
1514960484054623,-1,-1,-1,-1,-2,-4,-2,-1
1514960484054623,-2,0,-1,-2,-2,-1,-2,0
1514960484076667,-2,0,-1,-1,-1,-2,-1,-2
1514960484076667,-2,0,-1,-1,-1,0,0,-1
1514960484077645,1,-1,-2,0,-2,-1,0,0
1514960484077645,-1,-3,-1,-1,-2,-2,-1,-2
1514960484098671,0,-3,-1,-1,-1,-2,-1,-2
1514960484098671,-2,1,-1,-2,-1,0,-2,-1
1514960484099657,-2,0,-2,-1,-2,0,-2,-2
1514960484099657,-1,-2,-2,-2,-2,0,-2,-1
1514960484113681,-2,0,0,-1,1,-2,-1,0
1514960484113681,-2,-3,0,-1,-1,-1,0,0
1514960484114664,-1,0,1,0,-2,0,-1,0
1514960484114664,-1,1,-1,-1,-1,-2,1,-1
1514960484136693,0,0,-1,-1,-1,-1,-1,-1
1514960484136693,-2,-2,-2,-1,-1,-2,-1,-1
1514960484137682,-1,-1,-1,-3,-1,0,-2,-2
1514960484137682,1,-1,-2,-1,-2,0,1,-1
1514960484158709,-2,-1,0,-1,-2,-2,0,1
1514960484158709,0,-1,-2,-1,-2,-2,-1,0
1514960484159705,-1,-2,-1,0,-3,-1,0,0
1514960484159705,0,-1,-2,0,1,-2,-2,-2
1514960484172705,0,-1,-1,0,1,0,1,-2
1514960484172705,-1,1,-1,-1,0,-1,-2,-2
1514960484181719,-2,-1,-1,-1,-1,-3,-2,0
1514960484181719,-1,-4,-2,-2,-1,-3,-3,-1
1514960484196724,0,-2,-2,-1,-1,0,-1,-2
1514960484196724,-1,-2,0,-1,-1,-1,-1,-2
1514960484197724,-1,-1,0,-1,1,0,-1,0
1514960484197724,0,-1,0,0,0,0,-2,-2
1514960484218740,0,-1,-1,-2,-2,-3,-2,-1
1514960484218740,0,-2,-1,-1,-2,-1,-1,-1
1514960484220741,-1,-2,-2,-1,-3,-1,-1,-1
1514960484220741,-3,-1,-1,0,-1,-2,-2,-1
1514960484232765,-1,-1,-1,-1,-2,0,-2,0
1514960484232765,1,0,-1,-2,0,-2,-1,0
1514960484249762,-1,0,-1,0,-2,-1,-1,-1
1514960484249762,-2,-1,-2,0,-1,-1,1,1
1514960484256766,-2,-3,-2,0,-1,0,-2,0
1514960484256766,-1,0,-2,-1,-2,-1,-3,-3
1514960484258767,-1,-1,-2,-3,1,0,0,-1
1514960484258767,1,0,0,-1,-2,0,-1,-2
1514960484278780,-2,1,-1,-1,0,-2,-2,1
1514960484278780,-2,-1,0,-1,-1,0,0,1
1514960484280781,-1,-2,-2,0,-2,-1,-2,-2
1514960484280781,-1,1,-1,-3,1,0,-2,-3
1514960484292828,0,-1,-1,-1,0,-4,-2,-4
1514960484292828,-1,-1,-2,0,-2,0,0,-2
1514960484301798,0,-2,0,-1,0,-2,-2,-1
1514960484301798,-1,-1,-1,-1,0,-1,0,0
1514960484316866,-1,0,-2,1,-1,0,-1,0
1514960484316866,-1,-1,-1,-1,1,-2,1,0
1514960484318812,-2,-2,-1,-1,-2,0,-1,-1
1514960484318812,-1,-1,-1,0,-2,0,-2,0
1514960484338845,-1,-2,-1,-1,-1,-1,0,0
1514960484338845,0,-1,-1,-1,-1,-3,-1,-2
1514960484340826,-2,2,-1,-1,-2,-1,-1,-1
1514960484340826,-2,-2,1,-2,-1,-1,-1,1
1514960484352843,-2,-1,0,-1,-1,-2,1,0
1514960484352843,-2,-2,-1,-3,-1,0,-3,0
1514960484359848,-3,-3,-1,-1,-2,-1,-2,-2
1514960484359848,-1,0,-2,-1,-2,0,-1,0
1514960484376899,0,-1,-1,0,-1,-1,-2,-1
1514960484376899,0,-2,-2,-1,-1,-1,-1,0
1514960484377850,-2,0,-1,0,0,-3,-1,-1
1514960484377850,-2,-1,-2,0,-2,-3,-1,-1
1514960484398878,-2,-2,-1,0,-2,-1,-2,-1
1514960484398878,-1,0,-1,-1,0,-1,-1,-1
1514960484400881,-1,-1,-2,-1,-1,1,1,-1
1514960484400881,0,-1,-1,-2,-1,-1,0,-2
1514960484413896,-1,0,-1,-1,-1,0,-1,-3
1514960484413896,-1,-1,-2,-1,-2,0,0,1
1514960484419909,0,0,-3,-1,0,0,0,-1
1514960484419909,-2,-2,0,0,0,1,-1,-2
1514960484436892,-1,-1,-1,-2,-2,-3,0,-2
1514960484436892,-1,1,0,0,-1,-2,-1,-2
1514960484437892,-2,-1,-1,-1,-1,0,-3,1
1514960484437892,1,0,-2,-2,-1,0,-2,0
1514960484458907,-3,-2,-1,0,-2,-1,-2,-3
1514960484458907,0,-1,-1,-2,-1,-2,2,0
1514960484460909,0,0,-1,-2,0,-2,0,-2
1514960484460909,-1,-2,0,0,0,-2,-1,1
1514960484472933,-2,-2,1,-1,-2,-1,-2,-1
1514960484472933,-2,-1,-1,-2,-1,-2,-2,0
1514960484479925,-2,-1,-2,-1,-2,-1,-2,-1
1514960484479925,-3,0,-2,1,-1,-1,-2,-1
1514960484496934,0,-2,-1,0,-2,-1,0,-1
1514960484496934,-1,-1,-2,-2,-1,-2,-2,-3
1514960484497935,-1,-2,-1,-1,-1,-2,-2,-2
1514960484497935,-2,-1,-2,-1,-1,0,-1,-1
1514960484519025,-1,-1,-1,-3,0,-2,-1,-2
1514960484519025,-2,-1,-1,0,0,0,-1,0
1514960484520953,1,-2,1,-1,-2,-2,1,-1
1514960484520953,0,-2,0,-1,-1,-1,1,1
1514960484533024,1,0,-2,0,-1,1,0,1
1514960484533024,1,0,-1,-1,-1,0,-1,-2
1514960484541997,-2,-1,0,-1,0,-2,-3,-1
1514960484541997,-2,-3,-2,-2,-2,-2,-1,-1
1514960484556978,-1,-1,-1,-2,-3,-1,-2,-2
1514960484556978,-1,-1,-1,0,-2,-1,-2,-1
1514960484557979,-1,-1,-2,-1,-2,-1,0,0
1514960484557979,-1,0,-2,-1,-2,0,0,-3
1514960484578992,-1,-1,0,-2,0,0,0,2
1514960484578992,0,1,0,-2,-2,-1,0,-1
1514960484580993,1,-2,-1,-1,-1,-2,-2,0
1514960484580993,-1,0,-2,-1,-3,-2,-1,-2
1514960484593035,1,0,-1,-2,-2,-2,-3,-1
1514960484593035,1,-1,-1,0,-2,-1,-2,0
1514960484602009,0,0,0,-1,0,-1,0,0
1514960484602009,-1,-2,-1,-1,-3,-1,-1,0
1514960484617019,-1,-1,-2,0,0,-1,-2,-2
1514960484617019,-2,-2,-3,-1,-2,-2,0,-2
1514960484618020,-1,0,-2,-1,-1,-1,0,-3
1514960484618020,-1,-1,-1,-2,0,1,-1,-1
1514960484639089,-2,-1,-2,-1,-3,2,-1,-1
1514960484639089,-1,-2,-1,-1,-1,-1,0,0
1514960484641128,-1,0,-2,-2,-1,-1,-1,-3
1514960484641128,-2,0,0,-1,0,-1,-2,-2
1514960484653113,-1,-1,-1,-1,0,-2,0,0
1514960484653113,-1,-1,-1,-1,0,-1,0,0
1514960484662129,1,-1,-1,-2,0,-2,-3,0
1514960484662129,0,-1,0,0,-1,-1,-1,-2
1514960484676133,-3,-1,-1,0,-1,0,-1,-1
1514960484676133,0,-3,-2,-1,-2,0,-1,-3
1514960484678119,-1,0,0,-2,-1,-1,0,-1
1514960484678119,-2,0,-2,-1,-2,-3,-1,-2
1514960484700147,-2,-2,-1,-2,-1,-1,0,1
1514960484700147,-3,-2,0,-3,-2,-1,-1,-1
1514960484701143,-2,-1,-1,0,-2,0,-1,-1
1514960484701143,-1,-2,0,-2,-3,-2,-2,-2
1514960484713144,1,-1,1,0,-1,-1,-1,-1
1514960484713144,-1,0,-1,0,0,-3,-2,-2
1514960484722151,-2,-1,-1,0,0,-1,0,1
1514960484722151,2,-1,0,-1,0,0,1,-2
1514960484737162,-3,-1,-1,-2,-2,-3,0,0
1514960484737162,-2,-1,0,0,-2,0,-1,0
1514960484743175,-2,-2,-1,-1,-3,-2,-2,-2
1514960484743175,-1,-3,0,0,-1,-2,-1,-2
1514960484759216,-1,-2,-1,0,-2,-2,0,-2
1514960484759216,-2,1,-2,-1,-1,0,-1,-2
1514960484761186,-1,-2,-1,0,-3,-2,-1,-1
1514960484761186,-1,0,0,-2,0,0,-2,0
1514960484773196,0,1,0,0,-1,1,1,-1
1514960484773196,-2,0,-1,-1,1,-1,-4,-1
1514960484781216,-2,-2,-1,0,0,1,-1,0
1514960484781216,-1,-1,-1,-2,0,-3,-1,1
1514960484797213,-1,0,-1,0,-1,-2,-2,0
1514960484797213,-1,-2,-1,-2,-2,-1,0,0
1514960484799214,-2,-3,-1,-1,-2,0,-1,-3
1514960484799214,0,-1,-1,-1,-1,0,-1,1
1514960484819229,-2,-3,-1,-1,-2,-1,-3,-1
1514960484819229,0,-2,-2,0,-2,-1,0,-2
1514960484820220,-3,-1,0,-1,0,-1,-1,-2
1514960484820220,-1,1,-2,-2,-2,-1,0,-2
1514960484832251,1,-1,-3,-2,-1,0,0,-2
1514960484832251,-1,-1,-3,-3,0,-1,-2,0
1514960484841254,-1,-1,-2,-2,-2,-3,-1,0
1514960484841254,0,0,-1,-1,-3,-1,1,0
1514960484856255,0,0,1,-3,0,-1,-3,1
1514960484856255,-1,-1,-2,-1,0,-1,1,-3
1514960484858246,0,1,-1,-1,-1,-3,-2,-1
1514960484858246,-2,0,-2,0,-2,-2,-2,-1
1514960484879284,0,-1,-3,-1,1,-2,1,-1
1514960484879284,-3,-1,0,0,0,0,-1,0
1514960484880281,-2,-3,-1,-2,0,-1,1,0
1514960484880281,0,-1,-1,-1,-1,-2,-2,0
1514960484892344,0,-3,-3,-1,-1,-2,-1,0
1514960484892344,0,1,0,0,-2,-3,-1,0
1514960484901340,0,1,-1,-1,0,0,-1,-2
1514960484901340,-2,-1,-2,-1,0,0,0,-2
1514960484916375,-2,0,-2,1,-2,0,-2,0
1514960484916375,-1,-2,-1,-3,-1,-1,0,-1
1514960484918351,0,-2,0,-2,0,0,0,-1
1514960484918351,0,-1,-1,-3,-1,-2,0,-3
1514960484939376,-3,-1,-3,0,-1,0,0,-1
1514960484939376,0,-1,-1,-1,-3,-1,-2,-2
1514960484940356,1,-2,-2,-1,-1,-1,-1,-1
1514960484940356,-2,-2,-1,0,-1,0,0,-2
1514960484969429,1,-1,-1,-2,-1,-1,-2,-1
1514960484969429,-1,-3,-2,-1,-1,-2,0,-1
1514960484970430,0,-1,-1,-2,-2,-1,-1,-2
1514960484970430,0,-1,0,-1,-1,-1,-2,0
1514960484976500,-1,0,-1,-1,0,-2,0,0
1514960484976500,-1,-3,0,0,-2,-2,0,0
1514960484978500,-2,0,-2,-1,-3,-2,0,-1
1514960484978500,1,-1,-2,-1,-1,-1,-1,-1
1514960484998482,-2,-1,-2,-2,-2,0,-4,-3
1514960484998482,-1,0,-1,-2,0,0,-1,-1
1514960485000483,-2,-1,0,-1,-1,0,0,-2
1514960485000483,-2,-1,-1,-1,-2,-3,-1,-2
1514960485021508,-2,-1,-1,-1,-3,-1,0,-2
1514960485021508,0,-2,-1,-1,0,-1,-1,-2
1514960485023500,0,-2,-1,-1,0,-2,-1,0
1514960485023500,-1,0,-1,-1,-1,0,-1,1
1514960485036510,1,-1,0,-1,0,-2,-1,0
1514960485036510,-2,0,-1,-2,-1,-3,-1,-1
1514960485039526,0,1,-1,-1,0,-1,-1,-2
1514960485039526,-2,-1,-2,-2,0,-1,-3,0
1514960485059569,-2,1,-2,-1,0,-1,0,-1
1514960485059569,1,-1,0,-2,-1,-1,-1,0
1514960485060555,-1,0,1,-1,-1,-3,-2,0
1514960485060555,0,-1,-2,-2,-1,0,-1,-1
1514960485081641,-1,-1,0,-2,-2,-1,1,-2
1514960485081641,-1,-1,-1,-1,-2,-1,-3,-2
1514960485083594,-1,-1,-1,-2,-1,-1,0,-1
1514960485083594,0,-1,-1,-1,-1,-2,-1,-2
1514960485095600,1,-2,-1,-2,-1,-3,-1,-1
1514960485095600,-1,-1,-1,-2,0,-2,0,-3
1514960485104596,-1,-3,-1,-2,-1,-2,-2,-2
1514960485104596,-1,-3,1,-1,-1,-1,-1,0
1514960485119599,1,-1,-2,0,-2,-1,-1,1
1514960485119599,0,0,-2,0,1,0,0,-1
1514960485120600,-2,-2,-1,-1,-3,-1,0,-1
1514960485120600,-1,-2,0,0,-2,-1,-2,0
1514960485141615,-2,-2,0,0,-1,-2,-1,0
1514960485141615,0,-1,-1,-1,-3,-1,-2,1
1514960485143616,0,-1,-2,1,-1,-1,-1,-1
1514960485143616,0,0,-1,0,-2,0,-3,-1
1514960485155631,-3,-2,0,-1,0,0,1,0
1514960485155631,-2,-1,-2,-1,-1,-1,1,-1
1514960485162635,-1,0,-1,0,-1,1,-2,-2
1514960485162635,-2,0,-1,1,0,-1,-1,-1
1514960485178642,1,1,0,0,-1,-1,-1,-2
1514960485178642,0,-1,-1,0,-1,0,0,-1
1514960485180643,-1,-2,-2,-3,-1,-2,-3,1
1514960485180643,-2,-3,-2,-2,-2,-1,-1,-1
1514960485201655,-3,-2,0,-1,-2,0,0,0
1514960485201655,-1,-2,1,-1,0,-1,0,-1
1514960485203658,0,-2,0,-1,-2,-2,-1,-1
1514960485203658,0,0,-1,-1,-1,-2,-1,-2
1514960485215668,-1,-1,1,-2,-2,0,-1,0
1514960485215668,-2,0,-1,-1,-2,-1,-1,-1
1514960485224675,-2,-4,0,-1,0,0,-1,0
1514960485224675,-1,-1,-1,-1,0,-1,0,-1
1514960485238713,0,0,-1,-2,-2,-1,0,-1
1514960485238713,0,0,-1,-1,0,-2,-2,0
1514960485244689,-1,1,-2,0,0,0,2,-2
1514960485244689,-2,-2,-1,-1,0,-1,-1,-1
1514960485261698,0,-1,-1,-2,-2,-1,-2,-3
1514960485261698,-2,-1,-3,-2,-2,0,-1,0
1514960485263700,-2,0,-1,-1,-1,0,-2,-1
1514960485263700,-1,-2,-1,-2,-2,-1,-3,-1
1514960485275710,0,-3,-1,0,0,-1,-2,-2
1514960485275710,-2,0,-1,1,-2,-1,-3,-1
1514960485282752,0,-1,-1,0,0,-3,0,-1
1514960485282752,-1,-1,0,-1,-1,-1,0,-2
1514960485298734,-1,1,-1,-1,-1,-2,-2,0
1514960485298734,-1,-3,-2,-2,0,-1,-1,-2
1514960485300742,-1,0,-2,0,-2,1,-2,0
1514960485300742,0,-1,0,-1,-1,-2,1,-1
1514960485321741,-3,0,-1,2,-1,-1,-3,-1
1514960485321741,-1,-1,-2,-2,-2,-1,1,0
1514960485322751,0,-3,-1,-1,-1,-2,-1,0
1514960485322751,-1,1,-1,-3,0,-1,1,-1
1514960485335753,-1,-2,-3,-1,-1,0,1,-1
1514960485335753,0,-1,-3,0,-1,0,0,-1
1514960485342785,-1,-1,-1,-1,0,-2,-1,0
1514960485342785,0,-1,-2,-1,0,0,0,-1
1514960485358797,0,-1,-2,-1,-2,-3,-2,1
1514960485358797,-3,-1,-1,0,-3,-1,0,-3
1514960485360769,0,0,-2,-1,-2,1,1,-1
1514960485360769,-2,-1,0,-1,-2,0,0,1
1514960485381813,-2,0,-3,-3,0,-1,0,-3
1514960485381813,-1,0,-1,-2,-2,-1,-2,0
1514960485382795,-1,-2,-1,-1,-1,-1,0,-1
1514960485382795,-2,-2,-2,0,-2,-2,-1,-1
1514960485403799,-1,-1,0,-1,-2,-1,-2,-2
1514960485403799,0,-1,1,-2,-1,-1,-2,-3
1514960485405800,0,-2,0,-2,0,-3,-1,-1
1514960485405800,0,-2,-3,-1,0,0,-1,-2
1514960485418809,-1,-2,-2,-1,-2,-2,-1,0
1514960485418809,0,-1,-1,0,-1,-1,0,-1
1514960485420810,-1,-1,0,1,-3,1,-2,-1
1514960485420810,1,-2,-1,-2,-1,-3,0,-1
1514960485441992,-2,-1,0,-1,-1,-2,0,-2
1514960485441992,0,-2,-1,-2,0,0,1,-1
1514960485442934,-2,-1,-3,1,-1,0,-1,-1
1514960485442934,0,-1,-3,0,-1,0,-3,-1
1514960485454959,-1,-1,0,-2,-1,0,0,-1
1514960485454959,0,-1,1,-1,-2,-3,-3,0
1514960485463947,-2,-3,-4,1,-1,-2,0,-1
1514960485463947,-1,-1,0,-4,-3,0,0,0
1514960485478981,-2,0,-3,-12,-1,0,-2,-2
1514960485478981,0,-2,-2,4,-3,0,-1,-1
1514960485480974,-1,-1,0,2,1,-1,-2,-2
1514960485480974,-2,-1,-4,-12,0,1,0,0
1514960485501987,1,-1,0,2,-1,-1,-1,1
1514960485501987,-2,1,-3,-7,0,-1,-1,0
1514960485502976,0,0,3,-4,-3,-2,-2,-1
1514960485502976,-2,1,4,7,-1,-1,-1,1
1514960485515001,1,1,9,1,1,-1,0,-2
1514960485515001,1,-1,13,8,1,0,-1,-1
1514960485530011,-5,-9,-28,-8,-4,-3,-3,-3
1514960485530011,-1,-1,2,-1,-1,1,0,-2
1514960485539064,1,-1,-2,2,-1,0,-1,0
1514960485539064,-1,2,13,6,0,0,0,-1
1514960485541081,-1,1,6,-1,0,1,-1,-2
1514960485541081,-2,0,-5,-1,-2,-3,-1,-2
1514960485562116,-1,-1,3,2,0,-2,-1,-1
1514960485562116,0,-1,-13,-7,-2,-3,-1,1
1514960485563089,-1,-1,4,1,0,-2,-1,2
1514960485563089,-1,-3,7,3,-1,-1,-1,1
1514960485575114,1,9,38,32,-1,0,1,1
1514960485575114,-2,-4,-18,-32,3,2,1,-2
1514960485584105,-1,-5,2,-10,-2,-1,0,0
1514960485584105,0,3,12,6,-1,-1,-5,-1
1514960485599131,-2,-3,-7,-6,1,0,2,-2
1514960485599131,1,1,22,15,-1,-2,-1,0
1514960485601133,0,4,2,9,2,0,-5,-1
1514960485601133,-3,-3,-6,-10,1,-1,0,-2
1514960485621146,0,-2,-18,-13,-1,-4,-1,-1
1514960485621146,-5,-7,-15,-3,-4,-4,-3,-3
1514960485623133,0,1,0,-3,-1,-2,1,-2
1514960485623133,0,-1,-3,9,-1,-2,-2,-1
1514960485635138,0,-2,-13,-7,-1,0,-2,-2
1514960485635138,-2,-2,-4,1,0,-2,0,-1
1514960485644196,-1,1,2,4,-2,-1,-1,-2
1514960485644196,-1,5,12,10,-1,-1,1,0
1514960485659211,1,4,17,-20,-3,-1,-1,1
1514960485659211,-5,-8,-44,13,6,1,-2,-2
1514960485661213,-1,2,42,-1,-3,-2,1,0
1514960485661213,3,0,7,7,-2,-2,1,-2
1514960485681277,-4,-8,-24,-11,-3,-2,-4,-2
1514960485681277,1,3,-1,-6,0,1,0,-1
1514960485683223,-1,-2,-8,-6,-1,-1,1,-2
1514960485683223,5,0,8,-7,0,-1,1,-1
1514960485695262,3,8,23,13,1,-1,-1,1
1514960485695262,-18,-3,12,3,-3,-3,0,-5
1514960485704266,0,-5,-18,-5,-2,-1,-4,-2
1514960485704266,0,-2,-9,-6,-3,-2,-1,0
1514960485719249,1,-2,-3,7,-3,-3,0,0
1514960485719249,1,-5,-18,-11,-1,-4,-1,-1
1514960485720266,-3,-1,-20,1,0,0,-2,1
1514960485720266,-3,-4,21,-16,-3,-4,-1,0
1514960485741262,1,-1,-14,6,0,-2,2,-2
1514960485741262,5,5,14,4,-2,-1,1,0
1514960485743282,4,1,10,0,0,0,2,0
1514960485743282,-8,-3,-7,17,-2,-2,-2,0
1514960485755290,2,-7,-20,-23,-1,-1,-3,-3
1514960485755290,7,7,15,3,-2,-1,-1,0
1514960485764278,-3,-9,-14,-15,-2,-3,-3,-7
1514960485764278,-7,-1,-21,-20,-3,-2,-1,-1
1514960485779345,-6,-6,8,17,-3,-2,-1,-3
1514960485779345,6,3,-9,-1,0,-1,0,2
1514960485780312,-1,9,2,16,2,0,-2,2
1514960485780312,5,4,-5,-2,0,0,0,-2
1514960485801317,-7,-13,-9,-11,-3,0,-6,-1
1514960485801317,9,5,18,0,0,1,-1,1
1514960485803306,-8,1,-8,1,0,-3,3,1
1514960485803306,-2,-5,15,8,2,0,-3,-2
1514960485815330,-6,3,-10,0,1,0,0,-4
1514960485815330,-11,-3,-3,0,-2,-1,-1,-1
1514960485824323,16,-6,-1,-5,-2,-1,-1,1
1514960485824323,-4,-1,-9,-1,-3,-2,-2,-2
1514960485839333,23,5,-3,-2,1,-1,1,2
1514960485839333,-29,-1,-5,-7,-1,1,-3,-3
1514960485841336,-6,-15,3,-3,-1,0,0,-2
1514960485841336,12,2,-5,-3,0,0,1,4
1514960485861347,-20,-4,-31,-4,-2,-2,0,0
1514960485861347,10,-1,23,11,0,-1,-1,-3
1514960485863350,13,7,-38,-3,0,1,2,2
1514960485863350,-8,-3,1,2,0,-1,-3,0
1514960485884365,10,-2,19,-1,1,1,-1,-3
1514960485884365,10,5,3,-6,-2,-1,0,3
1514960485885363,-41,-9,-8,3,-1,-2,-4,-5
1514960485885363,11,-2,-28,-11,-3,0,-1,-3
1514960485899376,13,12,9,3,2,-1,2,4
1514960485899376,-25,-11,1,1,-1,-3,-1,-1
1514960485900374,30,5,1,-1,-3,-4,-2,-2
1514960485900374,-18,-5,12,6,-3,1,-3,-2
1514960485921391,1,-6,-23,-10,-1,-1,-2,-2
1514960485921391,-10,-12,-7,-3,-2,-1,-1,-1
1514960485923399,10,0,17,2,0,-2,-2,-3
1514960485923399,11,12,5,4,1,1,0,2
1514960485944407,8,4,12,11,-2,0,-1,1
1514960485944407,0,-4,2,3,-4,-2,0,-2
1514960485945407,5,11,1,-10,-1,1,0,3
1514960485945407,18,6,-6,-12,0,-1,0,0
1514960485959417,-43,-16,10,5,-1,1,0,-4
1514960485959417,6,5,-13,-3,-2,0,-1,-3
1514960485960418,-21,-3,7,2,-2,-4,-2,-6
1514960485960418,17,-9,-7,-3,-1,-1,-3,1
1514960485982437,-1,6,-1,-5,-3,-4,0,2
1514960485982437,4,-2,13,3,0,1,0,1
1514960485983434,1,-10,-21,-7,-2,-2,-1,-2
1514960485983434,-5,0,-25,-7,-2,-1,3,-2
1514960486004454,-5,1,7,5,1,-1,-4,1
1514960486004454,-7,1,5,2,-1,1,-1,-1
1514960486005458,16,12,-8,-12,-2,-1,-2,3
1514960486005458,-28,-9,4,4,-1,0,5,-4
1514960486019462,-12,-2,3,-9,-3,-2,-8,-3
1514960486019462,18,-4,-1,0,1,0,3,0
1514960486020465,-18,5,14,7,0,1,1,0
1514960486020465,-34,-21,-9,-7,-5,-5,-6,-1
1514960486041479,35,5,3,-4,-1,0,2,-3
1514960486041479,-18,4,-4,-3,1,2,-1,3
1514960486043475,-4,-16,3,9,-1,-1,-2,-4
1514960486043475,18,9,4,2,1,-1,-2,-4
1514960486064490,-17,-8,3,-2,1,-1,-1,0
1514960486064490,14,4,-32,-13,-4,-2,-3,-1
1514960486065491,7,6,12,7,-2,-1,-5,4
1514960486065491,-41,-8,17,8,1,0,4,-6
1514960486078501,16,-5,-38,-11,-5,-2,-6,1
1514960486078501,-8,-5,4,-9,-4,-3,-3,-5
1514960486085509,31,0,8,-3,-2,-1,2,3
1514960486085509,-23,8,-2,1,0,0,0,1
1514960486101518,8,-4,17,8,2,-2,0,-3
1514960486101518,1,-10,-18,-2,-1,-2,0,-2
1514960486103519,-2,3,2,-1,-2,-1,-3,-3
1514960486103519,20,10,8,2,0,-2,-4,2
1514960486124535,-8,3,-12,0,-2,-1,2,-1
1514960486124535,-25,-16,7,-3,-3,-2,-3,-4
1514960486125534,5,0,19,3,1,-2,0,-2
1514960486125534,-24,1,-11,-4,-1,-2,-4,-4
1514960486138547,7,2,12,7,2,1,2,4
1514960486138547,-26,-4,-28,-4,-1,-3,-3,-4
1514960486145548,-55,-13,28,14,1,1,1,2
1514960486145548,41,-3,-1,-5,-5,-4,-5,-4
1514960486161559,-6,12,-12,-7,-3,-1,0,-1
1514960486161559,28,5,28,5,2,1,2,1
1514960486162560,2,-2,-13,-2,-2,1,0,-1
1514960486162560,-6,-3,11,6,2,1,-2,4
1514960486183577,23,-1,-24,-14,-2,-2,2,1
1514960486183577,3,6,-10,2,-1,-1,-6,-3
1514960486185578,4,2,-4,-7,-2,-2,-3,-4
1514960486185578,-18,-11,-6,3,-1,-1,7,2
1514960486198586,-1,-6,8,-4,-2,-1,-5,-4
1514960486198586,36,7,2,1,-2,-3,-2,3
1514960486205593,-9,-7,9,-2,0,0,2,-1
1514960486205593,-15,8,-11,3,-1,1,-1,0
1514960486221603,-16,-18,-7,1,-2,1,2,9
1514960486221603,9,-3,1,2,-1,1,5,12
1514960486223610,41,23,2,-2,-3,-3,-18,-45
1514960486223610,38,1,15,3,0,0,4,-1
1514960486243617,-6,-4,-47,-15,-1,-2,0,-5
1514960486243617,-44,-3,-39,-12,-6,-2,-5,6
1514960486245620,31,-13,-7,-12,-3,-1,7,12
1514960486245620,14,8,-2,4,0,1,-9,15
1514960486258628,13,-12,12,-6,-2,-4,-1,-28
1514960486258628,-6,19,22,19,0,0,4,12
1514960486265632,-36,-11,-13,5,-1,2,2,4
1514960486265632,12,14,-7,-13,-6,-4,-3,1
1514960486281644,-40,-11,17,-6,-1,2,2,6
1514960486281644,35,3,1,-4,0,0,-3,-6
1514960486283646,-7,7,-2,3,-1,-2,1,9
1514960486283646,15,-11,0,-2,0,-1,-2,0
1514960486304669,24,11,9,17,2,2,-2,-21
1514960486304669,-51,-7,-2,-10,-4,-1,3,-3
1514960486305664,-25,-15,-14,-5,2,-2,-2,0
1514960486305664,22,5,1,-3,1,1,2,-2
1514960486318670,-12,6,-10,-3,1,-1,-3,0
1514960486318670,-7,-1,23,11,-1,1,2,-5
1514960486325676,12,-5,-17,0,-3,-2,0,-2
1514960486325676,-6,11,6,-13,0,1,0,1
1514960486342687,17,-34,-21,-8,-8,-7,-7,-8
1514960486342687,46,19,16,3,2,1,0,5
1514960486344689,-86,-15,-5,-2,-2,-1,-4,-4
1514960486344689,-2,-9,-4,4,-3,-2,-2,-14
1514960486363703,1,23,15,11,4,2,4,18
1514960486363703,15,-30,-17,-21,-5,-4,-8,-17
1514960486365704,65,24,5,6,-1,1,-1,1
1514960486365704,-27,-18,-10,7,-1,1,2,7
1514960486377712,22,22,16,5,0,2,3,4
1514960486377712,-58,-14,-6,2,3,0,0,-4
1514960486386721,70,15,2,-7,-2,-1,0,19
1514960486386721,-41,-30,-8,-6,-2,-4,-5,-23
1514960486401737,19,18,17,4,-2,-2,-2,8
1514960486401737,-8,0,-2,18,1,3,5,12
1514960486402731,-14,-24,-11,-40,-3,-4,-5,-24
1514960486402731,32,3,-41,-9,-5,-3,0,6
1514960486423745,-55,-12,10,-3,2,2,1,4
1514960486423745,52,24,11,7,-2,-2,-4,-3
1514960486425746,-40,-22,-21,0,-3,-2,2,13
1514960486425746,31,-3,3,3,-2,-4,-10,-42
1514960486437754,3,-5,-4,8,3,0,-1,1
1514960486437754,-21,-11,7,-9,0,-2,-2,-3
1514960486446761,-12,11,7,0,-1,0,3,8
1514960486446761,32,19,3,-1,2,1,0,4
1514960486461771,-4,-17,6,4,-3,-1,0,-3
1514960486461771,11,-14,-15,0,1,-2,-4,-10
1514960486462771,-39,6,7,11,2,4,1,-3
1514960486462771,-44,-6,-5,-17,-5,-5,-5,2
1514960486483825,22,15,27,9,0,0,0,-3
1514960486483825,-8,-17,-46,-20,-3,0,2,8
1514960486485788,14,22,13,14,0,0,-3,-12
1514960486485788,27,20,10,0,1,2,5,20
1514960486497797,23,17,-4,-3,-1,0,-5,-8
1514960486497797,-36,-36,3,6,-7,-7,-7,-15
1514960486506804,54,10,-8,-7,4,1,2,8
1514960486506804,-4,3,8,2,4,0,0,11
1514960486521823,15,0,-7,-7,-7,-6,-5,-6
1514960486521823,-1,9,11,-2,0,1,0,1
1514960486522824,41,22,11,7,1,1,2,5
1514960486522824,-71,-22,4,8,-3,1,3,8
1514960486543886,-6,12,-7,3,-1,0,2,4
1514960486543886,32,6,-1,-12,0,0,0,-3
1514960486545840,-59,-27,-8,-10,-2,-4,-2,-5
1514960486545840,-18,7,4,5,-1,0,-1,-2
1514960486557840,-13,-8,-8,-1,-5,-4,-4,-1
1514960486557840,-35,8,9,8,-1,-2,-3,-8
1514960486566858,6,5,-1,0,-1,1,-1,-2
1514960486566858,5,13,1,4,-1,-2,2,1
1514960486581872,-23,-38,-6,-15,-4,-4,-2,-6
1514960486581872,1,12,5,3,-1,1,-5,-10
1514960486582857,48,0,-4,0,-4,-4,-3,-4
1514960486582857,38,24,4,0,1,2,-3,-7
1514960486603884,-12,-41,-2,3,-3,-2,-1,7
1514960486603884,32,24,5,-2,4,1,3,4
1514960486605893,-17,-20,-12,0,-3,-1,0,-5
1514960486605893,5,-18,-8,-11,-4,-1,1,15
1514960486617896,29,16,11,4,1,0,-3,-21
1514960486617896,4,-1,8,-2,-4,-2,-3,0
1514960486626888,-5,-10,-17,-1,-4,-1,-5,-10
1514960486626888,36,21,3,10,0,1,6,19
1514960486641927,-29,-32,-12,-32,-1,-2,-8,-20
1514960486641927,-9,8,-11,-9,-2,1,1,2
1514960486642900,-15,-10,2,22,-7,-3,0,3
1514960486642900,10,16,-5,-14,-1,-1,0,-22
1514960486663917,-14,-13,2,14,3,-3,-3,10
1514960486663917,9,11,0,-7,0,-1,0,0
1514960486665944,-3,21,14,3,-2,1,2,4
1514960486665944,13,-24,-18,-8,-4,-3,-5,-2
1514960486677947,-18,28,0,-2,1,4,10,29
1514960486677947,-13,-23,4,6,4,3,-6,-28
1514960486686981,-16,-1,2,-5,0,-3,2,14
1514960486686981,13,-5,5,3,-2,-2,-5,-4
1514960486702014,6,3,-9,-8,-2,-1,3,10
1514960486702014,42,3,13,12,-3,-5,-3,-8
1514960486703015,-25,-39,-8,-3,1,-3,-8,-33
1514960486703015,-20,-11,-10,-6,-1,-2,-3,-6
1514960486724030,-35,-23,-1,-1,-1,0,5,9
1514960486724030,47,38,4,15,-6,-3,-1,1
1514960486725030,40,2,-6,-19,2,-1,-4,3
1514960486725030,-68,-35,5,12,0,1,1,-13
1514960486738052,-6,13,8,12,-1,2,0,-6
1514960486738052,33,37,-15,-12,-3,-1,6,26
1514960486747047,-45,-19,13,-3,7,2,0,-4
1514960486747047,-28,-10,7,5,-7,-5,-3,0
1514960486761115,29,39,1,9,8,3,1,4
1514960486761115,0,7,-4,-8,-3,-5,-2,-4
1514960486763057,-91,-32,-10,-4,-4,-3,-2,18
1514960486763057,46,4,3,11,-1,-1,0,-3
1514960486791106,5,23,-3,-14,3,1,5,6
1514960486791106,-43,-41,-8,-7,-1,-3,-11,-8
1514960486793090,30,19,2,13,-2,-1,0,8
1514960486793090,-14,2,-2,-4,1,1,2,13
1514960486806087,10,-3,9,-1,-4,1,-2,-20
1514960486806087,4,17,14,-7,-1,-2,1,5
1514960486808090,13,13,1,2,-2,0,3,-6
1514960486808090,-28,-28,-12,-14,1,0,-3,1
1514960486821098,14,26,11,22,-2,-1,0,-2
1514960486821098,-27,-21,-21,-19,-1,3,0,8
1514960486823099,24,27,5,-10,-5,-3,-2,-1
1514960486823099,17,-24,-4,0,3,0,2,15
1514960486844133,-3,-11,-2,-1,-8,-3,-11,-24
1514960486844133,-43,5,10,-1,8,4,4,-9
1514960486845133,25,-30,-6,-9,-2,0,9,30
1514960486845133,19,50,4,-6,-2,-2,-13,-53
1514960486866187,-35,-57,-11,-2,-2,3,6,34
1514960486866187,-39,-15,-2,-10,2,-1,-8,-11
1514960486868133,25,52,9,32,-6,0,-3,-23
1514960486868133,-61,-38,4,-29,3,-3,-4,0
1514960486881140,-20,-1,-14,0,-1,-4,-1,2
1514960486881140,-7,-10,1,18,-2,-1,3,0
1514960486883142,4,-27,-9,-19,-1,-1,-5,4
1514960486883142,66,68,1,5,-1,1,6,14
1514960486904158,2,-56,-8,1,-2,-5,-3,0
1514960486904158,-13,12,-1,-15,-6,-3,-9,-13
1514960486905159,-19,12,-4,-4,4,5,10,5
1514960486905159,33,8,6,12,-1,-3,-11,-20
1514960486926228,-14,65,8,-12,-2,0,6,12
1514960486926228,19,-65,-2,12,-4,-2,-7,-22
1514960486928175,-20,6,9,18,3,2,2,3
1514960486928175,-15,9,-12,-41,1,2,-1,-2
1514960486941199,-16,-4,-4,21,-12,-8,-4,12
1514960486941199,18,27,9,-5,10,6,2,-1
1514960486943184,-6,9,-3,-2,-1,-3,-5,-21
1514960486943184,-33,-33,-2,8,-2,1,8,19
1514960486964202,49,10,-6,-2,1,-2,-11,-19
1514960486964202,-7,19,27,3,-4,1,10,26
1514960486965200,-38,-34,-22,-4,-4,-5,-8,-13
1514960486965200,-10,15,-22,10,-2,-1,1,1
1514960486987220,12,-16,-11,-22,0,1,-4,-23
1514960486987220,23,1,-22,-3,-2,-3,-2,18
1514960486993221,8,-15,5,3,1,0,-2,-23
1514960486993221,22,-18,4,11,-6,-4,-3,2
1514960487001230,3,21,6,-2,5,4,2,-9
1514960487001230,40,4,-2,23,2,2,8,20
1514960487008231,-24,-20,-1,-19,-1,-2,-7,-30
1514960487008231,5,-2,-3,-1,-4,-3,2,3
1514960487024247,-5,17,2,3,3,2,0,7
1514960487024247,-6,-28,-3,-3,-6,-3,-2,-3
1514960487025243,22,20,12,5,0,1,0,16
1514960487025243,-38,9,16,6,2,0,5,23
1514960487047261,-5,-4,-3,14,-6,-2,-5,-49
1514960487047261,-8,-15,-16,-28,-4,-3,-4,-15
1514960487052263,47,20,-2,-4,-1,-1,1,20
1514960487052263,-83,-43,-13,-4,0,-3,-7,-20
1514960487061270,-20,-26,-1,3,-3,-5,3,20
1514960487061270,-3,15,-11,14,-4,-3,-1,-4
1514960487067316,33,1,19,-3,0,-3,-2,1
1514960487067316,8,-12,-2,-18,-3,2,3,10
1514960487084343,10,18,5,2,4,0,-5,1
1514960487084343,-14,-11,1,14,-2,-1,1,1
1514960487085284,-9,-31,-19,-10,-1,-1,-2,15
1514960487085284,7,47,24,12,0,-1,-1,2
1514960487106301,9,-12,3,0,2,3,2,3
1514960487106301,-26,-4,-5,-7,0,-2,-4,-3
1514960487108302,-22,-3,-6,3,-5,-3,-1,-5
1514960487108302,56,4,9,9,4,0,-1,-2
1514960487129365,-17,-7,-12,-15,-5,-3,-1,-7
1514960487129365,-9,-17,10,2,4,0,0,-19
1514960487130317,48,21,-1,7,-5,0,4,18
1514960487130317,-12,-33,-3,-17,-7,-4,-6,-5
1514960487143442,-25,-15,-11,1,-1,-5,-7,-15
1514960487143442,47,22,9,-8,-4,-1,-4,-4
1514960487145432,-12,-25,-17,22,0,-2,-5,-8
1514960487145432,18,18,-11,-17,-7,0,2,-9
1514960487167438,14,0,8,1,-3,-2,-1,31
1514960487167438,-39,-19,-6,-10,-1,2,-2,1
1514960487168450,19,27,11,-9,-3,-2,-2,5
1514960487168450,4,-14,-5,17,0,-1,0,7
1514960487189453,-3,-2,-2,-10,0,-2,-1,-5
1514960487189453,-9,0,-15,-1,1,-2,-1,0
1514960487190454,3,11,2,-11,0,-3,-2,-5
1514960487190454,-16,10,9,16,0,-1,-1,5
1514960487203487,-8,-22,-16,-10,-3,-1,-6,-10
1514960487203487,59,21,4,13,-2,0,3,16
1514960487205489,-31,-26,-5,-15,6,0,-1,-6
1514960487205489,-36,-18,13,5,-2,-6,-10,-1
1514960487226508,76,18,-7,2,1,3,-1,-31
1514960487226508,-27,-28,-8,-3,-3,-2,5,37
1514960487228507,-9,26,15,-7,-3,-3,-3,5
1514960487228507,35,10,-28,-8,2,3,3,3
1514960487240539,-12,-14,24,-15,-2,-2,-3,-1
1514960487240539,-20,6,2,0,-1,0,2,21
1514960487247525,-29,-22,9,-11,1,1,0,-13
1514960487247525,31,19,1,5,1,1,3,5
1514960487263556,0,8,-1,8,-1,-3,-3,2
1514960487263556,-15,-18,-2,5,0,-2,-2,-21
1514960487265533,-29,-8,-13,-7,-2,-1,1,15
1514960487265533,16,5,10,-4,-2,-2,-2,-18
1514960487286557,27,18,-1,-2,0,2,3,24
1514960487286557,14,-22,-2,8,-3,-6,-5,-8
1514960487288548,46,27,5,-3,0,1,2,5
1514960487288548,-28,-25,-11,5,-3,-4,-4,-5
1514960487299558,9,8,-12,2,4,1,1,3
1514960487299558,-4,-21,2,-22,1,1,0,-6
1514960487309565,31,13,-13,6,-2,1,1,5
1514960487309565,-23,24,10,8,2,0,1,-1
1514960487324573,2,6,7,2,1,-2,0,8
1514960487324573,-43,-7,-28,-7,-2,-3,-2,-1
1514960487331578,20,-22,5,4,0,0,-3,-9
1514960487331578,-5,-6,-11,-4,-2,-2,0,-6
1514960487346591,-26,32,9,4,-4,-2,3,15
1514960487346591,19,-21,-4,10,4,3,-2,-11
1514960487348592,-27,22,7,-18,1,0,0,-14
1514960487348592,18,-12,-1,6,-1,-3,-2,7
1514960487359600,-17,11,9,13,-6,-4,-2,9
1514960487359600,27,24,-9,-30,2,2,-3,-6
1514960487369607,-20,-9,-3,23,-4,-4,0,6
1514960487369607,22,10,6,-3,-2,1,-5,-20
1514960487383668,-22,-46,-15,-17,4,3,5,10
1514960487383668,7,25,12,7,-1,-2,1,15
1514960487385618,-39,-1,0,-1,-3,-4,-10,-18
1514960487385618,11,14,-22,-19,-3,-1,3,0
1514960487413642,20,-43,8,24,2,-2,-3,-17
1514960487413642,-27,10,-6,-8,-7,-3,-1,-4
1514960487415643,-17,-8,-2,-11,-3,0,3,4
1514960487415643,39,-23,-9,2,2,0,1,9
1514960487419646,-34,15,0,-4,0,2,2,2
1514960487419646,9,-22,4,-2,1,1,-4,-10
1514960487429647,4,6,5,0,-3,-2,-2,-3
1514960487429647,13,-26,5,-2,-3,-2,4,3
1514960487444683,-39,-22,-17,7,-3,1,1,16
1514960487444683,3,16,9,-10,0,-2,-3,-23
1514960487445669,1,10,0,-4,1,2,3,6
1514960487445669,-28,-13,-2,20,-3,-2,-3,-10
1514960487466675,20,-6,-8,-14,3,0,-1,3
1514960487466675,-36,-10,-15,3,-6,-4,-4,-2
1514960487467676,-10,-26,-3,7,0,-3,-2,-4
1514960487467676,-35,47,10,-8,1,0,0,-12
1514960487480686,2,-14,4,10,-1,-1,-3,-7
1514960487480686,-26,-14,4,-12,-3,-4,-5,-20
1514960487489691,17,1,-1,12,-1,0,1,-4
1514960487489691,36,-7,-4,-1,-2,0,-3,22
1514960487503726,17,48,2,-10,-1,3,1,8
1514960487503726,-5,-10,20,6,-2,-2,0,1
1514960487505703,18,6,2,1,-1,-1,3,7
1514960487505703,-17,6,-3,-4,0,0,0,8
1514960487526759,10,14,10,1,-3,-4,-4,-13
1514960487526759,-17,2,-30,2,-2,-3,0,7
1514960487527717,4,3,13,5,0,0,0,9
1514960487527717,-88,-24,-1,-10,-2,1,-2,-5
1514960487539795,-1,-6,-3,-8,-1,-3,-4,-9
1514960487539795,26,20,7,8,-1,0,1,-9
1514960487548790,10,14,-6,6,-3,-1,1,23
1514960487548790,15,-36,-11,-9,2,0,-1,-17
1514960487563818,-14,8,-5,-8,-2,-2,-1,0
1514960487563818,10,-4,-11,5,-4,-3,-5,-8
1514960487565819,10,16,4,11,1,1,7,16
1514960487565819,-9,-17,4,-3,-3,-3,-8,-22
1514960487586831,6,-6,-8,-3,-6,-2,1,6
1514960487586831,-7,18,9,-5,2,5,6,-2
1514960487587819,29,-2,3,3,-3,-3,-7,-25
1514960487587819,-33,-14,-10,-13,-3,-3,-4,3
1514960487599826,-8,12,6,-2,2,-2,0,-20
1514960487599826,36,1,6,5,-1,-2,-2,12
1514960487608832,-38,-32,-11,0,-1,-3,-4,-9
1514960487608832,28,5,-2,-11,-1,-1,-2,-1
1514960487623844,44,22,9,1,0,-1,-1,-14
1514960487623844,-17,-11,12,1,3,3,0,12
1514960487625864,-2,8,-8,-7,-2,0,-1,3
1514960487625864,-35,-4,18,3,0,-3,-3,-21
1514960487646873,-5,-10,-10,-11,-6,-3,-1,11
1514960487646873,7,2,-18,8,2,-2,0,3
1514960487647861,-22,-8,7,-18,-2,4,3,3
1514960487647861,22,5,-24,2,-3,-1,2,32
1514960487659882,-15,-8,3,-11,1,-4,-4,9
1514960487659882,-12,-35,6,7,-5,-3,1,-7
1514960487668875,-11,4,-12,-12,-1,0,-4,-19
1514960487668875,20,-10,9,15,6,4,9,16
1514960487683886,7,7,-3,-7,-1,2,-1,-4
1514960487683886,-3,9,-3,-6,0,-1,0,-6
1514960487685888,12,10,10,7,1,-2,0,13
1514960487685888,-19,0,5,0,-3,0,-7,-13
1514960487706918,-12,-2,0,3,-1,-3,-1,3
1514960487706918,26,12,-3,-2,2,-2,-7,-9
1514960487707902,0,-8,-9,3,-5,-2,1,0
1514960487707902,-2,11,0,-7,1,-1,-7,-2
1514960487720912,5,-6,-3,4,0,-1,1,-5
1514960487720912,-8,2,-5,-11,-3,0,2,3
1514960487728941,30,-8,-2,-2,1,-1,-3,-5
1514960487728941,37,21,2,-1,4,3,0,16
1514960487744046,-29,-12,3,20,-3,-3,1,-6
1514960487744046,17,-16,5,-27,0,-1,-2,3
1514960487746054,14,18,-1,3,4,2,4,6
1514960487746054,2,-2,-8,-4,-8,-4,0,-6
1514960487766068,-13,-5,2,3,0,0,-2,9
1514960487766068,28,26,5,13,1,0,7,16
1514960487768051,21,-13,-9,-4,-5,-3,-4,14
1514960487768051,9,-3,-5,-7,-2,-4,-1,-21
1514960487789077,-2,-17,-2,1,6,3,-1,6
1514960487789077,2,-11,-6,1,-3,-3,2,6
1514960487790066,4,2,4,-2,-4,-5,-2,4
1514960487790066,41,23,7,2,-3,-1,2,-2
1514960487804089,2,-9,5,-9,-2,1,-2,3
1514960487804089,-5,10,5,-2,0,1,-3,-12
1514960487805073,-4,-18,-10,23,3,0,-1,-7
1514960487805073,-8,4,-5,-28,-4,-3,-3,2
1514960487826118,11,6,3,-13,-3,-5,-5,-32
1514960487826118,-26,8,2,-2,-3,-1,1,3
1514960487828100,-17,-23,0,-8,0,-2,-2,-1
1514960487828100,-3,24,0,23,-2,-3,2,11
1514960487849115,-3,-3,3,-2,4,0,-3,-9
1514960487849115,-24,2,4,4,-3,-4,-7,-6
1514960487850116,22,18,-2,-13,3,0,2,-6
1514960487850116,-75,-31,0,9,-1,0,2,22
1514960487864115,14,0,-12,-3,-2,-1,-5,-23
1514960487864115,22,20,6,11,0,0,2,10
1514960487865127,-33,-7,0,-5,3,2,-4,-8
1514960487865127,25,3,9,1,-1,0,1,6
1514960487886131,-8,-9,-9,3,-7,-1,1,-8
1514960487886131,-12,2,-8,0,9,2,5,5
1514960487888143,-4,26,2,-5,-1,-1,-2,-4
1514960487888143,-3,-26,-6,6,3,2,0,4
1514960487909204,-9,-4,3,5,0,-3,-3,4
1514960487909204,12,2,12,24,-5,-1,0,5
1514960487911148,0,0,-12,-22,-3,-3,-4,0
1514960487911148,-46,7,23,7,1,-2,0,-3
1514960487924167,1,4,-8,0,1,1,2,5
1514960487924167,-30,-12,12,1,0,0,-4,-1
1514960487925158,-18,-16,-1,7,-5,-3,-6,-6
1514960487925158,7,5,-8,-8,-1,-1,-4,-29
1514960487946231,11,6,-7,2,2,-1,5,17
1514960487946231,-7,-13,8,-11,-3,-1,-7,-43
1514960487948186,-11,-6,-9,6,-2,-2,-1,-11
1514960487948186,39,35,7,-3,-1,0,-1,-6
1514960487969199,-7,-29,-13,6,-6,-1,-2,0
1514960487969199,-21,2,-8,-7,1,-1,-1,-7
1514960487970199,18,4,-5,-4,0,2,2,4
1514960487970199,26,19,5,6,0,0,1,7
1514960487983236,-41,-31,-8,5,-3,0,-1,1
1514960487983236,3,-3,-9,-6,-3,0,-1,13
1514960487998209,-19,1,12,2,-3,-3,-6,-38
1514960487998209,0,-10,-15,-13,3,2,5,9
1514960488006227,23,45,22,0,-6,-4,-4,3
1514960488006227,19,-8,-13,-4,3,-2,0,-8
1514960488008229,0,4,1,-2,-4,-1,4,10
1514960488008229,2,-8,-5,3,-3,-3,-2,0
1514960488029298,-7,24,-1,-5,-1,0,-1,-3
1514960488029298,23,-8,10,-16,-4,-1,-5,-10
1514960488030236,-14,-9,-32,3,4,2,-1,8
1514960488030236,2,-9,-2,-1,-4,0,-2,-4
1514960488043306,-11,-23,11,-7,0,-2,2,3
1514960488043306,35,39,-20,6,-2,-2,0,3
1514960488050251,-47,-10,14,-3,2,2,3,23
1514960488050251,28,1,-7,-6,-3,-1,1,-5
1514960488066262,31,9,-9,-3,3,0,-1,-5
1514960488066262,-19,-26,4,10,-1,1,3,14
1514960488068264,-33,11,2,-17,-1,-3,-8,-21
1514960488068264,-16,-30,-22,4,-4,-3,-5,-7
1514960488089275,19,14,5,16,-1,-1,1,5
1514960488089275,-8,-1,-11,-26,0,-1,-3,-5
1514960488090275,24,-36,8,4,-3,-3,3,38
1514960488090275,-28,1,14,1,-1,-2,-10,-46
1514960488103287,8,-5,-8,-4,0,0,-1,-1
1514960488103287,-12,13,-1,6,-3,-1,2,-1
1514960488110289,14,-5,9,10,1,1,0,-11
1514960488110289,-39,-8,-7,-7,1,-2,-3,0
1514960488126303,-15,-19,2,-11,-3,-3,-2,-9
1514960488126303,19,4,-5,13,4,2,1,12
1514960488128303,24,29,12,-5,-3,1,-1,-7
1514960488128303,-25,-38,5,5,-6,-6,-2,14
1514960488149384,-43,21,-5,-8,3,3,-4,-16
1514960488149384,-53,-17,-5,-1,-3,-4,-4,-4
1514960488150363,35,3,2,1,-1,-2,0,3
1514960488150363,1,10,0,4,1,1,1,-9
1514960488163395,-9,-11,-7,-8,-5,-5,-3,0
1514960488163395,-33,-18,7,1,-4,-2,-5,-8
1514960488170398,20,8,-13,-7,-1,1,4,4
1514960488170398,36,5,9,7,-1,-4,-3,4
1514960488186402,8,8,-8,-13,-4,-3,-4,4
1514960488186402,-10,-13,-3,14,-4,-4,-2,0
1514960488188400,-5,-14,-9,-11,3,2,-1,-19
1514960488188400,40,31,-10,11,-3,-2,2,13
1514960488209405,2,-42,-4,-9,4,-1,-3,2
1514960488209405,12,25,6,-6,1,-4,-1,3
1514960488210415,-34,-19,-16,-1,-8,-7,-8,-14
1514960488210415,7,1,-3,-9,-2,2,2,8
1514960488223454,0,12,11,8,2,1,3,9
1514960488223454,29,-2,4,13,-2,0,1,-3
1514960488237453,-5,4,-2,-9,2,1,2,28
1514960488237453,-5,-2,-7,-5,-3,-4,-7,-11
1514960488246459,-24,-4,-2,-6,-5,-1,1,-1
1514960488246459,4,-11,-3,-12,1,2,4,11
1514960488248461,16,9,-10,5,-3,-6,-1,-13
1514960488248461,-44,2,11,1,4,2,4,25
1514960488268491,36,15,-4,2,-2,0,-4,-15
1514960488268491,33,20,-9,-3,-2,-2,-1,9
1514960488276491,5,-10,22,4,0,0,2,12
1514960488276491,-23,-4,-3,-2,1,-2,-5,-30
1514960488282503,-4,15,9,8,3,1,2,7
1514960488282503,5,-28,-7,-3,-2,-2,-8,3
1514960488291503,-43,4,3,-13,-3,-3,-4,-2
1514960488291503,70,-2,5,1,2,0,4,9
1514960488306501,-46,-2,1,1,0,-1,0,-1
1514960488306501,11,37,2,-8,-1,-1,-2,-7
1514960488308504,5,-23,-1,24,1,-2,-3,-11
1514960488308504,-38,0,7,-18,-1,1,5,12
1514960488328540,-14,-20,-17,-4,-3,-4,-2,-14
1514960488328540,-24,17,9,-10,-1,0,1,-4
1514960488330519,6,-8,-7,10,6,1,0,-3
1514960488330519,24,-16,-14,3,-2,0,-1,4
1514960488342550,-6,6,11,-3,-2,-1,-1,2
1514960488342550,-1,1,-1,0,-2,1,1,-4
1514960488351533,-31,13,2,-6,-2,-3,0,1
1514960488351533,37,-27,-29,-1,-3,-3,-4,2
1514960488366570,-4,3,11,5,1,0,-2,-14
1514960488366570,6,-11,-12,-6,-6,-3,-3,-6
1514960488368552,-16,14,-1,-9,3,2,-1,-11
1514960488368552,4,19,1,-2,-5,-5,0,6
1514960488388561,15,-4,-2,1,-1,-2,-2,-25
1514960488388561,9,-12,-5,-1,-4,-2,1,1
1514960488390562,5,2,-10,4,3,0,1,-2
1514960488390562,-20,-15,10,3,-5,-2,-1,1
1514960488402594,-12,-10,-22,-7,-3,-3,-2,-2
1514960488402594,22,12,5,6,2,0,1,-1
1514960488411600,12,-13,-5,-1,-3,-1,-4,5
1514960488411600,-53,-34,4,-1,-1,-3,-2,-2
1514960488426602,16,4,-10,-5,-3,-2,-2,16
1514960488426602,7,20,14,3,1,-2,-4,-16
1514960488428591,11,-3,-4,16,-2,-2,1,13
1514960488428591,-8,5,1,-6,2,0,-6,-20
1514960488448602,2,-18,-17,-18,0,0,3,10
1514960488448602,-8,5,6,-1,0,1,1,10
1514960488450604,3,15,18,-8,-6,-3,-7,-19
1514960488450604,-14,2,-26,8,0,0,3,10
1514960488462612,-45,20,11,-4,4,4,3,8
1514960488462612,-17,-25,-13,3,-2,-1,-3,-9
1514960488471634,-10,-6,11,-7,-5,-4,1,13
1514960488471634,55,0,-1,6,-1,2,-2,-13
1514960488486630,-11,-1,5,-5,-2,-2,-2,3
1514960488486630,-2,-5,5,4,-1,0,4,2
1514960488487631,21,13,-18,-9,-6,-6,-5,-9
1514960488487631,-15,-14,-1,-12,3,2,0,-8
1514960488508700,35,-9,-2,19,0,2,1,5
1514960488508700,-22,-1,6,0,-3,-2,-2,4
1514960488510646,7,-10,1,-28,-1,1,0,-2
1514960488510646,-13,7,12,2,-3,-3,2,10
1514960488522664,20,11,-1,-2,-2,-1,-3,0
1514960488522664,-15,-7,1,8,2,0,0,-6
1514960488531664,-5,-6,-10,12,-1,3,2,1
1514960488531664,3,17,9,-18,3,-1,-2,7
1514960488553677,-8,-6,3,6,-4,-3,-3,-3
1514960488553677,15,3,-2,-3,2,0,1,5
1514960488555678,-29,3,-6,19,-1,-3,-1,9
1514960488555678,29,-19,10,-6,-5,-3,-7,-25
1514960488568717,15,11,9,6,-1,-2,2,1
1514960488568717,-3,-7,-12,-11,1,-1,-1,1
1514960488570690,4,-21,-2,13,-1,1,-2,-6
1514960488570690,-2,24,1,-11,3,2,4,22
1514960488582758,-26,-33,7,10,-3,-3,-5,12
1514960488582758,19,12,2,-10,-2,-1,-1,-16
1514960488591712,10,-4,11,-1,1,3,2,0
1514960488591712,-4,13,-3,8,-1,1,0,-1
1514960488605715,10,-21,-5,0,-1,1,4,-1
1514960488605715,-7,-8,-8,-3,-2,-3,-4,-3
1514960488606716,6,20,-5,-1,1,-1,0,-3
1514960488606716,-14,-5,2,18,0,-3,-2,-5
1514960488628743,13,14,-11,-24,6,4,0,2
1514960488628743,0,-26,-9,5,-2,-4,-3,-7
1514960488628743,4,15,9,-10,-1,-1,0,2
1514960488628743,4,7,-6,-2,-2,1,-2,-15
1514960488650758,-6,-1,1,2,-1,-1,0,2
1514960488650758,-30,-30,-19,1,-4,-2,-6,-10
1514960488651746,13,13,-3,-7,-1,2,-1,-10
1514960488651746,-21,7,10,-1,3,1,2,3
1514960488665758,-13,-1,-10,9,-5,-3,-1,3
1514960488665758,34,18,8,-16,-3,-2,0,-4
1514960488666756,-48,-22,-10,26,-8,-3,-1,4
1514960488666756,49,-4,-2,-41,3,5,2,-4
1514960488687783,15,22,-3,-4,-4,-10,-10,-13
1514960488687783,-55,-22,9,-3,-5,0,0,3
1514960488688773,0,5,3,13,0,1,-1,-1
1514960488688773,-10,6,-27,6,-6,-3,-1,9
1514960488711790,-10,-7,9,-23,1,1,0,-10
1514960488711790,-2,-2,-4,-1,1,4,5,2
1514960488718795,11,-14,-2,-13,-4,-10,-8,-12
1514960488718795,0,9,-1,19,-1,2,3,15
1514960488725836,-19,-14,-18,1,0,0,0,9
1514960488725836,-5,4,1,1,-3,-4,-5,-7
1514960488726799,6,18,5,-10,-2,0,2,8
1514960488726799,-15,-9,-10,-7,0,-4,-3,-6
1514960488747813,-9,-7,7,5,0,1,3,15
1514960488747813,-20,8,-10,1,-1,-3,-3,15
1514960488748829,-33,-13,-20,-7,1,1,-4,-14
1514960488748829,12,21,22,9,-5,-4,-2,-12
1514960488770829,-3,-9,-11,1,2,1,-2,-12
1514960488770829,9,-10,5,-5,0,1,2,17
1514960488771869,8,9,-4,-9,1,-1,-5,-19
1514960488771869,-31,-19,-1,5,-2,-3,-1,-5
1514960488785854,12,6,14,7,-1,3,5,3
1514960488785854,55,25,7,13,2,-2,-2,-8
1514960488786846,-10,-21,3,-14,-3,-3,-1,10
1514960488786846,-7,-2,-2,-2,0,0,-4,13
1514960488807862,-5,17,0,11,-2,0,-1,-3
1514960488807862,-37,-29,-7,-4,-3,-3,-5,-9
1514960488808863,18,18,7,-2,4,1,2,9
1514960488808863,-11,-14,-10,5,-2,-2,-3,-15
1514960488830878,20,8,1,-18,-2,1,4,14
1514960488830878,29,8,0,7,3,0,-2,-7
1514960488831883,0,-17,-6,0,-1,0,-1,-8
1514960488831883,-35,5,6,5,-3,-3,-3,3
1514960488846021,-1,-3,1,-1,-4,-4,-3,-9
1514960488846021,12,13,-3,10,1,-1,0,4
1514960488847003,-29,-1,-7,-8,-4,-1,2,7
1514960488847003,13,-2,3,2,3,2,1,16
1514960488868028,13,-6,-3,1,-3,-3,-9,-29
1514960488868028,18,6,7,-16,-6,-2,-3,15
1514960488869029,-13,-11,-4,7,0,1,1,6
1514960488869029,9,18,5,-4,-1,0,-6,-14
1514960488891030,7,-22,-9,-1,0,-2,1,8
1514960488891030,-7,10,-1,2,2,1,3,1
1514960488892029,26,-3,1,1,-2,-3,-2,-3
1514960488892029,7,-21,-4,-5,-4,-3,1,1
1514960488906050,28,-1,-16,-8,-3,-2,-3,-2
1514960488906050,-14,-7,5,-1,0,-1,1,3
1514960488907042,0,17,18,-5,-2,-1,0,1
1514960488907042,-52,-16,-11,-4,3,-1,-2,-6
1514960488928055,4,3,3,6,-3,0,-1,-4
1514960488928055,-3,2,1,6,-2,-3,-4,-3
1514960488929056,7,10,6,20,-4,0,4,6
1514960488929056,20,5,-7,-22,-1,-4,-6,-12
1514960488951086,-13,-13,8,1,-1,0,0,3
1514960488951086,-13,-5,-6,-6,-2,-3,-1,-9
1514960488951086,20,0,0,-2,-2,-3,-1,1
1514960488951086,-6,-2,1,6,-2,-3,2,7
1514960488966098,-13,-4,0,0,-4,0,-6,-3
1514960488966098,11,-7,-4,-4,2,2,4,-14
1514960488966098,50,6,-5,-10,3,0,-4,-7
1514960488966098,-25,-17,10,7,-2,-1,0,5
1514960488996116,-14,1,2,-9,0,-3,-3,-16
1514960488996116,22,-7,-9,-5,-1,-1,1,13
1514960488997105,10,-23,-17,-5,-3,0,-3,-4
1514960488997105,16,34,-3,8,0,1,0,-21
1514960489011129,-29,0,5,5,0,-1,7,14
1514960489011129,3,-2,-1,-6,0,-1,-4,-4
1514960489011129,23,8,16,0,-1,0,-3,-5
1514960489011129,-40,-6,-6,11,-2,-1,1,10
1514960489026124,4,-6,-6,-12,-2,0,1,7
1514960489026124,0,11,-7,-5,1,2,0,-16
1514960489026124,-10,4,17,8,-4,-3,0,-5
1514960489026124,-4,-30,3,-12,9,3,1,16
1514960489048185,-10,6,-5,-7,1,-2,-4,-8
1514960489048185,-15,17,2,6,-3,-3,-4,-5
1514960489049170,-17,-17,-15,-7,-3,-1,0,-6
1514960489049170,31,1,-33,14,0,-1,1,-6
1514960489071202,4,14,5,-16,-2,-2,-11,7
1514960489071202,-22,-13,-2,-2,-1,-2,-2,-6
1514960489071202,-11,4,-4,6,2,-1,1,-4
1514960489071202,0,-4,-5,2,-6,-4,-4,-7
1514960489085238,39,6,-3,3,0,3,6,11
1514960489085238,-30,-9,2,2,0,1,0,-4
1514960489086196,-14,-11,-3,1,2,-1,-6,-13
1514960489086196,29,-22,3,-12,-5,-1,0,6
1514960489108222,24,33,8,2,-2,-4,-3,-8
1514960489108222,-2,-22,3,0,-2,-1,-3,5
1514960489109213,-26,-2,2,-3,-1,-1,-1,-1
1514960489109213,47,-4,18,-6,-5,-1,2,7
1514960489130291,-1,4,0,17,3,1,1,-15
1514960489130291,0,1,6,-12,-2,-3,-3,9
1514960489131275,-8,-4,-2,0,1,-1,-1,-3
1514960489131275,-6,15,5,2,-6,-1,-3,-2
1514960489146293,21,-21,-19,-6,-3,-3,0,-3
1514960489146293,-8,0,7,-7,2,1,-4,4
1514960489146293,-15,0,3,23,0,1,0,-2
1514960489146293,-8,11,-4,-15,-1,-1,1,6
1514960489168311,-33,-4,1,6,-2,0,2,5
1514960489168311,-4,-27,-15,-6,0,-2,-3,-9
1514960489169298,-1,5,-9,-15,-5,-3,-2,9
1514960489169298,11,13,6,0,1,0,0,8
1514960489190314,-27,-6,30,2,-3,-1,0,-7
1514960489190314,33,28,-5,6,-2,-2,-3,-12
1514960489191313,-13,-18,1,-10,-1,1,4,11
1514960489191313,9,11,-3,-3,-2,-4,-5,-4
1514960489205384,7,-24,-2,-4,0,-3,-1,2
1514960489205384,-3,-2,-2,11,-3,-2,2,1
1514960489206384,9,-6,-2,-6,-1,-1,-2,1
1514960489206384,-18,25,8,3,-3,-3,-4,-5
1514960489228459,41,6,-8,8,3,3,3,7
1514960489228459,-10,-4,14,13,-4,-4,0,-3
1514960489229404,8,9,-25,-17,4,0,-3,-3
1514960489229404,-39,-30,13,3,-2,-1,1,-5
1514960489250416,-6,-11,-38,-3,2,0,1,9
1514960489250416,53,15,-6,-3,-2,3,2,6
1514960489251416,44,28,28,3,-2,-2,-1,-17
1514960489251416,-8,-8,-11,-11,-2,-2,-2,8
1514960489265426,1,5,4,4,-5,-3,-4,-12
1514960489265426,6,-3,-4,-2,3,3,3,13
1514960489266427,-16,-1,0,-1,-3,-3,-2,-1
1514960489266427,1,-14,-8,6,-4,-4,-5,-12
1514960489288459,4,3,8,-5,-2,-2,-2,-2
1514960489288459,-36,-6,-6,8,-5,-2,-1,1
1514960489289446,-30,-15,-5,-22,4,1,2,-3
1514960489289446,46,-12,-6,7,3,1,3,-2
1514960489310457,-28,13,8,3,-2,-2,-6,-3
1514960489310457,4,2,-3,-3,-1,-1,0,-7
1514960489311458,26,15,-1,1,0,-1,1,1
1514960489311458,-32,9,-14,-13,0,0,-1,2
1514960489325550,-9,-15,-19,-4,-3,-3,-3,-22
1514960489325550,6,12,11,-2,0,-1,-1,4
1514960489333566,-6,-4,0,9,-3,-2,-2,-3
1514960489333566,14,9,1,-11,1,1,-3,-14
1514960489348611,15,-5,5,0,-2,-1,0,6
1514960489348611,-15,-10,-7,-6,-3,-1,-4,-3
1514960489349583,-21,-8,-12,9,-3,-3,1,13
1514960489349583,32,16,8,1,3,2,1,-4
1514960489370626,-11,1,-6,0,-2,-4,0,5
1514960489370626,10,8,-8,-9,2,0,-5,-11
1514960489371627,-15,-24,0,1,0,-2,1,14
1514960489371627,-4,1,8,-2,-5,-2,-2,-1
1514960489386629,4,-1,2,0,2,1,0,5
1514960489386629,-4,6,-7,9,0,-3,-1,4
1514960489393613,6,2,-8,-14,1,0,-1,0
1514960489393613,-9,29,7,5,-2,0,-3,2
1514960489408623,31,-6,-2,-2,-3,-1,-3,-12
1514960489408623,1,-22,3,1,-1,-2,0,-2
1514960489408623,2,23,0,5,-1,0,-4,5
1514960489408623,-2,-15,-3,11,-2,-2,3,6
1514960489430661,-1,-1,-16,-23,1,-2,-2,7
1514960489430661,-5,-9,10,-3,1,0,-1,-4
1514960489431640,-9,12,1,3,3,0,-1,-10
1514960489431640,9,-17,-5,0,-3,-4,0,1
1514960489453660,-12,-3,6,10,3,0,0,7
1514960489453660,9,19,-3,-6,-3,-5,-3,-2
1514960489454658,-21,-13,5,-4,-1,0,-4,-7
1514960489454658,-19,0,-11,3,0,-1,1,-2
1514960489468665,15,36,8,5,0,0,1,3
1514960489468665,-24,-31,-5,-7,-2,0,3,1
1514960489468665,21,-13,-14,-3,-2,1,1,-4
1514960489468665,-29,6,0,0,-4,-6,-5,1
1514960489490705,-5,-6,0,-8,-1,-2,0,-5
1514960489490705,15,14,-2,6,-1,-1,2,8
1514960489491692,-7,-10,-5,4,-5,-1,-3,-6
1514960489491692,11,-5,11,-13,0,0,-1,4
1514960489513711,-29,-7,-6,0,-2,-1,1,-7
1514960489513711,-8,8,12,3,-2,-2,-1,0
1514960489514724,6,-28,-15,-2,-1,0,-2,-5
1514960489514724,-8,12,-3,-5,1,-2,-4,-5
1514960489528711,19,-7,3,1,0,3,5,3
1514960489528711,-8,-15,-1,-2,-1,-2,-6,-6
1514960489528711,25,26,11,3,-2,0,0,0
1514960489528711,-28,-38,-3,-2,-3,-3,1,-8
1514960489550726,-2,12,8,3,1,1,-10,-8
1514960489550726,11,3,-9,-2,1,0,3,1
1514960489551725,6,13,9,-1,-1,-1,-2,3
1514960489551725,-16,-13,-17,-6,0,-1,-1,-5
1514960489564739,-10,-8,5,-1,-3,-1,-1,-4
1514960489564739,-18,-15,-9,-5,0,0,-4,0
1514960489573741,-2,-6,10,-1,-5,-7,-7,-10
1514960489573741,20,20,-1,11,2,1,3,5
1514960489588752,-34,-30,-4,-1,-4,-4,-2,-7
1514960489588752,10,15,0,-10,-1,-1,0,4
1514960489588752,-9,-5,-17,-1,-2,-1,1,0
1514960489588752,2,7,4,7,0,-3,-1,0
1514960489610772,-1,-8,7,0,-1,-3,-2,-1
1514960489610772,-4,5,4,-2,-1,0,-1,0
1514960489611773,-15,-7,0,2,0,1,3,1
1514960489611773,9,4,1,-2,-1,0,-2,-6
1514960489624776,-3,10,0,4,0,-3,-4,-2
1514960489624776,-11,6,19,-3,-1,0,1,1
1514960489633786,-1,-8,-2,-3,-2,-2,-3,-2
1514960489633786,7,-3,-5,0,-1,2,5,3
1514960489647795,-5,-1,0,-5,1,-1,1,6
1514960489647795,-8,8,-1,9,-1,1,0,-25
1514960489648796,-10,-2,-1,2,0,-4,-6,-3
1514960489648796,-2,-3,1,-10,-2,0,-1,4
1514960489670810,-12,6,-3,-1,-4,-2,0,5
1514960489670810,14,4,-8,-5,0,0,0,0
1514960489671811,-3,-1,6,2,-2,1,2,8
1514960489671811,-8,-3,-1,2,0,-3,-5,-5
1514960489693878,10,4,0,-2,-2,0,-4,3
1514960489693878,1,4,-11,-4,-2,-1,0,0
1514960489694840,10,0,3,-3,-1,-1,-2,-1
1514960489694840,-19,-7,0,3,-1,1,-5,0
1514960489707835,8,1,-3,-5,-1,0,1,-1
1514960489707835,0,-7,-2,0,-2,-1,-1,5
1514960489708835,-6,-9,-3,-5,2,0,-3,-3
1514960489708835,13,-7,7,-1,-3,-2,-1,0
1514960489730860,-1,9,-21,-1,-2,-2,-2,-5
1514960489730860,-7,-12,1,2,-1,-4,-1,0
1514960489737857,3,21,12,-1,3,3,3,0
1514960489737857,5,2,4,0,-1,-4,0,-2
1514960489753875,-6,-1,-1,0,0,-2,-2,-3
1514960489753875,12,-14,-4,-1,-1,-3,-2,0
1514960489754882,3,11,-5,-1,-2,-2,-5,-1
1514960489754882,5,-8,-2,0,0,0,-1,1
1514960489767880,3,7,1,-1,-2,-3,1,0
1514960489767880,-3,3,9,-3,-1,-1,0,2
1514960489768881,-5,-4,-26,-1,-2,-1,2,-3
1514960489768881,-3,1,2,0,1,0,2,2
1514960489792895,7,1,5,-1,-1,-3,-3,-2
1514960489792895,0,3,-3,1,-1,0,-3,1
1514960489797901,-9,-6,7,-1,-1,-1,1,-3
1514960489797901,2,-8,-16,-4,-1,-3,0,0
1514960489813912,-6,-7,5,-2,0,-1,2,-2
1514960489813912,-1,4,2,0,0,0,-1,0
1514960489814911,2,-7,0,0,-3,-2,0,-3
1514960489814911,-4,1,-6,1,1,1,-2,-2
1514960489828977,2,-3,3,2,-5,-1,-3,1
1514960489828977,-3,-6,-9,-1,-2,-1,-1,-1
1514960489829958,7,1,-3,0,3,1,1,0
1514960489829958,-2,-1,0,-2,-3,-1,-3,-3
1514960489851944,4,-2,-3,0,-1,0,1,-2
1514960489851944,-4,2,-3,0,0,-1,0,0
1514960489852937,5,-3,3,-1,-1,0,-2,-2
1514960489852937,1,6,5,0,-1,0,0,0
1514960489874004,-4,-8,-2,-1,2,-1,-1,2
1514960489874004,-11,-8,-3,0,-1,-3,0,-2
1514960489874963,-4,2,-1,-3,-3,-3,-1,-2
1514960489874963,10,-3,-3,0,0,-2,-2,0
1514960489888973,-1,2,-5,-1,-3,-1,0,-1
1514960489888973,1,-1,0,-1,0,-1,-1,-1
1514960489894986,-3,-5,1,-1,0,-3,-4,-1
1514960489894986,-3,3,-1,-1,-3,0,-1,-1
1514960489911980,-1,-1,-5,2,0,0,-1,-1
1514960489911980,3,-12,-11,-3,-1,-2,-1,-2
1514960489912979,-3,4,11,0,-2,-2,-1,-3
1514960489912979,-4,0,1,0,0,-1,-2,-2
1514960489934999,0,0,1,-2,0,-1,-2,-1
1514960489934999,0,-1,-2,-4,-2,0,0,-1
1514960489934999,-1,-2,-4,-1,0,-1,-1,0
1514960489934999,-4,1,0,-1,-2,-1,-2,-2
1514960489948008,-2,-3,0,-4,-3,-2,1,-2
1514960489948008,5,2,5,6,1,-1,-4,1
1514960489949008,-5,-6,-22,-9,-5,-1,-2,0
1514960489949008,-2,3,3,0,0,2,1,-1
1514960489971046,-3,-3,2,-4,-1,-2,0,-3
1514960489971046,7,2,-4,-2,-2,-3,0,-1
1514960489972022,-7,-2,3,2,-1,-3,0,-1
1514960489972022,0,-2,-4,2,0,-3,1,-1
1514960489994065,0,-2,1,-1,-1,1,-1,-1
1514960489994065,2,2,3,5,1,2,-2,-1
1514960489995037,1,-2,10,-1,-2,-1,0,0
1514960489995037,-2,-2,-14,-4,-2,-2,0,-1
1514960490008049,-2,0,-21,4,1,-2,0,0
1514960490008049,-5,-6,-15,-17,-6,-3,0,-3
1514960490009050,1,4,22,15,1,0,-2,0
1514960490009050,-4,-7,-15,-19,-5,-4,-2,-3
1514960490031083,1,2,6,4,2,0,2,-1
1514960490031083,-2,0,0,1,0,0,1,2
1514960490031083,0,-1,-5,-4,-1,0,-4,-2
1514960490031083,1,2,19,9,2,0,1,-3
1514960490054082,-3,0,3,-1,-2,2,-2,0
1514960490054082,-2,-1,2,-2,0,-3,-1,-1
1514960490055082,1,-1,1,-1,0,-1,2,0
1514960490055082,-1,-2,1,2,-1,-1,-3,-1
1514960490069116,-4,-2,-6,-5,-3,-2,-3,-1
1514960490069116,-2,-1,7,0,-1,-1,-1,0
1514960490076112,1,-1,-10,-3,-2,-2,0,-2
1514960490076112,-2,-4,-3,0,0,1,-3,-2
1514960490091130,-2,-5,-4,0,-2,0,0,-1
1514960490091130,2,2,20,4,0,0,-2,0
1514960490092115,-1,-1,-7,-1,-4,-2,0,-1
1514960490092115,0,1,0,-3,-1,0,0,0
1514960490114128,-4,-4,-20,-11,-3,-4,-2,-3
1514960490114128,-2,1,-5,3,0,-1,-2,0
1514960490115123,-2,-2,4,-2,0,-1,-1,-1
1514960490115123,0,2,6,6,0,1,0,0
1514960490129132,0,-3,14,-2,-2,-2,0,-1
1514960490129132,-2,2,-4,-1,-3,-2,-3,-1
1514960490129132,-1,1,19,3,0,-1,0,-1
1514960490129132,-1,-1,-28,-3,-1,0,-1,0
1514960490151150,-2,-2,-8,-5,-1,-3,0,-2
1514960490151150,-1,0,8,2,0,0,0,-2
1514960490152150,-1,-1,-14,-3,0,1,-3,0
1514960490152150,-3,0,-12,-1,-3,-2,0,-1
1514960490174165,-1,-3,9,-3,0,1,-2,-1
1514960490174165,-1,-3,-13,-4,-1,-1,-2,-1
1514960490175168,-1,0,2,4,0,-2,0,-2
1514960490175168,0,2,8,-2,-2,-2,-2,-1
1514960490188175,0,1,-4,-2,0,0,0,0
1514960490188175,-2,1,3,1,1,-1,0,1
1514960490189175,0,-1,-10,-6,-3,-1,0,-2
1514960490189175,-1,-2,1,0,-1,-1,-1,-2
1514960490219197,0,1,12,5,0,0,-1,0
1514960490219197,-2,-3,4,-7,-1,0,-1,0
1514960490219197,-3,-2,3,1,-2,1,-1,1
1514960490219197,-3,-5,-6,-3,0,-3,-1,0
1514960490234229,0,3,5,2,0,-2,0,-2
1514960490234229,-2,-3,37,-6,-6,-3,-1,-2
1514960490235217,1,1,-10,-1,0,-2,-2,-1
1514960490235217,-3,-4,-4,0,-2,-2,-1,-5
1514960490247218,0,-1,-5,1,-1,-2,-1,-1
1514960490247218,0,2,5,3,-1,1,-1,-1
1514960490256222,-2,-2,-1,-4,-1,-1,0,1
1514960490256222,-1,-1,7,1,-2,-2,0,0
1514960490271243,0,0,2,-1,-1,1,-1,0
1514960490271243,-1,-1,-21,-3,-1,-1,-2,-3
1514960490272247,0,0,-3,-2,0,-2,-1,-1
1514960490272247,-1,0,-5,-1,0,-1,0,0
1514960490294305,-3,-1,3,-3,-2,-3,-1,-2
1514960490294305,1,-1,-15,1,1,1,0,1
1514960490295265,-4,-3,-8,-5,-5,-3,-2,-2
1514960490295265,-2,0,26,0,1,-1,-1,-1
1514960490307273,3,1,-12,2,0,1,-1,-1
1514960490307273,-7,-9,-30,-10,-3,-4,-2,-3
1514960490316293,1,0,7,5,1,0,-1,-1
1514960490316293,1,0,1,-3,-1,-1,-1,0
1514960490331277,-2,-1,6,-3,-1,0,-2,-1
1514960490331277,-2,3,0,4,-1,-1,-2,-2
1514960490332301,-1,-4,-7,-2,-2,-1,-1,-2
1514960490332301,0,-1,8,1,-1,-1,2,-2
1514960490354298,0,0,3,-1,-2,-1,1,-1
1514960490354298,0,-1,-1,-1,-1,0,-3,-3
1514960490354298,-2,0,2,-3,-2,0,-2,-2
1514960490354298,0,0,-9,-1,-2,-1,-1,-1
1514960490367306,-2,-2,-1,-2,-1,-1,-3,-3
1514960490367306,0,-1,-5,-1,0,-1,-1,1
1514960490375309,-1,-2,-1,1,-1,-2,0,-1
1514960490375309,-2,3,13,4,1,0,-2,0
1514960490392336,-3,-7,-39,-16,-4,-2,0,-2
1514960490392336,-1,-2,-7,-4,-1,0,-1,-1
1514960490393335,-2,-3,-15,-5,-1,0,0,-3
1514960490393335,1,0,7,0,-2,-1,-1,-1
1514960490414372,-1,2,15,5,0,-2,-2,-1
1514960490414372,0,1,6,2,-1,0,2,0
1514960490414372,0,1,0,-3,1,0,-1,0
1514960490414372,-3,-4,-7,-4,0,0,0,0
1514960490427346,-1,-1,0,2,-1,-3,1,0
1514960490427346,1,-2,-6,-1,-3,-3,-3,-1
1514960490435404,1,2,9,2,-1,1,-1,0
1514960490435404,0,-4,-6,-2,-2,0,-3,-2
1514960490451361,1,0,1,-1,-2,-1,1,0
1514960490451361,-1,0,3,2,-1,-1,0,-2
1514960490452361,-1,-2,3,-2,-3,-2,-1,-2
1514960490452361,-1,-2,-6,-3,-2,0,-1,-2
1514960490474380,-2,-4,2,0,-1,1,0,-1
1514960490474380,1,-1,2,2,0,1,-1,0
1514960490474380,-2,1,-1,-1,-2,-2,-2,0
1514960490474380,0,-1,-14,-6,0,-1,-2,-2
1514960490496476,-2,0,12,2,-1,1,0,0
1514960490496476,-1,-2,-9,-2,0,0,-2,0
1514960490497451,1,-1,2,-2,0,-1,0,-1
1514960490497451,-1,-1,8,1,-2,-1,1,-1
1514960490511451,0,1,-6,1,-1,0,-2,-3
1514960490511451,0,3,15,2,0,-2,-2,1
1514960490511451,-3,-7,-29,-5,-4,-2,-1,-2
1514960490511451,-1,-2,4,3,0,-2,-2,0
1514960490534482,-1,0,-1,-4,0,2,-2,1
1514960490534482,-2,-1,0,-3,-2,-2,-1,0
1514960490534482,0,1,6,1,0,-2,-1,0
1514960490534482,0,-1,-2,-2,-1,-2,1,0
1514960490547477,-1,-2,0,0,-1,-2,-2,-2
1514960490547477,-1,-1,-5,-2,-2,0,0,-3
1514960490555507,-1,2,11,3,-1,0,0,2
1514960490555507,-2,-2,-15,-5,-2,-2,-1,-2
1514960490572519,0,-2,3,0,-1,-1,-2,0
1514960490572519,-1,-1,0,-2,0,-2,-1,-1
1514960490572519,-1,-2,-2,-1,-2,0,-3,-1
1514960490572519,-1,2,5,-1,0,-1,0,-1
1514960490593548,0,-2,-1,0,-3,-2,0,-1
1514960490593548,-1,-2,-7,0,-1,-2,0,-2
1514960490594511,0,0,4,0,0,-1,0,-1
1514960490594511,-2,0,-1,0,-1,-1,0,0
1514960490616549,-1,-1,0,0,-1,-1,0,1
1514960490616549,-1,-2,-10,-2,-2,-1,-1,-4
1514960490618544,-1,-1,2,-3,-1,1,1,-3
1514960490618544,-1,0,-2,-1,-2,0,-3,0
1514960490631539,-2,-2,-1,-1,-1,-2,-1,-2
1514960490631539,-2,0,2,0,0,-1,1,0
1514960490632537,-1,0,-2,-2,-1,-1,0,0
1514960490632537,-1,-2,-2,-1,0,0,-1,0
1514960490654578,0,0,2,0,-2,0,-2,0
1514960490654578,-2,0,1,-1,-1,0,-2,0
1514960490655554,-3,-1,-5,-2,0,-1,-1,-1
1514960490655554,-2,-1,-1,0,0,-2,-1,-1
1514960490683620,-1,0,-3,-1,-2,0,0,-2
1514960490683620,-3,-1,-1,-2,-2,-1,-1,0
1514960490691594,-2,-2,-1,-1,0,-1,-2,-1
1514960490691594,0,-2,0,-1,-1,-1,-2,-2
1514960490693593,-2,0,-2,-2,0,-1,-3,0
1514960490693593,-1,0,-2,-1,-2,0,-1,-2
1514960490698595,-1,-1,0,-1,-1,-1,-1,-3
1514960490698595,1,0,-1,-1,-2,-1,-1,1
1514960490713610,-2,-3,-2,-1,-1,-2,0,-2
1514960490713610,1,-1,2,1,-1,-1,1,0
1514960490715596,0,3,6,1,-1,1,-1,1
1514960490715596,-1,-4,-3,-5,-3,0,-2,-2
1514960490736641,-1,-3,-3,-1,2,-1,0,-1
1514960490736641,-1,0,3,2,0,-2,-1,1
1514960490738612,-1,-3,-3,-5,-1,-1,-1,0
1514960490738612,1,3,3,3,-1,0,1,-1
1514960490749630,-2,2,4,-3,-2,-1,0,-1
1514960490749630,-1,-3,-9,-3,-2,-1,-2,-1
1514960490758637,0,3,-1,1,-1,-1,-3,-2
1514960490758637,-2,-3,-4,-1,0,0,-2,-1
1514960490773637,-1,-2,-1,-1,-1,-2,-2,-3
1514960490773637,-1,-1,-1,-2,1,-2,-1,-3
1514960490775638,-2,-2,-3,-1,-2,-2,0,-1
1514960490775638,-3,0,-2,-1,1,-1,0,0
1514960490796677,-2,-2,-2,-1,-2,-3,0,-1
1514960490796677,-1,0,0,-1,-1,-1,-2,0
1514960490797653,-1,-2,-2,-3,-1,-2,0,0
1514960490797653,-2,-2,-2,-1,-3,-1,-1,-2
1514960490809661,2,3,-3,0,-1,-1,-2,-1
1514960490809661,1,0,0,-2,-2,-1,0,-2
1514960490819676,-1,-1,-3,-1,-2,-2,-2,1
1514960490819676,-2,-2,-2,-1,-3,0,-1,-2
1514960490833678,-1,-1,-2,-2,-3,0,-1,-1
1514960490833678,0,-3,0,0,-1,-2,0,-1
1514960490835680,0,0,1,-1,-2,0,1,-2
1514960490835680,-2,-1,-2,-2,-1,-2,-1,0
1514960490856698,-2,-2,-5,-3,-2,-1,-1,-1
1514960490856698,-2,-1,0,0,-1,-2,-1,0
1514960490858716,0,0,0,-1,-1,-1,-2,1
1514960490858716,0,-1,-2,-3,0,0,-2,0
1514960490870709,0,-2,0,0,0,0,0,-1
1514960490870709,-1,-1,-3,-1,0,1,1,0
1514960490877718,-1,-3,-1,-1,0,-2,-1,-1
1514960490877718,-1,0,0,0,-1,0,-3,-3
1514960490893721,0,-2,-1,-1,-2,-2,-1,-1
1514960490893721,-1,-1,-1,0,-2,2,-2,0
1514960490895724,-1,-1,-3,0,-1,-1,0,-1
1514960490895724,-1,-1,0,0,-3,-3,0,-1
1514960490916742,-2,-2,1,-2,-2,0,-2,-1
1514960490916742,1,-2,-1,-2,0,-1,0,1
1514960490917740,-3,-1,0,-1,-1,1,0,-1
1514960490917740,1,0,0,-1,-1,0,-1,0
1514960490931748,0,0,0,-1,-2,0,-3,-2
1514960490931748,-3,-2,-1,-2,-1,-1,-2,-1
1514960490937756,-1,-1,-1,-1,-2,-3,-1,-1
1514960490937756,0,-1,-1,-2,2,1,1,0
1514960490962772,-1,-1,-3,-2,-1,-1,0,0
1514960490962772,-2,-1,-2,-2,-2,-1,-1,-2
1514960490967775,1,0,-3,-3,-1,-1,-3,-2
1514960490967775,-1,-1,-1,1,-3,-2,-2,0
1514960490976781,0,-1,-1,-1,0,-2,-2,-1
1514960490976781,0,0,0,-1,-1,1,-3,-2
1514960490977784,0,0,-2,-1,-1,1,0,-1
1514960490977784,-1,-1,1,-1,-2,-2,0,-2
1514960490990792,-2,0,-1,1,0,-1,0,-1
1514960490990792,-3,-2,-2,-1,-1,-2,-1,1
1514960490997795,-1,-4,-1,-1,-2,0,1,0
1514960490997795,0,-1,-2,-1,-2,-1,-2,-1
1514960491014806,-1,-1,-2,-1,0,0,-1,-1
1514960491014806,-2,0,-1,-1,-1,0,-1,-3
1514960491019810,-1,-1,-1,-1,-1,-1,-2,-2
1514960491019810,1,-3,-2,0,0,-2,1,-1
1514960491036823,-2,-1,0,0,-1,-1,-2,-2
1514960491036823,-1,0,-1,-2,-1,-1,-1,-2
1514960491038825,-1,-2,0,-2,-1,-1,-2,-1
1514960491038825,-1,0,-2,-1,-1,-1,-2,-2
1514960491058852,1,-1,0,-1,-1,-2,-1,-2
1514960491058852,-1,-2,-2,-1,-2,-2,-1,-1
1514960491060842,-1,-2,-1,0,-1,-2,-1,0
1514960491060842,-1,-1,-1,-3,0,-2,-1,-1
1514960491073852,0,-2,-1,-1,-3,0,-1,-2
1514960491073852,-2,-1,-2,-1,-2,-1,-3,-2
1514960491075855,-1,0,-1,-1,-1,-1,-1,0
1514960491075855,-2,0,-1,-2,-1,0,-2,-2
1514960491096866,-3,-1,-2,-2,-1,-1,-3,1
1514960491096866,2,-3,2,0,-1,-3,-1,-2
1514960491097866,-1,-2,-2,0,0,-3,0,-1
1514960491097866,-2,-1,0,0,-2,1,-1,-1
1514960491109876,-2,0,0,1,-1,-1,0,-1
1514960491109876,-2,-2,-1,-2,-2,0,0,0
1514960491124887,-1,-1,-1,-1,0,-1,-2,-1
1514960491124887,0,-3,0,-1,-1,0,-1,-2
1514960491133899,-1,-3,1,-1,0,0,1,0
1514960491133899,-1,0,-1,-1,-2,-1,1,-1
1514960491135895,-2,0,0,-2,0,-2,0,-1
1514960491135895,-2,-2,-2,0,-1,-1,-1,-1
1514960491156915,-3,-1,-2,-2,-2,-2,-3,0
1514960491156915,-2,-1,0,-2,0,1,-1,-1
1514960491157909,-2,-1,1,-2,-2,0,-3,-1
1514960491157909,0,-3,-2,0,-1,0,-1,-1
1514960491169920,1,0,-3,-2,0,-1,-2,-2
1514960491169920,-1,-3,-1,0,-1,-2,-2,2
1514960491186928,-1,-1,-3,0,-1,-2,-1,-2
1514960491186928,-2,-2,-1,-1,-2,-2,2,1
1514960491193934,2,-1,0,-1,-1,-1,-1,0
1514960491193934,-2,0,-1,-3,0,-2,-1,1
1514960491195935,1,-1,0,-2,-1,1,0,0
1514960491195935,-1,0,-1,-1,-1,-1,-4,-3
1514960491239967,-3,0,-3,0,-1,-3,0,-1
1514960491239967,0,-1,-2,0,-1,-2,-1,0
1514960491241969,0,0,-1,0,-1,-1,2,0
1514960491241969,1,-3,1,-2,0,-1,-1,1
1514960491242972,-3,0,0,0,-1,-2,-2,0
1514960491242972,0,-3,-1,0,-1,1,-1,-1
1514960491246972,-3,-1,-2,-1,-2,0,-2,-2
1514960491246972,0,-1,0,-2,0,-1,-3,1
1514960491253976,-1,-2,-2,0,-1,1,-1,-1
1514960491253976,0,-3,-2,-1,-1,-1,-1,0
1514960491255979,0,-2,-1,-2,0,-4,0,-1
1514960491255979,-1,0,-2,0,0,-2,1,-3
1514960491275998,1,-1,0,-1,-1,-2,0,-1
1514960491275998,-1,1,-2,-1,-1,-4,-1,0
1514960491277994,-2,-2,-1,-2,-1,0,0,1
1514960491277994,0,0,-1,-2,-3,0,-2,-1
1514960491290005,-2,-1,-2,-1,0,-1,-1,-1
1514960491290005,0,-2,-1,0,-2,-1,0,-4
1514960491299007,0,-1,-1,2,0,-1,1,1
1514960491299007,-2,-1,-1,0,-1,-3,-1,1
1514960491314020,1,1,-2,0,-2,1,0,-1
1514960491314020,-4,0,-1,-2,-1,-1,-1,-3
1514960491315019,0,0,-1,-1,-1,-1,-2,0
1514960491315019,-1,-1,-2,-2,-2,-2,-1,-1
1514960491335037,1,-2,1,-1,-1,-1,-1,1
1514960491335037,-2,-2,-1,-1,-3,0,0,1
1514960491352067,-2,-2,-1,0,-1,-1,-2,-2
1514960491352067,-1,-1,-2,-1,-1,-1,2,-2
1514960491359049,-3,-1,-2,-2,-2,-3,0,-3
1514960491359049,0,-1,0,-1,0,-2,-2,1
1514960491360051,-2,-3,-1,0,-3,-2,-1,-3
1514960491360051,-1,-1,-2,-2,-1,-1,-2,-1
1514960491381081,-2,-2,-2,0,-2,0,-1,-1
1514960491381081,-2,1,0,-1,-1,0,-2,-1
1514960491383078,-2,0,-2,-1,-2,0,-1,-1
1514960491383078,-1,0,-1,-2,-1,-1,-2,-1
1514960491396101,-2,0,-3,-2,0,-1,-1,-3
1514960491396101,0,-2,-1,-1,-1,1,-2,0
1514960491398087,0,-1,0,-1,-1,0,-1,-3
1514960491398087,-2,0,-1,-1,-2,0,1,0
1514960491410105,-1,-1,2,0,-1,0,-3,-1
1514960491410105,-1,-3,-2,0,-1,0,0,1
1514960491419092,0,-2,-1,-3,-2,-2,-2,-2
1514960491419092,-1,-1,1,0,-2,-2,-3,-2
1514960491434120,0,0,-2,-2,-1,-1,0,-1
1514960491434120,0,2,-2,1,-1,0,1,-1
1514960491435126,0,-1,-1,0,0,0,-1,1
1514960491435126,-1,-1,-1,0,0,-1,-2,-1
1514960491456130,-2,-2,0,-1,-2,0,-2,-1
1514960491456130,-1,-1,1,-1,-1,0,-2,-2
1514960491458132,-3,-1,-3,-3,-1,-1,-1,-2
1514960491458132,0,-2,-1,-2,1,-1,-1,-1
1514960491470152,1,0,-1,-2,0,-1,0,-1
1514960491470152,-1,-2,-1,-2,-3,-1,1,-2
1514960491479139,-3,-2,-1,1,-1,-2,0,0
1514960491479139,-3,-2,0,-1,0,0,0,-1
1514960491494164,-1,-3,-2,-2,-1,-1,-1,-1
1514960491494164,-1,-2,-2,-1,1,-1,-1,-1
1514960491495152,0,1,-1,-1,-1,-2,-2,0
1514960491495152,-1,-1,-1,-1,-1,-1,0,0
1514960491517168,-1,-2,-1,-1,-1,0,1,0
1514960491517168,-1,-1,-2,0,0,-2,-2,-2
1514960491522171,0,0,-2,0,-1,-1,0,0
1514960491522171,-1,-3,-1,-1,0,-2,-1,-1
1514960491530196,-1,1,-2,0,-1,-1,0,-1
1514960491530196,-1,0,-1,-1,0,0,-2,2
1514960491540180,-1,-1,-3,0,-1,0,-2,-2
1514960491540180,-2,1,-1,0,0,0,-2,-3
1514960491554191,-1,-1,-1,0,1,-1,-2,0
1514960491554191,-1,-1,-1,-1,-1,0,-1,-2
1514960491555191,-1,-3,-2,-2,-2,0,-1,0
1514960491555191,0,0,-3,0,-2,-1,-2,-2
1514960491577205,0,0,-1,-2,-2,-2,0,-3
1514960491577205,-1,1,0,-1,-3,0,0,0
1514960491578205,-1,-1,0,-1,1,-1,-1,0
1514960491578205,-2,-1,-2,-2,-2,0,-1,-2
1514960491599230,-1,-1,-3,-3,-2,0,-1,-1
1514960491599230,0,-2,-1,-1,-1,-3,-1,-1
1514960491600220,0,-1,0,-2,-2,0,-1,-2
1514960491600220,-2,0,-1,0,-2,-1,0,-1
1514960491614253,-1,-1,-2,1,0,-1,-2,-2
1514960491614253,1,0,-1,-2,0,0,0,-2
1514960491615231,-1,0,0,-2,-1,-2,-3,-3
1514960491615231,-2,-1,-3,-1,-1,-1,0,0
1514960491636274,-1,-3,-1,-2,-2,-1,-1,1
1514960491636274,-1,-3,0,-1,-1,-1,-2,0
1514960491639250,-2,-2,-2,-1,-1,-2,0,-3
1514960491639250,1,-1,1,0,-1,-2,-2,-1
1514960491659288,-2,-2,-1,-2,-1,-2,0,0
1514960491659288,-3,-1,-1,-4,-1,-1,-2,-2
1514960491660264,-2,-2,-1,-1,-1,-2,-1,-1
1514960491660264,-1,-2,-1,-2,-2,0,0,0
1514960491674298,1,-1,-2,1,-2,-3,-3,0
1514960491674298,-2,0,-3,0,0,-1,-1,-2
1514960491676281,-1,-2,-1,-1,-2,-1,-1,-1
1514960491676281,-2,-1,-1,-1,-1,0,0,-1
1514960491696312,-1,1,1,-1,0,-1,3,-1
1514960491696312,-1,0,0,0,-1,-2,0,-1
1514960491698300,-3,-1,-2,-1,-1,-3,-3,-1
1514960491698300,1,-2,-2,0,-2,0,-3,-3
1514960491719307,0,-3,-1,-2,-2,0,-1,-1
1514960491719307,0,-1,-2,-2,-1,-1,-1,-3
1514960491720309,1,-2,-2,-1,-1,-1,4,0
1514960491720309,0,-1,-2,-1,-1,-2,-5,-2
1514960491733317,-1,-2,-1,0,-2,-1,-1,-1
1514960491733317,-1,-2,0,-2,-1,-1,0,0
1514960491740320,-1,0,-2,-2,-2,-1,-5,-3
1514960491740320,-1,0,-2,-2,-3,-1,-1,0
1514960491756378,-1,0,-3,-1,-1,-1,-1,-2
1514960491756378,-1,-2,-1,-1,0,-1,0,1
1514960491758379,-2,-1,-1,-1,0,1,1,-1
1514960491758379,-2,-2,-1,-3,0,-3,0,-1
1514960491779381,-1,-1,-1,-2,-1,1,0,-2
1514960491779381,-1,0,0,-1,-1,-2,-2,0
1514960491781381,0,-2,-2,-1,-1,1,-1,0
1514960491781381,0,0,-1,-1,-2,-2,-1,-2
1514960491793443,-2,-1,0,-2,-1,-2,-4,-2
1514960491793443,-1,0,-3,-2,-1,-1,0,-1
1514960491800435,0,0,-1,-1,-2,-2,1,0
1514960491800435,-2,-2,0,-2,0,-1,1,0
1514960491816471,-1,0,0,0,0,-2,-1,1
1514960491816471,-2,-2,0,-1,-1,-1,-2,0
1514960491818472,-1,-1,-1,0,0,-1,-1,-2
1514960491818472,1,-1,0,-2,-1,-1,0,-2
1514960491838453,-1,-2,-2,0,-2,-2,-1,-2
1514960491838453,0,1,-1,-1,0,1,-1,-3
1514960491840453,-3,-1,-1,-2,-1,-3,-2,-2
1514960491840453,-2,-1,0,-3,-2,0,0,-3
1514960491853462,1,-2,-2,-1,0,0,0,-2
1514960491853462,-1,-3,-1,-3,-1,0,1,0
1514960491860484,-3,-2,-1,-2,-1,0,0,-1
1514960491860484,1,-3,-1,-1,-1,-1,0,-1
1514960491891510,-1,-1,-2,-1,-2,-1,0,-1
1514960491891510,-1,-2,-1,0,-2,-2,-1,1
1514960491899506,0,2,0,-2,0,-1,0,1
1514960491899506,-1,-1,-1,0,-2,-2,-2,0
1514960491900506,-1,-2,0,0,-1,0,-4,-1
1514960491900506,0,-1,-3,-4,-2,-2,-1,-4
1514960491901507,-2,-1,-1,-1,0,-1,0,-2
1514960491901507,-1,1,-1,0,-1,1,-1,1
1514960491913505,-1,-2,-1,0,-2,0,-1,0
1514960491913505,0,2,-1,0,-1,-1,0,-2
1514960491920521,1,-2,-1,-2,-1,-2,0,0
1514960491920521,-1,-2,-1,0,-1,0,0,-1
1514960491936521,-2,-2,1,-2,-2,0,-1,-1
1514960491936521,0,-2,-1,-1,-2,-2,-1,-1
1514960491938522,-1,-1,-1,-1,-3,0,-1,-2
1514960491938522,-2,-2,-2,-2,-1,-3,-1,-3
1514960491966584,0,1,-1,-1,-3,-2,1,-1
1514960491966584,-2,-1,0,0,-2,0,0,1
1514960491968554,-3,-2,-2,-2,-2,1,-2,-2
1514960491968554,-2,-3,-2,-1,-1,-1,-2,-3
1514960491973559,-3,-1,-2,0,-2,-2,2,0
1514960491973559,-1,-1,-1,-1,0,-1,-4,-2
1514960491979573,0,-1,0,-1,-2,-2,-1,-1
1514960491979573,-1,0,-1,0,1,-1,-1,-1
1514960491996602,-1,-1,-1,-3,-2,-1,-3,-1
1514960491996602,1,-1,-1,-2,-1,-2,1,0
1514960491997601,1,0,-2,-2,0,0,-1,-2
1514960491997601,-1,-1,0,-1,0,-2,0,-1
1514960492019633,0,-1,-1,-1,-1,-2,2,-2
1514960492019633,-2,-2,-2,1,0,1,-1,0
1514960492020617,-1,0,-1,-2,-1,-3,-3,-2
1514960492020617,-1,0,-1,-2,-2,-2,-2,-2
1514960492033626,0,-2,-2,-1,2,-1,-3,0
1514960492033626,-1,-1,-1,-1,-1,0,1,0
1514960492039687,0,0,-2,-1,1,-1,-1,0
1514960492039687,-1,0,-1,1,-1,-1,1,1
1514960492056732,0,-3,0,0,0,-3,-1,-1
1514960492056732,0,-3,-1,-2,-1,-3,-3,0
1514960492057704,-1,0,-1,1,-1,-1,0,-1
1514960492057704,-3,-1,-1,-1,0,-1,-1,-1
1514960492078735,-3,-1,-1,0,-1,1,-1,-1
1514960492078735,-2,-1,0,-1,-1,-2,-3,-3
1514960492080739,-2,-2,-1,-2,-2,-1,-1,0
1514960492080739,-1,-1,-1,-2,-2,-3,-3,-1
1514960492092756,-1,-1,-2,-1,-2,-2,-2,1
1514960492092756,-2,-1,-3,-2,-1,1,1,-2
1514960492101737,-1,-3,1,-2,-1,-1,-1,0
1514960492101737,-2,0,0,-1,-2,-1,-1,-1
1514960492116756,-2,1,-2,-1,-1,-2,0,-2
1514960492116756,-2,-1,-1,-1,0,-2,-1,0
1514960492117748,0,-1,0,-2,-2,-2,-1,-1
1514960492117748,-1,-3,-3,-1,-2,-2,-1,0
1514960492138770,-1,-1,0,-1,-1,-1,-1,-2
1514960492138770,-1,-2,-2,-1,-1,0,-1,0
1514960492140768,-1,-2,1,-2,-1,-1,-1,-1
1514960492140768,-2,-2,-3,-2,0,-1,-1,-1
1514960492152800,-1,-1,-1,-2,-1,1,-2,1
1514960492152800,-1,0,0,-2,-1,0,0,-2
1514960492193803,0,-1,-2,-1,1,-1,-1,-1
1514960492193803,0,-2,0,-1,-3,-1,1,0
1514960492194803,-1,0,0,1,-2,-1,0,0
1514960492194803,-2,0,-1,0,-3,-1,-2,1
1514960492199804,-1,-1,0,0,-1,-1,-1,-2
1514960492199804,0,0,-1,-1,1,-1,-2,-2
1514960492199804,-3,-2,-1,-2,0,0,-1,0
1514960492199804,-1,-2,-1,-1,-1,-1,-1,-1
1514960492201804,-2,-2,-2,0,-1,-1,-2,0
1514960492201804,-1,0,-1,-2,-1,-1,-2,-1
1514960492212846,-1,0,-1,1,-1,0,-2,-2
1514960492212846,0,-1,0,-1,1,-2,-1,-3
1514960492221821,-2,-1,-2,-1,-1,0,-1,-2
1514960492221821,-1,-2,0,-1,-1,0,0,1
1514960492236844,-1,-1,-1,-2,-1,-2,0,0
1514960492236844,-2,0,0,0,-1,-1,0,-1
1514960492239843,-1,-1,-4,1,-3,-3,0,-1
1514960492239843,-3,1,-2,-1,0,0,-1,0
1514960492258875,0,-2,-1,-1,-1,0,-2,1
1514960492258875,0,-1,-2,0,0,-2,-2,0
1514960492260855,-1,-1,0,-1,-1,-1,0,-1
1514960492260855,-1,-2,-1,-2,-1,1,0,-2
1514960492281895,-1,-2,-1,-3,-2,-2,0,-1
1514960492281895,-1,-2,-1,0,-1,-1,0,-2
1514960492282871,-2,0,-2,1,1,-2,-1,-1
1514960492282871,-1,0,0,-1,0,-1,-4,-1
1514960492296880,-1,0,-2,-1,-1,-1,0,-1
1514960492296880,0,-2,-1,-1,-2,0,-3,-1
1514960492297881,0,0,0,-2,-2,-1,-1,-1
1514960492297881,-2,-1,-2,-2,-1,-1,-2,-2
1514960492319911,-1,-2,-1,-2,-1,-2,-1,-2
1514960492319911,1,-1,0,-1,-1,-1,0,0
1514960492332910,-2,-1,-3,-1,-1,-2,-3,-2
1514960492332910,1,-1,-1,0,-2,0,-1,-2
1514960492333901,0,-1,0,1,-1,-2,-1,-1
1514960492333901,-1,0,-3,0,-1,-2,-3,0
1514960492356929,-2,-2,0,0,-1,0,-2,0
1514960492356929,-2,-1,-2,-2,0,-1,-1,1
1514960492357928,-1,-1,-2,-3,-1,0,-1,0
1514960492357928,0,-2,-1,-2,0,-2,1,0
1514960492359921,0,-1,-1,0,-2,-1,-1,-2
1514960492359921,0,-2,-2,-2,-1,-2,-2,-1
1514960492378987,0,-2,-1,-1,-1,-1,-2,-1
1514960492378987,0,-1,-1,-2,-2,-1,-4,-2
1514960492379933,-2,2,0,-1,0,2,0,0
1514960492379933,0,-2,-1,0,-2,-1,-1,0
1514960492400956,-1,-1,0,-2,-1,1,0,-1
1514960492400956,-1,-2,-1,-3,-1,-2,-1,0
1514960492402948,0,-1,-3,-2,0,-1,-1,-1
1514960492402948,-1,-1,-1,-1,2,0,1,0
1514960492415974,-1,0,-2,0,0,1,-1,-1
1514960492415974,-1,-2,-2,0,-3,-1,-1,-3
1514960492417958,-1,-2,-1,-3,0,0,0,-1
1514960492417958,-1,-1,-1,0,-2,-1,0,0
1514960492438988,-1,-2,-1,-1,-1,-2,0,0
1514960492438988,-2,0,0,-1,1,-1,0,-1
1514960492441975,-1,-4,-1,-2,-2,-1,-2,-2
1514960492441975,-1,0,-2,1,-1,-1,-1,-1
1514960492462020,-1,0,-1,0,-2,-3,-3,0
1514960492462020,-1,0,-1,-1,0,-2,1,-1
1514960492462999,0,0,-2,-1,-3,-2,-1,0
1514960492462999,-1,-3,0,-2,0,-2,0,-2
1514960492476027,-2,0,-1,-2,-1,1,-1,-3
1514960492476027,-2,-1,-1,-1,-1,-1,-2,-1
1514960492478008,-3,-3,0,-1,0,-2,0,-1
1514960492478008,-1,0,-2,-1,-3,-1,-2,-1
1514960492499033,-2,-1,-1,-2,0,-2,1,-2
1514960492499033,-1,-2,0,0,-2,-1,0,0
1514960492505039,0,-1,0,-2,0,-2,1,-2
1514960492505039,-1,0,-1,-1,-2,-1,-1,-1
1514960492521033,-2,-2,-1,0,0,0,0,-2
1514960492521033,-2,0,-2,-1,0,1,-1,-1
1514960492523035,-1,0,-1,2,-1,-1,-1,0
1514960492523035,1,-1,-2,-1,0,-3,-2,-2
1514960492536067,1,0,-3,-1,0,-2,-1,1
1514960492536067,-3,-1,-1,-1,-1,-2,-3,-1
1514960492539045,-1,-1,-2,-1,-1,1,-3,-1
1514960492539045,-2,-1,-1,-2,0,-1,1,0
1514960492559071,0,-2,-1,-1,-1,-1,0,0
1514960492559071,-1,0,-2,-2,-3,1,1,0
1514960492560072,0,-3,-2,0,-3,-1,-2,1
1514960492560072,-2,-2,0,-1,-2,-2,-3,-1
1514960492581096,-1,-1,-1,-1,-2,0,-1,0
1514960492581096,-1,-1,0,-2,-2,-1,-1,0
1514960492583075,-2,0,-2,-1,-1,-1,1,-2
1514960492583075,-3,-1,0,-2,-1,-1,2,-2
1514960492596093,1,-1,-1,0,-2,-1,0,-2
1514960492596093,0,-2,1,0,-1,-2,-2,-2
1514960492598095,1,-2,-1,-1,0,0,-1,-1
1514960492598095,-1,-1,0,-2,1,-2,-1,-1
1514960492626128,-2,-1,-1,-1,0,0,-3,-2
1514960492626128,-2,-1,-2,-2,0,0,0,-1
1514960492628107,-2,0,-1,0,0,-2,-2,-1
1514960492628107,-1,-1,0,-1,-1,0,-1,-1
1514960492641126,2,-1,-1,-1,0,-1,-2,-2
1514960492641126,1,-2,-1,0,0,-1,-1,-2
1514960492643118,-2,0,-3,-2,-1,-1,-1,-2
1514960492643118,-1,-1,-3,0,-2,-1,-1,-1
1514960492656130,-3,-1,-2,-1,-2,-1,-1,-1
1514960492656130,-2,0,-2,0,-1,-2,0,-1
1514960492662132,-3,-2,0,0,-2,0,1,0
1514960492662132,-1,-2,0,-1,-2,-1,0,-2
1514960492679169,-3,0,-1,-1,1,0,-1,-1
1514960492679169,-1,-1,-1,0,-1,1,-3,-1
1514960492680157,-1,1,0,-1,0,0,-3,-2
1514960492680157,-1,-1,-3,1,-1,-1,-1,0
1514960492701167,2,-2,-1,-1,-1,-2,1,0
1514960492701167,1,-2,-1,-2,-1,-1,-1,-2
1514960492703170,-1,-1,-2,-2,-1,-2,-2,-2
1514960492703170,0,-1,0,-2,-2,0,-2,-1
1514960492716179,-3,-1,-1,-1,-1,-3,0,-1
1514960492716179,-1,0,-1,-1,-2,-4,-2,0
1514960492722237,1,-3,-1,-1,0,-1,-1,0
1514960492722237,-1,1,-1,-1,0,-2,1,-2
1514960492746245,-1,-1,-2,-2,-1,-1,1,-1
1514960492746245,-1,-2,0,0,-1,0,-1,-2
1514960492748246,1,-2,-1,0,0,-2,-1,-1
1514960492748246,0,0,-2,-1,-1,-1,-2,0
1514960492761305,1,-2,0,-1,-1,-1,-2,0
1514960492761305,-1,-1,-1,-2,-2,-1,0,-2
1514960492763287,-3,-2,-1,-1,-2,-1,-1,0
1514960492763287,-1,0,-1,-1,0,0,-1,-1
1514960492776265,-2,-1,0,-1,-2,-1,-4,-2
1514960492776265,-2,-2,-2,-2,0,0,-2,-1
1514960492784271,-2,-4,0,-2,-2,-1,-2,-2
1514960492784271,-3,-2,0,-1,-2,-1,1,-3
1514960492799311,-3,-1,-1,-1,0,-1,0,1
1514960492799311,0,0,-1,-2,-2,-1,0,0
1514960492800284,-2,0,-2,0,-2,-2,-1,-1
1514960492800284,-1,-2,-2,-1,1,-2,0,-3
1514960492821301,1,-2,-1,0,-2,-1,-3,-1
1514960492821301,-1,-1,0,1,1,-1,-1,0
1514960492823301,-1,0,-2,0,-1,-1,0,0
1514960492823301,0,-2,-2,-2,-1,0,-4,-1
1514960492836311,-2,0,0,1,-2,-2,-1,-3
1514960492836311,-1,-2,-3,-1,-1,-1,0,-3
1514960492842328,-1,-2,0,-3,0,0,-1,-2
1514960492842328,0,-1,-1,-1,-3,0,-2,-1
1514960492858337,0,0,-2,-2,-1,-2,-1,1
1514960492858337,1,-2,-2,0,-3,0,-2,2
1514960492860335,0,1,-1,0,0,-2,0,1
1514960492860335,-1,0,0,-1,0,-2,-2,-2
1514960492881343,0,-2,-2,-2,-2,0,-2,-2
1514960492881343,-1,-1,0,-1,-2,-2,-2,-1
1514960492887345,-3,0,-3,-1,-1,-1,-1,-3
1514960492887345,-1,-1,-1,-1,-1,1,0,0
1514960492911376,-1,0,-1,-2,0,-1,-1,0
1514960492911376,0,0,-1,-3,-1,-1,-3,-2
1514960492913363,1,-1,-3,-3,-2,1,-1,-1
1514960492913363,-1,-1,-1,-2,0,-3,-1,-2
1514960492918369,-1,-2,-1,0,1,-1,0,0
1514960492918369,-1,0,0,-1,-2,0,-1,0
1514960492920367,0,0,0,-2,0,-3,1,-1
1514960492920367,0,-2,-3,0,-2,0,-1,0
1514960492941431,-2,-2,-1,0,-2,-2,-1,-1
1514960492941431,-1,-4,-1,0,-1,-1,1,0
1514960492942427,-1,-2,-1,0,-1,0,0,-1
1514960492942427,-2,0,-1,-1,1,-2,-1,-1
1514960492956440,-1,0,-1,-2,-1,-1,-2,-3
1514960492956440,-1,1,-2,-1,-1,-1,-2,-1
1514960492963468,-1,-1,-1,-3,-3,0,-1,-2
1514960492963468,0,-2,-1,-2,-2,-3,-1,0
1514960492978466,0,-2,-2,0,-1,-1,1,1
1514960492978466,-2,0,1,-1,1,-2,-1,0
1514960492980444,0,-3,0,0,-1,-2,0,-3
1514960492980444,-3,-1,-1,-1,-1,-2,-2,-2
1514960493001472,0,0,-2,-2,-1,0,-1,3
1514960493001472,1,-2,0,-2,-2,-2,-1,-1
1514960493002473,-2,-1,0,0,1,-1,-1,1
1514960493002473,0,0,-1,1,-2,-1,-2,0
1514960493023474,-3,1,-1,0,-2,-2,-1,-1
1514960493023474,-1,-2,-3,-1,-1,0,1,0
1514960493025476,-1,-1,0,-1,-1,-2,-2,-2
1514960493025476,0,-3,-2,-2,-1,0,0,-2
1514960493038529,0,-1,-1,-2,0,1,-2,-1
1514960493038529,-2,-1,-1,-2,0,-4,0,-1
1514960493040517,-2,0,-2,-3,-1,-2,-3,-2
1514960493040517,-1,-1,-1,-1,0,-2,0,-2
1514960493061601,-2,-1,-2,0,-2,-3,0,-1
1514960493061601,-2,-1,-2,-2,-1,-1,-1,-1
1514960493063583,-2,-2,-4,-1,-2,1,0,1
1514960493063583,0,-2,-1,-1,-3,-4,1,-1
1514960493074600,-2,-2,1,-2,0,0,0,-1
1514960493074600,-1,-2,0,-1,-1,-1,-1,0
1514960493083613,-1,0,-2,-1,-2,-1,-1,0
1514960493083613,-2,-2,-1,-1,0,1,-2,-1
1514960493098638,-1,-1,0,0,0,-3,-1,-2
1514960493098638,-1,-1,0,0,-2,-1,-1,-3
1514960493100617,-1,-1,-1,-1,-1,0,-1,-1
1514960493100617,0,1,-1,-1,-1,-2,-1,0
1514960493121654,-1,-1,-2,0,-2,-1,0,-1
1514960493121654,-1,-1,0,-2,-1,-2,-1,-1
1514960493122632,-1,-2,-1,-1,-2,-1,-3,-2
1514960493122632,-1,-1,-2,-1,-2,-1,-1,-2
1514960493134635,1,-1,-1,0,0,-2,0,-2
1514960493134635,0,0,0,1,-1,-3,-1,-1
1514960493143655,-1,0,-1,-1,0,-2,-1,-1
1514960493143655,-1,0,-1,0,-1,-1,0,1
1514960493158666,-1,-2,0,-1,-1,1,-1,0
1514960493158666,-1,-2,-1,1,0,1,-1,0
1514960493160654,1,-3,-2,-1,-2,0,0,0
1514960493160654,0,-1,-2,-1,0,0,1,0
1514960493181687,0,0,0,-1,-1,0,-1,1
1514960493181687,-1,-1,0,-2,0,-1,-1,-2
1514960493182669,-2,-1,-2,0,1,-1,0,-2
1514960493182669,-1,-2,-1,-3,-1,1,-1,-1
1514960493194696,-1,0,0,-2,-1,-2,-2,1
1514960493194696,-1,0,-1,-2,0,0,-4,0
1514960493203681,0,-1,-1,-1,-1,0,-3,0
1514960493203681,-1,0,-1,-1,-2,0,-1,-2
1514960493218694,-2,-1,-2,-3,-1,-1,0,-2
1514960493218694,-2,0,-2,-1,-1,-1,-1,-3
1514960493220699,-2,-2,0,-1,-1,0,-1,-1
1514960493220699,-1,-2,-3,-1,-2,1,-2,1
1514960493241727,-1,-3,-2,-1,0,-2,-2,2
1514960493241727,-3,-1,-2,1,-2,-2,-1,-1
1514960493243724,-1,-1,0,-2,-1,-1,0,-2
1514960493243724,-2,-2,1,0,1,0,-3,-3
1514960493254744,1,0,-1,-1,-1,0,-1,0
1514960493254744,-1,-1,-1,-2,-1,-1,2,-3
1514960493263730,-3,-1,-3,-2,-2,0,0,1
1514960493263730,-3,-2,0,-1,-1,-2,-1,-1
1514960493278735,0,-1,-2,-2,0,2,-2,-2
1514960493278735,-1,-1,0,0,-1,-2,-1,-2
1514960493280736,1,0,-1,0,1,-3,-1,0
1514960493280736,0,-1,-2,-1,-1,0,1,-1
1514960493301763,-1,-2,1,0,-2,-1,-3,-1
1514960493301763,0,-1,-2,-1,-1,-2,-1,0
1514960493302753,-1,0,0,-1,-3,-2,-1,-1
1514960493302753,-2,0,-2,-1,0,-3,-1,-1
1514960493314787,-3,-1,-2,0,-1,-2,-2,0
1514960493314787,-1,-1,-1,-1,-2,0,-1,1
1514960493323767,0,0,-1,-2,-1,-1,-1,-3
1514960493323767,-1,-2,-1,-1,0,-1,-1,-1
1514960493353851,0,-2,0,0,-4,0,0,0
1514960493353851,0,-1,-1,-2,0,-1,-1,-1
1514960493355836,-1,-1,0,-1,-1,-1,1,0
1514960493355836,1,0,-1,-1,-3,-2,0,-2
1514960493360856,-2,1,1,-2,0,-1,-1,-2
1514960493360856,-3,-2,-1,-1,-1,0,-1,0
1514960493362833,-1,-2,0,1,0,0,-1,1
1514960493362833,-2,-1,-1,-1,0,-1,0,-2
1514960493374841,-3,-3,0,0,-1,-2,-2,-3
1514960493374841,0,-1,-3,-2,-2,-1,0,-1
1514960493383849,-2,-3,-2,-1,-1,0,-2,-1
1514960493383849,-2,-1,-1,-2,-1,-2,0,0
1514960493406874,-1,-2,-2,-1,-2,-1,0,-3
1514960493406874,-1,-1,0,-1,-1,-2,-1,0
1514960493407863,0,0,-1,-1,-2,-2,-2,-1
1514960493407863,-1,-2,0,0,-2,-2,-4,-2
1514960493421878,-2,-1,-2,0,-2,-2,-1,-1
1514960493421878,-1,1,-1,-2,-1,0,0,-1
1514960493422874,2,-1,-2,-2,-1,-1,0,-1
1514960493422874,-2,-1,0,0,0,-2,0,0
1514960493443893,-1,-1,-2,0,2,0,-1,-2
1514960493443893,-2,-1,0,-1,-2,-1,-3,0
1514960493445902,-2,-1,-1,-2,0,0,-1,0
1514960493445902,-1,-2,-2,-1,-1,-1,-1,1
1514960493458911,-1,-1,-2,-3,0,-3,0,-3
1514960493458911,2,0,-2,0,0,-2,-2,0
1514960493459900,-1,-2,0,-1,-2,0,0,-2
1514960493459900,0,-1,-1,-1,-2,-1,-2,0
1514960493480937,-1,-3,-2,-2,0,1,0,1
1514960493480937,0,-2,-1,-1,-2,0,-1,-1
1514960493482918,-3,-1,0,-1,-2,-1,-1,-2
1514960493482918,-1,0,-3,-2,0,0,-1,0
1514960493510939,-1,-2,-2,0,-2,-1,-1,1
1514960493510939,0,-1,-1,0,-2,0,-3,0
1514960493519954,-1,-1,-2,1,0,1,2,-2
1514960493519954,-1,0,-1,-2,-3,0,-1,-1
1514960493519954,0,-1,-1,-1,0,1,-3,-2
1514960493519954,-3,-3,0,-2,-1,0,0,0
1514960493521956,1,-1,-1,-1,0,-1,-1,-2
1514960493521956,-1,-3,-2,-1,0,-2,-2,-3
1514960493555998,-1,0,0,0,-2,-1,-1,-1
1514960493555998,1,1,-1,-1,-1,-2,-2,-1
1514960493557971,0,-1,0,-1,-3,-1,-2,-2
1514960493557971,-2,-2,0,-1,0,0,-1,0
1514960493564003,0,0,-1,-2,-3,0,-2,1
1514960493564003,0,-1,-2,0,0,0,-1,0
1514960493564976,-1,-2,-3,-1,0,-2,-2,0
1514960493564976,1,-1,-1,0,0,-1,-1,-2
1514960493579001,-1,-1,-1,0,-1,-3,-3,0
1514960493579001,-3,-3,0,-1,-2,-1,-1,0
1514960493581006,-2,0,-1,-2,-2,0,0,2
1514960493581006,0,1,-2,-1,-2,1,-1,0
1514960493601012,-3,-1,-2,-1,-2,-2,1,-2
1514960493601012,1,-2,-1,-2,0,0,0,-1
1514960493603003,-2,-1,-2,-2,1,-2,-2,-3
1514960493603003,-2,-1,-1,0,-3,0,-3,-3
1514960493624027,-2,0,-1,-3,-1,-2,-1,0
1514960493624027,-1,0,-1,0,-2,-2,-3,-1
1514960493625017,-1,-2,-1,-1,-2,-2,-1,0
1514960493625017,-1,-1,-1,0,-1,-2,0,-1
1514960493638032,-1,-1,-2,-1,-1,-1,-1,-1
1514960493638032,-3,0,-1,-1,-2,-2,0,-1
1514960493645102,0,-1,0,-1,0,-2,-3,-1
1514960493645102,-2,-1,-1,-2,-2,0,0,-2
1514960493661105,1,-1,0,-2,-1,0,-1,-1
1514960493661105,-1,0,-2,-2,-1,0,-1,-1
1514960493663096,1,-2,-4,0,-2,0,0,-1
1514960493663096,-2,-1,-1,-2,1,-1,0,-1
1514960493684110,-2,0,0,-2,-1,0,-2,2
1514960493684110,0,-1,-2,-1,-2,-2,1,-2
1514960493685111,-2,-2,-2,1,-2,-1,-1,0
1514960493685111,-1,-2,-2,1,-1,0,-3,0
1514960493698146,-3,-1,-2,0,-1,-1,-2,-3
1514960493698146,0,-2,-2,-2,-1,-1,-3,-2
1514960493705151,-3,0,-1,-2,0,0,-3,-2
1514960493705151,-1,-1,-1,-1,-1,-1,0,-1
1514960493721142,-1,0,-2,2,1,-1,1,0
1514960493721142,-1,-1,-1,-1,0,-1,0,-1
1514960493723139,-1,-2,-2,-1,-1,-2,1,-2
1514960493723139,0,-3,0,-2,0,-3,-2,0
1514960493744217,1,-3,0,-1,0,-2,-1,-1
1514960493744217,-2,-2,-1,1,-2,-1,-1,-1
1514960493745229,-1,-1,0,0,-2,-1,0,0
1514960493745229,-2,-2,-3,-1,-1,-1,1,-3
1514960493758238,1,-1,-3,-1,-2,-1,-1,-1
1514960493758238,0,-1,0,-2,-1,-2,0,-1
1514960493765232,0,-3,0,-1,0,-2,0,-1
1514960493765232,-1,-2,0,-1,0,-2,0,-1
1514960493781266,-2,-1,0,-2,-1,-1,1,-2
1514960493781266,-1,0,0,0,-1,-2,-1,0
1514960493796254,-1,-1,-2,0,0,-2,1,-1
1514960493796254,-1,-1,-2,0,-1,0,-1,0
1514960493804262,1,-1,-1,-3,-1,-1,-3,1
1514960493804262,-1,-1,-1,-3,-1,0,0,-2
1514960493805263,-2,-1,-1,-1,-1,-1,-3,-1
1514960493805263,-1,1,-1,0,-1,-2,-3,-1
1514960493826288,-3,-2,0,0,0,0,-1,-1
1514960493826288,-1,0,-2,-1,0,-3,0,0
1514960493828281,-2,-1,-2,-1,-1,-2,0,-2
1514960493828281,-1,-2,-3,-1,-1,-1,-1,-2
1514960493849308,-2,-2,-1,-2,0,-1,-2,0
1514960493849308,-2,-3,-1,-1,-1,0,1,0
1514960493850293,-1,-1,-2,-2,-2,0,-2,0
1514960493850293,1,-1,-1,-2,-2,-1,0,-1
1514960493864331,-2,-1,-1,-1,0,-2,0,-1
1514960493864331,-1,0,-3,0,-1,0,0,0
1514960493865304,-1,-1,2,0,0,1,-2,-1
1514960493865304,0,-2,-1,-1,0,0,-3,-3
1514960493878329,1,-1,0,-2,0,0,0,-1
1514960493878329,-1,-1,-1,0,1,-2,-1,1
1514960493885333,-2,-2,-2,0,-2,-2,-1,-1
1514960493885333,-3,-1,0,-3,-1,-1,0,0
1514960493902340,2,-2,-3,0,-2,-2,0,-3
1514960493902340,-1,-1,1,-2,-1,-1,-3,-2
1514960493907348,0,-1,-3,-2,0,0,-2,-2
1514960493907348,-1,-1,-1,-1,-1,-1,-2,0
1514960493923357,-1,-3,-2,-2,-2,-1,2,-1
1514960493923357,0,0,-1,-2,0,-1,0,-2
1514960493925345,-2,0,0,-1,-1,0,-1,-1
1514960493925345,0,0,-2,-2,-2,0,0,0
1514960493937355,-2,0,-1,0,-2,0,-2,0
1514960493937355,-1,-1,0,0,-3,-2,-3,-2
1514960493946410,-1,-1,0,0,1,0,0,0
1514960493946410,0,-1,-1,-1,-2,-1,-2,-1
1514960493961452,-2,-1,-1,-3,-1,-2,-3,1
1514960493961452,0,-2,-2,0,-2,-3,-1,-1
1514960493962422,-1,1,1,-1,-2,0,0,-1
1514960493962422,-2,-1,0,-1,-1,-1,-1,-1
1514960493984462,-1,0,-1,0,-1,1,-3,0
1514960493984462,-2,-2,0,-2,-1,0,-2,1
1514960493989443,-1,-2,-1,-3,0,-3,-1,0
1514960493989443,-1,-2,-2,-3,0,0,0,-1
1514960494006503,-1,-1,0,-1,-3,1,0,-1
1514960494006503,-2,-1,-2,0,-1,0,-1,-1
1514960494007503,-1,-2,-2,0,-1,0,1,-1
1514960494007503,1,-1,-2,-1,-1,-3,-1,-1
1514960494021574,-1,-1,-1,-1,-1,-2,0,-2
1514960494021574,1,-1,0,-1,-1,-1,-3,-2
1514960494022572,0,-2,-1,0,-1,-2,-2,-2
1514960494022572,-1,1,0,0,-1,-2,-1,-2
1514960494043599,-1,-2,-1,-2,0,-1,-2,-1
1514960494043599,0,-1,0,0,-3,1,0,0
1514960494045589,-2,-1,0,-2,-1,-2,0,-1
1514960494045589,-2,-1,-1,0,-2,0,-3,-2
1514960494057597,-2,-1,-2,-1,0,0,-1,0
1514960494057597,-3,-1,-1,-1,-1,-2,-2,-1
1514960494073611,0,-2,-2,-1,-1,-1,-2,0
1514960494073611,-1,-2,-1,0,-2,-1,1,-2
1514960494081628,-1,-3,-1,-1,-1,-1,-1,-2
1514960494081628,-2,-2,-3,-1,-1,0,0,-1
1514960494082610,1,-1,-3,-1,-1,-1,0,-1
1514960494082610,-2,0,-2,-1,-1,1,1,0
1514960494103630,-3,-2,0,-1,-2,1,-2,0
1514960494103630,-1,-1,-1,0,-1,0,0,0
1514960494105623,-2,1,-2,-2,-3,-1,-1,0
1514960494105623,-1,1,-1,0,-1,-1,0,2
1514960494117653,-2,0,-1,-1,0,-3,0,-2
1514960494117653,1,0,-1,-1,-2,-1,-1,1
1514960494126637,-1,-2,0,-1,-2,-1,0,-2
1514960494126637,0,-2,-2,-2,0,-1,-1,0
1514960494141647,-1,0,-3,1,-1,-1,-1,0
1514960494141647,0,-2,-1,0,-1,-3,0,0
1514960494142648,0,-1,1,-1,-1,-2,-2,-1
1514960494142648,0,-2,-1,0,-1,0,0,-1
1514960494163688,0,0,-2,-1,-3,0,-2,0
1514960494163688,-4,-1,0,-3,1,-1,-1,-2
1514960494165665,-3,-1,-1,-1,-1,0,-2,-1
1514960494165665,-1,-1,0,-1,0,-1,-2,-1
1514960494177674,0,-2,-1,-2,0,0,0,-2
1514960494177674,0,-1,-2,-2,-3,1,0,-2
1514960494186694,-1,-2,0,0,0,-1,-2,-2
1514960494186694,-3,-2,0,-2,0,-2,-1,1
1514960494201706,-1,1,-2,-2,-2,-2,-2,0
1514960494201706,-1,-1,-1,0,0,-1,1,0
1514960494202707,1,-1,0,-2,-1,-2,0,0
1514960494202707,2,-1,-2,-1,-3,-2,-2,-3
1514960494223735,0,-2,0,0,0,-1,-1,1
1514960494223735,0,0,-2,0,-1,0,-1,-3
1514960494238723,-1,-1,-1,-1,-1,-1,0,0
1514960494238723,0,-1,0,-1,-3,-1,0,-3
1514960494238723,-2,-1,-1,-2,-1,-1,-2,-1
1514960494238723,0,-1,-2,-2,-2,-2,0,0
1514960494246754,-2,-1,-1,-1,-1,0,-1,-2
1514960494246754,-3,-1,-2,-1,1,-2,-2,-1
1514960494261763,-2,-1,-2,-2,0,-1,-1,-1
1514960494261763,-1,-1,0,-2,-1,0,0,0
1514960494262734,1,-1,-1,-2,-1,0,-1,0
1514960494262734,-2,-1,-2,-2,-1,-1,-1,0
1514960494283766,0,-1,0,2,-3,-3,-2,-2
1514960494283766,0,-3,-1,-1,0,0,0,-2
1514960494285767,-1,-1,-3,-1,-3,-1,-1,-3
1514960494285767,1,-1,0,-1,-1,-1,-1,0
1514960494297770,0,-1,-3,-2,-1,-2,-1,-1
1514960494297770,-2,-3,0,0,-2,-3,-2,1
1514960494306767,-1,0,-2,0,0,-1,-2,-1
1514960494306767,-1,-1,-1,-3,0,-1,-1,-1
1514960494321793,-2,-1,0,-1,-1,-1,-1,-1
1514960494321793,-1,1,-1,-2,0,-2,-4,-1
1514960494323779,-1,-1,-1,0,0,-1,-1,0
1514960494323779,-1,-1,-1,-2,-1,-1,-2,1
1514960494343855,-1,-2,0,-2,-2,-1,-1,0
1514960494343855,-2,-2,-1,0,-1,-2,0,0
1514960494349808,-2,-1,0,0,-2,0,-2,-1
1514960494349808,-2,0,-1,1,-2,-1,-1,-3
1514960494357815,1,1,0,-1,-1,0,-2,0
1514960494357815,-1,1,-1,-1,-1,1,-2,-2
1514960494366807,-1,-2,-1,-2,0,-2,-1,1
1514960494366807,-3,-1,0,-1,-2,-2,1,-2
1514960494381837,-1,-1,-5,-3,-1,0,-2,-1
1514960494381837,1,1,-2,-1,-1,-1,0,-3
1514960494383839,0,-3,-2,-2,-1,-2,-1,-2
1514960494383839,-1,-2,-1,-1,-1,0,-1,-1
1514960494403847,0,-1,0,-1,0,-2,0,-1
1514960494403847,-2,-1,-2,1,-1,0,0,-1
1514960494405844,0,-1,-2,-1,0,-2,-1,-1
1514960494405844,-2,-1,-1,0,-1,-1,-1,-2
1514960494425849,-1,0,0,0,-1,-1,0,-2
1514960494425849,-2,-3,-2,-1,-1,-1,-3,-2
1514960494427850,0,0,-2,0,-3,-2,-1,-3
1514960494427850,-1,-1,0,-2,-1,-1,-2,-2
1514960494440962,0,-2,-1,-1,-2,-1,0,0
1514960494440962,-1,-2,0,-2,0,-4,1,1
1514960494442931,-2,-1,0,0,0,0,-1,-2
1514960494442931,-1,1,-2,0,0,0,-1,0
1514960494463973,0,-1,-1,-1,-2,0,-3,-2
1514960494463973,0,-1,-3,0,-3,-1,-3,1
1514960494465948,-1,-1,-3,-1,0,-2,2,0
1514960494465948,-2,-1,0,-2,-1,-2,-1,1
1514960494485966,0,1,1,-1,-1,-2,0,-2
1514960494485966,-2,-1,-1,-1,-1,-1,-1,0
1514960494487966,-2,-2,-1,-1,-4,0,-3,0
1514960494487966,0,-2,-1,0,0,0,1,0
1514960494500971,-2,-1,-2,0,-2,0,0,1
1514960494500971,1,0,-2,-2,-1,-1,-1,-2
1514960494502973,-1,-1,-2,-2,-1,-3,-1,-1
1514960494502973,0,-1,-3,-2,-1,-1,-2,1
1514960494523991,0,-1,1,-1,-2,0,0,-2
1514960494523991,-2,0,0,-1,-1,-2,-1,-1
1514960494524991,0,-2,-2,-2,-1,0,0,-1
1514960494524991,0,0,-2,0,0,-2,-2,2
1514960494546065,-1,-2,-2,-1,-2,-2,-2,-1
1514960494546065,-1,-2,0,-2,-1,0,-2,-1
1514960494548005,-1,-2,-1,-1,0,0,1,-1
1514960494548005,-2,-1,-3,-1,-1,0,0,-1
1514960494561013,0,-3,-2,0,-1,0,-1,-2
1514960494561013,-1,1,-3,0,-2,-1,-1,-2
1514960494567017,-2,0,1,0,-1,-2,-2,-2
1514960494567017,0,-1,-1,-1,-1,-1,-2,-1
1514960494584055,-2,-1,-2,2,0,-1,-1,1
1514960494584055,1,-1,-1,-1,0,0,-2,-1
1514960494585051,0,0,-2,1,-2,-1,1,0
1514960494585051,-1,0,-1,0,-1,0,-2,0
1514960494606093,-1,-1,-1,-2,0,-1,-2,-1
1514960494606093,-1,-2,-1,-2,-1,-3,-2,-2
1514960494608092,0,-1,1,0,-2,-1,-2,-2
1514960494608092,0,-1,0,-1,-1,-3,-1,-3
1514960494621106,-1,-2,0,0,1,-2,0,-1
1514960494621106,-2,-1,-3,-2,-1,0,1,-1
1514960494627106,-2,-2,-1,-1,-2,1,-1,-3
1514960494627106,-2,0,0,-1,-1,-2,0,0
1514960494644187,-3,-1,-2,-2,1,-1,-1,1
1514960494644187,0,-1,0,-1,0,-1,1,-1
1514960494645189,-1,1,-1,-2,1,0,-2,-1
1514960494645189,-2,-1,-3,-1,-3,-1,-3,-2
1514960494666199,1,-1,0,-2,-1,-1,0,-2
1514960494666199,-3,0,-1,-2,-1,-2,-3,0
1514960494668187,-2,-2,-2,-1,0,0,0,-2
1514960494668187,-1,-2,-1,-1,-1,0,-1,-3
1514960494681226,0,0,-2,-3,0,-1,0,-1
1514960494681226,-1,-1,-1,0,-3,-1,2,-3
1514960494687226,1,0,-2,-3,-1,0,-2,4
1514960494687226,0,-2,-1,-1,-2,-1,-2,-1
1514960494704237,-2,-2,-2,-1,-2,-3,-1,-2
1514960494704237,-1,-1,0,-1,-2,1,0,-2
1514960494705214,-1,-1,-2,-1,-1,-1,-2,-1
1514960494705214,0,-2,0,-1,-2,0,0,-1
1514960494725227,-2,1,-1,0,0,0,-1,0
1514960494725227,0,-1,-1,-1,0,-1,-4,0
1514960494734296,-1,-1,-1,-1,0,-2,-1,-1
1514960494734296,-2,-1,-2,-2,-1,-2,0,0
1514960494740290,-1,-2,-1,1,-2,-1,0,0
1514960494740290,-1,-1,-1,0,2,-2,-2,-1
1514960494747295,-2,-3,-4,2,-1,-1,1,-2
1514960494747295,-1,-1,1,-1,0,-1,0,-2
1514960494764332,0,0,0,-2,-2,-1,-2,0
1514960494764332,-2,0,-1,-1,0,-1,-3,-1
1514960494765314,-2,-2,0,-2,-3,-2,-2,-2
1514960494765314,0,-1,-2,-2,-1,-1,-1,0
1514960494793337,-2,-2,-1,0,-1,-1,-1,-2
1514960494793337,2,-2,-2,-2,0,-1,-1,-1
1514960494795333,-2,-1,1,-1,-1,-2,-1,-2
1514960494795333,-1,-1,-2,-2,-1,0,-1,-3
1514960494800342,0,-3,-1,-2,-1,0,-1,-1
1514960494800342,-2,-1,0,0,-3,-1,-1,1
1514960494807338,0,-1,0,-2,-2,0,-2,-2
1514960494807338,-3,-1,-2,-1,-1,-1,-1,-1
1514960494824359,-2,-1,-2,-1,-1,-1,-2,0
1514960494824359,-2,-2,-2,-2,-1,-3,1,-3
1514960494826361,2,-1,-1,0,1,-2,0,-1
1514960494826361,1,-1,-1,-1,-1,0,-3,-1
1514960494846379,0,0,-2,-1,0,-2,-2,-1
1514960494846379,-1,-3,1,0,-2,-1,-1,-2
1514960494848380,-2,0,-1,-2,-1,1,0,-3
1514960494848380,-1,0,-1,-1,-1,-2,-1,0
1514960494860385,-2,0,0,-1,-1,-1,-2,0
1514960494860385,-1,-2,-2,0,-1,0,1,-3
1514960494867403,-1,-2,-2,-1,0,-3,-1,1
1514960494867403,0,-3,0,-1,-2,0,0,-2
1514960494883414,-1,-2,0,-2,0,-2,-3,-2
1514960494883414,0,-1,-1,0,0,0,-2,0
1514960494891396,-3,0,-1,1,-1,0,2,0
1514960494891396,-2,0,-1,0,-1,0,-1,-1
1514960494906421,-1,1,0,-3,-1,-1,0,-2
1514960494906421,-2,0,-2,-2,-1,-1,-2,1
1514960494907410,-3,-3,-2,-1,-2,-1,-2,-1
1514960494907410,-1,0,-1,0,0,0,1,0
1514960494920416,-1,0,-1,0,-2,0,0,-1
1514960494920416,-2,-1,-1,-1,-1,0,-1,-2
1514960494929423,-2,1,-2,-1,-1,-2,-2,0
1514960494929423,-2,-1,-1,-1,0,-2,-1,0
1514960494943487,0,-3,-1,-2,-2,-1,-1,-1
1514960494943487,0,0,-1,-2,-2,-1,0,-1
1514960494945467,-2,-1,1,-1,-1,-1,-3,-1
1514960494945467,-2,-1,-3,0,-1,-1,-1,0
1514960494966508,-1,0,-2,1,-1,0,-2,-1
1514960494966508,0,-1,-2,-1,-1,-2,-2,-1
1514960494967485,0,-1,-1,-3,-2,-2,-1,-1
1514960494967485,-1,-1,-1,-2,-1,-1,-2,2
1514960494980520,-1,0,-2,-1,-2,-1,-1,-1
1514960494980520,-2,-1,-2,-1,-1,0,1,-2
1514960494988610,0,1,0,0,-3,0,-2,-2
1514960494988610,-1,-1,-1,1,-1,-1,0,0
1514960495010625,-3,-3,-1,-2,-1,-1,-2,-1
1514960495010625,-2,-1,-2,0,-1,-2,-2,0
1514960495018623,-1,0,-2,-2,0,-3,-1,-1
1514960495018623,0,-1,0,-1,-1,-3,-1,-1
1514960495026624,-2,-1,0,0,-2,-1,0,-1
1514960495026624,-1,0,0,-1,0,-1,-1,2
1514960495027625,-2,-2,-1,-1,-1,0,0,0
1514960495027625,-1,1,-2,-1,-1,0,-2,-2
1514960495039707,1,2,-1,-1,0,0,-2,1
1514960495039707,-1,-1,-2,-2,-1,-2,0,1
1514960495056718,1,-1,-1,1,1,1,0,-1
1514960495056718,0,-1,-2,-2,0,-1,-2,0
1514960495063724,-1,-2,-2,-1,-1,1,0,0
1514960495063724,1,0,0,-1,-2,-1,-1,-3
1514960495065725,-2,-1,-1,-3,-2,1,-1,-1
1514960495065725,0,-1,-1,-2,-1,-2,1,-2
1514960495086741,-2,-2,-1,-3,-3,-2,-1,-1
1514960495086741,-2,-1,-1,-1,-1,-2,-2,0
1514960495087729,-2,-3,-2,-1,-1,-3,0,-2
