timestamp,emg1,emg2,emg3,emg4,emg5,emg6,emg7,emg8
1513228715334830,0,-3,-2,-1,-1,-1,-1,-1
1513228715334830,-1,-1,1,0,-1,0,0,0
1513228715336333,-1,0,-2,-3,-1,0,-2,1
1513228715336333,0,0,-1,-2,-1,-2,0,-2
1513228715356846,-1,-3,-1,-1,-1,-1,1,-1
1513228715356846,-1,-2,0,-2,0,-1,1,-2
1513228715358347,-1,-1,0,-1,-1,0,-1,-2
1513228715358347,1,-2,-1,-1,0,-2,-1,-1
1513228715379362,-3,-3,-1,-1,-1,1,-1,-1
1513228715379362,-1,-2,-1,0,-1,-2,-2,-2
1513228715380863,-1,2,0,-1,-2,-1,-2,0
1513228715380863,7,-8,-9,-2,-3,-2,-2,1
1513228715394389,-2,0,0,-1,0,-1,0,0
1513228715394389,-2,-1,-2,-1,0,0,-2,-1
1513228715396388,1,-2,-3,-3,-2,0,-1,-1
1513228715396388,-2,-1,-3,0,-1,-2,-2,-2
1513228715424393,-2,0,-1,-2,-2,0,0,0
1513228715424393,-1,-1,-1,-1,-2,-1,-1,-1
1513228715425896,-4,-2,1,0,0,-1,0,0
1513228715425896,-2,0,1,-1,-1,1,-2,-1
1513228715439413,1,-1,0,-1,-2,-1,1,-1
1513228715439413,-3,1,0,-2,-2,-2,-2,-2
1513228715440905,1,-1,-1,0,-2,-2,-1,-2
1513228715440905,-1,3,1,0,-1,0,0,-2
1513228715453924,-2,-1,0,0,0,-2,-1,-2
1513228715453924,0,-1,-2,0,0,-2,-1,1
1513228715460419,-2,-2,-2,-2,-2,-3,0,0
1513228715460419,-2,-1,-1,0,-3,-2,1,-2
1513228715476931,-5,-3,-1,1,1,1,0,-3
1513228715476931,-1,-2,-1,-2,-2,-1,-2,-2
1513228715478432,0,-2,-4,-2,-1,-2,-2,-1
1513228715478432,1,0,-1,-1,-1,-3,-1,-3
1513228715499949,1,-3,-3,-2,0,0,-1,-1
1513228715499949,-2,-2,-3,-1,-3,-1,-1,0
1513228715500948,-4,0,2,1,0,0,1,-3
1513228715500948,-1,0,-1,-2,-1,-2,-2,0
1513228715513957,-2,-1,2,-1,0,-1,-2,-1
1513228715513957,0,1,0,-1,0,-1,-1,0
1513228715520462,3,-2,-2,0,0,-1,-1,1
1513228715520462,-3,-1,-2,-1,0,-2,-1,0
1513228715536973,0,-1,-3,-2,-2,-2,-2,-2
1513228715536973,-1,-3,-2,-2,0,0,-1,-1
1513228715538477,0,-1,0,-1,-2,-1,-1,-1
1513228715538477,-3,-1,1,-1,-1,-2,-1,-1
1513228715567007,0,-2,-2,-1,-3,0,-1,0
1513228715567007,-2,-1,-1,1,-1,-1,0,-1
1513228715568495,2,1,-3,-1,-1,-1,-2,0
1513228715568495,-1,-2,-2,-1,0,1,-2,-1
1513228715574000,1,-1,-1,-3,0,-3,0,0
1513228715574000,0,1,-1,-1,0,-2,0,-2
1513228715580504,-1,-1,-2,-1,-1,0,0,-1
1513228715580504,-4,-2,0,-1,0,0,0,-1
1513228715597019,1,-2,0,-2,-1,-1,-3,-2
1513228715597019,-2,-2,-2,-2,-1,-1,-1,-1
1513228715598517,-5,4,1,-2,-3,-3,-1,-3
1513228715598517,0,-2,-3,-3,-3,-1,0,-2
1513228715619531,-3,2,0,-2,-1,0,-2,0
1513228715619531,0,0,-1,-1,-2,-2,-3,-1
1513228715621033,0,-2,-3,-3,0,-1,-1,0
1513228715621033,0,-1,-2,-2,-1,-1,-1,0
1513228715634041,0,-1,-2,-2,-2,-1,0,-3
1513228715634041,-3,-2,-1,0,-1,-1,2,-1
1513228715640572,0,-2,-3,0,-1,-1,-2,1
1513228715640572,-3,-1,-1,0,-2,-3,-1,-1
1513228715657111,1,-1,-2,-1,-1,-2,-2,-1
1513228715657111,-3,-1,0,-3,-1,-1,-2,-3
1513228715658602,-2,-2,1,-1,-1,0,1,-2
1513228715658602,0,-1,1,-2,0,-2,1,-2
1513228715679620,-4,-2,0,0,0,0,-1,0
1513228715679620,-2,-1,0,-1,0,-2,0,0
1513228715681119,1,-1,0,-2,0,-1,-1,-1
1513228715681119,0,-1,1,0,0,-1,-1,0
1513228715693683,1,-3,-1,1,-1,-2,-1,-1
1513228715693683,-3,-1,-1,-1,-1,-1,0,-1
1513228715700633,-1,-2,-3,0,0,-1,-1,-2
1513228715700633,-1,0,-2,-2,0,-1,-1,-1
1513228715717143,0,0,-1,-1,-2,-2,-1,-2
1513228715717143,0,-1,-1,0,-1,-1,0,1
1513228715718653,-1,-2,0,1,-1,-2,-1,0
1513228715718653,-3,-2,0,-1,0,-2,-1,-1
1513228715739669,-2,-3,-1,-2,-1,-1,-1,-1
1513228715739669,0,0,-2,-1,-2,-1,-2,-2
1513228715741161,-1,-1,-2,-2,-1,-2,-1,-2
1513228715741161,-1,2,2,-1,-3,0,0,-1
1513228715753168,-2,1,1,2,-1,0,1,0
1513228715753168,1,-1,-2,-1,-1,-1,-1,0
1513228715762197,-2,-2,1,-2,1,-3,1,-2
1513228715762197,-1,-1,-2,-2,-2,0,-1,-1
1513228715777200,-1,0,-2,-1,0,-1,-1,-2
1513228715777200,1,-2,-1,0,-1,-1,-1,-1
1513228715778708,-1,-4,-1,-1,-3,-1,-1,0
1513228715778708,2,-3,-6,-2,-3,-2,-3,-1
1513228715799711,-1,3,0,-2,-2,0,-1,-2
1513228715799711,0,-1,-2,-1,-2,-1,-1,1
1513228715801213,-3,0,0,0,0,-2,-2,-2
1513228715801213,0,-3,-3,-1,-2,-3,0,-1
1513228715813228,-1,-4,-3,-1,-1,-1,-1,-3
1513228715813228,-1,0,-2,0,0,-1,0,-1
1513228715822220,-2,0,-1,-1,-1,-1,-1,-3
1513228715822220,-2,1,-1,2,-2,-2,-2,1
1513228715844751,-5,1,0,1,0,0,-2,0
1513228715844751,-1,-3,-1,-3,-1,-1,-3,-2
1513228715846237,-1,-3,-1,-1,-1,-1,-1,-1
1513228715846237,-1,-2,1,-2,-1,0,-1,-2
1513228715859745,0,-1,-1,-3,0,-2,0,-1
1513228715859745,-2,-3,-1,-2,0,0,-1,0
1513228715861246,0,-5,-3,-2,-2,-1,0,0
1513228715861246,-1,-1,-1,-1,-3,0,-2,0
1513228715873278,1,-2,-2,-1,-2,-1,-1,-1
1513228715873278,1,1,-2,-2,0,-1,1,-2
1513228715882274,-2,-1,-1,-2,-2,0,-1,-1
1513228715882274,-1,1,0,-2,-2,-1,1,-2
1513228715904789,-4,-4,1,0,0,-1,-1,1
1513228715904789,0,0,-2,-1,-1,-1,-1,0
1513228715906278,0,0,0,-1,0,-2,-1,-1
1513228715906278,-2,0,0,-1,-1,-1,-2,-3
1513228715926807,0,-2,-4,-3,-1,-4,-1,-2
1513228715926807,2,1,-1,1,-3,0,-1,0
1513228715928803,-4,2,0,1,-1,0,0,-3
1513228715928803,-3,-1,-1,-2,-1,0,-1,0
1513228715933296,1,0,-3,0,-2,-1,0,-1
1513228715933296,1,0,-3,-1,-1,-1,2,0
1513228715942303,3,-1,-2,1,-2,0,-2,1
1513228715942303,-1,-1,-2,0,-1,0,1,-1
1513228715957353,-1,0,1,-4,-1,-1,-1,-1
1513228715957353,2,-1,0,-2,-2,-2,-2,-1
1513228715963327,-3,-2,-1,-3,-2,-2,-1,-2
1513228715963327,0,-3,-2,0,0,-1,-2,-2
1513228715979829,-1,10,0,-2,-2,0,0,-2
1513228715979829,-3,-13,-2,0,1,0,0,0
1513228715981832,0,3,3,0,-1,0,0,0
1513228715981832,0,-4,-1,-1,-1,-3,-3,1
1513228715993339,3,2,-3,1,-1,-1,-1,-1
1513228715993339,-4,1,0,-1,-1,-2,-2,-2
1513228716001845,-2,-2,-4,-3,0,-1,-2,-1
1513228716001845,-2,-2,-1,1,-1,-1,1,-4
1513228716016855,0,-3,-2,-1,-2,-3,-1,0
1513228716016855,-2,-1,-3,-2,-1,0,0,-2
1513228716018371,0,-5,-3,-1,-2,-1,0,0
1513228716018371,0,3,0,-3,0,1,0,-1
1513228716039883,-2,-4,-1,-2,-2,-2,1,0
1513228716039883,0,0,1,0,1,0,-1,-1
1513228716040872,1,1,-1,-2,-2,-1,0,0
1513228716040872,-4,-2,2,2,0,-2,-1,-1
1513228716061889,-2,1,4,1,-2,1,0,0
1513228716061889,-2,1,-1,-1,-2,0,-3,-2
1513228716063392,-1,-1,0,0,-1,-2,-2,-1
1513228716063392,-5,2,0,-1,-2,-1,-1,-2
1513228716076897,-1,-4,-2,-1,0,-1,-2,-3
1513228716076897,-3,0,0,-1,-1,-1,0,0
1513228716078398,-1,-2,1,0,0,-1,-2,-2
1513228716078398,2,-1,-2,-2,-2,1,0,-1
1513228716099415,-3,-2,-2,-1,0,0,-2,0
1513228716099415,-2,0,1,-2,-1,0,0,-2
1513228716100916,2,-2,-3,0,-3,-4,0,-1
1513228716100916,-2,-2,1,0,0,-3,-1,-2
1513228716121933,0,0,-2,-2,-2,-2,-1,-2
1513228716121933,0,-1,-3,-1,-1,-3,-2,-4
1513228716123434,-1,1,-3,-2,-1,0,0,-1
1513228716123434,1,-2,-2,0,0,-1,-1,1
1513228716137452,-4,-3,0,0,0,-1,0,1
1513228716137452,-1,-2,-3,-1,-2,-1,0,-1
1513228716138944,-2,-3,-2,0,-2,1,-1,-2
1513228716138944,-2,-1,-2,-4,-2,0,-2,0
1513228716159468,-3,-1,1,-2,-1,0,-1,-2
1513228716159468,0,2,-1,1,0,-1,-1,-2
1513228716160960,0,0,-1,-1,1,-1,0,-2
1513228716160960,-4,-4,-3,-1,0,0,0,0
1513228716181985,2,-2,-3,0,-1,0,-1,-1
1513228716181985,-1,-2,1,-1,-1,0,-1,-1
1513228716183473,-2,0,0,-2,-1,-1,1,-2
1513228716183473,0,2,-1,0,1,-1,0,-3
1513228716196482,2,-1,-2,-2,-1,-1,-1,0
1513228716196482,-4,0,0,0,-1,0,-1,-1
1513228716202987,-1,-1,-2,-3,-2,-2,-1,0
1513228716202987,1,1,3,-2,-2,0,-2,-1
1513228716219501,-1,0,1,0,0,-1,-1,-1
1513228716219501,0,-2,-1,-1,-1,0,0,0
1513228716221001,2,-3,-4,-3,-1,-1,-1,2
1513228716221001,4,-3,-5,-2,-2,-2,-2,0
1513228716242027,-1,-2,-1,1,-1,-1,0,-2
1513228716242027,0,2,1,-2,-2,-1,0,-2
1513228716243517,-2,1,2,1,1,0,-2,-1
1513228716243517,-1,-1,-3,-2,-2,-2,-1,0
1513228716257029,1,-4,-2,-2,-3,0,-1,-1
1513228716257029,-1,-1,-2,-1,-2,-3,-2,-2
1513228716258535,-1,0,0,0,-3,-1,-2,0
1513228716258535,-2,-1,-1,-2,0,-1,0,-2
1513228716279543,-4,-2,-1,0,-1,0,-1,-3
1513228716279543,0,0,-2,-2,-1,-1,-1,0
1513228716281043,-2,1,-2,-1,-2,0,-2,-2
1513228716281043,-1,6,4,2,0,-1,0,2
1513228716302075,-3,-1,-1,-1,-1,-1,1,0
1513228716302075,2,0,-3,-1,-2,-2,0,-1
1513228716303579,-4,-1,0,0,0,0,1,-3
1513228716303579,3,-4,-3,1,-1,-3,-3,-1
1513228716324589,2,-1,-1,0,-1,-1,-2,-1
1513228716324589,0,0,-1,-1,-1,-2,-2,0
1513228716326074,-1,-1,-2,-2,0,-1,-1,-1
1513228716326074,-2,-5,-3,-1,-2,0,-1,-1
1513228716339583,1,-1,-3,-2,0,-1,-1,-3
1513228716339583,-5,-1,-1,1,0,-1,-1,0
1513228716341088,1,-1,-3,-2,-2,1,-1,2
1513228716341088,-4,2,1,0,-1,0,-1,-1
1513228716362109,-1,4,4,-1,-1,0,-1,2
1513228716362109,5,-1,-4,-2,-1,-2,-2,-1
1513228716363600,0,1,-1,0,0,0,-1,-3
1513228716363600,-5,-1,0,-1,0,-2,-2,-2
1513228716384615,2,-2,-4,-2,-2,-1,-2,0
1513228716384615,-2,-3,0,-2,0,-1,-2,-2
1513228716386117,-3,0,0,-1,-2,-1,-2,-1
1513228716386117,0,0,-3,-2,-2,-2,-1,-1
1513228716399627,1,-3,-2,-2,-2,-2,-2,-1
1513228716399627,-4,-1,-1,-2,-1,-2,0,1
1513228716401136,0,-1,0,-2,-1,-1,-2,1
1513228716401136,-2,-4,-1,0,-1,0,0,-1
1513228716422156,-1,-3,0,-1,-1,0,-2,-1
1513228716422156,-1,0,-1,0,-3,-1,-1,0
1513228716423658,2,-2,-3,-1,-1,-2,-1,-2
1513228716423658,-1,-1,-1,0,-1,-2,0,-2
1513228716436155,-5,-4,-2,0,-1,-1,-1,-2
1513228716436155,-4,1,2,-1,1,0,-2,0
1513228716443168,0,0,-1,-1,-2,-1,2,1
1513228716443168,0,-2,-2,-3,-1,-1,0,-2
1513228716459668,-2,-3,-3,0,-2,-1,-2,-1
1513228716459668,-2,-2,-1,-1,-2,-1,0,-3
1513228716461185,-3,-1,0,-2,-2,-3,-1,-2
1513228716461185,-1,-1,-1,-2,-1,-1,-1,-2
1513228716482686,-3,0,0,-1,0,-2,0,-1
1513228716482686,-1,-2,-2,-1,-3,-2,0,0
1513228716488200,-1,0,1,-1,-2,-1,0,-1
1513228716488200,-4,-2,0,0,-2,-1,1,-4
1513228716504557,0,0,-1,-4,-1,-2,-1,1
1513228716504557,0,1,-2,-1,-2,-1,-2,0
1513228716506048,-2,-3,-3,-1,-1,-2,-2,-2
1513228716506048,0,-2,-3,-1,-3,-2,-1,-1
1513228716519590,-3,-2,-1,0,-1,-1,-1,-1
1513228716519590,0,-1,0,-2,-1,-2,-1,-1
1513228716521102,1,-2,-1,-1,0,-2,-2,-1
1513228716521102,-4,-2,0,-1,-1,-1,-2,1
1513228716542132,-2,2,1,1,0,0,-1,0
1513228716542132,0,-2,-1,0,0,1,-1,0
1513228716543632,0,-2,-1,-2,-1,-1,0,-1
1513228716543632,1,-2,-4,-3,0,-3,-3,-1
1513228716556637,-2,1,-2,-1,-2,-1,-1,-2
1513228716556637,-3,-2,-1,-2,-2,-2,0,-3
1513228716563143,-3,0,0,-1,0,-1,1,-1
1513228716563143,1,1,-2,0,0,-1,-1,-1
1513228716579632,1,-3,-3,-1,-1,1,0,-1
1513228716579632,0,-2,-2,0,-1,-1,-1,-1
1513228716581133,1,0,-2,-2,-2,-3,-2,-1
1513228716581133,-5,1,0,-1,1,-2,0,-3
1513228716601647,2,0,0,-1,-3,-3,1,-2
1513228716601647,-2,-1,-1,-1,-1,-3,0,-1
1513228716608170,-3,-2,0,-2,-2,-1,0,-1
1513228716608170,-1,-1,-1,0,-1,-1,0,0
1513228716616167,-2,-3,-2,-1,0,0,-2,-2
1513228716616167,0,0,-2,-2,0,-1,-3,-1
1513228716623180,-1,-1,-2,0,0,0,-3,-3
1513228716623180,0,-3,-2,-1,-1,1,-1,0
1513228716639743,3,0,-3,-3,-2,-4,-2,-3
1513228716639743,0,0,-2,0,-1,0,0,-2
1513228716641245,-2,0,0,-1,-1,-2,-2,1
1513228716641245,0,3,1,-2,-2,0,0,1
1513228716662267,0,0,-1,0,0,-2,-1,0
1513228716662267,-1,-1,-1,-1,0,1,-1,-1
1513228716664259,1,1,-3,-2,-3,-2,-2,1
1513228716664259,-1,-2,-1,-1,0,-3,-1,-4
1513228716676311,-3,1,0,-1,-1,0,-1,0
1513228716676311,-1,-1,1,0,0,-1,-2,-1
1513228716690822,0,-2,-2,-2,0,0,-3,-1
1513228716690822,-1,-3,-3,-1,-2,-1,-2,0
1513228716699327,-2,-2,-1,-3,-2,-1,-1,0
1513228716699327,-2,-2,-2,-2,-1,-1,0,0
1513228716700828,-4,1,1,0,-1,-1,1,-3
1513228716700828,0,0,-1,-1,-3,0,-1,0
1513228716721845,1,-3,0,1,-3,0,0,-1
1513228716721845,1,1,-1,-2,-1,-2,0,-1
1513228716723846,-2,-2,1,0,-1,-1,-1,-1
1513228716723846,-1,-3,-1,-1,-3,-1,0,-1
1513228716735455,0,-2,-3,-1,-1,-3,-2,0
1513228716735455,-3,-4,-2,-3,-2,-3,-4,-1
1513228716744951,2,-1,-1,-2,-2,-1,1,1
1513228716744951,1,-2,-2,-4,-1,-3,-1,-3
1513228716759458,2,-1,0,0,-1,0,-1,-1
1513228716759458,-2,0,0,1,-2,-1,-2,-1
1513228716760960,-3,-2,-1,0,-1,-1,1,-2
1513228716760960,0,-1,-1,0,0,-1,-1,1
1513228716781975,-2,-1,-1,0,-1,-2,-2,-1
1513228716781975,0,1,-1,-1,0,-1,-1,-3
1513228716783467,-2,-1,-2,0,-1,-1,-1,1
1513228716783467,-1,0,-1,0,-2,-1,-1,0
1513228716795975,-1,-1,-1,-2,-1,-2,-2,-1
1513228716795975,3,0,-4,-2,-3,-1,-1,0
1513228716804480,3,-4,-4,-3,-2,-2,-1,-1
1513228716804480,-1,-2,-1,-2,-1,-1,-1,-1
1513228716819492,0,-1,-1,0,0,0,-1,-2
1513228716819492,0,-2,-3,-2,0,0,0,-3
1513228716821007,-2,-2,0,1,-2,-1,-2,-2
1513228716821007,3,-6,-5,-4,-3,0,-2,1
1513228716842007,-4,1,3,-2,0,0,0,-2
1513228716842007,-1,2,0,0,-1,-1,1,-3
1513228716843508,0,-1,-1,-2,0,0,-1,-2
1513228716843508,-1,-1,-2,0,-2,-2,-1,-1
1513228716855516,0,1,-1,0,0,1,-2,0
1513228716855516,-4,-2,1,0,-1,-1,-2,1
1513228716864532,-2,-3,-2,-1,-1,0,-2,-2
1513228716864532,-2,-2,-2,-1,0,0,0,-2
1513228716879542,0,-3,-1,-1,-2,0,-1,-1
1513228716879542,-2,-1,-1,0,0,-1,0,-1
1513228716881034,-2,-2,0,-1,-1,0,-1,-2
1513228716881034,-1,0,0,-1,0,0,-1,-1
1513228716902049,-3,-2,0,-1,0,-1,-2,1
1513228716902049,1,-1,1,-3,-1,-2,-2,2
1513228716903550,-1,0,0,-3,-2,-3,-1,0
1513228716903550,-2,-1,1,0,0,-2,-1,-1
1513228716915622,-1,-2,1,-2,-2,0,1,-1
1513228716915622,0,-4,-2,-1,-1,-2,0,-2
1513228716924626,2,-1,-1,-2,-1,-2,-2,0
1513228716924626,-4,0,0,-1,0,-1,-1,-2
1513228716939637,1,0,-2,-1,-2,0,0,-2
1513228716939637,-2,-1,-1,-1,-1,-3,-1,-2
1513228716941150,-1,-1,-1,-1,-2,-1,0,-2
1513228716941150,-2,1,-2,1,-1,-1,-1,-2
1513228716962154,-2,-2,0,-1,-2,-1,-2,-1
1513228716962154,0,-1,-2,0,0,0,1,-2
1513228716963669,-2,-1,-1,-1,-1,0,-1,-2
1513228716963669,-1,1,1,-2,-2,-1,-2,-1
1513228716975665,-1,-3,-1,-3,-1,-3,-1,-1
1513228716975665,-1,-1,-2,-1,-1,0,0,1
1513228716992174,-2,0,-1,0,-2,-1,-2,-1
1513228716992174,0,-1,-2,-2,1,-1,0,-2
1513228716999226,-1,-1,-2,-2,0,-1,-1,-3
1513228716999226,2,-2,-1,0,-2,-1,-3,1
1513228717001228,-13,-2,5,2,2,-1,-1,-1
1513228717001228,-1,-6,-2,-1,1,-1,-1,-1
1513228717021733,-1,0,-1,-1,-2,-3,-1,0
1513228717021733,-1,-1,-1,-2,0,-1,-1,-2
1513228717023750,6,0,-4,-2,-1,-3,-1,0
1513228717023750,-2,0,1,0,-1,0,0,0
1513228717035746,-2,0,1,0,0,-2,-1,-1
1513228717035746,-1,0,-3,-1,-2,-1,-1,1
1513228717044749,1,-2,-3,0,-1,-1,-1,0
1513228717044749,0,-1,-4,-5,-3,-3,-1,-2
1513228717059287,0,-2,-1,1,0,-2,-1,0
1513228717059287,-5,-5,-3,-1,-2,0,-1,-4
1513228717061276,-1,-1,0,-3,0,-2,0,-3
1513228717061276,-3,1,0,0,0,0,-2,-1
1513228717082276,1,-1,-5,-3,-2,-2,0,0
1513228717082276,-5,-1,1,0,0,0,0,0
1513228717083777,-3,-2,0,-1,-1,0,-2,-2
1513228717083777,-1,-1,1,-1,-3,-2,0,-3
1513228717095840,-1,0,0,0,-1,0,-2,-1
1513228717095840,-1,0,0,-1,-1,-1,-1,-1
1513228717112302,-1,-1,-3,-1,-3,-1,0,0
1513228717112302,2,0,-1,0,-1,-1,-2,-1
1513228717118819,-3,-2,0,0,-1,-2,-2,-2
1513228717118819,2,-1,-1,-1,0,-2,-2,-2
1513228717127314,-1,0,-1,-1,0,-1,0,-2
1513228717127314,-4,-3,-1,-1,-2,-1,-1,-1
1513228717141830,-1,-1,-1,-2,-2,-2,1,0
1513228717141830,0,-2,0,-2,-1,0,-2,-2
1513228717143819,-1,0,-1,0,-3,-3,0,-1
1513228717143819,-1,2,-1,-2,-2,1,-1,1
1513228717164333,0,1,-2,0,-1,0,0,0
1513228717164333,-1,1,-1,-3,-1,0,-2,0
1513228717165835,0,-2,-2,0,-1,0,-2,-1
1513228717165835,0,-3,0,0,0,-2,0,-1
1513228717179344,-2,0,-1,0,-1,-2,2,-1
1513228717179344,1,-2,-2,1,-3,-1,1,-1
1513228717180845,1,-1,-1,-2,-1,0,1,0
1513228717180845,-2,0,0,-1,-1,-1,-1,-1
1513228717209365,-2,-3,1,0,0,-1,-1,-3
1513228717209365,-1,0,-1,0,-1,-3,-2,-2
1513228717210866,-1,0,-2,-1,-1,-2,-2,-1
1513228717210866,1,-1,-4,0,-1,1,-2,-2
1513228717231884,-1,3,-1,-1,0,-1,-2,-1
1513228717231884,-1,2,0,-1,-2,0,0,0
1513228717233884,-1,-1,0,-2,-2,-2,-2,-1
1513228717233884,0,-2,0,-1,-1,-1,-1,-1
1513228717239388,-1,-2,0,-1,-3,-1,-2,0
1513228717239388,-1,-1,-1,-1,0,-2,-2,0
1513228717241389,-2,-2,-1,-2,-1,-1,-1,-2
1513228717241389,-1,-1,-1,-2,-1,-2,-2,-1
1513228717261403,-2,-2,0,-1,0,0,0,-1
1513228717261403,-1,0,-1,-2,-1,-2,0,0
1513228717269420,-2,0,-1,0,-1,-2,-1,-1
1513228717269420,0,0,-2,-1,-1,-2,0,-1
1513228717284920,-1,-1,0,-1,0,0,-2,-1
1513228717284920,1,-1,-2,-2,1,0,-1,-2
1513228717290423,-1,-2,0,-1,-1,0,0,-1
1513228717290423,0,-1,-1,-1,-1,0,-1,0
1513228717298944,1,-1,-1,0,0,-3,-3,-2
1513228717298944,-1,-2,-2,-1,-1,0,-1,0
1513228717312950,-1,1,-2,0,-1,0,-2,0
1513228717312950,0,-1,-2,-1,-1,-1,-1,-2
1513228717321948,-1,1,-1,0,-2,2,-1,-1
1513228717321948,0,0,0,-1,-2,0,-3,-1
1513228717323447,-1,0,-2,-3,-1,-1,1,-1
1513228717323447,-4,-1,0,-3,0,-2,-1,0
1513228717344461,-2,-2,-2,-2,-2,-3,0,-1
1513228717344461,-2,-2,-1,0,-2,-1,2,-1
1513228717345993,-1,-1,-1,-1,0,-1,-2,1
1513228717345993,-1,-2,-2,0,-2,-1,-2,-1
1513228717358984,-1,-2,-2,-1,0,-1,0,1
1513228717358984,0,-3,-2,-1,-1,-3,-1,0
1513228717372982,-2,-2,-1,-1,0,-1,-2,-1
1513228717372982,-2,-1,1,0,1,-1,-2,-1
1513228717381990,0,-2,0,-2,-1,-1,-1,0
1513228717381990,1,-2,1,-2,-1,-1,-1,-2
1513228717383490,2,-4,-3,-2,-3,-2,-1,-1
1513228717383490,-4,1,-1,-1,-3,-2,0,-1
1513228717404504,0,-1,0,0,-1,-1,0,-3
1513228717404504,-2,-1,-1,-2,0,-2,-1,-2
1513228717410508,0,0,-1,-2,-2,0,-3,-1
1513228717410508,-1,-1,-2,-1,-2,-1,-2,-1
1513228717419015,-1,-1,-2,-1,-1,-2,-3,-2
1513228717419015,-2,0,-1,-2,-1,0,-1,0
1513228717425541,-3,0,-2,-2,-1,-1,-1,-1
1513228717425541,-1,-1,0,-2,-1,0,-1,0
1513228717442030,-1,-1,-3,-2,-1,-2,-1,-1
1513228717442030,1,-1,-2,0,-2,0,-1,-1
1513228717443532,-1,0,1,-2,-2,-2,-1,-1
1513228717443532,0,-3,-1,-2,0,-1,-1,-2
1513228717472054,-1,0,-2,0,0,-2,0,-1
1513228717472054,0,1,-1,1,-2,-1,-2,-1
1513228717473553,-1,0,-2,0,0,0,-1,-2
1513228717473553,0,-1,-1,0,-1,-4,-1,-1
1513228717487062,-3,-2,0,-1,-1,0,-2,-3
1513228717487062,0,0,0,-2,0,-1,0,0
1513228717488563,-5,-3,2,0,0,0,0,-3
1513228717488563,0,-1,-2,-1,-1,0,1,-2
1513228717501587,-1,0,-1,-3,-1,-1,-1,-1
1513228717501587,-3,0,-1,-2,-1,-3,-1,0
1513228717508092,0,-1,-1,-1,-3,-2,0,0
1513228717508092,0,-1,-2,-3,-1,-1,-2,-1
1513228717532099,-1,-2,-1,0,-2,0,-1,1
1513228717532099,-1,-3,-2,0,-1,0,-1,-1
1513228717533597,0,-1,0,0,-1,-1,-1,0
1513228717533597,-3,-2,-2,-2,0,0,-1,0
1513228717539099,0,-2,-2,-1,0,-1,0,0
1513228717539099,-3,1,-2,-3,-3,-1,-2,-1
1513228717545604,-1,0,-1,-1,0,0,-1,-1
1513228717545604,-1,-3,0,1,0,-2,0,0
1513228717562114,-1,-3,0,-1,-2,-1,0,-2
1513228717562114,-1,-1,0,0,-1,-1,-1,-1
1513228717563616,-2,-1,0,-1,-1,-1,0,-1
1513228717563616,0,1,-2,-2,-2,-2,-1,-1
1513228717584631,-1,-1,-2,-2,0,-1,-1,-1
1513228717584631,-1,-2,-1,0,-2,-3,-1,-1
1513228717586131,2,-2,-2,-2,-1,-2,-2,0
1513228717586131,-2,-2,-2,-2,-2,1,0,-1
1513228717599143,-2,-2,-1,0,0,-1,-1,-1
1513228717599143,1,-1,-2,-4,-2,-1,-2,-3
1513228717605649,0,-2,-2,0,-1,-2,0,-1
1513228717605649,-1,-4,1,-1,-1,0,-1,-1
1513228717622157,0,1,-3,-2,-1,-1,-1,-2
1513228717622157,-1,-1,-1,-1,0,-1,-2,-1
1513228717623661,-4,-2,-2,-2,1,1,-1,-3
1513228717623661,-1,0,-1,-2,-1,-2,0,-1
1513228717644715,0,0,-1,0,-1,-1,-2,0
1513228717644715,-2,0,0,0,0,1,1,-1
1513228717646196,1,0,-1,-1,-2,-2,-1,1
1513228717646196,-2,-1,0,0,-1,-1,0,-1
1513228717658193,0,0,-3,-1,-2,0,-2,-1
1513228717658193,-1,-2,0,-1,-1,-1,-1,-1
1513228717667199,-1,-1,-2,-1,0,-1,-2,-2
1513228717667199,1,-1,-2,-1,-3,-2,-1,-1
1513228717682201,-1,-4,2,-1,-1,-2,1,-1
1513228717682201,-2,-2,0,-1,-2,-1,0,-1
1513228717683701,-3,1,0,-2,0,-1,0,-2
1513228717683701,-1,-1,-1,-2,0,-1,-1,-2
1513228717704725,2,1,-1,-2,-3,1,-2,0
1513228717704725,0,-1,-2,0,0,-2,0,1
1513228717706216,0,-3,-1,-1,-1,-2,-1,1
1513228717706216,0,0,-1,-1,-2,0,-1,-2
1513228717718226,-2,-1,-1,1,-1,0,-1,-2
1513228717718226,1,0,-2,-1,-1,-1,-3,0
1513228717727232,0,0,-1,-1,-1,-2,-3,0
1513228717727232,-2,-3,-1,0,-1,0,-3,-3
1513228717741241,1,-3,-2,-1,-1,-1,-2,-1
1513228717741241,-3,-1,-1,-1,-2,-1,0,-1
1513228717749757,-1,-2,0,-2,-3,-1,0,0
1513228717749757,-2,-1,-1,-1,0,-1,-1,-1
1513228717764283,-1,0,-1,-2,0,0,0,-1
1513228717764283,-1,0,-1,0,-2,-1,-1,0
1513228717766260,0,-1,-1,1,-2,-1,1,0
1513228717766260,0,2,0,-1,-3,-2,0,0
1513228717778271,-1,-1,0,-1,0,-1,-1,1
1513228717778271,-1,-2,-1,-2,-1,-1,-2,-2
1513228717787275,0,-1,0,-3,-1,0,0,-1
1513228717787275,0,-1,-1,0,-1,-2,-1,0
1513228717801802,-2,-3,0,-1,-2,-1,-1,-2
1513228717801802,-6,-3,0,-2,-1,-1,0,-2
1513228717803804,-1,-1,-4,1,-2,-1,0,-2
1513228717803804,-1,-1,-2,-2,0,-1,1,-1
1513228717831306,-3,-1,0,-2,0,-1,-1,-3
1513228717831306,0,-2,-1,-2,-2,-1,-3,0
1513228717840313,-1,-2,0,-2,-1,-1,-1,-2
1513228717840313,0,-3,-2,-2,-3,-1,-1,-1
1513228717841312,0,-2,-1,-1,0,-1,-2,-3
1513228717841312,1,-1,-1,0,-2,-2,-1,0
1513228717854822,-2,1,-1,1,-1,0,-1,-2
1513228717854822,0,0,-1,0,-2,0,-1,-2
1513228717870333,0,-1,-1,-1,-1,0,1,1
1513228717870333,-1,1,1,-2,-2,0,-1,-2
1513228717871836,-1,-2,0,-1,-1,-2,-2,-1
1513228717871836,-1,-3,-1,-2,0,-2,0,-1
1513228717883853,-1,0,0,-1,-2,-2,0,0
1513228717883853,-1,-2,-1,-1,0,-3,-2,0
1513228717884843,-1,-1,-2,0,-1,0,-1,-1
1513228717884843,-1,0,0,-1,0,-2,-2,-1
1513228717920880,-2,1,-2,-2,-1,-1,-2,-1
1513228717920880,2,-1,-3,-1,-1,0,1,0
1513228717930876,-1,0,0,-1,-2,-2,-1,-1
1513228717930876,-2,-2,0,1,-1,-1,-1,-1
1513228717932879,-1,-1,0,1,-1,-1,0,-1
1513228717932879,-2,-1,-1,-2,-2,-2,-2,0
1513228717933379,-2,-1,-1,-1,0,0,-2,-2
1513228717933379,1,-1,-2,-1,-1,-1,0,-2
1513228717944415,-4,-3,0,0,0,-1,1,-1
1513228717944415,0,-2,-2,1,-1,0,0,-2
1513228717951890,2,-3,-3,-2,-2,-1,-1,1
1513228717951890,-3,-3,-1,-1,0,-1,0,-1
1513228717966400,-1,0,-2,0,-1,-2,-1,-1
1513228717966400,-1,-2,0,-1,-1,0,0,-2
1513228717966901,0,1,-2,-3,-1,-2,0,-1
1513228717966901,-1,2,-2,-2,0,-1,-1,0
1513228717980960,0,1,-1,-1,-3,-3,-2,0
1513228717980960,0,-1,-1,-1,0,-2,-2,-1
1513228717981959,0,-1,0,-1,-1,-1,-1,-3
1513228717981959,4,-1,-4,-3,-4,-1,-1,-2
1513228718011980,-3,-2,-1,-1,-2,-1,-1,-3
1513228718011980,-2,0,-2,0,-2,-2,-2,0
1513228718012479,-1,-1,-1,0,0,-1,-2,-1
1513228718012479,-1,-1,-1,1,0,1,0,0
1513228718025988,-1,-2,1,-1,-1,0,0,0
1513228718025988,0,0,0,-1,0,-1,1,-2
1513228718026990,-1,-4,0,-1,-1,1,0,-2
1513228718026990,-2,1,0,-3,-1,-2,-2,-2
1513228718041030,0,0,-1,-2,0,0,-1,-1
1513228718041030,-2,-1,-2,-1,-1,-1,-2,-2
1513228718042031,-2,-1,-2,1,-2,-1,0,-1
1513228718042031,-3,0,-3,-2,-3,-2,-1,1
1513228718072062,-3,-2,-1,0,1,0,-1,-2
1513228718072062,-3,-3,0,-1,0,0,-1,0
1513228718072553,-1,-1,-1,-2,0,0,-2,0
1513228718072553,-4,0,1,0,-1,-1,-2,1
1513228718086083,0,1,-3,-1,-1,-2,0,-1
1513228718086083,-1,-2,-1,0,-2,-1,0,0
1513228718087081,0,0,0,-3,-2,-1,0,-1
1513228718087081,2,-2,0,0,-1,-1,-2,-3
1513228718101091,1,-2,-3,-4,-1,0,-2,-1
1513228718101091,-2,-1,-1,0,0,-3,-1,-2
1513228718102092,0,0,-2,-1,-2,0,-1,-1
1513228718102092,-3,-3,-1,0,-1,-1,-1,-1
1513228718123609,1,-1,-2,0,-2,-1,-2,-1
1513228718123609,0,1,-2,-1,0,-1,-2,-2
1513228718124607,-1,1,-1,-3,1,-1,-1,-2
1513228718124607,0,-2,0,-2,0,-1,-2,-2
1513228718163147,0,0,-1,-2,-1,0,0,-1
1513228718163147,-1,-1,-1,-1,0,0,-1,-1
1513228718164136,-1,0,0,0,-2,-1,0,-2
1513228718164136,0,-1,0,0,0,0,0,2
1513228718165636,-3,-3,-1,0,-1,0,-1,-1
1513228718165636,-1,-1,-1,-2,-2,0,0,1
1513228718168720,-1,-3,-3,-1,-2,-2,-1,-1
1513228718168720,-1,-2,-4,-1,0,-1,0,-2
1513228718183708,0,0,-1,-3,-2,-2,0,0
1513228718183708,0,-1,-3,-1,-2,-1,-1,0
1513228718184709,0,1,0,-2,-2,-3,-3,-1
1513228718184709,-1,0,0,-1,-1,-1,-2,-2
1513228718206279,0,-4,0,-1,-2,-2,0,-2
1513228718206279,-2,-4,-1,0,-1,0,1,-1
1513228718207280,2,-1,-2,-3,0,-3,-2,-1
1513228718207280,-2,0,1,-1,0,-1,0,0
1513228718221307,-2,0,0,0,1,-2,-3,-2
1513228718221307,-1,0,-1,-3,-2,-1,-1,-2
1513228718222292,-1,-1,-2,0,-1,1,-2,-1
1513228718222292,-1,0,-2,-1,-2,-2,0,-2
1513228718252337,1,-3,-1,-1,-1,1,0,-1
1513228718252337,-1,0,-1,-1,-1,-2,-1,-1
1513228718253314,-2,0,-1,1,-3,1,-1,-3
1513228718253314,-2,-1,-1,-1,-1,-3,-1,-1
1513228718266335,-2,0,0,0,-1,-2,0,0
1513228718266335,-2,-2,0,-1,0,-1,0,-2
1513228718267328,-3,-1,0,1,0,0,1,0
1513228718267328,0,0,-2,-1,0,-1,-1,-2
1513228718281347,0,1,-2,-2,-2,-3,-1,0
1513228718281347,-2,-1,-2,0,1,0,-1,-1
1513228718282337,-2,-3,-2,-1,1,-3,-1,0
1513228718282337,-3,0,0,-2,-1,0,-2,-1
1513228718303852,-2,-2,-1,-2,-2,-1,0,1
1513228718303852,-3,-2,0,0,0,-2,0,-2
1513228718304853,-2,-1,0,0,-1,-1,0,-3
1513228718304853,2,-1,-1,-3,-1,-1,-1,-1
1513228718326385,2,0,-3,-1,0,1,-3,0
1513228718326385,-3,0,2,-2,-2,0,-2,-1
1513228718326865,-1,-1,-1,-3,0,-1,0,-1
1513228718326865,-1,-3,-3,0,0,0,-1,-2
1513228718342877,3,0,-2,-1,-1,0,-1,-1
1513228718342877,1,-1,-3,-2,0,-3,0,-1
1513228718343377,0,-1,-2,-1,-1,-2,-2,0
1513228718343377,-1,-1,1,0,-3,0,-1,0
1513228718363913,-2,-2,1,1,-1,-1,-2,-2
1513228718363913,1,0,-2,1,-2,0,-1,-1
1513228718364892,-1,-2,-1,-2,-1,-1,-1,-1
1513228718364892,0,-3,-2,-2,-1,-1,-1,0
1513228718386418,-1,0,-1,-2,-1,-1,-1,0
1513228718386418,-1,0,-1,-1,0,-1,-1,-1
1513228718386908,-5,-1,0,-1,-2,-2,-1,-3
1513228718386908,-1,0,-1,-1,-1,0,0,0
1513228718401427,-4,-2,-2,-2,-1,0,-1,-1
1513228718401427,0,-1,-2,0,-1,-1,-1,1
1513228718401917,0,-2,-2,-1,-1,-2,1,1
1513228718401917,1,0,-1,0,-2,-2,-1,-1
1513228718424445,-2,-1,1,0,0,-2,0,-2
1513228718424445,0,-1,-1,-1,-3,-1,-2,-2
1513228718424935,-1,-1,-2,-1,-2,-2,-2,-1
1513228718424935,-4,-2,0,-2,0,0,0,-1
1513228718445995,0,-1,-3,-2,-3,-3,0,-1
1513228718445995,-3,-2,0,1,0,0,-2,-1
1513228718446980,0,-2,-1,-2,0,0,-1,-2
1513228718446980,-2,-1,-1,-1,1,-2,-1,-2
1513228718460990,-1,-1,-3,-1,-2,0,-3,-1
1513228718460990,1,1,-1,-2,-3,-4,0,-2
1513228718461990,1,0,-1,0,0,-1,-2,-1
1513228718461990,-1,-1,-4,0,-1,0,-1,0
1513228718483506,-1,-2,0,-1,-2,0,0,-1
1513228718483506,0,-3,-1,-1,-1,0,-2,-1
1513228718484506,0,1,-1,-2,-2,-2,-1,-2
1513228718484506,1,0,-1,-2,-1,-1,-1,-1
1513228718506028,3,1,-1,1,0,-3,0,1
1513228718506028,0,-2,-2,0,1,-1,-1,-1
1513228718507022,-1,-2,-1,-1,-1,-1,-1,-1
1513228718507022,-2,-2,0,-2,-1,-1,-1,-2
1513228718521042,-3,-1,0,-1,-2,-1,0,0
1513228718521042,0,-1,0,-2,-1,0,-1,-2
1513228718522032,0,0,-1,-1,-1,-1,0,-1
1513228718522032,4,1,-2,-1,-1,-2,0,-2
1513228718543561,-2,-1,-1,-1,0,-2,-1,-1
1513228718543561,-1,-1,-1,0,-2,-2,-1,-1
1513228718544562,-2,-1,0,-1,-1,-2,-2,-1
1513228718544562,0,1,0,-1,0,1,-1,-1
1513228718566064,-1,2,1,-3,-2,0,-1,-1
1513228718566064,-2,-1,-3,-1,-1,0,0,-1
1513228718567065,-2,-1,-3,0,-2,-1,-2,-2
1513228718567065,-3,0,0,-1,-1,-1,-2,-1
1513228718581077,-2,0,-1,0,1,0,-1,-2
1513228718581077,-2,-1,-3,-2,-3,-1,-1,0
1513228718582076,-2,-2,-3,0,0,0,0,1
1513228718582076,-2,0,0,0,-2,-1,0,-2
1513228718603601,2,-2,-2,1,-2,-2,-3,-1
1513228718603601,0,-1,1,-1,-2,-1,-2,0
1513228718604605,0,-2,-1,-2,-1,-1,-1,-2
1513228718604605,0,-3,0,0,0,0,-1,-2
1513228718626630,-2,0,-2,0,-2,-2,-2,-2
1513228718626630,-1,-2,-1,0,0,0,-1,0
1513228718633613,0,1,-3,-2,-4,-2,-1,1
1513228718633613,-4,-3,0,0,0,-1,-2,-1
1513228718641126,-4,-2,-2,-1,-1,1,0,0
1513228718641126,-1,0,-2,-1,0,0,-1,-2
1513228718642127,-4,-2,0,-1,-2,-1,0,-2
1513228718642127,-2,-1,-1,0,-1,0,-1,-1
1513228718671638,-2,0,0,-1,0,-1,-2,-2
1513228718671638,-1,1,-1,-1,0,0,0,-1
1513228718678661,0,-2,0,-3,0,-2,-2,0
1513228718678661,-2,-3,-2,-2,-1,-3,-3,0
1513228718686151,-2,-1,1,-1,-2,1,1,-2
1513228718686151,1,-3,-1,-2,-2,0,1,-1
1513228718687150,-5,-3,1,1,0,-1,-1,-2
1513228718687150,-1,-1,-1,-2,-2,-1,0,-2
1513228718702174,-2,0,0,0,1,0,0,-1
1513228718702174,-2,1,-1,-2,-1,-3,-2,0
1513228718708667,1,-1,-2,-2,-1,-2,0,-1
1513228718708667,-1,0,-2,-2,-4,-1,-2,0
1513228718724230,0,-1,-1,-1,-1,-1,-2,-1
1513228718724230,-1,0,0,0,-2,-1,-3,-3
1513228718725210,-1,-1,-1,-1,0,2,-1,-2
1513228718725210,-1,-1,-1,0,-1,-2,0,0
1513228718746300,0,-1,-2,-1,-1,-1,-2,-1
1513228718746300,-3,-2,1,-2,-1,-1,0,-1
1513228718747235,0,0,0,0,-2,-1,-1,-1
1513228718747235,0,0,-1,-1,-1,0,-1,0
1513228718760745,-1,-5,-3,-1,-2,-2,-1,-1
1513228718760745,-1,1,-1,-2,-1,-2,-2,0
1513228718768740,-2,0,-1,-1,0,0,0,0
1513228718768740,-2,-1,-1,-1,-1,0,0,-1
1513228718791782,-2,-1,0,-1,-1,0,0,-1
1513228718791782,-3,-2,0,-2,1,-1,-1,-1
1513228718792767,3,-1,-1,-1,-2,-1,-2,0
1513228718792767,1,-2,0,-1,0,-2,-2,-1
1513228718806267,-2,0,0,0,0,-1,0,0
1513228718806267,0,-1,-1,-2,-2,-2,-1,-3
1513228718806767,-1,-3,-2,-1,0,-1,-1,-1
1513228718806767,-1,-1,-1,-1,-1,-1,0,-1
1513228718820777,0,-1,-2,-2,-2,-2,0,-1
1513228718820777,0,-1,-1,-1,-2,-1,0,0
1513228718828786,-2,-2,1,-3,-1,-3,-1,-1
1513228718828786,-1,-2,0,-1,-2,-1,-3,-1
1513228718843807,-2,0,1,0,0,-1,-2,-1
1513228718843807,0,-1,-2,-1,-1,-1,-1,-2
1513228718844834,0,-1,-2,0,0,-1,0,-1
1513228718844834,-3,-1,0,0,0,-1,0,0
1513228718866809,-1,1,-2,-1,-1,0,-1,-1
1513228718866809,-1,-1,0,-1,0,-3,0,-1
1513228718873837,0,-1,-2,-1,-3,-1,-1,-1
1513228718873837,2,-1,-2,-1,0,-1,-2,-3
1513228718880819,-1,0,0,1,-2,-2,-1,-1
1513228718880819,-2,0,-2,-1,-3,0,-1,-1
1513228718888825,-5,-2,1,-1,-1,1,-1,-1
1513228718888825,-2,-2,-2,-1,-1,-1,-1,0
1513228718903853,0,-2,-1,-3,0,0,-1,-2
1513228718903853,-1,-3,-2,0,0,-1,-4,-2
1513228718904839,-2,2,-2,-3,-1,-1,-1,-1
1513228718904839,-1,0,-1,1,-2,0,-1,-2
1513228718926409,1,0,0,0,-2,-1,-2,1
1513228718926409,-1,-1,-1,-1,0,-2,0,0
1513228718926912,-1,1,-2,-3,-2,-2,-1,-2
1513228718926912,-2,0,0,-1,0,-3,-1,-2
1513228718940430,-1,-1,-1,-1,-2,-1,1,0
1513228718940430,0,-1,0,-1,-3,-1,-1,-2
1513228718948925,-2,-2,-1,2,-1,0,-1,-1
1513228718948925,3,-1,-3,-2,-1,-2,-1,0
1513228718963949,0,-3,-2,-2,0,-1,-2,-1
1513228718963949,-1,-3,-1,-2,-3,-2,-1,0
1513228718964438,-2,-3,-1,-2,0,0,1,-1
1513228718964438,-3,0,0,-2,0,-1,-1,0
1513228718986951,-4,-2,2,-2,-1,-2,0,-2
1513228718986951,-5,0,0,0,0,-2,0,-1
1513228718987952,1,-1,-1,-2,-1,-3,-3,-1
1513228718987952,-2,-2,0,-1,0,-2,-1,0
1513228719000963,0,-2,-3,-2,1,0,-1,0
1513228719000963,1,-1,-1,-2,-1,-1,-2,-3
1513228719008967,-1,-1,-1,0,-1,-1,-1,-2
1513228719008967,-1,-1,0,0,-2,-1,-1,-2
1513228719023991,-1,-2,-1,0,0,0,-2,-3
1513228719023991,-1,-3,-2,-1,0,-2,-2,1
1513228719024480,0,0,-1,-1,1,-1,0,0
1513228719024480,-2,-1,-1,-3,-3,0,0,-1
1513228719046997,0,-1,-1,-1,-1,-2,0,0
1513228719046997,-2,0,-1,-2,-1,-1,1,-1
1513228719047495,-2,-1,-2,0,-1,-1,-1,-1
1513228719047495,-1,0,-1,-1,0,0,-1,-2
1513228719070010,-1,0,-2,0,0,-2,-3,1
1513228719070010,1,-3,-3,-2,0,0,-1,1
1513228719070521,-4,1,0,-1,-1,0,-1,-1
1513228719070521,-1,-1,-3,-1,-2,-3,-2,1
1513228719084021,-1,0,-4,0,0,-1,-1,-1
1513228719084021,2,-1,0,-2,-2,-1,-1,-1
1513228719084521,3,0,0,-1,-1,-2,-3,-2
1513228719084521,-1,-3,0,-2,-1,-1,1,0
1513228719107048,0,1,-1,0,-1,-2,0,-1
1513228719107048,-3,-1,-2,1,0,-1,0,0
1513228719107538,-3,-3,0,-3,-1,-2,-1,-1
1513228719107538,0,-1,-2,-1,-2,-1,-3,-2
1513228719129552,-1,-2,0,-2,-2,-2,0,-1
1513228719129552,-1,0,0,2,0,0,-1,-3
1513228719131054,-2,-1,-1,0,-2,1,0,-1
1513228719131054,-1,0,-1,-1,-1,0,1,-1
1513228719143563,-3,-1,0,-2,-2,0,-1,-1
1513228719143563,-1,-1,-1,-1,-2,-1,-2,-1
1513228719144563,-1,-3,-2,0,-1,-1,-1,-1
1513228719144563,-1,-2,0,-1,-2,0,0,-1
1513228719166079,1,-1,1,0,-4,0,0,0
1513228719166079,-5,-1,3,1,-1,-1,1,0
1513228719173586,2,0,0,-2,-2,-1,-2,0
1513228719173586,4,-1,-3,-1,0,-1,-1,-1
1513228719189595,0,-1,-1,-3,-1,-3,-1,0
1513228719189595,-1,-1,-3,-2,-1,0,0,-3
1513228719190096,-1,-3,-2,-1,-1,-2,-1,1
1513228719190096,-2,-2,0,-1,-2,-2,-1,0
1513228719203605,1,-2,0,0,-1,0,0,0
1513228719203605,1,-1,-1,-2,-1,-1,-1,0
1513228719204607,1,0,-3,0,-1,-1,-1,-2
1513228719204607,-2,1,-2,-1,-1,1,-1,-2
1513228719227121,-2,1,-2,-2,-1,0,-3,-2
1513228719227121,0,0,-1,0,-1,-3,-3,-1
1513228719228122,-3,-3,-1,-1,0,0,1,-1
1513228719228122,-1,-1,-1,-2,-1,-2,-1,-1
1513228719248643,-2,-3,-2,-2,-1,-1,0,-2
1513228719248643,-2,-1,-1,-1,-3,2,-1,0
1513228719256143,0,-2,-2,-2,-2,-3,-1,0
1513228719256143,-1,-2,0,0,1,-2,-1,-1
1513228719263664,0,-1,-1,-2,-1,0,-2,-2
1513228719263664,0,-2,-3,-4,-1,-2,-1,-2
1513228719264666,-1,-1,-2,0,0,0,-2,-2
1513228719264666,-3,-2,0,0,0,-1,-2,0
1513228719286684,-4,-2,0,3,0,-1,0,-1
1513228719286684,0,1,-1,-2,-1,-1,0,0
1513228719287665,-1,-2,0,-2,-2,-1,1,0
1513228719287665,0,-1,-2,-2,-1,0,1,-2
1513228719309692,0,-1,-2,0,0,-1,-1,-1
1513228719309692,-1,-1,-1,-1,-2,-2,-1,-1
1513228719310181,-1,-2,-3,1,0,0,-2,-2
1513228719310181,-2,-1,-2,-1,-3,-1,0,0
1513228719323690,-1,1,-1,-2,-1,-2,0,1
1513228719323690,-1,0,-2,-2,-1,-1,0,1
1513228719331244,-3,-1,0,-1,-2,0,-2,-2
1513228719331244,0,-1,0,-1,0,-1,1,-1
1513228719347219,-2,-2,-1,-1,0,-1,-2,-2
1513228719347219,-1,-2,-1,1,-1,-2,-1,-3
1513228719347718,-2,0,-2,-1,-1,-3,-2,0
1513228719347718,-1,-2,-2,-2,0,0,-1,-1
1513228719369734,3,-2,-2,-1,-3,-1,-2,0
1513228719369734,-2,1,1,0,-1,0,-1,-1
1513228719370225,-1,2,-1,-2,0,-1,-1,-2
1513228719370225,0,0,-2,-1,-1,-2,-1,-1
1513228719383757,0,-1,-2,-2,-1,-1,0,-1
1513228719383757,-2,-3,-2,-2,-2,-1,-2,-2
1513228719384745,1,-1,0,-2,-3,-2,-2,-3
1513228719384745,0,0,-2,0,-2,-2,-1,-1
1513228719407249,-2,0,-1,0,0,0,1,0
1513228719407249,-3,-2,-1,0,-1,-3,-1,-1
1513228719407750,-1,-1,-2,-1,0,-1,-1,1
1513228719407750,-2,-1,1,-1,-2,-2,-3,-1
1513228719429782,-1,-2,-1,-2,-1,-2,-2,0
1513228719429782,0,-1,-2,0,-2,-1,0,0
1513228719431269,0,-2,-2,-2,-1,-1,-1,0
1513228719431269,-4,-2,-1,-1,-1,-2,-1,0
1513228719443789,-2,-2,-2,-1,0,-2,0,1
1513228719443789,-1,-1,0,-2,-1,-1,-1,-1
1513228719444790,-1,0,-2,0,-2,-2,0,-1
1513228719444790,0,-1,-3,0,0,-1,0,-2
1513228719467791,-1,-1,-1,-1,-1,0,-1,-1
1513228719467791,-4,-2,-2,-2,-2,-2,-1,0
1513228719468291,-1,-1,0,0,-2,-1,-1,-1
1513228719468291,0,-2,0,-1,0,0,-2,-2
1513228719489307,0,0,-2,1,-3,-1,-2,-1
1513228719489307,-1,0,-3,-2,0,1,-3,-2
1513228719490308,-3,1,0,-2,-1,-2,-2,-1
1513228719490308,1,2,0,0,-2,-1,0,-1
1513228719504330,-3,-1,-1,-1,1,-1,0,-2
1513228719504330,2,1,-1,-1,-1,-2,1,-1
1513228719511335,-2,-2,-2,-1,-2,-1,0,-2
1513228719511335,-6,0,0,0,0,-1,-1,-2
1513228719525833,0,-1,-1,-2,-1,0,-1,0
1513228719525833,1,-1,-2,-1,-1,-1,1,-3
1513228719550851,-2,-2,-3,-1,0,1,-2,-1
1513228719550851,1,-2,-1,-3,-1,-2,-1,-2
1513228719552362,-3,-2,0,0,0,-1,-3,-1
1513228719552362,-2,-2,1,-1,-2,0,-1,-1
1513228719553353,-1,-2,1,-2,0,-1,1,-1
1513228719553353,-1,0,-4,0,1,-1,-2,1
1513228719571868,0,-1,0,0,0,-2,-2,-2
1513228719571868,-1,-1,-2,-2,-1,-2,-2,0
1513228719572866,0,0,-1,1,0,-1,-1,0
1513228719572866,0,-2,-1,0,-1,0,-2,1
1513228719586908,-1,-1,-1,-2,-3,-2,-2,-1
1513228719586908,-2,-1,-1,0,-1,-3,1,-2
1513228719587909,-1,-4,-2,-1,-2,0,0,0
1513228719587909,1,-1,-1,-2,-4,-2,0,-3
1513228719609434,0,0,-2,-2,0,-2,0,0
1513228719609434,-4,-2,1,1,0,-1,-1,0
1513228719610426,-2,-1,1,0,-2,-2,-1,-2
1513228719610426,-1,-2,-1,-1,-2,2,-2,1
1513228719631942,-1,0,1,-1,-1,-2,-1,-2
1513228719631942,0,-2,-3,-1,0,0,-2,0
1513228719632942,0,1,-1,-2,-1,-2,0,-1
1513228719632942,-1,-1,-1,-1,-1,0,-2,-1
1513228719647451,-1,0,-2,-2,-2,-1,-1,-1
1513228719647451,0,-2,-2,-2,-1,0,-1,-1
1513228719648453,-1,-1,-4,-1,-1,-1,-2,-2
1513228719648453,1,-1,-3,-3,-2,-2,-2,-2
1513228719670986,1,-3,-4,-1,-1,-1,0,0
1513228719670986,-2,-2,0,0,1,0,-1,-2
1513228719671968,-1,-1,0,-2,-2,0,0,0
1513228719671968,1,-1,1,-3,-2,-1,-1,0
1513228719682988,1,-2,-3,-1,-3,-3,-1,-1
1513228719682988,1,-1,-4,-1,-1,-1,-2,-1
1513228719691482,-2,-2,-1,0,1,-1,0,0
1513228719691482,-2,0,-1,1,1,-2,1,-2
1513228719707505,-2,-1,0,0,-2,-1,0,1
1513228719707505,0,-2,0,-2,-2,-3,0,0
1513228719707994,-1,-1,0,-2,-2,-1,0,0
1513228719707994,1,0,-1,0,-1,-2,0,1
1513228719729019,-4,-1,-1,-1,0,1,-2,-2
1513228719729019,-3,1,-2,-1,-1,-2,-2,-2
1513228719736024,-2,-1,-1,-1,1,0,-3,-2
1513228719736024,-2,0,-1,-1,-1,0,0,-1
1513228719744530,-1,0,-1,-2,0,-1,0,-3
1513228719744530,1,-2,-2,-1,-1,0,-2,2
1513228719751034,-1,-4,1,-2,-3,1,-1,-1
1513228719751034,-1,-1,-1,0,-1,-2,-3,-2
1513228719774555,-1,-2,-3,-1,-2,-1,0,-1
1513228719774555,-1,-1,-1,2,-1,-2,-1,-2
1513228719775055,-4,-3,-2,-1,-1,-2,2,-1
1513228719775055,-3,-2,0,0,0,-1,-1,-2
1513228719790065,-3,0,-1,-2,-1,-2,-2,0
1513228719790065,-1,-1,-1,-1,-2,-2,0,-1
1513228719790555,2,1,-2,0,-1,-1,-2,-1
1513228719790555,0,-1,1,-1,-1,0,0,-2
1513228719812068,-1,0,-2,-1,-2,-2,-1,-1
1513228719812068,0,1,-1,0,0,1,-2,-1
1513228719812568,0,0,-2,-1,0,-2,-2,0
1513228719812568,-1,0,0,-2,-1,-1,-1,0
1513228719827089,1,-1,-1,0,-1,0,-1,1
1513228719827089,-4,-2,0,-1,0,-1,-1,-2
1513228719827589,1,0,-1,-1,-1,-2,1,-1
1513228719827589,-1,1,-3,-1,-2,-1,-1,-1
1513228719849598,0,-1,-1,-1,-1,-1,-1,-3
1513228719849598,2,0,-3,-2,-2,-2,-1,-1
1513228719850098,-6,0,2,-1,1,-1,-1,0
1513228719850098,0,-3,0,-1,-1,-1,-1,-1
1513228719863115,-1,-2,-1,-1,-1,0,0,-1
1513228719863115,1,-3,0,-2,-2,-2,-1,-2
1513228719871125,-1,-2,-1,-1,-2,0,-1,-1
1513228719871125,-1,-2,-3,-1,0,0,-1,0
1513228719887120,-2,-3,0,0,1,0,-1,0
1513228719887120,-2,-1,-1,-2,-1,-3,-1,0
1513228719887621,0,-1,-1,-1,-2,-1,-2,-2
1513228719887621,-2,-2,-2,-1,-2,-3,0,-1
1513228719909638,-1,0,0,-1,0,1,0,-3
1513228719909638,-1,-2,2,-1,0,-1,0,-1
1513228719910154,3,2,0,0,-2,-1,-1,0
1513228719910154,-1,0,-2,1,-2,-2,-1,-1
1513228719923649,-3,1,-2,-1,-1,0,-2,-3
1513228719923649,0,-1,-1,-3,-2,-1,-1,0
1513228719931206,0,0,-1,-2,-3,-2,-1,-2
1513228719931206,2,-3,-2,-2,-1,0,-1,0
1513228719946663,-2,-3,1,1,0,-1,-1,-1
1513228719946663,-5,-3,0,0,-2,0,-1,-1
1513228719947680,-1,-2,-2,1,-4,-1,-3,-2
1513228719947680,0,0,-1,-2,-1,-1,1,0
1513228719977687,0,-1,-3,-2,-1,-1,-2,-1
1513228719977687,0,1,-2,-2,-2,-2,0,-1
1513228719978185,-1,-1,0,0,0,-3,0,-1
1513228719978185,-3,-1,-1,-1,0,-1,-1,-2
1513228719992218,1,-3,-1,-2,-2,-1,-1,-1
1513228719992218,-1,-1,-1,1,-1,0,-1,0
1513228719994196,-1,-2,-2,-2,-1,0,1,-1
1513228719994196,-3,-3,0,0,0,1,-1,-1
1513228720005745,-1,-1,0,-2,-1,-1,-3,1
1513228720005745,1,-1,-3,-1,-2,-1,-1,-2
1513228720020871,-2,-2,-1,-2,-2,-2,-2,-1
1513228720020871,-2,-1,0,1,-2,1,-1,-2
1513228720029417,-1,0,0,0,0,0,1,-1
1513228720029417,-3,1,-1,-1,-1,-1,-2,-2
1513228720031915,-2,-2,-2,0,0,-2,-1,1
1513228720031915,-1,1,-1,-3,-1,-4,-1,-2
1513228720051930,0,-2,-2,0,-1,-3,1,0
1513228720051930,-1,0,-3,-2,-1,-1,-2,-1
1513228720053431,-1,-1,-2,-2,-1,-1,0,-1
1513228720053431,0,-1,0,-2,-1,-1,-1,-1
1513228720065940,1,0,-3,-1,-2,-2,-2,1
1513228720065940,-2,-3,-1,0,0,0,0,-1
1513228720080453,0,-1,-1,0,0,-2,-2,-1
1513228720080453,-1,-1,1,-1,-1,-1,-2,-2
1513228720088959,0,-1,-1,-1,-1,1,0,-2
1513228720088959,1,-3,-2,-1,0,0,-2,-1
1513228720095482,-5,-2,0,0,0,1,-2,-2
1513228720095482,-1,0,-3,0,0,-2,-1,1
1513228720112472,-2,0,-1,-2,-2,-2,-1,0
1513228720112472,-1,2,0,-2,-2,-2,-1,-2
1513228720113973,-1,-1,-4,-2,-1,-1,1,0
1513228720113973,-2,-2,-2,-2,1,-2,-1,0
1513228720125497,-3,-3,-1,-1,-1,-4,-2,-2
1513228720125497,-2,-1,-1,0,-2,-1,-1,-1
1513228720134537,0,-1,-1,-1,-3,0,0,-2
1513228720134537,1,0,-1,0,-3,-2,0,-2
1513228720149550,-2,-2,-2,0,-1,-1,-3,-1
1513228720149550,-1,0,-1,-1,-1,0,-1,-1
1513228720151048,0,-2,-1,-1,-1,-1,-3,-1
1513228720151048,1,-1,-3,-2,-1,0,-2,-1
1513228720172060,-1,0,-2,-1,0,1,-1,-2
1513228720172060,-1,-3,-2,-1,-1,0,-1,-2
1513228720173551,4,-1,-3,-2,-3,-1,2,1
1513228720173551,0,-1,-1,-1,-1,0,-1,0
1513228720186062,0,-2,0,0,-1,0,0,-1
1513228720186062,-4,-1,-2,-2,-1,-1,0,0
1513228720193064,-1,0,0,0,0,-1,-1,-4
1513228720193064,-1,-1,-1,-1,-3,0,0,-1
1513228720209585,0,0,-1,0,-2,0,-2,0
1513228720209585,0,-1,-1,-2,-2,-1,-1,0
1513228720211100,-2,-1,-1,-1,0,0,0,-3
1513228720211100,0,-1,-3,-2,-3,-1,0,0
1513228720231594,-2,-2,-1,-4,-2,0,-1,-1
1513228720231594,0,-2,-1,1,0,-3,0,1
1513228720233593,-1,-2,0,-1,-1,-1,-3,-2
1513228720233593,-2,-2,0,-1,0,-2,-2,-1
1513228720246175,-1,0,-2,-2,0,-1,-1,0
1513228720246175,-4,1,-1,0,0,-1,-2,-1
1513228720254617,0,-1,-3,-1,-2,0,-1,0
1513228720254617,-1,-3,0,-1,-1,0,-1,-2
1513228720269117,-1,-1,0,0,-2,0,0,-1
1513228720269117,0,-3,-2,0,-1,-2,1,1
1513228720271120,-2,2,-2,-1,-3,-3,-1,-2
1513228720271120,-2,-1,0,-1,0,0,-2,-1
1513228720292134,-1,-1,-2,-2,-1,-3,-1,0
1513228720292134,1,-2,-1,-1,0,1,-2,-1
1513228720298202,2,1,-1,-1,-1,-3,-1,-1
1513228720298202,-3,-3,-1,1,0,-1,0,-1
1513228720306196,-3,-2,0,0,-1,1,1,-3
1513228720306196,-3,-1,-3,-1,-2,-2,-1,-2
1513228720313201,0,-2,-1,-1,-1,-2,-1,-1
1513228720313201,-1,0,-1,-2,-2,-2,0,-2
1513228720336718,-1,0,-2,-1,-2,-1,-1,-2
1513228720336718,-2,-2,-2,-1,-3,0,-2,-1
1513228720343222,-1,-1,0,0,1,0,0,1
1513228720343222,2,1,-4,-1,-2,-2,-1,-1
1513228720351779,-1,0,-2,-1,0,-2,-3,-1
1513228720351779,-1,-2,0,-2,-1,0,0,-1
1513228720353779,0,0,-3,-1,-2,0,-1,0
1513228720353779,0,-2,1,0,-1,-1,-3,-1
1513228720374280,0,-1,-1,-1,-1,0,-1,-1
1513228720374280,-2,0,-1,-1,-1,0,-1,-1
1513228720380791,-2,-1,-2,-1,1,-1,-2,0
1513228720380791,-1,-2,-1,-3,-1,-1,-3,-2
1513228720389291,-2,-3,-1,-1,-1,-1,-1,0
1513228720389291,1,0,-2,-1,-1,-2,1,0
1513228720390792,0,-1,0,1,-2,0,-2,0
1513228720390792,-2,-1,-1,-2,-1,-1,-2,0
1513228720411822,-2,1,1,0,-1,-1,-1,-2
1513228720411822,1,-1,-1,-1,-1,-2,-3,-3
1513228720413809,-7,-1,2,-2,0,0,-1,0
1513228720413809,0,0,-2,-1,0,-2,-1,-1
1513228720426320,-1,-2,-2,-3,-2,-1,-1,-1
1513228720426320,-1,-1,-2,-2,-1,-1,1,0
1513228720449844,-1,-3,0,-1,-1,-1,1,-1
1513228720449844,-1,0,1,1,-1,1,0,-2
1513228720450845,0,0,-3,-2,-1,-3,1,-3
1513228720450845,-1,-1,0,-2,0,-1,-1,0
1513228720452336,-2,-3,-3,-2,0,1,-1,-1
1513228720452336,1,-1,-3,-2,-3,0,-1,-1
1513228720471849,-1,2,-1,-1,-2,-1,-2,-2
1513228720471849,-2,1,0,-2,-3,-1,-2,-2
1513228720473351,0,-2,0,-3,-2,-2,-2,-2
1513228720473351,-2,0,-1,-2,1,-3,0,2
1513228720485359,-3,-1,-1,-1,1,1,-3,-1
1513228720485359,-5,-2,2,0,0,-1,0,-3
1513228720494366,-1,1,-1,0,0,-1,-1,0
1513228720494366,-1,-3,-2,-1,0,-2,0,-3
1513228720509387,-1,-3,0,0,-3,-2,0,-1
1513228720509387,2,-3,-1,0,-1,0,-2,-1
1513228720510878,-1,0,0,-2,-1,-1,-3,-2
1513228720510878,-1,-2,-1,-2,0,-2,-3,-1
1513228720532392,-1,-1,-1,0,-2,0,0,-1
1513228720532392,0,-2,-2,-1,1,-1,-1,-1
1513228720534393,1,-2,-3,-2,-3,-1,-1,-2
1513228720534393,-5,0,1,-1,-2,0,-1,-1
1513228720545459,0,-2,1,-2,-1,-1,0,2
1513228720545459,-1,-1,-1,-1,-2,-1,-1,-1
1513228720554409,0,-2,0,-1,-2,-3,0,0
1513228720554409,-1,-1,-1,-1,0,-1,-1,-2
1513228720568428,-1,-2,-1,-1,0,-1,1,0
1513228720568428,-1,2,1,0,-2,-1,-1,-2
1513228720576924,-3,-1,1,-1,0,0,-1,0
1513228720576924,1,0,-3,0,-2,-1,-1,-2
1513228720591971,-5,-1,1,0,-1,-1,-1,-1
1513228720591971,0,-2,-1,-3,-2,-1,0,-2
1513228720593472,-1,0,-1,-3,-2,-2,0,0
1513228720593472,-1,0,0,0,0,1,0,1
1513228720605521,2,-2,-1,-3,0,-2,-2,-1
1513228720605521,-3,-3,0,0,1,0,0,0
1513228720614526,-2,0,-1,0,-1,-2,-2,-3
1513228720614526,0,-1,-2,-1,-1,-2,-1,-2
1513228720629528,0,-1,-1,-1,-1,-2,-3,-1
1513228720629528,0,0,-4,-2,0,-1,0,0
1513228720632030,-2,-2,-1,-1,0,-1,0,1
1513228720632030,-1,-2,-2,-2,-2,-1,-3,-3
1513228720659549,-1,-1,-1,1,-1,-1,0,-2
1513228720659549,0,-3,-4,-1,0,-1,-1,-1
1513228720661061,-1,-1,-1,0,0,0,-1,0
1513228720661061,-1,-2,1,1,-1,0,1,0
1513228720665563,-7,-4,-1,-1,-1,-1,0,0
1513228720665563,-1,0,-1,-2,-2,-2,-3,-1
1513228720680566,1,0,0,2,-2,0,-1,-1
1513228720680566,0,-1,0,-2,-1,-1,-2,-1
1513228720689070,0,0,-2,-2,-1,-1,0,-2
1513228720689070,-1,-1,2,-1,0,-2,-1,-1
1513228720695577,-2,0,-1,-1,-1,-1,-2,-2
1513228720695577,-4,0,-1,1,-1,-1,-1,0
1513228720712103,0,-2,-1,-1,-1,0,-2,-2
1513228720712103,-1,0,-1,-2,-1,-1,0,-1
1513228720713646,2,0,-3,-3,-1,-1,0,-2
1513228720713646,1,-1,-1,0,-2,-1,-1,-1
1513228720725598,0,-1,-2,-2,-2,-2,0,2
1513228720725598,-3,-1,-2,0,-1,-1,-1,1
1513228720734602,-2,-3,-1,0,0,-2,0,-1
1513228720734602,0,-2,-1,-2,0,-1,-1,-1
1513228720749612,2,-2,-3,-1,-2,-1,-1,-1
1513228720749612,-4,1,1,0,-1,-1,1,-1
1513228720751114,-2,0,-1,-3,-1,-1,-2,0
1513228720751114,0,-1,-1,-1,-2,-1,-1,-1
1513228720771628,0,-1,1,0,-1,0,-4,-2
1513228720771628,0,-1,-1,-1,-1,-1,0,-2
1513228720773636,-2,-1,-1,-1,0,-1,-1,-3
1513228720773636,-1,3,-1,0,-1,-1,1,0
1513228720785637,1,1,-1,-1,-2,-3,-1,0
1513228720785637,-2,0,-1,-1,-2,-2,0,0
1513228720794645,-3,0,-2,-1,-1,0,-2,-1
1513228720794645,0,-2,-2,-2,-2,-1,-1,-2
1513228720809656,-2,-2,-2,0,1,0,0,0
1513228720809656,-1,-1,0,-3,-2,0,-1,-3
1513228720811162,1,-2,-1,0,-2,-1,1,-3
1513228720811162,-1,-3,-1,-1,0,0,-1,1
1513228720839679,-1,0,1,-2,0,1,0,-1
1513228720839679,-1,-2,-2,0,-1,1,-1,0
1513228720841178,4,-3,-4,-3,-2,-2,-1,2
1513228720841178,-6,1,2,0,1,0,0,-1
1513228720845706,-2,-1,-1,0,-2,-1,-1,-3
1513228720845706,1,-1,-2,-2,0,-3,-1,-2
1513228720854687,-6,-2,2,-1,-2,0,0,-1
1513228720854687,0,-1,-3,-3,-2,-2,-2,-1
1513228720869469,-1,3,-3,-1,-1,-4,0,-1
1513228720869469,0,-3,-1,-1,-1,-3,0,0
1513228720870971,-1,-1,-1,-2,-2,-1,-2,-1
1513228720870971,-1,-1,-2,-2,-2,-1,-2,-1
1513228720892535,-3,-1,-1,0,-1,-1,-1,0
1513228720892535,-1,-2,-3,-2,-3,-2,-2,0
1513228720893987,-5,1,0,-1,-1,0,-1,-1
1513228720893987,2,-2,0,-1,-1,-1,0,0
1513228720905532,-2,-2,0,-2,-1,0,-2,-3
1513228720905532,0,1,-2,0,-3,-1,-2,-1
1513228720922031,0,-1,-1,0,0,-1,0,-1
1513228720922031,-1,-2,-2,1,-2,2,0,-2
1513228720929567,-1,-3,-2,-2,-1,0,-1,-2
1513228720929567,-2,-1,-1,0,-1,-2,0,-1
1513228720932056,0,-1,-1,0,-2,-1,-1,-2
1513228720932056,-4,-2,-1,0,-1,-3,-1,-1
1513228720952068,-3,-2,-1,-1,-1,-1,-2,-1
1513228720952068,1,-2,-2,-2,0,1,-2,-2
1513228720953569,-3,-2,1,-1,-2,-1,-1,0
1513228720953569,1,-3,-1,-2,-1,-1,-1,0
1513228720974086,-2,0,0,-2,-1,-2,-1,-1
1513228720974086,1,-1,-2,0,-1,-2,-2,-2
1513228720976100,2,0,-3,-2,-2,-2,-1,0
1513228720976100,1,-2,0,-1,-1,-1,-1,-1
1513228720989094,-1,-1,2,-1,-2,-2,-2,-1
1513228720989094,0,-2,2,-1,-2,0,0,0
1513228720991095,2,-2,-1,-1,0,-3,-1,-1
1513228720991095,-2,0,-1,-1,-3,-1,-1,-2
1513228721011612,0,-3,-3,-1,1,0,0,0
1513228721011612,0,-3,-1,0,0,0,0,0
1513228721013615,-2,-2,0,-1,-1,-1,-1,0
1513228721013615,-2,-1,-1,-2,-1,-1,-2,0
1513228721035129,-1,0,-1,0,-3,-1,-2,-2
1513228721035129,-2,-1,-1,-2,-1,-1,-1,-1
1513228721036627,-2,1,0,0,0,0,-1,-3
1513228721036627,-2,1,-3,0,-1,-1,0,1
1513228721049139,0,0,-3,-1,-3,-3,-1,-1
1513228721049139,0,1,0,-2,0,-2,0,-2
1513228721051140,0,-1,-2,-2,-1,0,-3,-1
1513228721051140,4,-1,0,0,0,-1,-2,-1
1513228721071671,0,-1,0,-2,-1,-3,-1,-2
1513228721071671,0,-2,-1,-2,0,0,-1,-1
1513228721073657,0,2,-1,-2,-1,-1,-2,-2
1513228721073657,2,2,-3,-1,0,-1,-1,0
1513228721094171,-1,-3,-2,-1,-1,-1,-1,-1
1513228721094171,0,0,0,-2,-2,-1,-1,2
1513228721096182,1,-2,-1,-1,0,0,-1,1
1513228721096182,-3,-2,-1,0,1,-3,-1,-1
1513228721108691,-1,2,2,0,0,0,-1,-1
1513228721108691,-3,-2,0,0,-2,-1,0,-1
1513228721115697,0,-1,-1,-1,-1,-2,0,1
1513228721115697,-4,-1,1,-1,-1,-1,-2,-1
1513228721131723,-8,-2,1,0,0,-1,-1,0
1513228721131723,-1,-1,-2,-2,-1,-2,-2,-1
1513228721133699,0,-2,-1,-1,-1,1,0,-2
1513228721133699,-2,-1,-1,-3,-2,-1,0,-1
1513228721154212,-2,-1,-2,-2,0,-1,-1,-3
1513228721154212,-2,0,0,-2,0,-1,-2,-2
1513228721155712,-1,0,-2,0,-3,-1,0,-1
1513228721155712,-2,-1,0,-1,-1,-2,-2,-2
1513228721168734,0,-2,-3,-1,-1,-1,0,-1
1513228721168734,-1,1,-2,0,-1,-1,-1,-1
1513228721175728,-1,-2,-2,-2,0,0,0,0
1513228721175728,-1,-1,-1,1,0,-1,1,0
1513228721191750,3,0,0,-2,-2,-1,-3,0
1513228721191750,-3,-1,-2,-1,-1,-1,-2,-2
1513228721193239,-1,0,-2,0,-2,-1,-3,-1
1513228721193239,-1,-1,-1,-2,-2,-1,-2,-2
1513228721214256,-4,-1,0,1,0,-1,-1,-1
1513228721214256,-1,0,-1,-1,-1,-2,0,0
1513228721215754,-3,-2,1,-1,1,0,-1,-1
1513228721215754,-3,0,0,-2,-1,1,1,-1
1513228721228763,1,-2,-2,-1,-2,-1,0,0
1513228721228763,-1,0,-1,-2,-2,-2,-1,-2
1513228721235771,-1,-2,-1,0,-1,-3,-1,-1
1513228721235771,1,-3,-2,-1,-3,-1,-1,0
1513228721251780,-2,-2,-1,-2,-1,0,0,-2
1513228721251780,-1,-4,-2,-2,-1,0,-3,-2
1513228721253781,3,1,-1,-1,-3,-3,0,-2
1513228721253781,-1,-2,-3,0,0,1,0,0
1513228721274310,-1,1,-4,-2,0,-1,-2,-2
1513228721274310,-3,-2,0,-1,-2,-1,-2,-1
1513228721275797,-2,-1,-3,-2,-1,0,-2,-2
1513228721275797,1,0,0,-2,-1,-2,-2,2
1513228721288806,-6,-2,1,1,-1,1,1,-1
1513228721288806,-1,-2,0,-3,-2,0,-1,0
1513228721295313,-2,-2,-1,-1,0,-3,-1,-2
1513228721295313,-2,-1,-1,0,-2,0,-1,-2
1513228721312325,-1,-2,-2,-1,-2,-1,0,0
1513228721312325,-1,1,-3,-1,-2,-1,-3,-3
1513228721313827,-4,-1,0,0,-1,-1,-1,-1
1513228721313827,-2,-3,-1,-1,1,-1,-1,-1
1513228721334344,1,0,-5,-1,0,-2,-2,-1
1513228721334344,-3,-1,5,3,-2,-1,0,-1
1513228721335839,-1,-1,-8,-3,-1,-1,-3,1
1513228721335839,2,2,3,10,1,-2,-2,-1
1513228721348860,-1,-3,-2,-15,-2,-2,-2,-2
1513228721348860,0,3,6,-7,-1,-1,0,0
1513228721355865,-1,-1,5,7,0,0,1,0
1513228721355865,-1,-2,-6,-5,-2,-1,-1,-1
1513228721371864,2,-3,-7,-5,-1,-1,-2,1
1513228721371864,-4,-1,-3,0,0,1,-1,-1
1513228721373365,-1,-1,-1,0,-1,-1,-1,0
1513228721373365,-2,1,-2,1,0,-1,-1,-4
1513228721394903,2,2,4,7,1,-1,-1,0
1513228721394903,-1,-3,-6,-7,-2,0,0,-2
1513228721396422,0,-1,-1,-1,-2,-2,0,-3
1513228721396422,-6,0,2,-1,-1,1,0,0
1513228721409414,-4,-5,-4,0,-2,-1,-1,-1
1513228721409414,-2,2,-1,2,0,-3,-2,-1
1513228721415418,4,-4,-5,-5,1,1,-2,-2
1513228721415418,-1,0,-1,-4,-1,-1,-1,-1
1513228721431953,1,-1,0,1,0,-1,0,1
1513228721431953,-2,-2,0,4,0,0,1,-1
1513228721433431,-1,4,2,-4,-1,0,-1,1
1513228721433431,3,-6,-6,-5,-2,-3,-2,-3
1513228721454457,-10,3,3,3,-1,-2,-1,-4
1513228721454457,3,0,0,-1,-1,-2,-1,0
1513228721455947,-3,0,1,-3,-1,-1,-1,-2
1513228721455947,1,-1,-2,-4,-1,1,-2,0
1513228721467955,-2,-2,0,0,-3,0,-1,-1
1513228721467955,1,-3,-4,-2,0,0,-2,-2
1513228721476961,-3,-1,0,1,1,-1,-1,-2
1513228721476961,-5,-2,-2,-1,0,0,-1,1
1513228721491986,2,-1,2,-1,-2,-1,0,-1
1513228721491986,-1,-2,2,5,1,-1,0,0
1513228721493487,1,-1,-7,-3,-2,-3,-1,0
1513228721493487,7,1,-5,-2,-2,-2,2,1
1513228721515022,-4,-2,2,0,-2,-1,16,-1
1513228721515022,-5,-3,-2,-4,-3,-1,21,-4
1513228721516989,-6,-1,6,4,-2,0,21,-1
1513228721516989,0,2,2,-3,0,-1,10,1
1513228721528501,5,-1,-12,-8,-5,-2,-8,-1
1513228721528501,-2,-10,-4,1,0,1,-9,0
1513228721537006,-2,-3,-3,-2,-1,-1,-13,-2
1513228721537006,-1,2,9,2,0,-4,-14,-2
1513228721552515,0,4,11,3,2,0,-10,0
1513228721552515,-3,1,-8,-10,-3,-1,-12,-2
1513228721554017,4,-2,-3,-1,-2,0,-9,5
1513228721554017,0,-3,-4,-4,-2,-1,-7,-3
1513228721574530,-7,-2,2,2,0,-2,-4,-2
1513228721574530,3,-11,-7,1,-1,0,-3,4
1513228721576032,-8,6,11,5,3,2,-2,1
1513228721576032,-10,-8,-21,-14,-3,-1,-1,-1
1513228721588055,5,7,7,1,0,-3,-4,-6
1513228721588055,5,4,9,3,-1,-1,-1,-1
1513228721612579,-4,-9,-5,-7,-7,-5,-6,-5
1513228721612579,12,12,1,2,0,1,4,4
1513228721613059,-15,-30,-9,-2,-1,0,-2,-4
1513228721613059,-9,4,-7,-1,0,-2,0,-2
1513228721615068,22,-5,3,0,-1,-1,0,3
1513228721615068,-6,16,1,-3,-3,-1,0,-5
1513228721634074,1,18,-3,-7,-2,-2,-5,-2
1513228721634074,-2,-21,-2,-1,-2,-3,-5,-4
1513228721636074,-4,-1,-1,1,0,0,-2,-2
1513228721636074,-3,0,0,0,-2,0,0,-1
1513228721648134,3,-2,-4,1,-1,2,3,3
1513228721648134,3,-2,1,2,0,-2,-1,-3
1513228721657099,-5,3,-3,1,0,0,3,0
1513228721657099,7,-4,10,-2,-2,-2,0,-1
1513228721672600,3,9,9,6,2,-2,-1,-1
1513228721672600,-10,-4,-6,-3,-4,0,3,7
1513228721674115,-8,-5,-5,-1,-1,1,-2,-9
1513228721674115,3,7,-4,4,-1,-4,-3,0
1513228721694223,2,-13,-7,-9,0,0,0,1
1513228721694223,-2,21,4,-2,-2,0,4,1
1513228721696215,2,-15,-10,-2,-2,-1,0,-3
1513228721696215,-21,2,0,1,-1,0,-1,-3
1513228721707778,-1,-12,-12,-2,-3,-2,-2,3
1513228721707778,2,-7,2,3,0,-1,-3,-2
1513228721717293,4,7,-4,-11,-5,-2,-2,2
1513228721717293,21,-7,-2,3,2,1,5,14
1513228721731797,4,-1,-8,-5,-5,-3,0,-5
1513228721731797,-2,3,-6,-1,0,1,-4,-2
1513228721733296,-5,-15,-1,4,2,-2,-1,-5
1513228721733296,-14,-17,15,6,3,2,-1,-6
1513228721754309,1,23,-10,-15,-6,-4,0,7
1513228721754309,8,8,-1,0,2,1,0,-10
1513228721755811,-24,-16,-13,3,0,0,0,-2
1513228721755811,-14,-6,1,-2,0,-2,-4,0
1513228721767819,-1,-6,-4,1,0,2,0,-1
1513228721767819,0,-1,1,-2,-1,-2,-4,-4
1513228721777326,4,13,13,7,4,1,6,9
1513228721777326,-1,-2,-15,-5,-6,-4,-2,-10
1513228721791836,4,17,5,-1,-2,2,13,9
1513228721791836,-2,-19,0,-4,0,0,-7,0
1513228721793349,5,23,-5,-4,-4,-3,-20,-7
1513228721793349,9,2,2,3,-2,-2,-3,-2
1513228721814372,-2,-13,11,12,4,1,-1,-11
1513228721814372,22,0,-3,-10,-5,-2,9,12
1513228721815853,-15,-6,-12,-7,-2,0,7,-4
1513228721815853,4,12,10,0,1,1,5,5
1513228721827865,-3,-22,-7,1,1,0,-11,-18
1513228721827865,-3,-22,-9,0,1,1,13,5
1513228721836868,0,6,1,-2,-3,-4,-1,-5
1513228721836868,0,-1,-19,-12,-1,2,1,-6
1513228721851878,3,2,-9,0,1,0,17,24
1513228721851878,-12,-26,1,1,-5,-5,-7,-24
1513228721853379,8,54,18,-7,-3,-3,-16,-1
1513228721853379,-11,-16,-26,-1,-5,-3,-8,-1
1513228721874398,11,4,13,-1,-3,-3,-13,-8
1513228721874398,-5,4,9,2,-1,0,1,1
1513228721875895,1,-19,-13,-3,-2,-1,14,5
1513228721875895,3,-10,30,11,0,-3,-13,-1
1513228721896959,-5,5,-5,-15,-2,-2,-5,-3
1513228721896959,-6,-24,-39,-15,-5,-2,9,6
1513228721898434,9,14,38,16,3,-4,-24,-25
1513228721898434,-6,-17,-17,-1,3,0,8,28
1513228721911921,3,2,-20,-5,-3,-1,3,-9
1513228721911921,-7,31,18,4,1,-1,-13,-5
1513228721913425,-8,-23,-7,4,5,6,10,9
1513228721913425,17,2,7,1,-5,-5,7,-7
1513228721934437,-6,22,4,6,1,2,2,-1
1513228721934437,-3,-7,-12,-10,-4,-3,21,17
1513228721935938,0,-49,-8,5,0,-2,-17,-13
1513228721935938,-26,-24,-34,-14,-4,-1,0,-14
1513228721964481,-7,-8,20,7,1,0,-4,-3
1513228721964481,1,-9,-15,14,6,0,-8,-10
1513228721965969,-1,25,0,-31,-6,4,27,23
1513228721965969,10,11,9,0,-3,0,19,-23
1513228721971973,-6,-35,-17,-8,-5,-4,25,27
1513228721971973,-10,0,14,8,2,-10,-93,-40
1513228721973465,-1,3,10,7,0,2,23,1
1513228721973465,7,-24,12,4,3,-2,-26,-19
1513228721994530,-3,17,-19,-9,-6,-3,18,27
1513228721994530,4,-1,7,-17,-3,-1,9,-21
1513228721996028,-1,9,-10,-4,-4,-3,5,0
1513228721996028,-4,12,-2,11,-1,1,-1,14
1513228722017029,-8,-24,8,-14,-5,-12,-41,-45
1513228722017029,24,2,-8,14,1,1,20,21
1513228722018529,-26,-7,-17,-5,-4,-1,-17,-13
1513228722018529,8,17,3,-14,2,5,29,25
1513228722031041,2,-3,9,17,0,-3,-15,6
1513228722031041,12,24,-4,-30,-5,-1,17,25
1513228722038043,13,13,11,0,2,-2,2,-8
1513228722038043,-10,-9,-32,-1,-6,-7,-34,-7
1513228722054558,7,-6,2,10,1,2,11,4
1513228722054558,-12,-10,6,1,-4,-4,-18,-16
1513228722056055,11,-3,-6,3,0,3,15,-9
1513228722056055,-3,28,20,-9,-3,-3,23,22
1513228722078591,-4,-19,-10,0,1,-1,-26,-26
1513228722078591,-39,0,-14,-12,-6,1,5,-3
1513228722080115,18,9,18,8,1,-2,2,20
1513228722080115,-22,1,-4,-12,0,3,1,-17
1513228722091092,-6,-6,2,4,1,2,1,15
1513228722091092,12,54,27,2,4,5,26,24
1513228722098097,-12,-69,-43,-7,-4,-4,-24,-25
1513228722098097,9,33,27,9,1,-2,-11,-1
1513228722115110,-3,4,-1,8,1,-1,7,0
1513228722115110,0,3,26,12,3,1,1,3
1513228722116611,1,2,-11,-6,-1,-1,-12,-4
1513228722116611,2,-6,25,-1,-2,2,7,9
1513228722136613,11,0,-29,-11,-3,-3,5,-4
1513228722136613,-5,-14,-1,5,1,1,-5,1
1513228722138614,-9,14,-13,-6,-4,-4,0,7
1513228722138614,-1,-19,-3,1,-2,-1,6,0
1513228722151122,-2,24,12,0,-2,-2,-19,-9
1513228722151122,12,1,11,3,-2,0,6,-6
1513228722158130,-4,-27,-16,-8,-2,0,10,14
1513228722158130,3,7,-11,-2,-1,-3,-23,-16
1513228722174640,-4,7,10,11,1,1,14,2
1513228722174640,7,-14,-18,-5,1,3,2,-3
1513228722176144,-1,20,14,-7,-3,-6,-9,1
1513228722176144,9,0,-38,-7,-2,0,22,6
1513228722198157,5,-5,10,4,0,-2,-13,-6
1513228722198157,-11,-2,-6,10,-2,-5,-6,0
1513228722199658,3,12,15,1,2,4,1,10
1513228722199658,2,-16,14,10,1,-1,-5,-15
1513228722211193,5,1,-6,-7,-3,-1,9,17
1513228722211193,-11,-10,-23,-14,-3,-3,-1,-25
1513228722218198,14,43,23,24,0,0,-21,10
1513228722218198,9,-33,-4,-20,-3,-4,10,17
1513228722234186,-10,-1,20,35,10,4,18,8
1513228722234186,2,-8,-35,-30,-7,-10,-39,-4
1513228722240367,-6,-3,-1,-3,1,3,22,5
1513228722240367,4,21,8,13,3,3,-17,0
1513228722264386,-2,-33,4,-33,-6,-5,-12,1
1513228722264386,-9,3,-1,13,2,-1,3,-9
1513228722265873,-10,-12,-22,-1,0,4,23,4
1513228722265873,-4,-1,7,3,-3,-4,5,22
1513228722271377,0,6,-1,-6,1,2,-8,4
1513228722271377,-2,31,5,15,-2,0,-10,-19
1513228722285390,7,-33,2,-4,0,-1,-4,5
1513228722285390,-15,-10,-27,-22,-6,-7,-8,-32
1513228722294393,-1,28,25,18,1,-1,-18,-11
1513228722294393,-6,-32,-50,-37,-7,-1,13,12
1513228722295894,6,-11,1,9,-1,-4,-11,-18
1513228722295894,-15,3,4,10,-1,1,5,6
1513228722316932,2,-20,-6,-4,2,5,38,-6
1513228722316932,5,49,23,1,-6,-6,-34,-5
1513228722318411,18,10,-11,-5,-3,-4,2,5
1513228722318411,-6,-1,24,8,1,-1,-1,-16
1513228722331920,-9,-21,-44,-24,-6,-2,-28,-13
1513228722331920,3,-6,23,23,6,3,30,20
1513228722345441,-2,5,3,2,2,-1,-13,-15
1513228722345441,-11,3,-1,2,-4,-2,-14,-8
1513228722353947,1,27,8,-7,-3,-1,9,20
1513228722353947,-9,-32,5,5,1,1,0,-9
1513228722360454,-7,4,10,-3,-3,-2,-1,-2
1513228722360454,2,0,-2,3,4,2,-1,0
1513228722383470,1,0,-9,11,-5,-7,-10,-10
1513228722383470,4,-3,21,-11,0,4,12,0
1513228722392462,-6,15,49,23,4,1,24,14
1513228722392462,3,-10,-60,-15,-7,-4,-38,-17
1513228722393473,0,43,23,-18,-1,0,8,-1
1513228722393473,-3,-56,0,32,3,0,-2,9
1513228722406972,-6,-4,-14,-25,-3,1,-7,-2
1513228722406972,1,-34,15,-2,2,2,14,-5
1513228722414492,6,29,6,0,-3,-8,5,30
1513228722414492,-8,11,2,6,0,-1,-26,-57
1513228722415988,5,-5,6,-2,-4,-7,0,-3
1513228722415988,2,8,11,2,3,2,9,11
1513228722437003,5,-24,-32,-8,-2,1,8,-1
1513228722437003,-6,31,20,-1,2,2,-11,33
1513228722438504,-41,-27,-31,-9,-2,-5,-8,-13
1513228722438504,20,18,15,22,6,1,4,-1
1513228722450503,17,-6,9,-21,-8,0,1,-6
1513228722450503,7,0,-17,5,-2,-1,7,15
1513228722459511,12,26,-7,-23,-11,-5,-5,6
1513228722459511,-12,-24,-13,4,0,0,7,-4
1513228722482034,-20,13,-2,3,-2,-5,-10,-20
1513228722482034,-6,-44,-25,-6,0,1,8,2
1513228722483531,12,34,-8,-12,-2,-1,-15,-1
1513228722483531,-1,-20,1,-4,-2,1,19,14
1513228722504051,-5,20,-2,9,-5,-2,0,-1
1513228722504051,-2,-5,8,-10,0,-2,8,9
1513228722512547,-53,-59,-56,-2,-3,-1,20,0
1513228722512547,34,7,8,16,4,-2,-44,-20
1513228722513565,-9,-2,17,18,7,2,4,0
1513228722513565,-3,32,32,-15,-2,3,26,4
1513228722519552,0,-17,0,1,0,-5,-41,2
1513228722519552,-8,18,8,-9,-5,-5,-11,-10
1513228722533565,3,-45,-11,15,2,-1,-7,0
1513228722533565,7,29,-7,-9,-6,-3,14,7
1513228722542581,1,39,65,23,7,3,13,-3
1513228722542581,5,8,-48,8,4,3,23,94
1513228722556637,9,-31,-6,-25,-2,-4,-44,-76
1513228722556637,4,0,11,26,0,-4,0,-1
1513228722558634,26,22,-19,-13,-5,-1,-2,0
1513228722558634,-5,6,28,0,-1,-2,28,0
1513228722570643,-16,66,45,17,10,5,-20,10
1513228722570643,-28,-73,-48,12,4,-1,6,-9
1513228722587155,4,-7,4,-7,1,3,6,-15
1513228722587155,-1,26,19,-13,-10,-5,-10,-7
1513228722594160,7,-5,6,-38,-1,2,17,25
1513228722594160,3,-18,-54,4,0,0,-3,-33
1513228722596177,24,31,67,37,3,-2,0,16
1513228722596177,-30,-67,-16,-4,0,1,21,10
1513228722616676,-10,13,-35,7,-5,-5,-14,-24
1513228722616676,1,33,15,-36,-7,-6,-23,5
1513228722618177,-10,-59,-56,-43,-13,-7,2,-8
1513228722618177,0,37,48,-9,2,1,10,27
1513228722639211,-14,2,7,51,2,-4,-11,-30
1513228722639211,26,-28,30,17,7,4,10,18
1513228722641193,1,23,46,-12,-3,1,36,18
1513228722641193,3,10,-51,-13,-5,-9,-64,-45
1513228722654224,-1,7,-40,9,4,8,14,50
1513228722654224,-18,52,51,14,1,0,21,14
1513228722656204,-43,-74,-60,10,3,-2,-31,-44
1513228722656204,-38,-30,-13,-39,-8,2,13,15
1513228722676739,32,28,39,14,2,-1,11,-6
1513228722676739,21,40,24,3,-2,-2,-15,-13
1513228722678220,4,27,-1,12,6,5,-1,46
1513228722678220,-10,-10,-21,3,0,-4,15,-26
1513228722690728,-18,-25,10,-4,4,3,1,-7
1513228722690728,65,26,4,6,-5,-4,-19,5
1513228722699747,-39,-10,23,14,3,1,-4,-22
1513228722699747,8,-26,-44,-19,-6,-3,-8,-6
1513228722714266,13,7,30,2,-4,-3,19,25
1513228722714266,-12,31,18,17,-1,-3,6,8
1513228722715755,33,21,-7,-2,0,-6,-13,-6
1513228722715755,-2,21,1,-6,-4,-1,-14,-18
1513228722736762,15,-52,-31,-13,1,-3,14,13
1513228722736762,-21,-14,-16,-6,-5,-4,-26,-11
1513228722738262,10,9,17,13,7,9,-1,-13
1513228722738262,-6,-37,5,26,7,5,37,33
1513228722759286,-39,-19,-27,-61,-11,-3,-30,-36
1513228722759286,-7,23,-1,-15,-4,-3,5,1
1513228722761284,0,4,-13,-6,-2,-4,-7,-7
1513228722761284,36,54,67,12,5,6,2,22
1513228722782793,-5,-37,-88,11,-2,-4,5,-28
1513228722782793,2,17,13,-41,-13,-8,-14,-9
1513228722784805,-12,-5,54,38,3,-1,2,-4
1513228722784805,-6,-6,-28,-16,-4,-2,-14,-18
1513228722796813,10,39,21,-20,-2,-2,-2,21
1513228722796813,-3,-36,-13,2,2,1,25,8
1513228722798314,14,28,3,-9,-7,-4,-23,13
1513228722798314,-4,-52,-46,6,2,-3,23,-44
1513228722819328,-22,13,14,5,-2,-2,-9,5
1513228722819328,0,16,-32,24,6,2,-18,-10
1513228722820819,7,-31,-28,-57,-15,-6,27,-1
1513228722820819,-39,4,19,13,-1,-1,-8,-6
1513228722841850,59,-33,18,4,-4,-5,-4,14
1513228722841850,-30,24,4,-3,2,0,12,7
1513228722843350,1,-21,-50,-5,2,0,2,11
1513228722843350,12,38,6,-1,2,2,-3,-1
1513228722856846,-11,14,35,22,4,3,9,-6
1513228722856846,-4,-54,-51,-18,-2,0,-6,11
1513228722858347,2,20,24,23,8,5,14,-9
1513228722858347,7,17,38,9,3,-2,-13,-4
1513228722879404,-27,-22,-53,-1,-5,-3,15,10
1513228722879404,20,18,24,-8,-1,7,21,-13
1513228722880877,0,-32,-46,-24,-7,-3,-1,-4
1513228722880877,20,0,18,4,-2,-6,-21,-2
1513228722894386,-7,34,51,8,2,4,9,2
1513228722894386,-20,-21,-29,-13,-2,-1,-5,4
1513228722895884,-1,-3,-13,-4,-8,-8,-3,-4
1513228722895884,-7,51,-1,-1,-6,-3,15,20
1513228722916892,18,2,-3,-40,-5,-1,-3,-11
1513228722916892,-18,1,19,20,1,-4,0,-9
1513228722918389,-3,-4,23,19,7,3,-9,1
1513228722918389,-14,-23,-16,-3,-10,-7,4,60
1513228722939414,0,20,18,-3,2,0,-5,-46
1513228722939414,14,0,7,7,-1,-2,3,2
1513228722940917,-11,10,-30,-11,-2,-2,-1,6
1513228722940917,-18,-55,-31,2,-4,-4,-21,-22
1513228722954425,1,-28,-5,28,4,0,5,19
1513228722954425,-19,10,2,-28,-4,1,-2,1
1513228722961919,2,7,51,22,4,-1,-13,2
1513228722961919,1,-11,2,11,5,5,4,4
1513228722976931,-11,-13,7,11,-4,-6,-24,-31
1513228722976931,-3,-32,2,-47,-3,1,7,-16
1513228722978432,2,7,-30,8,-2,-2,-12,21
1513228722978432,5,-5,21,-19,1,-2,9,-19
1513228722999461,-13,10,14,0,1,1,14,11
1513228722999461,-15,-50,-29,3,-6,-4,-4,1
1513228723000947,9,-1,28,6,1,-1,-9,4
1513228723000947,19,21,-16,-11,-2,-3,-4,-19
1513228723013459,-15,-51,-26,2,-2,-5,-9,10
1513228723013459,14,10,-4,-23,-9,-2,7,5
1513228723020461,-5,-34,4,14,5,4,4,-24
1513228723020461,-4,-18,-12,-8,-4,-3,1,-17
1513228723036973,8,2,-6,-7,1,2,-3,11
1513228723036973,-31,-14,-13,14,2,0,-6,5
1513228723038475,-8,76,43,0,-5,-4,10,7
1513228723038475,5,-36,-12,16,2,2,1,3
1513228723059488,-2,9,38,8,2,1,3,-1
1513228723059488,16,56,-8,-12,2,-2,-16,4
1513228723061500,-8,-34,-37,-6,-3,-1,4,-1
1513228723061500,12,31,17,10,3,3,-9,-5
1513228723073500,-11,17,22,24,6,3,14,5
1513228723073500,-11,-21,6,-37,-10,-3,3,6
1513228723080524,5,-2,-12,-6,1,-1,-3,1
1513228723080524,-8,17,-4,-6,-2,0,4,-1
1513228723097016,11,-16,-32,-15,-4,2,-20,-12
1513228723097016,2,10,20,52,9,1,-3,2
1513228723098517,5,2,-3,-38,-5,0,21,13
1513228723098517,-17,-43,-8,9,1,-1,-5,-7
1513228723119541,7,20,-3,-26,-9,-5,2,8
1513228723119541,3,-42,-7,36,6,0,-3,-2
1513228723121033,-4,-9,-13,-17,-9,-6,-8,-14
1513228723121033,20,47,49,17,4,3,-2,-1
1513228723142066,11,-53,-63,-18,-5,-3,11,19
1513228723142066,23,54,53,10,-1,-2,-38,-21
1513228723143548,17,8,-9,11,1,0,1,6
1513228723143548,-4,-25,-37,8,6,3,-7,-10
1513228723157058,12,18,58,-12,-6,0,-6,6
1513228723157058,1,-33,-45,10,5,2,25,9
1513228723158559,-8,0,-49,-3,2,3,-24,4
1513228723158559,-6,29,35,4,-3,-2,0,-7
1513228723186581,2,-11,-10,-8,1,0,4,13
1513228723186581,-2,1,12,24,3,2,9,-4
1513228723188580,-11,37,47,-21,-1,3,7,12
1513228723188580,30,-13,-75,-13,-3,-3,-2,-7
1513228723194084,-11,-14,12,21,3,-1,0,-2
1513228723194084,16,20,10,-8,-3,-2,6,8
1513228723202090,-15,-55,-25,17,1,-5,-24,-15
1513228723202090,-6,52,51,-3,-1,0,-5,3
1513228723216099,7,25,-15,-5,-7,-7,-5,4
1513228723216099,10,-22,5,-10,0,-2,1,1
1513228723224613,9,-55,10,1,-2,-3,5,-14
1513228723224613,-14,-9,-8,-5,-1,-1,-8,-3
1513228723239115,15,38,18,19,3,1,8,-1
1513228723239115,-25,0,-25,25,-1,-4,-18,-5
1513228723241117,-26,8,-15,-53,-13,-7,7,20
1513228723241117,21,18,-8,24,5,-1,2,-32
1513228723253635,-39,-26,-51,-41,-12,-7,-17,-16
1513228723253635,-18,16,3,-40,-13,-3,-9,3
1513228723260645,24,39,39,62,9,2,14,2
1513228723260645,-24,-50,-27,-71,-11,-5,-13,3
1513228723276642,-42,-23,-3,-2,-1,-2,-3,-6
1513228723276642,27,27,-8,-10,-3,0,3,12
1513228723278647,-37,1,20,14,5,2,11,-3
1513228723278647,34,6,18,26,0,-3,-20,12
1513228723305662,-5,-9,-4,22,12,6,2,-1
1513228723305662,-11,-14,9,-22,-2,1,8,7
1513228723315169,-30,36,-2,7,5,7,-10,-15
1513228723315169,51,-31,6,-2,-1,1,30,33
1513228723316170,2,-10,2,-4,-1,-2,-25,-12
1513228723316170,6,16,50,33,5,3,10,32
1513228723322174,21,-3,-39,-1,-1,5,-1,5
1513228723322174,-52,8,23,-18,-8,-6,-5,-1
1513228723336684,12,-31,-58,11,-5,-5,-3,-13
1513228723336684,29,-17,10,10,9,6,16,15
1513228723338186,-1,6,-18,-36,-11,-3,0,-3
1513228723338186,-30,42,55,22,0,1,-1,21
1513228723359212,3,-32,-46,-20,-3,0,20,-22
1513228723359212,-7,4,-22,-9,0,-4,-17,-32
1513228723361214,26,3,21,16,-2,-3,13,-5
1513228723361214,-36,-36,43,1,-1,0,-2,-30
1513228723373212,16,19,-63,-33,-7,-5,-25,1
1513228723373212,-16,-19,-21,17,-1,-6,4,-27
1513228723382220,23,42,23,1,4,-2,-8,-6
1513228723382220,-50,-6,-48,-22,-8,-5,4,15
1513228723396739,33,41,99,62,8,8,29,19
1513228723396739,2,-1,-3,-53,1,2,-30,-15
1513228723398731,-8,-39,-17,7,-3,-2,-4,17
1513228723398731,-4,28,-24,1,0,-2,2,-5
1513228723419254,-11,6,17,4,1,-1,28,28
1513228723419254,-3,-20,-40,-21,-10,-9,-60,-44
1513228723435254,2,38,35,18,1,-1,11,4
1513228723435254,-1,-38,-46,-19,-5,-2,-21,-11
1513228723435766,33,10,16,-12,-7,-3,9,23
1513228723435766,12,30,3,37,5,-1,33,33
1513228723441771,8,-38,11,-16,-3,-5,-42,-39
1513228723441771,8,0,-8,-3,-3,0,3,1
1513228723463286,-22,-7,-12,-18,-7,-5,-7,-22
1513228723463286,38,14,25,46,10,4,5,16
1513228723471789,-32,-13,-16,-16,-4,-3,1,6
1513228723471789,4,18,66,11,0,1,20,12
1513228723479292,7,-52,-19,-7,0,1,-29,-31
1513228723479292,-42,-44,-71,-25,-5,-4,10,-1
1513228723480797,20,-7,-40,-25,-7,-1,11,0
1513228723480797,31,75,57,32,10,4,-11,-7
1513228723492804,-42,-18,-15,10,5,1,17,2
1513228723492804,1,-7,20,-2,-4,-1,-16,-13
1513228723501810,6,26,40,57,12,2,8,1
1513228723501810,-13,7,-4,-81,-14,-7,-9,-17
1513228723516812,-8,-10,-5,7,3,1,20,49
1513228723516812,-12,-20,-42,-27,-12,-7,-10,5
1513228723518312,16,-3,12,9,1,-1,-22,-47
1513228723518312,5,-33,-20,-14,-6,-2,-3,-1
1513228723538827,-4,46,40,27,-3,-4,-11,-11
1513228723538827,-6,3,1,-27,-5,-3,18,8
1513228723545344,4,-3,59,32,11,8,24,46
1513228723545344,0,-27,-72,4,-1,-3,-15,-1
1513228723552837,-1,16,18,-31,-4,-4,-19,-12
1513228723552837,-8,-16,16,27,4,4,16,-5
1513228723561844,-8,31,-27,-12,-9,-6,1,-1
1513228723561844,19,79,51,43,11,1,13,11
1513228723575900,-16,-18,-50,-24,-8,-5,-1,1
1513228723575900,-1,24,30,2,-2,0,8,9
1513228723584444,25,-92,-83,-43,-7,-3,-16,-29
1513228723584444,-17,26,-23,4,-5,-3,3,-2
1513228723599454,7,-13,35,3,0,1,-9,-14
1513228723599454,18,10,-11,3,4,2,6,3
1513228723600964,-44,-11,-30,5,-2,-2,13,11
1513228723600964,-13,-61,-39,-2,0,3,6,-14
1513228723612963,3,15,31,-14,3,1,-1,-3
1513228723612963,-4,7,15,13,-2,-2,11,1
1513228723630976,-3,-24,5,14,6,-2,-5,14
1513228723630976,13,-11,-26,-13,-2,-4,-1,6
1513228723636980,-12,23,18,10,4,0,-20,-13
1513228723636980,-2,5,19,-2,1,1,2,-4
1513228723638481,-15,-12,-18,-16,-10,-5,-6,-4
1513228723638481,-1,-12,31,32,7,4,1,0
1513228723659496,-18,6,-23,-13,-7,-4,1,70
1513228723659496,-5,-8,-7,1,-4,-1,-7,-72
1513228723661013,5,3,43,-13,-3,-2,-8,-14
1513228723661013,-1,-26,-31,9,-3,-2,4,35
1513228723673008,-13,19,-1,-16,2,2,4,-12
1513228723673008,2,14,56,33,6,1,-1,15
1513228723682012,9,-26,-49,-18,-6,-5,-10,31
1513228723682012,7,4,39,13,4,5,15,24
1513228723697595,-2,-33,-30,-1,-4,-7,-27,-41
1513228723697595,-14,14,-5,-24,-3,1,-8,14
1513228723703053,15,25,32,42,8,-1,-19,-41
1513228723703053,2,-6,-22,-39,-7,-3,-4,-2
1513228723719556,9,-31,-3,-2,0,1,7,18
1513228723719556,4,5,13,1,-1,0,8,-15
1513228723721057,-4,-2,32,13,1,4,12,19
1513228723721057,-5,-11,-79,-14,-4,-4,-17,-16
1513228723733618,-8,48,58,19,1,0,6,-2
1513228723733618,5,9,-23,15,1,-1,0,22
1513228723742123,-23,-24,-27,-55,-13,-2,0,-21
1513228723742123,-8,7,19,21,7,2,-2,-12
1513228723756633,19,18,8,-18,-7,0,22,41
1513228723756633,13,-27,-1,44,9,0,-18,1
1513228723758629,27,61,4,-25,-3,3,9,19
1513228723758629,-1,10,4,-35,-9,-5,-4,-6
1513228723779140,-15,26,-29,10,0,-1,-7,-43
1513228723779140,2,-46,-36,-9,-2,-2,8,7
1513228723781145,8,4,14,-2,4,3,7,14
1513228723781145,-14,-8,43,10,2,1,12,13
1513228723801665,7,-20,-31,-4,-3,-1,-16,-26
1513228723801665,-16,24,-16,-21,-14,-8,-17,-6
1513228723803669,-1,-14,15,6,7,3,11,20
1513228723803669,-14,16,-22,-7,-9,-5,2,13
1513228723817181,12,13,18,11,1,0,-16,-41
1513228723817181,6,11,12,1,4,3,2,0
1513228723818672,7,-2,16,4,-3,-2,-4,15
1513228723818672,15,14,-25,10,0,-1,-5,-19
1513228723839366,-12,-40,-45,-24,-6,-3,7,26
1513228723839366,-4,-14,47,-3,2,3,-1,-2
1513228723840868,6,34,0,8,0,-3,-3,-18
1513228723840868,-2,10,54,17,4,3,2,-2
1513228723861888,-3,-8,-62,-12,-1,2,3,-11
1513228723861888,-9,10,-9,-11,0,5,36,38
1513228723863391,-9,10,50,25,3,-9,-71,-39
1513228723863391,-25,-48,-25,-18,-6,-1,-5,-29
1513228723876910,5,7,6,5,1,-1,7,19
1513228723876910,3,11,-13,10,-2,-2,4,19
1513228723878385,-38,-35,-52,-31,-10,-1,3,-11
1513228723878385,28,-27,-8,-4,-4,-1,8,14
1513228723899904,7,80,55,20,3,-2,-22,-1
1513228723899904,-6,-30,-14,-7,-7,-7,-1,-8
1513228723905405,-13,-17,-34,-26,-7,-2,11,-1
1513228723905405,5,17,31,12,5,1,-10,-15
1513228723921916,23,1,9,-9,-5,-1,25,25
1513228723921916,0,-25,-7,4,-1,-3,-14,-13
1513228723923429,20,15,-16,12,-3,-4,0,16
1513228723923429,-28,-14,-5,-18,-1,0,0,-2
1513228723935949,10,19,23,2,1,-1,12,14
1513228723935949,-7,-30,-25,-2,0,0,-35,-40
1513228723942930,3,-19,9,-10,-2,1,16,13
1513228723942930,11,7,11,47,9,3,-3,-44
1513228723959442,-11,6,-16,-32,-8,-5,10,7
1513228723959442,-7,16,36,-4,-3,-2,-21,-8
1513228723960943,-35,-37,-15,32,4,0,10,4
1513228723960943,14,-8,-29,-35,-4,-2,-5,4
1513228723981961,-10,-32,0,19,5,1,-3,-2
1513228723981961,-15,-34,-18,-33,-15,-8,2,-9
1513228723983463,9,14,-22,14,2,3,17,-1
1513228723983463,2,-2,17,8,-3,-3,-14,-5
1513228723995990,-14,-33,-1,3,0,0,0,-15
1513228723995990,-2,30,-30,-17,-3,0,7,13
1513228724010490,14,-39,28,-15,-4,-4,10,7
1513228724010490,-8,-40,-8,1,-1,-2,-22,-8
1513228724019486,8,26,7,17,-3,-4,-9,-6
1513228724019486,-11,4,-5,-10,-1,-2,1,12
1513228724020986,-9,3,12,14,4,2,-6,-11
1513228724020986,3,-4,-10,-15,-5,-3,6,5
1513228724041501,-2,-39,17,31,6,1,-7,-20
1513228724041501,7,22,-7,-13,-1,0,8,22
1513228724056511,-1,66,6,2,1,0,-1,-4
1513228724056511,48,18,23,1,-3,-5,-1,12
1513228724057511,-15,-46,-42,-2,-2,-1,5,1
1513228724057511,5,-17,8,5,0,-3,-13,-13
1513228724064517,1,29,-5,-14,1,1,-2,3
1513228724064517,-1,17,58,25,5,4,7,12
1513228724079030,-24,41,-9,-4,-1,1,6,-15
1513228724079030,3,24,-22,-15,-4,-2,-2,-3
1513228724081028,-17,-28,14,11,-2,-2,-2,-6
1513228724081028,5,11,5,19,-3,-5,-1,5
1513228724109561,-6,-45,-30,-51,-9,-6,-5,10
1513228724109561,4,-2,19,31,8,5,21,-4
1513228724111063,4,18,-26,-24,-7,-7,-24,-11
1513228724111063,-21,-7,22,-15,-3,1,4,-8
1513228724116057,20,-1,-3,19,3,1,-6,5
1513228724116057,10,11,35,13,1,1,14,20
1513228724123128,-1,-14,-32,-14,-6,-5,-1,-4
1513228724123128,-12,-12,-49,-23,-3,-1,8,14
1513228724139083,-11,-4,23,17,3,-1,-16,-18
1513228724139083,5,3,-5,-1,-1,-2,-18,-9
1513228724141072,7,-34,9,-4,-4,-2,5,0
1513228724141072,-6,-15,-57,4,-1,0,3,4
1513228724169591,13,27,36,2,2,2,5,8
1513228724169591,-6,-12,-1,-8,-1,-3,-5,-2
1513228724171092,-3,-4,-22,7,2,-1,4,-1
1513228724171092,2,36,20,20,2,0,-2,-7
1513228724184601,-12,-54,-19,-15,0,1,0,1
1513228724184601,-1,18,27,-10,-6,-3,-1,3
1513228724186106,7,4,12,15,2,0,0,-5
1513228724186106,6,2,-10,-13,-4,-2,-7,-6
1513228724199123,-5,9,-8,16,2,-2,0,-2
1513228724199123,-7,-23,1,-30,-5,-1,1,-12
1513228724201126,-3,16,6,17,8,6,6,17
1513228724201126,-22,3,14,14,4,1,-2,-12
1513228724221628,13,-7,22,-15,-4,-2,12,17
1513228724221628,-13,-15,-28,-9,-2,-1,-20,-18
1513228724223657,22,11,-10,-24,-11,-6,-2,-11
1513228724223657,-29,-9,10,14,5,0,-1,17
1513228724236663,23,-21,16,13,3,1,-3,-26
1513228724236663,-14,-12,7,-7,-3,2,21,15
1513228724250669,4,13,-11,-1,8,3,-22,-10
1513228724250669,18,-12,-20,11,-5,-5,-3,7
1513228724259157,3,20,-17,-35,-8,-3,-1,-1
1513228724259157,-7,16,8,23,4,-2,2,3
1513228724261167,-21,-16,-37,4,3,4,14,8
1513228724261167,19,44,39,-4,-1,0,1,-6
1513228724281673,-12,-2,20,5,-3,-1,-5,7
1513228724281673,21,1,-23,47,9,4,-2,-18
1513228724283673,19,-27,11,-55,-8,0,-2,-3
1513228724283673,-26,-4,-36,-20,-1,1,5,2
1513228724295680,1,6,11,11,0,0,2,10
1513228724295680,0,8,17,-4,0,-1,-6,2
1513228724304687,-3,12,-1,15,2,-1,2,6
1513228724304687,8,-25,-31,-15,-4,-4,-6,-15
1513228724319196,2,32,1,8,4,1,-5,-2
1513228724319196,-7,4,-18,3,-5,-3,5,15
1513228724320698,-30,4,-6,-26,-3,-1,-5,-17
1513228724320698,42,9,30,-10,0,1,-1,-5
1513228724342212,-9,-61,-48,0,-5,-2,-2,3
1513228724342212,7,22,7,22,4,0,-2,2
1513228724347718,-3,2,6,7,-7,-6,-1,-3
1513228724347718,10,18,35,-22,1,2,19,15
1513228724355221,-15,-46,-43,-12,-5,-8,-42,-27
1513228724355221,3,8,27,19,3,2,2,-2
1513228724364228,12,14,-15,-21,-9,-6,-2,5
1513228724364228,-27,-24,-18,-2,0,0,6,16
1513228724378739,11,57,15,-1,0,-1,9,9
1513228724378739,-31,-60,-9,-22,-5,-4,-7,-20
1513228724387765,2,7,11,39,7,0,-2,7
1513228724387765,2,-14,-49,23,3,1,3,-5
1513228724401770,-24,6,41,-46,-9,-2,-9,10
1513228724401770,11,9,-4,3,4,3,17,9
1513228724403257,19,20,56,-11,-5,-6,-22,-13
1513228724403257,-18,-20,0,18,-2,-3,-18,-2
1513228724415264,19,11,-29,15,-3,-5,3,-12
1513228724415264,1,8,18,-13,-1,0,7,9
1513228724424274,1,-12,-8,21,1,-2,7,11
1513228724424274,6,9,34,0,1,-1,9,-24
1513228724454292,20,26,22,10,3,3,7,0
1513228724454292,28,-32,-47,-13,-8,-5,-9,3
1513228724462299,-7,-2,-2,-6,0,1,3,-7
1513228724462299,2,-23,0,14,2,-1,-10,4
1513228724464308,-17,24,-23,-20,-2,1,10,4
1513228724464308,6,-8,11,18,2,-2,5,-3
1513228724464799,3,10,-42,-50,-3,6,7,-14
1513228724464799,-3,-36,-5,-15,-9,-7,33,23
1513228724508333,2,-20,-8,17,6,0,-21,-19
1513228724508333,1,13,14,10,0,-2,3,21
1513228724508833,12,3,-57,-19,-11,-5,21,12
1513228724508833,9,68,47,2,3,-2,-57,-39
1513228724510833,-8,-46,-55,-7,-3,-2,26,13
1513228724510833,-12,21,48,19,0,-4,-22,-20
1513228724513844,-4,8,29,-6,1,1,11,20
1513228724513844,32,-10,-9,-4,0,2,23,24
1513228724520849,-19,46,-2,-3,-3,-2,-30,-23
1513228724520849,6,-24,14,-3,-3,-2,-5,-13
1513228724521842,-14,-51,-43,20,3,-2,-17,-7
1513228724521842,-9,14,-15,-38,-13,-7,2,7
1513228724544856,0,14,43,29,5,5,3,10
1513228724544856,11,23,-11,-43,-4,2,17,-13
1513228724545856,-22,-25,8,33,9,2,-19,9
1513228724545856,-15,7,-5,-5,-11,-8,-15,-20
1513228724558365,20,-14,20,11,0,0,9,10
1513228724558365,-10,19,-62,-43,-10,-4,-8,-2
1513228724559367,2,4,37,26,8,2,6,-7
1513228724559367,-8,-8,-16,4,2,2,-5,-7
1513228724581894,24,18,34,23,7,4,4,8
1513228724581894,-26,-19,-19,9,0,0,6,5
1513228724582385,-5,-14,16,-12,-5,1,-4,9
1513228724582385,-6,16,-26,-9,1,-1,-5,-15
1513228724603409,3,-13,9,4,1,-1,6,10
1513228724603409,-11,-7,10,0,2,1,-5,0
1513228724604401,6,8,21,12,2,0,8,-16
1513228724604401,-16,-30,-24,11,0,-1,-13,-4
1513228724619914,-16,-11,1,-38,-7,-1,3,-1
1513228724619914,3,-27,-22,-5,-3,-3,-34,0
1513228724620920,10,-23,8,2,-5,-8,6,7
1513228724620920,12,19,-10,24,7,6,19,15
1513228724640925,-12,1,-9,-36,-5,-6,-6,-12
1513228724640925,25,-4,4,0,0,-2,2,-5
1513228724641926,12,12,11,-13,-6,-2,-1,-5
1513228724641926,-26,1,-13,3,2,-3,-7,-9
1513228724663443,5,8,-5,9,-2,-1,-1,9
1513228724663443,5,29,-30,-10,-9,-6,17,-2
1513228724664440,1,27,41,21,7,5,5,3
1513228724664440,8,4,-8,-20,-4,-3,-2,10
1513228724678474,-7,-45,2,9,2,3,14,-10
1513228724678474,-16,-20,-4,-5,-1,-1,-4,-10
1513228724679474,4,7,-8,34,4,-4,-61,-15
1513228724679474,13,-4,4,-40,-10,-3,7,4
1513228724700976,-28,-14,-19,4,2,-1,0,-3
1513228724700976,5,4,24,2,-3,-2,2,18
1513228724708485,-7,12,-7,0,5,4,9,-40
1513228724708485,-7,-40,-12,-11,-4,-2,-18,-1
1513228724723996,12,39,26,25,4,0,4,6
1513228724723996,-22,-35,-10,7,4,1,1,3
1513228724724984,11,8,-9,-40,-8,-2,5,8
1513228724724984,1,19,14,4,4,2,14,12
1513228724739994,-1,7,0,3,-3,-6,-18,-39
1513228724739994,14,-6,31,26,8,2,5,17
1513228724740995,-13,0,8,-7,-6,-3,7,7
1513228724740995,-3,-1,-19,-9,-2,-2,-13,-5
1513228724761008,-1,-32,-21,5,2,4,12,8
1513228724761008,17,48,16,19,0,-5,-34,-10
1513228724762010,-26,-56,-8,-45,-11,-7,-12,3
1513228724762010,1,43,24,16,-2,-1,10,-6
1513228724783524,5,-6,-3,-13,-3,-3,-19,-10
1513228724783524,-10,-10,-17,6,1,2,4,-2
1513228724784526,17,40,-4,3,0,2,18,9
1513228724784526,20,-13,17,32,5,1,-13,-3
1513228724798547,-34,-32,-27,-19,-8,-4,-1,-4
1513228724798547,-11,-5,-24,-34,-4,-2,3,-13
1513228724806052,-6,1,14,28,2,-1,6,1
1513228724806052,7,-7,20,-19,1,1,16,9
1513228724821052,28,-7,-11,-7,-4,-4,-25,-20
1513228724821052,8,-31,-6,-1,-1,-3,22,-4
1513228724822054,-18,8,20,25,1,0,-9,-8
1513228724822054,-24,-23,-36,-33,-6,-2,4,-5
1513228724843742,-3,45,51,25,8,2,-10,9
1513228724843742,16,-34,-31,-21,-11,-3,-3,5
1513228724844231,9,20,-24,-14,-3,-1,-4,-7
1513228724844231,4,-12,-5,7,0,-3,-1,-12
1513228724858751,-50,27,32,4,-5,-3,21,19
1513228724858751,-8,36,18,-7,0,0,-10,-7
1513228724859243,-6,-5,-4,8,1,-3,5,11
1513228724859243,1,-32,-25,-4,-3,-1,0,5
1513228724881256,29,18,22,-12,1,1,5,-24
1513228724881256,1,20,9,12,-1,0,-17,-11
1513228724881757,-10,-30,-44,-3,-5,0,9,0
1513228724881757,-6,-21,12,12,3,2,13,8
1513228724904282,16,9,-5,-1,-5,-4,3,8
1513228724904282,-5,-20,-15,-27,-1,1,9,1
1513228724904774,9,4,21,7,0,-2,5,2
1513228724904774,1,15,0,-7,-1,-1,-1,-8
1513228724918784,-12,-36,-32,13,2,2,-5,4
1513228724918784,0,8,-15,-24,-7,-5,-9,-3
1513228724919284,13,14,24,17,3,2,-1,10
1513228724919284,-17,11,10,-1,-3,-3,8,-2
1513228724941299,4,-22,-22,-19,-4,-2,-21,-14
1513228724941299,5,10,2,-3,0,0,3,8
1513228724941802,19,-1,8,0,1,1,-1,0
1513228724941802,4,28,16,19,0,-4,-16,-5
1513228724963326,-18,-28,-16,-10,-5,-4,3,-3
1513228724963326,-16,-19,-1,-2,-2,-2,-5,-7
1513228724971320,-4,-3,14,12,0,-4,5,0
1513228724971320,5,27,1,-24,0,5,3,5
1513228724978826,8,34,-1,-6,-5,-5,1,6
1513228724978826,3,31,55,23,5,2,3,2
1513228724979454,-7,-21,-46,-11,-3,-3,-5,3
1513228724979454,8,-4,-21,-2,-3,-2,-4,-7
1513228725000968,6,4,32,15,6,3,7,26
1513228725000968,-17,-17,-30,5,0,-2,6,-12
1513228725001972,3,-8,8,-13,-5,-2,0,-9
1513228725001972,16,-3,6,0,1,3,-8,-2
1513228725023488,0,20,13,0,0,-1,2,1
1513228725023488,4,4,5,9,5,4,7,9
1513228725024489,-16,-10,-6,1,0,-1,3,1
1513228725024489,-5,18,13,2,-1,-2,-10,-12
1513228725038508,5,-5,-15,3,0,2,14,15
1513228725038508,-7,-8,-17,1,-1,-2,-9,-8
1513228725039508,-7,13,-3,-8,-1,0,-19,-11
1513228725039508,0,-27,16,11,3,0,5,-2
1513228725061065,-14,-5,-14,2,-2,-3,-3,12
1513228725061065,40,16,1,-7,-5,-2,-5,-11
1513228725062065,-6,3,-7,-11,-2,0,2,2
1513228725062065,-5,7,28,13,1,-2,-11,-8
1513228725084084,4,-7,-63,-21,-8,-3,11,2
1513228725084084,-5,-66,-18,-8,-1,2,-2,8
1513228725084582,10,14,7,8,1,-3,-3,4
1513228725084582,5,22,12,21,1,0,16,7
1513228725098614,-11,-37,-29,-21,-2,0,-23,-12
1513228725098614,-9,34,24,10,0,-1,-1,1
1513228725099593,0,2,4,5,3,2,0,0
1513228725099593,-18,0,4,-11,-4,1,20,25
1513228725128634,-6,8,6,0,-3,-7,-46,-29
1513228725128634,19,-19,-8,2,-1,-1,1,-3
1513228725136136,-16,-13,-4,-21,-6,-3,-4,-7
1513228725136136,0,-36,-8,5,1,-2,-11,-6
1513228725143624,5,15,28,5,1,-2,12,1
1513228725143624,-16,4,9,-22,-6,-2,-2,4
1513228725144124,7,11,-6,7,2,2,2,0
1513228725144124,-14,-12,-17,5,-6,-5,0,0
1513228725158634,-2,14,3,-35,-3,-3,-17,-8
1513228725158634,-3,0,16,23,3,-2,-6,0
1513228725159635,-2,12,-46,-13,-9,-5,2,-3
1513228725159635,-14,-2,-6,-17,-3,-2,-11,7
1513228725181166,2,23,10,20,8,4,29,7
1513228725181166,-17,-4,20,23,7,6,0,-28
1513228725181663,-13,-37,-7,-26,-3,-1,-27,-8
1513228725181663,6,38,-1,6,-1,0,-7,0
1513228725203166,-7,-30,-15,11,-1,-3,-2,4
1513228725203166,15,-23,-3,-12,-2,1,4,3
1513228725211171,-3,9,15,28,5,3,12,12
1513228725211171,7,-16,-5,-17,-3,-2,-9,-23
1513228725218676,2,-41,-15,-8,-3,2,10,-5
1513228725218676,-10,25,-12,4,-2,-1,-4,13
1513228725219177,-5,-28,26,33,4,-1,16,7
1513228725219177,6,-5,-26,-41,-9,-7,-41,-11
1513228725241192,-6,-2,18,6,-2,-1,46,24
1513228725241192,11,7,-16,-11,-4,-6,-37,-25
1513228725241692,-5,-4,-4,-8,-1,0,8,11
1513228725241692,8,1,-9,11,2,-1,-6,-4
1513228725264210,5,-5,13,-1,-1,0,-2,-4
1513228725264210,-7,18,38,-6,-3,-3,16,10
1513228725264709,4,-12,-19,-5,-1,-1,8,2
1513228725264709,-10,-22,-19,-10,2,3,-1,-12
1513228725286912,19,16,16,34,5,-1,-12,-2
1513228725286912,-25,6,-4,-17,-3,0,17,7
1513228725287402,15,-18,17,2,-2,-1,-11,-5
1513228725287402,3,-28,-42,9,-2,-2,0,-10
1513228725300923,-26,-17,-10,-6,4,5,12,12
1513228725300923,24,58,-7,-11,-6,-6,-28,-16
1513228725301922,3,-6,25,3,-1,0,9,5
1513228725301922,-10,34,42,11,0,0,1,15
1513228725324432,-7,-12,-31,14,4,5,2,-7
1513228725324432,2,9,-12,-12,-3,-3,6,9
1513228725324929,-2,12,-15,-16,-2,1,1,-1
1513228725324929,-6,-34,8,11,2,-1,9,-4
1513228725337939,10,-7,38,-10,-2,-1,-9,-6
1513228725337939,-11,-20,-40,24,3,0,13,19
1513228725345962,3,18,-14,-32,-8,-3,-6,-17
1513228725345962,-19,26,31,7,2,3,27,38
1513228725361467,4,-16,-4,-5,-2,-4,21,-28
1513228725361467,1,17,40,28,9,6,23,14
1513228725362456,-14,-59,-46,-13,-7,-10,-39,-42
1513228725362456,9,0,-37,-18,-3,2,-2,2
1513228725384485,-12,-4,-18,-5,-4,-1,3,13
1513228725384485,-5,14,24,5,0,0,13,12
1513228725384974,8,54,35,7,3,-2,-35,-22
1513228725384974,-4,-48,-2,11,-1,1,7,23
1513228725398020,8,21,-18,-16,-4,-4,3,-32
1513228725398020,2,-13,-14,-17,-1,-1,-4,-2
1513228725405988,-10,-4,11,9,1,4,6,12
1513228725405988,-14,-6,21,9,-1,-3,17,-5
1513228725420998,7,47,28,-3,0,-4,-61,-18
1513228725420998,15,-21,7,7,0,1,-1,-2
1513228725422008,-6,-10,-51,-10,-4,-3,4,0
1513228725422008,-2,12,11,6,4,-1,-7,-16
1513228725443513,16,-9,7,2,-3,-1,-5,24
1513228725443513,-3,3,-6,-20,-5,-3,5,-9
1513228725451073,0,4,-7,1,-1,2,0,3
1513228725451073,-6,-11,11,2,0,-1,-7,-8
1513228725458079,5,-4,-17,6,0,0,21,12
1513228725458079,-9,-23,-24,-12,-4,-4,-21,-9
1513228725466084,2,23,31,11,-1,-2,13,9
1513228725466084,-15,-19,-70,-40,-11,-5,-7,-9
1513228725481598,-7,-19,-5,8,3,1,13,-1
1513228725481598,0,-21,-14,10,2,-2,-12,-2
1513228725482096,-16,21,24,14,3,0,-8,3
1513228725482096,20,51,53,-12,-1,1,-8,-19
1513228725504612,-8,-41,-40,-7,-3,0,7,13
1513228725504612,-19,25,0,6,-1,-4,0,4
1513228725505115,13,6,0,1,-1,-1,18,25
1513228725505115,-15,-14,24,14,2,-3,-47,-45
1513228725517623,22,53,5,-6,-3,0,6,12
1513228725517623,-3,-59,-8,-10,3,1,-2,-15
1513228725533642,1,-5,-12,-17,-6,-5,16,13
1513228725533642,-2,-26,-62,-11,-5,-4,1,7
1513228725541137,9,12,17,9,2,1,1,-23
1513228725541137,-10,10,7,15,0,2,11,-8
1513228725541638,-13,-33,-11,-3,0,1,21,17
1513228725541638,-6,-15,-24,-9,-3,-4,-33,-36
1513228725564163,-9,5,22,17,4,-3,-12,-8
1513228725564163,5,9,-11,-25,-7,-1,-9,10
1513228725565155,-2,0,-1,9,4,3,15,-4
1513228725565155,13,12,6,4,-2,0,24,31
1513228725578163,-12,-10,-6,-8,-8,-4,-4,13
1513228725578163,3,-2,-15,-5,-2,-3,-4,-14
1513228725586170,16,11,8,-5,-1,-4,-28,-4
1513228725586170,-23,-20,-8,19,6,-4,-16,-9
1513228725601190,-1,-18,11,-13,-5,-1,-8,5
1513228725601190,9,21,-40,-17,-7,-3,12,7
1513228725601681,-20,-35,-8,1,-3,1,11,-10
1513228725601681,22,23,18,9,5,4,-8,-8
1513228725625200,8,19,12,1,-1,0,-1,3
1513228725625200,-1,-19,17,-11,0,2,10,-3
1513228725625697,10,12,-25,-4,-1,-2,-6,0
1513228725625697,-15,-20,35,3,-5,-4,10,-1
1513228725646836,9,20,15,18,2,1,-2,-6
1513228725646836,-15,3,-33,-17,-3,-2,8,-1
1513228725647813,-1,-47,-4,8,1,0,-10,6
1513228725647813,-3,18,18,-9,-2,0,-2,21
1513228725661824,-4,19,-6,-6,0,-3,5,-12
1513228725661824,1,4,27,19,1,0,0,9
1513228725662324,8,17,16,5,0,-1,-9,-23
1513228725662324,-10,-7,-22,-3,1,5,24,10
1513228725683841,-12,-9,-32,-29,-11,-5,-40,0
1513228725683841,15,54,38,4,-1,-3,-16,-5
1513228725684844,-15,-34,-20,-1,0,-2,7,1
1513228725684844,22,13,0,10,2,3,9,15
1513228725706877,-12,-5,-3,-9,2,2,7,-9
1513228725706877,3,-6,18,13,-1,-2,-4,-3
1513228725707856,0,2,-2,10,1,-2,-1,-2
1513228725707856,4,24,28,-31,-6,-4,-38,-18
1513228725721368,-18,-40,-65,-8,-2,-1,26,30
1513228725721368,-8,-13,-6,-5,-4,-5,-35,-31
1513228725721867,13,21,13,11,1,1,-3,1
1513228725721867,4,0,-13,4,0,-1,11,1
1513228725744381,5,11,17,2,1,1,15,6
1513228725744381,2,10,12,10,0,1,5,10
1513228725744882,-8,-4,-58,-27,-8,-10,4,-3
1513228725744882,0,-19,-14,7,-2,-8,8,0
1513228725767420,6,-8,6,5,4,16,-3,-6
1513228725767420,5,0,25,13,1,2,11,15
1513228725768399,-8,-8,-15,-13,-2,6,27,0
1513228725768399,-3,21,-7,-6,-2,-9,-43,-8
1513228725781432,6,-4,23,7,1,-7,-5,2
1513228725781432,-7,-27,-14,-1,-1,0,0,-3
1513228725782409,4,25,32,4,-1,-1,-13,-7
1513228725782409,-6,4,-5,-7,-1,0,15,7
1513228725811941,-12,11,36,22,1,-5,-3,-11
1513228725811941,-13,-18,-39,-39,-6,-4,-14,-1
1513228725812430,2,10,14,-4,-1,-4,1,-2
1513228725812430,19,-5,0,3,-1,2,24,-1
1513228725834140,-7,-4,7,8,1,-4,-26,-9
1513228725834140,4,-12,-25,-7,-4,-2,10,3
1513228725836141,-4,6,5,2,1,1,7,4
1513228725836141,3,-9,7,-5,-3,1,0,0
1513228725849166,3,11,-3,1,-1,-2,6,2
1513228725849166,0,5,8,23,6,0,-15,-1
1513228725850153,3,-3,-32,-26,-4,1,-10,-7
1513228725850153,-4,3,14,12,0,4,6,5
1513228725864171,2,-1,-3,-10,-6,-8,-10,-12
1513228725864171,-7,-22,-29,-7,-2,-3,-3,-5
1513228725865172,5,17,29,11,3,1,-8,3
1513228725865172,-5,-1,-15,9,1,0,9,3
1513228725886676,-1,-12,-11,-18,-4,-1,-6,-1
1513228725886676,1,16,15,13,2,0,3,0
1513228725887677,1,10,-1,-5,-5,-5,-13,-5
1513228725887677,-9,-25,-16,3,-1,-3,1,-5
1513228725901189,1,7,10,-15,-4,-3,5,7
1513228725901189,-8,-2,-11,15,2,0,6,-2
1513228725901688,-2,3,6,-2,0,1,6,2
1513228725901688,-1,-6,-9,-9,-4,-3,-41,-14
1513228725924203,4,4,11,6,1,-3,7,-2
1513228725924203,-3,-2,10,2,-1,-2,0,11
1513228725925203,-13,-9,8,1,-1,-1,2,-4
1513228725925203,-6,-2,-9,-1,-1,0,10,4
1513228725946778,0,3,2,-4,-2,-3,-8,-2
1513228725946778,-10,-9,-7,-8,-2,-1,-4,-8
1513228725947780,4,2,23,7,2,3,4,10
1513228725947780,1,7,15,3,0,0,17,1
1513228725969279,-4,-9,-13,-3,-1,0,-6,1
1513228725969279,-2,-9,-24,0,-1,-1,5,2
1513228725970290,-1,-5,-10,-8,-4,-1,-13,-8
1513228725970290,-7,-4,9,-1,-1,0,2,2
1513228725984290,2,5,-6,-7,-1,-2,4,1
1513228725984290,4,5,24,1,3,-1,2,-3
1513228725985290,10,10,12,10,2,0,-4,-6
1513228725985290,-14,-9,-25,-12,-2,2,9,9
1513228726005809,4,-10,-8,-2,-3,-7,-19,-7
1513228726005809,11,10,19,9,1,-7,-5,4
1513228726013821,-10,-9,-15,-6,-7,-10,-19,-12
1513228726013821,10,7,12,-1,0,4,27,6
1513228726021316,-3,-9,-43,-6,-5,-1,6,-2
1513228726021316,1,-1,-6,-4,-2,3,-6,-4
1513228726021816,-2,-1,-4,-1,1,1,-2,6
1513228726021816,1,2,6,4,0,-5,-9,-4
1513228726044382,-14,-3,15,1,0,-3,-6,-3
1513228726044382,-4,-4,-22,-5,0,2,-5,-7
1513228726045342,5,4,14,7,2,0,4,7
1513228726045342,2,-5,-11,-1,-2,-4,-8,-8
1513228726065875,-6,-12,-7,-4,1,2,6,10
1513228726065875,0,-1,6,0,-1,4,7,-8
1513228726082385,-11,0,11,-3,-1,1,13,-1
1513228726082385,1,0,-2,4,2,-3,-9,-4
1513228726083869,1,11,-3,0,-1,0,2,-2
1513228726083869,5,3,29,0,-5,-4,-5,8
1513228726084880,-8,-18,-50,-14,-3,-3,0,-6
1513228726084880,2,8,21,5,-2,0,-1,-6
1513228726119393,4,-2,-18,-2,0,1,4,10
1513228726119393,3,1,-2,-3,0,-2,4,2
1513228726127901,2,4,16,6,3,1,-2,-1
1513228726127901,1,3,1,0,-3,-1,0,2
1513228726130400,-1,-7,-4,-6,-4,0,-3,-5
1513228726130400,-4,-8,-6,3,0,-2,1,-1
1513228726131401,2,0,3,-21,-4,-2,-6,-3
1513228726131401,3,-1,-7,1,2,-1,-5,-2
1513228726140908,-11,7,26,5,0,1,5,-3
1513228726140908,-2,-6,-11,4,1,1,-1,0
1513228726141909,-3,3,10,3,-1,-1,-4,2
1513228726141909,3,-5,-11,-4,0,2,2,5
1513228726164426,4,-2,-1,1,-1,-6,0,1
1513228726164426,-9,-7,-10,-8,-3,-2,-4,-3
1513228726164925,-2,2,2,6,1,0,-4,-7
1513228726164925,0,3,7,-2,-2,-2,9,6
1513228726186941,5,-2,-2,2,-1,-1,-7,-7
1513228726186941,-5,6,11,-2,-1,0,5,3
1513228726187441,6,-2,-8,0,-1,0,-9,-3
1513228726187441,-10,-8,1,-8,-3,-4,4,-5
1513228726216464,2,-2,-15,3,2,0,2,0
1513228726216464,-2,1,8,-2,-1,-3,2,-6
1513228726217463,-1,-1,2,-2,-2,-1,7,8
1513228726217463,-5,5,-5,6,2,0,-7,-6
1513228726224017,6,4,4,1,2,3,0,3
1513228726224017,1,-5,-7,-4,-4,-4,-4,10
1513228726225024,0,3,4,0,-2,-2,-6,-11
1513228726225024,-1,1,-3,-5,-1,-2,-6,0
1513228726254038,-5,-4,-4,-2,-2,-2,-4,-4
1513228726254038,3,1,3,-3,-2,-4,-2,0
1513228726255030,0,-2,-1,2,2,1,-1,1
1513228726255030,-1,-1,-5,-1,-3,-3,-4,-4
1513228726260534,-3,-4,4,0,-1,-1,1,0
1513228726260534,3,0,-6,-3,-3,-1,-5,-2
1513228726268551,-4,-2,1,3,1,1,0,-2
1513228726268551,6,-1,1,-3,-1,-3,-2,0
1513228726284550,2,-4,0,0,-3,-3,-3,1
1513228726284550,3,-4,-4,-2,-2,-2,-4,-5
1513228726285551,-3,0,-2,0,-1,-2,0,-3
1513228726285551,-6,-1,0,1,-1,2,8,10
1513228726306065,-2,7,7,3,-2,-2,-2,-2
1513228726306065,-5,-7,-7,-6,-1,1,0,-5
1513228726313574,3,1,4,1,-3,-1,0,3
1513228726313574,-3,-4,-3,-2,0,-1,-3,-4
1513228726320075,2,1,5,1,1,1,-3,-5
1513228726320075,-4,2,5,2,-1,-1,0,2
1513228726328603,-1,-3,-8,-1,0,0,-4,-3
1513228726328603,-2,-2,-3,-2,-2,-2,-2,-1
1513228726344110,4,-2,0,-1,-3,-2,-1,2
1513228726344110,5,2,1,-2,-2,0,-3,0
1513228726345130,-3,-5,-6,-2,-1,-2,1,0
1513228726345130,2,2,0,-3,-1,1,0,0
1513228726366620,-7,-4,-3,-1,-1,-1,10,0
1513228726366620,-2,1,0,1,0,-2,-10,-8
1513228726367613,4,-2,0,-1,-5,-1,4,5
1513228726367613,0,1,-4,-1,-2,-1,-3,-3
1513228726380637,2,-2,-2,-4,-1,1,1,-3
1513228726380637,-4,-1,1,-1,0,-1,0,0
1513228726388635,-3,-3,0,-2,0,-3,-4,-4
1513228726388635,0,-3,-3,0,-1,-3,-1,-2
1513228726411657,-1,1,-1,-3,-1,-1,-3,1
1513228726411657,0,-1,1,0,0,0,3,-3
1513228726412654,1,-2,-2,-2,0,0,-4,-1
1513228726412654,-1,-1,0,-1,-1,2,2,1
1513228726428172,-1,-1,0,-1,0,-1,-5,-4
1513228726428172,2,-1,-1,-1,0,2,-1,-1
1513228726429174,-4,-2,-1,-2,-3,-3,0,-4
1513228726429174,0,-3,-2,-1,0,-4,-3,-1
1513228726449190,-5,-1,0,0,0,-2,-4,-2
1513228726449190,-1,0,2,-1,1,-2,2,-2
1513228726450167,-2,-2,-1,-1,-3,-4,-4,0
1513228726450167,-2,-1,-1,0,-1,0,-2,-2
1513228726464201,-6,-1,0,-1,-1,-1,-1,2
1513228726464201,-4,1,-3,-1,-1,0,1,-1
1513228726465201,0,0,1,0,0,0,-1,-2
1513228726465201,1,-3,-1,0,0,-1,0,-2
1513228726486693,-1,-2,0,-1,-1,-2,-1,-1
1513228726486693,0,-2,-3,0,0,-1,1,0
1513228726487694,2,3,5,0,-1,0,0,1
1513228726487694,-11,-1,2,0,-2,0,0,-5
1513228726500224,-5,0,-1,0,-1,0,-1,-5
1513228726500224,2,-1,1,0,-1,0,0,1
1513228726508711,-1,-3,-2,-1,-1,-1,-1,0
1513228726508711,0,-3,-4,-5,-1,-1,-2,0
1513228726524359,-4,-3,-1,-1,-2,-1,-2,-1
1513228726524359,-1,1,2,0,0,0,-1,-1
1513228726524846,-3,-4,-2,0,-3,-4,-2,-3
1513228726524846,0,1,0,0,-2,-3,-3,-3
1513228726547385,1,1,-1,-2,0,0,1,0
1513228726547385,-2,1,-4,-5,-2,0,0,0
1513228726547862,-4,-1,-3,-2,1,0,0,-1
1513228726547862,0,-1,-2,-2,-1,0,0,1
1513228726560372,-2,-3,-1,0,-1,-1,0,-2
1513228726560372,-3,-2,-1,-3,-1,1,1,-1
1513228726568388,-4,-3,-1,-2,-2,0,-4,-8
1513228726568388,3,1,3,-1,0,-1,3,5
1513228726582889,-2,1,2,2,0,1,-2,-2
1513228726582889,-1,-3,-1,-1,-3,-3,-1,-1
1513228726591893,-1,0,-1,-1,1,-2,1,-3
1513228726591893,3,-1,-2,-1,-1,0,-2,-2
1513228726606903,0,0,0,-2,-1,0,-5,0
1513228726606903,-1,3,-3,-2,-3,-2,-1,0
1513228726608406,8,3,-1,0,-1,-1,6,8
1513228726608406,-3,-5,-2,-1,-2,-4,2,-1
1513228726629429,-1,3,1,2,-1,-3,-6,-3
1513228726629429,1,-5,-6,-3,1,2,0,4
1513228726631936,-4,-1,2,0,-1,0,2,-2
1513228726631936,-1,-1,-2,-2,0,1,-1,-1
1513228726642941,1,0,1,-1,-1,-2,3,-2
1513228726642941,-3,-2,-3,-2,-3,-3,-8,-1
1513228726651945,2,-3,-3,-1,0,1,-1,0
1513228726651945,1,-1,-2,0,-3,-3,-5,-2
1513228726666955,-5,-2,-4,0,0,1,9,2
1513228726666955,1,4,1,-2,-2,-4,-2,-3
1513228726668458,-1,1,1,-1,-2,-1,-5,-2
1513228726668458,-1,0,-1,-2,-2,-2,-2,-3
1513228726688961,1,0,-2,-3,-3,-2,-2,1
1513228726688961,-2,-3,-1,1,1,-1,0,0
1513228726690963,-1,-1,-4,-2,-2,0,10,3
1513228726690963,0,-2,0,0,1,-6,-31,-13
1513228726702981,2,0,-3,-1,-2,0,-1,-1
1513228726702981,0,0,2,2,-1,-3,-3,-3
1513228726712002,-2,0,-2,-3,-3,-2,-3,-1
1513228726712002,-2,-4,-4,0,-1,1,6,2
1513228726726521,2,-3,-4,-1,-1,-3,-4,-1
1513228726726521,-3,0,2,4,2,3,14,6
1513228726728523,-3,0,1,-1,-2,-1,-22,-8
1513228726728523,0,-1,-1,0,-1,1,7,1
1513228726749087,2,-2,-1,-1,-3,-2,-8,-3
1513228726749087,-1,-2,-1,0,-1,1,3,-2
1513228726772567,3,-3,-7,-4,-1,-2,8,2
1513228726772567,-1,-1,1,0,0,-1,2,1
1513228726773056,-2,-3,-4,-3,-1,0,-3,-2
1513228726773056,-3,0,-1,-4,-2,-2,-2,-4
1513228726775056,-1,-2,-2,-1,0,-1,1,-1
1513228726775056,-1,1,0,-2,-1,0,-4,-2
1513228726786615,-1,0,0,-1,-2,-1,5,1
1513228726786615,1,-1,-2,-1,-3,-3,-3,-2
1513228726788604,-2,-1,-2,-1,1,-1,-4,-4
1513228726788604,-2,-2,-2,-2,-1,-1,4,0
1513228726809131,-6,-1,2,-1,-1,-1,-1,-2
1513228726809131,-1,3,-1,-3,-3,-3,-8,-5
1513228726810622,0,-1,-3,0,-2,-3,-3,1
1513228726810622,-2,-1,1,0,1,0,3,-3
1513228726823641,2,-2,-2,-1,0,1,0,4
1513228726823641,-3,-5,-4,0,-2,0,2,0
1513228726830657,0,1,-1,-2,-1,0,-4,-1
1513228726830657,-1,1,-2,-2,-2,0,1,-4
1513228726846657,4,-1,-2,-3,-2,-1,-4,3
1513228726846657,2,-6,-4,-1,-2,-2,-4,-2
1513228726848147,-4,0,1,2,1,1,0,-1
1513228726848147,-1,1,2,-1,-2,1,15,6
1513228726869171,-1,0,-3,-1,-1,-3,-17,-9
1513228726869171,0,1,1,0,-1,0,8,4
1513228726871162,0,-2,-3,-4,-1,0,1,-2
1513228726871162,-1,0,-1,0,-2,-2,-7,-3
1513228726883688,4,-5,-2,-1,-2,-1,5,0
1513228726883688,2,2,-1,-3,-1,-2,-3,-1
1513228726890279,-3,-1,-1,0,-2,-2,-7,-4
1513228726890279,-2,-2,-3,-1,-1,1,9,3
1513228726907291,-3,0,0,-2,-3,-3,4,1
1513228726907291,-3,-2,-1,0,1,0,-7,-4
1513228726908793,-2,-1,1,0,-1,-2,1,1
1513228726908793,5,1,-1,-2,-2,-3,-3,4
1513228726929322,-3,-2,-3,-1,0,-1,-2,-2
1513228726929322,-3,-1,-1,-1,-1,0,-2,-3
1513228726931824,-2,1,1,-1,1,1,1,0
1513228726931824,-3,-3,0,-2,-4,0,-9,-7
1513228726943817,-2,-1,0,-4,0,-2,1,3
1513228726943817,-2,3,5,1,0,-2,1,0
1513228726957827,2,-2,-2,0,-1,-1,0,-1
1513228726957827,-5,1,0,0,1,-1,-5,-3
1513228726966848,-4,-1,0,-1,-2,0,2,-1
1513228726966848,1,-3,-3,-1,-2,-3,-2,-1
1513228726968336,-4,1,3,2,0,0,-1,-2
1513228726968336,1,0,-2,-2,-2,-2,-6,-2
1513228726989351,-4,-1,-2,1,-1,1,3,-1
1513228726989351,3,-3,-2,-1,-1,-3,-4,5
1513228726990852,1,-3,-4,-2,-2,-1,-2,-3
1513228726990852,-3,-2,-3,0,-2,-3,1,0
1513228727003378,0,0,-1,0,1,0,0,0
1513228727003378,-4,-3,-2,-1,0,-2,-3,-7
1513228727010377,2,-1,0,-3,0,-1,1,3
1513228727010377,-1,-1,-3,-2,-1,-1,-3,0
1513228727026876,-3,-4,-1,-1,1,1,18,5
1513228727026876,0,3,3,0,1,-2,-34,-9
1513228727028389,-2,1,-2,-1,-2,-3,-1,-3
1513228727028389,1,-3,-2,0,-1,1,-2,-2
1513228727049392,-1,-2,-2,-2,-2,0,-5,-7
1513228727049392,-2,0,-1,-1,-2,1,19,10
1513228727050893,0,-1,-1,-1,0,-1,-1,0
1513228727050893,-6,-4,4,1,1,2,9,2
1513228727063401,2,-1,-1,-5,-3,-3,-9,-2
1513228727063401,-1,-2,-7,-4,-1,-2,4,-4
1513228727070408,0,-3,-3,0,-1,-1,-4,2
1513228727070408,-3,-1,-2,-2,-2,-1,6,2
1513228727086920,-2,2,-1,0,0,-1,-3,-2
1513228727086920,-3,-2,-2,-2,-2,0,-3,-6
1513228727088440,-2,0,1,0,-1,-2,14,5
1513228727088440,0,-2,-1,0,0,0,-14,-7
1513228727109435,2,-1,1,0,0,1,2,7
1513228727109435,-1,-1,-1,-3,-3,-2,-12,-2
1513228727110936,-2,-2,-1,0,1,1,12,-1
1513228727110936,-1,-3,0,-3,-1,-1,-2,1
1513228727122959,-3,-2,-2,-2,-1,-3,-5,-5
1513228727122959,3,-1,-1,-1,-1,2,13,1
1513228727131951,1,2,3,-1,-3,0,-12,-4
1513228727131951,0,-1,-1,-3,-2,-3,5,2
1513228727146962,0,-2,0,1,0,-1,0,-1
1513228727146962,-1,-3,-2,-1,-2,-2,2,0
1513228727148462,0,-3,-4,-4,-3,-3,-7,-4
1513228727148462,1,1,-2,-2,-2,-2,-4,3
1513228727168978,-8,3,3,-1,1,0,1,-3
1513228727168978,0,-1,-1,0,-1,-2,14,2
1513228727170978,-1,0,-1,0,0,-3,-28,-10
1513228727170978,-1,-3,-1,1,-1,2,14,0
1513228727182987,3,0,0,-2,-2,-4,-22,1
1513228727182987,-2,-2,-2,0,0,0,7,3
1513228727192003,-6,-3,-3,-1,0,-2,-8,-3
1513228727192003,-1,1,-4,-1,-1,-2,0,1
1513228727206513,-3,-1,3,4,0,3,17,2
1513228727206513,10,0,-5,-3,-2,-5,-44,-11
1513228727208504,2,0,-2,-2,1,0,-3,4
1513228727208504,-1,-1,0,-3,1,-2,0,-5
1513228727229042,-3,-3,-5,-2,-1,1,1,-1
1513228727229042,-3,0,3,0,-2,0,6,0
1513228727232020,0,0,0,0,-2,1,6,1
1513228727232020,0,-2,0,-1,-2,-3,-6,-2
1513228727243028,0,-2,-1,-2,0,-1,0,-1
1513228727243028,-3,-4,-2,-2,-1,1,3,1
1513228727252036,-4,-3,-2,-3,-1,-1,1,-1
1513228727252036,0,1,0,-2,1,2,-1,-1
1513228727266559,-2,-6,-3,0,-3,-3,-7,-5
1513228727266559,-2,2,0,0,-2,-1,5,5
1513228727268547,-4,-3,-1,1,0,0,8,0
1513228727268547,-1,-4,-4,-3,-1,-2,1,0
1513228727289061,-13,1,3,1,0,1,13,-4
1513228727289061,-6,-2,0,0,-2,-1,2,-1
1513228727291063,4,-1,-2,0,-2,-1,-8,-3
1513228727291063,-3,-2,1,2,1,0,2,0
1513228727303571,2,0,-1,-2,-2,-2,2,2
1513228727303571,-3,0,-1,0,2,0,-3,-4
1513228727312077,-3,0,-1,-2,-2,2,9,1
1513228727312077,-1,-1,-1,0,-2,-3,-10,-3
1513228727326601,4,-1,-4,-2,-2,-2,-2,1
1513228727326601,-3,0,2,-1,1,-1,-2,-5
1513228727328089,1,-2,-3,0,0,1,3,3
1513228727328089,-2,-2,-1,-1,0,0,7,0
1513228727356621,0,1,-1,-2,-1,-4,-33,-3
1513228727356621,-2,-5,-4,-2,-3,-2,13,2
1513228727358110,-3,-4,-2,0,1,2,-3,-6
1513228727358110,-1,3,0,0,-1,-3,-10,2
1513228727362628,-4,0,0,2,2,2,5,0
1513228727362628,0,-1,-3,-1,-1,0,-5,0
1513228727378127,-2,-2,0,-1,0,-2,3,0
1513228727378127,1,0,0,-2,-4,0,-6,-7
1513228727386630,3,0,-2,0,-2,-1,3,6
1513228727386630,1,-3,0,-2,-2,0,-2,1
1513228727388131,-5,-1,3,-1,0,-2,1,-1
1513228727388131,-1,1,-2,-1,-1,0,-6,-9
1513228727409159,2,-2,-3,-3,-3,-3,2,6
1513228727409159,-6,-2,0,0,-1,-1,3,-1
1513228727410650,2,-2,-2,-2,-3,-3,0,1
1513228727410650,1,0,3,0,0,0,10,2
1513228727422657,-2,-3,-1,-3,-2,-3,-27,-10
1513228727422657,0,1,-2,-1,0,-2,0,-2
1513228727432663,0,0,-2,-1,-2,-2,-4,-2
1513228727432663,0,1,4,1,1,1,2,3
1513228727446697,2,0,-3,-2,-2,-1,5,-1
1513228727446697,1,-2,0,-3,-3,-4,-1,-1
1513228727448181,8,1,-5,-3,-2,-2,-9,-3
1513228727448181,0,-1,-4,0,-2,-2,1,7
1513228727469199,0,-2,0,0,0,1,5,-5
1513228727469199,0,-1,-1,-1,-1,-1,-2,2
1513228727470692,-3,-1,-4,-1,0,0,-1,-4
1513228727470692,-3,-3,-1,-2,-1,-2,8,3
1513228727483105,-4,-1,2,-2,-1,-1,3,2
1513228727483105,3,-2,0,0,0,1,0,-1
1513228727499649,-2,-1,1,-4,-2,-1,1,0
1513228727499649,-1,-4,-2,0,1,0,-3,-3
1513228727506631,-1,-3,-4,1,-1,-2,3,-3
1513228727506631,-4,0,-1,-1,1,0,5,0
1513228727508123,-4,0,-1,-1,0,-1,2,1
1513228727508123,-1,0,-3,-2,-3,-2,-15,-8
1513228727529162,2,-1,0,0,-2,0,14,5
1513228727529162,-5,-4,-2,1,1,-2,-5,-6
1513228727531639,2,-3,-1,-1,-3,-2,-1,0
1513228727531639,-4,-3,0,-2,0,-3,-2,-3
1513228727551656,2,-1,-1,-3,-3,-3,-8,-5
1513228727551656,-2,-2,-2,-2,0,1,-4,-5
1513228727553158,2,-2,-1,0,-4,-2,18,11
1513228727553158,2,-5,-1,0,0,-2,-9,-3
1513228727566677,-6,0,1,-1,1,-1,0,-2
1513228727566677,2,3,-3,-2,-2,0,-2,-1
1513228727568166,-4,-1,-1,1,-2,-3,-3,-2
1513228727568166,0,-2,-4,-2,-2,0,0,-3
1513228727589193,3,-1,-6,-3,-1,-2,0,5
1513228727589193,-1,3,0,-2,-1,-3,-6,-1
1513228727590682,-4,0,1,0,1,0,8,-5
1513228727590682,-2,1,-1,0,-1,-2,-30,-3
1513228727611696,0,-1,-2,-1,-1,-1,4,-1
1513228727611696,-1,-2,-1,-1,-1,-1,-1,-2
1513228727617701,-1,-2,-3,-2,-3,0,7,5
1513228727617701,0,0,-1,-1,0,1,12,-2
1513228727626710,0,0,1,-2,-2,1,-17,4
1513228727626710,-2,-2,1,0,-1,-1,7,-1
1513228727628213,0,-2,-2,-2,-1,-4,-25,-6
1513228727628213,-9,-2,1,3,0,1,0,-3
1513228727649240,1,-5,-3,-1,-2,-3,-6,-6
1513228727649240,1,1,4,1,-1,-1,8,4
1513228727650723,-2,2,-1,-2,-1,-1,-3,-2
1513228727650723,3,3,-4,-4,-4,-4,6,2
1513228727671748,0,-2,-3,-1,-1,0,3,-2
1513228727671748,-2,-5,-4,-1,-1,-2,7,3
1513228727673239,-1,-2,0,1,-1,-1,-26,-7
1513228727673239,-1,2,2,-1,0,0,1,3
1513228727686308,-2,0,-1,0,0,-2,3,-4
1513228727686308,-1,-1,-1,-2,-2,-2,-4,-1
1513228727700343,-4,0,0,0,-1,-2,2,-4
1513228727700343,1,-1,-1,-2,-1,0,3,2
1513228727709825,-1,-2,-2,-2,-1,-1,-7,-5
1513228727709825,-9,2,3,-1,1,1,-3,-4
1513228727711336,3,-1,-2,-1,0,0,9,3
1513228727711336,0,-1,-2,-2,-2,-1,-12,-6
1513228727731843,0,0,-2,-3,1,2,8,3
1513228727731843,-3,-4,-2,-1,-3,-2,-10,-3
1513228727733342,-1,-2,-1,0,-1,-2,3,-1
1513228727733342,-3,-3,-1,-2,0,1,6,2
1513228727746373,1,0,0,0,-1,-2,-8,-7
1513228727746373,1,0,-3,-2,-1,-1,-2,-2
1513228727752878,-1,-1,1,-1,-1,0,-1,-2
1513228727752878,0,-3,-2,-1,-1,-1,-2,-1
1513228727776888,-3,0,0,0,1,1,1,-4
1513228727776888,-1,-3,-5,-2,-3,-4,-7,6
1513228727778395,-2,-1,-1,-1,-3,-2,0,0
1513228727778395,0,-1,-3,-1,-1,-3,3,0
1513228727791883,-4,-2,-1,0,-2,0,0,-1
1513228727791883,0,-1,-2,-1,0,2,-3,-6
1513228727793384,2,0,1,-2,-1,-3,1,5
1513228727793384,2,-2,-2,-2,-2,-2,-3,-2
1513228727805892,-2,-1,-3,-1,-1,-1,0,1
1513228727805892,-5,-1,0,-1,0,-1,-4,-6
1513228727812922,-2,0,-2,-2,1,0,3,0
1513228727812922,0,-1,-2,0,0,-1,1,-2
1513228727830410,1,-5,-1,-1,-2,-2,3,2
1513228727830410,2,-1,-1,-2,-2,-2,3,1
1513228727832414,-2,-3,-2,-3,0,0,6,-1
1513228727832414,-5,-6,-2,0,-3,-4,-14,-6
1513228727851926,-1,3,-1,-2,-1,0,-2,-6
1513228727851926,2,0,-4,-2,-1,1,2,9
1513228727853427,-4,-3,-2,-1,0,-2,3,-2
1513228727853427,-3,1,0,-1,-1,-2,2,-1
1513228727865935,0,1,0,0,-1,-1,1,1
1513228727865935,1,-1,0,1,-1,-2,-4,-5
1513228727872941,-3,0,1,-1,0,-1,-6,-1
1513228727872941,0,-1,-1,-1,0,1,2,3
1513228727889451,0,0,0,-2,-3,-1,-9,-2
1513228727889451,0,-1,-1,-1,-1,0,9,5
1513228727890953,6,-3,-4,-1,-3,-2,-3,-1
1513228727890953,-1,3,3,1,0,0,1,-3
1513228727912483,4,1,-1,0,1,1,16,5
1513228727912483,0,-2,-1,-1,-1,-3,3,-2
1513228727913977,1,2,3,-1,0,1,-5,-1
1513228727913977,0,-1,-2,-1,0,-2,5,3
1513228727925999,-4,-1,-2,0,0,1,-4,-3
1513228727925999,-2,-1,2,0,-1,0,5,-1
1513228727933000,-5,-3,-1,-2,-2,-1,-3,-3
1513228727933000,-1,-2,-1,-2,-2,0,-2,3
1513228727949009,-3,-2,-1,1,-1,-2,-2,2
1513228727949009,-2,-2,-2,-2,-2,-1,-11,-4
1513228727950995,1,-1,-2,0,-2,1,3,0
1513228727950995,-1,-2,0,2,0,1,-2,-1
1513228727971512,1,-2,-2,-4,-3,-4,-3,-2
1513228727971512,-2,2,0,0,-1,0,2,1
1513228727973532,2,-1,-2,-1,-1,-2,-7,-3
1513228727973532,-3,-3,-4,-1,-1,-1,4,-1
1513228727986022,0,0,-1,0,1,-1,0,1
1513228727986022,-2,0,-1,-2,0,1,-4,-7
1513228727993025,5,5,1,-1,1,0,4,5
1513228727993025,0,1,-1,-1,1,0,9,-2
1513228728009126,-5,-4,-3,-2,-3,-4,-4,4
1513228728009126,-2,-3,-4,-3,0,-1,-4,-4
1513228728010623,-6,-2,1,-1,-1,-2,-2,-2
1513228728010623,0,1,-1,0,0,0,2,0
1513228728031663,0,-4,-2,-1,0,-1,-3,-2
1513228728031663,-1,-1,-1,0,-1,-1,-8,-8
1513228728033142,-1,-1,-2,-1,-1,0,10,7
1513228728033142,-3,-1,0,-2,-3,-1,-1,-3
1513228728054166,-2,0,0,-1,-1,-4,-19,-4
1513228728054166,2,-1,-1,-2,0,-2,-7,-1
1513228728055655,-5,-3,-1,0,1,0,-7,-5
1513228728055655,-1,-2,-2,-1,-2,-3,13,2
1513228728069665,-2,2,1,0,-2,-4,-29,-10
1513228728069665,1,0,-4,0,-1,0,7,5
1513228728071167,0,0,-3,0,-2,-1,-4,-3
1513228728071167,-2,5,4,-2,0,0,3,0
1513228728091681,0,-4,-2,-1,-1,1,12,2
1513228728091681,-4,-1,0,-1,-4,-3,1,-4
1513228728093182,2,-2,-2,-2,-1,-1,1,-1
1513228728093182,0,-3,-2,-2,-2,-2,-12,-2
1513228728105189,0,-1,-3,0,-1,2,6,-3
1513228728105189,2,2,-2,-3,-2,-2,-4,1
1513228728121704,-1,1,0,2,0,0,19,4
1513228728121704,-2,-1,-1,-4,-1,-3,-33,-8
1513228728129379,-3,-1,-1,-2,0,-1,4,0
1513228728129379,0,-6,-2,0,0,0,-2,-5
1513228728131887,-3,-3,-1,-3,-3,-2,6,3
1513228728131887,2,-2,-3,0,-1,-1,-2,0
1513228728151884,-3,-1,-1,-3,-2,-1,5,-1
1513228728151884,0,-1,-3,-1,0,0,-3,0
1513228728153384,2,-7,-11,-5,-5,-5,-15,-7
1513228728153384,-1,-4,-4,-1,-1,0,10,6
1513228728165416,2,0,0,0,-3,-3,0,1
1513228728165416,-2,-2,0,0,0,1,3,2
1513228728174399,0,0,1,0,0,0,-7,-4
1513228728174399,-2,-2,-2,-2,-1,-1,6,3
1513228728189409,-2,-2,-1,0,1,-3,-9,-4
1513228728189409,0,-1,0,-2,0,-2,-4,0
1513228728190922,-3,-1,-1,-1,-2,-1,-8,-5
1513228728190922,0,-2,-1,0,0,-3,6,6
1513228728211937,-1,0,-1,-2,0,0,8,1
1513228728211937,-3,0,-1,2,-1,0,-5,-2
1513228728213448,-2,1,-1,-2,-2,-1,-1,-6
1513228728213448,-1,1,-2,0,-1,-2,-5,-7
1513228728225489,3,-1,-3,-3,0,2,19,10
1513228728225489,-2,0,1,0,-2,-2,2,1
1513228728234503,-1,1,0,0,1,0,-3,-3
1513228728234503,1,-9,-8,-3,-5,-4,-3,-3
1513228728249026,-9,-4,3,3,2,2,-3,-3
1513228728249026,-1,2,-5,-3,-4,-2,-6,-3
1513228728251017,-1,1,1,0,-1,-1,-4,-1
1513228728251017,2,0,1,-1,-2,0,1,3
1513228728272036,0,-1,-1,-2,-2,-2,-5,0
1513228728272036,-3,-2,0,0,0,0,0,0
1513228728273535,-3,-2,-1,-1,-2,-1,4,-6
1513228728273535,-1,1,0,-1,-2,-1,11,4
1513228728285529,0,0,0,-1,-2,0,-25,-8
1513228728285529,-1,-2,0,-2,1,-2,3,3
1513228728294535,4,-1,-1,0,0,-2,-2,3
1513228728294535,-3,-1,0,-1,1,-1,-4,-5
1513228728309061,3,0,-2,-1,-2,-4,1,-1
1513228728309061,-3,-1,-1,-1,-2,0,5,-2
1513228728311047,-4,-1,0,-1,-2,-2,-4,0
1513228728311047,-1,1,0,-1,0,0,-1,-2
1513228728331584,-2,-4,-1,0,-1,0,5,-3
1513228728331584,6,-7,-7,-1,-2,-1,-3,-1
1513228728333063,-5,0,2,-2,-1,1,7,2
1513228728333063,-2,-2,0,-1,-1,-2,-14,-7
1513228728354078,0,4,-3,-4,-2,-2,-4,-2
1513228728354078,3,4,-1,-1,-1,-1,0,-4
1513228728356079,0,-1,-2,-1,0,1,-3,2
1513228728356079,-1,-1,-2,0,0,1,-1,0
1513228728369090,-4,-2,-2,-1,1,-1,9,0
1513228728369090,-4,-3,0,-1,-1,-1,-14,-4
1513228728370589,-4,-1,-2,-1,-1,-1,5,-2
1513228728370589,-2,-1,1,1,0,1,-2,-4
1513228728391604,0,-3,-2,1,-1,-1,3,0
1513228728391604,-3,1,1,-2,1,1,9,1
1513228728393105,-1,-2,-2,-2,-2,-2,-6,-3
1513228728393105,-1,0,-1,1,0,1,0,0
1513228728414137,3,4,0,2,0,2,0,4
1513228728414137,2,-1,-1,0,-1,-1,6,3
1513228728415621,-1,-1,-2,1,1,0,-10,-2
1513228728415621,-1,1,-1,-2,-2,-2,-2,-2
1513228728429133,0,-4,-1,-3,-2,-3,-3,-3
1513228728429133,-1,-1,0,0,-1,-1,0,3
1513228728431633,2,-3,-2,0,0,-2,-2,-3
1513228728431633,1,1,2,0,-1,0,0,1
1513228728452672,-6,-2,-1,-1,-1,-3,-3,-3
1513228728452672,-1,-3,-3,-2,-2,-1,-2,0
1513228728453653,-6,-1,0,-4,-2,-1,3,-3
1513228728453653,-1,-1,-1,0,0,0,-3,-2
1513228728474163,-1,-2,-2,0,-2,2,14,3
1513228728474163,-3,0,-1,0,-1,-3,-18,-3
1513228728476164,-1,-2,-1,-1,-3,-1,1,3
1513228728476164,-2,-1,0,-1,-1,-1,-6,-6
1513228728489174,3,-1,-2,0,-1,-2,5,3
1513228728489174,-6,-4,1,-1,0,0,1,-4
1513228728490692,-1,0,1,-1,-1,-1,4,0
1513228728490692,-2,-3,-3,0,-1,-1,-3,2
1513228728511690,3,2,-3,-4,-2,0,-1,-4
1513228728511690,-2,-1,-2,-1,-3,0,0,-3
1513228728513191,2,-2,-3,-1,1,-4,-6,1
1513228728513191,-2,1,1,-1,-2,-2,1,-3
1513228728533273,-2,-4,-1,-1,0,-1,-3,-3
1513228728533273,-2,2,0,-1,1,0,-5,-2
1513228728542211,0,-2,-1,-3,-3,-2,-3,-2
1513228728542211,8,-2,-5,-3,-4,-2,-2,2
1513228728549227,-8,-1,1,2,1,-1,-5,-3
1513228728549227,0,-1,-1,-1,-3,0,2,-2
1513228728550729,-2,-3,-1,-2,-1,0,0,-2
1513228728550729,0,0,-1,-1,2,-1,-1,1
1513228728571741,-1,1,0,-1,-4,0,-3,0
1513228728571741,-4,-2,1,-2,-1,-1,6,1
1513228728573242,-1,1,-2,0,-1,-2,1,2
1513228728573242,-2,-1,1,-2,-1,-1,-3,-3
1513228728594261,-1,-2,-1,-1,-1,-1,1,-1
1513228728594261,6,1,-6,-3,-2,-1,1,0
1513228728595762,-1,-3,-3,-3,-3,-2,-4,-2
1513228728595762,1,-4,-5,-3,-2,-1,1,1
1513228728609773,-2,-4,-1,0,0,-3,0,-2
1513228728609773,-1,1,3,1,-1,-1,0,-2
1513228728611284,2,-2,0,-1,-2,-1,0,0
1513228728611284,-2,-1,0,0,0,-2,-2,-3
1513228728631776,1,-1,-3,-2,0,0,-4,0
1513228728631776,0,-1,-4,-3,-3,-1,-2,-1
1513228728633276,2,1,-1,1,0,0,-4,-2
1513228728633276,-5,-1,0,-1,-4,0,4,-1
1513228728654312,1,1,0,-1,1,0,3,1
1513228728654312,-2,-2,-1,-1,-1,-2,-2,-2
1513228728655800,-2,1,2,0,0,0,-1,-1
1513228728655800,-3,-1,-1,-2,-2,-1,-2,-3
1513228728668800,-1,-1,0,-1,-3,-3,-3,0
1513228728668800,-1,-2,0,-1,-1,-1,11,1
1513228728675329,-3,-2,-3,-2,0,-3,-33,-9
1513228728675329,-2,-3,-1,1,0,-3,-3,-3
1513228728691826,5,1,0,-4,-3,-4,-3,0
1513228728691826,-1,-1,-1,0,-2,-1,-6,-2
1513228728693327,-1,-5,-2,0,-1,1,5,-1
1513228728693327,-3,4,-1,-1,2,0,-1,-4
1513228728714343,-1,-2,-1,-2,-3,-1,0,2
1513228728714343,2,-3,-4,0,0,-1,5,0
1513228728715868,-1,0,2,-1,-1,1,5,1
1513228728715868,0,-2,1,-1,0,-1,-1,1
1513228728728844,-2,-6,-7,-3,-2,0,-4,-5
1513228728728844,-3,-2,-3,-2,-2,-2,-4,-1
1513228728735372,-1,0,0,-1,-1,0,22,6
1513228728735372,0,2,0,1,0,-2,-20,-4
1513228728751860,1,-1,-1,2,-1,1,2,-3
1513228728751860,-5,-2,-1,-2,-2,-3,-3,-2
1513228728753362,0,-1,-1,-1,-1,0,8,4
1513228728753362,-1,0,-1,0,-1,0,7,2
1513228728773899,-3,0,-1,-1,0,-1,-4,-2
1513228728773899,0,-3,-2,-1,-1,0,0,-1
1513228728780404,-1,-1,0,0,-1,-1,3,-2
1513228728780404,1,-3,2,-1,-2,0,5,3
1513228728788386,3,0,0,1,-1,0,-4,1
1513228728788386,-5,1,0,-1,-1,-1,-2,-2
1513228728795401,3,-2,-2,0,0,-3,-5,0
1513228728795401,-3,-1,0,-2,-1,0,0,-1
1513228728811910,-4,-1,-1,-2,-2,-3,-3,1
1513228728811910,1,0,-1,-2,-3,-3,-3,-4
1513228728813418,1,0,-1,-2,-1,0,1,4
1513228728813418,-1,4,3,1,2,-1,-1,-1
1513228728834417,-1,0,-1,0,0,-2,5,-1
1513228728834417,-1,-1,0,-4,-1,-2,-3,-2
1513228728835919,-1,-3,-1,-4,-3,0,-5,-4
1513228728835919,-2,-5,-1,-1,0,1,3,-1
1513228728857433,-3,0,0,-2,-3,-2,-4,-3
1513228728857433,0,0,-2,1,0,-1,1,1
1513228728858934,-1,-3,-4,-1,0,-2,6,-3
1513228728858934,-1,1,-1,-4,-2,-2,-12,-1
1513228728871943,-3,-3,-1,1,2,1,-1,-3
1513228728871943,-1,-2,0,-1,-2,-3,-5,-1
1513228728873444,-4,-2,-1,1,0,0,1,-5
1513228728873444,-6,0,-1,1,-2,-1,12,4
1513228728893960,-1,2,-1,-1,2,2,-1,3
1513228728893960,1,0,-3,-1,0,-1,-3,-1
1513228728895995,-4,-3,-4,0,-2,-1,-2,3
1513228728895995,-3,-2,-3,-1,-3,-3,-1,-2
1513228728908472,-1,-1,-1,0,-2,0,-3,-4
1513228728908472,0,0,0,-1,0,0,0,0
1513228728915477,0,-1,-1,-3,0,-1,-3,-1
1513228728915477,1,-2,-2,-1,-1,-2,-4,-2
1513228728931500,-2,-2,0,-3,-2,-2,8,0
1513228728931500,-3,-4,-2,0,-2,-3,-2,-4
1513228728933488,-2,0,1,0,0,0,-8,-4
1513228728933488,1,-1,-3,-1,-3,0,16,2
1513228728954020,1,-3,-3,-1,-3,-3,-37,-10
1513228728954020,-1,1,2,2,1,1,-1,0
1513228728956021,1,2,-1,0,-2,-3,0,2
1513228728956021,1,-4,-2,0,-2,0,1,0
1513228728968011,0,0,-5,-4,-3,-3,11,2
1513228728968011,-2,2,0,-2,-1,0,-2,-2
1513228728992529,-2,1,1,1,-2,-1,-3,-4
1513228728992529,2,0,1,0,0,-1,-3,3
1513228728993030,-3,-1,0,0,1,2,3,-1
1513228728993030,-3,-1,3,-3,-1,-1,6,4
1513228728995031,6,0,-2,-2,0,-2,0,3
1513228728995031,-1,-2,-1,-2,-2,-2,-6,-7
1513228729015045,-2,-2,-1,-1,-3,-3,-3,-2
1513228729015045,-5,-3,-2,-1,-1,0,0,-1
1513228729016566,-1,0,-2,-1,-2,0,-3,-2
1513228729016566,-1,-1,-1,-2,0,-1,-4,-1
1513228729028066,-1,0,0,-1,0,0,15,5
1513228729028066,5,-2,-5,-4,-4,-4,-12,-3
1513228729037141,-4,-2,0,-2,0,-1,0,-2
1513228729037141,1,-1,-1,-2,-1,-1,-4,-3
1513228729050650,0,-4,-2,-1,0,0,5,1
1513228729050650,-3,-1,0,0,-1,1,3,-2
1513228729059155,-2,0,-1,-1,-2,-4,-5,-2
1513228729059155,-1,-1,-2,-1,-3,-3,-6,-7
1513228729074190,0,0,1,0,0,0,9,6
1513228729074190,-1,0,-1,0,1,0,0,-1
1513228729075668,-2,-2,-2,-2,-1,1,-3,-2
1513228729075668,-3,-2,-1,-1,-1,1,0,-2
1513228729087677,-5,-1,5,0,0,-2,-8,-3
1513228729087677,3,-2,-2,-1,-2,-1,1,3
1513228729096682,-2,1,0,-1,-1,-2,-1,-3
1513228729096682,1,-2,-3,-2,-1,0,1,1
1513228729111715,-2,-1,-1,0,-1,1,-6,-6
1513228729111715,0,-1,0,-1,0,0,6,3
1513228729113195,-1,-1,2,2,0,0,1,0
1513228729113195,-1,0,0,-2,-1,-1,-4,1
1513228729134030,-1,1,-3,-2,1,-1,-4,-2
1513228729134030,-1,0,-1,0,-1,-1,2,2
1513228729136028,1,-1,-4,-3,-1,-4,1,0
1513228729136028,-2,-3,-1,-2,-2,-1,2,1
1513228729147536,-3,1,-3,-1,-1,-1,0,-3
1513228729147536,0,-2,-3,-1,0,-1,-4,-3
1513228729156543,-2,-1,-1,-2,-1,2,-3,-3
1513228729156543,0,0,-1,-1,-2,-1,2,1
1513228729171553,0,-3,0,-2,-2,0,3,-1
1513228729171553,-2,0,-1,-2,-4,-2,-6,-5
1513228729173055,-3,-1,-2,-1,-1,-3,-3,-1
1513228729173055,-2,-1,-2,-1,-1,-3,0,-3
1513228729194070,-1,-1,-1,0,-1,0,-2,-2
1513228729194070,-1,-1,-2,-1,-1,-1,0,-3
1513228729195571,-7,-1,2,-1,-1,-1,-1,-2
1513228729195571,1,1,-1,-1,-2,-1,-2,1
1513228729208110,-1,-1,-1,-1,-1,-3,0,-2
1513228729208110,-2,-2,0,-1,0,-2,-3,0
1513228729232639,-2,-3,-1,-1,-2,1,-3,-1
1513228729232639,0,0,-1,0,-2,-2,1,0
1513228729233129,1,2,-2,-2,-3,-4,-1,1
1513228729233129,0,0,-1,0,-1,-1,-1,-2
1513228729234628,0,-3,-2,0,-1,-1,1,1
1513228729234628,-1,-1,0,-1,0,0,-2,-2
1513228729254165,-1,-4,-1,-1,0,-1,-3,-3
1513228729254165,-1,-1,0,0,-1,0,0,0
1513228729260159,2,0,-2,-3,-1,-1,1,-4
1513228729260159,-1,-2,-1,-1,-2,-3,-1,6
1513228729267662,-1,-1,-3,-2,-1,-2,-1,0
1513228729267662,-1,-2,-3,-2,-2,0,-2,-1
1513228729276658,1,-3,-1,0,0,-1,2,0
1513228729276658,2,-5,-4,0,-3,-1,-2,-3
1513228729291700,1,-2,-4,-1,-1,1,6,3
1513228729291700,-1,-1,-2,-1,0,0,10,1
1513228729297703,0,-2,-1,0,-2,-4,-24,-4
1513228729297703,1,0,0,-3,-1,-1,-2,-5
1513228729314240,1,5,2,1,-2,1,-5,0
1513228729314240,-4,-2,-1,-2,-3,-1,4,-1
1513228729315726,-6,-4,-1,-1,-2,0,6,2
1513228729315726,-1,-3,0,1,1,-1,-3,0
1513228729336732,-1,-3,-1,-2,-2,-2,-1,-1
1513228729336732,0,-2,0,-2,1,-1,-5,0
1513228729338232,2,1,0,0,1,1,3,0
1513228729338232,-4,-3,-2,0,0,-2,-6,-4
1513228729351753,-3,-2,0,0,0,1,9,3
1513228729351753,-2,0,-1,-2,-2,-2,-4,1
1513228729353247,0,1,-3,-2,-2,-1,0,-1
1513228729353247,-5,3,1,-1,0,1,1,-4
1513228729374280,-1,-2,-1,-1,-3,-3,-4,4
1513228729374280,0,1,0,-1,-1,1,-3,-3
1513228729375760,0,-4,-2,-1,1,0,-1,3
1513228729375760,4,0,-5,-3,-3,-2,2,-1
1513228729387767,-2,-1,-2,-1,0,-1,-5,-5
1513228729387767,-2,-3,2,1,-2,0,-3,-3
1513228729396774,-1,-3,0,-1,-1,-1,0,-3
1513228729396774,0,1,2,1,0,0,1,1
1513228729411800,1,-1,-1,2,-2,-3,-3,-2
1513228729411800,-5,-4,-2,-2,-2,-2,2,-1
1513228729413286,1,0,-1,-3,-1,-2,1,-3
1513228729413286,-4,-4,-2,2,0,1,-4,-1
1513228729441817,0,2,0,-2,-2,0,9,7
1513228729441817,-1,0,0,0,0,0,-2,-2
1513228729443308,-4,-3,-2,-1,-1,-2,0,-2
1513228729443308,-2,0,0,-1,0,-1,1,0
1513228729456827,-2,-1,-2,-2,0,-2,-5,-4
1513228729456827,-1,3,-1,-2,-1,-2,-3,-1
1513228729458318,-1,-1,1,0,1,0,1,-2
1513228729458318,-1,-1,-2,-3,-2,-2,3,4
1513228729471840,-1,-2,-1,0,-1,0,-3,-4
1513228729471840,2,1,0,-1,-2,-2,-2,-1
1513228729473337,0,0,-1,-2,-1,-1,-5,-1
1513228729473337,0,0,-1,-1,-1,-1,5,-1
1513228729494343,0,-2,-3,-3,-2,-1,-3,-2
1513228729494343,-1,-4,-3,0,0,0,-2,-2
1513228729495843,-2,2,1,1,-1,0,3,1
1513228729495843,-1,0,-2,-2,-2,-1,-5,-3
1513228729516922,-3,-4,-1,0,2,2,1,-4
1513228729516922,5,1,-2,-1,-2,-3,1,4
1513228729518360,5,0,-2,-2,0,1,-2,2
1513228729518360,0,-1,0,0,1,-3,-2,-1
1513228729531870,-3,-3,0,-1,-1,-2,-4,-6
1513228729531870,-3,-4,-2,0,0,0,-2,-2
1513228729537874,-1,0,-1,-2,-3,-3,0,-3
1513228729537874,0,-1,0,-1,-1,0,0,5
1513228729553385,0,1,-1,-2,0,-2,-3,-2
1513228729553385,-1,-2,-2,-2,-2,-2,-2,0
1513228729561891,-5,-2,0,1,-3,0,1,1
1513228729561891,-3,-3,-1,-2,-1,-2,-3,-3
1513228729576901,-4,-1,-1,-1,0,-1,-2,0
1513228729576901,-4,-3,-2,-2,-1,-1,1,-1
1513228729578405,-1,-2,-2,-1,1,0,-7,-6
1513228729578405,0,-1,-1,-1,-2,-1,6,2
1513228729590911,3,4,2,-1,-2,0,0,3
1513228729590911,-6,-1,0,1,3,0,1,-7
1513228729597973,1,1,-2,-3,-4,-3,0,6
1513228729597973,-1,0,0,-1,-1,-3,-7,-3
1513228729614441,-3,-3,0,-2,0,1,-1,-1
1513228729614441,-1,-3,-2,-4,-4,-1,-5,-5
1513228729615952,-1,0,-1,1,-2,-1,11,6
1513228729615952,-6,-3,0,-2,-2,-2,-2,-1
1513228729644038,-7,-1,0,0,0,-3,-1,-5
1513228729644038,-1,1,0,0,-1,0,-3,0
1513228729653491,-1,-2,-1,-1,0,0,-3,-4
1513228729653491,1,0,-3,-3,-1,1,1,-2
1513228729653992,3,-2,-3,-1,-3,-2,-1,-1
1513228729653992,-2,-3,-3,-3,-1,-1,-4,-4
1513228729658003,4,4,2,-1,-3,-4,2,1
1513228729658003,3,-1,-1,0,-1,1,0,-1
1513228729674508,-1,0,-1,-1,-3,-2,-2,-2
1513228729674508,0,-1,0,1,0,-2,0,2
1513228729676009,-2,-3,0,-1,0,0,-1,-2
1513228729676009,-2,-1,-1,-3,-3,2,-2,-3
1513228729696033,2,-3,-3,-1,-2,-3,-2,-1
1513228729696033,-1,-3,0,0,-1,-1,2,2
1513228729704540,-4,-4,-1,0,0,0,-3,-4
1513228729704540,-1,0,-2,0,0,2,2,0
1513228729710528,-2,-1,0,-1,-3,0,0,1
1513228729710528,0,1,-1,-1,-1,-2,2,1
1513228729719535,-2,-2,-3,-1,-1,1,-4,-3
1513228729719535,-2,-3,-1,-2,0,-1,-1,-2
1513228729734048,1,-3,-3,-2,-2,0,-1,1
1513228729734048,-2,-2,1,2,0,-1,-7,-5
1513228729736046,1,3,-2,-5,-2,-3,5,6
1513228729736046,-1,-1,-3,-1,-2,-2,-1,-2
1513228729755571,1,0,-1,-1,0,-3,1,-3
1513228729755571,-1,1,0,-1,-1,-1,0,2
1513228729764066,-1,-3,-1,0,-1,0,0,-3
1513228729764066,-1,1,-1,-1,-1,-2,-3,0
1513228729770070,1,0,0,-1,1,0,-2,-1
1513228729770070,1,-3,-5,-2,-3,-1,-2,-2
1513228729779077,-3,-2,-1,1,-1,-1,1,0
1513228729779077,0,-2,0,-1,-1,-1,-2,-1
1513228729793117,-1,-2,0,-1,-1,0,-1,-2
1513228729793117,0,-2,-2,-2,-1,-2,-1,0
1513228729801698,-2,-7,-4,-1,-2,-2,-2,0
1513228729801698,-1,-2,-1,-3,-2,-4,-4,-2
1513228729816705,-2,1,-1,0,-1,-2,-1,-2
1513228729816705,0,0,-2,-1,0,-1,-1,-1
1513228729818203,-1,-1,-3,-2,0,-2,-3,-2
1513228729818203,0,-2,-2,0,-1,-1,0,-1
1513228729831215,-5,-1,-1,-2,-1,0,4,1
1513228729831215,-2,-2,0,-2,-1,-1,-2,0
1513228729838720,2,-3,1,0,-2,-2,-3,-3
1513228729838720,-4,2,0,-1,-1,0,-3,-3
1513228729861750,1,-3,-2,-1,-1,-1,-1,-2
1513228729861750,-1,0,2,-2,-3,-2,0,2
1513228729863235,-1,-1,1,0,-1,-2,-3,-1
1513228729863235,-2,-3,0,-1,-1,-3,-2,-4
1513228729877267,0,-2,-1,0,1,-1,1,-2
1513228729877267,-1,-1,1,-1,-1,0,3,0
1513228729878748,0,4,0,-1,-2,-4,-1,1
1513228729878748,-1,-1,1,3,0,0,0,1
1513228729891287,-3,-2,0,-1,-3,-2,-6,-2
1513228729891287,1,-1,-1,-1,1,-1,-1,-2
1513228729897792,0,1,0,-1,1,1,-1,0
1513228729897792,0,-1,-4,-1,-2,-1,-1,-1
1513228729914339,-2,-2,0,-2,-1,-1,0,-1
1513228729914339,-8,3,1,0,-1,1,2,-3
1513228729915826,-2,-1,-2,-1,-2,-2,0,-2
1513228729915826,1,-3,-2,-2,-1,1,0,-2
1513228729936819,0,-3,-3,-1,-2,-2,1,2
1513228729936819,1,-3,-4,-1,-1,0,-2,-1
1513228729938320,-5,-1,-3,-1,0,1,-5,-8
1513228729938320,0,0,1,-3,-4,-1,2,2
1513228729950363,1,-2,-3,0,0,-1,2,-1
1513228729950363,1,1,3,-2,-1,-1,-6,-1
1513228729959336,0,-3,-1,-2,-1,2,1,0
1513228729959336,-2,-2,-2,-1,1,-1,1,1
1513228729974355,-1,0,1,0,0,0,-3,-1
1513228729974355,-1,-2,-3,0,0,-2,1,-3
1513228729975846,-3,0,1,0,-1,1,-4,-2
1513228729975846,-2,-1,-2,-1,-2,-4,-6,-2
1513228729997421,-2,0,-2,-2,-1,0,-1,-1
1513228729997421,2,-2,-3,-1,-2,-3,-4,0
1513228729998886,0,-2,0,-2,-1,-1,1,1
1513228729998886,-2,-1,0,0,-1,-4,-2,-1
1513228730019401,0,-2,-1,-2,-3,-3,-4,-2
1513228730019401,-2,-2,-2,-3,0,-1,2,-1
1513228730020902,-2,-1,-1,-1,-2,-1,-2,-1
1513228730020902,0,-2,-2,-2,-2,-1,-1,-4
1513228730034412,-2,2,0,-1,0,0,1,-1
1513228730034412,-1,0,2,0,-2,0,4,3
1513228730035916,2,-2,-2,-1,-3,-3,1,1
1513228730035916,-3,-1,0,0,0,0,-1,0
1513228730056442,-1,-1,-2,-2,-1,0,-1,-3
1513228730056442,-1,0,-2,-3,-1,-3,-8,0
1513228730058452,-4,-2,-2,0,-2,-3,-5,-2
1513228730058452,0,-2,-3,0,-1,0,1,-1
1513228730070437,1,-2,-1,-2,-3,-3,-4,0
1513228730070437,0,0,-3,-1,-1,-1,0,-3
1513228730079444,-1,-1,-1,-1,-1,-1,0,-3
1513228730079444,-1,0,-1,-1,0,1,-4,-1
1513228730093957,-1,1,-2,-2,0,-2,0,0
1513228730093957,-2,2,0,-2,-2,-2,0,0
1513228730095958,2,-1,-2,-1,0,-2,3,0
1513228730095958,2,-1,-2,-4,-2,-1,0,-2
1513228730116474,-2,-5,1,0,0,0,-1,-1
1513228730116474,-1,-7,-4,-2,-1,-2,-5,-4
1513228730130991,-1,1,1,1,0,1,-2,0
1513228730130991,-1,-2,-2,-1,0,1,4,3
1513228730131481,0,-2,-5,-2,-2,-3,-2,0
1513228730131481,-3,-3,0,0,-1,1,-3,-2
1513228730139487,-3,-1,-3,-2,-3,0,3,-1
1513228730139487,-1,-3,0,0,-1,-2,-3,-2
1513228730154013,1,-1,-1,-4,-2,1,-3,-3
1513228730154013,-1,-2,0,1,1,-1,4,3
1513228730156015,2,-2,-4,-3,-2,-4,-9,-1
1513228730156015,-2,-1,1,0,-2,-1,0,-1
1513228730176514,1,0,1,-1,0,0,0,-1
1513228730176514,-1,-3,-2,0,-1,0,-1,-2
1513228730178514,-3,0,-1,-2,-1,0,-1,-4
1513228730178514,-3,0,-1,0,0,0,2,3
1513228730190523,-2,0,-1,0,-1,-2,0,-1
1513228730190523,-3,2,0,-2,-2,-1,0,-2
1513228730199536,-2,-2,-1,0,-2,1,-5,-6
1513228730199536,-4,-3,-2,-2,-3,-1,3,1
1513228730214068,0,1,-2,-3,-2,-3,-2,-1
1513228730214068,0,-7,-5,-3,-1,-1,0,-1
1513228730216070,-1,-2,-1,-1,0,-2,0,0
1513228730216070,1,1,0,-2,0,0,-7,-5
1513228730237055,-1,-1,-1,-1,-1,-1,-1,2
1513228730237055,-3,-1,-1,-1,-1,-3,5,-3
1513228730238556,0,2,0,-2,0,1,0,1
1513228730238556,-1,-3,-2,0,-2,-1,0,-3
1513228730250577,-2,-2,-2,0,0,-2,0,0
1513228730250577,-2,1,0,-3,-2,-1,-4,-2
1513228730259083,-4,-1,1,2,0,0,0,-3
1513228730259083,-4,2,3,0,0,-3,0,0
1513228730274594,-2,0,1,-1,-2,0,0,3
1513228730274594,-1,2,0,-1,-2,0,1,-1
1513228730276083,1,0,-1,-1,-2,-3,-2,7
1513228730276083,1,-2,-4,-2,1,0,-3,-2
1513228730296606,-4,-7,-3,-1,-1,-3,-6,-5
1513228730296606,-2,-4,-1,0,0,1,-1,-1
1513228730298098,1,0,-1,1,0,-2,2,0
1513228730298098,1,0,1,-1,-1,-1,-1,-1
1513228730310121,-1,0,-3,-1,0,1,-1,-1
1513228730310121,0,1,-1,-1,-1,-2,-2,0
1513228730319113,0,-2,-2,0,-1,0,-3,-1
1513228730319113,-2,-1,-2,-1,-2,1,2,1
1513228730334145,-3,-4,-1,-1,0,-1,1,-2
1513228730334145,-1,-3,-1,0,0,1,-5,0
1513228730335626,-2,0,1,-2,0,0,1,-1
1513228730335626,-1,-1,0,-3,-2,-1,-5,-2
1513228730357152,1,0,-2,-2,-3,1,2,0
1513228730357152,-4,-3,1,0,-1,-1,-2,-1
1513228730358641,5,-2,-1,-3,-1,0,-2,-2
1513228730358641,0,-2,-1,-2,1,0,3,1
1513228730379180,-2,-1,-2,-1,-1,-2,-6,-1
1513228730379180,-2,0,2,1,0,0,2,1
1513228730380660,-1,-2,-2,-1,-2,0,1,1
1513228730380660,-2,0,0,-1,-1,-3,-3,-5
1513228730394171,1,1,-2,-1,-1,1,-1,-3
1513228730394171,0,-2,-3,0,0,-1,0,0
1513228730395711,-4,-1,-2,-2,0,0,-2,-2
1513228730395711,-1,-1,-1,-1,-1,-1,-2,1
1513228730416737,-2,-2,-1,0,-2,-2,-1,-1
