timestamp,emg1,emg2,emg3,emg4,emg5,emg6,emg7,emg8
1514893823535495,0,3,1,-2,-1,-1,0,0
1514893823535495,-2,-3,-1,-3,-1,-3,-2,0
1514893823536995,-2,-1,-1,-3,-4,-2,-2,1
1514893823536995,0,-2,-3,4,2,-1,-1,-3
1514893823549504,-3,-1,0,2,-1,-2,-1,-1
1514893823549504,0,-1,-4,-3,0,0,-1,0
1514893823558011,1,-3,-4,-5,-1,0,-2,-2
1514893823558011,-1,0,0,0,-2,-1,-2,0
1514893823572518,0,0,-2,-3,-3,0,-2,-3
1514893823572518,1,-1,-3,3,2,-2,0,-1
1514893823574520,0,-2,-2,-3,-3,0,-1,-1
1514893823574520,-1,2,-1,-1,-2,-2,-1,0
1514893823595034,-3,-2,0,-1,0,0,-3,-1
1514893823595034,-1,-1,1,3,-5,-2,-1,-1
1514893823598038,-1,-2,-3,-4,1,0,-1,-1
1514893823598038,-2,0,-2,-4,-2,0,-1,-1
1514893823608543,-1,0,-1,-4,-1,-2,0,0
1514893823608543,-3,-4,-2,-4,-2,-2,-2,-1
1514893823618551,-4,-4,1,4,0,-4,1,-1
1514893823618551,0,7,2,1,-2,-2,-2,0
1514893823633561,-2,2,-2,-1,1,1,-1,-1
1514893823633561,-1,0,-2,0,-1,1,0,0
1514893823637064,-1,0,4,3,-2,-2,1,0
1514893823637064,-2,-1,-2,-5,-1,0,-2,-2
1514893823654076,0,0,0,-2,0,-2,0,0
1514893823654076,-1,-3,0,-5,-2,-2,-1,1
1514893823671088,0,-2,-1,-2,0,0,1,0
1514893823671088,-1,0,-1,3,-1,-1,-1,0
1514893823677593,-2,-2,-3,-1,-1,0,-1,-1
1514893823677593,-1,-1,-4,3,-1,-1,-2,-1
1514893823679094,-2,-2,-3,-6,0,0,0,-1
1514893823679094,-3,-3,2,-8,-3,0,1,2
1514893823692604,0,-1,1,2,2,0,0,-1
1514893823692604,-1,-3,0,-9,-6,-3,-1,-1
1514893823694104,-1,-4,-4,10,2,1,0,-2
1514893823694104,1,4,1,2,-3,-3,-1,-2
1514893823714621,1,-1,-2,-2,-1,0,0,0
1514893823714621,2,-2,1,-2,-4,-3,-2,-1
1514893823723626,-2,-2,-2,2,0,-1,-2,-1
1514893823723626,-1,-1,-2,-3,-1,-2,-1,-1
1514893823737635,-1,0,-1,1,-1,-1,0,-1
1514893823737635,-1,-4,-4,-1,0,-1,0,-1
1514893823739136,-2,0,1,-6,-2,-1,-1,-3
1514893823739136,-3,-3,-3,-2,0,-1,-1,-2
1514893823752646,-2,4,5,0,-1,-2,-3,1
1514893823752646,-1,0,0,-1,0,0,-1,-1
1514893823760150,0,-2,-4,-6,-3,-1,-1,-1
1514893823760150,0,0,2,4,-1,-1,0,0
1514893823775162,-2,-1,-2,-1,0,-3,-1,-2
1514893823775162,-1,-1,1,-1,-1,1,1,-2
1514893823776662,0,-1,0,-1,2,0,-3,-2
1514893823776662,0,1,-2,0,0,1,-1,-1
1514893823798178,1,-1,-3,-3,-3,0,-2,0
1514893823798178,-1,-2,1,6,-3,-2,-1,1
1514893823799679,-2,-3,-2,-10,-3,-1,-1,0
1514893823799679,1,-1,-1,-1,0,0,1,-1
1514893823812189,-1,-3,-2,-3,0,-2,0,-3
1514893823812189,-3,5,0,5,2,0,-1,-2
1514893823818692,-2,0,-2,2,-1,-2,0,-1
1514893823818692,0,-1,-2,1,-1,-1,-1,1
1514893823834203,1,0,-2,-4,-3,0,-2,1
1514893823834203,-2,-4,-2,-4,1,0,-1,-1
1514893823842709,-1,-3,-1,2,-2,-1,-2,-2
1514893823842709,0,1,-1,-2,-2,-1,1,0
1514893823857720,-2,-4,-3,-1,-2,-1,-2,0
1514893823857720,1,-2,-5,-6,-1,-1,-1,-1
1514893823859221,-1,-1,1,-1,0,-1,-1,0
1514893823859221,-2,-2,0,1,-4,-1,-1,0
1514893823872731,-3,3,0,0,-1,-1,-1,-1
1514893823872731,-1,-3,0,1,-3,-2,-2,-1
1514893823878735,-1,-1,0,-5,5,0,0,0
1514893823878735,-3,-1,-2,-1,0,-1,-2,-1
1514893823895246,-2,-1,0,0,-2,-2,0,-3
1514893823895246,-2,-2,-1,-5,0,0,-1,-2
1514893823896754,-1,-1,-2,-2,-3,-2,0,-1
1514893823896754,0,1,-1,-1,1,-2,-1,-1
1514893823917763,-1,1,-2,-4,-1,-1,-1,-2
1514893823917763,-1,-3,-2,2,0,-2,-1,-1
1514893823919263,-1,-3,-2,1,-3,-1,-1,-1
1514893823919263,1,-1,-2,-7,0,-1,-1,-2
1514893823931784,-1,3,1,5,-2,-2,0,0
1514893823931784,-1,-7,1,-2,-1,-2,0,-2
1514893823938777,-2,0,-1,-2,-3,-1,-3,0
1514893823938777,-1,0,-1,2,-2,0,-2,0
1514893823955307,-1,4,-4,-1,-2,-2,-2,-1
1514893823955307,-3,-19,-3,-5,1,2,-1,-1
1514893823956804,-1,3,1,-1,-1,0,0,0
1514893823956804,-2,0,-3,1,-3,-1,0,-1
1514893823977809,-1,-1,3,-4,0,-1,0,-1
1514893823977809,-1,7,2,-1,0,-2,-1,-1
1514893823979306,-3,-4,-1,5,-1,-2,-1,-2
1514893823979306,1,9,1,-1,-2,-3,-2,-2
1514893823992316,-1,-6,-2,0,3,-1,0,1
1514893823992316,-2,-5,-5,-5,-1,0,-2,-1
1514893823999321,0,0,0,-1,-2,-2,-2,2
1514893823999321,-3,1,-1,9,-1,-3,-2,-2
1514893824014333,0,-4,-4,1,-1,-1,-2,0
1514893824014333,-2,-2,-2,-12,-1,0,0,-1
1514893824022836,-2,4,-1,-1,0,0,0,-2
1514893824022836,-2,0,0,-5,1,-2,-1,0
1514893824038357,-1,-1,1,4,-1,-2,-2,-1
1514893824038357,0,-1,-2,5,-1,-2,-3,0
1514893824039848,1,-4,-2,-3,-3,-1,-1,-1
1514893824039848,-2,-3,0,-1,-1,0,0,0
1514893824051869,-1,1,-1,-1,-2,-1,1,-1
1514893824051869,0,2,-3,-2,-2,-1,1,1
1514893824058872,0,-4,0,0,-1,-2,-2,-1
1514893824058872,-2,2,5,1,-1,-2,-2,-2
1514893824082879,-2,-1,-5,-4,-1,-1,-2,-2
1514893824082879,-1,5,1,0,-1,0,-2,-2
1514893824084380,-1,-5,-2,1,0,-1,-2,-1
1514893824084380,0,-4,-3,-2,0,1,-1,-1
1514893824097895,-1,2,-1,-5,-1,0,-2,-1
1514893824097895,-1,-1,-1,0,-2,-2,-1,-1
1514893824099395,-1,-3,1,2,1,0,0,1
1514893824099395,-1,-1,-3,-2,-1,0,0,0
1514893824111899,-3,0,0,-1,-1,-2,1,-1
1514893824111899,1,-2,-1,1,-2,-1,-1,0
1514893824118904,-1,-4,-1,-3,-1,0,-2,0
1514893824118904,-1,-3,-2,-5,-3,-1,0,-2
1514893824135416,-1,1,-1,-7,-2,-2,-2,-1
1514893824135416,0,0,0,3,1,-1,-1,-1
1514893824136919,-1,-3,-1,-2,-1,-1,-1,-1
1514893824136919,-1,-2,-1,1,-3,0,-1,0
1514893824157444,-2,2,-4,1,0,-1,-1,-3
1514893824157444,-2,-3,-3,-1,1,-2,0,0
1514893824158934,1,3,5,3,-1,-2,-1,-1
1514893824158934,-1,-2,-2,-2,-1,-2,1,-2
1514893824171454,1,2,0,-2,0,-3,-1,-1
1514893824171454,-1,-1,3,-1,0,0,-1,-1
1514893824180448,-1,-5,-3,-3,-1,0,-1,0
1514893824180448,-2,0,-1,-2,-1,-2,-1,-1
1514893824195458,-1,1,-1,-3,0,-1,0,0
1514893824195458,-2,3,-4,-1,-2,-1,-1,-2
1514893824197963,-2,-6,-2,0,-4,-2,0,-1
1514893824197963,2,0,0,-1,-1,-1,-1,-1
1514893824224994,0,0,-1,1,-1,0,-1,1
1514893824224994,-2,-2,-2,-1,0,-1,-1,-2
1514893824226981,-2,-3,-2,-4,0,0,-2,-3
1514893824226981,-1,-1,-1,-1,1,0,-2,0
1514893824231485,0,1,-1,-1,-2,-1,0,-1
1514893824231485,0,-1,2,-5,-3,0,0,-1
1514893824240492,-1,-5,-4,0,0,0,0,-1
1514893824240492,1,0,0,2,0,0,-2,0
1514893824255010,-2,-1,-1,-2,2,-1,0,-2
1514893824255010,-1,1,-1,-2,0,-1,-2,-2
1514893824257020,-3,-5,-1,-1,0,0,0,-2
1514893824257020,-2,-1,-2,1,-1,-1,1,-1
1514893824277526,-2,1,-1,-2,-2,0,-1,1
1514893824277526,-1,0,-2,-1,-2,-2,-2,2
1514893824279018,-2,-3,-1,0,-1,0,-2,-2
1514893824279018,-2,0,-2,-2,-1,0,-2,0
1514893824291526,2,1,-1,-2,-2,0,-2,-2
1514893824291526,0,-3,-2,1,0,-1,0,-1
1514893824300533,-1,-3,-1,0,-3,-1,-2,0
1514893824300533,-1,-2,-1,-1,-1,-2,-1,-1
1514893824315047,-1,1,-1,5,-1,-1,0,0
1514893824315047,-1,-1,0,-9,-2,-1,-2,-1
1514893824317561,-1,-6,-5,-9,0,0,-1,0
1514893824317561,-3,1,1,2,-1,0,-2,-1
1514893824337558,-3,-1,-1,-2,-1,-2,-2,-1
1514893824337558,-1,-3,-1,6,-3,-2,-2,-3
1514893824340070,-2,-3,-2,-1,-1,-3,-1,-2
1514893824340070,-2,-1,-1,-2,1,0,-2,-1
1514893824360578,-2,1,-2,0,-2,0,0,-1
1514893824360578,1,0,0,-2,0,-2,0,-1
1514893824363077,-2,-2,0,-1,-1,0,-1,0
1514893824363077,-1,-2,-3,1,0,-1,-1,-2
1514893824375099,0,3,0,0,-1,-1,0,0
1514893824375099,-2,-5,-3,-1,-2,-2,-1,1
1514893824376587,1,2,2,0,0,0,0,-2
1514893824376587,1,0,-2,-1,-4,-1,-1,-1
1514893824398605,1,2,-1,-4,-1,-1,-1,1
1514893824398605,-1,-2,0,-2,-1,-3,-1,-1
1514893824400113,-1,-3,0,3,-1,-1,-2,-1
1514893824400113,-2,-1,-1,-2,-3,0,0,-2
1514893824411122,-1,2,-2,-5,-2,0,-1,-1
1514893824411122,-2,-3,-3,1,0,-1,0,0
1514893824422619,-2,-3,0,5,0,-1,-1,-1
1514893824422619,0,0,-2,-1,0,0,-1,-2
1514893824435128,-2,1,-1,0,-1,-2,-1,0
1514893824435128,-1,-2,-1,-2,1,0,-2,0
1514893824436629,-2,-3,-4,-2,-2,-2,0,-2
1514893824436629,-2,0,0,5,-2,-3,-2,-1
1514893824457656,0,0,-3,-7,0,-2,-1,-1
1514893824457656,-1,-3,-1,-1,-2,0,0,-2
1514893824459145,0,-2,0,-1,-1,-1,1,-1
1514893824459145,0,0,-2,-1,0,0,-1,0
1514893824471163,1,-3,-2,1,-2,-4,-1,-1
1514893824471163,1,-1,-1,0,1,-1,-2,-1
1514893824480161,-1,-4,-3,2,2,-1,-2,0
1514893824480161,-1,0,-1,-3,-3,-2,0,0
1514893824502685,-2,-1,-1,0,-1,-2,-1,-3
1514893824502685,-1,-2,-3,-8,-3,-1,-2,-3
1514893824504186,-2,-2,-1,-1,-2,-2,0,-2
1514893824504186,-2,-2,-1,-5,1,-1,-1,-2
1514893824517687,-2,0,-1,1,0,-1,0,-1
1514893824517687,-1,-4,-1,3,-3,0,0,-1
1514893824519688,-2,-3,0,2,-1,-1,-1,-1
1514893824519688,-2,0,-1,-3,-2,-1,-2,0
1514893824531197,-1,-4,-3,-2,-1,0,-2,-1
1514893824531197,-1,-1,-2,-1,0,-2,-1,-2
1514893824540202,-1,-2,1,1,-1,1,-2,0
1514893824540202,0,-2,-3,-10,1,-3,-1,-2
1514893824555213,-3,2,-1,-2,-2,0,-1,-1
1514893824555213,0,-1,-1,0,-1,-2,-1,-1
1514893824556714,-1,-1,0,4,-1,-1,-1,0
1514893824556714,-1,0,0,-6,1,-1,0,-1
1514893824577728,1,0,-2,-6,-4,0,0,-1
1514893824577728,0,0,-1,0,-2,0,-1,-1
1514893824579231,-3,-3,-1,0,-1,0,-2,-1
1514893824579231,0,0,0,2,-3,-1,-2,-1
1514893824591238,-2,1,0,2,0,0,-2,-2
1514893824591238,-2,-2,-1,-4,-2,-1,0,0
1514893824600244,-1,-2,-1,-2,-2,-1,-2,0
1514893824600244,0,0,-4,3,0,0,-1,-1
1514893824615255,-1,0,1,-4,-2,-2,-2,-1
1514893824615255,-3,-2,-1,1,-1,-1,-1,-3
1514893824616757,1,-1,0,-4,0,-2,0,-1
1514893824616757,0,-1,-1,2,0,-1,0,-2
1514893824638287,0,0,-3,-1,-1,-1,0,0
1514893824638287,-2,1,3,1,-2,-2,-1,0
1514893824639782,-2,-5,-3,-4,-2,-1,0,-2
1514893824639782,-2,1,-2,-4,0,0,0,-1
1514893824660298,-1,0,-1,3,0,-1,-3,-2
1514893824660298,-2,-2,-4,-1,0,-2,-1,-1
1514893824661788,-2,0,1,-2,-1,-1,1,-2
1514893824661788,-1,-1,1,-1,-3,-2,-1,-1
1514893824675312,0,-1,-3,-1,-3,-1,0,0
1514893824675312,-2,-2,-1,-2,0,0,0,-1
1514893824676798,0,-1,-2,-3,-1,0,-1,-2
1514893824676798,-1,-4,-3,2,0,-1,-1,-3
1514893824697814,1,2,4,10,-1,-2,-2,-1
1514893824697814,0,-4,-4,-11,-1,-1,-1,-2
1514893824699316,-2,-2,-1,-1,0,-1,0,-2
1514893824699316,-2,-2,-3,-2,-2,-2,0,1
1514893824721340,-2,-1,-1,-2,-1,1,-1,0
1514893824721340,-1,-2,0,5,2,-1,-1,-2
1514893824724844,-1,-2,-1,-2,-1,0,-2,-1
1514893824724844,-2,2,-1,-2,-1,0,0,1
1514893824750351,-1,2,-4,-7,-3,0,0,-1
1514893824750351,-2,0,-1,4,3,0,0,0
1514893824751890,-1,-1,-1,0,-3,-2,-1,0
1514893824751890,-1,-1,0,-1,-3,-2,-1,0
1514893824757856,-1,-1,-1,-5,-1,-1,0,-1
1514893824757856,0,-3,-3,-4,-1,-2,-1,-2
1514893824759357,1,0,-1,0,1,0,1,0
1514893824759357,0,0,1,1,0,-1,-1,-1
1514893824781373,0,0,-1,-3,0,-1,-1,-2
1514893824781373,-1,-3,-1,-1,-4,-2,-1,-1
1514893824784913,-1,-3,-1,1,0,-1,-3,-3
1514893824784913,0,0,-2,0,1,0,-1,0
1514893824794381,0,-3,-4,-1,1,-2,-2,-1
1514893824794381,-1,1,0,1,0,-1,-2,-1
1514893824801386,-1,-4,0,-3,-3,-2,-1,2
1514893824801386,-1,0,-2,-3,-2,-1,0,-2
1514893824818899,-3,-1,-3,-2,-2,-2,0,-3
1514893824818899,-2,-2,-1,-1,-2,0,0,1
1514893824820400,-1,-1,-1,-3,-1,-1,-1,-1
1514893824820400,-1,-1,-2,-2,0,0,-1,-2
1514893824840914,-1,0,0,-1,1,-1,0,-1
1514893824840914,-1,-3,-2,-1,0,-1,-2,0
1514893824842415,-2,-2,-2,-1,-1,-3,-2,0
1514893824842415,-2,-4,0,-1,-1,-1,-1,-1
1514893824854468,-1,0,-1,0,-2,-3,0,-1
1514893824854468,-1,-1,1,-1,-2,-1,-2,-1
1514893824861461,-3,-3,-3,-2,-1,1,-1,-1
1514893824861461,-1,-2,-1,0,-2,-3,-1,-1
1514893824877487,-1,4,1,-2,-2,-2,1,-1
1514893824877487,0,-4,-1,1,0,0,0,-1
1514893824879473,-1,0,0,1,0,-1,-1,-2
1514893824879473,0,1,-3,-2,-1,1,-1,-1
1514893824899997,0,-3,-2,-2,-1,-1,-2,-2
1514893824899997,-2,-1,0,-2,-2,-1,-1,-1
1514893824901999,-1,-1,0,6,-1,0,0,-1
1514893824901999,0,0,0,-10,-3,0,0,-2
1514893824915008,-1,-2,-3,-7,0,-1,-1,-1
1514893824915008,0,-1,0,1,0,-1,-1,-1
1514893824921512,-2,-3,-3,0,0,-2,0,0
1514893824921512,-2,1,0,5,-2,-3,-1,0
1514893824937512,-1,-4,-1,1,-2,0,-1,-2
1514893824937512,-1,-2,-1,-5,-3,0,-1,-2
1514893824939013,0,-2,-1,-2,-1,-1,0,-2
1514893824939013,1,1,-1,-1,-1,-1,0,-1
1514893824960027,-2,0,-2,-1,-1,-1,0,0
1514893824960027,-2,-2,1,4,-2,0,-2,1
1514893824961542,-1,-2,2,-2,0,-1,0,-2
1514893824961542,0,3,1,0,0,-1,-2,-2
1514893824982553,-1,0,-2,-3,-1,-1,1,-3
1514893824982553,-1,-2,-2,0,-1,0,-1,0
1514893824986046,-1,0,-1,-2,0,0,-2,1
1514893824986046,0,1,-2,-2,-2,-2,0,0
1514893824997555,0,0,0,1,0,-1,-1,0
1514893824997555,0,-1,-1,-2,-1,-3,0,-1
1514893824999055,0,-2,-1,-4,-2,-2,0,-1
1514893824999055,-2,0,-1,-2,-1,-2,-3,-2
1514893825020080,-2,-2,-2,-1,-1,-2,-1,0
1514893825020080,0,6,3,15,0,-1,-1,-1
1514893825021572,-1,-4,-4,-9,2,1,0,-2
1514893825021572,2,-1,-4,-1,-2,0,1,-1
1514893825034090,-1,-1,-1,0,-2,0,-1,-2
1514893825034090,-1,-2,-2,-7,-1,-1,0,-3
1514893825042586,-1,0,1,3,-2,-3,0,-1
1514893825042586,-3,-1,-1,0,1,-1,-1,-1
1514893825057610,-1,-1,0,-2,-3,-3,-2,-1
1514893825057610,-2,-3,-2,-4,3,2,-1,-3
1514893825059097,-1,1,-1,-1,-2,0,-1,-1
1514893825059097,-1,0,-2,-3,0,-2,-2,0
1514893825080112,-1,0,-2,-1,-2,0,-2,0
1514893825080112,-3,-3,-2,-4,-2,-1,-2,-2
1514893825081614,0,-2,-2,0,-1,-2,-1,1
1514893825081614,-1,1,-1,-1,1,0,-1,0
1514893825094632,-1,-1,-2,0,-2,-2,-1,0
1514893825094632,-1,-2,-4,-2,-2,0,1,0
1514893825101137,-3,-2,-2,0,-2,-1,-2,-1
1514893825101137,-2,0,0,2,-1,-2,-2,-1
1514893825117648,0,1,-1,0,-1,0,-1,0
1514893825117648,-3,-6,-4,-5,-1,-4,1,-1
1514893825121156,-2,0,-1,-2,-3,1,0,-1
1514893825121156,-1,-1,0,-1,-2,-1,0,-2
1514893825140167,-1,-2,-1,-1,0,1,-3,-1
1514893825140167,1,-4,0,-1,-3,1,-1,0
1514893825141668,-1,-1,-2,0,1,-1,-3,-1
1514893825141668,-1,-1,0,1,-1,-1,-1,-3
1514893825153674,0,1,-1,-2,0,-2,0,0
1514893825153674,0,-1,0,-2,-1,-1,-2,-1
1514893825162672,0,-2,-1,-1,0,0,-1,0
1514893825162672,-2,-1,-3,-2,-1,0,-1,-2
1514893825177691,0,-1,-2,-1,0,-2,1,0
1514893825177691,-3,-1,0,-3,-2,-3,-1,-2
1514893825179198,-2,0,-1,0,-2,-1,0,0
1514893825179198,-3,-2,-1,-1,-3,-2,0,-1
1514893825200206,1,0,-1,1,-2,-2,-1,0
1514893825200206,-1,-1,-1,-1,-1,2,-2,1
1514893825201708,-2,0,1,-2,-2,-3,-1,-1
1514893825201708,-1,-1,-2,-1,-2,-2,-1,-2
1514893825214209,-1,-2,-3,-2,-1,0,-2,-2
1514893825214209,-1,-2,1,0,-2,-1,0,-1
1514893825224224,1,-1,-3,0,-2,-1,0,-3
1514893825224224,-1,-4,0,-1,0,-1,-1,-1
1514893825237733,1,5,1,-2,-2,-1,0,0
1514893825237733,-1,-1,-1,0,1,-1,-1,-1
1514893825239235,-2,-2,-2,5,0,1,0,0
1514893825239235,-2,-2,-4,-11,-2,0,-2,0
1514893825260252,-2,-3,-2,1,0,0,0,0
1514893825260252,-3,-3,0,-3,-3,-1,-2,-2
1514893825262741,0,0,1,1,-1,-1,-1,0
1514893825262741,-1,-1,-1,1,0,0,-1,-2
1514893825273761,-1,-1,-1,-3,0,-2,0,0
1514893825273761,0,-2,-3,0,-3,-1,-1,-2
1514893825282756,-2,-1,-1,-2,-1,-2,-1,-2
1514893825282756,2,1,-1,0,-1,-1,-1,0
1514893825297776,-1,-1,0,-1,0,-1,0,-1
1514893825297776,-1,0,-2,0,1,0,1,-1
1514893825299267,-2,-1,-1,-4,0,0,-1,-1
1514893825299267,-1,1,-1,0,-1,0,-1,-1
1514893825320782,-1,-1,-1,1,-2,-1,0,-3
1514893825320782,0,-3,-2,-2,-1,0,-1,-1
1514893825324790,-1,-1,-2,-3,0,0,-1,-2
1514893825324790,-1,1,0,0,-2,-3,-3,-1
1514893825334302,0,1,-2,1,4,2,-1,0
1514893825334302,-1,-4,-3,1,-2,0,0,-2
1514893825342798,0,-1,-2,-3,-2,-1,0,0
1514893825342798,-1,0,0,1,-2,0,1,1
1514893825357808,-1,-2,0,-1,-2,-2,-2,0
1514893825357808,-4,-1,1,-3,-1,-3,-1,0
1514893825359322,-2,-2,-1,-1,0,-2,-1,-2
1514893825359322,0,-1,-2,1,-1,-2,0,-2
1514893825379337,-2,3,-1,0,-1,-4,-3,-1
1514893825379337,-1,-3,-4,0,1,1,0,-1
1514893825397837,-2,-1,0,0,-3,0,-2,-1
1514893825397837,1,-1,-1,-1,1,-2,0,-1
1514893825398357,-1,1,-2,-2,-2,-2,-1,-1
1514893825398357,1,-2,-1,0,0,-3,-2,-1
1514893825408855,-3,-1,-1,-1,-1,-1,0,-2
1514893825408855,-1,0,-1,13,-2,1,-1,-2
1514893825417852,-1,-4,-2,-12,0,-3,-2,-1
1514893825417852,0,0,0,-4,-2,-2,-2,-1
1514893825421363,-1,-2,-1,-1,0,-3,-1,0
1514893825421363,-1,-1,-1,-2,-1,-1,-1,-2
1514893825439879,-2,-4,0,2,-2,1,0,-3
1514893825439879,-2,-3,-1,2,-1,0,-2,-1
1514893825441868,1,2,2,-3,0,-1,-1,1
1514893825441868,-1,-2,0,-3,-2,-1,-1,1
1514893825453886,-1,-3,-4,1,0,-1,0,-2
1514893825453886,-1,0,0,-4,-1,-1,-1,-2
1514893825470399,-2,0,0,2,-2,-2,-1,-2
1514893825470399,-2,0,-1,-2,0,-2,-2,0
1514893825477403,-1,0,-3,-1,-1,0,-1,0
1514893825477403,-1,-2,-2,1,-1,0,-1,-1
1514893825479395,-1,-1,-1,-1,-1,-1,-2,0
1514893825479395,-2,-1,-1,-4,-1,-2,0,-2
1514893825499909,-3,-1,-1,-2,-1,-1,0,-3
1514893825499909,0,-3,0,1,-1,1,-1,0
1514893825501410,-1,-2,-1,-2,-2,-1,-1,-1
1514893825501410,-1,-1,-4,-4,-1,0,-2,-2
1514893825522434,1,-2,-1,1,-2,-1,-1,0
1514893825522434,-1,-1,-1,-1,-1,-1,-3,-1
1514893825523931,-1,0,-1,-2,-1,-2,-2,0
1514893825523931,-2,1,-1,-3,-1,-1,-1,-1
1514893825537936,-2,-3,-2,1,-2,-1,-1,1
1514893825537936,0,-2,-1,-3,-2,-1,0,0
1514893825539445,-3,-1,0,0,2,-1,-1,-1
1514893825539445,-1,1,1,-1,-1,-1,-2,-2
1514893825559966,-2,-2,1,-2,-1,-3,-1,-1
1514893825559966,0,-3,-1,10,-1,-1,-1,-2
1514893825562463,-1,-2,-2,-11,-1,0,0,-1
1514893825562463,-1,-2,-2,-3,-2,-2,0,0
1514893825582968,-2,-2,-2,0,1,-1,-1,0
1514893825582968,-1,-2,-1,-1,0,-1,1,3
1514893825584979,-1,0,-2,4,-1,0,0,-2
1514893825584979,1,1,0,0,-1,-1,-1,0
1514893825597982,-2,-2,-1,0,-2,0,-2,-2
1514893825597982,-2,-1,-1,-3,-2,-1,-2,-2
1514893825598980,-1,0,-2,1,-2,0,-1,-2
1514893825598980,-1,0,-1,-3,-1,0,0,1
1514893825620006,-1,0,-2,0,-1,0,0,-1
1514893825620006,-3,-3,1,-3,-2,-2,-1,-1
1514893825622010,-1,-1,-1,-2,-1,0,-2,-1
1514893825622010,-1,-1,0,0,1,-1,-1,-4
1514893825642509,1,-2,2,-2,0,-1,1,-1
1514893825642509,-1,-1,-1,-2,-1,-2,-1,-1
1514893825645012,0,-3,-2,0,-2,-2,-1,1
1514893825645012,-1,0,-1,0,-2,0,0,-2
1514893825657523,-1,0,0,-2,-1,0,0,-1
1514893825657523,-1,-3,-1,-1,-1,-2,-2,-1
1514893825659021,-1,1,-1,-1,-2,-1,-1,0
1514893825659021,0,1,-1,-1,1,-3,-1,0
1514893825680057,-1,-1,0,-1,-2,-1,-2,-1
1514893825680057,-1,0,-1,-2,0,-1,0,-2
1514893825683552,-2,-2,-3,-1,0,1,-1,-2
1514893825683552,0,-1,-2,-1,-2,-1,0,-1
1514893825702552,-2,-2,-2,-1,0,0,-2,0
1514893825702552,0,-2,0,-1,0,-1,-1,1
1514893825704053,1,0,-1,1,-1,-2,-2,-1
1514893825704053,-1,-2,-2,-2,-1,0,-1,0
1514893825717062,1,-3,-2,-2,-2,-2,-1,1
1514893825717062,0,-2,-2,-1,-2,0,-2,1
1514893825723567,-1,-3,0,0,0,-1,-2,-2
1514893825723567,-3,0,1,-1,-1,-2,-1,-1
1514893825740088,0,0,-1,-1,-2,-1,-2,-3
1514893825740088,-1,-2,-1,-3,-2,-1,0,-1
1514893825741580,-2,0,-2,0,-1,-3,-2,-1
1514893825741580,0,0,-1,0,-1,-2,-1,-2
1514893825762594,-3,0,-1,0,0,0,0,0
1514893825762594,-2,-4,-2,-1,0,-1,-1,-2
1514893825766097,-2,-1,0,-1,-1,0,-2,-2
1514893825766097,1,0,-1,-1,-1,-2,-1,1
1514893825777105,1,-2,-2,0,0,-1,0,1
1514893825777105,-1,0,0,-1,1,1,-1,-2
1514893825784110,-1,0,-2,0,-2,-1,-2,-1
1514893825784110,-1,-1,-1,-1,-1,-1,-1,-1
1514893825800131,-2,-4,-1,-3,-3,1,-3,0
1514893825800131,-2,-1,-2,-2,-1,-2,0,-1
1514893825801637,-1,1,-1,-2,-1,-1,0,1
1514893825801637,-1,0,0,-1,-1,0,-2,-2
1514893825822646,-2,-2,0,-2,-1,-4,-1,-1
1514893825822646,-1,-3,-1,-1,-3,-1,-1,-3
1514893825824153,-1,-1,0,-2,-2,-1,0,0
1514893825824153,-1,0,-2,-1,-2,0,0,-1
1514893825837162,-1,-1,-3,-1,-1,-1,-3,-2
1514893825837162,-1,-3,-1,0,-1,-2,-1,0
1514893825843652,-1,1,-2,-1,1,-1,1,0
1514893825843652,-3,1,-1,-1,-2,-1,0,-1
1514893825860167,-1,-2,-1,0,-1,-1,-1,-1
1514893825860167,0,0,0,-1,0,0,-2,-1
1514893825863666,-2,-1,-1,-1,-1,1,-2,-3
1514893825863666,0,-2,-2,1,-1,-2,-3,-2
1514893825890702,1,0,0,-1,-2,0,-1,1
1514893825890702,-2,-2,-2,-1,-2,0,-1,1
1514893825892198,-1,-2,-2,-2,-1,-1,1,0
1514893825892198,-1,2,-1,-2,-2,0,0,-1
1514893825896689,-1,-1,-1,-2,0,-2,-2,-3
1514893825896689,-3,-3,0,-1,-1,-1,-1,-2
1514893825903709,0,-1,0,0,-1,0,-1,-3
1514893825903709,-1,0,-1,-1,-1,0,-2,0
1514893825920206,1,-3,0,-1,0,-1,0,0
1514893825920206,-2,-1,-1,0,0,-2,-1,-1
1514893825921707,-2,-2,-1,-1,0,-1,1,0
1514893825921707,1,0,-2,-3,0,0,-1,-1
1514893825942736,-1,-1,-2,0,-2,-1,-2,-2
1514893825942736,-2,-3,-2,-1,0,0,-1,-1
1514893825944232,-1,-1,0,2,-2,-1,1,-2
1514893825944232,-1,-1,-2,-2,-1,-2,-2,0
1514893825956735,-2,-1,-2,-1,1,0,-2,-3
1514893825956735,-1,-1,1,-1,-2,-1,-1,-3
1514893825963738,0,0,-1,-1,-2,-1,-3,-1
1514893825963738,0,-1,-2,-2,-2,0,-1,-1
1514893825980248,1,-2,-2,-1,-2,0,2,1
1514893825980248,0,0,-1,0,1,-2,-1,-1
1514893825983752,-2,-2,-1,-3,0,-1,-2,0
1514893825983752,-2,0,-1,2,1,0,0,0
1514893826001774,-2,-3,-2,-1,-2,-1,0,-1
1514893826001774,-1,-3,-2,-1,-1,-2,-1,-1
1514893826025781,0,1,0,-1,-2,-2,-1,-2
1514893826025781,0,0,1,-1,-2,-1,-2,-1
1514893826026781,0,-3,0,-2,-1,-2,-1,-1
1514893826026781,-2,-2,0,-1,-1,0,-3,-1
1514893826028283,0,1,-1,-2,-2,-1,-2,-2
1514893826028283,-1,1,0,-2,-1,-2,-1,0
1514893826040293,-1,-1,0,-1,0,0,0,0
1514893826040293,0,-1,-3,-3,0,-1,0,-1
1514893826041792,0,0,-2,0,0,-1,-1,-2
1514893826041792,0,0,-1,-1,-3,-2,-1,-1
1514893826062806,1,-1,-3,-4,-1,0,0,0
1514893826062806,-1,-3,0,-1,0,0,0,-1
1514893826064308,0,-1,-1,0,0,-1,-2,-1
1514893826064308,1,1,0,-1,-1,-1,-1,-1
1514893826076329,-2,-2,-3,-2,0,-2,-3,-2
1514893826076329,-1,-1,-2,-1,-2,-1,0,1
1514893826085338,0,0,-3,-2,0,0,-1,-2
1514893826085338,-1,-1,-1,-2,-1,0,0,-1
1514893826100333,-1,1,-1,-1,0,-2,-1,0
1514893826100333,0,-2,-2,-2,-2,-1,-1,0
1514893826101835,-1,0,-1,0,0,-1,0,0
1514893826101835,1,0,-2,-2,0,-2,-2,0
1514893826122361,-1,-1,0,-1,0,0,1,1
1514893826122361,0,-1,-2,-1,1,-1,-2,-1
1514893826124363,-1,0,-2,-1,-1,-1,-1,-1
1514893826124363,-1,0,-2,-2,0,1,0,-3
1514893826136360,-1,-2,-1,-1,-1,-2,-2,-3
1514893826136360,-2,-4,2,-2,-2,-2,0,-1
1514893826145375,-3,-1,-2,0,-1,-2,-1,0
1514893826145375,-2,0,-1,-1,-3,-1,0,-1
1514893826167893,-2,-4,0,0,-3,-1,-1,-1
1514893826167893,-1,-1,-3,-2,-1,-2,0,-2
1514893826169382,-1,0,0,-1,0,1,-1,-1
1514893826169382,0,-1,-1,1,-1,-1,-2,-2
1514893826182892,-3,-1,0,-2,-2,-1,-2,-2
1514893826182892,-2,-2,0,-1,-3,-1,0,0
1514893826184393,0,0,1,-1,-2,-1,1,0
1514893826184393,0,1,-2,-2,0,-2,-2,-2
1514893826196401,-1,-3,-2,-2,-2,-2,-2,0
1514893826196401,-1,-3,-1,0,0,1,-2,-1
1514893826205408,-1,0,-1,-1,-1,-2,-1,-2
1514893826205408,0,0,0,-1,-1,-1,0,0
1514893826220420,-1,-2,-2,-1,1,-2,-2,-2
1514893826220420,0,-3,-1,-1,0,0,-1,0
1514893826221923,-2,0,-1,-2,-4,0,-2,0
1514893826221923,0,1,1,-2,-1,-1,-2,1
1514893826242934,-1,-1,-3,-3,-1,-2,-1,1
1514893826242934,-1,-1,-2,-1,-1,-1,-1,-1
1514893826244435,-1,0,-2,-2,-2,-2,0,0
1514893826244435,-2,0,-1,-2,-1,-3,-2,-1
1514893826256444,0,-1,0,-3,-2,0,-1,-1
1514893826256444,-1,-1,-1,1,0,0,0,0
1514893826265450,0,0,0,0,-2,-1,0,-3
1514893826265450,-4,0,-2,-2,-1,-1,0,-1
1514893826279966,-1,-1,-1,0,-2,0,-1,-1
1514893826279966,-2,-4,-1,-1,0,0,-1,-3
1514893826281962,-1,0,-1,-2,-1,-3,-2,1
1514893826281962,0,-1,-2,0,-2,-1,-2,-1
1514893826302976,0,-1,0,-1,0,-1,0,0
1514893826302976,-1,-1,0,-1,-1,-2,-1,-1
1514893826304478,-3,-1,-1,-2,0,-3,-2,-1
1514893826304478,-2,0,-2,1,2,0,1,0
1514893826316487,-1,-1,-3,-1,-3,0,0,0
1514893826316487,1,-2,0,-1,-3,-1,0,0
1514893826325492,-1,0,-1,0,-2,0,0,-1
1514893826325492,0,0,0,-1,-2,-1,-1,-2
1514893826340002,0,-2,-1,0,1,0,-2,-1
1514893826340002,-2,-3,-1,-1,-1,-2,-2,0
1514893826341506,-1,0,-2,0,-1,-3,-2,-1
1514893826341506,-2,-1,-3,0,0,-1,0,1
1514893826362519,1,-2,-1,0,-2,1,-1,0
1514893826362519,-2,-1,-1,-2,-1,-1,-3,-2
1514893826364020,-1,-1,-1,-2,-1,-1,0,0
1514893826364020,0,2,-1,0,-3,-1,-2,-3
1514893826376529,1,-3,-1,-1,-1,-2,-1,-2
1514893826376529,-2,-1,-2,-1,-2,1,0,-1
1514893826392539,1,-1,-2,-1,-1,-2,-2,-2
1514893826392539,0,1,-1,-1,-1,-1,-1,0
1514893826400546,-2,-2,0,-2,-1,-1,0,0
1514893826400546,0,-2,-3,-1,0,-1,-1,-1
1514893826403049,0,2,-3,0,-1,1,-1,-1
1514893826403049,-1,0,-1,-2,-1,0,-1,0
1514893826430568,-1,-2,-1,-1,-1,-2,-1,-1
1514893826430568,-2,-3,0,1,-1,0,-1,-1
1514893826431568,-1,0,-3,-2,-1,1,-1,-2
1514893826431568,-2,0,-2,-2,-1,-2,-1,0
1514893826445078,-2,-2,-2,-1,-3,-1,-3,-3
1514893826445078,-2,-3,-2,-2,-1,-1,0,-2
1514893826446578,-1,-1,-1,0,1,-2,1,-1
1514893826446578,-1,0,0,-1,-1,0,-1,-1
1514893826460088,-2,-5,0,-3,-1,-1,-1,-2
1514893826460088,0,-3,0,0,-2,-1,-1,0
1514893826461590,0,-1,-1,-2,-2,-1,0,-1
1514893826461590,0,1,2,-2,0,-2,0,-3
1514893826483109,-1,-1,-2,1,1,-1,0,-1
1514893826483109,0,-2,0,0,2,-1,0,0
1514893826484607,-1,-1,-1,-1,0,-1,-1,1
1514893826484607,0,-1,-2,-2,-2,-3,-1,0
1514893826505120,-1,-2,0,2,2,0,-2,-1
1514893826505120,-2,-1,-1,-1,-2,-2,-2,-2
1514893826506621,-1,-1,-2,-1,0,-2,-1,0
1514893826506621,-1,-1,-2,-1,-3,-3,-1,0
1514893826520136,-2,-3,-1,0,-2,0,-2,-1
1514893826520136,-2,-3,-1,-2,-1,-1,-3,-2
1514893826522131,-2,-2,0,0,0,1,-1,0
1514893826522131,0,1,-1,-2,-2,-1,-1,-1
1514893826542649,-1,-2,0,-1,-1,-1,1,-1
1514893826542649,-1,-2,-1,-2,-2,-2,-2,1
1514893826544147,-2,1,-1,-2,-2,-1,0,0
1514893826544147,-3,-2,-3,1,1,0,-1,-2
1514893826565667,-2,-3,0,0,0,-2,-1,-2
1514893826565667,0,-2,-1,0,0,0,-1,-1
1514893826567165,0,1,0,-1,-2,-2,-2,-3
1514893826567165,0,1,-1,-1,-1,-2,-1,-1
1514893826581174,0,-3,-2,-2,-1,-3,-1,-1
1514893826581174,-2,-2,-1,0,-2,-1,0,-2
1514893826584679,1,-2,-2,-1,-1,-1,0,-2
1514893826584679,1,2,-2,-1,0,0,-1,-3
1514893826603193,-2,-1,-1,-1,-3,-2,-2,-2
1514893826603193,-2,-3,0,-2,-1,-1,-2,0
1514893826605191,-2,1,0,0,-2,-1,-2,-1
1514893826605191,-1,1,-2,-1,-1,0,0,0
1514893826625705,-1,-1,-3,-2,-1,0,-1,0
1514893826625705,-1,-3,-3,-3,-1,-1,-1,0
1514893826627209,-2,-2,-1,-2,-1,-1,0,-1
1514893826627209,-1,0,-2,-1,-2,-1,-1,-1
1514893826640216,0,-2,-2,-2,-1,0,-3,-1
1514893826640216,-1,-1,0,-2,-2,-1,-2,0
1514893826641717,0,0,-2,-1,-2,-3,-1,-2
1514893826641717,-1,0,-1,-1,-1,-1,-2,-1
1514893826661730,-1,-1,-1,-1,1,-2,-1,1
1514893826661730,-1,-1,-1,0,-1,-2,0,-1
1514893826662731,-1,0,-1,-1,0,-1,1,0
1514893826662731,-1,1,0,-2,-1,-1,-1,-1
1514893826684748,-1,-2,1,0,-2,0,-2,-1
1514893826684748,-2,-2,0,0,0,-1,0,-2
1514893826685251,-1,1,0,-2,-1,0,-2,-1
1514893826685251,-1,0,-2,-1,-2,0,0,1
1514893826699259,-1,-3,-1,-2,-1,-1,-1,0
1514893826699259,-4,-4,-2,-1,-1,-2,-1,-1
1514893826706761,-3,-1,-1,0,-1,-2,-2,-1
1514893826706761,0,-2,-4,-1,-1,0,-2,-1
1514893826722773,-1,-1,-1,0,-1,-1,0,-1
1514893826722773,0,-1,-1,1,0,2,0,-2
1514893826724774,-2,1,-3,-1,0,0,0,0
1514893826724774,0,1,-1,-1,1,-2,-2,-1
1514893826744288,-1,1,-1,-1,-1,1,0,-1
1514893826744288,0,-3,0,-2,-1,0,-2,0
1514893826745289,1,-1,-1,-1,-2,-1,-1,0
1514893826745289,1,0,0,-1,-2,-2,0,0
1514893826758798,-2,-3,-1,0,-1,-2,0,-2
1514893826758798,-2,-2,-1,-2,-2,-2,-1,0
1514893826766804,-1,0,-1,-2,-3,0,-2,-1
1514893826766804,-1,0,-2,-1,0,-1,-1,1
1514893826782316,0,-2,0,-2,0,-1,-1,-2
1514893826782316,-1,-3,0,0,-1,-1,-1,-2
1514893826783318,-1,-1,-2,-1,0,0,-2,-1
1514893826783318,-1,0,-1,-3,-2,-1,-2,-2
1514893826805341,0,-1,-1,1,0,1,0,0
1514893826805341,0,-3,-1,0,1,0,-1,-1
1514893826805847,-1,0,2,-2,-2,-1,0,-1
1514893826805847,-3,0,-1,1,-1,-1,0,0
1514893826819351,-2,-2,0,-1,-1,-1,-2,-1
1514893826819351,-2,-1,-2,0,-1,0,-1,-2
1514893826820342,0,0,-1,0,0,0,-2,-2
1514893826820342,-1,-1,-1,-2,0,1,0,-2
1514893826841867,1,0,-2,0,0,-1,-2,-1
1514893826841867,1,-2,-1,-1,-2,-1,-1,0
1514893826842868,-2,-1,-3,-2,0,0,-1,0
1514893826842868,-1,2,-2,-1,1,-1,-1,0
1514893826872388,0,-2,0,-1,-3,-2,0,0
1514893826872388,-2,-1,1,-1,1,0,-1,0
1514893826873380,0,-1,0,-2,-2,0,-1,0
1514893826873380,-1,-1,0,0,-2,-2,-1,-1
1514893826879393,-2,-2,-1,-2,-1,-2,0,0
1514893826879393,-3,0,-2,-1,-1,0,0,0
1514893826880384,-1,0,-1,-1,0,-1,0,-2
1514893826880384,0,0,-1,-1,-2,-1,-2,-1
1514893826901910,-1,-2,-1,-1,-1,-1,0,-3
1514893826901910,0,-1,-1,0,-1,-2,-2,-2
1514893826902400,-1,1,-1,1,-3,-1,-1,-1
1514893826902400,-1,1,-1,-1,-3,-2,-2,0
1514893826924932,-3,-2,-1,0,0,0,-3,-2
1514893826924932,-1,-2,-1,-2,-2,-3,-1,0
1514893826926933,1,0,-1,-1,1,0,-2,-1
1514893826926933,0,1,0,-1,0,-2,0,1
1514893826939426,1,-4,-1,-3,-2,1,-1,-1
1514893826939426,-2,-4,-1,0,-1,0,-2,-2
1514893826939927,-1,-1,0,-1,-2,-2,-2,-1
1514893826939927,0,-2,-2,-1,-1,-1,0,0
1514893826961954,-1,-2,-1,-1,-1,0,0,-2
1514893826961954,-1,-2,-1,0,-2,-1,-1,-1
1514893826962442,1,0,0,-2,-2,-2,-2,-2
1514893826962442,-2,1,0,-1,0,-1,-1,-3
1514893826984958,-2,-3,-1,-1,-2,-1,-1,0
1514893826984958,-2,-2,-1,0,-1,-1,0,-3
1514893826986459,-2,0,-2,0,-1,-2,-2,0
1514893826986459,-2,1,-2,-1,0,-1,-1,-2
1514893827002482,-1,-1,0,-1,-1,-2,0,-1
1514893827002482,-2,-2,-1,-1,-1,0,0,1
1514893827003483,-1,-1,-2,-2,0,0,2,-2
1514893827003483,-1,1,0,0,-3,-1,0,-4
1514893827021994,-1,-2,-2,-2,-1,0,-2,-1
1514893827021994,0,-2,-1,0,-1,2,0,-1
1514893827022500,0,-1,0,-2,0,-3,-1,-1
1514893827022500,-1,0,-2,-2,-1,-1,-1,1
1514893827044501,-2,-3,-1,-1,-1,0,-2,-2
1514893827044501,-1,-2,-1,-1,0,-2,-1,-1
1514893827045020,-2,0,-3,1,-2,-1,-1,-1
1514893827045020,-2,-2,0,-1,-2,-1,0,-1
1514893827058510,-1,-1,-1,-1,-1,-1,0,1
1514893827058510,1,-4,-1,0,-1,-2,-1,1
1514893827067017,0,1,-1,-2,-2,1,-3,-1
1514893827067017,0,2,0,-1,-2,0,-2,-2
1514893827082528,0,0,-1,-3,-1,-2,0,0
1514893827082528,-2,-1,-2,0,1,0,-1,-2
1514893827083030,-1,-1,-1,-2,0,-1,-1,0
1514893827083030,0,-1,0,-2,-1,0,0,-1
1514893827104555,0,-3,1,-1,0,-1,-2,0
1514893827104555,2,-6,-2,-2,-1,-3,-2,-2
1514893827105044,-2,-2,-1,-2,-2,0,1,-2
1514893827105044,0,0,-3,-1,0,0,-1,-2
1514893827119065,0,-1,-1,-1,-2,0,-1,-1
1514893827119065,-2,-1,1,-2,-2,-1,0,-1
1514893827135074,-1,0,-1,-1,-2,-2,0,1
1514893827135074,-1,0,-1,-1,-1,-2,-1,0
1514893827142078,-1,-1,-3,0,-2,-1,-1,-1
1514893827142078,0,-2,-3,-1,0,-2,-1,-3
1514893827142579,1,0,-2,0,0,1,0,-3
1514893827142579,-1,1,-2,-1,-2,-1,0,-3
1514893827164585,0,-2,1,-2,-1,-2,-1,-2
1514893827164585,-3,-1,0,1,1,1,-3,1
1514893827166087,-1,0,0,-2,-2,-1,-1,1
1514893827166087,0,1,-3,-1,0,-3,-2,0
1514893827179105,-1,-1,-2,1,1,-2,-1,-2
1514893827179105,-2,-2,-1,-3,0,-3,0,-2
1514893827187115,1,2,-1,0,1,-2,-1,-3
1514893827187115,-1,-1,-2,-1,0,0,-1,-2
1514893827202131,-2,-1,-1,-1,-3,1,0,1
1514893827202131,-1,-3,-1,-1,-2,0,1,1
1514893827202612,-1,-2,-2,-1,-2,-1,-1,0
1514893827202612,-1,1,0,-1,-2,0,1,-2
1514893827224628,-1,-2,1,0,2,0,-1,-2
1514893827224628,-2,-3,-3,0,-2,-2,-1,-1
1514893827225129,-2,0,-2,-1,-1,-2,0,-1
1514893827225129,-1,-2,0,-2,-2,-1,0,-2
1514893827238651,-2,-3,-2,0,0,-1,0,-1
1514893827238651,0,-2,0,-1,0,0,-1,1
1514893827247144,0,1,1,0,-1,0,-1,-1
1514893827247144,0,0,-1,-1,0,-2,-2,2
1514893827261665,-2,-1,-1,-1,0,-1,0,0
1514893827261665,2,0,0,-1,-2,0,-2,0
1514893827262670,-2,0,-2,-2,-1,-2,-1,-1
1514893827262670,-1,2,-1,-2,0,0,-1,-1
1514893827284169,-1,-2,-2,-1,-2,-1,-3,-1
1514893827284169,0,-3,-1,1,-2,0,1,-1
1514893827292182,-1,-1,0,-1,-1,-2,-1,-1
1514893827292182,-1,-1,-2,-2,0,-2,-1,-2
1514893827298682,-4,-2,0,-2,-1,0,-1,-1
1514893827298682,-1,-1,0,-2,-2,-2,-2,0
1514893827306698,0,1,-2,-2,-1,-1,0,0
1514893827306698,-1,-1,-1,-2,-1,-1,-1,-2
1514893827330202,1,-2,1,0,-1,-2,-2,-1
1514893827330202,-1,-2,-2,0,-1,-2,-1,0
1514893827331204,-1,0,-1,-3,-2,-1,-1,-1
1514893827331204,-1,1,-1,-1,-1,-1,-2,0
1514893827352718,0,0,-3,-2,-1,0,-1,-1
1514893827352718,-2,-2,-1,-1,-1,-1,-1,-3
1514893827353218,-2,-1,1,-1,-3,-2,-2,0
1514893827353218,-1,-2,-2,-2,-1,-1,-1,-1
1514893827358725,0,-4,1,1,-2,-2,0,-2
1514893827358725,-1,-3,0,0,-1,1,0,-1
1514893827367230,0,0,-1,0,-1,-3,0,0
1514893827367230,-1,-2,1,0,-1,-2,0,0
1514893827383241,0,-1,-4,0,-2,-2,-2,-2
1514893827383241,-3,-1,-2,-1,0,-1,-2,-1
1514893827389245,-1,0,-1,-2,-1,-1,-1,-1
1514893827389245,0,0,-2,-1,-1,-1,0,-1
1514893827413761,-1,-2,0,-2,0,-1,0,0
1514893827413761,0,-2,-1,-1,0,-1,0,-1
1514893827415782,-1,-1,-2,-1,-1,-1,-2,-1
1514893827415782,-1,1,-2,1,-2,-1,2,0
1514893827418775,0,-1,-1,-3,-1,-1,0,-1
1514893827418775,-1,-2,0,-2,0,0,-1,0
1514893827426780,-3,-1,-1,0,-1,0,-2,1
1514893827426780,-1,-1,-1,-1,-3,-2,-1,0
1514893827441790,-1,-1,2,1,0,0,-3,-1
1514893827441790,-3,-4,1,-1,-1,1,-1,-2
1514893827442792,0,-2,-2,-2,-1,0,-1,-4
1514893827442792,-1,-1,-1,-1,0,0,-2,-3
1514893827464802,-1,-1,0,0,1,-2,-1,0
1514893827464802,0,-1,-2,-3,-1,-3,1,-1
1514893827466300,1,1,-2,-2,-1,-1,0,0
1514893827466300,0,0,-2,-4,-1,-1,0,0
1514893827487323,0,-1,-1,-1,-1,-2,-1,-1
1514893827487323,-1,1,0,0,-1,0,-1,-1
1514893827489324,-1,0,-2,0,-3,-1,0,-1
1514893827489324,-1,0,-3,-2,-2,-1,-2,-1
1514893827501833,0,-2,-1,-1,0,0,0,-2
1514893827501833,-1,-3,-3,-2,-2,-2,0,-1
1514893827502834,-2,-2,-2,-2,-1,0,-1,-1
1514893827502834,0,0,-1,0,-2,-2,-2,-1
1514893827524340,0,-2,0,-1,-1,0,-2,-1
1514893827524340,-2,-1,1,0,-1,-1,-1,-1
1514893827525340,-1,-1,0,1,1,-2,-1,-1
1514893827525340,-1,0,-1,-1,-1,-2,-2,-1
1514893827554876,0,-2,-3,-1,-1,0,0,0
1514893827554876,-1,-1,-1,1,-3,-1,-1,-1
1514893827555861,-1,2,0,-1,-1,0,-1,-1
1514893827555861,1,-2,-2,-2,0,0,-1,-1
1514893827561866,-2,-2,-2,-2,-2,-1,-1,0
1514893827561866,-2,-3,-1,-2,-1,1,-3,-1
1514893827563378,-1,-1,-1,0,0,-1,-1,0
1514893827563378,-1,0,-1,-2,0,-1,-2,-1
1514893827585393,0,-2,-2,0,-3,-1,-2,-1
1514893827585393,1,-1,-2,-1,1,-1,0,0
1514893827585883,1,-1,-1,-1,-1,-3,-2,0
1514893827585883,-1,0,-1,-2,-2,-1,0,1
1514893827607399,-3,-3,0,1,-1,-1,0,0
1514893827607399,-2,0,0,0,0,-1,-2,0
1514893827608398,-1,-1,-1,-2,-2,-2,-1,-2
1514893827608398,0,-2,0,0,-1,-2,0,0
1514893827621921,-1,-2,-1,-1,-1,-3,-2,-2
1514893827621921,-2,-3,-1,-2,-3,-1,-1,-2
1514893827622426,-1,2,0,-2,-1,-1,-1,1
1514893827622426,-2,0,-2,-1,-1,-2,-2,-3
1514893827644935,-1,-2,-1,-2,-1,0,0,-1
1514893827644935,1,-2,-1,-1,0,-1,-2,-1
1514893827645927,-1,0,-2,-1,1,-1,-2,-2
1514893827645927,0,0,-2,-2,-1,1,-1,-2
1514893827667440,-1,-1,-2,-1,-1,0,-1,0
1514893827667440,-2,-1,-2,0,-1,-1,0,-1
1514893827668441,-2,-1,-2,-1,-2,0,0,-2
1514893827668441,-1,1,-1,-2,-1,-4,-2,-1
1514893827682473,-2,-1,0,-2,0,-1,0,-3
1514893827682473,1,-3,1,-1,1,-1,-2,-1
1514893827682952,-2,1,-2,-1,-2,-2,-1,-2
1514893827682952,-2,0,-2,-1,-2,-1,-1,-2
1514893827704467,-1,0,-2,0,-3,-2,-2,0
1514893827704467,-2,1,-2,-1,0,0,-1,-1
1514893827704985,0,1,-1,0,0,0,-1,0
1514893827704985,0,-2,-1,0,-2,0,-1,0
1514893827727493,0,-3,0,-1,-1,-2,0,0
1514893827727493,-1,-2,-1,-2,-1,-1,-1,-2
1514893827728494,2,-1,-2,1,0,-1,-1,1
1514893827728494,-1,0,1,-2,0,-1,-2,-1
1514893827741502,-2,-3,-1,0,-2,0,-1,-1
1514893827741502,-1,-2,-1,0,-1,-1,-1,-1
1514893827749498,-1,-2,-1,-1,-3,-2,-1,0
1514893827749498,-2,-1,-1,-1,-1,-2,-1,0
1514893827771526,1,-1,-1,-2,1,-2,1,-1
1514893827771526,-1,-1,1,-1,-1,-1,0,-1
1514893827779529,-1,0,1,-1,-1,0,0,0
1514893827779529,0,-2,0,0,-2,0,-1,0
1514893827787535,-1,-1,-1,0,-3,-3,0,0
1514893827787535,-2,-1,-1,0,0,-1,-2,-1
1514893827788526,0,-1,-2,-2,-2,-3,1,-1
1514893827788526,0,-2,-1,0,1,0,0,-2
1514893827802048,0,-1,-3,-1,-1,0,0,-3
1514893827802048,-1,-1,0,0,-1,-1,0,-1
1514893827802537,-3,0,-1,-2,-1,0,-1,-2
1514893827802537,0,1,-1,-1,-1,-1,0,0
1514893827824551,-2,-2,-1,0,0,-1,-1,-1
1514893827824551,-1,-1,0,-1,-4,-2,0,-1
1514893827832074,0,-1,-1,-1,0,-2,0,-3
1514893827832074,-2,-1,-2,-3,-1,-1,0,0
1514893827847569,0,-1,-1,-2,0,0,-2,-2
1514893827847569,-1,-1,-3,-1,-1,1,0,0
1514893827848573,-1,0,-2,-1,-1,0,-1,-1
1514893827848573,-3,-3,0,-2,1,-1,-1,-2
1514893827861587,0,-2,0,0,-1,-2,-1,-1
1514893827861587,-2,-1,-2,1,0,-2,-1,1
1514893827862588,-1,-1,-1,-1,-2,-1,-1,-2
1514893827862588,-1,-2,-2,-2,-3,-2,-3,-1
1514893827884615,-2,-2,-1,-1,-1,-3,-1,-1
1514893827884615,-2,-1,-1,-1,-1,-1,0,-3
1514893827885123,-1,1,0,-2,-1,0,0,0
1514893827885123,-1,0,-1,0,-2,-1,0,-2
1514893827908119,-2,-2,1,-1,-2,0,1,-1
1514893827908119,-2,-2,-3,-1,-1,-2,-1,0
1514893827908610,-2,-2,-1,0,0,0,-2,0
1514893827908610,0,-2,0,-1,-2,0,-2,0
1514893827921629,-1,-1,-1,-2,-2,0,-2,0
1514893827921629,-1,0,-1,-1,-1,-1,-1,-1
1514893827922621,-1,-1,0,-1,-3,0,-1,0
1514893827922621,-1,-1,-2,-1,-1,-1,-1,-2
1514893827944639,-1,-3,2,1,3,0,-1,-1
1514893827944639,0,-2,1,-2,-1,-2,-2,-1
1514893827945137,0,-1,0,-1,-2,-2,-1,-2
1514893827945137,-1,0,-2,-1,-3,-3,-1,-1
1514893827967662,-2,-3,-2,-2,0,0,-2,0
1514893827967662,-1,-2,-2,0,-2,-1,-2,-1
1514893827968158,-1,1,-2,0,0,-1,-1,0
1514893827968158,-1,-2,-1,-2,0,0,-1,-1
1514893827982165,1,0,-2,-2,-2,0,-1,-1
1514893827982165,-2,1,0,-1,0,-1,-1,-2
1514893827982665,-1,2,0,-2,-2,-2,0,-2
1514893827982665,0,0,-1,-1,-1,-2,-2,-1
1514893828004188,-4,-3,-2,-1,-2,-3,0,-1
1514893828004188,0,0,-2,-1,-1,0,0,1
1514893828005180,-3,1,-2,0,-1,0,-1,0
1514893828005180,0,0,-1,-1,0,-2,-2,-1
1514893828027707,-1,-2,-1,-1,-1,-1,-1,0
1514893828027707,-2,-2,2,-1,-1,0,0,0
1514893828029208,-1,-1,-1,0,1,-2,0,0
1514893828029208,-1,-1,-1,-1,-1,0,-1,0
1514893828041214,-1,-2,1,-2,-3,1,-3,0
1514893828041214,0,-2,-2,-1,-2,-2,-1,-4
1514893828049712,2,0,-2,-2,-1,0,-2,0
1514893828049712,0,-1,-2,-1,-1,-3,1,-2
1514893828064233,-1,-2,-2,-1,-2,0,-1,1
1514893828064233,-1,-1,0,-2,-1,-1,-2,-1
1514893828071735,-3,-1,-1,-1,1,0,-2,-3
1514893828071735,0,0,1,-3,-1,-1,-1,0
1514893828088738,-3,-2,-2,-1,-1,-1,-3,-3
1514893828088738,1,0,0,-3,-1,0,0,0
1514893828089238,0,-1,-1,-1,-3,-3,0,0
1514893828089238,0,0,-1,-1,-2,0,-2,-3
1514893828110253,1,-2,-1,0,1,0,-1,-1
1514893828110253,-2,-2,-1,0,0,0,-1,1
1514893828110754,-1,-1,-1,-1,2,0,-1,-2
1514893828110754,-1,-2,-2,0,-1,-1,-1,-2
1514893828124273,0,-2,-1,-2,0,-2,0,-1
1514893828124273,-1,0,-2,0,-2,-2,0,-1
1514893828125273,-1,0,-1,-2,-1,-2,1,1
1514893828125273,-1,0,-3,0,0,1,-2,1
1514893828147781,-1,-1,-1,-1,-1,0,-1,-3
1514893828147781,-4,-1,-1,-1,-2,1,-2,-1
1514893828148281,-1,0,-1,0,-1,-2,-2,2
1514893828148281,-1,-1,-3,-1,-2,0,1,-1
1514893828161799,0,-2,-1,0,0,-2,0,-1
1514893828161799,-1,-1,-2,-1,0,-2,-1,-1
1514893828170305,-1,-1,1,-3,-1,-2,-2,-2
1514893828170305,1,-1,-1,-1,1,0,0,0
1514893828184305,0,-3,-2,1,-2,-2,-2,-1
1514893828184305,-1,-1,1,0,0,0,0,0
1514893828185306,-1,0,-1,-3,0,1,-1,-2
1514893828185306,-1,-3,0,-2,0,-1,-2,-2
1514893828207340,-1,-3,0,0,-1,-1,0,0
1514893828207340,0,1,-2,-1,-1,-2,-1,-1
1514893828208332,-1,-3,-2,0,-1,-2,0,-3
1514893828208332,-1,-2,-1,-3,-1,0,1,-1
1514893828221833,-2,-2,-1,-2,-1,1,-1,-1
1514893828221833,-1,-2,-1,-1,-2,-3,-1,-2
1514893828230839,-1,0,-1,2,1,0,0,0
1514893828230839,-1,-1,-2,0,-2,-2,0,0
1514893828244849,-1,-1,-3,-1,-2,-1,-1,0
1514893828244849,0,-1,-2,-1,-1,1,-2,-1
1514893828245849,-2,0,-1,-3,-1,-4,-1,-2
1514893828245849,0,-1,-1,0,0,-1,-1,-2
1514893828267873,-2,-2,-1,-1,-1,-2,-2,0
1514893828267873,-1,-1,-1,-1,-1,-1,0,-2
1514893828268366,-1,-1,-2,0,-1,0,0,-1
1514893828268366,0,-1,-1,-2,-2,0,-2,-1
1514893828281375,-2,-2,1,-3,-1,-1,-1,0
1514893828281375,-3,1,2,-1,0,1,1,0
1514893828289389,-1,0,0,-1,-2,0,0,0
1514893828289389,-1,-1,1,-1,-3,1,0,0
1514893828304400,1,-1,-2,-1,0,-2,-2,-1
1514893828304400,-2,-2,-1,0,0,-1,-1,-1
1514893828305394,-1,2,-2,-1,0,0,-1,1
1514893828305394,-3,-2,-2,0,-1,-1,-1,-2
1514893828327422,0,-2,1,-2,-2,-2,-1,-1
1514893828327422,0,-1,-1,-1,-1,0,-1,-2
1514893828328422,1,-1,0,0,-2,-2,-1,-1
1514893828328422,-1,-1,-1,0,0,0,-1,-2
1514893828340926,-2,-2,-2,-1,-1,-1,1,0
1514893828340926,-1,-1,-1,0,-2,-1,-1,0
1514893828349441,-1,0,-1,-3,-2,-1,-1,-1
1514893828349441,-1,-1,-2,-1,-2,-2,-2,-1
1514893828372448,-1,-2,-1,-2,-1,1,-1,-2
1514893828372448,0,1,-2,-1,-1,-2,0,0
1514893828373439,0,2,0,-1,0,-1,0,-2
1514893828373439,-1,-1,1,0,1,-1,1,-1
1514893828387459,-2,-2,-3,-1,-1,-2,-1,1
1514893828387459,-1,-2,-1,-1,-1,-1,-1,0
1514893828388460,-1,-1,-3,-2,-1,0,-2,-2
1514893828388460,-2,-3,-1,-1,-2,-2,0,0
1514893828409975,-2,-1,0,0,-2,1,0,-2
1514893828409975,-2,1,-1,-2,0,-1,-2,0
1514893828410976,-2,0,-2,-2,-1,-1,-2,-1
1514893828410976,0,-1,-1,-1,-2,-1,0,-2
1514893828424984,-1,-1,0,1,-1,-1,-2,-1
1514893828424984,0,2,-1,1,-1,0,-1,-2
1514893828426984,-2,-1,-2,0,-2,-2,-1,-1
1514893828426984,0,0,-1,-2,-1,-2,-2,-1
1514893828447993,0,0,-2,0,0,-2,-1,-2
1514893828447993,-1,-3,-1,0,-2,-1,-2,-3
1514893828449501,0,-1,-2,-1,-2,-1,-3,0
1514893828449501,-1,-1,-3,-2,0,0,1,2
1514893828470017,-2,-2,0,-2,0,1,1,1
1514893828470017,-3,-1,1,-2,0,0,1,0
1514893828471018,-1,-1,1,0,1,-1,1,-1
1514893828471018,0,-2,0,-1,-3,-1,0,0
1514893828484535,-1,-2,-1,-2,-1,-1,-1,-2
1514893828484535,0,0,-1,-2,-2,-1,-1,-2
1514893828485018,0,0,0,0,-3,0,-1,1
1514893828485018,-1,-1,-1,-1,1,0,-2,-3
1514893828507534,-1,-3,-2,0,-2,-1,-1,-1
1514893828507534,-1,0,-1,-1,0,0,-1,0
1514893828508050,-3,0,-1,0,-2,-1,1,-2
1514893828508050,0,-2,-1,-1,0,-1,-1,-1
1514893828530059,-1,-1,0,-4,-2,-1,-1,-1
1514893828530059,-2,-2,-3,0,-3,-3,-2,0
1514893828531063,1,0,-4,-2,-1,-1,0,1
1514893828531063,-1,-2,1,-1,-3,-2,-2,-2
1514893828544560,-1,-3,-3,0,-2,0,-3,-1
1514893828544560,0,-1,-1,1,-1,-1,-1,-2
1514893828545060,-1,0,-1,0,-1,0,-1,-2
1514893828545060,0,-1,-1,-1,0,-2,-2,-1
1514893828567590,0,-1,0,0,-1,-1,-1,-1
1514893828567590,0,0,-1,-2,-1,1,0,-2
1514893828568077,-1,0,-1,0,0,-2,-2,-2
1514893828568077,-1,-2,-3,1,-1,-2,0,-1
1514893828590092,-1,-3,0,0,-1,-1,0,-1
1514893828590092,-1,0,-1,0,-1,0,-1,-1
1514893828591594,0,0,-1,-2,-2,-1,-2,0
1514893828591594,0,0,-1,-1,0,-1,-1,0
1514893828604617,-3,-2,0,-1,-2,-1,-2,-1
1514893828604617,-1,0,-2,-2,0,0,-2,0
1514893828605618,-1,-1,-1,-3,-1,0,-2,-1
1514893828605618,0,-1,-2,-1,-1,-1,-1,0
1514893828627629,1,-2,-1,-1,-2,-1,0,-3
1514893828627629,-1,0,0,-1,-1,-2,-1,-1
1514893828628630,-2,2,0,0,1,-1,1,-1
1514893828628630,-1,-2,-2,-1,-3,-1,-2,0
1514893828650637,-2,-3,0,-1,-1,-2,-1,-2
1514893828650637,0,-1,-1,-1,-1,0,-1,-1
1514893828651139,1,-1,0,-1,0,0,0,-1
1514893828651139,-1,-3,-2,-1,-3,0,-1,0
1514893828664145,-1,-3,-1,-3,-1,0,-1,-1
1514893828664145,-1,1,-1,-1,0,-3,0,-1
1514893828665145,-1,1,-1,-1,-1,-2,-1,0
1514893828665145,-1,-2,-1,-1,-1,-1,-1,-2
1514893828687671,0,-2,-2,0,0,-1,-2,0
1514893828687671,-2,-3,-1,-2,-1,0,-1,-3
1514893828688162,0,-1,-2,-1,-1,1,-1,0
1514893828688162,-3,-2,0,-1,1,1,0,0
1514893828717683,-1,0,-1,-2,-2,-1,0,-1
1514893828717683,-1,1,-2,0,-1,-1,0,-1
1514893828718183,-2,-1,-2,-1,-2,0,-3,-1
1514893828718183,0,-4,0,-2,-2,-2,-2,0
1514893828724687,-1,-4,-1,-2,-2,-1,-1,0
1514893828724687,-1,-1,0,-2,-2,-3,-1,-2
1514893828733195,-2,1,-2,-1,0,-1,0,-2
1514893828733195,-2,-1,-3,0,-1,1,0,-1
1514893828747705,-1,1,1,-1,0,-2,-2,-2
1514893828747705,-2,-1,-5,-1,-1,-2,-1,0
1514893828749205,-1,-1,-1,-1,-1,1,-1,-2
1514893828749205,-2,-3,-2,-1,-2,-2,-1,-2
1514893828770229,-2,-1,-1,-1,0,-1,0,-2
1514893828770229,-2,-1,0,0,0,-1,-1,0
1514893828771731,-2,0,-1,0,0,-1,-1,1
1514893828771731,-1,-1,0,1,-2,-1,1,-1
1514893828783729,-1,-2,-2,-1,-2,-1,-1,-1
1514893828783729,1,0,-2,-2,1,-1,-2,-1
1514893828800242,-1,0,-1,-2,0,-1,0,-2
1514893828800242,-2,0,0,-2,0,-2,-1,1
1514893828807756,-1,-3,-1,0,0,-1,0,1
1514893828807756,-2,1,-1,0,-2,-1,-1,0
1514893828809248,-1,1,0,-3,-2,-1,0,0
1514893828809248,-1,-2,1,-3,-3,0,-1,-3
1514893828830266,0,-2,-1,-1,0,-2,-3,-2
1514893828830266,-2,0,-2,-1,-1,-1,-1,0
1514893828831773,-1,-1,-2,-1,-2,-1,-2,-1
1514893828831773,0,-3,-3,-1,-1,-2,-2,-1
1514893828843781,-1,-3,0,-2,-2,0,-1,-1
1514893828843781,0,-1,0,-2,-1,-1,-1,-1
1514893828852788,-2,1,-3,-1,-1,-2,-1,-2
1514893828852788,0,-2,-1,0,-1,-1,-1,-1
1514893828867298,-2,-3,-2,1,-1,1,-2,-1
1514893828867298,-3,0,-1,-1,-1,1,0,-1
1514893828869300,0,-1,0,-2,-2,-1,1,-1
1514893828869300,-1,-1,-1,-1,1,-1,-2,0
1514893828889820,-2,-1,0,-2,0,-1,-3,-2
1514893828889820,-2,0,-1,-1,-3,-1,-1,1
1514893828891805,-1,0,-1,0,-2,-2,-1,-1
1514893828891805,-3,-1,-2,-1,-2,0,-1,-2
1514893828903813,-1,-2,-1,-1,-2,-1,0,-3
1514893828903813,0,0,-1,-1,-1,0,-2,0
1514893828913821,-1,0,-2,-1,-1,-1,-2,0
1514893828913821,0,-1,-2,0,-1,-1,-1,-1
1514893828927330,-2,-2,-2,1,1,-1,0,0
1514893828927330,-1,-1,-1,-1,-2,-2,-1,-1
1514893828929332,-1,0,0,-2,-1,-2,-1,-4
1514893828929332,-1,-1,-1,-3,0,-2,-1,-2
1514893828949846,1,-2,-1,1,-3,-3,-2,-2
1514893828949846,0,0,-1,-1,0,-1,-2,-1
1514893828951848,0,0,0,-1,-1,-1,-2,0
1514893828951848,0,-1,0,-1,0,0,-2,-2
1514893828963856,0,-1,0,-3,-1,0,-2,0
1514893828963856,0,-1,0,0,-2,1,0,-2
1514893828972863,0,0,0,-1,-1,-1,0,-1
1514893828972863,-2,0,1,0,1,-1,-2,-2
1514893828987373,-3,-4,0,-1,0,-1,-1,-2
1514893828987373,-2,1,0,-3,-1,-3,0,-2
1514893828989374,0,-1,-1,0,2,0,0,-1
1514893828989374,0,-2,-1,-2,-2,-2,-1,-2
1514893829009889,-2,-2,-1,0,0,-1,-1,-1
1514893829009889,1,0,-1,-1,0,-2,-2,0
1514893829012391,-1,-1,-3,-2,-2,-1,-2,0
1514893829012391,0,-1,-1,-1,-2,0,0,0
1514893829023899,-2,-1,-2,0,-1,1,-1,1
1514893829023899,-2,-1,-3,-1,-4,-1,-1,-1
1514893829032907,-1,2,-2,-2,-2,-1,-1,-1
1514893829032907,-1,-2,-1,-1,-1,-1,-1,1
1514893829047427,-1,-5,0,-2,0,-2,-1,-2
1514893829047427,-1,0,-1,0,-1,0,1,-2
1514893829049419,-1,1,0,0,-2,0,-1,0
1514893829049419,-3,-2,-2,-2,-1,-1,-1,1
1514893829078447,-2,-3,-1,-1,-1,-2,0,0
1514893829078447,-3,0,-1,0,0,0,-1,-1
1514893829079948,0,1,-1,-1,-2,-2,1,-1
1514893829079948,-1,0,-2,-1,0,-2,0,-2
1514893829083941,0,-1,-1,0,-2,-2,-1,-1
1514893829083941,0,0,1,-1,0,1,0,-2
1514893829093457,-1,0,-3,-1,-1,0,-1,-3
1514893829093457,1,-2,-1,0,1,1,-1,-1
1514893829107468,-2,-4,-2,-1,-2,-2,0,-1
1514893829107468,-1,0,0,-1,-2,-3,-3,0
1514893829108961,-4,0,-3,-2,-1,-2,-4,-3
1514893829108961,0,0,0,-1,0,1,1,0
1514893829129994,-3,-3,-1,1,-1,0,1,-4
1514893829129994,-1,2,0,1,0,-2,-2,-2
1514893829131976,0,1,-2,-5,-1,-1,-1,0
1514893829131976,-6,-5,0,-2,-2,-4,-5,-2
1514893829143483,-2,-2,-4,-2,-3,-2,-2,-2
1514893829143483,-4,-2,-3,2,0,-1,-2,-4
1514893829152490,0,4,-2,-9,0,-1,1,1
1514893829152490,1,-4,-1,-1,-1,-1,0,-1
1514893829168001,-7,-3,2,-6,-3,1,0,1
1514893829168001,3,3,1,4,3,0,-1,0
1514893829169503,-3,-8,-4,-1,-7,-3,-4,-3
1514893829169503,-6,2,2,1,2,2,1,3
1514893829190074,9,-5,-3,0,-3,-2,-2,-2
1514893829190074,-9,-2,-5,-5,-1,-1,-4,-5
1514893829191574,9,5,2,5,0,0,0,6
1514893829191574,-9,-6,-7,-9,-4,-4,-3,-4
1514893829203583,0,-9,-1,3,2,-1,0,1
1514893829203583,0,0,-1,-3,-1,-1,1,0
1514893829212580,-3,-2,2,0,0,-1,1,-2
1514893829212580,11,6,2,2,-1,-1,1,2
1514893829227590,-10,3,-2,-3,-1,-2,-3,-1
1514893829227590,1,-8,-4,-5,-2,1,1,-1
1514893829229091,0,1,1,2,-1,0,0,-1
1514893829229091,-3,-9,2,2,-1,-1,-2,-4
1514893829250106,-1,1,-3,-2,0,1,0,0
1514893829250106,-15,-6,3,-1,0,-1,0,-2
1514893829251609,5,6,-3,-2,0,0,-2,0
1514893829251609,-5,1,-9,-6,-4,-4,-2,-2
1514893829263616,6,2,-1,1,4,2,-1,0
1514893829263616,-10,-10,-1,-1,-2,-2,-2,-1
1514893829272622,5,5,1,3,3,0,0,1
1514893829272622,-12,-5,3,0,0,0,-2,-6
1514893829287633,0,-2,-3,9,0,-2,-1,1
1514893829287633,0,0,4,-10,-3,0,-1,1
1514893829291135,-3,-1,-3,-10,-3,0,-1,-4
1514893829291135,10,2,0,6,2,-1,-1,0
1514893829310151,-1,-4,0,-2,-4,-1,-3,0
1514893829310151,5,6,0,5,-1,1,2,2
1514893829311653,-6,-3,2,7,0,-2,-1,-1
1514893829311653,4,0,3,0,-1,0,-2,0
1514893829323659,-3,5,-2,-17,0,-2,0,-4
1514893829323659,-2,-1,-6,0,0,-2,1,0
1514893829339170,1,-2,-1,-2,1,-3,-3,1
1514893829339170,0,-9,-8,-2,-3,-3,-2,-6
1514893829355194,4,-4,5,3,1,3,4,5
1514893829355194,0,17,-5,-8,-5,-2,-5,-3
1514893829357692,9,-3,1,1,-1,1,3,0
1514893829357692,-4,-1,-2,1,1,1,0,1
1514893829370191,-1,-10,-3,-7,-4,-3,-3,-4
1514893829370191,6,-9,0,0,3,2,2,2
1514893829371692,-3,16,1,3,-3,-3,-2,-6
1514893829371692,12,5,1,-10,-1,0,2,3
1514893829392719,-20,-16,-3,-3,-3,-3,-3,-6
1514893829392719,27,16,1,2,-2,2,1,16
1514893829394218,-13,-15,0,6,0,-3,-3,-16
1514893829394218,16,8,2,-16,-1,1,1,3
1514893829407727,2,-2,-6,5,0,-2,-1,-1
1514893829407727,-10,-14,4,-5,0,-3,3,3
1514893829409228,-3,9,-3,-1,2,0,5,9
1514893829409228,-8,4,2,5,-2,-4,-11,-6
1514893829430233,5,-19,1,2,0,0,-3,3
1514893829430233,-18,-5,-6,-5,-2,-2,-5,-10
1514893829431736,18,5,-8,-5,-2,1,0,7
1514893829431736,-7,-5,6,9,0,-1,1,0
1514893829452764,-2,13,3,-7,-1,1,1,-1
1514893829452764,14,10,0,8,1,0,-5,-7
1514893829454261,-22,-19,-9,-5,-1,-1,-2,-3
1514893829454261,-3,11,1,-4,-2,1,1,-4
1514893829467763,4,-14,-4,3,0,-2,1,4
1514893829467763,-1,13,6,-10,-4,-2,-1,-2
1514893829469261,-7,2,-1,-1,1,-1,-2,0
1514893829469261,-24,-19,-10,5,-1,-4,-3,14
1514893829489786,9,12,-2,-3,0,-1,2,-21
1514893829489786,11,-4,-4,-2,-3,-1,-2,-5
1514893829497781,-12,-5,3,3,0,-2,-1,3
1514893829497781,18,3,-3,-1,0,1,3,4
1514893829512791,4,12,1,0,0,-1,-1,4
1514893829512791,-9,-5,1,3,0,-1,-4,-6
1514893829515293,-9,6,-3,-2,0,-2,-2,-10
1514893829515293,3,-13,4,5,-2,-5,-4,-5
1514893829526814,-4,-5,-7,-7,-2,-3,-2,7
1514893829526814,-3,-5,0,-1,-2,-5,-2,-3
1514893829533807,-2,1,3,1,-1,-1,-2,-3
1514893829533807,-12,-5,-12,0,1,1,2,-5
1514893829550319,1,-5,5,12,-1,0,1,3
1514893829550319,-7,-4,2,-5,-1,1,2,-2
1514893829551839,-2,0,6,4,-1,-1,-3,-3
1514893829551839,4,2,15,5,1,0,0,-3
1514893829573335,-9,-3,-16,-2,-1,-3,-2,-7
1514893829573335,9,-2,-6,-3,1,1,1,4
1514893829576837,-4,-6,-6,-15,-4,-3,-3,-1
1514893829576837,9,3,-11,-6,-2,1,1,0
1514893829586845,0,9,8,-3,1,2,0,5
1514893829586845,-25,-2,7,12,-1,-3,-3,-9
1514893829593849,-5,-9,-4,-4,-4,-3,-2,0
1514893829593849,13,10,-1,-7,-2,0,2,6
1514893829609872,-18,-32,-1,16,0,0,0,-5
1514893829609872,-9,1,-7,-15,-1,-2,-3,-6
1514893829611872,19,1,-2,-1,-1,-1,1,2
1514893829611872,-6,4,7,2,-1,-1,0,-6
1514893829632878,13,14,-1,4,1,1,0,3
1514893829632878,15,10,-2,3,1,0,0,6
1514893829634378,-16,21,19,9,5,4,5,2
1514893829634378,0,-30,1,-2,-3,-5,-5,-5
1514893829646899,-20,-4,-9,-6,-3,-2,-2,-1
1514893829646899,1,2,3,19,2,1,0,3
1514893829653902,4,-3,-33,-6,-3,-2,-3,-8
1514893829653902,-32,-5,18,-28,-6,-4,-7,-12
1514893829669913,0,7,-2,19,1,0,-2,-4
1514893829669913,6,18,6,-27,-3,-1,0,0
1514893829671905,14,-11,-14,9,-1,-1,-3,-3
1514893829671905,-5,-12,-20,3,0,1,5,2
1514893829692429,6,-11,10,2,-3,0,-2,-1
1514893829692429,1,7,-3,-13,0,0,-1,4
1514893829693930,11,11,1,2,1,0,6,17
1514893829693930,-2,-4,-6,11,2,-1,-4,-12
1514893829706929,-11,5,8,-26,-3,-2,0,2
1514893829706929,4,-7,-15,9,-2,-2,-4,-6
1514893829713443,10,9,18,-5,-2,-2,-2,4
1514893829713443,4,-5,-2,10,2,2,7,17
1514893829729955,7,15,0,-1,0,0,-9,-13
1514893829729955,-21,-23,-12,-3,-4,-2,-6,-11
1514893829731947,2,3,10,-6,-1,0,1,-8
1514893829731947,2,10,-21,2,-2,-2,-10,-3
1514893829752471,-4,-5,26,-6,-2,-2,2,-5
1514893829752471,1,-3,-26,5,0,2,7,14
1514893829758478,10,13,32,15,-2,-1,11,25
1514893829758478,-21,1,2,-27,-4,-1,-1,-4
1514893829774995,-15,-14,-10,5,1,-2,-2,-11
1514893829774995,17,4,5,-1,-1,-1,-2,-3
1514893829776491,1,-14,-22,-10,-3,-2,-6,-7
1514893829776491,9,-6,7,8,3,2,5,11
1514893829790000,0,7,11,-4,-3,0,-1,-1
1514893829790000,-4,-8,4,1,-1,-2,3,1
1514893829791500,-5,5,-7,-3,0,-2,-2,0
1514893829791500,6,-5,3,3,-4,-4,-4,-12
1514893829812504,26,-10,3,-7,-3,-2,0,21
1514893829812504,-25,4,-21,3,1,-1,0,-12
1514893829814506,7,3,-6,-14,-1,-1,0,-6
1514893829814506,-22,-15,-18,-3,-6,-5,-7,-11
1514893829827023,15,2,-7,-1,-2,-2,-3,7
1514893829827023,10,-4,18,6,1,1,1,5
1514893829834028,23,8,-6,-5,-4,-2,1,10
1514893829834028,-17,-6,-8,2,0,0,2,-7
1514893829850033,1,-3,-2,2,1,4,1,8
1514893829850033,7,2,5,0,2,-1,0,7
1514893829851531,-10,21,6,-3,-2,-4,-8,-24
1514893829851531,13,-26,-11,2,1,-1,1,15
1514893829873047,-10,2,-3,1,-2,-2,-2,-15
1514893829873047,-1,-2,10,-9,-2,-1,-1,-5
1514893829874556,-15,-2,4,6,-2,0,0,-4
1514893829874556,25,15,-12,-4,2,2,2,11
1514893829886055,-25,-9,-7,-6,-4,-2,-2,-9
1514893829886055,0,-4,8,8,1,0,-3,-2
1514893829895062,-12,-14,-26,-1,-1,-5,-8,0
1514893829895062,-1,1,4,-8,-3,-2,-1,-5
1514893829910582,1,-1,-17,5,0,0,-2,-1
1514893829910582,19,25,41,10,0,-2,4,7
1514893829912084,-16,-29,-11,-20,-4,-1,9,9
1514893829912084,-3,13,-14,4,0,-2,-9,-14
1514893829932598,-10,-34,-27,-10,-1,0,-5,-5
1514893829932598,-3,-1,12,1,-4,-4,0,-4
1514893829934099,5,9,10,1,1,2,-4,-8
1514893829934099,16,-16,-13,-2,-2,-3,1,12
1514893829946099,0,9,13,1,0,-2,4,5
1514893829946099,-13,-10,-7,5,-1,-1,-2,1
1514893829963611,6,0,15,-13,0,0,-2,-7
1514893829963611,-9,12,-3,3,-1,1,1,-9
1514893829970125,0,3,-9,-7,-2,-1,-11,3
1514893829970125,13,0,-20,-2,-2,-2,-4,1
1514893829971626,-20,-17,-9,-6,-4,-5,-6,-7
1514893829971626,3,3,31,7,2,0,0,-7
1514893829991640,-3,3,4,1,0,-1,5,-4
1514893829991640,-5,-9,-15,2,0,-1,1,3
1514893830006651,-5,-6,-24,-7,-2,-3,-5,-6
1514893830006651,-6,0,29,0,0,0,5,12
1514893830007642,-9,-12,10,9,0,0,6,10
1514893830007642,-14,-8,-24,-15,-8,-4,-8,-11
1514893830015147,3,2,-9,13,2,-1,-9,-12
1514893830015147,5,-1,14,2,-2,-2,-6,-4
1514893830029166,10,35,40,-4,2,1,2,6
1514893830029166,-2,-25,-36,3,-4,-5,-1,2
1514893830037672,9,-13,10,-7,0,1,4,11
1514893830037672,-14,-7,-11,4,0,-4,-16,-34
1514893830053189,-1,-9,-22,-3,-3,-3,0,-9
1514893830053189,4,12,36,14,6,4,-1,3
1514893830054675,-14,-32,-20,2,1,0,-2,-11
1514893830054675,-20,-16,4,-17,-7,-2,-2,-3
1514893830066182,19,15,43,18,6,2,9,14
1514893830066182,5,5,59,-10,-2,0,1,0
1514893830075192,-5,-7,-69,26,4,-3,-4,8
1514893830075192,29,19,-4,-17,0,4,18,41
1514893830097715,-17,-46,-26,-2,-4,-4,-13,-37
1514893830097715,9,5,-24,-1,-1,-1,-10,-13
1514893830100211,16,24,64,13,2,6,12,11
1514893830100211,-31,14,13,9,0,0,18,0
1514893830112716,24,-6,-51,-4,-6,-2,-23,17
1514893830112716,-28,9,-4,-27,-2,-1,12,-2
1514893830114227,43,16,45,4,-11,-11,-32,-6
1514893830114227,12,10,6,7,0,1,10,-4
1514893830126726,-34,-14,-33,-20,0,-2,-5,-2
1514893830126726,-15,2,6,21,4,1,-13,-31
1514893830135232,-6,20,-17,16,1,1,16,36
1514893830135232,5,14,10,-21,-4,0,22,-13
1514893830150243,10,5,44,10,0,-3,-25,28
1514893830150243,6,30,24,-13,-2,0,-4,-9
1514893830152754,-6,-16,-9,8,4,2,9,17
1514893830152754,-2,-47,-25,-3,3,5,-4,-27
1514893830172769,7,-6,-28,-2,-1,3,12,-18
1514893830172769,20,21,12,11,4,2,13,17
1514893830174260,31,35,37,-27,-3,3,4,7
1514893830174260,-46,-18,21,12,-2,-5,-24,-22
1514893830186778,-2,2,-27,-13,-9,-5,15,-14
1514893830186778,-10,-14,16,32,-1,-5,-16,22
1514893830195274,5,17,-31,-41,-7,-4,-9,-38
1514893830195274,7,-37,-112,-27,-4,-7,-14,3
1514893830209796,-28,5,60,-11,-6,-2,19,0
1514893830209796,46,7,-2,6,-1,-2,-7,0
1514893830211795,-12,9,23,7,-3,-8,-16,-25
1514893830211795,-2,-16,-19,19,4,3,-2,29
1514893830232802,5,13,-22,-34,-3,6,13,12
1514893830232802,10,-36,-22,1,2,0,20,-11
1514893830234304,-56,3,58,-7,4,3,-24,-28
1514893830234304,-3,-25,-27,13,-7,-7,-15,24
1514893830246310,14,-14,-9,24,8,-2,-17,-41
1514893830246310,-1,48,-41,-39,-14,-6,2,13
1514893830255326,-14,-40,-4,6,2,4,16,8
1514893830255326,-1,21,60,5,0,-4,-5,-18
1514893830269827,3,13,32,25,7,-1,-7,17
1514893830269827,-27,-29,-76,-40,-13,-5,4,11
1514893830271828,-3,9,6,-3,-2,-3,8,-16
1514893830271828,-36,-9,25,-4,-3,0,-4,8
1514893830293853,17,11,-45,20,6,2,-12,-44
1514893830293853,13,-20,27,-10,-1,-3,-6,20
1514893830295345,21,8,-25,28,4,6,-1,-9
1514893830295345,8,12,25,0,-2,-2,9,13
1514893830315360,1,-28,-7,-34,-2,-1,2,-28
1514893830315360,-19,7,25,38,7,2,-6,18
1514893830316860,11,-24,-28,-21,-2,2,12,12
1514893830316860,22,-6,-11,5,2,-2,2,-10
1514893830331871,-7,2,7,7,-6,-2,7,46
1514893830331871,4,-3,25,-12,-2,0,15,-6
1514893830335878,-27,-19,-80,-2,-9,-11,-4,9
1514893830335878,32,56,48,17,8,9,1,-26
1514893830352385,-44,-49,10,-8,-8,-9,3,38
1514893830352385,-1,6,-4,23,12,8,-9,-33
1514893830354888,14,-16,-45,-4,-4,-4,3,8
1514893830354888,2,16,-19,-44,-8,-1,-3,-20
1514893830374910,1,35,-10,7,-4,-2,-5,19
1514893830374910,-4,-21,-16,-16,0,1,1,-18
1514893830376412,-1,67,112,26,8,0,14,53
1514893830376412,-20,-50,6,-16,-8,-8,-38,-59
1514893830388912,19,-14,-53,16,9,8,20,20
1514893830388912,10,16,2,-5,-4,-3,-24,-29
1514893830398921,-20,-13,-53,-5,-8,-5,-11,35
1514893830398921,-15,15,-4,-15,-8,-6,3,-3
1514893830412427,2,1,2,-23,0,4,4,-6
1514893830412427,-3,-6,1,31,4,0,9,-8
1514893830413939,-16,5,-38,-51,-14,-10,-11,-21
1514893830413939,1,-44,-9,1,2,3,5,10
1514893830434943,24,15,86,30,4,2,-3,-2
1514893830434943,-18,-41,-95,-41,-12,-7,1,37
1514893830436444,3,33,55,7,2,0,-16,1
1514893830436444,10,-17,-74,11,0,-3,-20,-53
1514893830449466,-8,19,11,-10,-4,0,26,61
1514893830449466,0,20,7,-7,-3,-1,-5,-39
1514893830455968,7,-10,62,35,11,6,-14,-19
1514893830455968,-20,-11,-31,-4,-3,-4,12,54
1514893830479985,5,-36,-12,29,5,2,-10,-55
1514893830479985,11,22,64,-29,-7,-4,1,17
1514893830481478,9,-4,-24,0,2,1,20,41
1514893830481478,13,35,-22,16,-2,-1,5,8
1514893830494996,1,22,46,-34,-6,-8,-37,-41
1514893830494996,-35,-45,-59,-7,-3,1,-6,-19
1514893830496497,21,28,26,12,2,-3,10,-6
1514893830496497,-5,1,-7,7,-2,-2,10,40
1514893830509511,-25,-28,-51,-3,0,1,-12,-32
1514893830509511,34,5,22,-6,2,4,15,66
1514893830516502,-12,-12,-17,-4,-4,-1,-19,-95
1514893830516502,13,36,75,24,6,3,13,19
1514893830533013,4,-24,-38,-16,-1,-3,8,-1
1514893830533013,-2,-17,15,17,-1,-1,-1,-31
1514893830536525,-25,14,-22,-4,-3,-1,7,69
1514893830536525,8,17,55,-11,2,1,-19,-21
1514893830555028,1,7,-3,6,-3,-2,15,-9
1514893830555028,9,46,63,18,5,2,-12,1
1514893830556529,-3,-81,-80,-12,-6,-2,12,-7
1514893830556529,-17,2,14,-12,-3,-2,-1,9
1514893830569539,3,19,67,40,4,1,-5,26
1514893830569539,-12,-9,-54,-21,1,0,12,30
1514893830576043,37,74,59,6,-5,0,1,-29
1514893830576043,-17,-76,-38,-2,7,3,-18,-37
1514893830600063,-20,-23,4,-7,-6,-1,-6,-22
1514893830600063,14,26,-18,15,-2,0,12,23
1514893830606079,-11,-34,41,-8,1,-2,2,-1
1514893830606079,45,91,52,13,3,1,12,25
1514893830615070,-18,-18,-90,-18,-9,-5,-14,-11
1514893830615070,-2,-17,-1,3,3,0,-1,-14
1514893830617073,-9,-4,46,11,4,4,6,1
1514893830617073,9,4,-34,0,-7,-4,13,-20
1514893830629591,14,30,-39,-26,-9,-6,-12,6
1514893830629591,-27,-32,6,0,1,-1,13,-10
1514893830636095,-8,-14,32,-33,-7,-7,-18,-40
1514893830636095,-2,-30,-6,0,1,3,14,39
1514893830651606,9,40,24,11,4,3,8,-13
1514893830651606,-7,11,27,-8,-5,-7,-14,11
1514893830660117,21,-9,-18,31,-1,-1,4,25
1514893830660117,-22,4,-24,-35,-4,-4,4,-20
1514893830675629,8,-24,31,4,2,1,14,65
1514893830675629,12,11,23,14,2,0,-15,-32
1514893830677630,-9,-27,-128,-18,-2,1,-10,-11
1514893830677630,21,28,65,14,2,3,2,9
1514893830689132,-15,-25,-67,-7,-2,-1,-2,32
1514893830689132,10,19,36,8,3,-3,7,-40
1514893830696128,5,13,-22,-3,0,5,-2,-10
1514893830696128,7,-17,-43,11,-2,-1,11,7
1514893830712139,10,35,63,0,2,-1,-16,-16
1514893830712139,-15,-67,-10,-10,-7,-5,-5,16
1514893830720158,4,10,2,12,2,-2,4,5
1514893830720158,-12,-9,-2,-54,-15,-4,13,15
1514893830734156,25,-6,-20,30,12,4,4,61
1514893830734156,-23,-10,-7,-14,-6,-3,-38,-66
1514893830742673,12,-12,22,0,1,-4,-6,12
1514893830742673,8,11,17,34,6,-1,5,19
1514893830749668,5,41,95,2,-1,-2,-13,-2
1514893830749668,17,-5,-81,-4,-5,-4,19,55
1514893830756180,-27,-20,19,-14,0,0,-7,-53
1514893830756180,-3,13,27,9,1,-1,-18,29
1514893830772682,13,20,24,7,5,5,6,-73
1514893830772682,-10,29,20,7,4,2,-4,-20
1514893830774183,-5,-15,-17,-2,-6,-6,-1,24
1514893830774183,1,1,-2,-1,2,0,-4,12
1514893830794197,-9,6,26,-7,-7,-8,-8,-27
1514893830794197,3,3,23,18,1,0,14,7
1514893830802703,7,12,-33,-22,-7,-3,3,7
1514893830802703,-11,-46,-65,-10,-3,0,1,-15
1514893830808717,-15,-9,-31,-19,-10,-8,-4,-35
1514893830808717,12,23,-15,-13,-1,1,11,63
1514893830817713,-7,-14,32,0,-1,-1,-4,-45
1514893830817713,19,64,23,19,5,2,19,37
1514893830832725,-34,-61,-59,-21,-8,-1,-2,-18
1514893830832725,-20,-6,-24,-18,-10,-8,-26,-16
1514893830836240,12,25,48,9,7,5,1,1
1514893830836240,2,16,-14,0,-5,0,3,-20
1514893830854749,13,-12,-8,6,4,1,12,14
1514893830854749,16,-3,22,14,5,3,11,17
1514893830856751,-9,-8,16,-30,-5,2,-2,-8
1514893830856751,-22,-53,-20,17,7,3,-11,-18
1514893830868759,10,45,-59,-5,-4,-8,-5,-13
1514893830868759,32,23,12,-10,3,5,11,54
1514893830885262,-13,-12,-71,25,2,-3,-27,-15
1514893830885262,-5,-10,35,-21,-10,-9,-22,-53
1514893830892395,-13,-32,33,-3,-2,1,-9,-9
1514893830892395,-33,18,-10,26,4,1,7,-2
1514893830893895,1,6,69,-4,-1,-3,12,16
1514893830893895,3,2,-13,0,-3,-4,1,-1
1514893830914911,-8,-14,-42,-30,-7,-1,2,32
1514893830914911,12,-11,-36,-13,-2,-4,-3,-7
1514893830916911,-10,2,64,13,2,-1,-18,-25
1514893830916911,-25,-32,-56,-7,-3,-2,-9,-24
1514893830928429,-13,-27,38,35,1,-2,23,45
1514893830928429,10,-7,2,-31,-4,-3,-7,-45
1514893830937925,-9,-7,-21,21,4,3,13,1
1514893830937925,31,35,23,-5,1,0,-5,42
1514893830952435,-13,-31,2,-3,0,0,-18,-43
1514893830952435,-7,-4,-22,-3,-6,-4,-4,-3
1514893830954947,5,2,4,39,11,5,12,40
1514893830954947,-2,15,27,-16,-1,1,-6,-50
1514893830974961,6,22,-18,3,-5,-3,1,-5
1514893830974961,-2,-5,36,0,-2,-4,-4,2
1514893830976453,-11,-16,-54,-28,-3,1,7,-2
1514893830976453,1,-5,1,6,-4,-3,5,7
1514893830997477,24,26,6,0,0,-1,1,-10
1514893830997477,-46,-1,18,44,5,3,-1,4
1514893831000982,11,11,-33,-56,-14,-8,-1,29
1514893831000982,-35,-40,38,20,7,2,-16,-33
1514893831012488,-14,42,-8,-34,-7,-4,-6,-14
1514893831012488,4,-58,-71,21,0,3,7,9
1514893831018492,3,19,49,-53,-14,-6,1,5
1514893831018492,-7,-6,-44,8,0,-2,-2,40
1514893831035006,-7,-9,121,3,7,5,0,-40
1514893831035006,8,5,-80,-20,-6,-7,-4,-12
1514893831036507,-8,-18,29,20,2,3,7,23
1514893831036507,35,-6,1,2,-1,-1,-1,-18
1514893831048515,-25,20,8,1,-3,-6,-15,-8
1514893831048515,0,10,46,-22,-7,-4,7,20
1514893831058010,48,-20,-45,7,-1,0,-6,6
1514893831058010,-34,18,-35,-22,-5,0,6,-27
1514893831072520,19,25,42,29,7,5,4,15
1514893831072520,2,-11,-33,-22,-5,-3,-8,-10
1514893831074021,-5,9,43,9,-2,-4,6,-30
1514893831074021,16,14,2,9,0,2,5,55
1514893831095048,-13,-34,-52,13,3,0,-2,4
1514893831095048,12,29,-3,-23,-2,2,5,-1
1514893831096550,-19,5,-1,17,6,1,-5,-51
1514893831096550,-6,-19,33,22,1,-3,-8,6
1514893831108546,25,0,8,-9,-1,2,7,-5
1514893831108546,16,11,43,-9,-1,0,17,74
1514893831117553,-30,0,-57,8,0,0,-19,-25
1514893831117553,-8,-21,12,10,0,0,0,36
1514893831132564,20,18,15,-46,-8,-3,-5,-31
1514893831132564,7,16,32,17,5,2,-11,-23
1514893831134065,5,9,-55,-12,0,3,12,20
1514893831134065,-56,-25,-17,10,0,0,-5,-4
1514893831162584,-13,25,-36,7,0,1,22,42
1514893831162584,-10,-32,22,23,3,1,-22,-29
1514893831164100,1,2,62,-23,-7,-5,-12,-29
1514893831164100,18,6,-27,0,2,-5,5,1
1514893831168598,6,10,78,9,-1,0,4,-1
1514893831168598,16,17,-87,-10,-7,-6,-8,-15
1514893831177595,-12,-7,7,13,2,-1,3,30
1514893831177595,26,-25,-9,-41,-10,1,5,4
1514893831192605,13,21,8,36,8,4,-10,0
1514893831192605,-9,-20,63,-10,3,6,0,-25
1514893831194106,20,-18,-94,-12,-4,-5,-8,11
1514893831194106,-29,-18,15,-6,-1,2,13,-48
1514893831214121,44,27,-29,-4,-2,0,-8,15
1514893831214121,-12,1,39,44,9,1,-5,-15
1514893831222626,30,40,-21,-20,1,8,26,37
1514893831222626,-19,-48,49,-14,1,-1,1,-4
1514893831228631,15,-10,-32,10,-1,-1,1,13
1514893831228631,-29,-14,-27,3,-4,-4,-2,-15
1514893831237638,-3,-22,-9,-18,-4,-5,6,17
1514893831237638,38,42,14,28,6,5,25,97
1514893831253152,-33,-13,22,5,5,2,-16,-68
1514893831253152,14,5,-1,-18,-8,-3,-11,3
1514893831255149,8,38,71,21,3,1,-1,-23
1514893831255149,2,21,-51,-8,-7,-7,-8,8
1514893831275164,-8,-48,7,9,-1,-2,-4,12
1514893831275164,0,19,24,24,5,5,17,6
1514893831276666,15,-45,-39,-5,-3,0,-4,8
1514893831276666,15,17,7,-11,1,1,-7,-5
1514893831298689,-9,15,54,0,-1,-3,1,-5
1514893831298689,-20,-20,-58,-19,-5,-8,-2,-29
1514893831300182,-13,-13,29,26,4,-1,1,-5
1514893831300182,14,-1,16,-3,-4,-7,-15,4
1514893831312696,-36,-11,-60,-32,-10,-4,-2,9
1514893831312696,-4,8,26,-5,-4,-3,-7,-7
1514893831314193,6,34,52,13,7,4,20,44
1514893831314193,-20,-49,-36,-25,-8,-4,-24,13
1514893831336210,-1,14,-87,-1,-2,-5,-2,-83
1514893831336210,-34,-24,44,0,-4,1,0,-9
1514893831339713,-7,-8,-11,-3,-7,-7,-20,-11
1514893831339713,14,16,37,18,3,0,6,-13
1514893831357723,1,-4,-52,-35,-10,-6,-11,11
1514893831357723,22,2,7,2,2,4,18,66
1514893831359231,-6,8,17,17,4,-1,-16,-67
1514893831359231,6,9,11,4,0,-3,-5,-23
1514893831372736,-22,-16,18,11,0,-2,15,39
1514893831372736,29,68,-29,8,1,-2,3,-7
1514893831374234,-21,-70,-48,-31,-11,-6,-9,13
1514893831374234,7,4,16,-5,1,4,6,-10
1514893831394748,-14,-17,-46,-10,-5,-1,10,63
1514893831394748,15,5,54,16,8,3,-12,-75
1514893831396249,12,6,-9,17,2,1,3,0
1514893831396249,-8,9,-9,-12,-5,-4,-7,-44
1514893831417768,4,-2,19,1,3,4,6,65
1514893831417768,-8,-11,-35,0,-2,-5,-12,-33
1514893831420268,12,30,14,-17,-3,-2,-4,2
1514893831420268,-24,-57,-10,31,7,2,1,-10
1514893831440281,19,36,65,15,3,2,17,17
1514893831440281,0,-44,-41,-18,-4,-2,-16,8
1514893831441786,-15,-31,33,-5,-3,-1,-7,-31
1514893831441786,20,36,23,24,8,5,-3,42
1514893831462797,-13,-50,-31,-13,-4,-4,3,-65
1514893831462797,2,6,11,-21,-3,-3,5,12
1514893831466303,-16,37,15,14,1,-1,-2,-2
1514893831466303,2,-37,-11,0,-2,-4,0,-8
1514893831477808,5,-3,-7,9,3,4,8,27
1514893831477808,4,52,42,-10,-8,-5,-2,-17
1514893831480309,-8,-19,-91,-3,-4,2,11,20
1514893831480309,8,17,18,-12,-3,-1,2,32
1514893831491817,3,-7,6,1,-1,-2,-14,-48
1514893831491817,-3,12,-35,-8,-5,-4,7,-3
1514893831498823,-4,-18,8,-1,-2,-7,11,64
1514893831498823,-6,15,14,3,-1,-3,-26,-49
1514893831514832,-7,3,-6,18,0,-1,-1,30
1514893831514832,15,-5,-25,-32,-3,0,6,-59
1514893831516835,-24,-4,93,22,4,6,20,17
1514893831516835,7,14,-49,-32,-6,-1,2,15
1514893831544855,-16,8,21,32,7,3,-29,-48
1514893831544855,-9,15,36,3,-5,-6,2,14
1514893831546858,17,11,0,-15,-2,0,6,14
1514893831546858,-9,-37,21,27,4,1,12,-28
1514893831552362,50,34,41,-6,4,1,-2,52
1514893831552362,-33,-58,-105,-22,-7,-5,-12,7
1514893831558864,9,18,48,21,10,9,-6,-21
1514893831558864,-20,-22,-62,-9,-2,-5,-1,2
1514893831575378,-2,-7,11,-3,-6,-6,10,27
1514893831575378,24,19,55,-2,3,2,-3,3
1514893831576880,-23,-18,-43,-19,-3,-5,-17,-38
1514893831576880,-7,36,38,11,-2,1,6,-5
1514893831598393,14,11,21,7,-1,0,-3,-14
1514893831598393,18,-13,2,10,5,3,6,22
1514893831599895,4,-10,-3,-19,-6,-6,-22,-6
1514893831599895,-16,0,-11,-5,1,3,6,-1
1514893831611401,-2,-16,-24,-23,-12,-7,-7,-9
1514893831611401,-46,3,26,17,8,7,20,28
1514893831620412,2,-12,-47,9,2,0,-2,-15
1514893831620412,-11,16,-26,-13,-3,-5,9,14
1514893831635424,-1,-5,-25,-25,-7,-6,-46,0
1514893831635424,11,31,61,24,5,3,-5,-26
1514893831636922,22,-6,-55,-19,-6,-7,4,20
1514893831636922,4,-4,4,-1,2,-1,-13,-29
1514893831657434,2,21,19,5,2,2,22,6
1514893831657434,-9,-9,-10,-9,-8,-8,-14,4
1514893831658938,31,0,46,6,0,1,5,22
1514893831658938,-5,-12,-58,-4,-2,-1,-5,-50
1514893831671446,15,11,-9,9,2,-3,-1,6
1514893831671446,15,-21,8,-15,-5,1,9,7
1514893831680951,-29,13,71,26,1,-2,10,32
1514893831680951,-11,-5,-50,-43,-14,-10,-35,-72
1514893831695462,1,-21,31,10,4,0,12,12
1514893831695462,-6,14,-76,5,1,2,4,5
1514893831698964,-17,-33,6,-8,-2,-2,22,72
1514893831698964,12,22,36,10,1,1,-27,-8
1514893831717477,-29,20,43,4,2,-1,1,-52
1514893831717477,-8,11,22,-14,-6,-4,-15,-5
1514893831718979,16,16,-63,17,1,1,2,-16
1514893831718979,-4,-18,42,-16,-1,4,14,30
1514893831731986,-7,-24,-51,-13,-2,2,4,6
1514893831731986,-2,17,49,26,7,0,1,3
1514893831738491,39,10,-25,-10,-3,-1,0,14
1514893831738491,-66,34,51,-15,-8,-7,-11,-16
1514893831755017,-6,-18,17,-10,-3,-3,18,-22
1514893831755017,0,-26,-70,-12,-7,-6,-10,7
1514893831756519,-4,-8,14,11,4,2,-3,-10
1514893831756519,21,-4,16,38,4,-3,-7,-43
1514893831777530,4,13,10,-15,1,0,10,27
1514893831777530,-20,-32,-55,-10,-9,-7,0,13
1514893831779019,-27,-17,-21,-1,-3,-5,-15,-51
1514893831779019,45,5,41,7,8,12,51,127
1514893831792029,20,24,-15,7,-1,-2,-39,-113
1514893831792029,-9,-35,25,17,7,6,-2,-4
1514893831800034,33,11,-21,-44,-7,-3,2,2
1514893831800034,-55,-11,-4,14,3,1,0,5
1514893831815044,-21,-23,-63,1,0,-1,30,57
1514893831815044,-19,-5,33,15,3,-1,-38,-56
1514893831816548,-3,6,36,-14,-5,-2,6,27
1514893831816548,24,-10,-91,-11,-11,-8,-11,-60
1514893831836569,-2,3,-11,-52,-7,-4,-3,39
1514893831836569,-2,-1,-18,14,0,-4,17,-39
1514893831853072,1,2,34,17,3,2,-2,-1
1514893831853072,14,-12,8,3,2,-1,-7,5
1514893831854073,-4,-9,-7,23,1,5,9,8
1514893831854073,-9,32,-6,-25,-3,1,8,23
1514893831860087,0,25,-10,6,-3,-5,-10,-17
1514893831860087,28,-16,-41,-2,-7,-4,11,10
1514893831875103,-13,3,-6,-34,-2,1,-23,-43
1514893831875103,19,11,47,23,4,7,26,68
1514893831876598,-34,-7,-33,-15,-4,-2,-25,-87
1514893831876598,31,30,7,22,4,6,6,50
1514893831897614,-12,-20,28,3,-3,-4,4,6
1514893831897614,48,10,-6,-15,-3,-1,1,-5
1514893831899104,-13,-32,-16,-10,-7,-8,-6,0
1514893831899104,-1,-31,-54,-8,-1,-5,-17,-25
1514893831911122,-3,21,6,12,4,7,28,91
1514893831911122,15,-11,31,-10,-3,-5,-38,-73
1514893831922621,3,15,-15,-7,-8,-9,8,68
1514893831922621,-11,-1,39,-11,0,-4,-18,-98
1514893831935139,-2,-28,-13,6,-3,1,8,35
1514893831935139,-23,-8,43,27,3,0,2,-3
1514893831936641,-15,-8,-53,-21,3,5,-3,-7
1514893831936641,-8,5,-8,-6,-1,3,23,25
1514893831957160,-7,-10,5,18,-1,-6,-40,-42
1514893831957160,-12,1,-45,-4,-2,-3,13,15
1514893831959161,-7,-15,32,-25,-4,-1,-1,15
1514893831959161,23,18,28,8,1,-3,-6,-43
1514893831971165,-13,4,68,20,6,4,7,-5
1514893831971165,8,7,-104,-16,-10,-12,-1,24
1514893831980162,2,-4,19,18,2,2,-10,21
1514893831980162,-12,-28,-26,-16,-5,-2,3,-6
1514893831995182,37,30,34,17,6,3,-3,0
1514893831995182,-12,-36,18,-25,-8,-4,11,-28
1514893831997183,10,13,-20,27,8,5,18,-9
1514893831997183,0,-23,1,-13,-1,-1,-6,34
1514893832016690,-13,21,5,9,-1,-3,-8,-39
1514893832016690,7,-6,38,8,2,1,19,56
1514893832025193,-16,-3,-69,-19,-8,-3,-26,-46
1514893832025193,-2,10,54,26,8,5,11,33
1514893832031197,5,-29,-55,-10,-9,-6,-1,-8
1514893832031197,16,17,30,1,4,6,3,29
1514893832040204,-1,-12,33,12,1,-1,-2,-44
1514893832040204,-18,-21,-16,-30,-9,-7,-13,-44
1514893832062730,4,29,-10,13,6,7,28,39
1514893832062730,0,7,-30,-15,-5,-5,-15,-23
1514893832066223,0,8,29,21,3,2,4,2
1514893832066223,-2,-1,27,-2,2,4,0,54
1514893832077730,20,-7,-9,8,-4,-5,-11,-71
1514893832077730,-13,-5,-48,-38,-5,-1,12,36
1514893832079231,4,17,40,19,7,5,5,-14
1514893832079231,-15,-10,-35,-9,-4,0,9,32
1514893832091740,16,14,33,14,4,3,7,42
1514893832091740,17,16,-34,-10,-5,-4,-12,-39
1514893832100248,-33,-26,-9,6,-4,-4,-9,42
1514893832100248,25,12,13,-4,-1,0,3,-55
1514893832116280,-50,-40,-18,-16,-8,-7,-21,-21
1514893832116280,33,49,54,25,7,5,1,6
1514893832120261,0,-20,2,-1,3,1,8,-6
1514893832120261,-16,27,-34,5,-2,0,-18,2
1514893832137272,0,-30,-3,-18,-6,-3,12,-6
1514893832137272,-18,12,-24,-2,-2,-4,-14,-18
1514893832138773,-6,-42,-12,-24,-11,-6,4,-12
1514893832138773,1,6,45,9,3,2,30,125
1514893832159788,-3,8,-7,-22,-9,-10,-63,-94
1514893832159788,-22,-9,74,40,7,3,4,21
1514893832161289,35,23,-48,-21,-2,-3,-6,-22
1514893832161289,-23,-17,-59,-41,-13,-7,-8,-7
1514893832174799,33,16,9,4,3,0,14,62
1514893832174799,-28,-30,10,9,-1,-4,5,-26
1514893832176800,4,4,-18,5,1,-2,-19,-22
1514893832176800,-5,14,13,5,-1,-3,7,46
1514893832197315,-10,9,-28,-1,-4,-5,-4,-57
1514893832197315,1,7,13,-12,1,3,1,14
1514893832199318,21,7,35,13,3,3,3,-3
1514893832199318,-8,-34,-8,5,-1,-5,-1,-19
1514893832219831,-18,-9,23,-6,-3,-1,4,10
1514893832219831,2,-25,-30,11,-1,0,1,35
1514893832223333,-33,21,11,-8,-1,-1,1,-45
1514893832223333,15,-1,-15,0,-3,-5,-19,-38
1514893832234854,-3,-2,11,-6,-2,-2,4,25
1514893832234854,9,16,6,7,1,0,4,-5
1514893832236342,0,2,22,21,7,3,0,31
1514893832236342,-15,-6,-16,-16,-5,-5,-20,-79
1514893832257358,1,10,-64,-6,-2,2,34,57
1514893832257358,-9,-4,-9,-9,-4,-5,-26,-30
1514893832259359,-2,-30,8,17,-2,0,7,13
1514893832259359,10,16,45,17,6,7,-1,8
1514893832280383,5,0,-17,-4,0,0,9,8
1514893832280383,-9,-3,68,0,-2,1,26,56
1514893832281889,-8,34,-53,11,-1,-2,-11,29
1514893832281889,-14,-39,-30,-29,-9,-10,-20,-89
1514893832294894,-38,2,-30,-19,1,-1,-9,-15
1514893832294894,17,-13,10,12,6,5,7,28
1514893832296892,-30,-5,59,-2,5,3,11,2
1514893832296892,-1,8,41,24,-1,-1,9,48
1514893832316901,26,3,4,-10,-3,-4,-9,-10
1514893832316901,-5,-5,2,12,4,1,-9,-36
1514893832331920,4,-20,-36,-31,-12,-6,1,2
1514893832331920,1,-27,-51,17,4,2,-6,-7
1514893832339926,1,20,52,15,5,6,12,9
1514893832339926,-2,-7,-18,-6,-6,-5,-3,-12
1514893832341428,8,4,-10,-15,-5,-3,-6,4
1514893832341428,20,-5,3,5,0,0,9,3
1514893832354437,-45,1,23,3,1,-1,0,9
1514893832354437,-20,3,-87,-13,-5,-2,-14,-7
1514893832360940,50,37,43,3,0,1,0,15
1514893832360940,-29,-30,-67,-6,-4,0,-1,18
1514893832377454,30,-3,32,-9,-5,-2,-6,3
1514893832377454,0,17,28,-7,2,0,-2,-40
1514893832378944,-8,-32,5,-37,-17,-11,1,38
1514893832378944,0,24,-34,7,5,5,10,61
1514893832407976,-4,-10,-15,4,-1,-1,-17,-63
1514893832407976,27,20,51,16,4,4,13,40
1514893832409975,-10,-37,-33,10,6,1,-9,-33
1514893832409975,-7,13,32,-5,-5,-4,-11,-18
1514893832414478,-10,-36,-48,-10,-3,-1,3,8
1514893832414478,-1,11,21,-24,-8,-8,-9,-17
1514893832421983,16,34,72,31,8,4,7,-7
1514893832421983,-10,-41,-63,-14,-4,-2,-1,-15
1514893832437497,5,8,-52,-6,-3,-1,8,18
1514893832437497,-1,-2,-19,-9,-3,0,-6,39
1514893832438987,1,-25,-14,15,-3,-3,-14,-77
1514893832438987,20,33,55,3,7,1,9,24
1514893832460010,-40,-17,37,9,-3,-5,-1,23
1514893832460010,14,-11,-23,-1,-4,-5,-21,-29
1514893832461511,-25,10,41,-10,-4,-3,7,0
1514893832461511,18,36,6,8,4,3,6,-3
1514893832475026,41,-16,-53,-14,-8,-5,2,20
1514893832475026,-56,5,-3,-8,-5,-3,23,51
1514893832481025,-13,-8,17,10,5,-3,-43,-57
1514893832481025,1,26,46,23,4,3,18,6
1514893832497537,39,-8,-23,-48,-12,-10,-28,-15
1514893832497537,-7,16,-8,9,2,0,-7,-4
1514893832499030,7,18,27,18,10,7,13,12
1514893832499030,-10,-77,-34,-26,-11,-3,2,19
1514893832520045,-9,16,37,24,7,-3,-16,-43
1514893832520045,3,6,6,-8,-5,-1,0,-12
1514893832521545,41,11,-46,5,-3,-1,6,35
1514893832521545,-15,38,63,4,15,6,5,-15
1514893832535063,-18,-10,-32,-10,-14,-3,5,-12
1514893832535063,3,-23,1,4,10,1,-10,-25
1514893832541067,-8,-13,-38,-18,-8,-2,6,1
1514893832541067,7,19,12,15,-3,-8,-21,19
1514893832557579,12,2,-26,1,3,3,1,12
1514893832557579,-2,-13,8,5,-5,-3,2,-4
1514893832559080,12,-16,-22,-25,1,4,16,25
1514893832559080,7,-14,14,-4,-6,-4,-12,-8
1514893832580586,-8,12,15,25,7,6,10,8
1514893832580586,13,5,-17,-27,-9,-2,-8,-6
1514893832582087,-43,-25,-8,8,3,-2,0,8
1514893832582087,25,26,62,-10,-5,-4,1,-8
1514893832594608,19,-1,-22,11,4,0,11,47
1514893832594608,-20,-17,-8,32,5,-4,-5,-7
1514893832601100,5,22,6,-31,-9,-1,5,-8
1514893832601100,-10,6,29,5,5,0,3,9
1514893832617625,17,24,-31,-14,-9,0,-14,-60
1514893832617625,-16,-48,27,9,2,-1,9,-5
1514893832619114,-7,3,-34,-4,-2,-4,-21,-1
1514893832619114,-35,2,23,11,0,2,1,-9
1514893832640145,-9,-24,-6,-7,1,2,17,33
1514893832640145,-2,7,-36,0,1,-2,-9,-16
1514893832641638,11,8,20,17,0,1,26,-3
1514893832641638,-14,2,-4,-3,-2,-1,0,-17
1514893832653638,4,12,-38,-26,0,-1,5,13
1514893832653638,2,-9,16,-1,5,4,7,21
1514893832662656,7,-11,11,6,4,1,1,-24
1514893832662656,25,28,-26,-6,-7,-1,2,19
1514893832677165,-24,-18,70,25,5,0,-4,-16
1514893832677165,3,7,-47,-16,-4,-2,-10,1
1514893832684661,-26,10,11,-2,-4,-6,-11,9
1514893832684661,-19,-34,-21,8,1,1,-10,-11
1514893832700188,11,-3,-20,13,3,1,13,30
1514893832700188,37,21,21,-10,-5,-2,-1,-16
1514893832701681,-49,-12,1,3,-1,-3,-14,-10
1514893832701681,17,13,51,-3,-1,1,8,-5
1514893832713689,-6,-21,-70,-6,-3,-1,-5,22
1514893832713689,2,-12,-25,-25,-7,-9,-2,-26
1514893832722697,-9,25,12,15,5,5,11,20
1514893832722697,-9,-42,7,-7,-2,-1,9,37
1514893832737197,1,18,42,0,-2,-1,-22,-61
1514893832737197,4,27,-38,12,-3,1,8,46
1514893832739198,-2,-26,20,-15,-3,-3,-1,-29
1514893832739198,9,-9,-90,1,3,-2,-8,-19
1514893832759725,-11,-17,-2,-11,0,-3,-22,-23
1514893832759725,-42,19,-8,-7,-5,-4,-6,5
1514893832761724,22,-52,-4,-9,-6,-4,7,18
1514893832761724,10,-3,-15,-16,-4,-5,-9,10
1514893832774232,15,-1,39,9,4,3,6,1
1514893832774232,3,24,7,-2,-4,-4,3,7
1514893832783232,-9,3,-39,-1,-2,-3,3,12
1514893832783232,7,0,14,21,2,-2,-22,-39
1514893832797753,18,27,18,-1,-2,1,10,-21
1514893832797753,4,-38,17,0,0,-2,1,7
1514893832799240,15,13,-9,-2,-3,-4,-1,2
1514893832799240,-36,-2,-7,-8,-7,-4,5,-4
1514893832819254,-29,18,-2,3,-4,-7,-9,14
1514893832819254,7,26,24,3,-2,-1,-4,-59
1514893832829772,13,-37,-28,-4,0,-2,-7,10
1514893832829772,3,1,8,8,6,3,-1,3
1514893832833769,6,4,11,11,2,-1,13,-2
1514893832833769,9,35,-4,-6,2,1,16,24
1514893832842271,-29,-30,29,7,-5,-3,-10,-21
1514893832842271,-3,-11,11,-9,-4,0,0,-2
1514893832857281,10,19,-21,-3,-5,-4,5,-6
1514893832857281,2,-5,-58,-3,6,3,-20,-23
1514893832858792,14,6,29,-3,-2,0,2,6
1514893832858792,14,32,64,23,1,0,-1,50
1514893832879797,-22,-48,-49,-32,-4,-2,-4,-55
1514893832879797,19,-1,49,18,-2,-2,-6,12
1514893832882299,-39,-2,-61,-17,-6,-3,-12,-29
1514893832882299,-14,2,19,-12,2,3,16,28
1514893832893317,4,21,31,-3,-2,-4,-1,-5
1514893832893317,18,-6,12,5,4,4,4,24
1514893832902816,-2,-16,-39,13,1,-2,11,57
1514893832902816,19,0,-1,2,0,0,-24,-90
1514893832917845,-38,16,66,8,-3,-3,-19,22
1514893832917845,6,-17,-61,12,4,5,12,-14
1514893832919335,-5,1,11,-22,-8,-5,-16,-25
1514893832919335,20,9,-9,-2,0,0,9,-14
1514893832939840,16,-21,-29,-16,-4,2,12,48
1514893832939840,-14,0,55,6,1,1,-4,-11
1514893832941340,13,30,-17,25,9,4,0,8
1514893832941340,0,-31,-27,-21,-6,-1,12,32
1514893832962365,0,15,23,19,3,1,-19,-73
1514893832962365,-3,0,32,-16,-8,-7,16,39
1514893832963856,1,19,57,7,3,4,-7,-34
1514893832963856,-3,-23,-85,2,-2,-5,16,16
1514893832977376,-6,9,-17,10,6,2,-10,51
1514893832977376,1,-14,-52,-15,-8,-4,-10,-5
1514893832978885,-13,11,42,0,-1,-2,-6,-49
1514893832978885,23,14,14,12,7,5,6,19
1514893832999903,-35,-30,-7,-40,-21,-12,-5,-16
1514893832999903,9,1,2,2,3,-2,-9,-37
1514893833001384,-5,-11,-44,3,2,3,1,17
1514893833001384,-7,-1,22,-5,-3,-2,-26,-29
1514893833013404,21,16,6,29,8,4,17,37
1514893833013404,-25,-21,1,-32,-8,-3,-5,-13
1514893833023409,12,19,33,3,-1,-1,15,20
1514893833023409,-11,-11,-27,5,0,0,1,-12
1514893833037418,5,22,6,-9,-2,1,11,4
1514893833037418,2,-18,-11,3,2,0,-3,-1
1514893833038919,8,-2,19,8,6,1,-5,10
1514893833038919,-10,0,24,1,2,2,7,25
1514893833059433,-3,-3,34,17,7,1,-11,-47
1514893833059433,-21,-34,-36,-22,-3,-4,15,44
1514893833059924,17,15,10,-7,-3,-2,-17,-27
1514893833059924,-2,30,8,4,-5,-1,17,31
1514893833081450,-18,-42,-42,-21,-6,-5,-22,3
1514893833081450,-6,19,40,23,2,0,-28,-47
1514893833082441,-2,-31,-65,-7,-6,-5,2,8
1514893833082441,-20,12,37,-10,1,-2,-3,-35
1514893833112471,32,12,-6,13,4,5,10,30
1514893833112471,-20,-26,-48,-21,-9,-7,0,13
1514893833112977,7,27,63,32,11,10,0,-1
1514893833112977,10,-10,16,-12,-4,-4,-11,-18
1514893833119476,-34,-2,-13,0,-2,0,23,33
1514893833119476,4,-3,12,10,4,0,-3,-15
1514893833119977,12,7,25,-15,-6,0,17,17
1514893833119977,-9,-13,-26,0,-4,-3,-1,71
1514893833141992,17,10,71,12,5,0,-31,-87
1514893833141992,12,15,0,11,1,3,9,24
1514893833142482,-8,-28,-79,-20,-8,-6,3,0
1514893833142482,-6,22,-3,5,1,2,-12,-7
1514893833158514,-3,-14,-55,-21,-6,-2,-4,33
1514893833158514,14,3,18,7,0,-3,4,-29
1514893833159007,33,38,24,16,3,1,10,40
1514893833159007,-20,-26,-26,-22,-6,-5,-17,-40
1514893833179510,-10,-18,8,3,-4,-2,7,-29
1514893833179510,9,24,59,14,4,3,7,1
1514893833180015,-11,-2,-42,-8,0,0,-12,1
1514893833180015,16,-18,-15,-1,-3,-3,-5,-7
1514893833201525,-11,7,8,-5,-4,-5,9,9
1514893833201525,-8,-14,-45,-16,-5,-5,8,44
1514893833202525,-14,-22,44,-16,-2,-1,-2,-51
1514893833202525,11,12,-38,11,-3,-5,-17,-13
1514893833217046,21,17,42,-7,9,3,13,42
1514893833217046,-23,-11,-31,8,0,2,-10,-20
1514893833217555,-33,2,-29,-3,-6,-5,-7,-7
1514893833217555,-5,7,12,-3,2,4,18,39
1514893833239051,20,2,32,9,-1,-6,-19,-27
1514893833239051,-7,-40,-54,-42,-10,-6,-12,-6
1514893833240052,13,26,41,17,1,-3,-7,-8
1514893833240052,-39,-30,-43,-10,0,0,2,-10
1514893833261577,11,-3,-11,12,0,-3,0,7
1514893833261577,6,34,49,3,6,8,32,94
1514893833262578,12,-12,-32,-6,-7,-5,-51,-89
1514893833262578,3,33,74,4,-1,-4,9,-24
1514893833276588,13,16,-68,-6,4,3,7,32
1514893833276588,-3,-42,-12,4,-2,-5,-22,-35
1514893833278589,1,-1,-3,-24,-7,-3,22,47
1514893833278589,28,26,45,17,3,0,-18,-14
1514893833299595,-26,-8,-28,-7,-1,1,-6,-19
1514893833299595,-2,10,4,-8,-5,-2,8,-1
1514893833301096,3,10,48,21,5,-1,-2,35
1514893833301096,-14,-29,-54,3,0,-1,5,1
1514893833321620,-28,15,40,-2,-3,-3,-3,-35
1514893833321620,17,15,15,20,4,4,16,28
1514893833330625,-7,-36,0,-11,1,0,-9,-4
1514893833330625,-2,-13,6,-20,-8,-4,-5,-51
1514893833336620,-2,-25,-70,2,1,-2,-4,4
1514893833336620,19,34,53,20,3,-1,4,-4
1514893833337621,-36,5,12,5,1,2,-1,-17
1514893833337621,9,-16,-74,11,-4,-4,15,81
1514893833359136,4,16,-3,-9,-7,-3,2,-21
1514893833359136,5,-26,13,0,8,1,-9,-38
1514893833360149,7,-4,36,-3,2,2,11,38
1514893833360149,7,28,6,2,-7,0,1,-2
1514893833381661,-20,-23,-13,-10,1,-2,-20,-20
1514893833381661,8,59,31,31,7,8,4,0
1514893833382654,8,30,-44,-27,-10,-6,2,11
1514893833382654,-5,-82,-23,-6,5,4,14,1
1514893833396672,16,36,49,13,-2,2,-6,6
1514893833396672,7,10,-53,-9,-11,-7,-12,-25
1514893833397673,-8,-33,0,-11,1,2,9,-5
1514893833397673,1,7,21,5,-5,-7,-28,-27
1514893833419188,21,20,38,10,11,6,19,46
1514893833419188,-27,-37,-8,-13,-9,-4,-15,-36
1514893833420179,15,13,-32,-7,-5,-1,14,23
1514893833420179,-15,13,16,1,6,5,3,4
1514893833441704,21,-10,22,39,4,3,-3,17
1514893833441704,-11,11,-65,-34,-8,-5,-9,-28
1514893833442705,1,35,-12,3,2,1,-2,-16
1514893833442705,-10,-37,68,9,1,-1,-5,-30
1514893833456714,-14,-13,-22,-15,-2,-5,-4,7
1514893833456714,-7,-38,-27,-8,-2,-2,-15,1
1514893833457717,2,-12,-6,-5,-1,-3,-1,-3
1514893833457717,4,45,54,17,2,2,-4,-4
1514893833479235,6,1,-34,-14,-13,-8,14,53
1514893833479235,-10,-50,-35,-19,-4,-3,-8,-44
1514893833480234,3,1,27,18,2,-2,-1,-7
1514893833480234,11,18,-2,-3,1,-1,-8,-11
1514893833501738,4,-8,-54,-13,-5,1,13,-3
1514893833501738,-10,22,44,6,1,0,17,36
1514893833503748,4,-45,5,0,-3,-6,1,-14
1514893833503748,-21,35,-25,7,0,-2,2,-27
1514893833516758,-26,-34,28,-32,-16,-6,-7,-9
1514893833516758,11,42,51,22,9,3,2,-2
1514893833517749,-8,-33,-85,-26,-10,-1,4,7
1514893833517749,0,3,7,3,5,1,14,20
1514893833539273,-23,13,17,1,4,1,-5,-20
1514893833539273,20,11,17,-9,-6,-3,0,16
1514893833539763,-18,-20,42,19,3,-2,-16,-26
1514893833539763,24,-2,-69,-18,-5,-3,7,47
1514893833561788,15,3,27,17,2,3,16,31
1514893833561788,-43,-14,-21,-3,5,1,-30,-26
1514893833562279,34,46,29,2,1,1,-3,1
1514893833562279,-17,-15,-11,0,-1,-3,-5,-15
1514893833576807,2,2,-10,-7,-3,-1,0,-6
1514893833576807,-2,1,8,12,-1,-1,18,31
1514893833577308,10,0,-56,-10,1,0,-18,-27
1514893833577308,-13,-1,-17,-26,-4,-4,-10,-6
1514893833599307,1,6,67,15,7,2,0,-12
1514893833599307,0,11,-33,6,-1,-3,-8,-28
1514893833600307,-12,28,2,0,1,6,26,81
1514893833600307,32,-40,-40,-10,-6,-5,-16,-33
1514893833621821,10,-2,-16,6,-2,-2,-8,-5
1514893833621821,-26,-41,-17,-11,0,-2,-2,2
1514893833622823,0,-15,-66,0,0,2,26,30
1514893833622823,0,41,114,-3,-1,-3,-27,2
1514893833644839,-3,-31,-61,-8,-3,0,-6,-66
1514893833644839,-4,9,41,10,-3,-2,-3,-9
1514893833645838,-5,-15,5,8,1,1,10,7
1514893833645838,13,3,-6,-4,-3,-3,7,6
1514893833659848,2,4,-6,-5,-1,-3,-13,18
1514893833659848,33,9,-4,9,1,-3,4,-2
1514893833660348,-2,21,36,-11,-1,3,1,-5
1514893833660348,-7,-29,-68,-11,-9,-5,6,-2
1514893833682374,-15,21,49,8,2,-2,-1,-2
1514893833682374,10,-32,-11,19,2,1,0,-13
1514893833683867,-6,1,12,-10,0,-5,-2,6
1514893833683867,-16,-10,-37,-3,-3,0,9,11
1514893833696884,1,-17,2,-5,0,-2,-18,-17
1514893833696884,4,23,25,4,-1,-1,1,11
1514893833705390,-10,-14,12,13,-3,-2,-6,-22
1514893833705390,8,17,37,4,1,2,12,20
1514893833720902,-12,-31,-92,-22,-6,-6,-10,-22
1514893833720902,21,19,52,0,-2,-2,5,20
1514893833722402,-51,-18,-42,-3,0,-2,-12,-27
1514893833722402,11,7,12,6,4,3,1,-3
1514893833741906,5,-6,18,10,0,-1,12,26
1514893833741906,-3,4,-3,-14,-2,-1,-2,-2
1514893833742407,9,-17,19,-7,-2,-2,-6,0
1514893833742407,-3,-3,-9,7,2,2,1,-3
1514893833755916,-13,13,11,2,0,-1,4,2
1514893833755916,-1,-3,-24,-8,-4,-1,-3,-1
1514893833764435,15,9,10,4,-4,-6,-7,-5
1514893833764435,-11,-8,-17,2,0,2,1,-5
1514893833778942,12,-16,13,3,1,2,5,7
1514893833778942,-1,0,-11,-10,-3,-1,0,3
1514893833779933,7,-8,-1,2,1,-1,-3,1
1514893833779933,-5,13,4,-2,-1,-3,-5,-10
1514893833801949,11,35,6,0,2,2,5,11
1514893833801949,-16,-28,-11,-13,-7,-3,-2,-1
1514893833803461,0,1,9,31,8,1,-3,-7
1514893833803461,1,4,-5,-15,5,3,-3,-3
1514893833815974,2,7,27,-10,-9,-3,1,1
1514893833815974,9,37,8,-9,-6,-1,0,2
1514893833824465,-1,-47,-17,0,-5,-2,-5,-6
1514893833824465,-7,5,30,12,3,1,0,-5
1514893833839487,-5,-4,-53,-14,0,-1,-2,4
1514893833839487,2,3,12,3,-1,0,-1,1
1514893833839993,5,10,-13,-12,-6,-2,-1,0
1514893833839993,7,0,15,3,-4,-2,-3,0
1514893833861993,-7,3,8,3,0,-2,-2,0
1514893833861993,-2,0,6,1,1,-1,0,1
1514893833862491,-3,7,0,6,3,-2,-4,-6
1514893833862491,-3,-13,-9,-12,-3,-2,-1,-1
1514893833876011,4,12,-3,3,-1,0,1,0
1514893833876011,-3,3,-11,-4,0,-2,0,-1
1514893833884518,-1,-30,2,-1,-3,-3,-3,0
1514893833884518,-1,7,18,0,-2,-4,-2,-5
1514893833900519,5,-8,-4,14,-1,-1,2,3
1514893833900519,4,7,-2,-7,1,-1,0,1
1514893833901519,7,17,18,-12,1,2,-1,0
1514893833901519,2,15,-12,-4,-4,-1,1,0
1514893833922534,-12,-29,7,3,3,-1,0,-2
1514893833922534,-2,-13,-11,5,1,-1,-1,-2
1514893833924546,-1,5,7,-3,-4,-2,-2,-3
1514893833924546,6,8,-9,7,6,2,1,3
1514893833937554,2,14,8,-4,-3,-3,-1,-1
1514893833937554,-3,-6,-4,-5,-4,-1,-4,-3
1514893833944059,-5,-8,-4,-3,-3,-1,-3,-2
1514893833944059,2,3,2,9,4,2,-1,-1
1514893833959070,-6,-9,-12,-10,-5,-2,-3,-2
1514893833959070,-3,-5,9,-4,2,-1,0,0
1514893833960071,8,8,-3,-7,-5,2,0,1
1514893833960071,-8,-20,1,5,-5,-2,0,-2
1514893833981576,1,9,2,-10,1,-1,1,2
1514893833981576,-4,0,-3,8,0,0,1,-1
1514893833982576,0,-3,3,5,2,-2,1,-2
1514893833982576,-1,-6,-28,-6,-2,-2,-3,-3
1514893833996086,0,8,13,1,-2,-2,-1,-1
1514893833996086,-5,-14,-17,-3,-3,-2,-2,-2
1514893834005593,-4,-7,-13,0,0,0,0,-1
1514893834005593,4,-2,2,-4,-3,-2,-2,-1
1514893834019114,-2,3,-2,-1,-1,-2,0,1
1514893834019114,3,-3,21,2,1,-1,-2,1
1514893834020120,-1,0,1,4,0,1,0,-2
1514893834020120,-2,-1,-13,-9,-5,-2,0,-2
1514893834041618,0,4,2,-2,1,2,1,-1
1514893834041618,-1,-5,2,6,-2,-2,-1,0
1514893834042619,1,-1,-7,0,-2,-3,-2,-1
1514893834042619,-5,-5,5,1,-1,-1,0,0
1514893834072641,-2,1,-2,-2,4,1,1,0
1514893834072641,-1,-7,-9,-8,-5,0,-2,-1
1514893834073141,-3,1,3,-2,-3,-1,-2,-1
1514893834073141,6,9,4,-1,1,0,1,0
1514893834079146,-8,-15,-2,7,-5,-4,-1,-1
1514893834079146,1,2,-8,-4,8,3,1,-1
1514893834080146,-5,-9,4,-3,-3,1,0,0
1514893834080146,1,-2,-5,0,0,-2,-2,0
1514893834101670,1,11,6,-4,-2,0,-1,-1
1514893834101670,-1,-2,-3,0,-1,-3,-1,-1
1514893834102671,-3,-4,-6,3,2,-1,-1,-4
1514893834102671,-2,2,2,-7,-4,-3,-2,-2
1514893834125693,2,3,-6,-1,0,0,-1,-2
1514893834125693,-1,-3,-7,-2,-1,-2,0,0
1514893834127694,-1,2,15,-1,0,1,0,-1
1514893834127694,-4,-4,1,-2,-3,0,-2,-1
1514893834139197,0,0,-5,-2,-2,-1,-1,-1
1514893834139197,-2,-4,-3,-4,-3,-2,-2,0
1514893834140198,0,-2,0,1,0,-2,-1,-1
1514893834140198,0,2,2,1,-1,-2,-1,-2
1514893834161713,0,-1,-2,-4,0,0,-1,0
1514893834161713,1,-1,6,3,-1,0,0,-2
1514893834162713,0,-1,-1,0,-2,-2,-2,-1
1514893834162713,-2,-2,-9,-7,-3,0,-3,-1
1514893834184725,2,4,-3,1,0,-1,0,-2
1514893834184725,-1,-3,-3,-1,-1,-4,-2,-2
1514893834185719,-1,-1,1,0,1,1,1,0
1514893834185719,-2,-1,2,2,-2,-3,-1,-1
1514893834199229,-1,0,-3,-1,-3,-1,-1,-2
1514893834199229,1,-5,1,-2,-2,-1,-1,-1
1514893834200265,0,-3,-4,-4,0,-3,-1,-3
1514893834200265,-2,1,0,0,0,-2,0,-1
1514893834221757,-2,2,-1,-1,-1,-1,-1,0
1514893834221757,-2,-3,3,-2,-1,-1,-2,-2
1514893834222746,-1,-1,-4,-1,1,1,-1,0
1514893834222746,-1,0,0,0,-1,0,0,0
1514893834244763,0,0,0,-1,2,-1,0,2
1514893834244763,-2,-3,-3,-1,-1,1,-1,-2
1514893834245762,0,-2,-4,-4,-1,-2,-2,-2
1514893834245762,-1,-1,-1,0,0,-3,-1,-2
1514893834266792,-1,0,1,-2,-2,-2,0,0
1514893834266792,-3,-1,-3,-1,-2,-1,-2,-1
1514893834275293,-2,-2,-2,0,-1,-2,-2,-1
1514893834275293,1,0,2,0,1,0,0,0
1514893834281797,-1,1,-3,-2,-2,0,-1,0
1514893834281797,0,-2,-2,-2,-3,-1,-1,0
1514893834282790,-3,-4,-1,-1,-1,-2,-2,-1
1514893834282790,0,-2,-1,-1,0,-1,-1,-3
1514893834304814,-1,0,-1,-2,-1,0,-1,0
1514893834304814,0,-1,0,1,-2,-1,-1,-1
1514893834305815,-2,-2,-1,-1,-2,0,-1,-2
1514893834305815,0,0,-1,-1,0,0,-2,0
1514893834319814,-1,0,-2,0,-1,-1,-2,-3
1514893834319814,-2,-2,0,-2,-1,-2,1,-1
1514893834321816,-2,-1,-3,-2,-1,0,0,0
1514893834321816,-1,-1,-1,1,-1,0,0,-1
1514893834349837,2,-1,-2,0,0,-1,-1,-3
1514893834349837,-1,-1,0,-1,0,0,-1,-2
1514893834350838,1,1,0,0,-1,-4,-2,-2
1514893834350838,-3,-5,-2,-2,-1,-1,-2,-2
1514893834364846,-5,5,-1,-2,0,-1,0,-2
1514893834364846,8,0,-4,-1,1,0,-2,2
1514893834365847,-12,-15,-4,-2,-1,-1,0,-1
1514893834365847,2,5,5,-1,-2,-2,-1,0
1514893834379357,-1,0,-1,-1,-2,-2,-10,2
1514893834379357,-3,-8,-2,-2,-3,0,10,0
1514893834379875,7,1,0,0,-2,-1,0,0
1514893834379875,-2,-1,-2,-2,-2,-1,0,-1
1514893834401873,-5,-4,-1,0,-1,-1,-1,-1
1514893834401873,-3,2,1,-2,0,0,-5,-1
1514893834402373,-1,-4,-1,-1,0,0,-3,0
1514893834402373,-3,-2,-2,0,-1,-2,-2,-2
1514893834424898,6,6,0,-1,-1,0,3,0
1514893834424898,-3,-3,-4,-2,0,-3,-4,-2
1514893834425390,0,0,-1,-1,-2,-1,0,-1
1514893834425390,2,2,-2,-2,1,-2,-4,-2
1514893834439409,-2,0,-2,-1,-2,1,2,-1
1514893834439409,-3,-4,1,1,-1,-2,-1,-2
1514893834439900,1,-1,-1,0,-2,0,-1,0
1514893834439900,0,-2,-1,-1,-3,-1,-1,0
1514893834461916,0,0,-2,-2,-1,0,0,-1
1514893834461916,-2,-3,-1,-2,0,1,-2,-2
1514893834462416,-2,-1,0,-2,-2,-1,-3,0
1514893834462416,-1,0,-2,-1,0,-1,1,1
1514893834484943,-1,-2,-2,-1,-2,-1,1,-1
1514893834484943,0,-1,0,0,0,-1,-3,-2
1514893834485933,-1,-3,-1,0,-2,1,-1,-3
1514893834485933,-2,0,-2,-1,-1,0,-1,-1
1514893834498950,0,1,-1,-1,-2,-3,-1,-3
1514893834498950,-3,-1,1,-1,-1,1,-2,1
1514893834506962,-1,-3,-3,0,0,-2,0,-1
1514893834506962,-2,-1,-2,-1,-1,-1,2,-3
1514893834522460,1,1,-1,-1,-1,0,-2,0
1514893834522460,0,-3,-2,-1,-2,-1,-1,-1
1514893834524469,-1,-1,-2,-2,-2,-1,-1,0
1514893834524469,-2,1,0,1,0,1,-2,-2
1514893834552491,-1,0,-1,-3,0,-1,0,0
1514893834552491,-2,-1,-1,-1,-1,-1,-2,0
1514893834552979,-1,-2,-1,0,-1,-2,0,0
1514893834552979,-1,-1,-2,0,-1,-1,-2,0
1514893834559011,-1,3,-1,-2,0,-1,-1,0
1514893834559011,-1,-2,-1,0,-1,-1,0,0
1514893834560007,1,-2,0,-1,-1,-2,-11,-1
1514893834560007,0,-2,-1,-2,-4,0,15,1
1514893834583504,1,-1,-1,-1,-3,-3,0,-1
1514893834583504,-1,-1,0,-1,0,-1,2,0
1514893834585502,-1,-2,-1,0,0,-1,1,1
1514893834585502,-1,1,-1,-1,-1,0,-4,0
1514893834605016,-1,-1,0,0,0,-1,-1,0
1514893834605016,-1,-4,-3,0,-1,1,0,-1
1514893834606016,-4,-3,0,-2,-2,0,0,-3
1514893834606016,0,0,-1,-1,0,0,-3,-2
1514893834619026,1,-2,-1,-1,0,-1,2,-3
1514893834619026,-1,-2,-1,0,-1,-2,-3,-1
1514893834620026,0,-1,0,-2,-1,-1,0,1
1514893834620026,-1,0,-3,1,-2,-1,-2,-3
1514893834642543,-1,0,-1,0,0,-1,-2,-2
1514893834642543,-2,-1,0,-2,-2,-3,-2,-2
1514893834643043,-1,-3,0,1,-1,-1,1,1
1514893834643043,0,-1,-2,-2,0,-2,-2,-2
1514893834664558,-1,-2,-2,-1,-1,-2,-3,1
1514893834664558,-1,0,-2,0,-1,-2,-1,-1
1514893834665559,-2,-4,-2,-2,-2,-2,-1,-3
1514893834665559,0,1,1,-1,-1,-3,-3,-1
1514893834678569,-2,0,-1,-2,-2,-2,0,-4
1514893834678569,-2,-4,-1,-3,-1,0,-3,-1
1514893834686583,-3,0,0,-1,0,1,1,-1
1514893834686583,0,-2,-2,1,0,-1,-1,-1
1514893834702598,-1,0,-2,-2,-1,-1,-1,-1
1514893834702598,-2,-1,-2,-1,-2,-2,1,0
1514893834703088,-1,-3,0,0,-1,1,1,-1
1514893834703088,0,1,-1,-3,0,-1,-2,0
1514893834725101,-1,1,-2,0,-1,-1,-1,0
1514893834725101,-1,-1,1,-1,-1,0,-3,-3
1514893834725602,0,-3,-1,0,0,-1,-1,-2
1514893834725602,-2,1,-2,-2,-2,-1,-2,-1
1514893834738620,-1,-3,0,-2,0,-1,1,0
1514893834738620,0,3,-1,-1,-1,1,-1,-2
1514893834746626,-1,0,1,-1,1,-1,-2,-2
1514893834746626,-2,-4,-1,-1,-1,0,-2,-1
1514893834761637,-2,2,-2,-1,-3,-1,-1,-1
1514893834761637,-1,-5,-1,-1,0,-1,-2,0
1514893834769132,-2,-2,-1,0,-2,1,0,1
1514893834769132,-1,0,-2,-1,-1,-1,-1,-2
1514893834785144,-2,0,-1,-2,-1,0,-2,-2
1514893834785144,0,-4,-1,-1,-1,-3,0,-1
1514893834786144,-1,-1,-2,-2,-1,0,0,-2
1514893834786144,0,-3,-1,-1,-1,-1,-2,0
1514893834807159,1,1,-3,-1,-1,0,-1,-1
1514893834807159,-2,0,-1,0,-2,0,0,-1
1514893834808163,-2,-2,1,-1,-1,-2,-1,-2
1514893834808163,-2,1,-2,0,-1,-2,0,-1
1514893834823686,0,-1,-1,-2,-1,-1,-1,-2
1514893834823686,-1,-1,-3,-1,-2,-1,-2,-1
1514893834824672,0,-4,-1,0,2,1,-2,0
1514893834824672,0,-1,-3,0,-1,-2,-1,-1
1514893834844695,0,-1,-1,-1,-1,-3,-1,-1
1514893834844695,-1,0,0,0,-2,-1,-1,0
1514893834845696,-2,-3,-2,-1,0,-2,-2,-3
1514893834845696,0,2,0,-1,0,-1,-1,-1
1514893834858710,-1,1,-1,-1,1,0,-1,-1
1514893834858710,1,-2,-2,-1,-1,-1,-1,-2
1514893834866715,0,-1,1,0,-1,-2,0,-1
1514893834866715,0,1,0,0,-2,-1,-2,0
1514893834881721,1,0,-1,-1,-1,-1,0,0
1514893834881721,-2,-4,-1,0,1,-1,0,-1
1514893834890233,-1,2,0,-2,0,0,-1,0
1514893834890233,-1,-1,-1,-2,-1,0,0,0
1514893834905238,-1,0,-3,-2,-1,0,-2,-1
1514893834905238,-1,-1,-1,-1,1,0,-1,-1
1514893834906239,-2,-3,0,-2,-1,-1,0,-2
1514893834906239,-2,-1,0,-1,0,-2,0,0
1514893834918752,-2,1,0,0,-1,-2,1,-2
1514893834918752,-1,-2,-1,0,0,0,2,0
1514893834926753,-2,-3,-2,1,-1,0,1,-1
1514893834926753,1,2,-1,-2,-2,-1,-1,0
1514893834942264,0,-1,-3,-1,-3,0,-3,-2
1514893834942264,-1,-1,-2,-1,-1,-2,-1,-2
1514893834944271,1,0,-1,1,0,-2,-1,0
1514893834944271,-2,-1,-2,0,0,-3,-1,-1
1514893834964771,0,2,-1,-1,-1,-2,0,0
1514893834964771,-1,-2,-3,0,-2,0,-1,-1
1514893834965771,-2,-2,-1,-2,-3,-1,-1,-1
1514893834965771,0,-2,-4,-1,-1,-1,-1,0
1514893834978280,-2,2,2,0,-3,-2,-1,-1
1514893834978280,-2,-3,0,-2,-1,0,-2,0
1514893834986786,-2,-2,-3,-2,-1,-2,-3,-2
1514893834986786,-1,2,2,-1,0,1,-1,-1
1514893835001797,0,-1,-1,-3,0,-2,1,-1
1514893835001797,2,-4,0,-3,-1,-1,0,-1
1514893835002797,-1,-3,0,-1,-2,-1,-1,-1
1514893835002797,-1,0,-2,-2,-1,0,-1,-1
1514893835024822,-1,1,-1,-2,0,-2,-2,0
1514893835024822,-2,-2,0,-1,-1,0,-1,-1
1514893835025824,-1,-3,-2,-2,-1,1,0,-1
1514893835025824,-2,0,-1,1,2,1,0,-2
1514893835047341,-1,0,-1,-4,-2,-2,1,-1
1514893835047341,-1,-3,-1,-2,0,-1,-2,-2
1514893835048330,-1,0,0,1,0,-2,-1,0
1514893835048330,0,1,-2,-1,-2,0,-2,1
1514893835062351,0,-1,-3,-2,1,-1,1,-1
1514893835062351,-3,-1,1,-1,-2,-1,1,-1
1514893835063340,-1,-3,1,0,-1,-2,-2,0
1514893835063340,0,0,0,-1,0,-1,-1,-3
1514893835084855,0,0,-2,1,-1,-1,-1,-1
1514893835084855,0,0,0,0,-2,0,-1,0
1514893835085870,-2,-1,0,-1,1,0,0,-1
1514893835085870,-2,0,0,0,-2,-3,-2,-1
1514893835107380,-2,-2,-3,0,-1,-2,-2,-2
1514893835107380,-1,-1,-1,0,1,-1,-1,-1
1514893835108873,-1,-3,-3,0,-4,-1,0,-2
1514893835108873,0,-2,-1,-2,-1,0,-1,-1
1514893835120881,-1,1,0,-1,-1,0,-2,-1
1514893835120881,-1,-2,-1,-1,-1,-2,-1,-1
1514893835129899,-2,-2,-2,1,-1,-1,-1,-1
1514893835129899,-2,-1,-1,-1,0,-3,-1,-2
1514893835152412,1,0,0,-1,0,0,1,2
1514893835152412,-2,-5,-2,0,-2,-1,-2,-1
1514893835153906,-2,-2,-4,-3,0,-1,-2,-3
1514893835153906,0,0,-1,-2,-1,0,0,0
1514893835167414,-3,-1,-2,-1,-1,-3,-2,-3
1514893835167414,0,1,-1,-3,-1,-1,-1,0
1514893835168915,0,0,-1,-1,1,2,-1,2
1514893835168915,-1,0,-1,-2,-1,-1,-1,0
1514893835181436,-1,-1,-1,0,-1,-1,1,-1
1514893835181436,-1,-2,-1,-3,-1,0,-1,-1
1514893835190440,-2,-2,-1,0,-2,-3,-1,-1
1514893835190440,-3,1,0,-1,-4,-1,0,0
1514893835204949,-1,0,1,-2,-2,-1,-2,-1
1514893835204949,0,-1,-1,1,0,0,-3,0
1514893835206451,-1,-2,-1,0,-2,0,-1,-2
1514893835206451,-1,-1,-2,-3,-2,0,-1,-2
1514893835227471,0,1,-1,1,-3,-1,-2,-1
1514893835227471,-2,-1,-1,-1,0,0,-2,-2
1514893835228957,0,-3,0,-2,-1,-1,0,0
1514893835228957,-1,0,-1,1,-1,-2,-1,0
1514893835249992,-1,-2,-2,-3,0,0,-1,-2
1514893835249992,0,-1,-2,-2,-3,-4,0,-2
1514893835251473,0,0,-1,-1,0,0,-1,-1
1514893835251473,-1,-1,0,-1,-1,-2,-1,-1
1514893835264982,-2,1,-1,-2,-1,-1,0,-2
1514893835264982,-2,-2,-2,0,-1,0,1,-2
1514893835266484,-1,-2,-2,-2,0,-1,0,-1
1514893835266484,-2,0,0,-1,-1,0,-2,-3
1514893835288028,0,1,0,0,0,-1,-1,-1
1514893835288028,0,-2,-1,0,-2,0,0,-2
1514893835289510,-1,-2,-2,0,-1,-3,-2,-1
1514893835289510,1,1,0,-1,0,-1,-2,1
1514893835303019,0,-1,-3,0,-1,-3,-2,-2
1514893835303019,-2,-2,-1,-1,-2,0,-1,-2
1514893835308513,-1,-1,-2,-2,-2,1,-1,0
1514893835308513,0,1,-2,0,0,-2,-1,-1
1514893835325037,-1,-1,-2,-2,-1,-3,0,0
1514893835325037,-2,-2,-2,0,-2,-2,-1,0
1514893835327039,-2,-3,-1,-1,1,-1,0,-2
1514893835327039,-2,-1,-2,-3,0,0,0,-2
1514893835347553,-1,0,-1,-1,-1,0,-4,-2
1514893835347553,0,-2,-1,-1,-1,-1,-3,-1
1514893835349054,0,-1,-1,0,-1,-2,0,-2
1514893835349054,-2,-1,-1,-2,-2,-1,0,-2
1514893835361560,-1,-1,-2,-2,-1,0,-1,-1
1514893835361560,-2,0,-1,-3,0,-3,-1,-1
1514893835368558,0,0,-1,0,-2,-2,0,-1
1514893835368558,-1,-2,0,-1,-3,0,-2,-2
1514893835385569,-1,-2,-2,-1,-3,-2,-1,-2
1514893835385569,-1,-1,1,1,-1,-1,-2,-1
1514893835389085,-2,-1,2,-2,1,1,-1,-3
1514893835389085,-1,1,-4,-1,-1,-2,-2,-2
1514893835407584,0,-1,0,-1,-4,-1,-1,-3
1514893835407584,0,0,-1,-2,-2,0,-2,-1
1514893835409094,-1,-3,0,-1,-2,0,0,-1
1514893835409094,0,0,-1,-1,0,0,-1,-2
1514893835421593,-1,0,-1,-1,1,0,1,1
1514893835421593,-1,-3,-1,0,-1,-1,-1,1
1514893835428598,-2,-2,0,-1,-1,1,0,-1
1514893835428598,-1,0,-1,-2,-1,0,-1,1
1514893835445110,-1,-2,-3,0,-1,0,-2,0
1514893835445110,-2,-2,0,0,0,-1,-1,-1
1514893835446614,-2,0,0,0,1,-2,-2,0
1514893835446614,0,0,-1,0,-2,-2,-1,0
1514893835467627,-1,0,-1,-2,-2,-2,-2,-2
1514893835467627,1,-2,0,-1,-2,-1,0,-2
1514893835469127,0,0,-2,-2,-1,-1,-2,-1
1514893835469127,-1,0,0,0,-2,-1,0,-1
1514893835481635,-1,-1,-1,-2,-1,-1,-3,-2
1514893835481635,0,-1,-2,-1,0,0,-2,-1
1514893835489154,0,-2,-1,-1,-1,-1,-1,0
1514893835489154,-1,0,-1,-1,-1,-2,-1,0
1514893835504664,-1,-1,-3,0,-1,0,0,-1
1514893835504664,-3,-3,-1,-2,-1,-2,0,-2
1514893835506665,-2,-1,-1,-1,-2,-2,-1,-1
1514893835506665,-1,-1,-1,-1,-1,-2,-2,-1
1514893835527178,-1,0,0,-2,0,0,0,-1
1514893835527178,-1,-1,-2,0,-1,-1,-1,-2
1514893835529179,-2,-1,0,1,-1,-1,-2,-1
1514893835529179,-2,-1,-2,-1,-1,0,0,1
1514893835541187,-1,-1,-1,-4,-1,-1,-1,0
1514893835541187,-1,-1,-1,-3,-3,-3,-3,-2
1514893835550194,1,0,-1,-2,-1,-2,0,2
1514893835550194,-2,1,-2,0,-2,-2,0,-1
1514893835564704,-1,0,0,0,0,0,-1,0
1514893835564704,-2,-3,-2,-1,0,-1,0,0
1514893835568199,-1,-1,-1,-1,0,-1,-1,-2
1514893835568199,0,-1,0,0,-2,-3,-1,-1
1514893835586710,1,-1,-1,0,0,0,-1,2
1514893835586710,-3,-2,0,-1,-1,0,-2,0
1514893835595216,-2,-1,-1,-1,-1,-2,-2,-1
1514893835595216,-2,-1,-1,-1,0,-1,-1,-4
1514893835601222,-1,-2,0,0,-1,-2,1,-1
1514893835601222,-1,-2,-2,-2,-1,-1,0,-2
1514893835610226,0,-1,-2,-2,-1,0,-1,-2
1514893835610226,1,1,-1,-2,-2,-1,-1,-2
1514893835624736,-3,0,0,-2,-2,-1,-1,-2
1514893835624736,-2,-1,0,0,-1,-1,-3,-1
1514893835626739,-2,-1,-2,-1,-1,-1,-1,0
1514893835626739,-1,-2,-1,-1,0,1,-2,-1
1514893835647267,0,-1,-2,-2,-1,-1,0,-2
1514893835647267,-1,-3,-1,0,-2,-2,-2,0
1514893835648754,-3,-1,-1,0,-1,-1,-1,-1
1514893835648754,0,-1,-2,-1,0,-3,1,1
1514893835660765,-1,-3,-1,-1,-1,-3,0,-2
1514893835660765,-1,-1,-1,-2,0,-2,0,0
1514893835669768,1,1,-1,-3,-1,0,-1,-1
1514893835669768,0,2,-2,-1,-1,0,-2,-1
1514893835685280,-1,0,0,-1,0,0,-1,0
1514893835685280,0,-1,-2,-1,0,-1,-1,-2
1514893835687781,1,-3,-1,0,-1,-2,0,-1
1514893835687781,-2,0,0,0,-1,0,0,1
1514893835707295,-1,-2,-1,-2,-2,-1,0,-2
1514893835707295,-2,-2,-1,0,-1,1,0,-1
1514893835708796,0,0,-1,1,-1,-1,-1,0
1514893835708796,-2,-1,-2,-1,-2,-2,-2,-1
1514893835720805,0,0,-3,-1,0,-2,-2,1
1514893835720805,-1,-1,0,-2,0,0,1,-1
1514893835729811,0,-1,-2,-3,-2,-2,-2,-2
1514893835729811,0,-1,-1,-2,0,-1,-1,-1
1514893835752327,0,0,-2,-2,-1,0,-2,-1
1514893835752327,-1,-3,-1,-2,1,1,0,-2
1514893835753828,-2,-3,-1,-1,-1,-2,0,-2
1514893835753828,-1,0,-1,-2,-2,-1,0,0
1514893835767338,-1,-2,1,0,-2,-3,-1,-2
1514893835767338,-1,-1,0,0,-2,-2,-1,0
1514893835768839,-2,0,0,0,-1,-1,-3,-1
1514893835768839,0,0,0,-1,-1,1,-1,2
1514893835789854,-2,-1,-1,1,1,-3,-2,0
1514893835789854,-1,-2,-2,0,-1,-1,-2,-1
1514893835792355,-1,1,-1,-2,0,-1,1,-1
1514893835792355,1,0,0,-3,0,-1,1,-1
1514893835805364,-1,-1,-1,0,-4,-1,-2,0
1514893835805364,-1,-2,-2,-3,-2,-2,0,2
1514893835806866,-3,-3,-2,-2,-2,-2,-2,0
1514893835806866,0,-1,-1,0,-2,-1,0,-1
1514893835827381,-2,-1,-2,-1,0,-2,-2,-1
1514893835827381,-1,-1,-2,0,-2,-1,-2,-1
1514893835828882,1,0,-1,-2,-1,0,0,-1
1514893835828882,-1,-1,-2,-1,-2,-2,-2,-2
1514893835849905,-2,-2,-1,-4,0,0,-1,-2
1514893835849905,0,-1,1,0,-1,0,-2,-1
1514893835851398,-1,0,0,1,0,1,-1,-2
1514893835851398,0,-1,-1,-1,-1,-1,-1,0
1514893835865416,-1,-2,-2,-2,-1,-1,0,-1
1514893835865416,-1,-3,1,-2,-2,-2,0,-1
1514893835866908,-1,0,-1,-1,1,-2,-1,-1
1514893835866908,-1,-1,-3,-2,1,-2,0,-2
1514893835887432,0,-2,-1,-1,-2,-1,-1,0
1514893835887432,0,-2,-1,-2,1,0,-2,0
1514893835888933,-1,-1,-3,-2,-1,1,0,-1
1514893835888933,-2,1,-1,-1,-1,0,-3,-2
1514893835900933,0,-1,-1,0,-3,0,-2,-1
1514893835900933,-1,-1,0,1,-2,-2,1,-2
1514893835909938,-2,-1,-2,-1,0,-1,-2,0
1514893835909938,-1,-1,0,-1,-1,0,-2,0
1514893835924958,-2,-2,-2,1,-1,1,-1,-2
1514893835924958,-2,-2,-1,0,0,0,1,-1
1514893835926460,-1,2,-1,-1,-2,-1,1,-1
1514893835926460,-1,1,-2,-3,0,0,1,-1
1514893835947480,-1,-3,-1,-3,-2,-3,-2,-1
1514893835947480,0,-1,0,0,0,0,0,0
1514893835948980,-2,-2,-1,-1,-1,-2,0,-1
1514893835948980,0,-1,-2,-1,0,-3,-1,-1
1514893835969993,-1,-4,-1,-1,-1,-1,-2,-1
1514893835969993,-2,-2,-1,-2,0,0,-2,0
1514893835971494,1,-2,1,-2,-2,-1,0,0
1514893835971494,-2,0,0,-3,-2,0,-2,-1
1514893835984992,-2,-1,-1,0,-2,-2,1,-1
1514893835984992,-2,-2,-2,-3,-1,-1,0,-1
1514893835987503,-3,-1,-2,-1,-2,-3,-3,0
1514893835987503,-1,-1,0,-1,-2,-3,0,-1
1514893836016013,-2,-1,-2,0,0,-2,-1,-1
1514893836016013,0,-2,-1,0,0,0,-1,-2
1514893836019516,-2,-1,0,0,-2,-3,-2,-1
1514893836019516,-2,1,-1,-1,1,0,-1,-2
1514893836030535,0,-2,-2,-2,-2,-1,0,-1
1514893836030535,-1,-2,-1,1,-2,-1,-3,1
1514893836032037,0,0,-3,-1,-1,0,-1,0
1514893836032037,0,-1,0,0,-2,-1,0,0
1514893836045046,0,0,-1,-1,0,-1,-1,0
1514893836045046,-3,-2,0,-2,0,-2,0,0
1514893836046550,-1,-1,2,0,-2,-1,0,-2
1514893836046550,-1,1,0,-1,0,-3,0,-1
1514893836074564,-1,-1,0,-1,-1,0,-2,0
1514893836074564,-1,-4,-2,0,-2,0,-3,-3
1514893836076566,0,-1,0,-1,-1,1,-1,-2
1514893836076566,0,1,-4,-1,-1,0,0,-2
1514893836090068,-1,-2,-2,-2,-2,-4,0,-3
1514893836090068,-1,-2,-1,-1,0,-2,-1,-1
1514893836091577,-3,-1,-3,-2,-1,0,-1,-2
1514893836091577,-2,-1,-1,0,-2,-1,-1,-2
1514893836104087,-3,-1,-3,-1,-1,-1,-1,-1
1514893836104087,-2,-2,-3,0,-2,-1,-1,-2
1514893836111081,0,-3,-2,0,-1,-1,-3,-1
1514893836111081,0,2,1,0,0,0,-2,0
1514893836127606,-1,0,0,0,-1,-1,0,-1
1514893836127606,-1,-1,-1,-2,-1,0,-1,-1
1514893836129103,-2,-1,-1,0,-2,-3,-2,-2
1514893836129103,-2,-3,-1,-2,-2,-1,-1,-3
1514893836157140,-1,-3,-1,-3,0,-1,0,-2
1514893836157140,-4,-3,-1,0,-2,-3,-2,-3
1514893836159129,-1,0,0,-1,0,0,0,-3
1514893836159129,-3,-1,0,1,-2,-2,-1,-2
1514893836164128,0,-2,-2,-2,-2,-1,-2,-1
1514893836164128,-2,-3,-2,-2,-1,-1,-1,1
1514893836171133,-1,-1,-1,-2,1,-2,-2,-1
1514893836171133,0,1,-2,0,-1,-1,0,1
1514893836187635,-1,-3,-1,-1,-1,-1,-2,0
1514893836187635,-1,-2,0,0,-2,0,-1,-1
1514893836190637,-2,-1,-1,-1,-2,-1,-1,-1
1514893836190637,0,0,-2,-2,0,0,0,-2
1514893836209662,-1,0,-2,-1,0,2,0,-2
1514893836209662,0,-2,-2,0,0,-1,1,0
1514893836211651,0,0,-1,0,1,-2,0,-2
1514893836211651,0,-1,-1,-1,-1,-1,-1,-1
1514893836224160,1,0,-2,-1,-1,-1,-2,-1
1514893836224160,0,-2,-1,-1,-2,0,0,-1
1514893836231175,-1,0,-1,-1,-1,-1,-3,0
1514893836231175,-1,1,2,-1,-1,-2,0,-1
1514893836247178,-3,-3,-3,-1,-2,-2,-2,-3
1514893836247178,1,1,0,-2,0,-1,0,0
1514893836249177,0,-1,-2,0,-3,-2,0,-3
1514893836249177,2,0,-2,-2,-1,-1,0,1
1514893836270195,-1,-2,0,-1,-2,-2,-2,-1
1514893836270195,-2,-1,0,-1,-2,-2,0,2
1514893836271695,0,-1,-2,-1,0,0,1,-1
1514893836271695,0,-1,-1,-3,-2,0,0,0
1514893836292710,0,0,-1,-2,0,-1,-1,-1
1514893836292710,0,-3,0,-1,-2,-1,-2,-2
1514893836294210,-2,-1,0,-1,-2,0,0,0
1514893836294210,-4,1,-2,0,-2,-1,-3,-2
1514893836307723,1,0,1,-1,0,0,-2,3
1514893836307723,-1,-4,-2,-2,-1,-2,0,0
1514893836309222,0,-1,-1,-1,1,0,-1,0
1514893836309222,1,0,-3,-1,0,0,0,-1
1514893836329737,-1,-3,-1,-1,-2,1,-1,1
1514893836329737,-2,-1,-1,-1,0,0,-1,-1
1514893836331736,-1,0,-1,-2,-2,0,0,2
1514893836331736,-1,-2,-1,-2,-1,-2,0,-2
1514893836344245,-1,-2,0,-2,0,-1,0,-2
1514893836344245,-3,-3,-2,-1,-3,0,-1,-2
1514893836358760,-2,0,-4,-1,-1,-1,0,-1
1514893836358760,0,0,-2,-2,0,-1,-1,-2
1514893836367261,-2,0,-3,0,-1,-2,-1,-2
1514893836367261,-2,0,1,-1,-2,-1,-2,-4
1514893836369770,0,-1,-1,0,2,1,-2,2
1514893836369770,-1,-2,-2,-1,-1,-1,-3,0
1514893836390279,-1,-4,-1,-1,-1,-1,0,-3
1514893836390279,-3,-2,-2,-1,-1,-2,-1,-2
1514893836391778,-3,-1,1,-1,-2,-2,-1,-1
1514893836391778,-2,0,-2,0,-1,-2,-1,-1
1514893836404788,-1,-1,-1,-1,-1,-2,-1,0
1514893836404788,-1,-2,-1,0,1,-2,-1,-1
1514893836411293,-1,0,-1,-1,-1,0,-1,-2
1514893836411293,-1,3,0,-1,-2,-1,0,-1
1514893836442316,1,-3,0,-2,0,0,1,0
1514893836442316,-3,-4,-1,-1,-1,-2,-1,0
1514893836443817,-1,0,-1,-1,-1,-1,-1,-2
1514893836443817,1,0,-3,-2,-3,-1,-3,0
1514893836450821,-2,-1,-1,0,-1,0,-1,0
1514893836450821,-1,-2,-3,-2,-2,-2,-3,-1
1514893836453326,-2,-1,0,-1,-2,-1,-2,-3
1514893836453326,1,-1,0,-2,-2,-3,0,1
1514893836463329,-2,0,-1,-1,0,1,-1,-2
1514893836463329,1,-2,-1,1,0,0,-1,0
1514893836478341,0,-1,-2,0,-2,-1,0,1
1514893836478341,-1,-1,-1,0,-1,0,-1,0
1514893836487849,0,-2,-2,-1,-2,-2,-1,-1
1514893836487849,0,-3,0,0,0,0,0,0
1514893836489848,-1,0,-1,0,0,-2,-1,-1
1514893836489848,-1,1,-2,0,0,1,0,-2
1514893836510365,-2,-2,0,-2,-2,-2,-3,0
1514893836510365,-1,-1,-1,-2,-2,-1,-3,-1
1514893836511865,0,-1,1,-1,-1,-1,-2,0
1514893836511865,0,0,-1,-2,2,-2,-2,-1
1514893836524375,0,-2,-1,-1,-1,-3,-2,0
1514893836524375,-1,-2,-2,-2,1,-3,1,0
1514893836533379,1,1,-3,-2,-2,0,-2,-2
1514893836533379,-2,1,-1,-2,-2,0,1,-1
1514893836547392,0,-2,-2,-1,-1,1,-2,-2
1514893836547392,-1,-3,-1,-1,0,0,0,-4
1514893836548890,1,-2,-1,1,0,0,-1,0
1514893836548890,-3,-1,-1,-2,0,-1,-3,-2
1514893836570408,-1,-3,2,-1,-1,1,1,0
1514893836570408,-2,-2,-1,-1,-1,-1,0,1
1514893836571408,-1,0,-2,-2,-1,0,-1,-2
1514893836571408,-1,-1,-2,-1,-1,0,-1,-1
1514893836583414,-1,-1,-3,-3,-1,-1,-2,0
1514893836583414,0,-3,-2,0,-1,-2,-1,-1
1514893836592923,-2,-1,-2,-3,-2,-2,-1,0
1514893836592923,-2,-2,-3,-1,-1,-3,-1,-3
1514893836607434,-2,-1,-1,0,1,-1,-2,-1
1514893836607434,0,0,0,0,-1,1,0,1
1514893836609938,-1,0,-2,-1,-1,-1,-2,0
1514893836609938,0,-1,0,0,-2,-1,1,-1
1514893836629949,0,5,-2,-2,-2,-1,-1,-2
1514893836629949,-1,-2,0,1,-1,0,-2,-2
1514893836631450,-2,1,0,-2,-3,0,-2,-2
1514893836631450,1,1,-1,-1,-1,1,-1,0
1514893836643960,0,-3,0,-2,-1,-3,-1,-1
1514893836643960,-1,-3,-2,0,-1,-2,-1,-2
1514893836652966,-2,1,0,-2,1,-1,-1,0
1514893836652966,0,1,-1,-1,0,-1,0,-1
1514893836666473,-1,-5,0,0,-2,-1,-1,-1
1514893836666473,-3,-1,0,-1,-1,0,-2,-2
1514893836680983,-2,0,-1,0,-2,-2,1,-2
1514893836680983,0,0,0,-2,0,0,-2,-2
1514893836689991,-2,-4,0,0,-1,0,-1,-1
1514893836689991,-2,-4,2,-3,-2,-1,-2,0
1514893836691490,0,0,-2,-2,0,0,-1,-1
1514893836691490,-3,-1,0,-3,-2,-2,-1,0
1514893836712005,-1,-3,-1,-1,0,0,-1,-2
1514893836712005,1,-2,-2,-1,-3,0,0,-2
1514893836714006,-2,0,-1,-1,-2,-1,-1,-1
1514893836714006,-1,0,-2,0,-2,-1,-3,0
1514893836727516,-2,-1,-2,0,-1,0,0,-1
1514893836727516,-3,-3,-3,0,-2,0,-2,-2
1514893836729017,-3,-2,-2,-1,-1,-1,-1,-1
1514893836729017,0,1,0,0,-1,-1,0,0
1514893836749531,0,1,-1,-1,0,-2,-1,-1
1514893836749531,-1,-3,0,0,-1,-1,-3,-2
1514893836751535,-2,-1,-2,0,-1,-1,-1,0
1514893836751535,-2,2,-2,0,-1,-3,-2,-2
1514893836764059,-1,-3,0,-2,0,-2,-2,0
1514893836764059,0,-2,-3,-2,0,-1,1,-1
1514893836772565,-2,-1,-1,-1,-1,-1,0,-2
1514893836772565,-1,-1,-1,-1,-1,-1,0,-1
1514893836787067,-2,-3,-1,-1,-1,0,1,0
1514893836787067,-2,-1,-2,-2,-1,-3,-1,-1
1514893836789059,-1,-2,-2,-1,-2,0,-3,-1
1514893836789059,0,1,-2,-3,-2,0,-1,-1
1514893836809586,-3,-3,-3,-1,-1,-2,-3,-3
1514893836809586,-3,-3,0,-3,0,-2,-2,-2
1514893836811587,0,1,1,-1,-1,0,0,-1
1514893836811587,0,0,-1,-2,-1,-2,-2,-1
1514893836823594,1,-2,-1,0,-1,0,0,-1
1514893836823594,-2,-2,-1,-1,0,0,-1,0
1514893836832600,1,1,-2,-1,-1,-1,-1,-2
1514893836832600,-2,-1,0,0,0,-2,-2,-2
1514893836847601,1,-2,-1,-2,-1,-1,0,-1
1514893836847601,-1,0,-2,-1,-1,-1,-1,-2
1514893836850102,-3,-1,-3,-2,-1,-2,0,0
1514893836850102,0,1,-1,-3,-2,-1,-2,-1
1514893836870116,-2,-2,-2,-2,-1,0,0,-1
1514893836870116,-3,-3,0,-1,-1,-2,-1,-1
1514893836871630,-3,1,0,-1,-1,-2,0,-1
1514893836871630,-1,-1,-2,-2,-1,-1,0,0
1514893836884148,-2,-8,5,1,0,1,-1,0
1514893836884148,-2,-4,-1,0,0,-2,-2,-1
1514893836892632,2,-1,-1,-2,-2,-2,-1,1
1514893836892632,-1,0,-1,-1,0,-2,0,-2
1514893836907152,0,0,-1,-2,-2,0,0,-1
1514893836907152,-1,-4,-1,-1,-3,-1,-1,-2
1514893836909153,-1,-1,1,2,-2,-1,-1,-1
1514893836909153,2,2,-3,-1,-1,-3,-2,1
1514893836929168,-1,-1,-1,-1,-2,-1,0,0
1514893836929168,1,-2,-1,0,-2,1,0,-1
1514893836937674,-2,1,-1,-1,0,1,0,0
1514893836937674,0,-1,-1,-2,-2,0,0,0
1514893836952174,-1,-1,-3,-1,0,-1,-3,-2
1514893836952174,-2,-9,0,1,1,0,1,2
1514893836954176,-2,-1,-2,0,-1,-1,0,-1
1514893836954176,-2,-2,4,0,0,1,0,0
1514893836967186,-1,-5,-3,-2,-2,0,1,-1
1514893836967186,0,1,-1,-2,-3,0,-2,-1
1514893836969188,0,1,-1,-1,0,0,0,0
1514893836969188,0,1,-2,-1,1,-1,2,-1
1514893836990202,-1,0,-1,-2,-1,-1,-2,-1
1514893836990202,0,-1,-2,0,-1,-1,0,2
1514893836991711,-2,1,-1,-1,0,-3,-2,-2
1514893836991711,-1,1,-3,-2,-3,-1,-1,-2
1514893837012229,0,-1,-2,-1,2,-2,-1,-1
1514893837012229,-1,-1,-2,-2,-1,-1,-1,-1
1514893837014218,-1,0,-1,-1,0,0,-1,-2
1514893837014218,0,1,-2,-1,-2,1,-2,-1
1514893837027227,-1,-2,-2,-1,0,-1,-2,-1
1514893837027227,0,-1,0,-2,-2,-1,-3,-1
1514893837029229,-2,-6,2,1,0,-1,-1,0
1514893837029229,-4,3,-4,-3,-1,0,-1,-3
1514893837049747,-2,-2,-2,-1,-1,-1,1,0
1514893837049747,-2,-2,-2,0,0,-1,0,-2
1514893837051746,-1,0,-3,-2,-2,-2,0,-1
1514893837051746,0,0,0,2,0,-3,1,1
1514893837072259,-3,-1,1,-1,-2,-1,-1,-1
1514893837072259,-2,-2,-1,0,0,1,-2,-2
1514893837073761,-1,1,-2,-1,-1,0,-3,-3
1514893837073761,-2,-1,-1,0,0,-3,-1,-1
1514893837086770,0,-3,-2,-1,-2,-2,-4,-1
1514893837086770,-1,-4,2,-1,0,-2,0,-2
1514893837093287,0,2,-3,-3,-1,0,0,-1
1514893837093287,-2,2,-1,-1,-1,-1,-1,0
1514893837109798,-1,-2,-2,0,-2,-1,0,-2
1514893837109798,-2,0,-3,-1,-1,-2,-1,0
1514893837111299,-2,1,0,0,-1,-2,1,-1
1514893837111299,-1,-1,-1,-2,-1,0,-4,-1
1514893837132311,-2,-2,-1,-2,0,-1,-1,0
1514893837132311,-1,-3,-1,-1,-1,-1,-2,-2
1514893837133803,0,-1,-2,0,0,-3,-2,-3
1514893837133803,-1,-1,0,1,-1,-2,-1,0
1514893837146822,1,-1,1,-1,-2,-3,-3,-3
1514893837146822,-2,-3,0,-1,0,-1,0,-1
1514893837153829,-2,-2,-3,-2,-2,0,-2,-1
1514893837153829,1,2,-2,-2,-2,0,0,0
1514893837169829,-1,-2,-2,-1,-1,-1,0,1
1514893837169829,-1,-2,0,-2,-1,0,-3,-4
1514893837171329,-1,-1,2,-2,-1,-1,0,-1
1514893837171329,-2,1,-3,-3,-2,-3,-1,0
1514893837199859,-2,-1,-2,-1,0,-1,-1,-1
1514893837199859,0,-2,0,1,-1,-1,-2,0
1514893837201354,0,-2,-3,-2,0,-1,0,-1
1514893837201354,0,0,0,-1,0,0,0,0
1514893837206860,-1,-3,-2,-2,-2,-2,-1,0
1514893837206860,0,-1,-2,0,-2,-1,-2,-1
1514893837213369,-2,-1,-2,-2,0,-1,-2,0
1514893837213369,-5,-2,1,1,0,0,0,-3
1514893837229871,-2,-5,-3,0,0,-2,-1,-2
1514893837229871,-1,-2,-1,-2,1,-2,1,-1
1514893837231372,0,-1,3,1,0,-1,-1,-2
1514893837231372,0,-2,-2,-2,-3,-2,-2,-1
1514893837252387,-1,-2,-1,-1,-1,0,-1,-3
1514893837252387,-3,-5,1,1,-1,0,0,0
1514893837253888,0,4,-1,0,-1,-1,0,1
1514893837253888,0,1,-3,-2,-1,-2,-1,-1
1514893837266897,0,-1,0,-1,-1,0,-1,-1
1514893837266897,0,-4,-2,-1,-1,0,1,2
1514893837273403,-2,0,1,-2,-2,-2,-2,-1
1514893837273403,0,0,-1,-2,-1,-3,-2,-2
1514893837289923,-1,-1,-2,-1,-2,-1,-1,-1
1514893837289923,0,-2,-3,0,0,1,0,0
1514893837291430,-1,0,-3,0,-1,0,-1,-1
1514893837291430,-2,1,-3,-2,0,1,0,-1
1514893837319936,-2,0,0,-2,0,-3,0,0
1514893837319936,-2,-2,-2,0,-2,-2,-1,-2
1514893837321436,-1,2,0,1,-1,-2,1,-1
1514893837321436,1,0,0,-1,-2,0,-3,-1
1514893837326439,-3,-2,-1,2,0,-1,0,-1
1514893837326439,0,-1,-1,-1,-4,-1,-2,-2
1514893837333456,0,0,-2,-2,-1,-2,-2,0
1514893837333456,-3,-5,2,2,1,0,0,-1
1514893837349955,-1,3,-5,-3,-1,-2,-1,-2
1514893837349955,-2,-1,-1,-2,0,-2,-1,-1
1514893837351457,-2,0,-1,-1,-1,-1,0,-2
1514893837351457,-1,1,-2,-1,-2,-1,-1,0
1514893837372482,1,0,-2,-1,-1,-1,-2,-2
1514893837372482,-1,-4,-1,0,-1,-1,-1,-3
1514893837373984,0,1,-3,-2,-2,0,-1,-2
1514893837373984,0,2,-1,-1,1,-1,1,-2
1514893837386481,1,-3,0,0,0,-2,-2,2
1514893837386481,-4,-3,1,-2,-2,0,-1,-2
1514893837393496,0,-1,0,-2,-2,0,1,0
1514893837393496,1,1,-3,-3,-2,-3,-2,-2
1514893837409507,0,-3,1,-1,-1,1,0,-1
1514893837409507,1,-2,-1,-1,0,-1,-2,-1
1514893837411509,0,-2,-2,-1,-2,0,-3,0
1514893837411509,-1,-1,-4,-1,-1,-3,-1,0
1514893837432524,-2,-4,0,-3,-1,-1,0,-1
1514893837432524,-5,-3,-2,-1,-1,0,-1,-1
1514893837434015,-2,-1,-2,0,1,-1,1,-2
1514893837434015,-1,0,0,0,0,0,-1,-1
1514893837446033,-1,-1,0,-3,-1,1,-2,0
1514893837446033,-2,-4,0,-1,-1,-2,0,0
1514893837455047,0,-1,-2,-2,0,-2,-2,-1
1514893837455047,-1,-5,3,1,0,-1,0,-1
1514893837470040,-1,-1,1,0,-2,-2,-1,-2
1514893837470040,0,0,-1,0,-2,-3,-1,-2
1514893837472041,0,3,-3,-2,0,-2,-2,-2
1514893837472041,1,0,-2,-2,-2,-2,-2,-2
1514893837492566,-1,-3,-1,1,-2,-1,0,0
1514893837492566,-1,-2,-1,0,0,0,1,-1
1514893837494068,-3,-1,1,0,0,1,-1,-2
1514893837494068,0,3,-3,-2,-4,-1,-3,0
1514893837506077,-2,-3,0,0,0,-1,-2,-2
1514893837506077,-1,-1,-2,-2,-1,-1,-1,-1
1514893837516583,-2,-3,-1,-2,-1,-3,-1,-1
1514893837516583,0,-1,-1,-3,-1,-3,0,-2
1514893837529582,-1,-2,1,-2,0,0,-1,0
1514893837529582,-1,-4,-1,-3,-1,-1,-2,0
1514893837531584,0,0,0,-2,-1,-1,-1,1
1514893837531584,-1,1,0,-1,-2,0,-1,-2
1514893837552604,-3,-1,-3,-2,-2,-3,-2,-2
1514893837552604,0,-2,0,-1,-1,-1,-2,-1
1514893837554099,-1,0,-2,-1,-1,-1,-1,0
1514893837554099,-3,-1,-3,-1,0,-1,-2,-3
1514893837566108,1,2,-3,0,-2,-2,-1,-1
1514893837566108,-1,-2,-1,-1,-2,0,1,0
1514893837575127,-2,-4,1,0,-1,0,0,-1
1514893837575127,0,2,3,2,0,0,-1,-1
1514893837589635,0,1,-1,-2,-1,0,-2,-1
1514893837589635,-1,-1,-2,-1,-1,-1,-1,0
1514893837591636,-1,-1,0,-1,-2,-1,-3,0
1514893837591636,-1,0,-3,-3,-1,-2,-1,-1
1514893837612151,-2,-3,0,1,-1,-2,0,0
1514893837612151,2,0,-1,-1,0,-1,-3,0
1514893837613642,-1,0,-1,1,-1,-2,-1,-2
1514893837613642,-2,-2,-3,-1,0,0,0,-1
1514893837627151,-1,-4,-2,-2,0,-1,1,-1
1514893837627151,-1,-3,-1,0,-2,1,-1,-1
1514893837635157,0,-1,-1,-3,-1,-1,-1,1
1514893837635157,-1,1,0,-3,-2,-1,1,1
1514893837649681,-1,-5,-1,-1,0,2,-2,-1
1514893837649681,-2,-1,-2,-2,0,-3,1,0
1514893837651678,1,-2,1,-1,0,0,-1,0
1514893837651678,-2,0,-1,-1,-2,0,0,-1
1514893837672183,-1,-1,1,-2,-1,0,-1,-1
1514893837672183,-2,0,-1,0,1,0,2,1
1514893837678688,1,5,-5,-1,-2,-1,-1,-2
1514893837678688,3,-2,4,0,-1,-2,-1,2
1514893837686229,-3,-2,0,1,-1,-2,-1,-3
1514893837686229,-1,-2,0,1,-1,-1,-3,-1
1514893837695730,-2,-1,-1,-2,-2,-1,1,-1
1514893837695730,-3,0,-2,-1,-2,-2,-1,1
1514893837709751,-1,-2,0,0,-1,0,-1,-1
1514893837709751,-2,-2,0,-2,0,-2,-2,0
1514893837719250,-3,-1,0,-2,0,-1,0,0
1514893837719250,-2,-2,-2,-2,0,-1,0,-2
1514893837731757,-3,1,-1,-1,-2,-2,-2,-3
1514893837731757,-1,-4,-2,0,-1,0,-1,-1
1514893837739763,-1,-2,-2,-2,-3,-2,0,-3
1514893837739763,-1,-1,-3,-2,-1,-1,-1,-3
1514893837745779,1,-1,0,0,-1,-1,-1,1
1514893837745779,-2,-2,0,0,0,-1,-1,-1
1514893837754773,-1,0,0,0,0,-2,-2,0
1514893837754773,-1,0,-3,-1,-2,-3,-2,-2
1514893837769790,1,-3,-2,-1,-1,-1,0,-1
1514893837769790,0,0,0,-1,-1,-1,-2,-3
1514893837773296,-3,0,-1,-1,-1,-1,-1,-3
1514893837773296,-3,0,-4,-1,0,-1,0,-2
1514893837792300,0,-2,-1,-1,-1,-1,-2,2
1514893837792300,0,-1,2,0,0,0,-1,-1
1514893837793801,0,0,-1,-2,-2,0,0,0
1514893837793801,-1,1,-2,-1,-2,-1,-2,-1
1514893837805819,-3,-2,-3,-1,-3,0,-1,-2
1514893837805819,-2,0,-4,-1,-2,-2,-1,-2
1514893837822322,-2,0,-1,-1,-1,-2,-1,-2
1514893837822322,1,-2,1,-2,-1,-1,-1,-1
1514893837829826,1,-7,-2,-1,-1,0,-1,-1
1514893837829826,0,-2,-1,-1,1,-1,0,-1
1514893837831327,1,-1,1,1,-1,-1,-2,1
1514893837831327,-1,-1,0,-3,-1,0,-1,-1
1514893837852345,0,-2,-2,-1,-1,-2,-1,0
1514893837852345,-2,-2,1,0,0,-3,-1,0
1514893837853844,0,-1,-5,-2,-2,-4,-1,-2
1514893837853844,0,0,-4,0,0,-2,-2,0
1514893837882391,-1,0,2,0,-1,-2,-1,-3
1514893837882391,-1,-2,-2,-2,-2,1,-2,-2
1514893837884898,0,-2,-2,0,1,-1,0,0
1514893837884898,-3,-2,0,-1,0,-1,-1,-2
1514893837889908,-3,0,0,0,-2,-2,-1,0
1514893837889908,-1,-2,-1,0,-1,1,-1,1
1514893837891409,1,4,0,1,-3,-1,-1,0
1514893837891409,1,4,-3,-3,-2,-1,-1,0
1514893837912417,-3,-1,0,-1,0,-1,0,0
1514893837912417,0,0,-3,-3,-2,-1,-2,-2
1514893837913915,-1,-3,1,0,-1,1,0,-1
1514893837913915,-2,1,-1,-1,-2,0,0,-3
1514893837934440,-1,-2,-2,-3,0,-1,-1,-2
1514893837934440,-4,-2,-4,-5,0,0,-3,-4
1514893837942445,-1,-1,-3,-2,-1,-2,-2,-2
1514893837942445,0,-2,-1,-2,0,-3,-1,-1
1514893837948449,0,-1,-1,-1,-1,-2,-2,0
1514893837948449,-3,-4,1,0,-2,-1,1,0
1514893837957455,-2,-2,-1,0,0,-1,-2,-2
1514893837957455,-1,-2,-1,1,-1,-1,-1,0
1514893837972458,0,-1,-1,-1,-1,-2,0,-1
1514893837972458,-2,-2,2,-1,-1,-1,-1,-1
1514893837973959,-1,-1,0,-1,-2,-1,-1,1
1514893837973959,1,-1,-1,0,2,0,0,0
1514893837995974,-2,-4,-3,-1,-1,-1,-1,-2
1514893837995974,0,0,-2,0,0,-1,-1,-1
1514893837997487,0,-2,-3,-2,-1,-3,0,-2
1514893837997487,-2,-3,-1,-1,-3,-2,-2,-3
1514893838008997,-1,-1,0,-1,-2,-2,-2,-2
1514893838008997,-1,-2,-1,-2,-2,-1,0,-2
1514893838016488,-1,3,-1,-1,0,0,-1,0
1514893838016488,-1,-7,2,-2,-2,-1,0,1
1514893838032513,-2,-3,0,-1,-1,1,0,-1
1514893838032513,-1,-2,-1,-2,-1,-1,0,0
1514893838034012,0,1,-2,-1,0,-1,-2,-1
1514893838034012,-1,0,-3,-1,-1,-3,-2,-1
1514893838055047,1,2,-3,-2,-1,0,-1,0
1514893838055047,1,-2,2,-1,-1,-2,1,0
1514893838056529,-1,0,-2,-2,-1,-2,-1,-1
1514893838056529,1,0,-1,-3,-1,0,-3,-1
1514893838069027,0,-2,-1,-1,-1,0,0,-2
1514893838069027,-1,-1,-1,0,-2,-2,-1,-1
1514893838076031,-2,-2,0,1,-1,-2,-1,-2
1514893838076031,1,-1,-2,-3,-3,-2,-1,-2
1514893838099555,-1,-3,0,-1,0,-2,-1,-1
1514893838099555,-3,-1,-3,-1,-1,0,-1,-1
1514893838101559,0,0,0,-1,0,-3,0,0
1514893838101559,-2,-2,-3,-2,-2,0,0,-2
1514893838114566,-1,0,-1,0,0,-1,-1,0
1514893838114566,-1,-3,-1,1,-1,-3,-3,-2
1514893838116560,0,0,-1,-2,-2,-1,-2,-1
1514893838116560,0,2,-1,-2,0,-1,1,0
1514893838129068,-2,-2,-1,-1,-2,-2,-2,0
1514893838129068,0,-1,-1,-2,0,1,0,1
1514893838136075,-3,-2,2,0,0,0,0,-1
1514893838136075,-2,-1,0,0,-3,-2,-1,0
1514893838152584,0,-2,-1,-1,-1,-1,0,-3
1514893838152584,-2,-1,-2,0,0,1,-2,-1
1514893838154097,-1,-2,-4,-3,-1,0,0,-1
1514893838154097,-2,3,-6,-3,-1,-2,-2,-2
1514893838175600,-2,-3,0,-1,-1,-2,-1,-1
1514893838175600,-1,0,-1,0,-1,-2,0,-1
1514893838179103,-2,0,-1,-1,-1,-1,-2,-2
1514893838179103,-1,0,-2,-2,0,0,-1,-1
1514893838189109,-3,-3,0,0,-1,0,-3,-2
1514893838189109,1,-1,0,-1,-1,-2,-1,-2
1514893838196151,-1,1,-1,-2,-3,-1,-1,-2
1514893838196151,0,-2,0,0,-2,-1,-2,1
1514893838212166,-1,-3,-1,-1,-1,0,-2,0
1514893838212166,-2,1,1,0,0,-1,-1,-1
1514893838220673,-2,-1,1,-2,-1,-1,-2,-1
1514893838220673,-1,0,0,-1,-1,-1,-1,-1
1514893838235186,0,-3,-3,-2,-1,-2,-1,-1
1514893838235186,-1,1,-2,-1,-1,-1,-2,0
1514893838236682,-1,1,-2,-2,-1,-1,-1,0
1514893838236682,-1,-4,-1,0,-1,-1,2,-2
1514893838248691,-2,0,-3,0,0,-1,-2,-3
1514893838248691,-3,-3,-1,-2,1,-3,-2,0
1514893838257697,-2,0,-2,-2,0,-3,-2,-2
1514893838257697,-2,1,0,-1,-2,-2,-1,0
1514893838272207,-1,-1,0,-1,-1,-2,0,-2
1514893838272207,-1,-1,-4,1,-1,-1,0,-1
1514893838273708,-1,0,0,-2,0,-1,0,-1
1514893838273708,-1,-2,-1,0,-1,-1,0,-2
1514893838294723,-1,1,-4,-3,0,0,-1,0
1514893838294723,-5,-4,1,-1,-1,0,-1,-1
1514893838296224,1,0,-1,-1,-2,-2,-2,-1
1514893838296224,0,-2,-2,-1,-2,-2,-2,-2
1514893838309234,-1,-2,-2,1,-3,-1,-1,-1
1514893838309234,-1,1,-1,-2,-1,0,-1,0
1514893838316238,-3,1,-1,0,0,-1,-3,0
1514893838316238,-2,-1,0,0,-1,0,-2,0
1514893838332250,-1,-4,1,-1,-1,0,0,0
1514893838332250,-1,-2,-2,-1,-2,-2,-3,-1
1514893838333750,0,0,-2,-1,-1,-1,2,-2
1514893838333750,-1,-2,-1,-2,-1,-3,-2,0
1514893838362812,-1,1,-3,-2,-2,-3,-2,-1
1514893838362812,1,-1,0,-1,1,0,1,1
1514893838364814,0,-1,-3,-2,-4,-1,-1,-2
1514893838364814,-1,-2,-1,-1,0,-1,0,-1
1514893838377322,-2,-3,1,-1,0,-1,0,-1
1514893838377322,-3,1,0,-1,-2,-1,0,-2
1514893838378814,-1,-3,-1,1,-2,0,-1,0
1514893838378814,0,-3,-3,0,-1,-1,0,-1
1514893838392336,-1,-3,-2,-1,-1,-1,-1,-1
1514893838392336,-1,0,0,0,0,0,-1,-1
1514893838393825,0,0,-1,-1,0,-1,0,-1
1514893838393825,0,-2,-2,0,-1,-1,-1,-2
1514893838414841,0,-1,1,-3,-2,-2,-2,1
1514893838414841,0,0,-2,0,1,-2,-2,-1
1514893838416340,-1,0,-1,-2,-1,0,-1,-1
1514893838416340,-1,-1,0,-1,-1,-1,-1,-1
1514893838428349,-1,0,-5,-2,-1,-2,-2,-2
1514893838428349,-1,1,-4,-1,-3,-1,0,-1
1514893838437356,0,2,0,-1,-2,-2,-1,-1
1514893838437356,0,-2,-2,-1,-1,-1,0,-1
1514893838452367,1,-2,-1,1,1,1,0,-1
1514893838452367,0,-2,-2,-2,-1,-3,-1,0
1514893838453868,1,1,-1,0,1,0,-2,-1
1514893838453868,-1,-1,0,-2,-1,-2,-3,-1
1514893838482888,0,-2,1,2,-1,-2,0,-1
1514893838482888,-1,0,-1,-2,-2,-1,-2,0
1514893838486390,-1,-2,1,0,-1,-3,-1,2
1514893838486390,-1,-2,0,0,-1,-1,-1,0
1514893838488392,-3,-4,1,0,-1,0,0,0
1514893838488392,1,-2,0,-1,1,0,0,0
1514893838497410,-2,-1,-3,-2,-2,-2,0,-2
1514893838497410,-1,-2,-1,-1,-1,-1,0,-2
1514893838512423,-1,-2,0,0,-1,0,0,-2
1514893838512423,-2,-3,-3,0,-1,-2,1,-1
1514893838515911,-1,0,-1,-2,0,-2,1,0
1514893838515911,-1,0,-2,-1,0,-1,-2,-1
1514893838534936,-2,-2,1,-1,-1,-2,-2,0
1514893838534936,-1,-1,1,-2,-1,0,-1,-1
1514893838536425,0,-2,-2,-2,-2,1,-1,-1
1514893838536425,-2,-4,1,-1,0,-1,0,-1
