timestamp,emg1,emg2,emg3,emg4,emg5,emg6,emg7,emg8
1509433288598456,4,-7,-4,0,-1,-3,-3,-2
1509433288598456,-5,7,4,-1,-2,0,-1,-2
1509433288613466,-2,1,-1,0,-3,-3,-2,-2
1509433288613466,0,3,0,-2,2,0,0,1
1509433288614468,-1,-1,-3,0,0,-1,2,-1
1509433288614468,-3,-5,-1,-2,-2,-2,-1,-1
1509433288636485,-2,-1,1,-1,0,1,-1,-3
1509433288636485,0,2,1,1,2,-2,0,-1
1509433288637484,-2,-18,-8,-1,-1,0,0,0
1509433288637484,-3,3,2,-1,0,-1,-2,0
1509433288659499,-2,-1,-2,-1,-2,-1,0,0
1509433288659499,0,1,-3,0,0,1,0,-1
1509433288660500,-1,-3,-2,-2,-3,-2,-1,0
1509433288660500,-1,3,1,-3,-4,-2,0,-2
1509433288673511,-2,7,4,-1,0,0,0,1
1509433288673511,1,-6,-2,-1,-1,-1,0,-3
1509433288674510,-12,9,4,0,1,0,0,-1
1509433288674510,-1,0,-1,-1,-2,-2,-1,-2
1509433288696535,-1,3,4,-1,-1,-3,0,1
1509433288696535,-1,1,-2,-1,2,0,0,0
1509433288697526,2,2,-1,0,1,-2,-2,0
1509433288697526,-1,-2,1,-1,-2,-1,-2,-2
1509433288719542,-9,-7,-3,0,1,1,-2,-4
1509433288719542,-2,-19,-7,1,2,-1,-1,0
1509433288720543,1,3,1,-2,-1,-1,0,0
1509433288720543,-2,-2,-1,-2,-2,-1,-1,-1
1509433288733561,0,-9,-5,-2,-4,-3,0,-1
1509433288733561,0,-1,-3,-2,-1,-1,-2,0
1509433288734553,-1,3,-1,-1,-1,0,-2,0
1509433288734553,-3,-1,-1,-3,-2,-1,-1,0
1509433288756568,1,1,0,-2,0,0,0,-1
1509433288756568,-2,2,-3,-2,-2,-3,-1,-1
1509433288757576,0,-2,-2,0,-1,1,1,-1
1509433288757576,-1,1,2,-1,0,-1,-3,-2
1509433288779598,-2,0,3,-2,-1,-1,-1,-2
1509433288779598,-1,4,-1,-1,1,0,0,-2
1509433288779598,8,-5,-3,-1,-3,-1,-1,1
1509433288779598,-4,-2,-1,0,-2,-1,-4,0
1509433288793607,-4,-8,-6,-3,-4,-2,-2,0
1509433288793607,3,-2,-2,-1,-1,-1,0,0
1509433288795595,-2,-2,-1,0,-1,-1,-1,0
1509433288795595,-2,3,2,0,-2,-2,0,-2
1509433288816622,-1,0,-1,-1,-2,-1,-2,0
1509433288816622,-2,6,2,2,-1,0,-1,-3
1509433288817615,-2,0,-3,-2,-2,-1,2,-2
1509433288817615,-1,-6,-3,-2,-2,-2,-5,-3
1509433288839646,1,7,5,0,-1,-1,-2,-2
1509433288839646,-3,1,-1,-1,-1,-1,-1,-1
1509433288840631,1,2,-2,-2,0,-1,0,-1
1509433288840631,-1,2,-2,-1,-2,-2,0,-1
1509433288853638,-1,-4,-1,1,-4,-1,-1,-1
1509433288853638,1,2,-2,-1,-2,-2,-2,0
1509433288854638,-3,4,3,1,0,-1,0,1
1509433288854638,8,-16,-13,-3,-2,-4,-2,-3
1509433288875664,-3,1,-2,-2,1,-2,-3,-2
1509433288875664,0,0,-1,0,0,-1,1,-1
1509433288883671,1,-4,-3,-2,-1,-1,-2,-1
1509433288883671,-4,-8,1,1,1,-2,-2,0
1509433288899681,2,0,-1,0,-2,-2,-2,0
1509433288899681,-5,5,0,3,2,0,1,0
1509433288899681,0,0,-5,-1,-2,-2,-1,0
1509433288899681,-3,23,11,0,-1,0,2,1
1509433288913692,-4,-3,-3,-2,-2,-2,-1,-3
1509433288913692,-2,-4,0,1,1,-1,-2,-1
1509433288914679,-1,7,1,-4,-2,-1,-1,-3
1509433288914679,-1,-1,0,-1,-1,0,-2,-1
1509433288936695,-1,-1,-2,0,-2,-1,-1,-1
1509433288936695,1,-1,0,-2,-1,-1,1,-1
1509433288937696,-4,-5,-3,-1,-1,0,-1,1
1509433288937696,2,-5,-4,-2,-4,-1,-1,-1
1509433288958723,2,-4,-3,-4,0,-2,-1,-2
1509433288958723,-4,-8,-4,-1,-2,-3,-1,-1
1509433288959712,-2,-1,-4,1,-1,-1,-1,0
1509433288959712,-2,0,-1,-1,-3,-2,-1,0
1509433288973734,-3,1,4,0,1,1,-2,-1
1509433288973734,-3,-16,-5,-3,-1,0,-3,-1
1509433288973734,-1,-2,-1,-1,-1,0,-1,-2
1509433288973734,-4,-6,-2,-2,-1,0,-3,-2
1509433288996738,-1,-1,-2,-1,-2,-1,0,0
1509433288996738,-3,1,1,-5,-2,-2,1,1
1509433288997738,-4,0,0,2,2,-1,-1,-3
1509433288997738,1,-2,-3,0,-1,-1,-1,-2
1509433289019754,-1,-1,-1,-2,-1,-1,-3,-3
1509433289019754,2,3,-1,0,0,-2,0,-2
1509433289019754,0,-2,-1,-3,-2,-1,-1,0
1509433289019754,-3,1,2,-1,-2,-2,-1,-1
1509433289033783,0,-1,1,-1,-1,-1,-1,-1
1509433289033783,0,3,-2,-1,-2,2,-2,1
1509433289034766,6,-6,-6,-2,-2,-1,0,-1
1509433289034766,-3,-5,-1,-1,0,1,-2,-2
1509433289056781,-2,0,2,-1,-2,0,-1,-1
1509433289056781,0,4,-1,-2,-2,-1,1,-2
1509433289057781,1,-12,-8,-1,-1,-1,-2,-2
1509433289057781,-1,9,3,-1,-2,-2,0,0
1509433289079817,-1,1,2,-1,-2,-4,-2,1
1509433289079817,2,4,-1,1,1,-1,1,-1
1509433289079817,-2,0,-1,-1,-2,1,-1,-1
1509433289079817,-2,-1,0,-2,-3,-1,-3,-2
1509433289092826,0,-2,0,-1,1,0,-2,-2
1509433289092826,-1,-4,-1,-2,-1,-2,1,-1
1509433289101813,-2,3,0,-1,1,-1,-1,-2
1509433289101813,-1,-1,0,-1,-3,0,-3,-1
1509433289116823,-2,0,-1,-1,-3,-2,1,-1
1509433289116823,2,-3,-3,-2,-1,0,0,0
1509433289118825,-2,2,0,1,0,-3,1,-2
1509433289118825,6,-12,-6,0,-2,-3,-1,-2
1509433289138840,-4,15,4,0,0,-1,1,-1
1509433289138840,0,2,-2,-1,-1,-2,-1,0
1509433289140855,2,-4,-3,-3,-3,-2,-2,0
1509433289140855,-5,3,-2,-2,0,-1,-2,-2
1509433289152864,1,-7,-3,0,-1,-2,-1,-1
1509433289152864,-1,2,-1,-1,-1,-1,-2,-1
1509433289161866,2,-1,0,0,0,0,-2,1
1509433289161866,-7,-2,1,0,-2,-1,-1,-2
1509433289176870,-2,-2,0,2,0,-2,-3,-1
1509433289176870,-2,1,0,0,0,1,0,-1
1509433289178874,0,1,1,-2,-1,-2,-1,-1
1509433289178874,-3,1,0,-2,-1,0,-2,-2
1509433289198883,3,-9,-4,-2,-2,-1,0,-2
1509433289198883,4,24,5,0,0,-2,0,2
1509433289200883,-2,-1,-6,-1,-1,1,-2,-1
1509433289200883,4,-1,0,-1,-1,-3,-2,-3
1509433289212892,-2,-4,-2,-3,-1,0,-1,-1
1509433289212892,0,-13,-4,-3,-2,-3,-2,-1
1509433289221898,-4,0,0,-2,0,-2,-1,-1
1509433289221898,-3,6,3,-2,0,0,-1,1
1509433289236908,-1,0,-2,-3,-1,1,0,1
1509433289236908,-1,-5,-2,0,-2,0,0,0
1509433289238912,-2,2,0,-1,-1,0,0,0
1509433289238912,-2,-6,-1,-1,-1,-1,-1,-1
1509433289258990,0,1,2,-1,-3,-3,-1,-2
1509433289258990,-3,-2,-3,0,0,0,1,-1
1509433289260992,-2,-1,0,-1,-3,-2,-2,0
1509433289260992,-4,-1,3,-2,-1,-1,-1,-1
1509433289272997,-2,-3,-1,0,-2,0,-2,-1
1509433289272997,1,7,1,0,1,1,0,-1
1509433289282017,-4,-22,-6,-1,0,-1,0,1
1509433289282017,0,0,-5,-3,-2,-3,-2,-2
1509433289297018,-2,0,-2,-2,-2,-1,-3,-2
1509433289297018,4,-12,-6,0,-2,2,-2,-3
1509433289298015,-9,7,1,-1,-2,1,-1,-3
1509433289298015,-2,0,1,-1,-2,-1,-2,-2
1509433289319032,-2,-2,0,0,1,0,-3,-1
1509433289319032,2,-3,-4,-2,-2,-2,0,1
1509433289321035,5,4,-3,-2,-1,-1,0,1
1509433289321035,-2,-3,1,0,0,-1,-3,-1
1509433289333107,-2,-4,-2,-3,-2,-3,-1,-3
1509433289333107,-3,1,0,-1,0,0,0,-1
1509433289342066,0,3,0,0,1,0,-2,0
1509433289342066,-1,-10,-4,-2,-4,-4,-1,0
1509433289357059,-3,-3,-1,-2,-2,-2,-3,-3
1509433289357059,-4,-3,-2,-1,-1,-1,-1,-3
1509433289358058,1,2,-4,-3,0,-1,-1,-1
1509433289358058,-2,3,2,-1,0,-2,-2,-2
1509433289380109,-4,-1,0,0,-1,0,-1,-1
1509433289380109,-3,-5,-4,-2,-1,-3,1,0
1509433289381075,-2,-2,0,0,1,-2,-1,-1
1509433289381075,-1,1,0,0,-1,-3,-1,-1
1509433289393106,4,3,-2,-2,-2,-1,-1,0
1509433289393106,-2,0,-2,0,1,0,-1,1
1509433289402089,0,-3,-2,1,-1,-1,1,-1
1509433289402089,-4,-4,-2,-2,-3,1,-2,-1
1509433289417109,-3,1,6,0,0,-1,-2,-3
1509433289417109,-2,-2,-1,1,-1,0,-2,-1
1509433289418102,-1,2,-2,-1,-2,-1,-1,0
1509433289418102,2,1,-1,-2,-3,-1,-3,-2
1509433289439144,2,-5,-5,0,1,-3,0,-1
1509433289439144,-2,-1,-1,0,0,-1,-1,0
1509433289441123,1,24,9,1,0,0,0,1
1509433289441123,-2,-1,-1,2,-3,0,0,-2
1509433289453132,2,-12,-8,-2,-2,-1,0,0
1509433289453132,-2,6,2,-2,1,-2,-1,-1
1509433289462140,0,-6,-3,-1,-1,-1,0,0
1509433289462140,-1,-1,-1,-2,0,-1,0,0
1509433289477160,-1,3,0,-1,0,-1,-1,0
1509433289477160,7,-8,-5,-2,-1,-2,-1,-1
1509433289478143,-3,0,4,-1,-1,-2,1,-1
1509433289478143,3,5,0,-1,-3,-2,-3,-3
1509433289499161,-2,1,-1,0,-1,-3,-1,0
1509433289499161,-1,-1,-2,-2,0,-2,-1,1
1509433289501162,-3,-5,-4,2,-1,-1,-2,0
1509433289501162,-1,0,0,-1,-1,-1,-2,0
1509433289513171,-3,-9,0,0,-1,1,-3,-2
1509433289513171,0,8,0,-4,-3,0,-1,0
1509433289522176,0,-5,-5,-3,-2,-1,0,1
1509433289522176,-1,-3,3,0,0,-2,-1,-2
1509433289537184,-6,1,0,-3,2,-1,-2,-4
1509433289537184,-2,-8,-2,-1,1,1,0,-3
1509433289538185,-1,-3,-5,-2,-3,0,-2,-2
1509433289538185,-2,-1,-1,0,-1,-2,-2,0
1509433289559221,1,3,1,-1,-1,-2,-1,1
1509433289559221,-4,6,4,1,2,-1,0,2
1509433289561221,-4,3,0,-1,-2,-1,-1,-3
1509433289561221,-2,-1,-2,-3,-3,-1,-1,-1
1509433289582263,1,-1,1,-2,-1,-1,0,-1
1509433289582263,-11,-1,0,-1,-1,-1,2,-1
1509433289583218,1,-5,-4,-3,0,0,-1,-1
1509433289583218,-3,-2,1,0,0,-1,0,0
1509433289596228,-2,-6,-1,-1,-2,-2,0,-1
1509433289596228,4,12,-1,-3,-1,0,-1,-1
1509433289598229,-3,-6,1,1,0,-2,-1,-1
1509433289598229,-1,-2,-1,0,-1,0,-2,-2
1509433289619244,-2,0,-2,-1,0,0,-1,-1
1509433289619244,0,-8,-5,0,-1,-1,-1,-1
1509433289621244,1,-4,-2,0,0,0,-2,0
1509433289621244,-1,-2,-2,-3,-2,-1,0,-2
1509433289641348,-5,4,3,0,-2,-1,-1,0
1509433289641348,1,-4,-3,0,-2,-2,-1,-3
1509433289643324,0,-1,-1,-2,0,-1,-3,-3
1509433289643324,-2,-4,0,-1,-1,0,-2,0
1509433289656335,3,5,0,-2,0,-2,0,-1
1509433289656335,-2,-6,-3,-1,0,-1,-2,1
1509433289658335,-1,-2,-3,-1,-2,-2,1,-1
1509433289658335,-2,-1,1,-2,-3,-2,-1,-2
1509433289679366,-10,23,12,3,1,1,0,0
1509433289679366,1,-2,-2,-2,-2,-1,2,1
1509433289681363,-2,4,-2,-2,1,-2,-3,0
1509433289681363,-2,2,1,-1,0,-2,-2,-1
1509433289701378,0,-6,-3,-3,-4,-1,0,-1
1509433289701378,-2,-8,-3,0,1,-1,-1,-1
1509433289703366,0,1,1,-1,-2,-1,-2,-1
1509433289703366,1,-2,-2,-2,-3,-2,-1,-3
1509433289724438,1,-4,-1,-2,-2,-1,-2,-2
1509433289724438,3,4,0,-3,-2,1,-2,-1
1509433289725383,-2,-5,-2,-3,-2,-1,-1,-1
1509433289725383,-3,3,1,-1,0,0,-2,-2
1509433289739462,3,-6,-3,0,-2,-1,-3,-1
1509433289739462,0,-1,-1,-2,-2,0,-1,-1
1509433289740462,0,-3,-3,1,-2,-2,-1,0
1509433289740462,-2,0,-1,0,-2,0,-1,-2
1509433289761465,-1,-2,0,-2,1,-1,0,-2
1509433289761465,-1,-2,-4,0,0,-2,-2,-1
1509433289763466,-1,0,0,-2,0,-2,0,0
1509433289763466,-1,-3,-2,-2,-2,-2,-2,-1
1509433289784478,2,5,2,1,-1,-1,-1,0
1509433289784478,-12,-1,2,1,0,1,0,-2
1509433289785479,0,7,2,0,0,-1,0,1
1509433289785479,-1,4,1,-1,-1,-2,-2,0
1509433289799497,5,1,-3,0,0,-1,-1,-1
1509433289799497,1,-5,-4,0,0,-2,1,-1
1509433289800488,1,7,-3,-2,-4,-1,-3,-1
1509433289800488,-3,-7,0,0,-1,0,-1,0
1509433289821512,-2,-5,-2,-2,-2,-1,0,0
1509433289821512,1,-3,-3,-2,2,0,0,1
1509433289823503,-1,-6,-2,-1,-1,1,-1,-2
1509433289823503,0,-3,-1,-1,-1,-2,-2,-2
1509433289836517,-2,-5,-3,-1,-2,-1,-3,-2
1509433289836517,1,1,-2,-1,-1,-3,-1,0
1509433289842531,-1,-2,-2,-2,0,-2,0,0
1509433289842531,0,0,-1,-1,-2,-1,-1,0
1509433289859542,-2,1,-1,-2,-1,-1,-1,0
1509433289859542,3,19,6,-1,0,1,0,-1
1509433289860530,-2,-2,-2,-1,-1,-1,-1,0
1509433289860530,-6,-1,2,0,0,0,0,-2
1509433289881583,1,-1,0,1,-1,-1,0,0
1509433289881583,0,-7,-4,-1,-1,0,-2,-1
1509433289898569,0,0,2,-1,-1,0,1,-2
1509433289898569,-11,7,7,-1,-1,0,-1,0
1509433289898569,-4,-7,-5,-2,1,-1,-1,-2
1509433289898569,-1,-3,-3,-1,-2,-2,-1,-1
1509433289902574,-3,-4,-3,0,-2,-1,-1,-1
1509433289902574,3,-5,-5,-5,-3,-2,-2,-1
1509433289919589,0,-2,-2,-2,-2,-1,-1,1
1509433289919589,-2,-3,-3,-2,-1,-1,0,0
1509433289920572,-2,-1,-2,-2,0,-2,0,-1
1509433289920572,3,-1,-2,0,-3,-1,-2,-2
1509433289941608,-2,-2,-1,-2,-2,0,-2,-2
1509433289941608,3,-1,-4,-1,-2,-1,-1,-2
1509433289943611,1,-7,-2,-4,-2,0,0,0
1509433289943611,-1,17,6,3,1,-1,-2,-3
1509433289955606,-1,-1,-2,-1,1,-1,0,-2
1509433289955606,-3,-14,-5,0,0,-2,-1,-1
1509433289962625,0,2,2,0,1,-1,-2,0
1509433289962625,-1,-6,-2,-3,-1,-2,-1,1
1509433289979623,-2,2,-1,-1,-2,-1,1,0
1509433289979623,0,1,-2,2,0,-1,0,-1
1509433289980614,-1,2,-3,-1,-1,-2,-2,-1
1509433289980614,0,-5,-3,-2,-3,-2,-1,-1
1509433290001641,-3,-4,1,-1,1,0,1,-3
1509433290001641,-3,-1,-1,-1,-3,-1,0,0
1509433290003636,-1,-1,-2,-1,-3,0,0,-1
1509433290003636,-1,-5,0,-2,-3,-2,-1,0
1509433290016650,0,-4,-1,0,0,-1,-1,-2
1509433290016650,-2,-1,-1,-1,0,1,-2,-1
1509433290022644,2,-3,-3,-2,-2,-2,-3,-1
1509433290022644,-2,-5,-2,-2,0,1,-1,-3
1509433290054690,2,12,3,-1,-2,0,-1,-3
1509433290054690,0,-1,-1,-2,-1,-2,0,0
1509433290055669,-1,-8,-6,-1,-2,-3,-1,-2
1509433290055669,-2,-4,-1,0,-2,-2,-1,0
1509433290062694,-1,-4,-1,1,-1,0,-1,-2
1509433290062694,-1,-5,-3,-2,-1,0,0,1
1509433290063674,-2,1,-2,-1,-1,1,-3,-3
1509433290063674,0,-3,-1,1,-2,1,0,-3
1509433290075697,-2,2,0,-4,-1,-1,0,1
1509433290075697,0,2,-2,0,-1,-1,-2,-1
1509433290090711,-1,-2,-1,-1,-4,-2,0,0
1509433290090711,3,-6,-4,0,2,-2,-2,-2
1509433290099712,-2,-12,-4,0,-1,-2,-1,0
1509433290099712,-4,1,-2,-1,0,-2,-1,-1
1509433290100701,0,-2,-2,-2,-1,-2,-2,0
1509433290100701,-2,0,0,-2,-2,0,-1,-1
1509433290121714,0,-4,-2,-2,-1,-2,-1,0
1509433290121714,1,-2,-1,0,-1,0,-1,-1
1509433290123739,-2,1,0,0,-2,0,0,-2
1509433290123739,0,14,8,0,-1,-1,-1,0
1509433290135778,-1,-3,-4,-2,-1,-1,-2,-1
1509433290135778,-4,3,2,-1,-1,0,1,0
1509433290144785,-1,8,4,1,0,-1,-1,-1
1509433290144785,-2,-5,-2,-3,-2,-1,-2,-2
1509433290159815,1,1,0,-2,0,-1,-2,-2
1509433290159815,-1,-2,-3,-1,2,0,-2,-1
1509433290160816,-4,-7,-5,0,-1,-1,-2,-1
1509433290160816,-2,0,0,-1,-3,-2,-2,-2
1509433290181835,2,-8,1,3,-2,-2,0,0
1509433290181835,-2,-1,-2,0,-1,-1,-1,-1
1509433290182809,-2,-2,-1,0,-1,0,0,0
1509433290182809,7,-4,-5,-2,-2,-1,-2,-1
1509433290195818,-1,1,-1,-1,0,0,-1,1
1509433290195818,2,0,-2,-2,0,-1,0,-1
1509433290219835,-2,6,4,-2,-2,-1,-2,1
1509433290219835,3,-4,-4,-3,-2,-2,-2,-2
1509433290220836,-4,-3,-3,-2,0,0,-1,-2
1509433290220836,2,-3,-4,-1,-2,0,-1,-1
1509433290221847,1,-1,-4,-3,-3,-2,-1,0
1509433290221847,-3,-1,-1,-1,-1,-1,1,-1
1509433290241871,-3,1,-3,0,-1,-2,-1,0
1509433290241871,-4,-6,-3,-1,0,-1,0,-1
1509433290243863,0,-2,-2,0,-1,0,-1,-1
1509433290243863,-4,-7,-2,0,1,-2,-2,0
1509433290255868,-4,3,-1,-1,0,1,1,-3
1509433290255868,0,-3,-1,0,2,0,1,-1
1509433290264874,-1,-7,-4,-4,-3,-2,-1,0
1509433290264874,-3,9,5,0,-1,-1,-2,-1
1509433290278897,0,8,4,-1,0,-1,0,-1
1509433290278897,1,0,-3,-4,-4,-1,0,-1
1509433290280875,-6,-6,-1,1,2,0,-1,-2
1509433290280875,-2,-4,0,-1,-2,-1,-1,0
1509433290301905,-2,1,4,0,0,1,0,-1
1509433290301905,2,3,-3,0,-2,1,1,0
1509433290302891,-1,0,0,-1,0,0,-1,0
1509433290302891,-1,0,1,-2,-2,-1,-2,-3
1509433290331925,1,-5,-2,-1,0,0,-1,-1
1509433290331925,-6,4,1,0,-3,0,0,-2
1509433290333913,-1,-1,-1,-1,-3,-1,-1,-2
1509433290333913,-3,-3,-1,0,2,0,-1,-2
1509433290338952,3,14,1,-1,-1,-2,-2,0
1509433290338952,-3,-3,-1,-1,0,0,-1,-1
1509433290340956,-1,0,-1,-2,-3,-2,-2,-1
1509433290340956,-4,0,2,-1,-2,-1,-1,-1
1509433290361953,-1,-2,-3,0,-1,-2,-1,-1
1509433290361953,0,1,-3,-1,0,-1,-2,1
1509433290363955,0,3,0,-2,-1,0,-1,-1
1509433290363955,3,-2,-4,1,-1,1,-1,0
1509433290374959,-2,-7,-3,-3,-1,0,1,-1
1509433290374959,0,-1,-3,-1,-1,0,-1,-1
1509433290383983,-3,-3,-3,0,-1,-2,-1,-1
1509433290383983,-1,-3,0,-2,-2,-1,-1,-1
1509433290398970,-2,-4,-3,0,0,-2,1,-1
1509433290398970,-1,-1,-2,-1,0,0,1,-1
1509433290400962,-1,-2,-3,-1,0,0,-1,-1
1509433290400962,-3,-4,0,-1,-1,-2,-2,0
1509433290421976,-3,1,-1,-1,0,-2,-1,-1
1509433290421976,-2,-12,-5,-1,-1,-2,-2,0
1509433290422978,1,2,-3,-3,-3,-2,-2,-1
1509433290422978,-2,0,-1,-1,-1,0,-1,-2
1509433290435001,2,-9,-5,-3,-2,-1,-2,-1
1509433290435001,2,12,1,-2,1,-2,0,-1
1509433290444006,-1,-3,-1,-1,-1,0,-1,-3
1509433290444006,-3,4,2,0,1,-2,-2,-2
1509433290459002,0,-9,-5,0,0,-1,-1,-1
1509433290459002,0,-1,-4,-1,-2,0,-2,1
1509433290465018,-2,1,5,0,-1,-2,-3,0
1509433290465018,-3,1,0,-3,-2,-2,0,-1
1509433290489049,-3,-2,-1,0,-1,0,0,0
1509433290489049,0,-1,2,-1,-2,-2,0,-1
1509433290491049,3,-7,-1,-1,0,-2,-2,-2
1509433290491049,-6,-5,-1,0,-1,0,-1,1
1509433290504043,-1,2,-2,-3,-1,-1,-1,0
1509433290504043,1,-3,-4,-2,-1,0,0,-1
1509433290506046,-1,1,0,-2,-1,-1,-1,0
1509433290506046,-2,-3,1,-1,-1,-1,-1,-1
1509433290519059,0,-1,1,-1,-1,0,-1,0
1509433290519059,0,2,0,-1,0,1,-1,0
1509433290521057,-3,0,-2,0,-2,-1,-1,0
1509433290521057,0,1,0,-1,-1,-1,-2,-1
1509433290542075,-4,-16,-5,-3,-1,0,0,-1
1509433290542075,2,-3,-5,-1,0,-2,-1,-3
1509433290543062,-1,0,-2,-2,-3,1,0,-2
1509433290543062,-1,-4,-2,-1,-1,-1,-1,-2
1509433290565092,1,1,2,1,2,-2,-1,0
1509433290565092,-2,-3,-1,0,-1,-1,-2,-1
1509433290566079,-2,-6,-5,1,-1,-2,-1,-2
1509433290566079,-1,0,0,-2,-2,-2,-2,-3
1509433290579106,0,5,0,2,0,0,-1,-2
1509433290579106,1,-6,-2,-1,1,-1,0,1
1509433290581106,-10,14,10,0,0,0,-1,1
1509433290581106,1,-3,-3,0,0,-2,-1,0
1509433290601103,0,2,-2,-2,-2,2,-1,0
1509433290601103,-2,-2,0,0,0,-1,2,-1
1509433290609119,1,-7,-6,-1,-5,-1,-1,-2
1509433290609119,-2,-5,-1,0,0,-2,-1,-1
1509433290632134,-2,4,-1,-1,-2,-2,0,-2
1509433290632134,0,-1,-1,-1,-3,0,-2,-1
1509433290633125,-2,-1,0,-2,-2,-1,-3,-1
1509433290633125,-1,1,-1,-1,-1,-1,-2,0
1509433290639132,0,1,0,0,-3,-1,-1,-3
1509433290639132,-3,-1,-2,-3,0,-1,0,0
1509433290641132,1,-2,-1,-2,-1,-3,-2,-2
1509433290641132,0,0,0,-1,-3,-1,-1,-1
1509433290662168,-1,-3,-3,-2,-2,-2,0,-2
1509433290662168,0,2,-3,-1,-3,-1,1,0
1509433290663147,0,6,4,1,0,1,-2,-1
1509433290663147,-1,-1,0,-2,-3,-1,-1,-1
1509433290684163,3,0,-3,-4,-2,-1,0,0
1509433290684163,-4,5,-1,3,4,1,1,0
1509433290686176,-1,-4,-3,-1,-2,-3,-3,-2
1509433290686176,5,3,0,-1,-3,-2,-2,-1
1509433290698181,-3,3,-3,-6,3,-2,0,0
1509433290698181,0,7,16,-3,-4,-3,0,-1
1509433290705187,-1,-6,-13,2,7,0,-1,0
1509433290705187,0,3,3,1,-3,-3,-2,-1
1509433290722189,0,-3,-4,2,-1,-1,-2,0
1509433290722189,0,-3,-4,-6,-3,0,-1,-1
1509433290723189,-8,5,7,-6,-4,-2,-1,-1
1509433290723189,-5,-7,-5,-4,0,-1,-1,-1
1509433290744222,0,-6,-1,3,-1,-1,-1,-1
1509433290744222,-5,-4,0,2,2,-1,-1,-3
1509433290746216,5,-4,-2,-4,-5,-2,-2,1
1509433290746216,-1,-2,-4,0,-2,0,-2,-1
1509433290774236,0,-3,0,-1,-1,-3,0,0
1509433290774236,-3,-16,-8,0,0,-1,-1,0
1509433290776237,1,1,-2,-2,-1,-2,-4,-2
1509433290776237,-3,-8,-2,-2,-2,-1,-2,-3
1509433290781251,-3,-4,0,2,2,2,1,-3
1509433290781251,2,-5,-7,-2,0,0,-1,0
1509433290783231,-1,-3,0,1,-3,-2,1,0
1509433290783231,-2,-1,1,-2,0,0,-1,-2
1509433290804271,-2,2,2,-1,0,1,-2,0
1509433290804271,-1,2,-4,0,-2,-1,0,-2
1509433290806253,-3,0,1,-1,-4,-1,-1,-3
1509433290806253,-4,7,0,-1,-3,-1,-3,-1
1509433290818257,-2,-1,-2,-1,0,-2,-1,1
1509433290818257,0,3,0,-1,-1,-1,-3,2
1509433290833290,-1,-4,0,0,-1,-1,-1,0
1509433290833290,2,-8,-2,-3,0,-2,-2,-2
1509433290841284,-4,3,2,-3,-2,-1,-1,-2
1509433290841284,0,0,-3,-1,-3,0,-1,0
1509433290843274,-6,0,4,1,1,0,0,-2
1509433290843274,-2,-1,-1,0,0,-2,0,0
1509433290864289,3,-1,-2,-2,-2,-1,-2,-1
1509433290864289,-2,9,4,1,1,1,-1,-1
1509433290865290,1,-3,-3,-4,-3,-3,-1,-2
1509433290865290,1,0,-3,-1,0,-1,0,-3
1509433290886322,-4,-16,-2,-2,-1,-3,-1,0
1509433290886322,-1,5,-1,-2,-2,-2,-1,-1
1509433290888306,0,-1,-2,-1,-3,0,2,-1
1509433290888306,-2,-1,1,-3,-2,-1,0,-1
1509433290901331,0,-5,-5,0,-1,0,0,-1
1509433290901331,3,-5,-5,-2,-1,0,-1,-1
1509433290903316,-1,0,-2,-1,-3,-1,-4,-1
1509433290903316,-1,0,3,0,0,1,-1,0
1509433290924334,2,7,-1,1,0,-1,1,-1
1509433290924334,0,-2,-3,0,0,-1,1,0
1509433290925332,-1,-1,1,-1,-2,-3,-1,0
1509433290925332,1,0,-2,0,-3,-1,-2,-1
1509433290938397,8,-1,-2,0,-1,-2,0,-1
1509433290938397,-3,1,-1,-2,-1,-1,1,0
1509433290952363,0,-3,-3,-2,-2,-1,-3,-1
1509433290952363,-3,-6,0,-1,-1,-2,-2,-1
1509433290961377,-1,4,0,-2,0,0,1,-3
1509433290961377,0,-13,-6,-3,-1,-3,-1,0
1509433290963363,-2,-5,-2,0,0,1,-1,-2
1509433290963363,-2,-4,-1,-2,-1,-1,-2,-2
1509433291000385,-1,2,1,0,0,-1,0,0
1509433291000385,-2,-5,-1,2,0,-2,-2,-1
1509433291001386,2,1,-1,-2,-3,-3,1,0
1509433291001386,0,0,0,-1,-1,-1,0,0
1509433291002387,-4,-4,-2,1,0,0,0,-1
1509433291002387,0,0,-6,-3,0,-1,-2,0
1509433291006389,1,0,-2,1,-2,-1,-2,-1
1509433291006389,-2,1,2,-2,-1,-2,-2,-1
1509433291021400,0,8,2,-2,-1,0,-1,2
1509433291021400,-8,-2,2,3,-1,0,0,-2
1509433291023402,-2,1,0,-1,-1,0,0,-1
1509433291023402,0,-1,-1,-2,-1,-2,-3,0
1509433291051421,0,-2,-3,-2,0,0,-1,0
1509433291051421,2,-2,-4,0,-1,1,0,-1
1509433291053422,-3,-2,0,-1,-1,-2,-2,-2
1509433291053422,-4,-14,-5,-1,-1,2,0,-2
1509433291057425,0,-5,-2,0,1,-1,-2,-1
1509433291057425,1,1,0,-1,0,-2,0,-1
1509433291066448,0,0,-2,-1,-1,-1,-1,0
1509433291066448,2,-9,-2,-2,-2,-3,1,-1
1509433291081455,-3,0,1,1,2,-2,1,0
1509433291081455,1,2,-1,0,-2,-2,-1,-2
1509433291083456,0,-4,-1,-1,-1,-1,-2,-2
1509433291083456,-2,4,1,0,-1,-1,-1,-1
1509433291104460,0,-6,-8,-5,-2,-2,0,-2
1509433291104460,-2,1,-5,-2,-2,-1,-2,-1
1509433291112464,-2,1,-1,0,-1,0,-1,-1
1509433291112464,-1,6,0,0,-2,-1,-2,-1
1509433291117483,-1,-15,-10,-3,-3,-3,-2,-2
1509433291117483,-2,-7,-3,0,0,-1,0,0
1509433291126485,0,0,-1,-3,-3,-1,-2,1
1509433291126485,-2,3,3,-1,-1,0,-2,0
1509433291141543,1,1,-1,1,0,0,-1,0
1509433291141543,1,-1,-1,-1,1,0,0,1
1509433291143487,-1,0,0,-1,-2,-3,0,-1
1509433291143487,0,-4,-1,-2,-1,-3,-1,-2
1509433291164502,-2,0,1,-4,-2,-1,0,-1
1509433291164502,1,2,0,-1,-2,0,0,0
1509433291166506,-1,0,0,0,-2,1,-1,0
1509433291166506,0,1,-3,-2,-2,-2,-1,-2
1509433291178513,-1,4,2,3,0,-2,0,-2
1509433291178513,-2,2,0,-1,1,-1,0,-1
1509433291186518,1,3,0,-1,0,-2,-1,-2
1509433291186518,-4,2,1,-2,-1,-1,-2,-2
1509433291201529,-1,3,-1,1,-2,0,0,0
1509433291201529,3,6,0,-2,-4,-1,-2,-1
1509433291203530,0,-9,-1,1,0,-1,0,-2
1509433291203530,-1,4,2,-1,-2,-3,-2,-4
1509433291224544,-1,5,2,-2,1,-2,0,1
1509433291224544,0,-3,-2,-2,-2,0,0,0
1509433291225545,-1,-4,-3,0,-1,-2,-1,-2
1509433291225545,0,3,1,-2,-3,0,-1,1
1509433291237573,-1,-2,-3,-2,0,-1,-2,0
1509433291237573,-1,0,0,-1,-1,-1,-1,1
1509433291246559,-3,-1,-2,-3,-1,-1,-2,-1
1509433291246559,-3,0,-1,-1,-1,0,-1,-1
1509433291268590,-4,3,1,0,0,1,0,-1
1509433291268590,1,17,6,1,0,0,1,-1
1509433291276582,-3,-2,0,1,-1,1,-1,-3
1509433291276582,1,-3,-3,-2,-1,-2,-1,0
1509433291291651,1,3,-2,-1,0,-1,0,-2
1509433291291651,-1,-5,-5,-2,0,-2,1,-1
1509433291293600,-1,0,0,-3,-3,-1,-2,-1
1509433291293600,-5,2,3,0,0,1,0,-3
1509433291297598,-3,0,0,1,0,-1,-1,-2
1509433291297598,7,-11,-7,-2,-2,-1,-2,0
1509433291306604,-7,1,2,-1,-2,-2,-1,-1
1509433291306604,1,-5,-3,-3,-2,-2,0,1
1509433291329619,0,0,-2,-3,-1,-1,1,-1
1509433291329619,-3,-2,-2,-1,0,-1,-2,-2
1509433291330620,2,4,0,0,-1,0,-1,0
1509433291330620,-1,-1,-1,-1,-2,-1,-3,-3
1509433291344646,0,-1,-2,-1,0,-1,0,0
1509433291344646,-1,5,2,0,0,-1,-1,0
1509433291345632,1,-4,-1,-4,-3,-1,-2,-2
1509433291345632,-3,1,0,-2,-1,-2,-1,-1
1509433291357654,-1,1,0,0,0,-2,-1,-2
1509433291357654,-4,-7,-3,1,2,0,0,-1
1509433291366644,-1,-2,-3,-3,-2,-3,-2,-1
1509433291366644,0,-5,-2,-1,-2,0,1,-2
1509433291389660,3,3,-2,0,-1,-1,0,1
1509433291389660,-2,-5,-4,-2,-2,-1,0,-1
1509433291390661,-1,-1,0,-4,-4,0,-1,1
1509433291390661,-5,1,1,-2,1,0,0,0
1509433291403683,-4,-8,-3,-1,2,0,-1,-1
1509433291403683,0,2,0,0,-2,-1,0,-2
1509433291405672,-2,1,0,-1,-2,-1,-1,-3
1509433291405672,7,1,-3,-2,-3,-2,-2,-2
1509433291417703,-1,-3,-2,-1,0,1,-2,0
1509433291417703,-2,-5,-12,-4,-1,-1,-2,-2
1509433291434693,-2,2,0,-2,-3,-1,-2,-1
1509433291434693,-2,-3,1,-1,-1,-2,-1,-2
1509433291441763,0,-1,-1,0,0,-1,0,1
1509433291441763,-4,-3,0,2,0,-2,-1,-1
1509433291443710,0,-6,-1,0,0,-3,-1,-1
1509433291443710,0,2,-1,-2,-1,-2,-1,-3
1509433291463733,2,16,2,0,-3,-1,1,0
1509433291463733,-2,-2,-1,-2,-1,-1,0,-1
1509433291465715,-3,-6,-1,-2,1,-1,-2,-2
1509433291465715,-2,3,3,-2,-1,0,-1,0
1509433291494735,-4,-3,-2,4,2,0,-1,0
1509433291494735,-1,-2,1,-2,-2,-1,0,-1
1509433291496752,-1,-2,0,-1,-1,0,0,-2
1509433291496752,-1,-8,-3,-2,-2,-2,-2,-3
1509433291501755,8,-9,-7,-3,0,-1,0,-2
1509433291501755,-6,10,3,0,-1,1,0,0
1509433291503741,-4,-5,-2,-2,-2,-3,-2,-1
1509433291503741,0,-2,-3,0,-1,0,-1,0
1509433291523766,1,0,-2,-3,-2,-1,-1,1
1509433291523766,3,1,-1,0,0,-1,-1,-1
1509433291525757,-1,2,1,-3,-1,1,-1,0
1509433291525757,-4,1,1,2,-1,-2,0,-1
1509433291562793,-3,-2,-3,0,-1,0,-2,0
1509433291562793,1,-7,-3,0,-2,0,-1,0
1509433291564795,-4,-17,-3,-1,-2,-1,-2,-3
1509433291564795,-3,4,2,-1,0,-3,-1,-3
1509433291565796,-5,-4,-1,0,1,-1,-1,-2
1509433291565796,1,-2,-2,-3,-1,-2,-1,-1
1509433291568799,-1,0,-1,0,-1,-2,-1,0
1509433291568799,3,0,0,-1,-2,0,-1,-1
1509433291583830,-3,-2,0,-1,0,-1,-1,-2
1509433291583830,-1,4,0,-3,-2,-2,-3,-2
1509433291585804,2,3,-2,-1,-4,-2,-3,-1
1509433291585804,-2,-4,1,-2,-2,1,-1,-1
1509433291606816,-3,4,0,-1,-2,-1,0,-2
1509433291606816,0,-5,-2,1,1,-1,-1,1
1509433291608823,0,9,6,0,-1,-1,-2,-2
1509433291608823,-2,-1,2,0,-1,-1,-2,2
1509433291620853,-2,-1,0,0,-1,0,0,-1
1509433291620853,4,-2,-4,0,-2,0,-1,0
1509433291627859,-5,0,1,0,-1,-1,0,-3
1509433291627859,-2,-5,-2,0,-1,-1,-1,-1
1509433291643880,-2,-2,-2,-1,-1,-1,-1,-2
1509433291643880,1,-7,-3,0,0,-2,0,-1
1509433291645858,0,2,-1,0,-1,0,-3,-1
1509433291645858,0,-2,-1,-2,-1,-3,-3,-2
1509433291666871,-2,2,-3,-1,0,-2,0,0
1509433291666871,-3,0,0,0,-1,-1,-1,-1
1509433291668862,-1,-2,-4,-1,-1,0,-1,0
1509433291668862,-2,0,0,-1,0,0,0,-2
1509433291680881,3,-5,-3,-2,-1,-3,1,-1
1509433291680881,-3,0,-2,-1,-1,-1,-2,0
1509433291687881,-3,-6,0,1,0,-1,-2,0
1509433291687881,3,13,1,-2,-5,-1,-2,1
1509433291718915,0,-1,-1,-1,1,2,0,-1
1509433291718915,-1,0,-2,-1,-2,0,-1,-1
1509433291720899,-2,-7,-4,-3,-2,-2,-2,-3
1509433291720899,-1,-7,-2,-1,-1,-1,-1,-2
1509433291726901,0,-3,-1,-2,-2,-1,1,-2
1509433291726901,-3,4,2,0,-1,-2,-1,-1
1509433291727914,-1,1,-1,-3,-2,-2,-2,-1
1509433291727914,-1,-5,-2,-1,0,-3,-1,-1
1509433291740909,-1,-1,-4,-2,-1,1,-1,-1
1509433291740909,1,4,-1,-1,0,-1,-1,1
1509433291747913,-1,2,0,0,-3,0,-2,-2
1509433291747913,-3,-4,-3,-2,-1,-1,-1,0
1509433291763939,-1,-5,-2,-3,0,-1,-1,-1
1509433291763939,-1,-3,-2,-2,0,1,0,-3
1509433291765928,-2,-1,1,1,0,1,-1,0
1509433291765928,0,1,2,-1,0,-1,-1,-2
1509433291786942,-3,2,-1,1,2,-1,0,0
1509433291786942,-1,-1,-2,-3,-1,-2,-1,-2
1509433291787964,0,0,0,-2,-2,-1,-1,-2
1509433291787964,0,-6,-3,0,0,1,-2,-1
1509433291800967,3,6,-4,-4,-1,0,-2,0
1509433291800967,0,0,-3,0,-2,-1,-1,0
1509433291807971,-2,0,2,0,-1,-1,-2,-2
1509433291807971,-6,3,0,-2,-2,-2,-1,-3
1509433291832032,0,-13,-6,0,-3,-1,-3,0
1509433291832032,-2,2,0,-2,-1,1,-1,-2
1509433291833004,-2,0,2,-2,-1,0,-2,-3
1509433291833004,2,-5,-3,-1,-2,0,-1,0
1509433291846993,-2,0,1,1,1,0,1,0
1509433291846993,-1,-3,-4,-3,-2,-1,-1,-1
1509433291847984,0,-4,-1,-2,-1,-2,0,-2
1509433291847984,-1,-2,-1,-1,-2,-2,-3,-3
1509433291861008,0,-3,-2,-1,-2,-1,-1,-2
1509433291861008,-2,0,-1,-1,0,-1,0,-1
1509433291867999,-1,1,0,-1,-1,-1,0,0
1509433291867999,0,0,0,-1,1,0,-1,0
1509433291885020,-2,3,1,-1,-1,1,-2,-1
1509433291885020,0,-2,-1,0,-2,-1,-2,-2
1509433291886011,-1,-1,-2,-2,-2,0,-2,-1
1509433291886011,0,-1,0,-1,-2,-2,-1,0
1509433291907051,-1,-6,-2,1,1,-1,1,-1
1509433291907051,-3,0,0,-1,0,-2,-1,0
1509433291908028,-1,0,-2,-1,-3,-2,-2,-2
1509433291908028,-6,4,5,1,1,-1,0,-2
1509433291921047,-1,2,0,-1,0,-2,-1,-2
1509433291921047,3,-7,-5,-1,0,2,-1,1
1509433291928076,-8,1,2,0,-1,-1,1,-1
1509433291928076,-1,-9,-2,0,0,0,-1,-1
1509433291944077,2,0,-1,-2,-1,-2,-2,0
1509433291944077,-2,0,-1,0,0,-2,-2,0
1509433291946064,2,-2,-3,-2,-3,-1,-1,-1
1509433291946064,-2,-2,-3,-4,-1,1,0,-2
1509433291967090,-3,-2,-2,-1,0,0,0,-2
1509433291967090,-3,-1,-2,-1,-1,-2,0,0
1509433291968070,0,-1,0,-2,-1,-2,-1,-1
1509433291968070,1,1,0,-1,-1,0,-2,-2
1509433291980088,-3,1,-1,-2,0,-2,-1,0
1509433291980088,1,0,-1,-1,-2,-2,-2,-2
1509433291989085,-2,0,0,0,0,-3,0,-1
1509433291989085,4,0,-2,-2,-1,0,-1,-1
1509433292004107,1,0,5,0,-1,0,1,-1
1509433292004107,-3,4,-3,-4,-3,-2,-1,-2
1509433292006119,1,-4,-2,-1,-4,-2,-3,0
1509433292006119,7,12,-1,0,-1,-1,-1,-1
1509433292027122,-1,1,0,-2,-1,0,-2,0
1509433292027122,1,-1,-2,-3,-2,-2,1,-2
1509433292028122,-2,-4,-1,1,-2,-1,-1,-2
1509433292028122,-4,-4,-4,-1,-2,-2,-1,-2
1509433292040122,-2,-4,-2,-1,-1,-1,1,1
1509433292040122,-2,0,0,0,0,2,-1,1
1509433292049129,1,-3,0,-2,-2,0,-1,-2
1509433292049129,-2,-8,-1,1,-1,-1,-1,-1
1509433292064161,-4,3,-1,0,-1,0,0,-1
1509433292064161,1,-4,-2,-2,-2,-1,-1,-1
1509433292066160,-4,-1,1,-1,-1,0,-2,-3
1509433292066160,-3,-8,-2,-1,-1,-1,0,-1
1509433292087154,4,21,4,1,0,0,-1,0
1509433292087154,0,-3,-1,2,-2,-1,-1,-1
1509433292088155,-1,0,-1,-1,-3,0,-1,-1
1509433292088155,-9,0,2,1,-1,0,-2,-3
1509433292100164,-1,-4,-4,-1,0,-1,-2,1
1509433292100164,-2,-4,-2,-2,-2,-1,-2,1
1509433292109170,0,-1,-3,-2,-1,-1,-2,-2
1509433292109170,1,-8,-2,-3,-3,-1,-1,0
1509433292124190,-1,-8,-3,-2,-2,0,-1,0
1509433292124190,-5,1,1,0,0,1,-1,-1
1509433292126197,1,-4,-1,-1,-1,-3,-1,-1
1509433292126197,-2,0,-1,-1,-2,-2,-2,-2
1509433292146199,-2,-14,-10,-1,-2,-1,0,-1
1509433292146199,2,5,-1,-1,0,0,-1,1
1509433292148198,-1,-1,0,-5,-1,0,-1,0
1509433292148198,0,0,-1,0,-1,-2,0,-2
1509433292160244,2,-4,-4,0,0,-1,-1,-1
1509433292160244,-4,-3,-1,1,0,1,-2,-2
1509433292169226,0,21,7,-1,-2,-1,-1,0
1509433292169226,-2,4,-1,-1,1,-4,0,-2
1509433292184293,1,-4,-1,0,-1,-1,0,0
1509433292184293,-8,1,1,-1,-1,-1,1,0
1509433292186238,-2,1,-1,0,-3,0,-3,-2
1509433292186238,1,1,-1,-2,-2,-2,-1,0
1509433292206264,0,2,-1,-1,-1,-2,-1,-1
1509433292206264,0,-6,-5,-1,0,-1,-3,-1
1509433292208247,2,-5,-4,-1,-3,-1,-2,-1
1509433292208247,-4,-8,-4,-1,-1,0,-2,-3
1509433292229280,-2,-3,-3,0,-1,1,-1,-1
1509433292229280,0,-7,-6,-3,-3,-2,0,-1
1509433292231257,-3,-4,-1,-1,-1,-1,-3,-1
1509433292231257,5,0,-3,0,0,-2,-1,-1
1509433292244283,0,1,0,-3,-1,0,1,1
1509433292244283,3,-1,-4,-4,-2,-2,-1,0
1509433292246267,-1,0,-2,-2,-2,-1,-1,-2
1509433292246267,1,-6,2,0,-2,-2,0,0
1509433292266310,-2,3,0,-3,-2,-1,-1,-1
1509433292266310,-2,-3,-1,0,-1,-1,-4,-3
1509433292268294,-4,3,2,0,-2,1,-2,-2
1509433292268294,-2,-2,2,-2,-1,0,-1,-1
1509433292280303,1,-1,-4,1,0,-1,0,0
1509433292280303,0,0,1,-2,-1,-2,-1,-1
1509433292289304,-2,-8,-1,-4,-2,-2,-1,-2
1509433292289304,-6,7,5,1,3,0,0,0
1509433292304326,0,1,-2,-3,-1,-1,0,-1
1509433292304326,0,1,-1,0,-1,-1,1,-2
1509433292305320,-1,3,2,-1,0,-3,-1,-1
1509433292305320,1,0,-2,-2,-2,-2,-2,-1
1509433292326336,0,-3,-2,-1,0,-1,-1,0
1509433292326336,3,1,-3,0,-1,-2,-1,-1
1509433292328325,-3,-3,0,0,-2,0,0,0
1509433292328325,-1,-19,-6,-1,-3,-1,-2,-1
1509433292340349,0,-11,-5,-2,-1,-1,0,0
1509433292340349,-3,-3,-4,-2,-2,0,-1,-1
1509433292349340,-2,-2,-1,-1,-2,-2,-1,-3
1509433292349340,2,-1,-1,-1,-2,-1,-1,-1
1509433292364362,6,3,-4,-3,-4,-1,-1,-2
1509433292364362,0,-1,1,-1,-1,-1,-1,0
1509433292365363,-1,-8,-2,0,0,0,-1,0
1509433292365363,-5,7,7,1,1,0,-1,-1
1509433292386376,-1,1,-1,0,2,-1,0,0
1509433292386376,-2,-1,-1,-2,-2,-1,0,0
1509433292388367,1,5,2,0,-1,-2,0,0
1509433292388367,3,0,-6,-4,-1,-1,-2,-1
1509433292409404,-2,2,-1,1,-1,0,0,-2
1509433292409404,-3,2,-1,0,0,-2,-2,-2
1509433292410406,-8,-4,-1,0,-1,0,-2,-2
1509433292410406,-2,-1,0,-1,-2,-2,-1,-1
1509433292424417,0,10,4,-1,1,0,0,-1
1509433292424417,0,0,0,-3,-1,-2,-1,-2
1509433292425394,1,-5,-1,-2,-2,-1,-2,-1
1509433292425394,-2,3,0,0,0,-2,0,-2
1509433292446421,-3,-5,-2,0,-1,0,1,0
1509433292446421,1,-4,-1,0,-2,0,0,0
1509433292448411,0,3,0,-3,-2,-2,-3,-1
1509433292448411,-10,1,2,-1,-2,-2,-1,0
1509433292469450,-2,5,2,-1,-1,-1,-2,0
1509433292469450,0,-1,0,1,0,0,-2,0
1509433292470451,-2,-5,-3,-2,0,-2,-2,0
1509433292470451,0,3,-1,-2,-1,0,0,-1
1509433292484451,-1,-5,-1,0,-1,-1,-2,-1
1509433292484451,-6,0,0,0,-1,-2,-1,-1
1509433292485438,-1,2,0,-2,-1,0,-2,-3
1509433292485438,0,-1,-1,-2,-1,2,-2,-2
1509433292507463,0,-2,-4,-1,-2,-2,0,-2
1509433292507463,1,12,2,-1,-2,1,-2,1
1509433292508452,1,-3,-2,1,-2,-1,-1,1
1509433292508452,1,-4,-2,1,2,-1,-1,1
1509433292529470,-2,-8,-4,-1,0,-1,0,-2
1509433292529470,0,3,1,-3,-2,0,-3,0
1509433292530469,-3,1,-1,-1,-2,-2,-2,-3
1509433292530469,4,3,-2,-2,1,-1,-1,-2
1509433292543500,0,1,-3,0,-2,-3,-1,-1
1509433292543500,1,-5,-2,-2,-3,-4,0,1
1509433292550492,-1,-1,0,-1,-1,0,-3,-1
1509433292550492,0,-5,-1,0,-1,-1,-1,0
1509433292566517,-5,-1,-1,-1,0,-1,-2,0
1509433292566517,2,-4,-5,0,-1,-2,-2,-2
1509433292568507,1,-4,-1,-1,-3,-3,-2,-1
1509433292568507,-2,-3,-1,0,1,-1,-2,-1
1509433292589531,0,-3,0,0,0,0,0,-1
1509433292589531,-3,-9,-5,-3,-2,-2,0,0
1509433292590521,-3,-1,0,1,-1,0,-3,-2
1509433292590521,-2,0,-1,-1,-1,-1,-2,-2
1509433292603545,0,1,-4,-1,-2,-1,0,0
1509433292603545,-1,-2,1,-1,-2,0,-1,-1
1509433292610549,-1,-2,0,-2,-4,-2,-1,-1
1509433292610549,1,0,-3,-1,-1,-2,-1,-1
1509433292626551,0,-9,-4,-1,1,-2,-2,-2
1509433292626551,-1,-3,-1,1,1,0,-1,-1
1509433292628539,0,0,-1,-2,-3,-1,-1,-1
1509433292628539,-1,2,1,0,-1,-1,0,0
1509433292649567,-2,3,0,0,1,0,-1,1
1509433292649567,6,-1,-5,-2,-3,-1,-2,-2
1509433292650553,-2,1,0,-1,-1,-1,-3,0
1509433292650553,-3,3,5,0,0,-1,-1,-1
1509433292663577,-2,-1,-1,-1,-1,0,-2,0
1509433292663577,0,-3,-2,-1,-4,-1,0,-3
1509433292670577,-1,-2,-3,-2,-1,-1,-2,-2
1509433292670577,-2,-1,-4,-3,-1,-1,-1,-2
1509433292686590,0,-1,-2,-2,-2,-1,-2,0
1509433292686590,-5,2,2,-1,1,-1,0,-2
1509433292688581,0,-3,-3,0,-1,0,-1,1
1509433292688581,-2,-2,-2,-1,0,-2,-1,-1
1509433292709606,0,1,-1,-1,0,-2,1,0
1509433292709606,-3,-6,-5,-2,-2,-2,0,-2
1509433292710597,-4,3,4,2,2,0,0,-3
1509433292710597,0,-1,-1,-2,-2,-1,-2,-2
1509433292723616,4,20,4,0,-1,0,-1,1
1509433292723616,-2,-4,-2,-2,-2,-2,-1,-1
1509433292730626,-4,-2,0,-2,-4,-2,-1,-2
1509433292730626,-13,12,6,2,0,-2,0,-1
1509433292746646,-2,-7,-4,0,-1,-2,0,-1
1509433292746646,-3,-3,0,0,-2,-2,-2,0
1509433292748648,-4,0,3,0,-1,-1,0,-1
1509433292748648,3,-8,-3,-2,-1,-2,0,-1
1509433292769644,0,-4,-2,-1,-1,-1,0,0
1509433292769644,-1,4,2,-1,-3,-3,-2,-1
1509433292770639,0,-4,-3,-2,-2,-2,-1,0
1509433292770639,1,-5,-3,-1,-2,-2,0,-2
1509433292783716,-2,-4,-1,0,0,0,-1,0
1509433292783716,-1,1,0,0,0,0,0,-1
1509433292790664,1,-4,-4,0,-2,-2,-3,-1
1509433292790664,-1,2,-2,-1,0,1,0,0
1509433292806673,-2,-4,-2,-1,1,1,-1,-1
1509433292806673,-2,-1,-2,-2,-2,-1,-3,0
1509433292808675,1,1,-1,-1,-1,-2,-1,-1
1509433292808675,1,-2,-2,-1,0,-3,-1,0
1509433292828701,0,-8,-2,-1,-1,0,1,-1
1509433292828701,-2,14,2,-2,-1,0,-2,-1
1509433292836690,-3,-4,1,1,1,-1,-2,-3
1509433292836690,-2,7,2,-2,-1,0,-1,0
1509433292843760,3,2,-4,-2,-1,-1,0,-2
1509433292843760,-1,-5,-2,-2,-2,-2,-2,0
1509433292850720,-3,0,0,0,-2,-1,-1,-1
1509433292850720,0,-5,-2,-1,0,-1,-2,-1
1509433292866731,-2,-6,-3,-2,-1,-2,-1,0
1509433292866731,-2,4,4,1,-1,-1,0,0
1509433292868732,0,-1,0,-1,-1,-3,-2,-1
1509433292868732,0,-6,-4,0,-1,-1,-1,-1
1509433292888746,-2,0,-2,0,1,0,0,-1
1509433292888746,-2,-5,-4,-1,-1,-1,-2,-2
1509433292890729,1,0,1,-3,-1,-1,-1,-2
1509433292890729,-1,-1,-2,-2,-2,0,-1,0
1509433292902738,-2,-1,0,-1,-1,-1,-1,-1
1509433292902738,0,-5,-1,0,0,0,-1,-1
1509433292911744,0,-9,-3,-1,-1,-2,-3,1
1509433292911744,-5,0,-1,0,0,-1,1,0
1509433292926766,1,-3,-4,-2,0,0,-2,-2
1509433292926766,2,-19,-4,1,-1,-1,-2,-4
1509433292928749,-5,11,3,-1,-1,0,0,-1
1509433292928749,2,-10,-6,-2,-1,-2,0,-1
1509433292948779,-2,0,0,-1,-1,-2,-2,-1
1509433292948779,0,-1,1,0,0,0,0,-1
1509433292950779,-2,-2,-2,-1,-1,1,-1,-2
1509433292950779,-2,-2,0,1,-1,-1,-1,0
1509433292962813,-2,0,-1,0,0,2,0,-1
1509433292962813,-2,-1,-2,-2,-2,-1,-1,0
1509433292971782,-2,-4,-2,-3,-2,-1,-1,-2
1509433292971782,-4,2,3,-1,2,-1,-1,-2
1509433292986793,-1,-4,-1,0,0,-1,-1,0
1509433292986793,0,-2,-2,-1,-1,-2,-3,-1
1509433292988793,-3,-4,-2,-3,-2,-2,-1,-1
1509433292988793,3,-5,-2,-1,-2,-1,-2,-2
1509433293008831,-2,2,1,0,-1,-1,-1,-1
1509433293008831,-6,4,2,-3,-1,-1,0,-1
1509433293010809,-1,0,1,0,-1,-1,-2,0
1509433293010809,1,0,-1,-1,0,-3,-2,0
1509433293022834,2,-6,-3,-1,-1,0,-1,-1
1509433293022834,-1,1,-2,-1,-4,-3,-2,0
1509433293031826,-6,20,8,1,-2,-2,0,0
1509433293031826,-2,-6,-4,-2,-1,0,0,-1
1509433293046849,0,8,3,-1,-1,-1,0,0
1509433293046849,-2,-6,-2,0,0,0,-1,-3
1509433293047850,2,-7,-3,-3,-1,-3,-1,0
1509433293047850,1,-2,-2,-1,-1,-1,-2,0
1509433293069852,-1,2,-2,-1,-1,-2,1,0
1509433293069852,-3,3,-1,-2,-2,0,-1,-1
1509433293070852,1,-4,-2,-3,-3,-2,-2,-2
1509433293070852,-5,3,1,1,-1,-2,0,-2
1509433293082881,-1,-7,-5,-2,-2,-1,-2,0
1509433293082881,-3,-1,-1,-1,-3,0,-2,0
1509433293098880,-1,-5,-1,-1,-2,-1,-2,-1
1509433293098880,1,-1,1,-2,-2,-1,-1,1
1509433293106885,-3,-1,-2,-1,0,-2,-1,-1
1509433293106885,1,1,-3,-2,-2,-2,-1,-2
1509433293107887,0,-3,-2,-1,1,0,-2,-3
1509433293107887,1,-1,-2,-2,0,0,-1,-1
1509433293128914,-2,-17,-6,-1,-1,-3,-3,1
1509433293128914,-9,11,6,2,0,1,-1,0
1509433293130892,0,-3,0,-2,-2,-3,-1,-1
1509433293130892,-2,-2,0,0,-1,0,-1,0
1509433293142923,-1,-2,-2,1,-1,0,0,-1
1509433293142923,-1,-4,-1,-3,-3,-2,-2,-1
1509433293151908,-1,3,-1,-1,-2,-2,-2,0
1509433293151908,0,2,0,0,0,1,0,-1
1509433293173948,2,5,-1,-3,-2,-1,-1,1
1509433293173948,2,-1,-2,-1,-1,-2,1,0
1509433293175935,2,0,0,-1,-1,0,-1,-3
1509433293175935,1,-3,-1,0,-1,-3,-1,-2
1509433293189020,-2,5,0,-2,-2,-1,-2,1
1509433293189020,-3,2,4,-1,-1,-1,-1,-2
1509433293190990,-1,-5,-2,-1,-2,1,-2,0
1509433293190990,0,-3,-2,-1,-1,0,-1,-1
1509433293203003,0,2,-1,0,-1,-2,0,-3
1509433293203003,-3,-15,-2,1,-1,0,0,-1
1509433293219015,6,-1,-2,-1,-3,-3,-1,1
1509433293219015,-7,1,0,-1,0,-1,0,-1
1509433293227015,0,2,-2,-2,-1,-2,1,-1
1509433293227015,-1,-7,-6,-3,-3,-2,-4,-2
1509433293228016,0,-3,-1,-1,-2,-2,-1,-1
1509433293228016,2,0,-3,-3,0,-1,-3,-2
1509433293249032,-1,-5,-3,-1,1,-1,0,-1
1509433293249032,2,2,-2,-4,-3,-2,-2,-2
1509433293251034,-3,-1,1,-2,-1,-2,0,0
1509433293251034,1,2,-2,-1,1,0,-1,0
1509433293263077,-5,3,0,1,-2,0,-1,-2
1509433293263077,0,2,-2,-1,-1,-1,-1,-1
1509433293272049,-4,1,1,-1,-1,-1,-2,-1
1509433293272049,0,-3,-5,-1,-1,0,0,-2
1509433293287074,1,-1,-2,-1,-2,1,-1,0
1509433293287074,-1,-1,0,0,0,-1,-2,1
1509433293288058,-2,-3,-2,-2,-2,0,-2,-2
1509433293288058,-6,3,3,0,1,1,1,0
1509433293309075,-1,5,-1,-1,-1,-1,-1,0
1509433293309075,1,20,6,2,0,0,-1,0
1509433293311076,-2,-3,-1,-3,-2,0,0,-1
1509433293311076,-5,4,1,-4,-2,-2,-2,-1
1509433293323085,0,0,0,-1,0,1,-1,1
1509433293323085,0,-4,-1,-2,-2,-2,-1,-1
1509433293332092,-1,-1,2,1,0,0,-1,-2
1509433293332092,1,-2,-3,0,-1,-1,0,-1
1509433293347102,-1,-4,-4,-2,0,-1,-2,-4
1509433293347102,-1,-5,-4,-2,-1,-1,-2,-2
1509433293348103,-3,2,3,-1,0,-2,0,-3
1509433293348103,0,-5,-2,1,-2,-3,0,-1
1509433293369175,-2,-3,0,0,1,-1,-2,-1
1509433293369175,-1,-8,-3,-1,-2,-2,-2,0
1509433293371119,-2,2,2,-1,-1,-2,-2,1
1509433293371119,3,-2,-3,0,1,1,-2,-1
1509433293392142,0,-2,-1,-1,0,-1,0,-1
1509433293392142,0,-2,-1,-3,-2,-2,-1,-2
1509433293393132,-3,-6,-2,-1,-1,0,-2,0
1509433293393132,-1,-3,-1,-1,2,-1,0,-3
1509433293407147,0,0,-2,-3,-2,-1,0,0
1509433293407147,-1,-2,0,-1,0,-1,-2,-1
1509433293408149,-4,-22,-8,-1,-2,-2,-3,-2
1509433293408149,5,-5,-1,-2,-2,-1,-3,-1
1509433293429159,-5,-4,0,1,-1,-2,-1,1
1509433293429159,-3,-5,1,0,-2,0,-1,-1
1509433293431163,2,-1,1,-3,-2,-2,0,0
1509433293431163,-2,-2,-3,-1,-1,-1,1,-2
1509433293451175,1,-2,-2,2,-1,-2,-1,-3
1509433293451175,3,-2,-2,-2,-5,-4,-2,0
1509433293453179,-3,8,5,2,2,-1,0,0
1509433293453179,-1,-1,-2,-1,-2,-1,-1,-2
1509433293466240,1,3,-2,-1,0,-1,0,-1
1509433293466240,-2,1,-2,0,-1,-1,-1,-1
1509433293467242,-1,2,-2,-1,-3,-2,-2,-3
1509433293467242,-2,1,2,0,1,-3,0,0
1509433293496219,-2,-4,-1,-1,0,1,-2,0
1509433293496219,-1,-1,-1,-3,-1,0,-2,-1
1509433293497213,0,0,-1,-1,-4,-1,0,-2
1509433293497213,-3,-5,-2,0,-2,-1,-1,0
1509433293511240,6,9,-3,-4,-3,-4,-1,0
1509433293511240,-4,2,-2,-1,-2,-2,-3,-2
1509433293512242,-3,3,2,-2,-1,-1,0,-2
1509433293512242,-4,2,-1,-2,0,-3,-1,0
1509433293526245,-1,3,1,0,1,-1,1,0
1509433293526245,-4,0,1,0,-1,0,-2,-4
1509433293527249,-2,-5,-1,-1,-2,-1,-3,0
1509433293527249,2,-5,-3,1,0,-2,-1,-1
1509433293548245,-1,-1,-1,-2,-1,0,1,-1
1509433293548245,-2,-1,-2,-1,-1,-2,-2,-1
1509433293549246,-2,-1,-1,1,-1,-1,0,-2
1509433293549246,1,-1,0,0,-2,-1,0,-1
1509433293571262,-1,-1,-3,0,1,-2,-1,0
1509433293571262,-1,-1,0,-2,0,-1,-2,0
1509433293572263,0,-3,-1,-2,0,0,-2,-2
1509433293572263,-3,-17,-7,-1,-1,-1,-1,-1
1509433293586298,-1,-4,-2,-1,1,-2,-1,-1
1509433293586298,-5,-8,-2,-1,-2,-1,-2,-1
1509433293586298,5,2,-3,-2,-2,-2,-1,0
1509433293586298,0,-1,-4,-1,0,-2,0,-1
1509433293608288,2,2,3,-1,-2,1,0,0
1509433293608288,-1,-1,1,0,-3,-2,-1,-1
1509433293609289,2,7,3,-2,-1,0,-3,-1
1509433293609289,-2,3,0,0,1,1,-1,-1
1509433293631322,-2,-6,-4,-1,-1,0,-1,-2
1509433293631322,1,2,1,-1,-2,0,-1,-1
1509433293631322,-4,-6,-1,2,0,-2,-2,-2
1509433293631322,0,2,1,-3,0,-1,0,1
1509433293646315,-3,0,-2,1,-3,-3,-1,-2
1509433293646315,-1,-3,-1,-1,-1,-2,0,-1
1509433293646315,-2,2,-1,-2,-2,-2,-3,-2
1509433293646315,-2,1,0,1,0,0,-1,-1
1509433293668344,-1,0,1,-2,0,0,-1,2
1509433293668344,0,2,-2,-3,-3,1,-2,-2
1509433293669330,-1,-2,0,0,-1,-1,0,-2
1509433293669330,1,15,4,0,-1,0,2,0
1509433293691354,-1,-2,-1,-2,-3,-1,-1,0
1509433293691354,4,-3,-2,-2,-1,-5,-2,0
1509433293691354,-10,12,7,-3,0,1,0,1
1509433293691354,1,4,-1,0,-2,-1,-3,0
1509433293706407,0,-5,-4,-1,1,-1,-2,-1
1509433293706407,-3,-3,0,2,0,-1,-2,-2
1509433293706407,-2,-8,-4,-1,-2,-2,-2,-4
1509433293706407,0,-3,-2,0,0,-1,-1,-2
1509433293728425,-2,-1,-2,0,0,1,0,-2
1509433293728425,-1,0,0,-1,-1,0,-1,-1
1509433293729426,4,-6,-3,-2,-2,-3,-2,-2
1509433293729426,-4,-2,-4,-2,2,1,-2,-1
1509433293750452,4,-3,-4,-3,-3,-1,-1,0
1509433293750452,-1,-1,-2,-1,-1,0,-1,-3
1509433293751449,1,-1,0,0,0,-3,-1,0
1509433293751449,0,-3,-2,-2,-1,-2,1,-1
1509433293767454,-2,-7,-3,1,-1,-2,0,-1
1509433293767454,-1,-4,-3,-3,-2,-1,-2,-1
1509433293768451,-5,4,4,0,0,0,-2,-2
1509433293768451,7,-2,-4,-3,-2,-2,-1,1
1509433293788466,-5,3,2,0,-1,0,-1,0
1509433293788466,-2,1,0,-1,-3,-1,-1,0
1509433293789466,0,-3,-2,-1,-1,-1,-1,1
1509433293789466,-2,-6,-5,0,-2,1,-2,0
1509433293810502,1,0,-2,-2,-1,1,-1,-1
1509433293810502,0,1,1,-2,-2,-3,-1,-1
1509433293811481,2,-3,-2,-3,-2,-1,-1,-1
1509433293811481,-2,-3,0,2,-1,-2,1,-1
1509433293826493,-1,-2,-1,-1,-1,-1,-1,-1
1509433293826493,-5,6,2,-1,-1,0,-1,-2
1509433293826493,0,-3,1,-2,-3,-1,0,-1
1509433293826493,0,0,0,-2,0,-2,0,-2
1509433293848520,0,-2,-2,-1,-1,-2,-1,-3
1509433293848520,-4,-17,-6,-1,-2,-1,-1,-1
1509433293849521,-3,18,5,-2,-2,-1,-2,-1
1509433293849521,1,3,-1,-3,-1,1,-2,-1
1509433293870546,-1,0,-2,0,1,-1,-1,-1
1509433293870546,-2,-5,-3,-1,-3,-1,-2,-1
1509433293871523,-2,-4,-2,-1,-1,-2,-3,-2
1509433293871523,2,2,-3,0,0,-2,0,-2
1509433293885543,0,0,-1,0,-1,-2,2,-2
1509433293885543,-1,2,3,0,-1,-1,-2,-1
1509433293886550,-1,-7,-2,-1,-3,-1,2,-2
1509433293886550,-6,0,0,2,-1,0,0,-1
1509433293908560,0,-2,-1,0,0,0,-1,0
1509433293908560,1,3,2,-2,-3,0,-2,-1
1509433293909560,2,-5,-3,-3,-2,-2,-2,-1
1509433293909560,-4,-1,0,-1,0,-1,-1,-1
1509433293930579,-1,-1,-1,-2,0,0,-2,-1
1509433293930579,-2,0,0,-1,-1,-2,-3,-1
1509433293931568,-1,-2,0,1,-1,-2,-2,-1
1509433293931568,0,-9,-5,0,-1,-1,0,-1
1509433293954607,-6,-18,-6,-2,-2,0,-2,0
1509433293954607,1,7,5,-1,-1,-2,-1,-2
1509433293954607,-2,-3,-3,0,0,0,-1,-1
1509433293954607,0,3,1,-2,-1,-2,-1,-1
1509433293968593,0,-2,-1,0,-3,0,-2,0
1509433293968593,-3,-7,-2,0,0,-2,-1,0
1509433293969594,-5,-4,0,-1,0,-1,-1,-3
1509433293969594,-1,-3,-2,0,0,-2,0,1
1509433293990618,7,-5,-4,-2,0,-1,0,-1
1509433293990618,-7,2,3,-1,-2,1,-1,0
1509433293991610,-1,-4,-2,0,-1,-1,0,0
1509433293991610,1,2,-2,-3,0,0,0,0
1509433294005634,1,2,-1,-1,0,-3,-1,-2
1509433294005634,1,0,-3,0,-1,-1,-2,-1
1509433294013639,-1,-4,-1,0,-1,-1,-3,-2
1509433294013639,-6,-1,4,2,2,1,-1,-1
1509433294028694,1,2,-5,0,-2,-3,-1,-1
1509433294028694,-1,1,1,-2,-2,-2,-1,-2
1509433294029637,-1,1,0,0,-1,-1,-1,0
1509433294029637,1,-1,-2,-2,0,0,1,1
1509433294050665,-3,-3,-3,-3,-2,0,0,0
1509433294050665,1,-1,-2,0,-1,-1,-1,-1
1509433294051651,-2,-11,-5,0,-2,0,-2,-2
1509433294051651,3,7,-1,0,0,-1,-1,-1
1509433294065671,-5,-2,-1,2,2,-1,-1,-2
1509433294065671,-2,-2,0,-2,-2,-1,-2,-1
1509433294073677,-1,3,1,-3,0,-2,-3,-2
1509433294073677,0,-8,-3,-2,-2,0,0,-1
1509433294088688,0,4,1,-2,-3,1,-1,1
1509433294088688,0,-1,-1,0,2,-1,-2,-3
1509433294089689,-9,6,2,1,-2,-1,-2,-1
1509433294089689,0,0,-2,-2,-1,-1,-3,0
1509433294110695,2,3,-1,0,1,-1,1,1
1509433294110695,-5,0,2,-3,-2,-1,0,0
1509433294111693,2,-2,-1,0,-1,1,-2,-1
1509433294111693,1,-2,-2,1,-1,-1,1,0
1509433294125729,-3,-6,-4,-1,0,-1,-2,0
1509433294125729,2,-3,-2,-1,-3,-2,-3,-1
1509433294133709,-2,-1,1,-1,1,-2,0,-1
1509433294133709,-2,-4,-5,-2,-3,-2,-1,1
1509433294148735,-2,3,0,0,1,1,0,1
1509433294148735,-1,0,-1,-1,-3,-3,-2,-1
1509433294148735,1,1,-1,-2,-2,-3,-1,-2
1509433294148735,-2,-18,-7,-1,1,-2,-2,-2
1509433294170750,1,5,0,0,-1,-1,0,-1
1509433294170750,-2,-7,-2,-2,-1,2,0,-3
1509433294171736,0,-7,-2,-2,-2,0,1,-1
1509433294171736,-1,-2,-1,0,-1,-1,0,-3
1509433294184755,0,2,-1,-2,-4,-2,-1,-2
1509433294184755,-2,0,1,-1,-2,-1,-2,-1
1509433294193767,2,2,0,-1,-2,-2,-3,-4
1509433294193767,5,6,-1,-2,-1,0,0,0
1509433294208778,0,1,1,-1,1,-1,0,0
1509433294208778,-2,1,5,-2,-2,1,-1,0
1509433294209762,-6,8,6,0,0,1,-1,0
1509433294209762,-5,3,-1,-2,0,-2,-1,-1
1509433294230800,0,2,-1,-1,-2,0,-1,-2
1509433294230800,1,-7,-4,-2,-1,-1,-2,-1
1509433294231779,3,1,-1,-2,-1,-1,-2,-2
1509433294231779,0,6,6,0,0,-1,-1,-1
1509433294245788,0,-1,-1,-2,0,-1,-1,-1
1509433294245788,-3,-2,2,-1,0,-3,0,-1
1509433294253794,1,-1,-6,-2,-2,-1,-1,-2
1509433294253794,-1,-10,-6,-1,1,-3,-2,0
1509433294268805,-3,-2,0,-2,-1,0,0,-1
1509433294268805,2,3,3,5,-1,-2,-2,-2
1509433294275845,-4,-3,-1,-13,0,-1,0,-2
1509433294275845,-1,2,-3,-1,0,-2,-1,0
1509433294290834,4,-8,-5,-2,-1,-1,-1,-2
1509433294290834,-6,2,0,2,-2,0,-2,0
1509433294291823,-2,-2,5,5,0,1,1,0
1509433294291823,-10,5,3,1,1,1,0,-2
1509433294313866,1,-1,-3,-1,-2,-3,-2,0
1509433294313866,2,2,-3,-2,-4,0,-2,-2
1509433294314839,-2,-6,-1,0,0,-1,-1,0
1509433294314839,1,-3,-2,0,1,-1,1,0
1509433294328879,-4,1,0,2,-1,-1,-1,0
1509433294328879,-4,-20,-10,-5,-3,-1,-1,-2
1509433294328879,-1,-1,-3,-1,-2,-3,-2,-2
1509433294328879,1,1,2,1,0,0,2,1
1509433294350879,-5,-10,-5,-3,-2,0,0,1
1509433294350879,0,-1,0,-5,-3,-2,-2,1
1509433294351866,-2,0,-1,3,0,-1,-3,-1
1509433294351866,-1,-7,-8,-3,1,-1,-2,-2
1509433294381907,-1,0,-2,-2,-3,-2,3,-1
1509433294381907,2,4,-1,2,1,-1,0,-1
1509433294381907,7,-5,-2,1,-4,-1,-2,-2
1509433294381907,1,4,4,1,1,0,0,-1
1509433294388906,-2,1,-2,-3,-1,-2,-3,-2
1509433294388906,1,8,4,0,-2,-1,-1,-2
1509433294388906,3,2,-3,1,0,-1,-1,-1
1509433294388906,1,-6,-4,2,-2,-2,-2,-2
1509433294410920,-4,1,0,-3,0,0,-1,1
1509433294410920,0,0,0,-2,-4,-1,-1,-2
1509433294411907,-3,-2,3,-1,0,-1,0,1
1509433294411907,0,3,-1,-3,-4,-2,-2,-1
1509433294433945,3,1,5,8,0,2,2,3
1509433294433945,-5,5,-3,-7,-1,-1,-2,4
1509433294434932,-3,-1,-2,-2,-2,-1,-1,-6
1509433294434932,1,5,0,-3,-2,-2,0,-2
1509433294447944,0,-1,-1,-3,-1,-2,-3,-6
1509433294447944,-2,-4,6,8,-1,1,-1,2
1509433294448932,0,-2,-4,-4,0,-2,1,2
1509433294448932,1,4,1,-5,-1,1,0,1
1509433294470987,-1,0,-4,2,0,-2,-3,-2
1509433294470987,-7,-3,2,-1,-2,-2,-3,-5
1509433294471950,1,6,7,3,-1,-2,-1,-2
1509433294471950,12,-6,-9,-2,-2,0,0,1
1509433294494969,-5,1,0,-4,-2,-1,-2,-1
1509433294494969,4,1,-2,-1,-3,-3,-3,-3
1509433294495966,-6,-14,-4,-2,-2,-2,-2,-3
1509433294495966,2,-2,-1,-2,0,-1,-1,1
1509433294507975,2,-1,1,0,-2,-1,1,0
1509433294507975,-6,-6,-5,-5,-4,-5,-4,-7
1509433294508975,2,-5,-3,-1,1,4,4,15
1509433294508975,0,0,2,0,0,0,-1,-10
1509433294531014,-2,-3,-2,-3,-2,-2,-4,-2
1509433294531014,-13,-4,-1,0,0,0,0,-1
1509433294531992,2,3,3,5,-5,-4,-4,-1
1509433294531992,-8,4,-5,-10,0,1,1,3
1509433294554020,-4,8,8,-3,0,-2,0,-2
1509433294554020,6,-5,-2,-3,1,-1,-1,-1
1509433294555007,-7,2,-5,0,-1,-2,-1,-3
1509433294555007,-11,-4,-2,2,2,0,-2,-2
1509433294568016,1,-5,-4,-1,-4,-2,-1,-5
1509433294568016,9,4,0,0,-1,-3,1,-2
1509433294569017,0,1,8,5,-3,-2,-3,-7
1509433294569017,-3,-1,-4,-3,-2,0,1,2
1509433294615102,2,1,-5,0,1,-1,0,3
1509433294615102,-7,2,2,3,0,-3,0,0
1509433294616053,3,5,1,-4,-3,-3,-2,8
1509433294616053,2,5,21,8,3,0,0,-4
1509433294618075,-5,-1,-28,5,-4,1,-1,-1
1509433294618075,-2,-13,-4,-13,-3,-2,-2,-4
1509433294621053,2,5,-1,-7,-3,-2,-1,-1
1509433294621053,-10,-4,-2,0,-1,-1,1,3
1509433294628076,0,-2,16,9,4,1,2,7
1509433294628076,3,-12,-14,3,-4,-3,-6,-3
1509433294629060,3,-6,-12,-4,-1,-1,-1,-5
1509433294629060,-2,-1,-1,-1,-1,-1,-1,-1
1509433294651087,-17,-5,-1,-1,0,-1,-1,0
1509433294651087,-2,-2,-4,-6,-3,0,0,2
1509433294652087,6,-7,7,3,1,0,0,-3
1509433294652087,10,2,-7,-1,-1,-2,1,2
1509433294674112,6,1,11,-1,0,0,3,2
1509433294674112,-11,-2,-4,-2,-2,-2,-2,-4
1509433294675099,-9,5,8,8,3,1,-2,-8
1509433294675099,7,12,-3,1,-1,-2,-1,1
1509433294688102,2,4,5,-5,-2,-1,-1,8
1509433294688102,-3,2,-4,1,-2,-1,-6,-17
1509433294689115,9,2,8,-1,-3,-1,-1,-1
1509433294689115,-15,-3,-1,2,-1,0,-1,-1
1509433294711122,3,-16,-6,0,-1,-1,-2,-2
1509433294711122,-2,2,-9,-7,-2,0,3,6
1509433294712123,-5,-7,1,0,0,0,5,19
1509433294712123,-1,-4,12,6,-1,-2,-8,-22
1509433294734172,-3,13,0,-19,-4,-2,-3,5
1509433294734172,7,-12,-19,1,2,-1,-6,-10
1509433294735146,-14,-2,-19,-8,-2,-1,2,-1
1509433294735146,4,2,0,3,3,-1,4,11
1509433294748153,4,-14,-8,8,-2,-1,0,-1
1509433294748153,6,8,3,-7,-4,-1,2,1
1509433294756160,2,23,-11,-10,0,-2,-1,-5
1509433294756160,-4,-8,-10,-2,-1,-3,1,5
1509433294771170,8,0,8,3,1,1,0,6
1509433294771170,10,4,8,4,-2,0,-4,-12
1509433294772160,-24,-3,-7,-3,0,-2,-3,-11
1509433294772160,10,5,0,3,-3,-2,2,1
1509433294794198,5,5,-23,-9,-5,-6,-1,11
1509433294794198,0,-10,13,3,-1,-2,-6,-5
1509433294796180,-10,-10,11,4,4,2,0,5
1509433294796180,-7,-8,2,3,-3,-1,-5,-10
1509433294808206,2,-6,-14,-3,-6,-1,2,-4
1509433294808206,-6,-5,5,-1,-2,-1,1,15
1509433294809187,-3,8,19,10,0,-1,-3,-13
1509433294809187,-13,-24,-37,-22,-3,-3,-1,3
1509433294831222,-6,21,12,13,1,0,-3,-15
1509433294831222,-3,-21,-12,-9,0,0,1,8
1509433294832223,8,7,9,-2,-4,-4,-2,-1
1509433294832223,-11,-16,18,5,0,-1,0,6
1509433294854219,-18,-3,-25,-13,0,-3,0,-10
1509433294854219,7,16,16,1,-2,-1,-2,3
1509433294855220,2,2,-11,-4,-2,-1,-3,-4
1509433294855220,6,-4,0,0,-2,2,0,2
1509433294868229,10,5,4,5,0,0,-4,-13
1509433294868229,0,7,5,-11,0,2,3,23
1509433294869230,7,-10,-4,3,-1,0,-4,-19
1509433294869230,10,16,2,9,0,2,0,2
1509433294891302,-12,-14,10,-20,-4,-2,-1,-2
1509433294891302,-2,-10,-31,4,-2,-1,1,1
1509433294891302,4,9,-2,-5,-3,-4,-4,8
1509433294891302,-1,-13,-8,-8,0,-1,1,-16
1509433294914319,-7,-4,3,6,0,-1,-3,-1
1509433294914319,-1,4,8,2,2,0,1,-11
1509433294915264,-20,-7,-4,-1,-1,0,2,5
1509433294915264,46,10,19,7,-2,-2,0,11
1509433294927294,7,3,-7,1,-1,-2,-3,-5
1509433294927294,-25,1,31,7,0,0,2,7
1509433294936317,29,7,-30,-1,-2,-5,-7,-10
1509433294936317,-6,-4,-2,-5,0,-1,-2,3
1509433294951301,-3,-6,-21,-4,-3,-2,-3,-1
1509433294951301,-2,-16,3,-4,-4,-5,-3,-14
1509433294951301,17,12,23,-5,-1,1,4,10
1509433294951301,-15,21,-4,1,0,-1,-1,-16
1509433294974325,17,7,28,-4,1,-1,-1,-6
1509433294974325,-4,16,-20,-4,-6,-4,-3,0
1509433294975306,-11,-1,16,3,2,0,0,4
1509433294975306,3,15,8,7,-1,-1,-1,2
1509433294996333,-10,-29,15,-4,-1,0,1,10
1509433294996333,15,5,-25,-2,0,-1,-7,-22
1509433294997320,3,-4,-6,6,0,3,2,-1
1509433294997320,1,14,26,-8,-5,-1,-1,0
1509433295011366,-15,-40,-17,10,1,0,1,-4
1509433295011366,2,8,-2,-12,-5,-3,-6,12
1509433295011366,-12,-15,-12,3,2,0,2,-3
1509433295011366,11,18,19,12,5,3,-3,3
1509433295033404,-8,-33,-45,-16,-6,-4,-8,-7
1509433295033404,11,1,25,14,3,2,6,15
1509433295034361,-55,-7,-28,-6,-2,0,1,-32
1509433295034361,17,-20,1,-1,1,-1,-11,-20
1509433295056382,8,29,12,-8,-3,-2,-1,-4
1509433295056382,-15,13,-7,6,3,3,-3,-4
1509433295057382,11,-5,30,7,2,0,1,10
1509433295057382,-30,-26,-61,-19,-4,-1,9,11
1509433295071373,19,34,21,10,-1,-3,-5,-10
1509433295071373,0,-24,6,-1,3,4,3,5
1509433295071373,-8,-17,-8,-19,-11,-8,-3,-1
1509433295071373,-1,22,-5,7,3,0,2,16
1509433295094410,0,29,1,-5,-6,-2,-5,-1
1509433295094410,-59,-19,-27,-5,1,-1,7,7
1509433295095400,45,49,44,4,2,-4,-21,-23
1509433295095400,8,-74,-30,-4,-1,0,6,30
1509433295107408,2,34,37,13,7,6,-4,-31
1509433295107408,-35,18,-23,5,-3,-7,-13,-26
1509433295115414,14,-15,-14,-9,0,4,13,30
1509433295115414,1,4,33,-7,-4,-4,5,-8
1509433295131433,-9,-22,-41,0,1,5,6,13
1509433295131433,9,-5,48,5,-8,-10,2,-30
1509433295131433,17,-76,-57,-13,-9,-7,-18,9
1509433295131433,-12,21,-12,4,-5,-1,10,-29
1509433295154467,3,28,32,-13,0,3,21,64
1509433295154467,-6,13,0,0,-6,-10,-23,-87
1509433295155433,47,23,35,1,1,-7,-26,-86
1509433295155433,-46,-44,-12,2,0,-1,-17,69
1509433295167466,13,12,-25,6,-1,-2,5,-21
1509433295167466,20,-17,-17,10,5,10,21,48
1509433295175462,2,50,28,8,14,14,43,106
1509433295175462,22,-19,-17,-16,-5,-3,-17,-60
1509433295190469,-52,29,16,7,-1,-8,-33,-79
1509433295190469,25,-79,26,4,3,5,12,100
1509433295191460,-18,-43,-47,-12,-5,0,0,72
1509433295191460,-2,35,-21,10,2,-2,7,-92
1509433295214489,7,10,52,17,6,6,4,75
1509433295214489,22,19,-43,-17,-8,-9,-9,-47
1509433295214489,-28,-48,16,15,4,5,5,35
1509433295214489,15,11,18,-2,2,0,13,71
1509433295236505,-5,-5,-21,-3,-3,7,47,29
1509433295236505,-28,42,8,10,-9,-12,-46,27
1509433295237491,-40,2,-29,-50,-7,-5,-18,-65
1509433295237491,-9,-34,60,22,5,0,9,43
1509433295250515,11,-5,1,12,2,-3,-2,-79
1509433295250515,52,8,23,-9,4,8,28,73
1509433295251502,-22,0,-24,0,-11,-5,15,70
1509433295251502,5,3,35,-9,5,1,0,-54
1509433295275554,26,-40,-26,-2,-2,1,-13,-24
1509433295275554,-70,10,-14,-8,-1,-3,-10,-9
1509433295276518,-11,57,25,5,2,-5,-9,-41
1509433295276518,52,-30,-68,-13,-3,8,16,-2
1509433295296532,-40,-27,9,-26,-1,-2,0,73
1509433295296532,-23,46,-5,36,8,4,11,-30
1509433295297533,0,-32,-35,-26,-3,-4,-12,-31
1509433295297533,10,42,10,30,-2,-9,-25,-21
1509433295310542,-59,-12,-8,-26,-6,-1,-9,-18
1509433295310542,18,25,50,-5,-3,-1,-7,7
1509433295311542,-18,-64,17,0,-3,-4,3,5
1509433295311542,-26,66,-66,-31,-9,-8,-12,5
1509433295334613,51,-60,49,76,1,-6,-6,-3
1509433295334613,43,77,40,-25,3,6,12,45
1509433295334613,-18,-13,-74,-19,-12,-7,-3,-40
1509433295334613,76,41,38,14,3,-1,6,36
1509433295356596,-34,29,12,-15,-6,-7,-13,8
1509433295356596,21,1,-31,-15,-3,-1,-10,-29
1509433295357576,-9,-41,26,27,4,1,-4,-23
1509433295357576,-11,-12,-9,-15,-1,3,6,11
1509433295371586,50,-30,-30,-14,-4,-7,-6,104
1509433295371586,-8,-57,5,14,-7,-10,-4,-92
1509433295371586,-25,-19,-17,-15,-3,0,-18,10
1509433295371586,0,29,-31,-32,-8,-9,-20,-38
1509433295394618,-8,9,23,8,-4,1,14,-41
1509433295394618,24,-24,-36,-14,1,-1,-1,5
1509433295395612,-6,-29,25,23,1,-4,-8,-60
1509433295395612,-3,28,12,36,7,7,15,44
1509433295416642,-28,52,11,-14,7,6,-21,-102
1509433295416642,12,-44,-66,4,-6,-3,0,12
1509433295417642,44,63,33,-33,5,5,8,20
1509433295417642,-51,-15,23,-10,-1,3,20,50
1509433295430627,14,35,-22,-4,-4,-3,-6,-32
1509433295430627,38,40,63,13,-1,1,4,76
1509433295431628,-64,39,82,-4,2,2,3,-54
1509433295431628,-37,-50,-17,-12,-12,-8,-9,13
1509433295453668,22,-36,-22,-18,0,0,-4,-42
1509433295453668,8,-36,26,-9,-8,-6,-6,77
1509433295454655,11,89,15,24,3,4,21,-3
1509433295454655,48,-63,-14,-12,-1,-6,-23,-69
1509433295476675,-67,-10,18,33,3,2,25,92
1509433295476675,-28,-50,-27,-23,-15,-15,-28,-103
1509433295477660,40,29,27,33,19,18,25,64
1509433295477660,-62,-37,-49,-3,-7,-6,1,9
1509433295490671,-8,41,-53,-26,0,4,10,42
1509433295490671,-26,46,35,31,12,7,2,-70
1509433295491670,-4,-56,-19,-17,-16,-11,-5,20
1509433295491670,39,42,67,8,8,6,-7,-10
1509433295513704,47,9,-57,-21,-17,-8,-6,75
1509433295513704,-46,10,-29,-7,13,6,1,-33
1509433295514686,34,59,19,30,-3,3,5,42
1509433295514686,-10,-10,28,0,14,4,9,-5
1509433295536727,-6,0,8,-25,-12,-4,-5,-22
1509433295536727,5,-21,-20,-1,-10,-6,0,11
1509433295537706,-9,-29,-79,-17,-18,-16,-23,-29
1509433295537706,22,12,-5,-5,-12,-1,21,36
1509433295550734,-9,33,115,54,22,14,12,14
1509433295550734,14,-72,-84,-42,-11,-9,-9,-38
1509433295559723,14,25,29,10,2,1,17,82
1509433295559723,-15,15,40,-12,3,5,-6,-17
1509433295573751,-20,9,-16,-3,0,-10,-14,-81
1509433295573751,46,33,100,26,0,5,1,81
1509433295575733,-17,-79,-15,3,2,-1,1,-13
1509433295575733,43,-10,-68,7,3,4,4,85
1509433295596761,42,49,32,-24,-5,0,5,31
1509433295596761,-35,-37,12,20,2,1,-2,18
1509433295598747,-19,-71,-23,-20,-7,-12,-24,-54
1509433295598747,-36,-43,-50,-4,-3,-2,1,11
1509433295609764,47,-43,-73,-17,-8,-12,-4,-26
1509433295609764,0,53,-6,-23,1,3,7,1
1509433295618777,-1,-35,-40,12,10,7,6,16
1509433295618777,-22,-6,26,10,-6,-11,-20,-73
1509433295633835,-20,-26,30,9,4,3,-9,4
1509433295633835,-40,28,-78,-22,-17,-11,-9,-48
1509433295635785,7,3,26,12,12,4,5,16
1509433295635785,-41,40,22,6,-3,-3,-21,-77
1509433295656796,-18,-24,-70,5,1,4,2,19
1509433295656796,110,74,109,15,9,7,13,2
1509433295657798,-49,-14,-61,-13,1,-3,-13,-11
1509433295657798,35,12,-13,21,2,1,-10,-41
1509433295669809,-42,7,-14,-18,-9,-1,-7,9
1509433295669809,-18,8,46,0,8,4,12,8
1509433295678820,37,28,45,19,-8,-8,1,39
1509433295678820,-7,0,-23,-51,2,-2,-29,-28
1509433295693871,21,23,8,36,-9,-6,-1,8
1509433295693871,-16,-75,38,-9,14,4,-8,-71
1509433295696825,-16,63,-30,-24,-8,0,0,16
1509433295696825,28,-64,-44,10,2,2,15,-12
1509433295716843,30,29,52,3,-3,-9,-8,-20
1509433295716843,-15,65,35,51,2,-1,2,-10
1509433295730849,-30,18,29,-13,5,10,23,46
1509433295730849,-19,-29,-81,-23,-8,-7,-8,-70
1509433295731839,34,-24,-22,-11,-5,-3,5,82
1509433295731839,-24,-25,-16,2,-3,1,3,26
1509433295738845,54,48,-18,1,1,-3,-10,-57
1509433295738845,-18,-7,37,3,-6,0,3,58
1509433295754868,5,-26,34,13,9,1,6,-4
1509433295754868,-6,14,-51,-1,-1,4,1,24
1509433295759860,48,-5,10,6,1,-1,-3,-38
1509433295759860,7,5,41,17,2,5,14,74
1509433295776872,-37,-10,-54,-38,-7,-8,-12,-63
1509433295776872,-10,-4,8,1,-5,-4,-5,23
1509433295777878,7,-11,19,1,10,11,7,34
1509433295777878,9,7,36,18,2,0,5,-53
1509433295789903,-9,-32,-32,13,-2,-2,-14,5
1509433295789903,-1,52,3,-11,-4,3,22,9
1509433295798899,21,-15,16,-22,-5,0,-2,30
1509433295798899,-1,37,7,30,-2,-2,11,75
1509433295813920,-13,-14,-20,-16,5,5,-4,-7
1509433295813920,-16,-31,-75,-29,-8,-9,-2,60
1509433295815904,-2,-20,-6,12,-4,-5,-11,-25
1509433295815904,2,36,22,2,4,4,2,54
1509433295836916,18,-8,23,1,-7,-4,-7,-52
1509433295836916,7,-47,-17,1,-1,-3,-1,3
1509433295837916,9,31,-19,4,5,2,8,6
1509433295837916,-36,-18,-17,-18,-9,-7,-10,-30
1509433295849937,-38,6,16,1,4,4,0,7
1509433295849937,10,-2,32,14,2,4,11,-3
1509433295858931,35,36,5,-2,4,5,21,66
1509433295858931,-29,-55,-71,-15,-6,-10,-24,-89
1509433295873950,-24,-4,50,-3,4,2,3,22
1509433295873950,18,-18,17,1,-4,-4,-12,13
1509433295875946,-13,-24,-10,2,-6,-4,-11,-36
1509433295875946,-11,38,7,20,13,12,23,38
1509433295896979,35,-14,-19,-2,-1,-1,-2,-2
1509433295896979,-28,2,-65,-21,-13,-6,-15,-51
1509433295897958,-10,-59,-13,26,4,-6,-1,-12
1509433295897958,6,28,35,-27,3,3,14,30
1509433295909988,-23,-52,-19,-12,-3,-2,-1,-21
1509433295909988,-8,42,1,4,0,-2,0,34
1509433295918995,-13,-25,4,-5,-11,-9,-29,-80
1509433295918995,-12,-14,12,-8,8,5,5,27
1509433295933986,10,42,14,21,6,3,10,21
1509433295933986,8,-48,-10,-13,-8,-9,-25,-84
1509433295935994,-29,61,-4,1,-7,-5,3,-2
1509433295935994,13,5,4,-4,-2,0,-3,-3
1509433295957009,-35,-62,-25,-6,-4,0,-1,9
1509433295957009,18,5,-18,-14,0,-4,-7,0
1509433295958010,-10,11,10,-6,0,1,-3,15
1509433295958010,-4,36,16,6,-2,0,3,4
1509433295970020,8,-6,31,12,0,-3,2,-15
1509433295970020,25,5,-55,-17,-5,-3,5,46
1509433295979017,-39,-11,35,11,5,-1,-5,-45
1509433295979017,24,34,17,-6,-6,-6,0,7
1509433295994064,6,-21,-20,-6,-6,-4,-9,-17
1509433295994064,-2,8,75,26,5,4,7,-21
1509433295997037,21,-29,-74,-30,-1,0,1,15
1509433295997037,10,-38,-6,0,-8,-7,-8,31
1509433296016064,-26,8,-35,-6,-4,-5,-9,-37
1509433296016064,-19,-43,0,-7,-1,0,-3,25
1509433296018042,6,67,27,12,4,1,8,23
1509433296018042,18,-25,33,18,4,0,-1,1
1509433296039068,-7,-1,10,-18,-12,-7,3,14
1509433296039068,40,6,21,11,7,3,-7,13
1509433296041074,-4,14,17,5,1,2,-2,-39
1509433296041074,-15,4,-24,-13,1,4,6,1
1509433296055083,14,38,30,7,-2,-2,7,35
1509433296055083,-52,48,15,8,0,0,-3,-38
1509433296056070,3,-34,-2,-1,-3,-3,1,2
1509433296056070,-15,16,0,-8,3,1,-2,-8
1509433296076094,9,-51,-3,-1,-3,1,-5,-24
1509433296076094,0,-34,-40,-3,-4,-5,2,12
1509433296078085,-7,19,26,-29,-4,-4,-4,0
1509433296078085,-18,-14,4,18,5,2,-2,-9
1509433296090107,-33,19,-49,-14,-3,-1,-3,-1
1509433296090107,35,13,67,8,-2,-2,1,-23
1509433296107118,4,-26,-12,9,3,-1,-1,0
1509433296107118,-7,31,-2,-8,-4,-1,-4,2
1509433296114111,3,5,37,11,5,2,3,6
1509433296114111,-18,-4,3,-14,-8,-4,-3,9
1509433296115111,-7,-27,-47,2,2,1,-4,-18
1509433296115111,14,11,0,-1,1,3,8,14
1509433296137128,27,-2,43,21,1,1,-1,5
1509433296137128,-7,18,-18,-20,1,1,2,-7
1509433296138127,-22,-14,64,-9,0,-1,-5,-21
1509433296138127,-1,-8,-4,40,2,-1,1,1
1509433296159143,1,14,1,-40,0,-3,-2,5
1509433296159143,-26,5,-16,-12,-10,-7,-3,1
1509433296160143,12,33,15,12,5,5,7,59
1509433296160143,-4,5,8,4,0,2,2,0
1509433296174153,-1,-53,15,4,-11,-10,-10,10
1509433296174153,-24,0,-14,-21,-1,-1,-2,-63
1509433296175154,14,9,6,8,3,0,4,6
1509433296175154,10,-4,-32,-2,-4,-2,-4,-10
1509433296196185,0,67,-22,-7,-7,-4,-2,-2
1509433296196185,-24,-67,-13,0,0,1,5,35
1509433296198188,17,32,20,10,-1,-1,1,-6
1509433296198188,-28,-18,-60,-13,-4,-3,0,46
1509433296219200,2,-12,2,-7,1,0,-17,-96
1509433296219200,29,34,24,3,-1,1,-3,12
1509433296220197,-5,12,-14,5,0,-1,-8,-42
1509433296220197,-25,-54,-29,-23,-8,-3,0,-6
1509433296234211,23,45,-11,-1,0,0,2,20
1509433296234211,13,0,23,16,-1,-3,-5,-3
1509433296235206,-1,8,-25,6,1,0,0,-4
1509433296235206,25,35,29,-20,-3,-2,1,7
1509433296256225,17,25,17,20,3,2,2,3
1509433296256225,-33,10,11,17,-1,-2,-4,-17
1509433296258221,24,-58,5,-38,-5,-2,8,98
1509433296258221,-30,-65,-42,-1,-1,-2,-5,-31
1509433296279249,-6,4,-17,1,0,2,-2,-7
1509433296279249,9,4,-10,6,-1,-1,7,22
1509433296280245,-10,41,30,8,2,-1,-11,-6
1509433296280245,18,16,9,-2,1,0,4,-15
1509433296294253,-10,2,-2,1,-5,-3,5,38
1509433296294253,-2,16,8,-1,5,4,-8,-27
1509433296296239,-3,-44,-47,-9,-4,-3,2,-1
1509433296296239,8,20,41,5,0,-3,-14,-50
1509433296316265,-6,51,23,8,1,-1,-2,5
1509433296316265,7,-10,-50,1,-3,1,6,22
1509433296325271,-10,34,-7,-7,-3,0,-2,-22
1509433296325271,-32,4,33,0,-1,-1,-5,-15
1509433296339270,37,32,26,0,-2,0,4,27
1509433296339270,-2,30,50,-1,-1,4,-1,5
1509433296340271,-17,-59,-3,10,6,-1,0,32
1509433296340271,14,-15,-68,-6,-1,-4,-11,-21
1509433296353295,-39,-17,-26,-2,3,5,8,-28
1509433296353295,59,-32,6,3,8,-4,-10,7
1509433296360299,13,39,20,10,-5,1,2,-59
1509433296360299,-6,-34,-7,-16,-15,-9,-12,-11
1509433296376306,-3,-6,-12,-3,0,-1,-1,13
1509433296376306,-10,-5,-21,-8,-2,-1,3,28
1509433296378318,16,27,-16,6,5,0,3,-11
1509433296378318,24,34,31,7,1,2,4,19
1509433296399321,-4,5,-28,3,-5,-1,-4,-21
1509433296399321,7,6,-10,-2,1,1,4,15
1509433296400337,0,92,4,-1,-2,-1,8,37
1509433296400337,-32,-51,23,3,2,2,-11,-48
1509433296413334,37,34,53,4,0,1,4,-5
1509433296413334,-30,-4,-1,-8,-6,-7,-10,0
1509433296427351,7,17,21,-14,-5,-4,-9,-32
1509433296427351,-3,-41,4,20,5,-2,8,30
1509433296436354,6,50,14,-6,5,2,3,6
1509433296436354,-1,-47,-16,9,0,1,-1,-9
1509433296438343,-8,58,62,-11,-3,-1,-3,-31
1509433296438343,11,-17,13,-3,-4,0,7,56
1509433296459369,-39,-39,-38,-5,-2,-9,-9,-22
1509433296459369,1,-6,-27,-12,-1,1,13,36
1509433296460366,-8,-27,-15,1,-2,-4,-4,10
1509433296460366,30,63,-9,12,3,3,6,37
1509433296473374,-34,-22,-23,-29,-17,-10,-12,-51
1509433296473374,1,35,21,6,2,1,3,16
1509433296480392,-9,-79,-51,-1,5,1,8,7
1509433296480392,2,26,-4,-26,-6,-5,-8,-14
1509433296496381,8,-51,-13,10,7,-1,-3,7
1509433296496381,-29,-9,-80,-3,-7,-8,-8,-37
1509433296498383,-4,-36,21,1,-2,2,8,20
1509433296498383,28,18,-14,1,-2,1,-13,-53
1509433296519405,8,-46,-26,5,4,3,8,36
1509433296519405,24,75,40,-1,5,0,2,20
1509433296520399,7,-29,-13,14,2,0,-3,4
1509433296520399,27,-17,-48,-23,-11,-2,6,-12
1509433296533465,-7,25,29,15,8,4,2,26
1509433296533465,-7,6,-4,-4,-3,-2,-1,2
1509433296547427,-17,-8,38,-4,-4,-4,-9,-55
1509433296547427,-13,33,22,2,2,2,8,18
1509433296556436,19,-52,-30,-8,-12,-5,-7,-17
1509433296556436,-9,-21,12,0,-2,0,3,-11
1509433296558431,7,-20,-5,2,4,3,2,15
1509433296558431,-31,-23,-6,-2,1,-3,0,18
1509433296579465,6,19,-12,-10,-7,-1,-3,-12
1509433296579465,-11,-25,24,-2,1,0,-5,-12
1509433296580447,-5,3,-56,-5,-5,-3,0,-7
1509433296580447,49,7,42,16,10,7,2,13
1509433296601469,17,49,-18,-5,-10,-4,6,37
1509433296601469,-35,-40,1,-8,-6,-5,-5,11
1509433296603469,7,-11,-19,5,5,-2,-1,-18
1509433296603469,5,-54,-30,-8,-2,-3,3,17
1509433296616491,-48,1,10,13,4,4,-6,-37
1509433296616491,22,-6,4,-22,-12,-8,-7,-10
1509433296618468,-27,-10,6,6,-1,1,2,31
1509433296618468,3,4,-4,8,0,-4,-7,-18
1509433296639508,16,-23,-4,-18,-2,0,2,0
1509433296639508,-1,69,36,11,3,0,3,-20
1509433296645516,0,20,-26,-10,1,2,3,22
1509433296645516,-2,11,-29,1,-2,-1,1,50
1509433296652504,-6,-28,-22,-8,-5,-4,-3,-7
1509433296652504,-2,29,16,11,5,2,3,5
1509433296661499,-4,-10,42,5,5,2,-4,-41
1509433296661499,-5,19,-14,0,-1,-1,4,4
1509433296676526,-18,12,35,6,1,-1,-2,16
1509433296676526,24,6,4,-1,-2,-2,-6,-4
1509433296678512,-32,-14,-27,-7,-3,-2,3,7
1509433296678512,1,29,6,4,4,2,1,-14
1509433296699536,-43,-90,-50,-3,-4,-2,-1,28
1509433296699536,25,-15,-17,-8,-4,-4,-8,-18
1509433296700528,8,-4,12,-6,1,-1,-3,-27
1509433296700528,-15,4,-6,5,5,1,3,-10
1509433296712551,18,23,69,-1,-3,-5,-3,33
1509433296712551,-20,-9,-15,-1,-6,-2,-6,-26
1509433296721554,25,26,-11,-1,-5,-2,-1,32
1509433296721554,-10,27,24,11,2,0,-14,-60
1509433296736561,-8,55,1,1,-3,-3,-2,-4
1509433296736561,-20,-68,-51,-21,-5,-2,-7,-5
1509433296738568,8,13,7,-4,-2,-3,7,-22
1509433296738568,-32,1,13,-5,-6,-1,-1,17
1509433296759577,38,52,55,27,8,7,6,10
1509433296759577,-34,-47,-47,-17,-5,-8,-7,-20
1509433296760567,3,12,-9,0,-1,-1,0,11
1509433296760567,21,0,15,-2,-4,-2,-1,2
1509433296772588,15,4,-17,-5,-4,-4,-2,-10
1509433296772588,-12,42,35,14,8,4,6,11
1509433296781583,-23,-41,21,-6,-4,-2,-8,-4
1509433296781583,31,-35,16,-2,-2,-1,1,6
1509433296796603,-5,-30,-53,-11,2,2,3,24
1509433296796603,-26,-13,36,4,-4,-1,-11,-78
1509433296798594,5,-11,-12,3,1,2,-1,13
1509433296798594,-14,59,49,8,2,0,3,1
1509433296818633,1,-72,-53,-13,-7,-1,-4,-5
1509433296818633,-19,-22,2,-5,-1,2,6,25
1509433296820615,23,11,7,6,-3,-4,-10,-14
1509433296820615,-9,-18,-34,-15,-1,-2,3,14
1509433296832646,14,-2,20,5,3,-1,2,5
1509433296832646,-18,-41,-53,-15,-7,-5,1,41
1509433296841639,34,-9,-21,-3,-2,-2,0,-23
1509433296841639,-28,85,45,5,-1,2,8,31
1509433296856649,-3,-62,-36,-8,-7,-5,-13,-32
1509433296856649,-5,16,31,8,4,1,4,25
1509433296857650,13,19,6,4,2,0,-3,-17
1509433296857650,0,-15,-15,-8,-4,-2,1,6
1509433296879662,-15,38,30,2,1,-2,-6,-18
1509433296879662,13,33,23,5,0,0,-2,2
1509433296880653,-8,-30,-13,-1,1,1,0,2
1509433296880653,12,33,31,-3,-3,0,4,10
1509433296892686,-13,-52,-39,-3,-4,-5,-10,-19
1509433296892686,6,-33,-12,-9,-5,-1,3,19
1509433296901667,-14,20,-10,-2,-2,-3,3,15
1509433296901667,-11,-40,-23,-4,1,-1,-6,-20
1509433296916695,35,52,41,3,1,1,17,15
1509433296916695,-1,3,-9,-3,-3,-2,-3,-14
1509433296917698,-13,-8,-25,1,2,1,1,9
1509433296917698,-14,-41,-14,-4,-5,-3,-2,0
1509433296938704,-16,29,0,4,1,2,0,2
1509433296938704,49,7,-8,-10,-3,-3,-7,-35
1509433296940695,0,5,-4,-4,0,-1,7,50
1509433296940695,-25,-42,-35,-5,-5,-8,-22,-88
1509433296952716,5,11,25,14,0,0,1,-6
1509433296952716,13,83,42,16,7,3,2,9
1509433296961712,-10,-79,-27,-16,-2,0,-4,-15
1509433296961712,2,22,10,6,3,3,4,23
1509433296982746,-7,3,7,-4,-7,-4,-9,-9
1509433296982746,-26,-59,-23,0,0,1,-5,-26
1509433296991732,-7,30,12,5,-3,-3,-4,0
1509433296991732,20,-25,-32,-7,-2,0,3,11
1509433296998746,-26,-9,3,-6,-4,-3,-2,-11
1509433296998746,52,7,19,12,5,2,7,46
1509433297000738,-10,30,39,8,5,1,-2,-46
1509433297000738,-8,-28,-47,-3,-2,-3,-2,3
1509433297012757,-2,-18,6,-7,-1,3,-1,12
1509433297012757,-10,9,6,3,0,0,1,-2
1509433297021752,8,19,12,-1,-3,-1,1,16
1509433297021752,8,-11,-37,-5,-3,-1,2,13
1509433297043791,-2,-20,-2,5,1,0,-9,-50
1509433297043791,-15,-8,13,5,1,-1,0,-1
1509433297045771,13,19,1,3,-2,1,1,21
1509433297045771,3,17,15,-2,2,1,2,0
1509433297058793,-8,-12,-21,-2,2,-3,-3,37
1509433297058793,-1,17,1,-7,-8,-1,-5,-34
1509433297060780,-1,5,-16,0,3,0,17,41
1509433297060780,24,22,-29,-4,-3,-4,-11,-8
1509433297072793,-2,26,20,1,-1,2,1,20
1509433297072793,18,33,5,4,-1,-3,8,41
1509433297081795,6,11,29,-7,1,4,4,47
1509433297081795,-13,4,34,-3,-11,-10,-9,-70
1509433297096816,-10,31,-28,-1,4,5,-3,0
1509433297096816,-16,-13,12,-2,-2,-4,-16,-53
1509433297097818,7,-5,-18,0,-3,-1,-4,-18
1509433297097818,-4,3,21,8,0,1,6,30
1509433297118844,9,27,17,-6,-5,-4,1,22
1509433297118844,-9,9,19,5,6,1,2,-10
1509433297120823,-19,-34,10,-10,-5,-4,-1,-3
1509433297120823,-1,-24,-24,0,0,0,-6,-12
1509433297141861,0,-23,27,5,-5,-4,-1,-17
1509433297141861,-7,-26,-47,-7,-2,-2,1,26
1509433297142848,-2,7,10,2,-1,-2,-1,-18
1509433297142848,-17,-10,4,2,0,1,5,17
1509433297156858,7,-17,6,-3,-2,2,2,0
1509433297156858,-17,-11,30,6,5,-1,-3,-18
1509433297157854,5,-8,-77,-6,-2,-1,-5,-2
1509433297157854,-8,-26,5,-4,1,-1,1,-3
1509433297178886,5,0,-3,1,0,-4,-5,-3
1509433297178886,0,44,38,11,-1,2,8,28
1509433297180890,-18,-22,-64,-14,-7,-7,-13,-33
1509433297180890,34,18,16,-16,-3,-2,-12,-38
1509433297201890,-3,-6,1,5,6,2,0,22
1509433297201890,-8,-1,-23,-8,-6,-5,-12,-37
1509433297202882,-25,16,32,9,3,3,5,10
1509433297202882,36,3,-15,13,6,6,7,12
1509433297216918,-16,20,11,-10,-3,-3,-2,24
1509433297216918,9,-13,-3,5,4,3,4,-2
1509433297217910,6,-33,9,9,5,1,-4,-23
1509433297217910,-23,5,-4,-13,-8,-6,2,14
1509433297238920,8,-3,-15,-5,-6,-3,1,-19
1509433297238920,-11,5,-6,11,3,2,11,69
1509433297240940,13,-35,-14,3,1,-1,-4,-28
1509433297240940,31,5,-50,-22,-6,-1,4,25
1509433297261924,-42,-56,-15,2,0,-5,-14,-47
1509433297261924,-8,15,-7,-7,-4,-3,-2,-6
1509433297262925,-3,26,19,9,3,0,-3,7
1509433297262925,-29,-9,18,11,3,4,1,2
1509433297276952,-6,0,-19,-12,-8,-2,3,15
1509433297276952,5,9,29,-3,0,-1,-4,-12
1509433297277935,7,24,21,8,3,2,-2,-11
1509433297277935,-9,-23,-14,-7,-1,-2,4,65
1509433297298959,0,27,42,-4,-4,0,-12,-63
1509433297298959,17,-11,-6,5,1,0,3,5
1509433297300960,3,2,9,-3,-6,-3,0,19
1509433297300960,-1,24,44,-4,8,3,6,2
1509433297321975,32,5,-48,3,0,0,-2,5
1509433297321975,-25,-83,-25,-15,-6,-3,-5,-26
1509433297322976,22,-8,-14,0,1,0,3,6
1509433297322976,-15,-8,15,1,-6,-5,-8,-23
1509433297335998,23,33,13,-2,-2,-1,7,22
1509433297335998,-27,-9,1,2,4,0,0,-16
1509433297343003,19,-14,-24,-8,-3,-1,4,20
1509433297343003,-14,7,11,19,4,3,0,-20
1509433297359005,18,14,7,0,1,-1,0,-30
1509433297359005,1,-58,-37,-10,-7,-5,-2,11
1509433297360994,5,23,24,1,2,-1,-2,-9
1509433297360994,-8,-11,-8,-7,-6,-2,-1,5
1509433297382040,-10,19,-2,18,5,1,4,12
1509433297382040,1,-54,-25,-7,0,1,-3,-7
1509433297383010,-8,16,-6,-7,-2,-6,-1,-11
1509433297383010,-7,1,-1,7,0,0,2,3
1509433297396019,5,4,7,0,-3,-2,0,6
1509433297396019,3,33,32,9,4,4,4,3
1509433297403029,-4,-9,-37,-12,-5,-2,-4,3
1509433297403029,-13,23,8,-2,0,0,-4,4
1509433297426056,3,-20,15,-3,-4,-4,-4,-12
1509433297426056,37,25,-5,2,-1,0,7,22
1509433297428043,-27,-11,26,-11,-2,-1,1,17
1509433297428043,-8,14,-10,0,-3,-1,-3,-21
1509433297441050,-8,-35,-22,-4,-2,-1,2,12
1509433297441050,-6,28,7,-1,-3,-3,-6,-17
1509433297443051,-3,-1,-5,4,-1,0,5,21
1509433297443051,13,23,-1,7,7,1,1,5
1509433297456080,4,-13,37,-7,-1,-2,1,25
1509433297456080,-10,-4,-27,-3,-4,-5,-2,-21
1509433297463082,-3,-5,-5,0,1,-1,-2,-11
1509433297463082,-13,2,10,0,0,-1,-4,-15
1509433297479111,-2,11,2,0,-2,-1,0,9
1509433297479111,24,24,23,6,3,2,3,38
1509433297481095,-24,-18,16,-3,-4,-4,-20,-91
1509433297481095,-7,-56,-26,-13,-5,-5,-7,-19
1509433297501104,-2,0,-4,0,0,-2,-1,-5
1509433297501104,7,11,2,-4,-3,-2,-1,3
1509433297503093,-3,29,22,12,6,3,0,6
1509433297503093,16,-6,19,5,-1,-1,13,32
1509433297516123,-33,-8,-12,-4,1,2,-3,1
1509433297516123,52,9,9,0,-2,-2,17,88
1509433297523118,-24,-15,-16,0,1,0,-2,55
1509433297523118,14,23,9,0,-1,1,14,75
1509433297539129,-41,-40,-8,-1,-3,-1,-14,-27
1509433297539129,29,27,-18,1,1,-3,-14,-47
1509433297541130,-4,-8,8,-22,-5,-3,1,15
1509433297541130,58,-13,-19,-1,-6,-2,-2,-3
1509433297561136,6,42,19,4,2,1,4,11
1509433297561136,-41,-20,7,-3,-2,-1,-6,-27
1509433297563136,10,-13,-57,2,4,3,3,0
1509433297563136,-36,2,8,-2,-3,-4,-11,-35
1509433297576155,51,55,15,2,-1,-1,1,-1
1509433297576155,-20,-60,-25,-9,-7,-1,-3,-4
1509433297582235,-15,26,0,6,6,-1,4,-6
1509433297582235,30,26,26,3,1,1,3,5
1509433297599225,-3,-34,-31,-3,-2,-1,-1,-5
1509433297599225,-30,12,13,-9,-6,-4,-2,3
1509433297600226,0,2,5,2,-3,-1,-3,0
1509433297600226,-2,-14,-19,3,-2,-1,-8,-17
1509433297621256,4,-6,-2,-3,-2,-3,-1,4
1509433297621256,-14,15,12,3,3,3,-1,-16
1509433297623244,15,17,17,3,-3,-2,5,44
1509433297623244,-13,-18,-34,-6,-3,-5,-15,-38
1509433297635273,-4,6,1,-11,-6,-3,0,2
1509433297635273,-9,33,-9,9,3,-2,2,-3
1509433297644257,-20,-39,29,-18,-6,-4,-4,-16
1509433297644257,-2,4,12,2,3,0,-1,15
1509433297659324,-8,-17,2,0,-4,-2,-6,-38
1509433297659324,-6,12,-3,4,2,1,-2,-9
1509433297660313,2,-14,-17,6,3,1,-3,-1
1509433297660313,-17,-3,-11,-6,-3,-1,-5,-6
1509433297681331,-8,-6,5,1,-2,-1,-3,-2
1509433297681331,-4,-19,16,-4,-1,1,-3,1
1509433297683332,17,5,-12,-3,-4,-4,4,-7
1509433297683332,-11,-4,-9,-2,-3,-1,2,15
1509433297695394,-17,-17,7,-1,-2,0,4,22
1509433297695394,10,34,4,4,4,2,-4,-25
1509433297704351,5,14,-9,6,0,0,-4,-23
1509433297704351,27,26,46,-14,-3,-1,0,8
1509433297719364,-22,-23,-38,-9,-5,-5,-3,-8
1509433297719364,1,9,16,-2,1,-1,2,21
1509433297720365,15,-17,-20,1,0,1,-1,-9
1509433297720365,1,10,3,10,3,1,3,-3
1509433297741374,1,27,19,0,-2,-1,-8,2
1509433297741374,-1,-30,-13,-13,-4,-4,2,8
1509433297743375,12,30,7,8,3,0,4,22
1509433297743375,-28,-42,-22,-3,-2,1,-8,-31
1509433297755384,-3,-6,-5,-2,-1,-1,11,7
1509433297755384,-4,9,4,2,-1,-3,-8,-6
1509433297764390,-3,-12,0,-2,-3,-1,0,4
1509433297764390,-12,-6,-9,-8,-4,-1,-1,17
1509433297779458,-9,-22,-18,-4,-1,-2,1,4
1509433297779458,13,6,10,-4,-3,-1,-3,-11
1509433297780420,0,45,6,5,2,0,3,-2
1509433297780420,-6,-11,12,10,3,2,0,1
1509433297801426,79,-20,-10,-5,2,1,1,1
1509433297801426,-48,-14,-11,-7,-3,-1,4,31
1509433297803427,0,-25,-5,-9,-3,-1,-2,-37
1509433297803427,11,6,-14,4,2,-2,-7,-31
1509433297815493,-12,15,22,8,0,-1,-2,16
1509433297815493,27,4,1,3,0,2,-1,-5
1509433297824436,3,-14,-11,1,-2,0,-3,-3
1509433297824436,-11,4,-4,-4,-3,-2,-1,5
1509433297839443,-13,13,1,1,-1,-1,-5,-12
1509433297839443,17,-66,-33,-5,-2,-1,2,3
1509433297840455,-22,8,9,-2,-1,-1,2,28
1509433297840455,-3,23,18,6,0,0,2,2
1509433297861462,-8,-37,-42,-14,-7,-3,-9,-18
1509433297861462,-30,-5,-3,2,1,-1,1,-6
1509433297863463,28,-4,-5,-3,-1,2,2,5
1509433297863463,-18,-7,8,-3,-3,-2,-2,36
1509433297875469,4,54,23,9,3,0,-1,-9
1509433297875469,-15,-3,-10,0,-3,-4,-3,-14
1509433297884473,-5,-3,14,-5,-1,-2,-2,-10
1509433297884473,12,16,-10,2,-1,-1,-1,-6
1509433297899486,-36,-28,5,-4,-4,-2,5,32
1509433297899486,10,35,24,7,2,0,-4,-33
1509433297900486,10,-20,-11,1,1,-2,1,8
1509433297900486,-6,-2,1,0,-3,0,-1,-2
1509433297921510,12,1,0,-5,-3,-3,1,-16
1509433297921510,7,-6,-1,3,5,3,10,48
1509433297923505,4,20,23,-3,-2,-3,-13,-46
1509433297923505,-5,17,-19,-2,-1,-1,-3,-12
1509433297935525,39,-36,-11,-8,-3,-1,-2,1
1509433297935525,4,15,-14,-3,-1,-1,3,12
1509433297944521,3,20,11,3,2,1,5,22
1509433297944521,1,25,13,-1,-4,-3,-4,-17
1509433297958527,-13,16,-13,-4,0,0,-2,9
1509433297958527,18,-12,3,-2,-1,-2,-3,-13
1509433297960529,-14,-10,-8,3,0,1,-1,6
1509433297960529,7,-2,7,2,1,2,2,-2
1509433297981564,-8,4,11,-3,-1,0,-1,-5
1509433297981564,-5,-3,1,2,-1,-3,-5,-10
1509433297983564,-12,-1,-9,-1,-3,-1,-2,-12
1509433297983564,-8,-18,-11,-11,0,1,2,8
1509433297995552,7,6,-4,-4,-5,-3,-2,2
1509433297995552,1,-2,8,0,-1,0,-4,-5
1509433298004562,-9,8,-1,4,1,-2,-4,-12
1509433298004562,-4,-15,-1,4,-1,-1,3,15
1509433298018567,1,-6,11,2,0,-1,-7,-13
1509433298018567,-6,42,18,-1,1,1,8,18
1509433298020568,4,-25,-24,-1,-1,1,-13,-62
1509433298020568,-10,9,8,1,-1,1,2,-2
1509433298041583,-9,9,2,-1,-2,-2,0,0
1509433298041583,-14,-16,-11,-3,-1,-1,-6,-8
1509433298043585,30,-5,8,-2,1,-2,2,11
1509433298043585,-1,-1,-9,-6,-7,-4,-2,-4
1509433298063617,-1,14,7,5,1,0,3,20
1509433298063617,31,-2,-13,2,0,-1,-5,-12
1509433298065602,-46,-9,-2,-10,-1,0,11,32
1509433298065602,15,-59,-31,-2,-2,-2,-2,0
1509433298078627,-1,14,17,3,1,0,-4,-11
1509433298078627,14,-1,-10,-3,-3,-3,4,12
1509433298080616,-1,3,-17,1,-1,-1,-8,-44
1509433298080616,5,5,4,1,1,-2,-3,0
1509433298101628,-2,-16,-4,-2,-3,-1,0,15
1509433298101628,-13,-16,-1,-3,-3,-4,-5,-11
1509433298102628,8,10,10,3,3,3,6,11
1509433298102628,-6,10,19,-2,-2,-4,-2,-37
1509433298123649,-16,5,-5,0,-2,-2,-2,-4
1509433298123649,0,-20,-21,-6,-1,1,4,19
1509433298125650,2,23,6,2,-2,1,11,41
1509433298125650,29,-5,-3,-1,-2,-2,-10,-21
1509433298138683,1,-7,31,-1,-2,-3,-5,-16
1509433298138683,-8,-32,-4,-9,-3,0,4,-3
1509433298140661,-6,-3,-1,4,1,-1,-4,16
1509433298140661,-9,6,-10,0,-1,1,-1,13
1509433298161676,4,21,14,3,0,1,2,5
1509433298161676,-22,-2,-9,-6,-1,-5,-7,-20
1509433298163677,31,-9,-19,-6,-3,-3,6,37
1509433298163677,-18,-5,1,-3,-2,-3,-3,-13
1509433298183687,17,-9,-15,-1,-1,-1,3,40
1509433298183687,-37,12,9,-1,-2,0,-5,-21
1509433298185688,3,3,1,2,0,-1,-1,4
1509433298185688,5,3,-5,-5,-4,-2,-5,3
1509433298198697,-1,16,14,-1,0,-1,-7,-5
1509433298198697,12,12,-7,4,1,2,2,4
1509433298200698,-9,-36,-5,-6,-6,-4,-8,-17
1509433298200698,-6,-6,-7,-4,-2,-1,-3,1
1509433298221710,-9,22,18,3,0,1,1,5
1509433298221710,16,-22,1,1,2,-1,2,0
1509433298222725,-12,8,-10,-4,-1,0,-5,-20
1509433298222725,-8,-16,5,1,-2,0,6,37
1509433298243743,-1,-14,-33,-2,0,-1,-2,-22
1509433298243743,9,28,16,3,-2,0,-4,-7
1509433298245729,2,-3,-2,-2,0,0,2,2
1509433298245729,-12,11,15,0,-1,1,1,3
1509433298258738,-7,-16,-19,-4,-3,-2,-2,-13
1509433298258738,1,9,7,5,3,0,-2,-7
1509433298264753,11,4,-6,-4,-2,-1,2,1
1509433298264753,1,14,10,6,1,1,4,13
1509433298281765,32,-26,-16,-6,-5,-2,-3,-19
1509433298281765,0,-25,-14,-4,-2,-2,4,21
1509433298282766,-10,10,5,1,1,1,0,-2
1509433298282766,8,1,-3,0,-2,-2,-3,-5
1509433298303785,-10,-4,2,1,-1,-2,0,2
1509433298303785,-1,7,3,2,3,1,1,-6
1509433298305771,-27,-10,5,-2,-2,-2,6,8
1509433298305771,13,8,3,-2,-2,-2,3,30
1509433298318791,-9,0,10,2,0,-2,-3,-1
1509433298318791,3,1,-9,-3,-2,-1,-1,1
1509433298324783,1,14,1,1,0,1,-3,-10
1509433298324783,-9,-20,-5,-5,-3,-3,1,-1
1509433298341835,-11,1,8,0,-1,1,0,-5
1509433298341835,2,6,2,0,-1,0,-4,-8
1509433298342805,9,6,-5,-4,-4,0,2,24
1509433298342805,-8,4,-1,11,-1,0,-7,-46
1509433298364827,-3,-30,-8,-7,-2,-3,-1,-2
1509433298364827,-7,-1,11,-2,3,-1,-3,-3
1509433298369830,6,-12,-7,10,0,-2,-2,2
1509433298369830,-6,-13,-21,-22,1,0,-2,-4
1509433298386840,-7,9,9,0,-3,-2,-2,-8
1509433298386840,6,7,-1,1,-2,-2,0,1
1509433298387833,-1,-3,3,0,4,-1,-3,-6
1509433298387833,-2,4,4,8,1,-1,-1,-1
1509433298401843,-3,5,3,3,2,-1,0,1
1509433298401843,0,-5,-2,-1,-2,-2,1,3
1509433298402843,9,7,-3,1,-2,-3,-4,-4
1509433298402843,-11,-1,3,4,-2,-2,-1,-1
1509433298423858,3,8,0,-4,2,-2,-1,-1
1509433298423858,-3,-3,-4,-5,1,1,-1,-3
1509433298425875,1,3,0,-17,-6,0,1,-7
1509433298425875,-3,-9,-8,-4,-1,-1,-2,0
1509433298438865,-7,6,3,4,-3,-2,-2,0
1509433298438865,2,-4,-10,6,-1,-2,-3,10
1509433298444884,2,0,4,3,1,1,0,-15
1509433298444884,-3,-1,7,0,-3,-3,-1,0
1509433298461883,-5,-3,-6,2,-2,-1,0,-3
1509433298461883,3,-2,2,0,0,0,-3,-5
1509433298462884,-7,-3,-3,-5,0,-3,7,21
1509433298462884,0,2,-2,0,-2,-2,-8,-31
1509433298483931,0,1,0,-1,0,1,3,24
1509433298483931,-3,-1,-4,-3,1,3,1,10
1509433298485932,0,-5,-1,-3,-2,-4,-1,-40
1509433298485932,6,-3,-5,3,0,3,23,72
1509433298498908,-20,-7,0,-7,-5,-6,-32,-74
1509433298498908,3,-8,3,1,1,-1,-2,1
1509433298506920,-8,3,10,-1,0,0,6,17
1509433298506920,7,-14,-9,-9,-4,0,6,44
1509433298521924,-10,3,13,1,1,0,-8,-8
1509433298521924,7,26,2,0,-1,0,1,0
1509433298522925,1,-42,-9,0,-1,-1,-4,-3
1509433298522925,-8,-6,1,-3,0,0,-2,-12
1509433298543962,1,0,-11,0,-1,-1,7,17
1509433298543962,4,8,-1,0,0,-1,-2,-14
1509433298545941,1,4,2,4,0,-1,-1,8
1509433298545941,2,3,-5,0,-1,-1,-6,-20
1509433298557958,1,-4,-5,-3,-2,1,4,1
1509433298557958,2,9,15,-3,-1,-3,3,3
1509433298566967,0,9,-7,-1,-1,0,-3,4
1509433298566967,2,-1,8,-2,-3,-2,-6,-13
1509433298581978,1,-2,-1,-2,-1,-1,3,3
1509433298581978,-7,-14,-11,-3,0,0,2,1
1509433298582976,2,6,-5,-3,-2,1,-2,3
1509433298582976,-2,-1,2,0,-2,-3,-9,-21
1509433298604000,5,-4,0,0,-1,3,6,20
1509433298604000,-6,4,6,-2,-1,0,0,-10
1509433298605985,13,-5,-11,2,0,0,-1,4
1509433298605985,-2,-2,4,3,-2,-1,-4,-18
1509433298618009,-4,0,-1,-3,-1,-2,7,20
1509433298618009,7,-15,-11,-8,-2,-4,-7,-7
1509433298627013,-16,-1,8,4,2,-1,0,-1
1509433298627013,-6,3,-2,-4,-1,0,-2,-1
1509433298642009,2,1,3,0,-2,-3,-3,-3
1509433298642009,-10,6,0,5,1,-1,2,-1
1509433298643009,2,-1,-1,-2,-3,-2,-2,-2
1509433298643009,-1,-10,-16,-10,-6,-2,-3,-4
1509433298664049,-1,8,3,1,2,1,0,-2
1509433298664049,2,-4,-6,0,-2,0,-1,1
1509433298666031,-2,2,-1,-1,4,2,-1,1
1509433298666031,-2,-2,-2,2,0,1,-2,-4
1509433298678059,2,0,3,-2,-1,0,0,-6
1509433298678059,-1,15,9,6,0,-1,3,3
1509433298687057,-3,-1,3,2,1,-2,-2,-3
1509433298687057,-8,-8,-7,-9,-4,-2,-2,-4
1509433298701053,13,-5,0,0,-2,0,2,16
1509433298701053,-1,4,-4,1,0,-2,-7,-37
1509433298703055,-5,7,3,5,1,2,2,4
1509433298703055,-1,-1,11,0,-2,-2,-1,0
1509433298724069,-2,-3,-3,-2,-3,-2,-2,1
1509433298724069,7,-15,-10,-4,0,1,1,4
1509433298726073,-2,2,-1,-1,-2,-2,-5,0
1509433298726073,1,8,4,-1,-3,-2,-4,-3
1509433298738083,-7,0,0,2,-1,0,-2,-7
1509433298738083,-5,-7,-4,-2,-1,-1,1,6
1509433298747085,-3,0,-6,6,0,-3,0,-5
1509433298747085,1,0,-1,-10,-2,-2,-2,3
1509433298761120,-1,0,6,-2,1,-1,-2,-6
1509433298761120,-6,-1,-4,-2,-1,-2,1,0
1509433298763103,12,0,-13,-7,-1,1,1,8
1509433298763103,-6,-5,3,7,2,-1,-2,-4
1509433298784167,1,-1,1,2,-5,-2,-2,-6
1509433298784167,0,-1,-2,1,3,-2,2,8
1509433298786122,-3,-4,-12,-5,-2,-2,-2,-4
1509433298786122,0,-3,4,9,1,1,-1,-4
1509433298797119,-12,4,2,-8,-3,-1,-3,-5
1509433298797119,1,6,1,2,-1,-1,0,6
1509433298806126,-6,-3,1,3,-2,-1,-1,-3
1509433298806126,3,-2,-9,-9,-3,-2,-1,-4
1509433298821149,6,-2,0,-2,1,0,-1,1
1509433298821149,-3,-2,-1,1,-1,-2,0,0
1509433298823151,-3,-1,-3,-3,-2,-3,-2,-4
1509433298823151,-3,4,2,2,-1,0,-1,-2
1509433298844181,7,-7,-2,4,2,-2,0,3
1509433298844181,1,-8,-3,-5,-2,-1,0,13
1509433298845177,0,-7,-3,-1,-1,0,-7,-28
1509433298845177,-4,-2,0,3,2,-2,0,1
1509433298858161,-2,0,1,7,-3,-4,-2,-5
1509433298858161,0,0,-6,-20,1,0,0,0
1509433298866185,-1,5,2,-6,-1,-1,2,6
1509433298866185,4,2,-2,7,-7,-1,-2,-2
1509433298881195,-1,-3,-1,-14,1,-1,0,-5
1509433298881195,-1,-1,-7,2,-4,0,0,-1
1509433298883180,0,2,1,9,-1,-2,0,4
1509433298883180,-1,-1,0,2,3,-1,-3,-4
1509433298904199,-3,-2,-1,-15,-5,-1,-1,1
1509433298904199,-3,-2,-3,6,3,0,0,-4
1509433298905200,-7,-1,-2,-6,0,1,-1,-1
1509433298905200,-1,-1,3,9,-5,-1,-2,1
1509433298917208,-2,-9,-3,-2,-3,-1,-3,-1
1509433298917208,-4,0,-9,-5,-1,0,-2,-2
1509433298926212,9,-3,-1,0,-2,-1,-1,4
1509433298926212,-3,-8,5,-4,1,0,-1,-2
1509433298941220,-4,3,2,2,-3,-1,-3,-3
1509433298941220,5,1,13,5,2,-1,0,-2
1509433298943236,0,9,-11,9,-3,-1,-1,4
1509433298943236,1,3,-12,-25,-6,-3,-2,-1
1509433298964257,-23,-16,-7,-3,3,-1,-3,-5
1509433298964257,16,1,-1,-10,-2,-2,1,2
1509433298965258,-1,-2,10,-5,-7,-2,-3,1
1509433298965258,2,10,23,8,12,3,1,0
1509433298977248,-10,6,1,7,-2,0,-2,-4
1509433298977248,5,2,9,12,0,-1,-1,-3
1509433298986343,-6,-7,-8,10,3,1,-2,-1
1509433298986343,5,-5,0,-24,-4,0,0,2
1509433299001269,16,13,1,-4,-2,-2,-1,-3
1509433299001269,-22,-21,-1,6,1,1,1,0
1509433299003270,3,2,-4,-11,-2,0,0,-2
1509433299003270,-4,-3,10,13,-3,-2,-2,-1
1509433299024285,7,2,-7,3,0,-2,0,0
1509433299024285,-5,3,-2,-7,-4,-2,-2,-2
1509433299025286,7,1,-7,-1,1,1,0,0
1509433299025286,-4,-6,-14,1,-2,-2,-2,0
1509433299046295,5,-6,1,-4,-2,-1,-2,0
1509433299046295,7,4,-8,9,-1,-1,-2,-2
1509433299048296,-11,-8,0,-16,0,-2,0,-1
1509433299048296,-3,2,-5,5,3,-2,-3,-2
1509433299061304,4,6,-1,-3,-4,-2,-1,1
1509433299061304,-2,5,-7,-1,1,1,2,0
1509433299063306,4,0,-5,2,-2,-2,-1,-2
1509433299063306,-2,-4,2,-6,-8,-3,-4,-4
1509433299091327,0,-6,-1,2,1,-1,1,0
1509433299091327,-9,-4,0,1,0,-1,-2,-1
1509433299093328,2,8,4,-4,-3,0,0,-1
1509433299093328,-5,3,0,6,-1,0,0,3
1509433299106355,8,-1,-2,-8,1,-1,-3,-2
1509433299106355,2,4,-3,-7,-2,0,0,0
1509433299108341,-13,-6,0,-2,0,0,0,-1
1509433299108341,-4,-1,-2,2,-2,-2,-2,-3
1509433299120347,-6,-4,1,7,-2,-1,-1,-2
1509433299120347,3,1,-4,-4,0,-1,1,-1
1509433299127355,-1,-4,-3,-4,-3,-2,0,0
1509433299127355,-1,-1,-3,0,-4,-2,-2,-2
1509433299144386,-5,4,2,-2,-1,0,0,-3
1509433299144386,-2,-4,-5,0,1,-2,-2,-5
1509433299145375,0,6,1,2,2,1,-2,0
1509433299145375,11,-6,0,-3,-6,0,-1,0
1509433299166460,-13,-6,3,0,0,0,-2,-3
1509433299166460,3,-2,-3,-3,0,-1,-1,0
1509433299168387,-4,-3,-3,1,1,-1,0,0
1509433299168387,2,7,3,-5,-2,1,-1,-1
1509433299180390,1,-3,1,1,0,-1,-1,0
1509433299180390,-8,1,0,0,1,0,0,0
1509433299187419,3,-1,-1,-1,-1,-1,1,0
1509433299187419,-4,-1,-1,-2,-4,-3,-1,-2
1509433299204410,-5,0,-1,0,0,0,0,-2
1509433299204410,-1,0,-5,-2,-2,0,-1,-1
1509433299205410,0,-1,-1,-2,-1,-1,-2,1
1509433299205410,-4,-2,3,0,0,-1,-3,0
1509433299226439,-1,-1,1,0,-1,-1,-2,-2
1509433299226439,4,-4,-3,-1,-1,-1,2,0
1509433299228438,0,-4,-3,-1,-1,0,-3,-2
1509433299228438,-3,-2,-1,0,-3,0,-2,-2
1509433299240432,-1,-5,4,-1,-3,-2,-1,0
1509433299240432,-1,-4,-2,-1,1,0,-1,0
1509433299247447,-3,3,-2,-2,-1,-1,0,-2
1509433299247447,-2,0,1,-1,-1,0,-1,-2
1509433299264454,1,1,-2,-2,-2,-2,-3,-2
1509433299264454,-1,-1,-3,-1,-1,0,0,0
1509433299265455,1,-2,-2,0,1,0,0,-1
1509433299265455,-2,-1,-3,-3,-1,-1,0,-2
1509433299286526,-1,0,-2,0,1,0,1,1
1509433299286526,1,-2,-4,1,0,0,2,0
1509433299288484,2,0,-1,-3,-2,-1,0,-1
1509433299288484,-2,0,0,-3,-1,-2,-2,-1
1509433299300477,-12,-1,3,3,2,1,-1,-2
1509433299300477,-3,-3,-2,0,-1,-1,-1,-1
1509433299307482,1,0,-1,-2,-2,-1,0,0
1509433299307482,-1,-1,0,1,-2,-2,-1,-3
1509433299323493,0,-4,-1,-1,-1,-1,0,-2
1509433299323493,1,0,-2,-1,-1,-1,-1,-1
1509433299331499,-1,0,-4,-2,-1,-2,-1,0
1509433299331499,-4,0,1,1,-2,1,-4,-1
1509433299346571,-3,1,0,-1,0,-2,-1,-2
1509433299346571,-2,-3,-1,0,0,0,0,-2
1509433299348509,2,-4,-3,0,-1,-2,-2,-2
1509433299348509,-2,4,1,-4,-3,-4,-1,-2
1509433299360531,2,0,-4,-2,-3,-1,-3,0
1509433299360531,0,1,-2,-3,-1,0,-1,-2
1509433299367536,-2,-2,0,-1,-2,0,-1,0
1509433299367536,0,-3,-2,-1,-1,-1,-1,0
1509433299383573,0,-3,0,-1,-1,-3,-1,-1
1509433299383573,-2,1,-2,-2,-2,0,0,1
1509433299385557,-1,0,-2,-1,-2,0,-1,1
1509433299385557,-2,-6,-3,-3,-2,-2,0,-3
1509433299406552,-1,-1,-2,-2,-1,-1,0,-2
1509433299406552,0,2,-3,-1,0,0,-2,0
1509433299408554,0,-1,-2,-1,-1,-2,-1,0
1509433299408554,-1,-1,-1,-2,-1,-3,-3,-1
1509433299420561,1,0,-6,-2,-2,-3,0,-4
1509433299420561,1,-2,0,-1,0,-2,1,-1
1509433299427605,-3,-1,-1,0,-1,0,0,-2
1509433299427605,-2,-1,2,-2,-2,-2,-3,-2
1509433299443587,4,-4,-2,-2,-2,0,-3,0
1509433299443587,-3,-2,0,-1,0,-1,1,1
1509433299445577,-2,-1,-2,-2,-1,0,-1,-1
1509433299445577,-1,0,-2,-3,-1,0,-1,-1
1509433299466634,-2,1,1,0,0,0,-2,0
1509433299466634,-2,-3,-1,0,0,-1,0,-2
1509433299468606,-2,-1,1,-1,-1,-1,1,0
1509433299468606,-2,-2,1,0,-1,-2,-1,-2
1509433299480626,-1,1,0,-2,-1,-1,-1,-2
1509433299480626,0,-2,-3,-1,-1,-2,-1,-1
1509433299487618,-2,-2,-1,0,-1,-1,-1,-2
1509433299487618,-1,-2,1,-2,-3,0,-2,0
1509433299503622,-2,-2,-1,0,-2,0,0,0
1509433299503622,8,-2,-5,-3,-3,-2,-2,0
1509433299505624,-2,-6,1,0,2,0,-2,-2
1509433299505624,-2,0,0,1,-2,0,-2,-2
1509433299526674,-2,1,-1,1,0,-1,-1,0
1509433299526674,3,-3,-1,-3,-2,-1,0,0
1509433299527636,0,0,-2,-2,0,-1,-1,0
1509433299527636,0,-2,-1,-2,-2,-3,-3,-1
1509433299540644,-1,-3,0,-2,1,-3,-1,-2
1509433299540644,-1,1,-2,5,-2,-2,0,-1
1509433299548651,0,1,-4,-13,-2,1,0,-1
1509433299548651,-3,0,-1,-1,-1,-3,0,-2
1509433299563670,3,-3,-2,0,-1,1,-1,-1
1509433299563670,-3,7,3,0,2,1,1,0
1509433299565663,-2,0,-2,3,-2,-2,-3,-2
1509433299565663,0,-1,0,0,-1,-1,-3,-1
1509433299586696,-2,-3,-3,-2,-2,-3,0,-1
1509433299586696,-2,-4,-4,-2,0,-1,1,1
1509433299587690,-2,-1,1,0,0,-2,-1,-1
1509433299587690,0,3,-3,-2,-1,-1,-2,-2
1509433299599687,-3,0,0,0,-1,-1,-1,-3
1509433299599687,-1,1,-5,-3,-3,-1,-1,-3
1509433299608692,-6,6,1,-1,-2,-1,0,0
1509433299608692,-1,-5,0,-2,-4,0,-2,-1
1509433299623717,-3,1,1,0,-1,-1,0,-2
1509433299623717,-3,-2,-2,0,1,-1,-2,-1
1509433299625705,5,-1,-6,0,-2,-1,-2,0
1509433299625705,-2,-1,-3,-1,-1,-1,-2,-2
1509433299646732,0,0,-1,0,-2,-2,-2,0
1509433299646732,1,-2,-3,-3,2,0,0,0
1509433299647721,-2,-7,-7,1,-2,-2,-1,-1
1509433299647721,-1,-1,0,0,-1,-2,0,-1
1509433299659753,-1,-3,-2,-2,-1,0,-1,0
1509433299659753,-1,-2,-4,0,1,-1,-1,0
1509433299668760,0,1,-7,-3,-2,-1,-1,-2
1509433299668760,-2,0,3,-2,2,-1,0,-2
1509433299683761,1,0,1,-1,-3,0,1,-1
1509433299683761,-1,-4,-2,1,-1,-3,0,-2
1509433299685747,-1,1,2,5,-1,-2,-2,-2
1509433299685747,-2,-2,1,-5,-2,-2,-2,0
1509433299706763,2,-4,-3,-3,-1,1,0,0
1509433299706763,-8,2,2,3,1,0,1,-1
1509433299707763,-2,-2,-1,0,0,-2,0,1
1509433299707763,0,1,-1,3,-3,-1,0,-2
1509433299719824,1,-1,0,-2,1,-2,0,1
1509433299719824,4,-3,-9,-2,0,-1,-1,0
1509433299728808,-2,1,2,0,-2,-1,-1,0
1509433299728808,-3,-3,2,-1,-2,1,-3,-2
1509433299743808,-1,0,1,-2,0,-1,-3,-2
1509433299743808,1,0,-2,-2,-2,-1,-1,0
1509433299745792,-1,-7,-12,-2,-2,-2,-1,-1
1509433299745792,-2,0,-1,-1,-3,-1,-2,-1
1509433299766834,-2,1,-2,-2,0,-1,-2,-2
1509433299766834,-1,-1,-1,-1,-2,-1,-1,-1
1509433299767812,0,-3,-2,-2,-3,-1,0,-1
1509433299767812,-3,-4,2,-1,0,0,-2,-1
1509433299779823,-2,-1,0,1,0,-3,-2,0
1509433299779823,1,-4,-3,-1,-1,-2,0,-1
1509433299788853,-5,2,3,-1,-1,0,-2,-2
1509433299788853,-2,-1,0,3,-2,-3,-2,0
1509433299803839,-9,4,4,0,0,0,1,-1
1509433299803839,-1,-5,-4,-4,-1,1,-1,-1
1509433299805841,-1,-1,2,0,-1,-2,-1,0
1509433299805841,0,-1,-2,-6,-2,-3,-2,-1
1509433299826850,4,-2,-6,2,-3,-1,-4,-3
1509433299826850,-1,-2,0,0,-1,-2,-1,0
1509433299827851,-1,1,0,-1,0,0,-1,-2
1509433299827851,0,-1,0,2,-3,-1,-1,0
1509433299839859,0,-1,-1,-2,1,-2,1,-2
1509433299839859,0,2,-2,-2,-2,0,0,0
1509433299848866,2,-3,0,-3,-2,-1,-1,0
1509433299848866,-1,-3,-2,-1,-1,1,-1,-1
1509433299863944,-1,0,-2,-2,-2,-1,-1,-1
1509433299863944,-2,-1,-1,0,0,-1,-1,-1
1509433299865895,-1,-1,0,-2,-1,-1,0,0
1509433299865895,0,5,7,-2,-1,-1,-1,-1
1509433299885924,-1,0,-4,0,1,0,0,-2
1509433299885924,-1,0,-1,0,-2,0,1,0
1509433299886928,0,-2,-1,-1,0,-1,-2,1
1509433299886928,6,-2,-3,-5,-4,-2,-1,-2
1509433299907906,-2,-2,0,0,3,-2,-1,-2
1509433299907906,-1,-1,-2,0,0,1,-1,-2
1509433299908905,-6,-8,4,0,-1,0,-1,-1
1509433299908905,-1,-2,-2,-1,-4,-3,-2,0
1509433299922914,-1,-1,-2,-1,-1,-1,-1,-1
1509433299922914,2,-2,-3,-1,-1,-1,-1,2
1509433299923917,2,-1,-2,-2,0,-1,-1,-1
1509433299923917,-5,-1,1,5,0,-2,-1,-3
1509433299945944,-1,-3,0,-9,-2,-2,1,-2
1509433299945944,0,2,-3,0,3,-1,-1,-1
1509433299946935,1,0,-2,-1,-2,-1,-2,-1
1509433299946935,-1,-2,1,-2,-3,-2,0,-2
1509433299967953,-1,-2,0,1,1,2,0,-1
1509433299967953,0,3,0,-2,-3,-2,-1,-1
1509433299968953,-2,0,-2,-1,-2,-1,-2,-1
1509433299968953,-3,6,7,3,1,0,-1,1
1509433299982972,1,-3,0,3,-1,0,0,1
1509433299982972,-10,-2,3,-1,0,-1,-1,-1
1509433299983974,-1,2,-5,0,0,-4,-2,-2
1509433299983974,-1,0,-4,-3,-2,-1,-3,-2
1509433300005975,-1,-5,2,1,0,-1,-1,-2
1509433300005975,2,-1,-3,-2,0,-1,-1,2
1509433300006977,1,-1,-4,0,0,1,-1,-1
1509433300006977,-3,-2,-2,-3,-1,-1,-2,-4
1509433300028052,1,0,-1,0,-1,-2,-1,-1
1509433300028052,-2,-3,-4,3,-1,1,0,-1
1509433300029007,-2,1,3,4,0,0,-1,0
1509433300029007,1,-4,-3,-6,-2,-3,-2,-2
1509433300052010,1,0,-1,-3,-1,-3,-2,0
1509433300052010,0,1,-2,0,-2,0,0,-3
1509433300052010,0,-4,-1,-3,-2,-1,-1,0
1509433300052010,-3,-1,2,4,0,-1,-1,-1
1509433300066079,-2,1,-3,0,0,-2,-1,-1
1509433300066079,0,-4,-1,0,0,0,-2,-1
1509433300067022,-1,0,1,0,-2,1,-2,-2
1509433300067022,-1,1,-2,-5,-3,-2,0,-1
1509433300088043,-1,-2,-5,0,-2,0,-1,-2
1509433300088043,-2,-1,-3,-2,0,-2,0,-1
1509433300089035,-1,-2,-1,0,-1,-1,0,-2
1509433300089035,-4,-3,0,-2,-2,-1,-1,-1
1509433300103054,1,-1,0,-3,-1,0,0,0
1509433300103054,3,1,-4,-1,0,-3,1,0
1509433300104043,-1,-2,0,-2,-2,-1,-2,-1
1509433300104043,-2,-3,-4,-1,0,-1,-2,-2
1509433300126073,-2,-5,-4,2,-2,-1,1,0
1509433300126073,-2,0,-1,0,2,1,-1,-3
1509433300126073,-1,1,-1,-5,-3,-1,-3,-2
1509433300126073,-3,-1,0,-1,0,-1,-1,0
1509433300148075,1,0,-1,-1,-1,-1,1,-1
1509433300148075,-2,-3,-1,-1,-2,-1,1,-2
1509433300149076,-1,-1,-1,-1,-1,-3,-2,0
1509433300149076,-2,-3,-1,2,-2,1,-2,-1
1509433300163237,-1,3,-1,-1,0,-3,1,0
1509433300163237,0,-3,-3,3,-3,-2,0,2
1509433300164195,-1,0,-2,-9,1,0,0,-1
1509433300164195,0,0,1,-1,-2,-2,-2,-3
1509433300186220,-2,0,0,-1,0,-1,-1,-3
1509433300186220,1,0,-2,-3,-1,1,0,0
1509433300186220,-6,-2,1,6,-1,-1,0,0
1509433300186220,-2,1,1,-1,-2,-3,-2,-1
1509433300208226,-1,0,0,-1,-1,-1,-2,-1
1509433300208226,1,1,-1,-2,-4,-2,-1,-1
1509433300209222,1,1,-3,-3,-2,-1,0,-1
1509433300209222,-1,-1,0,-3,-1,0,0,-2
1509433300223232,-1,0,-1,3,1,-2,-1,0
1509433300223232,-1,-1,-1,0,0,-1,-2,-1
1509433300224218,0,0,-1,-4,-3,-1,-2,-1
1509433300224218,-3,-3,1,-2,-3,-3,-2,-1
1509433300246249,-1,-1,-1,0,0,0,0,1
1509433300246249,-1,-1,0,-1,3,-2,1,0
1509433300246249,-2,-1,0,-1,-1,0,-2,-1
1509433300246249,0,1,-1,0,-1,-2,-3,0
1509433300268322,-1,-1,-1,0,-1,-1,-1,-1
1509433300268322,0,-5,-2,-2,-1,-2,0,0
1509433300269263,0,1,0,2,-1,-1,-1,-1
1509433300269263,-1,-2,-2,1,-1,-1,-2,-2
1509433300283283,-1,12,9,-4,-2,-2,-2,-1
1509433300283283,-1,-2,-4,-4,0,0,-3,0
1509433300284272,0,0,-2,-1,-2,-2,-2,-2
1509433300284272,-1,-2,0,-1,-2,2,0,-1
1509433300306284,-1,-6,-5,-1,1,2,0,-2
1509433300306284,0,-2,-3,1,-1,-1,0,-1
1509433300306284,4,-2,0,-2,-3,-2,-2,1
1509433300306284,-3,-1,0,-3,-2,-3,-2,-1
1509433300328300,-3,-2,-3,-4,-1,-2,-3,-1
1509433300328300,0,0,-1,0,1,-1,0,-1
1509433300329301,-1,0,-2,-2,-2,-1,-2,-1
1509433300329301,0,1,1,3,-2,-3,-1,-3
1509433300343318,0,-2,-1,-1,-2,0,0,0
1509433300343318,-2,0,-3,-6,0,0,1,-1
1509433300344306,-2,-1,-1,-2,-2,0,1,-2
1509433300344306,-2,-2,0,-1,0,1,-1,-1
1509433300365356,-2,0,-3,3,1,0,0,0
1509433300365356,-2,1,-2,1,1,-1,-2,0
1509433300366319,-2,0,-3,-1,-1,-2,-2,1
1509433300366319,-1,-4,3,-1,-1,0,-1,0
1509433300388349,-1,-5,-2,1,2,0,0,-3
1509433300388349,1,-3,-1,-1,-2,-1,-1,-1
1509433300389347,-6,-1,1,0,-3,1,0,0
1509433300389347,0,0,0,-3,-1,-3,-2,-3
1509433300403448,0,0,-1,-1,-2,-1,-1,-1
1509433300403448,0,2,1,-1,-2,-3,-2,-1
1509433300404430,0,2,-1,-2,-2,-2,-1,-1
1509433300404430,-4,0,0,-1,1,0,-2,0
1509433300425414,-1,0,-2,-2,-1,0,0,-1
1509433300425414,-1,-1,-2,0,0,1,-1,0
1509433300426413,0,-3,-1,0,-1,-1,-2,-2
1509433300426413,0,1,-1,-1,-2,-2,-1,-2
1509433300448428,-1,-1,0,-1,1,-2,1,0
1509433300448428,-3,2,-2,1,0,0,0,-2
1509433300449429,-2,0,-2,-2,-1,-1,-2,-2
1509433300449429,-2,-3,-1,-1,-1,0,-2,-2
1509433300462438,-1,-1,-1,-1,0,-3,-1,-1
1509433300462438,1,1,-3,-2,-2,1,1,0
1509433300471466,-1,-1,0,-1,-1,-2,-3,0
1509433300471466,0,4,-1,-1,-3,-2,-1,-1
1509433300485468,-3,-9,3,1,1,0,-1,-1
1509433300485468,-1,-4,-2,-2,-1,-1,0,0
1509433300486457,0,-1,-1,1,-2,-2,-3,-1
1509433300486457,-3,-2,-1,-1,0,-1,0,-1
1509433300508470,0,-1,-3,-3,1,-1,-1,1
1509433300508470,-1,-1,-1,0,0,1,-1,1
1509433300509471,-1,-2,-2,-1,-3,1,0,-1
1509433300509471,-3,0,0,-2,-2,-1,-2,-1
1509433300523480,1,1,-3,-1,1,0,0,-1
1509433300523480,0,0,-2,1,0,-1,-1,-2
1509433300524482,2,1,-3,-2,-1,-1,-1,0
1509433300524482,0,-2,-1,-2,1,0,-3,-1
1509433300545520,2,2,-2,-1,-3,1,0,0
1509433300545520,1,-1,-1,-1,-1,-1,-3,1
1509433300546498,0,-1,1,-1,-5,-1,0,1
1509433300546498,3,-3,-3,-1,0,-1,-1,-1
1509433300568513,-4,-3,0,-1,0,-1,-1,-1
1509433300568513,-2,-2,-2,2,-2,-1,0,-1
1509433300569514,-3,-1,-1,0,-2,-1,0,0
1509433300569514,5,-4,-6,-3,-2,-2,-2,-1
1509433300582552,-2,0,-3,-3,-1,-1,0,0
1509433300582552,0,-1,-3,-3,0,-1,1,0
1509433300590538,-1,-2,1,1,1,-4,-2,-2
1509433300590538,-3,-1,1,1,-2,-3,-3,-1
1509433300605543,-1,-1,-3,0,0,-1,0,-2
1509433300605543,-2,-3,-2,-2,-1,-1,0,-2
1509433300606541,-1,-2,-1,-2,-4,-1,-2,-2
1509433300606541,-3,-1,-2,-1,-2,-1,-2,0
1509433300628556,0,-1,-3,1,-1,-1,-1,0
1509433300628556,-3,1,-1,-2,-2,-1,1,1
1509433300629558,0,-3,-1,1,0,-2,-2,-3
1509433300629558,-1,0,3,0,-2,-2,-1,-2
1509433300642582,1,-1,-1,-1,-1,-1,1,-1
1509433300642582,0,-1,-4,0,0,-1,0,0
1509433300650571,-3,-1,1,-1,-2,0,-3,-1
1509433300650571,-3,-2,1,0,0,-1,0,-1
1509433300665624,0,-2,-2,0,-1,0,-2,0
1509433300665624,1,0,-2,-1,1,-2,-1,-1
1509433300666601,-2,-1,0,-3,0,0,-1,1
1509433300666601,0,-1,1,0,-2,-1,-2,-2
1509433300688610,1,0,-2,-2,1,2,0,-2
1509433300688610,1,-3,-2,1,1,0,0,-2
1509433300689600,-2,0,1,-1,-1,-2,-2,-1
1509433300689600,-2,-2,-2,-2,-2,0,-2,-1
1509433300702637,0,0,1,-2,0,-2,0,1
1509433300702637,0,-2,-3,-2,-1,-1,1,0
1509433300710642,-8,-2,4,4,0,0,0,-4
1509433300710642,-4,2,1,-1,-1,-2,-1,-1
1509433300725641,0,-2,-2,0,1,-1,0,-3
1509433300725641,0,0,-3,-3,-2,-1,-2,-2
1509433300726627,2,-1,-2,-3,-3,-3,-1,-2
1509433300726627,1,-6,-2,-4,-3,-2,-3,0
1509433300748659,-2,1,-3,-1,1,-1,-4,0
1509433300748659,-1,1,-1,6,1,-1,-2,-1
1509433300748659,-2,0,0,-3,0,0,-2,-2
1509433300748659,0,-3,2,-5,-2,-1,-1,-2
1509433300762669,1,0,-1,-1,0,-2,1,1
1509433300762669,-1,-1,-2,-2,-3,-1,1,-1
1509433300770659,0,-1,-3,3,-2,-2,-3,-1
1509433300770659,-1,1,-1,0,0,-1,-2,-1
1509433300785683,-1,-3,0,-3,1,0,0,-1
1509433300785683,0,-1,-1,-2,1,-1,-2,0
1509433300786666,0,-1,-2,-2,-3,-2,0,-1
1509433300786666,-4,-5,3,0,1,-1,0,-1
1509433300808682,3,-3,-3,-2,-4,-2,0,0
1509433300808682,-3,1,0,-1,-1,-1,-1,-1
1509433300808682,1,-5,-1,-2,-2,-3,-2,0
1509433300808682,1,5,-3,-3,-1,-1,-1,-2
1509433300822723,-9,-1,3,2,3,2,-2,0
1509433300822723,0,-1,-2,-1,0,0,0,-1
1509433300830728,0,1,-2,-2,-1,-2,-1,0
1509433300830728,-3,0,-2,1,-2,-2,-2,-2
1509433300845773,-1,-11,-1,-2,-3,-1,-1,-2
1509433300845773,-9,3,5,6,-1,-1,-1,0
1509433300846714,-6,3,3,-12,-4,1,-3,-2
1509433300846714,0,-3,1,2,0,-3,0,0
1509433300868727,-1,2,-4,-2,0,-2,0,-1
1509433300868727,-1,-5,-2,-3,0,-1,-1,0
1509433300868727,1,1,-5,2,-2,-2,-3,-1
1509433300868727,-4,0,1,-1,0,-2,-2,-2
1509433300882752,0,0,-3,-3,0,-1,-1,1
1509433300882752,0,-2,-4,0,0,-2,-1,0
1509433300890758,-2,0,0,0,-2,-1,-1,1
1509433300890758,1,-1,-1,-3,-1,-1,0,0
1509433300905764,1,3,-2,4,-1,0,0,-2
1509433300905764,1,-2,-3,-3,0,-1,-2,0
1509433300906751,-2,-4,2,-1,-2,-1,-2,-1
1509433300906751,-2,-2,0,1,1,1,-3,-2
1509433300927802,1,-1,-2,-1,0,1,0,-1
1509433300927802,1,1,-1,-2,-3,0,-1,0
1509433300928767,-3,-2,1,-1,-3,-1,-2,-2
1509433300928767,-2,-3,0,1,-2,1,1,-2
1509433300951784,0,-7,-6,-1,1,-1,1,-2
1509433300951784,-6,9,1,-3,-3,0,0,0
1509433300951784,0,-1,-1,2,-1,0,-2,-2
1509433300951784,0,0,3,-1,-3,-1,-2,0
1509433300965795,-1,-2,-1,-1,1,-1,0,0
1509433300965795,3,-3,-2,-2,-2,-2,1,-1
1509433300966796,-2,-4,-3,1,-1,1,-2,0
1509433300966796,-4,2,0,-1,-4,-1,-1,-3
1509433300988811,-1,-1,-2,-1,0,-1,-1,-1
1509433300988811,1,-5,-2,0,0,0,-4,0
1509433300988811,-2,3,1,-2,-2,-2,-2,-1
1509433300988811,-2,-2,-2,-3,0,-2,0,-2
1509433301011849,-2,-1,1,2,-1,-2,0,-1
1509433301011849,-1,-1,-6,-2,-2,-1,1,-2
1509433301011849,-3,-5,0,1,-2,-1,-2,-1
1509433301011849,-2,-2,-1,0,0,-1,-2,0
1509433301025851,1,-3,-3,-1,-2,-2,0,-1
1509433301025851,-1,3,-2,-1,1,-1,-2,-2
1509433301026841,0,6,12,-2,-3,-1,1,0
1509433301026841,1,2,0,-2,1,-2,-1,-2
1509433301047852,3,7,-2,-2,-1,-1,0,0
1509433301047852,3,-4,-4,0,-1,-2,-1,0
1509433301048852,-3,0,-2,-2,-2,-1,-1,-1
1509433301048852,3,0,-2,-3,-1,-2,-2,-1
1509433301071870,-2,1,1,-2,1,-1,0,0
1509433301071870,2,-4,-4,-1,-3,0,0,0
1509433301071870,-3,0,0,4,0,-4,-4,-1
1509433301071870,-1,-12,-3,-4,-2,-2,0,-2
1509433301086904,-8,12,11,-6,-2,-2,1,0
1509433301086904,1,-1,-3,-3,-1,-3,-1,1
1509433301086904,0,-7,-1,0,0,0,0,-1
1509433301086904,-3,-1,3,3,0,-1,-1,-1
1509433301107895,0,-1,-4,0,0,-1,0,-3
1509433301107895,6,-3,-4,0,2,-1,0,0
1509433301108896,-1,2,0,-3,-4,-3,-2,-1
1509433301108896,0,0,1,-3,-2,0,0,-1
1509433301131932,2,-5,-3,2,1,0,-1,0
1509433301131932,-3,0,-1,-1,-2,0,-1,-2
1509433301131932,1,-1,-4,-3,-3,-1,-2,-1
1509433301131932,-3,-1,1,-1,-1,-1,-2,-1
1509433301145937,1,-2,-4,-2,-1,-2,0,-1
1509433301145937,-7,-6,1,2,1,-2,0,0
1509433301146922,-2,-3,-3,0,-1,-1,-1,0
1509433301146922,-4,0,1,-1,-1,-2,-3,-3
1509433301167995,-2,0,-2,0,-2,1,-1,-2
1509433301167995,-3,-3,-3,-3,0,-1,-2,-2
1509433301168940,-1,-5,-8,-4,-3,-2,-4,-5
1509433301168940,-1,-1,2,-3,-1,-2,-2,1
1509433301190955,1,-4,-5,-2,-1,0,0,1
1509433301190955,0,2,-1,-2,0,1,1,1
1509433301191955,-1,-4,1,0,-1,-1,-1,0
1509433301191955,-1,-1,-2,3,0,0,-1,-1
1509433301205985,-1,0,-3,-2,-1,-2,-2,-1
1509433301205985,0,-3,-2,-2,-4,-1,-1,-1
1509433301206979,-9,0,5,0,0,-1,-1,-3
1509433301206979,-2,1,0,-1,-2,0,-1,-2
1509433301228039,0,0,-1,-1,-2,-1,-1,1
1509433301228039,-1,0,0,0,-1,-1,-1,0
1509433301228983,2,-2,-2,-1,0,-2,-3,0
1509433301228983,-1,0,1,-2,-1,0,0,0
1509433301251014,2,4,-5,-3,-1,-1,0,0
1509433301251014,1,2,-4,-3,-2,-2,-1,0
1509433301251999,1,2,2,-1,-2,-1,0,-1
1509433301251999,-2,1,0,-1,-1,-2,-1,-2
1509433301266020,0,-3,-2,2,1,0,0,-1
1509433301266020,-5,-12,-8,0,0,0,-1,-1
1509433301267020,2,3,-3,-5,-4,-2,-2,-2
1509433301267020,0,-2,0,-2,-2,-1,-2,0
1509433301288037,-1,-4,-5,0,0,0,1,1
1509433301288037,-3,-1,2,-2,-2,0,-2,-1
1509433301289023,-1,-4,-3,-1,-2,0,-1,-3
1509433301289023,5,-3,-4,-1,-2,-2,-2,0
1509433301311044,-5,5,1,-2,-2,-3,-1,-3
1509433301311044,0,3,-1,0,-1,0,-1,-1
1509433301312040,-1,1,0,-1,-3,-1,-2,-1
1509433301312040,-1,2,0,-2,0,-2,-2,-1
1509433301326050,-4,-7,4,0,0,1,0,0
1509433301326050,0,0,-2,0,-1,-2,-1,0
1509433301327056,-2,1,0,1,-2,0,-1,-1
1509433301327056,-2,-1,-2,-3,-1,-1,-1,-1
1509433301348065,1,-6,-3,2,2,-2,0,2
1509433301348065,-1,1,-1,-3,1,0,0,-1
1509433301349066,3,7,0,-2,-2,-1,0,0
1509433301349066,-1,4,-1,-2,-1,-1,-2,-3
1509433301372082,-1,-1,-2,-2,-2,0,-1,1
1509433301372082,-2,-1,-3,1,0,-1,-1,1
1509433301372082,0,-2,-2,-1,-2,0,-3,-1
1509433301372082,-1,-5,0,1,2,2,-2,-2
1509433301386108,1,2,-1,0,0,-3,-2,-2
1509433301386108,1,2,-2,-2,-2,-2,0,-2
1509433301386108,-2,-5,-1,0,-2,-3,-2,-1
1509433301386108,-2,-2,3,0,-2,-1,-1,-1
1509433301409107,-8,-1,0,1,0,2,-1,-3
1509433301409107,0,1,-1,-2,-2,-1,-2,-1
1509433301410108,0,0,0,-1,-1,-1,0,-2
1509433301410108,-3,-4,-1,-1,-1,-2,-1,-1
1509433301431191,3,-1,-3,1,1,-2,1,2
1509433301431191,-3,-6,-2,-1,-1,-1,-3,1
1509433301432137,-2,-1,0,-2,-1,0,-1,-3
1509433301432137,1,5,2,-1,0,-2,-1,-2
1509433301446177,0,-1,-4,-1,0,0,0,-2
1509433301446177,0,-3,-4,-1,-1,-3,0,0
1509433301446177,-1,-3,1,-1,-3,-1,-2,0
1509433301446177,-1,-1,-1,-2,-4,-2,-1,-1
1509433301469203,-1,-4,-5,-2,0,-2,1,0
1509433301469203,-2,1,1,0,-1,0,-1,-1
1509433301470205,-1,-2,-4,-1,-2,-2,-3,-4
1509433301470205,-1,0,-1,-1,-1,-1,-1,0
1509433301491176,1,-2,-3,-1,-1,0,-2,0
1509433301491176,0,0,-1,-1,-2,0,-1,1
1509433301492169,-2,-3,1,-1,-1,0,0,0
1509433301492169,1,1,-5,0,-2,-1,-1,-3
1509433301505201,1,0,0,0,-1,-3,-1,0
1509433301505201,0,0,-1,-3,-2,-1,-1,-1
1509433301513206,-1,-1,1,-1,-1,-1,-2,0
1509433301513206,-3,0,2,3,0,-2,-2,-1
1509433301529194,5,1,-5,-4,-2,-2,-1,-3
1509433301529194,0,9,7,0,1,1,0,1
1509433301530194,0,1,-1,-1,-3,-1,-2,-1
1509433301530194,-2,-2,-2,0,-1,0,-2,1
1509433301551208,-1,1,-2,-1,1,-1,0,0
1509433301551208,-1,-6,-3,1,2,-2,0,0
1509433301552209,-2,-3,0,-2,-2,-3,-1,-2
1509433301552209,0,-1,2,-2,-1,-1,0,1
1509433301565276,-2,-4,-1,1,2,2,0,0
1509433301565276,-1,0,-2,-3,-4,-1,0,-1
1509433301573223,-5,-3,0,-1,-1,-2,0,-2
1509433301573223,-2,-1,-1,-1,-2,-1,-1,-1
1509433301589252,1,-3,-5,-1,1,1,-1,0
1509433301589252,0,-1,-5,-2,-1,0,-1,-1
1509433301589252,1,-4,0,-1,0,-1,-2,-1
1509433301589252,-9,-2,3,1,0,0,0,-3
1509433301611252,-1,-1,0,-2,-1,-1,0,1
1509433301611252,-3,1,-2,-1,0,-1,-1,0
1509433301612252,0,-1,-1,-3,-4,-1,-2,1
1509433301612252,2,1,-6,-2,1,0,-2,-3
1509433301625277,-2,-6,-5,1,0,-1,0,-3
1509433301625277,-2,-1,0,-1,-1,0,-2,-1
1509433301633301,-3,1,2,-2,-2,-1,-3,-2
1509433301633301,-2,-2,0,-3,-2,-1,-1,-1
1509433301649278,-1,0,-1,-1,-2,0,0,-2
1509433301649278,0,-3,-1,-2,-1,-1,-1,-1
1509433301649278,-3,-1,-1,-2,-3,-2,-2,0
1509433301649278,0,-1,0,0,0,-1,-1,-2
1509433301671310,0,2,0,0,-3,-4,-1,-1
1509433301671310,0,-3,-1,1,-1,-2,-2,0
1509433301672296,-3,-1,1,1,0,0,-2,-2
1509433301672296,-1,-2,0,-2,-2,-2,0,-1
1509433301685360,1,-2,0,-2,0,0,1,2
1509433301685360,2,0,-6,0,-1,-1,-2,-2
1509433301693312,-3,2,-1,-1,-2,-2,0,-1
1509433301693312,-1,-1,0,-2,-1,1,-2,-1
1509433301709321,-1,1,-2,1,0,-1,-1,-1
1509433301709321,3,2,-5,-3,-2,-2,0,0
1509433301709321,5,4,-3,-1,0,-1,-2,-2
1509433301709321,-4,-11,-6,-1,0,-1,0,0
1509433301731359,1,0,0,-2,-1,1,-1,-1
1509433301731359,-2,-2,-1,-1,-1,-1,-1,-1
1509433301732347,-2,-1,-1,-1,-2,-3,-2,-3
1509433301732347,0,-1,0,-2,-2,-2,-3,1
1509433301754353,-1,-2,-1,-2,1,1,0,-1
1509433301754353,-3,-2,0,0,-2,-2,-1,-1
1509433301754353,-1,-2,0,-2,-3,-1,-1,0
1509433301754353,0,-1,1,0,-1,-1,0,0
1509433301769364,-2,-2,0,2,-1,-1,0,0
1509433301769364,-1,1,-1,-2,-2,0,1,1
1509433301769364,-4,-2,0,0,2,-3,-3,-2
1509433301769364,-1,0,3,0,-1,-3,-1,-2
1509433301791378,0,0,-5,-3,-1,0,1,-2
1509433301791378,1,0,-1,-1,-1,-1,-2,-1
1509433301792381,-1,-2,0,-2,-3,-2,-2,-1
1509433301792381,0,-2,0,-2,-1,-2,-3,0
1509433301805393,6,-5,-4,-2,-2,-2,0,1
1509433301805393,-3,-13,-7,-1,0,1,-2,-1
1509433301813448,-4,-1,5,1,0,-1,0,-1
1509433301813448,2,2,-2,-1,-1,0,0,-2
1509433301828408,-2,3,0,-3,0,-2,-2,0
1509433301828408,-1,-1,-2,0,-2,-3,0,0
1509433301829419,0,-1,0,-2,0,1,-2,-2
1509433301829419,-4,-1,0,0,0,-1,0,-2
1509433301851421,-2,-2,0,1,0,-2,1,0
1509433301851421,1,-2,1,-1,-2,0,-1,-2
1509433301852422,-9,0,3,0,0,-2,-1,-1
1509433301852422,-2,-1,0,-1,0,0,-1,0
1509433301873436,-1,1,-3,-2,-2,0,0,0
1509433301873436,-3,1,-1,-1,0,-1,-1,-1
1509433301874437,1,-2,-1,-1,-3,-1,-1,-2
1509433301874437,2,-1,-3,-2,-1,-2,-2,-3
1509433301889449,-5,-1,-4,-3,1,-2,-2,-1
1509433301889449,-1,0,-1,-2,0,1,-2,-1
1509433301889449,2,-4,-2,-2,-2,-1,-3,-1
1509433301889449,-1,0,1,0,-1,0,0,0
1509433301911480,1,-5,-2,0,0,0,-1,-1
1509433301911480,-14,-10,3,0,-1,-2,0,-3
1509433301912481,-4,-1,0,-1,0,-2,-2,-1
1509433301912481,0,-3,-2,-1,-1,0,-1,-3
1509433301933535,2,0,0,-3,-1,-2,-2,-1
1509433301933535,0,1,-1,1,-2,-3,-1,-4
1509433301934479,-1,-1,-1,-1,0,0,-2,-4
1509433301934479,-4,0,2,0,-2,-2,-1,1
1509433301947498,-2,-1,-3,1,-1,0,-1,1
1509433301947498,3,3,-1,-3,-1,1,-1,1
1509433301956495,0,1,-1,-3,-2,-3,-2,0
1509433301956495,-1,-1,-1,-1,1,-1,0,2
1509433301971515,-1,-1,-1,1,2,-1,1,-2
1509433301971515,0,0,-2,-1,-3,-2,-1,-1
1509433301973517,4,-1,-2,-1,-2,0,-2,0
1509433301973517,0,-1,-2,-1,-2,-1,1,0
1509433301993547,-1,-4,-3,-2,0,-1,0,-1
1509433301993547,1,-1,-1,2,0,0,-1,1
1509433301996526,-1,1,-3,-1,-3,-3,-1,-3
1509433301996526,1,3,1,-2,0,-2,-1,-2
1509433302007550,-2,-2,-3,1,0,-1,-2,0
1509433302007550,2,0,-3,-1,-2,-1,-2,-1
1509433302016546,-3,7,4,1,-3,0,-1,0
1509433302016546,0,-3,0,0,-2,-1,-2,-2
1509433302031556,0,-1,-1,0,-1,0,2,-1
1509433302031556,-2,0,-3,-1,-1,0,-1,1
1509433302033551,-2,-5,1,-1,-2,-2,-2,0
1509433302033551,-1,-3,0,1,0,-1,1,-1
1509433302053564,0,0,2,-1,-1,1,0,-2
1509433302053564,-1,1,0,0,-1,-2,-1,-3
1509433302055567,-4,-3,1,0,0,0,-1,-2
1509433302055567,-1,1,0,0,1,-1,-2,0
1509433302067574,0,-3,-2,-2,-3,-3,-3,1
1509433302067574,-2,-2,-1,-1,0,-2,-1,0
1509433302076592,-2,-2,0,-2,-2,-2,-1,-1
1509433302076592,-2,-3,-1,-2,-1,-1,-1,-2
1509433302091590,-1,0,-2,0,-2,1,2,-1
1509433302091590,0,0,0,-4,-2,-1,-1,-2
1509433302092592,-4,-5,3,-1,-3,0,0,-1
1509433302092592,2,-3,-2,-2,-1,-2,-1,0
1509433302113621,-1,4,3,0,1,-4,-1,0
1509433302113621,-1,-7,-4,-3,-2,-3,-2,-2
1509433302115608,1,-2,-3,-2,-3,-1,-2,-2
1509433302115608,-1,-2,-1,-2,-2,-1,-1,-1
1509433302128631,5,-6,-5,-2,-1,0,-1,2
1509433302128631,-6,-3,1,1,1,1,-1,0
1509433302134621,0,-3,-1,-1,-1,-3,-2,0
1509433302134621,-3,0,-1,-1,-1,-3,0,-2
1509433302151633,1,-1,-4,-1,-1,-1,-1,-2
1509433302151633,2,2,-1,-2,-3,-1,0,1
1509433302152633,-2,-1,0,-1,-1,-2,-3,-1
1509433302152633,-2,-1,-1,0,-1,0,-1,-1
1509433302173648,-1,0,-2,-3,-1,-2,-2,-2
1509433302173648,0,2,-2,-2,-1,-1,-1,0
1509433302175652,-1,2,-1,-2,-1,1,0,-2
1509433302175652,-1,-2,-2,-2,1,0,0,-1
1509433302188674,-2,2,0,-2,0,1,-1,-2
1509433302188674,-3,2,1,-1,-2,0,0,-3
1509433302195680,0,-3,0,-2,-1,-2,-2,-1
1509433302195680,1,-7,-5,1,0,-2,-1,-1
1509433302211685,-3,1,0,-3,-1,-2,-1,0
1509433302211685,-4,-1,1,-2,-2,-1,-1,-1
1509433302212699,-2,-5,-1,0,-2,0,-1,-1
1509433302212699,0,8,5,0,0,0,1,0
1509433302233714,-2,-2,-1,-2,-1,-1,1,-1
1509433302233714,2,-1,-3,-1,1,-1,-1,-1
1509433302235697,0,3,0,-3,-4,-1,-2,-1
1509433302235697,-3,-3,-2,0,0,-1,-2,0
1509433302248703,1,-6,-1,2,0,-1,0,1
1509433302248703,-3,4,1,-2,-2,-2,0,-1
1509433302262714,1,-4,-1,-1,0,-2,0,-3
1509433302262714,0,-2,-2,-1,-1,-2,0,-2
1509433302271720,4,-1,-6,-1,1,-1,-1,-1
1509433302271720,0,-3,-3,-1,-3,-1,-2,-1
1509433302272720,-2,-1,0,-2,-2,-3,-1,-1
1509433302272720,-2,0,0,0,2,-2,-1,-3
1509433302293750,-3,-5,-3,5,1,-1,-1,0
1509433302293750,-1,1,2,-3,-3,-3,-1,-2
1509433302295736,-2,0,0,-2,-1,-2,-1,-1
1509433302295736,-2,-3,4,-1,0,1,-1,0
1509433302308746,-3,2,-2,0,0,1,-1,0
1509433302308746,0,-1,-2,-1,-1,-1,0,-1
1509433302314750,-1,-1,-1,-1,-1,0,-2,-1
1509433302314750,0,-2,-3,-3,-1,-2,-1,-2
1509433302331771,-2,0,-2,-4,-1,1,-1,-1
1509433302331771,0,0,1,-2,-2,-1,-2,2
1509433302332761,0,-5,0,0,0,0,-1,-2
1509433302332761,-8,5,2,-1,-1,-1,0,-3
1509433302353775,-1,-1,-2,1,1,0,-1,-2
1509433302353775,2,-1,-5,-2,-3,-1,-1,1
1509433302355779,-3,-2,0,1,-2,-2,-3,-2
1509433302355779,0,-4,-1,0,-2,0,0,0
1509433302367803,-1,2,-1,-3,-1,-2,0,1
1509433302367803,-3,-1,0,-1,0,0,0,-2
1509433302382859,0,0,0,-2,-1,-2,0,0
1509433302382859,0,-4,-3,-2,-1,0,-1,0
1509433302391821,-1,1,-2,-1,0,-1,0,-1
1509433302391821,0,-6,-3,1,0,0,-1,-2
1509433302392807,-5,-3,8,1,-2,0,-2,-1
1509433302392807,2,-1,-4,-2,-2,-2,0,-1
1509433302413819,0,-1,-4,-1,-4,-2,0,0
1509433302413819,-3,-4,0,1,0,-1,-2,-1
1509433302415820,-4,0,-3,-1,-1,1,-2,-2
1509433302415820,-1,-9,-8,-4,0,0,-1,-3
1509433302427830,0,-1,-3,-3,0,1,1,-1
1509433302427830,-1,5,-2,-2,-3,-1,-2,-3
1509433302436848,-1,0,-3,-2,-2,-4,2,0
1509433302436848,1,0,-1,1,-1,-2,-1,0
1509433302451845,-1,-1,-2,1,-1,-2,-2,-2
1509433302451845,-1,-3,-1,-3,-3,-1,-2,-1
1509433302452846,-1,-3,-2,0,0,1,-1,-2
1509433302452846,-7,4,2,1,1,-1,-1,-1
1509433302473861,-2,0,1,2,2,-1,0,1
1509433302473861,0,1,1,-1,-2,-2,-1,0
1509433302475864,0,-3,0,-1,-2,-1,-3,-2
1509433302475864,3,2,-1,-5,-4,-2,0,-1
1509433302487884,4,3,-7,-3,-3,-3,-1,-2
1509433302487884,-4,0,1,-1,-4,-2,-1,-1
1509433302496879,0,5,-2,-4,-3,-2,-3,-1
1509433302496879,-1,-1,0,2,0,-1,-1,-1
1509433302511889,0,-2,-3,-1,-2,-2,-1,-1
1509433302511889,1,-2,-2,-2,-1,-1,-1,-1
1509433302512889,-3,-2,-1,-2,-1,0,-1,-1
1509433302512889,1,0,-1,1,1,-1,0,-1
1509433302533926,-3,-2,1,1,-1,-1,0,1
1509433302533926,2,6,6,-1,-2,-3,0,1
1509433302535907,-1,0,2,-1,0,-1,-1,-1
1509433302535907,1,-1,-2,-3,-1,-1,-2,0
1509433302547924,-2,-3,1,-1,0,0,1,-1
1509433302547924,-2,-6,-3,-1,-2,-1,-1,0
1509433302556920,0,-2,-2,-2,-3,-2,0,-3
1509433302556920,5,-4,-3,-1,1,-1,-1,-1
1509433302570989,-7,-5,1,0,-1,-1,-1,-1
1509433302570989,-2,1,-1,-2,0,0,-2,-2
1509433302572935,-2,0,-1,0,-1,-3,-2,-2
1509433302572935,-1,-3,-4,0,-1,0,-2,-1
1509433302593967,3,-5,-3,-1,0,-1,-1,0
1509433302593967,-3,-2,-3,-1,-1,-2,0,-2
1509433302596948,-1,4,3,-4,-4,-2,-2,-1
1509433302596948,-5,-3,2,0,1,-1,-1,1
1509433302607955,1,0,-8,-2,-2,2,0,-1
1509433302607955,-1,0,-3,-1,-2,-1,-2,-2
1509433302617004,-1,-4,-2,-1,0,-2,-1,-1
1509433302617004,0,6,4,0,1,1,0,-2
1509433302630997,-1,3,-1,-5,-2,-2,-1,-1
1509433302630997,-1,-5,0,-2,-2,-1,-1,0
1509433302632975,-1,-3,-2,1,-1,-1,-4,-1
1509433302632975,2,-4,-3,0,-2,1,1,2
1509433302654015,1,-1,-2,-1,0,-1,1,0
1509433302654015,1,-1,1,-3,-1,-1,-2,-2
1509433302656011,-1,-1,-1,-2,-1,-2,-1,-2
1509433302656011,0,1,-4,-3,-2,-2,1,-1
1509433302668023,0,-1,-2,0,0,-2,1,-1
1509433302668023,-3,-1,-1,0,-2,-1,-1,0
1509433302676007,-9,-6,1,1,1,-1,1,-1
1509433302676007,0,0,-3,-1,-1,-2,0,-2
1509433302691031,0,-2,-2,-1,-2,-1,-2,-1
1509433302691031,0,-5,-2,1,-2,1,-2,-2
1509433302693018,-1,-2,5,0,-1,-1,-1,0
1509433302693018,-1,-2,-1,1,0,-1,1,-1
1509433302714048,-2,-1,0,-2,-1,-1,0,0
1509433302714048,-1,2,0,-2,-2,-2,-2,-1
1509433302715047,-2,-4,1,0,-2,-1,-2,-2
1509433302715047,-2,-5,-5,2,3,0,0,-1
1509433302728052,3,2,1,-1,-2,-3,-2,-1
1509433302728052,1,-5,-4,-2,-1,0,-3,0
1509433302737062,1,0,-2,-3,-2,0,-1,-2
1509433302737062,-3,-7,-4,-1,2,1,-2,-2
1509433302751058,2,-5,-5,0,0,0,-2,1
1509433302751058,0,4,1,-3,-2,-4,-2,-2
1509433302753059,-3,5,2,-2,-1,0,-2,0
1509433302753059,1,2,0,-4,-2,-1,-1,1
1509433302774074,-3,-10,-9,-2,0,-2,1,-1
1509433302774074,-3,-3,-2,1,-1,-3,-1,-3
1509433302775075,-2,-6,-3,-1,-2,-2,-1,-1
1509433302775075,-2,0,-1,1,-1,-1,-2,1
1509433302796090,-2,1,-2,-2,-1,0,-1,-3
1509433302796090,-4,-5,1,1,-1,-1,-2,-1
1509433302798091,0,-2,0,-2,-2,-2,0,-2
1509433302798091,-2,1,0,-3,-2,0,0,-2
1509433302811100,-2,1,1,-1,-2,0,-1,-1
1509433302811100,0,-2,-2,-2,-1,0,-1,-1
1509433302813101,1,1,-2,1,0,1,-2,-3
1509433302813101,0,1,-2,-3,0,-2,-2,-1
1509433302834186,-1,2,-1,-3,-1,-2,0,1
1509433302834186,-2,-1,0,-1,-2,-1,-1,-1
1509433302835131,-1,-2,0,0,-1,-2,-2,-1
1509433302835131,-1,-1,-3,0,-1,0,-1,-1
1509433302856132,6,0,-4,-1,0,-1,-1,0
1509433302856132,-4,-7,-4,-2,-3,-2,0,-1
1509433302858133,-2,5,0,-2,-2,-2,-1,-2
1509433302858133,-1,0,-3,-2,-3,0,2,-1
1509433302871146,-1,-2,-4,-1,0,1,1,0
1509433302871146,-1,-5,-3,0,-1,-2,-1,0
1509433302873144,-2,-3,0,-3,1,0,-3,0
1509433302873144,-4,-4,2,-1,0,-1,-1,-1
1509433302894204,-2,1,0,-1,-1,-1,-1,-2
1509433302894204,-2,0,2,-2,-3,-2,-3,-1
1509433302896161,-2,0,0,-3,-4,-1,-2,-2
1509433302896161,2,-1,-1,0,2,-2,0,-2
1509433302916175,-2,-2,-2,1,-1,-1,-1,-3
1509433302916175,-3,0,0,0,-1,-1,-1,-1
1509433302918177,2,-2,-3,-1,0,-1,0,0
1509433302918177,0,-5,-5,0,-2,0,0,-2
1509433302931209,-2,1,2,1,-1,0,-1,0
1509433302931209,1,-3,-1,-2,-3,-1,-2,-1
1509433302933192,0,1,-3,-3,-3,-2,-2,-2
1509433302933192,0,1,-3,-1,0,-2,0,1
1509433302954202,-2,0,0,-3,0,0,-1,1
1509433302954202,-10,-1,7,1,0,0,0,-3
1509433302955203,4,3,6,-1,-1,-2,1,-2
1509433302955203,-4,2,1,-3,0,-1,-1,-1
1509433302984260,0,-2,0,0,-1,0,0,-2
1509433302984260,2,2,-2,-2,-4,-1,-3,0
1509433302985225,-3,-6,1,-1,-1,-1,0,-2
1509433302985225,0,-1,0,-1,-1,-1,0,-2
1509433302991229,0,0,-2,-2,-2,0,0,0
1509433302991229,2,0,-1,-2,-1,-2,-2,0
1509433302997246,-3,-2,-2,0,-3,-2,-1,-2
1509433302997246,0,-2,-1,-2,0,-2,0,1
1509433303014258,-3,-2,0,-2,2,-2,-2,0
1509433303014258,0,0,-1,0,-1,-1,0,-1
1509433303015247,-1,-1,-1,-2,-1,-1,-3,-1
1509433303015247,-1,-3,-5,3,1,1,0,-1
1509433303036328,1,1,-3,-1,-2,0,-1,-3
1509433303036328,-2,-1,-1,-3,-2,-1,-1,-2
1509433303038262,0,2,1,-1,-1,-1,-1,1
1509433303038262,2,0,-5,0,-2,-1,-1,0
1509433303051271,-1,-3,-3,-1,-1,0,-2,-2
1509433303051271,3,-9,-5,-3,-3,-2,-2,-2
1509433303057275,-13,-1,5,-1,2,-1,1,-3
1509433303057275,1,-1,1,-1,0,1,0,-1
1509433303074287,-1,-1,-4,-1,-2,-1,0,2
1509433303074287,-1,0,0,1,-1,-1,-4,-1
1509433303075288,0,-7,0,0,-1,-2,-1,-1
1509433303075288,-1,0,0,0,-1,-1,-1,-1
1509433303096314,-1,1,-1,0,0,0,-2,-1
1509433303096314,0,1,0,-2,-2,0,-1,1
1509433303098315,-1,-2,-2,-1,-3,0,-2,-2
1509433303098315,0,1,0,-3,0,-1,0,0
1509433303110329,0,-2,-3,-2,-1,-1,0,0
1509433303110329,-1,0,-3,-1,-1,-1,-2,-4
1509433303117333,0,-1,0,-1,-2,-1,-2,-1
1509433303117333,1,2,-1,-5,0,-1,-1,-1
1509433303134353,-3,0,-1,-1,0,1,-1,-4
1509433303134353,-3,2,-2,0,-1,-2,0,0
1509433303135341,2,2,-2,-3,-1,-2,-3,0
1509433303135341,-1,-2,-1,0,1,1,0,-1
1509433303156362,2,0,-3,-2,-1,-1,-1,2
1509433303156362,-2,0,1,0,0,0,-2,1
1509433303158362,-2,-4,0,0,-2,0,-2,-1
1509433303158362,-1,-1,-1,0,-1,0,0,0
1509433303170412,-3,-6,-6,-3,-2,-1,-1,-1
1509433303170412,-5,5,4,0,-1,-1,-2,-2
1509433303177382,1,-3,-3,1,-1,-1,-3,-1
1509433303177382,-1,-2,-4,-1,-2,0,0,0
1509433303194383,-3,-1,-3,0,0,0,0,0
1509433303194383,-1,-3,0,-4,-4,-3,-2,0
1509433303196373,0,-1,2,-2,0,0,0,0
1509433303196373,-3,5,3,-2,0,-1,0,0
1509433303216404,3,1,-2,0,-1,-2,0,0
1509433303216404,-3,-3,-1,1,0,-2,-2,-2
1509433303218405,0,2,-2,-1,-2,-2,0,-1
1509433303218405,-2,-9,-4,0,0,-2,-2,-1
1509433303230413,3,-2,1,-2,-1,-1,-1,0
1509433303230413,0,-3,0,-2,-1,-2,-1,-4
1509433303237418,-3,-3,0,-1,-2,-1,-1,-1
1509433303237418,-1,-3,-3,2,1,-2,1,0
1509433303254428,-3,-3,-1,1,-1,-1,0,-1
1509433303254428,-3,-2,1,-1,-1,0,-2,-1
1509433303255416,2,0,-5,-2,-2,-1,-1,0
1509433303255416,3,13,4,-1,-2,1,2,1
1509433303276474,-3,0,-1,-1,0,1,0,-1
1509433303276474,0,-2,-1,-2,-4,-2,-3,0
1509433303278450,1,0,0,-1,-3,-1,-2,-2
1509433303278450,-9,-2,-1,2,4,0,-1,-2
1509433303290491,-3,1,0,-1,-1,-2,3,-2
1509433303290491,0,-2,0,-2,-2,1,-2,-1
1509433303299500,0,-6,4,-1,-2,-1,-1,0
1509433303299500,2,-3,-3,-1,-1,0,-1,0
1509433303313510,-1,-1,-4,-1,0,1,-2,1
1509433303313510,-4,-3,-2,0,-1,-1,-1,-2
1509433303315511,0,3,-2,0,-1,-1,-3,-2
1509433303315511,1,1,-3,-2,0,-1,0,-1
1509433303336547,-2,-1,0,1,0,0,-1,-1
1509433303336547,4,1,-2,-2,-2,-1,-2,-1
1509433303337547,-3,-4,-2,-2,1,1,-1,-2
1509433303337547,0,-5,-3,-1,1,-2,-1,-1
1509433303349534,-1,-6,-5,-1,-2,-2,-2,-2
1509433303349534,-2,-3,5,0,-1,-2,-1,1
1509433303359554,-3,-5,-2,0,0,0,2,-1
1509433303359554,-2,-1,-3,-2,-1,-3,-1,-1
1509433303373552,-2,-1,-1,-1,-2,-1,0,-2
1509433303373552,-2,-2,-1,-1,-1,0,0,-1
1509433303375557,0,-1,1,0,-1,-3,-2,-1
1509433303375557,0,-2,-4,0,-2,-1,-2,-2
1509433303396567,4,2,-3,-2,0,-1,1,0
1509433303396567,-3,3,-3,-1,-2,0,-1,-1
1509433303397568,-3,3,0,-1,-1,-1,-1,-1
1509433303397568,0,-1,-3,-1,-2,1,-2,-1
1509433303410594,0,0,-2,0,-3,0,-1,1
1509433303410594,1,-1,-1,0,-2,-1,-1,-1
1509433303418594,-3,-1,-1,-2,-1,-1,0,-1
1509433303418594,1,-3,-1,-1,-1,-2,1,1
1509433303433591,0,4,-1,-3,0,0,-1,1
1509433303433591,-3,-1,1,-1,0,-1,-2,-2
1509433303435593,-1,-1,1,0,-4,-2,-2,-2
1509433303435593,-1,-1,-1,0,1,0,-1,-2
1509433303456609,-1,-5,-4,1,0,0,-1,0
1509433303456609,0,8,2,-3,-3,-2,-1,-1
1509433303457608,-2,1,-2,0,-1,0,-2,-2
1509433303457608,-3,-4,-3,0,-1,0,-1,-1
1509433303469657,-2,-4,1,0,-1,-2,0,0
1509433303469657,-2,-3,-3,-2,1,0,-2,-1
1509433303479639,-2,-3,0,-2,-1,-2,-2,-1
1509433303479639,2,-1,-3,-1,-2,-1,0,0
1509433303493667,-3,1,-2,0,-2,-1,-1,0
1509433303493667,2,-1,-1,-3,-4,-1,-2,-1
1509433303496638,-1,-2,-1,0,0,-1,-1,0
1509433303496638,-2,-4,-1,-3,0,0,-1,-1
1509433303516707,-1,2,0,-1,-1,-2,-2,-2
1509433303516707,0,0,-1,0,-1,-3,-1,-1
1509433303517656,-5,-1,1,0,0,0,-2,-2
1509433303517656,2,2,-3,-2,-2,-1,0,0
1509433303529722,1,0,-2,-3,0,-1,0,0
1509433303529722,-4,-3,0,-1,-2,-1,-1,-1
1509433303539673,0,-3,0,0,-1,-1,-3,-1
1509433303539673,-1,0,0,1,1,1,1,-1
1509433303553681,-2,3,1,-4,-2,-2,0,0
1509433303553681,-2,-4,-2,-1,-2,-1,-2,-4
1509433303555682,-2,-1,-1,-2,-1,-1,0,-1
1509433303555682,0,-2,-4,-1,0,-2,0,0
1509433303576733,-1,-3,2,1,0,-1,0,-1
1509433303576733,-5,-3,-1,-1,1,-1,-1,-2
1509433303577708,0,1,-2,-2,-1,-1,-1,-1
1509433303577708,-2,-4,-1,0,1,-1,0,-1
1509433303589717,0,-2,-2,-2,0,-1,1,0
1509433303589717,0,-4,-1,-1,-2,1,-2,0
1509433303598711,3,-2,-1,-2,0,-2,0,-2
1509433303598711,-3,-4,1,-1,1,0,0,-2
1509433303613777,1,-1,-3,-1,-1,0,-1,0
1509433303613777,0,3,2,-1,-1,-4,-2,-1
1509433303615751,0,-2,-3,-2,-2,0,-3,-1
1509433303615751,1,0,-3,0,-1,-2,0,0
1509433303636750,-1,2,-3,0,-3,-1,-2,2
1509433303636750,-3,-2,1,-2,-4,0,-3,-1
1509433303637747,1,-1,-1,0,0,-2,-2,-1
1509433303637747,-3,3,0,-1,-2,-1,0,-2
1509433303649755,-2,-3,0,-1,0,-1,0,-2
1509433303649755,-1,-4,-3,-3,-3,0,0,-1
1509433303658751,-2,5,3,-2,-2,-2,-1,-1
1509433303658751,-1,-1,1,0,1,-3,1,1
1509433303673773,-2,-2,-4,2,-2,-2,-1,-1
1509433303673773,-1,-2,-1,-1,-2,-1,-2,-1
1509433303675771,-2,-1,-1,-1,-2,-2,1,-2
1509433303675771,2,-3,-4,-2,-1,-1,-1,1
1509433303696787,0,3,-1,-1,-1,-1,-2,0
1509433303696787,-1,-1,1,-1,-3,-3,-1,0
1509433303697786,-5,1,2,-2,0,0,-2,-2
1509433303697786,4,3,-5,-2,-1,-2,0,0
1509433303709795,-10,-3,2,0,-1,-1,-1,-2
1509433303709795,0,1,0,-1,-2,-2,-2,-2
1509433303719802,0,-1,-1,-1,0,-3,-1,-2
1509433303719802,1,-1,-4,-1,0,-1,-2,-1
1509433303733834,-1,-1,-2,-1,1,0,-1,0
1509433303733834,0,-1,-2,-3,-3,-1,-1,0
1509433303735826,-1,-2,0,0,1,0,-1,-2
