timestamp,emg1,emg2,emg3,emg4,emg5,emg6,emg7,emg8
1514899937191307,0,-1,0,-1,0,-1,-1,-1
1514899937191307,-1,-1,-1,-2,-2,-1,-1,-1
1514899937197309,-1,-2,-1,-2,-1,0,1,-1
1514899937197309,1,-2,0,-1,-1,0,-2,-1
1514899937213822,-1,-1,-2,0,0,-1,-1,1
1514899937213822,-1,0,-2,-1,-1,-1,-1,0
1514899937215322,-1,-2,-1,-1,-2,-2,-1,-1
1514899937215322,0,-2,0,-2,-2,-2,-1,0
1514899937236838,0,0,-1,-2,1,-1,-1,-2
1514899937236838,-1,-1,-1,-1,-2,-2,1,-1
1514899937238339,-2,-1,-2,0,0,0,-1,-1
1514899937238339,0,-1,-1,-2,-2,0,-3,-2
1514899937250848,-1,-3,-2,-3,-2,-3,-1,-3
1514899937250848,-4,0,-1,-2,-1,-1,-1,-2
1514899937257352,-3,0,0,-1,-2,-1,-2,-1
1514899937257352,-1,-2,-2,0,-1,-1,-2,0
1514899937273863,-1,-2,0,0,0,-1,-1,-1
1514899937273863,0,1,-2,-2,-2,0,-1,0
1514899937275365,0,0,-1,-1,-1,-1,0,-1
1514899937275365,0,-1,-1,-1,1,-2,0,-1
1514899937296379,0,-1,0,-1,0,-2,0,0
1514899937296379,-3,-1,-1,0,-1,1,-2,-1
1514899937297880,-1,-3,-1,-3,-1,-1,-2,-1
1514899937297880,-1,-4,-3,0,-3,0,0,-1
1514899937310890,0,-4,0,-2,-2,-1,-1,-1
1514899937310890,0,0,-2,0,-1,-1,-1,0
1514899937318896,-1,1,-1,-1,-2,0,-2,-1
1514899937318896,-1,-2,-1,-1,-2,-2,-1,-1
1514899937333910,-1,-2,-2,-1,0,-3,-1,-1
1514899937333910,0,-1,-2,-2,-1,-2,-2,-1
1514899937335427,0,1,-1,-1,1,0,-1,0
1514899937335427,-2,-2,-2,-1,0,-1,0,0
1514899937356429,-1,-1,-1,0,-1,0,0,-1
1514899937356429,-1,0,-1,-1,-2,1,-1,-1
1514899937359925,2,0,-2,0,-2,-1,-1,-2
1514899937359925,0,-2,-3,-3,-2,-2,-1,-1
1514899937370933,-2,-3,0,-1,-1,-1,0,0
1514899937370933,-2,-2,-1,-2,-2,1,-1,-1
1514899937377438,-2,-1,0,-2,-1,-2,0,-2
1514899937377438,-1,-1,-2,-1,-1,-2,-1,-2
1514899937393949,-2,0,-2,1,-2,0,-1,0
1514899937393949,-1,2,-1,0,-2,-2,-1,-3
1514899937395462,-1,-2,-1,-2,-4,0,0,-1
1514899937395462,0,-3,1,-2,0,0,0,0
1514899937416965,-2,1,-1,0,-3,0,-1,0
1514899937416965,-3,1,0,-2,-1,-1,-3,-1
1514899937420467,0,-2,-3,0,-1,-1,-2,-2
1514899937420467,-1,-3,-1,-2,1,0,0,0
1514899937430974,-1,-1,-1,-2,0,-2,-1,-1
1514899937430974,-1,1,-2,-1,-2,-1,0,0
1514899937437491,-2,-1,-1,-2,-2,-2,-1,-2
1514899937437491,-2,-3,0,0,-1,-2,-3,-2
1514899937454000,-1,-2,-1,-1,-1,1,0,0
1514899937454000,-2,2,-1,-2,-1,0,-1,-1
1514899937455501,0,0,-1,-3,-2,-1,-3,1
1514899937455501,-1,-3,-1,0,0,-1,0,2
1514899937476507,0,-1,0,-2,-2,-2,0,0
1514899937476507,-3,-1,-1,0,1,-2,-2,-2
1514899937478008,-1,0,-1,0,-1,0,-1,-1
1514899937478008,-1,-2,0,0,-2,0,-2,-1
1514899937490517,-1,-4,-2,-2,0,-1,-2,0
1514899937490517,0,2,-2,-1,0,-1,-1,-2
1514899937497534,-1,1,-2,-1,-2,0,1,-2
1514899937497534,-1,-3,-1,0,-1,-2,-1,0
1514899937515034,-1,-3,-1,-1,0,-2,-1,-1
1514899937515034,1,0,0,-2,-3,-2,-1,1
1514899937518550,-2,-1,-2,1,1,-2,0,-2
1514899937518550,-2,0,-2,-1,-1,-1,0,-2
1514899937536549,1,-3,-1,0,-1,1,-1,0
1514899937536549,-1,-3,0,0,-2,-2,-1,-1
1514899937538050,0,-1,-1,-1,-1,1,-2,-2
1514899937538050,-1,-1,-1,-1,-1,0,-1,-1
1514899937550060,-1,-2,-1,-1,0,0,-2,-1
1514899937550060,1,-3,-1,0,0,0,0,1
1514899937560075,0,2,0,0,1,-2,-1,0
1514899937560075,-1,0,0,1,-1,-3,-2,-4
1514899937574597,-2,-2,-2,0,0,0,0,-2
1514899937574597,-1,-2,-1,-2,-2,0,-3,-2
1514899937576098,-1,0,-1,-2,-2,-1,0,-1
1514899937576098,-1,0,0,-2,-1,0,0,-1
1514899937596613,0,-1,-1,0,-2,-1,0,0
1514899937596613,-2,-3,0,-1,-1,0,0,-1
1514899937598114,-2,1,-1,-2,-1,-2,-1,-1
1514899937598114,0,0,-4,-3,-1,-1,-1,0
1514899937610123,0,-4,0,-2,-1,-4,-2,-1
1514899937610123,-1,-2,-2,-1,0,-1,-1,0
1514899937621131,-1,0,0,0,0,-2,-1,-3
1514899937621131,0,0,-2,-2,-1,-3,-2,-2
1514899937633157,0,-3,-1,-1,-1,-2,-1,0
1514899937633157,-1,-2,-1,-2,-1,-1,0,-2
1514899937634155,-1,1,-1,-1,-3,0,-2,-1
1514899937634155,-2,-1,-2,-1,-1,-1,-1,-1
1514899937655656,0,-3,0,-2,-1,-2,-2,-2
1514899937655656,0,-1,-1,0,-1,-1,-1,-1
1514899937656154,-2,-1,-3,-2,-1,0,1,-3
1514899937656154,-1,-1,0,-1,-1,-1,-2,-2
1514899937678683,-1,-2,0,-1,-1,-1,-1,-1
1514899937678683,-1,-1,0,0,-2,-1,0,2
1514899937679684,0,2,-2,-1,-1,0,-3,0
1514899937679684,-1,-2,-2,-2,-1,-1,-1,-1
1514899937693190,-2,-2,-1,1,1,-1,-1,0
1514899937693190,-1,-1,-1,0,0,-1,-1,-1
1514899937693683,-2,-1,-2,0,0,1,0,-1
1514899937693683,-2,-1,1,0,-1,-2,-1,1
1514899937716198,-1,-3,-2,-1,-1,0,-1,0
1514899937716198,-1,-1,-2,0,-2,-2,0,-1
1514899937718198,0,1,-1,-3,1,-1,-1,-2
1514899937718198,0,-1,0,0,-2,-2,0,-1
1514899937738714,-1,-2,0,-1,-1,-3,2,0
1514899937738714,-1,-1,-2,-2,-3,-1,-1,-1
1514899937739715,0,3,-3,-1,-2,-2,0,-1
1514899937739715,-1,-1,-1,-1,-1,-1,0,-1
1514899937753223,1,-1,-1,-2,-1,-3,0,0
1514899937753223,0,-2,0,-1,1,0,-2,0
1514899937754223,-2,0,0,-2,-2,-2,-1,-2
1514899937754223,-1,0,-1,-1,-3,0,-3,-2
1514899937775739,-1,-3,-2,0,0,-2,-1,-1
1514899937775739,0,-1,-1,-1,-1,-2,0,-2
1514899937776249,-2,-2,-1,-2,-2,-2,-1,-2
1514899937776249,0,-3,0,-1,-1,-2,0,-2
1514899937798756,-1,-4,-1,-2,0,1,-2,0
1514899937798756,-1,1,-2,-1,-3,0,-1,-2
1514899937799756,0,2,-1,-1,-2,-2,-1,1
1514899937799756,-1,-1,-2,-2,0,1,-1,0
1514899937813766,-1,-2,-2,-1,-2,1,-1,0
1514899937813766,-2,-1,-1,1,-2,0,-2,1
1514899937815770,-2,0,-1,-1,-2,-1,-2,-2
1514899937815770,1,0,0,-1,-1,-1,-1,-1
1514899937835282,0,-1,-1,-1,-2,-1,-4,-2
1514899937835282,-2,0,-1,-1,0,0,0,-3
1514899937843288,0,-2,0,0,0,-1,-2,-1
1514899937843288,0,-2,-4,-1,-2,0,-1,-2
1514899937858798,-1,-1,-2,1,-2,-1,0,-3
1514899937858798,0,-1,-1,-1,0,-2,-2,-2
1514899937859799,-1,-2,0,-1,-1,1,-1,-3
1514899937859799,0,-2,-1,-2,0,-2,0,-1
1514899937881315,-1,-3,0,0,-1,-2,1,0
1514899937881315,-2,1,-3,-2,-3,-1,-2,-1
1514899937882315,-2,1,-2,0,-2,0,0,0
1514899937882315,-2,-2,-1,-2,0,-1,-1,0
1514899937895825,-1,0,0,-1,-1,-1,-3,1
1514899937895825,-2,0,-2,-1,0,-2,-1,-1
1514899937896333,-1,-1,-3,-1,-2,-1,-1,-2
1514899937896333,-2,-2,0,0,0,-1,-3,-3
1514899937919844,1,-2,-2,1,-1,-2,0,1
1514899937919844,1,-2,-1,-1,-1,-1,-1,0
1514899937921344,-2,0,-2,-1,-2,1,-1,-1
1514899937921344,-1,-1,0,0,-1,-1,-1,-1
1514899937934352,-2,-3,-1,-3,-1,0,-1,-2
1514899937934352,0,0,-2,0,-1,0,-1,-2
1514899937936354,-1,-1,0,-1,0,-1,0,-2
1514899937936354,-1,-2,-2,0,-2,-1,-3,1
1514899937955872,-2,-3,-1,-1,0,1,-1,-1
1514899937955872,-2,-1,-1,-2,-1,0,-1,-1
1514899937963372,-1,0,-2,-3,-1,-1,-2,-3
1514899937963372,0,-1,-2,-1,0,-2,-2,0
1514899937978883,-1,-1,0,-1,-1,-2,-1,-1
1514899937978883,-3,0,-3,-2,-1,-1,-2,-2
1514899937979885,-1,0,0,-1,-1,-1,0,-2
1514899937979885,0,-1,0,-2,-2,-2,0,-2
1514899937993393,-1,-1,-1,-2,-1,0,-1,-3
1514899937993393,-1,0,-1,-1,-1,-1,-1,-3
1514899937993894,-1,1,-1,0,-1,-1,-3,0
1514899937993894,-1,-2,1,-2,-2,-1,-1,-1
1514899938015911,-1,-2,-1,0,-1,-2,-2,0
1514899938015911,1,-2,-2,-2,-2,0,-1,-1
1514899938016412,-2,0,-1,-2,0,-1,-1,-1
1514899938016412,0,-2,-1,1,-1,-1,-1,-1
1514899938039427,0,-2,-1,0,0,-1,1,-2
1514899938039427,-1,0,1,-1,-2,-1,-2,-1
1514899938039929,1,1,-1,0,-1,0,-2,1
1514899938039929,-1,-1,-2,-1,0,-1,-1,0
1514899938053440,-1,-3,-2,-2,0,-2,0,-2
1514899938053440,-1,-1,0,1,-2,-1,-1,-2
1514899938054439,-1,-1,-1,-1,-3,-1,-2,0
1514899938054439,-1,-2,-1,-1,-2,-1,-1,0
1514899938075452,-1,-1,-1,1,0,-3,-2,-1
1514899938075452,-1,0,0,-1,0,-1,0,0
1514899938076451,-2,0,-1,-1,-2,-1,-1,-3
1514899938076451,0,-2,-1,0,-2,-2,0,-2
1514899938098968,0,-1,-2,0,-2,0,-1,-2
1514899938098968,-2,-1,0,-2,0,1,-3,-2
1514899938099971,0,-2,-1,0,-2,-2,-2,-2
1514899938099971,-2,-2,-2,-1,0,-2,-1,-1
1514899938113479,0,-2,-2,-2,0,-1,-1,-2
1514899938113479,-3,0,-1,1,-1,-1,1,-2
1514899938114487,-2,-2,0,0,-2,-2,-2,0
1514899938114487,0,-1,-1,-2,0,-1,-1,-2
1514899938135495,0,-2,-1,-1,1,-1,-1,1
1514899938135495,-1,0,-2,-3,-2,0,-1,0
1514899938136497,-1,-1,0,-1,0,0,-1,-1
1514899938136497,-1,-2,-1,-2,-1,-2,-2,-1
1514899938159011,-2,0,0,-3,-2,1,1,0
1514899938159011,0,-1,-3,0,-1,-3,-2,-1
1514899938159510,-1,-2,-1,-2,0,-1,-1,-1
1514899938159510,0,-2,0,0,-2,-1,-2,-1
1514899938173520,0,0,0,-1,-1,-1,-2,-1
1514899938173520,1,-2,-1,-2,-1,-2,1,-2
1514899938175023,-1,-1,-1,-3,-2,-2,0,-2
1514899938175023,-2,-4,0,0,1,-1,-1,0
1514899938195537,-2,-1,-2,-1,0,-2,-3,-2
1514899938195537,-1,0,-1,-1,0,0,0,-1
1514899938196540,0,0,-2,-3,0,-1,-2,-2
1514899938196540,0,0,-1,-1,-2,0,1,0
1514899938219054,0,-2,1,0,0,0,0,0
1514899938219054,0,-3,0,-2,0,0,-2,-2
1514899938220054,-1,-2,-2,-1,-1,-1,-2,-2
1514899938220054,-1,-3,-1,0,0,-2,-1,-1
1514899938233063,-2,0,-1,0,-2,-1,0,-2
1514899938233063,-1,0,-2,-1,-1,-1,0,-2
1514899938234564,0,-1,0,0,-1,-2,-2,0
1514899938234564,-1,-2,-1,0,-3,-3,-2,-2
1514899938256079,-2,1,2,0,-2,-1,-1,0
1514899938256079,-1,1,1,-2,-1,-3,-2,-1
1514899938257084,-1,1,-2,-1,0,-1,-1,0
1514899938257084,-3,-1,-1,0,0,-1,0,-1
1514899938279596,-1,-2,-1,-1,-3,-1,-1,0
1514899938279596,-1,-2,-3,-3,-1,-1,-1,0
1514899938281097,0,0,-2,0,-1,-1,-1,-1
1514899938281097,-2,-1,-1,-1,-1,0,-1,-2
1514899938293106,2,-2,-1,-1,-1,-2,1,-2
1514899938293106,-2,0,-1,1,-1,-2,-1,-1
1514899938294106,1,-2,0,0,0,0,-1,0
1514899938294106,1,-2,-2,-1,0,-1,-1,0
1514899938323127,-1,-1,-1,-3,0,-1,0,0
1514899938323127,-3,0,0,-1,0,-1,0,1
1514899938330631,-1,-2,-2,-1,-2,0,0,-1
1514899938330631,-2,-1,0,0,-2,1,-1,-1
1514899938339137,-1,-2,-2,-1,-2,0,-2,0
1514899938339137,1,-1,-1,0,-1,-1,-2,-1
1514899938339637,-1,2,-3,-2,-2,-2,-1,-2
1514899938339637,0,-1,0,-1,-1,1,-1,-1
1514899938353150,-1,-3,-1,-1,-1,-2,-1,-2
1514899938353150,-1,-1,0,-1,-2,1,-2,-1
1514899938354149,-1,-1,0,0,-1,-1,-1,-1
1514899938354149,0,-2,-1,-1,0,-1,-1,-1
1514899938376202,-2,-2,-2,0,0,1,-1,-1
1514899938376202,1,1,-1,-2,-1,-2,-2,-2
1514899938376703,-2,-1,-1,-2,-2,-1,-1,-3
1514899938376703,0,-2,-2,-3,-1,-1,0,0
1514899938398718,-1,-2,-1,-1,-1,0,-1,0
1514899938398718,-2,-1,-1,-1,-2,1,0,-1
1514899938400219,-2,-3,0,0,-3,-2,0,0
1514899938400219,-2,-4,0,-1,-1,-1,-1,-2
1514899938412727,0,-1,-1,-1,-1,-1,-1,-2
1514899938412727,-1,1,-2,-1,0,0,0,0
1514899938420733,0,-1,-2,-1,-1,-1,-2,-1
1514899938420733,0,-2,0,-1,0,0,-1,0
1514899938435743,-2,0,-1,-1,-1,-2,-1,0
1514899938435743,1,-2,-2,-1,-2,-2,-1,-1
1514899938436244,-2,0,-2,-1,0,-1,0,-1
1514899938436244,0,-1,-3,0,-2,-3,-1,-1
1514899938458759,-2,0,-1,-2,-1,0,0,-1
1514899938458759,-1,0,-1,0,-1,-2,0,-1
1514899938460761,-2,-1,-1,-2,-1,-1,-1,0
1514899938460761,0,-1,-2,0,-1,-2,-1,-1
1514899938473270,0,-1,-1,0,-2,0,-1,-1
1514899938473270,-1,0,-1,0,-2,-2,-3,-3
1514899938473770,-1,0,-1,1,-1,-3,-1,-2
1514899938473770,-2,0,-1,-2,-1,-1,-1,-1
1514899938495787,-1,-1,0,-2,-2,-3,1,0
1514899938495787,0,-1,0,-1,1,0,-1,-1
1514899938496286,0,-3,0,-1,0,-1,-2,0
1514899938496286,0,-1,0,1,-1,-2,-1,-2
1514899938519803,-1,0,-1,-1,1,1,-4,0
1514899938519803,-1,0,-3,-1,-2,-1,1,-1
1514899938521304,-1,-1,-1,-1,0,0,-1,-3
1514899938521304,-3,-2,0,-1,-1,0,-1,-1
1514899938533313,0,2,-2,-1,0,-1,-1,-1
1514899938533313,-1,2,-1,-1,-1,-1,-1,-2
1514899938533814,-2,-1,-1,0,-1,-1,0,-1
1514899938533814,-1,-1,0,-1,-1,0,0,0
1514899938555839,-2,-1,-4,0,-1,-1,-1,0
1514899938555839,-1,-2,-1,0,-3,-1,-1,-1
1514899938556330,0,-1,-2,-1,-1,-1,-1,-2
1514899938556330,-1,-3,1,-1,-2,-1,-1,0
1514899938578904,0,-2,0,-1,-2,-3,-2,0
1514899938578904,-1,-1,-2,0,0,0,0,1
1514899938579404,-2,0,-1,-2,-1,-1,-1,-1
1514899938579404,-1,-1,0,0,0,-1,1,-1
1514899938592419,0,-2,0,-2,-1,-2,0,-3
1514899938592419,-1,-3,-2,-2,-1,1,-1,-1
1514899938600921,-1,-1,-1,-2,-2,-1,-1,-1
1514899938600921,0,0,-2,-1,-2,-3,-1,-2
1514899938617431,0,-1,0,-1,-1,0,0,-1
1514899938617431,0,0,-2,-1,0,-1,-1,0
1514899938622936,-2,0,-2,-2,0,0,-1,-1
1514899938622936,-1,-2,-3,-1,-1,0,-2,-2
1514899938638949,-1,-2,0,0,0,-1,-1,1
1514899938638949,-1,-1,-1,-2,-2,-3,-1,-1
1514899938639447,-3,0,-4,-2,-2,-1,-2,-1
1514899938639447,0,-4,-1,-1,-1,0,-1,-2
1514899938652457,-1,-2,-1,0,0,0,1,-1
1514899938652457,-2,0,-1,1,-1,1,-1,-2
1514899938660971,0,0,0,-2,-3,0,-1,-1
1514899938660971,0,0,-1,-2,-2,-1,-1,0
1514899938675514,0,-1,0,-2,-1,1,-1,0
1514899938675514,-1,1,-1,-2,0,-2,-1,0
1514899938676515,0,0,0,0,-3,-1,0,-2
1514899938676515,-3,-2,1,-2,0,-2,-1,-3
1514899938699024,-2,0,0,0,-1,-2,0,-1
1514899938699024,-1,0,-2,-1,-2,0,-2,-1
1514899938700022,0,-1,-1,-1,0,-2,0,-2
1514899938700022,1,-4,-1,-2,-1,-2,-2,-1
1514899938712534,-1,-3,-2,0,-1,-1,-1,0
1514899938712534,-2,0,1,-1,-2,-1,-1,-1
1514899938720538,-2,0,-2,-1,-2,-1,0,-1
1514899938720538,0,0,-2,-1,-1,0,-2,-1
1514899938735548,0,-3,-1,0,-2,-1,-1,0
1514899938735548,-3,-2,-2,-1,-2,-2,-1,-2
1514899938736549,-2,1,-1,-2,-2,-1,-2,-2
1514899938736549,0,-1,0,0,0,0,-2,-1
1514899938758564,-1,-1,-1,-2,-1,-1,-4,-1
1514899938758564,0,1,1,0,-2,-2,-1,1
1514899938759564,0,0,-1,0,-2,0,0,-2
1514899938759564,-1,-2,-1,0,0,-1,-2,-1
1514899938772574,0,-2,-2,0,-1,-2,-1,-1
1514899938772574,0,0,-1,-1,-1,0,-1,-2
1514899938780579,-1,-1,-1,-3,0,-1,-2,0
1514899938780579,-1,-1,-2,-2,-3,0,-1,0
1514899938795590,-1,1,0,-1,-1,-3,-2,-1
1514899938795590,-4,0,-3,-1,-1,-1,-1,-2
1514899938796600,0,-1,0,0,0,-1,-1,-2
1514899938796600,0,-1,0,0,-1,-1,0,-2
1514899938819107,0,-2,-1,-1,-1,-2,-1,0
1514899938819107,-3,-2,-1,-1,-1,-1,-3,-2
1514899938820107,-2,-1,-1,-1,-2,-1,-3,-1
1514899938820107,-1,-4,-2,-2,-1,-2,-1,-2
1514899938841122,-4,-1,0,0,-1,1,1,0
1514899938841122,1,0,-1,-1,-2,0,-1,-1
1514899938843124,-1,-1,-2,-1,-1,-1,0,-2
1514899938843124,1,-1,0,0,-1,-3,0,-1
1514899938855632,-1,-1,-2,-3,-1,-3,-2,-2
1514899938855632,0,-1,-1,0,0,-1,0,1
1514899938856133,0,0,-2,-2,-1,-1,-3,-2
1514899938856133,-2,0,-1,0,-3,-2,-2,0
1514899938878660,0,-2,0,-2,-2,-2,0,-1
1514899938878660,-4,-1,-2,-2,1,-1,-1,-1
1514899938879661,0,-1,-2,-1,0,0,1,-3
1514899938879661,-1,-3,-1,0,0,-1,-1,-2
1514899938892668,-1,-2,0,-2,0,0,0,-1
1514899938892668,-1,1,0,1,-1,-2,-1,0
1514899938900663,0,0,-1,-1,0,0,-2,0
1514899938900663,-1,-2,-2,-1,0,-1,-2,-1
1514899938916677,-1,-1,-1,1,-2,-1,-1,-3
1514899938916677,-1,0,1,-4,-3,0,-2,-1
1514899938918193,-3,-2,0,-1,-1,-2,-2,-1
1514899938918193,-2,-1,-2,0,-2,-1,-1,-1
1514899938938701,0,-1,-1,-1,-1,0,1,0
1514899938938701,0,-1,-1,-1,-1,-1,0,-1
1514899938939692,0,-1,-1,-1,-2,0,-1,0
1514899938939692,-1,-2,-1,-2,-3,-1,0,-2
1514899938961206,-4,0,0,-1,-1,-1,-1,0
1514899938961206,-2,0,-1,-1,0,-1,-1,0
1514899938962217,-2,-1,-1,0,0,0,-1,-1
1514899938962217,-1,-1,-3,-2,-1,0,0,0
1514899938975717,-1,-1,-1,-2,0,-1,-2,0
1514899938975717,1,0,0,-1,-1,-2,-2,-2
1514899938976218,-1,0,-2,-1,-2,-3,1,0
1514899938976218,1,-3,1,0,0,-1,0,-2
1514899938998734,0,-3,0,0,-1,-1,-1,0
1514899938998734,-1,1,-2,-1,-2,-2,0,-1
1514899939000237,-1,-1,-2,-1,-1,-1,-2,-1
1514899939000237,-2,-2,-1,-1,1,-2,-1,-2
1514899939021249,0,0,-1,-1,0,0,0,-1
1514899939021249,0,0,0,-1,-1,-1,-2,0
1514899939022250,-1,-1,-1,-1,-2,-1,0,-2
1514899939022250,-1,-3,-1,0,-1,-2,-1,-1
1514899939035772,1,-3,-1,1,-1,-1,-1,-2
1514899939035772,0,-1,-1,0,-2,-1,0,-3
1514899939036778,-2,-1,0,-1,-1,0,0,-2
1514899939036778,-1,-3,-1,0,0,-1,-1,0
1514899939058776,-2,1,-1,-1,-1,-2,-1,1
1514899939058776,-2,1,-2,-2,0,0,-1,-2
1514899939059777,0,-3,0,0,-2,-3,-2,0
1514899939059777,-2,0,0,0,1,0,1,0
1514899939081304,-2,-1,-2,-1,-2,1,-1,-2
1514899939081304,-2,-1,-2,1,-2,1,1,-2
1514899939082306,-1,0,-1,-2,-1,-3,-2,-2
1514899939082306,0,-1,-1,-3,-1,-3,-2,-1
1514899939095301,0,0,-1,-1,0,-2,-2,-3
1514899939095301,-1,1,-3,-1,-2,0,-3,-1
1514899939096302,0,-2,-2,1,0,-2,-1,-2
1514899939096302,0,-1,0,-3,-3,-1,0,-1
1514899939119819,0,0,-2,0,-1,-1,-1,-2
1514899939119819,1,-2,-1,-2,-2,-1,0,-1
1514899939121820,0,-1,0,-3,0,-3,0,1
1514899939121820,-2,-2,-1,-1,-1,-2,-2,-2
1514899939141346,0,-1,0,0,0,-2,-1,-1
1514899939141346,0,0,0,-1,-1,0,-1,-1
1514899939142347,-2,-2,-1,0,-2,0,-1,0
1514899939142347,0,-2,1,-1,-1,-1,-1,-1
1514899939163872,-3,-1,0,-1,-1,-2,-1,-3
1514899939163872,-1,1,-1,-1,-1,-2,-2,0
1514899939164855,-1,-3,0,-1,-1,0,-1,-1
1514899939164855,-1,-3,-3,-2,-1,0,1,0
1514899939178870,-2,1,0,-1,0,-1,0,-1
1514899939178870,-1,0,-1,-1,-2,-1,0,-1
1514899939179861,-2,-1,-3,-2,-2,-1,-1,1
1514899939179861,-2,-2,-2,-1,0,-2,-1,-2
1514899939201377,-1,-2,-3,-2,-2,0,0,-1
1514899939201377,-2,-1,0,-1,-1,-2,-2,-2
1514899939201882,-1,-1,0,0,0,0,-1,-1
1514899939201882,-1,-1,-1,0,-1,-2,0,0
1514899939215888,-1,0,-1,-3,-2,-1,0,-1
1514899939215888,-1,0,-3,-2,0,-1,0,-2
1514899939217388,-1,-1,-3,-1,-2,-1,0,-3
1514899939217388,-2,-2,0,-1,0,0,-1,0
1514899939246424,-1,0,-1,0,0,-2,-1,-1
1514899939246424,-2,-1,0,-1,-2,-1,-2,-1
1514899939246909,-1,-1,-2,-1,0,-3,-2,-3
1514899939246909,0,-3,-2,0,-3,-2,0,-2
1514899939261434,-2,-2,-1,1,-1,-1,0,0
1514899939261434,-1,1,-1,-2,-2,-1,0,-3
1514899939261919,-2,0,0,-1,-1,-2,-1,-1
1514899939261919,0,-3,-3,-1,-1,-2,-2,0
1514899939275428,-2,-1,0,0,-1,-1,-2,0
1514899939275428,0,0,-1,0,-1,0,-2,-1
1514899939276429,-1,-2,-1,-3,-2,-2,0,-1
1514899939276429,0,-2,-3,-1,0,-1,-2,-1
1514899939298947,-1,0,-1,-1,-2,1,0,0
1514899939298947,-3,0,-2,-1,-1,-2,0,-2
1514899939299446,-1,-3,-1,-1,0,1,-1,0
1514899939299446,-2,-2,0,-2,0,-1,-1,-3
1514899939321961,-2,0,0,-2,0,0,0,-2
1514899939321961,0,0,-2,0,-3,1,-1,-2
1514899939322462,-1,-2,-1,-1,-2,-1,0,-1
1514899939322462,-1,-2,-1,1,-1,-1,0,0
1514899939335484,-1,1,-2,-1,0,-1,-2,-1
1514899939335484,0,0,-1,0,-2,-1,-2,-1
1514899939336484,0,-1,-1,1,-1,1,-1,-2
1514899939336484,-3,-2,0,1,0,-1,-1,1
1514899939358994,0,0,-2,-1,0,-2,-1,-3
1514899939358994,-1,0,0,-2,0,0,0,-2
1514899939359491,-2,0,-1,-2,0,1,-1,-1
1514899939359491,-1,-3,0,-1,0,-3,-1,-2
1514899939381042,0,-1,-1,-2,-1,-1,-1,0
1514899939381042,-1,1,-2,-1,0,-2,-1,-1
1514899939382005,1,-1,-1,-2,-2,-1,0,-1
1514899939382005,-2,-3,-1,-2,-1,0,0,-1
1514899939395516,-2,-2,0,-1,-1,-2,-2,1
1514899939395516,-1,-1,-1,-2,-2,0,0,-1
1514899939396517,-1,0,0,1,0,-2,-1,0
1514899939396517,0,-2,-1,-1,-3,-2,-2,-2
1514899939419030,-1,-1,-1,0,-2,1,0,-2
1514899939419030,-2,-1,-1,-1,-1,0,0,-1
1514899939420532,-2,-5,0,-1,-2,-3,-3,-2
1514899939420532,-1,-2,0,-1,-1,-1,-1,0
1514899939441058,-3,0,-1,0,-2,-2,-1,1
1514899939441058,-1,-1,-1,-3,-1,0,-1,-2
1514899939442058,-1,0,-1,-1,-2,-1,-2,0
1514899939442058,2,-3,-2,-2,-2,-2,-2,0
1514899939456057,-1,0,-1,-1,-2,-2,-1,0
1514899939456057,-2,1,-1,-1,-1,-3,-1,-1
1514899939457058,-1,-3,-2,-1,1,-3,1,-1
1514899939457058,-1,-3,-3,-3,0,0,0,-1
1514899939478573,-1,0,0,-2,-1,1,-1,-1
1514899939478573,-2,1,-1,0,-1,-1,-1,-1
1514899939479573,-1,-1,-2,-1,-1,0,0,0
1514899939479573,0,-1,-1,0,1,-3,0,-1
1514899939501098,-2,-2,-1,-2,-1,0,-1,0
1514899939501098,-1,0,-2,0,-1,-2,-1,0
1514899939502090,0,-2,-1,-2,0,-1,-3,1
1514899939502090,-1,-2,-1,0,-2,-1,-1,0
1514899939515098,-1,-1,-2,-1,0,-3,-1,-1
1514899939515098,-2,0,0,-2,0,-2,0,-1
1514899939523104,-2,0,-2,-1,-2,1,0,-1
1514899939523104,-1,-1,-1,-1,-1,0,-1,-2
1514899939538616,0,1,-2,-1,-1,0,0,-3
1514899939538616,-1,0,-2,-2,-1,-1,-1,-1
1514899939539628,-1,-3,0,-1,-1,1,-1,-1
1514899939539628,-3,-2,0,-3,-2,1,-2,0
1514899939561185,-1,-1,-1,-3,-2,0,0,0
1514899939561185,0,-1,-1,-1,-1,-1,-1,-1
1514899939562174,0,-3,-2,0,-1,-2,0,-1
1514899939562174,-1,-2,-1,0,-1,-2,-1,1
1514899939583698,-1,0,-1,-1,-2,-1,0,-2
1514899939583698,-1,3,-2,-1,-1,-2,0,-2
1514899939584690,-1,-1,0,0,1,-3,-1,-1
1514899939584690,0,-1,-1,0,-1,1,0,1
1514899939598708,0,1,-1,-1,0,0,0,-2
1514899939598708,-2,0,-1,-2,-1,-2,-3,-2
1514899939599701,-2,-2,1,-2,-3,0,0,0
1514899939599701,-1,-2,0,-1,0,-2,-2,-2
1514899939621216,-4,-1,0,-1,-1,-2,-2,-1
1514899939621216,-1,0,-1,-1,-2,0,0,0
1514899939623218,-1,-3,-2,-1,0,0,-2,1
1514899939623218,0,-1,-3,-1,-1,-3,0,-1
1514899939634725,0,1,-1,0,-2,-1,-1,-1
1514899939634725,0,0,0,-1,-3,0,-1,-3
1514899939644231,-2,-1,-3,-1,0,-1,1,-2
1514899939644231,0,-2,-1,1,-1,-2,2,-1
1514899939658754,0,-2,-2,0,-2,-1,-1,-3
1514899939658754,-1,0,-1,-1,-2,-1,0,-1
1514899939659754,-1,-2,0,-1,0,-2,-1,0
1514899939659754,0,-3,-1,-2,1,1,0,0
1514899939681296,-3,1,-1,-1,0,-1,-3,-1
1514899939681296,0,0,-1,0,-1,0,-2,-1
1514899939682268,-1,0,0,-1,-2,-3,-1,-3
1514899939682268,0,-2,-2,-3,0,-2,-1,-1
1514899939694789,-1,-1,-2,-3,0,-2,0,-1
1514899939694789,-2,1,-2,-1,-1,-1,-2,-2
1514899939703273,-1,-2,-1,-1,-1,-2,-2,-2
1514899939703273,-1,-1,0,1,-2,-1,-1,-1
1514899939719785,0,-1,-2,-1,0,1,-1,0
1514899939719785,-3,-1,-1,-3,1,-1,0,-2
1514899939720286,-1,0,0,-1,-2,0,-2,0
1514899939720286,-2,-2,-1,-1,-2,0,-1,-1
1514899939740313,-2,0,-1,-2,-2,-1,0,-2
1514899939740313,-2,1,-2,-2,-1,-2,-1,-2
1514899939749307,0,-4,-1,-1,0,-1,-2,-1
1514899939749307,-1,-2,0,0,-2,0,0,-1
1514899939754810,0,-1,0,-1,-1,0,0,-3
1514899939754810,-1,-1,-1,0,-1,-1,0,0
1514899939763816,0,0,-1,0,-3,-2,0,-1
1514899939763816,-1,-1,-2,-1,-1,-1,-2,1
1514899939778839,-1,-1,-1,-1,-1,-3,-1,0
1514899939778839,0,1,-1,-1,-2,-1,-1,-1
1514899939780340,-1,-3,-3,-2,1,-1,-1,-1
1514899939780340,0,-2,-1,0,0,0,-3,-1
1514899939802343,-1,-1,-2,-1,-1,-2,-2,-2
1514899939802343,1,0,-2,-1,-1,-1,0,-2
1514899939805849,-1,-1,0,-1,-1,-1,-1,-2
1514899939805849,-2,-3,-1,-1,-1,-2,-1,1
1514899939814855,-1,-2,-1,0,0,-1,-1,0
1514899939814855,-2,1,-3,-1,-2,0,-1,-1
1514899939823858,0,-2,-2,-1,-3,-1,0,0
1514899939823858,-1,-3,-1,-1,-1,-1,0,0
1514899939838869,0,0,-1,-1,-1,1,-3,0
1514899939838869,-1,-2,1,-1,-1,-2,0,-1
1514899939840371,0,0,-1,-1,-2,-1,-1,-3
1514899939840371,0,-3,-2,-1,0,0,1,0
1514899939861385,-1,-1,-2,0,-2,0,-1,-2
1514899939861385,-2,0,-1,0,1,2,-1,0
1514899939862886,0,-1,-1,-2,0,-2,-1,-2
1514899939862886,1,-3,0,0,0,-2,0,-1
1514899939891418,-1,1,0,-2,-1,0,0,2
1514899939891418,-1,0,-1,-2,-3,0,-3,-3
1514899939892907,0,-1,-2,0,-2,-1,-1,-1
1514899939892907,-1,-2,-1,-2,0,-1,-2,-2
1514899939898931,-1,-2,-2,-1,-1,-1,0,-2
1514899939898931,-2,0,-1,-2,-2,-2,-1,0
1514899939901423,0,-4,-1,-2,-1,-1,0,-1
1514899939901423,-2,-3,-1,-2,-1,-2,-3,-1
1514899939922428,0,0,-2,-1,0,0,-1,-2
1514899939922428,-1,-1,-2,-2,-1,-4,0,-1
1514899939923929,0,-1,-1,0,0,1,-3,-2
1514899939923929,0,-1,-1,0,0,-3,0,1
1514899939943943,-1,-3,-2,-3,-1,-1,-1,-2
1514899939943943,-2,0,0,0,0,-1,0,-2
1514899939945444,-2,-1,-2,-2,0,-2,0,1
1514899939945444,0,-2,-1,0,-1,0,-1,-1
1514899939957953,-2,1,-1,0,-3,-1,-1,1
1514899939957953,-1,0,-2,0,-3,-1,-4,-3
1514899939964958,-1,-1,1,-1,-2,-1,-1,-1
1514899939964958,-2,-3,-2,-2,-1,0,3,-2
1514899939981470,-1,0,0,-1,-2,-3,-5,-1
1514899939981470,-1,-1,-1,-3,0,-1,-1,-2
1514899939982974,-1,-2,-1,-3,-1,-2,-4,-2
1514899939982974,1,0,1,0,-1,1,7,14
1514899940003995,-3,-1,-1,-3,-3,-2,-7,-23
1514899940003995,-2,1,-1,-1,-1,-2,-1,-2
1514899940007491,-1,-2,-2,1,0,0,-2,-4
1514899940007491,0,-2,0,-1,-1,-1,-4,-5
1514899940019009,-4,-1,-2,-1,-1,-2,1,5
1514899940019009,-1,0,-3,1,-1,0,0,1
1514899940025003,-1,-2,-2,-2,0,-1,1,-3
1514899940025003,0,0,-1,0,1,-1,-1,2
1514899940041512,-2,0,-3,-1,-1,0,2,3
1514899940041512,-1,0,0,-2,-1,-2,-2,-3
1514899940044017,-3,-1,0,-2,-2,-1,1,3
1514899940044017,-1,0,-2,-2,-3,-2,-4,-4
1514899940071033,0,0,-1,-1,-2,-3,0,4
1514899940071033,0,-3,-2,-2,-3,-1,-3,-1
1514899940073034,0,-2,-1,0,-1,-1,0,0
1514899940073034,-2,-2,0,-1,1,0,-2,-5
1514899940078055,-2,-1,-1,-1,-1,1,1,2
1514899940078055,-1,1,-1,-2,-2,0,0,2
1514899940085060,-1,-2,-1,-2,-2,0,1,0
1514899940085060,-1,-3,-1,-2,-2,-4,-2,-4
1514899940101554,-1,0,0,1,1,-2,0,2
1514899940101554,-1,0,-1,-1,0,1,0,0
1514899940103569,-1,-4,-1,-1,-1,-3,-1,-2
1514899940103569,-2,-2,-2,-1,-1,-1,-1,-1
1514899940132076,0,-1,-3,1,-1,0,-1,-1
1514899940132076,-1,1,-1,-2,-1,0,-2,0
1514899940135579,-3,-2,-2,-1,-2,-2,-2,-2
1514899940135579,-2,-3,-2,1,-1,-3,0,-2
1514899940139103,-1,0,0,0,-3,-1,-2,0
1514899940139103,-1,0,-1,-2,0,-2,0,-1
1514899940145085,1,-2,-2,-1,-3,0,0,0
1514899940145085,-1,0,1,-2,-3,0,-1,-1
1514899940161097,-1,-1,-1,0,0,0,-2,-1
1514899940161097,1,0,-1,-1,0,-1,-3,-2
1514899940163098,-3,-1,0,-3,-1,-1,-3,0
1514899940163098,0,-1,-1,-2,0,-2,-2,-2
1514899940183613,1,1,-1,0,0,-1,1,-2
1514899940183613,-1,1,-2,0,-1,-1,-1,-1
1514899940185614,0,-2,-1,0,-2,-3,-3,-1
1514899940185614,-1,-3,0,0,0,-1,-1,-1
1514899940198135,0,-1,-1,-2,-1,-1,-1,-1
1514899940198135,-2,0,-2,-1,-1,-2,-2,-1
1514899940205143,0,0,-1,1,-1,-2,0,-2
1514899940205143,-1,-2,-2,-1,0,-1,-2,-1
1514899940222640,-1,-3,-2,-2,-2,-3,-1,-3
1514899940222640,0,-1,-1,0,-3,-2,-2,-4
1514899940226643,-1,-1,-1,0,-1,-1,0,0
1514899940226643,-1,-2,-1,-1,-1,-1,-1,0
1514899940243669,-2,0,0,-2,0,-1,-2,0
1514899940243669,-1,0,-3,0,0,-1,-1,-1
1514899940245165,1,-1,0,-2,-1,-1,0,-1
1514899940245165,0,-1,0,0,0,-1,-1,0
1514899940258172,-1,-2,0,-1,0,0,-1,-1
1514899940258172,-2,-2,-1,-1,-2,-2,0,-3
1514899940264682,0,0,-2,-1,-1,0,-1,-2
1514899940264682,-1,-3,-1,-2,0,-1,-1,0
1514899940288697,-1,1,-3,-1,0,-2,-2,-2
1514899940288697,-1,-2,0,-1,-1,-1,-1,0
1514899940290188,-1,-3,-1,-1,0,-1,0,1
1514899940290188,-2,-1,-1,0,-2,-2,-1,-1
1514899940303697,0,0,1,-2,-1,-1,-2,-1
1514899940303697,-2,-2,-1,0,-1,-1,-1,-2
1514899940305199,0,-1,-1,-1,-1,0,-1,-1
1514899940305199,-2,-1,-2,0,-2,0,0,0
1514899940318708,-1,0,0,0,-1,-1,0,0
1514899940318708,0,-1,-2,-2,-1,-2,-1,-2
1514899940325213,-1,-3,-1,-1,-1,-1,0,0
1514899940325213,-1,-2,-1,0,-1,0,-2,-1
1514899940341223,-1,-1,-2,-1,-1,1,-1,-2
1514899940341223,-1,-1,-1,-1,-2,-1,-2,-2
1514899940342735,-2,-3,-1,-1,0,-2,-2,-2
1514899940342735,-1,-3,-1,0,-2,-1,0,-2
1514899940363767,-1,0,-2,-1,-1,-1,1,-1
1514899940363767,0,-1,0,-1,-1,-2,-5,-1
1514899940365241,-1,-2,0,-2,0,-2,0,0
1514899940365241,-1,0,0,-2,-2,-1,-2,-2
1514899940377249,-3,0,0,0,-2,0,-1,0
1514899940377249,0,-1,-1,-2,-2,-1,4,0
1514899940392260,-2,-1,-1,-1,-2,-1,-2,0
1514899940392260,0,0,-2,0,0,-1,0,0
1514899940401267,0,0,-3,-2,-1,0,-1,-2
1514899940401267,-1,0,-1,0,0,-2,-1,0
1514899940402767,-1,-2,-1,-1,-1,1,0,-2
1514899940402767,-1,-2,-2,-3,0,-2,-2,-1
1514899940423782,-2,-2,-2,-3,-2,-2,-1,-1
1514899940423782,-1,-2,-2,-3,-1,0,-1,-2
1514899940425283,-1,-2,0,-1,1,0,1,-2
1514899940425283,-1,0,0,-1,0,-1,-3,-1
1514899940437292,1,-1,-1,-3,-2,-1,0,-1
1514899940437292,-2,0,-2,-1,-1,1,0,0
1514899940446298,-1,-2,-1,0,-1,-1,-1,-2
1514899940446298,-1,-2,-1,-2,-1,-2,-1,1
1514899940461309,-1,0,0,0,0,0,-2,-1
1514899940461309,-1,-1,0,-1,-2,-2,-1,-2
1514899940463823,-2,-1,-2,-1,-1,-2,-2,1
1514899940463823,0,-1,-2,-1,-2,-2,0,0
1514899940483825,-2,-1,-3,0,0,-2,2,0
1514899940483825,-1,-1,0,-1,-2,-1,-2,-4
1514899940485329,-3,-2,-1,1,-3,0,-1,1
1514899940485329,0,-2,0,0,0,2,3,-1
1514899940497350,-1,1,-1,0,0,2,3,3
1514899940497350,-1,-1,-2,-2,-3,-4,-13,-5
1514899940506343,-1,-1,-2,0,-1,-2,-4,-4
1514899940506343,-2,0,-1,-2,-1,-3,-2,-3
1514899940521851,0,1,0,0,-1,0,-2,-2
1514899940521851,-2,-1,-1,-1,-1,-1,1,0
1514899940524853,1,-1,-1,-2,-1,-1,0,0
1514899940524853,-1,-1,-1,0,-2,0,-4,-1
1514899940544379,-1,-1,0,0,-2,-2,1,-1
1514899940544379,0,0,1,-2,-2,0,4,0
1514899940546885,0,-2,-1,-2,-1,-1,0,-2
1514899940546885,-1,-2,0,0,0,1,3,0
1514899940557378,-2,-2,-3,-1,0,-2,-3,-3
1514899940557378,0,-2,-2,0,-1,1,2,-1
1514899940566385,-1,0,0,-2,-2,-1,-3,-1
1514899940566385,-1,-1,0,-1,-1,-2,-2,-1
1514899940581894,1,1,-2,-2,-1,-2,-2,-2
1514899940581894,-2,-1,-1,-2,-1,-1,0,0
1514899940583396,-1,-3,-1,-1,-1,-2,0,0
1514899940583396,0,-1,-2,-1,-1,-2,-2,-2
1514899940603912,-1,1,-1,-3,-1,-2,-2,0
1514899940603912,-1,-1,1,-1,1,-1,1,-1
1514899940605412,-1,-1,-2,-2,0,-1,-1,-1
1514899940605412,-3,0,-1,0,-2,0,-2,-1
1514899940617420,-2,-2,-1,1,-2,-1,-2,-2
1514899940617420,-2,-2,-2,1,0,1,1,1
1514899940628436,-2,-3,0,-1,-1,-1,0,0
1514899940628436,0,-1,-1,-1,-1,-1,0,-2
1514899940641946,-1,2,-2,0,-2,0,-2,-3
1514899940641946,0,-1,-3,-3,-1,-1,-2,-2
1514899940643447,0,-4,-2,0,-1,-1,-2,-2
1514899940643447,0,-2,-1,0,-2,-1,0,1
1514899940663955,-1,-1,0,-2,-2,0,0,1
1514899940663955,-1,1,-3,-1,-1,-2,-1,0
1514899940665453,-1,-1,-1,0,0,-1,-1,1
1514899940665453,0,0,-1,-1,0,-1,-1,-2
1514899940677478,0,-1,0,-2,-2,0,-1,-1
1514899940677478,-1,-1,-1,-1,-1,-2,-2,0
1514899940686530,-1,-2,-1,-1,-1,-1,2,-1
1514899940686530,-1,-1,-1,-3,-1,-2,-1,0
1514899940708555,-1,0,-1,-1,0,-2,-2,0
1514899940708555,-2,-1,-1,-1,-1,-1,0,0
1514899940711551,-1,-2,-1,1,-2,-2,-2,-2
1514899940711551,0,-3,-1,-3,-1,-2,-2,-2
1514899940723569,0,-2,-1,-3,0,-2,-2,-1
1514899940723569,-1,-1,-1,-2,-2,0,-1,-1
1514899940726565,1,-1,-2,0,0,-1,1,-1
1514899940726565,-2,0,-2,0,-2,0,0,-2
1514899940737566,-2,0,-1,-2,-1,-2,-1,-2
1514899940737566,-1,-2,-1,0,1,0,0,-3
1514899940746572,0,-1,0,-1,-2,-1,-2,-1
1514899940746572,-1,-1,-2,1,0,-1,-2,0
1514899940761583,-1,-2,-3,-4,-1,0,0,-2
1514899940761583,-2,-3,-2,-2,-2,-2,1,-1
1514899940763588,-2,-2,1,-1,-1,-1,-2,0
1514899940763588,-2,0,-1,-1,-1,-2,0,-1
1514899940784100,-2,1,-2,0,1,-1,-2,-3
1514899940784100,0,-1,-1,-2,-1,-1,-1,0
1514899940785600,1,-3,-2,-2,-2,0,0,-1
1514899940785600,-2,-1,-2,-2,-1,0,-2,0
1514899940797609,0,-1,-2,-1,-2,-1,-1,0
1514899940797609,0,-2,-2,-2,-1,-2,-1,-2
1514899940806618,-1,-2,-2,-1,-1,-2,-1,-2
1514899940806618,-1,0,-1,-2,-1,-1,-2,-2
1514899940822627,0,1,0,-2,-3,-1,1,-1
1514899940822627,-2,0,-1,0,-1,-2,0,-1
1514899940826130,-2,-1,-2,-3,-1,-3,-2,-2
1514899940826130,-1,-2,0,0,0,-1,0,0
1514899940843659,-1,0,-1,0,0,0,-2,-1
1514899940843659,-1,0,-1,-1,-1,1,-1,1
1514899940845155,-1,0,0,0,-1,-1,1,0
1514899940845155,-1,-1,-1,0,-1,-3,-1,-1
1514899940866661,-2,-1,-1,0,-2,-2,-1,-1
1514899940866661,-1,0,0,0,0,-1,-2,-2
1514899940867659,-1,-2,-2,-2,0,0,-1,-1
1514899940867659,-1,1,-1,-1,-1,-1,-1,-1
1514899940881169,-1,-2,-2,1,-2,1,1,-2
1514899940881169,-1,-2,0,-1,-3,-3,0,-2
1514899940883170,0,-3,-1,-1,-3,-1,0,0
1514899940883170,-1,-1,-2,-2,-2,0,1,-1
1514899940903697,1,0,0,-2,-1,-3,-2,-2
1514899940903697,1,-1,-1,0,-2,1,0,-1
1514899940907190,-3,-2,-1,0,1,-1,-2,-1
1514899940907190,-1,0,-1,-3,-1,-1,-1,-1
1514899940926200,-2,1,-1,-1,-1,0,-1,0
1514899940926200,0,-3,-2,-1,-1,-2,-3,-1
1514899940927717,0,-3,-1,-3,-1,-3,-2,-2
1514899940927717,-1,-2,-2,-1,-1,-2,-1,-2
1514899940941725,-1,0,-1,-1,-2,-1,-2,-1
1514899940941725,-3,-2,-2,-1,-1,-1,0,-2
1514899940945228,-1,-3,-2,-1,0,-1,0,1
1514899940945228,-1,-2,-2,1,-2,-2,-2,-1
1514899940963729,-2,1,-1,0,-1,-2,1,-1
1514899940963729,-1,-1,-1,-2,-1,-1,-2,-2
1514899940965227,-2,-2,-1,-2,-2,-3,-2,0
1514899940965227,-1,0,0,-1,-1,0,0,1
1514899940986251,-2,-1,-2,-1,0,1,0,-1
1514899940986251,0,-2,-1,-2,-2,-2,-3,0
1514899940987753,-1,-3,-1,-1,2,0,-1,0
1514899940987753,1,-1,-1,0,0,-2,-2,-1
1514899941001252,-1,0,0,0,-1,0,0,-2
1514899941001252,-2,-1,-2,-2,-1,-1,0,-3
1514899941007757,-1,-2,-3,0,-2,-1,-2,-1
1514899941007757,-2,-1,0,0,-2,-1,-1,-1
1514899941031285,-1,0,0,-5,-3,0,-2,0
1514899941031285,0,-1,-1,-2,1,-1,-2,-2
1514899941032776,-2,0,0,-1,-1,-2,-2,-1
1514899941032776,-1,1,-1,-1,-2,-1,0,-2
1514899941046287,-2,0,-1,0,0,0,-1,0
1514899941046287,-1,-3,-1,-1,-2,0,-2,0
1514899941047786,-3,-2,-2,-1,0,0,-1,-2
1514899941047786,-3,0,0,-1,-1,0,-3,-3
1514899941060807,-1,-1,0,-1,-2,0,-2,-1
1514899941060807,1,-2,-3,-1,-1,-1,0,0
1514899941067301,0,-2,-3,-2,-3,-1,-2,0
1514899941067301,-2,-2,-2,-1,0,-3,-1,-1
1514899941083812,-2,-1,-1,1,0,-4,0,-2
1514899941083812,0,-1,-2,-2,-1,-3,-2,-1
1514899941085312,-1,-2,-3,0,-2,-3,0,-1
1514899941085312,-1,-2,-2,-1,-1,1,-1,-1
1514899941113836,-2,0,-3,-3,-1,-1,-3,-2
1514899941113836,-2,0,-1,2,-2,-1,-1,-1
1514899941115336,-1,-1,-2,-1,0,-1,0,-1
1514899941115336,-2,0,-1,-1,-2,0,-3,-1
1514899941120837,-1,0,0,0,-1,-2,0,-2
1514899941120837,-2,-1,-1,-1,-1,-1,-1,-1
1514899941128353,-1,-2,-1,-1,-1,0,-2,-1
1514899941128353,0,0,-1,0,0,-1,-2,0
1514899941143868,0,0,-3,-1,-1,0,-1,-1
1514899941143868,-2,-2,0,-1,-1,-1,-1,-1
1514899941145356,-3,-3,0,0,-1,-2,-1,-1
1514899941145356,0,0,-2,-3,-2,0,-1,-1
1514899941166370,-2,0,-1,-2,-1,-1,0,-1
1514899941166370,-1,-3,-3,-1,-1,-1,-1,-2
1514899941167872,-1,-2,0,-1,0,0,-1,-2
1514899941167872,-1,-2,-1,-1,-1,0,0,0
1514899941180380,-1,0,-2,0,-2,2,-2,0
1514899941180380,-2,-1,-1,-2,-1,0,0,-1
1514899941187385,0,-1,-2,0,0,-2,1,-2
1514899941187385,-2,0,-1,-1,-1,-2,-2,-3
1514899941203896,0,1,-1,-3,0,-1,-1,-1
1514899941203896,0,0,0,-1,-2,-1,-1,-2
1514899941205396,0,-1,-1,0,-1,1,0,0
1514899941205396,-2,-2,-1,-1,-3,1,-2,0
1514899941226922,0,1,-2,-3,-1,-2,1,-1
1514899941226922,0,-1,-1,-1,-1,-1,-2,0
1514899941228423,-1,-1,-1,-2,-2,-2,0,0
1514899941228423,-1,1,-2,0,-1,0,0,-1
1514899941239931,-1,1,-1,0,-2,-1,-2,-2
1514899941239931,-2,-1,-1,0,0,0,1,0
1514899941248928,0,-3,-1,-2,-2,-2,-1,1
1514899941248928,-1,0,-1,-1,-1,-1,0,-2
1514899941263949,-1,-1,-1,-1,-2,-2,-1,-3
1514899941263949,1,-1,-1,-1,0,-1,0,-2
1514899941265441,-2,-2,1,0,-1,-2,-2,-1
1514899941265441,1,-1,0,1,-1,-1,-1,-2
1514899941286454,-1,-2,-2,-2,-2,-1,-1,-2
1514899941286454,-1,-2,-2,-2,-2,0,0,0
1514899941287965,-2,-3,-2,-1,-1,-2,-1,-4
1514899941287965,-1,1,-1,-1,-2,-1,0,-1
1514899941300964,0,2,-2,-1,-1,-1,-1,0
1514899941300964,-1,1,0,0,-1,0,-1,3
1514899941307469,-1,-2,-2,-2,0,0,-1,-1
1514899941307469,0,0,0,0,-1,-3,0,-3
1514899941323481,-2,0,0,-3,-2,0,1,-1
1514899941323481,0,-3,1,-1,0,-3,-1,-1
1514899941325483,-1,-1,0,0,-1,0,-1,0
1514899941325483,-1,0,-2,-2,0,1,-1,0
1514899941354002,-3,-1,-3,-1,0,-1,-2,-1
1514899941354002,-2,-2,-3,-1,0,-1,0,-1
1514899941355504,-1,-2,-2,-2,-1,-2,-3,1
1514899941355504,1,-1,-2,-2,-1,-1,-1,-1
1514899941360023,-2,-1,-2,-1,-2,-2,-1,-2
1514899941360023,1,-2,-3,0,-1,-2,0,-3
1514899941369013,0,-2,-2,0,0,-3,0,0
1514899941369013,-1,1,0,0,0,-1,0,0
1514899941384024,-2,-1,0,0,-1,-1,-2,-2
1514899941384024,-1,-2,-2,-2,-2,-1,-1,-3
1514899941385525,0,-4,-1,-2,-2,-2,-1,-1
1514899941385525,-2,1,-4,-1,-1,-1,0,-1
1514899941406039,-1,0,0,-1,0,0,-2,0
1514899941406039,0,-1,-2,-1,0,-1,-1,0
1514899941408041,-1,-1,0,0,-2,0,-2,0
1514899941408041,-2,-1,0,-2,-1,-1,-1,-1
1514899941421550,-1,0,-1,-1,-2,-1,-1,0
1514899941421550,-2,-3,-1,-1,-2,-1,0,0
1514899941429055,-1,-5,-1,0,-1,-1,0,-2
1514899941429055,-3,-2,-1,-1,0,-2,-1,-1
1514899941451570,-1,-1,-2,0,-1,-1,1,-1
1514899941451570,0,-2,-1,-1,-1,-1,0,-1
1514899941453572,0,-1,0,-1,-1,1,2,0
1514899941453572,-1,-1,-3,-2,0,-2,-1,-1
1514899941466581,0,0,0,-1,1,-1,-1,-4
1514899941466581,-2,-2,-2,-1,0,-1,-1,-1
1514899941468084,0,-1,0,-2,-1,-2,-2,0
1514899941468084,-2,0,0,-1,-1,0,0,0
1514899941480090,-2,0,-2,0,-1,-1,-2,-2
1514899941480090,-1,-1,0,0,-1,-1,0,1
1514899941489097,-3,-2,-2,-2,-2,0,-1,-2
1514899941489097,0,-1,-1,0,-2,-2,-3,-1
1514899941503611,0,1,-1,-1,0,-3,1,-2
1514899941503611,-1,-1,0,0,-1,-1,-2,-3
1514899941505110,-1,-3,-2,0,-1,-2,-1,0
1514899941505110,0,0,0,-2,-1,-2,-1,-1
1514899941526124,-1,2,-1,-1,-3,0,-2,-1
1514899941526124,0,-3,-2,0,0,-2,0,-2
1514899941528124,-1,-2,-1,-1,-1,-2,-2,-1
1514899941528124,-1,-2,-1,-3,-2,0,-2,-2
1514899941540133,-3,0,-2,-1,0,1,-2,-2
1514899941540133,-3,-2,-1,-2,-1,0,-1,-1
1514899941548639,0,-2,-1,0,-1,-2,-1,-1
1514899941548639,-1,0,-1,-2,-1,-1,0,-1
1514899941563690,-2,2,-3,-1,-3,-1,-1,-1
1514899941563690,-1,0,-1,-1,-1,0,-2,-1
1514899941565187,-2,0,-1,0,-1,-1,-1,-1
1514899941565187,-1,0,-1,0,-2,0,-1,0
1514899941586667,-1,0,-2,-2,0,-1,-2,-1
1514899941586667,1,-1,-1,-1,-2,-4,-1,0
1514899941587667,1,-3,-1,-1,0,-2,-1,-1
1514899941587667,0,0,-1,-2,-1,-1,0,-3
1514899941600177,0,-1,-4,0,-2,0,-2,-1
1514899941600177,0,-1,0,-2,0,-2,-2,-2
1514899941608690,0,-2,0,-2,1,0,1,-2
1514899941608690,-1,-1,-1,-1,-1,-2,-1,0
1514899941625193,-2,0,0,-2,-1,-1,-1,-2
1514899941625193,-2,-1,-2,-1,-2,-2,-1,-1
1514899941637203,0,-1,-2,-2,0,0,0,-1
1514899941637203,-1,1,-1,-2,-1,-1,-2,-2
1514899941646208,-1,0,0,0,-1,-1,0,-2
1514899941646208,-1,-3,-1,-1,-2,-1,0,-2
1514899941647727,-1,-4,-1,0,-1,-1,-1,-1
1514899941647727,-1,0,-1,0,0,-1,-2,0
1514899941660218,0,-1,-1,1,1,0,-1,0
1514899941660218,-1,-3,-1,-4,-2,-1,-2,-2
1514899941668724,-1,-2,-1,-1,0,-1,-2,0
1514899941668724,-1,-1,-3,-1,-3,-1,0,-3
1514899941684238,-2,0,0,-1,-1,-2,-1,-2
1514899941684238,-1,-3,-2,0,-1,-1,-1,0
1514899941685237,0,-2,-1,-1,-2,-1,0,0
1514899941685237,-2,-1,-3,-2,-1,0,-1,0
1514899941706252,-1,0,-1,-2,-1,-1,-1,-2
1514899941706252,-1,-1,-1,-1,-1,0,1,-1
1514899941707753,-1,-3,0,0,-2,-2,-1,-1
1514899941707753,-2,-1,0,-1,0,-1,-1,-1
1514899941720762,-1,-1,-2,-3,-2,-1,0,-2
1514899941720762,-1,-3,-3,-1,-1,0,-1,-2
1514899941728766,-1,-1,-1,-1,0,-1,0,0
1514899941728766,0,-1,0,-1,-1,0,-1,-1
1514899941743281,-1,0,1,-1,-1,-3,-2,-1
1514899941743281,-1,-1,-1,0,-1,-1,1,-1
1514899941749782,-1,-3,-3,-2,-1,-2,-3,1
1514899941749782,0,-1,-1,-1,-1,0,-2,-2
1514899941766293,0,-1,-1,-4,-3,-1,-1,-2
1514899941766293,0,-1,0,-1,0,-1,-1,-1
1514899941767795,-2,-1,-1,0,-2,0,0,-2
1514899941767795,-1,1,-3,0,-2,-2,-2,-1
1514899941788810,-2,0,-1,-2,-3,-1,-2,-1
1514899941788810,0,-1,0,-3,1,-1,-1,0
1514899941790310,-1,-2,0,1,-1,-2,0,1
1514899941790310,-1,-1,-1,0,-2,-2,-1,0
1514899941803821,-1,1,-1,0,0,-3,-1,-2
1514899941803821,-1,-1,-1,-1,-1,-1,-2,-1
1514899941805321,-2,-3,-1,-2,0,-2,-1,-2
1514899941805321,1,-1,-1,0,-1,-2,2,4
1514899941833844,-1,-2,-2,1,-1,0,-1,0
1514899941833844,-1,-1,-2,-1,-2,0,0,-1
1514899941835343,0,0,0,-2,-1,-1,-1,0
1514899941835343,-1,0,-1,-1,-1,-1,-1,-2
1514899941848852,-1,0,-1,-1,-1,-1,-1,-1
1514899941848852,-1,-1,-1,-1,-2,-2,-3,-1
1514899941850353,-1,-3,0,-1,-2,-1,0,-1
1514899941850353,-1,-3,-2,-2,-1,-2,-2,-2
1514899941863874,-2,0,-1,-2,-2,0,0,-3
1514899941863874,0,-5,-1,0,-2,-2,-3,-3
1514899941865364,1,-2,0,-1,0,0,0,-1
1514899941865364,-2,1,-1,-1,-1,-1,-2,-1
1514899941886378,-2,1,-2,-3,-1,-3,0,-1
1514899941886378,-1,-1,-1,-2,-1,-1,-1,0
1514899941887881,1,-1,-2,-1,-2,-1,0,-1
1514899941887881,-2,-2,-1,1,0,1,0,-2
1514899941908896,-1,-1,-1,-2,-1,-2,-1,-2
1514899941908896,-3,-2,0,-1,-2,-2,-1,-1
1514899941910399,-1,-3,-1,-1,0,-1,-1,-1
1514899941910399,-4,0,-1,-2,-1,-1,-1,-2
1514899941923905,0,0,-2,-1,-1,0,-2,-2
1514899941923905,-1,1,-1,-2,0,-2,-1,-1
1514899941929909,0,-2,0,0,-3,0,1,1
1514899941929909,-1,1,-1,-1,-2,-2,-2,-2
1514899941946921,0,0,0,-2,-1,0,-1,-2
1514899941946921,0,-2,-2,-1,-3,-1,-1,-1
1514899941949424,1,-2,-1,-1,0,0,0,-2
1514899941949424,-1,0,-1,0,0,-1,0,-2
1514899941968944,0,0,-1,0,-2,0,0,-1
1514899941968944,-2,-2,-2,-1,-1,0,-2,1
1514899941971438,-2,-1,-1,-2,0,-2,-2,0
1514899941971438,-3,-1,-2,-2,-1,-1,-3,-1
1514899941982946,-3,1,-1,0,-1,-2,-2,0
1514899941982946,-1,-2,-1,0,1,-1,0,-1
1514899941989951,-1,-1,-3,0,0,-1,-1,-1
1514899941989951,-1,-1,-1,-1,-2,-2,0,-1
1514899942006464,-1,-1,-2,0,0,0,0,-1
1514899942006464,-2,-2,1,-1,-1,-3,-3,1
1514899942007965,0,-3,-1,0,1,-1,0,-1
1514899942007965,-2,-1,-1,-2,-2,0,-1,0
1514899942028981,-1,-1,-1,0,-1,-2,-1,-2
1514899942028981,-1,-1,-3,-1,-4,-1,-1,-2
1514899942030490,-2,-1,-2,0,-1,-1,-3,0
1514899942030490,-1,-1,-1,-1,-1,-1,-1,-1
1514899942042998,0,-2,-1,-2,-1,-1,-2,-1
1514899942042998,1,-2,-1,-1,0,-2,-1,-2
1514899942050002,0,-2,-2,0,-1,-1,-1,-2
1514899942050002,-1,0,-1,-2,0,-2,-1,-2
1514899942066005,-3,-1,-2,-3,-1,-2,0,0
1514899942066005,-1,-2,1,-2,0,0,-2,-2
1514899942068008,0,-2,0,0,-1,-2,-1,-2
1514899942068008,-1,-1,-1,-1,-2,0,-1,0
1514899942088530,-1,0,-1,1,-2,0,-1,0
1514899942088530,0,-2,-1,-1,-1,-1,-2,-1
1514899942090523,-2,-1,-3,-1,-2,-2,-2,-1
1514899942090523,-2,-1,-4,1,-1,-1,-2,-1
1514899942103043,0,1,-1,2,-2,-1,-1,0
1514899942103043,-1,-2,-2,-1,-2,0,-1,1
1514899942111052,-1,0,0,-2,0,0,0,-1
1514899942111052,2,0,-1,-3,-1,-1,-1,-2
1514899942126048,-1,-1,-1,-2,-1,-2,-2,-2
1514899942126048,-1,-3,0,-2,0,-3,-1,-1
1514899942128048,-2,-1,-1,0,-2,-2,0,2
1514899942128048,-1,0,0,-2,-2,-2,-1,-2
1514899942148566,-2,-2,-3,-2,-4,-2,-2,-3
1514899942148566,-1,-1,-3,-1,-1,-1,-1,-1
1514899942150565,0,0,-2,0,-2,-1,-1,0
1514899942150565,-2,0,-1,-1,-1,0,-1,-1
1514899942163073,0,2,1,-1,-1,-1,-1,-1
1514899942163073,-1,-3,-2,-2,-1,-2,-2,-1
1514899942170578,0,-2,-1,0,0,-2,0,-1
1514899942170578,-2,-2,-2,-1,-1,0,-2,0
1514899942186102,0,-3,0,-2,0,-2,-3,-3
1514899942186102,0,1,-2,0,-2,1,0,-1
1514899942188091,-1,-2,0,-3,-1,-1,-2,-2
1514899942188091,-2,1,-1,1,-1,-1,-1,-2
1514899942208607,-1,0,-1,-3,-1,-1,1,1
1514899942208607,-1,-3,-1,-1,0,-1,1,-1
1514899942210106,0,-1,0,-1,1,-1,-3,2
1514899942210106,-1,0,-1,-1,-1,0,-1,-2
1514899942223117,-1,-3,-2,-1,0,-1,-2,-1
1514899942223117,-4,-3,-1,-3,0,-2,-1,-1
1514899942229621,-2,-1,0,-1,-1,-1,1,-1
1514899942229621,-2,2,-2,0,-1,-2,0,-3
1514899942246133,-1,0,-1,-1,-2,0,0,-2
1514899942246133,0,-2,-1,-1,-4,1,0,0
1514899942249645,-3,-2,-1,0,-1,-1,-2,0
1514899942249645,-1,-1,-1,-1,-2,-2,-2,-3
1514899942268649,0,-1,0,-2,1,-1,-1,-1
1514899942268649,0,-1,-1,0,0,-1,-2,0
1514899942271151,-1,-2,-1,-2,-3,0,-2,0
1514899942271151,0,-2,0,-2,-1,-2,1,0
1514899942282190,-1,1,-1,-2,-1,-1,-2,-2
1514899942282190,-1,-1,-1,-2,1,-2,0,-2
1514899942299169,0,-1,0,-1,-1,-1,-2,-1
1514899942299169,-1,0,-1,0,0,0,-1,-1
1514899942306184,-1,-2,-1,-1,-1,-1,-1,-1
1514899942306184,-1,-1,0,-2,-1,-1,-1,-2
1514899942307676,-1,-2,-1,-3,-2,0,-2,-1
1514899942307676,-2,0,-3,-2,-1,0,-3,-3
1514899942336197,0,0,-2,-1,-1,-1,-1,0
1514899942336197,-1,-1,-2,-1,-3,-1,-2,-1
1514899942337698,-2,-1,1,-1,-1,-1,1,-1
1514899942337698,0,-2,0,0,-2,0,-1,0
1514899942342700,0,-1,0,-2,-2,0,-1,0
1514899942342700,0,0,0,0,-2,-1,-2,-1
1514899942351209,-1,-1,-3,0,-2,-1,0,-3
1514899942351209,-1,-1,0,-1,0,-1,0,0
1514899942366227,-3,0,-2,-1,0,-1,-2,-2
1514899942366227,-1,-1,-2,-1,0,-3,-1,-2
1514899942367720,-1,-2,-1,0,-2,-1,-1,-1
1514899942367720,-1,1,-2,-1,0,-1,0,-1
1514899942388733,-1,-2,-1,-1,-2,-1,-1,-1
1514899942388733,-1,-3,-1,-1,-2,-2,-1,-1
1514899942390234,-2,1,-2,-1,-1,-1,-1,-1
1514899942390234,-2,-1,-1,0,0,-1,-1,0
1514899942403246,-1,0,-3,-2,-3,-2,0,-1
1514899942403246,-1,-2,-3,0,0,1,-2,-2
1514899942411261,0,-3,-1,-1,0,-1,-2,-1
1514899942411261,0,-2,-1,-1,-3,-1,-4,1
1514899942427264,-1,-1,-1,-1,-1,-1,-1,0
1514899942427264,-2,-2,-2,-2,-2,-1,-2,-2
1514899942431266,0,-3,-1,-1,-1,-1,-3,0
1514899942431266,0,-2,-1,-1,0,0,-2,-2
1514899942448788,-1,-2,-2,-1,-1,-1,1,-2
1514899942448788,-1,-1,-1,-1,2,0,1,0
1514899942450289,0,0,-1,-1,0,0,0,-1
1514899942450289,0,0,-2,-2,0,-1,0,-1
1514899942462789,-2,0,-1,-3,-1,-1,0,-2
1514899942462789,0,-3,-1,1,-1,-2,-2,0
1514899942471295,-2,-1,-2,-1,-1,-2,-1,-2
1514899942471295,-2,2,-2,-2,-1,0,0,0
1514899942486307,-2,-1,-2,-2,-1,-1,0,0
1514899942486307,-1,-2,0,0,-2,-1,0,0
1514899942488805,0,1,-2,0,-1,-1,-1,-1
1514899942488805,1,1,0,0,-1,-1,-2,-2
1514899942508818,-1,0,-1,-1,0,0,-4,1
1514899942508818,-2,-1,-1,-1,-1,0,-2,0
1514899942510319,-1,-1,0,-2,-2,-1,-1,-1
1514899942510319,-1,0,-2,0,-1,-1,0,-2
1514899942523828,0,0,-1,-1,-1,-2,-1,0
1514899942523828,-1,-3,-2,-1,-2,-1,-2,0
1514899942531335,-1,0,-1,-2,1,-1,-2,-1
1514899942531335,-1,1,0,-1,-1,0,-1,0
1514899942546345,-1,0,-1,-2,-1,-1,-1,-4
1514899942546345,1,-2,0,0,-2,0,-2,-1
1514899942548848,-1,-2,-1,-1,1,-1,0,-3
1514899942548848,-2,-2,-1,-3,-2,-1,-1,-1
1514899942568861,-1,0,-1,1,-2,-1,-1,-2
1514899942568861,-1,0,-1,-1,-2,-2,0,0
1514899942571363,-1,-2,-2,1,-3,-2,-1,0
1514899942571363,-2,-1,-1,0,-1,-2,0,-1
1514899942582386,0,-2,-1,-1,-1,0,-1,-2
1514899942582386,-2,-2,-2,-2,0,-1,0,-1
1514899942591376,1,-1,0,0,-1,-1,-1,2
1514899942591376,-2,-1,0,-1,-1,-1,0,-3
1514899942606388,-1,-2,-1,-1,0,-2,-1,-1
1514899942606388,0,-2,0,-1,0,-2,-1,-3
1514899942607889,0,-1,-2,0,-1,0,0,-2
1514899942607889,0,-1,-1,-1,-1,-1,-1,0
1514899942628903,-1,0,-1,0,0,-1,0,-3
1514899942628903,0,-1,-1,0,-1,0,0,0
1514899942630404,-3,-1,-1,-2,0,-2,-1,-1
1514899942630404,-1,0,-2,-1,-2,-1,0,-2
1514899942642927,-1,-1,-2,-2,-3,-3,-2,-1
1514899942642927,-1,-3,-3,0,-1,0,-1,-2
1514899942651921,-1,-2,0,-1,-2,0,-2,0
1514899942651921,-1,1,-2,-2,-1,-2,-1,0
1514899942666430,-1,0,0,-1,-1,0,-1,-1
1514899942666430,2,-1,0,-2,-1,-1,0,-1
1514899942668933,0,-3,-1,-3,-2,-1,-1,-2
1514899942668933,0,-2,-2,-2,0,-1,-2,-2
1514899942688945,-1,-3,-2,-3,0,1,-1,-1
1514899942688945,-1,-3,-2,-2,-2,-3,0,-1
1514899942690456,-1,0,-1,-2,-2,0,-1,-1
1514899942690456,-1,1,0,-1,0,-1,-1,-1
1514899942711961,0,-3,0,0,-1,-1,-2,0
1514899942711961,-1,-1,-2,-1,1,0,-2,-2
1514899942715479,-1,0,-2,-1,-1,-1,1,1
1514899942715479,-2,-2,-2,-1,-2,0,0,-2
1514899942725972,-1,1,-1,-2,0,-1,-2,0
1514899942725972,-1,-2,-1,-2,-1,1,-2,0
1514899942727974,-2,-1,-2,0,-1,0,-1,-1
1514899942727974,0,0,-1,-1,-1,0,-3,-2
1514899942748487,0,-3,1,0,-3,-3,-1,-1
1514899942748487,-1,-1,-2,1,0,-2,0,0
1514899942750505,-2,-1,0,-2,-2,-2,-2,-1
1514899942750505,-1,-1,0,-1,-2,1,-1,-1
1514899942771505,-2,-3,-2,-1,-1,-1,0,1
1514899942771505,0,-2,-1,-1,0,-2,-1,-1
1514899942773505,-1,0,-1,1,-1,0,-1,-1
1514899942773505,-1,-1,-1,-1,0,-2,1,-1
1514899942786015,-3,-2,-1,-1,-1,0,-1,-3
1514899942786015,-1,-2,0,-1,-1,-2,-1,0
1514899942792519,1,0,-2,-1,0,-1,-2,1
1514899942792519,0,1,-2,0,-3,0,-2,-2
1514899942808530,0,-2,-2,1,-1,-1,-1,-2
1514899942808530,-2,-3,0,0,0,-1,-1,-1
1514899942810531,-1,0,-1,1,-2,0,-2,-1
1514899942810531,-2,0,-1,-2,-3,-2,-1,-1
1514899942831045,1,-1,-1,0,-1,-3,0,-1
1514899942831045,-2,-2,-1,-1,0,-2,-1,-2
1514899942833047,0,-3,-1,-2,-1,-3,-2,0
1514899942833047,0,0,-1,-3,0,0,-2,-1
1514899942846065,-1,-1,-1,-1,0,-1,-2,-3
1514899942846065,1,-1,-2,-1,-3,-2,-1,-2
1514899942848057,-3,-1,-1,-2,-1,0,0,-2
1514899942848057,-2,1,-1,0,-1,0,1,-1
1514899942868573,1,-1,0,-1,-1,-1,-1,-1
1514899942868573,1,-1,-1,-2,-1,-2,-1,0
1514899942870573,0,0,-2,-1,-2,0,1,-1
1514899942870573,-1,0,-1,-1,0,0,-2,0
1514899942891088,-2,1,-2,-2,-2,0,-2,-2
1514899942891088,-1,-2,-2,-1,0,1,-2,-1
1514899942893089,-1,0,0,1,-1,-3,-1,-4
1514899942893089,-2,0,0,-2,-1,-1,-1,0
1514899942905659,0,-3,-2,-1,-2,0,-2,1
1514899942905659,-1,-3,-1,-2,-3,-1,-1,0
1514899942915667,-1,0,-1,-2,-1,-1,-2,-1
1514899942915667,0,-1,-3,-1,-1,-2,-1,-2
1514899942928677,0,-1,-1,0,-1,-1,0,-1
1514899942928677,-2,-2,-1,-1,-2,-1,-2,-2
1514899942930189,-2,-1,-1,-2,-1,-1,-1,-1
1514899942930189,-2,-2,0,-3,-2,-2,-2,-2
1514899942951212,0,-1,-2,-2,-1,0,1,-2
1514899942951212,0,-1,-2,0,-1,0,-3,0
1514899942953193,-1,-1,-1,0,-1,-2,-3,-1
1514899942953193,-2,-1,-2,0,0,-1,-2,-1
1514899942965702,-2,-1,-1,-2,0,-2,-1,-3
1514899942965702,0,-3,2,-2,0,-1,0,-1
1514899942972208,-1,-1,-2,-3,-2,-1,0,-1
1514899942972208,-2,-1,-1,0,1,-2,0,-1
1514899942989221,-1,0,-1,-1,0,-2,-3,0
1514899942989221,-1,0,-2,-2,-1,-1,-1,0
1514899942990219,0,-1,-4,-1,-1,-1,-1,-1
1514899942990219,-2,-1,-3,0,-2,0,1,0
1514899943011233,0,-4,-1,0,-2,-1,-1,-1
1514899943011233,-2,-4,-2,-1,-1,-2,0,0
1514899943012735,-2,-1,-1,-1,1,2,0,-1
1514899943012735,-1,1,0,-1,-3,0,-2,-2
1514899943025744,-3,-2,-1,1,-1,0,-1,0
1514899943025744,-1,-3,-1,-1,-2,-2,-1,-2
1514899943032261,-1,-1,1,0,-2,-1,-2,-1
1514899943032261,-1,1,-1,-1,0,-1,-2,-1
1514899943048272,0,-2,-2,0,-2,-3,0,1
1514899943048272,-2,-2,-1,-1,0,-3,0,0
1514899943056265,-1,-1,-2,-2,0,0,-1,0
1514899943056265,-1,3,-1,-2,-1,-3,0,-2
1514899943072278,-2,-3,-2,-1,-2,-2,-1,-3
1514899943072278,-2,-3,0,0,0,0,-1,-2
1514899943075779,0,0,-1,-1,-2,0,0,0
1514899943075779,-2,-2,-2,-1,-1,0,-2,0
1514899943086287,-1,-1,-2,-2,-1,1,0,1
1514899943086287,1,-1,-2,-1,-2,-3,-2,-2
1514899943092793,-1,2,1,-2,-1,2,-1,-1
1514899943092793,1,1,0,0,-2,0,-1,-1
1514899943109308,-1,-2,-2,0,-1,-1,-1,-1
1514899943109308,-2,-3,-3,-1,-2,1,-2,-1
1514899943110304,-1,-2,-1,-2,-1,-3,-1,-1
1514899943110304,-2,-2,-1,0,-1,0,-1,-2
1514899943131319,-1,-2,-2,0,-1,-1,-2,-1
1514899943131319,1,-2,-1,0,0,0,-1,0
1514899943132823,-1,-1,-1,-1,-1,-1,1,-2
1514899943132823,-1,1,0,-1,-2,0,0,-2
1514899943153836,-2,0,0,-3,-1,-2,-1,-2
1514899943153836,-2,-2,-1,0,-2,-2,0,-1
1514899943161340,-1,0,-2,0,-3,-2,-2,-1
1514899943161340,0,-2,0,-1,-2,-1,-1,-1
1514899943168845,1,-2,-1,-3,-1,1,-2,-1
1514899943168845,-1,-2,0,-2,-1,-1,-1,-1
1514899943170349,-2,-2,0,-1,0,-1,0,-2
1514899943170349,-2,0,-1,-1,-1,-1,-2,1
1514899943191364,0,-1,-1,-1,-1,-2,-1,-1
1514899943191364,0,-1,-1,2,-1,-1,0,0
1514899943192862,-1,0,-2,0,-1,0,0,-1
1514899943192862,-1,1,-1,-1,0,-3,-1,-2
1514899943204882,-2,-3,0,0,-2,0,-1,-2
1514899943204882,-1,-1,-1,-3,-1,-3,-2,0
1514899943221382,1,1,-1,-1,-2,-1,-1,-2
1514899943221382,0,0,-2,0,-1,0,-1,-2
1514899943228888,-1,0,-1,-2,-1,-2,-2,-1
1514899943228888,0,-2,-1,0,-1,-1,1,0
1514899943230389,-2,-1,-2,-1,-1,-2,-2,0
1514899943230389,0,-1,-1,-1,0,-1,-2,0
1514899943252415,-1,-1,-1,-1,0,-2,0,0
1514899943252415,-2,-4,-1,-1,-1,-1,-3,-3
1514899943253407,-2,-2,0,-2,-1,0,-2,1
1514899943253407,-1,-1,0,-2,-2,-2,0,-1
1514899943264913,-1,-2,0,-2,-2,-2,-1,-3
1514899943264913,0,-2,0,0,1,-2,0,0
1514899943273920,-1,-1,-2,-4,-2,-1,-2,-2
1514899943273920,-3,0,-2,-2,-2,0,-1,-2
1514899943288430,-2,-1,-2,-1,0,0,-2,0
1514899943288430,-1,-1,-1,0,-1,0,-1,0
1514899943296436,0,-1,-1,0,-2,-1,0,-1
1514899943296436,0,0,-2,-1,-1,-1,-1,-2
1514899943310944,0,-1,0,-1,0,0,-1,0
1514899943310944,0,-3,-1,1,-1,-2,0,-1
1514899943312947,-1,2,-2,-1,-1,-1,-1,-2
1514899943312947,0,-1,0,-2,-1,-2,-1,-1
1514899943324955,-1,-3,-2,-2,-2,-1,-2,0
1514899943324955,-2,-2,0,-1,-2,-2,-2,1
1514899943334467,-2,-1,-1,0,-1,-2,-1,-1
1514899943334467,-1,0,-2,0,-2,-1,-1,-2
1514899943348973,-1,-3,-1,-2,1,0,0,-1
1514899943348973,0,-1,-4,-2,-1,0,-2,-1
1514899943350475,-2,-1,-1,-1,-1,0,0,-2
1514899943350475,-1,-1,-1,-1,-2,-2,-2,-2
1514899943371488,0,-1,-1,0,-2,-2,-1,-1
1514899943371488,-1,-2,0,0,0,-1,0,-3
1514899943373490,-1,0,0,0,-1,1,-1,-1
1514899943373490,-2,1,-1,-1,1,0,-1,-2
1514899943384998,0,-2,0,-1,-2,-1,0,0
1514899943384998,-1,-3,-1,0,-2,-1,-1,-2
1514899943394008,-1,1,-2,-1,-1,0,-1,-1
1514899943394008,-2,-1,-3,-1,0,-2,-1,-1
1514899943408514,-1,0,-2,0,0,-2,-1,-2
1514899943408514,-2,-4,-2,-1,-1,0,0,0
1514899943411015,-2,-1,1,-1,-1,-2,-2,0
1514899943411015,0,1,0,-2,1,0,0,4
1514899943431030,-2,-1,-1,-2,-1,0,-5,-10
1514899943431030,0,-2,-1,0,-1,-1,-2,-3
1514899943433031,-2,1,0,1,-1,-1,-1,-1
1514899943433031,-4,0,-3,-1,-2,-1,-2,-3
1514899943445040,2,-2,-1,-1,-1,0,1,3
1514899943445040,-1,-3,0,-2,-2,-2,-1,-1
1514899943454546,0,-2,0,-2,-2,0,-1,-2
1514899943454546,0,2,-1,0,-2,-1,-1,0
1514899943468556,-3,-1,-2,1,1,-4,1,0
1514899943468556,-1,-2,-3,0,0,-2,-1,0
1514899943470057,-2,-3,-2,-2,-2,-1,1,0
1514899943470057,2,-2,0,0,-3,-1,-2,-1
1514899943491587,-2,-3,-1,1,2,0,0,0
1514899943491587,-2,-4,-1,1,-1,-1,-1,0
1514899943493073,-1,-1,-2,-2,0,-4,0,-2
1514899943493073,-5,-3,-3,-2,-3,-1,-2,-3
1514899943505107,0,-1,-1,-1,-3,-1,0,-1
1514899943505107,0,0,1,-2,-2,-1,-1,1
1514899943523095,-1,0,-2,-1,1,-1,1,2
1514899943523095,-1,4,0,0,-2,-3,-4,-4
1514899943528611,1,-1,-2,0,-1,2,-1,0
1514899943528611,-1,-2,0,-3,0,-1,-1,-3
1514899943530110,-1,-4,-2,-2,-2,-2,-1,0
1514899943530110,1,-1,-2,-4,-2,0,3,2
1514899943552116,-4,-3,-1,-4,-2,-4,-3,-3
1514899943552116,1,-2,-2,12,7,-1,0,2
1514899943553617,0,0,-2,-2,-2,-1,-4,-4
1514899943553617,-1,2,-3,-1,-1,-1,0,-1
1514899943565125,-1,-2,0,0,-3,-2,0,-2
1514899943565125,-1,-1,-3,-7,-3,-2,1,-2
1514899943581136,1,1,-1,-2,-3,-2,-4,-1
1514899943581136,-2,0,0,1,-1,-1,-2,-3
1514899943588642,1,-3,1,-1,0,-1,-1,2
1514899943588642,-2,-3,1,0,-2,-1,-2,-1
1514899943590145,-3,0,-2,0,0,0,-2,-4
1514899943590145,1,0,0,-5,-3,-1,-1,-1
1514899943611159,-2,-2,-2,-1,0,0,-1,1
1514899943611159,-1,-1,1,-1,1,0,3,1
1514899943614660,0,2,-2,-2,-2,-2,-2,-3
1514899943614660,0,3,0,3,1,0,2,2
1514899943625167,-1,-5,-2,-1,-2,-2,0,-2
1514899943625167,-2,-1,-1,-4,-3,-2,-2,0
1514899943641193,-11,-7,0,-4,-4,-2,0,-2
1514899943641193,-4,0,-2,-2,-1,-1,0,-2
1514899943648684,3,2,-1,7,4,0,-3,0
1514899943648684,3,4,0,0,-2,-1,-2,0
1514899943650184,0,-1,0,-1,-2,-1,0,-2
1514899943650184,5,-1,1,2,1,0,0,0
1514899943671702,-22,-5,-6,-11,-3,-1,0,-6
1514899943671702,0,-7,-1,2,-5,-4,-2,0
1514899943674211,4,2,0,-3,2,-1,0,1
1514899943674211,11,1,-5,-9,-3,-2,1,6
1514899943693743,-3,-2,4,2,0,-1,-1,-1
1514899943693743,-3,0,-1,-1,-2,0,-1,-2
1514899943695227,6,0,-1,4,-1,0,-1,-4
1514899943695227,-4,0,-1,2,2,-1,-2,-4
1514899943717252,5,-2,-4,1,-2,0,1,0
1514899943717252,-6,-5,3,2,-1,0,2,-1
1514899943720735,9,6,1,-3,-2,-1,0,2
1514899943720735,-3,4,-3,-6,-1,0,-3,-4
1514899943731242,-9,0,1,4,-1,-2,2,2
1514899943731242,-2,-11,-3,-8,0,-2,-5,-9
1514899943732743,-6,-4,-4,3,0,-2,-2,3
1514899943732743,0,-2,4,3,-3,-1,0,2
1514899943753770,0,4,-2,-7,1,0,1,6
1514899943753770,-14,-8,-7,1,0,0,-6,-12
1514899943755274,-2,-1,-2,-2,-1,0,11,4
1514899943755274,-5,3,-2,2,-1,-2,-23,-9
1514899943769269,0,-7,3,-3,-5,-4,-7,-5
1514899943769269,0,0,-2,1,1,-1,1,6
1514899943771271,6,5,0,-2,1,1,1,5
1514899943771271,-16,-5,1,1,0,0,-3,-11
1514899943791285,-2,-3,-12,-7,-4,0,-2,-8
1514899943791285,11,5,7,-3,0,-1,0,6
1514899943792785,-4,-1,1,9,-1,0,2,-2
1514899943792785,8,2,-5,-7,-1,-2,2,2
1514899943814801,2,1,2,2,1,1,-2,1
1514899943814801,-2,-5,-10,-9,-1,-3,3,0
1514899943818804,0,4,-4,0,-2,1,8,3
1514899943818804,-12,-7,-1,-5,-4,-2,-21,-7
1514899943827811,10,1,1,1,-1,-2,-4,2
1514899943827811,-8,-8,-3,-1,-3,-1,-4,-3
1514899943834817,-3,0,7,0,3,1,0,-6
1514899943834817,-1,1,-10,0,-1,1,20,13
1514899943851346,2,-5,-1,-4,-2,-3,-6,-8
1514899943851346,7,6,4,5,-1,-1,1,6
1514899943852828,-6,-3,-10,-5,1,-2,-11,-6
1514899943852828,5,-5,1,-2,-3,0,6,-3
1514899943881351,10,8,-3,-1,1,1,2,5
1514899943881351,-8,3,-1,3,-1,2,11,2
1514899943882853,-10,-10,0,-6,-2,-2,-9,-4
1514899943882853,-2,-1,-3,5,3,-2,0,5
1514899943887855,1,-5,-3,-11,-4,-3,18,-4
1514899943887855,-4,5,3,0,0,-2,-11,-10
1514899943894861,1,2,0,-6,-3,-1,2,6
1514899943894861,2,-1,0,-1,-4,-2,-2,-6
1514899943910882,3,1,0,4,1,1,-7,0
1514899943910882,5,0,-2,0,1,0,24,12
1514899943912883,-3,-2,-2,0,-2,-2,-12,-5
1514899943912883,-1,4,-1,3,0,0,-1,-5
1514899943933887,-3,-5,2,1,-2,-2,6,9
1514899943933887,-4,-10,-1,-3,2,-2,-13,-5
1514899943935387,-1,1,-4,-4,-3,-2,5,10
1514899943935387,2,0,2,-4,-2,1,-4,-12
1514899943947909,-7,2,-6,-1,4,-2,2,-3
1514899943947909,1,-7,-2,-4,-2,0,-3,-4
1514899943954914,-14,6,7,8,-4,-2,-7,-14
1514899943954914,-2,-7,-9,-5,4,2,5,14
1514899943971412,2,1,1,1,-2,0,1,-3
1514899943971412,8,-1,0,-4,-1,-1,-4,2
1514899943974914,-5,-9,-4,0,0,-2,-11,-1
1514899943974914,-2,17,-1,-3,-5,-3,13,-4
1514899943993939,1,-1,4,3,1,-2,-4,20
1514899943993939,-3,-1,1,2,0,-1,-13,-14
1514899943995443,2,-4,-10,-7,-4,-5,-18,-16
1514899943995443,-2,-12,3,1,0,2,-12,-14
1514899944007937,-2,12,-7,-5,-2,-6,14,4
1514899944007937,2,-6,-1,0,2,4,25,25
1514899944022447,-2,-4,-6,-4,-1,-4,-7,-7
1514899944022447,3,32,5,2,-1,-1,-5,3
1514899944030954,-18,-48,0,0,-5,-2,-23,-18
1514899944030954,5,7,6,-1,1,2,-17,-1
1514899944032955,2,-6,-7,-4,1,1,35,13
1514899944032955,-5,-7,-6,0,0,-4,-5,-7
1514899944053970,20,8,3,2,-1,4,9,24
1514899944053970,-22,12,6,2,-1,-5,-6,-22
1514899944055472,-1,-9,-16,-9,-4,1,-5,-3
1514899944055472,-7,-8,1,-5,-4,-3,9,-2
1514899944068481,2,-6,4,14,5,0,8,5
1514899944068481,8,1,-23,-16,-1,7,23,44
1514899944074985,4,31,18,10,3,-1,-12,-47
1514899944074985,-6,-20,-8,-11,-6,-4,-20,-9
1514899944091006,-7,-18,5,9,-2,-3,-10,-29
1514899944091006,-6,19,5,8,-3,-6,-6,-14
1514899944093007,-3,-4,-18,-19,1,3,10,17
1514899944093007,9,-26,-4,4,-2,-2,13,35
1514899944114512,-7,6,-23,-29,-4,-1,-21,-34
1514899944114512,-12,27,22,2,-11,-6,-2,-8
1514899944118516,7,7,33,11,5,2,6,23
1514899944118516,-4,-53,-24,24,2,-2,7,-3
1514899944128023,-2,24,-5,-9,-2,-2,-14,-11
1514899944128023,2,-28,-9,-6,7,4,14,10
1514899944135031,-23,-6,5,-9,-8,-7,-23,-31
1514899944135031,-24,35,14,-3,-1,-2,-38,-30
1514899944151550,26,34,19,13,-1,1,9,16
1514899944151550,22,-69,-15,-1,-2,-2,3,16
1514899944153064,-5,-11,2,-1,-5,-5,-3,-35
1514899944153064,-17,3,7,0,1,2,25,28
1514899944173565,11,7,-3,2,-3,2,13,-24
1514899944173565,-6,42,-7,-5,-3,-5,-25,-30
1514899944175566,10,-6,-11,0,-1,1,-12,46
1514899944175566,2,9,2,-9,-2,-2,2,-45
1514899944187574,-1,-39,10,0,-1,-1,8,17
1514899944187574,-4,-23,-24,-5,0,-1,-1,-7
1514899944197081,9,-32,-3,15,1,3,13,17
1514899944197081,-22,67,12,1,0,-2,-1,-12
1514899944210581,7,51,14,-17,8,2,-28,0
1514899944210581,15,-2,-22,-9,-6,-6,-20,8
1514899944211081,-15,32,-6,-2,1,1,13,-9
1514899944211081,12,-27,16,5,-4,1,-19,9
1514899944233097,-13,-42,-37,-5,-3,-3,12,4
1514899944233097,-6,24,38,19,4,3,0,-15
1514899944234099,-7,4,-3,-13,-4,-1,-4,38
1514899944234099,7,50,21,4,1,1,14,-32
1514899944256115,-19,-23,5,2,-2,-1,7,24
1514899944256115,18,-45,-14,-12,-8,-9,-43,-12
1514899944257114,-19,-55,-21,6,0,0,11,-37
1514899944257114,19,16,18,4,5,4,8,9
1514899944270623,-3,53,-2,-18,-10,-10,-27,-69
1514899944270623,-27,-72,-6,40,2,1,-16,-11
1514899944271137,-2,49,30,9,0,1,3,13
1514899944271137,-18,24,-8,-5,2,0,-4,18
1514899944301646,17,-65,-8,0,15,9,12,18
1514899944301646,-35,57,7,-17,-6,-6,4,4
1514899944302655,-43,-89,-7,18,-4,-7,-31,-27
1514899944302655,31,30,3,5,-5,2,42,42
1514899944316656,12,114,-10,-12,-10,-6,4,73
1514899944316656,-8,-71,38,10,0,-4,7,-33
1514899944318659,11,3,-40,-30,6,4,-6,-9
1514899944318659,27,-107,-26,-15,-6,3,22,54
1514899944330177,24,-29,-32,18,-7,-9,-22,-36
1514899944330177,43,27,18,-2,-1,1,12,21
1514899944338183,-9,93,20,22,1,-5,-6,32
1514899944338183,20,-45,16,1,-5,-2,-14,42
1514899944370209,21,-30,-14,-5,1,-4,7,-22
1514899944370209,-77,53,6,9,2,3,-1,24
1514899944371210,97,-11,-13,-14,0,0,13,-54
1514899944371210,-44,-7,-25,-16,-4,-3,-13,-26
1514899944383714,-4,0,53,28,8,11,19,16
1514899944383714,1,-26,-9,-23,-5,-7,-10,-10
1514899944384707,2,31,-6,-4,0,-1,0,-23
1514899944384707,-59,19,-13,-5,-3,-8,-23,-35
1514899944390709,-8,-50,14,16,-4,-2,11,-6
1514899944390709,4,-63,-18,0,-4,-1,23,84
1514899944391209,-32,8,16,-17,-11,-2,-8,-27
1514899944391209,49,8,-25,5,12,-3,-18,-24
1514899944413231,-97,-13,0,-52,-10,-4,6,-9
1514899944413231,55,52,-26,7,6,5,13,23
1514899944414725,-26,-38,-31,13,-18,-12,-25,44
1514899944414725,15,21,18,-22,-2,-2,-4,-29
1514899944436240,-6,-32,22,8,4,1,5,15
1514899944436240,20,75,-19,-13,0,-2,2,-38
1514899944436741,-17,31,18,15,3,3,23,65
1514899944436741,-7,-17,-18,2,0,-1,-19,-55
1514899944450761,-27,11,18,-9,-4,-2,8,-8
1514899944450761,7,-29,-62,-8,-6,-2,-16,-12
1514899944451255,10,33,7,1,4,-6,-29,36
1514899944451255,25,24,9,7,5,2,-1,-27
1514899944473276,14,63,7,17,4,2,14,5
1514899944473276,-9,-84,31,-3,-1,4,2,-9
1514899944474277,13,18,-41,-30,-3,-2,31,-91
1514899944474277,-19,8,-1,-9,-2,-1,5,31
1514899944512297,45,12,4,29,-4,-1,1,-1
1514899944512297,2,52,35,-26,5,-2,-16,-16
1514899944513295,31,23,14,4,6,4,-7,-25
1514899944513295,-41,-91,4,-8,-12,-5,11,18
1514899944514796,44,-16,-37,-3,1,-1,0,-13
1514899944514796,0,47,21,8,-2,-1,-5,7
1514899944518798,-6,-80,-10,-4,-1,3,-9,12
1514899944518798,17,88,38,15,4,1,2,-3
1514899944533321,-51,-85,-24,-14,0,1,-24,2
1514899944533321,38,42,3,5,-1,-1,7,-9
1514899944534312,19,-26,-3,-1,-1,-3,-4,-9
1514899944534312,-9,23,-8,-19,-8,1,13,4
1514899944556325,-2,-35,0,12,3,-3,-19,13
1514899944556325,-23,57,15,-3,-4,0,17,65
1514899944556826,-20,-17,17,8,1,2,-7,-78
1514899944556826,6,30,28,4,-1,2,-8,28
1514899944570849,5,42,-7,-14,-4,-4,-8,-14
1514899944570849,-9,56,40,13,2,2,-4,-28
1514899944571336,-38,20,6,10,0,3,23,55
1514899944571336,1,-10,-37,-24,-13,-6,-23,-14
1514899944592860,-25,-11,-16,-6,-1,-5,-7,-2
1514899944592860,1,-13,14,2,8,5,12,2
1514899944593851,6,10,2,-6,-1,-2,-7,-19
1514899944593851,-4,21,8,17,10,4,22,21
1514899944616367,-39,-91,-16,5,-8,-3,-16,-12
1514899944616367,-9,-43,-19,-19,-5,-1,7,21
1514899944617868,18,-11,5,-6,3,4,10,-16
1514899944617868,-51,14,-23,-5,-5,-5,5,-28
1514899944630377,95,61,6,13,1,-1,-5,34
1514899944630377,-3,-60,-59,-3,-4,-2,-6,-15
1514899944631378,-38,-35,13,-23,-4,3,6,16
1514899944631378,8,-12,-23,8,0,1,3,43
1514899944652907,-3,36,40,13,0,1,12,-86
1514899944652907,10,11,-13,4,11,2,-18,-42
1514899944653894,38,65,9,-10,-5,0,-1,22
1514899944653894,0,-101,-67,-7,-3,-9,-14,-8
1514899944675920,-45,-7,-1,-7,-2,-3,-2,11
1514899944675920,-27,-37,17,24,-2,3,53,60
1514899944676923,37,35,2,-1,4,-4,-57,-43
1514899944676923,49,-3,33,4,5,7,0,9
1514899944690430,-49,21,-42,-17,-6,-3,-2,17
1514899944690430,-13,36,40,15,2,-1,-1,-9
1514899944691431,-7,-43,-44,-15,-2,-1,15,50
1514899944691431,8,-7,26,7,-3,-3,3,-19
1514899944721943,-7,18,-32,-5,-2,-1,-12,20
1514899944721943,-31,-24,0,-15,-5,-2,26,-41
1514899944723943,-28,36,-1,-3,-4,1,9,-24
1514899944723943,28,29,24,38,4,0,-9,-18
1514899944735952,0,-27,-1,1,-10,-8,-6,-5
1514899944735952,-59,-24,-65,-82,4,5,8,-8
1514899944736953,24,13,16,24,-7,-11,-40,-49
1514899944736953,-15,-7,16,-21,-9,-3,6,6
1514899944750462,21,85,52,84,34,12,7,14
1514899944750462,-3,-60,-17,-11,-7,-9,-17,-23
1514899944751464,30,3,7,-23,-1,9,34,67
1514899944751464,-25,20,4,-10,-5,1,12,25
1514899944780993,18,-16,1,-1,-3,1,4,-43
1514899944780993,10,59,19,37,2,-4,-13,-5
1514899944781994,14,25,-10,27,8,6,8,25
1514899944781994,7,53,2,-17,-5,-7,-11,-17
1514899944796020,-57,16,25,-3,0,-3,2,15
1514899944796020,-2,17,-7,7,2,6,19,38
1514899944797024,-1,-68,-11,0,-3,-4,-12,-78
1514899944797024,-9,34,8,5,4,3,-5,-3
1514899944810519,9,-32,-8,-23,-4,0,3,26
1514899944810519,49,127,23,14,-8,-4,8,33
1514899944811005,-5,75,-15,2,-2,1,9,38
1514899944811005,-19,-17,6,4,6,2,11,11
1514899944833032,64,-16,-23,-33,-13,-10,-31,-34
1514899944833032,-1,-46,-7,23,4,-3,-13,-1
1514899944833521,-14,24,37,-11,4,6,18,-7
1514899944833521,-1,-32,-11,2,2,1,-4,2
1514899944856037,-6,30,-17,-22,-12,-8,10,26
1514899944856037,-18,-31,4,15,-2,-7,-31,-46
1514899944857037,-6,21,27,0,-1,-5,-2,13
1514899944857037,33,-7,-21,1,0,-1,15,-2
1514899944870557,0,-4,-7,2,3,2,-18,-16
1514899944870557,0,-31,-3,-7,-3,-1,0,-8
1514899944871047,-23,-28,-6,7,-4,-8,-4,4
1514899944871047,-9,-18,-13,-2,0,-2,11,7
1514899944893573,22,11,15,-12,-11,-6,-15,12
1514899944893573,19,-2,-20,-15,15,7,2,-18
1514899944894064,-1,-64,-35,-1,-2,3,3,49
1514899944894064,38,34,18,11,-3,-3,-15,5
1514899944923584,-20,8,-15,-10,-2,1,12,13
1514899944923584,13,-14,2,-5,-12,-10,-39,-47
1514899944924587,-3,17,17,7,3,2,7,-10
1514899944924587,-36,-99,-41,-9,-1,-2,-25,-21
1514899944930589,-6,0,0,2,3,-2,19,8
1514899944930589,15,57,20,-6,-9,-7,-15,-35
1514899944931090,3,85,34,6,0,-2,-10,3
1514899944931090,-18,6,-28,0,-8,-6,-11,-20
1514899944953120,-6,29,16,-10,0,1,1,4
1514899944953120,44,22,5,-2,-3,-1,10,23
1514899944954107,-13,11,-4,-4,-1,-1,11,13
1514899944954107,-11,-13,6,-1,0,-5,-12,-39
1514899944984135,-2,-15,-18,4,2,2,4,-42
1514899944984135,-1,19,-7,-4,-5,0,3,14
1514899944984629,-22,5,10,5,-4,-6,-2,-3
1514899944984629,18,29,18,6,0,5,-3,26
1514899945000156,-5,-8,10,-10,0,3,23,22
1514899945000156,-4,-8,-1,1,-4,-2,-18,-15
1514899945001159,11,-36,-22,5,9,0,-4,0
1514899945001159,-15,-50,-3,-10,-2,1,7,22
1514899945013158,21,26,-8,5,1,-1,-13,-19
1514899945013158,-6,-14,15,-11,-7,0,13,31
1514899945013651,1,-22,3,9,-2,-2,-8,3
1514899945013651,-8,-21,-42,-12,-3,-3,12,12
1514899945035666,17,24,1,5,3,0,-31,18
1514899945035666,-5,-49,-2,7,2,2,8,-8
1514899945043679,-13,-66,-66,-13,-4,0,1,4
1514899945043679,13,10,15,0,1,0,2,-15
1514899945050682,-39,-18,5,-3,-1,1,6,17
1514899945050682,-3,-62,-6,6,-1,-5,-17,-10
1514899945051677,14,40,22,-1,0,0,28,-6
1514899945051677,-11,30,-2,-2,0,-2,2,5
1514899945073200,13,-68,2,2,-2,-5,-10,-2
1514899945073200,-15,-58,-44,-11,-4,-3,-3,2
1514899945073690,11,4,6,1,-2,0,-17,-23
1514899945073690,8,46,-8,-5,1,2,3,3
1514899945095718,-12,26,28,2,-3,-5,1,1
1514899945095718,-11,44,-2,5,4,4,16,24
1514899945096710,-6,-12,-7,-10,-8,-4,-17,-8
1514899945096710,13,11,22,13,5,2,-10,2
1514899945110727,-5,-3,-10,-1,-2,-4,0,-25
1514899945110727,19,67,10,-1,-4,-6,5,27
1514899945111217,10,42,24,8,-1,-3,-13,2
1514899945111217,-29,-55,-20,-9,-3,-3,-1,-6
1514899945133233,19,40,3,-4,1,3,2,8
1514899945133233,9,-37,11,5,3,2,3,-3
1514899945134235,-5,10,-7,-12,-3,0,4,1
1514899945134235,30,59,51,14,4,2,4,-1
1514899945156248,-36,-49,-23,-10,-3,-1,11,5
1514899945156248,-8,-11,-13,5,1,0,-10,-21
1514899945156753,-2,8,17,-2,-1,2,17,3
1514899945156753,5,29,9,-2,-4,-3,2,8
1514899945170258,-15,-75,-48,-5,-5,-1,-8,-1
1514899945170258,-22,-24,-21,-5,4,-2,28,48
1514899945171259,-25,5,29,37,6,-2,-3,-23
1514899945171259,2,4,-49,-45,-13,-7,-10,-12
1514899945192784,14,1,39,8,8,7,10,22
1514899945192784,13,54,-14,-11,-9,-8,-20,-43
1514899945193785,-18,-48,-52,-12,-4,-3,2,4
1514899945193785,14,-13,18,16,5,0,19,33
1514899945216302,-5,44,7,1,-1,-3,-23,-24
1514899945216302,-2,16,36,5,3,6,0,-2
1514899945217792,5,27,24,5,1,2,12,12
1514899945217792,-31,-20,-30,-8,-10,-8,-33,-27
1514899945230801,-14,-15,-25,-20,2,-2,7,-9
1514899945230801,-14,6,11,3,-1,-2,-3,4
1514899945237807,34,69,34,-3,1,3,-3,-19
1514899945237807,-2,-32,10,5,0,1,8,17
1514899945252831,12,-23,-12,0,-6,-2,6,-1
1514899945252831,-11,-41,-22,3,2,3,0,-10
1514899945253826,13,11,-10,3,1,3,11,53
1514899945253826,-1,-15,-4,-5,1,-4,-51,-73
1514899945276335,-7,9,7,42,-15,-10,-5,-9
1514899945276335,6,-17,9,-37,7,6,-6,1
1514899945277836,8,-51,-54,-40,-8,-2,-14,-15
1514899945277836,-6,59,15,-1,-4,-4,22,41
1514899945289853,-7,31,27,2,1,1,22,19
1514899945289853,0,-17,-17,13,-14,-11,-32,-66
1514899945297859,-3,-25,-11,5,-1,0,1,-15
1514899945297859,-23,44,1,-3,4,1,19,46
1514899945312870,-5,7,16,5,2,-1,-10,-2
1514899945312870,-18,-61,-9,5,-1,1,15,22
1514899945313861,-18,-5,16,-6,2,0,-2,-8
1514899945313861,10,-7,-3,-2,-3,2,25,-3
1514899945337377,17,31,4,6,8,0,-25,-38
1514899945337377,12,53,28,17,2,4,-1,1
1514899945339378,-14,9,-22,-14,-2,-4,-12,-1
1514899945339378,-3,-39,5,-3,-2,0,-8,7
1514899945349886,-17,17,8,-4,4,3,19,5
1514899945349886,9,30,-2,-1,1,1,9,-8
1514899945357891,4,-10,25,13,-1,0,0,24
1514899945357891,5,-5,-41,-3,-1,-1,1,-5
1514899945372902,-21,-32,-10,-12,2,1,-4,5
1514899945372902,3,55,26,1,-2,-5,5,10
1514899945374903,-11,37,-17,-10,-10,-7,-1,-13
1514899945374903,25,-89,-2,11,2,-1,-9,12
1514899945395928,-16,-15,-6,-5,-7,-4,-7,-50
1514899945395928,-9,32,-29,-3,-1,1,4,5
1514899945396929,-1,-38,-17,-17,-1,0,5,4
1514899945396929,10,18,6,11,-3,-2,-7,-20
1514899945409938,9,-50,-4,-8,-3,-4,3,18
1514899945409938,0,-30,-18,-16,1,0,11,22
1514899945417949,19,53,7,6,0,0,-6,-6
1514899945417949,-5,-2,12,-2,0,-1,8,-10
1514899945433945,33,-12,-6,2,-7,-3,-13,10
1514899945433945,5,45,40,5,1,0,18,22
1514899945434952,2,43,-10,-3,-2,-4,5,8
1514899945434952,-22,14,13,7,0,-2,-10,-13
1514899945455961,21,-1,17,3,3,1,1,19
1514899945455961,5,-43,-8,-5,-4,-6,-17,-14
1514899945462970,-7,-18,-3,-2,-3,-3,-4,-1
1514899945462970,-5,41,22,9,-2,-2,19,22
1514899945469971,-6,7,1,-6,1,1,-2,8
1514899945469971,21,-2,-31,-22,-6,-4,-11,-17
1514899945477987,-6,-51,25,16,3,1,-10,3
1514899945477987,2,43,2,-4,0,0,3,-15
1514899945492987,22,-16,-5,7,4,2,7,22
1514899945492987,-9,47,-10,-3,-7,-3,-11,-4
1514899945493487,-1,14,-2,1,-1,-4,9,7
1514899945493487,-5,-18,-16,-6,-3,3,8,50
1514899945516015,-6,16,3,-3,-1,-1,11,-50
1514899945516015,-3,-31,8,9,2,-2,-30,-24
1514899945517005,-3,-23,1,-22,-4,0,-1,-17
1514899945517005,0,-12,12,12,0,0,-9,-18
1514899945530514,-5,6,-22,-25,-6,-4,9,23
1514899945530514,24,16,7,10,3,3,-1,12
1514899945538019,25,-5,12,10,1,-2,7,-6
1514899945538019,-2,10,-30,-9,-4,-4,-9,-19
1514899945553031,-7,-38,24,-3,-2,-3,3,1
1514899945553031,-9,-37,-13,0,1,-1,-15,-31
1514899945553529,-21,-18,4,4,2,2,-10,7
1514899945553529,10,-44,-7,-2,3,-1,-6,-19
1514899945576055,14,27,-14,-5,-1,2,6,18
1514899945576055,-13,18,25,5,0,3,10,13
1514899945577062,-12,-26,-15,3,-1,-1,6,-19
1514899945577062,-5,-27,-10,-1,2,-1,4,-8
1514899945598562,-27,36,-5,1,-1,1,-8,6
1514899945598562,4,20,9,-5,-3,-2,3,1
1514899945599563,20,-8,-27,7,-1,-1,-8,14
1514899945599563,-3,-3,2,-10,-4,-1,-3,-23
1514899945622079,2,-14,9,-12,0,-2,2,8
1514899945622079,-48,10,-16,-2,0,-1,-10,-8
1514899945623579,-5,-21,-18,-5,-5,-5,-23,-20
1514899945623579,4,19,8,3,1,1,1,3
1514899945636088,-14,-17,-23,8,0,-3,0,-7
1514899945636088,9,-3,14,14,-6,-3,15,-2
1514899945637109,-7,34,-13,-13,0,1,12,29
1514899945637109,-8,-54,9,-19,-4,-4,-9,-9
1514899945658604,44,28,-20,1,1,4,18,13
1514899945658604,-39,13,7,-1,0,-2,-10,-10
1514899945659605,-13,-2,21,19,2,1,5,5
1514899945659605,10,18,-11,-22,-5,-3,1,0
1514899945673115,9,32,14,5,3,4,5,1
1514899945673115,12,-23,9,5,4,1,3,16
1514899945673617,-13,-35,-17,1,-4,-1,-4,-18
1514899945673617,-2,33,30,6,-1,-1,-8,11
1514899945696134,2,-45,-17,-4,-1,-1,-2,11
1514899945696134,-5,-8,-19,-6,-5,-3,14,5
1514899945696630,-3,40,17,-1,1,-1,-6,-15
1514899945696630,2,14,23,12,4,2,-1,-9
1514899945726151,23,-3,-20,-4,-4,-6,-18,-3
1514899945726151,-5,-44,-11,-2,-4,-2,-3,9
1514899945726652,-6,-36,3,-15,-1,-3,-4,-7
1514899945726652,15,8,-28,3,0,-2,-1,8
1514899945733156,-18,-26,-7,-18,-9,-5,-9,-11
1514899945733156,13,21,-7,14,1,2,-8,14
1514899945733657,6,10,9,-12,1,1,16,12
1514899945733657,-14,-26,-6,-3,0,0,11,-16
1514899945756172,-10,36,11,4,2,-2,-7,-15
1514899945756172,-19,-1,-15,0,2,1,5,2
1514899945756675,-1,-2,-6,-2,-6,-2,-2,4
1514899945756675,10,40,12,14,2,0,8,10
1514899945778689,-14,-71,-18,2,-1,1,-1,-2
1514899945778689,2,-7,3,-2,-3,-1,0,-20
1514899945779189,2,16,-4,-14,-2,1,-1,5
1514899945779189,-16,-7,-14,-7,-5,-5,-11,-9
1514899945792698,40,29,25,9,0,-1,2,3
1514899945792698,-5,-39,-28,-9,-2,-1,-10,-6
1514899945793699,15,1,-1,7,-1,-2,-9,8
1514899945793699,10,-8,1,-2,-2,-1,3,0
1514899945824721,-16,42,20,7,3,-1,-23,-21
1514899945824721,6,-59,-14,-8,-2,-2,-3,2
1514899945826723,11,-6,1,6,0,-2,-4,-5
1514899945826723,-7,7,-16,1,0,0,-1,5
1514899945838742,-6,3,8,-5,1,-1,2,0
1514899945838742,-1,28,-2,-14,-4,-3,-3,-7
1514899945839231,-24,-10,-2,6,2,1,-7,-5
1514899945839231,3,-7,12,9,3,4,-3,1
1514899945853254,-14,-32,-14,-7,-5,-3,8,1
1514899945853254,27,29,16,5,1,1,12,26
1514899945854242,-26,-1,0,2,1,1,-9,-21
1514899945854242,7,-14,-2,-10,-2,-6,-6,4
1514899945876267,-21,5,-12,-2,0,1,-7,6
1514899945876267,-10,-52,-5,2,2,1,10,-2
1514899945876758,-12,30,16,7,0,2,14,-7
1514899945876758,-1,36,-4,-2,-1,0,-17,6
1514899945898783,-12,3,17,-5,-3,-2,2,-2
1514899945898783,-4,8,-6,-3,-1,1,-8,-10
1514899945899274,-1,14,10,0,-3,-3,10,-5
1514899945899274,11,-1,-12,3,-3,-2,16,9
1514899945912783,6,26,1,-10,1,-1,-17,-23
1514899945912783,-8,36,25,2,-2,-3,5,0
1514899945914785,-3,7,-27,-10,-2,-1,-6,-2
1514899945914785,0,-4,-5,-7,-2,-3,-1,1
1514899945936302,4,6,4,15,3,2,15,33
1514899945936302,-5,-16,4,-7,-1,-2,-13,-18
1514899945936800,7,-50,-9,3,-2,-3,-13,-2
1514899945936800,-20,10,-12,-14,-2,1,16,20
1514899945958828,10,-3,20,10,2,-3,-40,-18
1514899945958828,-17,-21,-26,-17,-9,-8,1,-7
1514899945959316,5,-2,-4,-8,-4,-3,-2,3
1514899945959316,-11,-28,-2,14,1,1,-22,-12
1514899945972839,-21,14,11,-15,-2,-2,53,6
1514899945972839,-12,-8,-1,3,-1,1,-2,6
1514899945973828,9,6,-13,-3,-3,-2,-10,-15
1514899945973828,12,43,17,2,2,1,6,9
1514899945996857,-4,-72,-20,5,-3,0,-3,-1
1514899945996857,-17,9,4,-3,-1,-2,0,-7
1514899945997345,-5,27,4,1,1,0,-21,-5
1514899945997345,8,-32,12,-4,-3,-3,-2,-15
1514899946019860,8,18,-13,9,4,3,-7,-10
1514899946019860,-5,14,0,7,0,0,6,5
1514899946021361,17,10,0,-8,-4,-4,-8,14
1514899946021361,-9,-12,28,1,1,-1,-6,-14
1514899946032868,-1,1,-38,-5,-3,-1,-5,-2
1514899946032868,19,32,15,10,0,2,10,7
1514899946033882,6,20,11,2,2,1,14,9
1514899946033882,-14,-36,-19,-1,1,1,8,-1
1514899946056903,16,-19,7,-10,-5,-3,-18,-4
1514899946056903,-13,14,8,9,6,2,-23,-21
1514899946057886,28,-35,-12,-1,-4,-3,-6,-13
1514899946057886,3,50,24,4,0,0,-1,6
1514899946078400,-10,-43,-27,0,0,0,-5,-7
1514899946078400,20,18,-2,-15,-1,1,6,10
1514899946079401,-14,-9,4,10,2,-1,-4,3
1514899946079401,-9,-11,-4,0,-2,-2,3,-20
1514899946092910,-1,19,8,-2,-5,-6,-8,9
1514899946092910,-6,-31,7,4,1,1,-2,6
1514899946100428,-1,-25,-24,-9,-5,-2,15,13
1514899946100428,5,3,-5,12,2,-1,-9,-9
1514899946115927,5,13,4,-14,0,1,9,20
1514899946115927,-33,10,-3,0,-4,-6,3,-10
1514899946116927,-19,-7,10,-19,-2,1,-8,2
1514899946116927,5,-5,0,3,3,1,23,10
1514899946145955,26,11,-14,0,0,-1,1,-5
1514899946145955,38,25,34,7,0,0,3,19
1514899946146949,-37,-31,-7,-1,-3,-4,-17,-17
1514899946146949,11,33,3,-2,-4,-4,-16,-11
1514899946152453,-17,-80,3,-8,-5,-5,4,1
1514899946152453,1,30,-52,-20,-5,-2,-10,-7
1514899946160458,-1,20,21,17,6,0,10,3
1514899946160458,6,13,3,-9,-3,-1,-2,-9
1514899946175979,-18,1,2,15,3,2,-3,1
1514899946175979,-9,12,7,-8,-3,-4,1,16
1514899946176980,16,-11,4,4,0,1,8,-1
1514899946176980,11,8,-7,-20,-3,-2,-6,6
1514899946198996,6,32,16,5,0,-1,-23,-29
1514899946198996,2,19,23,9,2,-1,0,8
1514899946199486,10,-19,-23,-1,1,2,3,18
1514899946199486,0,-11,18,7,2,-2,10,-5
1514899946212496,-15,6,-32,-4,-3,-3,-1,3
1514899946212496,19,6,0,-6,-4,-4,-9,-25
1514899946221502,18,15,15,-8,-2,0,10,18
1514899946221502,13,5,-24,1,-3,-1,-8,-19
1514899946236028,-10,21,17,-9,-5,-4,-4,12
1514899946236028,24,-34,-25,8,2,3,2,-5
1514899946237014,-17,26,6,-2,-4,-4,3,25
1514899946237014,-9,-12,-2,4,1,0,-8,-15
1514899946258539,-13,17,17,9,1,-1,14,11
1514899946258539,-8,-17,-22,-12,-5,-6,-12,-6
1514899946260548,34,-16,3,7,1,0,-5,-12
1514899946260548,-35,-31,-24,-10,-4,-2,6,-3
1514899946272538,19,10,10,8,1,-1,2,12
1514899946272538,9,-14,13,1,2,1,-3,2
1514899946280543,-16,-55,-45,-2,2,2,-5,-10
1514899946280543,7,17,17,-4,-5,-6,-1,-9
1514899946296064,-11,-37,-22,-5,-2,3,16,3
1514899946296064,-4,16,15,1,-1,-1,6,-1
1514899946297065,0,21,3,12,3,0,-9,-15
1514899946297065,13,-15,3,-11,-5,-2,-11,31
1514899946319571,-25,1,0,10,1,-3,-9,-20
1514899946319571,11,19,3,-21,-5,-2,5,9
1514899946321072,-23,-1,-17,-5,-2,-1,1,-7
1514899946321072,16,-14,-13,3,4,1,-5,16
1514899946332080,18,-1,10,3,2,0,2,-16
1514899946332080,-27,7,23,13,-1,0,-2,36
1514899946340602,6,14,-1,-7,-1,0,-3,-15
1514899946340602,-17,2,-5,-12,-3,-2,15,12
1514899946356097,24,36,3,2,0,0,-2,-9
1514899946356097,-4,28,-17,1,1,2,10,-8
1514899946357598,-1,4,8,-2,-7,-5,6,7
1514899946357598,-9,4,15,13,5,0,-6,-7
1514899946377613,7,2,-21,-13,-4,-3,-1,6
1514899946377613,5,-18,9,6,3,2,11,-9
1514899946386137,-5,38,-6,-4,-2,1,4,1
1514899946386137,17,-67,5,1,-2,-2,-3,-8
1514899946392132,4,27,8,1,-2,-3,8,23
1514899946392132,-25,-17,-15,5,-1,-2,-7,-25
1514899946401128,11,-6,13,-16,-5,-3,-21,-15
1514899946401128,-15,16,4,4,-3,-6,-6,2
1514899946415148,-4,-4,-8,-16,1,4,-1,3
1514899946415148,5,-51,-15,-4,-3,-4,-7,-9
1514899946424655,-5,34,6,5,2,1,15,2
1514899946424655,-17,10,14,4,-3,-4,-31,-27
1514899946438655,18,-14,14,0,-2,0,0,3
1514899946438655,-16,-13,-30,-2,0,0,3,-12
1514899946440156,7,-1,-5,-4,-3,-5,5,10
1514899946440156,26,-19,-6,-6,-1,0,4,11
1514899946452666,-20,4,-6,12,2,-1,-3,-30
1514899946452666,1,53,16,-24,-5,-1,-10,-7
1514899946461171,1,3,18,12,3,-1,-6,-4
1514899946461171,-5,5,-40,-10,-4,-2,7,6
1514899946476191,-5,6,8,7,1,-1,9,7
1514899946476191,3,-16,5,3,0,0,-25,0
1514899946477684,-6,-10,-3,-1,-1,-4,-13,-11
1514899946477684,-9,1,-15,-5,-1,-3,-7,-5
1514899946498707,-16,-12,-11,-5,-2,-2,3,13
1514899946498707,7,-3,11,11,4,4,11,-1
1514899946500202,5,-3,-1,-7,-3,-3,-8,-3
1514899946500202,-15,30,1,-2,-1,-1,5,-2
1514899946521714,-15,-10,-2,-1,-1,1,-1,6
1514899946521714,20,8,24,9,1,0,8,3
1514899946525216,-10,-17,-20,-14,-4,0,5,12
1514899946525216,6,37,3,2,0,1,1,-16
1514899946536226,-6,-18,9,-7,-4,-4,-6,-2
1514899946536226,-7,-53,-25,-1,-1,-2,1,-21
1514899946537725,-12,6,10,8,2,-2,14,4
1514899946537725,-11,-20,8,7,2,2,-1,7
1514899946558739,18,58,22,-9,-3,-3,-3,5
1514899946558739,-3,-2,-10,-2,0,-3,14,-4
1514899946560241,-15,-7,7,7,1,2,7,2
1514899946560241,-4,-5,-23,-8,-1,-4,-5,-9
1514899946581255,-24,-34,-5,4,0,0,2,-14
1514899946581255,9,-25,8,6,-3,-3,2,15
1514899946582756,-5,27,7,-8,-5,-4,-5,-13
1514899946582756,-3,-14,-31,-7,-1,0,19,13
1514899946596266,3,-24,-3,1,-1,-1,-18,-15
1514899946596266,-27,11,-8,-3,0,1,-6,-3
1514899946597767,9,3,10,11,1,2,1,-5
1514899946597767,0,-28,12,8,2,2,-5,-3
1514899946619283,0,28,19,-3,-3,-2,11,3
1514899946619283,4,6,-13,-3,-1,-1,13,-2
1514899946623303,3,-19,-10,1,2,2,5,7
1514899946623303,6,1,27,-4,-1,-3,-2,14
1514899946641308,6,-1,-25,-7,-1,-2,-5,5
1514899946641308,19,18,8,2,0,1,-20,-25
1514899946642809,13,-15,3,-1,-1,-1,22,16
1514899946642809,-6,-29,-19,-21,-4,-1,14,18
1514899946655310,3,1,-12,9,2,0,-14,-6
1514899946655310,2,8,6,-2,-1,-1,7,8
1514899946662326,-7,-31,-21,-6,-4,-2,-10,-5
1514899946662326,35,17,5,9,0,-3,-5,6
1514899946678826,-18,16,16,0,0,-1,8,-6
1514899946678826,-4,-30,-10,5,1,1,-1,20
1514899946680327,6,-15,-16,-14,-4,-3,-15,-30
1514899946680327,-12,11,20,4,0,-1,-10,-52
1514899946700349,-6,36,-1,-3,-3,1,3,0
1514899946700349,-20,-20,-5,-3,-2,-3,-7,0
1514899946710851,1,41,23,12,0,-1,-2,-5
1514899946710851,-8,-9,-37,-14,-7,-2,-4,-1
1514899946723357,-13,-35,-6,-2,1,1,0,0
1514899946723357,-10,55,7,-9,-4,-3,0,-2
1514899946725358,-1,26,5,2,-1,2,15,18
1514899946725358,9,4,20,-2,-1,-1,-16,-15
1514899946738368,6,-36,-17,5,1,2,0,5
1514899946738368,7,18,19,-5,-6,-4,-1,23
1514899946752376,1,20,-39,-13,-4,-5,-4,-9
1514899946752376,-12,12,7,14,6,6,6,10
1514899946761383,-6,-17,19,-8,-5,-4,7,-9
1514899946761383,10,13,-11,-3,0,2,-10,10
1514899946764397,-8,-59,5,3,0,-1,-11,-21
1514899946764397,-1,-7,-8,-1,-3,-2,5,17
1514899946775401,34,42,-2,1,2,4,0,15
1514899946775401,4,8,13,-2,-3,-3,4,-20
1514899946783899,-20,3,13,7,2,1,-12,37
1514899946783899,-21,-31,-14,-3,-2,-4,-3,-17
1514899946798419,8,8,7,-8,-3,-3,-5,11
1514899946798419,4,-2,-10,-4,-2,-2,-3,-3
1514899946800420,-9,-16,-4,0,2,2,-5,-2
1514899946800420,18,-20,-1,0,-3,-4,3,-21
1514899946822426,-7,11,9,9,2,0,5,6
1514899946822426,1,13,9,-3,-1,-1,-4,-17
1514899946825929,-34,-19,-4,-13,-6,-7,1,-15
1514899946825929,31,17,3,8,3,2,-4,19
1514899946835438,1,-6,-5,1,-2,-3,2,-10
1514899946835438,-11,-16,-11,-9,-2,0,0,7
1514899946842441,27,29,-8,-5,-4,-4,-3,6
1514899946842441,-25,-11,24,1,1,0,11,-1
1514899946858962,23,9,-20,1,1,-1,3,4
1514899946858962,3,-8,-11,0,-2,-3,-8,5
1514899946861454,-10,-69,16,4,2,1,-2,-8
1514899946861454,12,55,-9,-1,1,3,-1,14
1514899946881008,-11,-54,-13,-6,-9,-8,11,-15
1514899946881008,-4,22,-6,-2,-1,0,0,12
1514899946882478,13,17,18,1,1,-3,3,-22
1514899946882478,-5,32,10,5,1,-2,-4,4
1514899946895517,-24,-47,-4,-9,0,2,-6,-2
1514899946895517,-3,-7,4,11,2,3,1,-3
1514899946902493,-14,11,-8,-6,-3,-1,7,7
1514899946902493,35,4,-5,-1,-1,-4,-29,-15
1514899946919496,8,-18,1,-4,-1,-3,-2,-3
1514899946919496,31,44,1,1,2,-2,3,-3
1514899946922998,-7,-36,-10,1,0,-1,-18,-4
1514899946922998,-10,-31,-9,-10,-4,-2,3,0
1514899946948525,-1,5,6,6,2,1,-6,20
1514899946948525,14,28,-6,-10,-2,3,-2,0
1514899946950026,1,-40,-4,4,1,1,6,-21
1514899946950026,-18,-6,0,-2,-5,-6,-1,6
1514899946955530,10,9,14,4,-2,-1,1,-6
1514899946955530,-13,9,-4,-6,0,0,-24,-16
1514899946962035,16,20,-26,-8,-5,-2,0,4
1514899946962035,-31,-26,-11,-4,-1,-3,-10,-16
1514899946977546,5,-4,-2,2,1,-3,1,2
1514899946977546,-3,-31,3,0,-3,-4,1,-2
1514899946986060,3,39,32,3,2,1,2,8
1514899946986060,26,19,-31,-19,-7,-2,1,7
1514899947001555,3,40,5,-4,-4,0,-1,-28
1514899947001555,-26,-70,-30,-1,-1,-3,0,3
1514899947007056,6,34,9,0,0,1,-6,6
1514899947007056,-27,-58,7,11,1,2,10,15
1514899947015063,6,22,-7,-7,-2,-1,-9,-1
1514899947015063,6,-42,-6,2,-1,-2,3,10
1514899947023569,-3,44,10,2,2,3,13,-1
1514899947023569,-16,-32,3,-5,1,-2,-30,-32
1514899947037595,12,8,5,6,1,1,5,19
1514899947037595,-5,-42,-3,-2,-2,-1,-3,-3
1514899947047169,15,-21,-5,0,-3,-4,-2,-1
1514899947047169,1,-9,12,11,4,5,13,10
1514899947061140,-8,14,-20,-11,-4,-3,-9,-28
1514899947061140,-24,20,0,4,-1,0,4,4
1514899947062641,-3,3,2,-2,-1,1,1,1
1514899947062641,-4,14,20,3,1,-2,10,16
1514899947074659,5,-72,-54,-7,-4,1,3,-1
1514899947074659,3,27,25,5,2,-4,-10,-12
1514899947091171,-9,22,-6,-9,-5,-3,-7,0
1514899947091171,0,7,6,6,4,2,10,-18
1514899947098666,-20,21,20,1,1,3,7,18
1514899947098666,24,19,6,3,-2,-2,-1,-19
1514899947100167,11,-13,3,5,0,-2,1,13
1514899947100167,28,12,10,-5,-1,-2,-2,-13
1514899947128700,-14,16,-7,-1,-3,-4,-3,7
1514899947128700,15,17,-8,-5,-2,2,11,11
1514899947130202,-36,-33,-5,3,-2,-3,-7,-20
1514899947130202,8,28,11,-2,-3,-3,17,9
1514899947134706,-6,-20,2,3,2,-1,-5,-1
1514899947134706,-13,-20,-7,0,-2,3,17,14
1514899947151205,2,10,4,1,1,-1,-32,-30
1514899947151205,-18,5,-17,-7,-5,-6,7,6
1514899947158721,15,1,13,1,1,-3,-13,-1
1514899947158721,-4,19,-12,-9,-5,-2,-1,11
1514899947160222,7,-7,-13,-4,-1,-1,11,2
1514899947160222,-17,-24,-9,-3,-1,-3,-10,-8
1514899947181239,1,2,-6,-6,-4,-3,-6,-10
1514899947181239,0,19,2,3,1,-2,4,-1
1514899947182736,-15,-38,-27,-10,-3,1,8,10
1514899947182736,3,16,8,3,2,-1,-13,7
1514899947194773,-36,-15,19,4,0,0,14,0
1514899947194773,-5,30,17,2,1,1,-3,-1
1514899947211246,17,5,-8,-3,-4,-4,-4,2
1514899947211246,8,35,14,3,2,3,-2,21
1514899947219753,-8,-19,-15,12,2,-2,-14,-15
1514899947219753,-7,-43,-6,-19,-4,-1,2,-4
1514899947223254,-8,5,5,2,0,0,-3,-1
1514899947223254,-6,-12,1,3,-1,1,4,9
1514899947241267,7,16,-5,-8,-4,-3,-10,-6
1514899947241267,-23,-15,-15,-1,-1,-2,-5,10
1514899947242768,25,2,0,-5,-1,-2,-4,3
1514899947242768,3,-1,-7,-4,-2,-2,-6,8
1514899947254787,-5,16,11,2,-2,-1,7,1
1514899947254787,4,0,6,-8,-4,-3,-9,-9
1514899947263784,12,16,-4,-2,1,0,-1,3
1514899947263784,-19,-15,-5,1,-2,-1,8,-21
1514899947278839,-2,-22,5,-3,0,-1,3,13
1514899947278839,-16,27,7,9,3,3,9,-7
1514899947280352,-9,-64,-6,-8,-5,-6,-7,9
1514899947280352,5,-9,11,9,2,0,-36,-41
1514899947302357,8,26,8,-13,-2,-2,4,9
1514899947302357,12,8,-13,0,-1,0,0,-1
1514899947303858,-11,35,7,10,4,3,7,-13
1514899947303858,3,-27,-16,-10,-5,-6,4,2
1514899947314865,-8,2,1,3,0,1,-4,-3
1514899947314865,36,9,17,4,-2,-3,1,15
1514899947323871,1,-5,-16,-5,-3,-1,-6,-16
1514899947323871,7,-12,-5,-1,-1,0,-2,13
1514899947338381,-6,26,22,3,-1,0,7,0
1514899947338381,-8,-20,-3,-4,-2,1,3,-5
1514899947340383,-14,1,-11,1,0,0,-3,8
1514899947340383,2,24,0,1,-1,-1,14,-1
1514899947360898,-1,-15,-2,8,1,1,-14,9
1514899947360898,1,-4,7,-1,0,0,-7,-3
1514899947362908,-8,-11,25,-4,0,-3,0,1
1514899947362908,-10,45,-8,-9,-2,-2,5,13
1514899947374907,24,14,-14,1,-3,-1,13,15
1514899947374907,-8,21,12,5,0,-1,-13,-12
1514899947389918,23,9,-1,0,-1,0,24,16
1514899947389918,-1,-6,-12,-2,0,-4,-29,-11
1514899947398425,-1,-17,15,-1,-1,1,-1,-16
1514899947398425,10,5,-19,2,1,-1,1,9
1514899947400425,3,-9,-6,0,-3,-1,-5,4
1514899947400425,5,-5,6,-3,-1,-2,21,0
1514899947420949,-9,-1,-18,0,1,2,-3,1
1514899947420949,-27,-74,-13,-8,-5,-3,-8,-15
1514899947422941,11,23,21,11,3,-1,7,10
1514899947422941,-24,-71,-29,1,-2,-5,-1,12
1514899947435951,-1,28,-10,-11,-4,-5,-3,-5
1514899947435951,-32,13,5,0,0,-2,-24,-25
1514899947443456,21,9,19,4,2,0,2,1
1514899947443456,-1,-36,-32,-4,-3,1,-1,-2
1514899947458467,6,48,21,-3,-2,-4,-4,5
1514899947458467,19,6,-8,-6,-4,-3,3,-4
1514899947459968,-4,0,3,-2,-1,-5,-9,-1
1514899947459968,17,15,-2,4,3,2,6,13
1514899947481483,-11,3,-6,-4,-2,-4,-8,-18
1514899947481483,18,-6,-1,-7,-4,-2,-1,-11
1514899947482995,-23,16,26,2,1,1,9,20
1514899947482995,-13,-10,-5,-2,0,1,-15,-32
1514899947504509,-5,-28,0,2,1,1,-4,16
1514899947504509,-6,43,0,5,0,1,-1,-21
1514899947506017,-14,-15,-11,-21,-2,-6,2,-10
1514899947506017,34,14,-6,2,1,-1,1,-15
1514899947519510,-8,-21,-20,-12,-8,-4,0,8
1514899947519510,-27,-59,-11,5,0,0,-4,-4
1514899947523012,15,-10,5,10,3,2,-6,-4
1514899947523012,-30,35,35,2,-4,-1,36,20
1514899947541037,25,-28,-18,-11,-2,-2,-56,-55
1514899947541037,17,8,-2,6,1,-1,39,38
1514899947542549,-23,-20,-8,-1,-2,-2,-25,-20
1514899947542549,-1,-1,-1,-14,-2,1,-15,5
1514899947564041,-4,14,18,24,7,2,4,-23
1514899947564041,-13,-28,-28,-22,-8,-6,-9,31
1514899947565542,5,21,14,7,1,-2,-7,-31
1514899947565542,15,-19,3,0,-1,0,-2,-9
1514899947578552,-19,44,14,-1,-1,-1,18,16
1514899947578552,-3,-14,1,1,-3,-3,13,9
1514899947580053,7,7,-18,2,-4,-1,18,16
1514899947580053,3,18,7,0,0,-2,-4,-9
1514899947601084,-33,-19,-13,-8,-2,-2,16,-6
1514899947601084,16,18,15,9,5,3,1,-14
1514899947603569,3,5,-11,-5,-4,0,2,4
1514899947603569,0,14,9,5,0,0,1,10
1514899947631589,8,10,-15,-2,-2,2,5,-5
1514899947631589,-8,7,1,1,0,-1,-6,-2
1514899947633091,-13,-30,0,3,-2,1,3,14
1514899947633091,-3,-15,-14,-7,1,3,16,12
1514899947637593,2,-17,2,-7,-5,-3,-16,-11
1514899947637593,6,55,10,2,1,2,0,3
1514899947644599,-1,-15,-18,0,1,-1,1,6
1514899947644599,-22,19,13,8,-3,-8,11,-3
1514899947669118,23,-41,-28,-7,-1,5,20,26
1514899947669118,16,-5,3,1,1,-1,-3,-9
1514899947671117,-31,44,46,4,-2,-1,-8,-12
1514899947671117,-9,-38,-51,1,0,-1,0,16
1514899947691132,29,58,29,4,1,-2,-12,-51
1514899947691132,-39,-45,11,-3,-7,-5,-7,-10
1514899947692633,1,-48,-30,-13,-3,-2,-3,17
1514899947692633,3,-4,11,3,-4,-2,0,7
1514899947697636,20,22,13,5,1,3,-2,32
1514899947697636,-15,-21,-22,-5,-4,-2,7,-22
1514899947704641,34,24,-1,-1,2,-1,-13,-20
1514899947704641,-6,-29,-11,-7,-4,-2,-3,-2
1514899947722152,-1,11,15,3,0,4,14,23
1514899947722152,-8,-10,-15,7,2,1,-7,4
1514899947725655,-5,-85,-39,-15,-2,-3,16,-12
1514899947725655,-13,12,-1,-2,-3,-6,-19,-11
1514899947743668,-12,-31,0,9,3,0,-5,-5
1514899947743668,15,32,28,-10,-2,1,-1,-5
1514899947745169,-14,6,1,5,-3,-1,-7,-10
1514899947745169,22,3,-6,-5,-1,-1,-7,9
1514899947758178,-20,-52,7,1,-5,-8,4,-2
1514899947758178,-21,26,5,4,-1,0,0,13
1514899947764683,14,22,-8,-7,-2,-2,-15,-5
1514899947764683,7,5,22,1,0,2,6,-13
1514899947781195,13,21,9,11,3,4,23,35
1514899947781195,-14,31,7,-6,0,-2,-31,-47
1514899947782695,34,-29,-27,-17,-8,-3,2,8
1514899947782695,-27,-1,14,6,1,1,-2,7
1514899947803723,-3,26,-15,-8,-5,-3,11,10
1514899947803723,7,-39,-7,-1,0,1,1,8
1514899947805228,-10,50,4,1,2,0,1,4
1514899947805228,-8,-17,3,3,3,2,-24,-16
1514899947818731,8,-36,-11,8,0,-1,5,2
1514899947818731,-6,25,-15,-31,-3,-1,5,3
1514899947825225,-6,-24,8,9,1,1,-1,6
1514899947825225,-2,58,-6,-6,-1,2,27,6
1514899947841248,-28,-27,19,-8,-6,-8,-29,-26
1514899947841248,22,-15,-2,8,2,1,3,-8
1514899947842738,13,8,-6,-5,-4,-2,2,42
1514899947842738,4,-25,-1,-4,-5,-6,-9,-22
1514899947862753,-24,-35,-24,-3,0,0,4,-7
1514899947862753,16,24,14,11,-1,-1,1,16
1514899947878275,-14,-12,-18,-3,-2,-4,-5,-4
1514899947878275,14,7,0,-9,-4,-4,5,-1
1514899947879264,-2,3,-7,-4,0,1,-3,-2
1514899947879264,2,-39,-20,-3,-5,-6,26,28
1514899947886768,-13,14,-14,0,-3,-2,-1,-19
1514899947886768,-30,-55,3,2,1,-2,-1,8
1514899947902280,-1,24,17,3,3,3,-25,-22
1514899947902280,-14,-43,-18,19,5,-2,2,-5
1514899947903282,-11,2,16,4,-2,-2,-8,-27
1514899947903282,26,35,-6,-5,-1,-1,1,-10
1514899947923795,-1,-5,3,-7,-2,-4,-23,-8
1514899947923795,18,-21,-20,6,1,1,-6,11
1514899947925796,-7,16,29,-2,-5,-8,-12,-6
1514899947925796,16,-6,-22,5,2,1,-8,-4
1514899947937305,12,51,12,4,0,2,17,14
1514899947937305,-4,-10,-20,-20,-9,-5,-11,-16
1514899947946317,-21,-8,6,9,5,4,-3,-4
1514899947946317,5,-4,33,8,2,2,22,6
1514899947961322,-24,7,-21,-10,-8,-7,-6,25
1514899947961322,8,17,9,-16,0,0,3,-4
1514899947962824,1,3,5,4,3,2,14,4
1514899947962824,-16,-18,-1,1,1,2,-1,11
1514899947983838,5,-12,-12,6,4,1,-4,-31
1514899947983838,-4,13,8,7,-1,2,-4,-7
1514899947985339,-14,-24,1,-2,3,4,0,7
1514899947985339,-1,32,5,-2,-2,-2,-11,12
1514899947997352,13,16,-12,-12,-9,-4,7,5
1514899947997352,-2,-13,3,-3,-5,-2,-10,-10
1514899948006356,14,-5,18,15,4,2,3,2
1514899948006356,9,52,-22,-3,0,0,-5,-4
1514899948021365,-1,-16,-42,-17,-7,-5,20,5
1514899948021365,-18,17,4,-12,0,-1,-34,-20
1514899948022867,5,16,8,-1,-1,0,6,-7
1514899948022867,22,-22,27,18,6,3,6,13
1514899948043880,-12,-14,-15,-4,-2,-1,-11,-24
1514899948043880,-2,23,-8,-4,-1,4,8,10
1514899948045881,1,-4,41,10,2,-3,13,12
1514899948045881,-11,0,-45,-17,-10,-6,-11,-23
1514899948057892,-19,-48,11,2,2,5,9,-1
1514899948057892,16,14,0,8,-2,-3,-2,4
1514899948073905,9,0,-18,-22,-4,-1,-6,-9
1514899948073905,5,-16,17,4,1,0,3,6
1514899948088914,-9,18,-8,-1,-2,0,1,12
1514899948088914,-1,-7,-9,-6,-2,-3,5,-2
1514899948090414,-9,2,-7,4,-1,0,5,18
1514899948090414,-7,-22,0,-10,-5,-4,-5,3
1514899948102923,9,56,-8,-1,0,-1,-10,-24
1514899948102923,18,-14,18,3,-2,-2,5,-3
1514899948111428,10,-11,-18,1,-1,-4,1,6
1514899948111428,-35,-14,-11,-18,-1,0,-5,-7
1514899948117432,6,-3,20,6,1,2,3,7
1514899948117432,8,-1,20,16,3,0,5,4
1514899948126439,-9,-7,-29,-14,-3,-1,-5,-15
1514899948126439,30,10,13,6,-1,-1,-1,-4
1514899948141451,6,-21,-6,-5,-2,-3,1,7
1514899948141451,-8,13,5,-1,0,-1,1,1
1514899948143451,-8,-4,3,5,0,0,0,-7
1514899948143451,-5,-3,-1,3,0,-2,-6,2
1514899948171472,-3,0,6,-2,-3,-2,-3,-1
1514899948171472,9,8,-2,2,-1,1,2,9
1514899948173474,-2,11,0,-3,-2,-1,-6,-6
1514899948173474,-5,-18,-8,-3,-3,-2,-2,-6
1514899948177975,6,-3,6,3,1,1,-2,-2
1514899948177975,-2,3,-5,-5,-4,-2,0,1
1514899948192486,3,0,0,-1,0,-1,-1,-1
1514899948192486,-7,-6,2,0,-1,-1,-3,-4
1514899948202493,2,-9,-3,1,-1,-2,0,3
1514899948202493,-4,4,-1,-5,-2,-2,-4,1
1514899948203995,-2,5,4,10,5,0,-4,-6
1514899948203995,0,-7,-9,3,6,1,-1,0
1514899948224008,1,3,-1,-9,-4,-1,-2,2
1514899948224008,-5,-1,-3,1,1,0,-1,-1
1514899948225509,3,-1,3,2,-3,-1,0,-2
1514899948225509,-7,-3,-3,0,-1,0,-4,-4
1514899948237517,3,-4,-1,-5,-3,0,2,3
1514899948237517,-7,0,-3,-3,-1,-3,-3,-4
1514899948246023,2,2,-1,-2,-2,-2,0,-1
1514899948246023,-3,1,3,4,0,0,1,0
1514899948261034,0,0,1,0,-2,0,2,-1
1514899948261034,-1,-1,-2,-1,-3,-3,-3,-1
1514899948262536,-2,4,-1,-3,0,-1,-1,-2
1514899948262536,0,-2,0,-3,-3,-2,1,3
1514899948291056,1,1,2,1,0,1,-1,1
1514899948291056,-4,-5,-2,-1,-1,1,0,0
1514899948293056,-6,0,-4,-5,-2,-1,-1,0
1514899948293056,-2,-4,0,-3,-4,-1,-1,-2
1514899948297061,0,-1,0,0,1,-1,1,-1
1514899948297061,-1,0,-1,1,0,0,0,2
1514899948306566,-2,-4,-2,-5,-5,-4,-3,-3
1514899948306566,0,-1,-2,-3,-2,-1,-1,0
1514899948321578,-5,2,1,2,1,-1,0,-1
1514899948321578,-1,0,-3,-3,-2,-1,-2,-2
1514899948323078,1,-10,-3,-3,-2,-1,-1,-1
1514899948323078,-3,1,1,0,-2,-1,-1,-4
1514899948343092,1,-3,-3,-3,-1,-1,0,1
1514899948343092,0,-3,-1,-1,-2,0,-1,-1
1514899948351097,0,0,-1,-1,-2,0,-2,-1
1514899948351097,0,-1,0,0,0,-2,-1,0
1514899948366107,-2,-1,-2,-2,-2,1,-2,-1
1514899948366107,-2,-2,-1,-3,-2,-1,-1,0
1514899948382619,0,2,-2,-1,1,0,-1,1
1514899948382619,0,0,-1,-2,-4,-1,-1,-2
1514899948383119,-1,0,2,3,-2,-1,-1,0
1514899948383119,-2,-1,0,-2,0,-3,-1,-2
1514899948385124,0,-2,-1,-3,-1,-1,-1,-1
1514899948385124,-1,1,1,-1,-1,-3,-1,0
1514899948403636,-1,-2,-3,-1,0,-1,-2,-1
1514899948403636,0,-2,1,-1,-1,0,0,0
1514899948406138,0,0,0,-2,-1,-3,-2,-1
1514899948406138,-2,0,0,-2,-1,1,0,-1
1514899948426149,0,0,-2,-3,-1,-3,-2,-2
1514899948426149,-2,-2,-3,-2,0,0,-1,-1
1514899948427651,1,-1,1,-1,0,0,-2,-2
1514899948427651,-3,-2,-3,0,0,0,0,-1
1514899948442161,-2,0,-1,-2,1,1,0,0
1514899948442161,-1,-1,-1,0,0,0,-1,-1
1514899948444663,1,0,0,-1,-1,0,1,0
1514899948444663,-1,0,-3,0,-3,-3,-1,-1
1514899948463676,-2,0,-1,-1,-1,-1,0,-1
1514899948463676,-1,-3,-1,-1,-2,-1,1,0
1514899948467179,-1,-2,-1,-2,0,-2,0,0
1514899948467179,0,-1,-2,0,1,1,-1,-1
1514899948486254,-1,0,0,-1,-1,-1,1,1
1514899948486254,-2,-1,-2,-1,-2,-2,-2,0
1514899948487765,0,-2,-2,-1,-4,-1,-1,-1
1514899948487765,1,0,0,-1,-2,-1,-1,0
1514899948508771,1,1,-2,-1,-3,-1,-2,-2
1514899948508771,0,-1,-1,-1,0,2,1,-1
1514899948510272,-1,-1,-1,-2,-3,-3,-3,-1
1514899948510272,-1,-1,0,-1,0,-1,-1,-1
1514899948523281,-1,0,0,-1,-2,-2,-2,-2
1514899948523281,0,-2,-1,0,-4,-3,-1,-3
1514899948529785,1,0,2,0,-1,-2,-2,-1
1514899948529785,0,0,0,-1,-1,0,0,1
1514899948546797,-1,-1,-4,-1,-1,0,-2,-1
1514899948546797,-2,-3,-2,-1,-2,-3,-3,-1
1514899948549298,-1,-2,-1,0,-1,-1,0,1
1514899948549298,-2,-2,-1,0,-1,-1,-2,-2
1514899948560806,1,3,-1,1,1,0,-1,-2
1514899948560806,-2,-1,-1,-1,-2,-3,-2,-2
1514899948567338,1,-2,-2,-1,0,0,-1,0
1514899948567338,-1,1,-1,-1,-2,0,0,-1
1514899948583822,-2,0,0,0,1,0,0,-2
1514899948583822,1,-1,-2,-2,-1,-3,-2,-2
1514899948585339,0,-2,-1,0,0,0,-3,-1
1514899948585339,-3,0,-2,-3,-2,-3,0,-1
1514899948606347,0,0,-1,-2,-2,1,-1,0
1514899948606347,-1,-2,0,-1,-1,1,-1,-1
1514899948608855,-2,-3,-2,0,0,0,-1,-2
1514899948608855,-1,-1,-1,-3,-2,-4,-3,-1
1514899948620349,-3,1,0,-1,-4,-5,-2,-3
1514899948620349,-2,-1,-1,-3,1,-1,1,0
1514899948627355,0,-3,0,-1,-2,0,-1,0
1514899948627355,-2,-2,-3,0,-1,0,0,-2
1514899948643366,-2,0,-2,-1,-3,-2,-1,-4
1514899948643366,-1,-1,-1,0,0,-1,0,-2
1514899948644866,-2,-2,-1,0,-1,0,0,2
1514899948644866,-2,0,-1,-1,-2,0,-2,0
1514899948665884,-1,-1,0,-2,-1,-1,-1,-1
1514899948665884,-1,-1,-2,-1,-1,-2,0,0
1514899948668384,-1,-1,-1,-1,2,-4,0,-2
1514899948668384,-1,0,0,-1,0,-1,-2,-1
1514899948680392,1,0,-1,-1,-1,0,-1,-3
1514899948680392,-1,-2,0,0,0,0,-3,-1
1514899948687438,0,-2,-1,-1,0,-2,-1,-1
1514899948687438,0,0,-1,-1,-2,-1,-2,-1
1514899948703453,-1,-1,-1,-1,-2,-1,-1,1
1514899948703453,1,0,0,-1,0,2,-1,-1
1514899948705451,0,-4,0,-3,-1,0,-1,-1
1514899948705451,-1,-1,-1,-2,0,0,-1,-1
1514899948726466,-1,-1,-2,-1,-2,-1,-2,-2
1514899948726466,-1,-3,0,0,-1,-2,-1,-2
1514899948727967,-1,0,-3,-2,0,-1,1,0
1514899948727967,-2,-2,-2,0,-1,-1,0,-1
1514899948740476,-1,0,-2,-2,0,0,-1,-1
1514899948740476,-2,0,0,0,-1,-4,-2,0
1514899948746981,0,-2,-2,0,-3,0,-1,-1
1514899948746981,-1,1,0,-2,-2,-1,0,-1
1514899948770997,-1,0,-1,-1,-1,-2,-2,-2
1514899948770997,-1,-1,-1,-2,-1,-1,-1,0
1514899948772998,-1,-3,-2,0,-1,-1,-1,-2
1514899948772998,-1,-1,0,-1,-1,-1,-1,-1
1514899948786009,1,0,-1,0,0,1,-2,-2
1514899948786009,-1,-3,-2,-2,-1,0,0,0
1514899948787509,-1,-3,0,-1,-1,-2,1,0
1514899948787509,0,-2,-2,-1,-1,-1,-2,-2
1514899948800519,-1,0,-2,0,1,1,-2,0
1514899948800519,-1,-2,-1,-1,0,-1,-2,-1
1514899948807035,-1,-2,0,0,-1,-3,-1,-1
1514899948807035,-1,-1,0,0,1,-2,0,-1
1514899948823534,-1,2,-1,-1,-2,-1,0,0
1514899948823534,-1,-3,-1,-2,0,1,0,0
1514899948825035,-1,-4,-1,-2,0,-1,-1,-1
1514899948825035,-1,-1,-3,0,-2,-1,-2,0
1514899948846050,1,-1,-1,-2,0,-2,-1,-2
1514899948846050,-1,-1,-1,-2,0,-2,-3,-1
1514899948848551,-1,-2,-1,-2,-1,-2,-2,-2
1514899948848551,0,1,-1,0,-1,0,-1,-1
1514899948860570,-2,0,-1,-1,-2,-2,0,0
1514899948860570,-1,-1,0,-1,-2,-1,0,-2
1514899948867069,-2,-3,-2,-2,-1,-1,0,-2
1514899948867069,-1,-1,-1,-2,-2,-2,-1,0
1514899948883634,-3,-1,-2,-1,-1,-1,-2,-1
1514899948883634,-2,-2,-1,-1,0,-1,-1,-1
1514899948885078,-2,-4,-1,0,0,-1,-1,-2
1514899948885078,-2,-1,-2,-1,-1,0,-1,-1
1514899948906093,0,1,0,-2,-1,-1,0,0
1514899948906093,0,-2,-1,-2,-2,-1,-1,-1
1514899948907594,-1,-1,-1,-1,-1,-2,0,0
1514899948907594,0,-1,-1,-1,-3,0,-2,-1
1514899948920104,-2,0,0,-2,-3,-1,-1,-3
1514899948920104,-1,-2,-1,0,-1,-2,0,1
1514899948928609,-1,-2,-1,-1,-1,1,-1,-1
1514899948928609,-1,1,-2,-2,-1,-1,-2,-2
1514899948943629,-2,0,-1,-2,0,-1,-1,0
1514899948943629,-1,-2,-2,0,-2,0,0,-1
1514899948945120,-1,-2,0,0,-1,-1,-1,0
1514899948945120,-2,-2,1,-1,-1,-2,-1,-1
1514899948966154,-1,-1,-2,-1,0,0,0,0
1514899948966154,0,-2,0,1,0,-2,0,-1
1514899948968638,-1,-2,-1,-1,-1,-2,-1,0
1514899948968638,-2,1,-2,-1,0,-1,-1,-1
1514899948979657,-1,1,-1,-2,-1,-2,-3,-2
1514899948979657,0,1,0,-4,-2,-1,0,1
1514899948994656,0,-1,-1,-1,1,0,-1,0
1514899948994656,0,-1,-1,-1,-2,-1,0,-1
1514899949003662,-2,0,0,-2,-1,0,-2,0
1514899949003662,-1,-1,-4,-1,-2,-1,-1,-2
1514899949005164,0,-3,-1,0,-1,1,-1,-2
1514899949005164,-2,0,-2,-1,-1,-2,-1,0
1514899949026177,-2,-1,0,-1,-2,1,0,-2
1514899949026177,-1,-3,-2,-1,-1,-3,-1,-2
1514899949027679,-3,-1,-1,-1,-1,-2,-1,0
1514899949027679,-1,0,-1,0,-1,1,-1,1
1514899949039699,-3,0,-1,-1,-2,-1,0,0
1514899949039699,0,-1,-3,-1,-2,-1,-2,-1
1514899949048711,-1,-2,-1,-2,0,-2,-1,-2
1514899949048711,0,-1,0,-2,0,-1,-1,-1
1514899949063204,-1,-1,-2,0,-1,1,-1,0
1514899949063204,1,-2,1,-1,0,0,-1,0
1514899949069710,-1,-3,-2,-2,-1,0,0,1
1514899949069710,-2,-2,-1,-1,0,-2,-1,-1
1514899949086721,-2,1,-2,-1,-1,0,-1,-2
1514899949086721,-1,-1,-1,-2,0,0,-2,0
1514899949092224,0,-1,0,-1,-1,-3,1,0
1514899949092224,-2,0,-2,-1,-1,0,-1,-2
1514899949099741,-1,2,-3,-3,-2,-1,-2,-3
1514899949099741,-1,-2,0,1,0,0,0,-1
1514899949108735,0,-1,-1,-1,-3,-1,-3,-1
1514899949108735,0,1,-3,0,-1,0,0,0
1514899949123746,-2,0,-2,-3,-1,-3,-2,0
1514899949123746,0,-3,-3,-2,-2,-1,-1,-1
1514899949125749,0,-3,-1,-1,0,-2,-1,-1
1514899949125749,0,-2,-1,0,-3,0,0,-2
1514899949146787,0,0,-2,0,-1,-1,-2,-2
1514899949146787,0,-1,-1,-1,-1,-2,-2,0
1514899949149264,-1,-2,-1,0,-2,-1,0,-1
1514899949149264,0,0,-3,-2,-1,-2,-2,-1
1514899949159772,-1,1,-1,-3,-2,-1,-2,-3
1514899949159772,-3,-4,1,-2,-3,-1,-1,-1
1514899949169281,-1,-2,-3,0,-1,0,-2,0
1514899949169281,-2,-2,0,-1,-2,-2,-2,-2
1514899949198803,-1,-1,-2,-1,-2,-2,0,-1
1514899949198803,-1,-2,-3,-1,-1,0,-1,-2
1514899949201301,-2,-2,-1,-1,-2,-1,0,0
1514899949201301,-1,0,-1,-2,-1,0,0,1
1514899949205814,-1,-2,0,1,-1,-1,0,-1
1514899949205814,-2,-1,1,-1,-1,-2,-1,-1
1514899949207815,0,-3,1,1,-1,-1,-1,-3
1514899949207815,-1,-1,-1,-1,-1,1,-2,-1
1514899949220818,-2,1,-1,-1,-1,-1,-1,0
1514899949220818,-1,-2,-2,0,0,-2,0,-1
1514899949228821,1,-1,-1,-2,0,1,0,-1
1514899949228821,-3,-1,-1,1,-2,-5,-1,-3
1514899949243831,-1,0,0,-2,0,0,-2,-1
1514899949243831,0,-1,-2,-1,0,-3,0,0
1514899949246333,-1,-3,-2,-2,-1,-1,-2,0
1514899949246333,-1,0,-1,-2,0,0,-1,-1
1514899949266347,-1,-1,-2,-1,-2,-1,-1,-2
1514899949266347,0,-2,-2,-2,-1,-2,-1,-1
1514899949268849,0,-2,-1,-2,-1,-2,-1,0
1514899949268849,-1,0,-1,-2,-1,-1,-3,-2
1514899949279858,-2,-1,-1,-2,0,-2,-1,-2
1514899949279858,-2,-1,-1,0,-2,-2,-2,-1
1514899949288864,-4,-1,-2,0,-3,-1,0,-1
1514899949288864,-2,0,-1,-1,-2,-1,-1,-1
1514899949303375,-2,1,-2,0,-2,0,0,-1
1514899949303375,-1,-3,1,-1,0,-1,-1,-1
1514899949304875,0,-1,0,0,0,-1,0,-1
1514899949304875,-1,0,-4,-2,0,-1,-2,1
1514899949325889,-1,-1,-2,-2,-2,-3,-1,-2
1514899949325889,-1,-1,-2,0,0,-1,-1,0
1514899949327891,-2,-3,-1,0,0,0,-1,0
1514899949327891,0,0,-1,-2,0,-1,0,0
1514899949349416,-1,1,0,0,-1,-1,-1,-1
1514899949349416,-1,-3,-1,-2,-1,0,-1,-2
1514899949351417,0,-4,-1,-2,-1,-2,-1,-1
1514899949351417,-1,0,-1,-2,-2,-1,-1,-3
1514899949363937,-1,-1,-1,-2,0,0,-1,-1
1514899949363937,-1,-1,-1,-1,0,-1,-2,-2
1514899949365917,-3,-1,-1,0,-2,-1,-1,-2
1514899949365917,-3,-2,-2,0,-1,-2,-2,-1
1514899949393466,0,-1,-2,0,-2,-2,-3,-1
1514899949393466,0,0,-1,-1,-2,-1,0,0
1514899949395438,-3,-1,-1,0,0,-2,-2,-1
1514899949395438,-2,0,-1,-2,-2,-2,-1,-1
1514899949416954,0,0,-2,-1,-1,-2,-1,-3
1514899949416954,-2,-3,-2,-1,-2,-1,0,-1
1514899949420456,0,-1,-3,-2,-2,0,-1,0
1514899949420456,-1,0,1,0,1,1,0,-1
1514899949430965,0,-2,-1,-1,-1,1,-1,-2
1514899949430965,-1,-2,0,-2,-3,-1,-1,-1
1514899949432465,0,-3,0,0,-1,0,0,-1
1514899949432465,-1,0,-2,-2,-2,0,-2,-1
1514899949446541,-2,-2,1,-1,-2,-1,-2,-2
1514899949446541,-1,-1,1,-1,-1,-1,0,-1
1514899949448026,0,-2,-1,0,-3,-2,-1,0
1514899949448026,0,0,0,-1,-1,-1,-1,-1
1514899949469049,-2,0,-3,-2,-1,-1,0,-2
1514899949469049,-1,-1,0,0,2,0,0,-1
1514899949470543,-1,-1,-1,-1,0,0,-1,1
1514899949470543,0,-1,0,0,0,-1,0,-2
1514899949483116,0,-1,-2,-3,-1,-2,0,-1
1514899949483116,-2,-1,-2,-1,0,-1,0,0
1514899949489615,1,-3,0,-3,-1,-2,1,-1
1514899949489615,-1,-1,-2,0,-2,-3,-1,-2
1514899949506127,0,0,-1,1,-1,-1,-1,-1
1514899949506127,-1,-3,-2,0,-1,-1,-1,-1
1514899949507628,-1,0,0,-1,-1,-1,0,-1
1514899949507628,-1,0,-1,-2,-1,-2,0,-2
1514899949528634,-2,-1,-1,-1,-2,-2,0,-1
1514899949528634,0,-2,-3,-2,0,1,-1,0
1514899949530150,-1,-2,-2,0,-1,0,-2,-1
1514899949530150,-2,-2,-1,0,-1,-1,0,0
1514899949542655,0,0,-3,-2,-2,-1,-1,-2
1514899949542655,-1,0,0,-1,-2,-1,-1,-2
1514899949549658,-1,-1,0,-1,-1,-1,-1,-1
1514899949549658,-2,0,-2,-1,0,-2,-2,-1
1514899949566171,-1,-2,-1,1,-1,-1,-2,0
1514899949566171,-2,-1,0,-1,-1,0,0,-1
1514899949568661,-1,0,-1,-1,0,0,0,-1
1514899949568661,0,-1,-3,0,-1,-1,-1,0
1514899949588677,-1,0,-1,-2,-1,1,1,-1
1514899949588677,0,-2,-2,-2,-2,-2,-1,-3
1514899949590178,-2,-2,-1,-1,0,-3,0,-1
1514899949590178,-2,0,-1,-2,-2,0,-1,0
1514899949611196,-1,0,0,-1,-2,-1,0,-1
1514899949611196,-1,-2,-1,-1,-2,-1,-1,0
1514899949614694,0,-1,-2,-1,-1,-1,0,0
1514899949614694,0,-1,-1,-2,-2,0,-1,-1
1514899949626203,-1,-1,-2,-2,-2,0,0,0
1514899949626203,0,-1,-1,-2,0,-1,-2,-1
1514899949627704,0,0,-2,0,-2,-1,-1,0
1514899949627704,-2,1,-2,0,-1,0,-1,-1
1514899949648733,-2,-1,-1,-1,-3,0,-2,-1
1514899949648733,1,-3,0,2,-1,-1,0,-1
1514899949650220,-2,-2,-1,-1,-1,-1,0,-2
1514899949650220,0,0,0,-2,0,0,-1,-2
1514899949671234,-2,0,-2,-3,-1,-1,-1,-2
1514899949671234,-1,-2,-1,-3,0,-1,-1,0
1514899949672735,-2,-1,-1,0,-2,-2,-1,-1
1514899949672735,-1,1,-2,0,-1,0,-1,0
1514899949686261,-1,-1,-2,-1,-1,-1,-2,-1
1514899949686261,0,-3,0,0,-1,-2,-3,-2
1514899949687746,-2,-1,-2,-1,0,-3,-2,-2
1514899949687746,-1,0,-1,-1,-1,-2,-2,0
1514899949716769,-1,-1,-1,0,-3,-1,-2,-2
1514899949716769,-1,-1,0,-1,-2,0,-1,1
1514899949720772,0,0,-1,1,-2,1,-1,1
1514899949720772,-3,-1,-1,-1,-2,-1,0,-1
1514899949723772,-3,-3,-3,-1,1,0,-1,-1
1514899949723772,-1,-2,0,-1,-1,-3,-1,-2
1514899949729798,0,-1,-1,0,-2,-1,-2,-1
1514899949729798,0,-1,0,-1,-2,0,-2,-1
1514899949746300,-1,0,-1,-2,-1,-1,-2,-1
1514899949746300,-1,-2,-2,-2,-2,-2,-1,-1
1514899949747801,0,-2,0,0,0,-1,0,0
1514899949747801,-2,0,-2,-1,-2,-1,-2,-1
1514899949768312,-1,-1,-2,0,-1,-2,0,-2
1514899949768312,-1,0,-2,0,0,-1,1,1
1514899949770305,-2,-3,-1,-2,-1,-2,-1,-1
1514899949770305,0,-2,-1,-4,-2,0,0,-1
1514899949782869,0,-1,0,-2,-1,0,-1,-2
1514899949782869,-2,0,-1,0,0,-3,0,-1
1514899949789874,-2,0,-2,-1,-1,0,-1,0
1514899949789874,-2,0,-2,-1,0,-1,-2,-3
1514899949804876,0,-1,-1,-1,-1,-2,-3,1
1514899949804876,0,-2,0,-3,-2,-2,-1,-1
1514899949814883,-1,-1,-1,-1,0,-1,0,1
1514899949814883,1,0,0,-2,-3,0,-1,-2
1514899949828401,-2,0,-1,-1,-2,-1,0,-2
1514899949828401,-3,-2,-2,0,0,-1,0,-2
1514899949829893,-2,-1,-1,0,0,0,-1,-2
1514899949829893,0,0,0,-1,0,-2,0,-2
1514899949842411,-1,-1,0,0,-3,-1,-1,-2
1514899949842411,0,-2,-1,-1,0,-1,-1,-1
1514899949851409,0,-1,-1,-2,-2,-2,0,-1
1514899949851409,-1,-1,-3,0,0,-2,1,0
1514899949866422,-2,0,-3,-2,-1,-1,-2,-2
1514899949866422,-1,-2,0,-3,-2,1,-1,-1
1514899949868923,-2,0,-2,-1,-1,0,-1,0
1514899949868923,-1,-1,-1,-3,-2,-2,-1,-1
1514899949888446,1,0,-2,-1,-2,-1,-1,-1
1514899949888446,0,-2,-2,0,-1,0,0,-1
1514899949889936,-2,-1,0,-2,-2,-1,-2,-3
1514899949889936,-2,0,1,0,0,-1,-2,-2
1514899949911951,0,-1,0,-1,1,-1,-1,0
1514899949911951,0,-2,-2,0,-2,-2,-2,-1
1514899949915469,0,1,1,0,-1,-1,0,0
1514899949915469,-2,-2,-2,0,0,0,-2,-1
1514899949925962,-2,-1,0,-1,-1,-1,-1,-2
1514899949925962,-4,-2,0,-2,-1,1,-1,-2
1514899949927964,-1,-2,-2,-1,-1,-2,1,0
1514899949927964,-1,1,-1,-2,-3,-1,-1,0
1514899949948477,-1,-1,0,-1,-1,1,0,-1
1514899949948477,0,-3,-2,-1,0,-3,-2,-1
1514899949949978,-3,-1,-1,-2,-1,1,-2,-1
1514899949949978,-1,1,-2,1,-2,-1,-1,0
1514899949961989,-1,1,-1,0,-1,-1,-2,1
1514899949961989,-1,-1,0,-1,-2,-1,-2,1
1514899949970993,-1,-1,-1,-2,0,-1,-4,-1
1514899949970993,1,0,-2,0,-1,0,-1,-1
1514899949986005,-2,-1,-2,0,-2,-1,-1,-1
1514899949986005,-1,-1,-3,-1,-1,-2,0,-1
1514899949987506,-1,-1,-2,-1,-2,-1,-1,-1
1514899949987506,-3,-1,-1,0,-2,-2,0,-2
1514899950008521,0,-4,-2,-1,-1,-1,-1,-1
1514899950008521,0,-3,0,-2,-2,0,1,0
1514899950011021,0,0,-1,-2,-2,-3,-1,-1
1514899950011021,-1,0,-1,-2,1,-1,-1,-1
1514899950031037,0,-1,-1,-2,-3,-1,-1,-3
1514899950031037,0,-3,-1,0,-2,-1,-2,0
1514899950032536,0,0,-2,-1,0,-1,0,0
1514899950032536,-1,0,0,0,-1,-1,-1,-2
1514899950046057,-3,-1,0,1,0,-2,-3,-1
1514899950046057,1,-1,-1,-1,-1,-1,0,-2
1514899950047559,-1,2,-1,-1,-2,-2,-2,-1
1514899950047559,-2,0,1,-1,-2,0,-1,-1
1514899950068563,0,-2,-1,-1,0,-1,-1,-1
1514899950068563,-2,-1,0,-1,-1,-2,-1,0
1514899950070576,-1,-1,-2,-1,-1,-1,-1,-1
1514899950070576,-1,-1,-1,-1,-2,0,-1,-1
1514899950082080,-1,-2,-1,-1,-1,-3,-1,-1
1514899950082080,-1,-3,0,-2,-1,-2,-2,-1
1514899950091087,-1,-2,-2,-1,-1,0,-1,-1
1514899950091087,1,-1,0,-2,-2,-2,-1,1
1514899950106598,-1,-1,0,-2,-3,-2,-4,-2
1514899950106598,0,-1,-2,0,0,0,-1,0
1514899950108590,-1,-1,0,-1,-3,0,-1,1
1514899950108590,-2,0,-2,0,-2,-1,-1,-2
1514899950128616,-2,-3,-2,0,-1,0,0,1
1514899950128616,-2,-2,0,-1,-2,-2,-3,-1
1514899950130105,-4,-1,-1,0,-1,0,-2,-2
1514899950130105,-1,-1,-1,-1,0,0,-2,-1
1514899950142123,-1,1,-1,-1,0,-1,0,0
1514899950142123,-2,-1,0,0,-1,-2,-2,-1
1514899950151120,0,-1,-2,0,0,-2,0,-2
1514899950151120,-2,1,-1,-1,-2,-2,-3,-2
1514899950166140,-1,1,-1,-1,-1,-1,-1,-1
1514899950166140,0,-2,-1,-1,-1,-1,-1,0
1514899950168632,0,-1,0,0,-1,0,-1,1
1514899950168632,-1,0,-2,-1,-1,-1,-2,0
1514899950188647,-1,-2,0,-2,-1,-1,0,-2
1514899950188647,0,-5,-1,-2,-1,-1,-2,-1
1514899950190148,-1,-1,-1,-2,-1,-1,-1,-2
1514899950190148,-2,-1,-1,0,-1,-2,0,-2
1514899950202657,-2,-2,-1,-2,-1,-1,0,-1
1514899950202657,-1,-2,-2,0,0,0,-1,-1
1514899950211172,-2,0,0,-1,-1,-1,-1,-2
1514899950211172,-2,0,-1,-1,-1,1,-2,-2
1514899950226173,-1,-2,-2,-1,-2,0,1,-1
1514899950226173,-2,-4,-1,-1,-1,-1,0,-1
1514899950227674,0,0,-1,-1,0,-1,-1,-2
1514899950227674,1,0,-1,0,-1,-2,-2,-2
1514899950248689,-1,0,0,-1,-1,-1,-2,-3
1514899950248689,-2,0,-1,-1,1,-2,-2,-1
1514899950250190,-1,-1,-1,-2,-1,-2,-2,-1
1514899950250190,-2,-1,-1,-2,0,0,-4,-2
1514899950262199,-1,-2,-1,0,0,-2,0,-2
1514899950262199,-1,-5,-1,-2,-2,-2,-1,-1
1514899950271206,-1,-1,-1,-1,0,-1,0,0
1514899950271206,-1,0,-1,-1,-2,-1,1,-1
1514899950286218,-1,-2,-1,-3,1,-1,-2,0
1514899950286218,-2,-1,-1,1,-1,-1,0,-1
1514899950287717,-2,-1,-2,0,-1,0,0,-1
1514899950287717,-2,0,-1,-3,-1,0,0,-2
1514899950308743,-1,-1,-1,0,1,-1,-2,-2
1514899950308743,-2,-2,0,-1,-1,-2,-1,-1
1514899950310233,-1,-3,-3,-1,-1,-2,0,-2
1514899950310233,-1,1,-2,-1,-1,-1,-2,0
1514899950331249,1,-3,-1,-1,-2,0,0,-1
1514899950331249,-2,1,-2,-3,0,0,-2,-1
1514899950333266,-1,0,-1,-1,-2,-1,0,0
1514899950333266,-2,0,-1,-2,0,-1,-1,0
1514899950345268,-2,-3,1,-1,-1,-3,-2,-1
1514899950345268,0,-2,-1,-1,-1,-1,-2,0
1514899950352263,-1,-1,0,-2,0,-2,-1,0
1514899950352263,0,0,-1,0,-1,1,0,-1
1514899950368775,-2,-1,-2,0,-1,-1,0,-1
1514899950368775,3,-3,-2,0,-1,-1,0,0
1514899950371777,-1,1,1,-2,-1,-2,-1,-3
1514899950371777,0,0,-2,0,-2,0,0,-3
1514899950390799,-1,-1,-2,-2,0,0,0,-2
1514899950390799,-1,-2,-1,0,-2,-2,0,-2
1514899950392800,-2,-1,-1,-1,0,1,-2,-2
1514899950392800,-1,-1,0,-2,-1,-1,0,0
1514899950405809,0,-1,-1,-1,0,-3,-2,-1
1514899950405809,-1,-2,-1,-1,-1,-1,-1,-1
1514899950407311,-1,-1,-2,-1,-1,-1,0,-1
1514899950407311,-1,0,-1,-2,-2,-1,1,-1
1514899950428331,-1,-4,0,-2,-2,-2,-1,-3
1514899950428331,-3,-2,0,-2,1,-1,0,-1
1514899950429816,-3,0,-1,0,-2,-1,-2,-1
1514899950429816,-1,0,-1,-1,-1,-1,0,-2
1514899950450832,-2,-2,0,-1,-1,-2,-1,1
1514899950450832,0,-2,-1,0,1,0,-2,0
1514899950452841,-1,0,-1,-1,-2,-2,0,0
1514899950452841,-3,2,-2,-1,-3,-2,-1,-2
1514899950465361,-2,-1,-1,-2,0,-1,-2,0
1514899950465361,-1,-3,-1,-2,-1,0,0,-2
1514899950472351,1,0,-1,-1,0,-1,-2,0
1514899950472351,2,0,0,-1,-1,-1,-1,-2
1514899950488368,-1,-2,-3,-1,-3,0,-1,-2
1514899950488368,-1,-1,-2,-1,-2,-1,-3,0
1514899950489861,0,0,-1,-2,0,0,0,-1
1514899950489861,-1,-1,-2,-1,0,-2,-3,-2
1514899950510874,0,-1,1,-1,1,1,0,-1
1514899950510874,1,-4,-2,-1,-1,-2,2,0
1514899950514377,-2,0,0,-1,-3,-1,-1,-1
1514899950514377,-2,-2,-2,-2,-1,-1,-1,-1
1514899950525385,-2,-1,-1,-2,-2,-3,0,-1
1514899950525385,-2,-1,-1,-1,-2,-1,-2,-3
1514899950531889,-1,0,-2,0,-1,-2,-1,1
1514899950531889,0,1,-1,-2,-1,-1,-2,-1
1514899950548901,0,-2,-2,-2,-1,0,-2,-1
1514899950548901,-1,-1,-1,0,-1,-2,-2,-2
1514899950550402,-2,0,0,-1,-1,0,-1,-2
1514899950550402,-5,0,0,-1,-1,-1,-2,-2
1514899950570916,-3,-4,-1,-2,0,-1,0,-1
1514899950570916,0,-3,0,0,-1,-2,0,1
1514899950572918,-1,0,-2,0,-2,-1,-1,1
1514899950572918,1,1,-1,-2,-1,0,0,0
1514899950585427,-1,-1,-2,0,0,-2,-3,0
1514899950585427,-1,-4,-1,-1,-1,0,0,-2
1514899950591932,0,-1,-1,-2,-1,0,-1,-3
1514899950591932,-3,0,-2,-1,-2,-1,0,-1
1514899950608453,0,-2,-2,-1,-2,-2,-2,0
1514899950608453,0,-2,0,-1,-2,-1,1,0
1514899950610445,0,0,-3,-2,-1,0,-2,-2
1514899950610445,1,0,0,-2,-1,-1,-1,0
1514899950630959,-1,-2,-2,0,-2,1,0,-2
1514899950630959,-2,-2,-1,-1,-2,0,-1,1
1514899950632460,-3,1,-1,-1,-1,-1,-2,0
1514899950632460,-2,-1,1,0,-1,-1,-2,-1
1514899950645471,0,1,0,0,-2,-1,-1,-1
1514899950645471,-1,-3,-1,-1,0,-1,-1,0
1514899950651977,0,0,0,0,-2,-1,0,0
1514899950651977,-1,1,-3,1,-1,-1,-1,-1
1514899950669488,1,-2,-2,0,-1,0,1,-1
1514899950669488,-6,-3,-1,1,-1,-1,-1,-2
1514899950670988,-1,0,-1,0,-1,0,-1,-2
1514899950670988,0,-1,-1,-2,-1,1,-1,-1
1514899950691015,-4,-1,-1,-1,-2,-2,-2,-3
1514899950691015,6,-3,-1,0,0,-1,-2,0
1514899950692503,-1,-1,-2,-2,-1,0,-2,-1
1514899950692503,-2,0,-2,0,-2,-1,-1,-3
1514899950713519,1,-2,-2,0,-1,0,0,0
1514899950713519,-2,-2,0,-1,-2,1,0,-2
1514899950717034,-1,-1,0,-3,-2,-2,-1,-1
1514899950717034,-1,0,-2,0,-1,1,0,-2
1514899950728528,-3,-1,-1,-2,0,-1,-1,-1
1514899950728528,0,-2,-2,0,0,-2,-2,1
1514899950730029,-2,-1,-1,-1,-2,-1,-2,0
1514899950730029,-4,-1,-2,-1,-1,-1,-1,-1
1514899950751056,1,-3,0,-2,-1,-1,-1,-1
1514899950751056,-2,-2,-1,0,0,-1,0,0
1514899950752547,1,-2,-2,-1,-1,-1,0,-1
1514899950752547,0,-1,-2,-2,0,1,1,-1
1514899950765563,-3,-3,-1,0,0,-2,-2,-2
1514899950765563,-2,-1,0,-2,-2,0,-3,0
1514899950772059,-2,1,0,1,-1,-2,0,-2
1514899950772059,-1,2,-2,0,-2,-2,-1,-2
1514899950788571,-1,-2,0,-1,-2,-2,0,-1
1514899950788571,-1,-2,-3,-2,0,-1,-1,-2
1514899950790083,-1,0,-2,0,-1,0,1,-1
1514899950790083,-3,-1,-2,-2,0,0,-2,-1
1514899950810100,8,0,-1,1,-1,-1,-1,1
1514899950810100,-2,-3,-1,0,-1,0,0,0
1514899950811086,-2,0,0,0,-1,0,-1,0
1514899950811086,1,2,0,-2,-3,-1,0,-2
1514899950833602,-3,-2,-1,0,-1,0,-2,0
1514899950833602,-1,0,-2,-1,0,-2,-1,0
1514899950834102,2,-1,0,-1,-2,-3,-1,-1
1514899950834102,-1,-1,-1,-1,-2,-1,0,-3
1514899950847622,-2,-1,-1,-3,-1,1,-1,0
1514899950847622,0,-2,-1,0,-1,-2,-1,-1
1514899950848623,-2,-1,-3,-2,0,-1,-1,-3
1514899950848623,-1,1,-1,-1,-1,-2,-2,0
1514899950870629,-2,-2,-1,-2,-1,-1,0,-1
1514899950870629,1,-3,-1,-1,-1,-1,-1,-1
1514899950871128,-2,-2,0,-1,-1,0,-1,-1
1514899950871128,-2,-2,-1,-2,-1,-1,-3,-2
1514899950893647,-2,0,0,0,-1,-1,0,-2
1514899950893647,-4,-1,0,-1,-3,-2,-1,-1
1514899950894145,7,-2,0,0,0,0,-1,-1
1514899950894145,-3,0,-1,1,0,-1,-2,-1
1514899950907667,-1,-2,-2,-3,-1,-2,-1,0
1514899950907667,1,-3,-2,0,-2,-2,-1,0
1514899950908667,-3,1,-2,-2,-1,-1,-2,-1
1514899950908667,1,0,-1,-2,-1,-2,-2,-3
1514899950930170,0,-3,-1,1,-1,-3,-1,0
1514899950930170,1,-2,-1,-2,-2,-1,0,-2
1514899950931171,-3,-1,-2,-1,-2,-2,-1,-1
1514899950931171,0,1,-1,0,-2,0,0,1
1514899950955198,-3,-3,0,-1,-2,-3,-2,-1
1514899950955198,-1,-2,-1,-2,-2,0,-1,1
1514899950956199,-3,0,0,-1,-1,-1,-1,-1
1514899950956199,-3,0,0,-3,1,-1,-2,-1
1514899950968198,1,-2,-1,0,0,-1,-1,0
1514899950968198,-2,-3,-2,-1,0,-2,-2,-1
1514899950969199,-3,0,-1,-1,-2,-3,-3,-2
1514899950969199,-1,0,-1,-1,-3,1,0,-2
1514899950990214,-2,0,0,-1,0,-2,-2,-3
1514899950990214,-5,-2,-1,0,1,-2,-2,1
1514899950991214,3,1,-1,-1,-1,-2,0,0
1514899950991214,-1,-3,-2,-1,-1,-1,-1,-2
1514899951014242,1,-2,-2,0,-2,0,-1,-2
1514899951014242,-2,-2,-1,0,0,0,-2,-2
1514899951016231,0,0,-1,-1,0,-1,0,-1
1514899951016231,1,-2,0,-1,-1,-3,0,1
1514899951027740,-1,-2,-2,-2,-2,-1,-1,-1
1514899951027740,1,-1,0,0,1,-1,-1,-1
1514899951028741,-3,0,0,-2,0,1,0,-1
1514899951028741,0,2,-1,-2,-1,-1,0,-4
1514899951050256,-1,-2,0,0,-1,-2,-3,-1
1514899951050256,-1,-2,-2,-1,-1,-2,0,0
1514899951051257,-5,-1,-2,0,-1,-2,0,-1
1514899951051257,0,1,-2,0,-2,0,-2,-4
1514899951064765,0,-2,-1,-2,1,-1,-1,0
1514899951064765,0,-1,-1,-1,-1,-1,-2,1
1514899951072783,-3,-2,-2,-1,-2,-1,-2,-1
1514899951072783,-2,1,-2,-3,-2,-1,-2,-2
1514899951087792,0,-1,0,-2,-1,-1,0,0
1514899951087792,0,-1,-1,-1,0,-1,0,-1
1514899951088782,-1,-1,-1,-2,1,-1,-2,-1
1514899951088782,-1,1,-1,-2,-1,-2,-1,-1
1514899951110307,-1,-3,-1,1,-1,-2,-2,-3
1514899951110307,0,-2,-1,0,0,-1,1,0
1514899951112308,0,-1,-1,0,-2,-1,-1,-1
1514899951112308,1,-1,-1,-2,-1,-2,-1,1
1514899951133314,-3,-3,-2,-2,-1,0,-1,-3
1514899951133314,-4,-2,-1,-1,-1,0,-1,-1
1514899951134316,5,1,-1,-2,-1,-1,-1,-2
1514899951134316,-3,0,-1,0,-1,-1,-3,-1
1514899951147849,-1,-1,-1,-3,0,-1,0,0
1514899951147849,1,-2,-1,0,-2,-2,-2,-1
1514899951148842,-10,0,-3,-2,-2,-2,0,-2
1514899951148842,-1,-2,-1,-1,-2,-1,-1,0
1514899951170341,-2,-1,-1,-1,0,-2,0,0
1514899951170341,-1,-4,-1,-1,-1,0,-1,-2
1514899951171350,-1,-1,-1,-3,-1,1,-1,1
1514899951171350,0,0,-3,-1,-1,1,0,0
1514899951193367,-3,-2,-2,-1,-1,-3,-2,0
1514899951193367,-1,-2,-1,-2,-2,-2,0,2
1514899951194362,0,0,-2,-2,-1,-1,-2,-1
1514899951194362,-3,-1,0,-1,0,-1,0,-2
1514899951207878,2,-1,1,-1,1,0,0,-2
1514899951207878,-2,-2,1,-2,-2,-1,-1,2
1514899951208371,3,-1,0,0,0,0,-1,-2
1514899951208371,0,-3,-2,-1,-1,-1,-1,0
1514899951230383,-1,-3,-3,-2,-1,-2,-1,0
1514899951230383,2,-2,-1,-1,-1,-2,-1,-2
1514899951230884,-14,-1,0,-1,-1,-2,-1,-5
1514899951230884,-1,0,-2,0,0,-1,-1,-1
1514899951253400,0,-2,0,-2,0,-2,1,-1
1514899951253400,1,-1,0,-1,-1,-1,-1,-2
1514899951254400,4,8,3,0,-2,0,-1,1
1514899951254400,-2,0,-1,-2,-2,-2,-3,-1
1514899951267910,-2,0,-1,1,-1,2,0,-1
1514899951267910,0,-1,-1,-3,-1,-1,-1,0
1514899951269914,1,-3,-2,-2,-1,0,0,1
1514899951269914,-3,0,-1,-1,0,0,-1,-3
1514899951290937,-1,-1,-1,0,0,1,3,1
1514899951290937,2,-1,-2,0,-1,-2,-3,-2
1514899951291428,0,-3,-2,-1,-2,1,0,-1
1514899951291428,0,0,-1,-1,-1,-1,-1,-2
1514899951314442,-3,-2,-2,-2,0,0,-2,-1
1514899951314442,0,0,-2,0,0,-1,1,1
1514899951316459,0,-1,-2,-2,0,-2,-1,0
1514899951316459,2,-1,-1,-2,-2,-1,0,0
1514899951327951,1,-1,-1,0,-1,0,-3,-1
1514899951327951,-3,-2,-1,0,0,0,0,-4
1514899951328451,2,0,-2,0,-2,-2,-1,-1
1514899951328451,-1,-2,-2,-2,0,0,-1,-2
1514899951350479,0,-1,-1,-2,-1,-2,-1,0
1514899951350479,0,-2,-2,-2,-2,1,-1,-1
1514899951351970,0,-3,-2,-2,-1,-1,-1,1
1514899951351970,-1,0,-2,-1,-2,-2,-1,-2
1514899951373493,1,-2,-1,-1,0,-1,0,-1
1514899951373493,-2,0,-1,1,0,-1,-1,0
1514899951373985,7,0,-2,-1,-2,-2,0,-4
1514899951373985,-2,-1,-1,-2,-1,0,0,-2
1514899951388008,-2,-3,0,-2,-1,0,-4,1
1514899951388008,-1,-3,0,-1,-1,-1,-1,-1
1514899951388497,-3,-2,-1,-1,-1,-2,-1,-2
1514899951388497,0,-1,0,-1,-1,-1,-1,-1
1514899951410021,5,-2,-1,-1,-1,-2,-1,-1
1514899951410021,-6,-1,-2,0,-1,-1,-2,0
1514899951411012,-1,0,-2,1,1,1,0,2
1514899951411012,-1,-1,-1,-1,-2,-2,-1,-2
1514899951434537,-1,-3,0,-3,-1,-1,-2,-2
1514899951434537,1,-1,-1,-1,-1,0,-1,-2
1514899951436543,-1,-1,-2,-2,-1,-3,-2,-1
1514899951436543,-3,-1,-2,-2,-1,-2,-2,0
1514899951447549,-2,-2,-2,-1,-2,0,-1,-1
1514899951447549,1,-1,-1,-1,-3,-2,-1,-1
1514899951448549,-5,-1,0,0,1,0,-1,-3
1514899951448549,6,1,-1,-2,-1,-1,1,0
1514899951472053,-2,-3,-1,-2,-1,-3,1,-3
1514899951472053,-1,0,-1,-1,-1,0,0,0
1514899951472553,-3,0,-1,-1,-1,0,-1,-2
1514899951472553,-3,0,0,-1,0,0,-1,-2
1514899951494069,0,0,0,-1,0,-1,0,1
1514899951494069,0,-2,-1,0,-1,-2,-3,-2
1514899951494570,-1,0,-1,-1,-2,-2,-2,-2
1514899951494570,0,-1,-2,-2,-2,-1,-1,-1
1514899951507590,-1,-2,-1,-3,-1,-1,-2,-1
1514899951507590,-1,-1,-1,-2,0,-3,0,-1
1514899951508591,-3,-3,-2,-2,0,-2,-2,-1
1514899951508591,0,-1,0,-1,-1,0,-1,-2
1514899951530094,-1,-1,-1,1,-1,-1,1,-1
1514899951530094,-5,-1,0,0,0,0,-1,0
1514899951531095,1,-1,-1,-2,-1,0,-1,-2
1514899951531095,-4,0,-3,-1,-1,-2,-2,-1
1514899951555114,-3,-1,-2,-2,-3,-2,-2,-1
1514899951555114,-3,0,-2,-1,0,0,-1,0
1514899951555632,1,1,-1,-1,-1,1,-1,1
1514899951555632,-2,-1,0,-2,0,-1,1,-2
1514899951567653,-3,-3,0,-1,-1,0,0,0
1514899951567653,1,1,0,-1,-1,-1,0,-2
1514899951568644,0,0,0,-2,-1,-2,-2,-1
1514899951568644,-5,-2,-2,-2,-1,-3,-2,-4
1514899951598642,-1,-1,0,0,0,-3,-2,0
1514899951598642,1,0,0,-1,1,0,0,0
1514899951599143,-2,0,-2,-2,-3,-2,-2,-2
1514899951599143,0,-2,0,0,-1,1,-2,-1
1514899951613654,0,-1,-1,-2,-1,1,0,0
1514899951613654,-3,-2,-1,-3,-1,-2,-1,-1
1514899951615163,1,1,-1,-1,1,1,0,-2
1514899951615163,-1,-1,-1,-1,-2,-2,-1,-1
1514899951627663,-1,0,-1,-2,-1,-3,0,-3
1514899951627663,1,-1,-1,-1,-1,-1,-1,1
1514899951628664,-3,-1,0,0,-1,-2,0,-1
1514899951628664,-1,-1,-2,-2,-2,1,0,1
1514899951658694,-1,-3,0,-1,0,-1,-1,1
1514899951658694,0,-1,-2,-1,-3,-2,-3,-1
1514899951659185,0,0,0,0,-1,0,-1,-2
1514899951659185,0,-1,0,-2,-1,0,-2,-3
1514899951673249,0,-2,0,-2,-1,-2,1,-2
1514899951673249,-4,-2,-1,1,-3,-1,0,-3
1514899951674250,-3,0,-1,-1,-2,-1,-1,0
1514899951674250,-1,0,-1,0,-1,-2,-1,2
1514899951687761,-4,0,-1,-1,-1,-2,-1,-2
1514899951687761,5,0,1,0,1,-2,-1,-1
1514899951688751,-3,0,0,-1,-1,-1,0,1
1514899951688751,0,0,-1,0,0,-1,-1,0
1514899951710281,-1,-3,-1,-1,0,0,-2,-2
1514899951710281,-1,-2,-2,-1,-2,-2,-1,2
1514899951711282,-1,0,-1,0,-1,0,-1,-2
1514899951711282,0,1,-1,-2,-1,-1,-1,-3
1514899951733282,1,-1,-4,0,-1,-1,-1,1
1514899951733282,-2,-2,-2,-2,-1,-1,0,-3
1514899951734283,-1,-1,-2,-1,0,-1,0,-2
1514899951734283,-2,-3,1,-1,-1,-2,0,-2
1514899951747792,-1,-2,-1,-1,0,-2,-2,-1
1514899951747792,-2,-1,-1,-2,-1,0,-1,0
1514899951748793,2,0,-1,-2,-4,-1,-1,0
1514899951748793,-1,-1,-1,-1,-1,-1,-2,-2
1514899951770308,1,-2,-1,-1,-1,-1,0,0
1514899951770308,0,0,0,-1,0,-4,-1,-1
1514899951770810,-1,0,-1,-2,0,0,-2,-1
1514899951770810,-6,-1,-1,-2,0,-2,-2,-1
1514899951793333,2,-3,-1,-2,0,0,1,-1
1514899951793333,0,-2,-1,-1,-1,-2,-1,-1
1514899951794325,-3,-1,-3,-2,-2,-2,-2,-3
1514899951794325,-1,-1,-1,-2,0,0,-1,1
1514899951807835,-2,-2,-2,0,1,-1,0,-2
1514899951807835,-1,-1,-1,-1,0,0,-1,-2
1514899951808334,-1,0,1,-2,-1,-1,-1,-2
1514899951808334,1,-2,-1,1,-1,-1,-2,-2
1514899951830350,0,0,0,-1,-3,-1,-2,-1
1514899951830350,0,1,-1,-1,-1,-1,0,1
1514899951830851,-1,-1,-2,0,0,-1,2,-1
1514899951830851,1,0,0,-2,0,0,0,-1
1514899951852366,1,-3,0,-1,-1,-2,-2,0
1514899951852366,-4,-1,-2,1,-3,0,-1,-3
1514899951868877,1,-2,-1,-1,-3,-1,-2,1
1514899951868877,-2,-1,-1,0,-2,-2,0,-1
1514899951870381,-3,-3,1,-3,-1,-2,-2,0
1514899951870381,4,-1,-1,-3,-1,-1,-2,1
1514899951875382,-3,0,-1,-1,1,-2,-2,-2
1514899951875382,0,-1,-1,-2,-1,-2,-1,-1
1514899951890893,-4,-2,-3,0,-2,-2,-2,-1
1514899951890893,-3,0,0,-3,-1,-1,-1,-2
1514899951891404,-2,1,-1,0,0,1,-1,-2
1514899951891404,0,-2,-2,1,-1,-2,-2,-1
1514899951914910,0,1,-1,-2,-1,0,-1,-1
1514899951914910,-1,0,-1,-1,0,-1,-2,-1
1514899951916411,-1,-1,0,1,-2,-1,2,0
1514899951916411,-1,-4,0,0,-2,1,-1,0
1514899951926919,-1,-3,-2,0,-2,0,-2,0
1514899951926919,0,0,-2,-2,-1,1,-2,2
1514899951935428,-9,0,-1,-3,-2,0,-1,-3
1514899951935428,0,0,-2,-1,-2,-2,-1,-3
1514899951950435,-4,-3,0,0,-1,-3,0,-2
1514899951950435,5,0,0,-2,-1,-3,-2,-2
1514899951950935,0,0,-2,0,-1,-1,-1,0
1514899951950935,-3,-3,-1,-1,0,-2,-1,0
1514899951973461,-2,-3,-2,0,0,-2,-1,-2
1514899951973461,-3,-2,-1,1,0,0,0,-3
1514899951973954,1,2,-1,-3,-2,1,0,-3
1514899951973954,0,-2,-1,-2,-1,-2,1,-1
1514899951986963,0,-2,-2,-1,-1,1,-2,1
1514899951986963,-4,-2,-2,0,-1,0,-1,0
1514899951994988,-1,-1,-2,-2,0,0,-2,-2
1514899951994988,-1,-1,-2,0,-1,-3,-1,-2
1514899952010478,0,-3,-2,-2,-1,-2,0,1
1514899952010478,0,1,-1,-1,-2,-2,-2,-1
1514899952010980,-6,0,0,-1,-1,0,0,0
1514899952010980,-3,-2,0,1,-1,-1,-2,0
1514899952034006,0,-1,-2,0,0,-2,-1,-2
1514899952034006,-2,-1,-2,0,0,0,0,-1
1514899952034494,2,0,-2,0,-1,-2,-1,-1
1514899952034494,-1,-2,-1,-2,-1,-1,-1,-2
1514899952047013,-2,-3,0,0,-1,-3,-1,-3
1514899952047013,-2,-1,-1,-1,0,0,1,1
1514899952063014,-2,0,-2,0,-2,-1,-2,-2
1514899952063014,-1,-3,1,-2,-1,2,2,7
1514899952070069,-2,-1,-2,-3,1,-1,-8,-10
1514899952070069,-1,0,-2,-1,-2,0,-2,1
1514899952071060,2,0,-1,-2,-2,-1,3,-1
1514899952071060,1,-1,-2,-1,-2,-4,4,9
1514899952093579,-1,0,1,-2,0,4,-11,-8
1514899952093579,-6,-4,-3,-2,-1,-2,3,-13
1514899952094075,1,1,-1,-1,-1,-3,-13,-2
1514899952094075,-2,0,-2,0,0,0,0,-5
1514899952117592,-4,-3,-1,0,0,-2,3,1
1514899952117592,-1,0,0,0,1,-2,9,5
1514899952119093,2,0,-3,0,-3,-2,6,4
1514899952119093,0,-2,0,0,0,0,-1,-7
1514899952130601,0,-3,0,-2,-2,-1,1,11
1514899952130601,0,-2,-1,-1,1,1,-3,-1
1514899952131609,-1,-2,-1,-1,-1,-3,-2,-1
1514899952131609,0,-3,-1,-2,-1,0,-2,-2
1514899952153619,0,-3,-1,-2,-2,0,2,-2
1514899952153619,-2,-2,-1,-2,-1,-2,-4,-1
1514899952155120,-2,0,-1,-2,-1,0,2,-3
1514899952155120,-1,-1,-3,-2,-1,-1,-3,-4
1514899952176133,1,-3,-1,-1,-1,-1,0,-1
1514899952176133,-1,2,-1,-1,-2,-1,-3,-2
1514899952176635,0,0,-1,-2,-1,0,-2,5
1514899952176635,0,-1,-1,-1,0,1,-2,-2
1514899952190190,1,-2,-2,-1,-3,-3,0,2
1514899952190190,-1,1,-1,-2,-3,-1,1,0
1514899952191191,-3,1,-1,0,-2,-2,-2,-4
1514899952191191,2,-3,-1,-2,-1,-3,-2,0
1514899952213721,-7,-2,-1,-1,-1,-1,1,-1
1514899952213721,0,-1,0,0,-2,-1,-2,-1
