timestamp,emg1,emg2,emg3,emg4,emg5,emg6,emg7,emg8
1511760517498464,0,0,-2,-3,0,0,-1,-1
1511760517498464,-1,-1,-2,0,-1,-1,-1,-1
1511760517499465,0,-1,0,-1,0,-2,-2,-2
1511760517499465,-1,-1,0,-1,-1,-1,-1,-1
1511760517529488,0,-2,-2,-1,-2,0,-1,0
1511760517529488,-2,0,-1,0,0,-2,0,0
1511760517529986,-2,-2,0,-2,-1,-2,-1,-2
1511760517529986,0,0,-1,0,-3,0,-1,-1
1511760517543995,-1,-3,-2,-1,-1,-2,-1,-2
1511760517543995,-2,-1,-1,-1,-2,1,1,0
1511760517544997,-2,-1,2,-1,-1,-1,-1,-1
1511760517544997,-2,-1,-1,-2,1,-2,-1,-1
1511760517558505,0,-2,-2,-1,-1,0,-1,0
1511760517558505,-3,-1,-3,-2,-2,0,1,-1
1511760517559006,0,-1,0,0,-1,-2,1,-2
1511760517559006,-2,0,0,-1,-3,-1,0,-2
1511760517581037,0,0,-3,0,-2,-2,-3,0
1511760517581037,0,-2,-2,-1,0,-2,-3,-2
1511760517581533,-1,1,-1,-1,-1,1,0,0
1511760517581533,0,-1,-2,-1,1,-1,-1,-2
1511760517604039,-2,-3,-3,1,-2,-2,-1,-2
1511760517604039,-2,-2,-1,0,0,-2,-3,0
1511760517605039,-2,-1,-2,-1,-2,-2,1,-3
1511760517605039,0,-1,-2,0,-1,-1,0,-2
1511760517618550,0,-1,-3,-1,0,-1,-1,1
1511760517618550,-1,0,1,-3,-1,-2,0,0
1511760517618550,-1,-2,0,0,-1,-1,-1,-1
1511760517618550,-2,-1,-1,0,-2,-1,-2,-1
1511760517641566,0,-2,0,0,-3,0,-2,-1
1511760517641566,-1,-2,-2,-1,-1,1,-1,-2
1511760517641566,-1,-2,-1,-2,-2,-1,0,0
1511760517641566,-2,-1,1,-2,-1,0,1,-1
1511760517663582,0,-2,-2,-1,-1,-1,-1,-1
1511760517663582,1,1,-1,0,-2,-2,-3,-2
1511760517664584,0,-1,0,-2,0,1,-2,-2
1511760517664584,-1,-2,0,1,-1,-2,-1,-1
1511760517678599,-1,0,-1,-1,0,-1,-2,0
1511760517678599,-1,0,-2,-3,-2,-1,2,-1
1511760517680594,-2,-1,-2,0,-2,-2,1,-1
1511760517680594,-1,-2,0,-1,-1,-1,-2,-1
1511760517700608,0,0,-1,-2,-1,0,-2,-1
1511760517700608,-1,-2,-1,0,-2,-1,0,-1
1511760517701609,0,-1,0,1,0,1,-1,0
1511760517701609,-2,1,-1,-1,0,-1,-1,2
1511760517723624,-2,0,-3,-1,-2,-1,-1,-1
1511760517723624,0,-1,-1,-2,0,-2,-2,-1
1511760517724625,-2,-1,1,-3,-1,-2,-1,-3
1511760517724625,-1,0,0,0,-3,-2,0,-2
1511760517737634,-1,-1,-3,-1,-3,1,-1,-1
1511760517737634,0,-1,-4,-3,-1,-2,-2,0
1511760517745643,-2,-1,2,0,0,-3,-3,-2
1511760517745643,0,-2,-1,-1,-1,-1,-1,-1
1511760517760650,-2,-1,-2,0,1,0,0,0
1511760517760650,-1,-2,-1,0,-1,0,-2,-3
1511760517761663,0,0,0,0,0,-2,2,-1
1511760517761663,-2,0,-1,-1,1,0,-1,0
1511760517783666,-2,-2,-3,0,1,-1,-1,-1
1511760517783666,0,-2,0,-2,-1,-2,-2,0
1511760517784668,-2,2,0,-1,-4,-2,0,1
1511760517784668,-1,-2,-1,-1,-1,-1,-2,-1
1511760517797676,-1,0,-1,-2,-1,-2,1,0
1511760517797676,0,0,-3,0,-2,-1,1,-1
1511760517805683,0,-1,-1,0,0,-1,-2,-4
1511760517805683,1,-1,-1,-1,-3,-1,2,-2
1511760517820693,0,-1,0,-3,-1,-1,-2,0
1511760517820693,-1,-1,-1,0,0,-1,0,-1
1511760517821704,-1,1,0,-3,-2,-2,-1,-3
1511760517821704,-1,-1,1,-2,1,-1,-2,-1
1511760517843710,-1,-2,-2,-1,-2,-2,-3,1
1511760517843710,-1,0,0,0,-2,0,-3,0
1511760517844710,-2,0,-1,-2,-1,0,-2,0
1511760517844710,-1,-1,0,-1,-2,-1,-1,-1
1511760517867727,-1,0,0,-2,1,-2,-1,-1
1511760517867727,-1,-1,-1,-3,-1,0,-1,0
1511760517868727,-2,-3,-1,-1,-2,-2,-2,-1
1511760517868727,-1,0,-2,0,-1,0,-2,-3
1511760517880740,-1,0,-1,1,-2,0,-3,-3
1511760517880740,0,-3,-2,0,-1,-2,0,0
1511760517881736,0,-1,0,-3,-2,-1,0,-2
1511760517881736,-2,-1,-2,-2,-2,0,-1,0
1511760517903764,-2,-1,-1,0,-1,1,-3,-1
1511760517903764,-1,-2,0,0,-1,-1,0,-3
1511760517905765,-1,-2,0,0,0,-1,0,-2
1511760517905765,0,-2,-1,-1,0,-1,-2,-1
1511760517917773,0,-2,-3,-2,0,-1,-1,-3
1511760517917773,-1,2,-1,-1,-2,-1,-2,-2
1511760517926780,0,-1,0,-1,0,-1,0,-1
1511760517926780,-1,0,0,-1,2,-2,0,0
1511760517940787,-1,-1,-1,-2,0,-3,-1,-1
1511760517940787,0,-1,-1,-2,-1,0,0,-1
1511760517941788,-2,0,1,-1,-1,-1,1,-1
1511760517941788,0,-1,1,0,-1,-1,-3,-1
1511760517963810,-1,0,-3,0,0,0,0,-1
1511760517963810,-2,0,-4,-2,-4,-1,-1,-1
1511760517964795,-1,-1,0,-1,-1,-1,-1,0
1511760517964795,0,0,0,-2,0,-1,-1,-1
1511760517977805,-1,-1,-2,-2,1,-1,-1,0
1511760517977805,-1,-1,1,-2,-2,-1,-2,-2
1511760517985811,0,-2,-1,0,-3,0,-1,-2
1511760517985811,0,-1,0,-1,0,-2,1,-2
1511760518000821,-1,-2,-2,0,-2,0,-2,-1
1511760518000821,-1,-1,-2,-2,1,-2,1,0
1511760518001835,-1,1,1,0,0,0,0,-2
1511760518001835,-2,0,-1,-3,-2,0,0,-2
1511760518030843,0,0,-3,-1,-3,-1,-1,-2
1511760518030843,-2,-1,0,-2,-1,-2,0,0
1511760518031843,0,0,0,0,-1,-3,-2,-2
1511760518031843,-1,-1,-1,-2,0,-1,-2,0
1511760518046852,0,0,-3,-1,0,-1,-2,1
1511760518046852,-1,-3,-2,0,0,0,-3,-1
1511760518046852,0,0,0,-1,0,-1,-3,-1
1511760518046852,0,0,0,0,0,-1,0,-1
1511760518060862,1,-1,-1,-2,0,-1,1,-1
1511760518060862,-1,-2,-3,-2,-1,0,-3,-1
1511760518061866,-2,-2,-2,-1,-1,1,0,-2
1511760518061866,-1,-1,-2,0,-1,1,-3,-2
1511760518083878,-1,-1,-2,-3,-2,-1,-2,2
1511760518083878,-1,-1,0,-1,1,-2,-2,-1
1511760518085880,0,-1,0,-2,-2,-1,0,-1
1511760518085880,-1,-2,0,-3,0,-2,-1,-1
1511760518105894,-1,-3,-2,0,-3,0,-1,-1
1511760518105894,-1,0,-3,-2,-1,0,-1,-1
1511760518106895,-2,-3,2,-1,-2,-3,-1,0
1511760518106895,0,-2,-2,-1,-1,0,-1,-1
1511760518120904,-3,-2,-3,-1,0,-1,0,-1
1511760518120904,-1,-2,-2,0,-2,0,2,0
1511760518120904,-2,-1,0,-2,0,-3,-1,-1
1511760518120904,-2,0,0,0,1,-3,-2,-1
1511760518143921,0,-1,-2,-3,-2,-2,-1,0
1511760518143921,0,1,-3,0,-3,-2,-2,-3
1511760518144922,-1,-1,-1,-2,-1,-1,0,-1
1511760518144922,-1,0,-1,0,-2,-2,0,-1
1511760518165949,-2,-3,-1,0,0,0,-1,0
1511760518165949,1,0,-1,-1,-2,-2,1,1
1511760518166939,-2,-1,0,-1,-2,-1,0,-2
1511760518166939,-1,-2,-3,-1,0,-1,0,0
1511760518180949,1,-2,-2,0,-1,1,-2,-1
1511760518180949,-1,-2,1,-2,-2,-1,-2,1
1511760518180949,-2,-1,0,0,-1,-2,-1,-1
1511760518180949,-1,-1,-2,0,-1,-1,-4,-2
1511760518203976,-3,0,-3,-1,-3,0,-2,-1
1511760518203976,-2,-1,-1,-1,0,-1,0,-2
1511760518204981,0,-1,0,-2,0,0,0,-1
1511760518204981,-1,-1,0,-1,-1,-1,-1,-1
1511760518225989,-3,-1,-1,-1,-3,-2,1,-1
1511760518225989,-1,-2,-2,-1,-1,-3,0,0
1511760518226981,-1,0,-1,0,-1,-2,0,0
1511760518226981,-1,1,0,-1,-1,1,-1,-1
1511760518240001,-1,0,-1,-1,-2,0,-2,1
1511760518240001,-2,-1,0,-2,-2,0,0,-2
1511760518248006,-3,-1,1,-1,1,-2,0,0
1511760518248006,-1,-3,-2,-2,-1,0,-2,-1
1511760518264008,0,0,-2,0,2,-2,-1,0
1511760518264008,-1,-1,-3,-1,1,-2,-2,-1
1511760518265016,0,-1,-1,-1,-1,-2,-3,-2
1511760518265016,-2,-1,1,0,-2,-1,-2,0
1511760518286031,1,-1,-2,-1,-1,-1,-1,-2
1511760518286031,-1,-1,-3,0,-3,-1,-1,-1
1511760518287026,0,1,0,-1,-2,-1,1,-1
1511760518287026,-1,0,1,-1,-1,-2,1,-1
1511760518301032,-2,-1,-3,-1,-1,0,-2,-1
1511760518301032,-1,-1,-2,-1,-3,-1,0,-1
1511760518302032,-2,-1,-1,-1,-3,-1,-2,-2
1511760518302032,-2,-1,-4,-1,-1,-1,-2,-1
1511760518324061,-2,-1,-1,-1,-1,-2,-2,0
1511760518324061,-1,0,0,-2,-3,0,0,-2
1511760518325061,0,-2,-1,-2,0,-2,0,0
1511760518325061,0,-1,-1,0,1,1,-1,-1
1511760518347094,1,-3,-2,-3,-2,-1,-2,-1
1511760518347094,-2,-3,-2,0,-1,0,0,0
1511760518348065,-1,-2,1,-3,-1,0,1,-2
1511760518348065,0,-2,0,-2,0,-1,-1,-1
1511760518361077,-2,-2,-3,-1,0,-1,-2,-2
1511760518361077,-2,-1,0,0,-1,-3,-1,-2
1511760518361077,-1,-3,-2,-2,-1,0,-1,-3
1511760518361077,-1,-2,-2,-2,0,0,-1,0
1511760518384100,-1,-1,-3,-1,-1,-1,1,0
1511760518384100,0,-2,-1,-1,-1,-3,-1,-1
1511760518385101,-2,0,-2,-1,-2,-1,1,0
1511760518385101,0,0,-1,0,-2,0,-3,-1
1511760518406106,0,0,-2,-3,-2,-1,0,0
1511760518406106,-1,0,-1,0,-2,-1,-1,1
1511760518407107,-1,-2,0,-1,-1,-1,-1,0
1511760518407107,-1,-1,-1,-2,-2,-1,1,0
1511760518420128,0,-1,-2,-1,-1,1,-1,0
1511760518420128,0,-1,-2,-1,0,2,-1,-2
1511760518421129,-2,-1,0,-1,-1,-1,-3,-2
1511760518421129,-1,-1,-2,0,0,-4,-1,0
1511760518451150,0,1,0,0,-1,-1,-2,0
1511760518451150,-1,-1,0,1,-2,-2,0,-3
1511760518452139,-2,-1,-2,-1,-2,-1,-2,1
1511760518452139,-2,-1,-2,1,1,-2,-1,-2
1511760518466148,0,-1,-1,0,-1,-1,-1,1
1511760518466148,-3,-1,1,-1,-1,-2,-2,0
1511760518468150,1,-1,0,0,-1,-1,-1,-3
1511760518468150,-1,-2,-2,-1,0,-1,-2,0
1511760518481159,0,-2,-2,1,0,-1,-1,0
1511760518481159,0,0,-2,-1,0,-1,-2,-1
1511760518482160,-2,0,-3,0,-2,0,-1,-2
1511760518482160,0,-2,-3,-1,-1,1,1,-2
1511760518504175,-1,-1,-1,-1,-1,-1,-2,1
1511760518504175,0,-1,0,0,-1,-3,0,0
1511760518505176,-1,-1,-1,0,-1,0,1,0
1511760518505176,1,-1,-1,-1,-1,1,-1,-2
1511760518526191,2,-2,-2,-3,-3,-4,0,-1
1511760518526191,-2,-1,-1,-3,-2,-1,-1,0
1511760518527191,0,-2,0,-2,0,-2,-2,-2
1511760518527191,-1,0,-1,-1,-2,-2,-2,-1
1511760518540200,-1,-2,-1,0,2,-1,-2,0
1511760518540200,0,-1,-2,-1,-3,-1,0,-2
1511760518541201,-1,1,-1,-1,0,-2,0,-1
1511760518541201,-1,-2,-1,-2,-2,1,0,-1
1511760518564218,0,-2,0,-2,-1,0,-3,-1
1511760518564218,-1,-2,-1,-1,-1,-4,0,0
1511760518565218,-1,-1,-2,0,0,0,-2,1
1511760518565218,-1,0,0,0,2,-1,-1,-1
1511760518586233,-1,-2,-2,-1,-2,-1,0,-2
1511760518586233,-1,0,1,-2,-3,0,-1,-3
1511760518587234,0,-2,0,-1,0,0,0,-2
1511760518587234,0,0,-2,-2,0,-1,-1,-1
1511760518600243,-2,0,-3,-1,-2,0,-3,0
1511760518600243,-1,-1,0,-1,1,-3,-2,-1
1511760518601244,1,-2,1,-1,0,0,2,0
1511760518601244,-2,-2,-2,0,0,2,-3,0
1511760518624276,-1,-1,-3,-1,-2,-2,1,-2
1511760518624276,-1,1,-2,-2,-3,-1,0,-2
1511760518624276,-1,1,1,0,-1,-2,-2,-2
1511760518624276,-1,-3,-2,-2,-1,-2,-2,0
1511760518646275,1,-2,-1,-1,-2,-1,-1,0
1511760518646275,-1,-2,-2,-2,-1,-1,-1,-2
1511760518647276,-1,-1,-1,0,-2,-1,-2,-2
1511760518647276,-2,-3,-1,-2,0,-2,-2,-1
1511760518660285,-2,0,-1,-2,-1,-1,-2,-2
1511760518660285,-1,0,-1,0,0,-1,-1,0
1511760518668303,-1,-1,1,-2,-2,-3,-1,-2
1511760518668303,-1,-2,0,0,-1,-1,0,0
1511760518684303,-1,-2,-3,-1,0,0,0,-1
1511760518684303,-2,-1,-1,-1,-2,-2,-2,-2
1511760518685304,0,-1,-1,-2,-2,-2,-2,-1
1511760518685304,0,0,-1,-1,-2,-2,-3,0
1511760518706331,-1,-3,-3,0,-1,-2,-2,-1
1511760518706331,0,-2,-2,-1,-2,-2,0,-1
1511760518707330,0,0,-1,1,0,-2,-1,-3
1511760518707330,1,1,-2,-1,0,0,-1,-1
1511760518720328,-3,1,-3,-2,-2,1,-1,-2
1511760518720328,-2,-2,0,-1,-3,0,0,-2
1511760518728349,-3,-2,1,0,-1,-2,1,-2
1511760518728349,0,-1,-2,-1,-1,-1,-2,-2
1511760518743356,-1,-1,-1,0,-2,-2,-3,0
1511760518743356,-2,-1,-2,-2,-1,-1,-1,-1
1511760518744345,-1,-1,0,-1,-2,1,1,0
1511760518744345,-1,0,-2,-2,-1,-1,-2,-2
1511760518766361,0,-2,0,-1,-2,-1,1,0
1511760518766361,-1,-1,2,-1,-2,0,2,-1
1511760518767361,-2,0,-1,-1,-2,-1,-1,2
1511760518767361,-2,-2,-1,-1,-1,0,-2,-1
1511760518780370,0,-1,-4,-1,0,0,-2,0
1511760518780370,0,0,0,-1,-2,-1,-1,-3
1511760518788388,-1,2,-2,-2,-1,-2,-2,-1
1511760518788388,-3,-3,-1,-3,-1,-1,-2,0
1511760518803399,0,-3,-3,-2,0,-2,-1,0
1511760518803399,0,-2,-1,-1,-1,-1,0,-1
1511760518804387,0,-1,0,0,-1,-1,1,-1
1511760518804387,0,0,-1,0,-1,0,-1,0
1511760518826415,-1,0,0,-1,0,-1,-1,-1
1511760518826415,-2,-2,-1,-1,-2,-2,-1,-2
1511760518827403,0,-3,1,-2,0,-1,0,-2
1511760518827403,0,-2,0,-1,0,0,1,2
1511760518840425,-1,-2,-1,-1,-2,-1,0,-2
1511760518840425,0,0,1,-1,-1,0,-1,-1
1511760518848428,-3,-2,0,-2,-1,-1,0,-2
1511760518848428,0,-1,-2,-2,0,-2,0,0
1511760518863432,-2,1,-3,0,-2,0,-3,-1
1511760518863432,0,-2,0,-1,-1,0,1,-1
1511760518866431,1,0,2,1,-1,-1,-2,-1
1511760518866431,1,-1,0,-1,-1,0,0,-1
1511760518886454,-2,-1,-1,-1,-1,-3,-2,-1
1511760518886454,-1,0,1,-2,-2,-2,1,0
1511760518887455,-1,-2,-2,0,0,-1,-2,0
1511760518887455,0,-1,-4,-1,0,-1,-1,-2
1511760518899455,-2,-1,-2,-1,-1,0,0,0
1511760518899455,-1,-1,-1,0,-1,-1,-2,-2
1511760518908460,0,-2,0,-1,-1,1,0,-1
1511760518908460,-1,-1,-2,-1,-1,-1,0,1
1511760518923473,0,-2,0,-4,0,0,1,-1
1511760518923473,-1,0,0,0,-1,-4,-1,-2
1511760518925474,-2,0,-1,0,-2,-2,-1,1
1511760518925474,-1,-1,-1,2,-2,-1,-1,0
1511760518946503,-1,-3,-3,-1,-3,0,-1,1
1511760518946503,-2,-2,-1,-2,0,-2,0,-1
1511760518947501,-2,-2,1,-2,1,-1,0,-3
1511760518947501,-2,-1,-3,-2,0,0,-2,-1
1511760518959509,-1,-2,1,1,0,-1,-2,0
1511760518959509,0,-1,-1,-1,-1,0,0,-1
1511760518968503,0,-2,0,0,-1,-3,-2,0
1511760518968503,1,-2,-2,-1,1,-1,-2,1
1511760518983526,-3,-1,-1,-1,-2,-2,-2,-2
1511760518983526,-1,-2,-1,-1,-2,-1,-1,0
1511760518987517,-2,-1,-1,-1,-1,0,1,0
1511760518987517,-1,-2,-3,0,-1,-1,-2,-2
1511760519006558,0,0,-2,1,-1,-1,-1,-1
1511760519006558,-2,0,-1,-1,-1,-1,-2,-2
1511760519007532,-1,-2,0,-1,-1,-1,-1,-3
1511760519007532,-1,0,-2,-2,-2,-2,0,0
1511760519028545,0,-1,-1,-3,-2,-1,-1,0
1511760519028545,-3,-2,-1,0,-1,-4,-1,-1
1511760519031560,-1,-1,-1,0,-2,0,-2,-3
1511760519031560,0,-2,-1,-1,1,-1,-2,-2
1511760519043583,1,-2,-2,-1,-1,-2,0,-2
1511760519043583,0,-2,-1,0,-2,-1,1,-2
1511760519045559,-2,-1,-1,-1,-2,-2,0,0
1511760519045559,0,-2,-3,-1,-1,0,-2,-2
1511760519066572,-1,-1,-3,-1,0,0,-2,0
1511760519066572,-2,0,1,-1,-1,1,0,-1
1511760519067573,-1,0,-1,0,-1,-1,-1,0
1511760519067573,-1,-2,-1,-2,-1,-1,-2,0
1511760519088600,-1,-2,-2,0,0,-1,0,-1
1511760519088600,-2,-2,0,0,-1,-1,0,-1
1511760519090589,-2,0,-1,-3,-1,0,-1,-2
1511760519090589,-1,-2,-1,0,0,-2,-2,-1
1511760519103611,-3,-2,-2,0,-1,0,-1,-1
1511760519103611,-1,-1,-1,0,0,0,0,0
1511760519105612,0,0,0,-1,0,-2,-1,-2
1511760519105612,-3,0,-2,1,-2,-1,-1,-2
1511760519126629,1,1,-1,-2,-2,-2,-2,-1
1511760519126629,-1,-1,-1,-2,-2,-2,0,-1
1511760519128630,0,0,1,-1,0,-2,0,0
1511760519128630,0,0,-2,0,0,0,-1,-3
1511760519148640,0,-3,-3,0,-2,-1,-2,0
1511760519148640,0,1,-2,-2,-2,-1,0,-2
1511760519150641,-1,0,-2,-1,-1,-1,0,-3
1511760519150641,-1,-1,-3,-2,-1,0,0,2
1511760519162640,-1,0,-1,-1,-1,-4,0,0
1511760519162640,-1,-2,1,-1,-2,-2,-1,0
1511760519169655,-2,-2,-1,1,-1,1,-2,-1
1511760519169655,1,-1,-3,-2,-1,-1,-2,-2
1511760519186669,-2,-1,-1,-2,0,0,0,-2
1511760519186669,0,-2,0,0,-1,-3,0,-1
1511760519187658,-1,-1,-1,2,-2,-1,-1,-1
1511760519187658,-2,-1,-3,-2,-1,0,-2,0
1511760519208685,0,-1,-2,-1,-2,-1,-1,-1
1511760519208685,-1,-1,1,-2,-1,-1,-2,-1
1511760519212678,-1,0,-1,-2,-1,-1,-2,1
1511760519212678,-1,-2,-2,-1,0,0,-2,0
1511760519222695,0,-1,-3,-1,1,-2,-1,0
1511760519222695,-1,0,0,-2,-1,0,0,-3
1511760519229690,0,-2,1,-1,-1,-2,-2,-3
1511760519229690,0,-1,-1,-2,0,-1,-1,0
1511760519246707,-1,-2,-3,1,-1,-2,-1,0
1511760519246707,1,-2,-1,-1,-1,-1,0,0
1511760519247702,-1,-1,1,-1,0,-1,-2,-1
1511760519247702,-2,1,0,0,-1,-1,0,-2
1511760519268730,-1,-1,-1,-1,-1,1,0,-2
1511760519268730,-4,2,0,-1,1,-2,-1,-1
1511760519270717,-1,-1,-1,-1,-3,0,-1,-2
1511760519270717,-1,-2,-2,0,-1,-1,-1,-2
1511760519282727,-2,-1,-2,-3,-1,-2,-1,0
1511760519282727,-1,-3,2,-2,0,-2,0,0
1511760519289730,-2,0,-1,0,-2,2,-1,-2
1511760519289730,-2,-1,-2,0,-2,1,-3,-1
1511760519306742,-1,-1,-3,-1,-3,1,0,-1
1511760519306742,-3,-1,-1,-1,-3,0,0,-3
1511760519308743,-1,-1,-1,0,2,-2,1,-1
1511760519308743,-1,0,0,-1,-1,-1,-1,1
1511760519328759,-2,0,0,-1,0,-1,-3,1
1511760519328759,-1,0,0,0,-2,-2,0,-2
1511760519330760,-1,-1,-2,-2,-2,-1,0,-1
1511760519330760,2,0,-2,-2,-3,0,1,-1
1511760519343769,0,-1,-1,-2,-3,-3,0,-1
1511760519343769,-1,-2,1,-1,-1,-1,-2,-2
1511760519349782,-2,-1,-1,-3,-1,-2,0,0
1511760519349782,-1,-1,-1,-2,0,-1,-2,0
1511760519366784,-1,-1,-2,0,0,-2,-2,0
1511760519366784,-2,-2,-2,-1,-1,-1,1,-3
1511760519368786,-1,-2,-2,-1,0,0,-1,-1
1511760519368786,0,-2,-3,0,1,0,-2,-1
1511760519388800,-2,0,-2,-1,-2,0,1,-1
1511760519388800,-2,0,1,0,0,-2,3,3
1511760519390801,-2,-1,-2,-1,-2,0,-10,-11
1511760519390801,-1,-1,-1,0,-2,-2,-2,0
1511760519402821,-3,-2,0,-2,0,-2,-2,0
1511760519402821,0,0,-1,-1,-1,-1,2,-1
1511760519409828,-1,0,1,0,-2,-1,3,5
1511760519409828,-1,-3,-2,-2,0,-1,-2,-2
1511760519425827,-1,-3,-1,-2,-1,-1,-1,-3
1511760519425827,0,1,1,-1,-2,0,-1,-2
1511760519428831,0,0,0,-1,1,-2,0,2
1511760519428831,-2,-1,-2,0,0,-2,-2,1
1511760519448842,0,-1,-2,0,0,-3,1,0
1511760519448842,-1,-1,0,1,-3,-1,-1,0
1511760519449843,-1,-1,0,-3,0,0,0,-2
1511760519449843,-1,-1,-2,0,-1,0,2,1
1511760519462852,1,0,-2,-2,-2,-1,-1,-2
1511760519462852,-4,-1,-1,-1,-1,-3,-2,-3
1511760519469870,-1,-2,-1,-1,-2,-1,0,1
1511760519469870,-2,-1,-2,-2,0,0,0,-1
1511760519485880,0,-2,-2,-1,-1,0,-1,-1
1511760519485880,0,-1,0,-2,-3,-1,-1,-1
1511760519487882,-1,-1,0,-1,0,-2,1,0
1511760519487882,-1,-1,-2,-1,-1,-1,-2,1
1511760519508897,-3,0,0,0,-2,0,-2,-1
1511760519508897,-1,-2,-1,0,-3,0,-2,-3
1511760519511892,-1,-2,-1,-2,-2,-2,0,-2
1511760519511892,0,-2,-2,-1,-1,0,-3,-1
1511760519522907,-1,0,-3,-2,0,-1,-1,-1
1511760519522907,-2,-1,-1,-2,-1,-1,-3,-2
1511760519531903,-1,0,0,-2,-1,-1,0,-2
1511760519531903,1,0,-1,0,-1,-1,-2,-1
1511760519546913,-3,0,-2,0,-2,-2,0,0
1511760519546913,1,-1,1,-1,1,-1,1,-3
1511760519547913,-2,-1,0,-1,-1,-2,-1,-1
1511760519547913,0,-3,-1,-2,-1,-2,0,-1
1511760519568937,0,-2,0,-2,-1,0,-2,0
1511760519568937,-1,-1,0,-2,-1,-1,-1,-1
1511760519569931,-2,0,-2,1,-1,1,-1,-1
1511760519569931,-2,-1,-3,-2,0,-1,-1,-2
1511760519582937,-1,1,-2,-1,-2,-2,-2,-2
1511760519582937,0,0,1,-1,-2,-2,-1,-2
1511760519590942,-2,1,-1,-1,-2,-1,-1,0
1511760519590942,-1,-1,-2,-2,0,-1,-1,-2
1511760519605953,-1,-2,-2,1,-1,-1,0,0
1511760519605953,-3,-2,-1,-1,-1,-2,1,0
1511760519607954,0,-1,0,-1,-1,-1,-2,-1
1511760519607954,0,-2,-4,-1,-1,0,-3,-1
1511760519628970,-1,-1,0,-3,-1,-2,-2,-2
1511760519628970,0,0,0,2,-3,0,-1,-2
1511760519629972,0,-1,0,0,-1,-1,1,1
1511760519629972,-1,-1,-1,-1,-3,-3,0,-1
1511760519641978,0,-2,-1,-2,-4,-3,0,0
1511760519641978,-2,-2,0,-1,-1,-2,-1,-1
1511760519650985,-1,-2,-3,-1,-1,-1,0,0
1511760519650985,0,-1,-1,0,-1,0,-2,-1
1511760519665995,0,-2,-1,-1,0,-3,-1,-2
1511760519665995,-1,0,-1,-3,-1,-3,0,-1
1511760519667997,-2,-2,-1,0,-1,-2,-1,0
1511760519667997,-2,0,-1,-2,0,-1,0,0
1511760519689012,-1,0,-2,0,-1,-2,0,-2
1511760519689012,-2,0,-1,-2,-2,-1,0,-2
1511760519690018,0,-2,-1,-1,-1,-2,-1,-2
1511760519690018,-4,0,-2,-2,-2,0,-1,0
1511760519702021,-1,0,1,-2,-2,0,-1,0
1511760519702021,0,0,0,0,2,-1,-1,-3
1511760519712031,1,-2,0,-1,-1,0,-3,-1
1511760519712031,-2,-1,0,0,-2,-2,-2,0
1511760519726038,-2,-1,0,-2,-1,0,-1,-2
1511760519726038,-3,0,0,0,-1,-2,-1,-1
1511760519728040,-1,1,0,-1,-2,-1,1,-2
1511760519728040,0,-3,-4,-1,-1,0,-1,-2
1511760519749054,1,-2,-2,-2,-1,1,-1,-1
1511760519749054,0,0,0,-3,-1,-2,-1,-2
1511760519755058,-1,-1,0,-1,0,1,-1,-1
1511760519755058,-1,-1,-1,-1,-3,-2,1,-1
1511760519763066,-1,-2,-1,0,-1,-2,-1,1
1511760519763066,-2,-2,-1,0,-2,-2,-1,0
1511760519771082,0,0,-1,-2,1,-2,-1,0
1511760519771082,0,-2,-2,-2,-1,-2,-2,-1
1511760519786093,0,0,-2,-2,-1,0,0,-1
1511760519786093,0,1,1,-2,-2,0,0,-1
1511760519788094,-2,-1,0,-2,0,1,-1,-2
1511760519788094,-2,-1,-3,-2,-1,0,-1,1
1511760519810110,-1,1,-3,-1,-1,0,0,-2
1511760519810110,-2,-2,-1,-1,0,-1,-1,-3
1511760519815111,-2,-2,-2,0,0,-2,0,-2
1511760519815111,-2,0,-2,-2,-1,0,-2,0
1511760519822118,0,-1,0,0,-1,0,-1,-1
1511760519822118,-1,1,0,1,-1,1,0,0
1511760519831112,-2,0,-2,-1,0,-2,-2,1
1511760519831112,-1,-1,0,-2,-1,-1,-2,0
1511760519846125,-1,-1,-2,-3,0,-2,0,-1
1511760519846125,0,-3,0,-1,-1,-3,1,-2
1511760519848138,-1,-1,-1,0,0,-1,0,-2
1511760519848138,-1,-1,-3,0,-2,-1,-1,-2
1511760519869151,-2,0,-2,-2,-2,-2,-2,1
1511760519869151,-1,0,1,-2,-2,0,-3,-1
1511760519870141,-1,-1,-2,0,0,-2,-1,1
1511760519870141,-1,-2,-2,0,-1,-2,-2,0
1511760519882160,-2,-2,0,0,-2,-1,0,-3
1511760519882160,-2,0,1,0,0,-1,0,0
1511760519891154,1,-1,-1,-1,-1,-2,-1,-2
1511760519891154,-1,0,-3,0,0,-1,2,1
1511760519906177,0,-2,-2,-1,-4,-2,-3,0
1511760519906177,-1,0,0,-2,-3,-2,-1,-1
1511760519909180,0,-1,0,-1,-2,1,-1,0
1511760519909180,0,-3,-1,-2,0,-2,-2,-2
1511760519928181,-1,-1,-2,-1,0,-2,-1,-2
1511760519928181,-1,-1,-1,-1,-3,-2,0,-1
1511760519930186,-1,-2,-1,-1,-2,1,-1,-2
1511760519930186,0,-2,0,-1,0,0,-3,-1
1511760519942202,-1,-1,0,-1,-2,0,-1,-1
1511760519942202,-1,-2,0,-1,-1,0,0,-1
1511760519951198,-2,0,-1,0,0,-1,-1,-2
1511760519951198,-1,0,-1,-3,-2,1,-1,1
1511760519966207,-1,0,-2,0,-1,1,-1,-1
1511760519966207,-2,-1,-1,-1,0,-3,-1,-1
1511760519968209,0,-2,0,-2,-1,0,-2,0
1511760519968209,0,-3,-1,-2,-2,-1,-2,-1
1511760519989223,-1,-1,0,-1,0,0,-2,1
1511760519989223,-1,0,0,-1,1,0,-1,-1
1511760519990224,-1,0,-2,-2,0,-2,-1,0
1511760519990224,-1,-2,-1,1,-4,-2,-2,-3
1511760520011239,0,-2,-3,-3,4,0,1,-2
1511760520011239,0,-2,-2,-4,-5,-4,0,0
1511760520013242,0,-2,-2,3,2,2,-1,-2
1511760520013242,1,-1,-2,0,-4,-1,-1,0
1511760520026250,-3,-1,2,-2,-2,-1,0,0
1511760520026250,-3,-1,-3,3,1,0,-2,-1
1511760520032254,0,0,-4,-8,-3,-2,0,1
1511760520032254,-2,-2,-4,0,1,-2,-1,0
1511760520048265,-1,-2,0,0,-5,-2,1,-3
1511760520048265,-1,0,2,0,0,-1,1,-2
1511760520050267,-2,0,1,1,-3,0,-3,-1
1511760520050267,-1,-2,0,-3,1,0,0,-1
1511760520072284,-1,0,-1,0,1,-1,-1,0
1511760520072284,-1,0,-1,-1,-3,-1,0,-2
1511760520073284,-1,1,-3,1,-2,-2,-2,0
1511760520073284,-1,-1,-3,0,1,1,-2,-1
1511760520086305,-3,-2,-2,-2,-2,-2,-2,-1
1511760520086305,-2,-1,0,0,-3,1,1,-1
1511760520087305,0,-2,1,2,0,-1,0,0
1511760520087305,-1,-1,-2,-6,-2,-3,-3,-1
1511760520108308,0,0,-3,-1,-2,-3,0,1
1511760520108308,-4,-1,-1,-1,-1,-1,-1,-3
1511760520110309,1,-1,-1,-3,-3,-1,1,-2
1511760520110309,-2,0,0,2,-1,-2,-2,0
1511760520131325,0,-3,-3,0,4,1,1,-1
1511760520131325,0,-2,0,-3,-1,-1,-1,2
1511760520133327,-1,-1,-4,-7,-1,2,-1,-1
1511760520133327,2,-1,-3,-4,-3,-1,0,-1
1511760520145351,-3,-2,-1,-1,-2,-5,-2,-2
1511760520145351,0,-1,6,-1,-1,-2,-1,1
1511760520152340,-3,-2,-2,1,-1,-1,-1,-1
1511760520152340,0,2,5,2,-3,0,0,-1
1511760520168362,-2,-6,-13,-2,-1,-2,-1,-2
1511760520168362,1,3,1,1,-2,1,-1,-2
1511760520171365,-3,2,11,9,-2,0,-2,0
1511760520171365,2,-9,-6,-5,-1,0,-1,-1
1511760520198383,-5,12,18,-3,-4,-1,-1,-1
1511760520198383,5,-4,-22,8,-1,-2,0,0
1511760520200385,-1,5,83,6,-5,-3,-3,-1
1511760520200385,-7,2,-57,-2,9,4,3,2
1511760520205376,2,-14,-53,-17,-2,-1,-1,-1
1511760520205376,-3,-1,33,-1,-2,-2,-1,-1
1511760520212406,5,-6,-63,-5,2,0,-1,-3
1511760520212406,0,0,32,1,-6,-5,-1,-2
1511760520229396,1,3,14,4,-2,-1,-2,0
1511760520229396,-1,-1,0,-2,0,-1,-1,-2
1511760520230396,0,2,-8,3,2,0,-1,1
1511760520230396,-3,1,3,-3,-4,-3,-3,0
1511760520251421,-3,-2,-11,-3,-1,1,-1,-3
1511760520251421,1,3,6,3,1,0,-2,-1
1511760520252422,-3,-1,-1,-2,-3,-1,-1,-2
1511760520252422,-5,-2,-10,0,1,-1,0,0
1511760520265418,5,-2,27,12,-2,-1,-1,2
1511760520265418,-3,-3,-8,-14,-5,-1,-1,-3
1511760520272423,-1,-2,-10,-6,5,-1,0,0
1511760520272423,1,-3,4,1,-3,-1,-1,0
1511760520288447,-1,12,-6,-3,-1,-3,-1,-3
1511760520288447,1,2,1,0,-1,-2,-3,-2
1511760520290449,-1,-5,-17,-9,-1,1,-1,-1
1511760520290449,2,-1,3,2,0,-1,0,-2
1511760520311451,-9,-2,5,-1,-4,-1,-1,-1
1511760520311451,-2,-5,-12,-2,3,0,0,-1
1511760520312452,-3,4,7,0,-2,-1,-1,-1
1511760520312452,1,-2,4,2,-1,2,-2,-2
1511760520325473,5,-4,4,-8,0,-1,-1,-1
1511760520325473,-5,-3,-6,0,0,0,0,-1
1511760520332476,0,-8,-1,1,-1,-1,-3,0
1511760520332476,-1,0,-6,-5,0,-1,-1,-2
1511760520348477,-4,-2,-3,-2,-2,-1,-1,-1
1511760520348477,3,7,6,1,0,0,-3,-1
1511760520350479,-7,-10,-2,-1,-1,1,-1,0
1511760520350479,-3,-12,-5,-3,-3,-1,-3,-2
1511760520371503,-1,3,11,3,-1,-1,0,0
1511760520371503,0,-2,-2,1,0,-1,0,-1
1511760520372504,0,2,-4,-2,-1,-3,-1,-1
1511760520372504,-1,-2,1,-2,0,0,-2,-1
1511760520386514,-2,-3,3,2,0,-1,0,-2
1511760520386514,-3,-1,-1,-1,-2,-1,-1,0
1511760520392518,0,-1,-6,-4,-2,0,-1,-1
1511760520392518,1,2,1,0,-1,0,-2,2
1511760520408520,-2,0,0,0,-1,-2,1,-3
1511760520408520,-2,-5,-2,-2,0,-2,-1,-3
1511760520410521,1,1,0,-2,-2,0,-1,0
1511760520410521,1,1,0,-1,-1,-5,-1,0
1511760520431536,-3,-1,-2,-1,-1,-1,0,-2
1511760520431536,-1,-1,-1,-2,-1,-1,-2,-3
1511760520432556,1,-1,-2,-1,1,0,0,-2
1511760520432556,-1,0,1,-1,-2,1,-2,-2
1511760520445547,-1,-4,-1,-2,-2,-2,0,-3
1511760520445547,-1,-2,-1,0,-1,0,0,-1
1511760520452563,0,2,0,-2,-2,0,-4,1
1511760520452563,-2,2,-2,-1,-2,0,-2,-1
1511760520468562,1,-1,0,-2,-3,-1,-2,0
1511760520468562,1,0,1,4,-2,-3,1,-2
1511760520470563,0,-1,-2,-2,-1,0,1,-2
1511760520470563,0,-2,-1,0,-2,0,-2,-1
1511760520491589,-1,-2,1,0,-2,1,-1,-1
1511760520491589,-1,0,0,1,-1,-2,-1,-1
1511760520492580,-1,-2,-3,-3,0,-1,0,-1
1511760520492580,0,0,0,-2,0,-2,-1,0
1511760520504588,-2,-2,-1,1,-1,-2,-1,-1
1511760520504588,-2,-2,-2,-4,-1,-2,0,-1
1511760520513597,-2,-1,-2,2,-2,-1,-3,-2
1511760520513597,-2,0,-2,-2,-2,-2,-1,-1
1511760520528605,0,0,0,-1,-2,0,0,-2
1511760520528605,-2,2,-1,-3,-2,0,-1,0
1511760520530619,0,-1,-1,-1,0,-2,-2,-1
1511760520530619,-2,-1,-2,-2,-2,0,0,0
1511760520551631,-1,-2,-1,0,-2,-2,-1,0
1511760520551631,0,-2,-2,-2,-2,-3,-1,-2
1511760520552622,0,0,-2,-1,0,-1,-2,0
1511760520552622,-1,1,-1,-2,-1,1,-2,-1
1511760520564643,-1,-1,0,-2,-1,-2,0,-2
1511760520564643,0,0,0,-2,0,0,-2,-1
1511760520574664,0,-2,-2,0,-1,1,-1,-1
1511760520574664,-2,-3,0,1,-1,0,-1,-1
1511760520588659,-3,0,-1,-1,0,-2,-1,-3
1511760520588659,-2,-1,-1,-4,0,0,-2,-1
1511760520590661,-2,-1,-2,1,-1,-2,-1,-1
1511760520590661,0,0,-3,-1,-1,-1,0,0
1511760520611663,-1,1,-1,-2,-2,-2,-1,-2
1511760520611663,-1,0,0,-1,-2,0,-1,-1
1511760520612666,-1,-1,-1,0,-1,-1,-1,0
1511760520612666,-1,-1,-1,-1,-2,1,-2,0
1511760520624685,0,1,0,0,-1,-3,-1,0
1511760520624685,-1,-2,0,0,0,-2,0,-1
1511760520633678,-1,-1,-2,-3,-1,1,-2,0
1511760520633678,-2,-1,-2,-1,0,0,-1,-2
1511760520648701,0,-2,1,-2,-2,0,0,0
1511760520648701,1,-1,1,-1,0,0,-1,-3
1511760520650691,1,-1,0,-1,0,-1,-1,-1
1511760520650691,-1,0,-2,-2,0,-4,-1,-1
1511760520670705,0,-2,-2,-1,-2,-1,-1,-1
1511760520670705,-3,-2,0,1,-3,0,1,-1
1511760520672706,-1,0,-3,0,-2,-1,-2,-1
1511760520672706,0,-1,-1,-1,-1,0,-1,-1
1511760520684714,-2,-1,2,0,-2,-1,-1,-2
1511760520684714,0,-3,-2,0,0,-2,-1,-2
1511760520693721,0,-1,0,0,-1,-1,-2,-1
1511760520693721,1,-1,-2,-1,-2,-1,0,0
1511760520708732,1,-1,0,0,0,1,-1,-1
1511760520708732,-2,-1,1,-1,-1,-1,-1,-1
1511760520710734,-1,-2,-3,-1,-2,-2,0,0
1511760520710734,0,-1,-2,-2,-2,-3,0,-1
1511760520730749,-1,0,-1,-2,-1,-2,2,-1
1511760520730749,-2,0,0,0,1,0,1,1
1511760520732750,0,0,-3,-2,0,-1,-3,0
1511760520732750,-2,0,-1,-1,-1,-1,-2,-1
1511760520744757,-2,0,-1,-2,-1,-1,-1,-1
1511760520744757,0,0,0,-2,-3,0,-1,0
1511760520753764,-2,-3,-2,-2,-2,0,-1,0
1511760520753764,-3,-1,-1,0,-1,0,0,-2
1511760520769775,-1,-2,-1,-1,-2,-1,1,-3
1511760520769775,-1,0,-2,-1,0,-2,-2,-1
1511760520771776,0,-1,-4,-1,0,-1,-1,1
1511760520771776,-2,-2,-2,0,-2,0,-1,-1
1511760520790802,1,-2,1,0,-2,0,-1,0
1511760520790802,-1,-1,-1,-2,-1,-2,-1,-1
1511760520792809,0,0,-3,-2,0,0,0,-1
1511760520792809,-2,-1,-2,0,0,-2,-2,0
1511760520804812,-1,-2,-1,-1,-1,-4,-1,1
1511760520804812,0,0,0,-2,-1,-2,-1,0
1511760520813806,0,-1,-1,-1,-1,-2,-1,-1
1511760520813806,0,-2,-1,-3,-1,0,1,0
1511760520827816,-2,-1,0,-2,-2,-1,-2,-3
1511760520827816,-2,0,-1,0,-1,1,-1,-1
1511760520834833,-1,-2,-1,-1,0,-1,-1,-1
1511760520834833,0,0,-2,-1,-1,-1,0,-2
1511760520850844,-2,1,-1,-2,-2,-1,-1,-1
1511760520850844,-2,-3,-2,0,1,-2,-2,0
1511760520852834,-2,-2,-1,-2,0,-2,-2,-1
1511760520852834,0,-2,-3,-3,0,-3,-2,0
1511760520864843,-2,-1,-1,-2,-1,0,-1,-2
1511760520864843,0,1,0,-2,-1,1,0,-2
1511760520873849,-2,0,-2,-1,-1,-1,-1,0
1511760520873849,-1,-2,-2,-2,0,0,-3,-1
1511760520888871,-1,-1,0,0,-1,-4,1,-1
1511760520888871,0,1,-1,-1,-1,-3,0,-1
1511760520889871,0,-1,-2,-2,0,0,-3,-1
1511760520889871,-2,-1,-2,-1,-1,0,-1,-2
1511760520911876,-2,-3,-1,0,-2,-1,-2,-1
1511760520911876,-1,-2,-1,-2,-2,-1,-1,-2
1511760520913878,0,-1,-1,0,-1,-1,-1,-2
1511760520913878,-2,0,-2,-1,-2,-2,-1,1
1511760520933894,-2,-1,-1,-1,-1,-2,-2,0
1511760520933894,-1,-3,-1,-2,-1,-2,0,-1
1511760520934892,0,-1,-1,-2,-1,0,-2,-2
1511760520934892,-1,0,-1,-1,-1,-1,-1,0
1511760520948911,0,1,-2,-1,-1,0,0,-3
1511760520948911,-1,-2,0,-1,-2,1,-1,-3
1511760520949912,-1,-2,-2,-1,-1,0,-1,-1
1511760520949912,1,1,-1,0,-2,-2,0,0
1511760520970926,0,-2,-1,-2,1,-1,-2,-2
1511760520970926,-3,-1,-1,0,-2,-2,-1,-1
1511760520972928,-1,-1,-3,0,-2,0,-1,-2
1511760520972928,-1,-1,-2,0,-2,-1,-1,-2
1511760520993933,0,0,0,0,-3,0,0,-1
1511760520993933,-1,-1,0,-2,0,-2,0,0
1511760520994944,-2,-3,-2,-3,-1,-1,-1,-2
1511760520994944,-1,-2,-1,-2,-2,-1,-1,0
1511760521007955,-2,-1,2,-2,-1,-3,1,-2
1511760521007955,1,-1,-1,-1,-2,-2,-1,-2
1511760521015961,1,-2,-1,-1,0,-2,-1,2
1511760521015961,0,-3,-2,-1,-1,-1,-1,0
1511760521030969,-1,-1,0,0,-2,0,0,-2
1511760521030969,-3,0,0,0,-1,0,0,0
1511760521032971,0,0,-2,-3,-2,-1,0,-2
1511760521032971,-1,-2,-1,0,-2,-1,-2,-2
1511760521053975,-1,-3,-1,-1,-2,-1,0,1
1511760521053975,0,-2,-2,-3,0,-1,-1,0
1511760521054976,0,-1,-4,0,-2,0,-2,-1
1511760521054976,0,-2,-2,-1,-1,-2,-1,0
1511760521067995,-2,-1,0,-1,-1,-2,-1,0
1511760521067995,-2,0,-2,1,-2,-2,-2,-3
1511760521074990,-1,-2,0,-2,-1,1,-2,-2
1511760521074990,-1,-1,-1,0,-1,-1,0,-3
1511760521091001,0,-2,-2,-1,-2,-1,1,-1
1511760521091001,0,-2,-1,-2,1,0,-1,-2
1511760521093003,-1,-1,-2,-1,0,-3,0,1
1511760521093003,-1,-1,-1,-1,-1,-2,0,0
1511760521114018,0,-1,0,-1,-3,-4,-2,-1
1511760521114018,-3,0,0,-1,-2,0,-2,-2
1511760521115018,-1,0,-2,0,-3,0,-2,-1
1511760521115018,0,-1,-1,-1,0,-2,-2,-1
1511760521127027,-2,-1,0,0,-1,-1,0,-1
1511760521127027,0,0,0,0,0,-1,-1,1
1511760521136033,-1,0,-3,-2,0,1,-2,0
1511760521136033,-1,-3,-2,-1,-1,0,-2,-1
1511760521151044,-1,0,1,1,-1,-3,0,-3
1511760521151044,-1,-1,-2,-1,-2,-1,0,-2
1511760521153045,-1,-2,-3,-1,0,-1,0,0
1511760521153045,-1,-1,-1,-2,-3,-2,0,0
1511760521174072,0,0,-1,-1,-2,-1,-1,0
1511760521174072,-1,-1,-2,-2,-3,0,-2,0
1511760521175062,0,0,-2,-2,0,-3,-2,0
1511760521175062,-1,-1,0,-1,-1,-1,0,-2
1511760521188082,-3,1,0,0,2,-1,-1,1
1511760521188082,0,-1,-2,1,-1,0,0,-2
1511760521195075,0,-3,-2,-1,-1,-1,-1,0
1511760521195075,-2,0,-2,-1,-1,-2,-2,-2
1511760521211102,-1,0,-1,-2,-2,-1,-1,-2
1511760521211102,-1,-3,0,0,0,0,-1,-1
1511760521214092,-2,-3,-1,-1,-2,1,-2,0
1511760521214092,-1,-1,-2,-2,-2,-1,-1,1
1511760521234115,-1,-1,-1,-2,0,-2,-1,-3
1511760521234115,-2,-1,-1,-1,-1,-1,0,-1
1511760521235105,-1,-1,-1,0,0,0,0,-1
1511760521235105,1,-1,-1,-3,-1,-2,-2,-1
1511760521248123,-3,0,-1,-2,-1,-2,2,-1
1511760521248123,-1,1,-1,-2,-2,-1,-1,0
1511760521255127,0,-1,-4,-1,-1,-2,-2,0
1511760521255127,0,-1,1,-1,-2,-2,-1,-2
1511760521271129,-2,-1,0,1,-1,-3,-1,-1
1511760521271129,-1,-2,-2,0,1,0,-1,0
1511760521273142,-1,-1,-2,-2,-1,-1,1,-2
1511760521273142,-2,-1,-3,-1,1,-1,-2,-1
1511760521294145,-1,-1,-1,-2,0,0,-1,-1
1511760521294145,-2,-1,0,-1,-3,-1,-3,-1
1511760521295145,-4,0,-2,-1,0,-2,-1,0
1511760521295145,-2,-2,-1,0,0,0,-1,-1
1511760521308167,-1,-1,1,-1,0,-2,0,-1
1511760521308167,1,-2,-1,0,-2,-2,0,-2
1511760521315172,0,-3,-3,-1,-3,-1,-2,-1
1511760521315172,-1,-2,-3,-2,-1,-1,1,0
1511760521331171,2,-2,0,-3,-2,0,0,-2
1511760521331171,-2,1,-1,0,0,-1,-1,-3
1511760521333172,0,-1,0,-1,-1,-2,-2,-1
1511760521333172,-1,-1,-1,-1,-2,0,-1,-2
1511760521353199,-2,-1,1,0,-1,-2,-2,0
1511760521353199,0,0,-1,0,-2,-1,0,-2
1511760521355189,-1,-2,-1,-1,-2,0,0,1
1511760521355189,-1,0,-1,0,-2,0,0,-1
1511760521369208,-2,0,-1,-1,-1,-1,1,-1
1511760521369208,-2,-1,0,-1,-1,-1,-1,0
1511760521376210,0,-2,-2,1,-1,0,-2,-1
1511760521376210,-1,-3,-2,-2,-1,-1,-1,-2
1511760521391226,0,-2,-2,1,-2,-1,-2,-2
1511760521391226,-1,0,-1,-2,0,-2,0,1
1511760521393224,-1,0,-2,-1,-3,0,0,-1
1511760521393224,-3,-1,-2,-1,-2,-2,0,-2
1511760521421234,-1,0,0,-1,0,0,0,0
1511760521421234,-1,0,0,1,1,0,-3,-2
1511760521423236,-1,0,-1,-1,0,-1,-2,-4
1511760521423236,0,1,-1,0,-1,0,0,-1
1511760521427239,-1,1,0,-2,-2,0,1,-1
1511760521427239,1,-2,-1,-3,-1,1,-2,-3
1511760521437246,0,-2,-2,-2,-1,-3,0,1
1511760521437246,-1,-1,0,-2,-1,-1,0,-2
1511760521451272,-1,-2,-1,-1,-1,-2,-1,-1
1511760521451272,0,-2,-1,-1,-1,0,-2,-1
1511760521452269,-2,-1,-2,-1,0,-1,-2,-3
1511760521452269,-2,-2,-2,-1,-2,1,-2,-1
1511760521473273,0,1,0,0,0,-1,0,-1
1511760521473273,0,-2,0,-1,0,0,0,-1
1511760521475277,-1,-2,-1,-1,-1,-2,-1,-1
1511760521475277,-1,0,-2,0,-2,-3,0,-1
1511760521487291,-1,0,0,-1,0,1,-1,0
1511760521487291,-1,0,-2,-1,-1,-1,-1,0
1511760521496288,1,0,0,1,0,-1,-1,-2
1511760521496288,-1,-2,-2,-3,-1,-2,-3,-1
1511760521511308,-1,-1,-1,-1,-2,-2,-2,-1
1511760521511308,-2,-1,-1,-1,-1,-1,1,-2
1511760521513300,-2,-2,-4,-1,-2,0,2,1
1511760521513300,-2,-1,-1,0,-3,-1,0,-1
1511760521533319,-1,-2,1,2,-2,-1,-3,-2
1511760521533319,0,-1,-1,-1,-2,-2,-2,-1
1511760521535315,-1,-1,-3,-2,-1,0,-1,1
1511760521535315,0,0,-3,-1,-1,-1,-1,-3
1511760521547325,0,-3,0,-2,0,-2,1,-2
1511760521547325,-2,-2,-1,0,-1,-3,-2,-2
1511760521556330,0,-1,-1,0,-1,-3,-2,-2
1511760521556330,-2,-1,-2,-2,-2,0,0,0
1511760521571353,-2,0,0,-1,-1,-1,-2,-2
1511760521571353,-1,-2,0,-4,1,-1,-2,1
1511760521572353,-1,-2,-2,-3,0,0,-1,2
1511760521572353,-1,-2,1,0,-1,0,-1,-2
1511760521593356,-1,-1,-2,-1,-2,-2,0,-2
1511760521593356,-1,0,-1,0,0,-1,-1,-1
1511760521595357,-1,-1,-3,-2,0,0,0,-1
1511760521595357,-2,0,-2,0,-1,-1,-2,0
1511760521607367,-1,-1,1,-2,-2,-2,0,0
1511760521607367,-1,-1,0,1,-1,0,0,-1
1511760521616384,-1,-3,-2,-1,-2,-2,-2,-1
1511760521616384,-1,-2,1,0,-1,-2,-1,0
1511760521631384,-2,-1,-1,0,-1,-1,0,-1
1511760521631384,0,1,-2,-1,-1,-2,-1,0
1511760521632384,0,2,-1,-1,-1,-3,-2,-3
1511760521632384,0,0,-1,0,-2,-3,-1,0
1511760521653408,-2,-2,-2,-3,-1,-1,-3,-1
1511760521653408,-1,-2,-2,-1,-1,-1,-1,0
1511760521655410,-2,-2,-2,-1,0,0,-2,0
1511760521655410,-1,-1,-1,-2,0,-1,1,-2
1511760521667410,-2,-3,0,-2,0,0,0,-1
1511760521667410,-2,-2,-2,-1,1,-2,-3,-2
1511760521676415,-1,-2,-1,-1,-1,-2,-2,-1
1511760521676415,0,0,0,0,-2,-1,0,-1
1511760521691442,0,-2,1,0,-1,-1,-1,-2
1511760521691442,-1,-2,-1,1,-2,1,-1,-1
1511760521693439,-2,0,-2,-2,0,1,-2,2
1511760521693439,-1,0,0,-3,-1,-1,-1,-1
1511760521713445,0,-1,-1,-1,-1,-1,-1,-2
1511760521713445,0,-1,-1,-1,-2,-2,0,-1
1511760521715442,-1,-1,-2,0,-1,-2,-2,-1
1511760521715442,-1,-1,-2,-1,0,-2,0,-1
1511760521727465,0,0,0,1,-1,0,1,-2
1511760521727465,-1,-1,-2,-1,1,-2,0,0
1511760521736469,-2,-1,-1,-1,0,0,0,0
1511760521736469,-1,-1,-1,-2,-1,-1,0,-3
1511760521751479,-1,-2,0,-1,1,-2,-2,-2
1511760521751479,1,-2,-1,-1,-2,0,-3,0
1511760521752481,1,0,0,-1,-3,-1,0,-2
1511760521752481,0,-2,-1,0,-1,0,-2,0
1511760521773496,-1,-1,1,0,0,-2,-1,-1
1511760521773496,-1,-1,-2,-1,0,1,-3,0
1511760521775497,-2,-2,-4,-1,-3,-1,-2,0
1511760521775497,-2,-1,0,0,-3,-2,0,-3
1511760521787505,-1,-2,0,-1,-3,-1,0,-2
1511760521787505,-2,-1,-3,-1,0,-2,1,1
1511760521796501,0,-1,-3,-1,-1,-2,-2,0
1511760521796501,-2,-1,1,-1,0,0,-1,0
1511760521811523,-1,1,-1,0,0,-1,2,-2
1511760521811523,0,-2,-1,-1,0,-1,-1,-1
1511760521812513,0,-3,-1,-1,-1,-2,-1,-1
1511760521812513,-2,-1,-2,-1,-1,-2,-1,-2
1511760521833535,-2,-1,-2,-1,-1,0,-1,0
1511760521833535,-1,-2,-1,-2,0,0,-1,0
1511760521835537,-1,0,-2,-2,-2,1,0,-1
1511760521835537,-2,-1,0,-1,-1,-3,-2,-1
1511760521856542,-1,1,1,-2,-1,-1,-2,-2
1511760521856542,-1,-1,-1,1,-2,-1,-2,-1
1511760521858553,0,-1,-2,-1,1,-1,-2,0
1511760521858553,-1,1,-2,0,-2,-2,1,-1
1511760521871571,-2,-1,0,0,-2,-2,-1,-1
1511760521871571,-2,0,-1,0,0,-2,-2,1
1511760521872554,0,-2,-1,-2,-1,1,-2,-1
1511760521872554,0,-2,-1,0,-1,1,0,-2
1511760521893568,0,-3,1,-2,-1,-3,0,0
1511760521893568,0,0,-2,-1,-1,-1,-3,-2
1511760521895569,-2,-2,-2,-1,-1,0,-2,-2
1511760521895569,-1,-1,0,-3,-2,-1,0,-1
1511760521916597,0,-1,0,-2,0,-1,0,-1
1511760521916597,-2,-1,0,0,-1,-2,-3,-2
1511760521917585,-1,1,-2,0,-1,-1,0,-1
1511760521917585,-1,0,-1,-3,-2,-2,1,-2
1511760521931602,-1,-1,-1,0,0,1,-1,-1
1511760521931602,-1,-2,1,-2,-1,-2,1,0
1511760521932597,-1,-1,0,0,-1,-2,1,0
1511760521932597,0,-1,-1,-2,-3,0,-1,-3
1511760521953623,1,0,-2,-1,-1,-2,-2,-1
1511760521953623,-1,-2,-3,-1,0,-1,-1,-3
1511760521955624,0,-2,-2,-1,-1,0,0,-1
1511760521955624,-1,-1,-2,-2,-2,0,-2,1
1511760521976628,-2,-1,-1,-2,-3,0,-1,-1
1511760521976628,0,0,-1,-1,0,1,-1,-2
1511760521978628,-1,-3,0,0,-1,-2,-4,-2
1511760521978628,-1,0,0,1,-2,-2,-2,-1
1511760521991637,0,1,0,-1,-1,-2,-1,-3
1511760521991637,1,-2,-2,-1,-1,0,0,0
1511760521992638,-3,0,-1,-1,-1,-1,-1,-1
1511760521992638,-2,-1,1,-2,-1,-1,1,-2
1511760522013654,-1,-1,0,-1,-1,1,-1,0
1511760522013654,2,0,-1,0,-2,-1,-1,-1
1511760522015690,0,0,-3,-3,-3,-1,-1,-2
1511760522015690,-1,-2,-1,0,-2,-3,-1,-2
1511760522035678,-3,-2,-1,0,-1,-1,-1,0
1511760522035678,-1,-1,-1,-2,1,1,-2,0
1511760522037678,1,1,-3,-1,0,-1,-2,1
1511760522037678,-1,-3,-1,-1,-2,0,0,-2
1511760522050691,1,0,-1,0,0,-1,-1,-1
1511760522050691,-1,-2,-2,-2,-3,-1,0,-2
1511760522057684,0,-3,-1,-3,-2,-2,-2,0
1511760522057684,-2,-2,0,0,-1,-1,-2,-2
1511760522073695,-1,0,0,0,-1,-1,1,-2
1511760522073695,-1,-1,-1,1,-1,-2,-2,0
1511760522075697,-1,0,-1,0,-2,0,0,-1
1511760522075697,0,-1,0,0,2,-2,0,1
1511760522096713,-1,0,-1,0,0,-2,-1,-2
1511760522096713,-1,1,-1,-3,1,0,-1,1
1511760522097713,-1,-2,-1,-2,-2,-1,0,-1
1511760522097713,-2,-1,-2,0,-1,-2,0,-1
1511760522110733,0,-3,1,0,-1,-2,-1,-4
1511760522110733,0,-2,-2,-2,-3,-1,0,1
1511760522117739,0,-2,-2,1,-2,-2,-2,-2
1511760522117739,-1,-1,-2,-3,-1,0,0,-3
1511760522133738,0,0,-1,-2,-1,-2,-1,0
1511760522133738,-2,-1,-1,-1,0,-1,-1,0
1511760522135739,-1,0,-1,-1,-1,0,-1,-2
1511760522135739,-2,-1,-1,0,-2,-1,-1,0
1511760522155753,-2,-1,0,-1,-1,1,0,-1
1511760522155753,0,-1,-1,-2,-1,-2,-2,1
1511760522157754,0,-1,-4,-2,-1,-2,-1,-1
1511760522157754,-2,-1,1,-1,-3,-1,-1,-2
1511760522170764,-1,-2,-2,-1,-2,1,-3,-2
1511760522170764,-2,-1,-1,0,-1,-2,-1,0
1511760522176768,-1,-2,0,-2,-2,-1,-1,-1
1511760522176768,-2,1,-1,0,1,0,0,1
1511760522193781,-2,0,-1,-2,-1,0,0,0
1511760522193781,-1,-2,-1,-1,1,0,-1,-2
1511760522195783,-1,-1,-2,0,0,-2,-1,-2
1511760522195783,-1,-2,0,-2,-2,-1,-3,-1
1511760522215796,0,-1,-1,-1,-3,-1,-2,-1
1511760522215796,-1,0,-3,0,1,0,-2,0
1511760522217798,-3,-1,-1,-2,-1,-1,-1,0
1511760522217798,-2,-2,0,-2,-3,-2,1,-2
1511760522230823,-1,-1,1,-2,0,-1,-1,1
1511760522230823,0,-1,-3,-1,-1,-1,0,0
1511760522236822,-1,-1,-2,-1,-1,-1,-1,0
1511760522236822,-1,1,-2,0,-2,-3,-1,-2
1511760522253832,-1,-1,-2,0,-1,-1,0,-1
1511760522253832,-2,-1,-2,0,0,0,-2,-1
1511760522254833,-1,-1,-1,-1,-2,-1,-1,-1
1511760522254833,-2,0,-1,-2,0,0,-1,0
1511760522275847,1,0,1,-1,-1,0,0,0
1511760522275847,1,-1,-3,-1,-2,1,-2,1
1511760522277849,-1,-2,-2,0,-1,-2,1,-2
1511760522277849,1,-1,1,-1,-3,-2,-1,0
1511760522289858,-2,-1,1,-2,0,-1,-2,-3
1511760522289858,-2,-3,-2,-1,-2,-1,-2,-1
1511760522298855,-2,-2,-2,-1,-1,0,-1,0
1511760522298855,0,-1,0,-1,-3,-1,1,-1
1511760522313895,-1,0,-1,2,0,-2,-1,1
1511760522313895,-3,0,-1,-1,0,-2,-2,-2
1511760522314868,-1,-1,-3,-2,-1,-2,-1,-1
1511760522314868,-1,0,-2,0,1,-1,-1,-2
1511760522335880,-1,-2,-1,-1,0,-1,-1,-2
1511760522335880,1,0,-2,-3,0,-2,-1,-1
1511760522337881,0,1,-1,-1,-1,-1,-1,-1
1511760522337881,-3,-1,-1,-2,-1,-1,0,-1
1511760522349891,-3,-2,-1,-1,-1,-1,-1,-2
1511760522349891,-1,-2,-1,-1,-1,-1,-1,-1
1511760522365901,0,-1,-1,-3,-1,-2,-2,0
1511760522365901,-1,-1,-1,-1,-2,-1,-2,-2
1511760522373920,0,-2,0,-2,1,-1,-1,-2
1511760522373920,0,-1,-2,0,0,-2,-1,-1
1511760522374922,-2,0,0,0,0,-2,-1,0
1511760522374922,0,0,-2,-2,0,-2,-1,1
1511760522395950,-1,-1,0,0,-2,-1,-2,-1
1511760522395950,-1,0,-3,-1,0,0,-2,-3
1511760522397927,-2,-1,-3,-1,-3,-1,-2,-1
1511760522397927,0,-2,0,-2,-1,-1,0,-2
1511760522409945,-2,0,-3,-1,-1,-3,0,0
1511760522409945,0,-2,-2,0,-1,0,0,0
1511760522418939,-1,-1,-1,-1,-1,-1,-1,-1
1511760522418939,-1,-1,0,0,-2,-2,-1,0
1511760522433949,-2,-1,0,-1,-2,1,-1,-1
1511760522433949,-2,-2,-1,0,-1,0,-3,-1
1511760522435951,-2,-2,-1,-2,0,0,-2,1
1511760522435951,-2,-1,-1,0,0,-2,-1,-2
1511760522455966,-1,-2,0,-2,0,-2,-1,-1
1511760522455966,-1,-1,-1,-1,0,1,-1,0
1511760522459968,-1,-2,-1,0,0,1,-1,0
1511760522459968,-1,-1,1,0,-1,-2,0,-1
1511760522469975,-2,1,0,-1,-2,-2,1,-1
1511760522469975,-1,0,-1,-2,-2,-1,-1,-1
1511760522478981,0,-2,-1,-2,-1,-1,-2,-1
1511760522478981,-1,-2,1,-1,0,-4,0,-2
1511760522493992,0,0,-1,0,0,-2,-1,-3
1511760522493992,-1,0,-3,-1,-2,-2,0,0
1511760522494993,-1,-2,-4,-1,-2,-3,-2,-1
1511760522494993,-1,-1,1,0,0,0,-1,0
1511760522516017,-1,0,0,-1,-1,0,-1,0
1511760522516017,-2,-1,-2,-2,0,-1,-1,0
1511760522518018,-2,-2,-2,0,-2,0,0,0
1511760522518018,-2,-1,0,0,-3,-3,1,-2
1511760522530017,0,-1,0,1,2,-2,0,0
1511760522530017,0,0,-2,-1,0,-1,-2,0
1511760522539024,-2,-1,-2,-3,-3,-1,0,-1
1511760522539024,0,0,0,-2,-3,-1,0,-1
1511760522554034,0,-2,-1,0,0,-1,-2,-1
1511760522554034,0,-1,-1,-1,0,0,-1,0
1511760522555038,0,-1,-2,0,1,-1,0,0
1511760522555038,-2,0,0,-1,-1,0,1,-2
1511760522576050,0,-1,-1,0,-2,-4,-1,0
1511760522576050,-1,-2,-2,-1,-2,-1,-2,0
1511760522578051,-1,-2,-1,-2,-2,-1,-1,-1
1511760522578051,0,-1,0,-1,-1,0,-2,-2
1511760522590059,-1,0,1,-2,0,0,0,0
1511760522590059,0,-2,-2,-1,-1,-1,0,0
1511760522599066,-1,0,-1,0,-2,-1,-1,0
1511760522599066,-2,0,-1,-2,-1,-1,-2,0
1511760522614077,0,-1,-1,-1,-1,-2,-1,-2
1511760522614077,-1,-2,-2,-1,0,-1,-1,-3
1511760522615078,-1,-1,-2,-1,-1,-1,0,-1
1511760522615078,-2,0,0,-2,-1,-3,0,-3
1511760522636092,-1,-2,-1,-2,-2,-1,-2,-3
1511760522636092,-1,-2,-2,-1,-1,0,-1,-1
1511760522638094,-1,-1,-1,-1,-1,-1,-1,0
1511760522638094,0,-2,0,0,-2,-1,0,1
1511760522650102,-1,0,0,-2,-3,0,-1,-1
1511760522650102,-1,0,-3,-1,-2,-1,-3,-2
1511760522659108,-1,0,-2,-1,-2,1,-1,-1
1511760522659108,-2,0,-1,0,-1,-1,0,-2
1511760522674132,-2,-2,-2,-1,-1,-1,-1,-2
1511760522674132,1,-2,-2,-2,0,1,-2,-1
1511760522675154,-1,-2,-1,-2,0,1,0,-3
1511760522675154,0,-2,0,-2,-2,-1,-2,-2
1511760522696157,-2,-1,-1,1,-1,0,1,-2
1511760522696157,-1,0,-3,-1,0,-1,-2,2
1511760522698138,-2,1,0,-1,-1,-3,-1,0
1511760522698138,-1,-1,0,-1,-2,0,0,-1
1511760522710154,-1,-2,1,-1,0,1,-2,-1
1511760522710154,-3,-1,-3,-1,-2,-3,-2,0
1511760522719161,0,-2,-2,0,-1,-2,0,0
1511760522719161,-1,0,0,-2,-1,-1,-2,-1
1511760522734161,-1,0,0,-1,-1,0,1,-1
1511760522734161,-1,-1,-2,-1,0,1,0,0
1511760522735162,1,-1,-2,-2,-2,-4,-2,-1
1511760522735162,-1,-1,0,0,0,-2,-1,-3
1511760522756189,-3,-2,0,-2,0,-1,-1,0
1511760522756189,-1,-3,-1,-1,-1,-1,-1,-1
1511760522758188,-1,0,-1,-2,-1,-1,-2,-1
1511760522758188,0,-1,2,-2,-1,0,2,-1
1511760522770187,1,-2,-1,0,0,-3,0,0
1511760522770187,-1,0,-2,0,-1,-1,-3,0
1511760522779198,-1,-1,-2,0,1,-2,-1,-2
1511760522779198,-2,-2,0,0,-1,-1,0,-1
1511760522793216,-1,1,0,-3,-1,-1,-1,-1
1511760522793216,-2,-2,-2,0,-3,-2,0,0
1511760522800221,-2,-1,-3,-2,-2,-2,0,1
1511760522800221,-1,-1,0,-3,0,0,0,2
1511760522816219,-1,-1,-2,-1,-2,-1,-3,1
1511760522816219,2,-1,-2,-2,-1,-2,-2,-1
1511760522818221,-2,-1,0,-1,-2,-1,-1,-1
1511760522818221,-2,1,-2,-1,-1,-1,0,1
1511760522839236,-2,1,-1,0,0,1,-1,1
1511760522839236,-2,-1,-3,-2,-2,1,0,-3
1511760522840237,0,-1,0,-3,-1,-1,-1,-4
1511760522840237,0,-2,0,0,-2,-1,-1,-1
1511760522853258,-1,0,0,0,-1,-1,-2,-2
1511760522853258,0,-1,-2,-1,0,-2,-1,1
1511760522855259,-2,-2,-1,-2,-2,-2,-1,-2
1511760522855259,-2,-3,-1,-1,-3,-2,0,-3
1511760522876271,-1,-2,-2,-1,-1,-2,-2,-3
1511760522876271,-2,0,-2,-2,0,0,-1,0
1511760522877272,-1,-1,-3,0,0,1,-1,1
1511760522877272,0,0,-2,-1,-3,-2,-1,-2
1511760522898282,0,-1,-1,1,-2,-1,0,-2
1511760522898282,-1,0,0,1,-1,-2,-3,0
1511760522900279,-1,-1,-2,-2,-2,-1,-2,-1
1511760522900279,-2,-1,0,0,-2,-1,-1,-1
1511760522914289,1,0,-2,0,-3,-3,-1,-2
1511760522914289,-1,-2,-3,-1,-1,-2,0,-3
1511760522915290,1,0,-1,0,-1,1,-1,2
1511760522915290,-1,-2,1,-2,-1,-2,0,-2
1511760522936314,-2,-1,0,0,-1,1,0,-2
1511760522936314,-2,-2,-2,-2,-2,-2,-1,-1
1511760522937305,-1,-1,-1,-1,-2,0,-1,0
1511760522937305,-1,-1,1,-1,0,-2,-2,-2
1511760522958332,0,-2,1,0,-1,-1,-1,0
1511760522958332,0,-2,-3,-2,0,-2,1,-3
1511760522960322,0,1,0,-1,-1,-4,-1,-2
1511760522960322,1,-1,-1,-1,-1,-1,-1,-1
1511760522981338,0,-2,0,-1,-1,-2,1,0
1511760522981338,-2,-2,0,-2,-1,-1,0,0
1511760522982341,-1,-1,-2,-1,-1,-3,0,0
1511760522982341,0,0,1,0,-3,-2,-1,-1
1511760522996351,-1,-1,-1,-2,-1,-1,-1,-1
1511760522996351,1,-1,-2,0,-1,1,-1,-1
1511760522997362,0,-1,-2,0,-3,-1,1,-1
1511760522997362,-2,-2,0,0,-2,-3,-1,-1
1511760523018372,-1,-1,-3,0,-1,0,-1,0
1511760523018372,-3,-1,-1,-1,-1,0,0,0
1511760523020373,0,-2,0,-2,0,0,0,1
1511760523020373,-3,0,0,-1,0,-1,-1,-1
1511760523033373,0,-1,0,-2,0,-2,1,-1
1511760523033373,0,-1,-2,-2,-1,-1,-3,-2
1511760523039389,-2,-1,0,0,0,-2,-3,-3
1511760523039389,0,0,-2,0,-2,0,0,0
1511760523056401,-1,-3,-1,-1,-1,0,1,0
1511760523056401,1,-1,-1,-2,-1,1,-1,2
1511760523057402,-1,-2,-2,0,0,-1,-1,-2
1511760523057402,-2,-1,0,-1,-2,-2,-1,-1
1511760523078404,-2,-2,0,-1,0,0,-1,-2
1511760523078404,0,-2,-2,1,-3,0,0,0
1511760523080407,0,-2,-1,-2,-1,-2,-1,0
1511760523080407,-1,-2,-1,-1,1,0,1,-1
1511760523093427,0,-1,-3,-1,1,-1,-2,0
1511760523093427,-2,-1,-2,-2,0,-1,-1,-1
1511760523100434,-3,-1,0,-2,-1,-1,-1,-1
1511760523100434,-1,2,3,-1,-1,0,-1,-1
1511760523116441,-1,0,0,-1,-2,0,-3,-1
1511760523116441,-2,-2,-2,-1,-2,-1,-2,0
1511760523118434,-1,-2,-2,-2,-4,-1,-2,-2
1511760523118434,-1,-1,0,-1,-1,-2,1,-1
1511760523138447,-1,0,0,0,-1,0,-1,-1
1511760523138447,-2,-1,-2,-1,-1,0,-1,0
1511760523140448,-2,0,-1,-1,-2,-1,0,-1
1511760523140448,-1,0,0,-1,-1,-2,1,-3
1511760523153457,0,-1,-3,-1,-2,1,-1,-2
1511760523153457,0,-1,-4,0,-1,0,-1,-2
1511760523159462,-2,-1,-2,-1,-1,-1,-2,-1
1511760523159462,0,-1,0,0,0,0,0,-2
1511760523176474,-2,-2,-2,-1,-1,-2,-1,0
1511760523176474,-1,0,-1,0,0,-3,-3,-1
1511760523177477,-1,0,0,-2,-1,-2,0,0
1511760523177477,-3,-1,-3,0,-3,-1,-2,-1
1511760523198501,0,-1,0,0,-1,-2,-1,-3
1511760523198501,0,0,-1,-4,-3,-1,-2,-2
1511760523200491,0,-1,-1,2,1,2,0,-2
1511760523200491,0,-2,0,0,-1,-1,1,-2
1511760523212509,-1,0,-1,1,0,0,-1,0
1511760523212509,-2,0,-1,-1,-1,-2,0,-1
1511760523220519,0,-1,0,0,-1,-1,-1,1
1511760523220519,-2,-3,-2,-2,0,-1,0,-1
1511760523235533,-2,-1,0,-1,1,-3,-2,-1
1511760523235533,0,0,-2,1,0,-2,-1,-1
1511760523236516,0,1,-1,0,-1,-3,-1,-2
1511760523236516,-3,0,0,1,0,0,-1,-2
1511760523257543,-1,-1,-1,-2,-1,-2,-2,-1
1511760523257543,-2,-2,-3,0,-1,-1,-2,-1
1511760523258532,0,-2,-1,-2,-1,-2,0,-1
1511760523258532,1,-1,-1,1,-2,-2,-2,-1
1511760523272554,0,-1,-2,-1,0,0,-1,-2
1511760523272554,-1,-2,-3,-1,-2,-1,-1,-1
1511760523280560,-1,-2,-2,0,-3,0,-1,-2
1511760523280560,-1,-1,0,-2,-1,-1,2,0
1511760523295571,0,-1,1,0,-1,-2,-1,-1
1511760523295571,0,-2,-2,-1,-1,-1,-3,0
1511760523296563,-4,-1,0,-2,-2,-1,-1,-1
1511760523296563,1,-2,0,-2,0,-2,-2,-3
1511760523317584,-2,-1,-1,0,1,2,-1,0
1511760523317584,-1,-1,-2,-1,0,-4,0,0
1511760523318574,-1,0,0,-1,-3,-1,-1,-1
1511760523318574,0,-1,1,-1,-2,-2,0,1
1511760523332594,-1,-3,-2,-1,-2,1,-1,1
1511760523332594,-1,-1,-1,0,-2,0,0,-2
1511760523340599,0,-1,-3,-1,0,-2,-1,-1
1511760523340599,-2,0,1,-2,-1,-2,-2,-2
1511760523363621,0,-1,-1,-2,0,-2,-3,0
1511760523363621,-1,-1,-2,-1,-2,-1,-1,-2
1511760523364622,-1,0,-1,-1,-3,-1,0,-3
1511760523364622,-1,0,1,0,-2,-1,-2,-3
1511760523377617,-1,0,0,0,0,0,1,0
1511760523377617,3,0,-1,-2,-1,-2,-2,1
1511760523379623,-2,0,-1,-1,0,0,-1,0
1511760523379623,0,0,0,0,-1,1,-4,-3
1511760523392639,-2,-2,-2,0,-2,0,-2,0
1511760523392639,-2,-1,-1,-3,-1,1,-1,1
1511760523400632,1,-2,-1,-1,-1,-2,0,-1
1511760523400632,-2,-1,-1,-1,-3,-1,0,-2
1511760523415643,-2,0,-2,-2,0,-2,-1,-2
1511760523415643,0,-1,0,-1,-1,-1,0,-1
1511760523416645,-1,1,-1,-1,-2,-1,0,-2
1511760523416645,-1,1,0,-2,-1,-1,0,-1
1511760523437671,1,-1,-2,2,-1,0,-2,-2
1511760523437671,-2,-1,-2,0,-1,1,0,0
1511760523438659,1,-1,0,-2,-1,0,-1,-1
1511760523438659,-6,-2,-1,-1,-1,-3,-1,0
1511760523452681,1,0,-3,-1,0,1,-1,0
1511760523452681,-1,0,-2,0,0,-1,0,-2
1511760523460687,-2,0,1,-1,-1,-2,-1,-1
1511760523460687,0,0,-1,-1,0,0,2,1
1511760523475697,-4,-3,-1,-3,-1,-2,-4,-2
1511760523475697,0,-2,-2,-3,-1,-1,-2,0
1511760523476698,0,-2,0,1,-2,-3,-1,-3
1511760523476698,2,0,0,1,-3,-2,-1,-1
1511760523497717,-1,-1,-2,-4,1,0,-2,0
1511760523497717,-1,1,0,-1,-2,-1,-2,-1
1511760523498702,-3,-2,-1,-4,-1,-1,-1,-2
1511760523498702,-1,-3,-3,0,1,0,-2,-3
1511760523512736,-1,-2,-1,1,0,-2,-2,-2
1511760523512736,1,-2,-2,0,0,-3,-2,-1
1511760523520727,-6,-1,1,-1,-2,-3,-1,0
1511760523520727,4,2,2,1,-2,-1,0,-1
1511760523535732,-4,-1,-1,1,1,0,-1,0
1511760523535732,-1,-1,-2,-6,-1,-1,-3,-1
1511760523536740,-3,-2,-2,5,0,-1,-1,-1
1511760523536740,-2,-3,-1,0,-1,-1,1,-1
1511760523557753,-1,0,0,-5,-1,-2,-3,-3
1511760523557753,2,-2,-3,-1,-2,-3,-1,-1
1511760523558743,-4,-1,-2,-3,-3,-1,0,-1
1511760523558743,-4,-1,0,-1,0,-1,0,-3
1511760523580773,4,0,2,3,-2,-3,-2,-1
1511760523580773,2,-1,-2,-2,-3,-1,-2,0
1511760523581761,-6,-2,-2,-1,-1,-1,1,0
1511760523581761,0,-4,-2,0,1,-1,-1,-1
1511760523595770,-1,-2,7,-1,-1,-2,-1,-1
1511760523595770,-3,-5,-12,0,0,0,-1,0
1511760523596776,5,3,3,-3,-5,0,0,-1
1511760523596776,-4,2,12,15,0,-1,1,-1
1511760523617785,-1,-3,-21,-6,-6,-2,0,0
1511760523617785,3,6,6,22,-3,-3,-2,-1
1511760523618786,0,-3,-11,-16,9,3,-1,0
1511760523618786,-1,-6,-8,-21,-4,-1,-2,-2
1511760523631796,0,2,2,2,3,1,-1,1
1511760523631796,-8,-4,2,3,3,0,1,-1
1511760523640803,-2,3,2,9,-5,-2,-3,-2
1511760523640803,10,1,2,1,2,0,0,0
1511760523655813,0,-1,-3,-7,1,-2,-1,-1
1511760523655813,-13,-2,12,-4,-2,-2,0,-1
1511760523655813,3,-2,9,7,-1,-2,1,-1
1511760523655813,-6,0,76,1,-1,0,-1,1
1511760523677828,-2,-10,-108,-14,-5,-2,-3,-1
1511760523677828,8,0,12,-4,1,-1,-1,-1
1511760523678828,-5,-3,14,-1,-3,-4,-1,-1
1511760523678828,-18,0,-18,1,0,-1,0,0
1511760523691837,19,8,34,19,-3,-2,-2,-3
1511760523691837,-13,-8,-21,-19,1,0,-2,-1
1511760523700856,2,2,-9,-4,-2,-1,-1,-2
1511760523700856,10,3,-6,5,-2,1,0,2
1511760523715854,-9,-12,13,-3,3,1,0,0
1511760523715854,3,3,-10,10,-5,-4,-4,-1
1511760523715854,13,6,26,-10,0,0,2,3
1511760523715854,-7,-4,-45,-13,-3,-4,-2,0
1511760523737870,-14,0,16,5,1,-2,-2,-1
1511760523737870,41,10,-1,4,0,0,0,0
1511760523738871,-62,-9,-3,2,-3,-2,-4,-7
1511760523738871,33,-5,1,2,-1,-1,-2,-1
1511760523760902,31,12,11,-2,-1,0,-1,1
1511760523760902,-83,-2,-2,-4,-3,-1,-3,-6
1511760523761887,1,-23,-13,0,-2,-2,-2,-1
1511760523761887,21,22,-2,1,2,0,1,5
1511760523775909,12,5,12,1,-1,2,0,-1
1511760523775909,5,-18,3,-5,0,2,-1,-4
1511760523775909,-6,-7,-25,-6,-5,-4,0,-4
1511760523775909,-19,-12,10,2,-4,-4,-3,-2
1511760523797926,22,17,-5,4,0,-4,0,2
1511760523797926,16,11,-5,-5,1,1,1,8
1511760523798925,40,9,9,-1,-2,1,-1,1
1511760523798925,-53,-19,-3,3,7,-1,2,-3
1511760523820930,15,5,11,-9,-7,-5,-5,-5
1511760523820930,9,-9,-8,-4,-3,-4,-5,-6
1511760523821931,-11,-10,-5,2,0,-1,1,-2
1511760523821931,3,8,18,-4,-1,0,0,-3
1511760523834951,-42,-13,-4,1,0,-1,0,2
1511760523834951,5,-9,-12,-3,-2,-2,0,0
1511760523835939,14,10,5,1,-2,-4,0,1
1511760523835939,30,8,-8,-2,-2,-1,-1,-4
1511760523857955,-36,-14,12,3,0,0,-2,-4
1511760523857955,16,10,18,6,-1,-1,-1,1
1511760523858967,1,9,-5,6,-1,3,1,1
1511760523858967,5,3,23,-8,6,1,2,0
1511760523880974,7,-10,-39,-15,-3,2,0,-2
1511760523880974,5,2,0,-5,-3,-2,-1,4
1511760523881972,-26,2,2,4,0,-2,-1,-5
1511760523881972,-19,1,-3,0,-5,-2,-1,-3
1511760523895982,0,-12,17,5,-2,-2,-3,-1
1511760523895982,-3,1,-4,0,-1,1,-3,-2
1511760523895982,-25,-8,-2,-5,-6,-4,-3,-5
1511760523895982,18,-2,-6,4,0,1,0,4
1511760523917997,-14,-1,8,-2,1,1,1,4
1511760523917997,-1,0,-13,0,-1,-1,-6,-9
1511760523918998,14,2,5,-6,1,1,3,4
1511760523918998,-14,-3,-13,2,-3,-3,-1,-4
1511760523941013,11,-3,-3,2,1,-2,-1,0
1511760523941013,7,1,1,0,0,-2,-1,3
1511760523943015,-7,0,1,-4,-2,0,-1,-2
1511760523943015,12,2,-5,5,-1,-1,-4,-2
1511760523955023,-7,9,13,-12,1,1,3,5
1511760523955023,-25,-13,-23,2,2,-2,0,1
1511760523956024,20,-5,-7,-4,0,1,0,-1
1511760523956024,1,-8,-13,-5,-8,-4,-3,-2
1511760523978042,11,8,3,6,5,0,-3,-1
1511760523978042,16,-8,6,-6,-4,-2,-3,-1
1511760523979041,-30,-2,8,7,1,0,1,0
1511760523979041,-3,-1,-10,-4,-4,-1,-4,-4
1511760524001056,-7,-8,-7,-3,-4,0,-2,-2
1511760524001056,22,10,-4,-4,-1,2,3,3
1511760524002057,2,1,10,3,-1,-1,2,-1
1511760524002057,-39,-9,1,-1,-1,-2,-4,-10
1511760524016068,-23,-1,-2,2,0,1,4,6
1511760524016068,22,-16,-2,-5,-2,-2,1,0
1511760524017067,15,7,-2,-1,-3,-1,1,1
1511760524017067,-6,0,1,4,-1,0,-1,-2
1511760524038094,13,-9,-3,-6,2,0,0,-2
1511760524038094,-10,8,2,0,-2,0,1,5
1511760524039095,-4,-8,3,6,1,-2,-2,1
1511760524039095,28,10,-7,-4,-1,-1,-1,2
1511760524061098,0,1,-6,-1,-6,-5,-5,0
1511760524061098,7,-4,12,1,-2,-1,-3,-5
1511760524062099,27,6,-11,-6,0,1,2,7
1511760524062099,-21,-15,2,3,0,1,3,0
1511760524075122,-6,12,1,-1,-4,-5,-10,-6
1511760524075122,-22,-15,2,4,-1,-2,-3,4
1511760524076109,-7,-3,-9,-16,-2,-3,-1,-3
1511760524076109,-4,-2,1,-2,-1,-1,2,1
1511760524098126,30,2,-7,-1,-3,0,-2,6
1511760524098126,-40,27,7,15,1,3,9,4
1511760524099126,-11,-10,-4,-16,-3,-3,-3,-14
1511760524099126,21,2,-1,6,1,2,4,3
1511760524121150,-25,-16,8,0,0,1,-1,-1
1511760524121150,12,4,-12,0,-5,-3,-4,-5
1511760524122156,-2,8,9,8,1,1,0,1
1511760524122156,11,2,-8,-5,-3,0,2,-3
1511760524135160,-2,6,-2,4,0,-1,1,-2
1511760524135160,-7,-12,4,0,-3,-1,2,-2
1511760524136154,14,4,9,6,2,-2,-5,-4
1511760524136154,-14,-9,-22,-12,-3,-5,-11,-8
1511760524158180,-1,-9,1,-1,1,2,4,3
1511760524158180,9,6,-4,1,-4,0,-1,-2
1511760524159179,21,17,-1,-8,3,2,8,-3
1511760524159179,-3,1,6,4,1,-2,-1,9
1511760524181198,-2,-14,-1,-1,-2,0,-2,-6
1511760524181198,-21,-5,-5,1,-2,-2,2,2
1511760524183185,-3,-2,1,-3,-5,-3,-3,1
1511760524183185,-15,-6,5,-1,0,-2,-2,-4
1511760524195206,-17,18,0,14,7,3,3,4
1511760524195206,50,-8,-9,-19,1,-4,-9,-9
1511760524196194,0,2,-1,10,-2,-1,0,2
1511760524196194,9,-6,-2,-11,-1,-1,0,3
1511760524218209,0,4,-8,-4,-6,-3,-8,-8
1511760524218209,0,-25,3,-7,-6,-3,-4,-2
1511760524219210,-13,-4,-18,1,1,-5,-6,-2
1511760524219210,1,18,12,6,-3,0,0,0
1511760524241239,5,4,4,-8,2,1,6,7
1511760524241239,-16,-4,-16,3,1,2,8,2
1511760524242240,-1,-17,-15,-9,-7,-2,-2,1
1511760524242240,16,-16,-3,6,3,2,1,8
1511760524255248,-10,18,-4,-2,-7,-5,-4,-4
1511760524255248,7,9,9,1,4,3,3,5
1511760524256242,2,-4,11,7,2,1,3,11
1511760524256242,-38,-15,-7,-13,-5,-1,0,-12
1511760524278263,-15,-14,-6,-2,-1,-4,-8,-10
1511760524278263,8,8,4,6,2,3,-5,8
1511760524279252,-14,-3,-3,-9,-6,-2,3,-12
1511760524279252,4,0,0,1,0,-3,-3,5
1511760524301268,35,21,7,18,-4,-2,0,2
1511760524301268,-102,-28,-7,-13,7,1,-4,-12
1511760524302270,16,5,-4,2,-4,1,5,7
1511760524302270,19,14,4,-4,3,0,1,12
1511760524315296,12,-20,-18,-11,-13,-6,10,17
1511760524315296,32,34,4,9,7,0,7,9
1511760524316285,16,-15,-6,-13,-11,-8,-18,12
1511760524316285,-71,-19,1,13,-1,-3,-1,-45
1511760524338294,44,-7,-13,-30,-3,-3,-15,-4
1511760524338294,-59,-7,14,18,-2,6,39,-3
1511760524338294,-4,7,0,-15,2,0,19,37
1511760524338294,40,24,11,-1,-3,-2,-17,27
1511760524361322,-5,7,-4,2,9,9,8,-7
1511760524361322,14,-30,-10,-8,-6,-3,-4,7
1511760524362312,1,20,4,10,2,-3,-13,-29
1511760524362312,1,-4,4,6,11,18,53,69
1511760524374329,4,-15,2,-11,-5,-9,-41,-68
1511760524374329,54,4,-11,-10,-3,-3,-12,1
1511760524383335,-25,-31,0,11,-3,-4,-9,-8
1511760524383335,7,7,4,-9,-5,-8,1,-32
1511760524398353,6,-11,10,15,1,-2,6,36
1511760524398353,13,13,2,-5,-9,-6,-13,-20
1511760524398353,13,2,-3,-6,4,-2,-8,3
1511760524398353,9,-19,-8,-6,1,-2,-9,-19
1511760524421363,-36,-6,-6,-3,0,1,5,-5
1511760524421363,0,36,12,10,-7,-7,-2,15
1511760524422363,-4,-18,-7,-5,7,4,22,1
1511760524422363,-9,38,4,-2,-4,-10,-43,-33
1511760524435364,65,12,15,4,-1,7,5,-11
1511760524435364,-57,-6,-15,4,-3,-3,-3,-2
1511760524443387,-10,-15,14,1,1,-1,-19,-28
1511760524443387,23,-3,-9,16,-2,3,20,8
1511760524458378,-6,-4,4,-12,4,3,13,39
1511760524458378,32,46,-9,-5,-2,-3,-27,-10
1511760524458378,-32,-9,10,2,-4,1,4,-16
1511760524458378,13,17,-17,-3,1,-1,1,5
1511760524481407,-74,-15,-13,-5,-9,-8,2,29
1511760524481407,21,-48,-5,-18,-3,1,-2,23
1511760524481407,26,26,-2,18,0,-4,11,-7
1511760524481407,-1,-19,-6,-11,-5,-8,-36,-38
1511760524494414,8,18,9,26,0,6,14,-2
1511760524494414,-17,-51,-5,-33,9,1,-2,12
1511760524503424,-1,18,-22,-2,-16,-9,-21,-19
1511760524503424,11,-10,13,-4,-6,-4,15,32
1511760524517430,-20,-3,-6,1,3,-4,-7,-18
1511760524517430,-20,-11,9,11,-7,-6,-4,-13
1511760524518421,19,10,0,-9,7,3,9,2
1511760524518421,-21,-20,4,3,1,2,9,18
1511760524542450,1,1,-10,-5,-1,-4,-15,-25
1511760524542450,-25,-2,6,6,-1,-2,-3,-7
1511760524543440,-42,-13,-9,-2,-5,-3,1,5
1511760524543440,50,36,10,2,1,8,26,16
1511760524554448,39,3,-5,-6,4,-3,-3,-28
1511760524554448,-48,-16,-24,-8,0,3,4,-4
1511760524563461,-22,-21,-5,-5,-5,-3,15,27
1511760524563461,60,-3,-4,12,-3,-6,-42,-55
1511760524577464,-108,-38,6,-10,-3,-4,-16,7
1511760524577464,74,-3,6,8,4,-1,17,-4
1511760524579464,-26,10,-11,-7,2,-3,-20,-16
1511760524579464,24,-18,9,-4,-5,-7,0,24
1511760524601508,13,3,-3,-6,7,4,1,-14
1511760524601508,58,44,11,27,-1,-1,5,44
1511760524601508,-31,-36,7,-12,-8,-3,3,-1
1511760524601508,11,4,-11,13,3,1,-4,-7
1511760524614490,-79,-25,3,-8,6,11,33,13
1511760524614490,6,29,-5,-20,-5,-4,-3,-14
1511760524622494,15,-15,2,23,-5,-8,-11,0
1511760524622494,-41,23,-4,-14,4,0,-28,-19
1511760524637505,13,-3,-4,13,1,11,45,59
1511760524637505,0,6,1,0,-5,-8,-33,-96
1511760524638507,30,1,12,4,7,9,15,17
1511760524638507,13,-2,-22,-33,-11,-8,15,41
1511760524661522,-78,-18,-2,-16,6,2,-26,-81
1511760524661522,-31,-5,5,16,-1,-1,20,33
1511760524661522,-12,17,20,20,1,-1,-18,-24
1511760524661522,-63,17,-9,-22,-5,-6,-19,-37
1511760524683537,85,42,15,7,-5,1,10,56
1511760524683537,21,-8,-16,-40,-6,-3,8,43
1511760524684539,42,23,-11,-7,3,1,-10,-14
1511760524684539,-65,-79,2,8,-1,-3,21,22
1511760524698548,1,-5,-21,-13,-11,-12,-24,-2
1511760524698548,7,11,19,6,3,3,-19,-29
1511760524698548,-35,-7,-18,12,8,2,8,27
1511760524698548,59,0,3,-4,1,2,9,-10
1511760524721564,17,-3,5,16,-2,-5,-17,-28
1511760524721564,-44,-58,-17,1,-4,-3,-10,-22
1511760524721564,79,48,12,-9,6,9,19,18
1511760524721564,-82,20,0,2,2,9,7,14
1511760524742579,6,-1,-8,1,-6,-8,-11,-7
1511760524742579,98,77,15,39,5,6,16,21
1511760524750585,33,26,17,-6,-2,-4,14,34
1511760524750585,-49,-57,-5,-3,6,5,3,-80
1511760524757602,44,-9,-27,-3,1,-1,2,85
1511760524757602,-7,36,13,4,-2,4,7,-18
1511760524758591,-11,5,-12,7,-9,-9,-16,-19
1511760524758591,-7,24,17,-8,-2,0,-11,-23
1511760524781611,-17,11,-8,12,1,3,10,12
1511760524781611,14,-13,-11,-25,1,-2,-15,8
1511760524781611,-37,-37,2,-13,-4,-3,13,30
1511760524781611,29,16,-17,25,-13,-9,-25,-70
1511760524803632,28,0,23,-19,3,-3,7,33
1511760524803632,-28,-6,-7,15,8,-3,3,43
1511760524804633,-24,-71,-9,-24,-7,-3,-9,-28
1511760524804633,81,-38,11,12,10,1,-4,54
1511760524817646,46,53,2,-12,-8,0,5,17
1511760524817646,-9,-33,-53,-10,-11,-2,-8,-65
1511760524818636,11,19,22,-21,7,1,18,55
1511760524818636,20,19,-13,16,11,2,12,7
1511760524841649,-46,-47,3,17,-8,-9,-30,-20
1511760524841649,21,-26,2,-31,0,1,9,-11
1511760524842650,-20,-15,8,25,-15,-8,-1,-5
1511760524842650,18,49,-8,-21,14,17,40,74
1511760524863667,-9,-11,14,18,2,0,-9,-22
1511760524863667,-18,-35,-13,-10,-13,-7,-7,39
1511760524864667,16,60,-26,-22,9,-1,-9,3
1511760524864667,-39,-31,19,5,-5,-3,-13,-25
1511760524877689,38,-19,-63,-4,-4,-2,-8,-43
1511760524877689,-46,33,49,45,-5,0,11,43
1511760524878690,11,-17,-15,-15,26,16,23,-19
1511760524878690,11,57,2,7,-7,-4,4,7
1511760524900703,24,27,-8,-25,-7,-1,19,44
1511760524900703,-98,-22,13,14,-6,-6,-25,-54
1511760524901692,20,-23,-15,23,7,-3,-39,-48
1511760524901692,-55,-8,9,-39,5,3,-4,26
1511760524923707,-50,-41,-8,12,3,6,4,-3
1511760524923707,28,31,8,1,8,-5,-5,13
1511760524925715,39,42,53,15,-14,-4,-6,17
1511760524925715,20,-9,-30,6,-1,0,16,-6
1511760524937729,-34,-1,-7,-25,4,2,1,49
1511760524937729,20,-1,-3,-9,-9,-7,10,21
1511760524938717,-51,13,13,8,0,-3,-8,40
1511760524938717,8,-68,-1,8,-4,1,3,23
1511760524960746,57,85,6,-18,-8,-8,-8,44
1511760524960746,-4,-88,-14,-26,2,-4,10,39
1511760524962735,-31,12,8,-21,-8,-1,21,-11
1511760524962735,20,8,-9,17,-6,-6,-21,-17
1511760524983750,23,-4,11,20,17,11,10,51
1511760524983750,61,-27,-29,-22,-7,1,-7,-76
1511760524984750,45,25,26,84,-11,-1,-27,3
1511760524984750,-51,-27,-20,-58,10,2,0,79
1511760524997761,84,9,-10,-15,11,9,-3,-53
1511760524997761,-26,8,38,16,1,10,5,12
1511760524998761,100,69,-15,-12,-4,-8,-6,-40
1511760524998761,-61,-62,1,-5,-1,-4,17,71
1511760525021778,-16,8,10,34,-6,-9,-51,-123
1511760525021778,-30,-21,15,0,6,2,-3,17
1511760525022777,1,41,-45,-12,5,-1,14,-44
1511760525022777,55,64,38,7,-2,5,5,-47
1511760525043792,40,-61,-20,-15,-4,-5,-9,-8
1511760525043792,-73,-20,-15,13,-14,-4,23,-14
1511760525044798,4,-64,-6,-27,-2,-1,16,90
1511760525044798,32,52,3,12,6,14,12,-35
1511760525057802,-48,25,15,9,-10,-13,-4,-60
1511760525057802,1,55,5,-35,4,4,-22,-53
1511760525058803,-68,-58,11,3,-6,-9,20,75
1511760525058803,-37,-8,-15,33,-8,-11,-20,-92
1511760525080821,-18,-2,32,-8,8,9,37,69
1511760525080821,-38,35,-12,-21,-9,-4,-3,63
1511760525081825,-36,-55,-8,8,11,8,25,61
1511760525081825,15,-5,-6,-8,-2,-5,-34,-24
1511760525103834,-37,20,-5,0,-7,4,33,28
1511760525103834,28,-25,17,10,5,-20,-46,37
1511760525104835,-42,-17,3,1,-8,3,21,-96
1511760525104835,48,-41,6,9,-1,-2,14,100
1511760525117844,0,-66,-23,-32,-10,-8,-59,-91
1511760525117844,28,54,24,39,19,9,19,97
1511760525118845,71,46,-9,-25,-1,-2,-7,-46
1511760525118845,-64,-10,-8,9,-11,-17,-27,4
1511760525140873,49,2,5,-32,-8,-7,0,-16
1511760525140873,57,-30,-33,13,22,19,47,8
1511760525141864,-30,15,33,-11,-8,-7,-30,17
1511760525141864,68,93,1,-4,3,4,-36,-56
1511760525163879,-41,9,17,47,-9,-17,-34,45
1511760525163879,45,3,2,-30,4,13,14,-1
1511760525164880,-67,-12,-21,6,6,4,-14,-57
1511760525164880,59,41,0,23,15,27,72,123
1511760525177887,-50,-56,-14,-18,-4,-12,-5,-55
1511760525177887,1,4,-6,12,-17,-10,-11,14
1511760525178887,14,21,4,-29,9,7,1,31
1511760525178887,-73,-61,-1,4,-7,-6,-2,-79
1511760525200915,45,59,18,12,9,8,10,15
1511760525200915,6,-10,-33,-5,-10,-6,4,-2
1511760525201903,53,10,1,13,-10,-3,-5,2
1511760525201903,-28,-85,-24,-22,4,-8,-16,-39
1511760525223931,11,-15,-27,-3,-4,3,16,72
1511760525223931,-4,48,9,-4,-10,-10,-12,-81
1511760525223931,52,30,-1,4,12,19,24,56
1511760525223931,-34,-28,20,-14,-16,-22,-29,-80
1511760525237941,-45,-19,-36,4,-6,-3,-20,60
1511760525237941,-21,-11,-1,-42,17,5,-10,6
1511760525238943,3,-22,5,30,-10,0,36,80
1511760525238943,33,9,-3,-20,9,13,23,-1
1511760525260957,48,51,8,2,3,-18,-43,-59
1511760525260957,-38,-33,4,5,-11,-3,-2,-66
1511760525261946,44,-19,-27,5,4,2,15,42
1511760525261946,-77,13,23,3,9,6,13,-20
1511760525283974,71,24,6,18,-7,5,16,29
1511760525283974,34,12,3,4,2,-7,-12,18
1511760525283974,-31,-28,-1,-46,1,-1,13,22
1511760525283974,83,26,0,26,-10,-8,-3,2
1511760525306990,21,-6,6,-21,4,7,22,37
1511760525306990,-82,-12,-17,0,-2,-3,4,18
1511760525307998,20,-12,28,-9,-6,-4,-27,60
1511760525307998,16,-3,2,36,-15,-4,0,-44
1511760525320998,-97,-59,-7,-35,7,-3,-35,-99
1511760525320998,77,-2,-13,-5,3,7,23,70
1511760525322999,-50,11,5,56,-13,-12,-31,-114
1511760525322999,62,29,-24,-40,-5,-6,-5,95
1511760525344004,-32,-24,21,9,-2,10,5,-51
1511760525344004,-63,-43,9,6,-14,-11,-18,-24
1511760525345006,4,-9,-14,-18,9,-5,-33,-57
1511760525345006,-1,45,20,55,-17,2,8,6
1511760525357013,33,6,-48,-51,26,14,41,69
1511760525357013,-17,20,24,25,-5,-21,-56,22
1511760525366021,-29,-34,5,10,-10,-6,8,-125
1511760525366021,-7,-20,-5,0,-3,-2,9,78
1511760525381052,34,35,17,24,0,-3,9,-28
1511760525381052,-2,38,-13,-23,3,8,14,-10
1511760525383034,20,-43,-18,-5,-7,-2,-47,-65
1511760525383034,-43,-7,9,-21,5,-6,-10,22
1511760525404047,-37,-24,-9,9,-3,8,40,110
1511760525404047,88,110,31,-10,-21,-7,13,58
1511760525405047,-30,-36,-6,8,19,3,-25,-5
1511760525405047,20,41,-18,-55,4,3,9,62
1511760525417055,-69,-21,32,21,-12,-6,-8,-31
1511760525417055,0,-50,-28,26,14,22,59,42
1511760525426064,58,49,-12,-34,-4,-6,-19,-18
1511760525426064,-30,-17,-17,2,1,-1,4,68
1511760525441072,-12,2,38,15,-8,4,37,15
1511760525441072,48,59,1,-9,-1,-12,-62,-66
1511760525444075,-13,6,23,11,-1,3,21,32
1511760525444075,19,-22,-19,-5,9,-2,-20,31
1511760525464093,22,18,-2,10,-11,-8,-10,-33
1511760525464093,18,-13,16,22,11,25,101,84
1511760525465095,-2,-8,6,-29,-14,-25,-25,50
1511760525465095,-33,-42,-20,21,3,0,1,-5
1511760525477111,13,-9,-3,8,2,0,9,59
1511760525477111,40,20,22,3,-1,-5,-15,-33
1511760525486107,-34,1,8,-1,2,16,35,17
1511760525486107,15,0,4,-11,-11,-3,-8,-79
1511760525500114,16,-29,0,15,-13,-1,46,55
1511760525500114,-11,-10,-52,-48,25,6,-39,21
1511760525509132,-3,24,14,20,-7,0,20,92
1511760525509132,1,23,15,-4,2,8,7,30
1511760525524132,43,65,-3,-45,8,-6,-7,30
1511760525524132,-26,13,38,19,-28,-10,14,0
1511760525525147,-8,-23,-58,-16,8,9,13,-5
1511760525525147,11,11,-16,8,2,6,17,81
1511760525537153,-45,14,-29,-22,-5,0,6,28
1511760525537153,45,-19,-1,21,-2,-15,-34,-23
1511760525546147,-50,-1,10,-12,0,-1,5,6
1511760525546147,-17,-56,5,-3,-4,-1,1,-64
1511760525561158,-55,13,-3,35,1,1,-12,-19
1511760525561158,-23,-54,-28,-32,-4,0,-27,-37
1511760525563159,40,65,11,6,-4,-5,-4,-42
1511760525563159,-89,-28,-4,3,-3,-6,2,-2
1511760525583185,85,26,-1,-3,9,1,-73,-86
1511760525583185,-49,-69,15,7,4,4,39,-8
1511760525585176,27,47,7,6,-2,-5,-9,71
1511760525585176,-2,27,18,6,-12,-7,-5,67
1511760525597204,16,-16,-21,4,15,9,18,71
1511760525597204,49,2,20,15,-17,-11,-21,-68
1511760525606189,-41,-9,-15,-23,22,8,-3,-1
1511760525606189,17,-12,7,-2,-4,-1,-11,-14
1511760525621212,1,20,35,22,-16,-3,2,-69
1511760525621212,-88,-14,-50,-21,5,-2,-5,20
1511760525627205,10,-60,-15,2,-12,-3,-1,-71
1511760525627205,51,40,-4,15,2,-5,-16,29
1511760525643215,-19,25,-13,-29,3,-4,-24,-33
1511760525643215,28,-6,-7,-29,6,7,26,87
1511760525646222,-48,-12,41,12,-15,-14,-57,-125
1511760525646222,16,-27,-2,-17,13,15,52,24
1511760525666231,18,-26,4,6,-3,-4,-9,92
1511760525666231,30,48,16,11,-3,0,25,53
1511760525667232,-28,-10,-9,7,8,11,0,-3
1511760525667232,-3,26,-9,-21,-7,-3,-13,-7
1511760525681245,-52,-29,49,12,6,-8,-29,-96
1511760525681245,30,-13,-65,-13,-7,0,-12,-49
1511760525683244,-4,-1,11,11,-4,-2,47,91
1511760525683244,-89,-13,-25,2,-1,-8,-19,-59
1511760525703257,69,-2,-23,-14,4,-3,-23,-66
1511760525703257,-27,-1,21,5,-7,-11,-20,38
1511760525705259,32,45,5,-32,-3,3,13,42
1511760525705259,-11,-34,-13,19,-11,-17,-46,-50
1511760525726274,-28,21,-26,-8,-5,5,17,-6
1511760525726274,-29,-59,2,14,1,2,10,-22
1511760525727275,58,26,-3,-11,4,2,-19,-64
1511760525727275,-6,-31,15,3,-4,0,7,43
1511760525741284,-24,-23,-3,-3,0,-5,1,62
1511760525741284,-11,9,2,11,-5,0,-11,-13
1511760525742285,-69,-11,4,2,-9,-8,-26,-50
1511760525742285,41,40,-11,-2,18,13,18,23
1511760525764304,-9,5,7,2,-5,1,-1,-85
1511760525764304,-41,16,21,-8,-9,-10,-17,0
1511760525766305,16,-11,-20,1,-1,-7,12,127
1511760525766305,37,1,17,-2,-1,-7,-16,-43
1511760525786316,-32,-16,-41,14,3,3,13,25
1511760525786316,26,0,11,-17,-4,-1,-9,16
1511760525787317,-32,-56,-6,4,20,15,35,54
1511760525787317,20,6,-7,16,-1,-9,-28,-64
1511760525800326,43,63,28,-11,-3,4,20,51
1511760525800326,-23,-20,-2,-29,7,-3,-17,-15
1511760525807331,1,-6,18,18,-7,-11,-12,-26
1511760525807331,21,5,-35,-15,-5,1,18,-28
1511760525823342,-17,-17,20,1,2,0,5,57
1511760525823342,-31,-13,-49,-16,7,-2,-22,-39
1511760525825344,21,6,24,2,-9,0,38,11
1511760525825344,-8,-49,-3,-9,8,3,-7,-1
1511760525846359,-10,-39,-16,3,-8,0,5,-6
1511760525846359,3,25,-9,28,-3,-1,2,38
1511760525847362,69,26,21,1,7,5,12,66
1511760525847362,-47,8,-23,-22,-7,-8,-43,-65
1511760525860378,-1,-77,-40,11,-8,-3,-1,78
1511760525860378,62,14,26,28,9,13,33,-36
1511760525867386,-24,-25,-13,9,-9,-2,-6,-25
1511760525867386,28,-14,38,-35,11,8,34,42
1511760525883399,9,-13,-17,6,0,-4,3,53
1511760525883399,-23,-3,0,14,3,3,-3,-44
1511760525885401,9,23,-8,22,-17,-15,-15,-60
1511760525885401,4,23,50,-21,7,1,-8,55
1511760525906401,-13,-5,-45,-18,-8,-6,-13,-80
1511760525906401,67,29,34,7,1,-1,16,65
1511760525907408,-50,-49,-15,-7,2,-1,-14,-17
1511760525907408,15,12,-12,10,-7,-3,-8,-24
1511760525920412,38,6,7,-19,2,4,7,26
1511760525920412,32,31,3,2,-10,-10,5,5
1511760525927417,-2,-15,-15,-13,-3,-5,-5,30
1511760525927417,14,35,12,13,2,7,2,65
1511760525943437,29,-70,37,35,-11,-11,6,46
1511760525943437,-27,7,-7,-10,11,10,8,15
1511760525945441,27,13,-28,-31,1,4,-21,-20
1511760525945441,39,19,-1,9,-5,0,19,21
1511760525966444,-15,-1,3,-15,7,0,-17,-62
1511760525966444,-19,-47,-30,5,-3,-5,-6,-38
1511760525967444,9,-1,21,5,-6,-8,-22,-47
1511760525967444,-34,18,-6,7,-7,-3,-9,-43
1511760525980485,65,32,19,-20,20,9,24,82
1511760525980485,-19,15,20,-5,-14,-8,-18,-119
1511760525987459,5,1,-9,3,4,4,0,23
1511760525987459,-4,-5,2,28,-2,-1,-2,-21
1511760526003486,-32,-10,4,13,-5,-3,12,46
1511760526003486,26,-21,25,-8,4,-2,-4,33
1511760526005489,-73,-11,-14,-15,-10,-2,8,11
1511760526005489,16,-16,25,22,5,1,5,15
1511760526026487,-34,-19,-21,-30,-4,-2,-16,-52
1511760526026487,35,19,-6,4,2,7,24,54
1511760526028487,6,8,47,22,4,7,0,-64
1511760526028487,-46,-25,-20,-17,-3,-6,-2,-13
1511760526040508,10,25,-2,5,0,0,-23,-51
1511760526040508,20,40,9,-1,-5,-8,-18,27
1511760526047532,11,-16,3,-6,1,3,24,6
1511760526047532,-39,-24,-6,-9,3,5,11,30
1511760526064519,17,25,-26,7,-6,-1,12,59
1511760526064519,-53,-47,11,35,-11,-5,-3,-51
1511760526065518,34,19,-31,-27,11,-3,-7,47
1511760526065518,-2,4,4,-8,-10,-8,-24,-65
1511760526086542,-44,0,1,-4,-1,3,12,-12
1511760526086542,-20,9,8,2,-7,-6,4,49
1511760526090545,-8,6,-5,13,-10,-2,5,-2
1511760526090545,15,3,7,-47,5,3,11,32
1511760526100552,-34,24,-45,6,6,-1,13,70
1511760526100552,-31,-43,10,-16,-6,-4,-19,23
1511760526107543,8,40,14,23,0,-3,2,-13
1511760526107543,23,-26,-3,-24,5,3,-12,-59
1511760526123568,0,-3,29,21,-2,-14,-42,-42
1511760526123568,50,9,-3,-26,7,6,9,31
1511760526125572,-42,-27,-22,12,-10,-10,-16,-6
1511760526125572,50,41,20,18,1,0,8,26
1511760526145582,-60,-18,16,-14,-11,-10,-10,-26
1511760526145582,-27,-9,-12,21,-3,-4,8,-37
1511760526147579,3,-7,5,-24,11,2,-11,22
1511760526147579,16,17,-16,3,-4,-4,9,7
1511760526159592,12,20,23,5,-6,1,-11,-50
1511760526159592,-11,5,-14,-10,6,5,0,6
1511760526168587,54,20,-6,1,-4,0,17,2
1511760526168587,-19,1,-2,-1,-7,-4,3,51
1511760526183609,4,24,7,21,7,4,-2,-35
1511760526183609,-48,-33,-26,-29,-5,-1,3,0
1511760526185598,21,4,-2,-17,1,0,-5,24
1511760526185598,7,-34,-11,10,-2,4,7,41
1511760526205624,23,12,15,16,-13,-3,-7,-47
1511760526205624,-30,4,-14,-30,8,-1,-2,-33
1511760526207614,9,-21,1,12,5,1,-13,-30
1511760526207614,-16,17,-8,-12,-6,-1,6,43
1511760526219623,10,-2,-1,-8,-5,-5,-2,34
1511760526219623,17,-4,10,3,2,0,7,7
1511760526228646,-4,-8,1,7,-4,1,11,2
1511760526228646,18,-11,-30,-3,-4,-1,-11,-32
1511760526244652,-14,-40,-12,-3,-3,-1,12,36
1511760526244652,36,38,17,-4,-2,0,4,81
1511760526245647,-20,26,-15,14,-1,-3,-8,-71
1511760526245647,-50,-20,29,-14,0,-4,-29,-59
1511760526265664,9,-27,-12,-1,-5,1,21,24
1511760526265664,10,17,1,-16,5,4,16,13
1511760526267656,8,3,11,14,0,-4,-8,12
1511760526267656,-19,-16,-27,33,-2,-2,27,73
1511760526280665,15,10,-2,-8,2,-2,-44,-71
1511760526280665,-14,-33,14,-9,-3,3,-4,-9
1511760526289682,16,-2,-4,-20,0,-1,12,30
1511760526289682,30,-20,13,6,4,3,-4,-18
1511760526303691,-11,40,-54,1,-4,-2,20,46
1511760526303691,28,-19,-29,17,-1,0,-2,10
1511760526304692,35,11,-3,-17,0,-3,0,23
1511760526304692,-24,-20,13,-6,-5,-7,-37,-60
1511760526333703,11,0,13,16,10,3,27,44
1511760526333703,-13,-1,-10,11,-3,-1,-29,-111
1511760526335706,-6,-8,0,-22,-12,-6,-6,45
1511760526335706,16,9,-35,17,18,13,6,-19
1511760526339720,-56,12,45,-31,-4,-4,11,28
1511760526339720,23,-28,2,-17,2,-6,-3,-16
1511760526348730,-37,-3,-20,25,-5,-1,7,56
1511760526348730,26,22,18,-30,1,1,-13,-6
1511760526363725,-29,-3,3,6,5,2,-5,-7
1511760526363725,14,9,18,-14,-18,-18,-11,-71
1511760526365727,-31,5,-6,5,-2,4,2,12
1511760526365727,-16,10,-9,1,-3,4,29,63
1511760526386745,50,11,-6,-10,-2,0,-15,-32
1511760526386745,-21,25,12,29,-1,3,15,39
1511760526388742,3,-29,14,-5,-1,2,-12,-1
1511760526388742,-28,24,17,12,-2,-7,-7,-26
1511760526399764,25,-25,-7,-8,-10,-2,-11,-15
1511760526399764,-7,0,-8,7,-2,2,34,116
1511760526416766,-34,0,21,2,5,-4,-40,-70
1511760526416766,14,29,-11,1,4,6,23,-24
1511760526423766,-21,-5,-34,-24,-4,-2,1,8
1511760526423766,9,9,11,7,-2,-4,10,34
1511760526424767,-46,-11,24,-8,18,13,-2,-27
1511760526424767,21,-22,-8,3,-13,-7,9,37
1511760526445794,-22,16,-2,5,3,4,7,2
1511760526445794,16,-18,-3,-1,1,-10,-30,-74
1511760526447786,6,-34,-9,-1,1,0,10,58
1511760526447786,-38,3,-8,0,-15,-7,2,-50
1511760526459793,14,16,32,6,6,4,-6,-39
1511760526459793,3,5,-38,-12,-9,1,5,23
1511760526468799,15,39,3,5,-6,-2,11,19
1511760526468799,-7,-1,-32,6,7,4,11,79
1511760526483821,28,49,18,-26,2,5,0,-25
1511760526483821,-99,-28,-1,3,-4,-8,-31,-17
1511760526484822,32,-20,-17,1,-7,-2,13,31
1511760526484822,-32,-32,6,16,5,4,-9,3
1511760526505836,-23,-21,-28,-19,-6,-6,-50,-90
1511760526505836,31,35,8,12,-2,-1,7,49
1511760526507838,-2,-15,-27,-30,6,6,12,-12
1511760526507838,-5,9,14,-3,-2,-4,-10,69
1511760526519844,0,13,8,21,7,2,7,20
1511760526519844,-2,-39,-22,-4,-8,-11,-22,-36
1511760526528841,-8,6,-10,0,-7,-6,1,3
1511760526528841,-17,-20,-5,-25,3,4,-16,-63
1511760526543863,5,-13,-7,6,-4,-8,1,41
1511760526543863,15,42,35,18,7,4,6,-4
1511760526544864,10,-15,9,16,2,-1,12,5
1511760526544864,-2,15,-6,-7,-3,0,-6,-6
1511760526565886,-24,-34,-2,-4,-7,-7,-11,-41
1511760526565886,-23,0,29,20,-3,-5,-4,-3
1511760526567868,-8,20,-2,9,6,4,-15,-28
1511760526567868,16,-74,-15,-11,-13,-11,16,88
1511760526588883,17,26,0,3,-1,6,4,-3
1511760526588883,27,1,-13,11,8,3,0,-32
1511760526589884,-22,8,26,-4,-3,-4,-16,-64
1511760526589884,9,20,-6,9,2,-3,-25,-47
1511760526603906,10,1,1,7,-5,3,30,-4
1511760526603906,-26,-22,-6,-43,-6,-4,-2,46
1511760526605906,17,48,-9,-11,3,-1,10,31
1511760526605906,-30,-4,20,22,-1,2,-17,-61
1511760526625910,37,10,9,-16,-9,-4,5,36
1511760526625910,-6,20,-29,29,0,5,42,71
1511760526627920,-33,-53,-19,-5,-1,-9,-32,-71
1511760526627920,43,45,12,-16,1,3,15,-28
1511760526648927,-48,-55,-32,23,-14,-7,2,35
1511760526648927,31,6,-3,-29,24,13,3,27
1511760526649926,-13,0,-7,23,-8,-8,-2,-24
1511760526649926,-11,-19,-27,-9,-10,-9,-13,11
1511760526663961,0,11,19,-6,4,0,3,-65
1511760526663961,-3,9,11,-26,3,1,-5,-4
1511760526664938,-9,8,12,-1,-4,2,8,40
1511760526664938,-17,5,-9,-4,-2,-2,2,-19
1511760526685951,-15,-14,14,5,3,-5,3,20
1511760526685951,3,0,-24,6,-9,-3,-17,-52
1511760526687953,1,25,17,-16,-9,-10,-11,-16
1511760526687953,-20,51,23,19,11,6,15,-9
1511760526708968,52,-40,-49,-19,0,0,-2,66
1511760526708968,-15,-50,-8,-4,-5,-4,-15,-102
1511760526709968,44,-14,-1,8,7,9,15,69
1511760526709968,2,-19,18,-3,-3,-6,3,76
1511760526723978,11,25,4,11,-3,-2,-12,30
1511760526723978,4,-3,5,-6,4,-1,-5,-19
1511760526724982,0,-17,14,15,0,1,15,67
1511760526724982,-19,-2,-6,-15,2,1,-5,-63
1511760526746008,-38,18,20,-6,-4,-1,-14,-15
1511760526746008,-1,-29,2,15,-6,-5,5,38
1511760526748023,-11,-15,-37,-9,8,8,-3,-29
1511760526748023,7,-2,3,-8,-5,-2,9,-17
1511760526769022,-44,-16,-1,19,4,2,1,-57
1511760526769022,19,49,8,-4,-7,0,10,30
1511760526770019,14,13,11,-11,-8,-5,-8,-5
1511760526770019,0,-31,6,4,-4,-2,-6,42
1511760526783020,28,0,-33,4,6,2,-1,-24
1511760526783020,5,5,22,16,2,3,15,71
1511760526790032,-21,-10,-2,3,-3,-5,-33,-91
1511760526790032,-5,-36,-16,18,-17,-12,-19,78
1511760526806049,-8,14,14,-38,16,6,6,6
1511760526806049,13,8,-20,8,-4,-3,-3,18
1511760526809050,11,16,4,-2,2,7,36,21
1511760526809050,18,16,11,19,0,-4,-13,-42
1511760526828052,2,4,7,-2,-5,-6,-2,1
1511760526828052,6,15,40,1,-4,-5,-17,-39
1511760526830053,-22,-47,-20,-29,-2,1,2,-12
1511760526830053,-2,-21,-12,4,-1,-4,-1,20
1511760526843074,-37,-3,-13,3,3,4,3,-39
1511760526843074,-5,-4,17,13,-6,-1,12,-65
1511760526850079,29,20,-23,-23,4,0,-12,-5
1511760526850079,7,19,20,1,8,7,44,104
1511760526866079,11,-9,-3,-1,-7,-3,-27,-20
1511760526866079,-3,-3,8,1,-6,-10,-26,-35
1511760526868080,-27,-17,-3,3,-3,-5,-21,-16
1511760526868080,18,7,9,1,8,9,20,29
1511760526888104,18,3,-69,-7,-11,-6,17,69
1511760526888104,-13,-5,-1,-7,8,1,-6,-45
1511760526890108,32,-9,12,14,-5,-5,-1,-27
1511760526890108,-6,7,-10,18,-11,-7,-16,-106
1511760526903105,16,-19,-4,-41,17,10,14,63
1511760526903105,-15,-8,1,2,-6,5,7,15
1511760526910113,-43,-30,-16,-10,-3,-15,-47,-41
1511760526910113,6,10,-19,-6,-2,2,-18,-41
1511760526926131,-22,-13,3,16,-10,0,49,62
1511760526926131,6,29,-15,-30,2,1,-12,-14
1511760526928132,-7,-27,24,0,-5,3,20,14
1511760526928132,11,29,6,-19,1,-3,-14,8
1511760526949148,15,-1,34,19,-5,-5,5,52
1511760526949148,-29,-9,-8,-19,-1,1,2,-26
1511760526950142,30,89,37,38,0,2,17,49
1511760526950142,-95,-52,-37,-27,6,0,-12,-7
1511760526963147,1,-9,22,8,-5,0,-4,-14
1511760526963147,8,-1,2,29,-3,4,44,115
1511760526970152,2,-5,-9,-29,9,0,-31,-27
1511760526970152,22,30,3,-1,3,0,-2,30
1511760526986163,-1,-28,3,10,-10,-10,-16,-2
1511760526986163,19,10,8,15,2,-4,-16,-1
1511760526988165,-7,-10,2,-13,-4,0,18,20
1511760526988165,16,9,-6,19,-1,-1,-1,-19
1511760527008188,17,23,8,-31,-5,5,24,75
1511760527008188,-23,-28,-14,5,-3,-10,-40,-79
1511760527010190,39,-29,8,6,-7,0,33,40
1511760527010190,-5,-6,-2,5,25,10,0,-5
1511760527023199,18,7,-10,-23,-11,-9,-35,-97
1511760527023199,10,35,1,-5,0,4,6,11
1511760527030205,5,-19,9,24,-1,-2,-5,36
1511760527030205,16,14,-19,-29,-8,1,18,56
1511760527046206,-11,14,43,28,6,-2,-23,-92
1511760527046206,-32,-19,-28,-21,-2,-2,5,-6
1511760527048215,10,15,-21,4,-5,-5,-12,-20
1511760527048215,10,21,-4,-13,-12,-9,-6,-15
1511760527068231,24,-17,-36,-7,2,0,-4,37
1511760527068231,-33,-36,-15,4,-7,-6,-5,-6
1511760527070237,-21,4,-19,-13,-2,-3,-1,-24
1511760527070237,28,11,20,3,-12,-10,-21,-4
1511760527082242,5,-4,-4,9,11,6,13,59
1511760527082242,28,-22,-36,-15,-2,-4,-3,36
1511760527091238,11,21,10,7,-4,-6,5,26
1511760527091238,1,-40,-1,-4,-7,-4,4,26
1511760527106260,-51,-17,20,32,-5,-6,-5,1
1511760527106260,38,23,15,2,11,13,18,-28
1511760527109250,-54,12,7,7,4,3,4,45
1511760527109250,38,-6,-19,-12,-5,-3,-10,-66
1511760527128264,14,48,20,10,-7,-6,4,7
1511760527128264,-31,-10,-4,-19,7,1,-3,71
1511760527130265,24,18,-10,-16,-4,3,1,-15
1511760527130265,-56,-32,10,-3,-2,1,2,29
1511760527142274,18,2,-2,25,0,1,1,-49
1511760527142274,-37,-10,-24,-30,-10,-7,-18,-99
1511760527151280,28,0,4,7,8,-3,-13,-4
1511760527151280,-31,-20,-13,8,3,2,8,29
1511760527166292,20,43,11,-19,-4,0,8,29
1511760527166292,30,2,29,13,-9,-4,-8,-19
1511760527167291,20,8,-6,18,0,-2,-7,-82
1511760527167291,28,21,1,-16,4,5,-2,29
1511760527188306,-41,-32,-18,2,0,-2,8,32
1511760527188306,9,-14,25,-10,1,5,18,48
1511760527190307,-6,-4,5,46,-9,1,6,76
1511760527190307,9,11,-30,-62,0,-7,-18,-74
1511760527203317,-5,22,20,7,8,3,-16,-68
1511760527203317,-11,-12,12,12,-1,-2,14,47
1511760527211322,-5,-12,-15,5,0,-2,-10,36
1511760527211322,-27,5,18,3,-2,4,-2,-41
1511760527226333,-32,-14,9,1,-3,-4,4,31
1511760527226333,26,36,3,-22,-3,1,12,0
1511760527227334,-15,-21,3,-4,5,-4,-18,-55
1511760527227334,-13,-25,13,31,-2,-1,9,16
1511760527249350,4,0,-2,-16,-1,-1,14,7
1511760527249350,4,-16,-24,28,-2,-4,-3,23
1511760527250350,-18,0,-2,-45,-12,0,0,-84
1511760527250350,10,10,6,19,6,-1,-1,30
1511760527262358,10,-6,1,10,-8,-5,-13,-22
1511760527262358,1,-6,-12,-13,1,-3,-2,20
1511760527271365,13,-24,-9,-8,1,5,18,14
1511760527271365,-6,2,-13,9,-3,-2,-10,-40
1511760527286387,14,17,10,-30,-6,-5,-13,-5
1511760527286387,-15,5,34,33,3,3,10,11
1511760527287392,25,-8,-14,-52,11,-6,-11,46
1511760527287392,-43,-12,15,13,1,2,-2,-41
1511760527308391,46,-6,-28,-2,1,-1,-30,-84
1511760527308391,-10,10,10,4,0,-4,17,100
1511760527310392,-7,3,4,9,4,12,16,-28
1511760527310392,-1,-23,-26,-4,-12,-13,-18,23
1511760527322401,-5,6,11,-10,19,7,9,12
1511760527322401,-5,22,4,-1,-10,-5,-9,-67
1511760527331425,-55,-17,-18,8,5,0,-4,38
1511760527331425,20,-5,10,12,-2,1,9,44
1511760527346419,-12,-14,19,-13,-1,1,-3,19
1511760527346419,17,44,-46,-17,3,2,-1,-4
1511760527348422,23,-49,34,-3,0,2,23,38
1511760527348422,-39,-9,3,7,-6,-7,-7,-48
1511760527368433,-37,-19,-25,-26,-1,-5,7,-4
1511760527368433,15,-18,31,11,1,3,2,-18
1511760527370434,18,35,-21,6,-4,-1,19,76
1511760527370434,18,5,-17,7,-4,-2,-23,-72
1511760527382445,6,9,-22,-10,-1,-2,2,12
1511760527382445,15,-11,-13,-3,-4,-8,-24,10
1511760527391465,-39,-27,20,-10,-15,-8,10,37
1511760527391465,-44,29,18,15,4,2,6,39
1511760527406460,-1,3,-7,16,-7,-7,0,28
1511760527406460,0,-13,-4,-15,-1,0,-23,-39
1511760527407461,-15,24,8,1,0,0,-15,6
1511760527407461,33,25,-15,-8,0,5,14,15
1511760527428485,13,-32,1,27,-13,-6,-1,28
1511760527428485,-23,-9,-6,-22,3,1,0,-15
1511760527430477,26,10,-4,9,-3,0,6,-21
1511760527430477,15,-5,7,-14,3,0,2,2
1511760527442486,-30,-2,9,0,-7,-3,-4,-36
1511760527442486,9,8,24,32,6,5,2,33
1511760527451493,-5,31,-15,-11,-2,-5,-19,-88
1511760527451493,34,-18,6,36,0,-8,-12,-1
1511760527466503,-10,-4,-28,-32,8,3,15,29
1511760527466503,-7,2,16,26,-4,-3,-8,-24
1511760527472507,1,12,10,-31,-6,0,6,15
1511760527472507,-6,-13,-23,-6,-3,-8,0,3
1511760527488518,9,3,26,7,-5,-1,-1,19
1511760527488518,-15,-58,-22,-7,2,2,7,-13
1511760527490530,9,18,12,17,-2,-4,-10,-14
1511760527490530,22,4,-9,-18,-3,4,10,100
1511760527502528,-20,14,12,30,-9,-1,-1,-54
1511760527502528,-8,-10,-24,-21,12,6,1,-44
1511760527511534,-29,-10,-6,6,1,-4,-5,26
1511760527511534,71,17,15,-1,5,6,0,0
1511760527526548,-16,18,2,0,-2,-3,-12,4
1511760527526548,-11,14,18,1,-7,-7,1,6
1511760527527546,-15,-46,-31,-14,-1,2,-2,34
1511760527527546,-7,11,-8,0,3,7,-2,-45
1511760527548562,31,13,-1,-3,-3,0,5,9
1511760527548562,-21,40,18,20,-13,-9,10,21
1511760527550562,10,-17,-35,-40,11,4,-10,-51
1511760527550562,10,-20,-2,-11,-14,-9,4,5
1511760527571576,1,-6,-11,-17,6,4,11,23
1511760527571576,-14,0,0,-5,-3,-4,-23,-44
1511760527572577,3,2,23,13,-7,-3,-2,29
1511760527572577,-7,-7,-9,0,6,9,15,-28
1511760527585586,-7,-1,4,-8,-5,-6,-23,-43
1511760527585586,-18,-7,-25,7,0,0,23,56
1511760527587588,40,25,18,2,2,-1,-13,-59
1511760527587588,-54,-38,-12,-25,-5,-7,-7,31
1511760527608604,5,-1,0,6,1,1,7,3
1511760527608604,26,21,17,2,-3,-2,-22,22
1511760527611605,-1,13,-29,6,-4,1,3,-65
1511760527611605,7,-53,-18,-9,12,2,-11,28
1511760527631623,-2,21,16,4,0,-3,-3,-20
1511760527631623,-18,-53,9,-9,-14,-6,5,-17
1511760527632622,-9,34,3,22,15,10,12,10
1511760527632622,9,19,-11,-25,-3,-5,-22,-50
1511760527645629,-4,-25,-6,6,-5,0,12,20
1511760527645629,29,14,-17,-1,7,1,3,-11
1511760527647630,-19,-47,-20,-35,2,-6,-8,127
1511760527647630,-14,12,18,9,-5,0,0,-78
1511760527668645,19,27,6,14,-2,-1,-3,29
1511760527668645,-21,-68,-52,-11,-7,-1,8,-40
1511760527669646,-19,10,7,-1,1,0,-4,13
1511760527669646,-1,11,5,0,-2,-3,-4,36
1511760527690661,-19,-18,6,-4,-8,-4,-1,-19
1511760527690661,5,15,6,-4,4,-8,-16,-5
1511760527692662,-16,-36,-17,-3,-14,-5,-11,-58
1511760527692662,-9,18,23,30,10,2,9,-34
1511760527705672,3,-11,-30,-1,0,-3,-12,4
1511760527705672,10,14,25,-3,7,7,9,72
1511760527711690,-20,9,1,10,-2,-3,-1,-22
1511760527711690,-1,21,9,1,-5,-3,-3,19
1511760527728700,-19,-21,11,-7,-5,-4,-14,-15
1511760527728700,27,14,-18,3,10,4,21,49
1511760527729700,4,31,30,4,4,4,4,-73
1511760527729700,-14,-5,-26,3,-10,-7,-10,27
1511760527750703,32,-7,13,-3,6,4,4,-46
1511760527750703,-18,11,-1,-8,-6,-2,-3,7
1511760527752704,-13,13,27,21,-5,-4,-12,3
1511760527752704,14,-11,-19,-19,-3,1,15,9
1511760527765717,-3,-13,-7,-4,5,-1,0,-2
1511760527765717,1,34,0,3,1,3,1,-8
1511760527771731,18,5,-2,5,-2,0,-2,40
1511760527771731,-16,-28,-9,6,0,-2,7,27
1511760527788740,38,-17,-4,-14,5,6,23,49
1511760527788740,9,13,-6,6,-8,-3,-14,-5
1511760527789740,-22,-30,-30,-12,2,1,8,31
1511760527789740,-3,23,16,-8,-5,-4,-12,53
1511760527811763,-11,15,-1,6,-2,-1,12,-15
1511760527811763,-6,-9,1,6,-3,-1,-1,-20
1511760527813749,28,-16,-26,3,2,1,9,13
1511760527813749,-26,30,23,22,-5,-2,-1,13
1511760527825756,-2,-8,-19,7,3,-1,-7,-31
1511760527825756,20,40,36,-16,7,5,-6,-23
1511760527832761,3,-51,-20,14,-3,-6,-7,56
1511760527832761,-16,5,20,-11,0,13,37,-45
1511760527848775,-5,2,4,-4,-4,-10,-24,-48
1511760527848775,14,-13,-24,0,-4,-8,-5,20
1511760527849775,57,41,37,6,-4,-4,3,28
1511760527849775,-19,-17,17,-9,0,-2,-12,-32
1511760527871794,-4,-15,-16,-8,-7,2,15,47
1511760527871794,4,-17,-19,8,5,3,8,-31
1511760527874791,-21,10,15,-8,-3,-6,-17,-71
1511760527874791,46,9,-10,-2,2,1,4,46
1511760527885798,-5,23,2,-7,-8,-4,-18,-81
1511760527885798,-9,-10,16,6,3,2,11,-19
1511760527891810,19,23,9,10,-10,-7,-17,48
1511760527891810,-12,-20,-19,-25,7,1,4,-10
1511760527908815,7,5,15,15,-6,-1,24,103
1511760527908815,-15,-19,-15,-27,-3,-1,-11,-21
1511760527909815,19,8,-18,9,-3,2,-3,-49
1511760527909815,18,15,16,-3,-5,-5,-3,15
1511760527931835,-32,18,-10,-2,4,2,4,34
1511760527931835,-3,-27,2,6,-15,-14,-21,-10
1511760527932835,-25,5,-22,-34,10,6,7,14
1511760527932835,9,-24,-13,17,-3,-6,-26,-72
1511760527944840,5,1,10,0,1,3,28,8
1511760527944840,-18,32,30,1,-4,-3,-13,17
1511760527951845,-1,-16,-11,-5,-12,-7,1,-40
1511760527951845,2,4,-10,5,18,9,15,17
1511760527968857,-17,-16,2,-18,-3,-3,-35,5
1511760527968857,9,-14,11,-6,-6,-3,10,-43
1511760527969872,-5,7,-1,16,1,-6,-9,-2
1511760527969872,-20,-9,2,-19,-3,3,0,6
1511760527990873,-5,-13,-41,6,-3,-8,-7,-18
1511760527990873,-2,10,3,-6,2,-2,0,16
1511760527992874,-1,21,14,-8,6,8,3,17
1511760527992874,-1,-8,-19,5,-6,-4,-4,18
1511760528005884,-9,10,8,0,1,-2,-9,3
1511760528005884,3,-6,-5,0,-1,0,-1,2
1511760528011900,4,-7,9,-1,0,2,10,6
1511760528011900,-36,11,7,3,-6,-3,-7,-15
1511760528028911,28,3,13,-1,3,3,8,30
1511760528028911,-23,-21,-10,10,-1,-3,-8,-56
1511760528029909,2,-10,-3,-10,1,3,3,5
1511760528029909,20,4,6,7,1,-4,-1,30
1511760528050915,-17,-4,6,1,-2,4,1,-4
1511760528050915,4,-6,-5,-4,-3,5,-2,26
1511760528052916,-19,-16,-10,-1,-1,-18,-2,-6
1511760528052916,0,2,7,-3,-1,-3,-4,-6
1511760528064938,7,1,6,3,-1,0,-3,-11
1511760528064938,16,29,10,4,3,-2,3,15
1511760528074942,-19,-18,-8,-1,-1,6,0,2
1511760528074942,10,2,-1,0,-4,-1,2,4
1511760528088942,-6,-17,4,13,-3,-7,-1,-15
1511760528088942,24,12,3,-13,2,2,2,35
1511760528090975,3,7,25,0,6,3,5,20
1511760528090975,-5,8,-7,-5,-6,-5,-6,-19
1511760528111958,3,5,-2,-1,0,1,8,16
1511760528111958,-12,-2,2,4,1,0,0,-6
1511760528113961,6,5,-5,2,0,3,6,40
1511760528113961,-6,-6,-8,-5,-5,-5,-12,-82
1511760528124967,0,3,3,-4,-1,-3,-4,8
1511760528124967,-3,-21,17,3,-2,-2,5,15
1511760528133987,-6,-12,-34,-5,1,2,-2,-10
1511760528133987,6,0,-9,-2,-2,-1,4,25
1511760528148999,-1,-1,0,-1,1,-2,-5,-25
1511760528148999,-13,-20,-3,-3,-7,-10,-3,10
1511760528149986,4,3,0,4,0,4,-2,-5
1511760528149986,4,4,-3,-3,0,1,1,2
1511760528172002,3,-2,-1,-3,-3,-5,-2,-7
1511760528172002,-7,-6,-15,-3,1,0,2,29
1511760528175003,-2,4,-5,0,-4,-5,-16,-51
1511760528175003,4,2,2,-3,1,-1,3,15
1511760528194017,4,-3,5,1,-2,0,0,-3
1511760528194017,-3,18,-1,0,0,2,3,0
1511760528200028,-7,-23,-7,0,-2,-3,-3,-2
1511760528200028,2,-2,4,-1,0,4,5,-3
1511760528208026,-3,-5,-5,1,-1,-6,-8,-1
1511760528208026,-1,-3,-9,-15,-3,-1,-1,-11
1511760528210032,3,-9,-4,10,5,1,1,-10
1511760528210032,2,3,-3,2,0,0,2,13
1511760528232066,0,-6,1,-3,-1,1,5,5
1511760528232066,14,10,-2,2,-2,-1,-3,-13
1511760528233044,-39,5,7,-2,-2,-3,-1,3
1511760528233044,21,3,-4,-3,-2,1,1,14
1511760528255060,-15,4,-3,-4,-3,-4,-4,-12
1511760528255060,-1,-3,1,2,2,-2,-5,9
1511760528257073,-1,-1,0,-3,-2,-2,1,8
1511760528257073,-14,-1,2,1,0,-3,-8,-23
1511760528268081,4,-5,2,-3,0,2,7,-5
1511760528268081,-1,-1,-4,0,0,0,0,-9
1511760528271083,2,-3,-2,-1,-1,2,2,19
1511760528271083,-8,-1,1,-2,-2,-5,-2,10
1511760528291084,-1,-5,-2,1,0,-1,-2,5
1511760528291084,-1,-1,-3,1,-1,1,7,-11
1511760528293086,7,0,-4,-1,-1,-1,-4,-3
1511760528293086,3,0,0,-3,-4,-1,-1,2
1511760528305105,-6,-6,-2,-1,-1,-3,-2,-5
1511760528305105,-6,-3,-3,-1,-2,-1,-1,5
1511760528314101,11,-1,2,-2,-1,-1,-5,-11
1511760528314101,-6,-1,0,-4,-1,-2,1,3
1511760528328123,2,-3,1,0,-2,-1,0,-7
1511760528328123,5,-1,-3,1,-2,-5,-3,9
1511760528330112,22,5,-3,-2,0,0,-1,0
1511760528330112,-2,-1,0,0,-1,0,1,0
1511760528351127,-7,-3,1,-3,-1,1,1,2
1511760528351127,-6,-7,-2,-2,0,-1,-1,-5
1511760528352128,15,3,-1,-2,-1,2,3,-2
1511760528352128,19,0,-2,0,-1,-5,-2,-1
1511760528365138,2,1,-1,-3,-1,-1,1,1
1511760528365138,-10,-6,0,-1,0,0,-1,-8
1511760528373155,-6,-4,-2,-2,-3,-2,-3,-5
1511760528373155,-15,0,-1,1,-2,0,0,2
1511760528388163,1,1,0,0,-1,-1,1,-1
1511760528388163,-1,0,1,3,1,0,-3,-8
1511760528390167,-8,-2,-1,-1,-1,0,1,-2
1511760528390167,-2,-2,-1,-2,-1,-1,-1,1
1511760528412170,-2,-2,0,-1,-2,-1,-3,-4
1511760528412170,-9,4,-1,0,0,-2,-4,-4
1511760528413171,0,-1,0,-1,-3,-2,0,0
1511760528413171,-9,5,-3,-3,-2,-3,-3,0
1511760528433185,-5,1,-1,-1,0,0,0,-3
1511760528433185,-5,-8,-2,-3,0,-1,-5,-3
1511760528435188,11,3,1,3,-1,1,0,3
1511760528435188,-9,-4,-1,-2,-2,-2,-2,-4
1511760528448197,-7,2,-1,-3,0,-1,-2,-1
1511760528448197,12,1,-2,-4,-2,1,1,-2
1511760528454200,-15,-4,-1,-2,-1,-3,-3,-5
1511760528454200,-5,-4,1,-1,-2,0,0,-1
1511760528472213,6,-1,2,1,0,-3,-1,-1
1511760528472213,-3,-2,1,0,-2,-1,-1,0
1511760528473213,1,-2,-4,-2,-1,-1,-3,-2
1511760528473213,9,0,-2,1,-1,2,1,1
1511760528493227,-5,-1,0,-1,-1,-1,-2,-1
1511760528493227,8,0,-2,-1,2,3,13,6
1511760528495229,-8,-2,-1,-1,-2,-4,-22,-4
1511760528495229,2,-4,-2,-2,-3,-1,2,5
1511760528508239,3,0,1,-1,0,-2,-1,-7
1511760528508239,-3,0,-3,-2,1,1,-1,0
1511760528510241,0,-1,-1,0,0,-2,7,6
1511760528510241,6,-1,0,2,-1,-2,2,-1
1511760528531254,-18,-4,-2,-2,0,-1,-2,2
1511760528531254,4,-2,-1,0,-2,-4,-2,-5
1511760528532264,0,3,-2,-1,0,-1,2,-5
1511760528532264,0,1,1,-2,-2,0,-6,1
1511760528553270,-2,-1,-1,1,0,-1,3,4
1511760528553270,25,3,-1,0,-2,-2,-7,-5
1511760528555284,-10,-2,-2,-2,-1,-1,0,1
1511760528555284,-5,-7,-2,-1,-2,-1,2,-2
1511760528568281,4,-2,-2,-1,-1,-2,-2,-2
1511760528568281,-4,-1,-1,-1,1,-2,-3,-1
1511760528570282,3,3,-3,-2,-1,-2,-1,4
1511760528570282,10,3,1,0,-4,-2,-2,-2
1511760528591296,1,-4,-2,0,-2,0,1,-5
1511760528591296,-9,1,-2,-2,-2,-2,-4,4
1511760528592297,-8,-1,-2,0,-1,1,-2,-4
1511760528592297,-9,-3,-2,-2,1,0,0,-3
1511760528613312,5,3,1,-5,-4,-2,-4,1
1511760528613312,-4,-1,-1,-1,1,0,2,0
1511760528616321,0,-1,-3,-2,-4,-3,-1,1
1511760528616321,0,-3,-2,0,-1,-1,0,-6
1511760528628323,4,0,1,0,-1,1,-2,1
1511760528628323,-11,-2,-1,-2,-1,0,0,0
1511760528634327,8,-2,-1,-2,-2,-2,-1,-3
1511760528634327,3,0,1,-1,-1,-2,-1,0
1511760528651339,0,-3,1,-1,-1,-2,0,-3
1511760528651339,-2,0,-1,0,-2,2,-2,-1
1511760528652342,0,-4,-3,-1,-2,0,0,-2
1511760528652342,-1,-2,-2,-3,-1,0,0,1
1511760528673354,-2,3,1,-2,2,-2,-2,2
1511760528673354,-1,-7,-1,1,-2,0,-1,-4
1511760528675355,2,0,-1,-3,-2,-2,-2,0
1511760528675355,-6,1,0,-1,0,0,-1,-1
1511760528688365,2,-1,-1,0,-2,0,2,-2
1511760528688365,-7,0,0,0,0,0,0,-3
1511760528694371,12,-1,-2,-1,1,1,1,0
1511760528694371,2,1,-1,-3,-2,-2,1,4
1511760528711386,-9,-4,0,0,-2,1,0,-6
1511760528711386,10,3,-2,0,-1,-5,-9,2
1511760528712382,-9,-5,-1,-2,0,0,3,-1
1511760528712382,1,-2,0,-2,-2,-5,-7,-2
1511760528733398,7,2,0,-1,-1,0,0,3
1511760528733398,-8,-2,-3,-2,-1,1,1,-1
1511760528735398,0,-3,-1,0,-1,-2,-3,-4
1511760528735398,0,1,-4,-1,-1,-1,2,1
1511760528748408,-3,0,0,0,-1,-1,2,-2
1511760528748408,0,-1,-4,-5,-1,-1,-2,-2
1511760528754412,0,3,-3,-1,-1,-1,-2,-2
1511760528754412,-3,-3,-1,0,1,1,-1,-4
1511760528771424,0,1,1,-1,-1,-2,-1,-1
1511760528771424,-5,-4,-1,0,-3,0,-2,-2
1511760528774426,1,0,0,1,-3,-1,-3,0
1511760528774426,-8,-1,-1,1,-2,1,0,0
1511760528793439,6,-2,-2,-2,-2,-1,-3,-1
1511760528793439,-2,-3,0,0,0,1,-1,-1
1511760528795441,-5,-3,-2,-2,-1,0,1,0
1511760528795441,0,-2,2,-2,-1,0,1,-4
1511760528807449,-1,-1,-3,-1,0,-3,-5,-1
1511760528807449,2,2,-1,0,0,-3,-2,-2
1511760528815458,5,-2,-4,-1,-2,-1,0,-1
1511760528815458,-6,-4,-2,-1,-1,-4,-2,-1
1511760528832470,0,-2,-1,0,0,1,0,1
1511760528832470,-2,-1,-1,-2,-1,1,2,-4
1511760528833472,0,0,-2,-2,-2,0,-2,0
1511760528833472,3,2,-1,0,-3,-2,2,0
1511760528853494,-5,-3,0,-2,1,-2,-2,-1
1511760528853494,1,-1,-2,0,1,-1,0,2
1511760528855495,-3,-1,-3,0,0,1,1,-1
1511760528855495,-1,-2,0,-2,-1,-2,-2,-2
1511760528867504,-1,-3,-1,-1,-1,-1,0,1
1511760528867504,5,-1,-1,-2,-1,-1,-2,-1
1511760528874507,-25,-3,-2,-2,-1,-3,-2,-5
1511760528874507,5,1,-2,1,-2,0,0,1
1511760528890518,-1,-3,-1,1,-3,-1,-1,-3
1511760528890518,0,0,-3,-2,0,0,-2,-3
1511760528892519,2,-1,-2,-1,-2,-1,-2,1
1511760528892519,2,0,0,-3,-2,-2,-1,-1
1511760528921530,-4,0,1,-1,-1,-2,0,-2
1511760528921530,-1,-3,-2,0,-2,0,-1,-1
1511760528922533,1,-1,-2,1,0,-1,-1,0
1511760528922533,-3,-1,0,0,0,-2,-2,-1
1511760528927547,3,0,0,-1,-1,-2,-2,-2
1511760528927547,-4,-2,-1,-1,0,0,-1,1
1511760528936553,1,0,-2,0,-1,-1,-2,-1
1511760528936553,-3,-1,0,-1,-1,-2,0,-5
1511760528950563,-3,1,-1,-1,0,0,2,-3
1511760528950563,-3,-1,-2,-1,-1,-1,-3,-1
1511760528952551,1,-3,-2,-2,0,0,0,-1
1511760528952551,-1,-2,-2,-1,-1,0,-1,-1
1511760528973579,-3,-2,-1,1,1,-3,-2,1
1511760528973579,-1,-2,0,-2,-2,0,-2,-1
1511760528975578,3,0,-2,-1,-1,-2,-2,0
1511760528975578,-4,-1,-1,0,-1,-1,1,-3
1511760528987586,-1,-2,-2,-2,-2,-1,1,-3
1511760528987586,1,-1,-2,1,-2,0,-1,2
1511760528996586,-1,-1,-2,-1,-1,-2,-3,-1
1511760528996586,-2,0,0,1,0,-1,1,0
1511760529010603,-2,-1,0,0,0,0,2,1
1511760529010603,0,0,-1,0,-2,0,-2,-3
1511760529012606,0,-1,-2,0,-1,1,0,-2
1511760529012606,-3,-1,0,0,-1,-1,-2,-2
1511760529033608,-1,0,-1,-4,-2,-2,-1,-1
1511760529033608,0,-1,-2,0,-2,-3,-1,-1
1511760529034622,-1,0,-1,-2,0,0,2,-2
1511760529034622,0,0,0,-2,-1,-1,-2,-1
1511760529047625,-2,-2,1,-1,-2,-1,1,-3
1511760529047625,-1,-2,-2,-1,1,-3,-2,0
1511760529055637,-1,0,-1,-2,-1,1,-1,0
1511760529055637,0,-1,-2,-2,-1,-3,-1,-1
1511760529070647,1,-1,0,0,-2,0,-2,0
1511760529070647,-2,-1,-1,-1,-1,-2,-1,1
1511760529072637,1,-1,7,3,-2,-2,-2,-2
1511760529072637,0,3,14,3,0,-1,2,1
1511760529093651,-6,-11,-67,-20,-5,-2,-3,-3
1511760529093651,0,-1,-1,0,0,-1,-1,1
1511760529094652,0,-2,-7,-3,-1,-2,-2,0
1511760529094652,-1,0,5,2,-2,0,-1,-2
1511760529106661,2,3,17,5,0,1,-1,0
1511760529106661,-2,-2,-4,-1,0,1,-3,-2
1511760529115686,-1,1,-3,0,-2,-2,-2,-1
1511760529115686,-1,0,8,2,-2,-2,0,0
1511760529131700,1,0,8,2,1,-1,0,0
1511760529131700,-4,-2,-3,-5,-2,0,-2,-2
1511760529132679,-3,-5,-13,-3,-3,-1,1,-2
1511760529132679,-2,-2,-4,-4,-2,-2,0,-2
1511760529153706,-2,0,8,2,-2,-1,-1,1
1511760529153706,-1,1,3,2,-1,0,-1,0
1511760529154706,1,2,1,0,1,-1,0,-3
1511760529154706,-2,-1,-7,-4,-3,-1,-2,-3
1511760529166706,2,3,2,1,2,-2,1,0
1511760529166706,1,4,37,7,3,1,-1,-1
1511760529176713,-6,-13,-65,-19,-8,-5,-4,-3
1511760529176713,-1,3,30,7,2,1,-1,0
1511760529190720,0,-1,-30,-5,-3,-2,-2,-1
1511760529190720,-2,-5,6,-2,-2,-2,-2,-1
1511760529192721,0,1,15,2,1,2,0,0
1511760529192721,-2,-4,-5,-4,-2,-2,-1,-2
1511760529213749,0,2,18,6,2,-3,-2,-1
1511760529213749,-1,0,-12,-2,-2,-1,-1,0
1511760529215741,0,-2,11,0,-1,-1,-1,1
1511760529215741,-2,-2,-12,-2,-1,-1,1,-1
1511760529227755,0,0,17,3,2,-1,1,-1
1511760529227755,0,-3,-18,-5,-1,-2,-1,0
1511760529235762,-2,-1,9,3,-2,-2,-3,-1
1511760529235762,0,4,3,2,0,0,0,-1
1511760529250773,1,1,-4,-3,-1,2,1,0
1511760529250773,-7,-14,-14,-11,-5,-3,-3,-5
1511760529252763,-1,4,9,2,0,0,0,0
1511760529252763,-4,-5,-15,-6,-3,-3,-1,-1
1511760529273780,-3,2,10,2,0,-1,-1,-2
1511760529273780,2,4,1,5,1,2,0,2
1511760529276790,0,1,15,3,0,1,-1,1
1511760529276790,-1,-5,-33,-10,-3,-1,-1,0
1511760529286797,-1,-2,15,1,-2,-1,-1,-2
1511760529286797,-1,0,-9,-3,0,-2,-1,-2
1511760529295806,-2,-2,1,0,-1,-1,-1,-3
1511760529295806,0,2,5,2,1,-2,1,-1
1511760529310817,-2,-2,-1,0,-1,0,-1,-1
1511760529310817,-2,-1,-7,-2,-1,-1,-2,0
1511760529312819,0,1,6,3,0,-1,1,-1
1511760529312819,-3,-4,-4,-3,-5,-3,-1,-2
1511760529333820,-3,-4,1,-3,-2,-1,-2,-4
1511760529333820,1,3,11,1,0,1,1,1
1511760529334836,7,20,19,6,3,0,1,4
1511760529334836,-12,-32,-53,-17,-5,-5,-5,-7
1511760529346830,-1,-4,-3,-1,-2,-1,0,-1
1511760529346830,-1,-5,-8,-1,0,-1,-3,-1
1511760529355846,-1,1,3,0,-2,-1,-1,-1
1511760529355846,2,8,17,3,1,0,0,0
1511760529370856,-1,-1,0,-1,-1,-1,-1,0
1511760529370856,-1,1,-4,0,0,0,-3,-1
1511760529372858,-3,-3,-7,-4,-1,-1,-2,-1
1511760529372858,0,5,12,1,1,0,0,0
1511760529393876,-1,-4,-5,-2,-2,-2,-1,-3
1511760529393876,1,4,1,1,1,-2,0,1
1511760529394865,-1,-8,-7,-4,-1,-3,-1,-1
1511760529394865,-2,1,5,1,-2,-1,2,-1
1511760529415892,0,0,3,-1,-1,-1,0,-1
1511760529415892,-1,-2,-6,-2,-1,-1,-1,0
1511760529417892,-3,-5,-7,-3,-1,-1,-3,-2
1511760529417892,1,2,6,1,-2,-2,-1,0
1511760529430906,-1,0,1,-1,0,1,1,1
1511760529430906,-2,-2,-4,-1,-2,-1,0,-2
1511760529432898,-2,-5,-7,-3,-2,-1,-2,-3
1511760529432898,1,6,7,1,0,0,1,-2
1511760529453905,-3,0,-1,-2,-1,-3,-2,-2
1511760529453905,-1,-2,-4,-1,-2,0,-1,-1
1511760529454906,-1,-2,-2,0,-2,-1,0,0
1511760529454906,-2,0,3,0,-1,-3,1,-1
1511760529475933,-1,0,-1,-1,-1,-2,-2,-1
1511760529475933,2,0,-2,-1,-1,-1,-3,-2
1511760529478923,-1,-2,-5,-1,-2,-2,-3,-1
1511760529478923,1,0,3,0,-1,0,0,-1
1511760529490942,-1,0,-2,-1,-2,-1,0,0
1511760529490942,-1,0,0,-1,-3,-1,-2,-1
1511760529492943,-1,-3,-1,-1,-1,0,0,0
1511760529492943,1,1,9,0,-1,1,-1,0
1511760529513948,-1,-3,-18,-2,0,-2,-1,-2
1511760529513948,-1,-3,-1,-1,1,-3,-1,0
1511760529515951,-1,-2,-1,-1,-2,-1,-1,-1
1511760529515951,0,0,3,1,-2,-1,0,-2
1511760529535974,-1,-2,4,1,-2,-2,-1,-2
1511760529535974,-1,-1,-3,0,-2,-1,-1,1
1511760529537974,-2,-4,-5,-2,-2,-1,-2,1
1511760529537974,-1,0,0,-1,-1,-1,-1,-1
1511760529550974,-1,0,2,0,-1,-1,0,0
1511760529550974,-1,-1,-6,-1,0,-2,-2,-1
1511760529552975,2,0,3,-1,-1,0,1,0
1511760529552975,-1,-1,-1,-1,-2,-2,0,-1
1511760529572989,0,0,-1,-1,-1,0,-2,0
1511760529572989,0,-2,-1,0,-3,-1,-2,0
1511760529574991,-2,0,-2,-2,-2,-1,0,-2
1511760529574991,-2,1,-1,1,0,1,-2,-2
1511760529596018,-1,-1,1,-2,0,-2,0,-1
1511760529596018,-2,-2,-1,-1,0,-2,1,-2
1511760529598021,-2,-1,-3,-2,-1,-2,-1,0
1511760529598021,-1,-3,-1,0,0,-2,0,0
1511760529610016,0,-1,3,-2,0,-2,-1,-1
1511760529610016,1,-1,0,-2,-1,1,-1,0
1511760529617023,-2,-1,-2,-2,-2,-1,-2,-3
1511760529617023,-1,0,0,-2,-1,-1,0,-2
1511760529633045,-2,0,1,-1,-1,-1,-1,-1
1511760529633045,1,-1,-3,-1,-1,1,-1,8
1511760529635033,1,-2,1,0,0,-1,-3,-16
1511760529635033,-4,-2,-3,-2,-2,-1,-3,4
1511760529655059,1,-1,1,-1,1,0,-2,-2
1511760529655059,-1,0,-3,-1,-2,-2,-1,-1
1511760529656048,0,-2,-1,-1,0,-1,1,7
1511760529656048,-3,0,0,0,0,0,1,1
1511760529670058,0,-1,-1,0,-2,-1,-2,-2
1511760529670058,-2,-1,-3,-1,1,-1,-3,-1
1511760529678064,-1,-2,-2,0,-1,-1,-1,-4
1511760529678064,0,-3,0,-1,-3,-2,0,-5
1511760529693086,-3,-1,-1,1,-3,-1,-1,1
1511760529693086,-2,0,-2,0,-1,-1,-3,-2
1511760529693086,-1,-1,-3,-3,-1,-1,-2,1
1511760529693086,0,0,0,-3,1,-2,0,-1
1511760529715119,0,0,1,-1,0,1,-2,3
1511760529715119,0,0,0,-1,-1,-1,-2,-5
1511760529716092,-1,-2,-3,-1,-3,-1,0,-1
1511760529716092,0,-4,-1,-1,-2,-2,-2,-1
1511760529730100,-1,-1,-1,-1,-2,-2,-1,-4
1511760529730100,-3,-1,0,-2,0,2,0,0
1511760529738106,0,0,0,-2,-1,0,-1,2
1511760529738106,-1,0,2,-1,-2,-2,-2,-2
1511760529753126,-1,0,0,-2,1,-2,0,-2
1511760529753126,0,-3,-3,-1,1,-2,-1,-1
1511760529753126,-1,-3,-1,0,-1,-2,-1,2
1511760529753126,-1,-2,-3,-1,-1,1,-1,-1
1511760529775133,-1,-1,1,0,-1,-1,-1,-1
1511760529775133,-1,-1,-1,0,-2,0,-2,-1
1511760529783142,-2,0,-1,-1,-1,1,-2,-3
1511760529783142,1,-1,1,1,-1,-1,0,-2
1511760529789143,-3,1,-2,-1,-2,1,0,0
1511760529789143,-1,-2,-2,0,-1,-1,-1,0
1511760529798153,-2,-2,-2,-3,-1,-1,-1,-1
1511760529798153,0,0,1,0,-1,1,-1,1
1511760529813172,-1,0,0,-2,0,-1,-2,-2
1511760529813172,-1,-3,-1,-2,-1,0,-2,-1
1511760529813172,0,0,-1,-1,0,-1,-2,0
1511760529813172,-2,-1,0,-1,0,-2,-2,-1
1511760529835175,0,-2,-1,-1,-1,-1,2,-3
1511760529835175,-2,-2,-2,-1,-1,-1,-1,-2
1511760529837176,0,-2,-2,-1,-1,-2,0,2
1511760529837176,0,0,0,-3,0,-1,0,-3
1511760529850200,0,0,-3,-1,-2,0,-3,0
1511760529850200,-1,0,-4,-2,-2,0,0,0
1511760529858203,0,-2,-2,-2,-2,-2,-1,-2
1511760529858203,0,0,1,0,-2,-4,0,-2
1511760529873201,-1,-2,1,2,0,-1,-1,0
1511760529873201,-2,-1,-3,-3,0,-1,-2,0
1511760529873201,-2,0,-1,-1,-1,-2,-2,-1
1511760529873201,-1,-1,-2,0,-2,0,1,-2
1511760529895229,0,0,-1,-1,-1,-1,-1,0
1511760529895229,0,-2,-1,0,0,-1,0,0
1511760529896231,-1,-1,0,-1,-2,-1,0,0
1511760529896231,-1,-1,-1,-1,-2,-1,-1,-3
1511760529909237,-2,0,0,0,-1,-3,-2,-1
1511760529909237,-2,-2,-1,-1,-1,-1,-2,-1
1511760529918247,1,-1,-1,-3,-2,-1,1,-2
1511760529918247,-2,-1,1,-1,-1,-3,-1,-2
1511760529933260,-2,-2,0,-1,0,0,-1,1
1511760529933260,-2,0,-2,-1,-2,-2,-1,0
1511760529933260,-3,-2,-2,0,0,-3,-1,-1
1511760529933260,-2,-2,-1,-3,-2,1,-2,-2
1511760529955269,0,-1,-2,-1,-2,0,-2,-1
1511760529955269,-2,-2,-2,-2,0,0,0,-1
1511760529956261,-2,-1,-3,-1,0,-2,-1,-1
1511760529956261,-1,-1,-1,0,0,-1,2,-1
1511760529970272,0,-4,0,0,0,-1,-2,-1
1511760529970272,1,-1,0,-1,-3,-1,-3,0
1511760529978280,-2,0,0,-1,-1,1,1,-2
1511760529978280,-2,-2,1,-1,-1,-2,-3,-1
1511760529992285,-2,-2,-2,-1,-2,-2,0,-2
1511760529992285,-2,-3,0,-1,0,0,-3,-2
1511760529993286,0,0,-1,0,-3,-1,-1,-2
1511760529993286,-1,0,-2,-1,0,-1,1,-2
1511760530015311,-2,-1,-2,-1,0,-1,1,-1
1511760530015311,0,0,-2,-2,-3,-1,0,0
1511760530016304,-1,0,0,0,0,1,-3,-1
1511760530016304,-2,-2,-1,-1,0,-1,0,-2
1511760530029312,0,-1,-1,0,2,0,-2,0
1511760530029312,1,-1,-2,-2,0,-2,0,-1
1511760530037317,-2,-2,-1,-2,-2,-1,1,0
1511760530037317,-2,-1,0,-1,-2,-2,-2,-1
1511760530052342,-2,1,-2,-1,0,-2,-1,-1
1511760530052342,-3,-1,-2,-1,-1,0,-4,-1
1511760530053330,-1,-1,-2,-1,-2,-2,-2,0
1511760530053330,0,-1,-1,-1,-1,-2,1,-1
1511760530075346,0,0,2,-2,-2,0,1,0
1511760530075346,0,-1,-3,0,0,-1,0,-1
1511760530076347,-1,-1,-3,-3,-3,-2,-3,0
1511760530076347,2,1,-1,-1,0,-3,-3,0
1511760530089366,-1,-2,0,0,0,0,-1,0
1511760530089366,-2,0,-1,-2,-1,0,0,-1
1511760530097360,-1,0,-2,0,-1,-2,1,-1
1511760530097360,0,-1,0,-1,-1,-1,-2,-1
1511760530112382,-1,-1,-2,0,-2,-2,-2,-2
1511760530112382,0,-2,-3,-2,-2,-2,-2,-1
1511760530113376,-1,-2,-1,0,-2,0,0,-2
1511760530113376,-1,-2,-1,0,-1,0,-2,0
1511760530135394,0,-3,-1,0,0,-2,0,-3
1511760530135394,-1,-1,0,-3,-1,-1,0,-1
1511760530136400,-2,-2,-1,-2,-1,-2,-2,-2
1511760530136400,-3,0,-1,0,-2,0,1,-1
1511760530149410,-2,-1,-2,-1,-2,0,-3,-1
1511760530149410,-2,-2,-2,2,0,-1,-1,1
1511760530157412,-1,-2,-1,-2,-1,-2,-2,-2
1511760530157412,-2,-1,1,-2,-2,-1,-1,-3
1511760530172413,1,-2,-1,-1,-2,-1,-1,-3
1511760530172413,0,0,-3,0,-2,0,-1,-1
1511760530173413,0,0,-1,-1,-1,-1,0,0
1511760530173413,-2,-2,-2,-1,0,0,0,-1
1511760530195431,0,-1,-2,-2,0,-1,-1,0
1511760530195431,-2,-1,-1,-1,1,-1,-1,0
1511760530196442,-2,0,0,-1,-1,-1,-4,-1
1511760530196442,-1,-1,-1,-1,-1,-3,1,-1
1511760530209454,-1,-1,-1,-2,-2,-1,1,1
1511760530209454,0,-1,-1,-2,0,-2,-3,-2
1511760530217448,-1,-1,0,0,-1,0,-1,-1
1511760530217448,0,-2,0,-2,-3,-2,-2,-2
1511760530233474,0,-1,-1,1,0,-1,0,-1
1511760530233474,-1,0,-3,-2,0,0,2,1
1511760530233474,0,-1,-2,-1,-1,1,-2,-1
1511760530233474,1,0,-1,-2,-1,-1,-1,-2
1511760530255481,-1,0,0,-1,-2,-2,-3,-1
1511760530255481,0,0,-3,-2,-2,-2,-1,0
1511760530256482,-1,-1,-2,0,0,-1,0,-1
1511760530256482,-3,1,-1,0,-2,-1,0,-2
1511760530269491,-1,-2,-1,-2,-1,0,-1,-1
1511760530269491,-2,-2,-2,0,-2,0,-2,-1
1511760530277502,0,-2,0,-2,-2,-1,-1,-2
1511760530277502,-1,-2,1,0,-1,-1,-1,0
1511760530292507,-1,1,0,1,0,-2,-2,0
1511760530292507,0,-1,-3,0,-1,-2,-1,-2
1511760530307518,-1,-1,-2,-2,0,-1,0,-2
1511760530307518,-1,-1,-1,-1,0,0,-2,-2
1511760530315535,-3,-2,-2,-2,-2,-2,-1,-3
1511760530315535,0,-2,-2,1,-2,-1,0,0
1511760530316527,-3,-2,1,0,-2,-3,1,-1
1511760530316527,-2,0,1,-1,-1,-1,-1,-1
1511760530338538,1,-2,-2,0,1,0,-1,1
1511760530338538,-2,-1,-1,-1,1,-1,-3,-4
1511760530339543,-2,0,-2,-2,-3,-2,-2,-2
1511760530339543,1,-1,0,-1,-2,-1,1,0
1511760530352540,0,-1,-1,-2,-1,-1,-1,0
1511760530352540,-2,-2,-2,-2,-1,-1,-2,1
1511760530353542,-1,0,0,-1,-1,0,0,2
1511760530353542,0,-2,2,0,-1,-1,-2,-2
1511760530375556,1,-1,-1,-2,1,-2,-2,-2
1511760530375556,1,-2,-1,-1,-2,-1,-1,-1
1511760530375556,0,-1,-2,-1,-1,-3,1,-1
1511760530375556,-1,0,0,-2,-2,-1,-2,-1
1511760530398574,-2,0,-1,-1,0,0,2,1
1511760530398574,-1,1,-2,-2,0,0,1,-1
1511760530399580,0,-1,-1,0,-1,-1,-1,-1
1511760530399580,-1,-1,-1,0,0,0,-1,-2
1511760530412582,0,0,-1,-1,0,0,-2,-1
1511760530412582,0,1,-1,-1,0,-1,-3,0
1511760530413583,-1,-1,0,0,0,-1,0,0
1511760530413583,-1,-1,0,-1,-2,-2,0,-2
1511760530435598,-3,-1,-1,-3,0,0,-1,-1
1511760530435598,-2,-2,-2,-1,-1,-2,-2,-2
1511760530435598,-1,-2,-1,-2,-2,-1,-2,-3
1511760530435598,0,-2,1,-1,1,-2,0,-1
1511760530458627,-2,-1,0,1,0,-1,0,-2
1511760530458627,-1,-1,0,-1,-3,0,0,-1
1511760530459627,1,-1,-1,-2,-3,-1,-2,-2
1511760530459627,-2,1,-1,-2,0,-1,-2,-2
1511760530472625,0,-1,0,0,-1,-3,-2,0
1511760530472625,-1,-3,-1,-1,-2,0,0,0
1511760530473625,0,-1,-1,-1,-2,-2,1,-2
1511760530473625,0,-1,-1,0,0,0,-1,0
1511760530495654,0,-2,-2,-1,-1,0,0,-2
1511760530495654,-2,-2,-2,0,-2,0,-2,0
1511760530495654,0,-1,0,-1,-1,0,0,-1
1511760530495654,0,-2,0,-1,-1,-1,0,-2
1511760530518657,-2,-2,-1,0,-2,-1,-2,-1
1511760530518657,-1,-2,-2,0,-1,0,-2,-1
1511760530519658,-1,0,-1,-2,-3,-2,-1,0
1511760530519658,-3,-1,0,-2,-1,0,1,-1
1511760530532670,0,-2,-2,0,0,-3,-1,-2
1511760530532670,0,-1,-1,0,0,0,-1,-1
1511760530533668,0,-1,-1,-1,-1,-1,-1,-2
1511760530533668,-2,-1,0,0,-1,-2,0,0
1511760530555684,-1,-1,-1,-2,-1,0,-1,1
1511760530555684,-2,-2,-2,-2,-2,-2,-2,0
1511760530555684,-1,0,-2,-1,-1,-1,0,1
1511760530555684,-1,0,-2,-2,0,-2,-2,1
1511760530578712,-2,-2,-1,0,1,-1,-2,0
1511760530578712,-1,0,-2,-1,-2,-3,0,-1
1511760530579714,-1,0,0,-1,-2,0,0,-1
1511760530579714,1,-2,0,0,-2,-2,-1,-3
1511760530592719,0,-1,0,0,-1,1,-3,-2
1511760530592719,-2,-2,-2,-2,0,-1,-1,-1
1511760530593722,-1,-2,-1,-2,0,-2,0,-3
1511760530593722,-1,-1,-2,-1,-1,-1,0,-1
1511760530615728,1,2,-2,-1,-3,-2,0,-1
1511760530615728,-1,-2,0,-3,-2,-1,-1,-1
1511760530616728,-2,-1,0,-1,1,-1,1,1
1511760530616728,-1,0,-1,0,-1,0,-2,-1
1511760530638742,-2,-2,-2,-2,0,-1,-1,-1
1511760530638742,-1,-2,-2,-1,0,-1,-1,-2
1511760530639750,-1,-2,-1,-1,-3,-2,-1,-1
1511760530639750,-2,-1,1,-3,-1,-2,-1,0
1511760530652753,-2,-2,-1,-2,-1,0,0,0
1511760530652753,0,-1,-2,0,-1,0,-2,0
1511760530653752,-1,1,0,-1,-2,0,-3,-3
1511760530653752,-1,-2,-2,-1,-3,-3,-2,-3
1511760530674780,-1,-2,-1,-2,-2,-1,-2,-1
1511760530674780,-2,-1,0,-3,-1,-2,0,0
1511760530675768,-2,-1,0,-2,-2,-1,0,0
1511760530675768,-3,-1,-1,-1,-3,-1,1,-1
1511760530698785,-2,-1,-4,-1,-1,2,0,1
1511760530698785,0,0,-2,-1,1,-1,-1,0
1511760530698785,-1,-2,-1,2,0,-1,-1,-1
1511760530698785,0,-1,0,-2,0,0,-3,-1
1511760530712794,0,-3,-2,0,-2,-2,-2,-1
1511760530712794,0,0,-3,0,-1,0,-3,-1
1511760530713795,-1,-1,-2,-2,0,-2,-1,0
1511760530713795,0,-1,-1,-1,-1,1,0,0
1511760530735821,-1,-2,-2,-1,-1,1,0,-1
1511760530735821,-1,0,-3,-2,0,0,-1,0
1511760530736846,0,0,0,-1,-2,-1,0,-2
1511760530736846,-1,-1,1,1,1,-1,1,-2
1511760530758839,-2,-1,-3,0,0,-1,-1,1
1511760530758839,-2,-2,0,0,-2,-1,-2,-1
1511760530758839,-2,-1,0,0,-1,-1,-2,0
1511760530758839,-1,1,-1,-2,-2,-2,-2,-2
1511760530772837,0,1,-1,0,-2,0,-1,-1
1511760530772837,1,-3,-3,-1,-2,-3,-2,-1
1511760530773837,-2,-1,0,-1,-1,-2,0,-1
1511760530773837,-1,0,0,0,-1,-1,-2,0
1511760530794865,-1,-2,-1,-1,0,-3,-2,0
1511760530794865,-1,-1,-1,-1,-2,0,0,-1
1511760530795859,-2,-1,0,-1,-1,-1,0,-1
1511760530795859,0,1,-2,0,0,-1,-2,-2
1511760530818870,1,-1,-1,-1,-1,0,-3,2
1511760530818870,0,-2,-1,1,-2,-1,0,0
1511760530818870,-2,-2,-1,-2,0,-2,0,-3
1511760530818870,-3,-2,-1,0,-2,-3,0,0
1511760530832879,0,2,-2,-1,-2,1,-2,0
1511760530832879,-2,-1,-1,-2,-1,-1,-3,-2
1511760530833887,-1,1,-2,0,-4,-2,1,-1
1511760530833887,-1,-1,-1,1,-2,0,0,-2
1511760530854907,-2,-1,0,-2,-1,0,-1,0
1511760530854907,0,-1,-1,-2,-2,-2,-2,0
1511760530856896,-1,0,1,0,-2,-1,-3,0
1511760530856896,-1,-3,-2,-2,0,-4,0,-3
1511760530878915,-2,-2,-2,-1,-1,-1,-1,-2
1511760530878915,0,-1,-2,-2,0,-1,-1,-1
1511760530878915,-1,-1,-2,-2,-2,0,-1,-1
1511760530878915,-1,-1,0,-2,-3,-1,-1,0
1511760530892934,-2,0,-1,0,-1,-3,1,-1
1511760530892934,-1,1,-1,-1,-1,-1,0,-1
1511760530893934,0,-1,0,-1,-2,-2,-2,-2
1511760530893934,-1,-1,0,-2,1,1,-1,0
1511760530915943,0,0,-1,-2,-1,0,1,2
1511760530915943,-1,-3,-2,-1,-1,1,-2,2
1511760530915943,-3,-2,-1,-2,-2,-3,-1,-1
1511760530915943,-1,-1,0,0,-1,-1,-1,-3
1511760530938954,-2,-2,-2,-1,0,-2,-2,-1
1511760530938954,-2,-1,-3,-2,-2,-2,-1,1
1511760530938954,2,0,0,-2,0,0,1,-1
1511760530938954,-2,-2,0,-3,0,1,-1,-1
1511760530951963,1,-1,-1,-1,0,-1,-2,2
1511760530951963,1,0,-1,-2,-1,-2,0,-1
1511760530959969,-2,-2,0,-1,-3,-1,0,0
1511760530959969,-3,-3,0,0,-2,-1,-1,-2
1511760530974992,0,-1,-1,-1,1,0,-2,-4
1511760530974992,-3,0,-2,0,0,-1,-1,-1
1511760530975992,-1,0,-2,-1,0,-3,-1,-2
1511760530975992,-1,0,-1,-1,-2,-2,-1,0
1511760530999014,-1,-1,-1,-2,-2,-2,-2,-2
1511760530999014,-1,0,-1,0,-1,0,0,-3
1511760530999014,0,-1,-1,0,0,-1,0,-1
1511760530999014,-2,0,0,-2,-2,0,-1,1
1511760531012006,-1,-3,-2,-1,-2,-2,-3,-2
1511760531012006,-1,-1,-2,-3,-2,-1,-1,-2
1511760531020011,-2,0,-1,-1,0,-1,0,-4
1511760531020011,0,-1,1,0,0,-1,-3,0
1511760531035022,-2,-1,-1,-1,0,-3,-1,0
1511760531035022,-1,-1,-1,0,-2,0,-1,1
1511760531036022,-1,-2,0,-1,-1,0,-3,-1
1511760531036022,-3,-2,0,0,-2,0,1,-3
1511760531058038,0,0,-2,0,-2,2,0,0
1511760531058038,-3,-1,-2,0,-1,-2,-1,-1
1511760531059046,0,-1,0,0,-1,1,0,-2
1511760531059046,0,0,1,0,0,-2,-1,0
1511760531072048,0,-1,-2,-1,-1,-1,-2,-2
1511760531072048,0,-1,-2,-1,-1,-3,0,-1
1511760531081054,-2,-2,0,-2,-1,-3,-2,-1
1511760531081054,1,-1,-1,0,-2,0,-1,0
1511760531095064,-1,-2,-2,-1,-1,-1,-1,-1
1511760531095064,0,-1,-1,-1,0,0,-2,0
1511760531096071,-2,-2,0,-2,-3,-1,0,1
1511760531096071,-1,0,1,-2,-1,-2,1,-1
1511760531119082,-3,-2,0,-1,0,0,-1,-2
1511760531119082,-2,-2,-2,-1,-1,-1,-1,-1
1511760531119082,-1,0,-1,0,0,-2,-1,-3
1511760531119082,-3,0,-2,-1,0,1,-1,-1
1511760531132106,0,-1,-2,0,-1,2,-2,0
1511760531132106,0,0,-1,-2,-2,-1,-2,-1
1511760531140098,-1,0,0,0,-1,-1,1,0
1511760531140098,-1,-1,-1,-2,0,-2,-2,0
1511760531155106,0,0,-2,0,-2,-2,-2,-1
1511760531155106,-1,-2,-1,-1,-1,-1,0,-2
1511760531156108,-1,0,0,0,-1,-1,0,-2
1511760531156108,-1,-2,0,-1,-1,-2,-1,-1
1511760531178132,0,-1,-1,0,1,1,-1,0
1511760531178132,-1,0,-4,0,-1,-2,-1,-2
1511760531179124,-1,-1,1,-3,-1,-1,-2,0
1511760531179124,-2,0,1,-2,0,-1,-2,-2
1511760531192145,-1,-1,-3,-3,-1,0,-1,-2
1511760531192145,0,-2,-2,1,-1,0,-1,0
1511760531200138,-1,0,1,-1,-3,0,-1,-1
1511760531200138,-1,-1,0,0,-1,-3,-2,-2
1511760531215178,-1,-3,-2,-2,-1,-2,-2,0
1511760531215178,0,0,1,-3,-1,-2,0,1
1511760531216151,0,0,-1,0,-3,-2,0,1
1511760531216151,0,0,0,1,-2,-2,0,0
1511760531246170,-1,1,1,-1,-2,0,1,-1
1511760531246170,-2,-2,-2,1,-1,0,-1,1
1511760531247171,0,-1,-1,-2,0,-3,-2,-3
1511760531247171,-2,-1,-1,-2,-1,1,0,0
1511760531252175,2,-2,-3,-1,-1,-3,-1,0
1511760531252175,-3,-1,-1,-4,-2,-2,-2,-1
1511760531260198,-1,-2,-1,-2,-1,-1,1,0
1511760531260198,-1,-2,0,1,0,0,0,-1
1511760531275201,-1,1,-1,1,-1,-2,-2,1
1511760531275201,-1,-2,-2,0,0,-2,-2,-1
1511760531276204,-1,0,-1,-1,0,-3,0,-1
1511760531276204,-1,-2,-1,-2,-3,1,-2,0
1511760531299210,-2,0,0,-1,0,0,-3,-2
1511760531299210,-1,-2,-3,-1,-1,-3,1,-3
1511760531299210,-2,0,0,-2,-1,1,-1,-1
1511760531299210,1,-1,-2,-2,0,-1,-1,-2
1511760531321224,-3,0,-2,0,-1,-1,-1,-1
1511760531321224,0,-2,0,-2,-3,-1,-3,1
1511760531321224,-3,-2,0,-1,-2,0,-1,-1
1511760531321224,0,-1,0,-2,0,-2,-2,-3
1511760531335246,0,-2,-2,-3,-2,0,-1,1
1511760531335246,0,-1,0,-2,-3,-2,-1,-1
1511760531336247,-1,-3,-1,-1,-2,0,-1,0
1511760531336247,0,-1,-1,0,1,-1,0,-1
1511760531358250,-2,-3,-2,0,-1,0,-1,0
1511760531358250,-1,-2,-2,-1,1,0,-2,-2
1511760531359251,0,-1,0,0,0,-2,-1,1
1511760531359251,-3,0,0,-3,0,-1,-1,-1
1511760531381266,0,-1,-3,-1,0,-1,0,-2
1511760531381266,-1,2,-2,0,0,-1,-2,-2
1511760531382272,-1,1,-1,-2,-3,-2,0,-2
1511760531382272,0,-1,-1,-1,0,-1,-1,-1
1511760531395276,-1,-1,-1,-1,-3,1,0,1
1511760531395276,-2,-2,-3,-1,-2,-1,0,-2
1511760531396277,0,0,0,-1,-1,-3,1,-1
1511760531396277,-1,-2,0,0,-2,0,-1,0
1511760531418293,-1,-3,-1,-2,0,0,-2,-3
1511760531418293,0,-1,-1,0,-1,-2,-2,1
1511760531419313,-4,-2,-1,-1,-2,-3,0,-2
1511760531419313,-1,0,-1,-2,-1,0,-1,0
1511760531441318,-2,-1,-1,-1,1,0,-2,-1
1511760531441318,-2,-2,-1,-1,-1,1,0,1
1511760531441318,0,-2,-1,0,-1,2,0,-2
1511760531441318,1,-1,0,-1,-1,-2,0,-2
1511760531455329,-1,-3,-3,-1,-1,0,-4,-2
1511760531455329,0,0,-1,-3,0,-2,-1,1
1511760531456328,0,0,1,-1,-1,-2,-1,-2
1511760531456328,-2,-2,-1,0,-1,-2,-1,0
1511760531478335,-1,0,-1,2,1,-1,-2,-1
1511760531478335,-1,-1,-3,-2,-1,-1,-1,-2
1511760531479335,0,0,0,0,-2,0,-1,0
1511760531479335,-2,-1,-1,0,1,-2,-2,-2
1511760531501351,-1,-2,-1,-2,-2,-3,-2,0
1511760531501351,-1,-2,-1,-3,-1,-1,-1,0
1511760531501351,-1,-1,1,-2,-1,-2,-2,-1
1511760531501351,0,-1,-2,-2,-3,-1,1,-2
1511760531515369,0,0,-3,-2,-1,-1,-2,0
1511760531515369,-1,-1,-2,-2,-1,-2,-1,0
1511760531516364,0,-1,0,-2,-2,-2,0,-1
1511760531516364,-1,-1,1,-2,0,-1,-1,0
1511760531538377,-1,0,-1,2,2,-1,-1,-2
1511760531538377,-1,2,-1,-1,-3,-1,-2,-2
1511760531539390,-2,-1,-1,0,0,1,0,-1
1511760531539390,-2,-1,0,0,-1,0,-1,0
1511760531560403,0,-3,-4,-2,-1,-2,-2,-1
1511760531560403,-2,-1,0,-1,-1,-2,-1,0
1511760531561394,-1,-1,0,-2,-1,-3,0,-2
1511760531561394,1,-2,-1,-1,-2,0,-1,-2
1511760531583421,-2,-3,-3,-2,-1,-2,-1,-1
1511760531583421,-2,-2,-1,1,-1,-1,-2,-1
1511760531584409,-3,0,0,0,-3,-2,0,-2
1511760531584409,0,-1,-1,-2,0,-4,-2,0
1511760531598422,-1,-1,-2,-3,0,1,-2,1
1511760531598422,-1,-2,-1,-2,0,0,0,-1
1511760531599422,-2,0,-2,-1,0,2,-2,1
1511760531599422,-2,0,-3,0,-1,1,-1,-2
1511760531620435,1,-3,-1,-2,-1,0,0,0
1511760531620435,0,-2,-2,-1,0,-1,-2,-1
1511760531621436,-1,-1,2,0,0,-3,-2,-3
1511760531621436,-2,0,0,0,-3,0,-1,-1
1511760531635446,-2,-1,-2,0,-3,-1,-1,0
1511760531635446,0,0,-2,-1,-2,0,1,-1
1511760531636446,1,-2,-2,-2,-2,-1,-2,0
1511760531636446,-1,0,-1,-2,0,-1,0,-1
1511760531658462,-1,0,-1,-2,-2,-2,0,0
1511760531658462,-1,0,-2,-1,0,-2,-1,-2
1511760531659463,-1,-1,0,1,-1,0,-1,-1
1511760531659463,-1,0,-1,-1,-2,-1,-1,-1
1511760531680477,-2,-1,-2,0,-1,0,-2,-2
1511760531680477,-1,-3,-2,-2,-2,-2,-1,-1
1511760531681478,-1,-1,0,-1,0,-1,-1,-3
1511760531681478,-1,0,0,-1,0,-1,0,0
1511760531695488,-1,-1,-2,-1,-1,-2,-1,0
1511760531695488,-1,-3,-3,-2,-3,0,0,1
1511760531695488,-1,-1,0,-1,-1,-1,-1,-2
1511760531695488,0,-1,0,-1,0,-1,0,-1
1511760531718506,-1,0,-2,-1,-1,-2,-2,-1
1511760531718506,-2,-1,-1,0,-1,0,-2,0
1511760531720508,-2,-1,-1,-2,0,-1,0,-1
1511760531720508,-2,0,0,0,-3,0,0,-1
1511760531740538,-1,0,-1,-4,-1,-1,0,0
1511760531740538,0,-3,-2,-1,-1,-2,0,-2
1511760531742522,0,-2,-1,0,0,-2,-1,0
1511760531742522,-1,-1,-1,0,-2,-2,-2,0
1511760531754543,0,0,-2,-1,-3,-2,-1,-1
1511760531754543,1,-1,-1,0,0,0,-2,-1
1511760531763551,-1,-2,0,1,-4,-1,-1,-2
1511760531763551,-1,-1,0,-1,-1,-2,-1,-1
1511760531778547,-1,-1,-3,0,-1,-1,-1,-1
1511760531778547,0,1,-2,-1,-1,-2,1,-2
1511760531779547,-1,0,-2,-1,0,-1,0,2
1511760531779547,0,0,-2,-2,-1,0,-1,-2
1511760531800564,-2,-2,-1,-1,-2,-1,-2,-1
1511760531800564,-2,-2,0,-3,-2,0,-2,-1
1511760531802564,-1,-2,-1,-2,-2,-1,0,0
1511760531802564,-1,-1,-2,-1,-1,0,-3,-2
1511760531814572,-2,0,-1,0,-2,-1,-1,-1
1511760531814572,-1,-1,-2,0,0,-1,-1,-1
1511760531823596,-2,-1,-1,-2,1,0,-1,-2
1511760531823596,-1,-2,-2,-1,-1,-1,0,-1
1511760531838589,-1,-1,-2,-1,0,0,0,-1
1511760531838589,-1,0,-1,-1,-2,-1,-1,-1
1511760531839592,-1,0,0,1,-1,-3,0,-2
1511760531839592,0,-1,-1,-1,-1,0,-1,-1
1511760531860622,-1,-1,-2,0,0,-1,-1,0
1511760531860622,0,-3,-1,-1,-3,0,-1,-3
1511760531863619,-1,0,0,0,-2,-1,-1,-1
1511760531863619,0,-1,-1,-1,1,-3,-1,0
1511760531874627,-1,-2,-1,-4,-1,1,0,0
1511760531874627,-2,-1,-2,-1,-1,-2,0,0
1511760531883626,-1,-1,0,-2,-1,-2,-2,-1
1511760531883626,-1,-1,-1,0,0,-2,-1,-1
1511760531898631,0,-1,-3,-2,-1,-1,-3,-1
1511760531898631,-1,1,0,-2,-1,-3,-1,0
1511760531900634,-1,-2,-2,-1,-1,-1,-1,0
1511760531900634,0,-1,-1,-1,1,0,0,0
1511760531920647,1,0,-1,0,1,1,-1,0
1511760531920647,-2,-1,-2,-2,-5,-2,0,-2
1511760531922648,0,0,-1,1,-1,-1,0,-3
1511760531922648,-1,-2,0,-1,-2,1,-2,0
1511760531935670,0,-2,-2,-2,-1,-2,0,-2
1511760531935670,0,0,-2,-2,-1,0,-1,0
1511760531943663,0,0,-1,-2,-1,0,-1,-2
1511760531943663,-1,0,-1,-1,-1,-2,-1,-3
1511760531958674,0,-1,-2,-3,-1,-2,0,1
1511760531958674,-1,-1,-2,0,0,-3,-1,0
1511760531960679,-2,0,0,-2,-1,-1,-2,-2
1511760531960679,1,-1,-1,0,0,0,-1,0
1511760531980690,-1,-2,-3,0,0,0,-2,1
1511760531980690,-2,-1,-2,-2,0,-1,-1,-1
1511760531983695,-1,-1,0,-2,-1,-2,-2,0
1511760531983695,-1,-1,-2,-1,-1,-1,-1,-2
1511760531994711,-2,0,-1,1,-1,1,-1,-1
1511760531994711,-1,-1,0,1,-1,-3,-2,-1
1511760532003706,-2,-2,-1,0,0,-3,0,-1
1511760532003706,-1,-1,-1,-1,0,-1,-1,-2
1511760532018729,0,-1,-2,-1,-1,-2,-1,0
1511760532018729,-2,-1,0,-1,0,-1,-1,0
1511760532019727,-1,0,0,1,-1,-1,0,-3
1511760532019727,-3,-3,0,-1,0,-1,-2,0
1511760532040736,-2,-1,-3,-1,-1,-2,0,-1
1511760532040736,-1,-1,0,-1,-2,0,-1,-1
1511760532042746,-1,0,0,0,-2,-1,0,-1
1511760532042746,-1,-1,-1,0,-1,-2,-1,-3
1511760532054754,-1,-3,-1,0,-1,0,-1,0
1511760532054754,0,-1,-1,-1,0,0,-2,-2
1511760532064749,-2,0,2,1,0,0,-1,-2
1511760532064749,-2,-2,-2,-1,0,1,-2,-1
1511760532078771,-1,-2,-2,0,-2,-2,-1,-1
1511760532078771,0,-1,-2,-2,-2,-1,1,-2
1511760532079759,-1,-1,-2,-1,-1,-1,0,0
1511760532079759,0,-1,0,-1,-2,-1,-2,-1
1511760532100787,-1,-1,-1,0,0,-1,-3,-1
1511760532100787,-1,-1,-2,-2,-2,0,-2,-1
1511760532102778,0,-1,1,-2,-1,-2,0,-1
1511760532102778,-1,-2,-1,-2,0,-1,-1,-1
1511760532114784,-1,2,-2,0,-1,-1,-1,-2
1511760532114784,-2,-2,-2,0,-2,-1,0,-1
1511760532123800,-1,0,1,-1,0,-1,0,-1
1511760532123800,-2,-1,0,0,1,1,-2,0
1511760532138811,-2,-2,-2,-1,-1,-1,-2,0
1511760532138811,-2,-1,0,-1,-1,-1,-1,0
1511760532139813,0,-3,-1,-1,-1,-1,-1,0
1511760532139813,-2,-1,0,-1,-1,-3,0,-1
1511760532160830,-2,-2,-1,-2,-1,-1,-1,-1
1511760532160830,-2,-2,0,-2,-2,-2,1,-1
1511760532163819,1,-2,-1,-2,-2,-2,-2,-2
1511760532163819,1,0,-2,0,1,-2,0,-2
1511760532174826,-1,0,-1,-1,-1,-1,-2,-2
1511760532174826,-1,-3,-1,-1,-1,-1,-1,-1
1511760532183842,-2,-2,-1,0,-3,-2,-1,-3
1511760532183842,0,-1,-2,0,0,-1,-2,0
1511760532198848,0,-1,0,-4,-2,-2,-2,-1
1511760532198848,-2,0,-1,-1,-1,0,-2,0
1511760532201845,0,-1,0,-1,1,-1,-2,0
1511760532201845,-4,-2,-2,-2,-1,-1,-3,1
1511760532220859,-2,-1,-2,-1,1,0,-1,1
1511760532220859,0,0,-2,-1,-2,-1,0,-1
1511760532222860,-2,0,-1,-3,-4,0,-2,-1
1511760532222860,0,-1,-1,-2,-3,-2,-2,-1
1511760532243878,-1,-3,-1,-1,1,0,-1,1
1511760532243878,0,-4,0,-2,-1,-2,0,-1
1511760532245876,-2,1,0,-2,0,0,0,1
1511760532245876,0,-2,-1,-1,-1,0,-2,-1
1511760532258899,-1,-2,-2,-2,-1,-1,1,-1
1511760532258899,0,-2,-1,-1,-1,-2,-1,-2
1511760532260888,-1,-2,0,-2,-1,-2,-2,-1
1511760532260888,0,0,0,-1,-2,-1,0,-2
1511760532280914,-2,-2,-2,-2,-1,-1,-1,-1
1511760532280914,-3,-2,-1,0,-2,-1,-1,-1
1511760532282908,0,0,-1,0,-2,-1,0,-2
1511760532282908,0,0,-1,-1,0,-2,0,-1
1511760532303917,0,-2,-2,0,-1,-1,-2,0
1511760532303917,-2,0,-1,-2,-1,-1,1,0
1511760532304918,-1,-2,1,0,-2,-3,-2,-1
1511760532304918,-2,-3,-2,0,-1,-2,-2,-1
1511760532317930,-2,-1,-3,-1,-1,-1,-1,-1
1511760532317930,-1,1,-1,0,0,-1,-1,-3
1511760532319929,-3,0,-2,-1,1,0,-1,-2
1511760532319929,-1,-1,0,-1,-1,0,-1,-2
1511760532340954,-1,-2,-3,-1,-2,0,-1,-1
1511760532340954,-2,-1,-1,-1,-1,-1,0,0
1511760532342956,0,0,0,-2,-2,0,1,0
1511760532342956,-2,-2,-1,1,0,-1,-2,-1
1511760532362959,0,0,-2,-1,-2,-1,0,0
1511760532362959,0,-1,0,-1,-3,-1,-2,-2
1511760532364961,-1,-1,0,-2,-1,-1,-2,-2
1511760532364961,-2,-1,-2,-2,-1,1,-1,0
1511760532377984,-1,-3,0,-2,-1,-1,-2,-2
1511760532377984,0,-1,-1,-2,0,-1,-2,-2
1511760532379972,-1,-1,-2,-1,-1,-2,-1,-1
1511760532379972,-1,-1,-1,-1,-1,-1,0,-1
1511760532401006,-2,-1,-2,1,-1,-3,-2,-1
1511760532401006,-4,-1,0,0,-1,0,-2,-2
1511760532406990,-2,-1,-2,-1,0,-1,0,0
1511760532406990,0,0,-2,-2,-4,1,-1,0
1511760532423011,0,-1,-1,-1,-2,1,-1,1
1511760532423011,-1,1,-1,-1,-1,-2,0,-1
1511760532425013,0,0,0,0,-1,-1,0,-2
1511760532425013,-2,-1,-1,1,0,-1,-1,-1
1511760532438022,-1,-2,-2,-3,-2,-2,0,-3
1511760532438022,-2,-1,-2,-2,-3,-1,0,-1
1511760532445017,-2,-1,1,2,-2,0,0,0
1511760532445017,0,-1,-1,-1,-1,-2,-1,-1
1511760532461041,-1,0,-1,1,1,-1,-3,-1
1511760532461041,-2,0,1,-1,1,-2,0,-3
1511760532462041,-2,-2,0,-1,-1,-1,-2,-2
