timestamp,emg1,emg2,emg3,emg4,emg5,emg6,emg7,emg8
1517188310785421,0,1,-2,-1,2,2,-2,-1
1517188310785421,-3,-2,-2,-1,-2,0,0,-1
1517188310786420,-2,-2,1,-1,-3,-3,-1,-3
1517188310786420,0,0,1,-2,-2,-1,0,0
1517188310800431,0,1,-2,-2,1,-2,1,-1
1517188310800431,-2,-1,-3,-2,0,-2,-1,0
1517188310801448,0,-2,-4,-2,1,-1,-2,-2
1517188310801448,-2,-2,2,0,-2,2,-2,-2
1517188310830472,-1,-1,-1,0,-4,-1,-2,0
1517188310830472,0,-2,1,-1,-1,0,2,1
1517188310831454,-2,-1,0,-1,2,1,-1,0
1517188310831454,-1,-1,-3,-1,1,0,1,-2
1517188310845480,-2,-1,0,-1,1,-1,1,0
1517188310845480,-1,-2,-3,0,-1,0,-2,0
1517188310846465,-1,-1,2,-3,-3,0,-4,-1
1517188310846465,0,0,-1,1,-3,-1,-2,0
1517188310867509,0,-2,-1,2,-1,-1,1,-2
1517188310867509,1,-2,-3,-4,-2,0,0,-2
1517188310869479,0,-1,-1,0,-2,1,-1,-3
1517188310869479,0,-1,0,0,-1,1,-1,1
1517188310882491,-2,-1,-1,1,0,-3,-1,-2
1517188310882491,-2,-1,-1,-2,-2,-1,0,-1
1517188310884494,0,0,0,-1,-3,-1,1,1
1517188310884494,-1,-2,1,-2,1,-1,3,-1
1517188310905505,-1,-1,0,-1,-3,0,-3,-2
1517188310905505,0,1,-1,-4,1,-3,0,-1
1517188310907519,-1,-1,-1,-2,0,-4,-1,1
1517188310907519,-1,-1,-1,-2,0,-4,1,-1
1517188310919517,0,-2,0,0,-3,1,-2,-1
1517188310919517,0,-2,0,-2,2,3,-3,-1
1517188310926519,0,-1,-1,0,-5,0,-2,-1
1517188310926519,0,1,-1,1,-3,0,-1,0
1517188310942531,-1,-1,-3,-3,-1,-3,0,0
1517188310942531,-3,1,-3,0,-2,1,0,-3
1517188310944532,-2,-1,-3,-2,0,-3,4,-3
1517188310944532,-1,-4,2,-1,0,-2,0,-2
1517188310965548,-1,-2,1,1,-1,2,0,1
1517188310965548,-3,1,-4,-1,3,-2,-1,1
1517188310967561,0,2,-3,-1,2,-2,0,-1
1517188310967561,-2,-2,0,1,-3,-1,0,0
1517188310979557,-1,-1,1,-3,-1,-2,-1,-1
1517188310979557,-3,0,-1,-2,-1,-2,0,-2
1517188310987563,-2,2,-1,-2,-3,-1,-5,0
1517188310987563,-1,1,-4,-1,-1,1,-2,-1
1517188311002596,2,-2,0,0,-1,-1,0,0
1517188311002596,-1,-3,-3,-1,-4,-3,1,-2
1517188311004585,-4,-3,-2,-1,1,-2,2,0
1517188311004585,0,-3,0,-2,-2,1,-1,-1
1517188311025590,-2,-3,-1,-2,-1,0,0,-2
1517188311025590,1,-4,0,0,-1,-4,0,0
1517188311026592,-1,-1,-1,-3,-1,0,-2,-1
1517188311026592,0,-5,0,-2,-2,-5,-1,0
1517188311039622,-2,1,-4,-1,0,-1,0,0
1517188311039622,0,0,-1,2,0,1,-1,-2
1517188311046604,1,-1,1,0,-2,1,-1,-1
1517188311046604,0,-2,-3,-1,-1,1,-3,-2
1517188311062625,-1,-4,-4,-1,-1,-1,-1,-1
1517188311062625,-3,0,0,-3,-1,0,-4,2
1517188311064618,-2,-1,-3,2,-1,-1,-2,-3
1517188311064618,-2,2,0,-2,-1,-1,0,-1
1517188311085641,-2,0,2,-1,-3,-2,-2,-2
1517188311085641,0,2,-3,1,-1,1,1,-2
1517188311086633,0,-1,0,0,-1,-1,-2,-2
1517188311086633,-1,2,0,-3,-2,-1,-1,1
1517188311099652,-3,1,-1,1,0,-4,0,0
1517188311099652,-1,-3,-1,-2,0,-3,0,-1
1517188311106647,-2,-4,0,-1,-1,-2,0,-1
1517188311106647,1,-2,-1,1,1,-2,-3,-2
1517188311122666,0,0,-2,-4,-4,-1,-1,-2
1517188311122666,-2,1,0,-3,0,-3,-2,0
1517188311124682,-1,3,-1,0,0,-2,-2,0
1517188311124682,0,1,1,-1,-3,3,1,1
1517188311144683,1,-1,-1,2,-2,0,-1,2
1517188311144683,0,-3,-2,1,-2,-2,-3,0
1517188311146676,0,-1,-3,-3,-1,-1,3,-1
1517188311146676,-2,-1,2,0,-1,-3,-1,-1
1517188311159685,-1,0,0,-4,0,1,-2,-1
1517188311159685,-5,0,-1,-1,-1,-1,0,1
1517188311166706,1,-1,-4,0,0,2,-3,1
1517188311166706,-1,-1,-4,1,-3,-3,1,-1
1517188311182715,-1,-4,2,2,0,0,0,-2
1517188311182715,0,-1,-2,-2,-3,0,-1,-2
1517188311184702,-1,-3,2,1,-3,1,-1,0
1517188311184702,-1,-2,-1,-3,0,-1,0,-2
1517188311204725,-3,-2,-3,-1,-2,-1,-3,-1
1517188311204725,1,0,1,-3,0,-2,-1,-2
1517188311206725,-2,-2,-3,1,-1,-2,-1,-1
1517188311206725,0,3,0,-2,-2,0,1,-1
1517188311219736,0,1,0,-1,-2,-1,0,-1
1517188311219736,-1,-1,-2,1,-1,3,2,-3
1517188311227785,1,-2,-1,-2,-1,-2,3,-1
1517188311227785,0,-4,0,-1,-1,2,-1,-1
1517188311242810,-1,-2,-1,0,-1,-2,-1,-2
1517188311242810,-1,0,-2,1,-2,-3,-1,0
1517188311243798,-1,1,0,-1,1,-1,-2,0
1517188311243798,0,2,-1,0,-3,0,-4,-2
1517188311264812,3,1,2,0,0,-2,-1,0
1517188311264812,-2,0,-2,-4,0,1,-1,-4
1517188311266814,0,0,1,0,0,0,0,-1
1517188311266814,-3,-2,1,0,1,-2,0,0
1517188311278833,-1,-2,0,0,0,-1,-1,0
1517188311278833,1,-2,-3,-4,-1,0,1,0
1517188311287840,0,-2,-2,-1,-2,0,-1,-1
1517188311287840,-1,0,1,-1,0,0,0,0
1517188311302850,-1,-3,-2,1,-1,-1,0,-3
1517188311302850,1,0,-1,-1,0,-1,-2,0
1517188311304852,-2,2,-1,-2,-2,1,1,-2
1517188311304852,-2,-2,0,0,0,-2,-2,1
1517188311324915,-2,-2,-1,0,-1,-2,0,-1
1517188311324915,-1,-1,-3,-2,-1,-1,0,-2
1517188311326858,-3,-2,-2,-3,0,-1,-2,2
1517188311326858,-1,1,-1,-1,-2,-1,-1,0
1517188311338927,-3,0,0,-1,0,-2,-1,-1
1517188311338927,-4,-1,-2,-1,0,-2,-2,0
1517188311347870,-1,-2,-2,-1,-3,-1,-2,-3
1517188311347870,-1,-3,0,2,-1,0,0,-3
1517188311362884,0,-1,0,1,-2,-2,-3,0
1517188311362884,0,-2,1,0,-2,-2,2,1
1517188311363886,0,0,-2,0,-1,-1,1,0
1517188311363886,-1,-1,-1,-1,-1,-1,0,0
1517188311384916,-2,0,-2,0,-3,1,1,1
1517188311384916,-3,0,-1,-1,-1,0,-2,-1
1517188311386916,0,0,-1,0,0,-1,-4,-2
1517188311386916,1,0,0,-3,-4,-2,-1,-1
1517188311398927,-2,-2,0,-1,-2,0,0,1
1517188311398927,-1,0,-2,-1,1,0,-1,0
1517188311407915,-2,-2,0,-2,0,1,-1,-4
1517188311407915,-1,-1,-2,1,-1,-2,0,-1
1517188311422976,1,-3,-2,-3,-2,1,1,-4
1517188311422976,0,-1,1,0,1,-2,-1,-2
1517188311423966,-1,0,-1,-2,-3,-1,-1,0
1517188311423966,-1,-3,-1,0,-2,0,-3,0
1517188311444954,-1,0,-2,-4,-1,-3,0,-1
1517188311444954,-2,-3,-4,-1,-1,-4,0,-1
1517188311446950,-1,-1,-2,-1,0,-2,-1,-2
1517188311446950,0,-1,0,-1,-5,0,-2,-1
1517188311458958,-1,-2,0,-5,1,-1,-3,-1
1517188311458958,-1,0,-3,2,1,0,-2,-2
1517188311467973,0,-2,-2,-1,1,-1,1,-2
1517188311467973,0,-2,1,0,0,-2,-2,0
1517188311482972,-1,2,0,-3,-3,-1,1,0
1517188311482972,-2,-3,-2,-2,-3,0,-1,-1
1517188311483972,0,-2,-1,0,-3,-2,0,-1
1517188311483972,0,-2,-1,-3,-3,-1,-1,-1
1517188311505001,-2,1,-4,0,0,-2,-5,-1
1517188311505001,0,-1,0,-2,0,-1,-1,-3
1517188311506997,-2,-1,-2,-1,0,0,1,-4
1517188311506997,2,0,-1,3,1,-3,1,-3
1517188311519012,0,-1,0,0,-2,-2,-1,-1
1517188311519012,-1,0,-3,-2,-4,0,0,-1
1517188311528070,-1,-1,-1,0,-3,0,-3,0
1517188311528070,-4,-2,-1,-2,-1,-3,-2,2
1517188311543084,0,0,-1,-1,-1,0,0,-1
1517188311543084,0,0,1,0,0,-2,-3,-2
1517188311545095,-1,-1,0,-3,-2,1,-1,1
1517188311545095,-3,-1,0,0,-1,-2,-1,-2
1517188311565111,-1,-1,-1,-1,0,-2,0,2
1517188311565111,0,-2,-1,-2,-2,-1,1,1
1517188311567113,-3,0,-2,0,-1,-3,0,-3
1517188311567113,3,0,-1,-1,0,0,0,-1
1517188311579107,-1,0,-2,2,-3,-1,-2,-1
1517188311579107,-1,-2,-3,-2,-1,-3,0,-1
1517188311588141,-2,-2,-2,-5,-1,1,-2,0
1517188311588141,0,-3,1,-2,-3,-1,-1,-1
1517188311602122,1,2,-3,0,0,0,-1,-2
1517188311602122,-3,0,0,-1,0,-3,0,-1
1517188311604124,0,-3,1,-1,-1,-3,-2,-1
1517188311604124,-1,0,1,0,1,1,-2,1
1517188311625198,0,-1,2,0,-1,-3,-1,-1
1517188311625198,-1,-1,0,-4,-2,1,-1,0
1517188311627158,-1,0,-1,2,-2,-3,0,-2
1517188311627158,-2,0,0,-1,1,-1,-2,0
1517188311646153,0,-1,-2,0,-3,-3,-1,0
1517188311646153,-1,2,-4,-1,1,-1,-1,-1
1517188311665169,-3,0,0,-1,0,-1,1,1
1517188311665169,-1,1,0,-2,-3,0,0,-2
1517188311665169,-2,0,0,-2,-2,-2,0,0
1517188311665169,0,-2,-5,0,0,0,0,-2
1517188311669171,-1,-1,-1,-1,1,-1,1,1
1517188311669171,0,-3,-1,-2,-1,-4,0,-1
1517188311700198,0,-4,-1,-3,-1,2,-1,-2
1517188311700198,-1,0,0,-3,-2,0,0,-1
1517188311701198,1,0,-3,-3,-1,-1,-2,1
1517188311701198,-2,-2,-1,-2,0,0,0,-2
1517188311707202,-1,0,-1,0,-2,0,1,-1
1517188311707202,-2,0,0,0,2,-3,-4,-1
1517188311708201,-2,-1,0,0,1,-1,-3,-2
1517188311708201,-2,0,1,0,-3,-4,1,-3
1517188311722208,0,-2,1,-1,1,0,-1,1
1517188311722208,0,-2,-4,-2,-3,-2,-1,0
1517188311723210,0,-1,0,-3,-1,-4,3,0
1517188311723210,-1,0,-2,1,1,0,-2,0
1517188311744222,-3,-3,1,-4,0,-3,0,-2
1517188311744222,0,0,-2,-3,-1,0,0,-2
1517188311745223,0,1,0,1,0,-1,-1,-2
1517188311745223,1,2,-1,1,-5,-1,0,-3
1517188311767239,0,2,-2,-1,-1,1,0,-1
1517188311767239,-4,0,-1,-1,-1,0,-1,-2
1517188311768242,0,-2,-2,-3,-2,-1,-2,-2
1517188311768242,-1,-3,-1,1,-2,0,-1,-2
1517188311782249,-2,1,1,0,-2,-2,-2,-1
1517188311782249,-1,-4,-2,0,0,-1,-2,-1
1517188311783251,-1,-1,-1,1,0,-2,-2,0
1517188311783251,0,-4,3,-3,-2,-2,-2,-1
1517188311804306,1,-4,-2,-2,0,-1,1,0
1517188311804306,0,1,-3,-2,-3,-1,-1,1
1517188311805276,-2,1,-1,-1,-1,2,-1,-2
1517188311805276,-1,3,-1,-2,0,-2,-1,-1
1517188311827285,-3,-1,-1,0,-2,-3,-4,-2
1517188311827285,-2,-2,-1,-2,1,-2,1,0
1517188311827285,-1,-2,0,-2,-2,1,0,1
1517188311827285,-2,-1,-1,-2,-3,1,-1,-3
1517188311842315,-1,1,0,-3,-1,-2,0,-2
1517188311842315,-1,-2,1,-1,-1,1,-1,-4
1517188311842315,-1,-3,-1,-4,0,-2,0,-1
1517188311842315,0,-2,0,-4,-2,2,-1,0
1517188311864308,-2,-3,-1,0,-2,-1,1,0
1517188311864308,-1,-3,0,2,-2,-1,-2,-2
1517188311865309,-1,-1,-1,2,0,-2,-2,-2
1517188311865309,-1,-1,-1,0,-1,-1,1,0
1517188311887341,0,0,-2,-4,0,0,-2,-2
1517188311887341,-3,-1,0,-1,-1,0,-2,-2
1517188311887341,2,1,0,-1,-1,1,-2,-1
1517188311887341,0,-1,2,3,-3,2,-2,1
1517188311902334,-2,-2,-2,-4,1,-3,0,2
1517188311902334,1,-2,-2,-1,-2,-2,0,-1
1517188311902334,0,0,-1,-2,0,0,-1,-1
1517188311902334,-1,0,-1,-3,0,-2,-2,-1
1517188311924409,-1,-2,-1,7,0,0,-2,-2
1517188311924409,-1,0,-5,-4,-1,1,-1,-1
1517188311925353,0,0,-1,-1,-3,-2,0,-2
1517188311925353,0,-2,1,0,0,-1,0,-1
1517188311947425,0,5,2,-3,-2,-1,-1,-1
1517188311947425,-3,-12,-3,4,-4,-2,1,0
1517188311947425,-5,-8,-1,3,-2,-2,-4,-1
1517188311947425,-3,4,-2,-5,2,0,-3,1
1517188311962455,-1,-5,-4,2,-1,-2,-3,-3
1517188311962455,0,4,0,-11,0,-1,-2,-2
1517188311962455,-1,-1,-1,2,-1,2,-2,0
1517188311962455,-1,-4,4,7,-2,-2,-1,0
1517188311984465,-1,-1,-2,-3,1,2,-1,0
1517188311984465,0,2,-2,0,0,-2,0,-1
1517188311985456,0,0,0,1,-1,-4,0,2
1517188311985456,-6,-3,2,3,-1,-2,-1,-3
1517188312007472,-5,-9,-2,0,2,2,-2,-3
1517188312007472,-2,7,-5,-10,-2,-1,-1,-1
1517188312007472,2,-2,-9,3,2,-1,-4,0
1517188312007472,-1,6,-4,-6,0,0,1,0
1517188312021479,0,-9,3,-1,-6,-1,0,1
1517188312021479,-1,1,1,4,0,-2,-4,-4
1517188312022478,-1,-2,-1,-8,-2,-1,2,-1
1517188312022478,1,-3,-5,-4,-2,-3,-2,1
1517188312044495,3,10,-4,-4,-2,-1,-1,-1
1517188312044495,1,-11,-2,0,1,-1,-1,-1
1517188312045495,0,8,5,3,0,1,3,0
1517188312045495,4,12,7,3,-3,0,0,-4
1517188312066511,6,15,-2,-5,5,-2,2,0
1517188312066511,-9,-15,0,-4,-5,-3,0,-1
1517188312067511,0,-1,-6,1,-1,-3,-3,-4
1517188312067511,2,3,0,-10,-2,-1,-1,2
1517188312081521,-5,-2,5,2,-1,-1,-2,0
1517188312081521,2,12,0,-1,2,-1,-1,-2
1517188312082522,-5,-33,4,-1,-2,0,0,-2
1517188312082522,-6,-7,-2,-3,-1,-3,1,-2
1517188312104537,1,-4,0,8,-4,-3,-2,-1
1517188312104537,2,-3,-5,-2,0,-1,-2,0
1517188312105538,-3,-3,1,-9,-1,-1,-2,1
1517188312105538,-2,-6,-2,-2,-1,0,1,-3
1517188312126557,3,-4,0,-5,1,-4,0,0
1517188312126557,-2,6,2,7,1,-1,0,-2
1517188312127553,-1,10,0,-1,1,-3,-3,-4
1517188312127553,1,-4,-2,-6,-3,0,-4,0
1517188312141564,-4,2,-4,-3,0,-2,-2,-4
1517188312141564,0,-3,-1,0,-2,0,1,2
1517188312142564,2,4,1,0,-2,-2,-1,0
1517188312142564,-1,-7,-3,3,-1,-4,-2,0
1517188312164592,-4,-8,-5,-2,-1,2,0,-2
1517188312164592,1,0,-2,2,1,-4,-3,-1
1517188312165581,-1,1,-2,-1,-2,1,-1,-1
1517188312165581,0,1,0,2,-2,-3,-1,-1
1517188312186607,-2,-1,-3,-3,-1,-1,0,0
1517188312186607,-3,1,-3,-2,2,-1,-2,-2
1517188312187595,1,4,-2,-2,-1,1,2,-1
1517188312187595,-3,-3,0,3,1,0,0,0
1517188312201618,-1,-3,0,-3,-2,0,-3,-2
1517188312201618,0,1,0,-6,2,-2,-1,1
1517188312202606,-2,-2,-2,-1,-2,-1,-2,0
1517188312202606,0,-1,-2,1,-1,-4,-1,-1
1517188312224622,-2,-5,-1,3,0,0,-1,-3
1517188312224622,-2,-2,-1,-1,-3,1,0,3
1517188312225622,1,2,0,-1,-1,-2,-2,-2
1517188312225622,0,-1,3,-1,0,1,-1,-1
1517188312246637,0,3,2,-2,-3,-3,-1,0
1517188312246637,-1,1,-2,2,-2,0,1,-3
1517188312247637,-2,2,1,-1,-1,0,-1,-2
1517188312247637,1,-4,-1,-1,0,-2,-2,-1
1517188312261648,1,-4,0,-4,-2,-2,-2,0
1517188312261648,0,-1,-3,1,-2,-2,-1,-2
1517188312277662,-3,0,1,-1,-1,0,-1,0
1517188312277662,0,-4,-1,3,-1,-1,0,-1
1517188312284702,0,-1,-1,0,0,0,-4,0
1517188312284702,-3,-3,-3,-4,1,2,1,-3
1517188312284702,-2,4,-1,-1,1,-1,-2,-2
1517188312284702,0,1,-2,0,2,1,-1,0
1517188312314703,-2,1,1,1,-2,-3,-2,1
1517188312314703,0,0,-2,-4,-2,-1,-2,-3
1517188312315701,2,0,-1,0,-1,1,1,1
1517188312315701,-2,0,-1,-2,-3,-2,-2,-1
1517188312321691,-2,-1,-2,0,-2,1,1,0
1517188312321691,-1,0,0,1,0,1,-1,-2
1517188312329697,1,-3,-1,-2,0,-1,-1,0
1517188312329697,1,-2,1,1,-5,-1,-1,-1
1517188312344707,1,-1,-2,-2,0,1,0,-2
1517188312344707,-1,-1,-3,-2,0,-2,-3,1
1517188312344707,0,1,2,-2,-2,-2,-3,-1
1517188312344707,0,2,-3,1,-1,1,-2,0
1517188312367723,-2,-1,-3,1,-1,-4,-1,0
1517188312367723,1,0,0,-1,1,-2,-2,1
1517188312367723,-2,-2,-1,0,0,-1,-1,-1
1517188312367723,-1,-3,0,-1,-1,0,-1,-1
1517188312381733,0,-3,1,-2,0,1,0,-1
1517188312381733,-3,-2,-3,1,0,0,1,1
1517188312389738,1,-1,-3,-2,-1,-1,-1,1
1517188312389738,0,-2,-2,-1,1,-1,0,0
1517188312412757,0,1,-1,-2,0,1,2,-2
1517188312412757,-1,0,-1,-1,-3,-1,-1,-2
1517188312413756,-1,-2,1,-1,-2,0,-3,0
1517188312413756,-2,-1,-1,0,-1,0,-1,-1
1517188312426766,-1,-3,-2,0,0,-3,-1,-1
1517188312426766,0,-3,0,-1,-3,-1,-3,-1
1517188312427766,-2,-2,-2,1,-1,0,1,-2
1517188312427766,2,0,-1,1,-1,0,1,0
1517188312440798,-2,0,0,-2,-1,0,-2,-2
1517188312440798,-2,0,-4,-3,0,-1,-2,-2
1517188312449791,0,-4,-2,0,0,-2,0,-1
1517188312449791,-2,-2,2,-1,-5,-2,0,1
1517188312464801,-1,0,-2,1,1,-2,-3,0
1517188312464801,1,0,1,-1,-1,3,-2,-3
1517188312464801,-3,-2,0,-3,-2,-3,0,-4
1517188312464801,0,-3,-1,0,0,-1,1,-2
1517188312486824,0,-2,-3,-3,-1,1,-1,-2
1517188312486824,-1,-4,-2,0,2,-2,0,0
1517188312487807,-3,0,2,-2,-3,-1,-3,-1
1517188312487807,-3,-2,-2,-1,-2,0,-1,-1
1517188312500819,-1,1,-3,-2,0,-1,0,-1
1517188312500819,-2,2,1,1,-1,-2,2,0
1517188312509830,3,-1,-2,-2,-3,0,0,1
1517188312509830,-1,-2,0,-1,1,-2,0,-2
1517188312524857,0,-1,-2,0,-1,0,-1,-1
1517188312524857,0,-1,1,0,-1,0,0,-1
1517188312524857,-1,-2,0,-2,-2,2,-2,0
1517188312524857,0,-1,2,-1,-2,0,-1,-1
1517188312546851,-3,-4,-1,0,-3,0,0,-2
1517188312546851,-2,2,-3,-3,-1,-3,0,-1
1517188312547851,-1,-1,-2,-1,-1,-3,0,0
1517188312547851,0,2,-1,-3,-2,-1,-1,0
1517188312560860,2,-1,1,-1,1,-3,-1,-3
1517188312560860,-1,-3,-1,-1,0,1,-3,-1
1517188312569869,-2,0,-1,-1,1,-2,1,-3
1517188312569869,-1,-3,-4,-3,-1,-1,0,0
1517188312584876,-2,0,0,0,-1,0,-2,1
1517188312584876,-1,-1,-1,-4,-2,-3,0,0
1517188312584876,-2,2,0,2,1,-2,1,-2
1517188312584876,1,-1,-1,-1,0,-1,-1,1
1517188312606894,0,0,-1,-4,-2,2,-1,-1
1517188312606894,1,-3,-2,-1,-2,-2,-2,-1
1517188312607894,-1,-1,0,-2,-1,0,0,0
1517188312607894,-2,-1,1,0,-2,-1,-1,-1
1517188312629924,-2,-2,0,-1,-2,0,-2,-3
1517188312629924,-2,-1,-5,-3,1,-2,0,-2
1517188312630912,0,0,-3,-4,0,-3,0,-1
1517188312630912,-2,-1,0,-1,-1,0,-1,1
1517188312644919,2,-1,0,0,-2,-1,-1,0
1517188312644919,-2,0,0,2,0,-2,1,-2
1517188312644919,2,-1,0,1,-3,0,0,-1
1517188312644919,-3,1,0,-1,-1,-1,-1,-3
1517188312666953,0,-2,-2,-3,-1,-1,0,1
1517188312666953,-1,-1,-2,-2,0,1,-1,0
1517188312667938,-2,-2,-1,-1,0,-1,-3,-1
1517188312667938,1,-1,0,0,-1,2,-1,-1
1517188312689969,0,2,-1,-2,-2,-2,-2,0
1517188312689969,1,-2,-2,0,0,-3,0,-3
1517188312690951,-1,-2,1,2,-1,1,0,1
1517188312690951,-2,-2,2,-1,-1,-3,-2,0
1517188312704990,-1,0,2,0,-1,0,-2,0
1517188312704990,-2,0,-1,-1,0,-1,-2,0
1517188312704990,-1,-1,0,-1,-2,0,-3,1
1517188312704990,0,1,0,-1,-1,-1,0,-3
1517188312727008,-2,-1,-3,0,2,-2,-3,-1
1517188312727008,-1,-1,1,0,-2,0,-2,-2
1517188312727978,-2,-2,0,0,-3,0,1,-1
1517188312727978,2,-2,1,-2,-3,0,0,-2
1517188312749994,-3,-2,-3,-2,-1,-1,0,-1
1517188312749994,-2,-2,-2,0,-2,-1,-1,-1
1517188312750995,-1,-1,-2,1,2,0,-1,1
1517188312750995,0,-3,0,0,-3,-2,1,1
1517188312764003,-2,0,1,3,0,-1,-1,1
1517188312764003,0,0,-2,-1,-1,0,0,-1
1517188312765004,1,0,-1,-3,-3,-2,-2,0
1517188312765004,-3,-1,0,1,-3,-3,0,-1
1517188312787042,0,-4,-3,-2,-3,2,-2,-3
1517188312787042,-1,-2,1,-3,0,0,-1,-1
1517188312788020,-1,-2,0,0,-2,1,-4,-2
1517188312788020,1,0,-3,-3,-3,2,-2,-1
1517188312810039,0,-1,0,0,1,-1,1,-1
1517188312810039,-1,0,0,-1,-2,4,-1,0
1517188312811037,0,-3,0,-1,-4,0,-1,-3
1517188312811037,-3,-3,-1,0,2,1,-1,-1
1517188312824072,-3,1,-1,-1,-4,-2,0,0
1517188312824072,-1,-1,-1,2,2,0,1,-2
1517188312825046,-1,0,0,-2,-1,0,-1,-1
1517188312825046,-1,-1,-3,0,1,-4,-2,-2
1517188312847063,0,-2,-1,-3,-3,-3,-1,-1
1517188312847063,-1,0,0,-1,-1,0,-2,-2
1517188312848064,0,2,0,-3,-1,0,-1,1
1517188312848064,-2,-2,-1,2,0,-1,-4,1
1517188312870078,0,-2,-2,0,0,-3,0,0
1517188312870078,1,-1,-5,-2,-2,-3,-1,-2
1517188312871078,-2,-2,-3,-1,-3,-2,0,0
1517188312871078,-1,1,-1,-2,-2,-1,-2,-1
1517188312884103,-4,0,-1,-2,-1,-3,-3,0
1517188312884103,-2,-1,0,-2,0,0,3,-3
1517188312885088,-1,0,0,1,-1,-4,-1,-2
1517188312885088,0,-1,1,-2,2,1,1,0
1517188312907127,-1,0,-1,1,-3,1,-2,-4
1517188312907127,1,0,-2,-2,-4,-2,-1,0
1517188312908104,-1,-1,0,-3,1,0,-2,1
1517188312908104,0,-3,1,1,-1,-2,0,-3
1517188312930121,-3,-3,-3,-1,1,2,-1,-1
1517188312930121,1,-3,-1,-1,-1,-2,-2,1
1517188312931122,-1,-1,-1,-2,-1,1,0,-1
1517188312931122,0,-2,1,0,-3,-2,1,1
1517188312944132,-3,-2,-2,-3,-2,-1,-2,-3
1517188312944132,-1,-1,-2,-2,-4,-4,-1,-1
1517188312945134,-2,0,-3,-1,0,0,-1,0
1517188312945134,0,0,-1,0,-1,-1,0,-1
1517188312967148,-1,1,-2,-1,-2,1,-1,0
1517188312967148,-1,0,-1,0,-1,1,-1,1
1517188312968149,1,0,-4,-1,0,0,-1,-1
1517188312968149,-2,-2,-2,-2,1,2,-1,0
1517188312990164,-1,-2,1,-1,-1,-3,0,-1
1517188312990164,-2,-1,1,-2,-2,-2,-2,-1
1517188312992164,-1,0,1,0,-2,0,-1,-5
1517188312992164,-2,-2,2,1,-3,4,-3,0
1517188313004174,1,0,-2,-2,-1,-2,-1,0
1517188313004174,-2,0,-4,-3,1,-3,-1,0
1517188313012179,0,-4,-1,0,-3,0,1,1
1517188313012179,0,-2,-2,-3,-3,-3,-2,0
1517188313035213,-1,-2,-3,-1,3,1,0,-1
1517188313035213,-1,1,-1,0,-1,1,0,-4
1517188313036207,-2,2,1,-1,-1,-2,-1,0
1517188313036207,0,2,0,0,-1,-1,0,-2
1517188313050205,0,-2,-2,0,0,-5,0,0
1517188313050205,-2,-3,-2,-2,1,2,0,0
1517188313051206,-2,-3,-1,2,-2,-3,-1,-2
1517188313051206,0,0,-1,-1,-2,-1,0,0
1517188313064217,0,0,-1,1,-3,0,0,-1
1517188313064217,-1,-1,-1,-3,-2,-1,-1,-2
1517188313065216,0,-3,1,0,-2,-1,0,-2
1517188313065216,-1,1,-1,2,-2,-3,-1,0
1517188313087242,-1,1,-2,-4,2,-3,-2,-1
1517188313087242,-1,1,-3,-2,-2,-2,-2,1
1517188313088232,1,0,2,0,1,-2,-2,0
1517188313088232,-1,1,-2,0,0,-4,-2,-3
1517188313111252,0,-2,1,0,-1,1,0,-1
1517188313111252,-1,-1,-1,0,-1,0,-2,-1
1517188313111252,0,-1,1,0,0,-1,-2,-1
1517188313111252,-2,-3,0,-3,-1,2,-1,0
1517188313124262,-2,0,0,-2,-2,1,-1,0
1517188313124262,-1,0,-2,1,0,-2,-2,0
1517188313125262,1,-2,-2,-1,-1,-1,2,-2
1517188313125262,2,-3,0,-1,-3,-2,-1,-2
1517188313147275,-2,-2,-2,-3,1,-4,-2,-2
1517188313147275,0,-1,-2,-1,0,1,-1,0
1517188313148276,-1,-2,2,2,-2,3,-1,1
1517188313148276,-1,-3,-1,-3,0,-3,0,0
1517188313170320,-1,-1,-2,-1,0,0,0,0
1517188313170320,-1,0,1,-2,1,-2,1,-3
1517188313171292,-1,-1,-3,-1,-1,2,2,-1
1517188313171292,-1,1,-2,0,-3,-1,1,-1
1517188313184313,0,-1,-3,-2,-3,0,-1,-2
1517188313184313,-3,-2,0,-1,0,-1,-1,-2
1517188313192307,-1,-2,-2,-1,-4,-1,0,-1
1517188313192307,-1,-2,1,0,1,3,0,-2
1517188313207317,0,-2,-5,0,1,-5,0,-2
1517188313207317,1,0,0,1,-4,-1,-1,0
1517188313208318,0,1,0,-3,-2,-2,-3,-1
1517188313208318,-2,1,0,-4,0,-3,-1,-2
1517188313230348,-2,-1,-1,-1,0,2,-4,2
1517188313230348,0,-2,-1,0,0,-1,2,-1
1517188313231348,-2,-1,0,0,-1,-1,-1,-3
1517188313231348,0,-1,-3,1,-1,-3,3,0
1517188313243406,0,0,-2,-1,-1,0,-3,-1
1517188313243406,1,-1,-3,-3,-1,1,1,0
1517188313252421,-2,1,1,-3,1,-3,0,-2
1517188313252421,-1,-1,-2,-2,1,-1,0,0
1517188313267436,1,-1,-1,-1,-1,-2,3,-1
1517188313267436,-2,-2,-1,0,-2,1,-3,-1
1517188313268422,0,2,-2,-2,-1,-2,-1,0
1517188313268422,-1,-2,-2,-1,-1,-1,-2,-1
1517188313290453,-2,3,0,-1,0,0,0,-3
1517188313290453,0,-3,0,0,-3,0,-1,1
1517188313291453,1,-3,-1,1,0,0,-3,0
1517188313291453,-1,-3,0,2,-2,3,-4,-2
1517188313303448,0,-3,0,-2,-2,0,0,0
1517188313303448,-3,2,-1,-2,1,-2,0,-2
1517188313311453,0,-1,-2,0,-1,-1,0,0
1517188313311453,-1,-2,0,-2,-1,0,-1,-1
1517188313327464,1,-4,-2,2,-4,-3,0,-1
1517188313327464,0,0,-2,-3,1,-2,-2,-2
1517188313328464,-1,-3,1,-3,-2,0,0,0
1517188313328464,-2,-2,2,-1,-2,-2,-1,0
1517188313350494,-1,1,-2,0,1,-1,-1,-2
1517188313350494,-4,-1,0,0,0,1,-1,-1
1517188313350494,-1,-1,2,0,-1,-4,-4,-1
1517188313350494,0,1,0,0,-1,2,-1,-3
1517188313363504,-3,0,1,-3,-2,-2,-1,1
1517188313363504,0,0,-3,0,-3,-1,-1,-1
1517188313371509,0,-1,-1,-2,1,-2,-1,0
1517188313371509,0,-1,0,0,-4,0,-1,3
1517188313387531,0,0,-2,0,1,0,-3,-2
1517188313387531,0,-1,-1,-3,-2,2,-1,-2
1517188313388508,0,0,2,0,-2,2,-1,-1
1517188313388508,-1,-2,-1,-1,0,-1,2,-2
1517188313410524,-3,-2,-3,-2,0,-1,0,0
1517188313410524,0,0,0,-1,1,1,-2,-2
1517188313410524,0,0,-3,0,-3,-1,0,-1
1517188313410524,-1,-2,-2,-1,0,-3,-2,-1
1517188313423566,-2,-1,-2,-2,3,-3,-1,-3
1517188313423566,-1,-3,-3,-1,1,-4,-1,-2
1517188313431553,0,0,0,-2,0,-1,0,-2
1517188313431553,-1,0,-1,-1,-2,0,-1,0
1517188313447549,-2,-1,-2,0,-2,-2,-2,0
1517188313447549,3,-2,-3,0,-2,-2,0,3
1517188313448550,1,0,-1,2,1,0,-3,-1
1517188313448550,-1,-3,-2,0,1,-1,-2,-1
1517188313470565,-2,-1,2,-2,-2,1,0,0
1517188313470565,0,-1,1,-2,-3,-2,0,-1
1517188313470565,-4,-1,-1,0,-3,-1,-1,0
1517188313470565,2,0,0,-3,1,-1,-2,-3
1517188313483604,0,-2,-1,-1,-1,1,-3,0
1517188313483604,-2,-1,2,-1,-1,-3,0,0
1517188313492610,-3,-1,0,-2,-2,1,0,1
1517188313492610,-1,0,0,-3,-1,-2,-3,2
1517188313507679,1,-1,-4,-3,0,-1,1,-2
1517188313507679,-2,0,-1,-1,1,-1,-2,-1
1517188313508635,2,0,1,-3,0,2,-1,-1
1517188313508635,-1,-2,1,-2,-2,-3,0,-1
1517188313529646,1,-2,-2,-2,-3,-3,-2,-4
1517188313529646,-1,-2,-2,-2,-1,1,-4,-2
1517188313530637,-4,-2,0,-2,1,0,0,-1
1517188313530637,0,-1,-1,-3,-2,0,2,2
1517188313552658,-1,3,-1,-3,-1,-1,-1,-2
1517188313552658,-3,-1,-1,2,1,0,-1,-1
1517188313553661,0,-3,0,-1,-2,0,-1,1
1517188313553661,-1,0,1,3,1,0,-2,-2
1517188313567670,0,1,0,-1,0,0,1,-2
1517188313567670,-1,2,1,-1,-3,0,-1,-1
1517188313568670,-2,-2,0,-1,-3,-3,-1,0
1517188313568670,-1,-2,-1,-1,-1,1,-3,-1
1517188313589717,-2,-5,-2,-1,-1,2,-1,-2
1517188313589717,-3,-1,-2,-1,-1,-3,-1,-1
1517188313590694,0,-2,-1,-1,-2,-1,0,-1
1517188313590694,-1,0,0,-4,-1,-2,0,0
1517188313612697,0,-3,-2,-1,-2,-4,-2,-1
1517188313612697,1,0,-3,-1,-1,-1,-1,-1
1517188313614698,0,-4,2,1,0,-3,-1,-3
1517188313614698,0,0,-3,0,-1,-1,0,-1
1517188313626708,-1,0,-1,1,-5,1,-2,2
1517188313626708,0,0,-1,-4,1,0,-1,-1
1517188313635715,-1,1,-1,-1,-2,0,-1,-1
1517188313635715,1,-2,2,-2,-1,-1,-3,0
1517188313649731,-1,-1,-2,-4,2,0,0,0
1517188313649731,1,-1,-2,1,-4,-2,-2,-2
1517188313651724,-1,-1,1,2,0,-2,-2,0
1517188313651724,0,-1,0,1,-2,1,0,-2
1517188313672797,1,0,-4,-4,0,-3,0,0
1517188313672797,-2,-2,-1,0,-1,0,-1,-3
1517188313673755,-1,-3,-3,-2,-3,0,-1,-2
1517188313673755,-2,0,-1,-2,-4,0,-1,-5
1517188313686748,-1,-2,0,2,-1,0,-1,-1
1517188313686748,-1,-2,1,1,-3,-1,-1,-1
1517188313694753,0,1,1,-1,-3,-1,1,0
1517188313694753,0,1,1,-2,0,-1,-1,3
1517188313710764,-1,0,-3,0,0,-2,-3,-1
1517188313710764,-2,-2,-3,-2,2,0,-2,-2
1517188313712780,0,-3,0,-2,-1,0,-1,-2
1517188313712780,-1,-2,0,1,-1,-1,0,3
1517188313739807,0,1,0,1,-1,-1,-1,-1
1517188313739807,-1,-1,-2,1,-1,2,-2,-1
1517188313741792,-2,-2,-2,-3,0,-2,-1,-4
1517188313741792,-4,-4,-2,-3,0,1,-2,0
1517188313746813,-1,0,-3,-4,-4,-1,1,-2
1517188313746813,1,0,-2,-1,-1,-2,-1,0
1517188313753818,-1,-2,0,0,0,-3,0,0
1517188313753818,-1,-2,-1,-1,-2,-2,-3,-1
1517188313769810,-2,0,-1,2,2,1,-3,-1
1517188313769810,0,0,-1,0,0,-1,0,-1
1517188313771812,-1,1,0,1,-1,1,-2,0
1517188313771812,1,0,2,1,-2,-1,2,-1
1517188313792823,-2,-3,-2,2,0,-1,0,1
1517188313792823,0,-4,0,-5,2,0,0,0
1517188313794823,-1,2,-2,0,1,0,0,-2
1517188313794823,0,0,-3,2,-2,0,-2,-1
1517188313806836,-1,1,-1,-5,-2,-3,-1,-3
1517188313806836,-2,0,1,2,-1,0,-2,-2
1517188313813837,-2,-3,0,0,-2,-1,-2,2
1517188313813837,-1,-2,-1,-3,-2,-3,0,-1
1517188313829848,-1,-3,-1,-1,0,0,1,0
1517188313829848,-3,-3,-2,-4,0,-2,-1,1
1517188313831852,1,-2,1,0,-2,0,-2,-2
1517188313831852,-2,-2,0,-4,0,-2,-3,-2
1517188313852875,-2,-1,-2,-3,-1,1,-1,0
1517188313852875,-1,-1,-2,-1,0,-2,0,-3
1517188313853867,1,0,-1,2,-1,0,0,-1
1517188313853867,-2,0,-2,1,-1,-3,1,0
1517188313866886,-1,-2,0,-1,0,-1,-1,0
1517188313866886,-1,0,0,-3,-3,-1,1,-1
1517188313873889,2,0,-1,-2,-1,0,0,-3
1517188313873889,0,1,-2,-2,-1,-2,-1,0
1517188313889891,-4,-1,-1,-1,-1,-1,-1,-1
1517188313889891,1,-1,-1,-1,0,-3,-1,0
1517188313892894,-2,-1,2,-3,-4,-2,0,-3
1517188313892894,0,0,-2,0,1,0,0,-1
1517188313912907,-1,1,-4,1,1,-2,1,-5
1517188313912907,-1,-2,-2,2,-3,-3,-2,0
1517188313913909,-2,-2,-2,-3,-2,-1,-2,1
1517188313913909,-1,-3,1,2,1,1,-3,0
1517188313926935,-1,-3,-1,-3,-2,-3,-1,-3
1517188313926935,-3,-1,0,0,-2,1,0,-1
1517188313940941,-1,-1,-1,0,-1,-3,1,-1
1517188313940941,1,-2,-2,1,-2,-2,0,-2
1517188313949943,0,-1,-2,-1,1,0,-1,1
1517188313949943,0,3,-1,-2,-1,-4,0,0
1517188313951945,-2,-1,-1,-1,0,-1,0,-1
1517188313951945,0,1,0,0,-1,-1,-1,-2
1517188313972952,1,-3,-4,-5,-1,-2,-3,-2
1517188313972952,0,-2,-4,-3,0,-1,-3,0
1517188313973953,-1,-1,1,2,-1,-2,-1,0
1517188313973953,-2,0,-2,-4,-3,-1,-1,-2
1517188313986970,-3,0,-1,-3,0,2,-1,-2
1517188313986970,-2,0,-4,-2,-1,1,0,-1
1517188313993965,-1,2,1,-1,0,-2,1,-2
1517188313993965,-2,0,-1,0,0,-4,0,-1
1517188314009987,-1,0,-2,1,-1,-1,-1,1
1517188314009987,0,-1,1,-1,-1,2,1,-2
1517188314011979,0,-3,-1,1,-1,0,-1,-2
1517188314011979,-3,-1,1,-2,-2,-1,-2,-1
1517188314032994,0,-2,-2,-4,3,0,1,-1
1517188314032994,-1,-2,0,-1,-1,-4,0,-1
1517188314033993,0,1,-2,1,2,0,-4,-3
1517188314033993,-1,-2,0,0,-1,0,-1,-1
1517188314047019,-1,0,1,0,-3,-3,0,-1
1517188314047019,3,-3,2,-2,0,-1,1,0
1517188314054009,0,-2,1,-3,-2,-2,0,0
1517188314054009,1,-2,-1,1,-1,0,0,0
1517188314070021,-3,-2,-2,-2,0,-1,-2,1
1517188314070021,-2,0,1,-1,-1,-3,0,-2
1517188314072020,1,0,-1,-1,-2,0,-2,-1
1517188314072020,0,-2,-3,-1,0,0,-2,0
1517188314093037,-2,1,-3,1,-2,0,0,-3
1517188314093037,-3,-1,1,-1,-2,2,-3,-3
1517188314095036,1,1,-1,0,0,-1,0,1
1517188314095036,-1,-1,-3,-1,-1,0,0,-3
1517188314106046,0,0,-2,3,-1,-1,-1,0
1517188314106046,-2,-1,-2,1,0,-1,-3,1
1517188314115052,-2,-1,1,-1,-2,-2,0,0
1517188314115052,-3,-1,-2,-1,-3,0,0,-1
1517188314130075,-3,0,-2,-5,-1,-2,-3,-1
1517188314130075,-1,-2,-2,2,-2,-2,-1,-1
1517188314132080,1,-2,-1,-2,-3,0,-1,-1
1517188314132080,1,-3,-1,-1,-2,0,-2,-1
1517188314152077,0,-1,0,-2,0,-3,1,-3
1517188314152077,-2,1,-1,1,-1,0,1,-1
1517188314154077,-1,-1,0,-4,-2,1,-2,-2
1517188314154077,-3,-3,1,-1,0,-4,-3,-1
1517188314166103,-2,-1,-1,0,-2,-1,-1,-1
1517188314166103,0,-2,-1,-3,0,0,-1,-1
1517188314175105,-1,1,-2,-1,-1,-2,1,0
1517188314175105,-2,0,-1,0,1,-1,0,-1
1517188314190114,2,1,0,0,-1,0,0,1
1517188314190114,1,-1,-3,-1,-1,-3,0,0
1517188314193108,-2,-3,0,0,1,1,-1,-1
1517188314193108,-2,-2,-3,-1,-1,-1,-1,-2
1517188314212129,-1,-2,-2,-1,0,-1,-2,-4
1517188314212129,0,-2,-2,-4,-2,2,1,-1
1517188314214120,-1,-2,-1,0,-1,0,0,0
1517188314214120,1,0,1,1,-2,-1,-2,-2
1517188314226128,-2,1,-3,1,-2,-6,-2,2
1517188314226128,0,1,-3,0,-1,1,0,-2
1517188314235137,-2,-3,0,-1,-2,-3,-2,1
1517188314235137,-1,0,1,-2,-1,-2,0,1
1517188314250155,-1,-1,0,0,0,1,0,-2
1517188314250155,-2,-1,0,-3,-1,-1,-1,2
1517188314252157,1,-2,0,0,-3,0,-3,0
1517188314252157,2,1,-1,-2,-1,-2,0,-1
1517188314273193,-1,0,-2,-1,-2,-2,-1,-2
1517188314273193,-1,1,1,-4,-1,2,-2,-3
1517188314274163,-1,0,-1,1,-3,-1,-1,-3
1517188314274163,0,-3,-1,-2,-2,1,-1,-1
1517188314286184,0,-3,-4,-4,1,2,2,-2
1517188314286184,-3,-3,2,1,-1,-2,-2,2
1517188314295178,-2,-1,2,-1,-1,-4,0,0
1517188314295178,-1,-3,-2,-2,-2,-2,-1,0
1517188314310203,-1,1,-1,0,0,0,0,-1
1517188314310203,-2,1,-1,-1,0,-1,-1,-3
1517188314311191,-1,1,0,-2,-2,0,1,0
1517188314311191,-2,3,0,-3,-1,0,0,0
1517188314332221,-1,-4,-1,0,-3,-1,-2,1
1517188314332221,1,-3,-2,-2,-1,-3,-1,-1
1517188314334206,-2,-3,-1,0,-1,-2,-1,-1
1517188314334206,-1,-2,-5,-1,-2,1,-3,-2
1517188314346223,-2,-1,-2,-3,1,-2,0,-1
1517188314346223,-2,-1,0,0,-1,0,-2,0
1517188314355221,-1,-1,-2,0,1,0,-2,-1
1517188314355221,-2,-1,-2,-2,-1,-1,0,-3
1517188314370254,-2,0,-3,-3,-4,0,-2,-2
1517188314370254,0,0,-1,1,0,-4,1,-1
1517188314371231,-2,-2,1,-1,-1,-1,-1,-1
1517188314371231,-2,0,-2,1,-1,-4,0,-1
1517188314392309,-1,1,-3,-5,2,2,-2,0
1517188314392309,-3,-3,0,-2,0,-2,-1,-3
1517188314394302,-2,0,-1,-1,-2,-1,0,1
1517188314394302,1,-1,-1,-1,2,-3,-1,-1
1517188314406319,-1,-2,-1,-1,-3,-3,-1,-2
1517188314406319,0,-1,0,-2,0,2,0,-1
1517188314415315,-2,0,-1,0,-1,-1,0,-1
1517188314415315,-1,0,-1,-1,-3,-1,-1,0
1517188314430327,0,-1,0,1,0,-2,2,0
1517188314430327,-1,0,-2,-1,-3,-1,-1,-2
1517188314432327,-1,-2,1,-2,-1,-1,-1,-2
1517188314432327,-2,0,-1,1,-1,0,0,-4
1517188314452416,-1,-1,-2,-3,0,0,-5,-1
1517188314452416,0,0,0,0,-4,-1,-1,0
1517188314454417,-1,-2,1,-3,1,2,-1,-1
1517188314454417,-2,-1,-1,-3,-2,-2,-2,0
1517188314466428,-3,-3,-2,1,0,2,1,-3
1517188314466428,-3,-1,1,-1,-3,-1,-1,-1
1517188314475454,1,-2,-3,-1,-1,-2,-1,0
1517188314475454,-1,-1,0,1,1,1,0,0
1517188314489441,-3,-2,-1,-1,4,-3,-2,0
1517188314489441,0,0,-1,-1,2,-1,-2,-3
1517188314497447,1,0,1,-3,-1,-1,0,-2
1517188314497447,-1,-1,-2,-2,-1,-3,-2,0
1517188314513460,-1,1,-2,0,-1,0,1,-1
1517188314513460,0,-4,-1,0,2,0,0,0
1517188314514459,-1,-3,-2,3,-1,-2,-4,0
1517188314514459,-1,0,-1,-3,0,-1,0,-3
1517188314535477,-1,-4,0,-3,-1,0,-3,-2
1517188314535477,-1,-1,0,-2,-1,-1,-3,-1
1517188314536478,-2,-1,0,-1,-4,-2,-1,-1
1517188314536478,-3,-3,-1,-2,0,-2,-2,2
1517188314550515,0,1,-1,-2,-3,0,0,-3
1517188314550515,0,1,-1,1,-1,-1,1,2
1517188314551485,-1,-1,-3,-1,0,2,-1,-2
1517188314551485,1,-1,-2,0,-2,-1,-2,-2
1517188314572512,0,1,-3,-2,0,-2,-1,-1
1517188314572512,-1,-2,1,-1,-2,-1,0,1
1517188314574504,0,2,0,0,-1,-1,-1,1
1517188314574504,-3,0,0,0,-1,1,-1,-2
1517188314594528,0,-1,-2,0,-2,-1,-2,-1
1517188314594528,-2,-1,-3,-1,0,0,-2,-4
1517188314596519,0,1,-1,-1,0,1,-1,-3
1517188314596519,-1,-2,2,-2,0,1,-1,1
1517188314610531,-1,-3,-2,-1,-4,-3,-1,-1
1517188314610531,-1,-3,2,1,0,-3,-1,-1
1517188314611529,-1,-3,2,-2,-3,-1,0,0
1517188314611529,1,0,-2,2,0,-2,-1,0
1517188314632557,-2,0,2,1,0,-2,1,0
1517188314632557,0,0,-4,-4,-3,-3,-1,0
1517188314634555,0,0,1,0,1,-2,-1,-3
1517188314634555,-2,-1,-1,-3,-4,0,-1,-1
1517188314654565,-2,-1,-4,0,-2,-2,-3,-2
1517188314654565,1,-2,-2,1,-2,-1,1,-3
1517188314656565,0,-2,1,-1,1,0,0,0
1517188314656565,0,0,-1,-4,-2,-2,-3,0
1517188314669576,-1,-1,4,-2,0,1,-2,-3
1517188314669576,-2,-2,-3,1,1,2,0,-2
1517188314676575,-1,-1,0,-1,-4,-3,-1,1
1517188314676575,-1,-1,-2,-1,-2,-2,2,-2
1517188314692587,0,0,-1,-1,-2,-1,0,-1
1517188314692587,-1,-2,1,-3,-1,-3,-1,-1
1517188314694589,0,-2,-1,-3,-4,0,-1,1
1517188314694589,0,0,-4,-4,-1,-1,-2,-1
1517188314715623,1,-1,-4,0,0,-2,-1,-2
1517188314715623,0,-1,1,0,-2,-4,-2,-1
1517188314716603,-1,-1,1,0,1,1,-4,-1
1517188314716603,-1,-3,-1,-1,0,-2,0,-1
1517188314729621,-2,2,-2,-1,0,-3,2,-1
1517188314729621,-2,0,1,-4,-1,0,0,-4
1517188314736641,-2,-1,-3,-1,-2,-2,1,-2
1517188314736641,0,0,0,-1,-2,0,-1,0
1517188314752628,-1,-1,-4,0,0,-1,-2,-2
1517188314752628,-2,-2,-1,-3,-1,0,-1,1
1517188314753629,-2,-3,1,-1,-3,-2,-1,-1
1517188314753629,-1,-2,-3,-3,-1,0,-3,0
1517188314774672,1,-1,-3,-4,0,-5,-1,4
1517188314774672,-1,0,2,1,-4,0,-1,2
1517188314776644,-3,-1,-1,0,-1,-1,-1,-2
1517188314776644,-1,-3,0,0,1,1,0,-3
1517188314789709,-3,-2,-3,-4,-2,-3,-1,-2
1517188314789709,0,-1,-3,-2,0,-2,-1,0
1517188314796659,-3,0,-2,1,0,-1,-1,0
1517188314796659,-1,1,0,-1,3,-1,-1,-2
1517188314812681,-2,-2,-3,-1,-2,2,0,-1
1517188314812681,-2,-3,-1,0,-1,-1,-2,0
1517188314814682,0,-1,-2,-1,0,-3,-2,0
1517188314814682,-3,0,0,-1,-1,-4,-1,0
1517188314834700,0,-1,-1,2,-1,1,0,1
1517188314834700,-3,1,0,-2,0,-1,-3,-2
1517188314836697,-1,-1,2,1,-3,1,-1,-1
1517188314836697,-1,-1,-3,1,-1,-1,1,0
1517188314849706,0,-1,-1,-1,-2,-4,-3,-2
1517188314849706,0,-2,-1,0,-2,1,0,0
1517188314863719,2,0,-1,-3,-2,-3,2,0
1517188314863719,-2,-1,0,-1,-1,-1,0,-2
1517188314872725,0,-3,-3,-3,-1,1,-2,-1
1517188314872725,0,-2,-1,-1,-3,-3,-1,-3
1517188314873714,0,1,2,3,0,-1,-2,-1
1517188314873714,-3,-1,-3,-4,-1,1,0,0
1517188314894730,-3,-2,0,-3,0,-3,1,2
1517188314894730,1,-1,-3,0,0,0,-2,1
1517188314896737,-3,-2,-3,-4,-2,0,-2,-1
1517188314896737,-1,-2,-1,0,-2,0,-1,-1
1517188314909765,-2,-1,0,0,0,0,-2,-4
1517188314909765,-1,0,0,-1,-2,1,-1,-1
1517188314915751,0,0,2,-1,0,-1,0,-2
1517188314915751,-1,-1,0,-5,-2,0,-1,-3
1517188314932755,-3,-3,0,-2,-1,-2,-3,-1
1517188314932755,0,-2,-2,-1,-2,-2,-1,-2
1517188314933758,0,-1,-1,0,1,-2,-3,0
1517188314933758,-1,2,0,-1,-1,-1,0,0
1517188314954774,0,2,-2,-1,0,-1,-2,1
1517188314954774,0,-1,-1,-1,-2,-2,2,0
1517188314956776,-2,0,0,-1,-1,-1,0,-1
1517188314956776,0,-2,-2,-3,0,-2,-1,-1
1517188314968793,-1,0,-1,2,-2,1,0,-2
1517188314968793,-1,0,-1,0,0,2,-3,0
1517188314975795,-1,-1,-2,-2,-2,-1,-1,-1
1517188314975795,0,-3,-2,0,-1,-3,-2,0
1517188314992798,-2,-1,-2,-2,-5,-1,-1,-1
1517188314992798,-2,0,0,-2,-1,-3,-1,-1
1517188314994799,2,-2,0,1,-1,-1,-1,-3
1517188314994799,-1,-3,-1,-1,-3,0,-1,-3
1517188315014814,1,-3,-4,-1,1,-1,1,-1
1517188315014814,-2,1,-2,1,-2,-2,-1,-1
1517188315016827,2,-1,-1,-1,1,1,-1,0
1517188315016827,-3,-2,0,2,-2,-4,-2,0
1517188315028823,0,2,1,-2,1,-1,-1,-2
1517188315028823,-3,2,1,-4,0,0,2,0
1517188315037830,-1,1,2,-1,-1,-1,0,0
1517188315037830,-1,-1,-2,-2,-1,1,-1,-1
1517188315052840,-1,-3,1,-3,2,-2,-1,0
1517188315052840,-4,-3,0,3,0,0,-1,1
1517188315053841,-2,0,-3,-2,-4,2,-2,-1
1517188315053841,2,0,-3,-1,2,-3,1,-1
1517188315074858,-1,1,-3,0,-1,3,-1,-1
1517188315074858,-1,1,-2,-2,0,0,-3,-2
1517188315076870,0,-3,-1,-3,0,0,3,-2
1517188315076870,-2,-2,-2,2,-1,-1,-1,-2
1517188315088879,1,-4,0,-2,-2,-2,-2,-1
1517188315088879,1,-2,-3,-2,1,-1,0,-2
1517188315097872,0,0,-1,-1,-1,-3,0,0
1517188315097872,-1,3,0,0,-3,-1,-3,2
1517188315112882,-1,0,0,-2,0,-1,-1,-2
1517188315112882,0,-2,-1,-1,-3,1,-2,-2
1517188315113883,-1,-3,-1,0,1,-4,2,-1
1517188315113883,0,-2,-1,0,-1,-1,0,-1
1517188315134908,1,-2,-4,-2,0,1,1,-1
1517188315134908,-1,-1,-1,-1,-1,-1,0,1
1517188315140913,0,-1,0,-2,-1,-2,-2,2
1517188315140913,-2,-2,-2,0,0,1,-1,-2
1517188315148917,-2,1,-3,2,0,-1,0,1
1517188315148917,2,-3,0,-3,-2,1,-1,-2
1517188315157914,0,-2,-1,-3,-1,2,-1,0
1517188315157914,-1,0,-3,-4,0,-3,2,-1
1517188315172959,-2,-1,-1,0,-2,-2,0,0
1517188315172959,-3,-1,2,-2,-2,-1,0,-4
1517188315173927,-2,-2,0,-1,-1,-2,-2,0
1517188315173927,1,-4,-2,-2,0,-2,-4,0
1517188315194953,-1,1,-2,-1,1,-1,-3,-2
1517188315194953,-1,-1,0,1,-1,-2,-2,-2
1517188315196946,1,1,0,0,-3,1,0,-2
1517188315196946,-1,-1,-1,-2,-1,-1,0,0
1517188315208954,-1,-1,-3,1,-1,-4,0,-3
1517188315208954,0,0,-1,-1,-3,-1,0,1
1517188315217961,-2,1,-2,-3,-2,2,-2,-2
1517188315217961,-1,-1,-1,-2,0,-1,0,-2
1517188315231981,0,-1,2,-2,-2,2,-3,0
1517188315231981,0,-2,-1,0,-1,-4,-2,0
1517188315238988,-2,0,-1,-1,-2,0,1,0
1517188315238988,-3,1,1,-2,0,-3,-1,-2
1517188315254983,-2,1,-2,-3,-3,-1,-1,-2
1517188315254983,-2,0,0,-1,-2,0,-1,-2
1517188315256987,0,-1,-1,0,0,-3,0,-1
1517188315256987,-1,-1,0,-2,1,-3,0,-1
1517188315269032,0,-2,-2,0,0,-2,-1,-1
1517188315269032,-2,-4,0,-2,-1,0,-1,-4
1517188315278001,0,-2,-1,-2,-3,-3,-2,1
1517188315278001,1,-1,-3,-1,0,0,-2,0
1517188315293012,-1,-3,0,-1,-2,0,1,0
1517188315293012,-1,-1,0,0,0,-1,0,-1
1517188315295012,-3,-5,3,-1,-1,1,-3,-1
1517188315295012,-1,1,-4,0,-1,0,-1,0
1517188315315025,-1,1,-3,1,-2,-1,-4,-3
1517188315315025,0,2,0,-1,1,1,-2,-2
1517188315317038,-1,-1,0,1,-2,-2,1,-1
1517188315317038,-1,0,-2,-1,1,0,0,1
1517188315329050,-1,-1,-2,-1,0,0,-2,1
1517188315329050,0,-1,-1,-1,-1,1,2,1
1517188315338093,-2,-1,-1,-1,-1,-5,-1,0
1517188315338093,-2,-2,0,1,-2,-2,-1,-3
1517188315352113,-2,-2,0,-5,0,-1,0,-3
1517188315352113,-2,0,-1,1,-1,-2,-3,0
1517188315354104,1,-3,-1,3,-2,-2,-3,-2
1517188315354104,1,-1,-3,-1,-2,-1,1,1
1517188315375130,-1,-3,-3,-1,1,-2,-1,0
1517188315375130,-4,0,0,-1,-2,-2,-1,1
1517188315377121,-1,2,0,-1,-3,0,0,-3
1517188315377121,-1,-1,-1,-1,0,-1,-2,-1
1517188315389129,-2,-1,1,0,0,-2,0,0
1517188315389129,0,-1,0,-3,-3,-3,0,1
1517188315398148,-3,-1,1,1,-2,-2,-3,0
1517188315398148,-3,-2,-1,0,1,0,-2,-4
1517188315412160,-1,-1,0,-3,-2,0,0,1
1517188315412160,-1,-2,0,1,1,-1,1,-1
1517188315419152,1,-2,-2,-6,-4,-1,0,-1
1517188315419152,0,-1,2,-1,-4,1,-1,-2
1517188315435163,-1,-2,-2,-1,1,0,0,0
1517188315435163,0,-1,0,0,-3,-1,-3,-1
1517188315436164,0,-1,-2,-2,0,1,-2,-2
1517188315436164,-1,1,-3,0,-3,-2,0,0
1517188315457195,1,-3,0,0,0,-2,1,-4
1517188315457195,1,-1,-1,-2,-1,-1,-2,1
1517188315459180,0,1,0,-2,0,1,-1,-2
1517188315459180,-1,-1,1,-2,-2,-2,-4,-1
1517188315472199,-2,-2,-1,-4,-2,2,-3,0
1517188315472199,-2,-2,1,-1,0,-4,2,-2
1517188315474200,-3,-3,-1,2,-1,-1,0,-2
1517188315474200,-1,-1,-2,-2,-1,1,-1,-2
1517188315495205,-2,2,-2,0,0,-3,-1,1
1517188315495205,2,1,1,-2,-2,-1,-1,0
1517188315496206,-3,1,-2,1,0,-1,0,0
1517188315496206,-1,0,-2,-2,1,-2,0,-1
1517188315517231,1,-1,0,0,-2,-2,0,-2
1517188315517231,-1,-2,0,-1,0,0,-1,-1
1517188315519221,-2,-2,-1,-1,0,1,0,0
1517188315519221,-1,-2,-4,2,0,-1,0,0
1517188315532241,-2,1,-2,-2,-1,-3,-1,-1
1517188315532241,-1,-2,0,-1,0,-3,-2,-2
1517188315538245,0,0,0,-2,-1,-2,-2,0
1517188315538245,0,-1,-3,-5,-2,1,-1,-1
1517188315555257,0,0,-2,1,-3,1,-3,-4
1517188315555257,-1,-1,-1,1,0,1,0,0
1517188315556259,0,-2,1,-1,1,-2,-1,0
1517188315556259,-2,-3,0,-3,1,-1,1,-1
1517188315577278,-1,-1,-2,0,-1,0,2,-1
1517188315577278,1,-1,0,-2,-1,1,0,-2
1517188315579264,-1,-2,0,1,-1,0,0,0
1517188315579264,0,0,-3,1,-1,-1,-3,0
1517188315592284,1,-2,0,-4,-2,-3,-3,-3
1517188315592284,-1,-1,-1,-1,-2,0,-1,-2
1517188315594276,-2,-2,3,-3,-1,1,0,0
1517188315594276,-1,-2,0,2,0,0,-2,-1
1517188315615290,-3,-1,-5,1,1,0,0,2
1517188315615290,1,1,0,-1,-1,-2,-1,1
1517188315616300,0,-1,-1,-3,-2,2,0,-1
1517188315616300,-3,0,-2,-1,0,-2,-2,-2
1517188315637320,-1,0,-3,-1,-1,-1,-1,-4
1517188315637320,0,-1,1,2,-2,0,-2,-2
1517188315639307,-1,-1,0,1,2,-1,0,-3
1517188315639307,0,-2,-3,-1,-1,-1,1,0
1517188315652327,1,-3,3,-2,-1,-3,-1,-1
1517188315652327,-3,-3,0,-4,-1,-1,0,-2
1517188315658350,1,1,2,-2,-5,-2,-1,-3
1517188315658350,-3,-1,-1,0,-2,1,-1,-2
1517188315675348,-1,-1,-2,3,0,-2,-1,0
1517188315675348,-1,-1,0,-3,-1,-3,-1,-1
1517188315676332,-3,0,-2,-2,-3,-3,-1,-1
1517188315676332,-2,0,-3,-3,1,0,-1,1
1517188315697364,-2,1,-1,1,-1,0,-2,-1
1517188315697364,-1,-1,0,1,-4,-1,0,-1
1517188315699360,2,-2,-3,-2,1,-3,0,-2
1517188315699360,-1,-1,-1,-3,0,-3,-1,-1
1517188315712359,-1,-2,-1,-5,-3,-3,-1,-3
1517188315712359,0,-4,-1,1,0,2,1,0
1517188315718403,-1,0,-1,0,-1,-1,-1,-1
1517188315718403,2,2,0,-1,-2,-1,1,-2
1517188315735391,0,0,0,1,-1,3,-1,1
1517188315735391,-3,-1,-1,-2,0,0,2,-2
1517188315736375,-1,-1,-4,-1,-1,-1,0,0
1517188315736375,-1,-1,-1,-1,-1,-4,0,-1
1517188315757406,1,-2,-1,0,2,0,0,1
1517188315757406,0,-3,-2,0,-2,-3,-2,-1
1517188315759394,-3,0,1,0,-2,0,-2,-1
1517188315759394,0,-1,-3,-4,-1,1,0,-1
1517188315771439,-1,-2,-2,-2,-1,-3,1,-2
1517188315771439,0,0,1,0,-2,-3,0,0
1517188315778405,-2,-2,-2,-1,-1,-5,-1,1
1517188315778405,-1,-2,-3,-1,0,-1,1,-1
1517188315795417,-3,-1,-4,-5,-2,1,-1,-1
1517188315795417,-1,-1,0,1,-1,1,-1,-2
1517188315796421,0,0,1,0,0,-2,-1,-1
1517188315796421,0,-1,-2,-2,-1,-1,0,-2
1517188315817447,0,-1,1,1,1,-3,-1,0
1517188315817447,2,2,-2,-1,-1,0,-1,-2
1517188315819433,0,-2,-1,-3,1,1,-2,-2
1517188315819433,-1,-2,-1,-2,-1,-4,0,0
1517188315831452,-2,0,-2,-4,-2,0,-1,-1
1517188315831452,-1,-1,-1,1,-3,1,-2,0
1517188315838450,-2,-1,-1,-1,-5,0,-1,-1
1517188315838450,0,0,-2,-1,1,-2,-1,-1
1517188315862464,-1,-1,0,-2,-1,2,0,-1
1517188315862464,-1,-2,-3,-2,0,-2,0,-2
1517188315864470,-1,0,-1,-1,-1,0,0,-1
1517188315864470,0,-3,-1,0,0,2,-1,-2
1517188315877478,0,1,-2,-2,1,-2,0,-1
1517188315877478,-3,0,-1,-1,-4,0,0,0
1517188315879476,0,-3,-1,-2,0,-1,0,1
1517188315879476,-1,-1,1,-3,-2,-2,-2,-2
1517188315892488,-1,1,-3,0,0,0,-2,-1
1517188315892488,-1,-1,2,0,-1,-2,-2,-1
1517188315898502,1,-3,0,1,-1,-1,0,-1
1517188315898502,-1,-2,-2,2,0,-2,-2,0
1517188315915501,0,-3,-3,-3,-3,0,-2,0
1517188315915501,-2,1,-2,-3,0,-1,-1,0
1517188315916512,-2,-1,0,1,-2,-4,-3,0
1517188315916512,-2,-2,-3,-1,-1,-1,-1,-1
1517188315937527,1,-2,3,-2,-2,-1,1,-2
1517188315937527,0,-1,-1,0,-1,-3,0,0
1517188315939530,-1,-1,-4,-3,-3,1,1,-1
1517188315939530,1,1,0,-3,0,0,0,-1
1517188315951541,-1,-1,0,0,1,1,-4,-1
1517188315951541,-2,-4,1,-1,0,-4,-1,-2
1517188315960535,0,0,0,1,-1,0,-2,0
1517188315960535,-1,-2,-1,0,-2,1,0,0
1517188315974560,-1,-1,-1,-2,-1,-2,3,-2
1517188315974560,2,0,-1,-3,-1,-1,1,-2
1517188315976545,1,-3,0,0,-2,0,2,-2
1517188315976545,-2,-1,-2,-2,0,1,0,-2
1517188315997576,-1,-3,-2,-4,-1,2,0,2
1517188315997576,0,-2,-2,-2,-1,2,-3,0
1517188315999561,-1,1,-3,-1,1,-3,-3,0
1517188315999561,-4,0,-3,1,-1,-1,-3,-4
1517188316011569,1,0,-3,-2,-3,-2,-1,-2
1517188316011569,-2,0,-1,2,-1,-1,1,1
1517188316020575,-2,-2,-2,-3,2,-1,-2,1
1517188316020575,-1,-1,-1,0,-1,-1,-3,0
1517188316034599,-4,2,0,-1,1,-4,-1,-3
1517188316034599,-1,1,2,-2,-2,-1,-2,-1
1517188316036601,-1,-1,-1,0,-1,0,0,-3
1517188316036601,1,-1,-2,-4,-2,-3,0,0
1517188316057619,-2,0,0,-1,-4,-4,-1,1
1517188316057619,0,-3,2,-2,1,1,-1,0
1517188316059603,-3,0,-1,-1,-1,1,0,-2
1517188316059603,-2,-1,-2,-2,-1,-2,-1,0
1517188316079629,0,-2,-3,0,-1,-1,0,0
1517188316079629,1,-1,-4,2,-1,1,0,0
1517188316081619,-1,0,1,-2,-1,-1,1,0
1517188316081619,-1,-2,-2,0,1,-1,-2,-2
1517188316102645,-2,0,0,0,-1,0,-1,-1
1517188316102645,1,-1,1,-2,-2,-1,-3,-1
1517188316104646,-1,0,1,0,-2,0,-2,0
1517188316104646,0,-2,-3,-1,0,0,1,-3
1517188316117655,-1,0,0,0,0,-1,-2,-3
1517188316117655,-1,0,2,4,-4,-2,1,-3
1517188316118660,-2,-3,-1,-4,0,0,-3,0
1517188316118660,0,-1,0,-3,-1,-4,-2,1
1517188316130667,-4,0,-5,2,-1,1,-3,1
1517188316130667,0,-2,3,3,2,0,0,-2
1517188316139671,1,2,0,-3,-5,0,-1,-3
1517188316139671,0,-1,-2,0,0,-3,-2,1
1517188316154672,1,-1,0,-4,1,3,-2,0
1517188316154672,-3,1,-1,-3,-1,-2,-1,0
1517188316156674,-2,0,0,3,-2,-2,-2,-3
1517188316156674,0,1,-1,-1,-2,-1,0,-3
1517188316177689,0,-1,-2,-2,0,-4,0,-3
1517188316177689,2,-1,3,-2,-1,1,-1,-1
1517188316179690,-2,-1,1,-1,0,-2,-3,1
1517188316179690,-2,-1,-3,-3,-1,0,0,0
1517188316191696,-1,-1,-2,1,1,-1,1,-2
1517188316191696,-1,-2,-4,-1,-2,-2,0,-2
1517188316199713,0,-1,-1,0,-2,-1,-1,0
1517188316199713,-3,1,-4,1,0,1,-2,0
1517188316214714,2,0,1,0,-3,-3,-2,2
1517188316214714,-2,3,-1,0,-3,2,-2,0
1517188316216731,5,-2,2,0,0,2,-2,-2
1517188316216731,-1,-4,-1,-4,-4,-5,-1,3
1517188316237729,0,1,-1,1,-4,-2,-1,-2
1517188316237729,1,-5,-1,-5,0,0,-4,1
1517188316253752,-3,-3,-9,-2,1,-4,-3,0
1517188316253752,-1,0,2,-7,2,0,1,0
1517188316253752,2,2,5,11,-2,-2,-2,-1
1517188316253752,-4,1,-7,-14,-1,-4,0,2
1517188316259756,3,-1,2,5,0,-5,2,-2
1517188316259756,2,2,-4,0,-1,-2,-1,-2
1517188316274766,-5,0,-2,-3,-2,-4,-1,0
1517188316274766,0,0,2,4,-3,1,0,1
1517188316276766,-4,-4,-2,-2,-2,0,0,-2
1517188316276766,-1,0,-4,2,0,-2,-2,-1
1517188316297781,-1,-3,0,-2,0,1,1,-2
1517188316297781,1,-2,-2,2,-2,-3,-1,-3
1517188316298782,-3,1,-1,1,-1,-1,0,0
1517188316298782,5,-1,-1,5,0,-1,-2,0
1517188316310793,-7,2,-2,-12,4,-1,-3,-2
1517188316310793,1,-11,-7,-9,-3,0,-3,1
1517188316319797,4,-10,0,6,-1,2,0,0
1517188316319797,-24,3,5,3,0,0,-3,-1
1517188316334808,8,6,-11,1,-3,1,-2,-4
1517188316334808,-3,-7,2,-1,-1,-2,-1,-2
1517188316336805,-2,9,-4,-4,-1,-1,-2,-1
1517188316336805,4,-3,-5,0,-3,-1,0,0
1517188316357828,-3,-7,2,-1,-2,0,-2,-1
1517188316357828,2,4,1,4,-1,0,1,1
1517188316358822,-11,-1,-1,-2,-1,-2,-2,0
1517188316358822,5,-2,-2,-2,2,0,-2,-2
1517188316370834,-2,1,0,0,-1,-4,0,3
1517188316370834,7,0,1,4,-4,1,-1,-2
1517188316379829,-10,0,10,-4,-3,0,-1,-3
1517188316379829,7,1,-7,-4,1,3,1,-1
1517188316394842,4,-4,-3,-1,-1,-1,-2,-2
1517188316394842,0,0,-3,0,2,1,4,3
1517188316396842,2,9,2,-4,0,-2,-1,-2
1517188316396842,-4,-12,1,7,-2,-3,-3,-3
1517188316417867,-1,-2,-6,1,-1,-1,0,-1
1517188316417867,11,5,3,-9,-1,-3,2,5
1517188316418867,-1,-2,5,8,-1,0,2,-2
1517188316418867,1,-1,-7,-8,2,-1,-3,-4
1517188316439895,-4,-13,7,2,-6,-2,-1,-2
1517188316439895,-8,3,14,1,3,-3,0,-1
1517188316441874,17,3,-25,7,0,3,4,4
1517188316441874,-18,-2,20,-11,-6,-2,-1,-9
1517188316454883,-4,-2,8,-1,1,1,-3,-1
1517188316454883,7,-4,6,7,-3,-2,-1,-1
1517188316456887,-28,1,7,-4,-2,-5,-1,-2
1517188316456887,11,-3,-8,3,0,-2,1,0
1517188316477903,1,3,-8,-6,-1,-2,-1,3
1517188316477903,1,7,24,1,-2,-1,-3,-5
1517188316478905,3,-5,-21,-5,-5,-2,-4,-4
1517188316478905,8,4,-4,1,0,0,4,5
1517188316499926,-42,4,9,1,-2,-2,2,-2
1517188316499926,4,-3,-18,4,1,1,-5,-1
1517188316501927,5,-4,-1,-8,-3,-4,-2,-2
1517188316501927,3,1,-7,-4,0,2,-1,0
1517188316514927,13,3,-6,-1,-2,-1,1,-1
1517188316514927,-7,-13,0,-5,-3,-1,-2,-4
1517188316520948,7,2,2,-1,0,0,0,3
1517188316520948,-1,-8,-5,-6,1,3,-3,-3
1517188316537942,12,10,-1,6,3,-2,3,2
1517188316537942,-19,1,-8,3,-1,0,-1,0
1517188316538943,3,-19,6,-4,-3,-1,-4,-1
1517188316538943,-8,1,-4,-2,1,-4,-1,0
1517188316559959,0,-10,0,1,1,-2,0,-1
1517188316559959,-1,2,-7,-6,2,0,0,1
1517188316561962,15,0,-2,1,2,-3,1,3
1517188316561962,-4,7,4,5,-2,-3,0,-1
1517188316574005,6,-3,-9,-3,-2,-2,-4,-1
1517188316574005,-5,-17,-8,-4,-4,-3,-1,-5
1517188316580972,-8,6,5,-2,-1,0,0,0
1517188316580972,-2,0,1,1,0,-1,-2,-5
1517188316597983,1,5,0,-8,-2,2,1,-2
1517188316597983,6,-4,-3,2,-4,-4,0,4
1517188316598986,10,3,0,-4,1,-3,-1,-4
1517188316598986,-8,2,-4,8,-1,1,1,-1
1517188316620009,-10,-14,3,-6,-3,-2,-3,-2
1517188316620009,-14,9,3,-2,2,-1,-2,-2
1517188316622011,-2,-4,6,5,-4,0,-1,-6
1517188316622011,-10,-6,-27,-3,1,-1,-1,-4
1517188316634012,17,2,2,-7,-1,0,2,6
1517188316634012,3,4,2,5,0,0,-1,-3
1517188316641018,-3,7,6,2,1,-1,-4,0
1517188316641018,-2,3,20,3,2,1,1,2
1517188316657041,-6,-14,-32,-3,-5,-1,-2,-7
1517188316657041,8,2,-8,-6,-2,-1,3,4
1517188316659027,-8,-18,4,-2,-3,1,-3,-5
1517188316659027,3,11,-1,-1,1,-2,2,-1
1517188316680059,-3,-1,4,2,-1,0,-1,0
1517188316680059,7,-1,5,1,-1,-2,0,1
1517188316682043,6,7,-5,-3,0,0,2,4
1517188316682043,-27,-11,0,0,-4,-2,-5,-3
1517188316694064,-5,-4,2,-1,1,-2,-4,-3
1517188316694064,-7,5,6,4,-2,1,-2,-5
1517188316701058,-4,-3,-2,-3,0,2,-2,-2
1517188316701058,9,3,-8,-3,0,-1,0,2
1517188316717085,6,13,-7,2,-3,0,0,2
1517188316717085,-3,1,2,-7,-2,0,-3,-2
1517188316719069,-8,-2,6,4,1,-2,-1,0
1517188316719069,11,-7,-7,3,-4,0,0,-2
1517188316740095,0,-4,-6,-10,-3,-1,-2,4
1517188316740095,3,6,0,4,-1,-2,-1,-3
1517188316742086,-6,-3,-6,-5,2,-1,0,0
1517188316742086,11,6,-1,-3,0,-2,0,6
1517188316755095,-5,-10,16,8,2,1,0,-3
1517188316755095,2,-9,-25,-7,-1,1,-1,2
1517188316761100,-2,10,21,11,-1,-3,-2,-2
1517188316761100,9,5,-2,-6,-3,0,-2,2
1517188316778112,-3,3,-2,9,0,-1,0,-4
1517188316778112,-20,-10,-3,-7,-2,-2,0,-3
1517188316779115,-2,-10,-5,-6,-1,-1,0,2
1517188316779115,11,-2,-19,-5,-3,-3,-2,-4
1517188316800139,-9,7,10,8,-1,0,1,0
1517188316800139,7,4,13,-6,-1,-4,-1,-2
1517188316801130,0,4,-12,8,-3,0,-2,-2
1517188316801130,-15,-10,18,-4,-2,-1,0,-4
1517188316814139,18,-6,-13,-5,1,2,3,7
1517188316814139,-1,2,3,6,-1,-3,-1,-6
1517188316821187,-4,1,20,-4,-1,-2,2,1
1517188316821187,15,2,4,1,1,0,1,3
1517188316837185,-10,0,-14,-5,-1,-1,-3,-11
1517188316837185,-2,0,-3,6,1,-1,-1,-1
1517188316839155,5,6,-3,0,0,4,3,10
1517188316839155,1,-3,3,-11,0,-3,-4,-6
1517188316860172,7,7,6,-13,0,-3,0,4
1517188316860172,-9,-18,4,4,-1,0,0,-1
1517188316861171,-1,-15,-8,-3,-4,-4,-4,-7
1517188316861171,-3,2,0,-2,-1,1,1,5
1517188316874203,-8,-7,-16,1,-2,-5,-3,-5
1517188316874203,27,4,15,8,-2,0,-2,8
1517188316881184,-10,-4,-36,-9,-1,-1,-2,-3
1517188316881184,4,6,0,3,0,-1,-4,-4
1517188316897207,-5,-3,16,-7,-4,-5,-1,0
1517188316897207,-10,19,-6,8,1,0,-2,-4
1517188316899206,-1,-2,-2,-3,0,-2,0,-3
1517188316899206,-15,-10,0,-8,-5,-3,-3,-4
1517188316920222,8,18,20,17,3,3,0,3
1517188316920222,-1,-14,-10,-10,-6,-2,-3,1
1517188316921223,-2,10,-1,5,0,2,1,0
1517188316921223,-4,-6,9,-6,-2,-1,-4,-7
1517188316933232,-4,1,12,13,2,2,3,3
1517188316933232,6,2,-9,-27,-4,2,1,0
1517188316942238,-10,-2,12,15,0,-2,-2,-2
1517188316942238,-12,-11,-32,-6,2,-1,3,-2
1517188316957250,16,0,14,8,-3,0,-4,1
1517188316957250,1,9,1,-4,0,-2,-4,-6
1517188316959251,-2,-7,9,-4,-3,-2,-1,2
1517188316959251,13,6,-15,12,7,4,0,5
1517188316980254,-30,-11,0,-8,-6,-4,0,-2
1517188316980254,6,1,-14,-12,2,1,4,0
1517188316981255,10,12,3,4,1,-4,-5,0
1517188316981255,-2,-8,-3,-4,-3,-2,-1,-3
1517188316993312,1,-7,0,12,5,-1,-2,-3
1517188316993312,-25,-12,7,1,-4,1,-2,-3
1517188317002308,-1,-2,-4,-10,-3,-4,-3,-5
1517188317002308,4,4,0,-4,-2,0,-3,2
1517188317017333,11,-8,-5,5,-1,-1,0,-1
1517188317017333,6,7,3,0,2,-1,2,-2
1517188317019330,-14,0,-12,-3,-1,-2,0,-1
1517188317019330,-20,-16,-11,2,-2,-2,-2,0
1517188317039344,5,-15,15,-4,-1,-2,-1,-4
1517188317039344,-5,-3,8,5,-1,0,-2,-1
1517188317047350,12,4,0,-4,1,3,3,7
1517188317047350,-17,1,5,-2,-3,-2,-2,-4
1517188317053354,4,7,-16,-10,-3,1,0,6
1517188317053354,-5,-10,0,2,-1,-3,-1,6
1517188317062350,2,-19,2,-5,1,-3,0,0
1517188317062350,15,8,13,23,1,-2,-1,-2
1517188317084378,-30,1,-8,-27,-7,-2,-1,-9
1517188317084378,-6,-11,8,4,-3,-1,-2,0
1517188317093374,15,-2,-16,-19,-1,-1,-3,1
1517188317093374,13,9,8,-3,-2,-4,1,-2
1517188317100387,6,-16,-13,13,3,-2,3,4
1517188317100387,-8,14,-2,-11,-6,-1,-3,-9
1517188317101379,-25,-24,-2,-3,-3,0,0,-2
1517188317101379,-1,-10,6,11,0,1,2,7
1517188317113397,10,11,-1,-5,1,0,-9,-16
1517188317113397,-25,0,-8,-4,-4,-3,3,-7
1517188317122393,22,5,1,4,2,1,-1,-2
1517188317122393,-11,13,-3,-6,-3,0,3,-2
1517188317137429,5,1,-1,8,3,0,0,8
1517188317137429,19,10,-2,10,0,-2,-1,4
1517188317139428,-8,13,0,-12,-6,-1,-1,-8
1517188317139428,3,5,-10,2,4,1,-5,1
1517188317160434,-15,-21,2,-3,-1,-3,-1,-2
1517188317160434,-2,-9,11,-8,-2,1,-4,-8
1517188317161423,3,-3,-2,8,2,1,3,3
1517188317161423,0,-1,6,-1,-5,0,-1,-1
1517188317173447,26,-1,-5,-11,2,-1,4,6
1517188317173447,-2,-27,1,9,-2,-3,-1,-1
1517188317182436,-17,-14,-11,-3,-2,-4,0,7
1517188317182436,8,-3,-6,5,-6,1,-3,-4
1517188317197445,1,22,10,-11,2,0,-5,4
1517188317197445,-13,-10,4,2,-5,-3,-4,6
1517188317199447,17,12,1,-2,1,-1,-3,-4
1517188317199447,-16,-9,13,5,1,-1,3,2
1517188317220472,-4,-12,-30,-6,-4,1,1,-4
1517188317220472,17,11,-2,6,3,-1,-1,2
1517188317221473,-7,-6,5,7,-6,-3,-2,2
1517188317221473,-4,-15,-5,-17,4,-3,-4,-7
1517188317233500,-3,9,7,6,-1,0,2,6
1517188317233500,11,9,5,-2,3,0,1,-7
1517188317250487,0,2,-9,4,1,1,5,13
1517188317250487,-8,2,7,-8,-1,-1,-4,-17
1517188317257500,-3,-4,-6,-3,0,-2,-2,-9
1517188317257500,-3,5,16,11,3,2,7,10
1517188317259512,11,4,-8,-4,-1,-1,-2,4
1517188317259512,-22,-9,5,-7,-1,-1,3,2
1517188317279504,-5,5,-5,1,-1,-5,-7,-6
1517188317279504,4,24,-7,6,-3,0,2,3
1517188317281506,-20,-13,8,-14,-3,-1,-8,-13
1517188317281506,12,12,16,-2,-1,-2,-5,-3
1517188317293529,-5,-11,-8,-5,-7,0,-4,-11
1517188317293529,-5,12,0,12,-2,-4,0,0
1517188317308540,20,-4,-4,-17,-1,-1,4,6
1517188317308540,-1,4,2,4,0,0,3,-26
1517188317317541,-8,-2,-4,7,0,0,0,0
1517188317317541,15,-6,-1,-11,-1,2,-2,1
1517188317319549,-21,-1,9,4,2,-1,-1,3
1517188317319549,1,-1,-11,-8,-4,-3,2,1
1517188317340548,4,9,10,8,-2,-1,-2,-1
1517188317340548,-6,-11,-9,-4,-2,1,1,4
1517188317341548,2,12,1,13,2,-1,-2,-15
1517188317341548,-2,-2,-14,-14,0,1,4,13
1517188317362580,4,25,4,-2,-3,0,8,10
1517188317362580,-1,-3,-8,-9,4,-2,-3,-9
1517188317364573,-3,7,6,8,1,0,0,8
1517188317364573,9,17,-2,13,1,1,2,-8
1517188317377574,-11,-10,-13,4,-2,-4,-8,-26
1517188317377574,-4,-19,4,-11,-1,-5,-4,-2
1517188317379588,3,-7,-20,12,2,-3,1,1
1517188317379588,-8,-3,-7,-18,0,-1,-6,4
1517188317399598,17,9,6,8,-4,-3,5,5
1517188317399598,1,-7,-4,2,-5,-3,-5,-1
1517188317401591,-4,-13,5,4,0,-1,-1,-3
1517188317401591,8,13,-5,-13,-5,-1,-7,15
1517188317422629,0,0,6,8,1,-2,3,14
1517188317422629,-13,-3,0,-5,-1,-1,-4,-24
1517188317424616,7,15,0,-3,-2,1,0,-7
1517188317424616,-15,-6,-14,3,-1,0,-5,3
1517188317445653,-2,-33,12,-13,-1,3,0,-5
1517188317445653,37,-1,-20,20,6,0,9,20
1517188317446629,-9,24,9,-3,-4,-1,2,28
1517188317446629,25,-17,-10,4,-2,-2,2,9
1517188317459638,-7,-23,22,1,0,-2,-12,-32
1517188317459638,-20,14,10,-3,-4,-1,-5,9
1517188317461635,-7,-14,-21,8,1,0,3,-5
1517188317461635,12,-7,6,-6,-2,-1,0,-3
1517188317482674,2,5,0,-17,-5,-3,0,23
1517188317482674,-4,-7,2,3,2,0,-6,-8
1517188317484657,5,8,9,-11,1,-2,4,11
1517188317484657,11,-11,-12,9,-2,-1,-7,-27
1517188317496686,-31,15,-10,7,-3,1,6,12
1517188317496686,-7,12,-7,-8,0,-1,5,-17
1517188317503689,-2,2,7,-2,-1,-4,-14,-27
1517188317503689,-9,-18,8,-8,-3,0,4,-1
1517188317519700,-21,1,-3,0,1,0,-8,3
1517188317519700,16,-3,-2,1,-1,-1,10,-6
1517188317521682,-11,-8,0,-2,-2,0,-2,-6
1517188317521682,4,13,5,15,5,1,10,26
1517188317542705,2,3,-1,-9,1,-2,0,-12
1517188317542705,-4,8,2,1,-1,3,-3,14
1517188317544695,4,-9,3,-8,-8,-4,-2,-40
1517188317544695,-13,42,1,21,3,1,4,-4
1517188317556716,22,-14,-20,-18,4,-2,0,9
1517188317556716,4,-15,-1,-4,0,3,-3,3
1517188317563706,-3,-18,4,14,-2,-1,3,33
1517188317563706,-10,0,-13,-16,5,0,2,12
1517188317579718,5,19,6,6,0,0,-6,-3
1517188317579718,13,-12,-3,15,1,-5,-1,4
1517188317581720,12,-11,-6,-28,-4,1,0,12
1517188317581720,-10,-17,8,1,-4,-4,-10,-22
1517188317602774,6,0,-1,16,1,-2,10,4
1517188317602774,-2,-17,-8,-27,-10,-5,-5,32
1517188317603762,-7,8,5,3,0,0,-5,-17
1517188317603762,5,-9,-20,-10,-6,-3,-4,2
1517188317616772,-1,1,0,11,5,0,5,5
1517188317616772,-20,18,11,11,-8,-3,-6,-24
1517188317623786,15,10,-10,-18,5,0,8,25
1517188317623786,-6,-6,22,1,-2,-4,-6,-18
1517188317647802,2,19,-16,9,-5,1,-6,-38
1517188317647802,-10,-30,4,-14,-3,0,4,13
1517188317649795,-6,14,-8,-4,5,-2,-16,-8
1517188317649795,10,-10,5,0,-3,-2,-8,-10
1517188317661813,-7,15,-1,3,-3,-2,1,2
1517188317661813,-3,-14,9,-16,-4,-2,-1,-5
1517188317662803,1,2,-8,27,4,-1,-2,-25
1517188317662803,15,20,-2,-28,-1,1,5,42
1517188317684832,-6,-10,0,5,-2,-3,1,-12
1517188317684832,-11,3,3,-26,-1,-1,1,-11
1517188317685830,-2,0,-9,21,-1,0,1,16
1517188317685830,1,-4,-9,-23,0,-3,-1,9
1517188317698841,-2,3,-13,7,-1,1,-1,-1
1517188317698841,17,-15,-5,13,1,-2,6,3
1517188317699848,-23,7,5,-22,-10,-1,-6,-11
1517188317699848,2,2,11,24,0,-1,-5,-22
1517188317721860,8,-5,1,-24,-4,1,4,10
1517188317721860,-19,-17,-5,16,-3,-4,0,20
1517188317722849,-5,-20,-9,-15,-1,1,-7,-10
1517188317722849,-20,-16,-2,1,-3,-4,-4,-54
1517188317735878,4,-11,18,5,1,-3,-5,-4
1517188317735878,-22,16,4,0,-2,-2,-4,-8
1517188317744863,-1,4,6,8,-5,-4,2,-28
1517188317744863,10,9,-11,3,-2,0,2,22
1517188317758871,7,-3,11,-8,3,-1,-7,-9
1517188317758871,-8,21,-6,0,3,1,3,5
1517188317759872,13,-5,2,1,-1,-1,0,-10
1517188317759872,1,14,-10,-5,-1,2,0,19
1517188317781888,-18,-16,-1,-3,-3,1,-4,-3
1517188317781888,12,15,-5,11,-1,-2,0,8
1517188317782888,20,-3,0,9,3,3,3,-10
1517188317782888,-16,-2,2,-20,-5,-1,5,27
1517188317795898,-3,-5,-2,-1,-2,1,-3,-9
1517188317795898,12,4,0,-5,-2,2,-1,-9
1517188317803917,-25,-3,4,5,-6,-4,6,18
1517188317803917,3,-23,-8,12,2,-1,2,-23
1517188317818914,16,15,10,0,-2,-3,-3,21
1517188317818914,-12,-7,-11,-15,-3,-3,-2,-46
1517188317819915,5,-11,0,-2,2,-1,3,29
1517188317819915,12,-1,1,11,0,3,4,4
1517188317841985,-5,-10,-19,-11,-5,-5,-9,50
1517188317841985,-4,-1,14,5,0,-2,-4,-16
1517188317842962,-9,4,-9,-13,-7,0,-4,-6
1517188317842962,17,-11,-11,9,-3,-4,-4,1
1517188317865979,11,27,-12,-7,2,1,15,40
1517188317865979,-4,-40,-3,-13,-6,-1,-8,-19
1517188317866980,3,-2,-5,3,4,0,-2,-3
1517188317866980,-4,6,9,5,0,0,0,5
1517188317880031,10,-4,4,2,-2,-2,-5,-3
1517188317880031,-37,7,-15,2,1,2,6,9
1517188317881017,10,13,14,-14,-1,-2,-13,-17
1517188317881017,-3,9,-17,-7,3,3,3,9
1517188317902013,-1,-16,5,2,-2,-2,0,19
1517188317902013,14,9,8,10,4,1,5,46
1517188317903013,0,-4,-26,-3,1,-2,-6,-31
1517188317903013,0,8,-4,7,3,3,15,29
1517188317918016,6,-10,6,-8,-3,-5,-7,-8
1517188317918016,-11,-20,2,3,-5,-4,-5,-13
1517188317924020,-2,-19,-6,5,2,2,14,56
1517188317924020,3,-11,9,-4,-4,-5,-18,-49
1517188317939051,-25,2,-19,0,-5,1,-1,-35
1517188317939051,45,-24,3,9,0,1,-10,-5
1517188317940041,-8,-25,-9,-7,-4,-4,-2,5
1517188317940041,-22,-16,6,0,2,1,-2,-6
1517188317962051,-18,16,-5,1,-1,-2,5,-9
1517188317962051,14,40,13,-14,-2,-1,-11,-12
1517188317963058,39,39,6,-6,7,1,8,15
1517188317963058,15,3,5,15,-1,-1,1,21
1517188317976125,-7,11,7,-1,2,-1,5,-20
1517188317976125,-19,-11,-12,8,1,4,9,-34
1517188317984087,32,48,12,-16,-2,-3,-4,-2
1517188317984087,-12,9,8,-16,1,-1,-3,-7
1517188317999150,0,5,12,16,0,4,17,4
1517188317999150,3,-5,4,-12,-1,-7,-22,4
1517188318000136,-21,-30,-5,11,0,0,2,-31
1517188318000136,-2,19,-1,4,2,1,-1,14
1517188318022177,11,-33,12,-8,-7,-2,-10,-37
1517188318022177,-17,34,14,2,1,1,2,-58
1517188318022177,-24,-5,-5,-1,-5,-2,-1,-10
1517188318022177,20,11,-10,-5,-1,-4,4,33
1517188318036171,-6,-17,-17,-5,-4,1,-4,-19
1517188318036171,-34,-3,16,3,0,-1,-1,6
1517188318044176,-2,-43,7,5,-4,0,-4,-20
1517188318044176,-14,26,-2,0,2,0,2,-7
1517188318059192,31,-10,-21,-4,-1,-2,-5,6
1517188318059192,-22,17,2,3,-2,3,-5,-6
1517188318060193,-3,-4,-15,10,1,0,2,40
1517188318060193,-1,-12,0,-3,1,-5,0,-3
1517188318082203,-16,15,9,10,-2,1,1,-3
1517188318082203,12,-26,-21,-11,-6,-3,-3,19
1517188318082203,-1,-7,-2,-24,-6,-2,-7,-23
1517188318082203,-7,-5,-1,5,0,2,-3,4
1517188318096202,7,-6,3,-4,4,-1,11,-12
1517188318096202,-33,-42,1,-4,-2,-3,-7,-3
1517188318104209,12,14,5,9,6,3,5,25
1517188318104209,-9,-6,5,-3,0,0,2,16
1517188318119233,-8,-27,-3,-2,-2,0,2,25
1517188318119233,9,17,-3,5,-1,1,5,10
1517188318120220,-9,9,-11,-8,-3,-2,-4,-16
1517188318120220,-12,-9,-1,-1,-2,2,-7,-11
1517188318141245,17,-15,-7,3,-1,-3,-1,15
1517188318141245,35,69,-16,-1,2,-3,10,34
1517188318142245,-42,-43,19,5,-4,-5,-8,-54
1517188318142245,1,7,-8,-10,-4,-3,-3,22
1517188318156256,4,11,3,-5,0,0,-9,-16
1517188318156256,25,19,28,11,5,-2,5,22
1517188318164251,-16,1,-14,-11,-2,-1,-3,11
1517188318164251,4,2,-9,-1,-6,-2,-11,-21
1517188318179261,4,29,27,-2,1,-3,-2,24
1517188318179261,14,-22,3,2,1,1,14,33
1517188318180273,-11,27,-14,8,5,2,8,23
1517188318180273,4,-13,-1,-3,-8,-5,-9,-33
1517188318202278,-28,6,2,0,2,2,-3,-11
1517188318202278,20,4,-3,9,-2,-2,0,-5
1517188318202278,20,29,-5,-9,-4,-3,-7,-10
1517188318202278,-27,45,-2,-3,1,-4,3,-7
1517188318216356,-7,-5,-1,-3,-4,-2,-4,32
1517188318216356,-3,-36,-14,-2,-1,0,1,-32
1517188318224375,-19,-22,-38,5,2,1,-1,-14
1517188318224375,3,-12,3,1,0,2,3,12
1517188318239385,13,29,6,-10,2,-2,-2,-9
1517188318239385,-29,-12,-4,0,3,1,0,8
1517188318240386,14,-8,-2,-1,-4,0,2,46
1517188318240386,0,17,-10,7,3,-3,4,-37
1517188318262380,1,-20,-14,-1,-1,3,1,0
1517188318262380,2,32,-5,-5,-4,1,4,-13
1517188318262380,-22,-29,26,15,1,-5,-11,-11
1517188318262380,8,-20,-13,-4,1,4,-4,-6
1517188318276459,-15,-34,-24,-5,-7,-1,4,-18
1517188318276459,-11,20,5,-2,-2,-4,-11,7
1517188318284395,4,-27,4,-4,-5,-6,2,45
1517188318284395,13,7,23,2,0,-2,-6,-3
1517188318299431,-38,-3,5,9,-2,-3,-3,7
1517188318299431,35,31,2,-6,0,0,5,8
1517188318300407,3,22,4,-2,0,-1,2,-10
1517188318300407,-14,-60,-56,-3,-2,2,6,19
1517188318321421,21,21,4,-2,2,2,-4,16
1517188318321421,-5,-40,-7,4,-1,-1,-2,14
1517188318322424,-11,21,-13,-2,0,-2,-4,-9
1517188318322424,16,-2,3,-17,-3,0,3,-7
1517188318345438,-15,-25,18,3,-2,-1,1,-7
1517188318345438,3,18,-2,4,5,3,6,20
1517188318345438,7,-22,-19,-2,-2,-3,-9,-16
1517188318345438,13,10,27,-6,-3,-4,-3,-31
1517188318359465,-9,-42,1,5,-2,-3,-10,-68
1517188318359465,-10,-42,-15,-14,-4,-3,-4,1
1517188318360451,10,17,0,3,1,0,4,6
1517188318360451,-10,2,7,10,-2,1,-7,15
1517188318381463,14,15,8,-2,-4,-4,-7,-18
1517188318381463,-8,2,16,-16,-2,-4,-5,12
1517188318382464,28,33,17,5,3,2,-1,-24
1517188318382464,-6,-45,-23,-5,-2,-2,-1,9
1517188318405480,31,34,24,8,6,4,2,24
1517188318405480,-3,-17,1,6,-2,0,-6,-44
1517188318405480,-1,-2,0,-9,-4,-6,-5,5
1517188318405480,1,-1,7,-2,-1,0,1,5
1517188318419531,-12,9,21,-9,-4,-4,1,26
1517188318419531,8,19,-1,8,2,-3,-8,-35
1517188318420508,2,-2,-25,-4,0,-1,11,26
1517188318420508,6,10,17,4,0,-2,-7,-15
1517188318441546,-19,10,-6,2,2,3,6,0
1517188318441546,24,4,-12,-20,-7,-2,5,22
1517188318442509,-21,-23,0,2,-2,-3,-3,-9
1517188318442509,-11,16,3,13,0,-1,0,6
1517188318464522,19,20,-38,-25,-4,-5,-2,24
1517188318464522,15,-11,3,7,-10,-5,-3,-1
1517188318465522,-16,4,59,8,4,5,8,22
1517188318465522,19,34,-4,-15,-6,-7,-3,-4
1517188318479533,-25,-48,8,5,0,-2,-5,-14
1517188318479533,-4,21,26,10,6,2,9,11
1517188318479533,25,42,-29,-12,2,4,6,-5
1517188318479533,-39,-84,-8,6,3,0,-1,3
1517188318501561,25,39,-1,15,3,3,4,9
1517188318501561,-31,-35,-29,-27,-5,-1,-2,-2
1517188318502549,15,-25,-21,-4,-3,-4,-1,16
1517188318502549,4,64,58,12,7,0,-3,-10
1517188318524578,-6,-9,-19,1,-2,0,1,1
1517188318524578,-2,-42,-2,8,0,-2,-5,1
1517188318525569,12,16,10,9,0,-3,-2,-10
1517188318525569,2,19,-28,-14,-5,0,-4,-6
1517188318539585,2,-28,1,5,0,0,3,0
1517188318539585,-30,20,-1,-2,-3,0,3,-28
1517188318539585,-20,-33,-16,1,-1,2,2,-12
1517188318539585,-7,-20,-5,-14,1,3,1,-10
1517188318561592,10,0,-12,-2,7,4,2,12
1517188318561592,19,2,13,36,5,5,3,-3
1517188318562592,-3,2,-25,-16,5,5,6,2
1517188318562592,17,-8,-8,1,-2,2,1,10
1517188318584608,0,16,6,3,-2,-2,-7,9
1517188318584608,-2,-48,-33,-14,2,3,-1,2
1517188318585620,3,26,-6,15,4,-2,-5,-14
1517188318585620,0,48,40,-17,-4,-3,3,12
1517188318599617,-27,-23,-18,4,-9,-2,-4,-15
1517188318599617,25,80,66,-12,9,2,9,22
1517188318600618,22,-86,-68,0,-15,-5,-13,1
1517188318600618,-23,-5,6,4,7,1,8,-12
1517188318621635,-4,1,9,-15,-4,-8,1,1
1517188318621635,5,61,31,6,-2,-5,-4,6
1517188318622634,-23,-41,17,7,-4,0,-4,-47
1517188318622634,20,37,4,-4,-3,-3,-5,13
1517188318644651,1,-26,8,-22,-2,-4,3,-5
1517188318644651,0,-10,-32,26,-8,-7,-6,-7
1517188318645649,-16,45,51,-20,2,-4,4,1
1517188318645649,22,-45,-26,2,-4,2,0,13
1517188318659675,-14,6,-20,-10,-5,-7,-3,2
1517188318659675,60,-22,-67,-9,1,1,-4,-2
1517188318659675,-16,11,42,4,6,-1,-1,-7
1517188318659675,14,-46,-33,8,-4,-6,1,22
1517188318681688,-7,47,-11,12,-1,1,-1,-11
1517188318681688,-15,-19,7,-6,-4,-3,-2,11
1517188318682676,17,67,27,0,4,-1,-1,18
1517188318682676,-5,-18,-6,13,4,4,7,-29
1517188318704694,9,11,7,-2,3,7,11,16
1517188318704694,-10,-23,-32,12,-4,-3,-3,-13
1517188318705692,-2,-2,0,-16,1,1,4,-8
1517188318705692,-20,27,18,14,6,0,-4,-28
1517188318719702,7,-45,8,4,-7,-3,-6,-7
1517188318719702,-39,-24,10,-13,1,3,4,10
1517188318719702,-6,14,4,2,-3,0,-3,6
1517188318719702,-15,-92,-13,11,0,2,-1,-1
1517188318749781,13,10,3,-6,-4,-3,-1,-16
1517188318749781,-18,35,13,-5,2,1,5,25
1517188318750764,22,-30,-37,-4,-2,-1,-2,-5
1517188318750764,-13,34,15,7,-2,-1,1,6
1517188318764785,1,25,14,-6,-3,-4,-15,-3
1517188318764785,0,7,-6,0,-3,4,6,-8
1517188318765775,-27,3,-4,-18,-5,4,2,32
1517188318765775,0,-52,-33,-11,-13,-12,-10,-7
1517188318778784,13,17,60,-8,-4,-4,-1,8
1517188318778784,14,43,19,-16,-6,-4,-14,-29
1517188318779783,3,4,11,1,1,-2,3,18
1517188318779783,29,36,43,-1,3,1,2,-14
1517188318801800,-34,-45,-65,2,-5,-4,-7,-13
1517188318801800,-9,-13,-35,-9,4,1,2,5
1517188318802800,12,4,19,17,-5,-3,-5,-43
1517188318802800,-31,31,25,-12,1,-1,-3,-9
1517188318824826,-1,14,-35,2,-3,-1,-1,12
1517188318824826,-6,3,18,18,6,3,6,-18
1517188318825816,20,16,-2,1,5,4,18,25
1517188318825816,-19,-66,-107,-46,-14,-8,-2,4
1517188318838836,28,84,29,30,8,3,-3,-11
1517188318838836,12,55,45,-13,2,-4,-2,12
1517188318839835,16,-27,-14,0,0,-1,-4,-6
1517188318839835,-2,39,-1,7,1,-2,8,2
1517188318861846,31,40,-6,-8,4,1,-8,12
1517188318861846,5,-38,-55,-22,-8,-10,-4,-23
1517188318862846,-15,-9,15,5,-8,-4,-12,-10
1517188318862846,22,48,35,6,9,4,2,27
1517188318884859,22,9,12,-6,-3,-4,3,14
1517188318884859,-10,-41,-35,13,4,2,10,17
1517188318885859,1,108,51,4,10,3,-1,-14
1517188318885859,0,-107,-59,-12,-17,-6,-11,-23
1517188318898888,-39,-17,14,2,3,1,10,2
1517188318898888,18,16,-5,9,-2,2,-4,-4
1517188318906892,-34,-76,13,-11,-4,-1,8,7
1517188318906892,39,48,17,22,9,1,-6,5
1517188318921894,-3,-71,-55,-12,-5,-2,0,-10
1517188318921894,-45,-30,52,-6,-8,-4,-10,11
1517188318922895,-4,-1,-14,0,-3,-5,-10,-11
1517188318922895,-26,14,49,3,-7,-4,3,15
1517188318944901,4,17,0,-17,1,-6,-10,-18
1517188318944901,6,44,21,-7,6,5,2,17
1517188318945902,-17,-91,-26,4,-10,-3,-5,-36
1517188318945902,-9,62,9,-11,4,2,-4,-11
1517188318958921,-7,-47,-8,7,-3,1,1,27
1517188318958921,3,-40,-1,9,-7,-4,-9,-28
1517188318966927,-15,40,1,0,10,4,2,8
1517188318966927,12,39,-4,-2,1,-3,-1,8
1517188318981937,-38,-86,-23,-17,-16,-4,-6,-26
1517188318981937,15,46,24,9,-2,-2,-8,-8
1517188318982955,11,39,-49,-9,1,0,8,40
1517188318982955,-48,-85,-33,-16,-13,-6,-4,-36
1517188319004953,20,83,35,25,17,2,8,18
1517188319004953,-13,-49,-25,-6,-3,-4,4,6
1517188319005953,-5,30,32,3,1,1,-2,-3
1517188319005953,14,56,13,8,-1,0,-3,13
1517188319018963,-15,-59,-29,-11,-12,-5,-11,-12
1517188319018963,-11,32,-10,-4,2,-5,-7,-15
1517188319026969,17,96,23,-5,3,-3,2,0
1517188319026969,-34,-101,-45,-5,-5,2,-5,10
1517188319041979,13,37,60,11,3,3,5,10
1517188319041979,-6,-30,-52,-15,0,0,13,-2
1517188319041979,64,37,51,7,-1,-3,-13,12
1517188319041979,0,44,-19,4,2,0,0,-57
1517188319064987,0,20,12,-7,-6,-7,-2,-2
1517188319064987,-24,10,1,0,-2,1,-3,2
1517188319065996,21,-2,-2,-9,-2,-3,-4,-8
1517188319065996,-12,-13,17,3,2,-3,0,13
1517188319078996,5,18,45,7,1,0,-7,-11
1517188319078996,21,1,-5,-7,-6,-6,-3,-9
1517188319087011,-30,-30,-4,-2,1,1,2,-5
1517188319087011,5,-57,-36,-5,-8,1,-2,5
1517188319102021,-26,-8,-13,-3,-9,-3,1,-16
1517188319102021,14,58,27,16,9,2,3,10
1517188319103022,-3,-1,-55,-35,-2,-1,-5,13
1517188319103022,7,75,90,33,10,1,2,21
1517188319125038,33,-54,-12,-7,-3,3,1,5
1517188319125038,-45,-25,6,17,-1,2,-4,-13
1517188319126029,2,-37,-29,-2,-10,-3,0,-2
1517188319126029,10,40,33,15,9,-1,2,-6
1517188319139052,6,31,7,-1,8,4,6,10
1517188319139052,4,-33,7,0,-4,-2,-7,2
1517188319147053,-30,-18,-58,-12,-5,-4,-9,-13
1517188319147053,-4,-68,27,-3,-2,2,11,27
1517188319162055,-19,13,-45,2,7,4,5,-6
1517188319162055,10,45,17,12,-1,-1,-5,-10
1517188319162055,-13,-43,-9,-23,-2,-5,-5,-3
1517188319162055,6,21,9,-5,-1,1,1,2
1517188319185093,5,3,21,2,-1,1,-3,-30
1517188319185093,12,4,17,13,8,7,9,13
1517188319186071,8,-25,-50,10,-6,2,-5,-44
1517188319186071,-11,85,13,-5,4,-1,3,23
1517188319199094,-15,-80,-70,3,-6,-3,-13,-12
1517188319199094,-20,17,1,-20,-3,-2,-1,3
1517188319207109,5,-28,6,14,-1,-3,1,7
1517188319207109,30,-6,7,-8,-3,-3,-3,-4
1517188319222116,-10,42,50,12,0,-2,5,8
1517188319222116,-3,-56,-53,-19,-4,-2,-1,6
1517188319222116,4,-8,-23,13,-1,0,-4,2
1517188319222116,20,-52,-27,1,-5,-4,0,7
1517188319245139,-25,78,3,-6,2,0,1,-1
1517188319245139,29,-27,-1,1,4,-5,-5,-5
1517188319246118,-15,49,53,17,6,-1,-2,11
1517188319246118,7,37,-21,-21,-9,-2,5,2
1517188319267155,-11,-57,-46,-9,-2,0,-3,-18
1517188319267155,25,73,23,-5,1,-6,1,22
1517188319268130,-22,3,9,18,-2,-2,-1,-17
1517188319268130,-9,-3,-7,2,5,1,-12,8
1517188319282140,16,23,31,-7,-3,-2,6,10
1517188319282140,-3,43,9,0,1,-3,-2,-5
1517188319282140,-41,-101,-27,-9,-11,-5,4,17
1517188319282140,11,56,34,0,-1,-3,-3,-10
1517188319305173,-4,25,6,4,0,1,-3,-9
1517188319305173,14,-35,-24,1,2,1,-1,13
1517188319306156,19,105,39,9,8,3,5,4
1517188319306156,-8,-33,-11,-3,-1,1,-5,-12
1517188319327213,0,-38,-9,9,0,1,2,16
1517188319327213,1,-6,17,-14,-4,-3,0,-5
1517188319328172,-27,-13,0,4,0,-2,-3,-3
1517188319328172,12,17,-32,-9,-2,2,-5,-4
1517188319342198,5,-25,27,-2,2,0,-2,0
1517188319342198,0,9,9,6,-3,7,7,11
1517188319342198,-14,-40,-24,-17,-7,-5,-11,-31
1517188319342198,-2,22,26,9,4,1,-1,4
1517188319365208,-10,-53,-25,1,-6,-5,-1,9
1517188319365208,36,9,0,-4,3,3,-2,-26
1517188319366201,4,10,6,-6,0,1,-4,1
1517188319366201,-38,-43,-1,27,-3,-1,-1,-23
1517188319387223,15,49,-19,-31,-2,-2,-4,2
1517188319387223,-7,-32,-15,13,-5,-6,-7,20
1517188319388214,0,0,18,-9,1,2,3,-21
1517188319388214,-3,-37,-15,1,-4,-4,-4,-3
1517188319402228,-3,16,24,12,1,-2,6,20
1517188319402228,12,-3,-31,1,-2,5,-5,-12
1517188319402228,1,23,-16,-12,0,3,8,33
1517188319402228,-15,-30,-14,-9,-5,-5,2,4
1517188319425250,26,24,0,-6,-6,-5,-2,13
1517188319425250,-8,66,77,4,8,-1,9,1
1517188319425250,-6,-63,-65,-5,-9,-5,-11,-22
1517188319425250,-29,-42,-58,-1,-1,1,-4,-14
1517188319447265,6,11,0,-11,3,1,-4,-5
1517188319447265,-17,-18,-43,-15,-8,-5,-1,-7
1517188319448256,10,33,58,1,3,-4,2,4
1517188319448256,-22,-6,-23,7,-1,2,1,-4
1517188319462277,-1,7,7,-1,-2,-2,-5,-2
1517188319462277,8,-29,1,-13,-4,-2,0,-12
1517188319462277,6,25,32,10,5,0,2,11
1517188319462277,41,40,20,-3,-5,-4,0,0
1517188319485297,8,27,-8,4,-1,2,3,-7
1517188319485297,-54,-51,-22,13,-2,-2,-2,-10
1517188319485297,18,11,-16,-13,-1,-3,1,16
1517188319485297,20,40,8,-17,2,-3,4,16
1517188319507321,-21,-34,17,9,0,3,0,-9
1517188319507321,6,-26,-22,-3,-2,-3,-4,-19
1517188319508308,-11,-34,-14,6,1,1,-2,-3
1517188319508308,-22,-9,0,-2,-1,-1,-2,13
1517188319522308,7,14,21,5,6,2,8,-24
1517188319522308,-3,-15,-38,-14,-4,1,0,22
1517188319522308,26,43,52,30,7,1,-1,-7
1517188319522308,-24,18,53,-8,6,2,2,8
1517188319545326,7,-20,-49,-11,-9,-4,-9,4
1517188319545326,-2,34,53,6,5,-4,2,11
1517188319545326,12,12,-13,-13,-8,-3,1,-20
1517188319545326,-22,0,-9,12,8,3,0,-7
1517188319567361,6,44,32,-2,2,2,-1,8
1517188319567361,-13,-94,-18,-14,-12,-3,-1,-11
1517188319568344,5,36,17,9,2,2,3,12
1517188319568344,16,-34,-12,-2,-8,-6,-14,-23
1517188319581350,-35,22,52,5,0,-2,0,-11
1517188319581350,24,-21,17,23,0,1,-3,-2
1517188319582351,-9,-20,-24,-9,0,3,13,27
1517188319582351,-10,-28,1,-4,-2,1,0,4
1517188319605389,24,17,7,6,0,-3,1,0
1517188319605389,-39,-15,21,14,5,3,3,-1
1517188319606369,6,19,-1,-1,1,3,1,11
1517188319606369,1,-6,-40,-7,4,0,8,15
1517188319627451,-20,-34,13,0,-4,0,-10,-19
1517188319627451,5,5,-49,-6,-2,-3,-5,-12
1517188319629387,17,5,-4,-8,2,0,-4,4
1517188319629387,-2,1,-1,-3,3,2,10,-9
1517188319641414,19,43,-12,7,-1,-2,-1,7
1517188319641414,36,-42,-5,-12,-4,-4,-5,9
1517188319650401,-18,-23,-5,6,-2,-7,-7,-69
1517188319650401,19,17,21,0,-2,0,1,11
1517188319665430,-24,16,24,-4,-1,-2,-4,0
1517188319665430,10,-17,-46,3,3,6,8,-2
1517188319666412,-6,3,16,-17,-8,-4,-7,2
1517188319666412,25,-17,11,6,-3,-1,0,4
1517188319687440,-5,-11,-28,-5,-2,-4,4,2
1517188319687440,-20,34,25,2,-2,-1,-5,-16
1517188319689437,33,15,-22,-20,-5,-3,-7,-4
1517188319689437,14,2,6,11,-1,-1,-1,8
1517188319701451,-27,-28,-30,-11,1,3,-2,-2
1517188319701451,-44,12,-4,13,-2,-1,5,14
1517188319710443,-8,-3,22,-2,7,1,-2,2
1517188319710443,-13,9,14,6,-2,0,1,-12
1517188319725468,4,-35,-44,-13,-2,-2,-6,-16
1517188319725468,17,8,5,2,4,0,-1,17
1517188319726453,-3,5,-2,2,-5,-3,2,-5
1517188319726453,-23,-40,-60,-16,-5,-3,-5,-5
1517188319747479,18,29,50,16,3,-1,4,21
1517188319747479,-19,15,35,-10,-4,-5,-6,-10
1517188319749481,2,-34,-14,12,5,7,-2,4
1517188319749481,-1,-4,6,-14,-2,-4,-11,2
1517188319761478,21,34,23,14,0,-2,4,-4
1517188319761478,11,-55,-98,-24,-6,-1,-1,7
1517188319770500,-6,47,42,-17,-5,-7,-1,17
1517188319770500,14,29,39,14,-3,0,-1,2
1517188319784495,-19,-52,-21,-18,-10,-6,-10,-31
1517188319784495,19,52,41,-6,0,0,-4,-5
1517188319786496,-36,-81,-22,6,-5,3,7,7
1517188319786496,1,58,1,-10,0,-3,0,7
1517188319807513,0,-55,7,-5,4,0,3,17
1517188319807513,2,-6,5,17,6,0,0,-13
1517188319809529,3,18,-5,8,7,0,5,10
1517188319809529,-1,43,50,7,2,-1,0,4
1517188319821536,12,42,24,4,2,3,3,5
1517188319821536,-9,-38,0,-16,-9,-2,0,-12
1517188319830527,-15,10,-59,6,4,2,6,35
1517188319830527,-11,5,2,-6,-1,0,-2,-31
1517188319844609,32,36,-7,1,-6,-3,1,18
1517188319844609,-9,-29,-48,-12,-3,-2,-5,1
1517188319846610,8,54,37,11,5,5,-2,-18
1517188319846610,14,-60,-33,-3,-6,-2,-1,4
1517188319867640,1,2,-31,0,-3,1,1,2
1517188319867640,-4,11,1,-9,-3,-2,4,13
1517188319868641,-2,25,37,26,6,2,0,-3
1517188319868641,-14,-78,-30,-8,-1,-1,0,-6
1517188319880634,5,-5,-3,-5,5,8,0,-21
1517188319880634,1,61,2,21,3,5,2,10
1517188319889651,10,-7,-46,-24,-13,-11,-10,5
1517188319889651,-6,10,16,0,3,5,1,-44
1517188319904661,-31,-2,51,22,6,-3,-5,12
1517188319904661,7,-36,-63,10,0,2,-5,-6
1517188319906663,12,-17,30,-2,-1,3,0,-15
1517188319906663,3,0,-33,-11,-1,-5,-7,9
1517188319927678,2,33,-8,10,7,0,2,8
1517188319927678,4,4,68,13,1,-2,-6,-9
1517188319928669,-17,10,-2,4,-5,-3,0,-23
1517188319928669,21,36,11,-11,-2,-4,-1,4
1517188319940687,4,28,-5,-9,-2,-3,0,-8
1517188319940687,-16,-13,24,-13,-2,-8,-10,10
1517188319949682,-14,-56,0,-18,-10,-6,-4,2
1517188319949682,17,1,-30,10,-2,3,1,-2
1517188319965695,7,-19,3,-13,-5,-3,-4,14
1517188319965695,15,65,24,7,6,-1,1,-7
1517188319966695,4,-3,14,1,5,4,7,32
1517188319966695,32,12,-1,15,5,1,2,-8
1517188319987735,-3,-45,-33,-9,-2,2,6,20
1517188319987735,-16,-46,9,-14,-11,-6,-6,-14
1517188319988710,32,17,-24,-1,1,-2,-4,-2
1517188319988710,1,-9,16,-12,-3,-2,-2,22
1517188320000719,-9,-26,36,-6,-5,-4,10,-4
1517188320000719,-41,-71,-20,-8,-8,-4,-5,-13
1517188320009726,9,31,-5,5,0,-1,1,-7
1517188320009726,-21,-3,20,-7,-3,-2,-1,8
1517188320024750,-6,-29,23,-3,-5,-5,-14,-19
1517188320024750,-13,43,28,2,-2,0,-3,-6
1517188320026748,-15,-30,-15,-15,-4,-5,1,10
1517188320026748,-34,-8,-21,17,3,2,0,1
1517188320047768,20,-39,-71,-19,-4,1,0,11
1517188320047768,-26,40,28,10,3,6,-1,5
1517188320048753,19,19,-12,5,2,0,1,-1
1517188320048753,-13,19,81,3,2,-1,-4,-3
1517188320060816,-18,-14,-49,10,-4,-1,-1,-4
1517188320060816,15,92,22,-15,1,0,2,-16
1517188320069769,-6,-29,2,-3,-2,-4,1,2
1517188320069769,-2,6,-13,10,2,2,1,7
1517188320084798,-17,3,1,11,-2,-1,0,5
1517188320084798,44,37,-31,-3,8,-2,8,23
1517188320086798,-51,-62,-14,-20,-12,-1,-4,-35
1517188320086798,3,36,24,2,0,-2,-4,-16
1517188320107801,13,-48,-29,-8,-5,-3,3,4
1517188320107801,-21,5,14,-2,-1,2,2,0
1517188320108797,8,18,27,-5,-7,-6,-6,8
1517188320108797,-4,-78,-58,-5,-9,-3,-5,-10
1517188320120823,-8,-2,17,4,3,0,-5,-8
1517188320120823,0,11,31,-2,-1,-3,8,1
1517188320129810,15,-20,-15,13,3,4,2,-11
1517188320129810,-11,50,16,-4,-3,-5,2,18
1517188320145904,-17,-47,-71,-16,-5,-2,-6,-15
1517188320145904,18,17,-12,9,5,2,-1,-4
1517188320146886,11,44,33,8,5,0,-4,18
1517188320146886,5,-27,-19,-14,-12,-8,-4,-20
1517188320166901,24,44,4,15,13,6,10,1
1517188320166901,-9,-29,-13,-11,-6,-7,-13,-12
1517188320168903,-14,-30,24,-25,-1,-2,-7,3
1517188320168903,30,29,-12,11,2,0,-2,18
1517188320189984,-16,-39,-19,1,-8,-6,-5,-29
1517188320189984,-12,-45,-29,-8,-1,0,-1,-2
1517188320191941,29,50,19,13,6,-1,3,7
1517188320191941,-20,-57,-37,-7,-5,-3,-1,2
1517188320204938,-1,50,24,-3,-2,1,-4,7
1517188320204938,-36,32,23,14,3,-1,-2,-3
1517188320206933,-16,-42,-7,10,-2,-1,-4,-11
1517188320206933,-2,-21,-50,-27,-8,0,-4,-3
1517188320227947,13,65,26,-14,0,-4,3,12
1517188320227947,26,-3,4,-4,-4,-2,4,6
1517188320228945,-4,5,-11,5,3,0,1,6
1517188320228945,-17,5,-7,-3,-4,-6,-4,8
1517188320249970,6,28,49,16,4,0,-1,-37
1517188320249970,16,-42,-7,-6,-2,-1,-2,-2
1517188320251971,-15,38,-12,-6,-2,-2,1,-6
1517188320251971,-10,-3,50,-1,-1,-2,-3,0
1517188320264975,-5,-15,-58,-3,-6,3,0,5
1517188320264975,10,-1,9,-17,-9,-10,-8,-10
1517188320266981,0,-7,11,19,4,3,1,0
1517188320266981,9,44,52,23,6,3,7,7
1517188320286995,2,-26,-17,-14,5,4,4,-6
1517188320286995,-6,3,-31,-3,-7,-5,-13,-21
1517188320288987,8,-30,-4,-6,-4,-4,-10,-24
1517188320288987,20,47,-4,-1,0,1,6,8
1517188320310012,-12,-32,27,19,-1,-3,-2,2
1517188320310012,21,69,11,-14,5,2,6,24
1517188320312014,7,-42,3,30,8,8,4,-10
1517188320312014,-48,20,10,-9,2,3,-5,-15
1517188320325021,-12,75,33,17,7,5,2,9
1517188320325021,6,10,-16,1,3,-2,3,27
1517188320326023,3,43,-14,4,-1,-3,0,6
1517188320326023,-9,-36,-21,2,-5,3,6,8
1517188320347027,8,-36,19,-9,-4,-7,-13,1
1517188320347027,-12,8,28,-3,4,1,0,-4
1517188320349030,-17,16,-27,-7,-3,-1,-3,4
1517188320349030,14,-52,21,4,-3,-1,-7,-21
1517188320370056,-16,17,40,-15,-1,-3,1,17
1517188320370056,3,-12,-20,-2,-4,1,2,-5
1517188320371045,-6,-70,-26,-1,-8,-5,-3,-7
1517188320371045,22,65,-10,-6,4,2,5,6
1517188320384060,27,54,10,8,6,-2,3,-3
1517188320384060,-60,-121,-24,-11,-16,-6,-8,-21
1517188320391062,12,6,-42,0,-1,0,-7,-4
1517188320391062,19,40,23,10,3,0,-2,-2
1517188320406081,8,-36,-25,-5,-7,0,-1,-5
1517188320406081,-8,59,20,19,8,4,1,-4
1517188320415077,-10,-30,5,-9,0,-5,-1,3
1517188320415077,-11,-37,-25,-24,-7,-6,0,5
1517188320430136,22,-50,-64,25,4,-1,-6,0
1517188320430136,21,11,-13,-9,7,4,3,2
1517188320431137,6,10,66,3,4,2,7,-4
1517188320431137,-40,-12,-48,-27,-12,-13,-18,-24
1517188320444150,-11,15,-2,0,-3,1,1,-1
1517188320444150,19,27,27,13,0,2,4,3
1517188320451154,1,24,-11,-11,-4,-5,-2,-2
1517188320451154,16,72,50,20,11,5,13,9
1517188320467163,-48,-28,21,-22,-7,-5,-7,-7
1517188320467163,9,-34,38,21,10,3,6,16
1517188320469154,-6,9,-71,-18,-14,-4,-5,-8
1517188320469154,-1,2,10,19,5,5,3,-11
1517188320490178,6,23,12,1,-4,-2,1,4
1517188320490178,-13,22,-19,-5,-1,-2,4,16
1517188320492169,8,1,5,-7,5,-1,0,-1
1517188320492169,-16,-40,29,-2,-8,-5,-3,3
1517188320504188,8,22,-11,5,-1,1,1,0
1517188320504188,30,11,-2,4,-1,0,0,-2
1517188320511193,-26,30,28,-26,-5,-5,0,14
1517188320511193,-8,-27,-47,-9,-4,-3,-2,-8
1517188320527208,-9,-23,23,0,-2,-2,-5,-5
1517188320527208,3,6,27,-14,-1,-4,-3,-2
1517188320529197,1,27,16,16,6,0,5,0
1517188320529197,35,67,36,10,9,4,1,6
1517188320550233,-34,-68,-49,-23,-10,-7,-6,-9
1517188320550233,2,1,-9,2,-6,-4,-1,-2
1517188320551212,4,2,33,-17,-6,-3,-4,-1
1517188320551212,-4,-19,-16,4,4,0,0,-2
1517188320564238,24,11,-6,6,1,0,2,3
1517188320564238,0,-9,-2,6,-2,-1,-3,-8
1517188320571226,-35,-48,-54,-10,-8,0,1,8
1517188320571226,29,-1,8,-17,0,-1,-11,-17
1517188320587253,8,-25,-3,-9,-5,-1,8,-5
1517188320587253,-14,-9,-17,2,0,-2,-4,1
1517188320589240,2,-16,15,10,2,3,-3,-2
1517188320589240,-9,-29,-37,1,-4,-2,1,-3
1517188320610264,1,38,18,-4,4,1,2,7
1517188320610264,22,-31,3,4,-7,-2,1,21
1517188320611254,6,6,9,12,3,0,0,-31
1517188320611254,-2,0,-14,-5,-5,-2,-4,-7
1517188320624273,-7,4,10,4,3,-2,0,4
1517188320624273,-1,-27,-46,3,-4,2,-7,-5
1517188320631268,5,47,26,-15,-2,-3,2,13
1517188320631268,8,45,2,19,5,1,9,19
1517188320655290,-2,-21,8,-15,-4,-6,-8,-7
1517188320655290,3,41,50,3,8,0,6,1
1517188320656286,20,-25,-37,3,1,-1,-2,-2
1517188320656286,-11,4,61,-1,-2,1,8,11
1517188320670296,14,23,16,7,5,1,-2,13
1517188320670296,-13,47,-4,5,4,6,-4,-73
1517188320671322,16,-4,-1,3,0,1,0,13
1517188320671322,-32,-37,-20,-2,-5,-2,-5,-2
1517188320683319,5,32,-9,-16,-8,-1,-8,-8
1517188320683319,-20,-80,-7,8,4,1,4,-2
1517188320693322,16,-16,-17,-3,1,3,8,22
1517188320693322,7,6,-3,5,-2,-1,-2,-25
1517188320707335,-11,-11,-41,-19,-4,-1,4,18
1517188320707335,-9,11,-44,-6,-1,-4,0,8
1517188320709334,-15,43,11,7,-1,3,-5,-36
1517188320709334,18,-56,10,0,2,-1,0,22
1517188320730338,-6,-24,-5,-2,-5,-3,-3,3
1517188320730338,1,6,-12,2,-1,1,-2,2
1517188320731340,0,-4,12,-4,0,0,-2,13
1517188320731340,4,15,7,-2,-3,-4,-7,-9
1517188320743420,-10,15,-14,8,-2,-2,-5,-13
1517188320743420,-10,3,-13,-13,-3,-4,-4,7
1517188320752412,-7,9,28,-1,-5,-6,-2,1
1517188320752412,-10,-54,-24,-6,-6,-3,-6,4
1517188320767439,5,22,25,7,1,-1,1,-9
1517188320767439,1,-72,-1,-6,1,-2,-4,3
1517188320769445,-14,22,19,2,1,2,-2,-1
1517188320769445,6,14,-6,1,-2,0,1,-3
1517188320790450,18,-5,15,7,2,-1,3,-2
1517188320790450,-11,39,24,6,1,0,0,-1
1517188320792451,-4,-18,-30,-4,0,-2,-2,1
1517188320792451,3,7,-14,-15,-1,0,4,7
1517188320803450,19,16,35,9,2,0,4,24
1517188320803450,-29,-2,-40,-27,-11,-8,-7,-21
1517188320812456,-14,-24,-1,5,2,-1,-3,-4
1517188320812456,2,26,-9,5,0,1,4,-2
1517188320827488,-6,1,7,13,3,4,3,7
1517188320827488,10,10,1,0,-4,0,4,1
1517188320828466,13,51,29,4,-1,-2,-5,4
1517188320828466,10,-27,-31,-35,-10,-7,0,8
1517188320857509,-15,-18,-3,-2,0,0,-1,-16
1517188320857509,27,21,-6,4,1,1,-3,3
1517188320859488,-8,-31,15,-5,-1,-3,0,-9
1517188320859488,14,16,10,11,3,3,0,-2
1517188320863491,-30,13,-18,-10,-5,-2,0,-2
1517188320863491,3,-6,2,-1,-2,-2,-3,4
1517188320872497,9,-14,5,2,-1,0,2,8
1517188320872497,29,30,4,1,2,-1,0,3
1517188320894523,-20,-103,-27,-3,-3,1,0,-12
1517188320894523,2,8,4,3,3,0,0,8
1517188320896515,-1,14,-44,0,0,-1,0,-2
1517188320896515,-19,-9,11,8,2,-2,-1,-4
1517188320909524,6,25,13,-1,1,4,1,-1
1517188320909524,0,-70,-13,-1,-1,-3,-3,3
1517188320911525,0,-8,-12,-2,-1,-1,-3,-6
1517188320911525,-26,-76,13,10,-6,-2,-4,-7
1517188320932539,16,45,-11,-6,-5,-7,-3,3
1517188320932539,-1,19,-3,-2,2,2,7,4
1517188320934540,-5,-24,5,-5,-8,-3,-4,3
1517188320934540,-19,-6,1,-4,2,-1,-3,1
1517188320947551,-10,-36,10,12,2,0,3,8
1517188320947551,26,11,32,3,3,1,-1,-16
1517188320948552,-19,13,-34,5,-4,1,1,-4
1517188320948552,23,41,10,2,-5,-3,0,-3
1517188320969566,-5,17,2,-12,0,-3,0,3
1517188320969566,-2,1,-11,-5,-2,-3,-1,8
1517188320971568,8,3,21,-6,1,0,2,-3
1517188320971568,-6,-7,-14,5,0,1,-1,-3
1517188320983577,-7,8,-21,2,1,0,-1,-3
1517188320983577,-7,14,12,-14,-7,-3,-3,-1
1517188320993583,1,-2,-8,7,3,-3,-1,-4
1517188320993583,-12,2,2,-2,-3,0,-1,1
1517188321007593,7,3,2,-2,2,3,-1,-5
1517188321007593,-10,-4,-10,4,0,-1,-4,-2
1517188321008594,-2,-15,2,-6,-3,-1,-4,-1
1517188321008594,6,15,11,4,2,0,1,2
1517188321029610,9,-1,1,0,-1,-1,-1,-1
1517188321029610,-7,-2,5,-3,-2,0,-1,1
1517188321035658,-6,5,11,1,2,1,-3,-4
1517188321035658,-5,2,3,4,0,-1,-3,-8
1517188321043726,3,-16,-44,-1,-5,-3,-3,0
1517188321043726,-13,9,-4,-2,-3,0,2,2
1517188321052733,7,5,13,-2,2,1,0,2
1517188321052733,-2,4,8,6,0,1,1,0
1517188321067749,-11,10,11,-2,-1,-3,-2,-4
1517188321067749,2,24,10,0,1,-1,-1,-1
1517188321068733,4,-3,-20,-4,-3,-1,-2,0
1517188321068733,-7,-1,-7,-1,4,-2,-1,0
1517188321088751,1,-3,5,3,1,0,0,-4
1517188321088751,3,-2,4,-5,0,-1,0,-1
1517188321097755,-6,3,-1,6,0,-2,0,-5
1517188321097755,-2,-3,-3,0,-2,0,0,2
1517188321103772,7,11,21,0,-2,-2,-3,-2
1517188321103772,-6,5,-17,-2,-4,-4,-1,1
1517188321112772,-2,-6,6,5,1,1,-3,-12
1517188321112772,-3,-14,-30,-13,-4,-3,-1,0
1517188321127777,-1,-21,-4,2,2,1,-1,-4
1517188321127777,3,-6,3,5,2,-1,0,-2
1517188321128778,-6,2,-2,-6,1,1,0,1
1517188321128778,0,7,3,3,-1,1,1,2
1517188321149806,2,20,5,-2,0,-2,-1,-2
1517188321149806,0,-3,-13,-2,-1,-1,-4,4
1517188321151807,2,-14,2,1,-2,-3,-1,1
1517188321151807,7,3,10,-5,-2,-1,-2,-1
1517188321172807,-7,8,-4,-1,-2,-2,0,3
1517188321172807,-1,5,13,1,0,0,-3,-2
1517188321174808,5,-9,-1,0,0,-3,2,3
1517188321174808,-9,-14,3,1,0,3,3,-2
1517188321187831,5,-9,-11,1,-3,-1,-4,-12
1517188321187831,-20,-28,-2,-6,-6,-3,-5,-8
1517188321188820,6,49,4,0,3,2,0,-3
1517188321188820,-1,-52,-5,0,-6,-1,-1,2
1517188321209834,3,11,30,5,-1,-4,-1,3
1517188321209834,5,13,7,-6,-2,-1,1,0
1517188321211834,0,-4,-11,-3,-3,-3,3,3
1517188321211834,1,5,13,5,0,-3,-3,-4
1517188321232850,-3,24,9,-5,-1,-1,-3,-1
1517188321232850,4,-12,-4,0,1,-3,-3,0
1517188321233851,-4,-21,-4,-7,-3,1,-3,0
1517188321233851,3,20,-4,0,-1,1,0,-1
1517188321247861,1,-5,8,1,-3,0,1,0
1517188321247861,2,7,-12,-2,-3,-3,-2,-5
1517188321253865,16,2,-8,-12,-1,-2,-2,2
1517188321253865,-10,-18,9,-2,0,-2,-1,6
1517188321269876,-7,16,2,-3,-1,-1,-5,-4
1517188321269876,0,13,10,7,0,3,3,-2
1517188321271881,-5,-28,-13,0,-3,-3,-1,2
1517188321271881,12,31,22,4,5,-1,2,2
1517188321292904,-17,-20,-15,-4,0,-2,0,-1
1517188321292904,-6,-7,-5,-4,1,-2,0,0
1517188321294894,-2,7,-4,2,0,1,-2,-1
1517188321294894,4,15,5,-1,-1,2,0,-4
1517188321306912,9,-16,-19,5,1,0,2,6
1517188321306912,-3,-7,6,-2,-2,1,-4,-1
1517188321313922,-7,5,-10,-13,-4,-1,-1,-2
1517188321313922,4,-5,3,-3,-2,-1,-4,-6
1517188321329919,1,-4,1,3,-1,-1,3,1
1517188321329919,19,3,-3,7,-1,3,2,3
1517188321331921,-24,-23,-8,-8,-6,-4,-2,-1
1517188321331921,-2,32,15,1,0,-4,0,-2
1517188321352948,-1,17,-7,-2,-1,0,-3,-5
1517188321352948,15,-31,-5,1,-1,0,2,19
1517188321354949,-29,4,-7,5,1,-1,-5,-33
1517188321354949,35,12,-1,5,3,1,0,14
1517188321366959,-47,-23,-4,-10,-4,-4,1,-5
1517188321366959,1,27,6,1,1,-2,-2,1
1517188321373962,-11,45,23,-1,0,0,0,3
1517188321373962,-13,-50,-36,-3,-4,-4,0,-2
1517188321389975,12,20,32,8,0,-3,-5,1
1517188321389975,-8,8,-28,-6,1,-1,0,-6
1517188321391974,12,-6,10,2,-3,-1,0,6
1517188321391974,-7,17,9,-2,-5,0,-5,-10
1517188321412979,9,-6,-10,0,1,1,2,5
1517188321412979,-9,2,3,-6,-2,-2,-2,-8
1517188321413993,18,-6,6,4,1,-2,-1,1
1517188321413993,-10,-12,-16,-9,-2,-1,0,5
1517188321427002,7,3,-4,0,1,-2,-5,-3
1517188321427002,-10,2,5,-2,0,-1,-2,0
1517188321434004,14,-12,-4,6,2,-1,1,-1
1517188321434004,1,-4,6,-10,-2,-1,-1,-7
1517188321450015,1,8,9,2,2,2,6,13
1517188321450015,-17,-22,-8,-5,-5,-3,-2,-9
1517188321452006,7,22,2,8,4,2,5,13
1517188321452006,-12,-61,-38,-2,-8,-5,-7,-8
1517188321472021,18,6,7,1,0,1,-5,-28
1517188321472021,-5,-3,21,-10,-2,-2,-3,-10
1517188321474021,19,15,-5,0,2,0,0,-2
1517188321474021,-12,9,-4,-2,-3,-1,0,-3
1517188321487040,-1,-8,-2,-5,-1,-2,1,9
1517188321487040,12,3,-14,4,-1,-1,0,1
1517188321493046,-7,16,8,0,-1,-1,-1,-3
1517188321493046,1,19,9,0,-2,1,0,0
1517188321510063,-2,-11,-7,-1,-2,-1,-4,2
1517188321510063,0,10,1,-1,1,-1,1,2
1517188321511047,-1,-17,1,-3,-1,0,-1,-1
1517188321511047,-3,5,0,3,1,1,0,4
1517188321532065,-3,-5,-3,-2,-3,-2,1,0
1517188321532065,0,-5,-6,-3,0,0,-2,0
1517188321534063,-5,-15,-4,-2,-3,-1,-2,2
1517188321534063,2,18,1,2,1,-1,-1,-6
1517188321547072,0,-2,-6,-1,0,0,-1,-2
1517188321547072,3,-4,-2,-5,0,0,1,5
1517188321553086,-5,-20,4,2,-5,-1,-2,1
1517188321553086,-3,10,7,-4,2,-2,2,-2
1517188321570088,7,-6,-8,-4,-1,-1,-1,24
1517188321570088,-9,-3,-8,2,0,-2,-4,8
1517188321572090,-3,-8,-3,-1,1,1,5,-23
1517188321572090,-6,1,6,3,-3,-1,-12,-49
1517188321592114,-1,-6,-7,-1,-1,-4,5,1
1517188321592114,2,-10,-2,3,1,2,6,6
1517188321595116,3,9,1,2,1,0,-4,15
1517188321595116,-3,-2,-5,-1,1,-1,2,8
1517188321607125,0,-19,6,-4,1,-2,-2,-17
1517188321607125,-1,12,-3,-2,0,-1,-3,3
1517188321613135,-4,-22,-19,1,0,-2,3,-10
1517188321613135,-1,-5,7,5,-4,2,4,14
1517188321630131,-1,1,11,-14,-4,-2,-9,0
1517188321630131,2,6,-12,-1,0,0,-2,-18
1517188321631132,0,6,19,1,3,-1,3,25
1517188321631132,4,-5,2,4,-1,2,1,8
1517188321653157,6,2,-17,-2,-1,1,0,-1
1517188321653157,8,-1,5,-3,1,-1,1,15
1517188321654151,-4,0,6,-4,-2,0,-9,-37
1517188321654151,-21,-19,-3,-2,-2,2,1,12
1517188321666156,24,16,1,-1,0,1,-1,2
1517188321666156,-8,-14,-2,4,2,1,-1,-4
1517188321675176,14,-20,-10,-5,-3,-1,0,2
1517188321675176,1,23,-4,-3,4,-3,3,15
1517188321690176,22,-16,1,0,-4,-2,-7,-40
1517188321690176,2,-2,-9,4,1,-1,1,9
1517188321692175,7,16,11,1,-1,0,2,4
1517188321692175,3,9,2,-1,-6,-5,-9,-17
1517188321712203,-16,10,11,-4,0,-1,7,12
1517188321712203,4,8,-14,1,-1,0,0,7
1517188321714191,-3,-2,-1,0,-2,-3,-11,-13
1517188321714191,1,-27,-6,-6,-1,-4,1,5
1517188321726219,13,24,-14,6,0,3,1,5
1517188321726219,-1,15,24,0,-3,1,-3,-11
1517188321735232,-9,-4,2,-5,-3,-2,-3,-1
1517188321735232,-10,-26,-5,0,-3,-1,2,22
1517188321750228,-19,7,-5,-4,2,-4,1,12
1517188321750228,-2,2,17,-1,-6,0,0,-14
1517188321752218,-7,-3,-14,-2,-2,0,-6,-2
1517188321752218,60,9,-2,4,-1,-2,-5,27
1517188321772232,-53,0,5,-3,-1,-1,-1,-46
1517188321772232,-13,-50,-2,0,-6,-3,-3,3
1517188321774233,12,20,8,0,-2,0,-1,-5
1517188321774233,-21,20,-10,-3,0,2,5,6
1517188321786242,3,3,26,4,-3,-3,2,10
1517188321786242,8,-3,-22,-7,-1,-1,-4,-14
1517188321801253,-14,-10,-1,1,-2,-2,1,8
1517188321801253,3,27,11,0,3,1,0,-12
1517188321810273,5,-28,-19,-5,-2,1,-3,8
1517188321810273,-11,11,4,2,-2,-2,1,-4
1517188321811260,0,-9,-7,4,0,-2,-1,8
1517188321811260,-7,0,1,-16,-3,-3,1,-13
1517188321832289,1,-2,0,4,-1,1,-4,2
1517188321832289,4,12,-2,-1,2,1,0,1
1517188321834275,-5,-6,-1,4,0,0,3,0
1517188321834275,-3,2,1,1,-1,-3,0,3
1517188321846300,-13,-2,-5,-4,-2,-1,-6,0
1517188321846300,3,-7,-3,-4,-1,0,-2,-1
1517188321855305,4,4,1,1,-3,0,1,12
1517188321855305,-8,0,1,-1,-2,-2,-4,-8
1517188321870301,5,1,-8,0,2,-1,-1,3
1517188321870301,-1,5,-4,-3,-1,0,-1,-4
1517188321871301,-5,-1,-3,-8,-3,-2,1,0
1517188321871301,1,4,2,-2,-2,1,-2,-11
1517188321892327,-1,-1,-4,0,-2,0,-2,0
1517188321892327,31,-1,3,-1,0,-2,-2,-4
1517188321894328,-11,-6,-6,-1,-2,-1,-2,-6
1517188321894328,-2,-9,4,9,-1,2,0,2
1517188321906329,2,20,-5,-14,-2,-2,-3,-7
1517188321906329,-3,18,0,2,-2,-4,-4,0
1517188321932355,1,0,-5,-1,2,-1,-1,-2
1517188321932355,-4,-5,-3,0,1,0,0,-7
1517188321932355,2,-5,-1,2,1,0,3,2
1517188321932355,-10,-1,7,-3,-1,1,-1,4
1517188321936358,-1,0,-7,-4,-2,0,0,0
1517188321936358,-3,-5,-2,1,0,0,-2,-6
1517188321951370,-2,-9,-2,2,0,-1,0,2
1517188321951370,-12,-11,2,1,2,1,2,-2
1517188321968371,0,-5,6,1,0,-1,1,-3
1517188321968371,-4,-3,-2,-5,-2,-1,0,-3
1517188321969375,0,-4,0,2,-1,-1,-1,3
1517188321969375,-5,-2,-2,-1,1,0,-1,3
1517188321975385,-1,-1,-2,-5,-1,-2,-2,5
1517188321975385,-3,-13,-4,-3,-1,-1,-1,-5
1517188321989388,-6,-9,-5,4,-2,-3,0,-2
1517188321989388,-1,0,-7,-5,-1,1,-1,0
1517188321992388,0,4,4,2,-3,-2,0,-1
1517188321992388,3,-2,-1,0,-3,-2,-2,-2
1517188322012412,5,-2,-2,2,1,0,-2,4
1517188322012412,-2,-5,-1,0,-2,-4,-2,-3
1517188322014403,-1,-2,1,-1,0,-1,-3,-1
1517188322014403,-1,-2,4,-2,1,-2,1,-2
1517188322026425,-2,-2,0,-1,1,-1,2,0
1517188322026425,0,9,-1,-1,-3,-3,-1,-5
1517188322035441,0,4,-2,-3,0,1,1,0
1517188322035441,0,-1,0,5,-1,0,-4,-3
1517188322049442,-5,-4,-4,-4,-1,-1,0,0
1517188322049442,0,-5,-2,-6,-1,-1,1,-1
1517188322051430,3,-2,2,-2,-2,-4,0,3
1517188322051430,-3,2,-2,-5,-3,-1,1,0
1517188322072459,0,-1,0,0,-1,-1,-2,-2
1517188322072459,-7,-13,4,-1,0,-2,-2,-3
1517188322074448,-4,-7,-11,0,-1,0,-2,-2
1517188322074448,-2,-1,2,2,0,0,-1,1
1517188322094470,3,3,0,2,0,0,0,4
1517188322094470,-4,5,-3,-2,1,-2,-2,0
1517188322096460,1,-1,-1,-1,2,-3,1,0
1517188322096460,-1,-2,-2,-1,-1,0,-2,-1
1517188322109480,-4,-5,1,0,-3,1,-2,-4
1517188322109480,5,4,-1,-5,-4,1,-2,0
1517188322111472,1,1,2,2,-4,-2,-1,-3
1517188322111472,0,2,-2,-2,-2,-1,-1,-2
1517188322132502,-2,-2,-2,-3,-1,1,-1,0
1517188322132502,-1,-4,-4,2,1,-2,1,-1
1517188322133488,-2,-4,4,-1,-2,-1,1,2
1517188322133488,-2,0,0,1,2,-3,-2,-2
1517188322155518,4,1,-3,0,-2,-1,-1,-1
1517188322155518,4,4,-8,-1,2,0,-1,-3
1517188322160521,-3,-2,0,-1,-1,0,-2,-2
1517188322160521,-2,3,1,-4,-1,0,-1,-1
1517188322169528,3,1,-1,1,0,-6,-2,-2
1517188322169528,-7,-1,-2,2,-2,-4,-1,-3
1517188322175575,6,-3,2,-2,-2,0,-2,-1
1517188322175575,-4,1,1,-2,0,0,1,2
1517188322192577,-7,-18,-5,-6,-1,-1,-2,-2
1517188322192577,-1,-9,1,-2,-3,2,-3,1
1517188322194589,-5,-4,1,1,1,-1,0,-3
1517188322194589,1,-4,-1,0,0,-2,0,-2
1517188322214595,-3,-2,-1,-3,-2,0,1,0
1517188322214595,0,0,1,0,-2,-1,-1,0
1517188322216595,1,0,1,-1,-3,0,-3,-1
1517188322216595,-1,-2,-4,1,-1,-3,-3,-2
1517188322228618,-1,6,0,-3,-1,-2,-1,-1
1517188322228618,0,3,0,-1,0,-2,-1,-3
1517188322237609,-2,1,1,0,1,-1,-1,1
1517188322237609,1,0,-1,-2,-1,0,0,0
1517188322252635,-3,3,0,0,0,-3,-2,-3
1517188322252635,0,1,-3,-4,0,-2,1,0
1517188322253635,-1,-3,1,-2,-2,0,-4,1
1517188322253635,-2,-5,1,4,1,-1,-1,-2
1517188322282652,1,2,-3,-1,0,-1,-2,0
1517188322282652,-1,2,-1,-3,1,-1,-1,-1
1517188322283652,-2,-1,-3,0,-3,-1,0,-2
1517188322283652,-4,-2,-4,-3,-4,0,1,-2
1517188322289656,0,4,-2,-3,-1,-2,-1,0
1517188322289656,0,-2,-3,1,-3,-1,-2,1
1517188322295649,-2,0,-2,1,-2,-3,-2,-2
1517188322295649,-1,0,-2,-1,-2,-1,0,-2
1517188322312664,-2,-3,-3,0,-1,-1,2,-2
1517188322312664,0,0,-1,0,-1,-1,0,-1
1517188322318677,-1,0,2,-4,0,1,-1,-2
1517188322318677,0,0,-1,-3,-1,-1,0,-1
1517188322334688,-2,-1,0,1,-1,0,1,0
1517188322334688,0,0,-1,-3,0,-3,0,-1
1517188322336690,-1,-3,-1,0,-1,0,-1,-1
1517188322336690,0,1,0,-1,-2,-1,-1,-1
1517188322349688,-1,-3,-2,-3,0,-1,1,0
1517188322349688,-3,0,-1,-1,0,1,0,-1
1517188322355703,0,0,1,-2,-2,-2,0,-4
1517188322355703,1,-2,0,-1,-2,-2,-3,2
1517188322372726,-1,0,-1,0,2,-3,-2,0
1517188322372726,1,-3,3,-3,-1,-1,-2,-1
1517188322373705,-3,0,2,-2,-1,-1,-2,1
1517188322373705,2,0,0,1,-1,0,0,-2
1517188322402739,-1,4,0,-2,-2,2,-1,0
1517188322402739,-2,0,-6,0,-3,-1,-1,-3
1517188322403727,0,1,-3,1,2,-1,2,0
1517188322403727,-1,0,-1,-5,0,-1,-2,0
1517188322408742,0,-2,-2,-1,-2,-3,-1,-1
1517188322408742,-4,-2,0,0,-2,-3,-2,-3
1517188322415737,-3,-2,-1,0,-1,0,2,-1
1517188322415737,-1,-1,-1,-1,0,-2,-3,-1
1517188322439752,-1,0,-3,-3,0,-2,2,-3
1517188322439752,-2,-2,0,-3,-1,-1,-1,-1
1517188322441753,-1,-2,0,1,-1,-1,0,0
1517188322441753,-1,-1,-1,0,-1,-3,0,-2
1517188322454762,-1,-2,-1,-3,1,-1,1,1
1517188322454762,-1,2,1,-2,1,-1,-2,0
1517188322456765,-1,-7,-1,0,-3,1,-2,-1
1517188322456765,-2,0,-3,0,0,1,-1,-1
1517188322468773,0,-2,-1,1,0,1,2,-2
1517188322468773,0,2,-5,-2,-2,-1,1,0
1517188322483788,0,1,1,-1,-1,1,-1,2
1517188322483788,-1,-2,0,1,-3,-1,-1,0
1517188322492789,-1,0,-2,-3,-1,-1,-2,-2
1517188322492789,1,-1,0,1,1,-2,-1,0
1517188322494804,0,-1,-1,-3,-1,-1,-3,-3
1517188322494804,-1,1,-3,-3,-3,0,-1,-2
1517188322514807,-2,-2,-1,-1,-2,-1,-3,-4
1517188322514807,-1,-3,-1,-2,0,0,0,-1
1517188322516808,0,0,0,0,-3,-3,-2,-1
1517188322516808,-1,-1,1,-1,-2,-2,-1,-2
1517188322528840,1,-5,-2,3,0,-3,-1,0
1517188322528840,0,3,-1,-2,-3,0,-2,0
1517188322537823,-1,3,-1,-1,0,-1,-1,1
1517188322537823,-2,-2,1,-1,0,-3,1,-2
1517188322552832,-4,0,0,-2,-1,-3,1,-1
1517188322552832,-2,-3,-1,3,0,-2,-1,-1
1517188322553839,-1,-1,1,-2,-3,-1,0,0
1517188322553839,-2,-2,-1,-1,-2,-1,-2,1
1517188322574847,-1,0,-2,-1,-1,-2,0,0
1517188322574847,-2,0,0,-1,-2,-1,-1,-2
1517188322580852,1,-2,-2,-2,0,0,-2,-4
1517188322580852,0,-2,-1,0,-1,1,0,-1
1517188322588871,-4,3,0,-1,-1,-1,-1,-1
1517188322588871,-2,-1,-5,-2,1,-2,0,-2
1517188322597865,-2,2,-1,0,-1,0,-3,-1
1517188322597865,-1,-2,-1,-1,1,-3,-1,0
1517188322619893,-1,-1,-3,1,-1,0,-1,1
1517188322619893,0,-2,0,1,2,0,-1,0
1517188322621881,-7,4,3,1,-1,0,2,-1
1517188322621881,1,0,-2,-1,-2,-2,-2,0
1517188322634892,0,-1,-2,-2,-1,-2,0,-1
1517188322634892,-1,1,-2,-2,1,1,-1,-1
1517188322636892,1,-3,-2,-3,-1,-3,0,0
1517188322636892,-1,1,1,-1,0,-2,0,1
1517188322648913,0,0,-1,-1,1,0,0,-2
1517188322648913,-1,0,-2,-1,-1,0,0,-1
1517188322657906,2,-6,2,1,0,0,-3,-1
1517188322657906,-1,-2,-3,-2,-1,-2,0,-1
1517188322672917,1,-1,-1,-4,-2,1,-4,0
1517188322672917,0,-2,0,-2,-1,-2,-2,-1
1517188322673919,-1,1,-2,-4,-2,1,0,-1
1517188322673919,-3,-1,-2,2,0,-1,-2,-4
1517188322694933,0,0,-4,-2,-1,0,1,0
1517188322694933,-3,3,2,-1,-2,-3,-2,-1
1517188322696935,-2,-4,1,2,-3,-1,0,-2
1517188322696935,-3,-3,-2,-1,-1,-2,0,0
1517188322708942,-2,-3,-2,0,-1,-1,-2,2
1517188322708942,2,-3,-2,0,-1,0,2,-1
1517188322717949,1,1,-1,-1,1,-1,2,-1
1517188322717949,0,0,0,-2,0,0,2,0
1517188322731969,1,-1,-4,0,0,-2,-1,-2
1517188322731969,-1,-3,-1,-2,-2,1,0,-1
1517188322733960,-2,-1,1,-1,-1,-2,-2,-1
1517188322733960,0,2,-1,-2,1,-3,-1,-2
1517188322754985,-3,-1,0,-3,1,-1,-1,-2
1517188322754985,-1,-4,-2,0,-1,-1,-2,0
1517188322755976,0,-2,0,-1,-4,-3,-3,0
1517188322755976,0,-3,0,0,-2,-1,-1,-2
1517188322767985,1,-2,-1,0,-2,2,0,-2
1517188322767985,1,-7,-3,-3,-2,2,-1,-4
1517188322777992,-2,3,-4,-3,-2,-1,0,0
1517188322777992,0,-1,-2,-2,0,0,-1,1
1517188322792015,0,-3,1,-1,0,-4,-1,-2
1517188322792015,-1,-2,-3,0,-2,1,0,1
1517188322795003,0,-4,2,1,0,-1,1,-2
1517188322795003,-5,-1,0,0,0,2,-1,-2
1517188322815019,-2,3,-5,-3,0,-2,-4,-2
1517188322815019,-2,1,0,-2,0,-2,-1,0
1517188322817020,1,-4,-1,1,-3,-2,-2,-3
1517188322817020,1,0,0,0,0,1,-2,0
1517188322829029,-1,-3,-2,1,-2,0,-1,-2
1517188322829029,-4,-1,-1,-3,-1,-1,-3,1
1517188322838035,-2,-2,-2,-1,-1,2,1,0
1517188322838035,3,-3,-1,-1,-1,0,-1,-2
1517188322852073,-2,0,-2,-2,-2,-1,-3,0
1517188322852073,0,-1,-1,1,0,1,0,-1
1517188322854074,-1,-1,1,0,-1,1,-1,-3
1517188322854074,-1,-3,0,0,-3,-2,-2,-1
1517188322875076,-2,0,-3,-2,1,0,1,-1
1517188322875076,-1,0,1,2,-1,-2,1,-4
1517188322876060,-1,-2,0,0,-3,-2,-1,1
1517188322876060,0,-1,-1,-1,-1,0,-1,-2
1517188322888085,-1,2,1,0,-2,-3,-3,-1
1517188322888085,-2,1,-3,-2,-1,0,-1,0
1517188322897077,2,-1,2,-1,-3,1,-1,-1
1517188322897077,0,0,0,0,0,-4,-1,-2
1517188322913089,-1,-1,1,-4,1,-3,1,-3
1517188322913089,-1,-1,-1,-1,-1,-2,-2,0
1517188322914088,1,-2,-1,1,1,-4,-1,0
1517188322914088,0,-1,-2,1,-2,-1,0,1
1517188322935102,-2,-3,-2,-3,-4,0,1,-3
1517188322935102,-1,-2,-1,-1,-3,-2,-1,-2
1517188322936105,0,1,1,1,-1,-2,-1,-2
1517188322936105,-1,-3,0,-2,-3,-1,0,0
1517188322948112,-2,-2,-2,3,1,1,0,1
1517188322948112,-2,-4,2,-6,-2,-2,1,0
1517188322957135,-1,1,1,-1,0,0,-4,0
1517188322957135,-1,0,0,-2,-3,-2,0,-3
1517188322972128,-2,-1,-2,-3,-2,-1,-2,0
1517188322972128,-2,-3,1,-1,-1,1,-1,-1
1517188322974146,1,3,-1,-2,-2,1,1,-3
1517188322974146,-1,0,-3,-3,-1,0,0,-1
1517188322995157,1,1,1,-2,-1,-1,-1,0
1517188322995157,-2,0,-3,0,0,-1,-2,1
1517188322996148,-1,-4,-1,-1,0,-2,-1,0
1517188322996148,0,1,0,0,0,-2,0,1
1517188323017170,0,0,-2,1,-1,0,-2,-3
1517188323017170,0,0,-3,-1,1,1,0,-2
1517188323019171,-2,-1,-1,-2,0,1,-1,1
1517188323019171,0,-2,-2,-2,-2,1,-2,-2
1517188323032180,0,-2,1,-2,2,0,-2,0
1517188323032180,0,-1,-3,0,0,-2,-3,0
1517188323034182,-1,-1,-2,-1,-1,1,1,-1
1517188323034182,-1,-1,-1,-1,-1,-1,-2,0
1517188323055197,-1,-2,-1,-4,-3,-4,1,-1
1517188323055197,-1,-3,1,1,-1,0,-1,-1
1517188323056189,-3,0,-2,-2,-1,-3,0,-1
1517188323056189,0,-2,-2,0,0,1,-2,1
1517188323077213,-2,-3,-2,-2,0,-1,1,-1
1517188323077213,1,0,0,-1,0,-2,0,0
1517188323079204,-1,-2,-2,0,0,-3,-2,-2
1517188323079204,-1,-2,0,0,0,-4,-2,-1
1517188323093224,-3,4,-1,1,-2,-3,-2,-2
1517188323093224,-1,0,0,-2,-1,-1,0,-3
1517188323094225,0,-1,2,-1,0,-1,1,0
1517188323094225,0,-2,-1,0,-2,0,0,0
1517188323115230,-1,-3,-2,0,1,0,-2,-4
1517188323115230,-1,0,0,-1,-3,-3,0,1
1517188323116231,1,-1,1,1,-1,-1,0,0
1517188323116231,-3,1,1,-1,-2,0,-1,-2
1517188323137255,-1,-1,0,-2,-2,-2,-2,1
1517188323137255,0,-1,-3,0,0,-1,0,-4
1517188323139256,-2,0,-2,-3,-3,-2,-2,1
1517188323139256,-3,0,-2,-2,-1,0,-2,0
1517188323152269,-1,-3,-3,-2,-2,0,0,-1
1517188323152269,-2,0,1,0,0,4,-2,-2
1517188323154267,1,-3,-1,1,1,0,-1,1
1517188323154267,-2,0,-1,0,0,-1,-1,0
1517188323175288,-2,-1,-3,1,-1,2,-3,0
1517188323175288,-2,-6,0,-1,-2,-2,0,1
1517188323176279,-2,-3,2,0,-2,-1,0,-2
1517188323176279,2,3,-2,-4,-3,0,0,0
1517188323197301,0,1,-3,-1,0,-1,1,0
1517188323197301,-3,0,-1,-2,0,-3,-3,-2
1517188323199295,-2,0,-1,-1,-2,-1,-4,-2
1517188323199295,-1,-4,-1,-3,0,-2,-1,-1
1517188323212307,0,-2,0,-2,0,0,-3,-4
1517188323212307,0,-1,-2,-1,-3,2,1,-2
1517188323218304,3,-1,-1,0,0,-1,0,-2
1517188323218304,-2,-4,0,0,0,-1,-1,0
1517188323235315,-1,-3,-2,1,1,-2,-2,1
1517188323235315,-3,0,0,-3,0,-3,-3,-3
1517188323236316,0,1,1,0,-3,-1,-1,0
1517188323236316,-1,1,1,0,-3,-1,-1,-1
1517188323257331,-2,0,-2,2,-3,-1,-1,-2
1517188323257331,1,0,-4,-1,2,0,-2,-2
1517188323259358,-1,-2,-1,-2,2,-3,-1,2
1517188323259358,0,-1,-2,-2,-3,-1,0,0
1517188323271340,1,-2,-1,0,0,-2,1,-2
1517188323271340,-4,-6,3,1,-4,0,-1,-1
1517188323278368,-2,-1,-2,-3,-2,1,0,-3
1517188323278368,-1,-3,0,-1,0,-3,0,0
1517188323294370,0,-2,-4,-4,3,0,-2,-1
1517188323294370,2,3,0,-2,-1,-3,-2,0
1517188323296359,0,1,2,1,-2,-1,-1,-2
1517188323296359,-1,1,-1,-1,0,-3,1,1
1517188323317386,-3,0,0,-3,-3,1,0,-7
1517188323317386,-1,-2,-3,-1,2,0,-1,6
1517188323319387,-6,-1,-1,-2,-1,1,11,0
1517188323319387,-3,-2,-1,-3,1,0,-5,-13
1517188323331393,-4,0,3,0,-3,-2,6,4
1517188323331393,2,2,-2,-1,0,2,0,1
1517188323338397,-2,-2,-1,2,-2,-3,-4,23
1517188323338397,0,-2,-1,-2,0,-2,-1,-32
1517188323354401,-3,-3,0,-4,0,1,-10,-7
1517188323354401,-2,0,-1,-1,0,-3,0,-3
1517188323356400,2,0,-2,-1,-2,2,-2,-1
1517188323356400,-2,5,-4,1,0,-1,1,9
1517188323377428,0,0,-5,-6,0,-3,-2,2
1517188323377428,-2,-2,-1,0,-3,2,-3,-4
1517188323379416,0,-2,-1,-3,-3,2,-4,-8
1517188323379416,1,-6,-1,0,0,-1,-1,5
1517188323392435,0,-3,-3,3,-2,-2,1,0
1517188323392435,1,-1,-1,-3,-1,-1,-2,3
1517188323398430,0,1,-1,2,1,-2,-1,-8
1517188323398430,0,-2,1,0,1,0,0,0
1517188323414453,-2,0,-5,1,1,-2,0,5
1517188323414453,-3,1,0,0,-1,-1,2,-1
1517188323416452,-1,-1,-2,1,-1,1,-3,-3
1517188323416452,-2,0,-1,-1,-2,-2,0,4
1517188323437474,1,1,-2,0,-1,-1,-1,0
1517188323437474,-2,0,0,-2,-2,0,0,-4
1517188323438458,-2,-2,-1,-3,-1,0,1,0
1517188323438458,-3,-2,0,-2,-1,0,-3,4
1517188323451467,-2,0,-1,2,-3,-1,2,1
1517188323451467,-1,-3,-3,0,-2,-3,-1,-2
1517188323459483,1,-2,0,0,-1,-3,0,0
1517188323459483,-3,-1,1,-1,1,4,-2,2
1517188323474487,-2,-1,-1,-4,-1,-4,0,-3
1517188323474487,-2,2,-1,2,-1,-1,0,-2
1517188323476485,-2,1,-1,-1,0,-6,-1,-4
1517188323476485,-1,-1,-3,2,-2,0,0,0
1517188323497515,-1,-2,-1,-2,1,1,-2,-1
1517188323497515,-2,-1,-1,-1,1,-2,-1,1
1517188323498501,-1,2,0,-3,-2,-2,0,-2
1517188323498501,0,0,-2,-1,-2,1,2,1
1517188323510536,-1,0,1,-2,0,-3,0,0
1517188323510536,0,0,0,-1,-1,-1,-1,-1
1517188323519530,2,-3,0,1,0,1,-2,-2
1517188323519530,0,-2,-1,-1,-1,-1,-1,-1
1517188323535545,0,2,-6,-1,-2,0,-2,0
1517188323535545,-4,-4,-1,-4,-1,1,-1,1
1517188323536528,-1,0,0,0,1,0,-4,-1
1517188323536528,-1,-3,-2,-3,-2,-3,-2,2
1517188323557554,-1,-2,1,-3,1,-2,-3,-3
1517188323557554,2,-3,0,0,-2,1,-1,-2
1517188323558543,-1,-2,-1,-2,-3,0,-1,-2
1517188323558543,-2,-3,-2,0,-1,0,-1,-1
1517188323570565,-3,-4,-1,-2,-2,-1,0,-2
1517188323570565,1,1,-1,-2,1,-1,-1,1
1517188323579560,-1,0,-2,1,-3,-1,0,-1
1517188323579560,-1,1,-2,-3,1,-1,1,2
1517188323594568,1,-2,-1,1,0,-1,-2,-2
1517188323594568,-1,0,2,0,-1,0,-1,-1
1517188323596575,-1,-2,1,-4,0,-1,1,1
1517188323596575,-1,-2,-1,1,-1,0,-2,0
1517188323616584,-1,-2,-3,-6,-4,0,1,-4
1517188323616584,0,0,-1,-1,0,-1,-1,0
1517188323624589,-1,1,0,1,-4,-2,1,-1
1517188323624589,1,1,-1,0,-1,-2,-1,0
1517188323630595,1,-1,-1,-2,-1,0,-1,0
1517188323630595,0,-1,-1,0,-2,0,0,-2
1517188323639672,-3,-2,-2,-1,1,2,0,1
1517188323639672,-2,0,2,-3,0,-3,1,-1
1517188323654663,-2,-1,1,0,2,1,-3,-2
1517188323654663,2,-5,0,-2,-2,-2,-1,-2
1517188323656664,-3,-2,0,1,-1,-2,-2,2
1517188323656664,2,-3,-3,-1,3,-1,1,0
1517188323676739,-1,2,-2,1,-1,1,-1,1
1517188323676739,-3,1,0,-1,0,-2,-1,-2
1517188323677680,0,-1,1,-1,-2,-2,-1,-1
1517188323677680,-2,-2,-4,-2,-1,-1,-2,-2
1517188323698722,-3,-1,0,0,0,-1,-1,1
1517188323698722,-4,-1,-1,1,-1,1,-1,-5
1517188323699699,-1,-3,2,1,-1,-2,0,3
1517188323699699,0,-1,-1,-1,0,-2,-2,-4
1517188323713705,0,0,0,-3,1,-1,0,-1
1517188323713705,0,1,-1,-3,-3,-3,0,1
1517188323714705,0,1,-3,-1,-2,3,-3,-3
1517188323714705,0,-2,0,0,-2,-1,-2,-2
1517188323736738,-2,-4,-1,-2,-2,-2,2,1
1517188323736738,-1,-1,0,-1,1,1,-3,1
1517188323737732,-3,-7,4,0,0,-1,-1,-2
1517188323737732,-1,0,-2,1,0,-2,-1,-2
1517188323758752,-3,-1,-1,-3,-4,1,0,-1
1517188323758752,-1,-2,0,-1,-2,-2,-2,-4
1517188323759753,-1,0,-2,0,-1,-2,-1,-4
1517188323759753,-2,-2,0,-1,0,0,-1,-2
1517188323773780,1,-1,-2,1,0,-2,-2,-1
1517188323773780,-2,0,-3,-1,-2,0,-3,-1
1517188323774757,2,1,1,1,-1,-1,0,0
1517188323774757,-1,-2,-1,1,-2,-3,0,1
1517188323796763,-1,0,-1,1,0,0,-1,2
1517188323796763,-1,-1,0,-2,-3,-3,1,-4
1517188323797765,-1,-1,-2,-2,-2,-1,-2,-2
1517188323797765,-1,0,-3,-3,-1,-1,-2,-1
1517188323818789,0,-1,-2,-1,0,0,0,-2
1517188323818789,-1,0,0,0,0,-1,1,0
1517188323819778,0,-2,-1,-1,1,0,0,-2
1517188323819778,0,-3,-1,-2,-1,-1,0,-1
1517188323833792,-4,0,-2,1,0,-5,-2,1
1517188323833792,-2,0,-2,-1,-1,-1,-2,-2
1517188323834790,-1,1,0,-1,-2,-2,1,-1
1517188323834790,0,-1,-4,-2,-2,2,-2,0
1517188323856819,0,0,-1,1,-1,-1,1,-3
1517188323856819,-2,-1,-1,-3,1,0,1,-1
1517188323857816,0,0,0,-4,-1,-4,0,2
1517188323857816,1,-2,-1,0,-2,-2,-2,-2
1517188323878824,1,-1,-3,-1,-2,-1,-2,-2
1517188323878824,-1,-3,-1,2,-4,-2,-1,-1
1517188323879824,0,2,1,0,1,2,0,7
1517188323879824,-9,-1,1,-2,-2,-1,-2,-23
1517188323893843,-2,2,-1,-1,0,2,-2,0
1517188323893843,0,-1,2,-1,1,-1,-1,0
1517188323894837,0,-3,-2,1,-2,-3,-2,-2
1517188323894837,0,0,1,-2,-1,-1,0,7
1517188323916860,-1,-1,-1,-3,-1,-1,-2,-3
1517188323916860,-1,1,-2,-2,-2,1,2,-1
1517188323917849,-1,0,-2,-1,-3,-2,-1,-1
1517188323917849,-2,-1,-3,-2,1,0,1,3
1517188323938874,-1,-2,-1,-1,-2,-5,0,0
1517188323938874,1,0,0,0,-3,-1,-1,2
1517188323939864,-2,0,1,1,-2,-1,-3,-5
1517188323939864,-3,0,-3,1,0,-2,-1,2
1517188323953885,-1,-1,0,-2,1,-3,1,0
1517188323953885,0,-2,0,-1,-2,2,-3,-1
1517188323954875,-2,-2,-1,-3,-1,-3,-3,-4
1517188323954875,-3,0,-1,0,0,-4,1,3
1517188323976906,0,0,0,-1,-1,3,0,0
1517188323976906,0,0,-1,-1,-4,-2,-4,1
1517188323977907,-3,-3,-4,-1,-2,0,0,-7
1517188323977907,1,-2,0,0,-3,-3,-2,1
1517188323999907,0,-2,-2,1,-2,-3,-2,-1
1517188323999907,-2,-1,-2,-1,1,-3,-1,1
1517188324000908,-1,-2,-2,-1,1,-1,-1,2
1517188324000908,-1,2,0,-3,-3,0,-1,1
1517188324013917,-2,0,-1,-1,-1,0,1,-3
1517188324013917,1,-1,-3,0,-1,-2,-1,-2
1517188324014918,1,0,1,-2,-1,-2,-1,2
1517188324014918,1,-3,1,1,-2,1,-2,-2
1517188324036943,-2,1,-3,-2,1,-1,-2,-1
1517188324036943,-2,-3,0,-1,-1,0,0,-1
1517188324036943,-1,0,0,-1,0,3,-3,-2
1517188324036943,0,-2,-1,0,0,-1,-2,0
1517188324059972,0,-4,-1,0,1,-2,-2,-2
1517188324059972,-1,-1,-1,-1,3,0,1,-1
1517188324060954,-1,1,0,1,-2,-2,1,-1
1517188324060954,0,2,-2,-2,-2,0,1,-2
1517188324073970,-2,-2,3,-2,0,-2,-1,-1
1517188324073970,-1,-2,2,-1,-1,0,-2,1
1517188324074960,0,-1,0,-2,-3,0,-4,0
1517188324074960,1,-1,-3,-2,0,-3,-3,-1
1517188324096976,2,0,-1,-3,-4,0,0,-2
1517188324096976,-1,-2,-2,-1,-2,1,0,-2
1517188324104003,-3,-1,1,0,-4,-2,0,0
1517188324104003,-3,0,-1,0,1,0,-1,2
1517188324120003,0,-1,-4,1,-3,-1,0,-2
1517188324120003,-2,1,0,-2,-2,-2,0,-1
1517188324120994,0,1,1,-2,-2,-3,0,-2
1517188324120994,-2,-2,-2,-1,1,-4,0,0
1517188324134024,-3,-1,2,-2,0,-2,-2,-2
1517188324134024,-1,-3,0,2,-3,0,-2,-2
1517188324135003,-1,-2,-1,1,1,-2,1,1
1517188324135003,0,1,-3,-3,-1,0,0,0
1517188324157047,-2,1,-2,-2,-1,-2,-3,-1
1517188324157047,0,-1,-3,0,0,-3,1,-3
1517188324158020,0,-1,1,-1,-4,-1,-1,-1
1517188324158020,0,0,-2,-2,0,2,-4,-2
1517188324180053,-2,-2,-3,0,-1,-1,0,0
1517188324180053,0,1,-1,-4,2,1,-2,-1
1517188324181036,0,-2,-1,-2,-3,-2,-1,-1
1517188324181036,-1,-2,-1,-1,-1,-3,0,-1
1517188324194054,-1,-2,-2,-4,-1,0,0,-4
1517188324194054,0,-3,1,-2,-1,-1,-1,-1
1517188324195045,-2,-1,-2,2,1,-1,-1,-2
1517188324195045,-3,-3,-1,0,-3,-1,-1,-4
1517188324217062,0,1,0,-1,1,0,-2,1
1517188324217062,0,0,-2,0,-3,-2,0,-2
1517188324217062,0,-3,-1,-5,0,-1,-1,-1
1517188324217062,-1,-1,-1,1,0,-1,1,1
1517188324240088,0,0,-1,-1,-2,2,-2,0
1517188324240088,0,1,1,-3,-1,-2,-2,0
1517188324240088,1,-1,0,-2,-2,-1,-1,1
1517188324240088,2,0,-2,0,0,0,-1,0
1517188324254097,-2,-3,-4,-3,-1,-1,-1,1
1517188324254097,0,-2,1,-3,-3,-3,-3,-3
1517188324255092,-1,-2,-2,0,-1,-1,-2,-1
1517188324255092,-1,2,-1,-4,-1,-2,-1,-2
1517188324277115,-1,2,-1,2,1,-2,-2,-2
1517188324277115,-2,-2,0,-1,-2,0,1,-1
1517188324277115,-3,-2,0,-1,-1,-1,0,-3
1517188324277115,0,-1,-3,-3,-1,-2,-2,-4
1517188324300130,-1,-3,-2,-1,-2,2,1,0
1517188324300130,-1,-1,0,1,-3,-4,-1,1
1517188324300130,0,0,0,0,2,1,-1,-1
1517188324300130,1,-1,-1,0,1,0,-2,-1
1517188324314132,0,0,-2,-2,-1,-3,-2,0
1517188324314132,-2,1,0,1,0,-1,-1,0
1517188324315159,0,-1,-1,-2,-1,-2,1,-1
1517188324315159,0,-2,-3,0,-3,0,0,0
1517188324345182,-1,-3,0,0,0,0,-2,0
1517188324345182,1,0,-1,0,-2,0,0,1
1517188324346153,-4,0,-2,1,0,-1,-1,0
1517188324346153,0,-3,0,-1,-2,0,1,-2
1517188324360191,-2,-2,-3,-2,-1,0,0,-2
1517188324360191,-3,-2,-1,1,1,-1,-1,-1
1517188324361169,-1,0,1,-3,-1,0,-4,-1
1517188324361169,0,-1,0,-4,-1,-2,-2,-1
1517188324374188,0,-1,-1,0,-4,0,-1,-1
1517188324374188,-2,1,-1,-3,0,-2,0,-3
1517188324375174,2,-3,-1,-2,0,-2,-1,1
1517188324375174,-3,-1,-1,1,1,-2,-1,-1
1517188324397188,-1,2,-3,1,0,-2,-1,-1
1517188324397188,-1,0,-1,0,-1,1,-1,0
1517188324397188,-2,0,-2,0,-4,-1,2,0
1517188324397188,-1,-2,-2,-1,-1,0,-2,0
1517188324420245,-1,-1,-2,-2,2,-2,1,-2
1517188324420245,0,-2,-1,1,-1,-1,-2,0
1517188324420245,-1,0,0,-2,-1,-1,-3,-1
1517188324420245,-1,1,0,0,-1,0,0,0
1517188324434214,-3,-2,-1,-1,-2,-2,-1,-3
1517188324434214,-1,0,1,-1,-4,0,-1,0
1517188324435214,0,-1,-2,-1,-2,-3,-1,0
1517188324435214,-2,-2,-1,-2,-1,-2,0,-1
1517188324456246,0,-1,0,-1,-1,-1,-2,1
1517188324456246,0,0,1,1,-3,-2,-1,-3
1517188324457231,-2,0,1,-1,-1,-2,1,0
1517188324457231,-1,0,-3,0,-4,-1,0,-2
1517188324480247,0,0,-1,-4,-1,1,-1,1
1517188324480247,-1,-2,-1,-3,2,-2,-3,-1
1517188324480247,-3,-1,-1,-1,-2,-1,1,-1
1517188324480247,3,-4,-3,0,-3,-3,-3,0
1517188324502263,-2,-1,-2,-1,-3,-1,-2,0
1517188324502263,-1,-2,-1,-3,-1,-2,-2,-2
1517188324503262,0,-2,0,-1,-1,0,-1,-2
1517188324503262,-2,-2,-1,0,-1,-3,-1,0
1517188324516283,0,-3,-1,0,-1,-1,-2,-1
1517188324516283,0,1,0,-3,-2,0,1,1
1517188324517272,-1,-1,0,1,-1,0,-3,-2
1517188324517272,-3,-1,0,0,0,0,-2,0
1517188324540310,0,-2,-2,0,1,0,0,-4
1517188324540310,-1,-2,0,-1,-1,-1,0,-2
1517188324540310,-1,0,0,0,-1,1,-3,1
1517188324540310,0,-1,-3,-4,-1,1,-1,-1
1517188324553308,-1,-2,-1,-2,0,-2,1,0
1517188324553308,0,-3,0,0,-1,-1,-1,-1
1517188324561316,-2,0,0,-1,-3,-2,0,-1
1517188324561316,0,-2,-2,-1,-1,0,1,-1
1517188324576324,-1,-2,0,-2,1,-2,1,-1
1517188324576324,-3,0,-2,0,-2,0,-1,-1
1517188324577323,-1,-1,-1,-2,0,-1,-2,-2
1517188324577323,1,0,-1,-2,-1,0,-2,-2
1517188324600343,0,-4,-2,-1,1,0,-1,-1
1517188324600343,0,-2,-1,2,0,-3,-4,-2
1517188324600343,-1,-2,-1,-2,0,-1,-2,1
1517188324600343,-2,-3,0,-2,0,-1,-1,-3
1517188324613341,-1,2,-1,1,0,-2,1,0
1517188324613341,0,-2,0,-1,-4,-1,0,-1
1517188324621360,1,0,-2,0,1,1,0,-1
1517188324621360,-1,2,-1,-1,-1,-1,2,1
1517188324636421,-1,2,-1,-1,-1,1,-2,1
1517188324636421,-4,-1,-1,-4,-1,0,-3,-2
1517188324637358,0,-3,-3,-1,-1,-1,-1,4
1517188324637358,0,-1,1,-2,-1,-1,1,0
1517188324659406,1,-1,0,-2,-1,-1,-2,2
1517188324659406,2,3,2,-2,0,-2,0,6
1517188324660387,0,-2,-3,-1,0,1,2,-11
1517188324660387,-2,-2,-2,1,1,-1,-1,16
1517188324673397,-1,-8,2,-2,-1,-2,-1,-20
1517188324673397,-1,0,-2,-1,-1,-2,3,4
1517188324681389,0,-3,3,-3,-4,-2,-10,-7
1517188324681389,-1,1,-2,1,-3,-1,-2,2
1517188324696399,-1,1,-1,0,-2,-1,-3,2
1517188324696399,0,-2,-1,-2,1,3,-2,-1
1517188324697402,-1,-1,-2,-2,-2,-3,3,3
1517188324697402,-2,-2,1,-2,0,-2,-4,-8
1517188324719430,-2,-2,-1,-1,-3,-2,-2,1
1517188324719430,0,0,0,0,-1,0,-2,-3
1517188324720416,0,1,0,-1,0,0,-1,0
1517188324720416,0,2,-1,-4,1,-2,-2,-4
1517188324742468,0,-3,-3,-1,-3,2,1,1
1517188324742468,-2,-2,-2,-1,-2,1,0,0
1517188324743467,-2,-3,-2,1,0,-1,0,1
1517188324743467,-2,-2,-1,-3,-1,-2,-1,-4
1517188324756475,0,-1,-3,1,0,-1,-1,0
1517188324756475,-2,-2,1,0,0,1,-3,-3
1517188324757475,-1,-1,0,-1,-3,2,-2,0
1517188324757475,-1,-2,0,-3,-1,-3,1,-5
1517188324780493,-2,2,-1,-2,1,3,0,3
1517188324780493,1,-6,4,3,-2,-2,-1,-2
1517188324780493,-2,0,0,1,1,0,0,0
1517188324780493,-1,-1,-2,-2,0,0,1,0
1517188324793500,-1,-1,-2,-4,-1,-2,-2,-1
1517188324793500,0,-1,-3,1,-1,1,-2,-3
1517188324801505,-3,-2,0,-1,-3,-1,0,5
1517188324801505,-1,0,-2,0,-2,1,-3,-1
1517188324816516,0,1,0,-3,-1,-2,-2,-2
1517188324816516,-2,-2,-1,-2,-1,0,1,-2
1517188324817519,-1,-2,-3,0,-1,-2,-1,-2
1517188324817519,-4,-1,0,-2,-3,0,-1,-1
1517188324839533,-2,2,-1,0,1,-4,1,1
1517188324839533,0,0,1,0,-1,0,-2,-1
1517188324840532,0,3,-1,-4,-2,-3,-1,-1
1517188324840532,-1,-2,-1,-2,0,-1,-2,-1
1517188324853543,0,0,-2,-2,-3,-3,-3,-1
1517188324853543,-2,2,-1,-3,-1,-2,-1,-1
1517188324861548,1,-1,0,0,-3,-2,1,0
1517188324861548,-1,-2,-3,0,-1,1,1,-2
1517188324876572,-2,0,0,-2,0,-1,-3,-1
1517188324876572,0,-1,-1,-2,-4,-2,0,-3
1517188324877569,-2,-1,1,0,0,-1,-2,2
1517188324877569,-2,-3,-2,-2,-1,-3,-3,-2
1517188324899574,0,-1,-2,0,0,-1,1,2
1517188324899574,-2,-3,0,0,0,-2,-2,0
1517188324900575,-1,-7,1,-3,-1,1,1,-1
1517188324900575,-3,-1,1,-2,-1,0,0,-2
1517188324922648,-2,0,-1,-2,0,2,1,0
1517188324922648,-3,2,-1,-2,-1,-1,-2,1
1517188324922648,1,-7,0,-1,0,-1,-1,-1
1517188324922648,0,0,-5,-1,0,-1,-2,-5
1517188324936672,-1,-3,-2,0,-1,-2,-2,-4
1517188324936672,0,-1,-1,-3,0,0,-1,1
1517188324937669,0,2,1,0,-2,1,-4,-6
1517188324937669,1,0,1,-2,1,-2,-1,1
1517188324959684,0,-1,-1,1,-1,2,0,0
1517188324959684,1,-1,3,-1,-1,-4,-1,1
1517188324960675,-2,1,-1,-3,1,-2,0,1
1517188324960675,-1,-1,-5,-2,-2,2,-1,0
1517188324982690,-3,0,-1,-4,-1,0,1,0
1517188324982690,0,-2,-3,2,-3,0,-1,-1
1517188324982690,-3,-1,-4,-2,-1,-2,-1,-1
1517188324982690,-1,0,0,1,-2,0,-1,1
1517188324996702,-2,-3,1,-1,-1,2,-2,2
1517188324996702,-5,2,1,0,-1,-1,2,0
1517188324997703,1,2,-1,0,-1,-2,0,-1
1517188324997703,-1,0,-1,1,-1,-2,0,-2
1517188325019731,0,-2,-1,-3,-2,-1,-1,1
1517188325019731,0,-3,1,0,-2,-2,-2,-2
1517188325020722,2,0,-1,-1,-2,0,-2,-1
1517188325020722,0,-2,-2,-3,0,-1,-1,0
1517188325042746,-1,1,-1,0,1,-1,1,-2
1517188325042746,1,-3,1,-1,-1,2,0,-2
1517188325042746,0,0,-3,0,1,1,-1,0
1517188325042746,1,-1,-1,1,0,1,-2,0
1517188325056753,0,2,0,-2,-4,-2,-1,0
1517188325056753,0,0,0,-1,-1,0,-2,-2
1517188325057754,-2,-1,1,-1,-1,-3,-2,-1
1517188325057754,0,-2,0,-1,-1,-1,-4,-2
1517188325079769,0,-2,-2,0,0,0,0,-3
1517188325079769,-1,-2,0,-4,0,1,-1,0
1517188325080762,0,-1,0,0,0,-1,1,-2
1517188325080762,-2,-2,-2,-4,0,-3,-3,-5
1517188325102777,0,-2,-1,-2,-4,-2,-1,-1
1517188325102777,-1,-2,1,0,-2,-2,-1,-1
1517188325102777,-1,-1,-1,-1,-3,-2,0,-3
1517188325102777,0,-1,-2,-2,1,-3,-1,0
1517188325116786,-2,0,1,0,-2,-2,-3,-1
1517188325116786,1,-2,0,-1,1,-4,-1,0
1517188325117787,-2,0,-2,0,-3,-1,1,-1
1517188325117787,-1,-2,-3,-1,-1,-1,-3,0
1517188325139827,0,-1,-1,-5,-2,-2,-2,-1
1517188325139827,0,1,-1,1,-2,2,0,1
1517188325140812,0,-1,3,-3,-4,2,1,0
1517188325140812,-1,-3,0,0,-1,1,2,-3
1517188325162819,0,0,-3,-1,-1,-1,0,-3
1517188325162819,0,0,-2,-2,-2,-1,0,-1
1517188325162819,-2,-2,0,-3,-2,-1,-2,-1
1517188325162819,1,3,-2,1,-2,1,0,1
1517188325176845,-2,-3,1,-2,0,-2,4,-2
1517188325176845,-1,0,-1,1,0,-2,-3,-2
1517188325177838,0,-1,-1,-1,0,-2,-2,-1
1517188325177838,-6,1,-1,-3,-2,-2,-1,-1
1517188325199850,-1,-2,-2,-2,1,1,0,0
1517188325199850,-2,-1,1,0,-3,0,2,2
1517188325200847,2,-1,0,1,-1,0,-3,-1
1517188325200847,1,1,-2,-2,1,0,-1,-3
1517188325221872,-2,2,-3,-2,-1,2,-2,-1
1517188325221872,-2,0,-2,-2,-3,0,-3,-1
1517188325222861,-2,-1,-2,-2,1,-2,2,-1
1517188325222861,-2,0,-2,1,-3,-1,0,2
1517188325236871,-1,-2,-1,0,0,-3,-2,-1
1517188325236871,-1,0,0,-1,-1,-2,-2,1
1517188325236871,-1,-4,0,-2,-2,0,-2,0
1517188325236871,-3,3,-4,-3,0,-2,1,-3
1517188325259900,-2,-1,-1,-2,-2,0,0,2
1517188325259900,1,-2,0,-2,-2,-1,4,-1
1517188325260891,-2,0,-1,-2,1,0,-6,-5
1517188325260891,1,-3,0,-2,-2,-2,-2,-1
1517188325281902,-1,-3,-1,-2,0,0,0,0
1517188325281902,0,-1,0,0,0,0,-1,-2
1517188325282904,-2,2,-2,-4,-3,1,-1,1
1517188325282904,0,-2,-3,-1,1,-2,-1,-1
1517188325296914,-1,-1,-1,2,-2,0,1,0
1517188325296914,-1,-1,-1,-1,-2,-2,-2,1
1517188325296914,-2,-1,-1,2,0,-2,0,2
1517188325296914,-1,-1,0,-3,-1,1,-1,0
1517188325319944,1,-2,-1,0,0,0,-3,-5
1517188325319944,-1,-1,-2,-1,0,-4,1,-1
1517188325320940,-2,-1,-3,-1,-2,-1,-1,-5
1517188325320940,-1,-2,0,-2,-2,2,-1,-1
1517188325341954,1,-2,1,-3,-2,-2,-3,0
1517188325341954,-3,-5,0,-2,0,0,-1,-4
1517188325342956,0,1,-1,3,0,-1,-1,4
1517188325342956,-2,-1,-3,-1,1,-3,0,-1
1517188325356966,2,-3,-1,1,-3,0,0,-1
1517188325356966,-2,0,-1,-1,-1,-1,-1,-2
1517188325356966,-1,-3,1,0,-1,0,3,-2
1517188325356966,-1,-1,-2,0,-1,0,-2,1
1517188325379972,-1,0,-1,0,-1,0,1,1
1517188325379972,2,0,-2,-3,0,-1,0,2
1517188325380974,-1,-3,-4,-1,-3,0,-1,-3
1517188325380974,-3,-4,0,-1,-1,-3,1,1
1517188325401057,-1,0,1,-2,2,-4,-1,-4
1517188325401057,0,-3,1,1,-1,-1,-2,-3
1517188325409056,-3,1,2,0,-3,-3,-1,0
1517188325409056,-1,1,-1,-2,1,-1,0,-2
1517188325418060,-1,1,-3,1,-1,2,2,3
1517188325418060,-2,0,-2,-3,-3,-1,-5,-12
1517188325419061,1,1,-2,-1,2,-4,-1,3
1517188325419061,0,-2,-2,0,-4,-1,-2,-1
1517188325440085,-2,1,1,-3,2,-2,0,-1
1517188325440085,0,-2,0,2,1,-2,-1,-2
1517188325440085,-1,-3,-2,-1,-2,-1,1,2
1517188325440085,-1,-2,-1,-3,-2,0,-2,1
1517188325462094,-2,-3,2,1,-2,-2,0,1
1517188325462094,1,-2,-1,0,-1,0,1,2
1517188325463092,1,-2,0,-1,-2,1,-2,-3
1517188325463092,-3,-3,-1,1,0,0,0,-3
1517188325476117,1,2,-2,-2,-1,-1,-3,-4
1517188325476117,0,1,0,-1,-1,0,0,1
1517188325477114,-1,3,-1,-4,1,-2,0,-3
1517188325477114,1,1,-3,0,-1,0,-3,1
1517188325500156,-1,0,1,-1,-1,-1,-1,-3
1517188325500156,-2,-1,-2,-1,-4,0,-3,-1
1517188325500156,-2,0,-2,-2,0,1,-1,1
1517188325500156,0,0,0,-2,0,0,-1,-1
1517188325522174,-3,-1,-1,-2,-1,-3,-3,-2
1517188325522174,1,0,3,0,-2,-1,0,-1
1517188325523174,-1,-2,1,1,-3,-2,0,0
1517188325523174,-1,-2,0,-1,-1,-2,-1,-1
1517188325536195,-1,-2,-1,-2,-2,0,-1,0
1517188325536195,-1,-3,1,2,-3,1,-2,-1
1517188325544199,-2,-2,0,-3,-1,-1,0,-3
1517188325544199,0,-2,0,-2,0,-3,1,-1
1517188325560223,-1,-1,-1,-1,-1,-1,1,1
1517188325560223,0,1,0,-3,0,0,-1,-6
1517188325560223,-2,-1,-1,1,-1,1,-1,1
1517188325560223,0,-1,-2,-1,-1,-2,-1,-1
1517188325582226,0,-5,-2,0,-2,-1,-2,-4
1517188325582226,0,-2,-1,0,-2,-1,-1,2
1517188325583215,0,-1,2,-2,1,-3,1,-1
1517188325583215,1,2,-2,-1,-1,-1,0,1
1517188325596225,0,-7,4,2,-1,-3,-6,-5
1517188325596225,-1,0,0,-5,2,-1,-1,0
1517188325605232,-4,-1,-2,-3,-2,-2,-1,-2
1517188325605232,-3,-2,1,-2,0,1,-1,-1
1517188325620253,-2,1,0,-2,-2,1,-1,-1
1517188325620253,0,-1,-1,0,-2,-4,0,5
1517188325621241,0,-1,-2,0,-1,0,0,-2
1517188325621241,0,-2,-1,0,-2,1,0,-3
1517188325642275,-2,0,-1,-1,1,3,-1,0
1517188325642275,-4,1,2,0,-1,1,-1,0
1517188325644277,1,-2,-3,-2,-1,-2,-2,3
1517188325644277,-1,-2,-1,0,2,-2,-2,-3
1517188325656278,-2,1,0,-3,-1,-1,-2,2
1517188325656278,-2,-4,1,1,-1,-1,0,0
1517188325665272,0,0,-2,-1,-3,0,-1,1
1517188325665272,-2,1,-3,-1,-1,0,-1,-5
1517188325679297,-1,0,1,-1,-1,-1,-1,1
1517188325679297,1,0,0,-1,-1,0,0,0
1517188325681284,0,-4,3,1,-4,0,-2,-4
1517188325681284,-1,0,-4,0,1,-1,-1,0
1517188325702300,0,0,-3,-3,-2,-1,0,1
1517188325702300,0,1,2,0,0,-1,0,-4
1517188325704313,-3,0,-2,-4,-2,-1,0,0
1517188325704313,0,-1,-1,-4,-4,-2,0,3
1517188325716319,-2,0,-1,-3,-1,0,-3,-8
1517188325716319,0,-3,-5,1,1,-2,-1,2
1517188325725331,-1,-2,-2,-1,2,-2,-2,-2
1517188325725331,-2,1,-4,0,-4,-2,1,-2
1517188325739339,-1,2,-2,2,-1,-2,3,3
1517188325739339,-2,1,0,-2,-2,1,-4,-3
1517188325741326,2,-4,2,-1,-2,-1,-1,-2
1517188325741326,-2,-1,-1,-3,0,-4,0,-1
1517188325762367,0,-3,2,-1,-3,-1,1,1
1517188325762367,0,-2,-3,-4,-2,-2,1,-1
1517188325764345,0,-1,-3,0,1,-2,0,-2
1517188325764345,0,-1,-4,-1,-3,-1,-1,-2
1517188325776376,-2,0,-2,-1,1,-2,-2,-1
1517188325776376,-1,-1,-2,-5,-1,-2,-1,2
1517188325785358,-3,3,-2,-2,-1,-2,-2,-5
1517188325785358,2,0,-2,1,-1,0,0,-2
1517188325799368,-2,-1,0,0,0,-1,-2,-1
1517188325799368,-1,0,2,1,-1,2,-1,-3
1517188325801369,-1,2,1,-1,-2,-1,-3,2
1517188325801369,-3,0,-1,0,2,-1,-1,-1
1517188325822384,-2,-2,-2,-2,-1,-1,1,-1
1517188325822384,0,0,-3,0,-1,0,-1,4
1517188325824387,-2,-1,-4,0,-2,2,-2,-7
1517188325824387,-2,-3,-3,-3,-1,-2,0,3
1517188325844412,0,-1,-1,-2,0,1,-1,-3
1517188325844412,-1,-5,1,-2,-1,-2,0,-3
1517188325846400,0,1,0,-1,0,1,-1,1
1517188325846400,0,-2,1,0,0,0,-1,1
1517188325859420,-2,0,-1,1,-1,-2,-2,-3
1517188325859420,-1,-1,1,1,-1,1,0,-2
1517188325861412,-3,1,-1,0,-1,1,3,-1
1517188325861412,-1,1,-2,0,0,2,2,0
1517188325882431,0,0,-2,-2,-1,-2,-2,2
1517188325882431,0,-4,1,2,0,0,0,-1
1517188325884428,-1,-1,1,-2,0,-2,-2,2
1517188325884428,1,-1,-1,-2,-2,-1,-2,-3
1517188325904455,0,0,-1,-1,0,2,-1,1
1517188325904455,-1,-2,-1,-2,-2,0,-2,-2
1517188325906446,-2,-2,0,-3,1,-1,-1,2
1517188325906446,0,-2,1,-3,1,2,2,-3
1517188325919453,2,-3,-1,1,-2,0,0,-3
1517188325919453,1,-1,-1,-3,-1,0,0,-1
1517188325921464,0,-1,-1,0,-1,-2,-1,0
1517188325921464,-1,2,-1,-3,-2,-4,-1,-1
1517188325942469,-2,-2,-1,0,-1,-1,-2,1
1517188325942469,-1,-2,3,0,-2,0,-3,-2
1517188325944487,-1,-5,1,0,-1,0,-1,-1
1517188325944487,1,-2,1,-1,-2,3,-3,1
1517188325964504,-1,-1,-4,0,-1,0,2,1
1517188325964504,1,3,-2,-1,-1,-2,0,1
1517188325966486,-2,0,-2,-3,-2,-4,-3,-3
1517188325966486,-2,-2,-2,-2,0,-1,-2,0
1517188325979509,-1,-1,1,-2,-2,-2,-1,-5
1517188325979509,-2,1,-2,0,-4,-2,-1,0
1517188325981497,0,-2,-2,0,-2,-1,2,0
1517188325981497,0,0,-3,-1,-1,0,-2,-4
1517188326002511,3,-1,-4,-3,-1,-1,2,1
1517188326002511,-2,-2,1,-1,0,-3,-5,-5
