timestamp,emg1,emg2,emg3,emg4,emg5,emg6,emg7,emg8
1513487020389831,-2,-1,-1,-3,0,-1,-1,0
1513487020389831,-2,0,-1,0,-1,0,-2,1
1513487020391832,1,-1,0,-1,-2,-1,-1,-2
1513487020391832,-1,-4,0,-1,0,-1,-1,-1
1513487020403840,-1,0,-2,-1,-1,-1,-2,0
1513487020403840,0,0,1,-1,-2,-1,0,0
1513487020410845,1,0,-1,-2,-1,0,-1,-2
1513487020410845,-3,-3,1,-2,-1,0,0,-1
1513487020427858,-3,-2,-1,-1,-2,-2,0,-3
1513487020427858,-3,0,-1,-1,0,-1,-1,-1
1513487020428859,-2,-1,0,0,-1,-1,-2,1
1513487020428859,-1,-1,-3,-2,-1,-2,-1,-2
1513487020449873,0,-1,-1,-1,-1,-1,0,1
1513487020449873,-1,-1,-1,-2,0,-3,-1,-1
1513487020450874,-2,-2,-2,0,-2,-2,-2,0
1513487020450874,-2,-1,-3,-1,-1,-2,-2,-1
1513487020464885,-1,-1,-1,-1,-2,0,-1,-1
1513487020464885,1,-1,0,-3,-1,-2,-2,0
1513487020470888,0,0,-1,0,0,0,0,1
1513487020470888,0,-1,-1,-2,1,-1,-2,-2
1513487020487901,0,-2,-1,-1,0,-1,-1,-1
1513487020487901,0,-1,0,-1,-2,0,0,-2
1513487020488901,-2,0,-2,-3,-1,-1,-1,-1
1513487020488901,1,0,-1,-1,-1,-2,-4,-1
1513487020509958,-2,0,-1,-1,0,0,0,-1
1513487020509958,-3,-1,-1,1,-1,1,0,-2
1513487020511919,0,-2,-1,-1,-1,-2,-1,-1
1513487020511919,-2,-3,-2,0,-1,-3,-3,-2
1513487020523953,1,-3,0,-2,0,-4,-3,-2
1513487020523953,2,1,-2,-2,-3,1,0,0
1513487020530947,-2,0,0,0,-3,-2,-1,-1
1513487020530947,-1,-1,-1,-3,0,1,-2,0
1513487020547944,-3,-1,-1,1,0,-2,-2,1
1513487020547944,-1,-1,-1,-1,0,0,1,-2
1513487020548943,0,0,0,-2,-2,0,0,-2
1513487020548943,-1,-2,-1,-1,0,-2,-2,-3
1513487020569958,1,-1,-2,-1,-1,-1,0,0
1513487020569958,-2,2,-2,-1,-1,-2,-1,0
1513487020570961,0,-2,-2,-1,-2,-2,-1,1
1513487020570961,0,0,0,-2,-1,-1,-3,-2
1513487020583980,-2,-3,-1,-1,-1,-1,-1,-2
1513487020583980,-1,1,-1,0,1,0,-2,0
1513487020590985,0,-2,-1,-1,0,0,1,-3
1513487020590985,0,-3,-1,-3,0,-1,1,0
1513487020606994,-1,-1,0,0,-2,0,-2,-2
1513487020606994,-3,-1,-1,-1,-1,-1,-2,0
1513487020608995,-1,1,0,-2,-1,-1,-1,-1
1513487020608995,-1,-2,-2,-2,0,1,-1,-1
1513487020646024,-1,-2,-2,-1,-1,-2,-2,0
1513487020646024,-2,-3,0,-1,-2,-1,1,-2
1513487020648026,-2,-3,-2,-2,-1,0,-2,-2
1513487020648026,-2,-3,-1,0,-2,-3,-2,1
1513487020649014,-1,-1,-1,0,0,-1,-1,-1
1513487020649014,0,-1,-2,-1,-2,-2,1,0
1513487020652028,0,1,-2,-2,-1,-1,0,-1
1513487020652028,-1,-2,-1,0,-1,-1,-2,-3
1513487020667046,-1,-2,0,-1,-1,0,-2,-1
1513487020667046,-1,-1,1,0,-1,-1,0,0
1513487020669029,-1,-1,1,0,0,0,0,-1
1513487020669029,-1,-3,-2,0,-3,-1,1,-1
1513487020690070,0,-2,-2,-3,-1,-1,-2,-2
1513487020690070,0,0,-2,-1,-3,0,-1,-1
1513487020691069,-1,-1,-1,-3,0,-1,0,-1
1513487020691069,-3,-2,-1,-1,-3,0,-2,-4
1513487020704052,0,-3,-1,-1,0,-2,-2,-1
1513487020704052,0,0,-2,-3,-3,0,0,1
1513487020720066,0,1,0,0,-2,-1,0,0
1513487020720066,2,-2,-1,-1,0,-1,-4,-2
1513487020727082,-4,0,-2,-4,-1,0,1,-2
1513487020727082,0,-1,0,-1,1,-1,-2,-3
1513487020729070,-2,0,-1,0,-2,-1,0,-1
1513487020729070,-1,-1,-1,-1,0,1,1,-1
1513487020750095,-1,0,-2,-2,-3,-1,2,-1
1513487020750095,-2,0,-1,-1,-1,-1,-1,-1
1513487020751087,-1,-2,-1,0,-1,0,-1,-1
1513487020751087,-3,0,0,-1,-1,0,-3,-1
1513487020763104,1,-2,-3,-1,-2,-1,-2,0
1513487020763104,-2,-1,-1,-1,-2,1,0,-1
1513487020772123,-2,-1,0,-1,0,-1,-2,-2
1513487020772123,-1,-2,-2,-1,0,0,-2,-1
1513487020787113,-1,-1,0,0,0,-1,-1,0
1513487020787113,1,1,0,0,0,-2,0,-2
1513487020789113,0,0,-2,0,0,-2,0,-2
1513487020789113,-1,-2,-2,-1,-2,-3,-2,1
1513487020810148,0,1,-1,-1,-2,-3,1,0
1513487020810148,0,-1,-1,0,-2,-1,-2,-1
1513487020811131,-1,-3,0,-2,-1,1,0,-2
1513487020811131,0,-1,-2,-2,-3,-3,-1,-2
1513487020832155,0,-1,0,-2,-2,-1,-2,0
1513487020832155,0,0,-1,-2,0,-2,-1,-1
1513487020834164,0,-1,-2,-1,0,0,-1,0
1513487020834164,-3,-3,-1,-1,-1,-1,-2,-1
1513487020847163,-4,-1,-2,1,0,0,-2,-1
1513487020847163,0,0,-1,-2,0,-2,1,-1
1513487020849165,0,-2,-1,-1,-1,-2,-3,-1
1513487020849165,-1,-3,0,-1,0,-1,-1,-3
1513487020870186,-2,-2,0,-1,0,-2,-2,-2
1513487020870186,0,1,-2,0,-2,0,-3,-1
1513487020871187,0,1,-3,0,0,0,-1,-3
1513487020871187,-3,-2,-1,-2,-2,-2,0,-1
1513487020883189,2,0,0,-1,-1,-2,-2,-3
1513487020883189,-1,-1,0,-1,-2,-1,1,1
1513487020892200,-3,-1,-2,0,-2,-1,-2,1
1513487020892200,-1,-2,-3,-1,-1,-3,-1,-1
1513487020915212,-1,-2,-3,-2,-1,-1,-1,-1
1513487020915212,-1,0,-1,-1,-1,-1,0,0
1513487020916203,-1,-1,0,-3,-2,-1,-2,-3
1513487020916203,-1,0,1,-1,-1,0,0,-2
1513487020930222,-1,0,-1,0,-2,-1,-1,0
1513487020930222,0,2,-2,0,-3,-1,1,-1
1513487020931227,-2,-1,-1,-1,0,-1,-1,-1
1513487020931227,-2,0,-1,-2,-2,0,-4,-2
1513487020943260,-2,-2,-1,-1,-1,-1,1,0
1513487020943260,1,-2,-1,-1,-1,-1,0,0
1513487020952238,1,0,0,-1,-3,-1,0,1
1513487020952238,-1,1,-2,-1,-2,-1,-2,-2
1513487020967239,0,-1,0,0,-1,-2,-2,-1
1513487020967239,-2,0,0,0,0,1,0,-1
1513487020969280,-3,0,0,-1,0,0,1,-1
1513487020969280,0,0,0,-1,0,-3,-2,-1
1513487020997260,0,-1,-3,-2,-1,0,-2,-2
1513487020997260,0,0,0,-1,-2,1,-2,-1
1513487020999265,0,-2,0,-1,-2,-1,1,-1
1513487020999265,0,-2,-1,0,-1,-2,0,-3
1513487021003266,0,-1,0,-1,0,-1,-1,-1
1513487021003266,-2,-1,-3,-2,-3,0,-1,0
1513487021012273,-2,-1,-2,-2,0,-2,-3,1
1513487021012273,-4,-1,-1,-2,-1,-1,0,-1
1513487021027282,0,1,-1,-2,0,-2,-1,-2
1513487021027282,0,0,0,-1,2,1,1,-1
1513487021029284,-2,0,-2,-1,-2,-2,1,0
1513487021029284,-2,-1,-3,-1,0,-1,-1,-2
1513487021050300,-1,-3,-2,-1,-1,-1,0,0
1513487021050300,0,-1,-1,-2,-2,-1,1,-1
1513487021051298,-2,0,-1,-2,-2,-3,-1,-2
1513487021051298,0,-3,-2,-1,-1,0,-2,-3
1513487021063317,-1,-2,-1,0,0,0,-2,-2
1513487021063317,-1,0,0,0,0,-2,-2,0
1513487021072328,-2,-1,-1,0,-1,0,-2,-3
1513487021072328,-2,0,0,-1,0,-3,-2,-1
1513487021087350,-2,-1,-1,-1,-2,-3,2,-2
1513487021087350,1,-1,-1,0,-2,-2,-1,-1
1513487021089347,-1,0,-1,-1,0,-2,-2,0
1513487021089347,-2,-3,-1,-1,-2,1,-2,1
1513487021110353,-2,-3,-2,0,-1,-1,-1,-3
1513487021110353,1,1,-1,-2,-1,-2,0,-2
1513487021111362,0,-2,-1,-2,-1,-1,0,-2
1513487021111362,-1,1,-2,-1,1,-2,-1,-1
1513487021123351,-2,-1,-3,0,-1,-2,-2,-2
1513487021123351,-1,-1,1,-1,-1,-1,0,0
1513487021132356,1,0,0,-1,-2,1,-2,-1
1513487021132356,0,-2,-1,0,0,-2,-2,-2
1513487021147368,-1,0,-2,-1,-2,0,1,-1
1513487021147368,-3,-1,-1,1,0,-1,0,-2
1513487021149378,1,0,-3,-1,-1,0,0,-2
1513487021149378,-1,-2,-1,-1,1,-2,-1,-1
1513487021169382,0,-2,-2,-1,0,1,-1,-1
1513487021169382,0,1,-2,-1,-2,-1,1,0
1513487021170382,-1,-2,0,0,-1,-2,0,-1
1513487021170382,-1,-2,-1,-2,-1,-1,-2,-2
1513487021192456,0,-1,0,-3,0,-1,-3,-2
1513487021192456,0,0,-1,0,-1,-1,-1,-1
1513487021193409,-2,-1,-1,1,-1,1,-4,-3
1513487021193409,0,-1,-1,-3,-1,0,0,0
1513487021206431,-1,-2,-1,-2,0,-2,-1,-1
1513487021206431,2,1,0,-2,-1,0,-1,-2
1513487021207410,-1,-1,1,0,-1,0,-1,-2
1513487021207410,-2,-3,0,0,0,0,-3,-2
1513487021229434,-2,-1,-2,-1,0,-2,-1,-1
1513487021229434,-1,-1,-1,-2,-1,0,0,-2
1513487021230435,0,-1,-1,0,-1,0,0,0
1513487021230435,-2,-3,-2,-1,-2,-1,-3,-1
1513487021259460,-1,0,-2,-1,1,0,-2,-2
1513487021259460,-3,-1,-1,-3,0,-1,0,0
1513487021268452,-3,0,-1,-2,0,-2,-2,-1
1513487021268452,-1,-2,-1,-1,-1,-2,-3,-1
1513487021269453,-1,1,-1,0,-2,-1,-1,0
1513487021269453,0,1,-2,0,-2,-2,-1,-1
1513487021270453,1,0,-1,-2,-2,0,0,-1
1513487021270453,-2,-1,-3,-1,-1,-2,0,-2
1513487021289470,-1,-2,-2,0,-1,-2,0,1
1513487021289470,-1,0,-1,-1,-2,1,-1,1
1513487021290487,-1,1,-2,-2,-1,-2,-1,0
1513487021290487,0,-2,-2,-1,0,-1,0,0
1513487021311495,1,-1,-1,-1,-3,1,-1,-2
1513487021311495,-3,0,-2,1,0,-2,0,0
1513487021312493,-3,-2,-1,0,-1,-2,-2,-4
1513487021312493,-1,0,0,-1,-2,0,-1,-2
1513487021326504,-3,-1,-1,-1,-1,-1,1,-1
1513487021326504,1,-1,-2,-1,-1,-1,-1,1
1513487021327494,-2,-2,-1,-2,-1,-1,-1,0
1513487021327494,-1,-2,-1,0,-1,-2,-2,-2
1513487021349525,-2,1,-1,-1,-1,-1,-2,-2
1513487021349525,1,-2,0,-2,-2,-1,-1,0
1513487021350512,-1,0,-2,-1,-1,0,0,-1
1513487021350512,0,-2,0,1,-2,-1,-1,-2
1513487021371548,-2,-2,0,-1,-1,0,1,1
1513487021371548,0,0,-2,-1,-2,-1,-1,-2
1513487021372525,0,-1,-2,-3,1,0,0,2
1513487021372525,-1,-2,0,-1,-2,-1,-2,-1
1513487021386545,1,0,-1,-1,-1,0,-2,0
1513487021386545,-3,0,-1,-2,0,-3,-1,-1
1513487021387535,0,-1,-1,-2,-1,-2,-1,-1
1513487021387535,-1,-1,-2,-2,0,-1,-4,0
1513487021409566,0,-3,-2,-1,0,-3,-1,-2
1513487021409566,-1,-1,2,0,-1,1,-2,0
1513487021410553,-1,0,0,0,-1,0,0,-1
1513487021410553,-1,0,-1,-2,1,-1,-1,-3
1513487021431577,-2,-1,2,-2,0,0,-1,0
1513487021431577,-1,1,-1,-1,0,0,1,-1
1513487021432570,-3,0,-1,-1,0,-2,0,-4
1513487021432570,-2,-3,-2,-2,-2,-1,0,-1
1513487021446577,-1,-3,-2,-1,-1,0,-1,-2
1513487021446577,0,0,-1,1,-1,-1,0,-1
1513487021447578,0,-1,0,0,0,-2,-2,-1
1513487021447578,1,0,-3,-1,-1,-2,-2,-1
1513487021469634,1,-1,0,-2,-3,-2,-2,-2
1513487021469634,-1,-1,-2,-2,-3,0,-2,1
1513487021470631,0,0,-2,-1,-2,-2,-4,-2
1513487021470631,-1,-2,-1,1,-1,-1,-1,-2
1513487021491667,0,1,-2,-2,0,-2,-1,0
1513487021491667,0,-1,-1,-2,0,-1,0,-3
1513487021492670,-1,0,-1,-2,-2,-2,-1,-1
1513487021492670,-1,-4,-1,-1,-1,0,-1,-1
1513487021506679,-1,0,-1,-1,1,-2,1,1
1513487021506679,-1,-1,-1,-2,-2,0,0,-2
1513487021507658,-1,-3,-1,-1,-1,1,-2,1
1513487021507658,-2,0,0,-3,-2,-3,-1,-1
1513487021529674,-1,-4,-1,0,-1,0,-2,0
1513487021529674,-1,-2,-1,-2,0,-1,-2,-3
1513487021530675,-1,0,0,-1,0,0,-2,-3
1513487021530675,-1,-3,-1,0,-1,-1,-2,0
1513487021551692,0,-1,-2,1,-3,-2,0,0
1513487021551692,-2,1,-2,-1,0,-1,1,0
1513487021552690,-1,-1,-2,0,-2,0,-1,0
1513487021552690,0,-3,-2,-1,-1,-1,-2,-2
1513487021566699,0,0,0,-1,-1,-1,0,-2
1513487021566699,0,-1,-1,-1,-1,-1,-2,-1
1513487021567700,0,-2,0,-1,0,0,-1,0
1513487021567700,-1,-1,-3,-1,-1,1,0,0
1513487021588715,-1,-1,-2,0,-2,0,-1,0
1513487021588715,-1,-1,0,-1,1,-2,-1,-2
1513487021589723,-1,-1,-1,0,-1,-2,-1,-2
1513487021589723,-3,-1,-1,0,1,-2,0,1
1513487021611745,-2,-1,-2,-2,-2,-2,-1,-1
1513487021611745,1,-1,-1,0,-1,1,0,1
1513487021612733,-1,-1,-2,0,-2,-2,-1,-1
1513487021612733,0,1,-2,-2,0,-2,-1,-4
1513487021626742,-2,0,0,0,-1,0,-2,-2
1513487021626742,-3,-1,-2,0,-1,-2,-1,0
1513487021627746,-1,-1,-2,-2,-2,-2,-1,0
1513487021627746,0,-2,-1,0,-2,-1,-1,-1
1513487021648757,-1,0,-2,-1,0,-1,-2,0
1513487021648757,0,-2,-1,-1,-2,-1,-1,0
1513487021649759,-2,-2,-2,-1,0,-2,-1,0
1513487021649759,-3,-2,-2,-2,0,-1,-1,-1
1513487021671787,0,0,-1,-3,-4,0,1,-1
1513487021671787,-1,0,0,-1,-4,-1,0,0
1513487021672784,-1,0,0,-1,0,-1,-2,-3
1513487021672784,1,1,-1,-1,-2,-2,-1,0
1513487021686798,-1,-1,0,0,1,-1,-2,1
1513487021686798,-1,-2,1,-2,-1,1,-1,-2
1513487021687794,-1,-3,-1,1,-3,-1,-3,-2
1513487021687794,-3,-1,1,0,-3,-1,-3,-2
1513487021708800,0,-1,0,0,-1,-1,1,0
1513487021708800,1,2,-2,0,-1,0,1,0
1513487021709799,-2,-2,-1,-1,0,-2,-2,0
1513487021709799,-1,-2,-2,-2,1,-1,-1,-3
1513487021731817,-1,-1,-3,-2,-2,-1,0,-2
1513487021731817,-1,-1,-1,0,-1,-1,0,0
1513487021732822,0,-1,-2,0,-1,1,1,0
1513487021732822,-1,-1,-3,-2,-1,-1,-3,-1
1513487021745827,0,0,0,-1,0,-2,-1,-3
1513487021745827,0,1,-1,-1,-2,-3,-2,0
1513487021753841,-2,-3,-1,-2,-1,-1,-1,-1
1513487021753841,0,-3,-1,1,-1,-2,-1,-1
1513487021768858,0,0,1,-1,-1,-2,-4,-2
1513487021768858,2,-1,1,-1,0,1,0,-2
1513487021769843,1,1,0,-2,-3,0,-1,-3
1513487021769843,-1,-1,-1,-1,0,-1,-2,-3
1513487021791862,-1,0,-1,-1,-2,-1,1,0
1513487021791862,-2,0,-1,-3,-2,-1,-1,-2
1513487021792863,-2,-2,-1,-1,-1,-1,-1,1
1513487021792863,-1,-1,-1,-2,-1,0,0,0
1513487021805870,-1,0,-1,0,-2,-2,0,-1
1513487021805870,-1,1,-2,1,-2,0,-1,0
1513487021813875,-1,-1,-1,-2,0,-1,2,-2
1513487021813875,-1,0,-2,0,-2,-1,0,1
1513487021828888,0,0,0,-1,0,0,2,0
1513487021828888,0,0,0,-2,-2,0,1,0
1513487021829886,-2,-1,-2,-1,-1,-1,-2,-3
1513487021829886,2,0,0,0,-1,-3,-1,-2
1513487021851902,-2,0,-3,0,-3,-1,0,-2
1513487021851902,-3,-2,-2,-3,-1,0,-1,-1
1513487021851902,0,0,-2,-1,-1,0,-3,1
1513487021851902,1,-2,-1,-1,0,-2,-3,-1
1513487021865911,2,-2,-2,-2,-3,-1,0,-2
1513487021865911,-2,-1,-1,0,0,-2,-1,-2
1513487021873931,-2,-2,-2,1,-1,-2,0,0
1513487021873931,-2,-2,-1,-1,0,0,0,-2
1513487021888927,1,-1,0,0,-2,1,-1,0
1513487021888927,-1,-4,-1,-1,-1,0,0,-1
1513487021889928,-2,-1,-1,-1,-1,-2,-1,-2
1513487021889928,-3,-1,-2,-1,0,-1,-2,0
1513487021912030,-2,1,0,-1,1,-1,-1,-1
1513487021912030,-2,0,1,-1,-1,0,-1,-1
1513487021912030,0,-1,1,-2,-2,0,-2,-3
1513487021912030,-2,-1,-1,-1,-1,-2,0,-2
1513487021926043,-3,1,-1,-2,-1,0,0,-2
1513487021926043,0,2,0,-1,-2,-1,-1,1
1513487021934048,0,-2,0,-2,-1,-2,-3,-2
1513487021934048,-1,-2,-1,0,-2,-1,-2,1
1513487021949061,-1,-3,-1,0,0,-1,-3,-1
1513487021949061,-1,-2,-2,-1,-2,-1,0,-3
1513487021950050,-2,-2,-1,-2,0,-1,-1,1
1513487021950050,-3,-2,-1,-1,-1,-2,-2,-3
1513487021980081,-2,-1,-3,-1,-2,-2,1,-1
1513487021980081,-1,1,-1,-1,1,-1,0,-2
1513487021981081,-2,-2,-3,-3,-1,-2,0,-1
1513487021981081,2,-1,-1,-1,-3,-3,-3,-1
1513487021986075,2,-1,-1,-2,-3,1,-1,0
1513487021986075,0,1,-2,-2,0,1,0,-2
1513487021994094,-1,0,-1,-1,0,-1,-2,-2
1513487021994094,-1,-1,-2,-1,-2,0,-1,1
1513487022009110,0,-1,1,1,0,-1,1,0
1513487022009110,-1,-1,0,-1,-2,-3,-1,-1
1513487022010093,-1,-1,0,-2,-1,-1,2,-1
1513487022010093,-1,-2,0,-1,-2,-2,-1,-2
1513487022032107,0,1,-2,-1,1,1,-2,1
1513487022032107,-2,-2,-1,-1,-2,0,-1,1
1513487022032107,-2,-2,-2,0,-2,-1,-4,-2
1513487022032107,-1,-1,-1,-2,-2,-1,-1,-1
1513487022046130,-1,-2,-2,-1,-2,-2,-1,0
1513487022046130,-2,0,-1,-1,-1,0,0,-2
1513487022054123,2,-2,-3,-2,-1,-2,-3,-2
1513487022054123,-1,-2,-3,-2,-1,-2,-1,0
1513487022069151,0,-1,0,-2,-1,-2,-1,-1
1513487022069151,-1,-2,-1,0,-2,-2,-1,-2
1513487022070145,-1,-2,-1,0,-1,0,-1,-1
1513487022070145,0,0,-1,-2,1,-1,0,-3
1513487022092151,0,0,-3,0,-1,0,1,0
1513487022092151,0,1,-1,0,-1,-1,-2,0
1513487022092151,-2,-2,-1,-2,-1,-2,-2,-2
1513487022092151,-2,-1,-1,-2,0,-1,-1,-2
1513487022115176,-1,-1,0,-1,-2,-1,1,-1
1513487022115176,1,-1,-3,-2,0,0,-3,-1
1513487022115176,1,-1,-2,-1,0,0,-2,0
1513487022115176,-1,-3,-1,-1,-1,0,-2,-1
1513487022129186,-2,0,0,-2,1,0,1,-1
1513487022129186,-2,-1,-1,-1,0,0,-1,0
1513487022130177,-1,-2,-2,-1,-2,1,-2,-4
1513487022130177,-3,-2,0,-1,-1,-1,-2,-2
1513487022152192,1,1,-1,-1,-3,-3,-1,-1
1513487022152192,-1,-1,1,1,0,-2,-1,-1
1513487022152192,-2,-2,-1,0,0,-1,-1,-1
1513487022152192,-2,-1,-2,-1,-1,1,0,0
1513487022175218,-1,0,-3,0,-2,-1,-2,-3
1513487022175218,-2,-1,-1,-1,0,-4,-2,1
1513487022175218,-1,-1,-1,0,-2,0,-3,1
1513487022175218,1,-2,0,-1,-1,-2,0,-1
1513487022189228,0,-1,0,-1,0,0,0,1
1513487022189228,0,0,-2,-2,-3,0,2,-1
1513487022190225,-3,-1,0,-1,-1,-1,-1,-1
1513487022190225,1,-1,-1,0,-1,-1,0,-1
1513487022212235,-1,0,0,0,0,-1,1,-4
1513487022212235,-3,-1,0,-1,-3,0,-2,-1
1513487022212235,-1,0,-2,-2,0,-3,0,-3
1513487022212235,-2,-2,-3,-2,-2,-1,-3,0
1513487022235272,-2,-2,0,-1,-1,-2,-1,0
1513487022235272,-2,0,-1,1,0,0,-1,-1
1513487022235272,-1,-3,-2,1,1,-2,-2,-1
1513487022235272,-3,-1,-1,-2,-1,-2,-1,-3
1513487022249282,1,-1,-1,0,-1,-1,-2,-1
1513487022249282,1,-2,-1,-1,-2,1,0,-1
1513487022250266,0,-1,-2,-1,0,-1,-1,0
1513487022250266,-2,0,-2,-3,0,0,-1,-3
1513487022271292,-2,-1,-2,-1,-2,0,-1,-1
1513487022271292,-2,0,1,-3,-2,0,-2,-2
1513487022272278,-2,-1,-3,-1,-2,-2,0,-1
1513487022272278,0,-4,-2,0,-1,-1,0,-1
1513487022302310,1,0,0,-2,-1,-1,-1,-1
1513487022302310,0,-1,-1,1,-1,0,-1,-1
1513487022303300,-1,-1,0,-2,-3,-1,-2,-5
1513487022303300,0,0,1,-1,0,-1,-2,-2
1513487022309375,-2,1,1,-1,-1,-2,-1,0
1513487022309375,0,-2,-1,-2,-1,-1,0,0
1513487022310372,0,-2,-2,0,-1,-2,-3,0
1513487022310372,-3,-1,-3,0,-2,-2,0,0
1513487022331388,-1,-1,0,-1,-1,0,0,0
1513487022331388,-2,0,-1,-1,-1,-1,1,-3
1513487022332388,-2,-3,-1,-1,0,-1,-2,-1
1513487022332388,-2,-3,-2,0,-2,-1,-2,-3
1513487022355406,-1,2,0,-1,-4,-1,2,0
1513487022355406,-1,-1,-1,-1,-2,-1,0,-2
1513487022355406,-1,0,-1,0,-3,-2,-2,-1
1513487022355406,-2,0,-1,-1,-2,-2,0,-1
1513487022369405,-1,0,-2,0,-1,1,0,0
1513487022369405,0,-1,-2,-1,-1,-1,0,1
1513487022370396,-2,-2,0,-2,-1,-3,-1,-2
1513487022370396,-2,-2,1,-2,2,-2,-3,-1
1513487022391431,-3,-2,0,0,0,-1,-1,-3
1513487022391431,0,-1,-2,0,-1,-2,0,-2
1513487022392431,-3,-2,-1,-1,0,-1,0,0
1513487022392431,0,0,-2,-1,-1,-1,-2,-3
1513487022414441,-1,0,-1,-3,-2,0,1,2
1513487022414441,1,0,-3,1,0,-1,-2,1
1513487022415429,1,-1,-1,-1,-1,1,-1,0
1513487022415429,-1,0,0,-1,-2,0,-2,0
1513487022429452,0,1,-2,-3,0,0,-1,0
1513487022429452,-2,-2,0,-1,-3,-1,-1,-1
1513487022430453,-1,-1,-1,0,-1,0,-1,-2
1513487022430453,-1,0,-1,-1,-1,0,-1,-1
1513487022451463,0,-2,0,0,-1,0,0,-2
1513487022451463,-2,0,0,-2,-2,-1,-1,0
1513487022452454,-2,-3,0,-1,0,-1,1,-1
1513487022452454,-1,-3,-2,0,-1,-2,0,-1
1513487022474478,-3,0,0,-2,-1,0,-1,0
1513487022474478,-2,1,-2,-1,-1,-1,-2,0
1513487022475470,-1,-3,-2,-1,-1,-2,-2,-1
1513487022475470,-1,-1,-1,0,0,-2,-2,-2
1513487022489503,2,-1,-3,0,-2,0,-1,-1
1513487022489503,-1,-2,-2,-1,-2,-1,0,-2
1513487022490495,-2,0,-1,-1,-3,1,-1,-1
1513487022490495,-1,-1,-2,-1,-1,-1,0,1
1513487022511507,0,0,-2,-1,-1,-2,0,0
1513487022511507,0,-2,0,-1,-1,-1,-1,-1
1513487022512505,-1,0,-2,0,0,-2,-3,-2
1513487022512505,1,-1,-1,-2,-1,0,0,0
1513487022534514,-2,0,-1,-1,-2,-1,-1,-1
1513487022534514,-1,0,0,-1,-1,-1,0,0
1513487022535514,-1,-3,0,-3,0,-4,-2,-2
1513487022535514,-1,0,-1,0,-2,0,-2,-2
1513487022549523,-1,-1,1,-1,0,0,1,-1
1513487022549523,-1,0,0,-2,-2,-2,1,0
1513487022549523,-1,-2,0,-1,-2,-1,-1,-1
1513487022549523,-2,0,-1,-3,0,-1,0,-1
1513487022571558,-1,0,-3,-1,-2,-3,-1,-1
1513487022571558,-1,-2,-1,-2,0,0,-2,0
1513487022579563,-1,0,-3,-2,-1,0,-2,-1
1513487022579563,-1,0,-1,-2,-1,0,-2,-1
1513487022594554,-2,-2,0,-1,-3,-1,-1,-1
1513487022594554,0,0,1,0,-1,-1,-1,-2
1513487022595557,-3,-2,-1,1,-1,-2,-2,-3
1513487022595557,0,-1,-3,-2,-1,-1,-1,-1
1513487022609584,-2,-1,-1,-1,0,-1,1,2
1513487022609584,-1,-1,0,0,0,-1,-1,-1
1513487022609584,-2,-1,-2,-1,-2,-1,-2,-2
1513487022609584,-2,0,-1,-2,-2,-2,0,-2
1513487022631601,-1,0,0,0,-1,-2,-2,-2
1513487022631601,-2,-2,-1,-1,-1,-2,-1,0
1513487022632585,-1,-1,-1,-1,-1,-1,-4,1
1513487022632585,-1,-3,-2,-2,-1,1,0,0
1513487022654599,1,0,-2,-3,0,-1,1,-2
1513487022654599,-3,0,-2,-1,0,1,0,-2
1513487022655599,-2,-2,-1,-2,-2,-2,-1,-1
1513487022655599,0,-2,-2,1,-1,-3,-2,1
1513487022669623,-1,0,0,0,-1,0,-2,-2
1513487022669623,-1,0,-2,-2,1,0,-2,-1
1513487022669623,-1,-1,-2,-2,-1,-2,-2,0
1513487022669623,-2,0,1,-1,1,0,-1,-1
1513487022699645,1,-1,-1,1,-3,0,0,-1
1513487022699645,0,-2,-2,-1,0,-1,-2,-1
1513487022701646,-4,-3,-2,-1,0,0,0,-1
1513487022701646,-1,-3,-1,-2,-1,-1,0,0
1513487022714649,-3,1,-2,-3,-2,-1,-3,1
1513487022714649,1,1,1,-1,-2,-2,-2,-1
1513487022715641,-1,-1,-4,-3,-1,-1,-3,1
1513487022715641,-1,-1,-1,-1,-1,-1,-2,-2
1513487022728651,-1,2,-1,0,1,-4,0,-1
1513487022728651,0,-1,-1,-1,0,-1,-2,-2
1513487022736656,0,-2,1,-2,0,-2,0,-1
1513487022736656,-3,-3,-2,0,-2,0,0,-1
1513487022751675,0,-1,-1,0,-2,-1,-2,-2
1513487022751675,-2,0,0,-1,-3,-2,-1,0
1513487022752675,0,1,-1,0,-1,-1,0,-1
1513487022752675,0,0,-1,-1,-2,0,-1,0
1513487022774714,1,1,-1,0,-2,1,0,-2
1513487022774714,-1,-1,-1,-1,-1,-1,-2,0
1513487022775683,-2,-3,-1,-3,0,1,-2,-2
1513487022775683,-3,-2,-1,-2,0,-1,-1,0
1513487022788691,-2,0,0,-2,-2,0,0,0
1513487022788691,-1,-1,-2,0,-1,-1,-1,-2
1513487022796706,1,-2,0,-1,0,-3,-1,-3
1513487022796706,0,-1,0,-1,-1,-2,0,-1
1513487022811721,1,-2,-1,0,-2,-1,0,-1
1513487022811721,-2,-1,-1,0,-1,-2,-1,-2
1513487022812725,-2,-1,-1,1,0,-1,-2,-1
1513487022812725,0,-1,0,0,-2,-2,-3,-3
1513487022834734,-1,-1,1,-1,-2,0,0,-1
1513487022834734,0,-1,-2,-2,-1,-1,-1,0
1513487022835727,-1,-2,-2,-1,0,0,-1,-1
1513487022835727,0,-1,-1,-1,-1,0,-1,0
1513487022857769,0,0,0,-3,-2,-2,1,1
1513487022857769,-2,-3,0,-2,-2,1,-1,-1
1513487022857769,-3,-2,-3,0,-3,-3,-1,0
1513487022857769,0,-2,-1,-1,0,-2,-1,-1
1513487022871753,-1,0,0,-1,0,0,1,-1
1513487022871753,-1,1,-2,-2,-1,-2,0,-1
1513487022872751,-1,0,-2,-1,0,-2,-2,-3
1513487022872751,-2,0,-2,0,-3,-1,-2,0
1513487022894777,0,1,-2,0,-1,-1,0,-2
1513487022894777,0,-1,-1,0,-2,-1,1,0
1513487022895766,-3,-3,-2,-1,-1,-2,-1,1
1513487022895766,0,-2,-1,1,-2,-1,0,-2
1513487022917783,-1,-1,-1,-1,-1,-1,0,2
1513487022917783,-3,0,0,0,-1,-2,0,-1
1513487022917783,0,-3,-1,-2,0,0,-1,-2
1513487022917783,-2,-2,-1,-2,1,-1,0,-2
1513487022931802,-2,0,0,-1,-1,0,-1,-1
1513487022931802,0,0,-2,-2,-2,0,-1,-3
1513487022932793,1,0,-2,0,-2,-1,0,-2
1513487022932793,0,-1,-1,-1,-2,-1,0,-1
1513487022954821,-1,-2,0,-3,0,0,-1,0
1513487022954821,-3,-2,-1,-1,-1,-1,-2,0
1513487022955810,-1,-1,-1,-1,-2,-3,-2,-2
1513487022955810,-2,-1,-2,-2,-1,-1,0,-1
1513487022968820,0,0,-3,2,0,-1,-1,2
1513487022968820,-1,-2,-3,-2,-3,0,-1,-1
1513487022976823,-1,-3,-1,0,0,-2,-2,-2
1513487022976823,-3,0,-2,-1,-2,-1,-1,-2
1513487022991835,-1,0,1,-1,-2,-1,-1,-2
1513487022991835,-1,-3,0,-2,0,0,-2,0
1513487022992845,1,1,-2,-1,-1,-2,0,-1
1513487022992845,0,-1,0,-2,1,-2,-1,1
1513487023014871,-2,-1,-2,-1,-1,-1,1,-1
1513487023014871,-1,-1,0,0,-1,-1,-2,-1
1513487023015856,-4,-3,0,-1,0,0,-1,-1
1513487023015856,-3,1,0,-1,-1,-2,-1,-1
1513487023028882,1,2,1,-2,-3,-1,0,-3
1513487023028882,1,-3,-1,-2,-1,-3,-1,-1
1513487023043885,-2,-2,-2,-2,-2,-1,-2,0
1513487023043885,0,0,-1,-2,-1,0,-2,-2
1513487023051891,-3,-2,-3,-1,-1,-1,0,-1
1513487023051891,0,-3,-2,0,0,-1,0,-2
1513487023051891,-2,-2,-4,-1,-2,-1,-3,-3
1513487023051891,0,-2,-3,-1,-1,0,-1,-1
1513487023074907,-1,0,1,-1,-2,-2,0,2
1513487023074907,2,-1,0,-1,0,-1,-1,-2
1513487023075895,-1,-3,-1,-1,-2,-3,-2,-1
1513487023075895,-1,-1,-2,0,-2,-1,0,0
1513487023096923,0,-1,-3,-2,-1,0,-3,-1
1513487023096923,-2,1,-1,0,0,0,-2,-1
1513487023097911,-1,0,-1,-2,-1,-2,0,0
1513487023097911,-1,0,-1,-2,-2,1,-1,-1
1513487023111934,-2,-1,-2,-1,-1,-2,1,-2
1513487023111934,-1,1,0,-1,-1,-1,-1,-1
1513487023111934,0,0,1,0,1,2,-2,-3
1513487023111934,-2,-1,1,-2,-1,0,-1,0
1513487023134950,-1,-1,0,0,-1,-1,-1,0
1513487023134950,0,0,-2,0,-1,-1,1,0
1513487023135939,0,-1,-2,-2,-1,-3,-1,-1
1513487023135939,-1,-1,-1,-2,-2,-3,-2,0
1513487023157038,-1,0,0,0,-1,0,-2,-3
1513487023157038,-1,-2,0,0,0,-2,-2,-1
1513487023158009,-1,-1,0,-1,-2,0,0,0
1513487023158009,-1,-1,0,-2,-1,-1,0,-2
1513487023172042,-1,1,-1,-1,1,1,1,-1
1513487023172042,-4,-1,-1,-2,0,0,-2,0
1513487023172042,-1,-1,-1,-1,0,-1,-2,-2
1513487023172042,0,-1,1,0,-1,-2,1,-1
1513487023195052,-2,0,-2,-2,-2,-3,-2,-1
1513487023195052,-1,-2,-1,-1,-2,0,1,-2
1513487023196053,0,-2,-1,-1,-1,-1,-2,-1
1513487023196053,0,-1,-2,0,-2,0,-1,-1
1513487023217065,-1,2,0,0,-1,-1,0,0
1513487023217065,-1,0,1,-3,-2,-2,1,-1
1513487023218052,-1,-1,-2,-1,0,-1,-1,-1
1513487023218052,1,-2,-2,-1,0,0,0,-1
1513487023232061,0,2,0,0,-1,1,2,-1
1513487023232061,0,-2,-2,0,-3,0,-2,-3
1513487023232061,-2,-3,-1,-2,-2,0,0,-1
1513487023232061,0,0,-2,-2,1,-1,-2,-1
1513487023255078,-1,-2,0,-1,0,0,-1,2
1513487023255078,0,2,-3,-2,-2,-1,-1,1
1513487023256078,0,-1,0,-1,0,0,0,-2
1513487023256078,-1,0,-1,-1,-3,-1,-1,0
1513487023278094,0,-2,0,-1,-2,0,0,0
1513487023278094,-1,0,1,0,-2,-2,-1,-1
1513487023278094,-1,-1,-2,0,-1,-3,-2,-1
1513487023278094,-1,-3,-1,0,0,-3,-1,0
1513487023291160,0,1,0,0,0,-2,-1,-2
1513487023291160,-3,-3,-1,-1,-2,1,-3,-2
1513487023306116,-1,1,-1,-1,-2,0,-1,-1
1513487023306116,-2,0,0,-1,-3,0,1,0
1513487023315143,-1,-3,-3,-2,-2,-1,0,1
1513487023315143,-1,-2,-2,-1,-2,-2,-3,-2
1513487023316153,-1,-1,0,-2,0,-2,-2,0
1513487023316153,1,0,-1,-1,-1,-1,-2,-2
1513487023337159,1,0,-2,-2,-2,0,-3,-2
1513487023337159,0,-1,-2,-1,-2,-2,-1,-2
1513487023339166,-2,-2,-1,-3,-1,-1,-2,1
1513487023339166,-1,-1,-1,-1,-3,-1,-1,1
1513487023351170,0,-2,0,0,-1,1,0,-1
1513487023351170,-1,-1,-2,-2,0,-1,-2,-1
1513487023360217,-2,-2,-1,-1,0,0,-1,0
1513487023360217,-2,-2,0,-1,0,-1,1,-4
1513487023375203,-2,-1,-1,-1,-3,-2,-1,-1
1513487023375203,-3,0,-2,0,0,-1,-1,0
1513487023376188,0,-2,-1,-2,-1,-2,-3,-1
1513487023376188,-3,-1,-1,-1,-2,-2,-1,-2
1513487023397213,-1,-1,-1,-1,-2,-1,-3,-3
1513487023397213,-1,-2,0,-1,0,0,0,-1
1513487023399215,-2,-3,-1,-2,-2,-2,0,0
1513487023399215,-1,-2,-1,-1,0,-1,0,-1
1513487023420237,-1,-1,0,0,-2,-2,0,0
1513487023420237,-1,-1,0,0,-1,-2,-1,0
1513487023422223,-2,-1,-1,-1,-1,-1,-2,-1
1513487023422223,2,-1,-1,-2,-1,0,-1,-2
1513487023435232,-1,-1,-1,-2,0,1,-1,-1
1513487023435232,0,-1,-2,-1,-2,-1,-2,-1
1513487023436229,-1,-2,-3,0,0,-3,-2,-1
1513487023436229,-1,1,-1,0,0,-1,-1,-1
1513487023457245,1,-1,-2,-1,-2,0,0,0
1513487023457245,-2,-3,-2,-1,-1,-1,0,-1
1513487023459247,-2,-1,-2,-1,-1,-2,0,-3
1513487023459247,-1,1,-2,0,-1,-2,-2,-1
1513487023471257,-2,0,0,-1,-1,-2,0,0
1513487023471257,-2,-1,-1,-1,0,-1,-1,-1
1513487023478260,0,-2,-1,-1,-1,0,0,0
1513487023478260,-2,1,-1,-1,0,0,1,-1
1513487023495287,-1,-1,-1,-1,-1,-2,-1,1
1513487023495287,-1,-2,-1,-2,1,-1,0,-2
1513487023496271,-1,0,-1,-3,-2,0,-1,-2
1513487023496271,1,-1,-1,0,-1,0,-2,1
1513487023517287,-5,-1,-1,-1,0,-1,-1,-2
1513487023517287,1,-1,-1,0,-1,-1,-1,-1
1513487023519306,-1,-2,-1,-2,1,-1,-1,-1
1513487023519306,0,-2,-1,-3,-2,-2,-1,1
1513487023531297,0,-1,-3,-1,1,-2,-1,-1
1513487023531297,-1,-1,-3,-1,-2,-1,-2,-2
1513487023538301,0,-1,1,-1,-2,-3,-2,-3
1513487023538301,-2,-1,-2,-1,-4,-1,-1,-2
1513487023554313,0,0,-2,-2,-2,-1,0,-3
1513487023554313,-1,1,-2,0,-3,0,-3,-1
1513487023556315,0,-2,-3,-1,-1,0,-1,-1
1513487023556315,-2,-1,-1,0,-1,-1,-1,1
1513487023577330,0,2,-1,-2,-3,-1,-1,0
1513487023577330,0,-2,-1,-1,-1,0,-1,-2
1513487023579331,-2,-2,-1,-1,-2,-2,-1,1
1513487023579331,0,0,-1,-1,-1,-1,-1,1
1513487023591356,0,-1,0,-1,0,-3,1,-3
1513487023591356,-2,-2,0,-1,-1,-1,-3,-1
1513487023600363,-2,0,-2,1,-2,0,-1,-1
1513487023600363,-1,-3,-2,0,-1,0,-1,0
1513487023615357,-2,-1,0,1,-2,-3,-1,0
1513487023615357,-1,-1,0,-1,0,-3,-2,-1
1513487023616357,-1,0,0,-1,-1,-2,-1,-4
1513487023616357,-3,0,0,0,-1,0,1,-2
1513487023637372,0,-2,-2,-2,-2,0,-2,-1
1513487023637372,-1,-2,-1,0,-2,-1,-2,-1
1513487023639374,-2,-1,-1,-2,-1,0,-1,1
1513487023639374,-2,0,0,-1,0,-1,1,-1
1513487023659443,-2,0,1,0,-2,1,-1,-2
1513487023659443,-2,0,-2,-1,0,1,-1,-2
1513487023661388,1,-2,-3,-1,-2,-1,-1,-1
1513487023661388,1,0,0,-1,-1,0,0,0
1513487023674400,-1,1,-1,-2,-2,-1,0,0
1513487023674400,0,0,-1,-2,0,0,-3,-2
1513487023676400,-1,-1,-1,1,-2,0,0,-2
1513487023676400,-1,1,-2,0,-1,-1,1,-1
1513487023697425,-1,-2,-1,-1,0,-1,0,1
1513487023697425,1,-2,-1,-2,-1,-2,-1,0
1513487023698427,-2,-2,0,0,-1,0,-1,-1
1513487023698427,-2,-2,-1,-2,-1,-2,0,-2
1513487023711423,-2,1,0,0,-1,-1,-3,-3
1513487023711423,-3,-2,-1,-1,0,-2,-3,-1
1513487023720443,1,-2,-1,-1,-2,-2,-2,1
1513487023720443,-1,-1,-3,-1,-2,0,0,-1
1513487023734442,-1,-2,-2,1,-1,-2,-1,1
1513487023734442,-2,-1,0,-1,-1,-3,0,-1
1513487023737442,-1,-2,-1,-1,-2,-1,-1,-2
1513487023737442,0,0,-1,-2,-1,0,-2,-1
1513487023757514,0,-1,-2,-3,0,-1,0,-1
1513487023757514,-2,-4,1,2,-2,1,0,-2
1513487023758482,-3,-2,-2,-1,0,-4,-1,-2
1513487023758482,-1,-2,-2,-2,-2,-2,0,-1
1513487023771482,-2,0,-2,-1,0,0,-2,-1
1513487023771482,1,-1,-2,0,0,-1,0,-2
1513487023780485,-2,-2,-1,0,1,-1,-3,0
1513487023780485,0,0,1,0,-1,-1,-2,-1
1513487023794482,-1,0,0,0,-2,-1,0,-2
1513487023794482,0,-1,-3,-2,0,-2,1,0
1513487023796484,1,-1,0,-3,0,-1,-1,-1
1513487023796484,1,-1,0,-2,-1,-2,-2,1
1513487023817501,-2,-3,-1,-1,-2,0,-1,-1
1513487023817501,-3,-1,-1,-1,-1,-1,-1,-2
1513487023818517,-3,-1,-2,-1,0,0,-1,-2
1513487023818517,-2,1,-2,0,1,-1,0,0
1513487023830509,1,0,0,-2,0,0,1,-2
1513487023830509,-1,-3,-1,-2,-2,-1,-2,0
1513487023847521,-1,1,-2,-2,-3,-2,-2,-2
1513487023847521,1,-1,0,0,-1,0,-1,-1
1513487023854525,0,-1,-2,-1,-1,-2,0,0
1513487023854525,-1,0,-2,0,0,-2,-2,-2
1513487023856539,-2,-3,0,-1,-1,-2,-2,-1
1513487023856539,-3,-2,0,-3,-2,-1,0,0
1513487023877542,-2,0,0,-2,-3,-1,-1,-1
1513487023877542,-1,-3,-1,-2,-2,0,-2,0
1513487023878544,-2,-2,-3,0,-1,0,1,-1
1513487023878544,-2,0,-1,-1,-2,-1,0,-2
1513487023890563,-2,-3,0,-2,-2,0,-1,1
1513487023890563,0,-2,-2,-2,-2,-1,-3,0
1513487023899557,-1,-2,-2,-2,-3,-1,-1,-2
1513487023899557,0,1,-2,0,0,1,-1,-2
1513487023922591,-1,1,-1,0,-1,-2,1,-3
1513487023922591,-1,0,-2,-3,0,-3,-1,-2
1513487023923591,0,-1,-1,-1,-1,-3,0,-1
1513487023923591,-2,-2,-1,-2,-1,2,0,0
1513487023937584,0,-1,1,-1,-1,-2,-1,0
1513487023937584,-2,-3,0,0,-1,-2,0,-2
1513487023938585,0,0,-2,-1,-2,-2,-4,0
1513487023938585,0,-1,-2,1,-2,-2,-2,1
1513487023950594,-2,1,-2,0,-1,-1,-1,0
1513487023950594,-1,0,-2,-1,-2,0,-1,-2
1513487023960600,-1,-2,-1,-1,-1,1,-2,-3
1513487023960600,0,2,-1,-1,-2,-2,-1,0
1513487023974611,-2,0,-4,-2,-1,-1,0,0
1513487023974611,-3,-3,-1,0,1,-2,-3,-2
1513487023976612,1,-2,-1,-1,0,-2,-1,0
1513487023976612,1,-2,-1,-1,-2,-1,-2,0
1513487023997640,-2,-1,-2,-1,-2,0,0,0
1513487023997640,-1,-1,-2,-1,-1,-3,-2,0
1513487023998644,-3,-1,-1,-1,-1,-2,-1,-2
1513487023998644,0,-2,-1,0,-2,0,1,-3
1513487024019647,0,-2,-1,-2,0,-1,-1,1
1513487024019647,-1,-2,0,-2,-1,0,-1,-1
1513487024021644,-2,-2,-1,0,-1,0,-1,-1
1513487024021644,-1,2,-1,-1,-1,-2,1,0
1513487024034653,-2,0,0,0,0,-1,1,-2
1513487024034653,-1,-1,0,-2,-2,-1,-2,-1
1513487024036658,-2,-1,1,-2,-1,0,-2,1
1513487024036658,0,-1,-3,-2,-1,1,1,0
1513487024057668,1,0,-2,-1,0,-1,-2,-2
1513487024057668,-1,2,-1,-2,-1,-2,-2,0
1513487024058669,-1,-2,-1,-1,0,0,1,-1
1513487024058669,-1,0,-1,-1,0,-1,0,0
1513487024079686,-1,-1,-1,-2,-2,-2,-2,-1
1513487024079686,-1,-2,-1,-1,-3,-2,2,-2
1513487024081686,-1,-2,-2,-2,-1,-2,-2,0
1513487024081686,-1,0,0,0,-1,-1,-2,-1
1513487024102700,0,0,0,0,-2,-2,0,-2
1513487024102700,-2,-2,0,0,0,-2,-3,-1
1513487024103701,-1,-2,-1,0,-2,0,-2,-3
1513487024103701,-3,-1,-1,-2,0,-1,-1,0
1513487024117712,-1,-2,0,-2,-1,-2,-1,-2
1513487024117712,-1,-3,-1,0,0,-2,0,-2
1513487024118716,-1,-1,-2,0,-1,-2,0,-1
1513487024118716,1,0,0,-2,-1,-1,0,-1
1513487024139741,-2,-1,-1,-3,-1,1,-2,-1
1513487024139741,-2,0,-2,-3,0,0,0,-3
1513487024141740,-1,0,-2,-2,-2,-1,-2,0
1513487024141740,0,-2,-1,-1,-2,-1,0,-2
1513487024153745,-2,-1,-1,0,-1,-3,-2,-1
1513487024153745,-1,-2,-2,-1,-1,-2,-2,-2
1513487024160764,0,-2,-2,-1,-1,-2,-1,-1
1513487024160764,1,0,1,-1,-3,-2,1,0
1513487024177757,1,-2,-1,-1,1,0,-1,0
1513487024177757,0,-2,-1,-1,-1,-1,-1,-1
1513487024178756,-3,-1,0,-2,-1,-2,-2,-3
1513487024178756,-3,-1,-2,0,-1,-1,-1,0
1513487024199772,1,0,-1,0,-3,-1,0,0
1513487024199772,-1,-2,0,-1,-1,-1,0,-2
1513487024201774,-2,-2,-1,0,-2,-1,-1,0
1513487024201774,1,-1,-2,-2,-1,-1,-1,-2
1513487024213783,-3,-1,-2,-1,-1,-1,-2,-1
1513487024213783,-3,-2,-2,-2,-1,-1,-1,0
1513487024220787,-1,-2,-1,0,0,-2,0,0
1513487024220787,-1,0,-1,-2,-1,-2,0,-2
1513487024236796,-2,0,-2,0,0,-2,0,1
1513487024236796,-2,-1,-2,0,-1,-2,-2,-2
1513487024244800,1,-1,-1,0,-2,-1,0,-2
1513487024244800,-1,2,1,-2,-2,1,-1,-1
1513487024259828,-1,0,0,-1,-4,1,-1,-2
1513487024259828,-4,-1,0,-1,-3,-2,-1,-1
1513487024261815,-2,-2,-2,-1,-2,-2,-3,1
1513487024261815,-1,1,-1,-1,0,0,-1,0
1513487024273836,1,-1,0,-2,-1,-1,1,-1
1513487024273836,-2,-1,-2,-1,-1,-1,-2,-2
1513487024280828,-1,-3,0,0,-1,-2,0,-1
1513487024280828,0,0,-1,0,0,-2,-2,-1
1513487024296837,-2,0,-1,0,0,-1,-3,0
1513487024296837,-1,-1,-1,-2,1,-1,-2,-1
1513487024298840,-2,-1,-1,-2,-1,-1,-1,-2
1513487024298840,-1,0,-1,-1,-1,0,1,-1
1513487024319858,-2,-2,-1,-2,-2,-3,3,0
1513487024319858,-1,-2,-2,-1,-2,-1,-2,-2
1513487024321855,0,-1,-2,-2,-2,0,-1,-2
1513487024321855,-2,-2,1,-2,-1,-1,0,-2
1513487024333863,0,-1,-1,0,-1,0,-2,-1
1513487024333863,0,-2,-1,-1,-1,-2,-1,-1
1513487024340894,2,-2,0,-1,-1,-2,0,0
1513487024340894,-2,-1,-1,0,-2,-1,0,1
1513487024356935,-2,-1,-2,-1,-1,0,0,-3
1513487024356935,-1,-3,-2,0,-1,-2,-2,-1
1513487024358895,-1,0,-2,-1,-1,1,-2,-2
1513487024358895,-1,-1,0,0,-1,1,0,-1
1513487024379897,2,-1,-1,-1,-1,-1,-3,0
1513487024379897,-1,-1,0,0,0,-1,-2,0
1513487024380898,-3,1,-1,-2,-1,-3,0,-4
1513487024380898,-2,-1,-2,0,-1,-1,-1,-1
1513487024393931,-2,-1,-1,0,-1,0,0,-1
1513487024393931,0,-2,-1,-2,0,-1,-1,-1
1513487024400912,-1,0,-2,0,-1,-2,0,0
1513487024400912,0,1,0,0,-2,-3,-1,0
1513487024416923,-2,-2,-1,0,-2,0,-1,-1
1513487024416923,-1,-1,-1,-1,-2,0,-2,-1
1513487024418924,-2,-3,-2,-1,-2,-2,1,0
1513487024418924,1,1,-1,-1,-1,-1,0,0
1513487024439963,1,0,0,-1,0,0,1,-2
1513487024439963,0,-3,-2,0,0,-3,-1,-3
1513487024440961,0,-2,0,-2,1,0,-2,-1
1513487024440961,0,-1,0,-1,-1,0,-3,0
1513487024453950,-1,-1,1,-1,1,-2,0,-2
1513487024453950,-1,-1,-2,0,0,-1,-2,1
1513487024461100,-1,1,-2,-1,0,-3,0,-1
1513487024461100,-1,-1,-2,0,-2,0,0,-1
1513487024477053,1,0,-3,0,-2,-3,-2,-1
1513487024477053,-2,-1,-1,-2,-1,0,-2,0
1513487024479055,-1,-2,0,0,0,-1,-1,-1
1513487024479055,-1,0,2,-1,-1,-1,1,-1
1513487024500071,-1,0,-1,-1,-2,0,-1,-1
1513487024500071,-1,-2,-1,-2,-1,-1,2,-3
1513487024501072,0,-2,-1,-1,-1,0,-1,-1
1513487024501072,0,-2,1,-3,-1,0,0,-1
1513487024513101,-1,-2,0,0,-3,-2,-1,-1
1513487024513101,-1,-2,-3,-2,0,-2,-3,-1
1513487024522086,0,-2,0,0,0,0,1,0
1513487024522086,-1,0,-1,-1,0,0,-1,-1
1513487024537096,-1,-2,-1,-2,1,-2,-1,-1
1513487024537096,-2,0,0,0,0,-1,-1,-1
1513487024539121,0,-1,0,-2,-1,-2,-1,-1
1513487024539121,1,-1,-3,-1,-1,-1,-2,-1
1513487024567126,-1,1,-2,-1,-1,-2,-1,-1
1513487024567126,-1,-2,0,-1,-3,-1,-3,-4
1513487024569118,-1,-2,-1,-1,-1,-3,-1,0
1513487024569118,-2,-1,0,0,-1,-1,-1,-1
1513487024573130,-2,0,0,-2,0,-1,-1,-1
1513487024573130,0,-2,-2,-2,-1,-2,-2,0
1513487024582137,2,-1,-3,0,-2,-2,-2,0
1513487024582137,0,-2,-1,-2,-1,-2,-1,-1
1513487024597138,-1,-1,0,1,-2,0,-2,-1
1513487024597138,-1,-1,-2,-1,-2,1,0,1
1513487024599139,-3,-1,1,-2,-1,-2,-2,-1
1513487024599139,-1,0,0,-2,0,-1,-1,0
1513487024620154,-2,-2,-2,-2,-1,-2,-2,-2
1513487024620154,-1,0,-2,-1,-1,0,-1,-2
1513487024621156,0,-1,-1,0,-1,-1,-1,-1
1513487024621156,0,1,-4,-1,-3,-1,-2,0
1513487024642173,1,-1,-2,-1,-1,0,0,0
1513487024642173,0,-3,-1,-2,0,0,0,0
1513487024644172,-1,-1,-2,-2,0,0,-2,1
1513487024644172,-1,0,-2,-1,1,-2,1,0
1513487024657235,0,0,-2,0,1,-1,-2,0
1513487024657235,-3,-3,-1,-2,-1,-2,0,-1
1513487024659183,-2,-1,0,-2,0,-1,-3,-1
1513487024659183,-4,0,-2,0,-3,0,1,-1
1513487024680214,0,-1,-2,0,-2,2,0,-1
1513487024680214,0,0,-1,0,-2,-2,-1,-1
1513487024681197,-1,1,-1,0,-2,-1,1,1
1513487024681197,0,-1,0,0,0,0,0,-1
1513487024693229,-2,0,-1,-2,-2,0,-1,0
1513487024693229,-2,-2,-2,-2,-1,-2,-1,0
1513487024702213,-1,-1,1,0,0,0,-1,-1
1513487024702213,0,-1,1,0,-1,0,1,-1
1513487024717223,-2,-1,-1,0,-2,0,-2,0
1513487024717223,-1,-2,-3,-2,0,0,-1,-2
1513487024719235,-2,-1,-3,-2,-1,-2,0,-2
1513487024719235,-1,-1,-2,-1,-2,0,-2,-1
1513487024740249,-1,-1,0,-1,0,-2,1,-1
1513487024740249,0,-1,-1,-1,-2,-2,1,-2
1513487024741240,-1,-2,-3,2,-1,-1,0,-1
1513487024741240,0,0,0,-2,-1,0,0,-1
1513487024753257,-3,-2,-2,-1,-1,-2,0,0
1513487024753257,-1,-1,-3,0,-1,-1,-2,-1
1513487024762254,0,-1,-2,-2,-2,-1,-2,1
1513487024762254,-3,1,-1,-1,-2,-2,0,0
1513487024777278,-1,-1,1,-2,-1,-1,-1,-1
1513487024777278,-2,-1,-1,-1,-1,-1,-1,-1
1513487024779280,0,1,0,-2,-1,-1,0,-2
1513487024779280,-1,-1,-1,-1,0,-1,-1,0
1513487024800292,-1,-1,0,-2,0,-1,-1,1
1513487024800292,-1,-1,-1,1,0,-1,-2,0
1513487024802283,1,-2,-3,0,-1,0,-1,0
1513487024802283,0,-1,-2,-1,-2,-2,0,-3
1513487024813291,0,-1,1,-3,-1,-2,-1,-3
1513487024813291,-2,-2,-2,-1,0,-2,-3,-1
1513487024822298,-2,-1,-2,-1,-1,-1,-1,1
1513487024822298,0,-1,-1,0,1,-1,-2,-2
1513487024837347,-1,-2,-1,0,-2,-2,-2,0
1513487024837347,-1,-3,1,-2,-1,-4,-1,0
1513487024839335,-2,-1,-1,-1,-1,-3,-2,-1
1513487024839335,1,-1,0,-2,-2,-3,0,-1
1513487024860341,-1,-1,-4,-1,-1,-1,-1,0
1513487024860341,-2,0,0,-2,-1,-2,-1,0
1513487024862339,-1,-1,-2,1,-2,0,-1,0
1513487024862339,-1,0,1,-3,-2,-1,-1,-1
1513487024873350,0,0,-2,0,1,1,-2,-3
1513487024873350,-1,-2,-2,0,-2,-1,-2,0
1513487024882339,0,-1,-1,-2,-1,-2,0,-3
1513487024882339,-1,0,-1,-2,0,-1,0,2
1513487024896362,-1,-1,-2,-2,-3,-2,-1,1
1513487024896362,-1,-2,-2,-1,-1,0,-1,-2
1513487024911370,0,0,-2,-1,-1,-1,-1,-2
1513487024911370,-1,-2,-2,-1,-1,-1,-1,0
1513487024919376,0,-1,1,-1,0,-1,0,-2
1513487024919376,0,0,-1,-1,-1,-1,1,-2
1513487024921367,0,-1,-2,-2,-4,0,-1,-2
1513487024921367,0,1,-1,0,-2,0,0,-2
1513487024942404,-3,-1,0,-3,-2,-3,-2,0
1513487024942404,0,-2,-2,-1,0,-2,-3,-1
1513487024944393,-1,0,-2,-1,-2,0,-1,-1
1513487024944393,0,0,0,-1,-2,0,-1,0
1513487024957420,-1,1,0,-1,-1,0,-1,-2
1513487024957420,-2,-2,-1,-1,0,-1,0,0
1513487024958420,-1,1,0,-2,1,-1,3,-1
1513487024958420,-2,-2,-2,0,-2,-3,0,0
1513487024979423,0,-1,-3,-2,-1,0,1,-1
1513487024979423,0,-2,-3,0,0,-2,-2,-2
1513487024981409,-1,-2,0,0,-1,-1,-2,0
1513487024981409,-2,0,0,0,-2,-1,1,-1
1513487025002425,-3,-2,0,-1,-1,1,0,-1
1513487025002425,-1,-1,1,-1,0,-2,-2,-2
1513487025003426,-3,0,-1,-2,0,0,-2,-2
1513487025003426,1,0,-1,-1,-1,-1,-1,-1
1513487025017448,-2,-2,-1,0,-2,-1,-2,0
1513487025017448,-1,-1,-1,0,-1,-2,1,0
1513487025018436,-3,-3,-1,0,-2,0,0,-2
1513487025018436,-1,-1,-1,0,0,1,-1,0
1513487025039454,-1,-3,0,-1,-1,-1,-3,0
1513487025039454,-1,1,-1,-1,-3,-1,-2,0
1513487025041453,2,-1,-2,-1,-1,-1,0,0
1513487025041453,-3,0,-1,-2,-2,0,-1,-2
1513487025062482,-1,0,-1,0,-2,0,-1,-3
1513487025062482,1,-3,0,-1,-1,0,-2,-1
1513487025063467,-1,-2,-1,-1,-2,0,-1,-1
1513487025063467,0,-1,0,-1,-1,1,0,0
1513487025077487,0,-3,-2,0,-1,-1,-1,0
1513487025077487,-1,-1,-2,-3,-1,-2,-2,-1
1513487025079481,-3,1,-1,-2,-1,-3,0,1
1513487025079481,-1,0,0,-1,-2,-1,-1,0
1513487025099502,-2,0,-1,-1,-1,-1,0,0
1513487025099502,-1,-1,-2,-2,-1,0,-2,0
1513487025101496,0,-2,-1,-2,0,-1,0,-2
1513487025101496,1,-1,-2,-1,-1,0,0,-2
1513487025129527,-2,0,0,-1,-1,-1,-1,-2
1513487025129527,-2,-1,-2,-1,-1,-2,-2,-2
1513487025132526,0,-2,0,-2,-2,-2,-1,0
1513487025132526,0,0,-1,-1,-1,0,-2,-1
1513487025136530,-1,-1,-3,0,0,0,-1,-3
1513487025136530,-1,-1,-1,-1,0,-1,-2,0
1513487025143527,-2,0,-1,-1,-2,-2,-1,1
1513487025143527,-1,-2,-1,-1,0,-2,-1,-1
1513487025159560,-1,0,0,0,-1,0,-2,0
1513487025159560,-3,-2,-2,0,0,-1,0,0
1513487025161549,-1,-1,-1,0,0,-1,0,0
1513487025161549,-2,1,-1,-1,1,-1,-1,-1
1513487025182572,-1,-1,0,-2,-1,-2,-3,-3
1513487025182572,-1,-2,-2,-1,-1,-3,0,-2
1513487025183557,0,-2,-2,-1,-2,-1,0,-2
1513487025183557,-2,-1,0,1,-2,0,-2,-1
1513487025196583,-2,-1,-1,-2,-1,-2,-2,0
1513487025196583,-1,-2,-1,1,-2,-1,-3,-1
1513487025203587,0,-2,-1,-1,-1,-2,-1,-1
1513487025203587,-1,-1,-1,-3,-1,-2,1,-2
1513487025219598,-1,1,-1,-2,0,-2,0,0
1513487025219598,0,0,-1,-1,-2,-2,-1,-3
1513487025221586,-1,2,-1,-1,-1,0,-1,0
1513487025221586,-2,0,-1,0,-2,-1,0,-1
1513487025242618,0,-1,-1,1,0,0,-3,0
1513487025242618,-2,-2,-1,-2,0,-1,-1,-2
1513487025243613,1,0,-1,0,-1,0,-3,0
1513487025243613,0,1,-3,-1,-2,-2,0,-1
1513487025256618,-1,-1,-3,-1,-2,-3,1,-2
1513487025256618,-2,-1,-2,-1,0,0,-2,-1
1513487025263623,0,-1,-2,0,-2,-1,-1,-1
1513487025263623,-2,-2,0,-2,-1,-2,2,0
1513487025279637,-1,-3,-1,-3,-2,0,0,-1
1513487025279637,0,0,-1,0,-1,-2,-2,-2
1513487025281636,-2,1,1,-1,-1,-1,0,0
1513487025281636,-1,1,-1,-2,0,-1,-3,0
1513487025302637,-1,-1,-2,1,0,-2,-1,0
1513487025302637,-3,-1,0,-1,-1,0,0,1
1513487025303639,-1,0,0,-1,-1,-1,0,-1
1513487025303639,0,-2,0,1,-3,-1,-2,0
1513487025324673,-3,-2,-3,-1,-1,-1,0,-1
1513487025324673,0,-2,-2,-1,0,1,-1,-1
1513487025326663,-2,0,-1,-1,-2,-1,-1,1
1513487025326663,0,1,1,0,-1,1,2,-2
1513487025339673,-2,-2,-3,-2,-2,-1,-5,-1
1513487025339673,-1,-1,0,-2,0,-2,-2,-1
1513487025341685,0,-2,-1,-1,-1,-2,0,-1
1513487025341685,0,-1,-1,0,0,0,-2,-1
1513487025362691,0,-2,0,1,-2,1,1,-2
1513487025362691,-2,-1,-2,-1,-1,0,0,0
1513487025364690,-1,-3,-2,-2,-1,0,-1,-1
1513487025364690,-3,-2,-2,0,-2,-1,-2,-2
1513487025376699,-1,1,-1,-1,-1,-2,-2,-1
1513487025376699,-3,-1,-1,-2,-2,-2,-3,1
1513487025383693,-1,0,-2,-1,-1,-1,0,-1
1513487025383693,-1,-1,-2,0,-1,-2,-1,-2
1513487025399720,-2,-2,0,-1,-1,1,0,-1
1513487025399720,-1,-1,-1,-1,-2,0,2,0
1513487025401709,-1,0,-2,0,0,-1,-1,0
1513487025401709,-1,-3,-3,-2,-2,-1,-3,-2
1513487025421743,-3,-2,-1,0,0,-2,-1,-3
1513487025421743,-2,-1,-2,-1,-2,-2,-2,0
1513487025437742,0,0,-1,0,-3,0,1,0
1513487025437742,-2,1,0,-3,-1,2,0,0
1513487025437742,-1,-1,-1,-2,1,-2,-2,0
1513487025437742,-1,0,-1,-1,-1,-3,-1,-1
1513487025443752,-1,0,0,-2,-1,-1,0,0
1513487025443752,-1,-2,0,0,1,0,-1,-1
1513487025459768,-1,-1,0,-2,-1,-1,-1,0
1513487025459768,0,0,0,-1,-3,0,-3,-1
1513487025461749,-1,-3,-2,-1,-2,-1,-1,-3
1513487025461749,-1,-1,0,1,0,-2,-1,1
1513487025482784,-2,-1,-2,-2,-1,-2,-3,-1
1513487025482784,0,-2,-2,-1,0,-1,1,-1
1513487025484785,-2,0,0,-1,-2,-1,-2,-1
1513487025484785,-1,0,0,-3,0,-1,-1,-2
1513487025512800,-1,-3,-1,-2,0,0,-1,-2
1513487025512800,-1,-1,-1,-2,-2,-2,-1,-2
1513487025513787,0,1,-1,-2,-1,-2,-1,-2
1513487025513787,-3,-1,-1,-1,-1,0,-1,-1
1513487025519805,-2,-2,-2,-1,0,-2,-2,-2
1513487025519805,-1,-4,0,0,0,-1,-2,-1
1513487025521809,0,0,0,-3,-1,0,2,1
1513487025521809,-1,0,1,-1,-1,-1,1,0
1513487025542828,-1,0,-3,0,-2,-1,-1,0
1513487025542828,-1,-1,-2,-1,-1,0,-2,-2
1513487025544829,-2,0,0,1,-1,-1,-2,-1
1513487025544829,0,0,-1,-2,-2,-1,-3,-2
1513487025555825,-2,-2,-1,-1,-1,-1,1,-1
1513487025555825,0,-1,-2,-1,0,-1,-1,0
1513487025564822,0,0,-1,-1,0,-1,0,-1
1513487025564822,-2,2,-1,-1,-2,1,-1,1
1513487025579847,0,-2,-1,-1,0,-3,-3,-4
1513487025579847,1,-1,-2,-1,-2,1,1,-2
1513487025581847,-1,-1,-2,-1,1,-1,1,-2
1513487025581847,1,0,2,-2,-1,-1,0,-3
1513487025602853,-1,-1,-2,2,-2,-1,-1,0
1513487025602853,-1,-1,-1,-2,-1,-2,-2,1
1513487025603849,-3,-1,-2,0,-2,-2,-1,-4
1513487025603849,-2,-2,-2,-1,-1,-1,0,0
1513487025615868,0,-1,0,-2,0,-2,-4,-1
1513487025615868,-2,-2,-1,-2,-1,-1,0,0
1513487025633884,-1,-1,-1,1,-1,1,-2,0
1513487025633884,-2,0,0,0,0,-2,0,-2
1513487025639901,-4,-1,-1,-2,0,-1,-2,-1
1513487025639901,-2,0,0,0,-2,-3,-2,-3
1513487025641878,-1,-1,-1,-1,-1,-1,-1,0
1513487025641878,-1,0,-1,0,-3,0,1,-1
1513487025662906,-1,-4,-2,-1,-1,-1,-1,0
1513487025662906,-3,0,-1,-1,1,-1,0,-2
1513487025663896,0,-1,-2,-2,-2,-1,1,1
1513487025663896,0,-4,-3,-2,1,0,-2,-2
1513487025675915,-1,-2,-2,0,-1,0,1,-2
1513487025675915,0,-2,-3,-1,-1,-1,-1,-2
1513487025690915,0,0,0,-2,-3,-2,0,0
1513487025690915,-2,1,-2,-1,-1,-2,-1,1
1513487025706936,0,-1,-2,-2,0,-1,0,-3
1513487025706936,-1,0,0,0,-1,-1,-1,-1
1513487025708938,0,-2,1,-1,-2,-1,0,-1
1513487025708938,-1,-3,-1,-1,-1,-2,-1,0
1513487025721948,0,-1,0,-1,-4,-2,-3,1
1513487025721948,-3,-2,0,0,-1,-1,0,-1
1513487025723934,-1,2,0,-1,0,0,-2,-1
1513487025723934,0,-2,0,0,-3,0,-2,-1
1513487025735943,0,-1,-2,-1,0,-2,-3,-2
1513487025735943,-2,-1,-2,-2,-1,0,0,1
1513487025744949,-1,-2,-2,-1,-2,1,1,-2
1513487025744949,-1,-1,0,-1,-2,-2,0,-1
1513487025760000,-1,-3,-1,-1,-1,-3,0,-3
1513487025760000,0,-1,-1,-1,-1,-1,-2,-1
1513487025760975,-1,-1,-1,-1,0,0,1,2
1513487025760975,-3,0,0,0,0,-1,0,-2
1513487025781975,-1,-2,-2,-1,-1,-2,-1,-3
1513487025781975,-1,-1,0,-2,-2,-2,-2,-1
1513487025783977,1,0,0,-1,-1,-1,-2,0
1513487025783977,-1,1,0,-1,-2,-2,-1,0
1513487025805005,-1,-1,0,0,-2,-1,-1,0
1513487025805005,-1,-4,-2,-1,0,-2,-1,-2
1513487025805996,-2,0,-2,-1,-2,-2,-1,2
1513487025805996,-1,0,0,-1,-1,0,-1,0
1513487025820022,-1,-1,-1,-1,0,0,-3,-1
1513487025820022,-2,-2,-1,-1,-2,-1,-1,-3
1513487025821003,0,-1,0,-1,-1,-1,0,1
1513487025821003,1,-2,-1,-1,-3,0,0,-1
1513487025842058,-4,0,1,1,-1,0,-2,-2
1513487025842058,1,0,-1,-1,-1,-1,-2,-1
1513487025844021,-1,-1,0,-1,0,-2,-2,-1
1513487025844021,-2,-1,-3,0,1,-2,0,0
1513487025856028,-2,0,-2,-2,0,-2,-1,0
1513487025856028,-1,-1,0,-4,-1,-3,0,-1
1513487025865034,1,1,-3,-1,-3,1,-1,-1
1513487025865034,-2,-2,-2,-3,-2,0,-1,-2
1513487025880050,-2,-4,-3,-2,-1,-2,1,1
1513487025880050,-2,-1,-2,1,-1,-1,-1,-2
1513487025881058,-1,-2,-1,-1,-2,-1,1,-1
1513487025881058,1,0,-1,-2,-1,1,0,0
1513487025910081,-2,-2,-1,-1,0,-2,-3,1
1513487025910081,-1,0,-2,-3,-1,-2,-1,0
1513487025911066,0,0,0,-2,-1,-1,1,-2
1513487025911066,0,-1,-1,-1,-2,-3,1,0
1513487025925117,-2,-3,-1,-1,-1,-1,0,-3
1513487025925117,0,-4,-2,0,-2,-1,0,0
1513487025926089,-1,1,-1,-2,-1,0,-1,-1
1513487025926089,-1,0,0,-1,-1,-2,-1,0
1513487025940098,0,-1,-2,-1,-3,-1,-3,-1
1513487025940098,0,-1,-2,-2,-1,-1,-1,0
1513487025941108,0,1,0,0,-2,-2,0,-1
1513487025941108,0,2,-2,-2,-3,1,0,0
1513487025962103,1,-2,-1,0,-1,0,-2,0
1513487025962103,-1,1,-2,-2,0,0,-1,-1
1513487025964104,-1,0,-1,-2,-1,-2,-1,-1
1513487025964104,0,-1,-1,0,0,-3,0,-3
1513487025985119,0,0,0,-2,-2,-1,-2,0
1513487025985119,-2,-1,-1,0,-1,-2,-1,-1
1513487025987120,-2,1,-2,-1,0,-2,-2,0
1513487025987120,-2,-2,-1,0,0,-2,-1,0
1513487026000142,-3,-3,-2,0,1,0,0,-3
1513487026000142,0,-1,0,-1,0,-1,-1,-3
1513487026001137,1,-1,-2,-1,-1,0,1,-1
1513487026001137,-2,-1,-2,-1,-2,-1,-1,-1
1513487026022145,1,-1,-3,-2,-1,-1,-1,1
1513487026022145,-1,-2,1,-1,-1,-1,-1,0
1513487026024147,-2,-1,0,0,0,0,0,-2
1513487026024147,-1,1,-3,-2,-1,-1,-1,-2
1513487026045162,-3,-3,-1,0,-1,-2,0,-1
1513487026045162,-1,-1,-2,0,-1,0,-1,0
1513487026046165,-1,0,-2,-2,-2,-1,-1,-1
1513487026046165,1,-3,-2,-1,-2,-1,-1,0
1513487026059192,-2,-2,-2,-2,-2,0,1,-1
1513487026059192,-2,0,-1,-2,-2,-1,-2,-2
1513487026066190,-2,-1,-1,-1,-2,-1,1,-2
1513487026066190,-1,-1,0,-1,-1,-1,0,1
1513487026082198,0,-2,0,0,-1,-2,-2,-2
1513487026082198,0,-1,-1,-1,-1,-1,-1,-2
1513487026084199,-2,-1,-1,-2,-1,0,1,0
1513487026084199,-1,-1,-1,-1,-1,-1,-3,1
1513487026105203,-2,-1,0,-2,-2,-1,-1,-1
1513487026105203,-3,-2,0,0,-2,-1,-3,0
1513487026106213,-1,0,0,1,-1,0,1,-1
1513487026106213,0,0,-1,-2,0,-1,1,-2
1513487026119219,-2,-2,-1,-1,-1,-3,-2,-4
1513487026119219,-1,-2,-2,-1,-1,-1,0,-1
1513487026126219,-1,0,-3,-3,-2,0,-1,0
1513487026126219,-1,-1,-1,-1,-2,0,-1,-1
1513487026142230,-1,-2,-2,-2,-2,-1,-2,-3
1513487026142230,-3,-1,-1,-2,0,0,-1,-1
1513487026144253,0,-2,-1,-1,-1,-2,0,0
1513487026144253,0,-2,-1,-3,-2,-2,1,-1
1513487026165260,-1,-1,-2,1,-1,-1,-3,-1
1513487026165260,-1,-3,0,-1,-1,-4,1,-2
1513487026166248,-2,-1,0,-1,-2,-2,-4,-1
1513487026166248,-1,0,-1,-1,-2,-2,-3,0
1513487026187262,-1,0,-2,-2,-1,-1,-2,-1
1513487026187262,-1,-2,-1,-1,-1,0,-1,-1
1513487026189279,0,-1,1,-1,-2,0,0,1
1513487026189279,-2,0,0,0,-1,0,-2,-2
1513487026202285,-2,-1,-2,-1,-1,-3,0,-2
1513487026202285,0,-2,-1,0,-1,1,-1,1
1513487026204286,-1,0,-2,-2,-1,0,-1,0
1513487026204286,-1,-1,-2,-3,-1,1,-1,0
1513487026224327,-1,-1,-1,-2,-2,0,-1,-1
1513487026224327,-1,0,-3,-2,-2,-1,-1,0
1513487026226289,0,-1,1,0,-2,1,0,-3
1513487026226289,0,1,-1,-1,0,-1,-2,-1
1513487026239308,-1,-2,-1,-2,0,-3,-3,-3
1513487026239308,-1,1,0,-1,-2,-1,0,-1
1513487026246315,0,-1,-1,1,0,-2,-2,0
1513487026246315,-1,-1,-2,0,-2,-2,-1,-1
1513487026262331,-1,-5,0,3,-1,-1,0,0
1513487026262331,0,-1,-1,-4,-1,-1,-1,-1
1513487026264332,-1,1,-1,-4,-4,-1,-1,-1
1513487026264332,-4,-1,1,0,-3,-3,0,-1
1513487026284331,-1,-3,-6,0,0,0,-2,-1
1513487026284331,1,0,-1,0,-2,-2,0,-1
1513487026287342,-2,-1,-1,-1,-1,0,-2,-1
1513487026287342,-1,-1,-2,-5,-1,-1,0,-3
1513487026299344,0,0,-1,-1,-1,-1,0,0
1513487026299344,-2,-3,-1,2,0,0,-1,0
1513487026306357,-1,0,0,-2,-3,-3,0,0
1513487026306357,-1,1,1,5,2,0,-2,0
1513487026322360,-2,-3,-3,-6,-1,1,-1,-2
1513487026322360,0,-1,-2,-3,-1,1,1,-1
1513487026324359,1,2,1,4,0,0,0,-2
1513487026324359,-1,-1,-2,12,-7,-2,-3,-4
1513487026344429,-2,-3,2,-16,3,1,-2,-1
1513487026344429,-2,0,-8,-7,-4,-4,-1,-1
1513487026346388,2,1,-12,-5,-1,3,3,0
1513487026346388,-2,-1,-6,-9,-3,-3,0,0
1513487026359440,-2,-1,3,7,-2,-4,-1,-2
1513487026359440,-1,-1,2,-3,-2,0,-3,-1
1513487026365398,-2,2,8,9,2,1,-2,-1
1513487026365398,0,-2,-4,-2,2,1,-3,-2
1513487026382409,-1,-2,-12,0,-6,-2,-3,-1
1513487026382409,-4,-4,4,2,0,0,-1,-3
1513487026383410,1,-1,8,1,-1,-1,1,1
1513487026383410,1,-2,0,-13,-6,-3,0,-2
1513487026404428,-2,-1,-12,-1,6,2,1,-1
1513487026404428,-2,1,-2,-3,-1,-1,0,-1
1513487026406418,0,0,-13,-1,3,2,-1,0
1513487026406418,-5,-3,23,0,-2,0,0,-1
1513487026418425,-1,-4,-20,-6,-2,-3,-2,0
1513487026418425,2,-1,8,2,-2,-3,-3,-1
1513487026427431,-3,0,3,1,-1,-1,1,-2
1513487026427431,0,-1,-3,-4,3,0,0,0
1513487026442478,-2,2,17,11,-3,-4,-2,-2
1513487026442478,0,-5,-23,-12,-1,0,-1,-1
1513487026443478,1,0,-1,-8,-4,-4,-2,0
1513487026443478,-1,-3,-16,-4,3,2,1,1
1513487026464467,1,3,18,8,-3,-2,-2,-1
1513487026464467,-3,1,-5,12,4,-1,0,0
1513487026466469,2,-5,5,-11,-6,-2,1,0
1513487026466469,0,-2,-33,-5,1,1,-1,0
1513487026478527,-1,1,-6,0,-1,0,1,-1
1513487026478527,-14,-12,-32,-25,-9,-3,-2,-6
1513487026487534,3,1,30,14,4,-2,-2,-1
1513487026487534,9,-2,-33,4,0,0,1,1
1513487026509579,-3,0,2,-5,-1,-2,-3,-1
1513487026509579,0,3,6,11,2,2,-2,-1
1513487026511551,-6,-1,-1,-3,0,-1,-1,-3
1513487026511551,-4,-1,9,-2,-2,-2,-2,-4
1513487026525569,8,-1,-9,-1,2,-3,-1,2
1513487026525569,-1,2,16,1,1,1,-1,0
1513487026526560,2,0,-6,-4,-3,2,-1,1
1513487026526560,4,5,10,8,3,1,0,-1
1513487026538578,3,-4,-14,-5,-2,-1,-2,-2
1513487026538578,2,-1,44,6,-3,-2,-1,1
1513487026547584,-29,-1,-26,3,-2,-4,0,-2
1513487026547584,16,2,20,-10,0,0,-3,-1
1513487026562597,-4,2,28,0,-2,-4,-2,-3
1513487026562597,2,-6,-13,-10,-1,0,0,1
1513487026563587,-1,-4,-38,-3,-2,-1,-2,-1
1513487026563587,-2,3,24,3,0,-2,-1,0
1513487026584621,-2,-7,-16,-4,-3,-1,2,2
1513487026584621,-5,10,7,6,3,-1,-5,1
1513487026586615,18,-4,4,0,-2,0,2,0
1513487026586615,-35,-14,-7,-3,-4,0,2,-9
1513487026598623,8,2,0,-5,1,0,-4,2
1513487026598623,8,2,-10,3,-2,-5,1,0
1513487026607630,-34,-6,1,-3,3,0,-14,0
1513487026607630,21,3,2,2,-2,-2,6,2
1513487026622639,-30,-11,6,4,-1,3,5,-4
1513487026622639,23,4,-8,6,3,-1,-2,0
1513487026623629,6,13,10,-19,-6,-4,1,-3
1513487026623629,-14,-4,-2,11,0,-4,-5,0
1513487026644664,-13,-19,-35,-13,2,-2,-6,-7
1513487026644664,21,0,13,-10,-7,-2,3,5
1513487026646657,12,-3,-14,7,-2,3,7,-2
1513487026646657,-3,8,2,1,-2,-1,-6,0
1513487026658663,11,4,-14,0,1,-1,3,3
1513487026658663,-13,0,-9,0,3,1,-1,-3
1513487026667672,31,0,13,2,-1,-3,-1,0
1513487026667672,-7,1,5,-4,-2,0,-1,0
1513487026682682,-21,-8,-4,6,3,1,-4,1
1513487026682682,18,-10,-15,-9,-8,-3,10,-5
1513487026683674,-22,3,-13,-5,-4,-10,-5,0
1513487026683674,8,4,-3,2,1,1,-18,2
1513487026704689,13,-1,18,0,-3,-1,11,-4
1513487026704689,-26,7,-11,1,-2,-3,-11,-4
1513487026706702,21,-8,7,1,3,4,5,1
1513487026706702,-31,-7,11,-1,1,-4,-6,-5
1513487026718695,32,15,-13,-4,-4,-4,-16,4
1513487026718695,11,0,15,6,2,4,1,-4
1513487026727703,-43,-6,-13,-3,-1,2,5,-2
1513487026727703,-11,7,2,-6,1,1,-3,0
1513487026742733,20,-10,36,12,-1,3,6,6
1513487026742733,-57,-7,-45,-9,-3,-1,0,-8
1513487026744715,30,-1,21,3,-9,-5,-6,-4
1513487026744715,-24,-6,-12,3,2,0,8,-3
1513487026764728,-10,0,21,-6,-11,-5,-7,-4
1513487026764728,-8,17,-9,11,8,1,0,3
1513487026766729,5,-5,49,15,5,5,2,3
1513487026766729,-9,-5,-38,-12,-5,-4,-23,1
1513487026778752,27,12,-25,-19,-5,-2,-4,-6
1513487026778752,-8,-3,23,8,1,0,14,11
1513487026787753,5,3,-13,-2,0,-1,16,-9
1513487026787753,39,-3,34,8,2,5,-1,4
1513487026802755,-58,-19,-29,9,-1,0,-16,-23
1513487026802755,22,5,-7,-19,-4,-10,-14,15
1513487026803757,-4,10,-4,5,-2,4,14,4
1513487026803757,-29,-17,15,6,5,0,9,-5
1513487026824771,29,5,-21,-15,-7,-3,-3,1
1513487026824771,-73,-38,-38,-24,-8,-2,4,-16
1513487026826776,-21,10,-28,-8,-4,-3,-9,-3
1513487026826776,100,1,30,18,6,2,6,8
1513487026847787,-27,-4,12,1,-3,-2,-2,-10
1513487026847787,-14,5,39,26,6,0,-13,1
1513487026848789,18,-4,-10,-21,-7,-1,7,5
1513487026848789,-34,3,-53,2,0,-4,-6,-7
1513487026862798,35,12,27,-2,1,-1,-8,-1
1513487026862798,28,-12,20,1,-1,2,25,0
1513487026863800,-45,-13,0,-1,-3,-1,-21,-12
1513487026863800,54,16,-24,-10,-7,-3,-32,10
1513487026884833,-85,-9,11,7,8,0,-11,-23
1513487026884833,40,12,31,26,6,2,-14,8
1513487026886816,13,0,-34,-17,1,-4,-15,9
1513487026886816,-2,-23,-25,-36,-16,0,7,1
1513487026906842,-48,-4,22,-1,-3,-5,1,-12
1513487026906842,16,9,0,1,3,2,11,22
1513487026908843,57,29,21,23,6,3,-13,-7
1513487026908843,-82,-26,-10,-15,-9,-6,12,-10
1513487026921849,-15,-4,-28,-4,4,2,5,16
1513487026921849,-13,-6,12,-7,-3,-2,-1,-16
1513487026928844,-35,-19,-18,-17,-9,-3,2,-5
1513487026928844,67,9,9,39,10,0,7,5
1513487026944870,57,20,31,18,4,4,10,9
1513487026944870,-41,-10,-25,-7,2,3,-12,-3
1513487026946857,-2,9,6,-10,-5,-4,7,10
1513487026946857,7,12,17,6,4,3,5,7
1513487026966881,-10,-3,2,9,-1,0,0,8
1513487026966881,92,11,-15,-13,-2,-1,-2,-19
1513487026968877,-58,-14,14,19,2,-2,-3,-11
1513487026968877,8,-17,-1,-27,-7,-8,4,-12
1513487026989890,33,3,-18,-19,-8,-3,22,115
1513487026989890,-69,4,9,32,5,2,5,-31
1513487026990905,-4,-18,-6,4,2,-1,-22,-54
1513487026990905,58,28,0,7,-11,-4,15,24
1513487027004911,-23,-13,-26,-18,17,-3,-20,-36
1513487027004911,-5,10,27,-15,-8,-1,11,66
1513487027005911,-21,-20,4,22,-2,0,4,-11
1513487027005911,-37,1,5,-10,-3,-4,9,73
1513487027026923,125,16,-7,3,-2,-2,-7,-55
1513487027026923,-28,-33,0,-2,-1,-1,36,61
1513487027028915,-90,-7,21,5,7,7,-16,-63
1513487027028915,34,16,5,-14,-10,-7,-25,-20
1513487027041934,23,-6,18,16,2,3,22,113
1513487027041934,-55,2,-9,-15,-7,-6,-28,-128
1513487027047928,28,1,-1,-5,-4,-5,8,51
1513487027047928,-24,31,19,9,6,3,-8,-3
1513487027064953,-37,-41,11,0,-1,-1,6,-19
1513487027064953,32,8,-24,3,5,2,-7,22
1513487027065941,121,10,5,-11,-7,-5,1,41
1513487027065941,-5,-11,-5,7,6,3,12,29
1513487027086956,-14,70,21,2,-4,0,-21,-100
1513487027086956,-33,-73,-27,-11,-7,-6,-22,15
1513487027088959,-18,40,-1,-19,-3,1,6,36
1513487027088959,-10,-38,12,29,1,0,15,16
1513487027101966,-93,-24,-46,-17,5,4,-12,-21
1513487027101966,57,27,20,9,2,-4,1,-2
1513487027107993,-25,19,-12,-4,-10,-5,3,-34
1513487027107993,-24,-1,-3,-10,9,3,4,15
1513487027132995,-60,-7,21,18,0,3,12,1
1513487027132995,71,8,7,-3,-6,0,-8,-45
1513487027134008,30,-52,-33,-1,1,3,14,58
1513487027134008,62,76,31,0,-4,-2,-17,-73
1513487027147001,-63,-64,6,9,0,0,4,-2
1513487027147001,-1,21,17,-22,-4,-3,-1,63
1513487027149011,52,-7,-3,14,1,1,1,-23
1513487027149011,-81,-41,12,5,-5,-4,-9,17
1513487027162009,-5,20,-13,-9,4,2,20,7
1513487027162009,-36,-6,-2,9,1,1,-2,-84
1513487027168028,27,8,-5,-20,0,4,3,74
1513487027168028,39,15,-19,-6,1,0,-1,-63
1513487027185027,30,4,5,-7,-7,3,-9,19
1513487027185027,44,5,2,26,5,-1,6,46
1513487027186026,-37,-2,22,13,-6,-1,-2,27
1513487027186026,-42,-32,-45,-51,0,3,-3,-28
1513487027207057,34,6,8,7,-10,-7,6,47
1513487027207057,81,52,-15,7,-7,-10,-5,-7
1513487027209043,-28,0,13,-13,19,14,13,-24
1513487027209043,41,-38,-3,28,-7,-6,-5,4
1513487027222052,-6,17,36,-27,-10,-8,-6,-8
1513487027222052,74,33,5,-11,7,6,0,111
1513487027228067,-64,-15,-8,14,1,-4,3,-112
1513487027228067,33,42,-2,-9,-2,-3,-2,64
1513487027245078,-20,41,-7,7,12,7,-1,-65
1513487027245078,-21,-82,-4,-14,-15,-2,2,-13
1513487027246070,76,52,13,-2,6,5,-10,-17
1513487027246070,-89,-77,14,1,-4,1,2,-9
1513487027267093,11,8,-27,-8,-12,-12,-8,6
1513487027267093,-45,21,21,-6,1,6,-1,4
1513487027269094,13,19,6,9,7,-3,0,73
1513487027269094,-26,-26,-12,0,-11,-4,-23,-89
1513487027281095,-29,38,-13,-5,5,-5,3,66
1513487027281095,-39,-13,2,4,-8,-5,-5,-7
1513487027305120,-7,-56,-10,1,1,-5,1,48
1513487027305120,-37,47,16,11,-4,0,-9,5
1513487027306111,50,-48,-27,0,4,0,12,49
1513487027306111,-73,-2,40,-12,-4,-3,-6,0
1513487027308122,32,20,-34,-5,-12,-6,14,65
1513487027308122,-10,11,-26,-1,-1,0,3,-62
1513487027327135,-35,-53,-31,-9,-3,-1,-10,26
1513487027327135,-7,6,-18,2,-7,-11,-3,-4
1513487027329137,-79,-28,4,18,-1,-1,-8,-57
1513487027329137,61,29,24,-12,11,2,4,-15
1513487027341145,-24,-21,-13,-14,-15,-10,-31,-49
1513487027341145,64,18,-6,10,3,3,5,10
1513487027356156,-84,-13,-5,-4,-7,2,-4,59
1513487027356156,64,9,27,-4,-2,-6,-14,-41
1513487027365153,41,-4,-4,9,7,3,0,-18
1513487027365153,-12,17,47,-1,-1,-4,-23,-18
1513487027366153,-36,-24,-19,-29,-13,-10,-10,31
1513487027366153,27,-39,11,2,7,4,12,46
1513487027388181,15,56,0,4,-6,-2,-5,61
1513487027388181,-22,-6,-1,-3,2,-1,21,-78
1513487027389208,22,-5,-3,-3,-3,1,-5,-74
1513487027389208,31,47,-3,9,7,0,-7,13
1513487027401188,2,-41,21,-5,-12,-2,9,-25
1513487027401188,49,-34,-49,12,2,-5,-6,112
1513487027410207,27,42,87,8,9,4,22,-105
1513487027410207,-22,-3,-84,-17,-28,-13,-5,36
1513487027425197,32,-69,12,20,20,4,-3,45
1513487027425197,39,10,-60,-12,-7,5,-5,-99
1513487027426229,61,8,65,-31,-8,-8,-12,-33
1513487027426229,-17,-30,21,18,10,6,5,39
1513487027447223,-4,68,8,-13,-3,-3,8,33
1513487027447223,46,-37,-13,14,4,3,-8,6
1513487027449222,-1,65,-78,-31,-2,-2,-5,-46
1513487027449222,-5,-25,3,1,-3,0,3,-1
1513487027461235,28,-49,-1,0,-6,-10,-1,27
1513487027461235,-56,-7,-23,6,10,10,3,20
1513487027470236,17,68,-12,-3,2,2,4,31
1513487027470236,-63,-116,-55,-9,2,6,14,-13
1513487027485238,72,127,46,24,5,2,2,29
1513487027485238,-86,-54,-20,-35,-15,-1,20,84
1513487027486253,28,-32,5,19,-3,-19,-50,-19
1513487027486253,60,54,36,7,12,4,11,44
1513487027507253,-51,-108,-45,-16,-19,-11,-3,21
1513487027507253,25,31,0,2,0,-6,-14,-82
1513487027508254,64,-29,31,2,6,11,18,53
1513487027508254,71,36,-48,-12,3,0,0,26
1513487027521283,-79,13,29,31,-29,-10,-14,-55
1513487027521283,20,11,-23,-14,21,9,0,-30
1513487027530270,-41,-32,29,25,-2,-3,4,53
1513487027530270,21,40,36,-7,-11,-12,-23,-68
1513487027544291,86,62,21,2,8,10,16,10
1513487027544291,-59,-55,-15,10,-5,-3,-1,73
1513487027546280,13,6,-7,10,2,9,1,-108
1513487027546280,1,14,-3,-20,-6,0,0,31
1513487027574322,48,34,-20,-9,3,0,21,80
1513487027574322,1,35,12,-6,-7,-2,-12,-105
1513487027576304,-41,-92,-1,-1,-5,1,3,33
1513487027576304,-75,28,-27,13,6,-1,-14,37
1513487027581307,16,-44,1,-40,5,-3,-1,-15
1513487027581307,-66,-17,-2,-6,-7,-6,-7,-65
1513487027590318,64,58,3,13,1,5,5,-49
1513487027590318,-64,-74,17,-2,-4,-1,3,54
1513487027604376,41,-18,-7,-1,-2,2,3,47
1513487027604376,5,40,21,5,5,3,16,79
1513487027606378,8,-15,-50,-4,-7,-8,-12,27
1513487027606378,-20,8,42,7,7,1,6,-43
1513487027627390,62,9,-31,11,2,1,-13,-90
1513487027627390,19,0,4,-12,-4,2,3,34
1513487027628391,-36,-18,16,-19,-8,-6,-7,-10
1513487027628391,-7,0,-9,17,2,0,19,82
1513487027640400,43,-15,8,-3,-1,-2,-13,-86
1513487027640400,-53,4,22,-4,-4,2,1,-33
1513487027650398,-51,-35,41,0,7,-1,-6,67
1513487027650398,-98,-3,-40,-21,-9,-1,8,46
1513487027664407,-12,15,-4,-6,-1,-2,-13,36
1513487027664407,31,1,4,10,-2,-1,8,4
1513487027666410,20,39,76,7,2,5,8,17
1513487027666410,-47,-9,-53,-17,-9,-6,-16,-61
1513487027686423,-2,39,-9,13,9,8,12,76
1513487027686423,-82,-63,32,7,4,0,-6,-22
1513487027688433,-19,31,-50,-13,-11,-6,-6,59
1513487027688433,124,74,-21,20,1,-3,1,44
1513487027709456,-29,-8,34,-26,-5,1,-11,-107
1513487027709456,-1,2,22,11,-11,-6,10,95
1513487027709456,65,34,-90,0,19,8,1,10
1513487027709456,-41,-10,69,11,-1,1,-5,35
1513487027724462,-21,8,-9,1,-4,-3,-6,-3
1513487027724462,45,32,-8,3,1,0,-7,1
1513487027724462,4,-25,6,-15,-12,-11,7,53
1513487027724462,3,-41,1,-8,5,3,8,-47
1513487027746475,-85,-51,-5,3,-4,-7,-14,-67
1513487027746475,21,29,64,-11,-5,-8,-7,-12
1513487027747465,-38,-22,-76,1,-2,-6,27,86
1513487027747465,10,12,6,-4,1,0,-21,-93
1513487027769481,-28,53,63,9,-5,-4,12,81
1513487027769481,44,-12,-74,-3,5,5,-9,-27
1513487027769481,44,51,46,6,1,-3,2,-42
1513487027769481,14,-34,-29,-24,-13,-10,-7,3
1513487027784500,-51,-70,-45,7,18,7,2,22
1513487027784500,-39,-33,-16,-11,-8,-5,-7,-81
1513487027784500,53,14,12,9,8,4,-9,20
1513487027784500,58,70,11,15,9,4,-1,48
1513487027806526,-61,-1,13,-25,-14,-11,-22,-119
1513487027806526,-5,14,20,-3,-4,-5,4,57
1513487027807511,-18,-15,-40,-5,1,3,0,-37
1513487027807511,63,-19,58,23,14,4,-15,-33
1513487027829525,16,34,-29,6,-1,-2,10,54
1513487027829525,-13,11,-2,-1,1,6,9,-48
1513487027829525,7,-10,25,14,-3,-3,-11,5
1513487027829525,-48,-10,43,-8,-7,-3,25,49
1513487027843534,47,-24,20,13,-5,1,-18,-62
1513487027843534,26,3,-63,-10,17,11,-1,31
1513487027844551,14,-21,34,4,-7,-1,-12,-22
1513487027844551,-38,4,35,8,4,-4,-6,-114
1513487027866550,6,9,-40,-11,-14,-9,-2,-7
1513487027866550,19,18,12,9,1,-2,2,-52
1513487027867569,-35,-12,-17,-7,-2,-1,-6,1
1513487027867569,15,-23,-65,-4,10,6,5,51
1513487027888575,25,-8,1,5,-14,-13,-7,49
1513487027888575,-7,43,-30,-8,10,7,5,-42
1513487027889569,10,7,41,15,1,0,9,-64
1513487027889569,5,3,-44,-28,-16,-7,-16,-37
1513487027903576,37,-34,-38,2,8,4,5,35
1513487027903576,4,20,8,8,-6,-7,-2,-19
1513487027904576,27,31,-12,0,2,3,0,38
1513487027904576,-59,-62,-2,-2,-9,-5,0,1
1513487027926612,14,-5,-24,1,8,6,-1,-42
1513487027926612,36,21,44,-15,-17,-16,-2,88
1513487027927594,-13,-18,-6,5,1,4,4,-2
1513487027927594,22,5,35,-5,-2,5,1,-19
1513487027948628,-17,8,14,-25,8,6,12,77
1513487027948628,48,-1,-31,51,4,0,5,81
1513487027949617,-71,-21,16,-14,-6,-1,-5,-17
1513487027949617,-22,-46,-42,-13,-1,-4,4,63
1513487027963632,-27,11,31,5,2,6,7,-34
1513487027963632,-3,-6,43,0,-7,-1,-2,4
1513487027971637,-27,38,-19,-5,3,1,7,9
1513487027971637,-83,-51,-40,-3,-6,-4,-3,-25
1513487027986634,48,46,44,6,4,1,2,-17
1513487027986634,-67,-15,-33,-5,-2,0,0,58
1513487027987635,11,10,0,2,-12,-11,-14,-58
1513487027987635,38,52,7,-6,7,3,7,65
1513487028008662,-29,-14,7,-2,-2,-1,-2,62
1513487028008662,40,-18,-17,-10,5,3,-8,-114
1513487028009652,-17,-15,11,1,3,2,3,46
1513487028009652,-2,1,5,-7,-15,-11,-11,35
1513487028025663,-1,49,-41,-4,8,8,7,-39
1513487028025663,-3,-47,38,6,-12,-4,2,2
1513487028026673,-13,-5,-10,-12,1,2,-9,-19
1513487028026673,-23,-31,19,-30,7,-3,0,-62
1513487028046688,-42,-36,-76,11,-4,-1,6,20
1513487028046688,13,-18,-11,-19,-14,-8,-1,43
1513487028047678,69,14,24,-18,-3,-5,-4,-31
1513487028047678,29,20,-11,24,-2,-3,-19,-28
1513487028068693,41,7,43,8,2,-7,-6,3
1513487028068693,-27,30,-77,-20,0,6,7,-65
1513487028069695,19,-15,-5,5,-12,-7,-9,4
1513487028069695,-10,-39,-25,-13,0,0,-2,49
1513487028083716,-44,-16,19,2,1,-5,-3,-47
1513487028083716,92,32,61,28,-1,-7,-18,9
1513487028084705,-38,14,-65,-37,-3,4,4,24
1513487028084705,4,12,14,25,-3,-3,12,33
1513487028106736,21,-22,15,-4,-3,3,-1,9
1513487028106736,-30,-11,23,-19,5,-1,6,43
1513487028107733,-43,13,-25,8,2,1,7,24
1513487028107733,-46,-30,-42,8,2,0,-5,-39
1513487028128735,14,20,19,6,0,3,5,40
1513487028128735,-11,-19,32,-12,-10,-5,-1,-11
1513487028129736,1,-10,-7,1,-4,-3,3,14
1513487028129736,59,66,11,9,-4,-2,5,33
1513487028143747,-10,21,64,-3,0,-2,-3,-25
1513487028143747,-36,-25,-47,17,0,7,3,-5
1513487028144747,15,0,-26,-8,-2,-1,0,-27
1513487028144747,-69,-65,25,1,10,3,0,-16
1513487028166781,27,-20,-38,-9,-13,-12,-30,-34
1513487028166781,72,12,24,4,5,4,11,118
1513487028173768,-39,-46,-10,24,-5,2,3,-97
1513487028173768,27,40,44,-9,8,-3,8,23
1513487028188796,-9,31,-25,2,9,8,-2,-22
1513487028188796,-86,-56,-11,2,-2,-10,-1,72
1513487028189782,1,14,-19,-18,-7,-5,3,71
1513487028189782,29,24,28,23,-4,4,-1,-53
1513487028203800,-12,32,-49,-3,-2,-1,9,21
1513487028203800,24,55,36,-30,0,3,7,25
1513487028211806,-5,-29,26,21,9,5,2,-12
1513487028211806,-5,3,-35,-9,-7,-6,-14,-62
1513487028226817,34,37,34,-5,0,2,-1,35
1513487028226817,34,27,9,6,3,4,-3,-93
1513487028226817,45,6,47,3,-6,-6,-10,15
1513487028226817,2,-16,15,-2,-3,-1,-4,51
1513487028248833,39,7,-37,-1,-4,-1,18,-14
1513487028248833,-42,-12,-16,9,5,-3,-12,-52
1513487028249821,42,36,-24,-6,7,2,-6,12
1513487028249821,47,-14,27,1,-6,-3,16,120
1513487028263841,-30,-54,1,-1,-5,-2,-4,-15
1513487028263841,-19,22,-26,-2,0,3,4,-10
1513487028264831,10,32,82,10,-5,-9,4,3
1513487028264831,-20,-48,-106,-15,-3,0,-5,-16
1513487028286862,21,-16,-15,6,-3,-5,-3,27
1513487028286862,-26,-4,12,11,9,9,7,-6
1513487028287854,-54,1,-21,-13,-9,-11,-15,6
1513487028287854,-2,27,40,7,-2,3,-1,-38
1513487028308877,25,-20,26,-2,3,3,10,3
1513487028308877,21,13,10,2,-3,-2,-9,38
1513487028309864,-1,-64,-74,-16,-6,0,18,2
1513487028309864,3,67,25,9,8,-2,-10,-34
1513487028323874,2,-34,-11,-2,-1,1,-6,7
1513487028323874,12,56,69,1,6,1,7,55
1513487028324875,-25,-30,-19,-2,3,5,5,-82
1513487028324875,-21,2,-47,5,-2,-7,-6,13
1513487028346891,21,18,-24,-12,6,-2,1,-4
1513487028346891,-9,-15,-25,-11,-7,-6,0,15
1513487028346891,36,50,78,20,4,0,-11,42
1513487028346891,-28,-21,-49,-2,-2,7,5,19
1513487028368905,-25,6,-1,-8,-1,-4,-3,-22
1513487028368905,46,25,-28,-15,-10,-5,-5,-17
1513487028369906,-18,-12,10,9,13,3,-1,-22
1513487028369906,8,8,37,5,-2,-2,-6,34
1513487028382927,38,16,10,2,-1,-5,-6,32
1513487028382927,-10,-42,-13,-5,-2,0,-11,-84
1513487028391934,15,-10,8,-28,-1,0,-9,18
1513487028391934,-1,7,22,-4,2,2,3,-35
1513487028406960,-19,-46,14,3,-5,-1,-2,-43
1513487028406960,-18,20,-83,-4,-3,-3,1,26
1513487028407933,3,3,8,4,0,1,2,5
1513487028407933,-5,-16,-13,-3,0,-4,-2,8
1513487028428957,-2,9,7,-6,3,5,-3,-16
1513487028428957,-32,-36,7,-6,-11,-7,0,-10
1513487028429951,98,-17,-41,-21,10,8,8,33
1513487028429951,16,42,-1,3,-3,-7,-7,-22
1513487028451964,-19,13,17,3,0,1,6,34
1513487028451964,-17,-41,-23,15,8,1,-7,-44
1513487028452965,-55,31,10,1,-9,-4,-3,85
1513487028452965,37,-23,-30,-3,4,4,3,-69
1513487028466974,-62,-14,-11,-2,-4,0,-1,-55
1513487028466974,7,-17,6,-6,-4,1,4,10
1513487028466974,13,20,18,5,-2,-1,-4,-24
1513487028466974,8,-18,20,7,2,2,-6,-14
1513487028489025,-26,0,50,20,-2,-4,10,32
1513487028489025,36,8,-43,-27,-9,-4,0,67
1513487028490015,-27,-40,-2,-3,-3,-4,-17,-57
1513487028490015,-58,-14,-2,0,-6,-7,-10,40
1513487028503010,-2,-9,-18,3,12,2,-2,23
1513487028503010,47,14,30,10,-2,-1,-2,-71
1513487028511026,-12,16,-9,-11,4,2,6,34
1513487028511026,39,-3,-9,-8,-5,3,12,6
1513487028527016,-57,-15,-27,-9,-2,0,-8,-16
1513487028527016,-2,-13,60,6,2,0,8,35
1513487028527016,-6,27,-60,14,0,2,-1,-25
1513487028527016,-6,-11,26,-5,0,-4,-9,-28
1513487028549042,4,-10,13,3,2,1,7,23
1513487028549042,28,27,9,7,-6,-2,-1,50
1513487028550033,-64,-25,13,8,-4,3,6,-39
1513487028550033,24,-6,35,-8,-1,2,6,0
1513487028563054,20,12,-74,0,-7,-5,-1,39
1513487028563054,-36,12,41,4,5,-4,-21,-43
1513487028571063,-3,-34,-34,-2,-14,-7,0,34
1513487028571063,-5,-4,0,-10,2,-1,-4,-8
1513487028587060,0,-5,-16,-10,-10,-6,-6,-31
1513487028587060,7,-12,-1,-13,-3,2,20,39
1513487028588060,-14,20,-13,0,-2,-3,0,-91
1513487028588060,-57,-6,30,-12,-7,-3,-5,-1
1513487028609103,14,6,21,19,6,4,-3,-24
1513487028609103,-6,-8,-54,3,4,4,7,38
1513487028610078,-51,-53,-24,-19,-12,-10,-6,3
1513487028610078,-13,19,-10,10,5,1,8,18
1513487028623106,21,-14,29,-20,-6,1,-2,-13
1513487028623106,-28,15,-36,26,12,4,1,3
1513487028639111,64,15,25,15,6,5,-1,17
1513487028639111,-25,14,-56,3,-6,-5,10,-5
1513487028647104,-37,-66,9,-22,-6,-5,-28,-61
1513487028647104,2,11,19,2,3,-1,-6,-3
1513487028647104,18,1,35,4,4,0,3,44
1513487028647104,21,-16,21,-4,-6,-4,-2,-29
1513487028669139,11,32,-39,6,3,-1,6,21
1513487028669139,-18,-26,-15,-17,-17,-4,1,-27
1513487028670122,12,23,-2,9,10,2,-11,-9
1513487028670122,30,19,19,15,4,-1,-1,67
1513487028685129,-1,-22,-24,-2,4,2,0,-24
1513487028685129,-38,2,20,4,-6,-3,-1,-4
1513487028691149,5,8,-17,-19,-6,-2,11,19
1513487028691149,24,36,34,-1,-3,1,-10,-2
1513487028707144,-31,1,18,6,-2,-2,4,-35
1513487028707144,19,-38,-2,-8,-7,-5,-4,31
1513487028707144,22,17,33,9,15,2,2,-15
1513487028707144,-5,2,-38,-18,-6,4,4,8
1513487028729160,-38,-2,-34,2,-5,-6,2,40
1513487028729160,-6,13,32,4,-2,2,-2,-52
1513487028730161,-1,-33,12,-8,1,2,-1,2
1513487028730161,-19,-28,-40,-6,-3,-6,-7,-40
1513487028760196,56,18,20,2,0,0,3,7
1513487028760196,-8,34,27,10,-1,0,-5,-44
1513487028760196,-53,-42,-49,-10,-6,-5,-12,12
1513487028760196,46,5,33,5,1,2,3,6
1513487028766198,36,24,2,12,-4,-2,2,37
1513487028766198,-1,-2,-13,-10,2,3,5,-31
1513487028767187,31,15,30,9,-1,1,6,38
1513487028767187,-34,14,-33,-20,-11,-12,-18,-30
1513487028789222,-15,-9,-54,-18,2,-2,5,49
1513487028789222,30,33,-14,-2,-2,1,-3,12
1513487028790223,15,0,15,15,4,-3,-3,10
1513487028790223,-17,-15,13,-9,-2,0,1,-41
1513487028812219,10,-1,27,-7,2,1,-8,-5
1513487028812219,-70,-20,-10,-7,-3,-2,6,-4
1513487028813220,49,9,-49,1,-4,0,-8,-7
1513487028813220,13,-4,23,7,2,-1,0,31
1513487028826228,-17,-15,3,12,6,4,0,-54
1513487028826228,20,-29,9,0,3,2,-5,41
1513487028827230,-28,9,33,3,-5,-1,4,-14
1513487028827230,22,14,-40,-1,4,0,4,58
1513487028849264,-21,-33,54,-11,-9,-5,-8,-10
1513487028849264,9,-15,-36,13,6,1,0,-10
1513487028850249,19,-1,38,-10,-6,-5,-5,10
1513487028850249,-17,8,-23,9,-3,-2,0,22
1513487028871280,18,30,52,-15,-2,0,5,-17
1513487028871280,4,-9,-13,8,2,-6,-6,-27
1513487028879286,-3,-40,-31,-10,0,0,-2,15
1513487028879286,-40,30,47,6,0,-4,0,-14
1513487028886283,12,13,-45,3,0,3,0,18
1513487028886283,20,11,9,-9,-10,-6,1,15
1513487028887273,14,33,-3,0,5,2,3,-28
1513487028887273,-14,-7,54,9,1,2,3,14
1513487028909300,19,-12,6,-6,-4,-5,-8,-6
1513487028909300,2,20,-5,-7,-4,1,0,22
1513487028909300,6,-11,1,-2,-3,1,0,-8
1513487028909300,30,-36,-9,12,7,1,-21,-31
1513487028932316,38,25,25,3,9,2,5,31
1513487028932316,-6,9,-14,-15,-10,-1,3,12
1513487028933317,3,12,7,14,-1,-4,0,2
1513487028933317,18,15,-32,-9,2,1,7,-29
1513487028946325,10,-9,-22,10,-1,-1,-10,39
1513487028946325,8,-15,-8,-13,-2,2,3,-82
1513487028947315,-36,0,31,12,2,-1,1,5
1513487028947315,11,-4,-29,-9,-1,-1,1,72
1513487028969330,-56,-15,16,9,-2,0,1,-74
1513487028969330,20,-15,-2,-22,-6,-1,5,16
1513487028969330,-34,12,19,3,-2,-3,5,-4
1513487028969330,-51,-15,0,-9,-8,-2,-8,-66
1513487028992358,10,-21,-41,-8,6,0,-2,8
1513487028992358,3,0,40,15,-3,-5,-8,28
1513487028993359,-25,2,-14,-4,2,-1,0,4
1513487028993359,86,9,16,9,-5,-4,8,42
1513487029006365,-41,-27,-19,-15,-4,-1,-6,-14
1513487029006365,45,48,-23,4,-1,-3,-8,5
1513487029007356,-34,-26,-25,7,-8,-3,-3,-9
1513487029007356,15,26,38,-12,4,3,-1,-17
1513487029029409,-51,-28,9,-11,-15,-4,0,-4
1513487029029409,24,4,6,11,13,2,-4,4
1513487029029409,6,22,38,0,-6,-1,-1,-5
1513487029029409,-13,-24,-5,3,-1,-2,2,-36
1513487029052425,-7,28,40,12,2,0,2,-10
1513487029052425,-74,-25,36,-11,-4,0,-2,17
1513487029053426,46,9,-35,11,8,-1,7,-17
1513487029053426,-33,7,-18,-9,0,2,-6,-15
1513487029066435,55,6,7,-13,-1,-5,1,62
1513487029066435,-30,24,-11,9,1,1,2,-7
1513487029074440,-3,-57,-4,-17,-9,-7,-6,4
1513487029074440,24,9,-2,10,9,5,3,13
1513487029089452,-23,39,11,-3,2,-2,5,5
1513487029089452,22,-14,-30,0,2,1,0,45
1513487029089452,-29,-3,7,-21,-3,-2,-4,-91
1513487029089452,14,-5,23,12,0,-3,-7,35
1513487029112470,-8,-4,-29,6,-2,1,7,-16
1513487029112470,18,3,13,5,-2,-1,2,-25
1513487029113470,-28,3,-46,-13,-3,0,-17,-34
1513487029113470,-9,-39,15,1,5,-3,-7,-9
1513487029126478,-29,-2,-21,4,-9,-3,-1,4
1513487029126478,18,-5,-47,-2,1,1,-2,-16
1513487029127477,-13,28,47,8,1,-5,0,38
1513487029127477,-27,-17,-25,-16,-7,-3,5,-7
1513487029149507,9,1,2,4,0,0,-7,-105
1513487029149507,-30,-16,-14,-2,-1,-1,-4,1
1513487029149507,37,-7,-8,-9,-8,-3,-1,39
1513487029149507,5,2,16,3,5,2,4,10
1513487029172533,11,0,-32,-1,-3,0,-4,-17
1513487029172533,-13,7,34,-7,3,1,12,26
1513487029172533,-26,12,-7,0,0,-1,-18,-72
1513487029172533,53,-7,-1,12,-9,-6,1,7
1513487029186520,5,13,3,-6,0,0,-4,33
1513487029186520,-6,-13,1,-13,1,2,3,-9
1513487029187521,34,-2,37,13,6,2,4,84
1513487029187521,-38,-3,-45,-1,-5,-4,-5,-62
1513487029209535,29,-6,5,0,-3,-3,0,12
1513487029209535,6,12,30,11,-3,-2,-1,44
1513487029209535,-67,-17,-32,-8,2,0,6,-33
1513487029209535,21,-6,-26,-14,-4,-3,-9,-14
1513487029231552,5,5,3,21,6,2,9,55
1513487029231552,-35,-3,-13,-7,-2,-6,-15,-35
1513487029247562,10,-2,-3,-16,-6,1,0,-4
1513487029247562,-9,5,-9,-2,-1,-3,2,27
1513487029249573,-12,12,12,-1,-2,-3,-4,-16
1513487029249573,73,83,51,16,-3,2,-2,-55
1513487029250572,-82,-94,-65,-3,-9,-4,-4,6
1513487029250572,39,20,61,13,8,3,-4,-19
1513487029268578,1,9,-49,-12,0,1,5,26
1513487029268578,-9,-5,21,0,-1,0,3,-30
1513487029269579,82,87,-29,0,-3,-3,-4,69
1513487029269579,-93,-42,22,-7,-5,0,0,-58
1513487029291594,45,-57,9,3,-5,-3,-7,-18
1513487029291594,-28,-26,-3,1,1,-4,5,29
1513487029298599,23,3,1,0,4,0,2,-15
1513487029298599,6,21,-14,-4,-2,-3,-8,36
1513487029305613,1,40,77,7,2,1,7,15
1513487029305613,-37,-47,-88,-23,-4,-4,-13,-19
1513487029313612,27,16,73,29,11,-1,8,44
1513487029313612,12,12,-32,-16,-7,-4,6,-7
1513487029328620,-30,-3,16,-13,-7,-1,4,14
1513487029328620,26,2,0,1,-1,1,-4,-3
1513487029329626,-28,-18,16,5,-2,-4,3,-41
1513487029329626,20,3,-66,-4,9,4,2,-4
1513487029352655,-36,-48,-17,-3,-9,-8,-7,-26
1513487029352655,-36,11,-1,-4,-8,-3,5,8
1513487029352655,58,-3,-18,-24,1,0,-4,79
1513487029352655,-1,26,28,11,-3,3,0,-46
1513487029365645,-27,10,19,-5,-1,0,8,11
1513487029365645,29,13,16,9,-1,-2,-10,25
1513487029373707,8,17,-40,11,4,2,-1,-4
1513487029373707,0,-1,-11,-11,-1,4,3,-2
1513487029389663,-21,-26,13,1,-8,-7,-1,75
1513487029389663,3,7,34,7,-2,-7,-7,-39
1513487029390663,19,31,17,-7,-1,2,-3,-4
1513487029390663,-21,-28,7,-5,-6,-3,1,27
1513487029412694,-1,-9,-66,-5,1,-3,-10,-27
1513487029412694,30,8,-7,6,-2,0,11,59
1513487029412694,-35,-30,26,-15,4,2,-4,0
1513487029412694,-3,5,18,9,-5,-4,-6,22
1513487029425692,22,36,16,10,3,1,-11,-95
1513487029425692,-34,-27,-59,-10,-3,4,1,7
1513487029433697,9,3,-25,-2,-2,-3,-6,4
1513487029433697,9,-18,51,8,1,-4,1,18
1513487029449708,1,3,-52,-19,-3,2,5,26
1513487029449708,10,18,78,9,6,-2,0,-5
1513487029450710,-34,-20,-64,-4,-11,-1,0,-52
1513487029450710,11,5,11,-6,5,0,-3,-6
1513487029471722,17,19,46,19,9,3,4,19
1513487029471722,-15,-37,-4,-3,-4,-4,0,25
1513487029472723,41,5,23,-14,-9,-4,-3,27
1513487029472723,-14,12,-18,-6,2,1,3,4
1513487029485731,-22,-49,-2,18,9,1,3,-2
1513487029485731,20,7,15,-11,-1,-3,-10,-42
1513487029493737,-16,-3,-8,9,-3,-2,-3,-3
1513487029493737,5,9,-18,3,-7,-4,0,24
1513487029508747,31,18,9,-20,-1,1,-3,-16
1513487029508747,-11,-9,-12,-6,4,1,3,12
1513487029516754,11,11,-48,-1,-3,-1,-5,-9
1513487029516754,-5,-1,26,6,2,1,-4,-18
1513487029531764,-7,0,9,-9,-10,-4,-3,-29
1513487029531764,-11,-6,4,5,-1,-1,4,-6
1513487029532765,21,-4,11,-3,-1,-2,-3,7
1513487029532765,-3,3,-16,5,3,2,1,3
1513487029545788,13,-20,-37,0,-2,-4,3,27
1513487029545788,-37,19,3,-6,-4,-1,-1,13
1513487029553780,-31,-30,-18,-4,-5,1,0,-25
1513487029553780,-14,-18,-48,-17,-3,-4,0,10
1513487029569791,-15,4,9,10,1,-2,3,10
1513487029569791,37,10,-28,-13,0,1,2,28
1513487029570791,-5,9,27,14,5,0,-7,-23
1513487029570791,-27,-25,-17,0,-4,-2,1,-13
1513487029591822,-11,27,-7,5,0,4,2,4
1513487029591822,12,-6,-21,-8,3,2,5,34
1513487029592807,-11,-25,29,5,2,-4,-3,-13
1513487029592807,2,14,34,-15,-2,0,0,-45
1513487029605859,-9,15,-22,-10,-8,-5,-6,-14
1513487029605859,-30,3,14,25,6,0,-11,-41
1513487029613856,46,9,-47,-19,-2,0,4,-2
1513487029613856,4,3,17,10,5,-3,-4,28
1513487029629876,-17,-2,10,-3,-1,0,-4,-8
1513487029629876,23,3,-22,-4,-5,-1,7,10
1513487029630876,-7,19,16,5,-2,-1,11,-27
1513487029630876,-24,-30,23,-1,-3,-4,-12,-39
1513487029651880,-2,1,-10,-7,-2,-2,-7,16
1513487029651880,-1,-10,21,3,3,7,8,35
1513487029652889,0,18,39,0,-2,-2,2,-45
1513487029652889,13,9,-21,20,-1,-3,-3,48
1513487029674899,-39,-39,3,-20,1,5,1,-16
1513487029674899,-17,-38,-57,-2,-1,0,7,-6
1513487029675900,-18,-4,-12,10,3,1,-3,22
1513487029675900,45,34,6,-5,-4,-1,-2,-2
1513487029689910,-21,-8,16,10,-1,-3,4,21
1513487029689910,3,-21,-44,-19,-5,-5,-9,-55
1513487029689910,-16,-15,17,1,-1,-2,-6,3
1513487029689910,-26,16,-1,-9,-10,-5,-5,-17
1513487029711936,20,20,0,-1,1,2,0,-4
1513487029711936,20,-12,4,2,-4,-1,-3,20
1513487029712924,-20,14,1,-12,-9,-6,-8,-82
1513487029712924,-16,14,1,14,8,4,7,36
1513487029734949,24,-17,-48,-12,-4,1,-2,5
1513487029734949,-10,28,34,-1,-2,-2,3,33
1513487029735950,16,-2,0,7,1,-1,-6,-44
1513487029735950,24,24,11,-5,3,2,-2,29
1513487029748948,-11,-14,31,22,-4,-4,3,17
1513487029748948,-8,-8,-5,-3,-3,0,-2,-39
1513487029749962,33,1,13,-7,-1,-1,3,47
1513487029749962,-3,-19,-18,-10,0,-1,5,45
1513487029771990,37,44,24,16,6,4,-2,-56
1513487029771990,31,-14,3,-8,-6,-6,-5,31
1513487029772966,-91,-36,-18,13,0,2,0,-26
1513487029772966,12,-7,-21,-22,-8,-5,-6,-14
1513487029795039,4,0,-7,-5,1,1,2,8
1513487029795039,-31,-3,41,21,1,-3,-2,-4
1513487029796993,23,11,-32,-12,4,0,1,32
1513487029796993,34,-36,-20,-12,-4,0,1,-35
1513487029808002,-5,-4,25,1,-6,-4,-2,12
1513487029808002,23,23,0,21,-1,-1,-4,-5
1513487029817062,-15,8,-71,-18,1,0,-5,-44
1513487029817062,-23,-28,29,2,-5,-6,4,38
1513487029832078,43,25,28,-2,-3,-3,-8,-6
1513487029832078,0,-11,23,9,-3,-2,-4,6
1513487029834066,-29,11,50,5,5,-2,4,-23
1513487029834066,31,4,-25,4,-1,0,0,11
1513487029862086,-5,1,-6,-13,0,1,0,-45
1513487029862086,35,1,-23,-2,-2,-4,-3,24
1513487029869091,6,-6,-13,4,-2,-3,6,51
1513487029869091,-14,-28,-67,-4,-1,-1,-7,-53
1513487029870092,16,5,14,1,-4,2,12,52
1513487029870092,27,-11,27,3,4,0,-4,-13
1513487029877096,40,2,-19,-6,-5,0,1,0
1513487029877096,-4,12,2,1,9,3,4,-14
1513487029892107,-24,18,-8,3,-2,-3,-3,10
1513487029892107,-9,-4,-17,-4,-1,3,2,-31
1513487029895120,-6,-29,-2,-10,-6,2,-6,-18
1513487029895120,-22,-18,-37,9,3,-4,-7,-8
1513487029915123,25,8,-32,-11,-1,2,-2,-3
1513487029915123,-34,19,19,-9,-5,-3,3,-13
1513487029916124,9,-52,-28,-15,1,-2,-8,48
1513487029916124,1,42,47,8,-1,-1,-11,-29
1513487029929143,-16,-16,25,7,-3,-1,11,6
1513487029929143,-5,-11,-32,-25,-3,-3,-5,1
1513487029936138,4,27,11,12,4,1,1,75
1513487029936138,33,14,31,3,-2,1,3,-57
1513487029952151,-38,-36,5,-7,-7,-1,-2,10
1513487029952151,-31,10,-23,-6,-5,-4,-8,-82
1513487029954150,4,17,6,-1,-1,-3,-3,12
1513487029954150,-4,-21,-2,5,4,3,8,39
1513487029974187,-2,-3,-11,-2,-1,1,-2,-22
1513487029974187,24,7,4,-6,-1,4,6,-1
1513487029976167,7,11,35,-8,1,-5,-7,1
1513487029976167,-4,28,-11,0,-3,-2,6,37
1513487029989186,-23,-10,-18,0,-4,-6,-17,-63
1513487029989186,15,-5,3,-5,7,3,-3,13
1513487029996195,-4,-4,50,17,-6,-2,2,-4
1513487029996195,-4,-11,-11,0,3,-2,0,65
1513487030012217,6,19,-4,-2,1,3,5,3
1513487030012217,6,-2,-33,-11,0,0,-2,-46
1513487030014194,-5,12,43,21,6,-1,-9,-7
1513487030014194,-71,-31,-12,-3,-5,-3,2,33
1513487030035207,-22,-21,7,-3,-2,1,-2,-8
1513487030035207,17,-12,-14,9,4,4,10,-2
1513487030036212,16,3,9,5,1,-1,2,5
1513487030036212,19,-12,-13,-23,-6,0,3,2
1513487030049228,16,27,20,0,3,-1,3,2
1513487030049228,-16,-18,16,2,-3,-3,-9,-18
1513487030056223,25,-3,2,-2,-6,-3,7,15
1513487030056223,-22,-7,-37,-5,-2,0,-6,-25
1513487030072293,6,10,24,-1,1,1,-1,-17
1513487030072293,-5,9,9,-6,-5,-4,4,21
1513487030074293,-56,-7,-11,-2,1,3,2,30
1513487030074293,40,25,3,3,-7,-3,0,-32
1513487030094308,3,-4,-24,-2,3,-2,1,29
1513487030094308,-6,29,34,-3,-4,-1,-3,14
1513487030096310,-12,-23,-9,10,9,-1,-5,-23
1513487030096310,2,14,31,1,-6,-1,-6,25
1513487030109337,9,-15,-52,-14,-5,-1,5,38
1513487030109337,-14,7,23,10,2,-2,0,12
1513487030115337,5,4,-9,2,-4,0,2,-38
1513487030115337,4,-3,24,-4,-3,-2,1,56
1513487030132348,-26,-16,-28,-8,-6,-4,-8,-92
1513487030132348,24,11,-13,4,5,4,0,25
1513487030133349,28,25,14,2,-7,-7,-9,-1
1513487030133349,14,-15,24,-13,6,3,6,-12
1513487030154350,-3,5,-12,4,-7,-2,-4,43
1513487030154350,-22,-1,7,3,2,-5,-6,-17
1513487030156352,8,-21,-28,-4,-2,-1,-11,-15
1513487030156352,-6,13,-2,-12,-7,-8,-2,-1
1513487030168360,15,-4,14,9,8,1,4,64
1513487030168360,-8,-5,-18,-11,-7,-4,-3,-34
1513487030177366,-2,5,-8,-12,-2,-1,-1,-4
1513487030177366,-23,-10,-25,10,4,2,-3,-28
1513487030192387,33,10,29,-1,-2,-5,3,11
1513487030192387,-15,-7,-2,0,-4,-4,-6,60
1513487030194393,-9,-11,32,-10,-4,-3,-9,-41
1513487030194393,-19,-16,-40,1,-7,-1,-2,-17
1513487030214406,4,54,15,-7,1,1,-2,-20
1513487030214406,2,-34,-48,10,1,1,10,30
1513487030216406,4,10,-9,-15,-4,-1,-1,-15
1513487030216406,-18,28,40,9,5,0,-2,0
1513487030228412,22,-8,-37,3,-2,-2,2,-7
1513487030228412,-37,6,64,3,2,2,-3,-7
1513487030237409,-40,1,-39,-14,-2,3,8,78
1513487030237409,66,-12,52,20,7,-1,-4,8
1513487030252419,-34,-21,-23,-4,-3,-4,-9,-27
1513487030252419,-18,4,-28,-30,-3,3,1,-31
1513487030253420,43,24,19,19,-5,-4,-8,14
1513487030253420,-59,-62,13,-15,-1,-1,-4,34
1513487030274449,12,-27,25,21,5,0,7,-36
1513487030274449,-14,21,-18,-12,-5,-2,-3,16
1513487030276446,-5,-3,51,2,-1,-2,-3,-10
1513487030276446,38,14,-75,5,-2,-1,4,-17
1513487030288455,-26,-9,13,-3,-1,-4,-8,28
1513487030288455,24,-20,9,-1,-3,-3,0,-19
1513487030297464,-14,-2,-9,-1,5,6,7,-6
1513487030297464,-4,13,22,4,-5,-3,-6,14
1513487030312500,-2,-29,1,8,6,4,2,10
1513487030312500,31,19,-10,-4,-4,-2,-10,22
1513487030313475,-48,18,29,0,-4,0,-2,-39
1513487030313475,29,-7,21,-3,-6,-2,5,-36
1513487030334492,15,21,-3,-5,6,3,-3,51
1513487030334492,-1,-20,14,-6,-2,0,1,-34
1513487030336487,-4,-8,-26,13,7,-1,3,0
1513487030336487,-28,-2,29,-7,-4,4,0,12
1513487030348487,-6,8,-19,-10,-5,-1,2,15
1513487030348487,50,31,32,1,3,0,-4,-48
1513487030357501,-45,-35,-23,-12,-7,-4,1,10
1513487030357501,7,-6,-44,0,6,0,-4,-3
1513487030372508,-30,-6,0,1,-6,1,5,-41
1513487030372508,-16,-21,-8,-10,-5,-8,-13,17
1513487030373504,32,-14,-74,-9,-6,-6,-7,24
1513487030373504,-12,-1,24,4,3,-2,0,-17
1513487030394530,43,14,54,-7,-9,0,1,15
1513487030394530,-14,10,19,14,1,5,6,-7
1513487030396521,11,0,9,-8,-3,-2,1,3
1513487030396521,4,9,1,13,0,-6,-14,-22
1513487030408568,11,-1,-28,-9,2,3,7,39
1513487030408568,5,-14,-7,-2,-6,0,17,-4
1513487030417546,-9,-12,-22,-17,6,0,0,-21
1513487030417546,-29,22,-30,-3,-5,0,3,3
1513487030432547,19,-8,7,12,-1,1,-1,-6
1513487030432547,3,20,-2,-7,4,-4,-2,-21
1513487030433547,19,-21,-34,11,-3,0,8,17
1513487030433547,7,21,39,-3,-4,-3,2,8
1513487030454573,-42,-11,-26,-8,-1,-4,-4,-24
1513487030454573,-2,13,49,11,0,1,3,38
1513487030456574,41,15,18,1,-1,-5,-10,-11
1513487030456574,19,17,40,15,2,1,-5,-75
1513487030468585,-5,-9,-67,-11,9,5,2,13
1513487030468585,-17,-36,-22,8,3,-2,-3,7
1513487030477579,-5,1,25,-4,5,0,5,-2
1513487030477579,2,-17,-31,-7,-9,-6,-4,30
1513487030492601,-6,-28,-8,-1,-10,-4,1,-59
1513487030492601,-29,-4,8,10,7,1,-5,-39
1513487030493592,3,-5,2,0,0,-1,6,60
1513487030493592,5,-23,-16,-17,2,-2,-4,25
1513487030514606,-31,-2,34,-4,-10,-3,0,-4
1513487030514606,-11,-1,-19,-10,-3,-3,-6,24
1513487030516606,-1,-9,11,0,-2,-1,-2,-1
1513487030516606,-39,-6,-25,-1,0,2,5,-22
1513487030528627,23,24,37,5,-2,-5,-7,8
1513487030528627,0,-8,-19,4,-4,1,-4,10
1513487030537634,12,6,20,-1,10,3,-3,-21
1513487030537634,-25,31,-25,-15,-4,-3,7,11
1513487030552644,-44,-66,-46,-1,-1,0,6,25
1513487030552644,-32,32,9,-4,-5,-3,-7,-23
1513487030553632,32,11,65,10,-1,-2,-4,19
1513487030553632,-33,-32,20,-14,0,4,1,-69
1513487030581666,57,56,34,5,-4,-6,-2,40
1513487030581666,8,-24,13,-8,9,3,-3,6
1513487030583654,4,17,-25,8,-3,0,-9,-6
1513487030583654,19,-22,22,8,2,0,0,2
1513487030588682,14,21,-3,-18,0,-2,-9,12
1513487030588682,3,21,6,13,-1,3,11,13
1513487030597674,-49,-44,-1,-2,-1,-1,-1,-14
1513487030597674,10,11,-95,-25,-10,-2,-5,30
1513487030611690,-9,-5,-1,0,-2,-2,-8,-56
1513487030611690,8,-4,8,19,2,-2,4,66
1513487030613686,-38,-31,-10,-24,-3,3,4,35
1513487030613686,9,15,-13,18,-8,-8,-7,-56
1513487030634690,-10,3,33,0,9,6,4,10
1513487030634690,41,1,-28,1,1,1,-2,-17
1513487030637702,-2,1,-54,-7,-6,-2,2,-23
1513487030637702,-3,-6,36,1,4,0,11,20
1513487030656715,10,15,-4,6,-1,-1,-8,-10
1513487030656715,3,0,-35,-16,-4,1,1,-19
1513487030658716,17,-34,8,5,1,-2,-1,-3
1513487030658716,5,8,30,19,8,1,0,10
1513487030671728,11,24,-4,10,2,1,10,7
1513487030671728,-49,-32,1,-33,-9,-3,-15,8
1513487030673736,26,40,-16,-2,-2,-3,-3,-82
1513487030673736,-23,-14,-43,-7,-5,0,-4,12
1513487030694748,34,28,45,11,4,-1,2,-5
1513487030694748,-9,-19,-9,1,-4,-4,1,-24
1513487030696734,1,18,26,-9,-5,-2,0,-10
1513487030696734,-24,-26,28,12,3,1,2,16
1513487030716764,-4,9,-27,-10,-4,0,-2,-22
1513487030716764,2,3,23,-1,-2,-5,-5,-6
1513487030718749,-14,2,-7,2,0,-4,-8,20
1513487030718749,30,10,-12,1,1,3,8,-19
1513487030731771,-25,-15,23,-8,-5,-1,-3,47
1513487030731771,-14,-25,12,5,0,-1,-1,10
1513487030733759,17,-3,8,2,-1,-3,-3,22
1513487030733759,40,5,-38,-13,-6,0,-7,23
1513487030754787,-12,0,3,10,-2,-4,3,11
1513487030754787,29,19,2,20,8,1,-7,-35
1513487030755787,-9,2,6,-21,-2,-2,3,15
1513487030755787,44,18,-25,-10,0,5,5,-4
1513487030776799,-65,-43,-16,9,-8,-8,-22,-60
1513487030776799,20,18,-21,-11,-8,0,6,20
1513487030778792,-31,33,-32,7,2,-2,-8,-12
1513487030778792,-1,-53,46,3,-2,-3,5,48
1513487030791801,-13,-1,-3,-6,2,2,-4,-61
1513487030791801,5,-20,29,-12,-5,-1,0,21
1513487030797806,-17,1,10,0,-2,-2,-2,18
1513487030797806,12,43,59,2,-1,-1,-5,-5
1513487030821822,7,-41,-6,-5,-3,-5,0,2
1513487030821822,-19,-6,2,0,0,-2,-1,37
1513487030823823,-9,-17,0,9,3,2,-1,-24
1513487030823823,-4,9,4,4,-4,-4,0,16
1513487030836832,28,7,1,-21,2,2,1,-11
1513487030836832,4,-22,-40,8,-1,-1,-1,-23
1513487030838834,-7,-16,3,0,-7,-3,-2,69
1513487030838834,-9,2,-22,-13,-1,0,-4,-103
1513487030851853,5,18,33,10,1,-4,1,31
1513487030851853,-25,-32,-61,-21,-10,-2,3,12
1513487030857870,30,50,38,8,1,-2,0,-30
1513487030857870,-12,-18,-2,5,3,5,6,23
1513487030874920,12,17,-19,-19,-8,1,6,10
1513487030874920,1,26,52,8,3,-1,-1,-17
1513487030875922,-15,-24,-35,8,3,1,-3,-20
1513487030875922,-2,3,4,-7,-1,-1,3,15
1513487030904932,0,5,1,3,-1,0,-3,14
1513487030904932,14,15,9,2,2,-3,-7,29
1513487030905943,-2,-29,16,-6,-2,-2,1,-39
1513487030905943,-5,17,-15,-6,-4,-4,-12,-2
1513487030911955,-17,-11,-19,3,0,0,-3,16
1513487030911955,14,1,-7,-7,-1,1,7,14
1513487030917951,4,6,32,3,-2,-5,-6,-51
1513487030917951,-19,-4,2,-2,-2,-2,-3,14
1513487030934953,18,-16,2,5,-2,-2,0,-9
1513487030934953,6,20,-14,3,1,2,3,-18
1513487030935954,4,-12,-20,-12,-6,-3,-2,52
1513487030935954,-3,14,33,6,0,-2,1,-17
1513487030956981,3,4,-5,-3,-1,3,0,1
1513487030956981,14,-3,6,5,5,-1,-6,-15
1513487030958982,-3,16,-20,2,0,2,7,18
1513487030958982,1,-9,8,-10,-2,1,2,0
1513487030970981,-5,-4,-35,2,0,1,-15,11
1513487030970981,-12,-16,3,2,-2,-4,16,-14
1513487030977984,6,4,3,-4,-3,0,-7,-3
1513487030977984,-9,-2,-4,1,2,0,-2,5
1513487030994997,5,1,-4,1,4,5,5,-8
1513487030994997,-18,7,4,-1,-3,-5,-6,-13
1513487030995998,8,2,-3,-1,-2,0,-1,-1
1513487030995998,-22,-25,28,6,-2,-2,0,4
1513487031017032,2,3,-17,-7,0,3,2,2
1513487031017032,-1,1,3,0,0,0,-8,-7
1513487031019017,0,-8,8,3,1,2,12,18
1513487031019017,2,4,-12,-2,0,-1,-5,-7
1513487031032051,-5,6,8,3,1,0,2,-1
1513487031032051,-14,5,4,1,-1,0,-14,-11
1513487031038047,-4,-18,-23,-4,-2,-3,6,2
1513487031038047,11,7,-4,0,-3,-1,0,6
1513487031055054,6,-5,6,0,-1,-4,1,-1
1513487031055054,-4,4,-5,1,0,1,-4,-7
1513487031056041,-2,-8,12,-1,-1,1,-3,-2
1513487031056041,-9,-9,-41,-4,-4,-2,1,-2
1513487031077066,-1,5,-1,-2,-3,-3,-1,-4
1513487031077066,15,-3,5,4,2,1,1,2
1513487031079056,-8,1,18,-1,0,1,-4,-7
1513487031079056,-4,-4,1,-5,-1,-1,-3,1
1513487031091064,-1,-2,0,3,-1,-2,6,3
1513487031091064,-6,-6,-21,-5,-2,-2,-2,-4
1513487031098110,2,0,-10,-5,-2,-2,-3,-1
1513487031098110,5,6,-13,4,3,0,-3,5
1513487031115108,0,-2,13,-2,-2,-2,-1,0
1513487031115108,1,-4,-2,3,0,-2,2,-2
1513487031116083,0,-3,-20,3,-1,-4,-7,-2
1513487031116083,4,-2,-2,-8,-2,-1,3,0
1513487031137097,-32,-4,12,-2,-4,-2,2,-5
1513487031137097,2,-1,3,0,-1,-1,-1,-1
1513487031140122,-5,0,-2,3,1,1,-2,-2
1513487031140122,-3,2,15,5,0,1,1,0
1513487031151109,2,0,-8,-3,0,1,-2,0
1513487031151109,2,0,18,-4,-1,-2,-1,1
1513487031160127,-3,-6,-27,-1,-2,-2,-2,-2
1513487031160127,0,2,-10,-15,-2,1,2,1
1513487031183146,5,1,29,9,0,-3,-3,-1
1513487031183146,-2,-4,-21,-10,-4,1,-6,-2
1513487031185131,2,1,5,5,0,2,1,-1
1513487031185131,-2,1,3,5,-1,-3,4,-1
1513487031197154,2,0,-5,-7,0,1,-7,1
1513487031197154,-1,-7,-1,5,-1,-1,3,-1
1513487031199150,-4,-3,11,-5,-1,0,-4,-3
1513487031199150,-2,2,-10,-3,-3,0,-3,-1
1513487031211184,1,-2,-22,-3,0,-1,2,-1
1513487031211184,0,1,26,11,2,0,-1,-1
1513487031220165,-4,-6,-21,-19,-5,-3,0,0
1513487031220165,-2,-3,9,-8,-4,-4,-2,-1
1513487031235166,2,1,-10,3,2,1,-2,-3
1513487031235166,-2,-2,-7,-12,-4,-4,-5,-4
1513487031236166,2,2,40,19,4,-1,3,-2
1513487031236166,-3,-4,-52,-14,-5,-1,-1,-2
1513487031264199,1,-1,-4,3,-2,-3,1,2
1513487031264199,2,2,-28,2,3,2,-2,2
1513487031266188,-5,-4,31,-11,-9,-4,-3,-4
1513487031266188,1,3,21,13,2,0,2,1
1513487031271204,1,3,2,2,0,2,0,-1
1513487031271204,-1,-1,-9,0,1,-2,-1,0
1513487031280214,2,-3,-16,0,2,-1,-1,1
1513487031280214,-2,1,26,9,-1,0,-3,0
1513487031302213,2,0,-2,-6,-2,-1,2,-2
1513487031302213,-1,-3,6,-4,-3,-2,-3,-3
1513487031304236,-1,-1,8,7,1,0,-4,-1
1513487031304236,-2,-5,-35,-16,-4,-3,0,-2
1513487031317233,0,2,19,5,3,0,-7,0
1513487031317233,0,-5,-32,-6,-3,-1,6,-1
1513487031318233,0,3,15,-2,0,-2,-14,-1
1513487031318233,3,6,28,14,2,1,12,-1
1513487031331234,-1,-7,-25,-8,-4,-1,-3,-3
1513487031331234,-3,0,13,7,1,-2,-2,0
1513487031339239,-2,-4,-23,-8,-3,-3,-3,-3
1513487031339239,-1,1,2,1,0,1,-3,0
1513487031354250,0,1,22,1,-2,-2,1,-1
1513487031354250,-2,-2,7,-3,-2,0,-1,0
1513487031356264,-2,0,-20,-2,-3,-2,4,-3
1513487031356264,0,2,19,3,0,0,-6,0
1513487031377275,0,-1,-31,-5,0,-1,3,-2
1513487031377275,-5,-7,3,-5,-5,-2,-4,-1
1513487031378276,0,3,3,8,1,3,3,1
1513487031378276,0,-2,7,-7,-1,-1,-1,-1
1513487031390284,1,5,50,11,2,-2,-3,0
1513487031390284,-6,-11,-83,-21,-6,-6,-2,-2
1513487031399291,1,3,20,9,2,2,4,1
1513487031399291,-2,0,5,5,-2,0,-3,-1
1513487031414305,-1,1,-1,-5,-4,-1,0,-1
1513487031414305,1,-2,7,1,3,1,-1,0
1513487031416293,-2,-1,-2,-4,0,0,0,-1
1513487031416293,-4,-3,-14,-7,-4,-1,-2,0
1513487031437309,1,0,0,4,0,-1,-6,1
1513487031437309,-1,0,15,0,-3,0,2,-1
1513487031438325,-2,-3,-18,-8,-2,-3,-2,-2
1513487031438325,-2,-1,-4,1,-1,0,-1,-2
1513487031450318,-2,-1,5,-1,-1,-2,-2,-1
1513487031450318,0,1,9,2,1,-2,-2,-1
1513487031459324,0,-3,-6,-4,-1,-1,1,-1
1513487031459324,-1,1,5,2,0,-1,-2,1
1513487031482351,-1,-3,-8,-4,-3,-1,3,1
1513487031482351,7,-2,1,-4,-6,-3,-3,0
1513487031483350,-7,1,-13,1,1,-1,-2,-1
1513487031483350,3,0,14,5,0,0,-1,-1
1513487031497363,0,-1,-5,-4,0,-1,2,1
1513487031497363,-9,-2,-23,-11,-1,-1,-1,-7
1513487031498352,1,-5,-8,-3,-4,-2,-3,0
1513487031498352,0,-1,5,0,0,0,-1,0
1513487031510388,-1,-1,-11,-3,-1,0,1,-2
1513487031510388,-4,-2,17,6,2,0,1,5
1513487031519366,2,-2,5,-2,-2,-3,-1,-11
1513487031519366,-7,-6,-19,-5,-2,-1,-1,-1
1513487031533386,-8,-3,-3,-1,-3,-2,-1,-8
1513487031533386,22,1,6,3,3,-2,-3,16
1513487031542382,-7,2,7,0,-2,0,1,-1
1513487031542382,4,1,0,2,-1,-2,0,2
1513487031557393,-3,-9,-32,-15,-6,-3,-1,-6
1513487031557393,-3,0,20,2,0,0,-2,-7
1513487031558395,3,-1,-11,-3,-1,-1,-1,3
1513487031558395,-1,3,4,5,1,-2,1,-1
1513487031579421,-3,-4,-17,-16,-4,0,-1,1
1513487031579421,-5,-1,1,1,1,-2,-4,-1
1513487031581411,2,0,16,3,0,-1,1,0
1513487031581411,-4,-1,-43,-7,-1,1,0,-3
1513487031594459,3,4,35,10,0,-1,0,2
1513487031594459,-3,-6,-7,-8,-5,-2,-1,-2
1513487031596420,0,1,20,-1,-1,1,0,1
1513487031596420,-2,-5,-21,-8,-2,-4,-2,-3
1513487031617445,2,3,3,1,-1,1,-2,2
1513487031617445,2,5,1,3,0,1,1,-2
1513487031618437,-11,-12,-11,-6,-3,-5,-3,-5
1513487031618437,3,0,3,-1,-3,-1,0,-1
1513487031647470,4,-1,-1,0,0,1,1,1
1513487031647470,-7,1,5,2,-1,-1,-2,-5
1513487031648471,3,1,-9,-3,-1,-3,0,2
1513487031648471,1,1,9,2,-2,1,1,1
1513487031654472,-3,-2,-5,-3,-2,-1,-1,-4
1513487031654472,1,-1,4,2,-1,-1,-1,-2
1513487031656473,-1,-1,-13,-3,-1,-1,1,0
1513487031656473,-1,-1,7,-3,1,1,-2,-1
1513487031677539,1,-1,3,1,1,-1,0,-1
1513487031677539,-5,-3,1,0,-1,0,-1,-3
1513487031678536,1,-3,-8,-2,-1,-2,-1,1
1513487031678536,-3,-1,7,0,-2,-1,1,0
1513487031699552,-1,-2,-7,-1,-1,-2,3,1
1513487031699552,0,-2,3,0,1,-1,-2,-2
1513487031701543,-1,-1,-4,-2,-1,1,-1,2
1513487031701543,2,1,0,0,0,-1,-1,0
1513487031713562,-3,-2,-14,-4,0,-2,-3,-1
1513487031713562,-3,2,4,2,0,-1,0,-4
1513487031720558,-1,0,-19,-2,-2,0,-1,-3
1513487031720558,-3,-1,4,1,-1,0,0,-2
1513487031737605,-1,1,4,-3,-2,-1,0,-2
1513487031737605,-3,-4,-9,0,-3,-1,-3,-4
1513487031738570,0,-2,-1,2,0,-1,-3,1
1513487031738570,-1,-1,3,-2,-3,-1,1,-1
1513487031759612,-2,-1,-4,2,0,-2,-1,1
1513487031759612,-2,0,2,-2,-1,0,-1,0
1513487031761586,1,-1,0,-1,-2,-3,0,-1
1513487031761586,0,0,-2,-2,-1,0,-1,-4
1513487031773619,1,2,4,3,-1,-1,-2,-2
1513487031773619,-1,-4,-1,-1,0,-1,-1,-1
1513487031780601,-1,1,-2,-3,-1,-1,0,2
1513487031780601,-1,0,4,-1,-3,-2,0,1
1513487031796626,-1,-2,-4,-1,-2,-1,-2,0
1513487031796626,-2,-1,1,0,-1,0,-1,-2
1513487031798612,-1,-3,-3,-2,-2,-1,-1,-2
1513487031798612,0,0,0,0,0,-1,-1,0
1513487031819640,-1,-2,-2,-1,-2,-1,-1,0
1513487031819640,0,-1,-2,-2,-1,-3,-1,-1
1513487031821642,3,0,3,-1,-1,-2,-2,1
1513487031821642,-1,0,0,-1,-1,-2,0,0
1513487031834655,-1,-1,-3,0,1,-1,-3,-1
1513487031834655,-1,-2,3,1,-1,0,-3,-2
1513487031840660,0,-1,-1,-1,0,-1,-1,-2
1513487031840660,-1,-3,-1,-2,-1,0,-2,-1
1513487031856653,1,-2,-1,-3,-1,-1,0,-3
1513487031856653,1,-1,-1,1,-2,0,0,-1
1513487031858655,-2,-2,-2,-1,-2,-1,-1,-3
1513487031858655,0,0,-1,-2,-1,0,-1,0
1513487031879681,-2,-1,0,-2,-1,-1,-1,-1
1513487031879681,-2,0,-1,-1,0,0,-3,-2
1513487031881687,-1,-1,-3,1,0,-2,1,-3
1513487031881687,1,-2,1,-2,-3,0,-1,-2
1513487031894692,-1,-2,-2,-2,-1,0,0,-1
1513487031894692,0,-3,-2,-2,0,-3,-1,-1
1513487031908699,1,-3,-3,-1,-1,-1,0,1
1513487031908699,1,0,0,-1,-1,-1,-1,1
1513487031916712,-3,0,-1,1,-1,-1,-2,-2
1513487031916712,-3,-2,0,-1,-1,-2,-1,0
1513487031918714,-1,-1,1,0,-1,-2,0,-2
1513487031918714,-1,0,-2,1,-2,-2,-1,-2
1513487031939750,-1,-1,-3,-1,-3,0,2,0
1513487031939750,-1,-3,-1,-1,0,-1,-2,-3
1513487031940724,0,-1,-2,-3,0,-2,-1,0
1513487031940724,-1,-1,-2,-1,-1,1,-1,0
1513487031953731,-1,-1,-1,-2,0,-1,-4,-1
1513487031953731,-2,0,-2,-1,0,0,-1,-2
1513487031960741,-2,-1,0,0,-2,-1,0,-4
1513487031960741,-3,0,-1,1,-1,-1,0,-1
1513487031976750,-3,-3,0,-1,-2,-2,-2,0
1513487031976750,1,-1,0,-2,-1,-2,-1,-2
1513487031978740,-1,0,0,-1,0,0,-1,-1
1513487031978740,-1,-1,-2,-1,0,-2,-2,-2
1513487031999754,-1,-1,-1,0,-2,-2,-2,-1
1513487031999754,-1,-1,-1,-1,-3,-2,-1,0
1513487032000754,-3,-4,0,-2,0,-1,-1,1
1513487032000754,-1,1,3,1,-1,-2,-1,-1
1513487032014765,-1,-3,-2,-1,-1,-1,-3,-1
1513487032014765,1,-1,-2,0,-2,-1,-1,-1
1513487032020769,-2,0,-1,-3,-1,1,-1,-3
1513487032020769,-1,-1,-1,0,-2,-1,0,0
1513487032036797,0,0,0,0,-3,0,0,0
1513487032036797,-3,-2,-2,-2,1,-2,-1,-1
1513487032038786,-1,-3,-1,-1,-1,-3,-2,0
1513487032038786,-1,-2,-3,-2,-2,-1,-1,-2
1513487032059813,-1,0,0,-1,0,-2,-2,-1
1513487032059813,0,-3,0,-1,0,0,0,-2
1513487032060811,0,-2,-2,1,0,-2,-2,-3
1513487032060811,-1,0,-1,-1,-1,0,0,1
1513487032072806,0,-1,-2,-1,-2,-1,2,-1
1513487032072806,-1,-2,-2,-3,0,0,-3,-1
1513487032081813,-1,-2,-2,-1,-1,1,0,-1
1513487032081813,0,-1,-1,-2,-2,-2,-1,0
1513487032096862,-1,0,-2,-1,0,-1,-1,1
1513487032096862,-1,0,-2,0,-1,-2,-1,0
1513487032098844,-2,-2,-1,0,-2,0,-3,-1
1513487032098844,0,-2,0,0,-1,0,0,-1
1513487032119843,1,-1,-1,0,0,-1,-2,-2
1513487032119843,-1,-1,-1,-2,-1,-2,-4,0
1513487032120843,-1,2,1,-2,0,-1,2,-1
1513487032120843,-2,0,-1,-2,0,-1,0,1
1513487032132848,-2,-1,-2,-2,1,-1,-1,-2
1513487032132848,-1,-2,-2,-1,-1,-2,-1,-2
1513487032141858,-1,-1,-1,-2,-1,-1,-1,-1
1513487032141858,-3,-1,-1,-2,0,1,-1,-1
1513487032157899,-1,-1,-1,-1,-2,-4,-1,-3
1513487032157899,-2,-3,-1,-1,-3,-1,-1,-2
1513487032158876,0,-1,-2,-1,0,0,0,-1
1513487032158876,-2,-1,-1,-2,-2,0,-2,0
1513487032179907,-2,-2,-2,-1,-2,0,-1,0
1513487032179907,0,-1,-2,0,-3,-2,-1,-2
1513487032180883,-1,-1,-2,-1,0,-3,-2,-1
1513487032180883,-1,0,-2,-2,-1,-2,-1,-3
1513487032192890,-1,-3,-1,-1,0,-2,0,-1
1513487032192890,-1,-2,0,-1,1,1,-2,-1
1513487032201897,0,1,-2,0,-2,-3,-2,-1
1513487032201897,1,1,-1,-1,-2,-2,-2,0
1513487032216923,-2,0,-2,-2,-2,-1,-2,-1
1513487032216923,-1,1,-2,-1,2,-1,-1,-1
1513487032218925,-1,-2,-1,-2,-1,-1,-1,0
1513487032218925,0,-1,-2,0,-2,-1,-1,-1
1513487032239924,0,-2,0,-2,0,-2,-1,-2
1513487032239924,-2,-2,-1,-1,0,-1,-1,-1
1513487032241932,-2,0,-2,-1,-2,-1,0,0
1513487032241932,-2,-3,0,0,0,0,1,-1
1513487032253935,-1,-1,0,-1,-1,-1,0,-2
1513487032253935,-1,-3,-2,-1,-3,-2,-2,-1
1513487032261952,2,-1,-2,-2,0,-1,-1,-1
1513487032261952,1,0,-1,0,-1,0,-1,1
1513487032276950,0,-1,-1,0,-1,0,0,-1
1513487032276950,-2,0,-1,-1,-1,-1,-3,-1
1513487032278951,0,-3,-1,-2,-2,-2,0,-2
1513487032278951,-1,-2,-2,-1,-1,0,1,-2
1513487032299976,-2,-2,-3,-2,0,0,-2,-1
1513487032299976,0,-1,-2,0,-1,0,-1,-1
1513487032300967,-1,-2,1,-1,-1,0,-1,-1
1513487032300967,-1,0,-1,-2,-1,1,0,0
1513487032312976,0,-1,-1,-2,-1,-2,-1,-1
1513487032312976,-2,-5,-2,-2,-1,-1,-1,-1
1513487032321982,-2,0,0,1,-1,0,-1,-2
1513487032321982,-1,-1,0,-1,-3,-1,-1,-2
1513487032337005,0,-2,-2,0,0,0,1,-2
1513487032337005,-2,-1,-1,-1,-1,-2,-1,-1
1513487032340019,-2,-1,-1,-1,-1,-2,-3,2
1513487032340019,-2,0,-2,0,-1,-3,0,-2
1513487032360068,-1,-2,-2,-2,-1,0,-1,-1
1513487032360068,-1,0,-1,0,-1,-1,-3,-3
1513487032361020,-2,0,-1,0,-1,2,0,0
1513487032361020,0,-1,-1,-2,-2,0,-1,-1
1513487032373028,0,-3,-3,0,-1,0,-3,1
1513487032373028,0,-3,-2,0,-2,-2,0,-1
1513487032382035,0,0,-1,-2,0,-2,0,0
1513487032382035,0,1,1,0,-1,-1,1,-1
1513487032397037,-3,-1,-1,-2,-1,-3,0,-1
1513487032397037,0,0,-2,-2,-2,1,-2,-1
1513487032399048,-1,-2,-2,-2,-2,-1,0,-2
1513487032399048,-1,-2,-1,-1,0,-1,-3,0
1513487032420051,-2,-2,0,-1,-2,-1,-2,-2
1513487032420051,-3,-1,1,-1,1,-2,-1,0
1513487032421060,0,-1,-1,-1,-1,-3,-1,-1
1513487032421060,-1,1,-2,-1,0,-2,0,0
1513487032433060,-1,-1,0,-1,-1,-1,-2,-1
1513487032433060,0,-1,-3,-1,-2,-2,-2,-2
1513487032450073,0,-3,-1,0,-3,0,0,-1
1513487032450073,0,-2,0,0,0,-1,0,0
1513487032457103,-3,0,-2,-2,1,0,0,-1
1513487032457103,-1,-1,-2,-1,0,-1,0,-1
1513487032459103,0,1,0,-1,-1,1,1,1
1513487032459103,-1,0,-1,1,-3,-2,-3,0
1513487032479106,-3,0,-1,-1,-1,-1,-1,1
1513487032479106,1,-3,-2,-3,-2,-2,-2,-1
1513487032486110,1,-2,-1,-1,0,-1,1,0
1513487032486110,-1,-2,-1,-2,0,0,-1,-2
1513487032502109,0,-1,-1,-1,-2,-2,1,-3
1513487032502109,-3,-1,0,-1,-1,-1,-4,-1
1513487032504121,1,1,-2,-1,1,-1,0,-2
1513487032504121,-1,-1,-2,-2,-1,-3,0,-1
1513487032525126,1,-2,0,-1,-2,0,-3,-2
1513487032525126,-1,-1,-1,-1,-2,0,0,-1
1513487032526127,-2,-2,0,0,-3,0,-2,-1
1513487032526127,0,0,1,-1,-1,-1,0,-1
1513487032539155,-2,-1,-1,-2,-1,-3,-1,-2
1513487032539155,-3,-3,-2,-1,-1,-1,-1,-1
1513487032541141,-3,0,-2,-1,0,0,-3,0
1513487032541141,-2,-2,0,-1,-1,-1,1,-1
1513487032561171,-1,-2,-1,-1,-2,0,-2,-1
1513487032561171,0,-1,-2,0,-1,1,-1,0
1513487032570177,-2,0,0,-2,0,0,-1,-1
1513487032570177,-2,-1,-2,0,-2,-1,1,-1
1513487032576174,0,0,-3,1,0,-1,0,-1
1513487032576174,-3,-3,0,-2,-1,-2,-1,-1
1513487032585181,0,0,-2,0,0,-2,1,-2
1513487032585181,0,1,0,-1,-2,-1,-1,-1
1513487032599188,-2,-2,0,0,-1,-2,-1,-2
1513487032599188,1,1,-2,-1,0,-1,-1,-1
1513487032601180,0,-1,0,0,-2,0,0,-2
1513487032601180,-1,0,-1,-1,0,0,-2,0
1513487032629221,-2,0,0,-2,0,-3,-1,-1
1513487032629221,-2,-2,-2,-3,1,0,-1,-2
1513487032631201,-1,-2,-2,-2,-2,-2,-1,-1
1513487032631201,-2,0,0,-1,-1,0,1,-2
1513487032636214,-2,-1,0,-1,-3,-1,-3,0
1513487032636214,-2,0,-1,-1,-1,-3,-1,0
1513487032645222,-1,0,-1,-2,1,-1,-1,0
1513487032645222,0,-2,-1,-1,-1,0,0,-2
1513487032659245,-1,-3,-1,0,0,-1,-1,-1
1513487032659245,-3,-3,1,-1,-1,-3,-1,1
1513487032661238,-1,1,1,0,-3,-2,-1,-1
1513487032661238,-1,0,-2,-2,-2,-1,-3,1
1513487032682237,-1,1,-1,-1,-1,0,-1,0
1513487032682237,0,-1,-1,-1,0,-1,2,-1
1513487032683237,-1,0,-2,-1,-1,-1,1,-1
1513487032683237,-1,-3,-1,-2,0,-2,1,-1
1513487032696264,0,0,-3,-1,-1,-2,-2,-1
1513487032696264,0,0,-2,-3,-2,-2,-3,-1
1513487032703261,-1,-1,-2,-1,-2,1,0,-1
1513487032703261,-1,0,-2,1,0,-1,-1,-1
1513487032719272,-2,-3,-2,0,-2,-3,-1,-2
1513487032719272,-2,0,-2,0,0,1,-1,0
1513487032721264,-1,-2,-2,-2,-1,-1,-1,-1
1513487032721264,-1,0,0,-2,-1,-2,-1,0
1513487032742295,-2,-2,1,-2,-2,0,0,0
1513487032742295,0,-1,-2,-1,-2,-1,-2,-1
1513487032743280,-2,-1,0,0,-1,-2,0,1
1513487032743280,0,0,0,0,-2,-2,-2,-2
1513487032756302,-2,-1,-3,-1,-1,0,-2,-1
1513487032756302,2,-1,-2,0,-2,-1,-1,-1
1513487032763315,-1,0,-2,1,-2,-1,0,0
1513487032763315,0,0,-1,1,-1,0,-2,0
1513487032779314,-1,-2,-2,1,0,0,0,-3
1513487032779314,0,-2,-2,-3,0,-3,0,-2
1513487032781317,-1,1,-2,-2,-1,-1,-1,-2
1513487032781317,0,0,-1,0,-2,-1,0,-2
1513487032802332,-1,-2,-1,-1,0,-1,-2,-1
1513487032802332,-3,-2,-2,-1,0,0,-2,-2
1513487032803339,-1,0,-1,-1,-2,-2,0,1
1513487032803339,-2,-1,-2,-2,-1,-1,-2,-1
1513487032816341,-1,-1,0,-1,0,-2,-2,0
1513487032816341,0,-2,-2,0,-1,-2,1,0
1513487032823346,-2,0,-1,-1,-1,-2,0,-1
1513487032823346,-2,0,1,-1,-2,0,0,0
1513487032839358,0,0,-3,-1,0,-1,-2,-1
1513487032839358,-2,-2,-1,-1,-2,0,-4,-1
1513487032845374,0,-1,-2,-2,-1,-1,-3,0
1513487032845374,-1,1,-2,-2,-1,-2,-1,-2
1513487032862386,-2,-2,-1,-1,0,1,-2,-3
1513487032862386,-3,0,-1,-2,0,-1,-1,-1
1513487032863364,-1,0,-1,-1,-1,1,1,0
1513487032863364,-1,-2,-3,-1,1,-1,-2,0
1513487032876383,1,-2,-2,-1,-2,-1,-4,-3
1513487032876383,-1,0,-1,-2,-1,-2,-1,0
1513487032883388,-1,-2,-1,-3,1,0,0,-1
1513487032883388,-1,-2,0,-1,-2,-1,0,-2
1513487032899400,-2,-2,-3,-1,-2,-2,1,-1
1513487032899400,-2,0,-1,1,-2,-3,-2,-1
1513487032901392,-1,0,0,-1,-2,-3,0,-1
1513487032901392,1,-2,-1,-1,-1,1,-2,-1
1513487032922417,-2,-2,-2,-2,-1,-2,0,0
1513487032922417,-3,-1,-2,-2,-3,0,-1,0
1513487032924418,-3,0,-2,0,-2,0,-1,1
1513487032924418,-1,-1,-1,-1,0,0,-1,-2
1513487032936425,-2,-2,-3,0,-2,-3,-2,2
1513487032936425,0,-2,-1,0,0,-1,1,-2
1513487032943438,0,0,-2,-1,-2,0,0,-1
1513487032943438,0,2,0,-2,-1,-2,0,0
1513487032959489,2,0,0,-2,-2,0,-1,-2
1513487032959489,-1,-2,0,-2,0,0,-3,-1
1513487032961455,1,-1,-1,-1,-1,1,0,-1
1513487032961455,-1,0,-2,-3,1,-2,-1,-1
1513487032982461,-1,0,-1,-1,-1,0,0,-2
1513487032982461,-1,-1,-2,-1,0,-1,2,-2
1513487032983451,0,-1,0,1,0,-2,-1,-1
1513487032983451,0,-1,-2,0,-2,1,-1,-2
1513487032995497,-3,0,0,0,0,-2,-3,1
1513487032995497,0,-2,-2,-2,-1,0,-2,0
1513487033004465,0,-1,1,0,-2,-1,0,-2
1513487033004465,-2,-2,-2,-1,-2,0,-1,-1
1513487033019492,-2,-2,-2,-1,0,-1,-1,-1
1513487033019492,-1,0,0,-1,-1,-1,-2,-1
1513487033021476,1,-1,0,-1,0,-1,0,-1
1513487033021476,-2,-1,0,-1,-1,0,-1,-1
1513487033042492,0,0,-2,-1,-2,0,-1,0
1513487033042492,-1,0,-1,0,-2,-2,2,1
1513487033043492,-1,-2,-1,-1,-1,0,0,-1
1513487033043492,-1,0,0,0,0,-1,-2,1
1513487033055513,1,-1,0,-3,-1,-1,-3,-2
1513487033055513,1,-1,-2,-1,-1,-1,-4,-2
1513487033064523,0,2,0,0,-2,0,0,0
1513487033064523,-2,-2,-1,-1,-1,-1,0,0
1513487033079529,-2,-3,-1,-4,0,-2,-3,-1
1513487033079529,-2,-2,-1,-1,-1,-1,-2,-3
1513487033081533,-1,0,0,0,0,0,0,-2
1513487033081533,1,-1,-1,-1,-1,0,1,-1
1513487033101533,-1,-3,-2,-1,0,0,-2,1
1513487033101533,-2,-3,-2,-1,0,-1,0,1
1513487033103540,-1,-2,-2,-2,-3,-1,0,-1
1513487033103540,-2,-1,0,-1,-2,-1,-1,-1
1513487033115553,-2,0,0,1,-1,-1,1,-2
1513487033115553,-1,-1,-3,-1,-1,-2,-1,-1
1513487033124550,0,0,-1,0,-1,0,0,1
1513487033124550,0,-1,-1,0,-1,-1,-1,-1
1513487033139560,0,-2,-2,-1,-1,-1,-2,-3
1513487033139560,-2,-1,-1,0,-1,-2,-1,-1
1513487033141561,-1,2,-1,-3,-2,-4,-2,0
1513487033141561,-1,0,0,-2,0,-2,-1,0
1513487033161631,-1,-1,-2,-1,-1,0,0,-1
1513487033161631,1,-2,0,-1,-2,-1,2,-1
1513487033163589,-1,0,-2,-1,-1,0,-1,0
1513487033163589,-2,-1,1,-1,-1,1,-1,-2
1513487033175598,-3,0,-1,0,0,-1,-1,-1
1513487033175598,-1,-2,-2,-2,-3,0,-2,-1
1513487033184591,-1,0,-2,0,-3,1,-2,-1
1513487033184591,0,0,-1,-2,-2,-1,1,1
1513487033199611,1,-1,0,-1,-1,-2,0,-1
1513487033199611,-3,-1,-2,0,0,-1,-2,-2
1513487033200612,-1,-1,0,-1,-1,-1,-1,-2
1513487033200612,0,-2,-3,1,-1,-1,-1,-3
1513487033222631,-4,-2,0,-1,-1,-1,-1,-2
1513487033222631,1,-1,-1,-1,0,0,-1,-1
1513487033223636,0,-2,0,1,-1,1,-1,-1
1513487033223636,-4,1,0,-2,-2,-2,-3,-1
1513487033244644,0,-2,0,-2,1,-2,-1,-3
1513487033244644,-1,-1,-1,-1,-1,-1,-1,-2
1513487033246675,-1,0,-2,-1,-2,-3,0,1
1513487033246675,0,-1,-2,-1,-2,-1,1,0
1513487033259675,0,-3,-1,-1,0,-3,-3,-2
1513487033259675,-1,-1,-1,-2,-1,-1,-2,-1
1513487033261678,-1,-2,-3,-2,-1,1,0,-1
1513487033261678,-1,-1,0,0,-2,-2,-2,-2
1513487033281661,-3,-1,-1,-2,-1,-3,-1,-2
1513487033281661,0,-2,-1,1,-1,0,-1,0
1513487033283661,-1,-1,-1,-1,0,0,-3,1
1513487033283661,0,0,-2,-1,0,0,-1,-2
1513487033295692,-2,-1,-2,0,-1,0,-2,0
1513487033295692,-1,0,-1,-1,0,-2,-1,-1
1513487033321688,-1,0,-1,-3,-2,-2,1,-2
1513487033321688,-2,-1,-2,-1,0,0,0,1
1513487033322691,-2,-2,-3,-1,-2,-1,-1,0
1513487033322691,-1,0,-1,1,0,0,0,-1
1513487033325701,0,0,0,0,-1,-2,-1,-2
1513487033325701,2,-1,0,-2,-2,-2,-1,0
1513487033341712,-1,-3,0,-1,0,-2,-2,-2
1513487033341712,-1,-2,-3,-1,-3,0,-1,-1
1513487033343721,-1,0,-1,-1,-1,-1,0,-1
1513487033343721,-2,0,-1,0,0,-1,-1,-2
1513487033355725,0,-3,0,-1,0,-1,1,-1
1513487033355725,-4,-2,-2,-3,-1,-2,0,-1
1513487033364735,-1,1,-2,-1,0,-1,0,1
1513487033364735,1,-2,1,0,-1,0,-2,-2
1513487033379772,0,0,-2,-1,-1,-1,-4,-3
1513487033379772,0,-1,-1,-2,1,-1,-1,1
1513487033381742,-2,0,0,-1,-2,-1,1,-1
1513487033381742,-2,0,-3,-1,-2,-2,0,-1
1513487033402746,-2,-2,0,0,-2,-2,-4,-2
1513487033402746,-1,-2,1,-1,-1,-1,-1,-2
1513487033403747,0,-1,-2,-2,0,-1,-2,-2
1513487033403747,-2,0,-2,0,0,-1,1,0
1513487033415768,-4,0,-3,0,0,1,0,-1
1513487033415768,1,-2,-1,0,-2,-1,-3,0
1513487033424762,-1,0,-1,-2,-1,0,1,-1
1513487033424762,-1,0,0,-1,-1,1,1,-1
1513487033439773,-2,-1,-2,0,-1,-1,-2,1
1513487033439773,-3,-2,0,0,-1,-1,0,0
1513487033440773,-2,-2,0,-2,0,-1,0,-1
1513487033440773,-1,-2,-2,-3,-1,-2,-1,-1
1513487033461806,1,0,-1,-2,-1,-1,1,-1
1513487033461806,-1,-1,-2,-1,-2,-2,0,-1
1513487033463790,1,0,0,-1,-2,0,-1,0
1513487033463790,-1,-2,-1,-2,-1,0,-2,1
1513487033484817,-1,-4,-1,-1,-2,-1,-1,0
1513487033484817,-1,-1,-2,-1,-1,-2,0,-1
1513487033485805,0,0,-1,-1,-2,0,2,-1
1513487033485805,-1,0,-1,-1,-2,-1,-2,-2
1513487033499824,-1,0,-2,-1,-1,-3,0,-1
1513487033499824,-2,0,-2,-2,1,-1,0,1
1513487033500826,0,1,-2,0,-2,-2,-1,-1
1513487033500826,-1,1,-1,-1,-1,-1,-2,-2
1513487033521840,0,1,-1,-1,-2,-1,-1,-3
1513487033521840,-3,-1,-2,0,-1,-3,-1,-2
1513487033523832,0,-1,-1,-2,-2,-1,-2,0
1513487033523832,-1,-1,-1,-2,0,-2,-1,-2
1513487033544867,0,-2,-3,-2,-1,-2,-2,1
1513487033544867,-3,-1,-2,-1,0,-2,-2,-3
1513487033545861,-2,-1,-3,0,-1,1,-1,-1
1513487033545861,-3,-1,-1,-2,-1,-1,0,0
1513487033559915,-1,-4,0,-1,-2,-1,-2,-1
1513487033559915,0,-1,-1,-1,0,-2,0,-1
1513487033560857,0,1,-2,0,0,0,1,-1
1513487033560857,0,-1,0,-2,0,-1,0,-1
1513487033581888,-2,-2,-1,-2,-1,-1,-1,2
1513487033581888,0,0,-2,-1,-1,0,-2,-2
1513487033588894,-3,0,-2,-1,-1,-2,-1,-2
1513487033588894,-2,1,-1,2,-2,-1,0,1
1513487033604894,1,-3,-1,0,0,0,-1,-3
1513487033604894,1,-2,0,-1,-2,-2,-1,-1
1513487033605890,-1,0,1,0,0,-1,-1,0
1513487033605890,0,-2,0,-1,-1,0,-1,-3
1513487033618919,-1,-1,0,0,0,-1,-3,-2
1513487033618919,-2,0,-1,-1,0,1,0,-1
1513487033625924,1,0,-1,-1,-1,-2,1,0
1513487033625924,-1,-2,-3,0,-1,-2,-2,0
1513487033641938,-1,0,-2,-1,-2,-1,-2,-1
1513487033641938,-1,-1,-2,-2,0,-1,-1,-1
1513487033643937,-2,-1,0,-1,-1,-1,-1,-1
1513487033643937,-1,-1,-1,-3,-3,-3,-2,-2
1513487033664947,-2,-1,-1,-2,-1,1,1,-2
1513487033664947,-1,-2,1,-2,-1,-1,-3,0
1513487033665949,0,-2,-2,-1,0,0,0,-1
1513487033665949,-3,0,-2,0,0,-1,0,0
1513487033679947,0,0,-2,0,0,-3,-2,-3
1513487033679947,-2,-2,0,0,0,-1,-2,-1
1513487033685959,0,-1,0,-2,-2,-1,-1,1
1513487033685959,1,-2,-1,-1,-1,-2,-1,-1
1513487033701957,-2,-2,-2,-1,0,-2,-1,-2
1513487033701957,-2,0,-2,-1,0,0,1,-1
1513487033703958,0,0,-2,-2,-2,-2,0,0
1513487033703958,-3,-1,-2,-1,-2,-1,-1,-1
1513487033724987,-2,-1,-1,-3,-3,0,-1,-1
1513487033724987,1,-3,-1,0,-3,-1,-2,0
1513487033725975,-2,1,-2,0,-1,-1,-1,0
1513487033725975,-1,-2,-2,-1,-2,-1,-3,0
1513487033738985,-2,-2,-2,0,-3,-2,-4,-1
1513487033738985,-1,-1,0,-1,3,-1,0,-2
1513487033746011,0,-1,0,-2,0,1,0,-2
1513487033746011,0,-3,-1,-1,-1,-1,1,0
1513487033762010,-2,-1,-1,-2,-2,1,0,-2
1513487033762010,-2,0,-3,-2,-4,-2,-2,1
1513487033764022,-2,0,-2,0,-1,0,-1,0
1513487033764022,0,0,-1,1,0,-1,1,-1
1513487033785016,-1,-3,-3,-1,0,-2,-1,0
1513487033785016,-2,-1,1,-1,-2,-2,-2,-2
1513487033786017,-1,-1,-1,-1,-1,0,-1,-2
1513487033786017,0,-2,-1,-4,-2,-1,-3,0
1513487033799036,-2,-3,0,-1,0,-1,1,-1
1513487033799036,0,-2,-2,-2,0,0,1,-2
1513487033806031,-3,0,0,-1,-2,0,-2,-1
1513487033806031,0,1,-1,-2,-2,-2,-2,-1
1513487033822065,0,-2,-1,0,-1,-1,1,-1
1513487033822065,0,1,-1,-1,0,-2,-3,-2
1513487033824060,-1,-3,0,-1,-2,-1,1,-1
1513487033824060,-2,-1,-1,0,-1,2,0,-2
1513487033844061,0,-2,-3,0,-1,-1,-4,0
1513487033844061,0,-2,-1,-2,-2,-2,0,1
1513487033846059,-1,0,1,-1,1,0,0,0
1513487033846059,0,-2,0,1,0,-1,-2,-1
1513487033859094,-3,-2,-1,-2,-1,-2,-2,-2
1513487033859094,0,-2,-2,-1,-2,1,0,-1
1513487033866073,1,-2,-2,-2,-2,0,-1,1
1513487033866073,-1,-1,0,-1,-1,1,-1,-2
1513487033882098,0,-1,-2,-1,-2,-1,-2,0
1513487033882098,-2,-1,-1,0,-1,-2,0,0
1513487033884098,-3,1,0,-1,-1,0,0,-2
1513487033884098,-1,-1,0,-1,-1,-1,-1,-2
1513487033904110,0,-2,-2,-1,-2,-3,1,-2
1513487033904110,0,-1,-1,-2,-1,-1,-2,0
1513487033906102,-3,-1,-2,0,0,-1,-1,1
1513487033906102,-2,-2,-1,-2,0,-2,-2,-1
1513487033919126,-2,-3,0,-3,0,-1,-2,-1
1513487033919126,1,-2,-1,-2,-1,-1,0,-1
1513487033926116,-1,-1,-1,-2,-1,0,-1,-2
1513487033926116,-1,0,0,0,0,-1,0,0
1513487033942153,1,1,0,-1,1,0,-4,-2
1513487033942153,-2,0,-2,0,-1,-2,-1,0
1513487033944150,-1,-1,-3,0,-2,-2,-2,0
1513487033944150,-3,0,-1,-1,-1,0,-1,-2
1513487033965145,-3,-1,-1,-2,-1,-1,-4,1
1513487033965145,-1,0,-1,0,-1,0,0,-1
1513487033966144,1,-1,-1,0,-2,-1,1,-1
1513487033966144,-1,-2,-2,0,-1,-2,1,-3
1513487033978164,0,2,-1,-2,0,-1,1,-4
1513487033978164,0,-3,-1,-1,-1,1,-1,-2
1513487033987159,-1,-1,0,-1,0,-1,-2,-2
1513487033987159,0,-2,-2,-1,-1,-2,0,0
1513487034002170,-1,-2,-1,1,0,-2,-1,-2
1513487034002170,-1,-1,-2,0,-1,-1,-1,0
1513487034004190,-2,-1,0,-1,-3,-1,-2,-3
1513487034004190,-1,-1,-2,0,-2,-1,-2,0
1513487034024209,-1,-2,-1,-1,-1,0,-1,1
1513487034024209,-1,-1,0,0,-3,0,0,-1
1513487034040197,0,1,0,-1,0,0,2,1
1513487034040197,0,0,-2,-2,-2,-1,-2,-2
1513487034041208,-1,-3,-1,-2,-2,-3,-2,-2
1513487034041208,-1,-1,-1,-2,-2,-1,-3,1
1513487034047201,-1,-1,-2,-1,0,-3,-2,-3
1513487034047201,0,0,-1,-2,-1,-2,-2,-2
1513487034062226,0,-2,-3,-2,-1,-1,-1,0
1513487034062226,-3,-1,-1,0,-1,-1,0,-2
1513487034064213,1,0,-1,0,-1,0,-2,-1
1513487034064213,-3,-1,-1,-1,1,0,-2,1
1513487034084227,-2,-3,-1,-1,0,-3,-2,-2
1513487034084227,-1,0,-2,-3,-2,-2,0,-1
1513487034086244,-1,0,0,-2,-3,0,0,-1
1513487034086244,-1,-2,0,0,-2,-1,-2,-1
1513487034098298,-2,0,-3,-1,-1,-2,-2,-1
1513487034098298,0,-1,-1,0,0,-1,-1,-2
1513487034107293,-1,-1,1,-3,-1,0,-1,1
1513487034107293,0,-1,0,-3,-3,-2,0,0
1513487034122314,-2,0,-1,-1,1,-1,-1,-1
1513487034122314,-1,-1,-1,1,0,1,2,0
1513487034123313,-1,0,-1,-1,-1,0,0,1
1513487034123313,-1,-1,-2,-1,-1,0,-1,-2
1513487034144343,0,-2,-2,-1,-1,-2,0,-2
1513487034144343,-1,1,-3,-1,-1,0,-2,-1
1513487034146344,-3,-2,-1,-1,-1,-2,0,-2
1513487034146344,-2,-2,-2,-2,-1,0,-1,-1
1513487034158340,-2,0,0,0,0,-2,-2,0
1513487034158340,-1,-2,-1,1,-2,-1,0,-1
1513487034167344,-2,0,-2,0,-2,-1,-2,-2
1513487034167344,-1,-1,-2,0,0,-1,-1,-1
1513487034182345,-3,-1,-3,-1,-3,0,1,-1
1513487034182345,0,0,-2,-2,0,-1,0,0
1513487034183346,0,-1,-1,1,0,-3,-1,1
1513487034183346,-3,-1,0,-2,-1,-1,0,-2
1513487034204361,1,-3,-2,-2,0,-1,-3,1
1513487034204361,-1,-1,0,-2,-2,-1,-1,-1
1513487034204361,-1,-1,0,0,-2,2,0,0
1513487034204361,-1,0,-1,0,1,-2,-3,-2
1513487034226388,0,0,-2,0,-1,-2,-1,-2
1513487034226388,0,0,-1,-2,-2,-2,-1,-3
1513487034234395,0,-3,-2,-2,0,0,-1,-2
1513487034234395,-1,-2,-1,-1,0,-3,0,-1
1513487034241388,-1,-1,0,-1,0,-1,-2,-2
1513487034241388,0,1,-1,-1,1,0,-1,-1
1513487034242389,0,-1,-2,-1,-2,-1,2,0
1513487034242389,-1,-3,-1,-1,-1,-1,-1,1
1513487034263403,-2,-2,-2,-1,0,-1,-1,0
1513487034263403,-2,-2,-1,-1,0,-1,-1,-1
1513487034264407,-3,0,-1,-3,1,-2,-2,-2
1513487034264407,-1,-1,-2,1,-1,0,-4,-2
1513487034286420,-1,0,-1,0,-1,-2,0,0
1513487034286420,-2,-2,0,-2,-2,-1,-1,1
1513487034287430,-2,0,-1,-2,0,0,-1,-1
1513487034287430,0,-1,0,-1,-2,-2,1,0
1513487034301442,0,-1,-1,0,0,-3,-2,-1
1513487034301442,-2,1,-1,-1,1,-2,0,-1
1513487034302433,-2,-1,-3,-2,-3,-1,1,-1
1513487034302433,-1,-2,-1,-2,-1,-3,-2,-1
1513487034324448,-1,-1,-2,-2,-1,-1,-1,-2
1513487034324448,-2,0,-1,-1,-1,-2,-2,0
1513487034324448,-1,-2,0,-1,-3,-2,-3,0
1513487034324448,-1,0,-1,0,-1,-1,-1,-2
1513487034346488,1,-1,-1,-1,-5,-1,-1,1
1513487034346488,-1,-2,-1,-1,-1,0,-2,-3
1513487034347483,0,0,-1,-1,0,-2,-4,-1
1513487034347483,-3,-1,-3,-1,-1,-1,0,-2
1513487034361482,0,-2,0,-1,-1,0,-2,-1
1513487034361482,-1,-2,-2,-2,0,-1,1,-2
1513487034362483,-1,0,0,-2,-1,-1,2,-1
1513487034362483,0,-3,-2,-2,-2,-3,-3,0
1513487034383510,-3,-2,1,1,0,-1,-3,-1
1513487034383510,3,1,1,0,-2,1,0,-1
1513487034384493,-1,-1,0,0,0,1,-1,-1
1513487034384493,-2,-1,-1,-2,0,1,-2,-2
1513487034406520,0,-1,-1,-1,-1,-2,-1,0
1513487034406520,1,-1,-1,-2,-1,-2,1,0
1513487034407521,-3,-2,-2,0,-1,-2,0,-1
1513487034407521,0,-2,1,0,-1,-1,0,-2
1513487034421532,-2,-2,-1,0,-2,-1,-1,-1
1513487034421532,-3,-1,-2,0,-1,0,0,0
1513487034422531,2,-1,-1,-2,-1,-2,0,-2
1513487034422531,-3,0,-2,-1,-1,0,-3,1
1513487034443543,-2,-1,1,0,-2,0,-1,-1
1513487034443543,0,0,-1,-2,0,-1,-3,-1
1513487034444531,0,0,-2,0,-1,1,1,-1
1513487034444531,-1,-2,1,-1,-2,-1,0,-2
1513487034466563,1,-1,-2,-2,0,3,-2,-1
1513487034466563,-1,-1,-2,-2,-3,0,1,-1
1513487034467563,1,-2,-2,-1,-1,-3,-3,1
1513487034467563,-1,0,-3,-2,-1,-2,-1,-1
1513487034481557,-2,-1,-2,0,1,-1,-2,-1
1513487034481557,2,-1,0,0,-1,0,-2,-1
1513487034482559,-2,0,0,0,-3,-1,-1,-2
1513487034482559,0,-2,-1,-1,1,-1,-1,-1
1513487034503588,1,1,-2,-2,0,-1,-1,-1
1513487034503588,-1,0,-1,-2,-2,-1,-1,1
1513487034511601,0,-2,0,0,0,0,-1,0
1513487034511601,-3,-3,-2,0,-1,-1,-3,-1
1513487034534613,-3,-4,-2,-2,-2,-1,0,-1
1513487034534613,-1,-1,1,0,-1,-1,0,-1
1513487034535596,0,0,-2,0,-1,0,0,-1
1513487034535596,0,0,0,-1,-2,-2,-1,-1
1513487034541611,-1,-2,-1,0,-2,-1,0,-3
1513487034541611,-3,0,-2,0,1,-2,-2,0
1513487034542612,-1,-1,0,-1,-2,0,-1,0
1513487034542612,1,-2,-2,-1,-1,-1,-1,-1
1513487034563672,1,-1,-1,0,0,0,1,-1
1513487034563672,-1,0,-1,-1,-3,-1,0,0
1513487034564632,-1,-1,-2,-1,0,-1,0,-1
1513487034564632,-1,-1,-3,-1,-1,0,-1,0
1513487034586645,0,-2,-1,-1,-1,-2,0,0
1513487034586645,-1,-1,-2,-2,-1,-1,0,-1
1513487034586645,-1,-1,-1,-1,0,-1,0,-2
1513487034586645,-1,0,-2,-1,-1,-2,-1,-2
1513487034601643,-4,-2,-2,-2,-1,-1,-1,0
1513487034601643,0,-1,0,-1,-1,-3,0,0
1513487034601643,-3,-1,-1,-1,-2,-1,-1,-2
1513487034601643,-1,-1,0,-2,-2,0,-1,-3
1513487034623673,1,1,-1,-1,-1,-1,-2,-1
1513487034623673,0,0,-1,-3,-2,-2,-1,0
1513487034624658,-2,-1,0,-1,0,-1,-1,0
1513487034624658,1,-3,1,-1,-1,-4,-3,-2
1513487034646691,-1,-2,-2,-3,-1,-1,-2,0
1513487034646691,-2,-2,-2,-3,-1,2,0,-2
1513487034646691,0,1,0,1,-2,-2,-1,0
1513487034646691,-1,-2,-3,-1,-3,1,-2,-1
1513487034661702,-3,0,-1,-1,-1,-2,1,-2
1513487034661702,-2,-3,-1,-1,-1,0,-1,-1
1513487034661702,0,0,-1,-2,-2,-1,0,-2
1513487034661702,-1,-2,-1,-3,0,-1,-2,-1
1513487034683710,0,-2,-2,-1,-1,-1,-3,-3
1513487034683710,-1,1,-1,0,0,0,-1,0
1513487034684700,1,0,-1,-2,-1,-1,-1,0
1513487034684700,-2,-3,-1,-1,1,-2,-2,-2
1513487034706717,1,0,-1,-1,0,0,1,0
1513487034706717,0,0,0,-2,0,1,-1,0
1513487034706717,0,-5,0,-3,-3,-3,-1,0
1513487034706717,-2,0,-1,0,-2,-1,-2,-1
1513487034721737,-3,-1,0,0,-1,-2,-2,-1
1513487034721737,0,0,-2,0,-1,-2,-2,-1
1513487034721737,-2,1,-2,0,-2,0,0,-1
1513487034721737,-1,-3,-1,-1,0,0,-2,-1
1513487034743771,-1,-2,-3,-1,0,-1,-1,-2
1513487034743771,-1,0,-1,-1,-1,-2,-1,0
1513487034744744,-1,1,1,-1,-1,-1,1,0
1513487034744744,-2,-1,-2,-1,-2,-1,0,0
1513487034766768,-1,-1,-2,0,0,-2,-1,0
1513487034766768,0,0,1,-1,-3,-1,0,0
1513487034766768,-2,-1,-2,-1,0,0,-1,-1
1513487034766768,1,-3,-1,-1,0,-1,0,-1
1513487034789793,-2,-3,0,-1,-1,-2,-2,0
1513487034789793,1,-1,-3,-1,-2,-3,1,-1
1513487034790801,-1,-1,-1,-1,0,0,0,-2
1513487034790801,-2,-2,-2,-2,-1,-2,-1,-2
1513487034803828,-2,-3,-1,0,-1,0,-1,-3
1513487034803828,-3,-1,1,-1,0,0,-2,-2
1513487034804811,1,-1,-2,-2,-1,0,-1,0
1513487034804811,0,1,-1,0,-1,-1,-2,-2
1513487034826822,-1,0,-1,-2,-1,-2,-2,0
1513487034826822,-1,-1,-2,1,0,-2,0,0
1513487034826822,0,-2,-1,-2,-1,-1,-2,-1
1513487034826822,-1,-3,-1,-1,-2,-1,-2,-1
1513487034841832,0,0,-1,-3,-1,-2,-2,1
1513487034841832,0,-1,-1,1,-2,0,1,-1
1513487034841832,-2,0,-1,-1,0,-2,-1,-4
1513487034841832,-1,-2,1,-1,0,-1,-2,-1
1513487034865850,-1,-3,0,-1,0,0,0,-1
1513487034865850,-2,-1,-2,-3,-1,-1,0,-1
1513487034871854,-1,-1,-2,-1,-1,0,1,1
1513487034871854,-1,0,-2,-1,-2,0,-2,-3
1513487034886864,-1,0,-2,-1,-2,-1,0,-2
1513487034886864,-1,-1,-1,-1,-1,-2,-1,0
1513487034886864,-2,-1,-1,1,0,-1,-2,-2
1513487034886864,-1,-4,0,-1,-2,0,-1,0
1513487034900884,2,-1,-2,0,-1,0,-2,0
1513487034900884,-2,-2,-2,-1,-1,0,-2,0
1513487034901883,0,1,-1,-2,-2,-1,-1,-1
1513487034901883,-1,-1,-3,0,-1,-2,-2,-2
1513487034923893,-1,-2,-1,-1,0,-1,1,-1
1513487034923893,0,0,0,-1,-1,-1,0,-2
1513487034924891,0,-1,0,-2,-1,0,-2,-3
1513487034924891,-3,-2,0,-1,-1,0,-2,-2
1513487034945910,1,-2,-1,-2,-2,-2,0,0
1513487034945910,0,0,-2,1,0,-2,0,2
1513487034946907,-2,-1,-1,-2,-3,-2,-2,1
1513487034946907,0,-2,-2,-1,-1,-3,-2,-2
1513487034960944,-2,-1,-1,-2,-1,0,-1,-2
1513487034960944,-1,0,-1,-2,0,-1,2,-1
1513487034961917,0,-1,0,0,0,-1,0,0
1513487034961917,0,-2,-1,0,0,-1,-1,-1
1513487034983945,-4,-2,-1,-1,-2,-2,-2,-1
1513487034983945,1,2,-1,-2,-2,1,1,-1
1513487034984937,-1,-2,0,-2,-1,-1,1,-1
1513487034984937,-1,-1,-1,0,0,-1,0,-1
1513487035005963,0,0,-1,-2,-1,-1,-3,-2
1513487035005963,0,-2,-1,-1,-4,0,0,-3
1513487035006949,-1,0,-3,0,-1,-2,-3,-1
1513487035006949,-1,-2,-1,-1,1,-1,-2,1
1513487035020970,-3,-2,-1,1,-2,-1,0,0
1513487035020970,-1,3,-3,0,0,-1,0,-3
1513487035028975,-1,-1,0,-2,-1,0,0,-2
1513487035028975,0,-3,-1,-1,-1,-1,-1,-2
1513487035043989,-1,-1,-1,-1,-1,-2,-1,-1
1513487035043989,-1,-1,-2,0,-2,0,0,-1
1513487035044977,-3,0,-3,0,-1,-1,-1,0
1513487035044977,0,-1,-2,-1,-2,-2,0,1
1513487035067001,-2,-2,-1,-2,-1,-1,-1,-1
1513487035067001,1,0,-1,-1,0,0,0,-1
1513487035068002,-2,-1,-3,-3,-2,0,0,0
1513487035068002,-1,-3,0,-1,-2,-2,-2,-1
1513487035081040,1,-1,-2,0,-1,-1,1,-1
1513487035081040,-1,0,0,-2,-1,0,1,0
1513487035089024,0,-2,0,0,-2,-2,-1,-1
1513487035089024,-2,-2,-3,0,0,0,-3,-2
1513487035104030,-1,-3,-1,-1,-1,-2,-3,0
1513487035104030,0,-2,1,-1,-2,-2,-1,0
1513487035105030,0,1,1,-3,-2,0,0,0
1513487035105030,-3,-1,-1,-2,-1,0,-1,-1
1513487035126043,-1,-1,-3,1,1,0,-1,-2
1513487035126043,-1,-1,-2,-1,-2,-1,-1,-4
1513487035127043,-2,1,-3,2,-1,-1,-1,-2
1513487035127043,0,-1,0,-2,-1,-2,0,-1
1513487035150050,-2,-1,-2,-2,-2,-1,-2,-1
1513487035150050,-1,1,0,0,-1,-3,-1,0
1513487035150050,-2,-4,-1,0,-1,-1,-2,-3
1513487035150050,-2,0,-3,0,-1,-2,-1,-1
1513487035164099,-3,-2,-1,0,0,-1,-1,-2
1513487035164099,1,1,-1,-3,-2,-1,-1,1
1513487035165062,-2,0,1,-2,0,-1,0,1
1513487035165062,-2,-1,-1,-1,0,-1,-2,-2
1513487035187078,0,-3,-1,-3,-3,-1,1,-2
1513487035187078,-1,0,-1,-1,-1,1,0,-3
1513487035188077,2,-3,-1,0,-1,-1,-2,-2
1513487035188077,-1,-1,-1,-1,-2,-2,-2,1
1513487035201086,-1,0,0,-2,0,-2,1,-1
1513487035201086,-2,-3,-2,-2,-2,0,0,-1
1513487035209122,0,0,-2,-1,1,-1,-1,0
1513487035209122,-1,2,0,0,-2,-2,-1,-1
1513487035224124,1,-1,-3,-1,0,-2,-1,1
1513487035224124,-1,-2,-1,-1,-1,-2,-1,1
1513487035225104,-4,1,-1,-1,0,0,-3,-1
1513487035225104,0,-3,-1,0,-1,-2,-3,-3
1513487035247133,0,-2,-1,-2,-1,-1,-1,-1
1513487035247133,0,0,0,-1,-2,0,1,0
1513487035248134,0,-2,-2,-2,-1,-1,-2,0
1513487035248134,-3,0,-1,-3,0,-2,-1,-3
1513487035261139,0,-2,-1,-2,-1,0,-1,-1
1513487035261139,-4,-2,-2,-1,0,-3,-2,1
1513487035269144,-7,-2,-2,-1,-3,-2,-1,-1
1513487035269144,1,-1,0,-1,1,-1,-3,-2
1513487035284154,2,0,-1,-2,-2,-2,0,-1
1513487035284154,1,2,1,-1,-2,-3,-2,-1
1513487035284154,1,-1,-1,0,-1,-1,1,1
1513487035284154,-2,-3,0,-2,-2,-1,-1,-1
1513487035307173,0,-1,-1,0,-2,-1,-1,-1
1513487035307173,-2,-1,0,-1,-2,0,1,0
1513487035308174,3,-2,1,-1,-1,-2,-1,-2
1513487035308174,0,-4,-3,0,-1,-1,0,-4
1513487035330179,-3,0,-2,-1,-1,-1,0,-2
1513487035330179,1,0,0,0,-2,-1,-2,1
1513487035331180,-1,0,-1,-2,-2,0,-1,-2
1513487035331180,0,-3,-2,-1,-3,-1,-2,-3
1513487035344211,0,0,0,0,-1,-2,-2,1
1513487035344211,-1,-1,1,2,0,-3,-1,0
1513487035345198,1,-1,2,-3,-1,0,0,0
1513487035345198,-2,-2,-2,-1,0,-2,-2,-1
1513487035367204,-3,-1,-2,1,-2,1,1,-2
1513487035367204,2,1,-1,-2,-2,0,3,-1
1513487035368226,-1,-1,-1,0,0,-1,0,-3
1513487035368226,-3,-3,-2,-3,-2,-2,-2,0
