timestamp,emg1,emg2,emg3,emg4,emg5,emg6,emg7,emg8
1511773076300859,-2,-1,-1,-1,-1,-1,0,0
1511773076300859,-3,1,0,-1,-1,-3,0,0
1511773076308859,0,-2,-1,0,0,-2,0,-1
1511773076308859,-1,0,-2,-2,-2,-3,2,-1
1511773076324872,1,-1,-1,-1,-2,0,-2,0
1511773076324872,-1,-2,-1,1,-2,0,-1,-2
1511773076325870,1,-1,-1,-1,1,-1,-2,-2
1511773076325870,-2,-2,0,0,-2,0,0,-1
1511773076346884,0,-3,-1,-1,-1,-2,-2,-1
1511773076346884,-2,-1,-1,-3,-2,0,0,-2
1511773076347884,-3,-2,-1,-2,-1,0,0,-1
1511773076347884,-1,0,-2,-1,-1,-2,-2,-2
1511773076360896,-2,0,-1,0,-3,-2,-1,-1
1511773076360896,1,0,-1,0,-1,1,0,-3
1511773076368899,0,-1,-2,-2,0,-1,-1,-1
1511773076368899,-1,-2,0,-2,-1,-1,-3,-1
1511773076383911,-3,0,0,0,-2,-1,1,-1
1511773076383911,-2,-1,0,1,0,-1,-3,1
1511773076385911,0,-2,-1,-1,0,-1,0,-1
1511773076385911,0,0,-1,0,0,-1,0,0
1511773076406926,0,0,-1,-3,-1,-2,-2,-1
1511773076406926,-1,-2,-1,-1,-1,-1,0,-1
1511773076407927,-2,-1,-2,-1,-1,-2,-2,-1
1511773076407927,-2,-2,-2,-1,-2,0,-1,-1
1511773076419935,-2,-2,0,0,0,-1,0,-1
1511773076419935,-1,-1,0,0,-1,-1,-1,0
1511773076428944,-1,-1,-2,-3,-3,1,0,-2
1511773076428944,0,1,-2,-3,-1,-1,-3,-1
1511773076443968,-1,1,0,-1,-2,-1,-1,0
1511773076443968,-1,-2,0,-2,-1,-2,0,-1
1511773076445970,-1,-2,-1,-1,-1,0,-1,-1
1511773076445970,0,-2,-1,-1,2,0,-1,0
1511773076466980,0,0,-1,0,-1,0,1,-2
1511773076466980,-3,0,-1,-1,0,-2,-1,-3
1511773076467976,-3,-1,-2,-2,-2,-2,-1,-2
1511773076467976,-2,-1,-2,-1,-1,-1,-2,-1
1511773076480045,0,0,0,-3,-1,-1,-2,0
1511773076480045,0,-2,-1,-1,0,0,-1,-2
1511773076488985,0,-2,1,-1,0,0,0,0
1511773076488985,-2,-1,-2,0,0,-2,0,-1
1511773076512013,0,-2,-2,-2,-1,-1,-1,-3
1511773076512013,0,-1,-1,-2,-1,-2,0,-1
1511773076514015,-2,-2,0,-2,-1,-1,-2,1
1511773076514015,-2,0,0,-1,-2,-1,0,-1
1511773076527023,-1,1,-2,-2,-1,-2,0,-2
1511773076527023,-1,-2,0,0,-2,0,-1,0
1511773076528012,-1,-1,-1,0,-1,0,-2,-2
1511773076528012,-1,-3,-1,-1,-2,-1,-1,-2
1511773076549042,-2,-3,-1,1,-2,-2,-2,-2
1511773076549042,-2,-1,-1,-2,0,-1,0,-1
1511773076551064,-1,0,-1,0,-2,-3,0,0
1511773076551064,-2,0,0,-1,-1,-1,-2,-3
1511773076565037,-1,-1,-1,-1,-2,-1,-1,-2
1511773076565037,-2,-2,-3,-1,-1,0,0,0
1511773076566039,0,0,0,0,-1,0,0,-1
1511773076566039,-1,-3,0,-2,0,-2,-1,-2
1511773076586072,-2,-3,-1,-1,0,-1,-2,0
1511773076586072,-1,-1,-2,-1,-1,-1,-1,-1
1511773076594059,-1,-1,-2,-1,-1,-3,0,-2
1511773076594059,-2,0,-2,-1,0,0,-1,0
1511773076600064,0,-2,-1,-2,-1,0,-2,-1
1511773076600064,0,-1,0,-1,-1,-1,-2,-2
1511773076609071,-1,-1,-1,-1,1,0,-1,-1
1511773076609071,0,-1,-1,0,-1,-1,0,0
1511773076624101,-1,0,0,-1,-2,-2,-3,0
1511773076624101,-1,-1,-1,0,-2,-1,-1,-1
1511773076626085,-1,-3,-1,0,-1,-1,-1,-1
1511773076626085,2,-1,-1,-3,-2,-1,-1,0
1511773076647095,-1,0,-3,0,0,-1,0,0
1511773076647095,0,-1,0,0,-2,-3,-1,-1
1511773076648096,-1,-1,-1,0,0,-1,-1,-2
1511773076648096,-2,-2,-2,0,-1,-1,-1,-1
1511773076660105,-2,-3,-2,-2,-1,-1,0,-1
1511773076660105,-1,0,-1,0,-1,-1,-1,-1
1511773076669127,-2,0,-1,-1,-1,-2,-2,0
1511773076669127,-2,-1,-1,-1,-2,0,0,0
1511773076684153,-1,0,-1,0,-1,-1,0,0
1511773076684153,-1,0,0,-1,-1,-3,-2,0
1511773076686153,-1,-2,-1,-2,-1,-3,-1,-1
1511773076686153,-1,-2,-1,-1,-1,-1,-1,0
1511773076706137,-1,-2,0,-1,0,0,0,0
1511773076706137,-1,-1,-1,0,-2,-1,-1,-1
1511773076708139,-1,0,-3,-1,-1,-2,-1,1
1511773076708139,0,-1,-2,-1,0,-1,-1,-2
1511773076729169,0,-2,-1,0,-2,-1,0,-1
1511773076729169,0,-1,-1,-1,-1,-1,-2,-1
1511773076731157,-1,-2,-2,-2,-2,0,-1,-1
1511773076731157,-2,-2,-2,-1,-1,-3,0,-2
1511773076759176,-2,-1,-1,-2,0,-1,-1,0
1511773076759176,0,-1,-1,-2,0,0,0,-1
1511773076761177,-1,0,0,0,-1,-2,-1,0
1511773076761177,0,-1,0,1,-2,-2,-1,-1
1511773076766190,-1,-1,-1,0,-1,-1,0,0
1511773076766190,-2,-2,-1,-1,-1,0,-1,0
1511773076768181,-2,-1,-1,0,-1,-1,-1,0
1511773076768181,0,-1,0,-2,-1,-1,-1,-1
1511773076789197,-2,-1,0,-1,-1,0,-2,-3
1511773076789197,-1,-2,-2,0,-1,-1,-1,-2
1511773076790206,-1,-2,-1,-1,-1,-2,-1,-2
1511773076790206,-1,-1,0,-3,-1,-1,-3,0
1511773076804217,0,-1,-1,0,-1,-1,-1,-1
1511773076804217,-2,-1,0,-3,1,-2,0,-1
1511773076805209,0,-1,0,-2,-1,-1,1,-2
1511773076805209,0,-1,-2,-3,0,-2,1,-1
1511773076826231,-1,0,-1,-2,-1,0,-2,0
1511773076826231,-1,-1,-1,-1,-1,-1,-1,0
1511773076828224,0,-3,-1,-2,-1,-1,-2,-3
1511773076828224,-1,-1,0,-1,-1,-1,0,-1
1511773076849294,-1,-2,-2,-1,-1,-1,0,-2
1511773076849294,-2,-2,-2,0,-1,-2,-1,1
1511773076851240,0,-2,-1,0,-1,-1,0,-1
1511773076851240,-1,-1,-1,-1,-1,0,-2,1
1511773076863276,0,-2,-2,0,0,-3,-2,-1
1511773076863276,-1,-1,0,-3,-2,-1,0,-2
1511773076870281,-2,0,-2,0,-1,-1,-1,1
1511773076870281,0,-1,-1,-2,-2,-3,0,-1
1511773076886281,-2,2,0,1,-1,-2,-1,0
1511773076886281,-2,-1,-1,0,-1,0,0,-2
1511773076888266,1,-1,-2,-2,-2,-1,-1,-1
1511773076888266,-1,-1,-1,-1,0,-2,-2,0
1511773076909296,-1,-3,1,0,0,0,-1,0
1511773076909296,0,0,-2,-1,-1,-2,0,-2
1511773076911283,-1,0,-1,-2,0,-2,-1,-1
1511773076911283,-3,-2,-2,0,-3,-2,-1,-1
1511773076923303,-2,0,0,-3,-2,-1,-1,-2
1511773076923303,-2,0,-1,0,-1,-1,-2,1
1511773076930305,-1,-2,-1,-1,0,1,-2,-1
1511773076930305,-2,0,-1,-1,0,0,-1,-1
1511773076946319,0,-3,0,0,-2,0,-1,-1
1511773076946319,0,-2,-1,-1,-1,-1,-1,0
1511773076948309,-1,-1,-2,-2,-1,-1,0,0
1511773076948309,0,-1,-1,0,-2,-1,-1,-1
1511773076969352,-2,0,-1,-1,-1,-1,0,-2
1511773076969352,-1,-2,-2,1,-1,0,1,-1
1511773076970324,0,-3,-2,0,0,-2,-3,0
1511773076970324,0,0,1,-2,0,-1,-3,-1
1511773076983360,1,-2,-3,-2,0,-1,-1,-1
1511773076983360,-1,-1,-1,-1,-1,-1,-2,-1
1511773076990338,-1,-1,-1,0,0,-1,-1,-1
1511773076990338,-1,-1,-2,-2,-2,1,-1,0
1511773077006361,-1,0,-2,-2,0,-3,-2,-3
1511773077006361,0,-2,-2,-1,-2,-2,-2,-1
1511773077008350,-1,-1,-1,-2,0,-1,0,-2
1511773077008350,-2,-2,1,-1,0,0,0,0
1511773077028366,-2,1,-1,-1,-1,0,0,0
1511773077028366,-1,0,1,-1,-2,0,-1,0
1511773077036400,0,-1,-2,-1,-2,-1,-1,-1
1511773077036400,-1,-1,0,-2,-1,-2,-1,-2
1511773077043378,-2,-2,-1,-1,-1,0,-1,1
1511773077043378,0,0,-1,-1,-1,0,-1,-2
1511773077057401,0,0,0,-2,-1,1,-2,-3
1511773077057401,-1,-1,0,0,-1,-1,0,-1
1511773077074406,0,-1,-1,0,-1,-3,0,0
1511773077074406,-1,-1,-1,-1,0,0,0,-1
1511773077075399,-1,0,-2,-2,-2,-1,-1,0
1511773077075399,0,-2,-5,-1,-1,0,-1,-2
1511773077089421,0,0,-2,-1,-1,0,-2,-2
1511773077089421,-2,-2,-1,-1,-1,-1,-1,-1
1511773077090424,-1,0,-1,0,-2,-1,0,-1
1511773077090424,0,0,-2,-2,-2,-1,-1,-1
1511773077103441,-1,-3,1,0,-1,-2,0,-1
1511773077103441,-2,-2,-2,-1,-2,-4,-2,-1
1511773077117439,-1,-1,0,-1,0,-1,-1,0
1511773077117439,-2,-2,-2,-1,0,-2,0,0
1511773077126456,-1,0,-2,-1,-1,0,1,0
1511773077126456,-1,-1,-1,-2,-1,-1,-1,-1
1511773077128437,-1,-1,-2,-3,0,-1,-1,-1
1511773077128437,0,-1,-2,-2,-1,-1,-4,-3
1511773077149451,-2,0,-1,1,-2,-2,0,-3
1511773077149451,0,-1,0,-1,-1,-1,-1,-2
1511773077150452,1,-5,-2,0,-2,-2,-1,-2
1511773077150452,-2,2,-3,0,0,-1,-1,-1
1511773077163464,-1,0,-1,-1,-2,-1,-2,-1
1511773077163464,-1,-2,-1,-2,-2,0,0,-2
1511773077170467,-2,-2,-3,-2,-1,-2,-2,-1
1511773077170467,-1,-1,0,-2,-1,0,0,-2
1511773077186499,0,-2,-1,-2,0,-1,-1,-1
1511773077186499,-1,2,-1,1,-1,-2,-1,1
1511773077188489,-1,0,-1,-2,-1,-3,1,0
1511773077188489,-2,-1,0,0,0,-1,0,0
1511773077209513,-1,-1,-2,-2,0,-2,-2,-2
1511773077209513,-1,-2,1,-1,-2,-1,-1,-1
1511773077211495,-2,-1,-2,-1,-1,1,-1,-2
1511773077211495,-3,-2,-2,-2,-2,-2,-1,-1
1511773077222508,0,0,-2,-1,0,0,-1,-2
1511773077222508,-3,0,0,0,0,0,0,0
1511773077231512,-1,1,-1,0,-1,-1,0,-1
1511773077231512,1,-1,-2,-1,2,0,-3,-2
1511773077246577,-2,-2,-1,-3,-1,0,-2,1
1511773077246577,-1,-2,-2,-1,0,-1,-1,-1
1511773077248554,0,0,0,0,-2,0,-1,-1
1511773077248554,0,-2,0,0,-2,0,-1,-1
1511773077269535,-1,0,0,-1,0,0,-1,-2
1511773077269535,0,0,-3,-1,-1,1,1,-1
1511773077270536,-2,-3,-1,-1,-2,-1,-1,-1
1511773077270536,-1,-2,-1,-1,-2,-1,-1,-1
1511773077291551,0,-1,0,0,-3,-3,-1,1
1511773077291551,0,0,0,-2,-1,-1,0,-2
1511773077293554,0,0,-2,-2,0,-1,-1,-1
1511773077293554,-1,-3,-1,-1,-1,-1,1,0
1511773077306584,-2,-1,-3,0,-2,-1,-1,0
1511773077306584,-1,-2,-1,0,-1,-2,-1,-1
1511773077308564,-2,0,-1,-1,-2,-2,0,1
1511773077308564,-1,0,-1,0,-1,-1,0,-2
1511773077336604,-2,-1,0,0,0,-1,-2,-1
1511773077336604,-1,-1,-1,0,-2,-2,-2,-1
1511773077338606,-1,-2,-1,0,0,0,-1,-2
1511773077338606,0,-3,-1,-1,0,-1,0,-1
1511773077342608,-1,-1,-1,-1,-2,-1,0,0
1511773077342608,-2,0,-2,-2,1,-1,-1,0
1511773077351594,0,-1,0,-1,-1,-1,-1,-1
1511773077351594,-2,1,-1,-2,-1,-2,-1,-1
1511773077366620,-1,-2,-1,0,-1,-1,1,-2
1511773077366620,-1,-1,-1,0,-1,-2,0,-2
1511773077368617,0,0,-1,-3,0,-4,-1,-1
1511773077368617,1,0,-1,-1,-1,0,-1,-1
1511773077389623,0,-1,-2,0,0,-2,-1,-1
1511773077389623,0,-2,-1,-1,-1,-1,-1,-1
1511773077390628,-2,-2,-1,-1,1,-1,-3,-2
1511773077390628,-1,0,-3,-2,-1,0,-3,-2
1511773077402683,-2,-2,0,-2,-1,0,-1,-1
1511773077402683,-2,-2,-2,1,0,0,-2,-2
1511773077412636,0,-1,-3,-1,-1,-1,1,1
1511773077412636,-1,-1,0,0,-2,-2,0,-1
1511773077426662,0,-1,-3,-1,-1,-1,0,0
1511773077426662,-2,-1,0,-2,-1,0,-2,-2
1511773077428653,-1,-1,-1,0,-1,-1,-1,-1
1511773077428653,-1,0,-1,-1,-1,-3,-1,-1
1511773077448673,0,0,0,-1,-2,-1,0,-2
1511773077448673,-1,-2,-1,-1,1,-1,0,-1
1511773077450664,-1,-1,-1,0,-1,-1,-1,-1
1511773077450664,0,-1,-2,-1,-1,-2,-2,-2
1511773077462671,-2,0,-1,-1,-1,-1,-2,-1
1511773077462671,0,0,-1,-1,-1,-1,-2,1
1511773077471678,-2,-3,0,-2,-1,0,-1,-1
1511773077471678,-1,-1,-1,-1,-1,-1,1,0
1511773077486746,-1,-1,1,-1,0,0,0,-1
1511773077486746,-1,1,-1,-2,0,0,-1,-1
1511773077488690,-2,0,-1,-2,-1,-1,0,1
1511773077488690,-2,0,-1,-1,-1,0,-1,-1
1511773077508718,-1,-1,-1,-1,0,-1,-2,-3
1511773077508718,0,-1,-2,-1,-1,-1,0,-1
1511773077511715,1,-2,-1,-1,-1,-1,-1,-2
1511773077511715,0,-1,-1,-2,-1,0,0,-1
1511773077522731,-2,1,1,0,-2,-2,0,0
1511773077522731,0,-2,0,-1,0,-2,0,-1
1511773077531738,-1,-1,-1,-2,-1,-2,-1,1
1511773077531738,-2,-2,-1,-1,0,-3,0,-1
1511773077546732,-1,-2,-2,0,-1,0,-2,-2
1511773077546732,0,-1,0,0,-3,-2,-1,0
1511773077547732,-2,-1,-2,0,-2,-1,-1,-1
1511773077547732,-2,0,-1,0,-1,-2,0,-1
1511773077568764,-1,-2,-1,-2,-1,-1,-1,-3
1511773077568764,-1,0,0,-2,-3,-1,-3,-2
1511773077570750,0,-2,-2,-1,0,0,0,-2
1511773077570750,-2,-3,-2,-1,-1,-1,-2,1
1511773077582760,-1,0,-1,0,-1,-1,-1,-1
1511773077582760,-3,-1,-2,-1,0,0,-1,-1
1511773077591764,-2,-2,-1,-1,-1,0,-1,-1
1511773077591764,-2,-3,-1,-2,-1,1,1,-1
1511773077606782,-1,0,-2,-1,-2,-1,0,-1
1511773077606782,0,-1,-2,-1,-1,-1,0,0
1511773077608774,2,1,-2,-1,0,-2,-1,-2
1511773077608774,-1,-1,-1,0,-2,-2,-3,-1
1511773077628790,-2,0,-1,-1,-2,-1,-2,-1
1511773077628790,0,-2,-1,-3,-2,-3,-2,-1
1511773077630792,0,-1,0,-1,0,1,-1,-3
1511773077630792,1,-1,-2,-1,-2,-1,0,-1
1511773077658832,0,-1,-1,-2,0,1,-1,0
1511773077658832,-3,-2,-1,1,0,-1,0,0
1511773077660822,-3,-2,-2,-1,-2,-2,-1,-1
1511773077660822,-1,-2,-1,1,1,-2,-2,-2
1511773077666825,-2,0,-2,-1,-1,-3,-2,-1
1511773077666825,-1,-2,-1,-2,-2,-1,-1,-1
1511773077667817,0,0,-3,-1,-1,0,-1,0
1511773077667817,-2,-1,-1,-1,0,-1,0,0
1511773077688854,-1,-2,0,0,-2,0,-2,1
1511773077688854,0,0,0,1,0,0,-2,-2
1511773077690853,0,-2,-2,-3,-2,-1,-3,-2
1511773077690853,-1,0,-2,-1,-1,-1,0,-2
1511773077711871,-1,-3,0,0,0,-4,0,0
1511773077711871,-2,-1,-2,-1,-1,-2,0,-2
1511773077713850,-2,-1,-1,0,0,1,-2,-1
1511773077713850,-1,-2,-1,-1,-1,-1,-3,-1
1511773077726883,-1,-2,0,0,-1,0,0,-3
1511773077726883,-1,-1,-1,-1,-2,0,-1,-1
1511773077727860,-2,-2,0,0,0,-1,0,0
1511773077727860,0,0,0,-3,-1,0,-2,0
1511773077748875,1,0,0,0,0,-1,-2,-2
1511773077748875,0,-1,-2,-1,0,0,-3,-1
1511773077750877,-2,0,-2,-1,-2,0,0,-1
1511773077750877,0,1,-1,-1,0,-1,0,-2
1511773077771915,1,0,-2,0,-1,-1,-2,0
1511773077771915,-1,-8,-6,-2,-3,-1,-2,0
1511773077772892,-6,1,1,0,-2,-2,0,-1
1511773077772892,-1,-1,-1,0,-1,-1,0,-1
1511773077785925,-1,-3,-1,-2,-1,-1,0,-1
1511773077785925,-1,-1,0,-2,-1,-1,0,-1
1511773077792929,-1,0,-2,-2,-1,-1,0,-1
1511773077792929,-1,0,0,-1,-1,0,-1,-1
1511773077808917,-3,-2,-2,0,0,-1,-2,-2
1511773077808917,-1,1,-1,-2,1,0,0,0
1511773077810918,1,-2,0,-2,-1,-1,-1,-2
1511773077810918,0,0,-2,-1,-2,-2,-2,0
1511773077831932,0,0,-2,-2,-3,0,0,-1
1511773077831932,-1,1,-1,-1,-2,-2,-1,-4
1511773077832947,0,-1,-2,0,-1,-2,-1,0
1511773077832947,-1,-2,1,-3,-1,0,0,-1
1511773077845974,-1,-1,-1,0,0,0,-3,0
1511773077845974,-2,0,1,-2,1,-1,-1,-1
1511773077860011,-1,-1,-2,0,-2,-1,-2,-1
1511773077860011,-1,0,-2,0,-1,-2,-2,-2
1511773077868972,-3,1,0,0,0,-2,0,0
1511773077868972,0,0,0,-1,-1,1,0,0
1511773077870987,-1,-2,-2,-1,0,-2,-1,-1
1511773077870987,-2,-3,0,-2,-1,1,-1,-1
1511773077891986,-2,0,0,-2,-2,-1,0,0
1511773077891986,1,-1,0,-1,-1,-2,-1,-2
1511773077892976,0,-1,0,-2,-1,-1,-2,-1
1511773077892976,0,-2,-2,-1,-2,-2,-1,-1
1511773077905996,-1,-2,-1,-1,0,0,-1,-1
1511773077905996,-2,-1,-2,-1,-2,-1,-3,0
1511773077913023,0,-3,0,0,0,-1,-1,-3
1511773077913023,-2,-1,-1,0,-1,0,-1,0
1511773077929014,-1,-3,0,-2,-1,-1,0,0
1511773077929014,-3,-1,-2,-1,0,-1,1,-1
1511773077931004,-1,-1,-1,0,-1,-1,0,0
1511773077931004,0,1,-2,-1,0,0,0,-1
1511773077952072,0,-1,-2,-1,-1,-1,0,-1
1511773077952072,0,-2,0,1,-2,-1,-1,-1
1511773077953018,0,-3,-2,-2,0,-1,-2,0
1511773077953018,-2,-2,-1,-1,-2,-2,-1,-1
1511773077966041,-2,0,-1,0,-2,-1,-1,0
1511773077966041,-1,-2,-2,-3,-1,-2,-1,-2
1511773077973045,-2,-1,-3,-2,-1,-1,-1,-3
1511773077973045,-1,-2,-2,0,-2,0,-3,-1
1511773077989044,0,0,-1,1,0,-1,-1,-2
1511773077989044,0,-2,0,-1,-1,-1,-2,1
1511773077991046,0,-2,-1,-1,0,0,0,-1
1511773077991046,-1,-2,0,-2,-1,-3,-1,-2
1511773078012059,-1,1,-1,-1,-2,-1,-3,-1
1511773078012059,-1,1,-1,-1,-1,0,-1,-1
1511773078014060,1,1,-2,-2,-2,-1,-2,-1
1511773078014060,-1,-1,-2,-2,-1,-2,0,-2
1511773078026083,-1,-2,0,-1,-2,-3,-1,-1
1511773078026083,-2,-1,-2,0,0,-1,-2,-1
1511773078033096,-1,-1,-1,-1,-1,-1,1,1
1511773078033096,-3,-1,-2,-1,1,-3,-2,-2
1511773078049106,-1,-2,-2,-1,-3,-1,-2,-1
1511773078049106,1,-1,-1,-1,-1,-2,-1,-1
1511773078051100,0,-1,-2,-2,-2,-2,-1,-1
1511773078051100,-1,0,0,-1,-1,-2,-1,0
1511773078072103,-2,-1,1,0,0,0,-1,0
1511773078072103,-1,1,-2,-1,-2,-1,-1,0
1511773078073103,-2,0,-2,-1,-1,0,-1,1
1511773078073103,0,0,0,-1,-1,-1,-1,0
1511773078086134,0,0,-1,0,0,0,0,-2
1511773078086134,-2,-2,-1,-1,0,0,-1,-2
1511773078093139,-3,-2,-1,-1,-1,-1,0,-2
1511773078093139,0,-2,-1,-2,-1,0,0,-1
1511773078109138,0,0,-3,1,-1,-1,0,-3
1511773078109138,0,-3,0,-1,-1,0,0,-2
1511773078111130,0,0,-1,-1,-1,-2,-2,-1
1511773078111130,-1,0,-1,-2,0,0,-1,-3
1511773078139173,-1,-1,-1,-1,-1,0,0,0
1511773078139173,1,-1,-2,0,-1,-2,0,-1
1511773078141152,-2,-1,0,0,0,-2,-2,-1
1511773078141152,-1,-1,-2,1,-3,-2,1,-1
1511773078145168,-1,-2,0,-1,-1,-3,-2,-1
1511773078145168,0,0,-1,-1,-1,-1,-1,-1
1511773078154162,-2,-1,-1,-1,-1,1,0,-1
1511773078154162,0,-2,0,-1,0,2,-1,-1
1511773078169199,-1,-2,-1,-2,0,2,-1,-2
1511773078169199,-2,-1,-1,-2,-2,0,-1,-1
1511773078171174,0,-1,-1,-1,-2,-2,0,-1
1511773078171174,-1,0,-2,-1,-3,0,-1,-2
1511773078192195,0,0,-2,-1,-2,-2,-1,-2
1511773078192195,-2,-1,-2,-2,1,-2,0,0
1511773078193187,0,-1,-1,-1,0,-2,-2,-2
1511773078193187,-1,0,-1,-1,1,-1,0,-1
1511773078205206,-1,-1,0,-1,-2,-2,-2,0
1511773078205206,-2,-2,-1,-2,-2,-1,-1,0
1511773078214202,-1,-1,-1,-2,-1,-1,-2,-2
1511773078214202,-1,1,-1,-1,-3,-1,-2,-2
1511773078229224,-1,-3,0,-1,-2,0,-1,-2
1511773078229224,-1,-1,-1,-1,-1,0,-2,-2
1511773078231216,0,0,0,-1,-1,-1,0,-1
1511773078231216,-1,-1,0,-1,-1,-2,-2,-2
1511773078252251,-1,-1,-3,-2,-2,-1,1,0
1511773078252251,-2,0,-2,-1,0,1,-1,-1
1511773078254232,-1,-1,-1,-1,-1,0,-2,-1
1511773078254232,-2,-1,0,-1,0,0,-1,-2
1511773078274255,-1,-1,-1,0,-2,-2,0,-1
1511773078274255,-1,-2,-1,1,-1,-1,-2,-1
1511773078275247,0,-3,-3,-2,-1,1,-1,0
1511773078275247,-1,-2,-3,-1,-2,0,-3,-1
1511773078289271,0,-1,-2,0,0,1,-1,-1
1511773078289271,1,-1,-2,0,0,0,-1,-1
1511773078290256,-2,0,-3,0,-1,-1,0,-2
1511773078290256,-2,-1,-1,-2,-1,-3,1,0
1511773078312276,-1,-1,-1,-1,0,-1,-1,0
1511773078312276,-2,0,-1,-2,-3,-1,0,-1
1511773078314287,-1,-3,-1,0,-1,-1,-1,0
1511773078314287,-1,-2,0,-1,-1,-1,-2,1
1511773078325305,0,0,1,0,-2,0,-2,-1
1511773078325305,0,0,-1,-1,-1,1,-1,1
1511773078334312,0,0,-1,-3,-1,-1,0,-2
1511773078334312,-1,-1,-2,-1,-2,-1,-2,-1
1511773078349299,-2,0,0,-1,-1,-2,-2,-2
1511773078349299,-1,-2,-1,-2,0,-3,-2,-2
1511773078350298,-2,-2,0,-2,0,0,-2,0
1511773078350298,0,0,-1,0,-2,-2,0,1
1511773078371316,-2,-1,-3,0,0,-1,-1,0
1511773078371316,-1,-2,-1,-2,-3,0,-1,-2
1511773078373319,0,-1,-3,-2,-2,-1,-2,-1
1511773078373319,0,1,-2,-1,1,-1,-1,-2
1511773078385345,0,-1,2,-4,-2,0,-1,-1
1511773078385345,-2,-2,-2,0,-2,-2,0,-3
1511773078394329,-1,-2,-1,-3,-2,-3,-1,-2
1511773078394329,-1,-2,-2,1,-2,0,0,-2
1511773078409363,-1,1,-2,0,-1,0,0,-1
1511773078409363,1,-2,-1,-1,0,-2,-2,-1
1511773078411342,0,0,-1,0,-2,-1,-2,-1
1511773078411342,-2,0,0,-1,-2,-2,-1,-2
1511773078431395,0,0,-2,-1,-2,0,-1,-1
1511773078431395,-1,0,0,-1,-1,-1,-2,0
1511773078433395,-1,-1,-2,0,1,0,0,0
1511773078433395,-1,-1,0,-1,-1,1,0,1
1511773078445396,0,0,-1,1,0,-1,-1,0
1511773078445396,-2,-1,-2,-1,-1,-1,-1,0
1511773078454373,0,-1,-2,-2,-1,0,-2,-1
1511773078454373,0,-1,0,-2,-1,-1,-2,-2
1511773078469402,-1,-3,1,-2,-2,-1,-1,-2
1511773078469402,0,0,-1,-1,-1,-1,-2,-1
1511773078470387,0,0,-1,0,-2,0,-2,1
1511773078470387,-1,-3,-1,-2,-1,-3,-1,-1
1511773078491420,-3,-1,-1,-1,0,1,-1,-1
1511773078491420,0,0,-1,-2,-1,-1,0,0
1511773078493416,-2,-3,-1,-2,-1,0,-1,-1
1511773078493416,0,-1,-2,0,-1,-3,-1,-1
1511773078505423,-2,0,-2,1,-1,-1,-2,0
1511773078505423,-1,0,-1,-2,-2,0,0,0
1511773078514424,-1,0,-1,0,-2,-2,2,-1
1511773078514424,-1,-1,-1,-1,-2,0,-2,-1
1511773078529449,0,-2,-2,-1,-3,-2,0,-1
1511773078529449,-2,0,2,0,0,-1,1,0
1511773078531452,-1,1,-3,0,-1,-3,-1,-2
1511773078531452,0,0,-1,-1,0,1,0,-2
1511773078551462,-2,0,-1,0,-2,-1,-1,1
1511773078551462,0,-1,-2,-2,-1,1,2,-2
1511773078553442,0,-2,0,-2,-1,-2,-4,-2
1511773078553442,-2,1,-2,-1,0,-1,-1,-1
1511773078574457,-1,-1,-1,-1,-1,0,-2,0
1511773078574457,-1,-2,-2,-1,-1,-1,-3,0
1511773078575458,-1,-2,-2,0,0,-1,1,-1
1511773078575458,-1,-2,0,0,-2,0,0,-1
1511773078589467,0,-3,-1,-1,-1,-1,-2,-2
1511773078589467,-2,-1,-1,-1,-3,-1,-1,-1
1511773078590470,0,-1,-1,-1,-1,0,0,-1
1511773078590470,1,-2,1,-1,-1,0,-1,0
1511773078611534,-1,0,-1,-1,0,-1,0,0
1511773078611534,-1,0,-1,-1,-1,-1,-3,0
1511773078614496,-2,0,1,0,-3,-1,-1,-1
1511773078614496,-1,-2,0,0,0,-1,-1,-1
1511773078634501,-2,-1,0,-2,-1,-3,-1,-1
1511773078634501,-1,1,-1,-1,0,-2,-2,-3
1511773078635502,-4,0,-2,-2,0,-1,-1,0
1511773078635502,-1,0,-2,-2,-2,0,-2,0
1511773078648528,0,-1,0,-2,-1,-2,-1,1
1511773078648528,1,-2,-2,-1,-2,-3,-2,-1
1511773078650520,0,-2,-2,-1,-2,-1,-2,0
1511773078650520,0,1,-1,-2,-1,-2,0,-2
1511773078671541,-1,-1,-2,0,-1,0,-2,-1
1511773078671541,-2,0,0,1,-2,-1,-1,-2
1511773078673538,-2,-1,-1,-2,-1,0,-1,-2
1511773078673538,-2,-1,-3,-1,-1,-1,0,-1
1511773078693564,-2,0,1,-2,-1,0,0,-2
1511773078693564,0,-2,-1,0,0,-1,-1,-1
1511773078695542,-1,-2,0,-1,0,-1,-2,0
1511773078695542,0,-1,-1,-1,-1,-1,0,-2
1511773078708564,-1,1,-1,0,-1,-1,-1,-1
1511773078708564,-2,-2,-3,-2,-2,-2,1,-2
1511773078710558,0,0,-2,-1,-1,0,-2,-2
1511773078710558,0,-3,1,0,-2,-2,-1,-1
1511773078731590,-1,-1,1,-1,0,-1,0,-1
1511773078731590,0,0,-1,-2,-2,-1,0,0
1511773078733570,-1,0,-1,-1,-2,-2,1,-1
1511773078733570,-2,0,0,0,0,0,-1,-1
1511773078754584,-2,-1,-2,-1,0,-1,-3,0
1511773078754584,-1,-1,-1,-2,-1,1,-2,-2
1511773078755584,0,-2,-1,-3,-1,1,1,0
1511773078755584,-1,-2,-2,-1,1,-1,-2,-2
1511773078768609,-2,-2,-2,-1,0,-3,0,-1
1511773078768609,-1,0,-1,-2,0,0,-1,0
1511773078775609,-1,1,-2,-1,-2,-1,-2,-2
1511773078775609,-2,1,-1,-1,-2,-1,-1,0
1511773078791620,0,-2,1,0,-1,0,-1,-1
1511773078791620,-1,-1,-2,-2,-1,0,-1,0
1511773078792611,-2,-1,0,-2,-2,-3,-1,-1
1511773078792611,0,-2,-2,-3,0,-2,-2,-1
1511773078813647,-1,-2,-2,0,-1,-2,-1,-1
1511773078813647,-2,0,0,0,-1,-1,-2,0
1511773078815627,0,0,-2,-1,-1,-1,-2,-2
1511773078815627,0,0,-2,-1,-2,-2,-1,-1
1511773078828646,-2,-2,-1,0,-2,-1,0,-1
1511773078828646,-1,-1,-2,0,0,-3,-2,-1
1511773078835641,-1,-1,-2,-1,-1,-1,-2,0
1511773078835641,-3,0,2,-1,-2,1,0,0
1511773078851669,-1,-1,-1,-1,-2,0,-3,1
1511773078851669,-1,-1,-2,-3,-1,-2,0,0
1511773078853663,0,-1,-1,-2,1,-3,-3,0
1511773078853663,-1,-2,0,2,-2,0,-2,-2
1511773078873683,-1,-1,0,-1,0,-1,0,-1
1511773078873683,0,-1,-1,-2,-2,-3,0,-1
1511773078875669,-1,0,-1,-2,-2,0,0,-1
1511773078875669,-1,-1,0,0,-1,-2,-2,-1
1511773078888690,-2,-1,0,0,0,-1,-1,-1
1511773078888690,-2,-1,-2,-1,0,1,-1,-1
1511773078895683,-1,-1,-1,-1,1,-1,0,0
1511773078895683,-1,-1,-2,-1,0,-3,-1,-1
1511773078911718,0,-2,-2,-1,-1,-2,-1,-3
1511773078911718,1,-1,-1,0,1,-1,-1,-3
1511773078913697,-1,-2,-2,0,-2,-1,0,-2
1511773078913697,-2,0,0,0,-1,0,-1,0
1511773078933713,0,0,-1,-1,-1,-1,-1,-1
1511773078933713,-1,-1,0,-1,-1,-2,-1,-1
1511773078935713,-1,-2,0,0,-1,0,-1,0
1511773078935713,0,-2,0,-1,0,-1,-1,0
1511773078948742,0,-1,-2,-1,-1,-1,1,0
1511773078948742,-1,-1,-2,-1,-2,-1,-2,0
1511773078955726,-1,-1,-1,0,1,-2,-2,-2
1511773078955726,-1,-3,-2,-1,-1,-1,0,-1
1511773078971744,-1,-2,-2,-1,-2,0,-1,-3
1511773078971744,-1,-2,0,-2,-1,-1,0,0
1511773078973739,-2,-2,-2,-2,0,-1,-1,-1
1511773078973739,0,0,-1,0,-1,0,-1,-1
1511773078993777,-1,-1,0,-1,-1,-2,-1,0
1511773078993777,-1,-2,-1,-1,-1,-1,0,0
1511773078995760,-1,0,-2,-1,-1,-1,0,-2
1511773078995760,-3,0,-1,-1,-1,0,0,2
1511773079008771,-2,0,-1,-2,-2,0,-2,0
1511773079008771,0,-1,-3,0,-3,-1,0,-2
1511773079014779,-1,-2,-1,-1,-1,0,-1,-1
1511773079014779,-2,-1,-2,-1,1,1,-1,-3
1511773079031792,-1,0,0,0,-1,0,0,-1
1511773079031792,-1,-2,-2,1,0,-1,-1,-2
1511773079032779,0,-1,-2,0,-2,-2,0,-1
1511773079032779,-2,0,-1,-1,-1,-3,-2,0
1511773079053817,-1,-1,-2,-1,-1,-2,-1,-1
1511773079053817,0,-2,-1,0,-1,-1,-1,1
1511773079055799,0,-1,0,-2,-2,-1,0,-1
1511773079055799,-2,-1,0,-2,1,-1,0,-1
1511773079067824,0,0,-1,-2,-2,0,-1,-2
1511773079067824,-1,-1,0,-1,0,0,-1,-1
1511773079076812,0,-1,-2,-1,-1,-2,-2,-3
1511773079076812,1,-2,-1,-1,-2,-1,-2,0
1511773079091835,-3,-1,0,1,0,-2,-1,-1
1511773079091835,-1,1,-1,-2,-2,1,-1,-1
1511773079092824,-1,-2,-1,-2,0,-3,-1,-1
1511773079092824,-1,0,0,0,-2,-1,0,-2
1511773079113848,1,-2,-1,-1,-2,-1,0,0
1511773079113848,-2,-2,0,-3,-1,-1,-2,-2
1511773079115850,-1,0,-1,0,-1,-1,-2,-1
1511773079115850,0,-1,-1,0,-2,-2,-2,-1
1511773079127859,0,-1,-1,-2,0,-1,-1,-1
1511773079127859,-1,-1,-1,-2,-1,-2,0,0
1511773079136857,-1,-3,-1,-2,-1,0,-1,-1
1511773079136857,0,-2,-1,0,-2,-1,-2,-1
1511773079151915,-1,0,-2,0,-2,-1,1,-1
1511773079151915,0,-2,-2,-2,0,-1,-2,-1
1511773079152867,0,0,0,-1,-2,0,-1,-1
1511773079152867,0,-1,0,-1,0,0,0,-2
1511773079173895,-1,-2,-1,-3,-1,-1,-1,0
1511773079173895,-1,-1,-2,-2,-3,-3,-1,0
1511773079175896,-1,-2,-2,0,-2,-2,-1,1
1511773079175896,-2,-1,-1,0,0,0,-1,-1
1511773079187898,0,-1,0,1,0,-1,-3,-2
1511773079187898,-2,0,0,-1,0,-2,-1,2
1511773079196897,-2,1,-2,-1,-1,-2,-1,-2
1511773079196897,-2,0,-1,0,-1,0,-1,-1
1511773079211907,-1,0,-1,-1,-1,0,-1,0
1511773079211907,-2,-1,1,-1,-1,0,-1,-1
1511773079212908,-1,-2,0,-1,-1,-1,0,-2
1511773079212908,0,-3,-2,-3,-3,-1,-1,-1
1511773079233945,-1,1,-1,-1,-1,1,0,-1
1511773079233945,-1,-2,-2,-1,-1,-2,-1,-1
1511773079235928,0,0,1,-1,0,-1,-1,0
1511773079235928,-1,-2,0,-1,-1,-3,-1,-2
1511773079247987,-1,-1,-1,-1,0,-1,-2,-1
1511773079247987,-1,-2,-1,-1,-1,-1,1,-2
1511773079256948,-1,-1,-2,0,0,-1,0,-2
1511773079256948,1,-2,-1,-1,-2,-1,0,0
1511773079271961,-1,0,-1,-2,0,-3,-2,-1
1511773079271961,-1,0,-1,-1,-2,-1,0,-1
1511773079272952,0,-1,-1,0,0,-1,-2,0
1511773079272952,-2,0,-1,0,-1,-2,-1,-1
1511773079293969,-2,-2,-1,-1,-2,1,-1,0
1511773079293969,0,-2,-2,-1,-1,-1,0,-2
1511773079295967,-3,-1,-1,-2,1,-1,1,-1
1511773079295967,-1,0,-2,-2,0,-1,-1,-1
1511773079307990,-1,0,0,-2,0,-3,-3,-2
1511773079307990,-1,0,-1,-1,-1,0,-2,0
1511773079316991,-2,-1,-3,0,0,-1,-2,0
1511773079316991,-2,0,0,-1,-1,-2,0,-1
1511773079331001,-1,0,-1,0,-2,-2,-2,-1
1511773079331001,1,-1,-1,0,0,-2,-1,-2
1511773079332991,-1,-1,0,-2,-3,0,0,-1
1511773079332991,-1,-1,-2,-1,-1,-1,-1,-1
1511773079354029,0,-3,-2,-1,-1,1,1,0
1511773079354029,0,-1,-2,-1,0,-1,-2,0
1511773079356029,-1,0,-1,-3,-1,-1,-2,0
1511773079356029,-1,0,-2,0,0,-2,-3,-2
1511773079368028,-2,-1,-2,-2,0,0,1,-1
1511773079368028,-2,-1,-2,-1,0,-1,-1,-1
1511773079377026,0,-1,-1,-1,-1,-1,-2,0
1511773079377026,0,0,-1,-1,-1,-1,-2,0
1511773079391051,-1,-1,0,0,-3,0,0,0
1511773079391051,0,0,-1,-2,1,-2,-1,0
1511773079393035,0,-2,-2,1,-1,-1,-1,-1
1511773079393035,-1,-1,0,-2,-2,-2,0,0
1511773079414070,-1,-2,-2,0,-1,-1,0,-1
1511773079414070,-1,1,-1,-1,-2,1,1,-3
1511773079416050,0,0,-1,-1,-1,-1,-1,-2
1511773079416050,-1,-1,0,0,0,-2,-1,-1
1511773079428079,-1,-2,-1,-2,-1,0,-1,-1
1511773079428079,-3,-3,0,-3,-3,-3,-2,-2
1511773079437070,-1,0,-1,-1,0,-2,-1,0
1511773079437070,-1,-1,-1,0,0,-1,0,-1
1511773079451100,1,0,-1,-2,0,-2,-1,0
1511773079451100,0,-1,-2,-1,0,-1,-2,0
1511773079453080,-1,0,0,0,-2,0,1,-2
1511773079453080,-1,0,0,-2,-1,-1,0,0
1511773079474092,0,0,-1,0,0,1,0,-1
1511773079474092,-1,-2,-2,0,0,-3,-1,-2
1511773079476094,-1,-2,-1,-1,0,-1,-1,0
1511773079476094,-2,-1,-1,0,-1,-1,0,-1
1511773079488101,-1,-1,-2,0,-2,-1,-1,-1
1511773079488101,0,-1,-1,-3,0,-1,-1,-2
1511773079497140,-2,-1,1,-3,-1,-2,0,-1
1511773079497140,-2,-1,-1,-2,-1,-1,-2,-1
1511773079511123,0,-1,0,-1,0,-1,-1,-1
1511773079511123,-1,-1,-1,-2,-1,-1,-2,2
1511773079514121,-2,0,-1,-1,0,-1,-2,-2
1511773079514121,-2,-1,-1,0,-1,0,0,-2
1511773079534192,-2,0,0,-1,1,-3,-2,-3
1511773079534192,1,-3,-1,1,-1,-1,-2,-1
1511773079536191,0,0,-1,-2,-2,0,0,-1
1511773079536191,0,-2,-1,0,-1,-2,-1,-2
1511773079556161,-2,0,-2,-1,-2,-3,-2,-1
1511773079556161,-2,0,-2,0,-1,1,0,0
1511773079556161,-1,-2,-2,-1,-2,-1,-2,0
1511773079556161,-2,-1,-2,-1,-1,-2,-2,-1
1511773079573183,-1,-3,-1,-2,1,-1,0,-2
1511773079573183,-1,0,-1,0,-1,-1,-1,-1
1511773079574166,-1,-1,-2,-1,-2,-3,-1,0
1511773079574166,0,-3,-2,-2,0,0,-1,0
1511773079593196,-2,-1,-2,-2,-2,-4,-2,0
1511773079593196,0,-2,-1,-2,-2,-1,1,-1
1511773079594197,-1,-1,-2,-1,1,0,0,0
1511773079594197,0,0,-1,1,0,0,0,0
1511773079616206,-1,-1,-3,0,0,-1,-2,-1
1511773079616206,-1,-2,-1,-1,0,0,-2,-1
1511773079617195,-2,-1,0,-2,-1,-2,-2,-2
1511773079617195,0,0,0,-1,-2,-1,-2,0
1511773079631217,-1,-1,0,-2,0,-2,-1,1
1511773079631217,-1,-1,-2,1,-1,-1,-1,-1
1511773079631217,0,0,-3,-1,-2,0,0,-1
1511773079631217,-1,-2,-2,1,-2,0,-1,1
1511773079653281,-1,0,-2,-2,-1,0,-1,-2
1511773079653281,-1,-1,0,-2,-1,-1,-1,-2
1511773079654220,-1,-1,0,0,-2,-2,-3,-2
1511773079654220,-2,-1,1,-2,1,-1,0,-2
1511773079676253,0,-1,-1,1,-1,0,-1,-1
1511773079676253,-1,-2,0,-2,-1,-2,0,-1
1511773079676253,-1,-1,0,0,-1,0,0,-1
1511773079676253,0,0,-1,-2,-1,-1,-1,-2
1511773079691245,-2,0,-1,-1,-1,-1,-1,0
1511773079691245,-2,1,-1,-2,-2,0,-2,-3
1511773079691245,-1,1,0,0,-1,-2,0,-1
1511773079691245,-1,-2,0,-1,-3,0,-2,0
1511773079713264,-1,-1,1,0,-2,-1,-1,-1
1511773079713264,1,0,-4,-1,-1,-2,-2,-1
1511773079714262,-1,-2,-1,-1,-1,-2,-1,-1
1511773079714262,-2,-2,-1,1,0,-1,0,-1
1511773079736276,-1,-2,0,-1,-1,-2,0,-2
1511773079736276,-2,-1,0,-1,-1,-1,-2,-1
1511773079736276,-1,-1,-2,-3,0,-1,-2,-2
1511773079736276,-2,0,0,-1,-1,-2,-2,-3
1511773079751289,0,-3,-1,-2,0,0,-2,0
1511773079751289,-1,-2,-2,0,0,0,-2,-2
1511773079751289,0,0,-1,-1,-1,0,-2,-1
1511773079751289,-1,-2,-1,-2,0,-1,-1,0
1511773079781332,-2,0,-1,-1,-1,0,0,-1
1511773079781332,0,-1,-1,-1,-1,-2,0,-2
1511773079782309,0,-2,1,1,-2,-1,-1,-1
1511773079782309,-1,-2,0,-1,-2,0,-1,-1
1511773079796318,-1,-2,-1,-1,-1,1,0,-2
1511773079796318,0,-1,0,-2,-1,0,-2,0
1511773079796318,-2,0,-1,-1,-1,-1,1,0
1511773079796318,-1,-3,-1,-1,-1,0,-1,0
1511773079811351,-1,-1,-2,1,0,0,-2,-1
1511773079811351,-3,-1,0,-1,-2,-2,-1,0
1511773079812331,-1,-1,-1,-2,1,-2,-1,-2
1511773079812331,-1,0,-1,-2,0,0,0,-1
1511773079833365,-1,0,-1,-2,-3,-2,0,0
1511773079833365,-1,-2,-1,-1,-2,-2,-1,-1
1511773079834349,-1,-2,-1,-4,-2,-1,-1,-1
1511773079834349,-1,-1,0,0,-2,0,-1,0
1511773079856361,0,0,-1,-2,-1,0,-1,-1
1511773079856361,-2,-1,-2,0,-1,-1,-1,-1
1511773079856361,-2,-1,-2,-1,-2,-2,-2,-1
1511773079856361,0,0,-3,1,0,-2,-3,-2
1511773079870391,0,-1,-2,-1,-1,-1,1,-1
1511773079870391,0,-1,-2,-1,0,0,0,0
1511773079871373,-2,-2,-1,0,-1,0,-2,-1
1511773079871373,1,-3,-2,-1,0,-2,-1,-1
1511773079893397,-2,-2,-2,-2,-2,-1,-1,-1
1511773079893397,-1,0,-1,-3,-1,0,-1,-1
1511773079894388,0,-2,0,-1,0,-1,0,0
1511773079894388,-2,1,-1,0,-2,-2,-2,-1
1511773079915403,-2,-3,1,-1,0,-3,-2,-1
1511773079915403,-1,-2,0,-1,-2,-2,1,-3
1511773079916404,-1,-1,-2,0,-1,-2,-1,-1
1511773079916404,-1,-3,0,-3,-2,0,-1,0
1511773079930415,0,-2,-2,-1,-1,-2,-1,-2
1511773079930415,-1,-3,-2,-2,-1,0,-2,0
1511773079931414,-2,-1,-1,-1,-2,-1,-1,-1
1511773079931414,-1,0,0,-2,1,-2,0,-3
1511773079953430,0,0,-2,-1,-1,-2,-1,0
1511773079953430,0,-3,-2,0,0,-1,-1,-1
1511773079954431,-1,-1,1,0,-2,-1,-2,0
1511773079954431,-2,-1,-1,0,-2,-1,-1,-1
1511773079975457,-1,-2,1,-1,-1,0,0,-3
1511773079975457,-1,-1,-1,-2,-1,-1,0,-1
1511773079976446,-1,-1,-1,-1,-1,-1,0,-1
1511773079976446,1,-1,-2,-1,1,0,0,0
1511773079990466,-1,0,-2,0,-1,-3,-2,-1
1511773079990466,-1,0,0,-1,-3,-1,0,0
1511773079991474,-2,0,0,0,-3,0,-2,-1
1511773079991474,-3,0,-1,-1,-3,-2,-1,-2
1511773080013473,0,0,-1,0,-1,0,1,-2
1511773080013473,-2,-1,-1,0,-1,-3,-1,-2
1511773080014473,1,-1,0,0,-2,-1,-1,-1
1511773080014473,0,-1,-1,0,-2,-1,0,-1
1511773080035491,0,-1,-1,-3,0,-1,-2,0
1511773080035491,0,-2,-2,-2,-1,-2,-1,-1
1511773080036489,0,-1,-2,-2,1,-2,0,-2
1511773080036489,-1,-1,-2,0,0,-1,-2,-1
1511773080050559,0,1,-2,-2,-2,-2,-1,-1
1511773080050559,-1,0,0,-3,0,-2,0,-2
1511773080051503,0,-1,-1,-2,-2,0,-2,-1
1511773080051503,-1,0,-1,-2,-2,-1,-1,0
1511773080081521,-1,-1,0,-3,-2,-2,-1,-1
1511773080081521,-1,-1,-1,-1,-1,-1,-1,0
1511773080082521,-2,-2,-2,0,0,0,-1,-1
1511773080082521,0,0,0,1,0,-1,0,-2
1511773080096553,0,-1,0,-1,-2,-1,-1,0
1511773080096553,1,-2,-3,-2,-1,-1,-1,1
1511773080097542,-2,0,-1,0,-1,-2,0,-2
1511773080097542,-1,0,-1,-2,-2,0,-1,-3
1511773080110562,-1,-1,0,0,-1,0,-2,-1
1511773080110562,-1,1,0,0,0,0,-1,-1
1511773080118547,-1,-1,-2,-2,-1,-1,-1,-2
1511773080118547,-1,-3,0,-2,-2,-3,-1,-2
1511773080133580,-1,-2,-3,0,-1,0,-2,-2
1511773080133580,-3,-1,0,0,-1,-1,-4,0
1511773080134557,-1,0,0,-1,-1,-1,0,-2
1511773080134557,-2,0,-1,-2,0,-1,-2,0
1511773080155577,0,-1,-2,-2,-1,-2,0,-1
1511773080155577,0,0,-1,0,-1,1,-1,-1
1511773080156575,0,-1,-1,-2,0,-1,0,0
1511773080156575,0,-1,0,-2,-1,-2,0,0
1511773080170584,-2,-2,0,-2,-2,-2,0,0
1511773080170584,-1,0,-2,-1,0,-3,0,0
1511773080178609,-1,1,-1,-1,-3,-1,-2,0
1511773080178609,0,-1,-1,0,-1,-1,-1,0
1511773080193638,-1,-1,-2,0,-1,-1,-2,-1
1511773080193638,0,-2,-1,1,-2,-1,-1,-1
1511773080193638,-3,-1,-1,0,-2,-2,-1,-2
1511773080193638,-1,-2,-1,-1,-1,-2,-1,1
1511773080215626,-1,-2,0,-2,-1,-1,0,0
1511773080215626,-1,-1,-1,-2,-1,-3,0,-2
1511773080216616,0,-2,0,-2,-1,0,-2,-1
1511773080216616,-2,0,-1,0,-1,-1,-1,-2
1511773080229635,-2,-1,-2,0,-1,-1,0,-1
1511773080229635,0,-1,-1,-1,-3,-2,-2,-1
1511773080238632,0,-1,0,0,0,-3,-1,-2
1511773080238632,-1,-1,0,-2,-1,-1,-2,0
1511773080253696,0,1,0,-1,0,1,-1,1
1511773080253696,-1,0,-1,-1,-2,-2,0,0
1511773080253696,-1,-2,1,1,-2,-1,-2,-2
1511773080253696,0,-1,0,0,-2,-2,1,-2
1511773080275680,-2,-1,0,-1,-1,-1,-1,-2
1511773080275680,-1,-1,-2,-1,-1,0,0,1
1511773080276660,-1,-1,-2,-2,-1,-1,0,-1
1511773080276660,-1,-1,-1,-1,1,1,-2,-1
1511773080291670,-1,-2,-2,-3,-1,-1,-2,-3
1511773080291670,-2,-1,-1,0,-3,0,0,-2
1511773080298673,-1,0,-1,-1,-3,-1,0,2
1511773080298673,-1,0,-2,-1,-1,-1,-1,-1
1511773080313706,-1,-1,-3,0,0,-1,-1,-3
1511773080313706,-1,-1,-1,-4,1,0,-1,-1
1511773080313706,0,0,-2,0,-2,-1,0,-2
1511773080313706,-1,0,0,0,-2,-3,-1,0
1511773080335721,-2,-3,0,-2,-3,-2,-2,1
1511773080335721,0,-1,-1,-1,-1,-1,0,-1
1511773080336701,0,-1,0,0,0,-2,0,-1
1511773080336701,0,-1,-1,0,0,0,-1,-1
1511773080349721,0,-1,-2,-2,1,0,0,-1
1511773080349721,-1,0,-1,2,-3,-1,0,0
1511773080358761,-2,-2,0,-2,-2,-2,-3,-2
1511773080358761,-2,-2,-1,0,-1,0,-1,-2
1511773080373731,0,-2,-1,-2,0,0,0,-1
1511773080373731,-1,-1,-1,-1,0,0,0,0
1511773080373731,0,-1,-2,-1,-1,0,0,1
1511773080373731,0,-2,2,0,0,0,0,-2
1511773080395742,0,0,-3,-3,-2,-2,-2,-1
1511773080395742,0,0,-1,-2,1,-1,-2,-4
1511773080396746,-1,-1,-2,-3,-2,0,-1,1
1511773080396746,-3,-2,-2,-3,-1,0,0,-1
1511773080409766,0,0,-1,-1,-1,-1,0,-2
1511773080409766,-2,-2,-3,-1,-2,-2,-1,0
1511773080418765,-2,-2,0,0,0,-3,-1,-2
1511773080418765,-2,-1,-1,-2,-1,0,-2,-1
1511773080433769,-2,-1,-1,-1,-1,-1,-2,-1
1511773080433769,0,-2,0,-3,-1,-3,-2,-1
1511773080433769,-1,-1,0,-2,0,0,0,0
1511773080433769,-1,0,-2,-2,-1,-2,1,0
1511773080455799,-2,1,-1,0,-2,-2,-2,1
1511773080455799,0,0,-1,-2,0,1,-2,-2
1511773080456787,-1,-3,-2,0,0,0,-1,-1
1511773080456787,0,-2,-1,-1,-2,-3,0,-1
1511773080479819,0,-1,-2,0,0,-1,0,-1
1511773080479819,-1,0,-3,-1,-1,-1,-1,-2
1511773080479819,-1,1,0,1,-1,0,-1,-1
1511773080479819,-1,-1,-2,0,0,-1,-2,-1
1511773080493811,0,0,-1,0,0,-2,-2,-1
1511773080493811,-1,-1,-1,1,0,-1,-1,0
1511773080493811,-1,-1,-1,-2,-2,1,-1,-1
1511773080493811,0,-1,-1,-2,-2,0,-1,0
1511773080523849,0,-3,-1,-3,-1,0,1,-1
1511773080523849,0,-3,-2,-2,-1,-1,1,-2
1511773080524833,-1,-1,0,-1,-1,-1,-1,-1
1511773080524833,0,1,0,0,-1,-1,-1,0
1511773080538844,0,0,-1,-1,-2,0,0,0
1511773080538844,0,-2,-1,-3,-1,-2,0,-2
1511773080539845,-1,0,0,1,-1,-2,0,0
1511773080539845,-2,0,-1,-2,-1,-1,-1,-2
1511773080553854,-2,-2,-2,0,-1,-2,-2,-1
1511773080553854,-1,-2,0,-2,-2,-2,-1,-1
1511773080553854,0,0,-1,-2,0,0,-2,-1
1511773080553854,0,-1,-1,0,-1,-1,-1,-1
1511773080575869,0,-1,-1,0,-3,-1,-1,0
1511773080575869,-2,-2,-2,0,-1,0,-2,-2
1511773080576872,-1,-1,-2,-1,-2,-2,-2,-2
1511773080576872,-2,-1,0,0,-3,-1,-2,-3
1511773080598890,0,-1,-1,-3,-1,-2,-3,0
1511773080598890,-1,0,-2,-2,0,0,-1,-1
1511773080599888,-1,0,-2,-2,0,-1,-2,-2
1511773080599888,0,-2,-1,0,2,-1,-1,-1
1511773080613900,-1,-3,-2,0,-1,-1,-2,-3
1511773080613900,0,0,-1,-1,-1,0,-1,-1
1511773080613900,-3,-1,0,-1,-1,0,-1,1
1511773080613900,-2,-1,0,0,-3,-2,-1,0
1511773080635937,-1,0,0,-2,1,-2,1,1
1511773080635937,1,-1,-2,-1,-1,0,-1,0
1511773080636914,0,-1,0,2,-1,0,0,-1
1511773080636914,-2,-3,-2,-1,-2,-1,0,-2
1511773080658930,-1,-1,-1,-2,0,0,-1,-2
1511773080658930,-1,-1,0,0,-1,-1,-2,-1
1511773080659929,0,1,-2,-3,-2,-1,-2,-1
1511773080659929,0,-1,-1,-1,-2,-2,-2,-3
1511773080672979,-3,-3,-1,-2,-1,-2,-1,-2
1511773080672979,-1,0,0,0,-1,-2,-2,-2
1511773080673953,-2,-2,-1,-1,-1,-1,0,0
1511773080673953,-1,-1,-1,-1,-1,0,-1,-1
1511773080703975,0,0,-1,-1,-1,1,0,-2
1511773080703975,-1,-1,0,-1,-1,0,-1,-1
1511773080704961,-2,0,-1,0,0,-2,-2,0
1511773080704961,-1,-2,-1,-1,0,-2,-2,1
1511773080718984,1,0,0,0,-2,-2,0,-1
1511773080718984,0,-2,-1,-1,-1,-3,0,0
1511773080719972,0,-1,-1,0,0,-1,-2,0
1511773080719972,-2,-1,-1,-1,-1,-1,-2,0
1511773080733006,-1,0,-2,0,-1,0,-2,-2
1511773080733006,-1,0,-1,0,0,-2,-2,-1
1511773080733988,-3,-3,-3,-3,-1,-1,0,-1
1511773080733988,0,0,-3,1,-1,0,0,0
1511773080756014,-1,-1,-1,-2,0,0,-1,0
1511773080756014,-1,-2,-1,0,0,-3,-1,-1
1511773080756998,-1,-3,0,-1,0,-1,1,-1
1511773080756998,-1,-2,0,-1,-1,-2,1,-1
1511773080779030,0,-1,-1,-1,1,0,0,0
1511773080779030,-2,0,-1,-1,-2,-2,-1,-1
1511773080780017,0,1,0,-2,-2,0,-3,-1
1511773080780017,-2,-1,-1,-1,-1,-2,-1,-2
1511773080793035,-1,0,-1,0,-3,-2,0,-1
1511773080793035,-1,-2,-2,0,-2,-2,-1,-1
1511773080794023,-1,-1,-1,1,-1,-2,-1,-2
1511773080794023,0,-1,-3,-2,0,0,-2,-1
1511773080816051,-2,-1,-2,0,-2,-1,-1,-1
1511773080816051,1,-3,0,0,-1,1,0,1
1511773080817040,-1,0,-1,-2,-1,-2,0,-1
1511773080817040,0,-1,-1,0,1,0,1,-1
1511773080839056,-1,-2,0,-3,-1,-1,0,-1
1511773080839056,0,-1,-2,-2,-2,0,-2,-1
1511773080840056,0,-3,-2,-1,1,-1,0,-1
1511773080840056,0,-2,-2,-1,-2,-1,-1,-1
1511773080853088,0,-2,0,-1,-1,0,-3,0
1511773080853088,-2,-2,-1,1,-3,0,0,-3
1511773080854065,-2,-2,-1,-2,-2,-2,-1,-1
1511773080854065,-1,-2,-1,-1,-1,-2,1,-3
1511773080876091,-1,-3,-2,-2,-1,-2,0,1
1511773080876091,-2,-1,-1,-2,-1,-1,-2,-1
1511773080876091,0,-3,-1,-1,0,-1,-3,-2
1511773080876091,-1,1,0,-1,-2,0,-2,-2
1511773080899133,-1,0,0,0,-1,-1,-1,-1
1511773080899133,-2,-2,-3,-1,-2,0,0,-1
1511773080900113,-1,-1,-1,0,-1,0,-1,0
1511773080900113,0,-2,0,-2,-1,0,0,-1
1511773080913133,0,0,-2,0,-1,0,1,-1
1511773080913133,-1,1,-2,-1,-1,-1,-2,-2
1511773080914108,-1,-1,1,-1,-1,0,0,-1
1511773080914108,-1,1,0,-1,-1,-1,-1,-1
1511773080936148,-2,-2,-2,-3,-1,-1,-1,-2
1511773080936148,-1,-1,-1,-2,-1,0,-1,-1
1511773080936148,-1,2,-1,1,-3,0,-1,-1
1511773080936148,0,-1,-2,-2,-2,-1,-2,0
1511773080959198,-2,-2,-1,-3,-1,0,0,-2
1511773080959198,-2,0,-2,-1,0,-1,-1,1
1511773080960142,0,-3,-1,0,-3,-1,1,-2
1511773080960142,-3,-1,-1,-1,-1,-1,0,-2
1511773080973165,-2,1,-1,-1,1,-1,0,-3
1511773080973165,-2,-2,-1,0,-2,-1,-1,-1
1511773080974151,0,-2,1,-2,-2,-3,-2,-1
1511773080974151,0,-1,-1,-1,0,-2,-3,0
1511773080996173,0,0,-2,0,-2,-2,-1,-1
1511773080996173,-1,0,1,1,0,-1,0,-1
1511773080996173,0,-1,-1,0,-1,0,0,0
1511773080996173,-1,-4,0,0,-2,-2,-1,-1
1511773081019199,-2,-2,-2,-1,-2,-1,-3,1
1511773081019199,-1,-1,-1,-1,-1,-2,0,-2
1511773081020201,-3,0,-2,-2,-1,-1,-2,-1
1511773081020201,-1,-1,-1,-1,-1,-1,-1,0
1511773081033209,0,-2,-2,-2,0,0,-1,0
1511773081033209,-2,-2,0,-2,0,-1,0,-1
1511773081034193,0,0,-1,-1,0,0,0,-1
1511773081034193,0,-1,0,-1,-2,-1,-1,0
1511773081056217,-1,0,0,0,-2,-1,-2,-2
1511773081056217,-1,-1,-2,-1,0,1,-1,0
1511773081056217,-2,-1,-2,0,-1,-1,-2,-2
1511773081056217,-2,-1,-1,-1,-1,0,-2,0
1511773081079246,-2,-2,-3,-1,-2,-1,0,0
1511773081079246,0,-2,-1,-1,-3,-1,-1,-1
1511773081080231,0,1,-1,0,0,-2,-1,-1
1511773081080231,0,0,-1,-1,-1,1,-1,-1
1511773081093238,-1,-1,-2,-2,-1,-2,-2,-1
1511773081093238,-1,-1,0,-1,-3,0,-1,-1
1511773081101260,-1,-2,0,0,-1,1,-1,-1
1511773081101260,-1,-2,-1,0,-1,-1,0,-1
1511773081116251,-1,-1,-1,0,-1,-2,-1,0
1511773081116251,0,-1,-1,-2,1,-1,-1,-1
1511773081116251,0,-1,0,0,-2,0,0,-1
1511773081116251,-2,0,-2,-1,-1,-2,0,-1
1511773081139283,0,0,-1,1,0,1,0,-1
1511773081139283,-3,0,-1,0,-2,-2,1,-1
1511773081140268,-2,-2,-1,-1,-2,-2,-2,-1
1511773081140268,-1,-1,-3,-2,-1,-2,-1,-2
1511773081153279,-1,-1,-1,-1,-1,-2,-2,-1
1511773081153279,0,0,1,0,0,0,0,-2
1511773081161283,-2,1,-1,-2,0,-1,-1,0
1511773081161283,0,-3,-1,-1,0,-2,0,-1
1511773081176293,-1,-2,0,-2,-1,0,-2,-2
1511773081176293,-1,-1,-2,-1,-1,-1,-2,-1
1511773081176293,-2,-1,-2,-1,-3,0,-1,1
1511773081176293,-2,2,-1,-1,-1,-1,-3,-1
1511773081199332,-1,-1,1,-3,0,0,-1,0
1511773081199332,0,-2,-1,0,-2,-1,0,0
1511773081200310,0,0,-1,-1,-1,0,0,-1
1511773081200310,-2,-1,-1,-1,0,0,0,-2
1511773081212342,0,0,0,-1,-2,-1,-1,-3
1511773081212342,-1,0,-1,0,-2,-2,-1,-2
1511773081220335,0,-1,-2,-1,0,-2,0,0
1511773081220335,-1,-2,-2,-1,-1,0,-1,-1
1511773081236337,0,0,-1,-1,-1,-1,0,-2
1511773081236337,-1,-2,0,-2,-1,-2,-1,-2
1511773081236337,-1,-1,-2,-1,-1,-2,-1,-1
1511773081236337,-1,-1,0,-1,0,-1,-2,-2
1511773081259398,-2,-1,0,-1,-2,-2,-1,1
1511773081259398,0,1,-1,-2,0,0,-2,-2
1511773081259398,-2,-1,0,0,0,-2,-4,-1
1511773081259398,-1,-2,-1,-1,-2,-2,1,1
1511773081272364,-2,-3,-2,1,-1,-2,-2,1
1511773081272364,-1,-1,-2,-1,0,-1,-3,1
1511773081280369,0,-1,-2,0,-2,-1,-1,-2
1511773081280369,-2,-1,0,-2,-1,-2,0,-2
1511773081295388,-2,0,0,-1,0,-1,-1,-2
1511773081295388,-1,-2,-1,-2,-1,-1,-1,-1
1511773081296397,-2,-2,0,0,-1,-1,-1,-1
1511773081296397,0,-1,0,0,0,-2,0,0
1511773081319394,1,-1,-3,-2,-3,-1,-1,0
1511773081319394,-1,-2,-3,-2,-2,-3,-1,1
1511773081319394,-2,0,-3,-1,-1,-1,-1,-1
1511773081319394,1,-1,-2,-1,-1,0,0,-2
1511773081332424,-1,-2,0,-1,0,-2,-2,-1
1511773081332424,0,-2,-1,0,-1,-2,-2,0
1511773081340429,-2,-1,-1,-2,0,-2,-2,1
1511773081340429,-2,0,0,0,-2,-1,-2,0
1511773081356421,-1,-1,-1,-2,0,-1,1,-2
1511773081356421,-2,-2,-1,0,-1,0,-1,-3
1511773081356421,0,-1,1,0,-1,0,0,-1
1511773081356421,0,0,-2,-2,-2,-1,-1,1
1511773081379436,0,-1,-2,-1,-2,-2,-1,-1
1511773081379436,0,-1,0,-1,-2,-2,0,0
1511773081379436,1,-1,-1,0,0,0,0,-2
1511773081379436,-1,-2,-1,-1,-2,0,-1,-1
1511773081392447,0,1,-2,-2,-2,0,0,-2
1511773081392447,-1,0,-1,-1,1,-1,-1,-2
1511773081400476,-2,-1,-1,-2,-1,-2,0,-2
1511773081400476,-1,-2,-1,-2,0,-1,-1,-2
1511773081415484,-3,0,-2,-1,-1,0,-1,-2
1511773081415484,-1,0,-1,-2,-2,-1,-1,-1
1511773081416467,-1,-2,-1,0,-2,-1,-1,-2
1511773081416467,-3,-1,-1,-1,-1,0,-2,-1
1511773081439480,-1,0,-1,0,-1,-2,-1,1
1511773081439480,-1,-1,-1,-1,-2,-2,0,0
1511773081439480,-2,-1,-2,-1,-3,0,-2,-1
1511773081439480,0,-1,0,-1,-1,-2,-1,-1
1511773081461517,0,-2,-2,-1,0,-2,-2,-1
1511773081461517,-1,-1,0,-2,-2,0,-1,-1
1511773081462498,-2,0,-1,0,1,0,-1,0
1511773081462498,0,0,-1,-2,-1,0,-1,0
1511773081475521,-1,-3,-2,0,-1,-1,0,-1
1511773081475521,0,0,-1,1,-1,-2,-1,-1
1511773081476509,-1,-4,1,-1,-2,-1,0,-1
1511773081476509,-3,-2,-2,-1,0,-2,0,-3
1511773081499523,0,-3,-1,-1,-2,-1,-1,1
1511773081499523,-2,0,-1,0,0,-1,-1,-2
1511773081499523,1,1,0,0,-1,-2,-1,-1
1511773081499523,1,1,-1,0,-2,-1,-1,0
1511773081522538,-2,-1,-3,1,-2,-1,0,0
1511773081522538,-3,-2,-2,-1,-1,0,-1,-1
1511773081522538,-1,0,-1,-2,0,-2,-2,-1
1511773081522538,-1,0,-1,-2,-1,-1,-1,-2
1511773081535565,-2,0,0,-2,0,-2,-1,-3
1511773081535565,-1,-1,0,-1,-1,-3,0,-1
1511773081536548,0,-1,-3,0,-3,-2,0,1
1511773081536548,0,0,-1,-3,-1,-1,0,-1
1511773081566587,-1,-2,-2,0,-1,0,-1,0
1511773081566587,-1,-1,0,-1,-2,-1,-1,0
1511773081567573,-2,-2,-1,-3,-2,-1,-1,0
1511773081567573,0,-1,-1,0,-2,-2,-2,0
1511773081581598,-1,-2,0,-3,-1,0,-1,-2
1511773081581598,1,-1,-2,-1,0,-1,-1,-1
1511773081582593,0,-1,-1,-1,-1,-1,-2,-1
1511773081582593,0,-1,-1,-2,-1,-1,0,-1
1511773081595614,-1,1,0,-1,0,1,-2,-2
1511773081595614,0,-1,-1,0,-1,-1,-1,0
1511773081596590,-1,-1,0,0,-1,2,0,-1
1511773081596590,-1,-3,-3,0,-2,-2,-1,-1
1511773081618618,-2,0,-1,-2,-2,-1,0,-1
1511773081618618,-1,0,-2,-3,-2,1,-2,-2
1511773081620607,0,0,-1,0,-1,0,-1,-3
1511773081620607,-2,-1,-2,-1,-1,-1,0,-2
1511773081641634,1,-2,-1,-2,-3,-1,-2,0
1511773081641634,0,0,-1,-1,0,0,0,0
1511773081642623,-2,1,-3,-1,0,-2,-1,-2
1511773081642623,-2,0,-1,-1,-1,0,-1,-2
1511773081654647,-1,-3,-1,0,0,-1,0,-3
1511773081654647,-3,-2,1,0,-2,-2,-1,-2
1511773081664637,-1,-1,0,-2,-1,-2,-1,-1
1511773081664637,0,-1,-3,-2,-1,-2,-1,-1
1511773081678658,0,-1,-2,0,-2,0,-1,-2
1511773081678658,-1,-2,0,0,-2,0,0,-3
1511773081680649,0,-2,-2,0,-2,0,-1,1
1511773081680649,-1,-1,0,0,-1,-1,-2,-1
1511773081702664,-1,-1,0,0,-1,-1,0,1
1511773081702664,-1,-1,-2,-1,0,0,-2,-1
1511773081703665,-1,-2,0,0,0,0,0,-1
1511773081703665,-3,-1,-1,-1,0,0,0,-2
1511773081731685,0,0,-1,-2,-1,0,-1,-2
1511773081731685,-1,0,-2,-1,-1,-1,-1,-1
1511773081732687,0,0,0,-2,0,1,-2,-1
1511773081732687,0,1,0,-2,-1,0,-2,0
1511773081738691,-2,-1,1,-1,0,-3,-1,0
1511773081738691,0,0,0,-1,-1,0,0,0
1511773081740693,-1,-1,-1,-1,0,-1,0,-2
1511773081740693,-1,0,-1,-1,-1,-1,-3,0
1511773081761730,-1,-1,-2,-1,0,-1,-2,0
1511773081761730,-2,0,0,-1,0,-1,-2,0
1511773081762727,-1,-2,-1,1,-2,-1,-1,0
1511773081762727,-1,0,-1,-2,-2,-2,0,-1
1511773081774726,-1,-1,-1,-2,-1,-1,-1,-1
1511773081774726,0,-2,-2,-1,0,-1,-2,-2
1511773081783753,-2,-1,-1,-2,-1,0,-2,-1
1511773081783753,-2,-3,-1,0,-1,0,-1,0
1511773081798814,-1,-2,-2,-1,0,-1,-2,-3
1511773081798814,-1,0,0,0,-3,-1,1,-1
1511773081800817,-2,0,-1,-2,-1,-1,0,0
1511773081800817,-1,-1,-2,-1,-1,0,-2,0
1511773081821823,-1,-1,-2,-1,0,-1,-1,0
1511773081821823,-2,0,-2,-1,2,0,0,-2
1511773081822810,-1,-1,0,-1,-2,-1,0,0
1511773081822810,-1,-2,0,-1,-1,-1,-1,-2
1511773081834873,0,-1,1,-1,-2,-1,-1,0
1511773081834873,-1,-2,-2,0,-2,-3,0,-1
1511773081843823,0,1,-2,-1,-1,0,-2,-2
1511773081843823,0,-2,-2,-1,-1,1,-1,-2
1511773081858853,-2,-1,-2,0,-3,-1,-3,-1
1511773081858853,-2,-1,-2,0,-1,-1,-1,-1
1511773081866849,-1,-1,-1,0,-1,-1,-2,-2
1511773081866849,-1,-1,1,-1,-1,-1,1,-2
1511773081881904,-1,-1,-4,-1,1,-1,0,0
1511773081881904,-1,-3,0,0,-1,-1,-2,0
1511773081882852,0,-2,-2,-1,-1,-1,0,-2
1511773081882852,-2,-2,-1,-1,-1,-1,-1,0
1511773081895884,0,-1,-1,-2,-1,-1,-2,-1
1511773081895884,-2,-3,-2,-2,-2,1,-1,2
1511773081902889,-3,-2,-2,-1,0,-1,-1,-2
1511773081902889,0,-1,1,-1,-1,-1,-1,-1
1511773081918877,0,0,-1,-1,-1,-3,-1,-2
1511773081918877,0,0,0,-1,-3,-1,0,-1
1511773081920879,0,-1,-1,0,-2,-1,-1,-1
1511773081920879,0,-1,-1,0,-1,-1,-1,-2
1511773081941892,-2,-1,-1,-3,-2,-2,1,1
1511773081941892,-2,0,-2,-2,-1,-1,-1,-1
1511773081942893,0,-1,-1,0,-2,-1,-2,-2
1511773081942893,0,-1,-2,-1,-1,-1,0,-1
1511773081954929,-1,-1,-1,0,-1,-1,-1,-2
1511773081954929,-1,0,0,-1,-1,-1,-1,-2
1511773081963921,0,-2,-1,-1,-1,-1,0,0
1511773081963921,-1,-1,-2,-1,-1,-2,-2,-1
1511773081978933,-1,1,0,-1,-2,0,0,-3
1511773081978933,0,1,0,-1,0,-2,-3,0
1511773081980920,-1,-1,0,-2,0,-1,-2,0
1511773081980920,0,-1,-1,-1,-1,-1,-2,0
1511773082001968,-1,-1,-1,1,-1,-1,-2,-2
1511773082001968,-1,-1,0,-1,0,-1,-1,0
1511773082002950,-2,-1,-1,-1,-1,-1,-2,-1
1511773082002950,0,0,-2,-3,0,-1,0,-1
1511773082014945,-1,-2,-2,-2,-1,-1,0,2
1511773082014945,0,-1,0,-1,0,1,-1,-2
1511773082023952,1,-1,-2,0,1,1,-1,-1
1511773082023952,-2,-1,-1,-1,-2,0,-2,-1
1511773082038961,-1,-1,-2,0,-2,-1,1,-1
1511773082038961,0,-2,-2,-1,-1,0,0,-1
1511773082040963,-1,-1,-1,0,-1,-2,-1,-1
1511773082040963,0,0,0,-1,-2,-2,-1,0
1511773082061977,0,-2,1,-3,-2,-1,-2,0
1511773082061977,-1,-3,-1,-1,-2,-1,-2,0
1511773082062977,0,1,-1,-1,0,-1,-1,-2
1511773082062977,-1,1,-1,-2,-2,-2,0,1
1511773082074986,0,0,-2,0,0,-1,-2,-1
1511773082074986,-1,-2,-1,0,-2,0,-2,-1
1511773082083994,-1,-3,1,-2,-3,0,0,-1
1511773082083994,-1,-2,-2,0,-1,0,-1,-2
1511773082099028,-1,-1,-2,-2,-1,0,0,-1
1511773082099028,0,1,-1,-1,-2,0,-1,-2
1511773082101019,0,-1,0,-1,-2,-1,-2,-1
1511773082101019,-1,-1,-2,-2,0,-1,-1,-1
1511773082122043,-1,-1,1,0,-2,-3,-1,-2
1511773082122043,1,-1,1,0,-1,-1,0,-2
1511773082123021,-1,0,0,1,-2,-1,0,0
1511773082123021,0,-2,-1,-1,-2,-1,-1,-1
1511773082135049,1,-1,0,0,0,0,-2,0
1511773082135049,-2,0,-1,0,-1,-1,-1,0
1511773082144039,-1,-2,-1,0,-3,-3,0,-2
1511773082144039,1,-3,0,-1,-1,-1,0,0
1511773082159046,1,0,0,-2,0,1,-2,-3
1511773082159046,-1,0,0,-2,-1,-3,-2,-2
1511773082161047,-2,-1,-2,-1,0,-1,0,0
1511773082161047,0,-2,-1,-1,-1,0,-1,-1
1511773082181062,-1,-1,-2,-1,0,-2,-3,0
1511773082181062,-1,-2,-2,0,-2,-1,-4,0
1511773082183062,-1,-1,-2,-2,-3,-2,-1,0
1511773082183062,-1,0,-2,-2,-1,-2,-2,-2
1511773082195084,0,0,-2,-1,0,-1,-2,-1
1511773082195084,-2,-2,-2,0,-1,-2,1,-1
1511773082204078,-1,-1,-1,0,0,-1,0,-2
1511773082204078,-2,-1,-1,0,-2,0,-1,0
1511773082219088,-1,-2,-2,0,-2,1,0,-2
1511773082219088,-1,-1,0,-2,-1,0,-2,-2
1511773082220089,0,0,-2,-1,-1,1,-2,-1
1511773082220089,-1,1,0,-1,0,-2,-1,1
1511773082241103,0,-2,-3,-1,-2,2,-1,-1
1511773082241103,0,-1,-1,-2,-2,-2,-1,-2
1511773082243113,-2,0,-1,0,0,-2,-2,0
1511773082243113,-1,-3,-1,-2,0,-2,-3,-1
1511773082255136,-2,-2,-1,-2,-2,0,2,-2
1511773082255136,-2,0,-2,-2,-1,-3,0,0
1511773082264120,1,-1,0,-2,-2,0,-2,-2
1511773082264120,-2,-1,-1,-1,0,-1,-1,-1
1511773082279131,-2,-1,0,-1,-1,-1,-1,-2
1511773082279131,-1,-1,0,-1,1,0,0,-1
1511773082280131,-1,-2,1,-1,-1,0,-1,-1
1511773082280131,-2,-1,-3,2,-2,0,0,-1
1511773082302169,-2,1,0,-1,0,-1,-1,0
1511773082302169,-1,0,-1,-1,0,1,0,-1
1511773082303159,-1,-1,0,-1,-2,-2,0,0
1511773082303159,-1,0,-1,-3,0,1,-2,-2
1511773082315156,-2,-2,0,-1,0,-2,0,-1
1511773082315156,-1,-1,0,0,-2,-1,-2,0
1511773082324162,-1,1,-2,-1,0,-1,0,1
1511773082324162,0,-1,-2,-1,-1,-2,0,-1
1511773082339228,-3,0,-2,-2,-1,-3,-2,-2
1511773082339228,0,-1,-1,-1,-1,-2,0,0
1511773082340174,-2,-2,-1,-2,-2,1,-1,-1
1511773082340174,0,-3,0,-1,-1,0,-1,-2
1511773082361211,0,-1,-2,-1,-1,-1,-2,0
1511773082361211,-1,0,-1,0,-1,-1,0,-1
1511773082363202,-2,0,-3,-3,-1,0,0,-2
1511773082363202,0,0,-2,-2,-1,-1,-1,-2
1511773082384273,-1,-2,-1,-2,-1,-1,-2,0
1511773082384273,-1,-2,-1,-1,0,1,-1,-3
1511773082385224,0,-2,-1,0,0,-2,0,-1
1511773082385224,0,1,1,-1,-1,-1,0,-1
1511773082399220,0,0,-1,-1,0,-1,0,0
1511773082399220,-2,-2,-3,-2,-2,-2,-1,0
1511773082400217,-1,-1,0,0,-1,1,0,-2
1511773082400217,-1,-4,-2,0,-1,-2,-2,-2
1511773082421231,0,0,-1,0,-1,0,-1,0
1511773082421231,-1,0,-1,-1,0,-1,0,-1
1511773082423232,-1,-1,-1,-2,-1,-3,-1,-1
1511773082423232,-1,-2,1,-1,-2,-1,-1,-1
1511773082444260,-1,-2,0,1,-1,-1,-2,0
1511773082444260,-2,-2,-1,-1,-1,0,-1,-2
1511773082445261,0,-1,-2,-1,0,-1,-3,-1
1511773082445261,-1,1,-2,-1,-1,-1,-1,0
1511773082459280,-1,-1,-3,0,0,-2,-1,-2
1511773082459280,-1,0,0,1,-2,0,0,0
1511773082460271,-2,0,0,1,0,-1,-2,0
1511773082460271,-1,-1,0,-2,-1,0,0,-3
1511773082481274,0,-2,-1,-2,-3,0,-1,-2
1511773082481274,0,1,0,-1,-2,-2,-2,0
1511773082483280,-2,-2,-1,-1,-2,0,-1,-1
1511773082483280,0,-1,-1,0,1,-2,-1,-1
1511773082504307,-2,-1,1,-1,-2,-1,-1,-1
1511773082504307,-1,-1,1,0,-1,0,0,-1
1511773082505293,-1,0,-1,-1,-2,-2,-1,-3
1511773082505293,0,-2,-1,-2,-1,0,0,-2
1511773082518300,0,-2,-2,0,-1,-1,0,-2
1511773082518300,1,-1,-2,0,-3,-2,-2,0
1511773082525304,1,-2,-4,-1,-2,-1,0,0
1511773082525304,-1,-1,-2,0,-2,1,0,-1
1511773082541337,-2,-1,0,-1,-1,-1,-2,-2
1511773082541337,-2,-2,-2,-1,0,-1,0,2
1511773082543331,-3,0,0,-2,-1,-1,-1,0
1511773082543331,-1,0,-1,-2,-1,-1,0,0
1511773082564332,0,0,-1,0,-3,-3,-1,-1
1511773082564332,-3,-3,-1,-2,-1,-2,-2,-1
1511773082565332,0,-1,1,-3,0,-2,-1,-2
1511773082565332,-2,1,-1,-1,0,-2,0,-1
1511773082578355,0,1,0,0,-2,0,-2,0
1511773082578355,-2,0,-1,-1,0,0,0,-1
1511773082585397,-2,-3,-1,-1,0,-2,-2,0
1511773082585397,-1,-4,-2,0,-2,0,-1,-1
1511773082601379,-1,0,-2,-2,-1,0,1,-2
1511773082601379,1,0,-2,0,-1,0,-2,-2
1511773082603379,-2,-3,-2,-1,-3,-1,0,-2
1511773082603379,-1,-1,-2,-1,-1,-4,-2,0
1511773082624374,0,0,0,0,0,-2,-2,-1
1511773082624374,-7,-2,-1,-1,-2,-1,-1,-1
1511773082625374,2,-1,0,0,0,-1,0,1
1511773082625374,1,0,-1,-2,-2,-1,-2,-3
1511773082646400,-2,-2,0,-2,-1,0,0,-1
1511773082646400,-3,-2,-2,0,-1,-2,-1,-1
1511773082648415,3,0,-2,-1,0,0,0,-1
1511773082648415,0,-1,-1,0,0,-1,-1,-1
1511773082661457,0,2,-3,-1,-2,-2,-1,1
1511773082661457,2,2,0,-1,-1,1,1,-2
1511773082663445,1,0,-1,-1,-2,-1,-2,-2
1511773082663445,-7,-3,-1,-1,-1,-2,-1,-2
1511773082684464,-2,-3,0,-2,-1,1,-2,0
1511773082684464,0,-1,-1,-2,0,-1,1,-1
1511773082685452,0,1,-2,0,-1,0,-2,0
1511773082685452,3,-1,-2,-2,-2,-1,0,2
1511773082698463,-7,1,0,-1,-1,0,0,-1
1511773082698463,-1,-1,-2,-1,-1,0,-3,-1
1511773082705464,-2,-2,-3,-3,-1,-1,-1,-3
1511773082705464,-2,0,-1,0,0,0,-2,-1
1511773082721490,1,0,-6,-2,0,0,0,1
1511773082721490,3,1,5,0,-1,-1,-1,-2
1511773082723491,-2,0,0,-1,0,0,-1,-1
1511773082723491,-1,3,-3,-5,0,1,0,-1
1511773082743501,-1,1,-2,2,-2,0,0,-2
1511773082743501,-5,-12,2,2,-1,-3,-3,-5
1511773082745494,-2,1,-9,-7,0,0,0,2
1511773082745494,-5,-1,10,6,1,-1,-2,-1
1511773082758524,-1,-6,-4,-8,-3,-4,0,1
1511773082758524,3,6,4,-4,-7,-3,-1,1
1511773082765555,1,-1,-9,4,12,3,0,-2
1511773082765555,1,0,-14,-6,-2,0,-1,-1
1511773082781567,0,0,6,-1,-1,0,-1,-2
1511773082781567,-3,-3,7,2,-3,-2,-2,-1
1511773082783576,6,1,1,-5,-5,-2,1,2
1511773082783576,2,4,-2,3,2,0,0,1
1511773082803569,3,-4,-9,-3,0,-3,-2,0
1511773082803569,-1,-4,-2,-2,-2,-3,-1,0
1511773082805570,-22,-4,4,3,-2,-3,-2,-6
1511773082805570,8,-4,4,0,-2,0,0,3
1511773082818579,2,2,-5,0,-1,-1,-1,-2
1511773082818579,4,2,-4,-4,1,-1,-1,0
1511773082825584,4,3,3,-3,-2,-2,0,0
1511773082825584,-6,-3,-18,-9,-4,-3,-3,-2
1511773082841595,-12,-3,11,5,-1,-1,-3,-3
1511773082841595,0,3,-7,2,3,2,0,1
1511773082842595,-4,-4,9,3,-4,-3,-2,-2
1511773082842595,-4,-3,-1,-1,-3,-3,0,-1
1511773082863621,4,-3,-6,-3,-1,-2,1,-3
1511773082863621,1,2,-23,1,2,3,0,0
1511773082865611,-14,-7,25,-1,-7,-4,-2,-3
1511773082865611,3,1,-7,7,4,0,1,-1
1511773082886649,-1,-6,-22,-13,-1,-2,-1,-2
1511773082886649,4,5,17,1,-1,0,0,2
1511773082887641,-1,-2,-12,1,0,2,-2,-3
1511773082887641,-10,-11,3,-2,-5,-3,-2,-3
1511773082901654,-2,3,8,4,1,1,1,-1
1511773082901654,4,5,-3,3,-2,0,0,2
1511773082902658,7,3,-8,-3,0,-1,2,3
1511773082902658,-4,-6,10,-1,-3,-2,-2,-3
1511773082923652,3,3,-3,2,1,0,-2,0
1511773082923652,-17,-7,-3,-4,-1,-2,0,-5
1511773082925654,0,-2,1,-3,-3,-1,-2,-4
1511773082925654,7,10,-7,1,-1,0,1,3
1511773082937722,-7,-8,4,-2,-2,-1,-2,0
1511773082937722,-13,-16,0,6,-3,-2,-3,-5
1511773082946668,-4,-2,0,0,0,1,1,2
1511773082946668,9,8,6,-5,0,-2,-2,-4
1511773082961703,-1,10,-2,0,-3,-4,0,-1
1511773082961703,-2,-1,0,-4,-1,-2,-2,-2
1511773082962680,7,-4,-12,2,-2,-2,-1,0
1511773082962680,-14,-5,5,-6,-1,0,0,-2
1511773082983717,-2,-8,13,8,-2,0,0,-1
1511773082983717,-1,0,-4,-1,-3,-2,-4,-2
1511773082985697,8,6,-7,-4,-3,-1,-1,1
1511773082985697,3,1,4,-1,-1,-2,-2,-3
1511773082997715,-7,-6,-10,-7,-1,-3,-3,-2
1511773082997715,-3,-2,1,-4,-1,0,1,-3
1511773083006712,9,4,-1,4,-1,-2,-1,6
1511773083006712,-19,-7,-12,-13,-2,-1,-3,-5
1511773083021747,-5,11,13,10,-1,0,1,0
1511773083021747,4,-20,-9,-6,6,2,0,-3
1511773083022729,-2,12,3,-4,-2,-1,0,-3
1511773083022729,9,8,-9,-2,0,2,2,3
1511773083043738,-6,-7,10,-1,-5,-1,-2,-1
1511773083043738,1,-10,0,-2,-3,0,-1,-2
1511773083045740,0,-3,-1,6,-1,-2,-1,-3
1511773083045740,-1,-1,5,0,3,0,1,2
1511773083066754,-9,3,-22,-6,-1,-2,-2,-1
1511773083066754,1,6,9,0,-3,-2,-3,-2
1511773083067754,-7,-11,-8,-5,-1,-2,-1,-3
1511773083067754,2,-2,7,4,-4,-4,-6,-7
1511773083081776,31,24,10,2,0,1,1,-1
1511773083081776,7,11,-2,0,-2,-1,3,4
1511773083087791,-29,-45,-13,-7,-1,-3,-4,-8
1511773083087791,1,5,-1,0,-2,-1,-2,-4
1511773083103802,-4,-9,0,-1,-2,-2,-1,-2
1511773083103802,9,15,0,0,1,0,1,4
1511773083105790,9,9,7,3,0,1,0,-1
1511773083105790,4,-4,-5,-2,-3,-4,-1,-1
1511773083117790,14,4,2,4,0,1,1,3
1511773083117790,-12,-6,-5,-6,0,-2,-2,-1
1511773083126796,3,5,0,-5,0,0,0,3
1511773083126796,5,5,3,0,1,0,-1,-1
1511773083140824,-14,-1,-8,-6,-3,-2,1,-1
1511773083140824,-9,-8,-5,4,0,-1,0,0
1511773083156828,21,24,-3,-5,-1,-1,-1,-5
1511773083156828,0,-19,-9,1,-1,2,1,4
1511773083163831,13,10,8,5,2,0,0,6
1511773083163831,-6,-16,-6,-9,-3,-2,-1,-6
1511773083165833,-8,1,0,0,0,-2,0,0
1511773083165833,-7,4,-1,4,-1,0,-1,-1
1511773083177845,9,-10,0,-5,-3,0,-1,4
1511773083177845,-10,1,1,-2,-1,-2,-1,0
1511773083186841,-3,-12,-4,0,-2,-5,-1,2
1511773083186841,-4,-13,2,1,-1,-2,-5,-20
1511773083201909,-2,3,-4,0,0,0,-2,-3
1511773083201909,10,11,-3,-3,-5,-3,-4,-1
1511773083202862,0,1,8,3,1,1,1,0
1511773083202862,-6,-16,-17,1,0,-1,2,7
1511773083223865,-2,10,-4,-5,1,-3,0,-1
1511773083223865,13,15,8,1,-2,-4,-1,-3
1511773083225867,-5,-8,-13,-8,-6,-3,-4,-1
1511773083225867,5,8,12,1,0,-2,-2,2
1511773083245900,-19,-16,-6,-4,-2,-4,-3,-5
1511773083245900,0,12,3,3,1,-1,-1,0
1511773083252887,-2,-1,7,1,1,-1,-1,-2
1511773083252887,-4,6,-14,-4,-1,-1,3,2
1511773083261911,0,1,8,1,0,-1,-2,7
1511773083261911,10,2,0,3,1,3,-1,-3
1511773083262895,4,12,2,0,-1,-1,-1,-2
1511773083262895,-1,-14,-4,-2,0,0,1,-2
1511773083283907,-8,-3,1,2,0,2,1,-1
1511773083283907,-1,-10,-3,-1,-1,-1,-1,1
1511773083285908,-4,2,3,2,-1,-2,-1,0
1511773083285908,7,9,-1,-5,-2,-1,0,1
1511773083306925,-19,-1,-3,-1,0,0,-3,-11
1511773083306925,26,-4,-1,-1,-1,-2,-1,2
1511773083307923,-1,-2,-1,1,2,2,4,2
1511773083307923,-1,0,2,-2,-2,-2,-6,-4
1511773083321933,4,1,-3,-6,-1,-3,2,6
1511773083321933,-25,-47,-6,-2,-3,-2,-2,4
1511773083322936,0,5,-3,-2,-1,-3,-6,-18
1511773083322936,8,12,14,1,-1,-1,3,6
1511773083343959,8,26,8,4,2,2,0,0
1511773083343959,-20,-25,-7,-4,-1,0,4,7
1511773083351963,-13,-27,-4,-2,-1,-1,1,1
1511773083351963,-5,7,17,1,-1,-3,-1,1
1511773083365964,14,-4,-8,-6,-5,-3,-3,-7
1511773083365964,-5,-3,-15,2,0,0,3,-1
1511773083367966,8,-2,1,2,0,0,-2,1
1511773083367966,-9,-8,-10,-3,-3,0,-1,-3
1511773083381986,-8,-19,3,0,1,-1,1,4
1511773083381986,-1,21,2,-3,-2,-3,-7,-20
1511773083382987,5,15,-1,-1,1,2,3,5
1511773083382987,10,3,-5,-1,-2,-4,-4,-2
1511773083411018,-3,-10,2,4,0,-1,1,1
1511773083411018,-2,-4,-4,-9,-7,-3,-6,-1
1511773083414012,3,23,4,0,-2,-3,-3,-4
1511773083414012,-2,6,3,-2,1,-1,-1,-2
1511773083426007,6,3,-12,-5,-2,-1,0,1
1511773083426007,-11,14,7,3,2,1,1,-2
1511773083428008,28,9,3,-1,0,0,-1,3
1511773083428008,-8,-2,-5,0,-1,-2,0,0
1511773083441031,-9,-26,-7,2,-1,-1,-5,-8
1511773083441031,-1,9,5,-1,1,2,4,6
1511773083443019,-13,-14,6,-2,-2,-2,-1,1
1511773083443019,4,16,-7,-2,-1,0,-3,-11
1511773083464044,-11,-50,-13,3,-1,1,-4,-5
1511773083464044,-2,-7,-1,-6,0,2,2,2
1511773083466046,-6,-14,-3,-4,-2,0,0,2
1511773083466046,7,5,10,6,2,0,0,9
1511773083486050,8,20,0,-4,-2,-1,-4,-20
1511773083486050,14,4,5,2,-1,1,8,18
1511773083488052,-30,10,0,-5,-4,-5,-12,-14
1511773083488052,-5,-27,-5,-6,-3,-4,-4,1
1511773083501121,6,2,-5,1,0,-2,0,8
1511773083501121,5,19,-22,-6,-3,-2,-3,-4
1511773083508065,-2,-9,20,-1,1,2,4,-2
1511773083508065,18,-14,-11,-2,-2,-1,2,11
1511773083524077,-10,-3,9,0,-2,-4,-4,-6
1511773083524077,14,11,11,1,-2,-3,-4,-5
1511773083525077,13,12,-23,-3,-2,0,2,8
1511773083525077,-19,-23,8,6,3,2,1,8
1511773083546120,-23,-35,-21,-11,-6,-3,-2,-9
1511773083546120,25,12,17,5,2,2,4,7
1511773083548094,4,12,-8,1,1,-3,0,4
1511773083548094,7,45,9,-6,-5,-3,6,-13
1511773083561112,8,5,-1,2,0,0,-10,6
1511773083561112,-36,-24,-12,-3,-3,-5,3,-13
1511773083567106,-8,-12,1,5,1,1,4,2
1511773083567106,-1,-10,6,0,0,0,-2,-5
1511773083584133,9,19,-2,2,0,-2,1,8
1511773083584133,-9,17,0,-6,-3,-4,-4,-4
1511773083585119,7,-3,31,6,3,2,-3,6
1511773083585119,-4,-14,-36,-7,-4,-4,-7,-8
1511773083607136,-5,9,1,0,-2,0,2,4
1511773083607136,-17,-33,10,6,3,1,-4,-6
1511773083608137,-8,3,-16,-4,-3,-2,0,-3
1511773083608137,-3,23,-4,2,-1,1,-4,-1
1511773083621179,5,-25,-7,-2,-1,0,2,-5
1511773083621179,9,24,6,-8,-5,-2,-3,1
1511773083627149,7,-30,-9,-1,0,-2,-1,2
1511773083627149,-22,-1,16,0,0,0,-2,-7
1511773083644161,0,-12,0,1,0,0,6,5
1511773083644161,9,11,7,1,-1,-3,-6,-1
1511773083645161,-4,-6,-5,-3,-2,0,0,2
1511773083645161,13,28,18,4,3,0,4,-5
1511773083666176,-24,-43,-18,-8,-5,-5,-1,0
1511773083666176,-2,1,-6,1,0,-1,-1,2
1511773083668178,21,11,-2,-1,0,1,2,8
1511773083668178,-11,-23,-6,-1,0,2,3,-1
1511773083681189,7,23,13,2,-1,-3,-4,-3
1511773083681189,10,7,7,8,-2,-2,-2,-2
1511773083695237,-17,-8,-24,-3,-4,-2,2,4
1511773083695237,-12,-10,-19,-20,-5,-4,-14,-15
1511773083704262,6,-11,-9,2,0,1,-1,-6
1511773083704262,-8,-5,-25,-3,1,-1,-3,0
1511773083705219,9,8,5,1,-1,0,0,-12
1511773083705219,8,-14,5,7,-1,-3,2,11
1511773083726219,-6,17,16,-4,-3,0,1,5
1511773083726219,5,1,4,2,3,3,0,-7
1511773083728222,-4,12,2,3,0,-1,0,1
1511773083728222,-16,-5,-25,-10,-4,-2,-2,-2
1511773083740230,13,18,-3,-1,-2,0,0,-3
1511773083740230,-6,28,-9,-2,-3,-6,0,7
1511773083747248,3,-101,-50,-11,-4,1,-2,-8
1511773083747248,28,20,11,-2,-5,-5,1,3
1511773083764255,-4,13,4,2,0,0,-3,-4
1511773083764255,-2,5,-6,-1,-1,0,3,9
1511773083765256,-14,40,20,0,1,0,-1,8
1511773083765256,14,-15,-12,-1,-1,-3,-11,-29
1511773083786286,6,28,7,5,1,1,4,-4
1511773083786286,-2,-34,-14,-8,-3,-1,-3,-1
1511773083788264,-6,9,29,3,1,-5,4,-1
1511773083788264,-3,7,-5,0,0,4,5,14
1511773083800342,-5,23,2,-9,-3,-6,-9,-6
1511773083800342,1,-37,-14,9,-1,1,-4,-16
1511773083809279,-7,8,9,-12,-6,-1,-1,0
1511773083809279,-9,-2,-5,-2,-1,-2,-1,17
1511773083824313,16,14,14,-2,-3,-3,0,0
1511773083824313,-11,-18,0,0,0,0,3,0
1511773083825290,3,8,7,16,3,-1,-1,2
1511773083825290,-13,-15,-3,2,1,0,2,5
1511773083846329,-12,-24,-21,-12,-4,-1,-2,1
1511773083846329,-8,-2,22,-3,-5,-8,-2,-3
1511773083848309,10,12,-7,-5,-3,-4,-3,-6
1511773083848309,2,9,-1,2,2,0,-1,-18
1511773083860315,8,-18,-4,4,1,1,4,9
1511773083860315,-24,-14,19,-3,-2,0,-3,-12
1511773083869322,15,23,7,-1,-2,-1,-4,-6
1511773083869322,-12,1,-9,0,-4,-1,-1,-3
1511773083884345,7,-11,10,10,1,1,-1,10
1511773083884345,-9,17,23,-12,1,-2,0,-3
1511773083885335,0,6,-36,-12,-4,-2,-2,-2
1511773083885335,-6,-19,-5,-6,-4,-5,-5,-4
1511773083906366,1,11,17,12,5,2,5,4
1511773083906366,5,14,-11,-4,-3,1,-3,15
1511773083908360,-6,8,23,4,-1,-3,-4,-2
1511773083908360,-7,-21,-4,-3,-1,-1,4,7
1511773083920356,-14,-22,-26,-9,-5,-5,-11,-16
1511773083920356,2,2,-2,-2,0,-1,0,2
1511773083929362,-29,-8,-16,-3,-3,-2,3,-3
1511773083929362,6,33,8,5,-1,0,-7,-13
1511773083944378,12,30,11,-5,-1,0,10,24
1511773083944378,-12,-35,-23,-4,-3,-3,-5,0
1511773083945380,-10,19,-23,0,-2,-2,-6,-25
1511773083945380,-7,-1,51,6,-1,0,1,0
1511773083966389,-13,-30,-31,-11,1,0,1,-5
1511773083966389,23,30,37,9,1,2,-2,-7
1511773083968391,12,-49,-30,-14,-3,-3,-1,10
1511773083968391,8,-5,-4,-1,0,0,4,13
1511773083980399,-1,-8,-15,-7,-5,-5,-10,-22
1511773083980399,12,-1,20,3,1,0,0,0
1511773083989410,16,-4,-1,3,2,2,11,9
1511773083989410,-5,6,22,2,2,-1,-5,4
1511773084004426,-8,2,-6,1,-2,1,1,-13
1511773084004426,39,-8,3,7,3,3,0,-3
1511773084005426,-11,-13,2,-5,-4,-1,-5,-6
1511773084005426,-1,3,-22,-1,1,1,3,6
1511773084026430,5,36,9,12,1,0,3,5
1511773084026430,-4,26,2,-4,-1,-1,-1,1
1511773084028432,3,7,3,0,-1,-2,-1,0
1511773084028432,7,3,6,6,3,0,3,1
1511773084040454,-15,-15,3,-8,-2,0,-9,-13
1511773084040454,8,-5,-14,6,0,-2,1,-2
1511773084049468,-9,12,19,2,0,1,-2,2
1511773084049468,8,-13,-24,-15,-9,-4,1,8
1511773084063493,-29,-9,12,8,1,-1,-2,-15
1511773084063493,1,3,-13,0,0,0,6,13
1511773084065458,12,5,6,0,1,2,-8,-17
1511773084065458,-33,20,1,-2,-5,-3,-7,-5
1511773084087490,22,-3,0,-2,-1,1,5,13
1511773084087490,-32,-10,-8,4,-2,-2,-1,-6
1511773084088475,-22,-38,-5,3,1,-1,-3,-1
1511773084088475,37,1,-9,-10,-2,2,2,3
1511773084100499,-25,7,-7,-11,-7,-6,-7,-2
1511773084100499,-4,-43,-14,3,0,0,-5,-9
1511773084109508,-11,6,-1,-3,-3,-1,4,0
1511773084109508,13,14,5,7,2,0,2,5
1511773084123512,4,-14,20,0,-1,-1,7,14
1511773084123512,7,-10,-21,-8,-3,-4,-18,-28
1511773084125514,1,3,10,-1,0,0,-4,3
1511773084125514,-22,-26,-7,1,-1,0,0,-4
1511773084146534,50,12,10,3,2,0,-3,-3
1511773084146534,-20,6,9,-6,-3,-2,4,18
1511773084148518,-11,-26,-20,3,0,-2,-1,-2
1511773084148518,11,-4,15,-6,0,1,-1,-7
1511773084160590,-7,25,6,2,-1,1,0,-1
1511773084160590,1,-2,-16,-7,-3,-2,2,6
1511773084169578,26,33,-4,-10,-5,-4,-4,0
1511773084169578,-20,-22,14,17,3,0,0,-5
1511773084183587,6,-8,8,4,1,-4,-1,1
1511773084183587,0,-13,-8,-4,-1,1,3,3
1511773084185589,22,57,-17,-1,-1,-1,7,9
1511773084185589,-38,-79,-24,-13,-3,-5,-10,-16
1511773084206618,-3,13,0,-4,-4,-3,-4,5
1511773084206618,12,45,0,0,0,-1,0,-20
1511773084207605,-20,-11,17,0,0,2,-2,-7
1511773084207605,7,31,12,4,-2,0,2,15
1511773084228631,8,-31,-21,-3,-2,-1,-6,-9
1511773084228631,-9,14,32,6,0,1,1,-4
1511773084230635,-10,-12,6,8,4,1,-2,-5
1511773084230635,11,-6,-16,-11,-6,-3,-2,10
1511773084243630,-9,-30,-12,-8,-3,-1,-2,-16
1511773084243630,-12,1,-9,1,-4,-3,-2,5
1511773084245641,20,-21,-10,-4,2,2,6,2
1511773084245641,-18,52,24,7,-2,-3,-2,-3
1511773084266660,-5,-6,8,11,4,1,2,-1
1511773084266660,19,22,2,-10,-4,-2,1,18
1511773084267650,-17,9,-3,6,1,-2,-2,-8
1511773084267650,-2,-29,-14,-6,-2,0,-2,-5
1511773084288677,-27,0,-9,-7,1,4,4,10
1511773084288677,-13,-5,11,1,1,0,2,6
1511773084290663,13,-15,0,-5,-4,-4,-3,3
1511773084290663,-5,12,19,7,4,1,3,1
1511773084311688,3,29,13,5,2,-2,-3,9
1511773084311688,4,-23,-6,-14,-5,-3,-3,-7
1511773084312678,-8,-20,-39,-12,-10,-6,-9,-8
1511773084312678,24,34,19,-1,-1,-2,-6,2
1511773084326704,-1,-15,-7,2,-1,-1,4,3
1511773084326704,-6,10,-10,-11,-7,-3,-2,1
1511773084327705,-3,-6,10,-1,-1,-1,2,6
1511773084327705,-8,-16,-10,2,1,-1,-3,-12
1511773084348703,-1,39,4,3,2,0,4,5
1511773084348703,18,-33,-6,3,2,0,5,5
1511773084354746,24,41,16,-5,-1,-5,-14,-22
1511773084354746,5,-27,-15,-1,2,2,1,-13
1511773084363742,-8,16,0,-1,-2,-1,-1,5
1511773084363742,-7,0,21,0,3,1,-1,-8
1511773084365725,-13,-3,9,9,4,4,5,5
1511773084365725,-7,-3,-21,-5,-3,-2,1,8
1511773084386731,0,16,24,-8,-1,-1,-2,-8
1511773084386731,8,-17,-25,6,1,1,-1,9
1511773084387731,-23,-27,0,-6,-4,-3,-3,-4
1511773084387731,-4,10,-12,-7,-3,-1,-3,-7
1511773084408749,38,-8,23,10,-1,-2,0,1
1511773084408749,-3,60,0,1,1,1,3,8
1511773084410753,-9,-40,-15,-8,-4,-3,1,7
1511773084410753,18,42,24,11,0,-1,-2,-4
1511773084423777,-20,-6,-40,-31,-7,-2,-3,-1
1511773084423777,-4,4,9,11,5,1,1,-7
1511773084429777,-8,9,29,0,-3,0,3,12
1511773084429777,33,-9,-9,1,-4,-4,-1,15
1511773084446798,-13,21,3,-3,-1,0,-5,-16
1511773084446798,4,-34,-7,-2,0,-1,1,-11
1511773084447774,-19,-14,-22,-1,0,-1,-1,0
1511773084447774,-2,1,-4,-3,-2,-1,0,7
1511773084468802,-25,22,15,9,2,0,-5,-24
1511773084468802,0,-52,-61,-11,-4,-5,-11,-11
1511773084470803,16,18,14,11,4,0,2,7
1511773084470803,-21,-46,-14,-11,-4,-4,-6,-12
1511773084482822,-7,-23,12,5,-4,-4,0,16
1511773084482822,-6,-14,-19,-3,-4,-2,0,9
1511773084489812,11,41,39,-22,-3,-1,-5,-9
1511773084489812,-17,-54,-47,-6,-3,-2,-2,3
1511773084506825,-2,-53,-27,3,0,1,2,-2
1511773084506825,-10,7,24,9,0,-2,0,-16
1511773084507817,10,-9,-2,7,-1,-3,-1,8
1511773084507817,12,74,49,0,3,2,4,-1
1511773084528844,-16,-87,-46,1,-2,-4,-4,1
1511773084528844,20,26,17,-2,2,1,0,-3
1511773084530834,-14,7,-19,7,2,1,-1,0
1511773084530834,-4,4,-4,-25,-1,2,1,-9
1511773084542850,14,25,11,7,0,-2,-3,3
1511773084542850,-2,3,1,2,1,-1,2,0
1511773084549869,-9,21,6,4,-4,-1,0,5
1511773084549869,-2,-39,-25,-13,-2,-1,5,27
1511773084566908,-23,-36,2,-16,-5,-3,-7,-12
1511773084566908,-3,21,-7,-5,-2,-1,-1,-3
1511773084567910,12,24,-5,9,5,1,-2,2
1511773084567910,14,17,43,16,4,1,3,3
1511773084588940,-38,-18,-38,-11,-6,-3,2,-2
1511773084588940,14,12,29,2,1,-2,-6,1
1511773084590926,-12,-24,-10,-3,-1,-1,2,-4
1511773084590926,30,33,-16,8,1,-3,-5,-8
1511773084602934,14,11,-6,2,1,1,2,5
1511773084602934,-24,-34,0,0,-3,-1,-3,-6
1511773084609966,1,-32,11,-4,-1,0,2,2
1511773084609966,-25,-41,-41,-7,-2,-1,-5,-35
1511773084625972,21,52,17,11,1,-1,0,7
1511773084625972,14,-7,-6,3,0,-1,4,9
1511773084627974,-1,2,-6,-8,-1,0,-5,-3
1511773084627974,-11,-16,31,5,-1,1,-3,-3
1511773084649967,11,-9,-42,-3,-2,-1,5,19
1511773084649967,-1,17,-1,-4,-3,-3,-9,-15
1511773084651968,-16,-21,-11,3,0,-2,1,1
1511773084651968,5,21,-16,10,3,3,4,7
1511773084662986,0,23,13,-7,-4,-2,-4,-8
1511773084662986,2,10,-9,-10,-5,-3,-1,7
1511773084669991,1,-38,4,-6,-6,-3,-3,-2
1511773084669991,-24,21,-12,9,2,-1,0,-2
1511773084686016,11,-2,17,-1,0,0,-3,2
1511773084686016,-11,23,10,3,0,-1,-1,-2
1511773084687994,15,19,17,2,0,2,2,-1
1511773084687994,11,-17,8,-1,0,0,5,4
1511773084709033,1,0,2,10,4,1,0,3
1511773084709033,-12,2,19,-7,-1,-2,-3,-6
1511773084711027,19,-6,-20,-1,2,1,-3,-4
1511773084711027,-25,0,19,1,-5,-5,-3,2
1511773084723019,27,7,-14,5,3,0,4,4
1511773084723019,-16,26,1,-8,-6,-4,-5,0
1511773084732025,-1,-49,-17,-9,-3,-2,-2,-8
1511773084732025,2,-22,-14,-6,-2,-3,-3,4
1511773084746036,-13,27,2,-2,-4,0,5,0
1511773084746036,-5,-34,-14,-2,1,1,-7,-15
1511773084748037,-18,32,12,14,0,-2,-3,2
1511773084748037,12,12,-3,-7,-3,0,0,-5
1511773084769063,-16,-20,21,-2,-1,1,0,-4
1511773084769063,5,18,18,7,1,-1,6,20
1511773084770064,-26,-37,-61,-19,-10,-10,-11,-25
1511773084770064,1,-18,-17,6,1,1,-2,0
1511773084783060,22,30,32,15,2,1,-1,0
1511773084783060,-6,-8,-16,-19,-1,2,3,-14
1511773084799077,4,-13,7,3,0,-1,-1,1
1511773084799077,-2,33,27,-4,0,0,-2,-2
1511773084806078,4,-22,-20,-2,-1,-3,-7,-3
1511773084806078,7,26,23,8,-3,-1,1,6
1511773084808078,-7,-21,-28,-14,-5,-3,-2,2
1511773084808078,-3,6,-7,-12,-8,-6,-4,-3
1511773084829103,13,0,51,7,5,2,1,-3
1511773084829103,-23,-7,-61,-3,-2,1,9,11
1511773084830104,16,10,35,10,3,-2,-18,-59
1511773084830104,7,9,-44,-3,-2,-3,0,7
1511773084842112,7,-15,-20,-12,-2,1,-1,-3
1511773084842112,-14,-2,2,5,-1,-1,-1,0
1511773084851124,2,-16,21,7,2,1,8,21
1511773084851124,-10,4,0,2,-1,-1,-4,-13
1511773084866119,13,4,4,-1,0,-1,-1,-6
1511773084866119,9,-5,-15,0,1,0,0,5
1511773084868121,-4,28,35,1,-2,-2,2,12
1511773084868121,6,-17,16,7,3,0,-3,-4
1511773084889161,-22,-9,-16,-8,-1,-1,-3,-6
1511773084889161,9,2,6,-4,-2,-1,4,15
1511773084891139,21,39,14,3,1,1,3,9
1511773084891139,-11,-27,-20,8,2,1,1,2
1511773084903147,9,10,-19,-26,-9,-6,-4,-9
1511773084903147,8,-18,-11,5,2,0,-4,-1
1511773084919165,-28,-22,-31,-5,1,2,2,-2
1511773084919165,1,24,56,6,0,0,7,9
1511773084926187,7,-13,-29,2,0,-2,-15,-23
1511773084926187,-4,-2,2,-10,-7,-7,-10,-11
1511773084932170,-6,24,0,5,2,2,5,10
1511773084932170,4,3,10,-3,3,3,2,-4
1511773084949180,-10,-26,-8,-4,-6,-7,0,-2
1511773084949180,-7,14,30,0,0,-1,0,9
1511773084950179,1,8,13,10,1,-1,-1,-4
1511773084950179,5,-15,-5,-12,-3,-2,0,14
1511773084962200,-49,21,8,16,6,4,3,-8
1511773084962200,4,-30,7,-3,-2,-1,-5,-6
1511773084971208,-7,20,-21,-18,-6,-2,1,3
1511773084971208,5,-4,24,8,1,-2,-2,-9
1511773084986239,-4,-24,-25,-13,-7,-6,-3,4
1511773084986239,18,41,4,2,0,-1,0,3
1511773084988239,-26,-43,-6,-9,-4,-1,-8,-32
1511773084988239,-12,-20,-16,-7,-4,-5,7,16
1511773085009240,-30,-8,14,0,-4,-1,-17,-31
1511773085009240,10,59,8,-1,0,-4,2,2
1511773085010222,27,-40,-6,-3,-5,-4,0,14
1511773085010222,-19,60,-3,-19,-2,-3,-3,-2
1511773085022255,7,-52,-23,4,0,2,1,6
1511773085022255,1,21,14,6,1,3,9,15
1511773085031237,-15,-14,-8,0,0,-4,-5,-3
1511773085031237,15,-39,-35,-2,-2,0,-7,-5
1511773085046264,-18,3,22,-14,-7,-5,3,3
1511773085046264,-9,-36,-8,1,2,1,-5,-10
1511773085048251,18,41,16,10,6,1,6,13
1511773085048251,-1,3,8,11,2,2,-2,-6
1511773085069263,15,-3,-1,-1,0,-1,5,14
1511773085069263,7,-32,-24,-12,-8,-4,-4,-7
1511773085070264,-4,15,6,4,0,0,-5,-1
1511773085070264,-5,-12,-12,-18,-4,-1,-3,3
1511773085082282,10,47,23,2,-2,-1,4,3
1511773085082282,4,-51,19,1,1,-1,-2,-9
1511773085091278,-7,-4,-24,-5,-2,-3,0,-2
1511773085091278,4,16,15,12,1,-1,-3,-5
1511773085106296,12,6,-17,-2,2,2,6,9
1511773085106296,21,-56,-12,12,2,2,-4,-10
1511773085112320,-5,0,-11,-17,-5,-2,5,14
1511773085112320,-14,23,6,15,4,2,-1,-27
1511773085129330,17,-4,-7,-2,0,-2,-8,-6
1511773085129330,-45,13,4,1,2,1,0,3
1511773085130307,10,-5,-17,7,3,4,3,8
1511773085130307,22,13,-10,-6,-8,-6,-8,-10
1511773085142339,10,34,31,4,1,1,7,9
1511773085142339,12,-7,-8,-5,-4,1,1,0
1511773085151327,8,37,20,6,0,0,-2,-2
1511773085151327,5,-22,-15,-16,-2,-1,2,11
1511773085166342,-7,9,19,-5,-2,-1,-2,1
1511773085166342,4,6,7,0,2,-1,0,-5
1511773085168343,7,-29,19,11,0,1,-2,1
1511773085168343,19,-42,-17,2,0,-2,-4,-5
1511773085188361,-1,26,11,2,2,2,0,3
1511773085188361,-15,-34,-39,-2,-2,-5,-3,-3
1511773085196353,-4,44,26,-5,-6,-3,-1,-10
1511773085196353,-16,-15,-41,3,-1,-1,-5,5
1511773085211379,1,14,17,2,0,-1,-4,0
1511773085211379,-4,26,-19,-3,-2,-1,1,13
1511773085214365,-11,-55,-29,-7,-3,-4,-1,-12
1511773085214365,14,37,43,2,-3,-1,0,-3
1511773085226383,11,-6,-22,-7,-3,-3,5,34
1511773085226383,-7,-4,-14,9,-1,-3,-9,-13
1511773085228375,17,21,10,-34,-6,-1,-3,-5
1511773085228375,-15,8,21,6,-1,1,-1,-5
1511773085248393,7,-17,-17,-1,-1,0,4,4
1511773085248393,-11,24,29,-1,1,0,-2,0
1511773085250390,-24,-18,-2,4,-1,-3,-6,-3
1511773085250390,7,9,-6,1,1,3,2,6
1511773085271415,10,-7,-6,-4,-4,-3,-4,-14
1511773085271415,-8,-21,-22,-10,-4,-1,3,-2
1511773085273407,5,38,24,8,1,-1,-4,9
1511773085273407,13,-26,-4,-8,-3,-4,-4,-21
1511773085286437,-3,20,27,17,5,1,-1,-7
1511773085286437,-15,21,-21,-21,-6,-3,-2,-5
1511773085288418,9,-19,-11,2,1,1,1,12
1511773085288418,-14,-22,-1,12,2,-2,1,6
1511773085308433,-3,8,13,-24,-4,-4,-1,9
1511773085308433,-1,-19,9,-2,-1,-2,3,5
1511773085311434,5,30,-1,1,1,2,3,-4
1511773085311434,-12,15,7,0,1,1,-4,5
1511773085331448,2,-26,-14,5,1,-1,-1,-7
1511773085331448,-4,23,25,4,0,-2,-1,-1
1511773085332450,2,-40,-21,-11,-6,-4,-2,-8
1511773085332450,1,19,11,-4,1,0,0,-9
1511773085346469,-4,-23,-5,2,-1,0,4,4
1511773085346469,8,-9,-19,-8,-4,-3,-8,-15
1511773085354484,-10,4,12,10,4,3,1,-3
1511773085354484,14,8,-5,2,-1,-1,2,11
1511773085368487,-7,7,-12,-21,-7,-4,-6,-8
1511773085368487,-22,-3,-7,7,6,4,0,-1
1511773085370476,6,10,-6,-2,-2,-2,-2,-3
1511773085370476,2,-25,-10,-2,-4,-1,1,9
1511773085391491,-18,11,-7,4,-1,-1,-2,-6
1511773085391491,35,17,22,-2,0,0,6,17
1511773085393492,-13,-14,4,5,-1,-3,-4,-11
1511773085393492,4,24,42,1,0,-1,2,0
1511773085405521,-23,-68,-39,-4,-4,-2,-4,-14
1511773085405521,27,30,1,-7,-1,-1,1,3
1511773085412516,6,40,2,7,3,1,1,6
1511773085412516,1,-55,-15,-3,-4,-2,1,6
1511773085428529,4,15,-3,1,1,-2,-4,-7
1511773085428529,11,3,46,15,3,1,0,-13
1511773085430519,-9,-35,-61,-24,-11,-8,-6,0
1511773085430519,-2,33,5,5,4,2,2,-2
1511773085451555,22,-51,-25,-2,-5,-4,2,9
1511773085451555,-18,16,-7,-8,0,1,4,20
1511773085452555,5,-35,4,7,0,-1,-9,-37
1511773085452555,-7,13,10,-14,-1,-1,0,1
1511773085465552,-2,9,0,11,2,2,2,1
1511773085465552,-13,-12,-21,-2,-1,-1,2,5
1511773085472570,-8,-6,8,-6,-4,-2,2,8
1511773085472570,6,6,2,4,-1,-2,-4,1
1511773085488584,-10,21,26,8,5,3,-2,-13
1511773085488584,-8,-43,-39,-14,-6,-6,-5,-6
1511773085490564,12,14,2,5,1,1,4,-5
1511773085490564,-9,12,2,4,0,0,1,-6
1511773085511576,17,23,18,1,-1,-2,1,10
1511773085511576,-20,-50,-34,-1,-5,-4,-8,-14
1511773085513605,-2,29,23,7,6,4,3,21
1511773085513605,-14,-20,-10,-5,-8,-6,-7,-13
1511773085525611,-6,-3,-29,-2,3,4,3,3
1511773085525611,23,21,10,-2,-2,-1,-2,-2
1511773085532617,-16,-18,-10,-4,-3,-2,3,10
1511773085532617,0,-3,-3,4,0,-1,-3,0
1511773085548618,10,27,38,10,3,1,-2,-2
1511773085548618,-13,-49,-53,-15,-6,-3,-2,-3
1511773085550605,-6,33,17,4,3,1,-2,1
1511773085550605,-10,-5,-12,-6,-1,-1,0,-2
1511773085571628,-32,59,23,-3,-2,-2,-6,-6
1511773085571628,33,1,-1,7,5,4,-2,-14
1511773085573621,-16,-16,-44,-12,-5,-3,-2,11
1511773085573621,4,32,38,8,2,0,-10,-32
1511773085585657,-12,-80,-46,-15,-4,-4,4,1
1511773085585657,15,33,47,10,0,-2,-3,-5
1511773085592662,-22,-11,5,-3,0,-1,-1,-1
1511773085592662,1,-8,-33,-12,-5,0,3,10
1511773085608646,15,40,-2,-4,-1,0,0,12
1511773085608646,-5,-14,41,3,1,-1,-1,-10
1511773085610645,-1,-18,-3,-2,-3,-3,0,0
1511773085610645,3,10,-1,2,-1,-3,1,12
1511773085631660,-3,-11,12,7,-1,-1,-4,-6
1511773085631660,-7,6,6,6,0,0,3,18
1511773085632660,11,55,25,-14,1,4,3,-4
1511773085632660,-4,-52,-27,-4,-3,-4,-5,-2
1511773085645689,5,-21,-37,-4,-1,-1,0,6
1511773085645689,-14,-3,19,4,0,0,-2,-11
1511773085652699,7,-6,-18,5,1,-1,-4,-2
1511773085652699,-5,23,25,0,0,0,-1,-8
1511773085668699,17,-16,4,3,0,1,4,9
1511773085668699,-4,8,2,-4,-1,-2,-1,-7
1511773085670701,-3,-9,2,0,-1,-2,-8,-6
1511773085670701,-10,-16,5,-3,0,2,2,-2
1511773085691716,-19,-8,-42,7,-1,-5,-14,-36
1511773085691716,-1,-6,3,-2,0,1,1,-1
1511773085692707,16,-15,9,0,-3,0,5,2
1511773085692707,8,12,-13,-13,-6,-4,-3,-2
1511773085704736,-55,-4,18,0,-1,3,6,17
1511773085704736,23,30,28,2,0,-1,-9,-17
1511773085713720,8,-14,-17,3,-2,-2,-4,7
1511773085713720,-1,-64,16,2,3,0,0,4
1511773085728737,-13,3,-17,-9,-3,0,-5,-16
1511773085728737,-14,-18,-23,-11,-4,-2,7,19
1511773085730730,-21,-26,26,13,0,1,-7,-4
1511773085730730,7,46,3,3,0,-2,9,-2
1511773085751757,41,12,21,-13,-5,0,-2,7
1511773085751757,-7,33,10,5,-1,-2,7,19
1511773085753746,-11,-39,-27,-2,0,-2,-11,-13
1511773085753746,0,16,1,-6,-2,1,3,10
1511773085764763,15,29,1,-7,-2,1,2,-2
1511773085764763,-10,-40,10,12,1,-2,-5,-5
1511773085773763,-4,19,-10,-11,-5,-4,4,5
1511773085773763,-18,-10,-12,5,0,0,-8,-12
1511773085788774,5,13,12,1,4,0,1,21
1511773085788774,-19,-11,-31,-19,-8,-4,-4,-5
1511773085790772,24,26,28,10,1,1,2,1
1511773085790772,-6,-5,38,-3,-3,-3,-5,6
1511773085811788,6,-32,39,17,2,-3,2,-3
1511773085811788,-23,-60,-90,-25,-5,-1,-6,-10
1511773085813789,11,27,-3,-2,0,-2,3,-5
1511773085813789,-9,17,1,15,6,5,5,9
1511773085824802,4,8,1,-1,-5,-4,-5,-15
1511773085824802,1,20,21,-4,-3,-3,-3,-3
1511773085833803,11,20,0,-6,-2,0,4,18
1511773085833803,9,9,-20,6,3,0,-2,-3
1511773085848823,8,-8,-37,7,1,0,-5,-5
1511773085848823,-19,19,27,-3,2,2,2,7
1511773085850815,13,-22,14,4,1,0,1,-8
1511773085850815,-10,-1,-48,-3,-6,-4,-11,-28
1511773085870839,8,14,21,-16,0,0,-2,6
1511773085870839,9,55,-1,18,7,4,-2,-19
1511773085872831,-15,-63,29,1,-2,-2,0,-4
1511773085872831,-12,-30,-13,-5,-6,-3,-4,-2
1511773085884842,-1,-8,-35,-14,-7,-6,1,7
1511773085884842,11,28,19,8,0,-1,0,8
1511773085893847,0,-8,-58,-1,1,0,-1,-6
1511773085893847,-10,-3,37,-2,-2,-5,-2,0
1511773085908857,2,-11,-39,-3,-3,-4,-6,-6
1511773085908857,-15,32,27,2,-4,-2,2,-3
1511773085910860,2,-21,-7,-2,-1,0,-4,-2
1511773085910860,5,-13,-23,-12,-5,-2,-2,5
1511773085930876,-19,53,46,20,8,3,11,21
1511773085930876,7,-57,-42,-30,-8,-5,-7,-18
1511773085932891,8,48,51,21,5,4,3,-3
1511773085932891,2,-9,-74,-28,-11,-4,5,15
1511773085944898,-17,-3,16,2,2,2,-6,-19
1511773085944898,24,11,33,22,5,1,0,5
1511773085953904,-29,-22,-32,-14,-6,-3,-6,-5
1511773085953904,14,8,22,-4,-1,1,6,16
1511773085976914,-9,-38,-18,4,1,0,-7,-26
1511773085976914,-23,-33,-22,-1,-4,-4,1,30
1511773085978906,39,27,-21,-10,0,-1,-3,-37
1511773085978906,-16,13,4,8,4,1,-2,-1
1511773085990915,-2,-29,-9,-7,-5,-5,-7,-10
1511773085990915,0,30,17,5,2,2,6,15
1511773085991914,26,21,51,7,-1,1,-4,5
1511773085991914,-3,-25,-31,-4,-5,-3,0,-3
1511773086012944,4,-27,-6,-3,1,-2,-1,3
1511773086012944,-14,-45,-32,-13,-5,-5,-1,-13
1511773086013931,1,78,7,11,4,1,4,18
1511773086013931,-1,-25,50,4,-1,-1,-5,-8
1511773086027949,6,32,-12,-1,-3,1,4,22
1511773086027949,15,-32,66,24,3,-1,-6,-42
1511773086028941,-2,-19,-79,-38,-9,-6,-9,-14
1511773086028941,-9,4,-4,3,3,2,-2,-5
1511773086051010,16,-27,46,12,-1,-4,5,6
1511773086051010,-32,30,-50,1,3,4,-5,-7
1511773086051010,9,13,29,8,-1,-2,6,12
1511773086051010,-12,-44,9,-1,-3,-3,-5,5
1511773086072994,-19,-17,-16,-7,-1,-3,-15,-24
1511773086072994,9,50,-27,-3,-4,-4,9,7
1511773086073978,-10,-33,43,9,1,0,-2,-1
1511773086073978,-8,-27,-81,-20,-6,-3,0,2
1511773086087998,12,58,36,9,2,0,1,10
1511773086087998,0,-28,7,-12,-5,-2,-9,-32
1511773086088984,-38,-27,-15,-6,-4,-2,1,11
1511773086088984,1,11,-3,5,4,2,4,-12
1511773086111014,-11,2,27,15,2,3,8,17
1511773086111014,23,25,-2,-28,-3,1,-8,-1
1511773086111014,-11,-54,-37,1,-1,-3,0,-4
1511773086111014,-2,-1,45,7,-1,-1,-5,-10
1511773086133014,3,12,-22,-2,2,0,6,-12
1511773086133014,12,18,10,12,6,2,5,42
1511773086134017,-16,-3,-45,-17,-9,-5,-4,-7
1511773086134017,-5,-38,25,7,2,0,-1,-4
1511773086148051,-30,-6,-6,-7,-4,-5,-3,-3
1511773086148051,20,-9,-2,-11,-3,1,4,9
1511773086149026,-17,-7,-27,-9,-2,-3,-5,-10
1511773086149026,24,60,28,5,0,2,3,21
1511773086171055,-9,-4,-20,-21,-10,-7,-4,-2
1511773086171055,-8,-21,-12,1,-1,-1,-9,-13
1511773086171055,4,21,38,26,7,4,13,13
1511773086171055,-11,-8,-59,-26,-3,-2,-8,-20
1511773086195059,13,-27,-23,-9,-4,0,-3,1
1511773086195059,10,21,28,6,-1,-2,5,5
1511773086195059,3,26,0,6,3,0,-2,-8
1511773086195059,5,38,18,10,1,-1,9,22
1511773086208083,0,-2,-9,-1,-1,0,-5,-7
1511773086208083,6,12,-32,8,2,0,-1,-5
1511773086209071,2,19,44,-12,-3,-1,2,8
1511773086209071,10,-7,34,10,2,-1,-1,2
1511773086231102,8,6,4,2,2,2,13,6
1511773086231102,-34,-29,-8,0,-1,-2,-7,-11
1511773086231102,17,52,26,-3,-5,-2,4,9
1511773086231102,-23,-56,-31,-17,-5,-7,-18,-48
1511773086253108,20,-7,-16,1,-1,0,1,6
1511773086253108,-16,-12,25,2,-2,-2,3,2
1511773086254100,-6,13,29,3,4,4,-3,-1
1511773086254100,-11,0,-31,-5,-6,-4,-2,-6
1511773086268123,-9,1,-12,-16,-4,-3,-2,-1
1511773086268123,14,24,30,9,2,0,1,9
1511773086269111,23,-4,10,-3,-3,0,0,6
1511773086269111,-3,3,-14,3,-3,-3,1,6
1511773086291125,33,16,39,9,1,-3,-9,-11
1511773086291125,-5,-56,-61,-13,-7,-3,3,20
1511773086291125,-11,2,7,8,4,0,4,17
1511773086291125,33,15,28,-2,0,1,0,-1
1511773086313142,-12,12,-46,2,1,0,-2,-14
1511773086313142,18,45,22,-13,-4,-3,0,5
1511773086314143,-2,-77,-105,-14,-7,-5,-7,-13
1511773086314143,-3,-20,5,0,-2,-3,4,20
1511773086328177,16,52,9,-1,0,0,-1,2
1511773086328177,-32,-60,-45,0,-4,-3,2,-7
1511773086329178,2,35,-7,-14,-5,-1,-8,-23
1511773086329178,-9,5,-27,-8,-2,2,14,16
1511773086351169,15,-22,35,8,-2,-1,3,19
1511773086351169,-12,-24,-35,-8,-5,-3,-9,-16
1511773086351169,13,-20,-8,0,5,3,2,7
1511773086351169,6,47,48,3,0,-1,0,4
1511773086373183,-26,-3,-46,-9,-5,-5,-2,-16
1511773086373183,3,-34,11,3,2,0,-3,-9
1511773086374185,1,12,30,1,-4,-3,-4,-10
1511773086374185,15,27,21,10,4,4,7,13
1511773086388251,-20,-7,50,7,2,2,0,-2
1511773086388251,-9,6,-4,-7,-3,-2,-8,-12
1511773086389196,-9,-48,-51,-14,-9,-7,1,6
1511773086389196,7,19,34,27,6,0,-3,-7
1511773086410209,-13,11,-22,-20,-5,-3,-5,-10
1511773086410209,12,-13,-17,-6,0,-1,-5,5
1511773086411211,-1,8,37,23,6,3,6,12
1511773086411211,-16,1,-24,-14,-6,-4,-8,-5
1511773086433241,1,-36,-1,13,3,3,-1,-8
1511773086433241,12,49,6,1,0,0,2,6
1511773086434236,-15,13,-56,-13,-3,0,3,4
1511773086434236,6,-1,38,10,2,-3,-6,-12
1511773086450242,-14,26,-32,-1,3,3,3,11
1511773086450242,3,-28,44,3,1,-3,-4,-16
1511773086450242,-3,23,78,4,0,-3,-6,-5
1511773086450242,-10,-19,-41,-1,0,1,0,6
1511773086470261,31,2,7,7,5,1,3,3
1511773086470261,-13,6,16,-9,-6,-4,-3,-1
1511773086471256,35,15,12,26,4,1,3,-5
1511773086471256,-16,-51,-12,-34,-3,-1,-1,-1
1511773086493283,-21,14,-31,-3,0,-1,0,8
1511773086493283,17,3,-5,-6,-1,0,-2,-12
1511773086494269,16,9,10,7,3,2,7,20
1511773086494269,-14,-25,-4,7,0,1,2,6
1511773086508278,-6,-7,48,4,0,0,-3,-12
1511773086508278,9,50,24,8,3,2,7,20
1511773086509280,-24,-26,-30,-9,-3,0,-3,-12
1511773086509280,6,24,1,-2,-3,-2,1,-3
1511773086531295,5,-11,12,0,-1,-3,-4,-7
1511773086531295,21,25,-27,-4,-2,0,10,38
1511773086532298,-23,-13,52,-7,-4,-3,-9,-22
1511773086532298,5,-12,16,15,5,-1,0,-7
1511773086553376,-11,-12,-64,-13,-7,-5,-4,-1
1511773086553376,17,2,3,6,3,1,3,1
1511773086554373,-6,-11,8,-3,-2,-2,-5,6
1511773086554373,6,29,-5,-2,-5,-1,-1,-4
1511773086568331,-8,-21,30,5,1,-1,2,2
1511773086568331,0,-7,19,7,2,0,-2,-14
1511773086575336,-8,-9,-46,-3,0,-2,1,4
1511773086575336,5,6,-6,0,0,-2,-8,8
1511773086590360,5,-42,11,1,1,-1,-2,-1
1511773086590360,-22,-23,-23,-9,-3,1,1,6
1511773086591348,2,-15,-19,1,2,1,-5,-10
1511773086591348,56,69,13,5,1,1,5,20
1511773086613356,-16,-64,-13,0,-2,1,-3,-18
1511773086613356,-3,24,81,2,-2,-3,-1,-2
1511773086614353,13,30,-36,-11,-1,1,-1,-2
1511773086614353,-28,-57,-49,-1,0,0,3,-2
1511773086627382,8,4,0,3,0,-2,-6,-4
1511773086627382,-8,6,9,2,1,0,0,9
1511773086635387,-10,11,24,8,1,2,0,-5
1511773086635387,9,11,-25,-10,-4,-4,0,2
1511773086650403,7,13,32,-2,-2,0,3,1
1511773086650403,-19,-11,-4,4,3,4,5,18
1511773086651392,1,0,-32,-17,-10,-6,-3,-2
1511773086651392,-13,-34,33,-2,-2,0,-3,-12
1511773086673396,20,43,9,-3,-2,-1,2,8
1511773086673396,-12,10,-14,0,-1,-1,-2,-9
1511773086674397,23,-4,0,8,-1,-2,1,1
1511773086674397,-40,6,23,-3,0,-1,-6,-12
1511773086688431,6,17,-8,-10,-3,-3,3,-8
1511773086688431,-25,7,2,6,0,0,-2,9
1511773086689408,-9,-34,-8,-1,-3,-2,-1,-11
1511773086689408,5,-12,3,6,0,0,2,0
1511773086710447,-7,22,4,-8,-4,-4,2,6
1511773086710447,13,-26,-24,-5,-2,-3,-15,-34
1511773086711447,-16,-20,31,-1,1,1,2,9
1511773086711447,-6,4,0,-5,-2,-3,-1,-15
1511773086741447,-8,-6,-15,7,1,0,-2,-1
1511773086741447,-6,22,11,4,-4,-2,-1,-3
1511773086742456,-9,-27,-4,-12,-3,-3,-1,1
1511773086742456,20,-31,-36,-4,-1,0,-9,-7
1511773086747502,0,11,10,-4,-2,-1,10,28
1511773086747502,-30,-49,-30,0,-3,-4,-11,-25
1511773086755506,-4,33,38,16,7,4,7,6
1511773086755506,0,40,-40,-12,-2,-1,-13,-40
1511773086770474,-35,-52,-38,-2,-1,-4,-4,-1
1511773086770474,0,-42,-1,-1,0,1,5,5
1511773086771464,-6,3,17,0,-3,-3,-6,-3
1511773086771464,0,17,28,8,-2,0,2,0
1511773086793481,8,37,4,2,1,1,-3,3
1511773086793481,33,3,-9,-20,-2,-2,-1,-10
1511773086793481,-22,-23,-14,-2,1,1,0,-5
1511773086793481,15,15,2,3,2,-1,6,11
1511773086807491,-14,-11,14,0,-2,-1,-5,2
1511773086807491,-3,19,-2,-3,-1,1,2,-1
1511773086816497,25,-16,-15,2,-1,1,3,21
1511773086816497,-30,18,23,-3,-4,-3,-4,-12
1511773086830517,15,-17,-37,-9,-3,-1,-3,1
1511773086830517,9,12,-17,4,0,-1,-3,3
1511773086831509,-9,7,1,-2,-2,-4,-5,-22
1511773086831509,-18,-91,4,4,-1,-5,-2,10
1511773086853522,1,22,-1,3,-2,-2,-5,-10
1511773086853522,25,13,7,-15,0,1,2,4
1511773086853522,-22,-15,-35,-7,-3,0,-1,5
1511773086853522,30,36,20,5,0,1,4,12
1511773086867543,1,-5,27,-8,-4,-3,3,8
1511773086867543,-3,11,-12,10,-1,-1,1,-3
1511773086875547,-16,13,30,-2,-1,0,4,0
1511773086875547,-13,30,-30,-7,-6,-5,-2,0
1511773086890572,-8,-54,-8,-7,0,2,-1,-5
1511773086890572,9,9,25,7,-3,0,3,7
1511773086891550,-9,-9,-17,-2,-5,-3,-7,-5
1511773086891550,2,2,-15,2,5,4,2,2
1511773086913565,20,21,43,3,-1,-2,5,9
1511773086913565,-13,-3,1,10,1,-1,-5,-10
1511773086914565,-2,-36,-42,-16,-3,-4,-8,-11
1511773086914565,2,27,17,2,0,0,-1,-2
1511773086927576,6,-8,-18,7,5,5,5,13
1511773086927576,-21,-39,-5,-2,-7,-7,-14,-28
1511773086935583,11,-35,3,1,-1,-2,4,7
1511773086935583,21,7,0,-4,0,-3,-2,3
1511773086950592,-5,60,1,-9,-2,-1,-3,-11
1511773086950592,-12,-56,-33,-4,-4,-3,1,7
1511773086951592,34,71,44,0,-6,-5,-1,-6
1511773086951592,1,-42,-25,4,0,1,2,4
1511773086972622,14,10,-3,0,-2,-3,-2,-7
1511773086972622,-20,-65,-58,-9,-1,-3,-2,-7
1511773086973609,27,60,29,-1,0,1,3,23
1511773086973609,-11,-19,20,11,2,1,-5,-22
1511773086987619,-24,-23,13,-20,-4,-3,-5,-12
1511773086987619,4,41,-36,-8,1,-1,0,7
1511773086995639,3,-9,-18,-9,-3,0,2,4
1511773086995639,-18,-25,14,6,-2,-2,-2,10
1511773087011635,25,43,14,8,0,-2,-5,-11
1511773087011635,-1,-10,9,5,4,2,1,1
1511773087012635,-1,45,54,6,-2,-2,-3,-8
1511773087012635,-3,-3,-7,-8,0,2,4,5
1511773087033650,1,5,-27,-7,-4,-2,-3,7
1511773087033650,1,-22,42,6,3,-1,0,-6
1511773087033650,-9,-40,-48,-5,-5,-3,-3,-5
1511773087033650,1,-8,-55,-2,-2,-1,0,-3
1511773087047675,-22,8,39,-2,-1,-1,0,15
1511773087047675,13,-23,19,13,-1,0,3,6
1511773087055688,-7,12,-47,-26,0,2,-5,-6
1511773087055688,-10,9,-15,-14,-8,-7,-1,-4
1511773087070676,2,-73,-10,4,-1,-3,-1,-9
1511773087070676,-4,50,0,4,-2,0,-3,6
1511773087071676,-1,4,17,9,4,0,0,-9
1511773087071676,3,3,-25,-10,-2,0,2,4
1511773087092693,28,23,-2,-2,0,0,-2,-8
1511773087092693,-12,1,-9,-4,0,-3,-1,1
1511773087093694,1,-29,5,24,5,1,1,-4
1511773087093694,-3,26,22,-23,-3,-1,2,5
1511773087116708,-9,-14,-8,3,-3,-2,-7,-22
1511773087116708,-2,1,4,-6,-2,-3,-4,-12
1511773087116708,3,10,3,0,-4,-3,-1,3
1511773087116708,-8,-11,5,8,0,0,0,1
1511773087130718,-9,7,-2,-1,-1,0,-1,-4
1511773087130718,7,18,0,-6,-3,1,2,9
1511773087131719,-15,-8,-9,4,0,0,-5,-10
1511773087131719,17,5,19,2,-2,-2,-4,7
1511773087152751,-5,-11,-13,-5,0,-1,-3,-3
1511773087152751,0,12,3,-1,-3,-1,-1,2
1511773087153744,-3,3,10,3,0,0,0,2
1511773087153744,10,-2,1,0,0,-1,-2,-3
1511773087176750,-9,9,-1,0,0,0,3,1
1511773087176750,4,2,-6,-2,0,1,-1,-2
1511773087176750,-5,4,1,0,1,1,1,-3
1511773087176750,3,-2,0,-5,-3,-1,0,7
1511773087190773,-13,-8,-4,5,-2,-3,-2,-8
1511773087190773,13,6,7,-3,-1,-2,3,7
1511773087191774,-9,-10,-6,-3,-1,-2,-3,-3
1511773087191774,-3,4,7,5,1,0,-2,-6
1511773087213844,4,-7,-5,2,0,0,-2,4
1511773087213844,-3,9,4,-5,-3,-2,-1,-2
1511773087214782,-2,5,-6,2,0,0,-1,4
1511773087214782,-6,-29,3,1,0,-2,-2,-7
1511773087236794,-6,13,-10,-2,-2,0,-2,2
1511773087236794,0,-16,21,-1,-1,-1,-2,0
1511773087236794,0,3,-15,-4,0,-1,-2,0
1511773087236794,-1,4,2,0,-1,1,1,10
1511773087250826,0,0,-8,-2,-2,-1,-4,-13
1511773087250826,2,8,0,2,1,-2,2,1
1511773087251817,0,0,18,1,-2,2,-2,0
1511773087251817,5,8,-5,-3,-2,-3,0,3
1511773087273824,-1,-9,-4,1,0,0,1,-1
1511773087273824,0,10,-2,0,0,-1,-2,3
1511773087274821,0,-13,0,-2,-2,-3,-1,-6
1511773087274821,-4,12,1,1,0,-1,-3,-6
1511773087295835,2,-10,1,-2,-2,-2,0,4
1511773087295835,-7,4,-3,-2,-2,-3,0,-3
1511773087296836,-9,-23,-4,-2,-2,-3,-7,-9
1511773087296836,-7,1,-4,0,-1,-1,-2,-4
1511773087310903,0,1,10,1,2,1,1,2
1511773087310903,-5,5,-5,-2,-1,0,-3,-13
1511773087311848,10,18,-1,0,1,1,2,11
1511773087311848,-9,-30,-3,1,-3,-1,2,-1
1511773087333884,-12,-10,-2,-3,-3,-3,-8,-29
1511773087333884,7,-3,-5,0,1,0,1,3
1511773087334864,2,3,0,-2,-3,-2,2,-1
1511773087334864,2,10,2,1,0,-1,-3,-8
1511773087355900,4,2,4,2,-1,-1,1,8
1511773087355900,-3,-3,-7,-3,-3,-1,-1,-1
1511773087356878,-4,3,3,0,-2,-1,-1,-5
1511773087356878,-2,-1,0,0,-1,-1,-1,1
1511773087370902,-1,-11,-4,-2,-1,-1,-1,1
1511773087370902,1,7,-1,0,-1,0,-2,-3
1511773087371888,3,-6,0,-2,-2,-2,1,7
1511773087371888,-10,2,1,-2,-2,1,0,-2
1511773087393914,5,3,0,-2,-3,-2,-1,0
1511773087393914,0,-2,0,0,0,-1,-1,-1
1511773087394906,-2,-2,-1,-2,-1,0,-1,-1
1511773087394906,3,0,-3,0,-1,-2,-1,-2
1511773087417922,0,-1,2,-2,-1,0,-1,1
1511773087417922,-4,0,-2,0,1,-1,-2,4
1511773087418923,-5,-8,-2,0,-1,-2,-1,-4
1511773087418923,6,9,1,0,-1,1,0,0
1511773087430947,-6,-10,-2,-1,-1,-3,0,3
1511773087430947,6,6,0,-3,-1,-1,-1,0
1511773087430947,-6,1,-2,-1,-1,-1,-1,-4
1511773087430947,4,0,-2,-1,-1,1,-2,-5
1511773087454006,2,3,-3,-4,-2,-2,-1,2
1511773087454006,-2,-6,-2,-1,0,-1,0,0
1511773087454962,-4,-2,1,1,-2,-2,-2,-3
1511773087454962,0,-1,1,0,-1,-1,-1,-1
1511773087476038,-2,0,-1,-1,-2,2,-2,-2
1511773087476038,0,-2,-3,-3,-2,-3,-2,-1
1511773087477024,-1,-1,-1,-1,0,1,-1,1
1511773087477024,1,-2,0,-1,0,-2,-1,-2
1511773087491046,0,-2,0,-1,0,-2,0,1
1511773087491046,-1,1,-1,0,0,1,2,0
1511773087491046,4,1,-2,-1,-2,-3,1,0
1511773087491046,-2,3,1,-1,1,-1,-1,-1
1511773087514060,0,-2,-1,-1,1,1,0,0
1511773087514060,-2,0,-1,-1,-1,0,-1,-1
1511773087515061,4,3,0,-1,-2,-1,-1,0
1511773087515061,-5,-3,-1,-1,-1,-1,-1,-3
1511773087536082,5,-6,-3,-1,-2,-2,-1,-2
1511773087536082,6,1,1,-2,-3,-1,-2,0
1511773087537083,-5,8,-3,-1,-1,-2,-2,-4
1511773087537083,-2,-4,-1,-3,0,-2,-1,-1
1511773087551100,3,10,2,0,1,0,0,1
1511773087551100,-9,-8,-2,-1,-2,0,2,2
1511773087551100,-3,-18,-3,-1,0,0,-1,-1
1511773087551100,7,8,1,-1,-1,-2,0,0
1511773087574150,-4,-14,-3,-2,0,-1,0,-2
1511773087574150,-1,6,1,1,0,1,-1,-1
1511773087575094,-5,3,0,-2,-1,0,0,0
1511773087575094,-1,-5,-2,0,-1,1,-1,-1
1511773087597119,0,1,0,-1,1,0,-1,2
1511773087597119,0,3,0,0,-1,-2,-2,-1
1511773087598138,-1,-8,-1,-2,-1,-2,0,0
1511773087598138,2,0,0,0,-1,-1,0,0
1511773087610141,-2,2,0,-3,-1,-2,0,1
1511773087610141,-3,-5,-3,-1,-2,-3,-2,-3
1511773087618137,-1,-1,0,0,-1,-1,-1,-2
1511773087618137,0,-1,-1,-1,-2,-1,-1,-2
1511773087634161,-3,1,-1,1,-2,-2,0,-1
1511773087634161,-2,-5,-2,-2,-1,-1,-3,0
1511773087635142,1,1,-1,-2,-1,-2,-1,0
1511773087635142,-1,2,-2,-1,-1,-1,-1,-1
1511773087656161,-2,-2,-3,-1,-2,-2,0,0
1511773087656161,0,0,-2,-1,-1,-2,0,-1
1511773087657152,-1,2,-1,0,0,-1,0,-2
1511773087657152,-2,-4,-1,-2,0,0,-1,-2
1511773087670175,-2,-1,-2,-2,-2,-1,-3,-1
1511773087670175,0,-3,0,0,-2,-1,0,0
1511773087678181,-1,1,0,-2,-1,-1,-1,-1
1511773087678181,-1,-4,-1,1,-2,-2,-1,-1
1511773087694189,0,1,0,0,0,0,1,-2
1511773087694189,-2,-1,-1,-2,-1,0,-2,-1
1511773087695178,0,-2,-2,-1,-1,0,1,-2
1511773087695178,-1,1,-1,-2,1,-2,-1,0
1511773087716218,-2,-1,-2,-1,-2,0,1,-1
1511773087716218,-1,-2,-1,0,-1,-1,0,-1
1511773087717195,-2,-1,0,0,-2,-3,-1,1
1511773087717195,-2,-3,0,-1,-1,0,-1,0
1511773087730203,-3,-1,0,-1,-1,0,-1,-2
1511773087730203,-3,-2,-1,-2,1,-1,-1,-3
1511773087738220,0,-1,0,-1,-1,-2,-1,0
1511773087738220,0,-2,-2,-1,-1,-3,-1,-1
1511773087754220,-2,-2,0,-1,-1,-1,-2,-1
1511773087754220,0,0,-1,0,-1,1,0,-1
1511773087754220,-1,-2,0,-1,-1,0,0,-1
1511773087754220,-1,-1,-2,-1,-2,-1,-1,-1
1511773087776237,0,1,-2,-1,0,0,-2,-1
1511773087776237,1,-1,-1,0,-2,-2,-1,0
1511773087777250,-1,-2,0,0,0,-1,-1,0
1511773087777250,0,1,-1,-2,-1,-1,0,1
1511773087790248,0,-1,-2,-2,-2,0,-1,-1
1511773087790248,-2,-3,1,-1,-3,-2,0,-1
1511773087798266,1,0,1,0,-1,0,-1,-1
1511773087798266,-1,-3,-2,-2,1,-3,-2,-1
1511773087814272,0,0,-1,0,0,-1,0,0
1511773087814272,-1,0,0,-1,-3,-1,-2,-1
1511773087814272,-1,-1,-3,-1,-1,-1,-2,-2
1511773087814272,-2,-1,-1,-1,-2,-1,-1,-1
1511773087836278,-2,-1,0,-1,-2,-1,-3,-2
1511773087836278,-2,-3,0,0,-1,-2,1,-1
1511773087837280,0,-2,-1,-1,-2,0,-1,-2
1511773087837280,-2,1,-1,-1,0,1,-3,-1
1511773087850292,0,-1,-2,-1,-2,-1,-2,-1
1511773087850292,-1,-1,-2,0,0,1,-2,1
1511773087858309,-2,0,-1,-2,-3,-2,0,-1
1511773087858309,0,0,-2,-1,0,0,0,0
1511773087873326,-2,1,0,0,0,-3,0,-2
1511773087873326,-2,1,-2,1,-1,0,-1,-2
1511773087880310,0,-1,1,0,-1,-1,-1,-1
1511773087880310,-2,0,0,-1,-1,-1,-1,-1
1511773087896321,0,-3,-2,-1,0,-1,1,0
1511773087896321,-1,-1,0,-3,-1,-1,-2,0
1511773087897322,-1,-2,-1,0,-1,1,0,0
1511773087897322,-1,-1,-1,-2,-2,0,-2,0
1511773087910386,-2,-2,0,-1,0,0,-1,0
1511773087910386,-1,0,-1,-2,-1,-2,1,-2
1511773087918345,-2,-2,-1,-1,-2,0,-1,-1
1511773087918345,1,-2,-1,-1,-2,-3,-1,-1
1511773087934349,-1,0,-2,-3,-2,-2,0,-1
1511773087934349,-1,0,0,0,-1,-1,-2,-2
1511773087934349,-1,1,-1,0,0,0,0,-1
1511773087934349,-3,-1,-2,-1,-1,-1,1,0
1511773087956384,3,-1,-1,-2,-1,0,-1,-2
1511773087956384,-2,0,-2,-4,-2,-1,-1,0
1511773087957363,-1,1,-1,-2,-3,0,-2,-3
1511773087957363,-1,-2,-1,-1,0,-2,-1,-2
1511773087970386,1,0,0,1,-2,-1,-2,0
1511773087970386,1,2,0,0,1,1,1,1
1511773087978378,-9,-9,-3,-1,0,0,-1,-1
1511773087978378,-9,-4,-4,-2,-3,-3,-1,-2
1511773087993398,1,-1,-5,-1,-3,-2,-1,-3
1511773087993398,1,-2,-1,0,-1,-1,-3,-1
1511773087994398,5,7,2,-1,0,-1,0,3
1511773087994398,6,2,1,1,0,0,-2,-1
1511773088016415,-5,2,1,0,0,0,-1,-1
1511773088016415,8,2,0,0,-2,-1,0,0
1511773088017416,-11,0,-1,0,0,-1,-1,-2
1511773088017416,-2,-5,-1,-3,-2,-1,1,2
1511773088038443,-6,-9,-2,-2,0,-2,-1,-2
1511773088038443,0,-2,-1,-2,0,0,-2,-2
1511773088039422,3,0,-1,-3,-1,-2,-1,-2
1511773088039422,0,1,-2,-1,-2,-1,-2,-2
1511773088052455,-2,1,0,-2,1,0,1,1
1511773088052455,-5,-4,-1,0,-2,-4,-1,-3
1511773088061438,0,-2,-3,0,0,1,0,-2
1511773088061438,-1,-1,-1,-1,-1,-2,-1,-1
1511773088076471,2,-1,-2,-1,-3,-1,0,-1
1511773088076471,-4,-1,-2,0,-2,-1,-1,-1
1511773088078450,1,-1,-1,0,-1,-1,-1,-1
1511773088078450,0,0,0,0,-1,1,0,-1
1511773088099518,-2,1,1,-1,-2,0,-2,-1
1511773088099518,-4,-2,-2,-1,-1,0,0,-1
1511773088106483,1,-2,-1,-3,-2,0,-1,-2
1511773088106483,-1,-2,-2,-2,-1,0,-1,-1
1511773088112483,-2,-1,-1,-1,-1,0,-1,0
1511773088112483,-2,0,0,-1,-2,-2,-1,1
1511773088128498,1,-1,0,-2,0,-2,-1,0
1511773088128498,1,1,-2,0,0,-1,-1,0
1511773088136514,0,-2,-1,-3,-3,-1,-1,-1
1511773088136514,-1,-3,-1,-2,-2,-1,-2,-1
1511773088137503,-2,0,-2,0,-1,0,-3,-1
1511773088137503,-1,0,0,0,-1,-2,-1,-2
1511773088158516,-2,0,0,1,-1,-2,-2,-2
1511773088158516,-2,0,0,0,-2,0,-1,0
1511773088160517,-1,-4,0,0,-2,-2,0,-1
1511773088160517,0,-1,0,-2,-1,-2,1,0
1511773088172543,0,-2,0,-1,1,-2,-1,0
1511773088172543,-1,-2,-1,-4,-1,0,-1,0
1511773088181523,1,-1,-2,-1,-1,-2,-1,1
1511773088181523,-2,0,-2,-1,-2,-1,-2,0
1511773088196543,-2,-1,-2,-2,-1,-1,-1,-2
1511773088196543,-1,-1,0,0,-1,-1,-2,-2
1511773088197534,-1,-3,-1,0,-1,-1,-1,-2
1511773088197534,-1,-1,-1,-1,0,0,-1,0
1511773088218548,-2,-2,-1,-3,-1,-2,-1,0
1511773088218548,-1,0,-2,-2,-2,0,0,-1
1511773088220550,-1,-3,-2,-2,-2,0,-1,-1
1511773088220550,-2,-1,-1,0,-1,-2,-1,-2
1511773088233559,0,-1,-3,1,0,-1,0,0
1511773088233559,-1,-3,-2,1,-1,-1,-2,-4
1511773088239604,0,-2,-2,-1,-1,0,0,1
1511773088239604,0,-1,-2,-2,0,-2,-1,0
1511773088256622,-1,1,-2,0,-2,-1,-1,-1
1511773088256622,-2,-1,-2,-2,-1,-2,-2,0
1511773088257587,-1,-1,-1,-1,-1,-1,0,-1
1511773088257587,0,-1,-1,-1,-1,0,0,0
1511773088278602,-2,0,-1,0,-2,-2,-3,-1
1511773088278602,-2,-1,-1,-1,-1,-2,0,-1
1511773088280616,-1,0,-2,-2,-2,-1,-3,-2
1511773088280616,-2,0,-1,-1,-1,0,0,-2
1511773088292610,0,-3,-1,-1,-1,-2,-1,-1
1511773088292610,-1,0,-2,-3,0,-1,-1,-2
1511773088299619,-2,0,-1,-1,-1,-1,-1,0
1511773088299619,-2,-2,-1,-2,-1,0,0,-2
1511773088316626,-2,-1,-1,-1,-2,0,-1,0
1511773088316626,-1,-1,-1,0,1,1,-1,0
1511773088317632,-1,-1,0,-1,-1,0,-1,0
1511773088317632,0,-1,-1,0,0,0,-1,-1
1511773088338655,-1,-1,0,-1,0,-1,0,-2
1511773088338655,1,-2,0,0,-1,1,1,1
1511773088340635,-2,-3,-2,-2,-1,-1,-1,-1
1511773088340635,-2,-1,-2,-1,-1,0,-2,0
1511773088353643,0,0,0,0,-2,-1,-1,-1
1511773088353643,-2,-2,-1,0,-1,-1,-1,-1
1511773088359662,0,0,-1,-1,1,-2,1,-3
1511773088359662,0,-2,-1,-3,-3,-1,-2,-2
1511773088383664,0,-2,-2,-1,-1,-2,-2,0
1511773088383664,-1,-1,-1,0,-2,-1,1,-2
1511773088385666,-1,-2,0,0,-2,-1,0,0
1511773088385666,0,-2,-2,-2,0,-1,2,-3
1511773088406702,-2,0,-2,-2,-2,-1,-2,0
1511773088406702,0,-1,-1,-2,-2,-3,-2,0
1511773088407692,0,0,-1,0,-2,-1,-3,-2
1511773088407692,0,-1,0,-1,-1,-1,-1,-1
1511773088412686,-1,-1,-1,-2,0,0,-1,-1
1511773088412686,-3,-1,-2,0,0,0,-1,1
1511773088427720,-2,-1,-1,0,-2,-2,0,1
1511773088427720,0,-1,-1,-1,-2,-3,-2,1
1511773088436727,-1,0,-2,-1,-2,0,-1,0
1511773088436727,-2,-1,0,-1,-1,-1,-1,-1
1511773088437708,0,-2,0,0,0,1,-3,-2
1511773088437708,-1,-1,-1,-2,0,-1,-1,-1
1511773088458743,-2,-2,-1,-1,0,-1,0,-2
1511773088458743,0,-1,0,-2,-1,-2,0,0
1511773088460723,-1,-2,-1,-1,-1,-1,0,0
1511773088460723,-2,-1,-1,1,0,0,0,-1
1511773088473753,-1,-2,-1,-2,1,-2,0,-1
1511773088473753,-2,-2,-1,-1,-2,-1,-2,-1
1511773088479757,0,0,-1,-2,1,-1,-2,-3
1511773088479757,-2,0,0,-2,-2,-1,-1,0
1511773088496762,0,0,-1,-1,-2,-1,0,0
1511773088496762,1,-1,-1,1,-2,-1,-1,-2
1511773088497763,-2,-1,-1,0,0,-2,-1,1
1511773088497763,-2,-2,-2,-2,-3,0,-1,-2
1511773088518760,-4,0,1,-2,-1,-1,-2,-2
1511773088518760,-2,-2,2,-1,0,0,-1,0
1511773088526779,-2,1,-1,-1,-1,-1,-2,-3
1511773088526779,0,0,-1,0,-1,-1,-2,0
1511773088532783,-1,0,0,0,0,-1,0,0
1511773088532783,-1,-1,0,0,0,0,-2,-1
1511773088541777,-1,-2,0,-2,-1,-1,-2,-1
1511773088541777,-2,-1,0,1,0,-1,0,0
1511773088556796,-1,-2,-2,-2,-1,-1,0,-3
1511773088556796,-2,-2,-1,0,-1,-1,-1,0
1511773088557787,1,-2,-2,-1,-2,0,-2,-1
1511773088557787,-1,-1,-2,-2,-1,-2,-1,-2
1511773088578815,2,-1,0,-2,0,-2,-3,0
1511773088578815,0,0,-2,-2,-3,0,0,-2
1511773088580817,-1,0,-1,-1,-3,-2,-1,-2
1511773088580817,-3,-2,-1,1,1,0,-1,-2
1511773088592812,-1,-2,-3,-2,-4,-2,-2,-1
1511773088592812,-2,-1,-1,-1,1,-2,-1,0
1511773088601849,-2,0,-1,-1,-3,-2,0,0
1511773088601849,-1,-1,-1,-1,-1,-1,-1,0
1511773088615838,0,-1,-2,-1,-1,-1,1,-2
1511773088615838,1,0,-1,-2,-2,-1,-1,0
1511773088617840,-2,0,-1,-1,0,-2,-1,-1
1511773088617840,-1,-2,-3,0,-2,-2,-1,0
1511773088638844,-1,-1,1,1,-2,-1,-1,0
1511773088638844,-1,-1,-3,-1,-1,-2,-1,1
1511773088640846,1,-2,-1,-1,1,-1,-1,-1
1511773088640846,0,1,5,0,-1,-1,0,1
1511773088652900,-1,-2,-2,0,-1,1,-2,-2
1511773088652900,-2,-5,-10,-2,-1,-2,-1,-2
1511773088661885,-2,-3,-1,-3,-1,-1,-1,-3
1511773088661885,-1,-1,-3,-2,0,-1,-1,-1
1511773088683877,-2,0,3,0,1,0,-1,-1
1511773088683877,0,0,3,-1,0,1,1,0
1511773088685878,-1,-1,-2,0,1,0,1,0
1511773088685878,-1,-1,-1,-2,-2,-1,-2,-2
1511773088705956,-2,0,-2,-1,0,-3,-1,-1
1511773088705956,1,0,-1,1,0,-2,-1,-1
1511773088707913,-2,-1,-1,0,-3,-1,-3,-1
1511773088707913,-1,-2,-3,0,-2,-1,-2,-2
1511773088712897,0,-1,-3,-1,-2,-2,0,0
1511773088712897,-1,-2,-2,-2,0,-1,-1,-3
1511773088721920,0,-1,-1,-2,-1,-2,0,-1
1511773088721920,-1,-2,-2,-2,0,-2,-1,0
1511773088735939,-2,-1,-1,-2,-1,-1,0,0
1511773088735939,-2,0,1,-1,0,0,-1,-2
1511773088737915,0,-1,0,-1,0,1,0,-1
1511773088737915,-2,-1,-3,-1,-1,-2,0,0
1511773088758945,0,-1,-2,0,-1,-1,0,-1
1511773088758945,-1,-3,0,0,-2,-1,-2,-1
1511773088759930,-2,0,-1,-1,0,0,-1,-1
1511773088759930,-1,0,-1,0,-1,-2,-1,-2
1511773088771971,-1,-2,1,0,-1,-2,-1,0
1511773088771971,-1,-1,-3,0,-1,-1,-1,-1
1511773088780945,-1,-2,-2,-2,-2,0,-1,-1
1511773088780945,-2,-1,-1,-2,-1,-2,-1,-1
1511773088795956,-1,-1,-3,-1,0,-2,-2,-1
1511773088795956,0,0,-1,-2,-3,-2,-1,-2
1511773088797958,-1,0,-2,1,-1,-2,0,0
1511773088797958,1,-1,-1,-2,0,-2,-1,-1
1511773088818981,-1,-1,0,0,-2,1,-2,-1
1511773088818981,-1,-1,1,0,-2,-2,0,-1
1511773088819982,-1,-2,-1,-2,-1,-3,0,0
1511773088819982,-1,0,-2,-1,-2,-1,-2,0
1511773088831995,-1,-1,-2,-2,1,1,0,-1
1511773088831995,0,1,-1,0,1,0,-3,-1
1511773088841001,0,-1,-1,-2,-3,1,0,1
1511773088841001,-3,-2,-1,-1,-1,-1,0,-2
1511773088856026,0,0,-1,-2,-1,-1,-2,-2
1511773088856026,0,-1,3,0,-2,1,-1,-1
1511773088862023,0,-2,-2,-1,0,-1,-1,-1
1511773088862023,0,-2,-2,-1,-1,1,-3,-2
1511773088879016,1,0,-2,-2,-1,0,-1,-1
1511773088879016,-2,0,1,-1,-2,-2,-1,0
1511773088880015,-1,0,-1,-2,-1,-2,-2,-2
1511773088880015,1,0,-1,-2,1,-1,-1,1
1511773088893024,-1,-2,-1,-2,-3,0,-2,-1
1511773088893024,0,-1,0,0,-1,-2,0,0
1511773088901052,-1,-1,-2,-1,-1,0,-1,0
1511773088901052,-1,-1,-3,-1,-1,-2,-1,-2
1511773088916040,-1,0,0,-1,-2,-2,-2,0
1511773088916040,-1,-1,-2,-2,-1,0,0,0
1511773088918041,-2,1,-1,-1,-2,-1,-1,-1
1511773088918041,0,-2,-1,-2,-2,0,-1,-1
1511773088939115,-2,-1,0,-1,0,-2,0,-1
1511773088939115,-1,-1,-1,-1,1,0,-1,0
1511773088940072,-1,-1,0,-2,0,-2,-2,-2
1511773088940072,-1,-1,-1,-1,-2,-1,-2,-1
1511773088962130,-1,-1,-1,-2,-1,-2,0,0
1511773088962130,-3,-2,-4,-1,-1,0,-2,-2
1511773088963074,-1,-1,-2,-2,0,-3,-2,-1
1511773088963074,-2,-2,0,-4,-2,-1,0,1
1511773088984089,-1,-2,-3,0,1,0,0,-2
1511773088984089,-2,0,0,-2,1,0,0,0
1511773088985094,0,-1,-3,0,-1,0,1,0
1511773088985094,0,0,-2,-2,-1,-1,-2,-1
1511773088999129,-1,-1,-2,0,0,-1,-1,-2
1511773088999129,-1,-2,-2,-1,-1,-1,-1,-1
1511773089000101,0,-2,-1,0,0,-2,-1,-2
1511773089000101,-1,-1,-1,1,-2,-1,-2,0
1511773089021114,0,-2,-1,-1,-2,-1,-2,-1
1511773089021114,-1,-2,-1,0,-1,-2,0,0
1511773089023117,-2,-2,0,0,-1,-2,-2,-2
1511773089023117,-1,-1,-2,-2,0,-1,-1,-1
1511773089036147,-1,-1,-1,-1,-2,-2,-1,-1
1511773089036147,0,-3,-1,-2,-1,0,-2,-1
1511773089038131,-1,0,-2,0,-2,1,-2,-1
1511773089038131,-2,-2,-2,1,-1,0,1,-2
1511773089059164,-2,-2,0,0,-3,0,-2,-2
1511773089059164,-1,-1,-2,-1,1,-2,0,0
1511773089060146,0,-3,-1,-1,-1,0,-1,1
1511773089060146,0,0,-1,-2,0,0,-1,-2
1511773089081179,-3,-1,-2,-2,-2,0,-2,-1
1511773089081179,-1,-1,-1,-2,-2,-2,-1,-1
1511773089083175,0,-2,-1,-1,-2,-3,-2,-3
1511773089083175,-1,1,-3,0,0,0,0,-1
1511773089096197,0,-1,-2,1,-2,-2,-1,-1
1511773089096197,0,0,2,-2,-3,-2,-1,-1
1511773089098193,-1,-3,-2,2,1,-1,-1,0
1511773089098193,0,-1,-2,-3,-1,0,-2,-1
1511773089119195,-1,-1,-3,1,-1,-1,-1,-1
1511773089119195,-1,0,-2,-1,-2,-2,-1,-1
1511773089120186,-2,0,-2,-2,-1,1,1,-1
1511773089120186,-2,-1,0,-2,0,-2,1,-2
1511773089141210,0,1,0,-1,0,2,-1,-1
1511773089141210,-1,-1,-2,1,-1,-2,-1,-2
1511773089143211,-2,0,-1,-1,-1,-2,0,-1
1511773089143211,-1,-2,0,-1,-2,-1,0,-2
1511773089155225,1,0,1,-2,-3,-4,-2,-1
1511773089155225,-1,-2,-1,-2,-2,-1,-1,0
1511773089162232,-2,-2,-3,-4,-1,-1,-1,-1
1511773089162232,-1,-2,-4,0,-1,-1,-1,-1
1511773089179246,-2,-1,-2,-3,-2,-1,0,-1
1511773089179246,0,0,-1,0,-3,-1,-1,-1
1511773089180227,-2,-1,-2,0,2,1,-1,-2
1511773089180227,-2,-2,-1,0,-2,0,-1,0
1511773089201303,-3,0,-1,-1,-1,0,-1,-1
1511773089201303,-2,-2,-1,-1,-2,-1,-1,0
1511773089203264,-2,0,0,-1,-4,0,0,-1
1511773089203264,-1,0,0,-1,-1,-2,-1,-1
1511773089215257,0,-2,0,3,-1,-3,-2,0
1511773089215257,-1,-1,-1,-2,0,-1,0,-1
1511773089222276,-2,0,-1,-1,-2,-2,-2,0
1511773089222276,-1,-1,-2,-1,-1,0,-2,0
1511773089239287,-1,-1,-1,-1,-2,-1,0,-2
1511773089239287,-1,0,-1,0,0,-1,-1,-2
1511773089240272,-1,0,-1,-2,-2,-1,0,-1
1511773089240272,-1,0,-2,-1,-3,-1,-2,-1
1511773089261299,0,-1,0,-1,-2,0,-1,0
1511773089261299,-1,0,-1,-1,0,1,0,0
1511773089263297,0,-1,0,-1,-1,-1,-2,0
1511773089263297,-2,-1,-1,-2,-1,-1,0,0
1511773089275294,-1,-2,-1,-1,-1,0,-2,1
1511773089275294,-1,-1,-1,0,-2,-2,0,0
1511773089282299,-1,-1,-1,-2,0,-1,-1,-1
1511773089282299,-1,-3,-3,-3,0,-2,0,-2
1511773089306327,-1,0,-1,-1,1,-1,-2,0
1511773089306327,-4,-2,-1,-2,-2,0,-1,-1
1511773089308329,1,-1,0,-2,0,-2,1,-2
1511773089308329,0,1,1,-1,-1,-1,-1,-1
1511773089321326,-2,0,-2,-2,-2,-1,-1,-2
1511773089321326,-1,-1,-1,0,-1,-1,-2,0
1511773089323328,0,-1,-1,-2,-2,0,-2,0
1511773089323328,-1,-1,-2,0,-1,0,-1,-1
1511773089335338,-1,-1,-1,-1,-1,-1,1,1
1511773089335338,-2,-1,0,-2,-1,1,0,-2
1511773089342358,-1,-1,-1,0,-2,-2,0,0
1511773089342358,-1,-2,0,0,-1,-1,-1,0
1511773089358369,-1,-1,-1,-2,-2,0,-2,-2
1511773089358369,0,-1,0,0,-1,2,0,-1
1511773089360370,-1,-2,-1,-2,-1,-2,-1,-1
1511773089360370,-1,-1,0,0,-2,0,-2,-1
1511773089381384,-1,-2,0,-1,0,-1,-1,-1
1511773089381384,0,-2,-2,-2,0,-2,-1,0
1511773089383379,-1,0,-2,0,-2,0,-1,-1
1511773089383379,-2,1,-2,0,-2,-1,-1,-2
1511773089395380,-1,-2,-2,-1,-2,-1,0,0
1511773089395380,-1,-1,-1,0,-1,-3,-1,-1
1511773089402413,-1,-1,-2,-2,0,-2,0,-1
1511773089402413,-2,-3,-3,-3,-1,-3,0,-1
1511773089426431,-1,0,0,0,0,1,-1,-2
1511773089426431,0,0,0,-2,-2,-1,-1,-2
1511773089428409,-3,-3,0,1,-2,-1,-3,-2
1511773089428409,-1,-2,-1,-1,0,1,-1,0
1511773089441442,-3,-1,-3,1,0,0,-1,-1
1511773089441442,-2,0,-2,1,-1,-1,0,0
1511773089442428,-1,-1,0,-1,-1,0,-1,0
1511773089442428,-2,-1,-1,0,-2,-2,-2,-2
1511773089455439,0,-1,0,0,-1,-1,-1,-1
1511773089455439,-1,-1,-2,-1,-1,0,-1,-1
1511773089463426,0,-1,0,-1,-1,-1,1,0
1511773089463426,0,-1,0,-1,1,-2,-1,2
1511773089478451,-1,0,-1,-4,-2,-1,-1,-1
1511773089478451,-1,0,-1,0,1,-1,-1,-2
1511773089480452,-1,1,-1,-2,0,0,1,-1
1511773089480452,-1,-2,-3,-1,0,0,0,-1
1511773089501469,-2,-1,-2,-1,-1,-1,0,-1
1511773089501469,-1,-1,0,-2,-1,-2,-2,-1
1511773089502478,-1,-2,0,-3,0,-1,-2,-3
1511773089502478,-1,-2,-2,-2,-1,-1,-1,-2
1511773089514472,-2,0,-1,0,-2,-2,-2,1
1511773089514472,-1,-3,0,0,-1,-1,0,0
1511773089523484,-3,0,-1,-1,-1,1,-2,-1
1511773089523484,0,-2,1,-1,-1,-1,-1,-2
1511773089538502,-2,-2,0,1,-2,-1,0,0
1511773089538502,-1,-2,-1,-1,-2,-1,0,-1
1511773089540494,0,-1,-2,-2,-1,-2,0,-1
1511773089540494,1,-1,-2,-1,-2,-2,-3,-2
1511773089561519,-2,-2,0,-1,-2,-1,0,-1
1511773089561519,0,0,-1,-1,-1,-2,0,-2
1511773089562509,-1,0,-3,-2,0,-1,1,0
1511773089562509,-2,0,-1,0,0,0,-2,-1
1511773089574509,-2,-2,0,-1,0,-1,-2,0
1511773089574509,-1,-1,-2,-2,-2,0,1,-1
1511773089583534,-2,-1,-2,-2,-2,-1,-1,-1
1511773089583534,0,0,-1,0,-1,0,1,-1
1511773089598545,1,0,-1,1,-1,-2,-1,-2
1511773089598545,-2,-1,-3,0,-1,-1,0,-2
1511773089600523,0,-2,1,0,0,-1,-1,1
1511773089600523,-1,-3,-1,-2,-2,-1,0,0
1511773089620551,0,-1,0,-2,-1,-2,-2,-1
1511773089620551,-1,-1,-2,1,-2,-1,-2,-1
1511773089628543,1,-2,-1,-1,-1,0,-1,-2
1511773089628543,-2,0,-2,0,0,-1,0,-1
1511773089635555,-2,-1,0,-1,-1,2,-1,0
1511773089635555,-2,-2,-1,-2,0,0,-2,-1
1511773089643568,-1,0,-2,-2,0,-1,-1,-1
1511773089643568,-2,-1,1,-1,-1,-1,0,-1
1511773089658582,1,-2,-2,-1,1,0,0,-1
1511773089658582,-1,-1,-1,-2,-1,0,-1,-1
1511773089660580,0,-1,-3,1,0,-1,-1,0
1511773089660580,-1,-1,0,-1,-1,-1,-2,1
1511773089681581,-1,-3,-2,-1,-1,-3,-1,-1
1511773089681581,1,1,1,-1,0,0,-2,-2
1511773089682582,0,1,-1,-1,-3,1,0,-1
1511773089682582,-1,-1,-1,-1,-1,-2,-1,-4
1511773089694600,0,-1,-2,-1,-2,-1,-1,-2
1511773089694600,0,-2,-1,0,-1,-2,0,0
1511773089703609,-2,-2,-1,-1,-1,-1,-1,-2
1511773089703609,0,-1,-1,-1,-1,-3,-3,-1
1511773089718617,-2,0,0,0,-2,-1,0,-2
1511773089718617,0,1,0,0,-1,1,-1,-1
1511773089720618,-1,-2,-1,0,-1,-1,-1,-1
1511773089720618,0,-2,-2,-1,-1,-2,-1,-2
1511773089741624,-1,-2,0,-1,0,-1,0,-2
1511773089741624,0,0,-2,-1,-3,-1,-1,-2
1511773089742627,0,-2,-2,-1,-1,-2,-3,-2
1511773089742627,0,0,-1,0,0,1,-2,-1
1511773089754691,-1,0,-1,-1,-2,-2,-2,-1
1511773089754691,-2,-2,0,-1,-1,-1,1,-1
1511773089763639,-1,0,-2,-2,0,0,0,-2
1511773089763639,0,-2,-2,-1,-1,0,-1,-1
1511773089778663,-2,-2,-2,-1,-1,-1,-1,-1
1511773089778663,-1,-1,-2,0,-1,-3,-3,0
1511773089780651,0,0,0,-1,0,-2,-2,0
1511773089780651,-3,2,-2,-2,-2,-1,0,-2
1511773089801685,0,-1,-1,-1,-1,-1,-2,-1
1511773089801685,-2,-2,-1,-1,-1,0,-1,-1
1511773089802676,0,-3,-1,-2,-2,-3,-2,-1
1511773089802676,0,0,0,-1,-1,-1,0,-1
1511773089814674,-2,1,0,-1,-1,0,-1,-1
1511773089814674,-1,0,-1,-2,-1,-1,0,-1
1511773089823697,0,-1,-1,-2,-2,-1,-3,-2
1511773089823697,1,-2,-1,0,0,0,-1,1
1511773089838721,-1,-2,0,-1,0,0,-1,0
1511773089838721,1,-3,-1,0,0,-1,-1,-1
1511773089840715,-2,-1,-3,-1,-2,1,0,-1
1511773089840715,-1,-3,0,-1,-1,-1,-1,-1
1511773089861723,-1,0,0,1,-1,-3,-1,0
1511773089861723,-2,0,0,-1,1,-2,-2,0
1511773089862709,-1,0,1,-2,-2,-2,-1,0
1511773089862709,-1,-1,-2,0,-1,-1,-2,-1
1511773089874777,-1,0,-3,1,-1,-1,-1,0
1511773089874777,-1,-1,0,-2,-2,-1,-1,-2
1511773089883724,0,-1,0,1,0,-1,-1,-3
1511773089883724,-1,0,-1,-2,-1,1,0,0
1511773089898756,-1,-2,-2,0,0,0,0,0
1511773089898756,-1,1,-1,-2,-2,-1,-1,1
1511773089900737,-1,-2,-2,-2,0,-1,-1,-1
1511773089900737,-1,-2,0,-1,-1,-1,0,-1
1511773089920772,-1,-1,-2,-1,0,-2,0,-2
1511773089920772,0,0,-2,-1,-1,-2,0,-2
1511773089922773,-2,0,-1,-1,-2,-1,-2,0
1511773089922773,-1,-2,-1,-2,-2,0,-2,0
1511773089943788,-1,0,0,0,-2,-3,-3,-2
1511773089943788,0,0,-1,0,-1,0,0,0
1511773089945793,-1,1,1,-1,-1,-2,1,0
1511773089945793,-1,-1,-2,0,-1,-1,-1,-3
1511773089958792,0,0,-1,-1,-1,-1,-1,-1
1511773089958792,-1,-1,-2,-2,0,-1,-2,-2
1511773089960794,-1,-2,-2,-2,-1,-1,-1,-2
1511773089960794,-2,-1,-1,-1,0,-2,-1,0
1511773089981794,0,-1,0,-2,-1,-1,-2,0
1511773089981794,-1,-1,0,1,0,0,-1,-1
1511773089982795,0,0,-2,-2,-1,-2,-1,0
1511773089982795,-1,0,-1,-1,-1,-2,0,-1
1511773090003823,-1,-2,-2,1,-1,0,0,-1
1511773090003823,-2,-2,-2,-1,-2,0,-1,-2
1511773090005825,-1,-3,-2,0,-2,-1,-1,-1
1511773090005825,-1,-1,-1,-2,0,-1,-1,-2
1511773090018831,0,-2,0,-2,-2,0,0,0
1511773090018831,-1,-1,0,-2,0,-3,-1,0
1511773090019832,-1,0,-2,0,-1,1,-1,-1
1511773090019832,-1,-1,0,-2,-1,0,-1,-2
1511773090040854,-2,0,0,0,-1,-2,-1,-2
1511773090040854,0,-1,-1,-2,-1,-2,-1,-2
1511773090042849,-1,0,-1,-3,1,-1,-1,-1
1511773090042849,-1,-1,-2,-2,-2,0,-1,0
1511773090064894,-2,1,-2,-1,0,-1,-2,1
1511773090064894,0,-1,0,-1,0,-1,-2,-1
1511773090065895,0,0,-1,-1,0,-2,-1,-2
1511773090065895,-1,0,-2,-2,-1,-1,-1,0
1511773090077904,-2,-1,-1,-2,-3,-3,-1,-3
1511773090077904,-2,-1,-1,0,-1,-2,-2,0
1511773090084913,-1,-3,-1,-1,0,-1,0,-1
1511773090084913,0,-3,-1,-1,-2,-2,-2,-2
1511773090100943,0,0,0,-5,0,0,-1,-1
1511773090100943,-2,-1,-2,1,-1,2,-1,-1
1511773090102923,0,-2,-2,-1,-2,-1,-3,-1
1511773090102923,-2,0,-1,2,-1,-1,-2,0
1511773090130954,-1,-3,0,-1,-2,0,-1,-1
1511773090130954,0,-1,-1,-1,1,0,0,-2
1511773090132956,-3,0,-2,-2,-2,-2,1,0
1511773090132956,-2,-1,-2,0,-1,0,1,-1
1511773090137949,-2,-1,0,0,0,0,0,-2
1511773090137949,-3,-1,-1,-2,-1,-2,0,0
1511773090144965,1,-2,0,-1,-1,-2,-2,-2
1511773090144965,-1,0,0,-1,-1,-2,-1,-2
1511773090160982,0,-1,-2,-1,-2,-1,0,-2
1511773090160982,0,-2,-1,-1,-2,-1,0,-1
1511773090162964,-2,-1,-2,-3,-3,-1,-2,-1
1511773090162964,-1,-1,-2,-3,-1,-1,0,-2
1511773090183991,-2,-2,-2,0,0,1,-1,0
1511773090183991,0,-2,-1,1,-1,-1,1,0
1511773090184980,0,-1,-1,-1,-1,-1,-2,0
1511773090184980,0,-2,1,-1,-1,0,-2,-2
1511773090198012,0,-1,-2,0,0,-1,-1,0
1511773090198012,-1,-1,-1,-1,-3,-2,-1,-2
1511773090205016,-2,-1,-2,0,-1,-1,0,-1
1511773090205016,-1,1,-1,-1,-1,-2,-3,-1
1511773090221028,-3,-1,-1,0,-1,-3,-1,0
1511773090221028,-2,-2,-1,-2,0,0,-1,0
1511773090223028,-2,-1,-1,-3,-1,-1,0,-1
1511773090223028,-1,-1,-2,-1,-2,-1,-1,-1
1511773090244031,-2,-1,-2,0,-3,0,1,-2
1511773090244031,-1,-1,-1,-1,-1,0,0,-1
1511773090245022,-1,-1,-1,0,0,1,-1,1
1511773090245022,0,-2,-4,-1,-1,0,-1,0
1511773090258032,0,-1,-1,-1,0,-2,-2,-1
1511773090258032,-1,-1,0,-2,-1,-2,1,-2
1511773090265046,-1,0,-1,-1,-2,-1,-2,-2
1511773090265046,-2,-1,0,-2,-1,-2,-2,-1
1511773090281057,-1,-1,-1,-3,-1,-1,-2,-1
1511773090281057,-1,2,0,-1,-1,0,-1,0
1511773090283049,-1,-3,-1,-1,-3,-3,0,-2
1511773090283049,-2,-2,-1,0,1,0,0,1
1511773090304113,-1,1,-1,-1,-2,-1,0,0
1511773090304113,-2,-1,-2,-2,0,0,-3,-1
1511773090305067,-2,0,-1,-1,-1,0,-1,-1
1511773090305067,1,-1,-1,0,-1,-1,-2,-1
1511773090326102,0,-1,1,-1,0,-1,-2,-1
1511773090326102,-1,0,-2,0,0,-2,-1,-2
1511773090328090,0,-2,-1,-2,-2,-1,0,2
1511773090328090,-2,0,0,-1,-1,-1,-1,-1
1511773090349098,-2,-2,0,-3,0,-1,0,-2
1511773090349098,0,-2,-1,0,-2,-2,-2,-1
1511773090350096,-2,-3,-2,-1,-2,-1,0,0
1511773090350096,-2,-1,-2,-1,-1,-2,0,-1
1511773090364105,0,-2,0,-1,-2,-1,0,-1
1511773090364105,-1,1,-1,-1,-1,0,-1,0
1511773090365120,-3,-1,-1,1,0,0,-1,-1
1511773090365120,-2,-2,-1,-2,-1,-3,-2,0
1511773090378129,0,-1,-2,0,-1,-2,-3,-1
1511773090378129,0,-1,-1,-2,-1,-1,0,0
1511773090385145,-1,0,-1,-1,0,-1,-1,-2
1511773090385145,-1,-1,-3,-1,-1,-1,-1,-2
1511773090401157,-1,0,-1,1,1,-2,0,-1
1511773090401157,0,-3,0,-1,-3,-1,-3,-1
1511773090403156,-1,-1,-2,-2,-2,-1,-2,-3
1511773090403156,-1,0,-2,-1,-1,-1,0,-1
1511773090424262,-1,0,-1,-2,-1,-1,0,-1
1511773090424262,-2,0,-2,-2,0,0,0,0
1511773090426243,2,-1,-2,-2,0,0,0,0
1511773090426243,-1,-1,1,-1,-2,-1,-1,-2
1511773090437236,-2,-1,-1,-1,-3,0,-1,0
1511773090437236,-1,-1,-1,-2,-1,-2,0,-3
1511773090446227,-3,-3,-1,-2,0,-2,-3,-2
1511773090446227,-1,-3,-2,1,-1,-2,0,-1
1511773090460265,1,-1,-3,-1,0,-1,-1,1
1511773090460265,1,-2,-2,0,-2,0,-1,-1
1511773090469257,-1,-1,-1,0,0,-3,-1,-2
1511773090469257,0,0,0,0,-3,0,-1,0
1511773090484267,-2,0,0,-1,-1,-3,-3,0
1511773090484267,0,-1,-2,-2,-1,-1,0,1
1511773090485255,-1,-2,-2,-1,-1,-1,0,0
1511773090485255,-3,-1,-1,-2,-3,1,-3,-1
1511773090497263,-2,0,-1,-1,-2,1,-1,1
1511773090497263,-1,-1,-2,-1,-2,0,-1,-2
1511773090506270,0,0,0,1,0,-2,-2,0
1511773090506270,0,-2,-2,-1,-1,-2,-1,-1
1511773090521337,-1,-1,0,0,1,0,1,-2
1511773090521337,-3,-2,-2,-2,1,-2,-2,-3
1511773090523306,-1,-1,-3,-1,-1,-2,0,-1
1511773090523306,-2,-3,-2,1,-2,-2,0,-1
1511773090543295,-2,-1,-1,-1,0,-1,-1,-1
1511773090543295,-1,-1,-1,1,0,-1,0,0
1511773090545297,-1,-2,-2,-2,0,0,-2,0
1511773090545297,-1,-1,-1,-1,-1,0,-1,-1
1511773090557343,-2,-2,0,-1,-3,-1,-3,-1
1511773090557343,-2,0,-1,-1,0,-1,-1,0
1511773090566312,-1,0,0,-3,-2,-2,-1,-1
1511773090566312,0,0,-1,-1,0,-1,-1,0
1511773090581329,-2,-1,-2,0,-2,-2,-1,-3
1511773090581329,-1,-1,-1,-1,-2,-1,-1,0
1511773090583327,-1,-2,-2,-1,-2,1,-1,0
1511773090583327,-1,-2,0,-2,-1,-1,-3,-3
1511773090603363,-2,-2,-1,1,-1,-1,0,-2
1511773090603363,1,0,0,-2,-1,-2,-1,1
1511773090605341,0,-1,-1,0,0,-2,-1,-2
1511773090605341,-1,-1,-1,-1,-1,-2,-1,-3
1511773090617361,-1,-1,0,-1,-2,-1,-1,-1
1511773090617361,-1,-1,-1,-3,0,-1,-2,0
1511773090632358,-1,-1,-3,-2,-1,0,-2,0
1511773090632358,-1,-1,-1,-3,0,0,0,0
1511773090640392,0,-1,0,-1,0,-2,-1,0
1511773090640392,-1,-1,-2,-1,0,0,-1,-2
1511773090649371,0,0,0,0,-2,0,0,-1
1511773090649371,0,0,-2,0,-1,1,1,0
1511773090671445,-1,0,-2,-2,-1,0,0,0
1511773090671445,0,-3,-2,0,0,-2,1,0
1511773090672416,-1,-2,-1,0,-1,-1,-1,-2
1511773090672416,-2,-1,-1,-2,-1,-3,-2,0
1511773090677403,-2,-1,-1,0,-3,-1,0,0
1511773090677403,-1,-1,-1,-2,-2,-2,-1,0
1511773090686398,-1,-1,-2,0,-2,-1,0,-1
1511773090686398,-3,-2,-1,-1,0,-1,0,-3
1511773090701429,-1,-2,-1,-1,0,-1,-1,-1
1511773090701429,-1,1,-1,-1,-2,0,-2,1
1511773090702429,-2,-2,-2,-2,-1,-2,0,0
1511773090702429,-1,0,0,-1,0,-1,-1,0
1511773090723481,0,-1,0,-1,-1,-1,-2,0
1511773090723481,0,-4,0,-2,0,0,0,-3
1511773090725438,-1,1,-1,-2,-1,-2,-2,-1
1511773090725438,0,0,-2,-2,-3,1,-1,0
1511773090737440,-1,-1,-1,-1,0,-1,0,0
1511773090737440,-1,0,-1,-1,-1,-1,-1,-1
1511773090746440,-1,-2,0,-1,-2,-1,0,0
1511773090746440,0,-2,-1,1,-1,-2,-2,-2
1511773090761457,1,-4,0,0,-1,0,-1,-1
1511773090761457,-1,-2,-1,-1,-3,-1,-2,-2
1511773090763452,1,0,0,-3,0,-2,0,-1
1511773090763452,-1,0,-1,-2,-3,-2,-1,-1
1511773090783490,-1,-2,-1,0,-1,-1,-1,-2
1511773090783490,-2,1,0,-1,-1,-1,-2,-2
1511773090785473,-1,-1,-3,-1,-2,-1,-5,-2
1511773090785473,-1,-1,-1,-2,0,-1,0,-1
1511773090797491,-2,-1,-2,-1,-1,-2,-2,0
1511773090797491,-1,-1,-2,-1,-2,0,-1,0
1511773090806482,-1,-1,-1,-2,0,-1,1,-1
1511773090806482,0,-1,1,1,-1,0,-1,-2
1511773090821507,-2,-2,-2,0,-1,0,-1,-2
1511773090821507,0,-2,-2,0,-2,0,-3,-3
1511773090822494,-1,-1,-1,-2,0,-1,-1,-1
1511773090822494,-3,-2,-2,-2,-1,-2,-1,-2
1511773090843533,-2,-2,0,-1,0,-1,0,0
1511773090843533,-2,-1,0,1,0,-2,-1,-1
1511773090845510,0,-1,-1,0,0,-1,-2,-1
1511773090845510,0,-2,0,0,-1,-1,-1,0
1511773090866528,-1,0,-2,-3,0,-1,-1,-2
1511773090866528,-2,-3,-1,-3,0,-1,-1,-2
1511773090867527,-2,-1,-1,-1,-1,0,-1,-1
1511773090867527,-2,0,0,0,-2,-1,-1,-1
1511773090881552,1,-1,1,0,-2,0,0,0
1511773090881552,-1,-1,0,-1,-1,-2,0,1
1511773090882561,-1,-2,-2,-1,0,0,0,0
1511773090882561,0,-1,-2,0,-2,0,-1,-1
1511773090903557,-1,0,-3,0,-2,-2,-2,-1
1511773090903557,-1,-1,-2,-1,-1,-3,-1,-1
1511773090905557,-1,0,-2,-1,-1,-1,-2,-2
1511773090905557,-2,-1,-2,1,-1,0,0,-2
1511773090926567,-1,-1,-1,-2,-1,0,1,-2
1511773090926567,1,-1,0,-1,-1,0,-1,-1
1511773090927567,-2,0,-1,-2,-1,-1,-1,0
1511773090927567,0,-1,-1,0,0,-2,1,0
1511773090941577,-1,0,0,-1,-2,1,-2,-1
1511773090941577,-1,-1,-2,-1,0,-1,-1,1
1511773090948599,-2,0,0,-1,0,-2,-1,-2
1511773090948599,0,0,0,-2,-1,-1,-3,0
1511773090963635,-2,-1,0,-2,-1,1,-2,0
1511773090963635,-1,-1,-2,-1,-1,0,-1,-1
1511773090965650,-1,-2,-2,-1,-2,-1,0,-1
1511773090965650,-3,0,-1,-1,-1,0,0,-2
1511773090986673,0,-2,-3,0,0,-2,-1,0
1511773090986673,-1,-1,-2,-1,-2,-2,0,-1
1511773090987659,-1,-1,0,-1,-1,-1,-2,-1
1511773090987659,-2,-1,-1,-1,-1,-2,-1,-1
1511773091000662,0,1,-2,0,-2,-1,-2,-2
1511773091000662,-1,-1,-3,-2,-2,-1,0,0
1511773091007734,-1,0,-1,-1,-3,-2,0,-1
1511773091007734,0,-1,-1,-1,-1,-2,-2,0
1511773091023682,1,-1,0,-4,-1,-1,0,-2
1511773091023682,1,-1,0,0,-2,-1,-1,0
1511773091025683,-3,-2,-1,1,-1,0,0,-2
1511773091025683,-1,-1,-2,0,-1,-1,1,-3
1511773091046701,-3,1,0,1,0,-1,1,0
1511773091046701,-3,-1,-1,-1,0,0,-1,-2
1511773091047701,1,1,-1,-3,-1,-1,-2,1
1511773091047701,-2,-2,-2,0,-1,-1,-3,-1
1511773091060712,-1,-2,-1,-1,-1,-1,-2,0
1511773091060712,-1,-1,0,-1,-1,0,-1,-1
1511773091067710,-1,-2,-2,-2,-1,-1,-3,-1
1511773091067710,0,2,1,-1,0,-1,-1,0
1511773091083738,-1,-1,-2,-2,-1,-1,-2,-1
1511773091083738,-1,-1,-1,-1,-1,-1,0,0
1511773091085722,-2,-2,0,-1,-3,-1,0,-1
1511773091085722,0,-1,-1,1,-1,-1,-1,0
1511773091105792,-2,-2,-2,-1,-1,-1,0,-2
1511773091105792,-1,-1,0,0,0,-1,-1,-2
1511773091107750,-1,0,-3,1,0,-1,0,-1
1511773091107750,-2,-3,-1,-1,-1,-2,-1,-2
1511773091120762,0,-2,-2,-2,-2,-2,-1,-2
1511773091120762,-1,-1,-2,-1,-1,-1,-2,-1
1511773091127764,0,-1,0,-1,-1,0,0,-1
1511773091127764,-1,-1,-1,-2,-1,0,-2,0
1511773091143764,0,-2,-1,1,0,1,-1,-1
1511773091143764,-1,-2,-2,-2,-2,0,0,-1
1511773091145764,-1,-2,-1,-1,0,-1,-2,-2
1511773091145764,-1,0,0,0,-2,0,1,-1
1511773091165788,1,0,-1,0,0,0,-2,-1
1511773091165788,0,-2,0,0,1,-2,-3,-1
1511773091167790,-1,1,-1,-1,0,0,0,0
1511773091167790,-2,-3,-2,-2,0,-1,0,-1
1511773091180789,-2,0,-1,-2,-2,-1,-2,-1
1511773091180789,-1,-2,-3,-2,1,0,0,-1
1511773091186808,-1,-1,0,-1,-1,-2,-1,0
1511773091186808,-1,0,-2,0,-2,-1,-2,0
1511773091203910,-3,-1,-2,-1,-1,0,0,0
1511773091203910,-1,-1,0,0,-1,-3,-1,-4
1511773091205855,-2,-3,0,-2,-2,-1,-2,-1
1511773091205855,-2,-2,-1,-1,-2,-1,0,-1
1511773091226887,0,-2,-1,-1,-1,-2,-1,1
1511773091226887,-1,0,-3,-2,-3,-1,-1,-1
1511773091227870,-2,-2,-1,-1,0,-1,-1,-1
1511773091227870,-1,1,-2,-1,-1,-1,0,-2
1511773091247940,0,0,1,-3,-2,0,0,-2
1511773091247940,1,-1,-3,-2,-1,0,-1,-2
1511773091256906,-1,-1,-2,-2,-2,-1,-1,-2
1511773091256906,-1,0,0,-2,-2,0,-1,1
1511773091263896,-2,-1,-1,-1,-1,-1,0,0
1511773091263896,-2,1,0,-2,-2,-1,-1,-1
1511773091264903,1,-1,0,-1,-3,-1,0,0
1511773091264903,0,-3,-2,-1,-1,0,-2,-1
1511773091285978,-1,-2,-1,1,-1,-1,-1,-3
1511773091285978,-2,-1,-2,0,-1,-1,-1,1
1511773091287913,-1,-2,-2,-1,-1,0,-1,-2
1511773091287913,0,-2,0,-1,-1,1,-1,-1
1511773091300942,0,-1,-1,-1,1,-2,-2,-3
1511773091300942,-1,-2,-2,0,-1,1,1,0
1511773091307955,-1,-2,-2,-1,0,-1,-1,-2
1511773091307955,-1,0,-1,1,-2,-2,-2,-1
1511773091323962,1,-3,0,0,-2,1,0,0
1511773091323962,-1,-1,-2,-1,0,-1,-1,-1
1511773091324939,0,-1,-1,-1,0,0,-2,-1
1511773091324939,-1,-1,-1,-1,-3,-1,0,-2
1511773091345954,-3,-1,-1,0,-2,-1,0,0
1511773091345954,-1,-1,-1,-2,0,-2,-2,-1
1511773091347961,-1,0,-1,-1,-3,-2,0,-1
1511773091347961,-2,1,-2,-1,0,0,-2,-2
1511773091359965,0,1,0,-1,-2,0,1,1
1511773091359965,-1,-1,-2,-2,-1,-1,0,-2
1511773091368969,-2,-2,-2,-1,1,-2,0,0
1511773091368969,-2,-1,-1,-1,0,-1,0,2
1511773091383999,-2,1,-4,-1,-1,-1,-1,-1
1511773091383999,0,-1,-1,-2,-1,-1,-2,-1
1511773091384998,0,1,-1,-1,0,-1,-1,0
1511773091384998,0,0,0,-2,-2,-1,0,-1
1511773091406018,-1,-3,-2,-1,0,-1,-1,-1
1511773091406018,-3,-1,-2,-3,-3,-1,-1,0
1511773091408018,-2,-1,-1,-1,-3,-1,-2,0
1511773091408018,1,-2,-1,-2,0,-1,0,0
