timestamp,emg1,emg2,emg3,emg4,emg5,emg6,emg7,emg8
1514899300069118,-2,6,0,0,-1,-1,-1,-3
1514899300069118,1,-2,-2,-2,-2,-2,0,-1
1514899300069619,-1,-3,-1,-2,0,-1,-1,-1
1514899300069619,-2,-1,-3,-1,1,0,-2,-1
1514899300082626,-1,-4,-2,0,-2,-1,-3,0
1514899300082626,-2,-1,-2,-1,-1,-1,-1,-1
1514899300091134,-2,1,-1,-1,-1,-1,0,0
1514899300091134,-1,-1,0,-1,0,-2,-2,-2
1514899300106147,-1,-2,0,0,-2,0,0,-3
1514899300106147,0,-2,-1,0,0,-1,0,-1
1514899300106646,-2,-3,0,1,-1,-3,0,-1
1514899300106646,-2,-1,1,-1,-2,-1,-1,-1
1514899300128660,-2,0,-2,-2,-1,-2,-2,-1
1514899300128660,1,-1,-2,-2,-1,-2,-1,0
1514899300129661,1,-3,-2,-2,0,1,-1,-2
1514899300129661,0,-2,-2,0,-2,-1,0,-2
1514899300142670,-1,-2,-3,-1,0,0,0,-1
1514899300142670,-3,-1,-2,-1,0,-1,-1,-1
1514899300150675,-1,0,-1,1,-2,-1,-1,-1
1514899300150675,-1,-2,-1,-3,-2,1,0,0
1514899300165685,-1,6,1,0,-2,-2,1,0
1514899300165685,-1,1,-1,0,-2,0,-3,-1
1514899300166686,0,1,-1,-2,-1,-1,-1,-2
1514899300166686,0,0,0,-1,-2,-1,-2,-1
1514899300189205,0,-2,-2,-1,-3,0,0,-1
1514899300189205,0,-3,0,-1,-2,0,-1,0
1514899300189706,0,1,2,0,-2,0,-1,0
1514899300189706,-2,-1,0,-2,0,-1,-1,0
1514899300202717,-1,-3,-3,-2,-1,-1,-1,-1
1514899300202717,0,0,-2,0,0,-4,-2,0
1514899300210718,-2,-3,-3,-1,-2,-3,-1,-1
1514899300210718,-2,0,-2,0,0,-2,-2,0
1514899300226729,-1,-3,-1,-2,-1,-1,-2,-1
1514899300226729,1,-2,0,-1,-1,-2,0,0
1514899300228230,0,-2,-2,-2,-1,-1,-1,0
1514899300228230,-2,0,-1,-1,0,-3,-2,-1
1514899300248744,-1,-2,1,-2,0,-3,1,-1
1514899300248744,-1,-1,-2,0,-1,-1,-1,-1
1514899300249745,-1,0,-2,-2,-1,-1,1,-1
1514899300249745,-2,-1,0,-2,-1,0,0,-1
1514899300262254,-3,-10,-4,-4,-2,-2,-2,-2
1514899300262254,-1,-4,-1,-1,-1,-1,1,0
1514899300270760,1,-1,0,-1,-1,-1,-1,-1
1514899300270760,-1,-1,-3,-1,0,0,-2,-3
1514899300285772,-1,-1,-1,-1,-1,0,-1,-1
1514899300285772,-1,-2,-1,-1,-1,0,1,-2
1514899300286774,-1,-1,-1,0,-2,-2,-1,0
1514899300286774,0,-2,-1,-1,-2,-2,-2,-2
1514899300308787,1,0,0,0,-1,-1,-3,-2
1514899300308787,-2,-2,-1,-1,-1,-1,-2,0
1514899300309790,-2,1,-1,-2,0,0,-1,0
1514899300309790,-1,0,-2,-2,-2,-1,0,0
1514899300322296,0,-2,-3,-2,-1,-1,-1,-1
1514899300322296,0,-1,-1,-1,-2,0,-1,-2
1514899300330804,0,0,-1,-1,1,-2,-2,-1
1514899300330804,-1,-2,0,1,-1,-1,-2,-1
1514899300345813,-2,-3,-1,-2,-1,0,1,-1
1514899300345813,-3,-3,0,-1,-1,-2,-1,-1
1514899300346313,-1,5,1,0,0,0,0,-1
1514899300346313,-2,1,-1,-1,-1,0,-1,-1
1514899300369331,0,1,0,0,0,-2,-1,-2
1514899300369331,0,-1,-1,0,1,-1,0,-1
1514899300369830,-1,-3,-2,1,-2,-1,0,-2
1514899300369830,0,1,-2,-2,-2,0,1,-3
1514899300382340,-1,1,0,-1,-3,0,-1,0
1514899300382340,-1,-3,-1,-2,1,-4,-1,0
1514899300390844,-2,-4,-2,-3,0,-1,-1,0
1514899300390844,-2,-3,-1,0,0,-2,0,-1
1514899300406355,0,-3,-2,-1,1,-2,-2,-1
1514899300406355,0,-2,-1,-1,0,-2,-1,-2
1514899300413362,-1,-3,-2,-1,-1,0,-1,-1
1514899300413362,0,0,-1,-1,-1,-2,-2,-1
1514899300428871,0,-2,-1,-1,-1,-2,-1,-1
1514899300428871,-2,-1,-1,-1,-3,-2,-1,0
1514899300429872,0,-1,-1,-1,-1,-1,0,-2
1514899300429872,-1,-2,-2,0,-2,1,-1,0
1514899300451387,-1,0,0,0,-1,-1,1,1
1514899300451387,-2,-1,-2,0,-2,-2,-1,-2
1514899300452400,-1,-12,-4,-2,-1,-1,-2,-1
1514899300452400,-1,-1,-1,-2,-2,-1,-3,-1
1514899300465897,0,-2,1,0,-2,-1,-2,-1
1514899300465897,0,0,-1,-2,-1,0,-1,-1
1514899300466398,0,1,1,0,0,-2,0,-1
1514899300466398,-2,-1,-2,-2,-1,1,0,-1
1514899300488914,0,-1,-1,-2,0,-2,-1,-2
1514899300488914,0,-2,-1,0,-1,-1,0,-1
1514899300489415,-2,1,0,-1,-2,-1,-1,-1
1514899300489415,0,0,0,-1,-1,-2,0,-1
1514899300511431,-2,1,0,-1,0,0,-1,1
1514899300511431,1,0,-1,-1,-2,-1,-2,0
1514899300512430,-1,0,-2,-1,-3,0,-1,-1
1514899300512430,0,-2,-2,-1,-1,-2,-1,0
1514899300525940,-2,-1,-2,-2,-3,1,0,-1
1514899300525940,-2,-2,0,-2,-1,-1,-1,-1
1514899300526441,-1,0,0,-1,0,0,-2,-2
1514899300526441,-1,-2,-1,-2,0,-2,-1,-3
1514899300548956,-1,0,-1,-2,0,-1,0,-1
1514899300548956,1,-2,-1,-2,-1,0,-1,1
1514899300549457,-2,0,-1,0,0,-1,-1,0
1514899300549457,-1,1,-2,0,-1,-1,0,-1
1514899300571472,2,7,2,0,-1,-1,-1,-1
1514899300571472,-2,-2,0,0,-1,-1,-1,-1
1514899300571972,-2,-1,-1,-2,-2,-1,0,0
1514899300571972,-1,-1,0,-1,-1,-2,0,-1
1514899300585983,-3,-5,-3,0,-1,-1,-1,-2
1514899300585983,-2,-5,-1,0,-3,0,-2,-1
1514899300586483,-1,0,-1,0,-1,-2,0,-2
1514899300586483,0,-2,-1,-1,-1,-1,-1,-2
1514899300609000,-1,-3,-3,-1,0,0,-1,-1
1514899300609000,-1,-2,-1,-2,-1,-2,-3,-3
1514899300610001,-1,-1,-1,0,-1,-1,0,-1
1514899300610001,1,-1,-1,-1,-1,-1,-2,1
1514899300631514,-1,-3,-1,-2,-2,-1,-2,-1
1514899300631514,-1,-2,-1,-1,0,-3,0,-1
1514899300632015,-1,-3,-2,-1,-2,-2,-1,1
1514899300632015,-2,-1,-1,-1,-2,0,-1,-2
1514899300645525,-2,-2,-2,-2,0,-2,-3,-2
1514899300645525,-2,-1,1,-2,-1,0,-1,-2
1514899300646526,0,1,1,-1,-1,-1,-1,-1
1514899300646526,-1,-1,-1,0,-1,-2,0,-2
1514899300669543,-3,-2,1,-1,-1,-1,0,0
1514899300669543,0,0,-2,0,-1,-1,-1,0
1514899300670043,-1,0,1,-2,-2,-1,0,-1
1514899300670043,-2,-9,-5,-2,0,-1,-3,-2
1514899300691557,0,0,-1,-2,-1,-2,-1,-2
1514899300691557,-2,-1,0,-1,0,-2,-2,0
1514899300692058,-1,-1,-1,0,-1,0,-2,-2
1514899300692058,-2,-1,-1,-1,-1,-3,-1,-2
1514899300705567,-3,-3,-2,0,0,-2,-2,-2
1514899300705567,-2,-3,-2,-1,-1,-2,0,-1
1514899300706568,-1,-1,-2,-2,-3,-1,-1,-1
1514899300706568,-2,4,-1,-2,0,-1,0,0
1514899300728583,-2,-3,-1,-1,-1,-2,0,-1
1514899300728583,0,0,0,-2,-2,-2,0,-1
1514899300729584,-1,-1,-1,-1,0,-1,0,-2
1514899300729584,0,2,0,-1,-2,-1,0,-1
1514899300751599,-1,-3,0,-1,0,-2,-1,-1
1514899300751599,-1,-2,-2,0,-2,-2,-1,-2
1514899300753101,-2,-1,0,-1,-2,0,-2,-1
1514899300753101,-1,0,-1,0,-2,1,-1,-1
1514899300774122,0,-2,-4,-1,0,-2,0,-1
1514899300774122,-1,-16,-3,-1,-1,-1,-1,0
1514899300774616,-3,0,0,-2,0,-1,0,0
1514899300774616,-1,4,0,-2,-1,-2,-2,-2
1514899300788626,1,0,-2,-2,-1,-1,-1,0
1514899300788626,-1,1,0,-2,-1,0,0,-1
1514899300789626,-1,2,-2,1,-1,-2,-1,-3
1514899300789626,-1,-5,-1,-1,0,0,0,-1
1514899300811142,0,1,-1,0,-1,1,-1,0
1514899300811142,-2,1,0,-2,0,-4,-1,0
1514899300812142,-2,-2,-1,-1,-1,-1,-1,0
1514899300812142,-1,1,-3,-2,-1,-2,-1,-2
1514899300825152,-2,-4,1,0,0,-2,-1,-2
1514899300825152,0,1,-1,0,-1,-1,0,-1
1514899300834158,-1,-2,0,-2,-1,-2,0,-2
1514899300834158,-1,0,-1,-1,-1,-1,-2,-1
1514899300848668,-1,-1,-2,-2,0,-1,-1,0
1514899300848668,0,-4,-3,-2,-2,-2,-2,0
1514899300850669,-2,-3,-2,-1,-1,-2,-2,-1
1514899300850669,0,-1,-1,-2,-2,-1,-1,1
1514899300872185,-1,0,-1,0,-2,-1,-1,-1
1514899300872185,-2,3,0,-2,-2,-1,1,-1
1514899300873685,-1,-3,-1,-1,-1,-1,-1,-2
1514899300873685,-3,1,-1,0,-1,2,-1,-1
1514899300885194,-1,-2,-2,-2,-2,1,-2,-2
1514899300885194,1,-1,-2,0,-1,-1,-3,-1
1514899300894200,-1,-2,-1,0,-2,-1,-3,1
1514899300894200,0,-1,-1,-1,-2,0,1,-1
1514899300908711,0,2,0,-1,-1,-2,0,1
1514899300908711,-1,-1,-2,1,-2,0,0,0
1514899300910211,-2,-1,0,-2,-1,-2,-1,0
1514899300910211,-1,1,0,-1,-2,-3,-2,-1
1514899300931227,-1,-3,-2,-2,-1,-2,-4,-2
1514899300931227,-1,-1,0,-1,-1,-2,0,-1
1514899300932730,0,0,-2,0,-1,-1,0,0
1514899300932730,-3,-1,-1,-1,-1,-1,0,1
1514899300945236,-1,-2,-1,0,-3,2,0,-2
1514899300945236,0,-3,0,0,0,-2,0,-2
1514899300954744,0,0,-1,-1,-1,-2,0,-1
1514899300954744,-1,0,0,-2,-1,0,-2,-2
1514899300968753,-3,0,-1,-1,-2,-1,-1,-1
1514899300968753,-1,-1,0,0,-1,-1,-2,1
1514899300970764,-2,-2,0,1,0,-3,-1,-2
1514899300970764,-1,-4,-3,-3,-2,-2,-1,-3
1514899300991268,-1,-1,-3,-1,-1,0,-1,-1
1514899300991268,-1,-3,-2,-1,0,0,0,-1
1514899300997275,1,1,-1,-2,-1,0,0,0
1514899300997275,-1,-2,-1,0,0,-1,-1,0
1514899301005281,-1,1,1,-2,-2,-1,-2,1
1514899301005281,1,-3,-1,-1,-1,-1,-1,0
1514899301013785,-2,-3,-4,-2,-1,0,-1,-3
1514899301013785,-1,0,-2,0,-1,-1,-1,-1
1514899301028795,-1,-2,-2,-1,-1,-1,-1,-3
1514899301028795,-2,-2,-1,-1,-2,-3,0,0
1514899301030296,0,-1,-1,-1,0,-2,-1,-2
1514899301030296,-1,0,-2,-1,-1,-1,1,-1
1514899301052313,-3,-1,0,0,0,0,0,-2
1514899301052313,-2,-2,-2,-1,0,0,-1,-2
1514899301054814,-1,0,-2,-2,0,-1,-1,1
1514899301054814,-1,1,-1,-1,-1,-1,-3,1
1514899301065321,1,-2,-2,-1,-2,-3,-1,-2
1514899301065321,-2,-1,-1,0,-1,0,-1,-2
1514899301073845,-1,-1,0,1,-1,-1,0,-1
1514899301073845,0,-2,-1,0,-1,-1,-1,-2
1514899301088838,0,1,-1,1,-1,-1,-2,-1
1514899301088838,-1,-3,0,0,-2,-3,0,-1
1514899301090339,-1,-1,-1,-2,-2,-2,-1,-2
1514899301090339,-2,0,-1,-1,-2,-3,-1,-1
1514899301111357,-1,-3,-1,-1,-1,-1,-2,-1
1514899301111357,0,0,-2,-1,0,-1,0,1
1514899301112855,-1,-1,-2,-2,0,0,-1,-1
1514899301112855,-2,-1,-2,-1,-1,0,-2,-1
1514899301124863,-2,-2,-1,-2,-2,-1,-1,-2
1514899301124863,-1,-1,-1,-1,-1,-2,-2,-2
1514899301133869,-2,-2,0,0,-1,0,0,0
1514899301133869,-1,0,-1,-1,-1,-1,-2,-2
1514899301148880,1,-1,-1,-2,1,-2,-1,-2
1514899301148880,0,-1,-1,-2,0,-1,-2,-1
1514899301150382,-1,0,0,0,0,-1,0,1
1514899301150382,0,0,-2,-1,-1,0,0,-1
1514899301171896,-2,0,-2,-2,-1,-2,-1,-1
1514899301171896,0,-2,-1,0,0,-1,-2,-2
1514899301173397,-2,-2,0,-1,-2,-1,-2,-2
1514899301173397,-2,0,0,-1,0,-2,-1,-1
1514899301184906,0,0,-1,0,-3,-1,0,-1
1514899301184906,-1,-3,-1,0,-1,-1,1,-1
1514899301193912,0,-2,-2,-1,-2,0,0,0
1514899301193912,-1,1,0,-1,0,-1,1,-1
1514899301208923,0,-3,-4,0,-1,0,0,-1
1514899301208923,0,-1,-1,-1,-1,-1,-1,0
1514899301210424,0,-1,-1,-1,0,0,-2,-2
1514899301210424,0,-1,0,-1,-3,-1,-1,-2
1514899301231438,-1,-2,-1,-1,-1,-2,-1,0
1514899301231438,-2,-2,-2,-1,-2,-1,-3,1
1514899301233940,-1,-1,-1,-1,-1,-1,-1,-1
1514899301233940,1,0,-2,0,-1,1,-2,0
1514899301244948,-1,0,-1,-2,0,0,-1,-1
1514899301244948,-1,-2,-2,0,-1,-2,0,0
1514899301253967,-2,0,-2,-2,-1,-1,-2,0
1514899301253967,-2,-1,-1,0,-1,0,-1,-1
1514899301268965,-1,-2,-1,-1,-1,0,-2,-2
1514899301268965,-1,-2,-1,0,-1,-2,-1,-1
1514899301270470,-1,-1,-2,-1,-1,-1,0,-2
1514899301270470,-1,0,-1,-1,-2,-1,-1,-2
1514899301291481,0,0,0,-2,-1,0,-1,-2
1514899301291481,-1,-2,0,-1,-2,-1,-2,-1
1514899301292982,-1,-2,-2,-1,-1,-1,-1,-1
1514899301292982,-1,-1,-1,-1,-1,-1,-1,-2
1514899301304990,-2,-2,-2,0,-2,-2,-1,-1
1514899301304990,0,-1,-1,-3,-1,-1,-2,0
1514899301314998,1,0,-1,1,-2,0,1,0
1514899301314998,-2,0,-1,-1,-1,1,-1,-1
1514899301329007,-2,-2,-1,1,0,-1,-1,-1
1514899301329007,-2,0,-1,0,-2,-1,-1,-1
1514899301330508,-1,2,-2,-1,1,-2,-3,-1
1514899301330508,-2,0,0,-3,-1,-1,0,-2
1514899301351525,-1,-1,-2,-2,-1,0,-3,1
1514899301351525,-2,-2,0,-1,0,-1,1,-1
1514899301354028,0,-1,-1,-2,-2,-1,-1,-2
1514899301354028,1,-1,-3,0,-1,-1,-1,-4
1514899301365033,0,-2,0,-2,0,-1,0,-1
1514899301365033,0,-2,-1,-2,-2,-1,0,-1
1514899301374039,-1,1,-2,-1,-1,0,0,-1
1514899301374039,-1,0,-1,0,0,-1,0,-1
1514899301388051,-2,-2,-2,-1,-1,-2,1,-1
1514899301388051,-1,-3,-1,-1,1,1,0,-2
1514899301395054,-1,0,0,-1,-1,0,-1,-1
1514899301395054,-1,2,-3,-1,-2,-1,0,0
1514899301411566,0,-2,-1,-1,-1,-3,-2,1
1514899301411566,0,-1,-2,0,-1,-1,-2,-1
1514899301413070,-2,0,0,0,-1,0,-1,-2
1514899301413070,-1,-1,-1,-3,0,0,-1,-3
1514899301434082,0,1,-1,0,-1,-3,-2,-2
1514899301434082,-1,-3,-1,-3,-1,0,-1,-1
1514899301437597,-1,-1,-2,-1,-1,-1,-2,-1
1514899301437597,0,-1,-1,1,-1,-1,0,0
1514899301448592,0,-1,-2,-2,0,0,-1,-1
1514899301448592,-1,-3,1,-2,-2,-3,-1,1
1514899301450595,-1,0,-1,-1,-2,-1,-1,-1
1514899301450595,-1,0,-1,-3,-2,-3,-2,-4
1514899301471108,-1,-1,-2,0,-2,0,0,-2
1514899301471108,-1,-1,0,-1,0,-2,-1,0
1514899301473109,-1,-2,-1,-1,0,0,-1,-1
1514899301473109,-4,0,-1,-1,-1,-1,-1,-1
1514899301494124,1,-1,-1,0,-2,-2,0,0
1514899301494124,-1,-2,-1,0,0,-2,-1,-1
1514899301496626,-1,-3,-1,-1,-2,0,1,-2
1514899301496626,-1,0,0,-1,-1,0,-2,-2
1514899301509635,-2,-1,-1,-1,-1,-1,0,-1
1514899301509635,-1,-1,-2,0,-2,-2,0,-3
1514899301511640,-1,0,-2,-1,-3,-3,-2,-1
1514899301511640,0,-2,-2,-2,-4,0,-1,-2
1514899301531150,-2,-2,0,-2,0,0,0,0
1514899301531150,1,-2,-2,0,0,0,-2,1
1514899301537654,0,0,-2,-1,-1,-2,-2,-2
1514899301537654,0,-1,-1,0,0,-3,-1,-1
1514899301554168,-1,-2,0,0,-1,-2,-1,-1
1514899301554168,-1,0,-4,0,0,-1,-1,-1
1514899301556668,-1,-2,-1,-2,-1,-1,-1,-1
1514899301556668,-2,0,-1,-2,-1,-2,-3,-2
1514899301568176,0,-2,0,-1,-2,0,-1,-1
1514899301568176,-1,-1,-2,-3,0,-2,-1,1
1514899301575181,-1,-1,-1,-1,0,-1,-1,0
1514899301575181,-2,1,-2,-1,-2,0,0,0
1514899301591193,-1,-2,1,-3,0,-1,-1,-1
1514899301591193,-2,-2,0,0,-2,0,-2,0
1514899301593196,-2,0,-1,0,-2,-1,-1,0
1514899301593196,-1,-2,-2,1,-1,-1,-2,0
1514899301613709,0,0,-1,1,0,-2,-2,-1
1514899301613709,-1,-3,0,1,-4,-1,0,0
1514899301617211,-2,0,1,-1,-1,0,-1,-3
1514899301617211,-1,0,-1,-1,-1,-2,-1,-1
1514899301628219,0,-2,-1,0,-2,-3,-2,1
1514899301628219,1,0,0,-2,0,0,-2,0
1514899301634723,-1,-2,0,-1,0,-1,-1,-1
1514899301634723,-1,-2,-1,-2,-1,-1,-2,-1
1514899301651235,-2,-2,-2,-2,-1,-1,-1,-1
1514899301651235,-2,-2,-2,-2,0,-2,-2,-1
1514899301657239,-1,-1,-2,-2,-2,-1,0,-1
1514899301657239,-1,1,0,-1,-2,-1,-2,-1
1514899301681257,-1,-1,-2,1,-1,-1,-1,-1
1514899301681257,0,-2,-1,0,0,0,0,-1
1514899301682758,-1,0,-2,1,0,-2,-2,-2
1514899301682758,-2,0,-1,-1,-1,-1,0,-1
1514899301688261,-2,-1,0,-1,-2,-1,-2,-1
1514899301688261,0,-1,1,-2,-1,-2,-2,-2
1514899301694766,-1,0,-2,-2,-1,-1,-1,-1
1514899301694766,0,0,0,-1,-2,0,0,-3
1514899301711293,-2,-2,-2,-2,-1,-1,0,-2
1514899301711293,-2,-3,-1,0,-2,-2,0,0
1514899301713782,-3,0,-1,-1,-2,-2,0,0
1514899301713782,-1,-1,-1,-1,-2,-2,-1,-1
1514899301733794,-1,-2,-2,0,-2,-1,-1,-2
1514899301733794,-2,-2,-2,0,0,-2,-1,-2
1514899301736296,0,0,-1,-2,-2,1,-2,-1
1514899301736296,-1,0,-1,0,1,0,-2,-1
1514899301748316,0,-1,2,-1,-2,-1,-1,0
1514899301748316,-2,-1,0,1,-1,0,-2,0
1514899301754808,-1,0,0,-1,-1,0,-1,0
1514899301754808,0,-1,-1,-2,-1,-1,-2,0
1514899301771320,-1,-2,-1,0,-1,-1,0,-1
1514899301771320,-1,-2,-1,-1,-1,-2,-1,-2
1514899301772821,-1,-1,0,-2,0,-2,-2,-2
1514899301772821,-2,-1,-1,0,-3,-2,-1,0
1514899301793836,0,-1,-2,0,0,-4,-1,-1
1514899301793836,0,-2,-1,-2,-1,1,1,0
1514899301795338,-2,1,-2,0,0,-2,0,-2
1514899301795338,-2,0,-1,-2,0,-1,1,-2
1514899301809349,0,-4,0,-2,-1,0,-1,-1
1514899301809349,0,-1,-1,0,-1,-2,-1,-1
1514899301815851,0,-1,-2,-1,-1,-1,-1,-1
1514899301815851,-1,-2,-1,-1,-2,0,-1,-2
1514899301831362,-2,0,-2,-2,0,-1,0,0
1514899301831362,0,-2,0,0,-1,-4,-2,0
1514899301832866,-3,-1,0,-1,-1,-2,0,-1
1514899301832866,-2,1,0,0,-2,-3,-1,-2
1514899301853880,1,-3,-1,-3,-1,-1,-1,-2
1514899301853880,-1,-3,-1,-1,-2,0,0,-1
1514899301857381,-1,-2,-1,0,-3,-1,-1,-1
1514899301857381,0,-3,-1,-1,-1,-1,-1,1
1514899301868388,2,1,-2,-1,-1,-1,1,1
1514899301868388,-1,-2,-1,-2,-1,0,0,-2
1514899301874893,0,-1,-1,-3,-1,0,-1,-2
1514899301874893,-2,-2,-2,-2,-1,0,-1,-1
1514899301891404,-1,-4,-2,0,-1,-3,-2,-3
1514899301891404,-2,0,-2,0,0,0,0,0
1514899301892913,-1,0,-2,-1,-3,-2,-1,0
1514899301892913,-1,-1,-1,-3,-1,0,-1,1
1514899301914421,-2,-2,0,-2,-1,-1,-1,-1
1514899301914421,-1,-1,-1,-2,-2,-2,0,-2
1514899301917923,-1,0,0,-2,-2,0,-1,-1
1514899301917923,-1,0,-2,0,0,-3,-1,-2
1514899301927431,-1,-1,-1,-1,-2,-1,-2,-2
1514899301927431,1,-2,0,-2,-1,0,-1,1
1514899301936437,-1,0,0,-1,-1,0,-1,-1
1514899301936437,0,0,-1,-1,-1,-3,-1,-2
1514899301951447,-1,-3,-1,-2,-1,2,0,-1
1514899301951447,-1,-1,-1,0,-1,-2,-2,-2
1514899301952951,-1,0,0,-1,1,-1,-2,-1
1514899301952951,-1,0,-1,0,-1,1,-2,-2
1514899301973963,-2,-1,-1,-1,-2,-1,-3,0
1514899301973963,1,-1,0,-3,0,0,-2,-2
1514899301975470,0,-1,-2,-1,-2,0,-2,-1
1514899301975470,-1,0,-1,-1,-1,0,-2,-3
1514899301987973,-1,-2,-1,0,-1,-1,-2,-2
1514899301987973,-2,-3,-1,0,0,-1,-2,-1
1514899301996479,0,0,1,0,-2,-1,-1,1
1514899301996479,0,-1,0,-2,-2,-1,0,0
1514899302011490,-1,-3,-2,-1,-1,0,0,-1
1514899302011490,-1,0,-2,-2,-1,-2,0,-1
1514899302014992,-2,-1,-3,-1,0,-2,-1,-3
1514899302014992,0,-2,-1,1,-2,0,-3,-2
1514899302034005,-2,1,-1,-1,-1,-2,-1,-1
1514899302034005,-1,1,-2,-1,-3,-2,-1,1
1514899302035506,-2,-1,-2,-1,-1,-1,-1,0
1514899302035506,0,-2,-2,-2,-2,-1,1,-1
1514899302047515,-1,0,-1,-1,0,-1,-2,1
1514899302047515,1,-1,0,-1,0,0,-1,-1
1514899302056521,-1,1,-2,-1,-2,-2,0,-2
1514899302056521,-2,0,-1,-1,-1,-2,-1,-3
1514899302071034,0,-1,-1,0,0,-3,0,-2
1514899302071034,-1,-1,0,-1,-1,-2,-1,0
1514899302073033,-2,-1,-1,-1,-1,-1,-1,0
1514899302073033,-2,0,-2,-2,-1,-1,-2,0
1514899302094049,1,-2,-2,-2,-1,-2,-2,-2
1514899302094049,-3,-1,0,-2,-1,-1,0,-1
1514899302095550,-1,0,-1,0,-1,0,-2,-1
1514899302095550,-3,-1,-2,-2,-2,-1,-1,-1
1514899302107570,-1,-2,-2,-1,-2,-1,-1,-1
1514899302107570,0,-2,-2,0,-3,-2,0,-1
1514899302118065,-3,-2,0,-1,1,0,-1,-3
1514899302118065,-2,0,-1,-2,-2,0,0,-1
1514899302131576,-1,-1,-3,0,1,-3,-1,1
1514899302131576,0,-3,-2,-2,0,-1,-1,-1
1514899302133088,-1,-1,-2,-2,-2,-2,-1,1
1514899302133088,-1,0,0,-2,-1,-1,-2,-1
1514899302153605,0,-1,0,0,-1,1,1,0
1514899302153605,0,-2,-2,-1,-1,-3,-1,-1
1514899302160104,0,-2,-3,-2,0,-1,-3,-2
1514899302160104,-1,-1,-1,-2,-1,-1,-1,-1
1514899302168100,-2,-1,-1,-4,-1,0,-2,0
1514899302168100,-1,0,1,2,-1,-1,-1,0
1514899302176606,0,-1,-1,0,-2,0,0,-2
1514899302176606,-1,-3,-4,0,-1,0,-1,-1
1514899302191116,-1,-1,1,-1,-1,-2,-2,-2
1514899302191116,-1,-1,-1,-1,1,0,-1,-1
1514899302193118,0,-1,-1,-3,-2,-1,0,-1
1514899302193118,-1,0,1,1,0,1,0,-2
1514899302214634,-1,-1,0,-2,0,-1,-1,-1
1514899302214634,-1,0,-1,-1,0,-1,-1,0
1514899302218136,-1,-1,1,0,-1,-4,-2,-1
1514899302218136,0,-1,-2,-1,-1,-3,-1,-1
1514899302227643,0,-3,-1,0,0,-2,-1,-2
1514899302227643,-1,0,-1,-1,-1,-1,-2,-2
1514899302236658,-2,2,-1,-1,0,0,0,-2
1514899302236658,-2,0,0,-2,-1,0,-1,-3
1514899302251160,1,-2,-1,-2,-1,0,-1,-1
1514899302251160,0,-2,0,-2,-2,0,-1,0
1514899302253169,-1,0,-2,-2,-2,-1,0,-1
1514899302253169,-1,-3,-2,-1,-2,-4,-1,-2
1514899302273676,0,-3,-1,-1,-1,-1,-1,-1
1514899302273676,-2,0,0,-1,-1,-1,0,0
1514899302280181,-2,0,-1,-2,-1,-2,-1,-2
1514899302280181,-1,0,-2,-3,1,-2,-2,-2
1514899302287686,-1,-1,0,0,0,-1,-1,-1
1514899302287686,0,-3,-2,0,-1,-1,-1,-2
1514899302296693,1,-2,-1,0,-1,1,1,-1
1514899302296693,-1,-1,0,-1,-2,-1,0,-1
1514899302311205,-2,-1,-1,-2,-1,-2,0,-1
1514899302311205,-1,1,-2,-1,-2,-1,-2,-2
1514899302313203,0,0,-1,-2,-2,-1,-1,-1
1514899302313203,-2,-2,-1,0,-1,1,-2,0
1514899302334719,1,-1,-2,-1,-2,0,-1,0
1514899302334719,-2,-3,-1,-1,-1,-2,-2,0
1514899302337225,0,-1,-2,-1,-2,1,-2,-1
1514899302337225,0,0,-2,-2,-1,-2,0,-1
1514899302356244,-1,-2,-2,0,-1,-2,0,1
1514899302356244,0,0,-3,-1,-2,-1,0,1
1514899302357735,-2,-2,0,1,-1,-1,-1,-1
1514899302357735,0,0,-1,-1,0,0,-1,-1
1514899302371244,-1,0,0,-1,0,0,-3,-1
1514899302371244,-1,0,-1,0,1,-2,0,-1
1514899302372745,-2,-1,-2,1,0,-1,-2,0
1514899302372745,1,0,-2,0,-2,-1,-2,-1
1514899302393761,-2,-2,-2,-1,0,0,-1,-1
1514899302393761,0,0,-1,-1,0,-1,-1,-1
1514899302395261,-2,-2,-1,-4,-1,-1,0,-1
1514899302395261,-1,-2,-1,-1,-4,-1,0,-1
1514899302417276,0,-2,0,-2,-3,-1,-1,-3
1514899302417276,0,-1,0,0,-2,1,-2,0
1514899302419781,-1,1,-3,0,-2,-1,-1,-2
1514899302419781,0,-1,-1,-3,-1,-3,0,-1
1514899302431286,1,-1,-1,0,-2,-1,-1,1
1514899302431286,-1,-2,-1,-1,-1,-2,-1,0
1514899302432800,-1,0,-3,-1,-2,-1,-1,-1
1514899302432800,-2,-3,0,-1,-1,-1,-1,-1
1514899302454804,-1,-3,-2,0,-2,-1,0,-2
1514899302454804,0,-1,-1,0,-1,-1,0,-2
1514899302456806,-1,0,-2,1,1,-1,-1,-1
1514899302456806,-2,0,0,-2,0,-2,-1,-2
1514899302476318,-3,-2,-1,-1,1,-1,-2,0
1514899302476318,-1,-1,-2,-1,-1,-1,-2,-1
1514899302477819,-2,1,0,-2,-2,-1,-1,-2
1514899302477819,-1,0,-2,-1,-1,0,-1,-1
1514899302490830,-2,-1,-2,-2,-1,-2,-1,-2
1514899302490830,-2,0,-1,-1,0,-1,-1,-1
1514899302497343,-1,1,0,-2,-1,0,0,-1
1514899302497343,-1,-1,0,1,-1,-1,-2,-1
1514899302514345,0,-2,1,-1,-1,-2,0,1
1514899302514345,-1,-2,-2,-1,-1,-1,-1,-2
1514899302517847,-1,-1,-1,0,0,-2,-1,-2
1514899302517847,-1,-1,-2,-1,0,-1,-2,-2
1514899302537362,-2,-1,-1,0,-2,1,0,-1
1514899302537362,0,-1,-2,-2,-1,-1,-1,-1
1514899302539863,-1,-2,0,-3,-2,-3,-1,-1
1514899302539863,0,-3,-2,-1,-1,-1,0,-2
1514899302550407,1,-1,1,0,0,-1,1,-1
1514899302550407,-3,-2,0,-1,-1,-1,-1,-1
1514899302557388,0,-2,-2,0,-1,-1,-1,-1
1514899302557388,-2,-1,-2,-2,-1,-1,1,-1
1514899302574387,-2,0,-1,-1,1,-1,-1,-1
1514899302574387,-1,0,-2,-1,0,-1,0,0
1514899302575888,-1,0,-1,-1,-2,-2,0,-1
1514899302575888,-2,-1,-1,-1,-1,-3,0,-1
1514899302596912,0,-2,-3,-2,-2,-1,-1,-1
1514899302596912,-1,0,-2,-2,-2,-3,-1,-2
1514899302598919,-2,-1,-2,-1,1,0,-2,-1
1514899302598919,-1,-1,-2,-2,-1,0,-3,-1
1514899302610914,-2,-2,1,-2,-1,-2,-2,-1
1514899302610914,0,-1,0,0,-2,-1,-2,-1
1514899302617919,0,0,0,-2,-1,0,0,-1
1514899302617919,-2,-1,-1,0,-1,-1,-1,-1
1514899302633959,0,-1,-3,0,0,-3,0,-1
1514899302633959,-1,-2,-1,-1,-2,0,0,1
1514899302637442,-1,0,-2,-2,-1,-1,0,-1
1514899302637442,0,-1,-1,-1,-2,-3,-1,-2
1514899302656458,-2,0,-2,-1,0,-2,-2,-1
1514899302656458,-2,-2,-1,0,-1,0,0,-1
1514899302657956,0,-1,-1,-2,-1,-2,-1,-1
1514899302657956,-1,0,0,0,-1,0,-2,1
1514899302670456,-2,-2,-1,-1,-2,1,-1,1
1514899302670456,-1,-2,0,1,0,-1,-1,-1
1514899302684966,0,-1,-2,1,-2,-1,0,-1
1514899302684966,1,-2,-2,0,-1,-1,-1,0
1514899302693484,0,-1,-1,-2,0,-2,-1,-1
1514899302693484,-2,-2,-2,-1,-3,0,-1,-1
1514899302695473,-2,-2,0,-1,-1,0,-2,-1
1514899302695473,-1,-3,0,2,-1,-2,-1,-1
1514899302717488,-1,-3,0,0,-2,0,-1,-1
1514899302717488,0,0,0,-1,-1,-2,-2,-2
1514899302720993,-1,0,-2,-2,0,-1,-1,0
1514899302720993,-1,-2,-2,-2,-1,1,-2,-1
1514899302730998,-3,-3,-1,-1,0,0,-1,-2
1514899302730998,-2,-2,-1,-1,-3,-2,-1,0
1514899302738008,-1,0,0,0,-1,-2,-1,0
1514899302738008,-2,1,-1,-2,-1,-2,-1,-1
1514899302754015,-1,-3,-2,-1,-1,-1,-2,0
1514899302754015,-2,-1,2,0,0,-1,0,-2
1514899302755516,0,0,-1,0,-1,0,-2,0
1514899302755516,-2,-2,-1,-1,-2,-2,-1,-2
1514899302776536,0,-2,-3,-1,0,-3,-2,-2
1514899302776536,0,-1,-1,-2,-1,-2,-1,-2
1514899302778033,-1,0,-2,0,-1,-3,-2,-2
1514899302778033,1,1,-1,0,0,1,0,-3
1514899302790542,-1,-1,0,1,-2,-2,-1,0
1514899302790542,-1,-1,0,-3,0,1,-1,-2
1514899302797548,-2,-2,-3,0,-2,0,-1,-1
1514899302797548,-2,-1,-1,-2,-1,0,-1,0
1514899302814059,1,-3,-2,-1,1,-1,0,-1
1514899302814059,0,-1,-2,-2,0,-2,0,-1
1514899302815558,-1,-2,0,-1,-1,0,-1,-2
1514899302815558,-2,-2,-2,-1,-2,0,-1,-1
1514899302836575,-2,-2,-1,-2,-2,-3,-1,0
1514899302836575,0,-1,-2,-2,-2,-1,1,-1
1514899302838076,-1,0,-1,0,-1,-1,0,-3
1514899302838076,0,-1,-1,-3,0,-2,0,-2
1514899302850084,-1,-2,0,-2,0,-1,-2,1
1514899302850084,-2,-1,0,-1,-3,1,-2,0
1514899302860590,-1,1,-1,0,0,-1,0,1
1514899302860590,0,-1,-1,-1,-1,0,-2,0
1514899302874102,-2,-2,-1,0,-1,-1,0,-2
1514899302874102,0,-2,-3,-1,-1,-1,-1,-2
1514899302875602,-2,-1,-1,-1,-3,-1,0,-2
1514899302875602,0,-1,1,-2,-2,0,-1,0
1514899302896115,0,0,-2,-2,0,-2,0,0
1514899302896115,-1,-1,-2,-1,0,-2,-1,-1
1514899302899619,-1,-2,-1,-2,0,-1,-2,-2
1514899302899619,-1,-1,-3,-1,-2,-2,0,0
1514899302910629,-2,-3,0,-3,-2,-1,-2,0
1514899302910629,-2,-1,-2,0,-1,0,-1,0
1514899302919132,-1,1,-2,-2,0,-1,-2,-2
1514899302919132,-1,-1,-1,0,0,-2,-1,-2
1514899302934144,-1,-3,-2,0,-1,-2,1,-1
1514899302934144,0,-1,-2,0,-1,-2,-4,1
1514899302935643,1,-1,-1,-1,-2,-3,-2,-1
1514899302935643,-1,-2,-2,-1,-1,-1,0,-2
1514899302956659,-2,-1,-2,1,-2,-2,0,-1
1514899302956659,0,-1,-1,-1,2,0,-1,-1
1514899302958160,-1,-1,-1,-1,-1,1,0,-1
1514899302958160,-1,-1,-1,-2,-1,0,-1,-1
1514899302970169,0,-1,-2,0,-1,-3,-2,-1
1514899302970169,-2,-1,-2,0,-3,-2,-1,0
1514899302979177,-2,-1,-2,-1,-1,0,-1,-1
1514899302979177,0,-1,0,0,-1,-1,0,-1
1514899302994188,0,-2,0,0,-1,0,-2,-1
1514899302994188,0,0,0,-1,-3,-2,-2,0
1514899302995185,-1,-3,-2,0,-2,0,1,0
1514899302995185,-1,0,-1,-1,-2,-1,-1,0
1514899303016700,-2,-2,0,-1,0,-1,0,-1
1514899303016700,-2,-1,-2,-1,-1,-1,0,-2
1514899303018201,-1,0,-1,-1,0,-2,-2,-1
1514899303018201,-2,-2,-2,-2,-2,0,-2,0
1514899303030212,0,0,-1,-2,-1,0,-2,-1
1514899303030212,-1,-1,0,-1,1,0,1,-1
1514899303039218,-2,0,-2,-2,-1,-1,-1,-1
1514899303039218,-1,-2,-1,-1,-1,-2,-1,0
1514899303053726,-1,-3,-2,-2,-3,-2,-1,-1
1514899303053726,0,0,-1,-1,-2,-1,0,-2
1514899303055730,-1,-1,-1,-1,-2,0,-4,-1
1514899303055730,-2,-2,-2,0,0,-1,-3,-3
1514899303076244,0,0,-2,-1,-2,-1,-1,-1
1514899303076244,-1,1,-2,-2,0,-2,-1,-1
1514899303077744,0,0,-3,0,-1,0,-1,-2
1514899303077744,-1,-1,0,-1,-1,-2,-1,0
1514899303090259,-1,-2,-1,-1,0,-2,-2,-1
1514899303090259,0,-1,0,-1,0,-2,-2,-1
1514899303098760,-1,0,1,-1,-2,-2,-1,-1
1514899303098760,1,-1,-1,-2,-1,-2,-1,0
1514899303121785,-1,-3,0,2,-1,1,0,-1
1514899303121785,0,0,-2,-3,1,0,-1,-2
1514899303123282,-1,0,-2,-2,-1,-2,-2,-1
1514899303123282,0,-2,-3,0,-2,0,-1,-1
1514899303136786,-1,-2,1,-2,0,-1,0,0
1514899303136786,-1,-1,-2,-1,-1,0,-1,-1
1514899303138289,-2,-1,-1,-2,-3,-1,-1,-1
1514899303138289,-1,-1,-1,-1,-1,-1,-2,-1
1514899303150295,0,-1,-2,-1,0,0,-1,-3
1514899303150295,-3,0,-1,-1,-2,-1,-2,-2
1514899303158803,-1,1,-1,0,-1,-2,-1,-2
1514899303158803,-2,-1,0,-1,-1,-1,-2,-1
1514899303174818,-2,-1,0,-1,1,-2,-2,-3
1514899303174818,-2,-2,-2,0,-2,-1,0,-1
1514899303175817,-1,-1,-1,-2,-1,-1,-1,0
1514899303175817,-2,-2,-2,-1,0,-1,-1,-2
1514899303196328,2,-1,-1,-1,-2,-2,-1,-1
1514899303196328,-1,1,-2,0,-2,1,0,0
1514899303197828,-2,0,-1,-1,-1,0,1,-1
1514899303197828,0,-3,-1,-3,1,0,0,0
1514899303210844,-1,-1,-2,-2,-2,0,-2,0
1514899303210844,-1,0,-2,-1,-2,-1,-1,0
1514899303218843,-1,0,-1,0,-1,-1,-2,-1
1514899303218843,0,-2,-1,-2,0,-1,-1,-1
1514899303241360,-1,-3,-1,-2,0,-1,-2,0
1514899303241360,-2,-1,-1,-2,-1,-1,-2,0
1514899303242860,0,-3,-1,-2,-1,0,-1,0
1514899303242860,-2,0,0,1,-1,-2,1,0
1514899303263375,-1,-2,-2,-1,-3,-1,-1,1
1514899303263375,1,1,0,-2,0,0,-2,-1
1514899303269880,-2,-1,-3,-3,-1,-2,0,-1
1514899303269880,-2,-2,1,-2,-2,-1,-1,-4
1514899303278885,-2,-2,-3,0,-1,0,-1,0
1514899303278885,-2,-2,0,0,-2,-1,-1,-2
1514899303280390,-2,-1,-1,-1,-3,-1,0,-1
1514899303280390,0,0,0,0,-2,-2,-1,-1
1514899303293895,-1,-3,-1,-1,0,-1,0,-1
1514899303293895,-1,-1,-2,0,-1,-1,-1,-1
1514899303295397,-1,1,-1,-2,-1,-1,-2,-2
1514899303295397,-1,-2,0,-2,-1,-1,-3,-1
1514899303316912,0,-1,-2,-1,-1,-1,0,0
1514899303316912,0,-1,-2,-1,1,-1,-1,0
1514899303323417,1,0,0,0,-2,0,-1,-3
1514899303323417,-1,-2,-2,-1,-1,-1,0,-2
1514899303338939,-1,-3,-1,-1,-1,-1,-1,-2
1514899303338939,-2,-2,-1,0,-1,-3,0,-1
1514899303340429,-2,-1,-2,-1,-1,0,0,-2
1514899303340429,-2,0,-3,-1,-2,0,-1,-1
1514899303354439,0,0,-1,-2,0,-1,0,-1
1514899303354439,0,-2,-1,-1,-2,-2,-1,-2
1514899303356940,-1,-1,0,0,-2,-1,-1,-1
1514899303356940,-2,-3,-2,-2,-3,-1,-2,1
1514899303376468,-1,-1,0,1,-1,0,-3,0
1514899303376468,-1,1,-1,-1,-1,-1,0,0
1514899303377968,1,-1,-1,0,1,-1,-1,-1
1514899303377968,0,-1,-2,-2,1,-1,0,-1
1514899303398970,0,-1,-1,-2,-1,-2,-1,-2
1514899303398970,0,-1,-2,-3,1,0,-2,-3
1514899303402473,0,0,-2,-4,-2,-1,-1,-1
1514899303402473,0,-1,-2,0,-1,0,-2,-1
1514899303412983,0,-2,-2,-1,0,-3,0,0
1514899303412983,-1,0,-1,-1,-3,1,-1,0
1514899303419986,0,0,-2,-2,-3,-2,-1,-2
1514899303419986,-2,-2,1,-1,-2,-1,0,0
1514899303436499,-1,-2,-1,-1,-2,-2,-2,1
1514899303436499,0,-2,-2,-2,-2,-1,-2,0
1514899303437999,-2,-1,-2,0,0,-1,-2,-2
1514899303437999,-1,-2,-1,-1,-1,-3,-1,-2
1514899303459022,-1,-1,0,0,-1,-1,-2,1
1514899303459022,-3,0,-2,-1,-3,-2,-1,-1
1514899303460514,-1,-2,-1,-2,-1,0,-1,0
1514899303460514,1,-1,-1,1,1,0,0,0
1514899303473022,-1,-1,0,1,1,-2,-2,-1
1514899303473022,0,-1,0,-2,-1,-3,-2,0
1514899303480039,-2,-1,0,-1,0,-2,0,-1
1514899303480039,-1,-1,-1,0,-2,-1,-1,-1
1514899303496540,-1,-2,0,-1,-2,-1,0,0
1514899303496540,0,1,-2,-1,-2,0,-1,-2
1514899303498541,-2,0,0,-1,0,-2,0,-2
1514899303498541,-1,-1,-2,-1,-2,-1,-1,-1
1514899303519055,0,-2,-2,-2,-1,-1,0,0
1514899303519055,-1,0,-1,-1,-1,1,0,-2
1514899303520557,0,1,-2,0,-2,-1,-1,-2
1514899303520557,0,-3,-2,-1,0,-2,-2,-2
1514899303533078,-1,-2,-1,0,-3,-2,-1,-3
1514899303533078,-1,-2,-1,0,0,0,-1,-2
1514899303540084,-3,-1,-2,1,-2,-1,-1,-2
1514899303540084,-2,-1,-1,-1,-1,0,0,-2
1514899303556091,0,-2,-1,-1,-1,-3,0,-2
1514899303556091,-1,1,-1,0,-2,-2,-1,-1
1514899303558093,-3,1,-1,-1,0,0,-1,1
1514899303558093,-1,-2,-3,-1,-1,2,-1,-1
1514899303579099,0,-3,0,-1,-1,-1,-1,0
1514899303579099,-1,0,-1,-2,-4,-2,-3,-2
1514899303580623,0,-1,-2,-1,0,-1,-3,-2
1514899303580623,-1,-1,0,-1,0,-3,0,0
1514899303593146,-1,-2,-2,-2,0,0,0,-2
1514899303593146,-2,-1,-2,-1,0,-1,-1,2
1514899303600122,-1,-1,-1,-1,-3,0,0,-1
1514899303600122,-1,-3,-2,-1,0,-1,-3,-1
1514899303617124,-1,0,-1,1,-1,-1,-1,-1
1514899303617124,-1,2,-1,-2,0,-1,-1,0
1514899303619626,-1,-2,-1,-2,-1,-1,0,0
1514899303619626,1,-2,-2,-3,0,-2,-1,-2
1514899303638641,-1,-3,-2,0,-2,0,0,0
1514899303638641,0,-2,0,-2,-1,0,0,-1
1514899303640647,-2,1,-2,-3,-1,-1,-2,-1
1514899303640647,0,-2,0,0,-2,-2,-1,-1
1514899303653163,0,0,-2,-1,-1,0,-1,-2
1514899303653163,0,0,-3,0,-2,-1,1,-2
1514899303660155,-1,-2,-1,-2,-4,-1,2,-2
1514899303660155,-3,-3,-1,-2,1,0,1,-2
1514899303676167,0,-1,0,-3,-2,-1,-2,1
1514899303676167,-2,0,-1,-1,0,0,0,0
1514899303678169,-1,1,-2,-1,0,-1,-2,0
1514899303678169,0,-2,-1,0,-2,-1,-1,0
1514899303698682,-1,-3,0,-1,0,-1,-1,-2
1514899303698682,0,-2,-1,-1,-1,-2,-1,-2
1514899303700185,-2,0,-2,0,-1,0,-2,0
1514899303700185,-2,-1,-2,-2,-2,-3,-1,-1
1514899303713194,-1,-3,0,0,0,0,-2,-2
1514899303713194,-1,-1,0,-1,-1,-1,-2,-1
1514899303720199,-1,1,-1,-1,-2,-3,0,-1
1514899303720199,-2,1,-2,0,-1,0,-1,-2
1514899303736209,0,0,-2,-2,-1,-3,-1,0
1514899303736209,-2,-2,-1,-2,-2,0,-1,-1
1514899303738213,-2,-2,-2,-1,-2,-1,-1,-1
1514899303738213,-1,0,-1,-2,0,-1,-2,-2
1514899303758725,0,-3,-2,-1,-1,-1,0,-2
1514899303758725,-2,-3,-2,-2,0,0,-1,0
1514899303760226,-1,-1,-1,-2,-2,-1,-1,0
1514899303760226,-1,-2,-1,-1,-1,-2,-1,0
1514899303772736,-1,-2,1,1,-1,0,-1,2
1514899303772736,-1,-2,-3,-2,-3,-2,-2,-1
1514899303781241,-2,-1,-1,-1,0,-1,-2,-1
1514899303781241,-1,-2,0,0,-2,-1,-1,0
1514899303796251,-1,-2,-2,-1,0,-1,0,-1
1514899303796251,-2,-1,0,0,-3,0,-1,0
1514899303797753,-1,-2,-2,-1,-2,-1,-2,-1
1514899303797753,0,0,-2,0,1,-2,-1,-1
1514899303817778,-2,0,-2,-2,0,-3,-1,-1
1514899303817778,-1,1,-1,-1,0,-2,0,-2
1514899303828774,0,0,-2,-1,-2,-1,-1,-2
1514899303828774,-1,-1,-2,0,-1,0,-1,-1
1514899303832279,-2,-1,-1,-1,0,0,-3,-1
1514899303832279,-2,-1,-1,-1,-1,0,1,-2
1514899303841284,-2,1,0,-1,0,-2,-1,-2
1514899303841284,-1,-2,-1,-1,-3,-2,-1,-1
1514899303856293,-3,-2,-1,0,-2,-1,-1,-1
1514899303856293,0,-2,0,-1,-1,-1,-1,-3
1514899303857794,0,-1,-2,-2,-1,0,1,-2
1514899303857794,-1,-3,1,0,-1,-2,-1,-3
1514899303878809,-1,-1,-1,-1,-1,-1,0,-2
1514899303878809,0,0,0,-1,1,-1,-2,-2
1514899303880310,-2,-1,-1,-1,-2,-2,-2,-1
1514899303880310,-2,-2,-1,-1,-1,-3,-2,-2
1514899303892320,-1,-1,-1,0,-1,-1,0,-1
1514899303892320,-2,0,-1,0,-1,-1,-1,-1
1514899303903327,-1,-1,-1,-1,-1,1,0,-1
1514899303903327,0,-1,-1,-2,-1,-1,0,0
1514899303916335,0,-2,0,-1,0,1,-1,0
1514899303916335,-2,2,0,-1,-1,0,-2,-2
1514899303922340,0,0,-1,-2,-2,-1,0,0
1514899303922340,-2,-1,0,0,-1,-1,-1,-2
1514899303938852,-2,-2,-2,-3,-1,0,-1,2
1514899303938852,0,-2,-2,-1,-1,0,0,-2
1514899303940353,-2,-1,0,-2,0,-3,0,-3
1514899303940353,-1,-4,0,-1,-2,0,0,-1
1514899303952361,-1,1,-1,-1,-2,-2,-2,-1
1514899303952361,-2,0,0,-1,0,0,-1,-1
1514899303961367,-2,0,0,-1,-2,-2,0,-1
1514899303961367,0,-1,-2,-2,0,-1,-1,-1
1514899303976378,-1,-2,0,-1,-1,-2,0,-1
1514899303976378,0,1,-2,0,-2,-1,0,0
1514899303977879,0,-1,-1,0,-1,0,-1,-3
1514899303977879,-1,0,-3,-1,-1,-2,-2,-1
1514899303998894,1,-3,-1,-1,0,-2,0,-1
1514899303998894,-1,0,-1,-2,0,-2,-2,0
1514899304002396,-2,0,0,0,-1,-1,-1,-2
1514899304002396,0,-2,-2,-1,-1,-2,-2,0
1514899304012405,1,1,-2,0,0,-1,-1,-2
1514899304012405,-1,-1,-1,-2,-2,-2,0,-2
1514899304021410,-1,-2,-1,-1,-1,-3,-1,0
1514899304021410,-1,-1,0,-1,0,1,-1,0
1514899304036921,0,-1,1,1,0,-2,0,0
1514899304036921,-1,-1,0,0,-1,-1,-1,0
1514899304038422,-2,-1,-2,0,0,0,0,1
1514899304038422,-2,-2,-2,0,0,-1,-1,-1
1514899304058936,-1,-3,-3,-1,-1,-1,0,-2
1514899304058936,-3,-1,-2,-1,-2,0,-1,-1
1514899304060437,-1,-1,-1,-1,-1,-1,0,-2
1514899304060437,0,-1,-1,-2,0,-2,-2,0
1514899304072446,-1,-1,0,-1,-2,1,-2,1
1514899304072446,-1,1,-2,-1,0,-1,-1,-2
1514899304081453,-1,-1,0,-1,-2,-3,-1,-1
1514899304081453,-1,-2,-1,-2,0,-3,-1,-2
1514899304096464,0,-2,-1,-1,-1,-1,-2,-1
1514899304096464,1,1,-1,-1,-1,0,-1,-1
1514899304097966,-3,-1,-1,0,-1,0,-2,-4
1514899304097966,-1,-3,-2,0,-2,-1,-1,0
1514899304118978,-2,-2,0,-1,-1,-3,0,-1
1514899304118978,-1,-1,0,0,-1,-2,-1,-1
1514899304120480,0,0,-2,-2,-1,1,-1,-2
1514899304120480,0,0,-1,-1,-1,-2,0,-1
1514899304132489,-2,0,-3,-1,-1,-1,0,-1
1514899304132489,-1,-1,0,0,-1,-2,-1,-1
1514899304141495,-1,-2,-1,-1,-1,-2,0,-1
1514899304141495,0,-1,0,-2,-3,0,0,-2
1514899304156505,-1,-2,0,-1,-2,-2,0,0
1514899304156505,0,0,-2,-2,-1,-1,1,-1
1514899304158006,0,0,-1,0,-2,0,-1,-2
1514899304158006,0,-2,-1,-1,-1,-1,-2,-1
1514899304178551,-3,-1,1,-1,-1,-2,0,-2
1514899304178551,-2,0,-3,-1,-1,-1,-1,0
1514899304180554,0,0,-1,-2,1,1,-1,1
1514899304180554,0,-1,-2,-1,0,1,0,-2
1514899304202081,0,0,-1,-2,-2,-1,-1,-1
1514899304202081,0,-1,-2,0,0,-1,-1,-1
1514899304205570,0,-1,-2,-2,-1,-2,0,-1
1514899304205570,-3,-2,-1,-2,-2,-1,-2,-2
1514899304223593,-1,-2,-1,-2,-1,-1,-2,-1
1514899304223593,-3,-1,-1,-1,-1,-1,-1,-1
1514899304225084,0,0,-1,-3,-1,-2,-2,-2
1514899304225084,0,-1,-1,-1,-1,-3,-1,-1
1514899304238594,-2,-1,-3,-2,0,-2,0,0
1514899304238594,0,-3,-2,-2,-3,1,-1,-1
1514899304240096,-1,-2,-2,-2,-1,-1,-2,0
1514899304240096,0,-2,-2,-2,-1,-2,-1,-1
1514899304261124,-1,1,0,0,-1,-1,0,0
1514899304261124,-1,1,2,-3,0,-2,0,0
1514899304263121,-3,-1,-1,-1,-1,-1,-1,-1
1514899304263121,-1,-1,-2,-1,-2,-1,-2,-1
1514899304276120,-1,0,-1,-1,-3,0,-2,-2
1514899304276120,-2,0,-3,-2,-2,-1,0,-2
1514899304278122,0,-1,-1,0,-1,-1,-1,-1
1514899304278122,-2,-2,0,0,1,-1,0,-1
1514899304298664,0,0,-2,-1,0,0,-1,-2
1514899304298664,0,0,-2,0,-1,-1,-1,0
1514899304302139,-2,-1,-1,-2,-2,-1,-1,0
1514899304302139,-2,-3,-1,-1,-1,-1,-1,-1
1514899304321152,-1,-2,0,-2,0,-2,-1,0
1514899304321152,-2,0,-1,0,-2,-1,-2,-2
1514899304327657,-2,-2,-1,-2,-1,-2,-1,-2
1514899304327657,-1,-2,-1,-1,-1,-1,-1,0
1514899304336163,-2,-2,0,0,-1,-2,0,-1
1514899304336163,-1,0,1,0,0,-1,-2,-1
1514899304337664,-1,-2,-2,-1,-1,-2,-1,-1
1514899304337664,-1,-2,-3,-2,0,-2,-1,-1
1514899304358704,0,0,-1,1,-1,0,0,-1
1514899304358704,-2,-2,-2,-1,-1,0,-3,0
1514899304360681,0,-2,-2,1,-1,-1,-1,-1
1514899304360681,0,-1,-1,1,-2,-1,-1,-1
1514899304381223,-1,-1,-2,-2,0,-2,-1,1
1514899304381223,-2,0,-2,-1,-2,-2,0,-1
1514899304382695,0,0,-1,0,-2,-3,-1,-1
1514899304382695,-1,-1,0,-2,0,-1,-1,-1
1514899304395705,-1,-2,-1,0,-2,-1,-2,0
1514899304395705,0,1,-1,-1,0,1,0,-1
1514899304403711,-2,-1,-2,-1,-1,0,0,-2
1514899304403711,0,0,-2,-1,-3,-2,-1,-2
1514899304418721,0,-3,-1,-1,0,-3,-1,-3
1514899304418721,-1,0,-3,-1,-1,-2,-1,-2
1514899304420726,-2,-2,-1,-1,-1,-2,0,-1
1514899304420726,-2,0,-1,0,-1,0,-2,0
1514899304441238,-1,-1,-1,1,-1,0,-3,-1
1514899304441238,-2,-2,-1,-2,-1,-1,-1,-3
1514899304442748,-1,-1,0,-1,-1,0,0,-1
1514899304442748,-1,-1,-1,-2,-1,-1,1,-1
1514899304456257,0,-2,-1,0,-1,-1,0,-1
1514899304456257,0,-1,-2,0,0,-1,-1,-1
1514899304462252,-1,0,-1,-1,-1,-2,-1,-2
1514899304462252,-2,-2,-1,-1,-1,-2,-2,-2
1514899304478763,-2,-1,0,0,-1,-1,-1,-2
1514899304478763,-3,-1,-2,-1,-2,-4,-1,-2
1514899304480268,-1,-2,1,-2,-2,-2,0,0
1514899304480268,-1,-2,0,-1,1,-1,-1,-1
1514899304501781,0,-1,0,0,-1,2,-2,0
1514899304501781,-1,-1,1,-1,-1,0,-1,-3
1514899304507285,-1,-1,-3,-1,-1,0,-1,-1
1514899304507285,-1,-2,-1,-1,0,-2,0,-2
1514899304516791,-2,-1,-2,-2,0,-2,-2,0
1514899304516791,-1,-1,-1,-1,-2,0,0,1
1514899304522294,-2,0,0,-1,-3,0,-1,0
1514899304522294,1,-1,-1,-1,0,0,-2,-1
1514899304538807,-1,-1,-2,-1,-1,-2,0,-1
1514899304538807,0,0,0,-2,-2,-1,-1,-1
1514899304540308,-1,-1,-1,-1,0,-2,-1,0
1514899304540308,-1,-4,-2,-1,0,-1,-1,0
1514899304560821,-2,-1,-2,-3,-1,-1,-1,-1
1514899304560821,-2,0,-1,0,-2,-1,-1,-2
1514899304567339,0,-1,-2,-1,0,0,-1,-3
1514899304567339,-2,-2,-2,-1,-3,-1,-2,-2
1514899304575834,0,2,0,-3,0,0,-1,-2
1514899304575834,1,-1,-1,-1,-2,1,-2,-2
1514899304582338,-1,-1,0,0,-1,0,-3,-3
1514899304582338,-2,-1,-2,0,0,-3,0,0
1514899304598849,-2,-2,-1,-1,-1,0,0,-1
1514899304598849,-2,0,-2,0,0,-4,-1,-1
1514899304602355,-2,-2,-2,-1,-1,-1,-2,-1
1514899304602355,1,-2,-1,-1,-1,-2,-1,-1
1514899304621365,-1,-2,0,0,-1,0,-1,-2
1514899304621365,-2,-2,-1,-1,-1,-3,0,1
1514899304622865,-1,0,-2,-2,-2,0,0,-1
1514899304622865,-1,-1,-1,0,-1,-1,0,0
1514899304635874,-1,-1,-2,-2,-1,-2,-2,-3
1514899304635874,1,0,-1,-2,-1,-1,-2,-2
1514899304642379,-1,-2,-1,-2,-1,-2,-2,-1
1514899304642379,-1,-2,-1,-2,-1,0,-1,0
1514899304658891,-1,0,-2,-2,-1,0,0,-1
1514899304658891,-2,1,0,-2,-1,1,1,-2
1514899304660392,0,-2,-1,-1,-1,-1,-1,-1
1514899304660392,-1,-2,1,-1,1,-1,-1,-1
1514899304681406,1,-2,0,-1,0,-2,0,0
1514899304681406,-3,-2,-1,-1,0,-2,-2,-1
1514899304682908,0,-1,-2,0,1,0,-3,0
1514899304682908,0,0,-1,0,-3,-1,-1,-1
1514899304694917,-1,-1,-1,0,-2,-1,-1,-2
1514899304694917,-2,-1,-1,0,-1,-1,-2,0
1514899304704923,-1,-2,-2,-1,-1,-2,0,-1
1514899304704923,-1,0,-2,-1,0,-1,-2,0
1514899304718432,-2,-1,-1,-1,-2,-1,-1,0
1514899304718432,1,0,-1,-1,-1,0,-1,-1
1514899304720434,-1,0,-2,-3,-1,-2,-1,-3
1514899304720434,-1,-2,-1,-2,0,-2,-1,-2
1514899304741950,-1,-1,-2,1,-1,-2,0,1
1514899304741950,0,-2,-2,-1,-1,-2,0,-1
1514899304743454,-1,-2,-1,-3,0,-2,-1,-2
1514899304743454,-1,-2,-1,-3,-2,-1,-2,0
1514899304754958,-3,-1,-1,-1,0,-2,-1,-2
1514899304754958,-2,0,-3,-2,-2,-1,-2,0
1514899304763965,0,-1,0,0,-1,-1,0,0
1514899304763965,-2,-1,0,-1,-1,-1,-1,-2
1514899304778475,0,-2,-1,0,-1,-1,-1,-2
1514899304778475,0,-2,-1,-1,1,-1,0,0
1514899304780476,-2,0,-2,0,-1,0,-1,2
1514899304780476,-1,-1,-2,-2,0,0,-1,-2
1514899304802492,-1,-1,-1,0,-1,-1,-1,2
1514899304802492,-1,0,-1,-1,-2,-1,-1,-1
1514899304806007,-1,-3,-1,-1,-2,-2,0,-2
1514899304806007,-2,-4,-1,-1,0,1,-1,0
1514899304815512,-1,0,-1,0,-1,1,-1,-2
1514899304815512,-2,1,-2,-2,-1,-1,-1,-1
1514899304824018,-2,-1,0,-1,-3,-2,-1,-2
1514899304824018,-1,0,-2,-1,-2,-2,-1,-1
1514899304838518,-2,-1,-2,-2,-2,-1,-1,-2
1514899304838518,-3,0,-1,-1,-1,0,-2,-3
1514899304840521,0,-1,-3,-1,-2,-2,-1,-2
1514899304840521,-1,-1,-1,0,-2,-2,-2,-1
1514899304861543,-2,-2,-1,-3,-2,-1,1,-1
1514899304861543,-1,0,-1,-1,0,-1,-1,-1
1514899304863035,-1,-1,-1,-2,0,0,0,-1
1514899304863035,-1,-3,-1,-3,-2,-1,-1,-1
1514899304875044,0,-1,0,-1,0,-1,-1,0
1514899304875044,-2,-1,0,-1,-3,-2,-1,-2
1514899304884051,-1,-2,-3,1,-1,-2,-1,-1
1514899304884051,-1,0,-2,1,-1,-2,-1,-2
1514899304898562,0,0,-2,-1,-2,-2,-2,-3
1514899304898562,0,2,0,-1,-2,0,-2,-1
1514899304901563,-1,0,-1,-2,1,0,-2,-1
1514899304901563,-2,-2,-1,-1,-1,-1,-1,0
1514899304921077,-1,-1,-2,-3,-1,-2,-2,1
1514899304921077,-1,-2,-1,0,-1,-1,0,-2
1514899304923079,-1,-1,-2,-2,0,-1,-2,-1
1514899304923079,-1,-2,-1,-1,-2,-4,-1,-2
1514899304935587,-1,1,0,1,-1,-1,-2,0
1514899304935587,-1,0,-2,-2,-1,-2,0,-1
1514899304943593,-1,-3,-1,0,-1,-1,0,0
1514899304943593,0,-2,-2,-2,1,0,0,0
1514899304958602,0,-2,-1,-3,-1,-1,0,1
1514899304958602,0,1,0,-1,0,-1,-1,-1
1514899304960604,-2,-1,-1,-1,-2,0,0,-1
1514899304960604,-1,-1,0,0,0,0,-2,-1
1514899304981129,-2,-1,-2,-2,-1,-1,0,-1
1514899304981129,-1,-1,-2,-1,0,-1,-1,0
1514899304982620,-2,-1,-1,-2,-2,0,-1,-2
1514899304982620,-1,-3,0,-2,-2,0,-2,1
1514899304994631,-3,1,-1,-1,0,-2,-1,-2
1514899304994631,0,0,-1,-1,-2,-1,-2,-1
1514899305006137,0,-1,1,0,-1,-1,-1,-2
1514899305006137,-2,0,-3,0,-1,-2,1,-3
1514899305018644,-2,-1,-1,0,-1,-1,-2,0
1514899305018644,-3,-1,-2,-2,-1,-1,0,-2
1514899305020148,-1,-1,-1,1,-1,-2,0,0
1514899305020148,0,-1,-3,-2,-1,-3,-2,0
1514899305041175,-1,-1,0,-1,-1,-1,-2,0
1514899305041175,-2,0,-1,-1,-1,-2,-4,-1
1514899305044663,1,-2,0,-1,-1,-2,-3,1
1514899305044663,0,0,-1,-1,-1,-1,0,-1
1514899305054670,-3,-1,-1,0,0,0,0,-2
1514899305054670,0,0,0,-1,-1,0,0,0
1514899305064177,-1,-2,0,-1,0,-1,-1,0
1514899305064177,-1,-2,0,0,0,-1,-1,0
1514899305078687,-2,-2,-1,-1,-2,0,-2,-1
1514899305078687,-2,0,-1,-1,-2,1,0,-2
1514899305080693,0,-2,-2,-3,-1,0,-1,-1
1514899305080693,-1,-3,-1,-3,0,-1,-1,-1
1514899305101703,-1,1,-1,0,-1,-2,0,-1
1514899305101703,-1,1,-1,-3,-1,-1,1,-2
1514899305105707,-1,0,-1,-2,0,-2,-1,-2
1514899305105707,-1,-3,0,0,-2,-2,-1,0
1514899305115213,0,-2,-2,-1,-1,-1,-1,-2
1514899305115213,-2,-1,-1,-2,-2,-2,-2,-1
1514899305123724,-2,-1,-2,0,-2,0,-1,-1
1514899305123724,0,-2,-1,0,-2,-1,1,0
1514899305138731,-2,-2,-1,-1,-1,-1,0,-2
1514899305138731,0,-1,-2,-2,-2,-2,-1,0
1514899305140232,-1,-1,0,-2,-2,-1,0,-2
1514899305140232,-1,-2,-2,1,1,-1,-1,-2
1514899305161246,0,0,-2,-1,-2,0,-1,-2
1514899305161246,-1,-1,-1,0,-1,-2,-1,-2
1514899305164761,-1,-2,-1,-1,0,-2,-1,-2
1514899305164761,-1,-2,-1,-1,-1,-2,0,1
1514899305183808,-1,-1,0,-1,-1,0,-2,0
1514899305183808,0,0,-1,-3,-2,-1,-1,-2
1514899305185319,-1,-2,-1,-1,0,0,-2,0
1514899305185319,0,1,0,0,0,-1,-2,-1
1514899305198316,-1,-1,-1,1,-1,-1,-1,0
1514899305198316,-1,-1,0,1,-1,-1,-2,0
1514899305205822,0,-3,-1,-3,0,-1,-2,1
1514899305205822,0,-3,-2,-1,0,-3,-3,-1
1514899305221334,-2,-1,-1,-2,0,-1,0,0
1514899305221334,-2,0,-1,-2,-2,0,0,-2
1514899305222846,-2,1,0,-1,-1,-3,0,0
1514899305222846,-2,-2,-2,0,-2,-1,-2,-2
1514899305243848,-1,1,-1,-2,-2,-2,-2,-1
1514899305243848,-1,-2,-1,-1,0,0,-1,-2
1514899305245349,-2,-3,-1,0,-2,-1,-1,-2
1514899305245349,-1,-2,-1,-1,-1,-1,-1,-1
1514899305258871,0,1,-2,0,-1,-3,-2,-1
1514899305258871,-1,1,-1,-1,-1,0,0,-1
1514899305260373,-1,-1,-1,0,-1,-1,-2,0
1514899305260373,0,-3,-1,-2,-1,-2,-1,-1
1514899305280374,-1,1,-1,0,-1,-1,0,-1
1514899305280374,-1,-1,-1,-2,-2,-2,-1,0
1514899305281375,-1,-2,0,0,-2,-3,-1,-1
1514899305281375,0,-2,0,0,-1,0,-1,0
1514899305304393,0,-2,-1,-2,0,-1,-1,0
1514899305304393,1,1,-1,0,-1,-1,-2,-1
1514899305305893,0,-2,0,0,-2,-1,-1,0
1514899305305893,-3,0,-1,-2,-1,1,0,-2
1514899305317901,-1,-1,-1,-2,-2,-2,-1,-3
1514899305317901,-2,-1,-2,-1,-1,0,-2,1
1514899305318902,0,-2,-1,-1,0,0,-2,-1
1514899305318902,-2,0,-1,-1,-1,-2,-2,0
1514899305340918,-1,-3,-4,0,-2,1,-1,0
1514899305340918,-2,-1,-1,-1,-1,-1,-1,-1
1514899305341417,-2,-1,-3,-3,-1,1,1,-1
1514899305341417,-2,0,0,-1,0,-2,-3,-1
1514899305362937,0,-1,0,0,0,0,-1,-2
1514899305362937,-2,0,-2,-2,-1,-2,-1,-2
1514899305363935,-1,-1,-1,-3,-2,-2,-1,-1
1514899305363935,-1,-1,-2,-1,-1,-2,-1,-1
1514899305377953,0,-1,0,-1,-2,-1,-2,-1
1514899305377953,0,0,0,-1,-2,0,-1,-1
1514899305378945,0,-1,0,0,0,0,0,-2
1514899305378945,0,-2,-2,-1,-1,0,-1,1
1514899305401474,-2,0,-1,-1,0,-1,-1,-3
1514899305401474,-1,0,-1,-1,-1,-2,-1,-1
1514899305402962,-2,0,-2,0,-2,-1,-1,-1
1514899305402962,-1,-2,-2,0,-1,-3,0,-1
1514899305423035,0,0,-2,-1,0,0,0,0
1514899305423035,-2,0,-3,-2,-2,1,-1,-2
1514899305430512,-1,-1,-2,-2,0,-2,-1,0
1514899305430512,-2,-2,0,-1,-1,-2,-1,-1
1514899305438519,-2,0,-1,-2,-3,-1,-2,-1
1514899305438519,0,-1,0,0,0,-2,-1,0
1514899305439018,-1,-3,-1,1,-1,-3,-1,1
1514899305439018,0,-1,-1,-3,-1,0,0,0
1514899305468538,0,-1,-1,-1,0,-2,-1,-1
1514899305468538,-1,1,-2,-2,0,-3,0,0
1514899305469539,-2,-1,0,-2,-1,-1,0,-3
1514899305469539,-2,-1,-2,-1,0,-1,0,2
1514899305483049,-1,-2,0,-1,-1,-1,0,-3
1514899305483049,-1,1,-1,0,-2,-1,-1,-2
1514899305484049,0,-1,0,-1,-1,-1,-1,-1
1514899305484049,-1,-2,-1,-1,-2,-1,0,0
1514899305498059,-1,0,-1,-2,-1,-2,0,-1
1514899305498059,-1,-2,-1,-1,-1,0,-1,-1
1514899305499061,0,-1,-1,0,-1,-2,-1,-2
1514899305499061,-1,-1,-1,0,-2,-1,-1,-3
1514899305520576,-1,-2,-1,0,-3,-2,-1,-1
1514899305520576,-2,-1,0,-3,-2,-2,0,-2
1514899305521576,-1,-1,-1,-3,-1,-1,-1,-1
1514899305521576,-1,-3,0,0,0,-1,1,-1
1514899305543101,-3,0,-3,-1,0,-2,-1,-1
1514899305543101,-2,1,-2,-2,-2,-3,-1,0
1514899305543591,-1,-2,0,0,-1,0,-1,-1
1514899305543591,0,-2,-1,-2,-1,-2,-2,-1
1514899305558102,1,-2,-1,-2,-2,-2,-2,-1
1514899305558102,-1,0,-2,0,-2,-1,-2,-1
1514899305558602,-1,-2,-2,-1,-1,-1,-1,0
1514899305558602,-1,-1,1,-2,-1,-2,-1,1
1514899305580620,-1,0,-1,-2,0,-2,-1,0
1514899305580620,-1,-2,-1,-2,-1,-1,-1,-3
1514899305581119,-1,-1,-2,-2,-1,-1,0,-2
1514899305581119,0,-2,0,-1,-1,-2,-1,-3
1514899305604137,-1,-1,-2,0,0,0,-1,-2
1514899305604137,1,1,0,-2,0,-2,1,0
1514899305606136,-1,-1,-1,1,0,-2,-1,1
1514899305606136,-1,-3,-2,0,-1,-2,-1,-1
1514899305618145,-2,-1,-2,-1,-1,-2,-1,-1
1514899305618145,-1,0,-3,2,0,-1,-1,-1
1514899305619146,0,-1,-2,-1,-1,-1,-2,0
1514899305619146,1,1,-1,-2,-1,-2,0,-1
1514899305640661,-3,-2,-1,-1,-1,-1,-1,-1
1514899305640661,-2,-1,-1,-1,-2,-2,-1,-2
1514899305642163,-1,-3,0,-3,0,0,-1,2
1514899305642163,3,-1,-1,0,-2,0,0,0
1514899305663217,7,3,0,-2,-2,0,1,1
1514899305663217,-8,-1,0,0,0,1,2,2
1514899305663676,3,-1,-2,0,-2,-3,-2,-3
1514899305663676,-24,-12,-2,-3,-1,-1,-2,-3
1514899305678187,14,-2,-2,-1,-1,-1,-2,-2
1514899305678187,5,0,-1,-2,-1,0,-1,-4
1514899305678688,4,1,1,0,1,-1,1,0
1514899305678688,-2,2,1,0,-2,1,0,1
1514899305700202,-3,2,0,-1,-1,0,-1,1
1514899305700202,1,0,1,-1,-2,-1,-2,0
1514899305702216,1,0,-1,-1,-2,-1,-2,0
1514899305702216,2,2,0,-2,-1,-1,-2,-1
1514899305723229,-9,-2,0,0,-3,-2,-3,-2
1514899305723229,-1,-2,-2,-3,0,-1,-3,-1
1514899305723718,-4,-2,-1,-2,-2,-1,-2,-1
1514899305723718,1,-2,0,-1,-1,-1,-1,0
1514899305738248,-4,0,-2,-1,0,0,2,0
1514899305738248,0,-1,-1,-2,-1,-1,-2,-1
1514899305738730,-2,-2,-2,-2,-1,-2,0,-3
1514899305738730,2,-3,-2,-1,-1,0,0,-1
1514899305760754,-3,-1,0,-1,-2,-3,-1,-2
1514899305760754,-3,1,-1,-1,-2,0,-1,-3
1514899305761246,-4,-2,0,-2,1,-1,0,-3
1514899305761246,3,-1,-2,0,0,-2,-2,-1
1514899305783779,-3,2,0,-1,1,-1,-1,0
1514899305783779,-2,-2,-3,-2,-2,-1,-2,0
1514899305784261,1,-1,-1,-1,-2,-2,-2,-2
1514899305784261,2,-1,-2,1,0,-1,0,0
1514899305797271,-1,-1,-1,-1,-2,-2,-1,-1
1514899305797271,-3,0,-1,-2,-1,-2,-1,-2
1514899305806778,1,-2,-2,-1,-2,0,-1,-2
1514899305806778,1,1,-1,-1,0,1,0,-1
1514899305820788,-3,-3,0,-2,0,0,-3,-2
1514899305820788,0,-2,-1,0,-1,0,-2,-1
1514899305821290,-3,0,-1,-3,0,-1,-1,0
1514899305821290,-1,-3,0,-1,-1,-3,-2,0
1514899305843303,0,-2,-1,-1,-2,0,-2,-1
1514899305843303,3,0,-1,-1,-1,0,-2,-1
1514899305843816,-1,-2,-1,1,-1,-1,-1,-2
1514899305843816,-1,-1,-1,0,-1,-3,1,1
1514899305857323,8,2,-1,-2,-2,-1,-2,-1
1514899305857323,-5,-2,-1,-1,-2,-1,-2,-1
1514899305865819,-8,-2,-2,-1,-1,-2,-2,-3
1514899305865819,0,-3,-4,-1,-2,-3,0,-3
1514899305880830,-2,-2,-2,-1,0,0,-1,-1
1514899305880830,4,1,-1,0,-1,1,-1,1
1514899305881331,6,0,-2,-2,-2,-1,-2,-1
1514899305881331,-5,-4,-2,-2,-1,-2,-2,-3
1514899305902855,-1,0,0,-1,0,-1,0,1
1514899305902855,0,-1,-4,-1,-1,-1,0,-2
1514899305903847,-2,-1,0,-1,1,1,-3,0
1514899305903847,-1,0,0,-1,-1,0,-2,0
1514899305918366,-1,0,-1,-1,-2,-2,-1,-1
1514899305918366,-12,0,-2,-2,-1,-1,-1,-3
1514899305925371,1,-3,0,1,-2,0,0,0
1514899305925371,-2,0,-1,-2,0,-2,0,-1
1514899305940372,-1,0,0,-1,0,1,0,-1
1514899305940372,-7,-7,-1,-2,-1,-3,-1,-2
1514899305941372,-1,0,-1,-2,-1,-2,1,0
1514899305941372,3,0,0,-1,-2,1,-1,0
1514899305962888,-6,-4,-4,-3,-2,-1,-1,0
1514899305962888,3,1,-1,-1,0,-1,-2,-2
1514899305963889,0,-2,-2,-2,-3,-1,-1,-1
1514899305963889,-2,0,-1,0,0,-1,0,0
1514899305986405,-3,-3,-3,-2,-2,-2,-1,-1
1514899305986405,0,-1,-1,-1,-2,-1,0,-3
1514899305986905,-3,-4,-3,-1,0,-2,-2,0
1514899305986905,4,0,0,-1,-1,0,-3,1
1514899306000414,-9,-2,-2,0,-1,0,0,-2
1514899306000414,0,-1,-1,-2,0,-2,-2,-2
1514899306001415,-1,0,-1,-2,-1,-1,0,-1
1514899306001415,-2,-2,-1,1,-4,-2,-3,-1
1514899306022930,0,-1,0,0,0,-1,-1,-1
1514899306022930,3,-1,-1,-1,-2,-2,-3,-2
1514899306023931,-5,-2,-1,0,-1,-1,1,1
1514899306023931,-3,-4,-3,-2,-1,0,-2,1
1514899306053953,-2,-1,-1,-1,0,1,-2,-1
1514899306053953,0,2,-2,-1,0,0,-1,-1
1514899306054454,1,0,0,-1,-1,0,-2,0
1514899306054454,-1,-1,-2,-2,-1,-2,0,-2
1514899306060457,4,3,0,0,-2,0,-2,1
1514899306060457,-12,-5,-2,-3,-1,-1,-1,-3
1514899306061458,-2,-5,-1,-3,-1,-2,-2,0
1514899306061458,-3,-2,0,-1,-1,-1,-1,0
1514899306082973,3,1,0,-2,-1,-1,-2,-1
1514899306082973,2,1,-1,-2,-1,1,1,1
1514899306083973,-1,-2,-2,1,-1,0,0,0
1514899306083973,-3,1,0,0,-1,-1,0,0
1514899306105989,6,0,-1,-2,-1,0,-1,-3
1514899306105989,-13,0,-1,0,-2,-1,-2,0
1514899306106990,-1,-3,-2,-2,-1,-2,-1,-2
1514899306106990,3,0,-2,-2,0,-1,-1,0
1514899306120502,-5,-5,-2,1,-1,1,-1,-1
1514899306120502,5,0,0,-2,-4,-3,-2,0
1514899306121502,-6,-3,1,2,-4,-2,0,-5
1514899306121502,2,3,1,-2,5,0,-1,-1
1514899306143028,-2,-1,-8,-14,-1,-2,1,-2
1514899306143028,-6,0,8,7,-15,-3,-3,-1
1514899306144028,4,-4,-2,-7,14,1,-1,-3
1514899306144028,-12,-10,-16,-7,0,3,2,2
1514899306166044,10,7,6,12,-1,-1,1,-1
1514899306166044,5,3,-16,-18,6,1,0,-1
1514899306167045,-13,-3,3,-24,-13,-5,-1,0
1514899306167045,9,7,12,25,-5,-4,-4,0
1514899306180551,-1,-10,-11,-25,6,2,1,3
1514899306180551,-16,-3,3,6,-3,0,0,1
1514899306181542,38,14,0,4,0,0,1,7
1514899306181542,-30,-4,3,2,-3,-3,-8,-13
1514899306203559,-3,1,0,9,-9,-5,-4,-5
1514899306203559,1,-3,2,5,5,1,0,1
1514899306205559,-6,-1,-3,2,-1,0,0,-2
1514899306205559,12,2,1,-6,0,1,1,3
1514899306226086,-5,3,5,6,-2,-2,0,-1
1514899306226086,7,-2,-6,-8,1,-1,-1,-3
1514899306227087,-6,-5,-1,4,-1,-2,0,0
1514899306227087,-3,2,-1,-2,-2,-2,1,-1
1514899306240591,-7,-7,-5,-3,0,0,-1,-2
1514899306240591,20,-2,-2,1,0,-3,-2,-1
1514899306241585,-7,0,-1,3,-1,0,-2,1
1514899306241585,1,-11,-2,-4,-1,-1,1,0
1514899306263101,1,0,3,0,-2,-1,-1,-1
1514899306263101,-8,-1,-3,-6,-3,-2,3,5
1514899306263600,1,-3,-4,-2,1,-3,-9,-14
1514899306263600,2,-4,-3,-9,0,-1,-1,-5
1514899306286156,1,1,0,4,-5,-3,0,-1
1514899306286156,8,4,0,3,0,0,-2,1
1514899306287129,-6,-9,-3,-5,-1,1,1,1
1514899306287129,0,17,2,0,-2,-1,-1,-1
1514899306301627,-9,-1,-3,1,0,0,2,-6
1514899306301627,-12,1,3,3,-1,-3,-1,0
1514899306303639,5,-1,-3,-5,-2,0,1,6
1514899306303639,-8,-2,-2,2,2,-2,1,2
1514899306323152,8,-6,-2,-2,-2,-3,-1,-2
1514899306323152,-10,-7,3,5,-2,-2,-1,-4
1514899306323643,-2,7,3,-3,2,-1,-1,-2
1514899306323643,18,-4,-12,-18,1,-1,0,4
1514899306346168,-10,4,-1,2,2,2,-2,-5
1514899306346168,0,-10,-4,-4,-2,0,2,3
1514899306347173,-6,-7,-10,6,-3,-2,-3,-7
1514899306347173,5,5,15,6,-3,-2,0,2
1514899306360678,-8,1,3,-3,-1,-2,-1,4
1514899306360678,8,3,-2,-3,-3,-4,-2,0
1514899306362180,-3,-4,2,17,0,-1,-8,-14
1514899306362180,-4,5,-8,-6,1,1,1,0
1514899306383185,2,-5,-7,-1,-1,0,-3,-2
1514899306383185,-5,1,-1,-1,1,2,13,0
1514899306384194,-1,6,0,-4,-4,-6,-20,-4
1514899306384194,-18,-16,0,6,-3,-3,-2,-11
1514899306406701,-1,0,-13,7,-4,-2,-4,-1
1514899306406701,3,-1,8,-13,2,1,-3,-2
1514899306408703,8,-1,0,-4,2,0,2,1
1514899306408703,-6,-4,4,8,0,2,3,-1
1514899306420737,-9,5,1,-3,-2,-1,7,3
1514899306420737,9,1,-12,0,-1,0,-3,7
1514899306421239,7,0,1,-1,0,0,7,11
1514899306421239,10,4,4,-5,-5,-5,-15,-9
1514899306442753,-23,5,-2,6,4,1,4,-3
1514899306442753,-6,-12,2,-2,-1,-3,29,1
1514899306443753,23,-1,-6,-7,-2,0,-24,-6
1514899306443753,-21,-10,-9,-2,-1,-5,-23,-3
1514899306466269,53,1,-1,-5,-2,0,-3,-2
1514899306466269,-43,-11,16,11,4,5,12,7
1514899306467770,-10,-8,-12,-4,-5,-8,-20,-23
1514899306467770,-10,2,-4,-4,-4,0,3,19
1514899306480279,7,4,14,-1,0,0,8,-11
1514899306480279,-10,-6,-3,-2,-4,-3,-33,-8
1514899306481279,7,1,-2,5,3,3,33,24
1514899306481279,5,-4,-11,13,-1,-3,16,10
1514899306503293,-14,-9,-13,-24,1,2,-12,0
1514899306503293,11,13,6,3,0,-2,-8,1
1514899306504798,4,-1,11,3,-2,-2,-3,-8
1514899306504798,4,-3,-4,-5,-1,0,21,15
1514899306526310,9,2,3,6,1,0,1,5
1514899306526310,-5,3,3,3,-2,-4,-20,-29
1514899306526811,-3,-2,-6,-1,2,2,4,19
1514899306526811,2,7,-1,-3,-4,-4,-6,-21
1514899306540320,-16,-13,-4,0,-1,-1,-14,1
1514899306540320,10,2,-8,-7,-3,-2,2,-12
1514899306541321,-18,-6,9,4,-2,1,13,16
1514899306541321,27,8,-11,2,4,4,-4,-26
1514899306562848,-25,-20,8,-5,-7,-5,-8,-10
1514899306562848,13,10,-9,5,-2,-3,-7,4
1514899306563851,-17,2,-2,0,0,2,13,-1
1514899306563851,15,-19,-21,-35,-1,0,4,6
1514899306586352,7,8,6,9,-2,2,10,18
1514899306586352,-16,13,0,-5,-1,0,8,-4
1514899306586852,16,5,5,0,0,-1,8,12
1514899306586852,-21,-9,22,15,1,-3,-12,-4
1514899306600363,-2,1,-32,-7,1,2,-5,-1
1514899306600363,-1,0,-1,-5,1,3,31,0
1514899306602364,-36,-22,-12,-6,-7,-11,-28,-39
1514899306602364,23,12,13,5,2,0,-10,8
1514899306622879,-3,-6,13,10,1,-2,16,4
1514899306622879,-3,14,6,6,2,-2,-33,-9
1514899306623879,16,-7,-9,-11,-2,3,8,15
1514899306623879,-13,-3,-1,1,0,3,14,-13
1514899306646395,-2,3,11,2,-3,-6,-36,-14
1514899306646395,20,13,-6,-4,-2,-1,-8,9
1514899306646905,-28,12,1,-4,-1,-1,-14,-26
1514899306646905,12,-13,-3,3,-2,1,9,17
1514899306660406,13,13,-4,-6,-3,-2,14,2
1514899306660406,-3,-1,-10,-2,2,1,11,9
1514899306661413,37,15,13,5,-1,-5,-28,-7
1514899306661413,-23,-22,2,-1,-1,-1,-2,2
1514899306682920,1,23,-2,2,-1,-2,-2,-1
1514899306682920,4,-57,-7,-2,0,-1,-15,-11
1514899306683921,1,14,7,-1,0,5,33,22
1514899306683921,-16,2,-12,-9,-4,-7,-16,-12
1514899306706938,18,28,17,8,3,1,3,20
1514899306706938,-10,-38,-20,-12,-6,-6,-19,-14
1514899306708440,-6,-14,9,3,3,3,14,5
1514899306708440,-26,-4,21,11,-1,-7,-43,-45
1514899306719948,18,11,2,4,0,2,9,12
1514899306719948,-6,9,-17,-13,-7,-3,-4,10
1514899306727953,-32,-42,-17,-18,-3,-4,-13,-15
1514899306727953,29,23,-9,-7,0,5,8,5
1514899306750970,-60,-8,18,16,2,-1,26,19
1514899306750970,19,19,-14,-24,-5,-1,-5,-17
1514899306751971,22,-30,9,9,1,2,16,7
1514899306751971,-26,9,-29,-15,-6,-5,-10,-14
1514899306765980,23,-42,-6,-7,-2,5,-16,-11
1514899306765980,-36,4,9,9,-2,-3,42,56
1514899306766981,20,-6,-8,-2,-5,-9,-9,-64
1514899306766981,0,15,21,6,-3,-1,14,0
1514899306779990,38,7,-38,-18,-3,2,37,68
1514899306779990,-10,-5,21,20,5,-4,-67,-52
1514899306788497,-31,14,-20,-5,-7,-8,-11,-8
1514899306788497,16,-10,30,9,3,1,6,18
1514899306803006,-2,-32,-10,-7,0,3,-7,-32
1514899306803006,3,-17,4,-4,-7,-1,18,40
1514899306804006,9,42,-2,4,1,2,-19,15
1514899306804006,1,-33,20,19,9,-3,-25,-25
1514899306826032,-25,-2,-22,-19,-12,-13,-14,-12
1514899306826032,35,44,23,7,2,-1,-46,-33
1514899306827023,-16,2,-5,6,4,1,-20,-34
1514899306827023,3,-52,-17,-7,-6,-2,23,42
1514899306840031,-8,10,14,-5,3,2,-10,-24
1514899306840031,18,31,24,9,-4,-5,16,-13
1514899306848047,-12,41,-17,-10,-2,8,28,76
1514899306848047,-7,90,18,6,5,7,72,43
1514899306863049,30,-11,-18,-23,-15,-21,2,10
1514899306863049,9,-73,-2,3,2,9,23,-4
1514899306864550,-10,39,12,-1,-3,1,9,45
1514899306864550,3,2,-9,-10,-5,-4,-37,-64
1514899306886076,6,45,18,0,-6,-4,-39,-18
1514899306886076,-36,21,0,5,5,6,31,17
1514899306887066,27,-19,-28,-5,-4,-4,-3,6
1514899306887066,-3,-83,-15,1,2,4,-3,-16
1514899306899575,-8,23,-11,2,3,2,11,-28
1514899306899575,6,-27,-15,6,-2,-3,-1,-5
1514899306908081,-27,5,37,11,3,6,61,53
1514899306908081,37,21,1,-1,-1,1,-69,-21
1514899306924102,-21,-13,24,10,5,3,14,9
1514899306924102,1,-31,-38,-6,0,2,-8,16
1514899306926103,21,10,-6,-1,-1,-5,3,-12
1514899306926103,0,41,-6,-6,-1,4,30,65
1514899306946107,-1,-27,15,13,0,-3,-10,-97
1514899306946107,-35,43,-7,-5,3,6,-1,20
1514899306947120,-18,-52,4,0,-8,-15,-47,-104
1514899306947120,-6,42,11,-13,-7,-9,-17,0
1514899306970133,-21,-8,-23,8,6,10,-13,24
1514899306970133,-2,20,12,-10,-6,-8,12,-20
1514899306971126,8,-80,-39,-4,6,9,-5,-3
1514899306971126,-5,29,7,-8,-12,-15,-18,-17
1514899306983132,-2,-28,2,4,-1,-2,-12,-43
1514899306983132,36,59,30,3,-2,-1,21,1
1514899306983634,-23,-69,20,11,10,9,12,17
1514899306983634,16,11,-24,-12,-5,-2,9,-31
1514899307007651,-44,4,-19,-16,-10,-7,6,26
1514899307007651,-3,-62,-14,-10,-1,-3,0,-6
1514899307009664,-13,57,29,7,-6,-5,39,24
1514899307009664,1,-40,-16,11,2,2,9,24
1514899307028675,15,-22,22,34,9,2,-18,-10
1514899307028675,-6,51,-5,-50,-2,4,3,29
1514899307029665,64,3,-21,-26,-6,-8,-22,29
1514899307029665,-16,-28,-11,-5,-4,2,39,44
1514899307043185,12,12,-11,8,5,11,29,20
1514899307043185,37,42,58,36,5,-4,-22,10
1514899307043675,0,-6,-18,-2,4,3,7,77
1514899307043675,-3,9,4,-33,-3,0,-11,-24
1514899307066201,-12,-5,-24,8,0,-6,3,-3
1514899307066201,-30,-39,13,-1,2,6,-6,-13
1514899307067202,16,100,-30,-9,-5,0,7,2
1514899307067202,-24,-83,-33,2,-1,-4,-9,19
1514899307089208,39,54,44,9,5,4,1,3
1514899307089208,-44,-69,-39,-4,-5,-7,-19,-35
1514899307089709,19,29,14,-22,-5,-2,-18,-11
1514899307089709,-23,-55,-36,-9,-5,-6,-4,55
1514899307103220,14,32,30,-7,-3,-8,-1,0
1514899307103220,25,-4,-9,29,8,0,21,8
1514899307104221,-34,-64,25,7,3,3,-15,-29
1514899307104221,2,6,-19,0,-1,-3,8,-24
1514899307126246,3,27,18,5,-3,1,17,24
1514899307126246,19,-6,-10,-24,-5,-1,-8,13
1514899307126735,-29,10,3,11,2,0,15,-43
1514899307126735,24,10,20,7,6,8,-16,-10
1514899307148750,-17,-33,-13,-11,-6,-3,11,1
1514899307148750,9,62,9,24,3,2,-6,-17
1514899307149251,-10,-40,-16,-18,-9,-4,25,15
1514899307149251,-10,-14,41,10,5,2,25,27
1514899307172267,89,21,-24,-3,-1,4,-17,26
1514899307172267,-50,-82,-46,-24,-12,-10,-5,-30
1514899307173267,3,20,15,9,0,-2,-29,-33
1514899307173267,-1,43,3,8,-2,2,18,17
1514899307186276,-49,-18,-9,-21,-6,-4,-16,76
1514899307186276,25,-42,1,-11,-4,-4,-13,-69
1514899307186776,6,-18,-9,20,1,-3,-30,-15
1514899307186776,4,-19,-15,-8,0,3,21,2
1514899307209292,-24,-54,-23,-32,-6,-5,-14,-2
1514899307209292,0,36,-5,7,-3,-4,3,18
1514899307210293,32,50,26,5,0,-4,-14,-23
1514899307210293,-19,-46,-10,0,0,-1,-19,-31
1514899307222802,17,9,-20,-4,-8,-6,15,-10
1514899307222802,-9,62,56,15,4,4,19,21
1514899307223804,-22,-53,-24,-12,-1,0,13,-1
1514899307223804,11,38,-32,2,-5,-3,10,32
1514899307246328,-41,0,13,-2,5,6,-16,11
1514899307246328,2,-8,19,13,6,-3,9,-58
1514899307246819,9,-32,-20,-9,-4,0,9,0
1514899307246819,10,93,61,12,5,-1,4,15
1514899307268834,-43,-112,-71,-15,-8,-8,-33,-62
1514899307268834,7,34,33,17,1,7,-15,-11
1514899307270346,-13,4,-23,-12,-3,-3,-27,-10
1514899307270346,-10,-27,-17,2,4,0,-24,-49
1514899307282854,23,50,39,-1,-2,-1,7,37
1514899307282854,-3,-14,-34,9,-5,-10,-3,-16
1514899307283855,-5,-6,23,5,-2,-6,-27,-45
1514899307283855,-17,-23,3,14,0,2,26,-4
1514899307306863,22,47,10,-7,4,7,36,50
1514899307306863,-27,-40,11,-2,1,2,5,-3
1514899307308864,-12,-5,-22,11,3,1,16,0
1514899307308864,22,7,-2,-19,0,3,-10,3
1514899307328884,-27,52,10,6,0,2,-3,-18
1514899307328884,8,-29,-7,-11,-8,-7,12,40
1514899307329378,10,-5,5,-8,-5,-3,22,11
1514899307329378,-24,11,10,24,6,6,10,8
1514899307351393,18,2,-25,3,-6,-8,-22,-19
1514899307351393,19,21,4,-15,1,2,-12,1
1514899307351893,-22,-43,13,-5,-1,0,6,37
1514899307351893,20,-45,-48,-18,-6,-6,0,-44
1514899307366403,7,26,14,9,3,1,-2,-8
1514899307366403,-20,-19,-17,-3,0,1,13,69
1514899307367905,-13,28,2,-4,-3,-2,-4,-59
1514899307367905,33,33,24,3,-6,-6,10,-1
1514899307388921,-12,30,-17,-10,-1,-6,-40,-79
1514899307388921,34,18,-25,-10,-9,-3,-18,13
1514899307389424,0,36,21,6,2,3,17,23
1514899307389424,-23,-45,-20,-10,-4,-4,-39,-9
1514899307403431,-5,-8,7,24,8,4,22,-11
1514899307403431,2,32,2,-15,-4,0,25,58
1514899307411460,8,14,22,2,5,2,-26,-12
1514899307411460,-23,8,-17,-8,-7,-7,11,41
1514899307433452,20,-33,19,2,1,0,-16,-4
1514899307433452,-42,-32,1,15,5,0,-10,26
1514899307435452,-26,-18,-9,3,-4,-1,25,3
1514899307435452,-19,38,20,-1,1,4,-3,57
1514899307448472,-6,10,8,9,-1,-5,3,-11
1514899307448472,16,7,-34,-22,-1,1,-10,-34
1514899307450463,12,-6,0,2,-4,-2,8,38
1514899307450463,-10,-45,-3,8,1,-3,-24,-48
1514899307462473,-31,4,-28,-26,-5,6,37,16
1514899307462473,-5,21,15,21,8,6,6,6
1514899307471478,-23,34,-4,-4,-3,-5,27,12
1514899307471478,20,71,25,5,2,-3,-24,-87
1514899307485998,11,-27,-17,-4,-2,-3,-28,-8
1514899307485998,-8,-22,-14,-16,-6,2,11,-28
1514899307487992,22,75,10,8,0,-7,-19,19
1514899307487992,14,-23,19,-4,-3,-1,-3,-1
1514899307509505,-5,63,15,4,-2,2,16,7
1514899307509505,13,-37,2,6,0,-2,-5,21
1514899307512016,-27,-73,-41,-15,-4,-2,27,-14
1514899307512016,18,11,6,5,0,0,-33,-45
1514899307522514,-2,-4,-1,-22,-7,-2,3,-1
1514899307522514,-38,-50,7,8,2,0,8,-3
1514899307531520,33,45,-4,-2,-2,-1,-25,22
1514899307531520,5,15,12,-4,-2,-2,-7,-29
1514899307553546,-26,-85,-21,3,3,0,-10,-32
1514899307553546,31,113,26,-1,-5,-4,32,5
1514899307555537,18,-87,-27,-1,-2,-4,-9,2
1514899307555537,-50,-5,-7,-5,-2,2,3,33
1514899307568547,4,18,18,12,-2,0,37,19
1514899307568547,-11,19,-36,-16,-4,-5,-11,3
1514899307572049,30,-47,13,13,1,-1,-12,0
1514899307572049,1,15,13,17,4,4,41,44
1514899307582556,-8,-31,18,-10,-4,-2,-29,12
1514899307582556,-5,-40,-61,-12,-3,-6,25,-66
1514899307591562,-24,-23,29,15,7,3,-49,-36
1514899307591562,5,-56,-3,-2,-4,2,6,21
1514899307614080,4,10,-34,-1,3,0,-20,-35
1514899307614080,-8,-48,15,6,-3,-5,-21,-14
1514899307618082,32,85,44,-4,3,1,0,14
1514899307618082,-36,-3,-21,3,-3,-5,7,-2
1514899307628589,23,-6,-22,-11,-4,-1,11,12
1514899307628589,1,-1,26,-1,0,3,-33,-9
1514899307630091,36,41,20,13,7,5,20,-16
1514899307630091,-35,-35,4,3,0,0,-34,56
1514899307651123,9,55,10,-7,-4,-5,1,-45
1514899307651123,-8,-21,-43,-22,-7,-7,-11,2
1514899307652606,-13,2,9,-10,-4,1,-10,53
1514899307652606,41,15,5,16,6,3,30,-36
1514899307666115,-24,-19,16,-3,-4,-1,28,27
1514899307666115,-5,3,-19,9,0,-2,-1,18
1514899307667616,4,13,18,0,2,4,11,3
1514899307667616,1,-11,-29,-6,-3,-4,-22,-29
1514899307688632,9,21,25,2,8,9,15,33
1514899307688632,2,64,61,14,0,-2,14,6
1514899307690133,-34,-28,-57,-19,-9,-5,-17,-18
1514899307690133,18,-13,15,5,7,6,-9,-19
1514899307702141,-3,20,1,6,-7,-7,-14,-14
1514899307702141,15,-12,23,8,5,3,-1,32
1514899307711148,-36,16,-36,-16,-5,-5,-14,-9
1514899307711148,2,-20,30,-10,-2,-3,-4,-14
1514899307727158,16,-39,-10,4,3,2,0,58
1514899307727158,20,-4,-7,-9,-2,-2,-2,-27
1514899307730661,34,52,4,-10,-4,-2,26,5
1514899307730661,-40,-11,3,-3,-1,-3,-19,-21
1514899307756680,-21,-24,-20,16,2,0,-3,2
1514899307756680,-19,-14,-33,-20,-8,-3,3,26
1514899307758182,13,20,-20,-19,0,1,-9,7
1514899307758182,28,3,-11,-11,-6,-4,37,-25
1514899307762685,16,54,53,15,-1,-1,5,11
1514899307762685,17,16,-3,16,8,8,-10,33
1514899307771190,-36,-17,-8,-7,-6,-11,-9,-36
1514899307771190,-6,7,-16,-5,-7,-3,-1,18
1514899307793706,15,86,17,6,-1,-3,1,-22
1514899307793706,-20,-86,-21,1,0,3,21,27
1514899307795212,-4,-96,-12,12,4,-1,3,12
1514899307795212,-3,74,-7,-8,-6,-7,-14,-7
1514899307808716,-26,-33,19,10,4,-1,-2,4
1514899307808716,44,48,40,11,-1,-2,-43,-45
1514899307810219,-6,9,3,-28,-10,-7,-7,-81
1514899307810219,9,-41,-17,-8,-4,-3,12,20
1514899307831732,15,-22,-7,4,4,3,-12,-25
1514899307831732,-15,7,17,2,1,4,8,50
1514899307833234,-20,-19,4,16,2,-5,-35,3
1514899307833234,16,-8,-12,0,1,2,23,31
1514899307846243,-16,-18,-18,-18,-10,-9,-34,-56
1514899307846243,17,23,-5,11,5,6,22,-4
1514899307847744,-6,-4,22,21,4,5,20,22
1514899307847744,12,9,-20,-33,-6,-2,-10,0
1514899307869759,-24,-77,-16,4,-4,-1,8,24
1514899307869759,9,66,-12,9,-1,-4,-11,-63
1514899307873264,10,81,-8,0,-1,-2,-1,-16
1514899307873264,-20,-26,-23,11,0,-2,21,78
1514899307882271,-9,-35,-23,-28,-6,-2,-23,-53
1514899307882271,-3,31,20,4,0,-3,-3,11
1514899307891776,-5,-34,-7,-3,1,1,-12,11
1514899307891776,-36,31,24,10,2,-4,-5,-39
1514899307907287,-28,13,39,15,-1,-5,-6,-1
1514899307907287,37,-65,-62,-57,-9,0,18,37
1514899307909289,-3,-44,2,17,1,0,12,15
1514899307909289,29,75,43,7,5,6,-14,-3
1514899307928801,23,11,2,9,4,1,1,30
1514899307928801,-30,-35,19,-10,-5,-12,-12,-80
1514899307931303,-6,-55,-24,-8,-7,2,24,32
1514899307931303,33,21,-6,-21,-5,-5,-26,-29
1514899307942812,-14,-4,-1,4,-2,1,25,19
1514899307942812,-8,-22,-7,12,5,1,-12,-4
1514899307951317,32,72,18,4,0,-2,20,22
1514899307951317,-28,12,21,20,2,-2,3,-50
1514899307967329,-19,-9,-31,-29,-6,-1,14,20
1514899307967329,17,22,7,10,-3,-6,-30,7
1514899307970831,-44,-75,-23,-2,1,-1,-28,-18
1514899307970831,24,31,-30,-16,-4,1,14,2
1514899307988844,23,35,11,14,7,5,14,36
1514899307988844,-31,-18,-12,-7,-3,-4,6,-22
1514899307990345,22,16,9,8,1,1,3,14
1514899307990345,-24,85,44,29,6,6,12,21
1514899308011361,44,-51,-47,-35,-11,-13,-33,-20
1514899308011361,29,34,34,21,9,3,-10,-12
1514899308012862,-37,11,-29,-4,-3,-1,-3,-10
1514899308012862,2,-87,-2,-2,-4,-1,-12,-5
1514899308025872,-18,-33,0,1,1,6,34,38
1514899308025872,-1,26,-1,-12,-5,-4,-24,-35
1514899308040381,20,-6,17,8,4,4,27,54
1514899308040381,-4,26,23,20,6,0,-22,-63
1514899308048886,20,-17,-43,-30,-6,-1,-3,-7
1514899308048886,-3,21,11,-3,-5,-5,-12,21
1514899308050388,7,13,35,1,1,3,19,-10
1514899308050388,-1,-24,-63,-1,-8,-5,8,30
1514899308071402,11,9,-22,6,3,-1,-16,-16
1514899308071402,0,-9,20,10,4,1,12,24
1514899308074905,-13,8,-5,-9,-2,-4,-6,-4
1514899308074905,-8,17,39,8,0,0,8,8
1514899308085932,-21,24,7,8,-2,-6,-46,-98
1514899308085932,6,20,-37,-13,-3,2,17,11
1514899308087935,-2,-69,17,12,2,-3,-4,-1
1514899308087935,-18,-27,-20,-6,-3,-3,-1,-1
1514899308109451,-7,21,-1,-13,-3,2,2,8
1514899308109451,-11,-9,13,-7,-1,-1,8,39
1514899308110452,-26,-28,3,8,-2,-1,-8,-38
1514899308110452,-4,-31,-56,-41,-10,-8,-9,-20
1514899308130965,22,96,46,5,2,2,25,20
1514899308130965,-16,-49,-17,1,1,7,-3,-27
1514899308132965,-7,14,5,7,1,-3,-21,-14
1514899308132965,26,-24,1,-6,-4,-3,-8,36
1514899308146476,-30,-41,16,6,5,6,6,17
1514899308146476,-8,3,11,4,-6,-7,6,-18
1514899308152479,0,-18,-20,-6,-3,-2,10,0
1514899308152479,3,2,-9,2,-1,2,-9,6
1514899308168491,16,41,3,-9,-2,-6,21,32
1514899308168491,-10,-17,4,15,2,1,-27,-13
1514899308170493,12,-15,-34,-25,-5,-6,7,-20
1514899308170493,3,31,9,1,-1,3,12,39
1514899308191628,-18,6,-17,-1,-5,-7,-19,-41
1514899308191628,8,-6,5,0,-1,-4,10,5
1514899308194632,11,64,-2,4,0,-1,-5,-1
1514899308194632,4,19,25,0,2,-1,7,17
1514899308206141,-9,-52,-16,-8,0,0,3,-27
1514899308206141,-16,-9,18,12,4,0,-7,27
1514899308212645,26,11,2,-7,-2,-5,-50,-68
1514899308212645,-29,-35,-1,2,5,5,15,9
1514899308236159,42,49,46,21,2,2,-12,-1
1514899308236159,-6,-6,-39,-27,-12,-15,-12,7
1514899308238161,-1,-30,-14,7,2,4,19,36
1514899308238161,-10,-44,-1,-12,-5,-3,-25,-15
1514899308251170,-27,0,0,3,-1,-5,-18,-10
1514899308251170,34,29,16,13,3,5,10,8
1514899308252671,0,-36,-7,-6,1,-1,23,26
1514899308252671,1,69,6,-11,-4,-2,-6,-19
1514899308266681,4,-1,5,13,4,2,-4,-24
1514899308266681,3,-37,-25,-12,-6,-2,2,-35
1514899308272186,9,52,18,13,2,1,-12,15
1514899308272186,1,6,14,-7,-5,-10,9,6
1514899308288699,-4,6,-17,0,-4,-2,-9,-16
1514899308288699,-3,30,7,-10,-6,-7,-1,17
1514899308290200,-28,-61,-1,4,0,-2,-22,-16
1514899308290200,-4,-47,-18,-4,2,0,6,-23
1514899308310712,-7,-18,-23,-13,-3,4,19,23
1514899308310712,6,3,25,13,3,-5,-26,-2
1514899308318232,-6,24,-28,-22,-7,0,-5,-17
1514899308318232,13,22,5,6,2,-2,-1,8
1514899308325723,-21,-31,-15,0,-4,-8,-13,-20
1514899308325723,0,18,6,6,4,7,16,27
1514899308332227,12,-37,-2,-12,-4,-7,-24,-11
1514899308332227,-6,42,0,18,9,10,7,2
1514899308356245,29,-21,-6,-1,-7,-3,21,-21
1514899308356245,-33,3,-12,-23,-3,-2,-14,16
1514899308357747,6,58,5,13,1,-1,3,-5
1514899308357747,25,-44,-8,-7,-3,-1,-2,-5
1514899308370755,-30,-16,33,21,4,-4,-6,7
1514899308370755,-27,-72,-53,-15,-1,1,9,-8
1514899308377271,38,43,-33,-11,-6,-2,27,23
1514899308377271,-3,-14,27,4,1,-4,-6,-1
1514899308393783,-17,26,20,7,0,1,10,31
1514899308393783,18,-24,-44,-12,-7,-6,-25,-22
1514899308395273,21,46,32,3,2,5,24,15
1514899308395273,-11,44,-12,-8,-2,-1,2,-1
1514899308408783,-10,55,22,1,0,0,-2,27
1514899308408783,1,-4,4,-1,-3,-5,-10,-23
1514899308410783,-30,33,20,6,0,-2,-9,-2
1514899308410783,2,-7,-19,0,-4,-6,-10,6
1514899308431298,8,8,8,-9,-2,-1,-14,-2
1514899308431298,-5,4,20,18,6,6,30,10
1514899308432799,-45,-15,-26,-10,-4,-2,-11,-8
1514899308432799,-4,-7,-3,-1,-5,-4,3,-14
1514899308445307,-4,-8,-17,-3,0,1,-2,10
1514899308445307,9,-2,7,5,-2,-1,10,24
1514899308452313,-3,-13,35,20,6,2,-12,-6
1514899308452313,-5,-36,-35,-21,-3,0,-7,-10
1514899308468829,-14,39,14,6,2,0,-2,-4
1514899308468829,30,52,-28,-17,-5,-5,-7,-12
1514899308471327,-18,-60,30,16,2,4,-4,13
1514899308471327,-1,12,-23,-7,-5,-5,-20,-17
1514899308491840,2,-4,3,1,2,3,14,23
1514899308491840,-14,-44,-15,-1,-1,-1,-15,-9
1514899308493350,12,47,22,4,2,-1,4,-6
1514899308493350,-4,4,-27,-4,-3,1,4,1
1514899308504851,12,-13,-19,-16,-2,1,0,9
1514899308504851,2,-6,40,3,-3,-3,10,7
1514899308513857,-1,25,-40,-23,-7,-6,-10,-24
1514899308513857,26,6,19,9,-2,-1,7,3
1514899308529368,-37,-3,-20,6,0,0,-5,0
1514899308529368,-2,1,-9,-5,-3,0,-6,-1
1514899308532369,-3,37,14,-1,0,-3,8,11
1514899308532369,9,-56,24,16,8,3,4,7
1514899308551382,7,13,-20,-22,-8,-8,-3,20
1514899308551382,-26,-15,-3,4,0,-1,1,-32
1514899308552883,13,9,9,6,2,0,-6,-3
1514899308552883,-30,24,5,6,-1,2,-1,-11
1514899308565893,14,-64,9,0,1,2,9,22
1514899308565893,6,25,26,3,0,-2,4,-26
1514899308573905,-1,-28,-36,-12,-4,1,6,17
1514899308573905,2,17,18,-1,1,3,21,8
1514899308588909,4,6,-3,-7,-1,1,-15,-14
1514899308588909,3,-61,-22,-8,-3,-1,4,17
1514899308590409,20,-44,10,8,0,3,14,4
1514899308590409,17,49,5,7,0,-3,-9,0
1514899308611425,10,-16,-3,11,-2,-3,9,-8
1514899308611425,-15,40,7,-2,3,1,-3,-10
1514899308612926,-7,-2,2,-11,-6,0,32,21
1514899308612926,-11,-36,-7,-5,-2,-3,-21,8
1514899308625936,5,11,-3,8,0,-2,-3,-9
1514899308625936,4,21,6,-13,-2,0,4,11
1514899308633942,-18,-31,-5,7,-1,-2,-4,0
1514899308633942,1,23,-19,-14,-3,0,20,56
1514899308648451,-8,-36,9,3,-5,-4,24,-30
1514899308648451,-9,0,5,14,4,0,-4,-4
1514899308650452,-10,4,-16,-12,-2,-2,-6,-1
1514899308650452,26,35,36,19,4,4,13,20
1514899308670981,-17,-28,-11,-12,-3,-5,-20,-49
1514899308670981,-18,-18,-40,-11,-4,0,16,-4
1514899308672971,25,-10,7,6,1,-1,8,10
1514899308672971,-6,2,-9,0,-2,1,-13,-16
1514899308684977,10,11,18,3,-1,0,-3,15
1514899308684977,-2,-8,-24,-4,0,1,-12,-19
1514899308693995,5,13,23,6,1,0,-1,1
1514899308693995,-2,-7,-24,-3,-5,-4,10,-5
1514899308708494,-19,-13,-6,-6,2,0,-2,19
1514899308708494,-6,-23,15,1,-1,-2,-8,-11
1514899308710495,-20,1,7,8,-1,-1,-11,-3
1514899308710495,18,14,9,-8,3,1,17,-26
1514899308731009,21,23,-7,-1,-2,0,-16,-6
1514899308731009,7,29,8,11,1,-1,-4,10
1514899308737513,9,22,-15,-9,1,-2,-5,-1
1514899308737513,-17,-60,6,-3,-3,-2,13,3
1514899308745019,21,13,10,12,5,2,-22,-18
1514899308745019,6,-7,2,9,-2,-2,3,23
1514899308754025,2,4,13,-21,-5,-4,-18,-23
1514899308754025,-10,43,4,1,-1,1,11,25
1514899308768536,24,-20,0,-3,-3,-2,14,33
1514899308768536,-2,-53,-8,0,2,0,7,-41
1514899308770538,-4,25,2,8,-1,-1,-2,-14
1514899308770538,-6,-16,5,-6,-3,-2,-10,-5
1514899308791052,-16,39,-2,1,-1,-1,11,6
1514899308791052,2,14,14,4,-1,0,11,32
1514899308792554,-1,-34,-12,2,-3,-6,-40,-35
1514899308792554,-12,19,10,-9,2,-2,-21,-34
1514899308805064,-3,-32,2,8,2,-1,-12,1
1514899308805064,13,21,-30,-7,-3,-5,5,20
1514899308813568,-4,-46,-15,-3,-2,-1,2,5
1514899308813568,-37,15,-3,8,1,-2,-10,-8
1514899308828579,22,-1,-16,-10,-4,-2,-4,0
1514899308828579,-2,41,17,-4,-1,-3,-5,0
1514899308830080,2,-44,-18,2,-1,-1,10,9
1514899308830080,20,12,4,8,-1,1,-9,-2
1514899308851094,-25,15,3,3,1,1,16,5
1514899308851094,28,2,13,-4,2,3,28,22
1514899308852596,8,49,5,4,-3,-3,-22,-37
1514899308852596,10,7,11,-14,-2,1,-15,-14
1514899308864604,-14,-76,-48,-17,-5,-6,20,11
1514899308864604,-25,34,-15,-2,-3,-2,-1,-3
1514899308873611,-17,-12,14,6,3,0,8,13
1514899308873611,2,15,3,5,-1,0,4,-8
1514899308889121,-6,-3,17,-10,-4,-2,-1,-8
1514899308889121,-7,-10,9,8,0,-2,-19,-11
1514899308890122,15,12,5,-5,-2,-3,19,34
1514899308890122,-17,-16,7,3,1,0,-23,-17
1514899308911136,-2,-11,-26,-4,-1,-2,15,4
1514899308911136,17,-26,8,-1,0,0,4,1
1514899308912637,2,18,-5,0,-1,-2,-9,9
1514899308912637,15,-16,-5,6,3,1,13,11
1514899308934153,0,-51,-8,-6,-3,-1,-14,4
1514899308934153,-29,10,22,10,3,1,-11,-19
1514899308935653,5,-2,-2,-2,0,2,15,3
1514899308935653,-7,-14,-5,-7,-4,1,3,9
1514899308948675,10,44,15,24,4,-1,-6,-7
1514899308948675,-8,-23,-9,-20,-3,0,8,-1
1514899308950179,-19,-42,-29,-7,-1,-3,-39,-15
1514899308950179,-12,-42,-29,-15,-11,-6,18,9
1514899308971691,14,64,27,6,-3,-1,-9,-21
1514899308971691,29,-9,-7,12,3,2,0,14
1514899308973181,-36,-14,2,-3,-2,0,5,-23
1514899308973181,26,-11,6,-1,-1,-4,-4,-8
1514899308993695,-29,-7,-10,0,-2,0,-14,14
1514899308993695,-1,-35,14,12,2,0,4,3
1514899308996212,10,3,-5,-19,-2,0,9,7
1514899308996212,-15,-8,-33,3,-1,-1,-2,-2
1514899309008706,17,-5,18,7,6,6,10,5
1514899309008706,-6,39,-4,-1,-6,-5,-12,-18
1514899309010219,-8,-40,16,3,-4,-1,9,19
1514899309010219,-7,14,11,0,2,2,-5,-14
1514899309031221,-6,39,21,-4,-2,-3,-7,-9
1514899309031221,-8,-32,-24,-3,-2,-1,7,19
1514899309038726,9,-8,-9,-5,-3,-4,1,-22
1514899309038726,-22,-17,-19,-2,-1,-2,-11,4
1514899309053738,3,8,3,-4,-2,-1,3,11
1514899309053738,2,38,23,7,3,2,-5,-5
1514899309055241,8,-7,7,8,-1,2,7,33
1514899309055241,-25,19,-8,-10,-5,-5,2,1
1514899309068748,3,-11,-13,-9,-1,0,-3,-25
1514899309068748,14,37,14,2,-1,2,2,49
1514899309070250,4,63,-14,1,1,1,22,-29
1514899309070250,2,-59,5,9,0,-1,-11,-41
1514899309091264,-13,39,-11,-6,-4,-6,0,-2
1514899309091264,28,41,-7,-1,-1,-6,-18,-8
1514899309092792,10,-1,27,12,2,2,3,8
1514899309092792,0,17,-32,-26,-7,-3,-3,11
1514899309113779,30,-5,15,5,3,2,-1,-7
1514899309113779,-28,-9,28,9,4,0,17,-8
1514899309119784,8,31,-26,-2,-3,-2,-8,3
1514899309119784,-10,-13,-18,11,-3,-5,-6,-11
1514899309127802,1,-38,-19,-10,-1,3,-9,17
1514899309127802,-6,8,15,0,0,-3,22,-27
1514899309134807,-7,14,3,10,-1,-2,-9,-15
1514899309134807,5,-9,22,-7,2,3,8,19
1514899309151306,6,28,-11,2,-1,-2,-3,-12
1514899309151306,13,-47,-3,-1,0,2,4,8
1514899309152808,-38,-41,-28,-2,-3,-6,-13,-13
1514899309152808,15,30,-6,-4,1,3,7,6
1514899309173834,5,-1,35,0,-3,-3,-10,-20
1514899309173834,-33,0,-34,-1,0,0,-6,8
1514899309175333,-1,-15,-20,-9,-1,1,-14,-7
1514899309175333,-5,2,-4,8,-1,0,-9,23
1514899309188334,-4,-4,6,4,-1,-4,1,-12
1514899309188334,-22,-16,-5,-20,-7,-3,-5,14
1514899309194838,2,19,39,12,5,3,-4,-14
1514899309194838,2,28,5,-14,-9,-4,18,20
1514899309210857,-38,-11,29,9,1,-3,6,-6
1514899309210857,1,1,-54,-10,-7,-5,-24,-25
1514899309212851,34,-18,27,3,1,0,-9,19
1514899309212851,-34,-8,2,-5,-4,-3,-3,-30
1514899309233365,11,7,-8,-10,-3,-3,0,12
1514899309233365,9,-28,-20,0,0,-1,-16,12
1514899309239870,-4,13,10,-8,-3,-3,2,0
1514899309239870,22,9,22,-2,-1,-2,2,3
1514899309247875,7,-5,9,4,-2,-2,-4,-1
1514899309247875,1,13,-19,-9,-5,-4,-9,-6
1514899309254880,-6,-47,-24,-4,-1,3,17,25
1514899309254880,-10,-7,14,6,2,-1,-27,-27
1514899309271393,-10,9,-29,-5,-1,0,-4,14
1514899309271393,30,-6,27,5,1,0,2,-10
1514899309273392,1,11,11,-3,-1,-1,2,0
1514899309273392,-1,-43,-38,-9,-5,-3,5,-1
1514899309293906,8,1,-4,6,1,2,1,0
1514899309293906,-4,25,31,1,-5,-3,15,5
1514899309296408,4,11,-20,-12,-3,-5,-9,-19
1514899309296408,33,18,17,-6,-1,2,0,18
1514899309307917,-20,-29,-40,-6,1,2,5,-1
1514899309307917,7,-9,27,4,-2,-2,-3,-2
1514899309322927,-23,-23,-3,-11,-7,-4,27,13
1514899309322927,-4,3,-10,4,2,-1,-36,-12
1514899309330933,9,15,12,8,2,0,3,5
1514899309330933,-20,-22,-54,-15,-6,-4,3,-14
1514899309332934,0,-8,-17,-6,-4,-1,4,4
1514899309332934,7,30,17,17,7,5,-3,-15
1514899309353453,-13,-20,16,-11,-4,-4,2,14
1514899309353453,-3,-15,-15,-1,2,-1,3,-13
1514899309367460,17,33,0,2,2,-1,-10,-3
1514899309367460,-18,12,2,8,-1,0,20,16
1514899309375966,10,16,-9,-4,0,-1,-21,-14
1514899309375966,-7,21,42,5,3,1,3,-16
1514899309377967,26,-20,-11,-6,-4,-3,1,18
1514899309377967,0,-25,-14,1,-3,-5,13,3
1514899309391477,-9,-13,21,3,0,0,1,-8
1514899309391477,5,15,-19,-1,-1,0,-5,29
1514899309393478,-14,19,4,4,1,1,-7,-23
1514899309393478,7,9,-7,-1,-1,-3,-1,-8
1514899309413492,-9,-10,19,3,-2,-2,-9,-11
1514899309413492,-8,-6,-22,-11,-2,-2,-12,-16
1514899309417495,3,-3,-14,2,2,1,7,26
1514899309417495,4,16,15,-2,-3,-2,5,-5
1514899309428002,-2,-19,12,2,0,-1,10,13
1514899309428002,-35,-13,52,16,5,5,15,-2
1514899309435006,-14,7,-5,-9,-4,-1,-4,-6
1514899309435006,14,3,-7,-2,2,2,-3,-16
1514899309451018,-12,-8,-4,0,-3,-2,13,16
1514899309451018,29,-5,24,0,1,-3,-14,-21
1514899309453019,-10,18,17,15,1,-1,-1,-12
1514899309453019,-29,-33,-39,-22,-8,-7,-5,-4
1514899309473535,18,-2,2,3,1,1,3,20
1514899309473535,-12,-42,-3,6,2,-1,-6,-14
1514899309475535,17,123,44,11,-2,0,-3,5
1514899309475535,-14,6,21,3,0,-1,0,-4
1514899309496050,1,-51,-65,-10,-4,1,2,-9
1514899309496050,0,-6,-7,-6,-2,-4,-13,3
1514899309497551,-17,-10,22,4,0,-5,4,-4
1514899309497551,-7,11,-4,-1,-1,0,-7,18
1514899309511064,11,33,7,-1,0,-3,-11,-23
1514899309511064,-14,-6,-19,-16,-6,-1,11,14
1514899309512563,10,-49,9,3,-1,-4,-33,-12
1514899309512563,26,50,7,-1,0,1,2,3
1514899309533576,11,3,-12,-2,-4,-5,-16,-8
1514899309533576,9,-2,12,2,0,-5,-6,-15
1514899309535077,-13,1,-2,-3,2,1,10,3
1514899309535077,-1,-14,-15,4,-1,0,4,8
1514899309547086,24,15,19,5,0,-1,-11,-4
1514899309547086,21,-8,-36,-8,-5,-3,2,-6
1514899309556594,-17,-51,16,-7,-1,2,4,-10
1514899309556594,6,13,-6,3,-1,1,-6,-5
1514899309571104,-21,32,-33,-11,-3,0,19,12
1514899309571104,-2,-5,0,2,-1,-4,-34,-9
1514899309573613,13,9,32,11,2,-1,-3,0
1514899309573613,-2,-7,-3,2,3,4,9,6
1514899309594120,12,-7,-14,-9,-2,-2,9,-1
1514899309594120,-11,3,20,3,-1,-1,-7,-3
1514899309595621,0,2,-48,-8,-2,-1,-3,3
1514899309595621,-14,-16,24,7,2,-2,-2,-19
1514899309607129,1,15,18,0,0,2,10,41
1514899309607129,7,-5,-43,1,0,0,8,2
1514899309618136,-14,-18,27,4,-3,-1,-4,-10
1514899309618136,23,-17,-16,-12,-3,0,15,13
1514899309631145,-17,-31,-26,-7,-4,-6,-42,-20
1514899309631145,-2,-12,24,9,0,1,9,2
1514899309632646,5,28,-8,-11,-3,-1,-10,-6
1514899309632646,26,33,-12,2,-2,-4,6,3
1514899309653680,-28,-52,5,1,-1,-1,0,0
1514899309653680,23,-6,14,6,0,1,7,3
1514899309657163,-4,-3,-32,-8,-3,-3,-7,-11
1514899309657163,17,-10,20,6,2,0,-2,13
1514899309667172,-11,-6,8,-1,1,3,27,-11
1514899309667172,-17,11,6,1,0,-3,-8,-18
1514899309676178,-13,4,-5,-7,-1,-3,-22,1
1514899309676178,0,-19,3,1,-5,-5,-2,-3
1514899309691189,-25,3,-9,-22,-2,-2,-4,-17
1514899309691189,19,-7,9,7,1,-1,8,16
1514899309692695,-16,12,-8,-1,-2,0,11,1
1514899309692695,-19,-32,7,4,3,0,-12,-16
1514899309713704,-2,20,-1,6,-2,-6,-13,-12
1514899309713704,-15,-42,-10,-3,-2,-3,3,-6
1514899309717206,28,43,-26,-6,-3,0,-9,5
1514899309717206,-24,-29,2,0,-3,-5,8,-1
1514899309727213,12,21,8,5,3,3,17,4
1514899309727213,1,25,22,3,2,2,-20,18
1514899309736220,4,-25,-38,-10,-2,-3,3,-8
1514899309736220,-20,-6,-16,-4,-2,-1,-12,-6
1514899309751230,13,13,18,9,2,-1,7,-4
1514899309751230,25,11,-22,-5,-3,-3,11,-5
1514899309752732,10,-24,5,3,1,1,9,6
1514899309752732,-25,59,11,-1,0,0,-10,-5
1514899309774246,5,1,-15,-1,-1,-1,-4,-4
1514899309774246,-22,10,9,-4,0,-1,-3,-9
1514899309775747,2,-21,9,1,-1,0,10,3
1514899309775747,17,15,-34,-8,-2,0,8,18
1514899309787295,20,15,31,10,1,0,1,7
1514899309787295,10,25,-5,1,-3,-3,-17,-15
1514899309796272,-23,32,1,-7,-2,-1,8,3
1514899309796272,-11,-42,2,-3,-3,-4,-8,-4
1514899309811272,-12,-16,11,8,1,0,-2,15
1514899309811272,-13,-14,-33,-2,2,2,3,19
1514899309812773,17,4,6,4,-2,-4,20,8
1514899309812773,1,-19,-7,-2,-1,2,-7,-9
1514899309841294,-18,-7,-14,-5,-3,-5,-23,-25
1514899309841294,-3,7,13,1,0,0,22,20
1514899309842796,-12,-13,2,-11,-3,-2,-11,-10
1514899309842796,-23,-25,-7,-5,-2,-2,-7,-5
1514899309847299,-6,-16,6,0,-1,1,-4,-1
1514899309847299,0,18,-6,-7,-5,-4,8,2
1514899309856304,12,13,0,7,2,0,-6,0
1514899309856304,1,-18,4,5,-1,-1,5,3
1514899309870816,1,41,-34,-19,-3,-1,-6,-16
1514899309870816,3,-37,-5,1,2,2,7,14
1514899309872817,-4,-22,0,-3,-4,0,14,4
1514899309872817,9,32,10,5,1,1,3,0
1514899309893331,-21,-66,0,2,-3,-5,-23,-19
1514899309893331,14,20,-40,-13,-3,1,-19,-3
1514899309895332,-10,17,21,7,1,-1,15,-13
1514899309895332,4,-10,-1,8,1,-1,-3,-7
1514899309916848,32,20,-4,-5,-4,-1,3,19
1514899309916848,-9,0,23,2,2,-1,-7,-11
1514899309920851,10,-24,-25,-4,-2,-1,-15,-3
1514899309920851,5,22,1,-6,-5,-4,-5,-1
1514899309930857,-3,-29,-11,0,0,-1,11,12
1514899309930857,-1,1,-7,-7,-3,-3,-3,-11
1514899309932859,12,14,7,8,1,-1,3,16
1514899309932859,6,-12,-4,-18,-3,-1,13,17
1514899309953879,2,23,17,9,-2,-5,-17,-40
1514899309953879,-17,14,1,-6,0,-2,9,13
1514899309956877,-12,-38,0,5,4,2,-7,-10
1514899309956877,-21,-17,-24,-4,-3,1,0,-12
1514899309975889,-4,11,10,0,3,1,6,13
1514899309975889,23,2,25,9,3,1,-6,-21
1514899309977890,-45,-31,-18,-7,-4,-7,-8,-17
1514899309977890,0,75,32,6,2,-2,2,11
1514899309990900,31,-22,-18,2,1,1,6,7
1514899309990900,5,31,21,2,-1,0,1,27
1514899309992900,-2,-5,-15,3,3,1,-7,-1
1514899309992900,23,13,9,-2,-1,-2,-13,-15
1514899310021421,-21,27,11,-3,-2,-2,-3,2
1514899310021421,1,6,-22,-2,-3,-3,1,27
1514899310023427,-4,0,-17,-11,-2,-1,-6,-37
1514899310023427,2,52,32,9,5,4,4,3
1514899310035932,-7,-50,-37,-6,-5,-4,12,8
1514899310035932,-22,-23,19,2,1,1,-6,-11
1514899310042436,56,30,9,9,0,0,10,24
1514899310042436,-2,-38,-9,-26,-4,-5,-39,-11
1514899310050442,-20,-22,-1,4,2,3,12,1
1514899310050442,2,14,15,-6,-1,0,1,-25
1514899310057446,-5,0,-6,-4,-6,-4,5,-6
1514899310057446,-6,-73,-30,0,-2,-2,9,16
1514899310073968,-16,4,3,-5,-2,-2,-1,1
1514899310073968,22,-12,1,-1,-1,-2,-11,-2
1514899310075959,7,-6,10,-4,-2,1,38,29
1514899310075959,-17,47,27,11,0,-2,-10,-32
1514899310095973,-4,-57,-47,-7,-1,-1,-1,8
1514899310095973,-5,-33,-24,-12,-5,-3,-4,-12
1514899310098476,-23,-24,-5,-4,-1,-1,-19,-11
1514899310098476,-23,5,-2,4,0,0,11,14
1514899310110507,35,4,2,1,-2,-4,-2,-4
1514899310110507,-38,6,-1,10,-3,-4,-1,-5
1514899310117508,9,26,-2,-7,0,0,5,13
1514899310117508,11,-19,11,-3,-2,-4,5,22
1514899310133519,-14,29,-5,-1,0,0,-6,-16
1514899310133519,-2,2,-15,-11,-3,-4,-23,-16
1514899310135534,10,30,24,10,0,-1,11,4
1514899310135534,-2,-26,-21,3,-2,-1,-3,-2
1514899310156537,15,10,14,-14,-3,-1,-9,-7
1514899310156537,-6,9,-4,10,0,3,19,4
1514899310158539,-27,-38,0,-2,2,3,-19,-21
1514899310158539,21,-2,11,-1,-4,-2,8,-12
1514899310170558,-2,12,0,5,2,-2,8,-1
1514899310170558,-6,-26,-25,-1,-3,-1,-1,0
1514899310177063,-8,19,20,5,2,-1,-7,7
1514899310177063,9,-55,8,-6,-3,0,18,-1
1514899310193562,-1,28,25,5,-3,1,-9,3
1514899310193562,2,2,-22,-18,-5,-5,23,18
1514899310196064,1,44,8,7,1,-1,-12,15
1514899310196064,-2,-44,-22,-4,1,3,1,-28
1514899310232602,26,34,-1,0,0,-2,-1,-6
1514899310232602,-8,-27,19,6,1,-2,-10,4
1514899310234091,4,0,10,8,0,2,8,4
1514899310234091,18,31,-2,4,-3,-1,-6,-7
1514899310234602,-16,-18,-3,-7,-2,0,-1,18
1514899310234602,10,2,28,9,0,1,1,-10
1514899310238594,-12,-9,-29,-12,-3,-5,-29,-6
1514899310238594,-3,9,0,-5,-2,-2,13,3
1514899310253616,3,-12,-6,11,4,1,-2,-2
1514899310253616,-4,-14,-10,-7,-2,-1,7,-7
1514899310255106,-11,-7,20,-9,-6,-4,-3,17
1514899310255106,3,23,13,5,1,0,-4,1
1514899310283135,-16,28,-15,-8,-4,-6,-17,-5
1514899310283135,14,42,38,13,5,2,11,4
1514899310291131,-27,-49,-33,-23,-7,-7,-15,-10
1514899310291131,-26,15,-2,3,1,-1,0,-3
1514899310292142,-5,-53,-7,1,-1,-1,6,-15
1514899310292142,-1,16,-18,-17,-5,-2,6,9
1514899310297145,-3,8,11,14,3,0,2,5
1514899310297145,-6,14,-5,-12,-5,-1,-5,-10
1514899310322154,-7,-25,13,-5,1,2,3,13
1514899310322154,-16,5,15,17,2,3,8,11
1514899310325655,33,5,-15,-14,-2,-5,-16,-22
1514899310325655,-22,-60,-16,-5,-5,-6,-22,-24
1514899310336164,5,35,0,6,2,1,6,1
1514899310336164,5,-27,-20,-7,-4,0,-13,-10
1514899310337665,10,24,33,22,5,2,14,2
1514899310337665,-15,-29,-2,-16,-5,-4,-7,-3
1514899310350674,5,19,-49,-12,-5,-6,-8,3
1514899310350674,-19,-1,7,-2,-2,-3,-5,3
1514899310357178,23,32,-1,0,0,3,4,-13
1514899310357178,33,-8,4,11,4,4,17,31
1514899310373690,-35,15,13,2,-2,-2,19,-1
1514899310373690,-2,-22,-13,-5,-1,-2,-6,0
1514899310375192,-11,-12,-42,-2,-3,1,0,-7
1514899310375192,10,40,13,6,4,1,0,-14
1514899310396228,8,-16,1,-8,-5,1,-8,-5
1514899310396228,32,1,22,14,6,0,-3,-3
1514899310397706,-17,-8,-16,-12,-8,-8,-15,-7
1514899310397706,-10,13,-17,-7,-2,1,11,19
1514899310409731,-6,-65,-1,4,0,-4,-24,-10
1514899310409731,16,21,6,-21,-4,0,-9,-12
1514899310418763,-16,-6,-8,-2,-3,-4,13,3
1514899310418763,11,18,5,7,1,2,-13,7
1514899310433773,12,43,26,0,-4,-6,6,-15
1514899310433773,-14,-81,-53,-7,-3,1,4,23
1514899310435275,33,-8,17,2,0,2,-6,-12
1514899310435275,-29,42,-22,-2,-5,-2,-5,-6
1514899310456789,15,21,50,14,9,8,4,3
1514899310456789,2,-37,-48,-14,-4,-6,-8,-16
1514899310459291,8,8,11,-1,-5,-1,7,17
1514899310459291,-13,-16,-16,-3,0,3,-1,-10
1514899310469798,39,10,9,8,-2,-4,9,30
1514899310469798,4,48,40,5,-2,-4,-12,-24
1514899310478804,-2,40,-26,-4,2,2,14,8
1514899310478804,-3,-28,-10,-6,-2,2,-2,-11
1514899310493815,-17,-24,20,17,3,1,-33,-23
1514899310493815,24,15,-22,-16,-6,-7,31,33
1514899310495316,-13,-18,-4,-1,-2,1,-3,-2
1514899310495316,-3,39,34,12,3,1,4,9
1514899310516831,-16,-18,-28,-10,-4,-4,-5,-2
1514899310516831,-13,12,4,4,2,2,6,-12
1514899310520334,-5,-13,-18,3,1,-1,-11,-8
1514899310520334,-9,10,18,-1,-5,-4,10,16
1514899310529840,30,-15,-22,-13,-1,1,4,6
1514899310529840,-8,13,16,15,4,2,-11,-7
1514899310538848,-5,-14,-19,-10,-5,-6,-6,4
1514899310538848,6,-33,15,11,1,1,11,14
1514899310553357,-23,22,5,-12,-3,-2,4,-17
1514899310553357,-11,-7,-24,4,-1,-2,9,18
1514899310555359,25,-20,5,-4,-1,-5,-3,-9
1514899310555359,15,26,28,21,6,1,-1,5
1514899310575873,-12,-8,-15,-9,-5,-6,-9,0
1514899310575873,-4,-8,16,5,3,1,-1,-4
1514899310577874,-11,-27,-4,2,-5,2,8,-14
1514899310577874,10,10,-8,-3,1,0,-14,4
1514899310589883,19,-24,-16,-6,1,2,1,2
1514899310589883,-22,15,21,6,0,0,4,18
1514899310598889,-20,30,3,1,3,0,-8,-5
1514899310598889,15,10,15,1,-1,-2,-9,-25
1514899310613399,-34,-60,-38,-3,0,3,20,16
1514899310613399,8,26,17,4,1,-3,-37,-22
1514899310614902,12,2,-2,6,1,2,10,12
1514899310614902,-7,10,-11,-13,-2,-5,-20,-8
1514899310635915,8,52,11,-3,-3,-2,3,6
1514899310635915,17,28,27,15,2,4,-5,-12
1514899310637416,-43,-54,-34,-35,-7,-2,17,22
1514899310637416,11,-5,16,-4,-3,-3,-1,-21
1514899310649925,17,43,-23,5,1,-2,-3,-7
1514899310649925,-30,-42,-5,-4,-7,-5,3,6
1514899310658932,14,22,34,12,0,0,-3,-6
1514899310658932,-15,-9,-14,-13,-2,3,24,12
1514899310673443,-2,-2,4,2,-3,-5,8,13
1514899310673443,10,-2,4,-3,0,-2,-22,-30
1514899310675453,-30,26,-4,8,3,2,-10,-7
1514899310675453,-4,-25,-24,-7,-6,-6,-9,-1
1514899310696474,4,15,18,7,3,0,2,1
1514899310696474,-6,1,-20,-11,-2,-3,3,0
1514899310698460,10,-6,12,-7,-3,-1,-2,2
1514899310698460,7,-8,-13,4,2,-1,-9,-2
1514899310709468,-9,-8,13,-2,1,-1,1,-3
1514899310709468,-2,-16,-15,-3,-3,-1,4,4
1514899310719475,4,-7,12,6,2,-1,-6,-5
1514899310719475,4,8,-10,-4,-1,-3,4,2
1514899310733496,-6,-12,1,-1,-2,-1,-3,-5
1514899310733496,-4,-4,0,-3,-2,-1,4,1
1514899310735498,7,9,5,-2,-2,-2,-3,-3
1514899310735498,-1,-4,-4,-2,-2,-3,-7,-2
1514899310758515,-5,-2,0,10,1,0,0,0
1514899310758515,1,1,-5,-16,4,1,4,1
1514899310760004,2,0,3,0,3,1,0,-1
1514899310760004,1,-10,-14,-5,-3,-3,-4,1
1514899310769521,-3,-12,3,-6,-4,-1,-2,-4
1514899310769521,0,4,-1,5,0,0,5,1
1514899310778516,2,-1,4,1,-1,-1,0,-1
1514899310778516,-3,-5,2,-3,-2,-2,-3,-1
1514899310793527,-1,1,-1,-1,-6,-5,-3,-2
1514899310793527,-3,-5,-7,-5,-3,-2,0,-3
1514899310799531,0,2,6,4,3,0,0,0
1514899310799531,0,-3,-4,-3,-2,-1,-3,-2
1514899310817043,-3,-7,-1,-11,-2,0,1,-1
1514899310817043,-1,-1,-1,-5,-7,-4,-2,-1
1514899310821046,1,-3,-1,3,0,0,-2,-1
1514899310821046,9,14,-7,0,0,1,-1,3
1514899310846064,-3,-2,7,0,-1,-1,-2,-2
1514899310846064,-2,-3,8,1,0,-1,1,-1
1514899310847569,3,2,-15,-1,-2,0,0,-1
1514899310847569,-2,-4,-6,-2,-1,-3,-6,-2
1514899310853069,-1,-1,5,-1,0,0,-1,-1
1514899310853069,-1,-2,2,2,-1,-2,0,0
1514899310860584,-1,1,7,0,-1,-1,-1,-2
1514899310860584,-4,-5,-19,-2,-2,-2,-2,0
1514899310876095,1,0,3,-4,2,-2,-2,0
1514899310876095,0,5,4,2,2,1,2,3
1514899310877596,-2,-3,5,4,-2,-1,-2,-3
1514899310877596,0,-3,2,1,0,-2,0,-1
1514899310898601,0,1,-16,-6,0,-1,-1,-2
1514899310898601,3,3,-8,-13,-3,-1,1,2
1514899310900102,-3,3,9,-2,-3,-2,-1,-4
1514899310900102,5,-3,13,5,1,0,2,6
1514899310913111,-2,-7,-7,8,-1,-3,-1,-4
1514899310913111,-3,2,4,3,-1,-2,-2,0
1514899310921132,1,-6,-16,-3,-1,-1,-2,1
1514899310921132,-5,5,14,4,1,-1,-1,-4
1514899310943633,-3,-8,1,-6,-1,-1,0,1
1514899310943633,-4,-11,-33,-7,-1,-2,-3,-2
1514899310945134,1,4,3,2,-1,-1,1,1
1514899310945134,0,5,7,-2,0,0,-3,-3
1514899310958646,-3,1,-2,2,0,1,0,5
1514899310958646,-1,-9,-10,-5,-1,0,-2,-4
1514899310960145,2,1,11,3,0,-1,-2,2
1514899310960145,-3,-8,-6,-4,-1,-1,-1,-4
1514899310973655,-5,2,-1,0,0,-1,-1,-6
1514899310973655,-1,2,9,5,-2,-1,0,-1
1514899310979659,3,2,-4,-1,-1,-1,-2,-1
1514899310979659,-3,1,0,-3,-2,-1,-1,-4
1514899310996182,2,-2,4,-1,0,0,-1,-1
1514899310996182,-6,-1,-3,3,-2,-1,0,-3
1514899310997683,-1,0,2,-2,-1,-3,-1,-2
1514899310997683,-2,-1,-6,-1,-2,-2,-2,-1
1514899311018686,-1,-6,-5,-2,-1,-3,-2,0
1514899311018686,1,1,3,0,0,-1,-2,1
1514899311021188,-1,0,0,-3,-1,-1,0,1
1514899311021188,-1,-4,-7,-3,-2,0,0,-1
1514899311041202,1,-4,-2,-3,-1,-1,-1,-1
1514899311041202,2,3,6,1,0,-1,1,2
1514899311042703,-1,-1,-1,-2,-2,-1,-1,-2
1514899311042703,-3,-3,-7,-2,-1,0,-1,0
1514899311056714,0,0,2,1,-2,0,0,-2
1514899311056714,0,3,1,0,1,-1,1,-1
1514899311058214,-2,-1,-4,-3,-3,-1,-1,-1
1514899311058214,-1,-2,-2,-1,-3,-4,-1,-1
1514899311078729,0,1,0,-1,-1,-1,1,0
1514899311078729,-3,0,0,1,-2,-1,0,-2
1514899311080230,-3,-2,-4,-2,-1,-1,-2,-2
1514899311080230,-1,0,-2,-2,-2,-1,-2,-1
1514899311092738,0,-1,-1,0,-2,-2,-3,2
1514899311092738,0,-3,-1,-2,-1,-2,-1,-1
1514899311099743,-1,-1,1,0,-2,-1,-1,-2
1514899311099743,-1,-3,-1,-1,-1,0,-1,-1
1514899311116254,0,-2,-2,-2,-1,-3,-1,-1
1514899311116254,-1,2,0,-1,-1,-2,-2,1
1514899311117756,-1,0,0,-2,0,1,-1,-2
1514899311117756,-1,-2,-4,0,-1,-2,-1,-1
1514899311138774,-1,0,-2,-2,-1,-1,-1,-2
1514899311138774,-1,0,0,1,-1,1,-2,-1
1514899311140273,-1,-1,0,0,-1,0,0,-1
1514899311140273,-1,-1,-1,-2,1,-1,0,-1
1514899311152781,-1,-4,1,-1,-1,-1,-3,-2
1514899311152781,-1,-1,-1,-1,-2,-2,-2,-1
1514899311159785,-2,-1,-3,-2,-1,-1,-1,-2
1514899311159785,-1,0,0,-3,-1,-2,0,-1
1514899311176297,-1,-2,0,1,-1,-2,-2,-1
1514899311176297,-1,1,-2,0,-1,0,-3,-1
1514899311177799,-1,-1,-2,-2,-1,-1,-2,0
1514899311177799,-1,-3,-1,0,-1,1,-1,0
1514899311198813,-1,0,0,-1,1,0,1,-2
1514899311198813,0,-1,-1,-1,-2,-2,-1,0
1514899311200314,-1,0,-1,0,-1,-2,-2,0
1514899311200314,-1,-2,-1,-1,-2,0,-2,-1
1514899311212323,-1,-1,-1,-1,0,-1,-1,0
1514899311212323,-1,1,-1,-1,0,1,0,-2
1514899311222832,0,1,-2,-1,0,-1,-1,-2
1514899311222832,-3,-2,-2,0,-1,-1,-2,-2
1514899311235839,-1,-4,-2,-1,-2,0,0,0
1514899311235839,-1,-2,-1,0,0,-1,1,-3
1514899311237853,-1,-3,-1,-1,0,-2,-2,-1
1514899311237853,0,-1,-3,-2,-3,-1,-3,-1
1514899311258355,-2,-2,-1,-2,-1,0,-1,-3
1514899311258355,-2,-1,-1,-1,0,0,-1,-1
1514899311260369,-2,0,0,0,-1,-2,-2,-1
1514899311260369,-1,-1,-2,0,-1,-3,0,-2
1514899311272868,-1,-1,-1,-2,0,0,-1,0
1514899311272868,0,0,-1,-2,-2,0,0,1
1514899311279881,-1,-1,-1,0,-2,-2,-2,-3
1514899311279881,0,-2,-2,-1,0,-2,-1,-1
1514899311295882,-1,0,-1,-2,-3,-2,-1,-1
1514899311295882,-3,1,-2,-2,2,-1,0,0
1514899311298894,-1,-1,-3,-1,-2,-1,-1,-1
1514899311298894,1,-1,0,0,-1,-2,-1,-2
1514899311318420,0,-2,-1,1,-1,0,-1,0
1514899311318420,-1,-2,-1,0,-1,0,-2,-2
1514899311320421,0,-1,-1,-1,-4,-1,0,-1
1514899311320421,-1,0,-2,-3,-1,-2,-1,-1
1514899311332442,0,-1,0,-1,-1,-2,0,-1
1514899311332442,-2,-1,-1,-1,-2,-2,-1,-1
1514899311341436,-2,0,-1,-2,1,-1,-1,-1
1514899311341436,0,-2,-1,0,-1,0,-2,-1
1514899311355957,-2,-2,-1,-1,-1,-2,-2,0
1514899311355957,-1,-1,-2,-2,-1,0,0,-1
1514899311357448,-2,1,0,-2,-1,0,-1,0
1514899311357448,0,-1,0,-2,1,0,0,1
1514899311378471,-1,-2,0,0,-1,-2,-1,0
1514899311378471,0,-2,-2,-2,-2,-2,-1,-1
1514899311379963,0,-1,-1,0,-1,-1,-2,-1
1514899311379963,-1,-1,0,-1,-2,-2,0,-2
1514899311392482,1,-1,-1,1,0,0,-2,-1
1514899311392482,-1,-2,-1,-1,0,0,0,-1
1514899311401488,-1,-2,-1,-2,0,-1,-1,-1
1514899311401488,0,-1,-3,-2,-1,0,-3,-2
1514899311416489,-1,-4,-2,0,0,-3,-1,0
1514899311416489,0,-2,-1,0,-3,-3,-3,-2
1514899311419491,-2,-1,-1,-1,-3,0,-1,-2
1514899311419491,-2,0,-1,-2,-1,-1,-1,0
1514899311438504,-1,-1,0,-3,-1,1,-2,-1
1514899311438504,-2,0,0,0,0,-3,-1,-1
1514899311440507,-1,0,-2,-1,-2,0,0,-1
1514899311440507,-1,-1,-1,1,-2,-1,-2,-1
1514899311452524,1,-1,-1,-1,-1,-2,1,-2
1514899311452524,-2,0,0,-2,-1,-2,0,-1
1514899311461522,-1,-2,-1,0,0,1,-1,-2
1514899311461522,0,-4,-1,-2,-2,-2,0,0
1514899311476031,-1,-4,-2,0,-1,-1,-3,0
1514899311476031,-1,1,0,-1,-2,-1,0,1
1514899311477533,-1,0,-1,0,-1,-2,-1,-1
1514899311477533,-2,-1,-1,-1,1,-1,-2,0
1514899311506052,-1,-1,-2,-4,-1,-2,0,0
1514899311506052,-1,-2,-1,0,-1,-1,-2,1
1514899311507553,-1,0,-1,0,-1,-1,0,0
1514899311507553,-2,-2,-2,-1,-1,0,0,-2
1514899311521063,-1,-2,-2,-2,-1,0,-2,-1
1514899311521063,-2,0,-2,-1,-2,0,0,-2
1514899311523565,-1,-2,-1,-3,-2,-1,0,-1
1514899311523565,-2,-2,-2,0,-1,-2,-1,-1
1514899311536086,-1,-3,0,-2,-1,-1,-1,-1
1514899311536086,-1,0,-1,-1,-2,-2,-1,-2
1514899311537575,0,2,-1,0,0,0,-1,-2
1514899311537575,-1,0,-2,-1,0,-3,-1,-2
1514899311558601,0,-1,-1,-1,-1,0,-1,-1
1514899311558601,-1,-2,-1,-1,-2,0,-1,-1
1514899311560102,-1,-1,-1,-1,0,-1,-2,-2
1514899311560102,-1,-2,-2,0,0,-1,-1,-1
1514899311572612,-2,-1,-1,-1,-1,-1,0,-1
1514899311572612,-1,-3,0,-1,-2,-3,-1,0
1514899311581105,-1,-1,-2,-4,-1,-2,-1,-2
1514899311581105,-1,2,0,-2,-2,-3,0,0
1514899311596133,-3,0,-2,1,-1,-1,-1,-1
1514899311596133,0,0,-1,-1,-1,0,0,-1
1514899311597634,-3,-1,0,-3,-1,-2,0,-2
1514899311597634,0,-3,0,-1,-1,0,0,-2
1514899311619632,-1,-3,-1,-2,-1,-2,-1,1
1514899311619632,-1,0,-2,-1,-1,-1,-3,-2
1514899311623136,0,-2,-3,-1,0,0,-1,-1
1514899311623136,-1,-2,-2,-2,-1,0,-1,-2
1514899311632141,-1,-2,-2,-2,0,1,-2,1
1514899311632141,-1,-3,0,-1,-1,0,-1,-2
1514899311641160,-1,0,-3,-1,-3,-2,1,-2
1514899311641160,-2,-1,-1,0,-2,1,-1,-1
1514899311656161,0,-2,-1,1,-2,-2,0,-1
1514899311656161,-1,0,-2,-2,0,-2,0,1
1514899311657661,-1,-1,-1,-2,0,0,-3,-1
1514899311657661,-1,-3,-1,-1,0,0,-2,-1
1514899311685193,0,0,0,-1,-1,-2,-2,-1
1514899311685193,-1,-1,-1,-1,-2,-1,-1,-2
1514899311694185,0,0,0,0,0,1,0,-1
1514899311694185,-2,-1,-1,-1,-3,-1,-1,-1
1514899311695197,-2,-2,-1,-2,-2,-1,0,-1
1514899311695197,-1,0,0,-3,-1,-1,-2,-2
1514899311702201,-1,0,-1,-1,-2,-1,-2,0
1514899311702201,-1,-2,-2,-1,-1,-1,0,0
1514899311716702,0,-1,0,1,0,-2,-2,-1
1514899311716702,-1,-2,-2,-3,-1,-1,0,1
1514899311722717,-3,0,-2,1,-2,-2,0,-2
1514899311722717,0,-1,-1,0,0,-1,-1,-1
1514899311738717,-2,-2,-1,-3,0,-3,0,-2
1514899311738717,0,0,-1,-1,0,0,-2,-1
1514899311740219,-2,-2,-3,-1,-1,-2,-2,-1
1514899311740219,-2,-2,-1,-2,-2,-2,0,-1
1514899311752226,-1,-1,0,-2,-1,-1,0,-1
1514899311752226,-1,0,-3,-1,0,0,-1,-2
1514899311761250,0,0,-2,-3,-3,-1,0,-2
1514899311761250,-1,0,0,-1,1,-2,-2,-1
1514899311776247,-1,-4,-2,0,-2,-1,-1,-1
1514899311776247,-1,-1,-1,1,-1,-1,-1,-2
1514899311777744,-1,1,0,-1,-2,0,0,0
1514899311777744,-1,0,-3,-1,-2,-1,0,0
1514899311798309,0,-1,0,-2,-1,0,-1,0
1514899311798309,-2,-1,-2,0,-1,-1,0,-1
1514899311800310,-2,-1,-1,-1,0,-1,0,1
1514899311800310,-2,-1,-1,-1,-1,-1,0,-2
1514899311828342,-1,-3,-2,0,-1,0,-2,-1
1514899311828342,-1,0,-1,0,-1,-1,1,0
1514899311830344,-3,0,1,-1,-1,-2,-1,-3
1514899311830344,-2,-2,-2,-2,-1,-2,1,0
1514899311835845,-1,-2,1,-1,-1,-1,-1,-1
1514899311835845,1,0,-2,-1,-3,0,-2,0
1514899311837837,1,0,-3,-2,-1,-1,-2,-2
1514899311837837,1,-2,-1,-2,0,0,-2,-1
1514899311858853,-1,-3,1,-1,-1,0,0,-1
1514899311858853,-2,-1,0,-2,-1,0,0,0
1514899311860362,0,0,-2,-1,-1,0,-1,-1
1514899311860362,-1,-2,-1,0,-1,-1,-2,0
1514899311880377,-1,-1,-1,1,-1,-1,0,-1
1514899311880377,0,-1,-2,-1,-1,1,0,-1
1514899311881367,-2,0,-1,-1,0,-2,-2,-1
1514899311881367,-1,-1,0,-2,-1,-2,-1,-2
1514899311895377,-1,-2,-2,-2,-1,-2,-2,-1
1514899311895377,-2,-1,0,-2,-2,-2,-1,-1
1514899311896378,-1,-1,0,-2,0,2,-1,-1
1514899311896378,1,-3,0,0,0,0,0,-2
1514899311918906,0,-1,-1,-1,1,-2,1,0
1514899311918906,-2,-1,-2,-1,-1,-2,-1,0
1514899311919407,-2,-2,-2,-2,-2,-2,-2,-1
1514899311919407,1,-2,1,-1,-1,0,-1,0
1514899311940409,-2,-2,-1,-1,-1,0,-1,-1
1514899311940409,0,0,0,0,-1,-1,-1,-1
1514899311941410,-2,0,-2,0,-1,-2,-1,1
1514899311941410,-2,-1,-2,0,0,-2,-2,-1
1514899311955419,0,-1,0,-1,-1,-1,0,-1
1514899311955419,-2,-1,-1,-2,-2,-1,1,-2
1514899311956423,-1,-1,-1,-1,-2,-1,1,-1
1514899311956423,1,-2,-1,-1,-1,1,0,0
1514899311977948,0,0,-3,-2,0,-1,-1,-1
1514899311977948,-2,-1,-1,-1,0,-1,-2,-2
1514899311978438,-2,-1,-1,-1,-2,0,-1,-3
1514899311978438,-1,0,-2,-1,-2,-1,-2,-2
1514899312000952,0,-1,0,-1,-2,-2,-1,0
1514899312000952,-1,1,-1,-3,-1,-2,-3,0
1514899312002968,0,1,-1,-1,-2,1,-1,-1
1514899312002968,-2,0,0,-1,-2,-1,-3,-1
1514899312023468,-2,-3,-1,-2,-1,-2,-2,-1
1514899312023468,0,0,-1,-1,-1,-2,-2,-2
1514899312024468,0,1,-2,-1,-1,0,-1,-1
1514899312024468,-1,-1,-2,0,-2,-2,-1,-1
1514899312037989,-1,1,-2,-1,0,-2,0,-1
1514899312037989,-2,0,0,0,-2,-1,-1,-1
1514899312038480,-1,-1,0,-1,-1,-1,-1,-2
1514899312038480,0,-2,-2,-1,1,-1,0,0
1514899312060503,-1,-1,-2,-1,-1,0,-2,-1
1514899312060503,0,0,-2,-1,0,-2,-1,-1
1514899312060995,-1,-2,1,0,0,-2,-2,-1
1514899312060995,-2,0,-1,-1,-2,0,1,0
1514899312075516,-2,-1,0,-1,-3,-2,0,0
1514899312075516,-1,1,-2,0,-2,-1,-1,-1
1514899312076005,0,-2,-1,-2,-1,0,0,-2
1514899312076005,1,-1,0,-2,0,-1,0,-2
1514899312098039,1,-2,-2,0,-1,-1,0,-1
1514899312098039,-1,-1,-2,-1,-3,0,-3,1
1514899312098521,-2,-1,0,-1,2,0,-1,-1
1514899312098521,-1,0,-1,0,-1,-2,-1,0
1514899312120537,-1,-1,0,0,1,-1,-1,1
1514899312120537,0,-1,-1,-1,0,0,1,0
1514899312122038,-2,-1,-1,-1,-3,-3,0,-1
1514899312122038,-3,-2,1,-1,-2,-1,-1,0
1514899312143567,0,-2,0,1,0,1,-1,-2
1514899312143567,-2,-3,-1,0,-1,-3,0,-3
1514899312144572,-1,1,-2,-1,-2,0,-1,0
1514899312144572,-2,-3,-2,-1,-2,-1,0,-1
1514899312158063,0,-1,0,-1,-1,-1,-2,-1
1514899312158063,-1,-2,-1,-1,-1,-2,0,-1
1514899312158564,-1,1,-1,-2,0,-2,-2,0
1514899312158564,-2,-1,0,-2,0,-3,-1,-1
1514899312180089,-2,0,-1,-1,-2,1,-1,0
1514899312180089,-1,-2,-2,-2,-1,1,-1,-2
1514899312181080,-1,-2,-1,-1,-1,1,-2,-3
1514899312181080,0,-2,-1,1,-1,-1,0,-2
1514899312195099,-2,-2,0,-2,-2,-2,-2,-1
1514899312195099,-1,0,0,-1,0,-2,0,-1
1514899312196100,-2,-1,-1,-1,-3,-2,-2,-2
1514899312196100,1,-1,-1,-1,0,0,-1,-3
1514899312217605,-1,0,-2,-2,-1,-1,0,0
1514899312217605,0,-1,-1,1,0,1,-1,-2
1514899312218606,-1,0,-2,-1,-1,-2,-1,-2
1514899312218606,-3,-3,-3,-2,-2,-2,-1,-1
1514899312241634,-1,-2,-1,-1,-2,-2,-3,-1
1514899312241634,-1,-1,-2,-1,-3,-1,-2,-2
1514899312242132,-2,0,0,-2,-1,0,-1,0
1514899312242132,-1,-2,-1,0,-2,-2,-2,-2
1514899312255132,0,-1,0,-1,0,-1,0,-1
1514899312255132,-3,1,-1,-1,-1,0,-1,-1
1514899312256134,1,0,0,1,-1,0,-1,-2
1514899312256134,-1,-1,-1,-2,0,-3,0,-1
1514899312277657,-1,0,-1,-1,0,-1,0,-2
1514899312277657,-1,-2,-2,-1,-4,-1,-1,-3
1514899312278658,-1,-1,0,0,-1,-2,-1,-1
1514899312278658,-3,-2,-1,-1,-1,-1,1,0
1514899312300679,-1,-3,-1,-2,-2,-1,-1,-2
1514899312300679,1,0,-1,-1,0,1,-1,-1
1514899312302665,0,0,-3,-3,-3,0,-1,-2
1514899312302665,-1,0,-2,-1,-2,-1,-2,1
1514899312316175,-2,-1,-2,-1,-1,-1,0,1
1514899312316175,0,-1,-1,-2,0,-1,-1,-2
1514899312318176,-1,-1,-1,-1,-1,-3,-2,-1
1514899312318176,0,-1,-1,0,0,-1,-1,-2
1514899312337690,-1,0,-1,0,-2,-1,-1,-1
1514899312337690,-2,0,0,-1,-1,-1,-1,-3
1514899312338691,0,-1,-3,0,-1,-1,-1,-2
1514899312338691,-1,-2,-1,-1,-1,-1,0,0
1514899312360205,-3,-3,-1,-2,0,0,0,0
1514899312360205,-1,-1,-2,-1,-2,-1,-1,0
1514899312361206,0,0,-1,-1,-1,-2,-1,-1
1514899312361206,-1,-2,0,1,-2,-1,-3,-1
1514899312374715,1,-1,-4,-1,0,-1,-1,-1
1514899312374715,-1,0,-2,-1,-2,0,-2,0
1514899312382721,-1,-3,-2,-3,-1,0,1,-1
1514899312382721,-1,-1,-2,-1,1,0,0,-1
1514899312397733,-1,-1,-1,-2,-1,-2,-1,0
1514899312397733,-3,0,-1,-3,-2,-3,-1,0
1514899312398733,-1,1,-1,-1,-2,-1,-2,-1
1514899312398733,-1,-1,-1,-1,-1,-1,-2,-3
1514899312428755,0,-2,-1,0,-2,-2,0,-1
1514899312428755,-2,-1,1,-1,0,0,-1,0
1514899312429255,-2,-2,-2,-2,-1,0,0,-3
1514899312429255,0,-2,-1,-2,-3,-1,-1,-2
1514899312434759,1,-2,0,-1,-2,-3,0,-1
1514899312434759,0,-2,-1,1,0,-1,-1,-2
1514899312450287,-1,-1,-3,0,-1,-2,-2,0
1514899312450287,-1,-1,0,-1,0,-1,-1,1
1514899312457774,-1,-1,0,-2,-1,0,-1,-2
1514899312457774,-2,0,-1,-2,-1,-1,0,0
1514899312458794,-1,-3,-1,-2,0,0,-3,0
1514899312458794,-1,-1,1,-1,-1,0,-3,-1
1514899312480305,0,0,-1,-1,-1,0,-1,-1
1514899312480305,-1,2,-1,0,-1,-1,-1,-1
1514899312481292,-1,-2,-2,-1,-2,-2,-1,-2
1514899312481292,1,-2,-2,-2,-1,-3,-1,-1
1514899312494800,0,-2,1,0,0,1,1,0
1514899312494800,-1,-1,-1,-1,0,-1,-2,0
1514899312502819,0,1,-3,-1,1,0,-1,-2
1514899312502819,-1,0,-1,-1,-1,-2,-2,-2
1514899312518828,-1,-3,0,-1,-1,0,-1,1
1514899312518828,0,-1,-1,-3,-2,-2,1,0
1514899312520819,0,-2,1,0,-1,-1,-1,-1
1514899312520819,-2,-1,-2,-1,0,-1,-1,-2
1514899312540833,-2,0,0,-1,-3,-1,-1,-3
1514899312540833,-1,-2,0,0,0,3,-1,-1
1514899312542836,-1,0,-1,-2,-1,-2,-1,-2
1514899312542836,-1,-2,-1,0,-3,-1,1,0
1514899312554846,-1,0,-2,-1,0,-1,-1,0
1514899312554846,-2,-2,-3,0,0,-3,-3,-3
1514899312562849,-2,-1,0,-1,-2,0,-1,-1
1514899312562849,0,-2,-2,-2,0,0,-1,-1
1514899312577860,-2,-1,0,0,-1,0,0,-1
1514899312577860,0,0,-2,-1,-1,-2,0,-1
1514899312578870,-2,0,-1,-1,-2,-1,-2,-1
1514899312578870,0,0,-2,0,0,0,-2,-1
1514899312600379,-1,-3,-1,-1,-2,-1,-1,-2
1514899312600379,-1,1,-3,-1,-3,0,-2,-3
1514899312602377,-3,-1,-2,-1,-3,0,0,-2
1514899312602377,0,-2,-1,-1,-1,-1,-1,0
1514899312615386,-1,-2,-2,0,0,0,-3,0
1514899312615386,-2,-1,1,-2,0,-2,-1,-1
1514899312622893,-1,-2,-2,-1,-2,-2,-1,-2
1514899312622893,-1,-1,0,-1,-2,-1,0,-1
1514899312637912,-1,-2,-2,-2,-3,-3,-1,-1
1514899312637912,-1,0,-2,0,-3,-1,-1,0
1514899312638402,-1,0,-2,-1,-1,-1,-1,0
1514899312638402,-1,0,-1,-1,-1,-1,-2,-1
1514899312660427,-2,-2,-2,-2,-2,-1,-2,-1
1514899312660427,-1,-1,-3,-2,-1,0,0,0
1514899312661420,0,0,1,-3,-2,-1,0,-3
1514899312661420,-2,-2,-3,-1,0,-1,-2,-1
1514899312674437,0,-2,0,0,0,0,-2,-2
1514899312674437,-1,-1,-1,-1,0,-2,-1,-2
1514899312682946,-1,0,-2,-1,0,-2,0,-1
1514899312682946,0,-3,1,-1,-1,-2,-2,-1
1514899312697454,-2,-1,1,0,0,-1,-1,-1
1514899312697454,-2,-1,-2,-1,-1,-3,-1,-1
1514899312706453,-1,-2,-3,0,0,-1,-1,-2
1514899312706453,-1,-2,-1,-2,-1,0,0,-2
1514899312720460,-2,-1,-1,-1,0,-1,-2,0
1514899312720460,-1,0,-1,-1,-2,-2,-1,-1
1514899312721961,0,-1,-1,-1,-1,-1,-1,-2
1514899312721961,-2,-1,-1,-3,-2,1,-2,0
1514899312743980,0,0,-1,-1,-2,0,-2,1
1514899312743980,-2,0,-2,-1,-2,-2,-1,0
1514899312744478,-2,0,-1,0,-1,-1,-1,0
1514899312744478,-1,-3,-1,-2,-1,-1,0,0
1514899312758006,-2,0,0,-1,-4,-1,-1,-1
1514899312758006,1,-1,-1,1,0,0,1,-1
1514899312758988,-2,0,-2,-1,0,-1,-2,0
1514899312758988,0,-2,-2,-1,-1,-1,-3,0
1514899312780504,0,-2,-2,-1,0,0,0,-1
1514899312780504,-1,-1,0,-3,0,-1,-1,-3
1514899312781004,0,-2,1,-2,-2,-1,0,-2
1514899312781004,0,0,-1,-3,0,-2,0,-1
1514899312803520,-2,-2,-1,1,0,0,-1,-2
1514899312803520,-2,-1,0,0,-1,-1,-1,-1
1514899312804520,0,-2,0,-1,0,1,0,-3
1514899312804520,-3,-1,1,-1,-1,-2,0,0
1514899312818030,-1,0,-1,0,0,-2,-2,0
1514899312818030,-2,-1,-2,-2,0,-1,0,0
1514899312818529,-1,1,-1,-1,-2,-1,-1,1
1514899312818529,0,0,-1,-1,0,-3,1,-3
1514899312840551,-1,1,-2,1,0,0,0,-1
1514899312840551,-1,-2,0,-1,0,1,-2,-1
1514899312841547,-1,-2,1,-1,-1,-2,-2,-2
1514899312841547,-1,-4,0,-1,-2,0,-1,-1
1514899312865064,0,-1,-2,-2,-1,-2,0,-1
1514899312865064,-1,1,-1,0,-2,-1,-2,-2
1514899312866564,-3,0,-2,-1,-3,-3,-1,-1
1514899312866564,-1,0,-1,-2,-2,-2,-3,-1
1514899312878092,1,-1,0,-3,-1,-1,0,-1
1514899312878092,-1,0,-1,-2,-1,0,-2,-2
1514899312879073,-1,-2,-2,0,-1,-1,0,0
1514899312879073,-2,-2,0,1,-1,-1,-1,-1
1514899312900591,-1,-1,-1,-1,-1,-1,-1,-1
1514899312900591,0,-2,-2,-1,-1,-2,-1,-1
1514899312901088,-2,-2,-1,0,-2,-1,-2,-2
1514899312901088,-1,-2,-2,-1,-2,-1,-1,-1
1514899312923606,-2,0,0,-2,-1,-1,-1,-1
1514899312923606,0,-1,0,-1,-2,0,-2,0
1514899312924607,-1,-2,-1,-1,-1,-1,-2,-3
1514899312924607,0,-3,-1,-1,0,-1,-1,2
1514899312937614,2,-3,-1,0,-1,-2,-3,-1
1514899312937614,-2,-1,-1,-1,-1,0,-1,-3
1514899312938614,-1,-2,-1,-1,-1,0,-2,-2
1514899312938614,-1,0,0,-1,0,0,-3,-2
1514899312961136,-1,1,-1,-2,0,2,0,-1
1514899312961136,0,-1,-1,1,-1,0,0,-1
1514899312961636,1,-1,-2,-1,0,-2,0,-1
1514899312961636,-1,-1,-3,-1,-1,-1,1,0
1514899312983646,-1,-1,-2,0,0,-3,-2,1
1514899312983646,-1,-1,-1,-3,0,0,0,0
1514899312984147,-1,-2,0,-1,-1,-1,-1,-1
1514899312984147,1,0,-1,0,-1,-2,0,-2
1514899312997657,-1,-1,-2,0,-2,-4,-1,-1
1514899312997657,-1,-1,-2,0,-3,1,-1,1
1514899312998657,-3,0,-2,0,0,-2,-1,0
1514899312998657,-2,-1,0,-1,-1,-1,0,-1
1514899313020673,-2,-2,0,-1,-2,0,-2,-1
1514899313020673,0,-1,0,-2,0,-1,-1,-1
1514899313021173,-2,-2,-2,-2,-2,-2,-1,-1
1514899313021173,-2,-2,-1,0,-1,0,-2,-1
1514899313044192,-1,-1,-3,-1,-1,-2,-1,-1
1514899313044192,-2,-2,-1,-1,0,-1,0,-1
1514899313044693,1,-1,-2,0,-2,0,0,-1
1514899313044693,0,-1,0,-1,0,-3,-1,-2
1514899313058201,-1,1,-1,0,-1,0,-1,-1
1514899313058201,-1,1,-2,-2,-2,-2,-2,-1
1514899313058700,-1,-1,0,-1,-1,-1,0,-2
1514899313058700,-1,-1,-1,-1,-1,1,-1,-1
1514899313080717,-1,-2,-1,0,-1,2,-1,0
1514899313080717,-2,0,-1,0,-1,-1,-1,-1
1514899313081216,0,-2,-1,-2,-1,0,-3,0
1514899313081216,0,-1,-3,-1,-2,-1,0,0
1514899313104232,-2,-1,1,0,0,0,1,1
1514899313104232,1,0,0,0,0,-2,0,-2
1514899313104733,-2,-1,-2,-2,0,-2,0,0
1514899313104733,-1,-1,-2,-1,-2,-1,-2,-1
1514899313117741,-2,1,-2,-4,-1,-1,-1,-1
1514899313117741,-1,1,-1,-2,-2,-1,-2,-1
1514899313118742,0,-2,-1,-1,-1,0,-1,-1
1514899313118742,-2,-3,0,0,-2,-1,1,-2
1514899313140258,-1,-2,-1,-1,-2,-2,-2,-2
1514899313140258,1,-1,-2,-2,-1,0,-1,0
1514899313141259,-1,-1,-1,-1,-1,-2,-2,-1
1514899313141259,-1,-1,-1,1,-1,-2,-1,0
1514899313163774,-1,-3,-1,0,-2,0,-1,-2
1514899313163774,-1,0,-1,0,-1,-3,-1,-3
1514899313164278,0,-2,-1,-1,-2,-1,-3,-2
1514899313164278,-1,-1,-1,-3,-2,-1,-1,0
1514899313178786,0,-1,0,-2,-1,-2,-1,-1
1514899313178786,-1,-1,0,-1,-1,-1,0,1
1514899313180286,0,-1,0,-1,0,1,0,-1
1514899313180286,0,0,-1,-1,0,-2,-1,0
1514899313200306,1,-1,-1,-1,0,-2,0,-1
1514899313200306,-2,0,-1,-1,-2,-1,0,-2
1514899313201301,-1,-1,-1,-2,-2,0,-2,-2
1514899313201301,-2,-3,-3,-2,0,-1,-1,-1
1514899313223816,0,-1,0,-3,0,-1,-1,0
1514899313223816,-2,-2,-2,1,-1,0,-1,0
1514899313224322,-2,-2,-1,0,-1,-2,1,-1
1514899313224322,1,-2,0,-1,-1,-2,-1,-2
1514899313246832,-1,-1,-1,0,-2,-1,0,0
1514899313246832,-1,0,-2,-2,0,-1,-1,-1
1514899313248333,0,2,-2,-1,0,1,-1,-1
1514899313248333,-1,-2,-1,-1,0,1,-3,-1
1514899313260344,-2,-2,0,-1,-1,0,0,-1
1514899313260344,-2,-2,-1,-2,-3,1,-2,-2
1514899313261348,-1,-2,0,-1,-1,-1,-1,0
1514899313261348,-1,-2,-1,0,0,0,0,-1
1514899313283358,-2,-1,0,0,-1,0,-2,0
1514899313283358,0,0,-1,-1,0,0,0,-3
1514899313284359,-1,-3,-2,-2,-2,-2,-1,-3
1514899313284359,-1,0,0,0,-2,0,-1,0
1514899313297868,-4,-1,-1,-2,-1,-1,0,-2
1514899313297868,-2,0,0,0,0,-3,-2,1
1514899313298869,-3,0,-1,-1,-1,0,-1,0
1514899313298869,0,-2,-1,0,-1,-1,-1,-1
1514899313321385,-1,1,-2,-1,-2,1,-2,-3
1514899313321385,0,0,0,0,-1,-2,-1,-1
1514899313323387,0,-1,0,-1,-1,-1,-1,-2
1514899313323387,-1,-3,0,-2,0,-1,-1,0
1514899313343911,0,-2,-2,-2,-3,-1,-3,-1
1514899313343911,-2,0,-1,-1,-2,1,-1,-1
1514899313350416,-1,-1,-1,1,-2,-3,-1,0
1514899313350416,-1,-3,-1,-1,0,-3,-1,0
1514899313357412,-1,-2,-1,-1,-1,-1,0,-1
1514899313357412,-1,-1,-1,-1,-1,-1,0,-2
1514899313365426,-1,-2,0,-1,-1,-2,-1,-2
1514899313365426,-1,-2,-1,-2,-1,-2,0,0
1514899313380436,-1,0,0,0,0,-1,-1,-1
1514899313380436,0,-1,-1,-2,-1,-2,-1,-1
1514899313380927,-1,0,-2,1,-1,-2,-1,-3
1514899313380927,0,-2,-1,0,-1,-2,-1,-1
1514899313410948,-1,1,-2,-1,-1,0,-2,0
1514899313410948,-3,0,-1,-1,-1,-1,-2,1
1514899313411958,-1,-1,1,-1,-1,0,-2,-1
1514899313411958,-1,-2,-2,-1,-1,-1,-1,-1
1514899313417453,-1,0,-2,1,-1,-1,0,-1
1514899313417453,-3,-1,-1,-2,-2,-1,-1,-1
1514899313425459,0,-1,-2,-2,0,-1,0,1
1514899313425459,-1,0,-1,-1,-1,0,0,-2
1514899313440471,-1,-1,-1,-1,0,-2,0,-1
1514899313440471,0,0,-2,1,0,0,-2,-2
1514899313441471,-2,-3,0,-1,0,-1,0,-1
1514899313441471,-2,-3,-1,-2,-2,1,-2,-2
1514899313463488,0,-1,0,-1,-1,-1,-1,-2
1514899313463488,0,-1,0,0,-1,0,-1,-2
1514899313464487,-1,-3,-2,-3,-1,-2,-1,-1
1514899313464487,0,-3,-1,-2,0,-3,-2,-1
1514899313476995,-1,-1,-3,-2,0,-2,-1,-2
1514899313476995,-1,0,-1,-1,-1,1,0,0
1514899313485513,-1,-1,-1,0,-1,0,-1,-1
1514899313485513,0,-2,-2,0,-3,-2,-2,1
1514899313500511,0,-1,0,1,-3,-1,-1,-2
1514899313500511,-1,0,0,-2,-1,-4,-1,-1
1514899313502013,-2,-1,-2,-2,-1,-2,-2,0
1514899313502013,-2,0,0,-1,-1,-1,-1,-2
1514899313523531,-2,-1,-1,-3,-2,-2,0,1
1514899313523531,1,-1,0,0,0,0,-2,-1
1514899313524531,-1,-2,-1,-2,0,0,-2,0
1514899313524531,-3,-2,0,0,-1,-2,-1,-2
1514899313537538,-2,-1,-1,-1,-1,-1,0,-2
1514899313537538,-2,-1,-2,-2,-1,0,-1,-1
1514899313545053,-1,-1,-1,0,1,-2,0,-1
1514899313545053,-1,-1,-2,0,0,0,-2,-1
1514899313560554,-1,-1,-1,-1,-1,-1,-1,-4
1514899313560554,-2,0,-1,-1,-1,0,-1,-2
1514899313561055,0,0,-2,-1,0,-2,-2,-2
1514899313561055,0,-2,-1,-2,-3,-2,0,0
1514899313591076,-2,-2,-1,-2,0,0,-1,-1
1514899313591076,0,-1,-4,-3,-1,-1,0,-1
1514899313591575,0,-2,-1,0,-2,-1,0,-1
1514899313591575,0,-2,-1,-1,1,1,-2,0
1514899313597090,-1,0,-1,-1,1,1,-2,-1
1514899313597090,-1,0,-2,-2,-1,-2,-1,-1
1514899313606087,-1,-1,-2,-2,0,-1,-2,-1
1514899313606087,-2,-2,0,-1,-2,-1,0,0
1514899313620606,-2,-1,-1,-2,-2,-2,-1,1
1514899313620606,-1,0,-2,-1,-1,-1,-3,-2
1514899313622125,0,-1,-1,-2,-3,0,0,-1
1514899313622125,0,-2,-2,-1,-1,0,-2,-1
1514899313643622,0,-1,0,-3,0,0,-2,-1
1514899313643622,-3,-1,-1,-1,-2,-1,-1,-1
1514899313644121,-1,-2,-2,-1,-1,-2,-3,-1
1514899313644121,-1,-2,-1,-1,-2,0,1,-2
1514899313666140,-1,0,0,-1,-2,-1,-2,1
1514899313666140,-1,1,0,-1,-1,-2,-1,-1
1514899313666638,-1,-4,0,1,-2,-1,0,-1
1514899313666638,0,-1,-2,-1,1,-2,-1,-1
1514899313680148,-1,-2,-2,-1,-1,-1,0,-1
1514899313680148,-1,0,-2,-1,0,-2,0,-1
1514899313681149,-1,1,-1,-1,-1,0,0,-1
1514899313681149,-2,-1,-1,1,-2,-1,0,-1
1514899313704659,-1,1,-1,0,0,0,-1,0
1514899313704659,-1,-3,-2,-1,-1,-1,0,-2
1514899313706157,-2,-1,-1,-3,-1,-2,0,1
1514899313706157,-1,-4,-3,0,-1,-2,0,0
1514899313726171,-2,0,-2,-1,-1,0,0,0
1514899313726171,-2,0,0,0,-2,0,0,-2
1514899313726671,-2,0,-3,-1,0,0,0,-1
1514899313726671,0,-1,-1,-3,0,0,1,1
1514899313740699,-2,-2,-2,-1,-1,-1,-2,0
1514899313740699,-2,0,-1,-3,-3,0,-3,-1
1514899313741183,0,-2,0,-1,-2,-1,-2,0
1514899313741183,-2,-1,-1,-1,0,-2,-1,-1
1514899313763712,0,-1,0,-1,0,-1,0,0
1514899313763712,-2,-2,-2,0,0,0,0,-2
1514899313765208,-1,-2,-2,-1,1,-1,-1,-3
1514899313765208,0,-2,-1,0,-2,1,-2,-1
1514899313786223,-2,0,-2,0,0,-1,-1,0
1514899313786223,-1,0,-1,1,-1,-1,-2,0
1514899313786724,0,-3,-1,-1,-1,-2,0,-1
1514899313786724,-1,-3,-1,-1,-1,0,0,-2
1514899313800763,-2,0,-2,0,-1,-1,0,-1
1514899313800763,-1,0,-1,-1,0,-2,-1,-1
1514899313802729,-1,-1,-1,1,-1,0,-1,-1
1514899313802729,-1,-1,0,0,0,-1,0,0
1514899313823754,-2,1,0,-2,-2,1,-1,-2
1514899313823754,-1,0,-1,-4,0,-1,-1,-1
1514899313824240,0,0,-1,0,-2,0,0,-1
1514899313824240,-2,-1,0,-1,-1,-2,-2,-1
1514899313846268,-1,-1,-2,-1,0,-3,-2,-2
1514899313846268,-3,-2,-2,-1,-3,-1,-1,-1
1514899313846768,-2,-1,-1,-3,-1,0,-3,0
1514899313846768,0,-1,-2,-1,-1,-2,0,0
1514899313860276,-1,-1,-2,0,-3,-1,-1,1
1514899313860276,-2,1,-1,-2,-2,-1,-1,-1
1514899313861282,0,-2,-1,-3,0,-2,-1,-2
1514899313861282,-1,-1,0,-1,-1,-3,-2,-1
1514899313883296,-3,-2,0,-2,-1,-1,0,-2
1514899313883296,1,-1,0,0,0,-1,-1,0
1514899313884283,-1,-3,-1,1,-2,-2,-1,0
1514899313884283,-1,-2,-1,-1,-1,-3,-1,-1
1514899313906801,-1,-2,-1,0,-2,-1,0,-1
1514899313906801,0,1,-2,-1,-1,-2,-1,-1
1514899313907803,2,-3,-1,0,-1,-1,0,1
1514899313907803,0,-2,-2,0,-2,0,-2,-2
1514899313920822,0,-1,-3,-2,-1,-1,-3,-3
1514899313920822,-1,1,-2,-3,-2,-1,-1,-2
1514899313921819,-2,-1,-1,-1,-3,0,-1,-2
1514899313921819,0,0,0,-2,-1,-1,-1,-1
1514899313943334,0,-1,-1,-2,-1,-1,0,-1
1514899313943334,1,0,-3,-1,-1,-2,-1,-1
1514899313944335,-1,-2,-1,-2,-1,-3,0,-1
1514899313944335,-2,-2,-1,1,-1,-1,-2,0
1514899313965840,0,-1,0,-1,0,-1,-3,-1
1514899313965840,-1,-1,0,-1,-1,0,-2,-1
1514899313966855,-1,-1,-2,-1,-2,-1,-1,-1
1514899313966855,-1,-2,-1,-2,-1,-1,2,0
1514899313988356,0,2,-2,-1,0,-2,-1,-1
1514899313988356,-1,-1,-1,0,-1,0,0,-1
1514899313989858,0,0,-2,0,0,0,-1,-1
1514899313989858,-1,-1,-1,-3,-1,-1,0,-1
1514899314010872,0,0,-1,1,-2,-1,0,-1
1514899314010872,0,-2,-2,-1,-3,-1,-2,-1
1514899314012875,-1,-3,-1,-2,-1,0,-1,-1
1514899314012875,2,-2,-1,-1,0,-1,-3,0
1514899314025883,-1,-1,-1,-3,0,-1,0,-2
1514899314025883,0,0,-1,-1,0,0,0,-1
1514899314027884,0,-2,0,-1,-1,-1,-2,-2
1514899314027884,1,-2,1,0,-1,-1,0,-1
1514899314039901,-2,-1,-1,-2,-2,-1,0,-2
1514899314039901,-2,-2,-2,-2,-3,0,-1,-1
1514899314048903,-1,-1,-2,-2,-1,-3,0,-2
1514899314048903,-2,-1,-2,-1,-2,-1,-1,-1
1514899314063413,0,0,-2,-2,-2,-1,-2,-2
1514899314063413,-1,-1,-2,-1,-1,-1,-2,-1
1514899314065923,0,-1,-2,-1,0,-2,0,-1
1514899314065923,-2,-3,-3,1,-2,-1,1,-1
1514899314085925,-1,-1,0,2,-1,0,0,1
1514899314085925,-1,2,0,0,-2,-1,0,-2
1514899314087426,-1,-1,1,0,-2,-1,-2,-3
1514899314087426,1,0,-3,-1,0,-1,-2,-1
1514899314099435,-1,0,-2,-1,-1,-3,-2,0
1514899314099435,-2,0,-1,-2,-1,-2,0,0
1514899314108442,0,0,-1,-2,-1,0,-1,0
1514899314108442,-1,-1,-1,-2,0,0,-1,0
1514899314123463,-2,-1,-2,0,-2,-1,0,0
1514899314123463,-1,0,-1,-1,-1,-2,-2,-1
1514899314124952,-1,-1,-2,-1,-2,-2,0,-1
1514899314124952,-1,-1,-1,-2,-2,-2,0,-3
1514899314146007,-1,-2,-1,0,-2,0,-1,0
1514899314146007,-1,-3,-1,-1,-1,0,-2,1
1514899314149488,-2,0,-1,-2,-2,-1,0,0
1514899314149488,-1,-2,-2,1,0,-1,1,-1
1514899314159479,-1,-1,-1,-1,-2,0,-2,-2
1514899314159479,-1,-1,-3,-2,-2,-1,-1,-3
1514899314168486,0,-1,-1,-1,0,0,1,0
1514899314168486,-1,-3,0,-1,-1,-1,-3,2
1514899314183507,-1,-1,-3,0,0,-4,-2,-1
1514899314183507,-1,-1,-1,-2,-2,-2,-2,0
1514899314185008,-1,-2,-1,1,-1,-1,-2,-1
1514899314185008,-1,-2,0,-2,-1,-2,0,-2
1514899314214516,-1,-1,0,-2,0,0,-1,-2
1514899314214516,-2,-2,0,-2,1,-2,-1,0
1514899314218019,-2,-2,-2,0,0,-2,-1,-1
1514899314218019,-1,-2,-1,0,1,0,-1,0
1514899314221021,-1,-1,-2,-1,-1,-1,-2,0
1514899314221021,-1,0,-1,-3,0,-2,-2,-2
1514899314228526,-1,-1,-1,-1,-1,-1,-2,0
1514899314228526,-1,0,-1,0,-1,-2,-1,-2
1514899314243553,-2,0,-2,0,-1,-1,-1,0
1514899314243553,-2,0,-2,0,-2,0,0,-3
1514899314245052,-1,-1,-1,-2,-2,-2,-2,-2
1514899314245052,0,0,-1,-1,-2,-2,-1,0
1514899314266562,0,-1,-1,0,-1,0,0,0
1514899314266562,-1,0,-2,0,-1,-2,-3,-2
1514899314268565,0,0,2,0,0,1,1,0
1514899314268565,-1,-1,-2,-1,-1,0,-3,-2
1514899314279572,0,-1,-2,-2,0,-1,1,-1
1514899314279572,-1,-2,-1,-1,0,-1,-2,0
1514899314288569,0,-2,0,0,-1,-3,-1,-2
1514899314288569,-2,-3,-1,0,-2,-1,-1,-2
1514899314304595,-2,-1,0,0,-2,-1,0,-2
1514899314304595,-2,0,-1,0,0,0,0,-2
1514899314308082,-1,-2,-2,-2,-3,-1,-1,0
1514899314308082,0,-2,-1,-1,0,-1,1,-2
1514899314326095,0,-2,-1,-2,-1,-3,-2,-1
1514899314326095,0,-1,-2,-2,-1,-1,-1,-2
1514899314327596,-3,-3,-1,-1,0,-1,0,-1
1514899314327596,-2,-2,-2,-1,-1,0,0,0
1514899314339605,-1,0,1,-2,-1,0,-1,-2
1514899314339605,-1,0,-1,-1,-3,-2,0,-3
1514899314348621,-1,-2,-2,0,0,0,0,-2
1514899314348621,-2,-1,0,0,-1,-1,1,0
1514899314363633,-2,1,-1,-1,0,-1,-1,-1
1514899314363633,0,0,-1,0,-1,-1,0,2
1514899314365132,-1,-2,-3,-2,-1,-1,-4,0
1514899314365132,-2,-2,-2,-1,0,-2,-1,-2
1514899314386138,-1,1,-1,-1,-1,-1,-1,0
1514899314386138,-1,0,-1,0,0,-2,-2,-2
1514899314387648,0,0,-2,0,-2,-2,0,-1
1514899314387648,-1,-2,-1,-1,-1,-1,1,0
1514899314399647,-2,-4,0,0,-3,-2,0,-3
1514899314399647,-1,-2,-1,0,-2,-1,0,0
1514899314410154,-1,-2,0,-2,-1,0,-1,-1
1514899314410154,-2,0,0,-3,-1,0,-2,-1
1514899314423667,-1,-2,-3,-2,-2,2,-1,0
1514899314423667,-1,0,-1,-3,-1,-3,-1,-2
1514899314425166,-2,-1,-2,-2,-2,0,1,-2
1514899314425166,0,-1,1,2,0,-2,-2,0
1514899314445689,-1,0,-2,-2,0,0,-1,0
1514899314445689,0,-2,0,-2,0,0,-2,-1
1514899314447690,-1,-2,-1,-2,-2,-2,0,-1
1514899314447690,-3,-1,0,-1,0,-1,-1,-1
1514899314459689,0,1,-2,-1,-2,-1,-2,-2
1514899314459689,1,0,-2,-1,-1,0,-1,0
1514899314468696,-1,0,-2,0,-1,0,-2,-1
1514899314468696,1,-2,-2,-1,-2,0,-2,-2
1514899314483223,-2,-1,-1,-2,-2,-2,1,-1
1514899314483223,-1,-1,-2,-1,-1,-1,-1,-1
1514899314485207,0,0,0,-1,-1,-2,-1,-1
1514899314485207,-2,-1,-3,-1,-1,-2,-2,0
1514899314506223,-2,0,-2,-1,0,0,0,0
1514899314506223,-2,0,-1,-1,0,-1,-2,-3
1514899314507723,0,-3,-2,0,-1,-1,-1,-1
1514899314507723,0,-1,-1,-2,-1,0,-2,-1
1514899314519732,0,0,0,-1,0,-1,0,-2
1514899314519732,-2,0,-2,-2,-1,-1,0,0
1514899314528738,-1,-1,0,-3,-1,0,-2,-1
1514899314528738,-1,-2,-1,0,-1,-1,-3,0
1514899314543248,-1,0,0,0,0,-1,-2,0
1514899314543248,-1,-1,-2,-3,-2,0,2,-1
1514899314545250,1,-2,-2,-1,-1,-1,-1,-3
1514899314545250,0,-1,-2,-2,-2,-4,2,-2
1514899314565764,-1,-1,-3,-1,-1,-1,-1,-2
1514899314565764,-1,1,-1,0,-1,0,-2,-1
1514899314567766,-2,0,-1,-1,-2,0,-1,-2
1514899314567766,0,-2,-1,-2,-1,-1,-1,1
1514899314579787,-1,0,-1,-1,-2,0,-1,-2
1514899314579787,-2,-2,0,-2,0,-1,-1,-1
1514899314588791,-2,-3,-1,-2,-2,-1,-2,-1
1514899314588791,-3,-2,-1,0,-2,0,-1,-3
1514899314603791,-4,0,0,0,0,-1,-1,0
1514899314603791,-1,-3,-1,-1,-1,-2,-2,-2
1514899314605292,-1,-1,-3,-3,0,-3,1,0
1514899314605292,-1,-1,-1,-1,0,-2,-1,0
1514899314633322,1,-1,-2,-1,-1,-1,-1,-1
1514899314633322,-2,1,-1,0,-1,-3,-1,-1
1514899314635314,-2,-2,0,0,-1,-1,-1,0
1514899314635314,0,0,-1,-2,-1,-1,0,-2
1514899314648823,0,2,-2,-1,-2,-1,-1,-1
1514899314648823,0,-3,-3,-1,-2,0,-1,-1
1514899314651328,-1,-2,-2,0,-1,0,-1,-1
1514899314651328,-1,-1,-2,-1,-1,-1,-2,1
1514899314670851,0,-2,-1,-2,0,-1,-1,-2
1514899314670851,-2,0,-3,-1,-1,-1,-3,-3
1514899314672339,-1,-1,-1,-1,-1,-1,-1,0
1514899314672339,0,-1,-1,0,0,1,1,-2
1514899314693855,-1,-1,-3,-1,-1,-3,-3,0
1514899314693855,1,1,-1,0,-2,-1,-2,-1
1514899314710375,-1,0,-1,-1,-2,-2,-2,-2
1514899314710375,0,0,-1,-1,0,1,-3,-2
1514899314711368,-1,-2,-1,-2,-2,0,1,0
1514899314711368,0,0,0,-1,1,-2,0,-1
1514899314715370,0,-3,-1,-2,-1,-3,0,0
1514899314715370,0,-1,0,1,-2,-2,-2,-1
1514899314723376,-1,-1,0,-1,-1,-1,-1,-2
1514899314723376,-2,0,-1,-1,-2,-1,0,-2
1514899314729892,-1,-1,0,0,-1,0,-1,-4
1514899314729892,1,0,-1,0,1,0,1,3
1514899314745892,-2,-2,-2,-2,-1,0,-3,-2
1514899314745892,-1,1,-2,-2,-1,0,0,-1
1514899314747393,-2,-1,-2,-1,0,-2,-2,-2
1514899314747393,-1,-2,-2,-3,-1,-2,0,0
1514899314768417,0,0,-1,-2,-2,-1,-1,-1
1514899314768417,-1,-1,0,0,-2,0,-1,-1
1514899314769916,0,-1,0,0,0,-1,-1,1
1514899314769916,-3,-2,-1,-2,-1,-1,-1,-2
1514899314782917,-1,-2,0,-1,-1,-1,0,-2
1514899314782917,-2,-1,-2,-2,-2,0,-1,-1
1514899314789931,0,-1,-1,-2,0,-1,1,1
1514899314789931,0,-1,-2,1,-2,-1,0,-1
1514899314806935,-2,-1,0,0,0,-1,-1,-1
1514899314806935,-1,-2,0,-3,-1,0,-1,-1
1514899314810446,-1,-1,-1,-2,-1,-1,-2,-2
1514899314810446,-2,-1,0,-1,-1,-3,1,0
1514899314828462,-2,-1,-1,-2,-2,-1,-1,-1
1514899314828462,-1,-2,-1,0,0,-1,-3,-1
1514899314829963,0,-1,0,0,0,0,-1,-1
1514899314829963,0,-1,0,-2,-1,-1,-2,-1
1514899314842970,0,-1,-1,-1,0,-1,-1,-1
1514899314842970,-3,-1,-1,-2,-1,-1,0,-1
1514899314849475,-1,-1,0,-1,-3,-2,0,-1
1514899314849475,-2,-2,-1,-1,-3,0,-2,-1
1514899314865976,-1,-1,-1,-1,-1,-2,0,-2
1514899314865976,-1,0,0,0,0,-2,0,0
1514899314867478,-1,-2,-2,-1,0,0,0,1
1514899314867478,-1,-2,-2,0,-1,-2,-1,0
1514899314897013,-1,-1,-1,-1,-1,-2,-2,-2
1514899314897013,-1,-1,-1,-2,-2,1,0,-1
1514899314898510,-2,-2,0,0,-2,1,-2,-1
1514899314898510,-1,0,-1,-2,2,-1,-1,-1
1514899314903005,0,-1,-2,-1,0,1,-2,-1
1514899314903005,1,-1,-1,-1,-1,-2,-2,-3
1514899314909508,0,-3,-2,0,-1,1,-1,0
1514899314909508,-1,-3,-1,-3,-1,0,0,-1
1514899314926020,-2,0,-1,0,1,1,-1,-1
1514899314926020,-2,-1,0,-2,-1,-1,0,-3
1514899314927521,-1,0,-1,-1,-1,-1,-1,-2
1514899314927521,0,0,0,-1,-1,-2,-2,0
1514899314948550,1,0,0,-3,-1,-1,0,-3
1514899314948550,-2,-1,-1,0,-2,-1,-1,-1
1514899314952053,-1,-2,-2,-2,-2,-2,0,-1
1514899314952053,-1,0,-1,0,-2,0,-2,0
1514899314962044,0,0,-1,-1,-1,0,0,-1
1514899314962044,-3,-2,-1,0,-1,-2,-2,-2
1514899314971069,-2,0,0,-2,1,-2,-1,-3
1514899314971069,-2,-1,-1,0,-1,-1,-1,-1
1514899314986079,-1,0,0,-1,-2,-1,-1,-1
1514899314986079,-1,-1,-2,-2,-1,0,-1,0
1514899314987581,-1,-3,-3,-1,-1,-1,-2,-1
1514899314987581,-2,-3,-2,-1,0,-1,-1,-2
1514899315008587,-2,-2,-1,-1,-2,-3,1,-1
1514899315008587,-1,-2,-1,-2,-1,0,0,-2
1514899315010087,-2,-3,-1,-2,-1,-1,-1,-1
1514899315010087,-1,0,-1,-2,-1,1,-2,-1
