timestamp,emg1,emg2,emg3,emg4,emg5,emg6,emg7,emg8
1511759458577101,0,2,1,-5,-1,-4,-5,-5
1511759458577101,0,1,-2,0,1,-3,-5,-2
1511759458578102,-3,-2,1,-2,1,-1,-3,-3
1511759458578102,0,-2,0,-2,-2,-2,0,3
1511759458599349,1,-2,4,2,-3,-1,2,2
1511759458599349,-1,0,5,-2,-1,1,-1,0
1511759458601350,-5,-5,-1,-3,-2,-1,3,-1
1511759458601350,-2,-4,-1,-1,-2,-1,-4,-5
1511759458614861,1,0,-7,2,-4,-3,-4,-2
1511759458614861,-2,-3,-2,2,-1,1,-2,0
1511759458616361,-1,2,-4,0,0,1,-3,-2
1511759458616361,0,0,3,-3,0,-1,2,-3
1511759458636902,0,-2,2,-1,0,-2,0,2
1511759458636902,3,1,-3,-2,-1,-2,2,0
1511759458638902,1,1,-3,-2,2,2,1,2
1511759458638902,0,2,-4,-3,-1,2,2,1
1511759458659917,-4,0,0,5,-1,0,-1,-4
1511759458659917,-4,-6,-1,-1,-2,1,-4,-1
1511759458660919,-3,-3,5,-3,1,-3,0,0
1511759458660919,4,-2,-1,0,-4,-3,0,-5
1511759458673928,3,-1,-2,0,-4,-5,-3,-1
1511759458673928,-6,-1,2,-2,0,-1,-4,0
1511759458680596,-7,1,-2,-4,-2,-1,-6,1
1511759458680596,-2,-3,2,-3,-1,-4,-2,1
1511759458696607,-1,-1,2,-1,-1,-2,1,2
1511759458696607,-5,1,-4,-4,-2,0,1,0
1511759458698609,-1,-2,-2,-3,-1,-1,0,-3
1511759458698609,1,1,-2,0,-3,-1,-6,0
1511759458719626,3,0,4,-1,-2,0,-1,-4
1511759458719626,2,-2,-5,4,3,0,2,-2
1511759458720626,0,-3,-3,-5,4,0,0,0
1511759458720626,2,-4,0,0,0,0,4,-2
1511759458733635,1,-1,2,-2,0,-2,-1,-3
1511759458733635,-4,-1,0,-3,-1,1,-5,-4
1511759458740640,-5,0,-4,0,0,0,-5,0
1511759458740640,-1,2,-6,-1,-1,-1,-3,4
1511759458756649,3,3,0,5,-2,-6,1,0
1511759458756649,-1,0,4,0,1,0,3,-2
1511759458758652,0,-6,-3,-1,0,-2,3,-2
1511759458758652,-2,-2,3,-2,-4,-2,1,-2
1511759458779667,2,4,1,1,-3,2,2,-2
1511759458779667,6,-1,-5,-3,0,-2,1,-1
1511759458781668,0,0,0,-4,0,0,-6,-4
1511759458781668,-3,0,3,-1,-2,-1,1,-1
1511759458793676,-2,-2,-2,-1,-3,0,-3,-2
1511759458793676,-7,-4,-6,-2,0,1,-1,-1
1511759458800681,-6,-4,-2,-4,1,-2,-4,5
1511759458800681,0,-2,0,-1,-2,-1,-4,0
1511759458816693,2,2,-3,0,-1,1,0,-4
1511759458816693,0,0,-4,-2,3,1,2,-1
1511759458818695,-3,-1,-5,-1,0,-3,2,-3
1511759458818695,-2,-2,-3,3,-1,-3,-4,-4
1511759458839708,-1,-2,2,-2,-2,-2,-4,2
1511759458839708,0,0,-2,-4,0,1,-6,-2
1511759458840709,-2,0,6,-3,1,-1,-1,3
1511759458840709,0,3,0,2,-1,0,-2,2
1511759458853721,2,2,2,0,-2,-1,-1,2
1511759458853721,2,-4,-2,3,-3,-3,0,0
1511759458860724,-2,-3,-1,-4,-3,-1,0,-2
1511759458860724,0,-1,2,0,-3,-1,4,-4
1511759458876748,0,3,2,4,-5,-2,3,-4
1511759458876748,0,7,6,1,-2,-1,1,-3
1511759458878747,-1,-3,2,-1,1,-3,2,-4
1511759458878747,-2,-2,-3,-3,0,-4,-2,-2
1511759458899765,1,-2,-9,-3,0,2,-2,0
1511759458899765,-4,-2,-8,-5,1,1,-3,3
1511759458901764,-4,0,1,-1,0,1,-6,-3
1511759458901764,-1,1,-1,-1,-1,-1,-3,-2
1511759458913770,1,-2,-5,2,-2,-3,2,-2
1511759458913770,-3,-5,1,0,-2,0,0,-1
1511759458920769,-2,-1,-2,1,-1,-1,1,3
1511759458920769,2,3,2,-1,-1,-2,-3,-1
1511759458936794,-1,-1,-1,0,0,3,-4,-3
1511759458936794,-4,-1,-2,-3,0,1,-4,1
1511759458938791,-3,-4,-5,-3,0,-4,-3,-2
1511759458938791,-1,1,-2,3,-4,-1,3,-1
1511759458959805,1,1,-1,-2,-2,-2,1,-1
1511759458959805,-4,-4,1,-5,0,-1,-1,-1
1511759458960798,-6,-3,1,-4,1,1,0,-3
1511759458960798,0,-1,2,1,-2,-5,-3,-7
1511759458973813,0,-3,-5,1,-1,-4,0,0
1511759458973813,-6,-1,-5,-3,0,1,1,0
1511759458980809,-1,0,-2,-1,-2,0,0,-2
1511759458980809,4,-4,0,-1,-4,-3,-1,2
1511759458996831,-1,3,3,2,-2,0,-2,0
1511759458996831,2,-1,1,-5,2,1,-5,1
1511759458998833,3,-3,-5,-3,-2,3,-1,-3
1511759458998833,-1,0,0,0,-2,1,3,-3
1511759459019837,1,1,1,2,-1,1,0,-4
1511759459019837,-3,-1,0,1,-1,-2,1,1
1511759459020837,1,-3,0,-3,-2,0,-2,3
1511759459020837,-1,1,0,1,-2,-2,-2,1
1511759459032855,-2,0,-4,-3,-1,-1,1,-2
1511759459032855,-1,1,-3,-4,0,0,-2,-5
1511759459041877,-1,-1,-3,-2,-1,-1,-2,1
1511759459041877,2,0,-3,1,-2,-2,3,0
1511759459056871,-5,-3,-5,-1,-1,-1,0,2
1511759459056871,-3,-3,-8,-2,0,-3,-4,0
1511759459058873,-2,-1,1,0,1,-1,-6,-4
1511759459058873,0,1,0,-1,-2,-2,-3,-3
1511759459078889,3,1,-1,-3,-2,-2,-2,1
1511759459078889,-1,-3,0,-1,0,1,-2,0
1511759459080891,-2,-5,0,-2,-4,1,-5,0
1511759459080891,-2,-5,3,4,-1,0,-3,-2
1511759459092887,-1,3,4,2,0,0,2,-3
1511759459092887,-4,0,-1,-1,3,1,0,1
1511759459101894,-8,0,-3,-2,0,-1,5,-2
1511759459101894,2,2,0,0,-3,-4,-1,-3
1511759459116904,0,0,-3,1,-2,-2,1,-4
1511759459116904,-1,5,-5,-5,1,1,-1,1
1511759459118905,5,3,-1,-1,2,-3,-1,1
1511759459118905,4,1,-1,2,-1,-4,-2,2
1511759459146935,1,1,2,-1,-3,-4,0,-2
1511759459146935,-3,-6,-4,-2,0,-1,1,-2
1511759459147936,-5,-5,-4,0,-2,-2,-2,-3
1511759459147936,-1,-3,-3,2,-1,-2,-2,1
1511759459152940,1,-4,3,-2,-3,0,-7,-3
1511759459152940,-2,-2,6,-5,0,-1,3,-1
1511759459161946,0,-1,5,-2,-2,-3,3,0
1511759459161946,1,0,0,3,-3,0,2,-1
1511759459176956,-1,-1,-3,1,-3,0,0,-1
1511759459176956,-3,-1,-3,0,-2,-1,-10,-1
1511759459177957,-3,-3,-6,-1,-2,3,-6,0
1511759459177957,0,2,-1,-2,-3,-2,0,-2
1511759459198963,2,-3,3,4,-2,-1,-3,-2
1511759459198963,-1,-6,0,-5,1,-1,-4,-4
1511759459200963,-3,-1,0,-1,0,-6,-4,1
1511759459200963,0,1,-1,-1,-3,-4,4,1
1511759459212984,-2,2,-7,-2,-1,-2,4,4
1511759459212984,-6,3,0,0,3,1,2,-2
1511759459221978,-2,2,-2,-2,-1,1,-1,-2
1511759459221978,4,-1,0,-1,-2,3,-5,-4
1511759459236990,4,1,2,0,-2,-1,-2,-4
1511759459236990,1,-5,-6,1,0,-4,2,1
1511759459237990,0,-2,-3,-2,-1,-4,4,1
1511759459237990,-3,-3,2,3,-1,-2,-2,-2
1511759459259017,-4,0,1,-2,-2,0,-6,0
1511759459259017,-5,-4,-5,-5,0,2,1,-1
1511759459262016,-3,-3,0,-6,-1,-1,0,1
1511759459262016,4,1,-4,1,-4,-1,4,-1
1511759459273015,0,-2,1,2,-1,1,-2,2
1511759459273015,-2,0,-4,-2,1,0,-1,2
1511759459282022,-2,-3,-1,-1,0,-1,1,-1
1511759459282022,-1,-2,2,-2,-1,-2,-1,-5
1511759459297044,4,0,1,2,-1,1,0,-3
1511759459297044,1,-1,2,0,-1,2,-2,-2
1511759459298045,0,-3,3,-3,0,1,-4,-5
1511759459298045,2,1,0,-2,-3,-3,2,2
1511759459319047,-1,0,-6,0,0,-2,-1,5
1511759459319047,-5,-5,-1,-4,1,-3,-4,0
1511759459321048,-4,-1,1,-2,1,-5,1,0
1511759459321048,0,0,0,-1,-5,-2,-1,-1
1511759459333057,-1,0,-4,1,0,-5,-2,-3
1511759459333057,-3,0,-7,2,0,2,-1,0
1511759459342063,-2,-3,-5,-1,-1,-1,-3,0
1511759459342063,-3,1,2,-1,-4,-1,-3,2
1511759459357074,2,-1,2,-4,-2,-1,3,0
1511759459357074,-3,0,4,0,0,0,-1,-5
1511759459359075,1,-4,2,-1,-1,-1,2,-2
1511759459359075,0,-3,-1,1,-2,-2,1,-1
1511759459379102,2,-4,-5,0,0,1,-1,1
1511759459379102,-6,0,-3,-3,-1,-2,-1,1
1511759459381101,-2,2,-4,-1,-1,0,-2,0
1511759459381101,1,2,-1,3,-2,-2,-2,-6
1511759459393111,-3,2,4,-1,-2,3,0,1
1511759459393111,-4,-2,1,-4,0,-1,1,1
1511759459402107,-3,-1,-1,-1,0,1,-5,2
1511759459402107,4,-1,-3,1,-2,-2,-2,-2
1511759459417128,2,-3,-1,-2,-1,-3,4,-3
1511759459417128,1,-7,-3,-2,3,-2,-1,-1
1511759459418117,-1,-4,0,1,-2,-2,0,1
1511759459418117,0,1,2,1,-2,-3,-1,-2
1511759459439131,0,0,1,0,-3,-2,4,-3
1511759459439131,-1,-2,3,-2,1,2,-1,-2
1511759459441133,-5,0,0,-1,-2,-2,4,-1
1511759459441133,0,1,0,-3,-2,-2,-1,0
1511759459462160,-2,1,-8,-3,-2,1,-2,-1
1511759459462160,-4,-4,-7,-3,0,0,-7,0
1511759459463175,2,-4,-2,1,-1,-2,-7,0
1511759459463175,0,0,4,5,-1,-1,1,-2
1511759459477170,0,3,3,2,-2,-5,-2,0
1511759459477170,0,-1,-3,-2,-1,1,-4,-4
1511759459478170,0,1,-2,-2,3,2,4,-4
1511759459478170,3,1,0,-1,-3,-2,7,1
1511759459499177,-2,1,0,0,-1,-1,2,-3
1511759459499177,-4,-2,-6,-1,1,-1,0,3
1511759459501175,0,-1,-1,-1,-3,0,-3,-1
1511759459501175,3,-1,-2,-1,-2,-1,-3,2
1511759459522191,2,-4,1,0,-3,0,0,-2
1511759459522191,0,-4,0,-4,0,2,-2,0
1511759459523190,-7,-1,5,-2,0,0,0,-4
1511759459523190,-4,0,0,1,-2,-2,0,-3
1511759459537206,-5,2,-2,1,-2,-7,-4,-2
1511759459537206,-6,0,-2,-2,1,-3,-3,2
1511759459538207,2,3,-2,-2,0,0,-5,1
1511759459538207,6,4,0,0,-2,0,-3,0
1511759459559226,-2,-6,-4,-2,1,0,1,-1
1511759459559226,-4,-4,-5,-4,3,1,1,-1
1511759459561227,-3,-1,-6,-2,1,0,-3,2
1511759459561227,4,-2,5,1,-6,-4,-2,-4
1511759459582242,2,-2,1,-1,-2,1,-3,-3
1511759459582242,-4,-3,0,-3,1,-1,-1,-5
1511759459583234,-2,-4,0,2,-1,-3,4,2
1511759459583234,3,-3,-1,2,-1,-3,-1,3
1511759459597255,0,2,-4,1,-2,-2,1,4
1511759459597255,0,-2,-6,-2,-2,2,0,4
1511759459603248,2,0,-3,0,-1,-1,0,-1
1511759459603248,-2,1,-3,0,-3,-4,2,-7
1511759459619262,-4,1,-3,-2,0,-2,-6,-4
1511759459619262,0,1,-7,-5,1,0,-4,-3
1511759459621262,-4,-3,2,-2,1,-2,-8,0
1511759459621262,-3,0,6,6,-2,1,-2,-2
1511759459641284,-1,-2,1,0,-1,0,-2,-2
1511759459641284,-5,-2,-4,-3,0,-3,0,0
1511759459649280,2,3,-3,-1,-3,0,4,0
1511759459649280,4,-1,2,-4,-3,0,1,-5
1511759459656294,1,0,3,-2,0,1,1,1
1511759459656294,-5,-4,2,1,1,5,0,1
1511759459663290,-5,-3,-2,-2,-1,1,-6,-3
1511759459663290,-5,0,1,2,-5,-1,-1,1
1511759459679301,1,-1,-2,-3,-1,-1,1,-3
1511759459679301,0,-4,1,-5,1,-4,2,0
1511759459681302,0,-3,0,1,1,-4,1,-2
1511759459681302,2,1,-3,2,-3,-1,1,3
1511759459702320,2,3,-5,-1,-2,-4,-4,0
1511759459702320,-4,-4,-2,-4,0,1,-1,1
1511759459703321,-3,0,-1,-3,-4,-1,-1,-4
1511759459703321,2,-1,2,2,-3,-5,3,-3
1511759459716327,-1,0,-2,2,-2,0,-2,0
1511759459716327,2,-1,-2,-4,2,0,-2,4
1511759459723332,-4,-6,-1,-4,-3,1,1,4
1511759459723332,1,-3,-2,2,-1,2,-5,-1
1511759459739344,-4,-1,-2,1,-1,-2,-5,-4
1511759459739344,-7,-3,-5,-5,2,0,-2,-3
1511759459741345,-3,0,-5,-3,-3,0,-2,-2
1511759459741345,-2,-1,-1,2,0,-2,2,2
1511759459762360,5,-1,0,0,1,-1,4,-3
1511759459762360,2,2,3,-4,2,-1,-1,-1
1511759459763360,1,0,2,-3,-1,-2,0,-2
1511759459763360,2,2,2,0,-7,-3,-4,-1
1511759459776370,-6,-3,3,3,0,-1,-4,-2
1511759459776370,-1,-2,-6,-1,0,-1,-2,-3
1511759459790380,0,-3,-2,1,0,-4,1,1
1511759459790380,2,0,2,-1,-3,1,0,-2
1511759459799386,-1,0,-1,-2,-1,3,-3,4
1511759459799386,-4,-2,2,-4,2,3,0,-1
1511759459801387,-1,-1,1,-1,1,0,0,0
1511759459801387,2,2,-2,0,-2,-4,-1,-2
1511759459821407,-2,-2,-2,0,-3,-1,0,0
1511759459821407,-9,-1,-4,-1,0,-2,-4,1
1511759459823403,-1,-2,-1,-1,0,-1,-3,-3
1511759459823403,4,-3,3,1,-5,-6,1,0
1511759459836412,2,-4,-3,0,0,-1,5,-1
1511759459836412,-1,0,-3,-1,0,-2,0,-1
1511759459843417,-3,-2,1,-4,1,0,1,-2
1511759459843417,0,3,-2,-2,-2,3,-2,0
1511759459859440,-1,1,-3,-3,-1,-2,-3,-1
1511759459859440,-5,-3,-3,-6,0,1,-2,-3
1511759459861430,-2,1,0,0,-4,-2,-2,-7
1511759459861430,0,0,2,2,-2,-1,-2,-3
1511759459882444,3,-1,1,2,-4,0,4,2
1511759459882444,2,-4,-2,-2,0,3,-3,2
1511759459896454,2,-5,5,1,-1,-3,0,2
1511759459896454,2,-1,2,0,-3,-3,0,-2
1511759459897456,-5,1,-7,-2,-1,0,0,0
1511759459897456,-7,-2,-6,-4,3,1,-1,-4
1511759459903461,-2,1,-1,-4,0,-3,-1,-4
1511759459903461,1,-1,5,-1,-1,-5,-2,-4
1511759459919473,5,0,1,2,1,-1,-1,-3
1511759459919473,-2,1,-2,2,-2,0,-1,-1
1511759459920472,-3,-2,-4,-1,-2,0,-3,-1
1511759459920472,1,2,1,-2,-4,-1,-2,2
1511759459941486,0,-3,4,-3,-2,-1,-4,-2
1511759459941486,-5,-7,-2,-2,1,-2,-2,2
1511759459943489,-1,-2,-4,2,-2,-3,-6,4
1511759459943489,3,5,-6,1,-4,-4,0,0
1511759459955496,-3,0,-2,-2,-1,0,-3,0
1511759459955496,-4,-3,-2,-3,-2,0,-1,-2
1511759459964502,-6,-2,-2,0,-1,-2,4,-1
1511759459964502,-3,-4,-3,0,-2,0,5,-5
1511759459979513,1,0,-4,-3,-2,3,5,-4
1511759459979513,0,-1,0,-1,3,1,-3,2
1511759459980514,3,4,3,-1,0,1,-8,2
1511759459980514,0,-2,3,-1,-3,-3,-3,2
1511759460001528,2,-1,-1,0,1,-2,0,2
1511759460001528,-1,-4,-5,-3,0,1,1,-5
1511759460003530,0,-4,-1,-1,-4,1,3,-3
1511759460003530,7,1,-1,4,-2,-2,-1,1
1511759460015538,2,-2,-7,-1,-1,-3,-1,-1
1511759460015538,-2,-2,-6,-4,2,-1,4,1
1511759460024545,-3,0,-2,-3,1,-2,-2,-2
1511759460024545,-5,6,1,1,-3,-2,0,-6
1511759460040563,-5,4,2,-4,-2,1,-6,-1
1511759460040563,-1,-1,0,-3,0,-1,0,4
1511759460041565,-1,-1,-2,-4,-1,1,3,1
1511759460041565,2,-3,-1,4,-2,0,-2,-3
1511759460061571,1,-6,2,0,0,1,-2,0
1511759460061571,-2,-7,3,-3,2,0,-5,1
1511759460063573,-3,0,3,0,-3,-1,0,1
1511759460063573,0,2,-2,0,-3,-1,2,0
1511759460075581,-1,0,-4,1,-2,1,-2,0
1511759460075581,-4,0,-3,-3,2,-1,-2,-3
1511759460084595,2,-4,3,-3,-1,-3,2,-2
1511759460084595,2,-4,2,3,-3,-5,-4,-5
1511759460099598,-2,-3,-1,-1,-1,-5,-2,-3
1511759460099598,-5,-3,-2,-2,1,-2,-4,0
1511759460100598,-3,2,-6,-3,-1,-1,-2,2
1511759460100598,-1,3,2,2,-4,2,2,1
1511759460121614,-4,2,3,1,-1,-1,-2,0
1511759460121614,1,0,-3,-2,1,-1,0,2
1511759460123615,2,-1,0,-2,0,-4,-4,-1
1511759460123615,1,1,-1,1,-4,-4,-1,2
1511759460135624,-1,-3,-6,-2,-1,-3,1,-2
1511759460135624,-5,-4,-4,-1,0,-1,-3,-4
1511759460144630,-1,0,2,-1,0,-2,-1,1
1511759460144630,1,1,-3,-2,-3,0,7,1
1511759460159640,-2,1,-3,-4,-1,-2,1,2
1511759460159640,-5,-2,1,-4,-1,1,-3,1
1511759460161641,4,-4,1,2,-4,-2,-2,-3
1511759460161641,5,-1,0,0,-3,-3,-5,-6
1511759460181656,0,1,1,0,-1,3,-5,-3
1511759460181656,-1,2,-2,-5,2,1,3,-2
1511759460183657,-4,3,0,-1,0,-2,3,3
1511759460183657,0,2,-1,2,-3,-1,1,-3
1511759460195676,-1,-2,-5,-5,-1,1,-1,0
1511759460195676,-4,-6,-2,-3,3,3,-2,1
1511759460204672,-3,-5,-1,-2,-1,1,2,-4
1511759460204672,2,-2,1,0,1,-1,-2,-2
1511759460219684,1,-3,-2,0,0,-1,-5,1
1511759460219684,-4,-5,-2,-6,0,-2,-4,-3
1511759460220689,-1,0,1,1,0,-3,-1,-2
1511759460220689,-1,1,1,0,-4,-3,-1,1
1511759460241708,-2,1,5,2,-1,-3,2,-3
1511759460241708,-3,2,-3,-2,-2,-3,-1,0
1511759460243700,4,-3,-4,2,-2,-1,-1,-3
1511759460243700,1,-2,-5,1,-1,-3,-4,2
1511759460263713,0,-2,-4,-4,1,0,-1,0
1511759460263713,-4,-4,-1,-2,1,1,3,0
1511759460265716,-3,-2,3,-1,-2,-2,1,-7
1511759460265716,2,0,2,0,-4,-1,0,-2
1511759460278726,-4,0,1,-1,-1,-4,-1,-1
1511759460278726,-2,1,-2,-1,1,0,-1,-2
1511759460280727,0,1,-1,-3,-4,2,0,2
1511759460280727,2,2,-3,2,0,-1,6,-2
1511759460301752,-1,3,-4,0,-2,-1,0,-4
1511759460301752,-1,-1,0,-1,2,2,-1,-1
1511759460303742,1,1,1,-3,-2,0,-2,2
1511759460303742,1,1,4,-4,-5,-2,-6,0
1511759460315763,-2,-3,1,-4,0,3,-1,-1
1511759460315763,-7,-4,-1,-1,-1,-3,-4,-2
1511759460324769,-2,-6,-4,0,-2,-1,-1,-3
1511759460324769,2,-1,2,3,-3,-4,1,-2
1511759460339769,-5,-2,0,0,0,-1,0,1
1511759460339769,-5,-2,-6,-2,0,2,-4,1
1511759460341769,0,1,-2,-1,-1,-1,-2,-1
1511759460341769,1,2,-1,1,-1,1,-6,-1
1511759460361793,2,2,-4,1,-2,1,0,-1
1511759460361793,-2,-3,0,-3,-2,-2,-2,-2
1511759460363794,-1,0,-3,-2,-1,-6,0,2
1511759460363794,0,-1,2,1,-1,-1,2,-1
1511759460384800,-3,-1,0,-3,-2,1,-3,-2
1511759460384800,-1,-2,-6,-2,0,0,2,-3
1511759460385805,1,-2,0,4,-1,-2,0,-2
1511759460385805,3,3,0,1,-1,-2,1,-3
1511759460399810,-1,-4,-3,-2,0,0,1,0
1511759460399810,-6,-3,-1,-6,0,0,-1,-4
1511759460401811,-2,1,3,-2,-2,-1,-7,-2
1511759460401811,1,4,-1,1,-2,1,-1,1
1511759460421827,-1,-2,-1,3,2,1,2,0
1511759460421827,4,-4,-5,-1,0,-1,0,1
1511759460423839,2,-3,1,-2,0,-2,1,-2
1511759460423839,2,-1,4,-2,-3,-2,-2,-1
1511759460444841,-3,1,4,-4,2,-1,1,0
1511759460444841,-5,-3,-1,-5,2,-1,-1,2
1511759460445848,1,-1,-2,-1,-3,-3,0,-1
1511759460445848,-3,2,-5,3,-3,0,0,-2
1511759460458852,1,2,-4,-1,-4,2,2,2
1511759460458852,-2,0,0,-1,0,3,0,3
1511759460460856,-3,-3,-2,5,-2,0,-6,1
1511759460460856,-2,0,-2,0,-1,-3,-1,-4
1511759460481880,0,1,-4,-3,0,-3,-4,-6
1511759460481880,-1,-3,2,-4,2,-2,-7,-3
1511759460483881,-2,-1,-3,-1,0,0,-3,-1
1511759460483881,3,-3,-1,-2,-2,-3,-4,-2
1511759460504885,-4,-3,-5,-1,0,-3,-2,-1
1511759460504885,-1,-5,-4,-4,-3,0,3,-2
1511759460506895,-3,-3,4,1,-2,0,3,-2
1511759460506895,1,1,1,-1,-2,0,2,0
1511759460519898,0,-2,2,-1,0,2,-2,3
1511759460519898,-3,-1,0,1,2,-2,-8,2
1511759460520898,3,4,-5,0,-2,1,3,-1
1511759460520898,1,-3,-2,2,-3,2,2,-5
1511759460541920,-1,0,2,-4,0,1,1,-4
1511759460541920,-1,-4,2,0,-1,1,-1,0
1511759460542922,0,-5,3,-2,-3,-1,3,0
1511759460542922,3,-1,-3,2,-3,-1,-1,-1
1511759460571948,0,-3,-6,-2,2,-2,0,1
1511759460571948,-8,0,-3,-2,2,-2,3,-1
1511759460578938,-3,1,0,-4,-1,-3,-3,-2
1511759460578938,-2,-2,0,1,-4,-5,-3,-1
1511759460579940,-1,-2,-4,2,0,-1,-8,-2
1511759460579940,0,1,-4,-1,2,-1,-5,-4
1511759460585943,-1,0,1,3,-1,0,-5,0
1511759460585943,-1,0,3,-2,-1,-2,-2,2
1511759460601963,0,-1,2,-1,-1,0,1,3
1511759460601963,0,-2,-1,-5,-2,1,5,-2
1511759460603961,0,-2,2,-4,-2,-1,4,-3
1511759460603961,-3,0,-2,3,-2,0,4,-3
1511759460623980,-6,-1,-4,0,1,1,-4,-2
1511759460623980,0,-7,-1,1,0,0,-4,-1
1511759460625982,3,0,0,0,-4,-3,-4,-1
1511759460625982,6,0,1,2,-1,-4,-8,3
1511759460638978,2,-3,-3,-3,0,-2,0,-1
1511759460638978,-4,1,-2,-2,1,-1,-2,0
1511759460644983,-5,0,-6,-4,-3,0,-1,-5
1511759460644983,-3,2,0,-2,-4,1,3,1
1511759460662008,-1,0,2,-2,-1,-1,7,2
1511759460662008,-3,-3,-3,-3,0,0,0,1
1511759460663008,3,-1,-1,0,0,-1,-2,-3
1511759460663008,3,-1,0,1,2,1,-6,-4
1511759460684011,0,-1,-2,1,0,2,-1,0
1511759460684011,-1,-3,-5,-3,-3,0,0,0
1511759460686013,-4,3,-4,1,-1,-1,0,3
1511759460686013,1,0,3,0,-3,0,-2,-4
1511759460699021,-2,-3,4,-5,-1,-3,-5,-4
1511759460699021,-4,-2,2,-1,-1,-3,-2,-3
1511759460705025,0,-3,4,4,-1,-3,-1,-1
1511759460705025,0,-1,-2,3,1,-4,1,2
1511759460722037,-1,-3,-5,-1,-2,0,-1,-1
1511759460722037,-1,0,-4,-5,-3,0,-2,1
1511759460723038,2,0,0,-2,-2,-5,-2,-3
1511759460723038,-2,-2,-2,-1,-1,-2,3,-3
1511759460744053,-3,-3,-2,-1,0,-1,2,-2
1511759460744053,-2,-1,-2,-1,1,0,0,-2
1511759460746054,-1,2,-2,3,-3,0,6,-2
1511759460746054,0,2,-2,-1,-2,-1,0,-2
1511759460759074,-4,0,-2,-3,1,0,-5,2
1511759460759074,-5,0,0,-4,0,-3,-8,1
1511759460765068,2,-1,4,1,-1,-4,-7,-1
1511759460765068,1,1,0,-1,-4,-3,2,0
1511759460782080,-3,-3,-2,-3,-1,0,0,0
1511759460782080,-4,-1,-1,-5,0,-1,3,-4
1511759460783080,0,-4,3,0,-4,0,0,0
1511759460783080,6,1,1,4,-4,2,1,-3
1511759460804099,1,2,-1,0,1,2,1,1
1511759460804099,-1,-1,0,-3,1,-3,1,5
1511759460806097,2,1,-5,-1,-2,-4,-5,2
1511759460806097,0,-2,-1,1,-2,-4,0,-4
1511759460819106,0,0,-2,-2,0,-1,-1,-5
1511759460819106,-3,-3,-1,-2,0,2,-4,-4
1511759460825110,-3,-2,-1,1,-2,0,0,-1
1511759460825110,3,-3,0,1,-1,1,-4,3
1511759460842135,-4,0,-3,0,0,0,-6,-1
1511759460842135,-3,2,-2,-1,-1,-1,1,0
1511759460843134,3,3,-1,-1,-1,-3,2,-1
1511759460843134,-1,-1,-4,3,-2,-1,2,-3
1511759460864147,0,-6,-2,-2,-1,-1,3,-2
1511759460864147,-4,-4,0,0,-1,0,-2,3
1511759460866149,-2,-1,-1,-2,-1,-2,-2,1
1511759460866149,-1,2,0,-2,-2,-1,-2,-1
1511759460878157,-2,-2,-1,-2,0,0,-3,-1
1511759460878157,-2,-4,-2,-2,2,0,2,0
1511759460887165,3,1,1,-1,-2,0,4,-5
1511759460887165,-3,4,-2,-3,-3,-3,-4,-3
1511759460903166,-4,-2,-3,-4,-1,2,0,-1
1511759460903166,-1,-4,-5,0,-2,0,1,-1
1511759460905183,-1,-1,-1,2,-5,-3,-3,1
1511759460905183,0,-1,4,-3,-1,1,-2,2
1511759460924193,1,-2,1,-2,0,0,-8,0
1511759460924193,-1,-2,6,-1,-1,-2,1,-1
1511759460926194,3,-1,1,2,-1,-3,0,0
1511759460926194,-2,0,-4,0,-1,-1,0,-1
1511759460938192,-5,-1,-5,-4,2,-2,-3,-4
1511759460938192,5,0,-3,-2,0,-1,-2,-2
1511759460954202,3,-2,0,3,-3,-4,-3,-1
1511759460954202,1,-1,-2,2,-2,-1,-1,0
1511759460962219,-4,2,0,1,-1,1,-1,3
1511759460962219,-4,0,-1,-1,-2,-1,1,0
1511759460963210,-2,-1,2,-2,-3,-4,2,-2
1511759460963210,-1,-1,-2,-2,0,-1,-4,0
1511759460984232,-3,-2,-4,-7,1,1,1,-3
1511759460984232,-3,3,-5,-5,-1,-1,-3,-6
1511759460986242,-1,2,1,-2,-2,1,-3,1
1511759460986242,2,-4,1,0,-1,-1,-2,1
1511759460998244,-1,-3,2,1,1,3,-2,3
1511759460998244,-5,-4,-1,-2,0,-1,-1,1
1511759461013244,-4,-4,-1,-2,-2,-2,2,-5
1511759461013244,2,0,-1,2,0,-2,1,-6
1511759461022261,-3,1,-4,-2,1,1,-3,0
1511759461022261,-1,2,0,-2,-1,4,-4,1
1511759461023250,0,1,2,-1,0,0,2,0
1511759461023250,-3,-2,1,-4,-3,0,4,-2
1511759461044274,-2,-4,0,-3,1,-3,0,-1
1511759461044274,-2,-4,-3,0,0,0,-5,0
1511759461046277,0,3,-3,3,-3,-2,-1,-2
1511759461046277,0,0,-1,2,-1,0,-4,-4
1511759461058284,-1,-2,-7,-2,1,0,1,-1
1511759461058284,-1,0,-4,-4,-1,-2,1,-2
1511759461067291,4,-3,-2,1,-3,-1,1,-4
1511759461067291,3,-3,-4,-1,-2,-2,-2,-4
1511759461082304,-3,-5,-5,-4,1,0,-4,2
1511759461082304,-3,0,2,-4,0,0,1,0
1511759461084300,0,4,0,-1,-3,-2,3,-1
1511759461084300,-2,4,4,-1,-4,-1,2,1
1511759461104318,-4,-2,0,-1,0,-3,-2,-3
1511759461104318,-1,-4,2,0,-3,-4,0,0
1511759461106311,0,-4,3,1,-1,-1,-3,-1
1511759461106311,-2,3,-2,-1,0,0,-3,-2
1511759461118329,-5,1,-1,-2,1,1,1,2
1511759461118329,-4,-1,-3,-3,0,0,-4,2
1511759461127336,-1,0,-4,-1,-3,-1,-1,3
1511759461127336,4,1,0,0,0,-3,1,-1
1511759461141333,1,-3,-3,-4,0,-5,-1,-3
1511759461141333,-3,-3,-2,1,0,-2,0,-2
1511759461143335,1,-1,4,2,-3,-5,-1,-2
1511759461143335,0,-2,0,-1,-1,-3,0,-1
1511759461164362,-1,-2,-1,-4,-2,1,0,-1
1511759461164362,-1,-6,-1,-2,1,-2,-2,0
1511759461166366,3,1,2,1,-1,0,-3,0
1511759461166366,0,4,-3,-1,-5,1,1,-3
1511759461178370,-4,2,-3,-3,0,1,0,-2
1511759461178370,0,-3,-7,-2,-1,-3,0,-4
1511759461187366,-1,-1,-2,1,-3,-3,3,0
1511759461187366,2,1,-4,0,0,-1,-1,1
1511759461201386,-5,-1,-2,-4,1,3,-3,-1
1511759461201386,0,1,3,-2,0,-2,-2,-6
1511759461203380,3,0,2,-1,-3,-1,-1,-3
1511759461203380,0,-1,4,2,-1,-2,-4,3
1511759461224407,-3,-4,-4,-2,1,-1,-1,4
1511759461224407,0,-2,-2,1,-2,-1,-5,2
1511759461225393,-2,0,-2,3,-3,1,0,-3
1511759461225393,-1,-5,-5,-2,-3,-1,4,2
1511759461238414,-1,-5,-3,-3,1,0,2,-2
1511759461238414,-3,-1,-1,-3,0,-1,0,-1
1511759461246417,-1,3,2,0,-4,-2,-1,-5
1511759461246417,1,-2,0,-3,0,0,-1,-5
1511759461262422,-3,-2,-3,-4,1,-3,-4,-3
1511759461262422,-2,-1,1,-2,1,3,-2,0
1511759461264432,1,1,0,3,-3,-2,0,0
1511759461264432,2,4,0,1,-3,-1,3,-2
1511759461284435,2,-1,-2,1,1,-1,-2,-4
1511759461284435,-2,-1,-4,2,-1,-1,-1,1
1511759461286436,0,1,1,0,-5,-4,-4,2
1511759461286436,-4,-2,0,-2,-1,-2,1,3
1511759461298444,-2,-2,-2,-5,0,-1,-3,0
1511759461298444,0,-4,-1,-3,-1,1,0,-3
1511759461306460,5,-1,2,-2,-1,-2,-3,-2
1511759461306460,0,-2,-1,-1,0,-3,-3,-1
1511759461322462,-2,-2,1,-6,1,4,0,-2
1511759461322462,-3,1,-1,-3,-1,0,3,-3
1511759461327477,2,-1,-5,2,0,-2,1,-1
1511759461327477,-5,1,-2,3,-2,-1,-4,-2
1511759461344489,-5,-3,-4,2,0,-3,4,2
1511759461344489,-2,2,5,1,-2,-2,-4,0
1511759461345490,7,2,2,-1,-4,-2,-2,-1
1511759461345490,4,-2,-2,-1,-1,-1,-5,1
1511759461366502,-5,-3,-3,-2,-1,0,-3,0
1511759461366502,-2,-5,-1,0,-2,2,3,-4
1511759461368494,-3,-2,0,-1,-3,0,2,-1
1511759461368494,0,-2,-2,-3,-1,0,1,-2
1511759461381516,-3,-1,-4,-5,-2,-2,-5,1
1511759461381516,0,-1,-2,-2,-1,-6,-3,-2
1511759461383518,2,1,0,5,-5,-3,0,-3
1511759461383518,5,0,2,2,1,0,0,3
1511759461404537,2,1,2,-1,1,0,-2,2
1511759461404537,-3,1,3,-2,1,-1,-1,0
1511759461405523,-4,-1,-1,2,-3,-2,-2,-2
1511759461405523,-3,-3,-2,-2,-1,2,-3,-5
1511759461426547,-3,-4,-5,-2,3,4,-3,0
1511759461426547,0,-2,-5,-7,-1,-1,2,2
1511759461428548,1,0,-3,-1,-3,-4,3,2
1511759461428548,0,1,0,-4,-3,-4,2,-3
1511759461441546,-4,-1,1,-3,0,-2,0,-2
1511759461441546,-4,-2,2,0,0,-1,-4,-3
1511759461443556,1,1,6,1,-3,-1,-2,-5
1511759461443556,1,0,0,0,-3,1,-2,4
1511759461464561,-1,-4,-1,-1,2,2,0,0
1511759461464561,1,-1,-2,0,-1,-2,0,3
1511759461465568,4,0,-6,-1,-2,-3,-2,-2
1511759461465568,-4,0,-3,2,0,-1,-3,-4
1511759461486577,-7,-2,-1,-2,0,-1,2,-3
1511759461486577,0,-4,3,-1,-2,-4,0,-4
1511759461488578,5,-1,5,0,-2,-2,-1,-3
1511759461488578,3,3,-3,2,1,3,3,-1
1511759461501587,-6,-2,-7,-7,1,3,-3,1
1511759461501587,-5,-2,-3,-2,-3,1,-5,-2
1511759461507592,0,1,-5,-1,-4,-3,1,0
1511759461507592,-1,-5,-2,-1,-1,-3,-1,-1
1511759461524604,-1,-4,-2,-2,1,-2,-4,-2
1511759461524604,-3,-3,-1,1,1,-2,-1,1
1511759461525606,1,2,4,3,-2,-4,2,-1
1511759461525606,-2,3,-4,1,-3,-2,2,1
1511759461546619,-2,1,-5,-4,1,2,4,3
1511759461546619,4,1,3,-2,-1,0,-2,0
1511759461548620,0,-2,3,1,-6,0,0,-1
1511759461548620,0,-5,7,-3,-3,-2,-4,-2
1511759461560629,0,-6,-2,-1,1,-3,-2,0
1511759461560629,-1,-2,-8,-2,-2,-1,-2,-4
1511759461567634,1,0,-5,1,-4,-3,-2,2
1511759461567634,-1,0,-3,-2,-1,0,-3,-2
1511759461584646,-6,2,-3,0,1,1,-4,1
1511759461584646,-1,0,-2,-1,0,-1,1,0
1511759461585650,0,-2,0,-1,0,-1,-1,-3
1511759461585650,2,2,-2,-1,-1,-3,-1,-6
1511759461607663,-2,-4,-1,-2,3,-1,-1,-3
1511759461607663,-2,-4,3,0,0,-4,-1,-1
1511759461608663,1,4,4,1,-3,-2,-5,-2
1511759461608663,-2,-2,0,0,-1,-1,-4,0
1511759461621687,-7,1,-4,-5,-1,3,0,-1
1511759461621687,-3,-1,-6,0,0,-1,4,3
1511759461627676,3,-4,1,0,-2,1,2,-1
1511759461627676,1,-3,-2,1,-3,-1,-1,-2
1511759461643688,0,-2,0,-2,1,-1,-2,0
1511759461643688,-2,-1,-1,-3,-2,0,-1,0
1511759461645695,2,1,4,3,-3,-1,-1,-1
1511759461645695,1,2,-3,-2,-1,-1,2,-1
1511759461666717,0,0,-2,-4,2,-4,-2,-1
1511759461666717,-5,2,1,-4,-3,-1,-3,-1
1511759461668722,0,2,6,2,-3,0,-3,-2
1511759461668722,-2,-3,1,4,-1,-2,-3,0
1511759461680731,-4,-7,-2,-2,1,-2,-4,2
1511759461680731,0,0,-5,0,-1,-2,-1,-3
1511759461687719,1,2,-3,1,-1,-4,1,-3
1511759461687719,-1,0,-1,-3,-2,-1,-1,-2
1511759461704731,-4,-4,0,-5,1,1,-2,-6
1511759461704731,0,-1,1,-3,1,0,0,-1
1511759461705731,1,-1,-3,-2,-2,-2,-4,0
1511759461705731,-3,2,-5,-1,1,0,0,4
1511759461726756,1,-4,-2,-2,-1,1,-1,1
1511759461726756,2,-2,-2,-1,-3,2,5,-2
1511759461728758,1,-2,1,1,-4,-2,4,-2
1511759461728758,0,0,-1,-3,1,1,2,2
1511759461740756,-4,-1,-1,-4,0,4,-3,0
1511759461740756,-1,-3,1,2,-2,-4,-2,-1
1511759461747771,0,1,2,2,-2,-3,-3,-1
1511759461747771,-7,-1,0,0,-1,-2,-7,-4
1511759461763773,-6,0,-7,-3,1,-1,-2,-2
1511759461763773,-1,-1,-3,0,3,0,2,-1
1511759461765774,4,-2,-3,1,-3,-3,-1,-5
1511759461765774,2,0,0,-1,-2,-1,2,-1
1511759461786797,-1,0,-1,-4,-1,-3,0,0
1511759461786797,2,-2,3,-2,-1,-1,-5,0
1511759461788790,1,-1,2,1,-2,-5,1,0
1511759461788790,1,-1,0,1,1,1,-3,0
1511759461801799,-6,-5,0,-3,0,1,-1,2
1511759461801799,-6,0,1,0,-1,0,0,-3
1511759461807804,3,0,-3,2,-1,-2,0,0
1511759461807804,0,0,-7,1,-3,-1,0,-3
1511759461823815,-3,-2,-5,-3,1,-1,-5,-3
1511759461823815,0,-3,0,-1,-2,-3,-1,-2
1511759461825817,1,-1,-2,0,-2,-1,1,-1
1511759461825817,1,1,-2,-3,-2,-3,2,1
1511759461846831,-3,-3,2,-1,4,2,0,1
1511759461846831,-2,1,3,-1,0,-1,-3,0
1511759461847832,1,2,0,3,-4,1,-4,0
1511759461847832,-1,0,-3,-1,-1,-2,0,-3
1511759461860841,0,1,-4,-2,2,3,-1,0
1511759461860841,3,0,-3,-1,-2,-3,0,-1
1511759461869848,-2,3,6,0,-5,-1,-1,-4
1511759461869848,-6,-2,4,-1,0,1,-3,-3
1511759461883857,-9,-8,0,-3,-2,-1,-3,0
1511759461883857,-1,-2,-3,1,-1,-4,-1,2
1511759461885863,4,4,-1,1,0,-3,0,-1
1511759461885863,-3,-1,0,-1,1,-3,3,-2
1511759461906886,2,-5,-3,-2,-1,1,1,2
1511759461906886,2,-3,-5,-3,-4,1,-4,3
1511759461908885,0,-3,-4,-1,-4,0,2,-1
1511759461908885,0,-5,-1,-2,0,2,-3,1
1511759461920884,-3,-4,2,-6,1,-2,-1,3
1511759461920884,-3,-1,-2,2,-1,-2,1,-2
1511759461936896,0,2,1,1,-2,0,0,-4
1511759461936896,3,-2,-2,-2,-3,-1,2,-2
1511759461943912,2,-1,-5,-2,1,1,-2,-3
1511759461943912,-1,4,0,-1,0,-1,-6,-2
1511759461945902,-2,2,-2,2,-2,-3,0,-2
1511759461945902,-2,-1,-1,4,-3,2,-1,0
1511759461966929,-2,-1,-4,-3,-1,0,0,-1
1511759461966929,-1,-1,1,-3,-1,-1,-1,0
1511759461968929,-3,0,0,3,-3,-1,-5,0
1511759461968929,0,2,1,-1,0,-1,0,-3
1511759461980943,-4,0,-1,-2,-1,-1,-4,-3
1511759461980943,-4,-4,0,-2,-3,2,0,-6
1511759461988932,1,-2,5,0,-4,0,2,0
1511759461988932,0,0,-4,-4,-1,1,-2,2
1511759462003943,-1,-1,-4,-3,2,-2,0,-3
1511759462003943,-1,0,-1,-1,-1,-2,0,-2
1511759462005944,6,0,1,1,-2,1,0,1
1511759462005944,0,-1,-3,0,-2,2,0,-2
1511759462026958,-5,-4,0,1,3,-2,4,1
1511759462026958,0,-3,2,0,0,-4,0,2
1511759462027959,0,1,0,0,-4,-4,-1,1
1511759462027959,-1,0,-3,-1,1,0,1,-1
1511759462039968,-5,-1,-2,-1,-2,-1,-4,-3
1511759462039968,-3,3,0,-2,-1,2,-1,-4
1511759462048974,2,0,-1,1,-4,-1,-6,-2
1511759462048974,-3,-5,-1,-1,2,0,-3,-1
1511759462063984,-10,-4,-1,-4,1,-1,-1,0
1511759462063984,0,-1,0,-1,-1,-1,1,2
1511759462066987,5,4,0,-4,-1,-4,0,-2
1511759462066987,5,1,-1,-1,-2,1,1,-2
1511759462087002,1,0,-4,-2,1,1,1,-1
1511759462087002,0,-3,1,3,-2,-2,-3,-3
1511759462088008,2,1,-2,0,-3,-2,-1,-2
1511759462088008,-1,-1,0,-1,0,-3,-2,1
1511759462101010,-5,-2,-1,-2,1,0,3,2
1511759462101010,0,-2,-3,-1,-2,-6,-1,-1
1511759462110043,2,0,0,0,-2,-5,3,0
1511759462110043,-3,0,0,1,-2,-3,-5,-1
1511759462124039,-4,-4,0,-4,-1,1,-5,0
1511759462124039,0,0,1,0,0,1,-5,-3
1511759462126041,2,0,1,-2,-1,-1,5,-3
1511759462126041,-1,2,-4,-3,-1,-1,3,-2
1511759462147056,1,-1,-5,-2,1,1,-4,0
1511759462147056,-2,-1,-3,-3,-2,1,-4,1
1511759462148044,4,-1,-3,3,-2,0,-3,2
1511759462148044,-4,-3,-5,-1,0,-1,-1,-1
1511759462160065,0,-3,-3,-2,0,-2,-1,-2
1511759462160065,0,-2,1,-2,-3,-4,1,1
1511759462169063,0,2,4,1,-3,-1,2,0
1511759462169063,1,1,-1,0,-2,-1,-3,-2
1511759462184071,-2,-4,-6,-3,-1,1,-4,-2
1511759462184071,-5,-2,1,0,-1,2,0,-2
1511759462187099,-3,1,2,2,-3,-1,-1,-1
1511759462187099,-3,-2,1,-2,1,1,0,2
1511759462207086,0,-2,-2,-4,3,-4,-5,1
1511759462207086,4,1,1,-2,0,0,1,1
1511759462208086,2,-1,-1,1,-3,-1,8,-3
1511759462208086,4,-1,0,-2,-2,-3,-1,-4
1511759462220095,-3,0,1,0,-2,0,-3,-1
1511759462220095,-1,0,0,1,-4,-2,-3,0
1511759462229103,0,1,1,2,0,-4,-2,-1
1511759462229103,-3,-6,-2,-1,2,0,-1,3
1511759462244112,-7,-4,-5,-3,1,-2,-2,-1
1511759462244112,-4,-3,-1,0,-1,-2,-3,-1
1511759462247114,0,3,-1,0,-3,1,-4,-1
1511759462247114,-2,1,-1,-4,-1,0,-3,1
1511759462267129,-1,1,2,-5,2,1,4,-4
1511759462267129,0,-3,-3,2,-1,-2,0,-3
1511759462268129,2,1,-1,3,1,0,-8,-4
1511759462268129,0,-3,-3,0,-4,-1,-2,-2
1511759462289163,-2,-2,1,-1,1,-1,1,1
1511759462289163,1,4,1,2,-3,-2,5,-1
1511759462291145,-2,2,2,-1,-4,-3,2,-3
1511759462291145,0,0,-4,-1,2,-2,-1,-1
1511759462304155,-1,-5,-4,-3,1,-2,-2,1
1511759462304155,1,-1,-1,-3,-1,-4,-5,1
1511759462306166,2,-6,-1,1,-4,-1,-5,2
1511759462306166,0,0,1,-2,-2,2,0,-2
1511759462327180,-4,-1,-2,-5,-1,4,3,0
1511759462327180,-3,1,-1,4,-2,-2,1,-3
1511759462329172,-1,2,-1,2,-1,-3,0,-3
1511759462329172,-3,2,-1,-5,-3,-1,-1,1
1511759462349187,0,-4,-4,-2,0,-1,-5,0
1511759462349187,2,-4,1,-1,-1,-3,-2,-1
1511759462352189,1,0,2,0,-4,-1,-6,-4
1511759462352189,-2,-2,-3,0,2,-1,-2,-2
1511759462364198,-2,0,-1,-1,-2,1,-2,0
1511759462364198,0,-3,-1,-1,-2,-1,5,0
1511759462366208,2,-3,-5,2,-2,-2,4,1
1511759462366208,-3,-1,-3,2,-1,1,-1,0
1511759462387227,-1,-1,-2,-2,0,1,-5,-2
1511759462387227,2,0,3,0,-3,-2,-2,-4
1511759462388217,1,0,1,0,-1,-1,0,0
1511759462388217,-1,-6,0,-2,-2,0,0,1
1511759462409229,0,-2,-2,-2,0,-2,-2,-4
1511759462409229,-4,-1,-2,1,-4,-1,-3,-2
1511759462411230,1,2,-5,1,-3,-1,-2,-1
1511759462411230,1,4,-4,-2,0,-2,-1,-4
1511759462424251,0,2,3,-1,-3,-1,-2,0
1511759462424251,-1,1,1,-5,0,-3,-2,1
1511759462426253,-4,2,1,0,-1,3,-2,-1
1511759462426253,-6,0,-1,-5,0,-2,2,2
1511759462446268,-4,-4,-3,-3,0,-4,3,-1
1511759462446268,2,1,4,0,-3,-3,1,1
1511759462448258,3,0,-3,0,-3,-1,-1,-1
1511759462448258,-3,-5,-3,-2,1,0,-4,-5
1511759462469271,-4,-4,-2,-3,1,-1,0,-3
1511759462469271,0,0,-4,-2,-1,-2,-3,1
1511759462472274,1,-2,2,-2,-1,1,-1,-2
1511759462472274,-2,-1,-2,-3,0,2,1,0
1511759462483293,-4,-4,-4,-1,1,-1,2,-1
1511759462483293,2,-5,-5,0,-1,-4,0,-1
1511759462490295,5,-3,-1,-1,-4,-2,-2,-1
1511759462490295,-3,-2,3,0,1,0,-3,-1
1511759462506309,-3,-2,2,0,-1,-1,0,-1
1511759462506309,-3,3,1,1,-3,-4,1,-3
1511759462508311,0,0,3,0,-3,-4,1,-1
1511759462508311,0,1,-4,0,1,-1,-2,1
1511759462529330,-2,-1,-3,-2,3,0,-3,-2
1511759462529330,-1,-1,1,1,0,0,-1,-2
1511759462530324,-1,0,-1,3,-2,-1,-3,-1
1511759462530324,-3,-3,2,0,0,1,-2,-2
1511759462542332,1,-3,0,-1,-1,0,-1,0
1511759462542332,3,-3,-5,-1,-2,-3,0,-2
1511759462551329,-1,0,0,1,-2,-3,1,2
1511759462551329,-2,-2,-6,-2,-1,1,3,1
1511759462566339,-2,2,0,-4,-2,-1,-2,-1
1511759462566339,0,0,5,-3,-2,1,-1,1
1511759462567340,2,-2,-1,-2,0,-2,-3,1
1511759462567340,1,-2,-2,-2,0,-1,-5,-4
1511759462588356,-3,-2,0,-2,1,1,-2,-2
1511759462588356,-5,1,-2,-1,-5,0,2,-5
1511759462589356,-1,2,-3,-2,-2,-3,-4,-2
1511759462589356,-1,-1,-4,-3,-1,-4,-3,-1
1511759462603366,-2,-1,-1,0,-1,-2,-1,2
1511759462603366,2,-2,1,3,-4,-1,1,3
1511759462611371,-2,-1,2,0,-2,1,1,-2
1511759462611371,-2,-1,-2,-5,2,2,0,-5
1511759462626389,-2,0,1,-3,-2,-1,1,-5
1511759462626389,3,1,-2,0,-1,-5,-4,-3
1511759462627395,1,1,-2,6,-4,-3,1,-1
1511759462627395,-2,-1,-1,0,-2,1,-1,3
1511759462648411,-4,0,-2,-4,0,0,2,2
1511759462648411,2,0,0,0,-3,1,2,0
1511759462649411,2,1,-4,0,-2,1,1,-1
1511759462649411,-3,-3,-2,-4,2,-1,-4,-1
1511759462662419,-2,-2,-1,1,3,-2,1,1
1511759462662419,-2,0,4,-1,-2,-4,-3,-2
1511759462671434,-2,2,-3,-2,-2,-2,-2,1
1511759462671434,-3,-3,-2,0,-1,-3,1,-2
1511759462686424,0,-2,-4,-2,-3,0,-1,-1
1511759462686424,3,-4,0,-2,-1,-1,-2,-3
1511759462686424,2,-4,3,0,-2,-1,-2,-3
1511759462686424,-6,-5,-2,-1,0,2,-4,2
1511759462708450,-2,-2,-2,0,0,-1,-4,4
1511759462708450,-1,0,-1,1,-3,-2,3,-1
1511759462710451,-2,-1,-2,0,0,-1,5,-3
1511759462710451,-1,-3,-4,-2,2,1,4,-3
1511759462722455,-3,0,0,-1,1,-2,-2,-2
1511759462722455,0,3,0,-1,-1,-3,-2,0
1511759462731466,3,4,0,3,-3,-4,-3,-3
1511759462731466,1,0,-2,2,-1,-1,-4,-1
1511759462745466,-1,-4,-3,-5,0,-1,-6,1
1511759462745466,3,-3,2,0,-4,0,-3,2
1511759462746466,0,-3,1,-2,-1,0,4,0
1511759462746466,-5,0,1,-4,0,1,0,1
1511759462768482,-6,1,1,-1,-1,0,-1,-1
1511759462768482,0,5,-1,1,-2,0,-1,-5
1511759462769484,0,3,-3,2,-1,0,1,-1
1511759462769484,-3,0,-4,-2,1,-1,0,0
1511759462782505,-4,-4,-3,-3,1,-4,3,0
1511759462782505,-1,-2,-2,-1,-3,1,-3,-2
1511759462791510,0,-1,0,-2,-2,1,1,-1
1511759462791510,-1,-3,1,-4,0,0,-2,1
1511759462806509,0,-5,-1,-1,0,0,-3,-2
1511759462806509,0,2,-1,1,-3,1,-3,-2
1511759462807511,3,2,-4,0,-3,-3,-7,0
1511759462807511,-3,-1,-2,-1,1,0,2,2
1511759462828534,-1,-5,1,-2,-3,-2,2,0
1511759462828534,3,-3,3,1,-3,-2,2,-4
1511759462829535,-2,0,3,-2,-2,1,3,-4
1511759462829535,-4,3,-4,-2,-1,0,-3,-2
1511759462842544,-5,1,-5,-2,-1,0,-5,0
1511759462842544,1,1,-3,1,-1,-4,0,-1
1511759462858555,3,-2,0,-2,-1,-2,-1,-2
1511759462858555,-1,-6,0,-3,2,-1,0,-4
1511759462865561,-7,-1,1,-3,-1,1,-1,-2
1511759462865561,0,3,0,0,0,-4,-3,1
1511759462866574,1,1,1,1,2,-1,0,1
1511759462866574,0,0,-2,-2,1,-1,1,-2
1511759462888577,1,-5,0,-3,-2,-1,-5,-3
1511759462888577,-2,0,4,0,-3,-3,-1,-1
1511759462889578,-1,-3,-5,-2,-1,-2,-1,1
1511759462889578,1,-2,-4,-4,1,2,-3,-1
1511759462902586,-4,-2,-4,-2,0,-5,0,2
1511759462902586,4,-1,-4,-1,-3,-3,0,-2
1511759462910592,3,-4,-3,-1,-4,1,-3,-2
1511759462910592,-5,-4,-4,0,1,1,-3,2
1511759462925603,1,-3,1,1,1,1,6,-4
1511759462925603,2,2,2,0,-3,-3,2,0
1511759462926594,-1,2,3,-2,-1,-2,-6,-2
1511759462926594,-1,-1,-5,-2,0,0,-3,1
1511759462948622,-3,0,-1,-2,1,-2,-4,-2
1511759462948622,0,4,0,2,-2,-1,3,-2
1511759462949623,-1,2,-1,0,-2,0,-2,0
1511759462949623,-3,1,2,-5,1,0,1,-1
1511759462962629,1,3,1,-3,-1,1,-4,-2
1511759462962629,1,-2,-4,0,-2,-1,0,0
1511759462970635,-3,-1,-2,2,-2,0,2,2
1511759462970635,-4,-6,0,-1,-1,0,4,-2
1511759462986639,-3,-2,-2,-2,-1,-1,-3,0
1511759462986639,1,-5,4,2,-3,-1,-2,-2
1511759462986639,1,-3,0,0,-2,-6,-2,-3
1511759462986639,-1,-4,-3,-5,2,-3,-3,1
1511759463008652,2,3,-3,0,-3,-2,3,-4
1511759463008652,0,-1,1,1,-6,1,-3,-3
1511759463009653,-1,1,0,0,-2,0,0,-1
1511759463009653,-4,-1,-2,-5,2,0,1,-3
1511759463022661,0,-1,-2,-1,-2,0,0,-1
1511759463022661,2,-1,-2,4,-1,-4,-3,-5
1511759463030679,2,0,-6,-1,-3,-1,-4,-4
1511759463030679,-2,1,-2,-5,-1,0,-4,-1
1511759463045690,-2,-1,-1,1,-1,-2,-5,2
1511759463045690,-1,-2,4,2,-1,-1,-1,-2
1511759463046678,-4,0,1,2,-1,0,1,-3
1511759463046678,-6,-4,-3,-2,1,-1,0,-2
1511759463068707,-1,0,0,-2,0,-2,-1,2
1511759463068707,1,1,2,0,-3,-2,2,1
1511759463069696,-1,0,-2,1,2,0,-3,-1
1511759463069696,-3,2,-6,-2,-2,-1,-4,1
1511759463082722,-3,-1,0,-1,0,0,-2,-1
1511759463082722,1,-2,5,-3,-3,-6,-2,-2
1511759463090709,2,-1,1,-1,1,0,-1,-1
1511759463090709,-1,-5,-3,-1,1,1,-2,-2
1511759463105721,-1,-5,-4,-3,0,-3,1,-2
1511759463105721,4,1,-1,2,-5,1,0,2
1511759463106736,-1,-3,-2,-5,0,0,-1,-2
1511759463106736,-3,-4,-3,-2,1,1,-4,2
1511759463128753,-2,0,-5,-4,1,-2,-1,2
1511759463128753,1,-1,-1,-1,-1,-3,3,-2
1511759463129752,0,-2,0,2,-1,-3,2,0
1511759463129752,-2,0,-4,1,0,-1,3,-3
1511759463142747,-1,-2,2,-3,-2,-3,-4,-1
1511759463142747,0,3,-1,0,-2,-3,0,-1
1511759463150764,2,2,-1,-2,-3,0,-2,0
1511759463150764,-6,-5,-3,-3,2,2,2,-1
1511759463165775,-5,-7,1,-1,1,1,2,0
1511759463165775,0,-2,2,2,-3,-2,-6,-2
1511759463166769,0,0,-1,-1,-3,1,-4,-5
1511759463166769,-4,-1,-8,-2,1,-1,-5,-1
1511759463188791,1,-1,-1,-1,-3,-4,-1,0
1511759463188791,2,-2,2,0,-3,-4,1,-1
1511759463188791,1,1,4,-3,2,-2,2,2
1511759463188791,-1,-5,3,-2,1,1,2,-1
1511759463211795,-1,0,1,2,-2,-1,0,3
1511759463211795,-5,6,-2,2,-3,-3,-3,-2
1511759463212796,0,2,-3,1,-4,-2,-2,0
1511759463212796,-2,-4,-5,-4,1,2,-2,-2
1511759463225817,0,-5,-1,-1,0,1,0,-1
1511759463225817,4,-2,-1,1,-2,1,1,-2
1511759463226806,-4,-1,0,0,-1,-1,-2,-2
1511759463226806,-6,-1,1,-4,-1,-2,-3,0
1511759463248832,-4,-2,1,-3,-2,-3,-5,-4
1511759463248832,-2,-2,1,3,-2,-1,-2,1
1511759463248832,4,1,1,2,1,0,2,0
1511759463248832,1,-1,1,0,2,0,0,-1
1511759463271851,1,0,0,-1,0,-1,5,0
1511759463271851,2,4,-1,0,-2,-2,1,-1
1511759463272852,-3,0,-5,0,-2,-1,2,-2
1511759463272852,-2,-2,-2,-2,-1,-1,-1,2
1511759463286864,-1,-2,-1,-1,-3,0,-2,1
1511759463286864,0,-2,-1,2,-5,-4,0,-3
1511759463286864,-1,2,-2,0,-1,-1,-4,-3
1511759463286864,-3,-3,-5,-2,0,-1,-5,-2
1511759463308880,-3,5,-4,-2,-3,0,-3,1
1511759463308880,1,2,-1,2,-3,-1,-3,-1
1511759463309876,-3,-4,-1,-1,-4,0,2,-1
1511759463309876,-6,-4,-2,-6,1,-1,-3,-2
1511759463331892,1,-1,-4,-1,-3,-1,1,-2
1511759463331892,1,3,2,1,-3,-4,-2,-2
1511759463332893,2,-2,1,-1,-3,-1,2,1
1511759463332893,0,-5,-2,-1,0,0,1,1
1511759463345902,2,-1,-1,0,-1,-1,-1,-3
1511759463345902,1,1,-2,2,-2,-3,1,-2
1511759463346902,-1,0,-3,0,0,-4,-5,-3
1511759463346902,-6,-2,-1,-5,1,-1,-3,0
1511759463368921,-5,-4,-3,-6,0,-2,-3,-2
1511759463368921,1,1,1,2,-3,2,-4,-1
1511759463370908,4,-4,0,-3,-2,2,-2,-1
1511759463370908,-2,-1,0,-4,0,1,4,-1
1511759463391932,-2,-1,3,-2,1,0,-1,-3
1511759463391932,-1,0,1,-1,-4,-3,4,-2
1511759463391932,1,2,-1,2,0,-2,1,0
1511759463391932,-1,4,-1,-1,0,0,-5,-2
1511759463405932,2,0,1,-2,-1,-3,-1,1
1511759463405932,3,-1,-2,3,-1,-2,-4,1
1511759463407933,-2,0,-2,-1,0,2,-1,-1
1511759463407933,-1,-1,-3,-2,1,2,-3,1
1511759463428948,-3,1,-2,-1,0,0,-2,-1
1511759463428948,3,-1,-1,1,-4,-2,2,0
1511759463428948,0,1,-2,-4,-1,-2,1,0
1511759463428948,-4,-1,-4,-4,1,1,-3,-1
1511759463451977,0,-3,4,-3,-3,0,-2,-5
1511759463451977,4,-3,-1,5,-2,1,-4,-4
1511759463451977,-2,-2,0,0,-3,0,-3,-1
1511759463451977,-4,-3,4,-1,3,-3,1,2
1511759463465975,-3,-3,1,3,-2,-1,1,-1
1511759463465975,-1,2,2,0,-3,-2,-1,-5
1511759463466990,-4,-1,0,-2,-1,1,-3,2
1511759463466990,-3,-2,-5,-6,-2,1,-3,1
1511759463488992,-2,-3,-1,-2,3,-1,-3,-1
1511759463488992,0,1,-1,-2,-2,-1,0,-2
1511759463488992,0,1,-6,-1,-2,-3,-1,0
1511759463488992,-1,0,-6,-2,-1,-4,0,3
1511759463512007,-1,-4,-8,3,-4,-3,0,4
1511759463512007,5,-1,0,-1,-4,-2,2,-1
1511759463512007,1,1,1,0,2,-2,0,-2
1511759463512007,-1,-2,-1,-2,1,2,-4,-1
1511759463526029,-1,-3,0,1,0,-2,-3,0
1511759463526029,0,-1,-3,3,-4,-3,1,-2
1511759463527030,-2,-1,-4,1,-3,0,4,-1
1511759463527030,-5,-2,1,-3,1,2,4,-2
1511759463549034,0,2,2,-2,0,2,0,-3
1511759463549034,3,4,1,-5,-4,-1,-6,1
1511759463549034,2,-2,2,0,1,-1,-6,1
1511759463549034,-6,-5,-4,-3,-1,1,-8,0
1511759463572050,-3,-5,2,0,-1,-1,-1,0
1511759463572050,3,0,3,4,-2,-4,4,-1
1511759463572050,1,1,-4,-2,-2,-3,1,-4
1511759463572050,-3,0,-1,-4,2,0,-1,1
1511759463586061,-1,-1,1,-4,-2,-1,5,-1
1511759463586061,3,3,4,2,-4,-1,0,-3
1511759463587076,0,-1,-2,2,0,1,-2,-3
1511759463587076,-5,-6,-6,-1,2,-1,-2,-2
1511759463608092,-5,-5,-5,-2,1,-1,-3,3
1511759463608092,-2,-2,1,-1,-3,-1,-3,-2
1511759463610086,-2,-1,0,-3,-1,-1,-2,1
1511759463610086,-1,0,-3,-4,-3,0,1,-1
1511759463632104,2,2,-3,2,-1,-1,-1,-1
1511759463632104,3,-2,-5,1,-3,-2,-4,2
1511759463632104,2,-2,-8,0,-1,2,-4,-1
1511759463632104,-5,-1,-5,-4,2,2,0,-2
1511759463646114,-4,0,-2,-1,-1,0,-2,-2
1511759463646114,0,-1,4,0,-3,-1,3,1
1511759463647115,-2,-3,3,-3,-2,-2,-3,-3
1511759463647115,-3,-6,1,-4,3,0,-1,0
1511759463668118,-3,-2,-4,1,0,-3,0,-1
1511759463668118,-1,3,1,1,-3,-4,0,-2
1511759463669126,0,-1,-2,0,-3,-2,-3,0
1511759463669126,2,-3,-2,-3,1,-1,-3,-2
1511759463692134,2,2,1,-4,-2,-1,-1,0
1511759463692134,2,-4,-2,-1,-4,0,2,0
1511759463692134,0,-1,-1,-1,-5,0,1,-1
1511759463692134,-1,1,0,-1,-1,-2,-3,-3
1511759463706155,1,2,2,-2,-1,-4,-1,0
1511759463706155,3,3,-2,-1,-2,-3,3,0
1511759463707155,-6,2,-2,1,0,0,3,-1
1511759463707155,-7,-3,-3,-1,2,1,-4,-2
1511759463728169,1,-5,-2,0,-2,-1,-2,0
1511759463728169,1,0,2,0,0,0,-1,-2
1511759463729160,-3,-4,-4,-4,-1,3,-1,-2
1511759463729160,-2,1,-6,-2,-1,2,0,-1
1511759463752181,-1,2,-2,1,-2,1,0,-2
1511759463752181,0,1,3,2,-2,-5,-3,-1
1511759463753177,-2,0,0,0,2,-6,1,2
1511759463753177,-2,-5,0,0,2,-1,2,2
1511759463766196,3,-6,2,2,-4,-2,-2,2
1511759463766196,1,0,-2,-8,-3,2,2,-3
1511759463767197,5,-1,-1,-6,-3,0,0,-1
1511759463767197,-4,-1,-4,-7,0,-1,0,-3
1511759463789209,-4,1,-5,-2,-3,-4,-6,-7
1511759463789209,2,5,3,5,-2,-3,-2,-2
1511759463789209,-2,-2,-5,1,-2,-1,0,-3
1511759463789209,-2,-4,-3,-1,0,3,-3,-1
1511759463811218,-1,-1,-3,-1,-1,1,-1,1
1511759463811218,-3,2,-4,5,-3,-2,0,-1
1511759463812219,-1,0,-1,1,1,-1,-2,0
1511759463812219,-2,-5,-2,-2,0,-3,-2,1
1511759463825230,3,-2,-1,-1,-2,-2,-2,-2
1511759463825230,7,-1,0,1,-2,-1,-2,-2
1511759463834247,-2,-2,1,-3,-2,0,-1,1
1511759463834247,-3,-1,1,-1,2,-1,-2,4
1511759463849258,-2,-2,4,-8,-2,0,1,-1
1511759463849258,-2,2,-2,3,-4,-3,3,-5
1511759463850256,-3,-1,-3,0,0,-1,-2,-2
1511759463850256,-5,-2,-3,-1,-1,-2,-1,0
1511759463872263,-4,2,-1,0,1,-4,-1,1
1511759463872263,2,0,0,5,-3,-3,-3,-1
1511759463872263,-6,-4,-3,-1,-1,-3,-6,0
1511759463872263,-1,-3,-3,-5,-1,-1,-1,-1
1511759463885270,-1,-2,-1,0,2,-1,2,-1
1511759463885270,4,0,3,0,-2,0,-2,-2
1511759463894288,0,3,-2,-2,0,1,-3,-2
1511759463894288,-4,0,0,-4,3,1,1,1
1511759463908287,1,2,-2,-1,-4,-4,3,-2
1511759463908287,-2,-1,-3,0,-3,-3,-2,0
1511759463909287,1,-3,2,-4,1,-2,-2,4
1511759463909287,0,-6,-3,-2,0,-1,-2,1
1511759463931318,-2,-1,1,-3,-3,1,-1,-1
1511759463931318,0,0,-1,8,-1,1,0,-2
1511759463932304,0,-2,-5,-5,-4,0,1,-4
1511759463932304,-3,0,-5,0,-1,-1,-1,-1
1511759463945313,-2,1,-1,-2,-1,1,2,1
1511759463945313,2,1,3,-1,-1,-3,-2,-4
1511759463953321,4,-2,0,-2,0,-2,-1,-3
1511759463953321,-7,-3,4,-2,1,-3,-1,1
1511759463968329,-5,-3,5,0,-3,-1,-2,0
1511759463968329,-1,-1,2,1,-1,-2,2,1
1511759463969330,2,0,-1,1,-3,1,0,1
1511759463969330,0,0,-1,-3,-1,2,-2,-2
1511759463991354,0,-1,-4,0,0,0,-2,-2
1511759463991354,0,2,-5,1,-2,-1,1,-3
1511759463993353,-4,-1,-4,1,-1,-1,3,1
1511759463993353,-1,-1,-3,-2,2,0,0,-4
1511759464005355,-3,1,2,3,-3,-3,-7,-1
1511759464005355,0,-3,0,-10,-5,-4,-1,0
1511759464013360,2,-2,-3,6,-3,-3,-8,1
1511759464013360,0,-5,-5,-11,4,2,-2,0
1511759464028371,0,-1,-7,-10,-2,1,-1,0
1511759464028371,1,-1,-4,4,-3,1,-1,-3
1511759464029372,-4,1,-3,6,2,0,2,-3
1511759464029372,-7,-3,-4,-10,1,1,4,0
1511759464051400,0,-4,7,2,-2,-3,-1,2
1511759464051400,1,0,-6,-3,-5,-4,-2,-1
1511759464053390,-5,1,0,-1,4,3,2,0
1511759464053390,4,0,1,0,-3,-4,-1,2
1511759464065410,4,1,2,-2,-3,-1,0,-5
1511759464065410,5,2,4,-1,-4,-1,-2,-5
1511759464073415,-9,-5,-1,-4,-3,-4,0,-5
1511759464073415,-1,-3,-1,1,1,-4,-4,-1
1511759464088419,-6,-2,2,3,0,-3,-1,1
1511759464088419,2,4,2,2,-2,-2,-3,2
1511759464089423,3,1,10,3,0,3,-3,-3
1511759464089423,-7,-4,-6,-10,1,0,-4,-3
1511759464111436,-2,-4,-13,7,-2,-3,0,-1
1511759464111436,1,-3,0,-7,-1,1,2,-3
1511759464112431,3,-4,8,-1,-1,-2,-3,1
1511759464112431,-3,-1,-22,4,4,0,-3,-1
1511759464125452,-3,6,11,3,-2,-3,-1,-4
1511759464125452,14,1,-8,-17,0,0,1,2
1511759464133458,-10,-1,-14,-6,1,-2,0,0
1511759464133458,12,-1,9,-6,1,-2,1,1
1511759464148473,-11,5,27,12,-2,-1,3,0
1511759464148473,-10,-6,6,9,-3,-2,0,-2
1511759464149469,12,-2,-11,-6,-1,-2,-3,-1
1511759464149469,-15,-12,-6,2,-3,-1,1,-2
1511759464171479,2,0,-2,-4,-2,1,1,0
1511759464171479,-3,8,21,10,1,3,-2,4
1511759464172473,1,-1,-8,-5,1,-1,0,0
1511759464172473,-4,1,-7,-2,-3,1,-2,-2
1511759464194489,3,3,-2,-1,-2,-2,-3,-3
1511759464194489,1,-4,-9,0,-6,-1,1,-2
1511759464194489,-4,-5,-2,-4,1,2,-1,-3
1511759464194489,-4,-2,4,-1,0,-2,-1,2
1511759464208499,8,-2,2,1,-3,-3,-4,1
1511759464208499,-7,-4,0,3,-3,-1,-2,0
1511759464209513,-2,1,0,-4,2,-1,3,0
1511759464209513,-3,1,2,-3,1,-1,-1,-4
1511759464231514,5,-5,-9,-2,0,-3,-2,0
1511759464231514,2,-1,0,6,-1,-3,-1,-1
1511759464232515,-5,-3,-3,-1,0,0,-1,0
1511759464232515,0,-4,-5,-11,1,1,-3,0
1511759464254531,7,2,-5,-5,-1,-1,3,-4
1511759464254531,-2,-4,-7,-1,0,0,-4,-3
1511759464254531,-18,-1,7,0,0,3,0,-4
1511759464254531,6,1,6,2,-1,0,1,-1
1511759464268551,-2,-1,4,-1,-3,-2,1,-1
1511759464268551,-3,1,-10,-1,0,-2,-2,-1
1511759464269559,6,-3,-3,-4,-1,-1,-3,0
1511759464269559,-5,-2,8,3,0,-3,1,-1
1511759464291558,6,2,-4,-1,-1,-2,2,0
1511759464291558,-1,-1,-9,1,-5,-4,1,-2
1511759464292558,-3,-3,-4,-5,0,-1,-4,1
1511759464292558,-5,4,10,7,0,2,-5,1
1511759464314574,-5,-7,-34,-12,-2,0,-3,0
1511759464314574,-3,1,2,-2,-5,-6,0,0
1511759464314574,-5,2,-1,0,1,4,2,0
1511759464314574,17,-8,-6,-7,-2,0,2,-3
1511759464328585,-21,-2,7,5,-4,1,-1,-5
1511759464328585,3,-10,-8,0,-1,-3,-4,-4
1511759464329585,13,5,5,0,2,-4,-2,-1
1511759464329585,-20,6,-8,2,0,0,-1,2
1511759464351600,1,-1,0,-3,-5,-2,-2,-1
1511759464351600,9,3,-9,10,1,1,0,4
1511759464352600,-9,-3,5,-18,-2,2,-2,-1
1511759464352600,1,0,6,-1,1,1,-6,-3
1511759464374629,6,-1,-1,-6,-2,-4,0,-3
1511759464374629,1,1,5,2,0,0,1,-2
1511759464374629,2,-4,-1,5,-1,-1,-1,5
1511759464374629,-17,-6,6,-7,1,-3,4,-1
1511759464388627,-8,-4,-4,5,-2,-2,-1,-5
1511759464388627,10,4,-17,-9,-3,-4,1,-4
1511759464389628,-22,1,-5,3,1,0,1,-5
1511759464389628,13,2,-5,-3,-1,-1,-1,0
1511759464412643,-13,-1,14,4,-2,1,0,2
1511759464412643,-5,1,4,-1,-2,-2,-2,-1
1511759464413644,3,-2,-7,3,0,0,-3,-2
1511759464413644,1,-1,-5,0,1,-2,-2,0
1511759464434674,10,6,18,2,-1,-3,0,0
1511759464434674,-12,-3,-8,-2,1,1,-2,0
1511759464434674,9,-7,-24,-13,-2,-3,-2,0
1511759464434674,-3,-3,20,4,-2,-2,-2,-1
1511759464448680,-1,-6,-24,-8,0,-1,0,1
1511759464448680,0,-2,-14,4,-1,2,-2,-3
1511759464449681,-2,-3,8,1,1,1,-2,1
1511759464449681,1,-1,2,-2,0,-4,-6,0
1511759464471686,-12,-5,-28,-3,-5,-6,-3,-6
1511759464471686,-3,5,17,2,0,-1,6,0
1511759464472685,20,6,1,0,3,0,3,0
1511759464472685,-3,4,-3,-5,1,2,3,-4
1511759464493710,-20,-6,19,7,-3,1,-1,-4
1511759464493710,14,4,1,-4,-4,-1,1,-2
1511759464494704,-15,-7,-14,0,1,1,-4,-2
1511759464494704,12,-4,0,-1,-2,-3,-1,4
1511759464508710,18,5,8,2,-2,-4,0,3
1511759464508710,1,-1,3,3,1,2,1,0
1511759464509711,-7,1,11,0,1,0,0,1
1511759464509711,-3,-6,-8,-2,2,0,-2,1
1511759464531727,13,4,-14,2,1,-2,0,-2
1511759464531727,1,-1,18,5,-2,-1,-3,-2
1511759464532727,0,-4,-2,-5,3,0,-1,-4
1511759464532727,6,1,-1,-1,-2,0,-1,4
1511759464554745,-4,-6,16,-1,-5,-1,3,2
1511759464554745,7,5,3,-1,-4,-1,0,0
1511759464555754,-9,8,5,0,2,4,2,-2
1511759464555754,-15,-10,-11,-10,-2,3,-3,-3
1511759464567752,2,-4,1,0,-3,-6,-7,-4
1511759464567752,22,-2,-2,-3,0,-3,-4,1
1511759464576768,-12,-4,11,4,0,-3,-4,0
1511759464576768,-4,6,-4,-1,-2,-4,2,-3
1511759464591769,-1,-4,-2,3,-4,-2,2,-4
1511759464591769,-10,0,12,-3,-3,-2,-1,-4
1511759464592770,3,3,-6,-5,0,-1,0,2
1511759464592770,-13,-1,-4,-1,2,-1,-3,-3
1511759464613784,13,5,4,6,-2,0,0,3
1511759464613784,-18,-4,-8,-1,-4,-2,0,-4
1511759464615786,13,-2,-4,-12,0,2,-3,2
1511759464615786,18,0,-3,-2,-4,-3,-5,1
1511759464627795,-2,1,7,1,-1,3,1,-1
1511759464627795,0,-5,-16,-3,-2,-2,0,-2
1511759464636812,-4,-7,-10,5,-1,1,0,2
1511759464636812,-20,-7,4,-10,-2,-4,3,-3
1511759464651813,25,4,1,-1,0,-2,-3,-1
1511759464651813,-9,3,4,7,0,-1,-3,-1
1511759464653818,-14,-8,-17,-8,-1,0,0,0
1511759464653818,7,-3,-2,1,4,1,-2,-3
1511759464673827,-1,-3,2,7,-4,-4,-1,-1
1511759464673827,7,3,6,-9,1,1,-1,5
1511759464675828,-3,-1,14,1,1,-2,-10,-1
1511759464675828,-6,1,-2,-1,-2,2,-1,3
1511759464687840,6,5,-1,-11,-5,3,4,-1
1511759464687840,-11,2,1,5,-1,-2,-1,-3
1511759464697844,-5,-11,1,-4,1,0,3,0
1511759464697844,4,4,-4,-5,-3,-5,1,0
1511759464711854,8,3,-9,5,-4,-4,-1,-1
1511759464711854,2,-2,-3,-2,-2,-1,0,-3
1511759464712855,0,0,-8,-6,3,0,-5,0
1511759464712855,-8,-6,6,0,0,-3,-5,-4
1511759464733869,-18,-1,1,3,-2,-1,-4,-2
1511759464733869,2,0,0,-2,-4,-3,-1,-3
1511759464736872,5,-1,-5,-1,1,0,-5,-5
1511759464736872,-3,-4,-5,2,-1,2,3,0
1511759464747879,1,1,2,-3,-3,-2,-3,-5
1511759464747879,-13,3,3,1,1,1,-1,2
1511759464756886,1,-6,7,4,2,-2,-5,-1
1511759464756886,2,-3,-5,-2,0,-1,0,0
1511759464771896,6,-2,4,-7,-3,-3,5,-1
1511759464771896,-9,4,-5,2,0,0,0,0
1511759464772897,0,-7,5,4,0,-3,5,0
1511759464772897,-4,-6,-5,-3,-3,-3,-2,-1
1511759464793912,2,1,0,0,-2,0,3,-1
1511759464793912,7,1,4,0,1,4,-1,2
1511759464795913,-14,7,-2,4,0,1,-3,-3
1511759464795913,0,4,-8,0,2,4,2,3
1511759464807922,-2,-1,6,-4,-1,-1,-4,-3
1511759464807922,-1,-3,2,4,-2,-3,2,-3
1511759464816928,25,1,-6,-5,-4,-5,4,-2
1511759464816928,-3,-15,-1,0,0,-1,-2,0
1511759464831939,8,11,-3,3,-1,-5,-4,-4
1511759464831939,-6,0,6,-4,-3,-2,-6,-6
1511759464832940,-3,8,-3,-2,1,0,-6,0
1511759464832940,4,-6,-1,-1,-4,-7,-6,-6
1511759464853956,0,4,-3,-3,-5,-2,0,0
1511759464853956,-4,-11,-8,5,-1,-1,3,3
1511759464855957,-12,-3,-6,-8,2,0,1,2
1511759464855957,-7,-1,1,-6,1,3,1,-1
1511759464867967,-20,0,3,4,-1,-2,-2,1
1511759464867967,32,-3,-5,1,-6,-7,-8,-7
1511759464876970,-8,-2,5,-3,2,1,1,5
1511759464876970,-39,-2,-20,-4,1,-4,-6,1
1511759464891981,9,-3,18,6,-5,-3,-3,-3
1511759464891981,-12,-4,-7,-10,-2,4,6,-3
1511759464892982,-6,3,-14,-8,0,0,-3,1
1511759464892982,4,6,7,0,-2,1,1,-4
1511759464913997,12,0,-4,5,0,0,1,3
1511759464913997,-4,6,-3,2,0,-1,3,5
1511759464915998,-8,-7,0,-1,0,1,-7,-7
1511759464915998,20,5,5,-9,-3,-2,-1,-2
1511759464928007,-1,5,-4,-1,1,2,0,0
1511759464928007,-10,-25,0,0,-5,-4,-8,-7
1511759464937015,-2,-5,-16,-15,0,-1,1,-3
1511759464937015,-3,6,14,12,3,1,5,-1
1511759464952023,8,1,-5,-2,2,1,11,4
1511759464952023,18,3,-4,-1,-6,-8,-12,-9
1511759464953024,-15,-5,-15,0,-1,2,2,3
1511759464953024,2,-1,-3,-5,-1,-1,-4,-2
1511759464974039,16,-11,-2,5,-6,0,1,-4
1511759464974039,-11,11,4,0,2,4,6,1
1511759464976040,3,-9,-17,-18,-2,-1,-9,-2
1511759464976040,32,7,9,-4,3,0,1,5
1511759464988049,0,0,-1,6,-4,-4,-1,0
1511759464988049,6,3,-1,-8,3,1,0,1
1511759464998056,-32,-3,11,6,3,1,-3,0
1511759464998056,-22,-11,-4,15,-4,-3,-7,2
1511759465012066,20,3,9,-4,-2,-4,-7,-8
1511759465012066,-24,7,11,-7,-1,0,6,4
1511759465013071,-1,-3,-14,-2,3,0,9,2
1511759465013071,-33,-17,-2,1,0,-3,4,-3
1511759465034082,24,5,-4,-1,-6,-4,-7,-3
1511759465034082,-6,11,-4,8,-4,-4,-12,-5
1511759465036083,-5,18,9,-6,7,5,-2,7
1511759465036083,-4,-15,6,5,-3,-3,3,1
1511759465048091,-42,5,-10,-10,-6,-1,-3,-3
1511759465048091,31,-18,-8,-10,2,1,3,-1
1511759465063115,-11,-24,1,4,-5,-6,-6,-9
1511759465063115,67,41,7,-2,-2,0,1,3
1511759465072108,-25,-33,-2,1,-6,-4,1,-3
1511759465072108,10,12,-3,7,2,4,-1,-6
1511759465073110,24,12,1,1,-2,1,1,7
1511759465073110,-3,-1,-12,-11,-1,-3,-4,-6
1511759465094136,6,-4,-6,-3,-1,1,6,1
1511759465094136,-5,-13,9,0,-1,-1,5,7
1511759465096135,0,2,10,3,3,-2,3,5
1511759465096135,-21,-19,-16,-11,-6,-4,-5,-1
1511759465116154,8,26,7,8,-4,-5,-5,-17
1511759465116154,-71,-44,-14,4,1,-2,0,-9
1511759465124145,7,-2,-8,-30,-2,0,2,1
1511759465124145,-3,17,15,6,2,-1,-4,-5
1511759465132162,5,-3,11,10,-4,-3,-7,-5
1511759465132162,0,44,20,8,2,4,-1,2
1511759465133152,9,-51,-27,-8,4,5,16,22
1511759465133152,1,-11,-9,-13,-4,-9,-17,-30
1511759465154181,-22,-7,-2,3,-1,-5,-1,2
1511759465154181,31,29,6,-1,0,-4,-5,-2
1511759465156182,-25,4,0,11,3,1,-4,2
1511759465156182,31,-20,2,1,2,3,10,12
1511759465176194,4,6,0,11,-2,3,12,6
1511759465176194,-10,-22,-13,-8,-1,-1,-4,-7
1511759465178183,-3,30,12,-3,3,1,-6,-9
1511759465178183,-13,3,14,-3,1,3,0,3
1511759465191193,38,43,12,3,1,2,2,7
1511759465191193,-5,-27,-11,-3,-8,-5,1,13
1511759465193193,29,1,-16,-7,-9,-2,-9,-9
1511759465193193,-28,7,1,-4,-1,-1,0,-9
1511759465214209,-30,-46,-2,-4,-5,-4,-3,8
1511759465214209,-13,26,14,24,-6,-7,-5,-4
1511759465216210,53,22,-1,-1,3,-3,2,24
1511759465216210,-33,-29,4,12,0,3,10,23
1511759465237247,-4,6,-23,-24,-8,-9,-26,-61
1511759465237247,-1,-27,-6,-2,1,0,7,5
1511759465238229,-18,4,1,-3,1,0,-7,-24
1511759465238229,29,-15,5,-6,-1,-2,-10,4
1511759465259240,6,-12,-8,14,-6,-5,1,-4
1511759465259240,11,43,10,0,5,6,2,5
1511759465261254,-8,6,4,0,8,5,3,3
1511759465261254,-25,-8,2,2,0,2,10,9
1511759465274251,15,13,10,17,-4,-2,-7,3
1511759465274251,43,-1,-14,-26,1,1,-3,-1
1511759465276252,-6,9,3,8,1,-1,-1,3
1511759465276252,44,-11,-5,-12,-3,-1,-3,-6
1511759465296267,-51,-19,-2,8,-14,-9,-3,-3
1511759465296267,-9,2,-14,-7,6,0,6,-2
1511759465299269,30,-36,-1,1,-7,-8,-2,1
1511759465299269,3,19,-7,-1,1,-2,-2,-4
1511759465311277,-62,-14,0,-18,-7,0,2,-7
1511759465311277,-36,11,8,2,-3,-1,-6,-8
1511759465318282,39,21,1,18,-1,-1,-4,9
1511759465318282,20,1,-14,-38,4,-2,-5,4
1511759465335294,12,-6,4,20,3,3,10,21
1511759465335294,19,10,5,-3,-2,3,4,5
1511759465337295,-28,-21,-2,1,3,1,-8,-21
1511759465337295,-56,-15,-9,15,-1,3,-1,7
1511759465356311,23,25,2,-6,-3,-7,-4,-9
1511759465356311,2,-2,-7,-3,2,4,3,1
1511759465358311,-12,-37,-4,3,-1,-2,-7,4
1511759465358311,8,30,12,6,-1,1,5,-11
1511759465371321,49,18,-16,-15,2,-2,0,-2
1511759465371321,-69,-42,10,8,-4,-5,4,-4
1511759465378325,15,13,-8,1,-3,-2,0,2
1511759465378325,23,8,-3,-27,-1,2,11,-10
1511759465394336,-17,-2,5,4,0,1,-11,3
1511759465394336,57,9,2,23,-3,-1,3,20
1511759465396338,-53,-10,15,-39,4,5,-7,-39
1511759465396338,-17,-50,-29,15,-2,-5,-6,2
1511759465416351,-23,23,21,3,-2,-5,6,15
1511759465416351,-14,-18,-2,-10,0,-3,-9,-11
1511759465418353,-29,0,10,3,-1,4,3,-12
1511759465418353,15,1,-12,5,7,8,4,17
1511759465431362,10,0,5,-4,2,8,15,5
1511759465431362,5,-7,-14,-2,-9,-8,-13,-4
1511759465438368,109,-11,-5,-6,3,-4,5,14
1511759465438368,127,2,-1,4,0,-3,-3,-8
1511759465454378,106,-11,-1,9,-5,0,2,-8
1511759465454378,30,1,-12,-11,0,-8,-6,-7
1511759465455380,-32,12,-1,-13,-2,1,4,32
1511759465455380,-49,17,-4,6,-6,-3,-11,-16
1511759465477394,-56,24,2,23,-1,-2,-2,3
1511759465477394,-34,-17,-2,-11,0,2,7,14
1511759465479405,-50,14,-8,-21,9,4,-8,6
1511759465479405,-67,-32,8,10,-4,-5,-6,-22
1511759465499410,-17,1,1,1,0,2,9,8
1511759465499410,-39,12,35,5,0,1,-3,-15
1511759465501411,-37,-14,-63,-1,2,-2,6,19
1511759465501411,-17,6,6,-2,-1,-1,7,4
1511759465514420,-24,3,4,-2,7,3,8,-3
1511759465514420,11,34,11,5,3,3,3,5
1511759465515421,-14,-13,13,-1,-1,-1,-1,1
1511759465515421,-33,7,-3,6,-6,-5,-7,-13
1511759465536437,-22,-11,-13,-12,-7,-5,-3,-13
1511759465536437,-2,6,-6,2,-3,0,-2,0
1511759465538449,-4,5,25,29,5,5,5,-5
1511759465538449,-9,0,-2,-20,-6,-7,-2,-3
1511759465550446,24,2,11,-8,5,-1,-1,20
1511759465550446,19,1,-21,-10,-6,-2,-10,-17
1511759465559452,-34,-28,8,11,-7,-4,-6,-17
1511759465559452,28,4,2,-6,0,-4,3,17
1511759465574463,21,-5,0,-2,-3,-1,-2,-26
1511759465574463,-8,-7,5,9,-3,-1,1,7
1511759465575464,14,0,-9,-12,4,3,3,-8
1511759465575464,-7,4,12,9,-8,-4,-4,8
1511759465596478,16,-5,-6,-2,-4,-3,2,8
1511759465596478,-1,-4,-3,1,0,-2,0,-3
1511759465598480,4,0,-6,-10,3,-3,-9,0
1511759465598480,24,19,5,2,1,1,-1,-1
1511759465610488,-16,4,3,-3,-2,0,10,13
1511759465610488,13,2,-4,-6,-1,-1,0,1
1511759465619495,-16,-11,2,3,1,-2,-6,2
1511759465619495,5,-2,4,5,2,4,3,3
1511759465634505,-3,2,1,7,-2,1,2,0
1511759465634505,6,-4,-16,-13,2,1,2,-6
1511759465635506,22,14,3,-4,-5,-1,2,4
1511759465635506,-20,-11,11,-8,2,3,0,-14
1511759465657521,17,8,9,8,-5,-3,-3,5
1511759465657521,-5,-4,-6,-2,-1,1,-3,-4
1511759465660523,-6,-6,15,-2,3,0,-3,-8
1511759465660523,1,7,-20,0,-2,-2,-6,-1
1511759465670534,5,-2,14,5,-4,-4,-1,1
1511759465670534,8,-11,-42,-13,-2,-2,-6,1
1511759465679537,-3,8,15,-3,-1,-1,0,-12
1511759465679537,-1,-10,-2,-10,2,-4,-1,-1
1511759465694548,6,-7,-7,-11,-9,-4,2,0
1511759465694548,9,19,11,24,5,3,0,3
1511759465695549,-10,-10,-16,2,-2,-2,0,0
1511759465695549,8,27,-10,-8,-5,-2,7,20
1511759465716563,9,-24,-13,-2,-2,-3,-13,-21
1511759465716563,-12,-13,4,-7,-3,0,-3,-18
1511759465722567,-14,-9,0,-2,7,3,-1,4
1511759465722567,4,-4,0,15,0,-2,-2,0
1511759465730573,16,19,0,-4,0,-2,0,12
1511759465730573,-12,-6,1,4,-4,-7,-5,2
1511759465740580,17,-8,-11,-13,0,0,-2,2
1511759465740580,-16,-12,1,4,-4,-1,-4,-12
1511759465754590,1,7,0,-3,-1,1,-3,1
1511759465754590,9,-10,0,5,3,1,1,-1
1511759465755591,2,7,1,-4,0,0,4,-5
1511759465755591,3,-1,6,4,2,0,6,10
1511759465776606,9,17,-6,3,-6,-5,-13,-9
1511759465776606,7,8,6,18,-3,1,2,6
1511759465778608,-19,-6,-1,-26,0,-1,-3,-5
1511759465778608,2,-4,12,10,-3,-1,3,2
1511759465790615,-7,-7,-3,-5,-3,-2,-6,1
1511759465790615,0,-4,-4,8,1,0,0,4
1511759465799622,-13,10,1,4,-5,-3,-5,-21
1511759465799622,-19,-7,-25,-13,7,0,-8,-7
1511759465814642,-9,-4,-5,2,-9,-3,1,-9
1511759465814642,-1,2,15,-3,0,-2,2,3
1511759465815633,1,10,-8,-2,0,2,7,0
1511759465815633,-16,-4,12,0,-2,0,1,-3
1511759465836648,-1,-3,-11,0,-2,-3,-6,0
1511759465836648,-4,-5,1,-13,6,4,5,12
1511759465838651,20,-6,7,3,-3,-3,-2,0
1511759465838651,1,2,-3,-1,-3,-1,-4,-5
1511759465850658,-12,-11,6,-1,-2,1,3,1
1511759465850658,-5,-9,3,-3,-3,0,5,-1
1511759465866669,8,3,-7,-6,5,3,3,4
1511759465866669,13,-1,-10,1,-3,0,-1,5
1511759465873674,-20,-11,16,8,-3,-3,0,-17
1511759465873674,6,-7,-28,-7,2,3,-2,2
1511759465875676,-4,-5,-8,3,2,-1,-9,-2
1511759465875676,-8,-13,-11,0,-3,1,6,-5
1511759465896691,10,25,19,5,5,-3,-2,7
1511759465896691,-11,-17,-2,-11,0,-2,0,-3
1511759465898692,13,6,6,11,-2,0,-5,3
1511759465898692,9,1,-7,-21,-9,-5,2,2
1511759465910700,-11,-7,-8,9,-4,-7,-9,-2
1511759465910700,-1,0,7,-12,1,-1,-2,4
1511759465919707,-5,2,1,-1,1,1,0,8
1511759465919707,-4,13,22,16,-5,-4,-4,-11
1511759465933716,30,11,-19,-19,1,1,9,18
1511759465933716,14,-11,11,7,-1,-3,-12,-14
1511759465935718,-21,-23,-10,-9,1,0,0,-3
1511759465935718,8,8,27,14,6,1,-2,4
1511759465956733,-15,-9,-17,1,-5,3,7,1
1511759465956733,4,-3,-11,-5,-2,-2,-1,-2
1511759465958734,-12,-9,-4,-6,-4,-5,0,-1
1511759465958734,-4,-4,-11,4,-4,-3,-10,-6
1511759465970745,10,-10,3,-3,0,1,-4,4
1511759465970745,-7,29,0,15,0,0,1,-1
1511759465979749,1,-2,0,-17,1,-1,-2,2
1511759465979749,-16,4,-8,-9,-6,-2,8,0
1511759465993760,-15,-18,-1,14,-3,-4,2,-2
1511759465993760,2,6,-7,-13,4,2,-8,-16
1511759465995761,1,3,4,9,7,3,0,6
1511759465995761,-15,-9,3,5,-5,-5,-8,4
1511759466016775,12,1,-5,-14,0,1,2,-4
1511759466016775,3,-13,-17,7,3,-2,0,1
1511759466018777,-28,-9,-6,-1,-3,0,-4,-13
1511759466018777,10,9,5,-2,0,-1,0,7
1511759466030801,20,8,-1,6,-1,-1,4,-2
1511759466030801,-9,-26,-6,-13,-1,-3,0,4
1511759466038819,23,4,-4,-3,-2,-3,4,2
1511759466038819,9,-1,-16,-8,-3,-3,2,2
1511759466054803,-2,-3,-4,-6,-5,0,-5,-9
1511759466054803,13,14,17,13,3,2,5,5
1511759466055804,-5,3,-11,1,-8,-3,-7,-8
1511759466055804,-5,-4,7,-6,-2,-1,2,-5
1511759466076818,-17,12,6,10,2,-1,1,10
1511759466076818,-22,11,-5,-26,0,2,2,-10
1511759466077818,-2,-14,4,10,1,-2,1,1
1511759466077818,4,7,-5,8,1,-1,3,2
1511759466098846,-14,-9,-8,-9,-1,-1,-2,-10
1511759466098846,0,3,16,6,-1,3,-4,4
1511759466100847,-4,16,8,3,-1,-1,-2,-3
1511759466100847,-1,-25,-7,-21,-4,1,5,7
1511759466113856,-19,-12,-1,10,-3,-1,-10,-17
1511759466113856,31,0,-5,7,-1,-1,-4,6
1511759466115857,-9,-8,-4,1,1,-1,-3,-2
1511759466115857,24,6,2,-4,-6,-2,4,3
1511759466136860,0,12,10,-1,0,-4,1,-1
1511759466136860,-13,-11,-11,-1,-5,1,1,-1
1511759466137867,-7,1,-8,-12,-2,-2,4,2
1511759466137867,-1,6,10,10,4,0,-5,-1
1511759466158875,18,1,5,2,-4,-4,-1,-1
1511759466158875,19,5,2,-9,-2,0,-5,1
1511759466160877,-9,-11,-14,-9,-2,-3,-2,5
1511759466160877,-10,1,11,8,-3,-2,1,-5
1511759466173887,20,3,1,10,-3,1,2,-4
1511759466173887,-18,10,3,-12,7,2,-2,8
1511759466175897,7,6,17,15,0,-2,-6,-13
1511759466175897,4,-13,1,-2,-2,-1,4,10
1511759466196915,-1,0,-13,-19,-6,-2,-11,-22
1511759466196915,4,14,-8,1,0,-1,-5,11
1511759466197903,-13,1,11,-14,4,1,5,4
1511759466197903,-8,6,-6,5,-4,-3,-2,-13
1511759466218918,8,-15,9,-1,2,-4,-2,10
1511759466218918,-17,-3,0,27,0,4,7,-5
1511759466220921,7,-3,-8,-32,-3,-1,-4,3
1511759466220921,-6,-6,-6,5,-2,0,-7,-5
1511759466232927,11,9,-1,5,-1,5,14,25
1511759466232927,-36,-7,4,11,2,-2,-9,-20
1511759466239932,18,-20,-14,-9,-2,0,3,4
1511759466239932,1,7,8,15,-6,-8,-2,0
1511759466256945,14,-6,-15,-7,4,4,5,3
1511759466256945,1,26,7,-4,0,-2,3,11
1511759466258946,-39,-18,-9,0,-4,-6,-10,-13
1511759466258946,5,12,27,7,-4,-6,-8,1
1511759466278960,-25,-1,-23,-1,-3,-2,-10,-15
1511759466278960,3,-24,-7,-26,0,4,10,9
1511759466280962,-6,-2,2,30,-4,-5,-13,-5
1511759466280962,10,-5,-27,-41,-7,-2,3,0
1511759466292970,1,21,12,-8,6,4,3,6
1511759466292970,-9,-3,-1,-3,2,3,-2,11
1511759466300976,-4,2,3,-3,-5,2,-4,-7
1511759466300976,-10,12,-5,-3,-1,-1,-4,-3
1511759466316987,17,11,1,5,-2,2,3,5
1511759466316987,12,-15,-23,-21,-3,-2,5,-3
1511759466317988,-2,18,-2,3,2,0,-4,11
1511759466317988,-11,-3,2,14,2,-1,-2,-12
1511759466339003,4,-22,-6,-19,-3,-1,1,-4
1511759466339003,1,9,14,6,3,-2,-1,0
1511759466341004,0,-24,-6,-4,0,-2,2,-4
1511759466341004,-33,4,6,20,-2,-5,-3,-16
1511759466354029,-3,-12,1,5,-6,-5,-6,4
1511759466354029,5,-16,-28,-27,1,1,-5,-21
1511759466360030,-5,2,9,-1,2,3,5,5
1511759466360030,9,5,-1,2,-4,-3,5,0
1511759466377029,-3,0,11,14,1,-2,-1,-4
1511759466377029,-3,2,-13,-7,0,-4,-12,-1
1511759466378032,15,18,36,24,4,5,9,8
1511759466378032,0,3,-15,-32,-6,-2,-8,-14
1511759466400058,-9,-10,2,1,-2,-1,-1,-4
1511759466400058,12,3,0,5,3,-2,3,10
1511759466401058,-9,-15,-20,-15,1,-2,3,4
1511759466401058,0,13,15,26,-4,1,-3,3
1511759466413065,-4,8,-11,-6,-3,-2,-3,-3
1511759466413065,2,-31,-2,-1,7,4,-3,7
1511759466421062,6,25,15,-5,-4,-4,-1,-7
1511759466421062,5,-8,-27,-7,-10,-7,-2,-5
1511759466437072,0,-4,21,0,-1,2,-1,-5
1511759466437072,-17,14,2,-1,-5,-2,-2,4
1511759466438073,-17,-21,-21,16,1,1,6,6
1511759466438073,10,0,8,-9,-5,-4,-10,-9
1511759466459087,9,16,-1,-2,-4,-2,7,0
1511759466459087,6,-20,-4,2,-3,-5,-10,-6
1511759466462090,19,14,2,-6,-2,-2,-3,0
1511759466462090,-8,2,-2,4,2,0,6,0
1511759466473098,-9,-17,-5,-8,-4,-5,-2,8
1511759466473098,5,11,2,14,0,-3,-3,-3
1511759466480102,-6,1,-7,-20,-1,-2,-10,-8
1511759466480102,-4,0,8,27,6,5,5,9
1511759466496114,18,5,-16,-8,-1,-4,-8,-8
1511759466496114,-15,-5,15,-9,5,3,4,-10
1511759466498115,7,10,0,-22,4,0,7,0
1511759466498115,23,15,0,7,-5,-3,-1,3
1511759466519129,-10,-31,13,3,0,-2,-6,-5
1511759466519129,1,12,17,-8,0,-3,-7,1
1511759466521132,3,-8,-27,-6,5,3,-3,9
1511759466521132,8,10,10,9,-6,-3,5,11
1511759466533140,-17,5,2,-6,2,-2,-1,-17
1511759466533140,13,7,-5,4,0,3,-1,4
1511759466540145,2,-29,-13,1,0,0,5,19
1511759466540145,-8,7,11,-5,-3,-5,-11,-26
1511759466557157,7,9,0,13,-2,2,1,20
1511759466557157,-21,-4,-13,-10,2,2,7,-7
1511759466559171,23,10,-16,9,-4,-2,-3,-6
1511759466559171,11,-14,-9,-25,-1,0,8,10
1511759466579185,-19,3,13,15,-1,-3,-4,-5
1511759466579185,4,-10,-4,-1,1,1,0,5
1511759466581186,0,17,3,-14,-4,0,-3,-3
1511759466581186,-3,-8,11,11,-2,-6,-4,1
1511759466593192,-15,18,-13,-7,-2,0,4,-3
1511759466593192,12,7,9,-11,4,5,2,0
1511759466602198,-22,-18,1,3,-4,0,2,-8
1511759466602198,-34,-11,8,2,-1,0,3,-7
1511759466615198,5,-3,-5,-5,1,1,6,0
1511759466615198,-10,-17,-9,-6,2,2,4,2
1511759466624205,-2,-3,0,11,2,-4,-8,-4
1511759466624205,8,4,-7,0,-5,-2,-7,-15
1511759466639231,-20,-4,10,-7,1,1,-9,-3
1511759466639231,1,1,-19,-4,4,2,-4,-10
1511759466641228,9,17,15,-5,-4,-1,4,11
1511759466641228,6,-31,9,21,1,-1,-10,-16
1511759466653224,-39,6,-9,-4,-7,-7,-7,-4
1511759466653224,1,-11,-9,2,-2,-2,-2,-4
1511759466662243,-44,-24,3,-13,3,-2,-2,-4
1511759466662243,31,11,1,1,-8,-6,2,11
1511759466676241,10,30,-5,1,0,4,6,5
1511759466676241,3,-5,-8,0,1,4,-3,-9
1511759466678242,5,1,22,11,0,-6,0,-1
1511759466678242,14,16,-8,0,-7,-7,2,-2
1511759466699269,6,-15,4,-5,9,5,1,2
1511759466699269,-17,-20,4,0,-5,2,-9,0
1511759466700270,4,11,5,9,2,1,-6,-14
1511759466700270,11,-1,-13,-8,-4,-1,5,19
1511759466712266,24,8,-4,0,-3,-3,-2,-6
1511759466712266,-21,-19,0,6,-1,-5,-1,-6
1511759466722277,8,-11,-19,-10,-3,-4,3,11
1511759466722277,9,-2,11,6,-2,-3,-4,-3
1511759466737285,10,3,-2,19,-1,-2,0,0
1511759466737285,-18,1,-6,-29,5,3,-2,-1
1511759466739297,0,-9,-3,-7,-4,-3,-2,-12
1511759466739297,-13,-6,3,-1,6,4,2,9
1511759466759312,-9,-1,8,-5,-5,-3,-6,-6
1511759466759312,21,15,-6,-7,-1,-2,0,6
1511759466760310,13,-7,-27,-1,-3,-2,-3,-4
1511759466760310,-12,6,-5,-10,-5,-8,1,-15
1511759466780331,21,2,14,26,1,0,3,5
1511759466780331,-17,-8,-7,-20,4,1,9,10
1511759466789321,-2,17,8,-7,-1,2,1,-18
1511759466789321,-4,-16,-12,2,-6,-2,2,-1
1511759466796325,24,8,-8,0,-3,-1,-5,-1
1511759466796325,7,4,8,-4,4,1,-2,18
1511759466798327,-16,-20,-12,4,-3,0,-6,-11
1511759466798327,-2,6,-9,-5,2,0,0,-8
1511759466819342,-11,-7,7,-1,-1,0,7,3
1511759466819342,-2,9,5,9,-2,-4,0,8
1511759466820342,8,5,2,-3,0,-4,-5,3
1511759466820342,-12,-11,5,10,0,3,2,4
1511759466832351,5,4,-8,5,0,-2,-5,-7
1511759466832351,-3,-16,-12,-1,-2,-3,-8,-7
1511759466842358,-10,5,23,7,0,-5,-6,-11
1511759466842358,7,5,-11,-9,-5,0,-1,2
1511759466856368,-6,-15,-5,12,-1,0,5,10
1511759466856368,13,6,10,-4,-2,-4,-3,-15
1511759466858369,-9,9,14,-15,3,0,3,20
1511759466858369,-6,-15,-11,2,-15,-7,-4,3
1511759466879386,-7,-12,-4,-12,5,4,0,-13
1511759466879386,-3,1,-5,14,3,-3,-3,6
1511759466880390,2,2,6,3,-1,-2,-1,-1
1511759466880390,-3,7,7,-7,-2,-2,4,3
1511759466892393,3,-9,-3,4,-1,-4,-4,8
1511759466892393,-20,9,-2,-3,0,2,-9,-9
1511759466901400,10,-6,-8,0,0,0,0,7
1511759466901400,-26,6,10,2,1,2,0,-4
1511759466916423,12,8,-2,-3,-1,-2,6,2
1511759466916423,-7,3,1,-5,-1,-3,3,0
1511759466922416,-3,11,-15,7,-2,0,-1,5
1511759466922416,15,6,4,-3,-4,-3,-3,-2
1511759466939427,-22,-30,-21,-12,-3,3,-3,-16
1511759466939427,4,0,-4,-1,1,3,-4,-11
1511759466940429,-3,-13,-5,-5,0,1,3,0
1511759466940429,17,10,-13,21,1,-1,7,15
1511759466952436,-2,11,14,-30,6,2,2,4
1511759466952436,-3,-19,-8,0,-2,-5,0,-4
1511759466961442,-7,4,1,15,1,-2,-5,1
1511759466961442,37,9,12,-7,3,1,-6,-7
1511759466977454,8,0,5,15,-8,-4,-7,-2
1511759466977454,0,-5,-2,-2,0,4,3,1
1511759466979466,-1,4,5,0,-1,1,2,2
1511759466979466,-9,1,13,0,-4,-3,-4,-5
1511759466999469,-11,-7,-21,1,-1,-1,-1,-2
1511759466999469,22,9,9,5,6,0,-3,1
1511759467000470,5,-6,1,-5,-4,0,2,-3
1511759467000470,5,-4,1,1,-3,-2,2,4
1511759467021484,-9,-8,-11,-9,-3,-3,-2,5
1511759467021484,-24,-9,1,3,0,-3,-1,-1
1511759467023486,29,6,-2,-4,0,-1,-3,4
1511759467023486,-10,-11,2,12,-2,-1,7,2
1511759467036495,18,-4,7,6,-3,0,7,-3
1511759467036495,-26,-12,-10,-10,0,1,1,0
1511759467038512,10,12,0,-5,-1,-2,0,2
1511759467038512,-9,-11,6,-12,-7,-2,-3,-4
1511759467059521,5,5,3,8,0,-2,-4,2
1511759467059521,12,-4,-6,-13,-1,-2,-1,3
1511759467062514,-7,6,4,-2,2,2,-4,-17
1511759467062514,-26,-6,-20,-11,-3,-4,-8,-14
1511759467081540,-7,-3,13,8,-4,-1,-5,-2
1511759467081540,0,-6,-1,-5,5,4,1,0
1511759467083545,-18,-8,19,-15,-5,-7,1,1
1511759467083545,-7,5,1,12,-5,-5,-2,-1
1511759467096537,7,8,-14,-16,1,3,1,-11
1511759467096537,-1,5,-7,-9,-2,-5,-2,1
1511759467098539,-13,-9,-2,7,-7,-2,-4,-3
1511759467098539,4,-9,2,6,3,2,3,5
1511759467119554,-9,3,10,-8,2,-2,-7,11
1511759467119554,15,-6,4,-4,-1,0,3,9
1511759467120554,-15,4,-29,-3,-5,-4,-5,-18
1511759467120554,9,-11,-10,2,-1,-2,6,-4
1511759467141569,-2,2,11,9,0,-4,-2,1
1511759467141569,-12,-3,-13,-2,-3,2,-1,3
1511759467143571,15,4,8,14,6,3,5,2
1511759467143571,17,16,3,-27,-2,1,-1,-1
1511759467155580,-8,7,11,1,0,-1,-2,8
1511759467155580,-29,-22,-12,-1,-2,-3,-5,-8
1511759467162584,-6,-11,-3,0,1,1,-6,-4
1511759467162584,10,13,8,16,-3,-2,1,5
1511759467178595,1,-2,-3,4,-1,2,0,0
1511759467178595,-18,2,10,-5,4,-2,3,-2
1511759467180598,3,-11,-15,-6,-3,-2,3,-1
1511759467180598,-3,3,3,8,-4,-1,1,0
1511759467201612,5,7,-15,-8,-1,0,-2,-2
1511759467201612,10,-2,5,3,3,2,0,-3
1511759467204617,-2,-6,10,-3,1,-1,0,1
1511759467204617,1,9,-5,-5,-5,-5,-3,1
1511759467215621,15,-11,-9,6,-4,0,-3,-11
1511759467215621,-20,12,6,-5,5,1,-1,7
1511759467222639,3,4,-5,-16,0,-3,-3,-14
1511759467222639,4,-7,7,-5,-7,-5,1,11
1511759467238639,-11,-8,-5,12,-6,-3,-1,-6
1511759467238639,8,4,-7,-10,-3,-1,-9,-14
1511759467240639,10,-2,9,3,2,-1,-1,10
1511759467240639,-30,-11,-9,2,-4,-1,1,-16
1511759467261654,-1,-3,1,1,-1,-1,-1,3
1511759467261654,-6,-9,-6,5,1,-3,-4,-2
1511759467262655,-4,9,4,5,-2,1,2,5
1511759467262655,11,0,-1,5,-1,-2,-2,-2
1511759467276665,-15,-6,7,-1,1,2,2,1
1511759467276665,18,3,-5,-7,3,3,-2,1
1511759467282669,-9,-1,-17,-6,-3,3,-1,5
1511759467282669,-5,-2,2,0,0,1,1,3
1511759467298680,13,12,15,2,0,-2,3,1
1511759467298680,2,-12,-17,-8,7,1,4,5
1511759467300682,-27,-3,1,-4,-6,-8,-6,-17
1511759467300682,-2,-1,7,3,-3,-1,-6,-3
1511759467321697,-4,-14,-6,0,6,0,2,8
1511759467321697,24,19,0,0,-2,0,0,-6
1511759467322699,-6,-9,-8,-12,-5,-1,3,7
1511759467322699,2,-5,2,4,1,5,1,-12
1511759467335718,-5,2,-4,-4,-5,-5,-6,7
1511759467335718,3,-4,-6,6,2,0,4,2
1511759467342721,12,8,18,2,-4,-4,0,1
1511759467342721,5,6,4,3,-4,-3,-2,-5
1511759467358732,1,-5,-13,-9,2,-2,-1,-3
1511759467358732,1,-1,17,3,-4,-2,0,9
1511759467360724,6,8,6,-18,3,4,1,-2
1511759467360724,6,-8,-2,11,-1,-1,2,4
1511759467381739,7,5,-6,-9,-5,0,-4,-4
1511759467381739,-11,0,2,1,1,-1,-5,-6
1511759467383740,-12,4,6,13,-4,-9,-1,2
1511759467383740,12,-4,-5,-4,1,-1,-8,-3
1511759467395759,-4,5,-1,-4,1,3,-1,-4
1511759467395759,-1,-2,8,10,4,6,9,8
1511759467402771,23,-2,-8,-7,-5,0,2,4
1511759467402771,-22,4,-3,-8,-2,-2,0,-5
1511759467418765,-6,9,18,15,1,-1,1,5
1511759467418765,12,-12,-25,-21,-7,-7,-6,-5
1511759467420766,2,-9,-1,10,5,-1,-4,-15
1511759467420766,2,17,-1,-1,-3,-3,-1,11
1511759467441791,6,-5,-2,-12,-2,-1,2,0
1511759467441791,-24,3,-13,-4,3,-4,-9,-11
1511759467442792,3,-5,-1,-5,-2,-2,0,10
1511759467442792,5,25,8,7,-6,-4,-3,-7
1511759467455804,-4,2,-6,11,5,5,1,-7
1511759467455804,0,-20,-4,-17,-2,0,-3,4
1511759467462796,6,1,5,12,-2,0,0,-2
1511759467462796,-9,3,23,3,-2,-2,0,-3
1511759467478807,4,-1,-39,-9,4,2,6,3
1511759467478807,0,8,12,-4,3,1,0,2
1511759467480809,-1,-2,0,5,-2,-4,-8,-6
1511759467480809,11,5,-1,0,-3,-1,2,-6
1511759467501824,-17,-10,-12,-12,1,-2,-3,-2
1511759467501824,-13,-5,11,5,0,0,4,3
1511759467503825,-3,-18,-14,8,-7,-5,-7,-31
1511759467503825,20,-5,-1,-6,4,0,-1,4
1511759467514833,14,6,4,-22,-4,-1,-3,4
1511759467514833,-9,8,-15,0,-2,-2,1,8
1511759467531845,-15,-9,3,-6,-2,0,4,15
1511759467531845,-4,-1,-16,5,-3,1,4,-5
1511759467546855,-5,-2,10,4,-2,-1,1,1
1511759467546855,14,1,-13,-20,-2,2,2,0
1511759467547856,2,5,-3,6,-3,-2,3,16
1511759467547856,2,-9,8,9,2,2,-2,6
1511759467561867,-7,-3,8,-5,1,-3,-7,-8
1511759467561867,-6,-9,-31,-10,-5,-1,-3,-8
1511759467562866,10,14,-5,-6,2,0,-2,-1
1511759467562866,-14,-13,0,8,-2,-5,-1,-2
1511759467575877,-5,6,-4,-2,2,0,-5,-6
1511759467575877,-4,-1,26,4,1,0,0,1
1511759467583894,-3,-4,15,2,1,0,1,3
1511759467583894,7,-1,-30,-3,-5,-5,-3,-10
1511759467598892,3,7,2,1,-1,3,1,4
1511759467598892,0,-17,-6,3,3,-3,-8,-14
1511759467600893,-12,10,8,-11,-3,-2,5,7
1511759467600893,3,-11,-4,0,-6,-5,-2,-4
1511759467621920,-11,0,-3,-1,1,1,-6,-7
1511759467621920,3,1,-18,1,1,0,-3,1
1511759467622910,-22,-10,0,7,-6,-5,2,-12
1511759467622910,-3,16,7,-7,4,4,2,9
1511759467634927,11,-8,-2,4,0,-2,5,16
1511759467634927,-17,-15,12,-7,-4,-3,-8,-18
1511759467643936,11,-6,-19,7,-2,-1,4,-1
1511759467643936,0,12,0,-10,-5,1,-1,-3
1511759467658946,0,-13,0,7,1,-1,-5,-1
1511759467658946,-4,8,6,-10,3,0,-5,11
1511759467661947,-16,-2,-2,3,-7,-3,-2,-5
1511759467661947,9,0,-2,2,1,2,-1,5
1511759467681960,5,11,0,-17,0,0,0,-12
1511759467681960,-16,-15,-21,7,1,-2,5,3
1511759467682952,-6,3,-4,-4,-5,-2,-6,-15
1511759467682952,4,1,-10,11,0,-3,-3,-2
1511759467694960,-13,-24,-4,-19,4,2,-1,12
1511759467694960,0,14,14,5,-2,0,0,-17
1511759467703966,19,-10,-4,-6,-3,-1,4,10
1511759467703966,-1,3,10,2,-1,-2,0,-2
1511759467718990,1,19,-1,7,0,-2,1,6
1511759467718990,12,-17,4,-3,-4,-4,-5,-5
1511759467720978,16,-2,4,3,-5,-1,0,-9
1511759467720978,7,-2,-7,3,-3,2,2,-5
1511759467742003,-10,-12,-9,-11,-3,0,-3,-11
1511759467742003,12,15,0,4,2,2,5,8
1511759467742994,11,6,3,-8,-4,-4,4,7
1511759467742994,-10,-7,11,6,-2,-3,-7,-1
1511759467755016,-6,-5,-23,-3,0,3,-1,-6
1511759467755016,-9,23,21,4,1,2,-2,4
1511759467764020,-4,-23,-13,0,3,0,3,15
1511759467764020,-8,9,4,-13,-1,-2,-4,-4
1511759467779029,-7,-6,-3,-1,-3,-5,-14,-10
1511759467779029,20,5,8,3,0,0,2,-10
1511759467781031,-15,1,2,1,0,-3,-3,0
1511759467781031,3,-4,0,5,-2,-4,1,1
1511759467801035,4,-3,-10,-17,7,0,4,-2
1511759467801035,7,0,-4,2,-2,2,5,12
1511759467803036,-15,0,8,6,0,2,-3,-9
1511759467803036,-1,-4,-12,-13,-1,2,1,-7
1511759467815055,7,-1,9,13,2,3,-6,4
1511759467815055,-9,-31,-18,-11,3,-2,-1,6
1511759467824052,-6,-5,2,-7,-2,-4,-2,-2
1511759467824052,-7,0,5,0,-3,-3,3,2
1511759467839085,2,0,0,5,-2,1,8,3
1511759467839085,-21,0,5,-19,1,-2,-3,5
1511759467841063,8,3,-20,17,-2,0,-7,-6
1511759467841063,9,3,-2,-4,-7,-4,-5,-2
1511759467861094,-3,-13,3,-13,2,3,-1,0
1511759467861094,-6,-6,-1,4,-4,-5,3,9
1511759467863079,8,12,9,12,-6,-6,-8,-20
1511759467863079,2,-1,11,-7,-1,-3,1,9
1511759467876098,-3,14,-15,-8,1,0,0,-8
1511759467876098,-9,-10,-7,3,-3,-2,2,3
1511759467884093,5,-8,0,-8,-3,-2,0,12
1511759467884093,2,8,-5,3,-2,-1,-4,-1
1511759467899104,-13,-2,12,12,-2,-3,-4,-7
1511759467899104,-3,1,-18,-11,0,-1,-1,-7
1511759467901105,-7,-5,2,6,-2,-3,6,4
1511759467901105,7,0,-1,-1,-2,-1,2,2
1511759467922144,1,-2,8,8,2,-1,-6,3
1511759467922144,3,7,9,10,0,-3,-3,-12
1511759467923121,-5,4,-1,-7,0,-2,2,-2
1511759467923121,-7,-4,-8,4,0,0,-2,-1
1511759467944136,-3,-13,-1,-34,-6,-2,-4,4
1511759467944136,4,0,-8,11,0,1,-6,-5
1511759467946137,5,10,3,11,-1,-1,-1,5
1511759467946137,11,25,4,-9,-2,2,-1,-11
1511759467959147,-19,-30,-18,8,2,-1,8,-2
1511759467959147,2,11,16,-9,-4,-4,-6,-4
1511759467960148,5,6,17,-5,-2,2,1,2
1511759467960148,-2,-6,-11,5,-4,-2,0,19
1511759467981172,-9,10,-3,-3,4,3,-1,-2
1511759467981172,-5,-7,-10,-2,-1,-3,-1,-3
1511759467989168,-3,-2,9,5,-2,-3,3,-13
1511759467989168,-7,-9,-6,-8,-2,1,4,12
1511759468004196,12,2,6,7,6,1,-1,11
1511759468004196,4,15,23,5,-1,1,-5,-2
1511759468006194,-17,2,-11,-11,1,-2,0,10
1511759468006194,7,0,2,7,-2,-5,0,-11
1511759468019198,0,-10,-12,3,-5,-3,-5,-4
1511759468019198,-9,-5,-7,-17,2,0,-7,1
1511759468020202,-2,-7,4,-5,-5,1,1,-5
1511759468020202,-8,-5,13,-5,-2,0,6,5
1511759468041204,-3,-8,-3,18,4,3,-1,-20
1511759468041204,-4,3,-2,3,-4,-2,2,8
1511759468043206,5,8,3,-1,-3,-4,-8,-1
1511759468043206,-12,-1,-29,-19,5,0,-3,-5
1511759468064233,1,-15,-12,-7,-2,-3,-1,1
1511759468064233,8,-6,-8,2,2,3,1,6
1511759468065221,16,-5,2,2,-1,0,1,-8
1511759468065221,3,-6,3,10,0,-1,-3,-6
1511759468079233,8,11,3,-8,2,1,-3,5
1511759468079233,-1,-14,6,-4,-1,-2,-1,-1
1511759468080232,10,18,6,10,-1,0,2,11
1511759468080232,-23,-12,6,-5,-1,-1,-4,-19
1511759468101259,1,0,-7,-5,2,3,5,5
1511759468101259,-9,-9,8,23,2,4,10,11
1511759468103260,12,9,-5,-27,-4,-5,-14,-34
1511759468103260,-2,-7,14,20,0,0,0,-1
1511759468124263,0,13,-2,-11,-1,-3,0,0
1511759468124263,-6,16,10,-4,-1,-2,3,1
1511759468125276,0,-12,2,23,-7,-3,-1,3
1511759468125276,23,13,-4,-9,3,4,3,-5
1511759468139276,-22,-26,6,-5,-3,-9,-10,-2
1511759468139276,5,-12,-9,-3,2,3,7,-1
1511759468145290,-14,-23,-3,5,-7,-7,-2,7
1511759468145290,-3,0,5,-12,-3,-4,-11,-25
1511759468161299,3,5,-13,6,2,3,2,8
1511759468161299,-6,-6,-10,-8,-2,-2,-4,-3
1511759468164301,-4,10,3,3,-3,0,5,1
1511759468164301,13,7,-7,-10,-2,-3,5,2
1511759468184315,-15,9,6,-6,-1,1,-3,0
1511759468184315,3,-20,-12,-4,-1,-1,-6,-5
1511759468185316,4,11,-11,1,0,-1,0,1
1511759468185316,1,-5,10,8,-5,-5,-4,13
1511759468198315,11,14,7,4,6,3,1,-1
1511759468198315,-3,-11,-15,-26,-1,0,-5,-11
1511759468205322,15,11,8,4,-5,-4,4,8
1511759468205322,-3,-3,-11,2,1,0,3,0
1511759468221351,-9,0,19,8,3,-3,-2,-10
1511759468221351,7,2,3,-3,-1,2,2,5
1511759468223334,3,-11,-11,6,-6,-1,-1,9
1511759468223334,-11,-13,-2,4,-2,2,-8,-14
1511759468244361,8,9,-6,-16,2,1,-3,1
1511759468244361,-12,-5,4,7,-1,-6,1,6
1511759468245359,-24,-1,-6,-5,-5,-3,-2,-10
1511759468245359,1,-5,4,21,-3,-1,4,7
1511759468259358,-2,-8,-4,-10,0,1,-5,-3
1511759468259358,-5,0,-16,1,0,1,1,-3
1511759468265372,8,-2,-2,1,-2,-2,0,-1
1511759468265372,-24,0,5,-1,0,1,-2,3
1511759468281386,12,-3,-3,-3,0,3,-1,-1
1511759468281386,0,-2,3,5,-3,-4,-2,4
1511759468283386,1,-8,-6,-14,-6,0,-10,-17
1511759468283386,-4,15,-15,5,-8,-6,-2,4
1511759468304391,14,-5,0,-14,5,-1,3,0
1511759468304391,-5,8,7,-1,-3,-2,-3,14
1511759468305394,0,6,-2,20,-1,-5,2,-9
1511759468305394,2,-12,-1,-5,1,3,-5,4
1511759468318400,-3,-17,-18,-4,-1,2,-3,-1
1511759468318400,2,-8,17,2,1,-2,-2,-6
1511759468325405,-8,27,1,-6,-3,-2,6,3
1511759468325405,5,5,12,11,-1,-3,-6,-2
1511759468341417,0,-4,-21,-15,2,2,0,3
1511759468341417,14,-8,1,-18,0,-1,2,2
1511759468344418,-5,3,6,0,-4,-2,-3,-13
1511759468344418,5,-7,0,-5,-1,-4,-1,-3
1511759468364432,-6,20,-4,3,0,-3,3,14
1511759468364432,-8,0,-13,16,0,2,2,-12
1511759468365433,13,-1,1,-18,-2,3,2,4
1511759468365433,-17,11,0,1,-5,0,-1,-7
1511759468378455,1,1,-6,-4,-3,-4,-3,-2
1511759468378455,-8,0,5,11,1,-2,-5,-7
1511759468385450,11,-3,6,2,-1,-3,6,4
1511759468385450,3,5,-7,1,10,4,1,-1
1511759468401469,-20,-30,11,4,3,4,-2,4
1511759468401469,-12,9,-7,-4,-7,-2,-4,-6
1511759468403471,3,0,7,14,-3,-5,-4,5
1511759468403471,4,4,-26,-20,-4,-3,0,13
1511759468424485,-3,-12,7,-6,1,0,0,-1
1511759468424485,10,5,-3,-4,-1,-1,1,-9
1511759468425476,-3,-1,-6,2,1,0,-5,-8
1511759468425476,-17,-10,6,2,-2,2,5,6
1511759468437497,11,9,-8,4,0,-3,-10,-26
1511759468437497,-7,-9,-3,-21,-5,-4,1,-4
1511759468446492,3,9,7,15,-3,1,9,13
1511759468446492,2,-12,-12,-11,1,-2,-5,-20
1511759468461514,1,6,-7,0,6,3,4,5
1511759468461514,8,-4,2,-2,-1,-2,-7,2
1511759468463512,-6,6,7,-3,-1,-3,-3,-6
1511759468463512,10,9,1,4,0,-2,5,1
1511759468484517,-15,-8,-13,-14,-2,-3,-4,1
1511759468484517,-5,-28,-15,2,-2,-1,-1,-5
1511759468485518,-10,8,21,6,-3,-1,2,5
1511759468485518,7,-17,-27,-1,-3,0,-2,1
1511759468497539,12,12,6,4,4,2,0,-1
1511759468497539,-5,11,-1,-9,-4,-1,-1,10
1511759468506547,-2,-5,-10,11,-5,-4,1,6
1511759468506547,15,8,18,-23,-2,-2,-5,-2
1511759468521559,-4,-7,1,-1,-1,1,4,1
1511759468521559,-20,1,-5,-3,-2,-4,-6,-4
1511759468523545,21,-9,-5,6,2,-2,-4,5
1511759468523545,1,13,1,4,-2,-2,3,12
1511759468544576,-7,-2,6,0,0,-3,-5,-13
1511759468544576,11,-1,2,-5,2,1,6,5
1511759468545561,-2,4,-3,-1,-3,-2,-4,5
1511759468545561,-2,3,1,-1,2,3,-4,-13
1511759468557579,1,-15,13,1,5,3,2,4
1511759468557579,10,7,-21,1,0,-1,0,1
1511759468566576,-8,-3,9,-7,-6,-3,0,-6
1511759468566576,-3,-3,2,0,1,3,3,5
1511759468589593,-6,0,8,5,0,-1,-7,3
1511759468589593,0,6,6,1,0,0,-3,-2
1511759468590594,1,-1,6,32,-4,-5,-2,-5
1511759468590594,0,-2,-6,-28,1,1,7,14
1511759468603611,-1,2,-4,-6,0,-4,-10,-17
1511759468603611,-8,-8,4,1,1,1,-2,0
1511759468605606,0,-5,-4,4,-4,-2,0,-3
1511759468605606,1,-4,5,10,-5,-2,-2,-5
1511759468617612,-5,2,-13,-6,1,1,5,11
1511759468617612,0,2,8,2,0,1,5,1
1511759468632622,-4,5,6,-8,0,-1,1,-3
1511759468632622,1,-6,-5,9,-1,-2,-6,-6
1511759468641642,-5,1,-18,-1,0,0,-1,5
1511759468641642,1,1,4,-10,-1,-5,-4,7
1511759468642629,2,-7,-7,-2,-5,-4,2,6
1511759468642629,2,5,1,-3,-1,-2,-5,-15
1511759468663644,-4,-3,-2,3,3,0,1,-2
1511759468663644,12,9,-6,-9,-4,-1,-4,6
1511759468666656,-3,3,-5,-6,1,-1,-2,-12
1511759468666656,-6,0,0,1,-4,-1,-2,9
1511759468677666,-4,-6,0,10,0,-2,0,0
1511759468677666,-3,1,-3,-7,2,0,3,-1
1511759468686660,4,1,-3,-4,-5,1,3,11
1511759468686660,-3,1,6,17,-1,-1,2,-7
1511759468701689,2,8,-18,-30,-9,-1,-2,-7
1511759468701689,15,-8,-2,7,-3,-3,1,7
1511759468702671,3,11,0,-8,-2,-3,-5,-5
1511759468702671,-13,-24,-9,10,0,-2,-3,-5
1511759468723698,-13,0,7,-1,6,5,3,11
1511759468723698,8,10,9,8,-1,3,1,-1
1511759468725705,7,2,8,-3,-5,1,-5,-10
1511759468725705,12,-24,-22,-11,3,1,3,6
1511759468745714,-5,-3,21,-5,-1,-2,1,4
1511759468745714,-9,8,0,5,0,-4,-6,-12
1511759468746702,-3,-23,-9,-3,1,-1,-2,6
1511759468746702,-3,-5,5,4,-3,-4,0,-12
1511759468760723,-3,-11,-6,-16,2,-1,-1,2
1511759468760723,-10,-5,-2,9,-4,-4,-2,-7
1511759468761713,1,2,-1,-4,-3,-4,-3,-2
1511759468761713,0,14,6,0,0,0,-2,5
1511759468783738,-9,-5,-11,-3,1,-2,-8,-4
1511759468783738,-2,2,6,-3,-2,-1,-2,-3
1511759468783738,-2,1,-3,2,0,0,-1,-10
1511759468783738,-1,0,5,-5,-2,-5,0,-3
1511759468805763,-5,0,-6,4,-1,1,2,2
1511759468805763,-7,-9,2,-1,0,1,0,0
1511759468806760,1,-2,-2,-5,-4,-2,0,-4
1511759468806760,11,8,3,1,1,2,0,1
1511759468820755,-2,-4,-6,-3,0,-1,-2,3
1511759468820755,-5,1,-5,-1,-1,-2,1,-2
1511759468821757,3,4,-2,2,-5,-3,0,2
1511759468821757,-2,6,-2,-1,-2,1,-3,1
1511759468843773,-4,-3,0,0,3,2,-1,-2
1511759468843773,-2,-5,2,-2,1,2,0,-4
1511759468843773,-3,12,2,-3,-2,-3,0,0
1511759468843773,-1,1,-3,0,0,1,-3,0
1511759468865798,-2,-6,-4,4,1,-1,1,-2
1511759468865798,2,-2,2,-7,-5,-2,1,-2
1511759468866799,1,-5,2,5,-2,-1,4,-2
1511759468866799,0,5,0,0,-2,0,0,1
1511759468880807,0,0,0,-2,0,3,-2,-1
1511759468880807,-6,-3,-2,1,-1,-3,-4,-3
1511759468881809,0,-3,-1,0,-1,3,6,0
1511759468881809,-2,2,-1,-4,-1,-10,-14,-2
1511759468903814,-2,0,-3,-3,2,1,2,-1
1511759468903814,2,4,-1,-2,-2,-3,-1,0
1511759468904831,0,-1,-2,0,-3,-2,1,-5
1511759468904831,-1,0,-1,2,2,-2,4,-2
1511759468925841,0,-9,-2,-3,-1,-2,0,-1
1511759468925841,1,-1,-2,1,-4,-3,-2,-1
1511759468926830,7,-4,-2,-2,-2,-2,1,0
1511759468926830,-5,-4,0,-1,0,3,0,0
1511759468940849,-3,-3,-2,-4,-3,0,-6,-1
1511759468940849,-6,-2,2,4,-1,4,2,-6
1511759468941861,1,0,0,0,-2,-2,-3,0
1511759468941861,-1,1,-1,-1,2,1,1,-2
1511759468963856,-2,0,0,-3,1,0,-1,2
1511759468963856,0,0,6,4,-2,0,-2,-1
1511759468963856,-2,-4,-12,-2,-2,-6,-6,2
1511759468963856,0,0,1,5,-2,1,2,1
1511759468985884,0,-4,-7,-1,2,-1,-2,1
1511759468985884,3,-2,0,2,-2,-2,1,-2
1511759468986873,0,2,13,5,0,2,-3,-3
1511759468986873,0,3,-14,-12,-1,0,1,2
1511759469008887,-5,-2,3,1,2,0,-2,1
1511759469008887,-3,-2,-3,-1,-1,-1,-1,3
1511759469009890,1,-3,-3,-9,-5,-2,-4,-5
1511759469009890,-1,-2,-7,-1,2,0,2,0
1511759469023900,-4,-3,-1,-2,-1,-2,1,-2
1511759469023900,-3,-1,0,0,0,-3,-1,-2
1511759469023900,0,4,3,1,-1,2,1,-4
1511759469023900,3,3,2,-2,-2,1,0,0
1511759469045914,1,-3,-5,-3,-2,-1,-3,-3
1511759469045914,-2,-3,-5,3,0,-3,1,-4
1511759469047915,2,-1,5,4,-4,-4,0,1
1511759469047915,-3,-2,-3,-2,3,1,-1,1
1511759469060935,-5,-4,1,-6,0,1,1,-2
1511759469060935,0,-3,-3,-2,-4,-1,-5,-2
1511759469061935,4,3,3,6,-1,0,-2,-2
1511759469061935,-1,-1,-18,-11,0,0,-1,-1
1511759469082949,3,2,4,4,2,-2,0,0
1511759469082949,0,0,17,-3,-3,-4,-4,-3
1511759469083948,-4,-1,-13,6,-3,-4,-3,-2
1511759469083948,-3,-1,11,5,1,-1,-5,0
1511759469105958,-6,-2,-12,-7,-1,0,0,-3
1511759469105958,-1,-3,0,1,-5,-2,5,0
1511759469106958,1,1,3,-2,0,0,-3,2
1511759469106958,0,-3,4,1,1,-2,0,-1
1511759469120967,0,1,-4,0,1,-1,-3,-1
1511759469120967,0,2,18,8,-2,1,-1,-4
1511759469121971,2,8,4,2,-4,-1,0,0
1511759469121971,-7,-10,-55,-23,-5,-2,-4,-3
1511759469142982,-1,-2,6,1,3,1,2,0
1511759469142982,1,1,-1,0,1,-2,2,0
1511759469143983,4,1,11,6,0,-1,2,-3
1511759469143983,1,-3,13,3,0,2,0,0
1511759469165998,-2,-3,-9,-5,-1,-1,-2,-1
1511759469165998,-6,-3,-8,-1,-2,-2,-2,0
1511759469166999,-1,-3,3,-1,0,-1,-1,-3
1511759469166999,-2,2,13,4,2,3,-3,1
1511759469181009,-4,-1,-16,-11,-3,-1,-4,2
1511759469181009,2,3,-3,-1,-3,-1,-2,1
1511759469182010,1,0,5,-2,-1,-4,0,-3
1511759469182010,-1,-3,0,-3,1,-2,1,-2
1511759469203025,-1,1,13,1,-1,1,1,0
1511759469203025,0,0,-1,1,-2,-2,0,0
1511759469204025,-3,-4,-13,-4,-2,-2,3,0
1511759469204025,-2,5,23,6,3,1,-1,-1
1511759469226041,0,0,-17,1,2,-1,2,1
1511759469226041,-3,-1,2,-7,-6,-3,-2,-5
1511759469227042,1,-1,-11,-2,-2,0,-4,-3
1511759469227042,-1,-3,5,-2,0,-1,-3,-2
1511759469241052,-2,-4,7,1,0,-5,-3,1
1511759469241052,2,-2,-5,5,-3,-1,4,0
1511759469242052,0,1,3,5,-3,-4,4,-1
1511759469242052,0,-4,-6,-5,1,2,1,0
1511759469263085,-5,-6,-8,-7,-3,-2,0,-2
1511759469263085,1,1,-8,-2,-1,1,-1,1
1511759469264071,0,0,6,3,0,0,-2,0
1511759469264071,1,3,9,5,1,3,-2,1
1511759469287084,-5,-6,-26,-17,-3,-5,-3,-4
1511759469287084,1,3,2,2,-1,-3,-2,-3
1511759469288085,2,-2,-2,0,-3,-2,3,-3
1511759469288085,-1,3,19,5,3,0,0,-1
1511759469301096,-5,3,8,1,0,4,-4,-2
1511759469301096,-3,-6,-22,-4,-3,-4,-6,-3
1511759469303095,-1,-9,-29,-14,-3,-3,-6,-1
1511759469303095,2,-4,-12,-7,-1,-2,2,-1
1511759469323125,-1,1,18,4,0,1,3,3
1511759469323125,2,3,4,1,-2,-2,2,0
1511759469324111,-4,1,8,2,-1,0,-1,-2
1511759469324111,-7,-1,-5,-2,0,-1,-2,-1
1511759469346126,-1,0,2,1,1,-1,-2,0
1511759469346126,1,1,8,3,-1,-3,0,3
1511759469347126,2,0,1,0,-3,2,-1,-2
1511759469347126,-1,-3,-8,-5,1,3,-2,-3
1511759469361136,1,-2,0,-2,-2,0,-1,-2
1511759469361136,-2,2,1,0,-2,-2,0,-3
1511759469362140,3,0,0,2,0,-3,0,-2
1511759469362140,-3,-5,-13,-4,0,-3,-2,-1
1511759469383162,0,-6,-4,-1,-2,-2,-2,-1
1511759469383162,-1,1,-1,1,-5,-4,0,-2
1511759469384152,-2,3,2,0,-1,2,-3,0
1511759469384152,-4,-1,-11,-2,-1,2,-2,0
1511759469406169,0,0,-1,-2,-1,-1,-1,1
1511759469406169,1,2,0,-1,-4,-3,0,2
1511759469406169,1,0,3,0,-1,0,2,-1
1511759469406169,-2,-5,-2,-5,-1,-2,-1,-1
1511759469429184,-2,-1,11,-1,0,-2,-3,0
1511759469429184,-1,-1,-4,0,0,-1,-5,-3
1511759469431186,0,-1,-5,1,-1,-2,-5,-2
1511759469431186,1,-3,3,-3,2,-1,0,0
1511759469443194,0,-2,-3,1,2,1,-1,-2
1511759469443194,1,1,4,4,0,0,2,-2
1511759469444195,0,-1,2,-1,-3,0,-1,-1
1511759469444195,1,-2,-6,-3,2,0,-4,1
1511759469466210,-1,-3,0,0,-1,0,2,-1
1511759469466210,-1,-1,-1,0,-2,0,3,2
1511759469466210,0,0,-1,0,-3,-2,-1,-12
1511759469466210,-4,-3,-3,-3,1,0,-1,-1
1511759469480220,-1,-3,-3,-1,0,3,2,0
1511759469480220,1,-2,0,0,-6,-4,3,-2
1511759469488226,-2,1,-1,-4,-1,2,-3,-1
1511759469488226,-4,0,5,-2,0,2,-1,1
1511759469503237,-2,2,-1,-1,-2,-4,0,-4
1511759469503237,2,3,0,3,-3,-5,2,-3
1511759469505244,1,1,1,1,-1,-4,0,2
1511759469505244,-1,-3,-3,-5,2,2,-5,0
1511759469526253,-3,-2,0,-5,0,-2,-3,2
1511759469526253,-1,0,2,-2,-1,-1,-3,-3
1511759469526253,-1,1,-2,-1,0,-1,-1,1
1511759469526253,-4,-3,-3,-2,1,1,-1,-1
1511759469540269,-4,-5,-3,-1,-1,1,0,2
1511759469540269,2,-1,-3,-2,-3,0,2,-2
1511759469548268,4,-4,-2,0,0,0,2,2
1511759469548268,-2,-3,-3,-2,0,0,0,1
1511759469563179,-6,-5,0,-1,0,0,-3,-3
1511759469563179,0,0,0,8,-2,-4,-2,-2
1511759469564180,2,1,0,3,-2,1,0,1
1511759469564180,-2,-2,0,-1,-1,0,-1,-4
1511759469586196,0,3,-2,-1,0,-3,-2,0
1511759469586196,1,-2,-1,-5,-5,-2,0,0
1511759469586196,-2,-2,0,-1,-1,-3,0,-3
1511759469586196,-4,-1,-3,-5,0,-1,0,-1
1511759469600206,-1,-3,-3,-1,-2,0,2,-4
1511759469600206,-2,-1,0,-2,-2,0,-2,-2
1511759469616217,0,-1,-1,-2,-2,0,-2,3
1511759469616217,-2,-2,-3,-4,0,0,0,1
1511759469623223,-2,-1,2,-1,0,0,-2,0
1511759469623223,3,2,4,1,-4,-4,-2,-3
1511759469624228,-1,-4,-1,-1,-2,-1,0,-1
1511759469624228,-1,-4,-5,-2,4,0,-1,0
1511759469646238,-1,1,-3,-2,0,2,1,1
1511759469646238,-1,3,1,2,-3,0,1,-3
1511759469647238,-3,3,1,0,-1,1,-1,0
1511759469647238,-2,0,-2,-3,-2,-1,1,0
1511759469660248,-3,-5,-3,-1,0,-1,-1,-1
1511759469660248,3,-1,0,1,-1,-2,-5,1
1511759469668253,-1,-4,-2,-1,-1,-2,-3,0
1511759469668253,3,-5,0,-3,-1,-1,-3,-1
1511759469683277,7,-1,0,-2,-1,-2,1,-1
1511759469683277,-2,2,-1,-1,-4,-2,1,-2
1511759469684277,-2,4,-3,-2,0,1,-2,-4
1511759469684277,-6,2,0,-1,0,1,-3,0
1511759469706283,-7,-3,1,1,0,-2,-1,1
1511759469706283,1,0,1,2,-3,-2,0,-1
1511759469707281,2,-1,-2,0,0,-4,0,-1
1511759469707281,-3,-4,-2,-4,1,0,1,0
1511759469720300,-5,-3,0,-6,-1,-2,-1,-1
1511759469720300,1,-1,-1,0,-2,-2,0,0
1511759469728309,0,0,-7,-1,-3,-1,0,-1
1511759469728309,-1,-1,-6,-3,2,1,-2,0
1511759469743316,-3,-3,-1,-3,-3,-1,-3,-1
1511759469743316,-2,-2,2,1,-3,-1,-3,-1
1511759469744312,-2,-1,5,2,-2,0,2,0
1511759469744312,-1,-4,1,-3,0,1,-2,-1
1511759469766335,2,0,-1,1,-2,2,1,-2
1511759469766335,1,1,-1,4,-2,-4,-1,-4
1511759469767323,1,-2,-1,-1,0,-2,-3,-1
1511759469767323,-4,-3,-6,-2,1,-1,-5,-1
1511759469780342,-4,-1,0,-4,0,-2,-3,-2
1511759469780342,1,4,2,-2,-4,1,1,-5
1511759469788340,3,3,-1,0,-3,-1,0,-2
1511759469788340,-4,1,-1,-5,0,0,0,2
1511759469803362,3,2,-1,-2,-1,-3,1,-2
1511759469803362,4,2,2,2,-2,-2,-1,2
1511759469805367,1,-2,-1,-2,1,2,-1,-1
1511759469805367,-2,-5,0,-2,0,1,-2,-2
1511759469826365,-6,-1,1,-1,-1,-1,-4,1
1511759469826365,-4,-1,-1,2,-2,0,0,-2
1511759469827384,-3,-1,-1,1,-3,0,-1,-4
1511759469827384,-3,-6,-3,-3,2,0,1,-3
1511759469849381,-3,-1,-1,-1,0,-1,1,-2
1511759469849381,4,-1,-1,0,-1,-3,1,-2
1511759469849381,3,-1,-3,0,-1,-2,-4,1
1511759469849381,-5,-3,-5,-3,1,-1,-4,2
1511759469863401,-5,-2,-3,-4,-2,-2,-2,1
1511759469863401,-3,-2,1,2,-3,-2,0,-1
1511759469864402,1,3,-2,1,0,0,3,-2
1511759469864402,1,1,-2,-2,-1,-1,1,-2
1511759469887408,1,-1,0,-2,-1,-2,1,-2
1511759469887408,0,0,1,-1,0,-3,-3,0
1511759469887408,-3,-2,2,0,-1,-2,-4,0
1511759469887408,-2,-1,-3,-2,0,1,-2,3
1511759469909424,2,-4,-2,2,-1,0,-3,1
1511759469909424,1,-2,-2,2,-2,-4,2,0
1511759469909424,-1,-3,1,1,-1,-1,-2,0
1511759469909424,-4,-1,0,-3,3,-3,1,-2
1511759469923446,0,1,0,-3,-1,-2,-2,-3
1511759469923446,0,2,2,-1,-4,-2,-3,-3
1511759469924434,-1,2,0,-2,-1,0,-3,-1
1511759469924434,-1,-3,0,-2,2,2,1,-1
1511759469946450,-4,-1,1,2,0,2,-1,-1
1511759469946450,1,0,-1,2,-4,1,2,-4
1511759469947451,-1,-2,-4,-3,-1,-3,0,2
1511759469947451,-2,-5,-5,-4,1,0,0,3
1511759469969466,-1,-1,-1,-2,1,-3,-2,0
1511759469969466,2,4,1,0,-4,0,-3,-2
1511759469969466,-2,3,-4,1,-1,1,-3,-3
1511759469969466,-4,-2,-2,-4,2,1,-1,-1
1511759469983476,-1,-5,-1,-1,-1,-2,0,-1
1511759469983476,3,0,2,2,-2,-2,3,-1
1511759469984477,1,-1,-2,-2,-1,-4,0,0
1511759469984477,-1,-3,-7,-1,-1,-3,-1,0
1511759470006493,-1,-3,1,-2,-2,-3,0,-1
1511759470006493,-1,3,4,-1,-1,-1,-3,-3
1511759470007493,1,0,0,1,1,2,1,-2
1511759470007493,-2,-2,-3,-3,-1,1,-2,-1
1511759470029509,0,-3,-4,-1,-2,0,1,-1
1511759470029509,-1,1,-1,1,-6,-1,2,-3
1511759470029509,-3,-3,-2,-1,-2,2,-3,-3
1511759470029509,-3,-2,-1,-4,1,3,0,1
1511759470043519,-2,1,0,0,-1,-2,-2,-1
1511759470043519,4,2,0,2,-2,-4,-4,-2
1511759470043519,0,1,-2,-1,1,-1,-2,0
1511759470043519,-3,-2,-2,-4,0,1,-4,-3
1511759470066535,-2,-3,0,-6,-3,-2,1,0
1511759470066535,1,-2,0,0,-4,-3,2,0
1511759470067536,3,1,0,0,-1,-1,2,0
1511759470067536,-3,-1,0,-3,2,0,-1,0
1511759470089564,-1,3,-2,-1,-2,2,-1,-1
1511759470089564,-3,-2,-11,1,-5,-3,-2,-2
1511759470089564,-4,-4,-1,-1,0,-3,0,0
1511759470089564,-2,-4,-2,-7,0,-1,0,0
1511759470103574,1,0,3,-2,-3,-3,-3,2
1511759470103574,3,5,11,0,-2,-1,-2,-2
1511759470104562,1,-5,-11,-1,-4,-1,-1,-2
1511759470104562,-1,-2,1,-1,1,0,-3,1
1511759470126592,2,-3,-1,-4,-2,-1,-2,1
1511759470126592,0,-3,3,0,-3,-3,-3,1
1511759470127590,-2,2,1,2,-1,0,0,0
1511759470127590,-1,-1,-2,-4,3,1,-3,-3
1511759470148593,-1,-2,-3,0,0,1,0,-2
1511759470148593,-1,0,-3,-1,-2,-3,-3,-2
1511759470149593,-2,-1,-1,0,0,-2,-2,-2
1511759470149593,-4,-5,-4,-4,0,-3,-1,-3
1511759470163614,-4,3,-2,1,0,-1,-2,-2
1511759470163614,-3,5,1,0,-4,-1,0,-1
1511759470165605,-3,-1,0,-2,-1,-2,0,-3
1511759470165605,-2,-2,-6,-1,1,-3,-1,1
1511759470186632,-3,-2,-6,-1,0,-3,0,0
1511759470186632,0,-1,7,4,-2,-1,-1,-1
1511759470187632,5,1,5,-1,-3,0,1,3
1511759470187632,-1,-5,-7,-4,-1,0,-1,0
1511759470208635,-1,-4,-1,-1,-1,1,1,-1
1511759470208635,1,1,0,0,-1,0,1,-1
1511759470210636,0,0,1,1,0,0,-2,-2
1511759470210636,-5,-2,-1,-3,1,1,1,0
1511759470223662,1,-2,5,1,-2,-1,0,-2
1511759470223662,1,-2,-10,0,-2,-4,-2,-3
1511759470224647,-2,-1,6,-3,-1,0,-1,-2
1511759470224647,-2,-1,-7,0,1,-1,-1,0
1511759470246675,-1,-1,-2,-8,-3,-2,-3,-5
1511759470246675,1,0,4,0,1,-2,1,0
1511759470247675,2,-1,0,-2,-3,0,-3,-4
1511759470247675,-6,-1,2,-2,1,1,-2,-1
1511759470268690,-5,-1,-3,1,0,0,-2,1
1511759470268690,0,-2,2,1,-5,-2,-2,-2
1511759470269706,2,0,-6,-2,-1,2,-2,2
1511759470269706,0,-4,-5,-3,0,0,-4,1
1511759470283688,2,-3,-2,1,-1,-4,0,-2
1511759470283688,1,1,-1,1,-1,-4,3,-1
1511759470283688,-1,-2,-2,1,1,-2,1,0
1511759470283688,-3,-2,-2,-7,1,0,0,-1
1511759470306720,-2,-2,1,1,0,-1,-3,-2
1511759470306720,3,0,1,3,-3,1,-2,-1
1511759470307705,-1,1,-1,-4,-1,-1,-2,-1
1511759470307705,0,-2,0,-2,0,-1,-3,-1
1511759470328732,-2,-1,-2,1,-1,-3,2,-2
1511759470328732,3,-1,1,1,-3,-4,0,-4
1511759470329720,0,-3,-1,2,1,-1,-2,-4
1511759470329720,-5,-3,-5,-4,-1,1,0,0
1511759470343740,-3,-3,0,-2,-1,1,0,1
1511759470343740,-1,3,-1,2,-4,1,-2,1
1511759470343740,-4,-3,-1,-1,-1,0,2,1
1511759470343740,-4,-5,4,-2,1,-2,-3,0
1511759470366759,-1,0,1,1,-2,-3,-2,-2
1511759470366759,1,4,1,0,-1,-3,-1,-1
1511759470367760,-2,2,-6,-3,0,-2,-3,-1
1511759470367760,-3,-2,-4,0,0,0,2,-3
1511759470388777,2,-4,2,-6,1,0,0,-1
1511759470388777,1,-1,-1,-1,-1,0,-2,-2
1511759470395777,0,1,-1,-1,-1,0,-3,-1
1511759470395777,-5,-2,0,-1,2,2,-1,2
1511759470403783,0,0,-1,0,-1,0,-1,-2
1511759470403783,-1,0,0,2,-4,-2,2,-2
1511759470403783,0,-1,-3,-1,1,-1,1,-2
1511759470403783,-2,-3,-4,-1,1,-2,-2,-3
1511759470426799,-2,-1,-2,1,-2,-1,1,-4
1511759470426799,-1,0,2,3,-3,0,0,-1
1511759470427795,-1,-4,0,-2,-1,-2,2,0
1511759470427795,-5,-4,-1,-4,2,-1,1,-1
1511759470448817,0,1,-2,-1,-2,0,-2,2
1511759470448817,2,-4,3,-2,-1,-2,-4,0
1511759470449806,-2,0,-3,-2,0,2,-2,0
1511759470449806,2,0,-2,-3,0,1,0,2
1511759470462824,-2,0,-2,0,-2,-1,-1,1
1511759470462824,4,1,-3,4,-2,-3,-3,-4
1511759470470820,-1,2,-3,0,0,-5,-3,-1
1511759470470820,1,2,-1,-4,-1,-1,-3,1
1511759470486841,1,2,0,-2,-2,-3,1,-1
1511759470486841,-2,-2,0,-1,-3,-2,0,-2
1511759470486841,-3,-4,0,-3,1,3,-3,-1
1511759470486841,-5,-2,-3,-2,1,1,1,-3
1511759470508857,-2,-2,2,3,-3,0,1,-1
1511759470508857,3,1,1,0,-1,-2,2,1
1511759470509847,0,-2,-2,0,-1,1,0,-3
1511759470509847,0,-4,-2,-4,0,-3,-1,-1
1511759470538884,1,-1,-2,-2,-3,-2,-4,-6
1511759470538884,0,0,0,-2,-3,-4,0,-2
1511759470539878,-2,-2,2,-2,-1,1,0,-1
1511759470539878,-3,-3,-2,-5,0,-1,-2,-2
1511759470546887,-2,0,-1,-3,1,-1,2,1
1511759470546887,-3,1,0,3,-2,-2,3,0
1511759470546887,-2,0,0,-2,-1,-1,-4,-1
1511759470546887,-5,-2,-1,-2,-1,1,-1,-1
1511759470568908,-1,-1,1,-1,0,-2,-2,0
1511759470568908,1,0,-2,0,-2,-1,-2,0
1511759470569900,1,-4,-2,2,1,-2,0,1
1511759470569900,1,-4,0,-2,0,0,-4,1
1511759470582915,-1,3,0,1,-2,-2,-1,-1
1511759470582915,2,0,-1,0,-3,-1,0,-4
1511759470590917,-2,-1,-5,-3,-1,-3,0,-2
1511759470590917,-2,-3,-2,-2,1,-1,1,-1
1511759470606917,0,0,2,0,-3,1,0,-3
1511759470606917,2,2,0,2,-2,1,0,-1
1511759470606917,-2,-2,-2,-2,-1,-1,-3,-1
1511759470606917,-7,-4,-3,-3,0,-1,-3,1
1511759470628932,-2,-3,-2,-1,-4,-5,-1,-1
1511759470628932,1,0,1,-2,-3,-1,1,1
1511759470629933,-3,-1,-2,-4,-1,0,-1,-1
1511759470629933,-2,0,-2,-3,1,-1,-1,0
1511759470642942,-1,1,-1,0,-1,-1,-3,0
1511759470642942,-1,0,0,3,-2,-4,-2,-3
1511759470650947,-2,2,-1,0,0,-2,0,-2
1511759470650947,-4,1,-3,-3,0,0,-1,0
1511759470666959,-2,-2,-3,-2,-1,-1,1,0
1511759470666959,-3,-2,0,1,-1,0,-4,-2
1511759470666959,1,-3,-1,-2,-1,0,0,0
1511759470666959,-1,-4,0,1,-1,-1,1,-1
1511759470688974,3,2,1,-2,-3,-2,1,-2
1511759470688974,3,1,-1,0,0,-1,2,-1
1511759470689977,-2,-2,-3,-1,0,1,-1,-3
1511759470689977,-4,-4,-1,-1,0,-5,-5,0
1511759470702984,-1,1,0,2,-3,-3,-7,-1
1511759470702984,0,4,2,2,-1,-2,-2,-2
1511759470717995,-3,-1,0,-1,1,0,2,0
1511759470717995,0,-1,-2,-5,1,0,2,-2
1511759470726000,0,0,3,-5,-1,0,-1,-3
1511759470726000,2,-2,-1,-1,-2,-1,2,-2
1511759470733005,1,-3,-4,-1,2,0,0,-1
1511759470733005,-1,-4,-3,-2,-1,2,-4,-1
1511759470757023,-3,-2,-3,1,-2,-1,-5,2
1511759470757023,1,4,-5,-2,-3,-1,-4,-1
1511759470758024,0,-3,-1,-2,0,0,1,4
1511759470758024,-2,1,1,-1,-1,0,3,-1
1511759470763026,1,-2,2,1,-2,-1,4,-1
1511759470763026,-3,-1,3,2,-1,-1,0,-3
1511759470772035,-2,1,-4,-2,0,-1,0,-1
1511759470772035,-1,-3,-3,-2,0,-1,-3,1
1511759470786042,-1,2,-2,1,-1,-2,1,-3
1511759470786042,0,-1,2,0,-3,-1,-3,0
1511759470793048,-2,0,0,-3,0,0,-5,-1
1511759470793048,-1,0,-1,-3,0,0,-1,-2
1511759470816064,-2,-2,-2,1,-2,-3,-2,-1
1511759470816064,0,0,0,0,-2,0,-3,-1
1511759470818065,-1,-1,-2,-4,0,0,-2,-1
1511759470818065,-1,-3,-3,-4,-1,-2,-3,0
1511759470831075,2,-1,2,2,-2,-3,0,-2
1511759470831075,1,-1,2,-1,1,2,1,-1
1511759470833076,0,-2,-2,-4,-1,2,1,0
1511759470833076,-3,-2,-1,-1,0,-1,0,0
1511759470846098,0,-2,-3,-1,-3,-2,-1,-1
1511759470846098,-2,-1,-2,1,-2,-4,-2,-2
1511759470853103,-3,0,-2,-1,-1,-2,2,1
1511759470853103,-1,2,1,-1,0,-1,1,2
1511759470869111,-1,2,1,0,-3,-4,-3,-1
1511759470869111,0,0,0,-2,-1,-5,0,-2
1511759470871107,0,-3,-1,-3,0,0,-5,-3
1511759470871107,-2,-4,-2,-1,0,0,-1,-3
1511759470891117,2,0,1,0,-2,-1,-2,-3
1511759470891117,2,1,-3,3,-2,0,-3,0
1511759470893120,-3,0,-2,-3,0,-3,2,1
1511759470893120,-2,1,-1,-4,-1,-1,1,0
1511759470907128,-2,-3,0,3,-1,-1,3,-2
1511759470907128,-1,-3,0,-2,0,-1,1,0
1511759470908129,0,-6,-4,-2,4,0,-3,0
1511759470908129,-1,-4,-1,0,0,1,0,-1
1511759470929144,-1,1,0,-1,-1,-2,1,-2
1511759470929144,0,3,0,1,-2,-1,-2,1
1511759470931145,-3,-1,2,1,3,-1,-4,-1
1511759470931145,-5,-2,0,-3,-2,-1,-5,1
1511759470951177,2,-2,2,2,-4,-1,-3,-1
1511759470951177,-2,-4,-2,1,-3,-1,-1,-3
1511759470953161,3,-3,-5,-5,-1,-2,-3,-1
1511759470953161,-2,-1,-1,-1,1,-2,3,-2
1511759470966172,1,1,2,-1,-5,-3,1,-1
1511759470966172,2,2,1,-2,-2,-1,-1,-1
1511759470973176,-4,1,-5,-3,1,3,-4,0
1511759470973176,-1,0,-4,-2,0,-1,0,-3
1511759470989189,2,-1,-1,-3,-4,-1,-1,-1
1511759470989189,2,1,0,0,0,0,1,-3
1511759470990189,-4,-4,-1,-2,0,-1,0,-2
1511759470990189,-6,-3,-3,0,-3,1,-5,-1
1511759471011201,-1,-2,1,2,0,-3,1,-1
1511759471011201,1,-3,-2,0,0,-1,-1,-1
1511759471013203,1,-4,-3,-2,2,0,0,-1
1511759471013203,-3,-6,-3,-3,-2,-1,-1,-1
1511759471026212,-5,2,-2,3,-1,-1,1,0
1511759471026212,-2,0,-2,-1,-4,-2,2,0
1511759471032216,-5,-3,-3,-3,1,0,-2,0
1511759471032216,2,0,-1,-1,1,-1,-2,0
1511759471049229,5,-1,-2,-1,-3,0,-2,-2
1511759471049229,3,2,-1,0,1,1,-2,-1
1511759471050230,1,0,0,-5,1,-1,-4,0
1511759471050230,-1,0,0,-3,0,-2,-3,-1
1511759471072258,-2,0,-1,2,-3,-2,1,-2
1511759471072258,-5,-2,-1,1,-2,-1,-2,-1
1511759471073246,-5,-4,-1,-2,-1,0,3,-3
1511759471073246,-5,-2,0,-4,2,-1,1,-1
1511759471086267,0,2,3,0,-3,0,-1,-1
1511759471086267,0,-2,-1,0,-1,-4,1,-2
1511759471093271,-1,1,-4,-3,-1,0,0,0
1511759471093271,1,0,-4,-2,-1,-1,-1,-2
1511759471109273,3,-3,1,-1,-2,-1,-3,-1
1511759471109273,1,-1,-2,-1,-2,-1,-4,0
1511759471111273,-3,-2,-2,1,0,1,-4,-1
1511759471111273,0,-3,1,0,0,-4,2,-2
1511759471131296,3,3,1,1,-2,-3,2,-1
1511759471131296,3,0,2,-3,-3,-2,0,-2
1511759471133298,-3,-3,-2,-4,1,1,0,2
1511759471133298,-2,5,-1,-3,0,2,-1,1
1511759471146308,-3,-2,-2,1,-2,-1,-1,-3
1511759471146308,-2,-4,-2,-1,-2,-3,-1,-2
1511759471152302,-6,-2,-1,0,0,-1,-4,1
1511759471152302,-1,-1,0,-3,-1,-2,-2,0
1511759471168312,-1,3,2,0,-1,-1,-3,-2
1511759471168312,-1,1,-1,1,-1,1,-1,-4
1511759471175330,-1,-1,-5,-4,0,0,-1,1
1511759471175330,1,-4,-5,-2,0,-1,-4,0
1511759471191343,1,1,-1,4,-3,-1,2,0
1511759471191343,0,1,0,1,0,1,2,-2
1511759471193333,0,-3,-3,-2,-1,-1,2,-3
1511759471193333,0,-1,0,-3,0,-1,-1,2
1511759471206355,1,0,3,2,-3,-5,-1,0
1511759471206355,1,2,-1,2,-1,-2,-4,-1
1511759471212356,-1,-2,-1,-2,3,1,-3,-4
1511759471212356,-3,-3,-3,-1,-2,0,2,-1
1511759471229356,-1,-2,-1,0,-3,-4,2,-1
1511759471229356,1,-1,-2,-1,0,-1,0,1
1511759471230356,-3,-5,-4,-3,0,2,-3,-1
1511759471230356,-4,-4,-1,-1,-3,-2,-1,-2
1511759471251372,-3,1,2,2,-2,0,-2,-1
1511759471251372,-1,2,0,1,-2,2,-2,0
1511759471254373,1,-1,-4,-1,0,0,-1,-2
1511759471254373,1,-1,1,-2,0,-1,-5,0
1511759471265381,4,3,0,-1,-3,-4,1,-4
1511759471265381,1,-2,-2,-1,-1,0,-1,1
1511759471272398,-5,-2,-3,-3,2,-1,-3,4
1511759471272398,-5,-1,0,-2,-1,-1,1,-3
1511759471289399,-1,-2,-3,2,-4,-1,-3,-4
1511759471289399,0,1,-1,0,-1,-2,-2,-3
1511759471290401,-1,-4,-2,-4,0,-2,0,2
1511759471290401,-1,0,1,-4,-2,0,1,-1
1511759471311426,0,3,-1,1,-2,0,3,-1
1511759471311426,1,-2,-4,1,-2,0,-2,-2
1511759471313428,-2,-5,-2,-1,2,3,-5,-1
1511759471313428,-3,-5,1,-1,0,-1,-1,0
1511759471325424,1,-2,3,-1,-4,-1,1,-1
1511759471325424,-1,-5,0,-4,0,-2,-2,-4
1511759471334430,-3,-1,-3,-4,2,1,1,1
1511759471334430,-1,-1,-1,-1,-1,-3,-1,-1
1511759471349455,1,4,1,3,-2,-3,1,-2
1511759471349455,3,6,0,-2,-2,0,1,-2
1511759471350442,-4,0,-3,-5,0,-2,0,-2
1511759471350442,-4,-3,-1,2,-2,-1,-2,-1
1511759471371468,1,-3,-2,2,-1,-4,-4,2
1511759471371468,-2,-1,0,1,0,0,-2,1
1511759471373458,-1,-4,-5,-4,0,2,2,-1
1511759471373458,-2,-4,-3,-3,-2,-2,3,-3
1511759471385476,2,0,2,1,-4,-1,1,-3
1511759471385476,-1,2,0,-1,-2,-1,0,0
1511759471394472,-2,0,-2,-4,-1,1,-3,-3
1511759471394472,-3,0,-1,-1,0,-1,0,-1
1511759471409495,1,-3,2,1,-2,-2,-2,1
1511759471409495,2,-2,-1,-2,0,-1,-4,-1
1511759471410484,-1,-3,-2,1,0,-1,-4,0
1511759471410484,-3,-2,0,-1,1,-1,-3,2
1511759471431499,0,0,-2,1,-3,-1,-1,-2
1511759471431499,-1,0,-3,-2,-1,0,2,-1
1511759471432499,-1,-6,-4,-4,3,1,0,-3
1511759471432499,1,-4,1,-1,-1,0,0,-3
1511759471445526,0,1,1,3,-2,-2,-1,-4
1511759471445526,-3,2,-4,0,-2,-4,-2,2
1511759471461520,-6,-3,-3,-4,0,-1,-2,1
1511759471461520,-2,1,0,-1,-1,-1,-2,0
1511759471468540,3,3,5,0,-3,-2,-2,-1
1511759471468540,0,-2,2,-1,1,0,2,-2
1511759471471526,-4,-1,-3,-4,-1,1,-3,-1
1511759471471526,1,-4,-4,-1,0,-2,0,1
1511759471491553,1,0,-4,-1,-4,-2,1,1
1511759471491553,1,-2,-3,0,0,0,0,0
1511759471493554,-3,-1,-4,-4,-1,-1,-3,2
1511759471493554,-1,-1,-2,-2,-2,-1,-2,-1
1511759471505574,0,2,2,0,-2,-1,-1,-2
1511759471505574,-2,1,2,2,-2,-2,2,0
1511759471514558,-5,0,-2,-2,2,0,1,-1
1511759471514558,-4,3,-3,-1,-2,0,-2,-3
1511759471529569,3,2,0,3,-4,-2,-3,-3
1511759471529569,0,-1,0,0,-1,-2,-2,2
1511759471531580,-2,-5,0,-3,3,-1,0,1
1511759471531580,-2,-2,-1,-2,-2,-1,-1,-3
1511759471551583,0,1,0,0,-3,-3,2,-5
1511759471551583,-3,0,0,-2,-1,-1,-2,-3
1511759471553584,-3,-3,1,-4,-1,-2,-4,2
1511759471553584,-1,0,1,-3,0,0,-2,3
1511759471565605,0,0,1,-1,-2,0,-1,-1
1511759471565605,-2,-2,-1,0,-1,1,-2,-4
1511759471573611,-2,-3,-4,-1,1,1,1,-1
1511759471573611,-1,-1,-1,0,-3,-1,-1,0
1511759471589615,0,0,1,0,-3,-1,1,-2
1511759471589615,2,2,-1,-2,-1,-1,1,1
1511759471590614,-3,-1,0,-3,2,0,0,0
1511759471590614,0,-1,0,0,0,0,0,-3
1511759471611626,0,-2,1,3,-4,-1,0,0
1511759471611626,4,-1,-4,-4,0,-1,-4,1
1511759471612626,1,-3,-4,0,0,0,-2,-1
1511759471612626,1,-2,1,0,0,1,-2,-1
1511759471625648,-1,0,1,2,-2,-2,4,-3
1511759471625648,-3,-2,-2,1,-2,-2,2,-4
1511759471634642,-4,0,-2,-4,2,-1,-5,1
1511759471634642,-6,-1,-1,0,-1,0,-3,0
1511759471649290,0,0,-2,0,-3,-4,-4,0
1511759471649290,-1,-3,-3,-1,-2,-1,-5,-2
1511759471650791,-2,-5,-3,-3,2,2,-1,-2
1511759471650791,-1,-2,1,-4,-1,0,0,-2
1511759471671794,-1,3,0,0,-4,-1,2,-1
1511759471671794,0,-1,0,-1,-1,-1,2,-3
1511759471673300,-3,-2,-2,-6,0,-3,0,0
1511759471673300,-1,1,-1,-3,0,-2,-2,-1
1511759471685316,3,3,1,2,-2,-4,-1,-4
1511759471685316,-1,0,0,1,-1,-1,-3,1
1511759471694310,-3,-4,-2,-1,0,1,-1,-2
1511759471694310,0,-4,-3,0,0,-1,0,0
1511759471709333,3,0,0,-2,-3,-1,-4,-2
1511759471709333,-3,-2,1,1,0,-1,2,0
1511759471710831,-6,0,-2,-2,2,-1,1,-2
1511759471710831,-5,-2,-1,0,-1,-5,2,-1
1511759471732283,0,-1,1,-2,-4,-3,-1,-1
1511759471732283,0,-3,-1,-3,-2,0,-1,-1
1511759471733276,0,-3,-1,-3,-1,0,-1,1
1511759471733276,-2,-2,-1,0,-2,-1,0,0
1511759471754301,1,1,1,3,-1,-2,1,-1
1511759471754301,-1,-3,-1,-1,-1,-2,0,-1
1511759471757293,-2,-5,-4,-4,2,-2,-4,1
1511759471757293,0,-1,0,-2,0,-2,2,-3
1511759471769312,-1,0,0,3,-2,-3,1,-1
1511759471769312,-1,5,-4,1,-1,-2,-4,-2
1511759471770301,0,3,-2,-3,1,1,-1,-1
1511759471770301,3,1,-1,-1,-3,-2,-4,-1
1511759471791326,-1,-4,1,0,-1,-3,-1,-3
1511759471791326,1,-5,-1,-2,-1,-1,-1,0
1511759471793326,-4,-5,-3,-2,1,1,1,-1
1511759471793326,-2,-1,0,1,-1,-2,2,-3
1511759471814344,0,4,0,2,-5,-1,-1,0
1511759471814344,-2,-2,-3,1,-3,-1,0,-1
1511759471815334,-2,-2,-6,-2,0,-1,-5,1
1511759471815334,0,0,-1,-2,-3,-1,-3,-2
1511759471829344,1,4,1,2,-2,-3,1,-3
1511759471829344,-1,0,2,0,1,-1,-1,1
1511759471831346,-3,-3,0,-4,-2,0,0,2
1511759471831346,0,-4,-2,0,-2,-1,-1,0
1511759471851362,1,-1,-3,1,-2,-1,-2,-2
1511759471851362,1,2,-2,-2,1,0,-1,-1
1511759471854374,-2,0,1,-3,2,0,-1,-1
1511759471854374,0,-1,-1,1,-3,0,-2,0
1511759471874375,3,1,-1,0,-3,1,-2,1
1511759471874375,1,-3,-1,1,-1,-1,-1,-1
1511759471875376,-3,-8,-1,-4,0,1,-3,-2
1511759471875376,-4,-1,2,1,-2,-1,1,-5
1511759471888384,-1,0,3,1,-2,-3,1,0
1511759471888384,-2,-1,-4,-1,-2,0,2,0
1511759471895399,-1,-2,-5,-2,1,-1,2,-1
1511759471895399,-1,-1,-2,-1,-1,-2,-2,1
1511759471911402,-1,1,-3,-1,-3,-4,-3,-2
1511759471911402,-1,2,0,-4,1,-1,-1,0
1511759471913408,-2,-2,-2,-5,1,1,0,-3
1511759471913408,-1,-1,0,-3,-1,0,0,-3
1511759471933428,4,0,1,1,-1,-3,-2,-2
1511759471933428,-1,0,-3,0,-1,-1,-4,0
1511759471940421,-6,-2,-5,1,-1,-1,-4,1
1511759471940421,-2,-1,-3,-1,1,0,-2,3
1511759471948438,2,-3,1,0,-4,0,-3,-1
1511759471948438,-2,-2,0,-2,0,-1,0,-3
1511759471955431,-2,-1,0,-3,0,2,0,-4
1511759471955431,-1,-1,1,0,-2,-3,-1,3
1511759471971443,1,2,1,0,-3,-2,-1,-2
1511759471971443,-2,0,-3,-2,0,0,1,-4
1511759471974448,-5,0,-6,-2,-1,-3,0,1
1511759471974448,-1,1,1,-3,-2,-4,4,-1
1511759471994471,1,-1,3,0,-2,-2,0,-1
1511759471994471,0,-3,-4,0,-1,-2,-3,3
1511759471995461,-4,-2,-6,-4,-1,1,0,-1
1511759471995461,1,0,-1,1,0,-2,-4,-2
1511759472016474,3,2,-3,1,-3,-1,1,-2
1511759472016474,0,-1,0,0,-1,1,-2,-2
1511759472018476,-1,-3,0,-3,1,0,-1,-2
1511759472018476,0,0,-1,0,-3,-3,-2,-2
1511759472031485,2,1,0,1,-3,0,-3,0
1511759472031485,-2,1,-5,-1,0,0,-2,1
1511759472033486,-3,1,-2,0,-2,-1,-1,-1
1511759472033486,-1,-2,3,-3,-3,-2,3,-1
1511759472053500,-2,0,0,-1,-1,-2,0,-2
1511759472053500,0,-1,0,-3,1,-2,-3,-1
1511759472055502,-2,-3,1,-1,2,-2,-2,2
1511759472055502,0,3,-2,0,-2,-1,-1,-2
1511759472068511,0,-2,0,1,-3,-2,2,-2
1511759472068511,0,-4,0,1,2,0,1,-3
1511759472075529,-1,-4,-3,-4,2,1,0,-1
1511759472075529,0,-4,0,-2,-1,1,-3,1
1511759472091528,-1,-4,1,-3,-1,-2,-4,2
1511759472091528,1,-2,-1,-1,-3,-1,-2,1
1511759472093530,-2,-1,-3,-2,-2,-1,-2,0
1511759472093530,-2,-2,0,0,-1,-2,-1,-1
1511759472113543,1,0,-1,2,-1,0,1,-3
1511759472113543,-3,2,1,-1,0,-1,1,0
1511759472115545,-1,-4,-2,-3,2,1,-1,2
1511759472115545,1,-2,-2,0,-4,0,-4,-2
1511759472128564,1,4,-1,1,0,1,-2,-3
1511759472128564,2,1,-2,1,-1,1,1,-1
1511759472135569,0,0,-1,-3,0,-1,-2,-2
1511759472135569,-1,2,-2,-2,-1,-2,-1,-1
1511759472151570,2,4,0,-2,-4,-1,-2,1
1511759472151570,-4,-9,-5,-7,-2,-3,-2,-1
1511759472153603,-4,-4,-1,-2,1,-2,-1,0
1511759472153603,-2,-4,-3,1,-2,-2,-3,-1
1511759472173588,0,1,-1,6,-1,-1,-3,0
1511759472173588,-2,-1,0,-1,-3,0,-2,0
1511759472175586,-6,-3,-2,-1,0,-2,2,0
1511759472175586,0,-2,1,-1,-2,-1,1,-3
1511759472188596,0,0,-2,0,-3,-2,1,-1
1511759472188596,-1,0,-1,-4,1,2,-1,-1
1511759472195610,-2,0,-2,-5,-1,-1,-2,-1
1511759472195610,-1,-2,3,2,-1,0,1,-1
1511759472211612,-1,-4,0,2,-3,-4,1,-3
1511759472211612,-1,0,-1,-3,1,-1,-1,-1
1511759472212613,-5,0,-3,-1,0,0,-1,-1
1511759472212613,-3,2,-3,-1,-1,-1,-3,0
1511759472233640,3,1,-4,0,-2,-2,0,-4
1511759472233640,-1,-3,-4,1,1,-1,1,-1
1511759472235642,-2,-3,-2,-2,-2,-2,2,-1
1511759472235642,1,-1,1,0,0,-3,1,1
1511759472247648,1,1,3,2,-4,1,-2,-2
1511759472247648,1,-2,1,0,1,3,-4,0
1511759472257649,-1,-2,-1,-5,2,0,-4,1
1511759472257649,-2,-1,-1,-2,-5,-2,-5,-3
1511759472271664,-2,-3,-1,-1,0,-3,1,-1
1511759472271664,-3,-2,-4,-2,0,-1,0,1
1511759472273660,-2,-1,-4,-2,0,0,-2,-2
1511759472273660,1,3,2,-1,-3,-2,2,-3
1511759472293680,0,3,1,0,0,-1,-2,-5
1511759472293680,0,-2,-3,-3,-2,-2,1,-2
1511759472295681,-3,-3,0,-1,-1,-1,-2,1
1511759472295681,-1,1,-1,0,0,-2,0,-1
1511759472307680,0,-3,-3,5,-2,0,0,0
1511759472307680,0,-1,-2,0,2,2,-3,1
1511759472316686,1,-2,-2,-2,-2,0,-2,0
1511759472316686,-1,0,-3,1,-3,-3,-1,0
1511759472331698,1,0,-1,-3,-2,-3,3,0
1511759472331698,-5,-5,-3,-3,-1,-3,0,-2
1511759472332699,-2,-3,1,0,0,-3,-4,0
1511759472332699,-2,0,1,0,-1,-1,-4,-2
1511759472353725,2,-2,1,1,-3,0,-3,2
1511759472353725,-1,1,-3,-5,-1,3,-3,-2
1511759472356716,-2,-3,0,-4,1,-1,3,-1
1511759472356716,3,1,-1,2,-5,-2,2,-3
1511759472367735,2,0,1,2,-1,-3,1,1
1511759472367735,-1,0,-3,-1,1,-3,0,-1
1511759472376740,-2,1,-3,0,-1,0,-2,-2
1511759472376740,-2,1,1,0,-3,-2,1,-3
1511759472391741,-1,1,-2,-2,-2,-2,-5,0
1511759472391741,-2,-4,-4,-1,0,0,-2,-4
1511759472392742,-2,-1,0,-1,-2,1,0,-1
1511759472392742,1,2,0,2,0,-2,0,1
1511759472421773,-2,-3,1,1,-2,1,0,0
1511759472421773,-3,-2,-1,-3,1,1,0,2
1511759472422765,-6,-3,0,-2,-1,1,-2,0
1511759472422765,0,0,2,0,-1,-3,0,1
1511759472427778,0,-3,0,-4,-1,-3,0,0
1511759472427778,-3,-4,-3,-1,0,-1,-5,-1
1511759472436784,1,-2,-2,-1,-1,-2,-2,-1
1511759472436784,4,1,-3,1,-4,-3,-1,-1
1511759472450791,2,4,-2,2,-1,-3,-4,-3
1511759472450791,-3,-1,-4,-1,1,0,1,-3
1511759472457786,-4,-4,-1,-4,0,0,0,1
1511759472457786,-2,-5,2,1,-3,-1,0,-1
1511759472473799,1,-5,-1,-2,-2,0,0,-1
1511759472473799,1,-1,-2,-4,0,0,-3,0
1511759472475809,-1,0,-3,-1,-1,-2,1,-2
1511759472475809,-1,3,-1,2,-1,-1,-2,0
1511759472487807,-2,3,0,1,-2,-3,0,-1
1511759472487807,-1,0,0,0,2,-1,-5,2
1511759472497814,-3,-2,-3,-3,-1,-1,-4,-2
1511759472497814,0,-1,2,-1,-2,-3,-1,-4
1511759472511837,0,2,0,1,-4,-1,2,-2
1511759472511837,-6,1,-3,-1,1,-1,-2,-2
1511759472513835,-4,-2,-1,-1,-2,-1,3,0
1511759472513835,1,-4,0,1,-4,-1,-1,-1
1511759472533849,2,0,-2,0,-1,0,-2,-1
1511759472533849,-1,-2,-5,-5,0,-1,-3,-1
1511759472535851,-3,0,-3,-3,0,-2,-2,-2
1511759472535851,0,0,0,-2,-3,-2,1,-2
1511759472547849,0,-2,-1,2,0,-1,1,-2
1511759472547849,-2,-3,0,-5,-1,1,0,-1
1511759472556857,-1,-5,-1,0,0,-2,0,-1
1511759472556857,1,-1,1,0,-3,-6,2,-3
1511759472571867,-1,-2,0,0,-1,-1,-4,-2
1511759472571867,-3,-2,-1,-1,1,3,-1,0
1511759472572868,0,-2,-2,-3,0,1,-2,1
1511759472572868,0,2,-1,0,-3,0,0,0
1511759472593893,-1,1,-1,2,-2,0,-3,-2
1511759472593893,-5,-1,-1,-2,4,1,-2,-1
1511759472595884,-1,-1,1,-2,0,-2,-3,-2
1511759472595884,4,1,1,1,-3,-1,-2,0
1511759472607910,1,-1,-1,-4,-2,-1,-2,-1
1511759472607910,-3,-1,-4,-3,1,-1,3,2
1511759472616898,-2,0,0,0,0,-2,4,1
1511759472616898,-3,1,-1,2,-4,-2,-2,-2
1511759472630908,-3,-3,-1,0,-2,1,1,-4
1511759472630908,-2,-4,-1,-2,1,0,3,-2
1511759472632910,-1,0,-3,-2,-1,-1,1,-4
1511759472632910,5,0,0,2,-2,-3,-1,-2
1511759472653925,4,0,1,-2,-2,-1,-4,0
1511759472653925,-1,-3,-4,-4,0,-2,-2,3
1511759472655926,-3,-3,-1,1,-1,-3,0,2
1511759472655926,-1,-1,3,4,-3,-3,-2,-2
1511759472676942,0,0,-4,-1,0,-6,-2,-2
1511759472676942,-1,-3,-4,-4,0,1,-1,-1
1511759472678942,-2,-4,-1,-3,0,3,0,-2
1511759472678942,-2,-1,3,-1,-2,0,0,-1
1511759472691952,-4,2,-3,1,-4,-1,2,-1
1511759472691952,-2,-3,-4,-4,-2,-1,-5,-1
1511759472693953,0,-4,0,-2,-3,-5,-4,-1
1511759472693953,1,2,-1,1,-2,-1,0,-4
1511759472713967,2,4,-2,3,-3,0,-2,-1
1511759472713967,-1,-1,-1,0,0,1,1,2
1511759472715968,-1,-3,-1,-2,0,0,1,0
1511759472715968,-1,-3,3,-1,-2,-3,1,-3
1511759472735983,0,-1,2,-2,0,-1,-1,-2
1511759472735983,-3,-3,-4,-1,2,0,-2,1
1511759472743990,-3,1,-1,-2,-1,-1,-1,-3
1511759472743990,-1,1,-1,-2,-2,-6,-1,1
1511759472751994,0,-1,0,0,-1,-2,-2,1
1511759472751994,-3,-3,-1,-3,1,-3,-5,-1
1511759472752995,-1,-3,0,0,-1,-1,-2,0
1511759472752995,0,1,-1,2,-3,0,-1,-1
1511759472774024,-2,-2,0,-1,0,1,-3,-2
1511759472774024,-3,-2,-1,-3,-1,1,0,-2
1511759472776021,-1,-2,1,-2,-2,1,0,1
1511759472776021,3,0,0,2,-5,-3,0,0
1511759472796035,0,-2,0,-1,2,-1,0,1
1511759472796035,0,0,-5,-6,2,-1,-1,1
1511759472799037,0,0,-3,-1,1,-2,-2,-3
1511759472799037,2,2,1,1,-4,-4,-2,-4
1511759472811036,0,2,0,-2,-1,-1,5,-2
1511759472811036,-5,-3,-3,0,1,0,-2,-1
1511759472818040,-2,0,0,0,-1,1,-2,1
1511759472818040,0,-1,1,2,-2,1,0,-1
1511759472834064,0,-2,-1,1,-1,-1,-2,-1
1511759472834064,-1,-5,-3,-5,0,0,0,1
1511759472836070,-3,-2,-1,-2,0,-2,-4,-2
1511759472836070,2,0,-3,3,-3,-3,0,-1
1511759472864085,-4,-1,1,0,-1,0,2,-1
1511759472864085,-6,-2,-1,-3,0,1,1,2
1511759472866084,-5,-2,-2,-4,-2,-1,-3,1
1511759472866084,1,3,0,-1,-1,-1,0,-2
1511759472871088,-1,0,-2,0,-2,-5,-3,0
1511759472871088,-1,-2,-3,-2,1,-1,-2,-2
1511759472878092,0,-1,-2,1,-2,0,-2,0
1511759472878092,1,2,1,0,-2,-3,0,-1
1511759472894094,2,-1,-2,-1,0,0,1,-1
1511759472894094,-1,-2,-2,-2,3,-1,-3,-2
1511759472896105,-2,-2,-2,-1,-1,-4,-1,-4
1511759472896105,0,-2,-1,1,-4,-1,-1,-5
1511759472916122,0,-1,-1,-1,-1,0,0,-2
1511759472916122,-3,-2,0,-5,-1,1,0,0
1511759472918111,-3,-1,1,-4,-1,1,1,0
1511759472918111,1,2,3,2,-3,-2,-1,1
1511759472931131,0,1,-3,-1,0,0,-2,2
1511759472931131,-1,-3,-3,-3,2,-1,-3,-2
1511759472937134,1,-2,-3,0,0,-2,-3,1
1511759472937134,1,0,-1,1,-2,-1,-3,-1
1511759472954145,0,-1,0,0,-2,0,0,-1
1511759472954145,-4,-2,-2,-1,0,-1,2,-2
1511759472956155,0,0,-2,1,-2,-1,0,-3
1511759472956155,1,3,1,2,-1,-2,-3,1
1511759472976155,-1,1,-2,-2,-1,0,0,-2
1511759472976155,-6,0,-3,-2,2,3,-4,0
1511759472979170,-3,0,0,-1,-1,2,-4,0
1511759472979170,0,-4,-2,2,-4,-2,0,-1
1511759472991181,0,0,-2,-1,0,-3,-1,-2
1511759472991181,-1,-2,1,-4,0,-1,1,1
1511759472997167,0,-3,1,-1,-1,-1,4,0
1511759472997167,1,1,0,0,-2,-2,-2,0
1511759473014179,2,-5,0,-1,-2,-1,-2,-3
1511759473014179,-5,-2,-3,-3,0,1,-3,0
1511759473015180,-2,1,-1,-1,0,-1,0,0
1511759473015180,2,5,3,3,-3,-2,0,-3
1511759473036206,3,0,-1,-1,-1,-1,0,-1
1511759473036206,-2,-1,-5,-4,2,1,0,-2
1511759473038208,0,-4,-1,0,0,-3,0,-1
1511759473038208,-3,2,0,2,-3,-3,-1,1
1511759473051218,-3,2,-1,1,-2,-1,-3,0
1511759473051218,-1,-1,-1,-3,0,0,-4,0
1511759473057211,0,-2,-1,-2,-2,-1,0,-4
1511759473057211,0,-3,2,0,-4,-2,3,-4
1511759473074236,1,1,-2,0,1,2,0,0
1511759473074236,-2,-5,-5,-4,-1,-1,0,-1
1511759473075229,-4,-2,-1,-1,0,-1,-1,2
1511759473075229,1,0,2,1,-2,-1,-1,1
1511759473096249,-2,0,-3,1,-2,-2,-3,0
1511759473096249,-6,-1,0,0,1,2,-4,-1
1511759473098250,-3,1,-1,-3,0,-2,-1,0
1511759473098250,2,0,2,2,-4,-2,1,-2
1511759473111247,0,1,1,-2,0,-1,1,1
1511759473111247,1,-4,-3,-5,2,-3,-1,-3
1511759473117251,-1,-2,-1,0,-2,-1,1,-5
1511759473117251,1,-2,1,1,-2,-2,2,-2
1511759473134263,-2,-1,-1,1,0,-3,0,0
1511759473134263,-1,-3,-3,-2,0,-2,-1,2
1511759473135264,-2,2,-1,-2,-1,0,-1,-1
1511759473135264,1,3,-2,2,-4,-2,-1,-3
1511759473156280,0,0,-2,-1,-1,-1,-3,-2
1511759473156280,-1,-2,-2,-4,0,1,-1,0
1511759473158280,-2,-3,1,-2,-3,-2,-1,0
1511759473158280,1,0,2,1,-2,-1,-3,-1
1511759473170289,-1,-3,0,0,-1,1,-5,0
1511759473170289,-3,-4,-3,-3,1,-1,1,2
1511759473179308,-4,-5,-3,0,-1,-1,0,-2
1511759473179308,1,-1,0,1,-3,-3,0,-4
1511759473194306,0,-2,-2,-1,-3,-3,2,-2
1511759473194306,-2,-2,0,-5,3,2,0,1
1511759473195307,4,1,1,0,-2,-2,-2,1
1511759473195307,0,2,1,3,-2,-2,0,-1
1511759473216321,-3,-3,-2,-1,-1,3,-2,-2
1511759473216321,-5,-1,-5,-3,-1,1,-1,-1
1511759473218323,-3,0,-2,-4,0,-1,0,-2
1511759473218323,0,-1,-1,-2,-2,-1,-4,-4
1511759473230331,1,-4,-2,-1,-2,-2,0,-1
1511759473230331,-4,-5,-3,-2,0,-1,-2,0
1511759473239363,0,-1,1,-1,-1,-2,-4,2
1511759473239363,3,2,1,1,-2,-1,1,1
1511759473254348,-1,2,1,-1,-1,0,-1,0
1511759473254348,-5,-1,-2,-3,1,2,3,1
1511759473255349,-1,-2,0,0,-1,2,-2,-3
1511759473255349,0,-1,-1,3,-3,-4,-1,-4
1511759473276371,-2,-3,-2,-1,0,-3,-1,-3
1511759473276371,1,-1,-3,-5,0,-3,-5,1
1511759473279366,-1,1,-3,-3,1,-1,1,2
1511759473279366,1,3,0,4,-2,0,3,-1
1511759473290380,-1,4,-1,-2,1,1,-1,-1
1511759473290380,-2,-1,-1,-4,-2,1,0,-2
1511759473316392,0,-1,2,-2,-2,-3,-1,-2
1511759473316392,1,0,-1,0,-2,-3,-1,0
1511759473316392,-4,-4,-1,2,2,-2,1,1
1511759473316392,-3,-7,-4,-3,1,0,-2,0
1511759473320407,-3,1,-2,-3,-2,1,-4,-2
1511759473320407,-1,4,-2,4,-3,-2,0,-3
1511759473336423,0,1,-3,-2,1,0,-3,-1
1511759473336423,-3,-5,-1,-2,1,2,0,-2
1511759473338420,-1,-4,0,-2,-2,-2,1,-3
1511759473338420,4,0,4,1,-3,-3,1,-1
1511759473350418,-1,-3,0,-3,-1,0,-2,0
1511759473350418,-3,-3,-3,0,2,-1,-2,1
1511759473359435,-5,0,-2,0,-4,-1,0,-1
1511759473359435,-1,2,-1,0,-3,-1,-2,-2
1511759473374434,-3,-1,0,-3,-1,-2,0,-2
1511759473374434,-4,-4,-2,-4,0,1,-1,1
1511759473375446,1,-2,2,0,0,0,0,1
1511759473375446,4,-2,0,1,-4,-1,-2,1
1511759473396461,2,-2,-1,-1,-1,0,-4,0
1511759473396461,-1,-3,-1,-4,0,-1,-1,-3
1511759473402463,1,0,-2,0,-1,-3,2,-2
1511759473402463,0,2,0,0,-1,-3,2,0
1511759473410468,-2,-1,-2,-2,-2,0,4,0
1511759473410468,-6,0,-4,-3,0,0,-1,2
1511759473419487,-1,3,0,-1,-1,-1,-6,1
1511759473419487,0,1,0,-2,-2,-1,-5,-5
1511759473434490,0,1,-1,-1,-1,0,0,-2
1511759473434490,-1,-3,1,-2,1,-1,-3,1
1511759473435477,1,-4,-1,1,-1,-1,0,1
1511759473435477,1,0,1,1,-2,0,-4,0
1511759473456504,0,-3,0,3,-1,-1,-4,-4
1511759473456504,0,-2,-3,-2,1,0,-2,-3
1511759473457493,-2,-4,2,1,-4,-1,3,-3
1511759473457493,0,-4,2,0,-2,-3,0,-1
1511759473470513,-3,0,-1,-2,-1,-1,2,1
1511759473470513,-4,-2,-3,-3,2,0,3,1
1511759473479508,0,1,-4,0,-3,-4,2,-1
1511759473479508,1,1,-1,-2,-1,-1,-1,-2
1511759473494518,-1,-4,-1,-3,0,0,-3,0
1511759473494518,-5,-3,-3,-3,-1,0,-4,-1
1511759473496520,2,1,-2,0,2,-2,2,-2
1511759473496520,-1,0,1,3,-3,-3,5,-1
1511759473516546,0,1,-2,0,0,0,0,1
1511759473516546,-3,-3,1,-2,0,-1,-2,2
1511759473518547,-1,-4,0,-3,-3,1,-3,-1
1511759473518547,1,-2,0,-2,-2,-2,-3,-2
1511759473529543,0,2,-3,-1,2,2,-5,-2
1511759473529543,-1,-1,-5,-4,1,-1,-3,-3
1511759473539550,-2,-2,1,-1,-3,-3,-1,-1
1511759473539550,-1,0,0,0,-4,-3,1,-4
1511759473553559,-1,-2,0,0,-4,1,1,-2
1511759473553559,-2,0,-2,-1,1,-1,-3,0
1511759473555561,-1,-4,0,0,-2,-2,-4,-2
1511759473555561,3,1,0,0,-1,-2,-1,-2
1511759473576576,0,-2,0,-3,0,1,0,1
1511759473576576,-3,-3,-1,-3,-1,-1,3,2
1511759473579578,-3,-2,1,-1,-1,-1,2,2
1511759473579578,1,-2,0,0,-3,2,0,-2
1511759473590590,-4,-1,-4,-3,-1,-2,-1,-1
1511759473590590,-4,1,-5,-3,0,1,-2,-2
1511759473598604,0,0,-2,1,-1,-2,-3,0
1511759473598604,-2,5,-1,1,-1,-2,-2,-2
1511759473613602,-1,0,-2,-1,0,-1,-2,-1
1511759473613602,-4,-1,3,-3,0,0,1,-1
1511759473615603,-2,0,0,0,-3,-3,0,-4
1511759473615603,3,-3,-2,0,-3,0,1,-2
1511759473636631,-1,-2,-4,-3,0,0,1,-1
1511759473636631,-3,-1,-1,-3,-1,-1,-5,-2
1511759473638620,2,-2,1,0,-2,-1,-2,0
1511759473638620,2,-2,-1,-1,-1,-3,-3,-2
1511759473658634,-2,-1,-4,-2,1,-2,-1,1
1511759473658634,-2,-1,0,-6,0,0,0,1
1511759473660635,0,0,-2,-1,1,1,1,0
1511759473660635,0,1,1,2,-3,-4,-1,-1
1511759473674646,-2,-3,-1,1,-2,2,0,-2
1511759473674646,-3,-2,-1,-1,1,2,0,-1
1511759473675646,-3,3,-1,0,-2,0,-2,0
1511759473675646,2,1,5,3,-2,-3,-3,2
1511759473696673,-1,-3,-7,-1,0,-3,0,-3
1511759473696673,0,-7,-3,-2,-2,1,1,-2
1511759473697673,0,-2,1,0,-2,0,1,-2
1511759473697673,1,0,-1,-1,0,0,1,0
1511759473718676,-1,4,0,-1,0,-1,-3,-1
1511759473718676,-4,-1,-3,-1,-1,-1,-1,-1
1511759473720677,0,1,-1,0,-2,-4,-3,-2
1511759473720677,1,0,-3,0,-3,-2,-3,3
1511759473733700,0,-2,0,-5,0,0,-1,-1
1511759473733700,-2,-1,0,-2,0,0,1,-1
1511759473735705,1,0,2,2,-3,-1,1,-1
1511759473735705,0,1,-3,1,-2,-1,0,-1
1511759473756724,-3,-3,-3,-3,-2,-1,-2,1
1511759473756724,-3,-2,1,1,0,-2,1,2
1511759473757708,-4,1,1,-2,-3,-4,-3,-1
1511759473757708,1,2,-1,0,-1,0,-5,-6
1511759473778728,-2,-2,-2,-2,1,1,-3,1
1511759473778728,-3,-3,-3,-1,-2,-1,0,-3
1511759473780730,-2,0,-1,2,-1,0,3,-3
1511759473780730,-2,1,-1,1,-3,0,2,-1
1511759473793747,-3,3,-2,-2,-1,-1,1,-3
1511759473793747,0,-1,-3,-4,0,0,-6,1
1511759473799743,4,-2,1,-2,-3,0,0,0
1511759473799743,-1,-3,0,-1,-2,-1,-1,-2
1511759473816745,-2,-4,-3,-1,2,-1,-3,1
1511759473816745,-5,-4,1,-2,-1,0,-2,0
1511759473817746,-1,0,2,-1,-3,-3,-2,-1
1511759473817746,-1,-1,-2,0,-3,1,-1,0
1511759473846783,-6,0,-3,-1,2,2,0,-3
1511759473846783,1,1,-2,-2,0,-3,0,1
1511759473847768,3,-1,4,-1,-2,-1,-5,-1
1511759473847768,1,2,4,0,0,-2,-1,-1
1511759473852773,1,-2,-2,1,-1,1,0,1
1511759473852773,-1,-1,-3,-2,0,1,2,-3
1511759473859776,-1,0,-2,1,-2,-4,2,1
1511759473859776,0,-1,1,0,-1,-1,0,0
1511759473876788,-7,-4,-2,-6,2,0,-1,-1
1511759473876788,-3,-3,-5,-6,-1,-1,-1,-2
1511759473878789,5,-1,0,2,-2,-3,-2,-2
1511759473878789,1,-3,-2,0,-1,-1,-2,-2
1511759473898815,2,-3,-2,-3,-1,-1,1,1
1511759473898815,-3,-1,0,1,-2,-1,-3,-1
1511759473900814,0,1,0,2,-2,-2,-1,-1
1511759473900814,0,3,-2,-1,-2,-1,3,-5
1511759473912823,-3,-3,0,-5,1,0,-3,-2
1511759473912823,-1,0,-2,-2,-2,-2,-4,-1
1511759473919833,-2,1,-1,3,-3,-1,0,-3
1511759473919833,1,1,3,2,-2,-2,-2,-1
1511759473936830,-2,-2,-2,-2,1,-3,-4,0
1511759473936830,0,0,-2,-3,0,0,0,1
1511759473938831,-1,0,0,-2,-1,-2,-1,-1
1511759473938831,1,-2,-1,-1,-1,0,0,-1
1511759473958853,0,-2,-3,-1,-1,2,-1,-2
1511759473958853,-3,-2,-1,-2,1,-2,-4,-1
1511759473962865,0,-2,0,0,-2,-2,0,-1
1511759473962865,0,0,-2,0,-1,-1,-4,1
1511759473973873,0,-1,-3,-2,0,1,-1,0
