timestamp,emg1,emg2,emg3,emg4,emg5,emg6,emg7,emg8
1512459557663156,0,0,-1,0,-1,-1,-1,-2
1512459557663156,-1,-2,0,1,-4,-1,1,-2
1512459557664155,-5,-2,-1,-2,1,0,-3,-3
1512459557664155,-2,0,-2,-2,-3,-1,0,2
1512459557685170,-4,-3,-2,-2,2,-1,-2,-1
1512459557685170,0,-2,-2,-1,-2,-1,-2,-1
1512459557686171,1,-2,-3,-2,-1,-1,2,-1
1512459557686171,0,-1,0,-1,-1,-2,-3,-2
1512459557700186,-1,-2,2,0,-1,0,-1,1
1512459557700186,-2,-1,-1,0,-1,-1,-4,-2
1512459557700186,-1,0,1,-1,-1,-2,0,-4
1512459557700186,-1,1,-1,0,0,-1,-2,-1
1512459557723197,5,2,0,0,-2,0,2,0
1512459557723197,-1,-2,0,-3,-2,-3,1,-1
1512459557724198,-3,2,-2,1,1,-3,-4,1
1512459557724198,1,-2,0,0,-1,-1,-2,-1
1512459557745212,-2,1,-3,-1,1,0,-2,3
1512459557745212,2,1,-1,-2,-4,0,-1,-1
1512459557746212,-2,-2,-1,-2,-3,-2,2,-2
1512459557746212,-1,-1,-2,-1,-1,-2,3,-1
1512459557760223,1,-5,-2,-1,-2,-4,-3,-2
1512459557760223,-1,-2,-1,-2,0,0,-2,-2
1512459557760223,-1,0,-1,-1,-4,1,2,-2
1512459557760223,0,-2,0,-1,-2,0,-2,-2
1512459557783240,0,0,0,-3,1,-1,2,-2
1512459557783240,-5,-2,-1,-1,-1,-2,-1,-2
1512459557784240,-1,0,-1,-1,0,-2,-2,-1
1512459557784240,-5,-1,-1,-2,-1,-1,-3,-1
1512459557805258,-3,-4,-2,-3,-1,1,-1,3
1512459557805258,0,-1,2,-2,-3,-1,-2,-1
1512459557807256,0,-1,-1,1,0,-1,0,-2
1512459557807256,0,0,-2,-1,-1,0,-3,-2
1512459557819267,-3,3,-2,-1,0,-2,0,0
1512459557819267,-1,1,0,-3,-3,0,-3,-1
1512459557820268,-2,-2,-2,-2,0,-1,-2,0
1512459557820268,-1,-1,-1,1,-3,-1,0,1
1512459557843285,0,-1,-4,0,2,-1,-3,-1
1512459557843285,0,-3,-2,1,-1,0,-1,-1
1512459557844301,-3,1,-1,-2,-1,0,-1,-3
1512459557844301,1,-2,-1,-2,-1,-1,0,-1
1512459557866298,2,-1,1,-1,-2,0,-1,-2
1512459557866298,-3,0,0,0,0,-2,-1,-1
1512459557867299,0,-2,0,-1,1,-3,0,-2
1512459557867299,-2,-1,-2,-2,-2,-3,0,-2
1512459557879308,-1,0,-2,-3,-3,-2,0,-1
1512459557879308,-1,-1,-3,0,0,-1,-3,0
1512459557880308,-2,-2,-1,0,-3,1,-1,0
1512459557880308,-2,0,0,-1,0,-2,1,-1
1512459557903339,1,-1,-1,-2,0,1,0,-2
1512459557903339,1,-1,-3,-1,0,-1,-1,0
1512459557904334,-1,-1,1,-1,-2,-1,0,1
1512459557904334,-2,-2,1,-1,-1,2,2,3
1512459557925344,-3,-3,0,-1,1,-1,-1,0
1512459557925344,2,1,-2,-1,-2,-2,-1,-2
1512459557926342,-1,-2,0,-2,0,-3,0,1
1512459557926342,2,0,1,0,-2,0,-3,1
1512459557939350,-1,0,-1,-1,0,-2,-1,-2
1512459557939350,-1,-1,-3,-1,-2,1,1,-1
1512459557940351,0,-1,0,-1,2,-2,-2,-3
1512459557940351,-2,0,-1,-2,-1,1,1,-2
1512459557963366,-2,0,-3,0,-3,-1,-6,-1
1512459557963366,-2,-1,1,-1,0,-2,0,2
1512459557963366,-1,2,-3,-1,-4,1,-1,-5
1512459557963366,0,-2,0,-3,2,-1,-2,0
1512459557985382,-1,-3,-1,1,0,1,0,1
1512459557985382,-4,0,-1,0,0,-1,-3,-4
1512459557986382,1,-1,-2,-2,-1,-2,0,-1
1512459557986382,-1,-2,0,-1,-3,-3,-2,-2
1512459557999395,-1,0,0,-1,-4,3,-1,-1
1512459557999395,-1,-2,-2,0,-1,0,-2,-1
1512459558008403,-2,0,1,0,-1,1,-2,2
1512459558008403,-1,1,-3,1,-3,-1,1,-1
1512459558023437,-2,-2,-2,-1,1,-1,0,-1
1512459558023437,-1,-3,-2,-1,-1,-1,-2,0
1512459558023437,-4,-3,0,-2,-3,-3,-5,-2
1512459558023437,-1,-1,-1,0,-2,-1,1,0
1512459558045446,0,0,0,0,0,-1,0,1
1512459558045446,-1,1,0,-1,-3,0,1,0
1512459558047446,-5,-2,0,-1,-2,-1,-1,-4
1512459558047446,1,-1,-1,-1,-1,-2,-3,1
1512459558059455,-2,-2,-3,-3,-3,-1,0,1
1512459558059455,-2,-1,0,-2,0,1,0,-3
1512459558068460,0,-2,-1,0,-2,1,1,-1
1512459558068460,-1,-1,-1,1,2,1,0,0
1512459558083453,0,-1,-1,-1,-3,1,-2,-1
1512459558083453,-2,-1,1,-2,0,-3,0,-3
1512459558084454,0,-1,-2,-2,-2,-1,-3,-2
1512459558084454,-1,-1,-1,1,0,1,0,-1
1512459558105481,1,0,-3,-1,-1,-2,1,-2
1512459558105481,-3,-1,-2,-2,0,-1,1,1
1512459558107482,-5,0,-1,-1,2,0,-2,-1
1512459558107482,-1,-2,-2,-2,-3,-2,0,-2
1512459558119480,-1,0,-2,-2,-1,-2,-4,-2
1512459558119480,1,-2,0,-2,0,-2,-2,-1
1512459558128487,-4,0,-1,0,-1,-2,1,-5
1512459558128487,-3,-1,-1,-2,-2,-1,-3,-1
1512459558143495,2,-2,-1,1,2,-1,-2,-2
1512459558143495,0,-1,-2,1,-3,-2,-1,-2
1512459558144496,2,0,-1,0,-1,0,0,-1
1512459558144496,0,0,0,-3,1,0,0,0
1512459558165510,-3,-1,-3,2,-1,-1,-1,2
1512459558165510,-1,-1,1,-1,1,-2,-1,-2
1512459558167512,1,-2,1,-1,-1,-1,1,2
1512459558167512,-1,-1,-1,-1,0,-1,-1,-3
1512459558179518,-1,-2,-1,0,0,1,-2,-2
1512459558179518,-1,-2,-3,-2,-2,2,-2,1
1512459558188526,-4,-2,-2,-2,-3,-3,-2,-2
1512459558188526,1,0,-2,-2,0,-1,0,-5
1512459558203536,-2,-1,0,0,1,-1,-2,2
1512459558203536,-3,0,-1,0,-4,-1,-1,-3
1512459558204537,-1,-2,-1,-3,-2,-1,-1,-3
1512459558204537,-3,0,-3,-1,-1,0,-3,-1
1512459558225552,3,-3,0,-3,0,-2,0,0
1512459558225552,-3,-1,0,-1,-2,-2,1,-2
1512459558227556,1,-1,-1,-1,-2,-2,-3,-2
1512459558227556,-1,1,-1,-2,-1,-3,-1,0
1512459558239562,-1,0,-2,-1,-3,1,-2,1
1512459558239562,-2,0,-2,-1,0,0,-1,2
1512459558248569,0,0,-1,0,-4,-2,-2,2
1512459558248569,-5,-1,-1,-1,0,-1,-2,0
1512459558262581,1,-1,1,-3,0,-1,0,-2
1512459558262581,1,-1,-2,-1,-3,-1,0,-3
1512459558264581,0,1,-2,-1,0,1,-2,0
1512459558264581,-1,-1,-1,0,-5,-2,-1,0
1512459558285595,-2,-1,0,-2,0,-2,-1,-1
1512459558285595,-2,1,-1,-2,2,0,-1,-3
1512459558286595,-1,-2,0,0,-2,-1,-1,-3
1512459558286595,-1,-1,0,-2,1,-1,1,1
1512459558299604,1,-1,-1,-2,2,0,0,2
1512459558299604,0,-1,-1,-1,-1,-2,-3,-2
1512459558308614,-1,-1,-1,-1,0,-2,-2,-1
1512459558308614,1,-1,-3,-1,-1,0,0,0
1512459558322621,0,0,-2,-2,-2,-1,-1,0
1512459558322621,0,0,-2,-1,1,-1,-1,0
1512459558324621,1,-2,-1,1,0,-1,-1,-5
1512459558324621,0,0,1,-2,-2,0,-1,-2
1512459558345637,-2,-1,-1,-3,0,-1,-1,-1
1512459558345637,-1,-2,-1,-1,-5,0,-3,0
1512459558346637,-3,0,-1,-2,-2,0,1,0
1512459558346637,-1,0,-2,-1,-2,-3,-3,-2
1512459558359649,0,-1,0,0,3,0,-2,0
1512459558359649,-1,-2,0,-1,-3,-1,-2,-3
1512459558368654,-1,0,0,-1,-3,-3,-2,-3
1512459558368654,0,-2,-2,0,-1,-1,-1,0
1512459558382663,-3,-1,-1,-1,1,-1,1,0
1512459558382663,1,-3,0,-1,-1,-2,0,1
1512459558384663,-2,1,-2,-3,-1,-1,-2,-2
1512459558384663,-2,-1,0,-1,-2,-1,-2,-2
1512459558405682,3,-1,-2,-1,-1,0,-4,1
1512459558405682,0,-1,0,-2,0,-2,0,0
1512459558407680,-4,1,-1,-1,-2,0,-1,-1
1512459558407680,-1,-2,0,-2,-3,0,1,-1
1512459558418689,-3,-2,-2,0,-1,0,-1,0
1512459558418689,-1,-1,-1,1,-2,-1,2,-2
1512459558427694,-2,1,0,-2,4,-2,-2,-1
1512459558427694,0,-1,2,2,-1,-2,-1,1
1512459558442705,1,-1,-1,-4,-3,-3,-2,-2
1512459558442705,0,-2,-1,-1,-2,-1,-1,-2
1512459558444707,-3,-1,-1,-2,-4,-1,-1,-3
1512459558444707,1,-1,-2,-1,1,2,0,-2
1512459558465722,-1,-4,0,2,-3,0,-1,2
1512459558465722,-2,1,-1,-4,-2,-1,-2,-2
1512459558466723,-2,-1,0,-2,-2,-2,-1,0
1512459558466723,-1,-1,-4,-2,0,-3,-2,1
1512459558478731,0,-2,-1,-1,-3,-3,-3,-2
1512459558478731,-2,-2,-3,-1,0,0,0,-1
1512459558487737,-1,-3,-3,2,-2,0,3,1
1512459558487737,-1,-1,-3,-1,0,-2,-2,-1
1512459558502751,-1,-1,-2,0,3,1,1,-2
1512459558502751,1,1,-1,-2,-1,-3,-3,-1
1512459558504749,-2,-1,-1,-2,-1,-1,-1,0
1512459558504749,0,-1,1,-1,-1,-2,-2,0
1512459558525765,-1,0,-1,0,-3,-1,0,1
1512459558525765,-3,-2,0,1,1,-1,-3,0
1512459558532769,0,-2,-1,-2,-3,0,1,-2
1512459558532769,-3,0,0,-2,-5,0,-2,-3
1512459558538774,0,-1,1,-1,1,-1,1,-1
1512459558538774,1,-3,-1,0,-1,-1,-2,0
1512459558547795,0,-2,-1,-2,-5,-1,3,-3
1512459558547795,-1,0,-2,0,0,-3,1,-2
1512459558562805,1,0,-1,-1,-2,0,-2,1
1512459558562805,-3,-1,-2,-2,0,1,1,1
1512459558564791,-1,1,-1,1,0,-3,1,-3
1512459558564791,-3,-1,-2,-3,-1,-1,-5,0
1512459558585821,1,-2,-2,-2,0,-1,1,2
1512459558585821,-1,-1,-1,0,0,-1,0,0
1512459558586813,-1,-2,-1,-3,-3,1,-2,-1
1512459558586813,-2,0,-1,-1,-1,0,1,-4
1512459558615828,1,-1,-2,0,2,0,0,-1
1512459558615828,-3,-2,-2,0,-3,-2,-4,0
1512459558616829,-2,-1,-2,-3,-2,-2,0,1
1512459558616829,-2,-1,3,-2,-2,-1,0,-3
1512459558622836,2,0,-3,1,0,-3,-2,-2
1512459558622836,0,-1,-2,0,-1,-2,0,-3
1512459558624837,-1,-2,0,-2,0,0,-3,0
1512459558624837,-1,1,-1,0,-3,-3,-2,2
1512459558652855,-3,-2,-2,-1,1,0,1,-1
1512459558652855,-1,-2,1,-1,0,1,-1,0
1512459558654856,1,-1,1,-3,-4,-1,-1,-3
1512459558654856,-1,-4,-2,-1,0,-2,-1,-1
1512459558667865,-3,0,-1,-3,-3,-2,0,-1
1512459558667865,-2,0,-1,0,-3,-1,-1,-1
1512459558669865,-2,-1,-2,-1,-2,0,0,-4
1512459558669865,-1,-2,1,0,1,3,0,0
1512459558682888,2,-2,-2,0,-1,-2,1,-1
1512459558682888,-1,-1,-2,-2,-3,-2,1,-2
1512459558684889,-3,1,0,0,0,-1,-1,0
1512459558684889,-2,1,-3,-3,-1,-1,-2,-1
1512459558705951,-2,-3,0,-2,-1,-1,-2,2
1512459558705951,1,-1,-2,0,-2,2,-2,-1
1512459558707892,2,-2,0,-2,1,-2,-1,-2
1512459558707892,-2,0,-1,-2,-1,-3,-1,0
1512459558727911,-1,-1,-1,0,-1,-2,-2,-1
1512459558727911,-1,-2,0,-4,0,-2,0,-1
1512459558729913,-3,1,-2,1,0,-2,-1,0
1512459558729913,-1,-1,-2,-1,0,1,1,0
1512459558742919,-1,0,0,-2,-2,-1,-2,-2
1512459558742919,-1,0,0,0,-2,-2,-4,0
1512459558744920,-3,-1,-4,2,-4,-2,-2,0
1512459558744920,2,-3,1,-1,-2,-1,3,-3
1512459558765935,0,-2,-3,0,0,0,-2,0
1512459558765935,-1,1,0,-2,0,-1,2,-1
1512459558766936,-1,-3,2,0,-1,-2,-4,-2
1512459558766936,-3,2,0,-1,-1,-1,-2,-2
1512459558787950,2,-1,-2,-2,-1,2,-1,2
1512459558787950,-2,-2,-3,1,0,-3,-1,-3
1512459558789951,0,-3,-1,-1,1,-1,0,-3
1512459558789951,-1,-2,-1,-2,-1,-1,-1,2
1512459558801960,1,0,0,-2,-1,0,-4,0
1512459558801960,3,-1,-1,1,0,-1,0,-2
1512459558808965,-3,1,0,-3,-1,0,1,0
1512459558808965,1,-1,-2,0,-2,-1,-2,-2
1512459558825978,-1,-1,-3,2,1,-1,0,-2
1512459558825978,0,-4,-3,0,-2,0,-1,-1
1512459558826976,-3,1,0,-1,-3,0,-3,-3
1512459558826976,-1,0,-3,-2,-2,-2,1,-1
1512459558847994,0,1,-4,-1,1,-1,-2,2
1512459558847994,-3,-2,-1,0,2,-2,1,-1
1512459558849993,-2,0,1,1,-4,-1,1,-1
1512459558849993,-2,-1,-1,-3,0,1,-1,-3
1512459558862001,0,-2,0,0,1,-2,0,-1
1512459558862001,0,0,-2,-2,-2,1,-1,1
1512459558869006,-1,-1,-2,1,-2,-3,-1,-3
1512459558869006,0,1,0,1,-2,-2,-2,0
1512459558886033,-1,-3,1,0,-2,0,0,-4
1512459558886033,-1,-3,-1,-2,-2,-1,-1,2
1512459558887020,-3,0,-2,-2,-1,-2,0,-3
1512459558887020,-2,-1,-1,-2,-1,-1,-1,0
1512459558908035,-1,-3,-2,-2,-1,-2,-2,2
1512459558908035,0,0,-1,-3,-1,-1,0,-3
1512459558910037,0,0,-1,-1,1,0,-2,-1
1512459558910037,-1,-1,-1,0,0,-1,-2,-3
1512459558930053,-1,-3,-1,-3,1,1,2,0
1512459558930053,-3,-1,-2,-2,-2,-1,-3,-2
1512459558932054,-1,0,-1,-1,-4,-2,-1,-1
1512459558932054,-3,-2,0,0,-2,-2,-2,-1
1512459558945077,0,1,-2,-1,1,-1,0,1
1512459558945077,-1,-2,-3,-1,0,-1,1,-2
1512459558947062,-5,-2,0,1,0,-1,-1,-1
1512459558947062,0,0,-2,-1,-1,-3,0,-2
1512459558968077,0,0,-3,-3,-4,0,-2,-2
1512459558968077,-1,0,-1,1,0,0,-3,1
1512459558970079,-1,-3,-2,0,-2,-2,-1,0
1512459558970079,-2,-1,-2,-1,-1,-1,-1,-3
1512459558982087,-1,0,-1,0,-1,0,-3,-1
1512459558982087,0,-2,-3,-1,2,-3,-1,-2
1512459558989103,-2,0,-2,-2,-1,-1,-1,0
1512459558989103,-1,-2,1,-2,-1,-4,1,1
1512459559006105,-2,-1,0,-1,-2,0,-1,-2
1512459559006105,-2,-1,-1,-3,-1,-1,-2,0
1512459559008116,-1,-2,2,-1,-1,3,-1,-3
1512459559008116,1,0,-2,0,-1,1,-1,1
1512459559028119,-1,0,-3,1,-2,0,-1,1
1512459559028119,0,-2,0,1,-3,-2,-1,2
1512459559029120,-1,0,0,1,0,-2,0,-1
1512459559029120,-2,-1,1,-1,2,0,-1,0
1512459559043130,4,-1,1,-2,1,-3,1,-2
1512459559043130,-2,0,-1,-2,-3,0,-1,-2
1512459559049149,-1,0,-3,-3,-1,-2,-1,-1
1512459559049149,1,0,-2,-1,-2,2,0,-1
1512459559065148,-1,-2,0,-1,0,-2,-1,-3
1512459559065148,-1,-1,-1,0,-1,-2,-2,-2
1512459559067146,0,-2,0,-2,0,-1,-4,-3
1512459559067146,-2,-3,-3,-1,-3,-1,-1,0
1512459559088163,-1,-2,0,-2,-1,0,2,0
1512459559088163,2,0,-3,-3,-4,-3,-2,0
1512459559089164,-2,-2,0,-1,-2,-2,1,-1
1512459559089164,0,-2,-1,-2,0,-1,-1,1
1512459559101174,-2,1,-3,1,1,-1,-1,-1
1512459559101174,-3,0,0,-1,0,2,-3,-1
1512459559111179,-1,2,-1,-3,-1,-1,-1,2
1512459559111179,0,0,-1,-1,-1,-1,-2,-3
1512459559126194,-3,-3,-1,1,-1,-1,0,0
1512459559126194,-1,0,0,-1,-1,0,2,-2
1512459559127191,0,-1,-1,-2,1,-1,-1,-2
1512459559127191,-3,-1,-1,-1,0,0,-2,-2
1512459559155212,1,-2,0,-1,-1,-2,1,4
1512459559155212,-1,-2,-2,-2,1,-1,-1,-2
1512459559157210,0,-2,-2,-1,-1,-1,1,0
1512459559157210,-2,0,-1,-1,-1,-2,0,-2
1512459559161214,-3,0,0,-1,-3,-2,-2,1
1512459559161214,-4,0,-2,0,-1,0,-1,-1
1512459559171220,-1,-1,0,-3,-2,1,-4,-3
1512459559171220,-3,1,0,0,0,2,-2,0
1512459559185231,0,-2,-3,1,-2,-1,-2,0
1512459559185231,-1,-2,0,-1,-4,-1,-1,1
1512459559187232,-3,0,-4,-3,-2,-3,1,-4
1512459559187232,0,-1,-1,0,-2,-2,2,-1
1512459559208246,-1,-1,0,-1,0,0,-1,-2
1512459559208246,2,-1,-1,-2,0,-2,0,-2
1512459559209250,-4,-1,-1,2,0,-1,0,0
1512459559209250,0,-1,-1,-2,-1,1,-1,-1
1512459559221259,1,1,-4,-1,1,0,0,-1
1512459559221259,-2,0,-2,-1,-1,0,-1,-2
1512459559230261,-1,0,0,1,-4,-3,-1,-3
1512459559230261,-2,-2,0,-1,-2,-1,-1,0
1512459559245273,-1,-2,1,-4,-2,-1,-1,-1
1512459559245273,-3,-1,1,-2,0,1,-3,-2
1512459559247273,-1,0,-1,0,0,1,1,-2
1512459559247273,-1,-2,-1,-1,1,-2,0,-1
1512459559268358,2,0,-2,-1,-4,0,-4,1
1512459559268358,-5,-1,-1,2,2,0,-1,-2
1512459559269350,-1,-1,-2,1,-3,-4,0,0
1512459559269350,-2,0,-1,-2,-2,-1,1,-2
1512459559290366,0,-3,-1,-1,1,0,-4,0
1512459559290366,1,-1,0,-2,-3,-2,1,-2
1512459559292367,-2,0,-2,-1,1,0,-1,-1
1512459559292367,-2,-1,-1,0,1,0,-4,-1
1512459559305455,-3,-3,-3,-2,1,-1,0,-1
1512459559305455,0,-1,-2,-3,-1,-3,-1,0
1512459559308378,-2,2,0,-2,-2,-1,0,-3
1512459559308378,3,-2,-2,-1,-2,-3,2,1
1512459559328393,-2,-1,0,-1,2,-2,-2,0
1512459559328393,-1,-4,-1,-1,-3,2,1,-2
1512459559329393,-3,1,-2,-3,-4,-1,0,-1
1512459559329393,1,-2,-2,-1,0,-1,-2,1
1512459559341401,-2,-1,-1,0,-3,-1,0,1
1512459559341401,-3,0,0,0,-2,-1,-2,1
1512459559350407,1,-3,-1,-2,1,-1,0,-3
1512459559350407,-1,-1,-3,-4,-2,-1,-2,-2
1512459559365418,-2,-1,-2,0,-1,-3,0,-2
1512459559365418,-2,-1,-2,-2,-3,-1,0,-1
1512459559367420,0,0,1,-1,2,-1,-1,-1
1512459559367420,-2,-1,-2,0,-2,-1,-1,-2
1512459559388434,-1,-1,0,2,0,0,-1,-2
1512459559388434,0,1,-2,0,0,-2,0,-1
1512459559389435,-2,-1,0,-1,0,1,-2,-2
1512459559389435,-1,-1,-1,-3,3,0,-2,2
1512459559401456,-1,-1,0,-1,0,0,-1,-1
1512459559401456,-1,0,-2,-3,1,0,-1,-3
1512459559410451,-1,-3,0,-1,0,-2,0,1
1512459559410451,2,-1,-2,-2,0,-1,-1,-1
1512459559425464,0,-3,-2,-1,-4,-1,-3,-4
1512459559425464,-2,0,-3,-1,-2,-1,0,-1
1512459559427471,-1,2,-1,-1,-2,-1,-3,0
1512459559427471,-3,-2,1,0,0,-1,-1,1
1512459559448491,-1,-2,-1,-3,-1,1,1,-2
1512459559448491,-2,-2,-2,0,-2,-1,-1,-2
1512459559449483,-1,1,-2,-1,-3,-1,-2,0
1512459559449483,1,0,-1,0,0,1,1,0
1512459559462503,-2,-1,-1,-2,1,-2,-2,0
1512459559462503,-1,-2,1,0,-1,0,-1,1
1512459559471499,1,-2,-1,-1,-2,-4,0,-4
1512459559471499,-1,-1,-2,1,0,-2,-1,-1
1512459559485519,0,-2,0,-1,-1,0,-1,3
1512459559485519,0,-2,-1,0,0,0,-4,0
1512459559487521,-4,1,0,0,-3,-2,0,-1
1512459559487521,-1,-3,-2,-1,1,0,0,-3
1512459559508522,-1,-4,-1,1,-1,-3,-1,0
1512459559508522,-4,-3,0,0,1,-3,-1,-3
1512459559509522,0,-3,0,-2,0,-1,0,1
1512459559509522,-2,0,-1,-1,-3,0,0,-1
1512459559521538,1,-1,0,-2,1,1,-1,2
1512459559521538,1,-3,-3,1,-3,-2,-2,-2
1512459559530544,-4,0,0,-1,-1,-3,0,-2
1512459559530544,1,-1,0,-1,-5,-1,2,-3
1512459559545555,-1,2,-4,-2,-1,-2,-3,-1
1512459559545555,-3,-2,-1,-2,-2,-1,0,0
1512459559547547,2,-1,-1,-1,-1,1,0,-2
1512459559547547,-1,-2,-1,1,1,-2,0,0
1512459559567573,-1,-1,-2,-1,0,1,-1,0
1512459559567573,-1,1,-1,-1,-1,0,-3,-1
1512459559569565,-3,0,-1,-1,-1,-1,-1,1
1512459559569565,-2,-1,0,-2,1,-1,-1,1
1512459559590615,0,-1,-3,1,-2,-2,0,-6
1512459559590615,0,-1,-1,-3,-2,-3,1,-1
1512459559592578,-1,0,-1,-1,-1,0,-1,-2
1512459559592578,0,-1,-1,-2,-2,-2,-3,1
1512459559604596,-2,-1,-1,-3,-3,-1,-4,1
1512459559604596,0,0,-2,-2,0,-2,0,-2
1512459559613609,1,-2,-1,0,-1,-3,0,-2
1512459559613609,-2,1,-2,-1,0,-1,1,2
1512459559627615,-3,-2,-2,-1,2,0,2,0
1512459559627615,0,0,0,-1,-3,0,-1,-2
1512459559629606,-1,-2,0,-2,-3,0,-3,-1
1512459559629606,1,-3,-2,-1,2,-2,0,-4
1512459559650658,-2,-2,-1,0,-1,-2,1,0
1512459559650658,-2,0,-1,0,0,-2,-2,-2
1512459559651632,-3,0,-3,1,-1,0,-1,-1
1512459559651632,2,0,-5,0,-2,1,-2,-1
1512459559664639,-2,-2,-2,0,0,-3,0,-1
1512459559664639,-1,-1,1,0,-2,0,1,-2
1512459559671644,-5,-2,-1,-2,-1,-1,0,-2
1512459559671644,-1,2,-1,-1,-2,-1,0,-1
1512459559686655,-1,0,2,-2,-1,-2,-2,-3
1512459559686655,-1,-2,-1,0,-4,0,-1,-3
1512459559695651,0,-1,1,-1,-2,-2,0,1
1512459559695651,-1,-3,-1,-1,-1,0,-2,-1
1512459559710662,2,-2,-1,0,0,0,-2,0
1512459559710662,-3,-1,1,-1,-3,-2,-1,-2
1512459559711678,-2,1,-2,-2,-4,-1,-1,-1
1512459559711678,0,-1,1,-1,-3,-2,0,4
1512459559724684,-2,-1,2,1,-2,-2,1,-1
1512459559724684,-2,-1,-2,-2,-1,-1,-1,-2
1512459559731689,-2,-1,-1,1,1,0,-1,-1
1512459559731689,-2,-3,-1,-2,0,0,-3,-3
1512459559747688,0,1,-2,-3,-2,-1,-2,-2
1512459559747688,-1,-2,-2,1,0,-2,-2,0
1512459559749689,-1,0,1,-2,-3,-1,-2,-4
1512459559749689,-3,-1,-1,1,0,-3,-2,1
1512459559770743,0,-2,0,-3,-1,0,0,-2
1512459559770743,-1,-1,-2,-1,-1,-3,-1,2
1512459559771718,-2,-2,-2,-1,-4,-1,-1,1
1512459559771718,-2,-2,-2,-1,0,-3,-1,-1
1512459559784731,-2,0,-2,-1,1,1,-4,-4
1512459559784731,-1,-2,-1,-2,1,-1,-1,-3
1512459559791757,0,-2,-2,-1,2,1,-1,1
1512459559791757,0,1,-1,-1,0,0,-1,-1
1512459559807748,-2,-1,-3,-1,-3,-2,-2,1
1512459559807748,0,-3,-1,1,-2,-1,2,-2
1512459559809734,0,1,-2,-2,1,-3,0,-1
1512459559809734,2,-2,-3,-2,1,-1,-2,-3
1512459559830759,2,-1,0,-1,0,1,-2,3
1512459559830759,-3,-1,-1,1,0,-2,0,-4
1512459559831757,-2,0,0,2,-2,-2,-3,-2
1512459559831757,1,-1,-1,-2,-2,3,1,1
1512459559844769,-1,-4,-3,-2,-2,0,-1,-2
1512459559844769,-1,-2,-2,-2,-2,-2,-2,0
1512459559851797,-2,-1,2,-1,1,-1,-1,-2
1512459559851797,-2,0,0,0,-2,-2,0,1
1512459559867839,0,-1,-4,1,-1,0,2,0
1512459559867839,-1,-2,-3,-3,-1,1,-2,1
1512459559869840,0,-2,-2,-2,-1,-3,0,-1
1512459559869840,0,-2,-1,1,0,-1,-1,0
1512459559897885,-3,0,1,-1,-1,-4,0,-2
1512459559897885,-1,0,0,-1,-2,-3,0,-1
1512459559899885,-1,-1,-2,-2,-3,1,-2,-1
1512459559899885,0,0,-1,-1,0,0,-2,-3
1512459559904885,-1,-1,0,-2,0,-1,-3,1
1512459559904885,-2,1,-1,-2,-2,-1,-4,-1
1512459559911886,-3,-2,-2,-3,-4,-2,-3,-1
1512459559911886,-2,-2,-1,0,0,-1,-1,-3
1512459559927884,-1,1,-3,-2,0,-2,0,-2
1512459559927884,1,0,0,-2,-2,0,1,-1
1512459559929885,0,-1,-1,0,-2,-1,1,-1
1512459559929885,-2,-3,-1,-1,-3,0,0,2
1512459559950906,-1,-2,-2,0,-2,-1,1,-1
1512459559950906,-1,-1,1,0,-2,0,-1,2
1512459559951898,1,-1,0,-2,2,-1,-3,-1
1512459559951898,1,-1,-2,-2,2,-1,-2,1
1512459559964908,0,0,1,-1,0,-3,-1,-4
1512459559964908,-6,-2,-1,-2,-1,-1,0,0
1512459559971913,1,-2,-2,-1,2,-1,0,-2
1512459559971913,0,-1,0,-2,0,-2,-3,0
1512459559987924,0,-3,-1,0,0,1,0,-1
1512459559987924,-1,0,1,-1,-2,-3,0,0
1512459559989925,1,1,-1,0,-2,1,-3,-2
1512459559989925,-3,-1,0,-1,-3,-1,4,-2
1512459560010957,-1,-2,-2,-2,-2,-2,-2,-2
1512459560010957,-2,-1,2,-1,0,-1,-2,-3
1512459560011939,-1,1,-1,1,-1,1,2,1
1512459560011939,-2,-1,-2,-1,1,-1,-2,-1
1512459560024950,-1,-1,0,-1,-1,1,-2,0
1512459560024950,0,-1,-3,-1,-1,-2,-2,-4
1512459560031955,-4,-1,-2,0,-2,-3,2,-1
1512459560031955,0,-1,-1,0,1,1,-1,-1
1512459560047977,-3,-1,-2,-3,1,-1,-1,0
1512459560047977,0,0,-2,-3,-3,1,-2,-2
1512459560049966,-3,-2,-1,-2,-3,0,0,-5
1512459560049966,2,-1,-3,-2,-2,0,2,0
1512459560070982,0,-1,1,-1,-2,0,-4,-2
1512459560070982,-1,-2,-2,-1,-2,-3,1,-1
1512459560071983,-3,0,-2,-3,1,-2,0,0
1512459560071983,1,-1,-1,1,0,-2,-2,-1
1512459560083991,1,0,-1,-1,-2,-1,2,-1
1512459560083991,0,-1,-1,0,2,0,-1,-2
1512459560092997,-1,-2,0,-1,-3,-2,-1,0
1512459560092997,-2,0,-1,-3,-1,-2,0,-1
1512459560108021,0,-2,-2,-2,-3,-1,-2,-1
1512459560108021,-1,0,0,1,-2,0,-2,-2
1512459560110012,0,0,-2,1,-1,-2,-2,-4
1512459560110012,-1,-1,-3,-2,-1,1,-3,1
1512459560138104,-2,-1,-1,-1,0,-1,-1,-2
1512459560138104,-4,0,-2,-1,-3,1,0,-3
1512459560140093,0,-2,-1,-1,-1,-5,-2,-1
1512459560140093,1,-1,0,-2,-1,0,3,-1
1512459560144093,-2,-1,1,2,-2,-1,-2,2
1512459560144093,-3,1,-3,0,0,-4,-1,-3
1512459560153090,-4,0,0,-1,-1,1,-3,-1
1512459560153090,0,-1,-1,-2,-3,0,-2,1
1512459560168109,-3,-2,-1,-3,0,-1,-1,0
1512459560168109,-1,0,2,-1,-1,-4,-1,-2
1512459560169111,1,1,-4,0,0,0,3,-1
1512459560169111,-2,-1,-1,1,1,0,1,-3
1512459560190172,-1,0,-2,-2,-2,1,-1,1
1512459560190172,-6,0,-1,-1,-3,-1,-1,1
1512459560192142,1,-1,-1,-3,-5,-2,-2,-2
1512459560192142,0,-3,-1,-1,4,0,0,0
1512459560204191,2,-2,0,-1,-2,-2,0,-3
1512459560204191,-3,-2,0,-3,0,0,-2,-3
1512459560213132,-3,-1,-2,-1,-2,1,-1,1
1512459560213132,0,-2,0,0,1,-1,-2,4
1512459560228142,-1,-3,-2,1,1,0,1,-1
1512459560228142,-1,-2,0,-1,-2,-1,-1,-1
1512459560229143,1,-1,2,-2,-2,-1,-4,-1
1512459560229143,-3,-3,-3,-2,-1,-2,-1,0
1512459560251159,2,0,0,-2,1,0,-2,-1
1512459560251159,-1,-2,0,-1,-4,0,-1,0
1512459560253177,-1,-2,-1,-2,1,-1,0,-2
1512459560253177,2,-1,0,0,-3,0,-2,-3
1512459560264191,0,-2,-2,0,-4,0,-1,-2
1512459560264191,-2,-1,-4,-1,0,-1,-2,-4
1512459560273175,1,1,-1,-1,-1,0,2,0
1512459560273175,-1,-1,-2,-2,-2,-1,-6,0
1512459560288185,-1,-2,-2,-1,-3,-3,1,-2
1512459560288185,0,1,-1,-1,-2,0,-2,-2
1512459560289186,-2,-1,-1,-2,0,-3,-1,0
1512459560289186,-2,-3,0,0,-1,0,-3,-2
1512459560310213,0,0,-4,-1,-2,0,0,2
1512459560310213,0,-2,-1,-3,-2,-2,1,0
1512459560312203,-3,-1,-1,-1,0,0,0,0
1512459560312203,-2,0,-1,-1,-1,1,-1,1
1512459560324233,-1,-2,-1,-1,0,-3,-3,-3
1512459560324233,-1,-1,-2,-1,-1,1,-2,-1
1512459560333218,0,0,-3,0,1,1,-1,-2
1512459560333218,0,-1,-1,0,-1,-1,-1,0
1512459560348249,-2,-2,-1,-3,-2,-3,-1,1
1512459560348249,-1,1,-2,-1,-1,-1,0,-3
1512459560349229,-1,-1,-1,1,-1,1,-2,-1
1512459560349229,1,0,-3,-2,0,0,-1,0
1512459560370257,-1,-2,-3,-1,3,-2,-1,-3
1512459560370257,-4,0,-1,-2,-3,-1,0,0
1512459560372258,-2,-1,0,0,-3,-2,1,0
1512459560372258,2,-3,-2,-1,3,0,2,-1
1512459560384267,-3,1,-1,-2,-3,0,-4,0
1512459560384267,2,-1,-1,-2,0,-1,-2,-2
1512459560393276,-1,0,-1,0,-3,-2,-1,0
1512459560393276,-2,-1,0,0,1,-1,-1,2
1512459560408270,-3,1,1,0,-1,0,-2,-3
1512459560408270,-2,-2,-2,-1,-2,-2,-2,-1
1512459560409272,0,0,-2,-1,-3,0,-1,-1
1512459560409272,1,-4,-3,-3,-1,-4,1,0
1512459560430285,-3,-3,-1,-1,-1,0,-1,1
1512459560430285,-1,3,0,-1,-2,1,-1,-6
1512459560432300,-3,0,0,-2,0,-4,-2,-1
1512459560432300,-3,-2,-2,-1,0,-1,-1,-2
1512459560444307,4,-1,-3,0,0,-1,-1,0
1512459560444307,-2,-1,0,-3,-1,-1,0,1
1512459560453314,-2,-2,0,-1,-3,0,-1,-1
1512459560453314,-1,0,1,-1,0,0,-1,-4
1512459560468415,-1,-2,-1,-1,-1,0,0,0
1512459560468415,-2,-2,-2,-2,-1,-1,0,-2
1512459560469416,2,0,0,-2,0,0,0,0
1512459560469416,-4,-2,-1,0,1,-3,-2,1
1512459560490430,1,-2,-1,0,-2,0,1,-3
1512459560490430,0,1,-3,-1,0,-2,-1,-1
1512459560492432,0,0,-3,-1,-1,-1,0,0
1512459560492432,2,0,1,0,-4,0,-1,0
1512459560513440,-3,-1,-1,-2,2,0,1,0
1512459560513440,-4,-1,-1,-1,-1,-3,-2,-2
1512459560514429,1,-2,-2,-2,-3,1,-1,-2
1512459560514429,-1,-2,-2,0,0,-2,-2,0
1512459560528450,-1,-1,0,0,0,-3,-3,-1
1512459560528450,0,-4,-2,-1,0,-2,1,-3
1512459560530448,-4,0,-1,-1,2,-2,0,-2
1512459560530448,0,-1,-3,-1,-1,0,1,0
1512459560550454,-2,-3,0,0,-1,-1,-3,2
1512459560550454,1,-1,0,-1,-1,0,-4,-2
1512459560552455,-5,-1,-1,-1,-3,-1,1,-4
1512459560552455,0,-2,-1,-2,-3,-1,0,1
1512459560573481,-3,0,0,-4,0,-2,-1,1
1512459560573481,0,0,-1,0,-1,0,-1,-2
1512459560574472,-3,-2,-1,-3,-1,0,-2,0
1512459560574472,1,0,-2,0,-3,-2,-3,-2
1512459560595497,-3,-1,-1,-1,-3,-2,0,-2
1512459560595497,-2,0,1,-1,-1,-2,0,-2
1512459560597488,-4,-1,0,-2,0,-1,-5,1
1512459560597488,-1,-1,-2,-3,-2,-1,1,0
1512459560610495,-2,-2,-3,-1,-3,0,-3,-3
1512459560610495,1,0,-1,0,-2,-2,-2,2
1512459560612512,-2,1,-3,-3,0,-2,-2,0
1512459560612512,0,-1,-1,-1,1,-1,-1,-2
1512459560632523,1,-3,-1,0,1,-2,-2,-1
1512459560632523,-1,-2,0,1,-2,-1,2,1
1512459560634513,-2,0,0,-2,-1,-1,0,-1
1512459560634513,-3,0,0,-1,3,-1,-3,-1
1512459560647563,1,0,-3,-2,-1,1,-2,-3
1512459560647563,-3,1,-3,-4,-3,0,0,-2
1512459560654574,1,-1,0,0,-1,0,-2,-1
1512459560654574,-4,-1,-1,-3,-3,-1,-1,-3
1512459560670579,-2,-3,-2,-1,-3,0,1,0
1512459560670579,0,-2,0,-1,-3,0,0,-3
1512459560672580,3,0,1,1,-2,-3,0,-3
1512459560672580,2,1,0,-1,0,-1,-2,1
1512459560691589,-1,-1,-2,1,-1,0,-2,2
1512459560691589,-3,0,-2,-3,-3,-2,-2,-3
1512459560709603,0,0,-3,-3,-2,-2,0,-1
1512459560709603,-1,-3,1,1,2,0,0,0
1512459560710604,-1,-1,1,-1,-1,-2,0,-2
1512459560710604,-1,-2,-1,-2,0,-1,-2,-2
1512459560714606,0,0,-1,-3,-1,0,-3,0
1512459560714606,-1,-2,-3,-3,-2,-1,-2,-1
1512459560730618,-2,-1,0,-2,0,-2,0,-2
1512459560730618,-3,-1,1,-1,0,1,1,-1
1512459560731618,0,-2,-2,2,-1,-1,-2,-3
1512459560731618,-2,0,-1,1,0,-3,-1,3
1512459560752656,0,1,-2,-2,-3,-1,-1,1
1512459560752656,-2,-1,1,1,-4,-2,-1,-5
1512459560754635,-1,0,-3,-2,-1,-1,0,-2
1512459560754635,-1,-3,-2,0,-4,0,-1,-4
1512459560767656,-5,-1,-2,-2,-1,-1,1,-3
1512459560767656,-2,1,-2,-1,1,0,1,2
1512459560773660,-2,-1,1,0,-3,0,-2,0
1512459560773660,1,0,-2,-3,-3,0,0,-1
1512459560797668,0,-1,0,-2,0,-4,1,2
1512459560797668,-2,0,0,-3,0,-1,-1,-1
1512459560799670,-2,-2,0,1,0,-1,-2,0
1512459560799670,-3,-2,-1,0,1,0,-1,-4
1512459560812677,-1,2,-3,-1,-1,-1,-3,-5
1512459560812677,-1,-1,-1,0,-3,-2,1,1
1512459560815687,0,-3,-1,0,-2,-1,4,-3
1512459560815687,-2,2,0,-1,1,-1,-1,-1
1512459560827699,0,-2,-1,-1,-2,2,-1,-3
1512459560827699,-2,-2,-1,-1,-2,-1,-3,-2
1512459560833704,1,-3,-1,-2,0,-2,0,1
1512459560833704,1,-1,0,-1,-1,-1,-1,-1
1512459560850715,-3,-1,0,0,0,-1,-5,1
1512459560850715,-1,0,-2,0,-2,0,-2,-2
1512459560852716,-1,-1,0,-3,-1,-3,-1,-1
1512459560852716,-1,-1,-1,-2,-1,0,1,-2
1512459560872773,-1,-2,-2,-3,1,-2,0,0
1512459560872773,-1,1,-1,0,-4,-1,1,-1
1512459560874763,-1,2,-1,-1,0,0,0,1
1512459560874763,1,-1,-1,0,0,0,-2,-1
1512459560887759,0,-1,3,-1,-3,0,-3,-2
1512459560887759,-1,-2,0,-2,0,-1,-1,-3
1512459560893784,0,0,-1,-1,-1,-1,1,-2
1512459560893784,-1,-2,0,0,0,-1,0,3
1512459560910806,-1,-1,-3,0,-3,-2,0,1
1512459560910806,-1,0,-1,-2,-2,-1,0,-4
1512459560911777,-4,-2,-2,0,0,-2,-2,-2
1512459560911777,1,-2,-1,0,0,-1,-4,1
1512459560932804,1,-1,-1,-2,0,-1,-2,2
1512459560932804,-2,-2,-1,-2,0,-1,-2,-1
1512459560934805,0,-1,-1,0,-4,0,-2,-1
1512459560934805,-3,-1,-1,1,0,-2,0,-1
1512459560946814,-4,-1,0,-1,-3,-1,0,1
1512459560946814,1,-1,-2,0,-3,-2,-3,1
1512459560953819,-3,-3,-1,-2,1,0,-2,2
1512459560953819,0,-2,-2,-1,2,-3,0,-1
1512459560970828,0,0,-2,0,-3,-1,4,0
1512459560970828,-3,-1,-2,-4,-1,-1,-2,0
1512459560971819,-3,0,-1,0,-2,-1,0,-3
1512459560971819,0,-2,-2,-1,-2,-2,0,3
1512459560992834,0,-2,-1,0,1,0,1,-2
1512459560992834,-3,0,1,-2,-2,-1,1,0
1512459560994835,-1,0,0,-3,0,-1,0,-2
1512459560994835,0,-1,-3,-2,-1,-1,-1,0
1512459561006870,-1,-1,-3,1,1,-2,-1,-1
1512459561006870,-1,-2,-2,-1,-1,-1,-1,-2
1512459561022869,-3,-2,-1,1,1,0,-2,-2
1512459561022869,0,-1,0,-2,-2,-3,0,0
1512459561030872,0,1,-1,-1,-1,0,-1,-2
1512459561030872,1,-1,-2,-1,-1,-4,-3,-1
1512459561031867,1,-1,-1,-2,0,0,1,-2
1512459561031867,1,-1,-1,-1,-2,0,-3,-2
1512459561052898,2,-1,0,-2,-1,-4,1,1
1512459561052898,-2,1,0,2,-3,-1,-1,-4
1512459561054901,0,-1,-1,-1,-1,1,1,1
1512459561054901,-1,1,-1,-1,-3,1,-2,-2
1512459561066896,-3,-1,1,1,-1,-1,-3,-2
1512459561066896,0,-1,-2,0,-2,0,0,2
1512459561082897,0,-1,-1,-4,0,-4,-1,-3
1512459561082897,-1,-2,-1,-1,-3,-1,-3,1
1512459561090918,-1,0,-2,-2,1,-1,-2,-3
1512459561090918,-3,-3,-2,-2,-2,-3,1,-1
1512459561091905,-3,-2,0,1,-3,-3,0,-1
1512459561091905,0,-2,-3,-1,0,0,-1,1
1512459561112938,-1,-1,-2,-2,-3,-1,-1,-3
1512459561112938,-2,-2,3,0,0,2,-1,-4
1512459561114923,1,1,-2,1,-1,-1,-2,1
1512459561114923,0,-1,-1,-1,-1,1,0,-1
1512459561126950,1,-2,-1,-2,0,0,-1,0
1512459561126950,2,0,-4,-1,0,-1,-1,-2
1512459561135956,-2,-3,-1,0,-2,0,-1,0
1512459561135956,1,0,0,-1,0,-3,-1,0
1512459561149954,-3,-2,-1,-2,-3,0,-3,0
1512459561149954,-3,-1,0,-3,1,-2,1,-1
1512459561151947,0,-1,-4,-2,0,0,-2,0
1512459561151947,-2,-3,-3,-2,1,-2,0,2
1512459561180987,-3,-1,-1,0,-2,-2,-1,0
1512459561180987,-2,0,-1,0,-2,-4,0,-3
1512459561181972,2,-3,0,0,-1,0,-1,-1
1512459561181972,-1,0,-2,-2,-3,-2,-1,-1
1512459561186991,-4,1,2,-1,1,-1,-1,0
1512459561186991,1,1,-2,-1,-2,1,-3,0
1512459561201981,-1,1,0,-2,0,-2,-4,-1
1512459561201981,1,1,-1,0,1,-1,-2,-1
1512459561210000,1,-2,0,1,-3,-2,2,-2
1512459561210000,0,0,-1,-1,-1,-1,-2,-2
1512459561216993,-3,0,-2,-2,-1,-1,0,0
1512459561216993,0,0,0,-2,1,-1,-1,-1
1512459561233003,2,-3,-4,-1,-2,-1,-2,-2
1512459561233003,-3,1,-2,0,-2,-1,-2,-1
1512459561235029,0,-1,-1,-1,1,-1,-1,-1
1512459561235029,-3,-1,1,1,0,-1,-1,-4
1512459561247023,1,-3,-1,-1,-1,-1,1,0
1512459561247023,-3,0,-1,-1,-2,0,1,0
1512459561256023,-2,-1,-2,-1,0,0,-3,0
1512459561256023,0,-3,0,-1,-1,-1,-3,1
1512459561270042,-5,0,-2,-5,-2,-1,-2,0
1512459561270042,-2,-2,0,-1,-1,-3,-1,0
1512459561272032,0,1,-2,-2,-1,-1,1,-2
1512459561272032,0,-2,0,-2,0,1,0,-2
1512459561293089,-2,0,-3,1,-1,-1,-1,-1
1512459561293089,-3,-1,-1,0,-2,-2,-1,0
1512459561294046,-1,0,1,0,-1,-2,-2,-1
1512459561294046,2,-1,-2,0,-3,-2,2,3
1512459561307065,-3,-1,-2,-2,-3,0,-1,-1
1512459561307065,-3,-1,-1,-3,-2,-2,-2,0
1512459561333074,-1,-2,-2,0,1,-1,1,0
1512459561333074,-1,-3,-1,-1,-1,-1,-1,3
1512459561333074,1,-3,-2,-2,-1,1,0,1
1512459561333074,0,1,0,0,-2,-1,0,-1
1512459561337098,-3,0,0,-2,-1,-1,2,-2
1512459561337098,-1,0,-1,0,-1,-1,-1,-2
1512459561353090,-3,-1,-1,1,1,-2,0,0
1512459561353090,-2,-4,0,-1,0,-2,0,0
1512459561354089,-2,-1,0,-1,-2,0,-3,-1
1512459561354089,2,0,-2,-2,-1,-2,-3,-1
1512459561367099,3,-1,-1,-1,-1,-2,0,2
1512459561367099,-1,-1,-1,-3,-3,0,1,-4
1512459561375104,-2,-2,-1,-3,-2,-3,-2,-1
1512459561375104,-3,0,-2,0,2,-2,-2,-2
1512459561390132,-4,0,-1,0,-1,-3,-4,-3
1512459561390132,-2,-1,0,0,0,-1,-1,-2
1512459561392117,-1,-3,-1,-1,-3,1,-1,-1
1512459561392117,0,0,-3,-1,1,1,-1,-1
1512459561413145,1,-1,-4,-2,-3,-1,-1,-2
1512459561413145,-3,-2,-2,-1,1,-2,-1,-1
1512459561415132,0,-1,-1,1,-3,0,-3,-4
1512459561415132,-3,-3,1,-3,0,-5,1,0
1512459561435165,0,0,0,-2,1,-1,-2,2
1512459561435165,0,-1,-3,-2,-1,-2,-1,-1
1512459561438148,-1,-2,-2,-1,-3,1,0,-3
1512459561438148,-1,-3,-3,1,-2,1,-1,-1
1512459561458165,-1,2,0,2,-1,-2,-1,0
1512459561458165,0,0,1,-2,-1,0,-2,0
1512459561459165,-2,-2,-1,-3,-1,-4,-3,-1
1512459561459165,1,-1,-1,-1,-2,0,-2,-2
1512459561480195,-2,-2,-1,-1,-1,0,0,0
1512459561480195,-2,0,-2,-2,1,-1,-1,1
1512459561482180,0,-2,-2,-1,-1,1,-1,-4
1512459561482180,0,0,-3,0,-3,-1,2,0
1512459561495190,-2,-4,-1,0,0,0,-3,-2
1512459561495190,-1,2,-1,-1,-1,-2,-1,-4
1512459561497202,-1,-3,1,0,-2,-3,1,2
1512459561497202,-3,0,-2,0,-2,-1,-1,-1
1512459561510212,-2,1,-1,-3,-1,0,-1,-5
1512459561510212,0,-1,-2,-1,-2,-1,1,-3
1512459561512201,1,-1,-1,1,0,-1,-4,0
1512459561512201,-1,-2,-2,-1,0,0,-2,0
1512459561533229,0,-2,-2,0,-1,-1,-1,0
1512459561533229,-4,-1,-1,-2,-1,1,-2,-2
1512459561534230,-1,1,-2,0,0,0,2,-1
1512459561534230,0,-1,-1,-1,-3,-1,0,-2
1512459561556246,-2,2,-1,0,-3,0,-2,-1
1512459561556246,1,0,-1,-1,-3,-3,-4,-3
1512459561557246,-2,0,-4,-3,-1,-2,1,0
1512459561557246,-3,-2,-1,-2,1,-2,0,1
1512459561569251,-3,1,3,-3,0,-1,-2,-4
1512459561569251,-2,-3,-1,-1,-2,-2,0,-2
1512459561578268,0,-1,0,-2,2,0,1,-2
1512459561578268,-3,0,-1,-1,-2,-1,-2,-2
1512459561593260,0,-3,-3,-4,-2,-3,-1,-3
1512459561593260,0,-1,0,0,-2,-1,-1,0
1512459561594259,-1,-1,0,-1,-1,-1,-2,0
1512459561594259,-2,0,-2,-2,-2,-1,-1,0
1512459561615284,0,-2,-1,2,0,-1,0,-1
1512459561615284,-3,2,0,0,-1,-2,-1,-1
1512459561617279,-1,-1,-3,-1,0,1,0,0
1512459561617279,2,-3,-1,-1,-2,-2,-3,-1
1512459561629294,-2,-1,-1,-2,-3,-3,2,-2
1512459561629294,-1,-1,-1,0,-2,0,-4,-1
1512459561644297,-3,0,0,0,-1,-1,-1,1
1512459561644297,0,-2,0,0,0,-1,-2,-1
1512459561653335,0,-3,0,0,2,1,1,0
1512459561653335,-1,-1,-1,-2,-1,-1,0,0
1512459561654302,-2,1,1,1,-2,0,-3,2
1512459561654302,0,-3,-3,-2,1,-1,-1,-1
1512459561675328,-2,-1,-1,-1,1,-2,-3,-2
1512459561675328,-1,0,-6,-2,0,-1,0,0
1512459561677337,-1,-2,-1,-1,-2,0,-1,0
1512459561677337,-2,0,1,0,-1,-1,-3,-3
1512459561689343,-1,-2,-1,-1,-4,-4,-2,-1
1512459561689343,-1,-2,-1,-2,1,-1,0,-1
1512459561696331,2,0,-2,-1,1,-1,0,-2
1512459561696331,-1,-2,-3,-3,1,-1,-1,0
1512459561713356,-2,0,-1,-1,-1,-1,-1,0
1512459561713356,-2,-1,-2,-1,-2,-2,3,0
1512459561715349,0,-2,0,-2,1,-4,1,1
1512459561715349,-2,-2,0,-1,-1,1,-2,-2
1512459561735362,-2,-1,-3,0,-1,-1,-2,-1
1512459561735362,-2,-3,-1,-1,-2,0,0,-2
1512459561737364,0,-1,-2,-1,2,-1,-1,-2
1512459561737364,2,2,-4,0,-2,-1,-1,-1
1512459561749382,-3,0,0,0,-1,-1,-1,0
1512459561749382,2,0,1,0,-4,1,1,-2
1512459561756386,-2,-2,-1,0,-1,-3,-2,0
1512459561756386,-3,-3,-2,-1,0,-2,0,0
1512459561772394,-1,0,-4,-2,-1,0,-1,-2
1512459561772394,-1,1,-2,-4,-1,-2,-4,-1
1512459561774387,1,0,-1,-2,-1,-1,0,-1
1512459561774387,-3,-3,-1,-1,-1,-3,-1,2
1512459561795411,-1,0,0,-2,-2,-1,-2,-1
1512459561795411,-1,-1,0,2,-1,-3,0,0
1512459561797402,1,0,-3,-2,-3,0,1,-3
1512459561797402,3,1,0,-2,-2,-1,1,0
1512459561809413,-1,-1,-1,1,-3,-1,2,-3
1512459561809413,-3,-1,0,-1,2,-3,-1,0
1512459561816425,0,-1,-2,-1,-1,-1,-3,2
1512459561816425,-1,0,-2,-2,-2,3,-3,0
1512459561833428,3,-1,-1,-2,-1,-2,-2,-4
1512459561833428,-2,-2,-1,-1,-1,-1,2,-1
1512459561834430,-3,-1,-1,-1,-1,0,-2,1
1512459561834430,1,-1,-1,0,0,-1,0,0
1512459561855453,0,-1,0,0,-3,-1,-3,-1
1512459561855453,-1,-1,-2,-1,-2,1,-1,-2
1512459561857455,0,-3,-4,0,-1,-3,0,0
1512459561857455,0,0,0,0,-2,1,1,-1
1512459561869472,-3,0,-1,0,-1,-2,2,2
1512459561869472,-2,-1,0,-3,0,-2,-4,0
1512459561876479,-2,-1,-1,-1,-4,-1,-1,-1
1512459561876479,2,-1,-1,0,0,-2,-1,-3
1512459561892469,-2,-1,-1,0,1,0,0,0
1512459561892469,0,-1,0,-1,-2,-2,3,-1
1512459561894472,-2,-1,1,1,2,0,-2,0
1512459561894472,-2,-1,-4,-3,-1,-2,0,0
1512459561916496,-1,0,-1,0,-1,0,-4,0
1512459561916496,1,-2,0,0,-3,-1,-3,-4
1512459561917497,-1,0,-1,-2,-4,-2,-1,-3
1512459561917497,-2,-1,-1,1,-2,0,-3,-1
1512459561929506,-4,0,-1,-4,2,0,0,-4
1512459561929506,-3,0,1,0,-1,0,-3,-1
1512459561936526,0,-3,-3,-1,-3,-2,0,-2
1512459561936526,-2,-1,-2,-3,-1,0,-4,0
1512459561960584,-1,-3,-4,-2,-1,-1,0,-1
1512459561960584,-2,1,-1,-1,0,-1,-3,1
1512459561961585,0,1,-1,0,-1,0,-1,-4
1512459561961585,0,-3,0,-1,0,-2,-1,-2
1512459561975594,0,-2,1,1,-5,-3,-1,-2
1512459561975594,-3,-3,-3,-1,-1,-1,2,0
1512459561977596,-3,-3,-1,-1,0,0,-1,2
1512459561977596,-4,-1,-2,-3,-1,-1,0,-1
1512459561988604,-3,-2,0,0,-2,-2,-2,-3
1512459561988604,0,0,-1,2,-1,-2,-1,1
1512459561997622,-1,-1,-1,0,3,0,-2,0
1512459561997622,-1,1,-4,-1,-3,0,-1,0
1512459562012644,-2,-2,-1,-3,-1,0,-1,-1
1512459562012644,-1,-1,0,-2,-2,-1,2,-1
1512459562015634,0,-2,-2,-4,0,-2,0,-3
1512459562015634,-1,-2,0,0,-2,-2,2,-2
1512459562035654,1,-2,-1,-1,0,-1,-3,1
1512459562035654,-1,0,0,1,-2,1,-2,0
1512459562037639,0,0,-1,-1,-1,0,-3,0
1512459562037639,-2,-2,-1,-1,-1,-3,-3,0
1512459562049648,-3,-2,-2,-1,-4,-2,1,2
1512459562049648,-2,0,-1,-2,3,1,0,0
1512459562057703,1,-1,1,0,-2,1,-1,2
1512459562057703,0,-1,-1,1,-1,0,-1,2
1512459562072721,0,-1,1,1,0,-2,-2,-3
1512459562072721,0,0,-5,-2,-1,-3,0,-2
1512459562074667,-1,0,-3,-3,0,1,1,1
1512459562074667,-4,-3,-2,-2,-1,0,2,-1
1512459562095692,0,-1,1,-1,-1,-2,-2,-1
1512459562095692,3,-2,-3,-2,-3,-2,-1,-3
1512459562096681,0,-1,-1,-2,-2,-1,-2,-1
1512459562096681,1,-3,-2,-1,0,-2,-1,-1
1512459562109706,-7,1,-4,-2,0,0,-1,-1
1512459562109706,1,-2,2,-1,-1,-3,-1,0
1512459562117720,-3,-2,-2,-1,0,-3,0,0
1512459562117720,0,-1,0,0,-1,0,-1,0
1512459562132708,-1,-1,-3,-1,-1,1,-2,0
1512459562132708,-4,0,0,-2,0,0,-3,-1
1512459562134709,-1,0,-1,0,-1,0,1,-1
1512459562134709,-1,1,-1,-1,2,-2,-1,0
1512459562155736,0,-2,-2,-3,-1,-2,2,-1
1512459562155736,-4,-1,-1,2,-3,-1,-1,-3
1512459562156741,0,-3,-1,0,-3,0,-2,-2
1512459562156741,0,-1,-1,0,0,-1,-1,-1
1512459562168732,-1,-1,-1,-1,-3,0,-1,-3
1512459562168732,0,-2,0,-1,-2,-2,-1,-1
1512459562177739,1,0,0,0,-1,-1,-1,3
1512459562177739,-4,-1,-1,0,1,0,1,-2
1512459562200754,0,1,-1,0,-4,1,0,-4
1512459562200754,-2,-2,-2,0,0,1,3,0
1512459562201754,0,-1,0,0,-2,-2,-3,-1
1512459562201754,0,-3,-2,-1,-3,-1,-3,-3
1512459562215766,-3,-2,-1,-2,0,-3,0,-1
1512459562215766,-1,-1,0,0,-2,-1,0,-2
1512459562217767,-1,0,-3,-1,2,-1,-3,-1
1512459562217767,-1,-4,1,-1,-1,0,-2,1
1512459562229780,0,0,0,-1,0,-3,-3,-1
1512459562229780,-2,-1,-3,-2,-3,-1,-2,-1
1512459562237781,-2,-2,0,-2,-1,-1,0,0
1512459562237781,3,-1,-3,0,0,1,-2,-2
1512459562252795,-1,-2,-1,-2,-2,-2,-1,-2
1512459562252795,-4,-2,-3,-1,-3,-2,0,-3
1512459562254800,-2,0,0,-2,0,-2,-1,-2
1512459562254800,-2,0,0,-1,-3,-1,-2,0
1512459562274806,-1,1,-1,-1,-2,0,-1,-1
1512459562274806,-1,0,1,-2,1,-2,-1,2
1512459562275817,0,-4,-2,-1,1,1,0,1
1512459562275817,-2,0,-1,-1,-1,-2,0,-2
1512459562296825,-1,-3,-3,-2,-1,0,-2,-2
1512459562296825,0,0,-1,-2,-1,-1,-2,-1
1512459562297826,3,-2,-2,-1,0,1,-1,-1
1512459562297826,0,1,-1,1,-1,-1,-1,-3
1512459562311834,-1,0,1,0,-3,-2,1,-2
1512459562311834,-1,-1,0,-1,1,-1,1,-1
1512459562312834,-1,0,-1,0,-2,-3,-2,-1
1512459562312834,0,-3,-1,-2,-1,0,-1,0
1512459562334862,1,-1,-1,0,-3,-1,-4,-2
1512459562334862,1,-2,0,-2,-1,-2,-3,-2
1512459562335863,3,-2,0,-1,-1,-2,-3,-2
1512459562335863,-1,-2,-1,-2,-1,-2,0,-2
1512459562356935,-1,1,0,-1,-1,0,0,0
1512459562356935,0,-1,-1,-1,0,0,-2,-2
1512459562357881,-4,-1,-4,-2,0,-1,1,-1
1512459562357881,1,-3,-3,-2,0,0,0,1
1512459562371879,-3,0,2,-1,1,-1,0,-3
1512459562371879,0,1,-2,-2,-2,0,-2,-1
1512459562372880,-3,-2,1,1,-1,0,0,1
1512459562372880,-2,-2,-1,0,-1,1,-4,1
1512459562394891,-2,-1,-1,-1,-3,-2,0,-1
1512459562394891,0,-1,-1,-2,0,-2,-1,-1
1512459562395892,1,-1,-3,-1,0,0,0,0
1512459562395892,-1,-1,0,-2,-1,-1,-1,-2
1512459562416906,-1,0,-1,0,-3,1,0,-3
1512459562416906,-2,0,-1,-1,-2,1,0,2
1512459562417907,1,-3,-1,-1,2,-2,-2,0
1512459562417907,0,-2,-2,1,-1,-3,1,-1
1512459562432938,-2,-2,-3,1,1,0,1,0
1512459562432938,-2,-1,0,0,-4,-2,-1,0
1512459562439935,0,0,0,-2,-1,0,1,1
1512459562439935,0,1,-1,-1,1,-2,-1,1
1512459562454954,-4,-1,-1,-1,-3,-1,-3,-3
1512459562454954,-1,-1,-1,0,1,0,1,-3
1512459562455937,-1,-1,0,-1,-1,-1,-2,0
1512459562455937,0,-1,-1,-1,-3,-2,-3,-1
1512459562486957,-1,-1,0,-3,-3,-3,-1,-1
1512459562486957,0,-1,-1,-2,-2,0,-1,-1
1512459562487957,0,2,-1,-1,1,2,2,-2
1512459562487957,-1,-1,-3,-1,-2,-2,-1,2
1512459562491960,0,-2,-2,-1,-2,-2,2,0
1512459562491960,-2,-1,-2,3,0,-3,-4,-2
1512459562492964,0,-3,0,1,1,-1,0,-2
1512459562492964,-4,-1,-3,-1,-3,3,-2,0
1512459562514978,-2,-1,-2,0,0,0,0,0
1512459562514978,-1,-1,1,-1,0,-1,-2,1
1512459562515978,2,-1,-1,0,-2,-2,-4,1
1512459562515978,1,-1,-2,0,-2,-1,-1,-2
1512459562536996,-1,0,-2,-2,0,-3,-2,-3
1512459562536996,-2,1,0,-2,-1,2,2,-1
1512459562537998,0,-1,-1,2,-2,-1,0,-1
1512459562537998,0,-2,0,0,0,0,-2,-2
1512459562554004,0,0,0,0,1,-2,-2,-3
1512459562554004,-1,-2,0,-3,0,-1,-2,-1
1512459562554004,-1,-2,0,-1,1,-2,-2,1
1512459562554004,-2,-1,-1,-2,-4,-1,1,-4
1512459562575020,-3,0,0,-1,-1,-1,-4,0
1512459562575020,-2,1,0,-2,-2,-1,1,-2
1512459562576034,0,-3,-2,-1,-1,-1,-2,1
1512459562576034,-3,-2,1,0,0,-2,1,-2
1512459562597036,1,0,-1,-1,-3,1,-2,0
1512459562597036,-2,-2,-1,-2,-2,-1,-3,-1
1512459562598036,-2,-1,-1,-1,-1,-2,0,0
1512459562598036,-1,-1,-1,-4,-1,-1,0,-1
1512459562612045,-3,1,-2,-2,-2,-3,-1,-1
1512459562612045,-2,-1,-1,-1,-2,0,1,-3
1512459562613046,1,-2,-2,-2,1,2,1,-2
1512459562613046,0,-1,-1,0,0,-1,-5,2
1512459562635062,-4,-3,-1,-1,-2,1,-1,0
1512459562635062,0,-2,2,-1,-2,-3,-2,0
1512459562636062,-3,-1,-2,-2,-2,-1,-1,0
1512459562636062,0,-1,0,-3,-2,0,-2,0
1512459562657125,-3,-1,-3,-1,-1,-2,-1,0
1512459562657125,0,-1,0,0,-1,0,-2,-2
1512459562658110,-1,-1,-1,-2,-2,-1,-2,-1
1512459562658110,0,1,-1,0,-3,-1,-2,-3
1512459562674145,-3,-3,2,-2,-1,-3,-2,-4
1512459562674145,0,0,-3,-1,-2,-1,-1,0
1512459562674145,-3,0,0,-2,1,-1,1,0
1512459562674145,-1,-1,-2,-2,-1,1,-1,-2
1512459562695145,0,1,0,0,-3,-1,1,-2
1512459562695145,-2,0,-2,-1,-1,0,2,4
1512459562695145,0,0,-2,0,-1,-1,-1,-4
1512459562695145,0,-1,-3,-2,-2,-2,0,-3
1512459562717161,0,1,-2,-1,-3,0,-4,-1
1512459562717161,-1,-2,-1,-3,2,-2,-2,-2
1512459562718153,1,0,0,-1,-2,0,-2,-3
1512459562718153,-2,-2,0,0,0,-1,-1,1
1512459562732174,-2,-1,-1,-2,-1,-1,1,-2
1512459562732174,-4,0,-3,-3,0,-1,-1,-2
1512459562733169,-2,-3,1,-2,-5,-1,-2,2
1512459562733169,-2,-2,0,0,1,-1,-1,0
1512459562754201,0,0,-1,-1,-1,0,-1,-1
1512459562754201,-2,-1,-2,0,1,-1,0,-1
1512459562762198,0,-2,-2,0,1,0,0,1
1512459562762198,-1,0,-2,0,0,-1,1,0
1512459562777196,-1,-2,0,-1,1,0,-1,0
1512459562777196,1,-1,1,-2,-1,-2,-1,-2
1512459562778195,-2,-1,1,-1,-1,-1,-2,0
1512459562778195,-1,-2,-1,-3,-1,-2,-1,0
1512459562792222,-1,1,-2,-2,-1,-1,-2,-1
1512459562792222,-2,-4,1,0,0,-3,-1,-1
1512459562793207,1,-1,-2,-3,-1,-1,-2,-2
1512459562793207,-2,2,-1,-3,-2,0,0,-3
1512459562815221,-3,0,-1,-1,-1,0,-1,0
1512459562815221,1,0,-3,0,-3,-1,-3,-3
1512459562816222,-3,-4,-1,-1,1,-3,1,-1
1512459562816222,2,-1,-2,-3,2,1,0,0
1512459562837248,-1,-2,0,-1,1,-1,1,-2
1512459562837248,-4,1,-1,0,-2,0,-1,-3
1512459562838249,-1,-3,-3,0,0,-2,-2,0
1512459562838249,-1,-2,-1,0,0,-2,-1,-1
1512459562852285,1,0,-1,0,-4,0,-1,1
1512459562852285,0,0,-1,-1,-1,1,-1,-1
1512459562853248,-1,1,-1,-4,0,1,0,0
1512459562853248,2,-1,-2,-1,0,-3,-1,-1
1512459562874301,0,0,-1,-1,-2,-1,-3,-1
1512459562874301,2,-1,-1,0,-1,-2,0,-1
1512459562875276,-1,-3,-2,0,-2,-1,0,-2
1512459562875276,0,-1,0,-1,-5,1,-1,0
1512459562897278,-3,-2,-1,-1,-2,-3,0,-3
1512459562897278,0,0,-3,0,-2,-1,0,0
1512459562898282,-3,-1,0,0,-2,-1,-3,0
1512459562898282,-2,0,0,-2,-2,1,2,-1
1512459562912299,-1,-1,-1,0,0,-3,1,-1
1512459562912299,-2,-1,0,-1,-2,-1,-2,1
1512459562914291,3,0,0,-2,-1,0,-1,-3
1512459562914291,-2,-1,-3,0,-3,-1,-2,0
1512459562934317,-3,-2,2,-2,-2,0,-1,-4
1512459562934317,-2,-1,-1,-3,-3,0,-2,0
1512459562935306,1,-1,0,1,-1,-2,0,-1
1512459562935306,-3,-2,-1,1,1,-2,0,0
1512459562957394,0,-2,-1,-1,-3,0,-1,1
1512459562957394,-2,0,-2,-1,2,0,-2,0
1512459562958347,0,-2,0,0,0,-1,0,-1
1512459562958347,-1,-3,-1,1,-1,-1,-1,-1
1512459562972353,-2,0,-1,-2,-3,0,1,-2
1512459562972353,0,1,0,-1,0,0,1,-3
1512459562973354,-1,1,-1,-3,-1,0,-2,1
1512459562973354,-1,-1,0,-3,1,-2,-1,-3
1512459562994368,-2,-1,-1,-1,-2,-2,-2,-2
1512459562994368,1,-1,0,-1,-1,0,-2,1
1512459562995369,0,-2,-3,0,1,0,-1,0
1512459562995369,-3,-1,-1,-2,-3,0,-1,-2
1512459563017381,-3,0,-1,0,0,-2,-1,-5
1512459563017381,-3,1,-2,-2,-2,-1,-2,0
1512459563018382,0,-2,0,1,-3,-2,-1,-2
1512459563018382,-2,-2,0,-1,-2,-2,1,0
1512459563031403,0,0,0,0,1,-4,2,-1
1512459563031403,0,-1,-1,0,-2,-1,-1,-1
1512459563039396,1,0,-1,0,0,-1,-1,-2
1512459563039396,0,-1,-1,-3,-1,1,-2,2
1512459563054409,-3,1,0,-3,-1,1,0,-2
1512459563054409,0,-2,0,-1,2,-2,0,0
1512459563055407,0,1,-2,-1,-2,0,-4,-3
1512459563055407,0,0,-1,-1,-4,-2,-2,-4
1512459563077454,2,-3,1,1,-3,-2,1,2
1512459563077454,-5,-1,-1,0,-1,0,0,-1
1512459563078463,-1,-1,-2,-2,1,-3,0,1
1512459563078463,-1,1,0,-1,3,0,-5,0
1512459563093466,2,-3,-1,-3,-1,-1,-3,-2
1512459563093466,-5,0,-1,-1,-2,-2,-2,-4
1512459563107530,-3,-1,-4,-2,-2,0,1,1
1512459563107530,-1,-3,-2,1,-1,-1,-3,0
1512459563122511,-2,-1,0,-1,-1,0,-1,-1
1512459563122511,0,-3,0,2,0,1,3,0
1512459563123489,1,1,-1,0,0,0,0,-2
1512459563123489,-1,0,-1,-2,-1,-4,0,0
1512459563137517,-5,-3,0,-1,-5,-1,-4,-3
1512459563137517,-1,-1,-1,-2,-1,0,-1,-1
1512459563144502,1,-2,-2,-2,-1,0,-2,-2
1512459563144502,-2,-1,-2,-2,-3,-1,3,-2
1512459563151527,-3,-1,-3,-1,-1,-1,0,-1
1512459563151527,0,0,1,0,2,-1,2,-2
1512459563159528,-3,-4,-2,-1,-1,0,-1,-1
1512459563159528,0,-2,0,0,0,0,-4,1
1512459563174537,-1,1,0,0,0,0,-2,-4
1512459563174537,-1,-2,-1,-2,-1,-3,-2,1
1512459563175525,0,-2,0,-2,0,-2,2,0
1512459563175525,-2,-1,-3,0,-1,0,1,-2
1512459563197549,-2,0,-1,0,-1,-2,2,2
1512459563197549,-1,-2,0,1,-4,-1,-4,-3
1512459563197549,-1,2,-2,1,-2,-2,0,-1
1512459563197549,-2,-2,-1,-4,-3,-2,-2,-1
1512459563211549,-1,-1,-2,0,1,-1,-1,0
1512459563211549,-1,0,-2,-4,0,1,1,-3
1512459563219564,-1,-3,-1,1,2,-1,-2,0
1512459563219564,-1,-1,0,0,-3,-1,-1,-2
1512459563234566,-1,0,1,-2,-1,-1,-2,1
1512459563234566,-2,-2,-1,-1,-1,-2,-1,-1
1512459563235567,-3,-2,0,-2,-1,0,1,0
1512459563235567,0,1,0,0,-2,-1,-2,1
1512459563257601,-1,-1,-1,0,0,0,-2,-2
1512459563257601,1,-1,-2,-1,-1,-2,0,1
1512459563257601,3,-3,-1,0,-4,-1,-2,1
1512459563257601,-2,-2,-1,-2,1,-3,0,-4
1512459563271668,0,-1,-1,-10,-2,0,-2,-1
1512459563271668,0,-1,0,12,-2,0,0,-1
1512459563279676,-1,0,1,-4,1,-1,0,1
1512459563279676,1,-1,-2,-1,-2,0,-1,0
1512459563301694,-3,-2,-3,-3,-3,-3,1,-3
1512459563301694,-2,-1,0,-6,1,0,-1,1
1512459563309725,-3,0,-1,2,-1,-3,-3,0
1512459563309725,0,-2,-2,0,-1,-1,-1,-2
1512459563316728,-2,1,-1,2,-2,-3,-2,0
1512459563316728,-1,-1,-2,-5,-3,-1,1,-2
1512459563317728,-2,0,-3,0,0,-1,-1,-2
1512459563317728,1,-4,0,-1,2,1,-2,0
1512459563340744,0,-2,-1,1,-4,1,-3,0
1512459563340744,-2,-2,-2,-2,-3,0,1,-4
1512459563340744,1,-2,-2,-1,-3,0,-1,-2
1512459563340744,-2,-2,-1,0,-1,-2,-1,-2
1512459563354770,0,-1,-1,1,-1,-1,0,-3
1512459563354770,1,-1,0,-1,-2,-1,-3,2
1512459563355754,0,-2,-2,-4,0,0,-2,0
1512459563355754,-2,-2,-1,-2,-2,-3,0,2
1512459563377801,-4,-1,-1,1,0,-2,1,-3
1512459563377801,-1,2,0,-4,1,-3,-1,-2
1512459563378802,1,-1,-2,-1,-1,-2,0,0
1512459563378802,0,1,-1,1,-1,-1,-3,-2
1512459563400847,-4,0,0,-2,1,-2,-1,-1
1512459563400847,2,0,-2,-1,0,2,0,1
1512459563400847,-2,0,-2,-2,0,0,2,0
1512459563400847,-2,0,-3,-15,-2,-1,0,-2
1512459563414839,-1,-1,1,10,-2,0,-3,-3
1512459563414839,-1,0,-1,-4,-3,-2,-2,1
1512459563416839,-1,-1,0,0,-1,1,-1,-1
1512459563416839,-1,-1,-1,-1,1,-1,-3,-2
1512459563437856,-1,0,-2,-2,1,-1,1,-2
1512459563437856,-2,-2,0,0,-1,-3,-3,0
1512459563438844,0,-3,-2,-1,-1,0,0,-2
1512459563438844,0,2,0,-1,-2,0,-3,-1
1512459563460861,-2,-1,1,-3,-1,1,0,1
1512459563460861,-2,-2,-2,3,-1,1,0,-3
1512459563460861,-2,-3,0,-1,-1,-2,2,2
1512459563460861,1,-2,-2,0,0,0,-2,0
1512459563474931,1,-1,0,-3,-5,-4,1,-3
1512459563474931,-2,0,-1,1,-1,-3,-1,-2
1512459563475882,0,-2,-1,0,1,1,-2,-2
1512459563475882,-4,0,1,2,-2,-2,2,-1
1512459563496895,-2,-3,-5,-6,0,-1,-1,-1
1512459563496895,-2,-3,0,-13,-1,-2,0,0
1512459563497885,-1,-2,-1,9,-2,-2,-3,0
1512459563497885,-2,0,0,1,-1,1,0,-2
1512459563519911,-2,1,-1,-3,-1,-1,-3,1
1512459563519911,-1,-1,-1,1,-1,-1,-2,-1
1512459563520917,-1,0,-4,-4,-3,0,-1,1
1512459563520917,-1,-4,-2,-3,-2,-3,0,-2
1512459563534924,-1,1,2,1,-3,-2,0,-2
1512459563534924,0,-1,-2,-9,-1,0,1,-2
1512459563535930,-2,0,1,7,-1,-1,0,-1
1512459563535930,-3,0,-5,-1,-2,0,0,-1
1512459563557967,1,-3,2,-5,1,-2,0,1
1512459563557967,-2,2,0,12,0,0,-3,-2
1512459563558941,0,-2,-1,-10,2,-2,-2,-1
1512459563558941,-5,-1,2,-1,-2,-4,0,-5
1512459563579960,0,0,-6,-1,-1,-1,1,3
1512459563579960,0,-1,-1,0,-3,2,-2,2
1512459563580944,1,1,-1,0,0,-1,-4,0
1512459563580944,0,-2,4,3,1,0,0,-3
1512459563594954,-2,-1,1,-13,-2,-2,-3,-2
1512459563594954,-3,-3,-4,8,-1,-1,1,0
1512459563594954,0,-1,-2,-1,1,-2,-2,2
1512459563594954,-1,-2,-1,-1,-1,1,-2,-2
1512459563617980,-1,-2,-2,-12,-1,0,-1,-3
1512459563617980,-1,0,-2,5,1,-1,-3,1
1512459563618981,-3,-1,-10,1,1,0,2,-3
1512459563618981,2,-2,7,-3,0,0,0,-2
1512459563640013,2,-1,-7,6,-3,-1,1,-1
1512459563640013,-4,-3,-2,-2,2,-1,0,-3
1512459563641005,-2,-2,1,-8,-4,-1,-2,2
1512459563641005,-1,1,-2,5,-2,1,-1,2
1512459563655035,-1,-1,-1,2,-2,-2,-3,-1
1512459563655035,2,1,3,-6,-1,-2,1,-1
1512459563655035,2,0,3,3,1,1,1,0
1512459563655035,-5,-4,-5,-3,0,-2,-1,1
1512459563678025,-2,-3,-7,0,-1,-1,-2,-3
1512459563678025,3,-1,-2,-1,0,-1,1,-2
1512459563679014,-1,-1,1,-2,-2,-1,-5,-3
1512459563679014,2,0,-7,0,-4,-1,-2,1
1512459563700041,-1,0,4,4,2,1,1,-1
1512459563700041,-2,-2,5,-14,-3,-2,-4,-1
1512459563701042,-4,-3,-6,18,-1,0,-1,-1
1512459563701042,-1,-1,1,-8,-1,-2,0,-1
1512459563715049,-3,2,1,0,-1,-4,0,0
1512459563715049,1,2,-2,0,-3,1,0,-2
1512459563715049,2,-1,8,-3,2,-1,0,0
1512459563715049,-2,-5,-7,1,-2,-4,-3,0
1512459563738055,-3,0,8,-2,-1,-2,-1,-2
1512459563738055,0,-5,-7,1,0,-1,0,0
1512459563739056,3,0,6,-11,-1,0,-1,3
1512459563739056,-8,3,-6,10,-1,0,-3,-1
1512459563768089,-6,-1,-2,-7,0,-1,1,-1
1512459563768089,4,-5,0,-6,-2,-2,0,5
1512459563769089,-2,0,-2,10,0,1,-1,-4
1512459563769089,1,-5,5,-13,-2,0,0,0
1512459563774093,5,6,0,8,3,1,-1,-1
1512459563774093,1,2,-1,4,2,-1,0,1
1512459563782099,-5,-6,-5,-12,-3,-2,-1,-2
1512459563782099,6,-1,3,0,-3,-1,0,-4
1512459563798114,-7,-4,-4,0,-1,0,-3,-2
1512459563798114,3,3,1,4,0,1,1,-1
1512459563799111,-5,3,0,-8,-2,-3,-2,-1
1512459563799111,-3,-14,-4,3,0,1,-1,-2
1512459563820123,-4,-2,-3,-3,-3,-1,0,1
1512459563820123,-13,-3,-8,-5,-2,-1,0,-3
1512459563821113,8,-5,-2,0,0,0,0,-1
1512459563821113,1,5,0,-2,1,0,-1,-3
1512459563835134,2,0,0,-4,-1,0,-1,-4
1512459563835134,-9,-2,-2,10,2,-1,-2,-3
1512459563835134,6,3,9,5,-1,-2,-4,2
1512459563835134,-1,0,-13,-3,0,0,-4,2
1512459563858155,-2,3,1,-6,-1,-2,-1,-5
1512459563858155,-1,-20,-15,-4,2,-1,-2,-3
1512459563859151,-2,-5,-7,-5,-2,1,2,-1
1512459563859151,6,6,7,3,0,-1,0,-2
1512459563880155,4,2,6,-2,-4,0,1,1
1512459563880155,5,6,-6,8,2,-1,-2,-1
1512459563881156,2,-2,2,-8,-3,0,-1,0
1512459563881156,-10,-3,-2,0,-3,0,-2,-3
1512459563895179,4,1,0,-10,-4,-1,1,2
1512459563895179,-5,-2,2,9,-6,-1,-1,-1
1512459563895179,-1,-5,-7,-5,4,-1,-2,-1
1512459563895179,-7,5,0,-2,-4,0,2,0
1512459563918195,-3,-3,-7,2,-2,-3,-4,-1
1512459563918195,2,3,2,-7,1,0,-2,4
1512459563919184,-6,-2,3,3,1,-1,0,0
1512459563919184,2,2,-3,-2,-3,-1,3,-4
1512459563940214,-3,1,1,7,0,1,-2,-3
1512459563940214,9,-3,8,-5,-3,-2,-4,-2
1512459563941199,-18,-6,-3,0,-2,-1,-1,-3
1512459563941199,6,2,0,-1,2,-1,-2,0
1512459563954224,-7,-4,2,0,-1,-2,-4,-4
1512459563954224,10,3,-5,-3,1,2,1,1
1512459563962226,4,1,-1,3,-1,0,-1,1
1512459563962226,-20,-5,10,-1,-3,-1,2,-1
1512459563978238,7,-4,-22,3,-2,-2,1,-1
1512459563978238,-6,3,15,-3,0,0,-2,0
1512459563978238,2,-3,-16,-3,-2,-1,-3,-5
1512459563978238,2,-2,-4,-4,-1,0,-2,0
1512459564000279,6,4,9,11,0,0,0,-1
1512459564000279,-10,-13,-17,-12,-5,-3,-1,-5
1512459564001242,3,4,0,-3,-5,-3,-2,1
1512459564001242,1,2,1,1,0,-1,0,-2
1512459564014263,4,-2,-3,-5,0,2,1,2
1512459564014263,-4,5,2,0,3,-1,1,2
1512459564022275,2,-5,2,-2,0,-2,-2,-2
1512459564022275,1,-2,-7,-4,0,-2,0,0
1512459564038287,-2,0,2,1,-2,-1,0,-2
1512459564038287,0,-2,13,5,-2,0,1,-1
1512459564038287,-2,5,-10,-2,-2,-3,-2,0
1512459564038287,1,2,7,-3,-2,1,0,-2
1512459564060300,-2,-2,-7,0,3,0,-2,1
1512459564060300,2,0,-3,6,-3,-2,-2,-1
1512459564061285,-8,-5,-9,-7,0,-2,-3,-3
1512459564061285,-23,-6,3,8,-3,0,-4,-6
1512459564074324,6,-10,-15,-17,-3,2,-4,-3
1512459564074324,-10,5,0,-3,1,-2,7,-1
1512459564082299,12,5,3,8,-1,2,1,2
1512459564082299,10,6,4,2,4,-2,-9,1
1512459564098320,-9,-6,3,2,-2,-3,0,-1
1512459564098320,-3,-6,-5,-4,-1,-2,-1,0
1512459564098320,5,7,-1,-1,-2,-2,-3,-2
1512459564098320,5,-9,-1,-3,-2,-4,2,-3
1512459564120349,-11,4,6,-3,0,-4,-1,-1
1512459564120349,8,0,10,0,1,0,-4,-1
1512459564121350,-19,-7,-14,-2,-2,-3,2,-6
1512459564121350,8,3,4,1,4,4,1,-2
1512459564134360,-6,8,27,9,-3,-2,-8,0
1512459564134360,15,-13,-33,-8,-1,5,10,8
1512459564142365,-3,0,24,-10,-2,-15,-21,-6
1512459564142365,-3,1,1,4,-3,10,13,-4
1512459564158401,-15,-10,-20,-1,-1,-11,-4,-1
1512459564158401,14,6,16,12,3,3,-6,-4
1512459564158401,1,-2,-3,5,-1,5,6,0
1512459564158401,6,-5,-70,-11,-6,-8,-7,-4
1512459564180413,3,1,57,-10,-3,-3,1,-4
1512459564180413,-26,-1,8,-1,-5,3,-1,-3
1512459564181393,2,-4,-32,-10,1,-2,0,-2
1512459564181393,-7,5,19,4,-1,-5,-4,3
1512459564194426,2,3,5,9,-2,5,4,-3
1512459564194426,-8,-6,-66,-7,0,-7,-9,-4
1512459564202407,1,-8,-17,-24,-8,0,2,-1
1512459564202407,15,3,24,-5,-1,3,2,8
1512459564217419,-1,-10,-23,-3,-6,-5,-6,-4
1512459564217419,5,7,16,3,0,-5,-4,-2
1512459564218420,-2,2,8,7,1,5,3,1
1512459564218420,-2,-5,-9,5,-4,3,14,-5
1512459564240447,-2,5,2,3,3,-5,-4,-1
1512459564240447,-1,-13,-65,-18,-2,-1,-4,3
1512459564241436,16,1,49,13,3,4,5,2
1512459564241436,-7,-7,22,1,-1,-3,-6,-2
1512459564254445,-7,13,8,7,-2,0,1,-5
1512459564254445,2,8,25,10,2,2,5,1
1512459564262449,-3,-6,-19,-14,-2,-5,-4,-3
1512459564262449,-19,-5,-41,-11,-3,-8,-4,-8
1512459564276491,14,2,27,11,4,6,3,11
1512459564276491,12,4,-5,-10,0,-5,-5,-2
1512459564285465,3,-2,3,5,0,3,0,8
1512459564285465,-11,4,12,3,2,-4,-5,-9
1512459564299481,4,-1,-22,-9,-5,-2,-6,-10
1512459564299481,-12,-6,-2,-1,1,-1,7,-4
1512459564308486,18,14,10,17,5,13,13,10
1512459564308486,-27,-6,-21,-7,-4,-14,-10,-1
1512459564322491,-10,-9,21,9,-1,2,-3,0
1512459564322491,2,0,-49,-23,-4,-12,-13,1
1512459564325496,-18,-5,20,9,-4,0,5,-11
1512459564325496,22,7,-7,-1,1,1,-11,3
1512459564336503,-21,-4,-36,-10,-3,-4,7,-5
1512459564336503,-27,-1,63,11,-5,2,-2,1
1512459564345510,4,-2,-3,9,2,-7,-8,-2
1512459564345510,4,-4,-17,-21,-6,-2,0,-6
1512459564360519,-16,8,11,5,2,0,-3,0
1512459564360519,8,-7,-6,-2,-3,-1,-4,0
1512459564361519,-35,6,-17,-6,0,-1,-3,-7
1512459564361519,-4,-4,38,15,-2,-1,-6,-2
1512459564382536,27,0,-19,-7,3,2,-3,2
1512459564382536,-20,-6,13,2,0,2,3,-8
1512459564384537,-7,1,-2,-4,-4,-6,-8,1
1512459564384537,27,9,13,6,5,9,19,9
1512459564397545,4,-6,-26,-13,-1,-1,5,2
1512459564397545,-15,1,35,12,4,2,-3,2
1512459564404566,-19,-10,-8,-8,-6,-7,-10,-5
1512459564404566,-9,2,2,-3,4,7,10,-5
1512459564420563,-4,3,-21,2,4,2,5,6
1512459564420563,3,-12,10,3,2,-6,-2,1
1512459564421564,-15,-6,-4,-3,0,0,-3,1
1512459564421564,5,7,-28,0,3,-2,-6,-2
1512459564442577,3,-22,10,1,2,3,3,-2
1512459564442577,12,16,-4,-7,-4,1,-1,-3
1512459564445579,57,9,15,16,-2,3,8,20
1512459564445579,-29,-3,29,20,1,-2,-6,-5
1512459564457644,-15,-8,-27,-26,-6,-6,-2,-7
1512459564457644,14,4,8,11,1,-4,5,0
1512459564463591,27,13,2,-9,-3,-3,-6,-3
1512459564463591,-23,3,8,-6,-7,0,4,0
1512459564480605,-15,-19,4,6,-5,-2,-4,-6
1512459564480605,-4,-9,3,-11,-4,-4,2,2
1512459564481609,0,-3,-19,-8,1,4,18,-14
1512459564481609,20,-1,-5,2,-1,-7,-17,6
1512459564502636,-62,8,1,-1,-3,-1,6,-6
1512459564502636,26,3,4,11,0,-1,-4,16
1512459564504624,44,-7,-12,-14,-3,-4,-1,10
1512459564504624,19,-24,-4,-12,0,0,5,22
1512459564517634,-6,-3,-3,-4,-6,-4,-3,-9
1512459564517634,-5,26,18,8,1,3,0,1
1512459564523638,-37,-5,15,-18,-4,-4,-9,-27
1512459564523638,21,15,62,16,3,2,4,14
1512459564540649,27,-9,-56,-1,5,2,-5,10
1512459564540649,19,23,20,0,-2,-2,-4,-4
1512459564541650,-5,-22,-20,-4,3,0,-3,4
1512459564541650,3,-10,5,-7,-5,-6,-8,-11
1512459564563663,-5,17,3,-1,4,-1,2,-4
1512459564563663,10,8,4,-2,1,8,2,-8
1512459564564664,-11,0,-1,6,4,1,-29,14
1512459564564664,-23,-14,-27,-9,-10,-2,5,-21
1512459564577680,94,-37,13,3,-9,6,13,17
1512459564577680,0,18,-2,3,7,-4,-8,1
1512459564583677,-14,-27,-49,-21,-5,-1,5,-11
1512459564583677,3,-12,23,3,-2,-7,-41,-16
1512459564600688,-10,31,7,8,-3,-3,-16,-4
1512459564600688,22,-20,19,1,3,4,8,8
1512459564601699,-56,-14,-25,16,0,0,-8,-23
1512459564601699,42,47,34,-2,6,5,12,18
1512459564622705,-14,-43,-47,-21,-11,-8,5,-9
1512459564622705,-5,19,15,11,-2,3,-14,6
1512459564624706,-13,-22,11,16,-1,-3,7,0
1512459564624706,36,35,-22,1,-2,-3,4,6
1512459564637715,-61,6,18,-7,2,-7,-7,-24
1512459564637715,14,-33,-21,-25,-11,-6,13,18
1512459564643718,54,8,-27,3,-2,0,0,-20
1512459564643718,-59,-3,-12,-18,-8,2,5,-25
1512459564660735,-20,-2,8,1,0,-4,8,0
1512459564660735,18,-2,-11,-7,9,17,4,-21
1512459564661733,10,51,41,12,-1,-1,18,26
1512459564661733,-35,-31,-23,-15,-1,-1,-4,-1
1512459564682747,23,-27,-12,24,5,-1,-8,10
1512459564682747,-67,-60,-36,-12,-6,0,12,-30
1512459564684748,-2,21,13,-14,-8,-11,-16,20
1512459564684748,19,56,-16,13,7,3,6,-4
1512459564696757,-8,-5,22,-7,5,6,3,10
1512459564696757,4,-12,4,12,-10,-14,-7,10
1512459564703765,16,-14,12,7,-4,-2,-3,0
1512459564703765,-1,-15,6,-8,7,5,6,8
1512459564721775,24,32,-3,-4,-2,1,-12,-28
1512459564721775,47,16,16,-4,-1,-2,-3,34
1512459564723776,-24,31,-2,10,10,7,8,-12
1512459564723776,72,-16,3,2,-4,-5,-9,29
1512459564742790,-37,-80,3,16,12,8,15,22
1512459564742790,14,7,-16,-20,-7,-6,-1,-21
1512459564744792,-53,-18,14,-2,0,2,-7,2
1512459564744792,-80,-19,1,18,-3,-4,10,2
1512459564756802,55,71,4,-30,-8,-5,1,-5
1512459564756802,-41,-78,-22,7,2,2,-3,-9
1512459564763804,11,58,25,0,6,1,7,22
1512459564763804,-7,-48,-35,4,0,0,-1,-15
1512459564780816,7,14,30,0,-9,1,-5,-9
1512459564780816,-19,-3,-17,-5,-2,-7,-3,7
1512459564781826,-22,-11,17,2,-11,-6,-3,-6
1512459564781826,21,5,3,-25,1,5,8,-7
1512459564810891,-3,46,14,23,2,-5,-11,-9
1512459564810891,15,-2,15,-8,4,4,0,18
1512459564811890,-1,-77,-21,-2,-1,-12,-8,-2
1512459564811890,-11,30,3,24,-1,2,-3,-8
1512459564816906,44,6,19,-7,-2,3,12,-1
1512459564816906,-3,33,-6,-17,-3,-16,-9,3
1512459564825914,-47,-22,6,7,5,5,-6,-21
1512459564825914,23,-27,-16,-22,-11,-6,0,-15
1512459564839923,-33,-49,-33,5,-11,-7,-16,11
1512459564839923,27,31,-13,8,10,9,10,-24
1512459564841914,30,-8,17,2,-1,2,7,16
1512459564841914,14,13,2,1,4,3,9,7
1512459564862937,21,22,1,5,-2,-3,0,2
1512459564862937,-29,9,9,3,-6,-1,-6,-2
1512459564864929,5,-27,-38,-2,0,2,0,17
1512459564864929,11,20,-11,-8,-10,-3,-8,-27
1512459564876938,-17,-27,10,-18,3,-1,4,52
1512459564876938,-60,0,19,40,-8,-1,-3,-48
1512459564891968,17,42,22,-20,-2,1,3,13
1512459564891968,-36,-36,-18,-6,-2,-5,-6,-9
1512459564899954,32,32,6,-15,2,2,-4,19
1512459564899954,2,8,4,-12,11,12,15,-6
1512459564901967,13,-17,-14,-19,-5,-7,3,-20
1512459564901967,7,-27,13,24,3,3,3,-4
1512459564922987,17,27,-29,-16,-2,2,-16,-11
1512459564922987,25,-6,2,-17,-1,-7,-13,9
1512459564923982,23,22,-17,12,18,16,24,-18
1512459564923982,-13,30,6,17,4,-3,-4,-25
1512459564935991,-1,-20,23,3,3,-11,-6,13
1512459564935991,3,7,-29,9,0,-2,-3,24
1512459564945987,8,-14,14,-3,-8,-1,-7,-12
1512459564945987,-3,29,-11,-18,1,0,7,10
1512459564960009,-33,-5,14,20,3,1,3,-2
1512459564960009,45,18,-2,-14,-7,-5,-6,48
1512459564961998,-12,17,-12,-6,3,-1,-5,-10
1512459564961998,18,-5,26,-2,1,1,3,10
1512459564983024,39,-20,-19,13,-19,-21,-17,-3
1512459564983024,14,-56,-31,-7,5,2,-5,-22
1512459564984019,-65,16,-13,-3,-19,-5,-7,-4
1512459564984019,15,-3,-19,-37,-10,-5,-5,9
1512459564997022,-30,17,0,21,3,4,8,-8
1512459564997022,-41,5,-13,-18,-4,1,-11,6
1512459565006048,49,-9,16,14,-2,-5,-4,9
1512459565006048,-50,-15,19,13,-1,-4,-14,-12
1512459565020048,-44,-32,-1,-25,-7,2,-2,-7
1512459565020048,17,26,2,11,3,2,11,-22
1512459565022049,-24,2,37,-3,-1,-6,-4,-6
1512459565022049,50,6,-11,-1,-1,-8,-6,20
1512459565043066,-4,-1,-20,12,4,1,3,-38
1512459565043066,-31,-23,-19,-16,-10,-2,-2,9
1512459565044055,22,7,12,6,0,6,1,-1
1512459565044055,17,75,2,15,0,0,-7,11
1512459565056140,-64,-32,8,-17,-3,-5,-6,-24
1512459565056140,0,-50,26,45,8,1,4,17
1512459565065120,5,41,-40,-64,-16,-6,6,-3
1512459565065120,-43,-22,19,27,3,-1,-9,6
1512459565080132,0,20,-42,-15,-5,-1,8,-10
1512459565080132,0,16,-5,-8,2,-2,9,10
1512459565086136,36,-24,0,10,-1,-4,-2,48
1512459565086136,-33,18,30,-14,1,0,10,2
1512459565103147,28,-25,-14,9,0,-1,2,-7
1512459565103147,-4,21,-14,-17,-4,-3,6,-9
1512459565104147,-20,2,-12,18,3,0,-1,-26
1512459565104147,-10,-18,-31,-21,-16,-7,-3,-11
1512459565117158,3,0,11,8,6,6,-2,-1
1512459565117158,2,14,-4,4,-5,-2,2,13
1512459565125163,-2,-17,-8,3,0,-13,-36,-4
1512459565125163,20,1,-3,-9,2,2,5,8
1512459565140173,7,43,47,-5,6,12,8,13
1512459565140173,-4,5,-16,40,-3,-8,-8,-9
1512459565142175,-10,-14,-6,-7,-3,5,10,-13
1512459565142175,3,-21,-11,4,-8,-11,-5,-29
1512459565163189,-6,25,29,-28,-1,-3,-8,26
1512459565163189,-18,12,18,-12,-2,3,-6,2
1512459565164191,32,0,0,27,3,-3,0,14
1512459565164191,-62,-20,-63,-37,-16,-6,-7,-40
1512459565177201,65,49,40,20,19,19,21,12
1512459565177201,-74,-4,-24,-28,-16,-23,-11,-12
1512459565185206,76,-21,-6,26,6,0,0,-6
1512459565185206,28,43,42,6,2,12,22,51
1512459565200216,-26,-44,-13,-13,-6,-12,-25,-25
1512459565200216,40,13,25,6,11,17,17,26
1512459565202217,36,-4,22,-3,1,0,6,12
1512459565202217,24,-6,-33,-4,0,-2,2,5
1512459565223232,10,-21,-1,20,-3,0,-2,-2
1512459565223232,19,-31,6,-25,3,2,-6,-14
1512459565224233,-31,20,-9,24,-4,-6,-11,-2
1512459565224233,-10,-41,8,-48,-6,4,2,0
1512459565245264,8,17,-9,28,-4,-4,1,7
1512459565245264,14,28,-1,-43,-13,-12,-10,-17
1512459565247251,-33,15,10,42,16,15,0,-5
1512459565247251,-52,-35,-9,-8,-16,-15,-21,-24
1512459565260297,3,12,-32,-34,-4,-3,11,-1
1512459565260297,-40,12,26,13,-4,-1,2,7
1512459565262289,-9,-27,-5,-17,-8,-4,3,1
1512459565262289,76,3,-24,14,5,-2,-17,5
1512459565283304,8,0,23,9,8,3,10,-44
1512459565283304,-7,-6,9,8,0,4,4,18
1512459565284305,-44,-7,-13,-21,-10,-13,-17,-30
1512459565284305,-7,-31,3,15,5,3,-7,28
1512459565306333,-58,-26,0,-16,-14,-11,1,-21
1512459565306333,73,5,-33,21,10,4,-8,19
1512459565307349,-9,5,13,-17,1,7,6,-22
1512459565307349,-11,15,-14,-14,-9,-15,-10,-6
1512459565319342,-16,20,0,19,-1,-2,-10,10
1512459565319342,0,-39,14,1,2,5,6,4
1512459565328337,-12,-10,-20,-27,-4,-3,-13,7
1512459565328337,-11,31,46,27,3,3,3,-18
1512459565343348,41,1,17,-7,4,6,14,42
1512459565343348,-23,-7,-13,-19,-6,-10,-13,-41
1512459565344356,0,-85,-15,31,1,-1,0,-32
1512459565344356,11,50,28,-20,-5,3,7,28
1512459565365363,42,1,-4,13,3,-1,-5,-24
1512459565365363,17,31,-18,10,3,9,16,10
1512459565367379,18,30,0,-25,-2,-10,-7,-7
1512459565367379,-40,-34,5,16,2,-2,-9,-28
1512459565380374,-12,0,24,-9,-4,-4,-13,-2
1512459565380374,-33,-4,29,4,-4,0,5,-19
1512459565382376,7,-3,2,-4,-3,-1,-5,21
1512459565382376,16,4,-4,28,11,11,21,3
1512459565402401,-11,17,15,-21,-9,-15,-11,9
1512459565402401,13,3,-21,24,-5,-3,-6,16
1512459565404390,-21,-12,7,-13,-4,-3,3,6
1512459565404390,69,53,49,20,5,1,11,1
1512459565426405,-75,-85,-50,-18,-11,-5,7,-8
1512459565426405,24,13,0,26,10,0,2,-9
1512459565428408,-4,-12,-5,2,-6,4,13,14
1512459565428408,-46,27,-18,-9,-6,-11,-27,-37
1512459565439427,10,-31,9,-3,-8,-4,-3,-25
1512459565439427,-31,-7,10,-3,7,7,-8,8
1512459565446429,14,46,0,-13,-7,-10,1,0
1512459565446429,-18,-63,-11,-1,7,14,25,18
1512459565462441,39,82,38,9,-4,-5,-19,-6
1512459565462441,-16,2,-13,-14,3,5,5,8
1512459565464434,-27,-52,13,0,-5,-5,3,-17
1512459565464434,-38,-4,-76,-25,-2,0,13,-24
1512459565485457,19,3,-18,14,15,-4,0,58
1512459565485457,24,44,39,-31,-11,-7,-27,14
1512459565486458,14,15,-35,16,11,1,-6,-9
1512459565486458,12,-24,43,52,11,9,9,16
1512459565499467,-55,-1,-69,-11,-4,3,10,-1
1512459565499467,-20,-26,7,-17,-3,-8,0,-3
1512459565506477,26,15,33,7,0,7,5,-1
1512459565506477,-16,13,11,-29,-3,-8,-12,3
1512459565522483,30,26,5,25,4,13,14,-1
1512459565522483,-10,-54,-29,-27,-6,-4,2,-21
1512459565524476,-34,-26,5,17,8,9,-4,-5
1512459565524476,20,6,20,9,4,1,10,43
1512459565545500,-2,13,19,0,-2,-4,0,-16
1512459565545500,2,28,7,1,5,-1,21,10
1512459565546500,18,-3,-4,-8,3,-4,-4,61
1512459565546500,5,-8,-3,-7,-7,9,38,7
1512459565559547,-12,21,-11,42,20,6,-3,10
1512459565559547,26,-7,-14,-41,-7,1,0,-32
1512459565566517,-43,-11,15,45,12,2,-3,22
1512459565566517,42,23,-27,9,0,-4,-6,-48
1512459565582528,-18,-17,6,-29,1,3,9,40
1512459565582528,-37,-12,8,26,-13,-10,-34,-82
1512459565584525,-28,-18,-30,-10,-9,2,13,52
1512459565584525,-14,-24,52,2,2,-3,-17,14
1512459565605551,6,-20,-24,-17,-8,-7,-6,-25
1512459565605551,13,-8,11,21,17,8,10,19
1512459565607534,26,11,0,-18,-10,-10,-12,-23
1512459565607534,-1,-12,-38,6,-3,-4,-17,-15
1512459565619554,17,-9,-3,-10,-14,-3,-5,5
1512459565619554,59,12,24,6,9,9,11,20
1512459565626559,7,15,-13,-12,-8,-4,-4,-50
1512459565626559,-44,-49,-18,-19,-11,-8,2,15
1512459565642568,18,-18,-8,5,5,2,-13,-28
1512459565642568,-59,24,15,11,9,8,6,-5
1512459565644566,-18,19,14,-6,-10,-5,6,-1
1512459565644566,-40,21,7,-2,-8,-3,-7,23
1512459565665584,-71,-55,-73,-38,-9,-1,-21,-85
1512459565665584,62,-43,20,30,-2,-8,-11,-20
1512459565666586,29,18,19,20,3,-5,-10,8
1512459565666586,1,13,-5,-15,-2,2,13,-7
1512459565679593,1,9,5,-9,-2,-7,-4,13
1512459565679593,-8,-4,6,7,0,-3,-3,19
1512459565686600,13,29,-8,-8,2,3,5,-10
1512459565686600,10,-27,-11,6,0,-8,-11,35
1512459565702616,7,8,17,-4,0,-1,8,-21
1512459565702616,43,23,19,10,-1,-1,5,1
1512459565704611,-38,-8,-37,-24,-1,1,2,19
1512459565704611,17,-4,-7,4,-2,-6,-29,-14
1512459565725655,48,10,34,12,5,6,16,-6
1512459565725655,-37,1,-23,-9,-1,0,0,1
1512459565726618,5,4,24,-3,-4,4,9,-20
1512459565726618,10,19,-13,3,-3,-2,-13,-28
1512459565738626,3,-5,4,-17,-5,-8,-6,5
1512459565738626,-11,-30,-29,5,3,-2,-11,22
1512459565747647,36,7,25,27,4,-2,2,-12
1512459565747647,-6,-17,-4,-25,-4,-2,-4,-25
1512459565762662,4,9,31,26,5,8,10,14
1512459565762662,-3,36,-9,-11,-3,-3,9,20
1512459565764663,-26,-12,-43,-19,-8,-7,-7,2
1512459565764663,13,-5,27,9,-6,-3,-8,-7
1512459565785678,-6,5,-20,8,-3,-9,-5,-3
1512459565785678,24,-17,-14,14,5,3,-11,34
1512459565786660,-28,45,15,-2,-6,0,6,-33
1512459565786660,16,-35,-2,-32,-3,-2,6,-18
1512459565798680,-2,35,-24,26,12,9,5,31
1512459565798680,5,-59,-19,-17,-6,-2,5,-22
1512459565807674,-30,-15,11,0,4,4,-6,-21
1512459565807674,9,37,18,11,-1,-2,4,-4
1512459565822698,-1,4,0,-18,-3,-5,-12,24
1512459565822698,27,11,-16,-23,-8,-6,2,14
1512459565824687,6,11,11,6,1,8,14,36
1512459565824687,-14,10,-25,7,1,-5,-2,10
1512459565845719,18,-36,-18,-18,-3,1,7,-2
1512459565845719,-9,48,20,-1,-1,6,-4,16
1512459565846702,55,-42,-5,7,0,-6,-7,-5
1512459565846702,-16,16,10,-17,3,2,8,1
1512459565858710,14,36,10,6,0,0,-14,47
1512459565858710,1,-33,-13,18,4,0,-1,-8
1512459565867717,22,-2,-1,-20,-3,4,-9,-25
1512459565867717,-49,-2,-27,-2,-10,-8,-9,-1
1512459565882740,-3,-1,22,-8,-4,2,5,-5
1512459565882740,-6,-13,-4,-17,-14,-12,-15,-23
1512459565884742,4,1,17,-32,-6,1,-1,-20
1512459565884742,21,24,5,44,9,1,5,9
1512459565905778,8,-10,-13,-30,-4,-7,1,13
1512459565905778,-11,19,-7,3,-4,-1,-1,-7
1512459565907746,1,-25,8,3,0,-2,-2,-24
1512459565907746,-1,28,14,-10,4,15,62,39
1512459565918765,23,31,7,19,-2,-8,-38,-6
1512459565918765,-8,-46,16,15,8,10,0,-42
1512459565927790,16,62,-23,-11,-6,-19,-12,1
1512459565927790,7,-19,-14,5,4,4,13,-31
1512459565942782,-13,-26,10,1,-3,-2,-4,18
1512459565942782,-25,7,-7,-12,-6,0,10,-5
1512459565944772,-1,-33,-13,-24,-7,-1,-2,22
1512459565944772,42,1,5,33,2,1,-11,4
1512459565965786,-4,-4,-61,-7,-2,5,18,-8
1512459565965786,-1,4,-3,-42,-14,-15,-14,-5
1512459565966788,21,37,16,38,15,11,14,38
1512459565966788,-10,-1,11,-10,-4,-6,-21,-3
1512459565978809,-14,-72,-18,-4,-1,-1,-2,-48
1512459565978809,6,38,45,8,7,1,1,18
1512459565987803,-16,-5,-71,-6,4,-2,5,-1
1512459565987803,-27,-20,11,-22,-3,-2,-3,-33
1512459566002813,-64,-17,0,9,-7,-5,2,17
1512459566002813,-1,-9,-7,2,0,1,2,-53
1512459566004814,-33,21,19,8,2,7,3,-24
1512459566004814,11,1,-1,5,1,4,-3,72
1512459566025830,1,-3,0,-14,-3,2,13,-39
1512459566025830,17,-26,-4,5,0,1,-1,36
1512459566026830,0,-1,2,-7,-2,-6,-9,-10
1512459566026830,-3,4,11,4,0,4,-4,-10
1512459566038848,19,43,7,8,3,1,1,12
1512459566038848,0,-10,-3,12,4,-1,5,14
1512459566047845,-25,-16,10,-12,-5,-5,4,-31
1512459566047845,3,-37,-38,-10,-8,-7,-10,-9
1512459566062865,19,9,55,-5,8,6,9,8
1512459566062865,-15,25,6,16,-4,-10,-19,-10
1512459566064860,19,-31,-11,-10,3,5,-4,49
1512459566064860,-7,-23,31,6,1,-7,-4,-22
1512459566084883,-27,-1,-11,-8,-4,4,3,-26
1512459566084883,-5,30,0,3,4,-2,16,14
1512459566086890,1,-6,28,1,3,0,-13,15
1512459566086890,-1,-11,-22,0,-5,-6,-14,-13
1512459566098880,17,-19,17,0,6,2,-3,0
1512459566098880,-37,-13,-37,-4,-9,-3,-5,16
1512459566107897,-9,-12,-10,9,-3,-1,0,23
1512459566107897,7,10,9,-12,4,5,1,-6
1512459566122915,-14,8,-9,6,-3,-8,1,-20
1512459566122915,-3,-9,-9,-13,9,7,11,26
1512459566124902,-5,15,3,29,-1,-2,-5,-41
1512459566124902,-18,0,-1,-14,-5,4,0,-4
1512459566144930,1,-4,36,4,0,-4,-12,4
1512459566144930,-3,-9,9,-1,-2,-4,-3,-1
1512459566146915,7,-9,-33,-7,3,1,2,3
1512459566146915,-14,1,6,-10,3,-1,-5,-23
1512459566159925,-1,-4,-2,20,3,5,5,26
1512459566159925,23,-14,6,-6,-4,1,5,-8
1512459566167930,5,14,20,-8,-3,-1,3,1
1512459566167930,-3,-6,1,8,6,0,-4,5
1512459566182950,10,8,6,-10,-7,-4,5,17
1512459566182950,-43,-19,0,10,-2,0,-5,-21
1512459566183951,30,15,-25,-20,-9,-3,5,29
1512459566183951,28,9,-11,14,10,6,4,-8
1512459566204970,26,11,0,-7,-3,-5,-8,19
1512459566204970,-29,14,13,-10,-4,-6,-4,-41
1512459566207968,15,-17,-7,13,-10,-3,-2,-11
1512459566207968,-1,14,-11,-22,-5,5,20,2
1512459566228013,6,-4,-1,30,1,-1,3,15
1512459566228013,-15,1,-19,-6,-5,-2,-21,-36
1512459566228973,4,-12,-14,-21,0,1,16,-18
1512459566228973,3,-31,-16,-1,-9,-11,-17,40
1512459566242997,-22,8,8,1,4,13,33,-31
1512459566242997,7,-2,-16,-14,-10,-6,1,-53
1512459566244987,-74,-44,22,20,3,1,-10,4
1512459566244987,-3,27,38,8,-6,4,-21,-18
1512459566265011,4,-38,-80,-9,-3,-1,-26,-3
1512459566265011,6,26,37,5,-3,1,13,29
1512459566267000,36,49,-2,-32,0,3,-7,-13
1512459566267000,5,-47,26,12,-6,-11,-5,-9
1512459566288034,-7,-24,11,-12,0,-1,1,-8
1512459566288034,19,41,-6,-2,5,-2,-14,25
1512459566289016,-4,4,0,11,2,3,2,10
1512459566289016,-19,24,11,1,7,3,16,-3
1512459566303025,10,-29,-8,1,0,-2,-14,-21
1512459566303025,31,22,0,13,4,6,10,50
1512459566304031,-42,-38,-17,-16,-9,0,7,-61
1512459566304031,-17,-15,-15,-10,-5,-13,-23,7
1512459566325053,-31,-55,-3,1,-7,-4,-13,-19
1512459566325053,-5,8,2,10,7,2,10,-2
1512459566327055,18,18,-15,-1,-5,-11,-16,4
1512459566327055,16,64,13,-4,-3,7,39,28
1512459566348069,-19,-5,-53,-40,-11,-11,-22,-19
1512459566348069,-14,-22,-20,20,7,1,-14,9
1512459566350058,-1,20,20,15,6,3,16,30
1512459566350058,4,-40,-29,1,-7,-6,-3,-9
1512459566362080,8,94,33,9,3,-2,11,39
1512459566362080,5,-57,2,-10,-2,6,11,-21
1512459566369081,18,25,-5,-11,-7,-14,-14,58
1512459566369081,10,21,-21,10,5,6,-4,-18
1512459566385092,-48,-34,13,8,4,2,9,-7
1512459566385092,19,9,6,-5,-5,-5,-6,13
1512459566387094,-5,-15,17,10,0,1,-11,12
1512459566387094,2,17,-23,-19,-3,-3,-4,-34
1512459566408122,17,-17,18,3,3,1,-4,0
1512459566408122,7,4,-8,-3,1,-3,3,15
1512459566409121,4,-64,-10,4,1,7,23,11
1512459566409121,-6,22,2,-2,4,-2,-5,9
1512459566422119,-4,42,4,-7,-3,2,-8,16
1512459566422119,23,-62,-3,-4,3,2,4,15
1512459566429123,-7,16,12,2,-3,3,6,-35
1512459566429123,-9,-14,-38,-14,-3,-3,-9,-10
1512459566445135,11,23,22,7,8,12,14,9
1512459566445135,35,37,-1,0,-2,-4,-6,1
1512459566447137,-13,21,10,1,2,-5,-6,9
1512459566447137,-14,-43,23,-14,-2,2,-3,-9
1512459566475161,13,14,-29,27,-4,-3,13,-33
1512459566475161,-6,-64,-5,3,0,-2,-1,3
1512459566477160,-7,47,8,-13,1,-1,-6,-28
1512459566477160,20,20,-1,6,-4,-8,-8,23
1512459566482161,-25,-35,1,-17,-6,3,3,-2
1512459566482161,-39,1,22,14,-1,-4,-9,0
1512459566489167,-9,-20,-33,-11,-3,-5,-4,3
1512459566489167,-4,-1,15,8,2,3,5,-15
1512459566505183,5,25,43,-11,-5,-7,-11,27
1512459566505183,-16,-11,-40,1,-3,-2,2,-46
1512459566508185,9,11,38,-7,-1,1,0,34
1512459566508185,-23,-1,-26,0,-8,-8,4,-3
1512459566528200,19,-8,-6,-11,-3,-6,-7,-3
1512459566528200,-14,9,16,3,-4,0,-15,-15
1512459566529187,12,-5,6,-16,4,4,9,35
1512459566529187,-43,-23,-7,30,0,3,13,1
1512459566542206,13,-17,-40,2,-2,-9,-10,-12
1512459566542206,9,58,12,-21,2,2,0,28
1512459566558218,-14,-9,8,-5,-9,-4,-10,-57
1512459566558218,26,-36,5,10,5,5,2,6
1512459566565220,11,-4,-3,1,2,-2,4,39
1512459566565220,6,21,-6,-4,0,-2,-5,2
1512459566567221,-13,-40,-6,-8,-5,1,4,-21
1512459566567221,32,34,-7,11,0,-2,-8,-17
1512459566587235,-31,-15,-8,5,8,3,3,-5
1512459566587235,17,-2,-8,-8,-6,-4,-3,-5
1512459566594234,27,3,12,20,4,5,-2,21
1512459566594234,-4,-7,5,-26,-3,-7,-8,4
1512459566603238,-2,22,-4,4,1,0,-6,1
1512459566603238,8,-2,-9,-22,2,1,1,-4
1512459566609299,10,53,-6,30,9,4,2,-2
1512459566609299,0,-34,-9,-22,-11,-2,12,-3
1512459566625310,10,0,-8,12,0,0,-3,-46
1512459566625310,-41,-22,21,-3,1,2,2,19
1512459566627311,-20,12,-1,3,-8,-9,-4,-4
1512459566627311,-6,-27,5,11,6,3,3,-15
1512459566648312,32,32,-1,5,-2,1,4,20
1512459566648312,-21,-4,-13,-12,-9,-5,-7,21
1512459566649333,-3,-3,-42,-1,2,0,-2,-8
1512459566649333,-21,-14,4,-6,-4,-3,-5,-6
1512459566662324,8,10,23,8,0,-7,-12,5
1512459566662324,6,-2,-9,9,-2,1,6,-15
1512459566669341,-11,-32,10,2,-8,-2,1,0
1512459566669341,1,-2,12,-9,6,6,-14,17
1512459566685351,7,37,15,0,5,-3,3,5
1512459566685351,0,27,-7,1,-2,2,4,-20
1512459566687352,15,-26,-8,-7,-4,-7,-14,5
1512459566687352,-7,-2,16,22,7,7,20,10
1512459566707376,0,7,-9,-10,-6,-4,-7,8
1512459566707376,21,16,-9,-5,1,-4,-5,24
1512459566709365,-16,-36,-7,-7,-11,-6,-1,-53
1512459566709365,-4,7,-16,-6,5,5,-5,-13
1512459566721373,27,-4,-14,-15,-9,-2,10,-30
1512459566721373,-3,-5,42,19,4,2,-6,19
1512459566730389,-17,-22,-24,13,5,4,9,-3
1512459566730389,6,20,36,-1,-8,-5,-4,-25
1512459566745399,-6,-36,-19,5,-1,-2,-13,-5
1512459566745399,-36,-16,12,4,-5,0,-10,-36
1512459566751403,-7,26,-5,-9,1,-3,-3,-1
1512459566751403,-10,13,-10,-20,-10,-4,0,-7
1512459566767406,10,-14,-5,34,6,0,1,-15
1512459566767406,6,-39,29,7,1,-1,11,28
1512459566769398,21,11,-45,-14,5,5,2,1
1512459566769398,11,41,-4,-4,-7,-6,-13,15
1512459566781407,-29,-18,5,-23,-3,3,-4,-34
1512459566781407,3,-56,-27,-2,-5,-7,4,14
1512459566790414,15,22,68,17,-3,2,-5,-5
1512459566790414,18,8,-74,-16,-3,-4,-1,-3
1512459566805435,-34,10,21,-24,-2,3,-2,6
1512459566805435,53,18,-15,37,12,3,-1,-9
1512459566807427,2,3,10,7,1,1,2,-31
1512459566807427,-16,-35,41,-2,-5,-4,-11,12
1512459566828454,-11,-23,-12,-12,-5,-1,-2,18
1512459566828454,-5,6,-12,-26,0,-1,0,-22
1512459566834443,17,24,4,21,7,1,-7,29
1512459566834443,-17,-21,4,-2,-2,-3,4,-45
1512459566850464,8,-14,-17,-19,0,2,17,30
1512459566850464,-26,-9,-7,5,-11,-5,-19,-24
1512459566856459,-10,6,-4,-10,-1,1,0,13
1512459566856459,-21,-6,-13,-1,-7,-6,-7,4
1512459566872480,-21,-8,20,-10,2,0,-3,28
1512459566872480,-28,-10,-12,-11,-8,-8,-10,-29
1512459566874481,-4,-4,-28,-2,-13,-10,-9,4
1512459566874481,-3,8,7,19,5,3,4,8
1512459566887491,19,20,-11,8,6,-2,-5,-14
1512459566887491,4,19,11,-3,2,1,14,40
1512459566889482,-8,-12,-6,-15,-5,-4,-3,-4
1512459566889482,-5,-1,15,-2,1,-2,-1,1
1512459566901501,15,13,-1,28,5,2,0,-11
1512459566901501,-31,-33,-16,-13,-3,-2,-2,2
1512459566910499,18,-59,7,-13,-8,-3,8,24
1512459566910499,-10,20,8,1,7,-1,5,9
1512459566925509,5,-5,5,-2,1,1,4,-1
1512459566925509,11,25,4,12,2,9,4,7
1512459566926510,1,29,23,-12,-4,-4,4,-9
1512459566926510,13,-28,3,-7,0,-1,2,3
1512459566947533,5,-7,-4,-6,-6,-2,-5,13
1512459566947533,31,31,-7,22,8,2,-1,-19
1512459566953537,-14,-28,-50,-16,-1,-2,4,5
1512459566953537,20,55,39,-3,2,-1,0,25
1512459566961549,18,13,17,1,3,-2,3,-40
1512459566961549,34,-30,-52,-13,-8,0,6,4
1512459566970540,-8,3,1,-7,3,-1,0,19
1512459566970540,11,-3,-23,25,1,-2,0,3
1512459566985560,14,-5,6,3,2,6,11,38
1512459566985560,-4,20,18,-3,2,1,-1,-2
1512459566986551,-5,-10,12,-8,1,0,-6,-4
1512459566986551,-15,-1,-70,-12,-2,-2,-3,-33
1512459567008581,-13,-5,13,18,-2,-4,-5,17
1512459567008581,-38,-25,7,-3,-4,3,3,-4
1512459567009567,-9,36,15,-1,1,-2,-6,3
1512459567009567,9,-18,-9,-6,1,2,-8,-14
1512459567021586,-12,14,-19,-3,0,-1,-1,-9
1512459567021586,23,-6,20,-18,-1,-7,-3,13
1512459567030582,9,7,8,31,7,6,7,1
1512459567030582,-17,-31,-13,-7,-5,0,-9,3
1512459567045595,-3,-18,-32,-10,-6,1,2,-19
1512459567045595,16,1,-19,-12,-9,-11,-4,8
1512459567046596,11,16,29,5,2,4,0,-12
1512459567046596,-5,16,-5,0,-3,-4,7,29
1512459567067657,14,-14,-6,-10,8,3,-2,4
1512459567067657,-53,-11,-6,-4,-1,-5,-4,-9
1512459567069658,-11,-32,-25,-7,-9,-9,-6,-9
1512459567069658,3,-5,14,23,-2,-1,-16,-12
1512459567081667,8,46,2,-15,-6,-5,-6,-34
1512459567081667,16,31,17,6,4,-2,12,-6
1512459567090673,-1,-22,-21,-5,-5,-3,-10,-25
1512459567090673,-2,-32,12,-25,-4,0,6,8
1512459567112690,3,8,15,34,6,4,6,11
1512459567112690,31,20,9,-1,8,2,-5,-8
1512459567114691,-1,-13,-11,-4,-3,-6,-3,12
1512459567114691,15,8,9,-3,3,4,6,-5
1512459567128703,-24,-13,-13,2,-7,-3,-8,-11
1512459567128703,16,4,26,0,3,4,4,18
1512459567129704,7,29,-9,-11,-4,-6,2,-6
1512459567129704,17,-25,11,-4,-4,1,0,6
1512459567150717,-36,-17,1,-3,-4,-7,-8,8
1512459567150717,6,25,11,-1,-3,-1,-8,-17
1512459567152718,-21,-14,1,3,-4,0,8,11
1512459567152718,-11,-25,12,-7,-3,-3,-9,-29
1512459567165727,-5,0,0,3,0,-1,5,-16
1512459567165727,-1,3,18,-5,-13,-6,-5,-8
1512459567166728,9,22,-28,2,1,1,-8,-29
1512459567166728,22,60,-8,11,6,0,7,10
1512459567187742,-20,-49,5,-12,-5,-6,-17,-5
1512459567187742,-16,-5,-17,-3,1,1,1,0
1512459567189744,-4,11,31,6,6,4,-5,11
1512459567189744,5,1,-23,9,4,0,2,-1
1512459567210774,40,29,7,-9,-2,0,-5,12
1512459567210774,-28,-15,-13,8,-1,2,1,-5
1512459567211769,19,10,9,-26,-10,-3,6,21
1512459567211769,-30,-73,-18,7,-1,-3,-6,-11
1512459567225770,-19,14,4,-15,5,0,0,8
1512459567225770,-9,2,-1,-14,-8,-1,0,-20
1512459567226770,16,1,-4,17,0,-9,-15,20
1512459567226770,4,5,8,7,1,3,14,-7
1512459567247788,-5,-14,-32,-17,-2,-1,0,-2
1512459567247788,7,-12,5,-8,2,-6,12,20
1512459567249789,-7,-2,7,21,5,10,5,-21
1512459567249789,5,53,2,-25,-11,-5,-6,8
1512459567270801,-38,-77,-12,20,2,-2,-4,20
1512459567270801,36,38,-3,-4,-1,-4,-2,5
1512459567271801,3,-24,13,-21,-5,-6,-2,-20
1512459567271801,19,-1,4,38,7,-1,7,2
1512459567284811,-9,5,-33,-63,-17,-9,-5,-7
1512459567284811,-5,-18,22,26,1,2,-12,-12
1512459567291816,0,18,-39,-2,0,3,0,3
1512459567291816,9,10,-27,-3,4,0,-4,14
1512459567307857,18,22,32,-26,-5,-6,-8,12
1512459567307857,5,1,-28,24,9,5,4,0
1512459567309901,-47,-52,1,-12,-13,-7,-3,-19
1512459567309901,-34,-29,7,-10,-1,2,-4,6
1512459567329888,51,37,-3,10,9,10,12,36
1512459567329888,-20,-8,-17,-3,0,-2,-11,-2
1512459567331876,16,48,34,15,4,3,7,11
1512459567331876,-19,-32,14,-6,0,2,8,-7
1512459567344913,1,-11,-30,3,-4,-11,-2,0
1512459567344913,9,6,26,9,3,-3,-4,-2
1512459567351915,-4,-5,-23,-1,1,-2,8,-12
1512459567351915,23,8,47,-14,-3,-2,-10,16
1512459567367902,-25,-61,-39,31,11,8,9,10
1512459567367902,-20,11,15,-13,-6,-7,-5,-26
1512459567368911,-14,-4,-18,-4,-8,-6,-20,-7
1512459567368911,-2,31,9,-2,7,5,5,10
1512459567389918,26,17,23,14,-2,-3,-4,-18
1512459567389918,-1,-18,1,-21,-8,-3,-13,28
1512459567391936,1,-2,7,20,-2,-3,-2,-3
1512459567391936,-4,-10,-17,0,7,2,5,-10
1512459567404942,0,54,27,10,-3,-9,-8,-15
1512459567404942,-7,-95,-47,5,4,2,3,-5
1512459567411944,-6,38,41,-5,0,2,4,14
1512459567411944,13,26,-8,-9,-5,-2,1,28
1512459567427959,-48,-12,13,3,-3,0,7,-52
1512459567427959,26,38,9,10,5,2,-1,22
1512459567428945,-11,-28,-9,-2,-4,2,5,-6
1512459567428945,13,23,5,9,-5,-9,-8,-27
1512459567457980,-48,-35,-12,-9,-5,-5,-21,15
1512459567457980,12,7,25,5,-3,4,5,10
1512459567458981,-6,-8,-20,-31,1,-4,3,-14
1512459567458981,-21,-21,9,-2,-3,5,4,-6
1512459567464971,10,3,-3,-1,-1,-4,-3,13
1512459567464971,14,16,19,-3,-4,-3,-11,13
1512459567470984,16,-16,39,33,8,6,-4,-8
1512459567470984,10,19,-94,-23,-10,-9,5,-8
1512459567487998,2,-48,47,4,3,1,-6,10
1512459567487998,-27,-7,-48,-36,-14,-3,-1,-28
1512459567488988,6,25,19,13,1,4,7,6
1512459567488988,12,22,17,-17,0,2,-6,11
1512459567510017,20,11,1,23,3,3,11,-10
1512459567510017,29,29,-4,-6,0,-2,-2,17
1512459567512004,-41,-46,18,-11,-3,-2,3,-22
1512459567512004,9,12,-35,5,-2,-7,-20,-4
1512459567525022,8,2,-8,-10,-2,1,2,9
1512459567525022,-17,-28,1,-7,5,-1,-8,-2
1512459567531026,16,2,7,10,-4,-5,6,2
1512459567531026,6,5,5,4,-1,1,5,-14
1512459567548041,-7,-18,-4,-4,-1,3,8,16
1512459567548041,-1,34,-8,9,2,6,8,-2
1512459567549039,9,-8,-15,-18,4,3,-1,-16
1512459567549039,-30,-19,33,20,1,-8,-6,2
1512459567570059,48,43,-1,6,2,0,-1,-2
1512459567570059,-9,-15,-10,-1,4,6,11,-34
1512459567572055,24,-17,-1,2,-7,-7,-4,51
1512459567572055,7,13,-36,-28,-4,2,6,-10
1512459567585067,-4,-7,-10,32,14,5,6,-44
1512459567585067,9,27,-4,0,-1,-7,8,44
1512459567591060,-24,14,-4,-12,3,-1,2,-9
1512459567591060,22,-11,31,20,-7,-6,0,-30
1512459567608121,22,18,5,-7,2,1,-16,34
1512459567608121,-48,-39,-25,-20,-5,-3,-11,-34
1512459567609151,7,3,-22,19,-2,4,2,4
1512459567609151,-3,6,23,-2,3,1,0,29
1512459567638146,-5,-7,-1,6,0,-2,-4,-6
1512459567638146,-4,4,11,-5,-5,-5,-4,8
1512459567640146,-26,-21,-5,-20,-4,-1,-5,-2
1512459567640146,-4,1,8,22,5,0,-2,-8
1512459567644166,25,10,-22,-19,-2,0,3,12
1512459567644166,0,-14,-10,-4,-8,-8,-2,-24
1512459567653155,16,37,-19,-2,3,0,-3,-4
1512459567653155,-8,-35,-12,-8,-9,-4,-9,8
1512459567668167,-10,-13,2,-6,-4,2,5,-42
1512459567668167,-11,16,20,-4,-5,-2,4,3
1512459567669168,15,12,3,5,0,-1,-2,-9
1512459567669168,-8,5,-9,-5,-5,-5,-5,6
1512459567690184,4,5,16,-1,-1,1,5,13
1512459567690184,3,-10,-35,2,0,-3,-13,-15
1512459567692183,-10,-7,20,-1,-3,-5,4,-2
1512459567692183,0,6,1,2,4,3,-12,-4
1512459567704231,-24,5,7,0,-5,-4,6,-2
1512459567704231,8,-3,5,12,3,4,2,0
1512459567713198,-10,9,-1,0,-1,0,-8,-5
1512459567713198,-7,-29,-1,-7,-1,-1,9,4
1512459567728213,3,14,-2,-7,2,-2,0,4
1512459567728213,-2,-8,15,13,5,5,-4,5
1512459567729209,8,-3,-10,-2,-2,5,6,-4
1512459567729209,-5,3,5,-1,-1,2,9,-2
1512459567750228,-5,-14,10,6,-3,-2,-4,6
1512459567750228,-7,10,12,-5,1,0,-4,0
1512459567752229,10,-7,-19,-7,-5,-6,-6,5
1512459567752229,-14,15,8,-3,2,3,-3,-4
1512459567764237,9,11,-10,0,-4,-1,11,-2
1512459567764237,2,-32,-15,-6,-4,-1,6,6
1512459567773241,-6,30,7,-1,4,-1,-2,-15
1512459567773241,2,3,22,0,-7,-7,-4,2
1512459567787251,-2,-8,-5,-1,5,4,6,16
1512459567787251,14,22,-7,7,0,0,3,-13
1512459567789253,-8,-2,8,-9,-2,-5,-4,-6
1512459567789253,-22,-1,5,16,-1,-2,-5,-16
1512459567810266,14,-10,-18,-28,-4,2,15,-14
1512459567810266,-5,25,11,30,-5,-8,0,12
1512459567812273,-12,-8,45,-17,0,-1,-12,-1
1512459567812273,9,-1,-6,-1,3,1,2,-3
1512459567824277,-7,8,25,3,-3,-3,-6,-10
1512459567824277,2,-27,-45,-18,-2,-1,-1,-4
1512459567833284,-12,8,10,2,-2,-1,-2,-1
1512459567833284,-48,-15,-18,-1,2,3,1,17
1512459567847294,10,8,17,2,-12,-3,-5,-11
1512459567847294,11,-2,3,-3,-2,-3,-6,-16
1512459567849294,9,2,-7,-2,-4,-7,-11,2
1512459567849294,-5,9,-3,-5,-7,-2,1,-31
1512459567870310,8,5,3,11,7,3,0,22
1512459567870310,-46,-33,-15,1,-6,-3,0,17
1512459567872311,1,-4,-31,-14,-7,-2,11,0
1512459567872311,9,-10,-4,3,4,1,-18,-2
1512459567884320,-6,-1,-4,-6,1,0,15,-2
1512459567884320,0,17,6,-2,2,3,-5,14
1512459567893325,26,-2,4,23,3,-2,-2,13
1512459567893325,5,-6,13,-12,-3,2,4,-26
1512459567907371,-13,11,-54,18,1,-2,-14,17
1512459567907371,-10,-31,29,-12,0,-3,1,-13
1512459567909384,-15,-24,-7,-16,-2,3,6,-10
1512459567909384,45,32,-36,10,12,1,-12,28
1512459567930408,-7,-19,-20,-19,-8,-5,-7,-14
1512459567930408,20,30,11,6,0,0,4,-3
1512459567932402,-14,-8,-14,-10,-6,-2,-4,4
1512459567932402,6,-19,38,5,-2,2,15,10
1512459567944400,-40,-28,-15,-7,2,-1,-14,-2
1512459567944400,38,13,-10,7,-1,-5,1,-4
1512459567953408,12,9,15,10,3,0,-4,13
1512459567953408,-32,-29,1,-5,-3,-1,-4,-18
1512459567968420,9,13,6,0,-4,-5,-2,-3
1512459567968420,-4,17,-1,-9,-1,2,2,-8
1512459567969417,-8,-25,4,7,-2,-4,-15,0
1512459567969417,3,0,-15,-9,-7,-1,14,-5
1512459567990457,-13,-15,19,6,3,-3,-1,-11
1512459567990457,39,22,13,-3,3,3,-5,10
1512459567992434,-34,8,-12,11,-6,-3,-2,-23
1512459567992434,-1,-7,8,-5,0,-2,5,19
1512459568004442,-2,-5,-43,-19,-8,-6,-10,-10
1512459568004442,-6,0,30,0,3,2,8,4
1512459568013449,13,7,-6,9,3,3,3,0
1512459568013449,-24,-8,13,9,-3,-3,-5,-6
1512459568028460,16,16,18,-9,0,2,-2,11
1512459568028460,-20,-9,-16,6,3,-1,1,-6
1512459568029461,-1,-9,-10,-16,-2,-1,4,-5
1512459568029461,14,20,15,10,0,-1,-4,5
1512459568050484,1,-2,2,1,1,-4,-4,7
1512459568050484,-19,-6,-7,-4,-1,2,4,-3
1512459568051484,-6,-1,6,8,-3,-4,-5,-10
1512459568051484,16,-12,-42,-24,-5,-5,-12,-5
1512459568072489,-2,-24,19,14,4,6,10,0
1512459568072489,-5,1,4,2,-1,-5,-2,-8
1512459568074503,-3,6,-13,-10,-6,-3,0,-2
1512459568074503,-1,3,-5,-4,-2,-6,-4,3
1512459568087517,2,7,3,2,-1,0,-1,-3
1512459568087517,-1,-8,4,2,-1,0,-8,-3
1512459568089519,1,-1,-6,-1,0,4,10,-1
1512459568089519,-2,1,7,0,3,-2,-5,4
1512459568110517,13,0,-3,4,0,1,-9,-4
1512459568110517,-2,-13,-18,-7,-3,-2,-1,6
1512459568111517,1,3,9,4,0,-3,-5,-1
1512459568111517,3,2,-1,-1,-1,0,4,0
1512459568132544,-2,3,6,-2,-2,-3,-4,0
1512459568132544,-8,-5,-8,3,-2,1,1,-6
1512459568134537,1,0,3,3,-2,-2,0,0
1512459568134537,3,-1,5,2,-1,1,4,0
1512459568147542,2,2,-1,-2,2,-4,-7,-1
1512459568147542,-7,-8,-11,-6,-2,-1,-2,-2
1512459568154549,14,5,1,2,-1,3,3,-5
1512459568154549,-5,-3,0,-2,0,-2,7,5
1512459568170558,-3,-2,-3,2,-2,3,-1,0
1512459568170558,4,-1,14,-1,-3,-7,0,-3
1512459568171559,-1,4,1,0,0,-1,-10,-2
1512459568171559,-4,-3,-12,-6,-3,-1,-1,0
1512459568192586,4,2,0,2,-4,2,-2,1
1512459568192586,-1,0,8,1,0,-3,-2,0
1512459568194590,-3,-4,-10,-6,0,-1,3,0
1512459568194590,5,-3,-1,0,1,-5,-7,3
1512459568207608,-4,3,3,0,0,-3,3,1
1512459568207608,-3,-4,5,-4,-2,0,-6,-3
1512459568209587,-3,-1,-6,-2,-2,-2,4,0
1512459568209587,0,-4,-10,-6,-3,1,9,0
1512459568230602,-1,5,16,12,6,-1,-2,-4
1512459568230602,0,0,-5,-3,-2,2,-3,1
1512459568231602,-2,-2,2,3,1,-1,1,-2
1512459568231602,6,4,0,1,0,-1,-6,-3
1512459568251626,-13,-9,-13,-1,-1,-5,3,-4
1512459568251626,-2,-14,2,-10,-2,0,-4,-1
1512459568260632,-10,6,11,3,0,0,-2,3
1512459568260632,2,-3,-4,0,-3,1,11,0
1512459568266637,5,5,-8,-7,-3,-1,-1,2
1512459568266637,1,-1,-6,3,-3,-1,-12,-6
1512459568273642,-6,0,10,1,1,-2,5,-2
1512459568273642,-2,-5,9,-4,1,3,8,0
1512459568290644,2,1,-11,-3,-1,-1,-3,0
1512459568290644,-4,-2,-10,-4,-2,-1,3,0
1512459568291645,4,1,-4,-4,-1,1,-5,3
1512459568291645,0,5,2,3,0,-3,-6,-1
1512459568312670,-7,-5,10,3,3,3,0,0
1512459568312670,-2,-1,0,-2,-3,0,4,-2
1512459568314670,3,2,3,1,-2,-5,-6,1
1512459568314670,-4,-6,-8,-4,-1,1,-1,-2
1512459568326678,1,2,-1,1,-5,-4,-2,-2
1512459568326678,-2,2,8,2,1,0,3,-2
1512459568333683,1,-5,6,-5,2,-1,-2,3
1512459568333683,1,5,-4,7,-1,-2,2,-1
1512459568350696,-1,-7,-4,-14,-3,-5,-15,-6
1512459568350696,3,7,4,9,0,2,8,2
1512459568352688,-3,-5,-1,-9,-4,-1,3,-4
1512459568352688,2,1,7,2,2,-3,-17,-1
1512459568380717,0,3,5,3,-3,0,12,1
1512459568380717,-4,-9,-15,-4,-1,-2,-4,-4
1512459568381709,-6,-2,1,0,-1,1,3,1
1512459568381709,-1,-3,-10,-2,-1,1,-6,1
1512459568386729,1,1,-2,-4,0,0,4,1
1512459568386729,-2,-1,2,2,-3,-6,-7,-2
1512459568393716,0,1,-6,3,-3,2,6,-2
1512459568393716,-2,-7,-3,-6,-2,-4,1,-2
1512459568411740,3,2,6,1,-1,-1,-7,0
1512459568411740,-1,6,-6,6,-2,0,2,1
1512459568413731,-3,-7,2,-13,0,-2,-2,0
1512459568413731,-4,-1,-23,-5,-2,-4,-3,-4
1512459568432754,-4,-4,1,1,1,-1,12,0
1512459568432754,3,2,-2,0,2,-3,-2,0
1512459568434755,1,3,-10,5,-1,-2,-5,-2
1512459568434755,0,-1,-6,-11,-3,-1,4,3
1512459568446764,-2,-6,-18,-1,0,1,2,1
1512459568446764,-3,0,9,-5,-2,-1,5,0
1512459568453782,-1,0,-15,1,-1,-3,-3,-1
1512459568453782,0,-1,21,3,0,-2,-3,1
1512459568469791,0,-1,-1,3,-1,-2,-4,-1
1512459568469791,-2,-4,-7,-4,-2,-1,0,-2
1512459568471801,-2,1,3,1,1,0,-2,-6
1512459568471801,-2,-5,9,-6,-4,-2,-1,0
1512459568492810,2,1,-4,0,0,-2,-8,-1
1512459568492810,-2,0,-5,2,-1,2,-2,-3
1512459568494810,0,-4,-14,-7,-4,-3,3,1
1512459568494810,2,3,10,10,1,-1,-5,-1
1512459568506832,-2,2,10,7,-1,-1,-3,1
1512459568506832,-1,-6,-12,-14,-1,-1,-4,-2
1512459568514824,1,0,0,3,-3,0,2,2
1512459568514824,-1,1,-7,0,0,-1,2,2
1512459568529833,-2,-6,1,-4,-3,-4,-2,-6
1512459568529833,-5,1,0,0,-3,1,2,1
1512459568529833,-2,-3,4,-2,0,-2,-6,-4
1512459568529833,-1,-1,-5,-3,2,0,2,2
1512459568551895,1,2,-1,0,0,1,-1,-2
1512459568551895,-1,1,-5,0,-1,-3,-2,-3
1512459568552882,1,2,9,8,0,0,0,-3
1512459568552882,-2,-3,-16,-8,-1,0,-6,0
1512459568566909,-3,-5,-2,-7,-5,0,0,-4
1512459568566909,-1,1,15,11,4,0,0,-1
1512459568574907,-2,-6,-12,-9,-3,-2,-2,0
1512459568574907,-1,3,29,6,0,1,-2,-1
1512459568589918,-5,-7,-51,-16,-2,-4,-4,-4
1512459568589918,-3,1,31,1,-3,-1,-8,1
1512459568589918,2,1,7,3,1,1,9,-1
1512459568589918,1,0,-1,-1,2,4,9,-2
1512459568611938,-1,-4,-1,-2,-3,-4,-6,3
1512459568611938,-1,1,5,1,-1,-3,-4,-6
1512459568612927,-2,-1,-14,-3,0,0,-4,1
1512459568612927,-3,-1,3,2,0,-3,-5,-1
1512459568625943,-1,3,18,4,1,3,6,2
1512459568625943,-2,-3,-11,-4,-3,-1,4,-1
1512459568634954,-4,-2,6,2,-3,-3,-7,-3
1512459568634954,3,0,-13,0,0,1,-1,-1
1512459568649960,-1,1,10,2,-2,-1,-3,-5
1512459568649960,-2,-2,-4,-8,-6,-4,-2,1
1512459568650950,0,1,-13,-7,-1,-1,0,-3
1512459568650950,-4,-3,2,8,1,-1,-11,-2
1512459568671977,-3,-3,-13,-7,-4,3,12,1
1512459568671977,2,3,3,0,-2,-1,-3,2
1512459568672983,-1,-2,6,-2,-1,-3,2,-4
1512459568672983,1,1,-23,-4,-1,0,1,-4
1512459568685987,-4,-1,11,-2,1,-5,-12,-1
1512459568685987,1,-2,-23,-1,-3,-2,1,-1
1512459568694986,-4,-1,19,-2,1,7,12,4
1512459568694986,1,2,4,2,0,-4,-3,4
1512459568710038,-1,-7,-22,-6,-2,0,4,-1
1512459568710038,-2,-1,5,-1,-1,-1,0,-4
1512459568710038,-1,1,-5,2,0,-4,-10,-1
1512459568710038,-2,0,1,-3,-1,-1,-1,0
1512459568732021,1,1,13,2,3,1,0,1
1512459568732021,-1,0,-5,-1,-1,-1,-4,-1
1512459568733009,0,1,-19,-2,0,2,-1,-2
1512459568733009,-4,-2,22,-1,0,-2,0,-1
1512459568746018,0,3,9,12,-3,-3,-2,-2
1512459568746018,2,-4,4,-5,1,-2,0,-1
1512459568755041,-1,0,-6,1,0,-2,0,-2
1512459568755041,-2,-1,12,-2,-1,-2,1,1
1512459568770045,-1,4,-7,1,0,-1,-7,-2
1512459568770045,-3,-2,-5,0,-3,1,2,-4
1512459568770045,0,-5,6,0,-1,-3,-3,1
1512459568770045,2,0,-9,-1,-2,-3,-3,4
1512459568792063,-3,-4,-13,-3,-2,-2,1,0
1512459568792063,-3,-1,-5,-5,-1,-3,2,-1
1512459568793068,-3,1,5,-1,0,2,6,1
1512459568793068,3,-4,-10,-2,-1,1,-5,-3
1512459568815066,-1,-2,5,-3,0,0,4,1
1512459568815066,-4,-1,2,1,0,-1,3,-3
1512459568816067,0,0,-4,-1,0,-5,-5,-2
1512459568816067,-5,-3,-7,-3,-2,0,-3,-1
1512459568830092,0,-1,11,1,-1,2,3,0
1512459568830092,3,0,1,-1,0,-1,-3,0
1512459568830092,-10,-8,-21,-10,-6,-4,-2,-2
1512459568830092,1,1,-2,1,3,-1,0,0
1512459568852110,-2,1,1,0,-1,-2,-11,-3
1512459568852110,-2,-2,-1,0,-1,0,-1,-2
1512459568853110,-2,1,0,0,-2,-1,-4,-5
1512459568853110,3,-3,-5,-3,0,-1,-3,0
1512459568866111,2,1,6,2,2,3,11,0
1512459568866111,-3,0,0,-2,-2,1,-2,0
1512459568874121,0,-1,2,0,-3,-3,-5,-1
1512459568874121,-1,-2,-4,1,-2,0,-1,-1
1512459568898135,4,0,8,1,2,2,4,2
1512459568898135,-1,7,22,5,-2,5,3,1
1512459568898135,-4,-13,-26,-9,-2,-7,-6,-1
1512459568898135,-1,-1,6,-1,-1,-2,-3,-2
1512459568912141,0,-4,-6,-3,-3,-3,-5,0
1512459568912141,-1,0,9,-1,-1,-4,-3,-4
1512459568913139,-2,2,5,3,-2,-1,-5,0
1512459568913139,-1,0,-5,-2,-1,1,2,0
1512459568926163,1,-3,6,-2,0,-2,-8,-1
1512459568926163,-1,-5,-16,-4,-1,-1,-2,1
1512459568934163,-2,3,7,3,-3,-2,-1,-2
1512459568934163,-1,-3,-8,-1,-2,2,2,-1
1512459568949171,0,2,2,-2,-1,-1,-3,-1
1512459568949171,-2,-3,-8,-6,-1,-1,-7,-6
1512459568950167,1,0,0,0,-1,1,3,1
1512459568950167,2,1,6,-2,2,0,-4,1
1512459568972187,-3,-2,-2,-1,-3,0,-2,-4
1512459568972187,0,-2,-5,-2,-3,-3,-2,1
1512459568973188,0,2,6,1,0,1,1,-2
1512459568973188,0,-5,-5,-3,-2,-3,0,-1
1512459568995209,4,-1,1,-2,0,-2,-5,-2
1512459568995209,-4,-2,-7,-2,-3,-3,-2,-2
1512459568996199,0,4,10,1,1,0,-2,0
1512459568996199,0,-1,1,-1,0,-1,-1,-2
1512459569009218,-2,0,3,2,1,1,-2,-2
1512459569009218,-2,-3,2,-3,-1,-3,3,-2
1512459569010204,0,1,0,-1,1,1,5,-3
1512459569010204,-2,-1,-4,0,-2,-2,-1,3
1512459569032243,0,1,3,1,-1,1,-7,1
1512459569032243,-3,0,-10,-1,-5,0,2,-2
1512459569033225,-1,-2,0,-2,2,-2,-2,-1
1512459569033225,1,-1,-1,-1,1,-2,2,1
1512459569055242,-2,-2,-5,-2,-2,1,0,-3
1512459569055242,-3,-2,-5,-1,3,-2,1,-1
1512459569056238,0,-2,-2,0,-1,2,-5,-2
1512459569056238,2,-2,0,-1,-4,1,0,1
1512459569069269,-5,-1,-6,-3,-1,-3,1,-3
1512459569069269,0,-3,-1,-1,-2,-1,-2,0
1512459569070251,0,1,4,2,-2,-1,2,-3
1512459569070251,-2,0,-3,-2,-1,-1,-1,-2
1512459569092277,-1,-1,-5,0,-2,-3,1,-1
1512459569092277,0,1,1,0,-1,-1,1,-2
1512459569093278,-5,-1,-2,-2,0,-2,-1,-2
1512459569093278,-2,-2,-4,-3,-1,-1,-2,-1
1512459569115294,-2,-4,-1,0,-3,-1,0,-2
1512459569115294,-1,-1,-1,0,-3,0,-1,-4
1512459569116280,1,-2,-2,-3,-3,-1,-2,-3
1512459569116280,-1,-1,-4,-2,0,0,1,-1
1512459569129299,-2,2,0,-1,0,-3,-1,1
1512459569129299,-3,-1,-2,-1,-4,-1,-3,-2
1512459569130305,0,-1,1,1,-2,0,-1,0
1512459569130305,-2,0,0,-1,0,1,0,-4
1512459569152318,-3,-3,-2,-1,-3,-2,-1,0
1512459569152318,-3,0,0,0,-1,-1,-2,-2
1512459569152318,0,1,-1,-1,-3,-2,-1,0
1512459569152318,0,-2,-1,-3,-1,1,-3,-2
1512459569175331,1,-3,-1,-4,2,2,3,2
1512459569175331,-1,0,-2,-1,-1,-2,-1,-2
1512459569176331,0,0,-1,-1,-1,0,-2,1
1512459569176331,-2,0,-3,1,0,-3,2,1
1512459569189331,-1,0,-2,0,0,1,-2,1
1512459569189331,2,-1,0,-2,1,-1,-2,0
1512459569190332,-1,-1,-1,-2,0,-2,0,-2
1512459569190332,-3,-4,-2,-1,-2,0,-2,-1
1512459569212350,-1,0,-2,-1,-1,-2,0,0
1512459569212350,-2,-1,0,1,-1,0,-2,0
1512459569213349,-2,0,0,-2,-1,-1,-2,-3
1512459569213349,1,0,0,-1,1,-3,0,2
1512459569235386,1,-2,1,1,-2,-2,1,-1
1512459569235386,-1,0,-3,-2,0,0,1,1
1512459569236388,-4,-2,-1,-3,-1,1,0,-2
1512459569236388,-2,1,-3,0,-3,-1,-1,-1
1512459569249375,2,-1,-2,-2,1,-1,-1,-3
1512459569249375,-1,-3,-1,0,-2,-1,1,-3
1512459569250377,-3,-1,-1,1,-2,-2,-3,1
1512459569250377,2,0,0,-1,-2,-1,-1,2
1512459569280406,-1,-1,-1,-1,0,-1,-2,-2
1512459569280406,-3,-1,-3,-1,-2,-3,-3,-1
1512459569281406,0,0,-1,-1,-2,-1,0,-1
1512459569281406,-1,-3,-1,0,1,-1,-4,-1
1512459569303412,-1,-2,-2,-3,-3,-1,0,0
1512459569303412,-1,1,-1,1,-2,-2,0,-2
1512459569304413,1,-2,0,0,1,0,1,0
1512459569304413,1,-1,-3,-1,0,1,1,0
1512459569311431,-4,-2,-1,-1,-1,-3,-3,-4
1512459569311431,-2,-1,-1,-2,-6,1,-1,-3
1512459569311431,-2,-3,-2,-2,-1,-2,1,-3
1512459569311431,-1,-2,-2,1,0,0,-1,1
1512459569332432,-2,-1,-1,-2,0,-1,1,3
1512459569332432,1,-1,0,0,1,-1,-4,-2
1512459569332432,-1,2,-1,-1,-1,-1,2,-1
1512459569332432,-3,0,-1,-2,-3,-2,-2,-2
1512459569355473,1,0,-2,0,-1,-1,0,-3
1512459569355473,-2,-1,-3,-3,1,-1,2,-2
1512459569356470,1,-1,0,-3,-2,-2,1,-1
1512459569356470,0,-2,-1,-1,2,-1,0,-1
1512459569369468,-2,-1,0,0,-2,1,-4,-1
1512459569369468,-1,1,0,1,1,-2,1,-4
1512459569370460,0,-2,-1,-1,0,-1,1,1
1512459569370460,-1,-1,-2,-1,-2,-2,0,2
1512459569400496,-3,-4,-2,-1,0,1,-2,0
1512459569400496,-1,-1,0,-1,-3,-2,-2,-3
1512459569401497,1,1,-1,0,0,0,-1,-2
1512459569401497,-2,0,0,0,-1,-1,-2,1
1512459569415491,-4,-2,-1,-2,-1,-2,2,0
1512459569415491,-2,0,-1,0,-3,0,1,-1
1512459569416492,-1,-1,-1,-1,0,-2,0,-2
1512459569416492,2,-4,-2,1,0,-1,0,-2
1512459569429514,0,0,-1,0,-3,-1,-3,-4
1512459569429514,-1,-1,0,-1,1,-1,-2,-2
1512459569430502,-3,-1,-4,-1,0,-1,-2,-2
1512459569430502,-1,1,0,-1,-2,-1,-2,-4
1512459569452518,0,-1,-1,0,-1,-1,1,1
1512459569452518,-1,-2,-1,-1,-1,-1,1,-5
1512459569452518,-1,-2,1,0,-2,-1,-1,-2
1512459569452518,-1,-1,-1,-1,1,1,0,-2
1512459569475591,2,2,0,-1,-4,-1,-1,-2
1512459569475591,-2,0,-1,-2,-2,-2,-2,-2
1512459569476568,-1,-2,0,-1,-1,0,-3,-1
1512459569476568,0,-2,-3,-1,-1,-1,0,0
1512459569489545,0,-1,-1,1,-2,-2,-1,-2
1512459569489545,-1,0,0,-1,-1,-1,-1,0
1512459569490545,-2,-1,-2,-1,-3,-1,-2,0
1512459569490545,-1,-3,-2,-2,1,0,-2,-2
1512459569512575,-1,1,1,-1,0,-1,1,1
1512459569512575,-3,0,-1,-3,-3,-2,0,1
1512459569512575,-2,2,-4,-1,-1,0,-4,-2
1512459569512575,0,-2,-2,-1,-1,0,3,1
1512459569535576,-2,-1,-2,-2,-1,1,-1,0
1512459569535576,-3,0,-2,3,-1,-5,0,0
1512459569536578,1,-1,1,-2,-1,-1,2,4
1512459569536578,3,-2,-2,1,0,-1,-2,2
1512459569549595,-4,-3,0,-2,-1,0,-2,-3
1512459569549595,0,0,0,-1,1,2,2,-1
1512459569550596,-2,-1,-1,-2,0,-1,-4,-1
1512459569550596,-1,-1,-1,-3,3,-1,-1,-1
1512459569571612,0,-1,-5,0,0,-3,2,0
1512459569571612,-1,-2,-1,0,-3,0,-1,2
1512459569572602,1,0,1,1,2,-1,0,-2
1512459569572602,1,-2,-2,-1,-2,0,-2,-2
1512459569595633,0,-2,-3,-1,-2,0,-3,-4
1512459569595633,1,-1,-1,-3,2,-2,-2,0
1512459569596650,-1,-1,-1,-1,-1,-2,-2,-1
1512459569596650,-3,0,1,0,-3,-1,-3,0
1512459569608631,-1,0,-3,-1,0,0,-1,1
1512459569608631,-1,-2,0,-2,-3,-1,-3,-2
1512459569617647,-1,-1,-2,-1,0,0,1,0
1512459569617647,0,-2,0,-1,-1,-3,-1,-2
1512459569631656,0,-1,1,2,-1,1,-1,-1
1512459569631656,-2,1,-2,-2,2,-1,0,-3
1512459569632657,1,-2,-1,-1,-1,-1,-1,-2
1512459569632657,-3,-2,-1,-3,-2,0,0,-2
1512459569655671,-1,-2,0,-1,1,-2,-2,-2
1512459569655671,-2,0,-2,0,-5,-3,1,-2
1512459569655671,-2,-1,1,-2,1,0,-1,-3
1512459569655671,-1,-1,-2,0,-1,0,0,0
1512459569668684,-1,-1,-2,-2,1,1,-2,1
1512459569668684,-4,-2,0,0,-2,1,-3,0
1512459569676714,-2,-2,-3,0,1,-3,2,-3
1512459569676714,3,-2,-2,-1,0,1,0,-1
1512459569691707,0,-3,-2,-2,-1,-2,-2,-2
1512459569691707,0,0,-2,1,-1,0,-1,-3
1512459569692688,-4,-2,1,-2,0,-1,-2,2
1512459569692688,-3,-1,0,0,0,-2,-2,0
1512459569715718,-1,-1,-2,1,-3,-2,0,0
1512459569715718,0,0,1,0,-1,1,-2,-1
1512459569716717,0,-1,-3,-1,-3,0,0,2
1512459569716717,-1,0,-3,0,0,-1,-1,0
1512459569728734,-3,-1,-2,-2,-1,-1,1,1
1512459569728734,-3,0,-3,-1,-1,-1,-2,-3
1512459569736739,2,0,2,0,0,-1,-3,-1
1512459569736739,2,-1,-1,-1,1,-1,-1,1
1512459569751746,-3,-3,0,-1,-1,-2,-1,-5
1512459569751746,-3,-2,1,-2,-3,-1,0,-2
1512459569752745,0,0,0,-1,-1,-2,-2,-3
1512459569752745,3,-2,-1,-1,-3,-2,0,-1
1512459569774762,0,-1,-1,-2,-1,0,0,-2
1512459569774762,-1,-2,0,0,-1,-3,-1,-1
1512459569775748,-2,-1,-2,0,-2,-2,-1,-1
1512459569775748,-1,-3,0,-1,-2,1,0,0
1512459569788767,-2,0,-2,0,1,-1,-1,-2
1512459569788767,-2,-3,-2,-2,-2,-2,-2,-1
1512459569804823,-3,-1,-3,-1,-4,1,0,-4
1512459569804823,-1,-2,-1,1,0,-1,-1,0
1512459569819786,-1,0,-2,-2,-4,0,-1,0
1512459569819786,-4,-1,0,-2,-2,-2,1,-1
1512459569820777,1,-2,-2,0,0,-1,-1,-1
1512459569820777,-2,0,-1,-3,0,-1,-1,-4
1512459569834800,1,0,-1,3,-2,1,-2,-1
1512459569834800,1,-1,0,-2,2,0,2,-2
1512459569835790,-1,-2,-1,-1,0,-2,-1,2
1512459569835790,0,-2,-1,2,-2,0,-1,2
1512459569848799,-4,-4,-1,-1,1,-1,1,-2
1512459569848799,0,-1,1,-1,-2,0,-4,1
1512459569864819,0,-1,0,-1,-1,-2,-1,1
1512459569864819,-2,1,1,-2,0,1,-2,2
1512459569871823,-1,0,0,-1,-4,-2,-1,-3
1512459569871823,1,-1,-1,-1,-2,-2,2,-1
1512459569872814,0,-3,0,-2,1,2,-1,-1
1512459569872814,-1,-2,-1,0,-2,-1,-1,1
1512459569894886,0,-1,-1,-1,1,0,-1,1
1512459569894886,-2,0,-2,-2,-1,-3,-1,-2
1512459569895835,0,0,-4,-1,-2,0,-1,-1
1512459569895835,0,-2,-2,-2,0,-1,1,0
1512459569908864,1,-1,-2,-1,-1,-1,0,0
1512459569908864,-2,0,-1,0,0,-1,-2,-4
1512459569916845,-2,0,-2,-2,-1,-3,-2,1
1512459569916845,-1,-2,-3,-1,-2,-1,1,-3
1512459569931878,-1,0,-1,-3,0,-1,-2,0
1512459569931878,1,1,-1,-1,-1,0,0,2
1512459569932861,-4,-2,0,-2,-3,0,1,-2
1512459569932861,0,-3,1,0,1,0,-2,0
1512459569954937,-1,-2,0,-1,-2,-2,-1,-1
1512459569954937,-2,-1,0,0,-3,0,-2,-1
1512459569955896,1,0,-1,-2,-2,-1,-3,0
1512459569955896,-2,0,0,-2,0,-1,-1,-1
1512459569977909,-1,0,-1,2,0,-1,1,-2
1512459569977909,-2,0,-1,0,-2,-1,-2,-2
1512459569978891,-3,-1,0,0,1,-1,2,0
1512459569978891,-1,-5,-2,-1,0,0,-5,-1
1512459569991912,-2,-1,-3,-4,-3,-2,-2,0
1512459569991912,-3,-2,-3,0,-1,0,-1,1
1512459569992900,1,-1,-2,1,-2,-2,0,-2
1512459569992900,-2,0,-2,-2,-2,0,-2,-2
1512459570014926,-1,-4,1,-1,1,-2,-3,-1
1512459570014926,0,-3,0,-2,0,-2,-1,-3
1512459570015917,-1,0,0,-1,0,0,-1,0
1512459570015917,3,0,-1,-1,-1,-1,-2,0
1512459570037932,-1,-2,0,0,-2,0,1,-1
1512459570037932,-2,0,-2,-1,-1,-1,-3,-4
1512459570038933,-2,-2,-1,0,-1,-3,0,-2
1512459570038933,-1,0,-2,0,0,1,-2,-1
1512459570051956,0,2,-2,-1,-2,-1,-3,-2
1512459570051956,-2,0,-1,1,-1,-1,1,-1
1512459570052951,-2,0,1,-1,0,0,0,-2
1512459570052951,-1,0,-1,-1,0,-2,-1,-2
1512459570074996,0,-2,-1,-1,-4,-1,0,-2
1512459570074996,-1,1,-1,-4,-2,-1,0,0
1512459570075959,0,-2,-2,-2,-5,0,-2,0
1512459570075959,-2,2,0,-2,-1,-2,0,-1
1512459570097983,-2,-3,-3,-1,0,-1,-3,-3
1512459570097983,-1,0,1,-1,-2,-2,-1,-4
1512459570098975,-4,-1,-1,0,1,0,-1,-1
1512459570098975,1,-2,-1,0,0,-1,0,1
1512459570112022,-1,2,0,1,-3,0,-1,-1
1512459570112022,0,-1,-2,0,0,-1,-4,-1
1512459570113021,-2,2,-1,-2,-1,-1,0,0
1512459570113021,0,-2,-4,-1,0,-1,0,1
1512459570135036,0,-2,-2,-1,0,-2,0,-2
1512459570135036,-2,0,-2,0,-1,-1,0,-3
1512459570136037,0,-2,-1,-1,-2,0,-2,1
1512459570136037,-1,-2,-2,-2,-1,1,-1,-1
1512459570158101,-2,-2,-2,-1,1,-2,-1,1
1512459570158101,-2,0,2,-2,0,1,-2,-4
1512459570159075,0,2,-5,-2,2,-3,0,0
1512459570159075,-3,-5,0,0,-1,0,-1,0
1512459570172125,0,-1,1,-2,-3,-1,-2,-2
1512459570172125,-1,-3,-1,-1,-3,-1,3,0
1512459570173065,0,-1,1,2,-1,-1,-1,-1
1512459570173065,-1,0,-2,-1,0,0,0,0
1512459570195083,-1,0,-1,-1,0,-1,-3,-1
1512459570195083,0,0,1,-2,-1,-1,-2,0
1512459570196084,0,-2,1,-1,0,-1,-1,-2
1512459570196084,1,-1,-2,-1,-1,-4,-4,0
1512459570218097,1,-2,-2,-1,-3,-1,-2,-2
1512459570218097,-1,-1,0,-2,-5,-3,1,-3
1512459570219098,0,-1,-2,0,-2,-1,1,1
1512459570219098,-1,-2,0,-1,-1,-1,0,-3
1512459570232107,-1,-1,-1,-1,-3,0,0,0
1512459570232107,-1,0,-2,0,-1,-1,-2,0
1512459570233107,-2,1,-2,-2,1,0,-2,-1
1512459570233107,0,-1,0,-1,-3,-2,-1,-2
1512459570255134,0,1,0,-1,3,1,-2,-1
1512459570255134,-3,0,0,-4,-2,-2,0,-3
1512459570256123,-1,-2,-2,0,-3,0,-1,-2
1512459570256123,1,-1,0,-2,0,-3,-1,-1
1512459570285144,-1,-2,-1,-2,-1,0,1,-2
1512459570285144,0,0,0,1,-2,-2,-1,1
1512459570286143,-2,-2,-4,0,-4,-1,0,-1
1512459570286143,3,-1,1,-2,-2,1,-1,-2
1512459570292152,-1,-2,0,-1,-2,-2,0,-2
1512459570292152,-3,-1,0,1,-1,-2,1,0
1512459570293149,1,-1,-1,-1,-1,1,1,-1
1512459570293149,-3,-2,-3,0,0,1,-3,-1
1512459570323174,1,-3,-4,1,-1,-3,0,0
1512459570323174,-1,-1,-2,-3,-1,-2,-2,1
1512459570323174,-1,-2,0,-1,-2,-1,-2,-1
1512459570323174,0,1,-1,-1,2,1,-1,0
1512459570338192,-1,-1,0,-3,1,-1,-2,-1
1512459570338192,-2,-1,-3,-2,-2,1,2,-1
1512459570338192,-1,-2,0,-1,-1,-3,-2,-2
1512459570338192,1,1,-2,0,1,2,-1,2
1512459570352194,-3,-2,1,0,0,0,-1,-1
1512459570352194,-2,1,-2,-1,0,-1,-1,-1
1512459570359195,-2,-1,-1,-3,-3,1,0,0
1512459570359195,-1,-1,-2,-1,-3,-2,-3,-1
1512459570375277,-1,-1,-1,-2,0,-2,-1,0
1512459570375277,-1,-2,0,-1,-1,1,-1,0
1512459570376208,0,-3,0,-1,2,-1,-2,0
1512459570376208,-2,0,0,-1,0,-1,-2,2
1512459570398223,-1,1,-2,-1,-2,0,1,-4
1512459570398223,-1,-1,-3,-1,-3,-3,0,-2
1512459570398223,2,-2,0,-1,-1,-1,-2,-1
1512459570398223,-1,-1,-1,-1,1,-1,0,-1
1512459570412237,0,1,-2,0,-2,-1,-4,0
1512459570412237,-4,-1,0,-1,1,-3,-2,-2
1512459570413237,0,-2,-1,-1,-1,-2,-3,-1
1512459570413237,-1,0,-1,0,-3,-1,3,-1
1512459570435266,-1,0,1,1,-3,0,1,0
1512459570435266,1,-1,-1,-1,-2,-2,-1,1
1512459570436253,-1,-1,0,-1,1,0,-3,-3
1512459570436253,-2,-5,-2,-1,0,2,-1,-4
1512459570457282,-4,1,-5,0,-2,-1,0,-2
1512459570457282,1,1,-2,1,0,-1,1,0
1512459570458266,-1,0,-1,-2,-4,-1,-2,1
1512459570458266,-1,-3,-2,-1,-2,0,0,1
1512459570472278,-1,-2,-1,-3,1,-2,-1,-4
1512459570472278,-3,-2,-1,-2,0,1,-1,-2
1512459570473280,-1,1,-2,-2,-2,-3,1,0
1512459570473280,1,0,-2,-1,-2,-1,0,-2
1512459570495295,-2,1,0,0,-4,1,-2,-3
1512459570495295,-3,-2,-1,-1,-1,0,1,-1
1512459570496295,-4,-1,-3,-2,-2,-1,1,1
1512459570496295,-4,-1,-3,-1,-1,-3,-1,-1
1512459570518309,-3,0,-1,0,1,-2,-1,1
1512459570518309,-2,0,2,-1,-2,0,-1,-4
1512459570519309,-1,-3,-1,-1,1,1,1,0
1512459570519309,-1,0,-1,-1,-1,-1,-2,-1
1512459570531318,-6,0,0,-1,-2,0,1,0
1512459570531318,-1,-2,-3,0,-2,-1,-3,-2
1512459570540324,-3,-1,0,-1,0,0,-2,0
1512459570540324,0,-1,1,-1,-1,-3,1,-2
1512459570555414,-1,-2,-2,-1,-2,-4,-1,1
1512459570555414,-3,0,-2,0,-1,0,-1,1
1512459570556388,1,1,1,1,-2,-2,-1,-4
1512459570556388,-1,-3,-1,-1,-1,-3,-2,0
1512459570585414,-2,-1,1,-1,0,1,0,0
1512459570585414,-1,-2,1,-1,0,-5,-2,-4
1512459570586397,-1,-1,-2,-1,2,-1,-3,-2
1512459570586397,-1,-2,-1,1,-4,-1,1,1
1512459570591416,0,0,-1,-3,-2,-1,-3,-5
1512459570591416,1,-1,-1,-3,-2,0,-4,-1
1512459570600408,1,-2,-1,-2,1,-1,0,-1
1512459570600408,-3,-1,-1,0,1,1,-2,0
1512459570615439,0,-2,0,1,-4,0,1,-3
1512459570615439,-1,-1,-2,0,-1,-3,-2,1
1512459570616433,-3,-1,1,0,-2,-3,0,-1
1512459570616433,1,-3,-1,-2,0,-1,-2,0
1512459570645459,-2,-1,-1,1,1,1,0,0
1512459570645459,-4,1,1,-1,0,-1,-1,-4
1512459570646440,-2,-2,-1,0,0,0,2,1
1512459570646440,-1,-1,-4,-2,0,-2,-3,-3
1512459570651463,-1,-1,-2,-4,-3,-1,1,-2
1512459570651463,0,-2,0,-3,-1,0,-1,0
1512459570660473,3,0,-1,-3,-2,0,-2,-2
1512459570660473,-2,2,-2,1,-1,0,-2,0
1512459570682477,-2,0,-1,1,-3,-3,-3,0
1512459570682477,-1,-1,-2,1,-1,-1,0,-4
1512459570684467,-2,-1,0,-1,0,-2,1,0
1512459570684467,2,-2,-1,-2,-3,0,-4,-1
1512459570697498,1,-3,1,-3,2,-2,0,2
1512459570697498,1,-1,1,0,-3,0,2,0
1512459570699478,2,0,-3,-1,-4,-1,-2,-2
1512459570699478,-2,-1,0,-2,-1,-1,2,-3
1512459570720514,-1,-1,-4,-2,-2,-2,-2,1
1512459570720514,0,-2,1,-2,0,1,0,0
1512459570722494,-2,-2,-1,0,1,0,0,-3
1512459570722494,1,-2,-2,-1,0,0,-2,-1
1512459570735514,1,-2,-1,-1,-2,1,0,-4
1512459570735514,-3,-1,-1,-3,-1,-1,0,-2
1512459570736504,-2,-2,0,0,-1,1,1,0
1512459570736504,1,-1,-1,-1,-1,-3,-1,0
1512459570765526,-3,-2,-2,0,1,0,-3,-3
1512459570765526,-2,-1,0,-1,-2,-2,-2,1
1512459570767525,0,-2,0,0,2,-1,-3,2
1512459570767525,-1,0,-2,0,-1,-1,-1,2
1512459570771538,-2,-1,-2,-1,-1,-2,0,-1
1512459570771538,-3,1,-2,0,-1,0,0,-3
1512459570780534,-2,-2,-1,-3,1,-1,-1,-3
1512459570780534,2,0,-1,0,2,0,0,-1
1512459570795547,-4,-1,-2,1,1,0,-4,-1
1512459570795547,0,-2,-2,-2,1,0,0,-3
1512459570796546,2,0,-2,0,-1,-2,0,0
1512459570796546,-3,-1,-2,-3,-3,1,-1,0
1512459570817588,-2,1,0,-1,1,-3,-2,-3
1512459570817588,-1,0,-1,-1,-3,-4,0,-2
1512459570819589,-1,-3,-3,-2,-2,-1,0,0
1512459570819589,-3,-1,-2,-1,0,-2,1,-2
1512459570840638,3,-1,-1,-2,-4,-1,0,1
1512459570840638,-2,2,-2,0,0,-1,-1,-2
1512459570841620,-2,0,-2,-1,0,-2,-4,-1
1512459570841620,0,-2,-2,2,-1,-1,-3,2
1512459570855640,-1,-3,0,-2,-2,-1,-1,-3
1512459570855640,-2,0,-2,0,-2,-3,-3,0
1512459570856630,1,-1,-1,-1,0,-1,0,-2
1512459570856630,-1,-3,1,-3,1,1,1,-2
1512459570877736,-1,-2,-2,-1,0,-1,0,-2
1512459570877736,-1,-1,-1,-1,-3,0,1,0
1512459570879682,2,0,3,-3,0,-2,0,1
1512459570879682,-2,0,-2,-1,0,-3,-1,1
1512459570900712,-1,-1,-2,0,-2,-2,0,-1
1512459570900712,-3,-1,-2,-2,-2,-2,-2,0
1512459570901699,0,-1,-3,-1,-2,0,-3,3
1512459570901699,2,-2,-2,1,2,1,1,-2
1512459570915720,-2,-2,0,0,-3,-1,-1,-2
1512459570915720,-1,-2,1,-2,0,1,0,-2
1512459570917709,1,1,-2,-1,-1,-1,2,-3
1512459570917709,-3,-2,-1,-2,-4,-2,-2,-2
1512459570937723,0,-1,-3,-3,-1,-1,-3,-2
1512459570937723,-1,0,-1,0,-3,-2,-1,1
1512459570939725,-3,-3,-2,1,-2,-1,0,-1
1512459570939725,-2,0,1,0,-1,-2,-1,-3
1512459570959740,-3,0,-1,-1,0,-1,-1,0
1512459570959740,0,-2,-2,2,1,0,-1,-1
1512459570961740,-1,-2,-3,-1,-1,-2,-1,-2
1512459570961740,0,0,-3,0,0,-1,-1,1
1512459570974751,-2,-1,0,1,-3,-2,2,0
1512459570974751,0,-2,-1,-1,1,1,-1,-1
1512459570976751,-3,1,1,-1,1,-3,2,1
1512459570976751,-1,-1,-1,-1,-2,-2,-2,-2
1512459570997765,-3,0,-1,-1,-2,-2,1,0
1512459570997765,-2,-2,-1,-2,-1,-5,-1,-1
1512459570999767,-2,-2,-2,-2,-2,-2,-1,0
1512459570999767,-1,-1,0,-2,-3,0,0,1
1512459571019781,-1,-1,0,1,-3,-1,-1,-1
1512459571019781,-2,-2,1,-1,-1,1,0,-4
1512459571021782,-1,-1,-1,1,-2,0,0,-1
1512459571021782,-1,-2,-3,0,-2,-2,0,-1
1512459571034791,-3,-1,-1,0,-1,-3,-1,0
1512459571034791,1,0,-1,-3,-1,-1,0,-1
1512459571036793,-1,-3,-1,-1,-1,2,-3,-1
1512459571036793,-1,0,-1,0,-1,-1,0,-1
1512459571064814,-1,-1,-1,0,0,0,-3,-3
1512459571064814,-1,-1,-1,-1,1,0,-2,-1
1512459571070834,1,-3,0,-1,-1,0,0,2
1512459571070834,-1,-2,0,0,0,-2,-3,1
1512459571079837,0,-1,-1,0,-2,0,0,-1
1512459571079837,-4,0,0,-2,-1,-1,-1,-2
1512459571081842,1,-2,-3,-2,-2,0,-2,0
1512459571081842,-1,-1,0,-2,1,0,-2,-2
1512459571094865,0,-2,-2,-1,-1,-1,2,-3
1512459571094865,0,0,-2,0,-2,-1,0,2
1512459571101839,1,-2,-1,0,-1,0,-1,-1
1512459571101839,-3,-1,2,-3,-3,-1,0,-1
1512459571117862,-2,-1,-1,0,1,-1,-1,-4
1512459571117862,-3,1,-2,-1,0,-2,-2,1
1512459571118855,1,0,-3,-1,0,-1,-5,0
1512459571118855,-1,-1,-2,-3,-3,-3,0,-2
1512459571139885,-3,0,0,-3,-2,0,-3,0
1512459571139885,-2,-3,-1,0,-3,-2,1,0
1512459571141870,-1,0,0,1,1,1,-1,-1
1512459571141870,1,-1,0,-1,0,-1,-1,-1
1512459571154895,-3,0,-1,-2,-3,-3,-2,-5
1512459571154895,-1,0,0,0,2,1,-1,-4
1512459571160900,-2,-2,0,-1,-1,-3,-1,-1
1512459571160900,0,-2,-3,0,-3,2,0,-3
1512459571177916,1,-1,-3,0,-3,0,-1,2
1512459571177916,0,0,-1,-1,-2,-2,0,-1
1512459571178898,-1,-1,1,-2,-1,0,1,-1
1512459571178898,-1,-1,-1,1,0,-1,-3,1
1512459571207936,-3,-2,-1,-1,0,-1,-1,-2
1512459571207936,0,-1,-3,-2,-1,-1,-3,-1
1512459571208925,1,0,0,0,0,-4,2,0
1512459571208925,0,0,-2,-2,1,-2,0,0
1512459571214919,-1,0,0,-1,-4,-1,1,0
1512459571214919,0,1,-1,0,-5,0,-1,1
1512459571220923,-3,-1,-1,-2,-2,-1,-1,-2
1512459571220923,0,-2,-1,-1,-2,-1,-1,-2
1512459571237950,1,0,-2,-2,0,-3,-1,-5
1512459571237950,-1,0,-2,-3,-3,1,0,-3
1512459571243939,0,-1,-2,0,-4,0,-2,0
1512459571243939,-3,-1,1,-2,-1,-2,0,-1
1512459571259974,1,-1,0,0,0,-1,-2,5
1512459571259974,-3,-1,0,-1,0,-2,-1,-3
1512459571261964,2,0,-3,-1,1,-2,-3,-1
1512459571261964,-1,-1,-1,-2,-2,-3,0,-3
1512459571274986,-1,1,-2,-1,0,-1,-3,-1
1512459571274986,0,-3,0,-2,-3,-1,-1,-3
1512459571280975,-2,-1,-1,0,-1,0,-2,0
1512459571280975,-1,0,-3,0,2,0,2,0
1512459571297988,-4,-2,-3,-3,-2,-1,-1,-3
1512459571297988,-2,-2,0,-1,-1,-2,-1,-1
1512459571298979,1,-2,0,-2,0,1,1,-1
1512459571298979,-1,-1,-1,0,0,0,-3,-3
1512459571320030,-5,-1,-2,-1,-3,-1,-1,-1
1512459571320030,-1,0,-3,-1,1,-2,0,-1
1512459571322032,3,-2,0,1,1,1,-1,-1
1512459571322032,-1,-2,1,1,-5,1,-5,0
1512459571335050,1,-2,-1,-1,-1,-1,-1,-5
1512459571335050,-2,-1,0,0,-2,-2,-1,0
1512459571341060,-3,-2,-2,-1,1,-3,1,0
1512459571341060,-2,-3,-2,-1,2,0,-3,1
1512459571358060,-1,-1,0,-1,-1,-1,0,-2
1512459571358060,0,-3,-1,-1,-1,-2,1,0
1512459571359057,-2,-3,-1,-1,-2,-1,1,-1
1512459571359057,0,-1,0,0,-4,-1,-3,-2
1512459571380073,-4,-1,-2,-1,0,-1,-1,-2
1512459571380073,0,-2,-2,-1,2,0,-2,0
1512459571382074,-1,-2,-1,-1,-1,-3,0,-1
1512459571382074,-3,0,0,-2,-3,-2,-2,1
1512459571394085,0,0,0,-3,-2,1,-1,-3
1512459571394085,-1,-1,-1,0,0,0,-2,-5
1512459571403088,1,-1,-3,0,0,-1,-3,-1
1512459571403088,0,-2,0,-1,0,0,0,-3
1512459571418110,-3,-1,-1,-1,-2,-1,-2,1
1512459571418110,-5,2,-1,0,-2,-2,-1,0
1512459571419111,-2,1,-2,0,-1,-3,-1,-1
1512459571419111,0,-3,-2,-1,0,-3,0,0
1512459571440118,0,-1,0,-1,0,-2,-1,0
1512459571440118,0,-2,-1,-2,-1,-1,1,0
1512459571442134,0,-1,0,-2,-2,1,-2,0
1512459571442134,1,-2,-1,-1,0,0,-1,1
1512459571454171,-5,-2,-1,-2,-1,-2,-2,-3
1512459571454171,0,-3,1,0,-2,-1,-3,-1
1512459571469147,1,0,-1,0,-2,-2,-2,1
1512459571469147,0,0,0,1,0,0,-3,2
1512459571478141,-2,-1,1,-1,-2,-1,-1,-1
1512459571478141,-1,0,-2,-2,0,-2,-2,0
1512459571479165,-1,-1,-5,-4,0,-1,0,-2
1512459571479165,-2,2,-1,-3,-1,0,-3,-4
1512459571500164,-3,-2,0,0,-3,-1,4,1
1512459571500164,-2,1,-1,-1,-4,-2,1,-1
1512459571502159,-2,-4,0,-1,-1,-1,-3,-1
1512459571502159,0,-2,-3,-2,0,-1,-1,2
1512459571514219,-1,0,0,-2,-1,0,-2,-4
1512459571514219,0,-2,-1,1,2,-2,-1,-2
1512459571523237,1,-1,-2,-3,-2,-1,-1,1
1512459571523237,-1,-1,-1,0,0,0,-1,-2
1512459571537239,1,-2,0,-2,-2,-2,0,-4
1512459571537239,-1,0,0,-3,0,0,-4,2
1512459571540249,-1,-1,-1,0,-3,-1,-3,-1
1512459571540249,-2,0,-1,0,-3,-2,-2,-3
1512459571560289,-1,-2,-1,0,-1,1,-1,-2
1512459571560289,-2,2,-2,0,-3,-1,1,-2
1512459571562286,-2,-2,-3,-1,0,-2,1,2
1512459571562286,-2,-1,-1,-2,-2,-1,-3,-2
1512459571574310,-1,2,-1,-3,-2,-1,-3,-3
1512459571574310,-1,-1,-1,-1,1,0,0,-4
1512459571590292,-2,-1,-1,-2,0,0,-2,-2
1512459571590292,0,-3,-2,1,-2,-2,3,-1
1512459571597297,0,-1,-2,-1,0,-1,0,0
1512459571597297,1,-3,0,0,2,-2,-3,1
1512459571599299,-2,0,-1,0,0,0,0,-1
1512459571599299,1,-2,1,-1,-2,1,-1,-4
1512459571621294,1,2,-1,1,-2,-1,0,2
1512459571621294,0,1,-1,-1,-3,-1,0,1
1512459571623306,-3,1,-2,-1,2,2,1,3
1512459571623306,-2,-1,-1,-3,-2,-2,-1,-3
1512459571634314,-2,-2,-3,-1,0,-1,-3,-5
1512459571634314,1,-3,-2,0,2,-2,-2,-1
1512459571644320,1,-1,-1,1,0,-1,-1,-1
1512459571644320,-3,0,-2,-1,-3,-4,-2,2
1512459571657340,-3,-3,0,0,-2,-1,2,1
1512459571657340,-2,0,-2,-2,-4,1,-1,-2
1512459571659344,2,-1,-2,0,0,-1,-2,-1
1512459571659344,-1,0,-4,-1,2,0,0,-1
1512459571680359,-2,0,-2,1,-4,-2,-1,0
1512459571680359,-1,0,-2,-1,-3,-2,1,-3
1512459571682340,-3,-2,0,-1,-3,-1,-1,-1
1512459571682340,0,-1,1,1,-1,2,-1,0
1512459571693365,-2,1,0,-2,0,-2,0,-4
1512459571693365,-2,0,-1,-2,-1,0,-2,1
1512459571710357,-1,-1,0,0,-2,-1,0,0
1512459571710357,-2,-2,-1,-1,-1,-2,1,1
1512459571717371,-1,-1,1,-1,-2,-1,-3,-2
1512459571717371,-1,-2,0,-2,1,-1,-1,0
1512459571719364,1,-1,-2,-3,0,-1,-3,2
1512459571719364,-1,-2,-1,-1,-1,-1,3,-2
1512459571740408,-1,0,-1,1,1,0,-1,1
1512459571740408,1,0,-1,-2,-2,0,1,-2
1512459571742382,-3,-2,-2,-1,2,-1,0,1
1512459571742382,-1,-1,-1,0,-2,-1,-5,-1
1512459571754390,1,0,-3,-2,-1,-1,2,1
1512459571754390,-2,-1,0,0,-3,-1,-1,-3
1512459571762410,0,-1,1,-1,-2,-2,0,-2
1512459571762410,0,0,-2,-3,-1,-1,-2,-2
1512459571778406,-2,-1,0,-3,-2,-4,-2,-1
1512459571778406,-2,-2,-3,-1,-1,0,-3,2
1512459571783410,-1,-1,-3,-2,-2,0,-2,1
1512459571783410,-3,0,-2,-2,-2,0,-1,-1
1512459571800421,-1,0,1,-3,-5,-3,-1,0
1512459571800421,-2,-1,3,0,0,-2,0,-1
1512459571801421,0,-1,-2,0,-2,-1,-5,-2
1512459571801421,-1,-1,-1,-1,-2,0,0,1
1512459571813432,-2,-1,0,0,-1,0,-4,1
1512459571813432,-2,-1,-1,-2,-1,-4,-1,-1
1512459571822446,2,-3,-2,-1,0,-1,0,-2
1512459571822446,-1,-2,-2,-1,1,0,1,-2
1512459571837461,0,-2,-4,-2,1,1,-1,-1
1512459571837461,-2,1,0,-1,-2,-2,0,-1
1512459571839459,-2,0,1,-1,0,-2,-3,-2
1512459571839459,-1,-1,-3,1,0,-1,3,0
1512459571867478,0,0,0,0,-1,-1,-1,-3
1512459571867478,0,-1,-4,-1,0,-2,-1,0
1512459571869480,0,-3,-1,0,-3,3,0,0
1512459571869480,-3,-1,0,-1,-3,-3,-2,-1
1512459571882503,0,-1,-2,-2,-2,0,0,-4
1512459571882503,0,-1,-1,-1,-1,0,0,1
1512459571884482,-3,0,-2,-2,-2,-2,0,0
1512459571884482,0,-1,0,-1,0,1,-1,-2
1512459571898513,-4,-1,-2,-1,-2,-1,0,-1
1512459571898513,1,0,-1,-2,-2,1,-2,-1
1512459571903517,-1,-2,-2,-3,1,-1,-1,0
1512459571903517,0,-1,-3,-1,-1,0,-2,-2
1512459571920522,-6,1,1,0,0,-1,1,-4
1512459571920522,-3,-1,-1,1,-3,-1,-3,-1
1512459571921522,-2,-1,0,1,1,-1,0,1
1512459571921522,1,-2,-2,-3,2,-1,-2,-1
1512459571942535,0,-1,1,-3,-1,0,-1,0
1512459571942535,-2,-1,0,-2,-3,0,2,0
1512459571944537,0,-2,-3,1,-2,0,-3,-3
1512459571944537,0,-1,0,-1,-2,-2,0,-1
1512459571957571,1,0,-2,-1,-3,-2,-2,-3
1512459571957571,1,-1,0,-2,1,-2,2,0
1512459571959544,0,0,0,-2,0,-2,-1,0
1512459571959544,-2,-2,-1,0,-1,2,-1,1
1512459571987572,-1,-1,-1,-1,-1,0,-4,-1
1512459571987572,-2,0,0,0,-3,-3,-4,-2
1512459571989574,1,0,-2,-1,-1,-1,2,1
1512459571989574,-1,0,-2,-1,-2,-1,-1,0
1512459572002566,-2,-1,-1,-1,-1,-2,1,0
1512459572002566,0,-2,-2,1,-2,1,0,0
1512459572004567,1,-1,-3,0,-1,0,-4,-1
1512459572004567,-3,-3,0,-1,1,-3,-1,-1
1512459572016575,-2,0,1,0,2,0,1,-1
1512459572016575,-2,-2,0,-2,-1,0,0,0
1512459572023604,-2,0,-1,-1,-1,-3,-2,-4
1512459572023604,-3,0,0,-2,-3,-2,-1,-1
1512459572040609,-2,-2,0,-1,1,-2,-1,-3
1512459572040609,-2,0,-2,-3,1,-1,-1,0
1512459572041595,-1,-1,0,-1,-4,-1,-1,0
1512459572041595,-1,-1,1,-2,-1,-1,-4,0
1512459572070630,-2,-1,0,-2,-2,-4,-1,0
1512459572070630,-1,-1,-3,-1,-3,-2,1,-2
1512459572071613,-1,-1,-3,-1,-3,-2,0,0
1512459572071613,-1,-2,0,-1,-3,0,1,-3
1512459572076628,0,-3,-2,-2,-3,-2,-4,-3
1512459572076628,-2,-2,1,-1,-1,-1,-2,0
1512459572083622,-1,-1,-1,-1,-1,-2,0,1
1512459572083622,0,3,0,-2,-1,-1,-2,-1
1512459572099644,-1,-1,-3,-2,-1,-2,1,-1
1512459572099644,0,-4,-1,0,-1,-2,0,-2
1512459572106638,1,0,-1,-1,0,-1,-1,0
1512459572106638,-4,-2,-1,1,-1,1,0,-2
1512459572130654,0,0,-2,3,-2,2,-1,-2
1512459572130654,-2,0,-1,-2,1,-1,-1,-3
1512459572131676,-1,-1,0,-2,0,1,-1,1
1512459572131676,0,-3,-2,-1,0,-3,0,-1
1512459572136669,-2,-1,-2,-2,-2,0,-4,3
1512459572136669,-3,-1,-2,-1,-3,0,1,0
1512459572143667,0,-3,0,0,1,-1,-1,-2
1512459572143667,0,3,-2,-2,-5,-2,1,1
1512459572160691,-4,-2,-1,-2,-2,-1,2,-3
1512459572160691,-2,2,-1,1,-2,0,-1,1
1512459572161676,1,-3,0,-1,0,-1,-3,-3
1512459572161676,-2,-2,-2,-1,0,-2,1,0
1512459572182713,-2,0,0,-2,-2,-3,-1,-1
1512459572182713,-2,-3,-1,-1,0,0,0,0
1512459572184697,-3,-2,-2,-1,-1,0,-1,1
1512459572184697,0,-1,-2,1,-1,-1,-2,0
1512459572196702,-1,-1,1,-4,-1,1,0,-2
1512459572196702,0,-1,1,-2,0,-1,-2,-1
1512459572203730,2,-2,-1,-2,0,1,1,0
1512459572203730,-1,-2,1,-1,-3,-2,0,-1
1512459572227771,-2,-2,-3,1,-4,-2,-2,-1
1512459572227771,-2,-2,0,-2,-3,-2,-4,-2
1512459572229772,0,-2,-3,0,0,0,1,-1
1512459572229772,-2,-1,-1,-3,-1,0,-3,-3
1512459572242779,0,-1,-1,-1,0,0,-2,0
1512459572242779,-1,-1,-2,1,0,-1,0,-3
1512459572244781,-3,1,-1,0,-1,-2,-3,-1
1512459572244781,-2,-1,-1,0,-1,3,-2,0
1512459572256789,1,0,1,1,-3,0,1,0
1512459572256789,-2,-1,0,-2,-1,0,-3,-2
1512459572263794,-1,-1,-1,-2,-1,0,-1,-1
1512459572263794,-1,-3,-2,-2,-2,0,1,-4
1512459572279808,-3,0,-1,-1,-3,-1,0,-2
1512459572279808,1,-1,-2,-2,0,0,-4,2
1512459572281807,-2,-2,-1,1,-1,-2,-1,0
1512459572281807,1,-2,0,-1,-2,-1,-2,-4
1512459572302825,0,-3,-2,-2,1,-2,-4,2
1512459572302825,-2,-2,-1,0,-1,-2,1,0
1512459572304822,1,-2,0,-1,-1,0,-1,-3
1512459572304822,-2,-2,-2,1,-1,-1,-1,0
1512459572316898,-4,0,-2,-2,-3,-1,-3,-2
1512459572316898,2,0,-1,-2,-1,0,2,1
1512459572323903,0,0,-1,0,-2,0,-1,1
1512459572323903,-3,0,-4,2,1,-1,1,-3
1512459572339914,0,-1,-1,-1,-1,-2,-2,-2
1512459572339914,-3,1,0,-1,1,-3,-2,1
1512459572341903,-1,-2,0,0,0,-2,0,3
1512459572341903,2,-2,-2,-2,-2,-2,-1,0
1512459572369933,-1,1,-2,3,1,0,0,1
1512459572369933,0,0,0,-2,-3,-1,0,0
1512459572371948,0,0,-2,-1,-2,0,-1,-1
1512459572371948,-1,-1,0,-3,0,-2,0,2
1512459572375952,-3,1,0,1,-4,-5,-2,-1
1512459572375952,1,-1,-1,1,0,0,-1,-2
1512459572384943,-2,0,-2,-1,-1,-2,-1,-2
1512459572384943,1,-1,0,-2,-1,-1,1,-1
1512459572399969,2,-2,1,0,-1,-1,1,-6
1512459572399969,-1,-2,-2,0,-3,-1,-2,-2
1512459572401969,-1,-3,-3,-3,-3,-3,-2,-4
1512459572401969,-1,-5,-2,0,-2,0,-1,-1
1512459572423028,-1,-1,0,-2,2,-1,1,1
1512459572423028,0,-2,0,0,-1,0,-2,0
1512459572428967,1,-2,-3,-1,-1,-1,-2,-3
1512459572428967,-1,2,-1,0,-3,-4,-1,2
1512459572435971,-3,0,0,0,0,1,-2,-1
1512459572435971,-3,-1,0,-2,-2,-2,-1,-1
1512459572444977,0,-1,1,-1,2,1,-2,0
1512459572444977,1,0,-1,-1,-3,0,-2,-1
1512459572460007,-1,0,-2,-1,0,-1,-1,0
1512459572460007,-3,0,-1,-2,0,-1,-1,-1
1512459572462990,-3,-1,-1,-1,-1,-2,-2,-1
1512459572462990,-1,-2,0,0,-1,-2,1,0
1512459572483003,-4,0,-1,-1,-2,-2,-1,0
1512459572483003,0,0,-2,0,-1,1,-1,-2
1512459572484004,0,-1,-3,0,-1,-1,1,0
1512459572484004,-1,0,0,-1,2,-1,-2,-3
1512459572505042,-2,0,1,-2,-2,0,0,-1
1512459572505042,1,-3,0,-2,-2,-1,1,0
1512459572508041,0,-2,-1,-1,0,1,-3,-2
1512459572508041,-2,1,0,-2,-1,0,-2,0
1512459572520040,0,0,-1,-1,-2,-4,0,-3
1512459572520040,0,-4,0,-2,1,-2,0,1
1512459572522041,-5,0,0,1,-3,-3,-3,0
1512459572522041,0,0,-2,-1,1,-2,-2,-1
1512459572543067,0,-2,-2,-1,-3,0,-1,1
1512459572543067,1,-2,-1,-1,2,0,1,1
1512459572544057,1,-3,-1,0,-1,-1,0,-2
1512459572544057,0,-1,-2,-3,-1,0,-3,-1
1512459572556077,0,-1,-1,-3,0,-2,2,-2
1512459572556077,-3,-1,-2,-1,-1,-2,-1,1
1512459572565115,-2,-1,-1,2,0,-1,-1,2
1512459572565115,-3,-2,1,0,-4,-3,-1,-2
1512459572580127,1,-3,-2,-1,-2,0,-1,-3
1512459572580127,-1,-2,-3,-1,-1,0,0,-3
1512459572582128,0,0,-1,-3,0,0,0,1
1512459572582128,-2,0,1,0,-2,-1,1,0
1512459572603142,-2,-1,1,0,-1,-2,-2,1
1512459572603142,-2,2,0,2,0,-2,0,0
1512459572604143,-2,0,-1,-2,-2,0,-4,-1
1512459572604143,-1,-2,-2,0,1,-2,-3,-2
1512459572616151,-2,0,-1,-3,1,-2,1,0
1512459572616151,0,-3,-1,-2,-2,-1,-1,-1
1512459572625159,0,0,-2,-1,-2,-2,-2,-3
1512459572625159,0,1,-1,-3,-2,-1,0,-1
1512459572640178,-3,-2,0,0,-2,-3,-2,1
1512459572640178,1,0,0,-2,1,1,-1,0
1512459572642169,0,-1,-1,-2,-1,0,3,0
1512459572642169,-1,-2,-1,-1,-2,-1,-1,-3
1512459572663197,0,1,0,-1,-1,0,1,-1
1512459572663197,-4,-2,0,1,-5,-1,-2,-1
1512459572664186,1,-3,-2,0,-2,0,0,3
1512459572664186,-3,-2,-1,-1,-1,-1,-1,0
1512459572676209,-1,1,-3,0,-4,0,0,-4
1512459572676209,2,1,-2,-2,2,1,-1,-1
1512459572685201,-1,-3,-2,0,-2,-1,-3,0
1512459572685201,-3,0,-2,-1,0,-1,1,0
1512459572700234,-3,-1,0,0,1,-1,1,-1
1512459572700234,-3,0,0,-3,-2,-1,3,-2
1512459572702232,-3,-2,0,-1,-1,-2,-1,-1
1512459572702232,-2,0,-1,-2,-3,0,-2,0
1512459572722302,-1,0,-2,-2,-2,1,-2,-1
1512459572722302,-3,-1,-3,0,-1,-1,0,1
1512459572724303,2,1,-1,0,0,-2,-2,0
1512459572724303,1,-3,-1,0,-1,-1,-1,-3
1512459572736312,-1,-1,-1,0,0,-1,0,-1
1512459572736312,0,-2,-2,-2,-2,-2,-2,-1
1512459572745306,-3,-2,0,-1,-2,0,1,-3
1512459572745306,0,-2,-2,-1,3,-1,-2,-3
1512459572759340,-1,-1,-1,-3,-4,-4,1,-2
1512459572759340,-1,-1,-1,-1,-2,-4,-1,-1
1512459572766321,0,-3,-1,-2,-2,0,-1,-2
1512459572766321,-1,2,0,0,0,-1,-2,0
1512459572782344,-4,0,-1,-1,-1,-1,-2,-1
1512459572782344,0,-2,-1,1,2,-2,-2,1
1512459572784336,-1,-1,-1,-2,-1,-1,-2,0
