timestamp,emg1,emg2,emg3,emg4,emg5,emg6,emg7,emg8
1513174109051532,0,-1,-2,-1,-1,-2,0,1
1513174109051532,-4,-3,1,-1,1,1,-1,-1
1513174109053035,-2,0,-2,-1,-3,-1,-1,-2
1513174109053035,-2,1,0,-1,-2,-1,-1,-1
1513174109054033,-2,-3,1,-1,0,0,0,-3
1513174109054033,0,0,-1,-2,-1,-2,-3,-2
1513174109058038,-1,-2,-2,-2,-1,-2,-1,0
1513174109058038,-1,0,-1,-1,-2,-1,-1,-2
1513174109072548,-1,0,-2,-1,-2,-1,-2,0
1513174109072548,1,0,-1,0,-3,-1,0,-1
1513174109074047,-1,-1,-3,1,-1,1,-2,0
1513174109074047,-1,-2,-1,0,1,-2,0,-1
1513174109095063,-1,-2,-2,-3,0,-1,-2,0
1513174109095063,0,-3,-1,-2,0,-1,-1,-2
1513174109096564,-1,-1,-1,1,1,-2,-1,-1
1513174109096564,-4,-3,-1,-2,0,-1,-2,-1
1513174109108572,1,3,-4,-2,-4,-1,-3,-2
1513174109108572,-1,1,-2,-1,-2,0,-1,-3
1513174109117579,1,1,-4,-3,-3,-2,-2,1
1513174109117579,-2,-3,-1,-2,0,-1,0,-1
1513174109132593,-1,0,-2,-1,-1,-2,0,-1
1513174109132593,-1,-2,0,-1,-2,0,-1,-1
1513174109134090,0,-1,-1,-2,-2,-2,0,0
1513174109134090,0,0,-1,-1,-2,-3,-1,-2
1513174109155105,-2,-2,1,0,-2,-1,-3,-2
1513174109155105,2,1,-3,0,2,-1,3,2
1513174109156606,-1,1,-2,1,-1,0,-1,0
1513174109156606,-4,-2,1,-1,-2,-1,0,0
1513174109169117,-1,-1,0,-1,0,-2,-4,-2
1513174109169117,0,-3,-1,-2,-2,-2,-1,-1
1513174109177621,-2,-2,0,-2,1,1,0,-1
1513174109177621,-1,-1,1,-1,-3,-1,-1,-1
1513174109192631,-1,-3,0,1,-2,-1,0,-2
1513174109192631,-5,-1,-2,0,-2,-2,-2,1
1513174109195133,-2,-1,-1,0,-1,-1,-1,-1
1513174109195133,0,0,-1,-2,-3,-1,-3,-1
1513174109215148,-2,-1,0,-1,0,-2,1,0
1513174109215148,0,-3,2,0,-1,0,-2,0
1513174109216684,-1,-1,-2,-3,-2,-2,-2,-1
1513174109216684,2,2,-2,0,0,0,-1,-2
1513174109228672,-2,0,0,-1,0,-1,-2,0
1513174109228672,-1,2,-1,-1,0,-1,-1,-1
1513174109237667,1,0,-1,0,-3,0,-1,0
1513174109237667,-1,-2,-1,0,-2,-2,-1,-2
1513174109252690,-2,-2,-2,0,-2,-1,0,0
1513174109252690,-2,-3,-2,-2,-1,-1,-1,-2
1513174109254176,0,-1,-1,-1,-1,-1,-1,-1
1513174109254176,-1,-1,-3,-1,-2,-1,0,-1
1513174109275203,-1,-1,-1,-2,-1,0,-1,-1
1513174109275203,-1,-2,1,0,0,-3,-2,1
1513174109276691,-2,-3,-1,0,0,-2,-1,-1
1513174109276691,0,-2,-2,-3,1,0,0,-1
1513174109288700,-2,-1,0,0,-1,0,-2,-2
1513174109288700,-1,0,-3,1,-2,0,-1,-2
1513174109322223,-1,1,-2,-1,-1,-3,-1,0
1513174109322223,-1,-1,-1,0,1,-1,-1,1
1513174109323226,-3,-3,0,-2,-2,-1,-1,1
1513174109323226,0,0,-1,-1,-1,0,-1,-1
1513174109326227,2,-1,-1,-1,-1,1,0,-2
1513174109326227,-2,-3,-2,-2,0,0,0,-1
1513174109335235,0,0,-3,-2,-2,-2,0,-1
1513174109335235,-2,-1,-1,0,-2,-3,2,-1
1513174109336734,-2,-2,0,-2,-1,-2,0,-1
1513174109336734,0,0,1,-3,-2,-1,-1,0
1513174109348742,2,-1,-3,0,0,-3,0,0
1513174109348742,-1,-2,0,-1,-1,-1,-1,0
1513174109357748,-2,-3,-2,-1,-2,-1,-2,0
1513174109357748,0,1,0,-3,-1,-2,0,-1
1513174109372828,-1,1,1,0,-1,0,0,-3
1513174109372828,-1,-1,-2,-2,-1,0,0,-2
1513174109374270,-1,-2,-1,-1,2,0,-2,-1
1513174109374270,-1,-1,-2,-1,-2,-1,-2,-1
1513174109395275,0,1,0,-1,-1,0,0,0
1513174109395275,0,-1,-3,-1,0,-1,0,-1
1513174109396776,0,-1,-2,0,-3,-1,0,0
1513174109396776,-1,-1,-1,2,-1,-1,-2,-1
1513174109408784,-3,-3,0,-2,0,-1,0,-2
1513174109408784,3,0,-3,-2,-2,-2,-1,-1
1513174109417809,-1,-1,-1,-1,-1,0,-1,-2
1513174109417809,-1,0,-2,-1,-1,-2,0,-1
1513174109433305,-3,-2,0,-2,-1,1,-1,-3
1513174109433305,0,0,-1,-1,0,0,1,1
1513174109434803,1,0,-5,0,0,-3,-1,1
1513174109434803,-4,-2,0,1,-2,0,-2,-1
1513174109455317,-1,1,0,-3,0,-2,-2,-2
1513174109455317,-1,-2,-1,-2,1,1,-1,-2
1513174109461341,0,0,-2,-1,-3,-2,0,-1
1513174109461341,-3,-3,0,-1,0,0,-2,-2
1513174109468839,0,1,-6,-1,-2,-2,-1,-1
1513174109468839,-1,-1,-1,-2,-1,-2,-4,-2
1513174109477857,-1,-1,-1,-2,0,0,1,1
1513174109477857,-1,0,0,-1,0,-2,1,0
1513174109492844,-1,0,0,-1,-1,-1,-1,-1
1513174109492844,0,-4,-3,0,-2,1,-1,-1
1513174109494846,-2,-1,-1,0,0,-1,-3,0
1513174109494846,0,0,-2,-1,-2,-1,-1,-2
1513174109515370,1,-1,0,-1,-1,-3,-2,-1
1513174109515370,-1,-2,0,0,-2,-1,-1,0
1513174109516876,-2,-2,-1,-1,0,-2,-2,-2
1513174109516876,0,-1,-2,-2,-2,-2,-1,0
1513174109528893,-4,-4,1,-1,2,0,0,-2
1513174109528893,-2,0,0,-2,-1,-3,-1,1
1513174109537376,-3,-1,-1,0,-1,0,0,0
1513174109537376,-2,0,1,0,-2,0,-3,-3
1513174109552396,1,1,-1,-3,-3,-2,-1,0
1513174109552396,-3,-2,-1,-3,0,-2,0,0
1513174109554397,-1,-3,-2,-1,0,0,-2,-2
1513174109554397,-1,-1,-2,-2,-1,-2,0,0
1513174109574913,-1,-3,-1,2,-1,0,-1,-1
1513174109574913,0,-1,-1,-1,-1,1,0,0
1513174109576404,2,1,1,-1,-2,-3,0,1
1513174109576404,-3,-4,-3,-2,-1,0,-2,-4
1513174109597418,-3,-5,1,0,-1,0,-1,-1
1513174109597418,-1,-2,0,0,1,0,0,1
1513174109598919,1,-1,-2,-2,-2,1,-1,-1
1513174109598919,0,-1,-1,-3,-3,0,-1,1
1513174109612442,-3,-3,1,-3,-1,-2,-1,0
1513174109612442,0,1,-7,0,-1,-2,0,-1
1513174109614445,-2,-4,-2,-1,0,-1,0,-1
1513174109614445,-1,0,0,0,1,0,-1,-1
1513174109634955,-1,2,0,-2,-3,-1,-2,-1
1513174109634955,-2,-1,0,-1,-1,-1,-1,-2
1513174109636949,-1,0,-2,1,-1,0,-2,-1
1513174109636949,-1,-3,0,-1,0,-2,0,-2
1513174109657460,2,1,-1,-1,1,0,-3,-1
1513174109657460,-2,-3,1,1,-2,-2,-1,-2
1513174109658974,0,-3,-2,-1,-2,-1,0,-1
1513174109658974,2,4,-2,-3,-2,-2,-1,0
1513174109671980,-2,-1,0,-3,0,-2,0,-1
1513174109671980,1,-1,-1,-2,-1,-2,-2,-1
1513174109678977,0,-2,-4,-2,-1,-1,-1,0
1513174109678977,-2,0,-1,-1,0,-2,-1,-1
1513174109695487,0,-3,-1,0,-1,-1,-1,-1
1513174109695487,-1,-4,-2,0,-1,-1,1,-1
1513174109696988,-1,2,-1,-3,1,-2,-1,1
1513174109696988,-3,-2,-2,-1,0,0,-2,-1
1513174109717517,-1,0,-1,-3,-3,-1,-1,-1
1513174109717517,0,0,1,-2,-3,1,-1,-1
1513174109719004,-1,-1,-1,0,-1,0,0,-2
1513174109719004,-2,-1,-1,0,-1,0,-2,-3
1513174109731513,-1,-1,-2,-1,0,0,-2,-1
1513174109731513,2,-2,-2,-2,-1,-1,-2,0
1513174109740019,-1,-2,0,0,-1,2,-1,-2
1513174109740019,1,1,-3,-3,-2,-1,0,-4
1513174109755029,-1,-1,0,-1,-1,0,-2,-1
1513174109755029,1,-1,0,-2,0,-2,0,-1
1513174109756530,-1,-3,0,-2,-1,-2,-2,0
1513174109756530,-4,-1,0,0,0,0,-1,0
1513174109794057,1,1,-1,-1,-2,0,1,0
1513174109794057,-2,0,-1,-1,-1,0,-1,0
1513174109795558,-1,-1,1,1,0,1,0,0
1513174109795558,0,0,0,-1,-1,-2,-1,0
1513174109796559,-2,-1,-1,-1,3,-1,-2,-1
1513174109796559,-2,-3,1,-1,0,-2,0,1
1513174109800063,-1,-1,0,-1,-2,-2,-1,-1
1513174109800063,-3,-5,1,0,0,0,0,-1
1513174109815076,0,-1,-1,-2,-2,-2,0,0
1513174109815076,0,-1,-3,0,0,0,-1,-2
1513174109816575,1,-1,-3,-2,-1,0,-2,2
1513174109816575,-2,-3,0,0,-1,0,1,-1
1513174109837600,-3,0,-1,-1,-2,0,0,-1
1513174109837600,-2,-2,-2,1,0,-2,-1,-1
1513174109839089,-1,1,-2,-1,0,-1,-1,-2
1513174109839089,-1,-1,1,-1,-2,-2,-2,-2
1513174109852098,1,1,0,-1,-1,-2,-2,-3
1513174109852098,-2,0,-2,0,-1,-1,0,-1
1513174109858607,-1,-2,0,-3,-2,-2,-1,0
1513174109858607,1,1,0,-2,-2,-1,-2,-1
1513174109875114,-1,-3,-2,-3,-1,-3,-2,-2
1513174109875114,-4,-2,0,0,-3,-1,-2,-2
1513174109876616,-2,-2,-2,-1,0,-2,0,-1
1513174109876616,-1,1,-2,-1,-2,-2,0,-1
1513174109897632,2,-1,-1,-1,-1,-1,-1,-1
1513174109897632,2,-3,-1,-2,-1,0,-1,0
1513174109899133,0,-2,-3,-1,0,0,0,-2
1513174109899133,2,2,-1,-2,-2,-2,-1,0
1513174109911641,-3,1,0,-1,-1,-1,-3,0
1513174109911641,-1,1,-1,0,0,-1,0,0
1513174109918645,-3,0,-1,1,0,-1,-3,-3
1513174109918645,-1,-2,-1,-2,0,0,-2,-1
1513174109935156,-1,-2,-4,-3,-2,-2,-1,-2
1513174109935156,0,-3,-1,-1,-1,0,-1,1
1513174109936660,-1,-2,-2,-1,0,-2,-1,-1
1513174109936660,0,-1,-3,-1,-1,0,0,0
1513174109957674,-2,-2,0,-2,-1,0,-3,-2
1513174109957674,-1,-1,0,-2,-1,0,-2,0
1513174109959175,0,-2,-1,-3,-1,-2,-1,-1
1513174109959175,-1,-1,1,0,-1,-3,-3,-1
1513174109972684,-1,1,-1,1,-1,-3,0,-2
1513174109972684,3,-3,-2,-2,-1,0,1,0
1513174109978706,-1,-1,-1,-2,-2,0,-2,-2
1513174109978706,-4,-3,1,-1,0,0,0,-1
1513174109995700,-2,-1,-1,0,-1,-1,-2,1
1513174109995700,-1,-1,-3,0,0,0,-1,-1
1513174109997204,-1,0,-1,2,0,-2,0,-2
1513174109997204,0,-2,-3,-2,-2,0,-2,-2
1513174110017719,-2,0,-2,-1,-1,0,-1,-1
1513174110017719,-2,-1,-2,-2,-1,-1,0,0
1513174110019217,-2,-3,-1,-1,-3,-1,0,0
1513174110019217,-2,-1,-1,-1,-1,-1,0,-3
1513174110031750,-4,-6,1,0,0,0,0,-1
1513174110031750,0,1,-3,0,-2,-1,-2,0
1513174110038731,0,0,-3,-2,-2,0,0,0
1513174110038731,-1,1,-2,-1,-1,-1,-2,-2
1513174110055260,-2,-1,0,-1,-1,-1,-1,-2
1513174110055260,-3,1,-1,-1,-2,-1,-2,-1
1513174110056743,-1,1,0,0,0,1,-2,0
1513174110056743,-4,-4,0,-2,-1,0,0,-2
1513174110078281,0,-3,-3,-1,-2,-2,-3,-2
1513174110078281,-3,-2,-1,-1,1,0,-1,-2
1513174110079760,0,-3,-2,-1,-2,0,-1,2
1513174110079760,0,-1,-2,-1,1,-1,-1,-1
1513174110091267,0,0,-2,-1,-2,-1,0,-2
1513174110091267,0,-2,-1,-1,-2,-1,0,-2
1513174110100273,2,0,-2,-3,-1,-1,0,-1
1513174110100273,-2,0,-1,-1,-2,0,-2,-1
1513174110114805,-1,-1,1,-1,-1,0,0,0
1513174110114805,1,-2,-2,0,1,-1,-1,-1
1513174110116786,0,-2,-1,-1,1,-1,0,-1
1513174110116786,-1,0,0,-2,-1,-2,-1,-3
1513174110137311,-2,-2,-1,-1,1,-1,0,-1
1513174110137311,0,0,-3,-2,-1,0,-2,-1
1513174110139303,-1,-1,-2,0,-1,-2,-1,-3
1513174110139303,-1,0,-3,1,-2,-2,0,-1
1513174110151310,0,-1,1,0,-2,-1,-1,0
1513174110151310,-2,-1,-2,-2,1,1,0,0
1513174110160317,-1,1,-1,0,-3,0,-1,1
1513174110160317,-2,-1,-2,-2,-2,-1,0,0
1513174110174826,-1,0,-2,0,-1,-2,0,-1
1513174110174826,-2,-1,0,0,-2,-2,-1,-1
1513174110176843,-1,0,-2,-2,-1,-2,-1,-1
1513174110176843,-1,1,-1,-3,-1,-3,-2,0
1513174110197342,0,-1,0,1,0,0,-1,0
1513174110197342,0,-1,-1,0,0,-1,-1,0
1513174110199343,0,0,-2,-2,-1,-2,-1,-1
1513174110199343,-2,-1,2,0,-2,-1,-2,-3
1513174110211353,-1,-1,-3,-2,-1,-1,-1,-1
1513174110211353,-1,0,-2,-2,-3,0,0,1
1513174110220358,-1,-1,-1,0,-2,-1,-2,1
1513174110220358,-1,0,-2,-1,-1,-2,-2,-1
1513174110234868,-2,-1,0,0,1,0,0,-3
1513174110234868,-2,-2,0,1,-1,0,-1,-3
1513174110236371,-3,-4,0,1,-1,1,-2,-1
1513174110236371,-1,0,0,-1,-2,-2,-1,0
1513174110257384,-1,-1,-2,-1,-1,-1,0,-1
1513174110257384,-2,-2,0,-1,-1,-3,1,-1
1513174110258885,-1,-2,-1,-1,1,-1,0,-1
1513174110258885,-2,-2,-1,-1,0,-1,1,-1
1513174110271394,-1,0,-3,-3,0,-1,-1,-1
1513174110271394,0,1,-2,0,0,-1,-2,1
1513174110280430,-1,-1,-1,-1,-1,0,-1,-3
1513174110280430,-2,-2,-2,0,-1,-2,-1,-3
1513174110294911,1,-2,-2,-2,0,-1,-2,-2
1513174110294911,-1,-4,1,0,-2,0,-1,0
1513174110296912,0,0,0,1,-1,-1,-2,-1
1513174110296912,-3,-2,-1,-1,-2,0,0,-2
1513174110317448,-3,-2,0,-2,-3,1,-2,-1
1513174110317448,-2,-1,0,0,-2,-1,-2,0
1513174110319429,-1,0,-3,-3,-1,-2,-1,-1
1513174110319429,0,0,-1,-1,0,-2,-1,-2
1513174110331457,-2,-1,0,0,-2,-2,0,-1
1513174110331457,-3,-3,-1,-2,-2,-2,0,-1
1513174110340010,-1,-2,-2,-1,1,-2,0,-2
1513174110340010,3,3,-2,-3,-1,-1,-2,0
1513174110355020,-1,-2,0,-1,-2,-3,-2,-1
1513174110355020,1,1,-1,-2,-1,-2,-1,-2
1513174110356520,0,-1,-1,-1,-3,-4,0,1
1513174110356520,-3,-3,-2,-1,-1,0,-1,-4
1513174110378038,0,-2,-1,0,-1,0,0,0
1513174110378038,0,-2,-1,-1,-2,1,-1,-1
1513174110380039,0,0,0,0,-1,-1,-2,-1
1513174110380039,0,2,0,0,0,-1,-1,-1
1513174110391048,-3,0,-1,-1,0,-2,1,-2
1513174110391048,-4,-3,-1,-1,0,-2,-1,-2
1513174110400051,0,-1,-4,-1,-1,-1,-1,-1
1513174110400051,-4,-5,0,-1,-1,1,-1,1
1513174110415062,2,2,-2,-4,-1,-4,-1,-2
1513174110415062,2,-1,-3,-1,-1,-1,1,1
1513174110416563,-4,-1,0,-1,-3,0,-1,-3
1513174110416563,-2,-1,-1,-1,0,0,-3,-2
1513174110437578,-1,-3,-1,-1,-3,0,-2,1
1513174110437578,0,-1,-2,0,-2,-1,-3,0
1513174110439079,-2,1,-2,-2,-1,-2,-2,-1
1513174110439079,-1,2,-3,-3,-1,-2,-1,-2
1513174110459593,1,0,-1,-2,0,-1,-1,-1
1513174110459593,1,-1,-1,-1,-1,-2,0,-1
1513174110460094,-2,-1,-2,-2,1,1,-1,2
1513174110460094,-1,-3,0,-1,-3,0,-1,-1
1513174110474103,0,0,-2,-2,-1,-1,0,-2
1513174110474103,-2,-2,-1,-1,0,-1,-3,0
1513174110482112,1,-2,-3,-1,-3,-1,0,-3
1513174110482112,-1,-3,1,-1,-2,-2,0,-1
1513174110496619,-2,-2,0,-1,-1,-1,-2,-1
1513174110496619,0,-1,-2,-1,-2,0,0,-3
1513174110497620,-2,-1,-1,0,-1,-1,0,-1
1513174110497620,-1,-1,0,-1,-1,-1,-1,0
1513174110519671,-3,0,2,1,-1,0,-2,-1
1513174110519671,-1,0,-1,-1,0,-2,-2,0
1513174110520171,-1,-1,-1,1,1,-1,0,0
1513174110520171,-3,-2,-1,0,-1,-1,1,-4
1513174110534213,-1,-2,-1,-3,-1,-1,-2,-1
1513174110534213,1,1,-1,-2,-2,-3,-1,1
1513174110535210,-1,1,0,-1,-3,-1,-1,0
1513174110535210,-2,-1,1,0,-1,0,-3,-3
1513174110556726,-1,-1,-1,-1,-1,-1,0,0
1513174110556726,0,-2,-3,1,-1,1,0,-2
1513174110557727,0,-2,-1,-3,-1,-2,-2,-2
1513174110557727,-1,0,1,-1,-1,-1,-1,-2
1513174110579244,-2,-3,1,0,-1,-2,-2,-1
1513174110579244,2,-1,-2,-2,-2,0,-2,1
1513174110580242,-1,-2,0,-1,-2,0,-1,1
1513174110580242,0,-1,-2,-1,-2,-3,-1,-2
1513174110594253,-2,0,0,1,-1,-3,-1,-1
1513174110594253,-1,0,-1,-2,0,0,-2,0
1513174110595256,1,0,-3,-2,-1,0,-1,-1
1513174110595256,-4,0,1,0,0,0,-2,0
1513174110616793,-3,-2,0,1,0,1,0,-2
1513174110616793,-2,-1,-1,0,-1,-1,0,-1
1513174110617776,-1,-1,-2,-1,-1,-2,-2,-4
1513174110617776,1,-1,-1,-2,-2,-1,0,-1
1513174110639797,-1,-2,1,0,0,0,-1,-1
1513174110639797,-1,-2,-2,0,0,-2,-2,-1
1513174110646804,-2,-3,0,-1,-1,0,1,0
1513174110646804,-2,-2,-2,0,-2,-1,-2,-1
1513174110654307,-1,-2,-1,-2,-1,0,-1,0
1513174110654307,-1,-1,-1,0,0,0,-1,-1
1513174110655297,-2,-1,0,0,-1,-1,-2,-2
1513174110655297,1,0,0,0,0,-2,-1,0
1513174110676821,0,1,-1,-3,-2,-1,-2,-1
1513174110676821,0,0,-1,-1,-1,-1,0,-1
1513174110677822,1,1,-3,-2,-2,0,-1,-2
1513174110677822,2,2,-2,-4,-4,-2,-1,-1
1513174110699336,-1,0,0,1,-2,-1,0,-1
1513174110699336,-2,-2,0,-2,-1,0,-1,0
1513174110700338,-2,-2,0,1,-2,-2,-1,-2
1513174110700338,-1,0,1,-2,-1,-1,-1,-2
1513174110714351,2,-1,-2,-2,-1,-1,1,0
1513174110714351,0,-1,-2,-1,0,-1,-1,0
1513174110715338,-2,0,-1,0,-1,-2,-1,0
1513174110715338,-1,-1,-2,0,-1,2,-1,0
1513174110737353,-1,0,-1,-1,-2,-2,-2,-3
1513174110737353,0,-1,-2,0,-1,-1,-1,-1
1513174110744358,-1,-2,-2,-2,-1,-1,-2,-2
1513174110744358,-2,-2,-1,-2,-1,-1,-1,-1
1513174110759381,-2,-1,-1,-1,0,0,0,0
1513174110759381,-1,-2,-2,-1,-3,-4,0,0
1513174110759870,-1,-2,0,-1,1,-3,0,-2
1513174110759870,-1,0,0,0,-1,-1,0,0
1513174110774380,1,-1,-1,0,-2,0,-2,-2
1513174110774380,-4,-4,-2,-1,-1,-1,-3,-2
1513174110774881,0,0,-3,-2,-3,-1,-1,0
1513174110774881,-3,-1,0,-2,-1,-1,0,-2
1513174110796895,2,1,0,-2,-2,-1,-1,0
1513174110796895,-1,1,-1,0,-1,-1,-1,-1
1513174110797396,-1,-1,-1,0,-1,-3,-2,-2
1513174110797396,-1,-2,0,0,0,0,-2,0
1513174110819412,1,0,-4,-4,-3,-3,-1,1
1513174110819412,2,0,-1,-1,1,1,0,-2
1513174110820412,-2,1,-1,-2,-2,2,0,-1
1513174110820412,0,0,-1,0,0,-1,-3,-3
1513174110834422,0,-1,-1,-1,-2,-1,-2,0
1513174110834422,-1,-1,-2,1,1,-1,1,0
1513174110834923,-2,-1,-1,-3,-1,-2,-1,-2
1513174110834923,-3,-2,-2,-1,-2,-2,-1,0
1513174110857453,0,-2,-1,-1,0,0,0,-2
1513174110857453,1,-1,-2,-1,-2,-1,-1,0
1513174110864458,-2,1,1,-2,-2,-1,-1,-1
1513174110864458,-1,0,-2,-1,0,-1,-1,-3
1513174110879486,0,-1,-1,0,0,0,-1,-1
1513174110879486,-3,-1,0,0,-2,-1,-1,-3
1513174110879987,-1,-1,-1,0,0,-1,-2,-1
1513174110879987,-1,-2,0,0,-2,-2,0,0
1513174110893996,-1,0,0,0,0,-1,-1,1
1513174110893996,1,-1,-3,-2,-1,-1,-2,-2
1513174110894997,-2,-2,0,-1,-1,0,-2,0
1513174110894997,-2,0,0,-2,-1,0,-1,-2
1513174110917015,-1,-3,-3,-1,0,-1,0,0
1513174110917015,-2,-1,-1,1,-1,0,1,0
1513174110917513,-1,0,-1,0,-1,-1,-2,-1
1513174110917513,-1,-1,0,-1,-2,-1,-2,-1
1513174110939531,-3,-3,0,-1,0,0,-2,-1
1513174110939531,1,-2,-1,-1,-2,-1,-2,1
1513174110940029,-1,-3,0,1,0,0,-1,-1
1513174110940029,-1,-2,-1,-1,0,-1,0,0
1513174110953581,0,-2,-1,1,-1,0,-1,-2
1513174110953581,-2,-1,-1,-2,-1,-1,0,-1
1513174110962084,-1,-1,0,0,0,-1,-1,-2
1513174110962084,0,1,0,-1,-1,-3,-1,-1
1513174110977085,-3,-3,0,1,-1,-1,-1,-2
1513174110977085,1,-2,-3,0,-1,-2,0,-1
1513174110977585,0,-1,-2,0,-2,-2,-2,-2
1513174110977585,-2,1,-1,-1,-2,0,-2,-2
1513174110999139,-1,0,-1,-2,-2,-2,-1,0
1513174110999139,-4,1,2,0,1,0,-2,-1
1513174111000114,-1,0,-1,-1,-1,-2,1,-1
1513174111000114,0,-1,-3,0,-2,-1,-1,-1
1513174111014624,-1,0,-3,-2,0,-2,0,-1
1513174111014624,-1,-2,-2,-1,0,-2,-3,-1
1513174111015112,1,0,-2,-3,-2,-3,-2,-2
1513174111015112,-1,-1,1,-2,-1,-1,-1,-1
1513174111037127,-2,-2,-1,-1,0,0,0,-2
1513174111037127,-1,-3,-1,-3,-2,-1,-1,-2
1513174111037629,-2,-2,-1,0,-2,0,0,-2
1513174111037629,-1,1,-3,-2,-2,-1,0,-1
1513174111059144,1,0,-3,-2,-1,0,0,0
1513174111059144,0,0,-1,0,-1,-1,-2,1
1513174111060144,-3,-2,-1,-3,-1,-1,0,-1
1513174111060144,-4,-5,1,0,0,0,-1,-1
1513174111074153,0,-2,-2,-2,-1,-1,-1,0
1513174111074153,-1,-2,-2,-2,-2,0,0,-1
1513174111075155,-1,-2,-1,-2,-1,-1,-1,-3
1513174111075155,0,0,0,-2,1,-2,-1,-2
1513174111096669,0,-1,-1,-1,0,-1,0,-2
1513174111096669,1,-2,-1,0,-1,-1,-1,0
1513174111097670,-2,0,-2,-2,-2,-2,-2,-2
1513174111097670,-1,-2,0,-1,0,-3,-3,0
1513174111119198,-1,-1,0,-1,0,-1,0,-1
1513174111119198,-1,0,0,-1,0,0,-1,0
1513174111120187,0,-1,-1,-1,-1,2,0,0
1513174111120187,-1,-1,-1,0,0,-2,-1,-1
1513174111133740,0,0,-2,0,-3,-2,-1,-1
1513174111133740,1,-1,-1,-1,-3,-1,0,-2
1513174111141727,0,-1,0,-1,-1,-3,-1,-2
1513174111141727,-1,0,-1,-1,0,-1,0,-1
1513174111156713,-1,-1,0,0,-1,0,-2,0
1513174111156713,-1,0,-2,-1,-1,-1,-2,0
1513174111157713,-2,-1,-2,-2,-1,-1,0,-1
1513174111157713,-1,-1,0,-3,0,0,-2,-1
1513174111179250,-1,0,-2,-2,0,-2,-1,-2
1513174111179250,-2,0,-3,-3,0,-1,-1,-2
1513174111180230,-3,1,0,-2,-1,-1,0,-1
1513174111180230,1,2,-1,-1,-4,-2,0,-1
1513174111193749,0,-2,-3,1,1,0,0,2
1513174111193749,-2,-3,-2,-1,-2,-1,1,0
1513174111201766,-1,-2,0,0,3,0,-1,0
1513174111201766,0,-2,-1,-2,-2,0,0,-1
1513174111216781,0,-2,0,-2,-1,-1,-2,0
1513174111216781,2,-1,-3,-3,-1,-1,-2,-2
1513174111217769,0,-1,-1,-1,-2,1,-1,0
1513174111217769,-2,-1,-1,-1,-2,0,-2,-2
1513174111239271,-1,-2,-2,1,-1,-4,-2,-3
1513174111239271,-2,-3,-3,1,0,-1,-1,0
1513174111240272,-1,-1,-2,-1,0,-3,-1,-2
1513174111240272,-1,0,-1,-2,-1,-1,-2,-2
1513174111253781,2,1,-1,2,0,1,0,-1
1513174111253781,0,1,-1,-1,0,-1,-2,0
1513174111261792,1,-1,0,-2,-3,0,-1,-2
1513174111261792,-2,-1,0,5,0,-1,0,-3
1513174111276800,-1,-2,-1,-2,-3,-3,-1,-1
1513174111276800,-1,-2,-1,-1,0,-1,1,1
1513174111277798,-2,-2,0,-2,-1,-1,-2,0
1513174111277798,-2,-2,-1,-4,0,-1,1,0
1513174111299338,-1,-1,1,-1,-2,0,-1,-1
1513174111299338,0,-1,-4,-2,0,-3,-2,0
1513174111300333,-1,1,-1,0,-3,-1,0,-1
1513174111300333,-1,-1,0,0,-1,-2,-2,-1
1513174111313823,-1,-2,-1,0,-2,0,-1,1
1513174111313823,-1,-2,-1,3,2,-3,1,-1
1513174111321867,-2,-1,-2,-1,-3,-1,-2,-2
1513174111321867,-1,-2,-1,0,-2,-1,-1,-3
1513174111336879,-1,-1,-2,-3,-2,-2,0,0
1513174111336879,0,-1,-1,-2,-3,-1,-2,0
1513174111337379,-4,0,0,0,-1,-1,-3,-1
1513174111337379,-1,-3,-1,-2,-1,-3,-1,-1
1513174111359406,-1,-2,-1,-1,0,0,0,0
1513174111359406,-2,-2,1,0,-1,0,-2,-2
1513174111359895,0,2,-2,0,-1,-1,0,-2
1513174111359895,-1,-1,-2,-2,-1,-3,-2,-2
1513174111373416,-1,0,-1,0,-1,-1,0,0
1513174111373416,-1,-2,0,-2,-1,-2,0,0
1513174111381927,-1,-2,-1,-1,0,-1,-2,-2
1513174111381927,-1,0,-1,-1,-2,-1,1,-3
1513174111404926,1,0,-1,-1,0,-2,-1,-3
1513174111404926,0,-2,-2,-2,-1,-1,-1,-2
1513174111405927,0,-2,-2,-2,-1,-1,-1,-1
1513174111405927,-2,-2,0,-2,0,-2,-1,1
1513174111419436,0,-2,-2,-1,-2,1,-2,-1
1513174111419436,0,-1,-3,-1,-3,0,-1,0
1513174111419938,-2,0,0,-3,-1,0,0,-2
1513174111419938,0,0,0,1,0,0,-1,-1
1513174111458990,-1,-1,-1,0,0,-1,-1,1
1513174111458990,0,1,-1,-1,-2,-1,-1,-1
1513174111459491,0,-2,-2,-2,-2,-1,-2,0
1513174111459491,-1,-1,1,-2,0,-1,-2,-2
1513174111460992,1,0,-2,-1,1,-3,-1,-3
1513174111460992,-2,-2,-1,-1,0,-1,-1,-1
1513174111464494,-1,-1,-1,0,-2,0,-2,-2
1513174111464494,-2,-1,-1,-2,-1,0,-1,-1
1513174111479503,0,-2,-3,-1,-1,-1,-1,0
1513174111479503,2,3,-1,-3,0,-1,-2,0
1513174111480005,-1,0,-5,-3,-2,-2,-2,-5
1513174111480005,-1,0,-1,-5,-2,-3,-1,-2
1513174111502520,-1,-1,-2,1,0,0,-1,1
1513174111502520,-2,-3,-2,1,-1,-1,-1,1
1513174111503522,-3,-3,0,-2,1,-2,0,-1
1513174111503522,0,-1,-3,0,0,0,-1,-1
1513174111524036,1,-1,-2,-3,-1,-1,0,0
1513174111524036,-4,-4,0,1,0,0,0,-2
1513174111539047,0,1,0,0,-3,-1,-1,-2
1513174111539047,-1,-1,0,-1,-1,-1,-2,-3
1513174111549053,-1,-1,0,-2,0,-1,-3,-1
1513174111549053,1,0,-1,-1,-2,-1,0,1
1513174111550053,0,0,-1,-1,0,-1,0,0
1513174111550053,-3,-3,-3,-3,-4,0,1,-2
1513174111562562,-2,-2,-1,4,0,0,-4,-2
1513174111562562,-1,-1,-1,0,0,-1,-1,0
1513174111563562,0,-1,-4,-2,-2,-2,-2,-1
1513174111563562,0,0,0,-2,-1,-2,-2,1
1513174111577072,-1,-1,-1,-2,-2,-1,-1,-1
1513174111577072,-1,0,-3,-1,0,-1,0,-2
1513174111577573,-1,-1,0,1,0,-2,0,-2
1513174111577573,0,0,0,0,0,0,-1,0
1513174111599091,0,-2,-3,-2,-1,0,1,-1
1513174111599091,-1,-2,1,-2,-1,-1,-1,-2
1513174111600089,-1,-1,0,-1,1,1,-1,-3
1513174111600089,0,-2,-1,1,1,-1,0,-1
1513174111622604,0,-2,-2,-2,-2,-2,-1,1
1513174111622604,1,0,0,-4,-1,-2,-2,-2
1513174111623105,-3,-3,1,-1,-1,0,-1,1
1513174111623105,-3,-1,0,1,-1,-2,-1,-2
1513174111637114,-2,-4,0,-2,-1,-1,1,1
1513174111637114,0,0,-4,0,0,-2,0,-2
1513174111637615,-1,-1,1,-2,-2,-3,-1,-1
1513174111637615,-2,-1,-1,1,0,-1,0,0
1513174111659631,-1,-1,-1,-1,0,0,0,-1
1513174111659631,-2,-2,-1,-1,-1,0,-1,-2
1513174111660134,1,-2,-2,-1,0,-2,0,0
1513174111660134,-2,0,1,-1,-2,-1,-1,-2
1513174111682693,-1,-2,-1,-2,0,-3,0,-1
1513174111682693,2,1,-1,-2,-1,-1,-2,1
1513174111683648,-3,1,-1,-1,0,0,-2,-1
1513174111683648,0,2,-1,-1,-2,-1,-1,-1
1513174111696659,-3,-1,-1,-1,-3,0,-1,0
1513174111696659,-2,-3,-2,-1,-1,0,-1,-2
1513174111697660,-3,-4,2,-1,-1,-2,-1,-1
1513174111697660,0,0,0,-1,0,-2,0,-1
1513174111727680,2,1,-2,-1,-1,-2,-1,-1
1513174111727680,0,-1,-1,-3,0,-1,1,-1
1513174111728180,0,-2,0,-1,-2,-1,-1,-3
1513174111728180,-1,-4,-2,-4,-1,0,0,-2
1513174111742689,-2,-1,-1,0,-1,1,-2,0
1513174111742689,-3,-4,-2,3,0,-1,-1,0
1513174111743191,-3,1,-1,-1,0,-1,-1,-1
1513174111743191,0,-2,-2,0,-1,-1,-1,-1
1513174111756700,-1,-1,-1,-3,0,-2,-2,-1
1513174111756700,0,-1,-2,-3,-2,0,0,0
1513174111757701,-2,1,0,0,-1,-1,-1,-1
1513174111757701,-2,-3,1,-1,0,0,0,-1
1513174111779733,0,-1,0,-3,-2,0,0,-1
1513174111779733,-2,-1,-1,-1,-1,-2,0,-2
1513174111786721,0,0,0,-1,-2,0,-1,-2
1513174111786721,1,-1,-1,-2,0,-1,-3,-1
1513174111802234,0,-2,-2,-1,-1,-1,0,-1
1513174111802234,-1,0,-1,-1,-2,-1,-1,0
1513174111803232,-1,-1,-2,-1,-1,-2,-1,-1
1513174111803232,-4,-2,-1,-2,-1,-1,-2,-1
1513174111816745,-1,-1,-1,0,0,-2,-2,-1
1513174111816745,-2,-1,-2,-3,-2,0,-1,-1
1513174111824247,0,1,0,0,0,-2,-1,1
1513174111824247,-2,1,0,-1,-2,-1,-1,-2
1513174111839258,0,-2,-2,-1,0,0,0,0
1513174111839258,1,-2,-1,-5,-2,-1,-2,-1
1513174111840259,-2,-2,0,1,0,-1,0,-1
1513174111840259,1,-1,0,1,0,-3,0,0
1513174111870282,-2,-2,-1,-2,-1,-1,1,1
1513174111870282,0,0,-1,-2,-1,0,-1,-1
1513174111870780,-1,0,0,-2,-3,-2,-2,-2
1513174111870780,0,0,-1,-1,-1,-1,-1,-1
1513174111876785,-1,-2,-2,-2,0,-1,1,0
1513174111876785,0,-2,0,0,-1,0,-1,-1
1513174111877786,-1,-2,0,-3,-1,1,-1,-2
1513174111877786,-2,-1,-2,0,-2,0,-1,0
1513174111899312,-1,-3,-2,0,-2,-3,-1,-1
1513174111899312,-2,-1,-2,2,0,-1,-1,-1
1513174111900301,-1,-3,0,-1,0,0,-1,-2
1513174111900301,2,0,-2,-2,-1,-1,-2,0
1513174111922328,-2,-2,-1,-3,-2,-1,-2,0
1513174111922328,2,1,-4,0,-2,-2,-3,-1
1513174111923319,0,0,0,3,2,1,-1,-1
1513174111923319,-1,-1,-1,-1,-1,-1,-1,-2
1513174111936827,1,0,1,0,0,0,1,0
1513174111936827,-1,-1,1,-2,-1,-3,0,2
1513174111937827,-2,-2,0,-2,-2,-2,0,-1
1513174111937827,-2,-1,-1,-1,0,1,-1,-1
1513174111959343,-1,0,-2,0,-3,-1,-2,0
1513174111959343,-2,-1,-1,2,0,1,-2,-1
1513174111960343,0,-4,0,-1,-1,-2,-1,-2
1513174111960343,0,-2,1,-1,-1,-1,-2,0
1513174111982859,-2,-3,0,-1,1,1,-2,-3
1513174111982859,1,2,-3,-4,-1,-2,-2,-1
1513174111983860,-3,0,-1,-1,-2,-1,-2,-1
1513174111983860,0,0,-2,-1,-1,-2,0,-1
1513174111997870,0,-1,-2,-1,0,-2,-1,-1
1513174111997870,-5,-5,1,0,0,1,0,-1
1513174112011880,-2,-1,-2,-3,-1,-1,0,-2
1513174112011880,1,-1,0,-1,-1,-1,-3,0
1513174112027919,-1,-1,0,1,-1,0,1,1
1513174112027919,2,-1,-5,-1,-2,-2,-3,-1
1513174112028892,-4,-1,-1,0,-2,-2,-3,-2
1513174112028892,0,0,-3,-3,0,0,-1,-2
1513174112057444,1,-2,-3,-3,-2,-2,-1,-2
1513174112057444,0,0,-1,-1,-3,-1,0,1
1513174112066453,0,0,-2,-2,-3,-2,-1,-2
1513174112066453,-2,-1,0,2,1,1,-1,-1
1513174112067955,-3,0,-1,-1,-1,-1,-1,0
1513174112067955,1,1,-1,-3,-2,-1,-1,-3
1513174112068952,1,-1,-2,-3,-2,-2,-2,-1
1513174112068952,0,-1,0,-1,-1,-1,1,-1
1513174112079460,1,-2,-2,-1,-2,-2,0,0
1513174112079460,-2,0,1,0,-1,-1,1,0
1513174112079960,0,1,-1,-3,0,0,0,2
1513174112079960,-2,0,-2,0,-1,-1,0,-1
1513174112102477,-1,0,-2,0,-2,0,-1,0
1513174112102477,-1,-3,-1,-2,-1,-2,0,-4
1513174112103478,-1,-2,2,1,0,1,-2,-1
1513174112103478,-1,-2,-2,-6,-1,-1,0,-1
1513174112116070,-1,-2,0,3,0,-1,-2,-1
1513174112116070,-2,-3,1,2,2,-1,-1,2
1513174112124613,-1,-1,-1,-2,0,-1,-2,0
1513174112124613,-1,0,-1,0,-1,-2,-2,0
1513174112139623,4,1,-3,-1,-1,-2,-1,0
1513174112139623,-1,-1,-2,-3,-2,-1,-2,0
1513174112140124,0,0,-1,0,-2,-2,-1,-2
1513174112140124,-2,-1,0,-1,-3,-1,-2,-3
1513174112163141,-1,-2,-4,-2,-1,-1,-1,-1
1513174112163141,-1,-1,-2,-2,-2,-4,0,-1
1513174112164141,0,1,0,-1,-3,-2,0,-1
1513174112164141,-1,-3,-2,-1,-2,-2,-2,0
1513174112176151,-2,-3,-1,2,0,-1,-1,-2
1513174112176151,-1,-3,-1,-1,-1,-1,-1,-1
1513174112184157,-2,-2,-2,-3,-1,-1,0,-1
1513174112184157,0,-1,-1,0,0,-1,0,0
1513174112199178,-1,-2,-1,-1,1,-1,-1,-1
1513174112199178,-2,-1,-1,-2,0,-1,-2,-1
1513174112200184,1,0,-1,-2,-2,-3,-2,0
1513174112200184,2,1,-1,0,-1,-1,-2,-2
1513174112222680,-2,-3,-1,-5,-1,-2,-1,-1
1513174112222680,-1,-1,-1,0,-1,-1,-1,-2
1513174112223181,-3,-1,-1,5,1,-3,0,-2
1513174112223181,0,-1,-1,-1,-1,-2,0,0
1513174112245219,-1,-1,-2,-2,-1,1,-2,0
1513174112245219,-1,-2,-2,-3,-3,-1,-1,-1
1513174112245698,-2,-3,-1,-3,-2,-2,0,0
1513174112245698,-2,-2,0,0,1,0,-1,0
1513174112260230,-1,0,-3,-2,-1,-1,-1,-1
1513174112260230,-3,-5,-3,1,0,0,0,-2
1513174112260709,-4,-1,-1,-1,0,-2,-2,-1
1513174112260709,-1,-2,0,-1,-1,-1,1,-2
1513174112282735,-1,-2,-2,-2,0,-1,0,-1
1513174112282735,0,0,1,-2,-2,-1,-1,-1
1513174112283224,-1,-2,-1,-1,-2,-1,-1,-2
1513174112283224,-1,-3,-1,-1,-1,-2,-1,0
1513174112296243,-2,-3,0,2,0,0,0,-1
1513174112296243,-1,-1,-1,0,0,0,0,-1
1513174112304251,0,0,0,-2,-3,0,-1,-3
1513174112304251,-3,-1,-1,-2,-1,0,0,0
1513174112320251,0,2,-2,0,0,-3,-2,-1
1513174112320251,-1,1,-1,-1,0,-1,0,-1
1513174112320751,-2,1,-1,-3,-1,-1,-1,0
1513174112320751,0,0,-1,5,0,-1,0,-2
1513174112342266,-1,1,-1,-2,-1,-2,0,-1
1513174112342266,0,1,-4,-2,-3,-3,-2,-2
1513174112343267,-2,-1,0,-2,-1,-1,-1,-2
1513174112343267,0,-3,-2,-3,-2,-1,-1,-1
1513174112356276,-4,-5,1,1,2,1,2,-1
1513174112356276,-1,-1,-1,-1,-1,-1,-2,-2
1513174112371786,-2,-1,-2,0,-1,0,-1,-2
1513174112371786,-2,-1,-1,-2,0,-2,-2,1
1513174112379292,0,-1,-3,-2,-3,-2,0,-1
1513174112379292,-1,-1,1,0,-1,0,0,0
1513174112380293,-3,-1,-1,1,-2,-2,0,-1
1513174112380293,-1,-1,-1,-2,0,-1,0,-2
1513174112402308,2,-1,-1,-1,-3,-2,-2,-1
1513174112402308,-2,-1,0,-1,0,-1,-2,-1
1513174112403320,0,-1,-1,-1,0,0,-2,-2
1513174112403320,-1,-1,-1,0,-1,-2,-1,-1
1513174112424839,0,-1,-1,0,-1,0,-2,0
1513174112424839,-1,-2,-1,-1,-2,-1,-1,-1
1513174112425825,0,1,0,-6,-1,0,-3,0
1513174112425825,-3,-1,-3,1,0,-1,-2,0
1513174112440835,1,0,-1,2,0,1,-1,0
1513174112440835,-2,0,0,-2,-2,-1,0,-1
1513174112441336,0,-3,-2,-3,-1,-1,-1,0
1513174112441336,-2,-4,-2,-4,-1,-1,-1,-1
1513174112470356,1,0,1,-1,-2,-3,-1,1
1513174112470356,-2,-1,-2,0,-2,-1,-4,-1
1513174112470858,1,-1,1,-2,-2,-2,0,-1
1513174112470858,-2,-2,-4,-3,-2,-2,-2,-2
1513174112484882,-7,-4,-1,2,1,-1,0,0
1513174112484882,0,-1,-1,-1,-1,-1,0,-1
1513174112485867,-2,0,0,3,0,0,0,-2
1513174112485867,-1,1,0,0,-1,-1,1,1
1513174112499904,0,-2,-3,-2,-1,1,0,-2
1513174112499904,-3,-1,-2,-3,0,0,0,-3
1513174112500878,-2,0,0,0,-1,-1,-2,-2
1513174112500878,-1,-1,0,0,-1,-1,-1,-2
1513174112522894,0,0,-2,-1,-1,-4,-3,-1
1513174112522894,-3,-3,0,0,2,-1,-1,-1
1513174112523895,-2,1,-3,0,0,-1,-1,-1
1513174112523895,0,-3,0,3,1,-1,-1,-1
1513174112568961,-1,-1,-3,-3,-3,1,-1,0
1513174112568961,-1,-2,0,-2,-3,-1,-1,0
1513174112569426,-2,-3,0,-1,-2,-1,-1,-2
1513174112569426,3,0,-3,-2,-1,-1,0,0
1513174112571442,2,-2,-1,-3,-1,-2,-3,0
1513174112571442,0,0,-1,-1,-2,-1,-1,-1
1513174112574931,-1,-3,-3,-2,-1,-1,-1,-4
1513174112574931,2,1,-2,-2,-3,-2,-2,1
1513174112582436,-1,-1,-2,-1,-1,0,-1,-3
1513174112582436,0,1,-3,-1,-2,-3,-1,-1
1513174112583937,0,0,0,-2,-2,-2,0,1
1513174112583937,-1,0,-1,-1,-1,-2,0,0
1513174112605452,-1,0,0,-2,-2,-2,-2,1
1513174112605452,-3,-2,-1,-2,0,-2,-1,-1
1513174112606953,-5,-1,1,1,0,0,0,-3
1513174112606953,-2,-3,0,-2,-2,-2,-3,0
1513174112618476,-1,-2,-2,-4,-2,0,-2,-1
1513174112618476,-1,-2,-2,5,1,-3,-2,-1
1513174112627467,0,-3,0,-2,-1,-2,-2,-1
1513174112627467,-2,-1,0,-1,-2,-1,0,-1
1513174112641477,-1,-1,-3,-1,0,-3,-2,-1
1513174112641477,-4,-4,0,-4,-4,-1,0,-2
1513174112655987,0,-1,0,0,-2,-2,1,-2
1513174112655987,-1,-1,-1,-2,-1,-1,-2,-1
1513174112664993,-3,-6,0,1,0,-2,-2,-1
1513174112664993,-1,-2,-2,-1,-2,-1,0,-2
1513174112666496,-2,0,-2,-1,-1,0,-1,0
1513174112666496,0,-1,-3,-3,-1,0,-1,-2
1513174112679036,-1,-1,-2,0,-2,-2,1,-1
1513174112679036,1,0,-2,-2,-1,0,0,-1
1513174112687510,0,-3,-3,-1,-2,-1,-1,-2
1513174112687510,0,-2,0,-2,-1,0,-1,-1
1513174112703533,0,0,-2,-3,-2,-1,0,0
1513174112703533,1,-2,1,-2,-1,-1,-3,0
1513174112704524,-1,1,0,-1,-1,-2,-1,0
1513174112704524,0,-1,-2,-3,-1,-3,-1,-1
1513174112725038,1,-1,-2,0,-1,-1,-1,-2
1513174112725038,-2,-2,0,3,0,-2,-1,-2
1513174112726537,-3,-1,1,-1,-1,1,0,-1
1513174112726537,0,0,-1,0,0,0,0,0
1513174112739572,1,2,-2,-3,-2,-1,-2,1
1513174112739572,-1,2,-2,-3,-3,-1,-1,0
1513174112746076,0,0,-1,-1,-2,0,0,-1
1513174112746076,-2,-3,-1,0,0,-1,-2,-2
1513174112762588,-2,-2,-2,0,0,0,0,-1
1513174112762588,-2,0,1,0,0,1,0,0
1513174112764069,-1,-2,-3,-2,-1,-3,-3,-1
1513174112764069,-1,-2,0,-1,-1,-1,-1,1
1513174112785095,1,-3,0,0,-1,-3,-1,0
1513174112785095,-1,-1,-3,-1,-1,-2,-1,-1
1513174112786592,-4,-4,1,-1,-1,-1,0,-1
1513174112786592,-2,-3,-4,-1,0,-1,-1,-1
1513174112799601,-1,-2,-4,-3,0,-1,-1,0
1513174112799601,-1,0,-1,-2,-2,0,-2,-1
1513174112806093,-3,-2,0,0,0,1,0,-3
1513174112806093,0,0,0,0,0,-2,0,-1
1513174112822616,1,0,1,0,1,1,0,-2
1513174112822616,-2,0,-1,-1,-2,0,-1,-2
1513174112824117,0,1,-1,-2,-2,-2,-1,-2
1513174112824117,-1,-1,0,6,-2,0,0,-3
1513174112845122,-1,-2,-1,-2,-2,-2,0,-1
1513174112845122,0,2,-2,-1,-2,0,-1,-2
1513174112846623,1,0,-3,-2,-3,-1,-2,-2
1513174112846623,-1,0,0,-3,-1,1,-1,-2
1513174112859632,-1,-1,0,1,1,-2,-1,-1
1513174112859632,-1,-2,0,-3,-1,0,-3,0
1513174112866136,-1,-2,1,0,2,-1,-1,0
1513174112866136,-1,-1,0,-2,-1,-1,-1,0
1513174112882670,-1,-1,-3,-2,-1,1,-1,0
1513174112882670,-1,-2,-1,0,-1,-1,-1,-2
1513174112884161,-2,-3,0,1,-1,0,-3,-1
1513174112884161,2,-1,-4,-2,-2,-3,-2,0
1513174112912682,-4,-2,-1,0,0,0,-2,-1
1513174112912682,-1,-1,0,-3,-1,0,-1,-1
1513174112914172,1,3,0,-3,-2,-2,-1,0
1513174112914172,-2,1,-1,-2,-1,0,-1,0
1513174112918674,-3,-2,0,1,0,-1,0,-3
1513174112918674,-2,1,-3,-7,-2,-1,0,-2
1513174112927679,0,0,-1,2,-1,-2,0,-2
1513174112927679,-3,-3,-1,-2,-2,-3,-3,-1
1513174112942703,1,2,-4,-4,-2,-2,-1,1
1513174112942703,-1,-2,-1,-1,-1,-3,-1,-3
1513174112944204,-1,-2,-2,-4,-2,0,-1,-1
1513174112944204,0,-1,1,-1,-1,-2,-1,0
1513174112965218,0,-1,-1,0,0,1,-2,0
1513174112965218,1,-1,-2,-2,-1,0,-2,0
1513174112966707,-1,0,-1,-1,0,-1,-2,-1
1513174112966707,-2,-3,0,0,0,-1,0,-1
1513174112978719,-1,-2,-2,-2,0,-2,-2,0
1513174112978719,-2,1,-1,0,0,-2,-1,-2
1513174112987722,-1,-1,-3,0,-2,0,-2,-2
1513174112987722,-1,-2,1,0,0,-1,-1,-2
1513174113002739,-1,-1,-1,-1,-1,0,0,0
1513174113002739,-2,-1,-2,0,-1,-2,-1,0
1513174113004234,-3,0,1,-2,-1,-2,-2,-1
1513174113004234,-2,-2,-2,-2,-2,0,0,-1
1513174113024749,0,0,-2,4,0,0,-1,-1
1513174113024749,-1,-3,0,0,1,0,-1,0
1513174113026751,-1,-2,0,-2,-1,-2,-1,-2
1513174113026751,1,-1,-3,-3,-2,0,-1,1
1513174113038758,0,-2,-1,-3,-1,-2,-1,0
1513174113038758,0,0,-2,-1,0,-2,0,-2
1513174113047765,0,0,1,-2,-1,0,0,-1
1513174113047765,-2,-2,0,0,-1,-1,-1,0
1513174113062275,-1,-1,0,-1,0,0,-1,-2
1513174113062275,-1,-1,1,0,0,-1,-1,-2
1513174113064276,-1,-1,-1,0,-1,-1,0,0
1513174113064276,0,-1,-1,1,1,-1,0,0
1513174113084794,0,0,-3,-1,-1,0,0,0
1513174113084794,-4,-1,0,-1,0,-2,-1,-2
1513174113086795,-1,0,-2,-1,-1,0,-1,-2
1513174113086795,1,-1,-3,1,0,1,0,0
1513174113098803,0,0,-2,-2,-2,-3,-1,-1
1513174113098803,-4,-4,0,-1,1,0,0,-2
1513174113107807,0,-3,-1,0,-2,-1,-1,-1
1513174113107807,-1,-1,-2,5,2,0,0,0
1513174113129832,1,-2,-1,-3,-2,-1,-2,-1
1513174113129832,-1,1,-1,0,-1,0,-2,0
1513174113131824,-1,0,-1,-2,-2,-2,1,-1
1513174113131824,1,-2,-1,-3,-2,0,0,1
1513174113144833,1,-3,-2,-1,-2,-1,-1,-2
1513174113144833,1,-1,-1,0,-2,-2,-2,-3
1513174113146834,-1,-1,-2,-1,-1,1,-2,0
1513174113146834,1,0,-2,-2,-1,-1,-2,-2
1513174113158845,0,0,-4,-2,-1,-3,-2,-2
1513174113158845,-2,-1,-1,-2,-2,0,0,-3
1513174113167875,-2,-1,-2,1,-1,-2,-2,0
1513174113167875,0,-1,-2,-1,-2,-1,-1,0
1513174113182387,-1,-1,-1,-2,-1,-1,-2,-1
1513174113182387,-2,-1,-1,-3,-3,-1,-1,-1
1513174113184361,-1,2,-3,-2,-1,-2,-1,-2
1513174113184361,-2,-1,0,-2,-2,-1,0,-2
1513174113204879,0,0,-2,-1,-3,-1,0,0
1513174113204879,-1,1,-2,-1,-3,0,-1,0
1513174113206877,-1,-1,0,-3,-1,1,-3,-1
1513174113206877,0,0,-2,4,3,-1,-1,0
1513174113218890,-1,-1,-1,0,-1,-1,0,-2
1513174113218890,-1,0,-1,0,0,-1,-1,-1
1513174113233897,-1,-1,1,-2,-1,-2,0,-2
1513174113233897,-2,-6,-1,-3,-2,-1,-1,-1
1513174113257424,-2,-1,1,-2,0,-1,0,-1
1513174113257424,-1,0,0,-2,-1,-1,-1,-1
1513174113258914,-4,-4,-1,0,-1,-1,-1,-1
1513174113258914,-3,-3,-1,0,0,0,-3,-1
1513174113264935,-2,-2,0,0,0,-1,0,-1
1513174113264935,0,-1,-1,-2,-1,0,-1,-1
1513174113266436,0,-2,0,-1,-1,-1,-1,-1
1513174113266436,-1,0,-2,-3,-2,0,0,0
1513174113278427,-4,-2,-1,0,-2,0,-2,0
1513174113278427,-1,-1,0,1,0,-1,-1,-1
1513174113304446,1,-1,1,-1,-1,0,-1,-2
1513174113304446,-1,-3,-1,-3,-2,-2,-1,-2
1513174113305447,-1,-2,-2,-2,0,0,-2,-2
1513174113305447,1,0,-2,-2,-1,-2,1,-2
1513174113308449,-1,1,-1,0,-1,-1,1,-2
1513174113308449,0,1,-1,-2,-1,-3,0,-1
1513174113324961,-1,-3,-1,-2,0,-1,0,-1
1513174113324961,-3,0,0,2,-1,-1,-1,1
1513174113326462,-2,-1,1,-2,-1,0,-2,-2
1513174113326462,0,3,-2,-2,-2,0,-2,0
1513174113347976,-1,0,-1,-1,-1,-2,-1,-2
1513174113347976,0,-2,0,-4,-1,-1,0,-1
1513174113349478,-3,-2,0,0,0,-1,0,-1
1513174113349478,0,-2,-1,-1,-1,-1,0,1
1513174113362487,-1,0,-1,-1,0,-3,0,0
1513174113362487,-1,-1,0,-3,-1,-3,-1,-1
1513174113363988,0,2,-3,-1,-2,-2,-1,-2
1513174113363988,1,0,-1,0,-3,-1,-3,-1
1513174113385003,1,-2,-2,-1,-2,-1,-1,0
1513174113385003,-5,-2,2,1,-1,0,-2,1
1513174113386504,-3,-1,0,-1,0,-1,-1,-2
1513174113386504,-2,-2,-2,-2,0,-2,-1,-2
1513174113407519,-1,-2,-1,1,-2,-1,-2,-1
1513174113407519,-2,-2,-2,-2,-2,-2,-1,-2
1513174113409020,-1,-1,-1,-2,-2,-1,-2,0
1513174113409020,-1,-2,-2,-1,0,-2,-1,1
1513174113422529,-4,-2,-2,-1,1,0,1,-3
1513174113422529,-1,-1,-2,-1,-1,-2,-1,-1
1513174113424031,0,-1,-1,-1,-2,-2,-1,1
1513174113424031,-2,-1,-2,-1,-1,-2,-1,-2
1513174113445045,1,2,-1,-1,-1,-1,-1,-1
1513174113445045,0,-1,-2,-7,-2,0,-1,-2
1513174113446546,-4,-4,0,3,2,0,2,0
1513174113446546,0,-1,-2,-1,0,-1,-2,-2
1513174113466563,-3,-1,-1,-2,-2,-2,-3,-1
1513174113466563,-2,-1,-2,0,-1,-1,-2,-2
1513174113492079,1,0,-2,-3,-2,-2,-2,-1
1513174113492079,0,-1,-1,-2,-1,0,-1,-1
1513174113494081,-1,0,-1,-1,-1,-2,-2,0
1513174113494081,1,-3,2,-1,-2,-1,1,-1
1513174113496082,0,-3,-2,-1,1,0,-1,-2
1513174113496082,0,-2,0,-1,-1,0,0,-2
1513174113505105,-1,-2,-2,0,-2,0,-1,-1
1513174113505105,-1,0,-1,-1,-3,-2,-3,-1
1513174113506606,1,-1,-1,-1,-1,-1,-2,-1
1513174113506606,-2,0,-1,-1,-1,0,-2,-1
1513174113527633,3,0,-3,-3,0,1,0,-2
1513174113527633,-1,0,-2,-1,-1,-2,1,0
1513174113529114,-3,0,-2,0,-1,-1,-3,-1
1513174113529114,0,0,-3,-2,-3,-1,-1,0
1513174113541613,-2,-3,-2,-1,-1,1,-1,-1
1513174113541613,-3,1,-2,0,-2,-2,-2,0
1513174113548619,0,-1,0,-4,-1,-2,0,-2
1513174113548619,-1,-2,-1,6,0,-4,-2,0
1513174113565142,-1,1,0,-1,-1,1,-1,0
1513174113565142,-1,-1,-1,1,-2,0,-2,-1
1513174113588146,-2,0,-1,-1,0,1,-1,-1
1513174113588146,3,-1,-3,-4,-3,-2,1,-1
1513174113589147,-6,-3,0,1,0,-1,-1,-2
1513174113589147,-1,-1,-1,-2,-1,-1,-1,-3
1513174113590648,-1,-1,-2,-1,-2,-1,-1,-1
1513174113590648,-1,-4,-2,-1,1,0,-1,-1
1513174113601656,-4,-5,2,-1,-2,1,0,-2
1513174113601656,-3,-2,-1,-3,0,-3,-1,-3
1513174113608663,0,-1,-1,0,-2,0,-1,1
1513174113608663,0,0,-1,-2,-1,-2,0,-2
1513174113625173,1,1,-2,-1,-1,-2,-2,-1
1513174113625173,-1,-3,-1,0,-1,-3,-2,-1
1513174113626673,0,-2,-1,-2,-2,-1,-1,0
1513174113626673,-2,-1,-1,-1,-2,1,-1,1
1513174113647689,0,1,-3,-2,-1,-1,0,-1
1513174113647689,-1,1,-2,0,1,-1,-1,-2
1513174113649190,1,0,-2,-3,-2,-3,-2,-2
1513174113649190,-2,-3,-2,1,-1,0,-2,0
1513174113661718,-1,-2,0,3,-1,-2,-2,0
1513174113661718,-3,-3,-3,-1,-2,0,-1,-2
1513174113670705,-2,-2,-2,-1,-1,0,-1,-2
1513174113670705,-3,-2,1,-3,-2,-1,-1,0
1513174113685215,-1,0,-1,-2,-1,-2,-2,-2
1513174113685215,-1,1,-2,-1,-1,2,-1,-2
1513174113686716,-3,-4,1,0,1,-2,-1,-3
1513174113686716,-1,-1,-2,-2,-1,1,-1,0
1513174113715246,1,-2,0,-1,-2,-2,-1,-3
1513174113715246,-2,0,0,0,-1,0,-2,-1
1513174113716753,-1,-1,-1,1,-2,-1,-1,-1
1513174113716753,0,-2,-2,-3,-1,-2,-2,0
1513174113721752,0,-2,-1,-1,-2,0,-1,-1
1513174113721752,-1,0,-2,-2,-2,-2,-2,-1
1513174113728746,-1,-1,-1,0,0,-1,0,-2
1513174113728746,1,1,-2,-1,0,-2,0,-1
1513174113744757,0,0,-2,-2,0,-1,-1,0
1513174113744757,1,1,-1,-2,-1,-2,-1,0
1513174113746759,-1,-1,0,0,1,1,-1,-1
1513174113746759,-1,-2,-1,1,-3,-2,-1,-1
1513174113767293,-3,0,-2,-2,-1,-2,-1,-3
1513174113767293,1,0,-1,-2,-1,-2,1,-2
1513174113775280,-1,0,-4,-4,-1,-1,-1,0
1513174113775280,0,-1,-1,0,0,1,0,-3
1513174113781803,0,-2,-2,-6,-4,-2,-1,0
1513174113781803,-1,-2,2,5,1,-1,-1,-3
1513174113788788,-2,-2,-1,0,-2,0,0,1
1513174113788788,-2,-1,0,0,0,-2,-3,0
1513174113804812,-2,0,-1,0,1,-1,-2,0
1513174113804812,-1,-1,0,-4,-1,-1,1,1
1513174113806801,0,0,-2,-3,-3,-2,-2,1
1513174113806801,0,-1,0,0,0,0,0,0
1513174113827318,0,-2,-3,-1,-1,-1,-1,-3
1513174113827318,-1,-1,-1,-2,-3,-1,-3,-1
1513174113829317,0,-3,0,0,0,-2,0,-2
1513174113829317,0,-2,-2,-4,-2,-2,0,0
1513174113841325,0,1,-1,0,0,-2,-1,-1
1513174113841325,-2,-2,-3,0,-2,-1,-2,-2
1513174113850345,1,1,-2,1,-3,-2,-2,-1
1513174113850345,0,0,-1,-1,-1,0,-2,-2
1513174113864842,0,-1,-1,-2,-2,-2,0,-1
1513174113864842,-2,-2,0,-4,-1,2,-2,-1
1513174113866843,2,1,0,0,-1,-1,-1,0
1513174113866843,1,0,-2,0,-2,-1,-1,0
1513174113887358,-3,1,-1,-3,-1,-2,0,-2
1513174113887358,-1,1,1,2,-1,0,-2,-1
1513174113889359,0,-3,-1,2,0,-1,-1,-1
1513174113889359,-3,-3,1,0,2,0,1,-1
1513174113900895,-1,-2,-1,-1,-3,-1,-2,-1
1513174113900895,-3,-2,-1,-4,-3,-2,0,-2
1513174113909886,-2,-3,0,-2,0,0,-1,-1
1513174113909886,-1,-1,-2,0,-1,-1,0,-1
1513174113924901,0,-1,-2,-2,-1,-1,0,-1
1513174113924901,-2,1,-1,-1,-1,-1,0,0
1513174113926386,0,-2,-1,-2,-1,-4,-2,0
1513174113926386,0,-1,-2,-1,-4,-1,-3,1
1513174113947901,-2,-1,1,-1,-1,0,-2,-1
1513174113947901,-1,-2,-1,-1,-1,-1,-1,-2
1513174113948902,-2,-1,-1,-2,-2,1,-1,0
1513174113948902,-3,-1,-1,-1,0,-2,-1,0
1513174113961411,-1,-1,-1,-2,-1,-1,-1,-1
1513174113961411,-2,0,1,-1,-4,-2,-2,-1
1513174113969917,0,0,0,-1,-2,-1,0,-1
1513174113969917,0,-2,-4,-2,-1,0,-1,0
1513174113984927,-1,-1,-2,0,-1,-1,-1,-1
1513174113984927,-1,-1,0,-1,0,-1,0,-1
1513174113986428,-2,0,-1,-2,-1,0,-3,-3
1513174113986428,0,0,-3,1,0,-1,0,-1
1513174114007457,-2,-1,1,1,-2,-2,1,-2
1513174114007457,-1,-1,-2,-2,-2,0,-2,-1
1513174114008945,-2,-3,-2,0,-1,-2,1,1
1513174114008945,-4,-4,-1,-1,0,-1,-1,-1
1513174114021464,-3,-4,1,-3,-1,-1,1,0
1513174114021464,1,1,1,3,0,-2,0,-1
1513174114029969,0,-1,-1,-2,-1,0,0,-1
1513174114029969,-5,-2,1,0,-2,1,0,0
1513174114044970,0,-1,-3,-2,-3,-3,-1,-1
1513174114044970,0,-2,-1,-3,-2,-2,-2,-1
1513174114046471,-3,-1,0,-1,0,-3,0,0
1513174114046471,1,1,-2,-2,-2,-1,-2,-2
1513174114067511,-2,1,-1,-2,-1,-1,-1,-2
1513174114067511,-3,-2,-2,-1,0,-1,1,-1
1513174114068991,-2,-2,-2,0,-1,0,-1,-3
1513174114068991,-1,-1,-2,-2,-1,-1,-1,-1
1513174114081523,-3,-4,3,2,0,2,-1,1
1513174114081523,-3,1,-2,-3,-1,-2,-2,0
1513174114090006,0,0,-1,-3,-1,-1,-1,-1
1513174114090006,-2,0,-1,-1,-1,-1,0,-2
1513174114105037,-1,0,-2,-1,0,1,-1,-1
1513174114105037,0,-1,-1,-1,-2,1,1,0
1513174114106515,0,-2,1,-1,0,-1,-1,0
1513174114106515,1,1,-2,-3,-1,-2,-3,-2
1513174114127505,-1,0,-1,2,-1,-1,0,-2
1513174114127505,1,-1,0,-5,-3,-2,-2,0
1513174114129023,-4,-5,-1,0,-1,0,0,-2
1513174114129023,1,-1,0,-1,-1,-1,0,-1
1513174114141014,-2,1,-1,-2,0,-2,-3,0
1513174114141014,-3,-2,-1,-5,-3,-1,0,-2
1513174114157543,-1,-1,-2,4,0,0,0,0
1513174114157543,1,-1,-1,-2,0,-2,-2,-1
1513174114165042,-1,-1,-1,0,-2,0,-1,-3
1513174114165042,-2,-1,0,-2,0,-1,-1,-2
1513174114166544,1,-1,-1,-3,-3,-2,-2,0
1513174114166544,-1,-2,-2,-1,-2,0,1,-1
1513174114187556,0,0,-2,-1,-1,-2,0,0
1513174114187556,-1,-2,0,0,-1,-2,0,-2
1513174114189047,1,0,-1,-1,0,0,0,-1
1513174114189047,-1,-2,1,0,-1,0,-1,-2
1513174114210062,-1,0,-2,-3,-2,1,-1,0
1513174114210062,-1,0,-1,0,-1,-2,-2,-1
1513174114211586,2,2,-4,-1,0,-1,-2,-1
1513174114211586,-1,0,-2,-1,-1,-1,-3,0
1513174114225073,-1,-1,-2,-1,-3,-2,0,-2
1513174114225073,-3,0,0,1,1,-1,-2,-1
1513174114226574,-1,0,-2,-3,-2,-2,-2,0
1513174114226574,0,-3,-3,-2,0,-2,1,0
1513174114247611,-1,-1,-1,0,-1,0,-1,-1
1513174114247611,-2,1,-2,0,0,0,-2,-1
1513174114249117,-2,-1,0,-1,-2,-1,-1,0
1513174114249117,-2,-3,0,0,1,0,-2,-1
1513174114261109,-2,-1,0,-3,-1,-3,-1,-2
1513174114261109,-1,-1,-1,0,-2,1,0,0
1513174114270105,-1,-2,-1,3,1,-1,-1,0
1513174114270105,-2,-1,-1,-2,-2,-1,0,0
1513174114284118,-3,-1,-1,-1,0,-1,-1,-1
1513174114284118,-1,-1,-2,-3,-1,-1,0,-2
1513174114291120,-1,-1,-2,-4,-3,-1,-1,0
1513174114291120,-3,-3,-1,1,-3,-2,0,-1
1513174114307143,0,-1,-2,-3,-2,-2,0,-3
1513174114307143,0,1,-1,-1,-1,-1,0,-1
1513174114309133,-2,-3,3,0,-1,0,0,-2
1513174114309133,2,0,-3,1,0,-2,0,-1
1513174114330148,-5,-2,1,-1,0,0,-1,0
1513174114330148,-1,-3,0,1,-1,1,-1,0
1513174114331663,0,0,-2,-1,-3,-2,0,-1
1513174114331663,-1,2,-2,-2,-2,-1,-2,-1
1513174114345181,-1,-1,-2,0,-1,-1,-2,0
1513174114345181,0,-1,-1,-2,-1,-1,-1,-1
1513174114346672,-2,-3,0,-1,-1,-2,0,-2
1513174114346672,-1,-2,-3,-1,-2,0,0,0
1513174114367674,0,-1,-2,0,-1,-1,-2,-1
1513174114367674,-1,-3,0,0,1,-1,-1,-1
1513174114369178,-2,0,-2,-6,-2,-1,-1,-1
1513174114369178,-1,-1,0,3,0,0,-2,0
1513174114390191,-3,-3,1,0,-1,0,-2,0
1513174114390191,0,-2,0,-2,-2,0,-1,-2
1513174114391691,-1,-1,-1,0,0,-1,-1,-2
1513174114391691,1,0,-1,-4,-1,-1,0,0
1513174114405201,0,0,-3,-3,-1,-2,0,-2
1513174114405201,-2,0,-1,0,-1,0,-1,-4
1513174114406702,0,-2,-3,0,-2,-2,-1,-1
1513174114406702,-3,-1,-2,-2,0,0,0,0
1513174114427221,2,0,-1,0,-2,0,-2,-1
1513174114427221,-2,-1,-1,-1,0,-2,0,-2
1513174114429220,-1,1,-2,-2,0,-1,-2,1
1513174114429220,0,-1,-6,-2,-2,-2,-2,-1
1513174114450232,-2,0,-1,-1,-2,-1,-3,-2
1513174114450232,-5,-4,2,0,0,0,-1,0
1513174114451752,-2,-2,1,0,-3,1,0,-1
1513174114451752,-1,-2,0,-1,0,-1,-1,-1
1513174114464260,0,-2,0,-2,-2,-3,-1,0
1513174114464260,-1,0,-1,-1,-3,-4,-1,-2
1513174114471251,-3,-3,0,0,1,-1,-1,-1
1513174114471251,0,-1,0,-2,-2,-1,1,-1
1513174114487773,2,1,0,5,1,0,-1,0
1513174114487773,1,0,-2,-2,-2,-1,-1,1
1513174114489260,0,-1,-1,-1,1,-2,-1,0
1513174114489260,-1,-1,-1,-3,-2,-1,-3,0
1513174114509847,-2,-2,-1,-4,-2,-1,0,-1
1513174114509847,0,-1,-1,0,-1,0,-1,0
1513174114511840,0,-1,-2,-2,-1,0,0,-1
1513174114511840,-1,-4,-1,2,-1,-3,-1,-2
1513174114524349,-2,0,0,-1,-1,-1,-1,-2
1513174114524349,0,-1,-1,-1,-2,-2,-1,-1
1513174114531352,1,0,-3,-1,-1,0,-2,0
1513174114531352,-1,0,-1,1,0,0,0,0
1513174114554879,0,-2,-2,-3,-3,-3,-1,-1
1513174114554879,-1,-2,-2,-2,-1,0,-1,-1
1513174114556370,0,-2,0,-1,-1,0,0,-1
1513174114556370,1,-1,-2,-1,0,-1,-1,0
1513174114569889,-1,2,-1,-2,-1,-2,-1,-1
1513174114569889,-2,-1,-1,1,-1,-1,-1,-3
1513174114571383,1,0,-1,-1,-2,-3,-1,1
1513174114571383,-2,-1,-1,-4,-2,-1,0,-1
1513174114584413,-1,-1,-1,-1,0,0,0,-4
1513174114584413,-2,-1,0,2,1,-2,-3,-2
1513174114591395,-1,0,-3,-3,-1,-1,0,-1
1513174114591395,-2,-3,0,2,0,0,0,-1
1513174114607908,-3,-2,-1,-3,-1,0,-2,-1
1513174114607908,0,1,-1,-3,0,0,-2,-2
1513174114609411,-2,-3,-1,0,-1,1,1,-1
1513174114609411,-1,-1,-1,-2,-2,-1,-2,0
1513174114629925,-1,-2,-2,-1,0,-1,-1,-1
1513174114629925,0,1,-2,-2,-1,-1,0,-1
1513174114631424,0,0,-1,0,1,-2,0,0
1513174114631424,-1,1,-1,-1,-1,-1,-2,-1
1513174114644432,-2,-2,1,-3,-2,-1,-1,-1
1513174114644432,-1,-2,-1,1,0,-1,0,-1
1513174114650949,-4,-6,1,-1,-2,1,-2,0
1513174114650949,-1,-2,-1,-1,-1,1,0,0
1513174114667451,-2,0,-1,0,-1,-1,0,-1
1513174114667451,-3,-2,-4,-3,-2,-2,-2,-1
1513174114668954,-2,-3,-2,-1,1,-1,-1,1
1513174114668954,-1,-1,-2,1,0,-2,-1,-2
1513174114689976,-1,-1,-1,-2,-2,-1,0,-1
1513174114689976,-1,0,0,-5,0,-1,0,0
1513174114691467,-1,0,-3,1,-2,-1,-1,-1
1513174114691467,-1,-1,-1,-1,-2,-1,-1,-3
1513174114704476,-2,-2,-1,0,-1,-1,-2,-1
1513174114704476,0,-2,-1,-5,-1,-3,0,-2
1513174114710989,-2,-1,0,5,1,-1,0,-1
1513174114710989,0,-2,-2,-1,0,-2,-1,1
1513174114727500,-2,1,-2,1,0,-1,-1,-2
1513174114727500,-2,-2,-1,-1,-1,-1,-2,-1
1513174114728992,0,1,0,-4,-3,0,0,0
1513174114728992,1,0,-3,-3,-1,0,-1,-1
1513174114750029,0,0,0,0,1,-2,-1,-1
1513174114750029,-1,0,-1,-2,-3,-1,-1,0
1513174114751517,0,-3,-3,-1,-2,-3,-1,0
1513174114751517,-1,1,-4,0,1,0,-1,-1
1513174114764519,-2,-2,-1,-3,-4,-2,-1,-2
1513174114764519,0,0,-2,-2,-1,0,0,-1
1513174114771022,1,-1,-3,3,0,-2,-2,0
1513174114771022,1,-2,0,0,1,0,1,1
1513174114787536,-3,-1,-3,-2,-4,-5,-3,-3
1513174114787536,0,-2,-1,-1,1,-1,-1,-2
1513174114789035,2,0,-3,-2,-3,-1,1,-1
1513174114789035,2,1,-1,-2,0,-1,0,1
1513174114810051,0,-1,0,-1,1,1,0,-2
1513174114810051,-4,-2,-1,-1,-2,-2,-2,-3
1513174114811551,1,1,-4,-4,-2,-2,-3,-3
1513174114811551,-5,-1,-2,-1,-2,-2,-1,0
1513174114823559,-5,-2,-1,-4,-2,-1,0,-1
1513174114823559,-1,1,0,6,0,0,0,1
1513174114832565,-1,-1,-1,-1,-1,-1,-1,1
1513174114832565,-1,-2,-2,-2,-3,-3,-1,-1
1513174114847076,0,-2,1,0,1,1,1,0
1513174114847076,0,1,0,-2,-1,1,-2,0
1513174114855082,-1,-2,-1,-1,-1,1,-1,0
1513174114855082,-2,-2,-1,-2,-1,-2,-3,-3
1513174114870103,0,0,-2,-2,-1,-1,-1,-2
1513174114870103,1,2,0,0,-1,2,2,2
1513174114871605,-1,-1,-2,-1,0,-1,-2,0
1513174114871605,-3,-3,-2,-2,-1,-2,-2,-2
1513174114883606,-1,0,-1,-1,-1,-1,0,-1
1513174114883606,0,-3,-1,-5,-2,-1,-2,-1
1513174114892611,-2,-6,1,3,2,0,0,2
1513174114892611,0,0,1,1,0,-2,-1,-1
1513174114907620,-5,0,-1,0,-1,-2,-1,-3
1513174114907620,-4,-4,-1,-2,-2,-2,-3,-3
1513174114909130,-1,-2,-2,-3,-2,-1,0,-2
1513174114909130,0,1,-3,-4,-1,-1,0,-1
1513174114930160,-1,0,1,0,-1,-1,-1,-1
1513174114930160,-2,0,-2,0,-1,-3,0,1
1513174114931635,-1,1,-1,-2,-1,-1,-2,-2
1513174114931635,-2,-3,1,0,-2,-1,0,0
1513174114943643,0,2,-1,4,-1,-3,-1,0
1513174114943643,-2,-2,-1,-1,-2,-2,-1,0
1513174114952665,-2,-2,-1,0,0,0,-3,1
1513174114952665,0,-2,-3,0,0,0,0,0
1513174114967163,2,-1,-1,-3,-1,1,-1,0
1513174114967163,2,-1,0,1,-1,-3,0,0
1513174114969161,-2,3,-2,-1,0,-2,0,0
1513174114969161,-5,-8,0,-2,-3,-1,-2,-3
1513174114990177,2,-1,-2,-1,-1,-2,-1,-4
1513174114990177,-1,1,-1,-1,2,-1,-2,-1
1513174114991678,-1,-2,-3,-7,-2,0,-3,0
1513174114991678,-1,2,-1,5,0,-2,0,-2
1513174115012192,-3,-2,-1,-1,-1,0,1,1
1513174115012192,4,2,1,-1,-2,0,0,-3
1513174115014193,3,2,-1,-1,2,-1,1,-1
1513174115014193,0,-5,-3,1,1,-1,-1,1
1513174115027205,2,-5,0,-1,-2,1,-1,3
1513174115027205,-13,-1,-3,-4,-4,-2,0,-4
1513174115029207,3,4,-3,-8,-4,-2,-2,0
1513174115029207,-1,-3,-4,11,5,0,0,-2
1513174115050219,9,4,1,-1,1,-2,1,0
1513174115050219,-6,-10,-2,0,0,0,0,1
1513174115051721,-2,-4,-1,-1,-2,0,-1,-2
1513174115051721,2,0,-1,-8,-3,-3,0,1
1513174115063728,5,3,-2,-4,-3,-1,-3,-2
1513174115063728,-8,-1,-1,1,1,0,-2,-2
1513174115072768,-7,-3,-4,0,0,-3,-2,-3
1513174115072768,3,2,-1,-3,-2,-1,-2,-3
1513174115087782,14,5,6,4,4,-1,3,3
1513174115087782,-2,0,-1,-4,0,0,0,2
1513174115089279,-16,-15,-8,-2,-4,-4,-6,-11
1513174115089279,2,4,-4,-12,-5,-1,-1,1
1513174115109812,-5,6,2,8,1,1,-2,-2
1513174115109812,-2,-7,-4,-3,2,1,0,-2
1513174115111813,0,4,2,1,0,-1,2,4
1513174115111813,-3,-1,3,1,-1,0,-1,-2
1513174115123805,-10,2,-2,-8,-5,-4,-3,-6
1513174115123805,13,-2,2,1,2,1,-1,0
1513174115132822,-9,-4,-2,1,0,1,0,2
1513174115132822,-9,-11,-6,-7,-5,-4,-1,-2
1513174115147376,-1,4,1,-7,-3,-1,2,5
1513174115147376,2,-5,-9,8,-3,-4,-5,-8
1513174115148866,23,18,12,9,6,3,5,6
1513174115148866,-29,-27,-7,-5,-4,-2,-5,-8
1513174115169883,-17,-1,-3,-4,-2,-1,2,-1
1513174115169883,0,-10,-3,-7,-6,-3,10,7
1513174115171382,7,-12,-13,3,1,1,-3,-6
1513174115171382,3,10,6,7,2,-3,-11,-7
1513174115183393,-1,-8,-5,-12,-3,-1,3,-14
1513174115183393,-5,2,-4,-10,-5,-1,-12,-4
1513174115193409,-10,-13,-1,-6,-3,-3,-11,1
1513174115193409,16,12,14,14,2,2,6,1
1513174115207416,-22,-13,-12,-2,-1,0,10,3
1513174115207416,10,7,6,-8,0,-3,-10,9
1513174115208918,-10,-19,-14,-5,-3,-4,-6,-10
1513174115208918,5,6,-10,-12,-1,0,-6,-9
1513174115229926,7,2,-5,-1,-1,-1,14,11
1513174115229926,0,13,10,8,1,-1,-19,-3
1513174115231428,13,4,4,4,1,2,14,25
1513174115231428,-18,-20,-9,0,-2,-3,-5,-10
1513174115252495,16,15,3,2,1,0,-13,-9
1513174115252495,2,-1,3,1,-1,1,24,17
1513174115253950,-18,3,-3,-2,-4,-2,-10,-23
1513174115253950,9,14,9,-3,2,1,9,3
1513174115267473,-3,-8,-10,-14,1,-1,-9,9
1513174115267473,0,-1,-4,-2,-1,-2,5,1
1513174115268950,6,15,13,13,-1,1,-11,-31
1513174115268950,-2,-3,-17,-5,-3,0,21,6
1513174115297473,9,3,1,4,5,2,-7,10
1513174115297473,-5,9,13,2,3,0,-16,-21
1513174115298977,-17,-15,-7,-3,1,3,16,8
1513174115298977,21,10,2,12,-1,-2,-8,11
1513174115319988,-12,-15,-9,-12,-1,1,10,-2
1513174115319988,-17,-9,14,-2,-2,-4,-8,-2
1513174115321491,15,3,4,1,1,4,38,5
1513174115321491,15,8,1,-4,1,-2,-48,3
1513174115327534,-3,-9,-13,6,-2,-6,-19,-16
1513174115327534,-2,0,-3,4,1,3,-4,-20
1513174115329016,-2,-6,-18,-8,-2,-3,4,21
1513174115329016,-13,5,44,3,-3,-2,19,-13
1513174115350008,26,-11,-17,-11,-6,-1,-11,22
1513174115350008,-8,-8,-13,-4,-1,-1,18,8
1513174115351510,10,25,20,0,1,0,7,10
1513174115351510,-15,-15,-37,-10,-3,-4,-37,-22
1513174115372535,-8,9,26,15,1,0,0,-23
1513174115372535,20,12,2,14,3,6,11,13
1513174115374034,-26,-31,-23,-21,-4,-5,0,-2
1513174115374034,0,7,19,1,1,0,6,6
1513174115386536,-10,12,22,-7,-4,-5,-5,-15
1513174115386536,-4,-17,-41,-7,-4,0,2,-4
1513174115393538,17,9,-1,1,0,-3,-11,17
1513174115393538,6,1,-7,-4,0,3,20,13
1513174115410053,-6,-12,-8,-6,-6,-3,-6,-15
1513174115410053,-1,-1,10,2,0,-4,-7,-22
1513174115423560,8,-1,-39,-5,-1,-1,17,18
1513174115423560,-14,-7,4,-2,-1,-1,-6,-15
1513174115432566,13,10,5,4,-2,-1,0,17
1513174115432566,-17,-23,20,-5,-4,-4,0,-3
1513174115434070,4,0,8,8,5,2,-8,-27
1513174115434070,1,11,13,-1,-3,1,15,17
1513174115446576,10,3,-10,0,1,-2,-17,-4
1513174115446576,3,10,-17,-14,-3,0,5,5
1513174115453581,-4,-5,21,22,5,-1,-17,-4
1513174115453581,1,6,7,-4,-1,-3,1,0
1513174115470096,-9,-25,-50,-13,-4,0,11,4
1513174115470096,-5,-6,12,1,-1,-3,-1,13
1513174115471594,7,1,13,-2,2,3,-3,-1
1513174115471594,1,14,-3,5,2,-1,-5,-14
1513174115493109,-6,11,16,11,0,-2,-17,-9
1513174115493109,6,-25,-14,8,4,2,3,16
1513174115495110,-14,5,9,-17,-9,-6,-13,-21
1513174115495110,-10,-33,-13,-2,0,0,1,13
1513174115506618,-6,2,8,0,0,-1,2,3
1513174115506618,17,18,6,6,-3,-2,-11,-19
1513174115513626,1,11,10,2,3,0,7,8
1513174115513626,-17,-34,-16,-12,-8,-4,1,-8
1513174115530138,11,16,-24,-5,-4,-2,2,-5
1513174115530138,-24,-26,10,7,1,-3,-6,-12
1513174115531651,-6,-18,-18,-19,-6,-3,6,-3
1513174115531651,17,12,11,22,4,3,-4,21
1513174115552665,-10,8,14,-3,1,-1,15,-2
1513174115552665,0,16,7,5,3,1,-8,6
1513174115554170,13,2,-1,12,2,1,-26,-14
1513174115554170,3,10,-21,0,0,-1,-2,3
1513174115566675,0,-2,0,-9,-2,1,11,10
1513174115566675,-11,19,10,13,8,1,6,-11
1513174115573675,5,-23,-49,-29,-8,-2,-16,-2
1513174115573675,-29,-23,9,-2,-3,-1,6,-4
1513174115589679,14,-11,-22,7,0,0,-8,11
1513174115589679,-14,2,30,8,0,-6,-6,-5
1513174115591681,-1,15,-6,-5,-2,2,2,6
1513174115591681,-1,11,35,8,1,-1,2,-39
1513174115612211,-4,-20,-11,-9,-3,1,19,31
1513174115612211,11,12,9,-5,-3,-2,-4,14
1513174115614197,-14,-18,-19,-5,-7,-9,-21,-5
1513174115614197,7,3,-21,-19,-14,-8,6,-2
1513174115626719,-24,27,69,18,4,0,-17,0
1513174115626719,17,-29,-6,-25,-7,1,5,-11
1513174115633711,29,34,26,15,10,7,25,30
1513174115633711,-11,-33,-51,-20,-8,-4,-2,2
1513174115650239,1,-3,45,37,19,5,2,-6
1513174115650239,-7,1,-70,-17,-3,1,-2,-6
1513174115651739,35,44,20,12,0,3,17,16
1513174115651739,7,-6,45,-1,-3,-3,-1,-16
1513174115672236,-23,-25,8,-4,-2,-7,-50,-31
1513174115672236,-4,-32,20,2,6,7,13,24
1513174115674237,-14,18,-115,-29,-19,-11,-14,-21
1513174115674237,17,56,66,25,10,7,2,-4
1513174115686781,-18,-41,-5,-7,-1,-2,14,-4
1513174115686781,-4,25,-9,-8,-5,-3,11,9
1513174115694252,27,-14,29,37,7,0,-9,-5
1513174115694252,-53,16,2,-14,-4,-3,-4,-2
1513174115710262,-12,-43,-70,-29,-11,-1,14,0
1513174115710262,16,9,-18,7,1,-3,-11,-36
1513174115711764,-3,-4,74,15,6,7,14,28
1513174115711764,34,13,-27,-15,-2,-6,-50,-2
1513174115732290,-18,20,24,19,-3,-2,36,-24
1513174115732290,14,-12,-25,-11,2,6,-13,9
1513174115734292,-31,10,27,19,-2,-8,-20,-34
1513174115734292,-3,-38,-19,-1,4,2,4,-7
1513174115746289,13,60,48,-9,-3,-2,20,48
1513174115746289,-2,-33,-47,17,-1,1,13,-3
1513174115755298,-11,3,-55,-16,-5,-14,-22,-26
1513174115755298,-1,-64,-62,-28,-3,5,0,27
1513174115769814,-15,-8,-25,20,7,3,-7,-27
1513174115769814,18,26,97,29,8,7,20,26
1513174115771307,1,-35,-43,-12,5,7,-16,2
1513174115771307,7,44,43,25,1,0,53,-4
1513174115792321,18,-52,-111,-58,-21,-14,-81,4
1513174115792321,-57,19,28,-23,-10,-5,-26,-32
1513174115794323,21,-20,34,12,7,4,25,6
1513174115794323,21,23,93,10,6,7,-9,35
1513174115806331,0,17,0,24,8,3,13,14
1513174115806331,12,-55,-109,-5,0,-2,-18,-2
1513174115815339,9,16,92,-22,-13,-12,-19,-72
1513174115815339,-10,9,-37,25,5,1,-4,18
1513174115830847,1,3,-44,-11,-3,7,60,-9
1513174115830847,-5,-48,-97,-26,-9,-13,-82,-13
1513174115832364,23,16,96,29,10,5,20,52
1513174115832364,-37,-35,-91,-43,-23,-20,-31,-39
1513174115852366,1,63,61,15,9,12,49,-30
1513174115852366,18,-18,-47,-10,-3,1,22,5
1513174115853864,-56,-65,-35,-2,-6,1,-8,25
1513174115853864,14,48,39,-35,-14,-13,-32,-13
1513174115865891,-2,23,61,18,3,0,-7,63
1513174115865891,12,4,15,-1,-5,-4,5,-6
1513174115874879,9,30,-3,9,3,2,7,12
1513174115874879,-9,-1,-18,4,12,7,11,26
1513174115890401,17,-70,16,-18,-18,-9,2,-24
1513174115890401,28,85,12,-1,0,-6,-16,-9
1513174115891891,-12,27,-37,-21,0,2,13,38
1513174115891891,51,3,-17,16,3,5,24,11
1513174115912406,-66,-28,19,-5,-1,-6,-25,-6
1513174115912406,4,56,71,25,-3,0,15,5
1513174115913907,18,-43,24,-13,-11,-9,-3,-30
1513174115913907,1,-46,-81,-12,-6,-3,16,3
1513174115934921,-10,42,76,25,2,-3,-51,-18
1513174115934921,13,-39,-54,-13,-1,-2,18,-9
1513174115936422,-27,38,17,-6,3,1,8,-8
1513174115936422,0,-19,38,20,-7,-5,-24,-4
1513174115949932,11,-19,-11,-17,9,5,10,-20
1513174115949932,-4,13,23,-23,-6,3,12,23
1513174115951433,7,41,-8,14,5,6,61,-1
1513174115951433,15,-32,53,48,23,5,-42,-9
1513174115981954,13,-10,-78,-8,-14,-3,-15,-27
1513174115981954,-6,7,24,-7,0,-1,38,64
1513174115986959,7,13,1,14,6,-1,-28,-23
1513174115986959,-22,-16,-56,-6,-2,0,23,-8
1513174115987459,7,-26,-10,-9,-5,-4,13,39
1513174115987459,7,37,43,43,10,4,-11,-35
1513174115994964,-46,-82,-61,-35,-23,-8,-13,31
1513174115994964,-21,55,53,27,6,-2,8,8
1513174116009975,1,-7,-22,-59,-9,-2,-28,-26
1513174116009975,-11,-1,-11,10,1,2,37,-11
1513174116011477,26,9,48,20,8,-1,-42,20
1513174116011477,-75,-64,-86,-23,-4,5,20,-20
1513174116033014,21,72,37,30,11,5,19,-12
1513174116033014,-14,-35,-4,-24,-13,-11,-16,33
1513174116034994,2,11,-25,12,10,8,16,-17
1513174116034994,18,38,4,-26,-10,-2,-5,12
1513174116046018,23,36,52,15,3,2,10,4
1513174116046018,-29,-60,-32,-7,0,-2,-19,19
1513174116055008,10,-19,-19,6,3,-4,-19,-47
1513174116055008,19,40,43,-4,-5,-5,18,-4
1513174116069016,-8,1,16,33,4,2,-2,-17
1513174116069016,8,10,12,-42,-9,-9,2,6
1513174116077522,0,-2,33,29,9,6,8,15
1513174116077522,-36,-20,-48,-23,-15,-11,-3,0
1513174116092533,5,-3,84,19,8,1,-10,-12
1513174116092533,-12,-9,-21,12,4,5,19,-1
1513174116095035,-16,-28,-47,-12,-8,-5,-19,-39
1513174116095035,24,42,69,12,5,7,21,28
1513174116106044,11,-32,-61,-21,-12,-15,-48,-44
1513174116106044,-24,-68,-28,-14,-8,-4,-15,20
1513174116115048,9,37,21,-1,1,3,33,20
1513174116115048,2,-10,-49,-1,1,-3,-33,-24
1513174116130059,10,-7,1,25,7,9,20,13
1513174116130059,8,46,54,-11,-6,-2,-4,-30
1513174116131576,5,-41,-46,-22,-13,-8,0,10
1513174116131576,20,-12,-39,2,7,5,10,-9
1513174116152587,2,-31,-41,-11,-9,1,16,14
1513174116152587,22,11,-11,-32,-8,-1,-6,4
1513174116154080,-32,-7,19,33,20,9,23,5
1513174116154080,10,12,-2,-35,-11,0,-4,6
1513174116166099,7,-30,-24,-27,-15,-13,-23,-10
1513174116166099,-4,13,28,18,6,0,-6,5
1513174116175090,5,-27,-38,-29,-15,-8,2,2
1513174116175090,17,-31,-14,11,1,1,1,-2
1513174116190101,-28,9,-5,-10,2,0,-6,5
1513174116190101,-8,12,-16,14,3,2,0,-30
1513174116192603,-4,4,35,-20,-9,-4,-3,8
1513174116192603,-5,40,1,16,5,1,35,24
1513174116212628,0,42,25,17,11,5,-4,13
1513174116212628,-5,27,20,16,8,-1,-12,-8
1513174116214122,-9,20,-6,-6,-6,-7,-38,-23
1513174116214122,-8,-19,18,10,-3,0,-2,-11
1513174116235156,29,17,9,-16,-1,-2,16,11
1513174116235156,-9,5,-25,2,0,1,1,-10
1513174116236635,29,1,18,-6,-3,-4,-10,17
1513174116236635,-42,-13,23,6,2,-3,-4,-15
1513174116250161,-3,-22,-37,-12,-5,-7,-3,8
1513174116250161,-8,-43,16,13,-5,-3,1,9
1513174116251646,-25,-27,-83,-30,-9,-3,-13,-3
1513174116251646,20,-4,17,3,0,-5,-15,-6
1513174116272661,0,11,-18,14,2,0,6,-11
1513174116272661,-16,2,-4,-22,-2,2,21,-5
1513174116274161,19,2,1,-3,-1,3,-17,7
1513174116274161,-16,-11,-18,-18,-8,-5,3,-13
1513174116295177,6,36,37,13,1,-4,-16,3
1513174116295177,9,-38,0,0,-2,2,3,-5
1513174116296177,-20,8,-92,-10,-7,-6,15,0
1513174116296177,-1,-15,31,9,7,2,7,20
1513174116317205,-4,2,15,7,0,1,6,-8
1513174116317205,0,-10,-53,-28,-6,-3,-3,1
1513174116319202,-31,-16,55,23,10,0,-26,-25
1513174116319202,-2,-5,2,-18,-13,-6,-8,6
1513174116332203,-13,-21,-71,-12,1,3,10,10
1513174116332203,12,12,56,9,-3,-4,-23,-9
1513174116333703,1,-29,-46,14,11,6,19,8
1513174116333703,3,40,32,-9,-8,-6,-5,-10
1513174116354732,-7,15,12,-2,-3,-5,-2,18
1513174116354732,20,47,52,17,11,7,-4,-32
1513174116356220,-22,-68,-43,-29,-19,-7,12,8
1513174116356220,27,6,32,12,8,4,-19,0
1513174116369252,-13,-38,-28,-3,1,3,14,-12
1513174116369252,26,72,83,21,4,4,9,5
1513174116376244,-17,-28,-17,-19,-5,-2,11,16
1513174116376244,-9,1,5,12,7,5,-17,-25
1513174116392748,9,35,27,-7,2,3,12,-1
1513174116392748,-2,-27,-43,18,5,2,13,32
1513174116394747,22,35,43,8,3,-1,-18,-11
1513174116394747,-5,-54,-63,-11,-5,1,12,-1
1513174116414761,-3,1,-14,1,1,-1,6,5
1513174116414761,0,43,58,23,6,-2,-21,1
1513174116416265,6,25,-2,-29,-13,-5,9,-6
1513174116416265,5,4,38,23,12,7,14,23
1513174116429281,18,26,35,8,-2,-1,-10,5
1513174116429281,14,-32,-2,-9,-1,-5,-1,-36
1513174116435790,5,55,2,8,2,4,9,8
1513174116435790,-12,-19,-28,0,1,-2,-3,-15
1513174116452287,-16,34,6,5,-3,-2,14,37
1513174116452287,16,17,19,-3,-2,2,5,7
1513174116453788,20,-11,-4,10,2,-3,-19,2
1513174116453788,-10,8,55,-24,-7,-2,-5,-8
1513174116474813,-4,-43,-74,-5,-6,-1,-12,-14
1513174116474813,-8,4,-36,-14,-4,-3,5,7
1513174116476305,18,19,22,7,0,-3,-4,1
1513174116476305,8,19,23,9,3,2,10,3
1513174116489315,-3,-25,7,-7,-5,-3,9,-39
1513174116489315,-34,-4,-14,0,0,1,-5,36
1513174116495819,19,16,48,21,7,3,15,-14
1513174116495819,2,4,-79,-26,-12,-7,-26,-16
1513174116512349,-42,-67,-18,-7,0,-3,6,-2
1513174116512349,-15,8,-10,3,-4,-3,2,-6
1513174116514351,-7,52,36,-11,-4,-1,-1,5
1513174116514351,2,-1,6,6,-3,-4,-6,2
1513174116534846,9,15,-20,-12,-7,-2,-13,-1
1513174116534846,8,13,22,27,7,-1,-4,-1
1513174116536347,-38,-32,-35,-32,-10,-2,0,-7
1513174116536347,24,-5,-48,9,6,0,-4,-10
1513174116549368,7,46,11,11,6,4,-19,5
1513174116549368,-18,-69,-8,-12,-12,-7,25,11
1513174116555871,5,19,40,-5,0,-1,-22,-22
1513174116555871,-10,-3,-43,3,1,2,-2,29
1513174116572372,-1,-12,37,26,13,4,-14,-13
1513174116572372,4,-9,-52,-6,-2,0,6,-7
1513174116573873,-2,-7,-14,-4,0,-2,6,13
1513174116573873,3,-13,-35,-17,-10,-5,1,-10
1513174116594888,30,24,43,7,0,-3,-10,1
1513174116594888,-18,-38,-34,1,0,3,8,-4
1513174116596389,5,-36,-20,-7,-2,-6,-5,-2
1513174116596389,3,35,38,4,2,-1,2,2
1513174116609420,-3,15,-3,7,0,-1,11,2
1513174116609420,-35,-34,-9,-26,-16,-8,-2,0
1513174116615925,17,12,55,0,-2,-2,23,-1
1513174116615925,-13,-14,0,17,6,0,-7,-12
1513174116632429,0,-17,26,6,-3,0,-1,-8
1513174116632429,24,60,-18,0,12,7,-2,8
1513174116633916,-38,-52,-35,-17,-8,0,-2,1
1513174116633916,2,-13,46,7,-2,-4,21,7
1513174116662447,-4,11,25,10,0,-6,-14,-7
1513174116662447,17,23,18,10,8,4,-2,-12
1513174116663937,-4,-21,-2,27,7,6,1,1
1513174116663937,10,23,-20,-11,0,2,6,-6
1513174116668951,4,-18,-14,-25,-11,-6,8,5
1513174116668951,18,26,4,12,1,-5,-18,-6
1513174116675945,-5,38,5,1,-1,-1,-5,-17
1513174116675945,-6,-2,-8,-16,-5,-1,7,26
1513174116692467,23,-19,31,6,6,3,5,21
1513174116692467,19,64,-4,-15,-8,-7,-24,-22
1513174116693958,-24,-51,-39,6,1,3,7,5
1513174116693958,2,20,48,28,8,-1,-13,-32
1513174116714988,14,-5,-26,-27,-6,1,0,6
1513174116714988,3,-11,2,13,-4,-6,-4,-10
1513174116716497,14,18,10,1,3,-4,-9,8
1513174116716497,-12,21,-2,-12,-2,1,14,-9
1513174116728985,6,-15,-11,-14,-4,0,-4,1
1513174116728985,-3,-32,42,5,0,-4,-33,-5
1513174116737489,-5,18,-60,-4,-5,-5,4,-2
1513174116737489,-8,-28,64,3,2,2,2,1
1513174116752519,2,-3,-6,9,2,-2,-8,-5
1513174116752519,-7,20,-34,-19,-7,-3,2,12
1513174116754001,-6,-20,-3,1,-3,-3,-10,-9
1513174116754001,11,6,-3,-7,2,4,10,16
1513174116775027,-29,24,-12,-1,1,1,-7,-4
1513174116775027,-10,-57,36,-2,-3,-2,2,-21
1513174116776519,21,41,51,21,9,4,2,12
1513174116776519,-17,-20,-8,-1,-6,-3,-8,-9
1513174116797541,-3,-18,-65,-12,-2,-1,14,1
1513174116797541,-2,23,56,2,-2,-2,16,18
1513174116799042,-10,14,-78,-13,-1,-1,-1,0
1513174116799042,12,-2,-8,-12,-1,3,7,5
1513174116812541,22,-9,-24,-3,-1,-2,3,17
1513174116812541,-60,-80,-39,4,-2,-1,-5,-23
1513174116814067,15,27,49,5,1,-3,-10,-1
1513174116814067,3,-12,-36,-20,-13,-7,-7,1
1513174116835057,-13,-30,0,10,3,-2,-4,-22
1513174116835057,25,74,5,-16,-3,-4,-4,4
1513174116836573,-32,-46,-10,12,2,3,29,4
1513174116836573,-6,-21,-69,7,2,-6,-30,-27
1513174116848579,-16,-6,63,-7,-6,-5,-11,13
1513174116848579,21,-7,-42,2,6,7,11,10
1513174116857574,-4,32,13,-17,-6,-3,-9,-8
1513174116857574,24,35,67,21,3,4,9,16
1513174116872583,-42,-40,-25,-1,2,2,15,7
1513174116872583,12,-30,-4,-18,-3,-3,0,-9
1513174116874098,16,20,13,12,5,3,-9,-7
1513174116874098,-8,18,18,-3,0,-1,5,10
1513174116895099,7,0,-12,-4,-3,0,-13,-9
1513174116895099,10,-31,4,12,3,2,24,19
1513174116896601,5,-30,1,-4,-3,-5,-41,-12
1513174116896601,-24,-6,-15,-6,-6,-7,-7,-10
1513174116908630,8,47,9,-5,-9,-1,19,9
1513174116908630,10,-6,-6,8,0,-5,-32,-14
1513174116917628,10,-50,14,-5,1,1,26,8
1513174116917628,-2,23,-24,-10,-4,1,10,13
1513174116932628,0,15,12,32,9,-1,-34,-23
1513174116932628,1,-11,16,-31,-12,-1,4,8
1513174116934128,2,17,10,-3,-3,-1,5,3
1513174116934128,-5,4,26,14,10,6,15,9
1513174116955161,5,-15,-42,-16,-3,-4,3,-13
1513174116955161,-23,-25,32,16,4,0,-18,-10
1513174116956644,3,-11,-31,0,-1,0,2,19
1513174116956644,-12,24,47,-2,-12,-11,-2,-10
1513174116976667,27,19,44,-7,4,7,22,16
1513174116976667,11,20,-64,11,9,1,-27,-8
1513174116977659,-4,1,62,-8,-2,5,10,-5
1513174116977659,27,-25,-48,1,1,-3,-23,2
1513174116991678,-39,-57,-9,-1,-7,-6,-4,-11
1513174116991678,-4,8,-17,11,4,7,32,9
1513174116992674,6,14,35,4,1,0,4,9
1513174116992674,20,-19,0,-1,-1,-1,-13,2
1513174117014187,-25,-4,-36,-8,-4,-2,-4,-10
1513174117014187,2,14,35,-10,-4,0,13,13
1513174117014685,-3,11,16,34,5,-1,-1,-6
1513174117014685,-13,-12,-29,-40,-15,-8,-4,-19
1513174117036703,17,37,-5,-4,0,0,13,1
1513174117036703,-5,-51,-16,3,1,-2,-29,-5
1513174117037704,0,-4,3,-2,-3,-2,-8,-14
1513174117037704,17,-5,8,1,4,3,31,12
1513174117051732,-33,-3,16,2,0,0,-21,-2
1513174117051732,-16,5,-18,2,0,0,5,-3
1513174117052717,0,-18,-5,-8,-5,-4,-11,0
1513174117052717,29,-36,25,19,2,2,4,-12
1513174117074238,-18,35,-98,-22,-9,-7,2,-5
1513174117074238,-6,23,55,7,4,0,-2,7
1513174117074727,-8,9,-3,-15,-5,3,37,2
1513174117074727,-11,-39,2,16,-1,-15,-70,-4
1513174117096752,23,-13,37,5,5,6,5,6
1513174117096752,-10,15,17,-13,-8,-10,-32,-37
1513174117098253,-1,-9,-48,10,3,0,24,55
1513174117098253,-22,-3,-84,-18,-4,2,-14,-48
1513174117111766,29,24,47,5,-4,-4,-2,41
1513174117111766,-8,-3,-17,-8,-2,-6,-16,3
1513174117112255,-2,-22,-8,7,4,-1,2,-34
1513174117112255,-26,17,9,11,-1,5,19,24
1513174117142284,-4,-1,12,-17,-4,-6,-21,-10
1513174117142284,7,6,-17,-22,-4,6,32,0
1513174117143285,-5,18,1,6,-1,-6,-34,-21
1513174117143285,9,20,-5,5,8,5,25,14
1513174117156784,5,10,-3,-18,-8,0,7,11
1513174117156784,-5,-51,-5,-9,-4,1,24,21
1513174117157285,27,12,34,7,-4,-6,-16,-5
1513174117157285,-10,9,4,-9,2,3,0,-13
1513174117172296,28,-18,-3,24,7,2,15,3
1513174117172296,-34,7,-6,-3,-5,-2,-11,-13
1513174117179304,2,18,34,-14,-4,-4,-20,16
1513174117179304,-4,-15,-16,-11,-3,-3,3,-20
1513174117194311,1,-8,29,-1,-3,-4,2,-32
1513174117194311,-17,-12,-72,12,6,6,16,33
1513174117194813,-2,16,21,-4,-2,-6,-22,6
1513174117194813,-12,-10,11,-2,-1,3,28,23
1513174117216852,11,8,27,14,5,-3,-30,-28
1513174117216852,-6,30,1,-14,-7,-4,-4,-15
1513174117217327,-20,-59,-87,-13,-3,-2,6,-17
1513174117217327,-18,47,67,4,1,-1,-12,-17
1513174117231837,9,-32,-48,3,2,4,21,15
1513174117231837,11,22,50,14,2,-2,-19,-4
1513174117232338,10,26,24,-14,0,3,-5,-6
1513174117232338,-19,-28,-43,15,-2,-4,2,21
1513174117254406,1,1,2,-3,0,0,-5,1
1513174117254406,22,38,16,-8,-3,-6,0,-5
1513174117254897,-37,-34,-11,13,5,-2,-5,-40
1513174117254897,14,10,16,-16,-3,-2,-3,24
1513174117276917,-24,-7,18,10,-2,-2,-10,-8
1513174117276917,25,-6,-34,-12,-2,-7,-12,7
1513174117277412,6,1,-50,-6,-5,-1,-8,-25
1513174117277412,-1,-15,29,-13,-3,-3,7,-3
1513174117291517,-35,33,-34,0,-10,-11,-26,-36
1513174117291517,6,1,29,-3,-1,2,25,-3
1513174117293515,-6,-5,30,-5,0,1,44,20
1513174117293515,9,-5,-36,-2,-3,-3,-34,-16
1513174117314033,8,25,34,8,3,3,29,45
1513174117314033,8,-6,-41,9,2,2,-11,-35
1513174117315030,19,14,56,4,1,3,10,3
1513174117315030,3,-1,17,6,2,0,6,9
1513174117336561,-31,-29,-15,-9,0,-2,-4,-34
1513174117336561,13,9,-37,-1,0,3,16,28
1513174117337547,-23,26,48,8,0,-3,2,30
1513174117337547,-16,-22,-55,9,-1,-5,-17,10
1513174117351583,8,51,36,-16,2,2,17,-5
1513174117351583,-6,-22,-19,1,0,2,-4,-7
1513174117352569,1,-19,-11,27,7,3,27,11
1513174117352569,0,33,-3,-31,-10,-4,-8,-30
1513174117374072,18,-3,27,0,2,2,8,9
1513174117374072,-6,-87,18,13,-2,-6,-6,11
1513174117375076,-15,12,-103,-11,-3,-1,1,-5
1513174117375076,12,55,43,21,5,2,12,-11
1513174117396592,17,-51,-55,-21,-12,-5,-6,2
1513174117396592,-10,-17,28,-5,3,3,4,-6
1513174117397590,1,-8,-47,-14,-9,-7,-17,-6
1513174117397590,34,-5,23,11,3,-3,-26,15
1513174117411610,0,-2,-12,-10,-3,-2,-1,1
1513174117411610,8,33,23,12,1,0,6,13
1513174117412600,-11,-14,41,7,1,-2,-33,-36
1513174117412600,-5,11,-11,-10,-4,-2,23,20
1513174117434117,10,-7,-51,11,5,2,-3,7
1513174117434117,2,8,34,2,0,-1,-14,-25
1513174117435115,-20,1,-28,-14,-5,-3,3,24
1513174117435115,1,20,53,8,5,4,5,-22
1513174117456656,-8,-41,-15,10,5,2,2,16
1513174117456656,-8,12,-43,-31,-10,-6,4,10
1513174117457658,17,9,-3,0,1,2,5,-22
1513174117457658,-22,-12,-14,-4,-3,-1,6,8
1513174117471669,-9,18,-29,-11,-6,-3,-5,22
1513174117471669,5,-6,-11,6,-3,-4,-10,1
1513174117472668,14,13,35,5,2,1,-29,3
1513174117472668,-23,-20,-7,2,-1,0,0,-8
1513174117494233,12,25,46,9,6,5,-18,-48
1513174117494233,2,-30,-49,-20,-6,2,32,18
1513174117495223,9,5,28,-10,-5,-1,-9,-14
1513174117495223,-12,28,17,5,0,-2,0,3
1513174117516738,-11,-16,-43,-15,-11,-11,-13,-8
1513174117516738,-6,7,53,9,2,-2,-17,-15
1513174117517238,-34,-42,-5,1,-1,2,28,-13
1513174117517238,23,28,-45,-17,-5,0,-4,48
1513174117532263,-8,-16,22,12,3,-6,-10,-26
1513174117532263,15,5,-10,10,5,2,12,-7
1513174117539254,-14,-1,44,-12,-5,-2,-3,18
1513174117539254,12,-56,-51,-23,-5,-3,2,-11
1513174117554267,-42,9,39,-2,-6,-6,0,-21
1513174117554267,12,22,17,13,6,0,-3,20
1513174117554765,21,34,-21,8,0,-5,-2,-9
1513174117554765,-3,6,40,3,1,3,23,14
1513174117576783,20,-3,-18,-5,-1,3,6,21
1513174117576783,-12,13,-41,6,3,4,-7,-23
1513174117577281,-1,-29,-2,-14,-7,-4,3,12
1513174117577281,10,17,-24,-10,-4,-3,2,31
1513174117591791,11,8,3,13,6,3,14,6
1513174117591791,-7,23,2,0,-4,2,-8,0
1513174117592291,7,-10,-12,4,2,2,4,7
1513174117592291,-4,-13,-21,23,4,2,-5,-26
1513174117614321,17,-15,3,-31,-6,-4,-5,13
1513174117614321,-14,17,-12,-2,-2,-4,5,-2
1513174117614818,9,10,11,1,2,1,-1,5
1513174117614818,-23,7,45,14,6,4,-3,-35
1513174117653834,-10,-15,11,-10,-6,-2,18,5
1513174117653834,4,11,14,-2,0,-1,-5,-3
1513174117654335,11,46,21,8,0,-1,-4,-5
1513174117654335,4,-52,-53,-16,-5,-5,-14,3
1513174117655836,0,34,40,8,-3,-5,0,7
1513174117655836,-16,-26,-36,-10,-3,-2,13,-3
1513174117658837,0,-14,16,-11,-2,-2,-21,19
1513174117658837,-13,15,-11,7,0,-2,-16,-30
1513174117674349,-13,-69,-40,-6,-2,-2,-2,2
1513174117674349,8,-17,-9,-2,1,0,-20,-3
1513174117674849,20,-15,23,19,6,6,22,16
1513174117674849,-13,9,3,-7,-6,-7,-21,-27
1513174117696865,-32,2,12,11,-2,1,8,-3
1513174117696865,7,0,23,2,-3,-8,-6,-10
1513174117697366,-2,-19,-52,-4,-4,-2,1,-8
1513174117697366,1,-8,-4,-8,-1,1,2,12
1513174117710893,18,-24,-37,10,5,1,0,31
1513174117710893,-28,-19,22,1,-6,-4,22,1
1513174117726900,-1,-20,-9,-15,-4,-4,-32,-3
1513174117726900,-1,-5,18,6,0,0,24,-18
1513174117734395,4,2,-7,4,1,1,-14,-16
1513174117734395,-18,-12,33,3,7,5,10,5
1513174117734892,1,48,-11,-8,-5,-5,-1,5
1513174117734892,-4,-35,6,-10,-4,0,5,-13
1513174117756933,13,12,22,12,5,3,-5,3
1513174117756933,6,32,48,15,4,4,10,27
1513174117757409,-16,-69,-59,-18,-5,-2,6,-51
1513174117757409,11,16,79,3,-2,-5,-42,5
1513174117770922,0,8,1,-12,-5,-2,4,13
1513174117770922,5,0,-17,-1,1,0,0,7
1513174117779424,-4,17,20,-3,-1,0,12,9
1513174117779424,8,2,-5,-4,-3,0,1,-26
1513174117794434,-8,-45,-37,-8,-5,-9,-37,5
1513174117794434,21,-7,-23,-10,-4,-2,-11,3
1513174117794935,-9,5,-21,14,6,1,-9,-14
1513174117794935,3,-19,-28,-2,-1,0,6,-34
1513174117816950,28,27,-1,2,2,5,21,1
1513174117816950,-19,-13,0,1,-5,-6,-7,48
1513174117817951,-5,15,2,-1,0,-2,-16,-16
1513174117817951,-2,7,16,11,5,-1,15,21
1513174117831001,-1,1,-22,-18,-6,0,8,-11
1513174117831001,2,-19,-38,-11,-2,-1,-7,-16
1513174117839465,-3,2,32,-9,-7,-1,-13,-5
1513174117839465,-8,2,-42,5,0,-7,-18,21
1513174117853977,1,16,49,-1,-6,-3,0,-4
1513174117853977,-10,-5,-9,5,3,1,14,-18
1513174117854977,-8,3,8,-5,-5,-3,-4,11
1513174117854977,-9,-2,-29,-22,-12,-9,11,6
1513174117876493,17,0,4,8,5,2,-29,-35
1513174117876493,9,19,28,12,0,-1,1,-7
1513174117877492,-3,-30,-36,-9,0,-2,-3,-15
1513174117877492,11,26,8,8,2,4,11,24
1513174117891011,-15,2,-25,-9,-1,0,13,21
1513174117891011,5,4,-2,-9,-6,-4,-1,-10
1513174117899008,14,1,19,16,7,2,3,5
1513174117899008,-11,-25,-8,-8,3,2,-5,-4
1513174117914039,-3,19,7,8,0,-2,0,-28
1513174117914039,10,7,43,16,7,3,-4,20
1513174117915038,-3,8,-44,-14,-6,-2,10,10
1513174117915038,2,16,25,-3,1,-1,5,-11
1513174117936537,-3,-17,15,-16,-6,0,4,41
1513174117936537,-3,7,10,4,-1,-2,-10,-18
1513174117937535,-6,-11,14,8,2,0,3,-2
1513174117937535,21,1,44,12,5,4,13,6
1513174117951057,-11,-19,-69,-3,0,2,6,13
1513174117951057,9,-4,-33,-7,-4,-4,-12,-13
1513174117959050,-16,-1,8,-4,1,3,-1,14
1513174117959050,15,1,19,13,4,0,0,-5
1513174117974061,-56,-33,-5,-7,-6,-3,-1,-11
1513174117974061,14,-16,-28,1,3,3,5,6
1513174117975062,1,-4,-7,4,1,-1,7,11
1513174117975062,3,70,73,11,0,0,-22,10
1513174117996576,5,-27,-65,-8,2,-3,-5,-30
1513174117996576,-8,23,6,-7,-7,-3,-6,0
1513174117997577,-5,1,14,-10,-4,2,18,-19
1513174117997577,-10,-17,-20,-6,-4,-5,-8,17
1513174118011097,18,33,75,20,8,1,8,14
1513174118011097,-9,-6,-47,-17,-6,1,-8,-14
1513174118019115,17,19,4,-5,-4,-7,-8,-18
1513174118019115,-5,-25,-23,3,-1,-1,-2,17
1513174118034106,5,59,-19,-12,1,2,7,-5
1513174118034106,-11,-27,-15,-8,-4,-1,11,12
1513174118035104,10,27,31,14,2,-1,-3,13
1513174118035104,1,-11,-32,-10,-3,2,21,2
1513174118056621,-4,5,6,-1,-4,-4,-19,-17
1513174118056621,-1,-2,-7,4,0,-2,-2,2
1513174118057620,5,1,17,5,6,5,16,15
1513174118057620,-17,-21,-60,-21,-11,-9,-26,-31
1513174118087141,27,6,32,21,3,2,13,38
1513174118087141,-6,3,-1,-1,2,2,-14,-13
1513174118088141,0,-3,-14,-8,-4,0,2,3
1513174118088141,-6,-17,9,4,0,-4,-6,-10
1513174118094146,-14,-11,5,-3,2,1,-9,-29
1513174118094146,16,22,28,12,5,2,6,39
1513174118096147,-6,-10,-2,-9,-7,-2,8,10
1513174118096147,-2,-31,39,-2,-2,-5,-33,-36
1513174118116666,1,9,-16,1,-2,0,33,34
1513174118116666,17,-4,-18,2,-1,-6,-35,-28
1513174118117667,-27,-13,0,6,-2,-2,-17,-16
1513174118117667,18,3,-19,-7,-2,-3,14,10
1513174118139684,-21,-27,6,2,3,2,2,-13
1513174118139684,2,14,18,8,2,-2,2,-3
1513174118140179,2,24,2,14,2,0,10,5
1513174118140179,-4,-4,-43,-18,-3,1,-1,2
1513174118162214,10,9,68,15,6,0,-1,15
1513174118162214,-18,-21,-57,-23,-8,-3,8,-10
1513174118163215,1,-17,-14,-4,-1,-4,-16,-12
1513174118163215,-12,-1,19,14,3,1,0,-28
1513174118176704,-14,10,-24,0,1,0,-2,7
1513174118176704,-10,-17,29,-25,-11,-3,18,5
1513174118177204,5,11,-7,2,-1,-5,-20,-8
1513174118177204,20,-33,-14,3,0,-1,9,-9
1513174118201222,-1,59,5,-12,-11,-6,-9,-4
1513174118201222,-33,-38,-5,10,1,-6,-13,-38
1513174118201723,10,6,36,-4,-2,1,14,17
1513174118201723,-16,-8,-43,-8,-4,-2,6,12
1513174118214235,19,-21,-16,-11,-6,-6,-15,-19
1513174118214235,-20,5,-7,-10,-6,-3,-5,-9
1513174118214736,8,14,-5,-14,-6,-1,17,11
1513174118214736,-9,57,75,12,1,-3,-2,18
1513174118237313,7,-35,-73,-13,-4,-1,1,-3
1513174118237313,-4,-14,10,-6,-1,0,-5,-17
1513174118237752,15,17,-4,12,5,4,6,12
1513174118237752,-3,11,48,24,-1,2,2,-4
1513174118259777,-28,5,19,-7,1,-4,-18,-31
1513174118259777,24,8,-2,-5,-2,3,15,32
1513174118260781,-20,1,12,-9,-3,-2,-1,-17
1513174118260781,19,6,3,-1,1,3,9,38
1513174118274284,-27,-11,23,12,-1,-2,-16,-28
1513174118274284,3,-21,-26,3,1,1,3,6
1513174118274773,-1,-1,-15,-11,-2,2,24,6
1513174118274773,-7,-12,-14,-2,3,-3,-32,-8
1513174118297289,7,-17,-17,0,3,2,6,15
1513174118297289,5,41,43,4,-2,-2,-16,8
1513174118298290,-10,-39,-25,-8,-5,-5,-8,-6
1513174118298290,-2,-5,-34,3,0,-1,4,-17
1513174118319810,21,0,4,-11,0,0,8,21
1513174118319810,-14,-33,1,-11,-6,-4,-4,-29
1513174118320807,12,15,33,19,7,2,-26,16
1513174118320807,3,-21,-41,-8,0,2,4,1
1513174118334328,-23,-27,15,13,2,1,0,-8
1513174118334328,-11,-17,-16,4,0,-1,0,-12
1513174118334816,-12,-36,-44,-20,-9,-8,-24,-19
1513174118334816,9,0,4,-9,-4,-5,0,4
1513174118357336,3,18,5,10,1,1,6,19
1513174118357336,13,0,-14,6,9,7,22,9
1513174118358336,-22,12,13,3,-3,-7,-35,-20
1513174118358336,-4,-2,13,-4,-4,-1,0,18
1513174118387381,8,-13,-1,-29,-13,-7,-4,4
1513174118387381,4,-6,4,15,-1,-4,0,6
1513174118387853,0,21,-6,-8,-2,-2,3,-4
1513174118387853,-7,15,19,-8,-3,2,16,-17
1513174118394361,0,6,2,7,2,2,3,25
1513174118394361,7,30,17,-1,0,-3,-37,-22
1513174118394859,-6,-22,24,10,-2,-3,6,28
1513174118394859,-6,9,-21,-10,-3,-2,-1,-17
1513174118417399,8,-12,25,14,5,3,5,-5
1513174118417399,13,33,7,-8,-3,-3,2,1
1513174118417874,17,24,-24,-2,0,-1,-10,2
1513174118417874,-38,-16,32,0,0,-2,-9,-42
1513174118439891,17,2,-20,10,0,-1,6,43
1513174118439891,-29,-61,-44,0,4,5,7,9
1513174118440391,-14,14,-20,-22,-9,-4,-1,-12
1513174118440391,1,-10,-14,-5,2,4,1,3
1513174118454401,9,6,17,0,0,-1,-5,-20
1513174118454401,-8,-8,-5,4,-1,-1,17,9
1513174118454905,-5,-32,-4,3,-1,0,-3,-13
1513174118454905,0,-29,-3,-9,-6,-2,5,27
1513174118484932,-2,24,22,4,1,-2,-4,-29
1513174118484932,16,43,6,-1,-5,-4,2,17
1513174118485422,-8,-31,-36,0,-1,2,1,-11
1513174118485422,2,16,-19,4,-1,-7,-12,-5
1513174118507438,-3,1,-6,-20,-5,0,4,2
1513174118507438,-2,8,24,4,3,1,6,-5
1513174118507938,9,-2,-6,0,-6,-6,-20,9
1513174118507938,-9,9,30,4,2,1,-9,-21
1513174118514453,5,4,-8,-4,-3,-4,-17,3
1513174118514453,-3,1,9,10,0,-1,-2,11
1513174118514955,4,-45,-29,-7,2,4,19,3
1513174118514955,-14,34,31,19,6,0,-7,-21
1513174118537462,4,16,-16,-13,-5,2,7,-8
1513174118537462,0,-37,15,-11,-7,-3,5,1
1513174118537960,4,25,44,21,8,4,-2,8
1513174118537960,11,-5,-44,-10,-2,2,19,25
1513174118559975,3,-6,11,17,8,1,1,-8
1513174118559975,6,12,-57,-27,-14,-8,2,-3
1513174118560476,1,1,36,16,3,0,-1,-3
1513174118560476,0,-22,-36,-9,-1,1,4,13
1513174118574486,-1,-4,0,5,2,-2,-8,-14
1513174118574486,19,14,12,2,0,1,-3,-1
1513174118575486,5,25,16,12,5,1,7,7
1513174118575486,0,1,-20,-25,-9,-2,3,-10
1513174118598002,-3,-48,-17,2,-4,-6,-6,-25
1513174118598002,-3,20,19,7,5,6,7,19
1513174118598502,-8,-26,-14,-17,-10,-6,-3,-13
1513174118598502,9,9,27,17,3,-2,10,-7
1513174118627532,9,21,-15,9,3,3,-7,19
1513174118627532,-24,-52,-32,-33,-9,-3,-4,-16
1513174118628023,-9,16,17,-9,-2,-2,-5,-6
1513174118628023,10,-13,9,3,1,2,15,26
1513174118634030,-6,3,-29,3,1,-2,-19,-25
1513174118634030,4,-3,44,7,1,-1,-2,16
1513174118635028,-3,-43,-34,4,2,-1,14,-5
1513174118635028,6,5,30,-8,-7,-3,5,5
1513174118657563,0,11,3,-7,-1,-1,-14,-12
1513174118657563,-2,22,-3,4,-1,0,-3,13
1513174118658046,-12,-8,10,-5,-4,2,18,17
1513174118658046,3,22,21,3,-2,-5,-45,-26
1513174118680070,2,-11,3,2,0,3,22,18
1513174118680070,8,-17,-41,-2,-1,-6,-13,-28
1513174118680560,-4,33,10,-6,-2,2,-13,-19
1513174118680560,20,-3,3,6,2,1,9,33
1513174118693570,12,25,23,5,-4,-4,-7,-3
1513174118693570,-6,-17,4,-8,2,1,-5,-8
1513174118701614,-18,3,9,4,-2,-3,12,3
1513174118701614,-4,-2,-15,-8,-3,-3,-7,-21
1513174118717587,2,-3,2,-7,-3,-2,8,31
1513174118717587,-2,0,0,9,1,-4,5,-11
1513174118718090,3,42,18,2,0,-1,5,0
1513174118718090,9,-9,-22,-10,-6,-5,5,1
1513174118740103,-11,-10,4,-4,2,4,8,14
1513174118740103,11,49,16,21,6,-2,-21,-34
1513174118740603,-7,-38,-51,-17,-5,1,7,11
1513174118740603,-3,-49,-2,18,4,1,2,-8
1513174118753612,-13,0,-31,-24,-11,-4,9,-5
1513174118753612,-4,25,6,4,-4,-3,3,15
1513174118761618,16,16,-3,-7,2,-2,-17,-9
1513174118761618,-2,-1,-3,16,5,2,-21,-3
1513174118777129,-20,-28,25,-13,-6,-2,-5,-14
1513174118777129,4,18,-4,-6,1,1,3,6
1513174118778129,23,-17,-9,17,6,-1,4,4
1513174118778129,-29,25,16,-8,-5,-2,-2,-4
1513174118799644,-21,-7,-34,1,3,-4,-6,-20
1513174118799644,18,6,20,-1,-3,3,10,17
1513174118800645,-22,-12,22,6,0,2,16,0
1513174118800645,11,46,-19,-9,0,-4,-27,0
1513174118813654,9,-5,-1,-1,-5,-5,-14,-20
1513174118813654,-17,-30,26,3,1,5,8,20
1513174118821660,12,6,-15,-1,-2,1,-5,-10
1513174118821660,-5,-24,-39,-23,-5,-2,21,-1
1513174118837192,-19,15,34,11,1,-1,-13,4
1513174118837192,13,14,8,2,1,0,5,-5
1513174118838181,0,14,-1,-7,-7,-8,-28,-20
1513174118838181,-4,-20,-1,-6,-2,0,-7,26
1513174118859687,4,-11,-31,0,4,2,-12,-23
1513174118859687,-6,-11,9,0,-2,-1,9,10
1513174118860687,-14,33,14,2,-1,-4,7,4
1513174118860687,-2,-2,30,36,9,7,13,2
1513174118873696,-3,5,19,-16,-4,-3,-4,-23
1513174118873696,-5,-20,-7,-9,-4,2,8,36
1513174118881725,12,6,-7,2,2,-2,-10,-10
1513174118881725,-15,-5,5,4,2,5,8,8
1513174118897214,27,33,84,22,0,2,7,19
1513174118897214,-20,-22,-83,-14,-4,-2,2,-19
1513174118898214,-1,-2,-17,-5,-1,-1,-18,-6
1513174118898214,-4,9,25,-2,-2,-2,5,4
1513174118918728,27,18,-21,-4,-3,1,9,23
1513174118918728,-11,-14,-4,10,2,-1,1,-13
1513174118926750,8,14,17,1,0,2,-6,7
1513174118926750,-19,-17,-17,-5,-6,-3,11,-19
1513174118933270,-7,-43,-48,-19,-4,-3,-31,-5
1513174118933270,1,23,26,7,-1,-2,-2,-4
1513174118941847,-10,-23,-1,-9,-3,-2,8,-1
1513174118941847,13,27,-15,-11,-2,-1,-7,-1
1513174118957362,-1,5,-7,3,1,1,15,12
1513174118957362,3,3,33,0,-3,-2,-3,-1
1513174118957848,1,-4,-9,8,0,0,-8,-1
1513174118957848,2,-7,-6,-12,-5,-3,-9,-8
1513174118979867,-6,9,-37,8,-3,-2,17,22
1513174118979867,-1,16,-4,-24,-7,-6,-22,-3
1513174118980364,2,-1,1,2,-3,-1,7,3
1513174118980364,0,-24,-44,3,5,1,-7,-4
1513174118993374,22,27,44,13,3,1,-1,5
1513174118993374,-20,-28,-22,-3,0,1,6,-13
1513174119001402,19,28,-14,-8,-2,-1,18,-11
1513174119001402,-17,-16,18,-6,-3,-2,-41,28
1513174119017391,2,-16,-3,13,8,4,9,1
1513174119017391,5,34,36,-2,-4,-5,-11,-23
1513174119017891,6,-10,25,2,0,0,1,8
1513174119017891,8,2,-2,-4,-3,0,11,-10
1513174119039906,-8,7,1,3,1,0,1,3
1513174119039906,-17,-30,17,-1,-2,-2,0,4
1513174119040409,-15,-36,8,14,0,0,-6,-21
1513174119040409,20,27,13,-13,-2,-4,3,19
1513174119062458,-22,-22,-53,-12,-4,-3,-13,-4
1513174119062458,9,9,2,7,3,-2,-1,-4
1513174119062946,-11,-1,-17,-3,-4,-5,-2,-3
1513174119062946,-4,13,12,7,0,0,11,-6
1513174119084983,-1,-23,18,2,2,3,11,-2
1513174119084983,10,-7,-37,-4,-1,-1,-12,-10
1513174119085461,-10,10,32,11,0,-1,-7,-6
1513174119085461,-9,10,-13,-15,0,2,13,-1
1513174119099975,-3,20,35,-1,-1,-2,0,-1
1513174119099975,11,8,-8,16,4,1,-2,-3
1513174119101473,2,-8,-3,-5,1,-1,-6,-7
1513174119101473,-8,-5,-5,-5,-4,0,21,7
1513174119122491,-8,7,48,4,-1,-2,-25,-13
1513174119122491,-4,-36,-85,-18,-7,-5,0,-2
1513174119123992,2,14,17,2,1,1,1,1
1513174119123992,2,-9,-13,-9,-6,-6,-34,2
1513174119136520,0,7,-7,1,2,4,21,15
1513174119136520,11,29,41,14,4,3,-2,-1
1513174119145002,-13,-27,-23,-29,-10,-3,-12,-25
1513174119145002,10,0,10,15,1,1,13,26
1513174119160036,6,47,35,-21,-3,1,5,2
1513174119160036,-5,-46,-36,4,1,0,4,-3
1513174119161520,-5,3,-19,-17,-7,-7,-19,18
1513174119161520,6,-8,6,18,5,1,-3,-19
1513174119182580,4,-3,-4,7,0,-4,7,-8
1513174119182580,-2,25,10,-8,-1,0,-19,2
1513174119184031,-4,18,26,3,2,3,-10,-3
1513174119184031,-15,-51,-34,-4,-3,-5,-4,-13
1513174119196549,14,-6,-23,2,0,-3,-1,-4
1513174119196549,-7,-7,15,-2,2,3,16,-3
1513174119205055,-3,-7,-2,3,-1,0,-2,20
1513174119205055,2,1,-4,-6,-3,-1,2,-6
1513174119220066,-9,8,5,-6,-3,0,6,5
1513174119220066,-9,5,1,15,-3,-3,-5,-13
1513174119221557,-9,-14,-10,-15,-1,-1,16,-1
1513174119221557,20,50,49,5,2,1,-17,-30
1513174119250077,-30,-83,-71,-9,-6,-2,8,16
1513174119250077,-3,9,11,-4,-2,-4,-11,-4
1513174119251579,5,17,-35,-5,-5,-2,14,8
1513174119251579,12,6,-2,3,3,1,7,-2
1513174119256582,4,-10,5,3,-3,-4,-6,-5
1513174119256582,1,4,4,-3,-2,0,9,-1
1513174119263586,21,-1,-11,4,4,3,-6,18
1513174119263586,-30,7,19,12,2,0,4,-4
1513174119279598,-5,-11,-50,-19,-3,-1,-3,-4
1513174119279598,5,13,21,5,-4,-5,0,-8
1513174119281599,11,0,9,-16,0,4,10,10
1513174119281599,-6,-38,-29,-3,-3,0,5,12
1513174119302614,3,18,8,6,3,-4,-12,0
1513174119302614,-7,-15,18,4,0,-1,0,-5
1513174119304149,-3,11,6,9,-2,-2,-5,-12
1513174119304149,6,1,-11,-2,-2,-3,-7,0
1513174119316797,-7,-4,7,5,1,-1,3,-6
1513174119316797,8,5,-12,-9,-2,-1,-3,5
1513174119323299,-1,-3,1,2,0,0,-2,-6
1513174119323299,-3,-6,-3,-8,-2,0,2,5
1513174119339822,4,-2,9,4,1,0,-1,-3
1513174119339822,-3,4,-1,-7,-3,-2,-5,3
1513174119341312,-10,-13,-7,-3,-4,-5,-5,-4
1513174119341312,-3,-2,3,0,-3,-1,1,-3
1513174119362338,3,3,0,4,2,1,-4,-3
1513174119362338,0,-2,-7,-8,-3,-1,-3,0
1513174119363830,-1,-3,0,2,-1,-2,4,-4
1513174119363830,8,7,6,1,1,-2,0,2
1513174119376347,-1,-9,-2,-2,-1,-1,-4,-3
1513174119376347,-4,-3,-5,-13,-5,-2,1,5
1513174119383405,1,-2,8,12,4,0,1,1
1513174119383405,3,5,7,3,0,0,0,0
1513174119399896,3,-2,-6,-5,-4,-2,-2,-1
1513174119399896,-7,-5,-4,-5,-2,-3,5,0
1513174119401417,0,2,-2,-4,-2,-2,-11,-9
1513174119401417,-1,0,0,2,-1,-4,-2,-1
1513174119422427,-1,-1,4,-6,-5,-2,1,-2
1513174119422427,-3,-5,-20,-4,0,0,-3,-3
1513174119423922,-5,-3,5,1,-2,-2,2,-1
1513174119423922,3,0,-3,-8,-1,0,0,0
1513174119436442,-1,-2,4,3,-1,-1,-5,-3
1513174119436442,-2,-1,7,-7,-3,-2,-2,2
1513174119443426,1,5,11,2,1,1,4,3
1513174119443426,-2,-4,-10,-5,-2,-2,-4,-4
1513174119459938,-2,3,9,2,2,1,2,3
1513174119459938,1,-1,-5,1,-1,1,-2,0
1513174119461439,-1,-11,-14,1,0,0,0,-1
1513174119461439,2,14,26,1,-1,-3,0,0
1513174119483955,2,0,-4,-3,-3,-4,-3,-2
1513174119483955,-3,7,0,1,1,1,0,-2
1513174119485457,-2,-6,-8,-4,-3,-4,0,-2
1513174119485457,-4,-7,-12,0,-1,0,-3,-1
1513174119496464,-1,-6,-7,0,-2,-3,-2,-2
1513174119496464,-1,3,13,4,2,-3,-2,-2
1513174119504983,1,8,11,-2,-4,-3,0,-1
1513174119504983,-6,-13,-26,-7,-2,-1,-1,1
1513174119519017,-3,-1,-12,1,1,0,-1,0
1513174119519017,0,-8,3,2,1,0,-1,-2
1513174119527487,-3,-6,-11,-1,-2,-2,-2,-1
1513174119527487,-2,-3,8,1,-2,-1,0,-2
1513174119542497,0,0,-2,-2,-4,0,-1,-1
1513174119542497,-2,2,1,-1,-1,0,-5,-4
1513174119543998,-8,-1,6,-6,-5,0,-1,-6
1513174119543998,0,-2,-12,4,5,1,-1,0
1513174119556506,0,-1,-2,2,0,-2,-1,-1
1513174119556506,3,-1,-5,-2,-3,-2,-3,0
1513174119565015,-4,-1,4,1,-1,0,0,-2
1513174119565015,3,1,9,0,-5,-1,0,-1
1513174119580036,-1,2,-11,-10,-6,-3,-1,-2
1513174119580036,-1,-4,-3,2,5,3,1,1
1513174119581546,1,-3,-7,-2,0,0,-1,0
1513174119581546,-3,0,5,8,1,-2,-3,-2
1513174119602571,2,4,8,4,2,0,-1,1
1513174119602571,-3,-7,-14,-6,-4,-3,0,-2
1513174119604057,0,-1,-3,-4,-2,0,0,0
1513174119604057,1,1,-7,-6,-3,-2,-1,-2
1513174119616068,-1,-2,8,-2,0,-2,-3,-1
1513174119616068,-3,2,1,1,2,2,0,-1
1513174119632582,0,0,6,0,-1,-2,0,-2
1513174119632582,-3,0,-2,-2,-4,-2,0,0
1513174119639565,-1,-5,-8,-1,-1,-1,0,0
1513174119639565,0,2,7,1,0,2,1,0
1513174119641577,-5,-8,-7,2,0,-4,-4,-4
1513174119641577,-1,-3,-1,-3,-1,-1,-3,-2
1513174119662583,-1,-1,2,-3,-1,0,0,0
1513174119662583,-1,-1,4,1,-1,-2,-2,-1
1513174119664124,1,1,-3,2,1,-3,0,0
1513174119664124,-1,-4,2,-2,1,0,0,0
1513174119676104,1,1,-2,-1,-1,-1,-3,-3
1513174119676104,-8,-3,1,-1,0,-3,-3,-4
1513174119685098,2,0,-1,-2,-1,0,1,2
1513174119685098,1,1,0,-2,1,0,0,1
1513174119699651,-1,-1,-5,-1,-2,-2,-2,-1
1513174119699651,2,2,2,-1,-3,0,0,1
1513174119701645,-1,0,-1,-1,0,-2,-1,-1
1513174119701645,-2,-2,-1,-1,-1,1,-1,-1
1513174119722634,-1,-3,-2,0,0,-3,0,-2
1513174119722634,-2,-1,-3,-3,-1,-1,-1,-1
1513174119724125,-1,0,1,1,-1,-1,-1,0
1513174119724125,-1,-4,-5,-5,-3,-4,-3,-1
1513174119736137,-1,-2,1,1,-2,-2,-1,-1
1513174119736137,0,2,1,2,-2,-3,-1,-1
1513174119745140,0,0,-2,-1,3,2,-1,-1
1513174119745140,0,2,0,1,0,-1,0,1
1513174119759650,-2,-2,-1,-1,1,0,-2,0
1513174119759650,1,-2,0,-2,-1,-1,0,-1
1513174119761651,1,1,-3,0,-4,-1,-2,-1
1513174119761651,-2,-1,-1,-2,-3,-1,0,-1
1513174119782169,-1,-1,-2,-1,0,1,-2,-2
1513174119782169,-1,-2,-2,-2,-2,-1,-1,-2
1513174119784168,-1,0,-3,-3,-1,-3,-1,-1
1513174119784168,3,-2,-3,-1,-1,-3,-1,0
1513174119796176,1,0,-2,-1,-1,0,-1,-1
1513174119796176,1,-1,-1,-1,-2,-2,-2,-1
1513174119804682,-2,-2,-2,-1,-2,1,0,-2
1513174119804682,-1,-3,-1,-1,0,-1,0,-1
1513174119819715,-2,-2,-1,0,-1,0,-1,-2
1513174119819715,-2,-3,-2,-1,-3,-2,-1,-2
1513174119821194,1,0,1,-2,-2,-2,-1,2
1513174119821194,0,-2,-3,-1,-1,0,-1,-1
1513174119842208,-2,-1,-1,-3,0,-1,-1,0
1513174119842208,-3,-1,-1,-3,0,-2,-2,-3
1513174119843709,-3,-3,0,-1,0,0,0,-1
1513174119843709,-1,0,2,0,2,0,-1,0
1513174119855718,-2,-4,-3,-4,-2,-2,-2,-2
1513174119855718,-2,0,0,1,-1,-1,0,0
1513174119864726,-1,-1,-1,-1,-2,-1,-1,-3
1513174119864726,-2,-2,-2,0,-1,0,-1,-2
1513174119879774,0,1,-2,1,0,0,0,0
1513174119879774,-1,-1,-1,-1,-3,-2,-1,-1
1513174119881237,0,1,-1,-1,0,-2,0,-1
1513174119881237,0,-2,-1,-1,-2,-2,0,-1
1513174119902272,-1,2,-1,1,-3,-2,-1,-1
1513174119902272,-1,0,-1,-4,0,-1,-2,0
1513174119903774,-2,-1,-1,-1,-1,-1,-2,-2
1513174119903774,0,0,-4,-2,-3,-4,-2,-1
1513174119915764,-1,-3,-1,-1,0,0,0,-1
1513174119915764,1,-1,-1,-2,-3,-1,-1,-1
1513174119924766,-1,-2,-2,0,-1,1,1,0
1513174119924766,-1,-2,-1,0,0,1,0,-1
1513174119939779,-2,0,0,-2,1,-1,-1,-2
1513174119939779,-1,1,-2,-2,-3,-1,-1,0
1513174119941279,1,0,-1,-1,-1,0,-1,-1
1513174119941279,-1,-2,-1,-1,-2,0,-2,1
1513174119962306,-2,0,-2,1,0,0,0,-2
1513174119962306,2,-2,-2,-3,-2,-1,-1,0
1513174119963795,1,-1,-2,-1,0,-1,-1,-2
1513174119963795,-2,-2,-3,-2,-1,-4,-2,1
1513174119984810,-1,0,0,0,-2,0,-1,-1
1513174119984810,-3,-2,-1,-2,0,-2,-1,-3
1513174119986311,-2,0,-1,-2,-1,-1,-1,0
1513174119986311,1,0,-2,-2,-1,-1,-2,-1
1513174119999835,0,-1,-2,-2,-2,-1,0,0
1513174119999835,-2,-1,0,2,-1,0,0,-2
1513174120001321,-1,-2,-1,-1,-1,1,-1,-1
1513174120001321,-1,-1,-1,0,-1,-1,0,-3
1513174120022347,0,1,-2,-2,-1,-3,0,0
1513174120022347,-1,-1,-3,0,0,-1,-2,-2
1513174120023837,-2,-2,0,0,-1,-1,-2,-1
1513174120023837,-2,-1,1,0,-1,-1,-2,-1
1513174120044852,-1,-2,-1,-1,-1,-3,-1,0
1513174120044852,-3,0,-1,-3,-2,0,1,0
1513174120046353,1,-1,-2,-1,-1,-3,0,0
1513174120046353,-1,-1,-1,-1,0,-3,0,-1
1513174120059863,-2,-1,-1,-1,-1,0,-2,-2
1513174120059863,-2,-1,-1,-2,0,0,-1,-1
1513174120061365,-1,-2,-2,-1,-1,-2,-3,-1
1513174120061365,-2,-1,0,-1,-1,-2,0,0
1513174120082381,0,0,-2,-1,0,-1,-2,-1
1513174120082381,1,2,-2,1,0,-1,0,-1
1513174120083896,-2,0,0,-2,-1,-1,1,1
1513174120083896,0,-2,-3,0,0,0,-1,-3
1513174120104901,-3,-2,0,1,-2,-3,-1,-3
1513174120104901,-1,-2,0,-1,-2,0,-1,-2
1513174120106396,0,0,-2,0,1,-2,-3,0
1513174120106396,0,-3,-2,-1,-2,0,-1,-1
1513174120118925,0,-2,-2,-3,-1,-2,-1,-4
1513174120118925,-2,-3,1,0,0,-1,1,-2
1513174120125911,-1,-2,-2,-2,-1,-2,0,1
1513174120125911,-6,-3,0,1,0,0,0,-2
1513174120142421,0,-1,-3,0,-1,0,-1,-1
1513174120142421,-3,-1,-2,0,-1,-2,-3,-3
1513174120143922,0,-1,0,0,-1,-1,-1,-1
1513174120143922,-1,-3,-2,-1,-1,-1,-1,-1
1513174120164937,-1,-3,-1,-2,-3,0,-2,0
1513174120164937,-2,1,0,-1,0,0,-1,-1
1513174120166438,1,0,-2,0,-3,0,1,0
1513174120166438,-1,0,-2,-1,-1,1,-2,-1
1513174120179467,-4,-2,1,1,1,-1,1,-2
1513174120179467,-2,-1,-1,-1,-3,-1,-2,-1
1513174120185975,-2,-2,-1,-1,-1,-2,-2,-2
1513174120185975,0,0,-2,-2,0,-2,-1,1
1513174120201989,-1,-1,-2,0,-1,0,-1,-1
1513174120201989,-2,-1,0,-1,0,-3,-1,0
1513174120203966,1,-3,-1,-1,-1,-1,-1,-1
1513174120203966,-1,1,-2,-1,-3,-2,-1,-2
1513174120224989,-1,0,-1,-2,-2,-1,0,-1
1513174120224989,0,1,-3,-1,-1,-1,0,0
1513174120226490,-1,0,-3,0,-1,-1,-2,0
1513174120226490,0,-2,-2,-1,-1,-2,-1,1
1513174120239001,-2,-1,-3,-2,-2,-1,-2,0
1513174120239001,0,-3,0,-1,-1,-2,-2,0
1513174120246006,1,-2,-2,0,-1,-2,-1,-1
1513174120246006,-1,-1,-2,0,-1,0,1,-3
1513174120270021,-1,1,0,0,1,-1,-1,-3
1513174120270021,-2,-1,-2,-2,-1,-3,-1,-1
1513174120271514,-3,-1,-3,-1,-2,0,0,-1
1513174120271514,1,-2,-3,0,0,0,-2,0
1513174120285042,-3,-3,0,-1,0,0,0,-1
1513174120285042,-3,-3,-2,1,-2,-2,-1,-1
1513174120286544,-1,0,0,-1,1,-1,0,0
1513174120286544,0,-1,-1,-2,-1,0,-1,0
1513174120299032,-1,1,-2,0,-1,-1,0,-2
1513174120299032,-1,-1,0,0,-2,-1,-2,-1
1513174120306053,-2,-2,-1,-1,-2,-3,-1,-1
1513174120306053,-1,-1,-3,-2,-3,0,-1,-1
1513174120323049,0,-1,-1,-2,-1,-1,-2,1
1513174120323049,-4,-5,0,-2,1,1,0,-2
1513174120328552,0,-1,0,0,0,-1,-1,-2
1513174120328552,0,-1,0,0,-1,0,-1,0
1513174120344609,-1,0,-2,0,-2,-2,-2,-1
1513174120344609,0,0,-1,-1,-2,1,0,-2
1513174120346611,-1,-1,0,-1,-1,-1,0,1
1513174120346611,-2,-2,-1,1,0,-1,0,-1
1513174120359119,-1,1,-2,-1,-1,-2,0,-1
1513174120359119,-1,3,0,-2,-2,-2,-2,-2
1513174120366126,-1,-2,0,-1,1,0,1,-2
1513174120366126,2,1,-2,-2,-3,-2,-2,-2
1513174120382152,-1,-5,0,-1,-2,-1,-1,-2
1513174120382152,2,-2,-2,-2,0,0,0,-2
1513174120384140,-3,-2,0,-1,-1,-3,-1,2
1513174120384140,-3,-1,0,-1,0,-2,-1,0
1513174120404652,-1,-1,-2,-3,-2,0,-1,0
1513174120404652,0,0,-1,-1,-1,-2,-1,-1
1513174120406153,2,1,-3,0,-2,-1,-2,-1
1513174120406153,-2,0,-2,-1,0,-2,-2,0
1513174120419165,0,3,-1,-1,-1,-3,-1,-1
1513174120419165,-2,-2,-1,0,1,0,0,0
1513174120426167,1,-1,-1,-1,-2,0,0,0
1513174120426167,-1,-1,-2,-1,-1,-2,-1,0
1513174120442181,-2,-1,-1,0,-1,-2,-1,-1
1513174120442181,0,0,0,-1,0,-2,-1,0
1513174120443679,-1,-1,-1,0,0,0,-2,-1
1513174120443679,-1,0,-1,-2,-2,-2,-2,0
1513174120463716,-1,-1,-1,-3,-1,-2,0,0
1513174120463716,-2,-1,0,0,-2,-2,-1,-1
1513174120472722,-4,-2,0,-1,1,0,0,-3
1513174120472722,-1,0,-3,-1,-1,0,-1,-1
1513174120478218,-1,-2,-1,-1,1,0,0,0
1513174120478218,-1,-3,-1,-1,-3,-3,-2,-2
1513174120487210,3,-2,-4,-2,-1,-1,-1,0
1513174120487210,-2,-2,-1,1,0,0,-1,0
1513174120502230,-1,0,-1,0,-1,0,0,-3
1513174120502230,-1,-1,-1,-2,-2,-1,0,0
1513174120503721,0,-1,-2,-1,-1,-2,0,-2
1513174120503721,1,-2,-2,0,-1,-1,-1,-1
1513174120524736,0,1,0,-1,-2,-2,-2,0
1513174120524736,2,3,-1,-2,1,-2,-1,0
1513174120526238,-3,1,0,0,0,-1,0,-2
1513174120526238,0,-2,-2,0,-1,0,-2,-2
1513174120547253,-3,-2,0,0,0,-1,-1,-1
1513174120547253,1,-1,0,0,-1,-2,-2,-3
1513174120548757,-3,-3,0,-2,-2,0,-1,1
1513174120548757,1,1,-2,-3,0,-2,0,0
1513174120562767,-3,1,-1,-1,0,-1,-2,-1
1513174120562767,-2,-2,-1,0,-2,1,-2,-2
1513174120568278,-1,-1,-1,-1,-2,-2,-1,0
1513174120568278,-2,-3,-2,-1,0,-1,-1,-3
1513174120584779,-1,-2,-2,-2,-2,-2,0,-2
1513174120584779,0,1,-3,-2,-1,-2,-1,1
1513174120586280,-3,-1,1,0,0,1,-2,-2
1513174120586280,-1,-2,-1,-1,-2,-1,1,-1
1513174120607309,-1,-1,0,-2,-2,0,-2,-2
1513174120607309,-1,-3,0,-1,-1,0,-1,0
1513174120608806,1,-3,-1,-1,-1,-1,-1,1
1513174120608806,-3,-1,-2,-2,0,-1,0,1
1513174120622306,-2,0,-1,0,1,0,-2,-2
1513174120622306,-1,1,-1,-2,0,-2,-2,0
1513174120628311,3,2,-4,-2,-2,-1,-2,0
1513174120628311,-2,-2,0,0,-1,1,-1,-1
1513174120652327,-1,0,0,-1,-2,-3,-1,-1
1513174120652327,-2,-1,0,-2,-1,0,-2,-1
1513174120653828,-2,-2,-2,-2,0,0,0,-1
1513174120653828,-3,-3,0,0,0,-2,0,-2
1513174120658331,-1,-3,-2,-2,-1,-3,1,-1
1513174120658331,-2,-1,1,1,-1,-4,0,-2
1513174120667338,0,0,-1,-2,-1,-1,-1,1
1513174120667338,-1,-1,-1,-2,0,-1,0,0
1513174120682348,-2,-2,0,-1,-1,-2,-1,-1
1513174120682348,-3,-2,-1,-1,0,0,1,-3
1513174120683850,-2,-2,-2,1,-1,-1,-1,-1
1513174120683850,0,-1,-3,-2,-1,-1,-2,-1
1513174120704892,0,-1,-1,-2,-1,-1,-1,-1
1513174120704892,-1,-2,-2,-2,-1,-1,-1,-1
1513174120706375,1,-2,-1,-1,-1,0,-2,-1
1513174120706375,-5,-1,-2,0,0,-1,-1,-2
1513174120718373,-2,1,-1,-3,-1,-2,-1,0
1513174120718373,-1,-1,0,-3,-1,-2,0,-1
1513174120727380,-1,-2,-2,-2,-1,-2,1,0
1513174120727380,-1,-1,-2,0,0,0,1,0
1513174120741390,0,0,-2,0,-1,-1,-1,-1
1513174120741390,-2,0,0,1,-1,0,-2,-1
1513174120749897,1,-1,0,-1,-1,0,-2,0
1513174120749897,0,2,-2,-2,-2,1,-2,-1
1513174120764917,-2,-1,-1,-2,-1,-1,-1,-2
1513174120764917,-1,-1,-2,0,-2,0,0,-1
1513174120766408,-2,-2,-2,-1,-1,-2,-1,-2
1513174120766408,1,0,-2,-1,-2,-2,-3,0
1513174120786946,-2,-2,-1,-1,-1,0,-2,-2
1513174120786946,-2,-2,0,-2,-1,-2,-2,-1
1513174120793931,0,-2,-1,0,-1,-2,-1,-1
1513174120793931,-2,-2,-1,0,-2,0,0,-1
1513174120802446,0,-1,-1,-1,-1,0,-1,-2
1513174120802446,-2,1,0,-2,0,0,0,0
1513174120803946,-2,-1,-1,-1,-2,-2,0,0
1513174120803946,0,-2,-2,-2,0,-2,-1,-1
1513174120825451,-1,-2,-2,-2,-3,-1,-1,-1
1513174120825451,-5,0,2,1,-1,0,-1,-3
1513174120839472,-1,-1,-2,-1,1,1,-1,0
1513174120839472,1,-1,0,0,-1,-1,-2,0
1513174120839962,-1,-1,-1,-1,-1,-1,-1,-3
1513174120839962,2,0,-3,-2,-1,-3,-1,0
1513174120847476,-1,-3,-1,-1,-1,-1,-1,-1
1513174120847476,-2,-3,0,-2,0,-1,-1,-1
1513174120861975,-1,1,-1,-1,-2,1,-1,-2
1513174120861975,-1,-3,1,1,0,2,0,0
1513174120863988,0,0,-1,1,0,-3,0,0
1513174120863988,1,-2,-3,-2,-1,-1,-2,-1
1513174120884494,-2,-1,-1,0,0,-3,-1,-2
1513174120884494,-1,0,-2,-2,-2,-2,-1,-1
1513174120886496,0,0,0,-1,-1,-1,-2,-3
1513174120886496,0,-2,-1,-3,-2,-1,0,-2
1513174120907507,-2,0,-1,-1,-1,0,-1,1
1513174120907507,1,-2,-3,-1,-2,1,0,-2
1513174120909008,-3,1,-1,-2,-1,0,0,0
1513174120909008,-1,-1,-2,-1,-1,-2,-2,-1
1513174120921517,-2,-1,2,-1,1,-1,-2,-2
1513174120921517,0,-1,-2,-1,0,-2,-1,0
1513174120930032,0,0,-1,-1,0,0,0,-1
1513174120930032,-3,-2,-1,-1,-1,0,0,-1
1513174120944543,0,-1,-1,-1,-1,1,-1,-1
1513174120944543,-2,-2,-1,-3,0,-1,-1,0
1513174120946538,0,-2,-1,-1,-1,0,-1,0
1513174120946538,-1,-2,-1,0,0,-1,0,0
1513174120967049,-1,0,0,-1,0,-2,-2,-1
1513174120967049,-1,-1,0,-1,0,0,0,0
1513174120969067,-1,-1,-1,0,-1,-2,-1,0
1513174120969067,0,0,-2,-2,-2,0,-1,-2
1513174120982563,-1,-2,-1,-1,-2,-2,0,-2
1513174120982563,-1,-1,0,0,-1,-1,0,-3
1513174120984061,-1,-3,-3,-2,-1,0,0,-1
1513174120984061,0,0,0,0,2,-1,-2,0
1513174121004576,-3,0,1,-2,-2,-2,-1,-2
1513174121004576,-2,0,1,-1,-2,-2,0,-2
1513174121006577,-1,-2,-2,-1,-2,0,-1,1
1513174121006577,0,0,-4,0,-2,-2,0,0
1513174121027091,-2,-1,-2,-2,-2,0,-2,-2
1513174121027091,-1,-3,0,-3,-1,-1,-1,0
1513174121033095,-1,-2,0,-1,-2,-2,-2,-1
1513174121033095,-1,0,-2,0,-4,1,-2,1
1513174121042102,-1,0,0,-1,-1,0,-1,-1
1513174121042102,-1,-1,-2,-1,-1,-1,-2,-2
1513174121044103,0,-1,-2,-1,1,-1,0,0
1513174121044103,-1,-3,0,-2,-1,0,-1,-1
1513174121065118,-2,0,-1,0,-1,0,0,-1
1513174121065118,-1,0,-1,-2,-1,-1,-2,-3
1513174121072625,2,1,-2,-2,-1,-2,-1,-1
1513174121072625,0,0,-1,-1,-1,-1,-1,-1
1513174121087137,-4,-1,1,0,-1,-1,-1,-1
1513174121087137,-1,-2,-2,0,-1,-1,-1,0
1513174121089136,-1,-1,-3,-2,-1,-2,-1,-1
1513174121089136,0,1,-1,0,0,-2,-1,0
1513174121101661,-2,-2,-1,-1,-1,0,-1,-2
1513174121101661,-1,1,-1,-2,-2,0,0,-2
1513174121108651,-2,-4,1,0,-3,-1,-1,1
1513174121108651,-3,-2,-1,-2,-1,-2,0,-2
1513174121124661,-2,0,-1,1,0,-2,0,-1
1513174121124661,-1,-2,-2,-2,0,-1,0,-1
1513174121126662,-1,0,-1,-1,1,0,-1,-2
1513174121126662,-1,-1,-1,-2,-1,-2,-1,-2
1513174121147177,0,-2,-2,-2,-2,-3,-2,-1
1513174121147177,-2,-2,-2,-1,0,-1,-1,0
1513174121149178,-2,2,-2,-1,1,-2,-2,-2
1513174121149178,-1,-1,-1,-1,-1,0,-1,0
1513174121161687,1,-2,-1,-2,-1,0,0,-1
1513174121161687,-9,-3,4,1,1,-2,-1,-2
1513174121168204,-3,-2,-2,0,-2,0,-3,0
1513174121168204,0,-3,-1,1,-1,-2,0,-1
1513174121184703,0,-1,-2,-2,-2,-2,-2,-1
1513174121184703,2,-1,-2,0,-2,1,0,-2
1513174121186204,0,-2,0,0,-2,-1,0,0
1513174121186204,-3,-1,-1,-3,-1,-1,0,-3
1513174121207228,-3,-4,0,0,-1,-2,-2,-2
1513174121207228,0,0,-2,-4,-1,0,-1,-3
1513174121208729,-1,-1,0,0,-2,-1,-1,1
1513174121208729,1,0,-3,-2,-2,0,-1,-1
1513174121220761,-2,1,0,-2,-1,0,-1,-2
1513174121220761,0,-1,-1,-1,-1,-1,-2,1
1513174121229735,-2,-3,-2,-1,-1,-1,1,0
1513174121229735,-3,0,-1,-1,0,-1,0,-3
1513174121244746,0,0,0,-3,0,-2,0,-1
1513174121244746,0,-3,0,-1,-1,-3,-1,-1
1513174121246246,1,-1,-1,-1,-1,-1,-1,-1
1513174121246246,-2,-2,-1,0,-2,-1,-3,1
1513174121267261,-2,-1,-1,-2,0,-1,0,-1
1513174121267261,0,1,-1,0,-3,-1,0,-1
1513174121268762,0,-2,-1,-1,0,-2,-2,0
1513174121268762,-1,-1,-2,0,-1,-3,0,0
1513174121281787,-3,0,2,-1,-1,0,0,-1
1513174121281787,-2,-1,-2,-2,-1,0,-1,-1
1513174121288279,0,-4,-3,-2,-2,0,-2,-1
1513174121288279,-2,-3,-2,-2,-2,-2,0,-2
1513174121304788,3,1,-4,-2,-3,-3,-2,1
1513174121304788,-5,-5,1,1,-1,1,1,-1
1513174121306289,-2,-1,-1,-1,-2,0,0,-1
1513174121306289,0,-1,-1,-2,-1,-3,-1,-2
1513174121327303,0,-1,-1,-2,-3,-1,-3,-3
1513174121327303,-1,-2,-2,-1,1,-1,-2,0
1513174121328804,-2,0,-2,0,0,-2,0,-1
1513174121328804,-2,0,-1,0,-1,-1,-2,-1
1513174121341833,0,0,0,-1,0,-1,0,-1
1513174121341833,0,-1,-2,-1,-1,-3,-2,-1
1513174121348338,-2,-4,-1,-1,-2,0,0,-1
1513174121348338,-1,-3,0,-1,-1,-1,0,-1
1513174121364851,-3,0,0,0,0,1,-2,-1
1513174121364851,0,1,-1,-2,-1,0,0,-1
1513174121366362,0,0,-2,-2,-1,-2,-1,-2
1513174121366362,-2,1,-2,-2,-1,-1,0,-1
1513174121387418,-4,-2,1,-3,-1,-2,-2,-2
1513174121387418,1,-2,0,-1,0,-2,-2,-2
1513174121388866,-2,-2,-1,-3,1,0,-3,-2
1513174121388866,-1,-1,0,-2,0,-1,-3,-2
1513174121400877,-2,-2,-3,0,-1,-2,0,-1
1513174121400877,1,3,-3,-3,-3,-2,-1,-1
1513174121409891,0,-1,-1,0,0,0,0,1
1513174121409891,-4,-3,0,-2,0,2,0,-2
1513174121424892,1,1,0,-2,-2,-2,0,0
1513174121424892,3,4,-3,0,-2,-2,0,0
1513174121426407,1,-2,-3,-2,-2,-2,-1,1
1513174121426407,-1,-2,-2,-1,0,-2,-1,-1
1513174121447408,-1,-2,-2,-2,-2,-2,-1,-2
1513174121447408,-2,-3,-1,-1,-2,-3,-1,-1
1513174121448909,-2,-2,-3,0,-1,-1,-1,-1
1513174121448909,-1,-1,0,-1,0,-2,-2,0
1513174121460936,0,-1,-1,0,-1,-2,-3,-2
1513174121460936,0,-1,-1,-1,-2,0,-1,-3
1513174121469929,-2,0,-1,-1,-1,0,0,-2
1513174121469929,0,0,-1,-1,-1,-2,0,-1
1513174121484948,-2,-3,0,-1,-1,-1,-3,-2
1513174121484948,-3,-2,-2,-1,-2,0,-2,-2
1513174121486449,-2,-1,0,0,-1,-1,0,-1
1513174121486449,-1,0,-2,-1,-3,0,-1,-2
1513174121507451,1,2,-4,-1,-1,-2,0,-2
1513174121507451,-4,-3,-1,1,0,-1,-2,-2
1513174121508953,1,-1,-2,0,0,0,-1,-1
1513174121508953,2,0,0,-1,-1,-2,-3,-2
1513174121529966,-2,-2,-2,0,-1,-1,-1,0
1513174121529966,-1,-1,0,-2,-1,-2,-2,0
1513174121537471,0,-1,-2,-1,-1,-1,0,0
1513174121537471,-3,-1,0,-1,-1,1,-1,-1
1513174121544977,-4,-1,0,0,0,-1,0,-1
1513174121544977,-1,-1,-1,0,0,-1,0,-1
1513174121546478,-1,-2,-1,-1,-2,-1,-1,0
1513174121546478,0,-2,-1,-1,-2,-1,-3,0
1513174121566995,-4,-2,1,1,0,-2,0,-2
1513174121566995,-2,-1,0,0,0,-1,0,0
1513174121569008,1,-2,-2,-2,-2,-2,-3,0
1513174121569008,0,-3,0,-1,-1,-2,0,0
1513174121581004,-1,-2,-2,-1,0,1,0,-1
1513174121581004,-4,-4,1,1,1,0,-1,-2
1513174121590009,0,-2,-2,0,-1,-2,-1,-1
1513174121590009,-1,0,-2,-1,-1,-2,1,0
1513174121604521,-3,-2,0,0,-1,0,-3,-1
1513174121604521,0,-1,-4,-3,-1,-2,-1,1
1513174121606521,0,-1,-2,0,1,-1,0,-1
1513174121606521,-3,-3,-2,0,-2,-2,0,-2
1513174121627035,3,0,-1,-3,-2,-1,0,0
1513174121627035,0,-3,-2,-2,-1,-1,0,0
1513174121629036,-1,0,1,0,-1,0,-3,-1
1513174121629036,2,2,-3,-1,-2,0,-2,-1
1513174121641044,-1,-2,-1,-1,-2,-1,-1,-1
1513174121641044,0,1,-2,0,-1,-3,-1,-2
1513174121650051,-2,-1,-3,-2,-2,-1,0,-2
1513174121650051,1,0,0,-1,0,-1,-1,-1
1513174121665081,2,1,-2,-2,-1,-3,-2,0
1513174121665081,-1,-2,-1,0,0,1,-1,0
1513174121666565,-4,-1,-1,0,-2,0,-2,1
1513174121666565,1,-5,-4,-3,-1,-2,-2,-4
1513174121687100,3,3,-1,-2,-1,-2,-1,-2
1513174121687100,-7,-6,0,-2,-1,0,-1,-3
1513174121689090,-1,-2,-1,0,1,0,1,0
1513174121689090,-1,-1,-3,-3,-1,0,0,2
1513174121701587,1,-2,0,-1,0,1,-1,0
1513174121701587,3,3,1,0,-3,-3,-2,0
1513174121710094,-2,-3,1,2,3,0,-1,-2
1513174121710094,-3,1,0,-2,-3,-1,-1,-1
1513174121724605,-5,-1,-2,-1,0,1,-1,-1
1513174121724605,0,2,-2,-1,-1,-2,-1,0
1513174121726605,1,0,-2,-2,-4,-2,-2,-1
1513174121726605,-4,-1,-1,0,-1,-1,-1,-3
1513174121747141,-3,-2,-3,-1,-1,-1,-2,-1
1513174121747141,0,-2,-1,-1,0,-2,-2,1
1513174121749125,1,-1,-1,-1,-2,-2,-2,0
1513174121749125,-2,2,-2,-1,-1,-2,-1,-2
1513174121761153,-2,-1,1,-3,-2,-2,1,0
1513174121761153,1,-2,-3,0,-2,-1,-2,-1
1513174121770146,1,0,0,-1,-1,0,0,0
1513174121770146,-1,-2,-2,0,-1,-1,-2,-1
1513174121784663,-3,-1,-1,0,-1,-2,-1,-4
1513174121784663,1,-1,-1,-1,-1,-2,0,0
1513174121786147,0,-1,-3,-3,0,-2,1,-3
1513174121786147,-3,-2,0,-1,-1,-2,0,-2
1513174121807173,-1,-2,-2,-2,0,-2,-2,0
1513174121807173,1,-2,0,-1,0,0,-2,2
1513174121809180,-2,-3,-2,-1,-2,-1,0,-1
1513174121809180,0,0,0,-1,-1,-1,1,-3
1513174121821182,-1,-1,0,-1,-2,-2,-1,0
1513174121821182,-4,-2,-2,-2,-1,-2,0,0
1513174121829678,0,-1,-2,-1,-2,-1,-1,-1
1513174121829678,-6,-2,2,1,0,-1,-1,-3
1513174121844689,-2,0,-1,-1,-2,0,0,-3
1513174121844689,-1,1,-2,-1,-1,-2,0,-1
1513174121846190,-1,0,-4,-1,-1,-2,-1,-2
1513174121846190,-1,-1,-3,-1,-1,-1,-1,-1
1513174121867220,-1,-2,-1,-1,-3,0,-1,-2
1513174121867220,2,-1,-1,-1,-2,0,-2,-1
1513174121869206,-1,-1,0,-3,0,-1,-3,0
1513174121869206,-2,-1,-2,-2,0,-2,0,-1
1513174121889722,-2,-1,0,-1,-1,-1,1,-1
1513174121889722,2,-2,-2,-1,-1,1,0,-2
1513174121891225,-2,-1,0,-1,-1,-1,1,0
1513174121891225,-3,-5,1,1,0,1,-1,0
1513174121904732,-1,0,-1,-3,-2,-3,-1,-2
1513174121904732,0,-1,-3,-2,-1,0,-1,0
1513174121906235,-3,0,-2,1,0,-2,-1,1
1513174121906235,0,0,-2,-2,-3,-2,-2,0
1513174121927264,0,1,-1,3,0,3,-1,-2
1513174121927264,-2,0,-1,-1,0,-1,-1,-1
1513174121929250,0,0,-1,-3,-1,-2,-2,-1
1513174121929250,1,-1,-1,-1,-2,-2,0,0
1513174121949764,0,-1,0,0,-1,-1,-2,0
1513174121949764,-1,-3,0,-1,-1,-2,-1,-1
1513174121951266,-3,-2,-1,-1,-1,-2,-2,-2
1513174121951266,1,-1,-2,-2,0,-2,-1,-4
1513174121964792,1,-1,-1,-1,0,-2,0,-2
1513174121964792,-1,-2,0,0,1,-2,1,-1
1513174121966292,0,-1,-3,-1,0,-1,-1,2
1513174121966292,-5,-2,-1,-1,0,0,-1,-2
1513174121987311,-1,-1,0,-1,0,-2,-2,-1
1513174121987311,0,0,-2,0,-2,-1,0,0
1513174121988803,2,1,-2,-3,-2,0,-1,-1
1513174121988803,-2,-1,1,0,-2,-1,-2,1
1513174122009825,-1,-3,-2,-3,1,0,0,0
1513174122009825,-1,-3,-2,-2,-2,-1,-1,-2
1513174122011316,-1,-1,-2,-1,-1,0,-2,-1
1513174122011316,-1,0,0,-2,-2,0,-1,-2
1513174122024315,-1,1,1,-2,-3,-2,-1,0
1513174122024315,-1,-2,-2,-1,0,1,0,0
1513174122030823,-2,-3,-1,-1,-1,1,2,0
1513174122030823,-1,1,-2,-3,-2,-3,-1,-1
1513174122047333,-3,-3,-1,-1,0,-1,-2,0
1513174122047333,1,0,0,-1,-2,-2,0,-1
1513174122048833,-1,-3,-2,-1,-1,-1,-2,-2
1513174122048833,0,1,-3,-2,-1,-2,-2,-1
1513174122069849,-1,0,-1,0,-2,-1,-1,-2
1513174122069849,-3,0,-3,1,-1,-1,-2,0
1513174122071363,-2,-2,-3,-1,-1,-2,0,-1
1513174122071363,1,-3,-1,-2,0,0,1,0
1513174122083885,0,-4,1,-2,0,-2,-1,-1
1513174122083885,-5,0,1,0,-2,0,-2,-1
1513174122090873,0,-1,-1,0,-2,-3,-1,-1
1513174122090873,2,-1,-4,-1,-1,0,-1,0
1513174122107374,0,0,-2,-1,-2,-3,-1,-1
1513174122107374,1,-1,-2,-1,-2,-2,-2,0
1513174122108876,-1,-1,1,0,0,0,-1,-2
1513174122108876,0,0,-1,1,0,0,0,-2
1513174122129891,-2,0,-1,-2,-2,0,0,-3
1513174122129891,1,0,-2,-7,-3,0,-2,-1
1513174122131392,1,0,-1,9,5,2,-1,0
1513174122131392,-3,0,-2,-2,-3,-1,-1,-1
1513174122143905,-3,-3,-2,0,0,0,-1,0
1513174122143905,-1,-1,-1,-2,-2,-1,-1,0
1513174122158414,-1,0,-2,-7,-2,-2,-1,0
1513174122158414,-2,0,0,-1,0,-1,-4,-6
1513174122167421,2,0,-1,-1,-1,1,-1,-2
1513174122167421,-1,-2,0,-1,-1,-1,0,-1
1513174122168918,0,-2,-1,-2,-4,-2,1,-1
1513174122168918,-2,-1,0,-2,-1,-2,-1,-1
1513174122189950,-2,-1,-1,-2,-2,-2,-2,0
1513174122189950,1,-1,-1,1,3,-1,1,-1
1513174122191434,1,-1,-2,-2,0,-2,-2,-3
1513174122191434,-3,-1,0,-1,-1,0,-2,0
1513174122203952,-3,-2,1,-1,-1,-3,-2,-3
1513174122203952,0,0,-3,0,-1,0,-1,0
1513174122210957,-1,-4,-2,0,-3,-1,-1,-1
1513174122210957,-2,0,-3,-1,-2,-2,0,-1
1513174122227460,-1,-1,-2,1,0,2,-1,0
1513174122227460,0,0,-2,-1,-1,-2,-1,-1
1513174122228961,-2,-1,-2,-3,-1,-3,-2,0
1513174122228961,-1,0,-2,-2,-2,-1,0,-1
1513174122257481,0,-1,1,-2,-1,-1,-1,0
1513174122257481,-3,-2,-1,0,1,-1,-2,-1
1513174122258982,-1,-1,-2,-2,0,0,0,0
1513174122258982,-2,-3,-1,-1,0,-2,-2,0
1513174122263985,-1,1,0,1,-2,-2,-2,-1
1513174122263985,-1,-2,-1,1,0,-1,-1,-1
1513174122270990,0,-1,-3,-3,0,-2,-1,1
1513174122270990,-2,1,0,0,-1,-2,0,-1
1513174122287004,0,0,-3,-2,-3,0,0,-2
1513174122287004,0,-1,-1,-1,-1,-1,-2,0
1513174122289002,-2,-1,-2,-1,-1,0,-2,-1
1513174122289002,-1,-1,-1,-1,-1,0,0,-2
1513174122310018,-1,-2,-1,-2,-1,-1,-2,-2
1513174122310018,2,1,-5,-2,-2,-1,-2,-1
1513174122311519,-1,-2,-2,-1,-1,-2,0,-3
1513174122311519,2,-1,-1,1,-2,0,-1,0
1513174122324530,-1,-1,0,0,-1,-2,0,-2
1513174122324530,-1,-4,-1,0,-1,-1,-1,-1
1513174122331058,-2,-2,0,-1,-1,1,0,1
1513174122331058,-3,0,0,-2,-2,-1,-1,0
1513174122347055,-1,-1,0,0,0,0,-1,-1
1513174122347055,-1,-2,0,0,-1,-2,-1,0
1513174122349057,-2,-2,-3,-3,-1,0,-2,-2
1513174122349057,-2,1,-1,-2,-1,0,0,-1
1513174122369572,-2,-1,-1,0,1,0,-1,1
1513174122369572,-2,-3,-1,-1,-1,0,-1,1
1513174122371564,-2,-3,0,-1,-2,-1,-2,-1
1513174122371564,-1,-3,-2,-2,-2,-2,-1,-1
1513174122383571,0,-1,-1,-2,0,-2,-3,-2
1513174122383571,-4,-2,1,0,1,-1,-1,-3
1513174122392579,2,-1,-4,0,-2,-2,-2,-1
1513174122392579,-2,0,-1,-1,0,-1,-2,-4
1513174122407099,-2,-1,-1,-2,-2,-1,0,-1
1513174122407099,0,-1,-1,-1,0,-1,0,0
1513174122409099,0,0,-1,1,1,1,-1,-1
1513174122409099,-1,-1,-1,-1,-1,-3,-1,-2
1513174122429632,-3,0,-1,-1,-2,-2,1,0
1513174122429632,1,0,-3,-2,-2,-2,-2,-3
1513174122431104,-2,-1,0,0,-2,-2,-2,-2
1513174122431104,-1,0,-2,-1,-1,0,-2,0
1513174122443612,-2,-1,0,-2,-1,-2,0,-2
1513174122443612,-2,-2,-2,-1,-2,-1,-1,1
1513174122460138,0,-4,-1,0,0,0,-1,1
1513174122460138,0,1,0,0,-2,-2,0,-1
1513174122467141,-1,-1,-1,-1,-1,0,-1,-1
1513174122467141,-3,-2,0,-2,0,-2,-1,-2
1513174122469134,0,0,-2,-3,-2,0,0,-1
1513174122469134,-2,-3,-1,-2,-2,-1,-1,-1
1513174122489644,0,-1,-1,0,-1,1,-1,0
1513174122489644,5,2,-3,-3,-2,-2,-2,1
1513174122491147,-7,-5,-1,0,0,0,-2,-3
1513174122491147,-1,-2,0,-2,-2,-2,-2,-2
1513174122503165,-2,-3,-2,-1,-2,-2,-2,-2
1513174122503165,0,-2,-2,-1,-1,-1,-2,-1
1513174122512672,1,0,-1,-1,-3,-1,0,1
1513174122512672,-2,-3,-1,0,0,2,0,-1
1513174122527183,-2,0,1,0,0,-2,-2,-1
1513174122527183,-1,-2,-3,-1,-2,-1,-1,-2
1513174122533197,0,-3,-1,-2,-2,-2,-3,1
1513174122533197,-1,-1,-2,0,-1,-1,0,-1
1513174122549687,0,-2,-2,-2,-2,-1,0,-1
1513174122549687,-1,-1,-1,0,0,1,0,-1
1513174122551189,0,0,-2,-1,1,-3,-1,-2
1513174122551189,0,1,0,0,-2,-1,-1,-1
1513174122563206,-4,-1,0,-2,-2,-3,-1,-2
1513174122563206,-2,-3,-1,-1,-2,-3,-1,0
1513174122572204,2,0,-2,0,-1,0,0,0
1513174122572204,-2,-1,-1,1,1,-1,-2,-2
1513174122587239,1,-2,-3,0,0,0,-2,-1
1513174122587239,-2,-1,-1,-2,1,0,-1,0
1513174122588715,0,0,-2,-1,-1,-3,-2,0
1513174122588715,1,-1,-2,-4,-3,-2,-2,-2
1513174122609734,0,-1,0,0,1,0,-1,-2
1513174122609734,2,-1,-1,-1,0,-1,-1,1
1513174122611231,-2,-1,0,-2,-1,-1,-1,0
1513174122611231,-1,-1,0,0,1,-3,0,0
1513174122623259,-2,1,-2,-2,0,1,-1,-1
1513174122623259,-3,-2,-1,-1,0,-2,-1,-1
1513174122632258,-4,-3,-2,-2,-2,0,-1,-2
1513174122632258,-2,-2,-1,-1,0,-1,-1,-2
1513174122647268,-4,-1,0,-2,-2,-1,-1,-3
1513174122647268,-2,0,-4,-1,-1,-2,1,0
1513174122648757,-4,-3,2,1,1,0,1,-2
1513174122648757,-2,0,1,0,-2,-2,-3,-2
1513174122669772,0,-2,0,-1,-2,0,-1,0
1513174122669772,-2,-1,-2,0,-2,-1,-1,-1
1513174122671273,2,1,-1,-1,-1,0,-2,-1
1513174122671273,-2,-3,-2,-3,-2,1,1,0
1513174122683282,0,-2,-2,-2,-1,-1,-1,-1
1513174122683282,1,-1,-1,-2,-1,-3,-1,1
1513174122692288,0,-2,-3,-1,-1,-1,0,1
1513174122692288,-2,-1,-1,-2,-1,-1,0,-2
1513174122707319,-5,-1,1,-1,1,0,-1,-3
1513174122707319,-3,-3,-3,-2,0,0,-2,0
1513174122708804,-1,1,-1,-1,-2,0,0,-1
1513174122708804,-3,-1,-1,-1,-1,-3,-2,0
1513174122729816,-1,1,0,-4,-1,0,-2,-1
1513174122729816,-1,0,0,2,-1,2,-1,-2
1513174122731315,1,0,-3,-2,0,-2,0,-3
1513174122731315,-2,0,0,-1,-2,0,-2,-1
1513174122743336,0,0,-2,-1,-2,-1,-2,-1
1513174122743336,-5,-4,0,1,2,0,1,0
1513174122752330,-1,-1,-3,-1,-2,-1,-1,1
1513174122752330,-2,-2,-2,-1,0,-3,0,-3
1513174122767353,0,-2,-3,1,-1,-2,0,0
1513174122767353,1,-1,-2,-1,-1,-1,-1,-1
1513174122768842,-2,0,-2,-2,0,-2,0,-2
1513174122768842,0,-1,-1,-2,-1,-1,-1,0
1513174122789859,0,-2,-1,-1,0,-2,0,-1
1513174122789859,2,-1,-2,-1,-2,-1,-1,-1
1513174122791359,-2,-1,-1,-3,1,-1,-2,-1
1513174122791359,-1,-2,-1,-2,0,-1,-2,-1
1513174122812376,1,0,-1,-1,0,0,-2,1
1513174122812376,0,-1,-1,-1,-1,0,-1,-1
1513174122813884,-1,0,0,-3,-1,-2,-2,-2
1513174122813884,-2,0,0,-1,-1,0,-2,-3
1513174122827383,0,-1,-1,-2,-2,0,-1,2
1513174122827383,-3,0,-1,-1,0,-2,-1,0
1513174122828884,-4,-2,0,0,0,1,-1,-2
1513174122828884,0,-1,-2,-1,0,1,1,-3
1513174122849942,-1,-1,-1,-2,-2,-2,-2,-1
1513174122849942,-1,-3,0,-3,-2,-2,-1,-2
1513174122851454,-1,-1,-3,-1,-2,-1,-3,-1
1513174122851454,-3,-4,2,0,0,0,1,-1
1513174122872448,-3,-2,-2,-1,-1,-2,-1,0
1513174122872448,2,0,-3,-2,-1,1,-2,0
1513174122873949,-1,-1,-2,0,0,0,0,-1
1513174122873949,0,1,-1,0,-1,-2,-2,-2
1513174122887460,0,-3,-3,1,-1,-1,0,0
1513174122887460,-2,-2,0,1,0,-1,1,-1
1513174122888960,0,-1,-1,-2,-1,-2,0,0
1513174122888960,-2,-1,-3,-2,-1,-1,-2,-1
1513174122909495,0,-2,-1,-2,0,0,0,-2
1513174122909495,-1,-2,-2,0,-1,-1,0,-1
1513174122911497,-2,1,-2,-1,-2,-1,-1,-1
1513174122911497,-1,2,-1,0,-1,-1,0,-1
1513174122932012,-4,-5,3,-2,-1,1,-1,-1
1513174122932012,0,-2,-2,-2,-2,-1,0,0
1513174122933992,0,-3,-1,0,-2,-1,0,-2
1513174122933992,0,-1,-2,-2,-3,-1,-1,-2
1513174122947006,0,-1,-2,-2,1,-1,-2,-2
1513174122947006,1,-2,-3,-1,0,-2,-1,-1
1513174122949003,-6,-4,2,-1,0,0,-2,-2
1513174122949003,1,2,-1,-2,-2,-1,-2,-2
1513174122977042,-2,2,-1,-1,-1,-3,-1,-1
1513174122977042,-1,0,-1,-2,-1,-1,-1,-1
1513174122979025,0,-3,-3,0,0,-2,0,-1
1513174122979025,-2,0,-2,0,-2,0,-1,1
1513174122993033,-1,1,0,0,-2,-1,0,-2
1513174122993033,0,-2,-1,-1,0,1,0,0
1513174122994549,1,0,-2,-1,-1,0,-1,-1
1513174122994549,-1,-1,-1,-3,-1,-1,-1,-2
1513174123006554,0,-1,-3,-1,-2,-1,0,0
1513174123006554,-2,-1,-1,-2,-2,0,-1,-1
1513174123013548,-1,-4,0,-2,-2,0,-1,0
1513174123013548,-1,-3,0,-2,0,-1,-1,-1
1513174123029565,-1,-2,-1,1,1,1,-1,-1
1513174123029565,-1,0,-2,-1,-2,-3,-1,0
1513174123031562,0,0,-1,-1,-1,-1,-1,-1
1513174123031562,-3,1,0,1,-1,-2,-2,0
1513174123052076,-1,0,0,-1,-2,-2,-2,-2
1513174123052076,-2,-1,-2,0,-2,0,-1,-1
1513174123054078,2,0,-4,-2,-1,-1,-1,-1
1513174123054078,-4,-1,1,-2,-1,0,-1,-3
1513174123066586,1,-1,-2,-3,0,0,-1,0
1513174123066586,-2,-1,-1,0,0,-2,0,1
1513174123073591,0,0,-2,-3,-3,-2,-2,0
1513174123073591,-1,0,-1,0,-1,0,-2,-1
1513174123089602,0,-2,-1,-2,-1,-1,0,0
1513174123089602,-1,-2,-2,-1,-2,-2,0,-1
1513174123091104,-1,-1,-1,0,-2,-1,-1,-1
1513174123091104,-1,-1,-1,0,-2,-1,-2,0
1513174123112118,1,-1,-1,-2,-3,-1,-1,0
1513174123112118,0,-3,-1,-1,-1,-2,-1,-2
1513174123113620,-3,-1,0,-1,0,-1,0,-1
1513174123113620,0,-2,0,0,-1,-2,1,-2
1513174123126629,-1,-1,-1,0,-1,-1,-1,0
1513174123126629,0,0,-1,-2,-1,0,-1,0
1513174123133149,-2,1,-1,0,-1,-1,-2,-2
1513174123133149,1,-3,-1,-2,-1,0,-2,-3
1513174123149666,-1,0,0,-1,-1,-2,-1,-2
1513174123149666,0,-1,-1,0,0,0,-1,-2
1513174123151146,-1,0,1,0,-1,-1,0,0
1513174123151146,0,1,-1,-1,-3,-3,0,-1
1513174123172172,-2,-5,-1,0,0,-2,-1,-1
1513174123172172,-2,-1,-2,-1,-2,0,-2,0
1513174123173662,-2,-2,-3,-3,-1,-1,-1,-2
1513174123173662,-2,-1,-2,-1,0,0,0,1
1513174123186674,-2,-2,-1,-2,-1,-2,-1,-1
1513174123186674,-1,-1,-2,-1,-2,-2,-2,-3
1513174123193176,-2,-2,-1,1,-1,-1,-1,-1
1513174123193176,-3,-2,1,0,-1,-1,-2,-3
1513174123209687,-1,0,-1,0,0,0,-1,0
1513174123209687,-2,0,-1,-2,1,-1,0,1
1513174123211188,0,2,0,-1,-3,0,-1,-3
1513174123211188,0,-2,-2,-2,0,-1,-3,-3
1513174123232226,-1,-2,0,-1,0,-1,-1,0
1513174123232226,0,-1,-2,-1,-3,0,0,-2
1513174123234216,0,-1,-1,-1,0,0,-1,0
1513174123234216,-4,0,-1,-1,-1,-2,-2,-1
1513174123246713,-2,-1,-1,-1,-2,-2,-1,-2
1513174123246713,-2,-2,0,-2,-2,-2,-1,-1
1513174123253218,-1,0,-2,-2,-1,-2,0,-2
1513174123253218,-1,0,-1,1,-2,-1,-2,-1
1513174123269228,-1,-2,-2,0,-1,-3,-1,-1
1513174123269228,-1,-1,-1,-2,-1,-2,-2,0
1513174123275733,-6,-4,0,0,1,0,0,-1
1513174123275733,0,-1,-1,-1,-1,-1,0,-1
1513174123292245,-1,-1,-1,-2,0,0,0,-2
1513174123292245,1,-4,-1,-1,-2,0,-1,-2
1513174123294747,-3,-4,0,-1,-1,-1,-1,-2
1513174123294747,-1,0,-1,-1,-1,0,0,0
1513174123305769,-1,-3,-2,-1,-1,-2,-1,-1
1513174123305769,-4,-2,-1,1,0,-1,-1,-2
1513174123314761,-1,0,-4,-1,-2,-1,-3,-1
1513174123314761,-1,-1,-1,-3,-2,-1,-1,0
1513174123329771,-1,1,-2,0,0,0,-1,0
1513174123329771,0,0,-1,-2,0,-2,-1,-1
1513174123331273,-3,0,-2,0,-1,-2,-1,-1
1513174123331273,-2,-2,1,0,0,0,-1,-1
1513174123353326,-1,-1,0,0,-2,-2,0,0
1513174123353326,-1,-2,-1,0,-1,1,-1,-1
1513174123354827,-3,-4,3,0,1,0,-1,-1
1513174123354827,0,0,-2,-1,-1,-1,-1,-1
1513174123365845,-1,-2,-2,0,-2,-2,-2,0
1513174123365845,-1,-1,-1,0,0,0,1,1
1513174123374833,0,-1,-2,-2,-2,-1,-1,-1
1513174123374833,-2,-1,-1,-2,-1,-2,-1,-2
1513174123389843,-4,-1,-2,2,-1,1,-1,-1
1513174123389843,0,-1,-1,-3,-2,-2,-1,-1
1513174123391344,0,-3,-2,-2,-2,-1,-2,-1
1513174123391344,-2,-1,-2,-1,0,-1,-1,-1
1513174123412379,3,-3,-2,-1,-1,-1,-2,0
1513174123412379,-1,-1,-3,-2,-1,-2,0,-1
1513174123413860,-1,0,-2,-1,0,-1,-1,0
1513174123413860,0,1,-2,-2,-2,-3,1,-3
1513174123425868,0,0,0,-1,-1,-1,-1,-1
1513174123425868,-4,-1,-2,-1,-3,-1,-1,-2
1513174123434875,-3,0,0,0,-1,0,0,-2
1513174123434875,0,-1,-1,-1,-1,-1,-2,-1
1513174123449410,1,-1,-1,-2,0,-1,-2,-1
1513174123449410,1,-2,-2,0,0,-1,-1,0
1513174123455915,-2,-1,-2,-5,-3,-1,-2,0
1513174123455915,-2,1,0,-1,-1,0,0,-1
1513174123472415,-2,-3,-2,-1,-2,0,1,-1
1513174123472415,2,0,-2,-1,-2,-2,-2,0
1513174123473906,1,0,-2,-1,-2,-3,-1,-1
1513174123473906,-3,-3,0,-1,-1,0,0,-2
1513174123486414,1,-2,-1,0,-1,0,-1,0
1513174123486414,-1,-1,-1,-1,0,0,-2,0
1513174123494918,1,-1,-1,0,-1,-2,-1,-2
1513174123494918,0,-2,-1,-2,-2,-1,-2,-2
1513174123508941,-1,-1,-2,-4,-1,0,-1,-2
1513174123508941,-1,-1,-1,1,0,-2,-2,-1
1513174123509942,-1,1,0,0,0,-1,-1,-1
1513174123509942,-3,-1,1,1,0,-1,-1,0
1513174123531445,-1,-2,1,-1,-2,-1,-1,-1
1513174123531445,-1,-3,-2,-1,-1,-2,-1,0
1513174123532446,-2,-1,-2,-2,-1,-1,0,-2
1513174123532446,0,1,-1,0,-2,-1,-1,-3
1513174123553959,-2,-1,-2,0,1,1,-1,-1
1513174123553959,-4,-3,1,1,1,0,0,-1
1513174123554960,-2,0,0,-2,0,0,-1,-1
1513174123554960,0,-1,0,0,-2,1,-1,-1
1513174123577476,2,4,-3,-2,-3,-2,-4,-2
1513174123577476,0,-1,-3,-2,0,-2,-2,0
1513174123577977,-1,-1,-1,-3,-1,-1,0,-2
1513174123577977,-3,-2,-1,-3,-2,-2,-1,-1
1513174123591486,0,-2,-3,-1,0,-1,-1,0
1513174123591486,3,-1,-2,-2,-1,-2,0,0
1513174123592487,-3,0,-1,0,-2,-2,-1,-1
1513174123592487,1,-1,-1,-3,-1,-2,-2,-1
1513174123614011,-2,-2,0,0,-1,-1,-2,-1
1513174123614011,-2,-1,-1,-2,0,-1,-2,-1
1513174123615004,-3,-2,0,-2,-1,0,-1,-1
1513174123615004,0,-1,-1,-1,-1,0,-3,0
1513174123637033,-1,-2,-2,0,1,0,1,-1
1513174123637033,-2,-1,-2,-1,0,1,-1,-1
1513174123638018,1,1,-2,0,-2,-2,-2,0
1513174123638018,1,-1,-2,0,-2,-2,1,-1
1513174123651553,-3,-2,2,-1,0,0,-2,-2
1513174123651553,0,-1,-3,-1,-2,0,0,1
1513174123652541,-5,-2,-2,-1,1,-1,0,-2
1513174123652541,0,-1,-2,-1,1,-3,-1,-1
1513174123674056,0,0,0,0,-2,-2,-2,-1
1513174123674056,-1,-1,-2,-1,-2,-1,-1,-1
1513174123675049,-4,-4,1,0,-2,0,-1,-1
1513174123675049,-2,-2,-1,-1,-1,-2,-1,-3
1513174123689077,-1,-2,-1,-1,0,-2,0,-1
1513174123689077,-2,0,-2,0,-1,-2,-1,0
1513174123690055,0,2,0,-3,-3,-3,0,-1
1513174123690055,-2,0,0,-1,2,-1,-2,-1
1513174123711570,-1,-1,-3,-2,-2,-1,-1,1
1513174123711570,1,0,-2,0,-1,0,-1,-1
1513174123712070,-1,-1,-2,-3,-1,-2,-2,-2
1513174123712070,-2,0,1,-1,-1,-1,1,-1
1513174123734089,-1,-1,-2,-1,-1,-1,-1,0
1513174123734089,-1,-2,-1,-2,-1,-2,0,0
1513174123735087,0,0,0,0,0,0,-1,-1
1513174123735087,1,0,-1,0,-1,-1,-2,-1
1513174123749113,-1,-1,-1,-2,0,1,-1,-1
1513174123749113,-2,0,-2,-1,-1,-1,0,0
1513174123749613,2,2,-4,-4,-3,-1,-2,0
1513174123749613,-2,1,-1,-2,0,0,-2,-1
1513174123779619,2,0,-2,-1,-2,-2,0,-1
1513174123779619,-1,-4,1,1,1,-1,-1,-2
1513174123780620,-1,0,-1,-1,-1,0,-1,-2
1513174123780620,-2,0,0,-1,0,-2,-1,0
1513174123794129,-2,-1,-2,-1,-1,-2,-2,0
1513174123794129,0,-1,-3,-1,-3,0,-2,-2
1513174123795130,-1,-1,0,0,1,-1,-1,-2
1513174123795130,-1,-2,-1,-3,-2,-1,-1,0
1513174123809155,-1,-2,-2,0,-2,-1,-1,0
1513174123809155,-1,-1,-2,-1,2,-1,0,0
1513174123809642,-2,0,-2,0,-1,-2,-1,-3
1513174123809642,-1,1,-2,0,-2,0,0,-1
1513174123831655,-1,1,0,-2,1,0,-1,0
1513174123831655,-3,-1,0,1,0,0,-1,-1
1513174123832157,0,0,0,-1,0,0,0,-1
1513174123832157,-1,-2,0,-1,-2,-2,-2,-1
1513174123854185,0,-3,-1,1,-1,-1,-1,0
1513174123854185,-2,-2,-2,-1,1,-2,-1,0
1513174123854672,-1,0,0,-1,0,-1,0,0
1513174123854672,-3,-3,-1,-1,-2,-1,-1,-2
1513174123869692,1,1,-1,-1,-1,0,-1,-1
1513174123869692,0,1,-2,-2,-2,0,-1,-1
1513174123870182,0,-3,-2,0,-2,-2,-1,0
1513174123870182,-3,-1,0,0,0,1,0,-3
1513174123891698,-1,-2,-1,-1,2,-1,0,-1
1513174123891698,0,-1,-1,-2,0,-2,-1,-1
1513174123893199,-2,-2,0,0,-3,-2,-2,-2
1513174123893199,-1,-1,-2,-2,-1,-1,-1,1
1513174123913728,1,-3,-3,0,-3,1,0,-2
1513174123913728,-1,-2,-2,1,-3,-2,-2,-2
1513174123914716,0,-2,-1,0,-1,1,-1,-2
1513174123914716,0,-2,0,-2,-2,-1,-2,0
1513174123929230,0,0,-2,-1,0,0,0,0
1513174123929230,1,0,-2,-2,-2,0,0,-1
1513174123929724,-4,0,-1,-2,-2,-3,-2,0
1513174123929724,0,-2,0,0,-2,-1,-2,-1
1513174123951242,-1,-2,0,-1,-1,-1,0,0
1513174123951242,-2,-1,-1,-1,0,-2,-2,-1
1513174123952240,-1,-1,-2,-2,-1,0,-1,-2
1513174123952240,-1,0,-2,-2,-1,-2,-1,-1
1513174123974274,-2,-1,-3,-1,-1,-1,-1,0
1513174123974274,-2,0,-1,-3,-2,-1,-3,-1
1513174123974756,-1,0,0,-3,-2,-1,-1,-2
1513174123974756,2,1,-4,-2,-1,-1,-1,-2
1513174123989266,-1,-2,-1,0,-1,-2,0,-2
1513174123989266,1,0,-1,0,0,-1,0,-1
1513174123989771,-1,1,-1,-3,-1,-2,-1,-2
1513174123989771,0,-3,-1,1,-2,0,-1,-1
1513174124011795,-4,-1,0,0,0,0,0,0
1513174124011795,3,0,-1,-1,0,0,0,-2
1513174124012783,0,-2,-3,-1,1,0,-2,0
1513174124012783,0,-2,0,0,-2,0,-2,-1
1513174124033820,1,-3,-1,-3,-2,0,-2,-1
1513174124033820,-1,-2,-2,0,0,-1,-1,-1
1513174124034799,-3,-1,-1,0,-1,-2,0,-1
1513174124034799,-3,1,-1,-2,-1,1,0,-1
1513174124048809,0,1,-1,-1,-1,-1,-4,-1
1513174124048809,-2,-1,-2,-3,-2,-2,-1,0
1513174124049809,-1,1,0,-1,-1,-1,1,0
1513174124049809,-3,-2,1,-1,-1,-2,-2,0
