timestamp,emg1,emg2,emg3,emg4,emg5,emg6,emg7,emg8
1513431569824114,0,-2,-2,-3,-1,-1,2,1
1513431569824114,-4,0,-3,-1,2,0,-2,-4
1513431569825116,0,0,-1,0,-2,1,1,-1
1513431569825116,2,-4,1,-2,-1,1,1,0
1513431569838124,0,-1,-1,-3,-1,-3,-2,0
1513431569838124,-4,-1,-2,1,-1,-3,-6,-1
1513431569845129,0,-2,-2,-2,-2,-1,2,-2
1513431569845129,2,-3,2,0,-3,1,0,-1
1513431569861139,-2,1,-1,0,-2,1,-2,-1
1513431569861139,-2,1,-3,-2,2,-3,-5,0
1513431569863143,-2,-1,0,-1,-1,0,-1,-1
1513431569863143,2,-2,6,-1,-3,-2,1,0
1513431569884157,0,-1,-6,0,3,0,-5,-3
1513431569884157,-3,-1,-4,0,-2,-2,-5,-4
1513431569885156,-1,-2,-1,0,-1,-2,2,1
1513431569885156,-1,0,1,-1,-1,0,3,1
1513431569897166,-3,-4,4,0,-2,0,-1,-3
1513431569897166,-3,0,-3,-2,0,-1,-5,-5
1513431569906171,0,0,-4,-1,-1,-3,-3,2
1513431569906171,3,-2,1,-1,-1,1,4,1
1513431569921182,-4,1,-2,-1,1,-1,-3,1
1513431569921182,-4,-1,-5,-2,1,-3,-3,0
1513431569923184,1,-2,1,-1,-3,1,1,-3
1513431569923184,2,0,-2,-1,-2,2,1,-2
1513431569943197,-2,-4,1,1,-1,-2,-1,0
1513431569943197,-3,-1,-3,0,0,0,-1,-2
1513431569945200,-2,-1,1,-1,0,-1,-2,1
1513431569945200,1,-2,1,-3,-3,-1,1,1
1513431569957207,-2,0,-1,-2,0,-1,-1,1
1513431569957207,-3,-2,-6,-1,0,-3,-2,1
1513431569966213,-1,0,-2,-2,-1,-1,1,-1
1513431569966213,0,1,0,-1,-2,0,0,1
1513431569981236,-1,-1,1,-3,-2,-1,-2,-1
1513431569981236,-2,-1,-2,1,1,-4,-3,-1
1513431569982235,2,-1,-2,-1,-4,-1,-1,-1
1513431569982235,0,1,2,-2,-2,-1,1,-1
1513431570003242,-4,-1,-1,2,1,0,-2,-1
1513431570003242,-2,0,-3,-2,2,-3,-4,-4
1513431570005243,-1,-1,-1,0,2,1,0,1
1513431570005243,1,-1,2,-1,-1,-1,2,-1
1513431570017264,1,-1,-3,-3,-1,0,-2,-1
1513431570017264,-3,0,-4,0,-1,-3,-4,-1
1513431570026257,-3,-1,0,0,-2,-1,0,-3
1513431570026257,1,-3,1,-1,-1,-1,-2,1
1513431570041267,-1,-1,-2,-1,-1,-1,0,-1
1513431570041267,-3,0,-4,-1,3,-4,-6,-2
1513431570042268,1,-1,-2,-2,0,-1,0,0
1513431570042268,-1,-2,0,-2,-3,1,2,-2
1513431570063305,-4,0,0,-3,1,-1,1,-4
1513431570063305,-2,-1,-1,-1,0,0,-1,-2
1513431570065306,1,-1,-1,0,-2,-2,0,2
1513431570065306,-2,0,2,0,-1,1,1,1
1513431570077309,0,0,0,1,-1,1,-6,0
1513431570077309,-2,-1,-2,-2,1,-1,-3,-2
1513431570086299,-2,-1,1,0,-2,-1,1,0
1513431570086299,0,-2,1,-1,-4,-1,1,0
1513431570101310,-1,-1,-3,-2,-1,-3,-2,-3
1513431570101310,-2,2,-2,-1,1,-1,-3,-2
1513431570102309,-2,-2,-2,0,-1,0,2,-1
1513431570102309,5,1,1,-2,-2,1,3,-1
1513431570123326,-2,0,1,2,0,0,-5,-1
1513431570123326,-2,-1,-4,-1,1,-3,-3,0
1513431570125327,0,-4,0,-1,-2,-1,0,-1
1513431570125327,3,-3,0,-1,-1,-1,-1,0
1513431570137335,-2,-2,-2,-3,-1,0,-1,-2
1513431570137335,-3,-3,-3,1,-2,-1,-2,-2
1513431570146342,-1,0,-1,-2,-1,-2,0,-1
1513431570146342,2,-3,0,0,-4,-1,1,0
1513431570168360,-2,-1,0,-3,-1,-1,0,-2
1513431570168360,-3,1,0,-1,2,-1,-5,1
1513431570170358,1,0,0,0,-4,0,-1,0
1513431570170358,0,-3,2,0,-3,-1,2,1
1513431570183371,0,-3,-2,0,-1,1,0,0
1513431570183371,-2,-1,-3,-2,-1,-2,-1,-1
1513431570185369,3,-1,-1,1,-1,0,-2,-2
1513431570185369,-1,0,-1,-2,-1,0,2,-2
1513431570197377,-5,0,-2,-1,-3,-1,0,-1
1513431570197377,-1,-1,-3,1,0,-2,-3,-2
1513431570206387,1,0,-3,-1,-3,0,-2,0
1513431570206387,3,-4,2,-2,-4,-1,1,-2
1513431570221395,-3,0,-2,-1,0,-2,-1,0
1513431570221395,-1,0,-3,-2,0,-2,-4,-4
1513431570222396,0,1,-1,-1,-1,-2,1,1
1513431570222396,0,-2,1,-1,-2,0,2,-1
1513431570243430,1,-2,-2,-1,-1,-3,-1,-2
1513431570243430,-3,1,-2,2,-1,-1,-4,-2
1513431570245438,1,-3,0,1,-2,-5,-1,0
1513431570245438,-1,1,-2,-3,-2,2,3,-1
1513431570257419,-2,-3,-2,-2,0,0,-3,-2
1513431570257419,-3,0,-3,0,1,-2,-6,3
1513431570266426,1,-4,-1,0,-1,-2,1,-2
1513431570266426,-1,0,3,-1,-3,0,0,0
1513431570281437,-1,-1,-2,-2,-3,-2,-3,-3
1513431570281437,-1,-3,-4,-1,1,-1,-2,-2
1513431570282438,0,-3,1,-2,-1,-1,0,-2
1513431570282438,1,-4,1,-2,0,1,1,0
1513431570303464,-1,1,1,-4,1,-3,-2,-2
1513431570303464,-4,1,-3,1,-1,-3,-4,-2
1513431570305453,-4,-2,1,-2,-5,-1,1,-1
1513431570305453,0,-2,0,-4,-1,0,1,-2
1513431570326470,-1,-1,-2,0,0,-2,0,1
1513431570326470,-4,-3,-2,0,-1,-1,-4,-4
1513431570327486,-2,3,-1,0,-2,-1,-2,-6
1513431570327486,-1,1,1,-1,-3,0,1,0
1513431570341502,-3,-2,-2,-1,-1,0,-3,0
1513431570341502,-2,-4,-5,-1,0,-6,-1,-3
1513431570342494,0,-2,0,-3,-1,1,4,0
1513431570342494,2,-1,2,-2,-1,0,-1,-1
1513431570363545,-2,2,-2,0,1,-1,-3,-2
1513431570363545,-1,-3,-3,-1,1,0,2,0
1513431570365524,0,-1,-1,-1,-1,-2,0,0
1513431570365524,-1,-3,1,-1,-4,-1,-2,-1
1513431570386520,-2,-2,0,0,0,-2,-2,-3
1513431570386520,-3,2,-3,-2,0,-1,-1,-3
1513431570387511,0,0,-4,-2,-1,-2,1,-1
1513431570387511,2,-2,0,0,-6,-1,3,3
1513431570401523,-3,0,-2,0,0,1,-2,1
1513431570401523,-1,2,-1,-2,-1,-2,-3,1
1513431570402523,4,-1,0,-1,-3,0,-2,0
1513431570402523,0,-2,0,-2,0,0,1,-1
1513431570423538,-4,-3,0,0,-1,-1,-3,1
1513431570423538,1,0,-3,-1,0,-3,-2,-1
1513431570425539,1,1,1,-1,1,-2,2,2
1513431570425539,2,-1,1,0,-3,0,1,-3
1513431570446566,-4,-1,-3,0,3,-1,-5,-2
1513431570446566,-4,-3,-2,0,-1,-2,1,1
1513431570447555,-3,-2,-2,-1,-2,0,1,-1
1513431570447555,0,0,0,-1,-2,-2,3,-2
1513431570460584,1,-1,-2,-2,-1,0,-1,0
1513431570460584,-2,0,-3,-2,1,-2,-4,-3
1513431570467578,2,0,1,0,0,-2,1,-1
1513431570467578,0,0,1,-2,-4,0,-1,-1
1513431570483581,0,0,-1,0,0,-1,-3,-1
1513431570483581,-3,0,-2,-1,1,-3,-1,0
1513431570485582,2,-1,0,-2,-3,-2,3,0
1513431570485582,1,-1,1,-2,-2,1,1,0
1513431570505614,-2,-1,0,-2,-3,-2,-5,-1
1513431570505614,-3,-1,-2,1,-1,-3,-4,-1
1513431570507597,1,-4,0,1,-1,-2,0,1
1513431570507597,1,-4,2,-1,-1,1,1,0
1513431570520617,-2,-3,-2,-3,-3,-2,2,-1
1513431570520617,-3,-2,-4,1,0,-3,-2,0
1513431570534619,1,1,1,-3,-2,-3,-1,-3
1513431570534619,0,0,-1,-1,-3,2,1,2
1513431570543634,-3,0,-2,-2,-1,1,-2,-2
1513431570543634,-2,1,-3,0,1,-1,-4,-2
1513431570545635,0,-2,2,-2,-2,-1,3,1
1513431570545635,-1,-2,1,-2,0,-2,1,-3
1513431570566640,-4,0,-3,-2,2,-1,-3,0
1513431570566640,-2,-2,-3,-2,0,-1,1,-4
1513431570567642,0,0,-1,0,-1,1,0,0
1513431570567642,3,0,1,-1,0,-2,-1,0
1513431570580661,-3,-1,-2,-2,-1,-2,-1,0
1513431570580661,-3,1,-2,0,-1,-1,-2,-3
1513431570587652,1,-3,0,0,-2,-1,0,-1
1513431570587652,-1,-1,1,-2,-2,0,-1,-2
1513431570603670,-4,0,-2,-1,1,-3,-6,0
1513431570603670,-3,-1,-2,-1,-1,-1,-3,-1
1513431570605674,0,-2,-2,-2,-5,-1,4,-3
1513431570605674,0,0,0,-2,0,1,-1,1
1513431570633702,-1,-2,-2,-1,-1,-1,-1,-1
1513431570633702,-4,0,-4,1,1,-4,-4,1
1513431570634702,2,-1,3,0,0,0,0,-4
1513431570634702,-2,-2,-1,-3,-1,-1,-1,-1
1513431570640690,-2,0,1,-1,-1,0,-3,-2
1513431570640690,0,-2,-2,0,-1,-2,-1,-1
1513431570647696,0,-1,-2,-1,-2,-2,1,1
1513431570647696,1,-1,-2,-1,-4,0,0,0
1513431570663761,-2,0,-3,0,1,-2,-2,0
1513431570663761,-1,-1,0,-1,0,-2,-3,-2
1513431570664710,2,1,-1,0,-2,0,-2,0
1513431570664710,-5,-3,1,0,-2,-3,0,-1
1513431570686733,-4,1,-4,0,0,-3,-5,-2
1513431570686733,-1,-1,-3,-1,1,-2,-1,-3
1513431570687723,1,-4,0,-3,-3,-1,-1,-3
1513431570687723,-1,-2,1,0,-1,1,-1,0
1513431570700747,-3,0,-3,1,-1,-1,-6,-4
1513431570700747,-3,2,-1,-1,-1,-4,-2,-2
1513431570706775,0,0,1,-2,0,-1,3,1
1513431570706775,0,1,-1,-1,-3,1,0,-1
1513431570723750,-4,-3,-4,-1,0,-2,-2,0
1513431570723750,-3,0,-1,-2,-2,-1,0,-1
1513431570724750,3,0,-2,-1,-2,1,1,0
1513431570724750,1,-3,0,-2,1,1,0,-3
1513431570745770,-4,-1,-2,-1,1,-2,-5,-2
1513431570745770,1,-3,-2,1,1,-1,-2,-3
1513431570747767,-1,-1,1,-2,-3,-2,2,-1
1513431570747767,-2,0,0,-1,-2,-2,2,0
1513431570760778,-3,0,-2,0,0,0,-4,-3
1513431570760778,1,-4,-2,-2,1,-1,-1,-1
1513431570766780,0,0,0,-1,-2,-1,-1,-1
1513431570766780,0,-1,1,0,-1,-1,-1,-3
1513431570783808,-3,-1,-1,-2,3,-1,-3,0
1513431570783808,-1,0,-3,-1,0,-1,-4,0
1513431570784793,2,-1,-1,0,-3,2,5,0
1513431570784793,0,-1,-3,-2,-2,1,-2,-1
1513431570805807,-3,-1,1,0,1,-1,-4,-1
1513431570805807,-1,-1,-4,0,-1,0,-1,2
1513431570807808,2,-2,-1,-4,-1,-3,2,-2
1513431570807808,0,-2,1,-3,-1,1,2,-2
1513431570820819,-3,-3,-2,-1,-1,-3,-4,-1
1513431570820819,-2,1,-2,-2,-1,-1,-3,-1
1513431570834829,2,-3,0,0,-1,0,4,-1
1513431570834829,0,-2,1,-1,-1,-1,0,0
1513431570843836,-1,2,-2,-2,-1,-2,-4,-4
1513431570843836,-1,1,-3,1,-2,-1,0,-1
1513431570844836,1,-2,0,-1,-3,-2,1,1
1513431570844836,0,-2,0,0,0,-2,2,-2
1513431570865873,-4,-1,-1,-1,-2,-3,-2,1
1513431570865873,-1,-1,-3,0,-2,0,-2,-2
1513431570867852,3,2,1,0,-2,2,0,-2
1513431570867852,2,1,2,-1,-3,-2,-1,0
1513431570879860,-5,0,-3,-2,2,-3,-6,-1
1513431570879860,-1,-1,-3,-1,3,-1,0,0
1513431570888869,2,-3,1,-1,-4,0,-1,0
1513431570888869,0,-1,1,-3,-3,-1,-1,0
1513431570903877,-3,1,-3,-2,1,-2,-2,-5
1513431570903877,-2,-3,-2,0,-1,-3,0,-3
1513431570909881,2,0,1,-2,-2,-1,3,-2
1513431570909881,-1,0,2,0,-3,0,-1,1
1513431570925922,-5,-2,-2,-1,0,-1,-4,0
1513431570925922,1,-1,-3,-2,0,0,-3,2
1513431570927935,-1,-3,1,-1,-3,0,1,0
1513431570927935,1,-3,-1,-1,-1,0,-2,-2
1513431570939944,-3,-1,-3,0,2,0,-6,-1
1513431570939944,0,0,-1,0,1,-3,-1,1
1513431570948950,3,-1,1,0,-5,0,1,0
1513431570948950,1,0,0,-3,-2,2,-2,-1
1513431570963963,-2,-1,-2,-2,-2,-1,-2,-1
1513431570963963,-2,-2,-1,-1,-2,-5,-5,-3
1513431570964949,2,-2,0,-1,-3,-1,4,1
1513431570964949,0,-2,-2,-3,-2,1,-1,0
1513431570985974,-4,0,-1,1,-1,-1,-5,0
1513431570985974,-1,0,-1,-2,-1,-1,1,-2
1513431570987975,2,-1,-1,1,-1,-2,4,1
1513431570987975,-2,-1,-1,-2,0,-1,-2,-1
1513431571000039,-4,-2,-5,-1,0,-2,-5,-2
1513431571000039,-1,-1,-2,-1,-3,-2,-1,-3
1513431571008981,2,-2,2,-2,0,0,1,0
1513431571008981,0,-1,-2,-2,-1,0,0,0
1513431571023992,-2,2,-2,2,0,0,-4,-3
1513431571023992,0,-1,-4,-2,-1,-2,0,-1
1513431571024992,-1,0,1,-2,-3,0,1,1
1513431571024992,-1,1,0,-2,1,-1,0,-1
1513431571046031,-3,-3,-1,0,2,-1,-3,-3
1513431571046031,-1,0,1,0,-2,-1,0,-3
1513431571048027,3,-1,1,-3,-6,-3,2,0
1513431571048027,-4,-3,-1,-2,-1,1,-1,-1
1513431571060017,-6,0,-5,0,3,0,-2,-1
1513431571060017,-1,0,-1,0,0,-1,-1,0
1513431571069066,1,-3,2,-3,-4,0,1,2
1513431571069066,-2,-2,0,0,-1,0,-2,-2
1513431571084078,-4,-3,-2,-2,0,-3,-5,-2
1513431571084078,1,0,-3,0,-2,0,-1,-2
1513431571085068,5,-2,0,0,-1,0,5,-3
1513431571085068,0,-2,1,-1,-2,0,-2,-1
1513431571114100,-6,0,-2,-3,0,1,-6,-1
1513431571114100,0,0,-3,-2,-1,-2,-3,1
1513431571115088,3,-2,2,-2,-4,0,2,1
1513431571115088,1,-3,-1,0,-1,-1,-1,0
1513431571129099,-4,0,-1,-1,0,-2,0,-4
1513431571129099,0,0,-2,-1,-3,-1,-1,0
1513431571130099,4,0,0,-2,-3,1,3,-2
1513431571130099,-2,-1,0,-1,-1,-1,0,1
1513431571143118,-4,-3,-3,-1,1,-1,-4,0
1513431571143118,0,-1,-3,-1,-1,-3,-1,-2
1513431571145110,3,-1,0,-1,-1,-2,1,-1
1513431571145110,-1,1,1,-2,-1,-1,-2,-2
1513431571166148,-2,-2,-3,1,-1,-2,-5,-2
1513431571166148,-3,-3,-1,0,-1,-1,0,-1
1513431571168136,1,-1,1,3,-4,0,3,-1
1513431571168136,1,-2,-2,-2,-3,0,1,-1
1513431571180143,-3,-2,-3,0,0,-2,-6,-3
1513431571180143,-1,-1,-3,-2,-1,-1,-3,1
1513431571189143,0,0,1,0,-3,-1,3,3
1513431571189143,-1,0,2,0,-2,2,3,0
1513431571203160,-4,2,-5,-2,1,-2,-4,-1
1513431571203160,-1,-2,-3,-2,-1,-2,0,-2
1513431571205151,3,-3,2,-2,-3,-1,4,1
1513431571205151,-5,0,1,0,-1,-3,-2,-2
1513431571226229,-4,2,-5,-1,3,-3,-5,-1
1513431571226229,0,0,0,0,-1,-3,1,-1
1513431571227241,2,-3,1,-2,-4,2,3,-3
1513431571227241,-2,-3,-3,-1,-4,-1,-2,-2
1513431571239237,-5,1,-3,0,3,-3,-5,-1
1513431571239237,-1,-1,-2,0,-1,-4,-2,-2
1513431571248244,0,0,2,-1,-2,2,1,0
1513431571248244,2,-2,0,-1,-2,0,1,-2
1513431571271263,-6,-1,-3,0,1,-2,-3,-3
1513431571271263,-2,2,-1,-1,-3,-1,-2,1
1513431571273262,2,0,2,-3,-3,1,3,0
1513431571273262,-4,-3,0,-1,0,0,-3,-1
1513431571286288,-1,1,-3,0,2,-2,-4,1
1513431571286288,1,-1,-1,0,0,0,0,-3
1513431571287289,3,-3,1,-3,-2,1,3,-1
1513431571287289,2,1,0,-1,-2,1,-1,1
1513431571308287,-3,-2,0,-1,-2,-3,-1,-1
1513431571308287,-5,-3,-2,0,0,-3,-4,0
1513431571310310,5,-3,2,-2,-1,-1,2,-2
1513431571310310,0,-2,0,-2,-1,-2,-3,-3
1513431571323297,-5,-1,-5,-1,1,0,-2,-2
1513431571323297,2,2,-1,0,-1,-2,-2,0
1513431571325300,5,-1,3,-2,-6,-1,3,0
1513431571325300,-1,-2,1,-1,-1,1,1,1
1513431571346314,-1,-4,-2,0,-1,-1,-9,-2
1513431571346314,0,0,0,-2,-2,-1,2,-3
1513431571347314,1,-1,-3,1,-4,1,1,-1
1513431571347314,0,0,-1,-1,0,-2,-2,-2
1513431571368341,-3,2,-5,-1,1,-1,-4,-1
1513431571368341,1,-4,-3,0,-1,-2,0,-1
1513431571370336,2,-3,2,0,-3,-2,2,0
1513431571370336,-1,-1,1,-5,-2,-3,0,0
1513431571383339,-5,1,-1,0,0,-3,-2,-1
1513431571383339,-3,1,-2,-3,0,-1,0,-1
1513431571385341,3,-3,1,-1,-4,0,4,1
1513431571385341,0,-2,-2,0,-2,1,-1,-3
1513431571406355,-6,-1,-3,-3,3,-2,-6,-2
1513431571406355,-3,0,-3,-2,-2,-1,-2,-3
1513431571407356,3,2,4,1,-2,0,4,1
1513431571407356,0,-1,-3,-1,3,-2,-1,-4
1513431571428371,-1,0,-2,-1,1,-3,-4,0
1513431571428371,-2,-1,0,1,0,-2,-3,-2
1513431571430374,-1,-1,-1,-3,-3,-1,0,-3
1513431571430374,-2,-2,-1,0,-3,-1,0,-1
1513431571443391,-6,-2,-4,-2,1,-1,-1,1
1513431571443391,-3,0,-3,0,-2,2,0,-3
1513431571449389,3,1,2,-2,-2,1,1,0
1513431571449389,-3,0,0,0,-1,1,0,-5
1513431571466398,-5,1,-6,-1,0,-3,-6,-2
1513431571466398,-1,1,-1,-3,-3,-4,0,0
1513431571467400,5,-2,3,-1,-3,2,3,1
1513431571467400,-1,-2,-1,-2,-1,0,-3,-2
1513431571488429,-4,-1,-2,-2,2,0,-5,-5
1513431571488429,5,-2,-1,0,-1,-1,-1,1
1513431571490426,-1,-1,2,-1,-1,0,1,1
1513431571490426,-1,-1,0,-3,-2,0,-3,2
1513431571502424,-1,-4,-2,0,-2,-1,-3,-2
1513431571502424,-1,-5,-3,0,-1,-1,-1,1
1513431571509429,1,-4,0,-2,-3,1,6,-2
1513431571509429,-3,1,1,-1,-1,0,-2,1
1513431571526452,-4,-1,-4,-1,0,-1,-4,-1
1513431571526452,1,-1,1,0,0,-2,-3,2
1513431571527448,2,-2,1,-2,-4,0,3,0
1513431571527448,-5,0,0,-2,-1,0,-3,0
1513431571548480,-6,-1,-4,0,-1,-2,-2,-3
1513431571548480,-2,1,1,-1,-2,-1,2,-2
1513431571550457,2,-2,1,-2,-2,0,1,0
1513431571550457,1,-4,-1,-1,2,-1,-2,1
1513431571563466,-1,1,-1,-3,2,-1,-4,0
1513431571563466,1,-2,-3,1,-2,0,1,-3
1513431571569480,3,-4,-1,-2,-4,0,3,-1
1513431571569480,0,0,-1,-1,-1,-3,0,-3
1513431571586502,-6,1,-4,2,-3,-3,-4,1
1513431571586502,-1,-1,0,-1,-1,-1,0,-3
1513431571587486,1,0,2,-3,-3,0,1,-1
1513431571587486,1,-2,1,-1,-1,0,-1,2
1513431571608498,-2,-4,-4,-2,0,-4,-5,-4
1513431571608498,-1,0,-1,0,-1,-3,-1,-2
1513431571610513,1,0,1,0,-2,-1,4,-1
1513431571610513,-2,1,-1,-1,-1,-1,-2,0
1513431571622508,-3,0,-1,-3,0,-3,-3,-1
1513431571622508,-2,-3,-2,-2,0,-2,-2,1
1513431571629527,2,-1,1,0,-4,1,1,3
1513431571629527,-2,-1,1,-1,-4,-1,1,0
1513431571646525,-2,-1,-5,-1,1,-3,-3,-2
1513431571646525,-1,1,-2,0,-3,-2,-3,0
1513431571647536,0,0,2,0,-3,-1,1,0
1513431571647536,-4,-2,-2,1,-2,-2,-2,1
1513431571668550,-5,0,-1,2,2,-1,-4,-4
1513431571668550,2,-2,0,-1,-1,0,1,-2
1513431571670552,2,1,1,-3,-4,2,0,-1
1513431571670552,1,0,1,-1,-1,0,2,-3
1513431571682560,-1,0,-5,-2,2,-2,-3,0
1513431571682560,-1,-1,-2,-3,-3,-3,0,1
1513431571689555,1,-2,1,0,-2,1,3,-4
1513431571689555,0,-3,0,-1,1,0,-3,0
1513431571705584,-4,0,-3,1,-2,-1,-4,-2
1513431571705584,-1,1,-2,0,0,-1,0,3
1513431571707569,1,-3,3,-2,-2,2,3,0
1513431571707569,3,-1,-3,-2,-2,-1,-3,-2
1513431571728604,-2,-1,-3,0,2,-3,-8,-4
1513431571728604,-2,-2,-1,-2,0,-1,1,-2
1513431571730600,0,-2,1,-1,-2,0,1,1
1513431571730600,-1,-3,0,-3,0,-1,-1,-1
1513431571742593,-3,1,-1,-2,-2,-1,0,0
1513431571742593,1,-3,-2,-2,-2,-3,-3,-3
1513431571749620,1,-2,1,-2,-5,-1,2,2
1513431571749620,-5,0,-3,-2,-1,-1,1,-1
1513431571765664,-5,2,-4,1,4,-1,-6,-2
1513431571765664,-2,-1,-2,1,0,-1,-1,-1
1513431571767610,3,1,0,2,-2,-2,1,-2
1513431571767610,-1,-3,-2,-3,-2,2,-3,-1
1513431571788634,-3,0,-3,0,0,-3,-3,-2
1513431571788634,-2,-1,-2,-2,-1,-1,1,-3
1513431571790652,2,-1,2,-3,-1,-1,0,1
1513431571790652,0,3,-2,-1,-2,-1,-2,1
1513431571802644,-3,-1,-2,0,0,-3,-4,-2
1513431571802644,0,-2,0,-1,-3,0,2,-2
1513431571811644,0,-2,0,-1,-1,-1,2,-2
1513431571811644,-3,-1,1,0,-3,0,-1,-3
1513431571825651,-4,-2,-6,0,3,0,-7,-1
1513431571825651,0,-2,-2,0,0,-2,-1,2
1513431571827654,2,-1,2,-2,-3,0,4,-1
1513431571827654,-3,0,-1,-2,0,0,-3,-1
1513431571848681,-4,-1,-4,-2,2,-3,-6,-2
1513431571848681,-2,0,2,0,-2,-2,-2,-1
1513431571850669,1,-3,0,-1,-4,-1,4,1
1513431571850669,0,-1,-1,-1,-1,-1,-3,-2
1513431571862678,-7,-1,-4,0,0,0,-3,0
1513431571862678,2,1,-3,-2,-2,1,-2,0
1513431571870685,2,-4,0,-1,-4,0,4,-2
1513431571870685,1,0,-1,1,1,-2,-4,1
1513431571885710,-2,-1,-4,0,-1,-2,-2,0
1513431571885710,2,0,1,-2,-1,1,1,-2
1513431571887695,-4,0,3,-2,-3,2,1,0
1513431571887695,-2,-2,-1,-2,0,-1,1,-2
1513431571908720,-4,0,-5,-1,2,-2,-3,-2
1513431571908720,0,-1,-2,1,-3,-1,0,1
1513431571909721,3,0,0,-1,-6,0,0,0
1513431571909721,-1,-1,-1,-2,-1,-2,1,-2
1513431571921738,-3,-1,0,-1,1,-3,-4,-1
1513431571921738,-1,-1,-1,-1,0,-3,-1,-2
1513431571930746,-1,2,2,-2,0,0,1,-2
1513431571930746,-2,-1,-1,-1,0,-1,-2,0
1513431571945738,-3,2,-2,0,-2,-3,-4,-2
1513431571945738,-1,-1,-2,0,-4,-1,2,-4
1513431571947740,4,-2,1,-2,-3,0,0,2
1513431571947740,-5,-1,0,0,0,0,1,0
1513431571968771,-3,-2,-4,1,1,-2,-1,-3
1513431571968771,-1,0,0,-1,-2,0,1,-1
1513431571969772,3,-1,0,-3,-2,-2,1,1
1513431571969772,-1,-1,-4,-2,0,2,-6,1
1513431571981763,-3,-4,-2,-2,-1,-3,-5,-2
1513431571981763,1,-1,-3,0,-1,-2,-1,2
1513431571998775,3,0,1,-1,-2,0,1,-2
1513431571998775,-4,1,2,0,1,-3,-2,-1
1513431572005779,-2,0,-2,-2,-1,-1,-3,-3
1513431572005779,1,-2,-1,-1,-2,-2,0,-2
1513431572007791,-1,-1,1,-1,-3,3,2,0
1513431572007791,1,-2,-3,0,-3,0,-1,-1
1513431572028808,-4,1,-4,-1,0,-1,-3,-1
1513431572028808,-2,-2,0,-1,0,-1,0,-1
1513431572029797,2,-2,3,-1,-4,1,2,2
1513431572029797,-3,-1,1,-2,0,-2,0,-2
1513431572042805,-2,-1,-3,0,-1,-2,-4,-1
1513431572042805,1,0,-2,-2,-2,0,0,-4
1513431572051814,2,-1,-1,-2,-3,-1,1,2
1513431572051814,-2,-2,-1,-2,0,-1,1,-3
1513431572065822,-1,0,-4,-2,0,-1,-2,2
1513431572065822,1,-2,0,0,1,-1,-1,-3
1513431572067824,2,-2,2,-2,-4,1,0,-4
1513431572067824,-3,-1,0,-1,0,-1,-1,-1
1513431572088838,-3,1,-3,-1,0,-1,-4,-2
1513431572088838,-1,0,-2,-2,-4,-2,2,1
1513431572089838,-1,-3,2,-1,-3,-2,0,-1
1513431572089838,-1,0,-1,-3,-1,-2,-3,-4
1513431572101852,-3,1,-4,1,0,-2,-2,0
1513431572101852,0,1,-3,-1,-2,-1,0,0
1513431572110853,0,-3,-1,-1,-3,2,2,-1
1513431572110853,-2,-3,-1,-1,-3,-2,-1,0
1513431572125875,-4,-2,-1,3,1,-3,-5,-2
1513431572125875,-1,1,0,-1,0,0,-1,0
1513431572127866,3,-2,0,-1,0,0,3,2
1513431572127866,1,-2,-1,0,-4,-1,-3,-1
1513431572148893,-4,0,-2,-1,-2,-4,-2,-2
1513431572148893,-1,0,-2,-2,-1,-3,0,-1
1513431572149881,1,0,1,-1,-1,0,-2,-1
1513431572149881,1,-2,-3,-1,0,-1,-3,-1
1513431572161905,-4,0,-4,-3,-1,-3,-2,-2
1513431572161905,2,-2,0,-1,-2,1,-1,0
1513431572170895,-3,-1,0,-4,-1,2,2,2
1513431572170895,0,0,-1,1,-1,-2,-5,-1
1513431572185906,-2,-2,-3,0,3,-2,-5,-1
1513431572185906,-4,1,0,-1,-3,-1,0,-1
1513431572187907,2,-1,1,0,-2,1,0,-1
1513431572187907,-3,-1,-1,0,0,1,-2,-2
1513431572208938,-2,-1,-3,0,4,-1,-3,0
1513431572208938,2,-3,-1,0,-3,-2,-1,0
1513431572209924,-1,-1,0,0,-3,-2,1,-3
1513431572209924,-1,0,-2,0,1,1,-3,0
1513431572230940,0,-2,-4,0,0,-2,-3,-2
1513431572230940,-2,-1,0,-2,-3,-2,-1,1
1513431572232941,2,0,3,-3,-1,0,2,-1
1513431572232941,-2,-2,0,-2,-1,1,-2,-2
1513431572245961,-3,-1,-4,-2,0,-2,-3,2
1513431572245961,1,-1,-1,-1,-2,-1,-2,-1
1513431572247952,2,-1,0,-3,-4,-1,0,-2
1513431572247952,0,0,-2,0,-1,-2,-1,-2
1513431572268965,-2,-1,-4,-1,0,-1,0,-2
1513431572268965,1,-2,2,-1,2,0,-1,-1
1513431572269972,1,-3,0,0,-3,1,2,0
1513431572269972,-6,-1,-2,-2,0,0,-1,0
1513431572290981,-2,1,-3,1,-1,-1,-3,-3
1513431572290981,1,0,0,0,-1,-1,-1,-1
1513431572293984,2,0,-1,0,0,-1,1,-1
1513431572293984,-2,-1,-5,-2,1,0,-2,0
1513431572306005,-2,-2,-2,-1,-1,-1,-2,-2
1513431572306005,1,-2,1,-3,-3,1,0,-1
1513431572308017,0,-1,3,-2,-3,0,0,4
1513431572308017,-2,-4,0,-2,0,-3,0,-3
1513431572329008,-2,-1,-2,-2,-1,-2,-5,-1
1513431572329008,1,0,-2,-1,-2,-3,5,0
1513431572330009,1,-2,1,-2,-1,0,2,-2
1513431572330009,-4,1,-3,0,0,-2,-4,-2
1513431572351038,-5,-1,0,-2,-1,-2,-3,-2
1513431572351038,0,0,1,0,-2,-2,1,-3
1513431572353034,0,-1,2,1,0,-2,2,-2
1513431572353034,-2,1,-2,-1,0,-1,-5,1
1513431572365040,-1,-1,-5,0,-1,-2,-2,0
1513431572365040,-2,-3,0,-3,-1,1,0,-1
1513431572372050,4,-3,0,-2,-2,1,2,-2
1513431572372050,-1,0,-1,-1,-1,1,0,-2
1513431572389050,-3,2,-5,0,3,-1,-4,-3
1513431572389050,2,-1,0,0,0,-3,3,0
1513431572391052,-1,0,-4,0,-2,-2,-3,3
1513431572391052,5,-3,3,-2,-6,1,4,0
1513431572411078,-1,-2,-1,-2,1,-1,-6,-2
1513431572411078,3,-3,3,-2,-5,1,7,0
1513431572413077,0,-5,3,-4,-3,4,4,3
1513431572413077,-4,-3,1,-2,2,-2,-2,-2
1513431572425085,-2,1,-3,-2,0,-4,-1,-1
1513431572425085,-5,0,-5,1,1,-3,-7,-1
1513431572432081,5,1,2,0,-5,-1,2,-1
1513431572432081,-2,0,-1,-1,-1,-2,-3,-1
1513431572449094,-5,-3,-4,0,2,-1,-4,-3
1513431572449094,-3,0,-5,0,1,-2,-3,-2
1513431572450095,1,-2,1,-2,-5,-2,2,0
1513431572450095,-2,0,-1,-1,-2,0,2,0
1513431572471108,-4,0,-4,0,2,-1,-3,-2
1513431572471108,-1,-1,-3,-1,-2,-1,-1,2
1513431572473110,3,-2,2,-3,-4,0,3,-3
1513431572473110,-2,0,0,-3,1,0,-2,-4
1513431572485129,-4,0,-5,0,0,-4,-4,-2
1513431572485129,1,1,-3,-2,-1,0,-3,1
1513431572492136,0,-1,3,0,-4,4,1,-1
1513431572492136,-4,-1,-2,-1,-1,-1,-5,-1
1513431572508135,-4,-1,-2,-1,2,-5,-4,0
1513431572508135,-1,-3,0,0,-3,-3,0,-3
1513431572510136,-1,-1,0,-3,-2,-1,-1,0
1513431572510136,-3,0,-2,1,1,0,-1,-3
1513431572531163,-1,-2,-4,1,1,1,-3,-4
1513431572531163,2,-2,-3,0,-4,-2,3,1
1513431572533151,1,-1,0,-2,-1,1,1,1
1513431572533151,-3,0,-2,-2,1,-1,-8,-1
1513431572545170,-4,0,-4,-1,0,-1,-1,0
1513431572545170,1,1,0,-1,1,0,2,-1
1513431572552177,-1,-1,0,-1,-5,0,1,1
1513431572552177,-3,-2,0,0,0,0,-3,-1
1513431572568187,-3,-1,-1,-1,1,-1,-5,-3
1513431572568187,-1,-2,-3,1,-2,-2,2,-1
1513431572570183,-2,-1,2,-1,2,0,-1,-2
1513431572570183,-2,-2,-2,-1,-1,-2,-2,-1
1513431572591203,-5,0,-5,0,0,-2,-4,-1
1513431572591203,2,1,1,-1,-3,0,2,-2
1513431572593195,1,-1,0,-3,-2,1,0,-1
1513431572593195,-4,-2,-2,-1,1,-1,-5,-2
1513431572605267,-2,-1,-3,0,1,-1,-1,-2
1513431572605267,0,-1,-1,-2,0,-3,-1,-2
1513431572612236,3,0,3,-2,-1,0,0,-1
1513431572612236,-3,0,-2,-1,-2,-1,-1,0
1513431572628266,0,1,-2,-2,-1,-4,-1,-3
1513431572628266,2,-3,0,0,-1,-1,3,-1
1513431572630250,-1,-2,0,-1,-2,0,-1,2
1513431572630250,-6,0,-3,-2,1,-1,-3,-3
1513431572651286,-2,-1,-2,0,1,-1,-6,0
1513431572651286,4,2,1,-1,-4,-2,0,-1
1513431572652265,1,0,-1,-1,-1,0,0,-1
1513431572652265,-3,2,-2,-2,2,-2,-5,-2
1513431572665293,-3,1,-2,-1,0,-2,-1,0
1513431572665293,3,0,-2,-1,-3,0,2,-1
1513431572679285,3,0,0,-1,-3,0,2,1
1513431572679285,-3,-2,-1,-1,2,-1,-4,-3
1513431572688303,-3,-2,-1,-1,2,-3,-3,-4
1513431572688303,1,-3,1,0,-1,0,3,2
1513431572690304,0,-1,0,-1,-4,0,2,-1
1513431572690304,-1,1,-4,0,0,-1,-4,0
1513431572711306,-1,2,-2,-2,-2,-4,-2,-3
1513431572711306,0,-2,-1,-1,-2,0,1,2
1513431572712308,-1,-2,-1,-2,1,0,1,-2
1513431572712308,-3,-2,-1,-2,3,-1,-4,-1
1513431572724316,-6,1,-3,-1,-2,-1,-3,1
1513431572724316,3,-2,0,-1,-4,0,2,-1
1513431572733323,1,-2,2,-2,-3,-2,2,0
1513431572733323,-3,-1,-3,-1,0,-1,-6,0
1513431572748334,0,1,-3,-1,-1,-4,-4,0
1513431572748334,3,-3,0,-1,-2,0,3,-1
1513431572750335,-3,-3,1,1,-1,0,0,-3
1513431572750335,-7,2,-3,-1,0,-4,-4,-1
1513431572771350,-1,-3,-2,-1,-2,-1,-1,0
1513431572771350,6,-3,0,-1,-4,0,6,1
1513431572772351,-1,-4,1,-3,-1,3,-1,-1
1513431572772351,-2,1,-2,2,0,-2,-3,-1
1513431572784377,1,2,-3,0,-2,-1,0,-1
1513431572784377,2,-1,1,-4,-1,-1,2,1
1513431572793367,-2,-1,-2,-2,-3,-2,-1,2
1513431572793367,-2,-1,-2,1,0,0,-4,0
1513431572808392,-1,-2,-3,1,0,-3,-3,-1
1513431572808392,3,-1,3,-2,-2,0,5,-3
1513431572810381,2,0,0,-1,-1,-1,-2,-3
1513431572810381,-5,2,-2,-3,-1,0,-5,-1
1513431572831395,-2,-1,-2,-1,-1,-3,0,-3
1513431572831395,2,0,3,-1,-3,-1,2,1
1513431572832396,-1,-1,1,0,-1,0,-1,-3
1513431572832396,-5,-2,-3,-2,0,-3,-4,0
1513431572844418,0,-2,-1,-1,-3,-1,-1,-3
1513431572844418,-1,-3,0,0,-3,-2,2,-2
1513431572853425,-1,-2,2,-2,-2,-2,1,0
1513431572853425,-4,-3,-4,1,2,-1,-3,-2
1513431572868418,1,-1,-2,1,-1,-1,2,0
1513431572868418,2,-2,1,-3,-3,0,1,0
1513431572870433,-1,-3,1,-2,-2,-2,-1,0
1513431572870433,-2,-1,-3,-2,0,-2,-5,-1
1513431572891438,-2,-1,-3,0,0,-1,0,-3
1513431572891438,3,-2,2,-2,-3,-1,3,-2
1513431572892437,1,-3,-1,-2,-1,-1,-2,3
1513431572892437,-6,0,-1,-1,0,-2,-7,-5
1513431572904445,-3,-1,-3,-2,0,-1,-3,2
1513431572904445,0,-1,1,0,-4,-1,3,0
1513431572913465,-4,-2,0,0,-1,0,-1,-2
1513431572913465,-2,-1,-6,0,1,-4,-5,-3
1513431572928460,2,0,-2,1,-2,-2,-1,-1
1513431572928460,3,-1,1,0,-3,-1,3,1
1513431572930462,0,0,-2,-2,0,0,1,0
1513431572930462,-5,-1,-3,-2,0,0,-5,-2
1513431572951492,-3,-2,-1,0,-1,-1,-3,-1
1513431572951492,5,2,1,-2,-2,-1,4,-1
1513431572952479,1,-1,-2,-1,-1,0,1,-1
1513431572952479,-6,-2,-4,-1,-1,-2,-5,-1
1513431572964518,-1,-4,-1,0,1,-4,-4,-1
1513431572964518,1,-4,1,-2,-3,1,1,0
1513431572973494,0,-1,0,0,-2,0,-2,-3
1513431572973494,-2,0,-3,0,2,-3,-2,-3
1513431572988505,1,-3,-4,-3,-1,-1,-2,0
1513431572988505,0,-3,1,0,-4,1,3,-1
1513431572991507,1,-1,1,-3,-2,0,0,-1
1513431572991507,-7,-3,-1,0,2,-3,-5,-2
1513431573010536,-1,-2,-2,-2,-1,-3,2,-3
1513431573010536,4,1,2,-2,-3,0,2,0
1513431573012520,-1,0,0,-3,-1,-1,-1,-1
1513431573012520,-3,0,-4,0,-1,-3,-5,-3
1513431573024529,-1,1,0,-3,0,-2,-1,0
1513431573024529,0,-2,-2,-3,-1,-1,2,0
1513431573033539,-1,0,-1,1,-2,-2,-1,-2
1513431573033539,-3,1,-2,-1,-1,0,-3,0
1513431573048546,1,-2,-1,-2,-3,-3,-1,-1
1513431573048546,1,-2,0,1,-5,-1,2,0
1513431573050563,-1,-1,-1,-1,0,0,-2,2
1513431573050563,-2,-2,-5,-2,1,-2,-4,-2
1513431573071561,-1,1,-1,1,0,-1,2,1
1513431573071561,5,-1,2,-3,-1,1,-1,2
1513431573072566,-3,-1,0,-3,-2,-3,-1,-1
1513431573072566,-5,1,-3,-1,1,-2,-6,-1
1513431573084570,-1,0,-1,-1,0,-1,-2,-2
1513431573084570,3,-4,0,-1,-4,2,3,-2
1513431573093589,3,-2,1,-1,-1,1,-3,-3
1513431573093589,-7,-1,-4,-1,2,-2,-2,-3
1513431573108587,-1,2,-2,-1,-1,0,-3,-2
1513431573108587,2,-2,1,-2,-3,-2,4,1
1513431573109603,-1,0,0,-2,-6,0,3,3
1513431573109603,-4,-1,-2,-1,1,0,-7,-3
1513431573131605,1,-3,-3,0,0,-1,2,-3
1513431573131605,0,0,2,-1,-2,0,5,0
1513431573132606,-1,-4,0,-2,-2,0,0,1
1513431573132606,-4,1,-4,-1,1,-3,-4,-2
1513431573144614,-1,-2,-1,-1,0,0,-3,2
1513431573144614,3,-2,2,-3,-1,2,4,-2
1513431573153632,-2,0,-2,-1,-1,-2,-3,-4
1513431573153632,-4,-1,-3,-1,2,-2,-4,1
1513431573167635,1,-1,-2,-2,-1,-4,-3,-4
1513431573167635,3,-1,2,0,-4,-2,5,1
1513431573168631,-1,1,-1,-1,0,1,1,0
1513431573168631,-3,-1,-2,-1,2,-4,-9,0
1513431573190648,-1,-1,-3,0,-4,-3,1,-2
1513431573190648,3,0,2,-1,-4,1,3,1
1513431573191650,-2,1,1,-1,1,-2,-3,-2
1513431573191650,-4,0,-3,0,-1,-3,-3,-3
1513431573212685,0,0,0,-1,-1,1,1,2
1513431573212685,3,-1,1,-1,-4,-1,3,-2
1513431573213663,-2,-3,-1,-1,0,1,-1,0
1513431573213663,-4,-2,-5,-1,0,-2,-5,-3
1513431573227684,-2,0,-1,-2,-1,0,2,0
1513431573227684,0,0,2,-2,-1,-1,6,0
1513431573228672,1,-4,2,-1,-1,0,-1,0
1513431573228672,-5,-1,-6,0,1,-1,-5,-1
1513431573250688,-2,-1,-1,0,-2,-4,0,-3
1513431573250688,3,0,1,-2,-3,-2,0,1
1513431573250688,0,-3,1,-1,-2,0,1,0
1513431573250688,-5,2,-3,0,1,-2,-5,-3
1513431573273705,1,-2,-3,-1,-2,-3,1,1
1513431573273705,2,-2,1,-3,-2,-1,0,0
1513431573273705,-1,0,-1,-1,0,-1,-5,-1
1513431573273705,-4,0,-2,-2,3,-1,-3,-1
1513431573295758,-1,-2,-1,0,0,-3,1,0
1513431573295758,2,-3,3,-1,-4,0,1,-2
1513431573296733,-1,-1,-2,-2,-1,-3,0,1
1513431573296733,-5,0,-1,-1,0,-2,-2,0
1513431573310745,-5,-1,-1,-1,-1,-1,-4,2
1513431573310745,0,-1,0,0,-3,1,3,1
1513431573310745,-1,-2,0,-1,-2,0,1,-1
1513431573310745,-6,-1,-4,-2,1,-3,-7,-2
1513431573332749,-1,0,-1,0,-1,-3,-1,-1
1513431573332749,4,-2,0,-2,-3,0,1,-3
1513431573333747,-4,0,-1,-2,0,-2,-2,-3
1513431573333747,-4,-2,-5,0,1,-2,-6,-4
1513431573347816,1,-1,-1,1,-2,0,1,-1
1513431573347816,3,-1,2,0,-3,1,2,2
1513431573348759,-3,0,1,1,-2,-1,-1,-1
1513431573348759,-5,-1,-2,-2,2,-2,-5,-3
1513431573370774,-2,-2,-2,-2,-2,-1,1,-2
1513431573370774,6,-2,3,-2,-3,-1,4,-1
1513431573370774,-3,-1,1,-1,-2,2,-2,0
1513431573370774,-4,1,-3,-1,1,-3,-4,-1
1513431573392789,3,-2,-1,-1,-1,-3,-2,0
1513431573392789,0,-1,1,-1,-2,2,3,0
1513431573393804,-1,-1,-1,-2,-1,-3,-2,-3
1513431573393804,-5,-3,-4,0,1,-1,-5,-4
1513431573407802,-1,-3,-2,-2,-1,-1,0,-2
1513431573407802,2,0,0,-2,-3,-2,3,1
1513431573408811,-2,-1,0,-1,-3,0,-2,0
1513431573408811,-6,-1,-5,-1,3,-3,-5,0
1513431573430830,-2,-2,0,1,-3,-3,2,-2
1513431573430830,3,-4,3,1,-3,0,2,1
1513431573430830,-2,-1,-1,-1,-2,0,1,-3
1513431573430830,-2,1,-2,0,1,-4,-3,-3
1513431573452843,-1,0,-3,0,-1,-1,-2,-2
1513431573452843,0,-2,1,-3,-2,0,3,1
1513431573453844,0,-1,-2,-2,-1,-1,-4,-2
1513431573453844,-4,-1,-3,1,-2,-1,-3,-3
1513431573467843,-1,-1,-2,-1,0,1,-1,1
1513431573467843,0,0,4,-3,-3,0,1,-3
1513431573468843,1,-1,-3,-2,-1,-4,0,-1
1513431573468843,-3,-1,-3,-1,0,-2,-3,0
1513431573504925,-2,2,-1,-2,0,0,0,0
1513431573504925,2,-3,2,-1,-3,-3,5,4
1513431573514003,-3,-1,-1,0,1,-1,-3,0
1513431573514003,-2,0,-2,-2,0,-3,-6,-4
1513431573516004,2,-2,0,0,-2,-1,-1,-5
1513431573516004,0,-1,2,-2,-2,3,-1,2
1513431573516997,-2,-1,-2,-3,-1,-1,-1,1
1513431573516997,-7,0,-3,1,0,-2,-3,-1
1513431573528006,0,-1,1,-2,0,-2,2,-2
1513431573528006,1,-1,0,0,-5,0,4,-4
1513431573529007,-1,-1,1,1,-2,2,-3,-1
1513431573529007,-4,-2,-5,-2,0,-3,-4,0
1513431573558042,0,0,-2,-1,-2,-2,-2,0
1513431573558042,3,-2,0,-2,-2,-2,0,-1
1513431573559025,0,-1,-1,-1,-1,-1,-1,2
1513431573559025,-4,0,-3,-1,-1,-2,-4,-3
1513431573573052,-3,-1,-1,1,0,1,1,-1
1513431573573052,2,-2,2,-2,-1,-1,2,3
1513431573574039,0,-3,-1,-2,1,1,-2,-1
1513431573574039,-4,3,-4,-1,1,-2,-3,0
1513431573588047,-2,-1,0,-2,-1,-2,-2,2
1513431573588047,1,-2,2,-2,-4,0,4,-4
1513431573589047,-1,-2,2,1,2,-1,-2,0
1513431573589047,-6,-1,-4,3,4,-1,-4,0
1513431573611068,1,-2,-1,-1,-1,-2,0,-2
1513431573611068,1,0,0,-1,-3,1,2,0
1513431573612063,-2,-2,-2,-3,-2,-1,-1,-3
1513431573612063,-1,1,-5,2,0,-2,-5,-1
1513431573633079,1,-1,-1,-1,-3,-1,-3,-1
1513431573633079,0,0,0,-1,-3,0,2,0
1513431573634082,-2,-3,-1,-1,-3,-1,-2,0
1513431573634082,-2,-2,-5,0,2,-3,-7,-2
1513431573648113,0,0,-2,-1,-2,-1,0,-1
1513431573648113,2,-3,1,-1,-4,0,3,0
1513431573648113,-3,-2,-1,-1,1,-2,-1,-2
1513431573648113,-6,-1,-3,0,0,-3,-1,0
1513431573678109,-1,-2,-1,-1,0,-1,-2,-2
1513431573678109,3,-2,2,-2,-3,1,1,0
1513431573679110,-2,0,-1,-2,1,-1,-1,-2
1513431573679110,-4,-2,-2,-1,0,-2,-3,1
1513431573693121,0,2,-1,0,-2,-2,1,-2
1513431573693121,1,-2,2,-2,-4,-1,0,0
1513431573693121,-3,-2,0,0,-2,0,-4,-3
1513431573693121,-4,-1,-7,-1,0,-2,-4,-4
1513431573708148,-1,-2,-2,-1,1,-1,-1,-1
1513431573708148,0,-1,2,-1,-2,0,1,0
1513431573708148,-1,-1,-1,-1,-2,-1,-1,0
1513431573708148,-4,0,-1,-1,0,-1,-3,-4
1513431573730147,1,-1,-2,1,-2,-3,1,0
1513431573730147,1,-3,2,-1,-3,2,2,-1
1513431573731147,-1,-1,-1,-2,-1,0,-5,-1
1513431573731147,-4,0,-3,1,1,-2,-4,-2
1513431573753163,0,1,0,-2,-3,-2,2,-1
1513431573753163,4,0,3,-1,-1,0,2,1
1513431573753163,-3,1,0,-2,0,0,0,-1
1513431573753163,0,-2,-4,0,2,-1,-5,-2
1513431573767176,1,-3,-3,-3,-1,0,-2,-1
1513431573767176,0,0,0,-2,-1,1,3,-2
1513431573775181,-4,-1,-1,0,-3,-2,-4,-1
1513431573775181,-2,1,-2,-1,2,-3,-2,-3
1513431573790206,-1,0,-2,-1,-2,-2,-1,-1
1513431573790206,1,-2,2,-3,-4,-1,2,0
1513431573791189,-1,0,-2,-2,1,-1,-1,1
1513431573791189,-2,-1,-2,-2,0,-3,-5,-2
1513431573813205,-3,-2,0,0,-1,-2,2,-2
1513431573813205,3,-2,0,-2,-3,1,4,0
1513431573813205,-1,-2,1,-1,-1,-1,-2,-1
1513431573813205,-3,-1,-3,-2,-1,-2,0,0
1513431573827216,2,1,-1,-2,-2,-1,-1,-2
1513431573827216,-1,-2,2,-1,-3,0,0,-2
1513431573835223,-1,-1,0,-2,-1,0,-1,-1
1513431573835223,-3,0,-6,-2,-1,-1,-4,-1
1513431573850278,-3,-2,0,1,-2,1,0,0
1513431573850278,1,-4,0,2,-5,0,3,0
1513431573851238,-1,-2,-1,-2,-2,-2,0,-1
1513431573851238,-5,0,-3,0,1,-3,-2,-1
1513431573881256,1,-2,-1,-2,-2,-2,2,-1
1513431573881256,2,-2,0,-3,0,1,-2,3
1513431573882255,0,-1,-2,0,0,-3,-1,-1
1513431573882255,-2,0,-4,2,-2,-2,-5,0
1513431573887260,0,1,0,0,-3,-2,0,2
1513431573887260,-1,-3,1,-3,-3,-1,3,-1
1513431573895266,-1,2,-1,-2,-2,-2,-3,-2
1513431573895266,-1,-3,-1,1,2,0,-4,1
1513431573910290,-1,0,0,0,0,-3,0,2
1513431573910290,0,0,0,-1,-3,-3,-4,-2
1513431573911284,-1,-1,-2,0,-2,0,0,-2
1513431573911284,-2,-1,-3,-2,3,-4,-4,-2
1513431573933293,1,-3,-2,0,-3,0,-1,0
1513431573933293,1,-2,2,0,-2,0,2,-2
1513431573933293,-3,-3,-3,-3,-2,0,0,-3
1513431573933293,-3,0,-2,-2,0,-2,-4,-2
1513431573947301,0,-1,-1,-2,-2,1,0,0
1513431573947301,-2,1,0,-3,-3,-2,2,-2
1513431573955307,-2,-1,-2,1,0,-1,0,0
1513431573955307,-5,0,-2,-2,-2,-3,-3,1
1513431573970317,1,-1,-3,-2,-2,0,1,-1
1513431573970317,1,-4,0,0,-2,2,3,1
1513431573971317,-1,-2,0,-2,1,-2,-4,-2
1513431573971317,-2,0,-4,0,0,-3,-3,-5
1513431573992332,1,-2,0,-1,-2,-3,0,-1
1513431573992332,2,0,2,-3,-1,2,1,1
1513431573993343,-5,1,-2,-2,1,0,-2,-1
1513431573993343,1,0,-3,0,3,-1,-5,-4
1513431574007358,0,-2,0,1,-4,-3,0,-2
1513431574007358,3,-3,1,0,-3,0,3,-3
1513431574015386,-1,-2,-2,-3,1,0,-5,1
1513431574015386,-4,2,-2,1,0,-3,-5,1
1513431574030360,-3,-1,-2,0,-3,-2,1,0
1513431574030360,2,-1,2,-3,-2,1,0,3
1513431574031363,-3,-2,0,0,-1,-2,-2,-2
1513431574031363,-4,-1,-5,0,0,-1,-1,-5
1513431574053379,0,0,-1,-2,-1,-2,-2,1
1513431574053379,3,-3,2,-2,-4,-1,3,-1
1513431574053379,-4,-3,-2,-3,-2,1,-3,-1
1513431574053379,-3,-1,-3,-1,2,-1,0,-1
1513431574067386,0,-1,-2,-3,2,1,-1,-2
1513431574067386,-2,0,1,-1,-2,-2,2,-1
1513431574075391,-3,-2,0,-2,0,-1,-3,-2
1513431574075391,-3,-1,-3,1,-1,-4,-4,1
1513431574090403,0,0,1,-1,-3,-1,-1,-1
1513431574090403,3,2,0,-1,-2,2,0,1
1513431574092405,-2,-2,-2,-2,1,-3,-1,-2
1513431574092405,-2,-2,-3,-1,-2,-4,-3,-5
1513431574112427,1,-3,0,-1,-1,0,3,0
1513431574112427,4,-2,0,0,-7,0,3,2
1513431574113417,-2,0,-3,-2,0,2,-5,1
1513431574113417,-1,1,-3,-1,0,-1,-3,-2
1513431574136434,0,-3,-4,-3,-1,-1,-1,0
1513431574136434,5,0,3,-3,-2,1,0,-2
1513431574136434,1,2,-1,0,0,-1,-4,-1
1513431574136434,-4,-1,-3,-1,0,-3,-3,2
1513431574150444,2,0,1,-1,-3,0,2,1
1513431574150444,-2,-2,1,-2,-2,0,1,1
1513431574151444,-2,-2,0,1,0,-1,-3,0
1513431574151444,-1,-1,-2,-1,0,-2,-4,-1
1513431574172483,4,0,-4,0,-3,-1,2,-1
1513431574172483,0,-4,-1,-2,-2,0,3,-1
1513431574173459,-3,0,-3,0,0,0,-3,-1
1513431574173459,-4,-3,-4,-2,-1,-3,-2,-2
1513431574195479,2,-4,2,0,-5,-2,0,-2
1513431574195479,-1,-1,0,0,-2,-1,-2,-1
1513431574196477,-2,1,-1,-1,0,-2,-2,-2
1513431574196477,-5,0,-3,1,2,-3,-5,-1
1513431574210495,2,0,0,-3,-3,0,3,1
1513431574210495,-4,-4,1,-5,-1,0,0,0
1513431574211486,-2,-3,-2,-2,-1,-2,-1,-2
1513431574211486,-2,-1,-2,0,-1,-2,-3,0
1513431574232503,1,1,1,-2,-1,1,2,-1
1513431574232503,0,0,0,-2,-2,2,1,-3
1513431574233512,-3,-1,-2,-1,-1,0,2,-2
1513431574233512,-1,-1,-2,0,0,-1,-2,1
1513431574255518,-2,-2,-3,-2,-4,-2,2,-1
1513431574255518,2,-3,3,-1,-4,-1,2,-1
1513431574256518,-4,2,-2,-2,2,-3,-3,0
1513431574256518,-2,0,-4,-1,-1,-3,-1,-4
1513431574270529,1,-1,1,0,1,-2,0,0
1513431574270529,1,0,0,-1,-1,0,0,2
1513431574271530,-2,-1,-2,-1,0,-2,-3,-2
1513431574271530,-1,-2,-2,-1,1,-2,-4,1
1513431574292545,2,0,1,-1,0,1,1,-1
1513431574292545,-1,-2,0,1,0,0,-2,-1
1513431574293546,-4,-4,-1,0,-3,-2,-1,-1
1513431574293546,-3,0,-3,-1,-1,-2,0,0
1513431574315618,1,-4,0,-1,-2,-1,-1,-2
1513431574315618,0,2,0,0,-3,-1,2,-3
1513431574316561,-2,1,-1,-1,1,0,-3,0
1513431574316561,0,0,-2,-2,0,-1,-2,0
1513431574330588,2,0,0,-1,-3,-1,2,1
1513431574330588,2,-4,1,-2,-2,-1,-1,2
1513431574337588,-3,-2,-2,-1,0,0,-2,-4
1513431574337588,-1,1,-4,-2,-1,-2,-2,-1
1513431574352599,1,-2,0,-1,-4,-2,2,-2
1513431574352599,3,-1,-1,-2,-4,0,0,0
1513431574353600,-6,-1,-4,-3,-1,-2,-4,-1
1513431574353600,-1,-3,-2,1,-2,-4,1,-1
1513431574375604,0,-1,1,-1,-3,0,-1,0
1513431574375604,-3,-2,-2,-3,-3,-1,2,0
1513431574376604,-2,1,-2,-1,2,-2,-5,-3
1513431574376604,-1,0,-2,0,0,-1,-5,-1
1513431574390615,1,-3,0,0,-4,-1,1,3
1513431574390615,-2,1,2,-1,0,1,-1,1
1513431574391615,0,-1,0,-2,0,-2,-4,-1
1513431574391615,-4,0,-2,-2,-2,0,-1,-3
1513431574412646,0,-3,-1,-2,-5,-2,1,1
1513431574412646,-1,-1,1,-2,0,2,0,-1
1513431574413631,-3,1,-1,-2,1,-1,-5,1
1513431574413631,0,-1,-4,-1,-1,-4,-2,-2
1513431574435646,2,0,-1,-1,-1,0,2,-1
1513431574435646,0,-1,1,-2,-2,-2,2,-3
1513431574436647,-4,-4,-1,0,-1,-2,-4,1
1513431574436647,-4,1,-4,-2,1,-2,-2,-3
1513431574450655,2,-1,0,0,-3,-1,1,-2
1513431574450655,1,-2,-1,0,-4,2,-1,-1
1513431574450655,-3,2,-3,0,0,-3,-5,1
1513431574450655,-4,-3,1,-2,1,-1,-4,0
1513431574472672,-1,-1,-1,0,-1,0,2,-3
1513431574472672,-1,-3,1,-3,-2,0,1,-2
1513431574473673,-6,-2,-1,-1,1,-2,-3,-5
1513431574473673,0,-1,-4,0,1,-1,-3,-1
1513431574495687,1,0,2,-1,0,-2,1,1
1513431574495687,1,-4,1,1,-3,-1,1,0
1513431574496688,-4,0,-2,-1,-1,1,-6,-1
1513431574496688,-1,2,-4,0,-2,-3,0,-4
1513431574510698,2,-2,2,-3,-3,-1,2,1
1513431574510698,0,-3,-1,-3,-1,-1,-1,0
1513431574510698,-6,0,-4,-3,-1,-3,-4,-2
1513431574510698,-2,-3,-2,1,-2,-1,1,-1
1513431574532723,2,0,0,-1,-4,-1,2,0
1513431574532723,-2,-1,3,-1,0,1,-3,0
1513431574533713,-3,1,-2,-2,-1,-1,-5,-1
1513431574533713,-5,0,-4,-1,-2,-1,-1,-2
1513431574555742,2,-4,0,-2,-1,3,3,0
1513431574555742,2,-1,1,-2,-5,-2,-1,-3
1513431574556730,-2,0,-3,-2,2,-3,-5,1
1513431574556730,1,-3,-1,-1,2,0,-2,0
1513431574570742,3,-1,1,-2,-5,-1,4,-3
1513431574570742,-3,-2,-1,-1,2,0,-2,0
1513431574570742,-2,-1,-4,1,-1,0,-5,-3
1513431574570742,0,-1,-2,0,1,0,-1,0
1513431574592756,1,0,2,-1,-1,2,2,-1
1513431574592756,-1,-2,-1,-3,-1,1,0,0
1513431574593757,-4,1,-4,-1,0,0,-3,-2
1513431574593757,-4,-1,-1,-1,0,-3,-3,0
1513431574616776,4,0,1,-1,-2,-1,4,-3
1513431574616776,-2,1,0,-1,-2,0,0,-1
1513431574616776,-5,0,-3,0,0,-2,-2,-3
1513431574616776,-1,-2,-3,0,-1,-1,-4,1
1513431574631785,2,-1,0,-1,-3,0,5,3
1513431574631785,-2,0,2,-2,-3,0,-3,-1
1513431574632786,-4,1,-1,0,1,-2,-3,0
1513431574632786,0,0,-1,-1,-1,-3,-2,-3
1513431574652810,0,-4,0,-2,-4,-1,3,0
1513431574652810,1,-3,-1,1,-2,-2,-1,-2
1513431574653798,-4,-5,-2,-1,1,0,-3,-5
1513431574653798,0,0,-3,0,-1,-1,2,-2
1513431574675815,2,-2,1,-3,-2,0,1,1
1513431574675815,1,-2,1,-2,-3,0,-1,0
1513431574676815,-5,0,-2,0,1,-4,-7,0
1513431574676815,2,-1,1,-1,-2,-2,0,-4
1513431574689825,1,0,2,-2,-1,1,1,-2
1513431574689825,-1,0,-2,-1,-1,-1,1,-1
1513431574690826,-5,-2,-2,-2,0,-1,-7,-2
1513431574690826,-1,-1,-3,0,0,-1,1,-1
1513431574712844,3,-1,0,-1,-6,1,4,1
1513431574712844,-3,1,0,-2,0,1,-1,-2
1513431574713842,-1,-1,-3,1,-1,-3,0,-1
1513431574713842,-1,-1,-2,-2,-2,-2,-2,-2
1513431574735858,2,-1,2,-2,-3,-1,3,-4
1513431574735858,-1,-2,-1,-1,-1,0,2,0
1513431574736865,-4,-1,-3,0,2,-2,-3,-2
1513431574736865,-1,-4,0,-2,1,0,-4,1
1513431574749894,5,0,2,-1,-2,-2,2,-1
1513431574749894,0,0,-1,-3,-4,-1,-2,3
1513431574757885,-3,-2,-2,-2,2,-3,-2,0
1513431574757885,-1,0,-4,-2,-3,-5,0,1
1513431574772884,0,-2,-1,0,-2,0,0,0
1513431574772884,-1,0,3,0,-1,0,0,-1
1513431574773885,-5,-2,-4,-1,-1,-1,-5,-2
1513431574773885,1,-1,0,0,-1,-1,-1,2
1513431574796913,2,-4,-1,-2,-4,0,1,0
1513431574796913,0,0,1,-2,-1,0,2,-3
1513431574796913,-3,0,-3,-1,2,-1,-5,-2
1513431574796913,-3,-2,-4,-3,-2,-1,0,-3
1513431574809930,0,2,1,-1,-3,-1,0,-1
1513431574809930,1,-3,0,0,-4,-1,-2,1
1513431574817931,-7,2,-4,0,1,-3,-5,-2
1513431574817931,1,1,-2,-1,4,-3,-2,0
1513431574832951,1,-4,1,-2,-4,0,4,1
1513431574832951,-1,-2,-1,-1,1,-2,-3,-1
1513431574839956,-3,1,-4,1,0,-1,-4,-4
1513431574839956,0,1,0,0,0,-2,-3,-1
1513431574855959,3,0,1,0,-3,0,6,1
1513431574855959,1,0,0,-1,-1,0,1,0
1513431574856959,-6,-4,-3,-1,0,-2,-5,-3
1513431574856959,-4,-2,-5,-1,-1,-3,-1,-2
1513431574869977,2,-2,0,-2,-4,-1,3,0
1513431574869977,0,-3,-2,-1,-2,0,-1,0
1513431574877982,-7,-1,0,-1,3,-2,-4,2
1513431574877982,-2,-1,-1,0,-2,-1,1,-1
1513431574892995,3,0,1,-2,-2,-2,2,2
1513431574892995,0,1,-1,-1,-2,0,0,-4
1513431574893997,-3,-2,-4,0,-1,0,-6,-2
1513431574893997,-1,0,-1,0,-1,1,-3,-5
1513431574916000,4,-3,2,-3,-3,0,4,-3
1513431574916000,-3,-2,1,0,-1,0,-1,1
1513431574917000,-5,0,-4,1,1,-2,-3,-2
1513431574917000,1,-1,-3,0,-3,-1,-1,-1
1513431574930010,4,-3,4,-1,-4,0,3,-1
1513431574930010,-1,-1,-2,-3,1,0,-1,0
1513431574938015,-6,0,-4,0,-1,-2,-6,1
1513431574938015,-1,-1,-2,0,-1,-3,0,-1
1513431574953043,4,-2,3,0,-3,-2,6,1
1513431574953043,-2,-3,-1,-1,-3,0,-2,-2
1513431574953043,-6,1,-4,0,0,-2,-5,-2
1513431574953043,-1,0,-1,0,-2,-2,0,-2
1513431574976067,3,-1,0,-1,-1,-1,2,-1
1513431574976067,-1,-2,1,1,0,0,1,-2
1513431574977053,-3,1,-3,-2,2,-2,-4,-4
1513431574977053,-2,-4,0,1,-1,-1,2,1
1513431574990053,1,-2,-2,-1,-4,-1,4,0
1513431574990053,-2,2,1,-3,-2,-2,-3,-3
1513431574998082,-4,-2,-5,-2,0,-2,-6,-2
1513431574998082,-4,1,-2,-1,2,-2,-2,1
1513431575013090,2,0,2,-1,-5,1,0,-3
1513431575013090,-2,-2,-1,-1,-1,0,1,0
1513431575013090,-1,0,-1,-2,0,-1,-3,-3
1513431575013090,-1,-2,-3,-2,1,-1,1,-2
1513431575036098,4,-1,2,-1,-2,1,5,1
1513431575036098,-1,-2,0,-2,-2,0,-3,-3
1513431575037098,-7,0,-3,0,2,0,-5,-4
1513431575037098,1,0,-1,-1,-3,-3,2,-1
1513431575058102,3,0,3,-3,-5,0,0,2
1513431575058102,-2,0,0,-3,-1,-1,-1,-1
1513431575059104,-4,-2,-4,-2,1,-3,-3,0
1513431575059104,1,0,-1,0,-4,0,-2,0
1513431575073111,2,-3,1,-1,-4,0,6,0
1513431575073111,0,-1,1,-3,-3,0,-2,0
1513431575073111,0,1,-3,0,4,-2,-5,-2
1513431575073111,-1,-2,-1,-1,-1,-4,-2,0
1513431575096146,2,0,1,0,-4,0,4,1
1513431575096146,-2,-1,-2,-2,-2,1,2,-1
1513431575097147,-4,-1,-3,0,0,-2,-7,0
1513431575097147,1,-2,-4,-1,-2,-1,0,-2
1513431575119144,4,-1,-1,-2,-4,0,2,0
1513431575119144,-5,-3,-1,-3,-2,-2,0,0
1513431575120154,-4,-1,-5,0,2,-4,-4,-3
1513431575120154,-2,-2,0,1,-1,0,-2,-1
1513431575133154,2,-3,3,-1,-3,-1,3,0
1513431575133154,1,0,-1,-1,-1,-2,0,-1
1513431575133154,-4,-1,-4,0,2,-2,-4,-4
1513431575133154,0,0,1,1,0,-2,0,1
1513431575156170,-1,-3,0,-1,-3,-1,3,4
1513431575156170,0,0,0,-2,-1,-1,-3,-2
1513431575157171,-3,-1,-5,-3,0,-2,-4,-2
1513431575157171,-2,-2,-4,-1,-2,-2,-1,-2
1513431575178185,3,-4,0,0,-2,2,3,-4
1513431575178185,3,-2,0,0,-2,0,-2,1
1513431575179186,-8,1,-4,0,2,0,-6,1
1513431575179186,-1,-1,-3,-2,-1,-1,0,-4
1513431575193208,4,1,2,-1,-3,-2,4,-1
1513431575193208,-2,0,-1,-1,0,-1,-3,-1
1513431575193208,-2,2,-6,0,1,-1,-3,-4
1513431575193208,-1,-1,-2,-3,-3,0,-1,2
1513431575216233,1,-2,0,-2,-2,1,2,-3
1513431575216233,2,-2,0,-1,-2,-2,0,-2
1513431575217213,-1,0,-1,-1,0,0,-2,-2
1513431575217213,-1,-2,-2,-2,1,-2,-4,-3
1513431575238240,0,-1,2,-2,-2,0,5,2
1513431575238240,-2,-5,-3,-1,-1,0,-1,0
1513431575239236,-4,-3,-2,0,1,-3,-2,-1
1513431575239236,0,-2,-1,-1,-1,-2,1,-2
1513431575252238,4,-5,4,-3,-6,-1,2,-3
1513431575252238,-3,-1,-1,-1,0,-1,-1,-3
1513431575261245,-6,0,-5,-1,1,-2,-5,-1
1513431575261245,3,0,-2,0,0,0,1,0
1513431575275266,2,0,-2,-2,1,1,1,4
1513431575275266,0,-1,-1,-1,1,0,-3,2
1513431575282328,-5,-2,-3,0,0,-4,-2,-1
1513431575282328,-2,-3,-3,0,-2,-2,1,-1
1513431575298318,2,-2,1,0,-2,-1,2,-2
1513431575298318,0,-1,-2,0,-1,0,0,-1
1513431575300320,-4,-1,-2,-1,0,-2,-6,-4
1513431575300320,-2,1,1,-2,-1,-4,2,-1
1513431575312331,5,-1,1,-1,-3,2,3,1
1513431575312331,0,-1,0,-1,-1,-1,1,-2
1513431575321334,-4,-2,-3,-1,-1,-3,-5,0
1513431575321334,0,-1,-1,-3,-1,-1,0,-2
1513431575336347,1,-5,0,-1,-4,2,-1,-3
1513431575336347,-3,2,0,-2,0,-1,0,-1
1513431575337346,-3,2,-2,-1,4,-3,-6,0
1513431575337346,0,1,-1,0,0,-2,-1,-2
1513431575358363,0,-1,1,0,-4,-1,3,1
1513431575358363,0,-2,0,-1,1,1,0,-1
1513431575360365,-4,-1,-4,0,-1,-2,-2,-1
1513431575360365,1,-1,1,-1,-3,-2,-2,0
1513431575372372,2,0,2,-3,-2,-3,3,-3
1513431575372372,-3,-3,0,-3,-1,1,1,-3
1513431575379394,-2,0,-3,-1,-2,-3,-6,-2
1513431575379394,1,-1,-3,0,-4,-1,1,1
1513431575396409,1,-2,2,0,-1,1,3,0
1513431575396409,1,-1,0,-1,-1,-2,-4,-2
1513431575397388,-3,-3,-5,-1,3,-2,-5,-1
1513431575397388,-1,0,-2,-1,-2,-3,-1,0
1513431575418419,2,-1,4,-3,-4,-1,3,0
1513431575418419,-2,-3,-1,-1,-2,-2,1,-3
1513431575420417,1,-2,-4,1,1,-3,-5,-2
1513431575420417,-1,0,-1,0,-1,-2,0,-1
1513431575432422,1,-1,0,-4,-2,2,4,2
1513431575432422,-2,0,-1,-2,1,0,-3,-1
1513431575439428,-5,1,-2,1,0,-1,-6,-3
1513431575439428,-1,-3,-1,-5,2,2,0,1
1513431575456431,3,-2,2,-3,-4,0,0,0
1513431575456431,1,1,-3,1,-1,1,1,0
1513431575457430,-5,0,-3,-1,3,-2,-2,-1
1513431575457430,-5,-4,-1,0,0,-2,-2,-2
1513431575478484,-1,0,2,-1,-3,1,4,1
1513431575478484,-4,-1,-3,-4,-3,0,-3,0
1513431575480461,-4,0,-4,0,-1,-1,-3,0
1513431575480461,0,0,-3,1,-2,-1,2,-1
1513431575492464,2,-2,2,-2,-3,0,3,0
1513431575492464,-1,1,-1,1,1,-3,-1,1
1513431575499474,-5,-1,-2,-3,0,-3,-2,-1
1513431575499474,0,-4,0,0,-3,-2,-1,-2
1513431575515485,-1,-1,2,-2,-4,0,-1,-1
1513431575515485,-2,-3,0,2,0,-1,-4,-3
1513431575518477,-3,0,-4,-3,-1,-4,-4,-4
1513431575518477,1,-1,0,-3,-1,-1,-2,1
1513431575538497,3,-1,1,-1,2,1,2,0
1513431575538497,-5,1,4,17,-4,-1,-5,2
1513431575540499,-3,1,-3,-29,4,-1,-1,-3
1513431575540499,2,0,-1,1,-5,-2,4,0
1513431575552517,-5,-10,-14,-3,-6,-1,4,0
1513431575552517,-3,-1,0,-4,0,-2,0,-1
1513431575561519,-6,1,-4,13,1,-2,-6,-2
1513431575561519,-2,1,3,-1,-1,0,-1,-1
1513431575575514,1,0,4,-2,-2,0,-1,-3
1513431575575514,-2,-3,-3,-1,1,0,-4,-1
1513431575577524,-2,-1,-6,4,0,0,-4,-1
1513431575577524,1,0,-3,-4,-2,-1,-1,-3
1513431575598542,3,1,4,2,-3,0,0,-1
1513431575598542,-1,-4,-1,-6,-1,-3,1,-3
1513431575600549,-1,1,-1,2,2,-2,-5,1
1513431575600549,-2,-3,-4,-1,0,-3,0,1
1513431575612560,-3,-2,3,-1,-4,2,2,-1
1513431575612560,-1,0,-1,-6,-2,-2,-2,-1
1513431575621568,0,-1,-3,1,0,-3,-4,-3
1513431575621568,-1,-2,0,2,-2,0,0,2
1513431575635573,2,1,3,1,-2,-2,3,0
1513431575635573,2,-7,-1,-5,-1,1,-5,-1
1513431575637563,-6,-6,-12,1,2,-1,-5,0
1513431575637563,2,6,10,2,-2,-1,1,-2
1513431575658585,2,-2,-1,-1,-1,1,1,-1
1513431575658585,-1,1,2,-4,-1,1,-1,-4
1513431575659573,-4,-1,-1,3,0,-4,-5,0
1513431575659573,-4,-6,-7,-7,1,1,0,-3
1513431575672598,3,3,7,-1,1,-2,1,1
1513431575672598,-2,1,-3,2,-2,-4,0,3
1513431575680588,-5,-2,-2,-2,0,-1,-2,-2
1513431575680588,0,-4,-2,-1,0,-2,-3,0
1513431575695608,2,0,3,2,-3,-1,2,1
1513431575695608,-5,-2,-4,-3,-3,1,-3,-1
1513431575697600,-4,1,2,1,1,-4,-2,-4
1513431575697600,-1,2,-9,-1,-1,1,-2,-2
1513431575718633,2,-8,0,-3,-5,-1,-1,-1
1513431575718633,3,3,3,0,2,-1,0,0
1513431575720616,-7,4,2,18,-3,-3,-4,-3
1513431575720616,4,-3,-5,-24,6,3,4,-1
1513431575731624,2,-4,6,1,-3,0,3,-2
1513431575731624,-1,3,-1,8,-2,-2,-2,0
1513431575740630,-2,-5,-11,-12,4,-1,-4,-1
1513431575740630,-3,-4,4,5,-6,-3,0,-1
1513431575755641,3,9,19,1,-2,2,0,0
1513431575755641,-5,-7,1,2,1,-3,-1,0
1513431575757643,1,6,0,-3,0,-3,-4,0
1513431575757643,-1,-5,-12,4,-3,-2,-2,-2
1513431575778657,-4,-3,9,-6,-2,1,4,1
1513431575778657,0,3,4,0,-1,0,-3,-2
1513431575779660,-1,-1,9,7,0,-1,-2,-1
1513431575779660,2,-2,-29,-12,-5,-2,2,-2
1513431575791676,2,-2,-3,0,-1,0,1,-1
1513431575791676,-5,0,-4,-4,4,0,-4,-4
1513431575801683,-2,0,0,-1,2,-3,-2,1
1513431575801683,0,2,12,5,-3,-2,-1,1
1513431575815706,3,-3,-6,2,-4,0,-1,-3
1513431575815706,2,-1,-3,-2,-1,-2,0,-1
1513431575818685,-2,-3,-4,-12,1,1,0,-4
1513431575818685,-3,-1,2,7,-4,-5,-2,-3
1513431575838710,1,-1,-3,6,-4,0,0,-1
1513431575838710,1,-2,-3,-16,1,3,2,-1
1513431575839710,-7,-1,-6,19,-5,-3,-5,-4
1513431575839710,5,-1,1,-20,5,2,1,0
1513431575852710,-1,-4,1,6,-3,-2,2,3
1513431575852710,-4,-4,-5,1,-1,-1,-3,-1
1513431575860716,0,0,-4,0,0,-1,-2,-2
1513431575860716,-1,1,19,12,-2,-3,-4,-1
1513431575875738,0,-2,-22,-13,-2,1,4,-1
1513431575875738,-2,4,13,3,-1,-2,-2,-3
1513431575877727,-2,-13,-21,-7,-1,-2,-1,0
1513431575877727,1,8,10,9,-1,-3,-3,1
1513431575898763,-11,-2,1,-5,-2,0,-1,-2
1513431575898763,-8,-1,-7,-1,-4,-2,-3,-1
1513431575899760,2,5,3,-3,2,-1,-6,-4
1513431575899760,-1,-4,-2,2,-1,-1,-2,-2
1513431575911764,2,-1,1,-3,-3,1,1,-1
1513431575911764,-16,-3,-6,-6,0,0,-4,-6
1513431575920757,-9,4,2,-1,2,-3,-3,-1
1513431575920757,5,0,-4,4,-4,-2,2,1
1513431575935787,2,-3,3,-8,-1,-2,3,3
1513431575935787,-1,-4,-3,-5,-3,1,-4,-1
1513431575937779,6,1,0,-1,2,-2,-2,-3
1513431575937779,0,2,-3,3,-4,1,0,-4
1513431575958794,13,-1,-5,-1,0,0,-2,2
1513431575958794,-9,-3,0,-3,1,-3,-4,2
1513431575959789,6,1,-5,-1,-2,-4,1,-1
1513431575959789,-2,2,-3,-2,-4,0,1,1
1513431575971794,-10,-10,4,3,-1,1,1,-3
1513431575971794,8,-3,-4,-7,-2,-4,-4,-4
1513431575980822,-9,4,-23,-2,-1,-3,-6,1
1513431575980822,-6,-2,4,-2,-2,2,4,-2
1513431575995810,7,-1,4,-1,0,2,-3,-2
1513431575995810,9,2,1,2,1,-2,0,0
1513431575997841,-4,3,4,1,0,1,-5,0
1513431575997841,17,-1,-7,-5,-4,-2,1,1
1513431576018830,-54,-20,10,-1,-5,8,-2,-4
1513431576018830,6,-3,-7,-3,-2,-6,-10,-6
1513431576020828,-5,-4,0,-3,4,-1,3,3
1513431576020828,-11,0,-2,9,-2,-1,0,-5
1513431576040855,14,6,2,-1,-2,0,-1,-4
1513431576040855,6,10,39,17,3,1,4,1
1513431576042844,-2,-6,-69,-20,-4,-3,-3,-4
1513431576042844,-7,-9,23,-7,-1,-3,2,0
1513431576055865,11,4,-3,1,-3,0,8,0
1513431576055865,-5,1,-1,0,4,0,-2,0
1513431576057855,-6,-7,16,5,-1,-3,-1,-1
1513431576057855,0,2,-8,-1,-2,-2,1,-4
1513431576078907,0,-1,-8,-7,-4,-5,-2,2
1513431576078907,17,-3,-6,-7,-2,-1,-2,-2
1513431576079870,-3,4,6,0,-1,0,-1,-3
1513431576079870,0,-1,-3,3,-1,0,-1,0
1513431576100903,-5,-2,7,2,-1,-3,3,0
1513431576100903,-8,3,-1,1,3,3,-2,2
1513431576102888,6,0,-2,5,1,-4,-8,-4
1513431576102888,-4,-5,7,-4,0,-1,3,3
1513431576115912,22,13,0,2,0,-1,4,4
1513431576115912,-18,-7,-15,-5,0,0,-3,-1
1513431576118909,3,-6,16,5,1,-1,-6,-1
1513431576118909,-15,-3,-1,5,-2,1,5,2
1513431576138930,15,-1,-5,-17,-2,-1,-6,-3
1513431576138930,3,-11,-6,2,-2,-1,3,-1
1513431576139914,-18,-2,12,2,-4,-5,-1,-2
1513431576139914,-7,8,-20,-14,0,-1,-2,-3
1513431576160927,-4,-2,1,-2,-4,-1,5,1
1513431576160927,11,7,-4,-4,0,-1,-2,0
1513431576162928,-12,-18,-6,-6,-6,-5,2,0
1513431576162928,-8,5,3,2,-3,-4,-15,-10
1513431576174951,12,7,7,6,-3,2,18,5
1513431576174951,-10,-5,-10,-17,-4,-1,-4,-4
1513431576181953,-10,8,-4,4,6,-2,-4,3
1513431576181953,32,0,-2,-2,-3,-4,1,0
1513431576198970,-13,-4,3,2,-1,2,-1,-1
1513431576198970,7,3,-5,-2,-1,-2,-6,-2
1513431576199956,-1,-18,3,-3,1,1,-2,-2
1513431576199956,-7,-18,6,1,-4,-1,2,2
1513431576220979,-4,-13,-12,-6,-2,-3,-7,-4
1513431576220979,3,4,-16,-3,1,1,-2,1
1513431576222981,10,13,-17,-8,-3,-3,-10,-4
1513431576222981,9,-2,6,1,0,-1,-4,-2
1513431576234991,5,6,-2,-1,-3,0,6,1
1513431576234991,-18,-2,11,9,1,-3,-11,0
1513431576241995,26,4,-9,-5,-2,0,2,-1
1513431576241995,1,14,-2,-2,-1,1,2,-5
1513431576258008,-7,-12,12,13,1,-1,7,9
1513431576258008,-7,-15,10,-1,2,-2,-15,-3
1513431576260010,2,-6,8,8,4,0,-4,-9
1513431576260010,-10,-14,-12,-17,-5,-2,18,12
1513431576281021,20,15,15,-1,1,2,-11,2
1513431576281021,-43,4,-3,-1,-8,-3,-9,-16
1513431576283027,-21,-2,1,9,-1,1,12,9
1513431576283027,-6,6,-9,-17,-6,-1,6,-1
1513431576295022,-1,10,2,4,4,1,-1,-2
1513431576295022,9,11,6,2,3,0,2,11
1513431576302040,13,1,9,3,0,-2,-10,-1
1513431576302040,-18,-10,-19,10,-6,-2,-2,-5
1513431576318069,-6,-2,1,-20,-3,-1,1,0
1513431576318069,-6,3,1,27,3,-3,-1,-8
1513431576320054,-15,1,-19,-25,-3,-1,-1,1
1513431576320054,16,7,4,5,1,-1,1,5
1513431576341069,11,9,14,6,2,2,3,-2
1513431576341069,17,-28,1,-4,1,3,-14,-1
1513431576342068,-5,-2,-12,-6,6,-6,6,1
1513431576342068,-6,-18,27,5,-2,1,16,4
1513431576355077,-18,6,-18,-6,-7,-4,-39,-17
1513431576355077,-10,19,4,4,6,4,23,5
1513431576362083,16,-17,-13,-20,-10,-11,-11,7
1513431576362083,-7,-9,12,-1,-3,1,4,-15
1513431576378095,7,12,-30,3,4,4,46,50
1513431576378095,-4,-15,-2,-2,-2,0,-2,-13
1513431576380096,9,24,23,10,7,1,-15,2
1513431576380096,6,5,32,20,-2,2,13,-7
1513431576401126,-33,-33,-62,-43,-12,-5,-7,-14
1513431576401126,-28,-8,-3,14,-2,-6,-17,-10
1513431576402116,2,-1,1,3,-2,0,15,8
1513431576402116,22,16,9,5,10,6,-18,4
1513431576415142,0,-9,46,11,-2,3,8,-14
1513431576415142,-8,5,-53,-24,1,-2,-6,21
1513431576422135,-5,-14,-7,12,-6,-4,-6,-17
1513431576422135,13,2,4,-18,-2,1,5,9
1513431576438148,-22,-18,27,16,-4,-2,-9,-15
1513431576438148,-6,24,-4,-1,2,-3,-1,-5
1513431576440138,11,-2,16,20,3,-2,-1,-6
1513431576440138,21,-3,-4,8,-4,-2,1,9
1513431576461156,-1,15,2,-7,7,3,13,12
1513431576461156,-15,-29,49,-3,-3,-3,-3,-6
1513431576462155,13,14,-38,-22,-2,-1,-3,22
1513431576462155,26,-5,26,-2,1,-4,-7,-21
1513431576475175,22,-3,-58,-17,-8,-5,-7,-5
1513431576475175,1,6,29,22,1,1,-12,-8
1513431576482193,-15,13,0,10,7,-1,-1,-4
1513431576482193,0,-10,-28,1,-8,0,17,-3
1513431576498205,8,10,50,8,2,-1,-7,5
1513431576498205,18,10,-61,-24,0,-4,-7,3
1513431576500207,-19,0,13,-5,-3,0,-5,4
1513431576500207,-5,-4,-18,5,-5,-5,-12,0
1513431576521196,-5,-12,-12,13,0,-1,-2,-15
1513431576521196,-1,-9,-19,-19,3,-2,-2,9
1513431576522199,-16,-15,24,3,0,-1,-2,-11
1513431576522199,1,6,-28,-5,-4,0,4,8
1513431576534208,-11,5,12,5,-4,1,-3,7
1513431576534208,-28,-14,-2,-2,-4,-3,4,6
1513431576543213,13,2,-8,-6,3,-2,-14,-18
1513431576543213,-16,-7,27,-10,-1,5,10,-2
1513431576558222,34,-1,-3,26,-2,-5,-4,-24
1513431576558222,6,11,-13,-10,18,10,1,9
1513431576560222,3,-3,15,18,-3,-1,6,17
1513431576560222,28,4,-20,-20,0,3,7,-4
1513431576582239,-9,-10,3,-21,-10,-7,-14,-6
1513431576582239,-20,25,14,12,4,1,-2,-12
1513431576584250,-51,-27,-14,-6,-14,-9,8,-19
1513431576584250,28,5,16,9,3,4,23,21
1513431576594248,65,-9,19,11,5,8,-2,15
1513431576594248,-37,1,0,1,5,-3,-11,22
1513431576603254,-8,-16,5,-6,-3,-5,-14,-25
1513431576603254,16,20,-19,17,-8,1,11,5
1513431576618264,-24,13,-6,-11,4,3,4,8
1513431576618264,13,-24,3,-8,-8,-8,-10,15
1513431576620266,24,25,13,12,10,3,-5,3
1513431576620266,-8,-1,6,2,-10,-6,8,7
1513431576641281,-24,-17,16,-3,-1,2,-1,-22
1513431576641281,88,5,-36,23,-2,-3,-19,-9
1513431576642280,-7,-19,-13,-31,-1,0,5,-3
1513431576642280,7,0,12,-5,-3,-9,-15,-2
1513431576654290,-5,-2,-1,-23,-7,-2,23,16
1513431576654290,-39,-15,-12,12,-7,-3,8,9
1513431576663296,3,22,-12,-2,-5,-5,-13,-31
1513431576663296,-45,-14,10,19,0,6,13,13
1513431576678307,-3,6,-14,-31,0,-1,-3,0
1513431576678307,-10,7,19,0,1,-3,0,-15
1513431576680315,5,5,-22,29,-5,-2,-8,4
1513431576680315,4,7,-4,-42,4,5,-5,-25
1513431576701322,-24,-5,-40,16,1,-3,-2,3
1513431576701322,10,31,36,-5,-8,-3,-5,-19
1513431576702323,-18,-58,-63,-28,-2,-5,4,9
1513431576702323,30,2,15,5,-5,-2,-7,0
1513431576714331,-16,-35,-12,3,0,0,5,5
1513431576714331,-37,37,6,-6,0,-6,-15,-16
1513431576723339,18,6,15,11,14,3,5,49
1513431576723339,-44,-9,-17,17,-10,-5,-2,-44
1513431576738361,17,-18,-13,-31,-5,1,10,-3
1513431576738361,-8,-11,-13,21,3,0,7,11
1513431576740362,9,17,0,-21,2,-3,-14,16
1513431576740362,-8,-10,3,-34,-4,-5,0,26
1513431576761365,-7,44,29,21,-8,-4,-15,-57
1513431576761365,13,-50,-24,-3,3,-3,5,9
1513431576762366,0,18,26,18,7,7,9,21
1513431576762366,12,16,-27,-7,-3,-2,-3,24
1513431576774375,-16,9,37,16,0,0,-7,-14
1513431576774375,21,-18,-7,-20,3,2,-9,4
1513431576783380,10,-14,-9,-9,-1,-7,-3,-3
1513431576783380,-18,9,0,27,-9,-2,-4,-40
1513431576798408,23,-5,16,-22,-1,6,7,-12
1513431576798408,13,19,3,12,5,-1,-4,-34
1513431576800430,-17,4,0,-13,-2,2,4,11
1513431576800430,23,44,-8,0,3,4,20,50
1513431576821415,8,-15,-9,37,-5,-6,-24,-28
1513431576821415,4,-12,12,-28,2,1,-4,22
1513431576822409,-6,9,8,-9,-1,-3,5,-62
1513431576822409,38,-40,1,17,7,10,28,76
1513431576834418,2,-7,1,26,3,-3,-11,91
1513431576834418,-44,-18,-21,-23,0,-3,-21,-46
1513431576843424,32,48,25,2,-6,-5,2,23
1513431576843424,-10,-8,26,-13,-14,1,-11,-25
1513431576858434,-2,0,-4,1,-8,-6,-7,-27
1513431576858434,0,25,-14,10,-1,-5,-2,34
1513431576860435,23,-36,16,-59,9,4,-4,5
1513431576860435,-5,-12,20,20,6,2,12,-9
1513431576881467,4,29,-4,-3,-6,-2,7,8
1513431576881467,32,31,-4,5,6,2,-6,18
1513431576882451,-56,-31,13,40,-9,-5,-10,-77
1513431576882451,16,-12,-11,14,5,-2,1,7
1513431576894460,-4,-25,-20,-47,6,3,4,18
1513431576894460,3,12,-2,19,6,-1,0,-35
1513431576903466,-33,0,11,26,-6,3,7,32
1513431576903466,-2,-11,-37,-24,-20,-11,-9,-24
1513431576918476,16,-6,-6,24,8,5,2,18
1513431576918476,2,-1,38,-9,-9,-7,-14,-87
1513431576920491,-29,-22,-10,-4,1,2,12,12
1513431576920491,37,10,-23,-12,-11,-8,-3,-58
1513431576940492,18,33,23,3,2,2,2,29
1513431576940492,-42,-15,-40,-19,1,-4,14,113
1513431576942497,17,15,30,19,-21,-19,-27,-80
1513431576942497,-22,-9,33,-49,2,12,-4,-68
1513431576963512,-5,-12,3,-2,-9,-8,12,30
1513431576963512,12,-9,8,-14,4,-4,-4,35
1513431576965526,20,-24,-23,-14,-2,-4,5,49
1513431576965526,-7,39,-37,11,13,8,-8,15
1513431576978519,21,10,28,-18,-11,-3,-4,-38
1513431576978519,-14,-26,-9,13,-6,-8,-18,-10
1513431576980520,10,19,-1,17,2,1,12,38
1513431576980520,20,23,18,-14,-3,-5,2,-6
1513431577000538,-27,-30,-32,0,-2,5,2,14
1513431577000538,-12,25,5,3,3,-8,-11,5
1513431577002537,-6,-23,-43,-14,-4,3,12,4
1513431577002537,-9,-2,21,12,0,9,21,51
1513431577023551,-9,19,24,8,2,-1,-5,38
1513431577023551,-41,-26,-23,-12,-10,-5,-20,9
1513431577024552,12,18,1,-16,-6,-2,2,-75
1513431577024552,0,1,-12,7,-8,-1,2,26
1513431577038561,-43,-42,7,-4,-2,1,10,67
1513431577038561,24,31,-15,-14,15,8,3,-12
1513431577039562,-25,1,9,0,10,-1,-24,10
1513431577039562,-20,-46,21,8,-17,-9,1,30
1513431577060578,49,42,-2,-12,-6,-4,-5,-33
1513431577060578,-14,5,-30,14,-2,-1,-5,-9
1513431577062580,15,30,-11,7,-2,1,-9,-96
1513431577062580,18,-30,-28,-19,-5,-1,12,-5
1513431577083592,-17,-5,-48,-12,-1,2,-2,-14
1513431577083592,-28,-28,39,3,-6,-1,6,-4
1513431577084593,-14,4,-16,3,3,2,-2,-34
1513431577084593,-4,-11,-6,2,0,-2,-4,-5
1513431577097603,12,4,0,49,-8,-9,-7,28
1513431577097603,-1,-18,-15,-63,11,14,8,-62
1513431577104608,-7,-13,15,3,-6,-7,9,31
1513431577104608,14,3,-10,41,-2,0,15,36
1513431577120620,-4,38,8,-23,10,6,-11,2
1513431577120620,29,-13,8,11,9,11,-8,60
1513431577122621,5,22,-3,1,-5,-7,1,72
1513431577122621,22,-13,10,0,-2,-1,-11,-38
1513431577143635,-23,-37,15,15,-4,-3,0,1
1513431577143635,9,34,-11,11,7,-10,-17,-22
1513431577144636,4,-9,44,-10,1,7,19,32
1513431577144636,-21,-15,-15,2,0,2,3,75
1513431577157646,-2,26,32,0,6,1,-2,-54
1513431577157646,-13,-37,-29,-1,-3,-7,-9,-11
1513431577164650,24,21,0,25,-1,2,-3,-43
1513431577164650,-49,-18,34,-14,-5,-2,-3,14
1513431577180661,-1,-5,-22,-14,-7,-6,2,-110
1513431577180661,16,29,-13,-12,11,5,11,60
1513431577182663,6,-13,-11,13,-6,-3,4,13
1513431577182663,-20,-5,21,13,4,3,-5,43
1513431577203678,14,-9,-16,-99,4,-1,-1,22
1513431577203678,12,24,32,4,-7,-15,-21,-18
1513431577204684,-2,-35,-29,6,5,0,-5,5
1513431577204684,59,51,29,-4,-5,5,14,-50
1513431577217689,-46,-50,-24,23,-3,3,-6,-31
1513431577217689,11,24,63,23,-3,-9,8,33
1513431577224694,-23,13,-28,-19,5,14,22,-32
1513431577224694,15,-41,48,-7,-5,-9,-21,-35
1513431577240705,18,-14,-12,15,-3,3,6,-72
1513431577240705,-23,-12,-9,2,-9,-4,-11,5
1513431577242706,10,31,0,0,-6,-4,14,45
1513431577242706,22,-9,-3,-3,-4,1,-3,-14
1513431577263724,10,1,5,9,5,1,-8,10
1513431577263724,-32,-33,-9,1,-3,0,11,-20
1513431577264721,10,12,12,-6,-4,-9,-8,4
1513431577264721,-10,9,11,21,-1,-3,1,14
1513431577277730,2,1,-28,-20,-1,-2,-4,45
1513431577277730,3,0,-1,12,2,2,0,-64
1513431577291741,-32,-19,-43,-28,-12,-3,-11,-18
1513431577291741,-7,-16,-16,-3,-1,1,8,-7
1513431577300750,-8,-5,20,17,-4,-3,3,-17
1513431577300750,-1,-9,-21,48,4,1,2,2
1513431577302749,32,7,32,-23,9,3,-8,51
1513431577302749,-18,-17,-25,34,-2,2,-1,-34
1513431577323764,-17,4,14,-40,13,9,17,60
1513431577323764,1,22,-27,5,-3,2,-3,-77
1513431577324764,-22,-29,-8,8,-3,-9,-4,81
1513431577324764,4,38,14,-5,-11,-4,3,3
1513431577337773,-4,-2,11,16,8,2,-3,46
1513431577337773,7,8,-2,-13,-2,-3,2,4
1513431577344778,-3,19,25,11,2,0,8,-4
1513431577344778,15,-12,-34,-29,-3,0,-7,9
1513431577360788,-1,4,5,20,-5,-2,3,-10
1513431577360788,-12,-5,19,0,1,-7,-11,8
1513431577362791,14,-7,4,-13,6,2,-5,-11
1513431577362791,-3,7,-2,-6,4,3,7,25
1513431577383815,-5,19,-12,6,1,2,-1,0
1513431577383815,-8,-8,-11,28,-1,-6,-15,-2
1513431577384806,1,-8,-9,-13,-4,-3,-3,38
1513431577384806,-7,15,32,2,-2,4,20,-6
1513431577397841,-13,-10,-6,1,0,-2,-24,34
1513431577397841,-18,-26,-59,-18,-6,-6,-3,0
1513431577404821,12,0,6,23,2,-3,6,-20
1513431577404821,3,-11,5,-18,3,6,14,70
1513431577420832,6,-6,-22,13,-12,-6,-18,-85
1513431577420832,-23,2,16,-10,11,1,5,90
1513431577422834,22,-33,-37,9,3,7,-5,-11
1513431577422834,34,14,35,-10,-9,-6,-7,-53
1513431577443847,7,-22,-27,19,-1,-3,-5,-24
1513431577443847,-19,18,12,-32,4,1,2,72
1513431577444848,-13,-10,11,20,2,5,-9,-3
1513431577444848,18,32,-7,-11,2,2,-2,-17
1513431577465881,-7,0,-15,-16,-5,0,8,26
1513431577465881,2,-2,11,7,1,-3,-3,-5
1513431577471868,-13,15,-13,15,4,-6,1,23
1513431577471868,8,-21,-3,-19,-13,-4,-2,-39
1513431577480883,15,11,18,-10,6,-4,-6,39
1513431577480883,-18,-37,-52,-20,-9,2,-2,-47
1513431577482885,-4,0,21,15,-4,-8,-5,6
1513431577482885,-19,-11,-4,-7,1,8,2,8
1513431577503890,-2,-1,3,-9,-2,1,3,-29
1513431577503890,28,25,33,24,3,-3,6,63
1513431577504891,-1,5,-11,-15,-5,1,-21,-37
1513431577504891,-12,-6,-15,-9,-11,2,11,-31
1513431577516911,-2,-30,17,6,-1,-3,5,10
1513431577516911,-3,-13,-24,-5,17,1,0,27
1513431577525906,-4,14,9,-1,-12,-7,4,6
1513431577525906,-21,-17,3,-7,0,0,-3,-29
1513431577540918,-8,11,-8,14,0,2,-3,6
1513431577540918,-21,-16,-16,10,-11,-7,-11,-31
1513431577542919,5,11,35,-26,-1,1,15,-1
1513431577542919,10,19,-38,1,5,2,1,10
1513431577563933,-5,-24,2,17,2,3,-5,-20
1513431577563933,-1,0,15,-20,-4,-7,-8,-7
1513431577564934,15,13,7,0,1,-1,-1,29
1513431577564934,-49,-30,-20,7,-4,-3,-1,60
1513431577576943,3,41,7,-17,-3,-4,-16,-5
1513431577576943,-4,7,-14,0,2,3,8,-10
1513431577585951,8,-2,-21,-2,2,1,2,1
1513431577585951,29,5,10,6,1,-2,-3,21
1513431577600962,-11,-18,-12,-7,-5,0,12,2
1513431577600962,11,-2,10,-17,1,-5,0,-21
1513431577602981,-7,3,-8,17,-8,-7,-9,-55
1513431577602981,-2,-28,-11,-9,-2,1,11,-5
1513431577622975,3,6,3,-4,7,5,4,37
1513431577622975,11,31,4,13,-7,-3,-11,-68
1513431577624977,-1,-13,9,-8,6,1,4,-3
1513431577624977,-3,5,20,12,-2,2,-3,1
1513431577636987,11,4,30,-1,1,-3,-2,-5
1513431577636987,-9,-21,-17,-21,7,-4,-12,18
1513431577651996,10,10,17,2,0,-2,-6,7
1513431577651996,7,29,-3,9,-7,0,1,-19
1513431577661005,4,0,7,-16,3,-1,-1,1
1513431577661005,-5,5,3,24,7,-2,-17,28
1513431577663014,4,2,3,-9,-1,-1,5,-11
1513431577663014,-4,0,10,-5,3,3,12,-6
1513431577683033,23,12,-43,-2,-5,-9,-16,9
1513431577683033,-11,1,8,7,-1,3,7,-9
1513431577685019,-4,-5,-9,-2,0,-3,-4,-6
1513431577685019,-5,-13,6,2,-6,1,5,19
1513431577697027,-19,-1,0,2,5,5,5,31
1513431577697027,15,14,-1,34,1,-2,-10,0
1513431577706038,6,2,4,-37,-6,0,7,-18
1513431577706038,12,24,2,7,-3,-1,-3,12
1513431577721045,-3,8,24,-2,6,5,1,8
1513431577721045,30,-4,-9,14,-4,-6,-14,-44
1513431577723046,1,6,-21,-15,-5,-3,-2,20
1513431577723046,-6,-9,9,-3,-5,-1,-2,-15
1513431577743060,2,-12,1,31,-1,-8,-7,5
1513431577743060,5,39,9,-30,2,3,-3,34
1513431577745061,0,-17,-13,13,-3,3,2,-7
1513431577745061,5,-13,-21,-24,1,-2,3,-19
1513431577757070,-10,9,16,15,-4,-4,-2,3
1513431577757070,-28,-2,-8,-20,-4,-8,-11,-9
1513431577766076,-2,-3,-24,9,-5,-3,6,52
1513431577766076,9,21,10,-30,5,4,-8,-36
1513431577781086,-13,-17,4,-2,-3,-2,-2,-26
1513431577781086,-14,3,-2,1,3,4,10,14
1513431577782087,7,7,13,-3,-6,-8,-18,-27
1513431577782087,-5,5,11,20,3,-1,0,27
1513431577803122,6,-2,-29,-10,-1,-4,-5,-14
1513431577803122,17,11,9,-11,1,-1,-1,-3
1513431577805104,-20,9,3,29,1,-1,3,-4
1513431577805104,5,-16,3,11,-6,-3,4,10
1513431577817113,-46,-19,-3,-1,3,2,-6,-25
1513431577817113,-2,14,-13,-12,-8,-2,11,-6
1513431577826119,6,-9,-12,-9,3,1,-1,-6
1513431577826119,3,-4,-1,7,-4,1,8,-21
1513431577841129,1,11,-7,-4,-1,-1,4,20
1513431577841129,-5,-6,4,14,2,-2,-4,-15
1513431577842130,-38,-2,2,-11,-1,0,3,19
1513431577842130,0,-14,6,-8,-6,-1,-4,12
1513431577863175,1,-5,-12,0,-3,-3,-2,-6
1513431577863175,-5,-22,5,-8,0,-3,3,-11
1513431577865168,26,-1,-21,0,3,-1,7,0
1513431577865168,-18,-25,-25,0,-7,-3,-8,13
1513431577877155,17,-2,-12,1,1,2,-5,-6
1513431577877155,-10,-34,11,-24,-6,-9,-6,13
1513431577886166,-14,-16,12,13,-5,6,14,-12
1513431577886166,6,7,17,33,5,2,6,2
1513431577901231,27,27,0,-38,4,3,-3,-18
1513431577901231,-20,-9,-8,16,-3,-1,5,28
1513431577902173,22,7,0,2,1,3,10,31
1513431577902173,14,-10,14,-7,-4,-5,-10,-13
1513431577923187,-17,-16,-3,-13,0,0,-5,20
1513431577923187,17,13,-4,0,6,1,0,-17
1513431577925189,6,10,27,10,-1,1,-2,26
1513431577925189,4,21,11,-6,-4,0,-2,-6
1513431577946216,-20,21,19,26,5,1,-1,28
1513431577946216,3,-2,-12,-31,2,-3,-8,-10
1513431577947204,-1,4,4,-2,-5,1,-1,-26
1513431577947204,18,7,-2,9,2,3,3,14
1513431577961222,14,-10,10,-11,-2,-1,-4,-36
1513431577961222,-32,-23,7,28,-2,-7,-2,4
1513431577962222,-29,6,-5,-5,8,8,4,5
1513431577962222,-2,-14,23,-35,-5,-2,-3,-1
1513431577983255,-5,17,11,27,-6,-6,-10,-51
1513431577983255,7,9,11,-28,-1,-1,-1,-11
1513431577985239,2,-26,-5,1,-4,-4,-3,7
1513431577985239,-5,18,-7,0,-1,5,6,8
1513431578006265,5,-16,15,1,-1,-5,-10,5
1513431578006265,11,16,-13,24,4,-2,-5,13
1513431578007256,-29,21,-6,-13,5,4,-4,7
1513431578007256,-21,-17,-3,-10,-9,-1,5,-18
1513431578021265,14,3,-4,0,-4,0,4,19
1513431578021265,-18,-34,-5,6,0,-1,-1,1
1513431578022266,51,11,-29,-8,-10,-6,17,-52
1513431578022266,-19,-17,11,11,-6,-1,0,-34
1513431578043296,-7,11,-22,-38,10,1,3,17
1513431578043296,-5,0,-7,11,1,1,-8,-10
1513431578045294,27,5,25,22,-7,-6,-1,-42
1513431578045294,0,2,-9,-35,3,-1,5,50
1513431578066374,-24,-17,17,17,-6,-3,-13,-17
1513431578066374,21,17,-5,5,5,-1,4,-28
1513431578067351,-21,-15,10,-2,-8,0,9,16
1513431578067351,24,0,8,7,-5,-7,-2,2
1513431578080371,-12,-14,-14,-7,6,8,-2,2
1513431578080371,-5,0,-14,-6,0,-5,-7,18
1513431578087375,-11,-5,-2,16,-3,-2,3,50
1513431578087375,-8,-14,-10,-20,-4,0,-6,-25
1513431578103389,14,0,-5,6,-2,-4,-1,-3
1513431578103389,0,12,17,-8,5,1,-1,7
1513431578105378,22,-23,1,-3,1,0,3,20
1513431578105378,11,3,-17,-8,-2,1,3,-8
1513431578126393,0,27,16,15,2,-2,-12,4
1513431578126393,-5,-7,-2,5,-10,-8,-9,-6
1513431578127393,1,12,11,6,4,1,11,-6
1513431578127393,11,2,-15,-27,-3,-2,0,25
1513431578148418,-17,-11,16,13,1,1,-15,-19
1513431578148418,15,8,-8,4,4,-2,2,-9
1513431578150420,-1,-1,0,-19,-8,-1,-7,-72
1513431578150420,15,11,7,31,-6,2,10,-2
1513431578163419,7,10,0,-8,5,-3,2,15
1513431578163419,-29,-19,6,-2,3,5,3,-6
1513431578165421,15,-6,-19,7,-7,-2,1,10
1513431578165421,-3,14,24,-9,9,1,2,-25
1513431578186437,-5,-6,-7,-3,-5,-5,2,22
1513431578186437,11,19,-11,2,7,4,-5,4
1513431578187436,-3,-8,10,-10,2,0,7,10
1513431578187436,-3,10,11,11,0,2,-2,9
1513431578200448,-12,8,-33,-9,-5,-8,-6,-28
1513431578200448,-20,-11,-6,7,0,-6,-3,23
1513431578207451,3,-6,21,-16,-3,1,4,-20
1513431578207451,0,-15,-24,-2,0,-2,-1,3
1513431578223479,-8,16,9,1,4,-2,-2,25
1513431578223479,-7,-20,-5,-11,-12,-3,1,-78
1513431578225480,-9,3,-5,-5,-5,-4,8,8
1513431578225480,15,-3,20,13,2,2,-9,2
1513431578246479,-6,-1,-3,-2,4,3,14,-8
1513431578246479,15,-8,-15,-1,-7,-3,-8,1
1513431578247481,-14,7,-16,-3,3,3,9,12
1513431578247481,-12,3,7,5,0,-2,-10,-13
1513431578260505,2,7,9,15,5,-2,-9,34
1513431578260505,-2,12,-17,-12,-1,4,2,-7
1513431578267493,-24,9,39,-11,-1,3,4,-15
1513431578267493,5,6,-18,12,-3,-4,-3,21
1513431578283504,-2,12,2,-18,-5,2,2,15
1513431578283504,-7,2,18,0,0,1,-1,-20
1513431578285509,7,-3,-9,18,-2,3,-2,45
1513431578285509,15,1,1,-8,-1,-3,-14,-31
1513431578305532,-13,-12,10,-19,1,-4,-8,-8
1513431578305532,2,-8,-22,-1,-3,-3,-8,7
1513431578307523,5,-26,-3,4,-3,-1,12,21
1513431578307523,-22,1,0,4,0,9,6,-43
1513431578320531,12,6,-8,5,6,-3,-15,-4
1513431578320531,-27,11,-7,3,1,1,15,-17
1513431578326535,13,-10,-11,-8,-8,-4,-5,7
1513431578326535,-23,-9,10,0,0,3,11,10
1513431578343559,14,1,-7,-8,2,1,-10,-24
1513431578343559,-1,-6,-27,8,-4,-7,2,1
1513431578344547,5,-8,-6,-7,-1,-1,6,26
1513431578344547,-5,3,37,6,-3,-1,-4,-13
1513431578365583,2,-1,-54,-8,2,-3,-4,11
1513431578365583,0,-5,15,5,0,-4,-6,-19
1513431578367564,14,8,-8,-2,-3,0,4,-35
1513431578367564,5,10,7,-20,5,-2,-7,41
1513431578379572,-26,-46,-27,2,-5,-3,-4,-13
1513431578379572,8,-1,3,2,-6,-3,5,26
1513431578395585,-10,-4,-36,31,2,2,-1,-7
1513431578395585,-9,-5,-2,-16,4,5,0,1
1513431578403604,-10,0,-1,-2,0,1,-5,-6
1513431578403604,40,-3,-6,-2,4,0,4,43
1513431578404603,10,-18,-19,0,-13,-4,-10,-42
1513431578404603,-5,-14,1,3,-3,-1,-1,-1
1513431578425604,5,-5,-6,3,-6,-8,-5,5
1513431578425604,7,14,14,-10,1,-1,-3,7
1513431578427606,-6,-10,19,-2,-3,0,-2,33
1513431578427606,-18,-2,-25,6,-5,-1,7,-53
1513431578439614,-6,12,16,-8,2,-4,-6,-1
1513431578439614,0,6,5,21,-1,-6,-6,-19
1513431578448621,-13,-16,9,-10,-8,-3,4,-10
1513431578448621,14,8,-2,14,0,2,9,44
1513431578463633,-12,-21,-17,-17,4,-1,-4,-20
1513431578463633,-2,11,27,-2,-4,0,2,2
1513431578464632,21,8,9,9,-5,0,6,-1
1513431578464632,-12,-1,19,-2,-6,1,-14,0
1513431578486653,14,7,15,14,1,-3,-9,-5
1513431578486653,-8,5,4,-6,3,-2,-5,7
1513431578487648,6,-1,33,-19,1,2,0,-2
1513431578487648,5,10,-8,5,-4,-5,6,36
1513431578499658,-20,-27,-15,3,-3,0,0,11
1513431578499658,-35,13,-8,-3,-2,0,-5,-2
1513431578508664,11,16,24,-1,3,-3,-3,12
1513431578508664,4,-16,1,-6,2,-2,-2,-21
1513431578523692,-12,5,3,-2,0,-1,2,2
1513431578523692,-27,-31,-7,-1,-2,-2,0,9
1513431578524681,-2,-11,-17,-4,-12,-7,1,-9
1513431578524681,-11,-2,-3,4,-6,-3,0,-6
1513431578545699,15,18,-9,2,1,-2,-7,-4
1513431578545699,-3,-18,14,-3,1,0,3,-7
1513431578547701,-2,4,0,0,2,6,4,-8
1513431578547701,0,-31,-34,-15,-4,1,2,-1
1513431578559699,-9,25,15,10,1,-4,-10,-32
1513431578559699,19,8,15,-3,2,-2,8,32
1513431578568717,-6,4,-12,-5,-2,-2,-4,-14
1513431578568717,-1,12,9,-4,-5,3,9,9
1513431578583730,0,15,-41,-8,15,7,-7,2
1513431578583730,8,-8,-11,5,-5,-6,-10,10
1513431578584732,15,17,-2,-16,-1,1,9,4
1513431578584732,-10,-7,22,44,-1,-1,5,-10
1513431578605746,-7,-6,8,-36,1,3,-5,-29
1513431578605746,27,2,-26,-8,-1,-2,2,10
1513431578607736,-7,4,18,11,-5,-1,3,11
1513431578607736,14,6,-2,-3,-3,-2,-10,-32
1513431578619754,-28,-22,4,18,-5,-6,-7,15
1513431578619754,24,2,-15,-4,6,-2,2,-5
1513431578628758,23,17,26,0,-7,-3,-3,8
1513431578628758,4,-3,-1,9,6,1,-2,7
1513431578643761,-6,-23,-8,-5,-2,-5,-5,-2
1513431578643761,-12,12,0,5,-1,-3,-7,6
1513431578644765,-4,-32,-34,0,-9,-3,7,-14
1513431578644765,6,3,-19,-15,5,6,2,12
1513431578665789,-9,4,2,5,1,-5,-8,47
1513431578665789,-10,-7,-9,-4,-5,-4,-2,-55
1513431578667786,4,-9,-13,4,0,4,12,-11
1513431578667786,-3,2,8,-3,-2,-6,-11,14
1513431578679784,-2,3,3,5,-5,-5,-1,-19
1513431578679784,2,-12,-10,-5,2,-4,-10,-1
1513431578688792,-2,1,8,-25,-1,2,-1,8
1513431578688792,-4,1,-23,4,-1,-2,-4,-8
1513431578703813,21,20,27,-1,2,-3,-4,-38
1513431578703813,-10,-25,-24,8,-2,2,-5,39
1513431578704802,-15,-1,10,-5,-7,-1,-3,-68
1513431578704802,18,-18,-28,-13,-4,-5,4,28
1513431578725816,-3,4,-1,4,3,-2,-4,-6
1513431578725816,-10,3,-3,-1,-7,1,7,-20
1513431578727818,1,0,-3,10,-5,-3,9,5
1513431578727818,-9,-25,14,-15,-1,0,-9,-13
1513431578739828,-11,-5,-17,16,0,-2,-6,-17
1513431578739828,-15,4,48,-29,0,-1,2,-14
1513431578748834,23,4,21,13,-2,3,0,25
1513431578748834,-9,4,4,-6,-5,-3,1,1
1513431578762881,-24,3,-13,16,4,-2,0,-9
1513431578762881,12,-20,-12,-12,2,1,-1,25
1513431578764844,10,11,6,7,0,1,9,16
1513431578764844,-7,33,-10,-2,-6,-2,-1,-26
1513431578785869,-3,-4,6,-16,-5,-1,-5,-48
1513431578785869,4,7,-7,22,-5,-7,3,12
1513431578787861,-7,-4,-22,-21,1,5,5,17
1513431578787861,16,-6,1,21,-6,-4,-3,-17
1513431578799884,-5,6,-15,-17,11,3,4,26
1513431578799884,-7,-15,7,6,-7,-3,-1,-44
1513431578808892,-2,-15,9,-6,-7,1,6,-5
1513431578808892,-16,2,16,0,-2,-3,-6,27
1513431578822885,-1,-6,7,4,3,-2,-7,-19
1513431578822885,20,15,8,-4,3,2,-4,11
1513431578824899,12,-6,16,0,-5,-11,-6,3
1513431578824899,-15,3,6,-11,1,2,4,-4
1513431578845934,8,-15,-4,16,1,0,2,42
1513431578845934,-18,12,-6,6,-4,-4,-4,-2
1513431578847925,4,-6,-10,-8,1,4,6,11
1513431578847925,-17,-19,-34,-23,0,4,-3,-72
1513431578867927,-2,22,-21,-7,-1,-7,-14,44
1513431578867927,-4,2,3,21,0,1,5,-3
1513431578869947,9,-10,-3,-6,1,1,-1,-13
1513431578869947,11,-10,-48,0,-1,-5,-1,32
1513431578882928,-22,-19,7,-3,-1,-3,-12,-6
1513431578882928,10,11,6,-11,-1,-3,-1,6
1513431578884929,14,-5,6,10,-9,-2,8,-37
1513431578884929,-5,-5,8,3,6,0,2,58
1513431578905956,-6,-14,-12,-16,-2,-1,-1,-48
1513431578905956,7,4,7,10,3,-1,-3,8
1513431578907945,-17,-4,-15,-18,-4,-1,9,5
1513431578907945,2,19,10,12,-2,2,-6,-9
1513431578927972,-8,3,-5,-1,6,-2,-1,-6
1513431578927972,-1,-11,-17,-16,1,2,5,22
1513431578929962,-7,15,-3,6,-7,1,5,-20
1513431578929962,7,-1,19,6,0,1,7,12
1513431578942982,-4,9,-1,6,3,-1,-10,16
1513431578942982,-8,-5,-4,1,1,4,7,-39
1513431578949988,10,6,35,-3,-4,-3,1,22
1513431578949988,-5,2,3,-1,-1,-2,-5,-4
1513431578965987,-33,-1,8,4,-2,-1,0,6
1513431578965987,-8,0,-16,-2,1,-1,3,14
1513431578967998,-13,-3,-19,2,-8,1,8,-19
1513431578967998,-5,-32,10,-15,-3,-2,-1,-6
1513431578988003,-4,5,10,0,0,-6,-3,6
1513431578988003,-17,-20,19,0,-3,-4,-2,1
1513431578990003,9,-2,-19,5,-1,-1,1,12
1513431578990003,4,1,-14,-6,2,1,-7,9
1513431579003014,16,-1,-10,5,-4,-3,-6,-24
1513431579003014,-8,-8,-13,-7,0,1,-1,-45
1513431579010030,6,-7,1,-2,0,-3,-3,22
1513431579010030,5,14,0,10,-1,-3,2,8
1513431579026041,6,3,16,-11,-2,-5,-19,-16
1513431579026041,21,9,-18,-12,1,0,2,16
1513431579027053,23,8,25,7,-1,0,-7,-4
1513431579027053,-11,24,29,6,0,2,-1,-13
1513431579048058,-5,7,-20,-5,2,-2,0,22
1513431579048058,4,-6,0,5,-2,1,1,-15
1513431579050046,8,13,3,-11,-9,-4,-1,35
1513431579050046,0,-9,11,5,2,2,3,2
1513431579063067,4,-11,-14,5,1,-3,-6,-5
1513431579063067,-21,10,3,-6,-6,-6,-3,20
1513431579070073,1,1,-3,10,-1,3,6,12
1513431579070073,14,-11,4,2,-2,-2,-6,-35
1513431579086071,-28,-2,-19,-14,6,-5,-7,11
1513431579086071,9,-4,0,-6,-6,-1,-3,-40
1513431579087076,7,17,-15,5,2,3,3,12
1513431579087076,3,4,5,5,-8,-2,-4,12
1513431579108087,-3,7,-25,-11,4,5,8,24
1513431579108087,11,-21,-19,14,-6,-6,0,-18
1513431579110096,-42,-16,-9,-20,3,4,9,-5
1513431579110096,-3,14,-4,-16,-3,-2,4,15
1513431579123110,48,7,12,7,3,-7,-10,1
1513431579123110,-13,4,-23,4,1,-2,-4,18
1513431579129114,-3,-2,32,2,-6,1,2,-5
1513431579129114,-9,-13,-18,7,4,0,-1,17
1513431579146115,-38,-34,14,-8,1,3,1,-32
1513431579146115,-12,1,4,-3,0,-3,-6,15
1513431579147131,12,-4,15,-1,-2,-2,1,10
1513431579147131,-4,9,6,-2,-7,0,-2,0
1513431579168142,12,7,-8,10,1,-3,-6,12
1513431579168142,6,-3,13,0,0,-1,3,-10
1513431579170131,-16,-11,13,8,-4,-4,0,-22
1513431579170131,7,-9,3,-8,0,-1,1,23
1513431579183154,-1,-4,-14,1,-2,0,-8,-28
1513431579183154,-16,0,5,-1,-1,2,1,6
1513431579189158,1,-17,-10,1,-4,0,-1,1
1513431579189158,6,-2,-4,1,4,1,11,21
1513431579206156,-2,5,-3,-15,3,1,4,-46
1513431579206156,1,31,37,-4,-3,-5,0,26
1513431579207157,15,0,-20,-7,-4,-1,-9,6
1513431579207157,-3,-23,-2,-4,2,0,-9,-25
1513431579236288,-18,24,16,14,-3,-1,2,54
1513431579236288,14,-2,2,-1,-1,-2,3,-12
1513431579237267,7,-5,-24,-8,-7,-3,1,-29
1513431579237267,2,22,15,-21,6,3,4,-29
1513431579242288,0,-42,-7,11,-4,-3,-4,27
1513431579242288,-7,5,-45,0,2,0,-5,6
1513431579249294,1,10,20,2,0,2,0,29
1513431579249294,-14,-20,-28,0,1,3,-3,-31
1513431579266288,-5,20,7,4,3,-1,-2,-1
1513431579266288,-7,-3,13,-2,-3,2,1,-1
1513431579267289,3,-26,-20,15,-5,-4,3,-19
1513431579267289,-10,10,-3,-16,-1,1,-6,25
1513431579288315,4,-7,-2,9,2,-3,-10,2
1513431579288315,7,4,-7,-7,-3,-3,6,3
1513431579290304,6,3,16,19,3,1,11,27
1513431579290304,13,12,2,-18,-11,-9,-15,-42
1513431579303325,9,-8,-3,-18,-2,-1,-1,8
1513431579303325,4,3,16,2,3,1,1,5
1513431579309332,-2,8,21,3,-1,1,4,30
1513431579309332,10,-2,-15,3,-1,-1,-4,-12
1513431579326348,-16,18,7,14,-5,-7,-11,9
1513431579326348,-5,-6,-38,-8,1,4,3,8
1513431579327331,7,-2,26,-9,2,6,3,-41
1513431579327331,0,2,-6,6,-2,-6,-3,-4
1513431579348357,-3,0,12,2,6,2,-2,-20
1513431579348357,12,-3,0,4,-5,-4,1,16
1513431579350356,12,4,7,-5,-1,0,-2,-12
1513431579350356,10,10,-34,13,-3,-1,-2,-7
1513431579362362,-9,2,6,-13,-3,-6,-4,0
1513431579362362,24,-7,15,-6,0,-1,0,-9
1513431579371374,-15,-9,14,-12,-14,-5,0,-45
1513431579371374,-4,4,5,5,7,3,-2,8
1513431579386390,-7,11,2,15,-5,-10,-16,28
1513431579386390,15,6,-19,-5,2,1,2,20
1513431579387373,15,15,5,-5,-4,0,-6,29
1513431579387373,-24,-4,7,17,-5,-4,1,-8
1513431579408388,0,-3,-14,-20,12,9,5,-39
1513431579408388,1,-4,7,7,-4,-5,-7,17
1513431579410405,2,-8,-26,-10,-6,3,8,-11
1513431579410405,0,-11,9,-2,-2,-3,-3,8
1513431579422397,-2,-1,-19,16,-1,-4,-4,5
1513431579422397,-13,0,21,-1,-6,-3,1,-46
1513431579431404,-1,4,-12,-19,-6,0,7,14
1513431579431404,-15,-6,13,5,0,-2,-11,-4
1513431579446420,0,-5,-22,-22,0,-5,-1,-24
1513431579446420,2,-3,1,-3,2,2,2,7
1513431579447415,19,0,5,8,4,0,-4,8
1513431579447415,1,-7,-5,-13,-2,5,11,-23
1513431579468429,0,12,8,12,-1,-8,-8,5
1513431579468429,-21,-34,-33,4,-9,-5,3,-25
1513431579470431,8,31,36,13,2,4,1,31
1513431579470431,-4,-12,-13,-25,3,-7,-8,29
1513431579482450,9,-1,-1,-7,-1,5,5,-16
1513431579482450,-16,25,15,9,2,-3,-8,0
1513431579491459,3,-14,-16,9,-3,-3,-2,-1
1513431579491459,-1,-10,6,-8,1,0,7,7
1513431579505457,8,7,9,9,0,-3,-8,-3
1513431579505457,-14,-18,6,-2,-2,2,3,18
1513431579507459,13,-5,-27,-14,-1,1,4,-19
1513431579507459,3,9,-16,5,2,-1,-5,10
1513431579528476,-14,-1,12,0,1,-1,-1,1
1513431579528476,8,7,6,2,-2,1,1,-22
1513431579529486,-23,-17,1,6,-5,1,2,-60
1513431579529486,14,-20,-7,-9,-2,-1,0,28
1513431579542503,-7,13,6,7,2,1,2,-9
1513431579542503,-2,-3,6,2,-1,-2,1,-3
1513431579557507,-13,5,-4,-3,-3,3,6,5
1513431579557507,-6,-1,28,5,0,1,-1,9
1513431579565512,-16,-8,-25,3,3,1,-3,0
1513431579565512,26,-4,24,-14,-3,-3,0,13
1513431579567502,-26,-7,21,2,-4,-3,-5,-27
1513431579567502,2,26,26,-8,-1,0,-4,3
1513431579587536,20,-11,-17,-4,3,-4,-3,31
1513431579587536,2,3,-15,18,3,3,5,2
1513431579589525,-1,-12,6,-22,-4,1,-1,-14
1513431579589525,3,12,4,7,0,-2,-3,2
1513431579610546,-8,-21,-17,-1,-7,-6,-1,2
1513431579610546,9,-2,-7,0,0,1,-6,-2
1513431579610546,20,20,6,-4,1,1,5,39
1513431579610546,-16,-2,-9,3,-1,1,0,-13
1513431579625553,-7,3,14,-8,0,0,-1,-4
1513431579625553,1,-4,-7,-3,-6,-4,2,6
1513431579625553,3,4,4,11,1,-1,0,21
1513431579625553,2,-2,-17,-12,-4,-2,-2,-9
1513431579647556,-2,12,8,8,1,-1,-6,-23
1513431579647556,1,7,14,-18,-4,-4,-6,-22
1513431579648557,7,-11,-3,12,-3,0,0,-6
1513431579648557,-7,1,-8,-10,3,-2,-5,10
1513431579670583,-13,-4,-3,1,-3,-3,-3,-6
1513431579670583,9,0,4,-6,-2,3,8,0
1513431579670583,-9,-6,-13,-1,0,5,4,-3
1513431579670583,-5,-2,-9,6,-1,-4,-5,-25
1513431579685593,27,-4,-16,5,5,-2,-2,28
1513431579685593,-8,-5,-11,-4,-5,0,6,-14
1513431579685593,5,-3,21,-8,4,2,8,29
1513431579685593,-23,0,-27,-1,2,-1,-8,24
1513431579707599,-7,1,5,2,-1,-2,-2,13
1513431579707599,0,8,-22,-1,0,3,1,-28
1513431579708601,1,-32,-34,-5,-7,-1,2,-4
1513431579708601,1,-5,4,13,5,2,-7,-7
1513431579730615,-9,-6,-20,-11,0,-3,-5,-8
1513431579730615,-15,4,9,-4,-4,-3,10,34
1513431579730615,-2,2,0,-2,-5,-3,-5,-7
1513431579730615,20,3,10,0,5,4,-8,2
1513431579745626,-24,-15,-20,-8,-4,-3,10,-2
1513431579745626,-1,-9,6,-2,6,-1,-10,19
1513431579752649,2,6,5,13,-5,-1,0,-9
1513431579752649,-9,-5,-16,-12,-5,-3,-1,-23
1513431579767659,16,-7,14,3,-5,-4,4,10
1513431579767659,-16,4,-31,5,0,-1,-1,-3
1513431579768643,1,6,15,-9,5,2,2,16
1513431579768643,-16,1,3,21,-7,-6,-8,3
1513431579790657,4,-22,-12,-29,6,4,4,12
1513431579790657,6,3,18,9,-4,-5,-9,-1
1513431579790657,3,2,3,4,4,5,10,10
1513431579790657,2,7,3,-4,0,-3,1,14
1513431579805686,-4,5,7,18,4,-1,-6,-8
1513431579805686,-2,-7,5,-13,-5,-2,-1,-7
1513431579805686,-2,-12,-6,-3,-2,3,3,1
1513431579805686,-5,-5,14,7,-1,-2,-9,3
1513431579827684,-2,-7,-6,-1,-1,-2,-4,-9
1513431579827684,24,-9,4,-4,-2,0,5,4
1513431579828684,-32,-12,0,1,-6,-3,-2,-4
1513431579828684,10,12,9,-10,-3,-4,-1,-17
1513431579849714,-21,-6,-8,9,-2,-4,-3,16
1513431579849714,14,-4,17,-1,0,0,0,-50
1513431579850716,16,-1,-3,-23,-2,-4,-3,0
1513431579850716,-8,0,-4,4,4,1,-4,-8
1513431579864738,8,8,8,-3,1,-1,-6,1
1513431579864738,8,2,1,9,-5,2,6,11
1513431579865722,-7,0,1,3,-4,1,3,-4
1513431579865722,-7,-9,-11,-8,5,1,2,-5
1513431579887727,5,15,3,-1,-7,-6,-7,-4
1513431579887727,-14,-3,-20,-1,0,2,4,-22
1513431579888727,9,-1,-24,-5,-1,1,2,-26
1513431579888727,-5,0,3,5,1,-2,-1,16
1513431579909742,-8,1,-7,-12,-4,-1,-2,-22
1513431579909742,11,2,-12,-2,-1,-2,-3,27
1513431579910744,8,10,20,8,-1,0,6,29
1513431579910744,-4,-2,9,-9,-3,-2,-9,-15
1513431579924753,9,18,14,7,11,9,4,-3
1513431579924753,-4,-18,-7,-9,-6,-5,-1,10
1513431579925753,-13,7,17,34,-7,-3,-4,-13
1513431579925753,14,-5,-19,-37,8,1,1,22
1513431579947784,-5,4,-7,-2,-6,-4,-5,13
1513431579947784,-6,-19,6,-5,-1,-2,-2,11
1513431579948785,5,13,11,5,2,-1,0,-10
1513431579948785,-32,1,15,13,-1,0,1,-17
1513431579970786,3,5,8,5,2,-4,-5,-8
1513431579970786,-13,-12,0,-3,-1,9,15,5
1513431579970786,18,1,-3,0,-8,-9,-19,5
1513431579970786,3,0,29,-6,-3,-5,-8,-57
1513431579984804,-5,-17,-2,-10,0,0,3,0
1513431579984804,-6,26,22,15,-2,-1,10,19
1513431579985795,5,-10,-16,-15,-3,4,3,-21
1513431579985795,5,12,7,8,5,0,-1,23
1513431580007811,5,2,5,-1,-1,-5,-11,-13
1513431580007811,-7,14,4,-4,-3,-2,5,-5
1513431580008812,1,-10,9,-5,-7,-1,-2,5
1513431580008812,-20,-21,-35,-14,-7,-3,-1,-13
1513431580030827,-7,-3,-12,7,-1,-2,6,-22
1513431580030827,9,9,7,-16,-5,-6,-1,36
1513431580037832,-11,-10,6,24,-1,-3,-10,1
1513431580037832,-5,0,-9,-33,2,2,1,-11
1513431580044839,16,4,0,9,-3,-6,-6,32
1513431580044839,-5,-3,2,0,-2,4,6,-24
1513431580045844,10,3,-1,-13,-3,1,5,-42
1513431580045844,-7,-17,-18,5,0,-5,-3,32
1513431580067863,26,8,4,6,5,0,-3,-9
1513431580067863,1,0,0,0,-5,-1,4,-17
1513431580068879,6,-18,-48,-18,2,-1,0,22
1513431580068879,-11,9,4,17,2,1,-5,-5
1513431580089881,-19,-13,-6,-2,-7,-1,5,-22
1513431580089881,18,-4,-24,-4,-3,1,1,7
1513431580090870,-5,-10,15,-12,4,1,-4,-3
1513431580090870,-7,13,39,11,0,-2,-8,-2
1513431580104892,-8,0,-12,-6,-5,-5,-5,7
1513431580104892,13,-10,-7,20,-2,-1,-4,-3
1513431580105880,4,6,4,-19,-3,2,2,14
1513431580105880,-2,6,-11,4,3,0,-6,-7
1513431580127906,-15,0,-1,-3,1,-1,0,3
1513431580127906,-9,2,13,11,1,2,3,-1
1513431580128922,7,4,-4,-12,-3,-1,-1,-20
1513431580128922,-1,13,-8,11,-3,-8,-9,15
1513431580149924,-5,-1,-6,-6,2,-2,4,-1
1513431580149924,-4,-7,-12,-6,-10,-1,3,-27
1513431580150913,2,8,-2,2,3,0,6,14
1513431580150913,-17,-3,-3,6,-2,-2,-10,-5
1513431580164948,-7,-15,-7,-5,-3,-7,-3,10
1513431580164948,34,14,41,1,0,0,2,-5
1513431580165923,-7,-14,-3,1,-3,-1,-2,18
1513431580165923,9,-6,-17,-10,3,-4,-9,-26
1513431580187938,-27,-6,20,-1,0,0,-2,-4
1513431580187938,-9,8,13,-7,-4,-4,-1,0
1513431580187938,9,16,-17,-3,0,-3,-9,4
1513431580187938,-5,-16,-11,5,1,1,-2,10
1513431580209956,-1,-14,-7,-3,-2,-4,3,-16
1513431580209956,-12,-12,-14,-12,-6,-2,4,11
1513431580210955,0,14,7,5,-1,-2,-6,2
1513431580210955,9,7,8,3,-1,-1,-6,4
1513431580224965,12,8,-17,1,-2,1,1,-10
1513431580224965,-25,-10,18,7,-7,-3,4,-24
1513431580232987,-7,-15,-21,-29,0,0,10,34
1513431580232987,13,-2,-1,12,1,-2,-6,2
1513431580247991,2,6,-2,7,-3,-2,-3,-9
1513431580247991,10,2,9,-4,2,3,1,0
1513431580247991,-9,-10,20,13,-1,1,-5,-7
1513431580247991,-15,-21,-4,-13,-1,-2,-2,-13
1513431580269997,-4,12,-2,-9,-5,-5,0,17
1513431580269997,19,4,-5,11,-6,-1,5,2
1513431580270997,3,21,-19,-12,2,1,3,-7
1513431580270997,-25,-24,-7,2,-6,-1,-8,-1
1513431580285019,5,8,4,1,5,1,-1,-1
1513431580285019,-5,-6,8,-1,-2,-2,3,20
1513431580286008,-8,-1,-7,11,1,4,7,26
1513431580286008,5,3,-15,-9,3,-7,-17,-15
1513431580308023,-3,-7,-3,-2,4,4,6,-10
1513431580308023,-6,-8,-20,-2,-2,2,6,-6
1513431580315029,6,8,9,-1,1,-2,-6,33
1513431580315029,-5,-16,3,-29,1,0,-7,-36
1513431580330039,1,-1,-11,8,0,-2,-2,-19
1513431580330039,15,9,19,0,0,-1,2,11
1513431580331039,-9,-22,-7,5,-4,-3,-4,-26
1513431580331039,5,39,24,14,4,-2,-1,12
1513431580345060,3,-8,-17,-22,0,-3,-3,12
1513431580345060,1,1,-10,-6,-2,2,7,-1
1513431580346050,-8,0,5,-1,1,0,-1,5
1513431580346050,-4,4,14,10,2,-4,-1,-16
1513431580367092,11,16,12,10,4,-2,4,36
1513431580367092,2,-9,-26,-24,-3,1,1,-1
1513431580368079,-8,-2,21,4,-3,2,0,-62
1513431580368079,3,-9,-23,1,1,-1,-3,26
1513431580390081,-7,10,15,7,-1,-4,-4,-15
1513431580390081,-2,-4,15,-4,-4,-1,-3,1
1513431580391088,22,-21,-4,-4,-1,-3,-2,-20
1513431580391088,-13,19,-11,-5,0,-3,-1,11
1513431580404120,-10,-6,6,5,-12,-4,-6,-17
1513431580404120,11,16,11,-5,-7,-6,-2,4
1513431580413120,6,-1,-21,3,-1,-2,-1,12
1513431580413120,-10,-11,-14,-23,1,-2,-2,-24
1513431580428108,-6,-5,-8,0,-3,-1,4,10
1513431580428108,15,-11,3,6,-4,-2,-7,-2
1513431580428108,-3,1,-12,-1,-2,0,-1,-32
1513431580428108,-3,-6,-28,0,-5,-6,-6,25
1513431580450136,-4,-2,-2,3,1,-3,-17,-1
1513431580450136,2,-15,-30,-34,-4,6,10,-35
1513431580451137,-17,-6,20,7,-2,-4,-6,6
1513431580451137,-6,2,15,12,6,4,2,17
1513431580464159,0,-2,-11,-2,3,0,-1,-18
1513431580464159,7,15,4,12,-8,-6,11,35
1513431580473152,-10,-6,9,-14,4,5,-3,8
1513431580473152,6,25,9,18,8,-1,-6,1
1513431580488175,14,-11,1,-16,-7,-3,-6,-30
1513431580488175,5,8,16,17,9,0,-2,9
1513431580490166,2,-6,-24,-6,-2,7,16,28
1513431580490166,1,-12,-8,4,1,-3,-7,-10
1513431580510166,-11,-5,10,1,3,-1,5,31
1513431580510166,-2,-7,-3,1,-6,0,-1,-41
1513431580511167,-1,-27,-4,-1,0,-1,-1,-17
1513431580511167,8,19,-7,0,1,-1,-2,23
1513431580524186,-9,-12,-9,1,2,-7,0,-15
1513431580524186,1,-12,-4,6,-13,-6,-8,11
1513431580533198,-8,23,23,-14,2,4,6,-2
1513431580533198,-1,-27,-8,2,-2,-3,-10,-45
1513431580547205,12,-2,-12,-5,-3,-1,5,-5
1513431580547205,17,4,18,23,7,1,2,3
1513431580548193,-3,7,6,-20,-11,-4,-2,2
1513431580548193,-6,6,-10,5,0,-2,-6,8
1513431580571224,9,-13,10,-6,-2,-1,2,-12
1513431580571224,-1,-13,-5,4,-6,1,4,5
1513431580571224,-5,-2,-64,-6,-3,-1,0,-29
1513431580571224,1,22,-10,-10,3,1,4,14
1513431580584229,-15,16,47,10,2,3,-5,3
1513431580584229,3,10,-17,-14,0,2,12,41
1513431580592224,10,-4,26,8,0,0,-13,11
1513431580592224,-10,-15,-17,-2,-1,-8,-5,-12
1513431580607235,31,0,-14,4,2,-1,-8,15
1513431580607235,0,3,10,-5,-3,-2,16,-3
1513431580608237,3,7,19,5,-2,-1,-21,6
1513431580608237,-6,-8,-2,1,-2,-1,-5,6
1513431580631252,-6,10,-6,-1,-3,-2,-3,5
1513431580631252,11,-8,-8,-12,-1,2,7,-25
1513431580631252,12,-10,7,1,-2,-5,2,11
1513431580631252,-3,-4,3,5,2,-2,-2,-6
1513431580644265,-4,4,-18,0,-4,-6,4,-4
1513431580644265,-3,-15,-5,-1,-4,3,4,-12
1513431580653273,3,10,21,6,4,-1,5,9
1513431580653273,-10,4,-6,-4,1,1,-9,-3
1513431580667278,-7,-4,-14,-4,-5,0,5,-4
1513431580667278,0,-4,0,2,-3,-1,0,6
1513431580668278,-4,2,13,3,-3,-2,-2,-1
1513431580668278,-15,-4,6,1,4,-2,-4,-1
1513431580691298,12,-2,6,4,2,-1,0,9
1513431580691298,-10,-5,-18,-9,-5,2,-3,-10
1513431580691298,1,3,-1,-1,2,1,6,9
1513431580691298,3,-2,-2,-2,-1,-8,-6,-6
1513431580704303,-8,-1,0,2,0,0,0,2
1513431580704303,-15,-3,1,0,-3,2,4,3
1513431580712349,-11,14,8,8,-2,-1,-7,-3
1513431580712349,-5,2,10,-1,2,2,3,5
1513431580727338,-14,-14,-33,-6,-5,-5,-5,-16
1513431580727338,9,4,5,-2,-1,2,3,7
1513431580728321,-1,2,8,3,-1,-2,-12,-2
1513431580728321,-8,-40,-22,-2,1,-1,1,0
1513431580750355,-18,2,4,-3,0,-1,3,-1
1513431580750355,-5,1,14,-4,-5,-2,3,-6
1513431580751336,-11,-12,-7,2,0,-1,1,-1
1513431580751336,4,0,18,-2,1,-3,-5,2
1513431580773365,-2,1,12,-2,-1,2,0,-3
1513431580773365,4,-13,-1,3,-1,0,4,0
1513431580774353,2,1,-6,-3,0,-2,0,-1
1513431580774353,-4,12,9,-1,2,-3,-7,-3
1513431580787377,1,0,-15,-2,-1,0,3,0
1513431580787377,3,5,0,-4,-4,1,1,2
1513431580788377,-4,4,-4,-5,-3,-4,0,1
1513431580788377,-2,5,-5,2,0,1,-3,-6
1513431580810392,3,-2,-4,-1,0,4,12,2
1513431580810392,5,-7,4,-3,-6,-10,-28,-3
1513431580811379,-3,-5,0,0,0,4,7,-4
1513431580811379,6,3,-15,-1,-1,-6,0,7
1513431580834408,4,0,3,0,-2,1,-5,-2
1513431580834408,3,2,4,1,-1,2,11,-1
1513431580835397,-4,-2,12,0,-3,-2,2,2
1513431580835397,2,4,-17,0,1,-3,-12,-3
1513431580847415,0,-1,4,2,-2,-2,1,-1
1513431580847415,4,4,13,-3,-2,2,4,1
1513431580848405,-2,0,-9,-11,-3,-2,-2,-2
1513431580848405,-5,1,0,3,4,1,-3,-1
1513431580871424,-4,-22,-8,-2,-2,-1,-2,-3
1513431580871424,5,-4,-3,2,-3,1,6,-1
1513431580871424,-4,-8,-14,-1,0,-2,-2,-6
1513431580871424,5,6,10,-3,1,-4,-3,7
1513431580893437,1,5,5,0,-2,-5,-3,-2
1513431580893437,0,-4,-1,1,-3,2,7,1
1513431580895464,3,0,-4,4,1,3,2,-5
1513431580895464,-11,-3,3,0,-3,-8,-5,2
1513431580907447,2,-2,-17,-4,0,0,0,-4
1513431580907447,-3,2,0,-4,-2,0,8,-1
1513431580908448,1,-1,-1,-1,-4,-3,-2,3
1513431580908448,-11,-1,-5,-1,-1,0,-1,-5
1513431580930464,3,4,8,-1,0,0,-2,1
1513431580930464,6,3,-1,-2,-2,1,2,1
1513431580931465,-2,-7,-2,2,1,1,-3,0
1513431580931465,-3,0,-4,0,1,-1,-6,-2
1513431580953498,2,4,0,-5,-3,0,0,1
1513431580953498,4,-5,11,4,-3,-1,1,-1
1513431580954481,1,1,4,4,0,-3,0,1
1513431580954481,-2,-1,-6,-2,0,-1,-1,-5
1513431580967507,3,-3,-6,-9,-1,-2,0,1
1513431580967507,0,-3,-3,-2,-5,0,3,1
1513431580968490,0,7,14,-1,1,2,-1,0
1513431580968490,-5,1,-4,4,1,-2,-2,-5
1513431580990506,0,1,9,-1,0,-2,-9,0
1513431580990506,0,-5,7,-2,-5,3,2,1
1513431580991507,-2,-1,-8,-1,-2,0,-3,0
1513431580991507,-6,-4,-6,-3,-1,-1,-5,-4
1513431581013541,-1,1,2,1,1,-1,1,2
1513431581013541,5,2,18,2,-1,0,1,-1
1513431581014526,-6,1,-17,-2,-2,1,-1,0
1513431581014526,-3,-4,-9,-3,1,-2,-2,-5
1513431581027549,-1,3,0,2,0,-2,2,3
1513431581027549,3,-2,0,-1,-2,0,-1,0
1513431581028534,1,-1,2,-2,0,0,1,1
1513431581028534,-3,3,-5,-1,3,-3,-7,-1
1513431581050562,-5,-5,-4,-1,-5,0,4,-3
1513431581050562,1,-4,-4,-10,-4,2,4,-1
1513431581051550,2,0,1,1,-1,-1,-4,0
1513431581051550,-2,5,0,3,3,-2,-5,-3
1513431581073564,-1,-3,-6,2,-1,-1,-1,2
1513431581073564,2,-4,-21,-8,-2,-2,3,1
1513431581074576,-1,0,11,2,-1,1,-4,-2
1513431581074576,-1,0,11,3,-1,-4,-2,-4
1513431581087591,1,-7,-15,-7,-5,-4,1,-2
1513431581087591,1,1,7,-6,-4,3,3,0
1513431581088575,-4,-1,-17,-2,0,-2,-1,0
1513431581088575,-5,1,11,2,2,0,-2,-2
1513431581110611,2,3,8,6,-3,1,1,-4
1513431581110611,2,-2,-4,0,0,-1,-3,-3
1513431581111592,-3,1,-12,-8,-3,-4,-4,-4
1513431581111592,-4,-2,-8,-3,-1,1,-7,0
1513431581133622,1,2,-7,-3,-2,-2,3,1
1513431581133622,2,-4,2,1,-1,0,2,0
1513431581133622,-2,0,13,3,0,0,-2,-1
1513431581133622,-8,-10,-14,-15,-2,-7,-5,-1
1513431581147617,4,4,21,7,4,0,-1,-2
1513431581147617,3,-3,6,-3,-3,2,5,-1
1513431581148617,-3,-4,-24,-4,-2,-1,-3,-4
1513431581148617,0,3,-29,-2,4,1,-4,1
1513431581178639,-1,-2,15,-3,-2,2,5,-3
1513431581178639,2,3,21,9,-3,-3,1,-1
1513431581179640,-2,0,4,-1,0,-3,-7,-1
1513431581179640,-3,-2,11,3,-3,0,-4,1
1513431581193659,-4,2,-7,-1,0,-1,5,1
1513431581193659,0,-3,1,0,0,1,0,0
1513431581193659,-3,-3,-8,-6,-1,-1,1,1
1513431581193659,-4,0,-9,3,1,-2,-3,-2
1513431581207669,0,-2,-4,0,-5,-4,-2,0
1513431581207669,1,-2,-5,-3,-2,0,-1,-2
1513431581208660,-3,1,14,4,3,-2,-4,-2
1513431581208660,-2,-3,-18,-1,-1,-2,1,-2
1513431581230686,-2,-2,-4,-4,1,-1,-1,-2
1513431581230686,0,2,22,0,0,1,0,0
1513431581231691,2,-2,-10,0,-2,0,2,0
1513431581231691,-4,-4,7,1,0,0,-1,-1
1513431581253705,2,8,21,16,3,3,-1,0
1513431581253705,0,-7,-36,-11,-5,1,-1,1
1513431581253705,1,5,41,5,0,0,-5,-1
1513431581253705,-7,-1,-16,5,1,-2,4,-2
1513431581267703,0,-2,-9,-6,-1,0,-7,-1
1513431581267703,1,3,21,13,-1,0,1,0
1513431581268703,-4,-4,-5,-5,-3,-2,0,-3
1513431581268703,-1,-1,-7,-7,-2,-1,-2,-1
1513431581290718,-1,1,3,2,-2,0,-2,0
1513431581290718,-1,-6,-9,-3,-5,-3,5,-1
1513431581291719,-2,-4,-5,-4,-1,-1,-3,2
1513431581291719,0,1,-2,-2,1,-3,-5,-3
1513431581313749,0,-5,-11,-3,-3,0,3,0
1513431581313749,4,2,8,-3,-3,0,-2,0
1513431581313749,-5,-6,-13,1,2,-2,-2,-2
1513431581313749,0,-1,3,-5,-4,-3,-3,-3
1513431581326753,-2,0,14,0,0,-1,1,0
1513431581326753,2,-3,-32,1,-5,1,2,-3
1513431581334758,-3,2,24,5,3,2,-6,1
1513431581334758,-2,2,5,-3,3,0,-2,-2
1513431581350770,-3,-5,-23,-7,-4,-2,2,-2
1513431581350770,0,1,16,5,-1,0,3,1
1513431581351770,-1,-2,-11,-2,-3,4,-2,-4
1513431581351770,-3,-3,-18,-8,1,-8,-2,-3
1513431581373805,2,-4,-4,-7,-3,-3,0,2
1513431581373805,1,-2,6,-2,-3,-1,-9,-6
1513431581373805,6,0,-16,-1,1,2,1,3
1513431581373805,-21,0,0,-3,-1,1,0,-6
1513431581387788,4,1,3,2,-3,1,-2,0
1513431581387788,1,-1,8,-2,-5,0,4,0
1513431581394808,-3,-3,-15,-4,1,-3,-3,1
1513431581394808,0,1,25,5,2,-1,-8,-2
1513431581410806,0,-4,-10,-6,-4,-5,5,-3
1513431581410806,-1,1,-13,-5,0,2,1,1
1513431581411803,-7,0,11,0,1,-4,-4,-1
1513431581411803,4,-2,11,-7,-2,-4,2,1
1513431581432830,2,-3,-9,1,-5,0,2,-3
1513431581432830,-1,1,-6,-5,-1,1,1,2
1513431581433819,-3,1,25,2,-3,-3,-2,-3
1513431581433819,0,-2,-36,0,-2,1,-3,1
1513431581446838,4,-1,-1,2,-1,-5,8,-1
1513431581446838,-1,0,-4,-4,-2,2,0,2
1513431581454844,-6,2,-3,-2,2,-3,-7,-2
1513431581454844,-3,0,-4,1,2,-1,0,-1
1513431581470858,0,-4,-16,-8,-3,1,-8,2
1513431581470858,3,-2,24,2,1,3,1,-11
1513431581471857,0,-2,-40,-9,-3,-1,0,0
1513431581471857,1,2,7,6,0,-1,2,3
1513431581492872,1,1,0,2,-3,2,0,-2
1513431581492872,2,-1,12,3,-4,-3,4,3
1513431581493861,-5,-2,-14,-5,0,-2,-3,-4
1513431581493861,-3,-3,-4,0,-2,0,-5,-7
1513431581506887,20,-1,8,-1,1,0,1,14
1513431581506887,-2,-3,-1,1,-1,-2,-5,-1
1513431581514895,-2,0,-1,1,0,0,-1,0
1513431581514895,-2,0,21,4,0,-1,-5,0
1513431581530900,0,-2,15,1,-2,0,1,-5
1513431581530900,0,-3,-4,-4,-3,-1,5,-2
1513431581531889,2,1,0,3,-1,0,-5,2
1513431581531889,-3,2,-9,-5,1,-4,-8,0
1513431581553916,-6,1,1,-1,-1,0,1,-1
1513431581553916,-1,-3,3,-2,-3,0,3,4
1513431581554915,-7,-3,0,-3,-1,-1,-2,-5
1513431581554915,-6,1,-6,-1,2,0,-1,0
1513431581566934,-1,-3,2,-1,-3,-2,2,-5
1513431581566934,0,-2,-6,-4,-3,0,0,3
1513431581574931,0,-3,-1,-3,0,-3,-2,1
1513431581574931,2,0,-1,0,-2,-2,-2,2
1513431581590936,-4,0,-3,-1,-3,0,2,-2
1513431581590936,2,-1,-5,-4,0,0,0,-2
1513431581591942,-6,-2,2,0,-2,-1,-5,1
1513431581591942,3,0,0,1,2,-1,-3,-2
1513431581613003,-5,-2,-7,-4,-4,-1,1,1
1513431581613003,-8,-2,4,-2,-4,0,0,1
1513431581613947,-2,-1,5,-2,1,-2,-1,0
1513431581613947,0,-1,-5,1,-1,0,-4,-1
1513431581626968,3,-3,-3,-2,-2,0,1,-2
1513431581626968,4,1,-1,-1,-2,2,-1,3
1513431581634961,-2,-1,-2,-1,-1,-2,-4,-5
1513431581634961,-2,1,-1,1,0,-2,1,2
1513431581649972,0,-2,1,-3,-3,-1,2,-4
1513431581649972,0,-2,2,-1,-1,-2,0,1
1513431581656977,0,-1,-1,0,-1,-3,-3,0
1513431581656977,1,-2,-3,-3,-2,1,0,0
1513431581672989,-1,-3,3,-1,-3,-2,6,-2
1513431581672989,1,-1,-3,-1,-2,0,1,0
1513431581674990,-6,0,-3,0,2,1,-1,2
1513431581674990,-4,-1,-1,2,-1,-2,-8,0
1513431581696017,0,-2,-1,0,-1,4,2,-3
1513431581696017,4,-2,-3,-2,-2,-8,-6,-1
1513431581697016,-5,0,-3,-1,-1,0,-2,3
1513431581697016,-4,-1,-3,-1,0,0,2,-4
1513431581710025,2,0,2,0,-3,-1,2,-1
1513431581710025,0,0,0,-2,-1,2,1,4
1513431581717045,1,0,0,-2,0,-2,-3,-2
1513431581717045,1,-2,-2,-1,1,-4,-2,-1
1513431581733043,5,-4,-2,-4,-3,-2,1,3
1513431581733043,2,-1,2,-2,-3,1,0,-7
1513431581735044,-1,1,-1,-1,-2,-4,-3,1
1513431581735044,-1,0,-3,0,0,-1,-2,0
1513431581756061,2,-1,2,0,-3,-2,-1,-2
1513431581756061,0,-1,1,-1,0,2,3,1
1513431581757060,-3,0,-2,-2,3,-2,-4,-5
1513431581757060,0,0,-3,0,-1,-3,0,-1
1513431581770071,2,-3,1,0,-3,-1,1,-1
1513431581770071,-3,-1,-1,0,-3,0,0,3
1513431581777062,-3,1,-2,-3,2,-1,-6,-1
1513431581777062,-2,-1,-3,0,0,-1,-1,-3
1513431581792072,1,-1,-1,-2,-2,-1,2,-2
1513431581792072,4,-2,2,-2,-3,0,1,0
1513431581801112,-3,-2,0,-1,1,-2,-3,-2
1513431581801112,-2,-1,-3,-2,-2,-3,-2,1
1513431581816118,-2,-1,0,-1,2,0,2,2
1513431581816118,5,-1,-2,-1,-1,0,4,-2
1513431581818101,-2,0,-1,0,1,-1,-5,-2
1513431581818101,-3,-2,1,-2,-1,-1,-3,-3
1513431581830110,1,0,-1,-2,-5,0,2,2
1513431581830110,1,-5,-2,-2,-2,-1,1,-3
1513431581837119,-4,-1,-2,2,0,0,-2,-1
1513431581837119,0,0,0,1,-2,-1,-3,0
1513431581853128,4,-2,-1,-1,-2,-1,3,-4
1513431581853128,-1,-2,1,-2,-2,1,-1,-3
1513431581855118,-3,-3,-2,-1,-1,-1,-2,-3
1513431581855118,-3,-3,0,-3,-1,-2,-2,-2
1513431581876132,2,-1,1,-2,-5,-2,1,-4
1513431581876132,-1,1,-1,-3,-1,0,0,-3
1513431581877132,-6,-3,-3,-2,1,-2,-5,0
1513431581877132,0,1,-4,-1,1,-1,2,-2
1513431581890141,1,-1,1,-1,-4,-1,3,1
1513431581890141,-2,0,-1,-2,-3,-1,-2,0
1513431581897159,-5,1,-3,1,-1,-2,-6,-3
1513431581897159,-1,1,-3,-1,-1,-3,-2,1
1513431581913161,5,-2,1,-1,-2,-1,1,0
1513431581913161,-1,1,2,0,0,1,-3,1
1513431581915159,-4,-4,-4,-1,1,0,-4,-2
1513431581915159,-1,-2,-3,1,-1,-2,-1,0
1513431581936175,2,-1,0,0,-2,-2,3,1
1513431581936175,-1,-3,0,-2,-1,-1,-1,-2
1513431581937176,-3,0,-2,-2,0,0,-4,-2
1513431581937176,-3,-1,-4,-2,1,-3,-4,0
1513431581950186,-2,-1,0,-1,-4,2,5,2
1513431581950186,0,-2,-2,-3,-1,-1,1,-2
1513431581957189,-5,1,-3,-2,-2,-3,-6,1
1513431581957189,-5,-2,-1,-1,-1,-2,-3,-1
1513431581973212,1,-3,2,-3,0,0,0,-2
1513431581973212,-2,-1,1,-1,-1,4,-3,1
1513431581975214,-3,0,-2,-1,1,-1,-3,-3
1513431581975214,-1,-1,-3,-1,-1,-2,-2,0
1513431581996226,0,0,0,0,-1,1,2,1
1513431581996226,-1,-3,1,-2,-3,0,-1,0
1513431581997217,-6,-2,-3,-2,2,-2,-3,-2
1513431581997217,-2,-1,-2,1,1,-3,2,-3
1513431582010236,2,-2,-1,-1,-4,-1,1,-1
1513431582010236,-1,-1,0,-1,-1,0,-2,1
1513431582017231,-2,-1,-3,-1,0,-2,-3,-3
1513431582017231,-3,0,-1,0,0,-1,-2,0
1513431582033255,1,-1,0,0,-2,-1,1,0
1513431582033255,-2,0,1,0,-2,-1,1,0
1513431582035245,-6,-1,-4,0,2,-3,-4,0
1513431582035245,0,-1,-2,-2,-1,-1,-1,-4
1513431582055268,1,-2,1,0,-4,0,3,2
1513431582055268,2,-3,-1,-3,-1,-1,-3,-6
1513431582063266,3,0,-2,-1,2,-2,-9,4
1513431582063266,1,0,-2,0,-3,1,-2,-12
1513431582070282,2,-3,0,-1,-3,-1,3,-2
1513431582070282,-5,0,1,-1,-1,-1,-1,-1
1513431582077274,-5,0,-5,-1,1,-3,-3,0
1513431582077274,0,-1,-2,1,-1,-1,0,1
1513431582093302,5,0,1,0,-1,1,0,0
1513431582093302,-1,-1,0,-1,0,1,2,0
1513431582095286,-4,0,-3,-1,1,-3,-4,-1
1513431582095286,-2,1,-2,-2,-2,-2,-3,2
1513431582116316,2,-3,1,-2,-5,-1,2,-1
1513431582116316,-1,-2,-2,0,-2,-3,1,3
1513431582118304,-8,-3,-1,0,1,0,-6,-7
1513431582118304,0,-3,-4,-1,0,-1,0,-1
1513431582130312,1,-1,2,-2,-2,0,6,-6
1513431582130312,-2,0,-2,-1,-1,-1,-4,1
1513431582137334,-2,0,-2,-1,0,-2,-4,-3
1513431582137334,-4,0,-1,0,-2,-2,0,0
1513431582153345,3,-1,0,-1,0,0,3,0
1513431582153345,-1,-3,0,-2,-2,1,-2,0
1513431582155347,-6,1,-3,-1,-2,-3,-2,-2
1513431582155347,3,0,1,-1,-1,-2,-4,-4
1513431582175362,2,0,-2,-3,-2,1,2,1
1513431582175362,0,-2,1,-3,-2,1,-1,1
1513431582177344,-3,2,-3,1,2,0,-6,0
1513431582177344,-1,-3,-1,-2,-1,-3,-2,0
1513431582189353,2,-4,5,-1,-5,-1,3,-1
1513431582189353,2,-1,-3,0,-3,1,2,-3
1513431582198359,-5,0,-2,0,2,0,-7,0
1513431582198359,0,-3,-1,-1,-1,-3,0,2
1513431582213385,1,-2,0,-1,-5,0,1,-1
1513431582213385,-1,-4,0,-1,0,0,-1,0
1513431582215390,-4,-2,-4,1,0,-3,-1,0
1513431582215390,-2,0,-2,-1,0,1,-2,-2
1513431582235395,2,-2,1,-1,-3,-1,1,2
1513431582235395,0,1,2,0,-1,-1,0,-2
1513431582237388,-3,-2,-4,-1,0,-2,-5,-2
1513431582237388,0,-1,-2,0,-1,-2,1,-2
1513431582249405,0,-2,2,-1,-4,1,4,1
1513431582249405,-4,-1,0,-2,0,-1,-2,1
1513431582258402,0,-2,-3,-1,2,-2,-6,-3
1513431582258402,-2,-3,-3,0,0,-3,0,2
1513431582273422,3,-1,-1,0,-2,-1,4,-1
1513431582273422,-1,-2,-1,1,-3,0,-1,-2
1513431582274422,-2,0,-3,-2,1,-2,-4,-4
1513431582274422,-3,1,-2,1,-1,-1,-2,2
1513431582295440,2,-4,0,-1,-1,0,1,0
1513431582295440,-2,-2,-1,-2,-1,-2,0,-1
1513431582297430,-8,2,-2,-2,0,-3,-2,-2
1513431582297430,0,0,-1,-1,-1,0,-1,-2
1513431582309438,1,0,3,-3,-3,1,0,0
1513431582309438,-2,0,0,-1,-1,-2,0,-1
1513431582319470,-7,-1,-8,-1,1,-1,-4,-1
1513431582319470,-2,0,-2,-1,0,-1,-1,0
1513431582333455,3,0,2,0,-2,-2,4,-1
1513431582333455,0,0,-2,-1,-1,1,-2,-2
1513431582334469,-6,0,-1,-2,3,0,-5,-1
1513431582334469,-2,-2,-1,0,-3,-2,1,-1
1513431582355470,3,-3,1,-2,-3,-2,3,-2
1513431582355470,-1,-3,1,-2,0,2,1,2
1513431582357483,-4,0,-4,0,0,-2,-4,-4
1513431582357483,-2,-2,-3,-1,1,-1,-2,-1
1513431582369480,2,-1,0,-4,-3,-1,4,1
1513431582369480,-1,0,1,0,-3,0,-1,-3
1513431582378487,-4,-3,-1,2,1,-1,-6,1
1513431582378487,-1,0,-1,-2,-1,-2,-4,-1
1513431582393510,1,-2,0,0,-5,0,5,-1
1513431582393510,-2,-2,1,-3,1,0,-1,0
1513431582395500,-4,0,-4,-2,1,-3,-4,2
1513431582395500,-1,-1,-1,2,1,-3,0,1
1513431582415534,3,-4,1,-2,-3,1,2,-1
1513431582415534,1,1,-2,-1,-3,-1,-1,-3
1513431582418515,-5,-1,-1,0,2,-1,-3,-6
1513431582418515,-2,0,-2,0,-2,0,-2,-3
1513431582429523,-1,-1,1,0,-1,1,3,0
1513431582429523,0,0,0,-1,0,0,0,1
1513431582438531,-2,-1,-2,0,0,-4,-4,-3
1513431582438531,2,-2,-2,-3,-1,-1,-1,-3
1513431582453541,4,-3,0,-1,-5,1,3,0
1513431582453541,-3,-1,-1,-2,0,1,-1,0
1513431582454557,-3,1,-3,0,-1,-1,-4,-1
1513431582454557,-1,-1,-1,-2,-1,-1,1,1
1513431582475555,2,1,1,-2,0,-1,2,-1
1513431582475555,-3,-2,1,-1,-1,-5,-1,-1
1513431582477558,-4,-2,-4,-1,0,-4,-5,-1
1513431582477558,0,0,-2,0,-1,4,1,-1
1513431582490566,2,-3,2,-4,-5,2,1,0
1513431582490566,1,1,-2,0,0,1,-2,1
1513431582498572,-5,0,-5,-2,1,-4,-2,0
1513431582498572,0,0,1,0,-1,-2,-3,-2
1513431582513621,1,-3,3,0,-2,1,3,0
1513431582513621,1,-1,0,-1,-3,0,-4,-3
1513431582514593,-2,-2,-2,1,-1,-1,-2,1
1513431582514593,-2,-3,-1,-1,0,-4,1,-3
1513431582535607,3,1,0,-1,-1,-1,1,0
1513431582535607,-2,-1,-4,-1,-1,1,-1,-1
1513431582537599,-6,2,-2,-2,1,-1,-5,-3
1513431582537599,-1,-2,-2,-2,-1,-2,2,0
1513431582549624,1,-3,0,-3,-4,1,2,0
1513431582549624,2,-2,-2,-2,-1,0,0,-4
1513431582558615,-4,-1,-4,-1,3,-3,-6,-5
1513431582558615,-3,-1,-1,-1,-1,-3,2,2
1513431582573634,2,-2,3,-2,-2,-1,0,-2
1513431582573634,-1,-2,1,-3,0,2,0,2
1513431582574638,-1,0,-5,-3,2,-1,-3,-2
1513431582574638,-1,0,-2,-2,-3,-1,1,-1
1513431582603646,0,-2,0,-1,-4,0,1,1
1513431582603646,-1,-3,0,-1,-2,-1,-1,-3
1513431582604650,-3,-1,-3,-1,1,-2,-6,-2
1513431582604650,3,1,-2,0,-1,-2,-1,0
1513431582618657,0,-1,0,0,-2,-1,2,0
1513431582618657,2,1,1,-1,0,-1,-1,-3
1513431582620662,-4,-2,-2,-2,2,-2,-4,-1
1513431582620662,0,-2,-1,0,-4,0,-1,-1
1513431582633684,1,-1,1,-2,-1,1,3,0
1513431582633684,-3,0,0,-2,-3,-2,-3,-1
1513431582634695,-1,-1,-3,0,0,-5,-3,-3
1513431582634695,-1,-4,-2,-3,-2,-1,-2,-1
1513431582655683,0,0,0,-3,-2,-1,5,-1
1513431582655683,-2,-1,-4,-3,1,1,-1,-1
1513431582657684,-3,0,-5,-1,0,-1,-4,-4
1513431582657684,-2,0,-1,0,-1,-4,0,0
1513431582678709,-1,-2,2,1,-4,2,2,0
1513431582678709,-1,0,-3,1,-2,-1,-2,-1
1513431582679700,-6,-1,-2,-1,-1,-2,-1,-2
1513431582679700,-1,-1,-2,-1,1,0,-3,3
1513431582693720,7,-1,0,1,-2,1,1,1
1513431582693720,-2,1,0,-2,0,-1,-1,0
1513431582694714,-3,2,-3,-1,1,-1,-5,-2
1513431582694714,3,0,0,-1,-3,-2,1,-3
1513431582715783,0,-2,2,-3,-1,-2,2,-2
1513431582715783,0,-3,-2,-1,-3,0,-3,2
1513431582718737,-3,0,-1,-1,-2,-3,-4,0
1513431582718737,-1,0,-2,-1,1,-1,0,-3
1513431582738746,4,0,1,-2,-4,0,1,-1
1513431582738746,-1,-2,2,-2,0,-1,-3,-2
1513431582739742,-3,-2,-3,-1,2,-2,-5,-4
1513431582739742,-3,0,-1,0,0,-1,-3,0
1513431582753769,2,-1,3,-1,-2,-1,3,-3
1513431582753769,-3,-3,-2,0,-1,0,-2,-1
1513431582754754,-4,0,-3,0,-1,-1,-5,1
1513431582754754,-2,0,-2,-2,0,-1,0,-3
1513431582783783,1,-4,-2,-2,-2,2,1,2
1513431582783783,-3,0,-2,-2,0,-2,1,-2
1513431582784774,-2,-3,-4,0,-1,-3,-2,-1
1513431582784774,0,0,0,-2,-3,-2,-1,-1
1513431582797807,0,-4,2,-1,-4,-1,-1,-1
1513431582797807,1,-2,1,-1,0,0,0,-3
1513431582799785,-3,0,-4,-1,1,-2,-3,-2
1513431582799785,3,-4,3,-2,-2,-2,-1,-2
1513431582812816,3,-2,0,-1,-3,0,5,-1
1513431582812816,-4,0,1,-1,-3,0,-2,0
1513431582819799,-3,-2,-4,0,1,-3,-3,-2
1513431582819799,-2,-1,-4,0,0,-1,0,-2
1513431582835837,1,-2,1,-3,-3,-1,2,0
1513431582835837,-3,-3,0,0,-3,-1,-2,-2
1513431582837813,0,1,-2,0,0,-1,-5,-1
1513431582837813,0,0,-2,0,0,1,0,1
1513431582858826,-1,-2,1,0,-2,0,1,0
1513431582858826,-1,-2,-1,-2,-1,-2,0,-3
1513431582859828,-6,-2,-3,0,1,-1,-3,-3
1513431582859828,1,-2,-1,0,-1,-1,-2,-2
1513431582872849,4,-1,0,-2,-3,1,3,-3
1513431582872849,0,1,-2,1,-3,-1,-2,0
1513431582879857,-3,-3,-3,1,2,-2,-2,-1
1513431582879857,-2,-1,-1,-1,-3,-2,0,0
1513431582895867,0,0,0,-2,-2,0,3,1
1513431582895867,0,-1,-1,-2,2,0,-3,-2
1513431582897864,-2,0,-1,0,0,-1,-2,-1
1513431582897864,0,-2,0,0,-3,0,-2,0
1513431582917868,0,2,0,-1,-3,-2,0,3
1513431582917868,1,-1,0,-1,0,-1,-1,-1
1513431582925874,-7,1,-4,-3,0,-3,-7,-2
1513431582925874,2,-3,0,-1,-1,0,0,-1
1513431582932888,1,-1,2,-3,-6,0,-1,-3
1513431582932888,2,-1,-2,0,2,2,-7,2
1513431582939894,-2,1,-2,1,1,-1,-3,-1
1513431582939894,-1,-3,-4,-2,0,-3,5,2
1513431582955905,0,-2,3,1,-2,0,1,1
1513431582955905,-4,-1,-2,-2,-1,-1,-1,-1
1513431582956906,-4,2,-5,1,1,-2,-2,0
1513431582956906,0,-2,-1,-2,-2,-1,-2,-3
1513431582977911,3,-4,3,-2,-2,1,4,0
1513431582977911,1,-1,-1,-1,-1,-2,1,1
1513431582979923,-2,0,-2,-1,0,-1,-3,-2
1513431582979923,1,0,-2,0,-2,-3,1,-2
1513431582992922,1,-2,0,0,0,0,0,1
1513431582992922,-3,-1,-1,0,-1,0,-2,0
1513431582998966,0,-1,-3,-1,1,-3,-1,-2
1513431582998966,-1,1,0,-3,-4,-1,0,1
1513431583016938,3,-3,-1,1,-2,0,2,-2
1513431583016938,-2,0,0,-2,-1,-1,-1,-3
1513431583018939,-2,-1,-3,0,-2,-3,-1,0
1513431583018939,-2,-3,1,-1,-2,-1,0,-3
1513431583037954,-1,0,0,-1,-1,-1,0,2
1513431583037954,-2,-2,-2,-1,-1,-2,-1,-2
1513431583039954,-2,-1,-4,-2,2,-1,-5,-1
1513431583039954,2,2,-1,-1,0,-1,-1,1
1513431583052982,1,-2,2,-2,-3,2,3,0
1513431583052982,-3,-3,-4,0,2,1,-3,0
1513431583058980,-4,2,-2,-1,1,-2,-3,-3
1513431583058980,1,0,-1,0,-2,-2,-1,-2
1513431583075980,2,-1,0,-1,-3,0,2,0
1513431583075980,-4,1,-1,-2,-1,-1,-1,1
1513431583076981,-3,-2,-3,-2,0,-1,-4,-1
1513431583076981,-2,-2,0,0,0,1,0,-4
1513431583097995,2,1,0,-3,-2,-2,1,-1
1513431583097995,-3,1,0,-1,-2,-2,-1,1
1513431583099997,-4,-2,-2,0,0,-2,-3,-2
1513431583099997,0,-4,-2,-1,-1,-2,0,-1
1513431583112007,-1,-1,1,0,-2,0,0,1
1513431583112007,-2,-2,-3,-1,1,-1,-4,1
1513431583121021,-2,1,-1,0,1,-1,-3,-1
1513431583121021,-2,1,-2,-2,-2,-3,1,-1
1513431583136044,1,-3,2,-3,-4,0,-1,-1
1513431583136044,-1,-3,-1,-1,0,0,-1,-1
1513431583137033,-3,-2,-3,0,-2,-1,-1,-2
1513431583137033,-1,-2,-4,-1,-2,-1,-3,-1
1513431583158048,2,2,1,0,-3,-1,-1,-2
1513431583158048,-2,0,-3,-1,-2,-1,-3,-3
1513431583160039,-2,0,-5,0,1,1,-3,-2
1513431583160039,-2,2,1,-1,-2,1,1,-1
1513431583172048,-2,-2,3,-3,-3,-1,2,1
1513431583172048,-3,-1,-1,-2,-2,-1,-3,-2
1513431583181054,-2,-2,0,1,0,-5,-2,-1
1513431583181054,1,-3,0,-1,-2,0,-1,0
1513431583196077,-1,-2,-1,-1,-2,1,2,-2
1513431583196077,-2,0,0,-2,2,-1,-2,-4
1513431583197066,-2,1,-3,-1,1,-1,-3,-2
1513431583197066,1,2,-1,0,-1,-1,2,2
1513431583219090,1,-1,0,-2,-3,2,-2,1
1513431583219090,-1,-2,0,0,-1,-2,-3,2
1513431583221088,-2,-3,-1,-1,-1,-3,-2,-1
1513431583221088,2,-2,-1,-1,-4,-1,2,-1
1513431583232099,0,0,1,-2,-3,0,1,-2
1513431583232099,-3,0,-3,-1,1,0,-2,1
1513431583241107,-4,0,-4,0,-1,-1,-2,-5
1513431583241107,1,-1,1,0,-1,-1,1,0
1513431583256122,3,0,1,-3,-1,-1,2,-3
1513431583256122,-2,-1,0,0,-1,-2,-3,-2
1513431583257108,0,0,-5,-1,0,-4,-2,-1
1513431583257108,0,0,-2,-1,-1,1,1,1
1513431583278123,0,-3,0,2,-2,-3,1,-1
1513431583278123,-3,0,-2,-2,-1,0,-1,0
1513431583280125,-3,1,-3,-2,3,-1,-3,2
1513431583280125,1,0,1,-1,-4,-1,2,-3
1513431583292144,2,-2,1,-1,-2,0,2,0
1513431583292144,-2,0,-2,1,0,-3,-4,0
1513431583301139,-2,0,-2,-2,-2,-2,-3,2
1513431583301139,1,-3,1,-2,-3,-1,1,1
1513431583316206,0,0,1,0,1,-1,2,-1
1513431583316206,-2,0,-2,-2,1,-1,-2,-2
1513431583318153,-1,-1,-4,-1,1,-2,-1,-1
1513431583318153,1,-1,-1,-2,-2,0,-1,-1
1513431583338176,1,-2,1,-2,-4,2,3,0
1513431583338176,2,-1,-2,-3,0,-1,-1,-2
1513431583340166,-2,1,-3,-1,-1,-1,-3,-2
1513431583340166,-1,0,3,-1,-2,-1,-1,-1
1513431583352175,-1,0,0,-5,-3,0,-3,-2
1513431583352175,0,-3,-1,-1,-1,0,-1,-1
1513431583361219,-3,-1,-5,-2,-1,-2,-3,0
1513431583361219,0,-3,-1,1,1,-1,4,-1
1513431583376192,4,1,0,-1,-3,1,0,1
1513431583376192,-3,0,0,-1,-1,-1,-2,-2
1513431583377197,-1,-1,-1,-1,-1,-1,-2,-2
1513431583377197,3,-1,-1,-2,-4,-1,-1,-5
1513431583398231,-1,-4,-1,-2,-2,1,-1,2
1513431583398231,-3,1,-1,-3,-1,-3,-3,-4
1513431583400229,-3,-4,-3,-2,1,-2,1,0
1513431583400229,0,0,-1,-1,-1,-3,1,1
1513431583412218,0,-2,2,-3,-3,-1,4,0
1513431583412218,-3,-3,-3,-1,2,0,-5,0
1513431583421225,-2,-3,-3,0,-2,-3,-6,-3
1513431583421225,0,-1,-3,1,-2,-1,0,1
1513431583436253,-1,-3,1,-2,1,-1,-2,0
1513431583436253,-3,-2,-2,0,0,0,-2,-1
1513431583437236,-2,-1,0,0,-1,0,0,-3
1513431583437236,1,-2,-1,-2,-2,-2,1,0
1513431583458251,1,0,-2,-3,1,-2,4,0
1513431583458251,-7,0,-1,-2,0,1,-6,-3
1513431583460291,-2,0,-2,-1,2,-2,-1,-2
1513431583460291,1,-2,0,-2,-1,0,0,-1
1513431583472270,-1,-3,0,0,-2,-1,-2,1
1513431583472270,-3,0,-2,-1,-2,-1,-2,-2
1513431583481281,-1,-1,-5,-2,0,-1,-2,0
1513431583481281,1,-1,-1,-2,0,-3,1,2
1513431583496278,0,0,2,-2,-2,-2,-1,-1
1513431583496278,-4,-1,-3,-2,-1,-1,-4,0
1513431583497277,0,-1,-2,1,-2,-1,-2,-3
1513431583497277,1,0,-1,1,-1,0,2,-1
1513431583518302,1,-3,-1,-1,-4,0,-1,1
1513431583518302,-3,0,-3,-1,0,-1,-5,0
1513431583520306,-3,1,-3,-2,1,-4,-1,-2
1513431583520306,1,0,2,-2,0,0,-1,-3
1513431583532302,1,-2,0,-1,-3,-1,1,-2
1513431583532302,-4,-2,-2,-1,-1,-4,-4,-1
1513431583541321,-2,-2,-4,1,-1,-2,-3,1
1513431583541321,4,-3,-1,-1,-6,0,2,-3
1513431583556319,-2,-1,-1,-1,-1,1,0,0
1513431583556319,-1,-2,-2,-2,-1,-1,-1,-2
1513431583557334,-1,0,-1,-3,0,-1,-3,0
1513431583557334,0,-3,-1,-1,-2,-2,3,1
1513431583578335,-3,-1,1,0,-1,1,-3,1
1513431583578335,-1,-1,-2,0,-1,-3,-3,-4
1513431583580351,-4,-1,-4,0,0,0,0,-1
1513431583580351,2,-1,1,-2,-5,-1,3,-1
1513431583600378,0,-1,1,0,-3,0,1,-2
1513431583600378,-2,-2,-1,1,0,-1,-5,1
1513431583602353,0,-2,-2,0,0,1,-4,-1
1513431583602353,2,-1,0,-2,-6,-1,1,1
1513431583615391,-3,-1,0,-1,-3,0,1,-2
1513431583615391,-4,0,-3,-1,2,-3,-2,-1
1513431583618380,1,-2,-1,-2,-2,-3,0,-2
1513431583618380,1,-3,0,-3,-3,1,2,2
1513431583638390,1,-1,1,1,-2,1,1,-1
1513431583638390,-1,-1,-4,-1,1,1,-3,-4
1513431583640391,-1,0,-2,-1,0,-3,0,3
1513431583640391,2,-2,0,1,-2,0,1,-1
1513431583660393,-1,-2,2,-1,-3,1,-4,0
1513431583660393,-5,-1,-3,-1,1,-1,-2,0
1513431583662395,1,-1,-1,0,-1,-1,-2,-3
1513431583662395,4,-1,2,-1,-2,-3,6,2
1513431583675416,0,-1,2,-2,-2,-1,-1,2
1513431583675416,-4,-2,0,0,1,-1,-6,0
1513431583677413,1,1,-2,-2,-1,-3,-5,0
1513431583677413,2,-1,2,0,-3,-1,2,-2
1513431583698462,2,-1,0,-2,1,0,3,0
1513431583698462,-1,0,-2,-1,2,-3,-2,-2
1513431583699493,-5,-2,-1,-1,0,-1,1,0
1513431583699493,2,-1,-1,-1,-3,-2,2,-2
1513431583720445,2,-1,-2,0,-3,1,-1,-1
1513431583720445,-5,-2,-2,0,-2,-3,-3,-2
1513431583722447,-2,0,-4,0,2,-3,-1,-3
1513431583722447,1,-1,1,-3,-2,1,2,-2
1513431583735458,0,-1,1,-3,-3,-2,2,-3
1513431583735458,-4,0,-4,-1,-1,-2,-5,0
1513431583741450,-2,-3,-2,-1,-2,0,-2,-3
1513431583741450,2,-2,1,0,-2,-1,2,1
1513431583758462,-3,-1,0,-1,-2,-2,-2,0
1513431583758462,-3,-2,-4,-2,-1,-2,-4,-1
1513431583759463,-3,0,-1,-1,-1,-1,-2,1
1513431583759463,0,-3,-2,-2,-3,0,-1,0
1513431583780479,0,-2,-2,-1,0,-1,-3,-4
1513431583780479,-5,1,-2,0,2,-2,-3,-1
1513431583782492,0,-1,0,1,-3,-1,2,-2
1513431583782492,1,-3,1,-1,-4,1,1,0
1513431583795506,-1,-2,-1,-2,-1,0,-1,1
1513431583795506,-5,-1,-1,0,2,-2,-5,-4
1513431583801502,3,-1,-3,-1,-2,-4,-1,-3
1513431583801502,1,0,1,-1,-4,-1,2,1
1513431583818514,1,-2,-1,-3,-2,0,-4,-2
1513431583818514,-4,-1,-1,-1,1,0,-7,-3
1513431583820506,-3,-2,-5,-1,1,-3,0,-3
1513431583820506,4,-1,-1,-2,-4,0,5,-2
1513431583840521,-1,-1,-1,-2,1,-1,-1,-2
1513431583840521,-2,1,-2,-2,-1,-3,-5,-2
1513431583842523,-5,2,0,0,1,-1,-2,-2
1513431583842523,2,0,1,-1,-2,-2,2,1
1513431583855532,0,-1,2,0,-3,1,0,1
1513431583855532,-3,0,-4,0,1,0,-4,-1
1513431583861536,-3,-2,0,0,-1,-2,-3,-1
1513431583861536,4,-4,0,-1,-4,0,1,-3
1513431583878559,-2,-2,1,0,-3,0,-3,-5
1513431583878559,-3,-1,-3,-2,0,-2,-3,-2
1513431583879555,1,-2,-3,-1,-2,-4,0,-1
1513431583879555,2,-1,2,-2,-3,-2,3,-2
1513431583900601,1,-1,-1,-1,0,-1,1,-1
1513431583900601,-2,2,-3,-1,0,-2,-6,-1
1513431583902602,0,0,0,0,0,0,-3,0
1513431583902602,1,-1,2,-1,-1,1,3,2
1513431583914585,-3,0,-1,-1,2,0,2,-1
1513431583914585,-5,-2,-2,-2,0,-2,-5,-2
1513431583921578,1,0,-4,-2,-3,-1,-1,2
1513431583921578,2,-2,1,-1,-3,0,2,-2
1513431583938591,0,0,-1,-1,-1,-2,-2,-1
1513431583938591,-8,0,-4,0,2,-1,-2,-2
1513431583940592,-1,0,-2,-1,-2,-3,-4,1
1513431583940592,1,-3,0,-2,-3,2,1,-1
1513431583960606,-2,1,-1,-2,-1,1,-2,0
1513431583960606,-7,1,-3,1,3,-1,-3,-1
1513431583962619,-1,-1,-2,-1,-1,-1,0,-4
1513431583962619,2,-2,0,-3,-1,-3,2,0
1513431583974615,1,-2,-2,-1,-2,-1,-1,1
1513431583974615,-5,0,-3,-2,1,-4,-5,-1
1513431583981632,-1,0,-2,-2,-1,-2,1,-1
1513431583981632,1,-2,2,0,-2,-1,6,0
1513431583998660,-1,-2,-1,-3,-2,1,-3,-2
1513431583998660,-4,-1,-3,-1,2,-2,-4,-3
1513431583999651,0,1,-3,0,1,0,-3,0
1513431583999651,6,-1,1,0,-4,-2,1,0
1513431584020657,-2,-2,-1,0,1,-1,-2,0
1513431584020657,-4,-2,-2,-2,1,-2,-3,0
1513431584022659,0,-1,-2,0,-1,0,0,1
1513431584022659,0,-2,1,-2,-2,0,2,-1
1513431584034680,1,-1,0,0,-2,1,1,-4
1513431584034680,-1,-1,-4,0,3,0,-7,-1
1513431584041662,-1,-2,0,-1,-1,-2,-2,-3
1513431584041662,3,-2,2,-1,-1,-1,3,0
1513431584058674,-3,-1,2,-2,-2,-3,-1,-3
1513431584058674,-5,2,-6,-1,0,-3,-5,-2
1513431584059677,0,-2,-1,-1,-1,0,1,-1
1513431584059677,1,-2,1,-3,-4,1,5,1
1513431584080703,1,-1,1,0,-3,-2,1,-2
1513431584080703,-3,-3,-2,-2,1,-1,-5,0
1513431584082704,-2,-3,-1,-1,0,-3,-2,-1
1513431584082704,1,-1,1,0,-3,0,3,-1
1513431584094712,1,0,0,-2,-1,0,-1,3
1513431584094712,-4,-1,-4,0,1,-2,-7,-2
1513431584103725,0,0,-2,-1,-1,-1,1,-1
1513431584103725,4,-1,0,0,-1,1,3,-1
1513431584118717,-2,-1,-1,-3,-3,-2,1,-2
1513431584118717,-3,-1,-2,1,0,-2,-4,-2
1513431584120718,0,-2,-2,-2,-1,-4,0,-1
1513431584120718,2,-2,-1,-1,-4,-1,1,3
1513431584140743,0,0,-1,1,-2,0,-2,0
1513431584140743,-2,-1,-4,-2,1,-1,-5,-1
1513431584142744,-2,-3,-4,0,-1,-1,-2,-1
1513431584142744,4,-2,2,-1,-5,0,3,1
1513431584154742,0,-3,0,-2,0,1,-2,-1
1513431584154742,-5,-1,-4,0,2,-2,-4,-4
1513431584163761,-3,1,-3,2,-1,-1,0,-4
1513431584163761,3,-2,1,-2,-3,1,-1,-1
1513431584178759,-1,-2,0,-4,1,-2,-1,-1
1513431584178759,-3,1,-3,0,0,-2,-5,0
1513431584179760,-1,-2,-2,-1,-1,-1,0,-2
1513431584179760,0,0,-1,-1,-5,0,4,-1
1513431584200774,-6,0,0,0,0,-1,-1,-2
1513431584200774,-4,0,-2,-2,0,-1,-2,-1
1513431584202776,-1,-1,-1,1,-2,-2,-1,1
1513431584202776,1,-3,1,-1,-3,1,3,-2
1513431584214784,-1,1,0,0,0,-1,-3,-3
1513431584214784,-3,-2,-3,0,-1,-1,-5,-1
1513431584223791,1,-1,-2,-1,-4,-1,3,1
1513431584223791,2,-1,-2,-1,1,1,2,0
1513431584238803,-1,-2,-1,0,-3,1,2,2
1513431584238803,-3,0,-3,-1,1,-2,-5,-3
1513431584239802,0,-1,-1,0,-1,-2,-2,0
1513431584239802,3,-3,2,1,-3,-1,2,2
1513431584260817,0,-4,-3,-2,0,-1,-2,-1
1513431584260817,-3,1,-3,-1,0,-1,-3,-1
1513431584262819,-1,2,2,-1,-1,-4,1,0
1513431584262819,1,-1,2,-3,-3,-2,1,0
1513431584274827,-3,-2,0,0,1,0,-5,-1
1513431584274827,-4,-2,-4,-1,1,-2,-1,0
1513431584283846,0,0,-2,-3,2,0,-1,-4
1513431584283846,1,0,2,-2,-4,0,2,1
1513431584297856,0,0,-2,-1,-2,0,0,-2
1513431584297856,-4,0,-3,0,1,-2,-6,-2
1513431584299857,-2,-2,-2,-1,-3,-2,0,-2
1513431584299857,1,-3,0,-2,-3,0,5,-1
1513431584320875,-1,-1,-1,-2,-1,-1,1,1
1513431584320875,-1,0,-3,-1,1,-2,-6,-4
1513431584322872,0,-1,-3,-2,-1,-3,-1,-2
1513431584322872,1,-3,-1,-3,-4,0,0,-1
1513431584334886,-4,-1,-2,-2,-1,0,-4,0
1513431584334886,-3,2,-5,-1,-2,-2,-3,1
1513431584343882,0,-2,0,0,0,-1,0,1
1513431584343882,4,-1,1,0,-2,0,3,0
1513431584357886,1,0,0,-3,-2,-1,2,-2
1513431584357886,-5,-2,-2,0,-1,-2,-3,-4
1513431584359888,2,-1,-3,0,-4,0,0,1
1513431584359888,-1,-1,3,0,-3,-1,3,0
1513431584380914,-2,1,-1,1,0,-1,-1,-1
1513431584380914,-3,1,-2,-1,1,-4,-4,-1
1513431584381904,-3,-1,-1,-2,-1,-2,-1,-2
1513431584381904,5,-2,2,-1,-2,0,1,-2
1513431584393911,-2,-5,0,-1,-2,-1,-2,0
1513431584393911,-7,-1,-4,-1,3,-2,-4,-1
1513431584402930,-2,-1,-2,-2,-1,-2,1,0
1513431584402930,2,-2,1,-2,-4,1,2,-1
1513431584418929,0,-3,0,-1,-1,1,-3,-3
1513431584418929,-3,-1,-4,-2,0,-3,-3,1
1513431584420931,-1,1,0,-2,-2,-2,2,-1
1513431584420931,1,-1,2,-2,-3,0,2,-1
1513431584440944,0,1,-1,-1,-2,-2,-2,0
1513431584440944,-3,0,-3,-1,1,-1,-3,-3
1513431584441945,2,-2,-1,-1,-1,1,-3,-3
1513431584441945,3,-1,1,-2,-5,2,0,-1
1513431584454956,0,1,0,1,0,-3,1,-1
1513431584454956,-6,-1,-4,-1,1,-1,-3,-1
1513431584462960,-1,-1,-2,0,0,-2,-2,0
1513431584462960,1,-3,2,-3,-1,1,2,-1
1513431584477971,-3,-2,0,-2,-2,-2,1,2
1513431584477971,-3,0,-2,-1,2,-4,-4,-3
1513431584479972,-1,-1,-3,-2,0,0,1,-2
1513431584479972,2,-2,0,-1,-3,0,3,3
1513431584500989,-4,-1,0,-4,1,0,-1,-1
1513431584500989,-3,0,-3,-1,-1,-3,-4,-1
1513431584501999,1,1,-4,-1,-1,-1,-2,-2
1513431584501999,0,-2,1,1,-3,-1,3,0
1513431584523002,-3,-3,1,-4,-2,-1,-4,0
1513431584523002,-3,0,-4,0,0,-1,-7,-1
1513431584525004,-2,0,1,-1,-3,-3,0,-1
1513431584525004,2,1,-1,-1,-2,-1,3,0
1513431584538016,1,-3,-2,0,-2,1,0,1
1513431584538016,-5,-1,-2,-2,-1,-1,-4,-2
1513431584540015,-1,-3,-2,1,-2,-1,-1,-1
1513431584540015,2,-1,0,-4,-3,-4,3,1
1513431584561039,-2,0,1,-3,0,-1,-3,-1
1513431584561039,-3,-1,-1,-1,1,-3,-3,0
1513431584562043,-1,-1,1,-1,-3,0,2,-1
1513431584562043,4,-2,3,0,-3,0,0,-1
1513431584583055,-1,0,-3,-2,-1,0,-1,-5
1513431584583055,-5,-3,-6,1,0,-3,-1,-2
1513431584585056,-2,-2,-2,0,0,-3,-1,3
1513431584585056,1,-1,3,0,-4,0,3,0
1513431584597064,1,1,-1,-1,-1,-1,-5,-1
1513431584597064,-2,1,-3,0,-1,1,-2,0
1513431584606062,0,-1,0,-1,-3,-1,1,-1
1513431584606062,4,-4,-1,-2,-2,0,2,-2
1513431584621082,-1,-2,-2,-1,1,0,-1,-1
1513431584621082,-6,-3,-3,1,2,-4,-2,0
1513431584622073,2,0,0,-1,0,-1,0,-2
1513431584622073,0,1,1,-1,-3,0,2,-3
1513431584643087,1,1,-1,-2,-3,-1,-2,0
1513431584643087,-2,-1,-1,-2,0,-2,-6,-3
1513431584645093,1,-2,-2,-1,-1,-1,-2,0
1513431584645093,0,-3,2,-1,-2,-1,1,-1
1513431584657107,-1,-1,-3,-2,-1,-3,1,0
1513431584657107,-3,1,-4,-1,-1,-1,-1,1
1513431584664115,-2,-1,-1,-1,-1,-1,1,0
1513431584664115,2,-2,0,-3,-3,1,2,2
1513431584681127,-3,-1,-2,1,-2,1,-5,-2
1513431584681127,-2,2,-3,-2,0,-3,-2,-2
1513431584682128,-1,-1,1,1,-1,-2,-1,-1
1513431584682128,0,-2,2,-2,-2,0,0,-1
1513431584703142,-2,-2,0,0,-1,-2,-2,1
1513431584703142,-4,-1,-2,1,0,-5,-5,-4
1513431584705156,-1,1,-2,-3,-3,0,-1,-2
1513431584705156,1,1,3,-2,-3,0,2,-2
1513431584718140,-2,-1,0,-2,-2,2,1,0
1513431584718140,-2,1,-4,-2,1,0,-3,0
1513431584724145,2,-2,-2,-1,-2,-1,2,-1
1513431584724145,-1,-4,0,-1,-3,0,1,2
1513431584741158,-2,-1,-1,-2,0,-1,-3,-3
1513431584741158,-2,-2,-3,1,1,-3,-4,-2
1513431584742159,-2,0,2,-1,-2,0,0,-1
1513431584742159,3,0,1,-2,-3,0,1,-1
1513431584763211,-4,0,1,0,-2,-1,3,-2
1513431584763211,-2,0,-4,-1,0,-3,-3,0
1513431584765213,0,0,-3,0,0,0,-1,-1
1513431584765213,1,3,-1,-1,-5,0,3,0
1513431584777205,-3,-1,0,-2,0,-1,-2,0
1513431584777205,-1,-2,-3,0,1,-1,-3,-2
1513431584784226,-1,-4,-3,-1,0,-1,0,0
1513431584784226,0,-3,1,-2,-1,-2,0,2
1513431584801201,-2,-1,-1,-2,1,-3,-2,-2
1513431584801201,-3,2,-3,-1,-1,-1,-3,-1
1513431584802200,0,1,-1,1,0,-1,2,-1
1513431584802200,2,-3,-2,0,-4,-1,4,-1
1513431584823220,-3,-3,-2,-1,0,0,-3,-2
1513431584823220,-1,-2,-2,-2,0,-1,-2,-2
1513431584825226,0,1,-3,-1,-3,-3,0,-2
1513431584825226,4,-2,1,-1,-1,0,1,0
1513431584838227,-1,-1,-3,0,-1,-1,0,-2
1513431584838227,-3,-2,-2,-1,-2,-2,-1,-2
1513431584844229,-1,-4,-1,-3,0,-3,-2,1
1513431584844229,-1,-1,1,-2,-2,0,2,-2
1513431584860252,0,0,-3,0,-1,-2,-4,1
1513431584860252,-5,-1,-2,-1,0,-2,-4,-1
1513431584862242,2,-1,1,1,-2,-1,1,3
1513431584862242,-1,-1,2,0,0,1,2,-3
1513431584883267,-1,-2,-1,-3,-1,-2,-3,0
1513431584883267,-4,2,-3,1,2,-2,-2,0
1513431584885285,0,0,-1,-2,-1,-2,2,-2
1513431584885285,1,-2,-1,-2,-4,0,1,3
1513431584897284,-3,1,0,0,0,0,-4,-2
1513431584897284,-1,-1,-3,-1,-1,-3,-3,0
1513431584904301,1,-1,-2,-1,-3,0,-1,-1
1513431584904301,0,-1,1,-1,-1,-2,2,-2
1513431584920298,-4,-2,-3,0,2,0,-3,-2
1513431584920298,-2,-2,-5,0,2,-4,-2,-2
1513431584922286,-2,0,-2,-1,-1,-1,1,-2
1513431584922286,2,-1,0,-2,-1,1,0,1
1513431584943300,-4,1,-2,-1,-3,-1,-4,0
1513431584943300,-1,-2,-3,0,0,-3,-3,-3
1513431584945322,2,0,-1,0,0,-3,0,0
1513431584945322,0,-1,0,-1,-3,-1,1,-3
1513431584957322,-1,-2,1,-1,0,-2,-1,0
1513431584957322,-7,0,-4,-3,1,-1,-3,-2
1513431584964327,3,-1,-1,-2,-1,0,3,0
1513431584964327,1,-2,2,-1,-4,1,-2,-2
1513431584980339,-1,1,-2,-1,2,-1,-4,-3
1513431584980339,-2,-1,-4,0,3,-2,-3,-1
1513431584982328,0,-2,-1,-2,-2,-1,1,1
1513431584982328,-1,-2,-1,-3,0,2,0,2
1513431585003355,-1,-4,-2,-2,-1,0,-2,-2
1513431585003355,-3,2,0,-1,-2,0,-1,-1
1513431585005369,-1,-1,1,0,-1,-3,1,-3
1513431585005369,3,-2,1,0,-1,0,1,-4
1513431585017352,-2,-2,-3,-2,0,-3,-2,2
1513431585017352,-3,-2,-2,1,1,0,-3,-1
