timestamp,emg1,emg2,emg3,emg4,emg5,emg6,emg7,emg8
1514892785536483,-2,-1,-1,-2,0,0,0,-2
1514892785536483,-2,-3,-2,0,1,-1,0,0
1514892785537983,-1,0,-2,-2,-1,1,0,0
1514892785537983,1,0,-2,1,-2,-1,-3,-2
1514892785551493,-1,-1,0,-1,-2,0,-1,-2
1514892785551493,-1,-3,-2,-2,0,-1,-1,-1
1514892785554997,-1,-1,-1,1,-2,0,-2,-2
1514892785554997,-2,-1,-1,-1,0,1,0,-2
1514892785574008,-2,-3,0,-1,0,-3,0,-1
1514892785574008,-1,-1,-1,-1,-1,-1,-1,-2
1514892785575509,1,1,-2,-3,0,-1,-1,-1
1514892785575509,-2,-1,-1,-2,-2,1,-1,0
1514892785603029,1,-3,-3,-1,-1,1,-3,-2
1514892785603029,-2,-3,-1,-2,0,-1,0,-2
1514892785613037,-1,-1,-1,-1,-1,-1,-1,0
1514892785613037,-3,-1,0,-2,0,-1,0,1
1514892785613538,-2,-2,-1,1,0,-3,0,-1
1514892785613538,0,1,0,-1,-1,-2,0,0
1514892785618044,-1,0,-2,-1,-1,-2,-2,0
1514892785618044,-1,-2,-3,-3,-2,-2,-1,-1
1514892785633050,-1,-3,-2,-1,-3,-1,-2,0
1514892785633050,-2,-4,-1,-1,-1,-1,-1,-1
1514892785634051,-1,0,0,-1,-2,-1,-2,-1
1514892785634051,-1,0,-1,0,-2,0,0,-1
1514892785655065,-1,-1,-1,0,-1,-1,1,-1
1514892785655065,-2,-1,0,-2,-1,-3,-1,0
1514892785663074,0,1,0,-2,0,-2,-2,-2
1514892785663074,0,-1,-1,-1,-1,0,-1,-1
1514892785678583,1,-2,-1,-2,-2,-1,-1,0
1514892785678583,-1,-2,-1,-1,-3,-1,-1,-2
1514892785679585,-1,-1,-2,-2,-3,0,-1,-1
1514892785679585,-3,1,0,0,0,-1,-2,-1
1514892785694094,-2,-1,-2,0,0,-3,-1,-2
1514892785694094,-3,-2,0,-1,-2,1,1,-1
1514892785695093,-1,0,-1,0,-1,-2,-2,-2
1514892785695093,1,-2,-2,-1,-1,0,-1,-1
1514892785715608,-2,-3,-2,-1,2,0,1,-1
1514892785715608,1,0,0,-1,-1,0,-1,-2
1514892785717118,-1,1,-4,-2,-1,0,-1,0
1514892785717118,-1,-2,1,-2,1,-1,-1,0
1514892785729618,-1,-4,-3,-1,0,0,-1,-1
1514892785729618,2,0,-1,-1,-2,-1,-2,0
1514892785738136,-1,2,-1,-1,0,-1,-1,0
1514892785738136,-1,-3,-1,-1,-1,-2,-1,-2
1514892785753143,-1,-3,-1,0,-2,0,1,0
1514892785753143,0,-1,-1,0,-1,0,-1,0
1514892785753636,-2,1,-1,-1,-1,0,-1,-2
1514892785753636,1,12,0,-2,0,-2,0,-1
1514892785776151,-4,-17,1,-2,-2,-1,-1,-2
1514892785776151,-3,-3,-5,-2,-4,-1,0,-2
1514892785777165,0,0,2,-1,-3,-2,-1,-2
1514892785777165,3,1,-3,1,1,-3,-2,1
1514892785789660,0,2,0,-2,-2,0,-1,0
1514892785789660,-1,-3,-3,-1,1,-1,1,-2
1514892785798167,-1,-2,-4,0,-1,-1,-1,-2
1514892785798167,0,-6,-2,0,-1,-1,0,-2
1514892785821183,0,0,-3,0,1,-2,-2,0
1514892785821183,0,1,4,0,-2,-1,-1,1
1514892785822183,-2,2,1,-2,-2,-1,0,0
1514892785822183,-1,-1,-1,0,-1,-2,-2,-1
1514892785835192,-1,-2,-1,-5,-1,-1,-1,-1
1514892785835192,-2,10,-1,2,0,-1,0,1
1514892785836193,-4,-22,-1,7,0,-2,0,-1
1514892785836193,-2,-2,-1,-10,2,3,-2,-1
1514892785851204,-1,2,-1,-2,-4,-1,-2,-1
1514892785851204,1,0,-4,-10,0,-2,-3,-1
1514892785858226,0,4,-2,3,0,0,-1,-1
1514892785858226,-1,-1,-3,3,2,1,0,0
1514892785873229,-2,0,0,2,0,-1,-2,-2
1514892785873229,-1,-3,0,-1,-1,0,-2,-3
1514892785874730,-1,-6,-3,-2,-1,-3,1,-1
1514892785874730,-1,8,6,-4,-5,-4,-1,-2
1514892785895738,1,4,0,1,2,0,0,0
1514892785895738,-4,-10,-7,6,-2,-2,-3,-2
1514892785896738,0,3,3,-5,2,0,-1,-1
1514892785896738,-2,-2,0,3,-4,0,-1,-3
1514892785918751,0,-1,0,-3,-2,-1,0,-1
1514892785918751,-1,-5,-1,0,0,1,-1,-2
1514892785919252,-1,-1,-4,-2,-1,0,-1,1
1514892785919252,0,-1,-6,-4,-2,-2,-1,1
1514892785933263,0,2,1,-2,-2,-2,-1,-3
1514892785933263,0,7,-4,-2,-1,-2,-2,-2
1514892785933765,-5,-17,-1,-2,-3,-1,-1,-3
1514892785933765,-1,1,-1,-2,-1,0,-2,-1
1514892785955277,-2,-3,-2,-1,0,0,0,-1
1514892785955277,0,-5,-1,-2,-1,-3,0,-3
1514892785956278,2,11,3,-2,0,-2,-2,-1
1514892785956278,-1,-4,-2,-1,-1,0,0,-1
1514892785969789,-1,6,-1,1,-1,-1,-2,-1
1514892785969789,-2,-7,-3,-2,1,0,-1,0
1514892785978295,-1,5,1,-1,0,-1,2,0
1514892785978295,-2,-1,-1,0,-3,-2,-1,0
1514892785992805,-2,-4,-1,-3,-2,0,-2,-2
1514892785992805,-3,-4,1,0,0,0,0,1
1514892785993806,0,2,-6,-2,-3,1,-1,0
1514892785993806,-1,3,-4,0,-3,-2,0,-1
1514892786015823,0,-3,-1,-2,0,-2,0,-1
1514892786015823,-2,-6,0,0,-1,-1,-1,-1
1514892786016323,-1,2,-1,-2,-1,1,-2,-1
1514892786016323,-1,0,-2,-2,-1,1,-2,0
1514892786030333,-1,-2,0,0,-1,0,-1,-1
1514892786030333,0,-3,0,-2,-1,0,1,-2
1514892786038336,0,2,-1,-1,1,-1,-1,-2
1514892786038336,-1,0,0,-1,-1,0,-2,-2
1514892786053348,-2,-4,-2,-1,1,0,0,-1
1514892786053348,-1,-3,0,0,0,1,-1,0
1514892786053851,0,4,-1,-2,-2,-1,-2,-1
1514892786053851,-2,2,0,-1,-1,-4,0,-2
1514892786083869,0,-4,-2,-2,-2,0,-2,-1
1514892786083869,-1,-3,0,-2,-3,0,-2,-1
1514892786084369,-2,1,-1,-1,0,0,0,-1
1514892786084369,-1,-2,-1,-1,0,-1,1,-1
1514892786098879,0,-2,-1,-1,-1,-2,-3,0
1514892786098879,-2,-3,1,1,-1,-2,1,-2
1514892786099880,-1,2,-1,-1,-2,-2,-3,-2
1514892786099880,0,0,-1,-1,-2,-1,-2,-1
1514892786113396,-1,-1,-1,0,-1,-2,-2,-1
1514892786113396,-1,-4,1,-1,-2,-3,0,-2
1514892786113898,1,1,1,-2,0,1,-2,-2
1514892786113898,-1,0,-2,-2,0,-1,-1,-2
1514892786135406,0,-1,-1,-2,-1,-2,-1,-2
1514892786135406,-1,-2,-1,1,0,-1,-2,0
1514892786136406,0,-2,-1,0,-1,-3,-1,-1
1514892786136406,-1,-1,-2,-1,-1,0,-2,-1
1514892786149916,-1,-3,-1,0,-2,1,-1,0
1514892786149916,-1,-2,1,-1,1,-2,0,-2
1514892786157920,-2,0,1,1,0,-3,-1,-1
1514892786157920,1,0,-2,-1,-1,-3,-3,1
1514892786172934,-2,-4,-3,-2,0,-1,-1,1
1514892786172934,-1,-4,0,0,-2,0,-1,-1
1514892786173933,-3,0,-2,-2,-1,0,1,-1
1514892786173933,-2,0,-3,-2,-2,-1,-1,-2
1514892786195950,-1,-1,-1,-2,-1,-1,0,-2
1514892786195950,0,-2,-2,-1,-2,-1,-2,-2
1514892786196450,-2,0,-1,-2,-1,-1,-2,-2
1514892786196450,-1,2,-1,0,-1,-2,-1,-2
1514892786209959,0,-1,-2,0,-1,-1,-2,0
1514892786209959,0,-2,-1,-1,1,0,0,-2
1514892786217964,0,0,-2,-1,-1,-2,-1,0
1514892786217964,0,1,0,0,-1,0,-1,-3
1514892786233475,-1,-1,1,-1,1,-1,0,-2
1514892786233475,0,-3,-1,-1,1,-1,0,-1
1514892786233976,-1,0,0,-1,0,-1,-2,-1
1514892786233976,-2,1,0,-1,0,-1,-1,-1
1514892786255489,-2,-4,-2,0,-3,-1,0,-2
1514892786255489,0,-3,-1,0,0,-1,-3,-1
1514892786256991,0,-1,-1,-1,0,-1,-1,-2
1514892786256991,-1,0,-2,-1,-2,0,0,0
1514892786270003,-1,-3,-1,-1,-2,0,-2,0
1514892786270003,-1,-2,-1,-1,-1,-1,0,-1
1514892786279009,-1,1,-1,0,-2,-2,0,-1
1514892786279009,-1,0,-2,-2,0,-3,-1,-1
1514892786293016,-1,-2,0,-2,-2,0,-1,-1
1514892786293016,-1,-2,-1,-1,-1,0,-1,-2
1514892786300521,0,0,-2,-3,-2,-2,-3,0
1514892786300521,-3,0,0,-2,-1,-1,-2,-1
1514892786315539,-1,0,-3,-1,-1,-3,1,0
1514892786315539,1,-2,0,-2,-2,-1,-1,-1
1514892786316037,-1,0,-2,-1,-2,0,-1,0
1514892786316037,-1,0,-3,-3,-2,-2,-1,-2
1514892786330045,0,-2,-1,-2,0,0,-1,-3
1514892786330045,-1,-2,-2,-3,1,1,-2,-2
1514892786338049,0,0,-2,-1,-1,0,-1,-1
1514892786338049,0,-1,-1,-2,-3,-1,-2,-1
1514892786353058,-3,-2,-1,-2,-1,-2,0,-1
1514892786353058,-1,-2,0,-1,-1,-1,-1,0
1514892786353559,0,-1,-1,-2,1,-3,-2,-2
1514892786353559,0,0,-1,1,-2,-1,0,-2
1514892786375574,0,-2,-2,0,-1,0,-1,0
1514892786375574,-1,-1,-2,0,0,-1,-1,0
1514892786376076,-2,-2,-1,1,-1,0,0,-2
1514892786376076,-1,0,-1,1,0,-1,-2,1
1514892786406097,-2,0,0,0,-1,0,-1,-1
1514892786406097,-1,-2,0,0,-1,-1,0,-2
1514892786407097,-1,0,-2,-1,-2,-1,-1,-1
1514892786407097,-1,-1,-1,-1,-1,0,0,-1
1514892786413602,0,-2,-3,-1,-1,-1,-2,-2
1514892786413602,-2,0,-1,-2,0,-2,-2,1
1514892786415604,-1,1,-1,-4,-1,-1,-1,-2
1514892786415604,0,-1,-1,-2,-1,-1,0,0
1514892786435617,-1,-2,-2,-1,-2,-1,-1,0
1514892786435617,-2,0,1,-2,0,-2,1,-2
1514892786436117,-1,-1,0,-2,-1,-2,-2,-1
1514892786436117,-1,1,-2,0,-1,1,-2,0
1514892786458633,-1,0,-1,1,0,2,0,0
1514892786458633,-1,-2,-1,1,-2,-1,-1,1
1514892786459634,-2,-1,-1,0,-1,0,-1,-1
1514892786459634,1,-2,-1,-1,0,-1,-1,-2
1514892786473144,0,-3,-1,0,-1,-2,-1,-3
1514892786473144,-1,-4,-2,1,-3,-2,-2,0
1514892786473644,-1,1,0,0,-1,-1,0,-1
1514892786473644,-2,0,-1,0,-2,-2,-1,1
1514892786495661,0,-2,0,-1,-1,-1,-1,-1
1514892786495661,-1,-1,-2,-1,-1,1,-1,-1
1514892786496160,0,-2,-1,1,-1,-1,-1,-1
1514892786496160,0,1,0,-2,-1,-1,0,-2
1514892786519177,0,0,-1,-1,-1,-3,0,1
1514892786519177,-1,-1,0,1,1,-1,-1,-1
1514892786521189,-1,0,-2,-1,-1,-1,-1,-1
1514892786521189,-1,-2,-1,-2,1,-2,-4,-2
1514892786533188,-2,-2,1,-2,-1,-1,-1,-1
1514892786533188,-1,-2,-2,-1,-1,1,0,0
1514892786534187,-1,0,0,-2,0,0,-1,0
1514892786534187,0,0,-1,0,-3,0,-2,-1
1514892786555201,0,-2,-2,0,-1,-2,-1,-1
1514892786555201,-1,1,0,-1,0,-1,-1,-1
1514892786556202,0,1,-2,-2,-1,1,-1,-1
1514892786556202,0,-1,0,0,0,-3,1,-1
1514892786578721,-1,-1,0,-2,0,0,0,-2
1514892786578721,-1,-2,-3,-2,-2,0,1,-1
1514892786579719,-1,-1,0,0,-2,-2,-2,0
1514892786579719,0,-2,-1,-1,-2,-1,-3,-2
1514892786592728,0,-3,-3,0,0,0,-1,-1
1514892786592728,-2,-2,1,-1,0,-2,0,-2
1514892786593729,0,0,-1,-1,-1,-2,-1,-1
1514892786593729,-1,0,0,-3,0,-2,-1,-1
1514892786615253,-2,-3,1,-1,-1,0,0,-3
1514892786615253,-2,-1,0,-1,-3,-1,-1,0
1514892786616254,-2,-1,-2,0,-2,-3,0,0
1514892786616254,-1,-2,-3,-2,-2,-2,-2,-2
1514892786638761,0,0,-2,-2,-1,0,-2,-2
1514892786638761,-1,-2,1,0,-1,-2,0,0
1514892786639260,0,0,-1,0,-2,0,-2,1
1514892786639260,0,1,-1,0,-1,-1,-1,-1
1514892786653270,-3,-4,-1,-2,-2,-2,-1,1
1514892786653270,-1,0,-2,0,0,0,0,1
1514892786654271,0,-2,-2,-1,-2,-1,-1,0
1514892786654271,-3,-1,-1,0,-1,0,-1,-1
1514892786683802,-2,-1,0,-1,1,1,-1,0
1514892786683802,0,-1,1,-1,-3,-1,-3,-2
1514892786684295,0,-1,-1,-1,-2,-1,-1,-3
1514892786684295,0,-2,-3,-2,0,0,0,-1
1514892786699306,-1,1,-2,1,0,-1,-1,-3
1514892786699306,-2,-1,0,0,-1,-1,-2,-1
1514892786700309,-3,-2,0,-1,0,-1,-1,-3
1514892786700309,-2,-1,-1,0,-3,0,-2,0
1514892786713316,-2,0,-1,0,-1,-1,1,-2
1514892786713316,-1,-1,1,-1,-1,-1,0,-1
1514892786713832,-2,1,0,-4,0,-1,-1,-1
1514892786713832,-1,-2,-5,-1,-1,-1,0,-2
1514892786735829,0,-2,-1,-2,-2,-1,-1,2
1514892786735829,0,1,-3,0,0,0,-2,-2
1514892786742834,0,1,-1,-2,0,-1,-1,0
1514892786742834,-2,0,0,-3,-2,-2,0,-1
1514892786758846,-1,-1,-2,-2,-2,0,-1,0
1514892786758846,-1,0,-2,-3,-1,-2,0,1
1514892786760358,-1,0,-1,-2,0,-1,0,-1
1514892786760358,-2,-2,0,0,-3,0,-1,-1
1514892786772865,-1,-3,0,0,-1,0,-1,-2
1514892786772865,0,-1,-4,-1,-1,0,-2,-1
1514892786773866,-1,0,-3,-1,-2,-1,-1,-1
1514892786773866,0,-1,-2,-2,-1,0,-1,-1
1514892786795380,-1,-2,-2,0,-2,-2,-1,-2
1514892786795380,0,1,-1,0,1,-2,0,-2
1514892786796378,0,-2,-2,-2,0,1,1,-1
1514892786796378,0,-3,-3,0,-2,-1,0,-1
1514892786818397,-1,0,0,-1,-1,-1,-2,-1
1514892786818397,-1,0,-2,-2,0,-1,-1,0
1514892786819398,1,-1,0,-1,-2,-1,-1,-2
1514892786819398,-1,-3,-1,-2,-1,0,0,0
1514892786832908,0,-2,-3,-2,-1,-2,1,-1
1514892786832908,-1,-2,-1,-1,-1,0,1,-3
1514892786833908,0,1,-2,-2,-1,-1,-1,0
1514892786833908,-1,0,0,-2,-1,-1,-1,-1
1514892786855425,-2,-3,1,-1,-1,-1,1,0
1514892786855425,-1,-1,-3,0,-2,0,0,0
1514892786856924,-1,1,-2,0,-3,-1,-1,-1
1514892786856924,-2,-1,-1,0,0,-3,-2,-3
1514892786878430,-1,-1,-1,-1,0,-1,0,-1
1514892786878430,1,-1,0,2,-1,-2,-3,-2
1514892786879431,0,-3,-2,-3,-2,-1,-1,0
1514892786879431,1,-3,0,-2,0,0,-2,0
1514892786892940,-1,-2,-1,1,-2,0,-1,-1
1514892786892940,-1,1,-1,-2,1,0,-2,-1
1514892786893943,-3,-1,0,-2,0,-2,1,-1
1514892786893943,-1,-2,0,-3,-1,-2,-1,-1
1514892786915956,-1,-4,-3,-1,-1,0,-1,-1
1514892786915956,-1,0,0,-2,-2,-2,-2,0
1514892786916457,0,0,-2,-2,0,-3,-2,-1
1514892786916457,-1,-2,0,-1,-2,1,-1,0
1514892786938476,-1,-1,1,0,0,-1,-1,-1
1514892786938476,-3,-1,-1,-1,0,0,-1,-1
1514892786939477,-1,-1,1,1,-1,-2,1,1
1514892786939477,-1,-2,-1,-1,-1,-1,-2,0
1514892786961491,-1,-1,-2,-1,0,0,0,1
1514892786961491,-1,0,-1,-1,-3,0,1,0
1514892786961999,0,-1,-2,1,-1,0,-2,-2
1514892786961999,-1,-1,-1,-1,-1,0,-1,-4
1514892786975508,-2,-1,-2,-3,-1,-2,-2,1
1514892786975508,-2,-1,0,-1,-1,0,0,-1
1514892786975999,0,-1,-2,-1,-2,-2,-2,-1
1514892786975999,-1,0,-1,0,-1,-2,0,-2
1514892786998514,-1,-3,-1,-1,0,-3,0,-2
1514892786998514,-1,-2,-1,-3,0,-1,-1,-2
1514892786999515,0,-1,-1,-1,0,0,-1,-1
1514892786999515,-1,-2,-2,0,-1,-1,0,-2
1514892787012037,-1,-1,-1,0,-1,-1,0,-2
1514892787012037,-2,0,-2,-2,-1,-1,-1,0
1514892787020542,-1,-1,-2,-2,-3,-1,-1,-1
1514892787020542,-1,-2,0,-2,-2,0,0,0
1514892787035552,0,-2,-2,0,-2,0,1,0
1514892787035552,-2,0,-1,0,-2,-2,0,-2
1514892787036042,-2,0,0,-1,1,-2,-2,-1
1514892787036042,-2,-2,-2,-1,-3,-2,-2,-2
1514892787058557,-2,-1,0,-1,-1,-2,-2,-1
1514892787058557,2,0,-1,-1,0,-1,-1,-1
1514892787059558,-2,-1,-1,1,-1,0,-1,-1
1514892787059558,-1,-1,-2,-2,0,-2,-2,-1
1514892787072066,-2,0,0,1,-2,-1,-1,-2
1514892787072066,-1,0,-1,-1,-1,0,-2,-1
1514892787080582,0,0,-2,-1,-1,-1,1,-1
1514892787080582,0,-2,-1,-1,-2,0,0,1
1514892787095584,0,-2,-1,-3,-2,-1,-1,-2
1514892787095584,0,0,0,0,0,-2,-1,-2
1514892787096086,-1,0,-1,-2,0,-1,-2,-2
1514892787096086,-1,-2,-2,-1,-1,-1,0,-2
1514892787118599,1,-2,-1,-1,-1,-2,-1,-1
1514892787118599,-1,0,-2,-1,-1,-1,0,0
1514892787119600,-2,0,-1,-2,-1,-1,-1,0
1514892787119600,-2,-1,-2,-1,-2,-3,0,-2
1514892787132121,-1,-1,-2,-1,-1,-1,0,-2
1514892787132121,-1,0,-1,-2,-2,-1,-1,-1
1514892787140618,-2,0,-1,0,-2,-2,-1,-1
1514892787140618,0,-2,1,0,-1,-1,-2,0
1514892787155635,0,-3,0,0,-1,-3,-2,-2
1514892787155635,0,1,-1,-1,-2,-2,-1,0
1514892787156125,0,-1,-1,2,0,0,-1,-2
1514892787156125,-1,-3,-2,-1,1,0,-1,-2
1514892787179647,-2,-2,-1,0,0,-2,-2,0
1514892787179647,-1,0,0,1,-1,-2,0,-1
1514892787180161,-1,0,-1,-3,-1,0,-2,-2
1514892787180161,-1,-1,-3,-1,0,0,0,-1
1514892787192151,-2,-4,-2,-1,0,-1,1,-1
1514892787192151,-1,0,-1,-2,-1,-4,1,-1
1514892787207662,-2,1,-1,-2,-1,-2,-2,0
1514892787207662,-2,-1,0,-1,-1,1,-1,-1
1514892787215668,-3,1,-1,-3,-1,0,-1,-1
1514892787215668,-1,0,-2,-2,-2,-1,-2,0
1514892787216169,2,0,-1,-2,-1,0,1,0
1514892787216169,0,-3,-2,-2,-2,0,-1,2
1514892787239184,-1,-1,0,-1,0,0,-1,-2
1514892787239184,-2,-1,0,-1,-1,-1,-1,-2
1514892787239685,-2,1,0,-2,-2,-3,-1,-1
1514892787239685,0,-3,-2,-1,-2,-1,-1,-1
1514892787252193,1,-2,-1,-1,-1,1,-1,-2
1514892787252193,1,-2,-2,-1,-2,-1,-3,0
1514892787260703,1,0,-2,-1,-1,2,-1,-1
1514892787260703,-1,-4,-1,-1,0,-2,-1,-2
1514892787283716,-1,-1,-2,-1,0,-1,0,-1
1514892787283716,-1,-1,0,0,0,0,1,0
1514892787285217,-2,0,0,0,-1,-3,-1,-1
1514892787285217,-2,0,-1,-2,-1,0,0,1
1514892787298740,-1,-2,-1,0,-2,0,-3,-1
1514892787298740,-1,0,-2,-2,-1,0,-2,0
1514892787299228,0,0,-2,-1,-2,-1,-1,-1
1514892787299228,0,-2,-1,0,0,-1,0,-1
1514892787312238,-2,-3,-1,-1,-1,-1,-1,-2
1514892787312238,0,1,-2,0,-1,0,0,-2
1514892787320242,-2,1,-1,-2,-2,-1,-1,-2
1514892787320242,-2,-1,-1,0,-3,-1,-2,-1
1514892787335262,0,-3,-1,-2,0,1,-2,-1
1514892787335262,-2,-2,0,-1,-1,-1,-1,-1
1514892787336263,0,1,-1,-1,-1,-2,-1,1
1514892787336263,-1,-2,0,-1,0,-1,2,-2
1514892787358769,-1,-3,1,-1,-2,-4,-2,-2
1514892787358769,-1,1,1,-1,1,-3,-1,0
1514892787359269,-1,-2,-4,-1,-1,-1,-1,-1
1514892787359269,1,-2,-1,-1,-1,-2,-1,-1
1514892787381297,-1,-3,-1,0,-1,-1,1,0
1514892787381297,1,2,0,0,-2,0,-2,-1
1514892787382798,-2,0,0,-1,-1,-1,-1,0
1514892787382798,0,0,-1,0,-1,-2,-2,-2
1514892787395310,-2,-2,0,0,-2,-1,-2,-1
1514892787395310,-1,0,0,-2,-2,1,-2,-1
1514892787396295,0,0,-2,-2,-2,-2,0,-2
1514892787396295,2,-3,-2,-1,0,-1,-1,-2
1514892787418812,-2,-2,-2,-1,2,-1,1,0
1514892787418812,-1,0,-1,-1,-1,0,-1,-1
1514892787419312,1,1,-2,0,1,-2,-2,0
1514892787419312,-2,-2,-1,-2,0,-1,1,1
1514892787441330,-1,-1,-4,0,-2,-1,0,-1
1514892787441330,-3,-2,-3,1,-2,-2,0,-1
1514892787441828,-2,0,0,0,-2,1,-1,-2
1514892787441828,-1,-3,-1,0,-2,-2,-1,-2
1514892787455337,-1,-2,0,-1,-2,-1,0,-1
1514892787455337,0,-1,-1,0,0,-1,-2,-2
1514892787456338,0,-1,-1,0,-1,1,-1,0
1514892787456338,-1,-3,0,-3,-2,-1,-1,1
1514892787486369,-2,-3,-1,-3,-3,0,-2,-1
1514892787486369,-2,2,-2,-2,-2,-1,0,-4
1514892787487861,-2,0,0,-2,0,0,0,-2
1514892787487861,0,-2,-2,-1,-1,0,-1,-1
1514892787500872,0,-1,-2,-1,0,0,0,-1
1514892787500872,-1,1,-2,-1,0,-1,-1,0
1514892787501870,-1,0,-1,-1,0,-2,-2,1
1514892787501870,-3,-3,0,0,1,0,-2,-1
1514892787515880,1,-1,0,-1,-2,0,-1,-3
1514892787515880,1,1,-1,-1,-1,0,-1,-1
1514892787516380,-1,1,-1,-1,-3,-2,0,-1
1514892787516380,-2,-1,-2,-1,-2,-1,-2,1
1514892787538396,-1,-2,-1,-1,-2,-2,-3,-3
1514892787538396,-1,2,-2,-2,-1,0,-2,0
1514892787539409,-2,0,0,-2,-2,-1,-1,-2
1514892787539409,-1,0,-1,0,0,-2,0,-2
1514892787561414,-1,-2,-2,-2,-1,-2,1,2
1514892787561414,1,-1,-2,-1,-2,-2,-1,0
1514892787561917,0,0,-3,-1,-2,-1,-1,-2
1514892787561917,-1,-3,-1,-3,-1,-1,0,-2
1514892787575431,-2,-2,1,-1,0,-1,-1,-2
1514892787575431,-1,-2,-1,0,-1,-3,0,-1
1514892787576433,-1,1,0,-2,0,0,0,-1
1514892787576433,-1,-4,0,1,-1,0,-1,-3
1514892787598448,-2,-1,-1,-1,-1,0,-1,-1
1514892787598448,0,0,-2,-2,-1,-1,-1,0
1514892787599439,-1,-1,-2,-1,-2,0,-1,1
1514892787599439,-1,-3,0,-2,-1,-1,-2,-1
1514892787620954,-1,-2,0,0,-1,-1,1,0
1514892787620954,-1,2,-1,-1,0,-1,-3,0
1514892787621955,0,0,-1,-2,-3,-3,-2,0
1514892787621955,0,-2,1,-1,0,0,-1,-1
1514892787635466,-2,-4,-1,-1,-3,-1,-1,-2
1514892787635466,0,-1,-3,-1,-2,-1,0,0
1514892787636465,0,-1,-2,-1,-1,-2,-2,-1
1514892787636465,-1,-2,-1,-3,-1,-1,-1,-1
1514892787658493,-1,-1,-2,-1,-1,0,0,1
1514892787658493,-1,0,0,-1,-2,-1,-1,-1
1514892787659484,-1,-1,-2,0,-2,-2,-1,-1
1514892787659484,-3,-1,-2,0,-2,0,0,-1
1514892787681496,-1,-2,-1,-1,1,0,-2,-1
1514892787681496,-3,1,-3,-1,-1,0,-2,-2
1514892787681998,-2,2,0,1,1,0,0,-1
1514892787681998,-1,-2,0,0,-1,-3,0,0
1514892787696508,-1,-4,0,1,0,-3,-1,-2
1514892787696508,-1,-2,1,-1,-1,-1,-1,1
1514892787698509,0,1,0,-1,0,-1,-3,-2
1514892787698509,0,-2,-2,-1,-2,1,-1,-2
1514892787718524,-3,-1,0,-1,1,0,0,-1
1514892787718524,-1,-1,0,-1,-1,0,0,-1
1514892787719524,-1,0,-1,-2,-2,-1,-2,-1
1514892787719524,-1,-2,-1,-1,-2,-2,-1,1
1514892787748576,-2,-3,-1,-1,-1,-1,-1,-1
1514892787748576,-1,-1,-2,0,-2,-1,-1,-1
1514892787750068,0,1,-2,-1,-2,-2,-1,1
1514892787750068,0,-3,0,-1,0,-1,0,0
1514892787763609,-2,-4,0,-1,-3,-1,0,1
1514892787763609,-1,1,-1,-2,-1,-2,0,0
1514892787765110,-1,0,0,-2,-2,-3,-1,-1
1514892787765110,-1,-2,-1,-2,-1,-2,0,-1
1514892787778652,0,-2,1,-1,-1,0,-2,-3
1514892787778652,-1,1,0,-2,-2,-1,-2,-1
1514892787780151,-1,0,-3,-2,0,-1,-1,-3
1514892787780151,-1,0,0,-2,-1,-1,-1,-1
1514892787801175,1,-1,0,-2,-1,-1,1,-2
1514892787801175,0,-1,-2,-1,-1,-2,-1,-1
1514892787802677,-2,0,-1,0,-2,-3,-2,-1
1514892787802677,-3,-3,-1,1,0,-3,-1,-2
1514892787814676,-2,-3,-3,-1,-3,-1,-2,-2
1514892787814676,-1,-1,0,0,-1,0,-3,0
1514892787823683,-1,1,-1,-2,0,-1,-2,0
1514892787823683,0,-1,-1,0,0,-1,-1,-1
1514892787838694,-2,-2,-1,-1,0,-2,-2,0
1514892787838694,-1,1,0,-1,0,-1,-1,-1
1514892787840193,-1,0,0,-1,-2,-1,-1,-2
1514892787840193,-1,0,1,-2,-2,-1,-2,-1
1514892787861710,-1,0,1,1,0,0,0,0
1514892787861710,-1,-1,-2,-2,0,0,-1,-1
1514892787863720,0,-1,-2,0,0,0,-1,0
1514892787863720,1,-2,0,-1,0,0,-1,-2
1514892787874730,1,-1,-1,0,-1,0,0,-1
1514892787874730,-1,0,-2,0,-1,-1,-2,-2
1514892787883735,-2,-2,-1,-2,-3,-2,-1,-2
1514892787883735,-2,-2,-2,-1,-1,-1,-1,-1
1514892787898750,-1,-1,0,-1,0,-2,0,-2
1514892787898750,-3,1,-1,-1,-2,-1,-1,0
1514892787900236,0,1,1,-2,-1,0,-1,0
1514892787900236,-1,-3,-1,-2,-1,-1,-1,-2
1514892787920767,-2,-1,1,-1,-2,-1,-1,0
1514892787920767,0,0,-1,1,-1,-2,-1,-1
1514892787922752,-3,-2,-2,-1,-3,-2,0,0
1514892787922752,-2,-2,0,-1,-2,-2,0,0
1514892787934762,-2,-1,-1,-2,0,-3,0,-2
1514892787934762,-1,-2,-1,-2,-2,-2,-1,-1
1514892787944768,-1,0,-3,-1,0,-2,-1,-2
1514892787944768,-1,-1,0,-1,0,0,-1,-1
1514892787958787,0,-3,-2,-2,-1,-1,-1,0
1514892787958787,-2,2,1,-1,0,0,-2,1
1514892787960280,-1,-1,-1,0,-1,-1,0,-1
1514892787960280,-1,-2,0,-2,0,1,-2,-1
1514892787981303,0,-1,-1,-2,-1,-2,-1,-2
1514892787981303,1,0,0,0,1,-2,-1,-1
1514892787983805,0,-1,0,-2,-1,0,-1,-2
1514892787983805,-1,-2,-2,0,-2,-1,-1,2
1514892787994806,-1,-2,-1,0,-1,1,-2,0
1514892787994806,-3,0,-1,-2,-2,-1,0,-2
1514892788003819,1,0,-1,-3,-2,0,-2,-1
1514892788003819,0,-3,-1,-1,-2,-2,-1,-1
1514892788018329,-1,-2,0,-1,0,-2,-2,1
1514892788018329,-3,-1,0,0,-1,-1,1,-2
1514892788020330,-2,0,1,-1,-1,-1,-1,-1
1514892788020330,-1,-2,0,1,-2,-2,-3,-1
1514892788041351,0,-1,-1,-1,-3,0,0,-3
1514892788041351,0,0,-1,-1,-2,-1,-2,-3
1514892788044339,-2,-1,-1,0,-1,0,-1,-1
1514892788044339,1,-2,-2,-1,-1,-1,0,-2
1514892788054846,-2,-3,-1,-1,-1,-1,1,0
1514892788054846,0,-1,1,-3,-2,-2,0,1
1514892788071859,-2,-1,-3,-1,-2,1,0,-2
1514892788071859,-1,-2,0,0,0,-3,0,-2
1514892788078907,-1,0,-2,0,0,-4,-1,-1
1514892788078907,0,-1,-2,-1,0,-3,-1,-1
1514892788079907,-3,-2,-1,-3,0,-3,-1,0
1514892788079907,-1,-1,-2,0,-1,-1,-2,0
1514892788100921,-2,-2,0,-2,-1,-3,0,-2
1514892788100921,0,1,-1,0,-2,0,-1,-1
1514892788102923,1,-2,0,0,-1,-2,-1,0
1514892788102923,-1,-1,-1,-2,0,1,0,-2
1514892788114932,-3,-1,-2,-2,-1,0,-2,0
1514892788114932,-1,0,-1,-1,-1,1,-1,0
1514892788123938,0,-1,-1,0,-3,-1,0,-2
1514892788123938,-1,-4,-1,-2,-1,-2,-1,-1
1514892788138456,0,0,1,0,1,-2,0,-1
1514892788138456,1,0,-1,-1,0,0,-1,-1
1514892788140950,0,0,0,-3,-2,-2,-2,-1
1514892788140950,-2,-2,0,-2,-1,-2,-1,-1
1514892788160968,-1,-1,-2,0,-2,-4,-3,0
1514892788160968,-1,-1,-3,-2,-1,-1,-1,0
1514892788162965,-1,0,-2,-1,-1,0,-2,0
1514892788162965,-1,0,0,1,0,-2,-1,-1
1514892788174989,-1,-3,-1,1,-3,0,-1,-1
1514892788174989,-2,-2,-1,-2,-2,-2,0,-1
1514892788183990,-1,0,-2,-1,-2,0,-1,-1
1514892788183990,-3,-1,-1,-1,0,0,-1,-1
1514892788198500,-1,0,0,-2,1,0,-1,-2
1514892788198500,0,0,-3,0,-1,-1,-2,-1
1514892788200002,-1,-3,-2,0,-2,-2,-1,0
1514892788200002,-2,-2,-2,-1,-2,-2,-1,-1
1514892788221007,-2,-1,-3,0,-1,1,-1,-1
1514892788221007,-2,0,0,-1,-2,-1,-1,-3
1514892788223009,-2,-3,-3,0,0,-1,-2,-1
1514892788223009,0,-1,0,0,0,1,-2,0
1514892788244024,-1,1,-1,-1,-2,-1,0,0
1514892788244024,-1,-2,-1,-1,-2,-1,-2,0
1514892788246039,0,-2,0,-2,0,-2,0,-3
1514892788246039,-3,-2,0,0,-2,-3,-2,-2
1514892788258566,-1,-1,-2,-2,-1,0,-2,-1
1514892788258566,0,0,-1,-1,0,0,0,-1
1514892788260035,0,0,-2,-2,-1,-2,-1,-1
1514892788260035,-2,-1,-3,-2,-1,0,-1,-1
1514892788281048,1,0,0,-1,-1,-3,-3,0
1514892788281048,-1,1,-1,-3,-1,-2,0,0
1514892788282550,-2,-1,-1,-1,-2,-1,0,0
1514892788282550,0,-2,0,-2,0,-1,0,-3
1514892788304567,-1,0,0,-1,0,-2,-1,-1
1514892788304567,-1,0,-1,-2,0,-1,0,-2
1514892788308080,-1,-1,0,-1,0,-2,-2,0
1514892788308080,-2,-2,-1,-1,-2,0,-1,-1
1514892788318577,-1,-1,0,0,-2,-1,0,-1
1514892788318577,-1,0,-1,0,-2,-1,-1,-1
1514892788320077,-1,-2,1,-1,1,-1,-2,0
1514892788320077,-1,-2,-1,-1,0,-2,0,-1
1514892788341595,-1,-1,-2,-2,0,-1,0,-1
1514892788341595,-2,-2,-2,0,0,-2,-1,-1
1514892788344096,0,-1,-3,-1,-1,-1,1,-1
1514892788344096,-2,-1,-1,1,-1,0,-1,-2
1514892788363620,-1,-1,-1,0,0,0,-1,-3
1514892788363620,0,-1,0,-1,0,-1,-1,-1
1514892788365118,-1,-2,-1,-1,-1,-1,-1,0
1514892788365118,-1,-1,-1,-2,1,-2,-1,0
1514892788378632,0,2,0,0,-1,-2,-1,1
1514892788378632,0,-1,-2,-2,-1,-1,0,-1
1514892788380130,-3,-2,-2,-1,-2,0,-1,-2
1514892788380130,-1,-1,0,-1,-2,0,-1,-1
1514892788401146,-2,-1,-2,-1,-3,-2,-3,-1
1514892788401146,-2,0,1,1,-1,-1,-2,-2
1514892788402644,-2,-1,-2,-1,-3,-1,-1,-2
1514892788402644,0,-3,-1,0,0,-3,0,-2
1514892788424164,0,-1,-1,0,1,0,0,0
1514892788424164,-1,-1,-2,-2,1,-3,0,0
1514892788425660,-1,1,-1,-1,-2,-1,-2,-2
1514892788425660,0,-2,0,-1,-1,1,-1,-1
1514892788438165,0,-1,-1,0,-1,-1,-1,-1
1514892788438165,-1,0,0,-2,-2,1,-1,-2
1514892788445170,-1,-2,-1,-2,0,0,-2,0
1514892788445170,-1,-1,-2,0,0,0,0,0
1514892788461194,-1,0,0,-2,-1,-1,0,0
1514892788461194,0,0,-1,0,-3,0,-1,-1
1514892788462680,-2,-2,1,0,-1,-2,-2,-1
1514892788462680,-1,-3,-2,-1,-2,-3,-2,-1
1514892788483705,-1,0,-1,-1,1,-2,-2,-1
1514892788483705,0,1,-2,-1,-1,-2,-1,0
1514892788487208,-1,-1,-2,-2,-1,-1,-2,-1
1514892788487208,0,-2,-2,-1,-2,-2,-2,0
1514892788497712,0,-1,-2,-1,-2,-1,0,0
1514892788497712,0,-1,-1,-3,1,0,-1,1
1514892788504716,-1,-1,-1,-1,-1,-1,0,1
1514892788504716,-1,-1,-1,-3,0,-2,-1,-2
1514892788521219,-1,1,0,-2,-2,0,-2,-2
1514892788521219,-4,2,-1,0,-2,0,0,0
1514892788524726,-2,-2,-1,-1,-1,-1,0,-2
1514892788524726,0,-3,-1,-1,-2,-1,0,-1
1514892788544237,-1,0,-1,-1,-2,-2,-1,-1
1514892788544237,-1,-1,-1,-1,-1,-2,-2,-1
1514892788545737,-1,-1,0,-2,-2,0,-1,-2
1514892788545737,-3,-2,0,0,-1,0,-1,-2
1514892788557747,-2,-1,-2,-1,-1,1,-1,0
1514892788557747,0,-1,-1,-1,-2,-2,-1,0
1514892788564749,0,-2,-2,-1,1,-1,-1,-1
1514892788564749,-2,-2,-2,-2,-1,-1,-1,0
1514892788580773,0,0,-1,-1,-1,-3,-2,-1
1514892788580773,-2,-1,-2,-2,0,-2,-2,-1
1514892788582774,-1,-2,-2,0,0,0,-2,-1
1514892788582774,-1,-2,0,0,-1,-2,0,0
1514892788604297,-3,1,-1,-3,-1,0,0,-3
1514892788604297,-1,1,-2,1,-1,-2,-1,-2
1514892788607783,1,-2,-1,0,-1,0,0,-1
1514892788607783,-3,-1,-1,-2,-1,-2,0,-1
1514892788625832,-1,-1,-1,-1,-2,-1,-2,-1
1514892788625832,1,1,-1,-1,-1,-1,-1,0
1514892788627794,-2,-3,0,-2,-1,-1,0,-3
1514892788627794,1,-3,-1,0,0,0,-1,0
1514892788641804,-1,1,-2,0,-2,0,-1,-3
1514892788641804,-2,1,-2,-2,-3,-1,-2,-1
1514892788643305,-1,-3,-1,-1,-2,-2,-1,-2
1514892788643305,0,-1,-2,-1,-1,0,0,0
1514892788663320,0,-1,-1,-1,-1,-2,0,-1
1514892788663320,0,-1,0,0,-2,-1,1,0
1514892788665321,-2,-1,1,-2,-2,-2,0,0
1514892788665321,0,-2,0,-1,-2,-1,-1,-1
1514892788677829,-2,0,-1,-1,-1,0,1,0
1514892788677829,-3,-2,-2,-1,-2,-1,-1,-2
1514892788684844,-2,-2,-1,-1,-2,-1,-1,0
1514892788684844,-3,0,-1,0,-2,-1,-1,-1
1514892788701356,-1,1,-2,-2,-3,-1,-2,-1
1514892788701356,0,1,-2,-2,0,-1,-1,-1
1514892788702857,0,-2,0,-2,-1,-1,-1,-1
1514892788702857,0,-1,-1,0,0,0,-1,-2
1514892788723362,-1,1,0,0,-1,0,0,0
1514892788723362,-2,-1,-1,0,-1,0,-1,-2
1514892788725372,1,-1,-1,0,-1,-1,-1,-1
1514892788725372,-1,-1,-2,-2,0,-1,0,-1
1514892788737881,-1,0,-1,-2,0,-2,-1,1
1514892788737881,-1,0,0,-2,0,-1,-2,-1
1514892788744888,0,-1,-1,1,0,-1,-1,-1
1514892788744888,-3,-1,0,-1,-2,-1,-2,-1
1514892788761391,0,-1,-1,-2,-1,0,-1,-2
1514892788761391,-1,-1,-2,-1,-1,-1,-1,-1
1514892788762891,-1,-2,-2,-1,-2,-1,0,-2
1514892788762891,-1,-2,-1,-1,-1,-1,-2,-3
1514892788783436,1,-1,-1,0,-1,-2,-2,0
1514892788783436,0,1,-1,-2,-2,0,0,0
1514892788785450,-2,-2,-2,-1,-2,-2,0,-1
1514892788785450,0,-4,0,0,-1,-1,-2,0
1514892788797445,-3,0,-2,0,1,-2,-1,-3
1514892788797445,0,-1,0,-2,-1,-2,0,-1
1514892788807953,-1,-1,-1,-2,-1,-1,0,1
1514892788807953,-1,-2,0,0,-2,0,0,-2
1514892788820962,-3,0,-2,-2,0,-1,-3,-1
1514892788820962,-1,0,0,-1,-1,-1,-3,-2
1514892788822963,-1,-1,-1,0,-2,0,-1,-1
1514892788822963,0,-1,0,-2,-2,-2,-1,-2
1514892788843479,-1,1,0,1,-1,-1,1,-2
1514892788843479,-1,2,-2,-2,0,-1,-2,-1
1514892788845981,1,-2,-3,-3,0,-1,-1,-1
1514892788845981,-2,-1,-1,-1,0,-3,-1,-1
1514892788857988,0,-1,-1,0,-3,0,-2,-1
1514892788857988,-1,1,-2,-2,-1,-1,0,-3
1514892788866495,-1,-2,0,0,1,-2,0,-1
1514892788866495,-3,-4,-1,1,-1,-1,-2,-1
1514892788881005,1,-1,-1,-3,-2,-1,-2,-1
1514892788881005,-1,-1,0,-2,-2,1,-2,0
1514892788882506,-2,-3,-1,-2,-1,0,-2,-1
1514892788882506,-2,-2,0,0,-1,0,-1,-1
1514892788905021,-1,1,1,-1,0,-1,-1,0
1514892788905021,-1,1,0,-1,0,-1,-2,-1
1514892788909027,-1,-2,-1,-1,-2,-1,-1,0
1514892788909027,-2,-2,-2,-1,-2,0,-1,-1
1514892788917030,0,2,-3,-1,-2,-4,-1,-1
1514892788917030,0,1,-2,-2,0,0,0,0
1514892788933542,-3,-2,-1,-1,0,-1,-1,0
1514892788933542,-2,-2,-1,-1,0,1,1,0
1514892788941562,-1,-2,-2,0,-1,-1,0,0
1514892788941562,0,-1,-1,-2,-1,-1,-2,0
1514892788943059,0,-1,1,0,-1,-1,0,-2
1514892788943059,-1,-1,0,-1,-1,-1,0,0
1514892788963573,-1,-1,-1,-2,0,0,-1,-2
1514892788963573,-2,0,0,-1,-2,-1,-1,-1
1514892788965074,0,-2,-1,-2,-3,1,0,0
1514892788965074,0,-3,-2,-1,-1,-1,0,-1
1514892788978072,-2,0,-1,-1,1,0,0,-1
1514892788978072,0,-1,-1,-1,-1,-2,-1,-1
1514892788986079,-1,-2,0,0,-1,-1,-3,0
1514892788986079,-1,-1,-1,-1,1,-3,-2,-1
1514892789001099,1,-2,-1,-2,-2,0,-3,-1
1514892789001099,0,0,-2,0,-1,-2,-1,-2
1514892789002600,0,-2,-2,1,1,-1,-1,-3
1514892789002600,-1,-2,-2,-2,-2,-1,-1,-1
1514892789023605,-1,0,0,-1,0,-2,0,-2
1514892789023605,0,-1,-2,-2,-1,1,0,0
1514892789025106,-3,-2,-2,1,0,0,0,-1
1514892789025106,-2,-3,-2,0,0,-2,-3,-1
1514892789046131,-2,1,-2,-1,0,-1,0,-2
1514892789046131,0,2,-1,0,-2,-2,-1,-1
1514892789047632,-1,-3,0,-2,-1,-1,-2,-1
1514892789047632,0,-3,0,-2,-1,-2,-1,0
1514892789061133,-1,0,-2,-2,-2,-1,-1,-1
1514892789061133,-3,-1,0,0,-1,-1,-1,-1
1514892789062636,-2,-2,-1,-2,-1,1,0,0
1514892789062636,0,-2,0,0,0,-1,0,-2
1514892789083648,0,0,-2,0,-2,-1,-2,0
1514892789083648,0,1,-1,0,-3,-2,-1,-1
1514892789085150,-2,-2,-1,-1,-1,-1,1,-2
1514892789085150,-1,-2,0,-1,-2,0,-1,0
1514892789097660,-1,0,-1,-1,0,0,-2,-1
1514892789097660,-1,1,-1,-1,0,0,-1,-2
1514892789107174,-3,-3,-2,-2,-3,-1,-2,-2
1514892789107174,-2,-1,-1,0,-1,-2,2,-1
1514892789121184,0,0,0,-1,-1,-1,-1,0
1514892789121184,0,-1,0,0,0,-1,-2,-1
1514892789122685,0,-2,-1,1,-1,0,1,0
1514892789122685,-1,-1,-1,-1,-1,-1,-2,-1
1514892789143690,-2,-2,-1,-2,-3,-2,-1,-1
1514892789143690,-1,0,-2,-2,-3,-1,0,-1
1514892789146195,0,-2,0,-1,0,-3,0,-2
1514892789146195,-3,-3,0,0,-2,-2,-2,-2
1514892789157209,-1,2,-1,-1,0,0,1,0
1514892789157209,-2,1,-2,-1,0,-2,0,-1
1514892789166216,1,-2,-1,-2,-1,-2,0,-2
1514892789166216,-1,-3,0,-1,0,0,-1,-2
1514892789181719,-1,-1,-1,-4,-2,-1,-2,-1
1514892789181719,-2,1,-2,-2,-2,-1,0,-1
1514892789183219,-2,-2,-1,-1,0,-1,-3,-1
1514892789183219,0,-4,-1,-2,0,-1,1,-1
1514892789203733,0,0,-1,0,0,0,-1,-2
1514892789203733,1,0,-1,-2,-1,0,0,2
1514892789207250,-1,-3,0,-2,0,-3,-1,-2
1514892789207250,1,-3,-1,-2,0,0,0,-2
1514892789226262,-1,0,0,-1,-1,-1,-1,-1
1514892789226262,-1,-1,-1,-2,-1,-1,0,-2
1514892789227750,0,-2,-2,-1,-1,-1,-2,-1
1514892789227750,-1,-2,-2,0,-1,-1,-2,-1
1514892789240760,-1,0,-3,-2,-1,-2,0,1
1514892789240760,1,1,-1,0,-2,-2,-3,-2
1514892789242775,-2,-2,-1,0,-2,0,0,0
1514892789242775,-2,-1,-2,2,-1,-2,-1,-2
1514892789263275,-2,1,-1,0,-1,0,0,-2
1514892789263275,-2,-1,-2,-1,-1,-1,-2,1
1514892789265288,0,-1,-2,0,-1,-1,-1,-1
1514892789265288,0,-1,0,-2,-1,-1,0,-2
1514892789285837,-1,0,0,0,-2,0,-2,0
1514892789285837,-2,-1,-1,-3,0,-2,-1,-2
1514892789287838,-2,-2,-2,-2,0,0,0,-1
1514892789287838,-1,-3,-2,-2,-1,-1,-2,-1
1514892789301347,-2,-1,-1,-2,-1,-2,0,-1
1514892789301347,0,0,-1,0,-1,0,0,0
1514892789302848,-3,-2,-2,0,-3,-1,-1,1
1514892789302848,0,-3,-1,0,1,-2,-1,-1
1514892789323351,0,-1,-2,-1,-1,-3,-1,-2
1514892789323351,0,-1,1,-1,-1,-1,0,-2
1514892789325353,0,-2,-1,-2,0,0,-1,-2
1514892789325353,-1,-1,-1,-1,-2,-1,1,-1
1514892789345866,-1,-1,-2,-2,-4,0,-1,-1
1514892789345866,-1,-1,-1,-3,-3,-1,-3,-1
1514892789347879,1,-2,0,0,0,2,-1,-2
1514892789347879,-2,-1,0,0,-1,-2,-1,1
1514892789360879,-2,-1,-1,-2,-2,-1,-1,-1
1514892789360879,-1,2,-2,-2,-1,-2,0,-2
1514892789366881,-2,-2,0,-1,-2,-1,-2,0
1514892789366881,-3,-2,-2,-3,-2,-3,1,-1
1514892789383402,0,0,-1,-1,0,-1,-2,-1
1514892789383402,-2,-1,-3,-2,-1,-1,0,-1
1514892789384909,-2,-3,-2,-1,-1,-2,-1,-1
1514892789384909,-1,-1,0,0,0,-1,-2,-1
1514892789405919,-1,0,-1,-2,0,0,0,-1
1514892789405919,1,0,-1,-2,0,1,-2,-2
1514892789407912,0,-2,-1,-1,-1,-3,0,-1
1514892789407912,-1,-2,-1,1,-1,1,-2,-1
1514892789428945,-1,0,-2,-1,-3,-1,-1,-1
1514892789428945,-2,-1,-2,-1,0,-2,-1,-1
1514892789429925,-1,-3,-1,-1,1,-1,1,-1
1514892789429925,0,-1,0,-1,0,-1,-1,0
1514892789443445,2,1,-1,0,0,-1,0,-1
1514892789443445,-2,-1,-1,1,-1,0,-2,0
1514892789444937,-3,-2,0,-1,-2,-1,-1,-3
1514892789444937,-2,-1,-2,-2,1,-1,0,-1
1514892789465953,-2,1,0,0,0,-2,-1,-1
1514892789465953,-1,-1,-1,0,-1,-3,-2,0
1514892789467965,1,0,-2,0,-1,-1,-1,0
1514892789467965,-1,-1,-1,-2,0,-1,0,-2
1514892789480463,-1,0,-1,0,0,-1,-3,-3
1514892789480463,-1,-1,-3,0,-1,0,-1,-1
1514892789487467,-1,-3,0,-1,1,0,0,0
1514892789487467,0,-1,-2,-1,-1,-1,-2,-1
1514892789503487,0,-1,0,-1,-1,0,-1,-1
1514892789503487,1,-1,-1,-3,-1,-1,-2,-2
1514892789504981,1,-1,-2,-1,-2,0,-1,-1
1514892789504981,-1,-1,0,0,0,-1,0,-2
1514892789533500,-1,-1,0,-2,-1,0,-1,-1
1514892789533500,-2,-1,-2,0,0,-2,-2,-1
1514892789535000,-2,-2,-1,2,-1,-1,0,-1
1514892789535000,-1,-2,0,-1,-2,0,-1,0
1514892789540516,0,0,-2,0,0,-2,-1,0
1514892789540516,-2,0,2,-3,0,0,-1,-1
1514892789547020,0,-2,-1,-1,-1,-2,-2,-1
1514892789547020,0,-2,-1,1,-2,0,-2,-2
1514892789563530,-2,0,-1,-2,-1,-1,-2,0
1514892789563530,-1,0,-1,0,-2,-2,-2,1
1514892789565031,-2,-3,-1,-2,-1,-1,-2,0
1514892789565031,-1,-3,-1,0,-2,0,1,-1
1514892789594051,-1,0,-1,-2,-1,-3,0,0
1514892789594051,-1,-1,-1,0,-1,-2,-1,-2
1514892789597548,0,-2,0,-1,-2,-2,-1,-1
1514892789597548,-1,-2,-1,-2,0,-1,0,-1
1514892789600550,0,-1,-1,-1,0,-1,0,-1
1514892789600550,0,-3,-2,-1,-2,2,0,-2
1514892789607051,1,-1,-1,0,-1,0,0,-1
1514892789607051,0,-2,-1,-1,-1,-2,0,-2
1514892789623574,-1,0,-2,-1,-2,-1,-1,0
1514892789623574,0,0,-1,-3,0,-1,-1,0
1514892789625076,-1,-2,-1,-1,-1,-2,1,-2
1514892789625076,-1,-2,-1,-2,-2,-2,-2,1
1514892789646079,1,-2,-1,-2,-2,-2,-1,-1
1514892789646079,0,-3,0,-1,-2,-2,-2,-2
1514892789647590,-2,-2,-3,0,0,-1,0,-1
1514892789647590,-1,-1,-1,1,1,0,-1,-1
1514892789660589,-3,1,-1,0,-2,0,0,1
1514892789660589,-2,0,-1,-1,-3,-2,0,0
1514892789667094,0,-3,-1,-1,-1,0,-1,-2
1514892789667094,-1,-2,-1,-3,-2,-1,-1,0
1514892789683606,-1,-1,0,-1,-1,-1,0,-2
1514892789683606,-2,-1,-1,-3,0,-2,-1,-2
1514892789685107,0,-2,0,-2,-1,-1,-3,-2
1514892789685107,-1,1,-1,0,-1,0,-2,-3
1514892789706126,-1,-1,-2,-1,-1,-1,0,-1
1514892789706126,-1,-1,-2,-1,0,-1,-1,-1
1514892789707622,0,-1,-2,-1,0,-2,1,-1
1514892789707622,1,0,-1,-1,-1,-3,0,-2
1514892789719643,-2,2,-3,-3,-1,-1,-1,-3
1514892789719643,-3,0,-3,0,-1,0,-1,0
1514892789736152,-2,-2,-2,0,-1,-2,0,-3
1514892789736152,-2,-1,0,-1,-1,0,-1,0
1514892789743647,-1,0,-3,0,-1,-2,-1,-1
1514892789743647,1,-1,-2,-1,-2,1,-1,-1
1514892789746163,-1,-2,0,-1,-2,1,-1,1
1514892789746163,-2,-1,-2,-1,-2,-3,0,-1
1514892789766173,0,0,-1,0,0,-1,0,-1
1514892789766173,-2,-2,-3,-2,-2,-1,-1,-3
1514892789767666,0,-2,0,-2,0,0,-2,-1
1514892789767666,-1,-2,0,-1,-2,-1,0,-1
1514892789779673,-1,-1,0,0,-2,1,-1,1
1514892789779673,-1,-1,-1,-3,-1,-1,-1,0
1514892789788681,-1,-1,-2,1,-1,1,-2,0
1514892789788681,-2,-1,0,0,0,0,-2,-2
1514892789803702,-1,1,0,-2,-3,-3,-2,-2
1514892789803702,2,-3,-2,0,-2,0,1,-1
1514892789805203,-2,-2,-1,-2,-1,-2,0,-2
1514892789805203,1,-2,-2,-1,0,-2,-1,-2
1514892789826226,-2,0,-3,-1,1,-1,-1,-2
1514892789826226,-1,-4,-1,-1,1,-2,-3,-1
1514892789827709,-3,-1,-1,-3,-3,0,-1,1
1514892789827709,-1,-1,0,0,-1,-1,-1,0
1514892789839717,1,-2,-2,0,-3,0,-2,0
1514892789839717,-3,-2,-1,-1,-2,0,0,0
1514892789848731,-2,-2,-1,0,0,-1,-1,0
1514892789848731,0,-1,-2,-1,-1,0,0,0
1514892789863733,-1,0,-2,-2,1,0,0,-1
1514892789863733,-1,-2,-2,-1,0,-2,-1,0
1514892789865243,-1,-3,-2,-2,-1,-1,-1,-3
1514892789865243,-1,0,-2,-2,-1,-1,-1,-2
1514892789885809,0,-1,-1,0,-2,0,-1,0
1514892789885809,-1,-1,0,-1,0,-2,-2,-1
1514892789887810,-1,-2,-2,0,-1,-1,0,0
1514892789887810,0,1,0,-1,-1,0,0,-3
1514892789899816,-1,0,1,-2,-1,-2,1,-1
1514892789899816,-2,-2,0,-3,-3,-2,-1,-1
1514892789908814,0,-1,-1,0,0,-1,-1,-2
1514892789908814,-1,0,-2,-1,-1,0,-2,2
1514892789923835,-3,0,-1,-2,-2,-1,-2,-1
1514892789923835,-2,-2,-1,0,-1,0,-1,-1
1514892789925340,0,-1,0,-2,-2,-1,0,-2
1514892789925340,-2,-1,-1,0,0,-1,-2,0
1514892789946347,0,0,0,0,-1,-1,-3,-2
1514892789946347,-2,-2,-1,-1,-1,-1,-1,1
1514892789947850,-2,-2,0,-2,-2,-1,-1,-2
1514892789947850,-2,-1,-1,0,-2,-2,-1,0
1514892789968364,-1,-1,-1,0,-1,-2,-1,-1
1514892789968364,-1,-1,-2,-1,-2,-2,-1,-3
1514892789972358,0,-1,-1,-1,1,-2,-2,-1
1514892789972358,-1,-1,-1,-1,-2,0,-1,0
1514892789983866,-3,-1,0,-2,-3,0,-2,-1
1514892789983866,-1,-2,0,-1,0,-2,-1,-1
1514892789985370,0,-3,0,-1,-1,-2,-2,0
1514892789985370,0,0,-1,-2,-2,-2,-1,-2
1514892790014388,-1,1,-2,0,-1,-1,-1,0
1514892790014388,-1,0,-2,0,-1,0,-2,0
1514892790015888,-1,-2,-3,-1,-1,0,0,-1
1514892790015888,-1,-1,0,-2,-2,-1,0,0
1514892790019891,0,0,-1,-2,-2,0,-2,-1
1514892790019891,-1,-1,0,-1,-2,1,-1,-2
1514892790028904,1,-3,0,0,0,-1,-2,-1
1514892790028904,0,0,-2,-1,-2,-2,-1,-2
1514892790043420,0,-2,-2,0,0,0,0,0
1514892790043420,-1,-3,0,0,-2,-1,-1,-2
1514892790046427,-2,1,0,0,-2,-1,-2,-3
1514892790046427,-3,-1,-1,1,0,-1,0,-1
1514892790065934,0,0,0,-1,0,-1,-3,-2
1514892790065934,0,-4,-1,-3,-2,-1,0,-1
1514892790067926,-1,-3,-1,-1,-1,-2,0,0
1514892790067926,0,0,-2,0,-1,-1,-1,0
1514892790079934,0,0,-2,-1,-2,-1,1,-1
1514892790079934,-1,-2,-1,1,-1,-1,-2,-1
1514892790088940,-3,0,0,-2,-1,-2,0,-1
1514892790088940,-1,-1,-1,-2,0,-1,-1,-2
1514892790103451,0,0,-1,-1,1,-2,0,-2
1514892790103451,0,-2,-2,-1,-1,1,-1,-1
1514892790104952,-2,-1,-2,-1,-1,-1,-1,-1
1514892790104952,-2,-1,0,-2,-1,-2,-1,0
1514892790125972,-1,-1,-1,0,-1,-1,-1,-1
1514892790125972,-1,-2,-1,-1,-2,1,0,0
1514892790127970,-1,-2,-1,-2,-2,0,1,-1
1514892790127970,-2,0,-2,-2,0,0,-2,-1
1514892790139976,-2,-1,-1,0,-2,-2,1,0
1514892790139976,-1,-2,-1,-3,0,-2,-1,-4
1514892790148984,-1,-3,-1,-2,-2,0,-2,-2
1514892790148984,-1,1,0,-2,-2,-2,-3,-2
1514892790163494,-2,1,-1,-2,-1,-1,-4,0
1514892790163494,-3,-1,-1,-2,-2,-1,1,-1
1514892790164995,-2,-1,0,-3,-1,2,-1,-2
1514892790164995,0,-2,-2,-1,-2,-2,-1,-1
1514892790186008,-1,0,-1,-2,-1,-1,0,-1
1514892790186008,0,-4,-1,0,-1,-2,-1,-1
1514892790187509,0,-2,-1,-2,-2,0,-2,1
1514892790187509,0,0,0,0,-1,0,0,-1
1514892790216030,-2,-1,0,-1,0,1,1,-1
1514892790216030,-1,0,-1,-2,-1,-2,-2,0
1514892790217548,-2,-1,-1,0,-1,-1,-1,0
1514892790217548,-1,1,-2,0,-2,-1,-1,-1
1514892790231050,-1,0,-3,1,-3,0,-2,-1
1514892790231050,0,-3,-1,-2,1,0,-1,-2
1514892790232551,-1,-2,-1,-1,-1,-1,-1,-2
1514892790232551,-2,1,-2,-1,-2,0,-1,0
1514892790246062,0,-1,0,-1,0,-2,0,-1
1514892790246062,-2,0,-1,-1,-1,0,-1,-1
1514892790247562,0,-3,-2,-1,0,-2,-1,-1
1514892790247562,-1,1,-1,-2,0,-1,-1,1
1514892790268568,0,0,-1,-4,-1,-2,-2,-1
1514892790268568,-2,-2,-2,0,-2,-2,-2,-1
1514892790272082,-1,-1,-1,0,-1,-1,-1,0
1514892790272082,-3,1,1,-1,0,-1,-1,-2
1514892790283090,-2,1,-2,0,-1,-1,-2,0
1514892790283090,-3,0,-2,0,0,-3,0,0
1514892790289581,-3,-2,0,-1,-2,-1,-1,-1
1514892790289581,-1,-1,-3,-2,1,0,1,-2
1514892790306103,-1,0,0,-3,-3,0,0,-3
1514892790306103,2,-1,0,-1,-2,-1,0,-1
1514892790307596,-1,-3,-1,1,-2,-1,-1,-2
1514892790307596,0,0,-1,-2,-1,0,0,-1
1514892790329111,-1,0,-2,-2,-1,-1,-2,-2
1514892790329111,0,-3,-1,-2,-2,-1,-2,-1
1514892790330111,-1,-1,-1,-1,-2,-2,1,-2
1514892790330111,1,0,-1,-1,-1,-2,-1,-2
1514892790351127,-1,0,-1,0,-1,1,-2,-1
1514892790351127,-2,-3,0,-1,-1,0,-1,-2
1514892790352645,-1,-1,0,-1,-2,-2,-1,-2
1514892790352645,-2,-1,1,0,-2,-1,-2,-1
1514892790366146,0,-1,0,0,-1,0,-1,1
1514892790366146,-2,-3,-1,-2,0,-1,0,-1
1514892790367639,0,-2,-2,0,-1,0,-2,1
1514892790367639,-1,0,0,0,-2,-1,-1,-2
1514892790388667,0,1,-2,0,-2,-1,-1,-1
1514892790388667,-2,-2,0,-1,-2,1,0,0
1514892790390153,0,-2,-2,-1,1,-1,-2,0
1514892790390153,0,0,-1,-2,-1,-2,-1,0
1514892790402663,-3,-1,-1,-2,-2,-2,-1,-1
1514892790402663,-1,-1,-2,-1,-2,0,0,-3
1514892790409667,-3,-2,-1,-2,-3,-1,-1,-3
1514892790409667,-1,0,-2,0,0,-1,-1,-2
1514892790426179,-1,0,-2,1,0,-1,-1,-2
1514892790426179,-1,-2,0,-2,-1,-1,0,1
1514892790427683,-1,-2,-2,-1,-1,-1,1,-1
1514892790427683,-2,-1,-1,-1,-1,-2,-1,1
1514892790448704,-1,2,-1,-2,-2,-3,-2,-2
1514892790448704,0,-3,-1,-2,0,-2,-2,-1
1514892790450196,-3,-3,-2,-1,0,1,-3,-2
1514892790450196,-1,-1,-1,0,0,-2,-2,-2
1514892790462715,0,1,-1,-2,-1,-2,0,-1
1514892790462715,0,-2,0,0,-2,0,-1,0
1514892790469709,0,-4,0,-1,-2,-1,-1,-1
1514892790469709,0,-1,-1,-1,1,1,0,-1
1514892790486231,-2,-1,-1,0,0,1,-1,-2
1514892790486231,-1,-3,-2,-1,-1,-1,-1,-3
1514892790488733,-1,-3,-1,1,-2,-2,-1,-2
1514892790488733,0,1,-1,-1,-1,-3,1,-1
1514892790509738,-1,0,-1,-2,-1,0,-2,0
1514892790509738,-2,-2,-2,0,-1,-2,-1,0
1514892790511241,-3,-1,-1,0,-1,2,0,-1
1514892790511241,-2,0,-3,0,-2,-3,-1,1
1514892790522750,1,0,-1,-3,1,0,-1,-2
1514892790522750,-2,-3,0,-1,-1,-1,-1,-1
1514892790529752,-1,-2,-1,-3,-2,-2,-2,0
1514892790529752,-3,-1,1,-1,-3,-1,0,-1
1514892790546274,-2,1,-3,-3,0,-1,0,0
1514892790546274,-1,-2,1,0,0,-1,-1,0
1514892790547764,-2,-3,0,-1,0,-1,0,-1
1514892790547764,0,0,-2,-2,-2,1,-1,-2
1514892790569280,-1,-1,-2,1,0,-3,-1,-1
1514892790569280,0,-1,-3,0,-3,-2,-1,-3
1514892790572282,0,-2,-1,0,-1,-3,-1,-1
1514892790572282,-2,-1,-1,0,-1,-4,-1,-2
1514892790582790,0,0,0,-2,-1,0,-1,0
1514892790582790,1,-1,-1,-1,0,0,-1,0
1514892790589794,0,-1,-2,-1,0,-3,-2,-1
1514892790589794,1,0,-1,-2,0,1,0,-3
1514892790606316,0,0,-2,-1,-1,-1,-2,-2
1514892790606316,-1,-2,0,0,0,1,0,0
1514892790613821,-1,-3,0,0,0,0,-1,1
1514892790613821,-2,1,-2,-1,-2,-1,-2,1
1514892790628336,-2,-1,-2,-4,-3,0,0,0
1514892790628336,0,-3,-1,-1,-1,-2,-2,-1
1514892790630335,-2,-2,-1,-1,-1,-1,0,-1
1514892790630335,-1,2,-1,-1,-1,-2,-1,1
1514892790642833,-2,0,-2,2,-1,0,-1,0
1514892790642833,-1,-2,-1,-1,-1,-3,-2,-2
1514892790649837,0,-1,-1,0,-1,-2,0,-2
1514892790649837,1,1,1,-2,-3,-1,-2,-1
1514892790665847,-2,0,0,-1,1,-2,0,-2
1514892790665847,-2,-2,-1,-2,0,-1,1,-1
1514892790667850,1,-2,-1,-1,0,0,-2,-2
1514892790667850,1,0,-3,0,-1,0,-1,-1
1514892790688910,1,0,-2,-1,-2,0,-2,-1
1514892790688910,-1,-2,-1,0,-1,0,0,0
1514892790690921,-1,-3,0,-1,-1,-1,-2,0
1514892790690921,-2,-1,-1,-2,0,-1,-2,0
1514892790701918,-1,0,-1,-3,-2,-2,-1,-1
1514892790701918,-3,-2,-1,-1,0,-1,-2,-1
1514892790711436,-2,-2,-1,-2,-2,-2,1,0
1514892790711436,-2,1,-2,-2,0,-2,-2,-1
1514892790725935,0,-1,-1,0,0,-1,-1,-1
1514892790725935,-2,-1,0,-3,-1,-3,-1,-1
1514892790727938,-2,-2,-1,-1,0,1,1,-2
1514892790727938,0,0,-1,-2,-3,-2,-1,-1
1514892790748452,-2,0,-2,-2,0,-1,0,-1
1514892790748452,1,-2,-2,-1,-1,-1,-1,0
1514892790749963,0,-2,0,-1,0,0,0,-1
1514892790749963,0,0,0,-1,-1,-1,-2,0
1514892790762464,1,-1,-1,-2,-1,-1,-2,0
1514892790762464,-1,-3,-1,-1,-2,-2,0,0
1514892790771968,-1,-2,-2,-1,0,0,0,-1
1514892790771968,0,-2,-2,-2,0,0,-1,-1
1514892790785990,-1,0,0,0,0,-2,-2,-1
1514892790785990,-1,-3,-1,0,0,1,-1,-2
1514892790787478,-2,-1,-1,0,-2,-3,-1,-1
1514892790787478,-1,0,-1,1,-2,-1,-1,-1
1514892790808494,-1,2,-1,-1,-1,0,-3,-2
1514892790808494,-2,-1,-1,-1,0,-1,1,-2
1514892790810996,-3,-2,0,0,-1,-1,0,0
1514892790810996,0,-1,-1,-1,-1,-1,-1,0
1514892790822003,-2,0,-1,-2,-1,-2,-2,-1
1514892790822003,0,-3,-1,0,-2,-1,-1,-1
1514892790831016,-3,-3,-1,-1,-3,-2,-1,-1
1514892790831016,2,0,-2,-2,-1,-2,-1,0
1514892790846522,-1,1,-1,1,0,0,0,-1
1514892790846522,-4,-2,-1,-2,-1,0,-1,-3
1514892790848022,1,-2,-2,-1,-1,-2,-1,-3
1514892790848022,0,1,-1,-1,0,-2,0,1
1514892790868539,-1,-1,-1,-2,-1,-1,0,-1
1514892790868539,0,-2,-1,-3,-3,-2,-1,0
1514892790871050,-2,-3,-2,0,-2,0,1,-1
1514892790871050,-2,0,-1,-2,-2,-1,-1,-2
1514892790882046,0,-1,-2,-1,-2,-2,-2,-2
1514892790882046,-2,-3,-2,1,0,-3,-1,-1
1514892790891063,-1,-3,0,-2,0,-2,-1,0
1514892790891063,0,-1,-2,0,0,0,-2,-1
1514892790907073,-2,-1,-2,-2,-2,0,0,-1
1514892790907073,-2,-1,-1,0,-1,0,-1,-2
1514892790909575,-1,-2,0,0,1,-1,-2,-2
1514892790909575,-1,0,-1,0,0,0,1,-1
1514892790928579,-2,0,-1,-3,-1,-1,-2,0
1514892790928579,0,-2,-1,-1,0,-1,-1,0
1514892790930082,-2,-3,0,-1,-2,-3,-2,-2
1514892790930082,-2,0,0,-2,0,-1,-1,-2
1514892790942089,-1,-1,-1,0,-1,-1,1,-4
1514892790942089,1,-2,-2,-2,-3,-2,-1,0
1514892790951094,-1,-3,-2,-3,0,-2,-2,-1
1514892790951094,-1,2,0,-1,-1,0,1,1
1514892790966609,2,0,0,0,-1,-1,-1,-2
1514892790966609,-1,-3,-3,-2,-3,-3,-1,-2
1514892790967607,-3,0,0,1,-1,-1,0,-2
1514892790967607,-4,-1,-5,0,-1,-1,-3,-4
1514892790988633,2,2,-1,0,-1,0,1,3
1514892790988633,0,-2,0,-1,0,1,-1,-1
1514892790990124,2,-1,-2,-2,-2,-2,0,0
1514892790990124,-3,-1,-2,-1,-3,-4,-3,-2
1514892791002144,-2,2,2,1,-2,-2,0,-1
1514892791002144,-1,-1,0,0,-1,-1,-1,-1
1514892791011136,0,-3,0,-4,-2,-1,-1,-3
1514892791011136,-3,-1,-3,2,-2,-2,-4,-2
1514892791026149,-2,0,-1,1,1,0,-1,-1
1514892791026149,3,2,0,0,-2,-1,-2,-2
1514892791027649,3,1,-1,0,-3,0,0,1
1514892791027649,7,4,0,-5,-4,0,-1,1
1514892791049170,3,-4,-2,-3,0,2,1,3
1514892791049170,-10,-10,-1,2,-2,-5,-7,-9
1514892791050667,12,5,0,1,4,7,8,10
1514892791050667,-11,-6,-2,-3,-3,-2,0,-5
1514892791070683,-2,-2,1,-1,-2,-2,-2,-2
1514892791070683,7,5,11,-1,-1,0,1,1
1514892791078686,-6,9,-1,0,-1,-3,-3,-7
1514892791078686,7,8,26,4,-1,-3,-5,2
1514892791086195,0,0,-56,-6,0,1,4,5
1514892791086195,-9,-17,-4,-9,-5,-2,-1,-2
1514892791087692,0,-5,-9,0,-1,-1,-2,-2
1514892791087692,3,2,3,1,-1,-1,-1,0
1514892791108707,-5,2,17,1,1,1,-1,1
1514892791108707,7,13,4,5,4,3,2,3
1514892791110207,1,-11,-4,-4,-3,-3,0,-1
1514892791110207,-13,-15,2,-1,-2,-1,0,2
1514892791131223,6,12,12,3,-4,-5,-6,-8
1514892791131223,-5,4,-21,-1,2,3,5,4
1514892791132722,-10,-5,9,-1,-2,-3,-6,-5
1514892791132722,-5,-5,-17,2,-2,0,-2,-8
1514892791146237,5,-11,5,-4,-1,-1,-3,2
1514892791146237,9,13,3,-3,-3,-3,-4,-2
1514892791149736,-14,0,-5,1,-1,-2,-2,-7
1514892791149736,-1,-13,-6,-1,-3,1,-1,3
1514892791168749,-15,-7,3,-2,-4,-1,0,-5
1514892791168749,10,3,-2,-4,-3,-1,0,1
1514892791170254,8,2,0,4,1,0,-2,4
1514892791170254,5,4,6,5,0,0,0,-2
1514892791190764,-10,-5,3,-8,-6,-3,-1,-4
1514892791190764,-3,-10,-3,2,2,-1,-1,9
1514892791192765,-10,-5,-5,5,2,1,-2,-10
1514892791192765,6,2,14,-9,-8,-3,-2,-1
1514892791206276,-8,-5,-6,4,3,-1,-3,-10
1514892791206276,-3,-9,1,-1,-2,-4,-2,1
1514892791207776,4,2,3,-5,-3,-3,-1,7
1514892791207776,33,15,1,7,5,4,4,0
1514892791228793,-26,-24,4,-3,-8,-4,-3,-1
1514892791228793,0,-4,-4,-14,0,-1,-2,-7
1514892791230295,-16,-10,-1,-1,-2,0,0,0
1514892791230295,-14,0,-12,-6,-1,-1,1,7
1514892791251309,32,19,1,6,1,-2,0,4
1514892791251309,-11,-1,1,4,0,0,1,-6
1514892791252810,12,2,8,-3,0,-1,-2,-3
1514892791252810,-12,-1,-19,-5,-2,0,0,3
1514892791265817,10,7,8,2,3,-1,6,12
1514892791265817,-9,3,-5,2,0,0,-2,-3
1514892791272321,26,17,-5,0,-2,-2,-11,-9
1514892791272321,-33,-10,-5,-5,-1,-4,1,-17
1514892791288836,8,-9,5,1,0,2,-2,-2
1514892791288836,-8,-7,4,-2,1,3,-6,-8
1514892791290336,-7,-10,1,0,-4,-3,8,7
1514892791290336,13,16,-5,-4,2,0,-8,0
1514892791310848,7,8,-1,1,-1,0,0,16
1514892791310848,-12,-19,4,3,-4,-5,-6,-23
1514892791312851,10,7,-16,-2,-1,0,-14,-4
1514892791312851,-3,-2,16,3,2,-3,3,8
1514892791325360,0,-2,-5,-3,-1,0,-3,-26
1514892791325360,-3,5,-4,-6,-3,0,15,13
1514892791332365,-18,-16,-14,4,0,-1,2,2
1514892791332365,-3,0,6,-5,-4,-2,-5,-6
1514892791348391,4,8,-9,-3,0,1,1,16
1514892791348391,2,0,-2,7,1,-2,-6,-10
1514892791356381,1,5,-9,-4,0,-2,10,5
1514892791356381,4,4,6,-3,-2,-1,1,2
1514892791370891,-9,-10,-4,-5,-1,-4,-5,-4
1514892791370891,-4,-1,10,0,-1,-1,-1,-4
1514892791373399,1,-5,-12,-2,-1,2,4,7
1514892791373399,6,8,-11,1,1,0,1,4
1514892791385403,0,6,7,-2,-3,-4,-7,-13
1514892791385403,5,6,5,0,-2,-1,3,3
1514892791399913,2,-3,18,7,4,1,-4,1
1514892791399913,-9,-10,1,-7,-5,-4,-2,6
1514892791408418,-2,-2,-27,-1,2,4,5,-10
1514892791408418,3,9,4,-3,1,-1,6,12
1514892791409919,-4,3,-20,-5,-3,-1,2,-12
1514892791409919,-1,-8,-4,2,-1,-2,-6,-14
1514892791447446,-4,8,19,2,-1,-3,-2,3
1514892791447446,2,-2,-16,-2,-1,-2,-6,-3
1514892791448947,-5,-2,1,-4,-2,0,3,2
1514892791448947,-3,-12,-4,3,4,2,5,-8
1514892791449960,7,-3,-1,-8,-3,-2,0,13
1514892791449960,1,-6,7,-2,-3,-1,-8,-29
1514892791453965,7,6,13,2,-1,-1,1,24
1514892791453965,-7,15,14,6,2,0,-3,-7
1514892791468470,8,-6,-13,-2,0,1,11,18
1514892791468470,-7,1,12,-6,-6,-3,-8,4
1514892791469962,-8,-1,-10,-1,-1,-1,-4,-3
1514892791469962,3,0,-5,7,1,0,-5,-19
1514892791491976,6,-2,4,4,0,0,3,7
1514892791491976,-23,-16,-20,-4,-2,-2,1,15
1514892791493487,-6,-5,18,-2,-1,-2,-2,-10
1514892791493487,3,0,-9,-6,-2,-1,-3,1
1514892791505496,-23,4,15,6,-1,-2,-3,-16
1514892791505496,18,-5,-20,1,3,4,4,4
1514892791512493,9,-18,-2,-4,-1,-2,-4,-1
1514892791512493,-25,0,-15,0,-2,-1,8,9
1514892791528518,-8,-17,1,-9,-3,-2,-7,-5
1514892791528518,10,9,18,4,0,1,-1,-12
1514892791530005,-5,12,11,4,1,1,5,6
1514892791530005,16,5,-17,-9,-6,-3,1,13
1514892791551022,-10,17,12,5,0,-1,0,1
1514892791551022,20,0,3,3,0,0,1,0
1514892791552530,13,0,-24,-18,-8,-5,-14,-12
1514892791552530,-26,-21,33,-1,0,0,-1,7
1514892791565538,11,-9,-11,-2,0,1,-2,-8
1514892791565538,-14,21,26,9,2,1,0,-2
1514892791573044,3,-11,-18,15,4,0,-6,-2
1514892791573044,25,-24,1,-16,-6,-4,-7,-8
1514892791588547,-28,0,-1,9,-3,-1,2,7
1514892791588547,5,4,-8,-15,-1,-1,4,10
1514892791590046,-9,-5,16,-3,-5,-4,0,-18
1514892791590046,-11,16,4,4,2,0,-7,1
1514892791611079,9,-16,2,-4,-4,-5,2,7
1514892791611079,9,0,-14,-9,-3,-3,0,10
1514892791614563,-43,-39,5,-3,-2,-1,-4,-18
1514892791614563,22,0,19,1,1,0,0,-2
1514892791624591,6,23,-9,7,1,3,6,-2
1514892791624591,-38,-22,7,3,-5,-7,-13,-10
1514892791633578,19,14,-3,-14,-2,-2,7,16
1514892791633578,13,25,-15,3,1,0,2,6
1514892791648588,-39,-39,-26,-21,-9,-8,-11,-13
1514892791648588,10,21,23,9,4,3,4,-4
1514892791650089,14,34,19,12,5,2,7,6
1514892791650089,12,-26,20,8,3,3,9,9
1514892791670604,-6,23,-6,2,2,3,-8,-31
1514892791670604,-8,-20,-27,-3,-2,3,6,0
1514892791677117,-6,2,15,12,1,-5,-11,-4
1514892791677117,6,15,-21,-19,-6,-2,-1,-2
1514892791684622,8,-28,-5,-20,-4,0,7,9
1514892791684622,29,7,20,12,3,1,-16,-31
1514892791693619,-22,28,26,4,1,4,16,37
1514892791693619,-37,-18,-58,3,0,-4,-15,-18
1514892791708630,-20,-36,45,8,0,-4,-6,-24
1514892791708630,50,24,-37,-11,-3,0,4,38
1514892791711132,23,15,14,-3,-2,-4,-18,-17
1514892791711132,-7,-17,-34,-7,-6,-5,3,22
1514892791731150,19,37,13,8,4,1,-1,4
1514892791731150,-21,-60,-29,-2,-5,-3,17,27
1514892791733647,-9,32,2,-8,-1,0,-21,-75
1514892791733647,31,18,-20,-2,-1,-2,0,26
1514892791744665,-8,-20,9,1,-4,-6,-20,-9
1514892791744665,-39,-6,-38,5,-1,-4,0,-9
1514892791753662,8,-22,4,-2,-1,2,16,25
1514892791753662,-18,17,14,-1,-4,-2,-10,-9
1514892791768673,-2,9,-24,-6,1,1,-1,-21
1514892791768673,-3,2,31,1,1,1,-5,24
1514892791770174,-5,-14,-43,-8,-4,-5,12,30
1514892791770174,-1,24,46,11,4,0,-8,-41
1514892791791689,-8,-18,-8,-2,0,7,19,21
1514892791791689,-15,-5,-9,-9,-5,-3,2,-21
1514892791795695,-6,-4,29,-6,1,1,-10,-2
1514892791795695,22,-6,-9,3,-1,0,5,-6
1514892791804698,8,-6,-48,3,1,-2,10,22
1514892791804698,-16,-4,-32,-25,-8,-6,-21,-19
1514892791813708,-2,-27,4,9,0,1,18,34
1514892791813708,-16,-10,11,-4,-2,-1,-13,-48
1514892791828715,25,26,38,1,2,1,-18,3
1514892791828715,-14,19,-1,2,-2,-3,-7,-27
1514892791830217,-2,-6,16,-9,-1,1,6,27
1514892791830217,-23,-11,8,1,-2,0,2,-17
1514892791850730,6,-15,-26,-4,-2,-1,3,22
1514892791850730,8,24,73,5,1,-4,9,8
1514892791852741,-17,0,-33,-9,-4,-4,-20,-41
1514892791852741,-7,-10,8,1,-2,-2,11,15
1514892791864757,-17,-14,13,11,1,1,-9,5
1514892791864757,14,0,-35,-19,-5,-2,-6,-7
1514892791874747,-5,-10,-13,-1,-1,0,6,-9
1514892791874747,-15,-8,-13,-1,-3,-2,-3,1
1514892791890258,15,-1,-13,7,-2,-4,-5,-23
1514892791890258,8,10,66,-2,-1,0,15,28
1514892791891759,7,12,-58,-1,-2,0,-1,5
1514892791891759,35,16,14,2,-2,-4,-7,6
1514892791912274,-17,-10,33,-17,-3,-1,-6,-33
1514892791912274,22,-17,-77,-1,-1,-1,13,23
1514892791915776,0,1,29,7,4,2,-3,3
1514892791915776,-5,27,-9,-2,-1,-3,2,2
1514892791924782,-7,-22,-7,-1,-6,-6,-1,-5
1514892791924782,3,18,35,7,2,2,1,0
1514892791933802,23,0,-31,-1,-2,-3,1,-7
1514892791933802,-1,-13,43,14,2,6,23,41
1514892791955805,-1,-8,-42,-26,-3,-2,-19,-29
1514892791955805,-18,-18,-31,-2,1,3,-14,8
1514892791957806,17,-11,33,4,-2,-3,-10,-30
1514892791957806,11,30,-3,-2,0,-2,-3,47
1514892791971828,-1,-8,-30,2,-1,0,8,2
1514892791971828,11,-29,-7,2,-3,-3,2,-18
1514892791973316,-25,23,13,1,0,-1,10,52
1514892791973316,2,-8,-29,-4,1,3,-1,-43
1514892791984837,16,0,17,11,1,-2,-1,6
1514892791984837,-8,19,0,-18,-7,-5,-9,-21
1514892791999845,1,20,-8,11,1,3,13,9
1514892791999845,-16,-44,-18,-7,1,-1,-4,-10
1514892792008341,-20,37,-18,-7,-7,-7,-2,-4
1514892792008341,-7,3,40,36,10,4,1,14
1514892792010343,-2,-23,-50,-27,-7,-2,13,-39
1514892792010343,-8,-8,7,-10,-3,1,-7,18
1514892792030868,10,8,-7,-1,1,3,6,20
1514892792030868,-3,-19,27,-2,0,0,-14,-53
1514892792032359,-12,10,14,6,-2,-5,-6,9
1514892792032359,20,-9,-24,10,2,-2,3,3
1514892792053383,-23,9,13,-7,-4,-2,1,-2
1514892792053383,6,-2,34,13,8,6,19,17
1514892792054875,2,-13,-41,-18,-4,-2,-14,-10
1514892792054875,-4,8,23,4,0,-1,-8,-24
1514892792068396,4,-3,7,-6,-1,-1,15,66
1514892792068396,15,-8,-21,6,0,-1,-10,-35
1514892792069886,29,2,-2,-9,-2,-2,5,-3
1514892792069886,12,-4,5,1,-1,1,11,8
1514892792089899,-6,1,3,10,0,-1,-20,-22
1514892792089899,23,-21,-33,-20,-3,0,13,37
1514892792099406,-28,-2,23,15,1,-1,-16,-30
1514892792099406,1,22,16,1,2,-3,-7,11
1514892792112928,11,4,0,-3,-3,-1,6,-29
1514892792112928,1,-26,-55,7,-1,-5,-10,1
1514892792113919,-1,-2,6,-17,-5,-4,9,23
1514892792113919,-1,-4,-12,-10,-4,-4,-13,-23
1514892792129430,-8,-1,23,14,8,4,-6,-6
1514892792129430,-20,-1,7,-9,-8,-5,-1,-19
1514892792130431,10,21,29,20,7,3,0,20
1514892792130431,-22,-8,-34,-16,-8,-5,6,-2
1514892792150446,12,-16,3,-1,2,0,-9,-15
1514892792150446,-3,20,-9,6,-2,-3,-1,2
1514892792150942,30,3,-14,-7,-3,-3,-13,9
1514892792150942,-29,22,3,-9,1,4,8,2
1514892792172975,19,-22,9,-2,-2,-3,4,9
1514892792172975,-5,0,-18,-14,-3,-4,-3,-14
1514892792173470,-22,-30,9,13,2,0,-8,16
1514892792173470,15,15,3,13,0,-4,-10,-33
1514892792189489,1,9,-15,-18,-2,2,18,32
1514892792189489,4,1,6,1,1,1,-10,2
1514892792189971,-5,-29,-19,-21,-8,-4,-1,7
1514892792189971,17,-2,22,13,3,1,1,-23
1514892792211000,-3,6,8,3,2,1,4,-5
1514892792211000,19,-5,2,10,4,4,7,9
1514892792212987,-7,9,-19,-5,-1,-3,-7,-23
1514892792212987,-6,-8,-29,-3,0,1,-1,10
1514892792233000,-23,-12,-3,8,1,-3,-7,-9
1514892792233000,-35,-9,5,-13,-6,-5,3,48
1514892792234001,6,20,31,15,4,3,-10,-69
1514892792234001,7,5,38,12,5,2,8,21
1514892792247511,12,9,-13,-14,-9,-6,0,-12
1514892792247511,-38,-23,-5,9,3,3,-9,0
1514892792248511,-16,19,35,-5,-3,-6,-6,-21
1514892792248511,28,6,-29,-8,-1,-1,4,49
1514892792270538,-24,2,-5,17,4,2,7,-14
1514892792270538,-13,-4,20,-8,-2,0,-12,2
1514892792272028,8,-27,-68,3,-3,0,16,51
1514892792272028,-18,-14,26,2,-1,-2,-13,-72
1514892792293055,32,-4,-1,-13,-3,-2,-3,38
1514892792293055,-8,10,48,19,0,0,2,-19
1514892792294056,-27,-12,-73,-14,-3,0,-2,-4
1514892792294056,-6,-3,-5,-34,-7,-4,5,13
1514892792307563,-7,10,-6,-2,-6,-3,3,15
1514892792307563,-10,2,8,8,3,1,11,-9
1514892792308564,-10,-14,36,6,-6,-16,-31,-35
1514892792308564,21,14,-19,13,2,2,19,14
1514892792330070,-22,-8,38,13,1,-1,-23,-28
1514892792330070,12,23,-8,-28,-5,-7,-21,-17
1514892792331081,10,10,4,13,5,5,11,-1
1514892792331081,13,-7,-15,-16,-6,-3,0,35
1514892792352594,-5,0,35,9,2,-1,3,5
1514892792352594,16,18,-8,14,2,-1,-10,-9
1514892792353585,13,-30,-28,-21,-3,0,0,12
1514892792353585,-43,3,25,7,-1,-2,-11,-12
1514892792367605,28,5,-37,1,2,4,3,3
1514892792367605,2,4,32,-18,-1,0,12,47
1514892792375101,12,13,7,2,0,-3,-9,-42
1514892792375101,-15,0,13,12,3,2,2,0
1514892792390624,4,-16,-38,-15,-8,-6,6,-2
1514892792390624,6,-15,-10,11,1,-1,6,-8
1514892792391124,-35,9,-8,-20,-8,-4,2,16
1514892792391124,2,19,41,4,1,-2,-7,-17
1514892792412638,17,12,-46,-17,-5,-5,-11,-1
1514892792412638,-11,-39,-18,1,0,3,34,47
1514892792413631,12,28,27,14,5,1,-18,-25
1514892792413631,29,-20,-18,-6,-7,-4,-15,2
1514892792428649,-36,10,51,5,3,-2,-2,-27
1514892792428649,-9,-15,-38,-14,-3,-3,-6,-9
1514892792430140,-15,34,46,15,5,5,14,22
1514892792430140,14,-8,-59,-31,-14,-8,2,-18
1514892792450153,20,-8,44,-2,5,3,4,21
1514892792450153,-28,-38,-77,-9,-3,2,5,4
1514892792451154,11,6,30,3,-2,-2,-2,-32
1514892792451154,-43,-12,19,16,3,-2,-1,-4
1514892792481176,-22,7,-32,-13,-3,-1,-4,9
1514892792481176,-1,-16,40,14,3,-1,-4,-27
1514892792481676,24,-4,-22,-8,-1,0,9,42
1514892792481676,22,-14,8,3,1,4,4,24
1514892792487680,-32,23,-25,-9,-7,-3,-9,-32
1514892792487680,-1,14,7,-9,-2,-3,-13,-13
1514892792488681,4,-8,-7,8,5,7,13,16
1514892792488681,-17,14,49,15,4,0,4,-13
1514892792510708,14,-14,-8,6,0,-8,-19,-10
1514892792510708,24,5,-34,-13,-8,-5,-5,-23
1514892792511706,-1,18,52,4,-1,-1,10,17
1514892792511706,20,7,-64,-12,-2,1,-6,34
1514892792532713,-20,-12,33,1,-1,-1,2,-22
1514892792532713,4,-26,-22,6,5,2,5,26
1514892792533714,9,18,43,-3,0,-1,-21,-27
1514892792533714,-23,-8,-40,-11,-4,1,10,39
1514892792547723,14,-20,34,17,4,-1,-3,-37
1514892792547723,6,28,-10,-17,-5,-3,3,10
1514892792548724,-14,-13,-13,0,1,1,2,-4
1514892792548724,14,1,-28,-8,-4,-1,9,9
1514892792570238,-6,-16,17,11,3,4,0,-16
1514892792570238,16,17,18,12,2,1,4,13
1514892792571239,25,-12,46,9,2,1,7,14
1514892792571239,-7,-8,-4,-19,-9,-10,-18,-34
1514892792592754,5,-2,1,9,2,3,9,26
1514892792592754,0,4,27,3,2,2,7,-20
1514892792593755,1,27,-30,-3,-5,-4,-12,20
1514892792593755,22,-9,54,12,7,5,2,2
1514892792608266,-8,-3,-40,-14,-5,-4,7,10
1514892792608266,9,40,29,18,1,-2,-26,-19
1514892792609267,-36,-50,-68,-38,-11,-5,10,23
1514892792609267,-16,5,21,-5,0,-3,-12,-30
1514892792630281,-20,23,17,1,0,-2,4,-27
1514892792630281,16,-19,-28,-13,-1,-2,-12,2
1514892792631282,-16,-20,16,20,5,2,-4,-14
1514892792631282,8,11,-36,-12,-6,-7,3,-7
1514892792652808,20,13,-4,15,4,5,12,60
1514892792652808,-30,-43,36,-16,-4,-3,-5,-24
1514892792653813,11,31,-26,-3,-1,-4,-11,-23
1514892792653813,-16,-38,-3,19,5,3,1,1
1514892792675827,17,8,-25,-23,-7,-1,0,4
1514892792675827,-19,-13,11,14,4,2,13,12
1514892792676815,30,8,-25,-9,-5,-4,-4,-24
1514892792676815,6,35,-43,-1,1,-1,-9,-16
1514892792690333,-11,-49,31,7,-1,-1,8,7
1514892792690333,17,-2,-25,-11,-7,-3,-2,-7
1514892792691339,-3,16,20,3,-1,3,2,14
1514892792691339,6,5,-9,8,1,-3,-19,-27
1514892792712840,17,14,47,0,2,5,4,11
1514892792712840,48,16,-16,1,-3,0,8,40
1514892792713352,40,-7,0,11,2,3,0,-23
1514892792713352,-21,-11,-9,-27,-7,-5,-19,-14
1514892792727349,-10,-6,-35,0,2,1,9,-13
1514892792727349,8,24,48,10,3,4,8,28
1514892792734854,-1,-10,-28,-4,-2,-2,-21,-7
1514892792734854,-6,-34,27,16,5,6,14,-2
1514892792758383,13,-3,26,-1,1,-1,-1,38
1514892792758383,-5,1,-79,-8,-9,-11,-15,-68
1514892792759385,-53,-4,77,-6,3,4,24,7
1514892792759385,-11,-16,-86,-6,-4,-5,-3,-11
1514892792788945,24,22,71,-5,-1,-1,-3,20
1514892792788945,-46,-20,-73,-5,-7,-7,-10,-28
1514892792789946,-3,-4,32,-18,-3,-2,8,44
1514892792789946,-17,-6,-29,-24,-6,2,8,-24
1514892792791437,26,8,-23,-3,-3,-5,-20,4
1514892792791437,-29,22,43,21,6,2,5,-23
1514892792795451,-34,-15,-21,-7,-1,-3,-22,-6
1514892792795451,-29,13,57,20,3,3,14,23
1514892792810460,-42,-6,-54,-3,-7,-11,-19,-43
1514892792810460,49,11,37,-20,-3,4,2,27
1514892792810961,-37,-30,-49,-3,-5,-10,-8,-15
1514892792810961,-8,28,32,2,-2,-2,3,25
1514892792832976,-37,4,18,17,5,3,6,26
1514892792832976,3,12,36,-1,0,3,-1,-20
1514892792833477,6,-9,17,31,8,5,4,12
1514892792833477,-22,-2,-55,-26,-7,-4,-18,-14
1514892792846977,34,-17,-7,-10,0,0,13,17
1514892792846977,-13,-19,-30,-16,-2,-3,-18,21
1514892792855482,-9,-8,6,8,3,-1,-4,-36
1514892792855482,48,53,8,12,1,-2,-6,9
1514892792870494,-38,-59,-28,-16,-11,-1,2,29
1514892792870494,-2,24,54,18,7,-4,-12,-14
1514892792872028,34,41,44,14,2,1,5,3
1514892792872028,-30,-37,-39,-9,0,0,19,15
1514892792893009,22,6,-24,-8,-2,-3,-19,-43
1514892792893009,-24,-14,-41,8,-1,-3,0,-11
1514892792893509,4,-12,-26,-23,-8,-4,17,28
1514892792893509,-14,21,64,16,6,4,0,-25
1514892792907029,23,-25,-27,-19,-9,-5,0,4
1514892792907029,-13,23,4,2,3,1,8,-12
1514892792915524,22,-5,-34,-5,-5,-5,-7,9
1514892792915524,41,25,46,22,4,7,6,4
1514892792930039,-84,-36,-13,11,2,-2,1,-6
1514892792930039,28,-4,5,-6,-2,-4,-8,-28
1514892792931037,-28,-11,-3,-1,-5,2,20,30
1514892792931037,16,-6,-18,-26,-5,-6,-15,-6
1514892792952560,23,40,7,8,6,2,-10,-2
1514892792952560,-18,-41,-14,6,1,4,8,-2
1514892792953567,-1,-21,-17,-18,-7,-6,-20,-13
1514892792953567,26,1,43,13,6,3,9,9
1514892792967061,-9,3,-37,-12,-6,-5,1,-22
1514892792967061,-10,-13,-20,-15,-6,0,-2,-1
1514892792976068,37,4,-31,-6,0,-1,3,-13
1514892792976068,-3,2,28,7,4,4,7,6
1514892792990590,13,10,21,25,5,1,-6,-5
1514892792990590,3,-4,-15,-26,-5,2,13,22
1514892792992080,-60,-4,20,11,3,3,-9,-37
1514892792992080,27,16,11,23,3,0,-3,30
1514892793021114,4,-3,9,-34,-7,1,7,-15
1514892793021114,-3,25,33,20,6,2,17,40
1514892793021601,-23,-10,-44,-11,0,-3,-19,-36
1514892793021601,17,-31,12,3,-3,-3,6,15
1514892793035627,31,30,41,6,3,2,14,38
1514892793035627,-14,-27,-60,-12,-8,-11,-43,-35
1514892793036623,31,19,35,7,5,2,8,56
1514892793036623,-29,-17,-14,-1,-6,-10,-18,-42
1514892793050129,29,26,6,-14,-4,0,4,-14
1514892793050129,-21,-6,-2,-4,-2,0,7,11
1514892793051121,16,16,21,27,8,6,13,8
1514892793051121,-4,-5,-3,-12,-5,-3,-15,-5
1514892793072645,-9,35,57,39,9,5,19,30
1514892793072645,23,-1,5,-10,-2,-1,-12,-13
1514892793073637,30,-7,-14,5,2,0,11,26
1514892793073637,-74,-22,0,-4,-3,-3,15,-6
1514892793103658,22,8,-22,-10,-1,0,-3,-11
1514892793103658,28,-11,45,29,4,1,-9,-16
1514892793104659,-7,19,-65,-9,-4,2,13,15
1514892793104659,16,10,-4,-18,-5,-1,5,31
1514892793110162,-12,-51,-22,-1,-3,-6,-15,-25
1514892793110162,6,10,23,10,-2,-2,10,2
1514892793111176,27,14,9,-12,-4,-1,1,-39
1514892793111176,-31,3,-28,-12,-3,3,15,-2
1514892793132679,27,-9,-14,5,0,-2,-17,-6
1514892793132679,-26,-2,23,-3,-3,-3,0,-21
1514892793133680,8,-11,4,11,0,3,0,4
1514892793133680,21,6,13,-12,-7,-6,15,6
1514892793156195,13,3,-60,-7,-3,0,-4,-14
1514892793156195,-21,3,30,24,2,3,10,59
1514892793156696,10,-7,-74,-39,-9,-9,-28,-23
1514892793156696,-24,-16,16,-5,0,-1,-11,-33
1514892793170217,-9,10,35,34,2,0,17,9
1514892793170217,-7,-23,-22,-40,-6,0,-5,-14
1514892793171218,7,37,19,25,2,-1,2,22
1514892793171218,48,-18,-81,-23,-7,-6,-18,3
1514892793192732,-22,-4,10,-6,-3,1,-13,-19
1514892793192732,-25,19,-19,30,4,-2,0,1
1514892793193733,3,-19,32,-25,-5,-3,1,-23
1514892793193733,20,-10,-31,-2,-4,-6,-12,0
1514892793215746,-39,-1,52,18,2,-3,-7,-3
1514892793215746,9,32,-73,-40,-8,-1,17,35
1514892793216759,-41,-78,14,12,-1,-4,-7,3
1514892793216759,12,15,56,-3,7,9,-2,-31
1514892793231259,18,-24,-48,-17,-6,-5,-7,0
1514892793231259,-20,36,58,7,5,4,-5,10
1514892793233251,11,33,-36,-14,-7,-8,-11,-47
1514892793233251,-32,-9,-9,9,0,0,-17,24
1514892793252763,1,-14,-16,6,1,2,-3,-10
1514892793252763,15,-2,35,1,-2,-3,-7,-5
1514892793253764,19,-1,23,-4,2,4,3,7
1514892793253764,-12,8,44,14,0,-1,2,-21
1514892793284801,-7,10,-44,-38,-6,-2,9,5
1514892793284801,20,-15,5,17,1,-2,-1,2
1514892793285302,-64,17,24,17,5,4,17,-7
1514892793285302,16,7,9,9,-5,-9,5,8
1514892793290304,-23,-29,-39,-17,-1,0,-14,-7
1514892793290304,-30,29,-27,10,1,2,12,-22
1514892793290791,63,31,51,12,-2,-4,-12,31
1514892793290791,-44,-25,-27,-19,4,4,4,4
1514892793313317,4,6,-11,-3,-4,-4,4,22
1514892793313317,-12,-31,33,14,1,-5,-12,-25
1514892793314307,-12,18,-67,-26,-7,0,11,11
1514892793314307,-21,-1,-9,7,-3,-4,-22,-14
1514892793344343,3,20,75,-13,-3,0,-1,8
1514892793344343,27,-5,4,-6,-4,-1,17,61
1514892793345830,-47,-54,15,7,1,-7,-33,-81
1514892793345830,26,18,3,-2,-2,1,28,66
1514892793350332,-13,-37,-23,-7,0,-3,-53,-103
1514892793350332,18,-3,-12,-7,-3,-1,-3,44
1514892793350832,-7,17,39,4,-1,-3,11,13
1514892793350832,-9,4,-29,0,0,-2,0,1
1514892793372860,10,13,23,-2,4,6,24,58
1514892793372860,14,5,45,8,4,0,-15,-57
1514892793373858,-2,-9,-56,-22,-12,-7,-15,24
1514892793373858,-7,2,53,15,5,4,2,-12
1514892793395875,8,3,-30,4,-6,-7,7,16
1514892793395875,-3,8,5,24,7,5,-4,-16
1514892793396878,-6,1,-48,-45,-7,2,17,19
1514892793396878,27,-3,-37,4,-6,-8,-16,-22
1514892793410384,-43,-8,5,-25,-4,-2,7,-6
1514892793410384,79,17,17,7,2,2,3,-18
1514892793410890,-26,-23,4,28,1,-5,-16,-36
1514892793410890,24,45,7,-19,2,7,17,25
1514892793432902,-7,-38,-54,-7,-7,-8,1,7
1514892793432902,-56,-24,-9,-7,-4,-5,-25,-30
1514892793433408,23,15,35,-7,5,6,30,57
1514892793433408,19,-1,35,11,6,5,-12,-24
1514892793455916,-15,17,21,11,-2,-1,8,-2
1514892793455916,-60,-4,-11,-18,-1,-3,3,-14
1514892793456917,-3,-12,12,24,4,1,1,6
1514892793456917,-40,-34,-15,-6,-6,-9,-7,-30
1514892793470429,41,3,-57,-14,2,8,19,19
1514892793470429,9,23,47,-9,-3,2,26,42
1514892793471930,-1,-9,-46,5,1,0,0,12
1514892793471930,-37,-14,-12,20,0,1,-8,-41
1514892793492935,-16,30,58,17,0,-1,0,1
1514892793492935,-4,-38,-95,-46,-7,-6,-6,-16
1514892793493448,5,-2,61,12,0,-1,-25,-19
1514892793493448,22,8,17,6,4,6,25,59
1514892793515959,11,-6,-11,-24,-3,-2,4,-19
1514892793515959,-10,0,27,21,3,0,-2,29
1514892793516951,6,9,34,10,2,1,-12,-64
1514892793516951,22,-26,-53,15,-2,-2,-11,19
1514892793530471,33,15,24,-8,4,4,-1,0
1514892793530471,28,-26,-44,-13,-6,-4,0,5
1514892793530970,-13,-13,-30,3,0,-1,5,7
1514892793530970,-11,18,21,12,-5,-5,-6,-6
1514892793552976,-8,-18,3,-5,-3,-1,-6,-23
1514892793552976,4,-19,-15,10,2,2,5,15
1514892793553488,-1,10,-18,-5,1,-1,-1,-20
1514892793553488,20,28,3,-27,-10,-5,-5,-8
1514892793575992,-61,-36,0,33,7,1,-2,24
1514892793575992,-4,10,-4,-26,-9,-6,-7,-15
1514892793576491,23,31,46,12,-2,-1,11,-22
1514892793576491,-30,-47,-6,-8,4,1,-10,-1
1514892793590502,22,-2,-71,15,-6,-8,-8,-39
1514892793590502,-1,25,12,-16,-6,-4,-8,3
1514892793591503,15,25,5,-1,0,2,18,49
1514892793591503,-12,-2,-34,-22,-5,-4,-10,-14
1514892793621024,26,-3,57,24,4,0,-9,7
1514892793621024,23,-15,-9,46,10,3,7,2
1514892793622525,-35,2,-76,-56,-16,-6,-4,6
1514892793622525,30,-23,-18,22,7,4,2,-6
1514892793636034,14,33,41,-3,-8,-6,2,78
1514892793636034,-26,-8,-23,-8,-3,0,-23,-94
1514892793636534,11,38,63,17,7,0,-5,-4
1514892793636534,11,1,-31,7,4,1,11,5
1514892793649544,-18,-17,-70,-5,-5,-6,12,22
1514892793649544,-10,6,28,-11,0,4,2,24
1514892793657549,20,-24,-52,-6,-6,-5,-35,-35
1514892793657549,-8,41,38,2,-1,-3,5,2
1514892793672560,9,-12,-18,-5,-2,-3,10,41
1514892793672560,2,-26,-28,-21,-7,-7,-4,-2
1514892793673561,-62,-34,46,-20,-3,-1,4,14
1514892793673561,2,14,83,11,3,4,1,7
1514892793696079,21,30,17,25,9,3,-5,-39
1514892793696079,-3,13,6,-14,1,5,9,-3
1514892793697080,9,-15,-12,-7,-5,-7,-9,4
1514892793697080,76,8,2,-19,-2,-2,10,13
1514892793709586,-57,-25,-3,-8,6,6,3,-18
1514892793709586,6,18,59,20,-2,-6,-10,-10
1514892793717595,60,6,-69,10,6,5,14,77
1514892793717595,-69,-7,-7,5,-1,-2,-3,-57
1514892793741108,5,-18,51,12,-3,-4,-16,13
1514892793741108,53,-5,-34,-62,-6,1,18,9
1514892793741608,7,12,3,2,-1,-4,-5,11
1514892793741608,-40,-25,12,5,-2,-4,-7,-3
1514892793756131,-22,-4,-2,-21,-2,4,5,-19
1514892793756131,-12,44,68,44,4,-3,-16,-25
1514892793756631,-14,-22,-11,17,-3,1,11,-11
1514892793756631,7,4,-42,-35,-7,-4,-7,-24
1514892793778144,-45,-12,-5,6,6,7,33,32
1514892793778144,-13,-16,-57,11,-3,-6,-39,-34
1514892793779136,-20,-30,-7,-29,-8,-5,4,4
1514892793779136,21,10,80,53,10,1,-2,18
1514892793792646,55,20,-62,-51,-10,-3,-18,-18
1514892793792646,-11,-10,14,-11,-7,-5,-3,8
1514892793794656,3,22,37,12,3,-1,3,3
1514892793794656,-63,-22,-9,2,1,1,-12,-31
1514892793816174,37,30,1,-16,-3,-3,7,8
1514892793816174,29,13,-1,18,6,5,-3,14
1514892793816663,-43,5,56,10,1,-1,-10,-20
1514892793816663,25,14,-58,-7,-5,-5,5,36
1514892793829672,20,-16,5,-15,-5,-2,-6,-9
1514892793829672,-69,-4,-13,20,6,5,6,9
1514892793837677,-19,-3,31,9,0,0,-3,-21
1514892793837677,49,13,26,0,1,4,18,31
1514892793852697,-54,-42,-17,10,-3,-9,-29,-32
1514892793852697,6,3,-32,-15,-10,-6,8,15
1514892793853697,31,48,30,20,8,6,-1,11
1514892793853697,14,-30,-38,-41,-10,-3,-6,23
1514892793875715,-46,-26,-15,8,-1,-4,-12,-75
1514892793875715,20,23,65,26,4,3,25,40
1514892793876716,-8,7,-51,-6,-1,-3,-20,-32
1514892793876716,4,-24,19,-30,-6,-3,-6,0
1514892793890224,20,2,-12,-9,-3,-4,3,13
1514892793890224,-19,1,-47,-5,0,4,5,-4
1514892793897724,-2,-14,17,-10,1,4,14,2
1514892793897724,-1,0,-37,-12,-10,-10,-25,-15
1514892793912744,40,39,54,28,8,2,7,-41
1514892793912744,-32,1,-25,-3,-4,-8,-4,15
1514892793914231,0,-42,-21,-15,-6,-4,-9,1
1514892793914231,-19,3,52,48,11,3,-1,-2
1514892793943251,20,17,24,-6,4,6,26,34
1514892793943251,21,-19,-12,-9,-6,-4,-5,-2
1514892793945262,-5,-6,-46,-11,-3,-6,-22,-71
1514892793945262,1,-7,27,-17,-3,-1,9,44
1514892793958271,-33,3,65,43,5,1,-2,-11
1514892793958271,-32,12,-5,-16,-1,-2,-15,-43
1514892793959272,32,15,-14,-6,-3,-4,0,73
1514892793959272,-26,-37,-4,0,1,5,4,-42
1514892793973273,42,4,-19,-5,2,7,-1,14
1514892793973273,51,1,7,5,-3,-3,15,12
1514892793974273,8,-3,19,6,2,5,11,4
1514892793974273,-38,12,26,-6,-3,-5,-21,-38
1514892793995842,-23,-2,-49,-25,-12,-8,-14,-7
1514892793995842,33,-12,1,-2,0,2,8,25
1514892793996821,-14,30,39,64,14,6,14,-13
1514892793996821,11,5,-98,-49,-13,-5,39,94
1514892794018337,-19,-19,10,-6,1,0,-36,-101
1514892794018337,1,-3,31,4,3,-2,-4,12
1514892794020353,4,31,56,-7,-6,-2,6,16
1514892794020353,-45,-49,-85,4,-5,-5,-10,-27
1514892794032856,71,52,59,18,7,4,15,33
1514892794032856,-5,-13,-70,-9,-3,0,4,-7
1514892794033362,-7,-10,-48,-15,-7,-4,-6,26
1514892794033362,-23,21,76,1,2,2,-2,22
1514892794055863,35,-18,-19,-5,-7,-6,-12,-30
1514892794055863,6,5,41,18,11,8,-3,-9
1514892794056864,-3,17,-10,-29,-7,-6,-7,-14
1514892794056864,13,-1,-11,-26,-9,-6,-3,-12
1514892794078393,-23,-60,-40,-14,-4,-4,-4,-8
1514892794078393,-22,4,15,16,5,2,12,-57
1514892794079379,-5,12,24,16,-3,-3,-23,-9
1514892794079379,24,46,64,35,14,6,-2,-33
1514892794092901,-44,-21,14,-29,-8,-2,1,22
1514892794092901,12,-15,-79,-45,-14,-5,13,57
1514892794093404,-48,-39,28,-13,-6,-3,-7,-34
1514892794093404,101,16,-43,9,4,4,4,-9
1514892794116906,32,25,33,17,5,1,-7,-8
1514892794116906,-40,15,82,28,11,6,8,42
1514892794118907,-4,-16,-92,-51,-14,-5,15,10
1514892794118907,1,-42,31,4,0,-2,-14,6
1514892794137432,-52,-12,-2,9,0,-6,-11,-11
1514892794137432,33,-15,-54,1,-9,-8,-5,-17
1514892794145432,35,5,6,23,4,3,5,-16
1514892794145432,-27,8,-32,-28,-5,1,16,5
1514892794152440,48,29,31,28,5,0,-7,36
1514892794152440,29,-23,-41,-32,-5,-7,-12,2
1514892794160447,5,-4,-6,0,-5,-3,14,44
1514892794160447,-21,37,42,-17,-6,-9,-8,-12
1514892794176461,-30,2,-7,7,3,0,20,-8
1514892794176461,-26,-9,67,40,4,1,-10,16
1514892794176950,18,-32,-82,-25,-7,-7,-1,-32
1514892794176950,23,-14,-57,-5,-1,1,5,35
1514892794198475,-22,-19,-17,-19,-6,-3,8,50
1514892794198475,-25,17,44,-4,-1,-4,-34,-63
1514892794199464,-1,-28,-13,-7,5,10,5,-22
1514892794199464,36,23,66,46,7,3,-1,-5
1514892794211973,-47,-5,-28,-28,-11,-9,-5,4
1514892794211973,12,17,12,2,-4,-3,3,-11
1514892794223490,-2,-18,-31,-19,0,0,-17,-48
1514892794223490,-16,-17,56,17,5,2,-3,35
1514892794235999,32,20,-60,9,-2,-3,-10,-9
1514892794235999,17,-10,33,-13,-5,4,15,-10
1514892794237501,1,8,61,18,4,0,8,39
1514892794237501,-10,-17,-21,1,-1,-5,-9,-2
1514892794258520,44,-19,-4,15,2,2,9,-3
1514892794258520,-39,-19,-71,-26,-10,-10,-4,-27
1514892794260017,-10,29,96,-20,-4,0,16,29
1514892794260017,-25,-21,-103,10,-4,-4,-24,-79
1514892794272014,-19,33,96,3,7,12,32,43
1514892794272014,23,-9,-85,5,0,2,8,30
1514892794281028,-4,-3,14,3,2,2,-2,14
1514892794281028,-11,-12,-11,20,2,0,-12,-35
1514892794296038,-40,-29,-4,-26,-4,0,14,50
1514892794296038,-4,29,70,22,-2,-3,-17,-24
1514892794297533,39,22,-54,-15,-4,0,30,51
1514892794297533,-30,-20,-3,-12,0,0,-20,24
1514892794318548,39,25,36,52,13,3,-9,-29
1514892794318548,-13,-15,-55,-39,-11,-9,-16,-40
1514892794322051,6,12,-24,-11,-1,-2,-10,-16
1514892794322051,55,32,12,-16,0,6,37,42
1514892794332058,-62,-74,-52,4,-3,-4,-18,-24
1514892794332058,21,30,64,-3,7,6,19,24
1514892794341065,-8,2,-10,16,-1,0,-12,-28
1514892794341065,-29,-28,67,-13,-5,-9,5,-30
1514892794356084,9,24,-84,-1,-12,-11,-4,-3
1514892794356084,-9,11,66,-1,2,4,0,20
1514892794357586,17,-18,-91,1,0,-1,-3,35
1514892794357586,0,16,33,3,-3,-5,-22,-55
1514892794378600,19,-3,18,4,-2,-1,1,3
1514892794378600,-14,6,-3,11,1,-3,-2,10
1514892794380094,-28,-17,53,-3,0,-6,-15,8
1514892794380094,-21,15,38,33,4,2,5,-29
1514892794392101,5,-10,-82,-61,-9,-1,1,29
1514892794392101,8,5,14,13,6,5,6,24
1514892794408622,-11,-5,-16,7,1,-5,-27,-43
1514892794408622,-25,-12,-14,11,1,2,13,23
1514892794423632,15,-6,72,5,7,10,22,9
1514892794423632,-1,37,-51,-4,-3,2,-5,-27
1514892794425133,-29,-43,8,10,-6,-8,7,-20
1514892794425133,21,1,-25,8,1,7,6,30
1514892794438642,-13,2,65,32,6,1,-18,-12
1514892794438642,-4,-7,-15,-48,-14,-9,-6,6
1514892794440143,16,23,16,2,3,2,5,-23
1514892794440143,2,-4,-61,-47,-14,-8,-1,20
1514892794452653,-1,22,46,32,9,-1,-5,-36
1514892794452653,32,-2,-37,23,7,9,10,38
1514892794461159,-22,-29,-17,1,-3,-2,-10,-31
1514892794461159,26,-12,7,5,3,5,11,41
1514892794476671,8,56,-26,-23,-2,4,-2,2
1514892794476671,-19,-28,8,7,-4,-11,-14,-37
1514892794478175,23,27,-21,7,3,3,0,14
1514892794478175,8,-3,33,19,8,10,9,-33
1514892794498182,-24,-6,-48,-2,-8,-10,-4,53
1514892794498182,-7,-9,111,12,3,5,-5,-21
1514892794500186,-38,16,-34,11,0,-1,5,-35
1514892794500186,-5,-8,12,-34,-5,-5,2,14
1514892794513192,15,-4,-9,7,-3,2,19,17
1514892794513192,-45,11,-6,-32,-3,-4,-18,-19
1514892794521201,27,-32,-22,-20,-2,1,4,54
1514892794521201,12,63,32,-13,-5,-9,-18,-5
1514892794535711,2,-44,-36,33,-4,-5,-9,-95
1514892794535711,90,30,-12,-53,0,8,28,57
1514892794537712,-5,0,48,53,11,2,-6,-42
1514892794537712,32,-5,3,-16,-4,-5,15,79
1514892794558230,-1,3,38,19,-6,-3,-24,-71
1514892794558230,4,7,-47,24,5,5,16,14
1514892794560231,0,-7,4,-79,-16,-9,-11,-5
1514892794560231,-21,0,-46,60,15,7,-12,-11
1514892794572236,8,2,23,-40,4,-1,0,26
1514892794572236,-7,-11,-53,-7,-16,-8,9,-6
1514892794581238,-58,-8,15,-21,-13,-11,-20,-13
1514892794581238,0,-7,-35,7,3,10,26,15
1514892794595743,20,-16,37,1,6,-1,-12,10
1514892794595743,-53,7,2,23,2,0,-26,-74
1514892794597245,-18,0,-25,4,0,-1,8,-18
1514892794597245,-15,20,4,20,1,-1,-16,-23
1514892794619262,-38,-40,-12,-67,-1,2,15,26
1514892794619262,19,-6,38,10,-6,-8,-2,24
1514892794622780,29,5,-23,53,2,1,-8,12
1514892794622780,8,-15,-22,-52,-9,-11,-29,-56
1514892794632279,-26,31,2,45,11,10,9,5
1514892794632279,3,-19,-23,-21,-5,-4,3,-3
1514892794641275,-15,16,-7,25,1,-3,1,20
1514892794641275,-12,-27,30,20,7,3,18,15
1514892794655798,13,7,-4,-59,-16,-4,-2,-38
1514892794655798,-5,-13,2,-7,-2,-1,-2,71
1514892794657297,36,13,42,21,6,3,14,29
1514892794657297,4,-7,-18,-24,-4,-4,-25,-75
1514892794685808,-19,4,43,24,-5,-13,-8,43
1514892794685808,-1,-1,-29,-17,5,6,-5,-3
1514892794687310,-4,-14,-6,-10,6,4,-9,0
1514892794687310,36,38,5,40,2,3,24,97
1514892794700830,7,-2,23,-22,-5,0,5,-47
1514892794700830,31,16,16,47,10,1,-38,-66
1514892794702824,-37,6,31,-27,-6,-2,4,29
1514892794702824,-67,-39,-25,-11,-5,-3,-9,0
1514892794716830,66,-11,-28,10,2,1,0,-11
1514892794716830,24,14,16,20,3,-2,37,81
1514892794718331,-8,12,26,-1,-6,0,-14,-33
1514892794718331,-18,-28,-18,-57,-9,-6,-12,-50
1514892794738347,-29,-9,-40,7,1,3,8,41
1514892794738347,-24,-18,19,-29,-7,2,23,-19
1514892794739863,33,9,-19,0,-10,-9,-15,28
1514892794739863,19,24,11,52,8,3,2,-29
1514892794760860,21,-12,-56,-36,-1,2,-4,42
1514892794760860,11,-24,-43,-10,1,-3,-7,-59
1514892794762362,-15,0,26,11,4,5,13,3
1514892794762362,-21,22,19,-14,-6,-6,2,1
1514892794775880,3,-12,17,17,8,4,4,12
1514892794775880,15,-32,-25,-31,-10,-9,-33,-36
1514892794777373,-32,-6,31,21,4,-2,0,-3
1514892794777373,4,-23,-63,11,-5,-2,-21,-50
1514892794798398,-4,32,32,-34,-8,-8,4,4
1514892794798398,25,35,24,7,-2,-6,4,30
1514892794799889,-33,-34,-27,20,16,10,7,-26
1514892794799889,58,19,47,-13,-5,3,21,43
1514892794821404,-29,-6,-46,17,0,1,0,39
1514892794821404,12,18,7,31,7,2,1,-26
1514892794823906,-3,11,39,-66,-9,-6,-13,-26
1514892794823906,28,-14,-6,22,5,2,-2,-28
1514892794835915,-73,20,-2,-51,-15,-7,-16,-15
1514892794835915,-12,-24,-34,11,9,5,11,21
1514892794837416,37,33,55,36,-8,-7,6,27
1514892794837416,-9,-17,-13,-27,-6,-8,6,-1
1514892794858439,47,19,1,48,6,-1,0,37
1514892794858439,-54,-25,-84,-7,-1,-2,-16,-43
1514892794859941,66,35,78,-52,-1,2,17,36
1514892794859941,-14,-49,-45,-1,-4,1,-2,11
1514892794871940,-27,28,52,53,-1,-6,-28,-66
1514892794871940,-28,-15,2,-48,-13,-1,12,31
1514892794881447,-9,-52,-74,-28,-1,1,4,26
1514892794881447,-60,10,35,-4,3,-1,-2,-82
1514892794896458,28,-3,15,-1,-2,-4,-6,-14
1514892794896458,18,-12,-35,8,-1,0,3,17
1514892794897957,10,18,28,37,8,6,9,-28
1514892794897957,39,-24,-57,-30,-17,-14,-12,17
1514892794918479,-36,14,16,-2,3,3,12,26
1514892794918479,0,13,45,11,2,-1,-7,-2
1514892794919976,9,-14,-8,45,12,7,0,-9
1514892794919976,-3,9,36,-30,-3,3,25,30
1514892794940997,-13,-12,-10,-12,-4,-2,-15,-49
1514892794940997,-15,-7,-18,-18,-2,-1,2,83
1514892794942498,20,-6,-23,-7,-7,-3,-11,-69
1514892794942498,-45,-10,-17,32,-4,-2,-20,17
1514892794963504,11,-1,-51,4,1,-2,7,2
1514892794963504,-5,37,107,39,10,1,-3,-2
1514892794965005,9,-29,-105,-38,-12,-8,-8,2
1514892794965005,-31,-18,-22,-7,0,-2,-2,12
1514892794979025,36,10,16,1,0,3,-6,-52
1514892794979025,-19,19,-33,-10,-8,-4,-1,20
1514892794981018,-16,-16,30,15,8,2,5,-28
1514892794981018,54,16,-17,4,7,9,16,77
1514892795008546,14,-13,13,-25,-7,-3,7,19
1514892795008546,-18,-3,5,30,0,-4,-27,-47
1514892795010047,-15,11,-15,-33,-11,-6,-3,-16
1514892795010047,5,16,63,19,10,7,21,87
1514892795016551,17,-17,4,8,0,-1,-15,-18
1514892795016551,-11,7,-18,-16,-10,-5,2,-35
1514892795018043,20,35,-22,-45,-5,0,25,63
1514892795018043,22,-7,6,18,0,-7,-36,-20
1514892795038567,-25,-10,-12,-9,4,4,24,28
1514892795038567,-19,-17,27,-8,-10,-8,1,4
1514892795040068,-5,10,12,37,1,-2,-31,-29
1514892795040068,10,13,35,-2,-2,-2,26,41
1514892795061096,-4,-2,1,15,2,-1,-26,-26
1514892795061096,5,12,-1,-67,-4,2,0,-1
1514892795062573,-6,-37,15,44,4,-1,7,-42
1514892795062573,5,-6,23,-32,-8,-4,-3,6
1514892795083592,-26,27,-46,8,1,-3,-6,-36
1514892795083592,11,-3,55,34,8,4,20,37
1514892795085089,9,-3,-3,-30,-8,-3,-37,-34
1514892795085089,4,12,30,26,0,0,-1,-45
1514892795098600,-16,-13,2,-8,-2,-6,-4,-11
1514892795098600,50,18,-68,-3,-5,-2,10,21
1514892795100113,-31,-40,20,9,-4,-1,11,23
1514892795100113,15,17,23,-7,3,1,-8,-40
1514892795121128,-48,-10,-41,-3,-10,-4,6,58
1514892795121128,9,-11,-24,-25,2,1,0,-39
1514892795122617,-1,32,40,25,7,1,9,26
1514892795122617,3,-28,-87,-7,-11,-9,-22,-15
1514892795135126,-54,9,35,14,8,5,3,-17
1514892795135126,-17,-27,-55,-7,1,1,-10,28
1514892795142131,-15,13,-3,-28,-6,-6,-7,20
1514892795142131,4,0,-2,19,3,4,26,-13
1514892795158142,19,3,6,-27,-13,-9,6,14
1514892795158142,-5,-11,-7,22,4,-1,-10,-15
1514892795160143,10,-3,10,12,9,6,-13,2
1514892795160143,9,16,3,-17,-7,0,6,10
1514892795181160,89,-9,25,18,5,3,-2,9
1514892795181160,-32,32,26,28,2,4,23,-8
1514892795182659,16,-19,-70,-15,0,2,-4,-12
1514892795182659,-18,11,50,32,7,-4,-15,-13
1514892795195167,46,16,5,-44,-6,0,7,13
1514892795195167,-59,-52,-6,33,4,-3,-29,-41
1514892795209689,22,5,5,-38,-4,1,12,-20
1514892795209689,4,-9,6,18,-2,-1,-6,-16
1514892795218183,-17,4,-43,-11,-3,-8,-3,-29
1514892795218183,27,-21,41,0,1,1,-2,17
1514892795220185,-31,-26,-38,23,-3,-5,11,13
1514892795220185,-30,-14,-49,-22,3,3,-9,-20
1514892795240709,14,35,21,-10,-5,-1,21,39
1514892795240709,30,22,51,15,1,0,-21,-22
1514892795242710,37,29,42,4,-5,-5,-4,30
1514892795242710,-12,-1,23,24,10,2,7,-16
1514892795255210,-29,-33,-51,-35,-12,-5,-2,35
1514892795255210,-13,9,12,28,2,-4,-12,-34
1514892795262215,-14,-19,10,-7,2,2,7,16
1514892795262215,-10,36,-43,-39,-3,-3,-7,-37
1514892795277226,-11,2,10,46,3,-2,-8,6
1514892795277226,44,-12,28,-47,-11,-6,-3,-35
1514892795286234,-35,-9,15,21,2,-2,-3,7
1514892795286234,-13,-5,41,-23,-5,-1,4,-6
1514892795300754,6,-6,-33,39,8,6,29,14
1514892795300754,-11,28,-13,-22,-10,-7,-21,-27
1514892795302259,-2,6,19,-4,0,2,5,35
1514892795302259,64,-32,-1,7,2,-4,-32,-78
1514892795315261,-17,-9,-39,-22,-1,2,-3,20
1514892795315261,5,-3,15,24,4,3,17,30
1514892795323258,-11,-66,-101,-37,-8,-5,8,-1
1514892795323258,-16,26,43,-4,-6,-5,-12,20
1514892795346775,12,4,44,32,5,4,-2,-19
1514892795346775,-22,-19,-77,-34,-2,-1,6,-2
1514892795348776,11,1,20,0,-3,-6,7,-4
1514892795348776,19,24,-3,-18,-1,4,23,80
1514892795360823,-25,-20,30,16,-1,-7,-27,-104
1514892795360823,-3,-8,-5,-32,-3,2,17,60
1514892795362286,35,19,8,24,2,0,-15,-19
1514892795362286,4,-13,-32,-8,-4,-2,4,30
1514892795375304,-41,14,80,9,-3,-3,10,-15
1514892795375304,12,-7,-40,-19,2,0,-13,-8
1514892795382310,-20,0,32,-9,-9,-8,-4,-10
1514892795382310,-26,-18,-27,17,4,6,2,-8
1514892795398320,24,-10,-55,-24,-6,-2,-6,23
1514892795398320,-1,19,70,36,6,1,1,8
1514892795399822,-9,14,-18,15,5,4,21,17
1514892795399822,11,-26,-11,10,-3,-4,-20,-22
1514892795428332,12,-13,-46,-33,2,3,-1,24
1514892795428332,-25,12,38,-1,-10,-8,-31,-22
1514892795429834,19,24,11,-2,5,7,29,50
1514892795429834,-48,-38,38,24,7,-4,-20,-4
1514892795443343,33,5,-62,-11,3,1,-25,-99
1514892795443343,-1,-7,7,-9,-11,-10,19,67
1514892795445344,-7,-5,-7,16,9,3,5,37
1514892795445344,-27,-15,-21,-36,-10,-8,-19,-79
1514892795458365,23,12,80,39,11,6,7,65
1514892795458365,-14,12,-62,-6,-3,3,0,-32
1514892795459861,-6,-12,5,-32,-15,-7,-39,-53
1514892795459861,-26,13,21,24,6,0,21,5
1514892795481379,26,46,35,7,3,5,17,59
1514892795481379,27,-22,-19,15,-2,0,-5,-37
1514892795482871,-2,7,7,-21,-2,3,18,31
1514892795482871,6,-13,-46,-13,0,1,-6,-10
1514892795494388,-3,7,32,13,0,-3,-2,21
1514892795494388,-10,-6,-16,5,-4,-4,-6,4
1514892795503886,26,0,13,-15,-7,0,2,-26
1514892795503886,18,14,15,0,0,0,-8,-17
1514892795518395,-11,-5,1,-9,-6,-1,-1,15
1514892795518395,-41,41,30,7,1,-12,4,-55
1514892795519898,2,-35,3,0,7,4,-7,-14
1514892795519898,7,29,-31,-11,-4,2,23,40
1514892795540912,-39,-46,-39,19,-5,-6,-22,-42
1514892795540912,36,-8,-17,-21,1,6,11,32
1514892795542414,-11,8,30,-1,1,-1,2,7
1514892795542414,6,7,-40,2,0,2,2,-9
1514892795563442,-1,-4,-2,-51,-15,-6,-9,-6
1514892795563442,-2,-1,1,17,6,5,9,16
1514892795564928,-15,0,-33,11,1,2,9,-24
1514892795564928,0,-32,17,8,1,3,4,27
1514892795578448,-7,10,-40,-2,1,-1,-4,-36
1514892795578448,12,-4,26,0,-2,1,-6,0
1514892795581941,-27,-18,-37,-5,-1,-5,3,5
1514892795581941,12,19,-30,-7,-4,0,-12,-40
1514892795601956,8,15,31,-3,-1,-3,14,33
1514892795601956,21,7,14,-10,-2,4,16,39
1514892795606958,14,-1,-6,29,4,0,-16,-30
1514892795606958,-75,-9,7,-1,0,-2,12,37
1514892795614479,47,8,9,10,3,3,-13,-53
1514892795614479,0,-8,-7,-41,-4,1,13,43
1514892795624485,22,24,-25,10,0,-2,-11,-30
1514892795624485,14,-1,58,-4,-7,-4,7,33
1514892795638490,-13,5,3,12,3,0,13,36
1514892795638490,-22,-10,-22,-16,0,2,-18,-44
1514892795639991,4,9,-9,21,4,-2,-6,9
1514892795639991,21,14,22,1,1,0,-4,-10
1514892795660997,-39,-39,23,-14,-2,-3,3,34
1514892795660997,18,23,-23,19,-1,1,0,-17
1514892795662510,14,24,57,-5,-3,-7,-17,-10
1514892795662510,-3,-5,2,-11,-2,-3,5,4
1514892795674516,-4,21,-17,2,0,-1,-4,-2
1514892795674516,-6,3,-3,13,0,0,-2,32
1514892795683530,-4,-10,16,3,3,2,-17,-53
1514892795683530,-24,-28,-15,-9,-8,-6,0,9
1514892795698534,15,3,-12,-13,-2,1,-4,-11
1514892795698534,17,-22,-5,-9,-4,-4,7,-1
1514892795700034,-11,-8,4,5,-2,-1,-3,14
1514892795700034,4,1,-33,19,2,-1,0,0
1514892795721040,-9,-28,9,-36,-7,-3,-11,-28
1514892795721040,-10,1,2,1,-2,0,4,2
1514892795724541,-5,1,12,-3,0,2,4,19
1514892795724541,7,-3,-13,-2,1,2,-3,-28
1514892795734549,13,11,4,12,3,2,7,14
1514892795734549,-10,-4,3,6,0,-3,-6,-7
1514892795743556,-5,-9,-14,-8,-4,-2,2,4
1514892795743556,4,-1,14,-15,-2,-1,-3,-4
1514892795758575,-6,-3,-28,2,-4,-3,-4,-5
1514892795758575,-9,-2,28,7,1,-1,-4,-2
1514892795760076,-4,0,-10,4,-3,-1,-4,-6
1514892795760076,8,-8,-1,3,2,-1,6,6
1514892795781082,-2,5,1,-9,-1,-1,-2,-3
1514892795781082,0,0,-11,1,0,-1,-5,-8
1514892795782593,-3,-4,-6,-10,-4,-2,0,6
1514892795782593,3,-3,-5,-2,0,-1,-2,3
1514892795794603,-6,1,-8,1,-5,0,-1,-3
1514892795794603,-4,1,7,5,5,0,-3,-7
1514892795811112,-3,-9,-25,-9,-4,-2,3,5
1514892795811112,-1,0,12,-5,-5,-3,-2,2
1514892795819612,5,2,-5,8,1,0,-3,-5
1514892795819612,0,-3,-3,-1,-2,-2,1,-1
1514892795823123,-5,-2,1,-3,-1,-1,-1,0
1514892795823123,5,1,-3,-13,-6,0,-1,1
1514892795840624,0,4,5,8,2,-2,-1,-2
1514892795840624,-3,-3,-5,4,-1,0,-2,-3
1514892795842635,2,0,1,-2,-2,0,1,5
1514892795842635,-1,1,2,3,1,1,-1,-4
1514892795863653,1,-2,-8,2,0,-3,-2,-2
1514892795863653,-2,1,5,2,-2,0,-2,-1
1514892795865141,-1,0,-10,-26,-4,1,0,-2
1514892795865141,-3,-1,-2,-2,-3,-2,1,0
1514892795878660,0,3,5,3,5,1,2,-2
1514892795878660,-2,2,0,8,1,-2,-3,-2
1514892795881652,-5,-5,11,3,-1,-1,0,-1
1514892795881652,-2,-1,-2,1,-1,-2,-1,-1
1514892795902176,-3,-4,-36,-7,-2,-2,1,-3
1514892795902176,-4,-5,-5,-5,-3,-2,-5,-5
1514892795904178,-2,0,-2,4,1,0,0,0
1514892795904178,-2,-1,7,-1,1,-1,-1,-3
1514892795931188,-2,-1,13,10,0,-1,1,-1
1514892795931188,2,0,12,2,-2,-1,0,1
1514892795932693,-3,-4,-28,-6,-1,-1,-3,0
1514892795932693,-1,0,1,0,-1,-1,0,-3
1514892795937192,-4,-2,-6,-4,-2,-1,-2,-2
1514892795937192,-4,-8,-7,-12,-4,-4,-2,-2
1514892795946199,-2,-2,5,4,0,0,4,-1
1514892795946199,4,-1,-2,-1,-1,-2,-2,2
1514892795961211,0,4,15,2,-1,1,-3,0
1514892795961211,-2,-2,-13,-5,1,2,0,0
1514892795962711,-5,-5,0,6,-1,1,0,-2
1514892795962711,-1,-1,0,-4,0,-2,-2,-2
1514892795983727,0,0,12,-1,-2,-2,-2,1
1514892795983727,0,-5,-11,-5,-3,-2,-2,-1
1514892795985225,0,-1,-2,0,-2,-1,-2,-2
1514892795985225,1,-1,3,-1,0,-1,1,-1
1514892795998235,-1,0,5,-3,-1,-3,-1,-2
1514892795998235,-1,-2,0,-3,-2,0,-2,-3
1514892796004739,-1,0,5,0,0,-2,-1,0
1514892796004739,-2,-3,-10,-1,-1,0,0,0
1514892796020752,-3,-2,-7,-1,-2,-2,-3,-1
1514892796020752,0,-3,-2,1,1,-1,1,1
1514892796022753,-2,-1,7,-2,-2,0,-2,0
1514892796022753,-1,0,0,1,-2,1,-1,-1
1514892796044268,0,-2,-4,-3,-1,0,0,2
1514892796044268,-3,0,1,0,-1,-3,-1,-1
1514892796047274,-1,0,5,0,-2,-1,-2,-2
1514892796047274,-1,-2,-2,0,0,-1,-2,-1
1514892796057778,-2,1,-4,-1,-3,-3,-1,-3
1514892796057778,-2,0,1,-1,-1,-1,-1,-1
1514892796065783,-1,-2,-4,0,-2,-1,0,-1
1514892796065783,-3,-1,-4,-3,-1,0,0,0
1514892796080793,-2,-1,1,-1,0,-2,-2,-2
1514892796080793,-1,0,-2,1,0,1,-1,-1
1514892796087300,-2,-1,-3,-1,-1,-2,-2,-3
1514892796087300,-1,-1,2,-2,-1,1,-2,0
1514892796103815,-1,0,1,-1,-1,0,0,-2
1514892796103815,-2,-1,-3,1,-2,-2,-1,1
1514892796105310,0,-1,-2,0,-2,-2,1,-1
1514892796105310,-1,0,-1,-1,-2,-1,-1,-1
1514892796118323,-1,0,-3,-2,-1,0,-1,-2
1514892796118323,0,-2,2,0,0,-2,0,-1
1514892796125326,0,-1,-1,-1,-1,0,-1,1
1514892796125326,-1,0,-2,0,-1,-1,0,-1
1514892796140837,-2,0,-2,-1,-2,0,-2,-1
1514892796140837,0,0,0,0,-3,0,0,-1
1514892796142336,-1,-3,-2,-1,-1,-1,-1,0
1514892796142336,-2,-2,-1,0,-1,-1,-1,-1
1514892796164352,-1,0,-3,-1,-3,-2,-2,0
1514892796164352,1,-2,1,-1,0,-1,0,-1
1514892796167854,0,-1,0,-1,0,0,-1,0
1514892796167854,0,0,-3,-2,-1,0,-1,-1
1514892796177865,-1,0,-1,-3,0,-1,0,-1
1514892796177865,-1,-2,-3,0,-1,0,0,-3
1514892796184868,-1,-1,-2,0,0,-1,-2,-2
1514892796184868,1,1,0,-3,-1,-1,1,-1
1514892796200879,0,0,0,-2,0,-1,-2,-1
1514892796200879,-2,-1,-1,0,-1,-1,-1,-1
1514892796202379,-2,-1,-1,0,-1,-1,0,0
1514892796202379,-1,0,-1,-1,-1,-1,-1,0
1514892796223395,1,0,-2,0,-1,0,-1,-2
1514892796223395,-1,-2,-1,-2,-1,-1,0,0
1514892796224896,-1,-2,-1,-1,0,-3,0,-2
1514892796224896,-2,0,-3,-1,-1,-2,-1,-1
1514892796237905,-1,0,-1,-1,0,-2,-1,-2
1514892796237905,-1,-1,-1,-2,-1,-1,0,-2
1514892796244410,-2,-3,1,-1,-2,-3,-1,-1
1514892796244410,-1,1,0,-1,-2,-1,-1,-2
1514892796260921,-4,1,-1,-1,-1,-2,-1,-2
1514892796260921,1,-1,-2,-1,-1,-1,-1,1
1514892796262422,0,-2,0,0,0,0,-1,0
1514892796262422,1,0,-2,-2,-2,0,-1,-2
1514892796283437,0,0,-1,0,1,-1,1,1
1514892796283437,-2,-3,-1,-1,1,-3,0,-2
1514892796284940,-1,-1,-2,-1,-2,-2,0,-1
1514892796284940,-1,-2,-1,-2,0,-2,-1,1
1514892796298454,0,-1,-1,-1,-1,0,-3,-1
1514892796298454,-1,-2,0,-2,-1,-1,0,-1
1514892796304453,-1,-2,0,-2,-2,0,-2,-2
1514892796304453,0,1,-2,-1,0,-1,-1,1
1514892796320965,0,-1,-1,1,-3,-3,0,-1
1514892796320965,-2,-3,-1,-2,0,0,0,-1
1514892796322465,-1,-4,-1,-1,-1,-1,-1,-2
1514892796322465,-3,0,-1,-1,-1,-1,1,0
1514892796343981,-1,-2,-1,-1,0,1,-2,-1
1514892796343981,-2,-1,1,-2,-2,-2,-1,-1
1514892796346484,-3,-2,0,0,0,-1,0,-1
1514892796346484,-1,1,-2,-1,-1,1,-2,-1
1514892796356989,0,1,-2,-1,-1,-1,-1,-1
1514892796356989,-1,-2,-2,-3,-1,-1,-3,-2
1514892796367996,-1,-2,-1,0,0,-1,-1,0
1514892796367996,0,0,-1,1,-2,0,0,-3
1514892796381007,-2,0,-1,-2,-2,-1,0,0
1514892796381007,0,-2,1,0,-1,1,-1,-1
1514892796382509,0,-3,0,0,-1,-2,-2,-1
1514892796382509,0,0,-1,-2,-1,-1,0,0
1514892796404022,0,-2,-2,-1,0,-2,1,0
1514892796404022,-1,-3,-2,1,1,0,1,-1
1514892796407525,1,-1,-1,-1,0,-1,-1,-1
1514892796407525,2,1,0,-1,-1,-1,-1,0
1514892796417031,-2,-1,-1,-2,-3,-1,-2,-1
1514892796417031,0,-1,-1,1,0,-2,-2,0
1514892796426037,-3,-2,-1,1,0,0,-1,-1
1514892796426037,-2,1,-2,-2,0,-1,-1,-2
1514892796441548,0,0,-2,-2,0,-2,0,0
1514892796441548,-2,-2,-2,-1,-1,-2,-1,-1
1514892796444050,-2,-3,0,-2,-1,-1,-1,0
1514892796444050,-2,-2,0,0,-1,-2,0,-2
1514892796463565,-2,0,-1,-1,-2,0,1,-1
1514892796463565,-2,0,-2,-1,-2,-1,-2,-2
1514892796465065,0,1,-3,0,0,-1,-1,-2
1514892796465065,0,0,-2,-1,-2,-1,-3,-2
1514892796477073,0,1,-1,1,-1,-3,-1,1
1514892796477073,-1,-3,1,0,-1,0,-1,-1
1514892796486092,-1,-2,-1,-1,-2,-2,-1,-1
1514892796486092,0,1,-1,-1,0,0,-1,0
1514892796501119,-1,1,-1,-2,-1,0,-2,-2
1514892796501119,-1,-4,-2,-1,0,0,1,0
1514892796502601,-1,-3,-1,1,-1,-2,0,-2
1514892796502601,0,-1,-2,-1,0,-2,-1,0
1514892796531113,0,1,0,-1,-1,-1,-2,-2
1514892796531113,0,-2,-1,0,-2,-1,0,-2
1514892796532612,-1,-4,0,-2,-1,0,-1,-2
1514892796532612,-2,0,-1,0,0,-1,-2,-2
1514892796537125,0,0,-3,-1,-2,-1,-3,-1
1514892796537125,0,-1,-1,-1,1,-1,-2,0
1514892796553628,-2,-1,-2,-2,0,-1,0,-1
1514892796553628,0,0,-1,-1,-3,-1,-2,-1
1514892796560672,0,0,-2,-2,-1,-1,0,-1
1514892796560672,-1,-2,-2,0,-3,-1,-1,-1
1514892796562646,-1,-1,-1,-1,0,0,-2,0
1514892796562646,-1,1,0,-3,-1,-3,-2,-1
1514892796583658,-1,1,0,-1,-1,-2,0,-1
1514892796583658,0,-2,-1,-2,-1,-1,-1,0
1514892796586150,-1,-1,-3,0,0,1,0,-1
1514892796586150,-3,0,-2,0,0,-2,-1,-2
1514892796597660,-1,2,0,-3,-1,-2,-3,-2
1514892796597660,-2,-3,0,-2,-1,-1,0,-1
1514892796606164,0,-3,-2,-1,-1,-4,-1,-4
1514892796606164,-1,1,-1,0,0,-2,-1,0
1514892796620676,-1,0,0,-1,0,1,0,-1
1514892796620676,-1,-2,-2,-1,1,1,-1,-2
1514892796622692,-1,-3,-1,-1,-1,-1,-1,-1
1514892796622692,-1,-1,-2,0,0,-1,-1,-1
1514892796644200,-2,0,-1,0,-2,-1,-1,0
1514892796644200,-1,-1,-2,-2,-2,-1,-2,-1
1514892796646694,0,-2,-1,-1,-3,-1,-1,-1
1514892796646694,1,0,0,0,-1,-2,0,-2
1514892796657218,0,0,-1,-1,-3,-1,-3,0
1514892796657218,-1,-2,0,0,-3,-4,0,0
1514892796674222,-1,-2,-1,-1,0,-2,0,0
1514892796674222,0,0,-1,-2,1,-2,-2,-1
1514892796680717,-1,-1,-1,-1,-1,-1,-1,-1
1514892796680717,-1,-2,-1,-1,-1,0,-1,-1
1514892796682218,-2,-3,0,0,-2,-1,0,-2
1514892796682218,-1,0,-1,-1,-3,-1,-2,1
1514892796703242,-3,1,-4,-3,-1,-1,-1,-2
1514892796703242,-1,-2,-2,-1,1,-1,-2,-1
1514892796704735,-3,-2,-2,0,0,-1,-1,1
1514892796704735,-2,0,0,-3,-1,-1,-2,-1
1514892796716744,-1,-1,-3,1,-2,-1,-1,-1
1514892796716744,-2,-2,0,-1,-2,-2,-1,-1
1514892796726250,0,-2,-1,-2,0,0,1,-2
1514892796726250,0,0,-1,0,0,-1,-1,-1
1514892796740759,1,1,-2,-1,0,-3,-1,-1
1514892796740759,1,-2,-2,-1,-1,-1,-1,-2
1514892796744262,-3,-4,-1,-1,-1,-2,-2,-1
1514892796744262,-2,1,-2,-2,0,-2,-1,-1
1514892796763778,0,1,-1,-1,-1,2,-1,-2
1514892796763778,0,-3,-1,-1,-1,0,0,0
1514892796765276,0,-1,0,-1,-1,-1,-1,0
1514892796765276,-1,-1,-2,-3,-2,-1,-1,-2
1514892796785803,-1,-1,-1,-2,0,-1,-1,0
1514892796785803,-1,-2,0,-1,1,0,-1,-1
1514892796787293,-2,-1,1,-1,0,-1,1,-1
1514892796787293,-1,0,-1,-1,-3,-2,0,0
1514892796800811,0,-1,-1,0,0,-3,-1,0
1514892796800811,-3,-3,-3,0,-2,0,-1,-2
1514892796802313,-2,-4,-1,0,0,1,-1,0
1514892796802313,-2,-2,-2,-1,-2,1,-2,-1
1514892796823327,0,0,-1,-2,0,-2,-2,-2
1514892796823327,-1,0,-2,0,-3,-1,-2,-1
1514892796824829,-1,-2,0,0,-1,-2,0,-2
1514892796824829,1,-1,-1,-3,0,0,-2,-1
1514892796845850,-1,0,0,-1,-1,0,-2,-3
1514892796845850,1,-3,-1,1,-2,-3,-1,-3
1514892796847339,0,-2,-2,0,-2,-3,0,0
1514892796847339,-2,-1,-1,0,-1,-2,-1,-1
1514892796860858,-2,0,-3,-2,-3,-1,0,-2
1514892796860858,-1,-3,-1,-2,-1,-1,-1,-2
1514892796862355,-2,-2,0,-1,-1,1,0,-1
1514892796862355,0,-1,0,0,-3,-1,-1,-1
1514892796883372,-2,-1,0,-1,-1,-2,-1,0
1514892796883372,-2,-1,-1,-1,-1,-2,0,-1
1514892796884874,2,-3,-2,-2,-1,0,-2,-1
1514892796884874,0,2,-1,0,-1,-1,0,-1
1514892796905885,-1,1,-3,-1,-1,-1,-2,0
1514892796905885,-1,-2,0,-1,-1,0,-1,0
1514892796907381,-2,-2,-1,-1,-1,-1,-1,-1
1514892796907381,0,0,-1,1,-3,0,0,0
1514892796921397,-1,-2,-2,-1,-1,-1,-2,-3
1514892796921397,0,0,0,-3,0,0,-1,-1
1514892796922898,-1,-2,0,1,-2,-1,-1,3
1514892796922898,-1,-1,-2,-1,0,0,-3,-1
1514892796950952,-2,0,-1,-2,-1,-1,-1,-1
1514892796950952,-1,-3,-1,1,1,0,-1,-2
1514892796952461,-2,-1,-1,-2,0,-1,-1,-4
1514892796952461,-1,1,-2,-2,-2,0,-2,-2
1514892796965961,-3,0,0,-2,0,-2,0,-1
1514892796965961,4,-3,-2,-1,-2,-1,0,-1
1514892796967462,-2,-2,-1,0,-1,0,0,-1
1514892796967462,-1,1,-2,-1,-2,0,-1,-2
1514892796980474,0,1,0,-1,-1,-1,-1,-1
1514892796980474,-2,-1,0,-3,-2,0,1,-1
1514892796986986,-1,-2,-1,-2,-1,0,1,-2
1514892796986986,-1,0,-1,-2,0,-3,-1,0
1514892797003499,0,1,-2,0,-2,-1,-1,-1
1514892797003499,-2,-2,-2,-1,0,0,-1,0
1514892797004998,0,-1,-1,-2,0,-1,-2,-1
1514892797004998,-2,-1,-1,-2,0,0,-2,-3
1514892797026016,0,-1,-1,0,-2,-2,1,-1
1514892797026016,-2,-2,0,0,-1,0,-3,-1
1514892797027515,-2,0,0,-2,-1,-1,-1,0
1514892797027515,-1,0,-1,-2,-1,-1,0,0
1514892797040023,1,0,-3,-3,-2,-2,0,-1
1514892797040023,-1,-2,-1,-1,-2,-1,-1,-1
1514892797047029,0,-2,-3,-2,-1,0,0,-2
1514892797047029,-1,-1,-1,0,0,-2,-1,-2
1514892797063042,0,-1,-2,-2,0,0,1,-1
1514892797063042,-3,-3,0,-1,-1,-2,0,-1
1514892797065031,1,-2,1,0,0,-1,-1,-1
1514892797065031,-2,-1,0,-2,-1,1,-1,-1
1514892797086056,-1,-1,-3,-1,-1,1,-1,-1
1514892797086056,-1,-1,-1,-1,1,-2,0,0
1514892797087548,-1,-2,0,0,-1,0,-1,-1
1514892797087548,0,0,0,-2,0,-4,0,-2
1514892797100056,1,0,-2,-2,-2,-3,-3,-2
1514892797100056,-1,-1,-2,-1,0,-2,-1,-1
1514892797107061,-2,-1,-1,1,-1,0,-1,-1
1514892797107061,-2,-2,-2,-1,-2,-2,-1,0
1514892797124073,-2,-1,-3,-2,-2,1,-2,-1
1514892797124073,-1,-1,-2,-2,-1,-1,-1,-5
1514892797125574,0,-2,-2,-1,-1,-1,0,-2
1514892797125574,1,0,0,-1,-1,1,-1,-1
1514892797145627,-1,-2,-1,-2,1,-3,-3,-2
1514892797145627,0,-2,-1,0,0,-1,-1,-3
1514892797147601,-1,1,1,1,1,-1,2,3
1514892797147601,1,-1,-3,-2,-2,-2,-4,0
1514892797160113,-2,-2,-1,-1,-3,-5,-3,0
1514892797160113,0,0,0,0,-2,-2,1,0
1514892797167114,-1,-2,-2,-2,-2,0,-1,0
1514892797167114,-1,0,-2,-1,-1,-2,-2,0
1514892797184115,1,1,0,1,-2,0,-1,1
1514892797184115,-1,-1,0,-1,-3,0,3,1
1514892797185125,-2,-2,-2,-2,-2,-3,-9,-10
1514892797185125,0,0,-2,2,-1,-1,-1,-3
1514892797205630,-2,0,-1,-3,1,1,-1,-3
1514892797205630,-2,-3,-1,-1,-1,-1,-1,1
1514892797207633,-2,-1,1,0,0,0,2,0
1514892797207633,-1,1,-2,-1,-1,-1,-1,-3
1514892797228148,0,0,-2,-1,-1,-4,0,-1
1514892797228148,-1,-1,-1,-1,0,-2,0,-1
1514892797230651,1,0,-2,-2,-1,-1,0,-1
1514892797230651,-1,0,0,-1,-3,-1,-1,-2
1514892797243157,-2,-1,-1,-2,1,0,0,1
1514892797243157,-2,-2,-2,0,0,0,-1,-1
1514892797245159,-2,-1,-1,0,0,-2,-3,-2
1514892797245159,-1,1,-1,-3,-1,0,-1,0
1514892797265673,-1,-1,-2,-1,-3,0,-2,-2
1514892797265673,0,-1,-3,0,-1,-1,-2,-1
1514892797267675,-2,-1,-2,-2,0,-2,-1,1
1514892797267675,-1,0,0,2,-1,0,1,1
1514892797279691,-2,-1,-1,1,-3,0,-2,-3
1514892797279691,-1,-4,-2,-2,0,-2,-2,1
1514892797288689,-2,-1,-1,1,0,2,1,-1
1514892797288689,-1,-1,-2,-1,-1,0,-2,-4
1514892797303201,-1,0,0,-1,-1,2,2,-1
1514892797303201,0,-1,0,1,-2,-1,-2,-2
1514892797305202,1,-1,0,0,0,-3,-1,0
1514892797305202,0,-1,-2,-2,-1,-1,0,-2
1514892797325725,0,-1,-3,1,0,0,-2,-1
1514892797325725,-1,-3,-1,-1,0,1,-1,-2
1514892797327217,-2,-2,2,-1,-2,1,0,-2
1514892797327217,-1,-2,-7,-2,0,-1,-1,0
1514892797339725,-3,0,-2,-1,-2,-1,-1,0
1514892797339725,-2,0,0,-1,0,0,-2,-2
1514892797348731,-1,1,-1,-1,-3,-3,-1,0
1514892797348731,0,-1,2,-2,-2,-1,1,-1
1514892797362241,1,-2,-1,-2,-2,-1,1,0
1514892797362241,-2,-2,-1,0,-2,-1,-1,-3
1514892797370747,-2,-2,-1,0,-1,1,0,-2
1514892797370747,-1,0,-1,0,-1,-1,-2,-3
1514892797385758,1,-2,-1,-2,-1,0,-2,0
1514892797385758,-2,-3,-1,0,-1,-1,-1,0
1514892797387271,0,0,-2,-2,-1,-2,-1,0
1514892797387271,-3,-1,0,1,-1,-2,-1,-1
1514892797399279,-1,-1,0,1,-2,-1,-1,-1
1514892797399279,0,0,0,0,-1,-1,-1,-2
1514892797408784,-2,-1,-2,-2,0,-2,-1,1
1514892797408784,-1,-2,-1,0,1,-1,0,0
1514892797423284,-1,0,-1,-3,0,-2,-1,-3
1514892797423284,0,-1,-2,-1,-2,-1,-1,0
1514892797424785,-2,-1,-2,1,-1,-2,-2,-1
1514892797424785,-1,0,-1,0,-1,-2,-2,-1
1514892797445822,-1,-3,0,-2,-1,-1,-1,1
1514892797445822,-1,-3,-2,-2,-2,-2,0,-2
1514892797447302,0,0,-2,-2,0,-1,0,-2
1514892797447302,-2,1,0,-3,0,0,-1,-2
1514892797459332,-2,-3,-1,-1,1,-1,-1,-1
1514892797459332,-2,-4,0,-2,0,0,-1,-2
1514892797468316,-1,-1,-1,-1,-2,-2,-2,0
1514892797468316,0,0,-1,-3,-2,-1,-1,0
1514892797482826,-1,-2,-2,-1,-1,-2,0,-2
1514892797482826,-2,1,-3,-3,-1,-2,1,-1
1514892797490832,0,-2,-1,0,0,-2,0,1
1514892797490832,0,-1,0,-2,1,0,0,-1
1514892797506343,-3,-3,0,-1,-2,-1,0,1
1514892797506343,-2,-2,0,0,-2,1,1,-1
1514892797507845,-1,2,-2,-2,-3,-1,-3,0
1514892797507845,0,0,-2,-1,-3,-1,-2,0
1514892797519354,0,-2,-2,-2,-1,0,0,-2
1514892797519354,-2,-4,-1,0,-1,-1,0,1
1514892797528368,-1,-1,-1,-1,-1,-1,-1,-1
1514892797528368,-2,0,-1,-2,-2,0,-2,-1
1514892797543880,-2,0,2,-1,0,-1,-3,-1
1514892797543880,-1,-3,-5,-1,-1,0,-1,-2
1514892797546371,-1,-1,-1,-1,0,1,0,-1
1514892797546371,0,-3,0,-2,-2,-2,-1,0
1514892797565885,-1,-1,-2,-2,-3,0,-1,-2
1514892797565885,-2,-1,0,-2,-1,-2,-2,-2
1514892797567386,1,1,-2,0,-1,-2,0,-2
1514892797567386,0,0,-1,0,-1,-2,-1,-1
1514892797579895,0,-3,-1,0,-1,-1,0,0
1514892797579895,0,-2,-1,-1,-2,-1,-4,-1
1514892797588401,-1,-2,-2,-1,-3,-1,-1,-1
1514892797588401,-2,0,-1,1,-1,-2,0,0
1514892797603411,-2,-2,-1,-2,-1,-2,-1,-3
1514892797603411,1,-1,0,-1,-2,-1,-1,0
1514892797606914,-2,0,0,-1,-1,0,0,0
1514892797606914,0,-3,-2,0,-1,-1,-1,-1
1514892797625938,-1,-3,-2,-1,-1,-1,-2,-2
1514892797625938,-2,-1,0,0,0,-1,-1,-1
1514892797627428,1,1,-1,0,0,1,1,-1
1514892797627428,-1,1,-1,-1,-1,0,-2,0
1514892797639449,0,-2,-1,0,-1,1,0,-2
1514892797639449,-1,-3,-3,-2,-1,-1,0,0
1514892797648944,-1,1,-1,-1,-1,-1,-2,-2
1514892797648944,-2,1,-2,-1,0,-2,0,0
1514892797663955,-2,-2,-2,0,-3,-1,-1,-2
1514892797663955,0,-2,-2,2,-1,-1,-1,4
1514892797665456,-2,-1,0,-1,0,-2,-3,-2
1514892797665456,0,0,-1,-1,0,-2,-3,-2
1514892797685970,-2,-2,-1,-2,-1,-3,-1,-1
1514892797685970,-2,-1,-1,-1,-1,-1,-1,-3
1514892797687478,-3,-1,-3,-1,-2,0,-1,1
1514892797687478,-1,-1,-1,-2,-2,-1,-1,-1
1514892797699479,1,0,-1,-1,0,1,0,0
1514892797699479,-2,-2,0,-1,1,-1,0,-3
1514892797709501,-2,-1,-1,0,1,-2,0,-2
1514892797709501,-2,0,-1,0,-1,0,-1,-1
1514892797724006,0,-3,-2,-1,-1,1,-1,1
1514892797724006,-1,-1,-2,-1,-2,-1,0,-1
1514892797725507,-2,-1,-1,-1,-1,-2,-3,-2
1514892797725507,-2,0,-3,0,-2,-1,0,-2
1514892797753517,-3,-1,2,0,-2,0,-2,-2
1514892797753517,-1,-2,-6,-3,-1,-2,0,-1
1514892797755019,0,1,-1,-1,-1,-1,-1,-1
1514892797755019,-1,1,-2,-2,-1,-1,-1,-3
1514892797768540,-2,-2,-2,-1,0,1,0,0
1514892797768540,-3,-2,0,-1,0,0,-1,-4
1514892797770029,1,0,-2,-1,-3,-1,1,-2
1514892797770029,0,-1,1,-2,-1,-1,-1,1
1514892797783539,-1,-1,-4,0,0,-1,0,-2
1514892797783539,-1,-1,1,-2,-2,-2,-2,0
1514892797785052,0,1,-3,-1,1,2,0,4
1514892797785052,-2,-2,1,-2,-2,-2,-2,-3
1514892797806070,-1,-3,-2,0,-2,-4,0,-1
1514892797806070,0,-4,1,0,-2,0,0,-1
1514892797807556,-1,1,0,-1,-3,-1,-2,-2
1514892797807556,0,0,-2,-2,0,0,0,0
1514892797828570,-2,0,-2,0,1,-1,-2,0
1514892797828570,-2,-2,-2,-1,-2,-2,-1,-1
1514892797830072,-2,0,0,-1,-2,0,-2,-1
1514892797830072,0,0,-2,-3,-1,-1,0,-1
1514892797843605,0,-2,-2,-1,-2,-3,-1,-2
1514892797843605,0,-2,0,-1,-1,-2,-1,0
1514892797846099,-2,-2,0,0,-1,-1,-1,-3
1514892797846099,-2,0,-2,0,0,1,-3,-1
1514892797866097,0,-1,-2,0,-1,1,0,-2
1514892797866097,1,-3,-2,0,0,0,-2,-2
1514892797867598,0,0,-2,-1,0,-1,0,-2
1514892797867598,0,0,-2,0,-2,-1,-1,-1
1514892797888112,-1,-3,0,-2,0,-1,-1,-1
1514892797888112,-1,-2,-1,-2,0,0,0,0
1514892797890115,-1,0,-2,-1,0,-2,-2,0
1514892797890115,-2,0,-3,-2,0,0,-1,-2
1514892797902641,-2,-2,0,-1,-2,-2,-1,0
1514892797902641,-1,-2,0,-2,-1,1,1,0
1514892797909628,-1,0,-1,-1,-1,-2,-2,0
1514892797909628,-1,1,3,1,-1,-2,0,-1
1514892797925639,-2,-3,-7,-5,-2,-1,0,-2
1514892797925639,-1,-3,0,0,0,-1,-1,-1
1514892797927641,-1,2,-2,-1,-2,-1,-2,-2
1514892797927641,1,-1,0,0,-2,-1,-2,-1
1514892797948657,1,-2,2,0,-2,-1,0,-1
1514892797948657,-3,-2,-2,-1,0,0,-1,1
1514892797950156,-2,-1,-3,-2,-1,1,-1,1
1514892797950156,-1,0,0,-1,-1,-2,-2,-1
1514892797962667,-2,-2,1,1,-1,-2,0,0
1514892797962667,0,-1,-2,0,-2,-2,0,-3
1514892797969670,0,0,1,-1,-3,-2,0,-1
1514892797969670,-2,-1,-3,-2,-1,-1,0,-1
1514892797985682,-2,-3,1,0,-1,-1,-2,-1
1514892797985682,-2,-2,0,0,-1,-1,-1,-1
1514892797987185,0,2,0,0,-3,-2,-2,-2
1514892797987185,-1,1,-3,-2,-2,-2,0,1
1514892798008207,0,-3,-1,-1,1,0,-1,1
1514892798008207,-1,-3,0,-1,0,0,-1,-2
1514892798015203,-2,-3,-4,-3,-1,-2,0,-1
1514892798015203,-1,1,0,-1,0,0,0,0
1514892798031225,1,-1,-2,-1,-1,-1,-1,0
1514892798031225,-1,-1,-1,-1,-3,-1,0,-2
1514892798032216,-1,-1,-1,-1,-1,0,0,0
1514892798032216,0,1,0,0,-2,-2,-1,-1
1514892798046725,-3,-4,-1,0,0,0,-2,1
1514892798046725,-2,-2,1,0,-1,-2,0,-1
1514892798049228,-1,-2,-1,-1,-2,-1,-2,-3
1514892798049228,-2,0,-4,-1,-2,-2,-2,0
1514892798068740,0,-2,-1,-2,-2,-1,-1,-2
1514892798068740,-3,-2,1,-1,0,-2,-2,-1
1514892798070241,-3,0,-3,-1,0,-1,-2,0
1514892798070241,1,1,-2,0,1,0,-1,3
1514892798082750,0,-2,-1,-2,0,-2,-2,-2
1514892798082750,-1,-2,1,-2,-3,-2,-1,-1
1514892798090263,1,0,-1,0,0,-1,0,0
1514892798090263,-1,0,-2,0,-2,0,-2,-1
1514892798105766,-2,-1,-1,-1,0,-1,1,-1
1514892798105766,-2,-3,-2,-1,-1,-1,1,0
1514892798107267,-1,1,1,-1,0,-1,0,1
1514892798107267,0,-1,-6,-2,-1,-2,-1,-2
1514892798128302,-1,-2,0,1,-1,-1,-1,-2
1514892798128302,-1,-3,-2,-1,-1,-1,-1,0
1514892798129783,0,0,1,0,0,0,-2,-2
1514892798129783,-1,0,0,-2,-1,-1,-1,-1
1514892798142793,-1,-2,-1,1,-1,0,0,-1
1514892798142793,1,-3,-1,-1,1,-2,-2,0
1514892798149299,-1,1,0,0,-2,-2,-1,0
1514892798149299,-2,0,0,0,-1,-1,0,-3
1514892798165809,-3,0,0,-1,-2,-1,-1,-1
1514892798165809,0,-1,-3,-1,0,1,-1,-2
1514892798167318,1,1,-2,-2,-2,-1,-2,-2
1514892798167318,-1,0,-1,0,1,0,0,1
1514892798188325,0,-4,-2,-2,0,-1,-3,0
1514892798188325,-1,0,0,0,0,0,-2,-2
1514892798189826,-2,0,-2,-2,0,-3,-1,-3
1514892798189826,-1,-1,-1,-2,-2,-1,-1,-2
1514892798203335,0,-2,0,-2,-1,-1,0,0
1514892798203335,-1,-2,4,0,-1,-2,-2,-2
1514892798209340,-2,-1,-7,-1,0,-3,-2,-1
1514892798209340,0,0,1,-3,-2,0,-3,-1
1514892798233356,-4,-2,-2,-1,-2,-3,-1,0
1514892798233356,-1,-3,-5,-1,0,-3,1,-4
1514892798234857,-1,2,0,0,-3,0,-1,0
1514892798234857,-1,0,-2,-1,-1,-2,-1,-1
1514892798248368,0,-2,1,0,-3,1,-1,-1
1514892798248368,-2,-2,-1,-1,0,1,-1,-1
1514892798249869,-2,-1,-2,-1,-1,-2,-2,-1
1514892798249869,0,1,0,-3,-2,-2,-2,-1
1514892798262380,1,-3,-2,0,-1,0,-1,0
1514892798262380,-2,-4,-2,0,-3,-2,-1,0
1514892798271896,1,0,2,-1,-2,-1,-1,-2
1514892798271896,-2,-1,-3,0,-1,-1,0,-3
1514892798284911,-1,0,-1,-1,-2,0,-2,-1
1514892798284911,0,-2,-3,-1,0,-2,0,0
1514892798293402,-1,-1,-8,-3,0,0,-1,0
1514892798293402,0,0,0,0,-1,-2,-2,-1
1514892798308409,-2,-2,-4,-2,-1,-2,-1,-3
1514892798308409,-2,-1,1,-2,2,0,-2,-2
1514892798309910,-1,1,2,-1,-2,-1,-2,0
1514892798309910,-1,-1,1,0,-1,-3,0,0
1514892798338431,-1,-3,-4,1,0,-2,0,-1
1514892798338431,1,-4,1,-2,-1,-1,0,0
1514892798339932,0,0,3,-3,0,-2,-2,-1
1514892798339932,-1,0,-4,-1,-2,-2,-1,-3
1514892798346456,-1,-3,3,-3,0,-1,0,-3
1514892798346456,-1,-2,-3,1,-1,0,2,-1
1514892798347955,-1,-2,-3,0,-1,-2,-2,0
1514892798347955,0,-1,-1,-3,0,0,-2,0
1514892798368452,-2,-2,0,0,0,0,-2,-1
1514892798368452,-2,-2,-1,0,-2,0,-2,-2
1514892798369954,0,0,0,-1,-2,2,0,0
1514892798369954,-2,0,-3,-3,-1,1,-1,0
1514892798381962,-1,-1,-2,-1,0,-1,-1,1
1514892798381962,-2,-4,-3,-2,-3,-2,-3,-1
1514892798390968,-2,1,4,-1,-1,-2,-1,-3
1514892798390968,-1,-1,-5,-1,-1,0,-1,1
1514892798406479,0,-2,-2,-3,-1,0,-2,-3
1514892798406479,0,-2,-2,0,-1,-1,0,0
1514892798408993,1,-1,-3,-2,-2,-1,-1,-1
1514892798408993,-1,-1,2,-1,-2,-2,-3,0
1514892798428494,1,-2,0,2,0,-1,-1,-2
1514892798428494,-2,-2,-3,-1,-2,0,0,-1
1514892798429995,-2,0,0,0,-2,1,-1,0
1514892798429995,-1,2,7,-1,0,0,-1,-1
1514892798442504,0,-3,-3,-2,-2,-2,-1,0
1514892798442504,-1,-3,-1,-2,0,-1,-1,1
1514892798451010,-1,0,-1,0,1,2,0,-1
1514892798451010,0,-2,-3,-2,0,0,-2,-1
1514892798466521,-1,-2,2,-1,-1,-1,-2,-1
1514892798466521,0,2,1,0,-2,0,0,0
1514892798468022,-1,0,-2,-3,-3,-2,-2,-2
1514892798468022,0,-1,-1,-1,0,-2,0,1
1514892798488537,-1,-3,0,-2,-1,-4,1,-1
1514892798488537,0,-3,-2,2,2,0,-1,-1
1514892798490039,-1,1,0,1,1,-3,-1,0
1514892798490039,0,-1,0,0,-4,-2,-1,-2
1514892798502046,-4,-1,-2,-2,-2,0,-1,0
1514892798502046,-1,-1,-1,-1,-1,-2,-1,-1
1514892798513054,0,1,-1,-2,-3,0,-1,-1
1514892798513054,-2,0,-2,-2,-1,-1,-2,-3
1514892798526063,-2,-3,-2,-2,-2,-2,-1,0
1514892798526063,6,1,3,0,0,1,-1,0
1514892798527564,-7,-5,0,-1,0,-2,-2,-2
1514892798527564,-3,-1,-10,-1,-2,-1,-2,-1
1514892798548580,-2,-4,-2,-1,-3,2,0,-4
1514892798548580,-2,-2,-1,-1,-2,-3,-1,-3
1514892798550080,2,2,-2,0,0,-1,0,1
1514892798550080,0,0,0,-1,-2,-3,0,-1
1514892798562089,-3,-1,1,-1,-2,-1,0,0
1514892798562089,0,-2,-2,-1,-1,-1,-1,-2
1514892798571095,0,-1,-4,-1,0,1,0,0
1514892798571095,-2,0,2,-1,-1,-2,-2,-1
1514892798586606,0,0,-3,-2,-1,-1,0,0
1514892798586606,-1,-3,-2,-3,-1,-3,-2,-1
1514892798587107,-2,1,-2,-1,-2,-1,-3,-1
1514892798587107,-1,0,0,0,0,-1,0,-1
1514892798616636,-1,-3,1,1,0,0,-1,-2
1514892798616636,-3,-3,-7,-2,0,-1,1,0
1514892798618629,-1,-2,-2,-2,-2,-3,-1,-2
1514892798618629,0,-1,0,-2,-1,-1,-1,-2
1514892798630140,0,-2,-4,-2,-3,-2,-1,-2
1514892798630140,-4,0,0,-2,-3,-1,-1,-3
1514892798631138,-2,1,0,-1,-1,-1,-1,-1
1514892798631138,0,-2,0,1,-1,0,-2,-2
1514892798645148,-2,-3,-5,-1,1,-1,-1,0
1514892798645148,-1,-2,2,-1,-1,-3,0,-1
1514892798646151,-1,0,-3,-2,1,-1,-2,0
1514892798646151,-1,1,0,-1,-2,-1,-1,0
1514892798667676,1,-1,0,0,0,1,-3,-1
1514892798667676,1,-1,0,-1,-1,0,1,0
1514892798668676,0,-1,3,0,-2,-1,-2,-2
1514892798668676,-2,-3,-5,-2,-1,-1,-2,-1
1514892798690179,-1,-1,0,0,-1,1,-3,-3
1514892798690179,-1,0,0,-1,-1,0,1,1
1514892798691180,-2,-2,-2,1,-1,-2,-1,-2
1514892798691180,-1,0,-2,-1,-1,-2,0,-1
1514892798705189,0,-2,-1,-1,0,-3,0,1
1514892798705189,-1,-1,-3,-1,1,-1,-1,-1
1514892798706691,-3,0,0,-1,-1,-2,0,0
1514892798706691,-1,1,0,-1,-2,-1,-2,-2
1514892798727707,-3,-1,0,0,-1,-1,-1,-2
1514892798727707,1,-2,-4,0,-1,-1,-2,-2
1514892798728208,1,0,0,-3,-2,-1,-2,-1
1514892798728208,-2,-2,1,-2,-1,-1,-1,2
1514892798750234,0,-1,3,-1,0,-1,0,0
1514892798750234,-2,-1,-1,0,0,-2,-2,-2
1514892798750722,-1,1,-2,-1,-2,-2,-2,0
1514892798750722,0,0,-2,-2,-1,-1,-1,-2
1514892798765243,1,-1,0,0,-2,0,1,-1
1514892798765243,-1,-1,1,0,-1,-1,-2,-1
1514892798766234,-1,0,-3,-2,0,0,-2,-1
1514892798766234,0,0,-1,-2,-1,-3,0,-3
1514892798787761,0,-3,-1,-1,-3,-1,-1,-1
1514892798787761,-2,-1,-1,0,-2,-2,0,-1
1514892798788252,-1,0,-3,-2,-1,0,-2,-4
1514892798788252,0,-2,-2,-2,-1,0,-2,-1
1514892798810264,-1,-2,0,1,0,-1,-1,-2
1514892798810264,-5,-1,0,-1,0,1,-2,-1
1514892798810766,-1,1,-2,-1,-2,-4,0,3
1514892798810766,-1,-1,-2,0,-1,0,0,-1
1514892798825775,-1,-2,-4,-2,-2,-2,0,1
1514892798825775,0,-1,-1,-1,-3,-1,0,-2
1514892798832780,0,-1,0,-1,-1,-2,-1,-2
1514892798832780,0,-1,-2,-1,-1,-1,-1,-3
1514892798847802,-3,0,1,-2,-1,-1,-1,-1
1514892798847802,-1,0,1,0,0,0,-3,-1
1514892798848792,-2,-2,-5,-1,0,-1,0,0
1514892798848792,-1,-3,-1,-1,-2,-1,-1,-1
1514892798870306,-2,-2,-2,-1,0,-2,-3,0
1514892798870306,1,0,3,0,-1,-2,-1,-1
1514892798870807,-1,0,-5,-1,0,1,-1,0
1514892798870807,-2,-1,2,1,0,0,-2,0
1514892798885320,-1,-2,2,0,0,0,-2,-2
1514892798885320,-2,0,-1,-1,-1,0,-2,-1
1514892798885818,0,0,2,-1,-3,0,-2,-1
1514892798885818,1,0,-4,-1,-2,-1,-1,-1
1514892798907833,-2,-2,-3,0,-2,-2,-1,-1
1514892798907833,-2,-1,-2,0,-1,0,-1,-1
1514892798908333,-1,0,-1,0,0,-1,0,-1
1514892798908333,-1,-2,-1,-1,-2,-3,0,-2
1514892798930349,0,-2,-1,1,0,-1,0,-1
1514892798930349,1,-2,-4,-2,0,-1,-1,0
1514892798930850,0,-1,0,-2,-1,1,-4,-3
1514892798930850,-1,-1,-1,-1,1,-1,0,2
1514892798944859,-1,0,1,0,1,-2,0,-2
1514892798944859,0,-2,-2,-4,-2,-1,0,-1
1514892798945860,-1,0,7,0,-2,0,0,-2
1514892798945860,-2,-1,-9,0,-1,0,0,-2
1514892798967375,-3,-1,0,-2,-1,2,-1,-2
1514892798967375,-1,1,-3,0,-1,-1,1,-1
1514892798968376,0,1,-2,-2,-3,0,-4,-1
1514892798968376,-4,-5,3,-1,0,1,-3,0
1514892798989891,0,-2,-3,0,0,-1,0,0
1514892798989891,-1,1,5,1,0,-3,-1,-2
1514892798990892,0,0,0,-1,-1,-1,-1,-3
1514892798990892,-1,-1,1,-2,-2,-1,0,-3
1514892799013425,-2,-3,-8,-3,-3,-1,-1,-3
1514892799013425,-2,0,-1,0,-3,-1,-2,1
1514892799014409,-1,-1,1,1,0,-2,-2,-1
1514892799014409,-1,-1,-1,-2,-2,-1,-2,-3
1514892799027918,-1,0,-1,-2,-1,0,-1,1
1514892799027918,0,0,-3,-2,0,2,0,-1
1514892799028419,-4,-3,0,-1,-1,-3,-1,-1
1514892799028419,1,-1,-2,0,-2,-1,-3,-1
1514892799049948,0,-2,-1,0,-2,-1,-1,-1
1514892799049948,-1,0,-3,-1,-3,-1,-2,-3
1514892799050935,0,1,-2,-3,-1,0,0,1
1514892799050935,0,0,3,-2,0,-1,0,-2
1514892799064983,-1,-2,-2,0,-1,-2,-1,1
1514892799064983,-2,-3,-2,0,-1,-2,-1,-1
1514892799065983,-1,-1,-2,-1,0,0,-2,-1
1514892799065983,-1,-3,-2,0,-1,-1,-1,-1
1514892799087497,-1,-2,0,-1,0,-1,-2,-2
1514892799087497,0,0,-1,0,0,-1,-1,-1
1514892799088497,-2,0,-5,-1,-1,0,-1,-1
1514892799088497,0,-1,-1,-2,-1,-1,0,-1
1514892799110002,0,-1,-1,-2,-4,0,-2,-3
1514892799110002,-1,1,-1,-2,-2,0,-1,-1
1514892799111004,0,1,0,-1,-2,-1,0,-2
1514892799111004,-3,-4,-8,-1,0,0,0,-2
1514892799125022,-1,-1,1,-2,0,0,-1,-1
1514892799125022,1,-1,-3,0,0,-1,-2,-1
1514892799126013,0,-1,-1,-2,-2,-2,-2,0
1514892799126013,-1,-2,1,-1,0,-1,0,0
1514892799147538,0,-3,-1,0,0,-1,-1,-1
1514892799147538,0,2,0,-1,-1,0,-1,-2
1514892799148531,0,-1,-4,0,2,-2,1,0
1514892799148531,0,-1,-2,-2,0,-1,-2,-2
1514892799170555,0,-2,1,-2,-2,-1,-1,1
1514892799170555,-1,-2,2,-1,-3,-1,-2,-1
1514892799171546,-2,-1,-5,-2,-3,-2,-1,0
1514892799171546,-2,-3,1,-2,-1,-1,-1,-1
1514892799185055,0,-3,1,1,-1,-2,0,0
1514892799185055,-2,-1,-2,-2,-2,-1,-2,0
1514892799186056,-1,1,-1,-1,-1,0,-1,0
1514892799186056,0,-2,-3,-1,-1,-2,-1,-1
1514892799207572,0,-2,2,0,0,-1,1,-1
1514892799207572,0,0,0,0,-1,-1,0,0
1514892799208072,0,0,-2,0,0,1,-1,-1
1514892799208072,-2,-1,2,0,-1,1,-1,0
1514892799230096,-1,-2,-1,-1,-1,0,-1,-2
1514892799230096,-1,-1,-1,-1,0,-2,-1,1
1514892799231088,-4,-3,-3,-4,-2,-1,-3,-3
1514892799231088,-2,-1,0,0,-2,-1,-1,0
1514892799244607,-4,-4,-2,0,0,-1,-1,-3
1514892799244607,-1,-2,-1,0,-1,0,-1,-2
1514892799260117,-1,1,-2,0,-1,-1,-2,-2
1514892799260117,-2,-2,-2,-1,-2,-2,0,1
1514892799267624,-1,-2,-2,-1,-1,-1,0,-2
1514892799267624,1,2,2,-1,-2,-1,-1,0
1514892799268114,0,-1,-1,-2,-1,-2,0,-3
1514892799268114,-3,0,-2,-2,-1,-2,-1,-1
1514892799290133,-1,-2,-4,-2,-2,-1,-1,-2
1514892799290133,-1,1,0,-2,0,0,-1,-1
1514892799290630,-1,0,0,-2,0,0,-1,0
1514892799290630,-1,-1,-1,-2,-1,-1,-1,-1
1514892799304661,-3,-2,0,-1,0,-1,-2,-3
1514892799304661,-2,-2,-4,-2,0,-2,-1,-4
1514892799312649,1,1,1,-2,0,-2,-1,1
1514892799312649,0,-1,-2,-1,-4,-2,-2,-2
1514892799327661,1,-2,-2,1,-1,-2,0,1
1514892799327661,-3,-2,-1,-3,-1,-1,-1,-1
1514892799328671,-3,-1,-3,-1,-2,-1,-2,-3
1514892799328671,0,-4,-1,1,0,-2,-1,-1
1514892799350182,0,-3,0,-2,-1,0,-1,1
1514892799350182,0,-1,0,-1,-1,-1,0,0
1514892799351189,1,1,0,-1,-3,0,1,-1
1514892799351189,-1,0,-3,-1,0,-1,-1,-1
1514892799364683,0,-3,0,-3,-3,-4,-2,-1
1514892799364683,-1,1,-1,0,0,-1,0,1
1514892799373689,0,1,-1,-2,-1,-3,-2,-2
1514892799373689,0,-1,0,-2,-1,-1,1,-1
1514892799387710,-2,-1,-1,-1,-1,0,0,1
1514892799387710,-1,0,-2,-1,-2,0,-3,-2
1514892799388200,0,1,-3,1,0,-2,-1,-1
1514892799388200,1,-2,2,0,-1,-2,-2,0
1514892799418325,-3,-1,1,-2,-1,1,-1,-3
1514892799418325,-1,1,0,0,-1,0,0,0
1514892799419326,-2,-2,1,-1,-1,0,-2,1
1514892799419326,-2,-3,-2,-1,1,-3,-1,-2
1514892799424332,-1,-1,0,0,-2,-1,-2,-2
1514892799424332,-1,-1,0,-1,-2,1,-2,0
1514892799448848,-2,0,6,-2,-2,0,-3,0
1514892799448848,-3,-2,-6,0,-2,-1,0,0
1514892799450348,-2,-3,-3,-2,0,-2,-2,-1
1514892799450348,-1,1,-3,-1,0,-2,3,-1
1514892799451350,0,0,-4,-1,-1,-2,0,-2
1514892799451350,-1,-3,0,-1,-1,-1,-3,-1
1514892799470362,-1,-1,-2,-1,-2,-2,-1,-1
1514892799470362,1,1,-2,-1,1,-1,-1,0
1514892799470871,0,1,-1,-1,0,0,-2,0
1514892799470871,-2,-2,-1,-2,-1,0,2,-2
1514892799484372,-2,-3,-3,0,0,-2,-2,-1
1514892799484372,-1,0,1,0,-2,-1,-3,0
1514892799492890,-2,0,-4,-2,-1,-3,-1,0
1514892799492890,0,-1,0,0,-3,1,0,0
1514892799507398,-1,-1,-1,1,-1,0,-2,-1
1514892799507398,-2,1,0,0,-1,-2,-1,-1
1514892799508393,0,-2,-4,-2,-1,0,-1,0
1514892799508393,-2,-1,0,-1,1,-3,-1,-1
1514892799530405,-1,-3,1,-2,-1,-1,1,1
1514892799530405,0,0,-1,-1,-1,-2,-2,0
1514892799531908,-2,0,-2,-1,0,0,-1,-1
1514892799531908,0,-2,0,-1,-1,-2,-1,-1
1514892799544925,-2,0,-1,-1,0,0,-2,-2
1514892799544925,-3,-1,-2,-1,-1,-3,-2,-2
1514892799552420,-1,0,-2,-2,-2,-1,-1,0
1514892799552420,-1,-1,0,0,0,1,-1,-1
1514892799567431,-1,-2,-1,-1,0,-1,-1,-1
1514892799567431,0,0,-3,-3,-2,-1,-1,-2
1514892799568431,-3,-2,3,1,-1,1,1,-2
1514892799568431,0,-3,-5,-2,-1,-1,-1,-1
1514892799589954,-2,-4,-1,0,-1,-1,0,1
1514892799589954,-1,0,-2,-2,1,0,-3,1
1514892799590948,1,1,2,-2,-2,0,-2,-1
1514892799590948,-1,-2,-5,-1,-3,1,-2,-3
1514892799620969,-2,-4,0,0,-1,-1,1,-2
1514892799620969,0,0,-2,-2,-1,-2,0,-2
1514892799621473,-1,1,0,0,0,-2,-1,-1
1514892799621473,0,-2,2,0,-1,-2,-1,0
1514892799627473,1,1,-1,-1,-2,-3,-1,-1
1514892799627473,-1,2,0,1,-2,-2,-1,-1
1514892799628486,-2,0,-5,-2,-1,-2,0,-1
1514892799628486,-2,-2,1,-1,-2,-1,-1,-3
1514892799649999,-1,-4,-2,-2,1,1,0,-1
1514892799649999,-2,0,3,-1,-1,-1,-1,-1
1514892799650999,-1,-1,-4,-2,-1,-3,-3,0
1514892799650999,-2,-1,0,-1,-1,-1,-1,2
1514892799681023,-1,-2,-4,-1,1,-1,-1,0
1514892799681023,0,0,-1,-1,-1,0,-1,-1
1514892799681530,-1,-1,-2,-1,-2,1,-2,-1
1514892799681530,-1,0,0,-2,-1,-1,1,-2
1514892799687516,-1,-2,1,1,-1,-2,0,-1
1514892799687516,2,0,-4,0,-2,-2,0,-2
1514892799695022,-1,1,0,-2,-1,-2,-1,0
1514892799695022,0,-3,1,0,-1,1,-1,-1
1514892799710533,-1,-2,-6,-1,0,2,1,-1
1514892799710533,-1,-1,0,0,-1,-1,0,-1
1514892799712034,-1,0,0,-2,-1,0,0,-2
1514892799712034,0,-3,1,-2,-1,-2,-1,-1
1514892799733548,-1,-3,-1,-2,-2,0,-2,-1
1514892799733548,-1,0,-2,-1,-1,0,-1,0
1514892799734048,0,0,-2,-1,-2,-1,-1,-2
1514892799734048,-2,-2,-1,-2,0,-2,0,2
1514892799748063,-2,-2,2,2,0,1,-2,-2
1514892799748063,-1,0,-3,-2,-2,1,-1,1
1514892799748562,-2,0,-3,-2,-1,-1,1,1
1514892799748562,-1,-3,-3,0,-1,-1,-1,0
1514892799770074,0,-2,-1,-1,-1,-2,-2,-2
1514892799770074,-2,0,1,-1,-1,-3,0,0
1514892799771075,-3,-1,-5,-2,-1,-1,-1,-2
1514892799771075,-1,-2,-2,-1,-2,-2,-1,-4
1514892799793100,1,-2,-1,-1,1,-2,-1,2
1514892799793100,-2,1,0,-1,-1,-1,-2,-3
1514892799794092,1,3,1,0,-1,-2,-2,1
1514892799794092,-3,-1,-3,-2,0,1,1,1
1514892799807612,-1,-3,1,-1,-2,1,-1,0
1514892799807612,-4,-2,-4,-2,-1,0,-2,-2
1514892799808601,0,-1,-1,-2,-1,0,-1,1
1514892799808601,-2,-4,-2,-3,-1,0,-2,-1
1514892799831118,-1,-1,3,0,-1,-2,0,-2
1514892799831118,0,-2,-2,-1,0,-1,-2,-3
1514892799831619,-2,-1,-3,1,-1,-2,0,-1
1514892799831619,-1,-1,2,1,-1,-2,-2,0
1514892799853133,-1,-3,-2,-2,0,-2,0,0
1514892799853133,-2,0,-1,-1,1,0,-1,-3
1514892799854134,0,1,-2,-1,-1,-2,-3,-1
1514892799854134,-1,-2,-1,0,-2,-2,-2,-1
1514892799867643,-1,-1,-1,0,-2,-2,0,0
1514892799867643,0,1,-3,-2,-3,-2,-1,0
1514892799868644,0,-1,0,-1,-1,-1,-1,-1
1514892799868644,1,0,-2,-1,0,2,-1,-2
1514892799890660,-1,-2,1,-2,-1,-2,-2,-2
1514892799890660,0,-1,-2,0,-1,-1,-1,0
1514892799891160,-1,1,-2,-3,-2,-1,-1,0
1514892799891160,-2,-1,2,0,-2,-3,-1,-2
1514892799913215,-2,-3,-9,-2,0,2,0,-1
1514892799913215,-1,1,0,-1,0,0,-2,1
1514892799914180,-1,-1,0,-2,-1,-1,-1,-1
1514892799914180,0,0,7,-1,-1,-2,-1,-2
1514892799927695,-3,-2,-3,0,-1,0,-1,0
1514892799927695,-1,0,2,-1,0,-2,0,-2
1514892799928187,-1,2,-3,0,-2,-1,-1,0
1514892799928187,1,-2,-1,-1,-1,-1,-1,0
1514892799950201,1,-1,3,1,0,-1,0,-3
1514892799950201,0,-1,-1,-2,-2,0,0,-1
1514892799950701,-2,-2,1,0,-1,-1,0,-2
1514892799950701,-3,-6,-4,0,1,-1,1,-1
1514892799975222,-1,-2,-1,-2,-1,-3,-1,0
1514892799975222,0,0,-4,0,-1,0,0,0
1514892799976720,-1,0,-2,0,-2,0,-2,0
1514892799976720,-3,-2,-1,-1,-1,-2,0,-1
1514892799987741,-1,-2,-2,1,-3,1,-1,0
1514892799987741,-2,0,0,-1,-1,-1,-3,-1
1514892799988229,-2,-2,-2,-1,0,-3,-2,-2
1514892799988229,0,-1,-3,-1,-1,-1,-1,-1
1514892800010258,-1,0,3,0,0,0,0,-3
1514892800010258,0,2,0,-1,0,0,-1,0
1514892800010745,1,1,-1,-1,-2,0,-1,-1
1514892800010745,0,-3,-4,0,-2,-1,-1,-1
1514892800033260,1,-1,1,0,1,0,-1,0
1514892800033260,-1,0,-2,1,-1,0,1,2
1514892800034261,-1,0,3,-3,-1,-2,0,-1
1514892800034261,-2,-1,-2,-2,0,-2,0,1
1514892800046789,-2,-2,-1,-1,0,0,-1,-4
1514892800046789,-2,-1,0,-1,0,-2,-2,0
1514892800055291,-2,0,-1,0,1,-2,-2,-3
1514892800055291,0,-1,3,-2,-1,0,-2,-2
1514892800070287,-2,-1,-1,-1,-2,-2,0,-2
1514892800070287,0,-2,-2,-3,-2,0,-1,-2
1514892800077801,-1,1,-2,-2,-1,-1,-2,-1
1514892800077801,0,-2,0,-2,1,0,-1,0
1514892800093312,-1,-2,-3,0,0,-2,-1,0
1514892800093312,-3,-1,1,-2,-2,0,-1,0
1514892800094313,-1,-2,-3,-2,-3,0,-2,0
1514892800094313,-5,-1,-2,-2,-1,-1,0,-1
1514892800107827,-1,-3,-2,-1,-2,0,1,1
1514892800107827,0,1,-2,-2,-1,-2,-2,-2
1514892800108323,1,1,0,-1,-1,-1,-1,-3
1514892800108323,0,2,-2,0,-2,0,-1,-4
1514892800130329,4,-1,0,-1,-1,-2,-1,1
1514892800130329,-1,-1,2,0,-2,-2,-1,-1
1514892800130831,-1,-3,2,-1,0,1,0,-2
1514892800130831,1,-3,-4,-1,-1,-1,-1,-1
1514892800153345,-2,-1,-1,-1,1,1,1,-2
1514892800153345,0,1,-1,-1,0,-1,1,0
1514892800153845,0,1,-4,-3,0,-1,-1,0
1514892800153845,1,-3,-1,1,-2,-1,0,-1
1514892800167356,-1,1,0,0,-1,-2,-1,-1
1514892800167356,-1,-2,-1,0,0,-1,-2,-3
1514892800168357,-2,-2,-8,-1,-1,-3,0,-1
1514892800168357,0,-1,1,1,-1,-1,0,1
1514892800190885,-2,0,3,0,-2,0,-4,-2
1514892800190885,1,0,-9,-2,-3,-2,0,-1
1514892800191372,-2,-2,-2,0,-1,-1,-1,-2
1514892800191372,-3,-2,-4,0,0,1,-2,-2
1514892800213888,-1,-1,2,-1,-1,-2,-3,-2
1514892800213888,-2,-1,0,-1,1,0,1,0
1514892800215898,-1,1,-1,-2,-3,-1,0,-2
1514892800215898,-3,-3,-2,-1,-2,-2,-3,-1
1514892800226897,-2,-1,-1,-3,-3,-2,0,-2
1514892800226897,-1,-1,-4,-2,-2,1,-2,-3
1514892800234902,-3,-2,0,0,0,-1,-3,-1
1514892800234902,1,-2,1,0,-1,-1,-1,1
1514892800250914,1,-2,-4,-3,-1,1,0,0
1514892800250914,1,0,4,-1,-1,-1,-1,0
1514892800251414,1,-2,-5,-1,-1,0,-2,0
1514892800251414,-3,-2,-3,-1,-2,-1,-2,-2
1514892800274455,-1,-1,-3,0,-2,-3,-1,1
1514892800274455,0,2,-2,-1,-1,-1,-2,-1
1514892800274931,-2,0,3,-2,-2,0,0,-1
1514892800274931,-2,-1,0,-1,0,-1,0,0
1514892800286951,-3,-3,-2,-3,0,-1,0,0
1514892800286951,1,1,-1,-1,-2,-1,-2,1
1514892800294954,-1,-1,-2,-1,-2,0,-1,-1
1514892800294954,0,-1,-2,-2,0,-1,-1,-1
1514892800311458,-2,0,-2,-2,-1,-2,0,-1
1514892800311458,-1,-1,-1,-1,0,-2,0,-2
1514892800311958,-2,0,1,1,0,0,-1,0
1514892800311958,-1,-1,3,-1,-1,0,0,0
1514892800333487,-3,0,1,-1,-1,-2,1,-1
1514892800333487,-1,2,-1,1,-1,-1,-3,-2
1514892800333987,-2,-2,-2,-1,-2,-1,-3,1
1514892800333987,-4,-4,0,-1,-3,0,-1,-2
1514892800347482,0,2,2,0,0,-1,-1,0
1514892800347482,-1,-3,-7,-3,-1,-2,-2,-4
1514892800362496,0,1,3,0,-1,0,-1,-3
1514892800362496,1,-2,-3,-2,0,-1,0,-2
1514892800370509,0,-4,-2,0,-2,0,-1,0
1514892800370509,-2,2,1,-1,-2,-2,1,-1
1514892800371500,-2,-4,-3,-2,-1,-3,-1,-1
1514892800371500,-1,-1,-1,-1,0,-3,0,-2
1514892800393123,-2,1,-3,-2,0,-1,-2,-2
1514892800393123,0,-1,2,0,-1,0,0,2
1514892800394124,-1,-2,-2,-1,-1,-1,-1,-1
1514892800394124,-1,-1,-2,-2,-2,0,0,0
1514892800407144,1,0,-2,-1,0,1,1,0
1514892800407144,-2,-1,-2,-3,-2,-1,-1,2
1514892800415150,-2,-1,-2,0,-2,0,-1,-1
1514892800415150,-1,-2,-3,-2,-2,0,-1,0
1514892800430649,0,-2,0,-1,0,-1,-1,0
1514892800430649,1,-2,-1,-1,-2,-1,-2,-1
1514892800431652,1,-1,1,0,-1,-1,0,2
1514892800431652,1,-4,-1,0,0,-1,0,-2
1514892800461171,-2,-3,-7,-2,-1,0,-1,-1
1514892800461171,-1,0,3,-2,-1,1,-2,-3
1514892800461670,0,2,3,-1,0,-1,-1,-3
1514892800461670,-2,0,-6,0,0,0,-1,0
1514892800467175,0,-1,0,-2,-1,-2,-2,0
1514892800467175,-2,-1,-1,-1,0,-2,1,-2
1514892800475194,0,-1,-2,-1,-1,-3,-1,-1
1514892800475194,0,-4,0,0,-3,-1,-1,-1
1514892800490701,-1,1,2,0,0,0,-2,0
1514892800490701,-2,-2,-2,-3,0,-1,-1,-1
1514892800491708,-1,-1,-1,-2,0,-1,-2,-1
