timestamp,emg1,emg2,emg3,emg4,emg5,emg6,emg7,emg8
1514894977873662,-1,-1,-1,-3,1,0,-2,-1
1514894977873662,-1,1,0,-1,-1,-2,-3,0
1514894977874661,-3,-1,-1,-1,1,-3,-1,-3
1514894977874661,1,-2,0,-1,-3,-2,0,-2
1514894977905185,-1,-2,-1,0,0,-1,0,-2
1514894977905185,-1,-1,0,0,-1,-1,0,-2
1514894977906686,1,-1,-1,-1,-1,0,-2,-2
1514894977906686,-4,-1,-1,-2,-1,0,-2,-2
1514894977910690,-2,0,-1,0,-3,0,0,0
1514894977910690,-1,-3,-2,0,-1,-1,-2,-1
1514894977911188,0,-1,0,0,-1,-2,-2,-1
1514894977911188,-1,-1,-2,-2,-2,-2,0,0
1514894977933202,0,-3,-1,-1,-1,0,-2,-2
1514894977933202,-1,-1,0,-1,-1,-1,0,-1
1514894977933703,0,1,-1,0,-2,-2,0,-2
1514894977933703,0,-1,-1,-2,1,-3,0,1
1514894977955721,-1,2,-3,-2,-3,0,0,1
1514894977955721,-2,0,-2,-2,-2,-2,0,0
1514894977956720,1,-2,0,-2,0,-1,-1,-1
1514894977956720,-1,-1,-2,-2,-1,-2,0,-2
1514894977978734,0,-3,0,-1,0,-1,-2,-1
1514894977978734,0,-1,1,-3,1,-1,-1,-2
1514894977979235,0,2,-2,-1,-1,1,-1,1
1514894977979235,-3,-1,0,1,-1,-1,-2,-1
1514894977993244,-3,-1,0,-2,-2,-2,-2,0
1514894977993244,-1,1,-2,-1,-2,-1,-1,-2
1514894977993745,-1,0,1,0,-1,-1,1,-1
1514894977993745,2,-2,-2,-1,1,-1,-1,-1
1514894978016762,-2,-3,0,-1,0,0,-1,0
1514894978016762,-1,-2,-3,-1,-2,-1,-2,-1
1514894978018763,0,0,0,-1,-2,-3,-2,1
1514894978018763,-2,0,0,-1,-3,0,-2,-3
1514894978031774,-2,-2,0,-1,0,-2,-1,0
1514894978031774,1,0,-3,-2,-1,-1,-1,-2
1514894978033774,-1,-2,-1,-2,-2,-1,-1,-1
1514894978033774,-1,-3,-1,-1,0,-1,0,-3
1514894978053288,0,-2,-3,0,0,-1,-2,-2
1514894978053288,-1,1,0,-2,0,-1,-3,-1
1514894978053789,-2,1,-1,-2,0,0,-2,-1
1514894978053789,0,0,0,0,0,0,-3,0
1514894978075302,0,-3,0,0,-2,0,0,-1
1514894978075302,1,-2,-1,1,0,-2,0,1
1514894978076303,-2,-1,-2,0,-2,0,-1,-2
1514894978076303,-1,0,-1,-2,-3,-3,-1,-2
1514894978091814,0,-1,-2,-2,-1,-2,-1,0
1514894978091814,-1,-1,-1,-1,-1,0,0,-1
1514894978092815,-1,-1,-1,-1,-1,-1,-2,-1
1514894978092815,0,-3,-3,-2,1,0,-1,-2
1514894978113829,-1,-2,-2,1,-2,1,1,-3
1514894978113829,-2,-2,0,-1,-1,0,-1,0
1514894978114832,-1,0,-1,-1,0,-2,-2,-3
1514894978114832,1,-3,-3,0,-1,-1,-1,-1
1514894978135345,0,-5,2,0,0,-1,-2,0
1514894978135345,-2,-1,0,-1,-1,-1,-1,-1
1514894978136348,-1,-1,-2,0,0,0,0,0
1514894978136348,-1,-2,-1,-1,-1,-1,-2,-1
1514894978150355,-1,0,-2,-1,-1,-1,-1,-1
1514894978150355,-2,0,-1,-2,-1,-2,-2,-3
1514894978151356,-2,0,1,-1,0,-2,0,0
1514894978151356,-2,0,0,-2,-2,0,1,-1
1514894978173371,-2,-1,0,-1,-1,-1,-2,-2
1514894978173371,-2,-1,0,0,-2,-1,-1,-1
1514894978174372,0,1,-3,-2,-1,-1,-1,-1
1514894978174372,0,-2,-2,-2,0,-1,0,1
1514894978195387,-2,-4,-1,-2,-1,-1,-1,-2
1514894978195387,-2,-1,-2,0,-2,0,0,0
1514894978196388,-1,-2,0,0,-1,0,-1,0
1514894978196388,0,-1,-3,0,-2,-1,-1,-1
1514894978210399,1,0,-2,-2,-1,0,-2,0
1514894978210399,-2,-1,-1,-2,-1,-1,1,-2
1514894978211400,-2,-2,-2,-1,0,-1,-1,-1
1514894978211400,-2,-2,0,-2,1,-2,0,-1
1514894978232914,-1,-2,-2,-2,0,-1,-2,-4
1514894978232914,1,-4,2,1,-1,0,0,-2
1514894978233915,1,-1,-3,0,-3,-1,-1,0
1514894978233915,-2,-2,1,-1,-1,0,-1,-1
1514894978255431,0,-1,-2,1,0,0,-2,1
1514894978255431,0,0,-2,-2,-2,-2,-1,-2
1514894978256432,0,2,-1,-2,0,-1,-2,-2
1514894978256432,-4,-2,1,0,-1,1,0,-1
1514894978270945,-1,-4,0,-1,0,0,-1,-1
1514894978270945,-1,1,-1,-2,-2,-1,-2,-1
1514894978271444,1,-1,0,-1,0,-2,1,0
1514894978271444,-3,-4,-1,-2,-1,-1,-1,0
1514894978292958,-1,0,0,-2,-1,-2,-2,-1
1514894978292958,2,-1,-2,-2,-1,-1,1,-1
1514894978293962,-1,-1,1,-1,-2,-1,0,-1
1514894978293962,0,-2,-1,-1,-1,-1,-1,-1
1514894978315973,-2,-2,-1,1,-1,-2,-1,-2
1514894978315973,-1,0,-1,-1,-2,-1,-3,-1
1514894978316974,-2,2,-1,-1,-1,-1,-2,1
1514894978316974,0,-1,-2,-2,-2,-3,-2,-2
1514894978329983,-2,2,-4,-3,-1,-1,-2,-2
1514894978329983,0,0,-1,1,-1,0,0,-2
1514894978338990,-1,-2,-1,0,-2,0,-2,0
1514894978338990,0,-1,-1,0,-2,-1,-2,-1
1514894978353001,0,0,-2,-1,0,-1,0,-2
1514894978353001,-2,1,-2,0,0,0,-1,-1
1514894978354002,-4,-2,0,-1,-1,-1,0,-2
1514894978354002,-1,-1,-2,-1,0,-1,0,-1
1514894978375516,1,-2,-1,-1,-1,0,0,1
1514894978375516,-2,1,-2,-1,-1,-2,0,-2
1514894978376016,1,0,-2,-2,-2,0,-2,-1
1514894978376016,0,-4,0,-1,-2,1,0,-1
1514894978390026,-2,-1,-4,-3,-2,-1,-2,-1
1514894978390026,0,1,-2,-2,0,-1,-3,1
1514894978398031,-1,0,-4,-2,-1,-3,-1,-2
1514894978398031,-2,-4,-1,-1,-1,-2,-1,-1
1514894978413053,0,-1,1,0,-1,-2,-1,0
1514894978413053,1,3,-1,-2,-1,-3,0,-2
1514894978414054,-1,-2,-2,-1,0,-2,0,0
1514894978414054,-3,-4,0,-1,-1,0,-1,0
1514894978436058,-1,-2,2,0,0,-1,-1,1
1514894978436058,-1,2,-2,-2,-3,-1,-2,-2
1514894978438080,-1,-3,0,-1,-2,-1,-1,-2
1514894978438080,0,-3,0,-2,-2,0,-1,-3
1514894978451568,-1,-3,-1,-2,-1,0,0,0
1514894978451568,0,0,-1,-1,-3,-1,-1,1
1514894978458073,0,5,-1,-2,-1,0,-1,-2
1514894978458073,-3,-10,-3,0,0,-1,-2,-3
1514894978473084,-1,-5,-1,-1,-1,0,0,-4
1514894978473084,-3,2,-1,-2,-2,-2,-2,0
1514894978474084,-1,-1,-2,-1,-2,-2,0,-1
1514894978474084,-3,2,0,-1,-1,0,-1,-1
1514894978495601,-1,-2,-1,0,-1,-1,0,-1
1514894978495601,-2,-6,-3,-2,0,0,-2,-2
1514894978496101,-2,1,-3,0,-1,-2,-2,-1
1514894978496101,1,2,-1,-1,-1,-1,-4,-1
1514894978512113,-2,-4,-2,-2,-2,-1,-1,1
1514894978512113,-1,1,0,0,0,-1,1,0
1514894978518116,0,1,1,0,-1,-1,0,-2
1514894978518116,1,2,0,0,0,-1,-1,0
1514894978533144,0,-4,1,-2,-2,-1,-1,-1
1514894978533144,0,-3,1,-1,0,-1,0,-1
1514894978533627,-1,-3,-1,-1,-1,-1,0,-1
1514894978533627,0,0,-2,-3,-2,-1,0,-1
1514894978555642,-2,1,-2,-2,0,-1,-1,-1
1514894978555642,-1,-3,3,2,0,-1,-1,-3
1514894978556143,-1,1,-1,-1,0,-1,0,-2
1514894978556143,0,-1,0,0,-2,1,0,1
1514894978570656,-1,-1,-3,0,-1,-2,-2,0
1514894978570656,-2,0,0,-2,-1,-2,-1,0
1514894978578158,-1,1,-2,-1,-2,-1,-2,-2
1514894978578158,-1,-1,-2,-1,-1,-2,-1,-1
1514894978601175,-2,-3,1,-2,-1,-1,0,-1
1514894978601175,-1,-3,-1,0,-1,-1,-1,-1
1514894978602176,0,2,0,-2,0,-1,-1,-2
1514894978602176,0,-1,-3,0,0,-2,-1,-1
1514894978615685,0,-4,0,0,0,-1,-1,-3
1514894978615685,-1,0,-2,-2,-2,-1,-2,-1
1514894978616185,0,-1,-1,1,0,-1,-1,-3
1514894978616185,-2,-1,1,-3,-2,-3,0,0
1514894978629695,-2,-3,0,-1,-1,-1,0,-3
1514894978629695,-1,0,-4,-1,-1,-2,0,-2
1514894978638200,-1,1,0,-1,-1,-1,-2,1
1514894978638200,0,-5,2,0,-1,-1,0,-2
1514894978653216,-2,-1,-1,0,-2,-1,-1,-1
1514894978653216,-2,-2,-1,-2,-1,0,-1,-2
1514894978653715,0,0,-3,-3,-1,-2,-1,0
1514894978653715,2,2,-3,-2,-1,0,-1,-2
1514894978675727,-3,-3,0,-1,-1,-2,-1,0
1514894978675727,-1,-2,-1,1,0,-1,0,-1
1514894978676228,0,0,-1,-1,-1,-1,-1,1
1514894978676228,0,0,-2,0,-2,-2,-2,0
1514894978698743,0,-3,0,0,-1,-1,0,-2
1514894978698743,0,0,-1,0,-1,-1,1,0
1514894978699745,-1,0,-2,-2,-2,-1,-2,1
1514894978699745,-1,0,-1,-1,-1,0,-2,0
1514894978713253,-2,-2,-1,0,-1,-2,-1,0
1514894978713253,-2,-2,-1,-1,-1,-1,-1,-2
1514894978713753,-2,1,-3,0,0,-1,1,-2
1514894978713753,-2,-2,-2,-1,-1,0,0,-2
1514894978735273,1,-2,-2,-1,-2,-2,-3,-1
1514894978735273,0,0,-2,-1,-2,-1,-1,-1
1514894978736269,-1,-1,0,0,-3,-2,-1,-3
1514894978736269,-3,2,-5,-2,-1,0,-3,-1
1514894978758795,0,-3,-2,0,-3,0,-2,-1
1514894978758795,-2,1,-1,0,1,0,-3,-3
1514894978759287,1,-1,-1,-1,-1,-2,-1,0
1514894978759287,-1,-2,-1,0,0,0,-1,-1
1514894978773312,-1,-2,-2,-1,-1,1,0,-2
1514894978773312,0,1,-1,1,-2,0,-1,-1
1514894978773797,-3,1,-1,-2,0,-1,-1,-3
1514894978773797,0,-2,0,-2,-1,-2,-1,-2
1514894978795312,-2,-3,0,-1,0,-2,-1,-2
1514894978795312,-2,-1,-2,0,-1,0,-2,0
1514894978796312,0,1,1,-2,-2,-1,-3,-1
1514894978796312,-1,-1,0,-2,-3,0,1,-3
1514894978818835,0,-2,-2,-2,-1,0,-1,-2
1514894978818835,-1,-1,2,-1,-2,-2,-1,-1
1514894978819330,0,-1,-1,0,-1,-2,-1,0
1514894978819330,-1,-2,0,0,0,-2,-1,0
1514894978832838,-1,-4,-1,0,0,-2,-1,-1
1514894978832838,0,0,-2,-1,-1,-3,0,-2
1514894978833839,0,2,-2,-3,-2,-1,-1,0
1514894978833839,1,3,-4,-4,-2,-1,-2,-1
1514894978855855,-1,-5,0,-1,0,-1,-2,-2
1514894978855855,-1,-1,-2,-2,0,-3,-1,0
1514894978856355,-2,0,-1,1,-1,-1,0,-2
1514894978856355,-2,-1,-3,-3,-2,-1,-1,-1
1514894978878886,-1,-2,0,-1,0,-1,-3,-1
1514894978878886,0,0,-1,-1,-2,0,-2,-1
1514894978879372,1,1,0,-2,-1,-3,0,-2
1514894978879372,0,-3,0,1,0,-3,1,-2
1514894978892881,-1,-2,0,-2,-1,0,-3,-2
1514894978892881,-2,-1,0,0,0,0,1,-3
1514894978893881,-2,1,-3,0,-1,-1,0,-2
1514894978893881,0,-3,-1,0,0,0,0,-2
1514894978915406,-3,-2,0,-1,-2,-1,0,-2
1514894978915406,-2,-1,-1,-2,-2,-2,-1,0
1514894978916406,0,0,-1,-3,-1,0,-1,0
1514894978916406,-2,-4,1,-1,0,-2,-2,-2
1514894978938418,-2,-1,-1,-1,-1,2,0,-1
1514894978938418,-1,0,1,-1,-1,-1,-1,-1
1514894978939414,-2,-1,-2,-1,-2,0,-1,0
1514894978939414,-3,-3,1,-2,1,0,-3,3
1514894978953428,-1,-2,0,-1,-1,-1,-1,-1
1514894978953428,-1,-1,-2,0,1,-1,-3,-2
1514894978953927,-1,-1,0,-1,-1,-1,-2,-2
1514894978953927,-3,-1,-3,-1,-2,-1,-1,-1
1514894978975451,-1,-1,0,-1,-1,-1,0,1
1514894978975451,-2,-1,-2,-3,-4,-2,0,-1
1514894978976451,0,1,-2,-1,-1,-2,0,1
1514894978976451,-1,-3,-2,-2,-3,-3,0,-2
1514894979006973,-1,-6,-1,0,-1,-2,0,-2
1514894979006973,-1,-1,-1,-3,-2,0,-2,0
1514894979008462,-1,0,0,-1,-1,-1,-1,-2
1514894979008462,-1,-2,-1,-2,-1,0,-2,-2
1514894979021472,1,-3,0,-1,-1,0,-2,-2
1514894979021472,0,1,-2,0,-2,-2,-1,0
1514894979021973,-1,0,0,-1,-1,-1,-1,-2
1514894979021973,0,-1,-1,0,0,0,-2,-1
1514894979035481,-2,0,-2,-1,-1,-1,-3,1
1514894979035481,-1,-1,-2,-1,0,0,-1,-1
1514894979036490,1,0,-1,-2,0,-1,1,-1
1514894979036490,-1,-2,1,-1,-1,-1,-1,-2
1514894979058997,-2,-1,-2,-1,-2,-2,0,0
1514894979058997,-1,-1,-2,0,-2,-2,-2,0
1514894979059498,-1,1,-1,-2,-2,-1,-2,-1
1514894979059498,1,-2,-1,-1,-2,-2,-1,-1
1514894979073511,-3,-3,-1,-1,0,-1,-1,-2
1514894979073511,-1,0,0,-1,0,0,-1,-1
1514894979074011,-3,0,-1,-1,-2,-2,-2,-2
1514894979074011,0,0,-2,-2,-2,-1,-2,0
1514894979095525,-1,-3,-3,-1,-1,-2,-3,-1
1514894979095525,-2,0,-1,-2,-2,-3,1,0
1514894979097027,-1,0,-2,-1,-2,-1,0,-2
1514894979097027,-1,-2,-2,-2,-2,-1,-2,0
1514894979118540,-1,0,-3,-1,-1,-2,0,0
1514894979118540,-1,-1,1,1,-1,-2,-1,-2
1514894979119040,1,1,-2,0,-2,-2,-1,0
1514894979119040,-2,-3,0,-1,-1,-2,0,-1
1514894979133067,0,-2,0,2,0,-1,-1,-1
1514894979133067,0,0,-1,-1,-1,-1,-2,-1
1514894979134051,0,-3,2,-3,-1,1,-1,0
1514894979134051,-1,-1,0,-1,-2,-1,0,-2
1514894979155578,-2,-1,-3,-2,-1,-1,0,0
1514894979155578,1,1,-2,-2,0,-1,0,-3
1514894979156066,-1,-1,-3,-3,-1,-1,-1,0
1514894979156066,-1,-2,-1,0,-1,-2,-1,-1
1514894979179082,1,-2,0,0,-1,-1,0,-1
1514894979179082,-3,0,0,-1,-1,-1,-1,0
1514894979180598,-3,0,-1,-1,0,-2,-1,-1
1514894979180598,-2,-2,0,0,1,-1,-2,1
1514894979193094,-1,-2,1,2,-1,1,0,-2
1514894979193094,-2,-1,-1,-1,-2,-3,-2,-1
1514894979193594,-2,1,-2,-1,-1,-2,1,-2
1514894979193594,0,-3,-1,-2,-1,1,-2,0
1514894979215109,-2,-3,-2,-3,-2,-2,0,0
1514894979215109,-2,-2,0,-1,-2,0,-1,0
1514894979223115,-1,-2,-2,-1,-1,-1,0,0
1514894979223115,-3,-1,0,0,-1,-1,-1,-1
1514894979238626,-2,-1,-1,-1,-1,-1,-3,-1
1514894979238626,0,2,-3,-1,0,1,0,-1
1514894979239631,-1,1,-1,-2,-1,-2,-1,-1
1514894979239631,0,-2,0,1,-1,-1,-2,-1
1514894979252635,-2,-1,-1,-1,-1,0,-1,-1
1514894979252635,-2,-2,-1,-1,0,-1,-1,-2
1514894979260649,0,1,-2,0,-2,-1,-2,-1
1514894979260649,0,-2,-2,-2,-2,0,-1,-1
1514894979283658,-2,-3,0,0,0,-1,-1,-1
1514894979283658,0,-1,0,-2,-2,-2,-1,-1
1514894979284657,0,1,1,-1,-2,0,-1,-1
1514894979284657,-2,-3,0,1,0,-2,-2,-1
1514894979298673,1,-1,-2,-3,-1,-1,-1,0
1514894979298673,0,0,1,0,-1,-2,0,-1
1514894979299668,-2,0,-1,-1,-1,0,-2,0
1514894979299668,-1,0,-2,-2,-1,-2,0,-1
1514894979312176,-1,-2,-2,-1,-2,-1,-1,-1
1514894979312176,-2,-1,-1,0,-2,-2,-1,-2
1514894979320689,-1,-1,-3,-1,-1,-2,-1,-2
1514894979320689,0,-2,-1,-1,0,-2,-1,-1
1514894979335694,-2,-3,0,0,-1,-2,-2,0
1514894979335694,-2,-1,-3,0,-1,0,-2,-2
1514894979336194,-1,-2,-3,-1,-1,-1,0,1
1514894979336194,-2,-2,-2,-1,0,1,0,-1
1514894979358710,-1,-1,1,0,-3,-1,-2,0
1514894979358710,-1,-1,-2,-1,-3,-2,-3,1
1514894979359721,-1,0,0,-1,0,-2,0,-1
1514894979359721,0,0,-1,-1,-2,-2,-1,-2
1514894979372219,-2,-3,2,-1,-1,0,0,0
1514894979372219,-2,-1,-1,-1,-1,-2,0,0
1514894979380726,0,-1,-1,-1,-2,-1,-2,-2
1514894979380726,-2,-2,0,-1,-1,-1,0,-1
1514894979395247,0,-2,-1,-1,-1,-1,0,-2
1514894979395247,-2,-1,-2,-2,-1,-1,0,-1
1514894979396240,-1,-2,-2,-2,-2,-2,-1,0
1514894979396240,-2,-1,0,-1,0,-2,0,-2
1514894979426270,0,-1,-1,-1,-1,-1,-2,-2
1514894979426270,1,-1,-2,-1,-2,-1,-1,0
1514894979426758,-2,-1,0,-1,-1,-1,-1,-1
1514894979426758,-1,-2,-1,-2,-3,-1,-2,-1
1514894979433262,0,-2,-1,-2,0,0,0,0
1514894979433262,0,0,-1,-1,-2,0,0,-2
1514894979440784,-1,-2,-1,-2,-2,-2,1,-3
1514894979440784,-1,-3,-1,-1,-1,-1,-2,1
1514894979455278,-2,-1,0,0,-1,-1,-3,0
1514894979455278,-2,0,-1,-1,-1,-1,-2,-1
1514894979456279,-1,1,-2,0,-1,-2,-2,-1
1514894979456279,0,-1,-1,-1,0,-1,-1,-1
1514894979478807,-2,-2,-2,-1,-2,0,0,0
1514894979478807,-1,1,-2,0,0,0,0,-2
1514894979479295,0,-1,0,0,-1,-1,1,-1
1514894979479295,0,-2,-1,-2,-2,-1,-1,1
1514894979501311,0,0,-1,-2,-2,-2,0,0
1514894979501311,0,-2,0,-1,-1,-2,1,1
1514894979501812,-1,-1,-2,-2,0,0,-1,-2
1514894979501812,-1,-2,-1,0,0,-2,-1,-3
1514894979515332,-2,-1,-1,1,0,-2,-1,-2
1514894979515332,0,0,0,0,-1,-1,-2,-2
1514894979516322,0,-1,0,-1,1,-1,-1,0
1514894979516322,-1,-2,0,-2,-1,0,0,-1
1514894979538838,-2,-1,-3,-1,0,0,-1,0
1514894979538838,-1,0,0,0,-2,-1,-1,-1
1514894979539337,0,0,-1,-1,0,-2,-1,-1
1514894979539337,-1,-1,-3,-2,-3,0,-1,0
1514894979552347,-1,-2,0,0,-2,0,-1,-1
1514894979552347,0,1,0,-3,-2,0,-1,-2
1514894979560353,-3,-1,-1,-4,-3,-1,0,-2
1514894979560353,-2,-1,-1,0,-1,-1,1,-2
1514894979575364,0,0,-1,-1,0,0,-1,0
1514894979575364,-1,-1,-1,-2,0,-1,-1,0
1514894979576364,-1,0,-1,-1,0,-2,-2,-1
1514894979576364,0,-2,-2,0,0,-1,-2,-2
1514894979598381,-2,-1,-3,-1,-3,0,0,-2
1514894979598381,0,0,-2,-1,-1,1,-1,-1
1514894979599381,-1,-1,-1,-1,-2,-1,-1,-2
1514894979599381,-2,-2,-1,-1,-2,-1,-3,-1
1514894979612388,-1,1,-2,-1,-1,-2,-2,-2
1514894979612388,-2,0,-1,-2,-1,-2,-1,-2
1514894979620895,-1,-1,-3,-1,-1,-2,-1,-1
1514894979620895,-1,0,-1,-2,-2,-2,-2,-1
1514894979636911,0,-3,-1,-1,-1,-1,-1,-1
1514894979636911,0,0,-1,0,-1,-2,1,-1
1514894979638420,0,-1,-2,1,-1,-2,-2,1
1514894979638420,-3,-3,-1,-1,0,-2,-1,0
1514894979658437,0,0,-1,-3,0,-4,-1,0
1514894979658437,-1,1,-2,-1,-3,-2,0,-2
1514894979659438,-2,-2,-2,-2,-1,-2,0,0
1514894979659438,1,-1,-2,0,-1,-3,-1,-2
1514894979681441,0,0,-3,-1,-1,-1,-2,-2
1514894979681441,-3,-1,-1,-1,1,-1,-2,0
1514894979682939,1,-1,0,-3,-1,-1,-2,-1
1514894979682939,0,-2,0,0,-1,-1,-2,1
1514894979695460,-1,-1,-1,0,-1,-1,0,-1
1514894979695460,1,-1,-1,-1,-2,-1,-1,-1
1514894979703461,-1,-1,1,0,1,0,-1,-1
1514894979703461,-1,-3,-2,-1,-1,0,-1,-1
1514894979718464,-2,-1,-1,1,-1,-1,-1,0
1514894979718464,-1,0,-3,-2,0,0,-2,0
1514894979719465,-1,1,0,1,-2,0,0,0
1514894979719465,-1,1,0,-1,0,-2,1,0
1514894979740980,-3,0,0,-1,-4,-1,0,-1
1514894979740980,-2,-1,0,-2,-1,-1,-1,-1
1514894979741981,-1,-2,-3,-3,-1,-2,-1,-1
1514894979741981,-1,-2,0,-2,-2,-2,-1,-2
1514894979757003,-2,0,-2,-1,0,-1,-2,-2
1514894979757003,-1,1,-3,-1,-3,-1,-1,-1
1514894979758001,-1,-2,-1,-1,-2,-2,-1,-1
1514894979758001,-4,-3,1,-1,-1,0,-1,-2
1514894979778507,-1,-1,1,0,-1,-1,-2,-1
1514894979778507,0,0,-1,1,0,-1,-1,-2
1514894979780522,0,-4,2,0,0,-1,1,0
1514894979780522,-1,0,-1,-1,0,-1,0,-1
1514894979801032,-1,-2,-3,-2,-1,-1,-1,-2
1514894979801032,-1,0,-2,-1,-1,1,-1,0
1514894979803034,-1,0,-1,-3,0,-3,-1,0
1514894979803034,0,0,-2,-1,-1,0,-1,-1
1514894979815535,-2,-2,0,1,-1,-1,-1,1
1514894979815535,1,0,-2,-1,-2,-2,-2,-1
1514894979816033,-1,0,-2,0,-3,-1,-1,0
1514894979816033,-2,-3,-1,-3,-3,-2,-2,0
1514894979838558,-2,-2,-1,0,0,-2,0,0
1514894979838558,-1,-1,0,-1,-2,0,-2,-2
1514894979839559,-3,-1,-2,-2,-1,-1,-1,-2
1514894979839559,0,-1,-1,-2,-1,-2,-1,-1
1514894979861067,2,-1,0,0,-3,-2,-1,2
1514894979861067,0,0,-1,-1,-1,-1,0,0
1514894979863078,0,-1,-2,0,-2,-1,-1,-2
1514894979863078,0,-3,-3,1,-1,0,-1,-1
1514894979875618,-2,1,0,-3,-1,0,-1,-1
1514894979875618,-2,-2,0,0,-1,-2,-2,-1
1514894979876110,-1,-1,-1,-1,-2,0,-1,-1
1514894979876110,-1,-2,-1,0,-2,-2,-1,-1
1514894979898633,-1,-2,-2,0,0,0,-1,-2
1514894979898633,-1,-1,-2,-2,-1,-2,0,-2
1514894979899635,-2,-2,-2,-1,-2,0,-1,-1
1514894979899635,0,-2,-1,0,0,0,0,0
1514894979922142,1,-2,0,0,-1,0,-2,-1
1514894979922142,1,0,0,-1,0,-2,-1,0
1514894979923642,-2,-1,-1,-1,-1,0,-3,-1
1514894979923642,-1,-2,-2,-1,-2,-1,-2,-1
1514894979934662,-1,-1,-1,-1,-2,0,-1,-1
1514894979934662,-1,0,-3,-1,-2,-1,0,0
1514894979943656,1,-1,-1,0,-1,-1,-3,0
1514894979943656,0,-4,-2,-1,-2,-1,1,-1
1514894979957666,-2,-1,1,-2,0,-1,1,-3
1514894979957666,-1,1,0,0,-1,-1,-1,-1
1514894979984685,-2,-1,-1,-2,-1,0,0,-2
1514894979984685,-1,0,-1,-1,-2,-2,-1,-1
1514894979985686,-1,-2,-1,0,-2,-2,-2,0
1514894979985686,0,-1,-2,-1,-1,0,-1,-1
1514894979987689,-3,-3,-1,-1,-2,1,-2,-1
1514894979987689,-2,0,0,-2,0,-1,-3,-2
1514894979994705,-1,2,-1,-1,0,-1,-1,-2
1514894979994705,-1,0,-2,-1,-1,-2,-2,-1
1514894980005201,0,-1,-2,-3,1,-2,-2,0
1514894980005201,-1,-2,-2,-2,0,-2,-1,-1
1514894980018763,0,2,-2,-4,0,-2,-1,-1
1514894980018763,-1,1,-1,-1,-2,-2,-2,-2
1514894980021255,0,-1,-1,0,-2,-1,0,-1
1514894980021255,-1,-2,-2,0,-1,-1,1,0
1514894980041278,-1,-2,-4,-3,1,0,-2,-1
1514894980041278,-1,-2,-1,-2,-1,0,-1,-2
1514894980042780,0,1,1,-1,0,0,-1,-2
1514894980042780,-3,-2,-3,-2,0,1,-1,0
1514894980054790,-2,0,0,1,-2,-1,0,-4
1514894980054790,0,0,-1,0,-2,0,0,-1
1514894980063785,0,-2,0,-1,-1,-3,-1,0
1514894980063785,1,-3,0,-2,-2,1,-1,-2
1514894980078805,-1,-1,0,-1,-2,-1,-2,0
1514894980078805,-1,-1,-2,-2,-1,0,-2,-1
1514894980080297,-1,0,-1,0,-1,-1,-2,-2
1514894980080297,-1,-1,-2,-1,-1,-1,-2,-2
1514894980101812,0,0,-1,0,0,-1,-2,0
1514894980101812,-1,-1,-2,0,-2,-3,0,-1
1514894980105315,-2,-1,-2,-2,-1,-2,0,-1
1514894980105315,-1,-2,-2,-1,-2,-1,-1,-1
1514894980114824,0,-2,0,-1,-1,-1,0,-1
1514894980114824,-1,0,-1,0,-1,0,-2,0
1514894980123827,0,-2,-2,-2,-1,-1,-1,-1
1514894980123827,-2,-1,1,-1,-1,-1,-2,-3
1514894980138853,-2,0,0,0,-2,-1,-2,0
1514894980138853,-1,0,-1,-3,-1,-1,1,-2
1514894980140351,-1,-2,-1,0,-1,0,-1,0
1514894980140351,0,-2,-1,0,-1,-2,-2,-1
1514894980161376,-1,0,-3,-2,-1,1,-1,-1
1514894980161376,-2,1,0,0,-1,-2,-2,1
1514894980163856,-1,-3,0,-2,-1,-1,-2,0
1514894980163856,-2,-4,-2,0,1,0,0,0
1514894980174864,-2,0,-2,-1,-1,-1,0,-1
1514894980174864,-1,-1,-2,-1,-1,-3,-3,-1
1514894980183870,-1,-1,-1,0,-2,-1,-1,-1
1514894980183870,-2,-2,-1,0,-1,-2,-2,0
1514894980198890,0,0,-1,-1,-2,-1,0,0
1514894980198890,-1,0,-4,-3,-1,-1,0,0
1514894980201394,-2,-3,-2,-2,-3,0,-1,-1
1514894980201394,-2,-2,-2,-2,-1,0,-1,-1
1514894980222397,-1,0,-1,-1,-2,-2,0,-3
1514894980222397,-2,1,1,-1,0,-2,-1,0
1514894980225399,-2,-1,0,0,0,-1,-1,-1
1514894980225399,0,-4,2,-1,-1,-2,1,-2
1514894980234906,-1,0,-2,0,0,0,-1,-1
1514894980234906,0,0,1,-1,-2,-2,-1,-1
1514894980243913,0,-1,-2,-1,-1,-1,-1,-2
1514894980243913,-1,-4,-2,0,-1,-1,-3,0
1514894980258923,0,0,1,-1,0,-2,-1,-1
1514894980258923,-1,1,0,-1,0,-1,-1,-2
1514894980260924,-1,-1,0,-1,-3,-2,-1,0
1514894980260924,-1,-2,-2,-1,0,-2,0,-3
1514894980280939,-2,-1,-2,0,-1,0,-1,0
1514894980280939,-1,-1,-1,-1,-1,0,0,0
1514894980282939,-1,-2,-1,-1,0,-1,-1,-2
1514894980282939,-3,-1,2,-2,-1,0,0,-2
1514894980294948,-1,-2,0,-2,0,-4,-1,-1
1514894980294948,-1,-1,-1,0,-1,0,-1,-1
1514894980305469,0,0,-1,-1,-1,-1,-1,-2
1514894980305469,-2,0,-3,-1,-2,-1,-2,-1
1514894980318477,-1,0,-2,-2,-1,-2,-1,-1
1514894980318477,0,-1,-2,-1,0,0,-2,-1
1514894980321470,0,0,-2,-2,0,-2,0,-2
1514894980321470,-1,-4,-1,0,-2,-1,-2,0
1514894980340992,-1,2,-1,-2,-2,0,0,-3
1514894980340992,-2,0,-1,-1,-2,-1,1,-2
1514894980342992,-2,-1,-2,-2,-1,-2,-1,-1
1514894980342992,-1,-1,1,1,-2,-1,-2,-1
1514894980354991,-2,-1,-2,-1,-1,-1,-1,0
1514894980354991,-2,-2,-1,-2,-1,0,-2,-1
1514894980363997,-2,-3,-1,-1,0,0,-2,-1
1514894980363997,-2,-3,-1,-1,-1,-1,0,-1
1514894980379008,-1,0,0,-2,-1,0,-1,-2
1514894980379008,0,1,-1,-2,-1,-3,-1,-1
1514894980380025,1,-3,0,0,-1,-1,1,-1
1514894980380025,-1,-3,-2,0,0,-1,-1,-2
1514894980402036,-2,-1,-1,0,-2,-1,-1,1
1514894980402036,0,1,0,0,0,-2,1,0
1514894980405527,-2,-1,-2,-1,-1,-1,-1,0
1514894980405527,-1,-1,0,-2,0,-1,0,-2
1514894980415533,0,0,-1,-1,-1,-3,0,-1
1514894980415533,-1,0,-1,0,-1,-1,-2,1
1514894980424039,-2,-2,0,-1,-1,-2,-1,0
1514894980424039,-2,-2,-1,-2,-2,-1,-1,-1
1514894980438549,-2,0,0,1,0,-2,-2,1
1514894980438549,1,0,0,-3,-2,-1,0,-1
1514894980440051,-1,-3,1,-2,-2,-1,1,0
1514894980440051,0,-2,-1,-2,-2,-2,-1,-1
1514894980461065,-2,-1,-1,-3,-2,1,-1,-2
1514894980461065,-1,2,-2,-2,0,0,-1,0
1514894980462573,1,-1,-3,-1,-1,0,-2,0
1514894980462573,0,-2,-2,-1,0,-2,0,-2
1514894980475085,-1,0,-3,0,-2,1,0,1
1514894980475085,-3,0,-1,-1,0,0,-1,-3
1514894980484082,-1,-1,1,-2,-1,-3,-1,-1
1514894980484082,-3,-2,-1,0,-1,0,0,-1
1514894980498605,-2,0,-1,-1,-2,-2,-1,-1
1514894980498605,-1,-1,-1,-1,-3,0,0,-2
1514894980501106,-1,-2,-1,0,0,-2,-1,0
1514894980501106,-1,-4,0,-1,-1,-1,-2,0
1514894980522109,-2,-1,-1,-1,-1,0,-1,-1
1514894980522109,-2,0,-2,-2,0,-2,-3,-2
1514894980525620,-1,-1,0,-1,-3,-1,-1,-3
1514894980525620,-1,-2,-1,-3,0,-1,-2,-1
1514894980543623,0,-1,-3,-1,-2,-1,0,-3
1514894980543623,-1,0,-3,-1,-1,-2,-1,0
1514894980545126,-1,-2,-3,-1,-1,0,0,-1
1514894980545126,-1,-4,-1,-2,-1,0,-1,1
1514894980558644,1,0,1,-1,0,-1,-2,1
1514894980558644,-1,-2,0,0,-1,-1,0,0
1514894980560136,0,-1,0,-1,-2,0,-1,-1
1514894980560136,-2,-1,-1,1,-2,-1,0,0
1514894980581183,0,0,-2,-2,0,0,0,-3
1514894980581183,-1,2,-2,0,-2,-1,-1,-1
1514894980583662,-2,-2,-3,-1,-1,-2,-1,-1
1514894980583662,-3,-1,-1,-1,-1,1,0,-1
1514894980604168,0,-1,0,-1,0,-2,-1,-1
1514894980604168,1,-1,2,-2,-1,0,1,-2
1514894980610171,-2,-1,-2,-1,-2,-1,-1,-2
1514894980610171,0,-2,-1,-1,-1,-3,-1,1
1514894980618680,-1,1,-1,1,-3,-1,0,-1
1514894980618680,-1,-1,-2,0,-1,-1,-1,-3
1514894980620179,-1,-2,0,-2,-1,-2,-2,0
1514894980620179,-2,-2,-2,-1,0,-2,-3,-2
1514894980641194,-2,1,-1,-1,-2,-1,-2,0
1514894980641194,-3,-1,-1,-2,-1,-1,0,-1
1514894980642695,-2,-2,-2,-2,-1,2,0,-2
1514894980642695,0,-3,0,-2,-1,0,0,-3
1514894980663221,-1,1,0,0,0,0,0,-2
1514894980663221,-1,1,0,2,-3,-1,-1,-1
1514894980670215,0,-3,0,2,-2,-1,-2,0
1514894980670215,-1,-2,0,1,0,-2,-1,0
1514894980678720,-1,0,-1,0,-1,0,-1,0
1514894980678720,0,1,-1,-2,-1,1,0,1
1514894980680221,1,-2,0,0,-1,-2,-3,-1
1514894980680221,0,-2,-2,-2,-1,0,-2,-1
1514894980701235,-2,1,-2,-2,0,-1,-2,-1
1514894980701235,0,0,-3,0,-2,-1,0,-2
1514894980703740,0,-4,-1,-1,-1,-1,-1,0
1514894980703740,0,-3,1,-1,-1,0,-1,1
1514894980722750,0,-1,-1,-2,-1,-1,-1,-3
1514894980722750,1,1,-2,-2,-1,-3,-1,1
1514894980731257,-1,-1,-2,-2,-1,-1,-3,-4
1514894980731257,0,-1,-2,0,-1,-1,0,-1
1514894980738262,-2,-1,-1,0,0,-2,0,0
1514894980738262,-2,0,0,-2,-1,-1,-1,-1
1514894980744767,-1,1,-1,0,-2,0,1,1
1514894980744767,-2,-1,-2,-1,0,0,-2,-1
1514894980761279,-2,0,-1,0,0,0,-2,1
1514894980761279,-1,-1,-2,-2,-1,-2,-2,-2
1514894980762779,-1,-4,0,-3,-1,-1,0,-1
1514894980762779,-2,-3,-1,-1,-3,1,-2,-1
1514894980783810,-1,-1,0,-1,0,-2,-1,-2
1514894980783810,-1,-1,-2,-1,-1,-2,0,-1
1514894980785307,-2,-1,-2,0,0,-1,-1,0
1514894980785307,0,-1,0,-2,-2,0,-1,-2
1514894980797813,0,-2,-3,-1,-1,0,0,-2
1514894980797813,-1,-1,-2,-1,-1,-2,-2,-1
1514894980805309,0,-2,-1,0,-1,-1,-1,-1
1514894980805309,-1,-3,-2,0,-2,-2,-1,-2
1514894980821821,-2,-1,-2,-1,-1,-1,-2,-1
1514894980821821,0,1,-1,-1,0,-1,-2,0
1514894980825333,1,1,-1,0,-1,-1,-1,0
1514894980825333,-2,-1,-2,0,-2,-1,0,0
1514894980843837,0,0,-2,0,0,-2,-2,-2
1514894980843837,0,3,0,0,-2,-1,0,0
1514894980845343,-1,-4,-1,-2,-1,-3,-2,-2
1514894980845343,-3,-3,-1,0,-1,-2,-1,0
1514894980857856,-2,0,-1,-1,-3,-1,1,-1
1514894980857856,-1,0,-3,-2,-2,0,-2,-1
1514894980864873,-2,-2,-1,-1,-1,-1,-2,0
1514894980864873,1,-1,-1,-1,0,-1,-4,1
1514894980881362,-1,0,-1,-2,-1,-1,-1,-1
1514894980881362,1,-1,1,-2,-1,-3,-2,-2
1514894980882865,-2,-3,-2,-2,-3,-1,-1,-1
1514894980882865,-2,-2,-1,-1,-1,-2,0,-1
1514894980904710,-1,0,-1,-2,0,-1,-2,-1
1514894980904710,0,-1,0,-2,0,0,-3,0
1514894980908216,-1,-1,-1,-2,0,1,0,-2
1514894980908216,-1,-1,0,-1,0,0,0,-2
1514894980918219,-1,-1,-1,-1,-1,-1,0,-1
1514894980918219,-3,-1,-2,-1,-1,-1,0,-3
1514894980924723,0,-1,-1,0,0,-2,-1,-2
1514894980924723,-1,-3,-1,0,-1,0,-1,-1
1514894980948744,-1,0,-1,-2,-3,-1,-3,1
1514894980948744,-1,2,-2,-2,-1,-3,0,0
1514894980950241,-1,-3,0,-2,-1,-1,-1,-1
1514894980950241,-1,-3,0,-3,-1,-3,-1,-1
1514894980963754,-1,0,0,-1,-2,-2,-2,0
1514894980963754,0,0,0,-2,-1,-1,-1,-1
1514894980965252,0,-1,-2,-1,-1,-1,-3,0
1514894980965252,-1,-1,-2,-2,-1,-1,-3,-1
1514894980977785,0,0,-1,0,0,0,-1,-3
1514894980977785,-2,-1,-1,-1,-2,0,-2,-1
1514894980984766,-1,-2,-1,0,1,1,1,-3
1514894980984766,-1,-4,-1,-1,-1,0,-1,0
1514894981001786,-2,-2,-1,-1,0,0,-2,-1
1514894981001786,-2,1,-2,1,-1,1,-1,0
1514894981005781,0,-3,-1,-1,0,-1,-1,-1
1514894981005781,-2,-1,-1,0,-1,-2,-3,-2
1514894981023794,-2,1,-3,-2,0,-3,0,-1
1514894981023794,1,-1,-1,-3,-3,-1,0,-2
1514894981025307,-1,0,-2,-1,-1,-2,-1,-1
1514894981025307,-1,-2,-2,0,-1,0,0,-2
1514894981038304,0,-1,-1,0,-2,-1,0,0
1514894981038304,-1,1,-3,-2,0,-1,-2,0
1514894981044818,-1,-2,-2,-1,-1,-1,0,-2
1514894981044818,0,-2,-2,-1,-2,-2,0,-3
1514894981061320,0,-2,-1,-1,-3,-1,-1,-2
1514894981061320,-1,-1,-3,-1,0,-1,-2,0
1514894981063844,0,-1,-2,1,0,-1,-1,-1
1514894981063844,-1,-1,-1,0,0,1,0,0
1514894981091342,-2,0,-1,-3,-1,-1,0,-2
1514894981091342,0,1,-3,0,-1,-3,0,-1
1514894981092860,-2,-4,0,-1,-1,0,-1,0
1514894981092860,-1,-2,0,-2,-1,-1,-1,1
1514894981097356,-1,0,-1,0,-1,-3,0,-2
1514894981097356,-1,-1,-1,-1,0,-1,-1,-1
1514894981106363,-2,-4,0,-2,-1,-1,-2,0
1514894981106363,0,-2,-1,-2,-1,-1,-2,-2
1514894981121364,-1,-1,1,-3,0,-1,-2,-1
1514894981121364,-2,1,0,0,-2,-2,0,-1
1514894981122863,0,-2,-1,-1,-1,-1,-2,-1
1514894981122863,-3,-2,0,0,0,-3,-1,-1
1514894981144379,-1,1,-3,-1,-1,-1,0,-2
1514894981144379,-2,-1,-1,-2,0,1,-2,-2
1514894981145891,-1,-1,-2,-2,0,0,0,-2
1514894981145891,0,-2,-1,0,-2,0,0,-1
1514894981157397,0,1,-2,0,-1,0,-1,0
1514894981157397,0,1,0,-2,-2,-1,1,-1
1514894981166405,-1,-2,-2,-1,0,0,-2,-2
1514894981166405,-2,-3,-1,-3,0,-1,-2,-1
1514894981180905,0,0,-1,0,-2,-1,0,-1
1514894981180905,1,0,-2,0,-1,-3,-1,-1
1514894981187420,-1,-2,0,-1,-3,-1,-1,1
1514894981187420,-1,-3,-1,-1,-1,-1,-1,-1
1514894981203923,-1,0,0,0,-1,-2,-1,-2
1514894981203923,-1,0,-2,-1,-1,0,-2,1
1514894981206923,-2,-1,-1,0,0,-1,-1,0
1514894981206923,0,0,-2,-1,-3,0,-1,0
1514894981217430,1,0,-2,-1,-1,-1,-1,0
1514894981217430,0,-2,-2,-1,-1,-2,1,-1
1514894981226437,-2,0,-2,-1,-2,-2,-2,-2
1514894981226437,-1,-2,-1,1,0,-1,-1,-1
1514894981240959,-1,2,0,-1,0,-1,-1,-1
1514894981240959,-1,0,-1,0,-1,1,-3,-2
1514894981242961,2,-2,-2,-1,0,-2,0,0
1514894981242961,0,0,0,0,-2,0,0,0
1514894981263983,-1,-2,-2,-1,-2,-1,-2,0
1514894981263983,-2,-1,-1,-3,-1,-1,-1,0
1514894981265479,-2,-1,-1,-2,-1,-1,-1,0
1514894981265479,-1,-1,-1,-2,1,-2,-1,-1
1514894981277473,-3,0,-1,-2,-2,-2,0,-1
1514894981277473,-1,-1,-1,0,-3,1,-2,-1
1514894981286994,0,-4,-1,0,-1,-1,1,-2
1514894981286994,-1,-2,0,-1,-2,-1,0,-2
1514894981300990,-1,0,-2,-2,-1,0,-2,-1
1514894981300990,-3,1,-1,-1,-1,-3,0,-2
1514894981304491,-1,0,-1,0,-1,0,-2,0
1514894981304491,-1,-2,-1,0,0,-1,-2,-1
1514894981325016,-1,1,-2,0,0,-3,-1,-1
1514894981325016,0,0,-1,-1,-1,-1,-1,-2
1514894981328512,-1,-3,-1,-1,-2,-1,0,-1
1514894981328512,-1,-2,-1,-2,-2,0,0,-2
1514894981337517,-1,-1,0,0,-2,0,-1,0
1514894981337517,0,-1,-2,0,-1,-2,-1,-1
1514894981346021,-1,0,-1,-1,-2,-1,-1,0
1514894981346021,-1,-2,-2,0,-2,-1,-2,-2
1514894981361041,-1,-1,-2,-1,0,0,-2,-4
1514894981361041,-3,0,0,-2,0,-1,-1,0
1514894981362534,0,-4,0,-1,0,-1,-1,-1
1514894981362534,-1,-3,0,-1,0,0,0,0
1514894981384057,-1,-1,-1,-2,-2,-1,-1,0
1514894981384057,0,1,-2,-1,-2,0,1,0
1514894981387550,-1,-2,-1,-1,-1,0,-2,-1
1514894981387550,-3,-2,-1,-2,-1,-1,-1,0
1514894981397066,0,-2,-1,-1,-2,-1,-2,-2
1514894981397066,1,-2,-1,-1,0,-3,-1,-1
1514894981406564,0,-1,-1,-2,-2,-1,-1,0
1514894981406564,0,-2,-2,0,0,-1,0,-3
1514894981421093,-1,0,-2,-1,-1,0,-1,1
1514894981421093,0,-1,-1,-1,-1,-1,0,-2
1514894981423076,0,0,-2,1,0,-1,0,-2
1514894981423076,0,1,-1,-1,0,-3,-2,-1
1514894981444093,-1,-2,0,-2,-2,-1,-1,-1
1514894981444093,-2,-2,1,-2,-1,0,-2,-1
1514894981446103,-3,-1,1,0,-1,0,-1,-1
1514894981446103,-2,-1,0,-2,-2,-1,-1,0
1514894981457600,0,1,1,0,0,-2,1,0
1514894981457600,-1,-2,-1,-1,-2,-3,-1,0
1514894981467107,1,-1,0,0,-2,-2,-2,-1
1514894981467107,0,0,-2,-1,-3,-3,-1,0
1514894981481116,-1,-1,0,-2,-1,-1,-2,-1
1514894981481116,-1,-2,0,0,-1,0,0,0
1514894981482617,-2,-2,-1,-2,-2,-3,0,-1
1514894981482617,0,0,-1,1,-1,-1,-1,0
1514894981503632,0,-1,-1,-2,0,-1,-1,-2
1514894981503632,-2,1,-2,-1,-1,-2,-1,0
1514894981505636,-1,-1,0,-1,-1,0,0,-1
1514894981505636,0,-2,-1,0,0,0,-2,-1
1514894981526160,0,0,0,0,-3,-1,0,-4
1514894981526160,0,-2,-2,0,-1,0,-2,-2
1514894981527659,0,-3,-1,-3,-1,-1,-1,-2
1514894981527659,-1,-2,-2,-1,-2,-1,-1,-1
1514894981542660,-1,2,-1,-1,0,0,-1,-1
1514894981542660,0,0,-1,-3,0,0,-1,-2
1514894981546162,-2,-3,-1,-1,-1,-1,-1,-3
1514894981546162,-1,-1,0,-1,1,1,0,-1
1514894981563693,0,-2,-2,0,-1,-2,-1,0
1514894981563693,-1,-1,-1,-1,-2,0,-1,0
1514894981565193,-2,-2,-2,-1,0,-3,0,-1
1514894981565193,-2,-2,-1,-2,0,-2,0,0
1514894981586193,0,-1,-3,0,0,-1,0,1
1514894981586193,-1,-1,-1,-2,0,0,-1,-1
1514894981587693,0,1,-1,0,-1,-1,-1,0
1514894981587693,-2,-3,-1,-3,-2,-2,-3,-2
1514894981601201,-1,0,-2,-1,0,-2,-1,-1
1514894981601201,0,-1,-2,0,-1,-1,-1,-2
1514894981602703,-1,-3,-1,-1,-1,-1,-1,-1
1514894981602703,-1,1,0,0,-1,-1,-1,-1
1514894981623719,-1,0,-1,-3,-3,0,0,-1
1514894981623719,-1,1,-2,0,-2,-1,-2,-1
1514894981629744,-2,-3,-1,-2,1,-1,-1,-2
1514894981629744,-1,-2,-1,-1,-3,1,-1,1
1514894981646750,-2,1,-1,-1,-1,-2,-2,-2
1514894981646750,-2,-4,0,-1,-1,-2,-1,0
1514894981648236,-2,0,-1,0,-2,-2,-2,0
1514894981648236,0,0,-2,-1,-2,1,-1,-1
1514894981660744,-1,0,-1,-1,0,0,1,-2
1514894981660744,-1,-2,-1,-2,0,-1,-1,-1
1514894981667248,0,-1,-3,-1,-1,0,-1,-1
1514894981667248,0,-1,0,-1,-1,-1,-1,-2
1514894981683761,-2,-1,-1,-1,-2,-2,-2,1
1514894981683761,-1,-2,-1,-2,-1,-1,-2,-3
1514894981685261,0,-3,0,1,-3,0,-2,-2
1514894981685261,-1,-1,0,0,-1,-2,-1,-1
1514894981706279,-2,0,0,-2,0,-1,-1,-2
1514894981706279,-1,-2,-4,0,-1,-1,0,-1
1514894981708279,-2,-1,0,0,0,-3,-1,0
1514894981708279,-2,-2,-1,0,-2,-2,0,-1
1514894981720787,0,-2,-2,-2,-2,-1,-2,-1
1514894981720787,-2,-1,0,-3,-1,-1,0,0
1514894981727291,-1,-2,-1,-1,-1,0,0,-2
1514894981727291,-2,-1,-1,-1,-1,-2,-1,-1
1514894981743802,-2,-1,-1,-1,-1,-1,2,0
1514894981743802,1,-1,-2,-1,-3,-1,-2,-2
1514894981745303,1,-2,-2,0,-1,0,-2,-3
1514894981745303,0,-1,-2,-1,0,-1,1,-2
1514894981766322,0,0,-1,-1,-2,0,-1,-2
1514894981766322,-1,-1,0,-2,-2,-3,-1,0
1514894981767819,-2,-2,-1,-1,-1,-1,0,1
1514894981767819,-1,0,-1,-3,-1,-3,-3,-1
1514894981780831,-1,1,-1,0,0,-2,-1,-1
1514894981780831,-1,-1,-2,-2,0,-2,0,0
1514894981787333,-1,-2,-2,-2,0,-2,-1,-2
1514894981787333,0,-1,-1,-1,-1,-1,-1,-1
1514894981803844,-1,-1,-2,0,-2,0,-3,-1
1514894981803844,-1,-2,-1,0,1,-1,-2,0
1514894981805346,-1,0,0,-1,-1,0,-1,-3
1514894981805346,-2,0,-1,0,-1,-1,1,-2
1514894981834366,-2,1,-2,-1,0,-1,-1,-1
1514894981834366,0,0,-1,0,-2,-1,-1,-2
1514894981837869,-3,-3,-1,-1,-1,-1,0,0
1514894981837869,0,-1,0,-2,-1,-1,0,-2
1514894981840873,-1,-2,-1,-1,-1,0,0,-1
1514894981840873,-1,-1,-1,0,-1,-1,-1,-1
1514894981848877,-1,-4,0,0,-2,-2,-3,1
1514894981848877,0,-1,-1,-1,0,0,-1,-1
1514894981864391,1,-2,-1,-1,-1,-3,-1,1
1514894981864391,0,-4,-2,-3,-1,0,-1,0
1514894981865891,-2,-2,-1,-2,-2,-1,-3,0
1514894981865891,-1,0,-2,-2,-1,0,-3,-1
1514894981885903,0,-1,-2,-2,0,-1,-2,1
1514894981885903,-2,0,0,-1,0,-1,0,-2
1514894981887907,1,-1,-1,-2,-2,-1,-1,-2
1514894981887907,-2,0,-1,0,-1,-2,1,-2
1514894981900413,-1,2,-1,0,-2,0,0,-2
1514894981900413,-1,0,-1,-1,-2,-1,-2,-1
1514894981907418,-2,-2,-1,-2,1,0,0,-1
1514894981907418,-2,-2,-2,0,0,-2,-2,-1
1514894981925435,-1,0,0,-2,0,-1,0,-1
1514894981925435,-2,-3,-2,-1,-2,-3,0,0
1514894981926931,0,-2,-1,-1,-1,-1,0,-1
1514894981926931,-2,0,-3,-2,-2,0,-1,-2
1514894981945944,-1,-1,-1,-1,-1,-2,-1,-1
1514894981945944,-1,-1,-1,0,0,-1,-1,-2
1514894981947947,-2,-2,-1,-1,-1,0,1,0
1514894981947947,0,-2,1,0,0,0,-2,0
1514894981960956,-1,1,-1,-1,0,-1,0,-1
1514894981960956,-1,-1,-2,-3,-2,-1,-1,-4
1514894981967460,0,-1,-3,-2,-2,-1,-2,-2
1514894981967460,-2,-2,-2,-1,-1,-1,0,-1
1514894981983471,-1,0,-1,-2,-1,-2,-2,-2
1514894981983471,-1,-1,-1,-1,0,-1,0,-2
1514894981985473,0,-2,-1,0,0,0,-1,0
1514894981985473,-2,0,-1,-1,-2,-1,1,-1
1514894982006489,-1,0,0,-1,-2,-1,-1,-1
1514894982006489,0,-1,-2,-1,-1,-1,-1,1
1514894982007990,-1,-2,-2,1,-2,0,-1,-2
1514894982007990,0,-1,-1,-1,-1,-2,-1,2
1514894982019998,-1,-1,-1,0,0,1,0,-2
1514894982019998,0,-2,-2,-1,0,1,0,-1
1514894982029003,-2,-4,0,-2,-2,-3,-2,-1
1514894982029003,-1,-1,-1,-1,-1,-3,-1,-1
1514894982043515,-1,0,-2,-3,0,-3,-1,-1
1514894982043515,-1,0,-1,-1,0,-2,0,0
1514894982045015,0,-2,-1,-1,0,-1,0,-2
1514894982045015,-1,0,-1,-1,1,-1,0,-1
1514894982067031,0,0,-2,-2,-2,-2,-2,0
1514894982067031,0,-1,0,-1,-1,-1,-2,-1
1514894982070536,-1,-2,-2,-3,0,-1,0,-2
1514894982070536,-1,-1,0,-1,0,0,-2,-2
1514894982079540,0,-1,-1,-2,0,-2,1,-2
1514894982079540,0,-1,-1,-1,-2,0,-3,-1
1514894982089049,-1,-1,-2,0,-1,-1,-3,-1
1514894982089049,0,1,0,-3,0,-1,-3,-2
1514894982103557,-1,1,-1,-1,-3,0,-1,-1
1514894982103557,-3,-2,-1,-2,-1,-1,0,0
1514894982105558,-1,-2,-1,0,-1,-2,0,-2
1514894982105558,-1,-2,-1,-1,-1,-2,0,-1
1514894982126084,-1,0,-3,-2,0,-1,-1,-1
1514894982126084,-1,-2,-1,-1,-2,-2,0,-1
1514894982128080,0,-2,-1,-1,-2,-1,-1,-2
1514894982128080,-3,1,-2,-1,-2,0,-2,-1
1514894982139582,1,0,-2,-1,-1,2,-1,-1
1514894982139582,0,-2,0,0,-2,0,-1,0
1514894982149088,-1,-3,-1,-1,-2,1,-2,-1
1514894982149088,-1,1,-1,0,-2,0,-1,-3
1514894982163608,-1,-2,-1,-1,0,-2,-2,-1
1514894982163608,-1,-1,-4,-1,0,-1,-1,0
1514894982165600,2,-2,0,-2,-1,-1,-2,-1
1514894982165600,1,-1,-2,-1,0,-1,1,1
1514894982186114,-2,1,0,0,0,0,-1,-1
1514894982186114,-1,-3,0,-2,-1,-3,1,-2
1514894982188118,0,-2,-2,-1,-1,-1,0,-1
1514894982188118,-1,0,-2,-1,-2,-2,-1,-1
1514894982199624,0,0,-2,-1,0,-1,-1,-1
1514894982199624,0,-3,-1,-2,-2,-1,-1,-1
1514894982228072,0,-4,1,0,-1,-1,-1,0
1514894982228072,-1,0,0,-1,-1,1,-1,-1
1514894982228530,0,-1,0,1,-2,-1,0,0
1514894982228530,-2,0,-1,0,-2,1,-1,0
1514894982230540,-1,-2,-2,-3,-1,-1,-1,0
1514894982230540,0,-1,-1,-2,-1,-2,-1,-2
1514894982246042,-1,0,-1,0,-2,-1,-2,-2
1514894982246042,-1,-2,0,-2,0,0,-3,-1
1514894982248553,-2,-1,0,-1,-2,0,-1,-1
1514894982248553,0,-1,-1,-1,-1,-1,-1,1
1514894982259566,-1,-2,-2,0,-2,-1,0,-1
1514894982259566,-1,-4,-2,-2,-1,-2,-1,-1
1514894982269067,-1,0,-2,-1,-2,-3,-1,-1
1514894982269067,-1,0,-1,0,-1,0,-1,-2
1514894982283570,1,1,-1,0,-2,-1,-1,-1
1514894982283570,-3,-2,0,-1,-1,-3,-2,-1
1514894982287081,-2,-3,0,0,1,-1,-3,-2
1514894982287081,-1,-1,-1,0,-1,-2,0,-1
1514894982306094,-1,0,-2,-1,0,-1,-1,0
1514894982306094,0,-2,-2,0,0,0,-1,0
1514894982307596,0,-3,0,0,0,-1,-1,-1
1514894982307596,1,0,-2,-1,-1,0,0,-1
1514894982319676,0,-1,-1,-3,-1,-1,0,-1
1514894982319676,-1,0,-2,-1,0,-2,-2,-3
1514894982336151,-1,-2,-1,0,-1,0,-2,0
1514894982336151,-2,1,0,-1,-1,-1,-2,-2
1514894982343669,-1,0,-1,-1,-2,-3,-2,0
1514894982343669,1,-4,-2,0,-2,0,-2,-1
1514894982345166,-2,-2,-1,0,-2,0,0,-1
1514894982345166,-1,-2,0,-1,0,-2,-1,-1
1514894982366172,-2,0,-1,-1,-2,-1,-3,-1
1514894982366172,0,-2,-1,0,0,0,1,-1
1514894982367673,-2,-3,-1,-3,-1,0,-1,-1
1514894982367673,0,0,-2,-1,0,-3,0,-1
1514894982379681,0,0,-3,-2,-1,-1,0,-3
1514894982379681,-1,-2,-2,-1,0,1,-2,1
1514894982388689,0,-1,-1,1,-1,-2,-3,-2
1514894982388689,-2,1,-1,-1,0,2,1,0
1514894982404701,-1,1,-1,-1,-2,-2,-1,-2
1514894982404701,-2,0,-1,-1,0,-1,-1,-2
1514894982408203,-1,-3,-1,-2,-1,0,1,-1
1514894982408203,-1,-2,-1,-2,-3,1,-2,-2
1514894982426226,1,0,-1,-3,0,0,-1,0
1514894982426226,-3,-2,-2,-2,-2,-3,-2,-1
1514894982427727,-1,-2,-1,-1,1,-2,-1,1
1514894982427727,-1,-1,-2,1,-1,-1,-1,-1
1514894982439725,-1,0,0,-1,-3,1,0,-2
1514894982439725,0,-4,-2,-1,-1,-1,-2,-1
1514894982448740,-2,-3,-2,0,-1,-1,-3,-2
1514894982448740,0,1,-4,-1,-1,-2,-1,-1
1514894982463255,0,0,-2,-2,-1,0,-1,-1
1514894982463255,-1,-1,-2,0,-2,-1,-1,0
1514894982470245,-2,-2,0,-2,-2,-1,-1,1
1514894982470245,-1,1,1,-2,-1,-2,-2,1
1514894982486256,-1,-1,0,0,-1,-1,-1,-1
1514894982486256,1,-3,0,-2,-2,-2,-2,-3
1514894982487757,-2,-2,-1,-1,0,-2,0,0
1514894982487757,0,-2,-1,-1,-1,-1,-1,-2
1514894982509273,0,-1,-2,0,0,-2,0,0
1514894982509273,-1,-3,-1,-1,-1,0,-1,-2
1514894982510774,-2,-3,0,0,-1,-1,0,-1
1514894982510774,0,0,0,-1,-2,-1,-1,0
1514894982531291,-1,0,-2,-1,1,-1,0,0
1514894982531291,1,-2,0,-1,0,0,1,1
1514894982532789,-1,-1,-1,-1,-1,0,0,-2
1514894982532789,-1,0,-1,-1,-1,-1,1,-2
1514894982546311,-1,-1,-2,0,-1,-1,0,0
1514894982546311,-1,-1,-2,-2,-2,0,0,-2
1514894982547812,-1,-1,-2,-2,-1,0,-3,-1
1514894982547812,-1,0,-1,-1,0,-1,-2,0
1514894982568824,-1,2,-1,-1,0,-2,-2,-1
1514894982568824,-1,0,-1,-1,-1,-2,0,0
1514894982571318,0,-2,0,0,-1,-2,-2,0
1514894982571318,-2,-1,0,-1,-2,0,-2,-2
1514894982582829,-2,0,0,-2,-3,-1,-1,0
1514894982582829,-1,-3,-1,1,0,-1,-2,0
1514894982589829,0,-3,-2,-1,-3,-2,-2,-1
1514894982589829,-3,-1,-1,0,0,0,-1,-1
1514894982613349,1,-1,0,-3,-1,0,0,0
1514894982613349,-2,-3,-1,-3,1,-2,-2,-2
1514894982616351,-3,-4,-1,-2,-1,-1,0,-2
1514894982616351,0,0,-2,0,-1,-1,-2,0
1514894982628858,0,0,-3,-1,-1,-2,-1,-3
1514894982628858,-2,0,-1,-1,-2,-2,0,0
1514894982630358,-1,-2,-2,-1,1,-1,-1,0
1514894982630358,-2,1,-2,-2,-1,-1,-1,-2
1514894982642868,-1,0,-2,-1,-2,-3,-2,-2
1514894982642868,1,-2,1,-1,0,-1,-1,-2
1514894982649872,-1,-3,-2,0,-2,-1,-4,-1
1514894982649872,0,1,0,-1,-1,-1,-1,0
1514894982666384,-2,0,-1,0,-1,0,-1,-1
1514894982666384,-2,-2,-1,0,-1,-1,-2,-1
1514894982667884,0,-2,-1,-1,-1,-1,-1,-1
1514894982667884,0,-1,-1,-2,1,1,0,-1
1514894982688899,0,1,-1,-2,-3,-1,-1,1
1514894982688899,0,-2,-2,-1,-2,0,0,-1
1514894982690402,0,-3,0,0,-1,0,0,-1
1514894982690402,0,1,0,-1,-1,-1,1,-2
1514894982703410,-1,0,-1,0,0,-3,0,-2
1514894982703410,0,-2,-2,-1,0,-1,-1,-1
1514894982709928,0,-3,-2,-1,-1,-2,-1,0
1514894982709928,-2,-2,0,-1,-2,-1,-2,0
1514894982725937,-1,0,-2,-1,-1,0,-2,0
1514894982725937,-1,-2,0,-1,-3,-1,-2,0
1514894982727944,-2,-2,-2,-1,-2,-1,-1,-2
1514894982727944,0,0,-1,0,-2,-1,-2,-2
1514894982755956,-1,2,-1,0,0,0,-2,-2
1514894982755956,-1,-1,-3,-1,-1,0,-1,1
1514894982757949,-1,-1,-1,1,-1,0,0,-1
1514894982757949,-1,-1,-1,-1,-1,-1,-2,0
1514894982762952,0,-2,0,-2,-1,0,-1,0
1514894982762952,0,-1,0,0,0,-1,0,-2
1514894982769957,-1,-2,-1,0,-1,-2,-1,0
1514894982769957,-2,0,-2,-1,0,-1,-1,-1
1514894982785980,-3,1,-1,-1,-1,-2,-1,-1
1514894982785980,-1,0,-1,-2,-1,0,0,-3
1514894982787971,0,-3,0,-1,0,2,-1,-1
1514894982787971,1,0,-2,0,-1,-1,0,0
1514894982808497,-1,-1,-2,0,-2,-1,-1,-2
1514894982808497,-1,-2,-1,1,0,0,0,-1
1514894982810499,0,-2,-1,-1,1,-1,-2,-2
1514894982810499,-1,1,-2,-2,0,-2,-1,-1
1514894982822994,-2,0,-1,-1,-2,-1,0,-1
1514894982822994,1,-3,-2,-2,-2,1,-1,-2
1514894982829499,-2,-2,1,0,1,-1,0,-1
1514894982829499,0,-1,0,1,0,-1,-1,-1
1514894982847512,0,0,0,-2,0,-1,0,-2
1514894982847512,-2,-3,-1,0,1,-2,-1,-1
1514894982851014,-2,-3,-2,-1,-2,-1,0,-2
1514894982851014,-2,-2,-1,-1,-1,-1,-3,-2
1514894982868526,-1,0,-1,-2,-1,1,-3,0
1514894982868526,-1,-2,-1,-1,-1,-2,0,-1
1514894982872041,-2,0,-1,2,0,-2,-1,-2
1514894982872041,0,0,-2,-2,-1,-2,0,0
1514894982883037,1,0,-1,-2,-1,-1,-1,-1
1514894982883037,-1,-2,-1,-2,-1,0,0,0
1514894982889541,-2,-2,-2,-2,0,-1,0,-1
1514894982889541,-1,0,0,1,-2,-1,-1,-2
1514894982906062,-1,0,-1,-1,-1,-1,-1,1
1514894982906062,-1,-2,0,-1,-2,-1,-1,-1
1514894982907563,-1,-2,-1,-1,-2,-3,0,-1
1514894982907563,-2,0,-1,-1,-1,-2,-1,-1
1514894982928569,0,-1,-1,-3,0,-1,0,-1
1514894982928569,-2,-2,-3,-1,-1,-3,-1,0
1514894982930570,-3,-2,-1,-3,-3,0,-2,0
1514894982930570,-1,-2,-1,-1,-1,-1,-2,0
1514894982943079,0,0,-2,-1,-1,-1,-1,-1
1514894982943079,-1,-2,-1,0,0,-1,-2,-1
1514894982949592,0,-2,0,0,-1,-1,-2,-1
1514894982949592,-1,0,-1,-1,-1,0,0,-2
1514894982966598,-2,0,0,-1,-2,-3,1,0
1514894982966598,0,-2,-1,-1,-1,1,0,-2
1514894982968097,0,-1,-3,-1,-2,-1,0,0
1514894982968097,-2,0,-3,-1,-1,-2,-1,-1
1514894982988617,0,2,-1,-3,0,-3,-2,-3
1514894982988617,-2,-2,0,0,-2,1,-1,-1
1514894982994616,-1,-3,2,0,-2,1,0,-1
1514894982994616,-1,0,0,0,-2,-1,0,-1
1514894983003134,-1,-1,-1,-1,1,-1,-1,0
1514894983003134,-1,-3,-2,-2,-2,-2,-1,-1
1514894983011127,-1,-3,-1,-1,1,-2,-3,-2
1514894983011127,-1,-1,0,-1,-1,-2,-2,0
1514894983033643,-1,-2,-1,0,0,-1,-1,-3
1514894983033643,-1,0,0,-1,-1,-2,-1,0
1514894983035154,-2,-2,-1,-2,-1,-1,0,-1
1514894983035154,-1,0,-1,0,-1,1,0,0
1514894983048663,-2,0,-2,-2,0,0,-1,-1
1514894983048663,-2,-2,-2,0,-1,-1,-1,-1
1514894983050165,-1,-2,-2,-2,-1,-2,-2,-1
1514894983050165,-1,0,-2,-2,-3,-1,-1,-2
1514894983062173,-2,0,-1,-1,-1,-2,-2,-1
1514894983062173,0,-2,-1,-2,-2,0,0,-1
1514894983071172,-2,-1,-1,-1,-1,-1,0,-1
1514894983071172,0,0,-1,-1,0,-1,-1,-1
1514894983086189,-2,1,-1,-2,-2,-1,0,-1
1514894983086189,-1,-2,-1,0,-1,1,0,0
1514894983087683,-2,-3,-1,0,-1,-1,0,-2
1514894983087683,-1,0,0,-1,-1,-3,-2,1
1514894983109706,0,0,-1,-1,-1,-2,0,-2
1514894983109706,-1,-1,-3,-1,-1,-2,-1,0
1514894983113199,-1,-1,-2,-1,-1,-1,-1,-2
1514894983113199,-1,-1,-2,0,-1,0,-1,-3
1514894983122706,0,-1,0,1,-3,-2,-1,-1
1514894983122706,-1,-2,1,-1,0,-2,-3,-1
1514894983131212,0,-3,0,-1,0,0,-3,1
1514894983131212,0,2,-2,-2,0,0,0,-1
1514894983146235,-1,1,-1,-1,-1,-2,-2,0
1514894983146235,0,-2,0,-1,-1,-2,-2,-1
1514894983148233,0,-1,-2,-1,-1,1,-1,-1
1514894983148233,-2,-1,-1,-3,0,0,-1,-2
1514894983168739,1,0,-1,-1,-1,0,0,0
1514894983168739,-1,-3,-1,-1,0,-1,-2,-2
1514894983171241,-3,-1,-1,-1,-1,-2,-1,0
1514894983171241,-1,-1,-1,-1,-1,-1,0,0
1514894983182248,-1,-1,-1,-2,-1,-1,-1,-3
1514894983182248,-1,-2,0,-1,-1,-3,0,-1
1514894983191254,-2,-2,0,-1,-2,0,-2,0
1514894983191254,-2,0,-1,0,-2,-2,-1,-1
1514894983206266,-1,2,-1,-1,-2,0,0,-2
1514894983206266,0,0,-1,-2,-1,-1,0,-2
1514894983212269,-1,-1,-2,1,-1,-1,-1,-1
1514894983212269,-1,-2,-1,0,-1,0,-2,-2
1514894983236296,-1,-1,-2,-1,-1,-1,-2,-1
1514894983236296,-2,-2,-2,0,-2,-3,-3,-1
1514894983237799,0,-2,-2,-2,-2,-2,-1,-1
1514894983237799,0,0,-1,-2,-1,-2,-1,-1
1514894983242290,-1,-1,-1,0,-2,-1,-1,-1
1514894983242290,-1,-2,-1,0,-2,2,1,0
1514894983251306,0,-2,-1,-1,0,-1,-2,-2
1514894983251306,0,0,-2,-1,-1,-2,-1,0
1514894983266831,-1,0,0,-3,0,-1,0,0
1514894983266831,0,0,-2,-2,0,-2,0,-2
1514894983268815,-2,-1,-1,0,0,0,-1,-1
1514894983268815,-1,1,0,-1,-3,0,-1,0
1514894983288825,0,0,-2,-2,-2,0,0,-1
1514894983288825,0,-2,-1,-2,-1,0,-1,-2
1514894983290324,-1,-1,-2,-1,0,-2,0,0
1514894983290324,-1,-1,-2,-2,0,-3,-2,-2
1514894983311339,-2,0,0,-1,0,-1,-2,-2
1514894983311339,-2,-4,-2,-2,0,-1,-1,-2
1514894983312840,-1,-2,-1,-1,-2,-1,-1,-2
1514894983312840,0,-1,-1,0,-1,1,1,0
1514894983326350,-1,-1,-2,-2,-2,-2,-2,-1
1514894983326350,2,-1,-2,-1,-2,-1,0,0
1514894983327851,-1,0,1,0,0,-3,0,0
1514894983327851,1,1,-1,-2,0,0,-1,-1
1514894983348866,0,-2,0,-2,-2,-2,-2,-1
1514894983348866,-1,-1,1,1,-1,-2,-3,-2
1514894983350367,0,-1,0,-1,-3,-1,-1,-1
1514894983350367,-2,0,0,0,0,0,-1,-2
1514894983362879,-1,-1,-2,0,0,0,-2,0
1514894983362879,-3,-1,0,-1,0,-1,-1,0
1514894983371882,0,-1,0,0,0,0,-1,-1
1514894983371882,-2,-1,-2,-2,0,-2,-1,-2
1514894983386392,-1,-2,-2,-3,-1,0,-2,-1
1514894983386392,-2,-1,0,-1,-1,0,-1,-1
1514894983388395,-1,-3,-2,-1,0,0,1,-1
1514894983388395,0,1,-2,0,0,-1,-1,-2
1514894983409909,-1,-2,-2,0,1,0,-1,-1
1514894983409909,0,-2,-1,-1,0,-3,-3,1
1514894983411425,-1,0,0,-1,-2,-1,-2,-3
1514894983411425,-2,1,-1,-2,-2,-2,-3,0
1514894983430924,0,0,1,-1,-1,-2,-2,-2
1514894983430924,0,0,0,-1,1,1,-1,-3
1514894983432925,-2,-2,0,0,0,-2,-1,-1
1514894983432925,-1,0,-1,-3,0,0,-1,0
1514894983446434,-1,-1,-1,-2,-2,-2,1,0
1514894983446434,-1,-2,-1,1,-2,-1,0,0
1514894983448938,0,-1,-1,-2,-1,0,-1,0
1514894983448938,0,-2,-1,1,-1,-1,-1,-1
1514894983468450,0,-1,-1,0,0,-1,-2,1
1514894983468450,-1,0,-2,-3,-2,-3,-1,0
1514894983470952,-2,1,-1,-1,0,-1,1,-2
1514894983470952,0,0,-3,-2,-1,-1,-1,0
1514894983490978,-2,-1,-2,0,-2,-1,1,0
1514894983490978,-2,-4,-1,-2,-2,-2,-1,-1
1514894983492467,0,-1,-1,-2,-3,-2,-2,0
1514894983492467,-1,-1,-1,0,-2,0,-2,-2
1514894983505988,-2,0,-1,0,0,-2,-2,-1
1514894983505988,-2,-2,1,-1,0,-1,-3,-3
1514894983507477,-1,-2,-2,-1,0,0,0,-1
1514894983507477,0,0,0,-2,-2,0,0,0
1514894983528993,1,0,-2,-2,-1,-1,0,-1
1514894983528993,0,-2,-1,0,-2,-1,-1,0
1514894983532496,-2,-1,0,0,0,-1,-2,-1
1514894983532496,-2,1,-1,0,0,0,0,-2
1514894983551509,-2,-1,-1,-1,-1,0,0,-2
1514894983551509,-1,-2,0,-1,0,0,0,0
1514894983557527,0,-1,-3,-1,-2,-1,0,0
1514894983557527,-2,1,1,-1,-1,-2,-2,0
1514894983565521,-2,1,-1,-2,0,-3,-3,-1
1514894983565521,0,-1,-3,-1,0,-2,-1,0
1514894983572023,0,-2,-1,-1,-1,2,0,0
1514894983572023,0,-1,0,-1,0,-1,0,0
1514894983589035,-1,-2,-2,-1,-2,0,-1,-1
1514894983589035,0,-3,-4,-2,-1,-1,-2,-2
1514894983590036,-1,-2,0,0,-2,-1,-1,-2
1514894983590036,1,-2,-1,-1,-1,-2,-2,-1
1514894983611052,0,-1,0,-1,-2,-1,1,-1
1514894983611052,-1,-2,-1,1,-1,1,-1,-2
1514894983612553,-1,0,-2,-1,-1,-2,-1,0
1514894983612553,-1,-2,-2,-2,-2,-2,0,0
1514894983626573,-1,0,-1,1,-1,-2,-1,0
1514894983626573,-1,-1,0,-1,-2,-1,0,0
1514894983632066,0,-1,0,-1,0,-2,1,-1
1514894983632066,-2,1,-1,-1,-1,-1,-1,-1
1514894983648578,0,-2,-1,-3,-1,-1,-1,-1
1514894983648578,-1,-1,-1,-1,0,-2,-1,-1
1514894983650079,-1,0,-2,-1,-2,0,-2,-2
1514894983650079,-1,0,-2,-2,-2,-2,0,-1
1514894983671093,0,-1,-1,0,-2,-1,-3,-1
1514894983671093,-1,-2,-1,0,-1,-1,-4,0
1514894983672594,-1,-2,0,-1,-1,-1,0,0
1514894983672594,-1,-2,0,-1,-2,-2,-1,-2
1514894983685604,-3,0,-2,-2,-1,-1,-2,0
1514894983685604,-2,-2,-2,0,-2,-1,1,-1
1514894983692108,-2,-2,-1,1,-1,0,-3,0
1514894983692108,0,1,-2,-1,-2,-1,-2,-1
1514894983708620,1,-1,0,-1,-1,0,0,-1
1514894983708620,-1,-2,2,-1,-1,-1,0,0
1514894983710121,-2,-3,-2,-3,-1,-2,-2,-4
1514894983710121,0,-2,0,0,-1,1,0,-1
1514894983731136,-2,-2,0,-1,-1,-1,-2,-1
1514894983731136,-1,-2,0,-1,0,0,-1,-3
1514894983732646,-2,2,-1,0,0,0,-1,-1
1514894983732646,-2,1,-2,-1,-2,-1,0,0
1514894983753652,-3,-10,-1,-3,-2,-2,0,-1
1514894983753652,0,-1,0,-1,-1,-2,-1,-2
1514894983755153,-1,-1,-2,-1,0,-2,-2,-1
1514894983755153,-1,2,-2,-1,-2,0,-2,-1
1514894983768662,-1,-2,-4,-2,-1,-2,-1,-2
1514894983768662,-2,-1,0,-3,-3,-1,-2,-1
1514894983771164,3,-1,-1,-1,-2,-1,0,1
1514894983771164,3,2,-3,-1,-2,-2,0,0
1514894983791190,1,-1,-2,-2,-1,-1,-1,-2
1514894983791190,-2,0,1,-1,0,-1,-3,-2
1514894983792691,6,-4,1,0,-2,0,1,2
1514894983792691,-8,-4,-3,-3,-2,-2,-2,-3
1514894983805688,-1,-1,-1,-1,-2,-1,0,-3
1514894983805688,-1,0,-2,-2,-1,-1,-1,1
1514894983812193,-2,2,1,-1,0,-2,-1,-1
1514894983812193,1,-1,1,0,0,-3,-1,0
1514894983828704,-4,-3,-3,-2,0,-2,0,0
1514894983828704,-1,5,-1,0,0,-1,-2,-1
1514894983830205,-3,-3,-1,-2,-1,0,-2,-1
1514894983830205,-3,0,0,0,-1,1,-2,-2
1514894983850800,0,-3,-2,1,0,-2,-2,-1
1514894983850800,-2,-2,-2,-1,-2,-2,-1,0
1514894983852789,-2,1,-2,-1,-1,-2,-3,-3
1514894983852789,0,0,0,1,0,0,0,-1
1514894983865805,1,3,-2,1,-2,0,0,0
1514894983865805,-1,-5,-1,-1,0,1,0,-1
1514894983872329,-2,-4,-1,-2,-1,-1,-1,-1
1514894983872329,-1,-1,-2,-2,0,-2,-1,0
1514894983888839,-1,1,1,-2,-2,0,0,-2
1514894983888839,1,-5,-2,-1,-1,-1,0,-1
1514894983890340,-3,0,0,-1,-1,-1,-1,-1
1514894983890340,-1,-2,-2,-3,1,-1,-2,0
1514894983910864,1,5,-2,-1,-3,-2,-2,-1
1514894983910864,-3,1,0,-1,0,-1,0,0
1514894983912866,-1,-6,-2,-2,0,-1,0,-1
1514894983912866,-4,-3,0,-1,-1,-2,-1,-2
1514894983925876,5,-4,-2,-1,-1,-1,-2,-1
1514894983925876,-1,-2,0,-1,1,-3,0,0
1514894983933871,2,-1,-2,-2,-1,-1,-1,-2
1514894983933871,0,3,1,1,-1,0,-1,-3
1514894983948381,-3,-2,0,-1,-1,0,-1,-2
1514894983948381,0,-1,-2,0,0,0,-2,-1
1514894983950382,-3,0,-1,-3,-3,-2,-2,-1
1514894983950382,2,2,-2,0,1,-1,-1,0
1514894983971398,-5,-1,-1,1,-1,0,-1,-2
1514894983971398,2,-5,-2,-1,-2,0,-1,-1
1514894983974412,-2,4,-2,-1,-2,-3,-1,-3
1514894983974412,1,-1,1,0,-2,-1,1,0
1514894983984907,-1,9,1,-3,0,-2,1,0
1514894983984907,-7,-16,0,0,-2,-2,-1,-3
1514894983993919,-1,1,-2,-2,-1,2,-3,-3
1514894983993919,6,-4,-2,1,2,-1,0,2
1514894984008425,-8,-8,-5,-2,-3,-2,-1,-2
1514894984008425,-3,8,-4,-2,-1,-1,-1,-2
1514894984010425,-4,-3,0,-1,-4,-2,-1,-1
1514894984010425,-4,15,2,-5,-6,-1,-1,-3
1514894984030940,18,-1,1,5,8,2,2,9
1514894984030940,-18,-16,-5,7,5,1,-2,-5
1514894984032941,-1,6,0,2,1,-1,-2,-2
1514894984032941,8,-1,0,1,-1,0,2,5
1514894984044949,-25,-6,-1,-7,-6,-4,-2,-5
1514894984044949,10,8,1,-4,-4,0,-1,-2
1514894984053955,-5,-6,-1,1,1,0,0,1
1514894984053955,4,-3,-2,-3,-1,-2,-3,-4
1514894984068467,1,3,1,-1,-2,-1,-2,-4
1514894984068467,4,10,-1,-4,-1,1,2,18
1514894984069968,-19,-24,-4,3,-2,-2,0,-18
1514894984069968,4,15,0,11,-8,-4,-3,-6
1514894984090981,-8,-12,-1,38,9,-3,-3,-4
1514894984090981,-3,-5,-4,-6,11,1,-2,-5
1514894984092484,13,10,-11,-58,0,6,6,9
1514894984092484,-5,-10,-5,-8,-4,-1,2,1
1514894984105493,14,2,5,-22,-20,-4,-1,3
1514894984105493,-13,-7,3,37,0,-4,-4,1
1514894984113499,2,8,2,3,1,-2,0,-8
1514894984113499,-13,-5,-2,-2,-1,0,-5,-11
1514894984128562,10,12,1,-5,-6,0,5,22
1514894984128562,6,25,2,-11,-3,-2,0,-4
1514894984130060,14,-17,0,7,6,2,-12,-18
1514894984130060,-4,3,-4,-10,3,2,5,15
1514894984151080,-25,-20,-11,0,-4,-5,-5,-12
1514894984151080,8,6,1,-3,-6,0,7,21
1514894984153066,5,7,3,11,2,-6,-2,8
1514894984153066,-10,-3,-4,-1,-2,-4,-15,-31
1514894984164589,9,0,-3,-4,-1,-1,-2,-5
1514894984164589,-11,-33,-3,-13,-4,-1,-3,-8
1514894984173593,5,26,6,6,-4,-1,3,9
1514894984173593,-5,-24,-2,1,0,0,1,4
1514894984188593,-5,-1,-7,-12,1,-1,-2,13
1514894984188593,9,10,3,-3,-5,-1,0,-21
1514894984190109,1,0,-2,3,0,0,4,8
1514894984190109,-15,-5,1,3,-1,-3,-1,4
1514894984211117,5,5,0,2,6,3,0,-1
1514894984211117,3,-12,-2,-18,-2,-1,1,6
1514894984212608,-7,-2,-3,1,-6,-3,-2,7
1514894984212608,0,-8,0,2,3,-2,-13,-33
1514894984225619,4,-6,-4,-3,0,1,3,-4
1514894984225619,-10,17,2,5,-3,-3,-4,-8
1514894984233625,-6,-15,-3,-4,-3,0,3,10
1514894984233625,6,1,0,-11,-8,-2,3,4
1514894984248635,10,11,9,17,10,4,-1,-9
1514894984248635,-6,-11,-9,0,-3,-3,-3,-3
1514894984250136,-7,11,3,14,0,0,4,9
1514894984250136,21,17,2,-2,-1,1,8,22
1514894984278656,2,-15,0,-19,-1,1,-9,-11
1514894984278656,-4,-9,-4,-1,-2,-1,-2,-1
1514894984282159,-3,-6,-10,-1,-1,-2,-3,-5
1514894984282159,5,20,16,12,-2,-1,2,7
1514894984284661,-8,0,-4,-3,-3,-1,6,5
1514894984284661,10,7,2,-4,2,-1,-1,3
1514894984293668,-12,-34,-1,3,-7,-5,-6,3
1514894984293668,-2,7,-15,-5,1,0,0,-19
1514894984308676,0,-7,3,-1,0,0,2,-8
1514894984308676,1,6,-3,0,-4,-2,-1,15
1514894984310179,-9,16,12,2,-1,-2,-10,-20
1514894984310179,4,-9,-18,-6,2,3,9,14
1514894984338699,-4,-3,16,0,-2,-2,-6,-11
1514894984338699,1,8,0,5,-3,-3,-3,6
1514894984340200,-15,11,6,-6,-1,0,6,-7
1514894984340200,2,-16,-11,-6,-1,-4,-4,5
1514894984361715,2,0,-13,3,0,-2,0,-3
1514894984361715,4,10,14,-6,-2,-1,-1,1
1514894984363216,-1,-10,-2,-2,0,0,-4,-1
1514894984363216,-20,-8,-4,1,1,-1,-6,-18
1514894984368719,0,13,9,7,0,0,9,12
1514894984368719,-5,-2,-2,-14,-4,-1,-5,-18
1514894984370222,9,3,-3,-6,-1,-1,-1,16
1514894984370222,-10,-26,-9,1,0,1,1,4
1514894984390245,-3,-3,-17,-5,-3,-3,0,-12
1514894984390245,-7,-19,6,4,2,0,-12,-22
1514894984391236,10,18,-4,1,-4,-1,1,5
1514894984391236,-4,-4,16,6,1,1,0,0
1514894984421257,-12,12,8,-2,-3,-2,-6,3
1514894984421257,7,-13,-28,2,2,2,17,26
1514894984421757,7,1,8,0,-2,-4,-11,-27
1514894984421757,5,31,33,-7,0,-2,10,49
1514894984427770,9,-53,-26,-3,-1,1,2,-28
1514894984427770,-8,0,-7,-2,-5,-7,-20,-24
1514894984428762,1,8,1,5,1,1,6,33
1514894984428762,6,7,-4,-3,-3,-3,-4,-46
1514894984450278,2,26,25,0,0,0,-4,24
1514894984450278,-24,-36,-38,-3,-2,-3,-2,-4
1514894984451279,13,13,19,-3,0,5,10,15
1514894984451279,-4,-11,-14,-3,-2,-2,-4,2
1514894984473795,3,5,2,0,-1,-3,16,36
1514894984473795,8,18,21,9,4,9,5,-49
1514894984475795,-12,-9,-1,3,1,-2,-6,2
1514894984475795,-6,2,-25,-10,-7,-6,-6,-7
1514894984488804,-14,-9,13,5,-2,-2,-7,15
1514894984488804,16,24,-2,-7,0,2,7,-8
1514894984488804,-5,-34,25,2,-1,0,-7,-30
1514894984488804,5,-4,-4,2,0,-1,-9,-9
1514894984510320,-8,24,23,2,-1,-3,-2,3
1514894984510320,14,-17,-39,1,-4,-2,12,36
1514894984511321,-2,24,-9,-8,0,0,1,-10
1514894984511321,-1,-28,-24,11,-1,-5,-4,-10
1514894984532835,-18,6,2,-14,-1,0,-2,-15
1514894984532835,6,5,42,3,-3,-1,-14,6
1514894984533837,6,13,-50,-1,2,-2,-7,-10
1514894984533837,-5,13,23,5,0,0,2,10
1514894984555852,-1,-47,-58,-2,-1,0,2,-13
1514894984555852,-5,19,81,7,0,-3,-9,-16
1514894984556852,-11,-43,-56,-9,-3,-1,-1,-2
1514894984556852,2,-2,9,2,-1,1,18,68
1514894984570362,9,11,-23,0,2,0,-9,-31
1514894984570362,-2,-26,-38,-2,1,-1,-6,-39
1514894984571363,-2,23,12,2,1,1,15,10
1514894984571363,-12,2,-1,12,1,0,-20,-31
1514894984592879,12,6,29,-25,-2,0,3,33
1514894984592879,-18,-28,-51,1,-1,0,6,2
1514894984593379,-6,28,27,0,-6,-9,-6,9
1514894984593379,6,-27,-70,-4,1,3,-1,-26
1514894984607901,-2,19,43,6,-5,-6,-5,-18
1514894984607901,0,12,13,-3,-1,0,-2,2
1514894984608399,7,-16,-13,-19,-4,-2,-2,8
1514894984608399,-2,-12,20,-3,-3,-8,-14,17
1514894984630404,1,28,-9,43,-1,3,10,-25
1514894984630404,-2,-7,0,-40,-2,-1,9,28
1514894984630905,-4,1,16,21,0,2,-2,-6
1514894984630905,-5,9,-8,-19,1,3,25,-17
1514894984652920,0,-22,-35,-4,-1,1,-13,-8
1514894984652920,-4,-22,38,15,-6,-9,-6,12
1514894984653920,8,6,-27,-7,-4,0,-13,-37
1514894984653920,-2,13,41,-4,5,-5,12,50
1514894984667931,5,3,-29,-6,-3,1,1,42
1514894984667931,2,-38,-18,-1,-1,-2,-11,-34
1514894984668430,-17,9,9,15,-2,0,-4,13
1514894984668430,6,-8,0,0,0,3,1,-23
1514894984698464,3,-27,-13,-36,-7,-7,-8,-5
1514894984698464,-19,19,11,26,8,7,10,12
1514894984699465,7,-30,-8,-36,-10,-6,2,8
1514894984699465,-6,1,-28,-3,1,2,1,35
1514894984721973,-8,6,27,10,0,-3,-15,-66
1514894984721973,5,-11,-46,-5,-4,1,5,0
1514894984723970,9,13,7,30,6,-1,0,-3
1514894984723970,8,29,16,10,3,4,5,5
1514894984727974,-26,-37,-13,-10,-5,-5,-18,-12
1514894984727974,6,26,22,21,6,0,1,-9
1514894984728474,9,0,-37,-28,-4,0,23,85
1514894984728474,-13,-32,-17,23,-1,-1,-40,-98
1514894984758495,2,8,43,-57,-7,1,5,31
1514894984758495,9,1,-77,5,-3,-1,-5,4
1514894984759495,-19,-13,20,-8,-2,-6,-4,51
1514894984759495,-2,18,32,6,0,-1,-1,-61
1514894984773015,-13,3,-46,19,0,-1,6,12
1514894984773015,3,5,54,-11,3,1,-6,-17
1514894984773506,-5,4,11,13,4,0,9,-17
1514894984773506,-6,-22,-39,-30,-6,-4,-10,9
1514894984788017,16,-1,9,11,0,4,7,12
1514894984788017,-4,-7,6,8,-2,-4,2,-9
1514894984789019,4,20,21,-3,2,1,-1,-22
1514894984789019,-4,6,-6,-23,-10,-5,-4,14
1514894984810531,10,18,24,6,2,2,5,28
1514894984810531,-10,-6,-28,-5,1,-1,4,-31
1514894984811033,-7,-38,-25,4,-5,-1,-9,-37
1514894984811033,12,10,29,1,0,-1,3,16
1514894984833047,-13,-5,6,-6,-8,-6,-7,-12
1514894984833047,7,12,7,13,2,2,6,36
1514894984833547,4,-7,-23,-2,-1,-5,-5,1
1514894984833547,-3,17,20,-5,-3,-3,-5,-51
1514894984856064,1,-12,13,25,5,4,13,21
1514894984856064,-13,-4,-18,-19,-4,-2,-3,15
1514894984857064,5,10,24,-18,-5,-2,-6,-19
1514894984857064,11,17,-4,7,-4,-3,7,47
1514894984870573,-16,-25,-32,-9,4,2,1,-13
1514894984870573,2,7,43,13,2,1,-3,-13
1514894984872078,-4,-17,3,-3,-1,-1,0,6
1514894984872078,6,16,8,26,2,4,15,72
1514894984893089,9,16,-13,-25,-4,-8,-16,-49
1514894984893089,-8,-10,7,-1,0,1,2,-16
1514894984893600,-8,-6,-1,22,0,-2,-3,7
1514894984893600,6,21,6,-31,-2,0,-8,-46
1514894984908100,5,14,12,17,4,-2,-9,-3
1514894984908100,0,-18,-58,-18,-5,0,4,40
1514894984909602,-3,24,26,-19,-4,-2,-11,36
1514894984909602,-3,-7,6,16,4,1,-5,-45
1514894984930625,-6,-10,14,23,4,2,6,-8
1514894984930625,2,3,-15,-27,-8,-5,-6,-1
1514894984931116,-8,-4,-20,22,3,-2,7,32
1514894984931116,1,26,-8,-14,-1,-1,-18,-15
1514894984952646,-9,-34,11,10,-5,-8,-3,5
1514894984952646,8,12,-1,-14,-1,1,5,-15
1514894984953634,-3,-24,-15,1,0,1,-8,-23
1514894984953634,-1,-2,-32,-7,-8,-3,15,-10
1514894984976160,11,-5,-1,-9,-1,0,11,9
1514894984976160,4,24,68,28,6,3,-18,-6
1514894984976649,-7,-22,-30,4,1,-3,2,-6
1514894984976649,-2,-6,-3,-33,-3,-1,8,38
1514894984990662,7,-2,-28,-1,-1,1,-3,2
1514894984990662,-10,-48,10,20,-2,-3,3,10
1514894984991159,5,18,3,-30,-2,-1,-5,-38
1514894984991159,5,-2,19,32,6,0,5,52
1514894985012674,-16,-15,-48,-12,-11,-5,-1,6
1514894985012674,17,8,-9,-7,2,4,25,92
1514894985013675,-2,-1,36,13,2,0,-22,-62
1514894985013675,-20,-40,1,0,-3,-4,-9,-62
1514894985027194,-5,9,-16,-7,-3,-4,-7,-46
1514894985027194,-3,28,-3,8,-3,-4,-13,-5
1514894985051703,-17,-64,-27,-18,1,2,19,62
1514894985051703,3,14,24,3,-7,-2,-19,-6
1514894985053204,7,9,25,19,9,2,6,20
1514894985053204,-13,1,4,-10,-6,-5,-13,-44
1514894985054204,15,23,4,4,-4,-2,15,-6
1514894985054204,-10,-25,-8,1,-1,0,8,41
1514894985072718,-2,8,31,27,6,3,11,0
1514894985072718,-6,2,4,-28,-2,0,-2,13
1514894985073717,-2,10,15,-8,-8,-5,-8,-54
1514894985073717,-3,0,10,3,-4,-3,2,10
1514894985087233,-8,2,-47,5,-1,-1,2,75
1514894985087233,12,-22,10,-5,-1,-8,-11,-83
1514894985095232,-16,6,14,2,2,0,-5,-42
1514894985095232,12,9,-1,8,1,1,6,28
1514894985111245,15,6,30,-21,-3,0,-14,-5
1514894985111245,-11,-6,-45,-15,0,2,1,11
1514894985112246,7,19,-7,-4,-6,-2,16,7
1514894985112246,-2,-14,10,22,6,3,9,26
1514894985132760,11,22,38,-16,-2,-4,-15,-4
1514894985132760,10,-23,12,11,-1,-2,-5,8
1514894985133761,2,26,-14,-1,-3,-5,-2,-30
1514894985133761,-6,2,2,3,5,4,14,30
1514894985147270,-10,2,27,-8,-1,-1,3,-33
1514894985147270,-2,-34,-32,-2,-4,-1,2,41
1514894985155277,11,29,9,22,12,11,-4,2
1514894985155277,-14,-10,18,20,-7,-9,-9,-15
1514894985170786,15,-10,-65,-32,11,10,7,-19
1514894985170786,-10,-22,17,11,-3,-8,-8,17
1514894985171789,11,14,23,-12,1,2,9,2
1514894985171789,6,7,-23,16,0,1,10,37
1514894985192803,-14,2,11,-19,-1,-1,1,11
1514894985192803,8,-6,-2,-2,3,3,-5,-73
1514894985193802,-3,18,-36,-1,-8,-5,-4,5
1514894985193802,-14,-19,-18,-32,-9,-10,-15,-34
1514894985207311,7,-18,-2,31,1,3,11,40
1514894985207311,9,40,19,-4,3,3,7,25
1514894985215318,-15,-43,10,24,-1,-5,-15,4
1514894985215318,32,23,-13,-36,0,4,-7,20
1514894985238835,-5,7,26,25,5,4,-1,-50
1514894985238835,-18,-8,-41,-13,-9,-3,17,76
1514894985240336,-13,-23,-17,1,-1,-5,-28,-88
1514894985240336,4,17,3,12,2,-3,0,29
1514894985253345,0,-21,12,-16,-3,0,4,10
1514894985253345,6,20,17,6,0,-2,-4,-8
1514894985253845,-5,-7,-23,5,0,3,18,87
1514894985253845,-8,-3,-20,-4,-4,-5,-17,-69
1514894985267355,-8,-8,43,21,8,3,-8,-27
1514894985267355,-9,12,-36,-25,-4,-3,0,-19
1514894985275361,16,14,3,-11,-1,3,11,13
1514894985275361,-16,-17,-27,1,1,0,0,-23
1514894985290376,-5,-7,1,8,-10,-10,-8,42
1514894985290376,-14,-9,31,10,3,1,-10,-27
1514894985290872,7,-9,21,18,4,1,-5,-63
1514894985290872,-11,11,-13,-11,-4,-2,-1,-34
1514894985312887,3,10,-5,-26,-7,0,11,48
1514894985312887,16,18,-9,4,-7,-4,-4,13
1514894985313387,-6,-10,-33,-28,-4,-2,-12,-14
1514894985313387,7,3,37,15,0,-1,12,29
1514894985335903,-3,-32,-41,-9,-4,-3,-13,-17
1514894985335903,1,41,38,11,5,5,5,73
1514894985336904,0,-4,-37,5,5,3,-10,-57
1514894985336904,-1,-19,-1,-10,-5,-2,6,22
1514894985350413,-10,-6,0,-5,-4,-2,-2,-29
1514894985350413,3,3,27,14,-1,-1,11,20
1514894985350913,8,5,4,2,10,4,0,65
1514894985350913,-1,4,-25,-6,-2,1,8,-16
1514894985373431,2,-15,-12,13,-2,-1,-8,-45
1514894985373431,-1,-16,8,-19,-3,-3,-6,-59
1514894985373930,-12,-48,38,22,6,1,12,58
1514894985373930,10,58,4,-22,-2,-1,-4,-27
1514894985395954,-13,15,-1,0,-5,0,5,85
1514894985395954,9,-7,-17,3,-2,-4,-10,-73
1514894985396955,-2,12,-20,-9,-6,-6,3,51
1514894985396955,5,-22,3,0,3,1,-8,-19
1514894985410455,8,7,-14,0,-1,-2,1,-14
1514894985410455,-21,3,34,19,-3,-6,-3,32
1514894985410961,-1,-6,2,-41,-16,-3,8,19
1514894985410961,-4,20,1,8,6,-1,-17,-43
1514894985433972,-17,-16,-10,-12,-3,-4,-4,3
1514894985433972,-5,-13,-8,5,1,5,8,11
1514894985434973,12,25,-3,12,-2,-2,-2,34
1514894985434973,-30,-46,0,-10,-3,-6,-7,32
1514894985456013,15,0,-19,-3,-8,-7,-15,-76
1514894985456013,15,-8,-1,10,2,-3,1,16
1514894985456998,-6,2,21,2,-1,-1,1,-15
1514894985456998,-5,15,-16,-15,-3,0,3,22
1514894985470510,5,32,21,14,-2,-1,0,12
1514894985470510,-1,-32,-25,-6,0,-2,-3,11
1514894985470998,14,19,-3,-18,-7,-3,3,-49
1514894985470998,20,10,27,9,1,-2,-21,33
1514894985493013,-10,-3,0,-7,-4,1,-5,-1
1514894985493013,5,27,-12,-1,1,1,11,-37
1514894985493514,17,-3,23,-3,3,3,6,4
1514894985493514,-8,11,-18,8,-5,-6,2,3
1514894985516042,10,4,9,-6,1,3,4,8
1514894985516042,2,9,25,6,1,1,-3,2
1514894985517038,-26,-43,-37,-9,-2,-4,-9,30
1514894985517038,16,4,-25,-12,-10,-4,-3,-30
1514894985531550,-5,18,-8,1,5,-3,-3,-38
1514894985531550,6,-17,-8,8,2,2,1,29
1514894985533552,-12,2,17,3,-1,-4,-3,-7
1514894985533552,17,19,28,-2,-2,1,18,39
1514894985553055,9,-4,8,-3,-1,-3,-14,-15
1514894985553055,-10,-21,-18,5,3,1,9,77
1514894985553557,22,43,66,-4,-1,-2,-21,-91
1514894985553557,24,-10,-81,-7,1,3,13,33
1514894985576073,-7,-33,17,17,2,0,-3,-38
1514894985576073,-10,-16,-18,-20,-6,-7,-13,-11
1514894985577072,1,28,36,9,3,9,10,31
1514894985577072,-25,-11,-3,12,0,-4,3,-33
1514894985591083,-4,-6,-5,-20,-3,0,14,49
1514894985591083,1,-58,3,-18,-2,1,-21,-58
1514894985591583,5,36,1,7,0,-1,6,1
1514894985591583,-6,-10,7,0,-1,2,-2,-23
1514894985612607,2,0,35,39,11,0,2,10
1514894985612607,-11,12,-47,-32,-6,1,12,23
1514894985613603,4,-37,-36,-2,-8,-5,-6,7
1514894985613603,-12,-2,26,22,8,8,3,-12
1514894985636115,12,36,-1,-35,-11,-11,2,37
1514894985636115,-16,17,3,2,-3,-3,-2,18
1514894985636616,-14,-39,-5,4,-1,-2,-12,-49
1514894985636616,-2,16,29,6,-3,-1,-3,22
1514894985650125,5,2,-26,10,2,-4,-10,-47
1514894985650125,9,46,32,-1,-1,2,2,-29
1514894985651126,-13,-56,-75,-19,-8,-5,3,55
1514894985651126,-4,17,21,-3,1,2,6,-35
1514894985672650,-10,-27,-29,-6,-7,-7,-20,-37
1514894985672650,0,9,22,20,2,-3,9,57
1514894985673651,23,40,-28,-22,-4,-4,-8,-4
1514894985673651,1,-15,42,5,3,0,-11,-11
1514894985696160,6,4,4,10,-2,0,30,112
1514894985696160,-9,-30,-40,-1,-2,2,-18,-94
1514894985696667,-7,3,16,27,3,1,7,3
1514894985696667,7,-5,22,-31,-7,-6,-10,2
1514894985710176,-5,23,-50,5,4,5,13,63
1514894985710176,-11,-19,13,10,-5,-5,-11,58
1514894985711178,-8,17,-1,-1,3,2,-14,-61
1514894985711178,2,-46,-21,-8,-2,2,1,-7
1514894985734185,-7,14,30,-8,-6,-4,2,54
1514894985734185,15,18,19,15,9,7,2,-13
1514894985736186,-20,-7,-2,-18,-6,-10,-8,67
1514894985736186,-5,0,-46,-5,-5,-5,-12,-67
1514894985756199,8,6,-5,0,-5,-1,5,-46
1514894985756199,-4,11,-7,-6,1,1,13,13
1514894985757703,1,5,11,22,5,3,-12,-37
1514894985757703,-19,-42,7,-12,5,-3,-7,-68
1514894985770221,4,0,-41,3,2,1,-8,-32
1514894985770221,0,-2,3,-11,-4,-9,7,49
1514894985771211,-32,-30,24,5,0,6,3,-17
1514894985771211,9,-8,-13,-13,-9,-2,23,27
1514894985792735,7,4,20,16,9,9,-6,-10
1514894985792735,-11,14,37,-13,-5,-4,-1,-16
1514894985793736,2,33,-83,-1,3,-2,8,-1
1514894985793736,13,-39,-43,-28,-2,2,18,107
1514894985815751,-20,-23,28,-14,-3,-3,-20,-12
1514894985815751,-2,-2,-5,-2,-6,-7,-38,-82
1514894985816752,6,-37,39,25,5,6,16,-2
1514894985816752,-8,31,-5,3,-1,-2,-1,11
1514894985831263,10,36,2,-3,-5,-3,-8,-15
1514894985831263,-15,-47,-14,-5,2,-1,5,6
1514894985833263,30,65,20,10,1,1,12,52
1514894985833263,7,4,12,3,-4,-2,1,18
1514894985852778,1,-16,9,-3,2,1,15,85
1514894985852778,9,28,9,3,-2,2,3,-69
1514894985853778,-9,-13,30,6,5,6,-7,6
1514894985853778,-6,50,54,20,3,3,22,76
1514894985875785,8,-27,-87,-19,-12,-9,-18,-79
1514894985875785,23,18,24,-3,7,1,-2,75
1514894985876799,-20,-27,-15,-19,-10,-8,-17,-52
1514894985876799,-10,16,11,25,5,1,-12,2
1514894985889794,16,6,31,6,-2,-1,20,43
1514894985889794,-10,-31,-31,-22,-13,-3,-7,4
1514894985897810,10,-14,-53,3,8,3,8,-15
1514894985897810,-13,-8,52,12,11,5,-26,-34
1514894985912811,-10,-7,-9,-2,-2,-5,-4,-1
1514894985912811,-2,12,-16,14,0,-2,3,-45
1514894985913810,12,73,57,-14,-4,-2,-3,9
1514894985913810,-27,-59,-27,1,-3,0,1,22
1514894985951837,0,24,53,18,6,2,-26,-86
1514894985951837,18,3,16,-3,3,6,23,109
1514894985952339,-4,-20,-16,-1,-5,-8,-26,-103
1514894985952339,2,4,-24,-9,-8,-14,-18,-24
1514894985953840,-19,-3,53,-10,-1,7,52,85
1514894985953840,-4,-15,-44,2,5,-1,-47,-28
1514894985957843,14,20,-1,6,-4,2,31,126
1514894985957843,16,7,-8,-8,1,-4,-33,3
1514894985973354,-21,-32,-22,6,1,2,12,-85
1514894985973354,20,85,78,25,9,11,29,-51
1514894985973853,-8,-78,-55,-36,-15,-17,-1,2
1514894985973853,-8,-19,-35,14,1,3,11,-69
1514894986012382,5,12,-31,-21,-5,-5,-22,34
1514894986012382,-22,-69,-16,10,-2,-9,-36,-74
1514894986014396,-19,3,1,6,0,1,2,-52
1514894986014396,8,3,27,-10,-5,-3,8,69
1514894986019389,5,-2,11,9,1,-8,-38,-9
1514894986019389,0,18,-30,-23,-7,-5,13,8
1514894986020887,-7,-16,25,21,0,-1,8,90
1514894986020887,-10,-38,-40,-18,6,-1,-6,-40
1514894986032895,-5,-3,-5,11,2,4,26,-3
1514894986032895,0,3,7,5,-5,-10,-44,-23
1514894986033395,0,13,-10,-28,-7,-3,-5,52
1514894986033395,21,61,-8,-11,-4,-5,7,34
1514894986055913,-5,-25,-30,-8,1,1,-17,-67
1514894986055913,1,13,33,11,0,3,39,20
1514894986056912,3,2,18,29,5,1,1,28
1514894986056912,-2,10,-57,-6,-6,-5,11,-60
1514894986069422,-5,-6,54,-8,1,4,-7,-43
1514894986069422,-9,-55,-54,-14,-1,3,12,20
1514894986086433,8,36,3,2,0,-4,-14,-58
1514894986086433,-6,7,38,15,3,5,32,127
1514894986100955,14,-4,-23,13,1,-3,-33,-64
1514894986100955,7,-9,14,-5,-8,-6,-5,-6
1514894986101956,12,3,-27,-9,8,8,19,39
1514894986101956,-18,-28,44,0,-12,-10,-23,-50
1514894986115954,17,43,-26,4,6,-1,2,37
1514894986115954,-11,5,26,-20,-8,-3,14,-20
1514894986116954,-23,-16,-12,-1,-6,-7,-11,30
1514894986116954,23,12,23,-5,1,0,-28,-90
1514894986129464,-10,-20,20,-1,-4,-4,5,56
1514894986129464,4,2,-34,8,3,-5,-3,-77
1514894986138485,-5,-8,12,-8,-5,0,6,42
1514894986138485,2,11,8,-1,5,-2,-11,-64
1514894986152981,-13,-50,26,-6,-6,1,16,100
1514894986152981,5,22,-37,-7,-2,-6,3,31
1514894986153481,6,1,-8,-1,0,0,-6,-35
1514894986153481,-3,18,-10,-5,-10,-8,-8,4
1514894986175998,-11,6,0,-8,-1,10,16,80
1514894986175998,-15,-17,13,-5,-10,-17,-17,-94
1514894986176998,-11,16,63,31,4,2,9,70
1514894986176998,11,-14,-77,-64,-11,-4,-20,-36
1514894986190006,-18,7,-38,2,-4,-8,-28,5
1514894986190006,6,18,58,15,6,5,5,127
1514894986198012,-3,-45,37,1,0,1,-4,-81
1514894986198012,-8,6,12,28,6,8,58,87
1514894986213022,8,7,-37,-13,-5,-9,-47,-121
1514894986213022,-8,-15,-62,-11,0,-1,-29,-36
1514894986213523,-7,-18,30,2,6,0,-33,-69
1514894986213523,-10,27,3,30,-1,5,34,43
1514894986236039,13,3,-34,-39,-5,-3,0,-59
1514894986236039,-9,9,53,1,1,4,20,6
1514894986237039,12,-3,-36,10,-3,-6,54,-4
1514894986237039,2,-12,-60,-9,-1,2,-10,54
1514894986258555,-5,5,27,17,2,3,19,40
1514894986258555,-4,12,-9,2,-2,-5,-14,-82
1514894986259555,2,42,14,-18,-8,-2,19,47
1514894986259555,-18,-52,-2,-17,-10,-7,-21,-8
1514894986273065,8,-24,-22,6,2,1,9,-9
1514894986273065,-7,2,-17,-9,-6,0,4,74
1514894986273565,26,23,4,0,4,8,16,-34
1514894986273565,-5,-7,4,7,-1,-2,-7,-10
1514894986297082,2,-16,27,-19,-6,-3,-16,-3
1514894986297082,-14,10,-39,14,2,-2,12,-35
1514894986298083,-5,6,20,-17,-2,-1,-20,44
1514894986298083,14,15,31,12,1,3,4,54
1514894986318598,-4,43,30,12,8,3,0,-71
1514894986318598,8,-15,0,-10,-6,0,2,127
1514894986319098,-12,-24,-11,14,5,-2,-27,-110
1514894986319098,27,22,36,7,4,2,13,-6
1514894986332607,-16,-2,2,0,-7,-7,7,23
1514894986332607,20,10,41,7,7,9,16,9
1514894986333608,-11,1,-26,-26,-10,-4,-17,12
1514894986333608,-1,0,1,17,2,3,13,-32
1514894986355135,4,3,64,19,6,-2,-7,32
1514894986355135,2,-24,-80,-20,-7,1,32,86
1514894986362637,-5,16,-11,5,0,-1,-7,-21
1514894986362637,8,8,5,6,0,0,-21,-56
1514894986379150,-15,-59,-17,-9,-8,-5,3,5
1514894986379150,-13,13,-10,-10,1,0,4,44
1514894986381142,-5,-22,-30,20,1,-1,-18,-67
1514894986381142,4,16,18,-28,-6,-7,-18,-12
1514894986392661,1,-32,-20,-4,1,1,-2,11
1514894986392661,-13,2,11,1,-1,-2,-17,-30
1514894986393660,9,-10,-6,-4,-1,0,13,41
1514894986393660,1,31,29,9,3,0,2,-11
1514894986416165,-1,4,-42,-2,-9,-10,-3,-49
1514894986416165,9,28,-6,-8,0,-1,4,-5
1514894986416676,15,30,4,-9,-5,2,10,19
1514894986416676,1,-14,28,-1,-1,-5,-3,32
1514894986438681,14,24,-22,-1,2,0,17,43
1514894986438681,-4,-17,10,31,5,5,-2,-44
1514894986440195,4,19,18,-21,-5,-5,-9,66
1514894986440195,6,-13,33,14,3,2,-26,-60
1514894986461197,16,33,-71,-38,-12,-5,-1,48
1514894986461197,-1,-34,13,23,9,4,-6,4
1514894986462700,-3,2,-11,-14,-4,-1,4,58
1514894986462700,-5,-18,-10,-7,-8,-5,-8,-32
1514894986476209,-14,-9,-7,11,6,5,-1,26
1514894986476209,-14,-27,-1,8,-1,-8,-13,-125
1514894986477710,6,5,27,-4,3,2,11,49
1514894986477710,0,23,-16,7,-1,-5,6,-5
1514894986499225,-18,-41,-2,-1,1,-1,-15,-91
1514894986499225,-7,-3,3,-3,-6,-2,11,55
1514894986500738,14,36,29,3,-2,-5,-13,-59
1514894986500738,-17,-23,-23,-23,-4,-2,-8,-3
1514894986512235,3,-13,21,14,0,2,7,10
1514894986512235,10,8,16,-14,3,7,16,41
1514894986523743,-24,-12,-3,19,-1,-3,-5,-50
1514894986523743,-4,-41,-38,-13,-5,-1,4,0
1514894986535751,5,39,35,4,0,3,19,91
1514894986535751,6,-15,-56,-14,-6,-5,-21,-36
1514894986537753,-4,39,-29,-7,-1,-6,-14,-66
1514894986537753,-20,3,6,-5,2,7,27,63
1514894986558767,-4,-19,19,3,-2,-7,-2,-23
1514894986558767,7,8,-13,-4,-9,-5,-3,-37
1514894986560267,0,-10,33,3,1,2,-1,-4
1514894986560267,3,16,-47,16,15,8,12,71
1514894986572777,-25,-37,4,5,-2,-4,-17,-64
1514894986572777,0,48,28,17,7,7,3,23
1514894986581283,-1,-42,-62,-42,-12,-6,7,94
1514894986581283,11,16,57,21,3,3,5,-90
1514894986596294,-16,-26,-36,13,1,3,13,33
1514894986596294,-7,-33,-9,-45,-10,-6,-16,-46
1514894986597795,5,20,-25,21,3,-2,-9,5
1514894986597795,3,-19,7,-12,-2,-4,-10,42
1514894986618810,2,16,13,8,1,4,2,11
1514894986618810,-3,20,19,-3,0,-4,0,-45
1514894986626315,-3,-2,4,1,0,1,15,22
1514894986626315,-11,13,16,18,2,3,11,-20
1514894986641329,11,21,19,-34,-7,-7,-4,-1
1514894986641329,-19,-5,-29,7,4,1,-11,31
1514894986642826,22,1,-22,8,0,0,22,85
1514894986642826,-18,-46,-31,-19,-6,-4,-29,-58
1514894986656339,16,46,16,24,3,5,30,91
1514894986656339,-5,-19,-53,-10,2,-4,-32,-106
1514894986657838,-22,-14,24,-4,-1,-1,8,20
1514894986657838,13,7,7,6,-3,-2,12,33
1514894986678853,2,41,16,2,-1,1,-17,-25
1514894986678853,3,1,70,5,-1,-2,2,-8
1514894986680353,-6,-41,-58,-3,-2,-1,2,0
1514894986680353,0,-5,12,-21,-6,-2,4,-3
1514894986692862,-2,1,8,10,5,3,4,-2
1514894986692862,14,11,3,18,-2,-2,22,26
1514894986701369,-10,-9,11,-5,-4,-2,-13,18
1514894986701369,3,15,-30,-18,-2,0,-8,-7
1514894986715879,-2,-37,-57,-7,-7,-11,6,14
1514894986715879,1,4,-15,3,-2,-1,-17,-15
1514894986717380,-4,0,19,-6,4,5,-6,-57
1514894986717380,-17,9,11,-1,-7,-9,-8,5
1514894986738394,10,4,41,4,0,-1,-1,103
1514894986738394,-6,-23,-51,-8,-4,-2,0,-28
1514894986739895,5,26,-2,-10,-3,-6,-23,-64
1514894986739895,2,2,-14,22,4,0,-2,43
1514894986752403,-6,-3,55,-11,-4,0,-9,-56
1514894986752403,2,-9,-51,-7,2,3,32,127
1514894986761411,24,23,8,-8,-2,0,-18,-3
1514894986761411,2,-17,-12,5,1,2,3,-33
1514894986776421,-10,-7,20,4,2,5,-5,19
1514894986776421,26,24,23,-2,-7,-2,20,65
1514894986777922,-20,-48,-4,1,5,6,19,-11
1514894986777922,20,33,93,25,10,3,6,13
1514894986798436,-11,-55,-111,-27,-7,-7,-4,-75
1514894986798436,-17,-21,9,-23,-8,-3,-10,-33
1514894986799938,9,56,50,20,1,3,15,12
1514894986799938,-6,-11,4,-16,-4,-3,-12,-24
1514894986812447,10,8,11,36,8,10,25,-5
1514894986812447,-7,-4,23,-22,0,3,15,110
1514894986821953,-9,26,-60,-12,-9,-12,-36,-108
1514894986821953,-2,-14,-21,13,4,4,-1,37
1514894986835962,2,21,14,-18,-9,-9,-31,-106
1514894986835962,-8,26,37,23,3,4,38,95
1514894986837464,2,-31,5,-21,-7,3,-10,-20
1514894986837464,24,83,28,9,4,1,1,11
1514894986859481,-4,-28,-73,-16,-2,-4,0,54
1514894986859481,10,17,35,25,4,1,-7,-12
1514894986861981,4,-12,3,-6,-1,-2,14,11
1514894986861981,-11,-24,-18,-7,-3,0,5,2
1514894986871988,10,22,8,15,0,2,35,84
1514894986871988,2,-10,47,-14,4,1,-33,-88
1514894986881495,-6,-13,-4,18,0,-10,-1,11
1514894986881495,9,-7,52,-17,-3,0,1,24
1514894986896005,-14,-31,-69,1,2,0,2,19
1514894986896005,9,61,79,-3,-3,-1,1,-52
1514894986897509,-11,-73,-56,-8,-5,-4,-12,0
1514894986897509,-16,-48,-15,10,-3,-5,0,-26
1514894986918521,13,15,52,-10,-1,2,-2,-30
1514894986918521,17,51,54,40,8,3,6,45
1514894986920022,-24,-19,-72,-31,-6,-3,3,-2
1514894986920022,-16,12,-74,-30,-16,-17,-19,-73
1514894986932531,2,-3,75,-2,-2,0,-1,-1
1514894986932531,4,-29,-99,-1,2,1,2,45
1514894986941041,13,49,105,33,7,6,-2,16
1514894986941041,-29,-71,-35,-14,-5,0,2,28
1514894986956548,8,-3,-4,6,4,-1,-6,-21
1514894986956548,-18,-6,-5,-9,-5,-4,-17,-30
1514894986957549,-2,-9,-32,12,0,1,28,102
1514894986957549,-4,-3,8,-7,5,4,-20,-92
1514894986979065,-2,29,90,25,6,1,-16,38
1514894986979065,-20,-64,-35,-18,-9,-5,-7,-17
1514894986980067,19,75,41,-3,-2,-2,-1,-14
1514894986980067,7,-25,-44,5,3,4,8,47
1514894986992574,-7,-28,33,10,-1,0,-17,-3
1514894986992574,-2,-19,-42,-16,-4,-2,-10,-34
1514894987001079,3,15,-20,-1,1,4,8,21
1514894987001079,4,17,31,18,3,1,-10,26
1514894987016090,9,59,19,9,3,2,3,-53
1514894987016090,-4,-18,-47,-41,-13,-7,-6,40
1514894987017591,-5,-6,57,23,13,5,-12,-78
1514894987017591,13,-2,-11,-12,-7,-5,5,42
1514894987038605,-20,-47,-23,-4,-1,3,23,-5
1514894987038605,-19,2,-3,21,5,-1,-34,-46
1514894987040112,-2,-88,-45,-23,-10,-6,1,8
1514894987040112,2,51,45,9,0,-4,-3,35
1514894987052116,-19,-46,-29,-26,-10,-2,5,-32
1514894987052116,11,8,-19,17,0,-3,-18,-55
1514894987061122,3,9,22,1,5,3,3,-15
1514894987061122,-3,47,14,8,-3,-7,-2,22
1514894987076132,-2,-70,-90,-23,-8,-4,-4,30
1514894987076132,-5,43,54,28,3,-1,10,53
1514894987077633,10,-5,0,-13,-4,-1,10,-8
1514894987077633,-13,-22,-46,-6,-7,-8,-29,-72
1514894987098648,14,2,13,-5,3,0,-5,7
1514894987098648,-6,19,-22,-12,-2,-2,9,16
1514894987102150,6,17,38,21,6,4,-16,-47
1514894987102150,3,-10,-23,-5,3,5,18,46
1514894987112658,-2,42,-15,1,1,1,-5,-24
1514894987112658,6,-20,11,16,0,-6,-8,20
1514894987121164,-19,-2,-12,-47,-15,-7,3,3
1514894987121164,-15,-17,29,3,3,2,0,16
1514894987143679,5,38,9,19,2,-1,-17,-44
1514894987143679,9,-13,10,-13,0,1,13,13
1514894987145190,3,27,19,14,4,6,8,44
1514894987145190,7,30,-27,-2,0,3,22,25
1514894987158690,-15,-55,-23,-14,-8,-7,-17,2
1514894987158690,6,34,11,-3,1,4,9,-6
1514894987160191,4,-31,-27,12,5,5,1,2
1514894987160191,21,20,-16,0,-5,-7,4,-28
1514894987181206,-13,-12,8,-10,-3,0,8,33
1514894987181206,4,5,2,10,-2,-3,-4,-21
1514894987182709,15,47,34,-2,0,-4,-7,23
1514894987182709,18,-26,1,-1,-2,3,3,29
1514894987196724,-20,-6,-51,-8,-5,-5,-19,42
1514894987196724,-1,-72,-6,-9,-3,-4,-9,-56
1514894987198227,-12,47,8,-1,-6,-10,-28,-31
1514894987198227,-5,-12,13,23,9,5,3,21
1514894987218233,22,62,-33,-33,-11,-9,-10,-81
1514894987218233,-3,0,-25,7,4,1,10,32
1514894987220235,-37,-60,-48,-8,-11,-12,-18,-38
1514894987220235,8,10,10,-18,-4,-3,-6,-14
1514894987240750,-2,-54,-11,18,8,7,18,44
1514894987240750,10,41,31,7,-2,-1,12,11
1514894987242751,-13,-13,-16,-1,1,-5,-9,-26
1514894987242751,-14,8,26,-15,-7,-3,4,47
1514894987256259,22,63,49,9,2,3,11,-58
1514894987256259,-44,-88,-22,1,0,2,10,-4
1514894987257762,13,30,9,6,-1,-3,-9,19
1514894987257762,-12,-24,0,7,4,4,12,89
1514894987278285,-15,-30,4,-11,-1,-1,-27,-54
1514894987278285,7,19,16,-3,-1,-2,23,49
1514894987280285,-10,16,38,17,5,6,13,-38
1514894987280285,6,-13,-75,-5,-5,-5,-15,45
1514894987300790,16,17,18,9,3,3,9,16
1514894987300790,-29,-22,17,-16,-9,-6,-15,-65
1514894987302792,-8,-9,-10,-14,-5,-1,29,86
1514894987302792,13,15,40,15,9,6,5,-60
1514894987315813,0,24,0,11,1,0,3,-6
1514894987315813,-14,-4,-28,-8,-4,-4,-22,-86
1514894987317802,-1,-4,1,1,-4,-2,11,41
1514894987317802,-13,-13,-44,-9,-3,-1,1,-45
1514894987338318,7,40,35,2,-2,0,-3,4
1514894987338318,1,4,59,2,2,4,9,66
1514894987340319,7,-4,-79,11,1,-1,-13,-47
1514894987340319,-5,-27,26,-20,-3,-3,-1,-28
1514894987360843,-7,-10,-21,-5,0,2,18,33
1514894987360843,8,40,7,6,4,2,11,109
1514894987362335,2,23,-5,-11,-8,-8,-27,-112
1514894987362335,-7,-33,27,2,-1,0,10,9
1514894987375845,-7,-38,-18,-12,-3,-5,-12,70
1514894987375845,10,34,22,15,1,1,-23,-110
1514894987382348,-2,-24,10,-7,0,-2,5,41
1514894987382348,-10,13,-75,-20,-9,-4,-3,-23
1514894987398369,9,17,18,10,1,-2,-24,-8
1514894987398369,3,-18,-13,17,3,-3,-11,-48
1514894987399876,1,7,23,-31,-4,2,12,34
1514894987399876,2,-37,-36,-1,0,1,2,-13
1514894987420877,-10,-25,18,2,-5,-4,-10,-45
1514894987420877,4,13,-41,-2,0,-1,-6,12
1514894987424382,24,19,-6,-1,3,0,-2,16
1514894987424382,-4,5,27,6,-2,-1,9,78
1514894987435387,7,16,-10,5,1,0,10,-79
1514894987435387,-12,-29,11,-38,-2,-1,-5,6
1514894987441892,-6,-7,-14,8,0,-3,1,33
1514894987441892,-16,14,4,14,5,3,-7,-25
1514894987458403,-8,13,12,6,-9,-8,2,-2
1514894987458403,13,21,42,-17,4,3,-5,-9
1514894987459915,7,31,11,14,5,5,11,48
1514894987459915,-22,-65,1,2,-5,-9,-20,-41
1514894987480918,-7,-12,29,9,0,2,8,38
1514894987480918,0,-29,-82,-23,-8,0,6,23
1514894987482420,-6,25,37,14,1,-2,-10,-65
1514894987482420,11,-27,2,-11,-3,0,5,89
1514894987495428,-8,3,51,32,7,4,3,-10
1514894987495428,5,-9,-88,-18,-6,-6,-16,-50
1514894987501933,-19,-60,3,-7,-5,-8,-6,-9
1514894987501933,14,39,17,16,4,0,2,-19
1514894987518454,4,-38,-26,-11,-3,-1,23,-1
1514894987518454,-14,12,63,28,4,1,14,50
1514894987519956,5,6,-61,-5,1,1,-5,11
1514894987519956,-5,26,-1,-14,-11,-10,-25,-74
1514894987540961,-16,-2,-36,-31,-6,-7,-5,36
1514894987540961,12,27,1,16,2,3,9,-7
1514894987542463,-2,3,11,4,-2,1,15,90
1514894987542463,14,6,14,0,0,-4,-31,-88
1514894987563486,5,-17,4,1,7,5,2,11
1514894987563486,11,-24,-16,19,-3,-4,8,78
1514894987564987,3,-4,-30,-17,-3,0,5,-23
1514894987564987,-16,-71,40,-1,2,2,5,-2
1514894987578488,5,19,-30,-14,-4,-2,-10,-7
1514894987578488,-16,-32,12,-5,-1,-2,-19,-7
1514894987579989,4,-13,36,17,-2,-2,4,9
1514894987579989,8,43,-11,16,5,8,19,0
1514894987608521,-27,-40,-31,-16,-9,-7,-24,-44
1514894987608521,10,7,73,19,4,-1,10,46
1514894987610022,-6,-11,-79,-50,-14,-4,5,19
1514894987610022,-18,2,14,-12,-1,-4,-7,5
1514894987615522,-7,10,-8,2,-4,3,12,53
1514894987615522,13,34,45,5,2,1,-6,23
1514894987622033,1,-43,-50,20,4,3,-16,-68
1514894987622033,-10,39,-19,-3,1,5,15,6
1514894987638529,-14,-46,-36,8,4,-1,-3,41
1514894987638529,-5,11,-17,-14,-8,-2,5,-13
1514894987640032,32,34,51,1,5,6,10,-5
1514894987640032,-22,-21,1,0,-2,-2,-3,47
1514894987661045,33,22,19,16,7,4,3,58
1514894987661045,11,0,-59,-24,-8,0,6,-52
1514894987662546,-17,-32,43,27,2,-1,-14,-44
1514894987662546,9,42,-57,-35,-6,-3,8,15
1514894987675056,5,-17,49,14,1,1,-2,17
1514894987675056,-9,25,43,9,6,1,-1,-42
1514894987682060,3,-32,-63,-14,-3,1,4,58
1514894987682060,0,7,24,4,-1,-5,-18,-37
1514894987698584,-13,20,9,16,1,0,2,-8
1514894987698584,9,-7,11,-8,-4,-5,-2,7
1514894987700082,-15,7,-6,-1,1,-1,-11,-23
1514894987700082,24,1,10,31,7,4,16,21
1514894987721588,11,-24,-38,-52,-8,-5,-11,13
1514894987721588,-13,1,-44,-1,-7,-2,-3,-41
1514894987723089,-8,-24,23,-5,-3,-4,-8,-24
1514894987723089,31,31,16,13,4,5,22,80
1514894987735098,-7,9,-23,-3,-2,-3,-23,-62
1514894987735098,1,-17,-2,9,2,0,0,-88
1514894987751119,-8,-12,-10,-15,-6,-6,-6,16
1514894987751119,-9,31,-28,8,1,3,3,-11
1514894987758632,19,38,51,1,-2,-2,-1,23
1514894987758632,-16,-14,-46,-21,-7,-2,-11,19
1514894987760127,-22,-41,-20,13,1,0,-4,-75
1514894987760127,11,14,8,-5,-5,-6,-13,-35
1514894987782132,-8,-27,16,7,0,1,12,17
1514894987782132,1,17,-44,-8,-2,-3,11,36
1514894987784634,14,57,34,-4,-3,-4,-1,29
1514894987784634,-20,-18,-35,-2,-2,-4,-14,-33
1514894987794641,-6,-40,-5,-17,0,-1,-5,-43
1514894987794641,20,44,28,4,-8,-7,0,20
1514894987803647,-17,-51,-31,-26,-5,-4,9,24
1514894987803647,0,-25,10,-2,-4,0,4,21
1514894987817655,2,33,25,14,3,-3,-6,-14
1514894987817655,9,3,22,5,2,5,7,20
1514894987826228,-5,-13,-4,17,-2,-4,-14,41
1514894987826228,1,-4,-4,-13,-5,-10,-26,-16
1514894987842239,-9,-4,-40,-28,-5,5,22,17
1514894987842239,3,3,14,17,4,-2,-27,-3
1514894987845742,7,69,25,-2,-5,-5,-32,-78
1514894987845742,4,-66,-7,-2,-4,-4,-1,12
1514894987854748,10,34,26,23,4,2,5,-5
1514894987854748,15,19,-13,-17,-1,-1,-1,6
1514894987863754,-17,-26,-40,-4,-2,0,15,48
1514894987863754,-3,6,24,-3,-6,-5,-7,-56
1514894987877764,21,54,47,13,2,-2,8,39
1514894987877764,-54,-99,-92,-33,-10,-5,-10,-60
1514894987886279,6,41,63,19,9,4,19,81
1514894987886279,-1,-3,-42,-17,-3,-1,2,0
1514894987900792,-8,-16,0,-2,-5,-3,-3,-6
1514894987900792,-11,35,60,45,10,3,6,-12
1514894987902281,17,15,16,-22,4,2,1,-4
1514894987902281,-16,-30,-20,0,0,1,3,-13
1514894987914790,5,17,2,6,5,4,4,7
1514894987914790,8,14,33,1,-2,1,-1,60
1514894987924297,14,27,-38,1,-1,-2,2,-84
1514894987924297,-5,-18,7,-6,-5,-5,-8,5
1514894987939310,-8,-23,-21,-5,-1,-1,5,2
1514894987939310,-5,-14,-22,-1,3,3,6,24
1514894987943310,5,4,-3,-4,-3,0,1,35
1514894987943310,32,38,17,8,2,-3,-20,-58
1514894987960822,-6,-51,-13,14,-2,-5,4,47
1514894987960822,-1,-5,37,-11,3,3,2,-40
1514894987962824,5,31,-8,4,-1,0,-7,-52
1514894987962824,6,41,-23,-2,-1,2,4,-14
1514894987975333,-6,-10,-19,-3,-6,-7,-12,12
1514894987975333,22,58,64,6,2,-1,3,22
1514894987983339,-11,-44,-92,-14,-5,-3,2,24
1514894987983339,-3,-8,4,6,5,2,10,9
1514894987998358,1,33,11,-1,-1,-2,0,-12
1514894987998358,-5,-24,-25,-7,-6,-2,-6,54
1514894987999851,6,23,40,-4,-5,-1,-2,0
1514894987999851,-14,-29,38,4,-2,-1,7,37
1514894988020877,-7,13,-19,-1,-2,-3,-19,-53
1514894988020877,-20,-26,-8,1,-1,-5,-3,-2
1514894988022867,15,16,39,-4,-6,-2,11,36
1514894988022867,-11,-35,-53,-16,0,0,5,29
1514894988034384,-8,9,7,-18,1,4,8,24
1514894988034384,7,-8,-27,-5,-2,-6,-15,-102
1514894988043380,-5,-2,68,23,9,2,3,57
1514894988043380,-22,-32,-1,-3,-6,-3,-2,-44
1514894988058900,16,5,8,0,-2,1,-10,-22
1514894988058900,-14,-28,-36,-3,-1,-3,-4,22
1514894988064405,-8,-11,17,8,3,1,2,2
1514894988064405,-4,27,30,13,4,2,4,8
1514894988081909,-10,-31,-2,10,-2,-4,0,-23
1514894988081909,17,17,-41,-25,-3,-1,0,18
1514894988083410,-9,-12,-13,-9,-3,-2,-2,21
1514894988083410,3,17,30,-1,1,-2,-6,-65
1514894988103425,-14,-11,-48,6,0,0,-13,-4
1514894988103425,2,-6,18,-4,-3,-3,17,-1
1514894988104925,-1,2,6,1,1,-1,0,-30
1514894988104925,-2,-34,-1,1,-1,0,10,32
1514894988118435,3,13,-5,2,5,4,5,32
1514894988118435,2,-1,13,6,0,-3,-12,-24
1514894988119936,-1,0,-9,-4,-1,-1,3,-7
1514894988119936,-17,-21,33,12,0,-4,-19,-56
1514894988140960,11,14,-19,-6,-4,-3,-2,-12
1514894988140960,-13,-3,10,13,-2,0,7,98
1514894988142451,21,-24,-7,-1,6,2,-18,-67
1514894988142451,12,22,-12,-6,-3,1,2,40
1514894988163467,-10,-3,3,-5,-1,-1,2,-21
1514894988163467,6,16,10,2,1,-1,0,17
1514894988164967,-5,-12,-16,-2,-2,-2,3,16
1514894988164967,19,38,16,10,4,3,4,15
1514894988178477,-8,-43,-36,-41,-8,-6,-4,7
1514894988178477,6,15,13,23,3,-1,-4,-29
1514894988181979,-10,8,40,-7,-3,2,6,-2
1514894988181979,1,-32,-43,-11,-1,0,6,39
1514894988201492,-4,18,20,1,-4,-1,6,18
1514894988201492,10,21,4,9,2,1,-19,-49
1514894988202994,0,-13,-35,-14,-4,-5,-11,-10
1514894988202994,-4,0,6,-5,-5,-2,1,20
1514894988231026,3,7,6,3,-1,-2,2,-2
1514894988231026,-7,-20,-19,-12,-5,-4,-2,-8
1514894988234525,2,10,12,18,4,2,4,15
1514894988234525,2,6,6,-2,-4,-4,-3,-6
1514894988238519,1,-1,-16,-5,-2,-3,2,-10
1514894988238519,0,14,-8,2,-3,-2,7,31
1514894988244523,-16,-21,-8,-8,-4,-5,-13,-47
1514894988244523,1,1,-23,-4,-2,-2,-2,3
1514894988261044,-3,8,32,5,1,-1,0,-18
1514894988261044,-1,-7,1,-9,-2,1,2,9
1514894988262546,0,5,-3,12,1,0,1,14
1514894988262546,-7,-3,15,-8,-4,-1,-3,-8
1514894988284052,2,3,-4,-1,0,-1,-1,3
1514894988284052,-5,-8,-18,-5,-4,0,2,-9
1514894988285553,-1,-1,16,1,1,-2,0,5
1514894988285553,0,5,1,0,0,-2,-4,-9
1514894988306568,1,-1,-7,1,-3,-1,3,2
1514894988306568,-2,-5,-3,-6,-2,-1,2,-1
1514894988308573,-2,0,0,0,-6,-2,-2,-1
1514894988308573,-3,-3,-2,12,3,-3,0,3
1514894988321078,2,6,-2,-7,-1,-1,-4,-6
1514894988321078,-2,-3,0,-5,1,1,0,-6
1514894988322582,-2,-2,3,-1,-3,-1,0,8
1514894988322582,-1,0,-11,-5,-4,-2,0,-3
1514894988343593,-1,4,-2,2,-1,-5,-4,-7
1514894988343593,-2,-7,1,-3,1,-2,-1,-2
1514894988345094,1,0,-2,-4,-2,-3,0,3
1514894988345094,0,1,1,0,1,3,-1,-1
1514894988357604,-2,0,2,3,-1,1,0,-4
1514894988357604,-1,1,0,-3,-2,-1,-1,2
1514894988364607,-2,-1,-4,-4,-7,-3,-1,1
1514894988364607,-3,-2,-3,-3,1,-2,-1,-2
1514894988383622,1,-1,2,3,0,1,-2,0
1514894988383622,-1,0,-5,-4,-2,-4,0,-3
1514894988386624,0,-2,-1,-3,-8,-6,-1,-1
1514894988386624,-1,1,-2,-6,1,-1,-1,-1
1514894988403636,1,-2,1,14,-2,-2,-1,2
1514894988403636,-1,-1,-1,0,3,-2,-3,-3
1514894988405137,-3,-3,-2,-11,-6,-1,0,-2
1514894988405137,-2,-4,2,-9,-9,-2,-2,1
1514894988417646,-1,0,6,9,7,5,1,1
1514894988417646,-1,1,5,13,-3,-5,-2,0
1514894988424650,-2,-5,-12,-11,19,6,1,2
1514894988424650,0,-3,0,-3,-5,-3,1,-1
1514894988441162,0,-1,1,-14,-6,-4,0,-4
1514894988441162,-2,3,5,9,-4,-1,0,-3
1514894988442663,-2,1,0,17,5,0,0,-2
1514894988442663,-3,-4,0,-22,-1,1,-1,0
1514894988463677,-1,-1,-6,-1,-2,-2,-2,-2
1514894988463677,-1,-2,-1,-7,-3,-3,-2,-2
1514894988465179,-2,-1,1,6,-2,-2,0,1
1514894988465179,-1,-1,-3,8,4,1,-1,0
1514894988478189,0,1,-4,-5,-4,-2,-1,-2
1514894988478189,-1,1,-2,-4,2,-1,-1,-3
1514894988492208,0,-2,-2,0,-1,-1,0,2
1514894988492208,0,-3,-1,4,-2,-1,-1,-1
1514894988500213,-1,0,0,-4,1,1,-2,-1
1514894988500213,0,0,-4,-5,-3,-1,-1,-1
1514894988508710,0,-1,1,-1,-6,-1,-1,-1
1514894988508710,-1,-2,-1,1,1,-4,-3,0
1514894988524238,-2,-3,0,-2,0,-1,1,-2
1514894988524238,0,-1,-3,-6,-1,-2,0,-1
1514894988527724,0,-3,0,-2,-5,-1,-2,0
1514894988527724,-2,-2,1,5,0,0,0,-2
1514894988537731,1,1,0,-2,-1,-2,-1,0
1514894988537731,-2,0,-2,-4,-3,-1,-1,-3
1514894988544736,-2,-2,0,-2,-1,-1,-1,-1
1514894988544736,-1,-2,-1,3,0,-1,-1,0
1514894988560748,-1,0,-2,-1,0,-2,-1,-1
1514894988560748,-2,1,-2,-2,-1,-1,0,1
1514894988562248,-1,-1,0,0,-1,-1,0,0
1514894988562248,-1,-1,0,1,1,-1,-1,-2
1514894988583264,-1,0,-2,-2,-1,0,-1,-2
1514894988583264,0,-1,-1,-2,0,-2,-1,-2
1514894988584764,-1,0,-1,0,-2,-2,-2,-1
1514894988584764,-1,-1,-2,0,-1,-1,-1,0
1514894988597782,0,1,0,-3,-1,1,-3,-1
1514894988597782,-2,0,-1,-3,-3,-1,0,1
1514894988604787,-1,-1,-2,0,-1,-1,-1,0
1514894988604787,0,-1,0,-1,-3,-1,-1,-3
1514894988620790,-1,-1,-1,-1,0,0,-1,-1
1514894988620790,-2,1,-2,-1,-1,0,-1,0
1514894988622790,-1,-1,1,-1,-1,-3,-1,0
1514894988622790,-2,-1,-1,0,-1,0,-1,0
1514894988643317,0,1,-1,-1,-1,-2,-1,-1
1514894988643317,1,-1,-2,-2,-1,-1,-2,0
1514894988644818,-1,-1,-1,-1,-1,0,-1,-1
1514894988644818,-1,-3,1,1,-1,-1,-2,-1
1514894988657315,-2,1,-1,-2,-2,-2,0,-1
1514894988657315,0,0,0,-3,0,-2,-2,-2
1514894988666321,0,-1,-1,-2,0,-1,-2,0
1514894988666321,-2,-1,-2,-1,-2,1,-2,-1
1514894988681341,-1,-1,-1,1,-1,-1,0,-2
1514894988681341,-1,2,0,0,-2,0,0,-1
1514894988682833,-1,-1,-3,0,-2,-1,-1,-2
1514894988682833,-3,-2,0,-1,-1,-1,-1,-2
1514894988703357,-2,-1,-1,-2,-2,-1,-3,-1
1514894988703357,-1,1,-2,-1,-2,-1,-1,-1
1514894988704849,1,-3,-1,-1,0,-3,0,-1
1514894988704849,0,-4,0,0,-1,-2,1,1
1514894988716867,-1,0,1,-2,-1,-2,-1,-1
1514894988716867,-1,0,-2,-2,-1,0,-1,-1
1514894988726379,-2,-2,-1,-1,-2,0,-3,-2
1514894988726379,-1,-2,-2,0,-1,-2,-1,-1
1514894988740874,-1,-1,-1,-4,1,-2,-1,0
1514894988740874,-2,1,-3,-1,-1,-1,0,0
1514894988742375,-1,-2,-2,-1,-1,0,-1,-1
1514894988742375,-1,-1,0,0,0,1,0,-3
1514894988763399,-1,0,0,-2,-1,-1,-2,-2
1514894988763399,1,-2,-2,-1,-2,0,-1,-2
1514894988764908,-1,-1,-3,-2,1,-2,-2,0
1514894988764908,-1,-2,-2,-2,-1,-3,-1,-2
1514894988776900,-1,0,-3,-1,-2,-3,-2,1
1514894988776900,-1,2,-1,-1,-1,-1,-1,-2
1514894988785905,-1,-3,1,-2,0,-1,-1,-1
1514894988785905,-2,-2,0,-1,1,-2,-3,-1
1514894988800916,0,0,-1,0,-1,0,0,-3
1514894988800916,-1,1,-1,-1,-2,0,-1,-1
1514894988802427,-1,-1,-1,-1,-2,1,0,-1
1514894988802427,-1,-1,-2,0,-1,-2,1,-1
1514894988823432,-1,-2,0,-2,-1,-1,1,-1
1514894988823432,-2,0,-2,-1,-1,-1,0,0
1514894988830449,-2,-3,-1,-1,-1,-1,0,-3
1514894988830449,-2,-1,-1,0,-2,0,-2,0
1514894988837943,-1,0,0,-1,-1,0,-1,-2
1514894988837943,-1,0,0,-2,0,-2,-1,0
1514894988845948,-1,-2,0,-1,-2,-2,-2,0
1514894988845948,-1,-2,-3,-3,-1,1,-2,-2
1514894988861460,-1,-1,-1,0,-1,0,-2,-2
1514894988861460,-1,-1,-1,-2,0,-3,-2,1
1514894988862961,-2,-2,0,-1,0,-1,0,1
1514894988862961,-1,-3,0,0,0,-1,-1,-1
1514894988883485,-1,0,-2,-2,-1,-1,0,-2
1514894988883485,-1,0,-3,-2,-1,0,-1,-1
1514894988884975,-1,-3,-1,-1,-2,0,-1,-1
1514894988884975,0,-5,-2,-1,-3,1,-1,0
1514894988896994,-2,1,-1,-1,0,-3,-1,-2
1514894988896994,-3,0,-2,-1,1,-1,-1,-1
1514894988906012,-2,-1,-1,1,-1,-1,-1,0
1514894988906012,0,-4,0,-1,-1,0,0,0
1514894988920500,-1,-2,-2,-1,-2,0,-1,0
1514894988920500,-1,-1,-2,-2,-1,-3,0,-1
1514894988927509,-3,-2,-2,-2,0,-1,-1,-1
1514894988927509,-1,-2,-1,0,-1,-2,-1,-1
1514894988943527,-1,1,0,-1,0,0,0,0
1514894988943527,0,1,-2,-1,-3,-2,-2,-1
1514894988945027,0,-2,0,-1,0,-1,-3,-2
1514894988945027,-1,-2,1,-2,0,-1,-2,-1
1514894988957030,0,0,0,-1,-2,-3,-2,0
1514894988957030,-1,-1,0,-2,-1,1,-1,-1
1514894988966033,-1,-3,-2,0,-1,0,0,-1
1514894988966033,-3,-2,-1,0,-2,-2,0,0
1514894988981043,-1,0,-2,1,-1,-2,-1,-1
1514894988981043,-1,0,-1,-2,-1,0,0,1
1514894988982545,0,-1,-3,0,-1,0,0,-2
1514894988982545,-1,-3,-1,-1,-2,-1,-2,-1
1514894989003060,-1,0,-1,-1,-3,-2,-2,-1
1514894989003060,-2,0,-3,-1,0,-1,-2,-2
1514894989009563,0,-2,0,-2,-1,-1,-1,-2
1514894989009563,-2,-1,-1,-1,-1,-1,0,-3
1514894989017070,0,0,-1,-1,1,-2,-2,-1
1514894989017070,0,0,0,-1,-1,-2,-1,-3
1514894989033590,-2,-3,0,-3,-1,-1,-1,0
1514894989033590,1,-3,0,0,-1,0,0,-1
1514894989041086,-3,0,-2,-1,-2,-1,0,0
1514894989041086,-1,0,-2,0,-1,-1,-1,-1
1514894989042587,-2,-2,-2,-1,-1,-2,0,-1
1514894989042587,-1,-2,-2,-1,-2,-1,-1,-1
1514894989062601,-1,-1,0,0,-1,0,0,0
1514894989062601,0,0,-1,0,0,-1,0,-1
1514894989072108,-2,-3,-2,0,-2,0,-2,-2
1514894989072108,-3,-2,-2,0,-1,-3,0,-2
1514894989086119,0,-2,-1,-1,-2,1,0,-1
1514894989086119,-1,0,-2,0,-2,-1,-2,-1
1514894989087620,0,-1,-1,-2,-1,0,-1,-2
1514894989087620,-2,-1,0,0,0,0,-2,0
1514894989101128,-1,0,-3,-1,-1,-2,-1,0
1514894989101128,-1,0,0,-1,-1,-2,-1,-1
1514894989103642,-1,-2,1,0,-2,0,-2,1
1514894989103642,-1,-2,-1,0,-1,0,-1,0
1514894989138167,-1,-1,-2,-2,-2,-1,1,-1
1514894989138167,-2,-3,-1,-2,-2,-1,0,-1
1514894989140156,0,-2,-3,0,0,-2,-1,-2
1514894989140156,-1,-2,-2,-2,0,-2,-1,-2
1514894989145665,0,-1,-1,-2,-2,-1,-2,-1
1514894989145665,0,-1,0,-2,-1,-1,-1,-2
1514894989147662,-3,-3,1,-2,-2,-1,1,-2
1514894989147662,1,-2,-1,0,0,1,0,1
1514894989161172,0,0,-1,-1,0,1,-1,-2
1514894989161172,-2,1,-1,-1,-1,-1,0,-1
1514894989163172,0,-3,-2,-1,0,-2,-2,1
1514894989163172,-1,-2,-1,-1,-2,-1,-1,-1
1514894989190693,-3,2,-2,1,0,-1,-2,0
1514894989190693,0,-1,-2,-1,-1,-1,-1,-2
1514894989192694,-2,-1,-1,-1,0,-1,-1,-1
1514894989192694,-1,-2,-1,0,0,-4,-1,-1
1514894989206202,0,-1,0,1,-1,-1,1,1
1514894989206202,-2,0,-1,-1,-2,-1,-1,0
1514894989207704,1,-2,-4,-1,-1,-1,-1,-1
1514894989207704,0,-2,0,-1,0,1,0,-1
1514894989220213,-1,1,-2,-2,-1,-2,0,-1
1514894989220213,0,0,-1,-2,0,-1,0,0
1514894989228219,0,1,0,-2,-2,-1,2,-1
1514894989228219,-3,-2,0,-1,-1,-1,-2,-3
1514894989243729,-2,-2,-1,-2,-1,0,-1,0
1514894989243729,-1,-2,-2,0,1,-2,-2,-2
1514894989245231,-3,-3,-2,1,-2,-2,-2,-2
1514894989245231,-2,0,-1,0,-1,-2,-2,-2
1514894989273750,-2,0,-1,-2,0,-2,-1,1
1514894989273750,0,0,-1,-1,-1,0,-2,-1
1514894989275251,-1,-4,-1,-1,-1,0,0,2
1514894989275251,-1,-2,-1,0,-1,1,2,0
1514894989280255,-1,-2,-1,-1,0,-1,-3,-2
1514894989280255,0,0,0,-2,-3,-1,0,-1
1514894989287260,-1,-1,0,0,0,0,-2,-2
1514894989287260,-2,-2,0,-3,-2,-1,-2,0
1514894989303772,-1,0,-1,-1,-1,-1,0,-1
1514894989303772,-1,0,-1,0,-2,-1,-1,-1
1514894989307275,-2,-2,-1,0,0,0,-1,-1
1514894989307275,0,-1,-2,1,-1,0,-1,-2
1514894989325788,-1,1,-1,-1,-2,-1,-2,-2
1514894989325788,-1,-2,-2,-2,0,-3,-1,-1
1514894989332291,0,-1,-1,-1,-1,-1,0,-2
1514894989332291,-2,-2,-1,0,-1,-1,-1,-2
1514894989340298,-1,-1,0,-1,-3,-2,-1,0
1514894989340298,-2,-1,0,-2,-1,-1,-1,0
1514894989347311,-1,-1,-1,-2,-2,-3,-1,-1
1514894989347311,-1,-3,-2,-1,-1,1,-2,-1
1514894989363313,0,0,-1,-1,-1,-2,0,-2
1514894989363313,-3,0,-3,-1,1,-2,0,-2
1514894989365315,-1,-2,-1,-1,-1,-1,-1,-3
1514894989365315,0,0,-1,-2,0,-1,-1,-1
1514894989386840,-1,-1,-2,-1,-1,0,-1,-1
1514894989386840,-1,-1,0,-1,-1,-2,0,-1
1514894989388340,-1,-2,-1,-2,-1,-1,-2,-2
1514894989388340,-1,-2,0,0,-1,-1,-1,-1
1514894989400349,0,-1,0,-1,-1,0,0,-1
1514894989400349,-1,1,-2,-2,-1,-1,-2,-1
1514894989414359,-1,-1,1,-1,0,0,-1,1
1514894989414359,-2,-2,-2,0,-1,-3,-2,0
1514894989424356,-2,-1,-1,0,-1,-2,-1,-1
1514894989424356,0,0,-1,-2,-2,-1,0,-4
1514894989427882,-1,-1,0,0,0,-1,1,-2
1514894989427882,-1,-2,-1,-3,1,0,-1,0
1514894989445894,-2,0,-2,-3,-2,-2,-2,-2
1514894989445894,-1,-1,-1,-2,-1,-1,-1,-1
1514894989447395,0,0,-2,-2,-1,-1,-3,0
1514894989447395,-2,-1,-1,-1,-1,1,1,-2
1514894989460404,-1,-1,-1,-1,1,0,3,-1
1514894989460404,-1,-2,-2,-1,-2,-4,-1,0
1514894989467913,-1,-1,-2,-1,-2,-3,-1,-2
1514894989467913,-1,0,-2,0,-1,0,-1,0
1514894989483421,-1,-2,-1,-1,-2,-1,-1,-2
1514894989483421,-1,-1,-1,-2,-2,-2,-1,-1
1514894989486923,-1,-3,-2,-1,-2,0,-2,0
1514894989486923,-2,-2,1,-1,-1,-1,-1,-2
1514894989505937,-2,0,-2,-2,0,-1,-2,-1
1514894989505937,0,-2,-6,-2,-2,1,-1,-2
1514894989507437,-2,-2,-2,0,-1,-1,0,0
1514894989507437,-1,-1,0,-1,-1,-1,0,0
1514894989519460,0,2,0,-2,-1,1,-2,0
1514894989519460,-1,-2,-1,-1,-2,-4,0,-1
1514894989528459,0,-2,1,0,-2,0,-1,0
1514894989528459,-1,-2,-1,-2,-1,-1,-2,-1
1514894989551043,0,-1,-1,0,0,-2,1,-1
1514894989551043,-1,-1,-2,-1,-1,0,-1,-1
1514894989552505,0,-3,0,-2,0,-2,0,-1
1514894989552505,-1,-2,-2,-1,0,0,-2,-1
1514894989566028,0,-2,-3,0,-2,-1,-2,0
1514894989566028,-1,0,0,-1,0,0,-2,1
1514894989567533,-2,-2,0,-2,-2,-2,0,-1
1514894989567533,-1,-1,-1,-1,-1,-1,-3,-3
1514894989579533,-3,0,0,-1,-1,-1,0,-2
1514894989579533,-2,-2,0,-1,-2,-2,-1,-1
1514894989588540,-2,-2,-1,0,-1,0,-1,-1
1514894989588540,-1,-1,-1,-2,-2,-1,-1,-1
1514894989603547,-1,-1,-2,-2,-1,-2,-3,0
1514894989603547,-2,0,-1,-2,0,-1,-2,-1
1514894989606044,-3,-3,-1,-1,-2,-1,-1,1
1514894989606044,0,-3,0,0,0,-1,-1,-3
1514894989626056,-1,1,1,-1,-1,-2,0,-3
1514894989626056,-2,-2,0,0,-1,0,-1,-3
1514894989629559,1,1,-3,0,0,-1,0,-3
1514894989629559,-1,0,-2,0,-1,0,-1,1
1514894989639583,-1,0,-1,-3,-2,-2,-2,-1
1514894989639583,0,1,-1,-2,-1,-3,-1,0
1514894989648590,-1,0,0,0,-2,0,-2,-1
1514894989648590,-1,-2,-1,-1,-2,-1,0,0
1514894989663592,0,-1,-1,1,0,0,0,-1
1514894989663592,-1,-1,-1,-1,-1,-1,-1,0
1514894989665094,-3,-4,-3,-2,-1,-1,-1,-1
1514894989665094,-1,1,-2,0,-2,-2,1,-1
1514894989685609,-1,0,-1,0,2,-2,-2,0
1514894989685609,-2,-2,-1,-1,-2,-1,-2,-2
1514894989692113,0,-2,-2,-2,0,-1,0,-2
1514894989692113,-1,-2,-1,-3,0,-1,-1,-1
1514894989699610,0,-1,-1,-1,-2,0,-1,0
1514894989699610,1,-1,-1,-2,1,-1,-1,1
1514894989708616,0,-2,-1,0,-2,-1,-1,-1
1514894989708616,-2,-3,-1,1,-1,0,-2,-1
1514894989724133,-1,-2,-2,-1,0,-2,0,-2
1514894989724133,0,-1,-1,-1,0,-2,-1,0
1514894989727641,-2,-2,0,0,0,-3,-1,-2
1514894989727641,-1,-1,-1,0,1,-1,0,-2
1514894989746143,-2,-2,-1,-2,-2,-2,0,-1
1514894989746143,-1,-3,1,-1,-1,0,-2,-3
1514894989747652,-1,-2,-1,-1,-1,-1,-3,0
1514894989747652,-1,-2,-1,-1,-3,-5,-2,0
1514894989759661,-2,2,-1,-2,-2,-1,-3,0
1514894989759661,-2,-1,-2,-1,-2,0,-1,-1
1514894989769667,-1,-1,0,-1,0,0,1,-2
1514894989769667,-1,-1,-1,0,-3,1,0,-2
1514894989784169,-1,1,-1,0,-2,0,-2,-3
1514894989784169,-2,0,-1,-3,-1,-3,0,-1
1514894989787180,-1,-2,-2,-1,0,-1,-1,-2
1514894989787180,-2,-1,-2,-2,0,0,0,0
1514894989806684,-1,0,-2,-1,-1,0,0,0
1514894989806684,0,-1,-1,0,0,0,0,1
1514894989810188,-1,-2,-1,-1,-2,-3,-3,-1
1514894989810188,0,0,0,-1,0,-3,-1,-3
1514894989828200,0,0,-1,-2,-1,1,0,0
1514894989828200,-2,0,-2,-1,-1,0,-1,-2
1514894989829701,-2,-4,1,-2,-1,0,-1,-1
1514894989829701,-2,0,-2,0,0,-2,-2,0
1514894989843210,-1,-2,0,-1,-1,-2,-1,0
1514894989843210,-2,-1,-1,-1,-2,-4,0,-1
1514894989844716,-1,-1,-1,0,-1,0,-2,0
1514894989844716,0,-2,-3,-2,-1,0,0,-1
1514894989866227,0,0,-1,0,0,0,0,-2
1514894989866227,-1,-1,-2,-2,-2,-3,0,-1
1514894989867736,-2,-2,0,-3,-2,0,-2,-1
1514894989867736,-1,0,2,0,-1,-1,-2,-2
1514894989888245,-1,0,-6,-1,-1,-1,-2,-1
1514894989888245,0,-3,0,-1,-3,0,-2,-1
1514894989890245,-1,-2,-3,-1,0,-3,0,-1
1514894989890245,-1,-2,0,-1,-1,-1,0,0
1514894989904253,-1,-1,0,-2,-2,-3,-1,0
1514894989904253,-1,-2,-1,0,-1,0,-2,-2
1514894989909257,-2,-2,-1,-1,0,-1,-1,-2
1514894989909257,-2,0,-3,-2,-2,0,-3,-1
1514894989925768,-2,0,-1,-1,0,-1,0,-1
1514894989925768,-1,0,-1,-3,0,1,-2,-1
1514894989927770,-1,-2,-2,0,0,1,0,0
1514894989927770,0,-2,-2,-1,-1,-1,1,0
1514894989939780,-1,0,-1,-3,-1,-1,-1,1
1514894989939780,0,-1,0,-1,-2,0,-1,1
1514894989948795,-1,-2,-2,0,-1,0,-2,0
1514894989948795,-1,-1,-1,-3,0,-1,-1,0
1514894989962294,-1,-1,-1,-1,0,-1,-1,-1
1514894989962294,-1,0,-2,-1,1,-2,-1,-1
1514894989971833,0,0,-1,1,-3,-2,-1,-3
1514894989971833,-1,-1,0,0,-1,-1,-2,0
1514894989986855,1,0,0,-1,-2,-1,-2,-2
1514894989986855,-1,-1,-2,-1,-1,-1,0,0
1514894989989355,-2,-2,-1,-2,-2,0,0,-3
1514894989989355,0,-2,0,-2,-2,-1,0,-1
1514894989999362,-3,2,-1,-1,-2,-1,-1,-2
1514894989999362,0,-1,-2,0,-1,-2,-2,-1
1514894990008360,0,-1,-1,-1,-1,-1,1,-1
1514894990008360,-1,-1,-1,-1,0,0,-1,-1
1514894990022869,0,0,-2,1,1,-2,0,0
1514894990022869,-1,0,-1,-1,-1,0,-1,-1
1514894990030374,-1,-3,0,-2,-3,-1,-1,-2
1514894990030374,-2,0,1,0,-1,-2,-1,-2
1514894990045887,-2,-2,0,-1,0,0,-1,-2
1514894990045887,1,-1,1,-3,-1,0,-1,-3
1514894990047396,0,-2,-2,-1,-1,-1,-3,0
1514894990047396,-2,0,-3,-2,-2,-2,-1,-1
1514894990075906,-1,-1,-1,-2,-1,-2,-2,-1
1514894990075906,-3,-1,-1,-1,1,-1,-1,0
1514894990077407,-2,1,0,0,1,-1,0,-2
1514894990077407,-1,0,-2,-1,0,0,1,-2
1514894990083426,-1,0,-1,-2,0,0,0,-1
1514894990083426,-1,-2,-2,-2,0,-2,2,-2
1514894990084912,-1,-3,-2,0,-1,-1,-1,-1
1514894990084912,0,-2,-2,0,-3,-1,-1,0
1514894990106928,0,-1,-2,-2,-3,-2,-3,0
1514894990106928,-1,-1,0,-1,-1,0,-1,-2
1514894990110431,-1,-3,-1,-3,0,-2,0,-1
1514894990110431,1,-1,0,-1,-2,-1,-2,-1
1514894990128443,-1,0,0,0,-1,-1,-1,-1
1514894990128443,0,-2,-1,0,-1,-2,-2,-1
1514894990129944,-1,0,-1,0,1,0,-3,-2
1514894990129944,-1,-2,-1,-1,-2,-2,0,-1
1514894990143454,0,-2,-2,-2,-1,-2,-1,-1
1514894990143454,-1,-3,-1,-2,-1,-2,0,0
1514894990144955,0,-3,-2,-1,-1,-2,-1,-1
1514894990144955,-1,0,-2,-1,0,1,-1,-1
1514894990166470,0,0,0,0,-1,-1,-2,-2
1514894990166470,-2,-1,-3,0,-1,-1,-2,-1
1514894990167971,-1,-1,-2,-1,0,0,-2,-2
1514894990167971,-1,0,-1,-1,-1,-1,-2,-1
1514894990188500,-1,1,-1,0,-2,-2,1,0
1514894990188500,0,-2,-1,-1,1,-3,-2,0
1514894990190002,-2,-3,-1,-2,-2,-1,-2,0
1514894990190002,-1,-1,-1,-2,-1,-1,0,-1
1514894990202520,-1,0,-1,0,0,-1,2,-3
1514894990202520,-2,-2,-2,-1,-2,-2,2,-1
1514894990209525,-1,-4,0,0,-1,-1,-2,-3
1514894990209525,-1,0,-2,1,-1,-2,-2,-2
1514894990226027,-2,-1,-2,-2,-1,-2,-3,-1
1514894990226027,0,-2,-3,-2,-1,-2,-2,-1
1514894990233532,-1,-3,-1,-1,-1,1,-1,-3
1514894990233532,-2,0,-1,-2,1,-2,0,-1
1514894990248557,0,1,-1,-3,-1,-1,-2,1
1514894990248557,-2,-2,-1,1,-1,-2,0,-1
1514894990250056,-1,-3,-1,1,0,-2,1,1
1514894990250056,-2,0,-1,-1,-1,-2,-2,-1
1514894990262656,-1,-1,0,-1,-1,-1,1,0
1514894990262656,-2,-2,-2,-3,-1,0,-3,-2
1514894990269667,1,-2,-1,-1,-1,-2,-1,-1
1514894990269667,-1,0,-1,-1,-2,0,0,-2
1514894990286165,-1,1,-1,-2,-1,-2,-2,0
1514894990286165,0,-3,-1,0,-2,1,0,-2
1514894990292169,-2,-1,-1,-1,-1,-2,0,-1
1514894990292169,0,-1,-2,0,-2,0,-1,-1
1514894990308680,-3,-1,0,-1,-1,-1,-2,-2
1514894990308680,1,-3,0,-1,0,0,-3,-1
1514894990310191,1,-1,-1,-1,-1,-1,-2,0
1514894990310191,-1,-1,0,-3,1,-1,-2,-1
1514894990322689,-1,-4,-1,0,0,0,0,-2
1514894990322689,-2,0,-1,-2,-2,-2,0,0
1514894990336699,-2,-1,-1,-3,0,-2,1,-1
1514894990336699,-1,-1,-2,-1,-2,-1,-1,0
1514894990345706,1,0,-1,1,0,-1,0,-1
1514894990345706,-1,-3,-3,0,-1,-2,0,-3
1514894990347719,0,-2,-1,-1,-2,-1,-1,-2
1514894990347719,-1,0,-1,1,1,-1,-1,-1
1514894990368234,-2,0,-2,-2,0,-1,-1,-2
1514894990368234,-1,-2,0,-1,1,1,-1,0
1514894990370223,-1,-2,-2,-2,-1,0,-1,-1
1514894990370223,0,0,0,-1,-1,1,-1,0
1514894990390738,-2,3,0,-1,0,-3,-2,-1
1514894990390738,0,-2,-1,-2,-1,-1,-1,-1
1514894990392748,-2,-3,-1,-1,-2,0,-1,-1
1514894990392748,-1,-1,-1,-2,-1,-1,-1,-3
1514894990405748,0,-3,-2,-2,-2,0,0,-2
1514894990405748,-2,-1,-2,-2,0,-2,1,-1
1514894990407252,-2,-2,-1,0,0,0,-3,-1
1514894990407252,-1,-1,-1,-1,0,-2,-2,-2
1514894990435779,-1,1,-2,-1,-1,0,-1,1
1514894990435779,-1,-2,-1,0,-2,0,-1,-2
1514894990437282,-2,-2,4,-2,-1,-2,0,0
1514894990437282,-1,1,-7,0,-2,0,0,-1
1514894990442785,-2,0,0,-1,-3,-1,0,-1
1514894990442785,-2,-1,-1,0,1,-3,-2,-1
1514894990449789,-1,-1,-2,0,0,-1,1,-1
1514894990449789,-1,-1,0,0,-2,0,-1,-1
1514894990465800,-1,0,-2,0,0,-1,-1,-1
1514894990465800,-1,-3,-2,-1,-3,2,-1,0
1514894990467802,0,-1,1,0,-2,-1,-1,0
1514894990467802,-2,0,2,-1,-2,-2,0,0
1514894990488307,-1,0,-3,-2,-1,-1,-3,-1
1514894990488307,-1,-1,-1,-3,-2,0,0,-2
1514894990490310,-2,-2,-3,-1,-1,-2,-1,-2
1514894990490310,0,-1,-1,0,-2,-1,-1,0
1514894990502829,0,0,-3,-1,-1,0,-2,-1
1514894990502829,-1,-2,-1,-2,-1,-2,-2,0
1514894990517345,0,-3,-2,-3,-1,0,-1,-2
1514894990517345,1,-2,-1,-1,-1,-2,0,-2
1514894990526846,0,0,-1,0,-1,-3,-1,-1
1514894990526846,-1,-1,-1,-2,-1,0,-2,-1
1514894990530346,-1,-1,-1,0,-1,0,-2,1
1514894990530346,0,0,-1,-2,0,-2,-2,0
1514894990548359,0,0,-1,-3,-1,-1,-2,-2
1514894990548359,-1,-2,-2,1,-1,-1,1,-2
1514894990549859,-1,-3,-2,0,-2,-1,-1,-3
1514894990549859,0,0,-1,-1,-2,-1,0,-2
1514894990570374,1,-1,1,1,0,-1,1,0
1514894990570374,-1,-1,-2,-1,-1,0,-1,-2
1514894990576869,-2,-2,-2,-1,-2,-1,-1,-1
1514894990576869,-3,0,-1,-2,-1,0,-3,0
1514894990586382,-2,0,-1,-1,-1,1,-1,0
1514894990586382,0,-1,0,-1,-1,-1,-3,1
1514894990588387,-1,-1,-1,-1,-1,-2,-1,-2
1514894990588387,-2,-1,-1,0,1,-2,-1,-2
1514894990608392,-2,-1,-1,-1,-3,0,0,0
1514894990608392,-1,-3,0,-2,-2,-3,-1,-1
1514894990609902,0,-3,-1,-2,0,0,-3,0
1514894990609902,0,0,-1,0,0,-3,-1,0
1514894990622401,-1,1,-1,-2,-1,-1,-2,-1
1514894990622401,-1,0,-1,1,-1,0,0,0
1514894990636912,-1,-2,-1,-1,-1,0,-2,0
1514894990636912,-2,0,-2,-1,-3,-1,-1,0
1514894990645928,0,1,-2,-2,-1,-1,-1,-1
1514894990645928,-1,-2,-2,-3,-1,-1,-1,-1
1514894990647429,-1,-2,0,0,-1,-1,-1,-1
1514894990647429,-1,1,-3,-1,-1,1,-2,0
1514894990668446,-1,-2,0,-1,-1,-1,-2,-1
1514894990668446,-2,-2,-2,0,-2,0,0,0
1514894990669945,-2,-2,-1,-1,-2,-1,-1,-1
1514894990669945,-1,-1,-1,-1,-1,-1,0,-2
1514894990681943,-1,0,-2,-1,-3,-3,0,-1
1514894990681943,-1,-2,0,0,0,-2,0,-2
1514894990690949,0,-3,-2,-1,-1,-3,-2,0
1514894990690949,-1,-2,0,-1,-2,-1,-1,-1
1514894990706962,-1,1,-1,-1,1,-1,-2,-1
1514894990706962,-1,-2,0,-1,-2,0,0,1
1514894990710463,-2,-2,-2,-2,-1,1,2,-1
1514894990710463,-1,0,0,-1,-1,-1,-1,-2
1514894990728508,0,1,-1,-1,1,-3,-1,-2
1514894990728508,-2,-2,-1,-2,-2,-2,-2,-1
1514894990730009,-1,-3,-2,-1,-1,-2,-2,-2
1514894990730009,-1,0,0,-2,0,-3,-2,-1
1514894990742032,-1,-1,-2,0,0,0,1,0
1514894990742032,-1,0,-2,-1,-2,-1,-2,-1
1514894990751036,0,-4,-1,-2,-1,0,0,-1
1514894990751036,0,0,0,-1,-1,-1,-1,-1
1514894990773541,-2,0,-1,-1,-2,-1,-1,0
1514894990773541,-1,-2,0,-3,0,-1,-2,-2
1514894990775042,-2,-3,-1,0,-3,-3,-1,0
1514894990775042,0,-1,-1,-2,-1,0,-2,1
1514894990788552,-2,0,0,-2,-2,0,0,-2
1514894990788552,0,-2,-1,-2,-2,-2,-1,0
1514894990790053,-1,-2,-3,-2,-1,-1,1,-2
1514894990790053,-1,0,2,0,-2,0,0,-1
1514894990811066,-1,0,-6,-2,-2,-3,-1,-1
1514894990811066,0,-2,-2,-2,-1,-1,-1,1
1514894990812567,-1,-2,-2,-2,-3,-1,-2,0
1514894990812567,-2,1,-2,-1,-2,-2,0,-1
1514894990826078,-2,0,0,-1,-1,-1,-2,-1
1514894990826078,-1,-2,-2,-1,-1,-2,-1,-3
1514894990828589,-2,-2,-1,0,-1,0,-2,0
1514894990828589,0,1,-2,-1,1,-1,-2,0
1514894990848594,0,0,-1,-2,-2,-2,0,0
1514894990848594,-2,0,-2,-1,0,-1,0,-2
1514894990850095,0,-3,2,-2,0,-1,0,-2
1514894990850095,-2,0,-1,-1,-1,-1,0,-1
1514894990871109,0,-1,-1,-2,-2,-1,-1,-1
1514894990871109,0,-1,0,0,-1,-3,-1,-1
1514894990874613,-1,-3,-2,-2,0,0,-2,0
1514894990874613,0,-1,-2,-1,0,0,-1,-3
1514894990885619,0,0,-1,0,-2,0,-1,-1
1514894990885619,1,-1,0,-2,-1,1,-2,-1
1514894990887620,-2,0,-1,-2,0,-1,0,-1
1514894990887620,1,-3,-3,-2,-2,-1,0,0
1514894990909136,0,0,0,-2,-1,-1,-1,0
1514894990909136,-1,-2,-2,-1,0,-2,-1,-1
1514894990912651,-2,-2,-1,-2,1,-3,-2,-1
1514894990912651,-1,0,-2,-2,-1,-1,-1,-2
1514894990930192,0,0,-1,-2,-1,-1,-2,-2
1514894990930192,-2,-2,-1,-3,-1,-1,-1,-1
1514894990930695,-1,-3,1,-1,0,-1,0,0
1514894990930695,-1,0,-2,0,-1,-2,-1,-1
1514894990945203,0,-2,-1,-2,-3,-2,0,-1
1514894990945203,-1,-1,-1,-1,-1,0,-2,-3
1514894990945704,-1,-3,0,0,-1,0,0,-1
1514894990945704,-1,1,0,0,-2,-1,-1,-1
1514894990967718,1,-1,-1,0,0,0,0,-1
1514894990967718,-1,-5,-1,-1,-2,0,-1,-1
1514894990968719,-1,-2,-1,-2,0,-1,-2,-3
1514894990968719,-1,-1,-1,-1,0,0,-1,-1
1514894990990246,-2,0,1,0,-2,-2,-2,-1
1514894990990246,-1,-1,-3,-2,-2,-1,-1,0
1514894990991237,-2,-1,0,0,-3,1,-1,-1
1514894990991237,-2,-1,-2,-2,-1,-2,-2,0
1514894991005254,-1,-1,-3,0,-1,-2,-2,-1
1514894991005254,-1,-2,2,-1,0,-1,-2,0
1514894991005749,1,-3,-2,0,-1,-2,-1,-1
1514894991005749,-2,0,-1,-2,0,0,0,0
1514894991028271,0,1,-1,-1,2,-1,0,0
1514894991028271,0,-2,-1,-1,-2,-2,-1,-1
1514894991029263,-2,-2,1,-2,-1,-1,0,1
1514894991029263,-2,0,-2,-1,-2,-1,-1,-1
1514894991050276,-2,0,0,-3,0,0,-1,0
1514894991050276,-2,-3,1,-1,0,0,-1,0
1514894991050777,-3,-2,-1,-1,-2,0,0,-1
1514894991050777,-1,1,0,0,1,-2,-2,-2
1514894991065287,-1,1,-1,0,-1,-1,-1,-1
1514894991065287,0,-1,0,0,-1,-1,-1,0
1514894991065787,-2,-3,0,0,-2,-2,-2,-1
1514894991065787,-2,-2,0,-1,-1,-2,-1,-1
1514894991087803,-1,1,-1,0,-2,-2,-1,-1
1514894991087803,-2,-1,-1,0,-2,-1,1,0
1514894991088303,-1,-1,0,1,-2,0,0,-2
1514894991088303,-1,0,-3,-1,-1,-1,-1,-2
1514894991110319,-2,0,-3,-2,-1,-3,0,-2
1514894991110319,-2,-2,-1,0,0,0,-1,-2
1514894991110820,-1,-3,-2,-1,-1,-2,0,-2
1514894991110820,0,-1,0,0,-2,-1,-1,0
1514894991125840,-1,-1,-2,-2,-1,-2,-2,-1
1514894991125840,-1,0,-2,0,-1,0,-1,0
1514894991132835,1,-1,-2,-1,0,-1,-1,-2
1514894991132835,1,1,-2,-2,-1,1,0,-1
1514894991155852,0,-2,-1,-1,-2,0,-1,-1
1514894991155852,-2,-4,-1,1,0,-1,-2,-2
1514894991156852,-3,-1,0,-1,-2,-2,-1,-1
1514894991156852,-3,0,-3,-3,-1,-1,2,-1
1514894991170361,-1,0,1,-1,-3,1,-1,-1
1514894991170361,1,-1,-2,0,-1,-2,0,-2
1514894991171362,-3,-3,-2,-1,-1,-2,-2,0
1514894991171362,1,-1,-1,-1,-2,-2,-3,0
1514894991185884,-1,-1,-1,-2,0,-1,-1,-2
1514894991185884,-2,-2,-1,-1,-2,-3,0,-1
1514894991186883,2,-1,1,-1,1,1,-1,-1
1514894991186883,-2,1,0,-1,-3,0,0,2
1514894991224904,-3,1,-2,-2,-1,-3,2,0
1514894991224904,0,0,-2,-1,-2,-1,-2,1
1514894991226401,2,-2,-3,0,-1,-1,-1,1
1514894991226401,0,-1,-1,-2,-2,-1,-2,-1
1514894991230413,-1,1,0,-2,-1,-3,-4,-2
1514894991230413,-2,-3,-2,-2,0,-1,1,-2
1514894991230905,-2,-1,1,0,0,1,-1,-4
1514894991230905,1,-1,-1,1,0,-1,-1,0
1514894991253482,-1,0,0,-1,0,-2,-1,-2
1514894991253482,-1,-1,1,-1,0,0,-2,-3
1514894991253985,0,-2,-2,-1,-1,0,-2,-1
1514894991253985,-1,0,-1,-1,0,-1,-3,-1
1514894991267492,-2,0,-1,0,-1,-1,-1,0
1514894991267492,-1,-3,1,-1,-1,-1,-1,-1
1514894991268493,-2,-2,-1,1,-4,-2,-1,-1
1514894991268493,-2,0,-1,-1,-1,-2,0,-2
1514894991290498,0,1,0,-1,-2,0,-2,1
1514894991290498,0,-1,-2,-1,-3,0,0,0
1514894991291001,-2,-1,-1,-2,0,-1,0,0
1514894991291001,-3,-2,-1,-1,-1,-2,0,-2
1514894991305019,0,-1,-2,0,1,0,0,-2
1514894991305019,-1,-2,-3,-1,-2,-2,-2,-1
1514894991306020,-1,-1,0,-2,-2,-1,-1,0
1514894991306020,-1,0,1,-1,-2,0,-1,-1
1514894991327534,0,2,0,-2,-2,0,0,-1
1514894991327534,0,-1,0,-1,-1,0,0,0
1514894991328526,-1,-3,-1,0,1,-2,-3,-1
1514894991328526,-2,-2,-2,-1,-2,-2,-1,0
1514894991350041,-2,0,-2,-1,-1,-1,-1,-1
1514894991350041,0,-1,-1,-2,1,0,0,0
1514894991351041,-1,0,-1,-2,-3,-2,-2,-2
1514894991351041,-1,2,-1,-2,-1,0,-1,-1
1514894991365051,1,-1,0,-2,-1,-2,-1,-2
1514894991365051,-2,-1,0,-1,0,-2,-1,-1
1514894991366051,-1,-3,-2,-2,-1,2,-1,-1
1514894991366051,0,-2,-1,-2,-1,0,-2,0
1514894991387577,-1,0,-1,-1,0,0,-1,1
1514894991387577,-1,-1,-1,-1,-2,-2,-1,-1
1514894991388578,-1,-3,0,1,0,-2,-3,0
1514894991388578,0,0,-1,0,-1,-2,-2,-1
1514894991410093,-1,-1,-3,-2,-1,1,-1,-1
1514894991410093,0,-1,-2,0,-1,-2,-1,-2
1514894991411084,-3,0,-2,-1,-1,-1,0,-1
1514894991411084,-1,0,0,-1,-1,-1,1,-1
1514894991426112,-2,0,1,1,-2,0,1,0
1514894991426112,-2,-2,-2,1,0,-1,-2,-1
1514894991427596,0,-1,-2,0,0,-1,0,0
1514894991427596,0,0,-1,-1,0,-2,-1,-1
1514894991447610,1,0,-1,0,-2,-1,0,-2
1514894991447610,0,-1,0,-1,-1,1,0,-2
1514894991448610,2,-2,1,0,0,-2,0,-1
1514894991448610,-1,-1,-2,-4,-1,-1,-2,-3
1514894991478631,0,-1,-3,-2,-1,-3,-1,-2
1514894991478631,-1,-1,0,-3,-1,-1,-2,0
1514894991479132,-1,-2,0,-1,1,-3,-2,0
1514894991479132,-1,0,-1,-1,-1,-2,-1,2
1514894991493643,-1,1,-1,-3,-2,0,-1,-1
1514894991493643,-1,-2,-1,-1,-2,-2,0,-3
1514894991494143,-1,-2,-1,-2,-3,-1,0,-2
1514894991494143,-1,-2,0,-1,0,-1,0,0
1514894991508164,0,0,-1,-1,-2,-2,-2,-2
1514894991508164,-2,-4,-1,-1,0,1,-2,0
1514894991510154,-3,-2,-1,-1,-1,-1,-1,0
1514894991510154,-1,0,-1,-1,0,0,-2,-2
1514894991538196,-3,0,-1,-1,0,-3,0,-1
1514894991538196,-2,-2,-2,-2,-1,-1,0,-1
1514894991539184,0,1,-2,-2,-1,0,1,0
1514894991539184,-1,0,-1,-2,-1,-1,0,-2
1514894991544678,-1,-1,0,-1,0,-3,-1,-1
1514894991544678,0,-2,-2,-2,0,0,0,-2
1514894991552696,-1,-1,1,-2,0,0,-2,-1
1514894991552696,-2,0,-1,0,-2,-1,-1,-1
1514894991567698,0,-1,-2,0,-1,0,-1,0
1514894991567698,-1,-3,1,-1,-2,-2,-1,0
1514894991568697,0,-3,0,-2,-1,-2,-1,-2
1514894991568697,0,1,-1,-1,-3,0,-1,-2
1514894991590210,-1,-2,-1,1,-2,-1,-3,0
1514894991590210,-1,-2,0,-1,-1,-2,0,-2
1514894991591712,-1,1,-2,-1,-1,-1,0,-1
1514894991591712,0,-2,-1,-1,-1,-2,-2,-2
1514894991604722,-1,-1,-1,-1,0,-2,-2,-1
1514894991604722,-1,0,-1,-2,-1,-1,-2,0
1514894991613231,0,-2,-1,0,-1,0,-1,0
1514894991613231,0,-1,-1,0,-1,-1,0,0
1514894991635743,0,-1,-2,-1,-1,0,-1,-1
1514894991635743,-1,-3,-2,-1,0,-2,-1,-1
1514894991636744,-2,-2,-1,-2,-1,-1,-2,-2
1514894991636744,-1,-1,-1,-2,-1,-3,0,-2
1514894991650753,-1,1,-1,-2,-1,-2,-1,-1
1514894991650753,-1,-1,-2,-1,-1,-1,-2,-2
1514894991652757,-2,-1,0,0,-1,-2,-1,1
1514894991652757,-2,1,-1,0,-2,0,0,-3
1514894991664788,-2,0,0,-2,0,0,-1,-2
1514894991664788,-1,-2,-2,-2,-1,1,-2,1
1514894991672787,-1,-1,0,-1,0,-1,-1,0
1514894991672787,-1,-2,-1,-1,-1,0,-1,1
1514894991689280,0,-2,-1,-1,-1,-1,0,-1
1514894991689280,-2,-1,0,1,0,-2,-1,-2
1514894991690783,-1,-2,-2,-1,-1,-2,-1,-3
1514894991690783,-1,1,-1,-2,-1,-1,-3,-1
1514894991710798,-3,-1,-1,-1,-3,0,-2,-1
1514894991710798,0,-2,1,0,-1,-1,-1,-1
1514894991711297,-3,-2,-1,0,-1,-1,-1,0
1514894991711297,-2,1,-2,-1,0,-2,-1,-2
1514894991733315,-1,-1,-1,-1,-1,0,-2,0
1514894991733315,1,-1,-1,0,-1,-1,-2,-1
1514894991734313,-2,-1,-1,-1,0,0,-1,-1
1514894991734313,-1,0,-2,-1,-1,-1,-3,-1
1514894991748323,0,-1,0,-2,-1,0,-1,0
1514894991748323,-1,-2,0,-2,-1,-1,1,-1
1514894991748824,-2,-2,0,-1,0,-2,-2,-1
1514894991748824,-2,0,-1,-2,-2,-1,1,1
1514894991770838,0,1,0,0,1,0,-1,-1
1514894991770838,-1,-2,-2,-1,-1,-1,-1,-1
1514894991771338,0,-1,-1,-1,-3,-1,-1,-2
1514894991771338,-2,-1,-1,0,-3,-1,-2,-4
1514894991784849,-2,-1,-2,-1,-2,-2,-1,-1
1514894991784849,-1,-2,-3,-1,-1,-3,1,-1
1514894991793354,-1,1,-1,-1,-1,-1,0,0
1514894991793354,0,-1,-1,0,-2,-1,-2,0
1514894991807868,0,-2,0,-2,-1,-2,-1,0
1514894991807868,-1,0,0,0,0,0,-3,0
1514894991808365,-1,-1,-1,-1,-1,0,-2,-1
1514894991808365,-1,0,-1,0,1,-2,-1,0
1514894991830381,-1,-2,1,-2,0,-1,0,0
1514894991830381,-1,-1,-1,-2,-1,-1,-1,-1
1514894991830884,-1,-1,-1,-1,-1,0,-1,0
1514894991830884,-1,-1,-3,-2,0,-1,-1,0
1514894991844891,-1,-2,-3,0,-1,-2,-2,-1
1514894991844891,-2,-1,-2,-3,-3,-2,0,-1
1514894991853898,0,-2,-1,-1,-3,-1,-1,-1
1514894991853898,0,0,0,-1,-1,0,0,0
1514894991867909,0,-1,-3,-2,-2,-2,-1,-1
1514894991867909,0,-2,-1,-2,-1,-1,-1,-1
1514894991868408,-2,0,-1,-2,-1,-3,-2,0
1514894991868408,0,0,-1,-2,0,-2,-3,0
1514894991891428,-1,0,0,-2,1,0,0,-1
1514894991891428,-1,1,-1,0,0,0,-2,-1
1514894991893428,-1,-2,-1,-2,0,0,-1,0
1514894991893428,-1,1,0,-1,-1,-1,-1,-1
1514894991914440,-1,-1,-1,-2,-2,-1,1,-2
1514894991914440,1,-4,-2,0,-2,-2,-1,-2
1514894991914940,1,-2,0,-2,-1,-1,-2,-1
1514894991914940,0,-2,1,1,-1,-2,1,0
1514894991927952,-1,-2,-1,-2,0,-2,-1,-1
1514894991927952,-2,-2,-1,-1,-1,-2,-1,0
1514894991928451,-1,0,-2,0,-1,0,0,-1
1514894991928451,-1,-1,-2,0,-1,0,-1,0
1514894991949965,0,0,-2,-1,-1,-1,-1,-2
1514894991949965,-2,-2,-1,0,0,0,-1,-1
1514894991950965,-1,0,-1,0,0,0,-1,-1
1514894991950965,-3,1,-2,-1,-2,-1,1,0
1514894991973481,-3,-2,-1,-1,0,0,-1,-1
1514894991973481,-2,-1,-1,-1,-2,-2,-2,-1
1514894991974483,-1,-1,-1,-1,-3,-2,-1,-1
1514894991974483,-2,-1,-2,-1,0,0,-2,-3
1514894991988992,-1,-1,-1,-1,-1,-2,-2,0
1514894991988992,0,-1,-1,-2,0,-1,2,-1
1514894991990994,-2,-1,-2,-1,0,-1,0,0
1514894991990994,1,-2,-1,0,-1,0,-1,-1
1514894992018515,-1,-2,-1,-2,-2,0,-2,0
1514894992018515,-1,-2,-2,-3,1,0,0,0
1514894992019014,-1,-2,-2,0,-1,-1,-2,-1
1514894992019014,0,-1,0,-1,-2,-1,0,-1
1514894992033523,-2,0,-2,0,-1,-1,-1,-1
1514894992033523,-2,-2,0,0,0,-1,-1,-1
1514894992034024,-1,-1,-3,0,0,-1,-1,-2
1514894992034024,-2,0,0,-1,0,-3,-1,-1
1514894992048035,0,-2,0,0,-1,-2,-1,-2
1514894992048035,-1,-3,-1,-2,-1,-1,0,-2
1514894992049535,-1,0,-1,-2,-2,0,0,-1
1514894992049535,-2,1,-2,-1,-2,-1,-1,-1
1514894992070049,-1,-1,-2,-1,-1,-1,0,0
1514894992070049,-1,-3,0,-1,-1,-1,-2,-1
1514894992071050,-1,-2,-1,-1,-1,-1,0,0
1514894992071050,0,-2,-1,-1,-2,0,-1,-1
1514894992093074,-1,0,-2,-1,-1,-2,-1,0
1514894992093074,-1,-2,-1,0,-1,-1,-2,-2
1514894992094086,0,-1,-2,-1,-2,-2,-1,-1
1514894992094086,-1,1,-2,-2,-2,-2,-1,-1
1514894992108079,1,-1,-1,-2,0,-1,1,-2
1514894992108079,-3,-2,-1,-1,-1,-1,-1,-3
1514894992115082,0,2,-1,-1,0,-1,0,0
1514894992115082,1,-1,-1,-2,-1,-2,-1,-2
1514894992130092,-2,0,-3,-1,-2,-1,-2,0
1514894992130092,-1,-2,-2,-1,-3,-1,-3,-1
1514894992131093,-2,-1,-2,-2,0,-1,0,-3
1514894992131093,-2,-1,-1,-2,-1,1,0,-2
1514894992153611,-3,-3,-1,-1,-1,-1,-1,-2
1514894992153611,-1,-2,-2,0,-1,-1,0,-1
1514894992154609,-1,-1,0,0,-1,0,-1,-1
1514894992154609,-1,0,0,-2,-1,-2,-1,1
1514894992167618,0,-1,-1,-1,-2,-2,-1,-1
1514894992167618,-1,-2,-1,0,-1,0,-2,0
1514894992168619,-1,-2,-1,0,-1,-2,0,-1
1514894992168619,-1,0,-4,-1,-1,0,-1,-1
1514894992190149,-1,-1,0,-1,0,0,-1,-2
1514894992190149,-2,-1,-2,1,-2,-1,-1,0
1514894992191136,-1,0,-2,0,0,-1,-1,-1
1514894992191136,0,-1,0,0,0,-2,-2,0
1514894992212149,0,-1,-2,1,0,-2,-1,1
1514894992212149,-2,-2,-1,-1,1,-1,-2,0
1514894992220156,0,0,-1,-2,-2,-1,-1,-1
1514894992220156,1,0,-2,0,0,-1,-2,-1
1514894992228162,-2,-2,0,-2,-2,-3,-1,-1
1514894992228162,0,-3,0,-2,-2,-2,1,-1
1514894992228710,0,-2,-2,-3,-2,-1,-1,-1
1514894992228710,-1,-1,-1,-1,-2,-1,0,-1
1514894992250225,0,-1,0,0,-1,-1,-1,-1
1514894992250225,-1,1,-1,-1,-2,0,-1,-1
1514894992251726,-2,-2,0,-1,-1,-1,-1,-2
1514894992251726,0,-1,-1,1,-1,0,0,-1
1514894992273231,-1,-2,0,0,-1,0,-1,0
1514894992273231,-1,-2,-3,0,-1,-1,1,-2
1514894992274237,-1,0,-1,0,0,0,-1,-1
1514894992274237,-1,-1,-3,-2,0,0,0,-2
1514894992287752,-2,-2,-2,-1,-2,-1,-2,-1
1514894992287752,-1,-1,-1,-1,-1,-1,-2,0
1514894992288243,-3,0,0,-1,-2,-1,-1,1
1514894992288243,-1,0,-1,-2,-1,-1,-1,-1
1514894992310268,-1,-1,-1,-3,-2,-1,0,-1
1514894992310268,1,-1,-4,-2,0,0,-3,0
1514894992310758,0,0,-2,-1,-1,-1,0,1
1514894992310758,0,-1,-1,0,0,-3,0,-1
1514894992333774,0,0,-1,-2,-1,-1,-1,-2
1514894992333774,-1,-3,1,-1,0,-1,-2,0
1514894992335776,-1,-1,1,0,0,-1,-2,-2
1514894992335776,-1,0,1,-1,-1,0,-1,0
1514894992347784,-1,-3,-1,0,-2,1,0,-2
1514894992347784,-2,-2,-2,-1,0,-1,0,-2
1514894992348285,-1,0,0,-1,2,-2,-1,-1
1514894992348285,-1,2,-1,2,-1,-1,-1,0
1514894992370312,-2,-2,-2,0,-1,0,-1,0
1514894992370312,-1,-3,-1,0,-2,-2,-3,-1
1514894992371818,-2,-1,0,-1,-2,-1,-1,-1
1514894992371818,-1,1,-2,-1,-2,-3,-2,1
1514894992393317,0,-3,-1,0,0,-1,-1,2
1514894992393317,-1,-2,-1,-2,0,-1,0,-1
1514894992394318,0,0,-1,-2,0,-1,0,-1
1514894992394318,-1,-1,1,-1,-1,-2,-1,-1
1514894992407828,-1,-1,-1,-4,0,-3,-1,0
1514894992407828,-1,-2,-1,0,-1,-2,0,-3
1514894992408328,-2,0,-2,0,-1,-1,-2,0
1514894992408328,-1,0,-1,-2,0,0,-1,0
1514894992429843,-3,0,-1,-1,-1,-1,1,-2
1514894992429843,0,-3,1,-2,0,-1,0,-1
1514894992430843,-2,-1,-1,-3,-2,-2,1,-1
1514894992430843,-2,-1,0,-3,-2,-1,-2,0
1514894992453373,0,-2,-3,-2,-2,-1,-2,-3
1514894992453373,-2,-1,-1,-1,-1,0,2,-2
1514894992454374,1,1,1,-2,-1,0,-1,0
1514894992454374,-2,1,-2,-3,-1,0,-1,-2
1514894992467872,0,-3,1,0,0,0,-1,-1
1514894992467872,-2,-3,-2,0,-2,-1,0,0
1514894992468870,-1,0,-3,-2,0,-1,-2,-1
1514894992468870,0,1,-1,0,-3,0,-1,-2
1514894992489885,-1,-2,-2,-2,-1,-2,-1,-2
1514894992489885,1,-3,-1,1,0,-1,-1,1
1514894992490886,-1,-1,-2,1,-4,-2,-1,0
1514894992490886,0,1,-2,0,-1,-2,-1,1
1514894992512910,-1,-3,-2,-1,-1,-2,0,-2
1514894992512910,-2,-1,0,-2,-1,-1,-2,-1
1514894992513911,0,0,0,-1,1,0,0,-2
1514894992513911,-1,0,-1,0,-1,-1,1,-2
1514894992527412,0,0,-1,1,-2,1,0,-1
1514894992527412,-1,-1,-2,-1,-1,-1,0,-1
1514894992535418,-2,0,0,0,-2,-3,0,1
1514894992535418,-1,-3,-1,-2,-1,-2,0,0
1514894992549937,-1,-4,0,-2,-2,-1,-1,0
1514894992549937,-2,-3,-2,-1,-1,0,-2,-1
1514894992550938,-2,-2,-1,-1,-2,0,-1,-2
1514894992550938,2,1,-1,0,1,-1,-1,-2
1514894992573444,-1,-2,-1,-1,-1,-1,0,0
1514894992573444,-2,-1,-1,-1,-2,-1,-2,-3
1514894992575448,-1,-1,-3,0,-1,-1,-3,-2
1514894992575448,-1,0,-1,-1,-3,-2,0,-2
1514894992586953,-1,-4,-1,-1,0,0,0,-2
1514894992586953,-1,0,-1,-2,-2,0,0,-1
1514894992594959,-1,-1,-1,-2,1,0,0,-1
1514894992594959,-1,-1,0,-2,-2,0,0,-2
1514894992609970,0,-1,-1,-1,0,-1,-3,0
1514894992609970,-1,-3,-1,0,-2,-1,-2,0
1514894992610970,-1,0,0,0,-2,-1,-1,-3
1514894992610970,0,0,-2,1,0,-1,-2,0
1514894992633987,-1,-1,-2,-1,-1,-2,0,-2
1514894992633987,-1,-3,-1,-2,0,-1,-3,-1
1514894992635004,0,1,0,-2,-1,-1,-2,0
1514894992635004,-2,0,-2,-3,-2,-1,0,0
1514894992647008,-1,-3,-1,-2,0,-1,0,-2
1514894992647008,-1,-3,-1,-1,-1,-1,0,-1
1514894992655011,-1,-1,-2,0,-2,-1,0,-1
1514894992655011,-2,1,0,-1,-1,-2,-1,1
1514894992670027,-1,-3,0,1,-2,-1,-1,0
1514894992670027,-2,-1,-1,-1,-3,-1,-2,-2
1514894992671012,-1,-1,0,-1,1,-2,0,1
1514894992671012,0,1,-1,-1,0,0,-1,-1
1514894992694038,-2,0,-2,-1,-2,0,-2,0
1514894992694038,0,-1,0,-1,-1,-2,-1,-2
1514894992694530,-1,-1,-2,-1,-4,-1,-2,0
1514894992694530,-2,1,-2,-3,1,-2,-2,0
1514894992707051,-1,-2,-1,-2,0,0,0,0
1514894992707051,1,-3,-3,-1,0,-2,-1,0
1514894992715053,-1,0,-2,-2,0,0,-3,-2
1514894992715053,0,-3,-2,-2,-1,-1,0,-2
1514894992731065,-1,-2,-1,-1,0,-1,-1,-3
1514894992731065,-2,-2,-2,-2,-3,-1,-3,-1
1514894992737069,-2,0,-1,-2,-1,-1,1,1
1514894992737069,-2,0,0,-2,-3,-2,-2,-1
1514894992753071,-1,-1,-1,0,1,-1,0,0
1514894992753071,-2,-3,-2,-1,-1,0,0,-1
1514894992754081,-1,-1,-1,-1,-1,0,-1,-2
1514894992754081,-1,0,-3,0,-1,0,-1,-1
1514894992767090,-1,-1,-1,-1,-1,-1,-1,0
1514894992767090,-1,-3,-1,-1,0,-1,0,1
1514894992775087,1,-1,-1,-2,-1,-2,-2,-1
1514894992775087,-1,1,0,-3,-1,0,-1,0
1514894992790097,1,-3,0,-1,-2,-2,-1,-3
1514894992790097,0,-1,-1,-1,0,0,-1,-3
1514894992791099,0,1,0,0,-1,-1,-1,-2
1514894992791099,0,-1,-2,-1,1,-3,0,0
1514894992813123,-1,-2,-1,-2,0,-1,-2,0
1514894992813123,-1,-2,1,1,-1,0,0,-1
1514894992814131,-1,1,-2,-1,0,-2,0,-1
1514894992814131,-2,1,-2,-1,-1,-1,0,-3
1514894992827623,0,-2,-2,-1,-1,-3,0,-1
1514894992827623,-1,-2,-1,0,-2,0,-1,-2
1514894992842634,-1,0,-1,-1,-1,0,-2,0
1514894992842634,-1,1,0,-3,-3,-1,-1,-1
1514894992850139,-1,-1,1,0,-3,-1,-1,-1
