timestamp,emg1,emg2,emg3,emg4,emg5,emg6,emg7,emg8
1514879650713533,0,3,-1,-2,-1,0,-3,3
1514879650713533,0,0,-1,-2,0,-2,0,-4
1514879650729544,-1,-1,-2,-2,-2,-1,1,1
1514879650729544,-1,1,-2,-1,-2,-1,-2,-2
1514879650731545,0,-4,-2,-2,0,-1,-1,-2
1514879650731545,-4,-2,-2,-1,-2,0,-1,-1
1514879650751562,1,0,-2,2,-1,0,0,-1
1514879650751562,1,-1,0,0,-1,-2,1,0
1514879650753564,-1,2,-1,-2,0,0,-4,-2
1514879650753564,-1,0,-1,-1,-2,-1,-2,2
1514879650766577,-3,-2,1,-1,-2,-2,0,0
1514879650766577,0,-2,-2,-1,-1,0,0,1
1514879650772576,-1,0,-1,1,-1,-2,1,0
1514879650772576,2,-1,1,-1,2,-2,-1,-1
1514879650789591,-2,-2,-1,-1,0,-3,-2,-2
1514879650789591,0,-3,0,-1,-2,-2,0,2
1514879650790591,-1,-1,-2,-2,-3,-2,1,0
1514879650790591,-2,1,-3,-1,1,-2,-4,-5
1514879650811602,-1,1,-3,1,-1,3,-3,-1
1514879650811602,-2,0,-1,-2,-1,-1,-2,-1
1514879650814605,-2,-3,-1,0,-2,-2,-2,-2
1514879650814605,-1,0,0,-2,-1,0,1,3
1514879650825612,0,0,-2,-2,-2,-1,-2,-3
1514879650825612,-1,-2,-3,-1,1,-1,-2,0
1514879650834621,-4,0,-1,0,0,-1,3,0
1514879650834621,-1,-2,-1,0,0,-1,2,-1
1514879650849630,-2,1,0,-2,0,-1,-2,-3
1514879650849630,-3,0,-2,-1,-1,-2,-3,0
1514879650850630,1,-2,0,-2,-2,-2,-1,-3
1514879650850630,-3,-2,0,0,0,-2,-1,1
1514879650871647,-2,-2,-2,-2,-1,-1,0,1
1514879650871647,0,-1,0,-3,-2,-1,3,-4
1514879650873646,-4,0,0,2,-2,0,1,-3
1514879650873646,0,0,-1,-2,-3,-1,-4,-1
1514879650885671,-2,0,-2,-1,0,-2,-2,-2
1514879650885671,2,-2,-1,-2,-2,-2,0,-2
1514879650894660,0,0,-1,0,-2,1,-2,-1
1514879650894660,-2,-2,-2,1,-2,2,0,1
1514879650909671,-1,0,-1,-3,-1,-2,2,-2
1514879650909671,-2,-2,-3,-1,-2,-2,0,1
1514879650910672,2,0,2,-1,-3,0,1,-2
1514879650910672,0,0,-1,0,-2,1,-2,0
1514879650931687,-1,-3,-2,-2,2,-1,-2,2
1514879650931687,-1,0,-2,-2,-3,0,1,-1
1514879650933691,0,-1,-2,1,-1,-1,2,-2
1514879650933691,1,-2,-1,-1,-3,-1,-2,-3
1514879650945711,0,-3,-2,-3,0,-1,-1,0
1514879650945711,-2,-1,0,-1,-2,-1,1,-2
1514879650954712,0,-2,-2,0,-1,-2,-3,-1
1514879650954712,-2,-2,0,-1,0,-3,-1,1
1514879650968722,-1,-1,-2,-1,-1,0,0,-1
1514879650968722,1,-1,-1,-3,2,0,-3,-1
1514879650970715,-2,-1,0,-1,-2,-1,2,-2
1514879650970715,-4,-2,0,0,-2,-2,-3,-1
1514879650991752,-2,-2,0,0,-1,1,-3,0
1514879650991752,2,0,-2,-2,-1,0,0,1
1514879650994733,1,-2,-2,-3,-1,-2,-3,-3
1514879650994733,-3,-2,-2,-2,-1,-1,-1,-1
1514879651005747,-1,-1,-2,-1,-1,1,0,-2
1514879651005747,-1,-1,0,0,0,-2,-3,-2
1514879651015755,2,-2,0,0,-1,-1,-3,0
1514879651015755,-1,0,-1,0,-3,-1,0,-1
1514879651028754,-1,-1,1,0,-2,-3,-2,-4
1514879651028754,-2,-1,-3,-1,-1,-2,0,-2
1514879651030756,0,0,-3,-3,-3,-2,-2,2
1514879651030756,-1,-1,0,-3,1,2,0,-2
1514879651051780,-1,-3,0,2,1,-1,-1,1
1514879651051780,-1,-2,-1,0,1,-2,1,-2
1514879651052772,0,0,-1,-1,-1,0,0,-1
1514879651052772,1,1,-2,0,-3,1,-1,0
1514879651064802,-1,1,0,-1,0,-1,-1,-1
1514879651064802,-1,-1,-1,-1,-1,0,-1,0
1514879651074796,-2,-2,-2,-2,0,-3,-2,-2
1514879651074796,0,-2,-3,0,-1,-2,-2,-1
1514879651088797,0,-2,-1,-3,-1,-1,3,-1
1514879651088797,-3,-1,-1,0,-1,-2,-4,-3
1514879651090799,-4,1,-2,-2,0,0,0,0
1514879651090799,-1,-2,-2,-1,-3,-3,1,-2
1514879651110813,0,-2,-2,0,-3,-2,-2,-1
1514879651110813,-3,0,0,-1,-1,0,0,0
1514879651119819,0,-2,-1,1,1,-1,-1,-2
1514879651119819,-4,0,-2,-2,-1,0,0,0
1514879651124823,1,-1,-1,-1,-1,0,-1,-3
1514879651124823,-1,0,-1,-2,-1,-1,-2,-1
1514879651134830,-1,-1,0,-1,-1,1,-2,2
1514879651134830,0,-1,0,-1,1,-1,-4,-1
1514879651148852,-2,-1,-2,-1,0,0,2,0
1514879651148852,0,-1,-1,-1,-2,-2,-2,0
1514879651150854,-1,-2,0,0,-3,-3,0,-1
1514879651150854,0,-2,0,0,-1,-1,0,-1
1514879651171867,1,0,-1,-4,-2,-1,-2,1
1514879651171867,2,-2,-2,-1,-1,1,-1,1
1514879651172868,-1,0,-1,-1,0,0,2,-3
1514879651172868,0,-1,0,-1,0,-1,0,-2
1514879651184875,-2,0,-1,-1,0,-3,-2,-3
1514879651184875,0,-1,0,-3,-1,-3,-2,-1
1514879651193885,-2,-2,-1,-1,-1,-1,0,0
1514879651193885,-1,1,0,-1,-1,-1,-1,-2
1514879651208891,-1,-1,-1,-2,1,1,0,-4
1514879651208891,1,-1,-2,-1,-1,1,-1,-1
1514879651210891,1,1,1,1,-3,-1,1,-3
1514879651210891,-2,-1,-1,-1,-1,-2,-2,-1
1514879651231917,-3,-1,-2,-1,-2,-2,-4,1
1514879651231917,0,-2,0,-3,0,0,-1,-3
1514879651232902,-2,0,-2,0,-2,1,0,1
1514879651232902,0,0,-3,-1,-1,0,0,-1
1514879651253923,-1,-2,-1,0,-4,-1,-2,1
1514879651253923,-2,-2,-1,-1,1,0,0,0
1514879651255933,3,-2,-2,-2,-2,-2,0,-2
1514879651255933,0,0,0,-1,-1,0,-1,-2
1514879651268935,-1,-3,0,-1,0,-1,-1,-1
1514879651268935,-2,-1,-2,-1,0,-3,-1,-1
1514879651274938,-2,-2,-1,0,-2,-2,0,-2
1514879651274938,1,-2,1,-1,0,-1,-3,-1
1514879651291979,0,-1,-1,0,0,0,-2,-1
1514879651291979,4,0,0,-2,-3,1,1,-1
1514879651293943,0,-2,0,-2,-1,-2,0,1
1514879651293943,-2,-1,-3,-1,-1,0,-1,-3
1514879651313958,-1,-2,-1,-1,-2,-1,0,0
1514879651313958,-2,-1,0,1,-1,-2,-2,-3
1514879651317958,2,-1,0,0,-2,0,-3,0
1514879651317958,-1,0,-1,-2,1,-2,-1,0
1514879651328966,1,-1,1,-1,-2,-2,-2,-2
1514879651328966,-2,-3,-2,-3,-3,0,1,-1
1514879651330968,-1,0,0,-2,0,-3,-1,-3
1514879651330968,-2,-3,-1,0,-3,-2,0,-3
1514879651351995,-2,-1,-3,0,-2,-2,-2,-1
1514879651351995,-1,-2,-2,1,0,-1,-1,-1
1514879651352996,-2,0,-1,-1,-2,-1,1,-1
1514879651352996,-1,0,-2,-2,-1,-1,-2,-1
1514879651373998,1,-1,-1,-2,-1,-2,-3,1
1514879651373998,0,0,-2,-2,1,-1,2,-2
1514879651376000,-3,-1,0,-1,0,1,-2,-1
1514879651376000,0,-1,-1,-2,-2,-2,-1,0
1514879651389009,-4,0,-3,0,0,-3,1,-4
1514879651389009,-3,1,-1,-1,-2,-2,-4,0
1514879651395013,-2,-2,-2,-1,-2,-2,2,-1
1514879651395013,-1,-4,-1,0,-2,1,3,0
1514879651412025,-2,1,0,-1,-2,-1,-3,-1
1514879651412025,-2,0,0,-2,-1,-1,-2,-1
1514879651416032,-1,0,-2,1,-3,-1,-2,-1
1514879651416032,-1,-2,-1,0,-1,-2,-3,-2
1514879651434055,-1,-3,-2,-3,-1,0,1,-2
1514879651434055,-1,-2,-2,0,0,-1,-2,-2
1514879651436054,2,-2,0,-1,-1,-2,-1,-1
1514879651436054,-1,-2,-2,-1,-2,-1,-1,2
1514879651448063,0,0,-1,0,0,0,-2,-3
1514879651448063,-5,-2,-1,-2,-3,-3,3,-1
1514879651455057,-2,-1,-1,-1,0,-1,0,0
1514879651455057,-2,-1,-1,-1,-3,0,-1,0
1514879651472069,-1,0,-2,-2,1,0,0,-1
1514879651472069,0,-2,0,-1,-3,-1,-3,-4
1514879651473069,1,0,-1,0,-1,-3,-1,-2
1514879651473069,-1,0,1,-1,0,-1,1,3
1514879651494101,-4,-1,-1,-1,-1,-1,0,1
1514879651494101,2,-1,-2,-2,-1,-2,-1,0
1514879651496085,-3,-2,-2,-3,-1,-1,-3,-1
1514879651496085,0,0,-1,-1,-1,-1,-2,-4
1514879651508105,-1,-1,0,-3,-3,-1,-2,1
1514879651508105,-3,0,-2,-1,1,-1,-1,0
1514879651516102,-4,-2,-3,-3,-1,-1,-2,0
1514879651516102,0,-1,-1,0,-1,-1,1,-2
1514879651539127,-1,0,-1,1,1,-4,1,0
1514879651539127,0,-2,-1,-1,-2,-3,-3,-3
1514879651541116,2,-1,0,-2,0,0,0,1
1514879651541116,0,0,-1,-1,0,2,-1,0
1514879651554135,0,0,-1,0,-2,-2,-1,0
1514879651554135,-1,1,0,0,-3,-1,0,1
1514879651556136,-1,-1,-3,-2,0,0,-2,-3
1514879651556136,0,-1,-2,0,-2,-1,0,-1
1514879651568138,1,-3,0,-2,0,-2,-2,-2
1514879651568138,-2,-1,0,-1,-1,-2,-1,-1
1514879651575153,-2,0,-2,-2,-1,0,1,-1
1514879651575153,2,-1,-1,-1,-2,-1,-1,-3
1514879651592173,-1,0,-2,1,-1,-1,-3,-2
1514879651592173,0,-1,0,-1,-2,0,-1,1
1514879651594154,-1,-1,-1,-2,2,-3,-2,0
1514879651594154,-2,-1,-3,-1,0,0,-1,1
1514879651614203,-2,-1,-1,-1,-1,1,0,-2
1514879651614203,-1,-1,-2,1,-1,-1,-2,-2
1514879651617172,1,-2,0,-1,-4,-1,-1,0
1514879651617172,-1,-3,-1,0,-2,-2,-3,1
1514879651628179,0,-1,-1,-2,0,0,0,0
1514879651628179,0,-2,-2,-2,0,0,0,2
1514879651635183,-1,-1,-1,-1,-1,0,-2,-5
1514879651635183,-3,0,-2,-1,-1,0,0,-3
1514879651652196,-1,-2,-1,0,-3,0,-2,1
1514879651652196,-3,-3,-1,-2,0,-1,-2,0
1514879651653197,-1,1,-1,-1,-2,0,0,0
1514879651653197,-2,-2,0,-2,-1,-2,0,-3
1514879651674220,-1,0,-1,-3,-1,-1,-2,-1
1514879651674220,-2,0,-1,-2,0,-1,-1,-1
1514879651676222,2,-2,-3,-1,-2,0,-1,-4
1514879651676222,0,0,-2,0,-1,0,0,0
1514879651688223,-3,-1,-2,1,-2,-1,-2,-1
1514879651688223,-1,-1,0,0,-2,-2,-1,-2
1514879651695252,-1,0,-1,-2,0,-1,1,1
1514879651695252,-1,0,-1,0,-2,-2,-1,-1
1514879651712275,1,-2,-2,-1,0,-2,-2,-4
1514879651712275,0,-2,-3,-1,-2,-2,-3,-1
1514879651715264,-1,0,-1,0,0,-2,0,-1
1514879651715264,-2,-2,0,-1,0,-1,0,-2
1514879651734280,-1,-1,1,-1,-2,-4,-2,2
1514879651734280,-2,-2,-1,0,-1,-1,1,0
1514879651735279,0,-2,0,-2,-1,0,-1,-3
1514879651735279,-1,1,-1,-1,-2,-2,-3,1
1514879651747328,0,-3,0,-2,-2,-1,0,-2
1514879651747328,-1,0,-2,-2,-1,-2,-3,-3
1514879651756302,-3,-2,-3,-1,-2,-3,0,0
1514879651756302,-1,-2,-2,0,0,0,2,1
1514879651771312,-3,-1,-2,-2,-1,-1,-1,1
1514879651771312,2,-1,-2,-1,0,1,-1,-1
1514879651773315,-1,-3,-1,-1,-2,-2,0,0
1514879651773315,-1,-1,0,-2,-1,-1,1,-1
1514879651794399,-2,0,1,0,0,-2,2,-4
1514879651794399,-2,-1,1,-1,-1,0,-1,-1
1514879651795394,0,1,-2,-2,-3,1,-2,2
1514879651795394,0,0,-1,-1,-2,-1,-3,-4
1514879651807382,-1,-1,-2,0,0,0,1,-2
1514879651807382,2,0,-2,-2,0,-1,-3,1
1514879651817389,1,0,-1,0,-1,0,0,-1
1514879651817389,-1,0,0,0,-1,-4,-4,-3
1514879651831398,-1,-2,-3,-2,0,-2,0,-5
1514879651831398,-2,0,-1,0,-2,-3,-1,-1
1514879651833399,0,-2,-2,-1,1,-1,0,-3
1514879651833399,-1,0,0,-2,-1,-1,-2,0
1514879651854414,-1,0,-2,-1,-1,-2,-2,2
1514879651854414,-2,-1,-1,-3,-1,0,0,-1
1514879651855415,-3,-1,-3,-2,-1,1,0,-4
1514879651855415,0,-1,0,0,0,0,-1,-3
1514879651867425,0,0,0,1,-1,-1,-2,-1
1514879651867425,-1,0,-1,-2,0,-3,0,-1
1514879651876430,0,-1,-1,-3,-1,-1,-2,1
1514879651876430,-1,0,-1,0,0,-3,-2,-1
1514879651892441,-2,-1,-1,-3,-2,1,-1,0
1514879651892441,0,-3,-2,0,0,-1,-2,-2
1514879651894444,-1,-1,-1,1,-1,-2,-2,-1
1514879651894444,-1,-1,0,-2,-1,0,3,0
1514879651914476,-2,-1,-2,1,0,-1,0,-1
1514879651914476,-1,-1,-2,0,-1,0,-1,-2
1514879651916459,-2,-2,-1,-1,-2,0,-1,0
1514879651916459,-2,-1,-1,-2,-2,-1,1,0
1514879651927466,1,0,-2,-1,-1,1,-3,-2
1514879651927466,0,0,0,-3,-1,-2,0,0
1514879651936472,-1,-2,0,-2,-1,-3,-1,-2
1514879651936472,-2,-1,-1,-1,-2,-1,-1,2
1514879651951488,-2,-1,-1,0,-2,0,-2,-1
1514879651951488,-2,-1,-1,-1,-2,1,-1,-2
1514879651953485,0,-2,-1,1,-1,-1,-3,-1
1514879651953485,-1,-2,-2,-1,-1,-1,-1,-2
1514879651974500,-1,0,-1,-3,0,-1,0,-1
1514879651974500,-1,-3,-1,-1,0,-2,0,0
1514879651975499,-1,0,-2,0,-2,0,-1,-2
1514879651975499,1,-1,1,-1,-1,-1,1,-1
1514879651987508,-3,-2,-1,0,-1,-1,-2,2
1514879651987508,-1,1,0,-1,-1,-2,-1,-1
1514879651996515,-1,-1,-1,-2,-1,-2,-2,-4
1514879651996515,-1,0,-1,-1,-1,-1,-4,-2
1514879652011525,1,-2,-1,-2,-1,-1,-2,1
1514879652011525,-2,0,0,-3,0,-1,-2,-2
1514879652014527,2,0,-1,-1,-2,-1,1,1
1514879652014527,-1,0,-2,0,-1,1,-1,-2
1514879652034554,0,-2,0,-1,-1,-2,1,-1
1514879652034554,-2,-3,-2,0,-1,1,-2,-1
1514879652035552,-1,-1,-2,0,1,-1,1,0
1514879652035552,-1,0,-1,-2,-1,1,2,-1
1514879652047579,1,-1,-2,-2,2,-5,-1,-3
1514879652047579,-2,-1,-2,0,0,-2,0,-2
1514879652056557,0,-2,1,-1,-2,-1,-2,-1
1514879652056557,-1,0,-1,-1,0,-1,-4,2
1514879652071568,-4,-1,-1,0,-2,2,0,-2
1514879652071568,-2,0,1,-1,0,-2,-3,-2
1514879652073570,0,-1,-1,-1,-1,-1,2,-1
1514879652073570,0,-2,-2,0,-2,-2,1,-2
1514879652094589,0,-1,-2,-1,-2,-1,-4,-2
1514879652094589,0,-1,-2,0,-1,-1,0,0
1514879652095593,-2,0,-1,-2,-2,-3,-2,-2
1514879652095593,-1,-2,-1,-1,-1,-1,-1,-1
1514879652107594,-3,0,-3,0,0,-1,-4,0
1514879652107594,0,-3,-2,-1,0,-2,-1,-2
1514879652117600,0,1,-2,-1,-1,-1,0,-1
1514879652117600,-1,-1,-1,0,-3,-2,0,-1
1514879652131611,-1,-3,-1,0,-2,-1,-2,2
1514879652131611,1,-2,0,-2,-1,-1,-2,2
1514879652133615,1,0,-2,-1,1,1,-1,-1
1514879652133615,1,0,-2,-2,1,1,-3,0
1514879652154627,-3,-3,-2,-2,-2,-2,0,-2
1514879652154627,-2,0,-1,-2,-1,-1,0,-3
1514879652155627,-3,-1,-1,-1,0,-2,-2,0
1514879652155627,-1,0,0,-1,-1,0,-1,-2
1514879652167636,-4,0,1,-3,0,-2,-3,-1
1514879652167636,-2,-1,-1,-1,-3,0,-2,-1
1514879652176642,0,-3,-1,0,-2,-2,1,-2
1514879652176642,-1,0,-2,-1,-1,-4,-1,-4
1514879652191676,-3,-2,-1,-1,-1,-1,0,1
1514879652191676,1,0,-1,-2,0,0,-1,-1
1514879652194676,-4,-1,-1,-1,-3,0,0,-2
1514879652194676,-1,-2,0,-2,-3,-1,-2,-2
1514879652214669,1,-1,-3,-1,2,-1,1,-2
1514879652214669,-2,-2,-2,-2,0,-1,0,1
1514879652215674,-1,1,1,0,-2,1,-2,0
1514879652215674,0,-2,-1,-1,-1,-2,-3,0
1514879652236704,-3,-1,-3,-1,-1,-1,-5,-1
1514879652236704,-1,-1,-1,-2,-2,-2,1,-2
1514879652242702,-1,1,0,-2,0,-1,-3,-3
1514879652242702,-2,-1,0,-2,-3,-2,2,0
1514879652251695,0,-1,0,0,-2,0,1,-2
1514879652251695,-1,-1,-1,0,-3,-1,-3,0
1514879652253698,-1,-1,-2,0,-1,-2,-1,-2
1514879652253698,-1,-1,0,0,0,-5,0,2
1514879652274714,-1,-2,0,0,-1,-1,-2,-2
1514879652274714,-1,-1,-2,-1,-2,-1,-2,-1
1514879652275711,-1,-1,-1,-1,-3,-1,1,2
1514879652275711,-2,-1,0,-2,0,-1,-1,-3
1514879652295748,2,-1,-3,-2,-2,1,-4,1
1514879652295748,0,0,0,-1,-3,2,0,-1
1514879652296726,-1,-2,-1,0,-1,1,0,1
1514879652296726,-1,-1,-2,-1,0,-2,-3,-3
1514879652310736,-2,0,-1,0,-1,0,0,-1
1514879652310736,-3,1,-1,-1,-1,-2,-1,-1
1514879652311737,1,-2,-2,-1,-1,-2,0,-4
1514879652311737,-1,-1,-1,-1,-2,0,-2,-1
1514879652333756,-1,-1,-1,-2,0,0,1,0
1514879652333756,1,-2,-1,-1,1,0,-2,-1
1514879652334754,-3,0,-1,0,-1,-3,-2,0
1514879652334754,1,-2,-3,-1,-2,-1,0,0
1514879652355769,1,0,0,-1,2,-2,1,-1
1514879652355769,2,1,-1,-1,-1,-2,3,-1
1514879652356768,-1,-4,0,-3,-2,-1,-2,-1
1514879652356768,-1,-1,-2,0,-1,-1,0,0
1514879652372780,-1,-1,-2,-1,-4,-4,1,-4
1514879652372780,-1,-1,-1,0,0,-2,-2,-3
1514879652372780,0,0,0,-2,-1,-1,0,-3
1514879652372780,-1,-2,0,0,0,-1,0,-2
1514879652393796,-1,-1,-2,-1,1,1,-2,0
1514879652393796,-2,-2,-1,0,-3,0,-1,1
1514879652394825,-1,-1,0,0,-1,-2,1,0
1514879652394825,-3,0,-2,0,-1,1,-2,-3
1514879652415810,-2,-1,-1,-2,-1,-1,-1,0
1514879652415810,-2,-1,-2,-2,-1,-1,-2,-2
1514879652416812,-1,-1,-2,-2,0,-1,-4,-1
1514879652416812,-1,-1,0,0,-1,-1,0,0
1514879652430841,0,-1,-1,-2,-2,-2,-2,-2
1514879652430841,0,0,-2,0,-1,-1,-2,0
1514879652431825,1,0,-1,1,-2,0,-1,-1
1514879652431825,-1,-1,-1,-1,0,-1,0,-3
1514879652461846,2,1,0,-3,-4,-2,-1,-3
1514879652461846,-2,-2,-2,-3,0,-1,0,0
1514879652462844,-2,-1,0,-1,0,-2,0,-1
1514879652462844,-1,-2,-2,-1,-1,0,-3,-3
1514879652475853,-2,-1,-1,0,0,-2,0,1
1514879652475853,-2,-3,1,0,0,-1,2,-3
1514879652483873,0,-1,0,-1,-2,-1,-1,0
1514879652483873,-3,-1,-2,1,-2,0,-1,1
1514879652490876,2,0,-2,-3,1,-2,-1,-5
1514879652490876,-1,0,-2,-1,-3,-1,-1,0
1514879652492865,-3,0,-1,-2,-1,-1,-1,-2
1514879652492865,0,0,1,-1,-1,-2,-2,2
1514879652513891,-4,-2,-2,0,-1,0,0,1
1514879652513891,0,-2,0,-2,0,1,0,-2
1514879652514881,-1,-2,-1,0,-3,0,-2,-1
1514879652514881,2,-1,0,-1,-1,0,-1,-2
1514879652535898,-1,-1,0,0,-2,0,-1,0
1514879652535898,-1,0,-2,-1,-2,-1,-2,-3
1514879652536899,-3,-2,0,-2,-2,-3,1,1
1514879652536899,0,-1,-1,-3,-1,-1,-1,-1
1514879652549908,-4,-3,-1,0,-1,0,-1,-1
1514879652549908,0,-2,1,-3,0,-1,-3,0
1514879652557911,-1,-1,-2,-1,-2,-1,-2,-1
1514879652557911,1,-1,-1,0,0,-3,0,1
1514879652572922,0,-1,0,-1,-2,-2,-1,-2
1514879652572922,1,-1,-1,1,-2,-1,-2,0
1514879652573922,-2,0,-1,1,2,-3,-2,-4
1514879652573922,-1,-2,-2,-1,-1,-1,-1,0
1514879652595953,-2,-1,-1,-2,1,1,-3,0
1514879652595953,0,-1,-1,-1,-1,-3,2,-4
1514879652596939,-2,-1,-2,0,-2,0,-1,1
1514879652596939,-4,-1,0,-1,-2,-1,-2,0
1514879652611962,0,-1,0,-3,-1,-1,-1,0
1514879652611962,-1,-1,-2,-1,-2,0,-3,-1
1514879652612949,3,-1,0,-1,0,-3,1,-4
1514879652612949,-3,-1,-1,-1,-1,0,-3,1
1514879652633965,0,-2,-3,-2,-2,-2,-3,0
1514879652633965,-2,0,-3,-2,-1,-1,-1,0
1514879652633965,1,-1,1,0,-1,-1,-1,0
1514879652633965,-2,-1,0,-1,-1,-3,-3,-2
1514879652655981,-3,-3,-2,0,1,-1,-1,0
1514879652655981,1,-1,0,-1,-1,-2,-1,-3
1514879652656982,0,-1,-1,0,1,0,0,-2
1514879652656982,-1,-1,-3,-3,-2,1,-1,-1
1514879652671000,0,-1,-2,-2,-1,-1,-3,-2
1514879652671000,-3,0,-3,1,-1,0,0,-2
1514879652672001,-3,0,0,-2,-2,-1,0,1
1514879652672001,0,2,-1,-1,-1,0,1,0
1514879652694006,-2,-1,-2,-1,-2,0,1,-2
1514879652694006,-2,-1,-2,-2,0,-1,-4,2
1514879652694006,0,-2,1,-2,-2,-1,0,-2
1514879652694006,-2,-4,-1,-1,-2,-3,-2,-3
1514879652716024,0,-1,0,2,-1,-1,1,-2
1514879652716024,-1,-1,-1,-1,0,0,-1,2
1514879652717048,-1,0,-3,-1,-1,0,-1,-2
1514879652717048,-1,-1,0,-2,-1,-1,-1,0
1514879652731033,2,1,0,0,-1,-3,-3,-4
1514879652731033,0,-2,-1,-1,1,-1,0,-6
1514879652732035,-1,0,1,0,-2,-2,-1,-2
1514879652732035,0,0,-2,0,-1,-4,0,0
1514879652753050,-3,-2,-2,-1,-1,-2,-2,-1
1514879652753050,-1,-2,-3,-1,-3,0,0,-2
1514879652754050,0,0,0,-1,-2,-2,-4,-4
1514879652754050,0,1,-1,-1,-1,-1,-4,0
1514879652776102,0,0,0,-3,-1,-1,1,1
1514879652776102,-4,0,-1,-1,-1,-2,0,-1
1514879652777113,0,-3,-2,-1,0,0,2,-1
1514879652777113,-2,-1,0,1,-2,-1,0,-2
1514879652790103,-1,-1,0,-3,-4,0,-3,3
1514879652790103,3,0,-1,-2,-3,-2,-1,-1
1514879652798162,-2,-2,0,0,-2,1,1,0
1514879652798162,0,-1,0,-1,1,-1,-1,2
1514879652813166,0,0,-2,-1,1,0,-1,-2
1514879652813166,1,0,0,-2,-1,-1,-3,-2
1514879652814151,-1,-1,0,0,-2,-2,-3,-1
1514879652814151,-1,-1,-1,-1,0,-2,0,-1
1514879652836165,-2,0,0,0,-1,-1,-1,-2
1514879652836165,1,-1,-1,-3,-1,-2,1,2
1514879652837178,0,-1,-5,-1,-1,-1,1,-2
1514879652837178,-2,-2,-2,-1,-2,0,-1,-4
1514879652850177,2,0,-2,-3,-1,-4,-3,-1
1514879652850177,-3,0,0,1,-2,0,0,-2
1514879652858181,-1,0,1,-2,-1,-1,-2,-2
1514879652858181,-2,0,-2,-1,-1,-1,-2,-2
1514879652873211,1,-2,0,0,1,-3,3,0
1514879652873211,0,-2,0,0,-3,-2,-2,-2
1514879652874215,-1,-1,-2,0,-2,-1,-1,-1
1514879652874215,-1,-2,-1,0,-1,1,-1,-1
1514879652896226,1,-1,-1,-2,0,-1,0,0
1514879652896226,-3,-1,-2,-1,1,0,0,0
1514879652897209,-2,-1,-2,-1,-3,-2,1,-1
1514879652897209,0,0,0,0,-1,-1,-2,-1
1514879652911228,-3,-2,-2,-1,-1,0,-2,1
1514879652911228,2,-2,-1,-1,-1,-3,1,-2
1514879652918233,1,-1,-1,-1,-1,-2,-3,4
1514879652918233,-5,-1,-2,-2,-1,-2,-2,-2
1514879652933247,-1,-1,0,0,0,0,0,-2
1514879652933247,-3,0,0,0,-1,-1,0,1
1514879652934246,1,-1,-1,-3,0,-2,-2,-1
1514879652934246,0,-3,-3,-1,-1,0,0,-3
1514879652956260,-2,-2,-1,-3,-1,-1,-2,1
1514879652956260,-1,-2,0,-2,-2,0,3,-2
1514879652956260,1,-2,-2,-2,0,0,0,-3
1514879652956260,0,1,-1,-1,-2,-1,-2,1
1514879652970272,-5,-1,-3,-2,-1,0,0,-4
1514879652970272,1,-2,0,-1,-1,-2,0,-1
1514879652978278,-2,0,-1,-2,0,-2,-1,-4
1514879652978278,-3,-3,0,-1,0,-2,-1,-2
1514879652993289,0,0,-1,-1,-2,-1,-2,-1
1514879652993289,-2,-1,-3,-2,-2,-2,-4,2
1514879652994277,-1,-1,-1,3,-1,-2,-2,3
1514879652994277,2,1,-2,-2,1,-1,2,-1
1514879653017296,-2,-2,-1,-1,0,-1,-2,-1
1514879653017296,0,-2,-1,0,-1,2,1,-2
1514879653018294,-3,-2,-2,-1,-3,1,-1,-1
1514879653018294,1,-1,-2,-1,0,0,-4,2
1514879653030303,-2,0,-2,-1,0,-4,-1,1
1514879653030303,-1,-1,-2,-1,0,0,-1,-1
1514879653038308,-1,-1,0,0,-2,-1,1,0
1514879653038308,-1,-1,0,-1,-1,-2,-2,0
1514879653053337,1,0,-2,-2,-1,-2,-2,-4
1514879653053337,-1,-1,-2,-2,-2,-2,-1,-2
1514879653054321,-3,2,0,0,-2,-1,0,2
1514879653054321,-2,-2,-1,-3,1,-1,1,-3
1514879653076335,0,-1,-1,-1,1,0,-3,-3
1514879653076335,-1,1,0,-1,-1,-2,-4,-1
1514879653076335,-1,-1,-1,-4,0,-1,0,-1
1514879653076335,0,-1,-2,-1,-2,-1,-2,-1
1514879653090359,-1,-1,0,0,-2,0,0,0
1514879653090359,0,-1,-1,0,-1,0,1,-2
1514879653098351,1,-3,0,0,-1,0,-2,-1
1514879653098351,-3,-1,-3,-2,-2,-1,-1,-1
1514879653113374,-1,-2,0,-1,-2,-1,1,-1
1514879653113374,-2,-2,-1,-1,-1,1,-1,1
1514879653114362,-2,0,0,0,-2,0,-3,-1
1514879653114362,-1,-1,-1,-1,0,-2,0,-3
1514879653136391,-1,-2,0,-1,-1,-1,-1,1
1514879653136391,-2,0,-1,-2,-3,-3,2,-2
1514879653136391,-2,-2,-2,-2,-1,-3,1,-2
1514879653136391,1,-1,0,-1,0,-2,-5,-1
1514879653159415,-2,1,-1,0,-3,0,-1,-1
1514879653159415,0,-1,-1,-1,1,-3,-1,-2
1514879653159415,-3,-2,-2,0,-1,-1,-1,-5
1514879653159415,-1,-2,-1,-1,0,-1,-1,1
1514879653173405,0,-1,-2,-2,-1,-1,0,0
1514879653173405,-3,-1,-2,0,0,-1,0,3
1514879653174405,2,-1,-2,-1,-1,0,-2,0
1514879653174405,-2,-1,-1,-1,-3,0,1,-2
1514879653196440,-2,-1,-3,-3,0,-1,-3,0
1514879653196440,-1,-1,0,-3,-3,-2,-1,-3
1514879653197433,1,1,-1,-1,-2,-1,0,0
1514879653197433,-1,-1,-2,-2,-1,1,-1,-2
1514879653219452,-1,-1,-2,-1,0,0,2,1
1514879653219452,2,-2,0,0,-3,-1,2,-1
1514879653220437,-1,-2,-1,0,-1,-2,0,0
1514879653220437,-1,0,-1,-1,-1,1,1,3
1514879653233447,-1,-2,-1,-1,0,-3,-2,-3
1514879653233447,-1,-2,-2,-1,1,-3,-5,-1
1514879653234452,-3,-1,0,-1,0,-2,0,-3
1514879653234452,1,-1,-3,-1,-2,-3,-1,0
1514879653255472,-2,-2,-2,-1,-1,0,2,-2
1514879653255472,0,0,-1,0,-1,1,-3,0
1514879653256463,-1,-1,0,-2,-3,0,1,-2
1514879653256463,-4,0,0,-2,-1,-1,-4,-2
1514879653279493,1,-1,-1,-2,1,-1,-1,-1
1514879653279493,0,0,0,-1,-2,-2,0,-4
1514879653280479,2,2,-2,-2,1,0,-1,1
1514879653280479,-2,-1,-1,0,0,0,-2,1
1514879653293492,0,-2,0,-1,-2,0,-2,0
1514879653293492,-2,-2,1,-1,0,0,-1,-3
1514879653294498,-1,-2,0,-2,-1,0,-4,0
1514879653294498,-1,-1,0,0,-1,-2,1,-2
1514879653316505,-2,-1,0,-1,0,-1,-1,-2
1514879653316505,1,0,-2,-1,0,-2,1,-3
1514879653317522,-2,-1,0,-1,-2,0,2,-2
1514879653317522,1,0,-2,1,-2,-1,0,-2
1514879653339534,1,0,-1,0,-2,-1,0,1
1514879653339534,-3,0,-1,-1,-3,0,0,0
1514879653340532,-2,0,0,-1,0,-1,-3,0
1514879653340532,-2,-3,-2,-4,-1,-1,-2,-1
1514879653353531,2,-2,-1,-3,-1,1,0,-1
1514879653353531,-2,-2,-1,-1,-2,0,-3,2
1514879653354541,-2,0,0,-2,-1,0,-1,-2
1514879653354541,0,0,-2,-1,-1,0,0,-4
1514879653375552,-2,-2,1,-1,1,-3,-1,0
1514879653375552,-3,-2,-1,-1,-2,-1,-1,-1
1514879653376559,2,-1,0,0,-2,-2,0,0
1514879653376559,-2,-1,-1,-3,-4,0,-1,1
1514879653399564,-2,-1,-2,-2,0,-2,-5,-2
1514879653399564,0,-2,-1,0,-1,-1,1,-3
1514879653399564,-2,-3,-1,1,-1,0,0,-1
1514879653399564,1,0,0,-3,1,-2,-3,2
1514879653413585,-2,-1,-1,1,-2,-1,2,-2
1514879653413585,-2,0,-1,-2,-2,-3,-3,-1
1514879653414574,-2,-1,-2,-2,-1,-2,0,-1
1514879653414574,-1,-2,-2,0,-1,0,-2,-4
1514879653435606,-1,1,-1,-2,-1,-1,-3,-2
1514879653435606,-2,-2,0,0,-2,1,-2,1
1514879653436590,2,0,-1,-2,-1,-1,-2,-2
1514879653436590,-1,-2,0,-1,-1,-2,-2,-2
1514879653459619,0,-1,-2,-2,-1,-2,-2,-1
1514879653459619,1,-2,-2,0,-2,-1,1,1
1514879653459619,2,-2,-1,-1,-1,-2,1,3
1514879653459619,-2,-1,-1,-2,-1,0,-1,-2
1514879653473674,-1,-1,-1,0,0,-3,-2,2
1514879653473674,0,1,-1,0,-2,-3,-2,0
1514879653474674,-1,-1,-1,-1,-3,1,-4,-3
1514879653474674,-1,-2,-2,0,-1,-3,1,-1
1514879653495694,0,-3,-3,-2,-3,1,-1,-3
1514879653495694,-1,-2,-1,0,-1,2,-1,-2
1514879653496680,-3,-2,0,1,0,-1,-2,0
1514879653496680,-3,-1,-2,-1,-1,0,1,-2
1514879653518742,0,0,-2,0,1,1,-1,-1
1514879653518742,-2,-1,-1,0,0,-3,0,-1
1514879653519752,0,0,-1,-1,-3,-2,-2,1
1514879653519752,0,-2,-1,-2,-2,-2,0,-1
1514879653533752,-3,-1,0,-2,-2,0,1,-2
1514879653533752,0,-1,-1,-1,0,-1,-2,-1
1514879653534753,0,-1,-1,0,1,0,1,-1
1514879653534753,-1,-1,0,-1,0,-1,-3,0
1514879653555767,0,-1,-2,-2,-1,-2,0,-2
1514879653555767,-3,-1,-2,-2,0,2,3,0
1514879653556768,-3,0,-1,0,-2,-1,0,-2
1514879653556768,0,0,-2,0,-3,-4,-3,-1
1514879653578787,-2,-1,0,-2,-1,-3,1,4
1514879653578787,-2,0,-2,-1,-1,-3,2,-3
1514879653580786,-1,-2,1,-2,-2,-1,-1,-1
1514879653580786,-3,0,-3,-1,0,0,2,-1
1514879653593811,-2,0,-1,-2,-1,0,-1,-2
1514879653593811,1,1,1,-2,-2,-2,0,0
1514879653593811,-1,0,-2,-1,-2,-3,-1,-1
1514879653593811,0,-3,0,-2,1,-1,-2,-1
1514879653615810,-2,-1,-2,-2,0,0,-2,-1
1514879653615810,0,-1,-2,0,-2,-2,-3,-2
1514879653616811,0,-1,-2,-3,0,-1,0,-2
1514879653616811,1,-2,-2,-1,-1,-1,-1,0
1514879653638835,-3,-2,-1,0,-1,-3,-2,0
1514879653638835,-1,-1,0,-1,0,-1,0,0
1514879653639837,0,-1,-1,-1,-1,1,0,0
1514879653639837,-4,1,-2,-1,-1,-2,-2,-2
1514879653652897,-1,-1,0,0,-1,0,-1,0
1514879653652897,2,-1,0,0,-2,-3,-2,-1
1514879653653912,-1,-1,0,-1,-1,-2,2,1
1514879653653912,0,-1,0,0,-1,0,-1,-1
1514879653675904,-2,1,-1,-2,-2,0,-1,-4
1514879653675904,-1,-1,-2,-1,-1,0,-1,-1
1514879653676903,-1,-1,-2,0,-1,-1,-1,-3
1514879653676903,1,-2,-3,0,-1,-2,-3,1
1514879653698948,-1,-1,-2,-2,1,-2,-1,-1
1514879653698948,1,-1,-1,-2,-3,-1,-1,1
1514879653699919,-3,-1,0,0,-2,-3,-4,-2
1514879653699919,-2,-1,-1,0,-1,-1,-1,0
1514879653712938,0,-1,-2,-2,-2,0,2,0
1514879653712938,0,0,0,0,0,-1,-1,-2
1514879653720943,-4,0,-3,0,-1,0,0,-2
1514879653720943,-1,-3,0,-2,-2,0,0,-1
1514879653735947,1,-1,-1,1,-1,0,-1,-4
1514879653735947,-3,-2,-1,-2,2,-3,-3,-1
1514879653736948,-1,0,-1,-2,0,-1,-1,-1
1514879653736948,-1,-1,-3,-2,0,-1,2,-1
1514879653758970,0,0,-2,-3,-1,-1,0,-2
1514879653758970,1,-1,-2,1,-4,-1,1,-1
1514879653759963,-1,-2,0,0,-1,0,-2,-2
1514879653759963,-2,-1,-1,-1,-1,0,-4,-2
1514879653772980,0,-1,0,-1,-1,-1,0,1
1514879653772980,0,0,-1,-3,-3,0,0,-2
1514879653780976,1,-2,-2,-1,-1,-1,-4,-1
1514879653780976,-3,-2,1,-2,-2,0,2,-2
1514879653796010,-1,-1,-2,-1,-1,-1,-2,-1
1514879653796010,-3,0,-1,-1,0,-1,-2,-2
1514879653797011,-1,-1,-1,-1,0,-1,0,1
1514879653797011,-1,0,0,-2,-2,1,-3,-2
1514879653819004,-2,-3,-2,-1,-3,-1,0,0
1514879653819004,0,1,-2,-1,0,0,-1,-1
1514879653820007,0,-2,-1,0,-1,0,0,-2
1514879653820007,-1,0,-1,-1,1,-2,-4,-1
1514879653842045,-1,-2,-2,-2,0,-2,-1,-1
1514879653842045,-3,-1,0,-1,-3,1,-1,0
1514879653842045,-1,-2,-1,0,-1,-5,1,0
1514879653842045,-1,-2,-2,-1,-2,-2,0,-1
1514879653856039,-2,-1,-2,0,1,0,-2,-2
1514879653856039,-2,0,0,-2,-1,1,0,2
1514879653857040,1,1,-1,0,-2,1,-2,1
1514879653857040,-3,-3,0,-1,1,-1,-2,1
1514879653879070,0,0,-2,-2,-1,-1,1,-2
1514879653879070,1,-3,-1,-1,-1,-4,-1,-4
1514879653880047,-1,0,-2,-3,0,-3,1,-2
1514879653880047,1,-1,-2,-1,-2,-2,0,-2
1514879653893095,-2,-1,0,-1,0,-2,-3,2
1514879653893095,0,-1,-1,-2,-1,-2,0,-1
1514879653901122,-3,2,-1,-1,-1,0,-1,-3
1514879653901122,-1,-1,-2,-1,1,-1,1,-3
1514879653916120,0,-2,1,-1,-3,0,0,-1
1514879653916120,-2,-2,-1,-1,-2,-2,1,-2
1514879653917114,2,-2,-1,-1,-2,-1,-2,4
1514879653917114,-1,-2,-2,-2,-1,-1,1,1
1514879653939127,2,0,-2,-1,-1,0,-3,0
1514879653939127,-1,-1,-2,1,-1,0,1,0
1514879653940128,0,-2,0,-2,-2,-2,-2,-3
1514879653940128,-2,-1,-2,0,-1,0,-1,1
1514879653953137,2,0,-2,-1,-2,-3,1,-1
1514879653953137,-2,-1,0,0,-1,-2,0,0
1514879653961170,-2,0,0,-1,-2,0,-1,-3
1514879653961170,-1,0,-1,-1,-1,-1,-3,-2
1514879653976210,-3,-1,1,-1,1,-1,-1,-1
1514879653976210,-1,-1,-1,-2,0,-2,-2,-2
1514879653977209,0,0,0,-2,-1,-1,1,0
1514879653977209,0,1,-1,-2,-1,0,-3,-1
1514879653999223,1,-1,-2,0,-2,-1,-3,-2
1514879653999223,-1,-2,-2,0,-2,0,-2,-4
1514879654000224,-4,0,-2,-1,-1,-2,-2,-2
1514879654000224,-2,-2,-2,-1,0,-3,-2,1
1514879654013233,-3,0,-1,-2,-3,-3,0,-1
1514879654013233,0,-1,-1,-2,-2,0,-1,0
1514879654021243,-3,-1,-1,-1,1,0,-4,-1
1514879654021243,-1,1,-1,-1,1,0,1,-2
1514879654036259,0,-1,-1,0,-1,-1,0,-3
1514879654036259,-2,-1,0,-2,-2,-2,0,1
1514879654036259,0,-2,0,0,-1,0,1,-3
1514879654036259,2,-1,-2,-1,-1,-2,-3,-1
1514879654059293,-2,-1,0,-1,-1,1,-3,0
1514879654059293,0,-2,0,-1,-1,0,-2,0
1514879654060268,-2,1,-2,-1,-2,1,-2,0
1514879654060268,-1,-2,-1,-1,-1,-1,3,0
1514879654081318,-3,-1,-1,-1,0,-2,-3,-4
1514879654081318,-1,1,-1,-2,-1,2,0,-1
1514879654082283,2,-2,0,-1,0,-1,0,-3
1514879654082283,-1,1,1,0,-2,-4,0,0
1514879654096315,-2,-1,-2,0,-3,-1,1,0
1514879654096315,-2,0,-2,0,-1,0,-2,2
1514879654096315,0,-3,-3,1,-1,0,1,-1
1514879654096315,-1,-2,-2,-2,-2,1,-3,-4
1514879654119308,0,-2,-1,-3,-2,1,-2,0
1514879654119308,-2,-2,-2,0,0,-1,-2,-1
1514879654120311,0,0,-3,-2,0,-1,-1,1
1514879654120311,-3,-2,0,-1,-2,0,0,-2
1514879654141324,-1,-1,-1,1,2,-2,-1,-2
1514879654141324,0,-1,0,0,-2,-1,3,-2
1514879654142326,0,0,-1,0,-2,-1,-1,-1
1514879654142326,-1,-2,-1,-2,-1,-1,-3,-1
1514879654156334,-1,0,-2,-2,0,-1,0,-2
1514879654156334,0,0,-2,-1,-1,-1,-1,-2
1514879654156334,-3,-1,-1,-2,-2,-2,-1,0
1514879654156334,-1,0,-1,-2,-1,0,-2,-2
1514879654179362,-1,0,-1,-1,-2,-2,3,-2
1514879654179362,1,0,0,0,0,-2,-2,-3
1514879654180352,-2,-2,0,-3,-2,-2,1,-1
1514879654180352,0,-2,-2,1,0,-2,-3,0
1514879654201368,-3,0,-1,-1,0,0,-2,-1
1514879654201368,-1,-3,1,1,-1,-2,-2,-1
1514879654202368,0,0,-1,-1,-2,0,-1,1
1514879654202368,-2,-1,0,-2,0,-1,-1,-1
1514879654216376,2,-1,-2,0,-1,-1,0,-1
1514879654216376,0,0,0,-2,-2,-1,-3,1
1514879654217384,-1,-2,-1,0,-3,0,-1,-2
1514879654217384,-2,-2,-2,-1,-1,-2,-1,0
1514879654239395,-1,-2,0,1,0,-2,0,0
1514879654239395,1,-1,-1,0,0,-1,0,-2
1514879654239395,-2,-1,-2,0,-2,-1,-2,0
1514879654239395,-1,1,-1,-3,0,-1,0,0
1514879654261449,1,-4,-1,-1,-4,-1,-1,-2
1514879654261449,-1,-1,-2,0,-3,0,0,-2
1514879654262411,-1,-1,-2,0,0,-1,-3,-2
1514879654262411,-1,0,-2,-1,0,0,-1,0
1514879654275431,-1,-3,-2,0,-2,-2,0,-1
1514879654275431,0,-1,-2,0,-2,-2,-1,3
1514879654276421,0,-1,0,-1,0,-1,2,-4
1514879654276421,0,0,0,-1,-2,0,-2,-2
1514879654299497,-1,0,-2,-1,2,1,1,1
1514879654299497,-2,-2,0,-1,-1,0,0,-4
1514879654299497,-1,-2,0,0,0,-1,0,-1
1514879654299497,0,-2,-2,0,-2,-2,2,-1
1514879654321513,-1,-2,0,-3,-2,-2,1,1
1514879654321513,1,0,-2,0,0,-2,-2,-3
1514879654322501,-2,0,-1,-2,0,-2,-2,1
1514879654322501,-2,-1,0,0,-1,-1,-1,-2
1514879654335511,-1,0,-2,1,-2,-2,-4,-3
1514879654335511,-1,0,0,-2,-1,-1,0,0
1514879654336511,0,-2,0,-1,1,-1,-1,2
1514879654336511,2,-3,0,0,0,0,-2,1
1514879654359527,-3,-3,-2,0,0,-1,-2,-2
1514879654359527,-3,0,-1,-2,1,0,-3,1
1514879654360528,-1,-2,-2,0,-2,0,-1,0
1514879654360528,-4,-2,-3,-2,-2,0,-2,-2
1514879654381546,-1,0,1,-3,0,1,1,-2
1514879654381546,-1,0,0,0,-3,0,2,-1
1514879654382549,-2,-1,-2,-2,-1,-2,-1,-3
1514879654382549,-2,-1,-1,-2,0,-3,0,-2
1514879654395567,0,-1,1,-2,-1,-1,-1,-2
1514879654395567,-1,-3,0,-1,0,-2,1,1
1514879654404577,1,-1,0,-2,-4,-3,-3,-2
1514879654404577,0,-2,-1,1,-3,0,-5,1
1514879654419579,-3,0,-1,-3,0,1,1,-2
1514879654419579,-1,-1,-1,-2,-2,-2,-2,-2
1514879654420571,0,-1,-1,0,-1,-1,0,0
1514879654420571,-1,0,-2,0,-1,-2,3,-1
1514879654441610,-2,-3,-1,-1,-1,-1,0,0
1514879654441610,2,-1,0,0,-1,-2,-4,-1
1514879654443596,-1,0,-2,-1,-2,-1,-2,-1
1514879654443596,-1,-1,-1,-3,-1,-4,0,-1
1514879654455607,1,0,0,0,-2,-3,0,-2
1514879654455607,-1,-1,-2,0,-2,0,2,-2
1514879654464601,-2,-1,1,-1,-1,-2,-2,1
1514879654464601,1,-1,1,-2,0,-1,-1,-1
1514879654479622,-2,-1,-2,-2,-1,-2,-1,-2
1514879654479622,0,-1,-1,0,0,-4,-1,1
1514879654481613,-1,-2,0,-2,-1,1,0,-1
1514879654481613,-1,0,-1,-1,-2,0,-2,-3
1514879654501637,0,0,-2,0,-2,-2,-1,2
1514879654501637,-1,-1,-2,0,-2,-2,-1,0
1514879654503638,-1,-1,-1,-1,1,-2,-3,-1
1514879654503638,0,-2,0,-1,0,-1,-3,0
1514879654516638,-2,-1,-1,-2,-2,-1,-2,1
1514879654516638,-2,-2,-2,0,0,-2,0,0
1514879654524643,0,3,-1,-1,-1,-2,0,-3
1514879654524643,-2,-1,-2,-1,1,0,3,-1
1514879654538653,-1,1,-2,-1,-2,-2,-4,-1
1514879654538653,-1,-2,-1,-1,-1,1,-3,-2
1514879654540657,-2,-1,0,-1,-2,-3,2,0
1514879654540657,0,-1,0,-1,0,-1,-4,-1
1514879654561671,-2,0,1,-1,0,-2,-2,1
1514879654561671,1,-1,-1,-2,-1,-1,1,2
1514879654563692,2,0,-2,-1,-3,0,-2,-4
1514879654563692,-1,-3,0,-2,1,-1,1,-2
1514879654575680,0,-2,0,0,-1,0,-3,-4
1514879654575680,0,-2,-1,-2,-3,-1,-1,-1
1514879654584686,-1,-2,-1,-2,1,0,0,1
1514879654584686,0,0,-2,-1,-2,-4,-1,-2
1514879654598696,-1,0,-2,-1,0,-1,-2,-2
1514879654598696,-1,1,-1,-1,-2,-1,1,1
1514879654600699,1,-3,0,0,-1,1,0,-3
1514879654600699,-2,-1,0,-1,-2,-3,-2,1
1514879654621723,-1,-2,-4,-4,-1,0,-4,1
1514879654621723,-1,0,-1,0,0,-3,1,-3
1514879654623739,-2,-3,-1,0,0,-1,-4,-1
1514879654623739,-2,-1,0,-1,-1,0,-2,0
1514879654635722,-2,-1,0,-1,-3,0,1,-3
1514879654635722,-2,-1,-3,0,-1,-1,-2,-3
1514879654644739,-1,0,0,0,1,-1,-5,1
1514879654644739,-2,-1,-2,-1,-1,0,-1,-2
1514879654658739,-2,-2,-3,-4,-1,-2,0,-1
1514879654658739,-3,-2,0,-2,-2,0,-2,-2
1514879654660741,1,-2,-1,-2,-1,0,3,-3
1514879654660741,2,-2,-1,-1,-1,1,-1,-2
1514879654681778,-1,0,0,0,-1,0,-1,1
1514879654681778,1,0,1,-1,-1,-2,2,-2
1514879654683757,-1,0,-1,-2,-2,-1,-2,0
1514879654683757,0,0,-3,-1,-1,0,-1,0
1514879654694787,-2,-2,-1,1,-1,0,0,-3
1514879654694787,0,-3,-1,2,0,1,-6,-1
1514879654703780,0,-2,-2,-1,-1,-2,-1,0
1514879654703780,-1,-2,-1,-1,-2,-3,-2,0
1514879654726787,3,-2,-2,0,-2,-1,2,0
1514879654726787,-2,0,-1,-1,0,-1,-1,0
1514879654727788,-2,-1,-1,-1,-1,0,-2,0
1514879654727788,-1,-3,0,-2,-2,-1,-1,-2
1514879654741822,3,-1,0,-1,-1,-2,1,0
1514879654741822,0,1,-1,0,-1,-1,1,-1
1514879654743805,-3,-2,-3,-1,-2,-2,-3,-1
1514879654743805,-3,0,-2,-1,0,-4,-1,0
1514879654754819,-1,-1,1,-2,-3,-2,0,-1
1514879654754819,-2,-2,-1,-1,-3,1,-3,1
1514879654763840,0,-2,0,-1,-1,-2,-1,-2
1514879654763840,-2,-2,-3,-2,0,0,1,-1
1514879654778836,1,-2,0,-2,-1,-1,0,-3
1514879654778836,-2,1,-2,-1,-2,-1,0,-4
1514879654781825,-2,-2,-3,0,-2,-1,0,0
1514879654781825,0,0,-2,-1,-3,-2,0,-2
1514879654801851,-2,2,-1,-2,1,0,-3,0
1514879654801851,1,-1,1,-1,-1,-2,-1,-1
1514879654802850,0,0,0,0,-1,-1,-2,-2
1514879654802850,-1,0,-1,0,-1,-1,0,-3
1514879654815850,0,-2,-1,0,1,1,-1,-1
1514879654815850,-2,-1,-1,-1,-3,-2,0,-4
1514879654823874,-3,-1,-1,-2,0,-1,1,2
1514879654823874,-2,-1,-1,-4,-2,1,-1,0
1514879654838868,-1,-1,-1,-1,-1,-1,-2,0
1514879654838868,-2,-2,-1,0,-2,0,-2,-1
1514879654840867,-1,-1,-1,-2,0,0,-1,-1
1514879654840867,-1,-2,-3,1,-1,0,-2,0
1514879654861883,-1,-1,-2,-1,-2,-2,1,2
1514879654861883,0,-1,0,-1,0,-3,-3,-2
1514879654862883,-2,-1,1,-1,0,-1,0,0
1514879654862883,0,-2,0,-1,1,-3,-2,1
1514879654874909,-1,-2,-2,-1,-2,0,-1,-1
1514879654874909,0,-2,0,-1,-1,-3,0,0
1514879654883913,0,0,-2,-2,0,-1,0,-3
1514879654883913,-1,-1,0,-2,0,-1,-3,-2
1514879654898922,-1,-3,-1,-2,-1,0,-1,0
1514879654898922,2,0,-1,-3,-3,0,1,-1
1514879654900911,-2,-1,-3,-2,0,0,-4,1
1514879654900911,-1,0,-1,0,-1,-1,-1,-1
1514879654921937,-2,0,-1,-1,-2,-3,-5,-1
1514879654921937,-3,-2,1,0,1,-1,0,1
1514879654922937,0,-3,0,-2,-3,-2,0,-1
1514879654922937,0,0,0,0,-3,0,-1,0
1514879654934946,1,-2,-1,-1,-2,-1,2,-3
1514879654934946,1,-2,-1,0,-1,-1,-1,-1
1514879654943957,-2,-1,0,-1,1,-2,-3,-3
1514879654943957,-2,-1,-1,-2,0,-1,0,1
1514879654958964,0,0,0,0,-2,-3,-2,1
1514879654958964,-1,-2,-1,-3,0,-2,0,1
1514879654960978,0,-1,0,1,-1,0,0,0
1514879654960978,-1,-2,0,-2,-1,-1,-1,-1
1514879654981981,-2,0,-1,-2,-1,-1,0,-2
1514879654981981,-1,0,-2,1,-2,-1,-1,1
1514879654982978,-3,-1,0,-1,-4,-2,-1,0
1514879654982978,-2,-2,-3,-1,-1,-3,0,1
1514879654995001,-1,1,-2,-2,-2,2,-3,-3
1514879654995001,0,-1,-1,-2,-2,-1,-2,2
1514879655003997,-2,-2,-2,0,0,-1,-1,-3
1514879655003997,-3,-2,1,1,0,-1,-1,-2
1514879655018993,0,-1,0,0,-2,-1,0,-2
1514879655018993,1,0,-1,0,-1,-2,-2,-2
1514879655020994,3,0,-2,-1,-4,-1,0,0
1514879655020994,-1,-3,-3,0,-2,-3,-1,-1
1514879655042019,-1,-2,0,-2,-1,-1,1,1
1514879655042019,0,-1,-1,-1,-1,0,0,-2
1514879655043021,-1,-1,-2,0,-1,-2,-2,-1
1514879655043021,0,-2,-1,-1,-1,-1,0,-2
1514879655064064,-2,-1,0,-1,-2,-1,0,-1
1514879655064064,-3,0,-1,0,-2,-1,0,-2
1514879655066036,0,0,1,-1,0,-1,-2,-2
1514879655066036,-1,-1,-2,-3,-1,0,1,-3
1514879655079036,-3,0,-1,-2,-1,-3,-2,2
1514879655079036,-2,-1,-1,-1,-1,-1,-2,-2
1514879655081037,-2,-1,-1,-2,-1,1,0,-1
1514879655081037,-3,-2,-2,-2,0,2,-2,0
1514879655102070,0,-3,-2,-1,-1,0,2,-2
1514879655102070,1,0,-1,0,-2,0,0,-1
1514879655103070,-1,0,-1,-1,0,-2,-1,-1
1514879655103070,1,0,1,-1,-2,-1,-1,-1
1514879655124077,-2,-1,-1,-1,1,-2,-2,-1
1514879655124077,-2,-2,-1,-3,-2,1,-3,-1
1514879655126078,-1,-2,-1,1,-2,0,-2,-2
1514879655126078,-1,0,0,-1,-2,-2,0,-2
1514879655139090,1,0,-2,-1,-1,-4,2,0
1514879655139090,-1,0,-2,-1,-1,0,-4,-1
1514879655141090,0,-1,-1,-2,-1,-1,-1,1
1514879655141090,-2,0,-3,-1,1,-2,-3,-5
1514879655162103,-2,1,-3,1,-1,0,-2,-2
1514879655162103,-1,0,0,-2,-2,-1,-1,-1
1514879655163094,2,-1,-2,-2,-1,-1,0,1
1514879655163094,-2,-1,-1,-2,-2,0,-3,-1
1514879655184120,-2,-1,1,-2,-1,-2,-1,-3
1514879655184120,-1,-1,-1,-1,0,-1,-2,0
1514879655186121,-2,-1,-2,0,0,-1,-2,-2
1514879655186121,0,-2,-2,-1,-3,0,-1,0
1514879655198134,1,-1,-1,-1,-4,-2,-2,-1
1514879655198134,0,-1,-1,-2,0,0,1,-1
1514879655205134,-1,-1,-2,-2,-1,-2,1,1
1514879655205134,0,-2,1,-2,-1,-1,-3,-1
1514879655221151,1,-1,-1,0,-3,1,-2,0
1514879655221151,-2,0,-1,0,-1,-2,2,-1
1514879655223153,-3,0,-3,-1,0,-1,-1,-1
1514879655223153,-2,-1,-1,-1,-2,-1,0,-1
1514879655244162,-2,-1,0,-1,0,2,-4,-2
1514879655244162,-3,-2,0,-2,-2,-3,-1,-1
1514879655246168,-2,0,-2,-1,0,1,-1,-2
1514879655246168,1,-1,-1,-2,-1,-1,-2,-2
1514879655258173,-2,-2,-3,-2,0,-1,1,-2
1514879655258173,-1,0,0,-1,-3,-1,-2,-2
1514879655273218,-1,-1,0,0,-1,-1,-2,-2
1514879655273218,-2,0,0,0,-1,1,0,-1
1514879655281223,1,-1,-3,0,-2,1,0,1
1514879655281223,0,-1,-3,-2,0,-2,0,-1
1514879655283225,0,-2,-3,-3,0,-1,2,-1
1514879655283225,-1,1,0,0,0,0,-3,1
1514879655304254,1,-1,0,-2,0,0,-1,-3
1514879655304254,-1,-1,-2,-2,-1,-1,-1,0
1514879655305255,-1,-1,3,0,-3,-1,-3,-2
1514879655305255,-1,-2,-3,-1,-1,-1,1,-1
1514879655318271,-4,-1,-2,0,-1,1,-1,-1
1514879655318271,4,0,-2,-1,-2,-1,-1,-2
1514879655325267,-2,-2,0,0,-1,-1,-2,-1
1514879655325267,0,-1,-3,0,-2,-4,1,2
1514879655341281,-3,0,0,-1,-1,-3,-1,1
1514879655341281,-3,-3,0,-1,-1,-1,0,0
1514879655343268,-1,0,-3,-2,-1,0,-2,-1
1514879655343268,-3,-2,0,-1,-1,0,0,-1
1514879655364322,-2,-2,-2,0,-3,-1,1,0
1514879655364322,-4,-1,-2,0,0,-1,0,-3
1514879655365296,-1,1,-2,-1,-2,-1,-1,1
1514879655365296,0,-2,-2,-2,1,-4,-2,-2
1514879655378294,1,0,-2,-2,1,0,-2,-3
1514879655378294,0,-1,1,-1,-2,0,0,0
1514879655385300,-1,-2,-1,-2,-1,0,-2,-4
1514879655385300,0,1,-3,-2,-1,-1,0,-1
1514879655401310,0,-1,-1,-1,-1,0,-1,-1
1514879655401310,-3,-3,0,-1,-1,0,1,-1
1514879655403312,-1,0,-1,-1,-1,-1,0,-2
1514879655403312,-4,-1,-1,-1,0,-2,0,1
1514879655424338,0,-1,0,1,-3,-2,0,-2
1514879655424338,1,2,-1,0,-2,0,-3,-4
1514879655425337,-1,-1,-2,0,-2,-3,0,1
1514879655425337,0,0,-2,-3,0,1,-1,-4
1514879655438335,-1,-2,0,-1,-1,0,-1,-1
1514879655438335,0,0,0,-2,-1,-3,-2,0
1514879655445343,-2,-4,1,-1,-2,-2,2,-1
1514879655445343,0,-1,-2,-2,-4,0,-2,-5
1514879655461391,-1,0,-2,-1,-1,-3,-1,0
1514879655461391,-1,0,-3,-1,-1,1,-2,-1
1514879655463365,-2,-2,-1,-1,-1,1,-1,0
1514879655463365,-3,0,-1,0,0,1,-3,1
1514879655484368,0,-2,-2,-1,-1,-2,-4,-2
1514879655484368,1,-1,-1,-1,-1,0,-2,0
1514879655485370,0,-2,-2,0,-1,-2,-2,-3
1514879655485370,1,-2,0,-1,0,-1,0,0
1514879655498386,-3,-1,-1,-3,-2,0,1,-2
1514879655498386,-2,-1,-2,0,-2,-1,-2,0
1514879655505392,-1,-2,0,-1,1,0,-1,-3
1514879655505392,-1,-2,-2,0,-3,-1,-1,0
1514879655521404,0,-2,-2,-1,-1,0,-2,2
1514879655521404,0,-1,0,-1,-2,0,1,-1
1514879655523405,1,-1,-1,-1,0,-1,1,1
1514879655523405,-1,-2,-2,-2,1,-2,-2,-3
1514879655544438,-2,0,-1,-2,0,-1,2,-2
1514879655544438,-2,-2,-1,0,-2,-1,3,-2
1514879655545417,0,-1,-2,-1,-2,0,-2,1
1514879655545417,-1,-3,-2,-1,0,-1,-2,0
1514879655557420,2,0,-2,-2,-3,-1,-2,-4
1514879655557420,-2,-1,0,-1,-1,1,-1,0
1514879655574443,-3,1,-1,-2,0,-1,-1,-1
1514879655574443,-2,-1,0,-2,-2,1,-1,-3
1514879655581458,-2,-2,0,-1,0,-2,-2,-4
1514879655581458,0,-1,1,0,0,-2,-1,0
1514879655583437,-1,0,-2,0,0,-1,-4,-1
1514879655583437,-1,-2,-1,-1,0,-1,-1,3
1514879655604465,-2,-1,1,-2,-2,1,-1,0
1514879655604465,1,1,-1,-1,-3,-2,2,1
1514879655605453,-2,-2,-2,-2,1,0,1,0
1514879655605453,1,0,0,0,-1,-2,-2,-3
1514879655617461,-2,-1,-2,-2,-2,-1,-2,0
1514879655617461,0,-1,0,-2,0,-1,-1,-3
1514879655626468,0,0,0,-1,-1,-1,-2,0
1514879655626468,-2,-1,-2,-2,-2,-1,-1,-4
1514879655641478,-4,-2,-1,0,-2,1,0,-1
1514879655641478,-4,-1,-3,-2,-2,-2,-1,-2
1514879655643480,-1,-1,-3,0,-2,-2,-2,-3
1514879655643480,-2,-2,-2,-1,1,-3,1,0
1514879655664495,2,-1,1,-1,-2,-2,-1,0
1514879655664495,-4,-2,-1,-1,0,-1,-3,-6
1514879655665496,-2,-1,0,-1,-1,-3,-1,0
1514879655665496,-1,0,0,-1,-2,-1,-1,0
1514879655677504,0,-1,-2,0,-2,-1,-1,0
1514879655677504,-1,0,-2,-2,-2,-1,0,0
1514879655686511,1,-2,0,-1,0,0,0,-1
1514879655686511,-3,-2,0,-2,0,0,-1,-1
1514879655701542,0,-1,-1,-1,0,2,0,0
1514879655701542,-1,-1,0,0,-3,-2,-1,-1
1514879655703523,-1,-1,-3,-2,-3,-2,-2,-1
1514879655703523,0,0,-1,-2,-3,-2,-1,-2
1514879655723550,0,0,-1,0,0,-2,0,-1
1514879655723550,0,-1,-1,-1,1,0,-1,-1
1514879655725538,-4,-2,-2,-1,-2,-1,0,-3
1514879655725538,1,0,-2,-1,0,0,-1,1
1514879655737604,-1,-1,-2,-1,-2,-3,-1,-1
1514879655737604,-1,0,-1,0,-3,-1,0,0
1514879655746553,-2,0,-1,-2,-2,-3,-1,-1
1514879655746553,-2,0,-1,-3,-3,-2,-2,-3
1514879655761566,-2,-1,-2,0,-1,-2,1,-2
1514879655761566,-1,-1,-2,0,-1,1,-3,0
1514879655763568,-1,-2,0,-1,0,0,0,2
1514879655763568,-2,-1,-1,0,-3,-2,-1,-1
1514879655784591,-2,0,0,-3,-1,-2,-2,0
1514879655784591,0,2,-2,-1,0,0,1,0
1514879655785580,0,0,-1,-2,-1,-3,-3,-1
1514879655785580,1,-1,-1,-2,0,0,0,0
1514879655797592,-2,-2,0,-3,-5,1,-1,-1
1514879655797592,-2,-1,0,-2,-1,0,-3,-2
1514879655806595,-2,-1,-1,-1,-2,1,-3,-2
1514879655806595,-2,-1,-4,-1,1,0,2,1
1514879655821615,0,0,-1,0,-2,-4,-1,-2
1514879655821615,0,-2,-2,-2,1,-4,1,1
1514879655822616,-3,-1,-1,-1,-2,0,0,-2
1514879655822616,-1,-1,0,-2,-1,-1,-3,-2
1514879655843636,1,-1,0,-1,-1,-2,1,-2
1514879655843636,0,-1,-2,1,-2,-3,-1,-3
1514879655845633,0,-2,-1,-2,0,-1,-1,-1
1514879655845633,0,-1,-3,-2,-1,-1,0,1
1514879655857644,1,-2,-1,0,0,-1,-2,-2
1514879655857644,-1,0,-1,-3,-2,0,3,-4
1514879655866638,0,-2,-3,-3,-1,-2,-3,0
1514879655866638,-1,-1,-2,1,-1,-2,-3,-1
1514879655881648,-1,-2,-2,-2,-1,0,1,-4
1514879655881648,-1,-2,-2,1,-2,-1,-2,3
1514879655882663,-2,1,1,0,1,0,-1,-2
1514879655882663,-1,-2,0,-1,-2,0,1,-3
1514879655904680,-2,0,-4,-2,0,-1,0,2
1514879655904680,-2,0,0,-1,-1,-1,-3,2
1514879655905666,-1,-2,-2,-1,0,-3,0,-1
1514879655905666,-4,-1,-1,-1,-1,-2,-4,-2
1514879655918677,-1,-1,0,1,-2,0,-3,-1
1514879655918677,-1,-1,-2,-2,-2,-2,-3,-1
1514879655926690,-2,-1,1,-1,-1,0,-1,0
1514879655926690,2,-1,1,-2,-2,1,0,0
1514879655941701,-2,0,-2,-2,-2,-1,-1,-1
1514879655941701,0,-2,-1,-2,0,-1,-4,1
1514879655942702,0,0,-2,-3,0,-1,-1,-4
1514879655942702,0,-1,-1,-1,-1,-1,0,-1
1514879655963728,-1,-2,-2,-1,0,-3,-2,1
1514879655963728,-3,0,0,-1,-2,-1,1,1
1514879655965708,-2,-1,-1,-1,0,-1,-1,-1
1514879655965708,1,-2,-3,-1,-1,0,-1,-2
1514879655986732,0,-1,0,-1,-1,1,-1,-5
1514879655986732,-1,0,-1,0,0,-2,-2,-2
1514879655988724,1,-1,-2,-3,-3,-2,0,-1
1514879655988724,-1,-2,-1,-1,-2,-3,0,1
1514879656001744,-2,-1,0,0,-2,0,0,-1
1514879656001744,0,-1,0,-1,-2,-1,-2,-1
1514879656002733,0,0,-1,-1,-2,-2,-1,2
1514879656002733,-2,0,-1,-3,0,-1,0,-1
1514879656023758,-1,0,0,-1,0,-2,-1,1
1514879656023758,-2,-1,-1,-2,0,0,0,-2
1514879656025751,0,-4,-1,0,-1,-1,-2,-2
1514879656025751,0,1,-2,-3,-1,-2,1,-2
1514879656046787,0,0,-1,-1,-3,-2,-1,1
1514879656046787,-1,0,-1,-1,-1,-1,-3,-1
1514879656047775,0,-1,-1,-1,-1,0,1,-3
1514879656047775,-3,-2,-1,-1,-2,-3,-1,0
1514879656061788,0,-1,-2,-1,1,-1,0,-2
1514879656061788,0,-1,-2,-1,-1,-1,-2,-2
1514879656062778,-1,0,-1,-1,-1,0,1,0
1514879656062778,1,-1,-1,1,-3,0,-1,1
1514879656083791,-1,-1,-1,-1,0,-1,0,3
1514879656083791,0,0,-1,-1,-3,-1,1,-3
1514879656085793,-3,0,-3,0,0,-2,-3,-3
1514879656085793,0,0,-2,-2,-1,0,0,0
1514879656114813,-2,-1,-1,-1,0,-1,1,3
1514879656114813,-1,1,0,0,-1,-1,1,-2
1514879656117818,0,-1,0,-3,0,-1,-2,-3
1514879656117818,0,-2,-1,-1,-1,-2,-3,-3
1514879656120817,-3,-2,-1,-1,-3,0,0,-1
1514879656120817,0,-3,0,-1,-1,-3,-1,1
1514879656127824,-1,0,0,-1,-1,-1,-2,2
1514879656127824,-4,-2,-2,-1,0,-1,-3,0
1514879656143833,0,-1,-1,0,-1,-1,-1,-2
1514879656143833,-1,-1,-3,1,-2,-2,-1,-2
1514879656145857,0,-2,-3,1,-1,-2,-1,0
1514879656145857,0,-1,0,-2,0,-2,0,0
1514879656166873,-1,-2,0,0,-2,-2,2,-1
1514879656166873,1,-3,-1,-2,0,0,0,1
1514879656167850,-3,-1,-4,-1,0,-2,-1,3
1514879656167850,0,-2,-2,0,-2,-1,-2,-3
1514879656180882,0,0,-1,-3,-2,-2,-2,-4
1514879656180882,-1,-1,-1,-1,-2,-2,-1,-3
1514879656187865,0,0,0,-2,-4,-2,-2,-1
1514879656187865,-3,-2,-1,-3,-1,-3,-2,-4
1514879656203896,-2,1,-1,-1,-2,0,0,0
1514879656203896,0,-1,-1,2,-3,0,1,1
1514879656205898,0,-1,-1,-1,1,0,-2,2
1514879656205898,-1,-2,-2,2,1,1,-3,-1
1514879656227908,1,-1,-1,-1,-3,-2,-2,-2
1514879656227908,-1,0,0,-4,-1,-3,-1,-2
1514879656230905,-2,-1,-2,4,5,2,-2,1
1514879656230905,0,-2,-1,-3,-3,-2,0,1
1514879656240913,1,-2,-4,-2,0,0,-2,-2
1514879656240913,0,-2,-3,-3,-3,-1,-1,-1
1514879656247909,-3,-1,1,-3,-4,-3,0,-3
1514879656247909,0,1,1,-2,0,-3,-2,0
1514879656263928,0,0,-2,-1,0,-1,-1,1
1514879656263928,0,-2,-2,0,-1,1,0,-1
1514879656265929,-1,-2,-2,-2,-2,-1,1,-3
1514879656265929,0,-1,-2,-1,-3,-3,-1,0
1514879656286944,-3,1,3,-3,-2,-1,-1,-1
1514879656286944,-3,-1,-4,-4,-7,-4,-4,0
1514879656287950,2,-5,-9,16,13,3,-1,-3
1514879656287950,-4,-1,8,-6,-6,-2,-2,-1
1514879656300944,-3,-1,-3,-5,1,-1,-4,-2
1514879656300944,-2,0,21,-27,-7,-3,-3,-2
1514879656307959,-1,1,8,42,3,0,-2,1
1514879656307959,3,3,8,3,10,5,3,-1
1514879656323981,-1,-6,-39,-6,0,-3,-2,1
1514879656323981,-3,6,37,4,1,0,0,-2
1514879656325963,-7,-3,-6,-28,-12,-3,-4,0
1514879656325963,-3,1,15,2,-2,-1,-1,-1
1514879656346997,-1,-2,16,2,-1,2,1,-1
1514879656346997,2,-3,-23,-1,2,-2,-1,0
1514879656347979,1,0,0,-4,-3,-1,0,-5
1514879656347979,1,-2,-12,0,-3,-1,-1,1
1514879656360988,1,-2,9,-4,-3,0,-1,0
1514879656360988,-3,-7,-16,6,-1,-1,-4,-1
1514879656368012,-3,0,0,-9,-1,-2,-1,1
1514879656368012,-1,-2,-2,-7,-3,-1,-1,-3
1514879656383017,-3,-2,-5,8,0,-3,-1,-1
1514879656383017,3,3,5,-14,-6,-2,-1,0
1514879656392010,-2,0,8,38,6,-1,-1,-1
1514879656392010,0,1,-27,-35,-8,-1,-1,0
1514879656406034,-2,-2,18,28,6,0,-2,-2
1514879656406034,-1,-3,-14,3,10,3,5,-3
1514879656408021,1,0,1,-12,-9,-2,0,-2
1514879656408021,0,3,-4,7,1,-3,-1,-2
1514879656421044,0,-3,1,-17,-2,-2,-2,1
1514879656421044,-2,-2,-1,3,-6,-3,-4,-1
1514879656428036,2,6,-4,-14,-1,1,-1,-2
1514879656428036,-3,0,16,10,2,2,0,-2
1514879656444060,0,12,-6,-8,0,1,-3,0
1514879656444060,5,-14,12,12,-1,-1,0,0
1514879656446061,-6,-6,-18,-11,-4,-1,-2,-2
1514879656446061,-1,-8,-16,-9,-1,-2,-4,0
1514879656467063,-2,5,-4,1,-1,-4,1,-4
1514879656467063,-1,3,-7,6,1,0,-4,1
1514879656468077,2,-2,5,-10,-9,-3,0,-1
1514879656468077,-1,-1,-10,2,1,-3,0,-1
1514879656480085,1,-5,2,7,-2,1,0,-1
1514879656480085,-2,2,-10,3,3,1,-1,-1
1514879656489078,3,-3,1,-12,-5,-4,-1,1
1514879656489078,-4,-3,5,-3,-1,-3,-3,0
1514879656504100,0,1,5,5,5,3,5,0
1514879656504100,1,-2,-6,-7,-5,-2,0,-3
1514879656506093,-2,-1,-2,4,1,-1,0,0
1514879656506093,-2,-5,-3,-10,-3,-1,-1,1
1514879656526108,2,2,-9,8,-2,-3,-4,-1
1514879656526108,-3,0,-2,-11,-6,-1,2,-1
1514879656529107,1,1,1,4,1,-1,1,0
1514879656529107,-5,-1,2,8,-2,2,0,-1
1514879656540113,4,-5,-7,-8,-5,-3,-4,-2
1514879656540113,0,5,-5,7,4,1,-2,-2
1514879656557141,-1,1,-5,-12,-4,-2,-4,-1
1514879656557141,3,0,13,9,-1,-1,-1,-2
1514879656564157,-10,-4,-6,0,2,0,0,1
1514879656564157,1,-3,3,-5,-9,-2,-3,-3
1514879656566143,6,-4,11,2,2,-1,-1,-4
1514879656566143,-8,-5,-15,0,-2,0,-2,-2
1514879656586156,-3,-4,14,-11,-5,-3,-2,-6
1514879656586156,12,8,4,4,0,0,0,4
1514879656588147,-29,-5,-24,-5,1,1,-1,-3
1514879656588147,1,-2,-3,-1,-1,-1,0,-1
1514879656601176,3,2,3,1,-4,0,0,1
1514879656601176,-9,-1,2,-1,0,0,0,-1
1514879656609170,9,0,4,-5,0,-1,-3,1
1514879656609170,-1,-1,-3,4,0,-1,0,-1
1514879656624193,2,2,-11,-5,-1,-1,0,0
1514879656624193,1,3,10,2,1,0,-4,-1
1514879656626194,-8,-4,2,-1,-3,-1,0,1
1514879656626194,5,-5,10,3,-1,0,1,-6
1514879656646208,6,-5,0,-3,-2,-1,0,0
1514879656646208,-21,-5,-4,4,-2,-2,0,-3
1514879656648195,-7,1,-4,-7,-3,-3,1,0
1514879656648195,4,-1,-10,4,0,-1,-4,-1
1514879656660209,-5,9,11,2,-2,2,1,-2
1514879656660209,-5,-8,-31,-13,-2,-2,0,-3
1514879656669205,9,1,24,17,-1,-2,-2,-1
1514879656669205,7,-1,-29,-10,-1,-1,1,1
1514879656684215,7,5,4,0,-1,-1,0,0
1514879656684215,11,-4,-2,2,-1,-1,-3,0
1514879656686221,-20,-8,-30,-17,-4,-5,2,-2
1514879656686221,19,4,3,0,-1,-1,0,0
1514879656706240,-45,-11,-3,-5,-3,-2,0,-4
1514879656706240,-14,-8,7,1,1,-3,-3,2
1514879656708242,22,6,6,3,1,0,-4,-1
1514879656708242,-13,-3,5,-5,-2,-2,-1,0
1514879656720251,7,1,-3,-2,-3,1,-1,0
1514879656720251,-1,4,1,2,0,0,-4,-3
1514879656729260,-2,-6,-1,-2,0,1,-4,-1
1514879656729260,12,8,8,2,-2,0,0,2
1514879656744266,-19,-7,-3,-2,-1,-4,-4,-4
1514879656744266,14,2,-7,-1,2,0,2,2
1514879656745258,5,2,10,0,-1,0,-1,-4
1514879656745258,4,-1,9,-3,-3,-4,-4,-2
1514879656766307,11,9,-12,9,-1,-1,1,2
1514879656766307,-29,-16,-10,-7,-3,-4,-2,-2
1514879656768278,-18,-8,-10,-12,-3,-3,-16,2
1514879656768278,10,13,8,-2,1,1,24,5
1514879656780306,-5,-2,-10,4,-2,-3,-2,-2
1514879656780306,20,9,-1,7,2,1,-2,1
1514879656789299,-5,-2,-3,1,1,1,-1,0
1514879656789299,-10,-13,10,1,0,-3,-5,-6
1514879656804310,-9,-5,-13,-9,-4,-2,-7,-1
1514879656804310,11,0,4,-2,2,-2,6,-1
1514879656805311,-1,-3,3,-3,0,0,-1,0
1514879656805311,9,8,-6,3,0,0,-3,2
1514879656826325,11,-2,8,1,-2,-1,1,0
1514879656826325,-20,-1,6,0,-3,0,-4,-6
1514879656828327,22,2,3,-1,0,1,1,4
1514879656828327,-23,-3,-3,3,-2,1,-6,0
1514879656840335,3,-4,15,8,5,0,-3,0
1514879656840335,27,-2,-1,-18,-7,-4,-1,-1
1514879656849333,5,4,11,9,1,1,5,2
1514879656849333,0,6,-1,-6,-6,-1,-8,0
1514879656864382,19,3,13,-4,-1,0,2,1
1514879656864382,-35,-12,-15,9,3,-1,3,-2
1514879656865354,-20,9,16,1,1,0,-2,2
1514879656865354,-2,-11,-29,-12,-7,-5,2,-6
1514879656886358,10,-1,21,5,1,2,-4,-6
1514879656886358,-9,2,38,8,1,5,-2,7
1514879656888369,10,-5,-47,-7,-4,-4,-17,-5
1514879656888369,-45,-3,1,6,3,1,20,1
1514879656900378,-14,-2,11,-4,-1,-4,-8,-7
1514879656900378,-10,-1,-17,10,-4,-4,-5,-7
1514879656909390,-1,5,16,1,1,0,5,3
1514879656909390,-20,-9,-5,0,-2,-4,-35,-7
1514879656923394,8,7,24,20,6,7,17,6
1514879656923394,36,4,-15,-30,-4,-4,-16,5
1514879656930400,-25,-7,-27,-16,-6,-2,-2,-7
1514879656930400,6,4,8,-2,2,-1,8,3
1514879656946434,7,-12,-23,0,-2,0,-1,5
1514879656946434,-3,27,42,20,5,-2,6,1
1514879656948411,22,-9,30,3,2,-4,-35,-16
1514879656948411,21,-13,-21,-5,0,10,63,15
1514879656969417,-15,-3,-34,-18,-6,-6,-48,-14
1514879656969417,26,3,28,31,11,12,45,24
1514879656970423,6,11,8,-25,-4,-4,34,2
1514879656970423,1,-10,5,17,-1,1,-39,-5
1514879656984430,8,20,37,4,-1,-6,-16,-4
1514879656984430,2,7,1,-4,-2,1,7,2
1514879656985429,31,12,24,-5,-3,1,-9,-11
1514879656985429,-26,-41,-97,0,-4,-5,-19,-5
1514879657006443,16,17,-8,-17,-2,-4,19,7
1514879657006443,-24,-21,23,-1,4,1,-20,0
1514879657008454,-32,-1,19,26,7,2,8,-9
1514879657008454,21,46,99,1,8,7,9,17
1514879657029466,-28,-57,-97,-42,-22,-9,6,0
1514879657029466,19,12,26,40,1,-9,-14,-17
1514879657030474,-16,-11,-31,-38,3,4,-7,-2
1514879657030474,12,-5,23,21,-20,-10,6,-5
1514879657044479,-38,-8,-17,-16,7,2,15,-2
1514879657044479,-11,-2,-2,-1,-3,-3,-14,-1
1514879657045480,6,-3,-30,22,3,3,16,17
1514879657045480,1,2,38,9,1,-9,-26,-20
1514879657066509,26,2,4,0,1,2,5,-3
1514879657066509,-10,-9,-45,-42,-8,0,13,9
1514879657068495,31,12,2,9,-5,-8,-21,-9
1514879657068495,3,-1,-22,-20,-1,1,0,0
1514879657089509,15,7,-3,-1,-4,0,6,-6
1514879657089509,-17,4,36,13,1,-2,-1,-19
1514879657090517,28,-13,-39,-23,-11,-5,11,5
1514879657090517,3,11,18,4,9,6,-3,13
1514879657103524,22,7,21,16,2,-4,-25,-26
1514879657103524,11,1,-37,-13,2,5,5,16
1514879657110529,1,16,76,30,-1,1,-2,1
1514879657110529,6,-8,-76,-10,-1,-5,1,3
1514879657126528,-1,-12,18,-9,-2,-1,-12,-13
1514879657126528,-12,-10,-52,-19,4,4,-5,-7
1514879657128529,-22,-25,-7,-1,-13,-11,-8,-8
1514879657128529,0,17,-29,-13,-9,-7,-9,-8
1514879657149550,-4,9,40,20,7,10,15,13
1514879657149550,6,0,-14,-20,-10,-7,-5,7
1514879657150549,-35,-11,-24,11,6,4,6,9
1514879657150549,18,3,59,13,2,0,-17,-22
1514879657164573,9,9,-33,-23,-5,-2,9,6
1514879657164573,55,29,11,0,1,4,2,1
1514879657170570,-37,-43,16,10,2,-3,-18,-3
1514879657170570,15,2,-14,-16,-1,1,10,4
1514879657186570,-19,12,29,28,2,-1,5,-3
1514879657186570,-8,1,7,-6,-4,-1,-2,3
1514879657188583,29,22,-24,2,8,4,2,-25
1514879657188583,-9,-16,-32,1,-5,-4,0,-14
1514879657208595,-19,-7,42,7,-2,-5,-7,2
1514879657208595,-23,-24,-82,-38,-10,-10,-12,-17
1514879657210588,13,-5,-10,-20,-5,-3,6,9
1514879657210588,-34,-8,50,11,-8,-8,-6,-18
1514879657223596,-18,-21,-56,-12,-2,1,11,20
1514879657223596,26,19,10,3,-8,-7,-9,-8
1514879657230602,-20,26,8,17,3,5,6,3
1514879657230602,12,24,58,2,3,4,12,12
1514879657246630,-13,-45,-61,-19,-14,-10,-7,-16
1514879657246630,7,-57,64,7,0,5,17,23
1514879657247616,13,37,-56,-38,-8,-2,10,8
1514879657247616,22,38,17,16,1,-2,-2,-6
1514879657268651,-30,-23,30,14,-1,-2,-8,-6
1514879657268651,0,-21,-57,-11,3,1,-6,-4
1514879657270630,21,19,12,2,-4,1,22,1
1514879657270630,-12,-26,5,-6,3,3,-7,5
1514879657283656,45,41,36,16,9,5,-11,4
1514879657283656,19,-11,-6,-1,-2,2,17,10
1514879657290645,10,21,24,28,1,-4,-19,2
1514879657290645,-22,-9,-41,-36,-3,1,-3,3
1514879657306655,2,-6,-16,-3,-2,1,14,10
1514879657306655,27,41,31,-2,-7,-8,-19,-9
1514879657307656,-32,29,-15,3,5,4,9,-3
1514879657307656,-58,-72,-12,-25,-11,-11,-3,-13
1514879657328672,-17,-8,28,15,23,6,-5,1
1514879657328672,-20,10,-48,-25,-17,-14,-25,-18
1514879657331674,30,5,76,26,8,5,4,4
1514879657331674,1,69,-28,15,-5,4,2,-2
1514879657343694,5,-50,22,-15,-8,-5,-12,-14
1514879657343694,-30,17,-40,-13,-1,-2,1,-7
1514879657349695,26,10,-13,-11,1,-1,-17,12
1514879657349695,14,23,22,20,2,-1,-7,-2
1514879657366707,-3,9,8,13,-3,-1,13,2
1514879657366707,-26,17,47,31,15,12,-5,6
1514879657368701,-2,-45,-29,-30,-16,-10,7,-9
1514879657368701,-4,-13,-1,-4,2,3,-2,10
1514879657388723,19,-51,8,-3,1,1,1,11
1514879657388723,-92,45,14,13,-15,-18,-22,-36
1514879657390715,14,-19,-34,-24,4,6,1,16
1514879657390715,24,31,36,25,3,2,11,-10
1514879657403724,14,19,-6,-35,-20,-6,9,-28
1514879657403724,-1,-53,-26,25,24,10,-6,20
1514879657409741,-72,22,38,27,-1,-8,-8,5
1514879657409741,-64,-85,-54,-49,-15,-6,6,-1
1514879657426752,28,29,3,43,6,2,8,24
1514879657426752,-48,25,-2,-38,-16,-12,-3,-42
1514879657427753,34,43,-8,15,1,-2,-2,38
1514879657427753,45,-62,6,-8,9,1,1,8
1514879657448768,-46,90,-7,13,9,3,-3,-5
1514879657448768,49,-86,10,39,-1,-4,-11,7
1514879657450774,37,31,-49,-17,0,11,24,8
1514879657450774,7,-24,18,-12,-5,-2,-10,-14
1514879657462777,33,13,7,0,-3,-5,-7,-6
1514879657462777,-6,-8,3,9,0,1,0,-7
1514879657471773,-25,-92,-15,-12,-2,-6,-4,-25
1514879657471773,6,22,-3,-4,-3,-2,-2,-5
1514879657492798,37,-72,-26,-17,-6,-5,-9,-1
1514879657492798,11,52,12,-21,-5,6,23,25
1514879657501805,16,20,23,-18,-1,-3,1,-12
1514879657501805,2,-14,-29,31,12,10,13,15
1514879657516813,-28,32,-8,-37,-14,-11,-15,10
1514879657516813,47,5,47,41,17,10,18,-13
1514879657517821,-70,-70,-17,3,-1,-4,-11,-27
1514879657517821,12,95,8,-27,-11,1,26,25
1514879657522809,14,-38,-7,24,-4,4,1,-15
1514879657522809,-20,-56,22,-17,-1,4,2,6
1514879657531824,36,1,-23,-47,-11,-4,-7,-15
1514879657531824,65,82,21,52,17,2,-2,12
1514879657546863,-68,-15,5,-4,-6,-7,-13,8
1514879657546863,-19,-40,9,-28,-15,-3,12,32
1514879657547833,-25,49,18,-1,-2,-7,-23,-23
1514879657547833,2,-55,-3,11,19,12,13,14
1514879657568841,1,19,-10,4,-3,0,0,-5
1514879657568841,47,80,36,23,13,4,0,37
1514879657570855,-76,-55,-16,-40,-19,-8,-18,5
1514879657570855,34,4,-17,-3,-1,-2,10,-3
1514879657582864,-45,9,43,13,7,1,-7,-14
1514879657582864,-20,-35,-25,-9,-6,-4,-7,-1
1514879657591856,-17,9,-11,-8,-14,-5,5,-13
1514879657591856,-23,-40,-30,-5,2,-8,-18,35
1514879657606877,12,12,0,-10,-10,-3,16,-15
1514879657606877,4,15,-12,2,-2,3,9,5
1514879657607881,27,0,-3,4,-6,-2,-3,-13
1514879657607881,13,24,-2,42,2,1,-4,-5
1514879657628892,-65,-38,-26,-21,-6,1,3,-30
1514879657628892,7,-19,3,-18,-8,-11,7,-1
1514879657630893,-12,10,-3,-7,10,7,5,-20
1514879657630893,29,14,1,22,6,0,-9,30
1514879657642893,-46,-53,4,-3,-2,-5,7,-22
1514879657642893,-24,57,-32,-18,-8,-8,-18,-12
1514879657651911,-38,-89,32,47,8,-1,-10,-21
1514879657651911,8,30,27,-33,-12,-4,20,21
1514879657666922,49,-68,-34,-5,-3,-1,-8,8
1514879657666922,-28,-23,-10,9,17,6,-1,-28
1514879657667911,44,46,36,-41,-9,-1,10,29
1514879657667911,-24,-14,-15,84,19,-4,-6,-8
1514879657689926,42,103,-15,-1,3,5,-3,-2
1514879657689926,17,18,15,3,-12,-8,-4,27
1514879657690935,15,-6,1,-28,-2,-1,-3,48
1514879657690935,-32,-50,4,-25,-7,0,-8,-61
1514879657711997,25,31,29,-7,6,3,-10,35
1514879657711997,-56,-52,-48,6,-13,-8,-8,-42
1514879657714005,10,-15,15,33,13,3,4,22
1514879657714005,-7,-12,-7,-43,-21,-10,2,-15
1514879657727008,17,4,1,-2,7,3,-3,44
1514879657727008,0,-11,8,-18,-5,-1,6,-36
1514879657728008,10,20,-14,10,2,-4,-9,-10
1514879657728008,11,-112,10,4,-9,5,12,-55
1514879657749023,-25,-4,-13,-5,1,1,7,8
1514879657749023,31,-15,15,4,4,4,3,27
1514879657751026,24,71,0,12,1,-3,1,-31
1514879657751026,13,80,-22,-28,-5,-4,-14,-19
1514879657763046,10,-37,-4,-4,-8,-7,5,42
1514879657763046,3,-11,23,24,12,4,-2,-9
1514879657778048,5,-25,-17,21,3,5,8,5
1514879657778048,-10,39,0,-41,-16,-6,-20,10
1514879657794071,27,42,-7,11,1,-3,10,-3
1514879657794071,-5,7,-13,-40,-5,-4,-15,-31
1514879657796057,-4,-14,-16,42,0,-1,17,14
1514879657796057,-31,21,1,-31,-12,-11,-17,34
1514879657809078,27,-6,7,-4,3,1,-1,-15
1514879657809078,11,24,-9,0,1,0,1,2
1514879657811083,-23,-24,-29,-37,-17,-7,-5,-10
1514879657811083,-15,-18,-10,-11,4,-1,-17,10
1514879657831081,22,15,19,35,6,2,0,7
1514879657831081,-21,-6,-5,-18,-9,3,13,-16
1514879657833083,-9,19,30,22,5,-2,-15,-11
1514879657833083,20,15,15,1,5,5,5,-6
1514879657846150,20,12,-18,-17,-1,-1,-16,-22
1514879657846150,6,48,9,20,5,-2,-7,-19
1514879657848093,26,-41,14,1,-2,0,-1,-1
1514879657848093,-33,-41,-3,14,1,1,-3,-13
1514879657869121,-28,30,13,-6,5,-1,-7,-17
1514879657869121,18,-17,-10,9,1,-1,-4,25
1514879657870109,14,25,-1,-2,-1,2,9,9
1514879657870109,-24,-1,-1,-15,3,-2,3,16
1514879657891199,5,4,11,29,0,4,2,-26
1514879657891199,1,-15,-5,-29,-8,-2,3,25
1514879657894128,-24,-50,-9,-13,5,-2,3,9
1514879657894128,31,6,1,17,-5,-3,4,-28
1514879657906153,-9,-33,-11,9,1,6,1,-12
1514879657906153,-5,28,-8,7,4,-3,-7,7
1514879657908149,29,5,30,-11,-4,-2,-13,-24
1514879657908149,-14,-16,-21,36,5,7,16,-31
1514879657929155,9,30,1,-13,-11,-5,1,20
1514879657929155,-34,-35,-18,8,-1,0,6,0
1514879657931156,16,-51,-4,2,3,-4,-11,-27
1514879657931156,-20,40,-4,-65,-23,-12,-9,-7
1514879657952169,-20,-43,5,19,14,-5,10,26
1514879657952169,10,0,-2,9,-4,-2,-17,-24
1514879657954169,-7,-22,-16,-21,-8,-2,12,20
1514879657954169,11,-13,-13,34,14,3,-11,1
1514879657966190,4,-1,-60,-34,-13,-1,4,-14
1514879657966190,24,19,25,14,3,-2,-5,4
1514879657968193,-74,30,-6,-18,2,2,-4,-10
1514879657968193,44,-4,24,12,4,-3,0,9
1514879657989193,-67,-52,-4,-2,-5,1,-3,-11
1514879657989193,9,-19,-10,6,0,-1,6,-11
1514879657990194,12,37,5,-29,-3,-4,-18,12
1514879657990194,15,3,-6,24,5,0,7,1
1514879658011210,25,31,17,-16,3,-1,-12,21
1514879658011210,-11,-16,27,-5,-2,0,-12,54
1514879658013210,-27,-6,-11,29,0,0,18,-41
1514879658013210,1,-46,12,-19,-2,0,3,16
1514879658026237,1,-37,-4,13,-4,-4,-7,-3
1514879658026237,-11,-17,-14,-19,-4,1,10,-21
1514879658032237,24,40,10,16,3,-2,-3,18
1514879658032237,-1,18,-32,-17,-2,-2,-3,11
1514879658048248,9,18,12,0,5,-1,1,-12
1514879658048248,-4,-16,8,10,10,9,13,1
1514879658056250,-5,-2,1,-3,-3,3,8,-4
1514879658056250,-23,-8,-4,16,5,2,-4,-7
1514879658071251,15,44,-8,-35,-9,-6,-2,-9
1514879658071251,7,7,-12,8,2,-4,0,27
1514879658073252,-23,-45,-11,0,-3,1,-2,49
1514879658073252,-28,-2,3,-7,-1,-4,3,-4
1514879658086263,4,-27,9,-10,-9,-5,-2,-16
1514879658086263,-13,36,22,2,4,-2,-4,0
1514879658093302,9,-19,-48,12,0,0,1,13
1514879658093302,5,13,12,-20,-7,0,-8,-6
1514879658109290,3,5,14,14,4,1,12,32
1514879658109290,4,7,-6,-13,-6,-3,-10,-17
1514879658110290,-17,2,28,17,6,4,-6,-20
1514879658110290,-29,-25,-17,-16,-9,-5,0,32
1514879658131315,20,13,3,32,7,3,-1,-13
1514879658131315,6,17,0,6,-1,1,-7,-12
1514879658133308,12,21,19,-7,-3,-3,3,1
1514879658133308,7,10,3,18,8,0,-7,-28
1514879658146323,-27,9,-4,-11,-7,-1,-4,-6
1514879658146323,11,-31,-30,-6,-3,-2,6,4
1514879658152330,20,13,-4,1,0,2,2,-12
1514879658152330,-35,6,16,-9,-4,-1,-1,-3
1514879658169333,-2,0,-7,-1,2,1,0,3
1514879658169333,-13,-11,-5,-22,-11,-3,14,0
1514879658170322,3,8,9,35,12,1,-8,12
1514879658170322,21,8,7,-5,-5,0,-10,9
1514879658191336,-16,-3,2,-7,-4,0,7,-10
1514879658191336,4,12,-21,4,0,-2,1,7
1514879658194361,-4,-17,10,-37,-14,-4,0,5
1514879658194361,11,10,1,8,5,1,6,-19
1514879658205357,10,-39,0,23,2,1,-4,3
1514879658205357,19,41,6,-5,1,-1,-4,-1
1514879658215362,26,3,-23,-2,-5,-5,-3,-2
1514879658215362,0,4,33,-20,-5,-2,-7,-10
1514879658229376,-20,-9,2,20,-3,-7,-5,-7
1514879658229376,21,23,3,5,6,2,-1,-1
1514879658230363,5,3,0,-20,-4,-3,-7,-8
1514879658230363,3,-19,-28,32,11,0,3,-10
1514879658251390,-20,-7,-17,-23,-1,2,2,16
1514879658251390,5,-13,5,1,-8,-6,-7,8
1514879658253381,-25,-12,-25,-3,-2,-4,-18,-23
1514879658253381,10,13,-17,-24,-9,-4,12,56
1514879658265446,28,39,5,13,8,1,-14,-8
1514879658265446,-41,-74,-9,2,-2,-5,-9,-26
1514879658272405,1,-6,9,-2,4,3,5,1
1514879658272405,-9,-2,6,5,-5,-3,0,-1
1514879658289417,27,21,-7,25,9,2,-2,-11
1514879658289417,-12,16,12,-15,-8,-3,-5,19
1514879658290421,1,-20,15,14,3,0,8,0
1514879658290421,-19,7,-7,-18,-6,-4,-3,-8
1514879658311421,11,9,4,-1,-3,1,10,-11
1514879658311421,9,-3,-5,9,6,0,-2,9
1514879658314423,-33,-6,12,7,1,-1,3,1
1514879658314423,7,3,-21,10,-3,1,4,-3
1514879658325443,-10,26,9,-43,-14,-6,-4,2
1514879658325443,-16,-51,-16,0,7,5,2,-18
1514879658332435,8,6,18,4,0,1,0,-4
1514879658332435,14,-5,-5,9,1,5,14,-2
1514879658349447,-12,-27,4,-9,-7,-3,-6,-12
1514879658349447,-3,28,14,7,2,-3,-5,-14
1514879658350449,17,6,6,5,2,-4,-9,-5
1514879658350449,2,-2,3,-12,-4,-4,-7,-5
1514879658371473,-25,-17,-7,4,5,3,12,14
1514879658371473,-1,1,7,-1,-10,-9,-11,-16
1514879658373465,9,16,-26,-10,0,4,2,0
1514879658373465,4,7,15,-17,-3,-2,-2,2
1514879658385474,12,13,-22,19,-1,-6,-8,8
1514879658385474,5,-8,0,-21,-3,1,0,-8
1514879658394505,-16,10,4,2,-1,-2,-1,2
1514879658394505,-7,34,16,11,6,6,-1,-2
1514879658408490,-8,-7,-21,-39,-15,-8,7,-6
1514879658408490,5,19,0,27,12,4,2,-5
1514879658410496,7,2,9,23,7,7,10,4
1514879658410496,3,9,1,-17,-9,-2,-2,-12
1514879658431506,9,-7,20,-7,-1,0,0,4
1514879658431506,-9,4,-16,-10,-1,-1,-4,7
1514879658433507,-2,-9,-6,-10,-2,0,15,2
1514879658433507,-27,-54,21,37,5,-2,4,-14
1514879658445516,18,17,-38,-9,0,5,2,9
1514879658445516,1,-5,16,-27,-10,-9,-6,22
1514879658454522,2,-24,11,1,1,2,-2,-2
1514879658454522,5,13,-40,-11,-6,-6,-4,-16
1514879658468532,-25,-12,33,3,3,1,-2,4
1514879658468532,8,2,-22,0,0,1,4,6
1514879658470533,3,7,-6,-13,-13,-10,-5,-3
1514879658470533,-16,-1,5,8,7,8,7,15
1514879658491550,29,5,3,-6,2,0,-5,4
1514879658491550,-31,22,17,21,0,-2,0,-2
1514879658494565,-2,-39,-12,-9,-8,-5,-3,23
1514879658494565,13,-6,-1,-12,1,-1,-11,-17
1514879658505558,0,21,6,-1,1,1,0,9
1514879658505558,13,1,-24,-14,-6,1,-5,-4
1514879658515565,-10,11,-22,10,-1,0,15,2
1514879658515565,-3,-4,30,-3,5,-2,-10,10
1514879658528575,-1,-10,-5,26,6,0,0,-3
1514879658528575,-12,-24,9,1,3,-1,0,-5
1514879658530579,0,20,5,-11,-4,1,4,-6
1514879658530579,0,5,-21,-11,-3,-3,-3,3
1514879658551591,-6,-14,-11,23,3,-5,-9,-3
1514879658551591,6,-15,0,8,4,4,1,-10
1514879658553592,8,11,-9,2,1,-2,-7,-9
1514879658553592,-4,4,16,-9,-7,-7,-2,1
1514879658565600,-8,11,-2,-13,-1,-1,1,-5
1514879658565600,25,-4,-18,27,11,6,2,-14
1514879658574606,4,38,15,-27,-7,2,8,15
1514879658574606,11,-30,-11,19,2,0,4,-5
1514879658588616,11,2,-2,-4,-1,-2,-14,-3
1514879658588616,-2,-24,22,-23,-12,-7,-1,-1
1514879658591618,12,9,-2,12,6,-1,-6,-1
1514879658591618,-6,9,3,1,-1,-1,-1,2
1514879658611643,-1,5,22,-14,-10,-4,5,7
1514879658611643,1,-7,-15,5,0,0,-5,-16
1514879658613653,9,-15,-2,8,0,-2,-7,18
1514879658613653,-13,-1,7,-9,-6,3,2,-5
1514879658624660,-2,-25,-11,4,-5,-6,1,2
1514879658624660,23,28,10,-24,2,2,-11,-3
1514879658633648,-73,-33,-9,27,-2,-3,3,0
1514879658633648,17,-7,-6,1,-1,-3,-2,-11
1514879658648672,-7,-4,-1,-43,-8,-2,0,-7
1514879658648672,9,-6,1,41,10,4,8,12
1514879658650688,-10,23,9,-7,-4,-3,-9,-15
1514879658650688,-8,-9,0,-3,-2,1,1,8
1514879658671679,-8,-6,3,2,1,-4,-4,-5
1514879658671679,4,1,-11,-18,-9,-9,1,-1
1514879658672683,13,-29,11,7,12,2,-11,14
1514879658672683,1,21,-12,3,-2,-2,-8,-24
1514879658684684,9,-6,9,1,0,2,2,-12
1514879658684684,-42,-32,-30,-30,-7,-3,0,6
1514879658693753,-4,10,-6,44,6,-2,-6,-14
1514879658693753,9,-10,6,-9,0,-3,-2,11
1514879658708770,-5,-8,-7,17,2,6,8,-14
1514879658708770,0,39,10,-18,-2,-2,-4,-10
1514879658710772,25,-17,-15,-16,-10,-1,9,-28
1514879658710772,-12,-29,-9,25,0,-6,0,6
1514879658731800,-15,46,4,-12,2,5,3,-3
1514879658731800,12,41,25,3,-2,-3,-11,-1
1514879658732799,-5,-69,-20,-18,-4,-1,4,-2
1514879658732799,8,22,20,-1,-2,-1,-4,7
1514879658744803,1,10,13,-8,1,-1,-6,1
1514879658744803,25,-4,-14,2,1,-1,-3,11
1514879658753793,-11,35,-11,-4,-6,-3,-18,-17
1514879658753793,3,-5,-10,-20,-7,-4,2,9
1514879658768803,-17,-16,8,13,13,4,-9,-5
1514879658768803,-19,18,19,0,-14,-5,8,-13
1514879658770815,10,-9,-4,2,4,3,-1,-4
1514879658770815,-9,9,10,4,-4,-3,0,-11
1514879658790828,14,-4,0,1,-1,-2,1,4
1514879658790828,-9,0,-1,-13,-1,0,0,21
1514879658791829,9,20,8,0,5,3,4,4
1514879658791829,4,5,-20,-11,-9,-2,-5,-13
1514879658812844,-4,-17,-6,-6,-6,-7,2,10
1514879658812844,-20,-8,-11,7,-4,-1,-1,-9
1514879658813834,6,7,9,0,-3,-3,16,12
1514879658813834,-14,-2,-13,-8,-2,4,2,4
1514879658827857,-3,-7,-11,1,0,-2,1,-2
1514879658827857,-1,11,-4,0,3,-2,-11,15
1514879658828858,-2,-22,13,-22,-11,-7,-6,-17
1514879658828858,2,6,-22,12,8,-1,2,-1
1514879658850873,-10,-9,-4,-1,-2,1,9,8
1514879658850873,-13,-39,25,7,-2,-1,3,-20
1514879658851886,10,23,20,-11,0,-2,-3,10
1514879658851886,7,-2,-39,-4,-2,-3,-3,2
1514879658872886,6,-9,-2,-6,-2,-1,-7,-2
1514879658872886,-9,3,14,10,3,3,11,1
1514879658873877,-10,15,-35,-23,-8,-1,-2,-4
1514879658873877,0,-11,33,19,0,1,4,-5
1514879658889904,8,-1,-19,0,-4,2,7,27
1514879658889904,12,-10,-4,-9,-5,-4,-2,-17
1514879658890889,16,21,1,-5,4,3,2,5
1514879658890889,-4,-19,7,8,10,1,-13,-10
1514879658910916,-10,2,-5,16,3,0,5,-1
1514879658910916,2,-16,3,-14,-10,-5,4,13
1514879658911905,8,-6,6,10,3,-2,-9,3
1514879658911905,0,-2,7,-12,-1,1,-3,3
1514879658932928,-2,0,-12,7,-5,-5,-9,-7
1514879658932928,6,-30,-16,-4,7,2,2,6
1514879658933919,-7,3,14,1,4,4,1,-5
1514879658933919,-6,-2,20,-35,-10,-1,6,-12
1514879658947987,-12,-17,-4,32,3,-4,2,4
1514879658947987,-7,23,-15,-3,0,0,-6,-17
1514879658948943,-7,-28,0,0,-6,-4,3,17
1514879658948943,4,37,23,-9,-2,2,-1,-4
1514879658970956,-1,6,-17,-28,-6,0,-4,18
1514879658970956,-12,-27,-1,22,7,1,0,-4
1514879658971950,28,19,18,3,1,-1,-2,13
1514879658971950,-8,-10,-11,1,-3,-6,-4,1
1514879658993975,7,2,10,-7,-5,-2,-7,-15
1514879658993975,-7,2,-19,7,0,-1,-7,9
1514879658994972,8,17,5,-14,-4,0,-2,-7
1514879658994972,-1,-36,-34,6,6,1,-6,7
1514879659007982,-1,12,5,7,0,-3,6,-23
1514879659007982,19,8,-3,-34,-1,-1,7,5
1514879659008972,-61,-18,-9,3,-4,-3,-1,-20
1514879659008972,12,10,-10,4,-2,-1,1,39
1514879659031000,1,11,7,3,-1,2,3,-29
1514879659031000,-7,-35,11,1,0,-2,-4,2
1514879659032001,0,11,-15,-3,-5,-4,3,1
1514879659032001,-4,-4,-13,0,-2,0,4,-6
1514879659053005,-22,12,0,-20,-7,-3,0,15
1514879659053005,-10,-9,19,26,2,3,4,1
1514879659054005,1,-15,-1,-4,3,-1,1,-18
1514879659054005,-7,8,14,5,0,-2,2,-3
1514879659068014,14,-7,2,4,0,-2,-6,4
1514879659068014,4,37,5,-26,-6,-4,-5,-7
1514879659076029,-4,-26,-16,48,4,-1,-9,0
1514879659076029,17,5,-1,-3,1,2,6,-1
1514879659091043,-11,2,15,-3,-2,-1,-5,-6
1514879659091043,4,28,9,-1,-2,-2,-5,11
1514879659092041,1,-15,-25,-20,5,4,-1,-4
1514879659092041,12,26,33,36,4,-2,3,1
1514879659113057,17,-6,-31,-19,-2,0,-5,2
1514879659113057,10,-25,14,13,-2,-4,-4,-8
1514879659114047,6,13,-4,-14,2,2,-1,2
1514879659114047,-13,-27,-25,1,-3,-4,-7,-14
1514879659128068,-17,-27,-11,0,-7,-6,-1,-4
1514879659128068,18,6,-8,0,1,-1,-7,0
1514879659129057,-38,1,0,-4,-5,-3,-2,2
1514879659129057,-6,-7,3,-12,-4,-3,-4,-19
1514879659151085,-1,1,10,9,-2,1,4,5
1514879659151085,6,15,-12,-20,-4,-2,0,-1
1514879659152083,-5,-14,-45,-5,-4,0,-5,-1
1514879659152083,-12,0,37,-3,-3,1,-1,-5
1514879659173098,2,5,7,5,3,0,3,-2
1514879659173098,-4,-1,-11,-2,2,0,3,24
1514879659174089,25,26,26,-10,-8,-3,2,-3
1514879659174089,-4,-16,-12,3,-1,-3,1,21
1514879659188100,11,0,11,-14,2,3,-9,-13
1514879659188100,-2,-3,-6,27,10,3,10,-11
1514879659189102,16,-3,14,11,-7,-6,-3,6
1514879659189102,-7,7,-8,-10,-2,4,2,11
1514879659211125,10,6,5,6,3,2,-3,7
1514879659211125,0,-7,-16,1,-1,2,-5,-10
1514879659211125,-7,-7,10,-31,-8,-7,-11,-8
1514879659211125,11,-2,7,53,10,0,5,-7
1514879659233144,-10,-16,-13,-25,4,4,0,0
1514879659233144,6,3,-14,-2,-8,-1,-3,-4
1514879659234131,3,0,11,-4,0,1,-4,2
1514879659234131,5,-11,-25,-21,-5,0,-2,3
1514879659248172,2,23,33,20,-3,-11,-14,-10
1514879659248172,-8,-10,-25,17,1,0,4,-15
1514879659249142,5,4,2,-5,0,-1,4,25
1514879659249142,1,4,-10,-21,-10,-5,-10,-6
1514879659271158,5,-3,-5,-18,-4,-4,0,-3
1514879659271158,5,13,18,32,8,0,5,-11
1514879659271158,-1,24,7,-18,5,1,-1,22
1514879659271158,-2,7,-1,17,5,-1,-1,-13
1514879659293185,16,-19,-10,-18,-8,-3,4,9
1514879659293185,-8,-9,-19,-6,0,-1,-2,8
1514879659294174,-8,-15,-2,10,-3,-4,5,-11
1514879659294174,1,19,8,-13,0,4,3,10
1514879659308185,-8,-25,-24,20,5,0,9,-4
1514879659308185,-2,9,27,-13,-4,0,-4,0
1514879659309185,-40,-4,-11,6,-6,0,-3,-17
1514879659309185,-5,20,5,-23,-3,2,4,1
1514879659332201,3,-12,-7,18,-1,-1,-4,-5
1514879659332201,-9,-19,-9,12,5,0,-1,12
1514879659332201,10,18,-12,-7,1,-1,18,-31
1514879659332201,4,12,6,-3,-6,-3,-7,40
1514879659353230,-3,-3,2,-5,-2,0,-10,8
1514879659353230,5,-3,-2,-16,-7,0,-2,-14
1514879659354217,2,19,9,12,6,3,-6,-12
1514879659354217,-19,-24,-24,11,0,-2,-1,-7
1514879659368236,11,24,14,-13,2,2,3,7
1514879659368236,-21,-46,4,1,-5,-3,-4,9
1514879659369231,-9,10,-5,-14,0,-4,-6,-4
1514879659369231,-10,-16,0,-6,-2,0,0,-14
1514879659390255,-16,2,0,19,5,0,-2,3
1514879659390255,6,13,-5,-7,-4,-7,-1,-7
1514879659391244,12,3,7,5,-2,1,2,9
1514879659391244,0,9,16,-17,-2,1,-1,-2
1514879659413270,-12,-11,-2,-2,-7,-3,-4,-18
1514879659413270,10,0,-7,-6,1,-2,-3,-10
1514879659414258,-9,-12,5,10,2,3,13,9
1514879659414258,6,-5,7,-5,0,-4,-9,-12
1514879659427269,-11,5,4,17,5,1,1,-1
1514879659427269,-5,10,19,-10,-5,-3,-6,-8
1514879659436277,6,-16,4,-3,-1,-2,0,7
1514879659436277,-3,-2,-3,9,-7,-3,2,-7
1514879659450297,14,28,6,-26,-4,-2,-9,-10
1514879659450297,-3,-6,9,-11,0,-3,3,21
1514879659451295,5,-4,-8,14,1,0,-10,-7
1514879659451295,2,-6,-6,-6,2,-1,4,4
1514879659473310,-3,-1,-14,20,4,-2,-5,-3
1514879659473310,-20,13,0,11,3,5,9,-8
1514879659474302,19,-28,-4,-13,-12,-7,-5,18
1514879659474302,7,4,-13,-13,0,0,0,-14
1514879659487311,-20,-30,-20,-2,0,4,5,13
1514879659487311,7,9,-19,-12,-6,-5,-8,-4
1514879659496326,-8,-8,-15,-8,-2,-1,-5,-8
1514879659496326,-7,14,25,28,14,4,-5,-13
1514879659510329,10,-11,29,-3,-7,-5,-2,20
1514879659510329,2,15,6,-5,1,0,5,10
1514879659511329,1,-13,-29,-5,-4,-3,-6,-11
1514879659511329,6,16,-22,10,-2,-3,-4,-9
1514879659533353,10,-14,13,6,1,-1,-7,6
1514879659533353,-32,-15,-3,-25,-10,-5,-2,-4
1514879659534359,20,2,10,15,6,3,1,1
1514879659534359,-8,-11,-17,-9,-6,-3,1,1
1514879659547368,-3,-2,-27,-4,-1,-3,3,-18
1514879659547368,14,-7,-5,-8,-5,-3,9,-6
1514879659556369,-22,10,9,15,5,2,5,-5
1514879659556369,3,-23,-15,-21,-10,-5,-14,-3
1514879659570374,4,15,14,-6,-2,1,-1,-10
1514879659570374,2,-2,6,1,-3,0,1,-7
1514879659571369,-21,-1,-1,6,1,-1,1,-13
1514879659571369,3,0,46,-6,-1,4,14,26
1514879659593392,1,-10,-15,3,-7,-5,-4,-6
1514879659593392,-1,-3,11,7,4,1,7,-1
1514879659595421,7,2,-17,-14,-8,-2,-2,-10
1514879659595421,-9,6,14,11,6,4,1,3
1514879659607405,-16,-3,-6,-25,-9,-5,-2,0
1514879659607405,-3,13,0,6,10,5,10,15
1514879659615410,0,15,-10,-7,-6,-7,0,11
1514879659615410,-2,-8,3,0,-5,-6,1,-3
1514879659630421,6,24,2,-4,0,2,1,6
1514879659630421,19,7,-5,-1,-2,-1,-13,-1
1514879659631413,-11,0,2,9,2,2,0,0
1514879659631413,-18,-3,-11,-13,-4,-1,7,7
1514879659653428,-9,-14,-9,9,4,1,5,5
1514879659653428,0,0,5,3,2,2,-1,4
1514879659654429,9,2,7,-5,-4,-4,-5,20
1514879659654429,5,20,-9,0,2,-1,-5,-4
1514879659667448,12,-12,-2,17,7,4,7,7
1514879659667448,-8,-6,-7,-9,-7,-1,-3,-2
1514879659675453,-7,-9,11,-7,-2,-1,-6,-7
1514879659675453,-2,-9,9,13,1,-2,-1,-19
1514879659690464,-7,6,-1,-2,1,-1,0,3
1514879659690464,-5,-10,-14,2,-3,-2,-7,-16
1514879659691478,19,18,9,-5,2,4,-2,1
1514879659691478,10,2,-1,-8,-7,-5,-2,2
1514879659713481,-7,-12,-18,1,1,2,0,-10
1514879659713481,0,-1,7,-1,-4,-6,-9,0
1514879659714483,0,-6,1,-25,-6,-1,0,-12
1514879659714483,-1,14,-11,32,9,0,-4,10
1514879659727491,15,21,14,-6,-3,-1,-3,6
1514879659727491,-19,-41,-21,4,-8,-4,-4,-3
1514879659735501,-2,6,1,-8,-1,-1,-3,6
1514879659735501,-8,-12,1,-9,-1,2,11,18
1514879659750510,8,26,9,0,-2,-3,-8,-13
1514879659750510,11,-2,-4,2,0,-2,-3,-1
1514879659751498,-8,2,-1,10,0,0,6,1
1514879659751498,-8,-13,-6,1,-4,-3,-16,-22
1514879659773525,-2,18,6,-6,-4,-2,6,-3
1514879659773525,1,-5,9,-1,1,1,-7,-1
1514879659774525,7,-13,-9,6,-3,-3,0,-4
1514879659774525,5,13,22,-6,-4,-2,0,-6
1514879659796543,-6,-35,-44,-32,-8,-4,-2,4
1514879659796543,8,47,20,24,10,2,5,-3
1514879659797539,1,-20,7,8,-1,-2,-8,-3
1514879659797539,-6,1,7,-22,-5,-2,-4,-3
1514879659810538,-2,-2,-7,15,8,1,-2,-2
1514879659810538,-28,-2,-5,-19,-7,-4,0,-16
1514879659811539,18,3,-22,13,1,-1,-2,0
1514879659811539,-9,-2,-9,4,-2,0,1,19
1514879659833593,-3,-7,33,-3,-6,-3,-3,-19
1514879659833593,-9,-43,-18,-2,2,1,4,7
1514879659834585,8,31,16,-8,-1,-2,-11,-2
1514879659834585,1,-2,18,-7,-2,-3,4,-11
1514879659856581,-5,-8,12,6,1,-4,0,-3
1514879659856581,15,5,-1,9,4,-2,-8,-3
1514879659857587,-9,-6,4,4,-3,1,3,-10
1514879659857587,12,-10,-5,-7,-1,2,-3,2
1514879659870582,-17,6,-11,2,0,0,4,6
1514879659870582,6,15,22,-17,-2,-4,-2,-8
1514879659871585,8,-8,-2,9,4,2,0,-2
1514879659871585,11,2,-21,8,1,-2,-3,-2
1514879659893610,-3,-19,1,4,-1,1,-1,-4
1514879659893610,-8,-9,-16,-5,-4,-4,-10,5
1514879659894598,-5,2,10,0,1,-2,-3,-10
1514879659894598,2,12,1,-8,1,1,-5,4
1514879659916614,-4,-7,-40,-9,-9,-4,0,1
1514879659916614,21,15,3,-14,2,3,-7,3
1514879659917622,-16,-15,-5,30,7,-2,6,9
1514879659917622,-5,-22,-24,6,-6,-3,-2,-8
1514879659930633,10,15,3,-22,-4,-5,5,1
1514879659930633,-13,8,2,19,1,0,-4,-8
1514879659931625,8,-27,-25,-12,7,6,11,5
1514879659931625,-8,-12,-1,-4,-1,-2,2,-16
1514879659953650,-6,0,-3,21,3,2,-1,13
1514879659953650,-7,-5,-21,-9,-4,-3,2,-3
1514879659953650,6,17,18,-3,-4,-4,0,3
1514879659953650,6,9,13,2,1,-1,4,4
1514879659976656,2,15,-1,-6,-1,-3,-8,-13
1514879659976656,8,-19,3,0,-3,2,20,24
1514879659977657,-18,13,10,18,8,2,-5,-8
1514879659977657,5,10,-17,-18,-4,-1,-4,-2
1514879659990681,4,-2,-9,9,4,2,0,-1
1514879659990681,8,11,9,-5,-5,0,2,1
1514879659992677,-1,-2,-4,3,-3,-5,-5,-4
1514879659992677,-3,-10,-7,-1,0,7,6,13
1514879660013695,-7,16,16,10,-2,-2,-4,-2
1514879660013695,-8,20,-1,-1,-4,-5,2,2
1514879660013695,2,-21,-28,-17,-1,2,3,-5
1514879660013695,-2,5,11,-17,-5,-8,-8,-4
1514879660036699,-12,-13,-5,14,7,2,-1,-3
1514879660036699,19,5,-1,-1,-1,1,5,10
1514879660037699,0,9,11,-18,-5,-3,-4,-12
1514879660037699,-12,-16,-39,12,4,1,2,11
1514879660050708,-21,1,21,-6,-6,-3,-18,-18
1514879660050708,10,-9,-5,-3,-3,-1,-3,-4
1514879660051709,4,-5,6,-11,0,-2,-1,8
1514879660051709,-17,20,12,15,3,-1,-6,-12
1514879660073724,6,-17,-22,-12,-3,-1,5,-8
1514879660073724,-5,-1,-13,7,0,0,-1,13
1514879660073724,1,30,20,-2,-4,2,5,0
1514879660073724,13,-33,12,-6,-4,-6,1,-11
1514879660096765,-16,10,10,-2,2,4,8,14
1514879660096765,-2,-6,0,-18,-2,0,-1,-10
1514879660096765,4,-10,-6,25,0,-1,3,5
1514879660096765,-6,11,10,-14,-7,-3,-4,1
1514879660110750,11,-16,-1,-4,4,0,-7,-11
1514879660110750,-9,11,6,11,-1,-1,-9,18
1514879660111751,-9,-7,-28,-27,-8,-1,-7,-4
1514879660111751,7,8,4,14,0,-1,2,10
1514879660141787,-14,-26,3,-9,-7,-6,-2,-16
1514879660141787,4,-1,-1,16,7,4,-14,-4
1514879660141787,-6,3,19,-10,-7,-3,-4,-3
1514879660141787,7,-11,-22,1,-6,-4,3,-6
1514879660156794,16,7,-5,-9,3,-1,-1,18
1514879660156794,-6,1,24,8,-2,-3,5,-9
1514879660157788,-5,0,0,-2,3,0,-4,-4
1514879660157788,21,2,-7,-6,-6,0,-4,-1
1514879660170799,10,26,16,5,1,1,0,3
1514879660170799,-7,-21,1,5,-4,-1,2,-20
1514879660171795,2,3,3,7,2,0,-6,-6
1514879660171795,-9,6,12,-6,1,-3,-2,-4
1514879660192819,1,-5,-15,2,-5,1,1,10
1514879660192819,9,4,12,-48,-4,-3,-2,-14
1514879660193809,-20,-13,11,52,11,-1,8,-3
1514879660193809,-4,-7,-43,13,4,2,-8,0
1514879660216839,10,21,25,-11,-6,-2,10,1
1514879660216839,-5,-6,-15,-7,4,3,2,4
1514879660216839,3,-6,0,-19,-7,-7,-9,-9
1514879660216839,-7,1,21,4,4,1,14,-1
1514879660230848,8,-8,-10,-17,-4,1,-6,21
1514879660230848,-16,-13,-27,16,-1,-2,5,-9
1514879660231849,16,12,-7,-7,-4,2,5,9
1514879660231849,-13,-15,-13,-6,-8,-4,-4,-16
1514879660252853,-13,-16,17,-5,1,0,4,1
1514879660252853,1,7,0,2,0,-3,-8,2
1514879660253852,-1,-17,-15,3,1,2,3,-1
1514879660253852,0,20,1,-22,-6,-3,1,-7
1514879660276869,5,3,-2,19,7,6,-3,-7
1514879660276869,-9,-23,6,0,1,0,-6,4
1514879660276869,6,18,0,-17,-8,-4,3,-6
1514879660276869,7,4,8,-11,0,2,-4,13
1514879660290891,-22,-7,-7,5,-3,-5,-4,-13
1514879660290891,13,13,-5,7,-2,-2,-3,-10
1514879660291880,-13,-5,-20,-21,-8,0,3,19
1514879660291880,-1,0,1,-3,-1,-4,-4,-5
1514879660313895,5,-15,-2,-8,-6,-5,-4,-12
1514879660313895,-10,-15,-10,11,6,3,2,18
1514879660315897,-6,23,-19,-9,-8,-2,4,-17
1514879660315897,-11,-24,19,8,2,-5,-9,15
1514879660336912,5,-2,-24,13,4,-3,-4,3
1514879660336912,-1,-13,9,-17,-4,2,4,-5
1514879660336912,11,-6,-6,43,10,-2,-3,-9
1514879660336912,2,-12,-11,-12,-1,1,3,7
1514879660349933,-4,11,5,-10,-4,0,7,15
1514879660349933,2,16,14,17,6,0,-2,-1
1514879660357939,-7,-17,13,-21,-7,-5,-9,-9
1514879660357939,-17,5,13,27,3,6,3,-11
1514879660372947,-21,-36,-5,10,0,-5,-4,-14
1514879660372947,3,50,3,-19,-3,1,7,9
1514879660373952,14,10,15,12,8,6,5,14
1514879660373952,4,-16,19,-3,-4,-4,-4,3
1514879660396956,-3,20,6,-14,-7,-2,3,-6
1514879660396956,-9,-5,-1,4,-2,-1,2,4
1514879660396956,-1,7,25,-1,-3,-2,0,-3
1514879660396956,12,-19,0,-8,-1,1,3,-10
1514879660419971,-24,-4,-5,7,1,0,-4,1
1514879660419971,14,0,-11,-11,-8,-6,4,-5
1514879660420971,-4,14,13,-6,-4,-5,-10,-5
1514879660420971,-1,-12,-40,-1,-4,-4,1,28
1514879660433017,1,8,-2,5,-3,-2,4,0
1514879660433017,7,-6,-11,0,-3,-2,-8,8
1514879660433979,-15,-16,-16,1,-2,-1,2,-1
1514879660433979,0,23,16,-2,0,3,9,-1
1514879660464044,15,-8,-49,-21,-10,-8,-9,0
1514879660464044,-12,1,0,-5,-1,-3,-6,-8
1514879660465002,-14,-3,-14,1,4,1,4,9
1514879660465002,12,5,20,21,5,3,1,-17
1514879660470023,-8,10,7,1,2,-2,0,-4
1514879660470023,18,-3,-4,7,1,1,1,-8
1514879660478029,-2,-10,-14,-33,-11,-7,-3,-6
1514879660478029,-2,-6,-21,16,4,-1,-14,-8
1514879660493034,16,-5,9,9,7,5,0,-1
1514879660493034,-7,8,-12,0,-1,-3,1,-4
1514879660494022,3,-27,2,-3,-2,0,-5,-1
1514879660494022,12,-4,2,1,3,0,5,7
1514879660517041,-1,4,8,-4,-1,1,2,8
1514879660517041,1,-1,-3,0,2,-2,-8,-12
1514879660518039,-1,-13,-36,6,-4,0,15,15
1514879660518039,-9,32,36,-22,-8,-5,6,-10
1514879660530062,8,-30,-19,50,5,-1,-8,-12
1514879660530062,14,31,36,-13,-5,-2,-7,-8
1514879660545071,8,-24,-1,-5,-3,-1,1,-6
1514879660545071,-12,17,-8,5,0,3,-4,3
1514879660555066,-6,22,22,-3,2,0,4,-3
1514879660555066,-10,-24,16,-2,-2,-3,-3,6
1514879660556083,-3,-36,-4,6,-1,-2,-11,-2
1514879660556083,3,8,-3,5,-2,-3,-3,-1
1514879660576089,5,13,19,-11,3,5,10,5
1514879660576089,-2,-3,-5,35,5,1,2,-4
1514879660577081,5,15,13,-10,-5,0,-2,8
1514879660577081,6,-5,4,-5,-1,-2,-7,-8
1514879660590090,-37,-2,-14,-11,-5,-5,-3,4
1514879660590090,10,-7,-27,-10,-1,-1,2,-8
1514879660598108,-2,9,11,-8,-1,1,9,3
1514879660598108,0,-13,-6,24,8,1,-1,1
1514879660613118,3,11,-15,0,-3,-2,-3,3
1514879660613118,0,-17,-1,-20,-9,-4,-13,-11
1514879660614106,-3,-9,0,-6,-1,-1,-9,-14
1514879660614106,-1,-3,-24,21,0,-5,-1,16
1514879660636126,16,-5,-2,-28,-4,1,0,-8
1514879660636126,-24,-7,-35,14,3,0,-4,3
1514879660637137,3,5,27,0,-2,-2,-2,-4
1514879660637137,-4,5,-50,-19,2,0,1,5
1514879660650141,-2,-19,37,6,4,2,-2,3
1514879660650141,2,20,-8,1,-2,-1,2,-13
1514879660658148,-3,-15,-6,-6,-3,0,-4,1
1514879660658148,7,28,2,-22,-8,-3,8,-26
1514879660673149,-17,-14,-6,3,7,-3,-12,1
1514879660673149,3,-2,-8,-6,-6,-1,2,4
1514879660674149,-16,16,14,0,-1,-4,-6,-2
1514879660674149,4,1,11,-2,3,0,-9,-8
1514879660696165,5,14,-2,-7,-8,-1,2,4
1514879660696165,1,-11,-10,0,-4,-3,5,1
1514879660697165,-1,1,-12,4,0,1,-3,-8
1514879660697165,-20,-7,1,6,0,5,0,5
1514879660719186,11,-6,8,-9,-3,-2,7,5
1514879660719186,1,-20,-6,-17,-7,-6,0,-3
1514879660720194,-16,15,7,30,6,0,-10,-5
1514879660720194,-8,-19,-9,-14,-13,-3,-2,2
1514879660733221,-6,7,10,-11,5,5,-5,-19
1514879660733221,-20,-16,-10,-13,-12,-4,9,-7
1514879660734192,17,21,2,-1,6,3,3,12
1514879660734192,0,5,9,6,-3,-6,-7,-8
1514879660756217,0,-28,0,14,0,-2,-1,1
1514879660756217,0,1,19,-4,0,2,4,7
1514879660757217,-13,-3,19,-7,-4,-2,9,-3
1514879660757217,-4,-11,-23,-4,-1,1,9,4
1514879660779247,15,32,-8,2,-5,-5,-12,0
1514879660779247,-13,-8,9,-1,0,3,5,-2
1514879660780234,15,-7,-8,1,-4,-2,-4,-2
1514879660780234,-4,-4,4,-14,-3,-3,-4,-5
1514879660793256,-17,0,4,14,2,-2,9,7
1514879660793256,-1,13,3,17,12,2,-2,-7
1514879660794256,17,7,8,1,-5,-3,-11,-1
1514879660794256,2,-30,8,-3,-6,-4,-6,17
1514879660816250,5,-8,-10,-3,0,0,-4,-10
1514879660816250,-1,10,14,3,3,0,-5,2
1514879660817250,-1,-11,-23,0,4,2,5,-3
1514879660817250,0,24,-6,-17,-4,-2,-3,5
1514879660838266,-2,-16,21,2,-8,-3,9,-2
1514879660838266,8,7,5,5,0,-1,-1,14
1514879660845273,2,1,1,-19,-2,-3,-4,-5
1514879660845273,-9,8,17,15,6,1,6,-4
1514879660853278,3,14,-19,-1,-3,-3,-14,-17
1514879660853278,2,-11,-14,-9,-5,-1,1,14
1514879660854276,8,12,-13,-4,0,4,12,4
1514879660854276,7,16,18,4,-5,-6,5,-1
1514879660876303,-29,-34,-15,0,0,1,-2,7
1514879660876303,-12,5,4,-19,-2,-1,-13,-9
1514879660878304,5,-12,-8,9,0,3,6,8
1514879660878304,2,-24,-24,1,0,0,-11,-7
1514879660899320,11,15,-22,-19,-8,-3,14,0
1514879660899320,-2,-8,10,23,2,-2,-11,-2
1514879660900311,-14,-7,-6,-17,1,0,-1,5
1514879660900311,2,17,0,2,-1,-1,-8,-14
1514879660912330,10,7,6,-9,1,-1,0,1
1514879660912330,-12,-11,-26,0,-2,0,3,2
1514879660921343,6,4,6,-3,-1,-4,-1,-6
1514879660921343,-1,-2,8,14,5,4,3,-17
1514879660936338,-21,0,3,-4,-1,3,25,45
1514879660936338,9,13,1,-11,-6,-4,-6,-4
1514879660938355,-4,1,-1,13,6,2,-8,-4
1514879660938355,-3,-15,7,-8,-5,0,1,0
1514879660958350,2,9,13,7,-1,-3,-8,-11
1514879660958350,6,-9,0,-2,1,-3,3,3
1514879660960351,2,8,-4,-2,0,0,4,2
1514879660960351,10,-5,3,0,2,1,-1,2
1514879660972378,15,9,-1,3,2,-1,-16,-7
1514879660972378,-7,-1,2,-2,-2,-2,2,3
1514879660981370,2,3,-3,-2,-6,-5,-5,-11
1514879660981370,-1,-5,-5,2,5,-1,-3,6
1514879660996415,4,2,-2,-5,1,-2,5,-1
1514879660996415,1,-3,7,-4,-1,-1,-3,-3
1514879660998389,-7,2,-9,9,0,1,2,-1
1514879660998389,-10,-22,12,2,-4,-2,2,-8
1514879661021404,4,-7,-12,-3,-1,2,-3,-5
1514879661021404,-1,-2,0,-1,-4,-1,2,5
1514879661025407,1,5,10,2,-2,-3,4,-4
1514879661025407,-8,-4,-4,-8,0,-2,-3,8
1514879661033419,9,-1,-3,-1,-2,0,-3,-10
1514879661033419,2,-4,2,5,2,5,4,-5
1514879661040417,-3,-3,-1,-3,-5,-3,-5,3
1514879661040417,-1,-1,-8,-1,1,-1,1,-4
1514879661064447,3,-6,-4,-1,0,-3,-7,-1
1514879661064447,-9,0,-3,-2,-1,-1,-11,0
1514879661065425,-10,-13,-3,-1,-2,-2,0,3
1514879661065425,2,2,-1,1,-2,3,4,-3
1514879661079445,2,2,-5,-1,0,-1,-5,-3
1514879661079445,1,2,1,-3,-2,-4,-2,-5
1514879661085439,1,-2,-2,2,0,-3,-3,0
1514879661085439,1,15,1,-1,-1,-3,-3,-4
1514879661093447,-2,-17,-3,-4,-2,-2,-2,-2
1514879661093447,3,10,-3,0,-1,0,3,-1
1514879661107472,-9,-10,0,0,-2,-1,0,0
1514879661107472,0,2,5,1,-1,-1,-1,0
1514879661115479,0,9,-20,-8,-3,0,-1,0
1514879661115479,2,-2,1,-3,-2,-3,5,1
1514879661125468,0,-5,1,6,0,1,-2,-2
1514879661125468,-6,-5,-7,-1,-3,-2,-2,-2
1514879661138487,-3,2,13,4,0,-1,-4,-2
1514879661138487,-2,-8,-2,3,-3,-1,-2,-1
1514879661145482,3,6,4,-9,-1,-1,-3,-2
1514879661145482,-4,-8,-24,-4,0,0,-2,0
1514879661153488,4,1,16,0,-2,-1,-3,-1
1514879661153488,-4,-1,-8,-1,0,-1,3,0
1514879661160502,8,1,-6,-1,-3,-3,1,-1
1514879661160502,-9,-3,-3,-2,2,2,-5,-2
1514879661176517,7,1,-4,1,-1,0,2,2
1514879661176517,3,2,1,-2,2,-3,-9,-3
1514879661178506,-5,-3,-3,-2,-1,2,1,-3
1514879661178506,2,-2,0,1,1,-5,-3,0
1514879661198520,2,0,-4,-2,-1,-1,-2,1
1514879661198520,-8,-7,2,2,-1,-1,6,-2
1514879661200523,-6,0,-2,1,-1,-2,-2,-2
1514879661200523,3,-7,-1,3,1,2,0,-3
1514879661212539,-8,1,2,-4,-3,-1,-3,-2
1514879661212539,0,-5,4,-6,-2,-2,2,-1
1514879661222539,-4,0,3,4,1,-2,-4,0
1514879661222539,-7,4,-10,2,-3,-1,-1,-3
1514879661236558,-6,-2,-12,-9,1,0,-1,-2
1514879661236558,-2,3,13,4,2,0,2,0
1514879661238548,1,-6,-14,-8,-5,-3,0,2
1514879661238548,5,4,7,-4,-2,-2,-1,1
1514879661258571,0,-7,9,11,3,0,-5,-3
1514879661258571,1,7,-3,3,-1,1,-2,-1
1514879661260564,-1,-9,5,2,1,-2,2,0
1514879661260564,8,7,8,-1,1,-2,-3,0
1514879661272572,-9,-2,-8,-4,-1,-4,-3,-1
1514879661272572,-18,-12,-8,-3,-5,-1,-3,-4
1514879661281588,-1,3,1,1,-1,-6,-2,-4
1514879661281588,-6,-11,-6,-6,-6,2,1,-4
1514879661296611,3,-2,4,0,0,-3,0,0
1514879661296611,4,3,0,2,1,2,1,1
1514879661297612,-28,-6,2,-2,-1,0,-3,-3
1514879661297612,1,-4,16,2,1,-1,-1,-2
1514879661319617,-3,-3,-36,-11,-2,-4,-2,0
1514879661319617,8,2,-22,-10,0,-3,1,-2
1514879661322620,0,2,2,0,-5,0,1,-1
1514879661322620,-1,5,9,3,9,5,-1,2
1514879661341636,0,1,13,4,-3,-1,0,-2
1514879661341636,4,-5,-14,-5,-2,-3,0,2
1514879661342642,6,-2,-17,-14,-3,-2,-1,-2
1514879661342642,-5,-6,-25,-10,-5,-4,2,0
1514879661356641,5,1,0,3,3,-1,-2,-1
1514879661356641,-1,5,1,8,1,0,-1,-2
1514879661357642,3,-1,1,-1,-1,0,3,0
1514879661357642,-1,2,10,4,2,1,4,0
1514879661378668,12,0,-1,-1,-2,0,-2,0
1514879661378668,-4,2,7,-1,-1,0,2,0
1514879661381667,4,1,2,4,2,0,-3,0
1514879661381667,2,-6,13,0,0,0,-2,-1
1514879661392657,-4,3,6,6,-1,-2,-1,0
1514879661392657,1,-5,-20,-15,-3,-1,1,-4
1514879661401663,4,2,13,-2,0,0,-2,-2
1514879661401663,-7,1,0,-2,-1,-2,-4,1
1514879661416686,-1,1,12,7,6,3,0,-1
1514879661416686,1,0,46,13,1,-2,0,0
1514879661417674,-3,-6,-3,0,-3,0,3,0
1514879661417674,1,-1,-13,-6,-4,-4,-3,-1
1514879661438690,-4,2,3,11,4,-1,-2,-1
1514879661438690,0,-2,9,-2,0,2,1,1
1514879661440691,1,-4,4,1,-1,0,-1,0
1514879661440691,-1,-1,-3,-7,-2,-3,3,0
1514879661452712,-3,-4,-14,-8,-2,-2,-4,-3
1514879661452712,2,1,4,12,3,0,-3,0
1514879661461719,3,5,1,1,-3,3,-6,-4
1514879661461719,-2,-3,-11,-1,-2,1,0,1
1514879661476729,-5,0,7,-5,-5,-2,0,-1
1514879661476729,-2,-5,-19,-9,-5,-6,-1,-3
1514879661477717,-3,-1,6,5,2,-2,0,0
1514879661477717,-2,-1,-1,-5,-3,-3,-5,0
1514879661498806,-4,-2,-14,-8,-2,1,0,-1
1514879661498806,0,0,25,6,0,2,2,-1
1514879661500799,0,-4,-43,0,-3,-4,-1,3
1514879661500799,0,0,19,7,-1,1,-2,-2
1514879661512802,1,-3,10,2,-2,-3,0,0
1514879661512802,-4,0,-14,-19,-4,-2,-3,-1
1514879661522801,-2,-3,-18,-5,-1,-2,3,-3
1514879661522801,-1,0,-13,-2,2,-2,-4,-1
1514879661536810,-1,-1,5,1,-1,1,4,1
1514879661536810,0,3,-2,8,4,2,2,0
1514879661537810,3,4,14,2,1,-1,-2,3
1514879661537810,-1,-8,-17,-8,-4,-3,0,-4
1514879661558825,-1,-2,-11,-6,-2,-1,11,-4
1514879661558825,-2,1,-6,7,2,-2,-8,1
1514879661560828,0,-2,3,-2,-1,0,-1,0
1514879661560828,-1,0,5,3,0,-3,-2,-2
1514879661572835,0,-1,-5,-6,-3,-2,-2,-1
1514879661572835,0,-1,27,6,0,-2,-4,-2
1514879661581854,-1,-2,-23,-6,-1,-1,0,0
1514879661581854,0,2,-11,-2,1,0,-1,1
1514879661596853,-4,-5,-2,-9,-1,-1,-5,-3
1514879661596853,-2,0,-22,0,-1,0,1,1
1514879661597852,-1,-4,35,1,-7,-3,-1,-3
1514879661597852,-1,-4,2,-6,-1,0,-1,-1
1514879661619869,-1,-3,4,13,4,-1,-4,2
1514879661619869,-3,-8,-42,-16,-6,-1,4,0
1514879661621869,2,10,9,7,6,0,0,1
1514879661621869,-2,-11,-49,-6,-7,-4,-1,-5
1514879661641885,-2,0,9,-8,-1,0,-1,-2
1514879661641885,-1,-1,-1,0,-2,-2,-3,-1
1514879661642886,0,1,7,3,1,4,6,1
1514879661642886,0,5,1,7,2,-1,0,0
1514879661655911,0,-2,11,-4,-4,-3,-14,2
1514879661655911,-1,-3,-1,0,-2,2,6,-2
1514879661657896,-1,-2,-2,-6,-1,-4,-2,0
1514879661657896,-1,4,11,8,0,-2,-2,0
1514879661678930,0,-2,-11,-4,-2,-2,-3,-4
1514879661678930,-1,-2,13,-1,-2,-3,-1,3
1514879661680912,2,1,-1,2,0,0,-2,-2
1514879661680912,-1,0,6,0,0,0,-1,0
1514879661700940,-3,0,-9,-7,-2,0,0,-5
1514879661700940,0,-5,-6,-4,-2,-2,0,-4
1514879661702930,-2,-2,-7,0,0,-1,0,0
1514879661702930,1,4,59,16,3,0,-2,-2
1514879661716937,-1,-2,-16,-7,-2,1,5,0
1514879661716937,2,3,13,5,0,-3,0,-2
1514879661717938,-1,-2,-6,-5,0,-1,1,-3
1514879661717938,-4,3,12,3,0,-2,-2,0
1514879661738952,-2,-1,-4,-1,-2,0,-2,0
1514879661738952,-2,-7,-2,-3,-3,0,-1,-1
1514879661740954,-1,-1,-6,-2,-4,-7,-9,-3
1514879661740954,0,-5,-35,-10,-3,4,8,-2
1514879661761970,-1,-2,2,0,0,1,0,-3
1514879661761970,-1,-2,-13,-3,-1,-2,2,-2
1514879661762969,-3,0,8,0,-1,0,-3,0
1514879661762969,-1,-3,-9,-2,-1,-2,-5,2
1514879661776981,-1,-2,-13,-2,-3,-2,1,-2
1514879661776981,0,2,7,-1,-1,0,0,-1
1514879661777980,-3,-2,6,-1,0,2,0,0
1514879661777980,0,4,-4,-2,1,1,-1,-1
1514879661805999,-1,-1,24,2,-2,-3,2,0
1514879661805999,1,0,-3,3,-2,-3,-2,-3
1514879661808001,-2,-10,-9,-7,-3,0,0,0
1514879661808001,-1,-5,-12,-3,-2,0,-4,-2
1514879661822011,2,4,11,6,3,2,-1,2
1514879661822011,-2,-2,-11,-6,-1,-1,0,-1
1514879661823011,1,2,5,3,-2,-1,2,-1
1514879661823011,-3,-1,4,-1,-1,-1,-2,-1
1514879661836021,-3,-3,-6,-1,-2,-3,0,0
1514879661836021,0,1,4,4,2,1,1,-3
1514879661843026,-3,-3,-3,-8,-1,-1,-2,-1
1514879661843026,1,-1,0,-2,0,-2,0,-1
1514879661859038,-3,0,-6,-2,-2,-2,-1,-2
1514879661859038,-2,-1,0,2,1,-1,0,-1
1514879661861038,0,-2,-13,-3,-2,0,-2,0
1514879661861038,-1,-3,7,3,-3,-2,-1,-2
1514879661881055,0,1,0,-2,0,-2,-4,1
1514879661881055,0,-2,0,-5,1,1,-2,0
1514879661883054,-1,0,-4,3,-2,-1,-1,-3
1514879661883054,-2,1,-11,-3,-2,-2,-2,-1
1514879661896065,-5,-4,2,-6,-3,-2,2,-2
1514879661896065,-1,0,-5,1,-2,-1,-2,-2
1514879661903069,-1,-3,8,-1,-4,-1,-1,-1
1514879661903069,-2,1,-3,3,3,0,0,1
1514879661920081,1,-1,1,0,0,0,0,-2
1514879661920081,-1,-4,0,-8,-3,-3,-1,0
1514879661923083,1,1,3,5,-1,-1,-3,2
1514879661923083,0,7,47,14,4,-2,-3,1
1514879661942097,-1,-13,-65,-22,-7,-2,-1,-2
1514879661942097,-2,-1,24,5,1,0,-2,-2
1514879661943097,1,-1,-8,0,2,0,0,-3
1514879661943097,1,-1,18,-2,0,1,-2,1
1514879661956105,2,5,5,9,0,1,-1,1
1514879661956105,-4,2,-9,-3,-2,0,-1,-2
1514879661962110,0,-1,2,0,-2,-4,-2,-1
1514879661962110,-1,-1,-16,-6,-3,-1,-4,-3
1514879661979122,-1,-2,7,-1,1,-1,0,-3
1514879661979122,-2,-2,-13,-3,-2,-1,-1,1
1514879661982124,-3,2,8,5,1,0,0,0
1514879661982124,-1,-4,-16,-8,-3,1,3,0
1514879662001137,1,-1,2,0,-1,-2,-2,2
1514879662001137,-1,-3,10,2,-2,-1,-2,-2
1514879662003140,-2,2,-5,0,1,0,-1,-4
1514879662003140,-2,-6,-10,-4,-3,-4,-2,-1
1514879662016148,0,0,10,-2,0,-1,1,-2
1514879662016148,0,-1,-3,0,1,-1,0,3
1514879662022163,0,-2,-2,-2,-3,0,-2,-2
1514879662022163,-1,-3,-10,-5,-3,0,-1,-1
1514879662039164,-3,0,9,3,1,0,-1,1
1514879662039164,0,0,-5,-2,-1,-1,-1,-1
1514879662040169,3,-2,-6,-1,-2,-2,-2,-1
1514879662040169,-1,-1,3,0,-2,-2,-2,0
1514879662061237,-1,-1,-3,1,-2,0,-1,0
1514879662061237,-2,-1,-2,-2,-1,-1,1,0
1514879662063228,-1,-2,1,-2,0,0,-2,0
1514879662063228,-1,-1,-5,-3,-1,0,0,-1
1514879662084246,3,-1,2,0,0,-2,-1,-2
1514879662084246,1,-1,-3,0,-2,1,0,0
1514879662085243,-2,-2,1,2,-2,-1,0,-3
1514879662085243,0,0,-3,-3,-3,-2,-1,0
1514879662099266,-3,-1,0,-1,0,1,-1,-1
1514879662099266,0,-1,2,-2,1,-1,-1,0
1514879662100258,-4,-1,-2,-1,-1,-2,2,-3
1514879662100258,-2,-2,-3,-2,-2,-1,0,-3
1514879662121269,-3,-1,1,2,-1,0,0,-2
1514879662121269,1,-1,-3,-1,-3,-1,-2,-1
1514879662123272,-2,1,-1,-2,-2,-2,-1,-1
1514879662123272,0,0,-4,-1,0,-1,-2,-1
1514879662135295,-2,0,0,-1,-1,-2,0,-2
1514879662135295,-2,-1,-1,0,-2,-1,0,-1
1514879662144285,-3,0,-2,-1,1,-1,-2,1
1514879662144285,-1,-1,-1,-1,-1,-1,-1,-2
1514879662159309,3,-1,1,-1,-2,-1,-2,-1
1514879662159309,-1,-2,-2,0,-1,0,1,-1
1514879662160306,0,-1,-1,0,-1,1,-1,0
1514879662160306,-2,-2,-2,-1,0,0,-1,1
1514879662181402,-5,-2,-2,-3,1,0,-2,0
1514879662181402,0,-1,-2,-1,-2,-2,2,0
1514879662183401,-1,-4,1,-1,0,-4,-3,-1
1514879662183401,-3,-2,1,-2,-1,-1,1,-1
1514879662195410,1,0,-1,-1,-1,-1,-1,0
1514879662195410,-1,0,-2,-1,0,-1,-2,1
1514879662204407,0,0,-2,-2,-2,0,1,0
1514879662204407,-1,2,-2,-3,-2,0,-3,-3
1514879662218429,-4,0,1,-1,-1,-3,2,0
1514879662218429,-1,-1,0,0,-2,-2,-3,-1
1514879662220419,1,-2,1,-2,-1,-1,0,-1
1514879662220419,1,-4,-3,-3,0,-3,0,-2
1514879662241432,-3,0,-1,-2,-4,-1,1,-2
1514879662241432,0,0,-3,-1,0,-1,-1,-2
1514879662243435,-3,0,-3,1,-3,-1,-1,-2
1514879662243435,-1,-2,-1,-2,0,-2,0,0
1514879662255442,0,-3,-4,-1,-1,0,-3,-3
1514879662255442,0,-1,0,0,0,-1,0,-1
1514879662264461,-1,0,-2,-1,-1,0,-1,-2
1514879662264461,-2,0,0,-1,-2,-2,-2,1
1514879662279461,0,-2,-1,0,-2,-3,-2,1
1514879662279461,-1,0,-1,0,-1,0,-1,0
1514879662280462,2,0,-1,-1,-2,-1,0,0
1514879662280462,-1,-1,-2,-1,1,-3,-1,0
1514879662301475,1,-1,-2,-1,-1,1,-4,-2
1514879662301475,-2,-2,-1,-2,0,-2,-1,-2
1514879662303484,0,0,0,-1,0,2,3,-2
1514879662303484,-1,-1,0,-1,-3,-2,-4,0
1514879662315485,0,-1,-1,-1,-1,-2,-3,0
1514879662315485,0,0,-1,-1,-1,0,-1,-3
1514879662324513,-3,-1,-1,0,-2,-2,-1,-1
1514879662324513,-1,-2,-1,-1,0,0,0,-2
1514879662339501,0,0,0,-2,1,2,0,1
1514879662339501,-2,-1,1,-2,-1,0,-1,-2
1514879662340501,-1,-1,0,0,-2,-1,0,0
1514879662340501,-1,-2,-2,0,0,-3,-2,-2
1514879662361517,-1,-1,-2,-1,-1,-2,-3,-2
1514879662361517,-2,-2,0,0,-2,-2,0,0
1514879662362518,-1,-2,-2,-2,0,1,-1,0
1514879662362518,-3,-1,-2,0,-1,1,1,1
1514879662375528,-1,-1,-1,-2,-1,1,-1,-2
1514879662375528,1,-1,0,0,-1,-2,1,-1
1514879662384534,-1,-2,-1,0,-1,-1,-2,2
1514879662384534,1,-1,-1,-1,-2,0,-1,-3
1514879662399543,-2,-1,-2,-1,0,-1,1,-3
1514879662399543,0,1,0,-1,-2,-1,0,-4
1514879662401546,-1,0,-1,-2,0,0,-1,1
1514879662401546,-2,0,1,-1,-1,-2,-2,0
1514879662421560,-1,-1,-1,-1,-2,0,-2,0
1514879662421560,-1,0,-2,0,-2,0,-2,-1
1514879662423562,1,-1,-3,0,0,-3,-2,-1
1514879662423562,-2,-1,-3,-2,-2,0,-3,-1
1514879662435571,-2,-1,-1,0,0,0,-2,1
1514879662435571,-1,-1,-2,-3,-1,-2,0,1
1514879662443575,-2,-4,0,-1,-2,0,-1,0
1514879662443575,-1,0,-3,0,-1,-3,-2,-1
1514879662458585,-1,-2,0,1,-2,-3,1,-1
1514879662458585,-1,-1,-1,-1,-1,-2,-2,3
1514879662460587,-2,1,-1,-1,-2,-1,0,-2
1514879662460587,0,0,-1,-2,-1,-1,-1,0
1514879662481603,0,-1,-1,-2,-1,-1,-1,-3
1514879662481603,-2,-2,0,-2,-2,-1,-1,-1
1514879662482603,1,1,-1,-1,-1,-2,1,-2
1514879662482603,-2,-4,1,-2,-1,0,-1,1
1514879662494611,-1,-2,-2,0,-1,0,1,0
1514879662494611,-2,-2,-2,-1,-1,1,-1,-1
1514879662504620,-1,-2,0,-2,0,1,-2,-3
1514879662504620,-2,0,0,-1,1,0,0,-2
1514879662518640,1,-3,0,0,-1,-2,-3,-3
1514879662518640,-2,-1,-2,1,0,-3,-1,1
1514879662520643,-1,-1,-1,0,-1,0,-1,-1
1514879662520643,-2,-2,0,-2,-2,-1,-2,-1
1514879662541644,-2,0,-2,-4,-3,-2,-1,0
1514879662541644,2,0,-1,-1,-2,-1,1,0
1514879662542645,-1,0,-3,-1,-1,-2,0,0
1514879662542645,-2,-1,-1,-1,-1,0,0,-1
1514879662554654,-2,0,-1,-1,-1,-2,-1,-1
1514879662554654,1,-1,-1,-1,0,-2,-3,-5
1514879662563664,-1,-1,-1,0,0,-2,-2,-1
1514879662563664,-1,-2,-1,-1,1,-1,-1,-2
1514879662578709,-1,-1,-2,-1,-1,-1,1,-1
1514879662578709,1,-1,-2,-2,-3,-1,-2,-1
1514879662581673,-1,-1,0,-1,-2,-2,-1,0
1514879662581673,-2,1,-1,-1,-1,0,-2,-2
1514879662601699,0,0,0,-1,-1,-1,-2,2
1514879662601699,0,-3,0,-1,-1,-2,0,-1
1514879662602688,-2,-2,-1,0,-1,2,-2,-4
1514879662602688,1,-1,-1,0,-1,0,2,0
1514879662623713,0,-2,-2,-3,-2,-1,0,-3
1514879662623713,-1,0,0,2,-2,-1,-2,-2
1514879662625713,-3,-1,-1,-3,-2,-3,-3,0
1514879662625713,-1,-1,-1,1,-1,-1,0,-3
1514879662638713,0,-2,-1,-1,-2,0,1,-2
1514879662638713,-1,0,-2,-2,0,-1,0,-1
1514879662640714,-1,-1,0,1,1,-2,-2,1
1514879662640714,-1,0,-2,-2,-3,0,-3,0
1514879662661784,-1,0,-2,-2,0,-2,-2,1
1514879662661784,-3,-1,-2,-1,-2,-2,2,1
1514879662662772,-1,-1,-1,-1,-3,-2,-2,1
1514879662662772,-1,-2,-1,-2,-4,1,-1,-4
1514879662683795,0,0,0,1,0,-1,-1,-3
1514879662683795,0,0,-1,-1,-3,-1,4,-2
1514879662685788,-1,0,-1,-3,0,-1,0,-2
1514879662685788,0,-2,-1,-3,0,-3,-3,-1
1514879662698797,-3,-3,-1,-2,0,-1,-3,-3
1514879662698797,-2,-3,-1,0,0,-1,-2,-1
1514879662700799,0,0,-2,-1,-1,-3,-1,-3
1514879662700799,1,-2,-1,-2,-1,-1,-1,3
1514879662720859,0,0,-2,0,-1,-1,-1,0
1514879662720859,1,-1,-3,-2,-2,-3,-3,-1
1514879662722850,-1,-2,-1,-2,-2,-1,-2,2
1514879662722850,1,1,-1,-1,1,-3,-2,-1
1514879662743874,0,-1,-1,-2,-1,-1,-2,-1
1514879662743874,-2,-1,0,-1,0,1,-1,-1
1514879662749870,-1,-1,-1,-1,-2,-1,1,-3
1514879662749870,-5,-1,-3,-1,-1,-2,-3,-1
1514879662757887,-3,-3,1,2,-2,-1,2,1
1514879662757887,0,0,0,-1,1,-1,0,-3
1514879662772898,0,-1,-2,-1,0,1,1,1
1514879662772898,-2,-1,-1,-2,0,0,-2,-1
1514879662788897,-1,-2,-1,-2,-1,0,-2,0
1514879662788897,-1,-1,0,-1,-2,1,-3,0
1514879662790900,-2,1,-3,-1,-2,-2,-1,-1
1514879662790900,1,-1,-1,-2,-3,-2,0,-1
1514879662803920,-4,0,-2,-2,0,0,-2,-2
1514879662803920,-3,0,1,0,-1,0,-2,0
1514879662805909,-1,-1,0,-1,0,-3,-2,-2
1514879662805909,-1,-1,-2,0,0,-1,-2,-3
1514879662817928,-1,0,0,-1,-1,-2,1,0
1514879662817928,1,-3,-2,-1,-1,0,-2,-1
1514879662824932,-2,-3,0,-2,1,-3,2,2
1514879662824932,-2,-1,-2,0,-1,0,-2,-3
1514879662840946,1,-1,-1,-3,-2,-1,-1,0
1514879662840946,-1,-1,-3,-1,-1,-2,2,-2
1514879662842935,1,-2,-2,0,-2,0,-1,1
1514879662842935,-1,-1,-2,0,-2,-2,-3,0
1514879662863959,-4,0,-3,-3,-1,-1,1,0
1514879662863959,0,0,0,-2,-2,0,-2,0
1514879662864956,0,-2,-1,-2,-2,-1,-1,-1
1514879662864956,-1,-1,-2,-1,-1,-2,-2,-3
1514879662877979,1,-1,0,0,0,-2,-4,-2
1514879662877979,-1,-1,0,-2,0,-2,0,-2
1514879662884968,-3,-2,-2,0,-1,0,0,0
1514879662884968,-2,-1,-2,-2,-2,-1,-2,0
1514879662900985,-1,1,1,-1,-1,0,0,-3
1514879662900985,1,1,-2,0,0,-2,-1,-1
1514879662902977,-1,-3,0,-1,0,-1,-4,-1
1514879662902977,-1,-2,-2,-1,1,1,0,-2
1514879662924005,-1,-2,-1,-2,-2,-2,-1,0
1514879662924005,-4,-3,-1,-1,-1,1,-1,-1
1514879662924996,-1,1,-3,-1,-1,0,0,-2
1514879662924996,0,0,0,-3,-1,-2,-2,0
1514879662938024,1,-1,-2,-1,0,-1,-1,-2
1514879662938024,-2,-1,-1,-1,-2,0,1,-1
1514879662945051,2,-1,-2,-3,-1,-1,-3,1
1514879662945051,-2,-1,-1,-2,0,-3,3,-1
1514879662961028,0,-1,-2,-1,-2,-3,-1,-1
1514879662961028,0,0,0,1,-3,-2,-2,-2
1514879662963021,-4,-1,0,1,-2,-1,-2,-1
1514879662963021,2,-4,0,-1,0,0,-1,1
1514879662984055,-1,-4,-2,-1,-1,-1,1,-1
1514879662984055,2,-2,0,-1,-1,-1,-2,-2
1514879662985036,-1,-1,-3,-3,-1,-2,-1,0
1514879662985036,-1,0,-1,0,-3,0,-2,0
1514879662998068,0,-1,-3,-2,1,0,2,-2
1514879662998068,-2,-2,-1,-1,-3,0,0,-1
1514879663005062,0,-1,1,-1,-1,0,1,-2
1514879663005062,-2,-1,-1,-2,1,-1,-2,-2
1514879663021083,-2,-2,0,2,-1,1,-2,-1
1514879663021083,-4,1,-2,-3,-2,-1,-2,1
1514879663023065,-2,0,-1,0,0,-2,-1,-2
1514879663023065,-2,-4,-2,-1,-2,-2,-1,-3
1514879663051096,-3,0,1,1,-2,1,-1,1
1514879663051096,1,-1,-1,0,-1,-1,-2,1
1514879663053085,-1,1,-1,-1,-1,0,-1,-2
1514879663053085,1,-1,-2,-1,1,-1,-2,-1
1514879663066102,2,-1,-1,-2,1,-1,1,-2
1514879663066102,-1,-3,-1,0,-1,-2,0,0
1514879663068104,-2,-1,-2,-2,-2,-1,-1,-5
1514879663068104,-1,-1,-2,-1,1,-1,1,0
1514879663081117,-2,0,-2,0,-2,-1,-4,2
1514879663081117,-2,-3,-3,-3,0,0,1,-8
1514879663083106,-1,-2,-2,-1,-1,0,1,1
1514879663083106,-2,-1,-1,-2,-1,-1,-3,1
1514879663104124,-1,-1,-4,0,0,-1,2,5
1514879663104124,-1,-1,-1,-1,-2,1,-7,-12
1514879663105121,1,0,0,0,-3,-3,-7,-2
1514879663105121,0,0,1,-1,1,1,9,7
1514879663117147,-1,-4,1,0,-3,-2,1,-6
1514879663117147,-3,0,-3,0,0,-1,-5,5
1514879663126147,1,-2,1,-2,-1,-1,1,-2
1514879663126147,-1,-2,-2,-2,-3,-2,-8,-4
1514879663141160,-1,1,-2,0,1,-3,0,2
1514879663141160,0,-1,-2,1,-2,-1,4,2
1514879663143148,0,-1,-1,0,-2,-2,-1,0
1514879663143148,-3,1,-1,-1,-2,-2,-1,-2
1514879663164186,1,-3,-1,-2,-1,1,-3,-2
1514879663164186,1,0,-2,0,0,-2,1,0
1514879663165176,1,-1,-2,0,1,-1,2,-4
1514879663165176,-2,-2,0,-1,-1,0,-3,-1
1514879663177181,-1,-2,-2,-1,-1,-1,-2,-4
1514879663177181,-3,0,-2,0,-3,-2,-3,3
1514879663186178,-1,-2,-2,0,0,-1,0,0
1514879663186178,0,-1,0,-2,-1,-3,0,-2
1514879663201188,0,-1,0,-1,-2,-1,-4,-2
1514879663201188,-2,-2,0,-1,0,-3,-2,0
1514879663203191,0,-1,-1,-2,-1,-1,2,1
1514879663203191,0,-3,-1,-1,-1,-1,1,-3
1514879663224214,0,0,-2,1,-1,-1,-1,0
1514879663224214,0,1,1,-3,-2,-1,0,-1
1514879663225222,-4,0,-2,-1,-2,-1,-1,0
1514879663225222,-2,-2,-1,-2,-2,-2,-5,-1
1514879663237214,0,-1,-1,-2,-2,0,0,-2
1514879663237214,-1,-1,-1,0,-2,-1,2,-1
1514879663246232,-1,-3,0,-3,0,1,-2,1
1514879663246232,0,-2,-3,-1,0,-1,0,1
1514879663261253,-1,-3,-2,-2,-1,-1,0,-5
1514879663261253,-3,-1,2,0,0,0,-2,0
1514879663263247,1,-1,-1,-2,-2,-1,-3,-2
1514879663263247,-3,-1,-1,0,-1,1,-1,-3
1514879663284279,-2,0,0,-1,1,2,0,0
1514879663284279,0,0,0,-2,-1,0,2,0
1514879663285248,-4,-1,-1,0,0,1,-1,2
1514879663285248,-1,-1,-3,-2,0,2,-3,-1
1514879663297280,0,-2,-2,0,-3,-2,-4,-1
1514879663297280,0,-1,0,0,-1,-1,1,-3
1514879663306295,-2,-1,-1,0,-1,0,-2,-1
1514879663306295,0,0,0,-1,0,-2,0,-1
1514879663320273,-1,-2,0,-3,-3,-2,1,1
1514879663320273,2,-1,-2,0,-1,0,-2,-2
1514879663329278,-1,-1,-2,-1,-2,-1,2,3
1514879663329278,-1,-1,-1,0,-3,-2,1,-5
1514879663344290,-2,0,0,-1,0,-2,0,5
1514879663344290,1,-2,-1,0,-1,-1,-2,-7
1514879663346303,-2,0,-2,-1,-1,-2,0,-1
1514879663346303,0,0,-1,-2,-1,-1,-2,0
1514879663357328,1,0,-3,-1,-1,-1,-1,-1
1514879663357328,-1,-2,-3,-2,-2,-2,-3,-1
1514879663366308,0,-1,0,-1,-1,-1,1,-2
1514879663366308,-1,-2,-1,1,1,0,-1,-1
1514879663381325,-3,0,-1,1,-2,-1,-3,-7
1514879663381325,-4,-2,-2,-1,-1,-2,0,2
1514879663383326,0,-1,0,-2,0,-1,-2,-4
1514879663383326,1,-2,-1,-2,0,-3,-2,2
1514879663404336,-1,-1,-2,-2,0,0,-1,0
1514879663404336,1,0,-1,-1,-1,1,-2,-3
1514879663405334,-4,-2,-1,-2,0,-2,-3,-2
1514879663405334,1,-1,-1,-1,-2,0,-2,-1
1514879663417341,-2,-2,-2,-2,-2,1,-2,-2
1514879663417341,0,0,-1,-1,-2,-2,1,-1
1514879663426347,0,-2,-2,0,-2,-1,-2,0
1514879663426347,0,0,0,-2,-1,-2,0,-1
1514879663441370,-2,-1,1,-2,0,0,1,-2
1514879663441370,0,-2,0,-1,-2,-1,-1,2
1514879663443360,-1,-2,-1,2,-1,-1,-3,-3
1514879663443360,-3,-3,-3,-2,0,-2,-1,-2
1514879663464389,0,-1,-1,-1,-3,-3,-1,-2
1514879663464389,0,-2,-1,-1,-1,0,0,-2
1514879663465375,0,-3,-1,0,-1,-1,-2,-1
1514879663465375,-2,-2,-1,-3,0,-1,-1,0
1514879663477407,-2,1,0,0,0,1,-1,-1
1514879663477407,-1,-1,-3,-1,0,-1,-1,1
1514879663486442,-1,0,-3,-2,0,0,-4,-2
1514879663486442,-3,-2,0,1,-1,-2,-1,-2
1514879663501452,-1,-1,-1,-2,-1,-3,1,-1
1514879663501452,-1,-1,-1,-1,1,-1,-1,-1
1514879663503454,1,-2,0,-2,-2,-3,0,-1
1514879663503454,-2,0,-1,-2,-2,-1,-1,-1
1514879663523480,-2,-1,-1,-1,-1,0,-1,0
1514879663523480,0,-1,0,0,-1,0,1,1
1514879663525482,1,1,-1,-2,0,-1,1,-2
1514879663525482,-1,-2,-1,-3,-2,0,-2,-2
1514879663554494,0,-1,-2,-1,0,-3,-1,-1
1514879663554494,1,-3,-1,-1,-3,-3,-1,-1
1514879663555490,-4,-1,-1,0,-1,-1,2,-1
1514879663555490,0,1,0,-1,-1,1,-1,-2
1514879663561495,0,-2,-1,-1,-1,-2,-1,0
1514879663561495,-3,-1,1,-1,-1,-1,-3,-2
1514879663563511,1,0,-1,-1,0,-2,2,-3
1514879663563511,-1,-3,-2,-1,-1,-1,0,1
1514879663583535,-1,-2,-2,-2,0,0,-1,-3
1514879663583535,-1,0,-1,1,-1,0,0,-1
1514879663585512,0,0,1,-1,0,-1,-1,0
1514879663585512,0,-2,-1,-2,-2,-2,-2,-2
1514879663606536,-1,-1,-1,1,-2,0,-1,1
1514879663606536,0,-1,-2,-2,-2,-1,0,-2
1514879663607528,1,0,-3,-2,-3,1,-1,-2
1514879663607528,1,-1,0,-1,-1,0,1,-2
1514879663621537,0,-1,-2,-1,-1,-2,-1,-1
1514879663621537,-2,-2,-1,-2,-2,1,0,0
1514879663622538,-1,-1,0,0,0,-2,-2,0
1514879663622538,-2,-1,-2,0,0,-3,-3,-3
1514879663643554,0,0,2,-1,-2,1,3,-2
1514879663643554,1,-1,0,-1,-3,0,-2,-2
1514879663645554,-2,-2,-1,-1,0,0,-2,0
1514879663645554,1,-1,-1,0,-1,-2,-1,3
1514879663666593,-3,0,-1,0,-3,-2,-2,0
1514879663666593,0,1,-2,0,-1,-2,1,1
1514879663667593,-4,0,-3,-1,0,-1,-2,-3
1514879663667593,1,-2,-2,0,0,-3,-4,-2
1514879663680591,-2,-1,-2,0,-1,1,0,1
1514879663680591,2,-1,0,-2,-1,-2,1,0
1514879663687585,0,-3,0,-2,-3,-2,3,-2
1514879663687585,-3,0,-2,-1,-2,1,2,-4
1514879663703598,0,0,0,-2,-1,-4,1,-2
1514879663703598,-4,0,-1,0,-1,-1,-1,0
1514879663705597,0,-1,-2,-2,0,-3,-5,1
1514879663705597,-1,1,-2,-2,-2,-1,-2,0
1514879663726612,1,-3,-2,-1,0,0,-3,-4
1514879663726612,-3,-1,-1,-1,0,-2,3,-1
1514879663727613,-2,-1,-1,0,-3,0,-3,-5
1514879663727613,-2,0,-4,-2,-2,-2,1,1
1514879663740634,-2,-1,1,-1,-2,1,-1,0
1514879663740634,0,-3,0,0,0,-1,1,-1
1514879663747626,-1,-2,-1,-1,-1,-1,-1,2
1514879663747626,-2,-2,1,-2,0,-2,-1,0
1514879663763641,-1,-2,-1,-2,-2,-2,-1,-2
1514879663763641,-2,-2,-1,0,-2,0,-2,-2
1514879663765639,-1,-1,-1,-1,-1,0,0,0
1514879663765639,0,-2,-1,0,0,-1,-2,0
1514879663786655,1,-1,-3,-1,3,-2,-2,1
1514879663786655,-2,0,-4,-1,-1,0,-2,-1
1514879663787657,0,0,-1,-1,-1,-1,0,-1
1514879663787657,1,-2,-2,-2,0,-1,-2,-2
1514879663800664,-2,-2,-2,-2,-3,0,-1,-2
1514879663800664,-2,0,-2,0,-2,-2,-2,-1
1514879663807669,-3,-1,0,-1,-2,0,0,-1
1514879663807669,-1,-2,-1,1,-2,0,-1,1
1514879663823680,1,-1,-1,-2,-1,-2,-1,-1
1514879663823680,1,-2,-2,-2,0,-1,-2,0
1514879663825682,3,0,1,0,-1,-1,-3,0
1514879663825682,-3,-2,0,-1,0,0,0,-2
1514879663846698,-1,-1,0,-2,-1,-2,-4,-2
1514879663846698,-1,-1,0,-1,-1,-2,-1,1
1514879663847698,-3,-1,-3,-1,1,-1,1,-3
1514879663847698,0,-2,-3,-2,-2,-3,-2,-3
1514879663860706,1,0,-3,-2,-2,-2,1,1
1514879663860706,-3,0,0,1,-1,-2,0,-2
1514879663867711,-1,-2,-1,-1,-1,-2,-1,1
1514879663867711,-4,-1,-1,-1,-1,-1,-1,1
1514879663884723,1,-1,0,1,-2,-1,0,-1
1514879663884723,-2,0,1,-3,-1,1,-1,-1
1514879663886726,-4,0,-2,1,-1,-1,1,-2
1514879663886726,-2,-1,-1,-2,0,-1,0,0
1514879663906739,0,-1,-2,-2,-1,-2,-2,-4
1514879663906739,-2,-2,-1,-1,-2,-1,-1,0
1514879663907739,-2,-2,-1,-3,-1,0,0,1
1514879663907739,1,-1,-2,-2,-2,0,0,-1
1514879663920750,-3,-2,1,2,-1,-1,-1,0
1514879663920750,2,-2,-1,0,-1,-1,0,0
1514879663927758,1,-1,0,-1,0,-2,-4,0
1514879663927758,-2,-1,-3,0,-1,-1,0,-3
1514879663943770,-2,-1,-2,-1,1,0,3,1
1514879663943770,0,0,-2,0,-2,-3,1,-3
1514879663945779,-1,-3,0,-2,0,-1,-1,0
1514879663945779,1,-1,-1,-2,-1,-1,-2,-1
1514879663966784,-2,1,-1,0,0,1,-2,0
1514879663966784,-1,-2,0,-1,0,-2,0,-2
1514879663967782,1,0,-1,0,-1,-1,-2,0
1514879663967782,0,1,0,0,-1,-1,1,1
1514879663980791,-1,-1,0,1,-1,0,-3,0
1514879663980791,-1,-2,-2,-2,-5,-1,1,-1
1514879663987796,-1,-1,-2,-3,-1,-1,0,0
1514879663987796,-1,-1,-1,-1,0,-2,0,-3
1514879664003810,-2,-2,-2,-1,-2,-1,0,-1
1514879664003810,-2,0,0,0,0,-3,-2,-1
1514879664005809,-2,0,1,2,-3,0,-4,0
1514879664005809,1,-1,-3,-5,-3,-2,0,-1
1514879664026826,-1,-1,-2,-1,0,-1,-2,-1
1514879664026826,1,-1,0,-2,0,0,0,0
1514879664027826,-2,-1,-3,-3,-1,0,1,-3
1514879664027826,1,-1,1,1,1,-2,-1,-2
1514879664039833,0,-2,0,1,0,-2,1,-3
1514879664039833,-1,-2,-1,-2,-1,-1,0,1
1514879664048840,-2,-1,-2,-1,-1,-2,0,0
1514879664048840,-1,-1,0,-1,-2,-2,-2,1
1514879664063850,-3,0,-1,-3,-2,-2,-4,1
1514879664063850,1,-1,-2,0,-1,1,1,-1
1514879664065851,2,1,-2,-1,-1,-2,1,0
1514879664065851,-2,-2,-2,-1,-1,-2,-2,0
1514879664086869,-1,0,-2,-1,-1,-1,-2,-2
1514879664086869,-3,-2,0,0,0,0,-4,-2
1514879664087867,-1,-1,-4,1,0,-1,-2,-2
1514879664087867,-2,-1,-3,0,0,1,1,-1
1514879664099875,1,-1,-1,0,-2,-2,0,-1
1514879664099875,-2,0,-1,0,-2,0,0,-1
1514879664108885,-2,-1,-1,-2,-2,-1,-6,-1
1514879664108885,-3,-3,-1,0,0,0,1,-1
1514879664123892,-1,-2,0,-1,-1,0,1,-2
1514879664123892,1,-1,-2,-2,-2,-1,0,1
1514879664125894,0,-1,-1,-4,-2,-1,0,-1
1514879664125894,-2,-1,0,-2,-3,-1,-1,-4
1514879664145909,-2,-1,0,-1,-1,-4,-1,1
1514879664145909,0,1,-1,1,0,-1,-4,-2
1514879664147909,-1,-2,-1,0,-1,-1,-2,-2
1514879664147909,1,-1,-1,1,-2,0,-2,0
1514879664159918,0,-2,-1,-2,-1,0,-1,-3
1514879664159918,-1,-1,0,-1,-2,0,0,1
1514879664168924,-3,-4,1,-1,1,-2,-2,-1
1514879664168924,0,-1,-3,0,1,-1,-4,-1
1514879664184961,0,-2,0,-1,-1,0,-1,-2
1514879664184961,0,-1,-3,-1,-1,0,1,-4
1514879664185937,1,-1,-2,-1,-2,-3,-3,-1
1514879664185937,0,-1,-1,-1,0,-2,0,-2
1514879664205950,0,0,-1,0,0,-1,-1,-1
1514879664205950,-1,-1,-1,-1,-1,0,0,2
1514879664207951,0,0,-1,0,0,-1,1,0
1514879664207951,0,-2,-2,-1,-1,-1,-1,0
1514879664219960,-2,-1,-2,-2,0,-3,-1,-2
1514879664219960,-2,-3,0,-1,0,-4,-4,-1
1514879664228967,-2,0,1,-1,0,0,0,-3
1514879664228967,1,-2,0,-2,-1,-3,1,-1
1514879664243981,0,-2,0,-1,0,-1,0,-2
1514879664243981,0,-1,-2,0,-2,-2,-2,-2
1514879664244978,1,0,-2,0,0,0,-3,1
1514879664244978,-2,-1,-1,-1,-1,1,-4,0
1514879664265992,0,0,-1,-1,-3,0,1,2
1514879664265992,-2,-3,0,-2,-1,-2,1,0
1514879664267994,0,0,-1,-2,0,-2,2,-4
1514879664267994,-2,-1,-2,0,-1,0,-1,2
1514879664280005,-2,0,1,-1,-1,-1,-1,-1
1514879664280005,-2,-2,-2,-2,0,-1,-2,0
1514879664289018,0,-1,-1,-3,-1,0,0,-4
1514879664289018,-2,-2,-1,0,-2,-3,-2,0
1514879664304021,-1,-2,-2,-1,-2,-1,1,-3
1514879664304021,1,-2,0,-1,-1,-1,1,-1
1514879664305020,0,-1,0,-1,-1,-1,0,-2
1514879664305020,0,-1,1,-1,-1,0,-1,-1
1514879664326035,0,-1,-2,0,-1,-1,-4,2
1514879664326035,-2,-1,0,0,-1,-2,-3,-1
1514879664328043,-4,-2,-1,0,-1,-1,1,-2
1514879664328043,-1,-2,-1,-2,-2,0,-1,-1
1514879664340045,0,-1,-3,-1,-1,-2,1,-2
1514879664340045,1,-1,-1,-1,-1,0,-2,-3
1514879664349053,-1,-2,-1,-1,0,0,-1,0
1514879664349053,-2,1,0,-2,1,-1,0,0
1514879664364063,0,-2,-1,-2,-2,0,0,0
1514879664364063,-2,-1,-2,-1,-3,0,1,-3
1514879664365075,-1,-2,0,-1,-1,0,-2,-1
1514879664365075,-1,1,-2,-2,0,-2,-3,-3
1514879664386107,0,-1,-1,-1,-2,0,0,0
1514879664386107,-3,0,0,0,-2,-1,0,1
1514879664388079,-2,-1,-3,1,-1,-2,-5,1
1514879664388079,-1,-2,0,-1,-1,0,2,-3
1514879664400087,-1,0,-1,-2,0,-1,0,1
1514879664400087,-3,1,-1,-1,-1,1,1,-1
1514879664409093,-1,-2,-1,0,-1,-2,-2,-2
1514879664409093,-3,-2,-1,-1,-4,0,-3,-2
1514879664423103,1,-1,-1,-1,0,0,1,1
1514879664423103,0,0,-3,-1,-1,-1,0,0
1514879664431110,-2,1,-3,-3,-1,1,-2,1
1514879664431110,2,-2,-1,0,-1,-2,-1,-1
1514879664445119,-2,0,-1,-1,-1,0,1,-3
1514879664445119,2,-2,-1,0,0,-1,-4,-2
1514879664454130,-2,0,-2,-1,-2,-1,-1,0
1514879664454130,0,0,0,0,-2,-1,-1,0
1514879664469136,-3,-3,-2,0,-2,-2,-3,-1
1514879664469136,-3,-2,-2,-2,1,-2,-1,-1
1514879664470138,-1,-2,-1,-1,-1,-3,0,-3
1514879664470138,-1,-1,-1,-1,-1,-2,1,1
1514879664484149,1,1,0,0,-2,-3,0,-1
1514879664484149,0,0,2,-2,-1,-2,-2,-1
1514879664486148,-3,-2,-2,-1,0,-1,-1,-2
1514879664486148,0,-1,-3,-2,-1,-2,-1,0
1514879664506162,-1,-2,1,-1,-1,1,-1,-3
1514879664506162,2,-2,-2,0,0,-1,-2,1
1514879664508164,0,-1,1,-1,-1,0,-1,0
1514879664508164,-2,-1,-3,-1,0,-1,-1,-2
1514879664529189,-2,0,-2,-2,-1,-1,-2,-1
1514879664529189,-2,-1,0,0,-2,0,0,3
1514879664530180,0,-1,-2,0,-2,-1,-2,0
1514879664530180,-1,-2,-2,-1,0,-3,1,-4
1514879664544244,0,1,-1,1,-3,0,-2,0
1514879664544244,-3,-1,-1,-3,-3,1,-1,-3
1514879664545225,1,-2,2,-1,1,-1,1,0
1514879664545225,-2,-1,-1,0,-1,0,-3,-1
1514879664566241,-1,-2,1,0,0,0,-3,-1
1514879664566241,-2,0,-1,-2,-1,-1,0,0
1514879664568239,-1,-2,-4,-2,1,-1,-2,-1
1514879664568239,1,-1,0,0,-1,-1,-1,-2
1514879664589263,-1,0,-1,0,0,-3,-1,-2
1514879664589263,-2,0,-2,1,-2,-3,-2,-2
1514879664590254,-1,-3,3,-1,-2,-4,1,-2
1514879664590254,-1,-1,-1,-1,-1,-1,0,0
1514879664604279,0,0,-3,1,-1,-1,-4,1
1514879664604279,-2,0,2,1,0,-1,-4,-1
1514879664605265,0,-1,-3,-5,-4,-1,-3,-2
1514879664605265,-2,-1,0,0,0,0,3,-2
1514879664626281,-1,-1,-1,-1,1,-2,-1,-3
1514879664626281,1,0,-2,-1,0,-1,-3,0
1514879664628281,-3,1,0,1,0,0,2,2
1514879664628281,-3,-2,-2,-2,-3,-1,-3,3
1514879664649309,2,0,-1,-1,-2,-1,1,-2
1514879664649309,1,-2,-2,-2,-2,-1,0,-1
1514879664650297,1,0,-1,-1,1,-1,-3,0
1514879664650297,-2,0,-1,0,0,-1,0,0
1514879664663327,-1,-2,-1,0,-2,-2,0,1
1514879664663327,1,0,0,-2,-2,-1,-2,-2
1514879664670323,1,-3,-2,-2,0,-1,-3,-2
1514879664670323,1,-2,-1,0,0,-1,0,-3
1514879664686322,-2,-3,-1,0,0,-1,2,-2
1514879664686322,-2,-1,-1,-2,-1,-2,0,0
1514879664688323,-1,0,-2,-2,-2,-1,1,0
1514879664688323,-3,-1,-1,-2,-1,-2,0,-2
1514879664709339,-2,-1,0,-2,-1,-2,-1,-1
1514879664709339,-1,-3,-1,0,0,0,0,-1
1514879664710340,-2,-1,-1,-1,-1,1,-1,-1
1514879664710340,1,-2,0,-2,-1,-1,-2,-3
1514879664731366,1,-1,1,-2,-2,-1,1,0
1514879664731366,-2,1,-3,1,0,-1,-2,-2
1514879664733358,0,1,-1,1,-2,-4,-3,-1
1514879664733358,1,-2,-3,0,1,1,1,-1
1514879664746365,-3,-2,0,0,-1,0,1,-1
1514879664746365,-2,-3,-1,-2,-2,-1,1,0
1514879664748366,0,-2,-1,-1,-1,-1,-3,-2
1514879664748366,-2,-1,0,0,-3,0,-1,0
1514879664769381,-2,0,-1,-1,0,-2,0,-1
1514879664769381,1,0,0,-2,-1,0,2,-3
1514879664770385,-4,-1,-3,-2,-1,-3,-2,-1
1514879664770385,1,-1,-2,-3,-1,-2,-3,2
1514879664783404,-2,-2,-2,0,-2,-1,-1,0
1514879664783404,0,-1,-2,-1,-2,1,-1,0
1514879664790397,2,-1,-1,0,-1,-2,-1,2
1514879664790397,-1,1,-1,-2,-2,-2,-1,1
1514879664806467,-1,0,0,0,-2,-1,-3,-3
1514879664806467,-2,-2,-1,-2,0,-2,-4,0
1514879664807469,-4,-2,-1,-3,0,-1,1,-4
1514879664807469,-3,-3,-1,-3,-2,-2,-1,-1
1514879664828472,0,-2,-1,0,-2,-1,1,0
1514879664828472,-1,-2,-2,0,0,-1,-2,-3
1514879664830471,-2,-2,0,1,-1,0,-2,1
1514879664830471,0,0,0,-1,-1,-1,0,-1
1514879664843525,-2,-1,-3,1,-2,-1,-1,-3
1514879664843525,-2,-2,0,0,-3,-1,0,2
1514879664849549,-3,-2,0,-1,-1,0,-2,-2
1514879664849549,-2,-1,-1,-1,-1,0,-1,-5
1514879664866567,-1,-3,-1,-2,-1,-3,0,-1
1514879664866567,0,-1,-3,-2,-3,-3,1,-3
1514879664867568,1,-1,0,-2,0,-1,-1,1
1514879664867568,-2,-1,0,-1,-3,-2,-3,-2
1514879664888578,0,0,0,-3,-1,-1,-3,1
1514879664888578,-2,-2,-1,0,-1,0,0,-2
1514879664890578,1,1,-2,0,0,-1,0,0
1514879664890578,0,0,-1,0,-1,-3,-2,-2
1514879664903594,0,-3,-1,0,0,0,0,-2
1514879664903594,0,-1,-1,-2,-1,-3,1,0
1514879664909592,0,-2,-1,-1,-2,-1,0,0
1514879664909592,4,-1,-1,-1,0,0,-1,-1
1514879664926604,1,0,-3,-2,-2,-1,1,-2
1514879664926604,-5,0,-2,-1,-2,0,-1,-5
1514879664927593,-1,-1,-1,0,1,0,-2,-1
1514879664927593,-2,-2,-1,-1,1,-3,-1,2
1514879664948620,-1,1,-1,-2,-1,1,-2,0
1514879664948620,3,-2,0,0,1,0,-2,1
1514879664950609,-5,-1,0,-1,-2,0,-5,1
1514879664950609,-2,-3,-1,-1,-2,-1,-2,-2
1514879664963617,-1,0,-1,-1,0,-2,2,0
1514879664963617,0,0,-1,-1,0,-2,-1,0
1514879664969639,1,0,0,-1,-1,1,-2,1
1514879664969639,-1,-1,-1,-2,-2,0,-2,-1
1514879664986643,-3,1,-1,-1,-2,-2,0,0
1514879664986643,0,0,-1,-2,-1,0,-2,0
1514879664987646,-2,-3,-3,-3,0,-1,1,-4
1514879664987646,-2,-2,0,-1,0,-1,-1,0
1514879665008661,0,-1,-1,-2,-1,-1,-3,-1
1514879665008661,-1,-1,-1,1,2,-3,-4,-2
1514879665016665,-2,-1,-2,-2,-2,0,3,-2
1514879665016665,-2,-1,-1,-1,-2,-2,0,-3
1514879665022668,-1,-1,-2,-1,-1,0,-1,2
1514879665022668,-2,-1,1,-1,-1,0,-1,2
1514879665031665,-1,0,-1,-1,-3,-1,1,1
1514879665031665,2,-1,0,-1,0,-1,-2,0
1514879665046690,2,-1,-1,-2,-1,-1,-1,-1
1514879665046690,0,-1,0,0,0,-2,0,-1
1514879665047684,0,-1,-2,0,-1,-2,0,-3
1514879665047684,-1,0,-2,0,-2,-1,1,-2
1514879665068712,0,-1,0,0,-2,-1,-1,-2
1514879665068712,-1,0,-2,0,-1,-2,-2,2
1514879665070707,-2,-2,-1,-2,0,-2,-1,-4
1514879665070707,0,-2,-2,-1,-1,0,-1,0
1514879665082724,1,-1,-1,0,1,-2,0,-4
1514879665082724,0,1,-1,-1,-2,0,-1,-1
1514879665091735,0,-3,-3,-2,0,-2,-3,0
1514879665091735,-6,-1,0,-2,-1,1,0,-1
1514879665106761,-2,-2,0,-2,-1,-2,-2,-2
1514879665106761,-3,-1,-1,-2,-1,-3,0,-2
1514879665107748,-1,-3,-1,0,-2,-1,-1,1
1514879665107748,1,-1,-1,0,-1,0,-1,-1
1514879665128777,2,-2,-1,1,-4,-1,1,-1
1514879665128777,0,-1,-2,-1,-2,-1,-2,-1
1514879665130761,-1,-2,-2,-2,-2,0,-2,-1
1514879665130761,-3,-1,-2,0,0,0,1,-1
1514879665142787,-2,-1,-3,-3,-2,0,-1,0
1514879665142787,-2,-1,0,0,-2,0,0,-3
1514879665158781,2,0,-2,-1,-1,-2,-2,-1
1514879665158781,0,-2,-3,-1,-1,-2,-1,0
1514879665166800,-2,0,1,0,-3,-1,-3,-1
1514879665166800,-2,-1,-2,0,1,-1,-2,-2
1514879665167806,-3,1,1,-3,0,0,-2,-4
1514879665167806,0,1,-2,-2,1,-2,-1,2
1514879665188808,-1,-1,-1,-2,0,0,-1,0
1514879665188808,0,0,-1,-1,-3,0,-2,0
1514879665190826,-1,0,-1,0,-3,0,0,-1
1514879665190826,1,-1,-1,-1,-2,-1,-1,-3
1514879665202827,-3,-3,-2,0,1,0,0,-1
1514879665202827,0,-3,-1,0,-1,0,-3,2
1514879665211820,0,-1,-3,-2,-1,-2,-1,-1
1514879665211820,-3,0,0,0,-3,-3,-4,-3
1514879665225839,1,-2,-1,0,-1,-2,0,-1
1514879665225839,-1,-1,2,-1,0,-1,1,-1
1514879665227841,-1,-2,-1,-1,-2,-2,1,0
1514879665227841,-1,-1,-1,-1,-1,-1,-3,-3
1514879665248918,1,1,0,0,0,0,-2,1
1514879665248918,-4,-1,-3,-2,0,-1,1,-1
1514879665250855,1,-2,-1,-2,-2,-2,-3,0
1514879665250855,-1,0,-1,-1,-2,-3,0,0
1514879665270861,1,0,-3,-2,-1,-1,-1,-1
1514879665270861,-1,-2,-1,-2,0,0,-1,-3
1514879665271862,-1,-1,-1,-1,0,0,-1,-2
1514879665271862,2,0,-1,-2,0,-1,2,-1
1514879665285923,-4,-1,0,-2,-2,-1,-2,0
1514879665285923,0,-3,-2,-2,-1,-1,-3,1
1514879665286872,-1,0,0,-1,-1,-1,-1,-1
1514879665286872,1,-1,-1,-2,-3,-1,-3,-1
1514879665307886,-1,0,-2,-1,-1,-2,-4,0
1514879665307886,1,0,-1,-2,-3,-1,0,-2
1514879665308904,-3,-1,-1,-2,-1,-2,-1,-1
1514879665308904,-2,-3,-2,0,2,1,2,1
1514879665330913,-2,-1,-2,-1,-2,-1,1,-4
1514879665330913,-3,0,-1,-1,-3,-2,-2,0
1514879665331913,0,0,0,-1,1,-1,-3,-1
1514879665331913,-1,-1,-2,0,1,-1,1,-1
1514879665345938,0,-1,0,-2,0,0,-1,-1
1514879665345938,-3,0,-1,-1,-1,0,-3,-3
1514879665346914,-2,0,0,1,-2,-1,-1,-2
1514879665346914,-3,-1,-2,-3,-1,-3,0,-1
1514879665367955,0,0,0,-1,-1,0,-3,-1
1514879665367955,1,-2,-1,-2,0,-3,-1,-2
1514879665368943,-2,-2,-1,-4,-2,-1,-2,-2
1514879665368943,0,-1,0,-1,-1,0,-1,-2
1514879665390945,0,-2,-1,0,-2,0,0,2
1514879665390945,0,-3,0,-2,0,-2,-3,1
1514879665391945,-1,0,-1,-2,-2,0,-1,0
1514879665391945,-1,0,-1,-2,-2,-1,-2,-3
1514879665405956,2,1,0,-2,-1,-3,-1,-3
1514879665405956,-1,0,-1,0,-2,0,-1,-2
1514879665405956,0,-3,-2,-2,0,2,1,-2
1514879665405956,-2,-1,-2,-3,0,1,-3,-1
1514879665427971,-2,-4,0,1,-2,0,0,2
1514879665427971,0,0,-1,0,-2,-2,0,-1
1514879665428972,-2,-1,-1,-1,0,-1,-1,-2
1514879665428972,0,0,0,0,1,-1,0,-4
1514879665450997,-1,0,-1,-2,-1,-1,-1,-2
1514879665450997,-1,-1,-2,-2,0,-1,-2,3
1514879665450997,2,-1,-2,1,-1,-2,0,2
1514879665450997,-1,0,0,-2,0,0,1,0
1514879665466008,-3,-1,-2,0,2,0,0,-1
1514879665466008,-1,0,0,0,0,0,2,-1
1514879665466008,0,-1,0,-1,-1,-3,-3,-1
1514879665466008,-2,-2,0,0,-4,0,-1,1
1514879665488045,-1,-1,-2,-2,-3,-1,1,-1
1514879665488045,0,0,-1,0,-2,0,0,-1
1514879665489053,-2,-2,-1,-2,0,-1,-1,-2
1514879665489053,-2,-2,-1,-1,-3,-3,-1,1
1514879665511042,-1,-2,0,0,-1,-1,2,-3
1514879665511042,1,-3,0,-2,0,-1,-1,-1
1514879665511042,-1,1,-2,-2,0,-1,-1,-3
1514879665511042,0,0,-2,-1,1,1,-2,1
1514879665526040,1,-2,-1,-2,-1,-2,0,-3
1514879665526040,-5,-1,-2,0,-2,-2,-1,-2
1514879665526040,-2,-2,0,0,1,1,0,0
1514879665526040,0,-2,0,-1,0,-2,0,-3
1514879665549076,-1,-1,-1,-1,-2,-1,-1,0
1514879665549076,2,-1,-1,-2,-1,-3,-2,0
1514879665549076,-3,0,-2,-2,-1,-1,0,-4
1514879665549076,-1,0,-2,-1,-1,-1,0,-3
1514879665571083,0,-1,-2,0,-2,-1,-2,-2
1514879665571083,-3,0,-2,-2,-1,0,-3,0
1514879665571083,1,-2,0,0,-1,-1,-1,0
1514879665571083,0,-1,-1,0,0,-3,-1,-1
1514879665586108,0,0,-1,-1,-2,-2,0,-2
1514879665586108,-2,-1,-1,-2,-3,-1,0,-3
1514879665586108,0,-1,-3,-2,-1,-3,-4,0
1514879665586108,-1,-2,-1,0,-1,0,0,-2
1514879665608110,-2,-1,-3,-2,-2,-2,-2,0
1514879665608110,-1,0,-2,1,-2,-1,-2,-2
1514879665609099,-2,-1,0,-1,-3,0,0,1
1514879665609099,-1,0,-1,-1,-2,-3,-1,1
1514879665631115,-1,-1,1,-1,0,1,3,-2
1514879665631115,1,-3,-2,-2,1,-2,1,0
1514879665631115,-2,-2,-1,-1,0,-1,-2,0
1514879665631115,0,0,-2,-1,-2,0,-2,-5
1514879665646129,0,0,0,-2,0,0,-2,1
1514879665646129,-1,-2,-2,0,0,0,-1,-2
1514879665646129,-2,0,-2,-2,-1,0,-2,-1
1514879665646129,-2,-1,-1,-2,-1,-2,2,-1
1514879665668141,-2,-2,-1,1,0,0,1,-1
1514879665668141,-1,-1,-1,-3,0,-1,1,1
1514879665669160,1,-1,-1,0,-1,0,1,1
1514879665669160,0,-1,-1,-1,-2,-1,-1,-4
1514879665691169,-1,-2,0,-2,-1,0,-2,-3
1514879665691169,0,-2,0,-2,0,0,0,0
1514879665691169,-2,0,-2,-2,-1,-1,1,-3
1514879665691169,-1,-1,-1,-1,-1,-1,-4,-1
1514879665714173,1,0,-2,-2,-2,-2,-1,1
1514879665714173,-1,0,0,-1,-1,-2,-1,1
1514879665715183,0,-1,-1,-2,-1,-2,-1,0
1514879665715183,-1,-1,0,0,-3,-1,-1,0
1514879665728193,-2,0,0,-1,1,-2,-4,-2
1514879665728193,-2,-1,0,0,-2,0,-4,-5
1514879665729184,1,-2,-3,0,0,-1,1,-1
1514879665729184,-3,-1,-2,-2,0,-2,2,2
1514879665750199,0,0,-1,-2,0,-3,-1,-1
1514879665750199,0,0,-1,-1,-1,-3,-1,0
1514879665751199,-3,0,-2,0,-1,-2,-5,-1
1514879665751199,2,-1,-2,0,0,-1,-2,-3
1514879665766222,-2,-2,-1,-1,-3,2,-4,-2
1514879665766222,0,-2,-2,-1,0,-2,1,-2
1514879665766222,-2,-1,-1,0,-3,-1,-2,-1
1514879665766222,0,-2,-1,-2,0,-2,-2,-1
1514879665788226,2,-1,-2,1,-1,-1,0,-1
1514879665788226,1,0,-1,0,-2,-1,-2,-2
1514879665789238,-3,-2,-1,-2,-2,-3,2,-3
1514879665789238,-2,0,-2,-3,-3,-2,-1,1
1514879665810241,0,-1,0,-2,0,-1,-1,-2
1514879665810241,-3,-2,0,-1,-1,1,-3,1
1514879665812244,-2,-3,0,-2,0,-2,-3,0
1514879665812244,-1,-1,0,0,-2,0,1,-1
1514879665827253,-1,-2,-1,-1,-2,-2,-1,0
1514879665827253,-2,0,-1,-2,-2,1,0,-1
1514879665828264,-3,-2,0,-1,0,0,1,0
