timestamp,emg1,emg2,emg3,emg4,emg5,emg6,emg7,emg8
1513481299204718,1,1,1,-2,-1,-3,-3,0
1513481299204718,-3,-1,-1,1,-1,-2,-5,-5
1513481299212726,-1,-3,0,0,-1,0,0,0
1513481299212726,-1,-1,1,2,-3,1,1,1
1513481299227734,2,1,-2,-2,0,-2,0,-1
1513481299227734,0,1,-3,-3,2,-1,-1,-1
1513481299229737,1,-5,2,-3,-2,-1,2,-1
1513481299229737,0,1,0,3,-2,-2,-2,2
1513481299250752,0,-6,-2,-3,0,0,-1,1
1513481299250752,-1,-1,-2,-2,-2,-2,-1,-3
1513481299251752,-1,-1,-2,1,-1,3,2,-3
1513481299251752,-5,0,0,-3,-3,-1,-4,-2
1513481299264759,3,-1,-3,0,0,-3,-5,-6
1513481299264759,-1,-2,-1,-2,-1,0,-2,-1
1513481299272776,-3,-3,-2,-1,-4,-2,0,0
1513481299272776,-2,-2,1,1,-3,-1,1,-1
1513481299287787,0,1,-2,-2,0,1,-4,0
1513481299287787,0,-3,-5,-3,-2,-1,0,-4
1513481299288776,0,-1,-2,-2,-1,-1,1,2
1513481299288776,-2,-2,2,2,0,0,-2,-1
1513481299310801,-2,-3,-2,-2,1,-1,-2,3
1513481299310801,2,0,0,-1,-2,-2,-1,-2
1513481299311793,0,1,-1,-1,-2,-3,-1,0
1513481299311793,0,-3,-2,-2,-2,-1,3,-1
1513481299324803,-1,-2,-3,0,3,-3,-2,-2
1513481299324803,-4,0,-3,-2,2,0,-2,-3
1513481299332809,-3,1,2,-1,-1,0,-3,-1
1513481299332809,-3,2,-1,-2,-2,1,-1,-1
1513481299347828,-2,0,-1,1,1,-1,-2,0
1513481299347828,-1,-1,-5,1,1,0,-3,2
1513481299348829,-1,0,5,-2,-4,-1,0,-2
1513481299348829,0,-4,0,0,-3,0,0,-3
1513481299370846,2,-1,-1,0,-1,0,-2,-3
1513481299370846,-3,-1,-4,-1,-1,-2,-2,1
1513481299371835,-1,-4,1,-1,-2,-2,2,-1
1513481299371835,1,-1,0,-1,0,-3,-3,-1
1513481299384844,2,-2,-5,-1,3,1,2,1
1513481299384844,-2,0,-1,-3,1,-3,1,-3
1513481299392859,-2,-4,0,1,-5,-1,0,-2
1513481299392859,-3,0,0,0,-2,-2,-1,0
1513481299407875,-3,0,-3,-2,3,-1,-3,0
1513481299407875,-1,-1,-1,-1,-4,-2,-3,-2
1513481299408876,0,0,2,0,-5,-2,4,-3
1513481299408876,-1,1,-2,0,-3,-1,-2,1
1513481299430876,-1,-2,-3,-4,2,-1,1,-1
1513481299430876,-1,1,-2,-3,-2,0,0,1
1513481299431878,-7,-1,-1,-1,-3,1,2,-3
1513481299431878,0,0,3,0,0,0,3,-2
1513481299444901,3,2,-2,0,2,-1,-5,0
1513481299444901,-3,-2,-4,-2,-1,1,3,0
1513481299452906,-1,-3,0,-3,-2,0,-2,2
1513481299452906,-1,-2,-1,2,1,-2,-3,-1
1513481299467915,-2,-1,-4,-2,6,-1,-3,-2
1513481299467915,4,-1,-2,-1,-1,-1,1,0
1513481299468915,-3,-1,2,1,-5,2,2,-1
1513481299468915,-3,0,1,-2,1,0,-1,1
1513481299490934,-1,0,-4,-1,3,-3,-5,1
1513481299490934,-4,-2,-3,1,1,-1,0,-3
1513481299491922,-1,0,3,1,-2,-1,1,-2
1513481299491922,0,0,1,1,0,-1,-1,-5
1513481299504950,4,-1,-3,0,0,0,-6,-2
1513481299504950,-2,2,-1,-4,-1,-1,3,2
1513481299512950,-3,-3,0,-2,-3,-1,3,0
1513481299512950,-1,-2,0,2,0,-3,-2,0
1513481299527966,-4,-1,-2,-2,1,-2,-3,0
1513481299527966,0,-2,-3,-2,-2,-3,-4,0
1513481299528947,0,1,5,-3,-10,-2,4,-3
1513481299528947,-3,-3,0,1,-2,-2,-4,-1
1513481299550971,2,2,-5,-1,3,0,0,-1
1513481299550971,-2,-1,-2,-1,-2,0,-4,-4
1513481299551972,-4,1,1,0,-6,-2,3,-2
1513481299551972,3,1,-1,-1,-1,1,-2,0
1513481299572992,2,-1,-2,-2,3,-1,-1,-1
1513481299572992,1,0,-1,-2,0,-1,-2,0
1513481299573978,-2,-6,1,1,-7,-2,0,0
1513481299573978,0,1,0,-2,1,-1,-1,-1
1513481299587997,-2,1,-3,-1,0,-1,-1,-1
1513481299587997,1,-2,-1,-1,1,1,0,-1
1513481299587997,-3,-1,2,-2,-4,-2,2,2
1513481299587997,-3,-2,2,0,-2,1,1,-3
1513481299611005,3,-1,-4,-3,3,-2,-2,-2
1513481299611005,-1,-1,-1,-2,1,0,0,-3
1513481299612006,-1,-1,2,0,-5,-2,2,-2
1513481299612006,-2,0,1,2,-2,2,0,-3
1513481299634030,-2,0,-3,-1,4,1,-3,-1
1513481299634030,-1,-3,-3,-3,-2,-1,2,0
1513481299634030,-1,-1,4,0,-4,-1,-2,1
1513481299634030,-3,-1,1,-1,-3,-2,-3,-1
1513481299648040,-3,-3,-4,0,1,-3,-3,-2
1513481299648040,-1,-2,0,2,-1,1,-2,2
1513481299648040,-2,-1,2,-1,-7,0,4,-3
1513481299648040,0,1,-1,-2,-2,-3,-1,0
1513481299671065,1,-2,-5,-2,3,0,-4,3
1513481299671065,-2,-3,-2,-4,-3,-5,-3,-1
1513481299672047,-1,2,2,0,-5,-1,1,-3
1513481299672047,1,-1,-1,0,2,-1,0,-2
1513481299693087,2,-1,-5,-2,8,1,-2,-1
1513481299693087,-1,0,-3,-3,-4,-2,1,-2
1513481299694075,-2,-2,1,-1,-6,0,-1,1
1513481299694075,-1,-2,-2,0,0,-2,2,3
1513481299708084,-2,0,-5,0,3,-4,-2,0
1513481299708084,-2,-2,0,-3,-1,-2,-2,-1
1513481299708084,0,-1,0,2,-3,0,0,-2
1513481299708084,-3,2,0,0,-1,-1,-2,1
1513481299731102,1,-2,-5,-2,2,-2,-4,-2
1513481299731102,3,-2,-1,0,3,1,-2,0
1513481299732090,-2,-1,2,0,-5,-2,3,-3
1513481299732090,-2,-3,1,-1,0,-2,-2,-1
1513481299753128,-3,1,-3,1,4,-1,-3,0
1513481299753128,-3,-1,0,-2,-4,0,3,-3
1513481299754106,-1,-2,1,1,-3,0,0,0
1513481299754106,-2,2,-1,-3,-1,1,-1,-1
1513481299768125,-4,0,-3,2,-2,-2,-5,-1
1513481299768125,5,1,-2,-2,-1,-4,0,-2
1513481299768125,-1,-1,1,0,-3,-1,3,-2
1513481299768125,-1,-2,0,-2,0,-3,-1,-4
1513481299791189,1,-3,-1,-3,2,0,-4,0
1513481299791189,0,1,-2,-1,0,0,-1,1
1513481299792176,1,0,4,2,-3,0,0,-3
1513481299792176,0,0,-3,-4,0,0,-1,1
1513481299813148,1,1,-4,-3,7,0,-3,-2
1513481299813148,0,-4,-3,-1,0,-2,-1,0
1513481299814168,-3,0,4,0,-4,-2,4,-1
1513481299814168,-2,-3,-1,-1,3,1,1,0
1513481299828157,-2,0,-6,-4,-2,1,-3,-3
1513481299828157,-3,1,0,-4,-6,-1,0,-1
1513481299828157,-4,-2,3,1,-4,0,2,1
1513481299828157,0,-1,-1,1,-2,-2,-1,-2
1513481299851174,-1,1,-4,1,2,-2,0,-1
1513481299851174,-1,-4,-1,0,-1,-2,-2,-3
1513481299852175,-3,-1,1,-3,-6,0,-2,-1
1513481299852175,0,-4,2,1,0,0,0,-2
1513481299881195,2,-2,-4,-4,3,-1,-5,-1
1513481299881195,-4,-1,-1,0,-3,1,0,-1
1513481299882196,1,-1,0,-1,-5,-4,3,0
1513481299882196,-1,-1,-1,-1,-1,-4,3,-3
1513481299888215,-5,-4,-3,-3,4,-1,-1,3
1513481299888215,-1,0,-2,-2,-4,-1,1,-2
1513481299888215,-1,1,2,0,-6,1,-2,-3
1513481299888215,2,0,0,2,0,-1,-1,0
1513481299911232,0,1,-5,0,3,-2,-5,-5
1513481299911232,0,0,-1,-1,0,0,4,1
1513481299912233,-1,-1,3,-1,-4,0,0,-1
1513481299912233,-1,-1,-3,-1,3,0,-4,-1
1513481299933257,0,-1,-2,-1,2,-1,-2,-1
1513481299933257,1,-3,0,-3,-3,-3,-3,-3
1513481299934249,-4,0,2,1,-4,-2,1,1
1513481299934249,-2,0,-2,0,0,-1,-1,-1
1513481299948258,2,-2,-5,-4,0,-4,-2,1
1513481299948258,-4,-2,-2,-2,1,1,-3,-3
1513481299948258,-3,-3,5,-4,-3,0,0,-1
1513481299948258,-1,-3,0,3,-3,2,0,3
1513481299971295,-2,2,-3,-4,0,-3,-2,-1
1513481299971295,-1,2,-3,-2,-1,-3,0,-2
1513481299972275,1,1,2,1,-5,-1,-1,-2
1513481299972275,-2,1,1,0,-1,-1,-3,1
1513481299993313,-3,-3,-2,-6,2,0,-1,-3
1513481299993313,-3,0,-1,0,-3,-1,-1,-3
1513481299994293,-2,-4,1,0,-5,0,-2,-1
1513481299994293,0,-3,2,0,-1,-2,-1,-3
1513481300007299,-1,-1,-3,0,5,0,-5,1
1513481300007299,-2,0,-1,-2,-2,-1,0,0
1513481300016306,-2,-1,2,2,-1,1,0,-2
1513481300016306,-2,-1,0,-1,-3,1,-4,-3
1513481300031316,-1,-2,-6,-2,2,-4,-4,1
1513481300031316,1,-3,-1,-1,-1,0,-2,5
1513481300032338,-2,2,3,0,-8,-2,1,-2
1513481300032338,0,-1,0,2,1,-2,-1,-2
1513481300053358,1,-1,-2,-1,-1,-3,1,-5
1513481300053358,-3,-1,0,-3,-3,-1,-1,1
1513481300055333,-2,-2,3,-1,-4,-3,1,-3
1513481300055333,-2,-4,0,-2,0,-1,-3,-4
1513481300067366,2,-2,-4,-1,1,0,-1,3
1513481300067366,-1,-4,-2,-3,0,-1,-1,-4
1513481300076349,-2,0,4,-1,-4,0,4,0
1513481300076349,0,1,-2,-2,-2,0,0,-1
1513481300090358,-2,1,-7,-2,5,1,-5,-3
1513481300090358,0,-1,0,-1,0,-1,-2,-2
1513481300092377,0,-5,2,1,-4,-2,2,-2
1513481300092377,2,-1,-1,-1,-1,-1,-1,1
1513481300113387,2,0,-6,0,1,-3,-4,2
1513481300113387,0,-1,-2,-1,-3,0,-1,-3
1513481300115389,-2,0,1,-2,-3,-1,0,0
1513481300115389,2,-3,1,0,2,-3,1,-3
1513481300127388,-3,-3,-3,-3,2,-3,0,-4
1513481300127388,-4,0,-2,1,-2,-2,-1,-3
1513481300137391,0,-2,2,-2,-3,0,-3,2
1513481300137391,-5,-2,0,-1,-3,-2,0,-1
1513481300150400,0,-3,-4,-1,0,-1,0,0
1513481300150400,1,2,-1,-2,-1,-2,-1,-2
1513481300152402,1,3,2,2,-5,0,1,-2
1513481300152402,-3,1,-1,1,0,1,-1,2
1513481300173420,0,-2,-6,-4,3,-3,-5,2
1513481300173420,-2,-2,0,-2,-1,1,1,2
1513481300175435,-1,-3,2,1,-2,-1,-2,-2
1513481300175435,2,1,0,-4,-2,-1,-2,-1
1513481300187427,0,-2,-4,-1,3,1,-1,-3
1513481300187427,-1,0,-1,-3,-1,-1,1,-1
1513481300196437,-3,-3,0,0,-2,-1,0,0
1513481300196437,-2,-1,-1,1,-1,1,0,-1
1513481300210443,2,-3,-4,-3,2,2,-4,-1
1513481300210443,-1,-4,0,1,3,-4,-3,2
1513481300212454,-2,-1,3,-1,-3,1,-1,0
1513481300212454,-5,1,0,2,-2,-2,-1,-1
1513481300233463,0,2,-3,-2,1,-2,-3,1
1513481300233463,2,-3,-2,1,-1,-2,-4,-3
1513481300235461,-4,0,3,-1,-5,0,-1,-3
1513481300235461,-3,0,-3,-2,3,0,-3,-2
1513481300247469,0,1,-2,-3,2,-3,0,-1
1513481300247469,-2,-3,-1,-2,0,-2,-3,2
1513481300255490,-1,-3,1,0,-7,1,3,0
1513481300255490,1,1,-1,0,-2,0,-6,-3
1513481300270485,-5,0,-8,-3,0,-2,-3,-2
1513481300270485,-4,1,-2,-2,1,1,0,0
1513481300272487,0,0,4,-1,0,1,0,-2
1513481300272487,-2,-1,0,4,-3,1,2,-1
1513481300293568,0,0,-4,-4,1,-1,-3,1
1513481300293568,-5,-3,-3,-5,-6,0,0,-2
1513481300294548,0,-1,0,1,-1,0,0,1
1513481300294548,2,-1,1,-2,-3,-3,-4,-1
1513481300307512,-1,-2,-3,-1,0,0,-3,1
1513481300307512,3,-2,-2,-1,0,-1,-2,-1
1513481300315517,-3,-2,2,0,-1,-1,-1,-4
1513481300315517,1,-1,0,-3,-4,-2,-1,4
1513481300330528,3,0,-4,-3,1,2,-2,0
1513481300330528,-2,0,-2,0,2,-1,-1,-2
1513481300332529,-2,0,3,2,-2,1,3,-1
1513481300332529,-1,-1,-2,-1,2,-1,-5,2
1513481300353544,-4,-2,-2,-1,0,-1,-1,-4
1513481300353544,1,1,0,0,-1,1,0,0
1513481300354545,1,1,0,-1,-3,-1,-2,1
1513481300354545,1,-1,-2,-2,1,-3,1,-2
1513481300367554,0,-2,-4,0,1,0,-3,-1
1513481300367554,0,-4,-1,-2,-3,-1,0,-1
1513481300375561,0,-2,0,1,-5,-2,2,-1
1513481300375561,2,-2,-3,-2,1,-3,-2,0
1513481300390574,-4,2,-2,-2,1,-2,-3,-3
1513481300390574,-1,1,1,-3,-2,-1,-4,0
1513481300392572,-1,-2,2,-1,-6,-3,-3,-2
1513481300392572,-3,-4,-1,0,0,1,1,-1
1513481300413586,1,-2,-6,0,3,-2,1,-6
1513481300413586,1,1,-1,-1,-3,1,1,-1
1513481300414587,-3,-2,2,0,-1,-1,-1,1
1513481300414587,-1,-2,-1,0,1,3,-1,0
1513481300426597,-2,0,-5,-3,1,-4,1,1
1513481300426597,-1,0,-2,-3,0,-1,-1,0
1513481300436603,0,3,3,3,-5,-2,-1,-4
1513481300436603,2,1,-4,-2,3,-3,0,-1
1513481300450613,-2,1,-5,-2,1,-1,-3,0
1513481300450613,-3,1,-2,0,-3,0,0,0
1513481300452615,-4,1,2,-1,0,0,0,3
1513481300452615,-3,-2,3,1,1,-1,-1,-2
1513481300473645,2,-3,0,-3,2,0,-1,1
1513481300473645,0,-1,-1,-1,-1,-1,3,-3
1513481300474672,0,0,1,1,-3,-1,-1,-1
1513481300474672,-3,-1,-4,-7,-3,-1,-5,0
1513481300495661,-1,-3,-4,-2,2,0,-4,-1
1513481300495661,4,0,-2,-1,-1,0,1,-2
1513481300497656,-2,-1,0,0,-1,-2,2,1
1513481300497656,1,0,-1,0,-1,-3,-1,2
1513481300510655,-3,-2,-3,-3,2,-1,-1,0
1513481300510655,-1,-4,-4,-1,0,-2,-3,-2
1513481300512657,0,-2,0,-1,-5,0,1,-5
1513481300512657,-1,1,-1,-4,-4,-3,1,-3
1513481300533674,1,0,-5,3,5,2,-4,-1
1513481300533674,-2,-1,0,-4,-1,-1,-3,1
1513481300535673,1,1,3,1,-3,-1,1,-2
1513481300535673,-2,0,-2,-1,-1,-1,0,-3
1513481300555710,-2,0,-2,-4,0,-3,1,-3
1513481300555710,-2,-4,0,1,0,-1,-5,-3
1513481300557710,-1,-5,-1,-1,-1,-2,-3,1
1513481300557710,-1,-1,-1,0,-1,-1,-3,-4
1513481300570724,-1,-3,-5,-3,-1,-3,2,1
1513481300570724,-3,3,-2,-2,-4,-2,1,-2
1513481300572709,-4,-3,2,2,-5,-3,-1,-5
1513481300572709,-1,-3,-2,0,-2,-1,3,-1
1513481300593739,-2,-1,0,-3,-3,-2,-4,-1
1513481300593739,0,0,1,1,-3,-1,0,0
1513481300594716,-1,-3,3,-1,-1,-2,1,0
1513481300594716,-1,1,0,2,3,1,-3,3
1513481300615729,0,-2,-2,-2,0,-1,0,-4
1513481300615729,-1,0,-1,-2,-5,-1,-1,-2
1513481300617731,1,-2,0,-2,-2,1,-1,2
1513481300617731,2,-1,-3,4,0,0,-2,2
1513481300630740,-1,-2,-1,-2,2,-2,-1,-4
1513481300630740,-1,-1,1,2,0,-1,2,-3
1513481300632743,-2,0,0,0,2,1,-3,-1
1513481300632743,1,-3,-2,0,-1,-2,-5,0
1513481300653770,-1,-1,-4,-5,-1,0,-4,1
1513481300653770,0,-2,-2,-3,0,-2,1,0
1513481300654757,-1,0,2,3,-3,-1,3,-3
1513481300654757,-1,0,-1,-4,-1,0,0,0
1513481300675796,-1,-2,-5,0,0,-2,-1,2
1513481300675796,-1,-1,0,-4,-3,-2,-1,0
1513481300677786,0,0,0,-1,-4,-1,-2,-2
1513481300677786,-3,-1,1,-1,0,2,0,-2
1513481300689782,0,-2,-2,-2,0,-3,-5,-1
1513481300689782,0,-2,1,0,-3,-2,-1,0
1513481300696787,-1,-1,1,0,-1,0,2,-4
1513481300696787,-2,-1,-1,1,1,-2,2,0
1513481300713799,-1,0,-3,-2,-4,-2,0,0
1513481300713799,-2,0,-1,-2,-3,0,-3,-3
1513481300714806,2,0,1,0,-2,-2,-3,-1
1513481300714806,1,1,0,-2,-1,-3,-2,-1
1513481300735814,0,0,-1,-1,-1,1,2,2
1513481300735814,4,-5,0,1,-2,-1,2,1
1513481300738816,-4,-1,2,-3,3,-2,0,1
1513481300738816,1,-2,-4,-2,3,-2,-3,-4
1513481300749837,3,0,-4,-5,-2,0,-2,-4
1513481300749837,-4,-3,-1,-2,-2,0,3,0
1513481300756829,-1,-4,1,2,-3,-3,0,1
1513481300756829,-1,3,-3,-1,1,-2,-4,-4
1513481300773855,-2,1,-2,-3,2,-3,-4,2
1513481300773855,-1,-2,1,-3,-4,1,-1,3
1513481300774843,-1,-1,-1,-2,-3,0,-2,-2
1513481300774843,-4,-3,-2,1,1,1,-1,-3
1513481300795871,1,0,-5,-1,1,1,-3,-4
1513481300795871,-2,2,0,-2,-3,-4,1,1
1513481300797870,-4,-1,1,-1,-3,-3,0,-1
1513481300797870,1,-3,-4,-2,2,-1,-6,1
1513481300809866,-1,-2,-4,-2,0,1,1,0
1513481300809866,-2,-4,1,0,-2,-1,0,-1
1513481300816871,-1,0,1,-1,-2,1,0,0
1513481300816871,-1,-1,-4,1,6,-1,1,-3
1513481300833884,0,-1,-3,-2,-1,-3,-1,3
1513481300833884,0,1,2,-1,-4,0,-2,-2
1513481300835885,1,0,0,-3,-2,1,-3,1
1513481300835885,-1,-2,-3,-2,2,-1,-6,1
1513481300855951,1,-2,-1,-1,-1,1,1,0
1513481300855951,-6,-3,-1,0,-6,-1,2,-3
1513481300857934,-1,-1,1,1,0,0,-2,-1
1513481300857934,2,0,-1,-1,2,0,-2,0
1513481300869911,-1,-3,-2,-2,-1,-3,0,-4
1513481300869911,-1,2,1,-1,-4,1,1,0
1513481300876934,-6,-1,0,-1,-2,-1,0,0
1513481300876934,2,-4,-2,0,-1,-1,-6,-1
1513481300893940,-1,0,-2,0,-3,-2,2,0
1513481300893940,0,-1,2,-1,-3,0,0,-1
1513481300894931,-1,-2,-1,-1,0,0,-1,-1
1513481300894931,3,-1,-3,-1,0,-2,-4,-1
1513481300915942,-2,-2,-2,-4,-1,-2,-1,-1
1513481300915942,-3,-2,-2,-1,-5,-1,2,-4
1513481300917943,-1,1,0,0,-1,-1,0,-2
1513481300917943,-3,1,-4,-5,2,-1,1,0
1513481300929951,1,-4,-3,-1,2,-1,-2,-5
1513481300929951,-3,1,2,0,-2,2,0,1
1513481300936957,2,-1,-1,2,0,-1,1,-1
1513481300936957,-1,-1,-1,0,2,-1,-2,2
1513481300952968,-4,-2,-2,-2,-2,0,-2,0
1513481300952968,0,-1,0,0,-2,-3,4,0
1513481300954970,-1,-1,1,1,0,-1,-3,-1
1513481300954970,-3,-3,-4,-5,-2,-3,-1,-2
1513481300976012,1,1,-1,0,-1,-1,-1,-3
1513481300976012,-3,-1,3,-2,-6,-2,0,1
1513481300977014,-1,-1,1,-1,-2,-1,-3,0
1513481300977014,0,0,-4,0,2,0,0,-4
1513481300989003,-4,-3,-2,-5,-2,-1,-2,-2
1513481300989003,-5,-1,-1,3,-5,0,4,-3
1513481300999048,1,0,2,-1,-2,0,-2,1
1513481300999048,2,-1,-4,0,1,-3,-7,2
1513481301013068,2,-3,-3,-2,1,0,-1,-5
1513481301013068,-2,-1,1,-2,-3,1,0,-3
1513481301015060,-2,2,0,1,-4,-2,-2,-1
1513481301015060,-1,-3,-3,1,2,-2,1,-3
1513481301036074,1,-1,-2,0,-4,-1,-2,2
1513481301036074,0,-2,1,-2,-3,0,-2,-4
1513481301038085,-2,-1,-1,0,-3,0,-1,0
1513481301038085,-2,1,-4,-3,2,-2,-1,-1
1513481301050084,-3,1,1,0,-3,-2,-3,1
1513481301050084,2,-2,2,-2,-5,-1,-2,-5
1513481301058099,0,-2,-2,-1,-3,-2,0,3
1513481301058099,2,-1,-2,1,3,-2,-3,-3
1513481301073107,-2,-1,0,-2,-1,-1,2,1
1513481301073107,0,0,3,-2,-8,-2,1,0
1513481301075127,2,-3,0,-2,0,-1,1,-2
1513481301075127,-2,-1,-1,-2,3,-1,-5,1
1513481301096131,1,1,-1,-2,0,-2,0,-1
1513481301096131,-1,0,0,-1,-2,-1,-2,2
1513481301097118,-1,0,-2,0,-2,-2,0,-1
1513481301097118,-2,-2,-5,-2,4,-1,-2,0
1513481301109135,1,-2,-1,-4,-2,-2,1,-1
1513481301109135,1,1,2,-1,-7,-2,2,-7
1513481301126138,-1,-1,-1,2,0,-3,-3,-3
1513481301126138,3,2,-4,-1,5,-1,-3,-2
1513481301133144,-8,-2,-3,-2,0,-1,-2,-2
1513481301133144,-4,-3,1,0,-5,-1,-1,-1
1513481301136146,-1,-1,2,-1,-3,0,2,2
1513481301136146,-1,-2,-3,-5,0,0,-5,0
1513481301156182,0,0,-3,-1,1,-1,1,-4
1513481301156182,-3,-2,1,0,-5,-1,4,0
1513481301157171,-2,-7,-5,2,1,0,0,-3
1513481301157171,-1,-2,-2,-2,2,-2,-4,-2
1513481301169187,-1,-2,-2,1,-2,2,-4,-2
1513481301169187,-3,-1,2,-3,-3,-1,4,0
1513481301178185,0,0,0,0,0,-1,-5,0
1513481301178185,3,0,-3,-1,3,-2,-3,0
1513481301193196,0,-2,-3,-4,-2,0,-2,1
1513481301193196,0,-3,3,2,-5,-2,1,2
1513481301195186,-2,-1,0,1,0,0,-1,-5
1513481301195186,0,0,-7,-1,4,1,-4,0
1513481301216214,-1,0,-1,0,-1,-2,-1,-2
1513481301216214,-2,-1,2,-2,-3,-2,3,2
1513481301217202,1,-4,-1,-2,1,-3,-3,-2
1513481301217202,-2,-3,-4,-1,5,0,-4,1
1513481301229237,0,-2,-3,-4,1,-1,-2,-4
1513481301229237,-5,0,1,1,-9,0,2,-5
1513481301238217,2,-2,1,-3,0,-1,-3,-1
1513481301238217,2,1,-5,1,4,-1,-3,2
1513481301253233,-1,-2,-1,-2,-3,2,1,3
1513481301253233,1,-1,2,0,-4,1,-3,-3
1513481301255229,-4,-1,1,-1,-4,-1,-1,0
1513481301255229,1,-2,-5,-3,3,-2,-2,-5
1513481301276247,-3,2,-1,-3,-5,-3,0,-2
1513481301276247,2,-2,1,-5,-2,-1,2,0
1513481301277245,2,2,1,-2,-2,-1,-2,1
1513481301277245,2,0,-4,0,4,-2,-7,-2
1513481301289263,-2,-3,-1,2,-1,-2,-1,-3
1513481301289263,-2,-3,0,-5,-6,2,1,-2
1513481301298271,-4,-1,-1,1,-1,-4,-1,-2
1513481301298271,1,-2,-4,-1,1,-3,-5,0
1513481301313286,-2,1,-1,-3,2,-2,0,1
1513481301313286,-3,-2,4,2,-4,0,4,-1
1513481301315274,0,1,-1,-4,0,0,1,1
1513481301315274,-1,-2,-4,0,3,0,-4,-2
1513481301336305,-1,-1,-3,-4,-2,0,0,-2
1513481301336305,-3,-5,3,-1,-5,-3,1,-2
1513481301339294,-1,2,-2,-1,-2,1,0,-2
1513481301339294,0,1,-2,-2,2,-4,-2,1
1513481301349296,1,-4,0,2,-1,0,-4,-1
1513481301349296,-3,-2,3,-2,-5,-1,1,2
1513481301358302,-3,-1,-1,1,-1,2,1,-3
1513481301358302,-3,-3,-5,-2,-1,0,-2,-1
1513481301373315,-2,0,-3,-3,-1,-3,0,-5
1513481301373315,0,-1,5,2,-6,0,3,1
1513481301375324,-1,-4,2,0,0,1,0,-1
1513481301375324,1,0,-5,-5,4,-3,0,3
1513481301396341,4,1,-3,1,-2,-2,-2,-1
1513481301396341,1,1,1,1,-4,0,-1,-3
1513481301397329,-1,-1,0,0,0,-2,-1,-1
1513481301397329,-2,-2,-4,-2,2,1,-4,-2
1513481301409339,-1,0,-1,0,-2,-2,-2,-2
1513481301409339,-4,5,2,-1,-1,0,1,-2
1513481301418361,2,-4,-1,1,-2,0,-1,0
1513481301418361,-2,-1,-5,-3,2,1,0,1
1513481301433369,-2,-4,-1,-1,0,-2,-1,-3
1513481301433369,-1,-1,1,2,-5,-2,1,2
1513481301435366,-1,-3,0,-2,-2,-2,-1,-2
1513481301435366,-1,-1,-3,-2,2,0,-1,-4
1513481301456381,-1,0,1,-1,-1,-1,-1,2
1513481301456381,1,-2,1,-1,-3,-1,2,1
1513481301457372,-3,0,-1,-2,0,-1,-1,-1
1513481301457372,0,-1,-5,0,2,0,-2,-3
1513481301478396,-3,0,0,-1,-4,2,0,-3
1513481301478396,-2,-1,2,-1,-4,-2,-2,-3
1513481301480389,1,-1,-1,1,-3,-3,0,1
1513481301480389,-3,0,-5,-4,4,-4,-2,0
1513481301493418,1,-1,-2,-2,-3,-2,-1,-1
1513481301493418,-2,-3,2,1,-7,1,-1,1
1513481301495399,0,0,0,-1,0,-1,-2,-1
1513481301495399,-1,0,-4,-3,4,-1,-2,-1
1513481301515425,-2,-2,-3,0,2,0,0,-1
1513481301515425,-1,-1,3,0,-5,-2,-4,-4
1513481301517428,-1,-1,-1,0,-5,-2,0,-2
1513481301517428,0,0,-3,0,0,-2,-4,0
1513481301538442,-2,0,-3,-3,1,0,1,2
1513481301538442,0,-1,0,1,-3,0,3,0
1513481301540457,-1,-3,-2,-1,-1,-1,-3,2
1513481301540457,1,-3,-5,0,2,-3,0,-4
1513481301553450,-3,-2,0,-6,-2,-1,2,0
1513481301553450,-1,-1,4,2,-4,-2,-1,-3
1513481301555441,1,1,-3,0,0,-3,0,-2
1513481301555441,-1,2,-3,-2,3,1,-6,-2
1513481301575482,-1,-1,-2,-1,-2,-1,-1,2
1513481301575482,-3,0,2,-1,-3,0,2,-2
1513481301577458,0,2,0,1,1,-2,-1,-1
1513481301577458,-1,-3,-5,-3,-1,-1,-1,1
1513481301598486,1,-1,-2,-5,-2,0,0,1
1513481301598486,-2,-4,3,5,-1,-1,1,-2
1513481301600474,-2,3,-2,-6,2,-3,0,-4
1513481301600474,0,0,-3,-3,1,-1,-4,1
1513481301612498,0,-3,0,-3,-3,-2,0,-4
1513481301612498,-3,-3,0,-3,-1,-2,1,4
1513481301619496,-3,-1,-1,4,1,0,2,0
1513481301619496,-2,-3,-4,-2,0,0,-3,-4
1513481301636499,-3,-1,-4,-1,-1,-3,-4,0
1513481301636499,-3,-1,5,-1,-2,-2,-1,-4
1513481301638500,-4,-3,0,-1,-1,0,0,-2
1513481301638500,-1,1,-3,-1,1,-3,-4,0
1513481301658553,-1,0,-2,-2,1,2,-1,0
1513481301658553,-2,-3,3,-1,-3,-2,1,-2
1513481301659527,-4,1,-2,1,1,-2,-7,-1
1513481301659527,0,0,-4,-1,-2,-2,-2,-2
1513481301672534,-1,-3,0,-2,4,-2,-4,1
1513481301672534,-2,-1,2,3,-3,-1,2,-2
1513481301679529,0,0,-2,0,-4,-1,0,1
1513481301679529,-4,0,-7,-1,4,-2,-3,-2
1513481301695541,1,-1,-1,-2,-3,1,-1,0
1513481301695541,1,-1,2,-1,-5,1,2,0
1513481301697551,1,-2,3,-2,-1,1,0,-1
1513481301697551,1,-2,-3,-1,4,0,-4,-2
1513481301718556,0,2,-4,-2,2,-4,-3,-1
1513481301718556,1,0,2,-2,-1,-1,0,0
1513481301719557,2,1,-1,-1,-2,0,-3,0
1513481301719557,1,-2,-6,-3,2,1,-2,0
1513481301732568,-2,-2,0,-1,-3,0,0,-4
1513481301732568,-2,-2,3,0,-8,2,-2,2
1513481301740572,-5,-2,-1,-1,0,-3,0,0
1513481301740572,1,-1,-3,-4,2,-4,-2,0
1513481301755596,-3,-1,1,3,-5,0,-3,-4
1513481301755596,0,-2,0,-2,-2,-1,0,0
1513481301757584,-1,1,-1,3,1,-1,-2,2
1513481301757584,-1,-2,-5,1,0,-1,-2,-2
1513481301778611,-1,-1,-2,-4,-2,-2,1,-2
1513481301778611,-2,-2,0,1,-3,-3,0,-3
1513481301779601,-2,-3,0,-1,-2,-2,2,-1
1513481301779601,3,1,-3,-4,1,-2,-1,2
1513481301792636,1,0,-1,0,1,-2,0,-5
1513481301792636,-3,-1,1,1,-1,-1,-2,0
1513481301799615,1,0,-3,-3,0,-1,0,-1
1513481301799615,-1,-2,-3,0,3,-1,0,-2
1513481301815636,1,-5,0,-2,-3,-1,-2,0
1513481301815636,-3,4,3,2,-6,-2,0,0
1513481301817627,0,-1,2,-1,0,-3,-1,-4
1513481301817627,0,-2,-4,-2,2,-1,-4,1
1513481301838651,1,2,-2,-1,-2,0,1,2
1513481301838651,0,1,4,-2,-4,-1,2,-3
1513481301839652,2,-5,-1,1,0,-1,-2,-2
1513481301839652,-1,0,-4,-2,1,-2,-3,1
1513481301852652,-3,-3,0,0,-1,-4,-1,0
1513481301852652,2,1,-1,-1,-5,-1,1,4
1513481301859666,-1,-1,-1,-1,1,0,3,-4
1513481301859666,-3,-2,-2,-4,-3,-1,-1,-1
1513481301875671,0,-2,-1,-2,-1,-4,-3,0
1513481301875671,-3,-3,-1,-2,2,1,-1,-1
1513481301877669,-3,2,0,1,-1,-5,-1,0
1513481301877669,1,1,-4,-3,1,0,2,-3
1513481301898696,-1,0,-3,1,-3,0,-2,1
1513481301898696,3,-1,2,1,-6,0,-2,-2
1513481301899686,-1,-2,-2,-2,-3,0,-3,1
1513481301899686,0,1,-4,-1,3,-1,-1,-2
1513481301912705,-5,-1,-1,-1,-1,-4,-4,1
1513481301912705,-3,-5,0,1,-2,-1,0,-5
1513481301919708,-2,1,-2,-2,1,-1,-1,0
1513481301919708,1,-2,-5,0,0,-2,-2,-2
1513481301935733,-6,-3,0,-3,-4,-1,-2,-1
1513481301935733,-2,-2,1,-2,2,0,-1,-1
1513481301938722,2,-1,-1,-1,-2,-1,0,-3
1513481301938722,-1,-3,-5,-3,0,-2,-4,0
1513481301958735,3,-1,-3,0,0,0,1,-5
1513481301958735,-4,0,3,-2,-4,0,1,-1
1513481301959727,1,0,-2,-1,-5,0,-3,-1
1513481301959727,-2,-3,-3,0,0,0,-1,-2
1513481301971736,1,-1,-1,1,0,0,3,-2
1513481301971736,-2,1,3,0,-4,-1,-1,1
1513481301980741,2,-1,2,2,0,1,0,-3
1513481301980741,-4,-2,-4,-3,0,-1,-2,-1
1513481301995764,1,-3,-3,-2,-1,0,-3,2
1513481301995764,2,-2,1,3,-3,-3,4,-1
1513481301997764,-3,-4,1,-1,0,-2,-1,1
1513481301997764,1,0,-3,-2,4,-2,1,0
1513481302018769,-1,-1,0,-4,3,0,0,-1
1513481302018769,-2,1,3,2,-4,0,-1,-1
1513481302019770,-2,-3,-2,1,-1,0,0,-2
1513481302019770,1,0,-5,-2,-1,-3,-3,0
1513481302031779,1,0,-4,-6,1,-1,0,1
1513481302031779,-1,-5,0,-1,-3,0,0,-1
1513481302040794,-5,0,-3,0,1,2,-2,0
1513481302040794,1,-1,-4,-4,4,0,0,-1
1513481302055804,-1,1,0,-3,-1,-3,-1,-1
1513481302055804,-4,1,-1,-1,-2,-2,0,-4
1513481302057807,-1,-3,0,-3,-2,-3,3,-1
1513481302057807,-1,1,-4,-1,-2,0,-3,-3
1513481302078821,-1,0,1,-2,-2,-1,-2,-2
1513481302078821,2,-1,0,0,-2,1,2,-1
1513481302079826,-1,-1,0,0,-1,0,0,-3
1513481302079826,-4,-2,0,-2,-1,-3,2,-4
1513481302091835,-4,0,-1,-1,-6,0,0,0
1513481302091835,-2,-2,1,2,-3,-1,-2,0
1513481302100827,-3,-2,-1,-1,0,0,-3,0
1513481302100827,0,0,-2,-2,0,-1,0,0
1513481302116841,-2,2,-1,-2,-4,0,1,-1
1513481302116841,-1,2,1,0,-3,-2,-2,-1
1513481302117839,-2,1,0,0,-2,-1,-2,-1
1513481302117839,-2,1,-2,-3,3,-2,-2,0
1513481302137858,-3,-5,0,1,0,-1,0,-2
1513481302137858,0,1,2,1,-3,1,-2,3
1513481302139855,-2,-3,-2,0,-1,-1,1,2
1513481302139855,-1,-3,-6,-3,1,0,-3,-2
1513481302151912,1,0,-3,-1,-1,-2,-3,-1
1513481302151912,-1,0,4,1,-3,2,0,1
1513481302160912,0,1,-1,0,2,-6,-3,3
1513481302160912,-1,-2,-5,-1,-1,0,0,-1
1513481302175937,-1,-1,-2,1,-3,-1,2,-3
1513481302175937,-1,-2,0,-1,-1,-1,-2,-3
1513481302177934,-1,1,-3,0,-1,2,-2,-1
1513481302177934,0,-2,-4,-4,1,-4,-1,-2
1513481302197951,-1,-1,0,-1,-4,1,2,-3
1513481302197951,-2,-1,4,-1,-5,-3,1,0
1513481302199940,1,0,-1,-4,-1,-2,0,-4
1513481302199940,-2,-1,-4,1,-1,-1,-1,0
1513481302211960,-2,-2,2,-1,-2,0,1,-2
1513481302211960,-3,0,2,0,-1,-3,0,-1
1513481302220955,-1,-2,-3,-4,0,-2,-4,0
1513481302220955,1,2,-2,-2,0,-2,-1,-2
1513481302236966,-2,-1,-2,-1,-1,-2,-1,2
1513481302236966,-1,-2,-2,1,-2,0,-1,-1
1513481302238967,0,-3,-1,-1,1,-2,-2,-2
1513481302238967,-3,-2,-5,-3,1,-3,-3,1
1513481302257995,-1,-1,0,0,-3,-2,-2,2
1513481302257995,1,1,1,-1,0,-1,-2,-1
1513481302259994,0,-2,-2,-1,0,1,-2,0
1513481302259994,-2,-4,0,-2,-2,1,-3,1
1513481302271991,-1,-2,-1,-1,2,0,-2,-3
1513481302271991,-2,0,3,0,-1,0,0,-3
1513481302281010,-2,0,-3,-2,1,0,-3,-5
1513481302281010,1,0,-3,-3,0,0,1,0
1513481302296023,0,-3,-1,-3,-3,-1,2,-1
1513481302296023,-5,-3,-1,1,-3,-2,-2,0
1513481302297012,2,1,-3,3,2,-1,-5,1
1513481302297012,0,-2,-2,0,-1,0,0,-1
1513481302318041,-2,-1,-1,-3,-2,2,1,-2
1513481302318041,1,-1,-2,0,-1,-2,-1,1
1513481302320043,1,1,-3,-4,2,-3,-2,2
1513481302320043,-1,-2,-6,-3,2,1,-2,-1
1513481302332035,-2,0,0,-1,-3,0,-2,-3
1513481302332035,1,-2,1,3,-3,-1,-3,1
1513481302341041,-1,-1,-3,0,0,-3,-3,-1
1513481302341041,-2,-3,0,-2,-1,-1,0,-7
1513481302355060,0,-2,0,-1,-3,-2,0,2
1513481302355060,-1,1,0,-1,0,1,1,-4
1513481302362064,0,-1,0,1,1,-2,-3,0
1513481302362064,-1,2,-2,-1,-2,-5,1,0
1513481302378089,-2,-2,-1,-2,-1,0,2,0
1513481302378089,0,0,4,1,-1,-1,1,0
1513481302380067,0,-2,-4,-3,0,0,-3,-2
1513481302380067,1,1,-3,-1,1,-1,-2,-3
1513481302401084,-3,-2,1,-3,-3,-2,0,-3
1513481302401084,-1,1,-2,1,-3,0,-1,-2
1513481302402082,-2,-1,-3,-3,2,1,-1,0
1513481302402082,-2,-3,-1,0,-1,1,-3,-2
1513481302416102,-2,-1,-2,-1,-5,0,2,-1
1513481302416102,1,-1,3,-2,0,0,-1,1
1513481302417104,-2,-2,0,1,2,-1,-3,-1
1513481302417104,-1,-2,-3,-3,1,-2,-3,-1
1513481302438109,-1,1,2,-1,-3,-2,2,-1
1513481302438109,0,0,2,-3,-1,-2,-1,-3
1513481302442127,0,-2,-1,1,-3,0,2,-3
1513481302442127,1,2,-2,-2,1,-1,1,-1
1513481302461162,-1,-1,-1,0,-6,-3,-2,-2
1513481302461162,-2,0,-1,-1,1,-2,-1,-3
1513481302462125,-1,-1,-3,0,2,0,-5,1
1513481302462125,-2,-1,-3,-2,-2,-1,0,2
1513481302476174,-2,-3,1,2,-4,1,4,0
1513481302476174,-1,0,-2,0,1,-1,0,-3
1513481302477136,2,-1,-3,1,3,-2,-2,-4
1513481302477136,-3,-3,0,-3,-2,-2,0,1
1513481302498160,1,2,1,-2,-3,-1,2,0
1513481302498160,0,-1,0,-1,-5,-1,-1,0
1513481302500152,2,1,-3,-1,4,-1,-5,-3
1513481302500152,-1,-2,-3,-2,-1,-2,-1,1
1513481302521179,-1,-3,0,-4,-2,-3,1,-2
1513481302521179,0,-2,1,2,1,-2,-1,1
1513481302522167,1,-1,-3,-2,2,0,1,-3
1513481302522167,-1,1,-2,-2,-3,-1,0,0
1513481302535180,-3,2,0,1,-3,-1,1,0
1513481302535180,0,-3,3,-2,-3,0,-3,1
1513481302542182,-3,1,-4,-3,4,-3,-2,-1
1513481302542182,2,0,-2,-4,1,0,-1,-5
1513481302558202,-4,-2,3,0,-7,-1,1,-4
1513481302558202,-2,0,-1,2,-4,-3,-2,0
1513481302560204,-1,-2,-2,-2,5,-1,0,0
1513481302560204,1,-3,-1,-4,0,0,-4,0
1513481302581219,-2,1,0,-1,-6,-3,4,2
1513481302581219,-1,2,-1,0,-1,2,-2,-4
1513481302582218,0,-3,-4,-2,2,-2,-4,-1
1513481302582218,-1,-4,-1,-2,-2,-2,-1,-3
1513481302595236,-1,-2,3,1,-6,-2,1,1
1513481302595236,-2,-2,-2,-2,1,-2,2,0
1513481302602227,0,0,-2,-1,2,-2,-4,3
1513481302602227,-2,-1,-1,-1,-1,-1,0,-2
1513481302618248,-4,-3,3,-4,-4,1,-4,-2
1513481302618248,-4,1,1,0,-2,-2,1,0
1513481302620248,0,-2,-5,-1,1,0,-5,0
1513481302620248,1,-4,-4,0,-3,-1,3,-2
1513481302641270,-2,1,4,0,-6,0,2,-2
1513481302641270,-2,-2,-4,-1,-2,-2,1,-2
1513481302642270,-3,3,-4,-1,5,-3,-2,0
1513481302642270,0,-1,-1,-2,-4,-2,-1,0
1513481302655280,1,1,1,0,-5,0,-1,-4
1513481302655280,2,-4,1,-4,1,0,0,4
1513481302669271,3,-2,-5,0,2,0,-3,0
1513481302669271,-3,0,-3,-1,-2,0,-3,-1
1513481302678290,-2,-1,2,0,-2,0,3,-1
1513481302678290,-1,-1,1,0,-3,-2,-3,-1
1513481302680281,-5,-2,-4,-2,5,-1,0,-3
1513481302680281,0,1,-2,1,-1,-3,3,2
1513481302701293,1,-1,2,0,-4,0,0,0
1513481302701293,2,-1,-2,0,0,0,-2,-3
1513481302702296,3,-2,-4,1,2,-1,-3,0
1513481302702296,-2,-2,-2,-5,-2,2,-1,0
1513481302715316,-2,0,1,1,-2,0,0,0
1513481302715316,-5,-1,-1,1,-1,-2,0,-1
1513481302729324,3,0,-3,-1,0,-1,-6,-1
1513481302729324,-3,0,-3,-2,1,-3,0,0
1513481302738330,-1,-3,1,-2,-5,1,-1,-1
1513481302738330,0,-2,-2,1,-1,-1,-2,0
1513481302740322,-1,0,-4,-3,5,-4,-2,0
1513481302740322,-3,1,-4,-2,0,-1,-2,-3
1513481302761336,-4,1,0,-2,-5,-1,2,-1
1513481302761336,0,-1,2,1,1,-1,-1,1
1513481302762338,-4,1,-2,-1,-1,0,-4,1
1513481302762338,1,-2,-1,-4,0,-2,-2,0
1513481302775364,-2,-3,1,-2,-3,-1,2,-1
1513481302775364,-1,1,-2,-3,-1,2,1,-2
1513481302782355,1,-3,-5,-1,3,-1,-3,-1
1513481302782355,-4,0,0,0,-1,2,0,-2
1513481302798381,-1,-3,3,0,-4,-2,1,1
1513481302798381,-3,-1,1,0,-2,-2,-2,0
1513481302800381,-1,-2,-5,-3,4,1,-3,-3
1513481302800381,-2,-2,-3,-1,-3,-2,-3,-2
1513481302821389,-1,-3,2,-1,-3,1,1,-1
1513481302821389,-1,2,0,1,-1,-1,1,-3
1513481302823396,-1,-3,-4,-3,3,-1,-1,-1
1513481302823396,0,-1,-2,-4,-3,-1,-1,-2
1513481302835389,-2,-1,2,0,-5,-1,2,-3
1513481302835389,-2,-2,1,-1,2,-2,-3,0
1513481302842435,-1,-1,-4,-2,5,-1,-2,-2
1513481302842435,-2,1,-2,-2,-4,1,-1,-2
1513481302858419,2,0,1,4,-3,-2,0,-1
1513481302858419,-2,0,-1,-2,-3,-1,-1,-3
1513481302860409,0,-3,-2,-2,0,-2,0,-1
1513481302860409,2,-3,0,2,-1,-2,-1,1
1513481302880421,-1,-1,3,0,-6,0,-1,-2
1513481302880421,0,-1,2,2,-3,0,2,-1
1513481302882440,-1,0,-4,-2,0,-2,-4,-3
1513481302882440,0,3,-2,-4,0,0,-1,-2
1513481302894471,0,-3,3,0,-5,-2,0,-1
1513481302894471,-2,-2,-3,3,3,0,-1,-1
1513481302903438,-1,0,-7,-6,1,-3,-4,0
1513481302903438,-2,-1,-3,-2,1,2,0,1
1513481302918460,-1,1,2,-1,-6,0,0,1
1513481302918460,0,-4,0,-3,0,0,-4,-2
1513481302920449,2,-3,-8,-2,4,-2,-2,0
1513481302920449,-1,-2,-1,-1,-1,-3,-1,-1
1513481302940463,-3,-1,0,-1,-1,0,4,-3
1513481302940463,1,-1,0,-1,-4,2,-1,0
1513481302942466,-2,1,-3,-3,3,-1,-4,-3
1513481302942466,-2,-3,-1,2,-2,-1,3,0
1513481302954493,-1,0,2,1,-3,-2,2,-1
1513481302954493,0,1,-1,2,0,-2,1,-1
1513481302963493,0,-1,-5,-4,2,0,-2,2
1513481302963493,3,-3,-2,-2,-2,3,-3,-1
1513481302978504,-4,-1,4,2,-6,-2,2,-4
1513481302978504,-3,0,-3,-2,1,-2,-3,-2
1513481302980492,1,2,-3,2,6,-1,-5,-1
1513481302980492,-3,-2,-2,-3,0,-1,-2,1
1513481303000505,-1,1,1,-2,-4,-2,0,-3
1513481303000505,-2,-3,0,-2,-1,0,1,0
1513481303002516,1,-1,-4,-2,2,-1,-2,-1
1513481303002516,1,0,1,1,-3,-1,-3,-2
1513481303014515,-5,-2,2,-4,-5,0,1,-3
1513481303014515,2,2,-1,0,-2,-1,-3,-2
1513481303023523,-3,-2,-3,1,1,-1,0,0
1513481303023523,-3,-2,1,-1,1,-2,-2,1
1513481303038532,-3,0,5,1,-5,0,1,0
1513481303038532,0,2,-2,0,0,-1,1,2
1513481303039532,4,-1,-4,-4,0,0,-3,1
1513481303039532,-3,0,-1,-2,-3,-2,0,-1
1513481303068554,-4,-1,3,-2,-4,0,-2,5
1513481303068554,-4,0,-1,0,2,-2,0,1
1513481303069555,-1,-2,-5,-4,1,-2,-5,-2
1513481303069555,0,1,-2,1,-1,-3,-1,-3
1513481303074601,-2,-1,2,2,-3,1,0,0
1513481303074601,-2,-2,0,-3,0,1,2,-3
1513481303083596,0,-5,-4,-1,3,-2,-4,1
1513481303083596,-5,-1,-1,-2,1,-2,2,-2
1513481303098624,1,-3,1,2,-5,-3,-1,2
1513481303098624,0,-2,0,-1,-1,1,-2,-4
1513481303099609,1,2,-4,-3,1,0,-3,0
1513481303099609,-3,-2,-3,-3,-2,1,0,-4
1513481303120619,-3,-1,1,1,-3,-1,1,-1
1513481303120619,-2,-2,-1,-1,-1,-3,-3,3
1513481303122623,-1,0,-2,-4,0,-2,0,-3
1513481303122623,-1,-2,-1,-1,0,-1,1,-1
1513481303134643,0,2,0,1,-4,-3,1,-1
1513481303134643,-1,-1,1,0,-1,-1,-2,0
1513481303143657,-1,-2,-3,-1,3,-1,-1,-1
1513481303143657,-2,-2,-4,0,-3,0,2,1
1513481303158646,-2,-2,3,0,-1,1,1,-3
1513481303158646,-2,-2,0,1,2,-2,-4,0
1513481303159647,-2,0,-4,-1,-1,0,-3,0
1513481303159647,-1,-1,-2,-2,0,-1,0,0
1513481303180661,-1,-3,1,0,-2,1,-3,1
1513481303180661,-3,1,0,-1,-5,-1,0,-3
1513481303182676,0,-4,-3,-4,2,-2,-1,-2
1513481303182676,-1,-2,-1,-1,-2,2,0,0
1513481303194729,0,-1,1,3,-4,-1,-1,-1
1513481303194729,1,-1,-4,-4,-2,0,0,-1
1513481303203679,-2,1,-2,-2,4,-3,-4,-2
1513481303203679,-1,-2,1,-4,3,-1,-2,2
1513481303218688,2,-1,1,-2,-5,-1,0,-4
1513481303218688,2,-1,-1,2,2,0,-1,0
1513481303219689,0,-3,-4,-1,-2,-2,0,-1
1513481303219689,3,-4,0,0,-1,1,-1,-2
1513481303240705,-2,-2,1,-1,-2,-1,0,-2
1513481303240705,-3,2,0,-1,-2,-3,0,0
1513481303242706,-2,-1,-7,-2,4,1,-1,-3
1513481303242706,1,-2,1,1,-2,-3,-2,-3
1513481303254714,-3,-1,1,-2,-2,-3,2,-2
1513481303254714,2,-3,-3,-1,0,-1,-3,-1
1513481303263721,-4,0,-5,-4,0,-2,-3,2
1513481303263721,-2,1,-2,-1,-1,1,-2,0
1513481303278731,0,-1,2,0,-6,-1,0,-4
1513481303278731,-2,-2,1,0,-3,1,-1,-5
1513481303279733,-1,0,-4,-2,2,-2,-3,-1
1513481303279733,0,0,-2,-1,-4,-4,0,0
1513481303300747,2,-1,1,-1,-2,0,0,3
1513481303300747,-1,-2,-2,0,0,-1,-2,-1
1513481303302750,-1,2,-2,2,0,-1,-2,-1
1513481303302750,-6,-1,-2,-6,-1,-1,0,-3
1513481303323763,-4,-2,3,-1,-4,-1,1,0
1513481303323763,-3,-2,0,2,2,-1,1,-1
1513481303325764,0,-2,-4,-2,2,0,1,-3
1513481303325764,0,1,-3,-1,1,-1,-1,-2
1513481303338773,-3,-3,4,0,-4,0,-1,-1
1513481303338773,2,0,-3,-5,1,-1,0,-2
1513481303339781,-1,-1,-7,0,1,-1,1,-1
1513481303339781,1,-1,0,-2,-1,-1,0,0
1513481303360789,-2,1,2,-1,-4,-1,-1,0
1513481303360789,1,-2,-1,1,-3,0,3,0
1513481303362792,-2,0,-1,3,2,0,-1,1
1513481303362792,-2,-3,-1,-2,-1,-2,-3,0
1513481303383805,3,-3,2,1,-4,-2,1,0
1513481303383805,-3,-1,0,1,-1,0,-1,0
1513481303384806,1,-1,-4,-3,-1,-1,-2,0
1513481303384806,0,2,-1,1,-2,1,-2,-1
1513481303398821,-3,1,1,1,-5,-2,1,0
1513481303398821,-1,-2,0,-1,-3,-3,-4,-2
1513481303399817,-2,-3,-5,-4,0,-4,3,-2
1513481303399817,-1,-1,0,-3,1,-1,-2,-1
1513481303420832,1,1,-1,-1,-1,-1,-1,-2
1513481303420832,0,0,-3,0,0,-4,-2,0
1513481303422833,-3,1,-3,-4,0,-1,0,-2
1513481303422833,-1,-2,-1,0,-3,-1,-3,1
1513481303442849,-1,1,1,1,-1,0,-3,-3
1513481303442849,-5,0,-1,0,1,0,0,0
1513481303444849,1,-4,-2,-2,-1,-4,-5,0
1513481303444849,-2,-1,-2,0,-3,-1,3,-2
1513481303457858,-1,-2,3,-1,-2,1,0,-3
1513481303457858,0,-1,-1,1,-4,-4,-2,0
1513481303464862,-2,-3,-5,-1,0,-1,-2,-1
1513481303464862,-4,-4,0,1,-1,3,1,0
1513481303480875,-3,1,4,1,-2,-2,0,-3
1513481303480875,2,0,-2,-1,0,1,-1,-2
1513481303482875,-1,1,-3,-2,1,1,-2,1
1513481303482875,0,1,-1,-2,0,0,0,-1
1513481303503890,-3,0,-2,0,-4,-3,1,-1
1513481303503890,-4,-2,0,-3,0,-3,-3,0
1513481303505891,3,-1,-4,-1,3,0,-4,-4
1513481303505891,-3,-2,-2,-2,-3,-1,0,-1
1513481303517900,0,-2,1,0,-5,-2,-1,-2
1513481303517900,-1,-3,0,-1,-1,0,-2,-5
1513481303524907,0,0,-3,-2,-2,1,-3,1
1513481303524907,-1,0,-1,-1,-4,-4,-3,-2
1513481303540919,-1,0,2,0,-2,-1,0,1
1513481303540919,0,-1,-1,2,1,0,2,1
1513481303542922,-2,-3,-4,-4,1,1,-2,-1
1513481303542922,-2,0,0,-2,-2,-1,-4,-1
1513481303563933,-2,-3,1,1,-5,1,0,-1
1513481303563933,-3,0,-3,-1,0,-2,-3,-1
1513481303564933,1,-2,-1,0,1,1,-1,-1
1513481303564933,2,-2,0,-3,-3,-2,2,-1
1513481303577958,0,1,3,4,3,1,-2,1
1513481303577958,-3,-5,1,-1,-1,-1,-1,-2
1513481303584961,-2,-1,-4,-2,1,-6,-1,-3
1513481303584961,1,2,-2,0,-3,-2,0,0
1513481303600980,-3,-3,4,-1,-6,1,-2,0
1513481303600980,1,0,-3,0,2,0,-4,0
1513481303602983,0,0,-3,-2,2,-1,-2,0
1513481303602983,-2,-3,-1,-1,-5,1,1,-3
1513481303622990,0,-1,-2,-1,-2,-3,1,-2
1513481303622990,1,0,-1,1,-3,-1,0,0
1513481303624991,-3,1,-4,0,-2,-2,-1,1
1513481303624991,-3,0,-2,-2,2,-2,0,1
1513481303645991,-1,1,-1,-1,-2,0,-1,-1
1513481303645991,-3,-2,-1,-3,0,-2,-3,2
1513481303646993,2,1,-5,1,2,0,2,-6
1513481303646993,-1,-2,-1,-1,1,-1,-1,1
1513481303661001,0,-2,-1,0,0,-2,-3,1
1513481303661001,3,0,-2,-3,1,2,-1,0
1513481303662002,-2,0,-2,-4,-1,-1,-3,3
1513481303662002,-2,-3,1,2,0,0,-1,-1
1513481303683017,-1,1,0,-2,2,0,-1,-1
1513481303683017,0,-2,0,-1,-2,-1,-1,1
1513481303685020,-2,-3,-3,-2,-4,1,-4,-2
1513481303685020,-2,0,0,0,-3,-2,-1,-4
1513481303698027,0,1,3,1,-3,-1,0,-1
1513481303698027,-1,0,-3,2,-1,-2,3,4
1513481303705032,-2,-1,-1,-1,1,-3,-1,0
1513481303705032,1,-1,-3,-3,-2,-1,0,-3
1513481303721046,1,-3,3,1,-1,-1,-2,0
1513481303721046,-4,-1,-4,-3,0,-2,1,0
1513481303722045,-2,0,-3,-5,0,-2,-1,-3
1513481303722045,2,0,0,-3,1,-2,-1,1
1513481303743118,0,-1,0,0,-3,1,0,-1
1513481303743118,1,-2,1,2,2,2,-2,-2
1513481303745084,1,-2,-8,-8,3,-1,-2,0
1513481303745084,-1,-1,-1,-1,-3,-1,0,-4
1513481303758070,-5,-2,2,-2,-4,1,2,2
1513481303758070,-4,-2,0,-1,-2,-3,-5,-3
1513481303764074,-1,-1,-1,0,-1,-2,-1,-2
1513481303764074,0,1,-1,-4,-4,-4,-2,2
1513481303781086,0,-1,0,5,0,-2,1,0
1513481303781086,0,1,-2,-1,1,-1,-2,0
1513481303782087,-4,-6,0,0,0,0,-3,-1
1513481303782087,-1,-1,-1,0,0,1,1,0
1513481303803141,-1,-1,2,0,-1,-4,0,-2
1513481303803141,0,-2,-2,-3,2,-3,-1,-2
1513481303806104,-1,0,-3,0,1,0,-2,1
1513481303806104,-2,-2,-1,-1,-3,1,-2,-4
1513481303817111,-2,-1,-1,-1,-6,1,-2,0
1513481303817111,0,2,-2,0,-2,-1,-1,0
1513481303826118,3,-1,-3,-3,0,-3,0,-2
1513481303826118,-7,-1,2,1,-3,1,2,-2
1513481303841158,0,-2,0,1,-2,1,-1,1
1513481303841158,1,0,-3,-3,0,-1,-3,-1
1513481303842141,-1,-1,-5,-3,-4,-1,-2,1
1513481303842141,1,-2,-1,-2,-2,-1,0,0
1513481303863160,-2,0,-2,1,0,-1,0,-2
1513481303863160,-3,0,-2,3,1,-2,-2,-5
1513481303865145,-2,-4,-2,-4,-1,1,-1,1
1513481303865145,1,-3,0,-1,-4,-3,1,0
1513481303877154,1,-1,2,-3,-3,-1,-3,-3
1513481303877154,2,-1,-2,1,0,-3,-4,-1
1513481303886162,-2,0,-5,-2,0,-1,0,-2
1513481303886162,-2,0,-2,0,-4,0,-1,-1
1513481303901205,2,-3,2,3,-3,-1,-1,2
1513481303901205,-4,0,-1,-1,2,1,-4,-2
1513481303902174,-3,-1,-1,-1,0,-2,1,-1
1513481303902174,-1,-1,0,-2,-3,-1,0,1
1513481303923188,-1,-3,-1,1,0,-1,-1,-2
1513481303923188,-2,-1,-2,-1,-2,-1,0,3
1513481303926205,-3,0,-1,-3,-1,-2,0,-3
1513481303926205,-4,-1,2,0,-2,-2,2,-5
1513481303937196,-3,1,-1,0,-2,0,-1,-4
1513481303937196,2,-5,-2,-1,2,-3,-4,1
1513481303946204,2,-1,-3,-3,-1,0,-1,-3
1513481303946204,1,1,-1,-2,-3,0,-1,0
1513481303961228,-1,-1,-1,2,0,-1,2,-2
1513481303961228,-1,-1,-3,-1,3,1,-3,-2
1513481303962214,-2,-2,-2,-2,-1,-3,-1,-1
1513481303962214,-4,-4,3,-1,-5,-2,-1,-4
1513481303983229,0,-3,1,-2,0,0,-3,-1
1513481303983229,1,0,-2,-1,0,-1,-1,1
1513481303985231,0,-1,-1,-4,-5,0,-1,-1
1513481303985231,0,-2,0,2,-5,-2,1,-3
1513481303997242,-6,0,-1,0,0,-2,-4,0
1513481303997242,-3,-2,-3,-5,1,1,-5,0
1513481304007246,0,0,-3,-1,1,-1,-1,3
1513481304007246,-3,-3,0,1,-5,-2,0,-2
1513481304021256,-1,3,3,-1,-2,-1,-1,-2
1513481304021256,0,0,-1,1,2,-1,-4,0
1513481304022256,0,-2,-3,0,2,1,0,1
1513481304022256,-2,-1,1,-2,-5,-2,2,2
1513481304043323,2,-2,-1,0,-2,-2,0,1
1513481304043323,3,0,-2,0,0,-1,-2,-4
1513481304045325,-2,-2,-2,-3,-2,-1,1,-1
1513481304045325,-3,-5,0,-1,-6,-1,2,-3
1513481304057329,-1,1,0,-2,1,-1,-4,1
1513481304057329,1,2,-2,-3,2,-2,2,1
1513481304066335,-1,-2,-2,-3,0,-2,0,-3
1513481304066335,-2,2,2,-1,-4,-1,2,1
1513481304081346,-3,-2,-1,0,-3,-2,0,-3
1513481304081346,1,-1,-3,-4,1,-1,-3,1
1513481304082348,-2,-1,-2,2,-4,0,1,-2
1513481304082348,-5,-1,1,-1,-1,1,2,1
1513481304103366,1,-2,2,0,1,0,0,2
1513481304103366,3,-3,-3,1,3,-2,-2,0
1513481304106354,0,-2,-2,-2,-1,-2,0,-3
1513481304106354,1,0,2,1,-7,-1,0,-2
1513481304117361,2,-1,1,0,-2,1,-1,0
1513481304117361,1,-3,-5,0,5,-2,-2,-2
1513481304126385,-4,-1,-2,-3,-4,-3,-2,-1
1513481304126385,-1,0,-1,-2,-4,1,1,1
1513481304140395,-2,-1,-2,-3,-3,-2,-2,-7
1513481304140395,0,-2,-3,-3,3,1,-3,0
1513481304142384,0,0,-3,-1,0,-1,0,-2
1513481304142384,0,-2,1,2,-1,0,0,-1
1513481304163408,-1,-3,-1,0,0,-2,0,-1
1513481304163408,0,-1,-5,-2,5,1,-7,-4
1513481304165411,-2,-4,-2,-2,0,0,-1,-1
1513481304165411,0,-2,3,0,-8,-1,0,0
1513481304177419,-2,1,1,0,0,0,-1,0
1513481304177419,-1,-2,-5,-2,1,-2,-4,0
1513481304186411,-2,-1,-2,0,0,-1,-1,1
1513481304186411,-4,1,3,-2,-4,0,4,-1
1513481304200437,0,-2,2,-3,1,0,-2,-2
1513481304200437,-1,-1,-4,-1,2,-3,-3,0
1513481304200437,-2,0,1,-1,-4,-2,-2,0
1513481304200437,-6,0,-3,-3,-3,1,-1,-1
1513481304222436,-6,-1,2,2,1,0,-1,-2
1513481304222436,1,0,-3,-3,4,-2,-3,-1
1513481304224437,3,-4,-1,-4,3,1,0,-4
1513481304224437,0,-5,2,1,-4,0,0,0
1513481304245455,-1,2,0,3,-1,-2,0,1
1513481304245455,-2,-2,-7,-4,0,0,-6,-1
1513481304246453,1,0,-3,-3,-2,-2,1,-5
1513481304246453,-1,0,3,-2,-6,-1,2,-2
1513481304260474,1,-2,1,-1,1,-3,0,-3
1513481304260474,0,1,-4,0,3,-3,-5,0
1513481304260474,-2,1,-1,1,-1,-1,-4,1
1513481304260474,-2,-2,2,-1,-6,-2,2,0
1513481304282479,0,-2,-1,0,-3,0,-1,3
1513481304282479,2,-3,-3,0,3,0,-3,-4
1513481304283478,1,2,-2,-2,-2,-1,-1,-1
1513481304283478,-1,-2,3,1,-4,-1,1,0
1513481304305509,-1,2,-2,-2,-1,1,-1,2
1513481304305509,1,-2,-2,0,4,-1,-3,-3
1513481304306522,-1,-1,0,-1,-3,-3,-2,0
1513481304306522,-3,-2,3,-2,-6,-2,3,-4
1513481304320517,2,-1,-1,3,2,-2,-1,1
1513481304320517,1,0,-3,-3,2,-1,-4,-1
1513481304320517,-2,-3,-3,-3,0,0,-1,-3
1513481304320517,-3,-2,0,-2,-3,0,1,0
1513481304342530,0,-2,0,0,1,0,-2,1
1513481304342530,-3,-1,-6,0,6,0,1,-1
1513481304343521,0,2,0,0,-3,-2,-3,-1
1513481304343521,-2,0,2,-2,-5,-1,0,-1
1513481304365546,-4,1,-2,-2,-2,-3,-2,-1
1513481304365546,-2,1,0,-1,1,0,-3,-4
1513481304365546,0,0,-2,-2,-1,3,0,3
1513481304365546,0,-3,2,0,-4,-2,4,-1
1513481304380580,-1,-2,-2,-3,0,0,2,-4
1513481304380580,1,-1,-3,0,1,-1,-3,0
1513481304380580,-3,-2,0,-1,-4,-1,-3,0
1513481304380580,-1,0,2,2,-6,1,0,1
1513481304402563,0,-4,1,1,-1,-1,-5,-1
1513481304402563,-2,-2,-4,-5,2,-3,-3,-3
1513481304403575,1,-3,-3,2,-3,0,1,0
1513481304403575,-6,-1,5,-2,-7,-1,1,-1
1513481304425589,-2,-4,-2,0,-4,-2,-1,2
1513481304425589,-2,-2,-3,-2,3,-1,0,2
1513481304426590,-4,3,-3,-1,-1,-1,1,-2
1513481304426590,0,-2,2,1,-1,1,3,0
1513481304439598,-1,0,1,0,-4,-2,1,-1
1513481304439598,0,-1,-4,-2,1,-2,-4,-2
1513481304440591,-2,-2,-1,-3,-1,-2,-3,-1
1513481304440591,-3,1,0,0,-3,1,-1,-3
1513481304462618,-1,0,2,-3,-2,-3,1,-1
1513481304462618,0,1,-6,0,5,-3,-1,-1
1513481304463609,1,-2,-1,-3,-1,-2,2,1
1513481304463609,0,1,3,-1,-6,0,1,-1
1513481304485634,-5,-2,-1,2,-2,-1,-1,-2
1513481304485634,-1,2,-5,-1,1,-1,-2,0
1513481304485634,-1,0,0,-3,-1,-2,-5,-2
1513481304485634,0,0,2,1,-7,-1,0,-4
1513481304499631,1,-2,1,-1,-1,-1,-2,-1
1513481304499631,-2,-5,-2,-4,1,-2,-4,2
1513481304500633,-2,-1,-1,-3,-2,-3,0,2
1513481304500633,-1,-2,4,1,-6,-2,3,-2
1513481304522658,0,1,-3,-1,0,0,-1,-2
1513481304522658,0,-1,-5,-2,2,-2,-2,-4
1513481304523659,1,-4,-2,-3,0,3,-1,0
1513481304523659,-4,0,1,-2,-2,-4,1,0
1513481304544702,-1,-1,-3,1,-2,0,-3,-4
1513481304544702,3,1,-5,-4,4,-3,-3,1
1513481304545664,-3,0,-1,0,-2,-1,0,0
1513481304545664,1,-2,3,1,-4,-1,1,0
1513481304559686,-1,-1,1,-3,-5,0,1,-2
1513481304559686,-2,-1,-7,-1,5,0,-3,-1
1513481304560675,-4,-3,-1,0,1,-2,-1,-4
1513481304560675,-2,-3,2,2,-6,1,-1,1
1513481304582698,1,-2,-2,-1,2,-3,-1,-2
1513481304582698,-1,2,-5,-2,2,-2,-4,-2
1513481304583691,-5,-2,2,-3,-4,-2,-2,0
1513481304583691,-4,-3,2,-4,-2,0,0,0
1513481304604760,-3,-1,-1,8,3,-1,-2,-1
1513481304604760,1,-1,-4,-3,1,-2,-4,-4
1513481304606764,0,1,-3,2,2,1,1,0
1513481304606764,-2,2,1,-3,-5,-2,0,-3
1513481304619783,0,-1,-3,-2,3,1,-4,3
1513481304619783,-3,-3,-3,-1,-2,0,-3,-2
1513481304620772,-1,0,1,-4,-2,-3,-2,-2
1513481304620772,2,-4,1,2,1,1,0,-1
1513481304642810,0,2,1,2,-1,0,-4,-2
1513481304642810,1,-3,-8,-1,3,-3,-2,1
1513481304643809,1,-2,-3,-7,-1,2,2,-1
1513481304643809,-1,0,1,5,-3,-3,2,0
1513481304673819,-1,1,-1,-6,-2,0,-1,-4
1513481304673819,-2,-2,-2,0,0,0,0,4
1513481304673819,0,-1,-2,-2,-2,-3,-1,0
1513481304673819,0,3,1,-1,-5,1,2,0
1513481304679823,0,0,3,1,-1,-3,-2,0
1513481304679823,-2,1,-4,-3,0,0,-2,-4
1513481304680814,2,-2,-1,-1,-1,-3,-6,-4
1513481304680814,0,-2,0,1,-2,1,-1,1
1513481304702848,1,-1,-1,-4,0,-1,3,0
1513481304702848,1,-1,-1,-2,3,-1,1,-1
1513481304703831,-2,0,-1,-3,0,-1,-1,0
1513481304703831,-1,0,3,1,-4,-3,-1,-4
1513481304732863,-1,-1,-2,-2,0,1,-4,0
1513481304732863,-2,-1,-3,-4,1,0,-1,-1
1513481304733851,0,-1,0,-3,0,0,1,-2
1513481304733851,-3,-2,3,3,-4,0,0,-3
1513481304739857,-2,-1,1,-2,-3,0,0,2
1513481304739857,4,1,1,0,-1,2,-2,1
1513481304740856,-1,1,-2,-2,-4,-3,0,2
1513481304740856,-2,0,3,-1,-5,-1,0,-1
1513481304762872,1,-1,-1,1,0,-1,-1,-1
1513481304762872,-2,-3,-5,1,5,-2,1,1
1513481304762872,1,-2,-2,-1,-2,-2,1,-3
1513481304762872,0,-2,3,-3,-4,0,-1,2
1513481304784949,2,2,0,1,1,-2,2,0
1513481304784949,0,-1,-2,-4,0,-2,-3,-3
1513481304785899,0,-4,-6,-3,-1,0,-3,1
1513481304785899,-2,-3,1,-3,-3,-2,4,-1
1513481304799898,-1,-4,0,2,2,0,-4,-3
1513481304799898,-2,0,-5,-5,4,0,-1,1
1513481304800899,-1,1,1,4,-2,1,0,-3
1513481304800899,0,-1,3,-2,-5,-1,-1,-2
1513481304822914,0,-2,-3,-1,1,-2,-1,-2
1513481304822914,-2,-4,-5,0,-2,-3,-2,-3
1513481304823915,-3,0,1,-2,-2,0,2,-1
1513481304823915,-2,0,-1,0,-2,0,-1,-1
1513481304844941,0,1,3,0,-1,-2,1,-2
1513481304844941,-1,1,-4,-5,-1,0,-2,-1
1513481304845931,-1,-1,-1,-1,-2,-1,-2,-1
1513481304845931,-2,-1,4,4,-1,1,1,4
1513481304868967,-5,-3,-2,-3,-2,-2,1,-1
1513481304868967,1,-2,-4,-2,0,-2,-3,-2
1513481304868967,1,-3,-1,-2,0,-3,1,-1
1513481304868967,-1,2,1,-1,0,-2,-3,-1
1513481304882957,0,1,-2,1,0,0,-3,0
1513481304882957,-1,-4,-7,-2,2,-1,-4,2
1513481304882957,-5,-2,0,-1,-2,1,0,-1
1513481304882957,-2,0,0,1,-4,-2,2,-2
1513481304904988,0,1,-1,-2,1,-1,-1,0
1513481304904988,-1,0,-3,-6,3,-1,-1,0
1513481304905974,-3,-1,-3,0,-2,-2,-3,1
1513481304905974,-2,-3,3,1,-3,1,-3,-1
1513481304918994,-2,-3,-2,-1,-4,-2,0,-1
1513481304918994,-2,1,-4,2,2,-3,-2,-1
1513481304927992,1,1,1,0,1,0,0,-2
1513481304927992,-1,-1,1,-2,-5,-1,0,-2
1513481304943014,-1,0,1,2,-2,-1,2,-4
1513481304943014,0,-4,0,-4,2,-4,-1,-1
1513481304943014,1,-1,-1,0,-2,-1,1,-1
1513481304943014,0,-1,2,1,-3,0,1,-2
1513481304965024,1,-1,-2,0,-1,-1,-5,-2
1513481304965024,-7,-1,-5,0,1,1,-2,1
1513481304966016,-4,-1,-4,-4,-3,-2,0,0
1513481304966016,0,-4,-1,3,-1,-1,-1,-1
1513481304979083,-2,-1,-1,-7,-1,0,-2,3
1513481304979083,1,-1,-2,-2,0,2,-4,-1
1513481304988041,-3,-1,0,-3,3,-2,2,-2
1513481304988041,0,-3,3,-1,-2,-1,1,-2
1513481305003056,-2,-3,-3,0,-2,-1,0,1
1513481305003056,0,-1,-5,-3,-2,-2,-2,-1
1513481305003056,0,2,0,2,-4,1,1,-1
1513481305003056,-1,1,3,0,-4,-3,-3,-1
1513481305025067,1,0,2,2,-1,0,1,-1
1513481305025067,1,-2,-3,-1,-1,-1,-1,-4
1513481305026061,-1,-3,-1,-1,-3,1,-1,-1
1513481305026061,-3,3,0,3,-4,-1,1,0
1513481305039077,-4,-1,-1,0,0,-1,-5,-1
1513481305039077,-2,-2,-3,-1,0,0,-2,-2
1513481305047084,0,-3,-3,-1,-3,-1,-1,-1
1513481305047084,1,-2,-1,-2,-4,1,4,-4
1513481305063085,0,-3,0,-3,-1,-3,-1,-2
1513481305063085,5,-1,-6,-3,-1,0,-3,-1
1513481305063085,-3,0,-2,-1,-2,0,-4,-3
1513481305063085,0,-2,1,-1,-3,-1,-1,-5
1513481305085101,-1,-2,-1,-2,0,-2,-1,1
1513481305085101,0,0,-1,0,5,-1,-2,0
1513481305086100,2,1,-4,-3,1,-2,-4,-2
1513481305086100,0,-3,4,1,-3,1,2,0
1513481305099122,0,-2,-3,1,-1,0,-1,-2
1513481305099122,-2,-1,-1,-1,-1,-2,-4,0
1513481305107135,-1,-3,0,-2,-1,-1,2,1
1513481305107135,-2,2,0,3,0,0,-3,3
1513481305122136,-1,0,0,-1,-3,0,-1,0
1513481305122136,-1,0,-4,-2,-1,-4,2,2
1513481305123126,2,0,1,0,-3,0,-3,0
1513481305123126,-3,0,2,-1,-1,-2,-1,-4
1513481305153150,-1,-2,0,0,-1,-2,0,-1
1513481305153150,-2,0,-6,-2,2,-3,0,0
1513481305154149,-2,-3,-3,-4,-2,-1,-2,-3
1513481305154149,0,-3,-1,-1,-2,-2,-1,0
1513481305159167,0,0,1,2,-1,-2,-3,1
1513481305159167,-3,0,-5,-5,1,1,1,-3
1513481305167172,-3,-3,0,-2,2,-1,0,-1
1513481305167172,-2,-3,0,0,-3,0,-3,-1
1513481305182178,1,3,-6,-1,1,0,1,-4
1513481305182178,3,-2,-2,0,3,0,-3,1
1513481305183168,-2,-3,0,1,0,1,-2,-2
1513481305183168,-4,-2,1,-2,0,-1,-3,2
1513481305205185,-2,0,0,-3,3,-3,-2,1
1513481305205185,0,-3,-3,-1,3,-1,-3,-4
1513481305206200,3,-2,-4,-4,1,0,2,0
1513481305206200,-3,0,4,1,-3,1,-1,-2
1513481305228211,-2,-1,-1,0,0,0,-2,1
1513481305228211,1,1,-5,-2,0,-3,-1,-3
1513481305229201,-2,-1,-2,1,-3,0,-1,-1
1513481305229201,-1,0,0,-6,-1,-3,-2,-1
1513481305242220,0,-3,-4,3,-2,0,-1,-1
1513481305242220,-1,0,-2,-6,0,-1,-1,-1
1513481305243217,-4,-1,1,-2,-2,-2,0,-4
1513481305243217,0,-1,4,3,-4,-3,0,0
1513481305265236,1,0,0,-2,4,-1,1,1
1513481305265236,-1,-1,-3,-1,1,0,-5,-1
1513481305266242,0,0,0,0,-4,-3,0,0
1513481305266242,-3,0,-1,-1,-1,0,1,1
1513481305288253,0,-2,1,-1,1,-2,-2,1
1513481305288253,-4,-2,-5,-2,-2,0,1,0
1513481305289243,-3,0,0,-3,0,0,0,1
1513481305289243,1,-1,1,-1,-5,-4,-2,-2
1513481305302263,-1,0,-1,0,-1,-1,-3,-2
1513481305302263,1,0,-2,1,0,-3,-4,-2
1513481305303267,-2,0,2,0,-3,0,0,0
1513481305303267,-1,1,3,0,-2,0,1,-2
1513481305325287,-3,-2,-3,-1,2,0,-5,0
1513481305325287,-2,-3,-4,-2,-4,-2,1,-2
1513481305327289,-2,-3,1,3,-2,1,-2,-2
1513481305327289,0,1,0,1,1,2,0,0
1513481305348285,-1,-1,0,-2,2,-1,-2,0
1513481305348285,-2,0,-2,-4,3,-2,-1,-3
1513481305349286,1,-4,-2,-3,-2,0,1,2
1513481305349286,-1,-3,-1,2,-2,2,-2,0
1513481305362351,-1,-1,0,2,-3,-1,-1,-2
1513481305362351,-1,0,-3,-4,1,-3,-1,2
1513481305363297,3,-1,-1,-1,-4,-3,1,-3
1513481305363297,-1,-1,1,-1,-2,1,2,-1
1513481305385314,0,-3,-4,-3,4,-1,-1,-1
1513481305385314,0,0,-3,1,-4,1,-3,-4
1513481305385314,-3,1,-1,-2,-2,-2,3,0
1513481305385314,-3,-2,3,-1,-3,-5,1,1
1513481305408338,-1,0,-2,2,1,0,-3,-2
1513481305408338,-3,-1,-3,-1,0,-1,-3,-1
1513481305409338,-3,-2,1,0,-2,1,-3,-4
1513481305409338,0,2,1,1,-2,0,1,-1
1513481305422338,-1,0,-1,1,-3,-2,-1,-3
1513481305422338,0,-1,1,-4,1,-2,1,-3
1513481305423339,-5,3,0,-2,-5,0,2,-1
1513481305423339,-1,-2,2,1,-1,-2,-2,-3
1513481305445404,3,-3,-3,-1,2,-3,-4,-1
1513481305445404,-2,1,-1,0,-2,1,-4,2
1513481305445404,0,0,0,0,-4,-3,1,1
1513481305445404,-2,-4,4,0,-4,-1,-1,-2
1513481305468384,-1,1,-2,-1,3,1,-4,-5
1513481305468384,1,-3,-4,-2,0,-2,1,-2
1513481305469372,-2,-1,2,0,-2,-2,3,1
1513481305469372,-2,-2,-1,-1,-1,-1,-3,-2
1513481305482391,2,-3,-1,-4,0,-1,1,-2
1513481305482391,0,0,-3,-3,1,-1,-1,-2
1513481305483382,-4,-3,-2,-1,-1,-2,0,-1
1513481305483382,2,-3,0,2,-3,1,0,0
1513481305506464,-1,-1,-2,-2,0,-3,-3,-8
1513481305506464,1,-1,-2,1,-2,-2,0,-1
1513481305507464,-1,0,2,-5,-3,0,1,-1
1513481305507464,-2,-2,1,3,0,-2,-3,0
1513481305528482,1,-2,-3,-6,2,-3,0,2
1513481305528482,-3,-1,-1,-1,-3,2,1,2
1513481305529481,-4,-2,0,-1,-2,-2,2,-2
1513481305529481,1,0,-1,0,-2,1,-1,-1
1513481305542491,-1,-1,-1,1,2,-1,-3,-1
1513481305542491,-2,-1,-2,0,-2,0,-3,1
1513481305543491,-2,0,1,-2,-2,0,0,0
1513481305543491,0,-1,0,1,-2,-4,0,-1
1513481305565507,-1,-3,-6,-1,4,1,-4,3
1513481305565507,0,-3,-2,-1,1,-1,-1,-2
1513481305566508,1,-1,1,0,-5,0,-2,-3
1513481305566508,1,-1,-1,-2,0,-1,-1,5
1513481305588523,1,-3,-7,0,3,-1,0,-3
1513481305588523,-2,0,-1,-2,-4,0,1,0
1513481305588523,-1,-1,1,1,-7,-1,1,-2
1513481305588523,-4,1,-1,-4,-3,-1,-2,-3
1513481305602545,1,-2,0,1,-1,1,-7,3
1513481305602545,-2,-1,-3,-4,1,-1,0,-5
1513481305603533,-1,-3,0,0,-3,-2,3,-1
1513481305603533,-2,3,1,0,0,-2,-1,-2
1513481305625564,-1,1,-1,1,4,-2,-1,-2
1513481305625564,-3,-3,-2,-2,-1,-1,-1,0
1513481305626549,-5,0,3,-2,-7,-2,1,0
1513481305626549,3,-1,0,-2,1,-2,2,-2
1513481305648565,2,-3,-3,-2,3,-1,2,-1
1513481305648565,-2,-3,0,-3,-1,0,-3,-1
1513481305649565,-1,-1,1,0,-3,-3,0,-2
1513481305649565,1,1,1,3,-4,-2,1,-3
1513481305662590,-3,-3,-3,-3,3,0,-6,1
1513481305662590,-2,-1,-4,-2,-2,-3,-1,2
1513481305663576,-2,-4,1,-3,-4,-1,0,0
1513481305663576,-2,0,1,1,1,-1,-2,0
1513481305685592,3,1,-3,-1,3,-1,-5,0
1513481305685592,1,-3,-3,-2,-1,-1,2,5
1513481305686597,0,-4,2,-1,-1,-2,-1,-3
1513481305686597,-4,-3,2,1,-2,1,-2,-3
1513481305708608,-5,1,-4,-3,1,-4,-3,1
1513481305708608,3,-3,-4,-4,0,-1,0,-1
1513481305708608,-3,0,1,2,-5,0,0,0
1513481305708608,-1,-1,-1,-3,-2,-1,-4,-2
1513481305722618,1,1,-2,0,3,-1,-1,-4
1513481305722618,1,0,-1,0,-3,-2,-2,-2
1513481305723618,2,-2,1,-2,-4,2,3,-2
1513481305723618,0,-2,0,1,0,0,-2,1
1513481305745650,0,-1,-4,-2,1,-1,-1,4
1513481305745650,0,-1,-2,-1,1,-1,-1,-2
1513481305746634,2,1,1,2,-3,0,2,-2
1513481305746634,-1,0,-2,0,-2,-2,1,-3
1513481305768649,2,-2,-5,-5,2,-2,-4,2
1513481305768649,-1,0,-1,-1,-1,-1,1,1
1513481305768649,-2,-3,1,1,-5,1,1,0
1513481305768649,-2,-1,0,-5,2,-1,-4,-2
1513481305782660,-2,3,-5,0,3,-2,-3,-3
1513481305782660,1,-1,0,-2,-3,0,-1,-1
1513481305783661,-4,-1,2,-1,-7,0,0,0
1513481305783661,2,-1,-2,1,1,1,-2,1
1513481305806677,-1,-3,-3,0,1,-2,-4,-2
1513481305806677,-3,-1,-1,-2,1,0,-3,-1
1513481305807678,-2,-2,3,-2,-6,-2,1,2
1513481305807678,-3,2,-4,-2,-3,-3,0,2
1513481305828707,1,-2,-3,-2,1,-1,-4,-2
1513481305828707,-2,-1,-1,-1,-2,-1,-2,-3
1513481305828707,0,-2,3,1,-6,-2,6,-2
1513481305828707,-1,1,1,0,1,-2,-2,-2
1513481305850708,-2,1,-3,-1,2,1,-4,-1
1513481305850708,-2,1,-4,0,-2,-2,4,-5
1513481305851709,-2,-4,1,-2,-4,0,2,-1
1513481305851709,4,-5,1,0,-2,-1,-2,1
1513481305865730,0,0,-3,1,7,-1,-5,-1
1513481305865730,-1,-2,-2,-3,-6,0,-1,3
1513481305866736,-6,0,1,-1,-6,0,0,-2
1513481305866736,1,1,0,3,1,-1,2,-3
1513481305887743,-2,-6,-4,-1,4,-1,-5,-1
1513481305887743,3,0,-2,-5,1,0,3,-3
1513481305888748,-2,-3,3,-1,-6,-3,0,-2
1513481305888748,-2,0,-1,1,-4,2,-3,2
1513481305901759,0,2,-5,-5,3,-2,-2,-2
1513481305901759,-1,-1,1,-1,-6,0,-1,-4
1513481305909767,-1,1,0,-1,-5,0,-1,0
1513481305909767,-3,-4,0,-1,0,-1,-2,-3
1513481305925765,-1,-2,-1,1,2,0,-2,-1
1513481305925765,-1,-1,-5,-3,0,-2,0,-2
1513481305926767,2,-2,2,2,-3,-1,-1,-3
1513481305926767,-2,-1,-2,0,-1,1,2,3
1513481305948778,3,-1,-7,-1,3,-4,-2,0
1513481305948778,0,-2,0,-3,2,-2,-2,0
1513481305948778,-1,0,1,-1,-4,1,2,-2
1513481305948778,1,-1,0,-2,-1,-1,0,-2
1513481305961787,-1,-1,-5,-1,2,-2,0,1
1513481305961787,-1,-2,1,0,-2,-1,-2,0
1513481305969794,-2,0,2,1,-2,-3,1,-3
1513481305969794,1,-5,-1,-3,-3,-1,-5,-1
1513481305985826,1,1,0,-1,0,0,0,-1
1513481305985826,-1,-2,-1,1,0,1,-3,-1
1513481305986805,-3,0,1,1,-3,-1,2,2
1513481305986805,-3,0,0,-1,-2,-1,-1,-5
1513481306007820,-2,-1,-6,-2,0,0,0,-3
1513481306007820,-2,1,1,-2,-2,-4,0,-1
1513481306008820,0,0,3,0,-4,-1,4,-2
1513481306008820,-3,0,-2,5,1,-1,-1,-2
1513481306021829,3,-2,-7,-5,5,1,-3,2
1513481306021829,0,-2,-2,2,-3,-3,-2,0
1513481306029835,-1,0,4,-2,-5,-1,-2,-3
1513481306029835,-2,-4,0,-2,-2,-2,1,1
1513481306045873,-2,0,-6,-1,1,0,-7,-4
1513481306045873,-1,0,-1,-3,0,0,1,3
1513481306046846,0,-1,4,2,-7,-3,0,0
1513481306046846,-1,0,-4,-1,2,0,-2,1
1513481306067874,1,1,-5,-2,4,-3,-2,-4
1513481306067874,-3,-3,-1,-2,3,-1,0,0
1513481306068862,-3,1,1,0,-4,1,1,-1
1513481306068862,-2,-1,0,-1,-3,-2,-2,-1
1513481306081872,0,0,-3,-1,3,-2,-3,1
1513481306081872,-4,-4,-3,-1,-2,1,2,-3
1513481306089877,-4,-2,4,-1,-5,-1,0,-1
1513481306089877,0,1,0,-1,2,-3,0,0
1513481306105943,-1,-2,-6,-2,-1,-1,2,0
1513481306105943,1,-2,0,-1,-3,-2,-2,0
1513481306106942,-1,-1,2,0,-3,-1,1,1
1513481306106942,0,0,-2,-3,-1,-1,1,-4
1513481306127972,0,2,-3,-2,0,-2,-4,1
1513481306127972,-2,-1,0,-4,0,0,-1,0
1513481306128958,0,-1,2,-1,-6,0,1,-1
1513481306128958,-3,0,1,-2,-1,-2,-3,0
1513481306150973,0,0,-4,-1,1,1,0,1
1513481306150973,0,-4,-3,0,0,-1,-2,-2
1513481306151974,-5,-2,1,0,-4,1,1,-4
1513481306151974,1,1,-1,-1,-1,-1,0,-2
1513481306165995,-4,-3,0,-2,3,-2,-1,4
1513481306165995,-2,0,-1,-2,-1,-1,0,-3
1513481306166996,-2,1,1,0,-3,-1,1,2
1513481306166996,1,-3,-1,0,-1,0,3,-3
1513481306188020,-1,-3,-4,-5,6,-1,-7,-4
1513481306188020,-2,4,0,-3,-2,-4,-1,-3
1513481306189001,0,-3,0,3,-4,-3,2,1
1513481306189001,0,0,0,1,-1,2,-3,0
1513481306211016,0,-1,-2,-3,1,-1,-2,-3
1513481306211016,-4,-4,-1,-1,-3,2,0,3
1513481306214019,-1,-1,-1,-1,-5,-2,0,-2
1513481306214019,2,-1,0,0,-3,-2,-3,1
1513481306224026,-2,-1,-1,-3,-1,-2,-2,1
1513481306224026,-2,0,-1,2,-2,-4,-1,1
1513481306233033,0,3,3,-2,-3,0,1,1
1513481306233033,-1,-2,-1,-1,-2,-2,-2,-1
1513481306248047,-4,-2,-3,0,4,2,-1,-3
1513481306248047,0,-4,0,-4,-2,-1,2,-1
1513481306250049,-4,-2,1,-2,-4,0,-1,-1
1513481306250049,-2,0,-1,0,-2,0,0,-1
1513481306271072,1,-1,-4,-4,3,-4,-6,-1
1513481306271072,-1,1,-2,0,-2,-2,0,-2
1513481306272059,-1,-2,4,0,-2,1,0,1
1513481306272059,0,-2,-3,0,-1,1,0,-1
1513481306285072,5,0,-5,0,0,-3,0,-2
1513481306285072,-3,-3,-1,-2,-3,1,-3,-3
1513481306293075,-1,-1,1,0,-1,1,3,0
1513481306293075,-1,-2,1,0,4,-3,-2,-1
1513481306308106,0,-2,-2,-1,4,-1,-3,-1
1513481306308106,-1,1,-3,-3,-1,-1,-2,1
1513481306310107,-1,-1,2,1,-6,-5,1,-1
1513481306310107,-3,-4,2,-1,-2,-1,-1,0
1513481306331102,-3,-2,-3,-1,-3,-1,-1,-2
1513481306331102,2,-1,1,-2,-4,-1,-1,-2
1513481306332102,-1,-5,1,2,-3,1,-2,-4
1513481306332102,-2,2,-2,0,-2,-3,0,2
1513481306345160,1,-1,-4,1,4,0,-3,2
1513481306345160,0,1,-3,-4,-2,-1,-2,1
1513481306352138,-2,-2,1,3,-4,-1,4,-5
1513481306352138,1,-1,0,-2,-4,-1,0,-2
1513481306368150,-1,3,-4,-2,2,-2,-1,-2
1513481306368150,3,-1,-2,-2,0,0,-3,-1
1513481306370151,-2,-3,3,0,-7,-1,3,1
1513481306370151,0,-1,-1,0,0,-1,-2,0
1513481306390158,-2,-2,-5,0,2,-1,-1,3
1513481306390158,-4,-2,-2,-1,-2,0,-2,-2
1513481306397148,-2,-2,3,0,-6,0,-3,-2
1513481306397148,0,0,-3,-2,-2,-3,-3,-1
1513481306405154,1,-2,-1,-1,2,-3,-2,-4
1513481306405154,-1,-2,-2,-1,2,-1,-1,-4
1513481306412173,2,0,2,0,-3,-1,0,-1
1513481306412173,-2,1,-1,-1,-1,-1,0,-2
1513481306428184,4,0,-4,-2,3,-2,-3,-3
1513481306428184,2,1,0,-3,0,-2,3,2
1513481306431184,0,0,2,0,0,-1,-1,1
1513481306431184,1,-1,0,-3,-2,-2,-2,-3
1513481306451201,0,0,-3,-1,0,-2,-5,-1
1513481306451201,1,-1,-1,0,-3,-2,-1,-4
1513481306452187,-1,-1,1,-5,-6,0,1,-1
1513481306452187,-1,0,-1,4,3,0,-1,1
1513481306465196,-1,-2,-4,-6,0,-2,-3,1
1513481306465196,-3,2,0,1,0,0,0,-1
1513481306472202,-1,0,3,2,-3,-1,-4,-1
1513481306472202,-2,-1,-1,3,2,-1,0,-1
1513481306488238,-4,0,-3,-1,-2,-1,-1,0
1513481306488238,0,-2,-14,-7,-2,1,0,0
1513481306490215,1,1,8,3,-4,-1,0,-3
1513481306490215,-1,-1,1,-1,0,0,1,-2
1513481306511245,2,3,2,-1,4,-2,-3,-2
1513481306511245,0,-1,1,9,-1,0,0,2
1513481306512246,-2,3,15,-1,-3,-1,2,2
1513481306512246,3,-6,-24,-3,-3,-2,-1,-1
1513481306525257,2,-2,-7,-4,4,1,-2,-1
1513481306525257,-5,-2,1,1,-5,-2,1,-5
1513481306532256,-2,0,2,1,-2,2,-3,0
1513481306532256,-5,0,16,1,0,-2,-2,0
1513481306548284,-5,0,12,-2,3,-3,2,-2
1513481306548284,-3,-7,-36,-9,-4,-3,-1,-2
1513481306550266,2,2,-8,1,-1,-1,0,-1
1513481306550266,-5,-3,5,-3,0,0,-4,1
1513481306571280,-5,-10,-45,-1,-2,-1,-1,-2
1513481306571280,-7,-1,6,-15,-2,-4,1,-2
1513481306572282,-2,-1,1,9,-3,-1,2,1
1513481306572282,0,1,0,-6,1,-2,-1,-1
1513481306585305,-1,1,0,0,0,-1,0,-1
1513481306585305,3,-2,9,1,-1,1,-2,2
1513481306592308,0,-3,-8,-6,-2,-5,-3,-5
1513481306592308,3,2,3,5,3,3,-1,1
1513481306615337,-6,-5,3,0,-5,-3,-1,0
1513481306615337,5,3,5,-1,4,-1,1,-1
1513481306617326,-6,-8,1,-8,-9,-2,1,-4
1513481306617326,2,1,-18,4,7,-1,0,-1
1513481306630336,-1,-7,-13,-18,-3,-1,-3,-2
1513481306630336,-1,-2,-4,5,-2,-2,-2,0
1513481306632337,-1,0,20,4,-4,-1,1,0
1513481306632337,-5,2,3,2,0,0,-6,-3
1513481306644355,1,3,-9,-1,4,1,0,0
1513481306644355,-4,-3,3,0,0,0,-3,-1
1513481306653352,1,-1,-12,-2,0,-1,-2,0
1513481306653352,3,-2,1,2,-1,-1,4,-1
1513481306668380,-4,3,6,7,1,-2,-2,0
1513481306668380,4,-2,9,0,-3,-1,1,-1
1513481306669363,-4,1,2,9,-2,3,2,1
1513481306669363,11,-11,-28,-16,-7,-2,1,-2
1513481306690378,-3,4,12,2,0,-3,-1,-2
1513481306690378,1,1,-6,1,0,-1,0,2
1513481306692379,-6,-2,3,0,-1,0,-1,-2
1513481306692379,-2,-3,1,2,0,4,-1,-3
1513481306704436,5,0,4,-5,1,-5,-7,0
1513481306704436,-5,-2,-14,-4,1,6,0,-3
1513481306713395,2,6,15,1,3,0,1,2
1513481306713395,-11,1,-6,0,-3,-6,-9,-5
1513481306728419,3,-2,-2,-2,1,-3,0,1
1513481306728419,3,-3,-10,-2,-7,-3,-1,-2
1513481306729426,0,-2,-10,-1,-3,-2,1,-4
1513481306729426,-6,4,21,3,-4,1,2,-3
1513481306750432,0,-4,-15,-3,0,1,-2,5
1513481306750432,-1,-3,23,-8,-2,-4,-4,0
1513481306752429,5,-1,-14,9,-7,-1,3,1
1513481306752429,-5,0,-11,-5,4,-3,2,-1
1513481306764444,-4,-4,11,6,3,1,-1,-3
1513481306764444,4,6,16,0,-1,-3,-1,-4
1513481306773451,-8,-8,24,3,-5,-1,0,-2
1513481306773451,-2,-12,-24,-22,-8,-4,-3,-1
1513481306788458,0,5,37,10,4,0,3,-2
1513481306788458,-9,-1,-28,-4,-4,-10,-3,-3
1513481306789459,4,6,28,-1,8,-3,9,4
1513481306789459,2,-1,-7,9,1,19,3,-3
1513481306810476,6,1,-37,-13,12,2,13,4
1513481306810476,-4,-5,-1,-2,-8,-5,0,1
1513481306812479,-4,-1,-10,-3,0,1,-9,-2
1513481306812479,5,3,24,8,5,-4,-6,2
1513481306824473,-6,-5,-11,-7,-8,-3,-6,-6
1513481306824473,-2,-3,2,4,-4,0,4,-1
1513481306833479,5,0,-1,1,-7,0,0,3
1513481306833479,-12,-2,-8,1,-1,-5,-3,-2
1513481306848502,9,-1,26,0,-6,0,-3,-2
1513481306848502,0,4,-18,7,-1,0,1,1
1513481306849502,-8,0,-15,-4,-7,-1,-4,-4
1513481306849502,7,4,41,11,9,-1,0,7
1513481306870520,-4,-5,-47,-14,2,-4,-4,-4
1513481306870520,1,7,19,5,3,3,0,3
1513481306872516,-11,-5,-33,0,-1,-1,-3,-7
1513481306872516,-2,2,-13,-5,0,-1,4,0
1513481306884515,-4,-4,-19,-10,-2,-5,2,-2
1513481306884515,-1,-5,30,-2,-7,-14,-7,-5
1513481306893534,-7,-2,-29,-6,-4,18,6,-14
1513481306893534,8,2,-5,2,2,-6,0,7
1513481306908532,-12,-6,22,4,-3,0,-4,-3
1513481306908532,-7,-1,2,-10,-3,0,2,-4
1513481306909533,1,3,6,6,-1,1,5,3
1513481306909533,4,12,-12,10,1,1,1,-2
1513481306930558,4,-13,54,-16,-11,-4,-5,-5
1513481306930558,0,-12,-91,-6,-6,2,6,5
1513481306932549,4,5,62,10,1,-5,-6,1
1513481306932549,-7,-9,-14,-3,0,-1,-1,-3
1513481306944597,-7,9,6,10,5,-3,-6,5
1513481306944597,-2,-10,25,4,4,7,1,-3
1513481306953565,3,-2,-65,-9,-9,-6,2,1
1513481306953565,-1,0,-2,2,6,-1,-5,0
1513481306968592,-13,0,16,-5,5,1,-3,0
1513481306968592,-2,5,-1,8,9,0,4,-1
1513481306969578,-8,-19,-5,-23,-9,9,12,-1
1513481306969578,2,9,33,14,7,1,-12,-4
1513481306990600,13,-1,-48,-5,-2,-7,6,0
1513481306990600,-3,11,20,12,5,12,8,5
1513481306992592,0,-13,-29,-26,-10,-15,-23,-4
1513481306992592,0,-1,27,4,-3,0,15,-10
1513481307004655,1,-4,18,-7,-3,3,7,-1
1513481307004655,7,6,21,2,-4,-8,2,1
1513481307013617,-5,1,28,16,5,-1,6,-2
1513481307013617,-3,-13,0,-8,-13,-8,-7,-4
1513481307028626,16,10,-37,-4,-5,-2,-9,3
1513481307028626,-7,-9,-2,-4,-10,-5,0,-6
1513481307029618,-2,9,4,7,-2,1,-6,2
1513481307029618,4,-4,-28,-2,0,-6,-8,-6
1513481307050649,2,-1,23,3,0,-4,-1,2
1513481307050649,-12,-1,17,-12,-4,2,-10,-2
1513481307052635,11,2,14,2,5,-4,-2,0
1513481307052635,-13,-11,-99,-9,1,-2,-5,-3
1513481307064656,2,5,-1,7,-1,2,4,-4
1513481307064656,7,-7,-22,-23,-3,7,9,3
1513481307073659,-11,3,27,12,-4,-5,4,-6
1513481307073659,14,12,33,6,7,6,-5,9
1513481307088659,18,7,13,4,19,1,-10,7
1513481307088659,-8,-13,-24,5,-8,-5,4,-6
1513481307089660,7,12,4,-10,-2,-1,-2,1
1513481307089660,-18,-4,-41,-9,-7,-1,0,-3
1513481307110685,4,-1,-13,-4,-4,2,13,-4
1513481307110685,-12,-1,-2,-17,-7,-3,-7,-3
1513481307112686,-6,2,74,14,4,-5,-5,-5
1513481307112686,5,2,60,17,1,-1,-3,3
1513481307133691,-12,-12,-41,-20,11,3,-8,-4
1513481307133691,-7,-1,-6,6,-18,-4,8,2
1513481307134698,2,3,-8,8,6,-1,-6,0
1513481307134698,11,9,-5,-10,1,-2,6,-4
1513481307147716,-12,7,66,27,2,-9,-13,-11
1513481307147716,10,3,-64,-11,0,14,9,17
1513481307149702,-5,5,14,-9,-1,-4,9,-7
1513481307149702,4,7,34,7,13,2,-1,-1
1513481307170718,-21,-24,-15,-17,-16,-1,9,-15
1513481307170718,3,12,61,-7,-12,-8,6,-3
1513481307172720,2,0,9,-5,8,-8,-18,4
1513481307172720,-6,-12,36,7,-8,-3,-4,1
1513481307193734,8,17,-57,-6,-4,0,2,6
1513481307193734,10,15,30,3,21,-1,-8,1
1513481307194735,-2,-46,-16,4,-6,3,9,5
1513481307194735,-13,-8,-27,-8,-1,-5,-4,-8
1513481307208763,-21,-12,19,-5,-4,1,-4,-3
1513481307208763,2,10,37,14,-9,-2,4,-1
1513481307211747,16,0,16,14,12,3,-3,12
1513481307211747,2,-4,-104,-31,-1,-8,-9,-9
1513481307230761,6,-8,12,12,-4,0,8,5
1513481307230761,3,-14,9,-15,-8,-1,0,-5
1513481307232763,-26,5,18,5,5,0,-6,-18
1513481307232763,18,9,40,11,-2,1,-6,22
1513481307253776,-8,-10,-48,-25,2,-4,-10,5
1513481307253776,-2,7,11,8,-2,4,-2,-13
1513481307254778,22,7,6,12,-7,-1,7,5
1513481307254778,7,-11,6,-15,3,-4,-16,-6
1513481307267796,-18,-13,-11,-18,-15,-2,-4,-6
1513481307267796,-4,6,73,25,-6,-5,-10,-6
1513481307269788,-9,6,-27,-13,-7,4,0,2
1513481307269788,10,-1,41,16,17,2,3,3
1513481307290855,-11,-12,5,10,-17,-3,-1,-2
1513481307290855,-16,9,36,15,-5,-4,-3,-13
1513481307291858,-7,-1,-94,-18,-14,3,7,0
1513481307291858,-5,18,5,-9,10,4,-8,3
1513481307312880,-13,13,11,19,6,8,3,1
1513481307312880,-2,-25,-21,-1,-12,-2,4,9
1513481307314872,-5,29,41,19,10,5,-1,-4
1513481307314872,-5,-20,-59,-24,-11,-5,-4,-8
1513481307335887,8,9,11,4,4,-4,0,-7
1513481307335887,-5,-3,-6,-1,-12,-1,0,7
1513481307337888,13,-13,-49,-19,-14,-3,6,-3
1513481307337888,5,-3,39,-6,12,-6,7,3
1513481307350907,-4,13,40,8,-5,-1,-2,-3
1513481307350907,8,-15,-55,-18,-3,-5,1,-6
1513481307351908,2,0,80,31,0,-2,5,3
1513481307351908,5,8,-41,-14,11,0,0,0
1513481307372926,25,2,-6,-15,4,-2,-3,8
1513481307372926,-3,11,14,27,5,6,-1,-7
1513481307374914,-30,-3,-1,-5,-9,3,-1,3
1513481307374914,-4,-5,54,11,-3,-8,-9,-7
1513481307387982,11,10,-48,-11,-9,-4,12,-4
1513481307387982,8,-30,-11,-9,1,7,0,-2
1513481307393998,2,-2,-23,0,-9,-9,3,-9
1513481307393998,4,30,0,-3,15,1,-14,2
1513481307410998,20,-14,26,9,5,-3,-8,-1
1513481307410998,-4,-3,-57,-24,-15,4,19,1
1513481307412002,6,2,22,2,9,-3,-10,1
1513481307412002,-19,4,-44,10,0,-1,-5,-3
1513481307433014,-17,-16,35,-11,7,1,-5,4
1513481307433014,-13,13,38,-1,2,-9,-13,-6
1513481307435011,16,0,33,-6,20,8,-7,-3
1513481307435011,-52,-26,11,-11,-7,-1,9,-5
1513481307448018,46,42,25,12,5,5,-8,13
1513481307448018,-18,8,4,0,6,2,5,4
1513481307454020,28,-19,-44,-5,6,3,4,9
1513481307454020,34,20,32,7,-3,-4,-10,-5
1513481307471044,8,-10,-36,-25,10,3,1,15
1513481307471044,23,20,36,12,7,1,8,4
1513481307472031,-18,-16,20,-5,-13,-5,-7,-4
1513481307472031,0,1,-12,14,17,8,0,-2
1513481307493070,-6,-5,-15,2,-2,-3,4,-8
1513481307493070,1,-12,-24,8,-6,-7,2,-3
1513481307495048,-4,5,-36,-13,-4,-11,-11,-5
1513481307495048,-9,-20,0,-14,2,0,-6,1
1513481307507057,-40,-10,-11,-9,-14,-5,-5,-8
1513481307507057,17,-4,24,11,-1,7,1,8
1513481307514061,43,-4,5,3,-8,-12,-12,4
1513481307514061,-1,5,-20,-12,1,-5,-9,2
1513481307531084,4,12,21,7,12,7,-2,0
1513481307531084,-35,-19,33,-6,-2,-5,4,4
1513481307532075,-32,0,-16,13,-9,1,-4,-8
1513481307532075,24,-11,-29,-2,-2,4,4,12
1513481307553090,-3,-1,15,27,14,2,-5,-1
1513481307553090,-11,7,9,-24,-18,-10,-19,-9
1513481307555118,-29,-13,5,-4,5,9,1,-10
1513481307555118,-9,20,13,5,0,0,-8,-5
1513481307568112,-21,-19,-32,13,-29,-7,8,-7
1513481307568112,-3,-9,-14,-10,1,5,6,-2
1513481307576105,-10,33,-1,15,13,3,1,-3
1513481307576105,36,-16,-9,-1,6,1,-8,6
1513481307591128,14,10,-28,-4,-5,4,13,-1
1513481307591128,12,8,38,-40,-2,-12,1,2
1513481307592120,-15,-13,54,6,-26,2,-2,-2
1513481307592120,0,-4,-18,20,9,0,6,6
1513481307613144,-2,-9,-19,-28,1,-10,-1,1
1513481307613144,2,-4,-4,22,-20,-1,17,-20
1513481307615147,-11,-21,-3,-11,0,6,10,6
1513481307615147,24,12,6,-8,10,-6,-12,-2
1513481307627155,19,9,-4,-10,-11,0,-8,-5
1513481307627155,-29,-11,-8,21,5,-1,1,5
1513481307651171,42,42,9,5,9,0,1,-4
1513481307651171,-41,-6,-14,-12,-2,11,17,-1
1513481307652160,-14,17,11,33,5,5,15,7
1513481307652160,-4,14,-57,-30,-9,3,12,-1
1513481307654170,2,-4,-5,7,4,-9,-12,-1
1513481307654170,-26,-5,-9,-17,5,-1,12,-25
1513481307673197,-43,-14,24,13,2,0,-12,7
1513481307673197,4,15,9,9,5,-1,-8,-4
1513481307675188,-8,4,1,-24,-16,-3,-9,-5
1513481307675188,-8,-5,18,32,2,-6,10,8
1513481307687186,17,-18,0,-27,8,2,6,-4
1513481307687186,-3,-27,0,36,-12,-3,-14,7
1513481307696194,-10,-9,-9,-38,5,0,3,-13
1513481307696194,15,60,10,20,17,-4,-3,4
1513481307710201,-35,-19,7,1,-18,-5,-13,-19
1513481307710201,28,21,-31,13,-4,6,2,3
1513481307712202,27,-6,6,16,4,-2,-5,1
1513481307712202,4,-9,-13,-20,-3,-11,-7,-5
1513481307733227,25,21,8,23,8,7,10,9
1513481307733227,27,26,9,-69,3,-3,-5,-6
1513481307735219,6,9,-21,54,7,3,4,20
1513481307735219,34,41,-2,-11,12,-2,-6,-5
1513481307747236,8,-64,-20,-19,-20,-9,-18,-13
1513481307747236,-25,-9,11,61,-9,-3,0,-8
1513481307756247,5,3,-6,-36,-18,-4,6,1
1513481307756247,34,11,0,-5,-9,-6,-8,-2
1513481307770255,-23,-11,-14,-15,-8,1,7,14
1513481307770255,-7,-38,-6,19,-4,4,-5,9
1513481307772245,-4,-12,-30,-27,1,-17,-17,-9
1513481307772245,-5,-15,-3,14,4,2,1,4
1513481307793297,14,9,-4,-41,-4,-3,-12,-8
1513481307793297,-29,-18,30,-5,-28,-3,8,-23
1513481307795268,-25,10,-1,-15,0,-3,13,-5
1513481307795268,-32,-61,-1,20,-9,-4,-14,13
1513481307815286,-2,8,-5,3,10,-9,-2,-15
1513481307815286,-10,21,-1,-39,-17,-2,10,-1
1513481307817276,-3,22,15,-4,5,4,6,12
1513481307817276,-20,-50,1,-6,-11,-9,-7,-22
1513481307829288,1,54,15,9,-2,7,-1,2
1513481307829288,5,-26,2,2,-3,-2,-2,-17
1513481307838292,14,-18,-4,11,8,2,10,14
1513481307838292,-8,-11,-12,-14,2,7,-6,20
1513481307853301,25,24,6,14,4,0,-5,-12
1513481307853301,1,14,10,-4,15,-2,-11,-4
1513481307854304,-21,-34,-2,-24,-11,-7,-5,-9
1513481307854304,9,24,-4,-9,1,6,11,5
1513481307867312,15,-27,0,37,10,2,-6,-12
1513481307867312,25,1,5,16,-1,-6,-7,23
1513481307876319,-29,-4,10,-1,-15,3,4,-10
1513481307876319,12,16,-1,-23,15,-4,0,-3
1513481307891338,-28,4,3,4,-9,-7,-9,-3
1513481307891338,-1,-5,4,-12,-4,-3,-1,6
1513481307892329,4,14,14,32,11,12,-4,-3
1513481307892329,-7,-39,-12,-3,-5,-2,13,3
1513481307913355,-8,35,1,-8,5,-2,-6,5
1513481307913355,26,13,-5,-2,3,5,13,3
1513481307914347,-10,-17,9,-14,2,3,1,-7
1513481307914347,-13,-7,-10,-8,-4,-10,-16,-1
1513481307926365,8,-13,5,5,1,2,3,8
1513481307926365,1,-10,-4,-34,-3,-5,-6,-7
1513481307936364,-12,22,-9,22,-9,7,26,-24
1513481307936364,0,-20,4,-3,1,-10,-6,15
1513481307950382,2,3,-7,2,4,8,-5,-1
1513481307950382,-2,-4,-6,-28,-1,-4,7,0
1513481307952373,5,4,-4,33,9,3,-2,7
1513481307952373,9,46,-17,2,1,1,-2,-12
1513481307973401,-19,-1,10,-14,-9,-4,3,-4
1513481307973401,-11,-22,-12,25,-17,1,7,-4
1513481307974387,-6,22,9,-16,3,-1,-7,4
1513481307974387,-29,-6,10,31,-1,3,3,-11
1513481307986435,14,-5,-6,-11,3,-5,10,2
1513481307986435,14,29,7,8,1,4,-2,4
1513481307995440,4,-34,-10,-1,-1,-8,4,9
1513481307995440,1,10,1,-6,1,0,-10,-3
1513481308010424,10,-28,-16,-13,-4,-5,0,17
1513481308010424,3,-14,7,-7,-4,13,1,-5
1513481308012416,8,-6,-5,34,-3,-4,2,8
1513481308012416,12,-33,-2,15,5,2,-16,-8
1513481308040435,28,3,-7,-42,-8,-8,7,12
1513481308040435,-37,-47,-24,54,5,15,15,-3
1513481308042437,3,-8,17,-10,1,2,-1,-12
1513481308042437,29,13,5,-17,-7,1,-22,12
1513481308055457,0,8,11,24,-2,-4,-20,-14
1513481308055457,-7,2,4,-4,-7,-1,5,16
1513481308057459,-18,8,1,-20,-10,-5,0,-1
1513481308057459,6,-14,-10,-12,0,6,14,8
1513481308070455,-7,7,3,13,6,-10,-5,0
1513481308070455,3,-5,16,-6,-10,-10,-11,-7
1513481308072456,3,-4,-23,-2,3,-10,-20,6
1513481308072456,8,29,1,-15,-3,9,8,-2
1513481308093535,11,-13,-8,3,10,3,-2,2
1513481308093535,5,11,11,-12,-12,-8,-16,-10
1513481308094530,-12,9,-20,16,0,1,18,-6
1513481308094530,-9,-47,-22,0,-11,-13,-13,-15
1513481308123503,-15,11,7,-14,-3,3,16,-11
1513481308123503,-1,1,15,-29,-6,-8,2,-7
1513481308124504,39,34,2,75,20,6,1,-10
1513481308124504,-9,23,-1,-52,-9,-4,5,5
1513481308130498,9,-18,-15,35,-1,-7,-13,-3
1513481308130498,7,30,-7,7,19,12,17,4
1513481308132499,12,-11,9,-33,-7,-10,-23,-10
1513481308132499,-10,-12,-22,18,14,5,30,11
1513481308153546,-22,2,20,-5,-10,-4,-14,5
1513481308153546,-14,-9,-6,-11,-4,1,-10,-14
1513481308154514,-30,-29,-14,-37,-12,4,21,10
1513481308154514,9,49,14,19,17,7,-8,-3
1513481308175532,-12,-77,-20,-44,-10,-1,14,-7
1513481308175532,8,16,29,32,11,4,6,-4
1513481308177531,16,18,-5,-30,-4,-7,-1,44
1513481308177531,-15,1,15,-19,11,-3,-8,-13
1513481308190552,-4,6,-26,19,-3,3,11,-9
1513481308190552,7,11,14,-4,-23,-13,-19,13
1513481308192580,-8,-27,-14,0,-3,9,-2,-3
1513481308192580,4,-46,8,-12,-8,-14,-1,-11
1513481308213565,28,29,-3,-11,4,-3,-14,2
1513481308213565,-13,-11,-2,12,0,-1,5,-8
1513481308214557,-2,20,10,-4,3,3,-7,-2
1513481308214557,-4,15,19,11,-6,-11,-16,-7
1513481308235571,-2,11,-23,15,0,16,13,-19
1513481308235571,-11,-46,-7,-25,-10,-6,2,17
1513481308238574,8,-25,22,12,1,-7,-12,-5
1513481308238574,-20,4,-5,3,4,0,-7,-6
1513481308258600,3,5,9,-9,-5,-9,-3,-3
1513481308258600,-30,14,-1,10,-5,2,17,4
1513481308259589,9,10,0,-12,-3,-14,-23,-16
1513481308259589,-22,-47,-25,2,-7,10,26,20
1513481308273610,-15,18,-6,12,1,6,7,5
1513481308273610,-2,-8,7,-13,2,-4,-5,-18
1513481308274606,-34,-4,9,-4,2,-2,-5,9
1513481308274606,12,9,7,-58,-17,-6,-6,-46
1513481308295638,-1,-20,-16,94,9,9,9,8
1513481308295638,6,23,6,-12,-3,-8,-3,5
1513481308297626,14,-15,-2,-30,9,-1,3,7
1513481308297626,-13,-2,-21,6,-11,-2,-2,-3
1513481308309633,13,24,26,-21,4,-3,-5,3
1513481308309633,12,7,-12,-2,-4,-3,-1,14
1513481308316639,-11,-45,0,14,-5,-3,-7,-28
1513481308316639,20,33,3,7,13,1,-6,21
1513481308333641,-11,-5,4,-32,-8,-6,-2,-17
1513481308333641,-9,-14,1,19,-2,1,-8,4
1513481308334642,13,36,6,-6,-8,0,3,-2
1513481308334642,-1,13,-13,25,1,-6,-8,-6
1513481308363662,-2,0,17,-25,-10,-1,3,4
1513481308363662,9,12,-7,-6,1,2,-3,-4
1513481308364663,-6,-17,-18,-25,0,2,7,-12
1513481308364663,-5,-32,-21,31,-8,7,-1,10
1513481308369676,-3,21,1,28,10,-1,9,2
1513481308369676,-6,-5,8,-23,-15,-8,-14,-1
1513481308376671,-5,-2,4,-2,6,2,-5,2
1513481308376671,2,23,-4,-4,-1,2,17,9
1513481308393683,-6,16,-1,-36,1,-7,-8,-9
1513481308393683,-1,3,1,12,-3,6,-2,-7
1513481308394684,14,1,-31,13,8,1,10,16
1513481308394684,23,-10,16,-15,1,-12,-39,-1
1513481308415709,-15,-23,-7,-3,-6,5,-6,-4
1513481308415709,3,-5,4,6,2,-6,-6,-16
1513481308417710,1,0,-3,7,-8,-2,-5,3
1513481308417710,2,11,10,-17,11,-2,1,-8
1513481308429712,13,5,-22,1,1,8,6,27
1513481308429712,18,0,14,0,10,1,-3,-12
1513481308436727,-6,4,-13,-7,-5,2,6,-16
1513481308436727,-5,5,10,14,5,-5,-1,7
1513481308453726,-2,23,-12,9,0,7,2,6
1513481308453726,16,-15,-5,-21,-1,8,9,-3
1513481308454729,5,-11,-13,-1,6,-7,-10,8
1513481308454729,9,17,-6,14,6,5,6,-10
1513481308475760,10,-17,-3,-16,-7,-4,2,2
1513481308475760,-1,17,11,26,4,-4,-16,1
1513481308477761,0,25,9,-2,-10,-7,-6,-16
1513481308477761,-1,-25,-15,33,7,8,-6,8
1513481308489761,0,-6,-1,-21,-4,-6,-9,-23
1513481308489761,0,-2,-6,16,-6,5,16,15
1513481308496769,10,4,-4,-15,1,-4,-10,4
1513481308496769,-8,-6,-4,-2,-5,2,-2,-25
1513481308512767,1,25,36,-3,5,1,5,15
1513481308512767,-6,38,11,82,15,4,3,-2
1513481308514772,8,-6,-11,-59,2,-5,-6,1
1513481308514772,-20,-11,-8,12,1,9,16,9
1513481308535784,-25,-41,16,-20,-11,-5,2,2
1513481308535784,0,11,-6,-2,-4,-5,1,-6
1513481308537792,19,5,2,27,8,-1,-7,16
1513481308537792,7,15,7,-16,-2,-13,-13,2
1513481308557809,14,-8,-5,-1,-4,-4,-2,0
1513481308557809,-6,-3,1,-15,4,3,0,2
1513481308559801,-1,-3,3,13,6,4,-4,2
1513481308559801,21,18,-14,-31,5,4,23,13
1513481308572825,-2,-7,3,5,0,-8,-2,3
1513481308572825,-7,-30,-10,-7,-16,1,6,-11
1513481308574821,-13,10,-7,18,-1,8,23,6
1513481308574821,-5,-22,11,-9,-1,-9,-3,-11
1513481308595850,-3,10,11,-4,2,4,6,11
1513481308595850,-13,-57,-5,44,-11,-9,-7,-1
1513481308596828,-3,24,18,-25,-3,-1,-9,-2
1513481308596828,-12,-11,-14,4,1,2,7,6
1513481308608845,-10,-31,-2,32,-22,-1,-3,-13
1513481308608845,-13,11,6,-41,0,-7,-1,1
1513481308617852,14,4,10,20,10,3,-10,3
1513481308617852,-3,-22,-13,8,5,4,-7,7
1513481308632852,15,19,4,-28,-2,-8,-12,1
1513481308632852,-5,12,-3,8,8,8,9,-3
1513481308634854,-3,-21,-5,17,3,-9,-7,11
1513481308634854,6,5,-5,-30,1,-7,-5,6
1513481308655881,-11,9,1,-13,-12,4,2,-8
1513481308655881,-5,-14,-3,-4,-14,6,-4,5
1513481308661886,-2,-43,-6,-14,4,-7,2,-20
1513481308661886,4,16,7,-16,-15,-6,2,-7
1513481308668891,-9,-12,8,-7,-8,-6,4,2
1513481308668891,10,21,-13,7,6,-3,-5,5
1513481308677901,-10,17,-5,-19,-1,2,9,0
1513481308677901,-10,-40,-16,5,-10,2,-4,-20
1513481308692907,1,0,-15,-20,-4,3,5,0
1513481308692907,15,18,11,-16,1,-1,-2,-2
1513481308694909,4,12,0,15,8,-1,1,4
1513481308694909,9,5,10,-5,4,-6,-1,-5
1513481308715923,5,-6,-18,12,-4,3,6,1
1513481308715923,-6,13,12,-4,7,-3,-19,-7
1513481308716912,-4,-11,-3,-10,0,-3,-6,9
1513481308716912,3,5,2,24,-1,1,2,8
1513481308728920,-6,27,23,-6,-1,-1,-5,-5
1513481308728920,-14,-32,-7,-8,0,-9,-5,-1
1513481308738928,-3,0,-3,8,0,6,2,-1
1513481308738928,-2,21,-4,-5,2,-3,-9,-2
1513481308752948,-4,-18,-4,0,-12,-7,3,-10
1513481308752948,-10,-11,-19,-4,-3,2,7,1
1513481308754949,24,29,14,6,-7,-10,-28,10
1513481308754949,9,-15,-2,-4,5,3,5,-8
1513481308775954,-1,6,9,7,3,0,0,-14
1513481308775954,-5,-8,-4,-15,-14,-6,-1,3
1513481308776955,-1,-7,-6,0,3,2,-2,-4
1513481308776955,10,15,9,-6,-8,2,3,-4
1513481308788972,-5,-19,9,-9,-15,-8,-10,-3
1513481308788972,11,6,15,15,2,7,11,-9
1513481308797979,6,0,0,14,6,0,-4,-2
1513481308797979,-10,-27,-16,-10,-3,-4,-5,5
1513481308812990,0,6,15,20,5,4,10,7
1513481308812990,-6,-8,0,12,-1,-9,-10,-6
1513481308814996,-8,15,18,-27,-4,-3,-1,0
1513481308814996,-1,-4,-11,29,0,-2,-5,2
1513481308835997,4,-13,-10,16,3,8,-1,-3
1513481308835997,0,14,13,-10,1,-2,4,3
1513481308837998,14,-2,-18,3,5,-6,-20,-7
1513481308837998,-11,-20,9,-29,-10,-10,-3,2
1513481308849019,-17,10,3,11,3,1,-12,-2
1513481308849019,-3,-28,-17,-5,-12,-2,2,-6
1513481308858012,-8,7,-19,3,6,3,6,4
1513481308858012,2,29,11,-6,9,0,-8,4
1513481308873034,-4,-32,-16,-8,-12,-7,3,1
1513481308873034,3,26,5,6,5,5,5,-7
1513481308875036,-9,-20,0,4,2,1,-18,2
1513481308875036,-10,-8,-8,3,-4,-2,8,-2
1513481308896053,-1,29,6,-4,0,-4,3,11
1513481308896053,1,1,-9,-6,-2,5,-4,-1
1513481308897039,-15,-8,-5,-59,3,-6,0,-6
1513481308897039,-5,8,-3,41,2,9,2,4
1513481308909062,6,4,-19,-33,-4,-1,3,-7
1513481308909062,10,0,6,37,-5,0,4,8
1513481308918057,-7,-15,-16,-10,4,2,6,-1
1513481308918057,5,14,12,-15,-3,3,-7,-7
1513481308933065,-1,-32,-2,7,-8,1,8,-3
1513481308933065,-3,10,-3,-19,0,0,-3,-7
1513481308935066,-2,1,-4,26,9,-11,-8,6
1513481308935066,7,3,-2,-8,7,0,3,4
1513481308956095,-1,30,1,0,1,4,-1,3
1513481308956095,7,-3,10,-6,7,4,3,10
1513481308957081,7,-2,-7,10,2,3,-4,-7
1513481308957081,-8,12,3,-9,3,-13,-1,-2
1513481308969102,7,2,-18,5,-15,1,-4,0
1513481308969102,5,5,-2,-5,0,-1,-5,0
1513481308978123,-7,5,21,26,5,4,-3,-11
1513481308978123,-19,-33,-10,-10,-9,0,-4,4
1513481308993117,-1,-16,11,0,-9,-3,6,-4
1513481308993117,2,25,2,-5,-1,3,5,-2
1513481308995109,1,-6,2,-7,-2,-2,2,1
1513481308995109,5,2,7,21,4,4,4,-5
1513481309016137,0,3,4,-4,4,3,6,5
1513481309016137,-12,-6,5,-14,-1,-9,-9,-1
1513481309017132,5,14,3,0,4,2,-2,-5
1513481309017132,4,-24,-9,-3,-4,6,8,-3
1513481309038139,-7,1,0,0,-8,-4,6,-8
1513481309038139,-2,-3,0,-14,-7,-4,1,8
1513481309040141,-2,2,-19,6,6,1,6,0
1513481309040141,10,-4,7,-3,-3,-4,-8,-6
1513481309053167,-1,2,7,3,-7,0,-4,-4
1513481309053167,12,-15,17,13,1,-2,3,5
1513481309055151,2,-27,-31,-4,-5,1,9,0
1513481309055151,-16,6,9,-17,-6,-2,2,-1
1513481309076177,-8,-4,22,9,3,4,5,-4
1513481309076177,-11,3,-8,-16,4,-4,2,5
1513481309077166,5,-4,-10,8,3,5,0,-1
1513481309077166,7,28,1,-11,1,-3,-2,2
1513481309098191,-11,-4,-19,-18,-3,2,9,-1
1513481309098191,-1,11,1,-4,5,-1,-11,-1
1513481309100182,1,-4,0,15,8,7,-13,-1
1513481309100182,1,3,-3,-13,0,-1,9,-6
1513481309113204,4,-2,6,14,-4,-8,-9,6
1513481309113204,11,-3,-8,-8,-6,3,0,7
1513481309115206,3,17,-6,-11,9,-6,-4,1
1513481309115206,3,-17,-21,3,-5,-3,9,-5
1513481309135208,3,-33,-3,-8,-7,-1,-2,-2
1513481309135208,-3,-20,-5,-2,1,0,0,1
1513481309138213,7,-8,-8,6,0,0,1,-7
1513481309138213,0,26,3,-16,-3,-6,-8,2
1513481309158233,-22,25,17,29,-3,-4,-7,0
1513481309158233,-14,-8,-17,-4,-5,1,1,-11
1513481309160235,-4,-40,-17,-5,-2,-6,2,-5
1513481309160235,-20,12,10,-16,-3,-5,-7,7
1513481309172246,-6,2,-3,-21,-6,12,13,-8
1513481309172246,-3,-1,-3,-6,-3,-8,-5,-3
1513481309179253,-13,4,17,0,0,-4,-10,-3
1513481309179253,0,3,-4,-20,-3,5,-4,-4
1513481309195265,10,-26,9,9,-6,-7,6,4
1513481309195265,-1,8,10,6,-3,-1,-6,1
1513481309197252,7,8,-4,-24,7,0,6,1
1513481309197252,4,-16,-13,11,-5,1,-6,2
1513481309218279,5,7,2,7,2,1,1,9
1513481309218279,15,-17,-20,5,2,6,6,2
1513481309220267,-29,3,10,0,-1,-12,-9,-12
1513481309220267,4,0,5,12,7,6,-5,-8
1513481309232287,9,3,8,18,-3,-1,5,9
1513481309232287,-8,-8,-3,-27,2,-6,-8,-8
1513481309239281,6,42,-2,49,4,2,4,4
1513481309239281,-3,-24,-15,4,-5,-4,1,15
1513481309255321,-5,14,10,-34,-6,-4,-6,5
1513481309255321,2,6,3,-10,10,3,3,4
1513481309257294,4,-3,-4,71,4,5,1,-1
1513481309257294,9,17,5,-13,4,-2,-2,-1
1513481309278322,-16,-4,14,-8,-12,-3,-6,-1
1513481309278322,1,8,2,23,0,5,5,-5
1513481309280311,10,18,-9,-27,3,-3,-1,16
1513481309280311,14,-17,5,17,3,5,2,-5
1513481309292333,11,4,9,8,-2,-4,-7,-11
1513481309292333,-16,-32,-13,-9,-18,-2,6,-12
1513481309299334,1,0,0,-22,4,-1,1,-2
1513481309299334,-9,-25,3,-7,-8,1,-4,-4
1513481309315346,4,10,-15,-12,-9,-6,-4,-4
1513481309315346,8,16,19,-5,3,2,7,2
1513481309317346,0,-18,-10,8,3,5,5,4
1513481309317346,-13,28,11,14,-2,-8,1,-13
1513481309338364,6,0,0,19,3,5,8,-3
1513481309338364,-9,-12,-5,0,-4,-3,-13,-2
1513481309340365,-8,-6,6,-21,-1,-4,-8,1
1513481309340365,3,25,-15,-14,-6,-2,6,-7
1513481309352375,-2,-36,-9,12,-5,4,2,-8
1513481309352375,3,8,19,17,1,-4,-3,-2
1513481309359380,-2,-19,10,-13,-1,0,-9,-5
1513481309359380,-23,21,-19,-18,-9,-4,-4,-2
1513481309375398,13,-13,9,0,-4,1,2,-4
1513481309375398,1,-15,-10,-8,-1,-1,2,-3
1513481309377382,-1,-1,-2,-1,6,3,8,5
1513481309377382,-1,1,8,24,11,0,-2,14
1513481309398408,5,-1,15,-7,-6,0,3,-6
1513481309398408,5,22,-21,-3,0,-9,-9,-1
1513481309399395,1,-2,-6,-16,-6,-2,-6,-6
1513481309399395,9,-5,1,3,7,0,-2,9
1513481309412418,1,-5,3,29,2,-4,-7,0
1513481309412418,-4,-5,1,31,-2,1,0,-5
1513481309419419,-9,26,6,-18,-4,-6,-13,7
1513481309419419,3,-42,1,-19,-1,1,4,-4
1513481309435434,-18,8,-4,-29,-3,-4,-3,1
1513481309435434,-5,-9,11,23,-11,0,-2,-1
1513481309437423,10,-2,-30,2,2,-7,-4,1
1513481309437423,-9,-10,5,4,-3,3,0,-5
1513481309458445,-3,5,1,-19,0,-2,3,-4
1513481309458445,1,9,2,6,4,1,-4,-3
1513481309459444,5,10,5,-1,4,4,-1,4
1513481309459444,7,1,-15,1,0,-5,-7,1
1513481309472455,0,1,-6,-4,-4,-3,-1,3
1513481309472455,-1,-7,-10,-6,3,-3,-1,0
1513481309479454,3,-22,-20,-7,-6,-4,-13,-10
1513481309479454,-6,-11,-7,-3,0,2,5,1
1513481309495502,0,18,8,11,0,5,6,0
1513481309495502,6,6,-15,-15,5,-6,-5,6
1513481309497476,7,-10,6,4,6,-1,6,-3
1513481309497476,10,9,11,-14,-6,-4,-14,-2
1513481309518490,-25,-2,-8,-11,-8,0,1,1
1513481309518490,0,-9,-9,-9,-6,-5,1,2
1513481309524483,2,14,10,-4,-6,-2,-3,-9
1513481309524483,-9,3,-14,-5,-6,-8,0,0
1513481309531499,2,-6,0,-3,-3,-3,-3,5
1513481309531499,-10,10,13,8,3,1,-19,0
1513481309540504,-10,-29,-4,-27,-1,-6,4,-1
1513481309540504,3,25,9,8,-3,-8,-6,-8
1513481309555515,9,11,6,0,-7,4,8,5
1513481309555515,-9,-12,6,6,2,-3,-1,-5
1513481309557515,5,9,5,1,11,7,-1,6
1513481309557515,5,10,-6,18,6,1,7,10
1513481309585537,-11,-37,2,1,-5,-3,-3,-12
1513481309585537,-9,38,-5,-16,2,-1,0,1
1513481309587528,4,4,-1,13,4,2,0,8
1513481309587528,8,-13,-4,-17,-2,-1,7,5
1513481309591553,5,9,6,0,-1,1,-2,0
1513481309591553,-5,0,7,20,3,1,-8,0
1513481309600607,-4,-8,-12,-18,-4,-3,8,-7
1513481309600607,2,12,11,-2,-4,0,-18,-1
1513481309615602,16,16,3,6,2,-1,-7,8
1513481309615602,-1,-42,-11,-10,-6,-2,2,1
1513481309617604,-12,19,4,2,-2,-3,-2,-1
1513481309617604,-6,-7,2,-8,-7,-3,1,-9
1513481309638619,5,-3,-17,33,3,-1,1,2
1513481309638619,-1,3,14,-11,-3,4,1,-10
1513481309639619,0,0,16,10,4,-7,-7,1
1513481309639619,-9,-13,-28,-3,-6,1,2,-4
1513481309651639,-10,-3,0,-12,0,-2,-3,-5
1513481309651639,5,13,5,32,1,6,5,-2
1513481309660634,-17,-1,-10,-17,-2,-2,-17,1
1513481309660634,1,-12,-5,1,-1,2,4,-5
1513481309675654,-9,10,8,-14,-10,-2,-7,-9
1513481309675654,6,12,-8,-7,4,-4,-2,3
1513481309677645,-7,-5,1,-5,0,3,0,7
1513481309677645,-17,4,6,-4,-5,-3,-1,-1
1513481309698664,0,-3,2,-9,1,-1,4,-4
1513481309698664,-4,-18,-14,-7,-4,2,6,2
1513481309699661,11,-5,-10,-4,-5,-3,-1,-4
1513481309699661,-2,-18,0,-6,1,1,1,0
1513481309711681,2,-3,-2,8,-2,-1,-1,-8
1513481309711681,4,5,2,-12,-2,-3,0,-3
1513481309720695,7,-8,-5,0,-1,1,2,0
1513481309720695,-2,-2,0,18,0,0,-2,-4
1513481309735687,0,1,3,-7,-7,-1,6,-2
1513481309735687,-6,-8,-2,-11,-4,-5,1,2
1513481309738689,2,15,5,-2,0,-1,-7,5
1513481309738689,5,-18,-20,-20,-5,-1,3,2
1513481309758704,-15,-42,0,8,-6,0,0,-11
1513481309758704,10,29,5,-5,-4,-7,-1,20
1513481309759712,12,12,-9,-10,1,-3,-1,-3
1513481309759712,-3,-13,11,-2,2,0,-6,2
1513481309771713,-12,-1,-7,-8,0,1,1,7
1513481309771713,-12,-17,-12,-1,-6,-4,-2,-6
1513481309780728,-7,1,-11,-7,-1,0,-14,-5
1513481309780728,6,-1,8,10,2,2,1,-2
1513481309795762,4,9,-7,-2,0,-3,-2,5
1513481309795762,1,11,1,10,3,-2,0,-14
1513481309797730,5,-7,-6,-3,-2,-3,-2,-3
1513481309797730,3,8,3,-15,1,-7,-2,1
1513481309817745,-4,11,0,40,1,9,4,1
1513481309817745,-1,12,7,-11,1,-1,-9,-8
1513481309819747,11,-13,-13,-4,1,-3,9,5
1513481309819747,-7,9,9,6,-9,-7,-6,3
1513481309831765,7,10,4,-10,-3,0,6,1
1513481309831765,7,-12,-2,4,5,-7,-11,12
1513481309840762,-4,-8,-3,8,-3,0,-2,-6
1513481309840762,2,19,-3,2,3,-6,-4,-4
1513481309855784,-1,-22,-5,6,6,-1,-6,-1
1513481309855784,2,0,-5,-12,-3,3,3,-6
1513481309857792,-5,4,2,13,10,1,5,0
1513481309857792,-5,-7,-1,-3,-5,-2,-6,-5
1513481309877790,10,9,7,-17,-4,-3,-5,-11
1513481309877790,-4,-9,4,9,6,3,3,-2
1513481309879788,-15,0,-8,-21,-5,-2,0,2
1513481309879788,-9,9,-2,27,-2,10,5,-8
1513481309891815,2,-1,2,-15,-1,-4,2,0
1513481309891815,5,1,6,14,4,2,-5,-2
1513481309900821,-3,-11,-1,-9,4,3,-1,7
1513481309900821,0,-23,-11,0,-10,-1,2,8
1513481309915818,-2,25,2,-2,-1,1,2,4
1513481309915818,-7,-6,5,-1,-5,4,2,-1
1513481309917819,5,1,2,10,1,-5,-4,-4
1513481309917819,7,-8,-4,-6,-1,-2,7,5
1513481309937848,-9,-9,5,5,-6,1,3,5
1513481309937848,-3,8,-17,-7,6,-2,-1,-5
1513481309939834,2,8,-1,0,-2,-3,-4,4
1513481309939834,-1,-30,14,6,6,8,5,-10
1513481309960859,-8,11,-10,-10,-9,-5,-8,-4
1513481309960859,8,9,2,-4,4,4,4,-4
1513481309961860,-2,-17,-17,0,-1,-2,4,-10
1513481309961860,-4,21,-2,-8,-3,-4,7,6
1513481309975858,-1,-40,5,9,-2,0,-17,-5
1513481309975858,2,-4,-21,-13,-6,-8,-6,3
1513481309976858,6,-6,-15,-6,-2,0,-3,-6
1513481309976858,-2,1,8,3,-1,-1,-9,-12
1513481309997872,-5,7,5,-1,0,-2,23,9
1513481309997872,-16,-4,7,-11,-3,0,-34,-8
1513481309999873,-1,12,11,-11,4,-1,-7,-4
1513481309999873,6,4,-4,3,-4,3,7,-7
1513481310020893,1,8,6,-1,-1,-8,9,1
1513481310020893,6,-1,-6,-2,4,0,7,5
1513481310021892,-3,10,4,5,-3,-4,-4,-6
1513481310021892,-18,-51,-10,-7,-10,0,-5,-5
1513481310035903,-3,27,13,-6,-3,-2,-1,-3
1513481310035903,-6,-14,-14,-7,-3,-2,4,-12
1513481310036904,9,-4,2,5,-1,-4,-9,3
1513481310036904,-7,14,-2,-8,0,-1,2,4
1513481310057916,6,-14,1,12,1,1,0,-1
1513481310057916,-4,-9,2,5,-1,-4,-7,-13
1513481310059916,-2,2,-13,-1,0,4,6,9
1513481310059916,-17,-20,3,2,-6,4,5,-5
1513481310080930,-3,-2,0,-8,0,-1,-6,-9
1513481310080930,13,8,-2,19,2,4,5,6
1513481310081933,-12,-12,-4,-10,1,-2,5,-10
1513481310081933,18,-5,0,-9,0,1,0,15
1513481310095944,-5,0,4,-7,-2,-4,-12,-5
1513481310095944,-2,-15,13,37,-1,-1,8,-1
1513481310096941,-6,-3,-8,-19,3,-1,2,-7
1513481310096941,9,15,3,8,-1,1,3,-6
1513481310118958,-1,-8,5,-5,-2,0,-10,7
1513481310118958,15,3,13,0,12,5,3,-2
1513481310119959,-1,-2,-13,0,-7,-4,0,4
1513481310119959,5,16,13,9,-6,0,3,3
1513481310140974,-10,-11,-8,4,-5,-2,-9,-8
1513481310140974,-15,7,0,-15,2,-7,-8,2
1513481310141975,-1,-4,-3,6,-4,6,6,-4
1513481310141975,-1,16,-2,-4,3,-5,-4,5
1513481310154988,14,4,1,1,-3,5,5,-2
1513481310154988,24,21,8,-2,12,-1,4,3
1513481310161989,12,-19,-13,11,4,-2,-8,3
1513481310161989,-22,3,5,-8,-8,-1,3,3
1513481310178003,14,6,-12,18,0,0,3,-6
1513481310178003,-1,3,11,-1,2,-3,-9,11
1513481310180016,4,-7,-4,8,-1,-3,4,-16
1513481310180016,6,12,4,8,3,3,0,-4
1513481310201015,4,4,-2,-1,3,-1,0,15
1513481310201015,4,-17,-17,-23,-1,-3,-8,-2
1513481310202019,-13,11,7,13,-2,0,2,-6
1513481310202019,2,-10,-6,-4,-6,-4,-5,-6
1513481310215028,6,-7,-5,-1,-1,-2,-1,4
1513481310215028,-1,1,0,-1,4,4,2,6
1513481310222032,-23,-28,-1,-13,-7,0,-5,-11
1513481310222032,-3,29,3,3,-5,-9,4,10
1513481310238041,-9,-10,2,-4,6,3,-2,-6
1513481310238041,-3,7,-13,-12,-3,-2,-1,7
1513481310240048,12,-1,6,30,1,-4,9,-1
1513481310240048,-10,-4,6,-2,-1,8,8,-14
1513481310261078,2,6,1,-5,0,-4,-2,3
1513481310261078,-19,-16,-13,35,-6,1,-9,5
1513481310262059,-13,10,9,-23,0,-6,-1,4
1513481310262059,3,0,-5,-4,-12,-1,-1,-7
1513481310275072,5,-2,9,-2,5,2,2,5
1513481310275072,-1,-4,-13,-7,7,-2,-5,-10
1513481310282078,7,25,3,6,3,8,1,5
1513481310282078,1,-7,1,19,1,-3,5,-9
1513481310306094,-2,3,-4,-14,-7,-3,-16,-10
1513481310306094,0,11,1,1,1,-7,4,-6
1513481310307095,5,-12,7,5,-3,0,-13,2
1513481310307095,-1,-8,-12,-11,-9,-5,-10,-5
1513481310321101,-12,-6,-3,2,-4,-2,3,14
1513481310321101,10,4,-2,5,11,0,0,-5
1513481310324115,17,18,1,-13,-2,5,2,0
1513481310324115,-16,-21,-2,1,-4,-5,-2,13
1513481310335123,5,-1,2,6,-5,-1,1,-19
1513481310335123,-8,-34,-17,-14,-7,-8,-5,0
1513481310349130,-1,-12,-6,-12,-4,-1,0,-1
1513481310349130,-1,6,5,3,-3,5,0,7
1513481310358135,-4,-12,-1,-6,17,6,9,-3
1513481310358135,7,17,15,4,-3,-3,-5,-5
1513481310360138,-3,25,0,-9,6,-1,0,-5
1513481310360138,-18,-21,2,9,-9,-3,0,-11
1513481310380164,4,11,-2,-7,-5,0,-10,2
1513481310380164,16,0,8,24,12,3,0,4
1513481310382146,-20,5,-14,-14,-5,-3,1,9
1513481310382146,8,8,7,-12,-11,-6,-7,-7
1513481310394208,-4,4,2,7,-3,2,1,8
1513481310394208,-6,-6,0,-14,2,0,-4,-1
1513481310402161,-2,3,-7,9,-2,-4,-1,2
1513481310402161,14,19,2,-18,1,4,2,-1
1513481310417168,7,3,-8,-10,2,-6,-8,-16
1513481310417168,4,-20,2,9,6,8,7,8
1513481310418181,-6,4,-10,-8,-1,-12,3,8
1513481310418181,-9,-5,0,-6,-7,1,6,-10
1513481310440252,-2,0,6,6,4,-2,-3,-3
1513481310440252,-3,10,-15,-8,5,-3,-12,4
1513481310440252,-2,-13,13,-18,-3,1,-1,-4
1513481310440252,2,-2,-5,22,2,8,10,7
1513481310454262,-9,1,4,-11,-5,-2,-4,-10
1513481310454262,-4,-10,-10,4,5,0,-6,2
1513481310462267,-8,-13,-2,24,5,9,4,-1
1513481310462267,15,24,-1,-2,-4,-5,-6,-6
1513481310477326,-2,-18,6,2,-8,-2,3,8
1513481310477326,3,38,-8,-28,11,6,-2,-10
1513481310478271,8,-25,-2,27,-2,0,-6,1
1513481310478271,-4,-26,11,-21,-3,-9,-7,-5
1513481310500295,2,-4,-3,35,-2,0,3,-1
1513481310500295,10,2,1,-16,-4,-4,-4,6
1513481310500295,9,9,-3,-8,7,-3,-6,-1
1513481310500295,18,4,2,-6,-4,0,6,4
1513481310523313,-9,0,-5,37,3,7,1,5
1513481310523313,19,0,3,-9,7,-5,-8,6
1513481310524302,-13,-7,7,1,0,1,-9,1
1513481310524302,-2,0,-12,-11,-13,0,23,-16
1513481310537321,-6,9,16,-1,3,-2,1,-1
1513481310537321,0,3,-5,39,13,7,-5,9
1513481310538313,-23,-16,-1,-3,-6,-4,5,-11
1513481310538313,-6,-4,9,-7,-11,-11,6,-4
1513481310560337,-13,-5,-17,-4,-6,4,6,-6
1513481310560337,-6,7,3,-12,-1,-7,-1,-1
1513481310560337,10,9,6,-22,4,2,0,0
1513481310560337,-22,12,13,26,-2,0,-5,2
1513481310583343,1,-13,-4,-19,-5,-1,-12,-7
1513481310583343,2,-11,-5,-19,-3,2,6,10
1513481310584345,-18,15,-5,5,-8,-7,5,-8
1513481310584345,9,0,2,-1,-5,7,-9,-7
1513481310597406,18,27,0,2,2,-8,-8,1
1513481310597406,-3,-30,1,1,0,-3,-3,-11
1513481310598357,24,-9,-38,-18,3,0,7,12
1513481310598357,14,0,-3,-5,-5,6,-7,5
1513481310620379,0,-12,-8,-7,0,-1,5,10
1513481310620379,36,14,-6,0,11,-6,-3,-6
1513481310620379,9,2,17,-9,-6,-2,-1,-2
1513481310620379,-55,-19,-17,9,-3,9,11,-10
1513481310634380,24,8,0,-15,-4,2,3,0
1513481310634380,-21,-1,0,-11,-3,-4,0,-3
1513481310642414,-17,6,-2,1,-4,2,-11,-4
1513481310642414,22,0,3,2,0,-4,-10,6
1513481310657405,-9,-4,3,10,-1,-4,-3,-7
1513481310657405,-20,-45,-24,-13,-16,-11,-15,-2
1513481310658396,39,11,-3,-4,-5,-1,7,2
1513481310658396,-33,1,21,2,-4,4,-4,-14
1513481310680412,-14,-27,-6,-9,-10,-7,3,1
1513481310680412,-11,-2,-21,3,-7,-5,-7,-7
1513481310680412,10,0,-9,39,-3,2,11,-6
1513481310680412,11,-11,14,-19,-1,-5,-2,-8
1513481310694481,16,30,3,14,-5,-1,6,28
1513481310694481,-16,-1,-1,-7,18,8,5,-3
1513481310702440,11,3,11,-31,3,-2,-8,4
1513481310702440,-17,10,0,9,4,-3,6,0
1513481310717451,-24,0,-1,8,1,4,3,-4
1513481310717451,-2,6,9,-1,-1,-7,-17,-5
1513481310718439,-4,3,5,4,2,-2,-9,-5
1513481310718439,8,-5,-6,-18,-2,1,19,14
1513481310739454,-17,-2,11,19,11,1,-7,-14
1513481310739454,-2,13,-2,10,11,4,-2,10
1513481310740455,-2,0,5,31,-6,-3,-12,-2
1513481310740455,17,-1,2,-34,-11,-4,-1,9
1513481310754533,2,3,2,-10,0,-2,8,-6
1513481310754533,23,22,-1,-6,11,0,-4,-12
1513481310762525,-16,-26,7,6,-9,6,7,-13
1513481310762525,-3,-1,8,-2,2,-6,-7,-2
1513481310785541,17,7,-13,-16,-3,6,2,10
1513481310785541,4,-3,-9,2,5,-5,-6,1
1513481310786543,0,0,-7,-24,-5,-5,4,-3
1513481310786543,2,-1,1,12,-6,2,-9,-11
1513481310799561,-1,-12,7,-9,6,-7,-4,-2
1513481310799561,-1,-6,-7,-15,-21,-1,5,-15
1513481310800562,-16,-19,-11,-14,3,0,-7,8
1513481310800562,15,26,3,15,-5,3,14,3
1513481310814562,7,13,5,-5,7,-3,-12,-1
1513481310814562,5,-10,9,25,6,-1,-2,-1
1513481310822567,-6,24,-10,-29,-3,-8,6,-2
1513481310822567,-12,-15,14,16,-19,-6,-9,-2
1513481310837578,4,-1,1,-9,-1,-3,-3,3
1513481310837578,-10,10,-6,-6,3,4,8,-1
1513481310838596,-24,-8,6,-14,-3,-4,-10,-20
1513481310838596,6,3,5,6,-9,4,8,4
1513481310859593,19,-9,-8,25,-3,4,4,1
1513481310859593,-27,-12,-12,-40,4,-8,-7,-10
1513481310860594,-14,0,-4,74,-9,-3,3,-4
1513481310860594,-7,-4,13,-3,-1,2,-1,6
1513481310874604,-6,5,-5,-9,3,-8,-5,-6
1513481310874604,-12,6,-2,-2,2,3,10,1
1513481310882610,6,0,4,-24,3,1,4,3
1513481310882610,-7,7,8,13,2,-5,-3,-4
1513481310897642,-9,11,-4,-7,-7,-5,-1,-1
1513481310897642,18,-9,-4,5,5,2,-4,10
1513481310898629,-38,-18,-27,-22,1,-3,3,-11
1513481310898629,1,-6,2,14,-20,-3,12,-9
1513481310919648,-12,-22,-2,-9,4,0,5,7
1513481310919648,8,7,-7,-7,-1,-5,-11,-10
1513481310920654,-9,-5,15,11,-3,7,-5,3
1513481310920654,-31,-16,-11,-13,-4,-12,-5,3
1513481310942676,8,-12,-5,2,3,3,-1,-14
1513481310942676,6,5,0,6,-1,-2,-4,10
1513481310943658,33,6,-2,-11,8,1,-1,12
1513481310943658,4,-1,-7,13,10,1,1,-1
1513481310957675,-6,-6,3,-2,-4,4,-3,-2
1513481310957675,-5,0,3,15,6,2,-3,6
1513481310958673,8,3,-2,-9,0,-2,4,-2
1513481310958673,-2,-2,0,-8,0,0,4,0
1513481310979704,3,6,-2,-14,-6,-1,3,-6
1513481310979704,8,30,-2,-8,-7,-3,-4,4
1513481310980680,-6,2,3,8,2,-1,-2,0
1513481310980680,0,-15,-3,-1,-2,1,-3,-3
1513481311003695,-16,5,2,4,-2,-5,2,-6
1513481311003695,-8,-9,-5,-5,0,-2,2,1
1513481311003695,7,-5,6,-4,3,0,-1,-1
1513481311003695,3,5,-14,-1,-3,-4,0,10
1513481311025710,7,-6,-1,-2,-6,-2,-8,-3
1513481311025710,-2,-14,-4,1,3,-1,-1,0
1513481311026721,-3,4,7,-1,-5,0,-7,1
1513481311026721,5,-4,-2,8,-1,-2,-10,1
1513481311039730,-7,-2,2,4,-4,1,1,-3
1513481311039730,5,-4,-7,2,5,2,2,2
1513481311040721,4,5,6,14,-2,1,-2,-2
1513481311040721,2,2,5,-4,0,2,-1,-3
1513481311062809,4,2,-4,1,2,-2,-2,-1
1513481311062809,-5,1,-2,4,2,1,-3,-1
1513481311063795,-9,5,3,-10,-3,-1,-2,-1
1513481311063795,2,-10,-1,0,-3,1,4,-1
1513481311077805,-9,-3,6,12,0,0,3,4
1513481311077805,-3,-8,-9,-8,4,-2,-9,2
1513481311077805,8,-13,-8,4,-3,1,5,6
1513481311077805,-10,17,13,-3,2,3,-10,5
1513481311099831,-13,-1,-6,-1,-3,-2,-1,-7
1513481311099831,3,-2,-11,1,-3,-4,-2,-3
1513481311100821,3,0,-3,-8,-2,0,0,0
1513481311100821,-4,4,2,0,-5,-1,1,-3
1513481311122849,4,-8,1,0,2,-1,-6,0
1513481311122849,-3,1,-1,0,1,-3,1,-3
1513481311123837,-4,1,-1,-4,-3,-5,-1,-4
1513481311123837,4,-5,0,2,-2,1,0,-6
1513481311137848,-2,0,-1,3,-2,-2,-2,-1
1513481311137848,-1,-5,-2,-4,-1,-3,2,-4
1513481311138851,2,-4,-3,-7,-4,-4,-1,0
1513481311138851,0,-3,2,4,-7,0,3,-4
1513481311159875,1,-4,2,-1,0,-1,1,4
1513481311159875,-1,0,-2,-3,1,1,-2,-3
1513481311160865,-2,0,1,-1,-2,-1,-1,-2
1513481311160865,0,-3,3,0,0,-3,2,-1
1513481311182895,1,1,-2,1,2,-2,0,2
1513481311182895,-2,-9,-1,-1,-2,-3,-1,-4
1513481311183880,11,5,-2,-2,1,1,-1,-1
1513481311183880,2,0,2,-1,-2,0,2,-1
1513481311198892,3,-4,-3,0,1,-1,-7,-3
1513481311198892,-4,-2,-3,-4,-3,-4,1,-1
1513481311199893,1,1,-2,-5,-2,-1,1,3
1513481311199893,-13,-3,2,5,-2,0,3,1
1513481311219923,1,-4,1,0,-2,-1,-2,1
1513481311219923,-3,-2,-1,-1,0,-2,1,-3
1513481311220906,-6,0,3,-1,-4,-4,-1,-3
1513481311220906,4,-1,0,0,-3,0,0,-3
1513481311242934,-4,1,-1,-1,1,-1,0,0
1513481311242934,-1,-2,-3,-7,1,1,2,-3
1513481311243923,0,-5,-4,-3,-3,0,1,1
1513481311243923,2,0,0,-2,-4,-2,-2,-3
1513481311257932,0,-2,-4,-1,-1,-1,-3,-1
1513481311257932,4,-1,-4,-1,1,0,-5,-2
1513481311257932,1,0,-1,-2,1,-2,0,2
1513481311257932,-1,-4,0,1,-3,0,0,3
1513481311279970,-8,-4,-2,-3,-1,0,1,0
1513481311279970,-7,-2,-9,-4,-3,-3,-2,2
1513481311280949,-3,1,1,-2,1,-1,-3,-4
1513481311280949,8,0,0,0,0,0,-4,0
1513481311302964,-7,-5,0,-1,0,-1,-1,-2
1513481311302964,4,2,-3,2,-1,-2,0,-1
1513481311303966,-4,-2,-4,-3,0,-1,-2,-4
1513481311303966,-6,0,2,-2,-5,-2,-1,-2
1513481311316986,3,0,0,0,-5,-1,-2,0
1513481311316986,3,-2,0,0,0,-2,0,-1
1513481311317974,2,1,1,-2,-1,-1,1,-3
1513481311317974,1,-2,2,2,1,0,0,4
1513481311340004,4,-1,-6,-1,3,-1,-1,-1
1513481311340004,-4,0,-4,-2,-1,0,-3,-3
1513481311340992,-1,-2,-3,-3,-2,-2,-2,-1
1513481311340992,-2,-1,0,0,-3,0,3,-2
1513481311363021,-2,-2,0,0,-1,-2,-1,-1
1513481311363021,4,-1,-2,-2,-2,-1,-4,-1
1513481311364008,-1,-4,1,0,-2,0,1,0
1513481311364008,2,2,2,0,-2,0,-1,-4
1513481311377033,4,2,-2,0,3,0,-3,2
1513481311377033,-3,-3,-2,-1,1,-1,2,-4
1513481311378018,-4,-2,-2,-2,-3,0,-3,0
1513481311378018,0,-2,-1,1,-1,-2,-2,1
1513481311400048,1,-2,1,-3,-3,-1,1,-1
1513481311400048,3,1,-4,-6,0,-1,-2,0
1513481311401046,-1,-3,0,-2,0,2,5,1
1513481311401046,1,3,-2,-2,-1,-3,2,0
1513481311423049,3,-2,-2,0,1,1,-3,0
1513481311423049,-2,-1,-4,-2,1,0,-1,-2
1513481311424053,-4,-4,0,0,-7,-2,2,-1
1513481311424053,-3,4,4,1,-2,0,-2,-1
1513481311438082,1,2,-2,-2,2,-1,-2,-1
1513481311438082,1,-3,-2,-3,0,0,-4,-2
1513481311439061,0,0,-1,0,-3,-2,1,-2
1513481311439061,-1,-2,2,1,-4,0,0,-2
1513481311460085,0,0,-4,0,2,-2,-4,2
1513481311460085,0,-3,-2,0,1,-1,1,0
1513481311461085,-7,1,0,-2,-2,0,0,-5
1513481311461085,1,0,-1,1,0,0,-1,-2
1513481311483116,0,-2,-1,0,0,-4,-5,-5
1513481311483116,-3,-1,-4,-4,1,-1,-4,2
1513481311484093,-3,-1,2,-2,-7,-4,3,0
1513481311484093,-1,-3,1,-2,-1,1,-3,-2
1513481311497151,1,-1,-5,2,0,1,0,0
1513481311497151,-7,0,2,-1,-1,-1,0,-8
1513481311506118,2,0,-4,-2,-3,-1,4,-1
1513481311506118,-2,-1,1,0,-4,0,-1,0
1513481311520130,0,0,-2,-4,1,-2,-1,-2
1513481311520130,-2,0,0,-1,-1,-1,-5,1
1513481311527136,-2,-3,1,1,-3,0,-2,-4
1513481311527136,-2,-2,1,0,-1,-4,-2,-1
1513481311543156,0,-1,-4,-1,4,0,1,1
1513481311543156,-2,-2,-2,-3,0,-2,0,-1
1513481311544135,-2,-2,1,-1,-7,2,-1,1
1513481311544135,-1,-2,-4,2,0,-2,0,3
1513481311557155,0,-1,0,-2,1,-2,-5,0
1513481311557155,-2,0,-3,-1,1,-2,0,-1
1513481311565149,-2,0,2,1,-4,-1,0,-2
1513481311565149,-3,-1,2,-1,-1,1,0,-3
1513481311580164,-1,-2,-4,1,0,0,-4,0
1513481311580164,3,-2,-2,-4,-3,1,0,1
1513481311581173,-1,-1,3,1,-6,0,-2,-3
1513481311581173,0,-2,1,0,-6,-3,0,-4
1513481311603176,1,-2,1,1,4,-1,-7,1
1513481311603176,1,2,-1,-2,0,0,0,0
1513481311604179,-4,-1,0,-1,-3,0,2,2
1513481311604179,0,1,2,1,-2,0,0,0
1513481311617196,-3,-1,0,0,3,-1,-1,-2
1513481311617196,-3,-6,-17,-6,-5,-2,-2,-4
1513481311625209,-2,-1,-3,-2,-2,0,3,-3
1513481311625209,-1,0,1,-2,-2,-3,-2,-4
1513481311640203,-1,0,-1,0,1,-1,0,2
1513481311640203,0,-1,2,0,-3,1,2,-2
1513481311640203,-4,-1,2,-1,-4,2,0,-1
1513481311640203,-2,-1,0,-2,-2,-1,-2,0
1513481311663257,4,0,-4,-2,3,-2,-4,-2
1513481311663257,-5,-2,3,2,1,-2,-1,-1
1513481311664232,0,-1,-3,-1,-1,-2,1,-2
1513481311664232,0,-3,1,2,4,-2,0,0
1513481311677243,0,1,-3,-2,0,-3,-3,2
1513481311677243,-2,0,-1,-3,1,1,0,1
1513481311685234,-2,1,4,-1,-4,-1,-2,-1
1513481311685234,-3,-1,-3,2,1,1,-2,-2
1513481311700255,3,-2,-4,-3,2,-3,-3,-5
1513481311700255,1,-2,-1,-3,1,-2,-2,1
1513481311700255,-1,-1,1,1,-6,-2,0,-3
1513481311700255,0,-2,0,-1,-2,0,-3,2
1513481311723262,0,0,-4,-4,2,-1,-4,5
1513481311723262,0,1,-2,-3,1,-1,-3,-2
1513481311724263,0,-4,2,-1,-5,0,5,-2
1513481311724263,0,1,0,1,-3,0,-2,2
1513481311737281,2,-1,-6,-2,5,-1,-4,-1
1513481311737281,-1,-2,2,-2,-1,-3,1,-3
1513481311745291,-4,2,-1,0,-5,-2,0,-1
1513481311745291,1,0,0,2,0,1,-1,-3
1513481311760287,0,0,-5,0,2,-1,-3,-2
1513481311760287,0,-2,-3,-1,0,-2,-1,2
1513481311760287,-5,-2,0,-1,-4,-1,-2,-3
1513481311760287,0,-2,2,-3,1,-2,-3,-1
1513481311783306,4,-1,-3,-3,3,1,0,-1
1513481311783306,-2,-1,-2,-1,0,-2,3,1
1513481311784304,-5,-2,1,0,-4,-1,2,0
1513481311784304,-3,0,-2,0,-2,0,-4,0
1513481311797313,0,-5,-2,-1,3,1,-4,-3
1513481311797313,-1,-2,-4,-1,-3,-1,-2,-2
1513481311805329,-2,0,2,-4,-4,-2,1,1
1513481311805329,1,0,-1,0,-1,-1,2,-5
1513481311820348,1,-2,-1,0,4,-1,-5,-2
1513481311820348,-4,2,-1,-1,-4,-1,0,-3
1513481311820348,0,-3,2,0,-4,1,0,0
1513481311820348,-2,-2,-1,-1,1,-2,-1,1
1513481311843346,-2,1,-3,0,3,-1,-3,0
1513481311843346,0,-4,-3,-5,0,-3,-6,1
1513481311844347,0,-2,0,0,-2,-3,2,-1
1513481311844347,0,-1,-2,-1,0,0,0,2
1513481311865363,-1,0,-3,-1,4,-1,-1,2
1513481311865363,-3,0,1,0,-1,1,1,-1
1513481311866377,-3,-2,4,-1,-4,-4,1,-1
1513481311866377,2,-2,-2,0,-3,-2,-1,0
1513481311880393,0,-1,-4,-2,-2,-3,-6,-3
1513481311880393,-2,1,1,-2,0,2,0,-2
1513481311880393,-3,-2,-9,-2,-6,-1,1,1
1513481311880393,-2,1,2,1,1,0,-4,-2
1513481311903395,0,0,-4,-3,-1,0,0,-2
1513481311903395,1,-4,-1,-2,-2,-3,-2,-3
1513481311904391,-2,1,4,1,-5,-1,4,0
1513481311904391,-3,3,0,-1,-3,0,-1,1
1513481311925427,0,0,-5,-1,4,-1,-3,-3
1513481311925427,1,-2,14,1,-3,-1,1,0
1513481311926424,-7,0,-14,-2,-8,0,2,-3
1513481311926424,-2,-1,-1,-1,2,-2,-3,-1
1513481311940429,0,3,34,7,6,-1,-3,2
1513481311940429,-4,-3,-26,0,0,-1,-2,-1
1513481311940429,-1,-6,-17,-9,-12,-3,1,-2
1513481311940429,-3,-3,-5,-2,-2,-3,1,-1
1513481311963470,2,0,-13,-2,-1,-2,0,0
1513481311963470,0,2,17,3,3,0,2,-2
1513481311964433,-3,3,11,3,-6,3,-1,1
1513481311964433,1,-2,-10,-1,-4,-1,-3,-1
1513481311985447,0,-2,-2,-4,7,-4,-9,-1
1513481311985447,-3,-3,-23,-7,-1,1,8,1
1513481311986448,-2,1,7,-2,-4,2,-3,-1
1513481311986448,3,-3,4,-3,0,-2,1,-1
1513481311999471,-4,-1,-9,-2,-2,-1,-5,-4
1513481311999471,0,0,7,0,-5,-4,0,1
1513481312000472,-1,3,16,4,-3,0,5,2
1513481312000472,-3,-5,1,-3,-10,1,2,0
1513481312023474,0,3,2,0,2,-2,1,-4
1513481312023474,0,6,22,9,0,2,-6,-2
1513481312023474,-1,-5,-39,4,1,1,2,0
1513481312023474,-6,-13,-5,-35,-10,-8,-2,-5
1513481312045505,0,-1,-18,2,5,1,-3,0
1513481312045505,-1,1,2,-5,-1,-2,-2,1
1513481312046489,1,4,29,9,2,-1,0,1
1513481312046489,0,2,-3,8,6,-2,-2,0
1513481312059508,0,-6,-13,-12,-1,0,-3,1
1513481312059508,1,0,6,-3,2,-3,-5,-1
1513481312060523,-3,-5,1,-3,-4,-3,0,-4
1513481312060523,1,1,-7,2,4,1,2,-1
1513481312083527,-1,-2,0,-4,4,-1,-5,-2
1513481312083527,0,1,-7,-1,1,-1,2,-1
1513481312083527,-6,-3,11,2,-9,-1,2,-2
1513481312083527,-2,3,8,7,-5,-3,-1,-3
1513481312106533,2,-6,-25,-1,-1,2,1,1
1513481312106533,-2,-6,-10,-5,-3,-1,0,0
1513481312108543,2,1,35,0,-4,-1,0,-1
1513481312108543,3,6,-13,8,9,0,-2,0
1513481312119551,-1,-2,10,-7,5,-3,-3,0
1513481312119551,1,-3,-27,-4,-1,-1,1,-3
1513481312120557,0,1,7,-3,-4,-1,-1,-2
1513481312120557,-2,1,6,5,-1,0,-3,0
1513481312143564,1,-4,-5,-2,3,-1,-5,0
1513481312143564,-2,-6,-4,-5,-2,0,-1,-2
1513481312143564,-6,0,7,3,-3,-1,2,1
1513481312143564,1,-4,0,4,1,-1,2,1
1513481312165576,1,-1,-12,-1,3,-2,-2,0
1513481312165576,-3,-1,13,-1,-3,0,-2,-3
1513481312166590,-1,1,-1,-2,-6,0,-1,0
1513481312166590,-1,-2,6,1,-1,1,-1,-1
1513481312179585,1,-3,-4,-3,6,0,-6,-1
1513481312179585,-4,1,-2,-1,-4,-1,-3,1
1513481312180584,-2,-3,-3,-1,-2,-1,0,-3
1513481312180584,0,3,4,2,2,2,-2,1
1513481312202614,0,2,-1,-1,4,-2,-3,1
1513481312202614,-4,-6,-5,-4,0,-2,-1,-5
1513481312203600,0,1,-3,-4,-4,1,3,1
1513481312203600,-2,-2,4,1,-2,-1,1,0
1513481312225616,2,-2,-4,-4,2,-1,-3,0
1513481312225616,0,-1,-6,-2,-5,-4,-2,1
1513481312226617,-2,-1,3,2,-6,1,3,0
1513481312226617,1,1,2,1,-2,-1,-2,0
1513481312239626,-4,2,-4,-1,0,-1,1,-3
1513481312239626,-3,-2,1,0,-2,-2,-3,1
1513481312240626,-1,-4,1,0,-3,-1,0,-2
1513481312240626,-1,-1,-1,-1,-1,-4,-1,0
1513481312263662,-1,-2,-7,-3,1,-2,0,1
1513481312263662,0,0,1,-2,-1,-2,1,1
1513481312263662,-2,-1,-1,-1,-4,-1,-2,-1
1513481312263662,-2,2,15,3,2,1,0,-2
1513481312285659,-3,1,-21,0,1,-2,-2,-1
1513481312285659,0,-4,-4,-6,-6,0,-1,-2
1513481312286660,2,-3,3,-1,-4,-1,0,-2
1513481312286660,0,-1,1,-1,-1,-2,-2,-1
1513481312299669,1,3,13,1,4,-1,-1,0
1513481312299669,-3,1,6,0,1,3,-1,-3
1513481312300670,-5,-3,-30,-6,-6,-3,0,-3
1513481312300670,1,-3,9,1,2,1,0,1
1513481312322702,0,-3,-5,-3,1,-4,-3,-1
1513481312322702,1,-1,-1,1,0,-1,-4,0
1513481312323687,-5,-2,8,1,-4,-1,3,-1
1513481312323687,-1,0,-9,1,-3,1,1,-4
1513481312345718,-2,-1,-3,-1,-3,-1,2,-2
1513481312345718,1,2,-2,-2,-2,-2,-1,-1
1513481312346705,4,1,8,3,-3,-1,-1,3
1513481312346705,-2,-3,-7,-2,-2,-1,-3,-1
1513481312359712,-4,-1,1,-2,3,0,0,1
1513481312359712,0,-1,1,0,-2,2,1,-3
1513481312360712,1,-1,2,0,-4,-2,0,-1
1513481312360712,-5,-3,-3,-3,1,-2,-1,-3
1513481312382738,-2,-2,-2,-1,0,0,-2,-1
1513481312382738,-2,0,-2,-2,-1,-1,2,2
1513481312383742,2,3,6,1,-3,-1,1,0
1513481312383742,2,0,-3,1,-1,1,-1,-1
1513481312406744,-1,1,-1,-2,-3,0,-5,-3
1513481312406744,-1,-3,-6,-2,-1,-3,-2,-4
1513481312408764,-3,-1,6,2,-4,0,4,-2
1513481312408764,-2,2,-3,-1,-2,-3,-1,0
1513481312418762,1,-1,-4,-2,0,0,-1,-1
1513481312418762,1,-2,1,0,0,-1,-3,1
1513481312428779,0,0,0,1,-1,-1,-2,-2
1513481312428779,-2,-2,-1,0,0,-1,1,-3
1513481312442794,2,-1,-1,-2,1,-2,-1,1
1513481312442794,2,-1,-3,0,1,-3,1,0
1513481312444771,-2,0,2,-1,-5,1,1,-1
1513481312444771,1,-1,-4,-2,-1,1,-2,-3
1513481312465797,-3,-2,0,-1,-1,-1,-3,-3
1513481312465797,-3,-1,-1,-1,1,0,3,-1
1513481312466787,1,-2,0,0,-2,-2,-1,-2
1513481312466787,0,-2,-1,-2,-1,1,0,-2
1513481312479808,-1,1,-3,-5,2,-1,-1,0
1513481312479808,-3,-3,-2,-3,1,0,-4,0
1513481312488806,1,0,2,2,-5,0,0,-2
1513481312488806,0,-1,-2,1,-2,-1,-1,2
1513481312502831,1,-2,0,-1,5,-1,-4,-3
1513481312502831,1,-3,-2,-2,-3,0,-2,1
1513481312504832,-1,0,0,0,-1,-2,-1,0
1513481312504832,-2,-1,0,0,-3,0,2,-1
1513481312525848,-1,0,-4,-1,1,-4,-3,-1
1513481312525848,-3,0,-2,-1,-3,0,0,0
1513481312526833,-2,-4,3,0,-4,1,0,-3
1513481312526833,-1,0,-1,1,3,-2,-1,-3
1513481312539849,-1,0,-5,-3,1,-1,-5,2
1513481312539849,-3,1,0,-3,-2,-3,0,-3
1513481312547854,-3,0,2,1,-5,0,-2,1
1513481312547854,-1,0,0,-1,-1,0,-1,0
1513481312562893,1,-5,-3,-1,2,0,-2,1
1513481312562893,2,-2,-2,-4,-2,0,0,-2
1513481312564868,-4,-1,3,-1,-4,-2,3,-1
1513481312564868,2,-2,-5,-2,0,-2,-3,-1
1513481312585871,0,-3,-6,-2,1,-3,-4,-1
1513481312585871,0,-1,2,0,-4,-1,2,-6
1513481312586888,-4,-2,3,2,-3,0,1,-2
1513481312586888,-2,0,2,-1,0,-2,0,0
1513481312599892,1,1,-6,-1,1,-4,1,-3
1513481312599892,-4,-3,-3,-1,-3,-1,0,0
1513481312615895,-2,0,0,-1,0,0,-2,-2
1513481312615895,-4,0,-1,-1,-3,-3,-1,0
1513481312622897,0,-2,-3,-5,-1,-2,2,-1
1513481312622897,1,-1,1,0,2,-1,1,-2
1513481312624900,-3,0,0,2,-2,-1,0,-1
1513481312624900,2,-1,-1,0,-1,0,-2,3
1513481312645929,-3,2,-6,-1,1,-1,-3,-2
1513481312645929,-3,0,0,1,-5,-3,-2,1
1513481312646926,0,-1,3,0,-2,-2,1,-2
1513481312646926,-1,-2,-1,-1,3,0,-3,2
1513481312658935,-1,0,-7,-3,1,1,-1,0
1513481312658935,0,-1,-3,0,0,0,0,-1
1513481312667946,0,-4,0,0,-2,-1,1,-2
1513481312667946,0,0,-2,0,-2,-4,-1,-2
1513481312682941,0,0,-2,-3,1,-1,-2,1
1513481312682941,0,-3,-4,0,-2,0,0,-1
1513481312684941,0,0,1,3,-2,-2,-3,-2
1513481312684941,1,-1,0,1,-1,0,3,-4
1513481312705974,-1,-1,-2,-3,0,-1,-3,1
1513481312705974,1,2,1,-2,-3,-4,-1,-3
1513481312706961,-1,0,1,-2,-2,0,-1,-2
1513481312706961,-1,-4,0,1,0,0,-4,0
1513481312718978,-1,-2,-3,-2,1,1,-3,-1
1513481312718978,0,0,1,0,-1,0,-1,-1
1513481312727982,-3,0,-1,0,-5,2,1,-2
1513481312727982,-2,1,-2,-2,-1,-2,0,0
1513481312742982,-2,-4,-2,-2,-2,-2,-2,-1
1513481312742982,-3,-1,-1,-3,-2,1,3,-1
1513481312745996,-2,-2,2,0,-4,-2,6,0
1513481312745996,-1,-2,-2,-2,1,-1,-2,1
1513481312765999,-3,0,-3,1,-2,-2,0,-1
1513481312765999,-3,-1,0,-3,2,0,-2,-4
1513481312766999,-2,1,3,-1,-3,-3,1,-1
1513481312766999,-2,-2,-2,-5,-4,-1,-2,-4
1513481312788024,1,-2,-3,-3,2,-4,-1,-1
1513481312788024,-3,-1,-2,0,-2,-1,-4,0
1513481312790025,1,-2,1,1,-1,2,-1,-2
1513481312790025,0,1,0,-1,3,-1,-3,-4
1513481312803025,-2,0,-4,0,-1,1,-4,-2
1513481312803025,-1,-3,0,-2,-3,0,3,1
1513481312805027,1,-2,2,0,-3,-2,-3,3
1513481312805027,-1,-1,-1,0,-4,-2,-2,-2
1513481312826054,3,-1,-3,-4,3,-1,0,-1
1513481312826054,-1,-2,2,-1,0,0,-2,1
1513481312827052,-2,-2,0,1,-4,-1,-1,-1
1513481312827052,-1,-2,-2,2,3,0,-2,-2
1513481312848079,-3,0,-2,-2,1,-1,-3,1
1513481312848079,-1,-1,-2,-2,-5,0,-2,-1
1513481312850069,-1,-1,4,0,-1,-1,0,-2
1513481312850069,-1,0,-2,-1,2,-1,-3,2
1513481312863088,2,-2,-2,-1,3,1,-2,0
1513481312863088,-1,-2,-2,-1,-2,-2,-2,-1
1513481312865082,-2,0,0,-2,-2,0,-2,0
1513481312865082,-1,2,-1,0,0,-2,-3,-1
1513481312886083,0,-3,-1,-2,1,-2,-1,-4
1513481312886083,-2,-3,-1,-1,-2,-1,-1,-1
1513481312887084,-3,-2,-3,1,-1,1,-1,-1
1513481312887084,1,-2,0,-1,0,0,0,0
1513481312908109,-1,1,-2,-4,0,-2,-2,1
1513481312908109,-3,-1,0,-1,-3,-1,-1,-4
1513481312910109,-2,0,0,1,-2,-2,-1,-1
1513481312910109,-1,-3,0,1,-1,0,-2,0
1513481312923109,0,-2,-2,-4,-2,2,-1,1
1513481312923109,1,0,1,0,-2,-1,-3,-1
1513481312925127,-1,0,0,1,-2,-1,-4,-2
1513481312925127,-2,-1,-4,0,-1,-1,1,2
1513481312945147,1,-1,-2,-2,-1,-3,0,-5
1513481312945147,-1,-1,-4,-5,-1,-1,3,-1
1513481312947126,-2,3,2,1,0,-1,-2,0
1513481312947126,0,-1,-3,-2,3,-2,-4,-4
1513481312968141,-1,-2,-2,0,-1,0,-1,-3
1513481312968141,-2,-2,0,2,-4,-2,2,-3
1513481312970142,0,-4,1,-1,-3,-1,-2,-4
1513481312970142,1,0,-7,-2,0,-2,-1,-2
1513481312982170,-5,-2,-4,-2,-5,-2,3,0
1513481312982170,-2,1,-1,-3,-3,1,-2,-1
1513481312989160,0,-2,1,1,-4,-3,1,1
1513481312989160,0,-1,3,1,2,-3,-6,-2
1513481313005186,-3,-1,-2,-1,1,-1,-3,-2
1513481313005186,-2,-1,-3,-2,-2,-3,1,2
1513481313007173,0,-3,1,0,-4,0,3,-1
1513481313007173,-1,-1,-1,-1,-1,1,-3,-1
1513481313028184,-2,0,-4,0,0,-3,-1,-1
1513481313028184,1,1,1,-1,-3,0,1,1
1513481313031186,-3,0,2,0,1,-2,-2,0
1513481313031186,4,-2,-3,-1,1,-1,-4,1
1513481313042194,0,1,-6,-4,1,0,2,0
1513481313042194,-4,0,1,0,-5,0,0,-2
1513481313049213,1,-2,-1,-1,0,-3,0,0
1513481313049213,1,-2,0,0,2,-1,-2,-1
1513481313066222,1,-3,-3,-2,1,0,-6,-1
1513481313066222,-2,-3,2,1,0,-1,1,-1
1513481313067212,0,1,0,-1,-3,-2,3,0
1513481313067212,0,-2,0,-1,2,-3,1,-2
1513481313088239,-4,-3,-1,-5,-1,2,-1,2
1513481313088239,-2,-1,-1,0,-4,-1,2,0
1513481313089240,-2,0,-2,-1,-1,1,-2,0
1513481313089240,-3,1,-5,-2,1,-2,-3,0
1513481313102249,-4,3,-2,-2,-1,-1,0,-2
1513481313102249,-2,-3,1,-1,-4,-1,1,1
1513481313109261,-3,-2,1,1,1,0,-1,-2
1513481313109261,-1,0,-2,-3,1,-1,-2,-1
1513481313125273,0,-2,-4,-1,1,0,-3,3
1513481313125273,-2,1,2,0,-2,-1,2,-3
1513481313127259,-1,-3,1,1,0,-1,-3,-3
1513481313127259,2,2,-2,-2,0,-3,-4,3
1513481313148327,0,-2,-1,-2,-2,-2,-3,-2
1513481313148327,-1,-2,1,-2,-6,-4,4,-1
1513481313149272,-2,1,1,0,-1,-1,-2,-1
1513481313149272,-2,-2,-1,1,3,-1,-3,-2
1513481313162288,-2,1,-2,-2,0,-1,0,-1
1513481313162288,-2,-1,1,-2,-3,-1,-2,0
1513481313169293,-1,1,0,2,1,-1,-2,-1
1513481313169293,1,-2,-2,0,-1,-1,-2,-3
1513481313185304,-3,0,-2,-3,-2,-4,-2,-3
1513481313185304,-1,-4,2,1,-7,-2,-4,-4
1513481313187296,0,-5,-3,-1,1,2,14,3
1513481313187296,4,1,-3,0,3,0,-7,1
1513481313208323,-1,-5,-4,-1,0,-3,-1,-1
1513481313208323,-3,0,2,0,-5,-1,1,-4
1513481313209327,0,0,-1,0,0,0,-3,2
1513481313209327,-2,-2,-3,-2,3,-2,-2,-2
1513481313222329,1,-2,-2,-4,1,-1,1,1
1513481313222329,-4,1,2,0,-4,0,3,-2
1513481313229340,-3,1,2,0,0,0,-6,-3
1513481313229340,0,-1,-5,-1,3,0,0,-3
1513481313245351,0,-2,-3,-3,-2,-3,-4,-4
1513481313245351,-4,-1,-1,-1,-4,1,2,0
1513481313247348,-2,-2,1,0,0,-4,0,-4
1513481313247348,-1,0,-4,1,3,0,-3,-1
1513481313275378,-1,1,2,-1,0,-1,-1,-1
1513481313275378,-4,-1,0,2,-5,0,1,-3
1513481313277379,1,0,-1,0,-1,0,-5,2
1513481313277379,1,-1,-3,-2,1,-5,-5,-3
1513481313281378,-1,-1,-5,-3,-3,2,-1,3
1513481313281378,0,-3,1,0,-5,-3,3,1
1513481313290384,0,1,0,-2,-3,-2,-4,-7
1513481313290384,2,0,-5,-4,3,3,-1,0
1513481313306380,-1,-1,-1,0,0,-4,2,-2
1513481313306380,-1,-1,2,-1,-5,0,-1,0
1513481313309397,-3,-1,-2,0,-2,-1,-1,3
1513481313309397,1,2,-1,-1,1,1,-4,2
1513481313328412,1,-4,0,0,-1,-1,1,-2
1513481313328412,0,-1,0,-2,-5,-1,3,-1
1513481313329397,-1,-2,-1,0,1,-1,-2,0
1513481313329397,-1,-1,-3,-3,4,0,-3,-1
1513481313341415,-3,1,-1,-3,-3,-1,-1,1
1513481313341415,-3,-1,1,-2,-5,-2,3,-2
1513481313350422,3,-2,1,0,-4,0,0,-1
1513481313350422,-3,-1,-3,-1,1,0,-7,0
1513481313366439,-5,-1,-1,0,1,0,0,-2
1513481313366439,-5,-3,0,0,-5,0,2,1
1513481313367428,-2,-1,0,0,-3,0,2,-3
1513481313367428,2,-1,-3,-1,5,-3,-1,-1
1513481313388439,0,-1,-5,-2,-3,-3,1,0
1513481313388439,-2,-1,2,1,-5,-2,-4,0
1513481313389440,-5,0,1,-1,1,1,2,0
1513481313389440,1,-2,-4,-2,3,-2,-3,1
1513481313401465,-1,-3,-1,0,0,0,0,0
1513481313401465,-1,2,1,1,-4,-1,4,-1
1513481313410455,2,-2,-2,0,-1,-1,-7,2
1513481313410455,-2,-3,-4,-1,3,-1,-2,-2
1513481313425466,-1,0,-3,-1,-3,-1,2,-1
1513481313425466,-1,0,0,0,-5,-1,3,-1
1513481313427471,0,-1,1,1,0,-2,-1,0
1513481313427471,-2,-1,-4,-1,3,0,-4,1
1513481313448530,0,-1,-3,-2,0,-2,-3,1
1513481313448530,-3,0,6,-2,-6,1,4,-1
1513481313449481,-1,0,-2,0,0,-1,-1,-2
1513481313449481,0,2,-3,-1,2,-3,0,-1
1513481313461500,-3,-3,0,-3,-2,0,0,-1
1513481313461500,-1,-2,1,0,-2,-3,1,1
1513481313470497,-4,1,0,1,0,-2,-5,-4
1513481313470497,1,1,-4,-1,4,0,-4,1
1513481313485519,-1,-1,-1,1,-2,1,1,2
1513481313485519,0,-2,0,-1,-4,1,1,1
1513481313487508,1,0,4,-3,-5,-5,-2,-2
1513481313487508,-1,-1,-4,-1,5,-2,-3,-2
1513481313508526,-2,-1,-3,-4,-3,-2,-3,-1
1513481313508526,3,-2,2,1,-5,3,1,-3
1513481313511525,1,-4,-1,0,-2,0,1,0
1513481313511525,-1,1,-2,-3,0,1,-6,0
1513481313521551,1,2,-1,-2,-3,1,0,-4
1513481313521551,-4,-1,3,-1,-5,-1,4,-1
1513481313530558,3,-2,0,-1,0,-2,0,1
1513481313530558,0,-2,-5,-1,1,-4,-1,2
1513481313545568,-2,2,-3,0,-2,-1,-3,-1
1513481313545568,-4,0,0,0,-3,0,2,3
1513481313547551,-3,1,0,-1,-1,-1,0,1
1513481313547551,3,-4,-4,-2,4,-3,-5,0
1513481313567578,1,-4,1,-1,-3,-3,-1,-3
1513481313567578,-3,-3,2,0,-2,-4,2,-1
1513481313569568,2,0,-2,1,2,0,-4,-3
1513481313569568,-2,-3,-2,-3,1,-2,-3,-1
1513481313581595,-2,0,-6,-2,1,-2,-3,-2
1513481313581595,0,1,2,0,-4,0,-1,-2
1513481313590581,-5,-3,-3,1,-1,1,1,-2
1513481313590581,2,1,-4,-1,5,-2,-6,-4
1513481313605604,0,-2,1,-2,0,-1,-1,0
1513481313605604,-1,-2,2,-3,-1,-1,3,1
1513481313607605,-2,0,0,1,-2,0,-1,1
1513481313607605,1,0,-6,-2,3,-1,-3,1
1513481313627619,1,-4,1,-1,-2,-1,-1,-1
1513481313627619,-1,1,0,0,-5,0,0,-2
1513481313629610,0,-2,-1,0,-3,-1,-2,1
1513481313629610,-1,-3,-2,-2,3,-2,-3,0
1513481313641656,0,0,-1,-2,1,0,-3,-3
1513481313641656,-2,1,1,1,-6,-3,-2,-1
1513481313650636,0,0,-1,1,2,-4,-2,-1
1513481313650636,-2,1,-6,-4,2,1,1,1
1513481313665647,-2,-2,0,-4,-2,0,-2,1
1513481313665647,-4,-2,3,0,-5,-1,1,-3
1513481313666648,0,1,0,0,1,-1,1,-3
1513481313666648,3,1,-5,-4,1,-3,-2,-2
1513481313687651,-1,-4,0,-3,0,0,1,0
1513481313687651,-2,-1,2,0,-5,-1,-2,0
1513481313689652,-2,-2,-1,0,-1,-2,-1,-1
1513481313689652,-1,-3,-5,-3,3,-3,0,-2
1513481313701659,-1,0,-1,1,-1,-1,0,-2
1513481313701659,-2,-2,4,0,-5,0,2,-5
1513481313710677,-1,1,-2,-1,-1,1,-2,-1
1513481313710677,0,-3,-5,-2,3,-2,-4,1
1513481313725688,0,1,-4,-2,-3,0,-1,-1
1513481313725688,-2,-2,1,-1,-5,2,2,1
1513481313727690,-1,0,0,1,-1,0,-2,0
1513481313727690,0,-2,-2,-2,1,-1,-5,1
1513481313755708,-2,-1,1,-4,-1,-1,1,-4
1513481313755708,0,-2,2,2,-3,1,1,0
1513481313756708,-3,-4,-2,-1,-2,-1,0,1
1513481313756708,1,2,-4,-2,0,-1,-4,-1
1513481313770718,-3,3,0,-1,0,-1,1,0
1513481313770718,-1,0,2,0,-4,-2,-1,-4
1513481313771719,-2,-3,1,0,0,1,1,-1
1513481313771719,0,-3,-5,-2,0,-2,-1,-2
1513481313785731,-1,-1,-1,-2,2,1,-2,-1
1513481313785731,-4,-1,2,0,-4,-1,1,-2
1513481313786719,-1,-2,-1,-1,0,-3,-2,-1
1513481313786719,-4,-1,-6,0,0,-1,4,-2
1513481313808738,-3,1,-2,-3,-2,-1,-2,1
1513481313808738,-1,-1,5,0,-6,-1,-1,-2
1513481313811739,-3,-2,0,1,-1,1,-2,1
1513481313811739,-2,1,-5,-4,4,0,-2,1
1513481313830764,3,-1,-2,0,-4,-1,0,1
1513481313830764,-1,-3,0,0,-1,-2,2,-1
1513481313831762,-1,-1,-1,0,-1,0,1,-1
1513481313831762,-3,-1,0,-3,2,0,-3,-3
1513481313845775,-1,-3,-1,-2,-6,-2,-1,-2
1513481313845775,0,1,1,1,-2,1,5,3
1513481313846776,2,-2,-1,-1,-1,-2,2,-1
1513481313846776,-1,-1,-3,0,3,-2,-4,2
1513481313867791,-1,-2,-2,-2,3,-2,2,2
1513481313867791,-2,2,3,1,-6,-1,-4,-3
1513481313869792,0,1,0,-1,-4,1,-2,2
1513481313869792,-2,-3,-4,0,2,1,-4,-1
1513481313890805,0,1,0,-1,0,-1,-2,-2
1513481313890805,-5,-1,0,0,-6,0,0,-2
1513481313891807,-1,2,-1,-1,-1,-4,-2,0
1513481313891807,2,-1,-2,-3,1,-2,-4,-1
1513481313904804,1,-3,-1,0,-6,-1,-2,1
1513481313904804,-3,-3,1,-1,-2,-2,-3,-4
1513481313911818,-3,-3,-1,-2,-2,-2,-1,-3
1513481313911818,-2,-1,-3,-3,-1,-1,2,-2
1513481313928820,-2,0,-1,1,-2,0,1,-4
1513481313928820,-1,-1,-1,0,-2,1,1,0
1513481313930837,5,1,1,-3,3,-1,1,1
1513481313930837,-2,-5,-1,-3,3,-2,-4,-3
1513481313950845,-3,-1,-1,-2,2,-2,-2,1
1513481313950845,-2,-3,2,2,-5,-1,-1,0
1513481313951841,0,-2,0,-1,-1,-1,-3,0
1513481313951841,1,3,-7,-2,2,0,-1,1
1513481313964898,0,-3,-2,-1,2,-1,-2,-3
1513481313964898,-4,-2,1,1,-2,-1,-2,2
1513481313971851,-2,-1,-3,0,-2,-2,0,1
1513481313971851,-2,0,-3,-3,2,-2,-2,0
1513481313987863,0,-1,-1,1,-1,0,0,0
1513481313987863,2,0,1,-4,-2,-2,0,-1
1513481313989869,0,-1,0,-1,-4,2,0,-5
1513481313989869,-1,0,-5,-3,1,1,-2,-2
1513481314010887,-3,-4,-1,-3,-3,-1,-4,-1
1513481314010887,1,-4,3,1,-2,0,0,-2
1513481314011894,-4,3,0,-2,-1,-2,-1,-3
1513481314011894,2,3,-3,-3,0,-3,0,-1
1513481314024898,-1,1,-1,1,-1,-2,-2,-1
1513481314024898,1,-2,2,1,0,0,0,1
1513481314031893,1,-3,-2,0,-1,-2,-1,-5
1513481314031893,-1,-2,-3,-1,1,-1,-1,0
1513481314047917,0,1,-4,-2,2,0,2,1
1513481314047917,0,-1,1,1,-3,-2,3,-3
1513481314049905,0,-3,-2,-3,1,0,-3,0
1513481314049905,-2,-3,-4,-2,1,-1,-2,-2
1513481314070921,-6,-1,1,-1,-5,-2,-1,-1
1513481314070921,-3,0,1,1,-6,-1,0,1
1513481314071934,0,-2,-3,1,4,-2,-2,1
1513481314071934,-2,-2,-3,-3,-1,-3,1,-1
1513481314084940,-2,-2,-1,-3,1,-1,0,-2
1513481314084940,-2,0,2,1,-7,1,-1,-3
1513481314091945,-3,-4,-1,0,-1,1,-3,-2
1513481314091945,0,1,-1,-2,1,-4,-3,0
1513481314107956,-1,-5,-3,0,-2,-2,1,-5
1513481314107956,-2,1,1,-2,-1,-2,3,-1
1513481314109958,-4,1,-2,-2,0,-1,1,-2
1513481314109958,3,-3,-4,-2,1,-2,-3,-1
1513481314130991,-1,-1,-1,-1,-4,-1,-2,1
1513481314130991,-4,0,-1,-2,0,0,-3,-1
1513481314131963,-1,1,0,-1,2,-1,-1,-1
1513481314131963,0,0,-3,-5,1,0,-2,-2
1513481314144995,-1,0,-1,0,0,0,1,-3
1513481314144995,-1,-1,0,-2,0,-2,-2,1
1513481314151988,1,-3,-1,0,-1,-1,-1,1
1513481314151988,-2,-1,-2,-1,-2,-1,1,1
1513481314167999,-1,-3,-5,-3,-4,0,-1,-1
1513481314167999,0,1,3,2,-4,-1,0,2
1513481314170000,1,1,-2,-2,0,-3,1,-2
1513481314170000,2,0,-4,-3,2,0,-4,0
1513481314191005,-3,2,0,-3,-2,-2,1,-3
1513481314191005,0,-4,3,2,-4,0,2,-2
1513481314193037,0,1,-1,0,-3,-2,-3,0
1513481314193037,-6,-3,-5,-1,0,1,-2,0
1513481314205021,-2,-1,2,-2,1,-1,-2,-1
1513481314205021,-3,0,0,3,-5,1,-2,1
1513481314212037,-3,-2,-1,0,-1,-2,0,-2
1513481314212037,0,-2,-6,-1,-1,0,-4,1
1513481314228032,0,-1,1,-4,-1,0,0,0
1513481314228032,-2,0,0,0,-1,-2,0,0
1513481314230033,1,1,-1,1,-1,0,1,0
1513481314230033,-1,1,-3,-3,5,-1,0,1
1513481314251048,1,-2,-2,-2,-2,0,-4,0
1513481314251048,-1,1,3,4,-2,-3,-1,-1
1513481314252049,1,0,-3,-3,-2,-1,-4,-1
1513481314252049,-2,-1,-3,-2,1,-2,-1,1
1513481314264078,1,2,2,-3,-1,-2,2,-3
1513481314264078,-1,-1,0,1,-1,-1,-1,-4
1513481314273063,-2,0,-1,0,-1,1,-1,1
1513481314273063,2,0,-2,-1,-1,0,-5,-3
1513481314288076,-3,-2,-4,0,-2,-1,-3,2
1513481314288076,-1,0,1,0,-2,-2,-2,-2
1513481314290085,-4,-1,1,2,-2,-1,-1,-1
1513481314290085,-3,-2,-4,-5,-2,-3,-2,-1
1513481314310099,1,-1,1,0,-3,-5,-1,2
1513481314310099,1,-1,0,-1,-3,2,-3,-3
1513481314312094,-3,-2,-1,-1,1,0,-5,-5
1513481314312094,0,-4,-4,-3,1,0,-3,1
1513481314325112,2,-1,-2,-3,-1,-1,1,-3
1513481314325112,0,-1,2,-3,0,-1,1,1
1513481314333147,0,-1,0,0,-2,-2,1,1
1513481314333147,-2,-1,-3,-1,0,-3,-1,-3
1513481314348176,-1,-1,1,-3,0,0,-2,-2
1513481314348176,2,-1,-1,0,-2,0,-2,-2
1513481314349146,2,1,-3,0,0,1,-2,0
1513481314349146,-1,0,-3,-1,-1,0,2,-1
1513481314370173,-2,-1,0,-1,0,0,2,3
1513481314370173,-5,-4,2,1,-2,-2,1,1
1513481314372162,0,-3,-2,0,0,-4,-1,-3
1513481314372162,-1,-2,-2,-1,0,-1,-1,0
1513481314384180,0,0,-1,-3,-1,-2,-1,-1
1513481314384180,-2,0,1,0,-2,2,-1,-1
1513481314393192,-4,-1,-3,0,2,-1,-2,2
1513481314393192,1,-1,-4,-1,-2,-2,-7,-4
1513481314408189,-1,0,-2,-1,-4,-1,1,0
1513481314408189,-4,-2,1,-1,-2,-3,1,0
1513481314409190,2,-1,-3,-2,3,0,0,-1
1513481314409190,-5,-4,-1,-1,0,-1,-1,-2
1513481314430205,-2,-3,-2,-3,-1,2,-1,4
1513481314430205,0,-2,1,2,-4,0,-2,-1
1513481314432215,0,1,-1,-2,-1,-3,-4,1
1513481314432215,-2,-1,-3,-2,1,-1,0,-2
1513481314444243,-2,0,-2,-1,-3,-2,0,-5
1513481314444243,-2,-1,2,0,0,0,1,-1
1513481314453220,-2,-2,-2,-2,2,-1,-2,-1
1513481314453220,1,-1,-3,-2,0,0,-1,0
1513481314468247,-3,-2,-2,-1,-6,-3,1,-3
1513481314468247,-2,0,-1,1,-5,0,0,-1
1513481314469241,0,0,-2,-1,-2,1,-3,1
1513481314469241,-1,-2,-3,-2,1,-5,0,1
1513481314490247,-3,-2,-1,-1,-3,1,1,-2
1513481314490247,3,-1,1,1,-3,-3,0,-3
1513481314492267,0,1,-3,-2,-1,-4,-2,-1
1513481314492267,1,0,-1,-3,-1,1,-2,-6
1513481314504289,-3,-3,2,0,-1,-1,-1,1
1513481314504289,-1,2,1,-1,-3,-3,0,-3
