timestamp,emg1,emg2,emg3,emg4,emg5,emg6,emg7,emg8
1513173946183565,-2,-2,-1,-1,-1,0,-1,-2
1513173946183565,-1,-2,-2,0,-1,-3,-1,-2
1513173946190571,-2,-1,-1,0,-1,-1,-2,-2
1513173946190571,-1,0,-3,-1,-2,0,-3,-1
1513173946214087,1,-2,-1,-2,-2,-1,0,-2
1513173946214087,1,3,-4,-3,-1,-3,-2,-3
1513173946215589,-1,1,-1,-1,0,-1,-2,0
1513173946215589,-1,0,-1,-3,-2,-1,-1,-1
1513173946229100,0,-2,-1,0,1,-1,-1,-1
1513173946229100,-3,-2,-1,-3,-2,-1,-1,0
1513173946230599,-1,-1,-1,-1,-1,0,-1,-3
1513173946230599,-1,-1,-2,0,-1,-1,-2,-1
1513173946252115,-1,-2,-3,-3,-3,-2,-2,0
1513173946252115,-2,-2,0,0,-2,0,-1,-1
1513173946253116,-2,-3,-1,-2,0,2,1,-1
1513173946253116,0,0,-1,-1,-2,-2,-1,-2
1513173946266666,0,-1,-2,-1,0,1,-1,-1
1513173946266666,-1,-2,-1,0,-2,0,0,-1
1513173946268135,-2,0,0,-1,-2,-2,-1,1
1513173946268135,-2,-1,0,0,0,-1,0,-1
1513173946289643,1,-1,-2,-1,-2,-1,-2,-1
1513173946289643,-2,2,-4,0,-2,-1,-1,-2
1513173946291662,-2,-1,-3,-2,-2,-1,-2,-2
1513173946291662,-3,0,0,-1,-1,1,-1,0
1513173946303660,-1,-1,-2,-2,-2,-2,0,0
1513173946303660,0,-3,-2,-1,0,-1,-2,0
1513173946310655,-1,-1,-2,-1,-1,-2,-1,0
1513173946310655,-2,0,-1,0,-1,0,-1,-3
1513173946326677,-2,0,-1,2,0,-1,-2,-1
1513173946326677,1,-1,-1,-2,-2,0,0,0
1513173946328168,0,-2,0,-1,-1,-1,-2,-1
1513173946328168,-2,-2,0,-2,-1,-1,-1,-3
1513173946349196,-1,-2,0,-1,0,0,-1,-1
1513173946349196,-2,-2,-1,-2,-1,0,0,-1
1513173946350684,-1,-3,3,1,-1,1,0,0
1513173946350684,1,-3,-1,-1,0,-1,-1,0
1513173946363703,-2,-2,-1,1,-3,-1,0,0
1513173946363703,-2,-1,-1,-1,0,-1,-3,-1
1513173946370200,0,3,-5,-3,-2,0,0,-2
1513173946370200,-1,-1,-1,-1,-2,-2,-1,1
1513173946386722,0,-2,-2,-3,-2,-1,0,-2
1513173946386722,-1,-1,-2,-2,0,-1,-2,-1
1513173946388214,-1,-2,-1,0,-3,-1,0,-2
1513173946388214,0,-2,-1,-1,-1,-3,-1,0
1513173946409237,-1,-1,0,0,-1,0,-2,1
1513173946409237,-2,-1,-1,0,-1,-1,0,-1
1513173946410726,0,-1,-1,-1,-2,0,-1,-3
1513173946410726,0,-1,0,0,-1,-1,-1,0
1513173946423753,-1,0,-1,0,0,-3,-1,0
1513173946423753,-2,1,0,0,1,-1,-1,0
1513173946430256,-4,1,0,0,-1,-2,-1,-2
1513173946430256,-1,0,-6,-3,-2,0,0,-2
1513173946446763,-2,-2,-1,-1,-1,0,-1,-2
1513173946446763,0,-2,-2,0,-1,-1,0,-1
1513173946448253,-1,-2,-1,1,2,-1,-2,-1
1513173946448253,0,-1,1,-1,-2,-1,0,0
1513173946469269,1,-1,-2,0,0,-1,-1,1
1513173946469269,-1,-2,-2,-2,-1,0,0,-1
1513173946470769,-2,-2,-2,0,-1,-1,-2,-3
1513173946470769,-2,-1,-1,0,0,-1,-2,0
1513173946482780,0,-2,-1,0,-2,-2,-1,-1
1513173946482780,-2,-3,-1,0,-2,0,-1,0
1513173946492284,-1,-3,0,-2,-1,-1,0,-2
1513173946492284,-1,-2,-2,0,0,0,0,-2
1513173946507320,1,-2,1,-2,0,-2,-3,-1
1513173946507320,0,1,1,0,0,0,0,1
1513173946509297,-1,-1,0,-1,0,-1,-1,-2
1513173946509297,0,-1,-3,-1,-1,-1,-1,0
1513173946529324,-2,1,0,-1,-2,0,-1,-1
1513173946529324,-1,-3,-1,0,-3,-2,-2,-2
1513173946530816,-3,0,0,-1,-2,-1,-2,0
1513173946530816,1,-3,-1,-1,-1,0,-2,-1
1513173946542845,-2,0,-2,-2,0,-1,-2,0
1513173946542845,-1,-1,-2,-2,-1,-1,-2,-2
1513173946551827,-1,1,-1,-2,-2,0,-2,-2
1513173946551827,-1,-2,-2,-2,2,-1,1,-2
1513173946566851,0,-2,0,-3,-1,-1,0,-1
1513173946566851,-1,2,1,-1,-3,-1,-3,1
1513173946568339,-2,-4,-1,-2,-2,1,0,-2
1513173946568339,0,-1,0,0,-3,-1,-2,0
1513173946589378,-1,-1,-2,-1,0,-1,-2,0
1513173946589378,-1,-4,1,0,2,0,-1,-2
1513173946590856,0,-1,0,0,-3,0,-1,0
1513173946590856,-2,-2,-1,-1,-1,-2,0,-1
1513173946602862,1,-1,-5,0,-2,-2,1,-2
1513173946602862,-2,0,-2,-2,-3,-2,-2,0
1513173946617891,-1,0,0,-2,-1,-1,-2,-1
1513173946617891,-1,-3,1,0,0,0,0,0
1513173946626903,-1,-3,0,0,0,0,-1,1
1513173946626903,-1,-2,-2,-1,-1,-2,-2,-2
1513173946628403,0,-2,-3,-1,0,-1,-2,-1
1513173946628403,-2,1,1,-1,-1,-1,-1,-1
1513173946649423,0,0,-2,1,0,-1,-1,0
1513173946649423,-2,-1,-2,-1,-1,-2,0,-1
1513173946650925,-1,0,-2,0,-1,-2,-1,-2
1513173946650925,-1,-1,-3,-4,-3,-1,1,-2
1513173946662915,0,-3,-2,0,0,-1,0,-1
1513173946662915,0,-3,-1,-3,-2,-2,-1,-2
1513173946671911,-3,-2,-1,-1,-1,1,0,-1
1513173946671911,0,-1,-1,0,-1,-2,-1,-1
1513173946694447,-1,-1,1,1,-1,0,0,1
1513173946694447,-2,2,-2,-1,-1,-2,-2,-1
1513173946695936,0,-1,-1,-3,0,-2,-1,0
1513173946695936,-2,-1,-1,-1,0,-2,-2,-2
1513173946709458,-2,-1,-2,-1,0,0,-3,-2
1513173946709458,0,0,-1,-1,-1,0,0,-1
1513173946710959,-1,1,-2,-2,-1,0,-1,-1
1513173946710959,0,-2,0,1,0,-1,-2,2
1513173946722948,-2,-1,0,-1,-1,0,-1,-2
1513173946722948,-1,-1,0,-2,0,0,-2,-1
1513173946731954,-1,-1,-1,-2,0,-2,-1,-2
1513173946731954,-1,-1,-2,-1,-1,0,-1,0
1513173946746986,-1,0,-1,-2,0,-2,0,0
1513173946746986,-1,-2,0,0,-2,-1,-1,0
1513173946748469,-1,-2,0,0,-1,-1,-1,-1
1513173946748469,0,0,-1,-2,-3,0,-1,-1
1513173946769481,-1,-1,2,-1,0,0,0,0
1513173946769481,-2,-2,-1,-1,0,-1,1,-1
1513173946770981,-1,1,0,0,0,-2,-1,0
1513173946770981,-1,-2,-3,0,-2,-1,-2,-1
1513173946783506,-1,-2,-5,-1,0,-1,-2,-1
1513173946783506,-2,-1,0,-1,-2,-2,0,0
1513173946792997,-2,-2,-2,0,-2,-1,0,-2
1513173946792997,-3,0,1,-1,-1,0,1,-2
1513173946806521,0,0,-3,-2,-2,-2,-2,0
1513173946806521,-1,-1,-3,-1,-2,-1,-2,-1
1513173946808523,-1,-1,-1,0,-2,-1,0,-2
1513173946808523,-1,-3,-2,0,-2,-1,-2,-1
1513173946829032,-2,-1,0,-2,-1,-1,-2,-2
1513173946829032,-3,1,-1,0,-1,-1,-1,1
1513173946831024,-1,0,-1,-2,-1,-1,-1,-1
1513173946831024,-2,-2,-2,-1,-1,-2,-1,-2
1513173946843032,-1,-2,-1,-2,-1,1,0,-1
1513173946843032,0,-1,-2,-2,-2,0,-3,-1
1513173946852038,-2,0,-1,-2,-1,-1,-1,-1
1513173946852038,-1,-1,-1,-2,-1,-1,-2,0
1513173946866552,-1,-2,-2,-2,-3,1,0,0
1513173946866552,-2,-3,-1,0,-2,-2,0,-2
1513173946880559,0,-3,0,-1,-2,-2,-1,-3
1513173946880559,1,1,-2,-1,-1,-1,-2,-3
1513173946889067,-1,-2,-2,0,-2,-1,-2,-2
1513173946889067,1,-2,-2,-1,-1,-1,0,-1
1513173946892066,-1,-1,-2,-1,-2,-2,-1,1
1513173946892066,-1,-2,0,0,0,0,-1,-1
1513173946912103,0,0,-1,-3,-1,-1,0,-1
1513173946912103,-2,0,-1,-1,-2,0,-2,-2
1513173946914098,-1,0,-2,-2,-1,-1,-3,-1
1513173946914098,0,-1,0,0,-2,-1,-1,0
1513173946926633,-1,-3,-1,1,-1,-1,0,0
1513173946926633,-1,-1,-3,-1,1,-2,0,-2
1513173946928605,-2,0,-3,-1,-2,-1,-2,-2
1513173946928605,-1,-1,-3,-1,1,-1,1,2
1513173946949125,-1,-3,-3,0,-1,-2,-2,-2
1513173946949125,0,1,-2,0,0,-2,-1,-1
1513173946951127,-2,-2,0,-2,-1,-1,-2,-2
1513173946951127,1,-1,-1,0,-1,-2,-2,0
1513173946971622,-1,2,-1,0,-2,-3,0,0
1513173946971622,0,-3,-1,-2,-1,-1,-2,-2
1513173946973124,-2,-2,-1,-1,1,-1,-2,-3
1513173946973124,-1,0,-1,-2,-1,-1,1,-2
1513173946986636,-2,-1,0,0,1,-1,-1,0
1513173946986636,1,2,-3,-3,-3,-3,0,-2
1513173946988136,0,-1,3,-1,0,0,-1,-2
1513173946988136,0,-3,-1,-2,1,-1,-2,-2
1513173947009149,2,-1,0,-1,-1,0,-1,0
1513173947009149,-1,-2,-2,-3,-1,-1,-1,-2
1513173947010651,-1,-2,-1,-1,-1,-1,0,0
1513173947010651,-1,-2,-1,-1,-1,-2,-2,0
1513173947031668,-2,-2,-2,-3,-2,-2,-2,0
1513173947031668,-1,-1,-2,0,-1,1,-2,-1
1513173947033167,-1,0,-2,0,0,-2,0,-2
1513173947033167,-2,-1,-1,-1,0,0,-1,-1
1513173947045175,-2,-4,-3,-1,-1,0,-4,-2
1513173947045175,0,-1,-1,-2,-1,-2,-1,-1
1513173947054183,0,-2,-2,0,-1,-1,0,0
1513173947054183,-1,-1,-1,-1,-2,-1,-1,0
1513173947069221,-2,1,-1,-2,0,0,0,1
1513173947069221,-2,-1,1,-1,-1,-1,-1,0
1513173947071194,-1,0,-1,-3,-1,-1,-3,1
1513173947071194,-2,1,-4,-3,-2,-2,-1,0
1513173947091708,0,0,-1,0,0,-1,0,-1
1513173947091708,-2,-2,0,-2,-1,-1,-2,-2
1513173947094210,0,-1,1,-1,-2,-1,0,-1
1513173947094210,-2,-2,0,-1,0,0,-2,0
1513173947106235,-1,-1,-2,-1,0,-2,-2,-1
1513173947106235,-3,-2,1,0,1,1,0,-1
1513173947112734,-1,-1,-3,-2,-3,-2,-1,-2
1513173947112734,0,-2,-1,-2,-2,-1,-1,0
1513173947129246,-1,-2,-1,0,-2,0,-1,-1
1513173947129246,0,-1,0,-1,-1,-1,-1,-1
1513173947130737,0,-1,0,-2,-1,0,-1,-2
1513173947130737,-2,-1,1,1,1,-2,-1,-1
1513173947151752,0,0,0,0,-1,-1,-2,-1
1513173947151752,-2,0,0,-1,0,-2,0,1
1513173947153252,-1,-1,-1,-1,-1,-1,-2,0
1513173947153252,1,-1,-3,-2,-1,-1,-2,0
1513173947175267,-2,-2,-2,-4,-2,-2,0,-3
1513173947175267,-3,-2,0,-2,-2,-1,-3,0
1513173947176768,-1,-1,0,0,-1,0,0,-1
1513173947176768,-1,-2,0,2,-1,-1,-2,-2
1513173947188777,-1,-4,2,1,1,0,0,2
1513173947188777,-2,-1,-2,1,-2,0,-1,-1
1513173947189278,-2,-2,1,-1,-1,-1,-1,0
1513173947189278,-1,-1,-2,0,-2,2,1,0
1513173947210809,0,-1,0,-2,-2,-2,-1,-2
1513173947210809,-1,0,-3,-1,0,-1,-1,-1
1513173947211805,-2,1,-1,-2,0,-2,-3,1
1513173947211805,1,0,-1,-1,-2,-2,0,-2
1513173947225304,0,1,-2,-2,-1,-1,0,0
1513173947225304,0,-2,-2,-1,-2,0,-1,-1
1513173947233853,-1,1,-1,-2,-1,-2,-1,-2
1513173947233853,0,-1,-1,-2,0,0,-1,-1
1513173947248859,-1,-1,-1,-1,0,-1,-2,0
1513173947248859,-1,-2,0,-3,0,-2,-1,0
1513173947249348,0,-1,-1,1,-1,0,-1,-2
1513173947249348,-2,-2,0,-1,-1,-2,-2,0
1513173947270863,0,-2,-2,-1,-1,-1,-1,-1
1513173947270863,0,-2,-1,0,-1,1,-1,-2
1513173947271864,-1,-1,-3,-2,-2,-3,-1,-3
1513173947271864,-1,-2,3,-1,0,0,2,0
1513173947285374,-1,-1,-4,-1,-3,-1,0,-2
1513173947285374,-2,0,0,-1,-1,2,-2,-2
1513173947293379,-2,-2,-1,-2,0,1,-2,-1
1513173947293379,-1,-1,-2,-1,-1,0,-1,-1
1513173947316921,-1,-2,-1,-1,-1,0,0,-1
1513173947316921,-2,-1,-1,0,-1,-1,-1,-3
1513173947317397,0,11,3,-1,-1,-1,-2,-1
1513173947317397,-1,-7,-3,-3,-1,-1,-2,-1
1513173947330906,-1,1,0,-1,0,0,0,0
1513173947330906,-1,0,-2,-2,-2,-1,-1,-2
1513173947331906,-1,-5,-5,0,-1,-1,0,-2
1513173947331906,0,-2,-1,-1,-1,-2,-2,0
1513173947345415,0,0,0,-1,0,0,0,1
1513173947345415,-1,-1,-1,-1,-1,-2,-1,-1
1513173947353429,-3,-3,-1,-2,-2,-2,0,-1
1513173947353429,0,1,-2,-1,-1,0,-1,0
1513173947368432,-1,-3,-4,0,0,-2,-1,0
1513173947368432,-3,-1,-1,-2,-1,-1,0,-2
1513173947369436,0,-3,-1,-1,2,0,-1,-1
1513173947369436,0,-2,-3,-2,0,-2,0,-2
1513173947390948,-1,2,0,1,0,-2,-2,-2
1513173947390948,-2,-2,0,0,-2,-1,1,-1
1513173947391949,-2,-2,2,-1,-1,-2,-2,-2
1513173947391949,-2,-1,-2,0,-2,0,-2,0
1513173947405482,-2,2,2,-2,-1,1,-1,-2
1513173947405482,-1,-1,-3,-3,-2,-3,-2,-2
1513173947413490,-2,-5,-3,-1,-2,0,-2,-1
1513173947413490,0,-1,0,0,0,-1,0,-2
1513173947428501,-1,-3,-2,-1,-1,-1,0,-1
1513173947428501,-1,-3,2,-1,0,-1,-2,-1
1513173947429499,-1,3,-2,-2,-2,-1,-2,-2
1513173947429499,1,0,-1,-1,-1,-3,0,-1
1513173947451032,-1,-2,-1,-1,-1,-1,-3,0
1513173947451032,-1,-2,0,0,0,0,0,-1
1513173947452020,-2,-1,0,0,-2,-2,-1,-2
1513173947452020,-2,0,0,-1,-3,0,-2,-1
1513173947481538,-1,-1,-2,0,-1,-2,-1,-2
1513173947481538,-3,0,-1,-2,-1,-1,-2,-2
1513173947482536,0,-2,0,0,-2,1,0,0
1513173947482536,0,3,-1,0,0,-1,-1,-1
1513173947488541,2,0,-5,-3,-4,-1,-1,-1
1513173947488541,-3,0,-1,-1,0,-2,-3,-1
1513173947489554,0,-2,-1,1,-1,0,0,-1
1513173947489554,-1,-2,0,0,0,-1,0,-2
1513173947512557,0,-2,-2,0,-2,-1,0,-1
1513173947512557,-1,-1,-2,-1,-1,-1,-1,-2
1513173947513564,-2,-4,3,1,1,-2,1,-1
1513173947513564,0,-1,-3,-1,-1,0,-1,-1
1513173947525567,0,-2,0,0,-2,0,-1,0
1513173947525567,0,-2,0,-1,-3,-2,-2,-1
1513173947533629,-3,0,-2,-3,-1,-3,-1,-1
1513173947533629,-2,-3,-1,-2,-1,-1,-1,1
1513173947548637,-2,-2,-1,-2,-2,-2,0,-1
1513173947548637,0,2,0,0,-2,-1,-1,-1
1513173947549116,-2,-1,-4,-2,-1,-1,-2,-2
1513173947549116,1,1,-2,-1,-2,-4,-2,0
1513173947571140,0,-1,-3,-3,-1,-1,-1,-2
1513173947571140,-1,0,-3,0,0,0,-2,-2
1513173947571642,-1,-1,-1,-1,-2,-2,-1,1
1513173947571642,-1,-2,-1,0,-2,-1,0,-1
1513173947585140,-1,-1,0,0,-1,1,-1,0
1513173947585140,0,-1,-1,-1,0,-2,0,-1
1513173947593667,-1,-1,-1,-1,0,0,-1,-1
1513173947593667,-1,-3,-2,0,-1,0,-1,-1
1513173947608670,-2,-1,-1,-1,-1,-2,-1,0
1513173947608670,-2,0,-2,-1,-2,0,1,-1
1513173947609161,0,0,-1,-2,0,-1,-2,-1
1513173947609161,-2,0,-1,-1,0,-1,1,-1
1513173947631182,-1,0,-2,0,0,1,-2,-1
1513173947631182,1,-1,-1,-2,-1,0,-1,-1
1513173947631674,-1,0,-1,-1,-1,0,0,-2
1513173947631674,0,-1,-1,-1,0,0,0,0
1513173947645196,-1,-2,-1,0,0,-1,-1,0
1513173947645196,0,-2,2,0,0,-3,-2,0
1513173947653702,0,0,-2,-2,-3,0,-1,-2
1513173947653702,-1,0,0,-2,0,-1,-1,-2
1513173947668704,-2,-1,0,-1,-1,0,1,-1
1513173947668704,0,0,-1,-1,-2,-1,-1,0
1513173947669200,-2,-2,3,1,-1,-1,-1,-1
1513173947669200,-1,-2,-2,-1,-1,-1,-2,1
1513173947690815,-1,1,-3,-1,-1,-1,-2,0
1513173947690815,-4,-1,-2,-2,-2,-2,-1,-2
1513173947691796,0,-2,-1,-1,-3,0,-1,-1
1513173947691796,0,-1,-1,-3,-2,1,-1,-3
1513173947705436,0,-1,-1,-1,-2,-3,-2,-1
1513173947705436,-2,-1,-1,-2,-1,0,-2,-1
1513173947713455,-1,1,-3,0,0,-2,-2,-1
1513173947713455,-1,0,0,-1,-1,-1,-1,-2
1513173947728446,0,0,-1,-1,0,-2,-2,-2
1513173947728446,0,-1,-1,-1,-1,-1,-1,-2
1513173947729459,-2,-1,0,-2,-1,-2,0,-1
1513173947729459,-2,-4,0,-1,1,-3,-2,1
1513173947750969,-2,-2,0,-2,-1,2,-2,-2
1513173947750969,-1,-5,3,1,0,-1,0,-1
1513173947751974,-1,-1,-1,-1,-2,0,0,-3
1513173947751974,1,-1,-5,-2,-1,-2,-3,-1
1513173947765472,0,-1,-1,0,-1,-1,-1,0
1513173947765472,-2,0,-1,-1,-1,-1,-2,-2
1513173947773478,-1,0,0,-1,-2,-2,-2,-3
1513173947773478,-3,-1,-1,1,-1,1,-1,-1
1513173947789001,-1,-2,-2,-1,0,-1,-1,-1
1513173947789001,-3,0,0,-3,-3,-1,-2,-2
1513173947789987,-2,-2,-1,-2,-1,-2,0,-1
1513173947789987,0,-3,-1,-1,-1,1,0,0
1513173947811002,-1,-1,-2,-2,-1,-2,-1,0
1513173947811002,0,1,-3,-1,-2,0,-1,-1
1513173947812020,0,-1,-2,-2,-1,-1,-1,0
1513173947812020,-1,0,0,0,-1,-1,-1,-1
1513173947834519,-1,0,-1,0,-2,-1,0,-1
1513173947834519,0,0,-1,-3,-2,-1,-1,-1
1513173947835020,0,0,-2,-1,0,0,0,-1
1513173947835020,0,-3,1,0,0,-3,0,-2
1513173947848545,-1,-1,-2,-1,-1,-1,-1,-2
1513173947848545,0,-1,-2,0,-1,0,0,-2
1513173947849552,-1,-1,0,-1,2,0,1,0
1513173947849552,-1,0,-1,0,-1,-2,-2,0
1513173947871058,-3,0,0,-1,0,-1,0,-2
1513173947871058,-1,-3,-2,-2,1,-1,0,-2
1513173947872060,-2,0,-2,0,0,-3,-1,-1
1513173947872060,-1,-1,1,-1,-2,-2,0,1
1513173947894564,0,-2,-1,0,-2,-1,-2,-1
1513173947894564,-2,-1,-3,-2,-3,-2,0,-1
1513173947895062,-1,-1,0,-2,0,-2,-1,-1
1513173947895062,1,1,-1,-2,-1,-1,0,0
1513173947908591,-1,-2,-2,-1,-1,0,-1,0
1513173947908591,-2,-4,3,0,-1,0,0,1
1513173947909571,-1,0,-2,0,-3,-1,-2,0
1513173947909571,-1,-2,-3,-3,0,2,-1,-2
1513173947931089,-1,-1,-2,0,-1,0,0,-1
1513173947931089,-2,0,-1,-2,0,-1,-3,-1
1513173947932088,1,-2,-1,0,-2,-2,-1,1
1513173947932088,-1,0,-2,0,-1,-1,-3,-2
1513173947954117,1,-2,-2,-2,-1,-1,-1,-2
1513173947954117,-2,1,-3,0,-2,-1,1,-1
1513173947955118,-1,-2,0,-2,0,0,-1,-2
1513173947955118,-1,-1,-2,-1,-1,-1,0,-1
1513173947968613,0,-1,-1,-2,-1,-2,-1,-1
1513173947968613,-1,0,-2,-2,0,-3,-2,-2
1513173947969617,-1,1,0,-1,-1,1,1,-1
1513173947969617,0,-2,-1,0,-1,0,0,1
1513173947991630,-2,0,-1,-2,0,-1,0,0
1513173947991630,0,1,0,-3,-2,-1,0,1
1513173947992631,-1,-2,0,-1,-2,0,-1,-1
1513173947992631,-1,-1,-1,0,-1,-3,-2,-2
1513173948014646,-2,-1,-2,-2,0,-2,-1,-1
1513173948014646,0,-1,-3,-2,-2,-2,0,-3
1513173948015647,-1,0,0,-2,-1,-1,-2,-2
1513173948015647,0,-2,-1,-1,-3,0,-1,-1
1513173948028669,-1,-1,-2,-1,1,-2,-1,-2
1513173948028669,0,0,0,0,-1,-2,-1,-1
1513173948029156,-1,-3,-2,0,0,-2,1,-2
1513173948029156,0,0,-2,1,-2,-1,-1,0
1513173948051697,-1,0,0,2,-1,-2,0,1
1513173948051697,-1,0,-1,-3,-1,0,-1,-2
1513173948052173,-2,-2,-1,-1,-1,-3,-1,0
1513173948052173,0,-2,-3,0,-1,-2,0,-1
1513173948074698,0,-1,1,-2,-2,-1,0,0
1513173948074698,-1,-1,-2,0,-1,0,0,-2
1513173948075689,-1,-1,-1,-2,-3,0,-2,-3
1513173948075689,-2,-2,0,-2,0,-1,-1,-1
1513173948088754,0,-2,-2,-1,0,0,-2,0
1513173948088754,-1,-1,0,-3,-2,-1,-1,0
1513173948089255,-1,-1,-1,-2,-1,-2,-1,0
1513173948089255,-2,-2,-1,-3,-1,-1,-1,0
1513173948111771,-1,-1,0,-2,-2,0,-1,-1
1513173948111771,-1,-2,0,-2,-1,-2,-2,-2
1513173948112273,0,-1,-1,0,-3,0,-2,0
1513173948112273,-2,-2,0,-1,-1,-1,0,-3
1513173948141792,-1,1,0,-2,-4,0,-1,0
1513173948141792,-3,-2,1,0,0,-1,-1,-2
1513173948142293,-1,0,0,-1,1,1,-1,-2
1513173948142293,1,0,-1,-1,0,-1,-1,0
1513173948148797,-1,-2,-3,-2,-2,-1,-2,-1
1513173948148797,0,1,-2,0,-2,1,0,-1
1513173948149312,-2,-1,-1,0,-3,-2,-1,1
1513173948149312,-2,-1,0,-3,0,0,-1,1
1513173948171315,1,-1,0,-2,-1,-2,-1,0
1513173948171315,-2,1,-2,0,-3,-1,-3,-2
1513173948171821,-1,-3,-1,-2,-1,0,-1,-1
1513173948171821,0,-1,-3,-2,-1,-1,-1,0
1513173948194333,-2,0,-3,-1,-1,-1,-2,-2
1513173948194333,0,-2,-1,-1,-1,-2,-2,-2
1513173948195849,-1,-2,-2,-1,0,-1,0,0
1513173948195849,0,-1,-1,0,0,-1,1,0
1513173948208858,0,-3,-1,0,0,-1,-1,-1
1513173948208858,-2,-1,-3,-1,-2,-3,-4,-1
1513173948209342,0,1,-2,-2,-1,-1,0,0
1513173948209342,-1,-1,0,0,-2,0,-3,-1
1513173948230858,0,-1,-2,0,-1,-1,0,-1
1513173948230858,-1,-2,0,-1,-1,0,-2,0
1513173948231855,-2,-2,-2,-1,0,-1,-1,-1
1513173948231855,0,-1,-2,-1,-1,-1,-1,-1
1513173948254371,-1,0,-2,0,-1,0,-1,-1
1513173948254371,0,-2,-1,-2,0,-1,-1,-1
1513173948255372,-1,-1,0,-2,-1,-1,-2,-1
1513173948255372,0,1,-1,-2,-2,-1,-2,-1
1513173948268413,-2,-1,-1,1,0,-2,-1,-2
1513173948268413,-1,0,-1,-1,0,-1,-2,0
1513173948269394,0,-1,1,1,-1,-1,-3,-2
1513173948269394,-1,0,-2,-2,-1,0,-1,-1
1513173948290926,0,-1,-1,-5,-2,-1,-2,0
1513173948290926,-2,0,-3,-2,-1,1,0,-1
1513173948292927,-2,-3,-1,-1,-1,-1,-1,-1
1513173948292927,0,-3,-2,0,-1,-1,0,0
1513173948314468,0,0,-1,0,-1,-1,-1,-1
1513173948314468,-1,-2,0,0,0,-2,0,0
1513173948314944,0,-1,-2,-2,-1,-2,-1,-1
1513173948314944,-2,-1,-1,-1,0,-2,0,0
1513173948328477,-1,-2,0,0,0,-1,-1,-1
1513173948328477,-2,-1,0,-1,-2,-2,0,0
1513173948329454,-2,0,1,-2,0,0,0,0
1513173948329454,-2,-2,-3,-1,-1,-2,-2,-2
1513173948350987,-1,-2,-2,-1,0,-2,1,-1
1513173948350987,1,1,0,-1,0,-1,-1,-3
1513173948351969,-1,-1,-2,0,-2,-2,-1,-1
1513173948351969,-3,-2,-1,-2,-1,1,-2,0
1513173948373998,-1,-3,-2,-1,-2,-1,-2,-1
1513173948373998,-1,0,-2,-1,-2,0,1,-1
1513173948374985,-3,-2,-3,-1,-2,0,0,-2
1513173948374985,0,-1,0,0,-1,-2,0,-2
1513173948388498,-2,0,-1,-2,0,-1,0,-1
1513173948388498,-1,-2,-2,-1,-3,-2,-2,-2
1513173948389496,-1,0,-1,-1,-2,-2,-1,-1
1513173948389496,1,-2,-1,0,-2,0,-1,0
1513173948411013,0,0,-2,-2,-3,0,-1,0
1513173948411013,0,0,-2,-2,0,-1,0,-3
1513173948412015,0,0,-1,-1,0,-1,-2,-2
1513173948412015,-1,1,0,-1,-1,-3,-1,-1
1513173948434030,-1,-1,0,-2,-1,-2,-1,-2
1513173948434030,0,0,-2,-2,-1,-1,-1,-1
1513173948435027,0,-1,-2,-1,-2,-1,-1,-1
1513173948435027,0,-1,-1,-1,-1,-1,0,-2
1513173948448056,-2,0,-2,-1,-2,-2,0,-1
1513173948448056,-2,-2,1,-1,0,-2,-1,-1
1513173948456052,0,-1,-1,-1,0,-1,0,0
1513173948456052,-1,-2,-2,-2,0,-2,-1,0
1513173948471065,-1,0,-2,0,0,1,-2,0
1513173948471065,-1,1,-3,-1,-4,-2,-1,-2
1513173948472066,0,-1,0,-2,-1,-1,0,-2
1513173948472066,-1,0,-3,-2,0,-1,-1,0
1513173948494079,-1,-2,-3,-2,-1,-1,0,0
1513173948494079,-2,-1,-3,-1,0,0,-1,-2
1513173948495080,-1,-2,0,-1,-2,-2,-2,0
1513173948495080,1,-2,-2,-1,-2,0,0,-1
1513173948508082,0,-1,-2,-2,-1,-2,-1,-1
1513173948508082,-3,-2,3,-1,0,-1,-1,-1
1513173948516086,-2,0,0,0,-1,1,-2,-1
1513173948516086,-1,-1,-1,-1,-2,-2,-1,0
1513173948531639,-1,-1,-1,-1,-2,-1,-3,-1
1513173948531639,-1,-2,-1,-2,-1,-1,-1,-1
1513173948532610,-1,1,-2,0,-2,0,-2,-2
1513173948532610,1,-2,-1,0,-2,0,-2,0
1513173948554124,-1,-1,-1,-1,-1,-2,0,0
1513173948554124,-1,-1,0,-1,-4,-2,1,-3
1513173948555113,0,-2,-2,0,-2,-2,-1,0
1513173948555113,-1,0,0,0,-3,-1,-1,-2
1513173948567633,-1,-1,-1,-1,-1,-2,-1,0
1513173948567633,-1,-1,-1,1,-1,0,-2,-1
1513173948576127,-1,-1,-1,-2,-1,-2,1,-1
1513173948576127,-1,0,0,0,0,-1,-1,-1
1513173948591138,-2,1,1,0,-1,0,-2,-3
1513173948591138,-1,-1,-1,-1,-2,-1,-1,-1
1513173948592639,-1,-2,-1,-1,-1,-1,0,-1
1513173948592639,-2,-1,-2,-2,0,-2,-1,0
1513173948614168,-1,-1,-1,-2,-3,-1,-1,-1
1513173948614168,-3,-1,-2,-1,-1,0,-2,1
1513173948615164,-1,-1,1,-1,-1,0,-3,-1
1513173948615164,-1,-1,-2,-1,-2,-1,-1,-1
1513173948627667,-1,-1,-2,-2,-2,-3,0,0
1513173948627667,0,-2,0,-1,-1,0,-2,-2
1513173948636193,0,0,-1,-1,-1,0,0,0
1513173948636193,0,1,-2,0,0,0,-1,0
1513173948651190,-2,-1,-1,1,-2,-1,-1,0
1513173948651190,-1,-1,-2,-1,-1,-2,-1,-1
1513173948651681,-1,-1,-1,-1,-1,0,1,-1
1513173948651681,-1,-1,0,-1,-1,-1,-2,-1
1513173948681713,-1,-1,0,-2,0,0,-2,0
1513173948681713,-2,0,0,0,-1,-1,-1,-2
1513173948682703,-1,-1,0,0,-3,-1,-1,0
1513173948682703,-2,-1,-1,-3,0,0,-1,-2
1513173948687707,1,-1,-1,0,-1,-2,-3,0
1513173948687707,-1,1,-1,-2,0,-2,-2,0
1513173948696231,-1,-3,-3,0,-2,-1,-1,-3
1513173948696231,-1,0,-2,0,0,-1,1,-1
1513173948711234,-3,-1,-2,-1,-1,0,0,-1
1513173948711234,0,-1,0,-1,-1,0,-1,-1
1513173948711723,0,-1,0,-1,1,-2,-1,-3
1513173948711723,-2,0,-1,0,0,-3,-1,-2
1513173948734242,-3,-1,-1,-1,-1,0,-2,-3
1513173948734242,-3,-2,-2,-1,-1,-1,1,0
1513173948734739,-2,-2,-1,-4,-1,-2,-1,0
1513173948734739,-1,-2,-2,-3,-2,1,0,0
1513173948756769,1,-1,-2,-2,-1,1,-1,-2
1513173948756769,-1,0,-2,-1,-2,-2,-1,-3
1513173948757757,1,0,-2,-2,-1,0,-2,1
1513173948757757,-2,0,0,0,-1,-1,0,1
1513173948771267,0,0,0,0,0,0,-1,-1
1513173948771267,-1,-1,-1,-2,-1,-2,-2,-1
1513173948771767,0,-3,-1,-1,0,-2,0,-1
1513173948771767,-2,-2,-2,-1,-1,-2,-1,0
1513173948794283,0,0,-1,-2,-1,-1,-1,0
1513173948794283,-1,-1,-1,-1,0,-1,0,-1
1513173948794782,-2,0,-2,0,-1,1,0,0
1513173948794782,-1,-4,-2,-2,-1,-1,-1,-1
1513173948816808,-2,-3,-1,-2,-2,0,-2,-1
1513173948816808,-3,-2,-2,-1,-1,0,-1,-2
1513173948817298,-1,0,-3,-2,-1,-1,0,-2
1513173948817298,0,-2,-3,0,-1,-1,-1,-2
1513173948830829,-1,-2,-2,0,-3,-1,0,-2
1513173948830829,0,-1,-1,0,-2,-1,-2,-1
1513173948831810,-3,-1,-2,-1,0,-1,-1,1
1513173948831810,0,2,-3,-2,-2,0,-2,-1
1513173948854834,0,-2,-1,-3,-1,-3,0,-1
1513173948854834,-1,0,1,-1,-1,-1,-1,-1
1513173948855335,-1,-1,-1,-1,-1,-1,-1,-2
1513173948855335,1,-1,-1,1,-1,-1,-1,0
1513173948876843,-2,-2,-1,0,0,0,1,-3
1513173948876843,-1,-1,-1,-1,0,0,-3,-1
1513173948877340,-2,0,-1,-2,-1,0,-1,-2
1513173948877340,-1,-2,0,-1,0,-2,0,1
1513173948890850,-1,0,0,-2,0,0,-3,0
1513173948890850,0,-1,0,-2,1,-3,-1,-1
1513173948892851,0,-3,-1,-1,-2,-2,-1,1
1513173948892851,0,0,-2,-2,1,-2,0,0
1513173948914373,-1,-1,-1,-1,-3,-1,-1,0
1513173948914373,-2,-1,0,0,-3,0,0,-1
1513173948914873,-2,-3,1,-1,-1,-1,-1,-2
1513173948914873,-2,0,0,0,-1,1,-1,-2
1513173948944413,-2,-2,-2,-2,-1,-3,0,-1
1513173948944413,-1,0,-1,-3,-2,-2,-2,-2
1513173948944892,-1,-1,-1,-2,-2,-1,-3,-2
1513173948944892,0,-2,-1,0,0,1,-1,0
1513173948950918,-2,-1,-2,-1,-1,1,0,-2
1513173948950918,-1,-2,-2,-2,-1,-1,1,-1
1513173948951894,0,-2,-2,0,-2,-1,-1,-1
1513173948951894,-1,1,-3,-2,-1,-2,-1,-1
1513173948974411,-1,-1,-1,0,0,0,0,-1
1513173948974411,-1,1,-2,0,-1,-1,0,0
1513173948975410,0,-2,0,0,0,0,-2,0
1513173948975410,-1,-1,-2,-1,-2,-3,-1,0
1513173948997436,1,-1,-2,0,-1,-1,0,-1
1513173948997436,-1,0,-2,-1,0,0,-1,-1
1513173948997927,0,0,2,-1,-1,-1,0,0
1513173948997927,-2,-1,1,-1,0,1,-2,-1
1513173949010945,1,0,-2,0,0,-2,-3,-2
1513173949010945,-1,-1,2,-3,-1,-2,0,-1
1513173949011947,1,0,-2,-3,-1,-1,-1,0
1513173949011947,-1,-1,-3,-1,-2,-1,-1,-2
1513173949034461,-4,-2,-2,-1,-1,0,-1,-1
1513173949034461,-1,-1,-2,0,-2,-2,-1,-2
1513173949034961,-3,-2,-3,0,2,-1,0,-1
1513173949034961,0,-3,-1,-2,-2,-1,2,-1
1513173949056477,0,-1,-2,-2,-2,-1,-1,0
1513173949056477,-1,-1,0,-1,-2,-1,0,0
1513173949057477,-1,0,-2,-1,-3,-1,-2,-1
1513173949057477,-2,-2,1,0,-1,-1,0,0
1513173949071477,-1,0,0,-1,-3,-1,0,0
1513173949071477,-2,0,-1,-1,-1,-2,-2,0
1513173949071977,-1,0,-1,-2,-2,-1,0,-2
1513173949071977,0,-1,-4,-2,-3,-1,-2,-1
1513173949101517,-1,-1,-3,0,0,0,-1,-1
1513173949101517,-2,-2,-2,-1,0,0,-2,-1
1513173949102518,-2,-2,1,-1,-1,0,0,-1
1513173949102518,0,-1,-1,-1,1,-1,-2,-1
1513173949116538,-1,-1,0,-3,-3,-2,0,-3
1513173949116538,-2,-2,-2,-1,-3,-1,-2,-2
1513173949117520,-1,-3,-1,0,-1,1,-1,0
1513173949117520,-2,-2,-1,-2,-1,0,-1,0
1513173949131523,-1,0,0,-2,-2,-1,-1,0
1513173949131523,-1,-1,-1,-1,-1,-1,-1,-1
1513173949132020,0,-2,0,-3,-1,-2,-1,1
1513173949132020,1,0,-1,1,-3,-1,-1,0
1513173949154069,-1,-1,-1,0,-2,-1,0,-1
1513173949154069,-1,-2,-2,-3,-1,-1,-1,-1
1513173949155069,1,2,0,3,0,-2,-1,-1
1513173949155069,0,-1,-1,-1,-1,0,-2,-2
1513173949177097,-1,-1,-1,-1,0,0,-2,-1
1513173949177097,-1,-1,-1,-1,-1,-2,-1,-1
1513173949177588,-1,0,-1,-2,-3,-1,-1,-1
1513173949177588,-1,0,-1,-1,0,-2,0,-1
1513173949191106,-3,0,-2,0,-2,-2,-1,0
1513173949191106,-2,0,-2,-2,0,1,0,-1
1513173949192098,-1,-2,-3,0,0,1,-1,-1
1513173949192098,-1,0,-1,-1,-2,0,-2,0
1513173949214123,0,-3,-2,-2,1,-1,-1,-1
1513173949214123,-1,1,-2,-1,-2,0,-3,-1
1513173949215116,-2,-2,-1,-2,-1,-3,0,-1
1513173949215116,-1,0,-1,0,-1,0,0,0
1513173949236626,-2,0,-1,0,-1,-2,-1,0
1513173949236626,0,-1,-1,1,-1,-1,0,1
1513173949237642,0,0,0,-1,0,0,-1,-1
1513173949237642,0,-3,-1,0,-2,-1,0,0
1513173949259245,0,0,1,0,-1,-1,0,-3
1513173949259245,-2,-2,1,-1,-1,-1,-2,-3
1513173949260747,-1,-1,-1,0,-1,-3,-1,-2
1513173949260747,-1,-2,-1,-2,1,-2,-2,0
1513173949274247,-3,-1,-2,-1,1,-1,-2,-3
1513173949274247,1,0,-2,-2,0,0,0,0
1513173949274746,0,0,0,-1,-2,-1,-2,1
1513173949274746,-1,-2,-2,0,0,-2,-2,-1
1513173949297280,0,-2,-2,-1,-1,0,-2,0
1513173949297280,-2,-1,0,-1,-1,-2,-1,-3
1513173949297761,0,-1,-1,-1,-2,-1,-1,0
1513173949297761,-1,-1,-1,-1,-2,-1,1,1
1513173949310270,-3,0,-1,0,-1,-1,0,-1
1513173949310270,1,-1,-1,-1,-1,-1,-2,-1
1513173949320279,0,-3,-1,-2,-2,-1,-1,0
1513173949320279,0,-2,-1,-1,-1,-2,0,-1
1513173949334301,-1,-2,-2,-2,-1,-2,-1,-1
1513173949334301,-1,0,-3,0,-1,0,1,-2
1513173949335800,0,-2,-1,-2,-1,1,0,-2
1513173949335800,-1,-1,-2,-2,-1,0,0,0
1513173949356829,-1,-1,0,-3,-1,-2,-2,-2
1513173949356829,-2,-1,-1,0,-2,-3,-1,-1
1513173949358307,-2,-1,-1,1,-1,0,-1,-1
1513173949358307,-1,-1,-2,0,-1,0,-1,-2
1513173949370816,-1,-1,-2,0,-1,0,1,-1
1513173949370816,-1,-1,0,-1,0,-2,-1,-2
1513173949379322,0,0,-3,-2,-1,-3,-2,0
1513173949379322,-2,-1,-1,1,-1,-1,-1,-2
1513173949394359,-2,-1,-2,-1,-2,0,-1,1
1513173949394359,-1,0,-1,-1,-1,-2,0,-3
1513173949395838,0,-1,-1,-1,-1,0,-1,0
1513173949395838,-1,-1,-2,1,-2,-2,0,-1
1513173949416847,1,-2,-1,-2,-3,-1,0,-1
1513173949416847,0,-2,-2,-3,0,1,-1,1
1513173949418348,-3,-1,-1,-2,0,0,-1,-1
1513173949418348,-1,-3,0,-2,0,-1,-2,-1
1513173949430384,-1,-1,-1,-1,-2,-2,-1,-3
1513173949430384,-1,1,0,0,-2,-1,-1,-1
1513173949439363,-1,-1,-1,-2,-2,-2,0,-1
1513173949439363,0,-1,-3,-2,0,-2,1,-1
1513173949454880,-1,0,-1,-1,0,-2,-2,-2
1513173949454880,-3,-1,1,1,-2,-1,-3,0
1513173949456375,0,-1,-1,-1,0,0,0,-1
1513173949456375,-2,-2,-1,0,-3,0,-2,0
1513173949476390,-1,-2,0,0,-1,0,-1,-1
1513173949476390,-2,-2,0,-2,-2,1,1,-2
1513173949478392,-1,0,0,0,1,0,0,-1
1513173949478392,0,-2,1,0,0,-2,0,-1
1513173949490399,-1,-2,-2,-2,0,1,-1,-1
1513173949490399,-1,-1,-1,0,-2,1,-1,-1
1513173949499907,-1,-2,-2,-1,-1,-1,0,-1
1513173949499907,-1,-1,-3,-1,0,0,-2,-1
1513173949514418,1,1,-2,-2,-2,0,0,-1
1513173949514418,-3,-2,1,-1,-1,-1,-1,-2
1513173949516424,0,0,-2,0,-1,-1,-2,-1
1513173949516424,-1,1,-1,-2,-2,-2,-2,-1
1513173949536933,-1,-1,-2,-1,0,-2,-1,0
1513173949536933,-1,0,-3,-1,0,-2,1,-2
1513173949538435,-1,0,-3,0,-2,0,0,-1
1513173949538435,-2,-1,-2,-1,-4,-3,-2,-1
1513173949550466,-3,-2,-2,1,0,-2,-2,-1
1513173949550466,-1,-2,-1,-1,0,-2,-1,0
1513173949559447,-2,0,-2,-1,-3,-2,0,0
1513173949559447,0,-2,-1,-2,1,-1,-1,-1
1513173949572963,-2,-1,-1,-1,-1,-2,-2,-2
1513173949572963,-2,0,0,-1,-1,0,-1,-1
1513173949581965,0,-2,-1,-1,-2,-3,1,0
1513173949581965,-1,0,-2,-2,-2,0,-1,1
1513173949596996,-2,1,-1,0,-3,-1,-1,-1
1513173949596996,0,0,-1,-1,-1,-1,-2,-2
1513173949598480,-5,-3,-2,0,-2,0,-2,0
1513173949598480,0,-1,0,0,0,0,0,-1
1513173949610504,1,-1,-2,-2,-1,-1,0,0
1513173949610504,-1,-2,-3,-2,-1,-2,-3,-1
1513173949619494,0,-2,1,0,0,0,-2,-1
1513173949619494,-1,-3,-2,-1,-1,0,-2,-1
1513173949634513,-1,-1,-2,-1,-1,-1,-2,1
1513173949634513,-2,-1,-1,-1,-1,-3,-1,-2
1513173949636006,1,1,-2,-2,-1,-1,0,-1
1513173949636006,0,-1,-2,0,0,-1,0,-1
1513173949656526,-3,0,0,-1,-1,-2,0,-3
1513173949656526,-1,-1,0,0,-1,1,-2,-1
1513173949658018,-1,0,-1,-1,-1,-1,0,0
1513173949658018,1,0,-2,-1,-2,-2,0,-1
1513173949670527,0,2,-1,-2,-2,0,0,-1
1513173949670527,-1,0,-1,1,-1,-1,-1,0
1513173949679548,-2,-2,-1,-1,0,-2,-3,-2
1513173949679548,-1,-2,-2,-3,-1,-1,-1,0
1513173949694554,-1,-1,-1,-3,0,-3,-1,-1
1513173949694554,0,-3,-2,1,-2,-1,0,0
1513173949700102,-2,-2,-3,1,-1,-1,0,0
1513173949700102,-1,-1,-1,-1,-1,0,-2,-2
1513173949716628,-2,-2,-2,-1,-2,-1,-3,-2
1513173949716628,-1,-1,-2,-1,-1,-1,1,0
1513173949718104,-2,0,-2,-3,-2,-3,-2,-1
1513173949718104,1,0,-2,-1,-2,-1,-2,1
1513173949739119,-2,-1,0,-2,-1,0,-1,0
1513173949739119,0,0,0,-3,-1,-1,-1,0
1513173949740621,-1,0,-1,1,-1,0,0,-2
1513173949740621,-3,-2,0,-1,-1,0,0,-2
1513173949753631,-1,-1,1,0,-1,-1,-1,-2
1513173949753631,-2,-2,0,0,-3,-2,-1,-1
1513173949760635,0,-3,1,-1,0,1,-1,-1
1513173949760635,-2,-2,-2,-2,-2,-1,-2,-2
1513173949776658,-1,-2,-2,1,-1,-2,-2,-2
1513173949776658,-3,-1,0,-2,-1,0,0,-2
1513173949778148,1,-1,-2,-1,0,-1,-2,-1
1513173949778148,0,-1,-1,-1,-1,-1,-1,0
1513173949799197,-3,-2,-1,-1,0,0,-1,-2
1513173949799197,1,1,-3,0,-1,-2,-1,-1
1513173949800698,0,0,-3,-2,-1,0,-1,0
1513173949800698,-1,-2,-2,0,1,-2,1,-2
1513173949814209,1,-1,1,-1,0,0,-1,-2
1513173949814209,-1,-2,0,-1,-1,-2,-2,-1
1513173949815707,0,-3,-1,-1,-1,-3,-1,-2
1513173949815707,-1,-3,-3,-1,-1,-1,-1,-1
1513173949836725,1,0,0,-2,-2,-1,-2,-3
1513173949836725,-1,-1,0,0,-1,0,-1,-2
1513173949838225,-2,-1,-1,0,-1,-2,-2,1
1513173949838225,-2,-3,-2,-2,-1,-2,-2,0
1513173949859251,0,-2,0,-1,-1,-1,-2,-1
1513173949859251,-1,-2,-2,-1,-1,0,0,-1
1513173949860749,-1,-2,-2,1,-1,-1,-1,0
1513173949860749,0,0,-2,0,-2,-3,-1,0
1513173949874249,-1,3,-2,-1,0,-2,-3,-2
1513173949874249,-2,0,0,-1,-1,1,-2,-1
1513173949875750,-1,-2,-1,-1,-2,1,-2,1
1513173949875750,0,0,-1,0,0,0,0,0
1513173949896764,-1,-2,-3,-1,-2,0,0,0
1513173949896764,-1,-1,0,0,0,0,-1,-1
1513173949898274,-1,1,-2,1,-1,-2,0,-2
1513173949898274,-1,0,-1,-1,0,0,-1,-2
1513173949919280,-1,-1,0,-1,-2,-1,0,-1
1513173949919280,0,-1,-2,-1,-1,-2,-1,-3
1513173949920782,-2,-2,0,0,-1,-1,-1,-1
1513173949920782,-1,-1,-2,-1,-1,0,-1,1
1513173949933791,-2,-3,0,-2,-2,-1,0,0
1513173949933791,-1,-1,0,-1,-2,0,0,-2
1513173949940296,0,-2,0,-4,-2,-1,-1,-1
1513173949940296,-2,1,-2,0,-1,-1,-1,-1
1513173949956816,-3,-1,0,0,-2,-1,-1,-1
1513173949956816,0,0,-1,-2,-1,-3,-2,-2
1513173949958318,0,1,-2,-1,-1,-1,0,-1
1513173949958318,-1,-1,-1,-2,-1,-1,-1,-2
1513173949979323,-1,0,0,-1,-2,-1,-1,0
1513173949979323,-1,0,-1,-3,-1,-2,-2,0
1513173949980824,0,-1,0,0,-2,-1,-3,0
1513173949980824,-2,-2,-2,-1,-1,-2,-1,0
1513173949993833,-2,-2,-2,1,-1,0,-1,-1
1513173949993833,-2,-3,0,0,0,-2,-1,0
1513173950000339,-1,-3,-1,-1,0,-2,-1,0
1513173950000339,0,0,-2,-2,-1,-2,0,-1
1513173950023855,-2,-2,-1,0,-1,-2,-1,-1
1513173950023855,-2,-2,-2,-3,-1,-2,-1,-1
1513173950025855,0,0,-2,0,-2,-1,-3,-1
1513173950025855,-1,-2,0,-1,0,-1,-2,-2
1513173950039367,0,-1,-4,0,0,0,0,-1
1513173950039367,-2,-1,-1,0,-1,-1,-1,-2
1513173950040866,-2,-2,-1,-1,-2,1,0,0
1513173950040866,-1,-1,-1,0,-1,0,-1,-3
1513173950053900,-3,0,-1,0,-1,-1,-2,-2
1513173950053900,-1,-1,-1,0,-2,-2,0,-1
1513173950067890,-2,-1,0,-2,-1,-1,-1,0
1513173950067890,0,-1,-1,-2,-1,-1,-1,0
1513173950076902,-1,-2,-3,-2,-1,-2,-2,-1
1513173950076902,0,-2,-1,0,-1,0,1,-1
1513173950078409,0,-1,0,-2,-1,-2,0,-1
1513173950078409,0,-1,-1,0,0,-1,0,-1
1513173950098909,-2,1,-1,-2,-1,-2,-3,0
1513173950098909,-1,-1,-1,-2,-1,-1,-2,-1
1513173950100909,-1,-2,-3,-1,-1,0,-2,-1
1513173950100909,-1,-3,-1,-1,-1,0,-1,-2
1513173950113487,0,0,-1,-2,-1,1,-2,0
1513173950113487,-1,0,-2,-1,-2,0,0,-1
1513173950120475,0,0,-2,-1,1,1,1,0
1513173950120475,0,-1,-3,0,-2,-2,-1,-1
1513173950136482,0,-1,0,-1,-1,-1,0,-2
1513173950136482,-2,-1,1,-1,0,0,0,1
1513173950138483,-2,-1,-1,-2,1,-2,-1,-1
1513173950138483,-1,2,-1,-2,-1,-1,-2,0
1513173950159510,0,-1,0,-1,-1,1,-1,-1
1513173950159510,0,0,-2,0,-1,-1,-2,-2
1513173950161011,-1,-2,0,0,-2,-1,0,0
1513173950161011,-1,-2,-1,-1,-2,-1,-1,0
1513173950173520,-1,-1,-1,-2,-2,-2,-1,-2
1513173950173520,-1,-2,-1,-1,-2,-2,-1,-2
1513173950180015,0,-1,-1,-1,-1,-1,-1,0
1513173950180015,0,-1,0,-2,-1,0,-3,-1
1513173950196524,-1,0,0,-1,-1,-2,0,0
1513173950196524,0,-3,-2,-2,-1,0,-1,-1
1513173950198525,-1,-1,-2,0,1,-1,-1,1
1513173950198525,-1,-1,0,0,-2,-1,-1,-1
1513173950219042,-1,-3,-1,-1,-1,0,-1,-2
1513173950219042,-1,1,0,-1,-1,-2,-2,-2
1513173950220544,-1,-1,-2,0,-2,0,-2,-2
1513173950220544,-2,-2,-1,-1,-1,0,-1,-1
1513173950233074,-2,0,-1,-1,0,-2,0,-2
1513173950233074,-1,-2,0,-1,-2,0,-1,0
1513173950242059,-1,-3,-2,0,0,-1,-1,1
1513173950242059,0,-1,-1,0,-2,1,1,-1
1513173950256577,-1,-3,-2,-2,0,-4,-2,-2
1513173950256577,-1,-1,0,-1,-2,-1,-3,-1
1513173950258578,0,1,-2,-3,-1,-1,-1,0
1513173950258578,-1,-2,0,-1,-1,-1,-1,-1
1513173950279108,0,0,0,0,-2,-1,0,-1
1513173950279108,2,-1,-1,-1,0,-1,0,-1
1513173950280583,-1,-1,0,-1,-1,-1,0,-3
1513173950280583,-2,-2,-2,-1,-1,0,-1,0
1513173950293109,-2,-2,-1,0,-2,-1,-2,-1
1513173950293109,-1,0,-2,-1,-1,-3,0,-2
1513173950301599,0,-1,0,1,-1,0,0,-1
1513173950301599,-2,1,0,-1,-1,-1,0,-2
1513173950316611,-1,0,2,-1,-2,-2,0,0
1513173950316611,-2,-1,-1,0,-2,-2,-2,-1
1513173950318610,-1,0,-3,-2,-1,-1,-1,-1
1513173950318610,0,-2,-2,-2,0,-1,-1,-1
1513173950339127,-2,1,-1,-1,-1,0,1,-1
1513173950339127,0,-1,-1,-1,-1,-2,-2,-1
1513173950340627,-1,-2,0,0,0,-1,0,-1
1513173950340627,-2,-3,-1,0,0,-1,-1,-1
1513173950353164,0,-1,-1,-2,-1,1,-1,-2
1513173950353164,-1,0,-3,-1,-2,-2,-4,1
1513173950362141,-1,-3,0,-1,0,-1,-1,-2
1513173950362141,-1,0,-1,-1,-1,-1,-2,-1
1513173950376651,-1,-2,0,-2,1,-2,0,-2
1513173950376651,-2,-3,1,-2,0,-1,0,-1
1513173950378152,1,0,-3,-2,-2,0,0,0
1513173950378152,0,0,0,-1,-1,-2,-2,-1
1513173950399186,-1,-2,0,-3,-2,-1,-1,-1
1513173950399186,-2,-2,-1,-1,-2,1,1,-1
1513173950400668,-1,-1,-1,-1,-2,-1,0,-1
1513173950400668,0,-1,-2,-2,-1,-2,-1,0
1513173950421685,-2,1,-1,1,0,-1,0,-1
1513173950421685,0,-1,-1,-1,0,-2,1,-2
1513173950423198,-2,1,-1,-1,-2,-1,0,1
1513173950423198,-1,-1,-1,-1,-2,-1,-1,-2
1513173950436694,-1,-2,-2,-3,-3,0,-3,-1
1513173950436694,-2,-3,-1,-2,-1,0,-1,1
1513173950438195,-2,-3,-2,0,0,-1,-1,-1
1513173950438195,-1,0,-2,-1,-1,-1,-1,-2
1513173950459220,0,0,-1,0,0,-1,-1,1
1513173950459220,-2,-2,-1,-1,-1,-1,-1,-2
1513173950460720,-1,-4,0,0,0,-1,-2,1
1513173950460720,-3,-1,0,0,-1,-1,-1,-2
1513173950472719,-2,0,-1,-1,-1,-2,-1,-3
1513173950472719,0,1,-1,-2,-2,-1,-1,-1
1513173950481725,-2,-1,-3,-1,-2,-1,-1,-2
1513173950481725,-1,-1,-2,-1,0,-1,0,0
1513173950496759,-1,-1,-1,-1,-3,0,0,-2
1513173950496759,-2,-1,0,-1,0,0,0,-1
1513173950498263,1,-1,-1,-2,-3,-1,-1,0
1513173950498263,-2,-2,0,1,-1,-2,0,1
1513173950519252,-1,-2,-2,-2,-1,0,0,-1
1513173950519252,-1,-1,-2,-1,0,-1,-1,-1
1513173950520752,0,-2,-1,-1,-1,-1,-1,0
1513173950520752,-1,0,-1,0,-1,-2,0,0
1513173950533265,-1,0,0,-2,-2,-1,-1,-1
1513173950533265,-1,-1,-1,-1,0,-2,0,-1
1513173950541767,-1,-1,-2,-1,1,-2,-2,-2
1513173950541767,0,-2,-3,-2,-1,0,-1,-1
1513173950556279,-2,0,-1,-1,0,1,0,0
1513173950556279,0,-1,-1,0,-2,-1,-2,1
1513173950558280,-1,0,1,0,0,-1,0,-1
1513173950558280,-1,-2,-3,-1,-2,0,-2,-1
1513173950578909,0,0,-1,-1,-1,-2,-1,0
1513173950578909,-2,-2,0,-2,-3,-1,-1,-1
1513173950580927,1,-1,-2,0,-2,-1,0,-1
1513173950580927,1,-2,-2,-1,-1,-2,-1,-1
1513173950592920,-3,-3,-1,-1,-1,-3,0,-1
1513173950592920,0,-1,-1,-2,-2,-1,-3,-1
1513173950601929,-1,1,-2,-1,0,-2,-1,-1
1513173950601929,0,-1,-2,-1,0,-2,-1,0
1513173950616439,-1,-1,-3,-2,-1,-2,-3,-2
1513173950616439,-1,-1,0,-2,-1,0,-1,-1
1513173950618438,0,-2,-2,-1,-1,0,-2,0
1513173950618438,-2,0,-2,-2,0,-1,-1,0
1513173950639453,-1,-1,-1,-1,-2,-1,-1,-1
1513173950639453,-1,1,0,0,-1,-2,0,0
1513173950640953,-1,0,-1,-1,-2,-2,0,-1
1513173950640953,0,-1,-1,0,-1,-1,1,-2
1513173950661990,-1,-2,-1,0,0,-3,-2,-1
1513173950661990,-1,-1,-2,-1,0,-1,0,-1
1513173950667973,1,0,-1,-2,0,-1,-1,1
1513173950667973,-2,-1,0,-2,-1,0,-2,-1
1513173950676486,-1,-1,-1,-2,-1,0,-2,-2
1513173950676486,1,0,-1,-1,-2,-1,-2,-2
1513173950677981,-1,-1,-1,-2,0,0,-1,-1
1513173950677981,0,0,-1,0,0,-2,-1,-2
1513173950698995,-1,0,-1,-1,-1,1,-1,0
1513173950698995,-2,0,-2,-2,-1,-1,-2,-1
1513173950700496,-1,-3,-2,-1,-1,0,-1,0
1513173950700496,-3,0,-1,-1,-1,0,-3,-1
1513173950721510,-2,0,-1,1,1,0,-1,-1
1513173950721510,-1,-1,-1,0,-2,-2,0,-1
1513173950723511,-1,0,-2,-1,-4,-3,-1,0
1513173950723511,0,0,0,-1,0,-2,0,-1
1513173950737022,-2,-1,1,0,0,-1,2,-1
1513173950737022,0,-2,-1,-1,-1,0,-1,-1
1513173950738543,-1,-2,0,-2,-1,0,-2,-3
1513173950738543,-1,0,-1,-2,-2,0,-3,-1
1513173950759047,0,-1,-3,-1,-1,-3,-4,-2
1513173950759047,-2,-1,-1,-1,-1,0,-1,0
1513173950760548,-2,0,-2,0,0,-1,0,0
1513173950760548,-1,-3,-2,-2,-1,-1,0,0
1513173950781554,-1,-1,0,0,-2,-1,-1,-1
1513173950781554,-2,-1,1,0,-1,0,0,-2
1513173950783574,2,1,-3,-1,-2,-1,-1,-2
1513173950783574,-1,-2,-3,0,-2,-2,0,-2
1513173950796564,0,-1,0,-4,-1,-2,-2,1
1513173950796564,-1,-2,-1,-2,-2,-3,-2,-1
1513173950798065,-1,-1,-1,-2,1,0,0,0
1513173950798065,0,-1,-2,0,-1,0,0,0
1513173950819080,-1,0,-3,-3,-3,0,0,1
1513173950819080,1,-1,-2,-1,1,-2,0,0
1513173950820581,-1,-3,-1,0,-1,-1,0,-1
1513173950820581,-2,-2,-1,0,-1,-1,-1,0
1513173950841596,-2,-1,0,-3,0,0,-1,-2
1513173950841596,0,0,-1,-1,-2,0,-2,0
1513173950843097,-1,-1,0,-2,-1,-2,-2,2
1513173950843097,-2,1,-1,-2,-2,1,-2,-2
1513173950856125,-1,0,1,-2,0,-1,0,-1
1513173950856125,-2,-1,-3,-2,-1,0,-1,-1
1513173950863123,0,-2,-2,-1,-1,0,-2,-1
1513173950863123,1,-1,0,-1,-1,-1,-1,-1
1513173950887643,0,-1,0,0,0,-2,-1,1
1513173950887643,-2,-2,-1,-1,-1,-1,-2,-1
1513173950889132,-2,-2,0,-1,-2,-2,-3,-2
1513173950889132,-2,-1,-2,-1,-1,-1,0,-1
1513173950901639,0,-1,-2,0,-3,0,0,-2
1513173950901639,0,-1,0,0,-1,-1,0,-2
1513173950904144,-1,-1,-3,-2,-1,-1,0,-2
1513173950904144,0,-2,1,0,-1,-2,-2,-3
1513173950924172,-1,0,-2,0,-2,0,-2,-3
1513173950924172,0,-1,-2,-1,-1,0,-1,-1
1513173950925673,-1,0,-2,-3,-1,-1,-2,0
1513173950925673,-1,0,-2,-1,0,-1,0,1
1513173950939164,-1,-1,0,-1,-1,-2,1,-1
1513173950939164,-1,-1,-1,-2,-1,-1,-1,-1
1513173950940665,-2,-1,-1,0,-2,-2,-2,0
1513173950940665,0,-2,-2,-1,-2,-1,0,0
1513173950969197,-1,-2,-3,-2,-3,-3,0,-1
1513173950969197,0,-1,-1,0,-2,-1,-2,-2
1513173950970699,0,-1,-1,-1,0,-1,0,-2
1513173950970699,-2,1,-1,-2,-1,0,-1,0
1513173950976200,-2,-2,-2,0,-2,1,-2,-2
1513173950976200,-1,-1,0,-1,0,-1,0,-3
1513173950982698,-1,-3,0,-1,-1,0,1,1
1513173950982698,0,-1,-2,-2,-1,-1,-1,-1
1513173950999219,-3,-1,1,2,0,-1,0,-3
1513173950999219,-1,-1,-1,-1,-1,-2,-1,-1
1513173951000721,-1,-1,-2,1,-1,0,-2,-1
1513173951000721,-1,-1,1,-1,-2,-3,-2,0
1513173951021734,0,0,-1,-1,-2,0,0,0
1513173951021734,-1,-1,-1,-1,-1,-1,0,1
1513173951023224,-2,0,-2,-1,-1,0,-1,0
1513173951023224,1,0,-1,-2,-2,0,-2,-3
1513173951044257,-2,0,-2,-1,-1,-2,-1,-2
1513173951044257,-1,-1,0,-1,-1,0,-1,0
1513173951045740,0,0,-4,-3,-1,-2,-2,-1
1513173951045740,-2,-2,-1,0,1,-2,0,1
1513173951059762,0,-2,0,-1,-1,-2,-1,-1
1513173951059762,-1,-4,0,-2,-3,-2,-1,0
1513173951061252,-1,-1,-2,-1,-2,-1,0,-1
1513173951061252,-2,-1,-2,-1,0,-1,-2,-2
1513173951082284,-1,0,-1,-3,0,-3,0,0
1513173951082284,-3,-1,0,1,1,-2,-2,-1
1513173951087770,-1,-2,-1,-1,-2,-1,-1,-1
1513173951087770,1,-1,0,0,-1,-1,1,-1
1513173951095775,-1,-1,0,-2,-1,0,-1,0
1513173951095775,-1,-1,-2,-1,-1,-1,-2,-1
1513173951102781,-1,-1,-1,0,-1,0,-2,-2
1513173951102781,-1,1,0,-1,-2,-2,-1,0
1513173951119305,0,0,-1,-2,-1,-2,-1,-2
1513173951119305,2,0,-2,-2,0,1,-1,1
1513173951120804,-1,-1,0,1,-1,-1,0,-1
1513173951120804,-2,-2,0,-1,-1,-3,-1,0
1513173951141808,-2,1,-2,-2,-1,0,0,-1
1513173951141808,-3,-1,-1,-2,-1,-3,-1,-1
1513173951143309,0,0,-1,0,-1,-2,1,0
1513173951143309,-2,-1,-2,-1,0,1,-1,-2
1513173951164324,-3,-2,-2,-2,-1,-2,-1,-1
1513173951164324,-1,-1,-2,-2,-1,-2,-1,-2
1513173951165824,1,-2,-1,0,-1,-2,-2,0
1513173951165824,-2,0,-3,-2,-2,-3,-1,-1
1513173951179343,-2,-2,0,0,-2,0,-2,-2
1513173951179343,-2,-1,-1,-1,-1,0,-1,-1
1513173951180836,0,-1,1,-1,1,-1,0,-2
1513173951180836,-1,0,-2,0,1,-1,-2,-1
1513173951201361,-1,-1,-2,-1,-1,0,-3,-3
1513173951201361,-2,0,0,-1,-1,-2,0,0
1513173951203363,-2,-1,-2,-1,0,-1,0,-1
1513173951203363,-1,-2,-1,-1,-1,0,-2,-2
1513173951223866,-3,-1,1,1,0,-1,-1,-2
1513173951223866,0,-3,-2,0,-2,0,0,-1
1513173951225868,0,0,-2,-2,0,0,-1,-1
1513173951225868,-2,-3,-1,-1,0,1,1,-1
1513173951239376,1,-1,-1,-3,-1,-2,0,-1
1513173951239376,0,-1,-1,0,-2,1,-1,-1
1513173951240878,-1,-1,-2,-1,0,-2,-2,0
1513173951240878,-2,0,-1,-1,0,0,-1,-1
1513173951261392,0,-1,0,-1,-1,-1,-1,-3
1513173951261392,1,0,-1,-1,-2,-2,1,-1
1513173951263409,0,0,-2,0,1,-1,0,-1
1513173951263409,-1,-1,-1,-1,0,-1,-1,-1
1513173951275418,-1,-3,-1,0,-1,-2,0,1
1513173951275418,-1,2,-2,-2,0,-1,-1,0
1513173951292917,-2,-2,-1,1,-2,-3,-1,0
1513173951292917,-1,-3,-2,-2,-1,-2,-1,0
1513173951298921,0,-1,0,1,-1,1,0,0
1513173951298921,-1,-1,-2,-1,0,-2,-2,0
1513173951300923,-1,-3,-2,-2,-3,0,0,0
1513173951300923,-2,-1,-2,-1,-1,-3,-1,-2
1513173951322436,0,-1,0,0,-1,-2,-3,-1
1513173951322436,-2,-2,-2,1,-1,-2,-1,0
1513173951323936,-1,-1,-2,-2,-1,-2,-1,-1
1513173951323936,-2,-1,-1,-3,-1,0,0,0
1513173951335446,-1,-2,-2,-1,-2,0,-2,-2
1513173951335446,-1,-1,-1,-2,-2,0,0,-2
1513173951343951,-1,1,-1,-1,-2,-1,-1,-2
1513173951343951,-1,0,-1,-2,-3,0,-2,-1
1513173951358972,-3,0,-2,-2,2,-1,-2,-1
1513173951358972,-1,0,0,1,0,0,0,0
1513173951360462,0,-1,1,-2,-2,-1,-1,-2
1513173951360462,-1,-1,0,0,-1,-2,-3,0
1513173951381500,-1,-1,-1,-1,-2,-2,0,-1
1513173951381500,-1,-2,-2,-1,-2,-3,-2,-1
1513173951382978,-1,-1,-2,-1,-1,-2,0,0
1513173951382978,1,-1,-1,0,-1,-2,-1,-1
1513173951394997,-2,0,-2,-2,-2,-1,0,-1
1513173951394997,0,-2,-2,-1,0,-2,-2,-1
1513173951403993,-2,-2,-1,0,1,-1,2,-1
1513173951403993,-1,-3,0,-2,-1,-2,1,-1
1513173951419004,-2,-1,-1,-2,-2,-2,-2,0
1513173951419004,-1,0,-1,-2,-1,0,-2,-1
1513173951421006,-1,0,0,0,0,-1,-2,0
1513173951421006,0,-1,-1,-2,-3,-2,1,-1
1513173951441520,-1,-1,0,0,0,-2,1,0
1513173951441520,-2,-1,-1,0,-1,-2,-1,-1
1513173951443021,0,-2,-1,-2,-2,-1,0,-1
1513173951443021,0,-1,-3,-1,-2,-2,0,-1
1513173951455029,-1,0,-1,-2,-1,0,-2,-2
1513173951455029,-1,-3,-2,-2,-1,0,-2,0
1513173951464035,0,-1,-3,-3,-1,1,-1,-1
1513173951464035,-1,-1,-1,-1,-2,-1,0,-2
1513173951479070,0,-2,-1,-2,-2,-1,0,-1
1513173951479070,0,-1,0,-2,-3,0,0,-1
1513173951481060,0,-2,0,0,0,0,0,-2
1513173951481060,-2,0,-1,-1,-2,-1,-2,-1
1513173951501562,-1,-1,-1,-2,0,0,-2,-2
1513173951501562,-1,-1,0,0,0,-1,0,-1
1513173951503063,-1,0,-1,-1,-2,-1,-2,0
1513173951503063,-2,-1,-2,-2,0,-2,0,-1
1513173951515109,-3,-1,0,0,-2,-1,-1,-1
1513173951515109,0,-2,0,-2,-1,-2,-1,0
1513173951524077,-1,-1,-2,0,-1,0,0,-1
1513173951524077,-2,-1,0,0,2,0,-2,-1
1513173951539088,-2,-1,-1,0,0,0,-1,-3
1513173951539088,-1,-2,-1,0,-1,-1,-2,-2
1513173951540590,-2,-1,-1,0,-2,-2,0,-1
1513173951540590,-1,-1,0,-1,-1,-1,-1,-3
1513173951562105,0,-1,-1,-2,0,0,0,-1
1513173951562105,-1,-1,-1,-1,-1,0,0,1
1513173951567611,0,-1,0,-3,0,-2,-2,-1
1513173951567611,-1,0,-3,-2,-2,0,-2,-2
1513173951584123,-1,0,-2,-1,-2,-2,-2,-2
1513173951584123,-2,-2,-2,-2,-1,-2,0,-1
1513173951585643,0,-3,-1,-1,-1,-1,-2,0
1513173951585643,0,-2,-1,-1,-1,0,-2,-2
1513173951599132,-1,-1,-1,1,-2,0,-1,0
1513173951599132,1,-1,-2,-1,-2,-1,1,0
1513173951600633,-2,-1,-2,0,-2,-1,-1,0
1513173951600633,-1,1,0,0,-1,-1,0,-1
1513173951621658,-1,-3,-1,0,-1,-2,0,-1
1513173951621658,0,0,0,0,-1,-1,-1,0
1513173951623149,-2,-2,-2,-1,-1,-1,-1,0
1513173951623149,-2,-1,-1,-2,-1,-1,-1,0
1513173951644179,0,2,-1,-1,-2,-1,0,-1
1513173951644179,0,-1,-1,-2,0,0,0,-1
1513173951645682,0,-1,-1,0,0,0,0,-1
1513173951645682,-1,-3,0,0,0,0,-1,-1
1513173951659184,-2,-2,-1,-2,-1,0,-1,-1
1513173951659184,-3,0,0,1,0,-1,-2,1
1513173951660686,1,1,-1,-2,0,0,-2,-1
1513173951660686,-2,-1,-1,-1,0,-3,0,-1
1513173951681691,0,-4,2,0,-1,0,-1,0
1513173951681691,-1,-1,-1,0,0,0,-1,-1
1513173951683191,0,-2,-2,-2,-2,0,0,0
1513173951683191,-1,-1,-1,-1,-1,0,-2,-3
1513173951704223,-1,-1,-1,-2,-2,-1,-2,-2
1513173951704223,-2,-1,-2,-2,-2,0,-2,-2
1513173951705708,-2,-1,-2,-2,-1,0,0,-1
1513173951705708,-3,-1,-2,-1,-1,-2,-1,-1
1513173951719242,-2,-2,-3,-1,0,-2,-2,0
1513173951719242,-1,-2,-1,1,-1,-1,-2,-3
1513173951720717,-1,0,-1,0,-3,-1,-1,-1
1513173951720717,0,0,-1,-2,-1,-1,-1,-1
1513173951741733,-2,1,0,-2,-2,-1,0,-2
1513173951741733,0,-3,-2,0,-2,-1,0,-1
1513173951743234,-1,-2,-1,-1,0,-3,-2,0
1513173951743234,-1,-1,-2,-2,-1,-1,-2,-1
1513173951764259,-1,1,-1,-1,0,-1,0,-2
1513173951764259,1,-1,-1,0,-3,-1,-1,0
1513173951765749,-1,0,0,-2,-1,0,-1,-1
1513173951765749,-1,0,0,-1,-1,0,0,-1
1513173951778259,-2,0,-2,-2,-1,-1,-1,-1
1513173951778259,-1,-1,-3,-2,-1,-1,-1,0
1513173951785281,0,-2,-2,0,0,-1,-1,-3
1513173951785281,0,0,-3,-1,0,-2,-2,1
1513173951801790,-1,-2,-1,0,-2,-1,-1,-1
1513173951801790,-1,-3,-2,-2,0,-1,-1,-1
1513173951803275,-1,-3,1,0,-1,-1,-1,0
1513173951803275,-1,-1,-1,-1,-3,0,0,-1
1513173951824791,-1,1,0,-1,-1,0,-1,0
1513173951824791,-1,-1,-3,-2,-2,-1,0,1
1513173951826292,-1,0,-1,-2,-2,-2,-1,-1
1513173951826292,-2,0,-1,0,0,-1,-1,-2
1513173951838300,-1,-3,1,-1,-1,-2,-1,-3
1513173951838300,-1,-1,-1,-1,-2,1,0,-2
1513173951845305,0,-1,-4,-1,1,0,-1,-2
1513173951845305,-2,-1,-1,-1,-3,1,-2,-1
1513173951861870,-1,-1,-2,0,-1,-3,-2,0
1513173951861870,-1,-1,0,-3,-2,-3,-1,-2
1513173951867899,-1,-2,0,-1,-1,1,1,0
1513173951867899,0,-1,0,0,-1,-1,-2,-2
1513173951884390,-1,0,-1,-1,1,-1,-1,-1
1513173951884390,-2,0,0,0,-1,-2,0,-2
1513173951885893,-1,0,-1,-2,0,-1,-2,-2
1513173951885893,-1,-1,-2,-1,-2,-2,1,-1
1513173951898426,-1,-1,-2,-2,-2,0,0,0
1513173951898426,-1,0,-1,-1,-1,0,-1,2
1513173951905430,-1,-1,0,-1,-2,-1,-1,-2
1513173951905430,-2,0,-2,-2,-1,-3,-2,-2
1513173951921914,-1,-2,-2,0,0,-1,0,-1
1513173951921914,-1,0,-2,-2,-1,-1,0,-3
1513173951923415,-1,-2,-2,-1,-1,0,-1,0
1513173951923415,-2,-1,-3,-2,-1,-3,-1,-1
1513173951943928,-1,-1,0,-2,-2,0,-1,-3
1513173951943928,-1,-1,0,1,0,-1,-2,-1
1513173951945929,-2,-1,-2,1,-1,0,0,-2
1513173951945929,-1,-2,0,-1,-1,-1,-2,0
1513173951958437,-2,1,-2,-2,0,-1,-1,0
1513173951958437,0,-2,1,0,-1,0,-1,0
1513173951965443,-1,0,-2,-1,-1,-2,-1,0
1513173951965443,-2,-2,1,0,-1,1,0,-2
1513173951981474,-1,-1,-1,-1,-1,-2,-1,-3
1513173951981474,-1,-1,-1,-1,-2,-2,1,-2
1513173951983455,-2,-3,-2,-1,-2,-2,-2,-2
1513173951983455,-1,-1,-3,-3,-3,0,-2,-1
1513173952003970,-1,-2,-1,-1,-1,-1,0,-1
1513173952003970,1,-2,-1,-1,1,0,-1,-2
1513173952005471,-1,-1,-1,1,-2,-3,-2,0
1513173952005471,0,-1,0,0,-1,-1,0,0
1513173952018480,-2,-1,0,0,-2,-1,-1,-1
1513173952018480,0,-1,-1,-2,0,-1,-1,-1
1513173952024986,-1,-1,-3,-3,-1,-2,-1,-1
1513173952024986,-2,0,0,-3,-1,0,-1,-2
1513173952041496,-2,-1,0,-1,-2,-1,-2,-1
1513173952041496,-2,-2,0,-1,-1,0,-1,-1
1513173952042998,-1,0,-1,-1,-2,-1,-1,0
1513173952042998,-1,-1,-1,-1,-2,-2,0,-3
1513173952064032,0,0,0,-1,-1,-1,-1,0
1513173952064032,-1,-2,-2,-2,-2,1,-3,0
1513173952065514,0,-1,-1,-1,-2,0,-1,-2
1513173952065514,0,0,-1,-1,0,-2,0,-2
1513173952078523,0,0,1,-3,-2,0,-1,-1
1513173952078523,-2,-1,-2,-1,-2,-1,-1,-1
1513173952085052,-1,0,0,-2,-1,-1,-1,0
1513173952085052,-2,-2,1,1,-2,-2,1,0
1513173952101539,-1,-1,0,0,-1,-1,0,-2
1513173952101539,-1,-2,-1,-2,0,-1,1,-1
1513173952103040,-1,-1,-2,-2,-1,-1,-1,0
1513173952103040,-1,-1,-3,-2,-2,-1,-1,-1
1513173952124054,-1,0,-1,-1,-1,-2,-2,-1
1513173952124054,-2,-2,-1,-2,-1,0,-2,-1
1513173952125555,-1,-2,-2,-1,-1,-1,1,-2
1513173952125555,-2,-1,0,-2,-1,-2,-3,-1
1513173952137639,0,0,-3,-2,0,-2,1,0
1513173952137639,0,-2,0,-2,0,-1,-1,-1
1513173952146630,-1,-3,0,-1,-1,-1,-2,-2
1513173952146630,-1,-1,-1,-1,0,0,-3,-2
1513173952161639,-2,-1,0,-1,-1,-1,-1,-2
1513173952161639,2,2,-2,0,-1,-1,-2,-1
1513173952163143,-1,-1,-1,-1,-2,-1,-1,0
1513173952163143,-1,-1,-1,-1,-1,0,0,0
1513173952184156,-2,-2,0,-1,-1,-1,-1,-3
1513173952184156,-2,0,-1,-1,0,-1,-3,1
1513173952185657,0,-1,-1,-1,-2,0,0,-1
1513173952185657,-1,-1,-1,-2,-1,-1,-2,-2
1513173952197668,-1,1,-1,0,-1,0,-2,-1
1513173952197668,-2,-1,-2,0,-1,-1,0,0
1513173952206672,-1,0,-1,0,1,-3,-2,-1
1513173952206672,-1,0,-1,-2,-1,-1,-1,-1
1513173952221682,2,-2,-2,-3,-1,1,0,-1
1513173952221682,-1,-1,-2,-2,-2,-1,-3,-1
1513173952223183,-2,-1,0,-2,-1,0,1,-1
1513173952223183,-1,-1,-2,-1,-1,0,-1,-1
1513173952244199,-1,-2,-3,1,-1,-1,-2,-2
1513173952244199,1,-2,-1,1,0,0,0,-1
1513173952245699,1,-2,-2,1,-1,-2,0,-1
1513173952245699,-2,-2,-2,0,0,-1,-1,0
1513173952257709,-3,-2,0,-2,0,-2,-1,0
1513173952257709,-1,-2,-1,-1,0,-1,0,0
1513173952266714,-2,-3,-2,-2,1,-2,-1,-1
1513173952266714,-1,0,1,0,-2,0,-2,-1
1513173952281747,-3,1,-2,0,0,0,-1,-1
1513173952281747,-2,0,-2,-2,-2,-1,0,-2
1513173952283249,1,0,-2,-3,-1,0,-1,0
1513173952283249,-1,-1,0,-1,1,-2,-1,-2
1513173952304241,0,-1,-1,-1,-2,-2,-1,0
1513173952304241,-1,-1,-1,0,-1,-1,-1,-3
1513173952305741,0,-1,-3,1,-1,0,-2,0
1513173952305741,-2,-1,-1,-1,0,-3,0,0
1513173952317753,-1,-2,-1,-2,-1,0,-1,-2
1513173952317753,0,-3,-2,-1,-2,0,1,-1
1513173952326757,0,-1,-2,-2,0,-2,-2,-2
1513173952326757,-1,-1,0,-1,2,-1,-2,-2
1513173952341766,-1,-1,-3,-1,0,-1,-1,-1
1513173952341766,-2,-1,-3,-1,-1,-2,-2,0
1513173952343269,-2,-2,-1,-2,-1,1,-1,-1
1513173952343269,-2,-1,-2,-2,-2,-1,-1,0
1513173952364283,0,-2,-1,-2,-1,-1,-2,0
1513173952364283,0,-1,-2,0,-1,-2,0,0
1513173952365787,-1,0,-1,-1,1,-1,0,-1
1513173952365787,-1,-1,0,0,0,-1,-1,-2
1513173952377858,-2,0,0,1,-2,1,-2,-1
1513173952377858,-1,1,0,-2,0,0,-3,-1
1513173952386800,0,0,-2,-2,-3,-1,-1,-2
1513173952386800,0,-2,-1,-1,-2,-1,-1,-2
1513173952401810,-2,-1,-1,-1,0,-2,0,0
1513173952401810,0,-3,1,-1,0,-1,0,-1
1513173952403311,-2,0,-2,0,0,-1,0,-1
1513173952403311,-2,1,-2,0,-1,-2,-2,-2
1513173952424825,-1,-3,-1,-1,-2,-1,0,-2
1513173952424825,0,0,-3,-2,-1,-1,-3,-1
1513173952426342,1,-2,0,-1,-3,-1,-1,-2
1513173952426342,-1,-1,-1,-1,-3,-1,0,0
1513173952446841,1,0,0,-1,1,0,0,0
1513173952446841,-1,-1,0,1,0,1,0,1
1513173952448352,-2,-1,-3,-2,-1,-1,-1,-2
1513173952448352,-2,-1,-2,0,-1,-2,-2,-2
1513173952461365,0,-1,-1,-2,-3,-2,-2,-2
1513173952461365,0,-3,-1,0,0,-2,0,-3
1513173952463353,-1,-2,0,0,-1,-1,-1,-2
1513173952463353,0,0,0,-1,-3,0,-1,-2
1513173952483882,-1,1,-3,0,-1,-1,0,-3
1513173952483882,-1,-2,-1,-2,0,-2,-1,0
1513173952485872,-1,-1,0,-1,0,-1,0,-1
1513173952485872,-2,0,1,-3,-1,-2,1,-2
1513173952497905,-2,-1,0,0,-1,-2,-1,-2
1513173952497905,-2,-1,-2,0,-2,-1,0,0
1513173952506886,-2,-1,-3,-1,-1,0,-1,-1
1513173952506886,-2,-1,0,-2,-3,0,-1,-1
1513173952521896,-1,-1,-3,-2,-1,-1,0,-1
1513173952521896,-1,-2,1,-1,1,0,0,-1
1513173952523396,-1,0,-1,-1,0,-2,-2,1
1513173952523396,-1,-2,-3,0,-2,-1,-2,-2
1513173952544411,-1,0,0,-1,-3,-1,1,-2
1513173952544411,-1,1,-2,1,-2,-1,-1,0
1513173952545912,0,-1,-2,-1,-2,0,-1,0
1513173952545912,-1,-2,-1,0,-1,-1,-1,-2
1513173952566435,-1,-3,-1,0,1,0,0,0
1513173952566435,-1,0,-1,-2,-2,-1,-1,-1
1513173952568427,-1,0,0,0,-2,-3,-1,-1
1513173952568427,-1,-1,-1,-2,0,0,-2,-1
1513173952580939,-1,-1,-1,-1,1,-2,-2,-1
1513173952580939,-1,-1,-2,-3,-2,-1,-1,-2
1513173952587941,-1,1,0,-1,0,-1,0,-1
1513173952587941,-1,-1,-1,-2,0,-1,0,-2
1513173952603953,-1,0,0,-2,-3,-3,-1,0
1513173952603953,0,-4,-1,0,-1,-2,-1,0
1513173952605955,-1,-2,-2,-1,-2,-1,-1,0
1513173952605955,0,1,0,-1,-1,-1,-1,0
1513173952626490,-1,1,1,0,-3,-1,0,-2
1513173952626490,0,-1,-2,-2,0,-2,-1,0
1513173952628470,-2,0,-2,-1,-2,-2,-1,-1
1513173952628470,-3,-3,-1,-1,2,-2,-2,-2
1513173952641480,-1,-2,0,-2,-1,-1,-1,-1
1513173952641480,0,1,0,0,-1,0,-2,-2
1513173952643480,-1,-2,-1,-1,-1,0,-1,0
1513173952643480,-1,-1,0,0,-2,-2,-1,-2
1513173952663994,-1,0,-1,0,0,0,-2,-1
1513173952663994,-1,-2,-1,-1,0,-3,0,-2
1513173952665495,0,-2,-1,-1,-1,0,-1,0
1513173952665495,-1,0,1,0,-1,0,0,-2
1513173952687511,-1,-1,-1,-2,0,-2,-3,-2
1513173952687511,-2,-2,0,0,-1,-1,1,-1
1513173952689013,-2,-1,-3,-1,-2,0,-2,-3
1513173952689013,-2,0,-2,-3,-1,-2,-1,-2
1513173952701521,-2,-2,-1,0,-2,-1,0,-1
1513173952701521,-2,-2,-1,1,1,-1,0,0
1513173952703024,0,0,-1,-2,-1,-2,-2,-1
1513173952703024,0,0,-2,0,-1,-1,-2,0
1513173952724048,1,-2,-2,0,-2,-1,0,-2
1513173952724048,-1,0,-1,-1,-1,0,-1,1
1513173952725539,0,0,0,1,-1,0,-1,-1
1513173952725539,-1,0,-1,-3,-3,-1,-1,-1
1513173952754103,-1,-3,-1,0,1,-1,-1,0
1513173952754103,-1,-3,-2,-3,-3,1,-1,-1
1513173952756104,-1,-2,1,1,0,0,0,-1
1513173952756104,-2,-1,-1,-3,-4,0,0,-2
1513173952761107,-2,1,-1,-3,-3,-1,-3,-2
1513173952761107,0,1,-4,3,0,0,1,0
1513173952767611,-2,0,-3,-2,0,-1,-2,-3
1513173952767611,-1,-2,0,0,-1,0,-1,-2
1513173952784148,-2,-1,0,0,-2,-1,0,-1
1513173952784148,-1,-2,-2,-4,-4,-3,-2,-2
1513173952785620,0,-2,0,0,0,0,0,0
1513173952785620,-2,-2,-1,1,2,-1,-1,-1
1513173952806635,-1,0,-1,-5,-4,0,-1,0
1513173952806635,-1,1,-1,1,1,-1,-1,-1
1513173952808136,-3,-4,-3,-1,0,-3,-2,-1
1513173952808136,2,-1,1,-4,-3,0,1,0
1513173952821147,0,2,0,2,1,0,-1,1
1513173952821147,0,1,-1,-3,-4,-1,-2,-2
1513173952827663,1,0,0,2,6,0,2,-1
1513173952827663,-2,-2,-2,-3,-3,-3,-2,-4
1513173952844162,0,-1,0,7,3,-1,-3,-6
1513173952844162,-2,-2,-4,-1,0,0,-2,0
1513173952845662,-1,1,0,2,-1,0,0,6
1513173952845662,2,0,3,-2,-1,0,1,-5
1513173952866691,-1,-3,-1,-6,-2,-2,0,-5
1513173952866691,-2,-1,-2,-1,-2,-4,-2,-2
1513173952868179,-3,-2,-4,-2,-4,-4,-5,-7
1513173952868179,4,8,6,1,2,1,4,6
1513173952881204,-6,-4,-6,-5,-4,-4,-4,-3
1513173952881204,5,1,5,3,1,2,6,5
1513173952887752,-5,-4,-3,-6,-7,-4,-2,-3
1513173952887752,-1,1,-5,-7,-6,-2,-2,0
1513173952911784,0,-3,2,12,8,2,0,0
1513173952911784,4,5,-5,-3,2,0,-3,-1
1513173952913268,-3,1,1,-3,-7,-6,-5,-4
1513173952913268,-10,-15,-9,-1,5,3,1,0
1513173952934288,4,0,-3,-12,-7,-2,1,2
1513173952934288,-5,-1,4,8,-1,-5,-6,-8
1513173952935800,-1,-7,5,10,-4,0,5,4
1513173952935800,3,-5,-1,-7,-3,-9,-8,-6
1513173952940789,5,4,-15,3,13,4,1,3
1513173952940789,-12,3,31,18,13,4,1,-3
1513173952947820,8,10,-12,-26,-7,0,1,3
1513173952947820,-31,-27,-1,13,3,-3,-5,-8
1513173952964309,-12,-20,-12,-4,-10,-4,0,-3
1513173952964309,4,-1,-8,-6,3,-1,-3,-1
1513173952965865,-7,9,7,6,-1,-2,-4,-5
1513173952965865,8,12,0,-2,-3,1,4,6
1513173952986469,4,5,1,-8,-6,-4,-3,5
1513173952986469,-15,-10,-13,-3,-7,-5,-4,-7
1513173952987969,20,14,1,-3,0,1,3,10
1513173952987969,-7,7,-8,-6,-3,-4,-1,2
1513173953001040,-7,-12,3,4,0,-1,-5,-9
1513173953001040,8,-5,-5,-8,-9,-4,-6,-3
1513173953007490,8,0,-3,5,6,4,3,1
1513173953007490,7,6,11,3,3,1,-2,-5
1513173953024496,-4,-5,-4,-2,-3,-3,3,7
1513173953024496,6,-2,-3,-6,-3,1,2,3
1513173953030000,-6,11,5,2,0,-2,-4,-9
1513173953030000,7,-7,-4,-2,-2,2,1,1
1513173953046509,6,15,5,0,0,0,-3,-7
1513173953046509,-3,-10,-2,-7,-4,-1,-2,-3
1513173953048013,1,4,-8,2,3,-1,-3,-3
1513173953048013,-18,-33,7,13,2,-1,-2,-3
1513173953060038,3,8,-1,-3,-2,-1,0,1
1513173953060038,15,8,-1,-4,0,1,3,11
1513173953069545,-12,-40,-3,2,-4,-1,-1,-6
1513173953069545,-2,18,5,1,0,1,-3,-6
1513173953084036,-8,-10,-3,-11,3,0,-2,-3
1513173953084036,-2,0,-1,4,-3,-3,0,-1
1513173953085559,-1,3,-1,-10,0,1,2,2
1513173953085559,24,16,-8,-7,-3,1,8,21
1513173953106579,-2,5,25,21,-3,-2,-12,-25
1513173953106579,7,5,-10,-14,-2,2,6,14
1513173953108084,-10,-8,-7,-5,-3,-4,5,18
1513173953108084,-16,-2,9,3,0,1,-9,-25
1513173953120091,-1,-16,-11,-5,-3,-2,-3,4
1513173953120091,3,1,8,6,2,1,3,5
1513173953129098,-6,-10,-12,-1,-3,-4,-5,-6
1513173953129098,9,12,4,-7,-1,1,10,16
1513173953144116,4,6,-3,-1,-3,0,6,8
1513173953144116,-19,-2,-1,8,1,-3,-9,-26
1513173953145609,8,-4,2,-6,-1,2,6,11
1513173953145609,3,0,-6,0,1,0,10,25
1513173953166630,-8,-1,-1,-2,0,0,-9,-27
1513173953166630,8,2,2,-11,-8,-5,1,-6
1513173953168131,-13,-3,-6,1,3,2,-11,-15
1513173953168131,-6,6,-1,10,-3,-6,-15,-16
1513173953180143,-4,-18,-4,-16,-1,1,10,26
1513173953180143,4,13,-2,-5,0,4,5,16
1513173953189188,4,0,-4,2,1,0,13,2
1513173953189188,-9,-11,0,-5,-4,-6,-14,-45
1513173953204199,4,17,13,3,-2,-9,-31,-25
1513173953204199,12,3,-7,-5,-3,3,22,62
1513173953205690,0,-15,4,7,3,4,-7,-7
1513173953205690,-4,7,-3,-1,-1,0,5,20
1513173953226708,-1,3,9,-1,-4,-4,-2,-31
1513173953226708,-7,-13,-19,-1,1,0,-4,-2
1513173953228216,2,24,3,-9,-7,-6,9,25
1513173953228216,-1,-19,-29,-3,-3,-4,-21,-36
1513173953240213,0,-6,8,3,0,2,9,13
1513173953240213,-5,5,15,-2,-1,-2,-7,-15
1513173953249236,-6,-6,-25,-4,-1,-3,-3,-1
1513173953249236,-3,0,26,-6,-4,0,5,2
1513173953264243,2,11,-19,-7,-1,1,3,9
1513173953264243,-9,-17,-9,6,-1,-2,-4,-2
1513173953265744,-7,-8,17,2,-4,-3,-13,-33
1513173953265744,13,-2,7,0,-2,-1,2,13
1513173953287248,-2,22,8,-3,2,2,7,25
1513173953287248,-3,-11,5,2,0,-1,-4,-10
1513173953288750,2,18,-8,0,-2,-4,-5,7
1513173953288750,3,4,14,0,4,2,5,-6
1513173953300268,-1,-12,-4,-1,-1,0,4,0
1513173953300268,8,1,-15,-3,0,0,-4,3
1513173953309263,-8,-2,24,-4,-5,-1,-3,-16
1513173953309263,-1,-4,-16,4,2,-1,1,12
1513173953324278,-8,-13,-7,-12,-6,-2,1,-1
1513173953324278,-6,-8,-6,-2,1,0,-3,-11
1513173953325779,0,3,9,20,2,-1,-4,-6
1513173953325779,2,4,5,-5,1,-1,4,6
1513173953345811,-1,22,9,-6,-5,-3,-2,-8
1513173953345811,0,-14,-13,10,1,-2,6,23
1513173953354296,-1,-12,12,10,4,-1,-13,-18
1513173953354296,-7,-12,-14,-20,-8,0,2,2
1513173953369317,-4,-16,-9,13,5,0,-16,-31
1513173953369317,-5,24,4,-16,-4,-1,3,21
1513173953370809,1,1,26,6,1,-1,4,5
1513173953370809,-6,14,-4,3,1,-1,-3,-13
1513173953384317,10,-21,-21,8,1,0,20,32
1513173953384317,1,20,-5,-5,1,0,-14,-14
1513173953385817,3,-19,-15,-14,-5,0,1,6
1513173953385817,-13,7,15,-2,-1,-1,-16,-26
1513173953406832,26,7,0,-20,-8,-2,12,37
1513173953406832,-2,-5,32,13,4,-1,0,-9
1513173953408333,-10,-10,-49,-3,1,-1,3,5
1513173953408333,17,-27,9,-12,-11,-7,-8,5
1513173953420341,-6,37,6,-5,-2,-1,0,-3
1513173953420341,-4,-23,-25,-2,-5,-2,-4,-7
1513173953429348,3,5,-27,-20,-10,-5,-4,-15
1513173953429348,12,14,10,10,0,-2,7,34
1513173953444881,-10,-28,-12,15,4,3,0,2
1513173953444881,-1,-2,17,-27,-6,-3,5,-14
1513173953446382,2,12,-21,6,8,5,-2,-5
1513173953446382,5,3,-17,4,3,-2,-2,-13
1513173953466374,-21,-8,24,9,-1,-2,2,4
1513173953466374,-1,30,-3,14,-1,-2,-4,2
1513173953468391,-3,-21,39,-12,-5,0,9,6
1513173953468391,-2,-8,-55,-6,11,9,7,-6
1513173953480386,-14,7,41,23,3,3,-3,-3
1513173953480386,-5,-1,-4,-5,-5,-2,5,-4
1513173953489394,7,2,26,25,9,5,5,4
1513173953489394,14,37,40,10,5,-1,-6,19
1513173953504403,-11,-13,-57,-22,-8,-8,-11,7
1513173953504403,37,28,19,-21,-5,3,-3,-14
1513173953505904,-31,-42,-30,-4,-7,-3,9,31
1513173953505904,-4,-18,15,0,2,3,-6,-18
1513173953526419,-2,-18,-43,-7,2,0,-8,-20
1513173953526419,-14,-17,1,2,-5,-5,-2,-3
1513173953528420,8,14,8,1,3,-1,-10,-1
1513173953528420,-7,-7,34,16,-5,-2,4,-19
1513173953556490,2,-28,-80,-42,-13,-8,-3,0
1513173953556490,19,-9,-31,0,13,2,3,13
1513173953557980,-26,-19,21,13,4,0,13,1
1513173953557980,-16,34,62,12,3,-5,-27,-12
1513173953571490,21,14,11,-17,-14,-7,0,-16
1513173953571490,-9,-38,42,21,6,1,-16,-39
1513173953572992,14,27,15,24,7,5,5,29
1513173953572992,-14,-29,-81,-30,-8,-6,-1,4
1513173953586541,19,14,45,26,10,5,7,6
1513173953586541,-31,1,18,2,-2,0,1,-14
1513173953588002,-7,7,15,-27,-6,-3,-10,-30
1513173953588002,19,31,14,12,-8,-3,14,46
1513173953609031,-7,-36,-28,6,10,-7,-13,20
1513173953609031,0,14,33,15,-1,-14,-36,-35
1513173953610520,0,1,-71,-2,-1,3,11,-7
1513173953610520,16,40,5,-30,-13,4,6,14
1513173953631544,3,-14,68,27,-4,-9,-11,-11
1513173953631544,-17,-14,-49,-35,-6,4,47,28
1513173953633037,3,-2,25,-23,-14,-12,-25,-26
1513173953633037,-15,-26,-4,9,-20,-17,-16,-5
1513173953646556,-9,6,-60,-26,15,12,6,-1
1513173953646556,-9,-18,59,31,-8,-8,5,-8
1513173953648048,6,36,-66,2,13,-13,-62,-23
1513173953648048,-17,-40,9,14,1,15,14,9
1513173953668070,5,15,-13,-28,-6,-4,-11,22
1513173953668070,-13,-7,17,3,-18,-7,0,-19
1513173953676574,-9,-26,-26,-20,-3,-3,4,-4
1513173953676574,-5,-1,-13,12,3,-7,-10,-6
1513173953683569,8,14,-7,10,2,4,1,1
1513173953683569,11,16,47,6,9,5,-13,28
1513173953690073,39,34,-41,13,-3,4,16,9
1513173953690073,-77,-17,16,0,8,1,-3,-7
1513173953706585,0,-65,-40,-26,-10,-7,-4,-36
1513173953706585,11,6,-31,-30,-15,4,34,0
1513173953708089,20,7,83,21,0,3,-6,31
1513173953708089,43,3,-54,12,37,7,-12,0
1513173953729102,2,25,12,1,-18,-3,1,-35
1513173953729102,-12,7,-46,-9,-8,1,-9,-12
1513173953729602,-5,-6,-5,-23,11,3,15,33
1513173953729602,5,-6,-14,-87,-38,-9,9,9
1513173953742612,20,28,61,84,47,15,24,21
1513173953742612,21,0,-61,13,7,-10,-27,-9
1513173953751117,-8,-45,12,-29,6,6,13,-1
1513173953751117,-6,25,52,24,-47,-5,1,22
1513173953765627,6,43,96,-22,42,7,-7,-10
1513173953765627,-78,-58,-4,20,15,2,-2,-5
1513173953766628,6,60,18,40,13,-2,-3,17
1513173953766628,-6,-47,7,-1,-9,-6,24,12
1513173953788645,3,17,-37,-14,-34,-4,-32,-33
1513173953788645,17,65,102,19,-1,-11,-27,-39
1513173953789144,-14,-65,19,-42,-13,-1,14,6
1513173953789144,49,-22,3,6,2,0,-9,16
1513173953804154,1,63,-2,9,-12,-8,22,1
1513173953804154,63,-75,26,-52,-1,-3,-1,-9
1513173953812170,-92,-12,-29,-5,-20,-4,-23,41
1513173953812170,12,-14,6,-16,11,2,6,-13
1513173953825679,-23,-4,58,29,-2,-6,-1,47
1513173953825679,14,64,-57,58,27,15,3,26
1513173953826671,3,-59,-73,-69,-46,-13,1,-65
1513173953826671,29,98,-52,30,63,21,2,-7
1513173953849687,-36,-56,25,-13,-22,5,16,25
1513173953849687,3,16,1,13,1,-5,-8,-6
1513173953850688,46,35,127,71,36,24,27,8
1513173953850688,-17,-13,-114,-37,-32,-21,-17,17
1513173953862696,2,-41,-99,25,26,3,-5,-27
1513173953862696,-2,-26,7,-52,-22,-3,4,18
1513173953870701,26,40,65,12,-1,-2,20,-6
1513173953870701,-45,-38,-18,-8,-1,-5,-21,-83
1513173953885723,-6,14,10,6,-3,2,11,43
1513173953885723,-14,-16,-53,-1,-16,-2,0,-8
1513173953886713,1,-9,-15,14,4,-8,-19,13
1513173953886713,17,-8,-58,-15,-10,1,29,7
1513173953908228,48,35,71,16,-5,-1,-2,1
1513173953908228,4,-31,-64,-28,15,11,5,-2
1513173953909229,-17,37,12,-1,-6,-5,-17,-73
1513173953909229,11,22,104,36,10,-1,-10,14
1513173953922738,-8,3,-61,-24,-5,-9,-8,-26
1513173953922738,5,5,78,7,-3,0,-3,-15
1513173953930745,12,15,-46,13,1,-7,-31,22
1513173953930745,-10,-27,-10,-7,4,-1,19,-5
1513173953945768,-1,-5,71,-13,-5,0,-4,-17
1513173953945768,2,47,-17,12,8,6,6,46
1513173953953274,-28,-49,-92,-50,-20,-8,-4,-22
1513173953953274,3,14,26,30,12,-2,-6,-35
1513173953968270,15,-1,-21,-18,-5,10,-6,1
1513173953968270,-19,-47,-39,-30,-10,-12,-8,-17
1513173953969271,16,32,-3,33,-7,-2,-12,3
1513173953969271,15,-21,-14,35,12,2,-5,19
1513173953982803,-38,-1,-19,-64,-3,-2,-1,-19
1513173953982803,-8,6,70,24,-3,-1,14,15
1513173953990786,20,21,9,13,8,7,11,-6
1513173953990786,24,9,5,-31,-14,-2,1,-27
1513173954005797,-26,-15,-54,18,-4,-4,-9,41
1513173954005797,26,42,12,-5,11,8,8,32
1513173954006797,-49,-62,-17,-37,-14,-14,2,-16
1513173954006797,21,58,24,38,8,7,18,14
1513173954028316,13,-43,15,21,-6,-2,-7,-11
1513173954028316,20,3,-7,-27,-19,-13,-5,-7
1513173954029315,32,23,46,21,11,3,11,14
1513173954029315,-28,-26,12,-6,9,-1,-12,-18
1513173954042824,22,-14,-44,-23,-9,1,13,36
1513173954042824,-9,8,58,28,4,-5,-5,-2
1513173954050829,21,34,-24,10,2,5,10,2
1513173954050829,-24,-33,-35,-41,-15,-6,-6,26
1513173954065839,-16,1,-47,5,0,-4,-3,-50
1513173954065839,19,44,38,54,12,7,9,13
1513173954066840,8,-13,-44,-67,-10,2,11,11
1513173954066840,-25,17,86,10,5,-1,-21,-24
1513173954088394,0,-6,22,15,0,-9,-6,-14
1513173954088394,-8,14,3,-28,2,5,0,-6
1513173954089394,6,2,-41,38,13,3,1,-1
1513173954089394,18,-4,-21,-6,-6,-1,-1,10
1513173954102903,-9,28,-18,6,2,0,14,10
1513173954102903,-18,-38,-26,-53,-19,-8,-12,-8
1513173954110919,2,7,-10,7,-3,-6,-3,-16
1513173954110919,-5,-21,34,15,25,6,-2,-2
1513173954125920,-6,-10,-1,17,-4,-1,0,-16
1513173954125920,2,-6,-67,-3,4,3,0,15
1513173954126920,-20,-18,2,-2,-13,-5,3,8
1513173954126920,-14,-2,-30,-38,-32,-13,-22,-33
1513173954148439,6,22,89,38,37,14,36,18
1513173954148439,-16,18,-43,8,-6,-5,-17,-8
1513173954149436,-6,-58,-69,-42,-4,0,7,1
1513173954149436,-18,-16,43,27,6,4,9,10
1513173954162947,-2,1,34,23,-9,-8,-32,-55
1513173954162947,48,-7,-27,-36,-6,0,-1,17
1513173954170974,4,31,56,9,8,6,6,11
1513173954170974,-3,15,-8,-7,-3,-2,5,15
1513173954186002,-5,-13,37,-10,-4,-3,-10,-6
1513173954186002,-18,-6,-29,11,3,2,16,-14
1513173954186465,21,-12,-19,-22,-9,-2,-20,30
1513173954186465,-6,-25,7,24,8,-3,-15,-31
1513173954208479,-1,0,-71,-52,-9,-5,0,6
1513173954208479,19,21,72,33,13,5,4,-1
1513173954208979,-29,-19,57,17,1,0,-3,-13
1513173954208979,-3,7,-14,-22,-18,-6,2,4
1513173954222488,24,-2,-38,-33,-8,-5,-12,27
1513173954222488,-47,7,6,2,1,-4,-8,-18
1513173954230994,-22,-34,0,-9,-7,-2,2,-21
1513173954230994,33,14,9,17,14,11,10,19
1513173954246004,-12,56,-12,2,-8,-3,7,12
1513173954246004,-1,-16,-40,-20,-4,-2,-7,3
1513173954246505,-8,6,60,32,10,1,4,-29
1513173954246505,-12,-11,-62,-39,-15,-2,3,38
1513173954268521,18,-16,38,33,-1,-4,-5,12
1513173954268521,-15,-23,-31,-23,4,-1,-7,-5
1513173954269032,25,35,21,14,17,5,9,22
1513173954269032,-10,-19,-51,-1,-8,0,10,-27
1513173954282534,-11,9,30,-8,3,2,-6,-6
1513173954282534,26,-27,3,7,-4,0,11,20
1513173954291037,-34,30,27,-25,-5,-4,-1,-18
1513173954291037,17,15,-24,21,5,0,5,-2
1513173954306047,2,-32,-33,-24,-9,-3,4,26
1513173954306047,-1,12,24,18,9,4,3,-19
1513173954306548,12,-1,26,22,4,0,7,3
1513173954306548,13,28,54,15,5,4,-8,0
1513173954328563,-30,-72,-102,-10,-3,-1,9,9
1513173954328563,-9,-10,38,-3,-8,-7,-14,-9
1513173954329073,18,9,0,13,5,-3,-2,-2
1513173954329073,-11,-2,7,-3,-1,-5,9,-5
1513173954342682,12,11,52,17,8,6,-2,-1
1513173954342682,-13,17,-78,-32,-24,-8,2,17
1513173954351178,-12,-44,-40,-1,6,-4,-17,-52
1513173954351178,-12,12,50,-21,-3,0,15,20
1513173954365691,-8,12,-22,2,5,-2,-2,0
1513173954365691,-1,-7,33,16,1,-4,-3,4
1513173954366690,11,13,-47,12,1,0,-6,-5
1513173954366690,-12,6,21,-6,1,3,6,12
1513173954388708,-1,-10,-23,-33,-3,-1,-4,-16
1513173954388708,-5,-5,4,22,5,2,9,36
1513173954389214,-15,-5,13,2,-7,0,-2,-29
1513173954389214,-3,-1,15,-4,-5,-3,-5,-3
1513173954412221,12,-14,25,30,6,0,-8,-20
1513173954412221,6,5,-21,-22,-6,0,8,21
1513173954412725,27,-12,7,-4,1,0,-12,23
1513173954412725,7,19,-2,0,0,1,-15,-26
1513173954425731,-5,19,48,0,-6,-3,6,21
1513173954425731,-17,-35,-11,-14,-5,-1,10,-21
1513173954426731,14,23,12,16,4,3,4,37
1513173954426731,17,28,-83,-31,-6,-6,-7,-13
1513173954448247,5,-36,-9,9,1,-3,-8,-19
1513173954448247,13,23,-4,-1,7,5,-2,-5
1513173954449248,-24,-16,54,5,-5,-1,0,20
1513173954449248,1,5,37,-3,8,0,6,-5
1513173954471763,12,49,42,5,-20,-12,-2,-20
1513173954471763,-11,-22,-68,9,10,5,-1,-20
1513173954472267,4,34,22,-44,-9,-2,-12,-3
1513173954472267,17,-17,-42,3,1,-5,-6,-3
1513173954485774,-40,-33,17,-11,-9,-3,11,1
1513173954485774,23,20,62,42,2,-1,-15,19
1513173954486773,9,-23,-36,-3,-7,-5,9,6
1513173954486773,-47,6,-27,-17,-9,-1,1,-9
1513173954508290,23,-36,29,24,14,8,-3,1
1513173954508290,-21,-31,-15,-7,4,-2,4,17
1513173954509290,-10,-3,-13,15,4,2,6,-4
1513173954509290,-15,-27,18,4,-4,5,-1,-2
1513173954532306,-7,-8,-26,-1,1,-2,-24,-5
1513173954532306,-16,18,27,-15,-5,-1,5,1
1513173954532807,-2,0,-5,23,1,2,0,6
1513173954532807,0,-23,63,6,12,1,-5,7
1513173954546004,-2,23,27,-46,-24,-4,-1,-2
1513173954546004,1,-25,-12,14,9,-2,3,8
1513173954546504,-38,11,-65,-39,-14,-10,-21,-39
1513173954546504,-8,-7,28,38,7,4,-1,-12
1513173954568520,-13,18,13,6,11,5,0,0
1513173954568520,18,-22,-9,-8,-9,-3,-9,-17
1513173954569021,-29,-39,-4,-22,-10,-5,30,34
1513173954569021,27,-1,-25,-37,-10,-7,-45,-38
1513173954591536,-3,29,20,3,5,-2,4,2
1513173954591536,2,-1,18,19,-1,-2,0,3
1513173954593038,13,-5,-14,-14,-5,-5,7,2
1513173954593038,13,10,11,-1,-4,-4,0,-2
1513173954606046,6,-17,-99,15,2,-1,-9,-19
1513173954606046,11,9,32,-13,7,2,-2,8
1513173954606547,-44,-27,-24,-13,-5,-4,-6,-9
1513173954606547,12,26,29,-4,-3,6,18,28
1513173954628562,-5,-8,-36,34,12,0,-20,-8
1513173954628562,-15,-45,-60,-28,-15,-7,8,-13
1513173954629063,21,13,36,33,17,7,-8,12
1513173954629063,8,-21,-58,-11,-1,-2,2,21
1513173954651638,-4,21,-11,-21,-2,-5,-2,-32
1513173954651638,-8,29,-18,16,-9,-2,-1,-7
1513173954652112,26,41,73,2,4,6,16,40
1513173954652112,-42,-92,-70,1,-6,-4,-15,-26
1513173954666622,6,7,12,15,5,4,20,5
1513173954666622,-10,-8,29,28,12,-2,-29,15
1513173954667135,16,-5,-20,-21,-6,-4,-11,-30
1513173954667135,2,36,11,-11,-8,-2,14,8
1513173954688639,-32,-13,29,-1,2,3,5,19
1513173954688639,4,13,12,11,1,-1,-5,-24
1513173954689140,4,21,22,-23,-12,-8,-6,2
1513173954689140,-5,6,65,41,12,-2,5,-11
1513173954711673,44,22,-17,-38,-10,-1,-3,7
1513173954711673,-8,-23,-90,-18,-13,-8,-5,0
1513173954712159,0,-20,-34,6,-1,-3,-3,10
1513173954712159,16,8,5,2,1,0,2,-11
1513173954725683,43,22,76,12,-2,3,14,31
1513173954725683,-37,-40,-16,4,13,4,-2,-12
1513173954726675,39,40,32,58,8,4,6,-3
1513173954726675,28,17,-34,-86,-16,-7,2,33
1513173954748180,-53,-38,-5,-3,-4,-1,3,29
1513173954748180,17,19,55,-10,-2,0,-32,-56
1513173954749181,11,15,-3,14,4,1,-2,3
1513173954749181,-2,27,16,19,5,0,8,-2
1513173954771702,7,3,-43,-38,-16,-3,-17,-8
1513173954771702,-25,-22,3,-7,-4,-1,2,9
1513173954772197,21,10,17,-20,-2,0,-2,-11
1513173954772197,-19,-27,24,60,4,-7,-20,-30
1513173954785731,23,36,-31,1,13,6,17,27
1513173954785731,-24,5,9,-47,-20,-6,-3,-16
1513173954786707,-5,-3,-3,51,20,3,-2,-8
1513173954786707,-6,-3,-35,-45,-7,-2,4,14
1513173954808235,-17,-14,9,14,2,-6,-30,-38
1513173954808235,55,24,25,16,2,3,23,19
1513173954809236,-53,-19,-81,-45,-19,-10,-28,-41
1513173954809236,6,-20,-38,10,-2,-2,1,4
1513173954831742,-9,-1,39,18,0,-5,7,22
1513173954831742,35,-18,-21,19,12,6,28,7
1513173954832740,-14,13,-17,-34,-6,-3,-12,1
1513173954832740,-1,-5,-13,62,11,3,3,-9
1513173954845749,12,24,21,-89,-23,-4,-5,-26
1513173954845749,-3,-28,14,0,4,-2,2,23
1513173954846750,4,8,3,2,-3,0,8,6
1513173954846750,-28,-40,2,16,3,2,12,9
1513173954868282,12,13,6,37,15,4,8,19
1513173954868282,-1,23,-32,-6,-12,-5,-3,2
1513173954869284,17,-55,-66,-48,-6,-1,-10,-39
1513173954869284,-7,42,51,6,2,0,4,3
1513173954891313,6,-30,0,18,1,3,3,17
1513173954891313,-29,-7,28,-4,8,-6,-4,-18
1513173954892314,-3,19,-36,38,2,7,17,21
1513173954892314,11,2,32,-64,-14,-3,2,9
1513173954905823,-4,2,-5,14,9,3,-1,-10
1513173954905823,-3,3,-31,-21,-16,-6,-17,-32
1513173954906323,-19,-25,-6,10,-5,-2,10,9
1513173954906323,0,24,35,23,13,0,-24,-13
1513173954928342,-19,-25,-67,-32,-27,-9,0,-11
1513173954928342,-3,-12,8,19,11,5,3,20
1513173954929343,28,37,56,-31,-15,-8,-10,-12
1513173954929343,-63,0,-12,2,-4,4,5,-7
1513173954951390,-8,-9,34,7,7,-1,8,26
1513173954951390,11,19,9,7,1,-1,-15,5
1513173954952371,-11,-11,-24,4,4,-1,2,-25
1513173954952371,1,-42,50,25,-18,-13,1,9
1513173954966398,6,51,25,-33,-6,2,5,14
1513173954966398,-17,-3,3,12,3,0,16,4
1513173954967381,-5,-13,29,-30,-8,-1,-6,11
1513173954967381,21,56,30,1,3,4,2,10
1513173954988409,-8,-49,-87,25,3,-7,-5,-14
1513173954988409,13,23,-24,-27,-8,-2,-1,8
1513173954988898,-12,-17,27,18,7,-2,-22,-46
1513173954988898,-12,-19,-29,-7,-3,-4,-10,-16
1513173955011422,0,-11,45,28,10,7,14,1
1513173955011422,-2,0,40,13,7,2,13,6
1513173955012414,-6,-28,-54,-19,-10,-3,-1,-11
1513173955012414,-48,7,-42,-25,-6,-4,-8,-9
1513173955025923,25,37,40,1,-1,-3,-12,-14
1513173955025923,-5,18,6,8,-6,-1,6,2
1513173955026424,-10,-46,-27,2,-1,-2,3,4
1513173955026424,-6,13,-20,-19,0,-4,4,19
1513173955048439,-7,-43,-27,-4,-3,-3,-6,-35
1513173955048439,14,37,7,-15,-10,-9,-6,29
1513173955049452,7,18,52,19,2,1,11,13
1513173955049452,31,34,50,12,-1,1,-19,22
1513173955071458,-20,-44,-104,-11,-2,-5,-2,-1
1513173955071458,8,6,23,-2,-2,4,6,-15
1513173955072455,-1,10,9,-9,3,0,-11,4
1513173955072455,32,-10,-33,4,-5,-4,-5,-14
1513173955085465,0,1,11,0,8,5,17,32
1513173955085465,2,4,15,8,-7,-3,-16,-20
1513173955093972,-21,4,-10,21,2,-2,4,1
1513173955093972,19,-24,7,-37,1,4,15,3
1513173955108493,17,16,-23,0,-3,-4,-2,12
1513173955108493,2,21,-18,-7,2,-1,3,-4
1513173955109483,-21,-17,-11,-13,-2,-1,-10,-13
1513173955109483,13,7,14,48,7,-2,-4,-11
1513173955131501,-4,1,-10,-37,-12,-4,-5,-11
1513173955131501,-3,-31,-17,12,9,4,-1,4
1513173955131998,-32,-6,53,1,-6,-4,3,8
1513173955131998,27,5,-25,-15,-4,1,0,1
1513173955145007,-24,4,-1,-12,3,-2,2,-14
1513173955145007,10,-18,39,-3,-9,-1,-27,-17
1513173955153513,15,20,5,19,5,0,11,28
1513173955153513,-19,-24,-26,0,-3,-1,-1,-6
1513173955168523,19,24,67,18,8,2,9,46
1513173955168523,-22,-27,-22,-36,-13,-6,-31,-74
1513173955169027,5,-2,-17,1,1,1,3,7
1513173955169027,-2,-9,12,1,-1,-4,-4,-18
1513173955191540,-6,3,-12,-16,-9,-3,-1,-6
1513173955191540,-3,-17,-43,3,4,-3,9,5
1513173955192541,14,9,77,20,7,5,7,25
1513173955192541,-11,-18,-103,-28,-9,-5,-8,-30
1513173955205050,-2,3,35,23,6,4,-5,1
1513173955205050,0,22,13,3,-2,-2,7,8
1513173955213578,-5,-43,-117,-53,-8,-1,1,-1
1513173955213578,18,31,54,22,8,1,-4,12
1513173955228589,3,-6,38,8,0,0,-7,-6
1513173955228589,-33,1,-10,-20,-6,0,-2,16
1513173955229071,2,3,10,26,9,-1,2,3
1513173955229071,-18,-14,41,-3,-5,1,6,6
1513173955251594,0,-19,-66,-9,-5,-2,-8,-24
1513173955251594,-1,22,1,14,6,-1,2,6
1513173955252584,10,13,32,24,2,4,-10,-17
1513173955252584,21,-9,-11,-44,-2,0,25,34
1513173955274110,-15,-16,2,34,7,1,-4,-15
1513173955274110,7,17,37,-1,5,3,34,9
1513173955274600,1,36,-5,-13,-6,-5,-16,-11
1513173955274600,-15,-17,-55,-7,-7,-4,-11,-5
1513173955288654,13,4,5,28,2,-3,2,-8
1513173955288654,-1,-2,-27,-40,-4,4,14,56
1513173955289143,41,0,3,13,5,4,8,-9
1513173955289143,-1,12,35,15,1,3,0,-6
1513173955311670,1,-28,30,-7,1,-3,0,2
1513173955311670,-9,-14,-59,9,-3,-4,-12,-6
1513173955312159,15,17,0,-21,-8,-3,5,10
1513173955312159,11,10,20,22,11,10,5,17
1513173955325179,-1,10,-7,1,-2,-4,-15,-29
1513173955325179,12,-19,19,18,8,5,14,-8
1513173955333198,-1,26,34,1,-6,-8,-10,16
1513173955333198,-17,-5,15,-12,-1,0,3,-2
1513173955348195,-7,-9,-1,-8,-5,-5,-9,-9
1513173955348195,10,22,31,14,9,8,4,-6
1513173955349196,-24,0,-10,-21,-14,-10,-6,-12
1513173955349196,11,22,39,28,11,5,5,7
1513173955371715,-2,19,-3,-17,-9,-3,8,-2
1513173955371715,9,-5,-3,1,-2,-3,-4,41
1513173955372203,-47,-19,-59,13,7,2,11,-17
1513173955372203,1,-23,2,-3,-3,0,7,-12
1513173955394218,17,9,1,-2,-2,-1,-10,3
1513173955394218,11,23,19,20,0,4,5,-26
1513173955394721,10,-10,14,-22,7,0,-7,9
1513173955394721,17,15,-37,0,-1,-1,7,20
1513173955408740,0,-18,16,7,3,4,-1,15
1513173955408740,2,8,17,12,-6,-8,-8,3
1513173955409740,3,-10,3,-13,-7,-2,8,1
1513173955409740,2,-27,-4,0,2,-1,-12,-15
1513173955431770,-6,11,15,17,3,-3,-22,-12
1513173955431770,-1,-12,2,-15,2,0,-2,-20
1513173955432255,29,11,25,18,8,3,5,14
1513173955432255,-32,-27,-35,-38,-14,-10,-17,-8
1513173955454260,-3,-12,7,-5,-11,-3,-2,-19
1513173955454260,9,-14,-77,-5,-3,-4,-4,-4
1513173955454760,-12,6,-3,-6,-9,-8,-4,-8
1513173955454760,13,32,-29,25,7,0,-2,-6
1513173955468270,12,2,32,-18,1,5,12,4
1513173955468270,-1,1,-14,18,0,-5,-11,20
1513173955469271,-4,7,5,-19,-6,-1,4,7
1513173955469271,1,-35,-30,-16,-3,-1,-1,-10
1513173955492287,-9,1,-75,-4,0,-5,-36,-14
1513173955492287,-8,-13,43,6,-3,-2,0,-23
1513173955493293,-2,1,-14,23,5,4,4,-6
1513173955493293,25,3,4,-17,-6,-5,-11,20
1513173955514325,5,-16,-66,-27,-8,-5,11,-9
1513173955514325,5,-6,7,3,2,5,-6,15
1513173955514809,-6,17,16,0,1,0,-9,9
1513173955514809,-15,0,48,5,-4,-7,-5,-25
1513173955528320,4,34,64,28,10,6,9,-20
1513173955528320,-9,-43,-86,-64,-15,-5,5,-4
1513173955529314,-2,3,16,11,0,0,5,-14
1513173955529314,-6,4,7,14,8,2,-11,4
1513173955551841,-2,11,40,-6,-4,-5,-6,-8
1513173955551841,-7,-1,-31,-1,-3,1,8,15
1513173955552333,-10,-28,40,8,1,-2,-18,-30
1513173955552333,1,9,-69,8,1,4,12,-5
1513173955573855,0,-16,-69,-18,-10,-2,13,42
1513173955573855,-32,-1,78,-1,-4,-5,-3,-9
1513173955574845,19,1,-17,-15,-5,-2,-10,-5
1513173955574845,-7,12,75,23,6,0,2,-1
1513173955588369,-12,7,-34,-26,-5,0,16,8
1513173955588369,25,23,61,33,13,-1,-22,8
1513173955589359,-22,-31,-38,-4,-10,-5,0,-2
1513173955589359,-4,26,28,1,-2,-3,-2,-2
1513173955611371,-19,-13,20,9,5,-1,-3,5
1513173955611371,-7,-27,37,6,2,0,-2,-29
1513173955612374,12,46,6,15,6,3,16,11
1513173955612374,-14,-49,-82,-30,-13,-7,-21,-27
1513173955633890,7,-15,36,20,3,3,16,76
1513173955633890,-22,47,-5,-20,-4,-4,-11,-21
1513173955634888,-2,-35,-19,-9,-6,-3,-19,3
1513173955634888,3,15,-1,9,6,2,9,8
1513173955648414,3,3,-35,-2,-2,-1,-7,-28
1513173955648414,0,-4,6,-3,-4,-2,-1,15
1513173955649415,24,14,33,-8,0,0,2,-1
1513173955649415,-12,5,8,1,-12,-9,-9,-11
1513173955671426,-4,8,44,24,8,2,-1,-4
1513173955671426,7,-1,-13,-7,-1,0,-4,-6
1513173955672415,-6,-14,-39,-6,-4,-5,3,-9
1513173955672415,4,8,-2,-3,2,5,1,8
1513173955693942,13,-12,34,5,-4,-2,-4,-17
1513173955693942,18,21,-30,-1,-2,2,8,-4
1513173955694943,-32,0,9,-8,-5,-4,8,-4
1513173955694943,-28,-68,-59,-17,-6,-3,-4,1
1513173955708454,8,36,73,9,3,-2,-2,-18
1513173955708454,-4,-20,-89,-29,-9,-4,2,-13
1513173955709441,-10,9,46,19,4,-1,-5,4
1513173955709441,43,26,-36,-12,2,0,4,8
1513173955731472,-13,-41,-40,-32,-11,-6,-7,-12
1513173955731472,-32,-8,7,17,3,-2,-4,-18
1513173955732462,17,18,46,12,5,5,14,27
1513173955732462,-2,-32,0,-6,-2,2,1,10
1513173955753982,-1,14,-25,4,5,1,9,18
1513173955753982,14,34,79,22,5,-1,-10,-4
1513173955754973,10,15,19,14,3,4,2,9
1513173955754973,-12,-27,-26,-27,-10,-4,-1,-17
1513173955768492,-7,-12,-2,-8,2,1,0,4
1513173955768492,-25,-70,-23,19,3,0,-2,-9
1513173955775990,2,31,-12,-22,-6,-3,-10,4
1513173955775990,13,12,31,5,0,2,6,7
1513173955791499,24,39,-5,-6,-7,-3,2,26
1513173955791499,-6,-14,-27,12,10,4,1,-22
1513173955792501,3,3,30,19,4,0,-16,-7
1513173955792501,-11,-18,-33,-14,-10,-3,12,27
1513173955821520,-22,-27,-66,-32,-8,-3,-4,2
1513173955821520,51,13,31,11,-1,-4,-9,-3
1513173955822521,-12,-24,-4,-15,-5,-4,-7,-9
1513173955822521,7,17,30,19,11,1,-3,-4
1513173955827525,-13,19,-8,-3,-5,-4,-4,-17
1513173955827525,-10,-9,2,-9,-5,-2,7,11
1513173955836533,-6,-7,-20,0,-1,0,10,-35
1513173955836533,-8,-7,33,12,4,-1,-2,2
1513173955851559,5,32,64,16,6,5,11,-3
1513173955851559,-1,24,-35,2,1,1,-9,-13
1513173955853042,1,-29,-35,-13,-5,-2,3,17
1513173955853042,10,33,17,7,3,0,5,-16
1513173955874558,8,-5,42,-1,-1,0,8,18
1513173955874558,-15,23,24,-4,-9,-4,-24,-35
1513173955880064,0,16,-10,-4,1,2,16,52
1513173955880064,-16,-53,-34,18,3,1,-5,-19
1513173955896573,-6,1,-25,-19,-1,0,-7,-19
1513173955896573,-8,-26,-29,-11,-2,-1,7,11
1513173955898074,-2,7,-12,-20,-8,-6,-17,-23
1513173955898074,6,13,25,-1,-2,-1,3,18
1513173955911596,-2,-8,-49,10,0,-5,-7,-13
1513173955911596,14,18,7,-9,0,1,26,41
1513173955913109,-4,-19,0,2,3,0,-3,-14
1513173955913109,6,-22,-4,-12,-5,-2,0,5
1513173955934102,-7,5,22,30,6,-1,-11,-55
1513173955934102,1,33,-2,-26,-7,-6,14,29
1513173955935600,3,-23,19,12,7,4,6,6
1513173955935600,-10,7,31,-2,-1,0,-3,-2
1513173955947618,7,-23,-55,8,3,1,10,27
1513173955947618,-26,8,-10,-4,-2,-2,-5,-12
1513173955956619,-1,-16,-21,1,-3,-5,-9,-27
1513173955956619,-7,32,6,-7,0,5,6,20
1513173955971637,12,-33,6,-7,-2,0,2,5
1513173955971637,2,15,0,40,10,2,-3,3
1513173955973127,-12,-17,11,-46,-13,-7,-5,-10
1513173955973127,-4,-25,-31,-14,-4,-4,1,-10
1513173955994147,20,32,80,16,4,4,0,10
1513173955994147,-7,-37,-68,-23,-11,-10,-16,-12
1513173955995643,-3,0,-15,29,8,2,0,5
1513173955995643,0,11,38,-11,-9,-6,-5,12
1513173956007651,5,-28,-34,-11,0,4,35,30
1513173956007651,-7,0,49,8,-1,-4,-63,-47
1513173956016658,7,13,-31,16,7,8,17,35
1513173956016658,27,46,55,-4,3,0,-4,-15
1513173956031171,-35,-17,-30,-10,-7,-4,-7,2
1513173956031171,1,-19,-11,-18,-6,-4,16,-1
1513173956037672,9,-17,-13,18,3,1,-2,5
1513173956037672,1,21,3,29,8,2,-3,2
1513173956053236,-17,-4,4,-34,-9,-5,-7,0
1513173956053236,-2,13,-3,0,4,6,17,6
1513173956061690,2,15,9,9,0,-6,-15,-15
1513173956061690,3,-10,19,-6,-2,1,8,-9
1513173956067718,-1,16,32,-3,-3,-2,-2,19
1513173956067718,10,-3,-12,4,-2,-1,3,15
1513173956076700,-15,-31,39,-7,-4,-5,10,-5
1513173956076700,-6,-15,-72,2,-4,-4,-18,-14
1513173956092214,0,25,25,1,1,-1,-2,-3
1513173956092214,8,-7,-5,0,0,4,2,5
1513173956093712,-10,20,7,-15,-9,-4,1,-3
1513173956093712,-10,-6,-33,-2,-1,-1,3,-1
1513173956114242,-4,5,-23,16,2,-5,-23,-39
1513173956114242,11,3,33,-1,0,1,19,48
1513173956115778,-35,4,-51,-23,-7,-2,-8,-30
1513173956115778,16,-2,-6,-8,-2,-3,-1,5
1513173956127736,-20,-29,13,7,-1,-1,1,-6
1513173956127736,25,56,20,4,0,-1,-13,-30
1513173956136758,-18,-38,-27,9,3,2,2,8
1513173956136758,-13,18,23,-6,-6,-5,-4,-5
1513173956151754,0,-5,-28,5,0,-1,-1,10
1513173956151754,-12,-38,-8,12,-1,-2,10,-5
1513173956153255,36,35,-3,-29,-5,-2,0,-3
1513173956153255,-45,-22,-9,-2,-1,-7,-27,-38
1513173956174269,45,25,29,13,1,-3,-3,7
1513173956174269,-60,-9,-17,16,6,2,6,6
1513173956175770,-7,-33,-47,-13,-7,-3,-9,-5
1513173956175770,6,7,-3,-2,-1,0,5,1
1513173956187778,4,-22,21,10,1,-1,-2,7
1513173956187778,21,22,-18,-34,-5,1,9,-5
1513173956196787,3,-31,13,10,2,-1,0,7
1513173956196787,10,22,38,13,4,3,6,8
1513173956211816,-9,2,-50,-36,-11,-3,-2,10
1513173956211816,7,-16,17,14,4,1,3,-12
1513173956213317,-9,18,20,-2,2,1,-2,-3
1513173956213317,41,26,20,1,-3,0,11,11
1513173956233834,-18,-17,25,7,0,0,-10,0
1513173956233834,6,-13,5,-13,0,1,-2,-17
1513173956235822,-8,5,14,-6,-10,-6,-12,-18
1513173956235822,19,8,-13,22,7,1,7,26
1513173956248321,-44,-5,9,-17,-5,0,3,-13
1513173956248321,7,-9,10,7,-1,-2,8,42
1513173956264334,21,16,-13,0,7,2,-27,-30
1513173956264334,-31,-39,-58,-25,-7,-3,5,-6
1513173956271361,12,6,-22,13,4,-2,-3,-14
1513173956271361,-15,-22,2,-4,-8,-5,-6,4
1513173956272839,13,29,38,-12,-1,1,13,17
1513173956272839,-1,-24,-12,8,4,1,-7,-15
1513173956293864,-13,2,4,-17,-5,0,2,-7
1513173956293864,-3,-32,-22,-2,1,-2,0,-2
1513173956295865,9,20,-16,16,-2,-6,-7,1
1513173956295865,-6,17,72,21,7,4,0,1
1513173956307363,-1,-30,-66,-20,-4,-3,-9,-12
1513173956307363,6,28,23,-1,2,2,4,7
1513173956316889,5,1,-5,2,1,1,1,8
1513173956316889,-24,-28,-65,-10,-3,-1,7,2
1513173956331383,-15,16,18,15,2,1,0,4
1513173956331383,-15,-21,-42,-34,-8,-6,-27,-16
1513173956333384,2,-15,6,6,2,0,2,23
1513173956333384,10,22,43,3,-1,2,-6,-16
1513173956354397,0,1,-65,-5,-2,-3,0,-5
1513173956354397,13,-35,-33,3,-1,1,5,-16
1513173956360400,0,27,68,8,8,4,14,35
1513173956360400,6,-14,-52,-2,-1,-1,0,16
1513173956376411,20,24,53,9,0,2,13,22
1513173956376411,2,-19,8,1,3,-1,-6,2
1513173956378424,3,0,-9,4,-2,-3,-5,-22
1513173956378424,-5,28,5,-10,-3,-3,3,15
1513173956391473,14,-18,39,-2,-3,-3,-16,-40
1513173956391473,-54,6,16,16,-3,-4,4,4
1513173956392974,11,-24,-11,8,2,3,5,8
1513173956392974,-21,-5,-17,-22,-9,-7,-11,-10
1513173956421507,0,19,76,17,10,8,10,17
1513173956421507,28,12,-52,-21,-10,-5,-6,-15
1513173956422996,-2,-19,13,12,4,2,7,-15
1513173956422996,-3,2,16,-17,-10,-6,-7,-10
1513173956436530,-17,10,-24,9,4,4,0,0
1513173956436530,-7,9,23,8,4,1,5,2
1513173956438010,-1,24,58,-1,-3,-2,0,7
1513173956438010,9,-26,-83,-12,-1,0,-5,-9
1513173956451527,12,-14,-20,9,2,0,10,2
1513173956451527,-1,36,87,-5,-2,1,-3,2
1513173956453020,-9,-31,-97,-23,-9,-4,-6,-3
1513173956453020,-38,2,69,30,10,3,-5,-25
1513173956481537,-1,-25,-31,-14,-8,-4,2,35
1513173956481537,-9,3,-8,0,2,1,1,-4
1513173956483038,8,4,32,1,1,-2,-4,-5
1513173956483038,10,19,16,21,2,-1,2,0
1513173956496549,2,-25,-32,-24,0,-3,3,-33
1513173956496549,19,33,28,5,1,3,19,36
1513173956498050,-21,-29,-4,-9,-5,-3,-29,-32
1513173956498050,5,-9,-68,-5,-3,-3,0,11
1513173956510567,-11,-11,-3,16,3,-3,-4,-18
1513173956510567,12,-10,-29,-18,-5,-3,5,16
1513173956517585,-3,9,46,8,0,1,11,-6
1513173956517585,3,5,-2,18,4,4,6,20
1513173956534128,13,-2,-38,-15,-5,-4,-18,-36
1513173956534128,-14,-19,-4,-2,0,0,-6,-15
1513173956535629,-5,-7,-43,-2,-2,-1,3,14
1513173956535629,-32,5,40,7,3,0,-2,-12
1513173956556663,4,-7,-8,-15,-7,2,15,45
1513173956556663,5,-4,-17,20,5,0,-18,-35
1513173956558146,-5,-6,-5,-11,-6,-3,-1,-10
1513173956558146,32,27,-11,-6,0,1,9,18
1513173956570671,-11,-6,19,8,3,1,-3,4
1513173956570671,-2,6,-1,14,-3,-2,3,8
1513173956577676,10,27,13,1,5,5,-4,10
1513173956577676,-26,-29,1,-33,-15,-10,-18,-52
1513173956595168,7,9,-14,15,4,-2,-7,1
1513173956595168,12,19,-25,-22,-9,-2,4,0
1513173956596669,-18,-25,32,6,-1,-2,-9,-19
1513173956596669,4,-9,-46,-9,-6,-5,-3,5
1513173956616696,19,49,33,12,4,2,-4,10
1513173956616696,-23,3,14,-5,-1,2,-1,-11
1513173956618185,-8,-14,-6,-9,-4,-5,9,5
1513173956618185,17,7,26,-1,-2,0,-5,17
1513173956631206,-5,-4,42,21,3,-2,-3,-25
1513173956631206,-25,-10,-33,-12,-5,-5,-7,-7
1513173956639201,8,22,-27,4,4,3,17,-3
1513173956639201,18,-7,77,-5,0,2,3,19
1513173956654210,20,32,-9,-21,-11,-5,-4,-6
1513173956654210,10,13,37,9,0,-1,-6,8
1513173956655719,-11,-11,-68,1,-5,-7,-5,13
1513173956655719,7,-24,-27,-18,-4,3,11,-19
1513173956676235,-5,-18,13,4,2,-2,-1,4
1513173956676235,15,10,25,4,4,-1,-4,3
1513173956678236,-1,3,11,1,-5,-4,1,19
1513173956678236,3,14,-11,7,3,0,-3,-5
1513173956690736,4,-16,-34,4,-1,-3,2,12
1513173956690736,-10,-15,-7,-4,0,0,0,-2
1513173956697740,-5,17,20,3,4,5,4,-2
1513173956697740,-6,-22,0,-4,-6,-5,-4,16
1513173956713766,2,26,-46,-9,0,4,1,8
1513173956713766,4,-12,-49,-7,-8,-9,-13,-34
1513173956715768,0,-8,34,-7,1,2,4,30
1513173956715768,-3,-18,-34,-17,-9,-5,2,13
1513173956736795,-6,3,30,11,4,1,-1,-15
1513173956736795,7,18,27,13,4,0,4,16
1513173956738281,9,22,3,7,4,2,-1,-18
1513173956738281,-5,-6,1,4,1,0,2,-1
1513173956750778,-12,-8,3,5,3,-1,-6,1
1513173956750778,2,-21,4,-3,-4,-2,1,2
1513173956757783,15,12,-11,-11,-1,-1,15,10
1513173956757783,6,8,-5,-4,1,0,-21,-17
1513173956773804,6,13,-13,-34,-16,-5,0,-1
1513173956773804,-2,-7,15,10,5,3,5,4
1513173956775806,-7,-23,-10,3,-7,-7,-10,-12
1513173956775806,-6,-5,-13,12,3,3,10,9
1513173956796367,19,-6,9,1,3,1,2,-11
1513173956796367,-8,-6,22,-15,-9,-3,-1,13
1513173956797868,-14,-3,-42,-9,-6,-4,-10,-15
1513173956797868,9,33,70,33,13,3,4,-2
1513173956810865,-9,-34,-13,10,-1,1,1,8
1513173956810865,9,17,-16,-10,3,0,2,-3
1513173956817389,-10,-19,61,4,0,1,-5,-17
1513173956817389,-15,-13,-15,-16,-5,-2,-5,-3
1513173956833881,-7,-5,6,10,3,1,3,-2
1513173956833881,6,5,-21,-15,-9,-4,-6,-5
1513173956835382,18,-7,52,20,7,5,3,0
1513173956835382,2,36,-12,-7,-9,-6,-3,-6
1513173956856929,-10,2,8,1,-4,-3,-3,-7
1513173956856929,-6,-15,-18,-7,-1,-1,1,16
1513173956857929,-3,3,-7,-4,-2,-2,-4,-28
1513173956857929,-3,-19,-1,3,2,2,7,0
1513173956869937,-6,-8,-32,-23,-7,-3,-1,17
1513173956869937,-1,-13,15,15,7,0,-2,-8
1513173956886449,-8,-7,-18,-2,-8,-9,-6,4
1513173956886449,12,21,15,5,6,5,4,10
1513173956893969,-4,-17,-50,-14,-4,-1,-1,-7
1513173956893969,-2,0,11,8,0,-2,-1,-2
1513173956895455,-2,3,-9,12,2,3,0,-11
1513173956895455,-1,-8,-37,-20,-3,-2,-1,19
1513173956916983,-9,4,44,-6,-5,-4,-7,-1
1513173956916983,-2,9,0,5,0,0,4,3
1513173956918512,-2,18,-4,3,-1,-2,1,6
1513173956918512,2,-15,-5,-3,0,-1,-3,-10
1513173956930004,0,0,5,1,2,0,0,-1
1513173956930004,-3,-4,-4,0,-1,-1,-2,-4
1513173956938986,-3,3,-14,-12,-4,-2,-4,-2
1513173956938986,-4,-16,7,0,-1,-1,-2,-2
1513173956953014,-2,1,1,0,0,-1,-3,0
1513173956953014,-3,0,6,2,-3,0,-2,-8
1513173956961501,-3,-10,-11,-3,0,-1,-2,3
1513173956961501,-1,1,6,10,1,0,2,-1
1513173956976514,0,7,16,-12,-6,-1,-2,-3
1513173956976514,-1,0,-15,-4,1,-2,0,-2
1513173956978016,2,4,-9,-1,0,2,0,6
1513173956978016,-5,-6,0,7,-1,-3,-3,-3
1513173956990523,0,1,5,2,-3,-1,-2,-7
1513173956990523,-2,-7,0,-6,-7,0,-1,-3
1513173956999028,3,3,-8,-12,-8,-6,0,4
1513173956999028,-4,-6,8,11,19,10,0,-3
1513173957021567,-1,-4,-9,-2,-1,-3,-2,-2
1513173957021567,1,2,1,1,-3,1,0,2
1513173957023046,-3,0,-5,-7,-6,1,2,0
1513173957023046,1,-2,-2,-4,-5,-5,-1,-3
1513173957036570,0,0,-9,1,4,0,-1,-2
1513173957036570,-3,-5,-2,4,1,0,-1,-3
1513173957038056,1,0,6,1,0,-1,-3,0
1513173957038056,-1,-3,-5,-12,-6,-1,1,1
1513173957050580,-2,-1,-2,6,0,-1,-2,0
1513173957050580,0,6,-5,0,0,-2,-2,-3
1513173957059071,-2,-4,-10,-6,0,1,2,-1
1513173957059071,2,1,4,2,-2,-3,-3,-2
1513173957075092,-4,-1,0,-1,-1,-1,-2,-3
1513173957075092,-1,2,5,-1,0,-1,0,-3
1513173957080589,0,1,3,0,3,1,0,3
1513173957080589,-1,-4,-9,-7,-7,-3,-2,-1
1513173957096597,-2,4,6,1,-1,-1,-1,-4
1513173957096597,0,-5,4,-1,-1,0,-1,-2
1513173957098098,1,2,-2,4,4,0,0,2
1513173957098098,-6,0,0,-1,-2,-4,-1,-5
1513173957110109,-3,-7,-1,0,1,0,-3,-3
1513173957110109,0,-4,-7,-6,-1,0,2,4
1513173957119113,1,-2,4,-1,0,-1,-1,1
1513173957119113,-1,1,0,0,-2,-3,-2,-2
1513173957134124,-4,-4,-14,-1,0,-1,1,0
1513173957134124,0,-6,-29,-7,-2,-2,-3,-1
1513173957135640,0,-3,10,-3,-3,-2,-2,-2
1513173957135640,0,-1,-10,-1,-4,-2,-1,-1
1513173957156151,1,-4,6,0,0,0,-1,0
1513173957156151,-4,-2,8,0,-1,-2,0,-2
1513173957162645,-1,2,-10,-1,-1,1,-1,1
1513173957162645,0,0,7,2,1,-1,-2,-1
1513173957170162,-2,-3,-12,-1,-3,-1,0,-2
1513173957170162,0,2,7,-2,-4,-1,-1,-1
1513173957179159,-3,0,1,3,1,-2,-2,-2
1513173957179159,1,1,7,1,2,1,0,1
1513173957194169,-1,-3,-4,-5,-4,-1,-3,-2
1513173957194169,-2,-2,7,4,1,0,-1,-2
1513173957196678,-4,-1,-1,-1,-3,-3,-2,-2
1513173957196678,1,-3,-9,-4,-6,-4,-1,0
1513173957216688,-2,3,7,-2,7,1,3,2
1513173957216688,-4,-2,9,3,-1,-2,-2,-3
1513173957218205,2,0,-10,5,5,1,-1,1
1513173957218205,-2,-3,2,-1,-1,0,0,-1
1513173957230195,2,1,-1,-1,-5,-4,-2,-1
1513173957230195,-2,4,14,-2,-3,0,0,0
1513173957239199,-1,-3,-12,-6,-3,-1,-2,-2
1513173957239199,-1,-3,-2,-3,-2,-1,-2,-1
1513173957254209,0,0,1,-3,-1,0,-3,0
1513173957254209,-3,-3,-3,0,0,1,-2,-1
1513173957255710,-2,0,-1,-2,-3,-1,-2,-2
1513173957255710,0,0,0,0,1,1,0,-2
1513173957284233,-1,-1,0,1,-2,0,0,-1
1513173957284233,0,2,-5,-3,1,0,0,-1
1513173957285736,-2,-4,0,-2,-3,-3,1,-2
1513173957285736,-1,0,1,0,-1,0,-1,1
1513173957299254,-1,-1,2,0,0,-2,-2,-1
1513173957299254,-1,-1,-5,-1,0,-1,-1,0
1513173957300742,1,1,0,-3,0,1,0,0
1513173957300742,0,0,0,2,0,-1,1,-1
1513173957314263,-2,-5,4,1,-3,1,0,1
1513173957314263,-4,-3,-2,-2,-2,-4,-1,-1
1513173957315764,0,-2,-3,0,0,1,-1,-2
1513173957315764,1,-1,2,-2,-2,-4,-3,0
1513173957336767,-1,0,-2,0,-1,-1,-3,0
1513173957336767,-3,-2,0,-1,0,-3,-3,-2
1513173957338268,-2,-2,0,0,1,0,1,0
1513173957338268,-1,-3,-3,0,-1,-1,-1,-1
1513173957358793,0,0,-1,-2,-1,-2,0,-1
1513173957358793,-3,-2,-2,-1,0,1,-1,-2
1513173957360284,0,0,-3,-1,-3,-2,-2,-1
1513173957360284,-3,-2,-1,0,-2,-1,-2,-1
1513173957373804,-2,0,-1,1,-1,-2,0,0
1513173957373804,0,-4,0,-1,0,-1,1,0
1513173957375796,0,0,0,-1,-2,0,-2,0
1513173957375796,-2,-2,-2,-1,-1,0,-2,-2
1513173957396810,-1,-2,-2,-3,0,-2,-1,-1
1513173957396810,0,0,-1,-1,-1,0,0,-1
1513173957397810,0,-3,-2,1,0,-3,-2,-1
1513173957397810,-1,-1,-1,-1,0,1,-1,-1
1513173957419826,-2,0,-2,-1,-1,0,-2,0
1513173957419826,-1,-1,0,-1,-2,-2,-1,-2
1513173957421327,-2,-1,0,-2,-1,0,0,-2
1513173957421327,-2,-2,0,0,0,0,0,0
1513173957433338,1,-1,-2,0,0,-1,0,-1
1513173957433338,0,-2,0,-1,0,-1,-1,-1
1513173957439842,-3,-1,0,-1,-3,-3,-1,0
1513173957439842,-1,-1,0,-3,-1,0,-1,-1
1513173957456366,-2,-3,-2,-3,-4,-2,-1,-3
1513173957456366,0,0,-1,-1,-1,-1,-1,-1
1513173957458354,-1,1,-2,-2,0,0,1,-1
1513173957458354,0,0,-2,-1,-1,-1,0,-1
1513173957478881,-3,-1,-1,0,0,0,-1,-3
1513173957478881,-3,-2,-1,-1,-1,-2,-2,-1
1513173957480876,0,-2,-1,0,0,1,-1,2
1513173957480876,0,-2,-2,-2,0,-2,-1,0
1513173957493379,-1,-1,-2,-1,-3,0,0,-1
1513173957493379,-3,-1,-1,-2,-1,-3,0,-3
1513173957499893,0,0,-1,-2,-1,1,1,-2
1513173957499893,-2,-1,-1,-1,0,-1,-2,0
1513173957516403,0,1,-2,1,-1,0,-2,-2
1513173957516403,-3,0,-1,1,-2,-1,-1,-2
1513173957517899,0,-1,-2,0,-3,0,-1,-1
1513173957517899,0,-1,-1,0,-2,-1,0,1
1513173957538921,-1,1,-3,-3,-2,-2,-1,-1
1513173957538921,0,-1,0,-2,-2,-1,-2,0
1513173957540411,0,-1,-1,-3,-1,0,-1,-1
1513173957540411,1,-2,-3,0,0,-1,0,-1
1513173957553422,-2,0,0,-1,0,-1,0,-1
1513173957553422,-1,-2,-2,-1,0,-2,-1,-2
1513173957559941,-1,-1,-1,0,-3,-2,-2,-2
1513173957559941,-1,-1,-1,-2,0,-1,-2,-1
1513173957576458,-2,-1,0,0,-1,-1,-1,0
1513173957576458,-1,-2,0,-1,-1,0,-2,-1
1513173957578438,-2,-3,0,-1,0,-2,0,-1
1513173957578438,0,-2,-2,-2,-1,0,-2,-1
1513173957598964,-1,-3,-1,0,-1,0,-1,-1
1513173957598964,-2,-1,-3,0,0,0,-2,-1
1513173957600454,-1,-2,-3,-1,-1,-1,0,1
1513173957600454,-2,1,-2,0,-1,-2,-1,-1
1513173957613473,-1,1,0,1,-2,0,1,-1
1513173957613473,-1,1,-1,-2,-1,0,0,1
1513173957619978,-1,-1,-2,-1,-1,-1,-3,0
1513173957619978,-1,-1,-4,-1,0,-2,-2,-1
1513173957636480,-4,-4,-1,0,-1,0,0,0
1513173957636480,-2,-1,-1,0,-1,-1,-1,-3
1513173957637981,0,-1,0,-1,-1,-2,-1,-2
1513173957637981,0,-1,0,-1,-2,-2,-1,-1
1513173957659011,1,0,-2,-2,-1,-1,-1,-1
1513173957659011,-2,-2,-1,1,-1,-2,-1,-2
1513173957660497,-1,-2,0,0,0,-1,-1,-1
1513173957660497,-2,-1,-2,-1,1,0,-2,-1
1513173957673505,1,-1,-1,0,1,-2,-1,-2
1513173957673505,-1,0,-2,-1,-1,0,0,-1
1513173957680013,-2,0,-1,0,0,-2,-1,0
1513173957680013,-2,-1,-1,1,-2,-1,-2,0
1513173957696539,-1,-1,-2,-1,-2,-1,-2,-1
1513173957696539,0,0,-2,-2,-1,-1,-1,-1
1513173957698035,-2,-1,-2,0,1,-1,-1,0
1513173957698035,-1,-2,0,-1,-1,-1,1,-2
1513173957719061,-1,-3,-1,-3,-1,-2,-2,-1
1513173957719061,1,-1,0,-1,-4,0,-2,0
1513173957720559,1,-1,-2,-3,-2,-2,-1,-1
1513173957720559,-1,-1,-1,-1,0,0,0,-1
1513173957733557,-1,0,-1,-2,0,0,0,-2
1513173957733557,-2,0,-1,-1,-3,-1,-1,-2
1513173957740052,-1,-1,-1,-2,1,0,0,-2
1513173957740052,0,-1,0,0,-1,-2,-2,-2
1513173957756578,-1,0,-1,0,-1,0,1,-1
1513173957756578,-3,-2,-1,-1,1,0,-2,0
1513173957758077,-1,-1,-2,0,-1,0,-1,-1
1513173957758077,0,0,-2,-1,-1,-1,0,0
1513173957779080,-2,0,-4,-1,-3,-2,-1,-2
1513173957779080,-1,-4,0,-2,-1,-1,-1,-1
1513173957780583,0,-1,-1,-1,-1,0,-1,-1
1513173957780583,0,-1,-1,0,0,1,0,-1
1513173957792600,0,0,-2,-1,-1,-3,-3,-2
1513173957792600,0,-1,-2,-2,-1,-1,0,-1
1513173957801605,-2,-2,-1,1,0,0,0,-1
1513173957801605,0,-3,-3,-2,-2,-3,1,-1
1513173957816609,-2,-2,-1,-1,0,0,-1,-2
1513173957816609,-1,0,1,0,-2,-1,-1,-1
1513173957818123,-1,-1,-1,-1,-2,-2,0,0
1513173957818123,-2,-2,-1,-2,-1,-1,-1,-1
1513173957839134,-1,-1,-2,0,-1,0,0,0
1513173957839134,-2,-1,-1,-1,0,-1,-1,-2
1513173957840624,-1,1,-2,-1,-2,-1,0,-1
1513173957840624,-1,1,-2,-2,-1,-2,-1,0
1513173957852649,0,-1,0,-1,0,-1,-2,-2
1513173957852649,0,-1,0,-1,-1,0,-1,-2
1513173957861648,-1,-2,-2,0,-1,0,-2,-3
1513173957861648,-2,-1,-1,-1,-1,-2,-1,-1
1513173957876649,0,0,-2,-2,-1,0,-2,-1
1513173957876649,-1,-2,-2,-1,-1,-1,-1,-2
1513173957878153,-1,-2,-3,-1,-2,-2,-1,0
1513173957878153,0,-2,0,0,-1,-1,-1,1
1513173957906716,-1,-1,0,-2,0,-3,-1,0
1513173957906716,-1,-1,-1,-2,-2,0,-2,-2
1513173957908217,-1,-1,0,0,0,0,0,-3
1513173957908217,-2,-1,0,0,-1,0,-1,-2
1513173957912719,-2,-2,-1,0,0,0,-1,1
1513173957912719,-1,0,-2,-1,0,0,1,-2
1513173957921725,0,-1,-1,-1,0,-4,-2,0
1513173957921725,-2,-3,-1,-3,-1,-1,1,-1
1513173957936752,-2,-1,-1,0,-1,-3,-1,-1
1513173957936752,-1,-2,-2,0,0,-3,-1,-1
1513173957938236,-1,-1,-1,-2,-1,2,-2,-2
1513173957938236,-1,-2,-2,0,-2,1,0,-1
1513173957958760,-2,-1,-1,-1,-1,-1,0,-2
1513173957958760,-1,-1,-3,-2,-1,-1,-1,-1
1513173957960763,-1,-2,0,0,1,-1,-1,-1
1513173957960763,0,-2,-2,0,-1,-1,-2,-1
1513173957972761,0,-1,-1,0,-3,0,-1,-1
1513173957972761,0,-1,0,0,-1,-1,-2,-1
1513173957981767,-1,0,-1,-1,-2,0,0,0
1513173957981767,-2,-1,-1,-1,-1,0,0,-1
1513173957996276,0,-1,0,-1,0,-1,-1,-3
1513173957996276,-2,1,0,-3,-2,-2,0,-3
1513173957998277,-1,0,-2,-2,-1,-2,-2,0
1513173957998277,0,-1,-1,0,-1,-2,-1,-1
1513173958018793,-1,1,-1,-1,-1,-1,0,0
1513173958018793,-1,-1,1,-2,-1,0,-1,-1
1513173958020794,-1,-1,0,1,0,-2,0,-1
1513173958020794,-1,0,-4,-2,0,-1,-1,0
1513173958032481,-1,-2,0,0,0,-2,-2,-1
1513173958032481,-2,-1,-1,-1,0,-1,-1,-1
1513173958041485,-2,-1,0,-3,-1,-1,-1,0
1513173958041485,1,-2,-1,0,-2,0,0,-2
1513173958056495,-2,-1,-1,-2,-1,0,-2,-2
1513173958056495,-1,-2,-2,-1,-1,0,0,1
1513173958058006,-1,-2,0,0,-2,-1,-2,-1
1513173958058006,-2,0,0,0,0,-2,-2,-1
1513173958079026,-2,-2,-2,-2,0,0,-2,-1
1513173958079026,-1,-1,-1,-1,-2,-1,-1,-2
1513173958080512,-2,-2,-1,0,-2,0,-1,0
1513173958080512,-2,0,-2,-2,-2,-1,-2,-1
1513173958093054,-1,-2,0,1,-2,0,-1,-1
1513173958093054,-2,-2,-1,-2,0,-1,1,-1
1513173958101560,-3,-5,0,0,1,0,1,-1
1513173958101560,-1,-1,-2,-1,-1,0,-2,-1
1513173958116596,-2,-2,-2,-2,-1,-1,-1,-2
1513173958116596,0,-1,-1,0,-2,-1,-2,0
1513173958118073,0,-2,-2,-2,-1,-1,1,-1
1513173958118073,-1,-1,-1,-2,0,0,0,1
1513173958139094,-2,0,-1,-2,-2,-1,-1,-1
1513173958139094,-2,2,-2,-1,-1,0,-1,-2
1513173958140590,-2,1,-1,-1,-2,-2,0,-1
1513173958140590,0,-2,0,2,-1,-1,-1,-1
1513173958153096,-1,1,-1,0,-1,-1,-1,-3
1513173958153096,-2,-2,0,-1,-2,-2,-2,1
1513173958161602,0,0,-1,-2,0,-2,-1,-1
1513173958161602,-1,-1,-1,0,-1,-2,0,-1
1513173958176112,-1,0,0,-2,-1,-1,1,0
1513173958176112,0,-1,0,-1,-2,0,-2,-3
1513173958182637,0,0,-2,-1,-1,-1,-2,-1
1513173958182637,-1,-1,-2,-2,0,-2,-2,0
1513173958199128,-1,-1,-1,-1,-2,-2,-2,2
1513173958199128,-1,-1,-2,-1,-1,0,-1,-2
1513173958200630,0,-1,-3,-2,-2,-3,-2,0
1513173958200630,-1,-1,-1,0,-1,-2,-2,-2
1513173958221644,0,-3,-3,-1,-2,-2,-1,-2
1513173958221644,-2,-2,-1,0,-2,-1,0,0
1513173958223145,-4,-5,1,0,0,-2,1,0
1513173958223145,-1,0,-2,-1,0,0,-2,-1
1513173958235656,-1,-2,-1,-1,0,0,-1,-1
1513173958235656,-3,0,0,-1,-1,-1,-1,-1
1513173958242659,-1,0,-1,1,-1,-1,-1,-1
1513173958242659,-1,0,-2,-2,-1,-1,0,0
1513173958259171,-1,-1,-1,-2,-3,-1,-1,-1
1513173958259171,1,-1,-1,-2,0,-1,-1,-3
1513173958260672,-1,0,-2,-2,-2,1,-1,2
1513173958260672,0,-2,0,0,1,-2,-2,1
1513173958281687,-1,1,-2,-1,-1,-2,-1,-1
1513173958281687,0,-1,-3,-1,0,-2,-2,-1
1513173958283190,0,-1,-1,0,-2,-2,-2,-1
1513173958283190,-1,-2,-1,-1,-2,-1,0,-2
1513173958295709,-1,0,-1,0,0,-1,0,0
1513173958295709,-1,-2,0,-1,-1,-1,-2,-2
1513173958304228,-3,1,-1,1,0,0,0,0
1513173958304228,-2,-2,-3,-1,-1,-1,-2,-1
1513173958319274,-1,-3,-3,-4,-1,1,1,-2
1513173958319274,-1,-2,-1,-2,0,0,-3,0
1513173958321251,-1,-1,-2,-3,-2,-1,-1,-1
1513173958321251,-1,-1,0,-2,-2,-1,-1,0
1513173958341730,0,0,-1,0,1,0,-2,-1
1513173958341730,-1,-2,0,0,-2,-2,-2,-1
1513173958343233,2,0,-2,-1,-2,-1,0,-1
1513173958343233,0,1,-1,-2,-3,-2,-1,-2
1513173958355740,-3,-4,0,1,-1,-2,0,1
1513173958355740,-1,1,-1,-2,-2,0,-1,-1
1513173958362759,-1,-2,-1,-1,-2,-2,0,-2
1513173958362759,0,-2,-2,-1,-1,0,-2,-2
1513173958379263,0,0,-1,-2,-2,-1,0,3
1513173958379263,-2,-1,-1,1,-1,-2,1,-1
1513173958380764,-1,-2,-1,-1,-1,-2,0,1
1513173958380764,-1,0,-3,-1,-2,-2,-1,-2
1513173958401272,-1,-1,0,0,-1,-2,0,-1
1513173958401272,-2,1,0,0,-2,0,7,6
1513173958403273,0,-2,-1,-2,0,-1,-6,-6
1513173958403273,0,-1,-1,-1,1,-1,-2,-3
1513173958415805,-2,-1,-1,-2,-1,-2,-3,-3
1513173958415805,0,-1,-2,-2,-2,-1,-2,-3
1513173958422788,0,-2,-4,-1,-1,-1,3,3
1513173958422788,-3,-2,-3,-1,-2,-3,-1,1
1513173958438820,-1,0,-1,-3,-2,-2,-2,-2
1513173958438820,-3,-1,-2,0,-1,-2,-1,-1
1513173958440299,0,-2,0,-1,-3,0,-4,-1
1513173958440299,-2,-3,-2,-1,-1,1,0,0
1513173958461388,-1,1,-1,-1,0,1,0,-2
1513173958461388,-2,-1,-1,-3,-2,-3,-4,-3
1513173958462878,-1,1,1,-1,0,0,-2,1
1513173958462878,-2,-1,-1,0,-1,-2,0,1
1513173958475904,-1,-2,-1,-2,0,0,-1,-1
1513173958475904,0,-1,-1,-2,-2,-1,-1,-3
1513173958482892,-2,-1,-2,-1,0,-2,-2,-1
1513173958482892,0,-1,-1,0,-1,0,1,0
1513173958498903,-1,0,1,-2,-1,-2,-1,-1
1513173958498903,-1,0,-2,-1,0,-1,-3,-2
1513173958500406,1,1,-2,-1,0,0,1,1
1513173958500406,-1,0,-1,-1,-2,0,-1,-1
1513173958521426,-1,-1,-1,-1,-1,-2,-3,-3
1513173958521426,0,-2,-1,-1,1,-1,-1,-1
1513173958523422,-1,0,-2,-2,-1,0,-1,-2
1513173958523422,-1,1,-2,0,0,1,2,2
1513173958535929,-1,0,-1,0,-1,0,-2,-2
1513173958535929,0,0,0,-1,-1,1,-3,0
1513173958542433,1,-2,-2,-1,-1,-1,-1,-3
1513173958542433,-1,-1,-1,-1,1,-1,-1,1
1513173958558966,0,-2,1,-3,-3,-2,0,-3
1513173958558966,-1,0,-1,-1,-1,-1,0,-4
1513173958560447,-2,0,-1,0,0,-2,-2,0
1513173958560447,-1,-1,-1,0,-2,0,-1,-1
1513173958581962,-2,-3,-1,-1,-1,-3,0,1
1513173958581962,-2,0,0,0,0,0,-2,-1
1513173958583488,-2,0,-2,0,0,-1,-1,1
1513173958583488,-1,-1,-2,0,-1,-2,-1,-1
1513173958595471,-1,0,-2,-1,0,-1,-4,-2
1513173958595471,2,2,-3,-1,-2,-2,0,0
1513173958602475,0,-1,-2,-2,-1,-1,-1,-1
1513173958602475,0,-2,-1,-1,0,-2,-2,0
1513173958619003,-3,1,-1,1,-1,-2,-2,-3
1513173958619003,-1,-2,0,0,-2,-1,0,-2
1513173958620506,-1,-2,0,0,-1,-1,-1,0
1513173958620506,0,-2,-1,-1,-1,-1,-1,-1
1513173958642012,1,3,-2,-2,-1,0,-2,-3
1513173958642012,-2,-3,0,-1,1,-1,0,-1
1513173958649038,-1,-2,0,-1,0,0,-1,-2
1513173958649038,-2,-2,-1,0,-1,-2,0,-2
1513173958656016,-2,-2,-2,0,-1,0,0,-1
1513173958656016,-1,-1,-1,0,0,-1,-1,-1
1513173958662548,-1,-2,-1,-1,-1,-1,-1,0
1513173958662548,-1,0,-2,-2,-1,-1,-1,-2
1513173958679060,-1,-1,-1,-1,0,-2,-1,-2
1513173958679060,0,-1,0,-2,-1,0,-2,0
1513173958680533,0,-2,0,0,-1,-2,-1,-1
1513173958680533,-2,1,0,-1,-1,-1,-2,-2
1513173958701557,-1,-3,-1,-1,-2,-1,-1,1
1513173958701557,-1,-2,-1,-2,0,-1,-2,-2
1513173958703050,-3,0,-2,-1,-1,0,-1,-1
1513173958703050,0,-1,-2,-1,-1,0,-1,-1
1513173958715570,-2,-1,0,-1,0,-1,0,-2
1513173958715570,-2,-1,1,-1,-2,-1,0,-3
1513173958723062,0,0,-1,-2,-1,0,-2,-1
1513173958723062,2,-2,-3,-1,-1,-1,-2,-1
1513173958739094,-1,0,-1,0,-2,-1,-1,-1
1513173958739094,-2,-1,-2,-1,-1,-2,-2,0
1513173958740574,0,-2,-3,-1,-3,0,-2,0
1513173958740574,-2,-2,0,-2,0,1,1,0
1513173958762104,-1,-3,-2,0,-1,-2,-2,-1
1513173958762104,-4,-2,-1,-1,1,-1,0,-1
1513173958763590,-1,-1,0,-1,0,-1,0,-1
1513173958763590,0,-1,-1,-3,0,-1,0,-1
1513173958784161,0,-1,-3,-1,0,0,1,0
1513173958784161,-1,0,0,-1,-3,-2,-2,-1
1513173958785645,-1,-1,-2,-1,-2,-2,-1,-1
1513173958785645,-2,-1,-1,-1,-1,-1,-2,-3
1513173958799155,-3,-1,-1,-2,0,-2,0,-3
1513173958799155,-1,-2,-2,0,-2,0,-2,0
1513173958800657,-1,-1,-1,-1,-1,-1,-1,0
1513173958800657,-2,0,0,1,-1,0,-1,1
1513173958820682,-1,0,-1,-2,-1,-2,-2,-2
1513173958820682,1,1,-2,-3,-1,-1,0,-1
1513173958829182,-2,-4,-2,0,-1,-2,0,0
1513173958829182,-2,-3,-1,-3,-2,-1,0,-1
1513173958835199,-2,-1,-2,-1,0,0,0,-2
1513173958835199,0,-1,-3,-1,-2,-2,-1,-1
1513173958844698,0,-1,-1,0,-1,-1,-1,0
1513173958844698,-1,-1,-3,1,-1,-1,0,1
1513173958859194,-2,-1,0,1,-2,0,0,-1
1513173958859194,0,-2,1,-1,0,-2,0,-2
1513173958860712,1,-2,-2,-1,1,1,-2,0
1513173958860712,-1,-2,-1,-1,-1,-2,-2,-1
1513173958881731,-1,1,-2,-3,-2,1,-2,-2
1513173958881731,-1,1,-1,-1,-2,-2,-3,-3
1513173958883749,-1,-1,-2,-1,-2,0,0,0
1513173958883749,-1,0,1,-2,-1,-2,-2,0
1513173958895296,-2,0,0,-1,-2,-2,-2,0
1513173958895296,0,-1,-1,0,-1,-1,0,-1
1513173958904302,-1,0,-1,-1,-1,-1,-1,0
1513173958904302,-1,-1,-3,-2,0,-1,-2,0
1513173958918814,-1,-1,1,-2,-1,-2,-1,-1
1513173958918814,-2,-2,-1,1,-1,-1,-2,0
1513173958920313,-4,-4,0,-1,-1,-3,0,-2
1513173958920313,0,-3,-3,-1,-1,1,-2,-2
1513173958941332,2,0,-1,0,-1,-1,0,2
1513173958941332,-1,-2,-1,-2,0,-1,-1,-1
1513173958943333,-1,0,-1,-1,0,-1,-2,-1
1513173958943333,-2,-1,-1,0,0,-3,0,-1
1513173958955342,-2,-2,0,-1,-1,-2,-2,-1
1513173958955342,-1,-1,-2,-1,-1,-3,-1,-1
1513173958969859,1,0,-1,0,-2,-2,-1,0
1513173958969859,-1,-1,0,-1,-2,-1,-1,-2
1513173958978857,0,0,-1,-1,-1,0,-1,-1
1513173958978857,-2,-1,0,1,0,0,0,-1
1513173958980356,1,0,-1,-1,0,-1,1,-1
1513173958980356,0,0,-2,0,-2,0,-2,-2
1513173959001384,-1,1,-1,-1,-1,0,1,1
1513173959001384,0,0,0,-2,-2,0,-1,0
1513173959002873,-1,0,-3,-1,-1,1,-3,0
1513173959002873,-1,0,-2,0,-1,-1,-2,-1
1513173959014882,0,-2,-3,-1,-2,-2,-2,-4
1513173959014882,-1,-1,-1,-1,0,0,0,-1
1513173959023886,-1,-2,-2,0,-1,-1,-1,-1
1513173959023886,-2,-2,-2,-1,-2,-2,-1,-1
1513173959038897,-2,-3,1,-2,1,0,-2,-1
1513173959038897,-2,-1,-1,0,-1,0,0,0
1513173959040398,-2,0,-2,-2,0,-2,0,0
1513173959040398,-3,-4,1,1,-1,0,0,0
1513173959068929,-1,1,0,-3,0,-1,-1,-2
1513173959068929,-1,0,-1,1,0,-1,-2,0
1513173959070423,-1,-1,-1,-2,-1,-3,-1,-1
1513173959070423,1,0,-3,0,-1,-2,-1,-2
1513173959074925,0,0,-2,-2,-1,-2,0,-1
1513173959074925,0,-1,-2,-2,-1,-1,-1,-1
1513173959083930,-1,0,-1,0,-1,0,0,-2
1513173959083930,-2,-1,0,-1,0,-3,-1,-2
1513173959098967,-3,-2,-1,0,0,-1,-1,-2
1513173959098967,-3,-1,-2,-1,-3,-3,-1,-1
1513173959100458,-1,-2,-1,0,-1,-1,0,0
1513173959100458,0,-2,-1,-3,-2,-1,-1,-1
1513173959121537,0,0,-2,-2,-3,-1,0,-1
1513173959121537,-1,-1,-1,-1,-2,0,-1,-2
1513173959122978,-1,-1,0,-2,0,-2,-2,1
1513173959122978,-2,-1,1,-1,-1,1,-2,-1
1513173959135001,-2,-2,0,0,-2,-2,0,-2
1513173959135001,-2,-3,1,-1,-1,-1,-1,-3
1513173959144990,-1,0,-2,-1,-1,0,-2,-2
1513173959144990,-2,0,-2,0,1,0,-4,0
1513173959158999,-1,0,-2,-2,-2,1,4,5
1513173959158999,0,-2,1,-1,-2,-1,0,-5
1513173959160501,0,-2,-2,-1,-1,0,1,0
1513173959160501,0,-2,-2,-1,-2,-2,-7,0
1513173959181518,-1,2,-2,0,0,0,2,-3
1513173959181518,0,0,-2,0,-2,-3,-1,4
1513173959183031,1,1,-1,0,-1,-1,7,7
1513173959183031,-1,0,-2,0,-1,1,-9,-7
1513173959204034,-3,-1,-1,-1,-1,-1,1,0
1513173959204034,-2,-1,-1,-2,-1,0,0,-4
1513173959205532,-1,-3,-3,1,0,-2,-2,-3
1513173959205532,-2,0,-2,-2,-2,-2,4,2
1513173959219044,-1,-1,1,0,0,0,-3,-2
1513173959219044,-2,-3,-1,-3,1,-1,0,-1
1513173959220546,-1,-2,0,-1,0,-2,-6,-3
1513173959220546,2,-2,-1,0,0,0,5,7
1513173959241561,-4,-3,0,-2,-3,-3,-4,-4
1513173959241561,-1,-1,-1,-1,-1,-1,-3,1
1513173959243059,-1,-1,-1,-2,-2,0,-4,0
1513173959243059,2,0,-1,-2,-1,-3,2,-3
1513173959264085,-1,-1,-3,0,-2,-1,0,-1
1513173959264085,1,-1,-1,-1,0,-2,-5,2
1513173959265579,-2,0,-1,-2,0,1,-2,-3
1513173959265579,-3,-1,0,-1,-1,-1,0,1
1513173959279106,-2,0,1,-1,-1,-1,0,0
1513173959279106,-1,-1,-3,0,-2,-2,1,-3
1513173959280607,-3,-2,-2,0,-2,1,-2,-3
1513173959280607,0,0,0,1,0,-1,2,0
1513173959301610,-1,-1,-2,-2,-2,0,-3,-2
1513173959301610,-2,0,-1,0,-1,0,-2,-2
1513173959303111,0,-1,-2,-1,0,-2,-2,0
1513173959303111,-2,-1,-2,-2,-2,-1,0,-2
1513173959324143,-2,-1,-2,-1,-1,-2,-3,0
1513173959324143,1,2,1,-3,-2,-1,0,-1
1513173959325644,-2,-6,0,-1,-1,-1,11,6
1513173959325644,-2,2,0,0,-1,-2,-24,-13
1513173959338156,-1,-1,-2,-2,0,-1,-2,-2
1513173959338156,0,-2,-3,-3,-2,-2,-3,-3
1513173959345158,0,1,-3,-2,-2,-2,-1,0
1513173959345158,-2,-3,-2,-2,-2,-1,5,2
1513173959361670,0,-2,-1,0,-1,-1,-4,-5
1513173959361670,0,0,0,-2,-1,-3,2,8
1513173959363172,-1,-1,-2,-1,-1,-2,1,-2
1513173959363172,-3,0,-1,0,-2,0,3,1
1513173959384686,-1,0,-2,-1,-2,-1,-2,-1
1513173959384686,-2,-2,-1,-1,-1,-1,1,-1
1513173959386211,0,1,0,-2,-2,0,-5,-2
1513173959386211,-1,0,-1,-2,-1,-1,1,-1
1513173959398195,0,-1,-2,-2,0,-3,-2,-3
1513173959398195,-1,-1,0,0,-1,-1,-1,-4
1513173959405200,0,-3,-1,-2,0,0,-3,-2
1513173959405200,0,1,0,-1,0,-1,0,0
1513173959421215,-2,-1,0,0,-1,0,2,0
1513173959421215,0,-1,-3,0,-3,1,-1,-3
1513173959423215,0,0,0,-1,-1,-1,-3,-2
1513173959423215,0,-1,-1,-1,0,-1,2,2
1513173959444230,-1,-2,-2,-1,-1,-3,-2,0
1513173959444230,-3,-1,-3,0,0,0,-3,-3
1513173959445732,0,0,-2,0,-1,0,4,3
1513173959445732,0,-2,1,-1,-1,-4,-13,-10
1513173959458260,0,-1,-1,-2,-2,-1,-1,-2
1513173959458260,-1,-1,-1,-1,0,0,-3,-3
1513173959465245,0,-1,-1,-1,-2,-1,-2,-2
1513173959465245,0,-1,-2,0,0,-3,4,4
1513173959481271,0,0,0,0,0,-2,-1,-3
1513173959481271,-1,-2,-2,-2,-2,0,-1,-1
1513173959483256,-2,-2,-2,-1,0,-2,-3,-1
1513173959483256,-1,-2,-2,-2,-4,-2,0,-1
1513173959503773,-1,-2,0,0,-3,-1,-3,-1
1513173959503773,0,-2,0,0,0,0,2,2
1513173959505771,-1,-1,-2,0,-3,-1,-3,-2
1513173959505771,-1,0,-2,-1,-1,1,1,0
1513173959517780,-1,1,-2,-3,-2,-2,-1,-1
1513173959517780,0,-2,0,-1,0,0,0,-1
1513173959526786,1,0,-1,0,0,0,-3,-2
1513173959526786,-4,-6,-1,0,0,0,3,1
1513173959541797,-1,-1,-1,0,-2,1,-1,1
1513173959541797,-2,0,-2,-2,-3,-2,-2,-3
1513173959543298,-3,-3,-1,-1,-1,-3,-2,-2
1513173959543298,1,-1,0,-2,-2,-1,1,2
1513173959571343,-1,-2,0,-2,-1,-3,-2,-1
1513173959571343,0,-1,-2,0,-1,0,-1,0
1513173959573321,-1,0,-2,-3,-2,-2,0,-1
1513173959573321,-3,-1,-1,-1,-1,0,1,0
1513173959578348,-2,-2,0,0,0,0,-1,-1
1513173959578348,-2,0,-1,-1,-1,-1,-2,-2
1513173959584911,1,-1,-1,-1,0,-1,-1,-1
1513173959584911,-1,-2,-2,0,-2,-1,0,-1
1513173959601419,-2,-2,0,-1,-1,-2,-1,0
1513173959601419,-2,0,-1,-1,0,0,-1,-1
1513173959602922,-2,0,-2,-2,0,-1,-2,-1
1513173959602922,-1,1,-3,-1,-1,-2,0,-1
1513173959623925,1,1,0,0,0,-1,-2,-2
1513173959623925,1,2,-3,-3,-1,-2,-2,-2
1513173959625424,0,0,0,-1,-1,-1,-2,-1
1513173959625424,0,0,-1,-3,-1,-2,-2,-2
1513173959638421,-2,-1,2,-2,-1,0,0,-3
1513173959638421,-1,-2,-2,-2,0,-2,-1,-1
1513173959644926,-1,-3,-2,-1,-2,-1,1,3
1513173959644926,0,0,-1,0,0,0,1,1
1513173959661453,-1,-1,-2,-2,-1,-2,-1,0
1513173959661453,0,-2,0,-2,-1,-2,-2,-2
1513173959662938,0,-2,-1,-1,-2,0,-3,-1
1513173959662938,-1,-2,-2,0,-2,-1,-1,-2
1513173959683974,-2,-1,-2,-2,-1,-1,-1,-2
1513173959683974,-2,0,-2,0,0,-2,-2,-2
1513173959685477,-2,-2,0,-2,-1,-2,-1,0
1513173959685477,0,1,-3,-2,-3,1,-1,0
1513173959697472,0,-1,0,-1,-2,0,-1,0
1513173959697472,-2,-2,-1,1,-1,-1,-1,-1
1513173959706471,0,-1,-2,0,-2,-2,-1,-1
1513173959706471,-1,-2,-1,-1,0,-1,0,-1
1513173959721482,-2,-1,-3,-2,-2,-1,-1,-3
1513173959721482,0,-3,-2,0,-1,-1,0,0
1513173959722981,1,-3,-2,0,-2,-1,-1,0
1513173959722981,-2,-6,1,-1,-1,0,-1,0
1513173959743995,-2,0,-1,-2,-2,-3,-2,1
1513173959743995,-2,0,1,-1,-2,-2,-1,-1
1513173959745496,-2,-1,-1,-1,0,1,-1,-1
1513173959745496,-1,0,-1,-1,-1,-4,-3,-4
1513173959757504,0,-2,-1,0,-2,-1,-1,-1
1513173959757504,0,-2,-2,-1,-1,0,1,0
1513173959774017,0,-1,-2,-3,-2,0,-2,-1
1513173959774017,-1,0,-2,-1,-1,-2,-1,0
1513173959781538,-2,0,0,-2,0,-1,0,-1
1513173959781538,-1,2,-1,0,-2,-1,-3,0
1513173959783023,-1,-1,-2,0,-2,-1,-2,-1
1513173959783023,-2,0,-2,-1,-1,0,-3,-4
1513173959804064,0,0,-1,1,0,2,1,1
1513173959804064,0,-1,-1,-3,-1,-4,1,-1
1513173959805554,0,0,0,-1,0,-1,1,1
1513173959805554,-1,-1,0,-1,0,0,-2,-2
1513173959817584,-1,-1,0,-2,-2,0,0,0
1513173959817584,0,-1,-2,-2,-1,1,-1,-2
1513173959826570,-1,0,-1,-2,0,-2,0,0
1513173959826570,0,-1,-1,-1,-2,-1,-1,-1
1513173959841593,-1,1,-1,-1,-1,-2,-1,-2
1513173959841593,-3,-1,0,0,-1,-2,1,0
1513173959843081,1,0,-2,0,-2,-2,-2,-1
1513173959843081,-3,-1,-1,1,-2,0,0,0
1513173959871613,-1,-1,-2,1,0,-1,-2,-2
1513173959871613,-2,-2,0,-1,-2,1,0,1
1513173959873103,-2,-1,-1,-2,-1,-1,-2,0
1513173959873103,-1,-1,0,-3,-3,-2,-3,-2
1513173959877617,-1,-3,-1,0,-2,-2,-1,0
1513173959877617,-1,0,0,-1,0,-1,-1,-1
1513173959886612,-1,-2,-2,-1,-1,0,0,-1
1513173959886612,-1,1,-1,-1,-1,-2,-1,0
1513173959901621,-2,0,-1,-2,-2,-1,-2,-3
1513173959901621,0,-4,0,0,-1,0,-3,-1
1513173959903137,0,-1,0,-2,1,-1,0,0
1513173959903137,-3,-2,-3,0,0,-1,-2,-1
1513173959924638,-1,0,-1,-2,0,-2,-1,-2
1513173959924638,0,-1,-2,0,-1,-1,0,-1
1513173959926140,-1,-2,-2,-1,-2,0,-1,-2
1513173959926140,1,2,-2,-3,-2,-3,-1,0
1513173959937671,-1,1,-1,-1,-3,0,-1,0
1513173959937671,-1,-2,-2,-2,-1,-2,-2,-2
1513173959946655,0,1,-2,-1,0,-2,1,0
1513173959946655,1,-2,-3,-2,-1,0,-1,0
1513173959962668,-2,-1,-2,-1,-1,-1,0,-2
1513173959962668,0,-2,-2,-1,-2,-1,-2,-2
1513173959964166,-2,0,-2,-2,-1,-2,-2,-3
1513173959964166,0,-2,-2,-1,-2,-1,3,1
1513173959984204,-2,-1,0,-3,-1,0,-1,-3
1513173959984204,-1,0,1,-2,0,-1,-1,1
1513173959985706,0,-2,-2,-1,-2,-1,-1,1
1513173959985706,-1,-2,1,1,0,-1,-1,-2
1513173959997731,-3,-3,-2,-3,-3,-2,-1,-1
1513173959997731,0,-1,-2,-2,0,0,-1,-3
1513173960006722,-3,0,-2,-1,0,0,-1,-1
1513173960006722,-2,-3,-2,-1,-1,-1,-3,-2
1513173960021230,0,0,-1,1,-1,-1,0,0
1513173960021230,0,0,-1,-1,-1,-1,2,0
1513173960023233,-1,0,-1,-1,-1,0,0,-1
1513173960023233,-2,-4,-1,-2,0,0,0,-1
1513173960043746,-1,-2,0,-1,0,-2,-1,-1
1513173960043746,-1,0,-2,-1,-2,-2,-2,0
1513173960045747,1,-1,-1,-1,0,0,1,1
1513173960045747,-1,2,-1,-1,-2,-3,-1,-1
1513173960057756,0,-3,-1,-1,0,-1,-1,1
1513173960057756,-1,-2,0,0,-2,-3,0,0
1513173960066763,0,-2,-1,0,-2,0,-2,-2
1513173960066763,-1,-2,-1,-1,-2,0,-1,2
1513173960081288,-1,-1,-3,-1,-1,-1,-1,-2
1513173960081288,0,-1,-2,-1,0,-2,-1,0
1513173960083273,-2,-2,-1,-1,-1,-1,-2,-3
1513173960083273,-1,0,-2,-3,-2,-1,1,-3
1513173960103811,-3,-1,-2,-1,0,0,-3,-1
1513173960103811,-2,-1,-2,-1,-1,0,-1,-1
1513173960105793,-1,1,-1,-1,0,-3,-2,0
1513173960105793,-2,1,0,-1,0,1,-2,-1
1513173960126316,-2,-1,-2,0,-2,-2,-1,-1
1513173960126316,-1,-2,0,-1,-1,-1,-2,-3
1513173960128308,1,-3,-1,1,-2,1,-1,2
1513173960128308,1,-2,-2,-2,-1,-1,-2,-1
1513173960141318,-1,-2,0,-3,-1,0,1,-1
1513173960141318,2,1,-5,-2,-1,0,-2,0
1513173960143334,-2,-2,0,0,-2,-1,-1,-3
1513173960143334,-1,-2,-3,-4,-1,-1,0,-1
1513173960163851,-1,-1,-1,-2,0,-1,-1,0
1513173960163851,0,0,-1,0,-2,-1,-2,-1
1513173960165854,-1,-1,-1,-2,1,-1,0,-1
1513173960165854,-1,1,-2,-1,0,-1,0,0
1513173960186370,-1,-1,2,-1,0,-1,-2,-1
1513173960186370,-2,-1,-1,-1,-1,0,-1,-1
1513173960188360,-1,-3,-1,0,-1,0,-1,0
1513173960188360,-2,1,0,1,-1,0,-3,-2
1513173960201369,-1,-1,-1,-2,-3,0,-2,-2
1513173960201369,-2,-2,0,-1,-1,-1,1,0
1513173960202858,-1,-2,-1,0,-1,0,-1,-1
1513173960202858,-1,0,2,0,0,-2,0,-1
1513173960223876,0,0,0,1,-1,-2,-1,-1
1513173960223876,0,-2,-1,-1,-1,-1,0,-1
1513173960225374,1,-1,-3,-3,-1,-2,-1,0
1513173960225374,-2,0,-2,-1,-1,-1,0,-2
1513173960246399,-1,1,-2,-2,-1,-2,-1,-2
1513173960246399,-2,-1,-1,-1,-1,0,-1,-6
1513173960247901,2,3,-2,-3,-2,-1,2,9
1513173960247901,-1,-2,0,1,-2,-2,-2,-2
1513173960260900,-1,-2,-1,-1,0,-2,-3,-2
1513173960260900,0,-2,0,0,-1,-2,0,-1
1513173960261400,-1,-1,-2,-3,-1,0,-2,-2
1513173960261400,-2,1,-1,0,-1,-1,-2,-4
1513173960283415,-1,0,-1,-1,-1,-2,-1,-2
1513173960283415,-2,-1,0,-1,0,-2,1,2
1513173960283915,0,-2,-2,-1,-1,-2,-1,-2
1513173960283915,-1,-3,-1,-2,-2,-2,1,0
1513173960305930,-2,-2,-1,1,-2,0,-3,-5
1513173960305930,-1,-1,-1,-1,-1,0,-2,1
1513173960306435,-1,-2,-2,-1,0,-1,0,-2
1513173960306435,-1,0,-2,-3,-2,0,-2,-2
1513173960320941,2,-1,0,-3,-2,-2,-1,0
1513173960320941,-2,1,1,-1,0,0,-2,0
1513173960321442,-2,-1,-2,0,-2,-2,-1,-1
1513173960321442,0,-2,-1,0,-2,-1,-2,-2
1513173960342957,-1,1,0,-1,-1,-1,-1,-1
1513173960342957,0,-3,-2,-1,-2,-2,-1,1
1513173960343957,-3,-2,0,-2,-1,1,-2,-3
1513173960343957,-1,0,-1,-1,-2,-1,0,0
1513173960365985,-1,-2,-1,0,-1,-2,-1,0
1513173960365985,2,0,-3,-1,-1,-3,-1,-1
1513173960366477,-2,-5,0,1,0,0,-1,1
1513173960366477,-2,-3,-2,-2,-1,-2,-3,-3
1513173960380496,-2,-1,0,-3,-2,-1,0,3
1513173960380496,-1,-1,-2,-2,1,-2,-2,-2
1513173960381488,0,0,-1,-1,-2,-3,-4,-4
1513173960381488,0,-1,-1,1,0,-1,1,3
1513173960403095,0,-2,0,-1,0,-1,1,1
1513173960403095,-1,-3,0,0,-2,-1,1,0
1513173960404076,-2,0,-1,-3,0,-1,-2,-2
1513173960404076,-1,-2,-1,-1,-1,0,-1,-3
1513173960425591,-2,0,-1,-1,-3,-2,-2,-3
1513173960425591,-1,0,0,0,0,-2,-2,0
1513173960426591,0,-1,-2,-1,-1,-1,-1,0
1513173960426591,0,-1,-1,-1,1,-2,0,0
1513173960440603,1,-1,-2,-2,-1,1,-3,-1
1513173960440603,-1,-1,-1,-1,-1,0,-2,-2
1513173960441603,-2,-1,0,-1,-1,-2,0,-1
1513173960441603,0,1,1,-2,-1,-2,-1,-2
1513173960463117,-1,-1,-2,2,-2,0,1,-2
1513173960463117,0,-1,-2,-1,-2,-1,0,0
1513173960464119,1,0,-1,-2,-2,0,-1,-1
1513173960464119,1,3,-3,-2,-2,-2,-3,-2
1513173960485701,-1,-2,1,-1,-1,-2,0,-2
1513173960485701,-1,-2,1,-2,0,-1,-1,-1
1513173960486646,0,0,-1,-1,0,0,-1,-2
1513173960486646,0,0,0,-1,-2,-1,-2,-1
1513173960500644,-2,-2,-2,-2,1,-1,-1,-1
1513173960500644,-1,-3,-2,0,-1,-1,-2,-1
1513173960501645,0,-1,-3,-1,-1,0,-1,-1
1513173960501645,-2,-1,0,1,-2,0,0,-1
1513173960523163,-2,1,0,-2,-2,-2,-1,-3
1513173960523163,0,-1,-1,-1,0,-1,-1,1
1513173960523661,-1,-2,-1,-1,-1,-1,-2,0
1513173960523661,0,0,-2,-4,-1,-1,-2,-2
1513173960545675,-1,-1,-1,-1,-1,-1,-1,-1
1513173960545675,0,-1,-2,-2,-1,-1,-1,-1
1513173960546676,-1,-1,-1,0,-2,-2,-3,-1
1513173960546676,-1,-3,-1,-2,-1,0,-1,-1
1513173960560709,-1,-1,0,0,0,0,-1,0
1513173960560709,-1,-1,-1,-1,-1,1,-1,0
1513173960561712,0,-1,-2,-2,-1,-1,0,0
1513173960561712,-3,-4,0,-2,0,-2,2,0
1513173960583225,-3,-2,0,1,0,-1,0,-1
1513173960583225,0,-2,-2,-1,-3,-2,-1,0
1513173960584241,-1,-3,-1,0,0,-1,-1,0
1513173960584241,-1,0,0,-1,-1,-2,-2,-2
1513173960613728,-1,0,-1,-1,-1,0,-3,-2
1513173960613728,-1,0,-2,0,1,-2,0,0
1513173960614748,-1,-2,-2,0,-2,0,-2,-1
1513173960614748,-1,0,-2,0,-1,-1,-2,-1
1513173960620749,-2,1,-1,-1,-1,-2,-3,-3
1513173960620749,-1,1,-1,0,-1,0,1,0
1513173960621748,-1,-1,-1,-3,-1,-2,-1,-1
1513173960621748,-1,-2,-2,-1,0,-2,1,-3
1513173960643249,-1,-2,0,-1,-1,-1,2,1
1513173960643249,-3,-2,0,0,1,0,0,-2
1513173960644249,-2,1,-1,-1,-1,0,-3,0
1513173960644249,-1,-1,-2,-1,-1,1,-1,-1
1513173960665763,0,1,-1,-1,1,1,-1,-2
1513173960665763,-1,-2,-3,-1,0,-2,-1,-1
1513173960666763,1,-2,-2,-1,-2,-2,-2,-2
1513173960666763,-2,-2,-1,-1,-1,-1,-3,-1
1513173960680794,-2,-4,-1,1,-1,-2,-2,0
1513173960680794,-1,-4,0,-1,-1,-2,-1,0
1513173960681782,0,1,0,1,-1,0,-1,-1
1513173960681782,-2,-1,-1,-1,-2,-1,-1,-2
1513173960702995,0,0,-2,-3,-2,-2,0,0
1513173960702995,1,0,-1,-1,0,-1,0,-2
1513173960703995,-1,-1,0,-1,-2,0,-1,-1
1513173960703995,-2,0,0,-2,-3,0,0,-1
1513173960725503,-2,-1,-1,-1,-1,-3,-2,-2
1513173960725503,-1,0,-2,-2,-3,-2,-2,-2
1513173960726502,-1,0,0,-1,0,-1,0,-1
1513173960726502,-3,0,0,0,-1,-1,-1,-2
1513173960740004,-1,0,-2,-3,-1,-1,0,0
1513173960740004,-1,0,-2,-1,-2,0,-2,-1
1513173960748039,-2,-2,-1,0,-1,-1,-1,-4
1513173960748039,1,0,-1,-2,-2,-4,-1,-1
1513173960763071,1,-1,1,0,0,0,5,9
1513173960763071,-1,-1,-1,-2,0,-2,0,-1
1513173960764072,-1,-1,-2,-1,-2,0,-1,-2
1513173960764072,-2,-1,0,-3,-1,0,-3,-4
1513173960785648,-1,-2,-2,-2,-2,-2,-2,-4
1513173960785648,1,0,-1,-2,-1,0,0,0
1513173960786590,1,2,-3,-2,-3,-2,0,1
1513173960786590,-1,-2,-1,0,1,-1,-1,-1
1513173960801600,1,0,-1,-1,-1,0,-2,-3
1513173960801600,-1,-2,-1,0,0,0,-2,0
1513173960808106,0,-2,-2,-1,0,-1,0,0
1513173960808106,0,1,-2,-1,-1,0,0,0
1513173960823613,-1,-1,-2,-1,-1,-1,-1,-2
1513173960823613,0,-3,-1,-1,0,-1,-1,-4
1513173960824115,-1,0,0,-1,-1,-1,0,1
1513173960824115,-2,-2,1,0,-1,-1,-2,-2
1513173960845629,-1,-1,0,-1,-1,-1,-3,-4
1513173960845629,0,-3,-2,0,-1,-2,0,-1
1513173960846630,-2,-3,-1,-1,-1,-2,0,0
1513173960846630,-2,-1,-3,0,-1,-1,2,1
1513173960860158,-2,0,-1,-1,-3,-2,-1,-1
1513173960860158,-2,-2,-1,0,-1,-1,-1,1
1513173960868164,-1,-2,-2,-1,-1,-2,-2,-1
1513173960868164,-1,-3,0,-2,0,-1,-3,-3
1513173960883179,0,0,0,-3,0,0,-2,0
1513173960883179,-2,0,-1,0,-1,-1,0,3
1513173960884157,-1,-1,-1,0,-1,-1,0,-2
1513173960884157,-2,0,0,-4,-4,-4,1,-1
1513173960905677,-2,-1,-1,0,-1,0,-1,-3
1513173960905677,-3,-1,-1,-2,0,-2,-2,-4
1513173960906684,0,-2,-1,-1,-1,-1,0,-1
1513173960906684,1,-2,-1,-1,0,-3,-1,-1
1513173960920205,-2,-2,-1,-1,0,0,-1,-2
1513173960920205,0,0,-2,-2,-2,0,-1,1
1513173960928189,0,-2,-1,0,1,-1,0,-1
1513173960928189,-1,-3,-1,-1,1,-3,-2,-3
1513173960943198,1,1,1,-1,-1,0,1,1
1513173960943198,-1,-1,-1,-1,-2,1,0,0
1513173960944200,-1,-1,-1,-1,-1,0,-1,-1
1513173960944200,0,0,-2,0,0,1,-1,-1
1513173960965741,-1,-1,-1,-2,-1,-1,-2,-1
1513173960965741,0,-2,0,-3,0,-1,-4,-2
1513173960966742,0,-2,-1,-1,-1,0,-1,0
1513173960966742,-2,-1,0,-1,-1,-1,0,-1
1513173960980251,-1,-2,-3,0,0,-2,-1,-3
1513173960980251,0,-1,-3,-1,-1,-2,-1,-2
1513173960988233,-3,0,-1,-3,-1,-1,0,-4
1513173960988233,1,0,1,-1,-1,-1,1,5
1513173961003258,-2,-2,1,-1,-1,-2,-3,-3
1513173961003258,1,1,-1,0,-1,-1,3,6
1513173961003741,-2,-1,-2,0,-2,-1,-2,-1
1513173961003741,-3,-2,-1,-2,-4,1,-3,-3
1513173961025767,-2,-1,0,-1,-1,-1,-1,-1
1513173961025767,0,-2,1,3,-2,0,-2,-3
1513173961026772,-1,-1,-1,-2,1,-1,0,-1
1513173961026772,-1,0,-1,-1,-1,-1,0,-1
1513173961049278,-1,-3,0,0,1,-1,-1,-1
1513173961049278,-2,-3,-1,-2,0,-1,-2,-4
1513173961050275,0,0,-1,-1,0,-1,-1,2
1513173961050275,-1,0,-2,1,0,-2,-1,0
1513173961071301,0,0,-1,0,-3,-2,0,-1
1513173961071301,-2,-2,-1,1,0,-1,-2,-1
1513173961072295,0,-2,-2,-1,-2,-2,-2,0
1513173961072295,-1,-1,-2,-2,-1,0,-1,-2
1513173961093816,-1,-2,0,-1,0,-1,0,-1
1513173961093816,-1,-2,0,-4,-2,-1,-1,0
1513173961094818,-1,-1,-1,-1,-1,0,-2,-4
1513173961094818,-1,-1,-1,-2,-2,-1,-2,-1
1513173961108815,0,-1,-1,-1,-1,-1,-1,-1
1513173961108815,-1,1,0,-1,-1,-2,-1,-1
1513173961109816,0,-2,-2,-1,-1,-2,-1,0
1513173961109816,-2,-2,1,-1,0,-3,-3,-3
1513173961123325,-1,-1,-3,-2,-2,-1,-1,0
1513173961123325,0,-2,-2,0,-1,-1,0,0
1513173961124327,-1,-2,-2,0,-1,-1,-1,-2
1513173961124327,0,-1,-1,-1,0,-2,0,-3
1513173961145842,-2,-1,-1,-2,-1,1,-2,0
1513173961145842,0,0,-1,0,-1,-2,-2,-3
1513173961146354,0,-2,-1,-1,-2,1,0,0
1513173961146354,-1,-4,-1,0,-2,1,-1,0
1513173961168875,-1,-1,-2,-1,1,-2,0,0
1513173961168875,-1,-2,-3,0,-1,-2,0,-1
1513173961169858,-1,-2,0,1,-1,-1,-1,-1
1513173961169858,-1,-1,1,0,-1,-1,0,0
1513173961183382,-2,-1,-1,-3,0,-1,-3,-3
