timestamp,emg1,emg2,emg3,emg4,emg5,emg6,emg7,emg8
1517203627554066,-1,-2,-2,-2,-2,-3,-1,-1
1517203627554066,0,1,-1,-1,-2,-1,-1,-1
1517203627554565,0,-1,-1,-2,-2,0,0,-2
1517203627554565,1,0,-1,-1,-1,1,-2,-1
1517203627568574,-3,-2,-1,0,-2,-1,-2,-1
1517203627568574,0,-2,-1,0,-2,1,-1,-1
1517203627569073,-2,-3,-1,0,0,-2,-2,0
1517203627569073,-2,-2,1,0,-1,-1,-2,0
1517203627591591,0,-1,-1,1,0,0,0,-3
1517203627591591,0,-2,-3,-1,-1,-2,-2,0
1517203627592592,0,-2,-1,-1,-2,-2,-1,-2
1517203627592592,-1,-1,-2,0,-2,1,-1,-1
1517203627614107,0,-2,-1,-2,1,-2,-2,0
1517203627614107,-1,-2,0,-2,-1,-2,0,0
1517203627615107,-2,-1,-1,-1,-3,-2,-1,-1
1517203627615107,-2,-1,-1,-1,-1,-1,-1,0
1517203627628616,-1,-1,-3,-1,-1,-2,-1,-2
1517203627628616,-2,-2,-1,-1,-1,-1,-1,0
1517203627629116,0,0,0,-1,-1,0,-1,-1
1517203627629116,1,0,-1,0,-1,-3,0,-2
1517203627651636,-1,-1,0,-1,-1,-1,-1,-2
1517203627651636,-1,-1,-2,0,-1,0,-3,0
1517203627652634,-1,2,0,-1,0,-3,0,0
1517203627652634,0,-1,-4,-3,-2,-1,-1,-2
1517203627674149,-1,0,1,-1,0,-1,-1,-1
1517203627674149,-2,-3,0,-1,-1,-1,0,-1
1517203627675150,-1,-1,-1,-1,-1,-1,0,-2
1517203627675150,-1,1,-1,-2,-1,-1,1,-2
1517203627688659,-2,-2,-1,0,0,0,-1,0
1517203627688659,-3,-1,-2,-3,-1,-1,0,-1
1517203627689159,-2,-1,1,0,-2,-1,-1,-1
1517203627689159,-2,-2,-1,-1,-1,-1,0,0
1517203627711674,-2,-1,-2,-1,-1,-1,0,-2
1517203627711674,0,-1,-2,-1,-2,1,-2,-3
1517203627712175,0,0,-3,-3,-1,-2,-2,-2
1517203627712175,0,-2,1,-1,-1,-3,-1,0
1517203627734203,1,0,-2,-2,-2,0,0,-1
1517203627734203,-1,1,-1,-2,-1,-2,-2,-1
1517203627734701,0,-1,-1,-2,-1,-1,0,0
1517203627734701,-2,0,-1,-2,-1,-2,-1,0
1517203627748216,-1,-3,0,-1,-2,1,-1,-2
1517203627748216,0,-1,-2,-1,0,-2,-1,-1
1517203627749211,-1,-1,-1,-1,-3,-1,-1,-1
1517203627749211,-1,-1,-2,-1,-3,0,-1,-1
1517203627771718,-2,0,1,1,-2,-1,-2,-1
1517203627771718,-2,0,0,0,-1,-1,0,-1
1517203627772220,-1,-3,-2,-2,-1,-1,0,-1
1517203627772220,-1,-3,-1,0,-1,-3,0,-2
1517203627793732,-1,2,-3,-2,-3,1,-2,0
1517203627793732,-2,-1,0,0,-2,-2,0,-1
1517203627794735,-2,-1,-3,0,-2,-1,-1,-1
1517203627794735,-2,0,0,-2,-1,0,1,-1
1517203627808244,0,-3,-2,0,-1,-1,0,-2
1517203627808244,-1,-1,1,-1,-1,-2,-1,-3
1517203627809244,-1,-1,-1,-2,-1,-1,-2,-2
1517203627809244,-2,-2,0,0,-1,1,-1,-1
1517203627831770,-2,0,1,-1,-3,-4,0,0
1517203627831770,0,-1,-3,0,-1,0,-1,0
1517203627832266,-1,-1,0,1,-1,0,-2,-2
1517203627832266,-1,-2,0,0,0,-1,0,-1
1517203627854277,1,-1,-1,0,-1,-1,-1,0
1517203627854277,-1,-2,-3,-1,-2,-2,1,0
1517203627854776,0,-1,-1,-1,-1,-1,-3,2
1517203627854776,-1,-2,-3,-1,-1,-2,-2,0
1517203627868299,-1,0,0,-1,1,-1,0,-2
1517203627868299,0,-2,0,-2,-1,1,0,-2
1517203627870289,0,0,0,-1,-1,0,-1,-1
1517203627870289,-2,0,-2,-2,-1,-1,-2,-1
1517203627891804,-1,-2,-2,-1,0,-2,0,-2
1517203627891804,-2,0,-1,0,-1,0,-3,-1
1517203627892315,-1,-1,-1,-1,0,0,1,-2
1517203627892315,0,1,0,-1,-1,-1,-1,-2
1517203627913828,0,-1,0,-3,-3,1,0,0
1517203627913828,-1,-3,-1,-2,0,-1,-1,-1
1517203627914820,-2,-2,-1,0,1,-1,1,0
1517203627914820,-2,0,-2,-2,-1,-1,-1,-2
1517203627928328,-3,-2,-3,-1,-1,-1,-1,-2
1517203627928328,0,0,-1,0,-1,-1,-1,0
1517203627929328,-1,-3,-1,-1,-1,-2,-1,0
1517203627929328,-2,-1,-1,-2,0,-2,-1,0
1517203627951344,1,2,-2,-1,-1,-2,-1,-1
1517203627951344,-1,-1,-1,-1,-1,-1,-2,-1
1517203627952345,-1,-1,0,-2,-2,-2,-1,-1
1517203627952345,-1,-1,-1,-1,-1,-1,-1,0
1517203627973907,0,-1,0,0,-1,-1,0,-1
1517203627973907,-1,-2,-3,0,-2,0,1,-1
1517203627974910,0,-2,-3,-1,0,-1,-2,-1
1517203627974910,-4,-2,-1,-1,-1,-1,-1,-3
1517203627988422,-2,-2,0,-2,0,-1,0,-1
1517203627988422,0,0,-1,-1,0,-1,-3,0
1517203627989421,0,0,-1,-1,-2,-1,0,-1
1517203627989421,0,-2,-1,-1,-2,-2,-2,-1
1517203628011435,-1,-2,0,-2,2,-3,-1,-1
1517203628011435,-1,-1,-2,0,-1,-2,0,0
1517203628012937,-3,-1,-2,-1,0,0,-1,-1
1517203628012937,0,0,0,0,0,1,0,0
1517203628033966,-1,0,0,0,0,-1,-1,0
1517203628033966,-1,-1,0,-1,-2,-1,0,-1
1517203628035453,0,-1,-2,-3,-1,1,-1,-1
1517203628035453,-2,-2,-1,-1,-1,0,-1,0
1517203628047961,-2,-3,-2,-2,-1,-1,-1,0
1517203628047961,0,0,0,-2,-1,1,-1,-1
1517203628057000,-1,0,2,-1,-2,-1,-1,-2
1517203628057000,1,-1,0,-1,-1,0,-1,0
1517203628079014,0,-1,-1,0,-2,-1,0,0
1517203628079014,-1,-2,-1,-2,0,-1,0,-1
1517203628085519,0,-1,0,-2,-1,-1,1,0
1517203628085519,1,-2,0,-2,-1,0,-1,-1
1517203628094035,1,-1,-1,-1,-2,0,-1,0
1517203628094035,-3,-3,-2,1,0,-1,0,-2
1517203628095526,-2,0,-2,0,-1,-2,0,-2
1517203628095526,-1,0,-1,-2,-2,0,-1,-1
1517203628107544,0,-3,-2,-2,-2,0,-3,0
1517203628107544,-1,-1,0,0,-3,0,-1,-1
1517203628116541,-2,-1,-1,0,1,-1,-2,-2
1517203628116541,-1,-1,-1,-4,-2,-1,-1,-2
1517203628131587,-2,-2,-2,8,1,0,-1,-2
1517203628131587,1,-1,0,0,0,-2,0,-1
1517203628133081,-1,-1,-2,-4,-2,0,0,-1
1517203628133081,0,-1,0,0,-2,-1,-2,-1
1517203628154068,-2,0,-1,-6,0,0,-3,-1
1517203628154068,0,-2,-2,-1,-2,-1,-2,0
1517203628155737,-1,-2,1,-2,-1,-1,-1,-3
1517203628155737,0,-2,-2,-2,-2,-2,0,-1
1517203628167743,-1,-1,1,-1,-2,1,0,-1
1517203628167743,-1,-1,-1,-2,-2,-1,-1,-2
1517203628176749,-1,0,-1,2,0,-2,-2,-1
1517203628176749,-1,-1,-4,-3,0,-1,1,0
1517203628191775,-1,-2,0,1,-2,-1,0,-2
1517203628191775,-2,-2,-2,-1,0,0,-1,0
1517203628193273,0,1,-1,0,-2,-1,0,-1
1517203628193273,0,-2,-3,1,0,-1,-1,-2
1517203628214288,0,-1,-3,-2,-2,0,-2,0
1517203628214288,-2,0,0,-4,-1,0,-1,-2
1517203628215777,-1,-2,1,-3,-2,1,-2,0
1517203628215777,-3,0,-1,1,-1,-2,-2,0
1517203628227795,0,1,-2,-7,-3,-2,1,-1
1517203628227795,1,0,-3,-1,-1,-2,-1,-3
1517203628236793,-2,-1,-1,-1,-1,0,-2,0
1517203628236793,0,-2,-1,0,-1,1,-1,-1
1517203628251302,-2,-3,-1,2,-2,-2,1,-2
1517203628251302,0,-4,-1,-1,-1,-1,0,0
1517203628253305,-1,-2,-1,-3,-1,0,-2,-3
1517203628253305,-1,0,0,-3,-2,0,-2,-2
1517203628274319,-1,1,0,-2,-2,-2,-2,-1
1517203628274319,0,0,1,-1,-1,-2,0,-2
1517203628275819,0,-1,0,-1,-2,-2,-1,0
1517203628275819,-1,-1,-1,0,-2,0,-2,0
1517203628287829,-1,-2,-1,0,-1,-1,-1,-2
1517203628287829,-1,-1,0,-1,-2,-3,-2,-1
1517203628296850,1,-3,-1,-1,0,-1,0,1
1517203628296850,-2,0,-1,-1,-1,-2,1,-2
1517203628311345,-2,-2,-2,-2,0,-1,-1,-1
1517203628311345,0,-3,-3,0,-2,-1,0,0
1517203628313355,-1,-1,0,0,-1,1,0,0
1517203628313355,0,-1,1,0,-2,0,-1,-1
1517203628333920,0,-1,-2,-1,-2,-3,-1,0
1517203628333920,-1,-1,0,0,-1,1,-2,0
1517203628335400,0,-1,-3,-3,-1,-2,-1,-1
1517203628335400,0,0,1,-2,-1,-2,0,-1
1517203628356416,-1,1,-1,-1,0,0,-1,-2
1517203628356416,0,0,-2,-3,0,0,-2,2
1517203628357927,-1,1,-2,1,-3,-1,-2,-1
1517203628357927,0,0,-1,-1,-1,0,-1,0
1517203628371453,-1,0,-1,2,-1,-1,-1,-1
1517203628371453,-1,1,0,-1,-2,-1,0,-2
1517203628372947,-1,-1,-2,-2,-1,-1,-1,1
1517203628372947,0,-2,-1,-1,-1,-1,-2,0
1517203628393951,0,-2,-1,-4,-2,-2,-1,-1
1517203628393951,-2,0,-1,1,-2,-1,-1,-1
1517203628395442,-1,-1,-2,-2,-1,0,-1,-3
1517203628395442,-2,-1,0,-2,0,-1,-1,1
1517203628416471,-1,-1,-2,-2,0,-2,0,0
1517203628416471,-1,-2,-2,-1,0,-2,-1,0
1517203628417959,0,-3,0,-1,0,-1,-1,-1
1517203628417959,-3,-1,-3,-1,-1,-2,-1,-1
1517203628431482,-1,0,0,-3,-2,-1,-3,-1
1517203628431482,0,-1,-3,-2,-2,-2,0,-2
1517203628432978,-1,0,-1,0,-1,-1,-2,0
1517203628432978,-1,-1,-1,0,-3,-1,-2,-2
1517203628453987,-1,-1,-1,-1,-1,-1,-1,0
1517203628453987,0,-1,-2,-1,-1,0,-1,-1
1517203628455485,-1,-1,0,-1,-2,-1,-3,-1
1517203628455485,0,-2,-2,-2,-2,0,0,0
1517203628476512,-1,-1,-1,0,-1,1,-2,-1
1517203628476512,-2,-1,-1,0,-1,-1,-2,-1
1517203628478500,0,-1,-1,-1,1,0,0,-1
1517203628478500,2,-1,0,-1,0,-2,0,-2
1517203628491511,0,-1,-2,0,-2,-1,-2,-2
1517203628491511,-2,1,-1,-1,-2,1,-1,1
1517203628493012,-2,-1,1,-2,-3,-3,0,-2
1517203628493012,-1,-2,-1,0,-2,-1,-2,-1
1517203628514027,-1,0,-1,0,1,-2,-2,-2
1517203628514027,1,-2,-1,-1,0,-2,1,0
1517203628515528,-1,-1,0,-3,-3,-1,1,-2
1517203628515528,-2,0,-1,-1,-2,-1,1,-2
1517203628537043,-1,-2,-1,-2,-3,1,0,-1
1517203628537043,-1,-1,0,-1,-1,0,-1,-2
1517203628538044,-1,-1,-1,-1,-1,-2,-2,-1
1517203628538044,-1,0,-2,0,0,0,-1,0
1517203628551062,-2,-1,-2,2,-2,-3,0,-1
1517203628551062,-1,0,-1,-1,-1,-1,-1,-1
1517203628557566,2,-2,-1,-1,-1,-1,0,-1
1517203628557566,-1,-2,1,-1,-1,-1,-3,0
1517203628574078,-1,0,-1,-1,-1,-2,-2,0
1517203628574078,-1,-3,-1,-1,-2,0,-2,-2
1517203628575570,-1,-1,-2,1,0,-1,-1,-2
1517203628575570,1,-1,-1,-1,0,-2,0,-1
1517203628596600,0,0,0,-1,-1,-2,-2,1
1517203628596600,-2,0,1,-1,-2,-2,-1,0
1517203628598109,-3,-1,0,-1,-1,1,-2,-2
1517203628598109,0,0,-2,1,-1,0,-2,0
1517203628611107,-2,-3,0,-1,-1,-1,0,-1
1517203628611107,-1,-1,-4,-1,-1,0,0,-2
1517203628617599,-1,-2,-1,-1,-2,-1,-2,-2
1517203628617599,0,-2,-3,-3,-2,-2,1,0
1517203628634161,-1,-2,-3,0,0,0,0,-1
1517203628634161,1,-1,0,-1,-1,0,-1,0
1517203628635629,-1,-2,-1,-2,-1,0,-1,-2
1517203628635629,-1,0,0,-1,0,0,-1,-1
1517203628656630,-1,-2,0,-3,-2,1,0,-1
1517203628656630,-1,-1,-1,-1,0,-1,0,-2
1517203628658128,-2,1,1,-3,-1,-1,0,1
1517203628658128,-2,-2,0,-2,-2,-2,-1,-2
1517203628671139,-1,-1,0,-2,0,-1,-2,0
1517203628671139,-1,1,-1,-1,-1,-2,-1,-1
1517203628677654,-1,-1,-1,-1,-2,0,-1,2
1517203628677654,-2,-1,-2,0,-1,-2,-1,-2
1517203628694166,0,0,-1,0,-2,-2,0,-1
1517203628694166,0,-2,-1,0,0,-2,-2,-1
1517203628695668,0,-1,-2,-1,-1,-1,1,-2
1517203628695668,1,-1,0,-1,-1,-1,-2,-2
1517203628716669,0,-1,-1,0,-2,-3,-1,-1
1517203628716669,-2,-1,0,-2,-2,-1,-3,-2
1517203628718170,-1,-3,-1,-1,-1,0,-1,-2
1517203628718170,-2,-2,-2,-1,0,-1,-2,1
1517203628730679,-1,-1,-1,-1,-1,-1,-1,-1
1517203628730679,-1,-1,0,-2,-1,0,-2,0
1517203628737685,-1,-2,-1,-1,-2,-2,-3,1
1517203628737685,-2,-2,-2,-2,-1,1,0,-1
1517203628754196,-1,-2,-2,0,0,-1,-1,-2
1517203628754196,-2,-1,-1,1,-1,0,-1,0
1517203628755701,-1,0,-3,-2,0,-1,0,-1
1517203628755701,-1,-1,0,-2,-1,-1,0,0
1517203628776724,-1,-1,-1,-2,-1,0,-1,-2
1517203628776724,0,-1,-1,0,-1,-1,0,-1
1517203628778222,-1,-2,-2,0,-1,-1,-1,-1
1517203628778222,0,-1,-1,-1,-2,-3,-1,-1
1517203628791221,-2,0,-2,-2,-1,-2,-1,-1
1517203628791221,-1,-1,-1,-2,0,-2,-1,-1
1517203628805235,0,0,-1,0,-3,0,1,-2
1517203628805235,0,1,0,-2,-1,0,1,-1
1517203628814245,0,-2,-1,0,-2,1,-1,0
1517203628814245,-1,0,0,0,-2,-2,2,-1
1517203628815767,-1,0,-1,-2,0,-1,-1,-2
1517203628815767,0,-1,-2,-1,0,0,-1,-1
1517203628836754,-2,-1,-2,-2,-2,-1,-1,0
1517203628836754,-1,-2,-2,-1,-1,-1,-1,0
1517203628838255,-1,-1,-1,-3,-1,-3,-2,-3
1517203628838255,-2,0,-1,-1,-2,0,-1,-1
1517203628850267,-1,0,-1,-2,1,-2,-2,-1
1517203628850267,0,-3,-1,-1,0,-1,-2,0
1517203628859270,0,-1,0,-1,-2,-1,0,-1
1517203628859270,-1,-1,-2,-1,-2,-2,-2,0
1517203628874280,-3,-1,-1,0,-1,-1,1,0
1517203628874280,-1,-1,-2,0,-1,-2,-1,-1
1517203628875782,0,-1,0,-3,-1,-2,-3,-1
1517203628875782,-2,-2,-2,0,-1,-2,0,-2
1517203628896342,0,0,-1,-1,-1,0,0,-2
1517203628896342,-1,-1,-2,-1,-1,-1,-1,0
1517203628898298,-2,0,-1,-1,-1,-1,-1,0
1517203628898298,-2,-1,-1,0,-2,-1,-2,-2
1517203628910319,-2,-3,0,-2,-1,-1,-1,-1
1517203628910319,0,-1,-1,-1,-2,-1,-2,0
1517203628919313,0,0,-2,0,0,0,-1,-1
1517203628919313,0,-1,-1,-1,-1,-1,0,0
1517203628933837,0,-2,-1,-1,-1,-1,0,-3
1517203628933837,0,-2,-2,-2,0,-2,0,-2
1517203628935825,-1,-1,-1,-3,-1,-1,0,-1
1517203628935825,0,0,-1,1,-1,-2,1,1
1517203628956338,0,0,-1,-2,-2,-1,-2,0
1517203628956338,-2,0,-1,-1,0,-1,-1,-1
1517203628958352,-3,-1,-1,0,-1,-3,-2,1
1517203628958352,-1,0,-1,-1,-2,0,-2,-1
1517203628970351,0,-1,-2,-3,-2,-1,0,0
1517203628970351,0,-1,-1,0,0,0,-1,-1
1517203628979356,-1,-2,0,0,-1,-2,0,-1
1517203628979356,-1,-1,0,-2,-1,-1,0,-1
1517203628993878,-2,-1,-3,0,0,-1,0,-1
1517203628993878,-2,1,0,-1,-2,-1,0,0
1517203628995367,1,0,-2,-1,-1,-1,-2,-2
1517203628995367,0,-2,-1,-1,0,-1,-1,-1
1517203629016530,0,-1,-2,-1,0,0,-3,-1
1517203629016530,-2,-2,-1,-1,-2,0,-2,-1
1517203629018005,-1,-2,-2,1,-2,-2,1,0
1517203629018005,0,-2,-1,0,1,-1,-2,-2
1517203629030015,-1,1,-1,0,-1,1,-2,-1
1517203629030015,-1,0,-1,0,-2,0,-2,-1
1517203629039007,-1,0,-1,-2,-1,0,-2,1
1517203629039007,-1,-1,-2,-2,-2,-2,-1,-1
1517203629054019,0,-3,0,1,-4,0,0,-1
1517203629054019,-2,-1,0,-1,-2,-2,-3,-2
1517203629055520,-2,-3,-2,-2,0,-2,-2,-2
1517203629055520,0,-1,-2,-1,-1,-2,-1,-2
1517203629077037,-2,-2,-2,-1,-1,-1,-1,-1
1517203629077037,-1,-2,-3,-1,-1,0,1,0
1517203629078041,-2,-2,1,-2,0,-1,0,-2
1517203629078041,0,-1,-2,-1,0,-1,0,0
1517203629090048,0,0,-1,-2,0,-2,1,-2
1517203629090048,-2,-1,-1,0,-1,-2,-1,-2
1517203629099050,-1,-1,-2,1,-2,1,-1,-1
1517203629099050,-2,0,-2,-2,1,-1,-2,-1
1517203629114078,0,-1,-1,0,-2,0,-1,-2
1517203629114078,-1,-1,0,-2,-1,-3,1,0
1517203629115563,-1,0,-1,0,0,-1,0,-1
1517203629115563,-3,0,0,0,-2,-2,-2,-2
1517203629136577,0,-2,-2,1,-2,-2,-2,-1
1517203629136577,-1,0,-2,-1,-1,1,-1,-2
1517203629138079,-1,-1,0,0,0,-2,-1,-2
1517203629138079,-1,-2,-1,0,-1,1,-1,-2
1517203629150089,-2,-2,0,-1,-1,-1,-1,0
1517203629150089,0,-4,0,-1,-3,0,0,-1
1517203629159092,-1,1,-1,-1,-1,-3,-1,0
1517203629159092,1,0,0,-1,0,-1,0,-2
1517203629174103,-3,-1,0,-1,0,-2,-1,-1
1517203629174103,-1,-1,-1,-1,-3,-2,-2,-1
1517203629175604,-1,-3,-3,-2,-1,0,-1,-1
1517203629175604,-3,-1,0,-2,-2,0,-2,0
1517203629196619,-1,-1,-2,-2,-1,-1,-1,-1
1517203629196619,1,0,-1,0,0,-1,-1,-1
1517203629198132,0,0,-1,-1,-1,-2,0,0
1517203629198132,-1,-1,-2,-2,-1,-1,0,1
1517203629210128,0,-2,-2,-2,-2,0,-1,-2
1517203629210128,-1,0,-1,-1,0,-1,0,-1
1517203629219135,-1,-1,-1,-1,-2,-1,0,-2
1517203629219135,-1,-1,-1,-1,-2,-2,-3,-1
1517203629234150,0,0,-1,-1,0,-2,-1,-1
1517203629234150,-1,-1,-1,-1,0,-1,-1,-2
1517203629235646,-1,-1,-2,0,-1,-2,-1,-1
1517203629235646,-1,0,1,0,-1,-2,1,0
1517203629256663,-1,0,-2,0,-1,0,-3,-2
1517203629256663,-2,1,-2,-1,-1,-1,-1,-1
1517203629258162,0,-1,0,-1,0,0,-1,-2
1517203629258162,-1,-2,-3,0,-2,-1,0,0
1517203629270175,0,-1,-1,1,-1,-1,-2,-1
1517203629270175,0,-2,0,-2,-1,0,-1,-2
1517203629279190,-1,-2,0,-1,-1,1,0,-1
1517203629279190,-2,-1,-1,-1,-1,-2,-2,-1
1517203629293698,-1,-1,-2,-1,0,-1,0,-1
1517203629293698,-1,-3,0,-2,-1,-1,-2,0
1517203629300207,-2,-1,-1,1,0,0,-2,0
1517203629300207,0,-1,-1,-1,-2,0,-1,0
1517203629316714,1,-3,0,-3,0,-1,0,1
1517203629316714,-2,-2,-1,-1,0,-1,-1,0
1517203629318214,-2,-1,0,-2,0,0,0,-1
1517203629318214,0,-2,-2,-2,0,-1,-1,-1
1517203629339220,-1,0,-1,-2,0,-2,-1,-1
1517203629339220,0,0,-1,-3,-3,-3,0,-1
1517203629340729,0,0,-1,0,-2,0,-2,-1
1517203629340729,0,-1,-1,0,-2,-1,1,0
1517203629354230,-2,-1,1,-1,-1,-1,-1,-2
1517203629354230,-2,0,-2,1,-1,-2,-1,-2
1517203629355731,-2,-1,-1,-1,-1,-3,-2,1
1517203629355731,2,-2,-3,-1,0,1,-2,-2
1517203629376748,0,-2,-1,1,0,-2,-2,0
1517203629376748,0,0,-3,-1,-1,-1,-1,-1
1517203629378257,-1,-1,-1,-1,-2,-2,-1,-1
1517203629378257,-2,-2,-1,-1,-1,-1,-2,-3
1517203629399268,-2,-2,-2,-2,-2,0,-1,0
1517203629399268,0,0,-1,-3,-2,-1,0,-1
1517203629400773,0,-2,-2,-1,-1,-2,0,-1
1517203629400773,-1,0,-2,-2,-3,-1,0,-1
1517203629414273,-2,0,-1,0,-2,0,0,-2
1517203629414273,-2,-1,-1,-3,0,-1,-2,1
1517203629415796,-1,-1,-1,-3,-3,-2,-2,-2
1517203629415796,0,0,1,0,-1,-1,0,-1
1517203629436807,0,1,-2,-1,0,-1,0,0
1517203629436807,0,-2,-2,1,-1,-1,-2,-3
1517203629438305,-1,-1,0,-1,-1,1,0,0
1517203629438305,-2,-1,-1,0,-1,0,-2,-1
1517203629458870,-2,-1,-1,-2,-1,-3,-2,-1
1517203629458870,0,-1,-1,-1,-1,0,-2,0
1517203629460368,-1,-1,-1,-1,-2,0,-1,-1
1517203629460368,-2,-1,-1,1,-1,-2,-1,-1
1517203629473378,-1,-1,-1,1,0,0,0,-1
1517203629473378,-2,-3,-2,-1,0,-2,0,0
1517203629480373,-1,0,-2,0,0,-2,-1,-1
1517203629480373,1,-1,-1,-2,0,-2,-1,1
1517203629496392,-1,0,-2,-1,-1,-1,-2,0
1517203629496392,0,-2,-2,-1,-1,-1,-1,-1
1517203629497885,0,-1,0,0,-1,1,-1,-2
1517203629497885,-3,-2,-1,-2,-1,0,0,-1
1517203629519402,-2,0,-1,0,-1,-2,-3,-2
1517203629519402,-1,-1,-1,-2,-2,0,-1,-1
1517203629520403,0,-1,-2,-3,-1,-2,-2,0
1517203629520403,-1,0,0,0,-3,-1,0,-1
1517203629533423,-1,1,0,-2,-2,-1,-1,-2
1517203629533423,-2,0,0,-1,-1,0,0,-1
1517203629540446,-1,0,-1,0,-3,-1,-2,-1
1517203629540446,-1,-2,-2,-2,0,2,-1,-1
1517203629556930,0,-3,0,-1,-2,0,1,0
1517203629556930,0,1,0,-1,-2,-1,0,0
1517203629557927,-1,0,-1,-2,-1,-1,-1,1
1517203629557927,0,-1,0,-1,-1,-3,-2,0
1517203629578944,0,0,-1,0,-2,-1,0,1
1517203629578944,-1,-1,-1,-1,0,0,0,-1
1517203629580945,-1,-2,-2,-1,-2,-1,0,-1
1517203629580945,0,-1,-1,-2,0,1,-1,0
1517203629593453,-2,-2,0,-1,-1,-1,0,0
1517203629593453,0,-1,-2,-1,-1,0,-1,-1
1517203629599957,2,0,-1,-1,-1,-1,-1,0
1517203629599957,-1,1,-1,0,-1,-2,0,-2
1517203629616469,-2,-1,0,-1,-2,1,-1,0
1517203629616469,-1,-2,-2,0,-3,0,-2,-2
1517203629617970,-2,-1,-1,0,1,-2,-1,-1
1517203629617970,0,-2,-1,-3,-1,-1,0,-1
1517203629638984,0,0,-2,-1,-1,0,-2,-1
1517203629638984,-1,-1,1,-2,-3,-2,-1,0
1517203629640486,-1,-1,-2,0,-1,-2,-2,-1
1517203629640486,-1,-2,-3,0,-2,-2,0,-2
1517203629653499,-1,-2,-2,0,-2,-1,-2,-1
1517203629653499,1,-2,0,0,0,0,-3,0
1517203629660012,-1,-2,0,-1,-1,-2,-2,-4
1517203629660012,1,-1,-1,-3,-2,-2,-2,-1
1517203629676512,-2,0,-1,-3,0,-1,-1,0
1517203629676512,-3,-2,-2,0,1,-1,0,-1
1517203629678013,0,-1,-1,-1,-2,2,1,-1
1517203629678013,-1,0,-2,-2,-1,-2,-2,-2
1517203629699062,-1,-2,-1,-1,-3,-2,-1,0
1517203629699062,0,0,-1,-2,-2,-3,-2,0
1517203629700538,-2,-2,-1,0,-2,-1,0,0
1517203629700538,-3,-1,-2,-1,-2,1,-2,-2
1517203629713539,-1,0,-1,-1,-2,-2,0,-1
1517203629713539,-3,-2,-1,-1,0,0,-3,-1
1517203629720550,-1,-1,-1,0,-1,-3,-2,-1
1517203629720550,-1,-2,-1,-1,0,0,-2,0
1517203629736555,-1,0,-1,0,-3,-1,-2,-2
1517203629736555,-2,0,-1,0,-1,0,-1,-1
1517203629738056,-2,-1,0,-1,-2,-1,0,-1
1517203629738056,-3,-2,0,-1,1,0,-1,0
1517203629759070,-1,0,-2,-3,0,-2,-1,-2
1517203629759070,0,-1,0,-1,-2,-1,1,-1
1517203629760581,0,-1,1,-1,-2,-1,-3,0
1517203629760581,-1,0,0,0,0,-1,-1,-1
1517203629773580,1,-1,-4,-1,0,0,-1,-2
1517203629773580,-1,0,-1,-1,-3,-1,1,-2
1517203629780097,0,-1,-2,-2,-1,0,0,-4
1517203629780097,0,-1,-2,0,-4,0,-3,0
1517203629796596,-3,-1,1,-1,0,0,-1,0
1517203629796596,0,0,-2,-1,-1,-2,0,-1
1517203629798110,0,-1,-1,-1,0,-1,-1,-2
1517203629798110,-2,1,0,1,1,-1,-1,-2
1517203629819122,0,-3,-1,-1,0,-2,-1,0
1517203629819122,-1,-1,-1,-2,-1,-1,-2,1
1517203629820615,-1,-1,-1,-2,-1,-1,-1,-1
1517203629820615,-1,-1,-1,-2,-2,0,0,-3
1517203629832644,1,0,-2,-1,-2,2,-1,0
1517203629832644,1,-1,-1,-1,0,-1,-2,-3
1517203629841629,-2,-2,-2,-3,0,-1,-1,1
1517203629841629,-1,-2,-1,-1,0,-3,-1,-1
1517203629856639,-2,0,0,-2,1,-2,0,-1
1517203629856639,0,-1,0,-1,-1,0,-1,-1
1517203629858142,-1,-1,-3,-2,-2,-1,0,0
1517203629858142,-1,-1,-1,-2,-2,-2,0,-1
1517203629879154,-1,-1,1,-1,-1,-1,1,-2
1517203629879154,-1,-2,-1,-2,-1,-1,-1,-1
1517203629880666,0,-1,-1,0,0,0,-3,-1
1517203629880666,-1,-1,-2,-1,-1,1,-2,0
1517203629892676,-1,-1,-1,0,-2,-2,-1,-2
1517203629892676,-2,-1,-1,-2,-1,-2,-1,-1
1517203629901680,-1,0,0,-1,-1,0,0,0
1517203629901680,0,-2,0,-1,-3,-2,0,0
1517203629916681,0,-1,-1,-1,-1,0,1,0
1517203629916681,-3,-3,-2,0,-3,-1,-1,0
1517203629918197,-1,0,-1,-1,-2,-1,0,-1
1517203629918197,-2,0,-2,0,-1,-2,-1,-1
1517203629939214,-1,-1,-3,-3,-1,0,-2,-2
1517203629939214,-1,0,-2,-1,-1,-3,-2,-1
1517203629940717,-3,-2,0,-1,-1,-1,0,-1
1517203629940717,-1,0,-2,-2,-1,-2,-1,-3
1517203629952724,-1,0,0,-1,-2,0,0,-2
1517203629952724,-1,1,0,-1,-2,0,0,-1
1517203629961740,1,-1,-1,-1,-1,-1,0,-2
1517203629961740,-2,1,-1,-2,-2,-1,-1,0
1517203629976754,-1,-2,-1,0,0,-1,-2,0
1517203629976754,-1,0,-2,-3,0,0,0,0
1517203629978254,0,0,1,0,-2,-2,0,0
1517203629978254,0,-2,0,-1,0,-2,0,0
1517203629999256,0,-1,-1,0,0,-1,-1,0
1517203629999256,-1,-1,-2,0,0,-1,-2,0
1517203630000767,0,-1,-2,-1,0,-2,-2,-2
1517203630000767,0,-1,-1,-2,-1,-1,-3,-2
1517203630012776,-2,1,-1,-1,-3,-1,-1,0
1517203630012776,-2,-1,-2,-1,-3,-1,0,0
1517203630021774,-2,-2,-2,-1,0,1,-1,-1
1517203630021774,-3,-3,-1,1,-1,-1,-2,0
1517203630036798,1,-1,-2,-3,1,-2,-1,-2
1517203630036798,0,0,-1,0,-1,0,0,-2
1517203630038291,-2,-1,0,-1,0,0,-1,-2
1517203630038291,-1,-1,0,-2,-1,-1,0,-1
1517203630059299,-1,-2,-2,-2,-1,-1,0,-1
1517203630059299,0,-3,-1,-1,-1,0,0,-1
1517203630060814,0,-1,-3,-2,-1,-1,-1,1
1517203630060814,0,-2,0,-1,-3,0,-1,-3
1517203630072822,-3,-1,-1,0,-1,-1,-3,0
1517203630072822,-1,-1,1,0,-1,0,-2,-1
1517203630081827,-2,-1,-2,0,-1,0,-1,-1
1517203630081827,0,0,-3,-2,-1,1,0,-2
1517203630096339,0,0,-1,2,-2,-2,1,-2
1517203630096339,-1,-2,-2,-1,-2,-2,-1,-1
1517203630098337,0,-1,0,0,-3,-1,-1,-1
1517203630098337,-2,-1,-2,-1,0,-2,0,0
1517203630119342,-1,-2,-1,-1,-2,-1,-1,-1
1517203630119342,-4,0,-1,-1,-3,0,0,0
1517203630120844,-2,-3,-1,0,0,0,-2,-1
1517203630120844,-1,-2,0,0,1,-1,-1,0
1517203630132860,-2,0,-1,-1,-1,-1,-3,-1
1517203630132860,-2,-3,-1,-2,0,-2,1,0
1517203630141357,1,-2,0,-1,0,-2,0,-2
1517203630141357,0,0,-1,-1,-1,0,1,-1
1517203630156380,1,-1,-3,-2,-1,1,0,-2
1517203630156380,0,0,-2,-2,0,-1,-2,-3
1517203630157869,-1,-2,-1,-2,-1,-3,0,-1
1517203630157869,0,-2,-2,0,0,-2,-1,-2
1517203630178897,-1,-1,-2,-1,-1,0,-2,0
1517203630178897,-1,-2,-2,-1,-2,-2,-1,-1
1517203630180397,-1,-1,-1,-1,1,-1,-1,-2
1517203630180397,-1,-2,1,-1,-3,-2,-1,-1
1517203630192393,-1,-1,0,-1,-1,-2,0,-1
1517203630192393,0,-1,-1,0,-2,0,-1,-1
1517203630201400,-3,0,0,-2,-2,0,-2,1
1517203630201400,-1,-2,-1,0,-1,-1,-1,1
1517203630216450,-3,-1,-1,-1,-1,-2,-1,0
1517203630216450,-1,-1,1,0,-1,0,0,0
1517203630217912,-1,-2,-3,0,-3,-1,-1,-1
1517203630217912,0,1,-2,0,-1,-1,0,0
1517203630238928,-1,-2,0,-1,-1,0,-1,-2
1517203630238928,0,-2,-1,-1,0,-2,-2,-1
1517203630240429,-1,-2,0,-1,-2,0,0,-2
1517203630240429,0,-1,-2,-1,-1,1,0,-1
1517203630261492,0,0,-2,0,0,0,-1,-3
1517203630261492,-2,0,1,0,-1,-2,-1,-1
1517203630262992,-2,-2,-1,-1,-1,-2,-1,-1
1517203630262992,-1,-3,-4,0,-2,-2,-1,-1
1517203630276491,-1,0,-1,2,0,0,-2,-2
1517203630276491,0,1,-1,-1,-1,0,0,-2
1517203630278010,0,-1,-1,-1,-1,-1,-1,-1
1517203630278010,-3,1,1,-2,-1,-3,-2,-1
1517203630299020,-1,-1,-2,-2,0,-2,0,0
1517203630299020,-2,0,-3,-1,-1,-1,-1,-2
1517203630300517,0,-1,-1,0,-1,-1,-1,-1
1517203630300517,-2,-1,-1,-1,-1,0,-1,-1
1517203630321531,0,-2,-2,-1,-2,1,1,0
1517203630321531,-2,0,0,-2,-1,1,-1,0
1517203630323025,-2,1,-2,-2,-1,0,-1,-1
1517203630323025,-1,1,-2,1,0,-2,-3,-4
1517203630336532,-1,-2,1,-1,-2,-3,-1,-1
1517203630336532,1,-2,-1,-2,0,-3,-2,-2
1517203630338033,-1,0,-3,-2,0,-1,0,-1
1517203630338033,-1,0,-1,-1,0,0,-1,-1
1517203630359058,0,-1,-1,-1,-2,-2,-2,1
1517203630359058,-1,-1,-2,-1,0,-1,0,0
1517203630360558,-2,0,-2,0,0,-1,0,0
1517203630360558,0,0,-2,-2,-1,0,-3,-2
1517203630381576,-1,-1,-2,0,1,-2,0,-2
1517203630381576,0,-1,1,0,-2,0,-2,-1
1517203630383066,-1,-2,-1,-2,0,-3,-1,-1
1517203630383066,-1,-2,-1,-1,-1,-3,-1,1
1517203630396087,-2,-1,-2,-2,-2,-1,-1,-2
1517203630396087,-1,-2,-2,-1,-1,-2,0,-3
1517203630402581,0,1,0,-1,-3,-1,-2,-1
1517203630402581,0,-1,0,-1,-1,-1,-1,-1
1517203630419091,-2,-1,-1,0,-2,-3,-1,0
1517203630419091,-2,-1,-1,-1,-1,-2,0,0
1517203630420605,0,-3,-2,-1,-2,-1,-2,-1
1517203630420605,-2,-2,-2,-2,-1,-2,0,-2
1517203630441608,-1,-1,-1,-1,-1,0,-1,-2
1517203630441608,0,-1,-3,-2,0,-1,0,-1
1517203630443121,0,-2,1,-1,0,0,0,-1
1517203630443121,-2,-1,-1,-2,0,0,-1,1
1517203630456117,-3,-1,-1,-2,-1,-1,-2,0
1517203630456117,-2,-2,-1,-2,-2,-1,-1,-1
1517203630462621,-2,-2,-1,-2,-2,-4,-1,-1
1517203630462621,-2,-1,-2,-1,-2,1,-1,-2
1517203630479133,0,-1,-1,-1,-1,-2,-1,-2
1517203630479133,0,-1,0,-2,0,-1,-1,0
1517203630480635,-1,1,0,-1,-2,0,-1,-1
1517203630480635,2,-2,0,0,-1,-1,0,0
1517203630501659,-1,0,-1,-2,-1,-1,-2,0
1517203630501659,0,-1,-2,0,-1,0,-1,-1
1517203630503150,1,-1,-2,0,1,-1,-2,-2
1517203630503150,-2,-2,-1,-1,1,-1,-1,-2
1517203630515698,0,1,-1,-2,-1,0,0,-1
1517203630515698,-1,-2,0,-2,1,-2,0,-2
1517203630522673,-1,-2,0,-2,0,-2,-1,0
1517203630522673,-2,0,0,-2,-2,1,-1,-2
1517203630539176,-2,-1,-1,1,-1,-2,-1,0
1517203630539176,-1,0,-1,-1,-1,-2,-2,1
1517203630540679,0,-1,-2,0,0,-1,0,-1
1517203630540679,1,-1,-3,-2,0,0,0,-1
1517203630561691,-1,-1,-1,-2,1,-1,-2,0
1517203630561691,1,0,-1,1,-1,-1,-1,0
1517203630563194,-2,0,-1,-1,-2,0,-3,-1
1517203630563194,0,-1,0,-1,-2,-2,-2,-2
1517203630575703,-1,-3,0,0,-2,-2,-1,-1
1517203630575703,-1,-3,0,0,-1,0,-1,-3
1517203630582731,-2,-1,-1,-1,-1,0,-1,-1
1517203630582731,-1,-2,-1,-2,-2,-3,-1,-1
1517203630599220,1,0,-2,0,0,0,-1,-1
1517203630599220,-1,-2,-3,0,-1,-2,-2,-1
1517203630600719,-1,-2,0,0,-1,0,0,-2
1517203630600719,-3,0,0,-1,0,0,-1,0
1517203630621745,-1,-1,-2,-2,1,-2,-2,0
1517203630621745,-2,-1,-1,-1,-1,-1,0,0
1517203630623235,0,0,1,-1,-1,-2,1,1
1517203630623235,-1,0,-1,1,-2,-2,-1,-2
1517203630635746,1,-1,-2,-1,-1,-1,-1,-2
1517203630635746,-2,0,-1,0,-1,2,-2,-1
1517203630642750,0,-1,-1,-1,0,-1,0,-1
1517203630642750,1,-1,-2,0,-1,-1,-1,-1
1517203630658773,-2,-2,-1,-1,-1,-1,-1,-2
1517203630658773,-2,1,-1,-2,-1,-2,0,-2
1517203630660774,-1,0,-1,-1,-2,-2,-2,-1
1517203630660774,-2,0,0,-1,0,-1,-1,1
1517203630681278,0,-3,-1,-1,0,-1,1,-2
1517203630681278,1,1,0,-1,-1,-3,-1,0
1517203630687801,-1,-1,-1,-1,-1,-1,0,-1
1517203630687801,-1,-2,-1,-1,0,0,-1,-2
1517203630695800,-3,-2,-2,0,-4,-2,-1,0
1517203630695800,0,-2,-1,0,-1,-1,0,-1
1517203630702794,0,-2,-2,-1,-2,-2,0,0
1517203630702794,0,0,-2,-2,-1,1,-1,-2
1517203630719303,1,-2,1,-2,-1,1,-2,-1
1517203630719303,0,-2,-2,-2,-1,0,-2,-2
1517203630720806,-2,-1,-2,-1,-2,-2,-1,-2
1517203630720806,0,-2,-2,-2,-1,-3,-2,-1
1517203630741359,0,-1,-1,-1,-1,-2,0,-2
1517203630741359,0,-1,0,-1,-1,0,0,0
1517203630748375,0,-2,-3,0,-1,0,0,-3
1517203630748375,-2,0,0,-1,-2,-1,1,0
1517203630755374,-3,1,-3,-2,-1,-1,1,-1
1517203630755374,0,-1,-1,-1,-1,-2,-1,-1
1517203630763876,-1,-3,0,-3,-1,-1,-1,0
1517203630763876,-1,-2,-2,-2,-2,-2,-2,-1
1517203630778898,0,-1,0,-2,-1,1,-2,-1
1517203630778898,-2,-1,0,-3,0,0,0,1
1517203630780399,0,0,-3,0,0,-3,-1,-1
1517203630780399,-1,-1,-1,0,0,-2,-1,-1
1517203630801428,-2,0,-3,-1,-1,-1,-1,-1
1517203630801428,-1,-1,-2,-2,-1,-2,-2,-1
1517203630802904,0,-1,-1,-2,0,-2,-1,-1
1517203630802904,-2,0,-2,-1,-1,-2,0,-2
1517203630815413,1,-2,-1,-1,0,-2,0,-1
1517203630815413,-1,-2,-2,-1,-1,-2,-2,-2
1517203630823920,-2,0,0,0,-1,-1,-1,0
1517203630823920,-1,-2,-1,-2,-1,0,0,-1
1517203630838928,0,1,0,-1,-1,-2,0,-2
1517203630838928,0,-1,-1,-2,-2,-1,-1,-2
1517203630840439,0,-3,0,-2,-1,0,-2,-1
1517203630840439,-1,-2,0,1,0,0,-2,0
1517203630861445,1,0,-2,-1,-2,0,-1,-1
1517203630861445,-2,0,1,1,-1,-2,-1,1
1517203630862946,-1,-1,-1,0,0,-2,-1,0
1517203630862946,0,0,-2,-1,0,-2,0,-2
1517203630875462,-1,-2,-2,0,0,-2,0,-2
1517203630875462,0,0,-2,-2,-1,0,0,-2
1517203630883961,-3,-1,-2,-2,-2,0,-2,0
1517203630883961,1,0,1,-1,-4,-2,0,-2
1517203630898998,-1,-2,0,-1,0,0,-1,0
1517203630898998,-2,0,0,0,-1,-1,0,-1
1517203630900481,-2,0,1,-1,-1,-1,-1,0
1517203630900481,-2,-2,-1,0,1,-1,-1,-1
1517203630921487,-1,0,-1,0,-3,-3,-1,-1
1517203630921487,0,-1,-2,0,-2,0,-1,0
1517203630922988,-1,0,-1,-2,-2,0,0,-1
1517203630922988,-2,0,-2,-1,-1,0,-3,0
1517203630935500,-2,-1,-1,-1,-1,0,-1,-1
1517203630935500,-1,-2,-1,-1,-1,-2,-1,-1
1517203630944012,-1,-1,-1,-1,0,-1,0,-1
1517203630944012,0,-2,-1,-2,-1,0,-1,0
1517203630958025,-1,-1,0,-2,0,-2,-3,-1
1517203630958025,-1,-1,-2,-1,-1,1,-2,0
1517203630966552,0,-1,-2,-1,-1,0,-1,-3
1517203630966552,-2,-1,-1,-1,0,1,0,-1
1517203630981572,0,-2,0,0,-1,-1,-1,1
1517203630981572,-1,1,-1,-1,0,-1,-1,-1
1517203630983081,-1,-2,0,-1,-1,-1,-1,-2
1517203630983081,1,-2,-1,-1,-1,1,0,-1
1517203630995082,-1,0,-1,1,-1,-2,0,-1
1517203630995082,-1,-2,-1,-1,-2,-1,0,1
1517203631004078,1,0,-1,1,-1,-1,0,-1
1517203631004078,-1,-1,-1,-3,-1,-3,0,-1
1517203631019089,-1,-1,-2,-1,-1,-1,-1,0
1517203631019089,-2,-2,0,0,-1,-2,-1,-1
1517203631020593,-1,0,-3,-2,-1,-1,-1,0
1517203631020593,-1,0,1,0,-1,0,-1,-2
1517203631041618,1,-2,-1,0,-1,-1,0,-1
1517203631041618,0,-1,1,-2,1,-2,-1,0
1517203631043122,-1,-1,-2,0,-1,-1,-3,-1
1517203631043122,-2,-1,-3,-3,0,-2,-3,-1
1517203631055115,-1,-1,-1,-1,-2,0,0,-2
1517203631055115,-1,-1,0,-2,-1,-1,-1,-1
1517203631064121,-1,-1,0,-2,0,-2,0,-1
1517203631064121,-1,-2,-2,0,-1,-1,0,0
1517203631079134,-1,-1,-2,0,0,-1,-2,-1
1517203631079134,-2,1,-3,-1,-1,-2,-2,0
1517203631080645,-1,-1,0,-2,-1,-1,-1,0
1517203631080645,0,-1,-1,-1,-1,-3,-2,0
1517203631101668,-1,0,-1,-3,-1,-2,-1,-2
1517203631101668,-2,0,-3,0,-1,-1,-2,-2
1517203631103150,-1,0,-2,-2,-2,-1,-1,-1
1517203631103150,0,-2,1,0,-1,-1,-2,-3
1517203631115203,-2,0,-1,-2,1,-1,0,-1
1517203631115203,-1,-2,0,-2,-2,0,-2,0
1517203631124165,0,1,-2,1,-3,-3,-2,0
1517203631124165,-1,-1,-2,-1,-2,-1,1,0
1517203631139179,-2,-1,-2,0,-1,-2,-2,-1
1517203631139179,0,-1,0,0,-2,-1,0,-3
1517203631140675,-2,-2,-1,-2,0,-1,1,-1
1517203631140675,-2,0,0,0,-2,0,0,-1
1517203631161202,-2,-1,-2,-1,-1,-1,-1,-1
1517203631161202,0,-2,-1,0,-2,-1,-1,-2
1517203631163192,-1,-2,1,0,0,-2,-3,-1
1517203631163192,0,-1,-1,-2,0,-3,-1,-1
1517203631183744,-1,-1,0,-1,-2,0,-1,-1
1517203631183744,0,-3,-3,-1,1,-2,-3,1
1517203631185708,0,0,-2,-1,-2,1,0,0
1517203631185708,-1,0,-3,0,-1,0,0,-1
1517203631199216,-2,-1,-1,-2,-2,0,0,0
1517203631199216,-2,0,-1,-2,-1,-3,0,-2
1517203631200718,-2,0,-1,-1,-1,-1,0,-1
1517203631200718,-1,-2,-1,-1,0,-1,-3,-1
1517203631221733,2,-1,1,0,-1,0,-2,-1
1517203631221733,-1,1,-2,-2,0,0,0,-2
1517203631223234,1,-1,-1,-1,1,0,-1,-1
1517203631223234,-1,-2,0,-1,-3,-3,-1,1
1517203631244248,0,-3,-1,0,-2,-1,-3,-1
1517203631244248,-1,-1,-1,0,-1,0,0,1
1517203631245749,-1,1,-1,0,-3,-1,0,0
1517203631245749,-2,-1,-2,0,-1,-2,-1,-2
1517203631258772,0,-2,-1,-1,2,0,0,-1
1517203631258772,-2,-2,-2,-2,-2,-2,-1,-2
1517203631260259,-2,1,-1,-2,-1,-1,0,-1
1517203631260259,-1,-1,0,-2,0,0,-2,-1
1517203631281287,-1,0,-1,-1,0,-1,-2,0
1517203631281287,-1,-1,1,-2,-2,-1,0,-1
1517203631282776,-1,-2,-1,0,-1,0,-1,0
1517203631282776,-1,-1,-1,-1,-2,-1,-3,-1
1517203631304292,-2,-1,-1,-1,-1,-2,-1,0
1517203631304292,0,-1,0,-1,0,-2,0,-1
1517203631305794,0,0,-1,-1,0,0,-2,0
1517203631305794,1,-1,-1,-1,-1,1,0,0
1517203631319305,-3,-1,-2,-3,-2,-1,-1,-1
1517203631319305,-1,-2,-1,0,-3,-1,0,0
1517203631320803,-2,-2,0,0,0,-3,0,-2
1517203631320803,0,0,-2,-1,-1,1,0,-1
1517203631341318,-2,-1,0,-2,1,0,0,-2
1517203631341318,0,0,-1,0,-1,1,0,-2
1517203631343324,-2,-1,0,-1,-1,-1,-2,-1
1517203631343324,-1,1,0,0,0,0,-2,-1
1517203631364335,-1,-1,-2,-2,-1,0,-2,-1
1517203631364335,-3,-2,-1,0,-1,0,-1,-2
1517203631365854,1,1,0,-2,-1,-2,-1,-2
1517203631365854,-1,0,-1,1,1,-2,-2,-3
1517203631378343,-1,-2,0,1,-3,-2,-1,-2
1517203631378343,-1,-2,1,-3,-1,-1,-3,0
1517203631385350,-3,-1,-1,-1,-1,-1,-2,-1
1517203631385350,-2,-1,-1,-1,-1,-2,-2,0
1517203631401364,1,-1,-2,-1,-2,1,-1,-2
1517203631401364,-1,1,-1,-1,0,-2,-1,-2
1517203631403361,0,-2,0,-1,0,-1,0,-3
1517203631403361,-2,-3,-2,-2,-2,-1,0,0
1517203631423877,0,-1,0,1,1,0,-1,-1
1517203631423877,1,0,-2,-2,0,-3,0,0
1517203631425378,-2,-2,-2,-1,-2,0,-2,0
1517203631425378,-1,-2,0,-2,1,-1,-1,-2
1517203631438396,-3,-1,-3,-1,-2,-2,-2,-1
1517203631438396,-1,-1,-2,-1,-1,-1,-1,-1
1517203631444891,-1,-1,-2,-1,0,-1,-1,-1
1517203631444891,-1,-2,-1,-1,-2,-1,0,-1
1517203631468924,0,0,0,0,-1,-2,-1,-2
1517203631468924,-3,-2,0,-2,-2,-2,-2,-1
1517203631471410,-2,-2,0,-1,-1,-1,-1,-1
1517203631471410,-1,-1,-1,-1,-3,-2,0,-1
1517203631483922,-1,-2,1,-2,0,-2,-1,-2
1517203631483922,-2,-2,0,0,-1,-1,1,-2
1517203631485420,-2,1,-1,0,-1,-1,1,-2
1517203631485420,-1,-1,-2,1,-1,0,-1,-1
1517203631498463,-2,-1,-1,-1,-1,-2,1,-1
1517203631498463,0,-2,-1,-1,-1,0,-2,-1
1517203631505436,-1,-1,-2,-1,0,0,-1,-1
1517203631505436,0,1,-1,-1,0,-2,-2,-2
1517203631522456,0,-1,-1,0,-2,0,0,-1
1517203631522456,-1,-1,-1,-1,-1,0,-1,1
1517203631527450,-1,-2,-1,-1,-1,-1,0,-2
1517203631527450,-1,0,-1,-2,-2,-1,-3,0
1517203631543965,-1,0,1,-1,0,0,-3,0
1517203631543965,0,1,-2,1,-1,0,-1,0
1517203631545461,-2,0,-2,-2,-2,0,-1,-1
1517203631545461,0,-2,-1,1,-2,-3,-1,0
1517203631558484,-2,-1,-1,0,-1,-2,-1,1
1517203631558484,-1,-1,-1,-2,-1,-1,-1,-1
1517203631564978,-1,0,0,-1,-2,-1,-1,-1
1517203631564978,0,0,-2,0,-1,-1,0,-1
1517203631581526,0,0,-2,-1,-2,-1,-2,-1
1517203631581526,-1,-2,-1,-2,-2,-2,-2,-2
1517203631583000,0,-2,-2,-2,-1,-2,-2,0
1517203631583000,-1,-2,-1,-1,-1,-2,-1,-1
1517203631604021,-1,-1,-2,-2,-1,-1,-1,-1
1517203631604021,-1,0,-3,0,-1,0,-1,-1
1517203631605505,0,0,1,-1,0,-1,0,-1
1517203631605505,-1,0,-1,-1,-1,-2,0,-2
1517203631619016,0,-2,-1,0,0,1,0,0
1517203631619016,-1,-2,0,-2,-1,-1,-2,-2
1517203631625019,0,-3,1,-1,-3,0,0,-1
1517203631625019,-2,-3,-1,-1,-2,-1,0,-2
1517203631641529,-3,0,0,1,-2,-1,-1,0
1517203631641529,-2,-1,-1,-1,0,-1,-3,-1
1517203631643030,0,-1,-1,0,-2,-1,-2,-1
1517203631643030,-1,0,-2,-2,-3,0,0,-2
1517203631664047,0,-2,-2,-2,0,-1,-1,-1
1517203631664047,-1,0,-1,-2,-1,-2,1,-1
1517203631665549,-1,-1,-2,1,-1,-3,0,0
1517203631665549,0,0,-1,-1,-1,1,-1,-2
1517203631677576,0,-1,-1,-1,-1,-2,-1,-3
1517203631677576,0,-1,-1,0,0,-1,0,-1
1517203631687063,-1,-2,-2,-2,-2,-3,-2,-1
1517203631687063,-1,-1,0,0,-1,0,-1,-1
1517203631701584,-1,-1,-1,-1,-2,-1,0,-1
1517203631701584,-1,-1,0,0,-2,-3,-2,-1
1517203631703074,0,-1,-3,-1,-2,-1,-1,-2
1517203631703074,0,-2,-1,-2,0,-1,0,0
1517203631724091,0,-1,-1,-1,-2,-2,-2,1
1517203631724091,-1,-2,-2,-3,-1,0,0,-2
1517203631725637,-2,-1,0,0,1,-1,-2,-1
1517203631725637,-3,0,-1,-2,1,-2,-2,-1
1517203631737648,-2,-1,-2,0,-1,0,-2,-2
1517203631737648,-1,-2,-2,-1,0,-1,-2,-1
1517203631747682,-1,0,-2,0,0,0,0,-1
1517203631747682,-2,-2,-2,-1,-1,-1,-1,0
1517203631761171,0,-2,0,0,-1,-2,0,-2
1517203631761171,1,-2,-1,1,-2,-1,-2,-2
1517203631763179,-1,-2,-2,-1,-2,-2,-1,-2
1517203631763179,0,0,-1,-1,-1,0,-1,-1
1517203631784193,-1,-1,-2,-2,-2,0,-1,0
1517203631784193,0,-1,-2,-2,0,-2,-2,-2
1517203631785689,-2,-1,-1,-3,0,-2,-1,-2
1517203631785689,0,-2,0,-1,-2,0,-1,-2
1517203631797697,-2,-1,-1,-1,-2,-1,-1,0
1517203631797697,-2,0,-1,-1,-1,-1,-2,-1
1517203631806707,-2,-3,-2,-1,-2,-1,-2,1
1517203631806707,-2,0,0,-2,0,0,-1,-2
1517203631821705,-2,-1,-1,-1,-1,0,0,-1
1517203631821705,-1,-2,0,-1,-1,0,-1,0
1517203631823206,0,-1,-2,-1,-1,-1,-2,-1
1517203631823206,1,-3,-2,0,-2,-3,0,-1
1517203631843732,0,-1,-2,0,0,1,-1,-2
1517203631843732,-1,0,0,-2,0,-2,0,0
1517203631845221,-1,-2,1,-2,1,1,1,0
1517203631845221,-1,-2,-1,-1,-1,-2,-2,-1
1517203631857743,-1,-1,0,-2,-1,-2,-1,-1
1517203631857743,-2,-1,0,-1,-2,-2,-1,0
1517203631866775,-2,-2,-1,0,-1,-1,1,-2
1517203631866775,-1,1,-2,-1,0,0,0,-2
1517203631881246,-1,-2,-1,-3,-1,-2,0,-1
1517203631881246,-2,0,-1,0,-1,1,0,-1
1517203631883253,1,-2,0,0,-2,0,-2,-1
1517203631883253,1,-1,-1,-1,-1,-1,-1,0
1517203631904263,-1,-1,0,-2,-1,-2,-2,-3
1517203631904263,-2,-1,-1,-1,-1,0,-1,0
1517203631905765,-1,0,-2,0,-1,-2,-1,0
1517203631905765,-2,0,-1,0,-1,-1,-1,-2
1517203631917811,0,-1,-1,-1,0,0,0,1
1517203631917811,-1,-3,-2,-1,-2,-1,0,-3
1517203631926779,-2,-2,-1,-2,-1,0,-1,-2
1517203631926779,-1,-1,-2,1,-2,-3,-2,-1
1517203631941299,-2,0,-1,-1,-2,-1,-4,-2
1517203631941299,-1,0,-1,0,-2,-2,-2,0
1517203631943301,0,1,-2,0,0,-1,0,-1
1517203631943301,-1,0,-1,-1,-2,-1,-2,0
1517203631963818,-1,-1,-2,-1,-1,0,0,-1
1517203631963818,0,-2,-4,-2,-2,-1,-1,-2
1517203631965822,-2,-1,0,-2,0,-2,-2,-1
1517203631965822,-1,-2,-1,-2,-3,-2,-1,0
1517203631977330,-2,0,1,-2,0,-2,0,-2
1517203631977330,0,-3,0,-1,1,0,0,1
1517203631986840,0,-1,-1,-1,-2,-1,0,-1
1517203631986840,-1,-1,-1,-2,-1,-1,-1,-1
1517203632001356,0,0,-3,1,-1,-2,-1,0
1517203632001356,-2,1,-1,1,-2,-1,-1,-1
1517203632003349,0,0,0,-1,0,-2,-2,-1
1517203632003349,-2,1,-1,0,1,0,-2,-1
1517203632023865,1,-2,0,-2,-2,-1,-1,0
1517203632023865,-1,0,-1,-2,-2,-1,0,-2
1517203632025451,1,-1,-1,0,-2,-2,-1,-1
1517203632025451,0,-1,0,-2,-1,-2,-1,-3
1517203632046464,-1,-2,-1,-1,0,-3,-1,-1
1517203632046464,0,0,-1,-1,-1,-1,-1,-2
1517203632048966,-2,-1,-3,-3,-2,-1,-1,-2
1517203632048966,-2,-1,-2,-1,-1,0,-1,1
1517203632061475,-1,0,0,-1,-1,-1,0,-1
1517203632061475,0,-2,0,-1,-1,-3,-1,-1
1517203632062976,0,1,-2,0,-1,0,-1,0
1517203632062976,0,-1,0,-1,0,-2,-2,-3
1517203632083999,-1,-1,-2,-1,0,0,-2,0
1517203632083999,-2,-2,0,1,-1,0,-1,-2
1517203632085504,-1,0,-1,-1,0,-2,-1,-2
1517203632085504,-2,-2,-2,-2,-2,-2,-2,0
1517203632097541,-1,-3,-1,-2,-1,-2,0,-1
1517203632097541,-1,-2,-1,-2,0,0,-2,-1
1517203632106507,-1,-1,-1,-1,-2,1,-1,0
1517203632106507,0,-1,-1,0,-4,-1,0,1
1517203632121519,-1,0,0,0,-3,-1,-2,-1
1517203632121519,0,0,-1,-1,-2,-3,-2,0
1517203632123019,0,-2,-2,-1,-1,-2,0,-1
1517203632123019,-1,0,0,-1,0,-1,-1,-1
1517203632144043,0,1,-1,-1,-1,0,-2,0
1517203632144043,-2,0,0,-1,0,-2,0,0
1517203632145547,-1,-1,-1,-2,0,-2,-2,0
1517203632145547,0,0,-1,0,-1,-1,-1,0
1517203632166559,-2,-2,0,-2,0,0,-1,-1
1517203632166559,-2,-1,-1,-2,-1,-2,-1,0
1517203632168050,-2,-1,0,-1,-1,-2,0,-2
1517203632168050,-1,-2,-1,0,-1,1,-1,0
1517203632181561,-2,0,-1,-2,-2,-2,0,-2
1517203632181561,-1,-1,-1,-1,-3,-1,-1,-2
1517203632183074,-1,-1,0,-2,-1,1,0,-3
1517203632183074,-1,0,-1,0,-2,-1,0,-1
1517203632204075,-1,-1,0,1,-3,-1,-1,1
1517203632204075,2,-3,-2,0,0,-1,-3,0
1517203632205579,-1,-1,-1,-1,-1,-1,-3,-1
1517203632205579,-1,1,0,-2,0,-2,-2,-1
1517203632226645,-1,-3,-1,-1,-1,0,0,0
1517203632226645,-3,0,0,0,-1,-1,1,-1
1517203632228146,0,0,-1,0,-2,-1,0,-1
1517203632228146,-1,0,-3,-1,0,-1,0,-1
1517203632241160,-1,-1,-2,-1,0,-1,-1,-1
1517203632241160,0,-2,0,-1,1,0,-1,-1
1517203632248166,-1,0,-2,0,-1,0,-2,1
1517203632248166,-1,-2,-1,-2,0,-1,-2,0
1517203632263695,-1,1,-2,-1,-2,0,-1,0
1517203632263695,-1,1,-1,-1,-3,-1,1,-2
1517203632265706,-1,-1,-1,-1,-3,-3,0,0
1517203632265706,0,-1,-1,-2,-1,-1,-1,-3
1517203632286716,-1,-2,-1,0,0,-1,-1,-1
1517203632286716,0,-2,-2,0,0,0,-2,-1
1517203632288212,-1,-1,-1,0,-1,-1,0,0
1517203632288212,-2,-2,-2,-1,-1,0,-2,0
1517203632300782,-1,0,-2,-1,0,-2,-1,-2
1517203632300782,-3,1,-3,-1,-2,1,0,-1
1517203632307742,0,-2,-2,-3,0,-2,-1,-1
1517203632307742,-1,-2,0,-1,-1,-1,0,-1
1517203632323740,-2,-1,-2,-2,-2,-1,1,-1
1517203632323740,-2,0,-1,-3,-1,-2,-2,0
1517203632325742,0,-1,-1,-2,1,0,-1,0
1517203632325742,-1,1,-3,0,-2,0,-1,-1
1517203632346253,-1,-1,0,-1,-1,-1,-2,-3
1517203632346253,0,-3,-1,0,-2,-1,-1,0
1517203632348755,-1,-1,0,-2,1,-1,-1,0
1517203632348755,0,0,-1,-2,-2,-1,-1,-1
1517203632359764,-2,0,-1,-1,0,-3,0,-2
1517203632359764,-1,-2,-2,-1,-1,-2,-3,-3
1517203632368269,0,-2,0,-1,-1,-2,-2,-1
1517203632368269,-2,-2,1,0,-1,0,-2,0
1517203632383343,0,-2,0,-1,0,-1,-1,-1
1517203632383343,-2,-1,0,-1,0,-1,0,0
1517203632383816,-1,-1,-1,1,-1,-2,-2,-2
1517203632383816,0,-2,-1,-2,-1,-2,-1,0
1517203632405831,-2,-2,-2,0,0,-2,-1,-1
1517203632405831,-1,-2,-1,0,-3,-2,-1,-1
1517203632406332,-3,-1,-2,-1,-1,-1,-1,-1
1517203632406332,-1,0,-1,-1,-1,-1,0,-2
1517203632420342,0,1,-1,-3,-1,-1,-2,-1
1517203632420342,-1,-1,-3,-2,-1,0,-1,-1
1517203632428347,-1,0,-1,0,-2,1,-2,-3
1517203632428347,-2,-1,-1,-1,-2,0,0,-1
1517203632443357,-1,-1,-2,-2,-1,-2,0,-1
1517203632443357,-1,0,0,0,-1,-2,0,-1
1517203632443858,-1,-2,-1,-1,-3,-2,-2,-1
1517203632443858,0,-2,-2,-2,-3,0,1,0
1517203632465889,0,0,-1,-2,-1,-1,-2,-2
1517203632465889,0,-1,-1,-2,1,-1,-2,-1
1517203632466374,-1,0,-1,1,0,-2,-1,-2
1517203632466374,-1,-3,0,-1,0,-1,-2,-2
1517203632479884,0,0,-2,-2,0,-1,-2,-1
1517203632479884,-2,0,-2,-1,-1,-1,-2,-1
1517203632488430,0,1,1,-2,-2,0,-1,-1
1517203632488430,-1,0,0,-1,-1,0,-2,0
1517203632503452,-3,-2,-1,0,-1,1,1,0
1517203632503452,0,-2,-1,-2,0,-2,0,0
1517203632503939,-1,-2,0,-2,-1,-1,0,1
1517203632503939,-2,-1,-1,-2,0,-2,-1,-1
1517203632525954,0,-2,0,-1,-2,-1,-2,-1
1517203632525954,0,-1,-2,0,-1,-2,-1,-2
1517203632526455,-1,-1,0,-1,-1,0,1,0
1517203632526455,0,-2,0,-2,0,-1,-2,0
1517203632539968,0,1,-2,0,-1,-1,0,0
1517203632539968,-3,0,-1,-2,-1,1,-1,-1
1517203632547970,-2,0,-2,-1,-1,-1,-2,-2
1517203632547970,-1,-1,-1,-1,0,0,-1,-1
1517203632563481,-2,-1,0,-1,-2,-2,-2,0
1517203632563481,-1,-1,-1,0,-2,0,0,-1
1517203632563982,0,-1,-2,0,-1,0,-2,0
1517203632563982,-1,-1,-1,0,0,0,1,0
1517203632586000,-1,-2,-1,0,-1,-2,0,0
1517203632586000,0,-2,0,-1,0,-1,1,0
1517203632586496,-1,0,0,-2,-1,-2,-1,0
1517203632586496,-1,1,-3,0,-2,-3,-1,-1
1517203632600029,-1,-1,-1,-1,-1,0,-1,-1
1517203632600029,-2,-1,-1,1,-2,-1,0,-1
1517203632608515,-1,-3,-2,-2,-1,-1,-2,-3
1517203632608515,-1,0,0,-1,0,-1,-1,-2
1517203632623526,-1,0,0,-3,0,-1,0,-2
1517203632623526,-2,0,-1,-1,-1,-3,-2,-1
1517203632624023,0,-2,0,-2,0,0,0,0
1517203632624023,-1,-1,0,-1,-2,-1,-1,-1
1517203632645551,0,-1,-1,0,-2,0,-3,1
1517203632645551,-2,1,0,-2,0,0,-3,0
1517203632646552,-2,-1,-2,-1,-2,-2,1,-1
1517203632646552,-1,-2,-3,0,0,-3,0,-1
1517203632660061,-1,-2,1,1,-2,-1,0,-1
1517203632660061,0,-1,0,-2,-2,-1,0,-1
1517203632668071,-2,0,-2,1,-1,-1,-1,-2
1517203632668071,-1,0,-2,-1,-1,-2,-1,-1
1517203632683080,0,-1,-1,-1,-1,-1,0,-1
1517203632683080,-1,-1,-2,-2,-1,-1,-1,-1
1517203632684066,-1,-1,-2,1,-2,-3,-1,-2
1517203632684066,0,0,0,-1,-1,-2,-1,0
1517203632706109,-2,-2,-1,-2,0,-1,-2,-1
1517203632706109,-1,-2,0,0,0,0,-1,-2
1517203632706605,-1,0,0,-1,-2,-1,-1,0
1517203632706605,-1,-1,-1,-1,-2,2,-1,-1
1517203632720116,-1,0,0,0,-2,-1,-2,-2
1517203632720116,0,0,0,-3,-3,-2,-3,-1
1517203632728128,-2,-2,-2,-3,-2,0,-2,0
1517203632728128,-1,1,1,-1,-1,-1,-2,-2
1517203632743197,0,-2,-1,-1,-1,-1,0,-1
1517203632743197,0,-2,-3,-2,0,-1,0,-1
1517203632744199,-1,-2,-3,-1,-1,-2,-1,-1
1517203632744199,0,0,-3,-1,-1,-1,-2,-2
1517203632765734,-1,-1,-1,0,0,0,-2,-1
1517203632765734,-2,-2,-1,-1,-2,-2,0,-1
1517203632766234,-1,0,0,-1,-1,-1,0,0
1517203632766234,1,-1,-1,-1,-1,-1,-2,0
1517203632780244,-2,0,-1,0,-3,-1,-1,-1
1517203632780244,1,-1,0,-2,0,0,-1,-1
1517203632788751,-1,-1,-1,-1,-1,-2,0,-2
1517203632788751,-2,-1,-2,-1,-1,-2,-2,-1
1517203632803262,-1,-2,-1,0,-1,0,-1,-3
1517203632803262,-1,-1,0,-1,-1,0,0,0
1517203632803763,1,0,0,-1,1,-1,-2,-1
1517203632803763,-1,-2,-2,0,-2,-1,1,-1
1517203632825777,-2,-1,-2,-2,-2,-1,-1,-1
1517203632825777,-3,-1,-2,1,-1,-1,0,-1
1517203632826278,-1,0,0,-2,-2,0,0,-1
1517203632826278,0,-1,0,-2,-1,-1,-1,0
1517203632840289,-1,-1,-2,0,-2,0,-1,1
1517203632840289,0,-2,1,-2,-1,-3,-2,-2
1517203632848316,-1,0,-2,0,-1,0,-1,-1
1517203632848316,-2,-3,-1,-1,-1,-2,-1,-1
1517203632863303,-1,-1,-1,-1,-1,-1,0,-1
1517203632863303,0,0,-2,-1,-1,0,-2,-2
1517203632863804,0,-1,-1,0,-1,0,-2,-2
1517203632863804,-1,-1,-1,-3,0,-2,-2,0
1517203632885819,0,0,0,-3,1,1,0,1
1517203632885819,0,0,-2,-3,-2,-1,-2,-1
1517203632886319,-1,-3,-1,-2,-1,-2,1,-2
1517203632886319,-1,0,-2,-2,-1,0,-1,-1
1517203632899844,-1,0,-1,-1,0,-1,-1,-1
1517203632899844,-1,-1,-2,-1,-1,-1,0,-1
1517203632908333,0,-1,-2,-1,-1,0,-2,0
1517203632908333,-2,-1,-1,0,0,-3,-2,-1
1517203632923345,0,-1,-3,-2,-1,-1,-2,-2
1517203632923345,-2,0,0,1,-3,-2,0,0
1517203632923847,-2,0,-1,-2,1,0,-2,-1
1517203632923847,1,-1,1,-1,-1,1,-1,-2
1517203632945862,0,-1,0,-1,-2,-2,0,0
1517203632945862,-1,-2,-2,0,-1,-1,-2,-1
1517203632946362,-1,-2,-1,0,-2,-1,0,-2
1517203632946362,-1,-1,-1,0,-1,-1,1,0
1517203632959871,-1,-1,-2,-2,-2,-1,-2,-2
1517203632959871,0,2,0,-1,-1,0,0,-1
1517203632968402,-3,1,0,-2,-1,-1,-2,0
1517203632968402,-2,-1,-3,1,-2,-1,-1,-2
1517203632983409,0,-1,-1,-2,0,-2,0,0
1517203632983409,-1,-1,-3,-1,-2,0,0,-1
1517203632983888,0,-1,-1,-2,-1,-4,-2,-2
1517203632983888,-2,-2,-2,-1,-1,-1,0,-1
1517203633005907,-1,0,-2,0,-1,-1,0,-1
1517203633005907,-1,-1,-1,-1,-1,0,-3,1
1517203633006417,1,0,-2,0,0,0,-1,-2
1517203633006417,2,1,-1,-1,-2,-1,-3,-1
1517203633028921,-2,-2,-1,-1,-1,0,-2,0
1517203633028921,0,-1,-2,-3,-1,-1,-1,0
1517203633029921,-2,-2,-1,-1,-1,-1,0,1
1517203633029921,0,-2,-1,-2,1,-1,-1,0
1517203633043431,-1,-1,-1,-1,1,-1,-1,-2
1517203633043431,-2,-2,1,0,-1,-2,-1,-1
1517203633043930,0,-1,-1,-1,-2,-1,1,0
1517203633043930,-1,-1,0,-1,1,-2,-3,-2
1517203633065446,-1,-2,-1,-1,-2,-2,-2,-2
1517203633065446,0,-1,-2,-1,-2,-3,-2,-3
1517203633073451,0,0,-2,-1,-2,-1,-1,1
1517203633073451,0,0,-2,-3,-1,-1,0,-2
1517203633088962,1,-1,-1,0,-1,-1,-1,0
1517203633088962,-1,-3,-2,0,1,0,0,-2
1517203633089967,-2,-2,0,-1,-2,-1,0,-2
1517203633089967,-1,-1,-1,-1,-1,0,0,0
1517203633103500,0,-1,-2,1,-2,-1,0,0
1517203633103500,-1,-1,-2,1,0,-1,-2,0
1517203633103998,-1,0,-1,-1,-2,-1,-1,-1
1517203633103998,-1,-1,0,0,0,0,-1,-1
1517203633126015,-1,-1,-1,0,-1,0,-2,-3
1517203633126015,0,0,-2,-1,-1,-1,-1,1
1517203633126515,1,1,-2,-2,-2,-2,0,-1
1517203633126515,-3,-1,-2,-2,-2,-1,-1,1
1517203633149061,1,1,0,-2,-1,0,-1,-1
1517203633149061,-1,0,-2,-1,-1,0,-2,-1
1517203633149536,-2,-4,-2,-1,0,-1,-2,0
1517203633149536,0,0,-3,-1,-2,0,1,-1
1517203633163052,-3,-3,2,0,0,-1,0,-1
1517203633163052,1,-2,-1,-3,-1,-1,-2,0
1517203633164045,-4,-2,-1,0,-2,0,-2,-1
1517203633164045,1,-2,-2,-2,-1,0,-1,0
1517203633186130,5,-1,-1,-1,-1,-1,1,0
1517203633186130,-1,0,1,-2,-1,-1,0,-2
1517203633187069,0,-1,-1,-1,-1,0,-1,-1
1517203633187069,-1,-1,-1,-1,-1,-1,0,-3
1517203633209086,4,4,-1,-3,-3,-2,0,-2
1517203633209086,-3,1,2,0,0,-1,0,4
1517203633209586,2,2,0,-2,0,-1,-3,-4
1517203633209586,-5,-6,-2,0,-2,-2,-3,-4
1517203633223598,-4,-4,-2,-1,0,1,-1,-1
1517203633223598,0,-1,-2,0,-1,-1,-1,-2
1517203633224098,-5,1,1,0,-2,0,0,-1
1517203633224098,-2,-3,-1,-4,-3,-1,-1,0
1517203633245623,-5,-3,-1,-1,-1,-2,-1,-2
1517203633245623,-2,0,0,-1,0,-1,-1,-2
1517203633246624,-2,-6,-3,-2,1,-2,-1,1
1517203633246624,4,0,0,1,-2,-3,-2,-2
1517203633269151,-2,0,1,4,-3,-2,-1,-2
1517203633269151,-7,-8,-3,-3,-2,-1,0,-1
1517203633270629,-3,1,-3,-4,-1,-1,-3,-3
1517203633270629,-1,4,-1,0,-2,-1,1,4
1517203633283137,8,4,-2,-4,-1,-2,-4,-2
1517203633283137,0,-3,-1,2,0,1,-1,-3
1517203633284148,9,0,3,2,0,1,2,7
1517203633284148,-14,-11,-3,-2,-1,0,-1,-1
1517203633306155,-4,7,4,3,1,0,0,-3
1517203633306155,7,6,-1,-4,-1,-1,0,3
1517203633306654,-12,0,-4,0,-1,-3,-4,-8
1517203633306654,11,-2,7,4,-1,0,4,8
1517203633328669,6,0,0,-3,-1,1,0,-4
1517203633328669,-5,6,2,4,2,-1,-2,-4
1517203633329669,-14,-8,-7,-8,-2,-3,-2,-4
1517203633329669,-1,12,3,4,1,3,2,1
1517203633343180,-3,-15,-5,-3,0,-2,-2,-2
1517203633343180,2,0,-4,-3,-2,0,1,3
1517203633350701,17,-6,5,5,0,-2,0,-5
1517203633350701,-1,5,-1,-3,-1,-3,-3,1
1517203633365695,-10,-4,-3,-2,0,1,3,4
1517203633365695,8,16,4,2,-1,0,-1,4
1517203633366696,-22,-16,-9,-4,-3,-1,-3,-3
1517203633366696,-3,-5,1,-2,-1,-3,-5,-8
1517203633389213,7,17,8,5,1,3,4,8
1517203633389213,-24,-13,-5,4,-1,-1,3,0
1517203633389712,14,5,6,-2,-1,-1,3,6
1517203633389712,26,3,-9,-13,-2,-1,-2,-2
1517203633403223,0,-4,-5,-6,-3,-5,-5,-4
1517203633403223,-24,-10,-3,0,1,0,0,-6
1517203633404222,-2,-13,1,-2,1,0,2,7
1517203633404222,1,2,11,12,0,-3,-1,-2
1517203633425738,0,-1,-7,-3,-3,-2,0,-4
1517203633425738,9,-2,2,-3,-2,-1,-1,-1
1517203633426738,18,8,-3,3,-1,-2,-1,2
1517203633426738,-10,-3,-4,-3,2,4,1,-1
1517203633448754,-7,-17,-9,-4,-2,-3,-3,-4
1517203633448754,-5,-1,-3,-5,-1,-3,-4,-3
1517203633449771,3,11,2,2,1,0,-2,-1
1517203633449771,-20,-25,-10,-4,-4,-2,-2,-2
1517203633463764,-4,18,15,-2,-1,-1,-3,-5
1517203633463764,26,-7,-2,3,1,2,7,18
1517203633464274,-10,-5,-3,-8,-3,-2,-5,-16
1517203633464274,5,12,-6,-4,-1,-1,-3,2
1517203633485795,-16,-14,-1,1,2,0,0,-1
1517203633485795,-10,-10,-4,-9,-7,-8,-8,-12
1517203633486280,23,9,1,6,0,1,9,15
1517203633486280,-22,-11,-2,0,1,-2,4,-9
1517203633508802,2,-4,-7,-4,-2,-3,-8,2
1517203633508802,-20,-7,3,1,-1,-1,-4,-5
1517203633509800,-5,2,-2,0,-2,2,0,0
1517203633509800,24,-5,-6,-6,-5,-2,8,1
1517203633523308,1,8,4,0,-1,1,-6,8
1517203633523308,15,1,-1,1,-1,-1,-4,-16
1517203633523810,-29,-3,5,6,0,-1,-5,-18
1517203633523810,18,4,-8,-15,0,-1,-7,13
1517203633545823,1,3,10,6,-3,-2,2,-10
1517203633545823,12,13,-3,-1,-1,-2,1,11
1517203633546323,18,-2,0,4,-1,-1,3,10
1517203633546323,-23,1,13,5,-2,-3,-4,-6
1517203633568879,1,-2,-6,2,3,5,9,10
1517203633568879,-9,-6,-7,-7,-3,-3,-4,-10
1517203633570383,2,14,-7,-7,0,0,-6,-2
1517203633570383,-17,-15,-10,0,-1,0,11,-7
1517203633583403,0,14,9,3,2,3,23,6
1517203633583403,8,-11,1,-6,-5,-12,-57,4
1517203633583889,-19,-8,-14,-7,-3,-1,-12,-15
1517203633583889,7,3,12,-2,0,-3,-4,0
1517203633605907,-16,17,5,0,-3,-3,7,6
1517203633605907,19,15,10,5,0,4,25,-12
1517203633606405,-20,-40,27,11,3,0,8,27
1517203633606405,4,14,-35,-12,-4,-1,-28,-4
1517203633628945,-5,-27,-5,-4,0,2,-5,-5
1517203633628945,-9,18,-7,1,1,7,46,4
1517203633629435,-3,5,11,-12,-5,-10,-70,-37
1517203633629435,4,-5,8,12,4,1,9,5
1517203633643446,26,1,-13,-3,-3,-3,10,4
1517203633643446,-24,-33,-8,-6,-2,-3,-44,-15
1517203633643945,12,5,2,13,0,2,21,11
1517203633643945,-15,5,0,-4,0,1,-1,-10
1517203633665960,-28,-19,17,8,-2,-5,-25,4
1517203633665960,4,1,-15,-8,-3,-1,22,0
1517203633666459,17,20,0,-3,-1,3,33,-14
1517203633666459,9,1,-2,7,1,-5,-56,-15
1517203633688992,-32,-21,8,-9,-3,0,2,-4
1517203633688992,1,16,2,10,2,1,7,1
1517203633689980,1,-7,-4,2,1,3,20,27
1517203633689980,-4,19,33,2,-3,-4,6,-10
1517203633702487,5,13,-1,3,0,-1,-11,-14
1517203633702487,-5,-22,-17,-9,-4,-7,-2,-4
1517203633710492,-19,-12,-15,1,-1,0,3,68
1517203633710492,48,25,19,-4,1,4,16,7
1517203633726003,11,-6,-21,6,1,0,14,13
1517203633726003,4,-2,17,-9,-3,-3,-18,-34
1517203633726502,7,44,2,11,0,2,-10,11
1517203633726502,-8,-22,9,-15,-7,-5,12,9
1517203633749018,-18,-57,-20,-9,3,2,-6,-7
1517203633749018,26,34,-3,-2,-3,0,17,19
1517203633750019,-22,3,21,-3,-1,-1,-8,-49
1517203633750019,15,-18,-16,9,3,3,5,28
1517203633762528,0,6,-5,11,0,0,-11,-25
1517203633762528,0,-21,-22,-11,3,2,24,12
1517203633771041,-25,16,10,-4,-10,-11,-12,-20
1517203633771041,5,2,-7,-1,-2,0,-7,-5
1517203633785763,20,27,41,-6,-3,-4,-8,-3
1517203633785763,-14,-19,-26,11,1,5,30,38
1517203633786265,20,8,-22,-17,-3,-3,-40,-39
1517203633786265,-30,-46,-18,4,-2,-1,2,9
1517203633810281,-17,31,25,-3,1,-2,-4,-3
1517203633810281,-17,-11,-26,5,-2,-4,-15,7
1517203633811282,50,32,18,-17,-1,1,22,11
1517203633811282,-11,-8,-9,17,1,-1,8,-4
1517203633822790,-3,5,-33,-27,-7,-5,-21,-23
1517203633822790,5,-20,34,22,5,3,10,29
1517203633830796,-27,-52,-37,-25,-8,-3,-10,1
1517203633830796,-27,19,33,22,6,3,13,-11
1517203633845805,50,-2,-13,-21,-8,-7,-7,18
1517203633845805,-4,29,26,0,0,0,28,53
1517203633846811,-10,-37,18,33,6,-3,-41,-91
1517203633846811,10,32,-60,-54,-14,-1,8,59
1517203633869410,15,-30,-24,8,1,5,39,18
1517203633869410,0,-3,35,6,-1,-8,-44,-29
1517203633870405,-14,5,-31,-2,0,1,5,12
1517203633870405,-24,-14,-5,1,-2,-7,-14,-68
1517203633882474,-16,11,2,25,5,2,11,17
1517203633882474,-1,-49,-64,-31,-4,2,-20,-8
1517203633890987,20,1,8,12,6,6,66,23
1517203633890987,2,14,40,6,3,-2,-36,-24
1517203633905996,16,28,-42,-9,-3,0,-9,-1
1517203633905996,-28,-12,-16,-2,1,-1,29,-8
1517203633906482,11,-56,12,20,6,1,0,37
1517203633906482,-17,-2,-20,-17,-8,-2,-19,-3
1517203633929007,17,1,39,13,7,0,-25,-21
1517203633929007,-6,18,-6,-3,-4,-1,4,-2
1517203633929498,2,-22,-49,-18,-7,-4,18,50
1517203633929498,-1,16,-13,-2,-5,-9,-21,-68
1517203633942517,-11,-43,4,5,4,7,14,-7
1517203633942517,49,28,49,2,-1,-2,-9,5
1517203633950527,0,13,-48,-1,2,2,-2,-4
1517203633950527,13,26,43,26,9,9,21,28
1517203633965524,11,62,-14,-30,-9,-6,7,42
1517203633965524,-64,-66,-21,-6,-2,-1,-10,-11
1517203633966523,35,7,-17,-2,-8,-7,-25,16
1517203633966523,-21,-22,5,-4,-3,-3,12,-14
1517203633989091,-47,-13,6,-8,0,-3,-23,-51
1517203633989091,26,34,26,2,0,4,5,-29
1517203633989591,9,-4,18,2,1,0,-5,18
1517203633989591,16,31,22,12,7,9,37,60
1517203634011109,-27,-89,-20,-15,-8,-4,7,15
1517203634011109,28,68,36,3,-4,-6,2,-58
1517203634011609,18,15,20,-4,0,1,26,-3
1517203634011609,45,48,-28,2,3,4,-8,-7
1517203634025619,-8,-27,17,18,8,6,-27,-49
1517203634025619,33,23,-16,-4,-2,0,-31,8
1517203634026620,-61,-11,42,-2,0,-2,8,22
1517203634026620,-36,-61,-11,7,-2,-3,33,-4
1517203634049149,34,-7,-48,-11,-2,-2,-3,49
1517203634049149,-12,2,-16,14,7,-2,14,7
1517203634049644,12,71,-1,-22,-12,-6,-18,-38
1517203634049644,-5,-29,23,1,-3,-1,13,16
1517203634071651,8,27,42,0,-5,-6,5,-37
1517203634071651,17,66,100,12,0,-3,-9,38
1517203634072152,-6,-74,-35,-18,0,-3,16,2
1517203634072152,-30,-26,41,-8,-7,-7,-25,-24
1517203634085669,32,59,72,12,1,3,30,17
1517203634085669,-38,-6,-17,-4,-8,-8,-28,-15
1517203634086665,30,6,34,11,2,-3,-5,11
1517203634086665,5,-23,-38,-11,-2,1,6,-27
1517203634108678,-25,4,-51,-7,-8,-3,16,14
1517203634108678,22,4,52,11,-2,-9,-26,0
1517203634109680,-33,50,1,9,3,2,-1,-20
1517203634109680,3,-35,-58,-20,5,2,-24,34
1517203634131206,23,27,20,-6,-3,-2,2,18
1517203634131206,-1,44,-2,9,1,0,-14,-17
1517203634132205,-30,-31,-25,-13,-1,9,32,17
1517203634132205,3,-41,0,20,1,0,1,20
1517203634145704,10,-11,-45,1,-4,-7,-10,48
1517203634145704,-36,32,2,-3,1,6,45,28
1517203634146703,32,23,-33,-16,-5,-10,-38,-6
1517203634146703,12,42,20,-10,-2,2,-16,-13
1517203634168719,20,-39,-50,0,-1,-6,38,35
1517203634168719,8,-53,-23,-23,-5,2,-40,-73
1517203634170722,12,40,-17,24,4,1,3,34
1517203634170722,2,19,75,-6,-4,-1,3,-11
1517203634191240,-3,16,47,-8,1,2,-21,21
1517203634191240,-5,-52,-105,-6,-1,-3,19,23
1517203634192247,-55,-27,75,2,-2,-6,-6,-109
1517203634192247,41,50,-1,6,6,3,7,28
1517203634205748,-55,-36,46,18,-1,-4,-8,-22
1517203634205748,12,21,-54,-18,-12,-11,-15,-17
1517203634206747,-12,0,-25,5,-3,-3,-4,26
1517203634206747,-10,-53,9,-19,-3,-4,1,11
1517203634228761,1,-47,-11,-1,-7,-2,21,-30
1517203634228761,-10,-31,-11,6,7,4,-6,42
1517203634229761,-21,-72,-37,-10,-3,2,16,-1
1517203634229761,-7,42,-18,-12,-2,-6,-35,-42
1517203634251286,12,56,32,6,1,2,-15,-25
1517203634251286,-5,-17,-17,0,6,4,-6,-10
1517203634252287,-1,19,18,-14,-11,-8,0,22
1517203634252287,-10,-13,-8,27,8,4,8,-29
1517203634265788,-21,38,-27,-18,-4,-1,-7,-3
1517203634265788,6,-60,-9,-1,-2,1,27,2
1517203634266290,16,-13,13,21,7,1,-29,-11
1517203634266290,17,41,-8,-36,-17,-5,1,32
1517203634288805,-14,-11,-29,-9,-4,-2,0,-10
1517203634288805,38,15,67,20,8,1,-16,-3
1517203634289808,-6,18,-13,8,-2,3,8,0
1517203634289808,-1,-34,-30,-18,-10,-10,12,-11
1517203634311321,18,-25,1,6,7,4,-22,1
1517203634311321,-3,21,-31,-4,-9,-6,-1,-17
1517203634312834,6,-29,-9,-7,-1,0,-16,-66
1517203634312834,-7,-5,20,15,5,0,20,23
1517203634325840,10,28,-30,3,3,0,-2,25
1517203634325840,-36,-23,14,8,0,-2,-8,-51
1517203634326332,-19,17,19,-17,-1,4,4,26
1517203634326332,-15,9,-50,6,2,0,-9,-8
1517203634349395,12,3,38,6,-3,-3,5,-6
1517203634349395,-14,-8,36,10,0,-3,-4,7
1517203634350415,-33,-48,-34,-11,-6,-4,-2,-31
1517203634350415,-3,2,32,12,1,0,2,39
1517203634371411,-1,22,-13,-9,-2,1,-12,-45
1517203634371411,-5,-46,-24,-15,-6,-6,12,46
1517203634372412,51,49,67,-4,2,4,8,60
1517203634372412,-6,-27,-12,17,3,0,-13,-43
1517203634385444,-34,6,6,26,4,2,25,22
1517203634385444,1,27,-16,-34,0,2,-3,1
1517203634386421,11,7,-44,-2,-2,-4,-5,12
1517203634386421,11,43,37,17,5,3,-4,-23
1517203634408936,2,-31,-61,-3,2,2,10,14
1517203634408936,28,30,-8,7,4,4,8,7
1517203634409437,-10,-54,20,-8,-1,-2,12,33
1517203634409437,-5,-8,-20,6,-1,-4,-13,21
1517203634431452,2,16,-4,-21,-6,-7,-36,-61
1517203634431452,-4,29,12,-10,-3,5,24,16
1517203634432455,32,0,8,4,-4,-5,-28,-22
1517203634432455,-13,2,-28,-5,-2,-1,11,5
1517203634444961,-4,-46,-27,9,4,1,2,23
1517203634444961,32,36,7,-2,-3,1,19,18
1517203634459984,-18,-16,46,-4,1,2,0,11
1517203634459984,-10,7,-33,-15,-5,-3,-15,-47
1517203634468978,23,-12,67,13,2,-4,-10,1
1517203634468978,-48,-12,-13,4,1,1,9,-7
1517203634471483,6,-1,39,12,-2,-3,-17,-58
1517203634471483,19,-56,-54,2,2,4,18,46
1517203634491504,-12,16,65,-19,-5,-3,3,14
1517203634491504,9,-17,16,-4,-1,-3,-13,-5
1517203634492995,-11,16,-28,12,1,5,14,9
1517203634492995,0,23,8,-2,-4,-8,11,23
1517203634505005,6,39,-21,5,5,1,-27,-50
1517203634505005,-28,-18,26,-14,-8,-9,-3,-5
1517203634514021,6,20,-12,-2,0,0,23,43
1517203634514021,-13,-8,-23,-5,-3,-2,-19,-67
1517203634529030,4,-19,-33,-13,-3,0,35,45
1517203634529030,18,-6,7,0,-1,-6,-50,-20
1517203634530531,14,31,21,14,8,5,9,6
1517203634530531,-6,16,16,-6,-8,-3,-1,11
1517203634552040,-32,-18,46,7,4,0,25,8
1517203634552040,-5,-12,-6,6,2,5,-5,-19
1517203634553539,13,43,-31,-19,-4,-5,-4,-7
1517203634553539,-33,-59,33,7,1,0,-11,0
1517203634565046,5,33,17,3,-5,-2,2,28
1517203634565046,10,4,9,8,-2,-3,-3,-13
1517203634574055,19,37,-41,-4,-3,-2,-8,2
1517203634574055,-5,39,61,-11,-1,3,17,23
1517203634589065,-13,35,-36,2,1,-4,-25,-21
1517203634589065,17,-53,16,10,2,0,5,13
1517203634590568,-7,-13,-56,1,0,3,23,16
1517203634590568,17,45,35,3,-1,-3,-33,-55
1517203634611594,-17,-16,-26,0,-3,-3,29,23
1517203634611594,19,49,19,3,4,6,1,0
1517203634613092,-31,-51,-33,-46,-5,0,-3,14
1517203634613092,7,20,48,3,-3,-7,11,59
1517203634625095,35,4,-33,7,-1,0,-5,-26
1517203634625095,-49,-25,5,3,-2,-2,17,67
1517203634634096,13,21,-12,-25,-5,-5,-30,-94
1517203634634096,-10,-4,9,-1,-1,1,-1,12
1517203634649115,-11,4,73,6,1,0,21,7
1517203634649115,5,8,-34,-6,-1,1,-36,-19
1517203634651107,-19,-7,-11,7,-6,-8,10,-3
1517203634651107,-20,0,-28,-15,-5,-4,-12,-49
1517203634671666,26,-14,17,10,6,8,-6,12
1517203634671666,-14,33,65,26,8,4,16,10
1517203634673165,16,-8,-18,-11,-10,-9,-23,-8
1517203634673165,16,6,-14,-7,3,-1,2,1
1517203634685183,-34,-9,-15,-23,-11,-7,-13,18
1517203634685183,-5,-20,-100,-7,-2,1,7,-14
1517203634694179,24,10,50,18,4,3,1,-9
1517203634694179,4,13,23,24,6,-2,-16,-4
1517203634708699,-46,-26,-38,-5,-9,-5,-8,42
1517203634708699,14,106,108,-20,-1,-4,19,15
1517203634710719,-32,-71,-37,3,-1,-1,5,-55
1517203634710719,27,-14,-10,8,4,9,25,37
1517203634731215,13,-18,-45,-8,3,3,-1,-16
1517203634731215,-7,-16,-29,5,-3,-7,-13,-23
1517203634732707,-10,-31,22,-2,1,4,26,25
1517203634732707,-53,-57,-28,-12,-4,-4,14,45
1517203634745716,18,-14,-20,-1,2,-3,-36,-64
1517203634745716,-2,-12,-24,-5,-4,3,26,6
1517203634754229,18,-21,54,11,2,-1,17,52
1517203634754229,7,29,-21,0,-2,-1,-26,-81
1517203634768771,-31,-32,48,-8,-7,-5,2,0
1517203634768771,29,0,-21,0,-2,-1,9,6
1517203634771744,-50,-46,-43,-8,-4,-9,-26,3
1517203634771744,-10,-54,-13,-8,-2,3,22,14
1517203634791750,29,29,25,4,-1,-1,8,-19
1517203634791750,-1,-90,-9,8,6,5,-1,35
1517203634793269,-17,49,-53,5,-3,-3,-11,-50
1517203634793269,-8,27,26,8,3,1,23,41
1517203634805260,-29,-25,-53,-35,-6,-3,-36,-52
1517203634805260,-17,20,33,10,-6,-1,0,16
1517203634813764,45,9,-11,21,5,4,-13,16
1517203634813764,4,-45,-23,-36,-13,-7,30,34
1517203634828832,-26,40,22,10,-2,-10,-62,-50
1517203634828832,-22,-11,-31,-2,0,0,-2,-5
1517203634830333,50,19,-26,-18,-3,2,0,7
1517203634830333,-1,-50,-58,-5,0,1,3,-13
1517203634858854,17,-18,58,30,6,5,10,-1
1517203634858854,-7,-3,-36,-37,-9,-6,9,24
1517203634860354,-30,-18,45,6,1,-2,-18,-20
1517203634860354,54,50,-2,26,9,2,-4,-74
1517203634864871,1,-3,-8,9,1,-2,56,49
1517203634864871,-22,-52,-16,-20,-3,-2,-63,-100
1517203634873864,2,48,28,21,5,-1,10,28
1517203634873864,37,18,25,18,6,1,-41,-14
1517203634888959,-28,27,-24,-10,-6,-2,24,1
1517203634888959,20,-37,1,-24,-4,-3,-4,16
1517203634890457,-22,-31,75,-9,-3,1,-4,2
1517203634890457,-25,14,35,12,2,-6,-16,10
1517203634911470,35,-39,-48,0,0,4,21,5
1517203634911470,-20,-44,-72,14,-2,-6,-21,7
1517203634912977,38,57,28,7,-2,-6,-22,-3
1517203634912977,-21,-15,45,-6,2,2,7,27
1517203634924984,28,10,-16,-14,-2,1,5,8
1517203634924984,-2,-23,32,18,5,-3,18,0
1517203634933986,-44,12,13,-17,-10,-8,-40,-38
1517203634933986,-23,21,-74,-18,-10,-2,8,8
1517203634949005,23,-9,11,-1,0,-3,-46,-35
1517203634949005,29,69,17,12,5,5,25,29
1517203634951509,5,10,10,4,-5,-5,3,-1
1517203634951509,-65,-73,5,-5,-11,-12,-16,-6
1517203634971515,32,30,-23,-35,-5,-2,-3,15
1517203634971515,20,69,39,21,6,4,-11,-27
1517203634973020,24,-22,-6,18,12,7,32,21
1517203634973020,32,54,17,-11,-15,-7,-4,-11
1517203634994076,-36,10,-13,-20,-3,-2,17,-9
1517203634994076,23,30,-71,-9,-4,-6,-1,17
1517203634995588,34,32,59,12,3,4,32,40
1517203634995588,39,-37,-23,-5,-3,-7,-43,-17
1517203635008098,-21,24,16,32,6,0,-23,-32
1517203635008098,-24,-54,41,-18,1,5,33,-31
1517203635016594,-6,48,-84,-10,1,3,-2,-18
1517203635016594,-48,44,75,18,4,3,8,35
1517203635031620,94,62,15,32,11,13,54,38
1517203635031620,-57,-4,-32,-36,-13,-9,-10,14
1517203635033115,-9,11,19,36,8,6,-22,-22
1517203635033115,-4,-84,-16,-14,2,6,39,22
1517203635054121,5,34,6,5,4,-3,-57,-51
1517203635054121,60,7,83,28,6,7,19,8
1517203635055623,-25,4,-41,-44,-14,-4,18,43
1517203635055623,-25,-18,-122,-24,-1,0,6,26
1517203635068135,-40,-87,17,2,-6,-10,-30,-19
1517203635068135,-28,-7,4,-8,-8,-7,-2,-29
1517203635075136,-18,-27,42,48,14,6,2,30
1517203635075136,37,20,-53,-29,-3,3,29,-12
1517203635091654,33,-21,19,-1,1,-1,-13,-43
1517203635091654,-54,17,14,-2,-3,-2,20,13
1517203635093151,8,8,-10,5,0,2,-21,-17
1517203635093151,-6,60,46,16,3,6,16,65
1517203635113672,8,-24,-34,3,-2,-6,-13,15
1517203635113672,52,63,90,22,9,7,3,10
1517203635115664,-28,-103,-34,-12,-7,-8,-17,7
1517203635115664,24,-36,-38,-7,-11,-14,-21,-77
1517203635128674,-57,3,32,-48,-11,2,44,8
1517203635128674,-22,-36,-40,13,-4,-4,-9,53
1517203635135179,25,29,43,15,8,8,25,-11
1517203635135179,21,-31,12,38,6,0,-16,-26
1517203635151198,-52,-3,-64,-60,-18,-8,11,38
1517203635151198,5,-9,-47,2,2,-3,-12,-27
1517203635152690,44,-9,5,-6,-4,10,48,35
1517203635152690,20,25,54,26,13,1,-25,-30
1517203635173705,-28,-28,-45,-20,-13,-8,-8,12
1517203635173705,-20,1,-23,3,2,1,-15,-16
1517203635175722,6,55,37,12,4,-1,-2,-21
1517203635175722,-11,-48,49,7,2,5,33,8
1517203635188218,-16,0,21,24,2,-1,-8,11
1517203635188218,-15,1,-55,-18,-1,2,-29,-64
1517203635195223,-14,3,-43,-17,-6,-6,1,-3
1517203635195223,6,27,35,12,8,0,-9,-1
1517203635211233,47,42,54,47,7,5,8,55
1517203635211233,-92,-18,24,-59,-14,-5,42,-2
1517203635212742,27,80,77,29,11,-3,-33,-23
1517203635212742,28,-40,-35,-23,-6,2,8,-29
1517203635233791,8,42,-31,29,0,-6,-43,-10
1517203635233791,-7,-67,47,-16,-5,-5,1,-18
1517203635235251,-24,21,8,4,-2,0,7,8
1517203635235251,-56,-19,-66,-29,-5,-6,-1,16
1517203635248261,-4,-57,28,18,7,7,26,0
1517203635248261,45,33,49,17,5,2,-16,-29
1517203635255264,-31,17,-52,-23,-11,-10,-19,1
1517203635255264,-3,-30,-1,-7,-7,-7,-2,-16
1517203635271275,-19,79,22,10,3,-1,32,-1
1517203635271275,59,27,-13,-20,-4,0,11,53
1517203635272775,19,-62,31,30,4,-1,-45,-78
1517203635272775,-8,-21,-56,-20,-4,-4,-16,37
1517203635293790,-2,-6,-5,-10,-3,-2,-12,-4
1517203635293790,6,26,56,29,6,0,1,33
1517203635295298,-6,-11,-93,-26,-8,-6,-3,7
1517203635295298,-1,-24,6,-37,-16,-11,-10,-30
1517203635308305,15,46,16,-12,2,-1,-10,-57
1517203635308305,22,-61,30,27,-1,-7,16,10
1517203635314805,-2,-67,12,-13,2,2,8,50
1517203635314805,-15,38,-34,-24,-3,0,-3,-5
1517203635331326,6,-15,14,25,1,-6,-37,-24
1517203635331326,19,24,-14,4,-4,-1,-39,6
1517203635332827,-50,21,12,11,0,-4,-6,-32
1517203635332827,39,50,17,-28,-8,2,21,78
1517203635353860,-15,-27,42,6,8,8,17,34
1517203635353860,18,35,-37,9,-4,-2,-36,-66
1517203635355366,-23,-100,-20,7,0,0,-3,9
1517203635355366,-8,26,11,6,3,4,-22,-22
1517203635368392,-9,-29,-84,4,-7,-5,12,38
1517203635368392,0,-15,-38,-14,-2,3,8,34
1517203635375377,-14,8,38,-13,-5,-4,2,-47
1517203635375377,27,44,47,35,6,3,22,9
1517203635391392,14,14,48,3,4,-3,-26,2
1517203635391392,8,-12,-60,-28,-19,-13,-13,-40
1517203635392890,-16,-1,53,-23,-7,-7,12,17
1517203635392890,36,20,-69,6,2,-1,7,16
1517203635413919,-18,15,57,-15,5,10,25,27
1517203635413919,39,73,81,27,10,6,5,19
1517203635415420,-43,-42,-91,-42,-16,-5,13,80
1517203635415420,17,12,40,35,6,-3,-48,-53
1517203635428430,-12,-52,8,-2,-6,-1,11,15
1517203635428430,-58,-91,-109,-20,4,7,5,-52
1517203635434935,18,75,93,24,8,3,-3,52
1517203635434935,36,16,5,-2,-7,2,37,40
1517203635451455,-26,-10,-32,-18,-6,-1,-15,-44
1517203635451455,21,8,-36,34,10,7,-9,9
1517203635452956,3,-39,-43,-18,-8,-8,13,-3
1517203635452956,15,34,60,23,8,6,10,-7
1517203635473962,-25,-75,-63,-11,2,-4,-28,-51
1517203635473962,17,45,53,-20,-1,-2,50,14
1517203635475463,31,-29,-50,5,4,6,14,-9
1517203635475463,-22,-2,21,-5,-3,-2,-3,9
1517203635487473,-2,-9,0,24,7,3,3,4
1517203635487473,-2,85,16,-3,2,8,25,40
1517203635496477,-46,-41,2,-18,1,-3,7,41
1517203635496477,-8,66,38,19,3,1,-13,-34
1517203635510997,-2,27,-49,-48,-11,-5,-13,-2
1517203635510997,-47,-41,-4,24,-5,-9,-9,5
1517203635512999,67,9,-37,-1,-3,-6,-23,-33
1517203635512999,17,10,-56,-7,-6,-3,2,13
1517203635534016,30,-23,46,5,-4,-8,39,37
1517203635534016,-3,-69,-17,-33,-9,-6,-45,-46
1517203635535515,-47,-12,8,-11,-7,-2,18,3
1517203635535515,-49,53,14,32,12,5,1,-35
1517203635547531,13,-9,60,29,1,6,11,61
1517203635547531,-21,-49,-72,-21,-7,-13,-47,-58
1517203635556520,48,77,34,14,3,6,14,-5
1517203635556520,-33,-9,90,16,4,1,-29,-45
1517203635571533,-2,-17,-98,-27,-7,5,17,24
1517203635571533,46,59,45,11,3,3,28,-6
1517203635573035,-23,-7,-25,-31,-9,-5,-27,-28
1517203635573035,39,31,35,18,12,13,8,51
1517203635594086,30,46,65,8,2,-7,-29,-44
1517203635594086,-53,-97,-63,-13,-10,-10,-13,-19
1517203635595589,-42,43,33,7,-5,-8,-5,-29
1517203635595589,17,-90,-70,-49,-16,-7,13,31
1517203635607601,-15,52,51,11,7,5,11,11
1517203635607601,25,26,-9,-8,-2,0,22,34
1517203635616603,27,29,7,15,5,1,-2,4
1517203635616603,-115,-128,13,-14,-13,-13,-18,-31
1517203635630615,58,27,-59,-10,2,6,19,33
1517203635630615,-29,0,46,19,4,-2,-16,33
1517203635639122,16,42,75,-12,1,7,23,27
1517203635639122,-19,-63,-78,-11,-5,-5,-16,-9
1517203635654132,27,-9,16,9,3,1,32,29
1517203635654132,6,3,78,9,1,2,-8,57
1517203635655634,-15,-1,-72,-3,-4,-8,-47,-68
1517203635655634,24,42,-8,9,0,-2,-10,-32
1517203635667640,-6,28,36,-32,-16,-9,-17,-19
1517203635667640,-41,-13,-25,6,0,0,8,17
1517203635676647,31,41,7,1,-2,0,14,13
1517203635676647,-11,-57,-64,-14,-8,-9,-3,-3
1517203635691657,-18,48,-41,12,1,-3,-32,-21
1517203635691657,7,21,17,-5,1,2,17,2
1517203635692658,74,19,16,36,9,8,29,19
1517203635692658,-34,-19,-11,-53,-13,-8,-18,3
1517203635714173,-13,-19,-1,-10,-7,-3,8,-8
1517203635714173,-34,49,70,27,5,-1,-2,-34
1517203635715676,11,-61,-113,-28,-3,1,-10,22
1517203635715676,45,35,65,14,-2,-2,37,40
1517203635727682,-7,-51,45,19,-12,0,-11,-18
1517203635727682,23,3,-52,-22,11,-7,-29,-25
1517203635736688,-51,-24,42,0,-1,-1,-6,-46
1517203635736688,51,55,56,43,12,11,20,50
1517203635752212,-29,-88,-85,-37,-15,-11,-26,-32
1517203635752212,26,12,-17,16,8,5,9,-14
1517203635753703,3,-10,51,11,1,-3,-5,-18
1517203635753703,11,-46,-35,-14,-2,-4,-2,32
1517203635774216,5,30,50,27,4,1,17,-3
1517203635774216,34,9,-14,-2,-7,1,-10,27
1517203635775717,-7,18,14,-41,-6,-6,-16,-31
1517203635775717,-41,-12,-45,-8,-5,-3,1,-2
1517203635787727,5,24,25,17,14,6,10,-30
1517203635787727,13,4,-38,-8,-5,-2,4,-8
1517203635796230,-21,-11,14,5,-1,4,9,19
1517203635796230,35,66,18,37,9,11,-18,-17
1517203635811250,-59,-65,-8,-25,0,-5,26,36
1517203635811250,-49,-14,0,-16,-6,-4,-46,-63
1517203635812752,9,-53,-53,2,-5,-3,5,20
1517203635812752,12,98,57,7,5,6,-3,-44
1517203635833757,-32,-23,5,-5,3,-3,-14,22
1517203635833757,14,-13,-14,0,-15,-11,-4,10
1517203635835259,-32,-21,-52,-24,-4,-7,-4,-17
1517203635835259,-55,-10,76,24,9,3,11,46
1517203635847312,49,-56,-61,-12,-10,-3,-20,-31
1517203635847312,-17,13,37,-6,-10,-7,-8,-13
1517203635856319,23,7,54,15,9,9,44,39
1517203635856319,1,-11,-78,-22,-9,-13,-49,-32
1517203635870830,-13,36,38,0,-2,-2,39,25
1517203635870830,67,12,3,23,7,10,25,31
1517203635884839,-31,-41,24,12,-1,-4,-26,5
1517203635884839,-14,-24,5,-6,-3,-5,-8,-21
1517203635893846,6,39,-26,-12,0,3,11,11
1517203635893846,40,9,-9,-13,-3,-1,8,5
1517203635895347,3,24,-21,-1,-4,-3,-10,-9
1517203635895347,-30,-21,15,12,2,3,33,24
1517203635916361,33,0,-46,-12,1,-1,-25,-19
1517203635916361,-4,18,-17,15,9,9,33,6
1517203635917863,20,-51,-40,-21,-10,-7,-28,3
1517203635917863,11,17,16,-24,-7,-5,2,0
1517203635931371,6,21,9,3,2,-1,-9,-6
1517203635931371,1,-14,-16,-12,-2,-2,-3,32
1517203635932872,-22,23,50,26,8,2,-1,-18
1517203635932872,-18,-14,3,-1,3,3,26,6
1517203635953888,-13,7,-24,-11,-8,-4,-38,-36
1517203635953888,4,0,43,6,1,0,9,21
1517203635955393,-15,-10,-58,5,1,1,-18,-30
1517203635955393,2,-47,-2,-44,-16,-11,-19,-13
1517203635976403,8,22,-6,19,6,4,1,16
1517203635976403,4,-42,26,-9,-1,-5,-17,-28
1517203635977914,-3,19,-25,-4,-2,-4,11,-1
1517203635977914,53,23,13,4,1,1,2,16
1517203635991446,-19,-31,16,14,1,-1,-1,-14
1517203635991446,-36,-64,-63,-27,-12,-7,7,18
1517203635992950,11,37,56,10,9,10,21,54
1517203635992950,3,-36,-77,8,-2,-4,2,-58
1517203636013975,-20,64,26,-1,1,2,9,6
1517203636013975,10,-12,32,12,-1,-1,-5,-2
1517203636015473,-7,38,-8,-3,0,1,8,-12
1517203636015473,-44,-62,-36,-31,-12,-8,17,27
1517203636036480,48,11,15,3,-3,-4,-32,-32
1517203636036480,-71,40,71,7,-1,-3,18,7
1517203636037999,44,-39,-69,7,1,-1,-31,-43
1517203636037999,-29,-43,-19,-7,-3,0,20,16
1517203636050516,-24,11,12,5,4,3,8,-14
1517203636050516,-9,-3,18,-16,-8,-2,-18,25
1517203636057511,-22,5,-10,-16,-8,-9,37,-17
1517203636057511,32,40,59,38,10,6,3,-16
1517203636074020,18,-32,-31,-22,-10,-10,-14,16
1517203636074020,27,27,-35,8,5,5,15,-5
1517203636075524,-7,24,-3,5,3,2,-12,28
1517203636075524,-22,-19,-30,-4,4,3,19,4
1517203636096547,22,34,61,15,-1,-5,-31,-39
1517203636096547,-31,-82,-50,-2,-1,1,-2,-13
1517203636098036,-13,0,68,-4,-9,-11,-1,9
1517203636098036,17,25,-27,-1,-2,-1,2,3
1517203636110547,-32,-21,37,17,7,4,17,3
1517203636110547,24,18,-19,-14,-7,-1,-1,4
1517203636117549,12,24,42,8,-1,0,-8,-24
1517203636117549,32,84,40,-24,-2,0,-13,5
1517203636133570,-11,37,-30,9,2,0,10,-10
1517203636133570,-24,-80,-40,-5,-2,-3,-19,-11
1517203636135583,-3,14,22,1,-3,-2,9,14
1517203636135583,0,7,26,10,2,1,-26,-1
1517203636156576,16,0,-7,-6,-2,-1,16,-4
1517203636156576,-7,31,11,10,1,-2,-17,-5
1517203636158080,-46,-40,-18,-38,-6,3,4,9
1517203636158080,21,23,-18,15,3,1,39,38
1517203636170587,0,22,27,1,-1,-2,-33,-23
1517203636170587,-12,25,12,3,3,3,25,14
1517203636177593,25,11,32,21,4,0,-35,-33
1517203636177593,5,-6,8,-13,-1,-1,-2,1
1517203636194105,-19,-13,-15,-6,-10,-5,16,12
1517203636194105,19,63,51,-10,3,0,4,-4
1517203636195605,10,7,-54,-6,-5,-3,5,35
1517203636195605,-16,-11,18,12,5,2,-6,-21
1517203636216620,7,-59,-10,-13,-4,-1,0,7
1517203636216620,-1,23,-16,-14,-2,-2,-13,-20
1517203636218121,-20,-7,18,-5,-3,0,14,20
1517203636218121,8,-20,7,17,4,3,-28,-34
1517203636230138,-7,-30,-54,-12,-3,-5,9,24
1517203636230138,17,36,20,-3,-4,-3,-2,4
1517203636239138,9,-16,5,2,3,1,-13,1
1517203636239138,3,3,-3,-8,-6,-6,-38,-23
1517203636254146,-16,-37,16,22,5,1,18,-32
1517203636254146,10,2,-2,-14,-6,-4,-8,-6
1517203636255646,-2,17,4,15,2,0,0,0
1517203636255646,6,3,6,-3,-4,-6,-7,-5
1517203636276661,15,4,-36,-13,-6,-3,18,61
1517203636276661,2,-41,-18,4,1,-4,-34,-59
1517203636278162,-4,-16,-2,-15,-2,-2,11,5
1517203636278162,3,22,6,5,0,1,5,12
1517203636290684,43,1,-36,-4,-1,-1,6,12
1517203636290684,-5,-12,48,32,10,3,-8,23
1517203636297677,9,19,0,-18,-10,-3,2,-21
1517203636297677,4,3,-30,-8,0,2,-17,27
1517203636313697,-10,-36,8,-1,4,2,13,9
1517203636313697,-14,34,20,2,-3,-4,-2,0
1517203636315189,-4,-19,-24,12,2,1,-4,19
1517203636315189,0,23,38,13,3,1,6,-1
1517203636336242,-13,18,-6,-18,-3,1,-12,-26
1517203636336242,-7,-20,-64,-10,-1,-1,22,25
1517203636338205,-4,-12,39,23,7,2,-12,-32
1517203636338205,-5,-28,-66,-36,-9,-6,2,-15
1517203636350723,-35,20,72,20,5,0,18,45
1517203636350723,9,-36,-67,-20,-16,-11,2,-30
1517203636357719,2,-15,-36,-23,0,2,-12,5
1517203636357719,-3,5,24,16,0,-3,25,33
1517203636373787,13,27,15,-19,-1,2,4,1
1517203636373787,-47,22,25,14,2,2,5,16
1517203636375278,7,26,14,8,3,3,17,-5
1517203636375278,-39,-38,-61,-12,-6,-6,-46,-11
1517203636396301,-21,-41,29,-3,-7,-6,-18,-4
1517203636396301,20,8,6,16,3,1,6,10
1517203636397793,-5,6,-37,-21,-1,-1,-2,19
1517203636397793,26,-6,20,13,3,-1,25,-37
1517203636409811,-27,21,-43,-9,-7,-2,-6,-6
1517203636409811,3,-20,-5,-6,4,4,-13,-7
1517203636418809,-7,-17,11,1,-8,-8,25,7
1517203636418809,11,8,-24,-13,0,-2,-4,-4
1517203636433832,-9,-11,-27,-4,-6,0,-7,-15
1517203636433832,4,16,12,17,4,2,7,13
1517203636435333,24,44,-6,-18,-5,-6,-13,-24
1517203636435333,-24,-22,30,8,-1,0,7,32
1517203636456336,14,-10,47,8,4,2,-20,-15
1517203636456336,-22,0,-21,7,0,1,6,2
1517203636457854,-13,8,47,8,2,-3,-12,8
1517203636457854,2,-43,-75,-17,-10,-3,1,14
1517203636469852,-1,56,12,12,8,2,5,-23
1517203636469852,3,-30,-29,-11,-6,0,13,9
1517203636478852,0,17,39,12,5,4,8,-9
1517203636478852,-9,19,-15,-1,-2,-1,-23,-5
1517203636493862,-3,-14,-6,-4,-5,-4,38,-4
1517203636493862,16,25,32,4,4,2,-16,-20
1517203636495366,-22,-62,-40,-5,-1,-1,1,1
1517203636495366,9,31,38,-14,-7,0,10,13
1517203636516381,-2,0,-20,17,6,4,-11,4
1517203636516381,-3,-3,-4,-24,-6,-6,13,2
1517203636517879,-21,-43,-5,25,5,3,-10,-27
1517203636517879,11,22,24,2,2,-3,-3,-14
1517203636529887,14,-25,-27,-22,-7,0,-14,10
1517203636529887,13,1,4,11,3,1,0,0
1517203636538895,8,31,12,-3,1,3,10,15
1517203636538895,4,-28,38,20,4,2,3,-10
1517203636553904,-6,28,-15,2,-2,-3,-7,0
1517203636553904,-3,-38,-17,11,2,0,1,-23
1517203636555405,-17,-42,-13,-7,-8,-7,-8,-17
1517203636555405,-1,-5,-62,-30,-8,-4,-13,-15
1517203636576420,17,35,44,24,4,-1,-2,-7
1517203636576420,-9,-8,11,-9,0,3,18,53
1517203636577922,14,48,24,-2,-2,-3,-33,-38
1517203636577922,16,3,13,15,5,5,7,15
1517203636589945,-7,-9,-32,-15,-8,-9,-9,15
1517203636589945,-1,-18,-4,9,1,0,14,23
1517203636598936,10,-27,-59,-13,-6,-3,4,9
1517203636598936,-20,-6,-3,-11,-4,0,2,-7
1517203636613948,17,7,-2,14,6,1,2,4
1517203636613948,9,28,44,16,1,-1,-10,0
1517203636615451,-8,17,3,-17,-2,3,-3,-19
1517203636615451,-1,-11,-4,12,-1,-4,-2,-6
1517203636636477,-3,-25,-65,-22,-10,-6,-3,1
1517203636636477,-25,-9,-4,-14,-3,-3,-12,-35
1517203636637963,47,9,9,14,3,4,14,42
1517203636637963,-32,-4,50,-5,0,-1,8,11
1517203636649975,-2,-41,-33,17,1,-1,-49,-47
1517203636649975,-6,70,2,-19,1,-1,-1,1
1517203636665004,-5,-28,18,19,3,2,22,19
1517203636665004,-20,17,-7,-10,-3,0,-3,1
1517203636673998,19,22,5,-5,0,0,20,38
1517203636673998,-5,-66,-9,-29,-9,-5,-7,-25
1517203636679995,3,9,31,12,0,-2,-20,0
1517203636679995,-9,14,3,0,-1,0,4,-4
1517203636696062,-2,20,33,6,3,2,0,-41
1517203636696062,23,-20,8,-1,2,2,5,14
1517203636698061,-5,-49,-47,-19,-11,-11,6,-19
1517203636698061,24,43,51,29,10,3,8,-7
1517203636710060,-10,-66,-18,-35,-13,-7,-12,-32
1517203636710060,-11,29,25,-3,-3,-2,-7,-2
1517203636719082,-18,1,-10,-5,-3,-2,1,-1
1517203636719082,23,-16,-20,3,0,-2,6,14
1517203636733589,-12,12,49,18,5,1,9,32
1517203636733589,18,31,22,6,0,1,21,-24
1517203636735590,-30,-52,-33,-15,0,4,7,13
1517203636735590,16,39,-6,8,-1,-2,7,37
1517203636756594,-15,-33,11,-1,1,-1,-18,5
1517203636756594,-21,-48,-42,-20,-6,0,6,0
1517203636758125,11,27,33,19,4,3,-1,8
1517203636758125,-4,-28,-73,-22,-6,-3,-10,-20
1517203636770117,-10,32,47,25,8,6,21,43
1517203636770117,-3,-8,-41,29,-3,-8,13,-5
1517203636779110,-20,14,20,-32,-1,1,-5,-8
1517203636779110,23,7,-3,-9,-4,-1,-16,-14
1517203636793632,-17,-20,-15,-12,-5,-4,0,-5
1517203636793632,13,51,36,18,5,0,-17,-1
1517203636795121,-6,7,-30,-1,-4,-4,-6,-3
1517203636795121,-19,-36,-27,15,5,-2,16,-14
1517203636816135,1,-5,23,-15,-4,-7,-34,-5
1517203636816135,-8,-3,-2,-3,-2,2,4,11
1517203636818136,24,11,30,19,2,0,-3,0
1517203636818136,-1,7,19,-8,0,-2,-3,-10
1517203636830157,13,-11,-100,-21,-9,-2,10,15
1517203636830157,-16,-4,28,-5,1,0,-16,-8
1517203636839152,0,-5,20,28,7,1,8,11
1517203636839152,-6,-19,8,-29,-13,-6,1,-7
1517203636853661,-12,8,33,16,4,3,32,7
1517203636853661,10,-9,-3,1,2,-2,-22,-12
1517203636855665,16,7,18,10,0,-1,4,5
1517203636855665,-14,-9,-18,-6,2,-1,-10,-23
1517203636876179,27,10,-22,-11,-5,0,17,16
1517203636876179,0,2,3,2,3,3,-11,6
1517203636878187,-2,-1,-4,-1,-1,-5,3,1
1517203636878187,23,6,47,23,7,2,-3,15
1517203636898716,3,-37,-99,-23,-8,-6,-5,-2
1517203636898716,-4,-7,-2,-3,-3,0,-3,-8
1517203636900194,17,7,-12,5,0,0,-7,6
1517203636900194,-11,27,42,-2,0,2,0,0
1517203636914207,-17,-49,-35,-3,0,-1,-5,-19
1517203636914207,-3,-20,-25,14,-5,-6,-2,10
1517203636915705,9,-15,-20,-39,-7,-5,-10,-25
1517203636915705,-21,11,20,14,1,1,0,10
1517203636936242,1,16,29,3,3,-2,-11,-30
1517203636936242,4,-25,-44,-12,-1,0,19,5
1517203636937722,13,42,3,-1,-3,-4,-14,-5
1517203636937722,-24,-14,19,10,0,-2,-1,-6
1517203636958736,5,32,-15,-6,-3,-1,-14,2
1517203636958736,16,-23,-18,-5,-2,1,25,16
1517203636960238,-19,-24,-20,-8,-2,2,-8,23
1517203636960238,16,-14,14,-4,-3,-4,-15,-67
1517203636973747,-7,9,2,29,6,6,20,51
1517203636973747,-5,3,10,-32,-6,-6,-29,-33
1517203636975252,12,-14,10,6,-1,0,21,-4
1517203636975252,-7,-4,-23,-3,-1,-1,0,25
1517203636996271,2,-1,0,5,-2,-2,-5,-16
1517203636996271,19,22,8,1,-1,-1,-18,-8
1517203636997801,-21,2,-19,-8,-2,0,6,-4
1517203636997801,1,-4,19,11,0,0,12,12
1517203637018800,8,-8,-45,-22,-2,-2,-23,-25
1517203637018800,31,16,60,10,0,-1,5,15
1517203637020279,-32,-9,-82,-7,-1,1,22,30
1517203637020279,18,54,-1,8,1,0,-20,-29
1517203637033289,-9,-20,19,3,1,-2,-15,-29
1517203637033289,-11,9,12,-16,-8,-5,-7,4
1517203637039810,18,25,32,3,4,-2,-4,-6
1517203637039810,-12,-14,-1,4,-1,-2,2,13
1517203637056305,2,15,42,-10,5,4,10,15
1517203637056305,-5,-29,-4,7,-5,-6,-25,-27
1517203637057806,4,44,-18,-3,0,1,15,-2
1517203637057806,-10,-20,-8,-5,-1,-1,5,15
1517203637078821,15,23,58,5,-2,-2,-13,-14
1517203637078821,-8,-21,-34,21,5,5,25,13
1517203637080322,6,34,64,-8,-2,-1,-17,-15
1517203637080322,14,-61,-65,-15,-5,-3,2,24
1517203637093332,-13,7,42,22,1,2,17,-4
1517203637093332,17,23,-20,-13,-1,1,13,32
1517203637099848,3,-8,12,14,3,-1,-25,-49
1517203637099848,-11,-14,-14,-15,-9,-5,-10,-18
1517203637116348,-10,17,-6,8,2,0,18,17
1517203637116348,-22,-32,16,1,-4,-1,-2,-1
1517203637117851,-3,-24,-30,-3,-4,-6,-2,3
1517203637117851,10,28,41,6,3,6,12,1
1517203637138882,11,-4,-11,-15,-3,-2,4,4
1517203637138882,-5,36,28,9,2,1,8,-6
1517203637140365,-17,-42,-30,-3,-2,0,-12,20
1517203637140365,-2,-1,18,5,1,-1,-2,-29
1517203637153373,3,-25,-12,-5,-3,-2,2,17
1517203637153373,2,6,-2,13,2,3,14,32
1517203637159890,-14,-2,-9,-11,-2,-4,-40,-31
1517203637159890,36,15,24,10,3,0,-31,-38
1517203637176390,-15,-16,22,-26,-11,-6,3,-1
1517203637176390,8,-10,-29,-3,-4,-2,-9,14
1517203637177890,-4,16,-14,4,1,2,19,-11
1517203637177890,-5,-37,-10,2,3,-2,16,30
1517203637198916,-9,20,10,2,-2,-2,-63,-33
1517203637198916,-2,8,36,-2,0,-4,-3,-26
1517203637200417,0,4,23,8,-5,1,18,25
1517203637200417,-6,-5,-49,-25,-4,-2,12,42
1517203637212925,2,-2,-20,9,4,-1,1,-40
1517203637212925,-11,17,5,-2,-3,1,-7,0
1517203637219920,10,-23,34,4,2,-6,-9,-4
1517203637219920,-52,6,-11,-12,-7,-5,8,-1
1517203637236441,15,-27,-13,4,1,-1,6,17
1517203637236441,-5,9,31,7,2,-2,-4,-12
1517203637237935,10,-44,-22,-8,-4,1,21,3
1517203637237935,14,-14,13,11,1,2,-7,-13
1517203637258491,4,10,-16,0,-2,-1,-12,-2
1517203637258491,-8,16,-19,-19,-6,-5,-7,-12
1517203637260493,-8,8,12,8,1,2,4,10
1517203637260493,5,-2,-8,-10,-2,0,6,9
1517203637273003,0,24,25,13,1,5,23,23
1517203637273003,-11,-33,-18,-16,-4,-8,-32,-34
1517203637280007,7,10,-26,-3,-2,-1,0,9
1517203637280007,-4,23,-6,6,-3,-5,-9,-17
1517203637296030,-20,-14,-3,-12,2,0,1,-6
1517203637296030,10,34,37,10,2,0,6,1
1517203637298030,6,19,-3,-2,-2,0,6,-1
1517203637298030,-8,5,10,15,1,1,0,2
1517203637318545,19,-17,-24,-18,-2,-3,4,10
1517203637318545,-2,14,20,11,4,0,6,-2
1517203637320552,-4,0,-14,-12,-2,0,23,18
1517203637320552,24,8,0,4,-1,-3,-21,2
1517203637333054,-8,-2,-10,3,-2,-2,1,2
1517203637333054,-12,-2,-20,-3,-2,2,0,-2
1517203637347564,5,6,39,6,-1,-5,-13,-17
1517203637347564,-5,-5,-30,-3,1,3,14,20
1517203637356562,10,0,0,-4,0,0,6,2
1517203637356562,-1,-11,-3,-1,-2,-2,-8,-2
1517203637358064,-8,-6,0,6,-1,0,2,13
1517203637358064,-9,19,1,4,0,-4,-8,-17
1517203637378586,-6,4,5,-20,-4,4,-2,3
1517203637378586,4,-8,-22,5,1,-1,-15,-5
1517203637380587,11,3,21,4,3,4,2,14
1517203637380587,-14,-15,0,0,0,-1,-4,-11
1517203637392586,8,22,5,11,0,0,0,4
1517203637392586,-13,-31,-13,-7,1,2,2,-2
1517203637401593,1,25,39,3,-2,-3,-1,-7
1517203637401593,-9,-38,-50,-17,-4,-3,-9,-8
1517203637416103,-19,-7,13,9,1,-2,9,-4
1517203637416103,6,3,-25,7,1,1,6,3
1517203637417604,-4,-4,15,-2,-2,-4,-12,-15
1517203637417604,0,4,-16,4,0,3,10,1
1517203637439122,0,-5,9,-15,-4,-4,-5,7
1517203637439122,-2,3,-9,6,-1,-3,0,1
1517203637440621,-3,-13,-22,-4,-2,-1,-4,-3
1517203637440621,-4,6,16,2,-2,0,-1,1
1517203637452629,5,7,8,-7,-1,1,3,0
1517203637452629,-11,10,-21,-11,-4,-3,-4,1
1517203637461136,-9,-22,-18,-5,-1,-2,-4,-10
1517203637461136,-3,10,11,-5,-3,-1,2,3
1517203637476146,7,2,8,14,1,-3,-2,-1
1517203637476146,-3,3,14,-9,-4,0,4,4
1517203637477652,-3,-4,-11,-4,-1,0,-4,-6
1517203637477652,1,2,-3,-7,-2,-2,-3,0
1517203637498663,-3,8,4,3,-2,-3,1,-5
1517203637498663,5,5,14,0,0,1,6,12
1517203637500664,-1,-7,-21,-2,-1,1,-3,6
1517203637500664,-5,-4,15,-1,-1,2,-2,-5
1517203637512172,-7,-9,-3,3,-1,-1,0,-4
1517203637512172,12,6,-2,-1,-1,1,3,1
1517203637521678,-2,-8,-11,-6,-1,3,1,-15
1517203637521678,-7,7,22,-9,-6,-8,-7,6
1517203637536211,8,-7,-37,0,-3,-1,-1,1
1517203637536211,0,15,5,0,0,-3,-1,-9
1517203637537689,-3,-12,-4,2,-2,-1,-2,-6
1517203637537689,-1,-5,-6,-7,-2,-1,2,5
1517203637558704,-3,-1,-5,2,-3,-4,-1,-3
1517203637558704,4,5,4,1,0,0,-1,0
1517203637560207,1,-3,2,0,-2,-5,-3,2
1517203637560207,0,0,6,3,-1,-1,0,-2
1517203637572713,1,-2,6,0,-1,0,0,0
1517203637572713,-4,-12,-17,-3,-2,1,-2,-5
1517203637581219,1,3,-4,-1,-3,-3,-3,1
1517203637581219,-4,-9,-4,0,-1,0,1,-2
1517203637596242,1,15,6,-2,1,0,-1,-1
1517203637596242,-5,-12,-4,-1,-2,-1,-2,-1
1517203637597732,-2,-5,-2,6,1,-1,-2,-4
1517203637597732,1,1,-5,-9,-1,-1,1,0
1517203637626251,0,5,2,5,0,0,-1,0
1517203637626251,-1,-32,-3,-7,-2,-1,-2,-3
1517203637627755,-3,1,-4,-9,-3,-3,-4,0
1517203637627755,-1,1,-22,-3,-2,-2,-3,-4
1517203637642764,0,-22,5,4,1,-2,0,0
1517203637642764,-9,4,-5,1,1,-1,-3,-7
1517203637644265,1,8,8,0,-3,1,5,5
1517203637644265,-2,-2,8,-1,-2,0,-3,-3
1517203637656274,0,8,-5,-3,-2,-3,-2,0
1517203637656274,-2,-1,-7,3,-2,-2,-2,-8
1517203637657797,4,1,-8,-20,0,0,1,13
1517203637657797,-2,-7,-1,1,-1,0,-3,-1
1517203637678790,-2,-5,6,0,2,1,2,2
1517203637678790,0,2,-4,2,-1,-1,0,-1
1517203637680297,-5,0,-3,7,-2,-3,-1,-7
1517203637680297,0,-3,-2,-4,0,0,1,-1
1517203637692310,2,4,3,0,-1,1,0,0
1517203637692310,-4,3,-7,-2,-3,1,-1,1
1517203637701305,0,-1,14,3,1,-1,-1,-4
1517203637701305,3,3,-17,-4,-3,-4,-2,-1
1517203637716315,-3,6,1,-2,-2,-2,-2,-5
1517203637716315,2,8,11,1,2,0,2,3
1517203637717826,0,-3,-8,2,-2,-1,-1,-2
1517203637717826,-1,7,-2,-2,-1,-1,1,-1
1517203637738832,-1,0,8,2,0,2,-2,-2
1517203637738832,-3,-17,-22,-5,-1,-1,-2,-2
1517203637740332,5,10,6,2,-1,0,-1,2
1517203637740332,-2,-13,-3,0,1,-1,-2,-1
1517203637761357,-1,-1,-4,-3,-3,-2,-3,-2
1517203637761357,7,4,7,-1,0,2,4,7
1517203637762858,-6,-7,-1,3,-1,0,-2,-5
1517203637762858,3,3,3,-1,1,0,1,0
1517203637776359,-1,1,3,1,-1,-1,0,0
1517203637776359,-3,-6,-3,-5,-4,-4,-3,-5
1517203637777862,-2,-2,-4,5,0,-1,-2,-1
1517203637777862,0,1,-3,-20,-5,1,1,1
1517203637798883,-1,-2,-2,2,1,0,-1,1
1517203637798883,-1,3,-3,0,0,-1,-1,-1
1517203637800386,0,-3,1,2,-1,-2,1,-2
1517203637800386,-4,1,8,3,-3,-3,-1,-2
1517203637821389,-1,-3,-7,1,-1,-1,0,-2
1517203637821389,-2,-1,0,2,1,-1,-2,1
1517203637822893,0,2,-2,-2,-2,0,-4,-1
1517203637822893,0,-2,8,8,3,-2,0,0
1517203637836423,-2,0,-9,-21,2,0,-1,-2
1517203637836423,-1,0,3,3,-2,-2,1,-1
1517203637837905,2,-1,-3,-2,-3,-1,1,1
1517203637837905,0,-1,-2,2,-2,-1,-1,0
1517203637858944,-5,-6,6,5,-1,-1,0,-1
1517203637858944,0,-1,5,4,0,-3,-2,-1
1517203637860432,-3,-1,-5,-4,-2,-1,-2,-2
1517203637860432,-1,1,-1,7,-1,-2,0,0
1517203637881433,0,1,0,-4,0,0,0,1
1517203637881433,-1,-1,1,-7,-3,-1,-1,0
1517203637882934,0,-1,-1,1,0,0,-1,-1
1517203637882934,-2,-2,1,4,1,2,-1,-2
1517203637894954,-1,-1,-4,2,1,-2,-1,-1
1517203637894954,0,0,0,-1,-2,-1,-1,-2
1517203637903948,0,1,-2,-3,0,0,-2,-3
1517203637903948,0,2,2,1,-1,-1,0,-1
1517203637918958,2,0,-2,-8,-7,-4,1,-2
1517203637918958,-2,-1,-3,-8,-1,0,-1,-1
1517203637920463,-1,-2,5,20,7,1,1,0
1517203637920463,0,-1,-3,-5,0,-1,0,-2
1517203637941489,-1,1,3,6,-3,-2,-1,-2
1517203637941489,0,-1,-2,-5,-3,-3,-2,0
1517203637942980,0,-2,-4,-10,2,0,-1,-1
1517203637942980,-3,-1,1,5,0,1,-3,0
1517203637955997,1,3,-3,-9,-2,-1,-1,-3
1517203637955997,-3,-3,-1,-2,-3,0,-1,-2
1517203637962501,0,0,-3,-3,-3,-3,-1,-1
1517203637962501,-4,5,1,-1,0,0,2,1
1517203637979001,11,-9,-3,3,-1,-1,0,1
1517203637979001,-8,-9,-6,1,1,-2,-2,-6
1517203637980512,-1,-1,-1,-6,-3,-2,-2,-3
1517203637980512,-4,-2,1,-2,0,1,1,0
1517203638001047,22,13,5,4,-2,0,0,3
1517203638001047,-46,-12,-4,0,-1,-3,-4,-10
1517203638003048,0,-15,-4,-4,-2,-2,-2,-2
1517203638003048,3,0,-2,-5,-1,-1,-2,1
1517203638015527,-8,-3,0,1,0,1,-1,-2
1517203638015527,18,14,2,2,1,1,0,5
1517203638022535,-1,5,0,-3,-2,-4,-1,1
1517203638022535,-2,-5,0,-1,-2,0,-2,-3
1517203638039046,-2,0,-1,1,1,-1,-1,0
1517203638039046,6,1,-4,-2,-1,-1,-1,1
1517203638040545,-4,1,0,-3,-1,1,1,-1
1517203638040545,3,-1,-3,-2,0,-1,0,-1
1517203638061060,-8,-3,-4,-1,0,-1,-1,-5
1517203638061060,5,-1,2,-2,0,-1,1,3
1517203638063061,-2,-1,-1,-2,0,-3,-2,-2
1517203638063061,-1,0,-1,-1,-2,-2,-1,-1
1517203638075579,-9,-4,-2,0,0,2,-3,-2
1517203638075579,3,-2,-1,0,-3,-2,-2,-2
1517203638082586,4,1,0,-1,-2,-1,-3,0
1517203638082586,-2,-2,-3,-3,0,-2,-1,-2
1517203638098596,-6,-1,-1,-1,0,-1,-1,-1
1517203638098596,6,2,-1,0,-1,-2,-1,0
1517203638100587,0,-1,-2,-2,-3,-1,-1,-2
1517203638100587,-1,-3,0,0,-1,-2,0,1
1517203638121101,-4,-3,-1,1,-1,0,0,-1
1517203638121101,2,-1,0,-2,0,0,0,1
1517203638123104,-1,-2,-3,-1,0,-2,1,-1
1517203638123104,-2,0,-2,-1,-1,-1,0,-2
1517203638135621,0,0,-1,0,-3,-2,1,0
1517203638135621,1,0,-1,-2,-2,-2,-2,-1
1517203638142617,-3,0,-1,0,-1,-1,-1,1
1517203638142617,3,0,0,-2,-2,-3,-2,-2
1517203638158640,-3,-1,-1,-1,0,-3,-1,-1
1517203638158640,2,0,0,-2,0,0,-1,0
1517203638160130,-4,-2,0,-1,-3,-2,-1,-1
1517203638160130,-4,-2,-3,-2,-1,0,-2,-1
1517203638181190,-2,0,-2,-1,-1,-2,-2,-2
1517203638181190,0,0,0,1,0,0,-1,-1
1517203638182689,1,0,-3,-1,-1,-2,0,0
1517203638182689,0,-1,0,-3,1,-1,-2,0
1517203638195696,-4,0,-1,-2,-2,-2,-1,0
1517203638195696,1,3,1,-2,1,0,0,0
1517203638202201,-2,0,-2,-1,0,1,-1,-2
1517203638202201,-1,-2,-1,-2,-2,0,1,-1
1517203638218728,-2,-6,1,2,0,0,-1,1
1517203638218728,-2,-2,-1,-2,-3,-2,-1,-2
1517203638220214,-1,1,0,-2,-1,1,-1,-2
1517203638220214,0,0,-1,-1,-1,0,0,-2
1517203638241228,-1,0,-1,-2,-1,-1,-1,0
1517203638241228,-1,-3,0,0,-2,-2,-1,0
1517203638242729,-1,-2,-1,0,-1,-2,-1,-2
1517203638242729,-1,-1,0,-1,-1,-2,-1,0
1517203638254738,1,0,-1,-2,-2,0,-1,-2
1517203638254738,-1,-1,0,-2,0,1,1,0
1517203638263745,0,0,1,-3,0,-1,-1,0
1517203638263745,0,1,-2,1,-1,1,-2,0
1517203638278754,-2,-1,-1,-2,-1,-2,-2,-1
1517203638278754,-1,-2,-2,0,0,-1,-1,-2
1517203638280255,-2,-2,-3,0,-2,-1,0,-2
1517203638280255,0,-2,-1,-1,-1,0,0,-2
1517203638301271,-2,-3,-2,-1,-2,-2,-1,-1
1517203638301271,-1,-2,-2,1,-1,-2,-2,0
1517203638302783,-1,-2,-1,0,-2,-1,-1,-1
1517203638302783,-1,0,0,-1,-3,-1,-1,-1
1517203638314780,-1,-1,-1,-2,-1,-2,-3,-2
1517203638314780,2,1,-4,-2,-2,1,-1,-2
1517203638323787,0,-2,0,0,-1,-3,-1,-2
1517203638323787,-1,-1,0,-1,1,-2,0,-1
1517203638346303,-1,-1,-1,-1,-1,-2,1,0
1517203638346303,-2,-1,-2,-1,-1,1,-2,0
1517203638348804,-1,0,-1,-2,-1,-1,-2,-1
1517203638348804,-1,-1,-3,-1,-2,-1,-2,-2
1517203638361313,-2,-1,-1,0,1,-1,-1,0
1517203638361313,-2,-1,1,-1,0,-1,0,-1
1517203638362834,-2,-3,-1,-2,0,0,-1,0
1517203638362834,-3,-3,0,-2,-1,-1,-2,-1
1517203638374822,0,0,-2,-1,-2,1,-2,-1
1517203638374822,-1,-1,0,-1,-1,-2,-3,-2
1517203638383830,0,-2,-3,-1,-1,-1,1,-1
1517203638383830,1,-1,0,-1,-1,-2,-1,0
1517203638398839,0,-2,-2,0,0,-1,-1,0
1517203638398839,0,-3,-3,-1,-2,-3,-1,-1
1517203638400351,-1,0,0,-2,-2,-1,-2,-2
1517203638400351,0,1,-1,-2,-1,1,0,-1
1517203638421355,-1,-3,-2,-2,-2,-2,-2,-2
1517203638421355,-1,-2,-1,-1,0,1,-2,0
1517203638422857,-1,1,-1,-1,-2,-2,0,-1
1517203638422857,-2,-1,-1,-1,-1,-2,-1,-1
1517203638434866,0,1,0,-1,-1,0,0,-1
1517203638434866,0,-3,-2,-2,2,-2,-1,0
1517203638443873,-3,-1,1,0,0,-2,-2,-2
1517203638443873,-3,-3,-1,-1,-1,0,0,0
1517203638458895,0,-2,-2,-3,-1,0,-1,-2
1517203638458895,0,-1,0,1,0,1,-2,1
1517203638460395,-1,0,0,-1,0,0,1,0
1517203638460395,-2,-1,0,-2,-1,-1,-2,-2
1517203638481398,-4,-1,-2,0,-1,-3,-1,-2
1517203638481398,-1,-1,-2,1,-1,1,3,0
1517203638482899,0,-1,-3,0,-1,-2,-3,0
1517203638482899,-1,0,-2,0,-1,0,0,-2
1517203638494920,-1,-1,-1,-2,-1,0,-1,0
1517203638494920,-1,0,0,-2,1,0,-1,-2
1517203638503913,-1,-1,0,-1,-1,-2,-1,-1
1517203638503913,-1,-2,-1,-1,0,-2,1,-1
1517203638517933,-1,-3,0,-1,0,-1,0,0
1517203638517933,-1,1,0,-2,1,-1,1,-2
1517203638526430,-2,-1,-1,-2,-1,-1,0,-1
1517203638526430,-1,-1,-3,-2,-1,-1,-2,0
1517203638541441,0,0,-1,0,-1,-1,-1,-2
1517203638541441,-2,-2,-2,0,-2,-2,-1,0
1517203638542946,-1,-2,-1,-1,-1,0,-3,1
1517203638542946,-1,-1,0,-1,-1,-2,-1,0
1517203638554950,-1,0,-1,-1,-1,0,-1,-1
1517203638554950,0,0,-2,-2,-2,-2,-2,-2
1517203638563966,0,-2,-1,-1,1,0,0,-1
1517203638563966,-2,-2,-1,-2,-1,-2,-1,-2
1517203638578975,-1,-1,-1,-3,0,0,0,-1
1517203638578975,-3,-2,-1,-3,-1,-1,-1,-1
1517203638580468,-1,-1,-3,0,-2,0,1,-1
1517203638580468,-1,-1,-1,1,0,0,-3,-2
1517203638601494,-1,1,0,1,-2,-2,0,-1
1517203638601494,-2,-1,-1,0,-1,-1,0,-2
1517203638602984,-1,-1,0,0,0,0,-3,-2
1517203638602984,-1,-1,0,0,-1,-2,-1,-1
1517203638614993,-1,-1,-2,-2,-2,-1,-2,-1
1517203638614993,0,-1,-1,-1,-2,-2,0,0
1517203638624000,-1,0,-1,-1,-2,-1,0,-2
1517203638624000,-1,-2,-1,0,0,0,-1,-1
1517203638639010,0,-1,1,0,0,-2,-1,1
1517203638639010,-3,-2,-1,-1,-1,-2,-1,-1
1517203638640511,1,-1,-2,-3,0,-2,1,0
1517203638640511,0,-1,-1,-1,0,-2,-1,0
1517203638661025,-2,-2,-3,0,-1,-1,-3,-2
1517203638661025,0,-1,0,-3,1,-1,-2,0
1517203638663038,-1,-2,-1,-1,0,-1,-2,-1
1517203638663038,0,0,0,-1,-2,1,0,0
1517203638675036,-3,0,-1,-2,-3,-1,0,-2
1517203638675036,-1,0,-1,-1,-1,-1,-2,-1
1517203638684042,-2,-1,-2,0,-2,0,-1,-2
1517203638684042,-1,-1,-2,-2,-1,-1,-2,-2
1517203638698552,-2,-2,0,0,-3,-1,-2,-1
1517203638698552,-1,-2,-1,-1,-1,0,0,-3
1517203638700560,0,0,-3,-2,-2,-2,-1,-1
1517203638700560,-1,-2,0,-1,-1,-1,1,-1
1517203638721082,-1,-2,0,-1,-1,-2,-2,-2
1517203638721082,-1,-1,-2,0,-1,0,-2,-1
1517203638723072,-1,-3,-1,2,-1,0,-1,0
1517203638723072,-1,-2,-2,-1,-2,-2,0,-1
1517203638743583,1,-1,-1,-1,0,-1,-2,0
1517203638743583,-1,-2,-1,0,-2,0,-1,-1
1517203638745585,-1,-1,-2,0,-2,1,-2,-1
1517203638745585,1,0,-1,-1,-2,-2,-1,0
1517203638758594,-1,-3,-1,-3,0,-2,0,0
1517203638758594,2,-1,-1,-2,-1,-1,-1,-1
1517203638760110,-2,-1,-1,-2,-1,-1,-1,1
1517203638760110,-2,-2,-1,-2,0,-1,-1,0
1517203638781120,-3,-1,-1,-1,-1,0,-1,-2
1517203638781120,-1,0,-1,-2,-1,-1,-1,0
1517203638782621,0,1,0,-3,1,-1,-2,-2
1517203638782621,-2,-1,-2,-1,-3,-1,-3,-1
1517203638803126,1,-1,-1,2,0,-2,-1,-1
1517203638803126,-2,-2,-3,-1,0,-2,-1,-2
1517203638803626,-1,-1,0,-1,-1,0,-2,-1
1517203638803626,-1,-1,1,0,-1,0,0,-2
1517203638826146,0,0,0,-1,1,-2,-1,-2
1517203638826146,-1,-3,0,0,-2,-2,-1,-2
1517203638827143,0,0,-1,0,-2,-2,-1,0
1517203638827143,0,0,-1,-3,0,-2,-1,-1
1517203638840653,-2,-2,-3,-1,-1,-1,-1,-1
1517203638840653,-1,0,-1,-2,0,1,-1,-1
1517203638841154,-1,-1,-1,-1,-1,-1,-2,-1
1517203638841154,0,0,-2,0,-2,0,-1,-1
1517203638863181,0,-1,0,-1,0,0,-1,-1
1517203638863181,-1,-1,-2,0,-1,-2,-2,-1
1517203638864172,-2,-1,-2,-1,0,-2,-1,-3
1517203638864172,-1,-2,-2,-1,0,-1,0,-1
1517203638878180,0,0,-1,-1,-2,-1,1,-2
1517203638878180,0,0,-1,-1,0,-1,-2,-1
1517203638878680,-1,-2,-2,-2,0,-3,1,-1
1517203638878680,0,0,-1,0,-1,-2,0,1
1517203638900704,0,-1,-1,-1,-1,0,-2,-1
1517203638900704,-1,-2,0,0,-1,-1,0,0
1517203638901195,0,-1,-1,-2,-2,0,-1,0
1517203638901195,0,-1,0,-1,-1,-1,-1,1
1517203638923212,-1,1,-2,-2,-2,-1,-1,0
1517203638923212,-2,-1,-1,1,-3,-2,-1,0
1517203638923712,-1,-3,-1,-2,-1,-1,-2,-1
1517203638923712,-1,-1,-1,-1,-1,0,-2,-2
1517203638937721,-2,-2,-1,-1,-1,-2,0,1
1517203638937721,0,0,-1,-2,-1,-1,0,2
1517203638938721,-2,-1,-1,0,-2,-2,-2,0
1517203638938721,-1,-2,-2,0,0,0,-1,-3
1517203638960236,-1,-1,-2,0,-1,-2,-1,-2
1517203638960236,-1,-2,-2,-1,-2,-2,-1,-1
1517203638961238,-3,-1,0,-1,-2,-1,0,0
1517203638961238,-2,-1,-1,-1,-1,0,-2,-1
1517203638982878,-2,-1,-1,-2,-1,-2,-1,-1
1517203638982878,1,-2,-2,-2,0,-1,-1,-1
1517203638983879,0,-1,-1,-1,0,-1,-1,-1
1517203638983879,-2,-2,-2,-1,-1,2,0,-2
1517203638998380,-2,-2,0,-1,-1,-1,-2,0
1517203638998380,-1,-1,-1,-1,-2,-2,-2,-1
1517203638998877,0,-3,0,-1,-1,-2,0,-1
1517203638998877,0,-2,0,-2,-3,-1,-1,-2
1517203639020396,0,0,0,-1,-3,0,-3,-2
1517203639020396,-3,0,-2,-2,0,0,-1,-1
1517203639021406,0,-1,-2,0,0,0,0,-2
1517203639021406,-1,-1,0,-1,0,-3,-1,-2
1517203639042935,-1,-1,-2,-2,-1,0,-1,-2
1517203639042935,-1,-2,-3,-2,-2,-1,-1,-2
1517203639043918,-1,-2,-3,1,-2,0,-2,-1
1517203639043918,-1,-1,-1,0,-1,-1,-1,2
1517203639057918,-2,0,-2,-2,-2,-2,-1,-1
1517203639057918,-1,-1,-1,-3,-1,-1,-1,-1
1517203639058931,-1,-1,0,0,-2,0,0,-1
1517203639058931,-2,0,-1,-1,-3,-2,-2,-2
1517203639080444,1,-2,-1,0,0,0,0,-1
1517203639080444,0,-1,-1,0,0,0,0,-1
1517203639081445,-1,-2,0,-3,-1,-1,-3,0
1517203639081445,-3,0,-2,-2,0,-2,0,-2
1517203639102950,0,0,-2,-1,0,0,-1,-2
1517203639102950,-1,0,0,-1,-1,-3,-2,-2
1517203639103951,-1,-1,-1,-1,-1,-1,-2,-3
1517203639103951,0,-1,-2,0,0,-2,0,0
1517203639117964,-2,-1,-1,0,-2,-1,-1,-2
1517203639117964,-1,-2,-2,0,-1,-2,-1,0
1517203639118961,-2,-1,-1,-1,-1,-2,-2,-1
1517203639118961,0,0,-1,-2,-2,1,0,-2
1517203639140476,-1,-1,0,-1,-2,-1,-1,-1
1517203639140476,-2,-2,-1,-1,-1,0,-1,0
1517203639141477,-2,-1,0,-2,-1,-1,1,-2
1517203639141477,-2,-1,-1,0,-1,-3,0,0
1517203639163002,-1,-1,-3,-2,-1,-1,-1,-2
1517203639163002,1,-1,-2,0,-1,0,-1,-1
1517203639164003,0,1,-1,-1,-1,0,-1,-1
1517203639164003,1,1,-1,1,-2,1,-1,0
1517203639186015,-2,-3,-2,-1,0,-2,0,0
1517203639186015,-1,0,-1,-5,0,0,0,-2
1517203639187013,0,0,-2,-1,-2,-2,-1,1
1517203639187013,-1,-2,0,-2,-1,0,-2,-2
1517203639200537,-1,-1,-2,0,-1,-1,0,-2
1517203639200537,-1,-1,-1,-1,-2,-2,-1,-1
1517203639201523,0,0,-1,0,-1,0,-1,-1
1517203639201523,-1,-2,-1,0,0,-1,0,0
1517203639223048,-1,-2,-2,-2,-2,-1,-2,0
1517203639223048,-1,0,-1,0,-1,0,-1,-1
1517203639224049,-1,-1,-3,-1,-3,0,0,-1
1517203639224049,1,-1,0,-1,-1,-1,-1,-1
1517203639238060,0,-1,-1,0,0,-1,-1,0
1517203639238060,-2,0,0,0,-2,-1,0,-3
1517203639239049,-1,0,0,-2,-2,-1,-1,0
1517203639239049,-1,0,-2,-2,-1,-1,-3,0
1517203639260574,1,0,1,-1,-1,0,-1,0
1517203639260574,-1,-3,-2,-1,-2,-2,1,0
1517203639261565,-1,-1,0,-2,0,-1,-1,-1
1517203639261565,-1,-1,-1,-2,-2,-1,0,-2
1517203639283093,0,0,-1,-1,-2,-2,-1,-1
1517203639283093,0,0,-1,-1,0,0,-1,0
1517203639283581,0,-1,-1,-2,0,-1,0,-1
1517203639283581,-2,-1,-1,0,0,0,-1,2
1517203639298091,-1,-1,-1,-1,-1,-1,-2,0
1517203639298091,-1,-1,-1,0,-2,0,-2,-2
1517203639299105,-1,0,0,0,-2,0,-1,-1
1517203639299105,-1,-1,-2,-1,-1,-1,-2,-3
1517203639320610,-1,0,0,0,-2,0,-1,-1
1517203639320610,-1,-1,-2,-2,0,0,-2,0
1517203639321107,-1,-1,-4,-2,-2,1,0,0
1517203639321107,-1,-2,-1,-1,-2,-1,-1,-1
1517203639343133,-2,-1,-2,-1,-1,0,0,-1
1517203639343133,0,-1,0,-2,1,-1,-1,-2
1517203639350643,-1,-3,-1,0,1,-1,-2,0
1517203639350643,-2,-3,-2,-1,0,0,-1,-1
1517203639357643,-2,-3,-2,-2,-1,-1,0,0
1517203639357643,-1,-1,1,0,-1,-2,-1,0
1517203639365638,0,1,0,-1,-1,0,-1,-1
1517203639365638,1,0,0,-1,0,-2,-1,0
1517203639380672,-1,-1,-1,-2,-2,-3,-3,1
1517203639380672,-1,-2,-1,0,-2,-1,-1,0
1517203639381150,-2,-1,-1,0,-2,-2,-1,-1
1517203639381150,-1,1,-2,-2,-1,-3,-1,-1
1517203639403166,0,-1,-2,-2,-1,1,0,-2
1517203639403166,-1,-2,-1,-1,0,0,0,-1
1517203639403666,0,-2,-1,-2,-1,-2,-2,-2
1517203639403666,0,-1,-1,-1,-2,-2,-1,0
1517203639417179,-2,0,-1,1,1,-1,-2,-2
1517203639417179,-2,-1,-2,-1,-1,-1,-1,-1
1517203639425683,0,0,-2,-2,-1,1,-1,-1
1517203639425683,-1,-2,-2,-1,0,0,-2,-1
1517203639440695,-1,-1,0,-2,-1,-1,-2,-1
1517203639440695,-2,-1,-1,-2,0,-1,-3,-1
1517203639441206,-1,-3,-3,0,0,-1,-1,0
1517203639441206,-1,-2,-1,-1,-1,-1,0,0
1517203639463208,0,-3,-1,-2,-2,-1,-1,-1
1517203639463208,0,-1,-1,-1,0,-2,0,-1
1517203639463709,-1,-2,-2,-2,-3,-2,0,-3
1517203639463709,-1,0,0,-1,-1,1,-1,-2
1517203639477218,-1,-1,0,-1,0,-1,1,0
1517203639477218,-1,0,0,-2,-2,-1,-1,-1
1517203639485733,-1,-2,-2,-1,-1,-2,0,-3
1517203639485733,0,-3,-2,-1,-1,-1,0,-1
1517203639500744,-1,-1,-1,-1,-1,0,0,-3
1517203639500744,-1,-3,-1,0,-3,-2,-2,-1
1517203639501234,-1,-1,0,-2,-1,0,-1,1
1517203639501234,-2,-1,-1,-1,-2,-2,0,-1
1517203639523252,-1,0,0,-1,0,0,-1,1
1517203639523252,-2,0,-1,-3,1,-1,1,-2
1517203639523753,-1,-1,-1,0,-1,-1,-2,-3
1517203639523753,-1,1,-1,-1,0,-1,-1,-2
1517203639537270,0,-2,0,0,-3,0,-1,-1
1517203639537270,0,-1,-2,-1,-2,0,0,0
1517203639545767,-2,-1,0,-2,-1,-1,-1,-2
1517203639545767,0,-1,-2,-1,0,0,-1,0
1517203639560287,-1,0,-1,1,-1,-2,-2,-1
1517203639560287,-1,-2,-1,-1,-1,-3,0,0
1517203639561287,-1,0,-2,-1,-1,-1,-1,0
1517203639561287,-2,-1,-1,-1,-1,0,-2,-1
1517203639582792,-2,-2,-2,0,-1,-1,1,-1
1517203639582792,0,-2,-2,-1,-1,-2,-1,-1
1517203639583794,-2,-1,0,0,-1,-1,0,1
1517203639583794,-2,-1,0,-2,0,1,-1,-1
1517203639597313,-1,-2,-1,-1,1,0,-2,-2
1517203639597313,-1,-2,0,1,-1,-1,-1,-1
1517203639605308,-1,0,1,0,-2,-3,-1,-2
1517203639605308,-1,0,-2,-2,-1,-1,-2,-1
1517203639620322,0,-1,-1,-2,-1,-1,0,-1
1517203639620322,-2,0,0,-3,0,1,-3,-1
1517203639621320,2,0,-2,0,2,-1,-2,-1
1517203639621320,-1,-2,-2,-1,0,-1,-1,-1
1517203639642835,0,-2,0,0,0,0,0,-1
1517203639642835,-1,-1,-1,-1,-2,-1,-2,0
1517203639643835,-2,-3,-2,-1,-2,0,-1,-1
1517203639643835,-1,-1,-1,-2,-2,0,-1,-3
1517203639666353,-1,-2,-1,-3,-1,-1,-2,1
1517203639666353,0,-1,0,-1,-1,-1,0,-2
1517203639667352,-2,-1,0,-1,1,-1,-1,0
1517203639667352,0,-1,-1,-2,0,-1,0,-1
1517203639680874,-1,-1,-1,0,0,-1,-1,-1
1517203639680874,0,-1,-2,0,-2,-3,1,0
1517203639681363,1,-1,-2,-1,-1,0,-1,-2
1517203639681363,-1,1,1,0,-1,-1,-1,0
1517203639702877,-2,-2,-1,-2,-1,-2,-1,-2
1517203639702877,-1,-1,0,-1,-1,-1,-1,-1
1517203639703878,-2,-2,-2,0,0,0,0,1
1517203639703878,-1,-2,-2,0,-2,-2,1,-1
1517203639726394,1,-2,-1,-1,0,1,-1,-1
1517203639726394,0,-1,-1,1,1,0,-1,-1
1517203639726894,-1,-1,0,-1,0,-2,0,-1
1517203639726894,-1,0,-1,-2,0,-1,-2,0
1517203639740405,-3,2,-2,-2,-2,-1,0,-1
1517203639740405,0,-1,-2,-2,0,-1,0,-2
1517203639741405,1,0,1,0,-1,-1,0,0
1517203639741405,-1,-2,0,2,-2,0,0,0
1517203639762930,0,-2,-2,0,-2,0,-2,-3
1517203639762930,-2,-1,-1,0,-1,-2,-2,-1
1517203639763921,-2,-1,-1,-3,0,-2,1,-1
1517203639763921,-1,-2,-2,-1,0,-2,0,-2
1517203639786446,-2,0,0,-1,-2,-1,0,1
1517203639786446,-2,-2,-1,-1,0,1,-3,-2
1517203639786947,2,-1,-1,-1,-3,-1,-1,-3
1517203639786947,0,1,0,-1,0,0,-3,0
1517203639800450,-1,-1,-1,-2,-2,-3,-2,-1
1517203639800450,-3,0,-3,-2,0,-1,1,-2
1517203639801447,0,-1,-1,0,0,-1,-1,0
1517203639801447,-2,-2,-1,-1,-1,-2,-1,1
1517203639822974,-1,-1,-1,-2,-1,-2,-2,0
1517203639822974,0,-1,0,0,-1,-2,-1,-1
1517203639823964,-2,-3,-2,-1,-1,-1,-1,-2
1517203639823964,0,0,0,0,-1,-3,-1,-3
1517203639846492,-2,0,-2,-1,0,-1,-1,1
1517203639846492,0,-1,0,-1,-3,0,-1,-2
1517203639847980,-2,-1,-2,-2,-2,-1,-1,-2
1517203639847980,0,-2,-1,-1,-1,-2,-2,-1
1517203639860489,-1,-1,0,-2,-1,-2,-2,-2
1517203639860489,0,-1,-3,-2,-1,1,-2,-1
1517203639861490,-1,-1,-1,0,0,0,0,-1
1517203639861490,-2,-2,-2,-1,0,0,1,-2
1517203639883014,0,0,-1,1,0,0,0,-1
1517203639883014,0,0,-2,-1,-2,-2,-1,-1
1517203639884015,-1,-2,-1,-2,-1,-2,-2,-2
1517203639884015,-1,-3,-1,-2,-2,-2,-1,0
1517203639906521,-2,1,0,-2,0,0,0,0
1517203639906521,-1,-1,-1,-2,-1,2,0,0
1517203639907022,-2,1,0,0,-2,-1,0,-1
1517203639907022,-1,-1,-1,0,0,-1,-2,-1
1517203639920535,-1,-2,-3,-2,-2,-1,-2,-3
1517203639920535,-2,0,0,1,-2,-3,0,-1
1517203639921538,-1,-2,-1,-2,-1,-1,-1,0
1517203639921538,-2,1,-2,-1,-1,0,-1,-1
1517203639943061,-1,-2,0,-1,0,-1,0,-2
1517203639943061,-2,-1,-1,-2,0,-1,-1,-1
1517203639944086,-1,-2,-2,1,-2,-1,-1,0
1517203639944086,0,0,-2,1,-2,-2,-2,-1
1517203639966607,0,0,-1,-1,-3,-1,1,-1
1517203639966607,-1,-2,-3,-2,-1,-2,-1,0
1517203639967616,-1,0,-1,-1,-1,-1,-1,-1
1517203639967616,0,-3,0,-1,-1,0,-2,0
1517203639980627,-1,0,-3,1,-2,-1,-1,-1
1517203639980627,-1,-1,-1,-1,-1,-3,-1,-1
1517203639981615,0,0,-1,-2,-1,-1,-1,0
1517203639981615,0,-1,-2,-2,-1,1,0,0
1517203640003139,0,-2,1,-1,-1,0,-1,-2
1517203640003139,-1,-3,-1,-1,-1,-1,-2,-1
1517203640003645,0,-3,1,-2,-1,-1,-2,0
1517203640003645,-2,-1,-1,-2,-2,-1,-1,-1
1517203640026648,0,0,-2,-1,-1,-1,-1,0
1517203640026648,-2,0,-1,-2,0,0,0,0
1517203640027148,-2,0,-1,-1,0,-2,-1,-1
1517203640027148,-1,-2,-2,-2,-2,-1,0,-1
1517203640040657,-1,-1,-3,-2,-1,-1,-1,-1
1517203640040657,1,-1,-2,1,1,0,-1,-1
1517203640041657,-1,0,-2,-2,-2,0,0,-2
1517203640041657,0,-1,-1,-1,-1,-1,0,-2
1517203640071181,-2,-2,-2,-1,-1,-2,0,0
1517203640071181,-2,-1,-2,0,-2,-2,0,-1
1517203640072178,0,0,-2,0,-3,0,-1,0
1517203640072178,0,0,-1,-1,1,-1,-1,0
1517203640086192,0,-2,0,-1,-1,-1,-1,0
1517203640086192,-3,-2,-1,-1,0,-1,0,-1
1517203640087189,-2,-2,0,-1,0,-1,-2,-1
1517203640087189,-2,0,-1,-1,-1,-1,0,-1
1517203640100698,-1,0,1,1,0,-1,-1,0
1517203640100698,1,-1,-1,-3,-1,-1,-3,1
1517203640101200,0,-1,-2,-1,1,0,-1,-2
1517203640101200,-1,-1,0,-2,-2,-1,-1,-1
1517203640131720,-1,-2,-2,-2,-1,-1,-1,-1
1517203640131720,-1,-1,-1,0,-3,-2,-1,-2
1517203640132221,-2,-1,-1,0,-3,-4,0,-2
1517203640132221,-1,0,0,-1,-1,0,-1,-2
1517203640146232,0,-2,-1,0,1,0,-1,0
1517203640146232,1,1,0,0,-3,-1,-2,-1
1517203640147232,0,-2,0,-1,-1,-1,0,-1
1517203640147232,-1,-2,-1,0,-2,0,0,0
1517203640160755,0,0,-1,0,-1,-2,-2,-2
1517203640160755,0,-1,0,1,-2,-1,0,0
1517203640161251,-1,-1,-2,0,-2,-1,-2,-1
1517203640161251,-2,-1,-1,1,-1,-2,-1,0
1517203640182757,-1,0,-1,-2,-1,-1,0,-1
1517203640182757,-2,-2,-2,-2,0,-1,0,-1
1517203640183757,-2,-2,-1,-1,0,-1,0,-1
1517203640183757,0,-2,-2,-1,0,-1,-1,-2
1517203640206275,-1,-1,-2,-1,-1,-2,-2,1
1517203640206275,1,-3,1,-1,0,-2,-3,-1
1517203640206775,-3,0,-1,0,0,-1,-2,0
1517203640206775,-1,0,-1,-1,0,-2,-1,-1
1517203640220286,-1,-2,2,-1,-2,0,-1,-2
1517203640220286,-2,-1,-2,-2,-1,1,0,-2
1517203640221284,-1,-3,-2,-1,0,0,-1,-1
1517203640221284,1,0,-2,-1,-3,-1,-3,0
1517203640243299,-1,1,-1,0,-1,-2,-2,-2
1517203640243299,0,-2,-1,-1,-2,-2,0,-2
1517203640243812,-1,-1,0,-1,0,-2,-1,-1
1517203640243812,0,-1,-1,-3,-1,-1,1,-1
1517203640266412,-1,-1,-1,-1,0,-1,0,0
1517203640266412,-1,1,0,-1,0,-2,-3,1
1517203640266912,0,-2,-2,-2,-1,-2,0,0
1517203640266912,-1,-1,-1,0,-3,-2,-1,-1
1517203640279922,-1,-2,-2,-1,0,-2,-1,-2
1517203640279922,-2,-1,-2,-3,-1,-2,0,-1
1517203640287927,0,-3,0,-2,-3,-2,-2,0
1517203640287927,-2,-1,0,0,-1,-1,-1,0
1517203640302938,0,-2,-2,0,-1,-1,-1,0
1517203640302938,-1,-1,0,0,0,0,-1,-2
1517203640303939,-1,-1,-3,-1,-1,0,-2,-3
1517203640303939,-1,-3,0,-2,-1,0,-2,-2
1517203640326454,-2,0,-2,-2,-1,-2,-1,-2
1517203640326454,-1,-2,-1,-2,-1,-1,-3,1
1517203640326957,1,0,1,0,-3,-2,-2,-2
1517203640326957,-2,-2,0,-2,-1,-3,-1,-1
1517203640339965,-2,-1,-1,0,-2,1,1,0
1517203640339965,-1,-2,0,-1,-1,-1,-1,-2
1517203640348470,-1,-1,-2,0,-1,0,-1,-2
1517203640348470,-1,1,-1,-1,0,-3,-1,0
1517203640362980,0,0,-1,-1,-2,-1,-1,-1
1517203640362980,-1,1,-2,-1,-1,0,0,0
1517203640363982,-1,1,0,-1,0,1,-1,0
1517203640363982,-1,1,-1,0,-2,-2,-1,0
1517203640386497,-1,0,0,-3,0,0,0,-2
1517203640386497,-2,-2,-2,1,-1,-1,0,-2
1517203640386997,-1,-1,-1,-1,-3,-2,1,0
1517203640386997,-1,1,-1,-1,-1,0,0,-2
1517203640400050,-2,-2,0,-1,-1,-2,0,2
1517203640400050,-1,0,1,-1,-1,-1,-2,-2
1517203640408054,-1,-1,0,-1,0,0,-1,1
1517203640408054,0,-3,-2,-1,-1,-2,-2,-1
1517203640423065,-1,-1,-2,-1,-1,0,-2,-2
1517203640423065,-1,-1,-2,-1,0,-2,-2,-2
1517203640424065,0,-1,-1,-1,-1,-1,-1,-2
1517203640424065,-3,-2,-2,-2,1,-1,1,-1
1517203640446090,-1,-3,-1,-2,-2,0,-1,-3
1517203640446090,-2,0,-1,-1,-2,-2,0,-1
1517203640447081,-2,-1,-1,-2,-1,-1,-1,-1
1517203640447081,-1,-1,-2,-1,-1,1,-1,0
1517203640460094,-1,-1,0,-1,0,-1,-2,-1
1517203640460094,0,-1,-2,-1,-2,0,-2,0
1517203640468096,-2,-3,0,-1,-1,-3,0,-1
1517203640468096,-1,-1,-2,0,-1,2,-2,-2
1517203640483108,-1,0,-3,-1,-1,-2,-2,0
1517203640483108,1,-2,-1,-2,-2,-1,0,1
1517203640484107,-1,-1,-1,0,-1,0,-2,0
1517203640484107,-1,1,-1,-2,-1,0,-1,1
1517203640506624,1,1,0,0,-1,-3,0,-1
1517203640506624,-3,0,0,0,-1,-1,-1,-1
1517203640507125,0,-1,-1,-1,-1,1,0,1
1517203640507125,-1,0,-1,-1,-2,-2,-1,-3
1517203640519666,-2,-3,-2,0,-1,0,-2,-2
1517203640519666,-2,-1,-3,-1,1,-1,0,0
1517203640528186,-1,-1,-1,-1,-1,-2,1,-1
1517203640528186,1,0,0,0,-1,-1,-2,0
1517203640543198,-1,0,-2,-1,-4,-2,-1,-1
1517203640543198,0,-3,0,0,-1,-1,-1,-3
1517203640543697,-4,1,-2,0,0,-2,-3,0
1517203640543697,-2,-2,0,-2,0,-1,-1,-1
1517203640566214,-2,-2,0,-2,0,0,0,0
1517203640566214,-1,-1,0,-1,-1,1,0,-1
1517203640567213,-1,-1,0,-1,-1,0,-2,-2
1517203640567213,-1,0,-2,1,-2,-1,-2,-1
1517203640579723,-1,1,0,-1,0,0,-1,-1
1517203640579723,-2,-1,-1,0,-1,-1,-1,-2
1517203640587728,-3,-1,-1,-1,0,-1,0,0
1517203640587728,-1,-1,0,-2,-3,-2,0,0
1517203640603240,0,-1,-1,-1,-1,-3,-2,-1
1517203640603240,0,-1,0,0,1,1,-1,-1
1517203640604240,-1,-1,0,0,0,0,0,-3
1517203640604240,-1,-1,-2,0,0,-1,0,-2
1517203640626255,1,-1,-1,-2,-2,0,-1,0
1517203640626255,1,-2,0,0,0,-1,0,-1
1517203640626758,2,-1,-1,-1,-1,-2,-2,-1
1517203640626758,-2,0,-1,0,0,-1,-1,-1
1517203640648771,-2,-1,0,-2,-1,0,0,1
1517203640648771,-2,-1,-1,-3,-1,-2,-2,-1
1517203640649272,-1,-1,0,-1,-1,-1,0,-1
1517203640649272,1,-1,0,0,0,-1,-1,-1
1517203640662793,-2,-1,-2,1,-2,-2,0,0
1517203640662793,0,1,-2,-1,-3,-2,1,0
1517203640663783,-1,0,0,-1,-2,-1,0,-2
1517203640663783,-2,-2,-1,-2,-1,0,0,-1
1517203640686841,-1,-1,-1,0,3,-1,-1,-2
1517203640686841,0,-2,-1,-2,-2,0,-1,-2
1517203640687300,0,1,-2,-1,0,-2,-1,-1
1517203640687300,-2,2,0,-1,0,-2,-1,-1
1517203640708818,0,0,-1,-1,-2,-1,-1,0
1517203640708818,-2,1,0,-1,0,0,1,-1
1517203640709314,0,-3,-1,-2,-1,-1,-2,-1
1517203640709314,-2,-2,-2,-2,0,-1,-2,-1
1517203640723325,-2,0,-2,-2,-1,-3,-2,-2
1517203640723325,-1,-1,0,-1,-1,-1,-2,-1
1517203640723826,0,-2,-1,-1,-1,-1,-1,-2
1517203640723826,-1,-1,-1,0,0,0,-2,-2
1517203640746342,-1,-2,0,-1,-1,-1,-1,-2
1517203640746342,1,-1,-1,-1,-1,-3,-1,1
1517203640747843,0,-1,-1,-1,-1,-2,-2,-2
1517203640747843,-2,-2,0,0,-2,-1,-1,0
1517203640769357,0,0,0,-1,-2,-1,0,-1
1517203640769357,-1,-2,-2,0,-1,-1,0,-2
1517203640770357,-1,0,-2,-1,-1,-1,-1,-1
1517203640770357,-1,1,-1,-2,-2,-2,-1,-1
1517203640782866,-1,-2,-1,-1,-2,-1,-1,-2
1517203640782866,-3,-1,-1,-1,0,-1,-1,-2
1517203640783867,-2,-2,-1,-1,-1,0,1,0
1517203640783867,1,-1,-2,2,0,-1,-1,1
1517203640806383,0,-2,-1,-1,-1,-3,0,-1
1517203640806383,-1,-1,-3,0,-1,0,-1,0
1517203640806884,-2,-1,-1,-1,-2,-3,0,0
1517203640806884,-2,-2,0,-1,-1,-1,0,0
1517203640828899,-2,-1,-1,-1,1,-1,-1,-1
1517203640828899,-2,0,-3,0,0,-1,-1,-1
1517203640829400,0,0,-3,-2,-1,-1,-1,-1
1517203640829400,0,-1,0,-1,-3,-1,-1,-1
1517203640842909,-1,-1,-1,-1,-1,-1,0,0
1517203640842909,-1,-1,0,-1,-2,-1,-2,-3
1517203640843909,-1,-1,-1,0,-2,-1,-2,0
1517203640843909,0,-1,-2,-2,-1,-1,0,-2
1517203640866441,-1,0,-2,-1,-1,-1,-2,-1
1517203640866441,0,0,-1,-4,-2,1,1,0
1517203640866942,-1,-3,-2,-1,-1,-2,-1,0
1517203640866942,0,-1,-2,-2,-1,-2,-1,-1
1517203640888958,-2,-4,-2,-2,-2,-1,-1,0
1517203640888958,-2,-1,-1,-1,-1,-2,-1,0
1517203640890459,-2,0,-1,-2,-1,-2,-1,-2
1517203640890459,0,-2,0,-2,-1,0,-1,-2
1517203640902467,-1,-1,-1,0,-1,0,0,-2
1517203640902467,-1,-2,-2,-2,0,-1,0,0
1517203640911473,1,0,-1,-1,0,0,-1,-1
1517203640911473,-1,1,-2,-1,-2,-2,-1,0
1517203640925983,-2,0,-2,-1,-2,0,0,-2
1517203640925983,-2,-1,0,-1,-3,-1,0,-2
1517203640927991,-1,-1,0,0,-2,-1,-2,0
1517203640927991,-1,0,-1,-3,0,-1,-1,-1
1517203640948510,-1,-1,-2,0,0,0,-2,-1
1517203640948510,0,-1,0,0,-1,-2,-2,0
1517203640950504,-1,-1,0,-1,-1,-1,-2,-1
1517203640950504,-2,-1,-2,0,-2,1,-1,0
1517203640962509,0,-1,-1,-1,-2,-2,-2,0
1517203640962509,-2,-2,-1,-2,-1,-2,0,-1
1517203640971531,0,-1,-2,-1,-3,0,-1,-1
1517203640971531,-3,-2,-1,0,-2,-2,0,0
1517203640986041,0,0,-1,-2,0,0,-1,-2
1517203640986041,-1,0,-1,-1,-1,-1,-2,-1
1517203640987537,0,-1,-2,-1,-2,-1,-1,-1
1517203640987537,1,0,0,-1,0,0,0,-1
1517203641008557,-1,0,-1,0,-3,-2,-2,1
1517203641008557,1,-1,0,0,-1,-1,0,0
1517203641010553,0,0,-3,-2,-2,-1,-1,-1
1517203641010553,-1,0,-2,0,-1,-3,0,-1
1517203641022554,-2,-1,0,0,1,-1,-1,-1
1517203641022554,-1,-3,-1,0,-2,-2,-2,1
1517203641031559,-1,-1,-1,-1,-1,-2,-2,1
1517203641031559,-1,-2,0,0,1,-1,-2,-2
1517203641046070,0,-3,-1,0,-2,-1,1,-2
1517203641046070,-1,-2,-2,-2,-1,-1,0,-1
1517203641048580,-1,-1,0,-1,-1,0,0,-1
1517203641048580,-2,-2,-2,-3,-1,0,-3,-2
1517203641068602,-2,-1,0,-2,1,0,-2,0
1517203641068602,0,-1,0,-1,-1,-1,-3,-3
1517203641071086,-1,-2,0,-2,0,-1,2,0
1517203641071086,-2,1,0,0,0,1,-1,0
1517203641082103,-1,-1,-1,-1,-1,0,1,-4
1517203641082103,-1,-2,-1,-1,-2,-1,-1,-2
1517203641091102,0,-1,-2,1,-2,-1,0,-2
1517203641091102,-1,-2,-1,-1,-2,0,0,1
1517203641106612,-1,-2,-1,-2,-2,-1,-2,-3
1517203641106612,0,1,-1,-2,0,-1,-1,0
1517203641108114,-2,-1,0,-1,-1,-1,1,-1
1517203641108114,-1,-2,-2,-1,-2,-3,-2,0
1517203641128628,0,-1,-2,-2,-2,-2,-1,-1
1517203641128628,-1,-2,-1,-1,-2,1,-1,0
1517203641130129,-2,0,-2,-1,0,0,-2,-1
1517203641130129,0,-1,0,0,-1,-1,0,0
1517203641142639,-1,1,-3,0,-1,0,-2,1
1517203641142639,-2,-1,-2,0,0,-2,-1,-2
1517203641151143,-1,-2,-1,-2,1,0,-1,-1
1517203641151143,1,-1,-2,-1,0,-1,-1,-2
1517203641166163,0,0,-1,-1,-1,0,1,-2
1517203641166163,0,-1,-2,-2,-1,-2,1,-1
1517203641167654,-2,-2,-2,1,0,-1,-2,-2
1517203641167654,-2,-1,-2,-1,-2,-1,0,-3
1517203641188669,0,0,-1,-2,0,-3,-1,2
1517203641188669,0,0,-2,-2,0,-1,-1,-1
1517203641190671,0,-2,-1,-1,0,1,0,0
1517203641190671,-1,-1,-2,-1,-1,-3,0,-1
1517203641202179,-1,-2,-2,-2,1,-1,-2,-1
1517203641202179,-1,-2,0,2,-2,0,-2,-1
1517203641211199,1,-1,-1,-1,-2,-1,-3,-1
1517203641211199,1,1,-1,-1,-1,-1,-1,-4
1517203641226196,-2,-1,0,0,-1,-2,-2,-2
1517203641226196,-1,0,-1,-1,0,1,-1,-1
1517203641227699,-2,-1,0,-1,-2,-1,0,-2
1517203641227699,-1,-3,-3,0,-2,-1,1,0
1517203641248712,-2,-1,0,-1,-2,-2,0,-1
1517203641248712,-1,-1,-1,0,-1,1,0,-1
1517203641250713,-1,-1,-1,0,0,-1,-2,0
1517203641250713,-1,0,0,0,-1,-1,-1,-2
1517203641262223,0,-1,-2,0,-2,-1,-3,-1
1517203641262223,1,-2,-2,-1,-2,-2,-2,-1
1517203641271228,0,-2,-3,-1,-1,-2,-2,-1
1517203641271228,-1,0,-1,-2,-2,-1,-1,-3
1517203641286260,-3,-2,-2,-2,0,0,0,-1
1517203641286260,0,-1,-1,-1,-2,-1,-1,-1
1517203641287749,-1,-2,-2,0,-2,-1,0,1
1517203641287749,0,-2,1,0,0,-1,-1,0
1517203641308754,-2,0,0,0,-2,-1,-1,0
1517203641308754,-2,0,-2,0,-1,0,-1,-2
1517203641310255,-1,-1,-2,-2,-1,-2,-1,-2
1517203641310255,0,0,-1,-3,-3,0,-3,-1
1517203641322264,-1,-2,0,-2,-1,0,0,0
1517203641322264,-1,-2,-1,-1,-1,-2,-1,-3
1517203641331272,0,1,-2,-1,0,0,-1,0
1517203641331272,-1,-2,1,1,1,0,0,-1
1517203641346281,1,0,-1,-2,-1,-2,1,-3
1517203641346281,0,-1,-1,-1,-1,0,-1,1
1517203641347783,-1,0,-1,1,-1,-1,-1,-2
1517203641347783,-2,-1,-1,-3,-2,-2,-1,-1
1517203641369298,-2,0,0,-1,-1,0,-1,-3
1517203641369298,-1,-1,-1,-1,-1,-1,-1,0
1517203641371315,-1,0,-2,-3,-1,-1,-2,-2
1517203641371315,0,-1,-1,0,0,-2,-1,0
1517203641382306,-1,-1,-3,1,-1,-2,-1,0
1517203641382306,-1,1,0,-2,-1,0,-1,-2
1517203641391312,-1,0,0,0,-2,-2,0,-1
1517203641391312,-1,-1,-3,-1,-1,0,-2,0
1517203641406324,-1,-2,-2,-2,-1,-2,-1,0
1517203641406324,-1,-1,0,-1,-1,-2,1,-1
1517203641407828,0,-2,-1,-1,-2,-1,-1,-1
1517203641407828,-2,-1,0,-1,0,0,-1,-1
1517203641428847,-2,0,-1,0,-2,0,-2,-2
1517203641428847,0,-1,0,-1,-2,-1,-1,-2
1517203641430350,-1,-2,0,-3,-2,-1,-2,0
1517203641430350,-1,1,0,-1,-1,-1,0,0
1517203641451358,0,-2,-1,-1,-1,-2,-1,0
1517203641451358,-3,-2,-1,-2,-2,0,-2,-1
1517203641452856,0,0,-3,-2,-2,1,0,-1
1517203641452856,-1,-1,-2,-1,-1,-2,-2,0
1517203641466366,-2,0,-1,0,0,0,-1,-1
1517203641466366,0,-2,-1,1,0,-3,-1,-1
1517203641467869,-2,0,-2,-3,-2,1,0,-2
1517203641467869,-2,-1,-1,-1,-3,-1,0,-1
1517203641488891,0,-3,0,-3,-1,2,1,-1
1517203641488891,0,1,-1,0,0,-2,-1,0
1517203641490386,-1,-1,-1,2,-1,-2,-2,1
1517203641490386,-1,0,-2,-1,-1,-1,-1,0
1517203641502401,-1,-2,-2,-2,-1,0,-2,-1
1517203641502401,-1,-2,-1,-2,-1,0,0,0
1517203641511398,-2,-2,-1,-2,-1,0,-1,0
1517203641511398,1,-1,-3,-2,-2,-1,-2,-2
1517203641526409,-2,-2,-1,-2,-2,-2,0,-1
1517203641526409,0,0,-1,-1,0,-1,-1,-2
1517203641527913,-1,0,0,1,-1,-1,-1,-1
1517203641527913,0,-2,1,-2,0,-3,1,0
1517203641548434,-1,-2,0,-1,0,-2,0,-1
1517203641548434,-2,0,-3,-1,-2,1,-2,-3
1517203641550435,-1,-2,0,-2,-1,-2,0,-1
1517203641550435,-1,-2,-2,-1,-1,0,-1,-2
1517203641570992,0,0,1,0,-1,-1,-1,-2
1517203641570992,-2,-2,-1,-2,1,-1,-2,-1
1517203641572979,-2,0,-1,0,0,-1,-1,0
1517203641572979,1,-3,-2,-2,-2,0,-2,-1
1517203641585988,0,-1,-1,0,-2,0,1,0
1517203641585988,0,-2,-1,-1,-1,-1,-2,-2
1517203641587489,0,-1,-1,-2,-1,1,0,0
1517203641587489,-3,0,-1,0,0,-1,0,0
1517203641609021,-1,0,-1,-1,-1,-1,-1,1
1517203641609021,-2,-3,-1,-1,-2,-1,-2,-1
1517203641610506,0,-2,-2,0,-1,-2,-1,-2
1517203641610506,-2,0,-1,-1,0,-1,0,-1
1517203641631022,0,-2,-2,-2,0,0,0,-1
1517203641631022,-1,-2,0,-1,0,-2,0,2
1517203641632522,-1,-2,-1,-2,-1,-2,-2,0
1517203641632522,0,-1,-1,0,0,1,-2,-1
1517203641646032,-1,0,-3,-1,-2,-2,-1,0
1517203641646032,0,-2,-2,-2,-2,0,-1,-1
1517203641648032,-1,0,-2,0,-1,1,-2,-1
1517203641648032,-3,-2,-1,0,-1,-3,-1,-2
1517203641668550,-2,-2,-1,0,0,-1,-3,0
1517203641668550,-2,1,-1,-1,-2,-2,0,0
1517203641675052,-2,-1,0,0,-2,-1,0,-1
1517203641675052,0,0,-1,-1,0,-2,-1,-2
1517203641691064,0,-1,-1,0,0,0,-3,-1
1517203641691064,1,-2,-1,-1,-2,-1,-2,0
1517203641692564,0,-2,-2,-1,1,-1,-2,-1
1517203641692564,0,-1,0,1,-2,1,-1,1
1517203641706576,0,-3,-1,-1,-2,-1,0,-2
1517203641706576,-2,-2,-1,0,0,-1,-1,0
1517203641708078,0,0,0,-1,-1,-2,1,-1
1517203641708078,-2,-2,-2,-1,-1,0,-2,-1
1517203641728604,-2,-1,-1,-3,-3,-2,-2,-1
1517203641728604,-1,-2,-2,0,-2,-2,0,0
1517203641730106,0,-2,-2,0,-2,-1,1,-1
1517203641730106,-1,-1,-2,-1,-2,-1,-1,-1
1517203641751114,-1,0,-2,0,-1,-1,-1,0
1517203641751114,-2,-1,-1,-1,-1,0,-1,-1
1517203641752616,-2,0,0,-1,-1,0,-3,1
1517203641752616,0,-1,-1,0,-1,-1,0,-3
1517203641765615,0,-2,1,0,-3,0,-2,-1
1517203641765615,0,1,-1,-3,-1,-1,-1,0
1517203641772120,0,-1,-2,-2,-1,0,-1,0
1517203641772120,-3,0,-2,-1,0,0,-1,-2
1517203641788635,-1,-1,-1,-1,-1,0,0,1
1517203641788635,-1,-1,0,-2,0,-1,0,-1
1517203641790133,-1,-2,-1,-2,-1,0,0,-1
1517203641790133,-2,-2,-1,-1,-1,-1,-1,0
1517203641811149,-3,-1,1,-1,0,-3,0,-1
1517203641811149,-1,-1,-3,-2,-2,1,-1,-1
1517203641812650,-2,-1,-1,0,-1,-2,-2,-2
1517203641812650,-1,-1,0,-1,-1,0,0,1
1517203641825657,0,0,-2,-1,-1,-2,-2,-3
1517203641825657,-1,-2,0,-1,-2,-2,1,-2
1517203641832171,-3,-1,-2,-2,-1,-2,-1,0
1517203641832171,-2,-1,-1,-2,-1,-2,-2,-1
1517203641848673,-1,-1,0,-1,1,0,-1,-2
1517203641848673,-1,-1,0,0,-2,-2,-3,-2
1517203641850690,0,-1,0,0,-2,0,0,-1
1517203641850690,-1,-1,0,0,-1,-2,-1,-1
1517203641871212,-3,0,-1,0,-1,-1,0,0
1517203641871212,-1,0,-2,-1,-2,-2,-1,-1
1517203641872691,-2,-1,-1,0,-1,0,0,-1
1517203641872691,-1,-1,-2,-1,-1,-1,0,-2
1517203641885733,2,0,-2,-2,-1,-1,0,-2
1517203641885733,-1,-1,0,0,-1,-1,-1,-2
1517203641892229,0,0,-2,0,0,-2,-2,0
1517203641892229,1,-1,0,-2,-1,-1,-1,0
1517203641908740,0,0,-1,-2,0,0,0,0
1517203641908740,-1,-1,-2,-1,-1,-1,-1,0
1517203641910241,0,1,-2,-1,-1,-2,-1,-3
1517203641910241,-1,-1,0,-1,-1,-3,0,0
1517203641931267,0,-2,-1,-1,-3,0,-1,-1
1517203641931267,-1,-2,-3,-2,0,0,0,0
1517203641932767,-3,-2,0,-2,-1,0,0,1
1517203641932767,-1,0,-1,-1,-2,0,0,-1
1517203641945769,-3,-2,-1,-2,0,-2,-2,-3
1517203641945769,-1,0,-1,-1,-1,-1,-2,-1
1517203641952280,-1,-2,-1,-1,-1,0,-2,-1
1517203641952280,-2,1,-1,-1,-2,-1,0,0
1517203641968800,-2,-2,-2,-2,1,-1,0,0
1517203641968800,-2,-1,-1,0,-1,-2,0,-2
1517203641971284,-1,-2,-1,-1,0,0,-1,-2
1517203641971284,-1,-1,-2,-1,-1,-1,-1,-2
1517203641991298,0,-1,-2,2,0,0,-1,0
1517203641991298,-1,-1,-2,-1,1,0,1,-2
1517203641992800,0,-3,-3,-1,-3,-1,0,0
1517203641992800,-1,-1,-1,-2,0,0,-2,0
1517203642004817,0,1,-2,-1,-1,-3,-4,-1
1517203642004817,-2,-1,-2,-2,0,-1,-2,0
1517203642013814,0,1,-1,-1,0,-2,-1,-2
1517203642013814,-1,-1,-2,1,-2,-1,-1,-1
1517203642028824,-1,-1,-1,-1,-1,-2,-1,-1
1517203642028824,0,-1,-1,-1,-1,0,-1,0
1517203642030326,0,-1,0,-1,-1,-2,-1,-1
1517203642030326,-1,-2,-2,-1,0,-2,-2,-2
1517203642051341,-2,0,0,0,-3,-2,1,0
1517203642051341,-1,-2,-2,-1,0,-1,1,-1
1517203642052841,-2,0,-3,-1,-3,-1,-1,-2
1517203642052841,0,-1,-2,-3,-2,-2,-1,-1
1517203642064850,-3,-1,-2,-1,-1,1,-1,0
1517203642064850,-1,1,0,0,0,-1,-1,0
1517203642073858,0,-1,-1,0,1,-2,-1,1
1517203642073858,-1,-3,-1,-1,1,0,0,0
1517203642088882,-1,-2,0,-1,-1,-2,1,-2
1517203642088882,-1,0,-2,-2,-2,-1,1,-2
1517203642090368,-1,-1,-2,0,-1,-1,-2,-1
1517203642090368,-3,-1,-1,0,-1,-1,-1,1
1517203642111383,0,-1,-1,-2,0,-2,-1,0
1517203642111383,0,-2,0,-1,-1,0,-2,0
1517203642112885,0,-1,0,-1,0,0,0,1
1517203642112885,0,0,-4,-1,-1,0,-1,-1
1517203642124894,-1,0,-2,0,-1,-2,0,0
1517203642124894,0,0,0,-3,0,-3,-2,-1
1517203642133909,-2,0,-2,-3,0,-1,-2,-1
1517203642133909,0,-2,-2,-2,-1,-2,-2,0
1517203642148409,-1,-2,-1,-1,-1,-2,0,-2
1517203642148409,-1,-2,-1,-1,-2,-2,-1,-1
1517203642150410,0,0,0,-1,-1,-1,-1,0
1517203642150410,0,0,-2,-2,-1,0,0,-1
1517203642170925,-2,-1,-1,-1,-2,-1,0,-1
1517203642170925,-2,-1,-3,-1,-1,-2,-2,-1
1517203642172926,1,-1,-2,0,-1,-2,-2,0
1517203642172926,-1,0,0,-1,-2,-1,-1,0
1517203642184936,-1,-3,-1,-2,1,-1,-2,-1
1517203642184936,-2,-1,-1,-1,-1,0,0,1
1517203642193941,-2,-2,-2,-2,-1,-1,-1,-2
1517203642193941,-1,0,0,-1,-1,-2,-1,-2
1517203642208453,0,1,-2,-1,-1,-1,-1,0
1517203642208453,-1,-1,-2,0,-1,0,-1,-2
1517203642210454,-1,1,-3,0,-2,-1,-1,0
1517203642210454,-1,0,-3,0,-2,-2,0,-3
1517203642230967,-1,-1,0,0,-1,-1,-1,-1
1517203642230967,-1,-1,0,-1,-2,-1,-1,0
1517203642232469,-1,-3,1,-2,-1,1,0,-2
1517203642232469,-1,-2,-1,-1,0,-3,-1,-1
1517203642244977,0,-1,-4,-2,-1,-1,-1,1
1517203642244977,-1,-1,-1,0,-1,0,0,-1
1517203642253993,-1,-2,-1,0,-1,0,0,1
1517203642253993,-1,-2,-1,0,0,-1,-1,-2
1517203642268505,-1,0,0,0,-2,0,-1,-1
1517203642268505,0,-1,-3,1,0,-2,-1,-2
1517203642270995,-1,0,-1,-2,-1,0,0,-1
1517203642270995,0,-1,-1,-1,-2,1,0,0
1517203642291011,-2,-3,-1,-2,-1,0,-1,-2
1517203642291011,-2,0,0,0,-1,0,-1,-1
1517203642292512,-2,-1,-1,0,0,-1,0,-2
1517203642292512,-2,-1,-1,0,-2,-1,-1,-3
1517203642305031,-1,-2,-2,-2,-2,-2,-2,-2
1517203642305031,0,-1,-2,-1,-3,-3,-1,1
1517203642313526,0,-1,-1,-1,-1,-2,-1,-1
1517203642313526,-2,0,-1,-3,-1,0,0,1
1517203642328538,-2,0,1,-1,-1,-3,-1,-1
1517203642328538,-1,-1,-2,0,-1,-1,-1,0
1517203642330538,-1,-1,0,-2,-1,0,-2,-1
1517203642330538,0,-1,-1,-1,-2,0,-1,-3
1517203642351062,0,0,-1,-1,1,0,-1,-1
1517203642351062,0,0,-1,-2,-1,-2,-1,0
1517203642352563,-1,-1,-2,-2,0,-2,-1,-1
1517203642352563,-2,-2,-1,-2,1,0,-2,0
1517203642364564,-3,1,0,0,-1,-1,-1,0
1517203642364564,-3,-2,-2,-1,-1,-2,0,-2
1517203642374070,-1,0,-1,-1,-2,-2,-1,0
1517203642374070,0,-1,-2,-1,-1,-2,-1,-1
1517203642388603,-1,0,-1,-1,0,1,-1,-2
1517203642388603,-1,0,0,-1,-1,-1,0,-1
1517203642390586,-2,-1,-1,0,-2,0,0,-1
1517203642390586,-2,-1,-2,0,0,-1,-1,-3
1517203642411108,0,-1,-1,2,-1,0,0,0
1517203642411108,-1,-1,-1,-3,0,-1,-1,0
1517203642412597,1,-1,-3,-2,0,-1,0,0
1517203642412597,-1,0,-1,-1,-2,-2,-2,0
1517203642424616,-1,-2,-4,-2,-1,-1,-3,0
1517203642424616,-2,-2,0,-1,0,-1,-1,-1
1517203642433610,-3,-2,-1,0,0,-2,-2,0
1517203642433610,-2,0,0,-2,0,-2,-1,-2
1517203642449122,-2,0,0,-2,-1,1,0,-2
1517203642449122,-1,0,-1,-1,-2,-1,1,0
1517203642450623,-2,0,-2,-2,-2,-1,0,-1
1517203642450623,0,-2,-1,0,-1,1,-3,1
1517203642471161,-1,-1,-2,-1,-1,-3,-2,0
1517203642471161,-3,0,-2,-1,-2,-1,-2,-1
1517203642472639,0,-1,1,-1,-2,-1,0,-1
1517203642472639,-1,-3,-2,-1,-1,-1,-3,-1
1517203642485172,1,-1,-1,-3,0,0,-2,-2
1517203642485172,-1,0,0,0,0,-1,-2,-1
1517203642493654,-1,-1,-1,0,-1,-1,-1,-1
