timestamp,emg1,emg2,emg3,emg4,emg5,emg6,emg7,emg8
1517206018098635,-1,-3,-1,-1,-2,-3,0,-2
1517206018098635,0,0,0,-1,-1,-1,0,-1
1517206018104637,0,0,-1,0,-1,-3,0,0
1517206018104637,-1,0,-2,-1,-2,-2,-1,-1
1517206018112644,-1,0,0,-1,-2,-1,-2,-2
1517206018112644,-2,0,-4,-2,-1,-2,-1,-3
1517206018121149,-2,-2,-1,-1,0,-2,0,0
1517206018121149,0,-3,1,0,-1,0,-1,0
1517206018136159,-1,-3,-2,-1,-2,0,0,-1
1517206018136159,-2,3,2,0,-1,-1,-1,0
1517206018138661,-1,-3,-5,-1,0,-1,-1,-3
1517206018138661,-1,-1,-1,-1,-2,-2,0,0
1517206018158677,-1,-2,-1,-1,-1,-2,-2,0
1517206018158677,-2,-4,0,0,0,-3,0,1
1517206018160177,0,0,0,-2,-2,0,-2,0
1517206018160177,-2,0,-2,-1,-1,0,-1,-3
1517206018172186,0,-1,-3,-2,0,-1,-1,-1
1517206018172186,1,-2,-1,-1,-2,0,0,-1
1517206018188696,-1,-1,0,1,0,0,0,-1
1517206018188696,-1,-1,-1,-2,-1,-2,-1,0
1517206018196202,-1,0,-1,-1,0,-1,0,-1
1517206018196202,-1,-2,0,-2,-1,-3,-2,-1
1517206018197704,-1,-2,-3,-3,-1,0,-2,-1
1517206018197704,0,-1,-2,-1,1,-1,0,-1
1517206018218221,-1,-2,-2,1,-2,-2,-2,-1
1517206018218221,0,-1,-2,-1,-2,0,-1,-3
1517206018220219,0,-1,0,1,-1,-1,0,-1
1517206018220219,-1,0,-1,-1,-1,-2,-1,0
1517206018232228,0,0,-1,-2,-1,-2,1,0
1517206018232228,1,-3,-2,0,-1,-2,0,-2
1517206018241235,-2,-2,-1,-1,-2,-3,-1,-2
1517206018241235,-2,-2,-1,-2,-1,-1,-1,-1
1517206018255750,-2,-1,-1,0,-1,-2,-1,0
1517206018255750,-1,-1,-1,0,-2,1,-3,-1
1517206018257745,-1,1,-2,-1,-3,0,-1,-2
1517206018257745,-2,-3,-1,-1,-2,-1,0,-1
1517206018278759,-2,-1,-1,-1,-1,-2,-1,-1
1517206018278759,0,-2,-2,-2,-1,-1,1,0
1517206018280262,-1,0,-2,-1,-1,-1,0,-1
1517206018280262,-1,0,1,-1,-1,-1,-2,-1
1517206018300815,0,-1,0,-1,-1,0,-2,-2
1517206018300815,-2,-3,-1,-2,0,-2,-2,-1
1517206018302776,-2,1,-1,-2,0,-2,-1,-2
1517206018302776,-1,0,0,-1,-1,-2,2,0
1517206018315813,-1,-3,-3,-1,-2,-2,-1,0
1517206018315813,-2,-1,-1,-1,-2,-1,0,0
1517206018317288,-1,-3,-1,-2,-1,-1,-3,-1
1517206018317288,-1,-2,-1,0,-3,-2,-1,-1
1517206018338356,-1,0,-2,0,-1,-1,-1,-2
1517206018338356,-3,-1,-1,1,-2,0,0,-2
1517206018340834,-2,-1,0,0,-1,1,1,0
1517206018340834,1,-2,-2,-1,0,0,-1,-1
1517206018359869,-1,-2,-1,-1,0,0,-2,-1
1517206018359869,0,-1,-2,-2,-2,-2,-2,0
1517206018368356,-1,-2,-1,1,0,-4,0,0
1517206018368356,-1,-2,-1,-1,-1,-1,0,-1
1517206018375362,0,-1,-1,-4,-2,-1,-1,0
1517206018375362,-2,-1,0,0,0,-2,0,0
1517206018382377,0,-2,1,-2,-1,-2,-2,0
1517206018382377,-1,-1,-4,-2,0,-1,-1,-2
1517206018398376,-3,0,0,-1,0,-1,-3,0
1517206018398376,-1,-1,-1,-2,-1,-2,-3,0
1517206018400378,-1,0,0,-1,-2,-2,0,-1
1517206018400378,-1,-1,-1,1,-1,-2,-1,-1
1517206018420906,-2,-3,-2,-2,0,1,-1,-1
1517206018420906,0,0,-1,-2,-1,0,-1,-2
1517206018422902,1,-3,-2,-1,-2,-2,-1,-2
1517206018422902,-1,2,-1,-1,-1,-2,-1,0
1517206018443409,-1,-2,-1,0,0,0,-1,0
1517206018443409,-2,-1,-2,-2,0,-2,-1,-1
1517206018445410,-2,-1,-2,-2,-2,0,-2,-1
1517206018445410,0,-3,-1,-1,-1,0,-1,0
1517206018458433,1,1,0,-1,-1,-2,1,0
1517206018458433,-1,-1,-2,0,-1,-2,-1,-1
1517206018459920,-1,-2,-1,-3,0,2,-1,1
1517206018459920,-3,-2,-2,-2,-1,-1,-2,0
1517206018480935,-1,-1,-2,-1,-1,-1,-1,0
1517206018480935,-1,-1,-1,-1,-3,-1,-1,0
1517206018482445,-1,1,1,0,-1,-2,-1,0
1517206018482445,-1,-3,-3,1,0,-3,-1,-2
1517206018495446,0,-2,0,-2,-1,-2,-1,0
1517206018495446,0,0,0,-1,0,-2,0,-1
1517206018502449,-1,0,-1,-1,-2,-1,0,-2
1517206018502449,-1,-1,1,0,-1,0,-1,0
1517206018518475,1,0,1,0,-2,-1,-1,-2
1517206018518475,-2,0,-2,1,-1,-1,-1,-2
1517206018519962,-3,-2,-1,-2,0,-2,0,-1
1517206018519962,0,0,-1,-2,-1,-2,0,-1
1517206018540976,-2,0,-1,-2,-2,-2,-2,-1
1517206018540976,-1,0,2,0,-2,-2,-2,1
1517206018542480,1,12,-1,1,1,0,-2,-3
1517206018542480,-2,-11,-4,-2,-1,0,-1,-2
1517206018555487,0,8,2,1,-2,-3,-1,-2
1517206018555487,-1,-5,-4,2,-2,-1,-2,0
1517206018561991,1,2,0,-3,1,-2,0,0
1517206018561991,-1,3,-3,-4,-1,-1,-1,0
1517206018578503,-2,-3,-1,1,-1,-2,0,-1
1517206018578503,-1,0,-2,-6,-1,-2,-3,0
1517206018580504,-1,-3,0,3,-1,0,-1,1
1517206018580504,0,0,-1,1,0,2,-1,1
1517206018601042,-2,-5,-3,-2,-1,-1,-1,-2
1517206018601042,-1,2,0,0,-3,-1,-2,-2
1517206018602530,-3,-5,-2,-1,-1,-2,0,0
1517206018602530,1,-1,0,-4,-2,-2,-1,0
1517206018615529,-2,0,0,1,-1,-2,-1,0
1517206018615529,-1,-3,-2,-2,3,1,-2,-1
1517206018622058,0,-3,0,-2,-2,0,-2,-2
1517206018622058,-1,1,-1,0,-1,-3,-1,0
1517206018638545,-1,-1,-2,0,-2,-1,-1,-1
1517206018638545,-1,-3,0,0,-1,0,-3,-1
1517206018640047,-1,-4,-2,-2,-1,-1,-1,-1
1517206018640047,-1,1,-1,1,-1,0,-1,-1
1517206018661062,-1,-5,-4,-2,-1,0,-1,-1
1517206018661062,-1,0,-1,0,-1,1,-1,0
1517206018662575,-2,-3,-2,-3,-1,1,-3,-1
1517206018662575,-3,0,0,0,-2,-1,0,-2
1517206018675591,0,-2,0,-2,0,-2,0,-1
1517206018675591,-1,-1,-2,-2,-1,-2,0,0
1517206018682092,-1,-1,-2,0,0,-2,-2,-2
1517206018682092,-1,-1,-2,-2,-1,0,-1,-1
1517206018698589,-2,-3,-2,-2,0,-2,-2,-1
1517206018698589,-1,0,1,-1,-1,-1,1,-1
1517206018700090,1,-2,-1,0,-2,-3,-1,-2
1517206018700090,-2,0,-1,-1,0,-3,-1,-2
1517206018721107,-1,-1,-1,-2,-2,0,0,-2
1517206018721107,-1,-1,-2,-2,-1,-1,-1,-2
1517206018722609,-1,-1,-1,-1,-2,1,0,-1
1517206018722609,-1,-1,0,0,0,0,-1,-2
1517206018735117,-1,-1,-1,-1,-1,-1,0,1
1517206018735117,0,-1,0,0,-2,-2,-2,-1
1517206018743620,-2,0,-2,-1,-1,-2,0,1
1517206018743620,1,-2,0,0,-2,-2,-2,-2
1517206018758645,-2,0,-3,-1,0,0,0,-1
1517206018758645,0,-2,-2,-1,-3,-4,-1,-1
1517206018760132,-1,-2,0,0,-1,-1,-1,-1
1517206018760132,-2,0,0,-1,-1,-1,0,-2
1517206018781158,-1,-1,0,-2,-1,-1,-1,-2
1517206018781158,1,-2,-2,-2,-1,0,-1,-2
1517206018782660,-2,-1,-1,-1,-1,-2,0,-2
1517206018782660,-1,1,-1,-1,-1,-1,-1,0
1517206018794717,-1,-2,-2,0,-2,-1,-1,-1
1517206018794717,-2,-1,-1,0,-1,0,1,-1
1517206018803728,0,-2,-1,-1,1,-2,-1,-2
1517206018803728,-2,-2,0,0,-1,0,-3,-2
1517206018818730,0,-1,-1,-1,0,-1,-2,0
1517206018818730,0,-2,0,-1,-1,-1,-2,0
1517206018820219,-2,0,-2,-1,-2,0,-1,-1
1517206018820219,0,-1,1,-2,-1,-1,1,0
1517206018841231,-2,0,0,0,-2,-2,-1,-2
1517206018841231,-3,-1,-2,-1,0,-1,1,-1
1517206018842732,-2,-1,0,-2,-2,0,-2,0
1517206018842732,-1,-1,-1,0,-2,-2,-1,0
1517206018863256,-1,-3,-2,-2,-1,0,-1,0
1517206018863256,0,-1,-1,-3,-1,0,0,0
1517206018864247,0,-2,-1,0,-2,0,-1,-1
1517206018864247,-1,-1,-2,-2,0,-2,-3,0
1517206018877756,0,-3,-1,0,0,-1,-1,-1
1517206018877756,-1,-1,-1,-1,-2,-1,0,-2
1517206018878757,-2,-2,-2,-2,-1,-1,0,-1
1517206018878757,-1,-2,-3,0,-2,-1,-2,0
1517206018900287,0,0,-1,0,-2,-3,-2,-1
1517206018900287,-1,1,0,0,-2,-1,-1,0
1517206018901273,0,0,-1,0,-2,-1,1,-1
1517206018901273,0,-1,-1,-1,-1,-1,0,-2
1517206018923289,-2,-1,-2,-1,-1,0,1,-1
1517206018923289,1,-1,-1,1,-3,-2,-1,-1
1517206018924290,-1,-1,-2,-1,1,-1,-3,0
1517206018924290,-3,0,0,-2,-1,-1,-1,0
1517206018938302,0,-1,2,-1,0,0,-2,-1
1517206018938302,-3,0,-2,-2,-2,-1,1,-2
1517206018939303,-1,-2,-1,-1,-1,-1,-1,-1
1517206018939303,1,-3,-1,0,0,-1,0,-2
1517206018960325,-2,-1,0,-2,0,0,-2,0
1517206018960325,-2,-1,-1,0,-2,-2,-2,-2
1517206018960815,-2,-1,-1,-1,-1,-1,0,0
1517206018960815,-2,-1,-1,-1,-2,0,-1,-2
1517206018983332,-1,1,-1,0,-1,-1,-1,-1
1517206018983332,0,-3,-2,0,1,-1,-2,-1
1517206018984341,-1,-1,-1,0,0,0,1,0
1517206018984341,-1,0,-3,-1,-1,-2,-1,-1
1517206018997854,-1,-1,-1,0,-1,0,1,-1
1517206018997854,-2,-1,-1,-1,-1,-1,-1,1
1517206018998351,0,-2,-2,0,0,1,-1,-1
1517206018998351,-2,-1,-1,-2,0,0,-1,0
1517206019020380,-1,-2,-1,-2,-1,0,-1,-3
1517206019020380,-2,0,0,1,-1,-1,-1,-1
1517206019020859,-1,0,0,-2,-1,-1,-1,1
1517206019020859,-1,-2,-1,-1,-2,-3,-1,-2
1517206019042873,-1,-1,-1,-1,-2,0,-2,-1
1517206019042873,-2,-2,-1,-2,-2,-3,-1,-2
1517206019050382,-1,-2,0,0,-1,-1,-1,-1
1517206019050382,-1,-2,0,0,-1,0,-1,1
1517206019057884,0,1,-3,-1,-1,-1,-1,-1
1517206019057884,-1,-1,-2,-1,0,-1,-3,-1
1517206019058386,-2,0,-1,-3,-1,-1,-2,0
1517206019058386,-1,-3,-1,-3,-1,-2,-1,0
1517206019080410,-1,-1,-1,-1,-2,-3,0,-1
1517206019080410,1,-2,-1,-1,0,-1,1,-1
1517206019081410,-1,-3,-1,-1,0,-2,-1,-2
1517206019081410,0,3,-1,0,-1,0,0,-1
1517206019103419,-1,-1,-2,-1,-2,-1,-2,-2
1517206019103419,0,0,1,-1,-1,-1,1,-1
1517206019104432,0,-1,0,-2,-2,0,-1,0
1517206019104432,0,-1,1,0,0,-3,-2,-2
1517206019117942,-2,-1,-1,-3,1,0,-2,1
1517206019117942,-2,-1,-2,-1,-1,0,-2,-1
1517206019118427,-2,-2,-1,-1,-2,-2,-2,0
1517206019118427,-2,-1,-2,0,1,0,0,-1
1517206019140445,0,-1,-1,0,1,0,2,-2
1517206019140445,-1,0,-2,-1,0,-1,0,-1
1517206019140944,-2,-1,0,-1,-2,-3,-1,-1
1517206019140944,-1,-1,-1,-1,-1,-2,-1,-2
1517206019163473,-1,-3,-2,-2,-2,-2,-3,-2
1517206019163473,-1,-1,-1,-2,-2,-1,0,0
1517206019164459,0,-1,0,2,-1,-2,0,-3
1517206019164459,-1,-2,-1,-1,-2,-1,-1,-1
1517206019177972,0,-2,1,-1,0,-2,-1,0
1517206019177972,0,0,-1,-2,-2,-1,-1,-1
1517206019178470,-1,1,-2,-1,-1,-1,-1,0
1517206019178470,-1,-1,-2,-2,-1,0,0,0
1517206019200485,0,0,0,0,-1,0,-1,0
1517206019200485,-1,-2,2,0,0,-1,0,-3
1517206019200985,0,-2,-2,-3,-1,-2,-1,-2
1517206019200985,-1,-2,-3,-1,-3,-1,-1,-3
1517206019223511,-2,-1,-2,0,-2,-1,0,-2
1517206019223511,-2,-1,-1,0,-1,-2,-2,-3
1517206019224501,0,1,-1,0,-1,-1,-1,-2
1517206019224501,1,-2,-1,0,-1,-2,-2,-1
1517206019246034,-1,-3,-1,-3,-2,0,-2,-1
1517206019246034,-1,-2,-1,0,-1,-2,-1,-1
1517206019247017,0,1,-2,0,-1,0,0,-4
1517206019247017,-1,-1,0,-2,0,0,-1,-2
1517206019260527,-3,-1,-1,0,-1,-4,1,0
1517206019260527,-2,-2,-1,-1,-2,1,0,0
1517206019261029,-1,-2,0,-1,-1,-1,-1,0
1517206019261029,0,-1,0,-2,-3,-2,-1,1
1517206019283543,-1,-2,-1,0,-1,0,-1,-3
1517206019283543,0,-1,-1,-1,-2,-2,-2,-1
1517206019284043,-3,-1,-1,-2,0,-3,-1,1
1517206019284043,-2,0,-2,-1,-2,-1,0,-2
1517206019298053,-1,0,-1,0,0,-1,-1,-2
1517206019298053,0,-1,-2,-1,-1,1,-2,-2
1517206019298554,0,-1,-1,-2,-2,0,0,0
1517206019298554,0,0,-1,-2,0,0,-3,-2
1517206019320569,-2,-2,-1,-1,-1,-2,0,-1
1517206019320569,-2,0,0,0,0,-2,0,-2
1517206019321071,-1,-2,-2,0,-2,0,-1,0
1517206019321071,-1,-2,-1,-2,-1,0,1,-1
1517206019343609,1,0,-1,-1,-1,-2,-1,0
1517206019343609,0,0,-1,-1,1,0,-1,-2
1517206019344108,0,-1,0,-1,-1,-1,-2,-1
1517206019344108,-3,1,-2,0,1,0,0,-1
1517206019358118,-1,-1,-1,-2,-2,0,-1,0
1517206019358118,0,-1,-1,0,-1,-1,1,-1
1517206019358620,-1,0,-2,-1,1,-1,-2,-2
1517206019358620,-1,-1,0,-2,-2,0,-2,-1
1517206019380151,-1,-1,-2,-2,-2,0,-1,-1
1517206019380151,-2,-2,0,0,-1,0,-1,-1
1517206019381135,-3,-1,-1,0,-2,-1,-1,-1
1517206019381135,-1,-2,-1,1,-1,-2,-1,0
1517206019403676,-2,-1,-2,-2,0,-1,-2,-2
1517206019403676,-3,0,-1,-1,-1,-2,-1,1
1517206019404150,-2,-3,-2,-1,-1,0,-4,-1
1517206019404150,-1,-2,1,-1,-1,-2,-1,-1
1517206019417660,1,-2,-1,0,-2,-2,0,0
1517206019417660,0,-2,-1,-1,-1,0,-2,-2
1517206019418661,0,-2,-1,0,-2,-1,0,-2
1517206019418661,-1,-2,-2,-1,-1,-2,0,-2
1517206019440175,0,0,0,-2,1,-1,-1,-2
1517206019440175,-1,1,-3,-1,-1,-1,0,-1
1517206019441178,-1,0,-1,0,-2,-3,-1,0
1517206019441178,-2,-2,-1,-1,-1,-1,-2,-1
1517206019463192,0,-1,-2,0,-1,-1,0,-1
1517206019463192,-1,-2,0,-2,-1,0,-1,1
1517206019464193,-1,-1,-1,-2,0,-2,0,0
1517206019464193,0,-2,0,-2,-1,-1,0,-1
1517206019477702,-1,0,0,-1,-2,0,-2,-1
1517206019477702,0,-2,-2,-2,0,0,-1,-1
1517206019478703,0,-1,-1,-1,-2,-1,0,-2
1517206019478703,-1,-1,-1,-1,-1,-1,-2,0
1517206019500221,-2,-1,-2,-1,-2,-1,-1,1
1517206019500221,1,1,-1,-2,-1,-2,-1,-1
1517206019501219,-1,0,0,-1,-1,1,-2,-1
1517206019501219,-1,-1,-3,0,-1,-1,0,-2
1517206019523735,-1,-2,0,-1,-1,2,0,-1
1517206019523735,-1,0,1,-2,0,0,0,-1
1517206019524237,-1,-1,-2,0,0,-1,-1,0
1517206019524237,-1,0,-1,0,0,-1,0,-1
1517206019538245,-2,0,-1,-2,-2,-1,-2,-1
1517206019538245,-2,-4,-2,1,-1,-2,-2,0
1517206019539246,-1,-1,1,-3,0,0,0,-1
1517206019539246,-1,-1,-1,0,-1,0,0,0
1517206019560262,-1,0,-2,-1,-1,2,0,0
1517206019560262,-1,-1,-1,0,-1,-1,-2,-1
1517206019561263,0,-3,-2,0,-2,-1,1,-2
1517206019561263,0,-2,0,-1,-3,-1,-1,-1
1517206019583289,-2,0,-1,-2,0,-2,-1,-1
1517206019583289,-1,-1,-2,-2,-2,-2,-2,-1
1517206019584277,-2,1,-1,-1,-1,0,-1,0
1517206019584277,-3,-1,-1,0,-1,-2,-2,-2
1517206019597788,0,-2,-2,-1,1,-1,-2,1
1517206019597788,0,-2,0,2,0,-1,-1,0
1517206019598788,-1,-1,-1,-2,-1,-3,-1,-1
1517206019598788,-1,-2,1,-1,-1,-2,0,0
1517206019620861,0,-2,-4,0,-1,-1,-1,-3
1517206019620861,-1,-1,-1,-3,-1,-3,-1,-2
1517206019627810,-1,-3,-1,-2,-1,0,-1,0
1517206019627810,0,0,-2,-1,-1,0,0,-3
1517206019643320,-2,-2,1,0,-1,-1,-1,-1
1517206019643320,-1,1,-2,0,0,-1,-1,-1
1517206019643820,-1,0,-2,-1,-2,-3,-1,-1
1517206019643820,-1,-2,0,-2,-2,-2,-1,0
1517206019657392,0,-1,0,-2,-2,-1,0,-1
1517206019657392,-2,-2,-2,0,-3,-1,-1,1
1517206019665399,0,0,0,-1,-1,0,-3,-1
1517206019665399,0,0,-1,-1,0,0,-1,-1
1517206019680407,-2,-2,-1,-1,0,0,-1,-2
1517206019680407,-2,-1,-1,-2,-1,-3,0,0
1517206019680899,0,-3,-1,0,1,0,-1,0
1517206019680899,-2,-1,-1,-1,0,-1,-1,-1
1517206019703437,-1,0,-1,-1,-1,-1,-2,-2
1517206019703437,-2,0,-1,0,-1,0,-1,-1
1517206019704434,-1,-2,-2,0,-1,1,-1,-2
1517206019704434,-1,-2,-1,-2,-1,1,0,-1
1517206019717939,0,0,0,-2,-3,-4,-3,-1
1517206019717939,-1,-2,-1,-1,-1,-1,0,-1
1517206019718425,-1,0,-2,-2,-2,-2,0,-1
1517206019718425,-1,1,-2,-3,-1,-1,-1,-2
1517206019740441,-1,-1,-1,-2,-1,-2,0,0
1517206019740441,-1,0,-1,-3,-1,-1,-1,-1
1517206019740942,-1,-1,-1,-2,-2,-1,-1,-1
1517206019740942,-2,-2,-3,-1,-1,0,-2,-1
1517206019763456,0,-2,0,0,-1,-3,-1,-1
1517206019763456,1,-1,1,0,-1,-1,0,-2
1517206019764457,-2,-2,-2,0,0,0,0,-1
1517206019764457,0,1,-1,-1,-2,-1,-1,-1
1517206019777966,-1,1,-2,0,0,-1,-2,0
1517206019777966,0,-1,-1,0,-2,-2,-2,0
1517206019778467,0,0,-1,-2,-1,-1,-2,-1
1517206019778467,0,-1,-2,-2,0,-2,0,-1
1517206019800500,-1,-1,0,-1,-2,0,-2,-1
1517206019800500,0,0,-1,0,-1,-1,-2,-3
1517206019800983,-2,-2,-1,0,-1,-1,0,-1
1517206019800983,-1,-2,-1,-2,-1,-2,-1,1
1517206019823504,-3,-1,0,-2,-2,-1,1,-2
1517206019823504,0,-2,-3,-2,-3,-1,-1,0
1517206019824499,-1,0,-1,-2,-1,0,-1,0
1517206019824499,0,0,-1,0,-1,0,-1,0
1517206019837008,-1,-1,-2,-1,-1,-2,-1,-1
1517206019837008,-2,0,-2,-1,0,-1,-1,-1
1517206019845514,-1,-2,-2,-1,-1,-1,-1,-1
1517206019845514,-1,-2,0,0,-1,-1,-1,0
1517206019860524,-2,0,-1,-2,0,-1,-1,1
1517206019860524,1,-2,-2,0,-4,-3,-1,-1
1517206019861025,0,-1,-2,-1,-1,-1,0,-1
1517206019861025,-2,-1,0,-1,-2,-3,0,1
1517206019883586,0,-1,-1,0,-2,-1,0,-1
1517206019883586,-1,-1,-1,-2,0,0,-1,0
1517206019884071,-2,-1,0,-2,-1,-1,-2,0
1517206019884071,0,-3,-2,0,-1,-1,-1,-1
1517206019897079,-1,-1,-1,0,1,-2,-2,-2
1517206019897079,-2,-2,0,-2,-1,-2,-1,-1
1517206019905097,-1,-2,0,-1,-1,-2,-3,-4
1517206019905097,-1,0,0,-2,-1,0,1,-2
1517206019920095,0,-1,-1,-1,1,0,-1,-1
1517206019920095,0,0,0,0,0,1,0,1
1517206019921096,0,-1,-1,-1,-1,0,0,-2
1517206019921096,0,0,-3,0,0,-2,-2,0
1517206019943626,-1,-2,-2,0,-3,-1,-1,-1
1517206019943626,-2,-2,2,-1,-2,-2,-2,-1
1517206019944113,-2,0,0,-3,-1,-1,-1,1
1517206019944113,-1,-2,0,-1,-1,-1,0,0
1517206019957132,-2,-1,0,-3,-1,-1,-1,1
1517206019957132,1,-1,-3,-1,-1,0,-1,-2
1517206019965127,0,-1,0,0,-1,-2,-2,-1
1517206019965127,-2,1,-2,-1,-1,-2,-2,-2
1517206019980138,1,1,0,-1,-1,0,-2,0
1517206019980138,-2,-1,-3,-1,-1,0,-1,-2
1517206019981139,-1,-2,-2,0,-1,-1,-1,0
1517206019981139,-3,-1,-1,-1,-2,-1,-1,-3
1517206020003661,-3,-3,-1,0,-1,-1,-1,-1
1517206020003661,-1,0,-1,0,0,-2,-2,-2
1517206020004155,-1,-1,1,-1,-2,-1,1,1
1517206020004155,-1,1,-1,0,-1,-1,-2,1
1517206020017164,0,-2,-2,-1,-2,-1,-1,-1
1517206020017164,-1,0,1,-1,0,-2,0,0
1517206020025171,0,0,-2,0,0,-2,-1,-1
1517206020025171,0,-3,-1,-1,-1,-1,-1,0
1517206020048195,-1,0,-1,-1,-1,-2,0,-1
1517206020048195,0,-2,-1,-1,1,-1,-1,-1
1517206020049186,-2,-1,-1,-1,-2,-3,0,-3
1517206020049186,0,-1,0,0,0,-1,-3,0
1517206020063203,-1,1,-2,-2,0,-1,0,0
1517206020063203,-2,-1,-2,-1,-1,-1,-3,-1
1517206020064210,-1,0,0,-2,-1,0,0,0
1517206020064210,-1,-1,-1,-1,-1,-1,-1,-1
1517206020077216,-1,-1,-2,-1,-1,1,0,-1
1517206020077216,-1,-1,0,-2,-2,0,1,-1
1517206020085229,0,0,-1,-1,-2,-1,-2,-2
1517206020085229,-1,-1,0,-2,-1,-2,-1,-1
1517206020100224,1,0,1,-1,-1,-2,0,-3
1517206020100224,-2,-2,-1,-1,0,0,-2,-1
1517206020101237,-1,-1,-2,-1,1,-1,-1,-1
1517206020101237,-2,-3,-1,-2,-3,-2,-1,-2
1517206020123242,-2,-2,-2,-1,-1,-1,-3,-1
1517206020123242,-1,0,-1,0,-2,-1,1,-1
1517206020124241,0,-2,0,-1,0,-2,-1,0
1517206020124241,-1,-2,-2,0,-2,-2,0,1
1517206020137249,0,-2,0,0,0,-2,1,0
1517206020137249,0,-1,-1,-2,-1,-1,-2,0
1517206020145258,-2,-2,-1,-1,0,-1,-2,-1
1517206020145258,-1,-1,-2,1,1,-2,0,-3
1517206020160287,0,-2,-1,-1,-2,-2,-2,-2
1517206020160287,-2,-2,1,0,-3,-2,1,-2
1517206020161266,-1,-2,-2,-1,-1,-1,-1,0
1517206020161266,-2,-1,0,-2,-1,1,-2,-1
1517206020183295,0,1,0,0,-1,-2,-1,-1
1517206020183295,-1,-1,0,0,1,0,-1,0
1517206020184295,-2,-1,0,-1,-2,-2,1,-2
1517206020184295,1,1,0,1,0,-1,1,0
1517206020205810,-2,-1,-1,-2,0,-3,-1,1
1517206020205810,0,-2,-3,-2,-3,-2,-2,-2
1517206020206811,-2,-2,-1,-1,-2,0,-1,-2
1517206020206811,-1,-2,-3,-3,-1,0,-1,-1
1517206020220331,-1,-1,-2,0,-1,-2,-1,-1
1517206020220331,-2,-1,-1,-1,-2,-2,0,-1
1517206020221308,-2,-2,-1,-1,-1,-3,-1,-1
1517206020221308,-1,-1,0,-2,-1,-2,-1,-1
1517206020243325,-3,-1,-2,0,-2,0,-1,-1
1517206020243325,-1,0,-3,0,-1,-1,-1,1
1517206020244325,-1,0,-1,1,-1,0,0,-1
1517206020244325,-1,-1,-1,0,0,-2,-1,-1
1517206020265850,0,-2,0,-1,-1,1,-2,-2
1517206020265850,-1,-1,0,-2,-1,-1,0,0
1517206020266851,1,-2,0,0,-1,-1,-2,0
1517206020266851,-1,0,-2,-2,0,-1,-1,0
1517206020280368,0,0,-2,0,-1,-2,0,-1
1517206020280368,-1,0,-1,0,0,1,-2,-2
1517206020280852,0,-1,-1,-2,-2,0,0,-1
1517206020280852,0,-1,-2,-1,-3,0,-1,-1
1517206020303384,-1,-3,-1,-2,-1,-2,-1,0
1517206020303384,2,-2,-1,-1,0,-1,-2,-1
1517206020304367,-2,-1,-1,-1,-1,-1,-2,0
1517206020304367,1,-2,-1,-2,-1,-2,-1,-1
1517206020326383,-2,0,-2,0,0,0,0,0
1517206020326383,0,0,0,-1,-1,-1,-1,-2
1517206020327383,0,-1,0,-2,-1,-2,-3,-2
1517206020327383,-1,0,-2,0,-2,-1,0,-2
1517206020340392,1,-3,-2,-2,-1,-1,0,0
1517206020340392,-2,-1,-3,-1,-1,1,1,-2
1517206020340893,-1,1,-2,-1,0,-2,-1,-2
1517206020340893,-2,0,1,-1,-1,0,-1,-1
1517206020363409,-1,-1,-1,-2,0,-2,-2,-2
1517206020363409,-2,1,-1,-1,-1,-2,-1,0
1517206020364413,-1,-2,-2,-1,-2,-2,0,0
1517206020364413,-1,-1,-2,-1,0,1,1,-1
1517206020385934,0,-1,0,-2,0,-1,0,-2
1517206020385934,0,-2,-1,-1,-2,-1,-2,0
1517206020386941,1,-1,0,-1,-2,-1,-1,-1
1517206020386941,-1,0,0,-1,-1,-2,-3,0
1517206020400474,0,0,0,0,-2,0,-1,0
1517206020400474,-2,-1,-3,-1,-1,-5,-1,-1
1517206020400975,-2,-2,-2,-1,0,-1,-2,0
1517206020400975,-1,-2,-2,-1,0,-1,-2,-1
1517206020423506,-2,-1,-3,0,-2,-1,-2,-3
1517206020423506,0,-2,-1,-2,-1,-1,1,-1
1517206020424483,-1,-1,-2,-1,-1,-1,1,1
1517206020424483,0,-1,1,0,-1,-1,0,-1
1517206020445997,1,-1,-2,-1,-2,1,-2,0
1517206020445997,-2,-1,0,0,0,0,-1,0
1517206020447011,-2,0,0,-1,0,0,1,-1
1517206020447011,0,-1,0,-1,-1,-2,-2,-1
1517206020460508,-1,-2,-1,0,-3,0,-1,-1
1517206020460508,0,-3,-2,-1,-1,0,-2,0
1517206020461007,0,1,-2,-1,-1,0,-1,-1
1517206020461007,-1,-1,-2,-2,-2,-1,0,-2
1517206020482535,-1,-2,-1,-3,-1,-1,1,1
1517206020482535,-1,0,0,-2,-2,0,0,-1
1517206020490050,0,-2,0,-2,-1,-1,-1,1
1517206020490050,-1,-1,0,-1,0,0,0,-1
1517206020506049,-2,-1,0,-2,0,1,-1,1
1517206020506049,-1,-3,-1,0,0,-2,-2,0
1517206020506539,0,-3,-2,0,-1,-1,-2,-2
1517206020506539,-2,-1,-2,-2,0,0,0,0
1517206020520549,-1,-1,-1,0,-1,-3,0,-1
1517206020520549,0,0,-1,-3,-1,-1,-1,-2
1517206020521050,-2,1,-1,-1,-1,-2,-2,-1
1517206020521050,0,-1,-2,1,-2,0,0,0
1517206020543577,-1,0,-1,0,-1,-1,0,-2
1517206020543577,-3,0,-1,-1,-2,-2,2,-3
1517206020544567,0,-1,-2,-3,-1,-1,-3,-2
1517206020544567,-1,-2,-2,-2,-2,-2,-3,-1
1517206020566082,-4,0,0,-1,-1,0,-1,0
1517206020566082,-2,-1,0,-2,-1,-2,0,0
1517206020566592,0,0,-2,-1,-1,-2,0,-2
1517206020566592,0,-2,0,-1,-2,-1,-1,-1
1517206020580592,0,-2,0,-2,-1,-2,-3,0
1517206020580592,-2,-2,0,-1,-1,-1,-2,-2
1517206020581092,-3,-1,-2,-1,-3,-1,0,1
1517206020581092,-1,-2,0,-1,-1,-1,0,-2
1517206020603623,0,1,-2,-1,-1,1,1,-1
1517206020603623,0,-1,-2,-2,0,-1,-1,0
1517206020604109,1,0,0,-1,0,0,-1,-2
1517206020604109,-2,1,0,-1,-1,0,-1,1
1517206020626136,-1,-2,-1,0,-1,0,-2,0
1517206020626136,0,0,-2,0,-3,-2,1,-3
1517206020626625,0,0,-2,-1,1,-1,0,0
1517206020626625,-1,1,-2,-1,0,-3,-1,0
1517206020640135,0,-2,-1,-2,0,-1,0,-2
1517206020640135,0,-1,-1,0,-1,0,-2,0
1517206020641136,-1,-1,-1,-1,-2,0,-1,-1
1517206020641136,-2,-2,-1,-3,-1,-1,0,-2
1517206020663651,-3,0,-1,-2,-1,0,0,-1
1517206020663651,0,0,-1,0,-2,-1,-3,0
1517206020664151,-1,-1,-2,-2,-4,0,0,-3
1517206020664151,-1,-1,-1,-2,-1,0,-2,-1
1517206020686175,-1,-1,-2,-1,-2,-2,1,-1
1517206020686175,-2,-1,0,0,1,0,-1,-2
1517206020686676,-2,-2,0,1,1,0,-2,0
1517206020686676,0,-1,-1,-2,-1,0,-1,-2
1517206020700201,1,-1,-1,-3,-1,-4,-1,-2
1517206020700201,-1,-1,-2,-2,-2,-1,-1,0
1517206020701203,-3,-1,-1,-1,-1,-1,-2,0
1517206020701203,-2,-2,0,0,-1,-3,0,-1
1517206020723710,-1,-1,-1,0,-2,-2,-1,-1
1517206020723710,-2,1,-1,-3,0,-1,0,1
1517206020724195,-1,-1,0,-1,-2,-2,-1,-1
1517206020724195,-1,-1,-2,-1,-2,-2,-2,-1
1517206020746209,-2,-1,-1,-1,-1,1,-2,0
1517206020746209,-2,-1,-1,0,0,-1,-1,-2
1517206020746713,-1,-1,-1,0,-1,-1,-1,-1
1517206020746713,-1,-1,-1,-1,-1,-1,1,1
1517206020759731,-1,-1,-1,0,-1,-1,-1,-1
1517206020759731,-1,-2,-2,-2,-3,-3,-1,0
1517206020767724,-2,-2,-1,-1,-1,-1,-1,-1
1517206020767724,-1,-2,-1,0,-2,0,-1,-1
1517206020783247,-1,-1,-2,-1,-1,-1,0,-1
1517206020783247,0,-2,-2,-2,-1,-1,-2,1
1517206020784236,0,0,-1,-3,-1,-1,1,-1
1517206020784236,-1,0,-1,0,-2,0,-1,0
1517206020805760,-1,-2,0,0,0,-1,-2,0
1517206020805760,-2,-1,-1,-2,-2,-1,0,0
1517206020806761,-2,-1,0,1,0,0,0,-1
1517206020806761,-2,-1,-2,-2,-1,-2,-2,-2
1517206020819773,-3,-1,0,-1,-1,-1,-2,-2
1517206020819773,-1,-1,-1,-1,-1,0,0,-2
1517206020827767,-2,-1,-1,1,-1,-1,-1,-1
1517206020827767,1,-2,0,1,-1,0,-1,-2
1517206020843779,-1,-1,-2,0,0,-1,-2,-1
1517206020843779,0,0,0,0,0,-2,1,-2
1517206020844283,-1,-2,-2,-2,-1,-1,-1,-1
1517206020844283,1,1,-2,1,-2,0,0,-1
1517206020865794,-1,-3,-3,-1,-2,0,-1,-1
1517206020865794,0,-3,0,-2,-1,0,-1,-1
1517206020866795,-1,0,-2,-1,-2,-1,-3,-1
1517206020866795,-2,-1,-3,-1,-1,1,-1,-2
1517206020880317,-1,-1,-1,0,2,-1,-3,-2
1517206020880317,-1,-3,-3,-1,-1,0,-1,-2
1517206020887809,-2,-2,-1,-1,-2,-2,-1,-1
1517206020887809,-1,-2,-2,-3,-1,-2,-1,0
1517206020903343,0,-1,0,0,-2,0,0,-1
1517206020903343,0,0,1,0,-2,-1,-2,0
1517206020904343,-1,-1,-1,-2,-1,-2,-1,0
1517206020904343,-1,1,-1,-1,-1,-1,-2,-1
1517206020925836,0,0,-1,0,-2,-2,1,-2
1517206020925836,-1,-1,-2,0,-1,0,-1,-1
1517206020927338,-1,0,0,-1,-3,-1,0,-1
1517206020927338,-1,-1,1,-1,0,-1,0,-1
1517206020948361,-3,0,0,-3,-2,-1,-1,-1
1517206020948361,0,-1,-1,0,-1,-2,-2,-1
1517206020949853,-1,0,-1,-1,-1,-1,-3,-1
1517206020949853,-1,-1,-1,-1,-2,1,-1,0
1517206020963363,-2,0,-1,0,1,0,0,-1
1517206020963363,-2,0,1,-2,1,-1,-1,-1
1517206020964864,-1,-1,-1,-1,-1,1,1,0
1517206020964864,-2,-1,-2,-1,-1,-1,-2,-1
1517206020985906,-1,-1,-2,-1,-2,-1,-1,0
1517206020985906,-2,-1,-2,-2,-3,-1,0,1
1517206020987380,0,-1,-1,-1,-1,-3,1,-1
1517206020987380,-1,-1,-1,-1,-3,-1,0,-2
1517206020999400,-1,-1,-1,-1,-1,-2,-1,0
1517206020999400,-2,-1,-1,0,0,0,-2,-2
1517206021008396,-1,-1,0,0,0,0,-1,-1
1517206021008396,0,-2,-2,0,-1,-1,-2,-3
1517206021023405,0,1,-2,-2,-2,-4,-1,-1
1517206021023405,-1,-1,-1,-3,-2,-1,-1,1
1517206021024907,-2,0,-3,-1,0,-1,-1,-1
1517206021024907,0,1,-1,-1,0,-2,-1,-1
1517206021045928,0,-2,-1,-1,-2,-2,-3,1
1517206021045928,-1,-1,-1,-2,-1,-1,0,-4
1517206021047422,-2,-3,-1,-3,-1,-1,-1,-1
1517206021047422,-1,-2,-2,0,0,-2,-1,1
1517206021059933,0,-3,-1,1,-1,-1,1,-2
1517206021059933,-1,0,-2,0,-1,-1,-2,-1
1517206021068447,-1,0,-1,-1,-2,-1,-1,-1
1517206021068447,1,-1,0,-2,0,-2,-2,-1
1517206021083449,0,0,-2,-2,-1,0,-2,-1
1517206021083449,-1,-2,-1,0,0,-3,-1,-1
1517206021084958,-3,-1,0,0,0,0,0,-2
1517206021084958,0,-2,-1,-1,-2,0,0,0
1517206021105972,-2,-2,0,-3,-1,-1,0,-1
1517206021105972,0,-1,-2,0,-1,0,-2,-1
1517206021107465,1,0,0,-1,-1,-1,-2,0
1517206021107465,-2,0,-2,0,-1,-1,-1,-1
1517206021128480,-1,0,0,0,0,0,1,0
1517206021128480,0,0,-2,-3,-2,-2,-1,-1
1517206021129980,-2,-2,-1,-2,-2,0,-1,-1
1517206021129980,-2,-1,0,-1,-1,-1,-2,-2
1517206021143491,-1,-1,-2,0,-1,0,-1,-1
1517206021143491,-1,-1,-1,-2,1,-2,0,-1
1517206021144993,1,-4,-2,0,-1,-1,-2,-1
1517206021144993,-1,-3,-1,-2,0,-2,-2,0
1517206021166019,-1,-1,-1,1,-1,0,-4,-4
1517206021166019,-2,-2,-1,0,-1,0,0,-2
1517206021167507,-1,-2,-3,-1,-1,-1,-1,-1
1517206021167507,-1,0,-2,-2,-1,-2,-1,0
1517206021188594,-2,0,0,-3,-1,-1,-1,0
1517206021188594,-2,0,0,0,-1,0,-1,-3
1517206021190097,1,-1,-2,-1,-3,-1,-1,0
1517206021190097,-2,-2,-2,-1,-1,0,-1,-2
1517206021203616,-1,-1,-2,-1,0,-2,0,1
1517206021203616,-1,-2,-2,-1,-2,-1,1,0
1517206021205114,-2,-4,0,0,-2,-2,0,0
1517206021205114,-2,0,-2,0,-1,-2,0,-1
1517206021226099,-1,-1,-1,-1,-1,-1,-2,0
1517206021226099,2,-2,-1,-2,0,-1,-1,-1
1517206021227602,1,0,-1,-1,-1,-1,-2,-1
1517206021227602,0,0,-2,-2,0,-1,0,1
1517206021248616,-2,0,-2,-1,-1,-2,0,-1
1517206021248616,-1,-1,-2,-1,-2,-2,-1,-1
1517206021250117,-2,-2,0,-1,0,-2,0,-1
1517206021250117,-1,-1,0,-2,-1,-1,0,-1
1517206021262626,0,-3,-2,-2,-3,-2,0,-1
1517206021262626,-1,-2,0,-2,-2,-1,-1,0
1517206021269634,-2,1,-1,-1,1,-1,-1,0
1517206021269634,-2,-1,-1,-1,-3,-1,-1,-2
1517206021286155,-2,-1,2,-1,-2,-2,-1,-1
1517206021286155,-2,-1,-1,-1,-2,-1,-1,-2
1517206021287661,-1,-1,-2,-2,-1,0,-2,-1
1517206021287661,-1,-1,-3,0,0,-3,-2,-1
1517206021308658,-1,-3,-1,-1,0,0,0,-1
1517206021308658,-1,-1,-1,-1,0,-3,-1,0
1517206021310160,-1,-2,0,-1,-1,0,-1,-1
1517206021310160,-2,-1,-1,-1,-1,1,0,-3
1517206021322691,0,0,-2,-1,0,-2,-1,-1
1517206021322691,0,-2,-2,-2,-2,-1,0,0
1517206021329675,-1,-1,-1,-1,0,1,-1,-3
1517206021329675,0,-1,0,-2,-1,-1,-1,1
1517206021346185,-2,-2,-1,1,0,-2,-2,-2
1517206021346185,-2,-1,-2,0,0,0,-1,-1
1517206021347687,-1,-1,0,0,-2,0,-2,-1
1517206021347687,0,-3,0,-3,-2,0,0,-1
1517206021368200,-1,-1,-1,-2,-1,-1,0,0
1517206021368200,-1,-1,0,-1,-2,-2,-1,-1
1517206021370245,-1,-3,-1,-1,-3,-2,-1,-2
1517206021370245,-3,0,-1,-1,-1,0,-1,0
1517206021382720,-2,-3,-2,-1,0,0,-1,-2
1517206021382720,-1,0,1,0,-1,-1,-1,0
1517206021397221,-1,-1,-2,-1,-3,0,-1,0
1517206021397221,0,-1,-1,-1,-2,-1,-1,-1
1517206021405727,0,-1,-1,-2,-2,0,-1,-1
1517206021405727,-2,-1,-1,-2,0,1,-2,-2
1517206021407729,-1,1,-2,0,0,0,0,-1
1517206021407729,-1,-2,-1,-1,0,-1,-1,0
1517206021435805,-1,-1,0,-1,-1,0,-1,-1
1517206021435805,-2,-1,-2,-1,0,-1,-1,-2
1517206021438250,-1,-1,-1,-1,-2,-2,-2,-2
1517206021438250,-2,0,-3,0,-2,-2,-1,-1
1517206021442754,-2,0,-3,0,-1,-2,0,-1
1517206021442754,-1,-2,0,0,-1,0,-2,-1
1517206021449757,-1,0,1,-2,-1,-2,-2,-1
1517206021449757,-2,-1,0,-1,-2,-3,-1,-2
1517206021465769,-2,2,-1,-2,-2,0,0,-1
1517206021465769,-1,-1,-2,0,-1,-2,-1,-2
1517206021467780,-1,-1,-2,0,-1,-1,-1,-1
1517206021467780,-1,0,-2,1,1,0,-1,-2
1517206021488300,-1,-3,-1,-2,-1,0,-2,-1
1517206021488300,-3,-1,-2,-1,-1,0,-1,1
1517206021490296,-1,-2,-1,-1,-1,-2,0,0
1517206021490296,-2,-1,0,-1,-1,-2,-1,0
1517206021502823,-1,1,-1,-1,-1,-1,0,-2
1517206021502823,-2,-1,-1,1,0,-2,-1,-1
1517206021509802,-2,-1,-3,-2,-1,0,0,-1
1517206021509802,-1,0,0,-2,-1,0,0,-1
1517206021525823,-1,-2,-2,-1,-2,-1,-1,0
1517206021525823,0,-1,1,-1,-1,0,-2,-2
1517206021527330,-2,-1,-1,-1,0,1,0,-1
1517206021527330,1,-3,-2,-1,-1,0,-1,-1
1517206021548341,-2,-1,0,-1,0,-1,-1,2
1517206021548341,-1,-3,-1,-1,-1,-1,0,-1
1517206021549828,-1,0,0,1,1,-2,-1,-1
1517206021549828,-1,-2,-1,1,-2,-1,-1,-1
1517206021562837,-1,0,-1,-2,-1,-2,-1,-1
1517206021562837,-1,0,-1,1,-3,-1,-2,-2
1517206021569383,1,-3,-1,-2,0,-1,-1,-1
1517206021569383,-3,0,-2,-1,0,-3,-2,-1
1517206021585854,-1,-1,-1,-1,0,0,-2,0
1517206021585854,-1,-1,-1,-1,-1,-1,0,0
1517206021587355,-1,-2,-2,-1,-2,-1,0,-2
1517206021587355,0,-1,-1,0,-1,-1,-2,-2
1517206021608370,-1,-1,-1,-1,-1,-2,0,-1
1517206021608370,-1,-2,-2,-3,0,0,-1,0
1517206021609872,-2,-2,-1,-2,0,-2,-2,0
1517206021609872,0,-3,-2,-2,-1,2,0,0
1517206021621904,-2,-2,0,-1,-1,1,-2,-3
1517206021621904,0,-1,-2,-2,0,-1,1,1
1517206021630886,-1,0,-1,-1,-1,0,-1,1
1517206021630886,0,-1,0,-2,0,-2,-1,-1
1517206021645898,-1,-1,-1,0,2,-2,-1,-2
1517206021645898,-1,0,0,-1,-1,-1,0,0
1517206021647410,0,-2,-2,-2,-2,-1,-3,-1
1517206021647410,-1,0,-1,-1,-2,0,-1,0
1517206021668413,-1,-2,0,-2,-1,0,0,-2
1517206021668413,0,-1,-1,-1,-3,-2,-1,-3
1517206021669915,-1,0,0,-1,-1,-1,0,-1
1517206021669915,-1,-2,-2,-1,-2,-1,-1,0
1517206021681926,0,-3,-2,0,-1,-3,-2,-1
1517206021681926,-2,0,-2,-2,-1,-2,-1,-1
1517206021691020,-2,0,0,-1,-1,-2,0,-1
1517206021691020,-2,-1,-2,0,-1,0,-1,-2
1517206021705039,0,-2,-1,-2,0,-1,-2,-1
1517206021705039,-2,-1,-2,-2,-1,0,-2,-1
1517206021713534,-1,-1,-2,-1,-1,-1,-1,0
1517206021713534,-2,-2,-2,0,0,-2,0,0
1517206021728545,-1,-1,0,1,-2,0,-2,0
1517206021728545,-1,0,0,-2,0,0,-2,2
1517206021730047,1,2,0,-1,-1,1,0,-2
1517206021730047,0,-2,0,-2,-1,-1,-1,-1
1517206021742054,-2,1,-2,-3,-1,-1,-2,-1
1517206021742054,-1,-3,-2,-1,0,-1,-1,-4
1517206021751116,-2,-1,-1,0,-1,-3,-2,-1
1517206021751116,0,-1,-1,0,-2,0,0,0
1517206021766115,0,2,-1,1,-2,-2,-1,-1
1517206021766115,-1,-2,-1,-1,-1,0,-2,0
1517206021767613,-2,0,1,1,-1,-2,-1,-2
1517206021767613,-2,-1,0,-1,-1,0,1,-2
1517206021788643,-2,-2,1,-1,-2,-1,0,-3
1517206021788643,0,-1,-1,-2,-1,0,-1,-1
1517206021790141,-1,-2,-2,0,-2,0,-2,-1
1517206021790141,-1,-1,-1,-1,1,-1,-1,0
1517206021802133,-2,-1,-1,-1,0,1,-1,-1
1517206021802133,-2,1,-2,-1,0,0,1,-2
1517206021811138,0,-1,-1,0,-1,-2,0,-2
1517206021811138,-2,0,-2,-1,0,-2,-1,-1
1517206021826148,-1,-1,-2,-1,-3,0,-1,-1
1517206021826148,0,-2,-1,-2,-1,-2,-2,0
1517206021827648,-2,-2,-2,0,-1,0,0,-1
1517206021827648,-1,0,-1,-1,0,-2,-3,-1
1517206021848673,-1,-1,0,-2,-1,0,-2,0
1517206021848673,-2,-1,0,0,-2,0,0,0
1517206021850173,1,0,-1,-2,-1,-1,-1,1
1517206021850173,-1,0,-1,-1,0,-1,0,-1
1517206021862172,1,0,-1,-2,-1,-1,-1,0
1517206021862172,-1,-1,-1,-1,-2,-1,-1,-2
1517206021871201,-3,-2,0,0,-1,0,-1,-1
1517206021871201,-2,-1,-1,0,-2,-1,-1,-2
1517206021885710,-1,-2,0,1,-2,-3,0,0
1517206021885710,-1,-1,-2,-1,-1,0,-1,1
1517206021887705,1,-2,-2,-3,-1,-2,-2,-1
1517206021887705,0,0,0,-2,-3,-2,-2,-2
1517206021908706,-2,1,-2,-1,-1,-1,0,-1
1517206021908706,-1,0,-1,-1,1,-2,0,-1
1517206021910206,-2,-2,-1,-2,-1,0,0,0
1517206021910206,0,1,-2,-2,-1,-1,-1,0
1517206021922237,0,-3,-2,-1,0,-1,0,-1
1517206021922237,-2,-2,-1,-2,-1,-2,0,-2
1517206021939744,-1,-2,0,-1,-1,-1,-1,0
1517206021939744,-1,-2,0,-1,-3,1,-1,0
1517206021953249,-1,-2,0,-2,-1,-1,-1,-3
1517206021953249,0,-1,0,-1,-1,-1,-3,0
1517206021955239,-1,-1,-2,-2,0,0,-1,-1
1517206021955239,-1,-1,-3,-1,-1,2,-1,-1
1517206021968267,0,0,-4,-1,-1,-2,0,-1
1517206021968267,-2,-2,0,-2,-2,-2,-1,0
1517206021970269,-2,0,-2,-1,-1,-1,-1,-2
1517206021970269,-1,-1,-2,0,0,0,-3,0
1517206021982257,-1,-1,0,-2,-1,-1,-1,-1
1517206021982257,-1,-1,-1,0,-1,0,0,0
1517206021991280,-1,0,-2,-2,-1,0,1,-1
1517206021991280,-2,-2,-1,-1,-1,-1,0,-2
1517206022005788,-1,-1,-1,-2,-1,-1,-1,-1
1517206022005788,1,0,-1,-1,-2,-1,-1,-2
1517206022007777,0,-2,0,-1,-1,-2,-2,-2
1517206022007777,-1,-1,-1,-2,-1,0,0,-1
1517206022028790,-1,-1,-1,-1,-1,-2,0,0
1517206022028790,0,0,0,-2,-1,-1,-1,-2
1517206022029804,-2,0,0,-1,0,-1,-1,-1
1517206022029804,-2,0,-1,0,0,-2,0,-2
1517206022050806,-2,-1,-1,1,-2,-1,-1,0
1517206022050806,-2,-1,-3,-1,-1,0,1,-1
1517206022052319,-2,1,-1,0,-1,-1,-1,-2
1517206022052319,0,-1,-2,-2,-2,0,0,-2
1517206022066323,0,0,-2,0,0,2,-2,-2
1517206022066323,-1,-1,0,0,-2,0,1,0
1517206022071824,-1,-1,-2,-1,-1,-1,-1,-2
1517206022071824,-1,-1,-1,0,-2,-2,-2,0
1517206022088333,-1,-2,-3,0,-1,1,-1,0
1517206022088333,-1,-1,0,-1,-1,-1,-1,-1
1517206022090334,-2,-3,-3,-2,-1,0,-1,-1
1517206022090334,0,-2,-1,-1,0,0,-2,-1
1517206022111351,-1,-2,0,-1,0,-1,0,-1
1517206022111351,-2,-2,-2,-1,-1,-3,-2,-1
1517206022112351,0,0,0,-2,-2,-1,0,0
1517206022112351,-1,-1,-1,-2,-1,-1,-2,0
1517206022125859,-1,-2,1,0,-1,-1,-2,0
1517206022125859,-1,0,-1,-1,-1,-1,1,-1
1517206022127363,-1,0,-1,-1,-2,-2,0,-1
1517206022127363,-1,-2,0,-1,-2,0,-1,-1
1517206022148376,-1,1,-2,0,0,-1,-1,-1
1517206022148376,1,-1,-2,-1,0,-1,-2,-1
1517206022149877,-1,-2,-3,-1,-1,-1,-1,-1
1517206022149877,-1,0,-3,0,-1,-1,-3,0
1517206022170912,0,0,-2,-1,-3,0,0,-2
1517206022170912,-1,-1,-1,-2,0,-1,0,0
1517206022172392,0,0,-1,-2,0,-1,-1,-1
1517206022172392,-2,-1,0,-2,-2,-1,0,-1
1517206022185903,-2,-1,-1,0,0,-2,-1,0
1517206022185903,-2,-3,-3,-1,-1,-1,-1,-2
1517206022187403,-1,-1,-2,-2,0,-2,-1,-2
1517206022187403,0,1,-2,1,-1,-1,0,-1
1517206022208920,0,1,-1,-2,-2,0,-1,-1
1517206022208920,-1,-1,0,-2,0,-1,-2,-2
1517206022209920,-1,-3,-2,1,-1,-2,-2,-2
1517206022209920,-3,-1,0,-1,0,0,-1,0
1517206022230934,-1,-2,0,-3,-2,-3,1,-1
1517206022230934,-1,-1,-2,-2,-2,-2,0,-2
1517206022232444,-2,-2,-1,-1,0,-1,-2,0
1517206022232444,-1,0,-2,-3,0,-1,-1,-2
1517206022245443,-2,-1,0,0,-1,-1,1,0
1517206022245443,0,1,-1,0,-2,0,-1,-1
1517206022251987,-1,-1,1,0,-1,0,-1,-1
1517206022251987,-1,-2,-1,-2,0,-3,0,-1
1517206022268472,-2,-2,-3,-2,-2,-2,-2,0
1517206022268472,-1,-1,-3,-1,0,1,-2,0
1517206022269965,0,-2,-1,-1,-3,0,0,-1
1517206022269965,-1,-2,-2,0,0,1,-1,-1
1517206022290979,-1,0,-2,0,-1,1,-2,-2
1517206022290979,-2,-1,-1,-1,-1,-2,-1,1
1517206022292481,-1,-1,-1,-1,0,0,-2,0
1517206022292481,-2,-3,1,-1,-2,-1,-1,-1
1517206022305489,1,-1,-1,-3,-1,-3,-1,-1
1517206022305489,-1,-2,-1,0,-2,-1,0,-1
1517206022312496,-1,0,-1,-1,0,-3,1,-1
1517206022312496,-1,1,-3,-1,-1,-3,-2,-1
1517206022328502,-1,-2,-1,-1,0,-1,0,-3
1517206022328502,-4,-2,0,-1,-3,0,-1,-2
1517206022330003,0,-2,-2,-1,-3,-4,0,-2
1517206022330003,-1,-2,-2,0,-3,-1,-1,-2
1517206022351068,-1,-2,-2,-1,-2,-1,0,0
1517206022351068,1,-2,-2,-2,-1,-2,-1,-1
1517206022352569,-1,-2,-2,0,0,1,-2,0
1517206022352569,-1,-2,1,-1,0,-2,0,-2
1517206022365566,-1,-2,-2,1,-2,-1,-3,0
1517206022365566,-1,0,-2,0,0,0,0,-1
1517206022372092,-1,0,-2,0,-1,0,-3,0
1517206022372092,-2,0,-1,-2,0,-1,-1,-1
1517206022388611,-1,-2,0,-1,-1,1,-2,-1
1517206022388611,-1,-1,0,-2,-2,-1,-1,1
1517206022390111,0,-1,0,-1,-1,0,-2,-2
1517206022390111,0,0,-2,-1,-1,0,-2,0
1517206022411112,-2,0,-3,-2,-2,-2,0,-1
1517206022411112,0,0,0,-2,-2,-1,-2,1
1517206022412599,-1,-3,0,-2,-2,0,0,1
1517206022412599,0,-3,-2,0,-2,0,1,-2
1517206022425607,-1,0,-2,-3,0,0,-2,-2
1517206022425607,-1,0,-2,0,1,-1,-1,-1
1517206022432114,-2,0,-2,-1,-1,1,-1,-3
1517206022432114,0,0,0,0,0,-1,0,0
1517206022448635,-1,-1,1,-2,0,0,-1,-1
1517206022448635,-1,-1,-1,0,0,-2,-1,-1
1517206022450124,-1,-1,-1,0,-1,-2,0,1
1517206022450124,-1,-2,-3,0,-3,1,-2,-1
1517206022471149,-1,-2,0,-1,0,0,-1,0
1517206022471149,-1,-2,-2,-3,-1,-2,-1,-2
1517206022472665,0,-1,-1,-3,1,-2,0,-1
1517206022472665,-1,0,0,0,-1,-3,-1,-2
1517206022485163,-1,-1,-1,-1,-2,-2,-3,-1
1517206022485163,-2,0,0,-1,-2,0,1,1
1517206022492157,-2,1,-1,-1,0,-1,-3,0
1517206022492157,0,-1,-2,1,-2,0,1,-1
1517206022508667,-2,-1,-1,0,0,-1,-2,-2
1517206022508667,-1,-1,-1,-2,1,-1,-1,-2
1517206022510167,0,-2,-1,-1,-2,-1,-2,-3
1517206022510167,-2,0,0,-1,-2,-3,-1,1
1517206022531182,-1,0,-1,0,-1,-1,-2,-1
1517206022531182,-1,-1,-1,1,-1,-1,-1,-2
1517206022532683,0,2,-1,-1,-1,-1,-3,-1
1517206022532683,0,-1,-2,-1,-2,-2,-1,-1
1517206022544693,1,-1,-1,-1,-2,-1,0,1
1517206022544693,-2,-2,-3,-2,-1,-3,-2,-1
1517206022553740,-2,-3,0,-3,0,-1,1,0
1517206022553740,-1,-2,-1,-2,0,-2,-1,-1
1517206022568212,-1,-2,0,0,-1,-2,1,-1
1517206022568212,-2,-1,0,0,-1,-1,-1,-1
1517206022570249,0,-1,-1,-1,-1,0,-1,0
1517206022570249,1,0,-2,-1,0,0,-2,-1
1517206022591238,-3,0,-2,0,-1,-1,-1,0
1517206022591238,1,-2,-2,-1,-3,-1,-2,1
1517206022592729,-1,-2,-1,-2,-3,-2,-1,-1
1517206022592729,-1,-2,-1,-1,2,-1,-1,0
1517206022604791,0,-1,-1,-1,-1,-1,1,-3
1517206022604791,-1,1,1,-1,-1,-1,0,1
1517206022613741,-1,0,-1,0,-2,-2,0,-1
1517206022613741,-2,-1,-2,-2,-3,-1,0,-1
1517206022628252,0,-1,0,0,0,-1,-1,-1
1517206022628252,-3,-1,-2,-2,-1,-1,-2,0
1517206022630252,-2,-1,-2,1,-2,-1,-1,-1
1517206022630252,-2,-1,1,1,-1,-1,-1,1
1517206022650767,-1,-2,-2,-1,0,-1,-2,-2
1517206022650767,0,-1,-2,-2,-1,-1,-1,-2
1517206022652768,0,-1,-1,0,0,0,-1,-2
1517206022652768,-1,-1,-2,0,-1,-1,0,-1
1517206022664776,-1,-1,-2,-2,-3,0,-1,1
1517206022664776,0,-1,-1,-2,0,-1,0,-1
1517206022673789,-1,-1,0,-1,-2,-2,0,-1
1517206022673789,1,-1,0,-1,-3,-2,-2,-2
1517206022688315,-1,0,-1,-2,0,0,0,-3
1517206022688315,-1,0,-1,0,-1,-1,0,-2
1517206022690304,0,-1,-2,-2,-1,-1,0,1
1517206022690304,-1,-1,1,0,0,-1,-1,-3
1517206022710810,-2,0,0,-2,-2,0,-1,0
1517206022710810,-2,-2,0,-1,-1,-1,-1,0
1517206022712310,-3,-1,-2,-1,0,0,-1,-1
1517206022712310,0,-2,-1,-1,0,-1,-1,0
1517206022724820,-1,0,-1,-2,-2,-2,0,-2
1517206022724820,0,-1,-2,-2,-1,1,-1,-1
1517206022733835,0,0,-2,0,-2,-1,-2,-1
1517206022733835,-3,-2,-2,-1,-1,0,-1,0
1517206022748335,-1,-1,-1,0,1,-1,0,-1
1517206022748335,0,-2,0,1,-2,-1,1,-2
1517206022749836,-1,-1,-2,-3,-1,-1,-1,-1
1517206022749836,0,1,-2,-2,-1,0,-2,-1
1517206022770873,-2,-1,-1,0,-1,-1,-1,0
1517206022770873,0,-2,-1,-3,0,0,-1,-1
1517206022772372,-1,-1,-1,-1,-1,0,-1,-1
1517206022772372,-1,-1,-1,-2,-3,-1,1,-3
1517206022784361,-2,0,-2,-3,-1,-1,-1,-1
1517206022784361,-1,-2,-3,-1,-1,-2,-1,-1
1517206022793370,-1,-3,0,1,-1,-1,-1,-2
1517206022793370,-1,-1,-3,-2,-1,-2,-2,0
1517206022808378,0,-1,-2,-3,-1,-1,-2,0
1517206022808378,-2,1,0,-3,-3,1,-1,0
1517206022809880,0,0,-3,-1,0,-2,-2,0
1517206022809880,0,0,-1,-1,-1,0,0,-1
1517206022830912,-1,-2,-1,-2,-2,-2,2,-2
1517206022830912,-1,-3,-1,0,0,-2,-2,-2
1517206022832405,-4,0,1,-2,-1,-1,-2,-1
1517206022832405,-1,-2,0,-2,0,-3,-1,0
1517206022844905,-3,0,0,0,-1,-2,0,-2
1517206022844905,0,-1,0,0,-1,-3,-1,-3
1517206022853410,-2,-2,-1,-1,0,-3,-2,-3
1517206022853410,-4,-2,-4,-1,-1,1,-1,-1
1517206022868443,1,-1,-1,0,-2,-1,-3,-1
1517206022868443,0,-1,-1,-1,-1,0,-2,-1
1517206022869927,0,-1,0,1,-1,0,1,1
1517206022869927,0,-2,0,0,-1,-1,-1,-2
1517206022890959,-1,-1,-2,-2,-3,1,-1,-1
1517206022890959,-1,-1,-2,0,-1,-1,0,-1
1517206022892437,0,-1,0,-2,-2,-1,0,-2
1517206022892437,-1,0,0,0,-1,-2,0,0
1517206022904448,-1,-2,0,2,1,-3,0,0
1517206022904448,-1,-2,0,-2,-1,-1,-1,-1
1517206022913452,-2,-1,-1,-2,-1,0,-2,-2
1517206022913452,-1,-1,0,-1,-2,-1,-1,-1
1517206022928464,-1,0,-1,-1,-1,0,-1,0
1517206022928464,-2,0,-1,-2,-1,-2,-1,-1
1517206022929979,-2,-1,-1,-1,0,-1,0,0
1517206022929979,-2,1,-1,0,-4,0,-2,-1
1517206022950978,-1,-1,-2,0,0,0,-1,0
1517206022950978,-1,-2,-1,0,-1,-2,1,-1
1517206022952501,-3,-1,-2,0,-2,-1,0,-1
1517206022952501,0,-1,-1,0,0,-1,-1,0
1517206022964490,0,-1,-3,-1,-3,-2,0,-2
1517206022964490,-1,-1,0,-2,-2,1,0,-1
1517206022973496,1,-1,0,-1,-1,0,-1,0
1517206022973496,-1,0,-2,-2,1,0,-1,0
1517206022987527,-1,0,-1,-1,-1,-3,-1,-2
1517206022987527,-1,-1,-3,-1,-1,0,-3,-2
1517206022994510,-2,-1,-2,0,0,-1,0,0
1517206022994510,-1,-2,0,0,0,-2,-1,-1
1517206023011023,-1,-1,-1,-2,-2,0,0,-1
1517206023011023,-3,-1,-1,0,-2,-1,1,-2
1517206023012533,0,2,-2,-1,0,0,-1,-1
1517206023012533,-1,-1,-2,-1,1,-1,0,-2
1517206023033558,-2,-1,-1,0,1,1,-1,-1
1517206023033558,0,-2,0,0,-2,-1,-1,0
1517206023035038,0,-1,-1,0,-2,-1,-1,-3
1517206023035038,-1,-1,-1,-1,-2,-1,0,-2
1517206023048548,-1,0,0,-1,-1,0,0,0
1517206023048548,-2,0,0,-1,1,-2,0,0
1517206023050049,0,0,-2,-1,0,-2,-1,0
1517206023050049,-1,-1,-2,-1,-2,-2,-1,0
1517206023071085,0,0,0,-1,-1,-2,-3,-1
1517206023071085,0,0,-2,0,1,-1,-1,0
1517206023072588,-1,-2,-1,-1,-3,0,-1,0
1517206023072588,-1,0,-2,-1,-1,-1,-1,-2
1517206023093579,0,-4,1,-1,0,-3,-2,-1
1517206023093579,-1,-2,-2,-1,-2,-1,-3,-2
1517206023095081,-2,-2,-1,-2,-1,-1,-2,-1
1517206023095081,1,-1,-1,-1,-2,-1,-2,-2
1517206023108601,-3,-3,-1,-1,-2,0,0,0
1517206023108601,-1,-1,-2,0,0,-1,-1,-1
1517206023110092,-2,-1,0,-2,-1,0,-2,0
1517206023110092,-1,-2,-1,-1,-1,-1,-1,1
1517206023131124,-1,0,-2,-3,0,-3,0,0
1517206023131124,-3,-2,-2,-1,0,-1,-2,0
1517206023132625,-1,-2,-1,0,-1,0,-1,-2
1517206023132625,0,-3,-1,-1,-1,1,-1,-1
1517206023153638,0,-1,-1,0,-2,-2,-1,-2
1517206023153638,0,0,-2,-2,-2,-1,-1,-1
1517206023155139,-2,-2,-1,-1,0,-3,-1,-2
1517206023155139,-2,0,0,-3,-3,-1,0,-1
1517206023167632,-1,-2,0,-1,-3,-1,-1,-2
1517206023167632,-2,0,1,-3,-2,0,0,-2
1517206023174637,1,-1,-1,-1,0,-1,-2,0
1517206023174637,-2,0,0,-1,-1,-1,-2,-2
1517206023191148,-3,-2,-2,-1,-3,0,-1,-2
1517206023191148,-1,-1,-2,1,-1,-1,-1,-1
1517206023193150,0,-1,-1,-2,-1,-1,-2,-1
1517206023193150,-2,-1,0,-1,0,0,-3,-2
1517206023213665,1,-1,-1,0,-1,1,-3,0
1517206023213665,-2,-2,-3,-1,-2,-2,-2,0
1517206023215182,-2,-2,-1,-1,-2,-2,1,-1
1517206023215182,0,-1,-2,0,1,-1,-1,-1
1517206023227718,0,-1,-2,-2,-2,-2,-1,-2
1517206023227718,0,-2,0,-2,0,-1,0,0
1517206023234739,0,-1,-1,-1,-2,-2,-1,0
1517206023234739,-1,-3,-2,-1,-3,-1,-1,-3
1517206023250750,-1,-1,-1,-1,-2,-1,-3,-2
1517206023250750,-1,0,-2,-1,-2,0,1,0
1517206023252748,-2,-1,-1,-1,-2,-1,-1,-1
1517206023252748,-2,-1,0,0,-1,-1,-1,0
1517206023273296,-2,-1,-1,-2,-1,0,-1,1
1517206023273296,-2,-1,-1,-1,-3,-1,0,-1
1517206023275294,0,-2,-1,-1,-1,-1,0,-1
1517206023275294,0,0,-1,-1,-2,-2,0,-2
1517206023287806,-2,0,-1,-2,-1,-1,1,-2
1517206023287806,-1,-1,0,-1,0,-1,1,-1
1517206023294810,-1,-1,-1,-1,-2,0,-1,0
1517206023294810,-1,-2,-3,0,-1,0,-1,-2
1517206023311374,0,-2,0,0,-1,0,0,-1
1517206023311374,0,0,-1,-2,-2,-1,-1,-1
1517206023312379,-2,-2,-2,0,-1,-1,-1,-2
1517206023312379,-2,1,0,-2,-1,-1,-1,0
1517206023332459,-2,0,-1,-1,-3,-5,-1,-2
1517206023332459,-1,-2,0,-1,0,0,-1,0
1517206023341020,0,-1,0,-1,-2,-1,-2,-1
1517206023341020,1,-1,-1,-2,-2,-2,-1,0
1517206023347524,-2,-2,0,-1,-1,-2,0,1
1517206023347524,-1,-1,-1,-1,-2,-1,-2,-1
1517206023354529,-2,0,-1,-2,-2,1,0,-2
1517206023354529,-1,-1,-2,-2,0,-1,-1,-1
1517206023371086,1,0,-1,-1,-1,-1,-2,-2
1517206023371086,-2,-1,-1,-1,-1,-3,-2,-1
1517206023372572,-1,-2,-2,-1,-1,0,-2,-1
1517206023372572,-2,-2,0,-1,-1,-1,0,1
1517206023393614,0,-2,-1,0,1,0,-1,0
1517206023393614,-2,-1,1,-1,-1,-2,-1,-2
1517206023395114,-1,-1,-1,0,0,0,-1,1
1517206023395114,0,-1,-2,-1,-1,-1,-1,-2
1517206023407621,0,-1,0,-1,0,-1,0,1
1517206023407621,0,-1,0,0,-2,-2,-1,-1
1517206023414627,-1,-1,-2,2,-1,-2,-2,-2
1517206023414627,-2,-1,-2,-1,-2,-2,-1,-1
1517206023431156,-2,-1,-2,0,0,-1,-1,-2
1517206023431156,-1,-2,-1,0,0,1,-1,0
1517206023432640,0,0,0,-1,-1,-2,-1,-2
1517206023432640,-1,-1,0,-2,0,-3,-1,0
1517206023453663,-1,-1,-2,-1,-1,-1,0,-1
1517206023453663,-2,-1,-2,-2,-2,-2,0,-2
1517206023455165,-1,-1,-1,0,-2,-1,0,1
1517206023455165,-1,-2,-2,-1,-2,1,-1,1
1517206023467667,-1,-1,0,-1,-1,-1,-1,-1
1517206023467667,-2,-4,-2,-1,-2,0,-2,-2
1517206023474670,2,-1,-2,-1,1,-3,0,-1
1517206023474670,0,1,-2,-3,-1,0,-2,0
1517206023490829,-4,2,-3,0,-3,0,-1,-1
1517206023490829,-3,-3,-1,-1,0,0,-2,-3
1517206023492842,0,-1,0,-2,-1,-1,-3,0
1517206023492842,1,-3,0,-1,-1,-1,0,-1
1517206023513349,2,0,-2,-3,-1,-2,-1,0
1517206023513349,3,4,-1,-1,-2,-2,-2,-1
1517206023514846,-2,0,-2,-2,-2,1,0,-1
1517206023514846,-8,-2,-1,0,-1,-1,-1,-3
1517206023527358,-1,-3,1,-1,-2,-1,0,0
1517206023527358,-1,1,-2,-1,-1,-1,0,-1
1517206023535862,1,-1,0,-2,-1,0,0,-2
1517206023535862,-1,-1,-3,-1,0,-1,0,0
1517206023550873,-1,-2,-1,-1,-2,-1,-1,-2
1517206023550873,1,1,1,-3,-1,0,-2,-1
1517206023552374,0,1,0,-1,-2,-3,0,-1
1517206023552374,-1,0,0,-3,-3,-2,-1,-2
1517206023573418,0,-4,-2,1,0,0,1,0
1517206023573418,-1,0,0,-1,-1,-1,0,-1
1517206023574890,-3,-3,-1,-2,1,-1,-1,-1
1517206023574890,1,0,1,0,0,0,0,1
1517206023586909,3,2,0,-2,0,-2,0,0
1517206023586909,-1,-2,-3,-1,-2,-1,-2,-2
1517206023595905,2,-1,-1,0,-3,0,-1,1
1517206023595905,-14,-3,-3,-1,-1,-1,-3,-1
1517206023610918,1,1,0,-2,0,0,-2,0
1517206023610918,-1,-1,-1,0,0,-1,-1,1
1517206023612416,-2,-1,-2,-4,1,0,-2,-3
1517206023612416,4,1,-1,-1,0,0,1,-1
1517206023633440,-4,-1,-2,0,-3,0,-1,-2
1517206023633440,-2,-1,-2,-2,-1,-2,-2,0
1517206023634931,1,-1,0,0,-2,-1,1,-1
1517206023634931,1,-1,-2,-2,-2,-1,-1,-1
1517206023655962,-2,-5,-3,-4,0,-2,0,0
1517206023655962,2,-1,1,2,-1,-1,-2,-1
1517206023657486,0,0,0,1,1,-1,1,0
1517206023657486,1,1,-2,-1,-1,-2,0,-1
1517206023670971,-6,-5,3,-1,-1,-3,0,-2
1517206023670971,-2,-2,-1,-2,0,-2,-1,1
1517206023672457,-2,-2,-1,-1,-1,1,-1,-1
1517206023672457,0,0,-2,0,-2,0,-1,-1
1517206023693473,3,3,-1,0,-1,-1,-1,-1
1517206023693473,-5,1,0,-1,0,0,-1,0
1517206023694975,-9,-1,-1,0,-1,-1,-2,-4
1517206023694975,-2,-4,-3,-2,-2,-1,1,1
1517206023706982,-2,-2,-2,-3,-1,1,-1,-1
1517206023706982,0,-1,-2,-2,0,0,-2,0
1517206023716001,1,1,-2,0,-1,-2,0,0
1517206023716001,-1,-1,1,0,0,-3,-2,-2
1517206023731000,0,-2,0,0,-1,-2,-3,0
1517206023731000,3,2,-2,-2,-1,0,2,0
1517206023732500,-11,-7,0,2,-3,-2,-2,-4
1517206023732500,-2,-1,3,5,-1,0,-1,-2
1517206023753541,0,-3,-9,-13,-1,1,-2,0
1517206023753541,-1,-3,-2,-1,-1,0,-1,-3
1517206023755029,4,1,-4,-2,-1,-2,-2,-1
1517206023755029,-2,-2,-4,-3,-1,-1,0,-1
1517206023767027,-3,-1,1,3,-2,-1,-2,0
1517206023767027,-1,-1,1,-1,-2,-3,1,2
1517206023776031,-1,-4,-4,-2,1,1,-2,-1
1517206023776031,1,0,7,2,1,1,1,0
1517206023791063,-4,-2,-1,-1,1,-1,-2,-2
1517206023791063,-4,5,-5,-5,-2,-3,-1,-2
1517206023792545,6,-4,-1,0,-2,-2,1,-2
1517206023792545,3,-1,-4,-3,-2,-1,-2,-1
1517206023813567,-7,-4,-2,-1,-1,-2,-1,-2
1517206023813567,0,-3,0,-1,0,-1,-1,-1
1517206023815087,-2,5,2,0,0,0,-1,2
1517206023815087,-4,0,-9,-6,-3,-4,-3,-1
1517206023827067,3,1,-3,-1,-1,0,-1,-2
1517206023827067,-3,0,11,8,1,-1,-1,-2
1517206023836073,-5,-7,-2,-4,-3,0,-2,-1
1517206023836073,6,0,2,1,0,-1,1,-3
1517206023851123,1,0,-2,0,-3,-2,1,1
1517206023851123,1,0,-10,-3,-1,-2,-1,-1
1517206023852626,-4,-1,2,4,-2,-2,-1,-1
1517206023852626,-4,-1,-1,1,0,0,-2,-2
1517206023873661,-3,4,0,-6,-1,1,1,-1
1517206023873661,8,-8,0,-2,-3,-1,-1,-2
1517206023875151,-1,3,-4,-6,-3,-2,-1,2
1517206023875151,2,1,-3,0,0,0,0,0
1517206023887178,3,2,4,3,0,1,0,-2
1517206023887178,-4,-3,-2,-2,-2,0,0,1
1517206023896186,2,0,-2,-1,-1,-1,-2,-2
1517206023896186,-4,-1,-1,-4,-1,-1,-4,-2
1517206023911196,6,1,1,4,1,0,0,2
1517206023911196,0,6,-1,-1,-1,0,-2,-1
1517206023912697,-3,1,-3,3,-3,-2,-2,-4
1517206023912697,0,-6,2,-2,1,-2,0,-3
1517206023933738,-11,-2,0,-2,-2,0,0,11
1517206023933738,-9,-16,-7,-2,0,-1,-2,-13
1517206023935734,5,-2,1,1,-4,-2,-3,-4
1517206023935734,-3,-4,-6,-11,-5,-2,-2,-1
1517206023955728,3,7,1,7,6,-2,-1,-5
1517206023955728,-1,-2,1,2,0,2,3,11
1517206023957728,-7,-1,-3,-3,1,0,-2,-1
1517206023957728,0,0,1,1,-2,1,-1,-2
1517206023970741,0,-3,-2,-4,-3,-1,-1,-4
1517206023970741,1,6,1,1,1,-2,-1,1
1517206023972742,-3,5,0,-1,3,0,3,-1
1517206023972742,7,0,2,0,-1,-2,0,1
1517206023993255,1,5,1,1,-1,0,2,2
1517206023993255,0,-16,-9,-5,-3,-2,-4,0
1517206023994755,-7,-13,0,-1,-2,0,-3,-12
1517206023994755,8,10,-1,-1,2,0,0,3
1517206024015773,-30,-12,-3,-2,-4,-2,-4,-10
1517206024015773,6,10,-1,1,0,0,0,0
1517206024017770,4,0,4,-8,0,-1,0,6
1517206024017770,-4,-2,-1,9,-1,0,-1,-1
1517206024030781,1,8,-2,-16,-2,-1,1,-6
1517206024030781,4,-15,-6,-2,-3,-2,3,7
1517206024032794,-5,-2,1,1,-2,0,-10,-9
1517206024032794,8,6,-3,2,2,-1,-1,2
1517206024053307,-2,-2,1,5,-2,-1,-1,1
1517206024053307,2,2,4,-5,1,0,2,8
1517206024054798,11,-6,0,3,4,1,1,-7
1517206024054798,-11,-4,-1,-4,-3,-2,-4,-5
1517206024075812,11,18,-2,-1,-1,-2,-5,0
1517206024075812,-6,-3,3,-1,-1,-2,-1,-4
1517206024077313,-3,-7,-3,2,-4,-1,1,7
1517206024077313,-8,-11,-5,-7,-2,-2,0,-1
1517206024090337,4,1,3,1,1,-2,-7,-1
1517206024090337,3,9,-4,-2,-5,-3,-4,-5
1517206024096913,-5,1,5,3,1,-1,3,-2
1517206024096913,3,4,-1,-6,-5,-3,-7,-8
1517206024113421,9,-13,-2,2,0,2,3,5
1517206024113421,-5,-4,9,3,-1,0,-4,-9
1517206024114919,3,1,-15,-6,-2,0,1,8
1517206024114919,-4,-4,3,0,0,2,0,25
1517206024135958,4,-5,0,-1,-2,-1,12,-17
1517206024135958,-1,7,-4,-3,-3,-4,-6,-2
1517206024138452,2,-2,-3,6,4,1,2,7
1517206024138452,0,6,15,-1,-2,0,3,-13
1517206024149945,1,-10,-5,0,0,-1,-6,6
1517206024149945,-4,3,3,-4,-2,-1,0,-2
1517206024156950,0,4,-2,-4,-2,-2,-3,-2
1517206024156950,-3,-4,-5,-3,-1,1,5,6
1517206024173482,-7,-5,1,-1,-1,-5,-8,-5
1517206024173482,-6,-3,-4,-2,-1,1,5,0
1517206024174972,-1,4,-3,-5,-2,-1,-3,1
1517206024174972,-5,-4,0,9,1,0,-2,-1
1517206024202982,24,3,-1,-10,-3,0,1,6
1517206024202982,-5,2,0,0,1,-1,-3,-3
1517206024211001,-2,-4,-11,-1,-1,0,0,-3
1517206024211001,3,-2,-8,2,0,2,10,31
1517206024211492,-10,-2,2,3,-1,-4,-17,-43
1517206024211492,2,-7,0,-1,-1,-1,-1,7
1517206024216992,-3,3,7,-1,3,1,-1,2
1517206024216992,-2,-1,-16,-4,-3,-4,5,-4
1517206024233516,-7,0,7,2,-1,3,10,14
1517206024233516,-3,11,-3,-4,-3,-4,0,-9
1517206024235020,0,9,10,5,-4,-3,-7,0
1517206024235020,-4,-27,-9,-10,-3,-3,-12,-8
1517206024256044,-2,2,-15,-1,1,0,5,6
1517206024256044,-10,-12,0,22,2,0,0,-14
1517206024257548,11,25,-1,-21,-3,-3,6,15
1517206024257548,-1,0,-5,-10,1,0,-6,-17
1517206024270539,-6,6,12,-3,-1,2,7,26
1517206024270539,-8,-1,3,12,0,-2,-8,-23
1517206024277034,-18,-39,-5,-13,1,-1,-1,-3
1517206024277034,9,19,19,24,5,4,1,-2
1517206024293570,3,5,-1,-38,-10,-6,-7,5
1517206024293570,1,4,-7,10,4,4,5,15
1517206024295050,11,27,4,-8,-2,1,9,8
1517206024295050,-17,-25,-6,3,-1,-2,-8,-28
1517206024316062,6,-17,-18,9,-1,-1,-3,-3
1517206024316062,5,13,11,0,1,2,22,23
1517206024317575,-3,-11,4,-1,-4,-4,-27,-6
1517206024317575,-2,3,-11,-11,-2,-4,8,-4
1517206024330073,-7,2,26,20,3,0,-6,-8
1517206024330073,13,5,-16,-2,-2,-1,-1,-5
1517206024337092,18,-8,3,-11,-4,-3,25,57
1517206024337092,16,-3,19,11,-1,-3,-17,-29
1517206024353109,-23,-13,-34,-4,1,0,4,-6
1517206024353109,18,18,-10,-30,-6,-5,-10,-8
1517206024355105,1,-16,-17,29,5,4,10,-13
1517206024355105,29,-6,-14,-8,-3,-4,-20,4
1517206024376104,0,-4,22,12,7,3,13,1
1517206024376104,-25,-47,-25,-10,-4,-1,4,10
1517206024377607,4,8,39,16,6,1,-21,-40
1517206024377607,-16,5,-50,-22,-9,-5,7,2
1517206024390118,10,13,18,23,3,0,-19,-4
1517206024390118,-20,-51,-44,-17,-2,-3,-2,12
1517206024397119,3,23,28,-4,-5,-2,9,0
1517206024397119,2,-13,21,2,-4,-4,14,10
1517206024413632,-1,11,-14,18,6,2,-14,-15
1517206024413632,15,9,21,-14,-8,-5,-1,7
1517206024415140,-28,1,-10,-16,2,2,-1,-15
1517206024415140,-11,13,14,-3,0,-3,-21,-24
1517206024436157,16,3,7,21,1,0,12,26
1517206024436157,2,-15,-9,-20,-3,-2,-21,-35
1517206024438649,-3,-15,-42,27,2,1,4,4
1517206024438649,10,16,23,3,-2,-2,2,1
1517206024449656,-23,1,-4,-5,-3,-4,-7,-14
1517206024449656,19,41,-11,-7,0,1,4,39
1517206024458664,-14,0,81,21,0,-4,3,6
1517206024458664,7,-43,-77,-16,-2,4,7,-9
1517206024473196,11,44,21,3,1,-3,-18,2
1517206024473196,-25,-14,4,3,-3,0,4,55
1517206024474674,-20,2,-34,-14,-6,0,-22,-59
1517206024474674,-8,14,75,29,12,4,-11,21
1517206024496189,-23,-13,4,-23,-9,-4,19,-3
1517206024496189,-1,-17,-34,1,-3,-1,-3,-25
1517206024497691,-19,-76,-82,2,-5,-9,-8,8
1517206024497691,6,58,38,-34,-8,-3,3,1
1517206024509702,-5,-26,-36,16,4,8,30,56
1517206024509702,-32,-15,-14,4,1,-5,-29,-48
1517206024518728,53,39,0,-13,-2,2,16,21
1517206024518728,-23,-32,-12,-7,-4,-4,0,-37
1517206024533230,-5,37,7,-2,-3,-5,-1,5
1517206024533230,10,39,-23,-21,-12,-9,1,14
1517206024535220,-2,39,19,6,5,-1,-32,-27
1517206024535220,-1,-72,-76,-5,-3,-1,3,4
1517206024555799,-13,-3,19,-3,3,2,11,15
1517206024555799,-9,-28,76,16,6,4,10,3
1517206024557302,-9,-45,-16,-19,-10,-5,12,59
1517206024557302,39,14,-13,14,0,-6,-13,-40
1517206024569811,-47,-25,17,-9,-8,-5,6,1
1517206024569811,40,-34,-37,9,6,4,-13,-79
1517206024578320,-19,10,-15,-5,3,2,8,23
1517206024578320,0,30,46,43,10,4,5,-6
1517206024593328,14,-10,-52,-36,-14,-5,0,-30
1517206024593328,-22,-3,25,-2,0,-4,7,20
1517206024594829,-2,5,5,-8,-2,3,-4,-30
1517206024594829,19,11,7,7,5,1,3,58
1517206024615844,-12,-13,-56,-21,-9,-6,-17,-63
1517206024615844,37,32,34,21,7,3,8,19
1517206024617345,-3,-18,-21,28,2,1,4,1
1517206024617345,-7,2,-6,-26,-5,-1,12,1
1517206024629855,33,-17,28,9,1,-5,-30,-4
1517206024629855,-2,-10,-28,-15,-4,-3,-1,7
1517206024639360,12,5,84,11,-1,-5,-7,-13
1517206024639360,-25,2,-24,7,5,4,12,1
1517206024653370,23,-3,27,-2,-8,-2,14,70
1517206024653370,-18,84,28,-15,-1,0,-22,-73
1517206024654872,14,2,13,2,3,-4,-15,-27
1517206024654872,-7,-16,-53,-26,-15,-9,3,35
1517206024676389,-10,-39,21,17,9,5,11,20
1517206024676389,-4,10,31,3,-1,-4,4,10
1517206024681901,-37,-31,-43,2,-4,-1,12,0
1517206024681901,-14,-18,1,-11,-4,1,-5,-44
1517206024689418,42,25,42,6,4,1,-11,-15
1517206024689418,-18,11,-9,-19,-8,-3,1,18
1517206024698403,0,27,5,-12,-3,-1,4,-20
1517206024698403,-20,-9,-37,5,1,-1,8,43
1517206024713433,-17,-3,-36,4,1,-4,-16,-32
1517206024713433,-3,5,0,33,7,-1,-6,-17
1517206024714917,16,51,50,-41,-2,4,18,68
1517206024714917,-6,-32,3,8,1,0,-12,-33
1517206024737432,7,-6,14,-11,-6,-2,5,-1
1517206024737432,-18,8,21,13,5,2,6,38
1517206024739953,7,-38,-67,-2,-6,-1,-5,-32
1517206024739953,-36,-3,48,-16,-5,-6,-7,18
1517206024749452,9,17,-41,-25,-1,-2,-13,-15
1517206024749452,16,-8,-8,18,2,4,14,12
1517206024764451,1,-34,-37,-12,-7,-9,-9,7
1517206024764451,14,-19,37,18,5,3,20,56
1517206024773477,-38,-28,-84,-25,-13,-7,-9,-1
1517206024773477,9,-25,29,7,4,3,-4,-13
1517206024774959,4,14,-18,1,4,1,19,61
1517206024774959,14,12,10,28,13,12,-14,-78
1517206024795973,-2,-49,44,-8,3,1,10,11
1517206024795973,-14,21,-30,-17,-7,1,-10,-22
1517206024797474,14,-7,-2,19,-7,-6,-5,-15
1517206024797474,5,49,2,-11,0,-4,9,11
1517206024818488,15,-25,-3,8,-3,-1,-5,4
1517206024818488,7,-5,3,-13,-7,-5,-5,-26
1517206024819988,-9,43,16,18,3,1,4,3
1517206024819988,20,-22,-30,-13,-5,-1,-2,63
1517206024833537,-26,28,-13,17,-2,-2,-15,-61
1517206024833537,-28,-24,-45,-30,-7,-3,6,13
1517206024835042,1,30,26,-7,-2,-5,-11,17
1517206024835042,23,-22,29,0,-1,-2,-1,22
1517206024856023,3,-8,9,20,10,5,5,18
1517206024856023,8,64,63,13,8,3,1,11
1517206024857525,-19,-17,22,-1,2,3,-13,-43
1517206024857525,4,-44,-45,9,5,7,27,16
1517206024878545,-12,35,12,8,-6,-6,-38,-37
1517206024878545,-18,-8,74,-17,-6,-2,4,3
1517206024880031,3,29,3,3,4,1,1,15
1517206024880031,-17,24,48,-16,-12,-7,-14,-48
1517206024893551,8,-51,-57,18,5,2,17,31
1517206024893551,11,-2,-68,4,0,0,-4,21
1517206024895041,3,9,-2,-1,2,2,-1,-49
1517206024895041,-23,54,54,4,-6,-9,-10,-2
1517206024916066,10,10,-29,-8,1,4,15,-3
1517206024916066,-28,-31,20,-10,-1,-3,-10,-29
1517206024917559,-9,20,-8,1,0,-4,0,-10
1517206024917559,-1,21,7,2,-4,2,-4,-9
1517206024938102,-39,-27,48,19,6,1,9,0
1517206024938102,67,18,-32,19,0,0,2,40
1517206024941077,-11,-7,35,-6,0,1,14,-18
1517206024941077,-6,-34,-41,10,-3,-9,-25,-9
1517206024953092,13,19,53,-48,-5,1,3,-10
1517206024953092,-3,-22,-73,9,-3,-3,7,34
1517206024955093,14,-39,0,2,-3,-3,-12,20
1517206024955093,35,-3,-1,-22,-7,-3,-4,0
1517206024976103,49,-8,18,17,2,-5,0,12
1517206024976103,-34,6,-31,3,1,-7,-11,-47
1517206024977601,47,-11,38,-33,-8,2,3,27
1517206024977601,-15,-6,-35,5,6,2,5,11
1517206024997615,15,25,-67,-15,-7,-5,-18,-9
1517206024997615,0,-47,26,-7,-4,-1,2,6
1517206025006162,-4,-10,-32,8,0,-4,-3,-10
1517206025006162,20,14,22,8,1,4,19,5
1517206025012639,-11,58,58,5,2,-1,0,8
1517206025012639,44,10,28,-40,-8,-4,2,6
1517206025019201,-7,-25,-128,1,0,2,-2,-4
1517206025019201,-2,62,81,7,3,0,-5,-31
1517206025043274,-26,-30,-86,-3,-14,-8,9,16
1517206025043274,-40,-46,-4,-1,2,0,-16,-72
1517206025044765,23,29,33,-36,-8,-4,1,34
1517206025044765,-17,44,15,-15,-2,0,2,-10
1517206025058297,2,17,30,32,8,5,-9,-3
1517206025058297,-40,-46,-47,-24,-12,-6,-6,-7
1517206025059776,-47,-23,-18,10,1,-1,7,3
1517206025059776,7,-7,-36,16,5,3,-25,-27
1517206025072872,8,22,43,-28,-3,-4,30,2
1517206025072872,13,34,6,16,4,0,7,44
1517206025079360,47,-3,24,27,4,1,-5,-29
1517206025079360,-28,40,70,-2,-2,0,1,43
1517206025095872,3,-92,-102,-35,-6,3,16,23
1517206025095872,37,45,76,24,7,2,-11,-8
1517206025097373,-22,32,11,5,-2,-5,3,-10
1517206025097373,-16,-97,-25,-24,-3,4,-14,-16
1517206025118409,23,25,52,3,-6,-8,-22,4
1517206025118409,8,-22,-4,17,10,6,10,8
1517206025119889,-13,37,41,42,7,0,12,77
1517206025119889,58,-14,-27,-42,-5,1,7,-2
1517206025132911,-28,35,108,-4,-3,-4,-36,-4
1517206025132911,14,47,52,6,-1,-1,-8,-81
1517206025139902,-15,-36,-22,0,-3,-1,-3,2
1517206025139902,14,21,17,35,9,2,12,18
1517206025155938,16,-32,-79,-39,-7,-4,0,0
1517206025155938,-22,-5,-4,21,-2,-6,9,33
1517206025157438,-1,-38,-59,-19,1,0,-29,-89
1517206025157438,-32,74,-22,-10,-11,-9,-4,-16
1517206025178931,0,-22,-12,6,4,6,-5,32
1517206025178931,-1,26,22,-13,-4,-1,4,30
1517206025180433,-6,-32,-29,-13,-5,-4,-13,-17
1517206025180433,-14,-12,-11,17,4,3,5,7
1517206025192940,-31,60,26,31,8,4,-4,-33
1517206025192940,4,-10,-8,-2,-7,-4,13,40
1517206025199444,33,32,84,-26,0,3,-2,19
1517206025199444,-49,-16,34,14,-4,-6,-4,-37
1517206025215967,3,41,-27,-13,-3,-5,5,3
1517206025215967,-19,-38,-41,62,8,2,-5,1
1517206025217458,9,14,25,-77,-3,-1,0,8
1517206025217458,7,8,6,12,-5,0,9,30
1517206025238482,-9,-20,11,-11,-9,-3,-26,-41
1517206025238482,23,-10,-63,-28,2,5,18,26
1517206025240489,-8,6,21,46,-4,-8,2,-20
1517206025240489,-4,-21,-21,-74,-11,-4,5,23
1517206025252491,-6,21,114,61,12,6,19,31
1517206025252491,-30,-6,-68,-66,-14,-7,-15,-35
1517206025259490,-31,12,63,31,4,0,-11,-22
1517206025259490,29,0,-25,20,6,-2,-4,-9
1517206025284017,-26,9,42,-16,-6,2,2,-17
1517206025284017,-23,-65,-18,-3,2,-4,-9,23
1517206025285505,43,9,-81,10,1,2,12,15
1517206025285505,-27,-19,-56,6,2,-3,-14,25
1517206025297570,-7,-46,47,-2,4,-2,-20,-25
1517206025297570,-8,9,-29,-11,-3,1,-3,-39
1517206025298568,-23,35,29,-13,-10,-5,6,52
1517206025298568,-12,-60,20,15,0,-4,-11,-25
1517206025321105,22,34,-13,25,3,0,3,0
1517206025321105,20,-7,36,-2,1,4,14,32
1517206025321585,-11,-5,8,18,-3,-3,-3,-20
1517206025321585,2,-27,11,-4,1,-3,8,2
1517206025335112,-10,-34,-112,-49,-13,-5,9,15
1517206025335112,-6,-41,78,25,6,1,0,-11
1517206025336110,3,0,-51,-17,-7,-1,2,-3
1517206025336110,7,35,38,15,3,2,-15,-7
1517206025357623,-1,0,-46,24,4,0,4,-19
1517206025357623,14,24,1,-20,-5,-3,-8,-27
1517206025358610,1,-27,-20,-3,5,2,14,16
1517206025358610,1,0,12,-4,-9,-7,-6,-4
1517206025372135,21,11,2,0,2,-2,-3,-14
1517206025372135,12,29,71,29,7,7,7,16
1517206025380126,-10,-35,44,18,2,-1,8,16
1517206025380126,13,-4,18,-26,-7,0,4,-28
1517206025395165,10,-2,-27,0,0,3,33,70
1517206025395165,13,30,13,12,0,-6,-50,-67
1517206025395665,2,61,46,-8,-1,-3,-5,-55
1517206025395665,-22,-34,-3,7,4,-2,-2,27
1517206025417689,33,60,90,22,5,2,-9,-8
1517206025417689,15,-58,-91,-26,-13,-7,3,23
1517206025418179,-14,-3,50,-6,4,6,2,38
1517206025418179,21,26,-27,-20,-3,-2,-6,-24
1517206025432189,5,-30,17,-14,-2,-1,11,16
1517206025432189,-19,25,-18,19,0,1,-6,-15
1517206025440283,4,-31,-5,21,8,0,-4,14
1517206025440283,-12,-16,-51,-14,-8,-1,11,25
1517206025455291,-15,-34,24,-19,-9,-4,-11,-35
1517206025455291,15,6,-39,14,6,0,4,12
1517206025455791,-24,-23,-39,-37,-15,-5,-3,-19
1517206025455791,10,-13,15,30,4,-7,-30,-39
1517206025478307,-58,-10,-10,0,1,2,11,1
1517206025478307,23,-3,24,13,1,4,7,30
1517206025485321,8,30,-22,-1,0,1,-6,-11
1517206025485321,-5,13,6,-14,-4,-3,20,2
1517206025491817,16,-29,-11,-2,6,1,-17,3
1517206025491817,-21,-9,-42,-15,-7,-2,2,-35
1517206025500322,-3,28,40,0,-8,-8,-2,-14
1517206025500322,17,-23,-4,3,0,2,13,36
1517206025515333,4,26,6,4,-2,-2,-23,-30
1517206025515333,-8,19,-15,-51,-7,2,12,15
1517206025515835,14,-7,8,24,4,2,-5,13
1517206025515835,-25,14,-17,28,8,1,3,5
1517206025537849,-6,-30,28,-50,-14,-4,-2,-28
1517206025537849,-11,4,47,10,1,-3,-10,32
1517206025539366,8,-22,-7,15,6,2,-5,-25
1517206025539366,3,51,25,27,4,5,-1,16
1517206025551872,2,-2,8,-21,-9,-6,17,-1
1517206025551872,24,3,29,7,-7,-7,1,-1
1517206025560373,-6,-21,-32,-50,1,2,-13,-40
1517206025560373,-35,-20,8,70,9,3,3,-6
1517206025575375,-7,-10,54,-4,-3,-2,-3,4
1517206025575375,29,-17,-73,-6,-4,-4,-9,-19
1517206025575880,6,-7,17,0,0,2,13,26
1517206025575880,-11,12,-19,-14,-2,-2,6,21
1517206025597891,-14,-29,-46,-4,-3,0,-18,-7
1517206025597891,-23,32,52,4,-2,-3,-6,-17
1517206025598392,-20,-15,-42,6,0,-4,-7,8
1517206025598392,63,14,-60,-39,-14,-9,-12,-15
1517206025612402,9,31,-11,42,9,5,17,36
1517206025612402,0,40,-5,-32,1,4,3,23
1517206025620407,3,-13,-40,-1,-3,-1,2,19
1517206025620407,-20,3,72,-47,-14,-4,-4,-35
1517206025635419,19,27,53,42,9,2,7,38
1517206025635419,-16,-1,13,14,8,2,-1,-12
1517206025635919,-31,-42,-16,-13,-12,-4,-7,-18
1517206025635919,-7,-13,9,9,5,2,6,5
1517206025657468,-18,-27,-52,4,0,-3,-3,-4
1517206025657468,-9,-17,34,-27,-4,1,13,35
1517206025658467,10,9,11,15,3,1,-1,-20
1517206025658467,-31,-52,-42,2,-2,-4,-21,-36
1517206025671985,25,23,21,7,2,2,4,6
1517206025671985,17,-7,-9,9,-1,-3,1,-14
1517206025679981,-17,23,-24,-21,-5,-3,7,3
1517206025679981,10,28,35,26,7,3,0,21
1517206025694992,17,20,-10,-24,-3,2,-3,-13
1517206025694992,0,-5,-71,7,-6,-6,-3,-16
1517206025695996,2,19,31,12,5,4,8,10
1517206025695996,10,24,45,-28,2,6,6,0
1517206025717576,-17,13,-39,-9,-4,-2,1,49
1517206025717576,-41,-17,55,8,1,1,0,-48
1517206025718577,-15,25,21,25,3,-1,-10,-11
1517206025718577,37,6,-48,-5,4,0,12,41
1517206025732086,27,-36,-49,-48,-15,-4,-3,-36
1517206025732086,-22,-22,-1,26,6,1,6,13
1517206025740092,23,18,35,-4,-5,-2,-1,5
1517206025740092,-31,0,0,22,4,-1,-2,-9
1517206025755112,12,-54,-52,-37,-7,-6,1,14
1517206025755112,-7,26,3,-7,0,2,1,6
1517206025756113,28,-15,19,40,8,2,1,22
1517206025756113,13,6,-30,-59,-12,-5,-5,-5
1517206025778131,0,6,14,20,7,2,0,-19
1517206025778131,-11,-11,37,11,2,1,-2,15
1517206025778620,-4,-41,-98,-31,-10,-8,1,2
1517206025778620,-17,-25,7,6,-4,-4,-6,-20
1517206025792138,-3,52,40,15,2,-1,1,-16
1517206025792138,16,-37,-33,10,-1,-1,-16,19
1517206025800163,14,29,65,-8,3,3,3,-12
1517206025800163,19,-3,-41,7,-1,-2,1,26
1517206025815175,-5,12,-29,-1,0,-1,-4,-34
1517206025815175,18,46,35,24,6,2,-6,-12
1517206025815674,12,-10,-14,5,-1,-2,11,14
1517206025815674,7,7,-2,-16,-8,-5,-35,-71
1517206025837700,-29,-1,47,32,7,5,6,25
1517206025837700,16,8,-82,-78,-14,-7,0,2
1517206025839207,-1,1,13,13,3,1,2,4
1517206025839207,-25,-37,-40,-40,-8,-3,-5,-7
1517206025861207,0,70,70,21,0,-3,-2,-2
1517206025861207,-25,-57,-29,0,1,-2,-6,-27
1517206025861707,-1,-5,-6,-16,-9,-6,-3,13
1517206025861707,3,39,26,13,1,3,3,17
1517206025875232,-12,6,21,-15,-1,-5,-9,-28
1517206025875232,-8,-48,-2,5,-2,0,8,37
1517206025875717,-7,-46,16,9,1,2,-12,-41
1517206025875717,-8,1,96,34,7,1,8,-3
1517206025897733,8,3,-123,-59,-10,-4,-8,-9
1517206025897733,-3,9,95,23,4,0,3,0
1517206025898234,10,48,-28,-2,2,1,7,31
1517206025898234,-21,-11,-50,2,-3,-7,-16,-19
1517206025920773,-25,-20,0,24,3,1,3,16
1517206025920773,-14,23,54,21,4,1,7,-3
1517206025921772,22,8,-31,-57,-11,-5,-22,-10
1517206025921772,22,13,61,28,7,4,17,26
1517206025935279,3,-3,10,15,2,1,-6,-2
1517206025935279,-6,-14,1,-13,-10,-7,-1,-3
1517206025935760,-10,-21,5,24,7,3,6,24
1517206025935760,-7,-9,-18,-25,0,-1,-5,-20
1517206025957785,-11,-20,-18,-5,-7,-6,4,4
1517206025957785,18,30,52,19,7,5,12,1
1517206025958286,-5,17,43,9,-1,0,-17,-12
1517206025958286,-38,-73,-117,-68,-15,-6,-1,21
1517206025980802,7,15,76,24,7,2,-1,0
1517206025980802,21,33,-9,-38,-9,-4,-5,42
1517206025981792,-53,-15,65,24,6,0,1,-14
1517206025981792,26,-10,-61,-9,-4,-1,1,18
1517206025995302,-2,-37,-4,-6,-3,-5,-14,-31
1517206025995302,-5,-6,-9,18,1,1,-9,-43
1517206025995806,-23,9,-17,-24,-7,-5,-2,-33
1517206025995806,0,29,-28,11,3,3,9,9
1517206026017817,26,-33,-75,-19,0,0,1,18
1517206026017817,-16,29,78,4,-3,-2,7,2
1517206026018319,10,-6,-69,14,-1,-1,3,9
1517206026018319,11,-12,-1,-1,-1,0,5,-22
1517206026040851,23,-3,-3,17,0,0,-8,9
1517206026040851,13,9,-25,-18,-2,-2,8,33
1517206026041334,-4,29,51,7,-3,0,-6,-17
1517206026041334,8,-36,4,-6,-1,-1,1,10
1517206026055354,0,-18,-12,1,-4,1,14,-4
1517206026055354,-8,37,-20,-14,-5,-4,-13,-13
1517206026055847,5,22,45,-5,-6,-6,2,32
1517206026055847,-53,-12,48,20,6,2,-7,-33
1517206026077864,18,-15,-30,6,4,2,4,8
1517206026077864,-12,44,24,-8,-1,-4,-10,-32
1517206026078363,-10,-51,-50,-27,-10,-4,-9,-8
1517206026078363,12,11,-2,23,6,1,7,6
1517206026100886,-33,16,84,1,2,5,-5,10
1517206026100886,11,-24,-87,-16,-6,-1,-1,3
1517206026101886,31,-14,-2,11,8,4,17,4
1517206026101886,9,51,73,4,-2,-2,0,11
1517206026114900,-1,12,31,15,-1,-2,-17,20
1517206026114900,1,-14,-3,-3,-1,1,-5,-29
1517206026115888,-4,-26,-19,-4,3,1,1,-6
1517206026115888,-2,7,6,21,5,2,1,3
1517206026137902,-2,-3,24,-9,-4,-5,5,-6
1517206026137902,5,-42,-63,-4,2,3,-3,15
1517206026139407,-18,41,55,-4,-6,-4,-12,-18
1517206026139407,7,-48,-49,-11,-6,-4,8,18
1517206026161419,-8,11,29,-19,-7,-8,-8,-34
1517206026161419,6,-3,-27,12,5,5,20,41
1517206026161920,1,7,-11,-8,-2,-1,-1,9
1517206026161920,37,37,-8,29,7,0,-9,-2
1517206026175429,-21,-25,-55,-46,-9,-2,-23,-28
1517206026175429,3,3,35,40,4,1,15,-2
1517206026175930,11,-23,-11,-32,-6,-3,-7,2
1517206026175930,23,16,7,0,1,1,1,18
1517206026197945,6,-1,23,7,-1,-4,1,6
1517206026197945,-9,15,41,22,6,2,-7,-18
1517206026198446,3,0,-19,-20,-5,0,4,18
1517206026198446,-38,-37,-2,-4,-4,-2,-11,-45
1517206026220964,0,18,4,2,-1,-5,4,-3
1517206026220964,8,9,39,-2,-5,-3,0,-2
1517206026221462,-18,-11,-21,14,4,0,-17,-16
1517206026221462,-14,-8,-4,-15,-1,0,12,50
1517206026234974,0,-37,-47,0,-2,-2,-16,-80
1517206026234974,1,-33,-6,-7,-2,0,-3,4
1517206026235972,18,77,7,18,5,0,10,-1
1517206026235972,-17,-16,55,11,-3,-3,-13,-11
1517206026257499,-14,-29,-77,-2,-1,5,10,10
1517206026257499,6,-39,-44,-42,-5,-4,-6,-5
1517206026258511,-1,36,29,1,0,1,9,-13
1517206026258511,-7,4,28,7,0,1,2,3
1517206026281018,-7,-15,0,15,-2,-4,-2,0
1517206026281018,10,4,6,1,5,5,15,16
1517206026281504,-14,-24,-11,8,2,-1,6,33
1517206026281504,-10,-17,-58,-11,1,1,-16,-64
1517206026295553,5,-5,14,18,-4,0,6,19
1517206026295553,-6,22,1,-35,-5,-4,-2,10
1517206026296071,-11,-5,4,3,0,-3,-1,-2
1517206026296071,19,31,4,5,3,3,11,6
1517206026317581,2,-14,-10,-11,-3,0,2,19
1517206026317581,-15,14,41,23,6,-2,-12,-19
1517206026318567,-2,-31,-47,-6,-2,-2,-4,-15
1517206026318567,16,4,26,-4,-7,-4,6,-1
1517206026340666,29,17,9,-15,3,0,-4,8
1517206026340666,-6,-9,3,13,-3,-6,-13,-7
1517206026341678,-14,-38,-72,-29,-10,-4,-5,-7
1517206026341678,12,35,24,2,-2,0,7,48
1517206026355178,11,14,-12,9,4,-3,-9,-39
1517206026355178,19,-5,-22,8,-4,-2,-1,13
1517206026355678,-10,-3,66,10,4,2,-5,-40
1517206026355678,-10,3,12,3,-3,-3,-6,8
1517206026377696,-7,35,-3,19,3,0,14,47
1517206026377696,-25,10,-30,-40,-3,0,-5,-20
1517206026378195,-1,-1,9,14,-2,-3,2,10
1517206026378195,18,-15,-32,-27,-5,-3,-3,9
1517206026400710,24,2,-9,8,1,-3,-3,-17
1517206026400710,-19,-11,-23,9,-2,-1,1,-8
1517206026401711,23,-26,31,21,0,-2,5,58
1517206026401711,-36,3,-47,-47,-5,-2,-28,-62
1517206026414221,-4,-7,-4,12,1,-1,4,10
1517206026414221,14,-5,-2,2,-1,-1,-2,5
1517206026430232,24,-12,-34,-20,2,4,14,17
1517206026430232,1,5,34,23,2,-2,-2,5
1517206026437778,-19,17,-6,-19,-1,5,11,11
1517206026437778,-10,18,34,20,5,-3,-15,-9
1517206026439238,-14,25,23,-2,0,-2,-2,-14
1517206026439238,-11,-42,-34,3,-2,-3,-2,-28
1517206026461258,-8,3,-15,-7,-3,-2,3,7
1517206026461258,17,-41,-13,-18,-3,0,5,23
1517206026461755,-10,-14,28,19,3,3,0,-25
1517206026461755,9,34,8,-10,-5,-3,-9,44
1517206026474277,11,17,-15,6,5,3,1,-49
1517206026474277,21,39,85,16,-2,-1,0,4
1517206026482768,-1,7,17,1,1,-1,-2,-19
1517206026482768,30,-10,-34,-3,-1,2,12,8
1517206026497780,-31,-13,6,10,0,-2,-10,4
1517206026497780,9,11,-23,21,0,0,6,12
1517206026498281,-1,-30,-28,-24,-3,-5,-15,-23
1517206026498281,-14,34,14,1,-3,-1,6,8
1517206026520819,12,-1,-2,3,-2,-6,-9,-1
1517206026520819,-24,-26,-13,-9,-5,0,5,-40
1517206026521796,13,18,-3,-6,-5,-2,5,18
1517206026521796,-2,-9,7,28,7,1,-10,-11
1517206026534305,1,-12,-21,-29,-9,-4,13,38
1517206026534305,4,-31,-45,-16,-4,-3,-12,-22
1517206026542812,-7,-9,38,13,-1,0,0,-8
1517206026542812,26,37,30,-5,5,1,10,-9
1517206026557822,-13,-28,-75,-14,-12,-8,5,14
1517206026557822,-41,36,72,5,3,0,-7,6
1517206026558323,15,25,-82,-2,2,0,-3,16
1517206026558323,9,-23,52,-5,-4,-1,6,-17
1517206026580839,-16,34,61,-2,6,3,3,4
1517206026580839,3,-27,-17,-16,-5,0,-3,39
1517206026581839,9,11,-7,21,-1,-2,-16,-44
1517206026581839,30,11,14,-6,0,1,7,9
1517206026594849,0,-14,-5,8,2,-1,-9,-5
1517206026594849,10,12,-61,-19,-4,0,2,-9
1517206026602871,-24,-25,15,1,-1,0,3,10
1517206026602871,-10,-7,-13,2,3,4,4,22
1517206026617373,-2,-4,26,-12,-4,1,-6,-13
1517206026617373,18,33,80,21,-1,-6,3,-9
1517206026618364,-27,0,-63,-1,-2,1,4,14
1517206026618364,-8,-25,3,2,7,-2,-14,-29
1517206026640880,-13,47,45,24,2,4,17,17
1517206026640880,-16,-82,-89,-39,-1,-3,-25,-9
1517206026641381,9,35,54,5,-3,-3,-9,-50
1517206026641381,-19,-41,-35,-31,-10,-8,-9,0
1517206026654390,-11,15,31,7,4,1,5,14
1517206026654390,-8,33,6,27,2,0,-5,-20
1517206026662899,0,-17,-43,-26,-8,-3,2,34
1517206026662899,-26,1,-14,5,0,-2,-9,-20
1517206026677907,-1,-29,10,3,0,-1,0,3
1517206026677907,31,58,50,38,6,3,16,35
1517206026678408,-19,-29,-66,-32,-6,-3,-20,-60
1517206026678408,-22,37,52,26,-1,-3,4,2
1517206026701434,-2,-24,-21,-32,-1,2,1,13
1517206026701434,6,8,39,12,4,3,4,9
1517206026702435,-5,-11,-5,-3,-2,0,11,0
1517206026702435,24,-2,-13,-12,-4,-2,-5,0
1517206026714434,-24,21,22,21,6,2,-1,-10
1517206026714434,-5,1,-16,-32,-8,-5,-9,-19
1517206026722475,8,-12,0,12,5,2,5,21
1517206026722475,-8,-18,-15,0,-3,-2,1,-2
1517206026737449,10,9,17,-1,-2,-3,1,1
1517206026737449,-9,-5,-6,-10,-2,-1,3,-12
1517206026739453,-13,-20,-10,-5,-1,-1,7,22
1517206026739453,-18,42,-31,-12,-2,-1,2,31
1517206026760966,5,-48,8,-3,-6,-5,-24,-34
1517206026760966,4,-8,-44,-8,-5,-3,6,-1
1517206026761466,6,8,2,0,-3,-2,0,14
1517206026761466,-1,52,93,18,7,4,10,7
1517206026783496,13,-19,-70,-27,-6,0,-5,-2
1517206026783496,-12,11,40,13,0,-1,3,-3
1517206026783982,4,-13,36,0,-2,-4,6,30
1517206026783982,-29,-4,0,3,-2,1,-13,-49
1517206026797511,-19,-43,-26,6,-1,-4,7,-2
1517206026797511,21,-20,-23,-33,-9,-2,-8,-2
1517206026798502,-5,10,8,13,4,0,-4,-13
1517206026798502,21,-8,8,9,-3,0,8,49
1517206026821008,-4,23,22,-6,-3,-3,-14,-62
1517206026821008,-25,-29,-55,-6,-6,-3,8,-4
1517206026821508,5,-36,-12,-10,1,-2,-3,3
1517206026821508,21,25,35,7,3,-3,-6,23
1517206026843539,2,0,3,3,-7,0,-15,-18
1517206026843539,-3,-24,-26,9,5,-1,7,23
1517206026844025,7,22,-17,-2,-1,3,-9,-10
1517206026844025,-18,-23,-33,1,-1,-3,5,-14
1517206026857563,18,34,5,-13,0,2,9,38
1517206026857563,-1,-11,15,4,2,1,-5,-12
1517206026858534,-1,7,35,3,3,3,13,21
1517206026858534,3,5,-22,-4,-1,-3,-21,-23
1517206026881051,5,-1,-45,-9,-5,-3,1,11
1517206026881051,-10,-16,25,22,5,2,1,16
1517206026881552,-38,6,9,-11,-6,-3,-11,-66
1517206026881552,25,22,34,-4,-1,1,8,9
1517206026903567,-4,-13,40,12,1,-2,-1,14
1517206026903567,1,18,-12,16,2,2,-1,9
1517206026904067,24,-28,-3,-23,-2,-2,1,36
1517206026904067,-17,-33,-25,-2,0,0,13,7
1517206026917598,-13,0,-8,-3,-2,-2,-14,17
1517206026917598,-46,-8,-34,-7,-1,-2,9,4
1517206026918577,24,-5,17,15,1,2,-3,-2
1517206026918577,-3,-25,-18,-11,-2,-2,-1,-16
1517206026940595,28,23,-11,8,5,2,7,40
1517206026940595,2,1,39,19,5,4,-6,-54
1517206026941594,-2,39,47,-16,-7,-3,-4,6
1517206026941594,-1,-21,-26,-1,-3,-2,-8,1
1517206026963155,-9,21,17,4,0,-4,2,4
1517206026963155,9,13,-6,-25,-9,-3,-5,2
1517206026964166,15,21,4,13,5,1,2,-6
1517206026964166,-22,-6,-4,7,5,5,7,-10
1517206026985683,4,-2,-2,1,-10,-7,-6,-1
1517206026985683,4,39,29,-23,1,0,1,-14
1517206026986672,2,-30,-52,-5,-4,-3,7,28
1517206026986672,-21,0,-8,-1,-4,0,-14,-5
1517206027000691,5,-45,-45,3,4,1,2,-15
1517206027000691,-13,4,26,12,2,2,8,60
1517206027001692,-14,2,-65,-3,-2,-2,-26,-83
1517206027001692,41,25,32,-4,-4,-3,4,0
1517206027023219,-1,4,33,13,6,2,-11,-53
1517206027023219,-6,15,-44,-31,-15,-9,-6,-6
1517206027024220,4,-1,44,22,3,0,8,39
1517206027024220,8,12,26,-13,-1,-2,0,8
1517206027037717,-39,-29,-63,-6,-2,-1,-1,-9
1517206027037717,24,6,39,-2,0,-1,-1,-4
1517206027038209,-15,3,-61,8,-4,-6,-7,-7
1517206027038209,19,-22,14,-9,-2,-2,-2,3
1517206027060225,20,49,40,5,2,3,16,11
1517206027060225,-12,-1,-5,-6,-6,-8,-17,-23
1517206027067749,-17,-12,18,-9,-3,-1,7,10
1517206027067749,-20,-17,-2,12,-3,0,0,-4
1517206027083252,21,17,13,-17,-3,-3,-8,22
1517206027083252,6,-21,-5,15,0,0,0,-13
1517206027084253,4,7,0,6,1,1,1,1
1517206027084253,-5,-27,17,0,2,-3,-5,3
1517206027097750,-9,-4,-2,-15,-8,-5,-6,-17
1517206027097750,32,5,-28,13,4,3,25,49
1517206027098251,-2,8,37,-10,-3,-5,-22,-35
1517206027098251,14,35,-15,5,5,5,6,22
1517206027120790,-13,-28,41,4,-1,-3,0,-8
1517206027120790,-12,-28,-6,3,-5,-5,-8,-4
1517206027121776,8,12,-15,9,8,7,17,8
1517206027121776,1,-3,-62,-41,-11,-6,-11,-6
1517206027143283,5,26,21,-1,-1,0,-3,3
1517206027143283,18,-9,3,9,1,-3,-5,3
1517206027144283,-36,-21,-1,4,-1,-1,-12,-57
1517206027144283,7,14,28,3,-2,-2,5,7
1517206027157805,0,-2,-45,-6,0,2,5,11
1517206027157805,-7,0,24,6,-4,-4,-2,10
1517206027158294,12,-13,-48,-16,-3,2,8,18
1517206027158294,-17,-25,7,8,-1,-1,-1,-2
1517206027180810,12,19,33,1,1,-1,3,-7
1517206027180810,20,-1,-45,-13,1,0,-8,-1
1517206027181309,-22,0,32,-5,-7,-5,-1,13
1517206027181309,25,-5,-15,0,-3,-3,0,-2
1517206027203325,-5,9,-4,-2,0,1,7,-6
1517206027203325,7,1,19,3,0,-1,-9,-23
1517206027204337,18,76,18,0,0,-2,6,32
1517206027204337,-44,-22,-19,0,-5,-4,2,-18
1517206027217850,-2,-15,-10,12,8,3,-10,-11
1517206027217850,13,-32,-21,-14,-3,0,6,-2
1517206027218335,-2,-13,14,-20,-5,-1,-8,-16
1517206027218335,3,25,0,16,3,2,11,30
1517206027240854,-2,-29,16,-7,-3,-3,2,3
1517206027240854,-23,-24,3,16,1,2,1,-13
1517206027241852,24,29,21,-6,-6,-5,0,7
1517206027241852,-6,23,23,16,7,4,-2,-16
1517206027263886,0,-38,-1,-13,-3,0,3,7
1517206027263886,-8,17,24,28,7,3,-3,-6
1517206027264381,-1,-31,5,-24,-7,-4,6,40
1517206027264381,21,-11,-6,-11,-5,-6,-19,-66
1517206027277878,-15,15,-12,0,-7,-5,-7,-13
1517206027277878,17,4,14,9,3,-1,1,7
1517206027278378,-28,4,17,19,7,1,0,-2
1517206027278378,26,12,-10,1,0,3,10,20
1517206027300903,2,12,-8,-6,-4,-3,-6,7
1517206027300903,8,21,-7,0,-6,-3,-4,2
1517206027301400,18,17,52,-9,1,-3,2,11
1517206027301400,12,-21,-58,-22,-7,-7,-8,-11
1517206027323433,-2,9,4,9,6,4,5,12
1517206027323433,-5,15,-36,-12,-3,-1,4,8
1517206027323911,-14,-46,-31,-11,-10,-7,-13,-27
1517206027323911,-35,3,22,4,2,1,8,20
1517206027337419,-3,19,18,15,5,1,-3,-19
1517206027337419,-12,-30,2,-8,-3,-1,1,-6
1517206027345447,12,-17,-27,19,1,0,4,3
1517206027345447,-9,-6,9,-6,5,2,-5,-10
1517206027360936,-20,-7,-14,-9,-7,-9,-2,10
1517206027360936,8,3,20,15,3,2,-4,4
1517206027362438,-15,-8,-5,-12,-1,1,0,-17
1517206027362438,0,-25,-21,4,-6,-5,3,19
1517206027383452,-9,-8,37,5,-3,-2,-7,-8
1517206027383452,-10,48,13,-6,1,0,5,-6
1517206027389470,18,15,32,21,2,1,1,16
1517206027389470,8,-25,-79,-33,-9,-5,-5,15
1517206027396965,-16,-16,-22,10,4,1,-10,-19
1517206027396965,-15,-9,-16,-13,-8,-6,-12,-23
1517206027405968,-6,1,-23,-12,-3,0,10,19
1517206027405968,2,13,53,23,6,1,3,35
1517206027421001,16,-28,-11,-13,-2,0,-3,-19
1517206027421001,13,-2,41,8,4,3,3,14
1517206027422503,-25,-9,-3,23,8,3,-3,-17
1517206027422503,-23,-5,-35,-27,-13,-8,-10,1
1517206027443527,-2,9,-30,-5,-3,-3,1,16
1517206027443527,12,-5,-3,-3,-3,-3,0,2
1517206027445027,-3,-12,25,-3,4,4,7,0
1517206027445027,27,34,30,-12,-2,-1,-15,-20
1517206027457037,13,-21,-29,11,3,2,11,8
1517206027457037,-17,-2,18,-10,-3,-2,2,-3
1517206027466043,31,38,35,10,1,0,-11,36
1517206027466043,-20,-31,-19,24,4,5,-1,-47
1517206027481060,37,53,12,-22,-5,-1,9,6
1517206027481060,-16,-37,-16,-10,-1,0,2,2
1517206027482563,22,-1,-20,13,3,0,3,10
1517206027482563,-39,7,-14,-8,-4,-3,0,-7
1517206027503069,-1,5,-3,18,4,1,6,5
1517206027503069,-4,-8,-16,-30,-7,-1,5,16
1517206027505071,-3,36,47,23,2,0,-14,-35
1517206027505071,-9,8,-16,-20,-7,-6,-2,2
1517206027517091,-3,6,-4,13,2,1,6,9
1517206027517091,-4,-15,-37,-9,-1,-3,-18,-21
1517206027526087,-27,-12,10,6,3,0,5,-4
1517206027526087,25,-26,-13,-5,-4,-2,3,-4
1517206027540609,-4,1,-14,-5,-5,0,-2,9
1517206027540609,-13,-46,12,15,1,-1,7,-14
1517206027542597,6,11,-75,-24,-6,0,7,2
1517206027542597,-14,27,72,23,8,5,10,30
1517206027563162,23,-18,-34,-11,-6,-4,-11,-18
1517206027563162,-7,-14,30,-5,3,3,9,19
1517206027565162,-10,-19,-101,-9,-6,0,-5,-12
1517206027565162,3,-2,40,6,4,6,7,-2
1517206027577170,-29,-9,6,-6,-4,-3,-4,5
1517206027577170,4,12,2,9,2,1,3,-6
1517206027585678,-5,-34,-13,-20,-11,-7,-4,-1
1517206027585678,11,-26,-36,0,-1,-3,-9,-6
1517206027600688,-13,-24,6,-13,-5,-2,3,35
1517206027600688,7,32,-16,3,1,0,-7,-53
1517206027602189,-3,-14,81,21,4,-2,-12,-19
1517206027602189,22,18,-33,-23,-3,-1,0,-4
1517206027623277,-21,-8,44,22,0,0,-2,-10
1517206027623277,-2,-18,-68,-30,-7,-2,1,5
1517206027624753,22,9,19,4,0,-2,11,44
1517206027624753,-13,5,15,15,3,2,-2,-10
1517206027636782,-1,-9,-41,-8,-1,2,0,-14
1517206027636782,-14,2,3,-16,-5,-3,-12,-15
1517206027653273,1,-5,12,12,0,2,15,18
1517206027653273,11,-1,-19,-9,1,-1,-7,-18
1517206027661283,6,24,15,6,-1,-5,7,1
1517206027661283,1,-21,-11,29,12,6,0,5
1517206027662279,7,-12,-24,-28,-10,-5,-7,1
1517206027662279,-20,-35,-62,-14,-6,-5,-5,1
1517206027683306,5,20,76,3,1,4,5,-29
1517206027683306,13,-8,-14,23,4,0,3,11
1517206027684807,-27,-21,-69,-38,-9,-5,-7,-7
1517206027684807,36,-9,24,10,-1,-2,9,-4
1517206027696806,29,20,22,10,7,2,-4,-19
1517206027696806,10,5,-4,1,-2,-3,7,42
1517206027705810,-18,9,-27,-13,-3,-1,-15,-41
1517206027705810,-11,-3,11,8,3,2,4,13
1517206027720845,-5,-8,-4,13,2,3,15,15
1517206027720845,16,33,39,-17,-6,-5,-6,8
1517206027722321,3,26,29,12,0,-1,-13,-32
1517206027722321,-16,-21,18,2,0,-3,-4,-7
1517206027743372,-6,-18,5,-11,1,2,4,14
1517206027743372,13,-10,9,6,-5,-5,-9,-15
1517206027744876,-1,25,54,7,3,-2,4,7
1517206027744876,-17,14,-81,-9,-4,-1,-3,-3
1517206027765941,-14,-12,-12,-13,-5,-3,-7,9
1517206027765941,-2,14,25,-4,-5,-1,4,-16
1517206027767454,33,-21,-53,4,6,5,7,12
1517206027767454,7,20,39,13,1,0,-3,4
1517206027781453,25,33,-24,-15,-8,-4,-8,5
1517206027781453,-15,-2,8,-11,-3,-3,-1,-3
1517206027782951,1,-9,-2,14,6,2,-4,1
1517206027782951,0,20,52,36,6,2,-2,2
1517206027803536,-1,-27,-60,-65,-11,-5,-8,-4
1517206027803536,-4,14,3,4,-2,0,-4,-2
1517206027805038,-4,6,3,14,4,2,6,2
1517206027805038,-23,-18,-19,-20,-9,-5,-4,4
1517206027825555,12,-8,15,12,-1,-3,-5,-8
1517206027825555,-16,-9,-35,-14,-2,-2,10,54
1517206027827563,-4,29,44,1,0,-1,-26,-71
1517206027827563,3,21,35,1,-1,-1,3,9
1517206027840592,-23,-22,-2,10,5,5,5,-4
1517206027840592,-23,-14,-49,-18,-5,-4,-5,1
1517206027842573,-6,-4,-27,6,-4,-5,6,9
1517206027842573,5,0,25,-17,-1,0,-2,1
1517206027863597,9,38,2,17,2,0,-2,0
1517206027863597,-19,-8,2,12,2,1,-3,-12
1517206027865089,-17,-59,-59,-23,-6,-7,-8,-6
1517206027865089,12,8,25,-7,-2,1,15,-2
1517206027885603,3,10,-8,5,0,0,-15,2
1517206027885603,-32,17,-2,12,3,3,-2,-14
1517206027887604,37,17,0,-1,-6,-6,1,8
1517206027887604,21,1,-15,-16,-3,0,-5,0
1517206027900124,-5,-30,37,10,0,-3,6,32
1517206027900124,20,36,33,-1,0,0,-15,-65
1517206027907127,-30,-12,-49,2,-1,-2,13,25
1517206027907127,-2,-1,4,11,3,2,-23,-39
1517206027923151,-20,-3,10,1,1,1,4,9
1517206027923151,8,-9,-10,18,-5,-5,-13,-33
1517206027925130,-2,5,33,-23,9,6,19,19
1517206027925130,-12,0,-7,0,-3,-5,-3,8
1517206027945646,-4,2,-26,-5,-3,-5,-16,-38
1517206027945646,25,-8,1,5,6,0,0,2
1517206027947146,-2,-9,48,6,-3,-2,3,7
1517206027947146,-10,-12,-7,9,7,7,8,13
1517206027960158,3,20,5,-18,-9,-7,-3,-9
1517206027960158,6,-5,-35,8,3,4,10,20
1517206027967160,26,8,12,2,-3,0,16,37
1517206027967160,8,-6,-10,-5,-2,-2,-30,-30
1517206027983171,-19,-76,-55,5,2,0,5,4
1517206027983171,2,22,-12,-12,-4,0,34,-1
1517206027984671,-15,-55,-30,13,4,5,-21,-2
1517206027984671,-18,16,39,-7,-7,-13,-5,-2
1517206028005688,0,22,29,11,4,2,-1,-18
1517206028005688,-4,-3,-6,6,0,2,0,29
1517206028007199,12,10,5,-18,-2,-1,-6,-20
1517206028007199,-1,-26,-16,9,-4,-2,2,0
1517206028020221,-6,27,10,-6,1,3,13,7
1517206028020221,-21,-69,-4,-8,-2,-2,2,50
1517206028027206,1,34,43,34,5,0,-19,-90
1517206028027206,16,3,-56,-15,-1,5,12,14
1517206028043214,-46,-28,-31,-12,-3,-3,2,17
1517206028043214,22,22,5,10,5,4,-2,-15
1517206028044715,11,13,9,-8,-5,-4,-6,2
1517206028044715,-19,-41,-43,-4,1,0,14,0
1517206028065731,37,10,21,1,0,3,-3,0
1517206028065731,-15,17,48,6,0,-3,0,-10
1517206028067234,-12,18,-19,-6,-3,-5,8,12
1517206028067234,20,42,66,-1,-2,2,-2,-4
1517206028080241,-7,-5,-52,2,-8,-8,-3,22
1517206028080241,13,29,-21,-22,-2,-3,-12,-23
1517206028086745,-7,-15,38,5,2,3,2,-1
1517206028086745,0,-4,-23,5,0,-1,-4,14
1517206028103257,17,7,30,17,6,6,7,25
1517206028103257,-11,14,12,-3,-2,-3,-12,-23
1517206028104762,-9,-22,-31,-19,-8,0,3,16
1517206028104762,1,21,24,16,5,0,13,7
1517206028125788,8,-28,-44,-7,-4,0,-5,-9
1517206028125788,-10,-7,15,0,2,1,-4,-7
1517206028127274,-12,-4,10,-6,-1,-2,16,23
1517206028127274,28,-15,30,-2,-2,0,-21,-3
1517206028139804,2,-24,12,-9,-8,-6,-6,-28
1517206028139804,11,-7,-20,-4,-5,-2,-10,6
1517206028146789,-44,31,29,-4,-4,-4,2,-24
1517206028146789,-10,-25,4,9,2,-1,4,10
1517206028170846,-5,20,13,2,-1,-1,1,-10
1517206028170846,-7,-15,-9,2,-3,-3,-13,34
1517206028172342,19,-28,-7,-16,-3,-1,-8,-26
1517206028172342,-16,-19,-52,-10,-7,-5,0,-4
1517206028185815,-5,17,-10,-5,2,0,6,3
1517206028185815,-5,-14,0,-8,-4,-2,-7,-10
1517206028187316,-16,3,21,31,7,4,9,33
1517206028187316,1,-2,-48,-26,-9,-4,-19,-41
1517206028200326,15,19,-7,-3,2,2,-2,-5
1517206028200326,3,4,45,9,3,-1,7,14
1517206028206856,17,-2,-55,-1,-2,2,-1,-2
1517206028206856,-8,45,19,-4,-1,0,1,-5
1517206028223356,-15,-24,3,15,3,0,-3,-1
1517206028223356,-3,1,-35,-26,-8,-6,-3,-8
1517206028224876,3,-20,25,-7,-2,0,-4,5
1517206028224876,0,11,18,11,6,5,22,27
1517206028245858,13,11,26,-1,-4,-2,-8,20
1517206028245858,-1,42,11,13,1,0,1,-31
1517206028247365,15,-24,-9,-20,-4,-2,0,5
1517206028247365,-4,13,-20,4,0,-2,5,24
1517206028259379,12,-16,14,18,6,3,-1,17
1517206028259379,-5,-3,13,-16,-2,0,-5,-55
1517206028268398,9,-1,3,4,-2,-1,-3,9
1517206028268398,2,-4,-13,6,0,-2,-1,21
1517206028283396,-6,10,27,-9,-4,-4,-4,-26
1517206028283396,4,-72,-71,-19,-8,-5,4,16
1517206028284896,-30,20,-24,-5,-4,-6,-17,-1
1517206028284896,-21,-7,30,2,1,2,8,3
1517206028305912,48,88,72,38,10,2,-4,-18
1517206028305912,-16,-42,-51,-19,-6,-2,8,19
1517206028307427,17,-5,-24,-17,-4,-5,-2,-14
1517206028307427,-29,5,18,18,3,-1,-3,14
1517206028319431,-6,38,-11,-32,-9,-4,-10,-54
1517206028319431,-8,-53,-20,8,3,3,5,12
1517206028335973,-1,-10,27,27,7,1,7,14
1517206028335973,3,-13,-31,-9,-4,-5,-7,-27
1517206028343480,2,-12,18,2,0,-2,12,27
1517206028343480,11,68,5,8,-1,-3,-15,-17
1517206028344981,-1,-20,1,-22,-5,-3,3,5
1517206028344981,1,-16,19,15,3,1,-7,-24
1517206028365504,-9,-28,-39,-17,-3,-2,0,15
1517206028365504,-8,8,28,-16,-2,2,-3,-5
1517206028372010,-1,10,-8,14,0,-2,1,9
1517206028372010,5,-20,-20,-14,-5,-5,-3,-9
1517206028379505,-14,-12,-15,2,1,0,-3,-8
1517206028379505,2,8,33,13,2,0,3,14
1517206028388519,9,13,-44,-1,1,1,-4,-10
1517206028388519,-2,-35,7,-3,-1,0,0,1
1517206028403029,-12,-10,21,4,-2,0,-2,-7
1517206028403029,0,-8,-1,-3,-2,-3,2,8
1517206028405022,2,13,16,-3,-2,-1,-4,-1
1517206028405022,3,19,-16,-2,0,1,-3,-9
1517206028426046,-7,-16,-23,-5,-3,-2,2,6
1517206028426046,7,19,22,5,-2,0,1,3
1517206028427570,0,-17,-8,2,-3,-3,-5,-3
1517206028427570,3,4,5,-12,-1,-1,-1,-1
1517206028448085,6,-2,-12,1,4,-1,0,0
1517206028448085,1,10,14,5,0,-1,0,1
1517206028450097,-4,10,12,-1,-3,-4,-6,7
1517206028450097,-2,-3,2,-2,0,0,1,-12
1517206028463136,-5,-5,-21,-4,-3,-2,-2,3
1517206028463136,-2,-4,10,-5,-1,-1,-1,-1
1517206028465139,1,3,-2,1,1,-1,1,-1
1517206028465139,4,6,31,8,4,2,3,4
1517206028485651,-7,-26,-21,-12,-8,-5,-5,-5
1517206028485651,0,4,-8,6,1,1,1,1
1517206028487663,2,9,0,-13,-4,0,-1,-6
1517206028487663,3,12,13,3,0,-1,0,4
1517206028509678,0,1,-2,-6,-1,0,-1,-2
1517206028509678,-9,-5,-14,0,0,-2,-3,2
1517206028511675,-2,-7,4,17,1,1,0,-4
1517206028511675,6,5,4,-14,1,0,1,4
1517206028523193,-4,-2,2,-4,-3,0,0,1
1517206028523193,3,2,-4,2,-1,-2,-5,0
1517206028524679,3,4,8,4,2,2,1,2
1517206028524679,-4,-3,-5,2,-3,-2,-3,-2
1517206028545708,-2,8,-8,2,1,0,-1,0
1517206028545708,-2,-17,7,-8,-3,-2,0,-1
1517206028547196,0,3,-1,0,3,-1,-2,-3
1517206028547196,-1,4,-23,-2,-3,-2,-2,-2
1517206028559216,-5,8,10,6,-1,2,2,5
1517206028559216,0,13,20,1,1,1,-2,2
1517206028568712,-2,-22,-16,4,-3,-2,-2,-5
1517206028568712,-8,10,-7,-16,0,-3,0,0
1517206028583221,-4,-9,-2,-1,-1,-3,-3,-3
1517206028583221,3,6,4,11,3,2,1,6
1517206028584732,-15,3,4,-1,-1,-1,-3,-6
1517206028584732,0,5,29,8,-2,0,0,-1
1517206028605736,-2,-10,-15,-2,0,-3,-2,-4
1517206028605736,-3,-2,-4,-13,-2,-2,0,1
1517206028607247,6,4,5,-4,-4,-2,-2,0
1517206028607247,1,-13,-16,3,-2,-1,0,-2
1517206028619261,-3,9,27,7,2,-1,-4,0
1517206028619261,-9,-5,-17,-17,-4,-2,1,-1
1517206028628253,-2,0,-10,-3,1,0,-1,-2
1517206028628253,0,2,11,1,0,-1,-1,-1
1517206028642262,-1,-14,-13,-4,-1,-1,-2,-1
1517206028642262,2,1,-3,5,-1,-1,0,-2
1517206028649267,-2,1,-2,-5,-2,-3,-2,-2
1517206028649267,1,-4,-7,-1,-3,-1,0,3
1517206028665782,-2,0,6,-2,2,-1,-1,-3
1517206028665782,2,0,-10,4,0,0,0,-4
1517206028667285,-2,1,-1,-6,-2,-2,-2,-1
1517206028667285,-1,-4,-5,11,-1,-2,-1,-2
1517206028688310,2,-1,-6,-17,0,-1,0,0
1517206028688310,0,1,4,0,-1,-4,-1,-3
1517206028689796,2,1,-4,0,1,-1,-2,2
1517206028689796,-2,-2,-5,-3,-1,-2,-1,-1
1517206028703318,-1,2,8,5,-2,0,-1,-1
1517206028703318,2,-3,-21,-1,-1,0,0,0
1517206028704806,-2,4,15,0,1,1,-2,-1
1517206028704806,2,-6,-14,-17,-4,-2,-3,-1
1517206028725842,-1,-4,-7,-1,-3,-1,-1,0
1517206028725842,1,3,16,3,0,0,-1,-4
1517206028727329,-4,-1,-9,7,0,1,1,1
1517206028727329,-2,-2,-3,-6,-2,-2,0,0
1517206028748370,1,0,0,-2,-1,-1,1,0
1517206028748370,-1,1,-1,3,0,0,-1,0
1517206028749871,-1,-3,-2,-5,-2,-1,-2,-3
1517206028749871,1,-1,0,1,1,0,0,1
1517206028763380,-2,-4,-2,-3,-3,-4,-3,-4
1517206028763380,-1,0,4,3,1,1,1,1
1517206028764881,-1,-1,-5,0,-2,-2,0,-1
1517206028764881,-4,-1,1,-13,-2,-2,-2,-3
1517206028785903,0,0,0,3,0,-1,-1,0
1517206028785903,1,-1,-4,-4,-1,-1,-2,-2
1517206028787406,0,0,4,-3,0,0,1,0
1517206028787406,-1,-1,0,2,-1,-1,1,-3
1517206028808413,-3,-3,-6,-3,-2,-2,-2,-2
1517206028808413,1,-1,2,1,-1,-3,0,-1
1517206028809928,-1,0,-7,-4,0,0,0,0
1517206028809928,-3,-2,0,4,-1,-2,-2,1
1517206028822424,2,1,0,-4,-3,-1,-2,0
1517206028822424,-1,0,2,-1,-1,-1,-1,-1
1517206028829462,0,-2,-5,-3,-2,-2,-2,-2
1517206028829462,-2,-1,-1,0,-1,-1,1,-1
1517206028845978,-4,2,-2,1,0,2,-1,-3
1517206028845978,-2,-1,3,1,-2,-2,0,-1
1517206028847476,-1,0,0,-2,-1,-1,-2,0
1517206028847476,-1,1,0,1,1,-1,-3,1
1517206028868490,-1,-1,0,-1,1,-1,0,1
1517206028868490,-1,1,-1,2,0,-1,-2,0
1517206028870001,-2,-1,-3,-5,-2,-3,1,-2
1517206028870001,-2,-3,-3,0,0,-2,-2,-1
1517206028882499,0,-2,-1,0,-2,-2,0,-2
1517206028882499,0,-1,2,-1,-1,-2,-2,-1
1517206028889507,0,-1,-7,-2,-1,1,-2,0
1517206028889507,0,2,4,5,1,0,-2,-1
1517206028906017,-3,-2,-6,-4,-4,-4,-3,-1
1517206028906017,0,-2,1,0,-1,-1,1,-2
1517206028907521,0,-1,1,-1,-1,-2,0,-2
1517206028907521,-1,1,1,1,-1,0,0,0
1517206028928535,0,-1,-1,-2,0,2,0,0
1517206028928535,-1,-1,-3,-3,-2,-2,-1,0
1517206028930035,-1,-1,0,-1,0,-1,-1,-1
1517206028930035,0,0,-1,-1,-1,-3,-1,-1
1517206028942549,-1,0,0,0,0,0,0,-1
1517206028942549,-1,-1,-1,-2,1,-2,0,-1
1517206028949559,-2,-3,-6,-3,-3,-4,-1,-1
1517206028949559,-2,-1,1,-1,0,-1,0,0
1517206028966059,-1,0,0,-2,-1,0,-1,0
1517206028966059,-2,-2,-3,-1,-3,-1,-2,-3
1517206028967569,-2,-1,1,1,-1,0,-1,0
1517206028967569,-1,0,-2,-1,-2,-1,-1,-1
1517206028988580,0,1,0,0,-1,-1,0,0
1517206028988580,0,-2,-3,-5,-1,1,0,0
1517206028990092,-1,-2,1,-2,-2,-3,-1,-2
1517206028990092,-1,-2,-1,0,-1,0,-1,-1
1517206029002585,-2,-1,0,-1,1,-2,0,-2
1517206029002585,-2,0,0,0,0,-2,-2,-1
1517206029009589,-1,0,-1,-1,-2,-1,0,-1
1517206029009589,0,1,-1,1,-1,0,-1,0
1517206029025501,-1,0,-1,-1,-2,0,-1,-1
1517206029025501,0,-2,0,0,0,-1,-1,-1
1517206029027483,-1,-1,-1,-4,-3,-2,-1,-2
1517206029027483,-1,-3,-2,-2,0,-1,-1,-3
1517206029048495,0,-2,-3,-1,1,1,0,-1
1517206029048495,0,1,0,1,0,-2,-1,-1
1517206029050014,-1,-2,-1,-2,-2,0,0,0
1517206029050014,0,1,1,-2,-2,0,0,0
1517206029062508,0,-1,-1,-1,0,-1,-1,-1
1517206029062508,-2,-1,-2,-1,-1,-1,0,-2
1517206029069509,-1,-1,-2,0,0,-1,-2,0
1517206029069509,-1,-2,-1,-2,-1,-1,0,-2
1517206029086021,-1,-2,-1,-1,-1,-3,-1,-1
1517206029086021,-1,-1,-2,0,-1,0,-2,0
1517206029087521,-2,-1,0,0,-1,-1,-2,0
1517206029087521,-2,0,-1,-1,-1,1,1,-1
1517206029108537,-3,-2,0,-2,0,-1,0,-1
1517206029108537,-1,0,0,-3,-1,1,-1,-2
1517206029110037,1,-1,0,-1,0,1,-1,-1
1517206029110037,0,-3,-2,-1,0,-2,-2,-1
1517206029122561,-1,-1,-1,-1,-1,-2,-1,0
1517206029122561,-4,-3,-2,-3,-2,-3,-1,-2
1517206029129616,-2,0,0,-1,-1,0,0,-1
1517206029129616,-1,-1,-1,0,-2,-1,-1,0
1517206029145628,0,0,-2,-2,-1,-1,1,-1
1517206029145628,0,1,-1,-1,0,-2,1,0
1517206029147126,-1,0,-2,-2,1,-1,-1,-1
1517206029147126,0,-1,-1,-1,1,0,-1,-1
1517206029168179,-3,-2,-1,0,-1,1,-1,0
1517206029168179,0,-2,1,0,-1,-1,-2,0
1517206029170144,0,-3,-1,0,-1,-2,-2,-2
1517206029170144,-1,1,-1,-3,-1,-1,-2,-2
1517206029181652,-1,-1,-1,-2,-2,-1,-2,0
1517206029181652,0,-2,-2,-1,-1,1,0,0
1517206029190657,-2,-3,-1,-1,0,-1,0,-1
1517206029190657,-2,-1,-2,0,-2,-1,-1,-2
1517206029205668,-2,-5,-1,0,-1,-3,0,-2
1517206029205668,-3,0,-2,-2,-1,0,-1,-1
1517206029207169,-1,-1,-1,-1,-2,-2,0,0
1517206029207169,0,0,-1,-2,-3,-1,0,0
1517206029228196,0,-1,-1,-3,1,0,0,-1
1517206029228196,-1,0,-1,-1,-2,-1,-1,-1
1517206029229686,1,-1,0,-1,-1,1,-1,-1
1517206029229686,-1,-2,-1,-1,-1,1,0,-2
1517206029241707,0,-1,0,-1,-2,-2,-2,-3
1517206029241707,-1,0,1,0,0,-1,-1,-1
1517206029250700,0,0,-1,-1,-1,-1,-1,-1
1517206029250700,0,-2,-1,0,0,-1,-2,-2
1517206029265710,-1,-1,-2,0,-1,-2,0,-1
1517206029265710,1,-3,0,-1,0,-2,0,-2
1517206029267220,-1,0,-1,-2,-2,0,0,-1
1517206029267220,-1,0,-1,-2,-1,-3,-1,0
1517206029288283,-1,-1,-3,-1,0,0,-2,-1
1517206029288283,-2,0,-1,-1,0,1,-1,-2
1517206029289770,-1,-1,-1,0,0,-1,-2,-2
1517206029289770,-2,-2,0,0,-1,0,-1,-1
1517206029301791,-1,-1,-2,-3,0,-1,-2,-1
1517206029301791,0,-2,-1,-3,-1,-2,-1,-1
1517206029310787,-1,-1,0,0,-2,-2,0,-2
1517206029310787,0,-2,0,-1,-1,0,-1,-1
1517206029325837,0,-1,0,0,0,-1,-2,-1
1517206029325837,-1,-1,-2,-2,-2,-1,-2,-2
1517206029327299,-2,0,-1,0,-1,-1,-1,0
1517206029327299,-1,-2,0,-1,-1,-1,-2,0
1517206029348322,-3,-2,-3,-1,-2,-2,0,0
1517206029348322,-2,-2,-3,1,0,0,1,-1
1517206029349814,0,0,-1,1,-2,-2,0,-1
1517206029349814,-1,1,0,0,-1,-1,0,-1
1517206029361822,0,0,-2,-3,-1,0,-2,-2
1517206029361822,-1,0,-1,-3,0,-2,-3,-1
1517206029370828,1,-2,-2,-2,-1,-1,0,-2
1517206029370828,-2,-2,-3,-2,0,-2,-1,0
1517206029385882,-2,0,0,-1,-2,-2,0,-3
1517206029385882,-2,-1,0,1,-1,-1,-2,0
1517206029387375,0,0,-1,-1,-1,0,-1,-2
1517206029387375,0,-1,1,-2,-1,-2,0,-1
1517206029408406,-2,0,-2,-1,-1,-1,-1,-1
1517206029408406,-1,-1,-2,-1,-1,-2,0,-2
1517206029409886,-3,-1,-2,-2,-1,-1,-1,-3
1517206029409886,-1,-2,0,0,-1,-3,1,-1
1517206029421915,-2,0,-1,0,-3,-1,-1,-1
1517206029421915,-2,0,-3,0,-2,-1,0,-1
1517206029430904,-1,-2,-1,-1,0,-1,-1,0
1517206029430904,-1,-1,-3,-2,-2,-1,-3,-3
1517206029445922,-1,-1,0,-1,0,0,-1,-2
1517206029445922,1,0,-2,-2,-2,-3,-3,-1
1517206029447412,0,-1,-1,-3,-1,-1,-1,0
1517206029447412,-2,-1,-2,-1,0,-1,1,0
1517206029468444,0,-1,0,1,-1,-1,-1,-1
1517206029468444,-1,0,-1,-1,-4,-1,-1,0
1517206029469945,-3,-1,0,-1,-1,0,0,-1
1517206029469945,-1,-2,-3,0,0,0,-1,0
1517206029481937,0,-1,-1,0,0,0,0,1
1517206029481937,0,-2,-2,-1,-1,-1,-2,0
1517206029490944,0,-2,-3,-1,-2,-1,0,-1
1517206029490944,0,0,0,-2,-1,-1,-2,-1
1517206029505957,-2,0,-2,-1,0,-2,-1,-2
1517206029505957,-2,-3,0,-2,-1,-2,1,-1
1517206029507455,1,0,0,-1,0,-3,0,0
1517206029507455,-1,-1,-2,-1,-2,2,-1,-1
1517206029528491,-1,-2,-1,-3,-1,-2,-2,-1
1517206029528491,-2,0,-1,-1,0,0,-1,-3
1517206029529972,-2,-1,-1,-1,-1,-1,-2,-3
1517206029529972,-2,-1,-1,0,-1,-2,-3,-1
1517206029541980,1,-1,-1,-2,-1,-1,0,0
1517206029541980,1,-4,-1,-1,0,0,-1,-1
1517206029551000,-1,-1,-2,-2,0,-2,-1,-2
1517206029551000,0,-2,0,-2,-1,0,0,-1
1517206029565496,-1,-2,-3,-3,-1,-3,0,-1
1517206029565496,-1,-2,0,0,-2,-2,0,0
1517206029567498,1,0,-3,-1,0,-1,-2,-2
1517206029567498,-1,0,0,-1,-2,-3,0,-2
1517206029588522,0,-2,-2,-1,-1,0,0,0
1517206029588522,-2,0,-2,-3,0,-1,-1,-1
1517206029590028,-1,0,0,-1,-1,0,-1,-2
1517206029590028,-1,-2,0,-1,1,0,1,-1
1517206029610529,-1,-1,-1,-2,0,-2,0,-1
1517206029610529,-2,-2,-2,0,-1,-2,0,1
1517206029612529,-1,-2,-1,0,-1,0,-2,-1
1517206029612529,-1,0,-1,0,-1,-2,-1,-1
1517206029625548,0,-1,-2,-1,0,-1,-2,0
1517206029625548,-2,0,-1,-1,0,1,-2,-1
1517206029627041,-2,0,-1,-2,0,-1,1,-1
1517206029627041,-2,-2,-1,-1,-2,-1,-1,-1
1517206029648130,-3,-1,-1,0,0,-1,-2,-2
1517206029648130,-2,1,0,-1,-1,-1,-1,-1
1517206029649618,0,0,-3,0,-2,-1,0,-1
1517206029649618,-1,-2,-2,0,-3,1,-2,0
1517206029670704,-1,-1,0,-1,-2,-2,0,-1
1517206029670704,1,-1,-1,-2,-1,-1,-1,-2
1517206029672192,-2,-1,-1,-1,0,-1,-1,1
1517206029672192,-1,-1,-3,-1,-1,-3,-2,0
1517206029685710,-2,1,-1,-1,-2,0,-1,-2
1517206029685710,-1,-3,0,-1,-1,-1,-1,-2
1517206029687201,0,-2,-2,-1,-1,-2,0,0
1517206029687201,-3,-1,-3,-1,-1,-1,-1,-2
1517206029708256,-2,-1,-1,-1,-1,1,-2,2
1517206029708256,-2,-2,-1,-1,-1,-2,0,-1
1517206029709742,-1,0,0,0,-1,-1,-1,-2
1517206029709742,-1,-2,-1,0,0,-1,-1,-1
1517206029730787,0,-3,-1,-1,0,-1,-1,-2
1517206029730787,0,0,-1,0,0,0,0,0
1517206029732287,-3,-2,0,0,-2,-2,-1,-2
1517206029732287,-1,-2,-1,-1,-2,-2,0,-1
1517206029745830,-2,-2,-1,0,-1,0,-1,-2
1517206029745830,-1,-1,-3,-3,0,-1,-2,0
1517206029747331,-2,-1,-1,-1,0,1,-2,-1
1517206029747331,-1,0,0,-2,-1,0,-2,-2
1517206029768351,0,-2,-2,-1,-2,0,-2,-1
1517206029768351,-1,-1,0,-2,-2,-1,1,-1
1517206029769863,-1,0,-2,-1,-2,-1,-1,-2
1517206029769863,0,1,-1,-1,-1,-1,0,-1
1517206029790876,-2,-1,-1,-1,-2,-1,0,-1
1517206029790876,0,-1,-2,0,-1,0,0,-2
1517206029792364,-2,-1,-2,0,-1,-1,-3,0
1517206029792364,-1,-2,0,-1,0,-1,-3,0
1517206029804872,-2,0,-1,-1,-1,0,-1,-1
1517206029804872,-1,-2,0,-1,-1,-2,-2,1
1517206029812379,-1,-2,-1,-2,-1,0,1,-1
1517206029812379,-1,-1,-2,0,0,-2,-1,0
1517206029828390,-1,0,-1,1,-1,-2,0,0
1517206029828390,-2,-1,-1,-2,-1,-1,-1,-1
1517206029829891,-1,0,0,-1,-2,-1,0,-2
1517206029829891,-2,-2,-2,-1,-2,0,-1,-3
1517206029850403,1,0,0,-3,-1,-1,-1,-2
1517206029850403,0,-2,0,1,1,0,-1,-1
1517206029852405,0,-1,0,0,-1,-1,-2,0
1517206029852405,0,-1,-2,-1,-2,-1,0,-2
1517206029864917,0,-2,-2,0,-1,-2,0,-1
1517206029864917,-1,-1,-2,-2,0,-2,-2,-1
1517206029871942,-2,-3,-2,-2,-2,-2,0,-2
1517206029871942,-3,-1,0,1,0,-1,-2,-1
1517206029888430,-1,-1,-2,-2,1,-3,-1,-2
1517206029888430,-2,0,-2,1,-2,-1,-2,0
1517206029889947,-1,-2,-1,0,1,-1,-1,-1
1517206029889947,0,-2,-2,-2,-1,2,-1,1
1517206029910946,0,-1,-1,-1,0,-2,1,-1
1517206029910946,-2,-2,-2,0,-1,-1,-1,-2
1517206029912447,-1,-1,-1,-2,-2,0,-2,-2
1517206029912447,0,-1,-2,-1,-2,-2,-2,-1
1517206029924477,0,-2,-1,-1,-2,-1,-2,-1
1517206029924477,0,-1,-2,-2,-1,-1,-1,0
1517206029933485,-1,-3,-1,0,-2,-2,-2,-1
1517206029933485,-1,0,0,-1,-1,0,2,0
1517206029948474,-2,-1,-1,-2,-1,0,-2,-2
1517206029948474,0,0,1,0,-2,-2,-1,-1
1517206029949984,0,-1,-2,-2,0,-2,-2,0
1517206029949984,0,-2,-1,-2,-1,-4,-1,-3
1517206029970511,0,-2,0,-1,-2,-2,0,0
1517206029970511,-2,-2,0,-2,0,-1,-1,-1
1517206029972500,-1,-1,0,-2,-1,-2,0,0
1517206029972500,-1,0,-1,-1,-1,-2,-2,0
1517206029984999,-1,-2,-2,1,-2,0,-1,-1
1517206029984999,-2,-2,-2,0,0,0,-2,-2
1517206029992007,-2,0,-1,0,-1,0,0,0
1517206029992007,-1,-1,-2,-1,0,-1,-1,-1
1517206030008525,-3,-2,-1,1,0,-2,-3,-1
1517206030008525,-1,0,0,-1,-2,-2,-1,0
1517206030010016,-1,-3,-1,-1,0,-1,0,-2
1517206030010016,-1,0,-1,-1,0,-2,-1,0
1517206030030035,-1,0,0,-2,-1,-1,-1,0
1517206030030035,0,-1,-1,0,1,1,0,-1
1517206030038551,-1,0,-1,-1,-1,0,-1,-1
1517206030038551,-2,-2,1,-1,0,0,-1,-2
1517206030045044,-1,0,0,-1,-1,-1,0,-1
1517206030045044,-2,-1,-1,-1,-2,-2,-1,-3
1517206030052059,-1,-1,-2,-1,0,-3,-1,-2
1517206030052059,-1,-1,-3,-1,0,-2,0,1
1517206030068057,-1,0,-2,-1,-1,-1,1,0
1517206030068057,-1,-2,-2,0,0,2,0,-1
1517206030070062,-1,-1,-1,-2,0,0,-1,-2
1517206030070062,-1,-2,-1,1,-1,1,-2,-1
1517206030090576,-1,0,0,-1,0,-2,-2,-1
1517206030090576,-1,-6,-4,-1,-1,-2,0,0
1517206030092074,0,6,5,-1,-2,1,0,-1
1517206030092074,0,-1,0,0,-1,-1,0,-1
1517206030104583,1,-1,0,-2,0,1,-1,-1
1517206030104583,-2,-1,-1,-2,-3,-4,-1,-1
1517206030113590,0,-2,-2,-1,1,0,-2,0
1517206030113590,-2,1,-2,-2,-2,-2,-1,-2
1517206030128101,-2,-1,-2,-2,-1,-1,-2,0
1517206030128101,1,0,1,-1,-2,-1,-1,-2
1517206030130101,-2,-3,-1,-1,-2,-2,-1,-1
1517206030130101,0,-1,-1,-2,-2,-2,-1,-1
1517206030150616,-1,0,-3,-1,-2,-1,-1,-1
1517206030150616,-2,0,-1,-1,0,-2,-2,1
1517206030152117,-2,-2,-2,-1,0,-1,0,0
1517206030152117,-3,-3,-2,-1,-2,0,-1,-2
1517206030164167,-1,-3,-1,-2,-1,0,0,-1
1517206030164167,0,-1,-1,-1,-3,0,0,-1
1517206030173172,-1,0,-1,-1,0,-1,-1,1
1517206030173172,0,-2,-3,-2,-1,-3,0,0
1517206030188209,-1,-4,-1,0,-1,-1,-1,-2
1517206030188209,-1,-1,-2,-2,-1,-1,0,-4
1517206030189674,-1,-1,-2,-1,1,-2,-2,0
1517206030189674,-2,-1,-1,0,-1,-1,0,0
1517206030210732,-1,2,0,-1,0,-1,0,-2
1517206030210732,-1,-1,0,-2,0,0,0,0
1517206030212225,-2,-1,-2,0,0,-1,-2,-1
1517206030212225,-1,-1,-1,-1,0,-1,-2,-2
1517206030224254,0,0,-3,-1,-2,-4,0,0
1517206030224254,-1,-3,-1,-1,-3,-3,-1,-1
1517206030233238,-1,-1,-1,-1,-1,0,0,-1
1517206030233238,0,-1,0,-1,0,-2,-1,-2
1517206030248249,0,-3,0,-1,-1,0,-2,0
1517206030248249,-2,1,-1,-1,1,1,-1,0
1517206030249750,-1,-3,-4,-1,-2,0,-1,-1
1517206030249750,-1,-1,-1,0,-2,1,-1,0
1517206030270785,0,-2,-2,-1,0,0,0,-1
1517206030270785,-2,-1,-1,-1,-2,0,-2,-1
1517206030272289,-1,0,-1,-1,-1,-2,0,0
1517206030272289,0,0,-1,-2,0,-1,-2,0
1517206030284273,-2,-2,-1,-3,0,0,-1,0
1517206030284273,0,-1,-1,0,0,-2,-2,-1
1517206030293279,0,-1,-2,-2,-1,-3,-3,-1
1517206030293279,-1,-1,-2,-2,-2,-1,0,0
1517206030308306,0,-2,-2,-1,-1,-1,0,-1
1517206030308306,-1,0,1,-2,-2,-1,-1,-2
1517206030309792,0,-1,0,-1,-3,-1,-1,-1
1517206030309792,0,1,-1,-2,-2,-1,-1,-1
1517206030330809,-2,0,-3,0,-2,1,-1,-3
1517206030330809,-1,-2,-1,0,-1,-2,-2,0
1517206030332320,-1,-2,0,-1,-1,-1,-1,-2
1517206030332320,-1,-3,-2,-2,0,-1,-2,-2
1517206030344317,-1,-1,-1,-2,-3,-1,0,0
1517206030344317,-1,0,-1,-2,0,0,0,-2
1517206030353323,0,-2,-1,-1,1,0,-1,-2
1517206030353323,-1,-3,0,0,0,-2,0,-1
1517206030368336,0,0,-1,-1,0,-3,-1,-2
1517206030368336,0,-2,-2,-1,-1,-2,-1,-2
1517206030369837,-1,-2,-1,-1,-1,0,-3,0
1517206030369837,-1,-1,-1,0,-2,0,0,-2
1517206030390852,0,-2,-1,1,-1,-1,0,0
1517206030390852,0,0,-3,-2,-1,0,0,-1
1517206030392351,-2,1,-1,0,-2,0,1,0
1517206030392351,-2,0,0,-1,-2,-1,-3,-1
1517206030404368,-2,-1,-1,-1,0,-2,-3,0
1517206030404368,-1,-1,-1,0,-1,-1,-2,0
1517206030413365,-1,-1,0,-1,0,0,-1,-1
1517206030413365,0,-2,-3,-2,-1,-2,-1,-2
1517206030428376,1,-1,0,-2,-1,0,-1,-1
1517206030428376,-2,-1,-2,-2,-1,0,-1,0
1517206030429878,-1,0,-1,-1,-2,-1,1,-2
1517206030429878,-1,-1,1,-1,-1,-1,-2,-1
1517206030450891,-1,0,0,0,0,0,0,0
1517206030450891,-1,-2,1,0,-1,-1,0,-2
1517206030452394,-1,-1,-1,1,0,-2,-2,-1
1517206030452394,0,0,-2,-2,-2,-2,-2,-1
1517206030464402,-1,-2,-2,-1,-3,0,-2,-1
1517206030464402,0,0,-3,0,-1,-1,1,-1
1517206030473430,1,1,-2,-2,-2,-1,-2,-1
1517206030473430,-2,-1,-2,0,0,-2,-1,-2
1517206030488420,-2,0,-1,-1,0,-2,0,-1
1517206030488420,-2,0,-1,-1,-2,-3,-2,-1
1517206030489933,-2,-3,-1,0,-1,-2,0,-1
1517206030489933,0,-1,1,-1,-1,0,0,-1
1517206030510941,-1,-1,0,0,0,-1,-1,-1
1517206030510941,-1,-1,-2,-1,-1,0,-2,-1
1517206030512453,-2,-1,-2,-2,0,-2,0,0
1517206030512453,-3,1,-1,-2,0,-1,-2,0
1517206030524446,-2,-1,-2,-1,-1,1,-2,0
1517206030524446,0,-2,-2,-2,-1,-2,-1,-1
1517206030533468,0,-2,-2,-1,-2,-1,0,-1
1517206030533468,1,-1,-1,0,0,-2,0,0
1517206030555966,-3,-1,-2,-1,-1,0,-3,-1
1517206030555966,-1,-2,0,-2,-1,1,-2,-1
1517206030557467,-1,-1,-1,-2,-2,-1,-2,-2
1517206030557467,-2,-1,0,0,-2,1,0,0
1517206030570985,0,0,-1,-1,-1,-2,-1,0
1517206030570985,0,0,0,-1,-1,-1,-1,-1
1517206030572498,-2,0,-1,-1,-1,1,-2,1
1517206030572498,-2,-2,-1,-1,0,-2,0,0
1517206030592994,-1,0,-1,-1,-2,-1,-1,-1
1517206030592994,-2,-2,0,0,0,0,-1,-1
1517206030594996,-1,0,-1,-2,0,-1,1,-3
1517206030594996,0,-3,-2,0,-2,0,-2,0
1517206030607503,-1,-1,-1,1,-1,-2,0,-1
1517206030607503,0,0,-2,0,-1,-1,0,2
1517206030622013,0,1,0,-2,-2,0,-1,0
1517206030622013,-2,-1,-2,-1,-1,0,0,-2
1517206030631020,-1,0,0,-2,-1,1,-1,0
1517206030631020,-1,0,0,-1,1,-1,-1,-1
1517206030632522,-1,-2,-1,1,0,-4,-1,-2
1517206030632522,-1,0,-2,-1,-1,1,0,-3
1517206030653036,-1,-2,-1,-2,-2,0,-1,-2
1517206030653036,-2,0,-1,0,-2,1,-1,0
1517206030655037,-1,-2,0,-2,-1,-2,0,0
1517206030655037,0,-1,-2,-2,-1,-1,0,-2
1517206030668045,-1,0,-2,-1,-2,0,-1,-2
1517206030668045,-1,-1,0,-1,-1,-1,-1,0
1517206030670046,-2,-1,-1,0,-1,-1,0,-2
1517206030670046,-1,0,2,1,-2,-2,-3,-2
1517206030690581,-2,-1,0,-2,-1,-3,-1,-2
1517206030690581,-2,0,-1,-1,-2,0,0,-2
1517206030692062,-1,-1,-2,0,-1,0,-1,0
1517206030692062,1,-2,0,-1,-1,-1,0,-1
1517206030713076,-3,-3,-1,-2,0,-1,-1,-2
1517206030713076,1,-1,-1,0,-1,-1,-1,0
1517206030715081,-1,-2,-2,-2,-1,-1,-2,-1
1517206030715081,0,-2,-1,0,-2,-1,-1,-1
1517206030727589,1,-1,0,0,-2,-1,-2,-1
1517206030727589,0,-2,0,-2,-1,-2,-2,0
1517206030734108,-2,0,-1,0,0,0,0,1
1517206030734108,-1,0,-1,-2,-1,-1,0,-2
1517206030750603,0,-1,-2,-2,-1,-2,0,-1
1517206030750603,-1,-1,-1,-1,-1,-1,0,-1
1517206030752605,-1,0,0,0,-1,0,-2,-2
1517206030752605,-1,0,-3,-2,-1,-3,-2,-2
1517206030773141,-3,-2,0,0,-1,-1,2,1
1517206030773141,-1,-2,-1,-2,-2,-1,-1,-2
1517206030775121,-1,-2,-1,-1,-1,-1,-2,0
1517206030775121,-2,0,0,-1,-1,-1,-2,0
1517206030787632,0,-1,-2,-1,-2,-2,-3,-2
1517206030787632,-1,-1,-2,-2,-2,-2,-1,-3
1517206030794636,0,0,-1,-2,-2,-2,-1,-1
1517206030794636,-2,-1,-1,1,1,0,-2,0
1517206030811148,0,-1,-1,0,0,-2,-1,-1
1517206030811148,-1,-1,-1,0,0,-2,0,-1
1517206030812148,0,-1,-1,-1,-2,-1,-1,-2
1517206030812148,-2,-1,0,-2,-2,0,1,1
1517206030833170,-1,-1,1,-2,-2,-1,-1,-2
1517206030833170,-2,-1,-1,0,-2,-1,0,-1
1517206030834662,0,-1,-1,-2,1,0,-1,-1
1517206030834662,-2,0,-2,0,-1,-1,-3,-1
1517206030847672,-1,1,-1,-2,0,-1,-2,0
1517206030847672,0,0,0,0,-1,-2,-3,-1
1517206030854179,-2,-1,-1,-1,-2,-1,-1,0
1517206030854179,-1,-1,-1,0,-3,0,-1,-1
1517206030871210,-1,-2,-2,-4,0,0,-1,0
1517206030871210,-2,-1,-2,-2,-2,0,-2,-1
1517206030872707,-2,0,-2,-1,-2,-2,-1,1
1517206030872707,0,-1,-1,-2,-1,-1,-2,-1
1517206030893257,-2,-2,0,1,0,1,-2,0
1517206030893257,-1,-1,0,-1,0,-1,0,-1
1517206030894758,-1,-1,0,-3,-1,-2,-1,-4
1517206030894758,-2,-2,-1,-1,-3,-1,0,1
1517206030907767,0,0,0,1,-1,0,1,-1
1517206030907767,-1,-1,-1,-1,-1,-2,-4,-2
1517206030914272,-2,-3,-1,-2,-3,-3,-3,-2
1517206030914272,-1,-1,0,-1,0,-1,0,-2
1517206030930787,-2,0,-2,-2,-1,1,-1,-1
1517206030930787,1,0,-2,-1,1,-2,1,0
1517206030932324,0,0,-2,-1,0,-1,-1,0
1517206030932324,-1,-1,-1,-1,0,-2,-2,-1
1517206030953299,0,-2,-2,-1,-1,-3,-2,-1
1517206030953299,-1,-1,0,-1,0,-2,-1,0
1517206030954799,-2,-2,-2,-2,-1,0,1,0
1517206030954799,-1,-1,-1,0,-2,-2,0,-1
1517206030967308,-1,-1,-3,-2,-2,-2,0,-2
1517206030967308,-1,-1,-2,-1,-2,1,-1,-2
1517206030974316,1,0,1,-1,-1,1,-1,0
1517206030974316,0,0,-3,-1,-2,-1,-1,0
1517206030990846,-2,-2,-1,0,-1,-1,-1,0
1517206030990846,-1,-1,-1,-1,-2,0,-1,0
1517206030992326,-2,-3,-1,-1,-1,-1,-1,-1
1517206030992326,0,0,-2,1,-2,0,-1,-1
1517206031013341,-2,-1,0,-2,-1,0,-1,-1
1517206031013341,-2,-1,0,-1,1,-1,-2,0
1517206031014843,-1,0,0,-1,0,-2,-1,-2
1517206031014843,-1,-2,-1,-3,1,-3,-1,-1
1517206031027351,-2,1,-3,0,-1,-1,-1,-2
1517206031027351,-1,-2,-2,0,-2,-1,-1,-1
1517206031034356,0,0,-2,0,-2,0,-1,-1
1517206031034356,1,0,-1,-2,1,0,1,0
1517206031050869,1,-2,0,-2,-1,-3,-1,-1
1517206031050869,-2,-3,-3,-2,-2,-1,1,-1
1517206031052370,-2,-2,1,0,-2,-2,-1,-1
1517206031052370,-1,-2,-1,-1,-2,0,-1,-2
1517206031073384,-1,0,0,0,1,0,0,-1
1517206031073384,-1,-1,-1,-1,-3,0,-2,-1
1517206031074899,-1,-1,0,-1,0,-1,0,-2
1517206031074899,-3,0,-1,0,-1,0,-1,-2
1517206031086893,0,0,-1,-3,0,-3,-2,1
1517206031086893,-1,0,-2,0,-1,-3,-1,-2
1517206031095902,-1,-1,-1,-1,-1,-1,-2,-1
1517206031095902,-1,-2,0,-4,0,-2,-2,-1
1517206031110912,-2,0,-2,1,0,-1,-1,-2
1517206031110912,-2,-1,0,0,-1,-1,-1,-1
1517206031112411,0,-1,-2,0,-1,-1,-1,0
1517206031112411,0,-1,0,-1,-2,-1,0,-2
1517206031132925,-1,-3,0,-2,0,-1,-1,0
1517206031132925,-1,-2,0,-2,-1,-2,0,0
1517206031139931,-2,-1,-1,-1,0,-1,-1,-1
1517206031139931,-1,0,-2,0,-1,-1,-1,0
1517206031146937,0,-3,-1,1,-1,0,-1,0
1517206031146937,0,1,0,-1,0,-1,-1,-1
1517206031155942,-2,-1,-1,-1,0,-1,-1,-1
1517206031155942,-2,-1,0,-1,0,-2,0,0
1517206031170455,1,-1,-1,-1,-2,0,-1,-1
1517206031170455,0,-2,-1,-2,-2,0,-1,-1
1517206031172454,-1,-2,-1,-1,-1,-1,-1,1
1517206031172454,1,-2,0,-1,-1,1,-1,-1
1517206031193018,0,-1,-1,0,-1,0,0,-1
1517206031193018,-2,-1,-2,-1,-1,-2,-2,-1
1517206031195009,-1,0,-2,-3,-1,0,-1,-1
1517206031195009,-2,-2,-2,1,-1,-2,-1,0
1517206031216026,-2,-2,0,-1,-1,-1,0,-2
1517206031216026,-1,-2,0,-1,-1,1,-1,1
1517206031217526,-2,0,-1,-1,-3,0,0,-1
1517206031217526,1,-1,-2,-1,0,-1,-2,-1
1517206031230547,1,-2,-1,-1,-2,0,-2,-3
1517206031230547,-1,0,-1,0,-1,0,-1,-1
1517206031232545,0,-1,-2,-2,-1,-3,-1,-1
1517206031232545,-1,-1,-1,-1,0,-1,-1,-1
1517206031253063,-2,1,-1,-1,-1,-2,-1,0
1517206031253063,0,-2,-1,0,-1,-2,-2,-2
1517206031255053,1,-3,1,-1,1,-1,-1,0
1517206031255053,-1,-1,-1,-1,-1,1,0,-1
1517206031267144,-1,-2,0,-1,-1,0,-1,0
1517206031267144,-2,0,0,-3,0,1,-1,0
1517206031276146,-1,0,-1,-1,-1,0,1,0
1517206031276146,-1,-1,-2,0,-1,-2,-1,-1
1517206031290694,0,-1,-2,-2,0,-2,-1,-1
1517206031290694,-1,0,-1,-2,-1,-3,-1,-1
1517206031292158,-2,0,-1,1,-1,0,0,-1
1517206031292158,0,-3,-1,-2,0,-1,-1,-1
1517206031313181,-2,0,-2,-1,1,-1,-1,0
1517206031313181,-1,-1,-1,-1,-2,-1,0,-1
1517206031314673,-1,-1,-1,-1,-1,-1,-3,-1
1517206031314673,0,-2,-3,0,-1,-1,0,-2
1517206031326704,-2,-2,-2,0,-2,-3,-1,-2
1517206031326704,0,-1,-3,0,-3,0,-1,0
1517206031335697,-1,-2,1,-1,-1,0,0,-3
1517206031335697,-1,-1,-1,-1,0,0,-2,-2
1517206031350699,-1,-1,-2,-1,-2,0,0,0
1517206031350699,0,0,-1,0,0,-1,0,-2
1517206031352200,-1,0,-1,0,-1,0,0,-2
1517206031352200,-2,0,-1,-1,-1,-2,-1,-2
1517206031373217,0,-1,-1,-3,-2,-2,-1,-2
1517206031373217,-2,-2,0,0,0,0,-1,-1
1517206031374715,-2,-1,-2,-3,-2,-1,-1,2
1517206031374715,-2,0,-2,-1,-1,-2,0,-2
1517206031387277,-2,-1,-1,-2,0,-1,-1,1
1517206031387277,-2,-2,1,-3,0,0,-2,-1
1517206031395811,-1,-1,-1,0,-2,-1,0,0
1517206031395811,-1,-1,-1,-1,-2,-2,-2,2
1517206031410824,-2,0,0,0,1,1,-2,-1
1517206031410824,0,-3,-1,0,-1,-1,-2,-1
1517206031418328,-1,-2,0,-1,-1,-1,-1,-1
1517206031418328,-1,0,-2,-1,-1,0,0,0
1517206031433360,0,-2,-2,0,-1,-2,-1,-1
1517206031433360,-1,-1,0,-3,-1,0,-1,-1
1517206031434849,-2,-3,-1,-1,0,-3,-1,-3
1517206031434849,-1,-1,-1,-1,-2,-2,-1,-1
1517206031446848,0,0,0,0,-1,0,-1,1
1517206031446848,-1,0,-1,0,-1,-3,-1,-1
1517206031455854,-2,0,-2,-1,-2,-1,-1,0
1517206031455854,-1,-1,1,-1,-1,1,-1,-1
1517206031470875,-3,-3,-1,-1,-1,-3,-1,-2
1517206031470875,1,-1,-2,-2,-2,1,-1,-1
1517206031472372,-2,-3,-2,-1,-1,-1,-2,-1
1517206031472372,1,-2,-1,-1,0,0,-1,0
1517206031492880,1,-2,0,-3,-2,-2,-3,-2
1517206031492880,0,0,-1,0,-1,1,-2,-2
1517206031494883,-1,1,-2,-1,-1,-2,-1,0
1517206031494883,0,-1,-1,-2,-2,-1,0,1
1517206031515898,-1,0,-1,0,-1,0,0,-1
1517206031515898,0,-1,-1,0,0,-1,0,-1
1517206031517475,-1,-1,1,-1,-1,-1,-3,-2
1517206031517475,-2,-1,-2,0,-1,-2,-2,-2
1517206031530485,-2,0,-3,1,0,-2,-1,-1
1517206031530485,-2,0,-2,0,0,0,-1,0
1517206031532486,-1,-1,-3,0,-2,1,0,0
1517206031532486,0,-2,-2,-2,0,-2,-2,-1
1517206031553037,-1,-2,-1,-1,0,0,-2,0
1517206031553037,-1,0,-1,-2,-1,-1,1,-1
1517206031555040,-1,-2,-1,0,0,-1,0,-2
1517206031555040,-2,0,-2,0,-2,-1,-2,0
1517206031575578,-1,-2,-2,-2,-1,-3,-1,-2
1517206031575578,-1,-3,-1,0,0,0,-1,-1
1517206031577055,-1,-2,-1,-3,-1,-1,1,-1
1517206031577055,-2,0,-1,-1,0,1,0,-3
1517206031590583,0,0,-1,0,-3,0,0,-3
1517206031590583,-3,0,-1,-1,-2,-1,0,1
1517206031592067,-2,0,-2,0,-1,0,-2,0
1517206031592067,-1,-1,-1,-1,-2,-1,-1,-3
1517206031613119,0,-1,0,0,-2,0,0,-1
1517206031613119,0,-1,-2,1,-2,-2,-1,-2
1517206031615121,0,-1,-2,-1,-2,0,-2,-1
1517206031615121,-1,-2,0,-3,-1,-1,-1,0
1517206031635659,-3,-1,0,-3,0,-1,-1,0
1517206031635659,-1,-1,-1,-2,0,-1,-1,-1
1517206031638137,0,-1,-1,0,-1,0,0,-1
1517206031638137,0,-1,-3,0,-1,-2,1,1
1517206031650146,-2,-2,0,-3,0,-3,0,-2
1517206031650146,-2,-4,-2,0,-1,0,-1,-1
1517206031656650,-1,-2,-2,0,-1,-1,-1,-2
1517206031656650,-1,-1,-1,0,-1,0,-1,-2
1517206031673184,0,-1,-2,-1,-1,-1,-2,0
1517206031673184,-1,-1,-1,-1,-2,-2,-1,-2
1517206031674683,-2,-2,-2,-1,0,-1,-1,-1
1517206031674683,0,-4,-1,-1,0,-2,-2,-3
1517206031695678,-2,-1,-2,0,-1,-1,0,0
1517206031695678,-1,1,-1,-1,-1,-1,-2,-1
1517206031701695,-2,0,-1,-2,-1,-1,0,-1
1517206031701695,-2,0,0,0,-2,-1,-2,0
1517206031710206,1,-1,-3,0,-1,-1,-1,0
1517206031710206,-1,0,0,-2,-1,-1,-1,-1
1517206031716693,0,0,0,-1,-1,-1,-2,-2
1517206031716693,-1,0,0,0,-1,-2,0,0
1517206031733269,-1,0,0,-2,-2,0,-1,-1
1517206031733269,-1,-2,-1,0,0,-3,-3,1
1517206031734740,-2,-1,-1,-2,-1,-1,-1,0
1517206031734740,-1,-1,-1,-2,0,0,-1,-2
1517206031754788,0,0,-1,0,0,-1,-1,-1
1517206031754788,0,-1,-2,-2,-2,-1,0,0
1517206031755786,0,-1,1,0,-1,-1,0,-2
1517206031755786,-1,-2,-1,-1,0,-2,-1,-1
1517206031769309,-1,-1,-1,-1,0,0,-1,-2
1517206031769309,-2,0,0,-1,-1,0,-1,-2
1517206031777802,0,-1,-1,0,0,-2,-1,0
1517206031777802,-2,0,-1,-2,-1,0,0,0
1517206031792311,-2,-1,-1,-1,0,-1,-2,-2
1517206031792311,-3,-1,-1,-2,0,0,-1,-2
1517206031793312,0,-3,-1,-1,-1,0,-1,-1
1517206031793312,-1,-3,0,0,-1,-1,-2,0
1517206031815831,0,-1,-1,-2,-2,-1,1,-2
1517206031815831,0,0,-2,1,-1,0,1,0
1517206031816329,-2,1,-2,1,-1,-1,-2,-1
1517206031816329,-1,-1,-1,-1,-2,-1,-2,-1
1517206031829338,0,-1,0,-1,1,0,-2,-1
1517206031829338,0,-2,0,1,-1,-1,-2,0
1517206031837344,0,-1,-3,-1,-1,0,-2,-1
1517206031837344,0,-1,-2,-1,-1,-2,-1,-2
1517206031852354,-2,1,0,0,-2,-1,-1,0
1517206031852354,-1,-3,0,-1,-1,-2,-1,-1
1517206031853354,-2,-3,0,-2,-2,0,-2,0
1517206031853354,-2,-1,-2,-2,-2,0,0,0
1517206031874891,-1,-1,0,-1,1,-2,-2,-3
1517206031874891,-1,-2,-1,0,-2,-2,-2,-3
1517206031875893,1,0,0,0,-1,-2,0,0
1517206031875893,-2,0,0,-1,0,-1,-3,-3
1517206031889383,0,-1,-1,-1,-2,1,0,1
1517206031889383,-1,0,-3,-1,-1,0,-1,-1
1517206031897387,-2,-1,-1,-2,0,0,-1,-3
1517206031897387,-2,-1,-2,-1,-1,0,-2,0
1517206031912396,-2,-2,-1,-1,-1,-2,-1,-1
1517206031912396,-1,-1,-2,0,1,-1,0,-2
1517206031913398,-2,-1,-1,-1,0,-2,0,-1
1517206031913398,0,-2,-1,-1,0,-1,-1,-1
1517206031934982,-1,-1,-1,-1,0,-1,-1,-1
1517206031934982,0,0,1,-1,-1,-2,-1,0
1517206031935979,-2,-2,-1,-1,-2,0,0,-1
1517206031935979,-2,0,-2,0,-3,0,-2,-3
1517206031950971,0,0,0,0,-2,-1,-1,-1
1517206031950971,0,-2,0,-2,0,-2,-2,-2
1517206031957475,0,1,-2,0,-1,-2,-2,-1
1517206031957475,1,-1,-2,-1,-2,0,0,-2
1517206031972507,0,-1,-2,-2,-1,-1,-2,0
1517206031972507,0,-1,0,0,-2,0,-1,-2
1517206031973487,-1,-2,0,-1,0,0,0,-2
1517206031973487,-1,0,0,-1,-2,-1,-1,-2
1517206031995003,-1,-1,-2,-2,-2,-1,-1,-1
1517206031995003,-3,-2,-3,-1,1,1,-1,0
1517206031996013,-3,0,-1,1,-1,-2,-1,-1
1517206031996013,-1,0,-2,-1,-1,-2,-1,-1
1517206032009012,-1,0,-1,-2,-2,-2,-1,-3
1517206032009012,0,0,-1,-2,0,0,-2,1
1517206032017517,-1,-1,-1,-2,-1,-1,-2,-3
1517206032017517,0,1,-2,-2,0,0,0,0
1517206032032542,-3,-2,-2,-2,-1,0,1,0
1517206032032542,-1,0,-1,-1,-3,-1,-1,-1
1517206032033030,1,-2,-1,-2,-1,-1,-1,1
1517206032033030,-1,-2,-1,-1,-2,-1,0,0
1517206032055045,0,-2,-1,-1,0,1,-3,-1
1517206032055045,0,-1,-2,0,0,-1,-2,-1
1517206032055554,-2,-1,-1,-2,-3,-2,-2,-1
1517206032055554,0,-2,-3,-1,-1,-2,-1,-1
1517206032069067,-1,-1,-1,-1,-1,-1,0,-1
1517206032069067,-2,-2,-3,-2,0,-2,0,-2
1517206032077562,0,0,-1,0,-3,-1,-2,-2
1517206032077562,-1,-2,-1,-1,-1,-2,1,0
1517206032092571,-1,0,-2,-1,-1,0,-2,-2
1517206032092571,-2,-3,0,-1,-1,-1,0,1
1517206032093071,1,-1,-2,-2,-1,1,-1,-1
1517206032093071,0,-2,-2,-2,-1,0,-2,-1
1517206032115088,-1,-1,-1,1,-1,-2,0,1
1517206032115088,-2,0,-1,-1,-2,-1,-2,-2
1517206032116088,-2,-1,-2,-1,0,-1,-1,0
1517206032116088,-1,-1,0,-3,-1,-1,0,-1
1517206032129649,0,-2,-1,0,-2,-2,-1,-3
1517206032129649,-1,-1,-1,-2,1,-1,-1,0
1517206032137654,-1,-4,-1,0,-2,-1,-1,-2
1517206032137654,0,1,1,-1,-1,0,-3,-2
1517206032152172,-1,0,-1,0,-1,-1,0,-1
1517206032152172,-1,0,0,-1,-2,-2,-2,-1
1517206032153164,-1,-1,-1,0,0,-2,0,0
1517206032153164,-1,0,0,-1,-1,-2,1,-1
1517206032175192,-3,-1,-2,-2,-2,0,-1,0
1517206032175192,-1,-3,-1,-1,-1,1,-2,-1
1517206032175681,0,-2,-2,-2,-2,-1,-1,-1
1517206032175681,-1,-2,1,0,-3,0,0,0
1517206032189193,-1,0,-1,-1,0,-2,-2,-1
1517206032189193,-1,1,-1,-1,-1,0,0,-1
1517206032197700,-1,-1,-1,-2,0,0,-1,0
1517206032197700,0,-2,-1,0,1,-2,0,-1
1517206032212710,-1,-1,0,-1,-1,0,-1,0
1517206032212710,0,-2,1,-2,0,0,-2,-1
1517206032213211,1,0,0,-2,-1,0,-1,-2
1517206032213211,-2,-2,-2,-1,0,-2,-2,-1
1517206032234723,-1,-3,0,0,0,-3,-1,0
1517206032234723,-2,-1,-1,-2,-1,-1,0,-2
1517206032235726,-1,0,-1,-1,-2,-1,-1,-1
1517206032235726,-1,-1,0,-2,-2,1,-1,0
1517206032249245,-2,-3,-1,-1,-2,-1,-2,0
1517206032249245,-2,-1,-2,1,-1,-1,-1,-3
1517206032257755,-1,-2,0,-1,1,0,0,-1
1517206032257755,-1,-1,-1,-2,-1,1,1,-1
1517206032272749,-2,-1,-3,-1,-2,-1,-1,-3
1517206032272749,-1,-1,-1,-1,-1,-2,1,0
1517206032273250,-2,-1,-1,0,-1,0,-2,-1
1517206032273250,0,0,-1,0,-1,-2,-1,-1
1517206032295267,-1,-1,0,0,-2,1,0,-2
1517206032295267,-1,0,-1,-1,0,0,-3,-2
1517206032295771,-2,-1,-2,-1,0,-2,1,-1
1517206032295771,1,1,-1,-1,0,-2,-1,1
1517206032309278,0,-1,0,-1,-1,-1,0,0
1517206032309278,-1,0,-2,1,-2,-1,0,0
1517206032317333,-1,-1,-1,-1,-1,-2,-2,-2
1517206032317333,0,-1,-2,-2,-1,-1,-1,-1
1517206032332344,-1,-2,-1,-2,-1,-2,-1,-2
1517206032332344,-1,-1,-1,-2,-2,-3,-1,1
1517206032333367,-1,-2,-1,0,-1,0,-1,0
1517206032333367,-2,-2,-2,-1,-2,0,-3,0
1517206032354874,0,-1,-2,-1,-1,-1,-1,-1
1517206032354874,-1,0,-1,-1,-3,0,-1,-3
1517206032355874,0,1,-3,-2,-2,-2,0,0
1517206032355874,0,1,-1,0,-2,0,0,-1
1517206032369372,-1,-2,-3,-2,0,0,-1,0
1517206032369372,-2,-2,-2,1,0,-1,1,-1
1517206032377376,0,-1,0,-1,0,1,0,0
1517206032377376,0,-3,0,-1,-1,-2,-1,-2
1517206032392398,1,-2,0,-3,-1,-1,-1,-2
1517206032392398,0,-2,-1,-2,0,-2,-1,1
1517206032393399,-2,0,-1,-1,-2,-3,-1,0
1517206032393399,-2,-2,-1,0,0,-2,-1,-1
1517206032414903,0,0,0,0,-1,-1,-1,-1
1517206032414903,-1,0,-2,-1,-1,0,0,0
1517206032415903,-2,-2,-1,-2,-1,-2,-1,-1
1517206032415903,-2,-2,0,-1,0,-2,-1,-1
1517206032438418,-1,-2,1,-3,-3,-2,-2,0
1517206032438418,1,-3,-2,-2,-1,-1,-1,0
1517206032439419,0,-1,-1,-2,-1,-1,-1,-1
1517206032439419,-2,-2,-1,-1,-1,-3,1,0
1517206032452441,0,0,-1,0,-1,0,-2,0
1517206032452441,-2,0,-1,-2,-1,-2,1,0
1517206032453442,-2,-1,-1,-1,-1,-1,-1,-1
1517206032453442,-1,-3,0,-1,-1,-1,-3,-1
1517206032474959,-1,-1,-2,0,0,0,-1,-1
1517206032474959,1,-2,0,-2,-1,-1,-2,-2
1517206032475948,-1,-1,-1,-2,-1,-3,0,-1
1517206032475948,-1,-1,-2,-1,-2,-2,0,-1
1517206032498460,-1,-2,-1,-1,0,0,0,-1
1517206032498460,-1,1,-1,0,-1,0,-1,2
1517206032498963,0,-2,-1,-2,-1,-2,-2,-1
1517206032498963,-1,-1,-3,-1,-1,0,0,-2
1517206032512478,0,-1,-1,-1,-1,-1,-1,0
1517206032512478,-1,-3,-1,-2,-1,-1,0,-1
1517206032513474,-1,-1,0,0,-1,-1,-1,-2
1517206032513474,0,0,0,-3,-1,-1,0,0
1517206032535020,-2,-2,-2,-1,-2,-1,0,-2
1517206032535020,-1,-2,-1,-2,-1,-2,-1,-3
1517206032536000,-1,-1,-1,0,-2,-2,0,0
1517206032536000,-1,-2,1,-1,0,1,-1,-1
1517206032558027,-3,-1,-3,-1,-2,-3,0,-1
1517206032558027,1,0,-1,1,-2,0,0,0
1517206032559013,-1,-2,-1,-1,0,-2,0,1
1517206032559013,-2,-2,-1,-1,-1,0,-3,-2
1517206032572535,-1,-2,1,-2,1,-1,0,-2
1517206032572535,0,0,0,-1,-2,-2,-2,-2
1517206032573013,-1,-1,-1,0,-2,-2,-1,-3
1517206032573013,0,1,-2,0,-3,-2,-2,0
1517206032595029,-2,-2,1,-2,0,0,-2,-1
1517206032595029,-1,-2,-2,0,-1,-3,-3,-1
1517206032596033,-1,-2,0,0,-1,1,0,-1
1517206032596033,-2,0,-1,-2,0,-1,0,-1
1517206032618047,-1,-1,0,0,0,-1,1,-2
1517206032618047,-2,-2,0,1,-2,0,-1,-1
1517206032619061,-2,-1,-1,-1,-1,0,-2,-1
1517206032619061,-1,-1,0,-1,-2,-1,-1,0
1517206032632565,0,-1,-1,-1,-1,-2,0,0
1517206032632565,0,-1,-1,0,-2,-2,-1,-2
1517206032633558,-2,-1,-1,-1,-1,1,-2,0
1517206032633558,0,-1,-1,-2,-2,-3,-1,-2
1517206032655071,0,1,-1,-1,-2,0,-1,0
1517206032655071,-2,-1,-1,-1,-2,-1,-1,0
1517206032655573,-2,-2,-2,0,0,-1,-1,-1
1517206032655573,-1,-1,-1,-1,0,-1,0,-3
1517206032678164,-2,-1,-1,0,-1,-2,-2,0
1517206032678164,-1,-1,-1,-2,-3,-2,0,0
1517206032679165,0,-1,-2,-1,-2,-2,-1,0
1517206032679165,0,-1,-2,0,0,-1,-1,-1
1517206032692682,-2,0,-3,-1,-2,-2,-2,-1
1517206032692682,-1,-2,0,-1,0,-1,1,-2
1517206032700178,-1,0,-1,-1,0,-1,0,-1
1517206032700178,-2,-1,0,0,-2,1,0,1
1517206032715190,-1,-1,-1,-1,0,1,-2,1
1517206032715190,-2,-2,0,-3,-1,0,-1,1
1517206032715689,-1,-3,-2,-1,-2,-1,-1,0
1517206032715689,-2,-2,-1,0,0,0,-1,-2
1517206032738706,-1,0,-2,-1,-1,0,-1,-1
1517206032738706,-2,-1,-1,-1,-3,-2,-2,-1
1517206032739727,1,-2,0,0,0,1,0,0
1517206032739727,1,0,-3,-1,-2,-3,0,-2
1517206032752227,-1,0,-1,0,-1,-3,-2,0
1517206032752227,-1,-2,0,-3,-2,-2,-2,0
1517206032760231,-2,-1,-2,0,-2,-2,0,0
1517206032760231,-2,-3,-1,-1,-2,0,-1,-1
1517206032775254,0,0,-2,-2,0,0,-1,-1
1517206032775254,-1,-1,-1,1,0,-1,-2,-1
1517206032776255,-1,-1,-1,0,-1,-1,-2,-2
1517206032776255,0,1,-1,-2,-1,-2,0,0
1517206032798265,-1,-3,0,-1,0,0,-1,-1
1517206032798265,0,-1,0,-2,0,1,0,0
1517206032798751,-2,-2,0,-1,-2,-3,-1,0
1517206032798751,0,-1,-1,0,-1,-2,-1,-2
1517206032812760,-1,0,-1,-1,-1,-2,-1,-1
1517206032812760,0,0,0,0,-1,-1,0,-1
1517206032813259,0,-1,-2,-1,1,0,-1,-1
1517206032813259,-2,-1,-2,-2,-1,-3,-1,-3
1517206032835283,-2,-1,0,-1,-1,-2,-1,0
1517206032835283,0,-2,-2,-3,0,0,-1,-1
1517206032835785,-1,1,-1,0,-2,-2,-1,-1
1517206032835785,-2,-1,0,-1,-2,2,-1,1
1517206032858324,0,-1,-1,-1,-1,-1,0,-2
1517206032858324,-1,-2,-2,1,-1,-2,0,-1
1517206032858800,-2,-2,-1,-3,0,1,0,-1
1517206032858800,-1,-2,-2,-3,-1,-1,-1,0
1517206032872331,-2,-1,-1,1,-3,-1,-2,-1
1517206032872331,1,2,1,-2,-2,-1,-1,-2
1517206032873304,-1,-1,-1,-1,-1,-1,0,-1
1517206032873304,0,-1,1,-1,-1,0,-1,0
1517206032895818,-1,-2,-1,0,1,0,1,0
1517206032895818,-1,-1,-1,-1,1,-1,-2,-2
1517206032896320,-1,-2,-2,-2,-1,-1,-1,-1
1517206032896320,0,-1,0,-1,-1,-1,0,-2
1517206032918342,0,-1,-2,-2,-2,1,-1,-2
1517206032918342,-2,0,-3,0,-1,-1,0,1
1517206032918842,-2,0,1,-2,-1,-2,-1,-1
1517206032918842,0,-1,-2,0,0,0,-1,-1
1517206032932342,0,-1,-2,-2,-2,-1,-1,-1
1517206032932342,-2,-2,-1,1,0,-1,0,-2
1517206032933344,-1,-1,-2,-1,-1,-1,-2,0
1517206032933344,-1,0,0,-1,-1,-1,-3,-1
1517206032954867,0,-2,-1,-2,0,-1,1,-1
1517206032954867,-2,-2,-2,-2,-1,-1,-1,-2
1517206032955859,-1,-1,-1,-1,-1,-2,-1,-2
1517206032955859,-2,-2,-2,-1,-1,-2,-2,-1
1517206032978376,-1,-1,-2,-1,-1,-1,-1,-3
1517206032978376,0,-1,-2,-2,0,1,1,0
1517206032978880,0,-1,-1,-1,-2,-2,0,-2
1517206032978880,-1,-2,1,-1,-3,-1,0,-1
1517206032991906,-1,-2,-4,0,-2,-2,0,1
1517206032991906,-2,-1,-1,-1,-3,-2,-1,-2
1517206032999889,-1,0,-3,0,-1,1,-3,-1
1517206032999889,-1,-2,-2,-2,0,-2,0,1
1517206033014901,-1,1,-1,-2,-2,-1,-1,-1
1517206033014901,1,-2,-1,-2,-2,-1,-1,-1
1517206033015904,1,-1,0,-1,0,-2,-2,-1
1517206033015904,-2,-1,-1,0,-1,-2,-1,-2
1517206033038417,-2,-1,0,0,0,-2,0,-1
1517206033038417,-2,0,-1,-1,0,0,-2,-1
1517206033039433,-1,-1,0,-1,-1,-1,-2,-1
1517206033039433,-1,-1,-2,0,0,0,-2,0
1517206033051939,0,-1,-2,-2,-1,-2,-3,-2
1517206033051939,0,-3,-2,-1,-1,-1,-1,-1
1517206033059942,-2,-1,0,-1,0,0,1,0
1517206033059942,-1,-2,-1,-2,0,-1,-1,-1
1517206033074966,0,-1,-2,-1,-1,0,0,-2
1517206033074966,-1,1,0,-1,-2,-1,-1,0
