timestamp,emg1,emg2,emg3,emg4,emg5,emg6,emg7,emg8
1513229251451886,-1,-2,1,-2,-1,-1,-2,-2
1513229251451886,-1,-3,-3,-4,0,-2,0,-1
1513229251452882,-1,-2,-2,-2,0,-2,-1,-1
1513229251452882,-1,-4,-3,-1,-3,-3,-1,-2
1513229251457885,-1,1,0,-1,1,1,-1,-1
1513229251457885,0,-1,-2,-1,0,0,-1,0
1513229251458886,-2,-1,-1,0,-1,-1,1,-1
1513229251458886,-1,0,-3,-2,1,1,-1,2
1513229251480901,-1,-1,0,0,-1,-1,1,-3
1513229251480901,0,0,0,-2,-3,-1,-1,0
1513229251481400,-1,-1,-2,0,-2,0,-1,-2
1513229251481400,0,0,0,-1,-1,0,0,-1
1513229251503416,-1,0,-1,-1,0,-1,0,-1
1513229251503416,-1,-2,-1,1,-2,-2,0,-1
1513229251504417,-3,-2,-1,-2,-2,-2,0,-1
1513229251504417,-2,0,-1,-2,-1,1,1,-1
1513229251517928,-6,0,0,0,-1,-1,-2,0
1513229251517928,1,-2,-1,-1,-1,-2,-1,1
1513229251518927,-1,-1,0,-1,-1,-1,-1,-2
1513229251518927,-1,-2,-1,1,-2,-1,0,-2
1513229251540442,-1,-1,0,-1,-1,-1,-1,-2
1513229251540442,-1,0,-2,0,0,0,-3,0
1513229251541446,3,-2,0,-1,-1,0,-2,1
1513229251541446,-5,-3,-2,-1,-1,-2,-2,-2
1513229251563960,2,-2,-2,-2,-1,-2,-1,0
1513229251563960,0,-1,-1,-2,-2,0,-1,-2
1513229251564462,3,1,-2,-2,-2,-2,-1,-1
1513229251564462,0,-2,-1,1,0,-1,-1,-1
1513229251577969,0,0,-1,-1,-1,0,0,0
1513229251577969,-2,-2,1,-1,-1,-2,-1,-1
1513229251578470,-1,-4,-2,0,-1,0,0,-3
1513229251578470,1,2,0,-3,-2,-2,-1,-2
1513229251600498,0,0,-1,-1,0,0,-2,-1
1513229251600498,-2,0,-1,-1,-1,-2,-3,0
1513229251601485,-2,0,-1,0,0,-2,-2,-1
1513229251601485,-1,-1,1,-1,0,-1,0,-1
1513229251631509,0,-1,-2,-2,-1,0,0,0
1513229251631509,-2,-1,0,0,1,0,-1,0
1513229251632507,-1,-3,0,-3,-1,0,-2,0
1513229251632507,-2,-2,-2,0,-1,-2,-2,-1
1513229251638026,0,-2,-2,0,-1,-2,-2,-2
1513229251638026,0,-2,-2,-1,0,-2,1,-1
1513229251639027,-1,1,-1,-1,-2,-1,-1,-2
1513229251639027,-2,0,1,-1,-1,1,0,-2
1513229251660528,-2,-1,-2,-1,-1,-2,-1,1
1513229251660528,-1,-1,-1,0,-2,0,-1,-2
1513229251661028,-2,0,-1,0,1,1,-1,-2
1513229251661028,0,3,2,-1,-2,-1,-1,1
1513229251683043,4,-2,0,-1,-1,-3,-2,0
1513229251683043,-2,-2,-2,-5,-2,-1,-2,0
1513229251690571,-2,2,-1,1,-1,-1,-2,-1
1513229251690571,0,-3,-1,1,-1,-2,-1,1
1513229251698116,-3,-1,-1,-1,-2,0,-1,1
1513229251698116,0,-1,-1,1,-1,1,0,-1
1513229251698603,-2,-2,-2,-3,-2,-3,-1,-1
1513229251698603,-5,-5,0,-1,-2,-1,1,-4
1513229251720649,0,2,-3,1,-1,-2,-1,-2
1513229251720649,-1,-1,-3,-2,-1,-1,-2,0
1513229251728149,-4,-2,-2,-1,-3,-1,0,0
1513229251728149,0,-3,-3,0,-1,-1,-2,2
1513229251743136,1,-2,1,-2,1,1,-1,-1
1513229251743136,-2,-1,0,-1,-2,-2,-1,-2
1513229251750641,2,-2,0,-2,-2,-1,-1,0
1513229251750641,-2,0,-1,-3,-1,0,0,-2
1513229251757663,-3,-2,0,-1,-2,1,-1,-2
1513229251757663,0,-2,-3,1,0,-1,-1,-3
1513229251758646,-1,-2,-1,0,0,0,-1,-2
1513229251758646,2,0,-2,-2,0,-2,-1,-1
1513229251780662,-3,-1,-1,0,1,-1,-1,-4
1513229251780662,-1,-1,-2,-1,-2,0,1,-1
1513229251781162,-2,-2,-3,-3,-1,0,-1,-2
1513229251781162,0,0,0,-1,-2,-1,-3,-1
1513229251803679,0,-1,-1,-1,-1,0,-1,0
1513229251803679,0,0,-1,0,-2,-1,-1,0
1513229251804180,0,-3,-3,-2,-1,-3,-3,1
1513229251804180,-2,-1,-2,-1,0,-1,-2,-1
1513229251817709,-1,-3,-1,0,-2,-2,-1,-1
1513229251817709,-5,-2,0,0,1,0,-2,-1
1513229251818691,1,-1,-1,-1,-2,0,0,-1
1513229251818691,-6,-1,-1,-1,1,-1,-1,0
1513229251840250,-2,0,0,0,-1,-1,-1,0
1513229251840250,4,-2,-2,-1,0,-1,0,-1
1513229251841207,-6,0,0,1,-1,0,-2,-3
1513229251841207,1,-1,-2,-1,-1,-1,-1,-2
1513229251864221,-2,0,0,0,-1,-1,-1,0
1513229251864221,-1,-2,-2,-1,-1,-2,-3,-2
1513229251864721,0,-2,1,-1,-3,0,-1,0
1513229251864721,0,-1,1,-2,-2,0,0,-1
1513229251878240,-2,-3,-4,-1,-1,-2,0,-1
1513229251878240,1,2,0,-2,-1,0,0,0
1513229251879238,-1,-2,-2,-2,-1,-2,0,-1
1513229251879238,-2,0,-1,-1,-1,-1,-2,-1
1513229251900246,-1,-1,-2,1,0,-2,-1,-1
1513229251900246,-3,-2,0,-2,-1,-1,0,-1
1513229251901259,0,0,-1,-2,-1,0,-1,-1
1513229251901259,1,-3,-2,-3,-2,-1,-3,-2
1513229251923762,-3,0,2,0,0,0,0,0
1513229251923762,-1,-2,0,0,0,-1,-2,-2
1513229251924262,-2,-2,1,1,1,-1,-3,-1
1513229251924262,-1,-1,-3,-3,-1,-1,0,-2
1513229251937810,0,-3,-2,-3,-2,0,-1,-1
1513229251937810,0,-2,-3,4,-1,0,0,0
1513229251938802,-2,0,0,-2,-1,-1,-1,-1
1513229251938802,-1,0,-2,-2,0,-2,-2,-1
1513229251960853,-2,0,0,-1,-1,-2,-1,-1
1513229251960853,-2,-5,-5,-5,-2,-4,-2,-2
1513229251961825,0,-2,-1,0,-1,0,-1,0
1513229251961825,-3,0,0,2,-1,-1,-2,0
1513229251983831,4,-3,-3,-3,-2,-1,-1,0
1513229251983831,-1,1,0,-9,-3,0,-1,-1
1513229251984332,-2,-2,0,-2,-2,-2,0,-1
1513229251984332,1,-2,-1,3,0,-1,2,-1
1513229251997842,1,-2,-1,3,1,-1,0,0
1513229251997842,-2,0,-1,0,-1,0,1,0
1513229251998842,0,-1,-2,-1,-1,-1,0,0
1513229251998842,3,0,0,-3,-2,-2,-2,-1
1513229252020879,-2,0,-1,1,0,1,-2,-3
1513229252020879,0,0,-1,-1,0,-1,-2,-2
1513229252021357,0,1,0,-3,0,1,-1,-1
1513229252021357,-2,-4,0,0,0,1,-1,-3
1513229252043876,-3,-4,-2,-4,-2,1,-1,0
1513229252043876,-8,2,4,2,0,0,1,-3
1513229252044376,0,1,0,0,0,-3,0,-1
1513229252044376,-5,-3,-1,1,1,0,0,-4
1513229252057386,-5,-3,-1,-2,-2,-1,0,-2
1513229252057386,-1,-4,-1,1,-2,1,-2,0
1513229252065407,0,-2,-2,-2,-2,-2,0,1
1513229252065407,-1,0,-1,-2,-1,-1,0,1
1513229252080416,2,1,-2,-3,-1,-1,-1,-2
1513229252080416,-1,-1,-3,0,-1,-2,-2,-2
1513229252081402,2,-2,-4,-2,-1,0,0,-4
1513229252081402,-2,0,-2,-3,-2,-1,-2,-2
1513229252103416,1,5,1,-2,-1,-2,-1,-1
1513229252103416,0,0,-1,0,1,-1,-1,-1
1513229252104417,-1,-3,-1,-3,-1,1,-1,1
1513229252104417,-1,1,-3,-1,-2,0,-1,1
1513229252117436,-5,2,1,-1,-2,0,-1,-1
1513229252117436,-4,0,2,0,0,-1,-2,-2
1513229252125445,-1,0,-2,-2,-1,-2,-1,0
1513229252125445,-2,-2,-1,-2,0,-2,0,-1
1513229252140456,-1,-2,0,0,0,-2,0,-1
1513229252140456,0,0,-3,-1,-4,-3,-2,0
1513229252140943,-2,-1,-3,-1,-2,-1,-3,-2
1513229252140943,1,1,0,-3,-2,-2,1,2
1513229252163467,1,-1,0,-3,-1,-2,-1,-2
1513229252163467,-1,-1,-1,-2,-1,0,-1,-1
1513229252164472,-1,-3,-3,1,-1,-1,-1,-1
1513229252164472,-1,-4,-3,-2,0,-3,-1,-1
1513229252177478,-3,-2,1,0,1,0,-1,0
1513229252177478,2,1,-1,0,-1,-2,0,1
1513229252185474,-3,-1,2,-1,-1,-1,-2,-1
1513229252185474,-4,2,1,0,0,0,0,-2
1513229252208493,-2,-2,-3,1,-1,-2,-1,0
1513229252208493,1,-2,-2,-1,-1,-1,0,1
1513229252209491,-1,-1,-2,-1,0,-2,0,-1
1513229252209491,-2,-1,-1,-2,-1,0,-2,0
1513229252223503,0,0,0,-1,0,-1,-1,0
1513229252223503,-1,0,0,-1,-3,-1,-2,0
1513229252224501,-4,-1,0,0,-2,-1,0,-1
1513229252224501,-2,-2,-2,0,-1,1,-2,-2
1513229252237513,-1,0,-1,-2,-2,-2,-2,-1
1513229252237513,-2,-4,-2,-1,0,-1,-1,-2
1513229252245016,2,-2,-3,-3,-2,-2,-1,-1
1513229252245016,-4,1,3,-1,0,-1,-1,-1
1513229252260526,-2,-3,-2,0,-2,-1,0,-1
1513229252260526,0,0,-1,0,-1,0,0,-1
1513229252261028,1,-1,-2,-1,-1,-1,1,-1
1513229252261028,1,-2,-2,-2,-2,-3,-1,0
1513229252283543,4,-4,-4,0,-1,-1,-2,0
1513229252283543,-1,-1,1,-3,-2,-2,-3,-2
1513229252284544,-3,-2,-1,0,0,-2,-2,-2
1513229252284544,3,1,0,-2,-2,-1,-2,0
1513229252297556,-1,-3,0,-1,-1,0,-1,-3
1513229252297556,0,-1,-1,-1,-1,0,0,-1
1513229252305559,1,-1,1,-1,0,0,0,-4
1513229252305559,-2,-4,1,-1,-1,-1,-1,-2
1513229252320570,-1,0,0,0,-2,-3,-2,1
1513229252320570,1,-1,-1,-1,-2,0,-1,0
1513229252321070,-2,0,-1,0,-1,-2,0,-1
1513229252321070,-1,-3,-5,1,-1,0,-1,-2
1513229252343588,-1,-1,0,-1,-1,0,1,-1
1513229252343588,0,-3,-2,-2,0,-3,-3,-3
1513229252344085,-1,0,-1,-1,0,-2,-2,-1
1513229252344085,0,-1,-2,-1,0,-3,-1,-1
1513229252357094,-4,0,-1,-1,-1,0,1,-1
1513229252357094,-1,-2,-2,-2,-1,-1,0,1
1513229252365602,-2,0,-2,-1,-1,0,-1,0
1513229252365602,-1,0,-1,-2,-1,-2,-2,-2
1513229252380611,-2,-2,-1,0,-2,-1,-1,-1
1513229252380611,-3,-2,1,-1,0,0,-1,-1
1513229252381112,-3,-2,1,-2,-2,-1,-1,-1
1513229252381112,2,-4,-4,-2,-1,0,-2,-1
1513229252411149,3,-1,-3,-2,-2,-1,-1,-1
1513229252411149,-3,0,-2,-1,-2,0,0,0
1513229252411633,-1,-8,-3,-4,-2,0,0,0
1513229252411633,1,-2,-1,-4,-1,0,-1,-2
1513229252426147,-2,0,0,-1,-1,0,-1,-1
1513229252426147,-1,-1,-1,0,-1,-1,-3,-2
1513229252426644,1,-1,-3,-2,1,-1,-2,0
1513229252426644,-2,0,-2,0,0,-1,-1,-1
1513229252440156,-2,1,-1,-2,-2,-2,-1,0
1513229252440156,-3,-1,-1,-1,0,-1,0,-1
1513229252441155,-3,1,1,-1,-1,0,1,-3
1513229252441155,-1,-1,0,-1,-3,-1,-2,0
1513229252463681,-3,0,-2,-2,0,-1,-2,-2
1513229252463681,-1,-2,-2,-1,-3,-1,-2,0
1513229252464174,-1,1,-1,-2,-1,-1,-1,-1
1513229252464174,-2,-3,0,0,0,0,2,-1
1513229252486211,0,-1,-2,-1,0,-2,-1,1
1513229252486211,0,-1,-1,0,-1,0,0,0
1513229252486687,-3,-1,-2,0,-1,-1,0,-1
1513229252486687,-1,0,-1,-1,-2,-1,-1,-2
1513229252500209,-2,0,-2,1,-1,-1,-1,-1
1513229252500209,-1,2,-1,0,-2,-2,-1,-2
1513229252501209,2,0,1,0,0,-2,-2,0
1513229252501209,-4,-1,3,-3,0,0,0,-1
1513229252538726,-1,-1,0,-1,0,-2,-3,-2
1513229252538726,-1,-1,0,-1,0,0,0,0
1513229252539224,1,-2,-4,-1,0,0,-1,-2
1513229252539224,-4,-2,-1,-1,-1,-1,0,-3
1513229252546228,2,-1,0,-1,-2,0,0,-1
1513229252546228,-1,3,4,1,1,0,1,0
1513229252546729,0,-2,0,0,-1,0,-1,0
1513229252546729,-1,0,-1,0,-2,-1,-1,2
1513229252560238,-1,-1,0,-1,-1,-2,0,-2
1513229252560238,2,-3,-3,-2,-3,-4,-4,0
1513229252561239,0,0,-2,-3,-1,-1,-1,0
1513229252561239,-1,0,-1,-1,-2,-1,-1,-1
1513229252583769,-3,-2,-2,-1,0,0,-1,0
1513229252583769,-1,-1,-2,-1,-1,-1,-1,-3
1513229252584257,-1,-3,-4,-2,0,-1,-2,-1
1513229252584257,2,-1,-1,-2,0,-1,-2,-1
1513229252605783,0,-2,-1,-3,0,-1,-3,0
1513229252605783,-3,-2,-2,-2,-1,0,0,0
1513229252606773,-4,1,-1,-1,-1,-2,0,-1
1513229252606773,-3,-2,0,-1,0,-1,-2,-3
1513229252620280,-1,-2,0,0,-2,-3,-1,-2
1513229252620280,0,-1,-1,1,-1,-1,-2,0
1513229252621282,-2,0,1,-1,-2,-3,-1,1
1513229252621282,0,-1,-4,0,-2,-1,0,0
1513229252642815,-1,0,-1,-2,-1,-2,-2,-1
1513229252642815,-2,-3,-1,0,-1,0,0,-1
1513229252650302,0,1,0,0,-1,0,-3,-1
1513229252650302,0,-2,0,0,-2,-2,-2,-2
1513229252666317,2,-2,-3,-1,-2,1,-1,-2
1513229252666317,-2,-1,-1,-2,0,-1,0,0
1513229252666816,-1,0,1,-1,0,-1,-1,-2
1513229252666816,5,0,-5,-4,-3,-2,-2,0
1513229252680324,0,2,-2,-1,-1,-2,-3,-1
1513229252680324,-1,-2,-2,1,-1,-2,-1,-1
1513229252681324,-1,1,-1,-1,0,1,0,-2
1513229252681324,-1,0,0,-1,-1,-1,1,-1
1513229252703873,-1,0,-1,-1,-1,0,-1,-2
1513229252703873,0,0,-2,0,-2,-2,-2,-1
1513229252704373,0,-1,-3,-2,-4,-1,-3,0
1513229252704373,-4,-2,0,0,-1,-1,-1,-1
1513229252725905,-2,0,-1,-2,1,1,-1,0
1513229252725905,-1,-2,0,0,1,-2,-2,0
1513229252726905,-5,-2,0,0,-1,-2,0,-2
1513229252726905,-2,0,0,0,-1,-1,-3,-3
1513229252740402,-1,-4,-2,1,-2,-4,1,0
1513229252740402,0,-2,-1,-2,-1,-1,-1,-1
1513229252741399,0,0,0,-1,-1,-2,0,0
1513229252741399,-2,-1,-1,-3,-1,-1,-2,-1
1513229252763918,-4,-5,-3,-2,0,-2,0,-1
1513229252763918,-2,0,0,-2,-2,0,-2,-1
1513229252764416,-1,-1,-3,-2,-1,-1,-2,-2
1513229252764416,-3,-3,-1,0,0,0,1,-1
1513229252793439,0,-1,-1,-4,-3,-1,-1,0
1513229252793439,4,-2,-2,-3,-2,-1,-1,0
1513229252794438,1,1,-2,-2,-1,-1,0,0
1513229252794438,-2,-1,-2,1,1,0,0,-2
1513229252799941,-1,4,4,0,-1,0,-2,-2
1513229252799941,0,0,-2,-1,0,-1,0,-1
1513229252807947,-5,-2,1,1,-2,-2,-2,-2
1513229252807947,1,-1,-2,-2,1,-3,-2,-1
1513229252823482,-1,-1,-1,-3,-1,0,0,0
1513229252823482,-1,-2,-2,-2,-2,-1,-2,-1
1513229252824466,0,-1,-1,1,-1,-2,-1,0
1513229252824466,1,-1,-4,-1,-1,-1,-2,-1
1513229252845974,-2,-2,1,0,-2,-1,0,-2
1513229252845974,-3,-4,0,-1,0,-1,-2,-2
1513229252846975,-1,-3,-2,-4,-2,0,0,-2
1513229252846975,-1,-2,-1,2,-2,-1,-2,-1
1513229252860486,-10,0,0,0,-1,-1,1,-1
1513229252860486,-1,0,-1,-2,-1,-1,1,1
1513229252861489,0,-2,0,0,1,-1,-1,-2
1513229252861489,-3,-2,1,0,-2,0,0,-1
1513229252883511,0,-2,-2,-1,0,-2,-3,0
1513229252883511,-6,4,2,2,0,1,-1,-2
1513229252884001,0,2,0,-2,0,0,-1,-3
1513229252884001,1,-2,1,-2,-1,0,-2,-1
1513229252905029,-1,-2,-1,-2,0,1,-1,-4
1513229252905029,-1,-5,-1,-2,-1,0,2,-2
1513229252913031,-2,-3,-2,-3,0,-1,-1,1
1513229252913031,0,0,0,-3,-3,-2,-1,1
1513229252920536,-3,-3,0,1,1,0,1,0
1513229252920536,0,-5,-1,-2,-2,-1,-1,-2
1513229252921028,-3,-2,-2,0,-3,-1,0,-2
1513229252921028,-1,-2,-3,-2,-1,0,-1,0
1513229252943093,-2,-1,-1,0,-3,-2,-2,-1
1513229252943093,-1,1,-3,-1,-1,-2,-2,-1
1513229252950598,-1,-1,1,0,1,1,-1,-1
1513229252950598,1,1,-2,-2,0,0,-1,0
1513229252966109,-1,0,0,-1,-3,0,-1,0
1513229252966109,-1,0,1,0,-2,-1,-1,-1
1513229252966608,1,-3,-4,-2,-2,-3,-2,1
1513229252966608,-10,2,2,3,1,0,0,-5
1513229252980619,0,0,-1,-1,0,-1,-1,-1
1513229252980619,0,0,-1,-3,0,-1,1,-2
1513229252981122,-1,1,0,1,-2,-2,0,-1
1513229252981122,1,-2,-3,-2,0,-2,1,0
1513229253003636,-1,-4,-2,-2,-1,-1,0,-1
1513229253003636,-2,0,-2,-2,-1,0,-2,-1
1513229253004135,2,-5,-4,-2,-2,-1,-1,-3
1513229253004135,0,-2,1,-1,-2,-2,-1,0
1513229253026177,2,-2,-1,0,1,-1,0,0
1513229253026177,1,-2,-3,-2,0,-2,-1,0
1513229253026652,-4,-2,1,-2,-1,-1,0,-1
1513229253026652,-2,-1,-1,-1,-1,-2,-2,0
1513229253039683,-1,0,1,-1,0,-1,-2,-2
1513229253039683,-2,0,0,0,-1,-1,-2,-1
1513229253048168,-1,0,-1,-2,0,-1,-1,-1
1513229253048168,1,0,-4,-3,-2,-1,-1,0
1513229253070683,2,0,-2,-2,-3,-1,-1,-2
1513229253070683,-1,-1,-3,0,-1,-1,-1,-1
1513229253077687,-3,5,4,0,-2,-1,-2,1
1513229253077687,1,-1,-2,-3,-1,-2,-1,0
1513229253086194,0,0,-2,-1,-2,-1,-1,1
1513229253086194,-1,-3,-2,-2,-3,0,0,-1
1513229253086693,0,-1,-2,-1,-1,-1,0,-2
1513229253086693,1,-1,-3,-1,-1,-1,-2,-1
1513229253099745,-2,2,1,-3,0,0,0,0
1513229253099745,-2,-1,0,0,-1,0,0,-3
1513229253107735,-1,1,-2,0,-1,1,-3,0
1513229253107735,2,0,0,0,-2,-2,-1,0
1513229253123768,-2,-2,-2,0,0,-1,-1,-2
1513229253123768,-3,0,0,1,0,0,-1,-3
1513229253124247,0,-2,-1,-3,-1,-1,-1,0
1513229253124247,-2,-3,0,-1,0,0,1,-2
1513229253145772,0,-3,-1,0,-2,-1,-1,-2
1513229253145772,-2,-3,0,-3,1,-1,0,-1
1513229253146773,-1,-3,-4,0,-2,-1,0,0
1513229253146773,-4,2,1,-1,0,-2,-1,-1
1513229253168790,1,-1,-3,-1,-1,-1,-1,0
1513229253168790,0,0,-2,-1,-1,-3,-2,1
1513229253169279,0,0,-2,-1,-1,-1,-1,-2
1513229253169279,-2,-2,0,1,-2,0,1,-2
1513229253183800,0,-1,-3,-4,-1,-1,-1,-3
1513229253183800,0,-1,-1,0,-1,-1,-1,-1
1513229253184299,0,1,-2,-1,-1,-1,-1,0
1513229253184299,-3,-3,-2,-1,-1,-2,0,-1
1513229253205815,-2,-2,-1,0,-2,-2,-1,0
1513229253205815,-1,-1,-2,1,-1,-1,0,-1
1513229253206816,-3,-3,0,-1,-1,-1,0,-2
1513229253206816,0,-1,0,0,-2,-2,-2,-1
1513229253219853,-1,0,1,-2,-2,0,-3,-1
1513229253219853,0,0,0,-1,-1,0,-1,1
1513229253227830,-2,-3,-1,-1,-2,-1,-1,-1
1513229253227830,-2,-3,-2,-2,0,1,0,-2
1513229253243833,0,-2,-2,-3,-1,-4,-2,0
1513229253243833,-3,0,0,-2,-1,-2,-1,-2
1513229253245333,0,1,-2,-1,-1,0,-2,-2
1513229253245333,-4,-2,-3,-1,0,0,-2,-1
1513229253265847,-3,0,-2,0,1,-1,0,-1
1513229253265847,-1,0,-1,-2,-1,-2,0,-1
1513229253267849,0,-3,-3,-1,0,-2,0,-1
1513229253267849,1,-2,0,1,-2,-2,-1,-2
1513229253279866,-1,-1,-1,-3,0,0,-1,0
1513229253279866,-1,-2,0,0,-2,-1,-2,1
1513229253288865,-3,-3,0,-1,-2,0,-1,-1
1513229253288865,-1,-1,-3,0,-1,-1,-1,-2
1513229253303412,-2,0,-1,-1,-2,-1,-1,0
1513229253303412,-1,2,-3,0,0,1,-1,-1
1513229253305413,-3,-2,0,-1,-2,-3,-3,-1
1513229253305413,0,-1,-1,-2,-2,0,-3,-2
1513229253333444,0,-1,-2,0,0,-1,-1,-2
1513229253333444,-3,-4,0,-1,0,-1,0,-1
1513229253335434,3,-4,-5,-2,-1,-4,-1,0
1513229253335434,-2,1,0,-3,-1,-1,-1,-3
1513229253348945,0,-3,1,2,0,0,-2,0
1513229253348945,1,0,-2,-2,0,-1,-2,1
1513229253350445,-1,-1,1,-2,0,-1,-2,-2
1513229253350445,1,-4,-3,-2,-1,-3,-2,-1
1513229253363956,1,0,0,-1,-2,-1,0,-2
1513229253363956,0,-1,-1,0,-1,0,-1,-2
1513229253365456,-4,1,0,-1,-1,1,0,0
1513229253365456,0,0,-1,-1,-1,-2,-2,1
1513229253385973,-3,0,-2,-1,-2,-1,1,-2
1513229253385973,-2,0,-3,0,0,-1,-2,-2
1513229253387471,-2,-2,-1,0,0,-2,1,-1
1513229253387471,0,0,1,-1,-2,1,0,1
1513229253408989,0,-3,0,-1,1,-3,-2,0
1513229253408989,-1,0,1,-2,-3,-1,-1,-2
1513229253410488,2,-2,-4,-3,-1,-3,-1,-3
1513229253410488,-3,-1,-2,-1,-1,-1,0,0
1513229253422499,0,1,-1,0,-3,0,-1,-3
1513229253422499,0,-3,-1,0,-1,0,-2,-1
1513229253431004,-2,-1,0,0,1,1,-1,-2
1513229253431004,0,2,-2,-1,-1,-1,0,1
1513229253446013,-1,2,-1,-2,-1,-1,-2,-1
1513229253446013,0,-1,-1,-3,-1,-2,-1,-1
1513229253447515,-1,-1,0,-2,-1,-1,-1,-1
1513229253447515,-7,-8,0,0,0,0,0,-1
1513229253469044,-4,0,1,-1,1,0,0,-1
1513229253469044,-1,-2,-1,-2,-2,-1,0,0
1513229253471030,-3,-2,1,-1,-2,-1,-1,0
1513229253471030,1,-1,-3,-2,-1,0,-1,0
1513229253483571,-1,-4,-2,1,1,-2,-2,-1
1513229253483571,-2,-2,-2,-1,0,0,0,0
1513229253485072,-1,0,-2,0,-1,0,-1,-1
1513229253485072,0,1,1,-2,-1,-2,-1,-1
1513229253506100,-2,1,-1,-1,-1,-2,0,-1
1513229253506100,2,1,-3,-3,-1,0,-1,-1
1513229253507602,1,-3,-2,-3,-2,-2,-1,-1
1513229253507602,-1,-4,0,1,0,-1,-2,-2
1513229253528606,-1,-4,0,-3,-1,1,-1,0
1513229253528606,-1,0,0,-2,-3,-3,-1,-2
1513229253530104,-1,1,-1,-1,-2,0,-2,1
1513229253530104,-2,0,-1,0,-1,0,-1,-1
1513229253542616,-1,-4,-4,-1,1,-1,-3,-3
1513229253542616,-6,4,5,1,1,0,-1,-2
1513229253549618,1,0,-2,-1,-2,-1,0,0
1513229253549618,-1,0,0,-2,0,-2,0,-2
1513229253566129,-4,0,2,0,-1,-2,1,1
1513229253566129,1,-2,-4,-1,-1,0,-1,1
1513229253567631,-2,-1,0,-2,0,0,-2,-1
1513229253567631,-1,-1,-1,-1,-1,-2,0,-1
1513229253588648,1,0,-3,-3,-1,-1,0,-1
1513229253588648,2,-1,-1,0,0,-2,-2,-1
1513229253590162,-1,-1,-1,-1,-2,-1,-1,-1
1513229253590162,-1,-1,-3,-2,-2,-2,-3,0
1513229253602655,1,-1,-1,-1,-3,-1,-2,-3
1513229253602655,-2,-2,-1,-2,0,-1,-2,0
1513229253609663,-5,0,0,-1,-2,0,0,0
1513229253609663,0,-1,-1,-1,-2,-1,-1,0
1513229253626682,0,0,-2,-2,-3,-2,-2,0
1513229253626682,-2,-2,0,-1,-1,-3,-1,-2
1513229253628197,0,-2,-2,0,-1,-2,-2,-2
1513229253628197,-1,0,-1,-1,0,-1,-2,-1
1513229253648688,-2,-1,0,-1,-2,1,0,1
1513229253648688,-1,-4,-4,-2,0,0,-1,-2
1513229253650189,-12,1,2,-1,0,-2,-1,-5
1513229253650189,2,5,3,1,-1,0,0,0
1513229253662719,1,0,-2,0,0,-2,-2,-2
1513229253662719,-1,-1,-1,0,-2,0,0,-1
1513229253669724,1,-3,-3,0,1,-1,0,-1
1513229253669724,1,-3,-3,-2,-1,-1,-1,-1
1513229253686273,-4,-1,-1,0,-1,0,-2,-3
1513229253686273,-1,-2,-2,0,-2,0,-1,-2
1513229253687786,1,-2,-2,-2,-1,0,0,0
1513229253687786,1,-2,-3,-2,-2,-2,-2,1
1513229253708791,3,0,-1,-1,1,-3,-1,0
1513229253708791,-2,-1,-1,-1,-2,-1,-1,-1
1513229253710281,0,-1,-1,1,-2,0,-1,-1
1513229253710281,-3,0,-2,-1,-1,-2,-2,-2
1513229253722817,0,-2,0,-2,-1,-1,-2,-1
1513229253722817,-2,0,-1,-2,-1,-1,-1,-2
1513229253729795,0,-1,-2,-1,-1,-1,-1,-1
1513229253729795,-3,-2,-1,-2,-1,-2,-1,-1
1513229253745806,1,-2,-3,-1,-1,-1,0,0
1513229253745806,0,-1,-3,-2,-2,-1,-2,0
1513229253747809,0,-2,-2,-1,-2,-2,-1,-1
1513229253747809,-1,-2,-2,-1,-2,-2,-1,-3
1513229253768332,-2,0,0,-1,-2,-1,0,-2
1513229253768332,0,-2,-3,-1,0,-1,-2,-2
1513229253769835,-3,-1,-1,-1,1,-1,-2,-2
1513229253769835,-2,1,-1,-2,-2,0,-1,0
1513229253782833,-1,-1,0,0,-1,-1,0,0
1513229253782833,2,-3,-2,-1,-2,-1,-2,-1
1513229253789853,0,0,-2,-1,0,-1,0,-1
1513229253789853,2,-2,-1,-1,-2,-1,0,0
1513229253805848,-5,-2,0,2,0,0,0,-4
1513229253805848,-2,2,-1,-1,-1,-1,0,-1
1513229253807890,2,-4,0,-1,-4,-3,-2,-1
1513229253807890,-1,-1,-2,-1,0,-1,-2,-1
1513229253828387,-1,-1,-3,-1,0,0,-2,-2
1513229253828387,-1,0,-1,-1,-1,-2,-2,-1
1513229253829875,-1,0,-2,-2,-1,0,-2,-2
1513229253829875,-2,-2,-2,0,1,0,-1,-2
1513229253842376,2,-1,-4,-3,-2,-1,-2,1
1513229253842376,-2,-2,-1,-1,0,-3,-1,-3
1513229253851385,0,-1,-2,-1,-1,0,0,-1
1513229253851385,-1,-1,-1,-2,-2,-1,0,-1
1513229253865894,-2,-1,0,0,-1,-1,-1,-1
1513229253865894,-2,-2,-2,0,0,-1,-1,-2
1513229253867896,-1,0,-1,0,-1,-1,-1,2
1513229253867896,-2,0,1,-1,0,-2,-1,-2
1513229253888429,-3,0,-3,-1,0,-2,1,-1
1513229253888429,-2,-2,0,-2,-1,0,0,0
1513229253890421,-1,-3,-1,-1,1,-2,0,-1
1513229253890421,-2,-1,-2,-2,0,-1,0,-1
1513229253901918,3,-1,-1,-3,-1,-2,-1,1
1513229253901918,-2,-1,-2,0,-3,0,-1,-3
1513229253911443,0,0,-2,-1,0,-2,-3,-2
1513229253911443,-1,-1,1,0,-3,0,-1,-1
1513229253925958,0,-2,-1,-1,-1,-1,-3,-1
1513229253925958,-1,-2,-2,-1,-1,0,-2,-1
1513229253927948,-2,0,-2,-2,0,0,0,-2
1513229253927948,0,-2,-2,-1,-1,-1,0,-1
1513229253948516,2,-3,0,0,-1,-1,-1,0
1513229253948516,2,-2,-1,-2,-1,-1,-2,1
1513229253950020,-4,0,0,-1,-1,-1,-1,-2
1513229253950020,-1,-1,-2,-2,-1,0,-1,-1
1513229253962034,-2,-3,-2,-2,-2,0,-1,0
1513229253962034,-1,0,0,-1,-1,-1,1,-1
1513229253971030,0,-1,0,0,-1,-1,-1,0
1513229253971030,-2,-3,-2,-1,-1,-1,-1,-1
1513229253986041,-2,-2,-1,0,-1,0,-2,-1
1513229253986041,-2,-1,-1,0,0,-1,0,-2
1513229253987543,2,-1,-2,-2,0,-1,-1,-3
1513229253987543,0,0,0,0,-1,-1,-1,-2
1513229254008557,3,0,-3,-1,-1,-2,-2,1
1513229254008557,-1,-2,0,-2,1,-2,0,-2
1513229254010059,-1,-1,-2,0,0,-2,-1,-1
1513229254010059,-1,-1,0,-2,-1,0,-1,0
1513229254022091,0,1,-3,-1,-1,-1,0,-1
1513229254022091,-5,-1,-1,0,-2,-2,0,-1
1513229254031078,-1,-2,-2,-3,0,-2,-1,-1
1513229254031078,0,-2,-1,-1,0,-1,-1,-2
1513229254046096,-3,0,-1,-1,0,0,-1,0
1513229254046096,2,-2,-4,-2,-2,-2,-2,0
1513229254047586,0,-3,-1,-1,-2,-2,-1,-1
1513229254047586,-1,-1,-1,-1,-2,-2,-2,-1
1513229254068624,-1,0,1,-1,-3,-1,-2,-1
1513229254068624,-2,0,0,0,0,-2,0,-1
1513229254070125,-2,-1,-1,0,-3,1,-1,0
1513229254070125,-1,-2,-2,0,0,0,-3,-1
1513229254082123,1,-1,0,-1,1,-1,-1,-2
1513229254082123,0,-3,-2,-2,-1,0,-2,0
1513229254091115,-1,0,-1,-1,-1,-2,0,0
1513229254091115,-4,0,-2,0,-2,-1,1,0
1513229254106126,2,-5,-2,0,-2,-1,1,2
1513229254106126,-6,1,2,-1,0,-1,-1,-1
1513229254107628,-1,-1,-2,-1,-1,0,-2,-1
1513229254107628,0,0,0,-2,-2,-2,-1,0
1513229254128645,0,-1,-1,-1,0,-1,-1,-1
1513229254128645,-1,-2,-2,-1,-1,-1,-1,-1
1513229254130143,-2,0,1,0,0,-1,0,-1
1513229254130143,0,-3,-1,0,-1,0,0,-1
1513229254142154,-3,0,0,-1,-1,0,-2,-1
1513229254142154,2,-1,-3,-2,-1,-3,-1,-2
1513229254151158,-1,-1,-1,0,-2,-1,0,-3
1513229254151158,-1,-2,-1,-1,0,0,-2,-1
1513229254166168,-3,-1,0,0,-1,-1,0,-2
1513229254166168,-1,-1,-3,-1,0,-2,-1,-1
1513229254167670,0,-2,-2,-2,0,-1,-2,0
1513229254167670,1,0,-2,-3,0,-1,0,-2
1513229254188684,-2,0,-2,-1,0,-5,-1,-1
1513229254188684,-1,-2,1,0,0,0,-2,-2
1513229254190189,-1,-2,-3,-1,-1,-1,-2,0
1513229254190189,-2,0,0,-1,-1,1,-1,-3
1513229254202194,-3,-1,-1,-1,-1,-1,2,0
1513229254202194,-1,0,0,0,-1,-1,-1,-1
1513229254211215,-4,-5,-2,-1,-2,-1,-1,-2
1513229254211215,0,-2,-2,0,-2,-1,0,0
1513229254225210,-1,-1,0,1,0,0,-1,-2
1513229254225210,-6,1,1,0,0,1,-2,-1
1513229254232215,0,-3,-1,0,-1,1,-1,-1
1513229254232215,-1,-2,0,-1,0,-1,-1,-2
1513229254248727,0,-2,-2,0,-1,-1,-2,-1
1513229254248727,1,-3,-3,-2,-2,0,1,1
1513229254250240,-1,-1,-3,0,-2,0,-1,0
1513229254250240,-3,-1,-1,1,-1,-2,-2,-1
1513229254262239,-1,-2,0,-2,0,-1,-1,-2
1513229254262239,4,0,-6,-3,-3,0,-1,-2
1513229254271246,1,-1,0,-2,0,-1,-2,-2
1513229254271246,0,0,-1,-1,-2,-1,-1,-1
1513229254285756,-2,0,-2,-2,0,-1,-1,-1
1513229254285756,-2,0,-2,0,-1,-2,-2,-1
1513229254287754,-3,1,0,-2,-1,-1,-1,0
1513229254287754,-1,-2,-1,-1,0,0,1,-2
1513229254308271,-2,0,-2,0,-1,-1,0,0
1513229254308271,0,-1,-1,0,-1,-1,-1,-2
1513229254310269,0,-1,0,-1,0,-1,-2,0
1513229254310269,-3,0,1,1,-2,-1,-2,-2
1513229254331287,0,-2,-3,-2,-2,-1,-2,-2
1513229254331287,0,-4,0,0,-1,0,0,1
1513229254332786,0,-1,-2,-1,0,-2,0,0
1513229254332786,2,-1,-4,-2,0,-2,-1,2
1513229254360817,0,-1,-2,-1,0,-1,-1,-3
1513229254360817,-1,0,0,-1,-2,-1,-2,0
1513229254362807,-1,-2,0,0,0,-1,-1,-2
1513229254362807,0,-3,-2,-1,1,0,-3,-1
1513229254368323,-4,1,1,1,-1,1,0,0
1513229254368323,-3,0,0,-1,-1,2,-1,-1
1513229254370313,-1,0,-1,-1,-2,-2,1,-2
1513229254370313,1,0,-1,-1,-3,-3,-1,-1
1513229254390830,0,0,0,-1,-2,1,-2,-1
1513229254390830,0,-1,0,-2,0,1,0,0
1513229254392831,-2,-2,-2,-2,-1,-1,-2,-1
1513229254392831,-4,0,0,-1,0,-3,0,0
1513229254405838,0,-1,-2,-2,-1,-2,-1,-1
1513229254405838,1,-2,-3,-1,-1,-1,-1,-1
1513229254407840,1,-1,-2,0,-2,1,0,-1
1513229254407840,-3,-1,0,0,-2,-1,-1,-2
1513229254428369,-1,-3,0,-1,-2,0,-1,0
1513229254428369,-1,1,0,0,0,-2,0,-2
1513229254429856,-1,-1,-2,-1,-1,-1,-2,0
1513229254429856,2,-2,-3,-2,0,-1,-1,0
1513229254450892,-2,1,0,-2,1,0,-1,0
1513229254450892,0,0,-1,-1,-2,-2,0,-1
1513229254457393,-2,0,0,-1,0,-2,-2,-2
1513229254457393,-2,-1,1,-1,-2,2,-1,0
1513229254465403,-1,-3,-2,-1,0,-1,1,-1
1513229254465403,-2,-4,-1,0,0,-1,0,0
1513229254471894,-1,-1,0,-3,-1,-1,-1,-2
1513229254471894,-1,-3,-2,-1,-2,0,-1,0
1513229254488406,1,0,-1,-1,-1,-2,1,-1
1513229254488406,-2,1,-2,0,-1,1,-1,-1
1513229254489897,-1,-1,-1,0,-3,0,0,1
1513229254489897,-3,-1,0,0,0,0,-2,-1
1513229254510948,-1,-2,-1,0,-1,-2,-3,-2
1513229254510948,0,-1,-1,-2,-2,-2,-2,-2
1513229254517453,-2,-1,-2,-2,-3,-2,-2,-2
1513229254517453,0,1,0,-2,-1,1,-1,0
1513229254525462,0,-2,-1,0,-1,-2,-2,0
1513229254525462,1,0,-2,-1,-1,-2,0,-2
1513229254532464,0,-1,0,1,-2,-1,0,1
1513229254532464,-2,-1,-1,0,-2,-2,-1,-3
1513229254548494,-4,2,0,-2,-1,-1,-1,-1
1513229254548494,-2,-2,-2,-3,-1,-2,-1,-2
1513229254549976,0,0,-2,-2,1,-1,-2,0
1513229254549976,0,-1,-1,-1,0,-1,-1,-1
1513229254570991,-11,-2,3,1,0,-1,0,-2
1513229254570991,-2,0,0,-2,-1,-1,-2,1
1513229254572492,-2,-1,0,0,-1,-1,-2,0
1513229254572492,-1,0,-2,-2,-1,-2,-1,0
1513229254601052,4,-1,-3,-2,-2,-1,-2,-3
1513229254601052,-2,-2,-2,-1,0,-2,2,-2
1513229254602553,-2,-2,-2,-2,0,1,0,-4
1513229254602553,-2,-1,-2,-2,-1,-2,-2,-1
1513229254608570,3,-1,-1,-2,-2,0,0,0
1513229254608570,0,1,-1,-1,-2,0,0,0
1513229254610082,2,-2,-1,-2,0,-1,-2,-1
1513229254610082,0,-1,0,-1,-1,0,0,-1
1513229254631074,1,-1,-2,0,-2,-3,-2,0
1513229254631074,-2,-1,-2,-1,0,-1,-3,0
1513229254632575,-1,0,-1,0,-1,-1,-2,-1
1513229254632575,2,1,1,-2,-1,0,-1,-1
1513229254645083,0,-2,-1,0,-1,-1,-1,-1
1513229254645083,-4,-2,1,0,0,0,-1,-1
1513229254652088,-3,-1,-2,1,-2,-2,0,-1
1513229254652088,0,-2,-2,-2,-2,-1,0,-2
1513229254668600,-1,-1,-2,0,-2,0,-2,-1
1513229254668600,2,-2,0,-1,-2,-1,-2,-2
1513229254670111,-3,-2,0,-3,-1,-1,-1,-1
1513229254670111,-2,0,-2,-1,-1,-1,-2,-2
1513229254691136,-2,-2,-1,-1,-1,-2,-3,-1
1513229254691136,2,-5,-3,-2,-1,-1,-2,0
1513229254692636,-2,0,0,-1,-2,-1,1,-1
1513229254692636,-2,-2,0,0,-2,0,-1,-1
1513229254705629,-1,0,0,1,0,-1,1,0
1513229254705629,-3,-1,-4,-1,-1,0,-1,0
1513229254712146,0,-2,-2,-1,-1,0,-2,-2
1513229254712146,-2,0,-1,-3,-2,-1,-2,1
1513229254727664,-2,-4,-3,-2,0,0,-1,-1
1513229254727664,-2,0,0,0,1,-3,0,-3
1513229254736201,0,-2,-1,-1,-1,0,-1,0
1513229254736201,-4,0,-1,-1,-2,-2,-1,-1
1513229254750720,-1,0,-2,-2,-1,-1,-2,-1
1513229254750720,4,1,-2,-1,-3,-2,-1,0
1513229254752727,-2,1,-1,0,0,-1,-1,0
1513229254752727,0,-3,-3,-1,-1,0,-1,0
1513229254765270,0,-2,-2,-1,0,-1,0,-1
1513229254765270,1,-2,-1,0,-1,-2,0,-2
1513229254772285,-2,0,-1,-2,-2,-2,-2,-2
1513229254772285,-1,-1,-1,-2,-1,-3,-1,-1
1513229254795792,0,0,-1,-1,-1,1,0,-1
1513229254795792,-6,-1,-1,0,-1,-1,-1,-2
1513229254797794,-1,-2,-1,0,-1,-2,-2,-1
1513229254797794,-1,0,-1,0,-2,-3,-2,-2
1513229254810804,-1,-1,-1,-1,0,-1,-2,-1
1513229254810804,-9,0,2,0,-2,0,-1,-3
1513229254812806,0,-2,-1,-1,-2,0,0,0
1513229254812806,-1,-1,-1,-1,-1,0,1,0
1513229254833317,0,-1,0,-1,1,-3,-1,1
1513229254833317,0,-1,0,-2,-1,-1,0,-2
1513229254834818,2,2,-2,-3,2,-3,-1,-2
1513229254834818,-1,0,-2,0,0,0,0,-3
1513229254848830,-2,-1,-3,-2,-1,1,-3,-1
1513229254848830,-1,-2,0,-2,-1,-2,-1,0
1513229254850330,0,-1,0,0,0,-1,-2,-2
1513229254850330,-1,-2,0,0,-1,0,-2,0
1513229254870848,-2,0,-2,1,-2,0,1,0
1513229254870848,1,-1,-1,0,-2,-2,-1,-1
1513229254876937,-1,-2,-2,-2,-2,-1,-1,-1
1513229254876937,0,-2,0,0,-2,-2,-1,-2
1513229254884918,-1,-1,-1,-1,-2,-1,-2,-1
1513229254884918,0,-2,-2,0,0,0,-2,0
1513229254893444,-1,1,0,-1,-2,-1,1,-1
1513229254893444,-1,-1,-2,-1,0,-1,0,-2
1513229254908449,-1,-2,-1,-2,-2,1,0,-3
1513229254908449,-1,-2,-1,-1,0,-2,0,-1
1513229254909943,-5,-2,-1,1,-1,0,0,-1
1513229254909943,-2,-2,1,-1,-2,-1,-2,1
1513229254930961,0,0,0,-1,-2,-2,-2,-1
1513229254930961,5,-1,-3,-2,-3,0,-3,0
1513229254932464,-2,-1,0,-2,-1,-1,-1,-1
1513229254932464,-1,-1,-1,-1,0,-1,-3,-3
1513229254944463,0,-1,-2,1,0,0,-1,0
1513229254944463,-2,-1,-3,-2,-2,-1,-2,1
1513229254953467,-2,0,0,-1,-2,1,-1,0
1513229254953467,0,0,-3,0,-1,0,0,0
1513229254968489,0,-2,-3,-1,-1,-1,1,-1
1513229254968489,-3,-1,-1,-2,-1,-1,-1,-3
1513229254970479,-1,-1,-2,-2,-1,-2,-1,-1
1513229254970479,-2,-1,0,-1,0,0,-2,-1
1513229254991012,-2,-1,-3,-1,-1,-3,-1,-2
1513229254991012,-1,1,-1,-1,-1,1,0,-1
1513229254992494,-1,-3,-1,0,0,0,-2,-1
1513229254992494,3,-1,0,-1,0,1,-1,-1
1513229255004513,-2,-2,1,-2,-1,0,-1,0
1513229255004513,-2,-1,0,-1,-1,-1,-2,-2
1513229255013519,-1,-1,-2,0,-1,-2,-1,0
1513229255013519,0,-2,-2,-1,-1,-3,0,1
1513229255028525,-5,0,0,-1,0,-1,0,0
1513229255028525,-7,-1,1,-1,0,-1,-1,-1
1513229255030021,0,-1,0,-2,-1,-1,-2,0
1513229255030021,-2,-3,0,0,-2,-1,0,1
1513229255051050,4,1,-2,-1,-2,-2,-1,-1
1513229255051050,-1,-1,-1,0,0,-2,0,0
1513229255052552,0,0,-2,0,-1,-3,-1,-1
1513229255052552,-1,0,-1,0,-3,-1,0,-1
1513229255064545,-3,-2,-2,1,-1,-1,-1,-1
1513229255064545,0,-1,1,-3,0,-2,-2,-2
1513229255073552,0,-3,-2,-3,-3,-1,-1,-2
1513229255073552,-1,0,-1,-1,0,-2,-1,-1
1513229255087562,-2,-2,-2,-2,-1,1,1,0
1513229255087562,1,0,-3,-2,0,-2,-2,0
1513229255096077,-2,-4,-2,-1,-1,-2,0,-2
1513229255096077,0,0,-1,-1,-2,-1,0,-1
1513229255111079,-3,-1,0,0,-2,-1,-1,-2
1513229255111079,-1,0,-2,0,-1,1,0,0
1513229255112580,1,-2,-1,0,1,0,0,-2
1513229255112580,-2,-2,-2,-1,-1,-1,-2,0
1513229255124588,0,-4,-2,-1,0,-1,-1,0
1513229255124588,-1,-3,-2,-1,-1,-1,-1,-1
1513229255134096,1,0,-1,0,-2,-2,-1,0
1513229255134096,0,0,-3,-3,-1,0,0,0
1513229255148604,0,2,0,-1,0,-2,-2,-2
1513229255148604,-1,0,-1,0,-1,-2,-2,-1
1513229255150108,-2,0,-1,-1,0,-2,-1,0
1513229255150108,0,-4,0,0,-1,-2,-3,0
1513229255171638,3,-3,-3,-2,-1,-1,-2,2
1513229255171638,-3,-2,-1,0,0,0,-1,-1
1513229255173139,-1,1,1,-2,-2,0,-2,-1
1513229255173139,-2,-1,0,-2,-2,-3,-2,0
1513229255184630,-1,2,-2,0,0,-1,-2,-1
1513229255184630,0,0,-2,0,-3,0,0,0
1513229255193638,-1,-5,-4,-2,0,-2,0,-2
1513229255193638,-2,0,0,0,-2,-1,-1,-2
1513229255208673,-4,-1,2,-1,-1,-1,0,-1
1513229255208673,-1,-1,1,-1,0,-1,1,-2
1513229255210173,-1,-1,-1,0,-1,-1,-2,0
1513229255210173,-1,-1,0,-3,-1,-1,0,1
1513229255231163,-1,-1,-2,-1,-1,-2,-1,-1
1513229255231163,-1,-2,-2,-3,-1,-2,-1,-1
1513229255232664,-1,0,0,-2,-1,-1,0,-1
1513229255232664,-1,-1,-1,-1,-1,0,1,0
1513229255260755,-1,-1,-1,-1,-1,1,0,1
1513229255260755,1,-2,0,-1,-2,-1,0,0
1513229255262718,0,1,-2,0,-2,1,0,-1
1513229255262718,-2,1,-1,-2,-1,-1,0,-3
1513229255268221,-2,1,0,-2,-2,-3,1,-2
1513229255268221,0,-1,-2,-1,-1,-2,-1,-1
1513229255270226,-1,-1,-2,-1,-1,0,-1,0
1513229255270226,-2,-2,-2,1,0,-2,-1,-1
1513229255291241,-1,-1,-2,1,-1,-2,-1,-3
1513229255291241,1,2,-1,-1,0,-1,-2,-1
1513229255293239,-1,0,1,0,-1,-2,-1,-1
1513229255293239,2,-3,-2,-3,-2,-2,0,0
1513229255313269,-4,-1,1,-1,-2,-1,0,-1
1513229255313269,-2,-1,-1,-1,-2,0,-2,1
1513229255315290,-2,-2,-2,-2,-1,-2,0,0
1513229255315290,-2,-1,-2,-1,-1,0,-1,-2
1513229255328777,-1,0,1,0,-1,-3,1,0
1513229255328777,0,-1,-2,-2,-2,-1,1,-2
1513229255330285,-1,-1,0,1,-2,-1,-1,-3
1513229255330285,1,0,0,0,0,0,-2,-1
1513229255350780,-3,-3,-3,-2,-2,1,-3,-1
1513229255350780,-3,-1,-3,-2,-2,-3,1,-1
1513229255352781,-2,0,-2,-3,-1,0,-2,0
1513229255352781,-1,0,-2,0,-1,-2,-1,-1
1513229255373319,-5,1,0,0,0,0,-1,-1
1513229255373319,0,-1,-1,-2,0,-2,0,-1
1513229255375297,-1,-1,-1,-1,-2,-1,-3,1
1513229255375297,-1,-1,0,0,0,-1,-1,-1
1513229255388810,3,-4,-1,-1,-1,-2,-3,-1
1513229255388810,-1,0,-1,-1,0,0,-2,1
1513229255390808,-3,-1,-1,-2,0,-2,1,-2
1513229255390808,-3,0,-2,-2,-1,1,0,0
1513229255410842,-2,0,0,-3,-1,-3,0,-1
1513229255410842,-2,-2,0,-2,0,-1,-1,-2
1513229255412830,0,-1,-1,-1,-3,-1,0,0
1513229255412830,0,-1,0,-1,-2,-1,-1,0
1513229255433350,1,-2,-2,-1,-2,-1,-1,-1
1513229255433350,-1,-2,-2,0,-1,0,-3,0
1513229255435340,-3,0,0,0,1,0,0,-1
1513229255435340,-2,-1,0,0,-1,-1,-1,-2
1513229255447848,2,-2,-2,-1,-1,-2,-1,-3
1513229255447848,-1,1,-1,-2,-2,-1,-2,-1
1513229255454854,0,-2,-2,-1,-1,-2,-1,-1
1513229255454854,-4,-3,0,-3,-2,-1,0,-3
1513229255470864,-2,-1,0,-1,-2,-2,0,-2
1513229255470864,-1,-1,1,-2,-2,-1,0,-1
1513229255472368,-4,-2,1,0,0,0,-2,-2
1513229255472368,-3,1,0,-1,0,0,-2,1
1513229255493398,0,-1,-2,-2,-2,-1,0,-1
1513229255493398,-2,-2,-1,-1,-2,-2,0,-1
1513229255494883,-3,0,-1,-2,0,-2,-2,0
1513229255494883,-1,-3,-2,0,-2,-1,-1,-1
1513229255507893,0,-1,1,-4,-1,0,0,-1
1513229255507893,0,0,0,-1,-1,-2,0,0
1513229255514897,1,0,0,-1,-3,-2,1,-2
1513229255514897,-1,-2,-3,0,0,-1,-1,-2
1513229255530907,-2,-1,-3,-1,-1,-2,-2,0
1513229255530907,-1,-1,0,0,-1,-1,1,0
1513229255532409,0,-2,-2,-1,-1,-1,-1,-3
1513229255532409,1,0,-1,-1,-2,-1,0,-1
1513229255553423,-3,-3,-2,0,0,0,-1,-3
1513229255553423,-1,1,-1,-1,-1,1,-1,-2
1513229255554924,-2,0,-3,-2,-2,-1,-2,-1
1513229255554924,1,-1,-1,0,-2,-1,-1,-1
1513229255567935,0,-1,-2,0,-2,-2,0,0
1513229255567935,-2,-3,0,-1,-1,-3,-2,-2
1513229255574461,0,-1,0,-2,-2,-1,-2,0
1513229255574461,-1,-2,-1,-3,-2,-1,0,-1
1513229255590952,-2,0,1,0,0,-2,0,-2
1513229255590952,0,-1,-1,0,-1,-1,-1,-1
1513229255592450,0,-2,-2,-1,-1,-2,-1,-2
1513229255592450,0,-1,-1,0,-1,-1,-2,0
1513229255613489,-6,-2,1,0,0,1,-1,-1
1513229255613489,-2,-2,0,-1,-1,0,-1,0
1513229255614968,-1,-1,-2,-1,-1,-1,-3,-1
1513229255614968,-1,-1,-1,0,-1,-1,0,-1
1513229255628009,2,-2,-5,0,-2,-2,-1,0
1513229255628009,-5,1,-1,1,-1,0,-1,-4
1513229255634480,-2,-1,-1,0,-1,0,-1,0
1513229255634480,-1,-4,-4,-3,-1,-3,-1,0
1513229255650994,-3,0,1,0,-1,1,0,-1
1513229255650994,0,-2,-1,-1,-2,-1,-2,0
1513229255652493,1,0,-2,0,0,-2,0,0
1513229255652493,-1,-1,-2,-2,0,1,-1,-1
1513229255673532,1,-2,-2,-2,1,-2,-1,-1
1513229255673532,2,-1,-3,-2,-2,-1,-1,1
1513229255675009,-2,1,0,-1,-1,-1,-1,-1
1513229255675009,-1,1,-1,-1,0,-1,0,-1
1513229255688028,-2,0,1,1,-2,-1,-1,-1
1513229255688028,-2,-1,-3,-2,0,-1,0,-1
1513229255694546,0,-1,-2,-1,-1,-1,-2,-1
1513229255694546,-1,0,-1,0,-1,-2,-2,-1
1513229255711034,-5,-1,0,-1,0,-2,-1,0
1513229255711034,-1,-1,-2,0,-1,-2,1,-2
1513229255712536,-1,-3,-1,-1,-1,-2,-1,-1
1513229255712536,-1,0,-1,1,-1,-2,-1,-1
1513229255733050,1,-2,-2,-3,-2,-1,-1,-1
1513229255733050,0,-1,-1,-3,-1,-2,-1,-1
1513229255739557,-3,-1,0,-2,-2,0,1,-2
1513229255739557,-1,0,0,2,-1,0,-1,-2
1513229255747060,0,-1,-3,-1,0,-2,-2,0
1513229255747060,-2,-3,-4,-2,-1,-1,-3,0
1513229255756078,0,1,-1,-3,-3,-1,-3,-2
1513229255756078,-2,-1,-1,-2,-1,-1,-1,-1
1513229255771089,-1,0,-1,-2,-2,-1,0,-1
1513229255771089,-1,-2,-2,0,-2,-1,-2,-4
1513229255772591,2,-1,-2,-1,-1,-2,-1,-1
1513229255772591,-3,-3,-2,-2,0,-3,-1,-1
1513229255793631,-2,-2,0,-1,-1,1,1,0
1513229255793631,-2,2,0,1,0,-1,0,-1
1513229255795098,-3,-1,-2,-1,0,0,-1,-2
1513229255795098,0,1,0,-1,0,0,-1,-3
1513229255807106,1,-3,-1,-1,-1,0,-1,-2
1513229255807106,1,-2,-1,-2,-2,-1,-1,0
1513229255816112,0,-3,-1,-1,-2,0,0,1
1513229255816112,2,-1,-2,-3,-2,-1,-2,1
1513229255831120,1,0,-2,-2,-2,-2,-2,0
1513229255831120,-1,-2,-1,-1,-1,0,0,-2
1513229255832621,-1,0,0,-2,0,-1,0,0
1513229255832621,1,-3,-3,-1,-1,-1,0,-1
1513229255853636,-3,-2,0,-1,-1,2,-2,-2
1513229255853636,-2,-3,-2,-2,-1,-2,-1,0
1513229255855137,-1,-1,-1,0,-1,-1,0,-2
1513229255855137,-2,0,-1,-1,-1,-2,-1,-2
1513229255867145,1,0,-2,0,-2,0,-2,-2
1513229255867145,-4,-2,-2,-2,0,-1,-1,0
1513229255876152,-2,0,-2,-2,-1,0,-1,-2
1513229255876152,-2,-1,1,-2,-1,-1,-2,0
1513229255891162,0,-1,-2,0,0,0,-1,0
1513229255891162,0,-2,0,-1,-2,-2,0,1
1513229255892670,1,-4,-3,-1,-1,0,-1,0
1513229255892670,-8,0,-1,0,-2,1,-1,-3
1513229255913688,0,0,-1,-3,-1,0,-1,0
1513229255913688,1,-1,-2,0,1,-1,-1,-2
1513229255915179,0,-3,-1,-2,-2,-3,-2,-2
1513229255915179,3,-2,-2,-1,-1,0,0,1
1513229255927206,-2,-2,0,0,0,-3,-2,-1
1513229255927206,-2,-1,-1,-2,-2,-3,0,-2
1513229255936213,-2,0,-2,-2,-2,0,0,-1
1513229255936213,1,-1,-2,-1,-2,-2,0,-1
1513229255951204,-1,0,-2,-1,-2,0,-1,0
1513229255951204,1,-1,1,-2,0,-1,-2,-1
1513229255952705,-3,-1,-1,1,1,-2,-1,-3
1513229255952705,-2,0,-2,-3,-1,0,-2,-2
1513229255973255,-1,2,-1,0,1,-2,0,-1
1513229255973255,-1,-1,-1,-1,0,-1,-2,0
1513229255975236,0,0,-4,0,-1,-2,-1,1
1513229255975236,-1,0,-1,-1,0,0,-1,-1
1513229255987233,-1,-2,-3,0,-2,-1,-2,-2
1513229255987233,0,-3,0,-2,-2,-1,-1,-1
1513229255996235,0,0,0,-1,-2,-1,0,-2
1513229255996235,1,-2,-3,-1,-1,0,-1,0
1513229256025773,-1,-1,0,-1,0,-1,-1,-1
1513229256025773,-1,1,-1,-2,-1,0,-1,-2
1513229256027759,0,-3,-1,-3,-1,1,-2,0
1513229256027759,-2,-1,0,-1,1,-1,0,-1
1513229256033261,-1,-2,-1,-4,-2,0,-2,-1
1513229256033261,-3,0,-1,-1,-1,-1,-1,1
1513229256035263,-2,0,-1,0,0,-1,-1,0
1513229256035263,-1,-1,-1,1,-3,-3,-1,0
1513229256047272,0,-3,-1,-1,1,-2,-1,-2
1513229256047272,-2,-2,-2,-1,-2,0,-1,0
1513229256056285,-1,-2,-1,-1,0,-1,-1,-2
1513229256056285,0,0,-1,-2,0,-1,-1,-1
1513229256070803,-1,0,-1,-1,-1,-1,0,0
1513229256070803,0,-2,-3,-1,-2,-2,-1,-3
1513229256072789,-1,1,-2,0,-2,-1,-2,0
1513229256072789,-2,-1,-2,0,-1,0,0,-1
1513229256093306,-2,0,0,1,0,-1,1,-2
1513229256093306,-1,-1,-2,-1,0,0,-2,-1
1513229256095306,-2,0,-1,-1,0,-1,0,0
1513229256095306,-1,-2,0,-1,-2,-1,-1,0
1513229256107315,-1,-1,-1,-1,-1,0,-1,0
1513229256107315,0,-2,1,1,-1,1,2,-1
1513229256116321,-3,-1,-1,-1,-2,0,-1,-1
1513229256116321,-1,-2,-1,-1,-2,-1,-2,-3
1513229256130831,-1,-1,-1,-2,-1,0,-1,0
1513229256130831,-2,0,-1,-1,-1,-2,-2,-2
1513229256132833,1,-2,0,-1,-2,0,-1,0
1513229256132833,-1,-2,-2,-1,-2,-1,-2,1
1513229256153347,3,1,-3,-1,-2,-2,-2,1
1513229256153347,-8,2,-1,0,0,0,-1,-3
1513229256154848,1,0,-1,-1,0,-2,0,-1
1513229256154848,-2,0,0,-1,0,-1,0,-2
1513229256166858,-1,-2,-2,-1,-1,-2,-1,-2
1513229256166858,1,-3,-2,-2,-2,-1,-2,1
1513229256175863,-1,-2,0,0,-1,-1,-1,-2
1513229256175863,-1,-1,-1,1,2,-2,0,-2
1513229256190894,0,-3,-3,-2,-3,-3,0,0
1513229256190894,0,0,-2,-2,0,-1,-1,-2
1513229256192375,-2,-1,0,0,-2,-2,-2,0
1513229256192375,0,-1,-1,-2,0,0,-1,0
1513229256213413,-2,0,-1,1,-2,0,0,-3
1513229256213413,0,-1,-1,-2,0,-2,-1,0
1513229256214903,-1,-1,-2,0,-1,-1,0,-2
1513229256214903,-3,0,-1,-2,-1,-2,-1,-2
1513229256235906,-1,-1,-1,-1,0,-2,-1,0
1513229256235906,0,-1,-2,-1,0,0,-2,-2
1513229256237907,0,-1,-2,-2,0,1,-1,0
1513229256237907,0,-1,-1,-1,-2,0,0,-1
1513229256250916,-2,-2,-1,0,0,-1,0,-2
1513229256250916,0,-1,-1,0,-2,-2,0,1
1513229256256920,-5,-2,2,-2,-1,-2,-1,-1
1513229256256920,-3,0,1,-1,-2,-2,-2,0
1513229256273454,0,-1,2,-1,1,-1,-1,-1
1513229256273454,-1,0,-1,-1,-1,0,0,-3
1513229256274933,0,-2,-2,0,-1,-2,-1,-4
1513229256274933,2,0,0,-1,-2,-1,-1,0
1513229256295948,-2,-2,-1,-2,-1,-3,-1,-1
1513229256295948,0,-3,-2,-2,-2,-2,-2,1
1513229256297449,-2,1,-1,-2,0,0,0,-1
1513229256297449,-1,-1,-2,-2,1,0,-1,-2
1513229256310981,-1,-1,-1,1,-3,0,-1,-1
1513229256310981,0,0,-1,0,-2,0,1,-2
1513229256312460,0,-3,-3,-2,-1,-2,0,1
1513229256312460,0,-1,-2,-1,-2,-3,-1,0
1513229256333474,-2,-2,-2,0,-1,0,0,-1
1513229256333474,-2,-2,0,1,-2,-3,0,-1
1513229256334975,0,-2,0,-1,-3,-1,-1,0
1513229256334975,-4,1,1,-1,0,0,0,-1
1513229256356042,-1,1,-3,-3,-2,0,-2,-1
1513229256356042,-2,0,-4,0,0,0,-2,-1
1513229256357544,0,-2,-1,-1,-1,0,0,-1
1513229256357544,0,-2,-2,-1,1,-2,-3,-1
1513229256370552,0,0,-2,0,0,1,0,0
1513229256370552,0,0,1,-2,-1,0,0,-1
1513229256377060,1,1,-1,-2,-1,-2,-3,-1
1513229256377060,0,-1,-2,-1,-1,-1,-1,-1
1513229256401093,-3,-2,-2,0,1,-1,-2,-2
1513229256401093,-1,0,-3,-2,-1,-2,-2,-2
1513229256402579,0,-2,-2,-1,0,-1,-2,-1
1513229256402579,1,-2,-2,-1,-1,-2,0,-2
1513229256416088,-1,1,-1,-3,-2,0,-1,0
1513229256416088,1,-1,-3,-1,-2,-2,-1,-1
1513229256417587,-2,1,-2,0,-2,-2,-1,-1
1513229256417587,-1,-2,-1,-1,-2,0,-1,0
1513229256430128,0,-2,-2,-1,-1,-1,0,0
1513229256430128,-1,-2,-1,-2,-1,-1,-1,1
1513229256437127,0,-3,1,-1,0,-2,0,0
1513229256437127,0,0,-1,0,-3,0,-1,1
1513229256453621,-1,-1,-2,-2,-1,-1,-1,-1
1513229256453621,-2,-3,-1,0,-2,0,-1,-1
1513229256455122,0,-1,-1,0,-2,-1,0,-1
1513229256455122,-7,0,0,-2,0,0,-3,-4
1513229256475642,-3,-1,0,1,0,-2,-2,-1
1513229256475642,-1,1,-1,-1,0,-2,1,-1
1513229256482132,3,-1,-3,-2,-1,1,0,1
1513229256482132,2,-2,-2,0,0,-1,1,1
1513229256489640,1,-1,-1,-3,-1,0,-3,-3
1513229256489640,-1,0,1,-1,0,0,-2,-2
1513229256498646,-1,0,-2,0,-1,0,-2,-1
1513229256498646,-1,0,-2,-2,-3,-1,-1,-2
1513229256513653,-1,-3,1,-2,0,-2,-1,-3
1513229256513653,0,-1,-1,-2,-1,-3,0,-1
1513229256515171,-6,0,0,-1,-1,1,-1,-1
1513229256515171,-2,-3,0,-1,0,0,0,0
1513229256536169,-3,-2,0,0,-3,-2,0,-1
1513229256536169,1,-3,-2,-1,-2,1,-2,0
1513229256538695,-4,0,1,0,1,-1,-1,-2
1513229256538695,-1,-1,-1,0,1,-2,-1,-2
1513229256550180,-1,-3,-2,-3,-2,-1,-1,0
1513229256550180,-1,1,0,-1,0,0,1,-2
1513229256557185,1,-2,-1,-1,-2,-2,-1,-2
1513229256557185,-1,-1,-2,2,0,-1,-1,-1
1513229256573696,0,-3,-1,0,0,-2,-1,-2
1513229256573696,-1,-2,-3,-1,-1,-2,-2,-1
1513229256575201,-2,-1,-2,-1,-2,-1,-2,-1
1513229256575201,2,0,0,-1,-1,-2,0,-2
1513229256595712,0,1,-1,-3,-1,-1,1,0
1513229256595712,-2,-2,-1,-2,-1,-2,-1,-1
1513229256597714,0,-1,-2,0,-1,-1,-1,-1
1513229256597714,-2,0,-1,-3,0,-3,0,-1
1513229256610725,-3,1,-1,-1,-1,-1,-1,-1
1513229256610725,-1,-1,0,-1,-1,-2,-2,-2
1513229256617227,0,-1,-1,-1,-2,0,-2,-2
1513229256617227,1,0,-2,-1,-1,-2,-1,-2
1513229256633238,-1,0,-1,-2,-3,-1,-2,0
1513229256633238,-3,-1,-1,0,-1,0,-1,-1
1513229256635250,0,-1,-3,-1,-2,0,0,0
1513229256635250,0,-2,-4,-3,-1,-1,-1,0
1513229256655765,-1,0,-2,0,-1,0,-2,-1
1513229256655765,-1,-2,-2,-1,-1,-3,-1,-1
1513229256657755,-1,-1,-1,1,-1,-2,0,-1
1513229256657755,-3,-1,-1,-1,-1,1,0,0
1513229256678774,-1,0,-2,-1,-1,-2,-1,-1
1513229256678774,-2,-1,-3,0,-2,-1,-1,-1
1513229256680302,0,-3,-1,-1,1,-1,-1,-2
1513229256680302,1,-2,-1,-2,-2,0,0,0
1513229256693303,-2,-1,-1,0,-2,-1,-2,-1
1513229256693303,-1,0,0,0,-1,1,-1,0
1513229256695282,-1,-1,-2,0,0,-1,-1,-1
1513229256695282,-1,-2,0,-2,-3,-2,-2,0
1513229256715798,-2,-1,-1,-1,0,-3,-1,-2
1513229256715798,-2,-1,0,-1,-1,0,0,-3
1513229256717298,-1,-1,-2,-1,-2,-1,0,-2
1513229256717298,-1,-2,-1,-1,0,0,-1,-2
1513229256729807,0,-1,-1,-2,-1,-2,-2,-1
1513229256729807,0,-2,-1,-2,-1,0,0,-1
1513229256738313,-1,-1,1,0,0,0,-1,-1
1513229256738313,2,-2,-1,1,-1,0,-2,0
1513229256753335,-7,-2,1,1,-1,0,0,-2
1513229256753335,-1,-2,-1,0,1,-1,-2,0
1513229256754825,-2,-2,-1,-1,-2,-4,-2,0
1513229256754825,-1,3,0,-2,0,-1,-1,0
1513229256775842,2,-1,1,-1,-1,-1,0,-1
1513229256775842,0,-3,-3,-2,-2,0,-1,-1
1513229256777340,-4,-1,0,-1,0,0,-1,-2
1513229256777340,-1,-2,-2,-1,-2,-1,-2,-2
1513229256798355,-1,-2,-3,0,-1,0,1,-1
1513229256798355,-3,-1,0,-2,0,0,-1,-3
1513229256799856,0,-1,-2,0,-1,-2,0,0
1513229256799856,-2,-1,-1,0,-1,-2,0,-1
1513229256813368,1,-1,1,-1,0,0,-2,-1
1513229256813368,0,-2,0,-1,-1,-2,-1,0
1513229256814867,-1,-2,-1,-1,-2,-1,-2,-1
1513229256814867,-2,0,-2,-1,-2,-2,-3,0
1513229256835881,0,-1,-3,-1,0,-2,0,0
1513229256835881,-3,0,0,0,0,-2,0,-2
1513229256838383,0,-3,-1,-3,0,0,0,0
1513229256838383,-2,-1,1,-1,1,-1,0,-1
1513229256849891,1,-1,-2,-2,-2,-1,-1,0
1513229256849891,-2,-1,-4,-2,0,-2,-2,-2
1513229256858398,-3,1,-1,-1,-2,-1,-2,-2
1513229256858398,-3,-1,-2,0,0,-1,-1,-2
1513229256873411,3,-4,-4,-1,-1,-1,-2,1
1513229256873411,-3,-1,-2,-1,-1,0,0,0
1513229256874909,-1,0,1,-2,-2,0,0,0
1513229256874909,0,-2,-3,-1,-1,-1,-1,-1
1513229256895924,-2,0,-2,-3,-2,0,-1,-1
1513229256895924,0,-4,-3,-1,-1,-2,-2,-1
1513229256897425,1,-1,-1,-2,-1,0,-2,-1
1513229256897425,-3,-3,0,-1,-2,-1,-1,-2
1513229256909434,-3,0,0,0,-1,-3,0,-2
1513229256909434,1,-1,-2,-1,-2,-1,0,-1
1513229256918481,-2,-1,-2,0,0,-1,-2,-2
1513229256918481,0,-1,-3,-1,-1,-1,0,-1
1513229256933489,-2,-1,-3,-2,-1,0,-1,-1
1513229256933489,3,1,-2,-1,-1,-1,-2,0
1513229256934998,0,-1,-1,0,-2,-3,-1,-1
1513229256934998,0,1,0,-1,0,0,-2,-1
1513229256956016,-1,-1,-1,-1,-1,-2,-2,0
1513229256956016,-1,-2,0,-3,-3,-1,0,0
1513229256957505,-1,-2,0,0,0,-1,-1,-1
1513229256957505,-2,2,1,0,1,0,-1,-2
1513229256969514,-2,-5,-1,-3,-1,-1,0,-1
1513229256969514,0,-1,-1,-1,-1,-1,-1,0
1513229256978568,-3,1,0,0,-1,0,-1,-1
1513229256978568,2,0,-1,-2,-3,-2,0,1
1513229256993079,0,0,-1,-1,-2,-1,-1,-1
1513229256993079,-4,0,-1,-1,-2,-3,0,-2
1513229256999584,-2,-1,-1,-2,0,1,-1,-2
1513229256999584,-4,-5,-10,-3,-1,-2,-2,-2
1513229257016112,-2,-1,9,0,-2,0,-2,-2
1513229257016112,-1,0,-1,0,0,1,-2,0
1513229257017598,3,-2,-1,2,0,-1,0,-1
1513229257017598,0,-2,-2,-6,-5,-2,-1,0
1513229257029613,-2,0,-4,-2,-3,-2,-1,-1
1513229257029613,-2,0,-1,3,-1,-2,-1,0
1513229257038613,8,-3,-8,-3,-1,-1,-2,0
1513229257038613,-3,-1,0,12,1,-1,0,-2
1513229257053621,3,3,-4,-11,-2,-1,0,0
1513229257053621,-1,-2,6,3,-1,-1,0,-4
1513229257055122,-4,-5,-15,-10,-1,-1,0,-1
1513229257055122,-3,-2,6,-4,-3,-3,-4,1
1513229257076137,-2,-2,7,15,1,-1,-2,-2
1513229257076137,0,-2,-2,-5,-3,-4,-3,-1
1513229257077638,-3,1,-2,-5,-2,-3,-2,-1
1513229257077638,-7,-1,-11,-2,-1,-1,-2,-4
1513229257089649,-7,-4,-2,-10,-1,-1,0,-2
1513229257089649,-2,-5,7,1,-1,0,-1,0
1513229257098657,-2,-2,0,5,-1,-1,-3,-1
1513229257098657,0,0,4,-4,0,-1,-2,-5
1513229257113663,6,3,-9,-2,-2,-1,1,4
1513229257113663,-3,-3,5,1,-1,2,0,-2
1513229257115165,-8,-6,1,0,-2,0,0,-2
1513229257115165,0,-1,-3,-2,0,0,1,-2
1513229257136179,-3,-8,-2,0,-2,-1,-2,-3
1513229257136179,4,1,1,6,1,-1,-1,-3
1513229257137680,6,6,36,6,0,0,0,6
1513229257137680,-2,-6,-7,7,-2,0,0,1
1513229257159196,4,3,9,-30,-4,0,-1,1
1513229257159196,-5,-2,-5,1,0,-2,1,3
1513229257160707,-3,-1,-12,5,-1,0,0,5
1513229257160707,-8,-2,4,6,2,-1,-4,-23
1513229257173705,2,-4,-7,10,2,2,1,-2
1513229257173705,6,1,26,-11,-5,-4,-2,-1
1513229257175230,-10,0,0,-19,-6,-5,-4,-7
1513229257175230,12,1,49,17,-1,-1,0,16
1513229257195721,-10,2,-13,-20,-5,-3,-4,-7
1513229257195721,7,-9,-61,-15,-1,1,-3,0
1513229257197723,-8,5,20,12,1,-1,1,-6
1513229257197723,-5,-1,16,0,-2,-2,-1,4
1513229257218238,2,-2,-37,9,1,-2,0,-5
1513229257218238,3,3,15,4,0,0,1,1
1513229257220243,-16,-16,-4,-1,-1,-1,-3,-5
1513229257220243,1,-1,-50,-16,-3,1,2,4
1513229257233250,2,-4,8,17,2,0,-1,1
1513229257233250,-2,2,-20,-12,-1,1,0,-1
1513229257235250,1,3,9,-6,0,-2,-1,-5
1513229257235250,-8,-8,11,3,-1,-1,0,1
1513229257255763,-9,9,5,4,0,1,-1,-4
1513229257255763,-9,0,4,11,0,-1,0,1
1513229257257765,9,1,35,9,-4,-1,-4,-8
1513229257257765,-8,-3,-29,-9,1,0,-1,-2
1513229257278282,-3,-10,3,-1,-4,-2,-3,5
1513229257278282,-16,2,-12,-3,5,4,3,-1
1513229257280281,-9,0,4,12,-1,-3,-3,-5
1513229257280281,13,10,-1,-22,-4,-1,-1,7
1513229257292813,6,3,15,6,-1,-1,0,-4
1513229257292813,-3,-13,-37,-7,-1,-1,-1,2
1513229257299795,17,-1,-14,-7,-2,0,-1,4
1513229257299795,-4,1,-10,1,-1,-1,-2,-5
1513229257316306,-3,0,11,7,-3,-3,-2,4
1513229257316306,6,15,29,-1,-2,-2,0,0
1513229257317307,2,-6,-50,-15,-2,2,-1,5
1513229257317307,-12,2,7,13,4,-1,-1,-6
1513229257338325,-9,-2,46,-7,-1,0,-1,-2
1513229257338325,-2,-5,-85,-4,1,-1,-1,-5
1513229257339823,6,9,27,0,-3,-2,1,3
1513229257339823,-2,-3,-21,-5,-1,-1,-1,0
1513229257352832,-2,-7,3,1,-1,-3,-5,-5
1513229257352832,0,-7,35,-1,-3,-3,-4,-6
1513229257366842,-2,-3,-7,-8,-1,-2,-2,2
1513229257366842,0,-8,-12,1,-1,1,-2,-1
1513229257375851,6,10,13,9,3,0,4,3
1513229257375851,-14,-9,7,-4,-5,-3,-7,-10
1513229257377350,5,-8,-20,4,0,-1,-1,-2
1513229257377350,-4,7,40,-3,-2,-2,-4,-4
1513229257405887,-9,-10,-33,-8,-1,-4,-2,-3
1513229257405887,-2,2,19,3,1,2,4,6
1513229257407373,0,3,-20,-3,-2,-3,-5,-11
1513229257407373,18,2,36,3,-1,-1,5,11
1513229257412879,-16,-10,-60,-11,-1,-1,-1,-3
1513229257412879,-11,0,15,3,-1,-5,-7,-9
1513229257419379,-13,-6,6,5,4,3,7,8
1513229257419379,-9,-12,-1,7,-5,-4,-5,-8
1513229257435892,-1,17,18,-6,0,1,-3,-4
1513229257435892,4,4,-46,-12,1,-1,1,4
1513229257438393,5,-8,26,0,-1,1,0,3
1513229257438393,-4,-2,-3,6,0,-2,-2,-4
1513229257458407,8,0,-22,-4,1,2,2,2
1513229257458407,-2,3,20,15,-1,4,5,9
1513229257459909,14,-5,-19,-5,-2,-2,-4,-1
1513229257459909,-3,6,-32,-8,0,-1,0,4
1513229257481927,-5,2,11,0,1,1,3,3
1513229257481927,-4,-7,60,7,-2,-6,-6,-5
1513229257486930,-7,5,-5,-8,-3,-1,2,6
1513229257486930,30,3,19,-11,-4,-3,-2,2
1513229257495933,-12,-10,-22,-7,-3,-1,-1,-7
1513229257495933,14,5,-20,13,2,2,1,10
1513229257497434,-13,-4,-8,-11,0,-1,0,-6
1513229257497434,13,10,-9,-4,-1,-2,0,5
1513229257517459,-24,-8,35,11,-3,-6,-7,-16
1513229257517459,-2,-16,-21,-2,-2,-3,-5,-6
1513229257525955,-7,1,-6,-1,-1,0,-1,-4
1513229257525955,5,1,-21,-5,1,2,3,9
1513229257532960,9,4,-12,-2,-2,-1,0,-1
1513229257532960,-11,-18,47,-7,-6,-5,-5,-10
1513229257539479,2,11,2,3,0,-4,-4,-4
1513229257539479,-14,-1,28,9,3,-1,0,4
1513229257555976,5,7,20,17,-2,1,1,7
1513229257555976,-19,-14,-7,-33,-1,0,0,-3
1513229257557477,22,5,-25,-3,2,2,6,11
1513229257557477,-17,-9,-9,-6,-2,-2,-8,-13
1513229257578523,19,2,23,15,3,-2,-2,2
1513229257578523,24,13,-16,-4,-2,0,3,6
1513229257579996,2,1,-23,0,0,1,1,3
1513229257579996,-24,-9,42,3,-3,-2,-3,-14
1513229257593008,2,-5,-51,-7,-1,2,2,5
1513229257593008,5,3,40,9,-1,-3,2,-3
1513229257599519,-4,-11,-18,8,2,1,-2,-1
1513229257599519,-2,-3,-11,1,-2,-3,-4,-11
1513229257616030,6,-7,-9,-22,-4,-4,-2,6
1513229257616030,-6,7,10,1,-3,-2,-2,-5
1513229257617520,-5,-1,11,0,4,2,5,4
1513229257617520,7,-6,-7,11,3,1,0,0
1513229257639045,-3,-1,-8,1,-1,-3,-4,-10
1513229257639045,11,7,-10,1,-6,-3,-5,5
1513229257641035,-12,-5,13,-24,-6,-6,-6,-10
1513229257641035,-4,6,-17,8,6,1,4,4
1513229257652045,1,-9,2,-2,1,4,3,0
1513229257652045,-6,3,-17,0,-1,0,2,1
1513229257661053,10,1,-3,-8,-5,-4,-10,-11
1513229257661053,3,1,26,1,-1,-1,0,2
1513229257676065,2,6,-12,-2,-5,-2,-2,-3
1513229257676065,-3,-4,-17,5,2,1,1,0
1513229257677566,-3,-7,14,2,-3,-2,0,3
1513229257677566,7,-2,-21,-10,-3,-2,0,-2
1513229257698587,-10,-2,25,-4,-2,-3,-7,-10
1513229257698587,-9,4,-4,4,2,2,-2,-3
1513229257700079,8,8,0,4,0,0,3,2
1513229257700079,-8,-5,-15,-7,1,1,2,4
1513229257721124,8,-3,19,-8,-4,-4,-10,-14
1513229257721124,-18,2,-2,1,1,-1,2,2
1513229257721595,4,5,-2,9,0,1,5,11
1513229257721595,-9,-13,-16,-8,-9,-5,-13,-6
1513229257735119,-11,-10,1,-5,0,-2,5,1
1513229257735119,11,6,-14,-14,-4,-2,-2,5
1513229257736113,3,-3,29,22,2,2,4,-2
1513229257736113,11,8,-8,-7,-3,3,7,3
1513229257766160,-1,-11,-15,3,5,-4,16,10
1513229257766160,-4,-8,7,8,-1,-3,-20,-11
1513229257766661,-10,-1,-5,-16,-5,-5,-9,-15
1513229257766661,-2,-5,-6,2,-5,1,6,9
1513229257781170,3,0,-6,-2,4,4,-1,-5
1513229257781170,-13,0,-2,-7,-11,-6,5,4
1513229257781671,-9,-2,-1,16,6,-1,-10,-5
1513229257781671,-3,-5,-2,-11,-3,-4,0,-10
1513229257795203,2,-1,1,0,-2,1,-1,11
1513229257795203,10,2,-3,0,3,6,28,16
1513229257796181,-1,-1,-5,-10,-5,-4,-33,-27
1513229257796181,8,2,1,-1,0,-3,-23,-3
1513229257817697,-23,-5,-16,0,-5,-2,-9,-11
1513229257817697,11,2,23,4,-1,-2,-5,-1
1513229257818707,-21,-4,0,1,1,4,22,6
1513229257818707,8,3,-9,-5,3,-1,-10,-7
1513229257840748,-7,0,-5,6,-2,-4,5,-4
1513229257840748,13,6,-10,-2,-1,-2,-16,21
1513229257841748,1,7,14,-11,-3,-3,15,9
1513229257841748,-5,-9,-3,-2,-1,-4,-25,-27
1513229257855251,-1,1,4,4,-1,-1,-2,1
1513229257855251,6,1,-12,-9,1,-2,-14,-24
1513229257856252,12,0,3,27,4,0,12,17
1513229257856252,1,10,25,-3,0,-6,-52,-17
1513229257878288,3,8,-1,-18,-7,2,23,19
1513229257878288,-9,-15,2,-2,0,0,-15,-2
1513229257878768,22,0,-33,-12,-2,1,5,17
1513229257878768,-44,-18,-12,5,0,2,23,-31
1513229257899794,-9,5,3,-1,-8,-9,-51,0
1513229257899794,29,2,-10,4,7,1,-7,-21
1513229257907790,-26,-11,-4,-8,-4,-2,17,19
1513229257907790,20,22,38,6,3,9,79,54
1513229257915305,-5,-14,-27,1,0,-7,-89,-38
1513229257915305,-12,2,24,-14,-5,-4,38,3
1513229257916310,14,3,2,5,0,1,-33,-8
1513229257916310,3,-14,-19,-9,-2,-3,30,-23
1513229257937836,-6,-5,8,-8,-5,-2,17,0
1513229257937836,-5,-4,10,33,10,4,18,15
1513229257938837,-19,8,5,-6,4,3,-27,-25
1513229257938837,15,17,2,19,-3,-2,11,39
1513229257960828,18,-6,-12,-22,-4,-5,-29,-41
1513229257960828,-35,-25,-7,-22,-13,-13,6,-16
1513229257961836,16,5,15,10,6,4,21,10
1513229257961836,-8,14,-15,5,-2,-6,11,19
1513229257975346,10,-21,19,26,-3,-10,6,-32
1513229257975346,38,40,-20,-5,6,9,-19,12
1513229257975836,-3,-34,-13,12,0,3,37,40
1513229257975836,10,-7,-30,-51,-12,-11,-48,-53
1513229257997857,-15,-10,7,18,6,7,59,26
1513229257997857,-6,8,43,-4,-7,-6,-17,-7
1513229257998353,15,16,-1,-1,1,0,23,12
1513229257998353,-46,-32,-31,-1,-7,-10,-85,-43
1513229258020887,-5,8,11,-6,0,3,56,75
1513229258020887,-34,-39,7,8,-3,-5,-39,-82
1513229258021889,35,0,-33,-2,-2,-5,-18,-14
1513229258021889,-14,8,30,-11,2,12,31,15
1513229258035379,-21,6,35,34,9,2,5,1
1513229258035379,-18,11,-18,-32,-6,-6,2,1
1513229258035879,-8,7,-9,3,2,4,-11,-1
1513229258035879,20,-9,-10,-7,-5,-3,53,31
1513229258067433,8,20,-6,-11,4,6,-54,-4
1513229258067433,-21,3,15,31,5,8,50,26
1513229258068444,-25,-12,-14,-25,-10,-13,-30,-46
1513229258068444,45,4,-8,-5,2,5,-6,22
1513229258082445,-14,24,8,10,3,-2,-8,33
1513229258082445,-25,-11,-2,13,1,-7,-15,-31
1513229258082947,-14,24,8,10,3,-2,-8,33
1513229258082947,-25,-11,-2,13,1,-7,-15,-31
1513229258083944,-23,3,25,-3,-4,2,16,-1
1513229258083944,-34,12,-4,-4,-2,-3,-20,-34
1513229258084445,-9,5,3,-1,-8,-9,-51,0
1513229258084445,29,2,-10,4,7,1,-7,-21
1513229258088951,-26,-11,-4,-8,-4,-2,17,19
1513229258088951,20,22,38,6,3,9,79,54
1513229258090449,-5,-14,-27,1,0,-7,-89,-38
1513229258090449,-12,2,24,-14,-5,-4,38,3
1513229258095465,21,-10,-37,-9,-1,-3,-22,1
1513229258095465,18,-32,-12,1,-4,9,57,88
1513229258095970,2,7,16,-4,1,-9,-54,-69
1513229258095970,-5,1,12,36,8,2,-32,-9
1513229258117969,0,-5,-17,-21,-7,3,36,-17
1513229258117969,10,-2,27,-17,0,-1,12,20
1513229258118469,29,18,13,19,0,-2,-16,-11
1513229258118469,-4,-17,-48,-3,2,2,31,50
1513229258139987,33,33,42,9,3,5,-9,-19
1513229258139987,21,9,-39,-19,-5,-6,-21,1
1513229258147489,-25,-20,-19,-4,0,-1,30,26
1513229258147489,-26,-2,38,10,7,7,-28,-25
1513229258154995,-6,13,-7,-5,-3,1,24,24
1513229258154995,48,8,-8,-1,2,9,-4,-35
1513229258155996,5,-13,-1,1,-2,-1,39,47
1513229258155996,16,13,8,18,-2,0,24,31
1513229258177511,11,-6,-11,-32,-3,2,-4,-23
1513229258177511,-24,-4,-13,-6,-2,-6,-54,-43
1513229258178512,-10,17,19,0,-4,-4,-22,-33
1513229258178512,2,-44,-8,1,0,1,45,38
1513229258201035,6,8,-2,12,-2,-1,-23,-12
1513229258201035,4,9,-3,-7,-1,0,27,20
1513229258201527,-21,-29,-22,-18,-9,-8,-45,-29
1513229258201527,7,16,20,-3,-4,-6,15,38
1513229258215538,3,-8,-5,-4,-2,2,-15,-25
1513229258215538,11,26,-2,17,5,-1,-40,7
1513229258216040,11,6,16,-1,-3,0,-2,15
1513229258216040,-38,-58,-9,-6,-5,-6,-24,-41
1513229258238054,14,-13,-44,3,1,0,25,28
1513229258238054,-20,14,-6,-9,-2,-2,-3,34
1513229258239555,13,-4,8,-2,0,2,29,28
1513229258239555,38,47,26,4,6,1,-39,-52
1513229258261572,-25,-15,-1,1,-4,2,90,42
1513229258261572,7,-13,16,2,-2,-6,-47,-32
1513229258262072,-11,13,-6,1,0,0,12,3
1513229258262072,9,-8,-8,8,-1,3,4,-13
1513229258275080,10,22,28,-2,5,-1,-9,2
1513229258275080,3,23,-13,-3,-2,-2,17,-2
1513229258276081,-32,-39,-3,4,1,3,2,-3
1513229258276081,15,1,7,-13,-5,-3,33,4
1513229258297596,-25,2,-10,-4,-6,-8,1,8
1513229258297596,-6,-17,28,6,0,-1,-23,-39
1513229258298597,-14,36,-6,17,6,7,-5,12
1513229258298597,-41,-9,-10,-16,0,-7,-34,-12
1513229258320111,6,-24,1,0,-3,-4,-7,-9
1513229258320111,-14,13,-8,3,0,2,29,20
1513229258321113,-18,-12,8,-3,0,1,26,-3
1513229258321113,11,24,-5,-20,-3,0,-29,2
1513229258335131,-25,-22,4,5,-2,-1,15,-11
1513229258335131,-6,-31,-1,19,4,4,44,-18
1513229258336124,18,0,24,12,-3,2,-17,31
1513229258336124,31,7,-26,-22,-7,-1,63,32
1513229258357650,-17,13,6,5,0,0,-5,-14
1513229258357650,7,-11,-7,-13,0,5,-12,-5
1513229258358651,17,-13,2,-4,-1,-5,-36,-26
1513229258358651,-30,39,23,24,3,0,32,15
1513229258381155,0,-1,7,-10,-4,-6,-31,-28
1513229258381155,-2,9,-33,-12,-9,-4,18,0
1513229258381657,7,5,21,0,1,0,30,-5
1513229258381657,-15,-15,-38,-4,-1,-1,-42,-20
1513229258395165,-6,-12,10,13,-2,-4,14,13
1513229258395165,13,4,17,14,6,5,13,20
1513229258396166,-8,-2,-17,-21,-8,-6,-26,-43
1513229258396166,-8,-6,10,12,-3,-6,9,-1
1513229258417680,20,20,3,1,4,9,14,13
1513229258417680,-3,-30,0,-14,-6,-6,-41,-26
1513229258418682,2,0,-46,5,0,-5,-2,27
1513229258418682,1,-12,22,0,0,3,0,-4
1513229258440697,18,5,-5,6,3,2,2,0
1513229258440697,9,-16,-12,-15,-5,-6,-42,37
1513229258441698,2,21,-6,26,5,3,-16,-42
1513229258441698,-13,-7,17,-18,-3,1,3,-5
1513229258463223,30,-3,-18,-10,-6,-6,-23,-15
1513229258463223,-14,-13,8,7,2,-2,16,-11
1513229258464214,-27,-30,-18,-4,-6,-10,-16,16
1513229258464214,8,1,11,-2,0,5,-9,1
1513229258477723,3,28,13,-30,-5,1,7,1
1513229258477723,-24,-23,-68,-5,-5,-2,24,-6
1513229258478740,28,8,27,5,-1,-4,-42,-25
1513229258478740,13,-6,-15,-8,-4,-5,48,-5
1513229258500753,-6,13,22,-13,-7,-3,19,-7
1513229258500753,23,16,-23,18,9,3,0,4
1513229258501241,-12,-27,-22,-38,-12,-5,30,-42
1513229258501241,-22,3,-1,16,1,-7,-19,21
1513229258516752,-5,6,2,23,5,2,-54,-71
1513229258516752,11,-2,20,-15,-3,-7,3,31
1513229258517752,3,-9,-14,-8,-1,1,9,26
1513229258517752,8,6,10,-1,0,3,57,35
1513229258537766,-33,-37,19,13,-6,-11,-60,-26
1513229258537766,4,39,-29,-7,1,6,59,2
1513229258539267,0,18,-16,-35,-5,-2,-4,-1
1513229258539267,-1,8,63,29,7,4,10,3
1513229258560781,10,-50,-48,18,10,4,16,1
1513229258560781,-9,13,21,1,-6,3,6,11
1513229258561782,9,2,8,12,2,-6,1,-6
1513229258561782,2,3,-4,9,-2,-7,-28,0
1513229258575295,15,39,70,6,9,6,-4,-3
1513229258575295,-56,-68,-48,-1,-9,-6,-11,-9
1513229258575792,13,-14,-2,-3,2,4,4,30
1513229258575792,-5,-37,-94,-2,-3,-9,-35,-79
1513229258597808,-22,-42,11,-17,-6,-10,3,12
1513229258597808,59,96,87,26,3,1,10,20
1513229258598815,-43,-74,-83,3,-3,2,14,24
1513229258598815,-3,34,8,-6,-10,-11,7,17
1513229258621341,-43,-32,-71,-75,-7,6,7,-3
1513229258621341,10,58,95,17,3,0,-4,18
1513229258622325,4,-4,9,14,0,0,6,-2
1513229258622325,36,7,-88,-31,-3,2,20,-14
1513229258635334,25,5,29,13,3,1,9,11
1513229258635334,-29,-9,21,42,5,-2,-17,-14
1513229258635842,25,83,48,-39,4,5,8,-3
1513229258635842,-10,-36,-1,18,3,5,8,27
1513229258657870,9,-21,-69,-17,-6,-5,-13,-7
1513229258657870,15,19,20,-1,2,2,3,14
1513229258658351,42,9,23,24,5,0,0,28
1513229258658351,-16,-31,-1,-33,-1,3,-17,-15
1513229258680886,-3,28,11,13,-5,-5,26,23
1513229258680886,-13,-28,-59,-33,-10,-11,-20,-36
1513229258681877,-23,-4,17,25,4,6,10,-3
1513229258681877,16,39,26,-16,-6,-4,-24,2
1513229258703392,-21,-4,-2,13,4,-9,0,21
1513229258703392,45,-32,-73,-8,5,15,16,7
1513229258704393,-74,4,14,-20,-14,-11,-11,-72
1513229258704393,-15,18,44,8,0,2,-21,11
1513229258717903,34,-29,-6,35,4,-3,-4,-22
1513229258717903,-19,9,76,9,1,-5,-9,-1
1513229258718403,7,-33,-52,-11,-4,1,26,15
1513229258718403,26,36,16,14,10,5,-15,-11
1513229258740909,12,21,-42,-25,-11,-10,-6,15
1513229258740909,-66,-78,-39,-8,-2,-1,7,14
1513229258741910,11,40,35,-7,-8,-10,-21,-47
1513229258741910,40,8,20,6,-4,-10,-12,-9
1513229258754432,-18,-2,23,21,7,11,8,-7
1513229258754432,-14,-66,-54,-18,0,-5,-14,4
1513229258762435,15,11,45,5,2,1,-6,37
1513229258762435,-1,35,25,15,-2,0,1,18
1513229258777935,-57,-2,-39,-48,-11,-2,-7,-23
1513229258777935,63,69,78,7,-3,0,-4,-10
1513229258778436,27,40,55,14,5,0,8,23
1513229258778436,4,-102,-54,-19,2,8,27,56
1513229258800953,-36,63,76,42,4,0,-9,-7
1513229258800953,40,75,-41,-52,-7,-4,-15,-23
1513229258801453,-39,-68,-20,5,4,1,1,-6
1513229258801453,-27,9,2,18,3,-3,-21,41
1513229258814483,43,7,-12,3,0,6,34,-29
1513229258814483,-19,10,14,27,-1,-2,3,11
1513229258822467,18,67,-6,-15,3,5,4,6
1513229258822467,7,-42,-5,0,-4,-5,-6,-11
1513229258837978,-47,57,-105,-54,-14,-5,-4,50
1513229258837978,-6,-5,16,14,7,1,-9,-4
1513229258839482,22,68,70,34,14,12,5,9
1513229258839482,-29,-61,-68,-20,-12,-8,-5,-47
1513229258861025,20,25,80,10,5,-1,-8,18
1513229258861025,39,18,33,26,6,4,6,-7
1513229258861527,2,54,-2,-19,-4,1,1,14
1513229258861527,-9,34,4,7,7,2,0,-17
1513229258874538,25,8,6,7,0,-7,-17,24
1513229258874538,-35,-21,-24,-8,-2,4,13,11
1513229258883041,-6,-56,-41,-13,-9,-11,-4,-48
1513229258883041,46,75,45,16,5,6,24,-9
1513229258898052,-19,-39,-23,-9,-7,-4,-23,-10
1513229258898052,4,7,14,1,2,0,3,7
1513229258899054,-9,-112,-33,-8,-8,-10,-4,18
1513229258899054,1,13,-4,9,5,4,-3,-20
1513229258921067,23,-40,-14,-1,4,5,3,1
1513229258921067,-5,19,14,-6,-7,-9,-14,-18
1513229258921570,-24,6,15,3,-2,-1,8,20
1513229258921570,23,-19,14,-1,1,-1,-7,-12
1513229258934586,3,-60,-9,0,-3,-6,-3,5
1513229258934586,-48,-46,-29,-12,-6,-4,3,-24
1513229258942583,57,49,38,12,6,3,-4,-5
1513229258942583,-45,-59,-44,-14,-1,1,-1,6
1513229258957593,21,-8,-4,13,4,0,-6,18
1513229258957593,-17,11,-14,-22,-9,-4,-16,-58
1513229258958594,15,4,18,28,6,0,1,3
1513229258958594,-19,2,-59,-46,-10,-4,4,-8
1513229258981123,23,21,1,3,3,3,-11,-6
1513229258981123,-2,-32,-35,-12,-3,-1,6,11
1513229258981610,-5,-21,0,-5,-4,-4,-2,50
1513229258981610,4,54,60,16,-4,-5,-15,-85
1513229258994620,0,-44,-77,-29,-3,1,21,16
1513229258994620,7,5,37,18,3,0,-3,13
1513229259002626,-13,29,-10,1,2,1,-5,-14
1513229259002626,-7,-15,-13,-15,-7,-2,-7,23
1513229259017663,10,9,56,19,4,3,12,4
1513229259017663,12,-37,-35,-16,-5,0,-4,-2
1513229259018639,-6,7,8,18,4,-3,-4,-30
1513229259018639,-38,0,7,1,-6,-7,-6,-5
1513229259040653,-42,-23,-47,-25,-7,1,28,12
1513229259040653,35,48,52,5,3,-4,-29,-8
1513229259041654,-19,-61,-79,-14,-6,-2,0,34
1513229259041654,18,2,26,18,5,-5,-12,-1
1513229259063178,14,23,29,3,-4,1,-5,1
1513229259063178,-6,-23,-27,-8,-5,0,23,8
1513229259064187,-59,-5,0,-18,-5,-1,2,-19
1513229259064187,-11,-37,42,12,6,1,-8,17
1513229259077706,13,-3,-6,14,-2,-6,-3,-33
1513229259077706,6,-17,-13,0,7,1,-11,26
1513229259078707,5,-33,3,2,-4,0,-3,-47
1513229259078707,-16,-43,-40,-14,-6,-3,-1,18
1513229259100726,-8,44,56,18,6,-1,-3,-5
1513229259100726,-24,-61,-12,-3,-11,-4,4,7
1513229259101727,26,-12,-18,-2,4,2,-3,19
1513229259101727,3,82,32,9,-2,-3,8,14
1513229259123231,13,26,21,-19,-2,-1,2,-14
1513229259123231,-16,63,-19,7,2,-4,-16,-27
1513229259124229,5,-36,15,-9,-5,-2,14,19
1513229259124229,0,-64,16,-7,-4,-1,-4,7
1513229259137738,12,44,20,-3,-3,-2,-8,0
1513229259137738,-15,-55,-41,7,2,3,14,17
1513229259139239,26,61,18,-11,-4,-2,12,11
1513229259139239,-19,6,-1,-5,-2,2,-23,-45
1513229259160793,-23,-37,7,13,1,-4,-3,36
1513229259160793,5,27,3,-8,2,2,33,23
1513229259161795,-7,-22,-50,-15,-16,-11,-43,-72
1513229259161795,23,23,-13,6,1,-2,4,13
1513229259190815,-35,-59,17,8,-2,-5,-8,-21
1513229259190815,35,31,28,-1,5,6,14,-15
1513229259191807,-22,3,-19,1,2,-2,6,55
1513229259191807,13,-25,-24,6,4,2,-2,-24
1513229259197810,3,72,34,-7,-6,-4,-8,-22
1513229259197810,-16,-48,20,-1,-4,-5,-9,9
1513229259198310,-30,-50,-62,-6,-3,-1,1,-2
1513229259198310,1,-47,-3,-15,-4,-4,-8,16
1513229259220826,-16,31,43,29,11,8,13,2
1513229259220826,-8,-53,-12,-6,-5,-2,7,-5
1513229259221830,20,22,-70,3,6,1,-47,-17
1513229259221830,-1,-2,22,-14,-6,3,12,61
1513229259243342,-6,-28,-22,-12,-4,-6,-18,-82
1513229259243342,-2,15,5,15,-1,-6,-7,5
1513229259244343,24,8,-6,-30,-12,-1,26,20
1513229259244343,-2,-12,-7,0,0,-8,-27,-19
1513229259257869,-9,1,4,-1,-3,-1,-3,25
1513229259257869,27,-16,-41,-8,-4,-1,-5,-27
1513229259258370,-13,7,58,15,5,3,-5,9
1513229259258370,-11,17,-41,-33,-13,-8,1,-4
1513229259280871,19,16,25,0,0,3,14,37
1513229259280871,-12,-50,-8,5,-3,-6,-12,-29
1513229259281869,-7,-12,6,10,2,0,8,0
1513229259281869,33,107,74,28,7,5,32,-1
1513229259303384,-12,-20,-61,-17,-6,-7,-32,-5
1513229259303384,-40,-23,-19,-24,-5,-2,0,19
1513229259304385,-6,29,50,11,8,5,7,4
1513229259304385,-1,-18,-10,14,-3,-4,-5,6
1513229259317894,-19,-31,19,14,7,6,20,37
1513229259317894,-1,36,-30,14,6,3,-6,6
1513229259318394,-8,-33,-17,-28,-8,-5,-7,-19
1513229259318394,4,12,5,8,0,-2,5,-12
1513229259339913,-5,-10,14,-6,-2,0,-6,1
1513229259339913,6,8,20,-1,1,-1,-5,-1
1513229259347446,15,17,24,14,4,4,6,3
1513229259347446,-11,-3,5,-6,3,1,4,17
1513229259363460,31,-32,-21,-20,-9,-7,-5,-7
1513229259363460,-23,20,-23,4,2,3,1,-4
1513229259363958,40,30,13,-5,-7,-7,-9,-34
1513229259363958,3,2,-10,18,2,-2,-4,-18
1513229259377499,15,31,-54,-29,-10,-3,1,7
1513229259377499,33,-13,52,7,6,2,6,-9
1513229259378500,-40,-69,-23,22,7,2,-13,31
1513229259378500,5,51,-14,-33,-15,-7,-18,-30
1513229259400985,3,-3,6,22,11,6,6,3
1513229259400985,-31,-45,-47,3,-7,-3,9,2
1513229259401487,9,39,27,-13,1,1,-14,6
1513229259401487,46,29,34,28,12,5,4,-40
1513229259423499,-36,-26,-15,11,-2,-3,1,-28
1513229259423499,-23,-33,-44,-47,-9,-5,-4,48
1513229259424000,2,-36,-20,10,-3,-2,7,-56
1513229259424000,1,-19,-12,-7,0,1,-2,17
1513229259437510,11,-14,29,1,1,3,8,-18
1513229259437510,2,77,65,39,8,2,3,0
1513229259439514,-5,-10,-30,-23,-5,-4,-7,9
1513229259439514,4,10,13,7,6,8,15,15
1513229259461052,-2,3,-17,-1,0,-4,-13,25
1513229259461052,2,-11,53,14,5,2,12,-3
1513229259461550,16,-24,-46,-19,-8,-2,29,9
1513229259461550,-2,48,30,10,2,-5,-52,-14
1513229259491095,0,-2,-17,3,-2,-2,1,8
1513229259491095,36,64,42,-5,-7,-3,-16,-12
1513229259491582,2,26,36,22,4,0,6,-2
1513229259491582,-2,-32,-19,-16,-3,-2,9,21
1513229259497576,12,73,-10,-17,1,3,1,-9
1513229259497576,26,21,16,8,-1,-2,-8,-4
1513229259498577,-21,-6,-6,-10,-6,-5,-3,-1
1513229259498577,8,-15,-29,0,-2,-2,11,8
1513229259521097,-2,-30,24,24,0,-8,-16,-11
1513229259521097,-5,-27,-19,-19,-1,3,4,-19
1513229259521595,16,10,-10,17,5,2,7,72
1513229259521595,-44,-6,24,-3,-5,-1,10,-21
1513229259543652,1,-5,-17,-25,-4,2,3,-18
1513229259543652,20,32,23,23,4,-1,-2,4
1513229259544139,-24,-46,-35,-26,-12,-11,-16,6
1513229259544139,-43,-21,-4,7,-1,2,18,23
1513229259557162,10,-5,19,21,4,2,15,11
1513229259557162,-50,-16,-33,-39,-8,0,-26,-42
1513229259565167,37,33,36,22,8,4,10,2
1513229259565167,17,33,-14,-12,-7,-4,-3,-5
1513229259580165,-5,-33,-2,-1,-3,-5,3,1
1513229259580165,15,18,28,10,0,-2,0,22
1513229259587669,-51,-17,3,-15,-8,-4,17,-7
1513229259587669,-13,-21,-48,-1,-4,-4,-34,-54
1513229259603193,23,18,7,-2,3,1,-6,8
1513229259603193,2,-8,9,14,0,-1,11,18
1513229259604194,12,65,21,-3,-4,-3,-3,39
1513229259604194,-1,-23,25,-3,1,2,13,14
1513229259617690,0,18,-2,22,5,1,-3,-23
1513229259617690,0,-15,-45,-29,-12,-8,-7,-10
1513229259618691,9,52,32,3,0,1,1,-12
1513229259618691,3,0,-47,1,2,-1,-3,8
1513229259640707,0,-22,-23,-16,-6,-4,-10,-5
1513229259640707,6,18,12,7,4,3,5,0
1513229259641708,-1,-28,-38,-21,-5,-4,-7,-16
1513229259641708,-39,-11,45,12,4,1,2,6
1513229259663232,15,6,-18,-13,-7,-3,24,12
1513229259663232,3,-39,-9,3,-3,-7,-55,-29
1513229259664234,10,18,14,4,3,1,-4,-13
1513229259664234,-15,-58,-19,11,-2,-2,-7,-4
1513229259677743,0,-19,-7,-7,-1,-1,7,7
1513229259677743,18,60,25,4,2,-2,8,12
1513229259685238,-32,-43,-11,14,1,-2,-12,-29
1513229259685238,30,9,-7,-22,3,5,13,11
1513229259700749,4,-13,-4,2,-3,-2,4,14
1513229259700749,-11,-5,-12,-3,1,0,0,4
1513229259701750,7,-38,20,3,1,0,-6,-10
1513229259701750,20,8,-10,-4,-3,0,5,-9
1513229259722279,4,-24,6,-2,1,4,20,25
1513229259722279,-20,30,-3,-7,-1,0,-9,-7
1513229259730273,-31,-88,-29,5,1,-1,3,-14
1513229259730273,-26,2,13,1,1,2,-3,-3
1513229259737276,-2,29,-20,1,-3,-2,-6,-14
1513229259737276,-5,17,33,-2,1,2,17,7
1513229259745281,-7,-32,-53,-9,-4,-6,-27,-25
1513229259745281,4,10,14,-9,-7,-8,3,10
1513229259760792,-24,-14,-21,-29,-9,-6,-11,12
1513229259760792,-8,-27,-4,18,2,2,3,-9
1513229259761794,-14,12,-16,-12,-2,-1,-1,11
1513229259761794,19,27,-18,-2,-2,-1,0,5
1513229259783309,-13,-30,21,17,2,1,-9,-5
1513229259783309,2,8,-55,-6,-3,-1,0,0
1513229259784318,-24,82,61,-4,1,5,15,9
1513229259784318,-12,-65,-1,0,-3,-3,3,11
1513229259796817,-13,0,4,-1,0,1,-18,-27
1513229259796817,27,67,49,16,4,2,13,6
1513229259804832,-21,32,-14,-2,0,1,-4,-14
1513229259804832,0,-17,7,2,-3,-5,0,1
1513229259820834,6,-7,8,-4,2,4,7,9
1513229259820834,-8,41,8,-13,-6,-4,3,-1
1513229259821835,10,-10,21,-4,-5,-3,-7,2
1513229259821835,21,19,-2,-4,-4,-1,5,-3
1513229259843353,-8,-25,4,-4,-2,-5,-6,-12
1513229259843353,-9,-76,-50,-1,-5,-7,-13,-15
1513229259844851,28,17,24,-6,0,1,37,40
1513229259844851,-26,29,-13,-4,-2,-3,-53,-44
1513229259865867,-16,-65,-9,2,2,-1,-13,-10
1513229259865867,-11,-56,-3,-6,-2,0,6,5
1513229259867367,17,68,26,7,0,-1,-2,-1
1513229259867367,-8,-61,-2,7,5,5,13,-10
1513229259880879,-21,16,-18,-5,-5,-3,-2,3
1513229259880879,-19,-60,-20,0,-5,-8,-8,-7
1513229259882377,16,36,-3,6,1,0,0,2
1513229259882377,-7,-10,14,-1,0,1,0,2
1513229259903402,7,3,-11,-10,-1,-1,-5,-6
1513229259903402,23,-25,-6,-5,-2,3,12,19
1513229259904903,-5,27,11,9,2,-1,-6,-13
1513229259904903,16,5,-10,-8,-5,-2,-1,-3
1513229259916903,0,7,35,10,-1,-2,5,-2
1513229259916903,-9,-16,-5,-5,-5,-4,-4,-4
1513229259925909,8,-75,-19,-16,-6,-5,6,12
1513229259925909,-22,20,17,10,5,0,-15,-8
1513229259940933,7,3,-44,-6,-4,-3,-3,11
1513229259940933,16,40,34,13,4,2,-3,-10
1513229259942430,-10,-56,-17,-1,-1,1,0,-6
1513229259942430,-14,-20,-32,-2,-1,-3,11,1
1513229259963454,6,21,22,4,2,1,2,8
1513229259963454,1,57,-10,-8,-1,-2,14,4
1513229259964960,-6,-7,14,3,-2,-4,-39,-26
1513229259964960,14,11,-6,7,3,2,8,9
1513229259985950,19,72,59,3,4,3,-2,-3
1513229259985950,-8,6,-12,-5,-5,-3,4,2
1513229259987452,4,4,-31,0,2,0,-1,-7
1513229259987452,-3,58,26,-7,-4,-1,0,3
1513229260000973,-2,-3,-3,8,1,-3,3,1
1513229260000973,-4,-22,9,9,5,2,1,10
1513229260002475,-6,-8,-10,-17,-5,-2,-9,-22
1513229260002475,12,2,-8,-3,-1,-3,16,14
1513229260031001,12,9,41,23,8,3,-26,-24
1513229260031001,-17,8,-47,-30,-10,-5,-4,8
1513229260032483,-19,-46,-13,3,-1,-2,-4,-41
1513229260032483,24,-1,6,6,6,3,9,19
1513229260046003,0,17,20,11,1,4,13,7
1513229260046003,-3,-14,-15,-11,-5,-4,-6,12
1513229260047504,-12,33,11,3,0,0,7,2
1513229260047504,-6,4,-10,-13,-4,-3,-3,-4
1513229260061004,-9,19,-21,-7,-5,-4,-3,-7
1513229260061004,-8,5,40,23,4,4,-5,-10
1513229260062506,24,7,-13,-15,-2,0,11,27
1513229260062506,-7,31,26,3,0,1,-4,-7
1513229260091025,1,0,-48,-16,-5,-5,3,10
1513229260091025,-11,-37,14,13,5,3,-3,-10
1513229260092541,16,27,-14,-12,-5,-2,0,-1
1513229260092541,11,6,21,12,0,-3,-8,-2
1513229260106052,-3,-31,-23,-4,1,1,10,-18
1513229260106052,16,3,19,5,0,0,15,1
1513229260107537,15,22,2,-1,0,-1,-26,-5
1513229260107537,-4,-39,-44,-18,-9,-8,-8,-7
1513229260121053,-14,4,26,9,-1,-3,-3,1
1513229260121053,15,8,12,-17,-2,-2,3,11
1513229260122547,-19,-18,-17,13,1,-3,2,-11
1513229260122547,7,-1,1,-4,-2,-1,2,9
1513229260143090,14,-19,-24,-8,-6,-3,-2,7
1513229260143090,1,12,34,16,4,1,-3,-6
1513229260149595,4,29,49,19,6,4,10,28
1513229260149595,4,-49,-69,-34,-12,-8,-10,-9
1513229260165617,-14,40,20,-6,-3,-3,-1,2
1513229260165617,-12,28,-7,-3,-3,0,0,-6
1513229260167609,-8,-11,17,13,6,5,8,3
1513229260167609,-5,-4,-16,-4,-3,-4,0,2
1513229260180115,-16,-15,-5,-1,0,1,-3,-1
1513229260180115,47,28,1,-8,-1,1,13,11
1513229260187121,-25,-31,-34,-5,-5,-3,-33,-22
1513229260187121,-6,14,33,10,4,2,9,-2
1513229260203150,9,49,20,-3,-1,0,-11,-17
1513229260203150,-9,-20,-37,-9,-7,-7,-11,-18
1513229260209654,3,10,10,1,-1,-1,15,17
1513229260209654,-13,-6,-3,4,-1,-1,4,10
1513229260225673,7,18,-32,-13,-3,-2,14,10
1513229260225673,9,49,41,14,4,0,-21,-11
1513229260227663,-17,-24,-46,-26,-10,-3,2,-5
1513229260227663,18,45,20,2,-1,-3,-5,-8
1513229260240162,5,-38,1,4,3,2,6,-2
1513229260240162,-23,-29,-28,-4,0,2,-1,8
1513229260247163,13,27,6,3,-3,-3,22,2
1513229260247163,-16,-50,-27,-7,-1,-4,-30,-13
1513229260263174,-7,-12,-13,1,-2,2,2,-6
1513229260263174,-3,-15,-20,-5,-1,-2,-7,-5
1513229260264675,7,-19,30,17,7,6,15,7
1513229260264675,-21,-58,-10,0,-1,2,6,-6
1513229260286200,-4,40,-3,-2,-5,-4,-7,16
1513229260286200,-7,-26,23,0,-1,-2,-7,-14
1513229260287692,6,-7,-43,-4,-4,-5,-11,1
1513229260287692,22,-2,-1,6,0,1,9,11
1513229260300200,-17,10,-11,-1,2,0,-5,-12
1513229260300200,20,3,-4,-33,-6,-2,6,9
1513229260307218,10,34,39,12,4,0,15,16
1513229260307218,14,23,27,-4,-1,1,-28,4
1513229260323239,-12,-21,-9,2,1,-1,-1,-11
1513229260323239,-21,15,5,12,-1,0,-1,-2
1513229260324718,7,0,30,10,5,1,1,-4
1513229260324718,5,-12,-26,-9,-3,1,7,6
1513229260345732,8,5,27,6,5,3,5,-7
1513229260345732,-5,-4,-32,-17,-10,-8,2,7
1513229260347734,3,-36,-7,-12,-4,-4,-23,4
1513229260347734,-22,20,34,23,1,-1,14,-8
1513229260360242,16,61,40,-8,0,-2,-5,3
1513229260360242,-11,-44,-55,7,3,0,-1,-15
1513229260366748,6,6,-18,-9,-6,-3,14,-5
1513229260366748,-3,-68,-35,-7,1,-1,-21,-6
1513229260383259,3,63,25,6,0,-3,15,6
1513229260383259,8,-23,-27,8,2,-1,-31,-3
1513229260384759,-14,27,16,4,-7,-4,-2,-10
1513229260384759,-11,52,29,-3,6,1,7,12
1513229260405774,-6,-77,-29,1,-4,-2,-6,-13
1513229260405774,8,41,18,-19,-4,4,22,49
1513229260407776,-2,9,-14,12,3,-2,-15,-19
1513229260407776,9,-2,7,-6,-6,-5,2,-4
1513229260420299,-5,-44,3,5,1,-1,-8,4
1513229260420299,-3,-27,-16,-2,-2,-3,11,18
1513229260427290,6,54,14,-13,-4,-1,-6,2
1513229260427290,-11,4,9,3,2,2,13,3
1513229260443304,-4,8,24,0,-1,-2,0,3
1513229260443304,11,-20,-26,1,2,-2,0,13
1513229260444802,-2,4,28,4,-3,-2,-5,-47
1513229260444802,9,-19,-56,-18,-2,-1,2,1
1513229260465819,3,-17,-22,-10,-6,-5,2,0
1513229260465819,6,42,26,17,3,1,-9,-29
1513229260467319,1,-11,-17,-12,-2,-2,8,26
1513229260467319,-2,24,16,-3,3,1,-1,1
1513229260479367,-7,-56,-24,6,-1,1,0,2
1513229260479367,14,52,52,7,4,0,1,-8
1513229260488333,-26,-14,-14,-10,2,-1,-9,3
1513229260488333,26,-31,-45,-4,-5,-2,20,2
1513229260503343,-4,-44,-37,-8,-3,-4,-41,-17
1513229260503343,8,43,14,10,4,3,3,6
1513229260504844,-2,-2,3,-5,-6,-3,0,-16
1513229260504844,-16,-10,35,19,9,6,7,11
1513229260525863,6,18,-21,-16,-3,-2,-5,6
1513229260525863,-6,-1,-12,-10,-4,-5,-4,-11
1513229260527361,37,-16,15,15,5,3,8,21
1513229260527361,-23,40,-8,-20,-9,-7,-28,-7
1513229260539372,-6,-27,-15,6,0,1,8,-1
1513229260539372,-15,5,2,-15,-5,-1,-5,-12
1513229260548375,-13,-29,-19,4,2,-2,3,2
1513229260548375,11,-1,2,-1,-4,-5,-3,0
1513229260571404,-4,33,34,10,-1,-1,3,0
1513229260571404,-20,-66,-25,-24,-6,-5,-4,-10
1513229260572894,19,60,50,22,6,4,22,28
1513229260572894,-15,-86,-72,-17,-9,-8,-35,-41
1513229260585905,1,-5,-14,-7,-3,0,3,-6
1513229260585905,13,34,50,28,7,2,7,16
1513229260587403,0,-42,-34,-21,-4,-2,-9,-2
1513229260587403,7,30,11,9,1,-2,7,8
1513229260599411,7,-41,9,-3,-1,-3,7,15
1513229260599411,-15,-31,22,16,-1,0,-2,-11
1513229260608435,-24,-13,-6,-32,-3,0,-4,0
1513229260608435,-2,2,23,4,1,0,3,-3
1513229260630950,10,29,-2,6,5,4,5,12
1513229260630950,-19,-61,-18,-5,-7,-5,-9,-28
1513229260632435,-27,-1,11,13,3,3,6,6
1513229260632435,-3,33,-19,-4,0,2,-6,-16
1513229260645944,15,15,15,4,0,-2,9,9
1513229260645944,-5,-36,-5,7,-1,-4,-14,-5
1513229260647445,8,28,-14,-1,0,-1,-6,-14
1513229260647445,-38,-55,-2,-12,-5,-3,11,12
1513229260659454,-7,8,5,8,-1,0,-3,-4
1513229260659454,12,16,-7,-4,1,3,4,8
1513229260668461,-25,-23,-36,-17,-11,-9,-5,-15
1513229260668461,13,13,43,9,3,3,11,14
1513229260683471,16,35,-5,-10,-7,-9,-17,-17
1513229260683471,-13,-37,-20,-7,-6,-5,-1,-1
1513229260684972,-9,-5,16,3,-2,-1,-10,0
1513229260684972,11,51,23,6,3,3,2,21
1513229260705986,-28,-33,-18,-12,-2,0,15,-17
1513229260705986,-30,43,-5,-3,-1,-2,-21,-11
1513229260707495,1,-39,-3,0,-3,-5,-9,-5
1513229260707495,-7,4,-20,10,5,2,-2,-7
1513229260719497,24,-8,25,8,0,1,6,4
1513229260719497,-6,-24,-8,-10,-3,-2,11,18
1513229260736020,3,-19,-6,3,4,4,0,-18
1513229260736020,-6,-1,-9,3,-2,-1,1,-1
1513229260743517,4,2,24,15,8,2,-9,0
1513229260743517,-15,-25,-33,-29,-6,-2,1,-15
1513229260745016,14,-12,-4,5,-2,-2,-4,24
1513229260745016,51,19,14,-1,-7,-5,31,16
1513229260766033,-9,-26,-41,5,3,0,-37,-26
1513229260766033,24,19,19,13,1,-1,-22,-8
1513229260767534,19,-20,-25,-16,-2,0,3,-13
1513229260767534,23,57,61,14,4,1,0,11
1513229260779540,-22,8,-15,-2,-5,-3,11,3
1513229260779540,12,-18,-1,-1,2,3,12,0
1513229260788546,-12,84,-2,-2,-4,-5,-11,-7
1513229260788546,3,-23,-20,-8,0,0,-9,-8
1513229260803556,-23,11,27,7,-1,-2,3,-5
1513229260803556,13,30,20,5,2,-1,2,0
1513229260805057,10,21,2,7,0,3,6,11
1513229260805057,-23,-23,21,-1,-3,-3,-4,-3
1513229260826091,-13,-13,-49,-17,-10,-8,-5,7
1513229260826091,-16,-17,-4,-10,-3,0,24,6
1513229260827575,6,-38,34,20,4,0,-30,-20
1513229260827575,-15,21,-22,-31,-11,-3,-5,-7
1513229260840114,19,-33,-4,-2,3,1,-3,5
1513229260840114,3,31,9,8,1,1,13,0
1513229260848669,-10,1,-25,-6,-2,-4,-8,7
1513229260848669,7,31,22,0,5,4,3,-4
1513229260863168,0,5,5,7,-1,2,0,6
1513229260863168,18,41,9,-7,-2,0,-1,-6
1513229260864666,-9,-40,-9,-6,-2,0,4,15
1513229260864666,6,-25,-21,3,-2,-2,-3,-21
1513229260885682,16,47,-3,-11,0,1,2,3
1513229260885682,-5,-26,-16,4,0,-2,-2,4
1513229260887684,-39,-53,11,17,5,6,7,13
1513229260887684,16,17,-31,-10,-6,-8,5,-16
1513229260899716,-22,-46,-26,-16,-4,-3,-21,-15
1513229260899716,-13,-5,39,22,5,0,-3,-1
1513229260908734,12,30,-21,-12,-4,-4,0,-2
1513229260908734,-11,12,2,9,4,0,2,-1
1513229260923734,-7,-56,17,-4,-5,-4,14,11
1513229260923734,20,25,3,7,1,-2,-29,-14
1513229260925235,15,0,8,-3,-2,-1,9,-4
1513229260925235,-19,-68,-25,0,1,1,-6,9
1513229260945758,17,34,15,-7,-4,-1,5,-10
1513229260945758,-5,14,-35,-10,-5,-6,0,-2
1513229260947750,35,-14,39,5,1,0,5,9
1513229260947750,15,35,-28,-30,-9,-3,-3,13
1513229260968265,3,-33,-7,14,3,1,-1,2
1513229260968265,-17,12,-21,-16,-3,1,1,1
1513229260969766,4,14,7,5,1,3,8,-17
1513229260969766,-18,-1,2,15,-4,-6,-17,-5
1513229260983277,-15,-35,13,-15,-2,3,5,19
1513229260983277,46,-7,-25,-6,-3,-3,-3,-36
1513229260984777,-4,-19,-20,-10,-2,-2,7,-2
1513229260984777,-3,19,46,22,7,2,4,8
1513229261013354,-3,24,-20,10,3,0,-6,-14
1513229261013354,-12,-30,-3,2,4,4,16,38
1513229261014799,-14,-16,-15,-6,-2,-4,-9,-43
1513229261014799,-1,-12,-11,0,2,1,-2,5
1513229261028308,5,21,39,27,5,1,2,-15
1513229261028308,-15,-37,-30,-27,-7,-6,20,39
1513229261029808,10,56,0,-8,-6,-6,-41,-20
1513229261029808,-20,6,17,13,5,5,8,-1
1513229261043318,16,48,8,-31,-8,-6,-3,9
1513229261043318,-13,-3,-5,23,5,1,-1,6
1513229261044819,-14,7,3,10,-3,-2,7,10
1513229261044819,2,-29,-19,-19,-3,-3,1,3
1513229261065833,-7,-8,-12,8,-1,-1,2,3
1513229261065833,-2,-4,22,-3,3,1,-6,-11
1513229261067334,2,25,12,-1,0,1,5,15
1513229261067334,-8,-22,-26,14,4,3,0,-4
1513229261088850,17,22,10,-7,-3,-1,3,-25
1513229261088850,-8,-2,-3,-3,-3,-3,-1,-5
1513229261090852,-11,-29,0,8,4,1,5,-4
1513229261090852,-4,-54,-19,-13,-6,-5,-1,13
1513229261102859,1,9,26,19,2,0,-4,-5
1513229261102859,-7,23,-28,-24,-9,-4,-3,8
1513229261109367,-6,50,20,-9,-2,-1,-8,-1
1513229261109367,20,-13,30,2,-2,0,0,-14
1513229261125376,0,15,-37,2,0,-1,-8,15
1513229261125376,-2,12,26,-16,-6,-2,6,-3
1513229261139388,13,-2,-6,0,2,1,15,17
1513229261139388,-11,28,2,-2,-4,-3,-11,-14
1513229261148432,-6,26,25,1,1,1,5,13
1513229261148432,9,18,27,9,-2,1,-10,-11
1513229261149934,6,-19,-68,1,-1,-2,4,10
1513229261149934,-19,-13,25,-24,-5,-1,2,3
1513229261162934,38,-5,7,14,-1,-1,17,5
1513229261162934,6,-2,-29,-3,4,2,-27,-24
1513229261169437,-16,2,30,1,-4,-2,3,-1
1513229261169437,0,19,-13,8,-1,-3,-1,-3
1513229261185958,-1,-25,4,0,0,-2,-2,1
1513229261185958,-26,-1,9,-4,1,0,1,12
1513229261187451,26,29,9,0,-1,-1,-2,-15
1513229261187451,-11,-37,12,14,1,1,-1,-1
1513229261208967,-32,10,-16,-18,-5,-3,-4,-5
1513229261208967,6,17,-10,24,5,2,4,13
1513229261210481,-20,-21,24,-20,-7,-3,-5,15
1513229261210481,-9,-25,-5,-9,-5,-2,-1,-15
1513229261222479,3,26,2,14,6,6,-1,8
1513229261222479,-1,-38,-21,6,-2,-4,16,6
1513229261229484,-2,-23,-12,-28,-2,-1,-25,-15
1513229261229484,29,75,34,20,2,1,-4,-2
1513229261245992,-20,-28,38,1,0,0,7,7
1513229261245992,-1,-20,-5,-8,-7,-7,-21,0
1513229261247493,6,5,-86,-15,-2,1,5,-1
1513229261247493,15,50,33,-13,0,-1,2,16
1513229261268508,-32,-34,-15,-10,-5,-3,2,-13
1513229261268508,9,-5,2,44,6,5,4,4
1513229261270009,3,91,37,4,-1,-2,-1,-2
1513229261270009,-21,-75,-32,-45,-14,-8,6,19
1513229261282518,-14,-18,-19,1,3,3,-11,-22
1513229261282518,-7,9,42,-11,3,3,0,-18
1513229261289523,-3,-27,-16,36,3,0,2,13
1513229261289523,4,-15,-3,18,7,5,5,-14
1513229261321045,11,45,12,-11,-3,-4,-6,15
1513229261321045,-12,-19,20,8,-2,-2,-6,-32
1513229261322546,23,-18,-9,-26,0,1,5,16
1513229261322546,-19,26,5,1,-1,-5,-7,-15
1513229261328087,0,-33,-47,-15,-4,-4,-5,18
1513229261328087,23,6,6,16,5,2,8,-9
1513229261330109,-4,5,42,-5,-8,-8,-5,-10
1513229261330109,-9,35,-14,3,0,1,-5,10
1513229261342586,-4,-17,-3,8,2,0,-2,-13
1513229261342586,-7,-18,-50,-29,-7,-5,-6,17
1513229261349588,-7,-55,-1,3,4,3,14,-12
1513229261349588,-7,-5,-1,5,-5,-5,-1,0
1513229261365609,30,22,-11,0,-4,-1,-7,-4
1513229261365609,-17,-22,-3,-28,-7,-3,4,7
1513229261367601,-7,-4,-19,1,0,-2,-3,-3
1513229261367601,11,63,45,23,2,2,-4,-4
1513229261388115,-12,-66,-72,-23,0,3,3,25
1513229261388115,24,39,28,1,-4,1,3,-25
1513229261390116,-40,-26,-51,-5,0,-2,-1,-14
1513229261390116,22,-1,-1,9,3,0,-11,-1
1513229261402626,3,11,48,7,-1,-3,5,7
1513229261402626,-14,42,9,11,3,-2,-8,-1
1513229261409630,8,-24,-32,-12,1,-1,11,13
1513229261409630,-2,-6,6,-3,2,3,7,-5
1513229261425654,-2,20,9,-8,-5,-5,3,2
1513229261425654,8,11,14,-9,-1,0,-13,0
1513229261427660,6,-19,16,25,1,1,5,2
1513229261427660,-10,-6,-8,-8,0,0,-1,12
1513229261448734,3,23,-3,5,-1,2,-1,-7
1513229261448734,10,-24,11,-9,-1,-3,0,-4
1513229261450736,-52,-48,-50,-1,-6,-2,-6,-12
1513229261450736,-8,-22,-4,-13,-2,-1,-8,-21
1513229261461743,15,40,40,14,4,2,24,22
1513229261461743,-18,-62,-65,-21,-9,-5,-24,-32
1513229261471270,19,44,49,22,3,-1,-7,7
1513229261471270,-26,-14,-31,-24,-5,-6,-7,-7
1513229261485770,7,20,-19,-4,2,2,6,13
1513229261485770,-6,-16,14,8,3,4,5,4
1513229261487762,17,11,5,-11,-3,-2,-2,-1
1513229261487762,9,-15,-13,16,0,-2,1,7
1513229261508286,-1,-20,5,-10,-4,-4,-9,-20
1513229261508286,6,-2,-7,-1,3,0,4,11
1513229261509779,-8,-14,55,2,-7,-5,-6,10
1513229261509779,-8,-4,-47,-27,-3,-1,-1,-22
1513229261522323,3,31,10,0,-2,0,-7,-20
1513229261522323,-7,-64,-14,4,2,3,11,12
1513229261530828,-11,7,15,1,-2,-2,-12,-5
1513229261530828,44,17,9,11,-1,-4,18,11
1513229261545847,-7,0,13,-3,-4,-4,-41,-4
1513229261545847,-4,-16,-6,-1,-1,-2,2,6
1513229261547340,21,66,32,17,3,-1,-5,-19
1513229261547340,-5,-26,-9,-12,-3,1,9,5
1513229261568366,1,-1,-7,6,5,2,5,-7
1513229261568366,4,-2,26,21,1,-1,3,30
1513229261569855,-24,30,10,-19,-5,-2,1,-24
1513229261569855,7,16,-16,18,2,1,-10,5
1513229261581861,-14,-12,10,5,3,1,6,-7
1513229261581861,3,53,7,5,-3,-2,-4,-7
1513229261590866,6,-45,-31,-17,3,2,10,11
1513229261590866,-2,43,35,15,-1,-3,-5,-3
1513229261605887,12,-24,-29,-12,-1,-3,-10,-6
1513229261605887,-13,26,-1,-3,-5,-4,5,-10
1513229261607388,10,-42,-59,-6,-2,-2,0,11
1513229261607388,-30,0,32,12,5,1,-7,-7
1513229261635898,-1,-17,-11,-1,-2,0,11,4
1513229261635898,28,55,24,1,0,-2,-5,-2
1513229261637399,14,5,16,1,1,3,1,21
1513229261637399,4,-17,-22,-2,-3,-3,1,-4
1513229261641927,-4,3,21,13,0,-1,1,-6
1513229261641927,5,-13,10,-19,-2,0,-4,3
1513229261650912,-23,9,-53,-6,-3,-3,8,2
1513229261650912,2,-13,15,5,2,-2,-23,2
1513229261673426,-1,7,-9,-1,-3,-3,-2,6
1513229261673426,-15,7,2,6,-1,-3,-4,-1
1513229261674935,7,2,-5,-29,-5,-1,1,-4
1513229261674935,-24,8,8,2,-2,-2,3,-2
1513229261688436,8,-10,1,-4,-2,-2,-3,-4
1513229261688436,-5,-4,0,11,1,2,1,-1
1513229261689949,-18,3,21,10,2,-1,-3,-10
1513229261689949,13,-11,-40,-18,-4,-2,1,2
1513229261701947,-15,-16,-3,-9,-3,-2,-7,-7
1513229261701947,3,5,-20,-5,0,-1,8,5
1513229261710951,9,20,32,15,2,0,-3,-4
1513229261710951,6,-5,6,2,0,0,-1,-1
1513229261725962,-2,4,-12,-8,-3,-3,0,-3
1513229261725962,-4,-2,-6,-6,-3,-2,-1,-4
1513229261727467,2,-7,9,5,-1,1,-3,-2
1513229261727467,1,-5,1,1,-1,1,1,3
1513229261748478,-12,-8,-12,-10,0,0,-1,-4
1513229261748478,-1,5,-2,3,-1,0,-1,-2
1513229261749980,-5,1,4,-1,-2,-4,-5,-4
1513229261749980,5,-1,-6,-12,-3,1,5,6
1513229261761989,5,7,-2,2,0,-2,1,1
1513229261761989,2,1,-4,-3,-1,-2,-2,-6
1513229261770995,-1,-5,1,7,-1,-1,-1,-3
1513229261770995,0,-6,5,-2,-2,0,-1,-1
1513229261786004,0,-7,-4,11,0,-3,-2,-2
1513229261786004,-4,-3,-4,-2,1,-1,-1,-2
1513229261787506,0,-3,-10,-21,-8,-3,-2,-2
1513229261787506,1,1,1,1,3,1,-2,-2
1513229261810032,-3,-1,8,-2,-3,-1,-2,-1
1513229261810032,-3,-5,6,-2,-3,-2,0,-3
1513229261812033,2,4,18,25,5,1,-1,1
1513229261812033,-2,-6,-28,-30,-8,-5,-3,-2
1513229261822031,-5,-1,-11,-7,-2,1,2,2
1513229261822031,2,2,0,-9,-3,1,-1,-6
1513229261831036,-2,-4,-8,-2,0,-2,-2,-1
1513229261831036,1,0,7,10,1,0,1,0
1513229261845556,2,-3,-7,1,0,0,-1,1
1513229261845556,-2,-3,-11,-5,-3,-3,-1,1
1513229261847557,0,1,3,-3,-2,0,-2,0
1513229261847557,1,-2,1,7,1,-2,-1,-3
1513229261869072,-4,-5,-6,-6,-2,0,0,0
1513229261869072,2,5,-4,-2,-1,-1,-1,-1
1513229261870565,0,3,2,1,0,-2,1,1
1513229261870565,-2,-1,6,5,1,2,1,1
1513229261890598,4,3,-2,-3,-3,-3,-1,-2
1513229261890598,-3,-3,-5,-1,-1,0,-1,-1
1513229261892600,-6,1,5,0,0,-1,-1,-4
1513229261892600,-1,1,3,0,-1,0,1,-1
1513229261905619,-3,-1,-3,-5,-1,0,-1,-3
1513229261905619,-3,-2,-2,-1,-1,-1,-1,-3
1513229261907607,1,3,5,-2,-1,0,-2,1
1513229261907607,-3,-2,-3,1,0,-1,-2,-3
1513229261928122,-2,-2,-4,-1,-4,-2,-1,-2
1513229261928122,-1,-2,-6,-3,-2,-2,-2,0
1513229261930124,0,-5,-1,-4,0,1,-2,-1
1513229261930124,-1,-3,3,3,0,1,-2,0
1513229261950638,-1,0,2,-3,-2,-2,-2,-1
1513229261950638,-1,-1,-3,-1,-2,-1,0,0
1513229261966650,1,2,-1,0,-2,-3,-1,-1
1513229261966650,-3,1,0,0,-2,-2,-2,-1
1513229261967651,-1,0,-1,-1,1,1,-1,-1
1513229261967651,-2,-2,-1,1,0,-1,-1,-1
1513229261969151,-1,-3,-3,0,-1,-1,-1,-1
1513229261969151,0,-2,0,-1,-2,-3,1,1
1513229261988167,-1,-1,-1,0,-1,1,-2,-1
1513229261988167,-1,-1,-2,1,-1,-1,0,-1
1513229261990165,1,-1,-2,-1,0,-1,-1,0
1513229261990165,-3,1,-1,-1,-2,0,-3,-2
1513229262010695,-1,0,-1,-2,-1,-1,-1,0
1513229262010695,-1,0,-2,-2,-2,-3,-3,-1
1513229262012181,0,-3,0,-1,-3,-4,-1,-1
1513229262012181,0,-2,2,0,-1,-1,-1,-1
1513229262025253,0,0,-3,0,-3,-2,-1,0
1513229262025253,-1,-2,1,-1,0,0,-1,-1
1513229262031800,0,-1,-1,0,-3,-2,-3,-1
1513229262031800,-1,0,3,-1,-1,-1,0,1
1513229262048295,1,-1,-3,-1,0,-1,-2,0
1513229262048295,-2,-2,-4,-2,-2,-3,0,-1
1513229262049801,-1,-1,-2,-2,-2,0,-1,0
1513229262049801,0,-2,-2,-1,1,0,0,-3
1513229262070801,-2,-2,1,-2,-2,-1,-1,-2
1513229262070801,-1,-2,-1,-2,1,1,-2,-1
1513229262076829,0,-1,-1,0,0,-1,-1,-2
1513229262076829,-7,-2,1,2,0,-2,-1,1
1513229262085321,0,0,0,-2,1,-3,0,0
1513229262085321,0,-1,-3,-1,-1,-2,-1,-2
1513229262091816,-3,-2,0,0,-4,-1,-1,-1
1513229262091816,0,-1,-4,-1,-1,0,0,-1
1513229262108329,0,-1,0,-1,-1,0,0,-1
1513229262108329,-3,2,0,-1,-2,-1,-1,-2
1513229262109842,0,0,0,-1,0,0,0,-2
1513229262109842,4,-1,-4,-3,-1,-3,-3,-1
1513229262130862,-1,0,-2,-1,-1,-1,-4,-1
1513229262130862,0,-2,-2,0,-1,-1,1,-2
1513229262132345,2,-3,-2,-2,-1,0,-1,2
1513229262132345,-2,-5,-1,0,-1,0,-1,-1
1513229262145354,-9,-6,1,1,0,-1,1,-1
1513229262145354,-1,4,2,2,-2,-3,0,1
1513229262151858,2,0,-3,-3,-1,-1,-1,1
1513229262151858,0,-2,-3,-3,-4,-3,-3,-1
1513229262168370,0,-3,-2,-1,1,-1,-1,0
1513229262168370,-4,-1,-2,0,2,-1,0,-3
1513229262169872,-4,-2,0,-1,-4,-3,-1,-2
1513229262169872,-7,1,4,3,2,0,0,-1
1513229262190912,2,3,-1,-3,-2,0,0,-2
1513229262190912,1,-2,-2,-4,-2,1,-2,1
1513229262192413,-6,-1,3,1,3,-1,-1,0
1513229262192413,2,-4,-5,-5,-1,0,0,-1
1513229262204908,1,0,-2,-1,-2,-1,-2,1
1513229262204908,-3,-1,0,-1,-1,0,-1,-2
1513229262211924,0,1,-2,0,-1,-1,-1,-1
1513229262211924,0,1,0,1,-3,-1,-2,1
1513229262228463,-3,1,0,0,0,-1,0,-1
1513229262228463,0,-1,-5,-4,-3,-2,-1,0
1513229262230467,-3,-1,-1,0,-1,-2,0,-1
1513229262230467,1,-1,-2,0,-2,-1,0,-2
1513229262251479,1,-3,-2,-3,-2,0,0,-2
1513229262251479,0,-2,-2,1,-1,-1,-2,-1
1513229262252979,-1,-2,0,-5,-2,-2,0,-3
1513229262252979,0,0,1,-2,-1,-1,-2,0
1513229262273498,0,0,1,-1,0,0,-1,-1
1513229262273498,-1,-2,-2,-1,-2,-1,-1,0
1513229262274995,-1,-2,-1,0,-1,0,-1,-1
1513229262274995,2,0,-3,-1,-1,-3,0,-1
1513229262288538,-1,-1,-3,-1,-2,-1,-1,-1
1513229262288538,-1,-2,-1,0,0,-1,0,-1
1513229262290022,1,-1,-2,-2,-1,-1,-1,-1
1513229262290022,-1,0,1,0,0,0,-1,-1
1513229262310523,0,-2,-1,-2,-2,-2,-2,-2
1513229262310523,-2,-2,-2,-1,-1,-2,-2,-1
1513229262317025,0,-2,-4,-2,-3,0,-1,0
1513229262317025,-1,-1,-1,-2,0,-1,1,-2
1513229262325045,0,-1,2,0,-1,-1,0,-1
1513229262325045,-1,-2,-1,-1,-2,0,-2,-1
1513229262332039,-1,-1,-1,-2,-1,-1,-1,-1
1513229262332039,-3,-2,-2,1,-1,0,-2,-1
1513229262348547,-1,-3,-2,0,-2,0,-3,-1
1513229262348547,-1,-2,-3,-2,-1,0,0,0
1513229262350549,-3,-1,0,-1,-1,-2,-1,0
1513229262350549,1,0,-1,-2,-1,-1,0,-2
1513229262370564,-1,-1,-2,-2,-2,-2,1,0
1513229262370564,-1,-2,1,0,0,0,-1,0
1513229262372564,-1,0,-1,1,0,-2,0,-1
1513229262372564,3,1,-3,-2,0,-2,0,-1
1513229262384572,-2,-3,-2,-2,-2,-2,-3,-2
1513229262384572,-1,-1,1,-1,-2,0,-3,-2
1513229262393605,1,-1,-3,-5,-2,-1,1,2
1513229262393605,0,0,0,-1,-1,0,-1,-1
1513229262408090,0,1,-1,-1,-1,-2,-1,-3
1513229262408090,0,1,0,0,-1,0,0,-1
1513229262410094,-2,-2,-1,0,-1,-1,-4,-3
1513229262410094,-2,-2,0,-1,-1,0,0,0
1513229262430608,-2,0,-2,0,-2,-2,-2,0
1513229262430608,-1,-1,-2,-2,-2,0,0,-1
1513229262437111,-1,-1,0,1,-2,-1,-1,-2
1513229262437111,-2,-1,-3,-1,0,-3,-1,-1
1513229262444619,-1,-2,-1,1,1,-1,-2,-1
1513229262444619,-2,-1,-1,0,-1,-2,0,-1
1513229262453623,-1,1,-3,-1,-2,-2,-2,-1
1513229262453623,-3,-3,1,-1,-2,-1,-1,-1
1513229262468132,-1,-1,-2,-1,-2,-2,1,-1
1513229262468132,-1,-2,-1,-1,-1,1,-1,-1
1513229262470134,0,-1,2,0,0,0,0,-1
1513229262470134,-2,0,-5,-3,-3,-1,-1,1
1513229262490669,-3,-2,-1,0,-1,0,-1,-1
1513229262490669,-3,1,-3,-1,-1,-2,0,-1
1513229262492650,-1,-2,0,-1,-3,-1,-1,0
1513229262492650,-1,0,2,-2,-2,1,-3,-1
1513229262505158,0,-1,-1,-3,-2,-2,-1,-4
1513229262505158,-1,-2,-1,-1,-1,0,-1,-1
1513229262513674,-9,-1,4,2,0,1,0,0
1513229262513674,0,1,0,-1,-2,-2,-1,1
1513229262528175,-2,-2,-2,1,0,0,-1,0
1513229262528175,-1,0,-1,-2,-2,-2,-1,-1
1513229262529676,2,-1,-4,-2,-2,-1,-2,-1
1513229262529676,-1,-1,-1,-1,0,0,1,-1
1513229262558196,-2,-2,0,-1,-1,1,-1,1
1513229262558196,0,-1,-2,-1,-1,-1,0,-2
1513229262560198,-1,-1,-5,-2,0,0,-2,-2
1513229262560198,-2,-3,-1,-2,-2,-3,-2,-2
1513229262564701,0,-1,-1,-1,-1,-2,0,0
1513229262564701,0,-3,-1,-2,-2,0,0,-2
1513229262573706,-2,-1,0,0,1,-1,-2,-2
1513229262573706,-1,-1,1,1,-1,-1,-1,-2
1513229262588720,-1,1,2,-1,0,0,0,-1
1513229262588720,-2,-1,0,-2,-1,-1,-1,1
1513229262590219,-3,0,1,-1,0,0,0,0
1513229262590219,1,-2,-1,0,-1,-1,-1,-1
1513229262610734,1,-4,-2,0,1,-3,1,0
1513229262610734,-1,-1,-1,-2,0,0,-1,0
1513229262612234,3,-2,-2,-1,-1,0,-2,-2
1513229262612234,-1,-3,-1,1,0,-1,-2,0
1513229262624253,-4,-1,-4,-2,-2,0,-1,-1
1513229262624253,-2,-4,-3,-1,-2,-2,-2,1
1513229262633750,0,-3,-2,1,0,-1,0,0
1513229262633750,-2,-13,-11,-6,-2,-2,2,-1
1513229262648260,4,23,5,-2,-1,-1,-2,-1
1513229262648260,-7,1,1,0,-1,-1,-3,-2
1513229262649763,-1,-1,-2,-2,-2,-1,-2,-1
1513229262649763,-4,-3,4,3,0,-1,-1,-1
1513229262670776,-1,-7,-7,-5,-3,-2,-1,-3
1513229262670776,2,-2,-3,-1,1,-2,-2,-2
1513229262672276,-3,-1,2,0,-4,-2,0,-1
1513229262672276,1,-1,-5,-4,0,-2,-2,1
1513229262684288,-4,-4,-1,0,-2,0,0,-3
1513229262684288,0,1,0,0,-2,-2,-1,-2
1513229262693802,-2,-3,-3,0,0,-2,-1,-2
1513229262693802,2,-2,0,1,-1,-2,-1,0
1513229262708323,-1,0,-2,0,-1,0,1,1
1513229262708323,0,1,0,-1,0,-3,-2,-2
1513229262709803,2,2,-2,-3,-2,-2,-2,0
1513229262709803,-5,3,1,0,-1,-1,-2,-3
1513229262730821,1,-6,-4,-2,-2,-1,-3,0
1513229262730821,-1,-3,-3,-2,-1,-2,1,-1
1513229262732319,0,0,0,-1,1,-2,-2,-1
1513229262732319,0,0,0,0,0,-1,-2,-2
1513229262753333,-2,-3,-1,0,-1,-2,-1,-2
1513229262753333,-2,-2,0,0,-1,-1,-1,-2
1513229262754834,-3,-3,-2,-2,-2,-1,0,-1
1513229262754834,-2,5,-2,0,-2,-1,-2,0
1513229262768345,-5,-3,2,2,3,-1,1,-1
1513229262768345,0,2,-1,-1,-2,0,-1,0
1513229262769846,0,0,-3,-2,-2,-1,0,0
1513229262769846,-6,-2,2,-2,-2,1,-2,-1
1513229262798365,1,2,1,-1,-1,-2,-3,0
1513229262798365,-7,-1,1,0,1,0,0,-2
1513229262799866,-2,0,-1,-1,-1,-1,-2,2
1513229262799866,-1,-2,-1,0,-1,-2,-4,-2
1513229262813395,-2,-4,-2,0,-2,-1,-3,-2
1513229262813395,0,-4,-2,-1,-3,-1,-1,-1
1513229262814877,1,0,-3,-1,-1,-2,-1,-1
1513229262814877,1,1,0,-1,-1,-1,-1,-2
1513229262828387,0,-1,-1,-1,-2,0,1,-1
1513229262828387,-1,-2,-1,-1,-1,1,-1,-1
1513229262829903,-1,0,-2,-1,-2,0,5,2
1513229262829903,0,-1,-3,-1,-1,-2,-4,-7
1513229262850923,0,-1,0,-1,-2,0,0,-3
1513229262850923,-1,-1,-2,-1,-3,-1,-2,-4
1513229262852408,-3,1,0,-1,-2,-1,-1,-1
1513229262852408,-1,-4,-2,-2,-2,-1,9,4
1513229262873433,-1,2,0,-2,-1,-1,0,-1
1513229262873433,-1,0,-1,0,0,-2,-8,-1
1513229262874921,0,-4,-3,0,-1,-2,-3,-3
1513229262874921,1,-2,0,0,-1,-3,-4,0
1513229262888431,-1,2,1,-3,-2,-2,4,1
1513229262888431,1,-3,-4,-2,-1,-2,3,-1
1513229262889932,2,4,1,-1,-1,0,-2,0
1513229262889932,-3,-2,-1,-1,0,0,1,-1
1513229262910946,-2,-4,-2,0,0,-1,-4,1
1513229262910946,2,0,1,-1,-4,-2,-3,0
1513229262912446,-1,0,-2,-3,-2,-2,-1,-3
1513229262912446,-2,-1,-2,-2,-1,-1,-1,0
1513229262932483,-1,-1,-3,-3,-1,-1,-2,-2
1513229262932483,1,-4,-4,-3,1,-2,-1,-2
1513229262950474,-1,-3,-2,-1,0,-1,0,-2
1513229262950474,0,3,-1,0,0,-1,-4,0
1513229262951474,-2,-4,-1,1,-1,-1,-5,-4
1513229262951474,0,-1,-2,-1,-1,-1,3,1
1513229262954476,-4,-3,1,0,1,-1,0,-2
1513229262954476,1,0,1,-1,0,1,0,-1
1513229262971001,2,-2,-2,0,-1,0,-1,0
1513229262971001,-3,-2,0,1,-2,0,0,-1
1513229262972489,0,-1,-1,0,0,-1,-2,0
1513229262972489,-3,-2,-2,-2,-2,-1,-2,-1
1513229262993503,-1,-2,1,-1,-1,-2,0,2
1513229262993503,-2,-1,-2,1,1,-1,-2,-1
1513229262995005,-1,-1,0,-2,-2,-2,-1,-2
1513229262995005,2,-2,-3,-3,0,-1,-2,0
1513229263007516,-1,-1,-2,-3,-1,-2,-1,-1
1513229263007516,-1,-2,-2,-2,-1,0,-1,1
1513229263014521,3,-1,-2,-3,-1,-1,-3,-2
1513229263014521,-1,-3,0,0,-2,-1,-1,-1
1513229263031031,-3,-2,-2,0,-1,-2,-2,-3
1513229263031031,-1,0,-2,-1,-1,0,0,-1
1513229263032532,-4,-3,-2,-1,-2,0,-1,-3
1513229263032532,-2,-3,-1,-1,-1,-2,0,-1
1513229263061051,-5,1,1,-1,1,-1,0,-2
1513229263061051,0,0,0,-1,0,-2,-2,-2
1513229263062552,-2,-2,-2,-1,0,-1,-2,-2
1513229263062552,-1,0,-3,-1,-2,-2,-1,-2
1513229263067555,-1,1,-1,0,-1,0,0,-2
1513229263067555,-2,1,-1,-2,-1,0,3,-1
1513229263074581,-1,-1,-1,1,-1,-3,-1,0
1513229263074581,1,-3,-5,-1,-1,-1,-3,0
1513229263090582,-1,-2,-2,0,0,0,-1,0
1513229263090582,1,-1,-2,-3,-1,-2,-3,-1
1513229263092603,1,-1,-2,-1,-1,-3,-1,0
1513229263092603,3,3,-1,-2,-1,-1,1,1
1513229263113105,0,-3,-4,0,0,-1,-1,0
1513229263113105,-4,-2,0,0,-1,-2,0,-2
1513229263115108,-4,-3,-1,-1,1,0,-1,-1
1513229263115108,-2,-2,-2,1,1,1,-2,-2
1513229263127615,-3,-3,0,-1,-1,0,-2,-2
1513229263127615,0,2,1,-1,-1,0,0,0
1513229263134603,-1,-5,-3,1,-1,-1,-1,-2
1513229263134603,-1,0,-1,0,-1,-2,-1,-1
1513229263151116,2,-4,-3,-3,-1,-1,-1,-1
1513229263151116,-2,0,-3,-1,-1,-1,-1,0
1513229263152616,4,0,0,-2,-2,-2,-1,1
1513229263152616,-3,1,1,0,-1,-1,0,-1
1513229263173154,1,-1,-3,-1,-2,0,-2,0
1513229263173154,-3,-1,-1,-1,-1,0,0,0
1513229263175132,-3,1,-1,0,-1,-1,-1,-2
1513229263175132,-4,-1,0,-1,-1,-1,-1,-2
1513229263187641,-1,-1,-1,-2,-2,-1,-2,-1
1513229263187641,0,-2,-1,-1,-2,0,-1,0
1513229263202151,-2,-1,-1,-1,-2,-2,0,-1
1513229263202151,-2,-1,-2,-3,0,-1,1,0
1513229263210681,-5,1,1,1,-2,-2,1,-1
1513229263210681,-3,-2,-1,-1,1,-1,0,-2
1513229263212658,-1,0,-1,0,-2,0,0,0
1513229263212658,1,0,0,0,0,0,-2,-1
1513229263233685,-1,-2,1,-1,-1,-2,-2,-2
1513229263233685,-2,-3,0,0,-1,-2,-2,-1
1513229263235184,1,1,-2,0,-1,-1,2,1
1513229263235184,-2,-9,-2,-1,-1,-1,0,-1
1513229263247683,-7,4,1,1,2,2,-1,-3
1513229263247683,-2,-1,-2,0,0,0,0,-1
1513229263254187,-1,-1,1,-1,-1,0,-1,-1
1513229263254187,2,-2,0,-1,-2,-1,-1,0
1513229263270700,1,-2,-1,-3,-2,-2,0,1
1513229263270700,1,1,-1,-2,-1,-2,-1,-1
1513229263272200,2,-6,-6,-2,-1,0,1,5
1513229263272200,-1,1,-2,-2,0,0,-3,-6
1513229263300722,-2,-2,-1,-3,-1,-2,-3,-1
1513229263300722,3,3,0,-4,-4,-2,6,0
1513229263302234,-2,-1,0,-2,-1,0,4,-1
1513229263302234,0,0,-2,-2,-2,-2,-17,-4
1513229263306737,0,-1,-4,-3,-1,1,-1,-4
1513229263306737,0,-7,-7,-2,-1,-2,6,3
1513229263315731,-5,-3,-2,0,0,0,-3,3
1513229263315731,-2,9,1,0,-1,-1,3,-3
1513229263338268,-2,-5,-2,0,-1,-2,-7,-5
1513229263338268,-2,-4,0,0,1,0,-6,-4
1513229263339748,-2,0,0,-1,-1,0,2,-4
1513229263339748,0,-2,-3,-3,-2,-1,5,2
1513229263353274,2,-1,-1,-1,-1,0,-1,1
1513229263353274,-3,-1,0,0,0,-1,4,-1
1513229263354761,-2,0,-1,0,-1,0,-4,-4
1513229263354761,-1,-1,-1,-1,-1,-1,-2,3
1513229263366767,-3,-1,-1,-1,-1,-1,5,1
1513229263366767,-2,-3,-1,-1,-1,-1,-5,0
1513229263383279,-3,2,-3,-2,0,-1,-5,-4
1513229263383279,-3,-1,-1,-2,-2,-2,0,-1
1513229263398289,1,0,-1,-1,-1,-3,1,-2
1513229263398289,-3,1,0,0,-1,-1,-4,1
1513229263399791,0,-2,-1,-1,0,-2,-3,0
1513229263399791,0,1,0,-2,-2,-1,3,0
1513229263420809,4,-2,-3,-1,-1,-1,0,3
1513229263420809,-1,0,-1,0,1,-2,-2,-3
1513229263422311,-1,-2,1,-2,-1,-4,-1,-2
1513229263422311,-3,-2,0,0,0,0,0,1
1513229263426813,-1,3,-1,0,-2,-1,-1,-1
1513229263426813,-4,-3,0,-2,-2,-1,-3,-3
1513229263435817,-4,-1,-1,-1,-2,0,-2,-2
1513229263435817,0,0,0,-1,-1,-2,0,-2
1513229263450827,-1,0,-1,0,-1,-1,-2,-2
1513229263450827,-1,1,0,-3,0,-1,-1,-2
1513229263452329,-2,-1,1,0,-1,0,0,-1
1513229263452329,-4,-4,-1,0,0,0,0,-3
1513229263473843,-1,-3,-1,-1,-1,1,3,-1
1513229263473843,0,-3,-2,-2,-1,2,-2,-2
1513229263475358,0,-1,-1,0,-1,-1,0,-3
1513229263475358,1,-2,-2,0,-1,0,0,-2
1513229263486862,0,0,-1,0,0,-2,-1,0
1513229263486862,-1,-1,-3,-1,-1,-1,-1,-1
1513229263495858,-2,-2,1,0,1,0,0,1
1513229263495858,-3,-1,-3,0,-1,-1,-2,-2
1513229263510869,-2,-1,0,0,-1,0,-2,-1
1513229263510869,-4,-2,-2,-1,-2,-2,-3,-1
1513229263512384,-1,-1,-2,-2,0,-3,-1,0
1513229263512384,-1,-2,-2,-1,-2,-1,-2,0
1513229263532895,-1,0,-2,-2,1,1,0,0
1513229263532895,-2,0,-2,-1,-2,-2,1,-3
1513229263540390,1,1,0,-2,-1,-2,1,-1
1513229263540390,1,0,0,-1,-2,-1,0,-1
1513229263546895,-2,-1,-3,0,-1,-1,-1,-2
1513229263546895,1,0,0,-1,-2,-4,-1,0
1513229263555900,1,1,-2,-1,-1,-2,-1,-3
1513229263555900,2,-2,-1,0,-1,2,0,0
1513229263570914,-4,-5,1,-1,-1,-3,-2,-2
1513229263570914,0,-2,-4,-2,-1,0,-2,0
1513229263572412,-2,-3,-1,0,-2,-1,-2,1
1513229263572412,0,2,-1,-2,-2,-2,-1,0
1513229263600932,-1,-1,-2,0,-3,0,-2,0
1513229263600932,-1,-2,-1,0,-2,-1,-1,0
1513229263602433,-1,-3,-2,0,-2,0,-3,-1
1513229263602433,-4,-1,0,0,-1,-1,2,0
1513229263606937,0,-2,-1,-3,0,-1,0,0
1513229263606937,-1,0,0,-1,0,0,-1,0
1513229263615978,-2,2,-2,-1,-1,0,0,-3
1513229263615978,-1,-1,-3,0,-1,-2,-1,-2
1513229263630978,0,1,-1,-2,-1,0,-3,-1
1513229263630978,0,-2,-1,0,-1,1,-1,-1
1513229263632955,-1,-1,0,-1,-1,-1,0,-2
1513229263632955,-2,-5,-2,1,0,0,-1,0
1513229263653469,-1,-2,-2,-1,-1,0,-1,0
1513229263653469,2,-1,-1,-1,0,-1,-1,-2
1513229263654970,-2,1,0,-2,-2,-1,0,-2
1513229263654970,1,-1,0,0,1,-2,-2,-2
1513229263666979,-3,-3,-1,-1,-2,-2,-2,0
1513229263666979,-2,-2,-1,0,-2,-2,0,-1
1513229263676007,1,-1,0,-1,-1,-1,-3,-1
1513229263676007,4,-3,-5,-3,-3,-3,-2,-2
1513229263690499,-2,0,-1,0,-2,-1,-2,-1
1513229263690499,1,-1,-2,0,-2,0,-3,0
1513229263692501,-1,3,-1,1,0,1,0,1
1513229263692501,-2,-5,-2,-1,-1,1,-2,0
1513229263713512,0,-1,-1,-1,0,-3,0,-3
1513229263713512,-3,-2,-1,0,-1,-1,1,-1
1513229263715013,0,-2,-4,-1,-1,-1,-2,-3
1513229263715013,-5,2,1,-1,0,-1,-1,-1
1513229263727036,-1,-2,-1,-1,0,-2,-1,-2
1513229263727036,-7,0,0,-2,-1,-1,1,-3
1513229263737029,-1,1,-1,-1,-2,-1,-1,-2
1513229263737029,0,0,-1,-2,-1,-2,0,0
1513229263751059,0,-4,-2,-1,-2,-1,-2,-1
1513229263751059,2,-1,-3,-2,-1,-3,-2,0
1513229263752540,-1,-3,-2,0,0,-2,-1,-1
1513229263752540,-1,3,0,-2,-1,-1,-4,-2
1513229263773054,-1,-1,-1,0,-2,-1,0,-3
1513229263773054,-2,-1,0,0,-1,0,-2,0
1513229263775065,-2,-2,-2,-1,-2,-3,-1,-1
1513229263775065,1,-1,-2,0,-2,-1,-1,-3
1513229263795570,1,2,-1,-1,-2,-1,0,-3
1513229263795570,-3,-5,0,-1,0,-1,0,-1
1513229263797571,-1,-1,0,-1,-2,-1,-3,-2
1513229263797571,-1,-2,0,1,1,-2,-1,1
1513229263811082,0,2,-1,-1,-2,-2,-2,0
1513229263811082,-1,0,-1,-1,0,-2,-3,-1
1513229263812586,-2,-2,-3,0,-1,-1,-2,-1
1513229263812586,-4,-3,-2,-1,-2,-1,-1,-2
1513229263833598,-1,-3,0,0,-1,-1,-1,-1
1513229263833598,-1,0,0,0,-1,-2,-1,0
1513229263835609,-1,-2,0,-1,-2,-1,0,0
1513229263835609,1,-3,-1,-1,-1,0,-2,0
1513229263863119,-3,2,-2,-3,-1,-3,0,0
1513229263863119,-2,1,-1,1,-1,-1,0,0
1513229263865136,-2,-1,-1,-1,-1,-3,-2,-1
1513229263865136,2,0,-1,-1,-1,-1,0,0
1513229263870633,-1,-3,0,-1,-2,-1,-1,0
1513229263870633,0,0,-2,-2,-1,-2,-1,-1
1513229263872628,0,-4,-4,-3,0,-1,0,1
1513229263872628,-2,2,0,-1,-1,-1,-3,-1
1513229263893663,-3,-3,0,-1,1,-1,-2,0
1513229263893663,-1,2,-1,-1,-2,0,0,-3
1513229263895141,-1,-3,-1,0,1,-1,0,-2
1513229263895141,-1,0,-2,0,-1,1,1,-1
1513229263915667,-3,0,-1,0,-1,-2,-2,-3
1513229263915667,1,-4,-3,-2,-2,-3,-1,-1
1513229263917657,-1,-1,-1,-2,0,1,-1,-1
1513229263917657,-1,-1,-1,-1,-1,-2,0,-3
1513229263929179,-1,-1,-1,0,-2,-3,-2,-2
1513229263929179,0,-2,0,-2,0,-1,-1,1
1513229263938171,3,0,-1,-4,-3,-2,-2,-1
1513229263938171,-3,-2,1,0,-1,-2,-2,1
1513229263953184,-2,-3,-2,0,0,-1,-1,-1
1513229263953184,1,-1,-2,-1,-1,-1,-2,-1
1513229263955196,-1,0,-1,0,-1,-1,-1,-2
1513229263955196,0,-1,0,-1,0,0,-1,-2
1513229263975710,0,-1,-2,-2,-2,1,0,0
1513229263975710,-4,-1,0,-1,0,-2,-1,-2
1513229263977199,-8,2,5,0,1,1,-1,-1
1513229263977199,-1,-1,-2,-1,-1,-2,-2,-1
1513229263990710,-2,-2,-1,-3,-1,-2,-1,-1
1513229263990710,2,-2,-2,-1,-1,-1,1,0
1513229263997214,3,-1,-3,-2,-2,-1,0,1
1513229263997214,-2,-1,1,0,-1,-1,0,-1
1513229264013743,1,0,-2,-1,0,-1,-2,0
1513229264013743,0,0,-3,-2,-1,1,-1,0
1513229264027235,-1,-3,-2,0,0,-2,-2,0
1513229264027235,1,-2,-2,-1,0,0,-1,0
1513229264035740,1,-1,-2,0,-2,-2,-2,-2
1513229264035740,-1,0,1,0,-4,-1,-1,0
1513229264037744,1,0,-2,0,-1,0,-3,-1
1513229264037744,-2,0,-1,-2,-2,-1,-1,-3
1513229264051251,3,-5,-3,-2,1,1,-1,0
1513229264051251,-5,-4,0,0,-1,-1,-1,-3
1513229264058256,-1,4,1,-2,-1,-1,0,1
1513229264058256,-1,-3,-4,0,-2,-1,-1,-1
1513229264073277,-3,-1,-2,0,-1,-1,0,-2
1513229264073277,1,-4,-1,-1,-1,-1,-4,-2
1513229264074768,-1,-4,-2,0,-2,-2,0,0
1513229264074768,-1,-1,-1,0,1,-1,1,-2
1513229264095782,-3,1,0,-1,-1,0,-1,-2
1513229264095782,-2,0,0,-2,-1,-2,-1,-1
1513229264097283,-3,-2,-1,0,0,0,1,1
1513229264097283,-1,0,-2,-2,-1,-2,-2,-1
1513229264110292,-3,2,1,0,0,0,-1,-1
1513229264110292,0,-1,-3,-4,-2,-1,-1,-1
1513229264116797,4,-3,-3,-3,1,0,0,0
1513229264116797,-6,-1,3,-3,-1,1,0,-2
1513229264140817,-2,-1,-1,0,-1,-2,-1,0
1513229264140817,-2,0,-1,-2,-1,0,-1,-2
1513229264142327,0,-1,-1,-2,-2,-1,-1,0
1513229264142327,0,-2,-1,-1,-2,-1,0,-1
1513229264155824,1,-3,-5,-1,-1,-3,-1,0
1513229264155824,0,-1,-2,1,-1,0,-2,-2
1513229264157327,-2,-1,-1,0,-3,0,-3,-2
1513229264157327,-2,-1,1,1,0,-1,-2,0
1513229264169836,-1,-1,0,0,-1,-1,1,-1
1513229264169836,-1,-3,-2,-1,0,-2,-2,1
1513229264176857,-4,1,2,0,-1,-1,0,-3
1513229264176857,0,-2,-2,-1,-1,1,0,-1
1513229264193354,-3,-1,-1,-1,0,0,-2,0
1513229264193354,0,0,0,-2,0,-1,-1,1
1513229264194856,-3,-4,-3,-2,-3,-3,0,-3
1513229264194856,0,-2,-1,-1,-2,-2,0,1
1513229264215889,-2,-3,0,-1,-2,-1,0,-2
1513229264215889,0,-1,-1,-1,-2,-2,-2,-2
1513229264217369,0,1,0,-1,0,0,0,-2
1513229264217369,0,-1,-3,-2,-2,-1,0,1
1513229264238385,-3,0,-1,-2,-1,0,0,-3
1513229264238385,-2,-2,-2,1,-2,-1,-1,-2
1513229264239898,1,-4,-3,-1,-1,-1,-1,0
1513229264239898,-2,3,1,-2,2,0,-1,-2
1513229264253895,1,0,-2,-1,0,-1,-2,0
1513229264253895,2,0,-3,-4,-2,-2,0,-3
1513229264255396,-2,-3,-2,0,-1,0,-1,-1
1513229264255396,1,-2,-2,-2,-1,-3,-1,-3
1513229264275935,2,-1,-2,-1,-2,-1,-1,-1
1513229264275935,-3,2,0,-1,-1,-1,0,0
1513229264277413,0,-4,-3,-1,-1,-1,0,0
1513229264277413,-2,-2,-2,-2,-2,-3,-1,0
1513229264289430,-4,-3,0,0,1,0,-1,-1
1513229264289430,-1,-1,-2,0,-2,-1,-1,-2
1513229264298926,-1,0,-3,0,-1,0,1,-1
1513229264298926,0,0,0,0,-1,0,-2,-1
1513229264312438,0,-1,-1,-1,-1,-1,-1,0
1513229264312438,2,-1,0,-3,0,-1,-2,1
1513229264313451,-3,1,2,-2,-1,-1,-2,-1
1513229264313451,1,0,-2,0,1,0,-2,0
1513229264334964,-3,-2,-1,-2,-2,-2,-2,-2
1513229264334964,-5,1,0,-1,-1,2,-1,-1
1513229264342460,2,-1,-2,-2,0,-3,-3,0
1513229264342460,-1,-2,-1,-2,-2,-2,0,0
1513229264357984,0,-1,0,-1,0,-1,-1,0
1513229264357984,-2,-1,-3,1,-2,-3,-1,0
1513229264358970,-1,0,-2,0,-1,-1,-3,-2
1513229264358970,-2,1,-1,0,-1,-1,-2,-1
1513229264372478,1,0,-2,-1,-2,-2,0,-1
1513229264372478,1,-6,-3,0,-1,0,-1,-3
1513229264373479,-1,-1,0,-2,-3,-1,0,0
1513229264373479,0,-1,-2,-1,-1,-1,0,0
1513229264395025,-1,0,1,-3,-1,0,0,0
1513229264395025,-1,-1,-1,-1,0,-1,0,-1
1513229264396026,-1,-2,1,0,0,-1,-2,0
1513229264396026,-2,-2,-2,-4,-2,-2,2,0
1513229264418543,-1,-1,-1,-1,-1,-3,-2,-2
1513229264418543,-3,-1,0,0,1,-2,0,-1
1513229264419043,0,-3,-3,0,-2,-1,-1,-1
1513229264419043,-1,-2,-1,-1,-1,-2,-1,1
1513229264432554,-1,0,-2,-1,-1,0,1,-1
1513229264432554,-1,0,-1,-1,-1,-1,-1,-1
1513229264433553,-6,-1,1,-1,-1,-1,-1,-2
1513229264433553,-1,-1,0,0,0,1,-1,-2
1513229264455068,-1,-2,-1,-1,-2,-1,-1,-2
1513229264455068,-1,-1,-2,-1,0,0,0,-1
1513229264455568,1,-1,-1,-1,0,0,-1,0
1513229264455568,0,-1,-3,-2,-1,-2,-2,-3
1513229264478584,-1,0,-3,0,1,-2,-3,-1
1513229264478584,-1,-2,-3,0,-1,-2,-3,-1
1513229264479085,0,1,-2,-1,-2,-2,-1,-1
1513229264479085,2,-1,-1,-2,-1,-2,-2,0
1513229264500643,-3,-1,1,-1,0,0,0,-1
1513229264500643,-1,0,-2,-1,-2,-2,-2,0
1513229264501633,-2,-1,-2,-2,-1,-2,1,0
1513229264501633,1,-2,-1,-1,-3,-1,-2,3
1513229264515160,-1,0,0,-1,0,-1,0,1
1513229264515160,-7,2,5,1,0,-1,0,-2
1513229264515642,-1,0,0,0,-1,-2,-1,-1
1513229264515642,-2,-1,0,1,-1,-1,1,-2
1513229264538161,-1,0,1,-2,-2,-1,-1,-2
1513229264538161,0,-3,-1,-3,-1,-2,0,1
1513229264539175,1,-3,-5,-2,0,0,-1,0
1513229264539175,-2,-1,-2,-2,-1,-1,0,-2
1513229264552688,0,-3,-2,-1,-1,0,-1,-2
1513229264552688,1,1,0,-1,-3,-2,-2,-2
1513229264553673,-4,-1,0,-1,-2,-1,0,-1
1513229264553673,-2,-2,-3,0,0,-1,-1,-2
1513229264575225,0,-2,-1,0,-1,-1,-1,-2
1513229264575225,-1,-2,-1,-1,0,-2,0,-1
1513229264575685,-4,-1,-1,-2,0,-1,-2,-2
1513229264575685,-3,-1,0,-1,-1,-2,-4,-3
1513229264598211,-1,0,-2,-1,-3,-2,0,-1
1513229264598211,-1,-1,-2,-1,-2,0,1,-1
1513229264599203,3,-2,-2,-4,-1,1,0,-2
1513229264599203,-4,-1,1,-1,0,0,0,0
1513229264612711,0,-1,-2,-1,-2,-1,-2,0
1513229264612711,1,-4,-2,-1,-1,0,-2,1
1513229264613216,-2,-1,1,0,-2,0,0,-2
1513229264613216,1,0,-1,-1,-2,1,0,-2
1513229264635230,-1,2,-1,-2,1,-3,-1,-1
1513229264635230,-1,-4,-3,-1,-1,0,-1,-3
1513229264637230,0,-2,-1,0,-1,0,-2,1
1513229264637230,-1,1,-2,-1,-2,-2,-2,-2
1513229264658244,-1,-1,-2,-2,-3,0,-2,-3
1513229264658244,0,1,-2,-1,-1,-2,0,0
1513229264659245,-1,0,-1,0,-2,-1,-1,0
1513229264659245,-11,-3,4,0,1,-1,0,-5
1513229264672754,-1,0,0,-1,0,0,-2,-1
1513229264672754,-1,-1,-1,-2,0,-2,-2,-1
1513229264673254,-2,-2,-1,-1,0,-2,-2,0
1513229264673254,0,-4,-2,-2,0,-1,-1,1
1513229264695287,-2,-2,-2,-1,-1,-2,0,-2
1513229264695287,-1,0,0,-2,-1,0,-1,1
1513229264695772,-1,-2,-5,-3,-1,-1,0,-3
1513229264695772,0,0,-1,-1,-2,-1,-1,1
1513229264718289,0,-1,0,-1,0,-1,-3,-1
1513229264718289,2,1,-1,-1,-2,-3,-2,-2
1513229264718791,-1,-1,-2,-1,0,-1,-3,-1
1513229264718791,-5,0,1,-1,1,-1,0,-1
1513229264732865,0,-1,-3,-2,-3,0,-2,0
1513229264732865,1,-2,-2,-2,-2,-2,-1,-1
1513229264740301,1,2,-2,1,-1,-1,0,1
1513229264740301,5,1,-3,-3,-1,0,-2,-2
1513229264754812,-2,0,1,0,2,-1,1,0
1513229264754812,-3,-1,0,-1,-1,-1,0,-2
1513229264755813,-1,-1,0,-2,-1,-2,-2,-3
1513229264755813,0,-1,-4,-1,-1,-1,-2,-1
1513229264778331,0,-2,-3,-2,0,-1,1,-1
1513229264778331,-1,1,-1,1,1,-2,0,-1
1513229264778829,-1,-1,1,-1,-3,0,1,-2
1513229264778829,3,-2,-5,0,-2,-2,-1,-1
1513229264792339,-2,0,0,-1,1,-2,0,-2
1513229264792339,0,-1,0,0,-2,0,-2,1
1513229264793341,-1,1,-2,0,-2,-2,0,-1
1513229264793341,1,0,-4,-1,-2,0,-1,0
1513229264814853,1,-1,-5,-2,-2,0,-2,0
1513229264814853,1,-2,0,-2,-1,0,0,0
1513229264815854,-10,3,5,3,0,-1,-1,-3
1513229264815854,1,-3,-2,-1,-2,-1,-2,-1
1513229264838371,-2,-1,-1,-2,0,0,-1,-1
1513229264838371,-2,-1,-1,-1,0,-1,1,-3
1513229264838871,2,-2,-4,-2,0,-1,-1,0
1513229264838871,0,1,-2,-3,-1,-4,-1,-1
1513229264852883,-3,0,1,0,-2,0,-1,-5
1513229264852883,0,-1,-4,-2,-1,0,0,1
1513229264853882,0,-3,-1,0,0,0,1,-2
1513229264853882,3,-3,-2,-1,-1,-1,-2,0
1513229264875402,2,-3,0,-3,-1,0,-1,-1
1513229264875402,-1,2,1,0,-3,0,0,-1
1513229264875902,0,-1,-1,-1,-1,-2,-1,1
1513229264875902,-3,-1,1,-1,-1,1,0,0
1513229264898412,0,0,-2,-1,-1,-1,-1,0
1513229264898412,-2,-2,-1,0,0,-1,-2,-2
1513229264898924,-1,-2,-3,-1,0,0,-2,-2
1513229264898924,-3,-2,0,-2,2,0,0,-2
1513229264912436,-2,-1,0,0,-2,0,-1,0
1513229264912436,-2,-2,0,-2,0,-1,0,-3
1513229264913425,1,-1,-1,-2,-2,-2,-1,-1
1513229264913425,-2,-1,1,2,-1,-1,-1,0
1513229264935441,-1,-2,-3,0,-3,-1,-1,1
1513229264935441,-1,-4,-4,-1,0,-2,-1,-1
1513229264936441,-1,-2,0,1,-2,-2,-1,-1
1513229264936441,-1,1,-1,0,-2,-2,-1,-1
1513229264958481,0,1,-2,-1,-2,-1,0,0
1513229264958481,-2,1,2,-1,-2,0,-3,-2
1513229264958969,1,0,-2,-3,0,0,-1,0
1513229264958969,-2,0,-1,-1,-2,0,-1,0
1513229264972480,-1,-2,-2,-2,-1,0,-2,0
1513229264972480,2,0,-2,-3,-2,0,-1,-1
1513229264973482,0,-2,-3,-1,0,0,0,-1
1513229264973482,1,0,-1,-2,-1,-2,-1,1
1513229265003006,-4,-1,1,2,0,-1,-1,-2
1513229265003006,0,0,-1,0,-1,-3,-4,-1
1513229265003987,-2,-2,1,1,1,1,0,0
1513229265003987,-2,-1,-2,-2,-2,-2,0,-2
1513229265018498,-2,-3,-2,0,-1,-2,-1,-1
1513229265018498,-2,1,-1,1,-1,-2,0,0
1513229265018998,1,0,0,-1,-1,0,1,2
1513229265018998,-2,0,-1,-2,-2,-1,-1,-1
1513229265032508,0,-1,-2,-1,-1,-1,-2,-2
1513229265032508,-1,0,1,0,0,1,0,0
1513229265033508,-1,-2,0,-1,-1,-2,-3,-1
1513229265033508,-2,-2,-1,-1,0,2,0,-2
1513229265055023,-1,0,-1,-1,-2,-1,-2,-2
1513229265055023,-2,-4,-3,0,-3,1,0,-1
1513229265055523,0,0,-3,-1,-1,-3,-3,-1
1513229265055523,1,0,0,-1,-1,-1,-1,1
1513229265078052,-1,1,-2,-1,-1,-2,-1,0
1513229265078052,0,-1,-3,0,0,-3,-1,0
1513229265079044,-4,0,2,0,0,1,0,-1
1513229265079044,-1,-2,-1,-1,-1,-1,-2,-2
1513229265092644,1,-2,0,-1,-1,-1,-1,0
1513229265092644,-2,-4,-3,-2,-2,-1,-1,-2
1513229265093127,0,-2,-3,-2,-3,-1,-1,0
1513229265093127,1,-1,-2,0,-2,-2,0,-1
1513229265115145,0,-1,-2,-1,-1,0,0,-1
1513229265115145,-8,-1,4,-1,0,1,-1,-3
1513229265115644,-3,0,-1,-2,-1,-2,-2,-4
1513229265115644,-2,-3,-2,-1,-1,-2,0,-2
1513229265138160,-1,-2,-1,-1,2,-3,-1,0
1513229265138160,3,1,-2,-1,-1,-1,0,-1
1513229265139160,0,1,-2,-1,-1,-2,-2,1
1513229265139160,-3,-3,-2,-2,-1,0,-1,-2
1513229265152700,-2,-3,0,-1,-1,-2,-1,1
1513229265152700,-2,-3,-2,0,0,0,-2,0
1513229265153201,0,-3,0,-1,0,-1,-1,-1
1513229265153201,0,2,-2,1,2,-1,0,-2
1513229265175720,-1,-2,-2,-2,0,-1,0,-1
1513229265175720,0,-1,-2,-2,-1,-1,0,-1
1513229265176217,3,0,-4,-2,-2,-1,0,0
1513229265176217,-6,-2,2,0,-3,0,0,-2
1513229265198233,-3,1,-1,0,1,1,0,-2
1513229265198233,-1,1,0,0,0,-1,-3,0
1513229265199247,-1,-1,-1,-2,-1,0,-1,-1
1513229265199247,1,0,0,-3,1,-1,-2,0
1513229265220748,-1,1,-1,-1,0,0,-1,0
1513229265220748,0,-1,-2,-2,-1,-2,0,-2
1513229265221750,1,-2,0,-1,-1,-2,-2,-1
1513229265221750,-2,-3,0,0,-1,-1,-2,0
1513229265235260,-7,-1,2,1,0,-1,-1,-4
1513229265235260,-3,2,0,-2,0,-1,-1,-1
1513229265236259,-2,-1,-1,-2,-1,-1,-1,-1
1513229265236259,0,-1,0,-1,0,-1,-1,-2
1513229265258275,2,-1,-4,-3,-2,0,-2,-1
1513229265258275,1,0,-3,-2,-2,-2,-1,-1
1513229265258775,-4,0,0,0,0,0,0,0
1513229265258775,2,-1,-4,-1,-2,-3,0,0
1513229265280794,-1,-2,-2,-2,-2,-2,-1,0
1513229265280794,0,-1,-2,-1,0,0,-2,1
1513229265281792,1,-1,-2,-2,-1,-2,-1,-1
1513229265281792,1,-1,-1,0,-1,0,-2,1
1513229265294804,-2,0,-2,0,-1,1,-2,-1
1513229265294804,-1,-1,0,0,-3,-2,-1,-1
1513229265295802,-2,-2,0,0,-1,-1,-1,-2
1513229265295802,-1,-2,-1,0,0,0,-2,-2
1513229265318318,0,-1,-2,-2,-1,-3,-3,1
1513229265318318,-4,-2,-2,-2,-1,-1,-2,-1
1513229265318818,-3,-2,-1,0,-2,-1,0,-1
1513229265318818,0,0,-1,-2,-1,-1,-2,-2
1513229265331830,2,-1,2,0,-1,0,-1,0
1513229265331830,0,-1,-1,-2,1,0,-2,-1
1513229265339833,0,-1,0,-1,-1,-2,-2,0
1513229265339833,-2,-2,1,-1,-1,-1,0,-2
1513229265370869,-2,-2,0,0,-2,-1,0,-3
1513229265370869,-5,0,0,-1,-1,-2,-1,-2
1513229265371355,-1,1,-2,-1,1,-1,-1,0
1513229265371355,-2,-1,-2,2,-1,-1,-1,0
1513229265378382,0,0,-1,-2,-2,-1,-1,0
1513229265378382,-1,1,1,0,-2,-2,-2,1
1513229265378870,-1,-1,-1,-1,-1,2,-1,0
1513229265378870,-2,-1,-2,-1,-1,-1,-1,-1
1513229265391873,-5,0,1,-1,1,-1,0,2
1513229265391873,3,-3,-3,0,-1,-1,-1,0
1513229265399877,-2,-2,-2,-3,-2,-1,-2,-1
1513229265399877,1,-1,-2,-1,-1,-1,-2,-3
1513229265414890,2,-1,-3,-1,-1,-2,0,-3
1513229265414890,0,-1,0,-2,1,2,0,-1
1513229265415887,-1,-1,-1,-1,-2,-2,-1,-3
1513229265415887,0,-1,-2,-3,1,-1,-2,-1
1513229265438403,-1,-2,-2,0,0,-1,-2,0
1513229265438403,-1,1,-1,1,0,-1,0,1
1513229265438903,-1,1,-1,-2,-2,-2,-2,-1
1513229265438903,-3,0,-1,-1,-3,-1,1,1
1513229265451927,-1,-1,-2,0,-3,-2,0,0
1513229265451927,0,-2,-1,-1,-1,1,-1,0
1513229265459918,0,-4,-2,0,-1,-2,-3,0
1513229265459918,0,-1,0,1,-2,0,-2,-2
1513229265475432,1,-3,-1,-2,-1,-1,-1,-2
1513229265475432,-6,-1,2,-1,0,-3,0,-4
1513229265482437,-1,0,0,-2,-1,-1,-2,-1
1513229265482437,-1,-1,-1,-1,-2,-2,-1,-1
1513229265497945,0,-2,-3,-3,-2,-3,-2,-1
1513229265497945,-1,-2,-1,-1,-1,-1,-2,-1
1513229265498946,0,-1,-1,0,0,0,0,-1
1513229265498946,-4,2,0,-2,-1,-1,-1,-2
1513229265511958,2,-2,-1,-1,-2,0,-1,-2
1513229265511958,1,1,-2,0,-2,-1,-1,0
1513229265519960,1,-2,-1,-1,-1,-1,0,0
1513229265519960,-1,-3,-1,-1,0,-1,1,1
1513229265534971,-2,0,0,-2,-2,-1,0,0
1513229265534971,0,-3,-1,-3,-1,-2,-1,-1
1513229265537003,-1,1,-1,0,-1,-1,0,0
1513229265537003,-3,1,0,-1,-2,-2,-2,-3
1513229265558500,-3,-3,-2,0,-1,0,1,-1
1513229265558500,-1,-1,-1,-1,-1,-1,0,1
1513229265559488,0,1,-1,-2,-1,-1,0,0
1513229265559488,-1,0,-1,-1,-1,-2,-2,1
1513229265571997,0,-2,0,0,1,1,-3,-2
1513229265571997,0,-3,-3,-1,-1,-1,0,-1
1513229265580006,-1,0,-1,-1,-1,-3,-1,-3
1513229265580006,-4,0,1,-2,-2,-1,1,-2
1513229265595013,4,1,-1,-3,-3,-3,-3,0
1513229265595013,2,0,-1,0,-2,0,-2,0
1513229265595514,0,-2,-3,-1,0,-1,-1,-1
1513229265595514,-1,-4,0,-1,0,0,-2,-1
1513229265618529,-1,-1,-1,-1,2,-2,-1,-3
1513229265618529,-2,-1,-2,-1,-1,-3,0,0
1513229265619030,-2,-1,-1,-2,-2,-1,1,2
1513229265619030,2,0,-3,-1,-1,0,-2,0
1513229265641069,-2,-2,-2,-1,0,-2,-1,-2
1513229265641069,-2,3,1,-2,-1,-1,-2,0
1513229265642048,-3,-2,-1,0,-2,-1,-1,-2
1513229265642048,-1,-1,-3,1,-1,-2,-1,-1
1513229265655056,-3,-1,-1,0,-2,-1,-1,-1
1513229265655056,-1,-1,0,0,-2,-1,0,-3
1513229265655556,2,-2,-1,0,0,0,-1,0
1513229265655556,-1,-2,0,-2,-1,-1,-1,0
1513229265678072,-4,1,1,-2,-1,-1,0,-1
1513229265678072,3,-1,-2,-1,-2,-1,-1,1
1513229265679073,-4,-1,0,-1,-1,-1,0,-2
1513229265679073,-1,-1,-4,-2,-1,1,0,-1
1513229265700598,-1,0,-2,-2,0,-2,-1,0
1513229265700598,-1,-3,-4,-2,-2,-2,-1,-4
1513229265701598,1,-1,-2,-2,-1,-1,-1,-2
1513229265701598,-3,-2,-1,-1,-1,-2,-1,-1
1513229265730612,-6,2,1,1,-2,-1,-2,-4
1513229265730612,-1,-4,-2,0,-1,-1,-1,-1
1513229265731610,1,-1,-3,-1,0,0,0,-2
1513229265731610,-1,-1,-1,-1,-2,-1,0,0
1513229265738114,0,-3,-2,0,-1,-1,0,0
1513229265738114,1,1,4,0,-1,-1,1,1
1513229265739116,-4,-1,1,0,1,0,-2,-2
1513229265739116,2,-1,0,-2,-2,3,0,0
1513229265760656,-2,-2,0,-2,0,-1,-2,-1
1513229265760656,-3,-1,-1,1,-1,-2,-1,-1
1513229265761636,-3,-2,-1,0,-2,0,2,0
1513229265761636,0,-1,-1,-2,-2,-3,-1,1
1513229265775142,0,-2,-1,0,-2,0,-2,-1
1513229265775142,1,-1,-3,-1,-1,1,-1,-2
1513229265775642,-1,-3,-5,-2,-1,-1,-2,-1
1513229265775642,0,0,-1,-2,-2,-3,0,-3
1513229265798157,-4,-3,-2,-1,0,0,1,-1
1513229265798157,0,-1,-2,-3,2,0,-3,0
1513229265799158,-1,-2,1,-3,-2,-1,0,-1
1513229265799158,-1,1,-1,-1,-1,-1,-1,-1
1513229265820673,2,-3,-4,-2,-2,-1,-1,0
1513229265820673,-8,-2,1,2,-1,0,1,-4
1513229265821673,-1,0,-2,-1,0,-1,0,0
1513229265821673,-2,-2,-1,0,0,-1,-2,0
1513229265835683,0,-2,-1,0,-3,-3,-1,0
1513229265835683,-2,-3,-2,-1,-1,1,0,1
1513229265837184,1,1,2,0,-1,-3,-2,-1
1513229265837184,-1,-2,0,0,-1,1,-2,-2
1513229265858199,-2,-1,-1,-1,-1,-1,-1,-2
1513229265858199,3,-2,-3,-2,-2,-4,-3,1
1513229265859200,1,0,-2,1,0,-1,-1,0
1513229265859200,-1,-2,-3,-2,0,-1,-1,-1
1513229265880732,0,-3,0,-1,0,-1,1,0
1513229265880732,-3,0,1,-1,-1,0,-1,-1
1513229265881737,0,-2,0,0,-1,-1,-2,-2
1513229265881737,-2,2,1,1,1,-2,1,-1
1513229265895240,2,1,-1,-3,-2,-2,-2,0
1513229265895240,-1,0,-1,-2,-2,-1,0,-1
1513229265895725,-1,1,-2,-1,-1,-1,-3,-2
1513229265895725,-2,-2,-1,1,-2,-2,0,-1
1513229265918243,-2,-1,1,-2,0,-2,0,-1
1513229265918243,3,0,-4,0,-1,-2,-2,-1
1513229265919242,-2,-2,-1,-2,-1,-2,-1,0
1513229265919242,-1,-4,-1,0,0,2,-2,0
1513229265940761,-1,0,-3,-2,-1,0,-1,0
1513229265940761,-1,-3,-2,0,-2,-1,-1,-2
1513229265941758,0,-2,-1,-2,-1,0,-1,-1
1513229265941758,-2,-1,-1,-1,0,-1,-1,-3
1513229265955768,-4,-3,0,0,0,0,0,0
1513229265955768,-3,-3,0,-1,0,0,0,-2
1513229265956269,0,-1,-1,-1,-2,0,-2,-1
1513229265956269,0,-2,-3,-2,0,-2,0,-1
1513229265978287,-1,-1,-1,-1,-2,0,-1,1
1513229265978287,-1,-1,-2,-1,0,-1,0,-1
1513229265978785,-4,1,1,-1,-2,-3,-1,-1
1513229265978785,0,-1,-1,-1,-2,0,-1,-1
1513229266008305,-1,1,-1,-1,-1,-1,-2,-2
1513229266008305,-3,1,0,-1,-1,0,-2,-1
1513229266008806,1,1,-1,0,0,-1,-1,-1
1513229266008806,0,0,-1,0,0,0,0,1
1513229266014853,0,1,-1,-1,-2,0,-3,-3
1513229266014853,0,0,-2,-2,-1,-1,1,0
1513229266015855,0,-2,-2,-1,-2,-1,-2,-1
1513229266015855,-2,-2,1,-1,-1,-2,-2,-1
1513229266038355,-1,-1,0,0,-1,-1,0,-2
1513229266038355,2,-2,-1,-2,0,-1,-1,-2
1513229266038856,-7,1,2,0,-1,-1,0,-2
1513229266038856,-1,-3,-4,-3,-1,-2,-2,-2
1513229266060873,-2,-1,-2,-2,0,-3,-3,-1
1513229266060873,-2,-1,-1,1,-1,-1,-2,-2
1513229266061372,1,-4,-2,-1,1,0,0,-1
1513229266061372,-1,-2,0,-1,-1,0,0,-2
1513229266074895,-1,-2,-2,-1,0,-2,-2,-1
1513229266074895,-1,1,-1,-4,-2,-2,-1,0
1513229266075882,-1,-3,-3,-2,-1,-2,-1,2
1513229266075882,-1,0,1,0,0,-2,0,-2
1513229266098410,1,-1,0,-1,-1,0,-1,-2
1513229266098410,-2,-1,1,-1,0,-2,-1,0
1513229266098898,0,-1,-1,-1,-2,-1,0,-2
1513229266098898,-3,0,-2,-2,-2,-1,0,-2
1513229266128429,-3,-1,0,0,-1,-1,0,-1
1513229266128429,-1,-2,-1,0,-1,-1,0,-1
1513229266128922,-2,-2,0,-1,1,0,-3,-2
1513229266128922,-2,-3,-2,-1,-1,-2,-2,-1
1513229266135425,0,-2,-2,-3,-1,-1,-2,1
1513229266135425,0,1,0,-1,-1,-2,-3,-1
1513229266136424,1,0,-2,-2,0,-2,-1,0
1513229266136424,-1,1,0,-1,0,-1,0,-1
1513229266157940,-1,-1,-2,0,-1,-1,-1,-1
1513229266157940,1,-2,-3,-1,0,-1,-1,1
1513229266158941,-8,0,0,0,-1,0,0,-4
1513229266158941,0,-1,-1,-1,-2,-3,-3,0
1513229266180459,-3,-2,0,0,0,0,1,-1
1513229266180459,-1,-1,0,-1,0,-1,1,0
1513229266181457,2,-2,-2,-2,-2,0,-1,3
1513229266181457,-4,-2,-1,-1,-1,2,2,-2
1513229266195466,-1,-3,-3,-2,-1,-1,0,-1
1513229266195466,-1,-1,-1,0,-1,-1,1,0
1513229266196467,-2,-1,-2,0,0,0,-1,-3
1513229266196467,0,-1,-1,-1,-1,-2,-2,0
1513229266218482,-1,-2,-3,-1,-2,-1,-1,-2
1513229266218482,-4,-4,-1,-2,-1,1,0,-1
1513229266218983,1,-1,-1,-2,0,-1,0,-1
1513229266218983,0,-1,0,-4,-2,-1,-1,0
1513229266240499,1,0,1,0,-1,0,-1,-1
1513229266240499,0,0,-1,0,-3,1,-1,-1
1513229266241499,0,-3,-1,-1,0,0,-1,-1
1513229266241499,0,-2,-2,-1,-2,-2,-2,-1
1513229266254509,1,-1,-3,0,-1,-1,1,-1
1513229266254509,-4,-1,-1,-1,-1,-3,-1,-2
1513229266262514,0,1,-1,-1,0,-1,-1,0
1513229266262514,1,0,-1,-1,0,-2,-1,0
1513229266278035,-1,-2,0,-3,-2,-3,0,1
1513229266278035,-2,-3,-1,-1,1,0,-1,0
1513229266279025,-1,-1,0,1,-2,-1,0,1
1513229266279025,-2,-2,-1,1,0,-1,0,-1
1513229266300597,-3,-1,-3,-2,0,-1,-2,-2
1513229266300597,1,0,-2,0,-1,-2,-2,0
1513229266301600,3,-1,-1,-2,-2,-1,0,-1
1513229266301600,-1,-1,-1,0,-1,-1,0,-2
1513229266314120,-2,1,4,2,2,1,-2,-1
1513229266314120,1,0,-3,0,-1,-1,-1,-1
1513229266322623,0,-3,-6,-2,-1,-2,-2,0
1513229266322623,-2,1,-5,-1,-1,0,-2,-2
1513229266338121,0,0,-2,1,0,-1,-3,-2
1513229266338121,0,1,0,0,-1,-2,-1,-1
1513229266339123,-2,1,2,-1,-3,-1,-1,0
1513229266339123,-1,-1,0,-2,-1,0,-2,-1
1513229266368154,-1,-1,0,-1,-2,-2,0,0
1513229266368154,2,-3,-4,-2,-3,0,0,-1
1513229266369145,-4,-2,0,-1,0,-2,1,-3
1513229266369145,-1,-3,0,0,0,-1,-1,0
1513229266374146,0,-1,-2,-3,-1,-1,1,-2
1513229266374146,0,-1,-2,-2,-2,-2,-2,-2
1513229266390181,-3,0,-2,-1,-1,-2,-1,-2
1513229266390181,0,0,-2,0,-2,0,-1,-3
1513229266397174,4,-1,-4,-2,-2,-2,-3,-1
1513229266397174,-3,0,2,0,-2,-1,-1,-1
1513229266405179,0,1,0,-2,1,-2,-2,-1
1513229266405179,-3,-1,-1,-2,-2,-1,0,0
1513229266420679,-1,-2,-3,-2,-1,0,1,0
1513229266420679,-3,-2,-2,-2,0,1,-1,-1
1513229266422180,-1,0,-3,0,-1,0,-2,-2
1513229266422180,-1,-3,-1,-2,-1,-3,-3,0
