timestamp,emg1,emg2,emg3,emg4,emg5,emg6,emg7,emg8
1513481665585563,0,0,-2,-1,-3,-2,-2,-2
1513481665585563,-2,-1,-1,0,-5,1,1,0
1513481665586564,-2,-2,-2,0,-1,-1,-2,-2
1513481665586564,0,-2,-2,0,0,-1,-2,-2
1513481665609582,-2,-1,-3,-2,0,0,-2,0
1513481665609582,-4,-1,0,-1,-1,-2,3,-3
1513481665609582,0,1,-1,-1,-1,-2,-2,-2
1513481665609582,-1,-3,-2,-1,1,-2,-2,2
1513481665631599,-1,-2,-1,-1,-2,-1,-1,0
1513481665631599,-4,0,-1,0,-5,1,-1,-2
1513481665632597,-3,-3,1,-1,-2,1,-1,-3
1513481665632597,-1,-1,-1,-2,2,-1,-2,-3
1513481665645610,0,-2,-1,0,-3,-1,2,-3
1513481665645610,0,-1,0,-2,-4,0,1,2
1513481665646613,-1,-1,0,0,-1,-2,-2,0
1513481665646613,-1,-1,-3,-1,0,0,-2,-3
1513481665668632,-1,-2,-1,0,0,-1,-1,-1
1513481665668632,-5,-1,-1,0,-4,-3,5,-3
1513481665669623,-3,-1,-2,0,-2,-2,1,0
1513481665669623,0,-4,1,-2,3,-1,-4,-2
1513481665691644,-2,-1,-1,-2,-1,-1,-2,-2
1513481665691644,-5,1,0,-2,-3,-1,2,-2
1513481665692641,-1,0,-1,-1,-1,0,0,0
1513481665692641,-3,0,-2,-2,1,-2,-3,0
1513481665705647,0,-1,-1,-2,-3,-3,0,-2
1513481665705647,1,-1,0,0,-3,-1,3,-2
1513481665706648,1,1,-1,0,-2,-2,1,1
1513481665706648,1,-2,-2,-2,1,0,-2,-3
1513481665728665,-1,0,0,-1,-2,0,-3,-1
1513481665728665,-1,-2,-1,1,-3,-1,0,-2
1513481665729667,0,-1,-1,0,-1,2,0,0
1513481665729667,4,-1,0,0,1,-2,-4,-1
1513481665751680,-1,-1,-2,-2,0,-2,0,-1
1513481665751680,-3,0,0,1,-4,0,3,0
1513481665752693,-1,-3,1,-1,1,-1,-2,-2
1513481665752693,-1,-1,-2,-3,2,1,-3,-2
1513481665765700,-4,-1,-1,-2,-4,0,1,0
1513481665765700,-3,1,-1,-1,-4,1,-1,-1
1513481665766691,-1,-1,-2,0,-1,-2,-3,-2
1513481665766691,-1,-3,0,0,-1,-2,-4,2
1513481665788765,-4,-2,-2,-3,-1,0,-1,0
1513481665788765,-1,-1,-1,-2,0,-1,2,0
1513481665789743,-1,0,-2,-1,-2,-3,1,0
1513481665789743,2,-4,-2,-2,1,1,-3,0
1513481665811760,-1,-2,-2,-2,0,-2,0,-2
1513481665811760,-3,1,0,0,-4,0,1,-1
1513481665812759,-1,1,0,-3,-1,-2,-1,-2
1513481665812759,0,0,-4,-1,1,-2,-2,1
1513481665825769,1,-1,-1,-2,-4,-2,2,-1
1513481665825769,-3,-1,0,0,-4,-1,-2,-2
1513481665827787,-2,-1,-1,-1,-1,0,-4,0
1513481665827787,-1,-2,-2,-2,-1,-2,1,0
1513481665848795,1,0,0,-1,0,-1,-3,-3
1513481665848795,-2,1,-1,-1,-4,-2,0,-1
1513481665849785,2,-1,-1,-1,0,-1,-1,-1
1513481665849785,0,-1,0,-3,0,-2,0,1
1513481665871810,-1,-2,-2,-1,1,-2,0,0
1513481665871810,-1,0,-1,0,-3,1,-1,0
1513481665872801,1,-1,-2,-1,0,-1,-3,-3
1513481665872801,-2,-1,-3,-2,1,0,-3,-2
1513481665885833,-3,-2,-1,0,-2,0,-1,-2
1513481665885833,0,0,-2,-1,-3,-3,-1,-2
1513481665886811,-1,-1,-1,0,-1,-2,-3,0
1513481665886811,2,-3,-3,-1,1,0,-4,-1
1513481665908827,-3,-3,-1,0,-1,0,0,-2
1513481665908827,1,-1,-1,2,-2,-2,2,-4
1513481665909832,1,-1,0,0,0,0,-2,-2
1513481665909832,0,-1,-2,-3,0,-3,-3,1
1513481665931852,-4,1,-1,-3,-2,-1,0,-3
1513481665931852,-2,-1,-1,0,-2,0,0,-1
1513481665931852,1,0,-1,-1,0,1,-3,-2
1513481665931852,-1,-1,1,-3,1,1,-4,-1
1513481665945862,0,-1,0,-1,-1,-2,-3,2
1513481665945862,-2,-1,0,1,-3,-2,0,0
1513481665946854,0,-1,-2,1,0,-1,-1,2
1513481665946854,-1,-1,-2,-1,2,-1,-1,-3
1513481665968870,0,-1,-2,-1,-1,0,2,1
1513481665968870,-1,-1,-2,-1,-2,-2,0,-3
1513481665969870,1,-2,-1,-1,2,0,-3,0
1513481665969870,3,-5,-1,-2,1,-2,-3,-1
1513481665991889,-2,0,0,-4,-1,-2,0,-1
1513481665991889,-3,-3,-2,1,-4,-3,1,2
1513481665991889,-4,-2,-2,0,-1,1,-1,-4
1513481665991889,0,0,-2,-3,0,-3,-2,1
1513481666005944,-2,-2,-1,-2,-3,2,0,-2
1513481666005944,-2,1,1,-1,-4,1,0,0
1513481666007910,-1,-1,-1,-1,-1,-1,-1,0
1513481666007910,-3,-2,-1,-2,3,-2,-5,-2
1513481666028919,-2,-2,-1,-2,-1,-1,0,0
1513481666028919,1,2,-1,-1,-4,0,2,-1
1513481666029912,-4,-1,0,-1,-2,-2,2,2
1513481666029912,1,-3,-1,-1,0,0,0,-1
1513481666051929,-1,-1,-2,1,-1,-2,-2,0
1513481666051929,-5,0,0,0,-1,-1,1,-3
1513481666052928,-1,-1,-1,-1,0,-1,-1,-2
1513481666052928,0,-1,-3,-2,1,-1,0,0
1513481666064949,-3,1,-2,-1,-4,0,1,0
1513481666064949,-2,0,-1,0,-4,0,-1,0
1513481666073944,0,-1,-1,-1,0,0,-1,-1
1513481666073944,-2,-2,-2,-3,2,-1,-2,-1
1513481666089012,-1,-2,0,-1,-1,-1,0,-1
1513481666089012,-1,0,-1,-1,-1,-2,1,-1
1513481666090955,-1,-1,2,0,0,-1,0,1
1513481666090955,-3,-1,0,-1,1,-1,-2,1
1513481666111970,0,-2,-1,0,-3,-1,0,-4
1513481666111970,1,2,-5,0,-3,-1,2,-4
1513481666112975,-1,-2,-1,1,2,0,-4,1
1513481666112975,0,0,14,-2,-4,-2,1,0
1513481666124981,-2,0,-1,1,-1,0,-1,-2
1513481666124981,-5,0,4,-1,-6,0,-1,1
1513481666133986,2,0,-7,1,1,-1,-2,-2
1513481666133986,0,-1,-6,-2,1,-2,-2,-4
1513481666149009,-4,-1,0,-2,-3,-2,2,-1
1513481666149009,-1,1,-2,0,-3,0,-2,-1
1513481666151009,-1,0,-1,-3,0,-1,-2,-2
1513481666151009,0,-3,-4,-1,-1,-3,-2,-2
1513481666171115,-2,-1,-1,-3,-2,0,-1,-3
1513481666171115,-4,-2,0,0,-3,-3,1,-3
1513481666173091,-1,-2,-2,-1,-2,-3,-3,2
1513481666173091,-2,-2,-2,-2,-1,0,-2,0
1513481666185102,1,-1,-5,0,-6,0,-2,1
1513481666185102,-3,1,2,-2,-3,-1,3,-2
1513481666194154,0,-2,1,0,0,-3,-3,-1
1513481666194154,1,-2,-2,-1,0,-1,-6,-1
1513481666209164,0,-1,0,-2,-1,0,1,-2
1513481666209164,2,-3,-1,0,-3,-1,-4,2
1513481666211154,1,0,-1,0,-2,-2,-1,-2
1513481666211154,-2,-3,-3,-2,1,-2,1,0
1513481666231168,-3,-2,-2,0,-1,-2,2,-1
1513481666231168,-1,2,0,-1,-6,-2,1,-2
1513481666233179,-2,0,-1,0,-1,-1,-2,-1
1513481666233179,0,-2,-3,-2,-1,-1,-2,-1
1513481666245174,-2,-1,1,-1,-3,-1,0,-3
1513481666245174,-2,-1,0,1,-1,0,1,0
1513481666254194,0,-1,-1,-1,-1,2,-5,-1
1513481666254194,1,-1,-1,-3,0,1,0,-2
1513481666269201,-3,-2,-3,0,-3,-1,0,0
1513481666269201,-1,1,-2,1,-3,0,-1,0
1513481666271193,-1,-1,-2,-1,1,1,-2,-3
1513481666271193,-2,-2,-2,-3,2,0,-2,0
1513481666291216,-1,-1,-1,0,1,-1,3,-1
1513481666291216,-2,0,1,-2,-3,-1,0,-4
1513481666293208,0,-3,0,-1,1,-5,-3,0
1513481666293208,-3,0,-3,-1,-1,1,-2,-2
1513481666305238,-1,-2,-2,-1,-1,-3,-1,1
1513481666305238,-2,0,-3,-1,0,0,-4,-1
1513481666314223,2,-2,-2,-1,0,-2,0,-1
1513481666314223,3,-3,-3,-2,0,-1,-3,0
1513481666329234,-2,-1,-1,0,-3,-1,2,0
1513481666329234,-2,0,-2,-1,-1,0,2,-1
1513481666330235,2,-1,-1,0,0,0,-4,-1
1513481666330235,0,-4,-2,-2,2,-3,-2,-1
1513481666351263,-3,-2,-2,-2,-4,0,-1,-3
1513481666351263,0,-2,0,2,1,-2,2,1
1513481666353256,0,-1,0,0,0,0,1,0
1513481666353256,-1,0,-2,-2,1,-2,-4,-1
1513481666365272,-3,0,0,-1,-4,-3,-3,-1
1513481666365272,-2,0,0,1,-2,0,-1,-3
1513481666374267,1,0,-2,-3,0,-2,-3,3
1513481666374267,1,-2,0,-2,-1,-2,0,0
1513481666389293,0,-3,-2,-4,0,0,-1,-1
1513481666389293,-3,1,0,-1,-2,-1,-2,1
1513481666390285,-2,-2,-3,0,-2,-1,1,-2
1513481666390285,0,-3,-2,0,-1,-2,2,0
1513481666411293,-4,0,-2,-2,-5,-3,0,-2
1513481666411293,0,-2,1,-1,0,1,0,-1
1513481666413297,1,2,-1,-2,0,0,-3,-1
1513481666413297,-4,-1,-1,-1,-1,-1,-2,-3
1513481666425323,-2,-1,0,0,-2,-2,-1,0
1513481666425323,-2,-3,-2,0,-3,-2,-2,2
1513481666434328,2,-2,0,-1,-1,0,-2,0
1513481666434328,-2,0,-1,-2,1,-2,-1,-2
1513481666448319,-4,-1,-1,0,-2,0,-2,0
1513481666448319,-1,0,0,-2,-4,1,2,-1
1513481666455350,0,-3,-2,-3,4,-1,-2,0
1513481666455350,-2,-2,-2,-1,-1,-1,-1,0
1513481666471356,0,-2,-1,-3,-2,-1,1,-1
1513481666471356,-1,2,-2,0,-2,-2,1,-2
1513481666473336,0,-2,0,1,-1,-2,-1,0
1513481666473336,1,-2,-2,-1,0,-1,-2,-1
1513481666494363,-4,1,-2,0,-2,-1,1,1
1513481666494363,0,-1,-1,1,-1,-1,-3,-3
1513481666495356,1,0,-2,-2,0,-2,-5,1
1513481666495356,-1,0,-2,-3,-1,-2,-3,0
1513481666509363,-3,0,-2,-1,-3,1,0,-3
1513481666509363,-1,-2,-1,0,-2,1,-2,-1
1513481666510374,-2,-3,-2,-1,2,-1,-3,-1
1513481666510374,-1,-2,-1,-3,3,0,1,-1
1513481666531377,-4,1,-1,-2,-3,-1,2,0
1513481666531377,-2,-1,0,0,-3,-3,2,0
1513481666533412,-1,-2,-1,1,3,0,-2,0
1513481666533412,-3,0,-2,-3,-2,-2,-1,-2
1513481666554407,-4,-3,-1,0,-3,0,3,-2
1513481666554407,0,-2,-1,0,-1,-1,-3,-1
1513481666555395,3,-1,-1,-2,2,-1,-5,-1
1513481666555395,-1,-2,-1,0,0,-2,-2,-2
1513481666568421,-4,0,-2,-2,-4,-1,2,-4
1513481666568421,-4,-1,-1,-1,-4,0,-1,-1
1513481666575416,3,-2,-1,-1,-2,-2,-2,-2
1513481666575416,0,-2,-1,-1,0,-1,-2,1
1513481666591423,-5,0,-2,-2,-2,-1,-1,-3
1513481666591423,-3,-1,0,0,-3,0,1,-1
1513481666593421,2,0,-2,-3,3,-2,-2,-2
1513481666593421,0,-1,-1,-3,-1,-1,-1,-2
1513481666614437,-1,-2,0,-2,-3,-2,0,1
1513481666614437,0,1,0,0,1,-2,-2,-1
1513481666615439,0,-4,-2,0,3,-1,-5,0
1513481666615439,-3,-1,-2,-2,-1,-1,2,-3
1513481666628455,-2,-2,-1,-1,-4,-2,2,-2
1513481666628455,-2,0,-3,-1,-2,0,0,1
1513481666635453,2,-1,0,-2,-1,-1,-3,1
1513481666635453,-4,-2,-3,-2,0,1,-1,-1
1513481666651474,-1,1,-2,0,-4,-3,2,-2
1513481666651474,0,2,0,-1,2,-2,0,-1
1513481666653480,-4,-1,-3,-1,-1,0,-2,-3
1513481666653480,1,-2,1,-2,-1,1,-3,0
1513481666673486,-4,-1,0,-1,-2,1,1,1
1513481666673486,3,0,-1,-1,-2,-2,-1,2
1513481666675492,2,-2,-1,-1,1,-2,-1,1
1513481666675492,0,-2,-1,-3,-2,-1,-2,0
1513481666688491,-4,0,-2,0,-6,-1,3,-1
1513481666688491,-1,-1,2,-2,-2,-1,-3,-2
1513481666695505,1,0,-1,-2,3,-2,-1,0
1513481666695505,1,-2,-2,-2,1,-2,-2,-2
1513481666711516,-5,0,-1,0,-1,-1,1,-1
1513481666711516,-1,-1,0,-1,-2,-2,-2,-3
1513481666713506,3,-1,0,-1,3,-1,-3,1
1513481666713506,-4,-2,-1,-2,-3,-3,-1,0
1513481666734526,-3,0,0,-1,-3,-3,0,-2
1513481666734526,-1,-2,-1,1,-1,0,-2,0
1513481666735521,1,-3,-1,0,1,0,-5,0
1513481666735521,1,-2,-3,-3,0,-2,0,3
1513481666747537,-5,-1,2,0,-5,0,0,-3
1513481666747537,-1,0,-1,-1,-4,-1,1,1
1513481666756537,3,-1,-1,0,0,-1,-1,-2
1513481666756537,-3,-2,-2,-1,-2,-1,0,-2
1513481666771604,-5,1,0,0,-3,1,2,-1
1513481666771604,-3,1,-1,0,-2,-1,2,1
1513481666773559,-1,-1,1,-1,0,1,-4,-3
1513481666773559,-1,-2,0,-1,-1,-1,1,-2
1513481666793563,-1,-1,0,-2,-3,-1,2,-3
1513481666793563,-1,-3,-2,1,-2,0,-1,-2
1513481666795571,1,0,-1,-2,4,-2,-4,-1
1513481666795571,0,-3,-2,0,0,-1,-2,0
1513481666808595,1,-1,-1,1,-5,-1,0,0
1513481666808595,-1,0,-1,-2,1,-2,-3,-1
1513481666815583,3,-1,-2,-2,3,-1,-8,0
1513481666815583,-3,-1,0,-3,-3,0,-2,0
1513481666831589,-3,-2,-1,-2,-2,-1,3,-1
1513481666831589,-1,-2,-2,-1,-2,-2,1,-2
1513481666833591,2,-3,-2,-2,1,-2,-4,0
1513481666833591,-4,-1,-3,-3,-1,-2,0,-2
1513481666853609,-4,1,1,-1,-4,0,3,0
1513481666853609,-2,-1,-1,-1,-2,-1,3,-2
1513481666855607,-1,1,-1,-1,0,-2,-1,0
1513481666855607,-1,-3,-2,2,-3,0,-1,-3
1513481666868632,-3,1,0,0,-3,0,0,0
1513481666868632,2,0,2,2,1,1,-3,-4
1513481666875623,2,-2,-1,-2,2,-3,-2,0
1513481666875623,-4,-1,-1,-2,-1,-2,-3,-2
1513481666892641,-4,-1,-4,0,-2,-1,2,-1
1513481666892641,-2,0,-1,0,-3,1,-5,1
1513481666893632,2,-4,-2,-1,2,2,-3,0
1513481666893632,0,-2,-2,-2,2,-2,1,1
1513481666913651,-2,-1,0,-2,-5,-1,0,-5
1513481666913651,-3,-1,0,-1,1,0,-3,-2
1513481666915648,0,-2,-1,-3,1,-3,-4,-1
1513481666915648,-4,-1,-2,-4,-1,-1,4,-1
1513481666928670,-2,0,-1,0,-4,1,2,-2
1513481666928670,-1,-2,-1,0,-2,-2,-1,0
1513481666934697,-1,-2,-1,-3,0,-1,1,0
1513481666934697,0,1,1,-1,-3,0,-2,-1
1513481666951725,-2,0,0,0,-7,-1,2,0
1513481666951725,3,-2,-2,0,-2,-1,1,-1
1513481666952712,1,0,-1,1,0,0,-4,0
1513481666952712,0,-1,1,-1,-3,-1,0,-3
1513481666973748,-4,-1,-1,-1,-5,0,1,0
1513481666973748,-3,0,-2,0,-3,-2,-1,-1
1513481666975730,-1,-3,-2,0,1,0,-4,-3
1513481666975730,-2,-1,-2,0,0,1,-2,-1
1513481666987762,1,0,-1,1,-2,0,-1,0
1513481666987762,1,-1,0,-1,1,-2,-1,-2
1513481666996747,1,0,-1,-2,3,0,-4,-1
1513481666996747,-2,0,-1,-2,1,-2,-3,-1
1513481667011769,-3,-2,-2,-1,-4,-1,-2,-3
1513481667011769,-1,0,0,-1,-1,-1,-2,1
1513481667012769,2,-2,-1,-2,2,-1,-1,-2
1513481667012769,-2,-3,-3,0,1,-2,-1,-2
1513481667033784,-3,-1,1,-1,-3,-2,-1,2
1513481667033784,-1,-1,-1,0,-3,0,0,-1
1513481667036790,2,-1,-1,-2,0,0,-6,-2
1513481667036790,-1,-2,0,-2,-1,-1,1,0
1513481667056786,-4,0,-1,-1,-4,-2,4,-3
1513481667056786,0,1,0,1,-2,-1,-1,1
1513481667057786,-1,-1,-2,0,3,-2,-2,1
1513481667057786,1,-1,-1,0,-4,1,1,-2
1513481667071796,-4,1,-1,1,-3,-3,4,-1
1513481667071796,0,-8,-2,0,0,-2,-2,-3
1513481667072797,-3,6,-1,-1,1,2,-1,-1
1513481667072797,0,1,-1,-4,0,-1,-2,0
1513481667093812,-4,2,-1,1,-5,-1,1,-1
1513481667093812,-1,-1,-2,-1,1,3,-1,-2
1513481667095814,6,-6,-2,-3,3,-3,-4,0
1513481667095814,-2,1,-2,-1,-1,-1,0,0
1513481667108826,-1,1,0,-2,-3,-1,-1,-2
1513481667108826,-1,0,-1,-1,1,-1,-2,-1
1513481667116828,0,-4,-2,-3,0,-4,-4,2
1513481667116828,0,-2,-2,-3,0,0,-2,-2
1513481667131839,-5,-1,-1,-1,-1,0,3,-2
1513481667131839,-1,1,0,0,-2,0,0,-1
1513481667132839,-1,-3,-2,-1,0,-2,-2,-2
1513481667132839,-3,-3,-2,0,-3,-2,0,-2
1513481667153855,-2,0,0,0,-5,-2,2,-1
1513481667153855,-2,2,0,1,-2,0,4,0
1513481667155856,1,-2,-2,-1,4,-1,-1,1
1513481667155856,-3,-3,0,0,-2,-1,-1,1
1513481667167865,-4,-1,1,0,-3,-2,1,-2
1513481667167865,-1,0,0,-1,-4,0,-1,-1
1513481667176871,1,-2,-1,-2,1,0,-5,-3
1513481667176871,0,-1,-1,-1,-1,0,0,-3
1513481667191896,-5,1,0,1,-2,0,2,-2
1513481667191896,-1,0,-2,-3,1,-1,-3,1
1513481667192884,-3,0,-2,-1,4,0,-3,-1
1513481667192884,-3,-1,-2,-3,0,-1,-2,-2
1513481667213900,-2,0,-2,-3,-5,0,1,0
1513481667213900,-3,-2,-1,1,0,0,-2,-1
1513481667215908,2,-4,-1,-2,1,0,-6,-2
1513481667215908,-1,-2,-2,-4,-1,-2,0,-1
1513481667227919,-1,0,0,0,-3,0,1,0
1513481667227919,0,2,-1,-1,-2,-1,-1,-1
1513481667236935,0,-3,-2,-1,0,-2,-2,0
1513481667236935,1,-2,-1,0,-3,-2,1,-3
1513481667251923,-2,-3,-1,-1,-4,0,3,-2
1513481667251923,0,0,0,2,-2,-2,1,-1
1513481667252924,-4,-2,0,-1,0,-1,-2,1
1513481667252924,-2,-3,-2,1,0,-1,-1,-2
1513481667273961,-3,0,1,-1,-4,-1,0,0
1513481667273961,1,0,-2,0,-2,-1,-2,-3
1513481667275952,2,-1,-3,-2,3,-2,-3,-1
1513481667275952,0,-1,0,-2,-2,-2,-1,1
1513481667287968,-1,-2,0,0,-4,-1,1,-1
1513481667287968,-2,-3,-1,-1,-1,0,-1,-1
1513481667296965,0,-1,-2,-2,1,-1,0,1
1513481667296965,-1,-1,0,-2,-1,-1,-3,0
1513481667311975,-3,1,-1,0,-4,-1,2,-2
1513481667311975,2,-1,-1,-2,1,-3,0,-4
1513481667312967,-2,-2,-2,-2,-2,-1,-3,-3
1513481667312967,-1,-1,-2,-2,0,-3,0,-3
1513481667333986,-4,0,0,1,-4,-2,-1,0
1513481667333986,-3,-2,1,-1,0,-2,0,2
1513481667335998,-2,-1,-2,-1,1,0,-1,0
1513481667335998,-1,0,-2,1,-2,0,0,-3
1513481667356998,0,2,0,0,-3,1,-2,-4
1513481667356998,2,1,-1,-1,-2,-1,-5,1
1513481667357999,1,-2,0,-2,3,-2,-3,-2
1513481667357999,-2,-1,-1,-1,-3,-1,-1,1
1513481667371033,-1,-3,-2,-1,-3,0,0,0
1513481667371033,-2,-1,0,-1,1,-2,-1,0
1513481667373010,5,0,-2,-3,1,-1,-4,1
1513481667373010,-3,-2,-1,-2,-2,0,-2,2
1513481667394037,-2,-1,-2,-3,-3,0,2,1
1513481667394037,-2,1,0,-2,-1,0,0,0
1513481667396034,0,-1,0,0,0,-2,-4,-1
1513481667396034,-2,-2,-1,-2,-2,0,1,2
1513481667416049,-2,-1,-2,-1,-4,-3,-2,-4
1513481667416049,-1,-1,-1,0,-1,-1,-1,-1
1513481667418041,0,-1,-2,-3,1,-3,0,-2
1513481667418041,0,-1,-2,-1,-1,-1,1,-1
1513481667431113,-2,-1,0,3,-2,-2,3,-1
1513481667431113,-1,0,-2,0,-1,0,-2,-1
1513481667433108,1,-2,0,-1,1,-3,-1,0
1513481667433108,-2,-1,1,-2,-1,-2,-1,-1
1513481667454122,-1,-2,-2,0,-2,0,1,-3
1513481667454122,1,0,0,0,1,0,-2,-1
1513481667455120,1,-6,-2,0,2,-1,-1,2
1513481667455120,-2,0,-2,-1,-2,0,-3,1
1513481667476146,-3,1,-1,0,-1,-1,-1,-3
1513481667476146,1,0,-1,1,-1,-3,-6,-1
1513481667478136,0,-3,-3,-2,0,-2,0,-3
1513481667478136,-1,-1,-1,-1,-1,-2,1,-3
1513481667491155,-5,-1,1,1,-2,-1,1,3
1513481667491155,1,-1,-1,-1,-2,-1,0,-1
1513481667493147,1,0,-1,-3,0,-2,-2,-1
1513481667493147,-2,0,-2,-1,-3,-2,1,-1
1513481667514175,0,0,1,0,-4,0,1,-2
1513481667514175,-2,-1,-1,-1,0,1,-1,0
1513481667515174,-2,-3,-2,-3,1,-1,-3,-1
1513481667515174,-1,-1,-1,-3,-3,-1,0,-3
1513481667536202,-3,0,0,0,-3,-2,2,-1
1513481667536202,-1,-2,-2,0,0,0,-1,-1
1513481667538190,-2,-1,-1,-2,1,-1,-2,-3
1513481667538190,-2,-4,-3,-2,-2,-2,-1,-2
1513481667551188,-3,0,-1,-2,-5,-2,0,-1
1513481667551188,1,-1,-1,-2,-2,-2,-2,-1
1513481667557212,3,0,-2,-2,0,-1,-2,1
1513481667557212,0,-1,-1,-1,0,-3,0,-1
1513481667574207,-2,-2,-3,3,-2,0,0,0
1513481667574207,-4,-1,0,-1,-1,-2,0,0
1513481667575207,-3,-1,-2,-3,0,-2,-4,-1
1513481667575207,-1,-2,-1,-1,-1,0,-1,-4
1513481667596222,-3,1,0,-2,-2,1,0,0
1513481667596222,-1,-1,0,0,0,0,0,-2
1513481667598220,0,-3,-3,-1,2,-2,-3,0
1513481667598220,1,-3,-1,-3,1,1,0,0
1513481667611231,0,1,0,0,-6,-2,-2,-2
1513481667611231,0,-2,-1,-2,-4,-1,-1,-1
1513481667617243,1,0,-2,-1,1,-1,-5,-2
1513481667617243,-1,-2,-1,-2,-2,-1,-2,-1
1513481667641251,-1,-1,-2,-2,-3,0,1,-2
1513481667641251,0,2,-1,-3,-1,-3,0,-1
1513481667643252,-2,-2,-3,-2,1,-1,-3,0
1513481667643252,-3,-1,-1,-1,-3,-2,0,0
1513481667656265,-2,0,1,2,-2,0,2,-1
1513481667656265,-3,0,2,1,-3,-1,4,0
1513481667658264,0,-1,1,-1,0,0,-1,-2
1513481667658264,-1,0,-1,0,-2,0,-1,-1
1513481667671293,-1,0,1,1,-2,0,0,-2
1513481667671293,-2,-1,-4,0,1,-1,-3,-2
1513481667677286,-2,-3,-1,-2,0,-1,-1,-3
1513481667677286,0,-1,-2,-1,-4,-2,0,0
1513481667694301,-2,-1,0,1,-2,0,2,-1
1513481667694301,-3,-1,1,-2,-1,-2,-2,-2
1513481667695289,0,-4,-4,-4,1,1,-1,2
1513481667695289,1,-1,-1,-1,-3,-3,2,-1
1513481667716318,-1,0,-1,0,-3,-1,1,-2
1513481667716318,-1,-2,-1,0,1,-1,-2,-1
1513481667718306,0,-3,0,-2,1,-4,-6,-2
1513481667718306,-3,-3,-1,-2,-1,1,-1,-4
1513481667730326,-3,0,-2,-1,-2,1,-1,-1
1513481667730326,1,0,-2,0,-3,0,-2,-1
1513481667738324,1,-3,-2,0,-1,0,-2,1
1513481667738324,-3,-1,-1,-2,-1,-1,1,-3
1513481667754331,1,-3,0,-2,-3,-3,-1,-2
1513481667754331,0,-2,-2,0,0,-3,-1,1
1513481667755332,0,-1,-3,-1,-1,-1,-3,1
1513481667755332,-3,-1,-1,-1,-3,0,-1,-3
1513481667776348,-2,-1,-1,0,-2,0,-1,-2
1513481667776348,0,-2,0,-3,-1,-1,-2,0
1513481667778358,1,-1,-2,-1,0,-1,-2,0
1513481667778358,-2,1,-2,-2,-4,-2,1,-1
1513481667790379,1,1,-1,-1,-2,1,-2,0
1513481667790379,-4,-3,0,1,1,0,-1,1
1513481667797371,-1,-2,-2,-2,-1,-1,-1,-3
1513481667797371,-2,-3,0,-2,-1,0,-1,-1
1513481667814386,-1,1,-2,-1,-3,-1,-1,0
1513481667814386,0,-3,-2,0,0,0,-4,-1
1513481667815374,-1,-3,-2,-2,0,-2,-3,-4
1513481667815374,-2,1,-2,0,-3,0,0,-1
1513481667836411,0,1,1,0,-2,-2,4,0
1513481667836411,0,0,2,-2,1,-1,-1,-1
1513481667838409,2,-3,-1,-2,1,-1,0,-1
1513481667838409,-1,-2,-3,0,-1,-2,-2,1
1513481667850399,-1,2,-1,-2,-2,-1,0,-2
1513481667850399,3,-1,0,0,2,1,-1,0
1513481667857462,-2,-2,0,-1,1,0,-1,-1
1513481667857462,-3,-2,1,-1,-3,-1,-1,1
1513481667874461,-4,0,-1,1,-2,0,-1,-1
1513481667874461,-1,-2,-1,-1,-1,-4,-4,-1
1513481667875420,-2,-1,-2,-2,1,0,-3,1
1513481667875420,-2,-1,-1,0,-3,-2,2,-2
1513481667896441,-5,0,-1,0,-4,0,0,-1
1513481667896441,1,-1,-1,-1,1,-2,0,-1
1513481667898442,-2,-2,-2,-1,-1,-2,1,-2
1513481667898442,-1,-1,-1,-1,-3,-1,-1,-2
1513481667910443,0,0,0,0,1,-1,0,-1
1513481667910443,-1,-3,-2,-3,-1,-1,-1,0
1513481667919451,-2,-3,-2,-2,-3,0,-1,-2
1513481667919451,-3,0,-1,-2,-2,-1,0,-1
1513481667934481,-1,0,0,-1,-2,-2,-3,-4
1513481667934481,1,-1,-3,-1,1,2,0,0
1513481667935463,0,-1,-1,-2,0,-2,-1,0
1513481667935463,-3,-1,-1,-1,-2,-1,0,1
1513481667956530,0,-2,2,1,-2,-1,-1,3
1513481667956530,1,-2,-1,-1,-1,0,-4,1
1513481667958489,0,-4,-1,-2,1,-2,-2,-4
1513481667958489,-2,-2,-1,-2,-1,-2,1,0
1513481667970510,-4,0,0,-3,-6,-1,-2,-2
1513481667970510,0,0,0,0,1,-1,-3,0
1513481667979500,0,0,-3,-2,0,-1,1,2
1513481667979500,-1,-2,-2,-1,-2,-1,1,-2
1513481667993510,1,0,1,2,-1,-2,-1,-1
1513481667993510,0,0,0,0,-2,-1,-3,-1
1513481667995503,0,-1,-1,-2,0,-1,-1,-1
1513481667995503,-2,-1,0,-1,0,-1,-1,-2
1513481668016517,-1,1,-1,-1,-2,-1,2,-2
1513481668016517,-2,-3,-2,-1,1,-2,-4,-2
1513481668018531,-3,-1,0,-2,2,-2,-3,-2
1513481668018531,0,0,-1,-1,-2,-1,-2,-1
1513481668030539,1,-1,-1,0,-4,-2,0,2
1513481668030539,-1,1,-1,-2,-1,-2,-2,-1
1513481668039550,-1,-2,-2,-4,1,1,-1,-3
1513481668039550,-1,-3,-1,-1,-4,1,2,-1
1513481668054560,-4,1,-1,-1,-1,1,-1,-3
1513481668054560,-1,-1,-2,-1,0,-2,-2,-3
1513481668055563,0,0,-1,-2,-1,-4,-1,1
1513481668055563,-3,1,1,-2,-1,-1,2,-4
1513481668076571,-2,-1,-1,0,-1,1,-1,0
1513481668076571,0,1,-1,0,0,-1,-1,-2
1513481668077570,0,-1,-1,0,0,-1,-1,-1
1513481668077570,-2,-1,-1,-1,-3,-1,1,1
1513481668090578,-2,-2,0,-2,0,-2,1,-1
1513481668090578,1,-2,-1,-2,0,0,-5,-2
1513481668099576,-3,-1,-1,-3,1,-1,-2,0
1513481668099576,-5,2,-2,-1,-4,-2,0,-3
1513481668113587,-2,-1,-1,0,-3,-2,-1,-1
1513481668113587,1,0,-2,0,1,0,-3,1
1513481668115586,-1,-3,-2,-2,0,0,0,1
1513481668115586,-2,-2,-1,-1,-5,-1,2,-3
1513481668136612,0,-2,-1,-1,0,0,1,-1
1513481668136612,3,-1,0,0,2,-1,-2,1
1513481668137614,-2,-2,-1,-2,-2,0,-4,0
1513481668137614,-1,0,-2,0,-1,-1,1,-2
1513481668150617,2,0,-1,-1,-2,0,1,0
1513481668150617,0,-2,-2,-1,1,-3,-1,-2
1513481668159621,-1,-1,-3,-1,1,0,-2,0
1513481668159621,-1,-2,0,-2,-1,0,0,-1
1513481668173645,-3,0,0,0,-3,0,0,-3
1513481668173645,2,-1,-1,-2,0,-2,-4,1
1513481668175629,-2,-2,-2,-1,-4,-2,-2,-1
1513481668175629,-6,1,-1,0,-3,-1,0,-3
1513481668196656,0,-2,0,0,0,-1,-2,0
1513481668196656,3,-2,0,-1,1,2,0,1
1513481668197645,0,-2,-2,-3,0,1,0,-3
1513481668197645,0,-1,-2,-3,-4,-2,1,-4
1513481668209653,-2,-1,-1,0,-2,-1,-1,-1
1513481668209653,2,-1,-1,-1,2,-3,-2,-2
1513481668219661,-2,0,-3,-1,2,0,-1,0
1513481668219661,-5,-1,-1,-1,-3,-1,1,-1
1513481668233670,-2,1,0,-1,-2,-1,0,-3
1513481668233670,2,-3,-1,-2,-1,-2,-3,-2
1513481668235675,-1,-2,-2,-1,-1,-4,1,-3
1513481668235675,-3,-2,-2,-1,-2,0,-1,0
1513481668256744,0,-3,1,1,0,-1,0,0
1513481668256744,0,-1,-1,-1,0,-2,-3,-1
1513481668257700,-1,-1,-2,-4,-2,-3,-1,0
1513481668257700,-2,-2,-1,0,-2,0,1,-2
1513481668269708,2,-1,-1,1,-2,0,-2,-1
1513481668269708,2,-1,0,-3,2,1,-2,-1
1513481668278715,-4,-2,0,-1,-4,0,0,-2
1513481668278715,-4,-1,-1,-1,-3,-2,-1,0
1513481668293725,0,1,-1,1,0,0,-1,1
1513481668293725,0,0,0,-1,2,-2,-4,0
1513481668295728,0,0,-1,-2,-1,-1,-1,-1
1513481668295728,0,0,0,0,-4,-1,3,-1
1513481668316749,0,-2,1,-1,-2,-1,-1,0
1513481668316749,-1,-3,-3,-1,1,-1,-3,-2
1513481668317730,-1,-1,-2,-1,2,-1,-3,0
1513481668317730,-3,0,-2,0,-2,-2,-2,-1
1513481668329740,2,0,1,-1,-2,-2,-1,-1
1513481668329740,3,-1,1,0,2,-2,-3,1
1513481668338745,1,-3,-1,-3,-2,0,1,-1
1513481668338745,-3,0,-1,-1,-3,-1,2,1
1513481668353755,-1,-1,-3,1,-1,-2,-3,0
1513481668353755,-1,-2,-2,-1,-2,0,-4,1
1513481668355769,-3,-2,-1,-2,-3,0,1,-2
1513481668355769,-5,-1,-1,-1,-3,-1,3,-2
1513481668376771,-3,1,-1,1,-4,1,-2,-2
1513481668376771,1,-1,-3,-1,0,-1,-5,-1
1513481668377772,0,-2,-2,-2,-2,-3,1,2
1513481668377772,-4,-1,0,-1,-3,-1,-1,-1
1513481668398796,-1,0,0,-3,-2,-1,1,1
1513481668398796,4,-1,-2,0,2,-1,-3,1
1513481668400789,-1,-1,-2,-1,-1,0,1,0
1513481668400789,-6,-1,-1,2,-6,1,4,-2
1513481668413798,-1,0,-2,0,-3,-1,-3,-2
1513481668413798,-4,-3,-1,-2,2,0,-3,-1
1513481668415799,0,-1,-2,-3,0,1,-1,-2
1513481668415799,-3,0,-1,-2,-3,-2,2,-3
1513481668436834,1,-1,-2,1,-1,1,-1,-2
1513481668436834,0,0,-1,-2,3,1,-1,2
1513481668437815,-3,-1,0,-2,-2,-3,2,-2
1513481668437815,-4,-1,-1,0,-6,0,1,-2
1513481668458832,2,0,0,-2,0,-1,0,-1
1513481668458832,3,1,-3,-2,1,-3,-4,-2
1513481668460843,-2,-2,-1,-1,-2,-3,-4,-2
1513481668460843,-2,-2,0,-1,-4,-1,6,0
1513481668473868,-3,-2,-2,0,-1,-1,-1,-1
1513481668473868,0,0,-2,-1,1,1,-4,-2
1513481668475858,-5,-1,-1,1,-2,-2,2,0
1513481668475858,-1,3,0,0,-4,-1,1,-1
1513481668496868,3,-1,-1,1,-1,0,-3,-2
1513481668496868,0,-5,0,0,5,-1,-5,-1
1513481668497869,1,0,-3,-2,-3,-2,-1,0
1513481668497869,-6,0,1,1,-4,-1,3,-1
1513481668517882,-3,0,-2,-3,-2,-1,0,-1
1513481668517882,2,-3,-2,-1,1,-2,-3,0
1513481668526898,1,-3,-2,-2,-1,-1,-2,-3
1513481668526898,-2,-1,0,-1,-1,1,0,1
1513481668532900,-3,0,0,-1,-1,-1,-2,-3
1513481668532900,2,-1,-3,-2,0,-2,-5,-1
1513481668540887,-1,-3,-2,0,-1,-1,-2,-1
1513481668540887,-2,1,-2,-2,-2,-2,3,0
1513481668556914,-5,0,-1,0,0,-2,-2,0
1513481668556914,0,-2,-2,-2,2,-3,-4,1
1513481668557899,-1,-1,-2,-2,-1,0,-1,-1
1513481668557899,-2,-3,0,1,-3,0,1,-3
1513481668578924,-3,0,1,0,-2,-1,-2,0
1513481668578924,0,0,-2,-2,3,-1,-1,0
1513481668580916,-2,0,-1,-2,-1,1,0,-1
1513481668580916,-2,-2,-1,-1,-6,-2,1,-2
1513481668592935,0,-1,-2,-1,-1,-3,-1,-1
1513481668592935,1,-1,-2,-1,1,-1,-4,-1
1513481668599930,2,-1,-2,-2,0,-1,-2,-3
1513481668599930,-4,2,-2,-3,-4,-2,0,-1
1513481668616940,1,0,-1,0,-1,-2,1,0
1513481668616940,2,-2,-1,-2,3,2,-2,-1
1513481668617942,0,-2,-1,-3,0,-2,-1,-1
1513481668617942,-6,-1,-1,0,-4,-2,1,-3
1513481668638979,2,-1,-2,0,0,-1,-1,-1
1513481668638979,-1,-2,-2,-2,2,-1,-2,-2
1513481668640967,-2,-1,0,-2,-1,-1,1,0
1513481668640967,-2,1,0,-1,-4,0,2,-2
1513481668652969,-3,-2,0,0,-2,-2,-3,-3
1513481668652969,4,-1,-1,-2,1,-2,-1,1
1513481668659982,-8,-2,0,-2,-2,-2,0,-2
1513481668659982,-1,0,-2,0,-5,-1,1,-1
1513481668676998,-2,0,-1,-1,0,-1,-1,-3
1513481668676998,0,-3,0,-2,0,-1,-4,2
1513481668677994,0,-2,-1,0,-4,-1,0,-1
1513481668677994,-4,0,0,0,-3,-1,1,-4
1513481668699007,-1,-1,-1,0,2,-1,0,-3
1513481668699007,2,-2,-2,-1,2,0,-1,1
1513481668701001,-1,-1,-1,-3,0,-1,0,-1
1513481668701001,-2,0,0,-1,-3,0,0,-3
1513481668713059,2,0,-1,0,0,1,0,2
1513481668713059,-2,-1,-3,-3,-1,-2,-4,0
1513481668720088,-4,0,-2,-2,-2,-2,1,0
1513481668720088,-1,-1,-1,-1,-4,1,0,-1
1513481668736097,1,0,-1,-2,-3,-2,-1,2
1513481668736097,1,-1,-1,0,3,0,-3,1
1513481668738076,-4,-1,-1,-1,-1,-1,-2,-1
1513481668738076,-5,1,-1,0,-4,-3,1,-3
1513481668759107,0,-2,0,0,0,-1,-3,-1
1513481668759107,2,-2,-1,-1,2,-1,-1,-1
1513481668760093,0,-1,-3,-1,1,-1,2,0
1513481668760093,-2,-1,0,1,-5,-2,3,-1
1513481668773102,-4,0,0,-1,-3,-1,-1,1
1513481668773102,1,-1,0,-2,0,-2,-6,-3
1513481668780106,-2,-2,-1,-3,1,1,-1,-1
1513481668780106,0,0,-1,-1,-5,-2,1,0
1513481668796118,-2,1,-2,1,-2,1,-3,0
1513481668796118,2,-1,0,-2,4,-2,-4,-1
1513481668798120,-2,0,-2,-1,-3,-1,1,-1
1513481668798120,-3,-3,-1,0,-4,-1,3,-1
1513481668819191,0,-1,1,-2,-1,-2,-1,-2
1513481668819191,-1,-4,-2,-2,1,-1,1,-4
1513481668820162,-1,-2,-2,0,0,-1,1,-3
1513481668820162,-3,1,0,0,-4,0,1,-1
1513481668833154,0,0,-1,-1,1,-2,-1,-1
1513481668833154,1,-1,-1,-3,0,-2,-2,1
1513481668840149,-1,-3,-2,-2,-1,1,1,-1
1513481668840149,-3,0,0,1,-3,-2,3,-1
1513481668856161,-1,-1,-1,1,-4,-3,-1,-3
1513481668856161,-2,-2,0,-2,1,-1,-4,-2
1513481668858162,0,-2,-1,0,-3,-1,-1,0
1513481668858162,-5,-1,0,0,-3,0,0,-3
1513481668879188,-3,-1,1,-1,-1,-1,-1,1
1513481668879188,-1,-1,-2,-3,1,0,-3,0
1513481668881178,-2,-1,0,0,-2,1,-1,1
1513481668881178,-1,-1,-1,0,-3,0,0,-1
1513481668893189,-2,-2,0,0,-2,-1,-2,0
1513481668893189,-2,-3,-3,-1,0,-1,-2,-1
1513481668901193,-4,-1,-3,-2,-1,-3,-1,0
1513481668901193,0,-1,0,0,-4,-1,1,0
1513481668916203,1,1,-1,-1,2,-1,-2,1
1513481668916203,0,0,-2,-2,1,-3,-4,-1
1513481668918205,-2,0,-2,-2,-2,-2,-2,-3
1513481668918205,-5,1,1,-1,-5,-1,1,-4
1513481668939245,1,0,-2,-1,-2,-2,0,-2
1513481668939245,-1,-1,-1,-1,1,-1,-1,-3
1513481668941221,0,-2,0,-1,-1,-1,0,-1
1513481668941221,-1,0,-1,0,-1,0,1,0
1513481668952229,1,-2,-2,-2,-2,-1,-1,-2
1513481668952229,0,-2,-1,0,0,-2,-3,1
1513481668961235,-2,-2,0,-1,-3,-1,-2,0
1513481668961235,-2,0,-1,-1,-4,-1,3,-1
1513481668976258,-1,0,-2,2,-1,-1,-4,-1
1513481668976258,4,-1,-4,-2,2,-2,-1,0
1513481668978258,-3,-1,-1,-1,-2,-1,-1,-3
1513481668978258,-1,-1,-1,-1,-1,0,1,0
1513481668999278,-1,-2,1,-2,0,0,0,-1
1513481668999278,0,0,-2,-1,0,-2,-4,0
1513481669000262,-2,-1,-2,-2,-2,0,-2,2
1513481669000262,-3,0,0,-1,-4,-1,1,2
1513481669012332,-1,-2,-1,-1,1,0,0,0
1513481669012332,0,-2,0,-1,0,-1,-3,0
1513481669021338,-2,-3,-2,-2,0,-1,-1,-2
1513481669021338,-1,1,0,1,-3,-3,0,-1
1513481669036360,-3,-2,1,-1,1,-1,-1,-2
1513481669036360,3,-3,-2,-2,2,-2,-3,-1
1513481669039352,-3,0,-1,-1,-1,-2,4,-1
1513481669039352,-4,-1,-1,-2,-3,2,3,1
1513481669059365,1,0,1,3,-1,-1,-1,1
1513481669059365,1,-2,-2,-1,0,0,-3,0
1513481669060367,0,-2,-1,-3,-1,-1,0,-1
1513481669060367,-1,0,-2,-1,-5,-2,-1,0
1513481669072387,-3,0,-2,1,-2,0,-1,1
1513481669072387,-2,-1,-1,-2,2,0,-1,-1
1513481669081386,-2,-2,-1,-1,-1,-1,0,1
1513481669081386,-3,0,-1,0,-3,-1,1,1
1513481669096393,-1,-1,-3,-1,-3,0,-2,0
1513481669096393,3,0,-1,0,1,-1,-5,3
1513481669098394,-3,0,-2,-2,-1,0,2,-1
1513481669098394,-2,0,0,0,-3,0,0,-4
1513481669119408,-1,-2,-1,-1,1,-3,-1,-1
1513481669119408,1,-1,-2,-4,1,-1,-2,-3
1513481669120408,-1,-2,-3,0,-3,-1,2,-4
1513481669120408,-3,-2,0,1,-4,0,0,-1
1513481669132417,0,0,-2,-1,-2,1,-2,1
1513481669132417,-1,-1,0,-2,0,-4,-2,-3
1513481669141423,1,-1,-2,-2,-1,-1,-3,0
1513481669141423,-4,0,0,0,-4,-2,1,-1
1513481669156446,0,2,-2,1,-3,-1,-1,1
1513481669156446,-1,-1,-1,-1,0,-1,-2,0
1513481669158436,-3,0,-2,-1,-1,-3,-2,-2
1513481669158436,-3,1,0,-1,-2,0,0,0
1513481669179450,1,1,0,-3,-1,-1,2,-5
1513481669179450,-1,-3,-3,-1,0,0,0,-2
1513481669180451,1,-2,-1,0,0,-1,0,-2
1513481669180451,-2,-2,0,1,0,0,-1,-1
1513481669192461,0,-2,-1,0,0,-2,1,0
1513481669192461,-1,-1,-3,-1,2,-2,-1,-3
1513481669201466,-2,-2,-1,-2,-2,0,0,-1
1513481669201466,1,-1,-3,-1,0,-2,1,-3
1513481669216479,1,-2,-1,-3,-1,-4,-2,-2
1513481669216479,0,-4,-2,-1,0,0,0,0
1513481669218481,-6,-1,-1,1,-4,-1,0,0
1513481669218481,-2,1,-1,0,-4,-1,1,-1
1513481669239495,-1,-1,1,0,-1,-1,-1,-1
1513481669239495,-2,-2,-3,-2,0,-1,-5,0
1513481669242498,-2,-1,0,-1,0,0,-2,-1
1513481669242498,-1,1,0,0,-2,1,0,-1
1513481669252506,3,-2,-1,0,-1,-1,-3,-1
1513481669252506,-1,-2,0,-2,0,-2,-4,-1
1513481669261528,-1,-1,-1,-4,-3,-2,-1,0
1513481669261528,-1,0,0,0,-4,1,1,-1
1513481669276520,-2,0,-3,2,3,0,-4,-1
1513481669276520,-2,-1,-2,-2,2,0,-1,1
1513481669278521,1,-1,0,-1,-3,-2,-1,-2
1513481669278521,-2,-1,0,0,-1,-2,1,-2
1513481669298552,-2,-2,-1,1,-1,-2,-4,-1
1513481669298552,2,-3,-2,-1,0,-1,-4,1
1513481669300536,0,0,-2,-2,-4,-1,-3,-3
1513481669300536,-1,-1,-2,-1,-3,-1,0,-1
1513481669321562,-3,-2,-1,-1,1,0,1,-2
1513481669321562,2,-1,0,0,3,-2,-1,-2
1513481669323552,-2,-2,-2,-1,-1,-1,-1,1
1513481669323552,-6,1,-1,-1,-3,0,0,-1
1513481669336577,-1,-1,-3,-3,-1,-1,-2,-1
1513481669336577,1,-3,-3,-3,0,1,-2,0
1513481669338563,0,-1,0,-3,2,-2,1,-4
1513481669338563,-2,-1,0,-2,-5,0,2,-2
1513481669359578,2,-1,0,-1,0,-1,-2,-1
1513481669359578,2,-1,-1,-1,-2,1,-3,1
1513481669360588,-1,0,-4,-1,-3,1,-2,0
1513481669360588,-1,-2,-1,1,-2,-2,0,0
1513481669381593,-3,0,0,-2,-1,0,-4,-1
1513481669381593,-1,-3,-1,-1,1,-1,1,-1
1513481669383595,0,-2,-1,1,-1,-1,0,-1
1513481669383595,-2,-1,-1,1,-2,-4,1,-1
1513481669395624,1,0,1,1,-3,2,-1,1
1513481669395624,0,-3,0,-2,-1,-2,-4,-2
1513481669402628,-1,0,-1,-1,-1,-2,0,0
1513481669402628,-3,0,-1,0,-5,-2,0,-1
1513481669418630,0,0,-2,0,-1,-1,0,0
1513481669418630,-2,-1,-1,-1,0,-3,0,1
1513481669422626,-2,-1,-1,-1,-3,0,1,-1
1513481669422626,-1,1,0,-1,-1,2,-3,-1
1513481669441648,2,-1,0,-1,0,-1,-3,1
1513481669441648,-4,-1,-2,-1,0,1,-4,0
1513481669442653,-3,-2,0,-1,1,-1,3,0
1513481669442653,0,-1,-1,1,-1,-1,-2,1
1513481669455647,1,-1,-3,-3,-1,-2,-1,-3
1513481669455647,-3,-2,-2,-3,-1,-1,0,-1
1513481669462653,0,0,-1,0,-5,-1,0,-4
1513481669462653,-3,0,-1,-2,-4,-1,1,-2
1513481669478673,2,0,0,0,1,-1,-2,-1
1513481669478673,0,-3,-3,-2,-1,-2,0,0
1513481669480667,-4,-2,0,-1,-5,-2,3,-2
1513481669480667,0,0,0,1,-5,0,0,0
1513481669501688,-1,-3,-1,-1,2,-2,-1,-1
1513481669501688,-1,0,-1,-1,0,-2,-1,-3
1513481669502679,-2,-1,-2,-2,-3,-2,0,-1
1513481669502679,1,-1,-1,0,-2,1,-2,2
1513481669515689,2,-1,-2,0,-2,-2,-1,2
1513481669515689,1,-2,-2,-2,1,2,-3,-1
1513481669522720,-3,0,-1,0,1,-2,-2,-2
1513481669522720,-2,-1,-1,0,-5,-2,2,-3
1513481669539706,0,0,0,0,0,1,-3,1
1513481669539706,1,-1,-1,-3,0,0,-1,-2
1513481669540716,-1,-1,-1,-3,-5,2,1,0
1513481669540716,0,-1,-1,-1,-3,0,1,-3
1513481669561733,-1,1,0,-1,-1,-1,-2,-1
1513481669561733,-2,-2,-2,-2,2,-1,-2,-4
1513481669562723,-1,-1,-1,0,-3,0,0,0
1513481669562723,-3,0,-2,-1,-2,-2,1,0
1513481669575741,-1,-4,-1,0,0,-1,-4,0
1513481669575741,0,-2,-1,-1,-4,-3,0,-2
1513481669582736,-4,-2,-2,-1,-3,-2,3,-2
1513481669582736,-1,-1,-1,1,1,-1,-2,-2
1513481669598767,0,0,-3,-2,1,-2,-3,-1
1513481669598767,-1,-1,-1,-2,1,0,-1,0
1513481669600780,-5,-1,0,-1,-3,-1,1,0
1513481669600780,-1,1,0,1,-1,1,-1,-1
1513481669621782,1,-2,-1,-1,0,0,-3,-1
1513481669621782,-1,0,-2,-1,2,-1,-2,2
1513481669622776,-3,0,-1,-2,-1,-2,1,0
1513481669622776,0,0,-1,-1,-2,-1,-2,-4
1513481669635831,-1,-1,-1,0,1,-1,-2,-2
1513481669635831,-1,-2,-3,-3,1,-3,-4,0
1513481669642789,-3,-3,-1,-2,-2,1,0,-1
1513481669642789,0,0,1,-1,0,-2,0,1
1513481669658802,3,-1,-1,-1,1,-1,-1,0
1513481669658802,-1,-2,-1,0,-1,-2,-3,0
1513481669660793,-4,0,-2,-1,1,-2,0,0
1513481669660793,-1,0,-1,1,-4,0,-1,-1
1513481669681806,2,-1,-1,-1,1,-1,-1,1
1513481669681806,0,-3,-2,-2,1,-3,2,-1
1513481669682808,-1,-1,-1,-2,-4,0,-1,-1
1513481669682808,-2,-2,0,-1,1,-3,-1,0
1513481669695830,-2,0,1,0,-1,-1,-4,1
1513481669695830,-1,-1,-3,-2,2,0,0,-1
1513481669702831,0,-2,2,1,-3,-2,0,-3
1513481669702831,-2,-2,0,-1,-3,-1,1,-2
1513481669718832,0,-2,-2,-1,0,0,-3,0
1513481669718832,0,-2,-3,-3,0,0,-4,1
1513481669720833,-1,1,-2,1,-4,-2,2,0
1513481669720833,-2,0,0,1,-3,-1,0,0
1513481669741849,-2,-2,-1,0,2,-1,-2,1
1513481669741849,-3,-1,-2,-1,0,0,-2,-1
1513481669742850,-4,-1,-2,-3,-2,0,0,-2
1513481669742850,0,-1,0,0,-3,-1,-1,1
1513481669755858,-2,-2,-1,-2,0,-1,-2,-3
1513481669755858,2,-1,-1,-3,1,-3,-3,-1
1513481669762863,-2,0,-1,0,-3,-2,2,-2
1513481669762863,-2,0,0,-2,0,-1,0,-1
1513481669778887,5,0,-2,-2,3,-1,-4,-1
1513481669778887,-3,0,-1,-4,-2,0,1,-1
1513481669780886,-5,-1,0,-1,-4,-1,1,-2
1513481669780886,-1,0,0,1,-3,1,-3,-3
1513481669801908,1,-1,-2,-2,-1,-5,-3,-3
1513481669801908,-1,-3,-3,-1,-1,0,-1,1
1513481669802892,-2,-2,-1,-1,0,-1,1,-1
1513481669802892,-1,-2,0,1,-2,-3,0,-1
1513481669814903,1,0,-1,0,2,-2,0,0
1513481669814903,-3,-2,-2,-1,-2,-1,0,-2
1513481669823909,-5,1,-1,-2,-3,-1,1,-1
1513481669823909,-2,0,-2,0,0,-1,0,-2
1513481669838917,1,-2,-1,-1,2,0,-2,-2
1513481669838917,-2,-2,-3,-4,-1,-2,-3,-1
1513481669842923,-3,-1,-3,1,-5,1,1,2
1513481669842923,-2,-1,-1,-1,0,-3,-1,0
1513481669861933,2,-1,-1,-1,3,-2,-3,-3
1513481669861933,-3,-2,0,-1,-2,-1,0,-2
1513481669862934,-2,-1,0,0,-3,-2,-1,-5
1513481669862934,-1,0,-1,-1,-1,-2,-2,-1
1513481669874942,0,-1,-1,-3,1,0,-2,2
1513481669874942,-2,-1,0,-1,-1,-1,1,-1
1513481669883948,-1,-1,0,-1,-2,2,2,-2
1513481669883948,3,1,0,0,-4,-1,3,1
1513481669898979,2,-2,-1,0,2,-1,-6,0
1513481669898979,0,-1,-3,-3,-1,0,-1,-2
1513481669900961,-7,1,-2,1,-4,-3,2,-1
1513481669900961,1,-1,0,0,-1,0,-4,0
1513481669920995,0,-1,-1,-1,1,-1,-3,-1
1513481669920995,0,-2,0,0,1,0,-1,1
1513481669922976,-3,-1,-1,-2,-4,0,4,-3
1513481669922976,-3,0,-1,0,-3,-1,0,0
1513481669934998,1,-3,-3,-1,1,1,-3,0
1513481669934998,-3,-1,-2,-3,-1,-3,-2,-1
1513481669944004,-1,-1,0,-1,-7,1,2,-4
1513481669944004,0,-1,-2,0,-1,-1,-2,0
1513481669959011,0,-1,-1,-2,-1,-2,-5,1
1513481669959011,-1,-1,-1,-2,-3,-3,0,-1
1513481669960014,-4,-3,0,-2,-2,-1,2,0
1513481669960014,-1,0,0,0,-1,0,2,-1
1513481669981017,1,-1,-1,0,-1,-2,-4,-1
1513481669981017,-1,-1,0,-2,1,-3,0,-1
1513481669983033,-4,-2,-1,-1,-5,-1,3,1
1513481669983033,0,0,-2,0,-2,0,-4,-1
1513481669995039,0,-1,-1,-2,3,-1,-4,0
1513481669995039,-2,-1,-1,0,1,-1,-2,-1
1513481670004034,-2,0,-2,0,-4,-2,-3,0
1513481670004034,0,-2,0,0,-1,-2,0,2
1513481670019047,3,-1,0,-2,1,-1,-1,-1
1513481670019047,-3,-2,-4,-2,-3,0,-1,-3
1513481670020044,1,1,-2,1,-3,-1,1,-2
1513481670020044,-2,0,-1,0,-2,1,-1,-2
1513481670041069,2,-1,-1,-2,1,0,-4,2
1513481670041069,-1,-1,1,0,-3,-3,0,2
1513481670043063,-4,0,-1,-2,-3,-1,2,-1
1513481670043063,-3,0,0,-2,0,-2,-2,0
1513481670055079,2,-1,-1,-1,3,-2,-4,-3
1513481670055079,-1,-1,-2,-2,-3,2,2,1
1513481670064087,-2,0,1,-1,-3,0,3,1
1513481670064087,0,-2,-1,0,0,-1,0,-3
1513481670079098,-3,-2,-1,-3,-1,-1,-5,-1
1513481670079098,2,-2,-1,-1,-2,-1,0,-2
1513481670080099,-6,-2,0,-1,-5,-1,0,-2
1513481670080099,1,0,-1,-1,2,0,-1,-1
1513481670101103,3,-4,0,0,5,-1,-4,1
1513481670101103,-3,-3,0,-1,0,1,-2,1
1513481670103115,-3,0,-1,0,-4,-1,4,0
1513481670103115,-1,0,-1,0,-1,-1,-1,-1
1513481670115112,3,-3,-1,1,1,-3,-1,1
1513481670115112,-2,0,-3,-2,-1,-2,-1,-3
1513481670124121,-3,-1,-1,-1,0,0,1,-2
1513481670124121,-1,-2,-1,0,-1,-1,-3,-2
1513481670139144,-1,-1,-1,-3,3,0,-1,-1
1513481670139144,-1,-2,-1,-2,0,-1,-1,-2
1513481670141131,-4,-3,0,-1,-3,-1,3,-3
1513481670141131,1,1,-1,-3,-4,-2,-2,-1
1513481670161154,4,-2,0,-1,1,-1,-3,1
1513481670161154,0,-3,-1,-1,0,-1,-1,-1
1513481670163155,-7,1,-2,-1,-4,-2,2,-5
1513481670163155,-1,1,0,-2,0,-1,-3,-2
1513481670175154,1,-1,-2,2,1,-2,-3,0
1513481670175154,-2,-2,-1,-3,-1,-1,-2,1
1513481670184161,-2,0,0,0,-3,-2,0,-1
1513481670184161,-1,-1,-2,0,-1,-1,1,-1
1513481670199172,1,0,-1,-3,4,-1,-4,-3
1513481670199172,-3,-1,-1,-3,-2,-3,2,-1
1513481670200172,-4,-3,-1,-1,-5,2,0,1
1513481670200172,0,-1,-1,1,0,0,-1,1
1513481670221187,2,-4,-2,-1,0,-2,-5,-3
1513481670221187,1,-1,-1,0,-4,0,0,-3
1513481670223188,-3,1,-1,0,-1,-1,2,0
1513481670223188,-4,0,0,1,-3,-3,0,1
1513481670244203,2,-1,-2,-1,-1,-1,-4,-2
1513481670244203,-2,-3,-4,-1,-2,-4,-1,1
1513481670245205,0,-2,-1,-1,-4,-2,-3,-3
1513481670245205,-1,-1,-1,-3,-2,0,-1,0
1513481670259214,-1,-2,-1,-3,2,0,-2,0
1513481670259214,1,-1,-1,-2,0,-2,1,-1
1513481670260215,-5,0,-1,0,-5,-1,4,1
1513481670260215,-2,-2,-2,0,-2,-1,0,-2
1513481670281229,0,-1,-2,-3,2,-1,-3,1
1513481670281229,-3,-3,-1,-1,-2,2,-2,-2
1513481670283234,0,-2,-1,0,-5,-2,1,0
1513481670283234,2,-1,0,0,-1,0,1,-2
1513481670304263,0,-1,-1,-2,0,-1,-4,0
1513481670304263,-1,1,-2,0,-1,-1,-1,-2
1513481670305247,-4,1,0,-1,-4,-1,3,-3
1513481670305247,-1,-1,-1,2,-1,0,-2,-2
1513481670319266,-1,0,-3,-1,1,-3,-1,-1
1513481670319266,-1,-2,-1,0,-1,-1,-3,-2
1513481670320257,-3,-1,1,0,-6,-2,2,-1
1513481670320257,-2,-2,-1,-1,-4,0,0,-1
1513481670341272,1,-4,0,-2,0,0,-4,2
1513481670341272,-4,-3,-1,-2,-1,-2,2,-1
1513481670343274,-4,0,-1,0,-5,0,1,-3
1513481670343274,2,-1,0,-1,0,0,-1,0
1513481670364288,2,-1,0,-3,2,0,-3,-1
1513481670364288,-1,-1,-1,-1,-3,-2,-3,-1
1513481670365289,-1,-1,0,-1,-4,1,0,-1
1513481670365289,0,0,-2,-1,-3,-3,-1,0
1513481670379311,0,-2,1,-2,4,0,-4,1
1513481670379311,1,0,-1,-3,0,-1,-1,2
1513481670380304,-1,1,-2,-1,-2,-1,2,-3
1513481670380304,-3,-1,0,1,-1,-2,-3,0
1513481670400324,0,-1,-4,0,3,-4,-2,-2
1513481670400324,-4,-1,-2,-1,-1,-1,1,-3
1513481670401324,-3,1,0,-2,-4,0,1,-1
1513481670401324,-1,0,-1,-1,0,-2,-3,-2
1513481670423333,2,-1,-1,0,0,-1,-3,1
1513481670423333,-3,-3,1,-1,0,0,-1,0
1513481670424343,-4,1,-1,0,-5,-2,2,1
1513481670424343,-2,-1,0,-1,-1,-2,-1,0
1513481670438350,-1,-3,-2,-1,-1,-3,-2,0
1513481670438350,1,-1,-2,-2,-1,0,-1,-2
1513481670440342,-2,-1,-1,-1,-3,-1,1,-1
1513481670440342,0,-1,0,-2,0,0,-3,-2
1513481670460370,4,-3,-2,-1,4,0,-4,-2
1513481670460370,-2,-1,-2,-1,-2,0,-1,-1
1513481670468380,-2,-2,0,0,-3,-2,0,-4
1513481670468380,1,1,-2,1,2,-1,0,-1
1513481670483448,2,-2,-2,-2,1,-1,-4,-3
1513481670483448,-1,-1,-2,-2,-2,-4,0,-1
1513481670484443,-6,-1,0,1,-4,0,2,-2
1513481670484443,2,-1,-2,-2,-2,1,-1,0
1513481670498455,-5,-1,-2,-2,1,-2,-1,-1
1513481670498455,-2,-1,-2,-2,-1,1,-4,-2
1513481670498455,-1,0,-2,0,-1,-2,5,-1
1513481670498455,-3,-1,0,1,-3,-1,-3,-2
1513481670520461,1,-1,1,-2,0,-1,0,-1
1513481670520461,0,-2,1,-2,0,-4,0,-1
1513481670521461,-4,-1,1,0,-4,-1,1,1
1513481670521461,1,-2,-1,0,1,0,1,-1
1513481670543487,1,-1,-3,-3,0,1,-3,-1
1513481670543487,-1,-3,-1,-2,-1,0,1,0
1513481670543487,0,2,-1,0,-4,-1,-1,-1
1513481670543487,-2,-2,-2,-3,-2,-3,-3,0
1513481670558522,0,-4,-1,-1,1,-1,-2,-2
1513481670558522,1,-1,0,-1,0,1,-1,0
1513481670558522,-2,-1,1,0,-2,0,0,-3
1513481670558522,1,0,-1,0,-1,-1,1,-2
1513481670580505,0,1,-2,-3,1,1,-1,1
1513481670580505,-3,0,-2,-2,-3,0,0,-1
1513481670581504,-1,0,-1,1,-2,-1,5,1
1513481670581504,1,-1,1,0,-2,-1,-4,-2
1513481670611526,-1,-2,-2,-1,1,-1,-1,0
1513481670611526,-2,-1,-1,-1,1,-2,0,-2
1513481670612526,-3,-2,-2,0,-5,1,0,-1
1513481670612526,0,0,0,0,0,0,-1,-1
1513481670618547,0,-3,-2,0,1,-1,-3,1
1513481670618547,-1,0,-1,-1,-2,-2,-1,0
1513481670619531,-3,-1,0,-2,-4,0,-1,-2
1513481670619531,0,0,-2,1,-1,0,1,1
1513481670640557,0,-2,-2,-2,0,-1,-3,-5
1513481670640557,-1,-2,-2,-1,-1,-1,1,0
1513481670641547,-5,0,-1,0,-3,-3,4,-1
1513481670641547,-4,1,0,-3,-1,0,1,1
1513481670663579,2,-1,-1,-2,2,-2,-5,-1
1513481670663579,-3,0,-1,-2,-4,-1,0,-2
1513481670663579,-1,-1,0,-1,-3,-1,-1,-2
1513481670663579,-1,-1,-1,0,1,1,-1,-1
1513481670677584,-3,0,-1,0,-1,0,-2,-1
1513481670677584,-3,-1,-1,-1,-3,0,-1,-1
1513481670685578,1,1,-1,0,-3,-1,-2,0
1513481670685578,1,0,1,0,0,0,-3,-1
1513481670700588,1,0,-1,-3,2,-2,0,-1
1513481670700588,0,-2,-1,-1,-1,-2,-2,-3
1513481670701589,-5,0,-2,-2,-3,-3,2,0
1513481670701589,-3,-3,-2,-7,-4,-3,-3,1
1513481670723643,0,-3,0,7,0,-2,-1,-3
1513481670723643,-5,-1,1,-4,-2,1,2,-1
1513481670723643,-3,0,0,3,-1,0,2,1
1513481670723643,1,3,30,4,3,-2,-6,-1
1513481670738615,-1,-4,-30,-4,2,0,-2,1
1513481670738615,-1,-3,2,-1,-2,-2,-2,-3
1513481670739627,-4,1,3,-3,-1,0,-2,-4
1513481670739627,2,-1,-2,1,-1,-2,0,1
1513481670760634,0,-1,14,0,2,1,-3,3
1513481670760634,2,0,-3,5,-2,-2,-2,-1
1513481670761633,0,-3,-7,4,-2,0,2,-1
1513481670761633,-2,-1,-1,-2,3,0,-1,-3
1513481670783662,-1,-1,1,-5,-1,-2,-3,1
1513481670783662,-2,-2,-7,-6,-2,0,1,-2
1513481670783662,-1,0,3,0,-4,1,-1,-1
1513481670783662,-1,-2,-8,3,-2,-2,-2,-2
1513481670798667,3,-1,-2,-2,3,-3,-6,2
1513481670798667,-1,-1,-2,-2,1,-1,1,-2
1513481670798667,0,0,1,1,-4,2,-2,0
1513481670798667,1,-3,-4,-1,-1,0,1,0
1513481670820691,-1,-4,-6,-5,0,-2,-4,-1
1513481670820691,0,-2,4,0,-2,-1,-1,0
1513481670821675,-2,-2,-2,-1,-2,-2,-1,-3
1513481670821675,-2,-4,-6,-3,-1,-1,0,-2
1513481670843703,-1,0,3,0,0,-1,-3,2
1513481670843703,-2,1,-4,-1,-4,0,-3,0
1513481670843703,0,1,4,-2,-1,0,-1,0
1513481670843703,-2,0,-6,0,-2,-2,0,-2
1513481670857699,1,-1,-1,-4,-1,1,1,-4
1513481670857699,-3,-2,-3,-2,-3,-1,1,1
1513481670865706,0,0,-2,-2,-5,-1,1,-1
1513481670865706,-3,2,2,0,0,-2,0,0
1513481670880728,3,-2,1,-2,1,-1,-4,-3
1513481670880728,-2,-1,-1,-3,-2,0,-1,2
1513481670881716,-1,0,2,0,-3,-3,1,-4
1513481670881716,0,-3,-4,-2,0,-1,-3,2
1513481670902745,-1,-4,-1,-2,-1,-1,-4,-1
1513481670902745,-2,0,-1,0,-3,-2,-2,-2
1513481670903742,-2,1,-1,0,-4,-2,1,1
1513481670903742,1,-2,-4,-1,0,-2,0,0
1513481670917751,2,-1,0,-1,1,-2,-1,1
1513481670917751,-3,-1,1,-2,-2,-2,1,-1
1513481670925748,-3,1,0,0,-1,-1,0,1
1513481670925748,1,-2,-2,0,0,-2,-3,-2
1513481670940768,1,-3,1,-2,1,-2,-2,-1
1513481670940768,0,-1,-1,-1,1,-2,-1,0
1513481670941769,-5,-1,-1,0,-3,2,4,0
1513481670941769,1,-1,-11,-1,-2,-2,-2,-2
1513481670962784,-1,0,1,1,3,-2,-1,-1
1513481670962784,-2,-2,-3,-1,-3,-1,1,-2
1513481670963774,-2,0,3,1,-2,1,-1,-4
1513481670963774,0,2,9,2,-2,0,-1,1
1513481670977787,-1,-4,-18,-3,-2,-2,0,2
1513481670977787,-3,-1,2,-2,-1,-1,2,-1
1513481670985802,-4,-1,-2,1,-4,-2,0,0
1513481670985802,-1,-2,0,-1,0,-1,-3,-3
1513481671000800,0,1,0,-2,0,-1,-2,-1
1513481671000800,-4,-2,-3,-1,1,-2,-3,0
1513481671001801,-1,-2,-2,0,-3,1,-1,-2
1513481671001801,-1,0,-2,0,-2,-1,0,1
1513481671022816,2,0,0,0,2,0,-1,1
1513481671022816,-1,-2,-2,-2,-4,-1,0,-4
1513481671023817,-1,0,-2,-3,-2,-2,1,-2
1513481671023817,0,1,-2,0,0,-1,-2,0
1513481671037885,-4,-4,2,0,0,-2,1,1
1513481671037885,-2,-1,-1,-1,-2,0,1,-3
1513481671045842,1,-1,-3,1,-3,-1,2,-1
1513481671045842,-2,0,1,-2,0,-1,-1,-1
1513481671060866,3,-2,2,-2,2,-2,-3,0
1513481671060866,-1,1,0,0,0,2,-2,-1
1513481671061843,-2,0,3,-3,-1,0,0,0
1513481671061843,0,-3,-6,3,1,0,-3,0
1513481671083871,-4,-3,1,-5,0,-1,-1,-3
1513481671083871,-4,-2,-5,3,0,-1,-2,-1
1513481671083871,0,1,2,11,-2,0,1,-1
1513481671083871,-1,-3,-2,-9,-2,0,-1,0
1513481671097879,-3,2,1,-1,0,-2,-3,-1
1513481671097879,0,-1,3,-4,1,-2,0,-2
1513481671105884,-2,-1,-3,-2,-1,0,-1,1
1513481671105884,3,0,8,6,-2,-2,-1,1
1513481671120897,2,0,-12,-6,1,-1,-1,-2
1513481671120897,-2,-1,1,-3,0,-3,-1,1
1513481671121888,-2,1,0,3,-1,-3,0,-1
1513481671121888,1,0,1,-2,1,-2,-3,0
1513481671142911,0,-5,-10,-3,2,0,-4,-1
1513481671142911,2,-2,-1,-7,-3,-1,1,-1
1513481671143903,-1,-2,-10,5,-3,-3,-2,-1
1513481671143903,-3,-1,9,0,0,-1,-4,-2
1513481671165917,1,0,7,1,0,-2,0,2
1513481671165917,-1,-1,-5,14,1,-2,0,0
1513481671166919,-1,-1,-7,-10,-2,4,2,0
1513481671166919,1,-2,-8,-3,-1,-3,-3,-4
1513481671180951,-1,1,7,2,3,2,-1,2
1513481671180951,0,-1,-7,-4,-5,0,0,-4
1513481671181938,-3,0,22,-4,-6,-3,-2,-4
1513481671181938,1,-10,-8,8,4,2,2,-1
1513481671202957,-2,-3,-3,-4,2,1,-2,-3
1513481671202957,-2,1,-9,-2,-2,0,1,3
1513481671203958,1,-1,-5,-6,-2,-2,-2,-2
1513481671203958,1,-1,5,9,2,-1,-5,1
1513481671226971,0,-3,-2,-5,2,-3,-4,-4
1513481671226971,-4,-1,1,-3,-4,-1,-1,-3
1513481671227971,-1,1,1,-14,-3,0,-2,-2
1513481671227971,-2,2,-7,23,-1,-1,-2,-1
1513481671241021,-1,0,-2,-9,1,2,0,-3
1513481671241021,-2,1,2,-8,-6,0,1,-1
1513481671241021,0,-2,-8,0,-4,-2,2,0
1513481671241021,0,-1,-8,1,3,-1,-1,-1
1513481671263050,-2,-1,-6,7,-5,-5,0,1
1513481671263050,-2,0,10,7,3,3,-2,-2
1513481671264028,-5,-1,-11,-1,-7,-1,1,-1
1513481671264028,3,4,7,-13,4,0,0,-2
1513481671286058,3,0,5,9,2,-3,-3,0
1513481671286058,-3,-9,-24,-12,-2,-2,-2,-2
1513481671287044,0,6,16,9,4,-2,-4,1
1513481671287044,2,-8,-37,-11,1,-2,-1,-1
1513481671301069,0,0,9,-6,-1,-1,-2,-2
1513481671301069,-2,0,-4,-1,-3,-4,2,-3
1513481671301069,-2,-6,6,4,-1,-1,0,0
1513481671301069,-2,-1,-2,-4,-2,-3,-2,-2
1513481671323071,-3,-2,3,-7,-1,2,-1,1
1513481671323071,-4,2,-11,-11,-3,-1,2,-2
1513481671324070,1,3,9,22,-2,0,3,2
1513481671324070,-2,4,14,-5,-2,0,0,1
1513481671346097,-3,-4,-20,-12,-1,-4,-2,1
1513481671346097,-3,1,47,37,2,2,-2,0
1513481671347088,1,-4,-16,-35,-5,-2,1,-3
1513481671347088,5,4,12,10,2,-1,-7,-3
1513481671361097,-6,-1,3,-6,-4,-4,0,-2
1513481671361097,-11,-10,6,-6,-9,-4,4,-3
1513481671361097,-10,3,-8,7,-1,0,-2,-1
1513481671361097,11,1,11,-5,2,1,-3,1
1513481671383124,-8,0,-10,2,3,0,-3,-2
1513481671383124,-1,-3,-8,-7,-3,-3,1,-2
1513481671384114,3,-5,1,5,0,-2,-2,1
1513481671384114,-3,1,-1,-12,4,-2,-5,0
1513481671406130,1,-5,-12,-1,4,-1,1,0
1513481671406130,3,2,5,0,-1,-1,2,0
1513481671407140,-3,-2,-8,-6,1,0,1,-2
1513481671407140,0,1,5,-1,-2,-1,-3,2
1513481671421144,10,-4,-22,0,-6,0,1,-1
1513481671421144,-13,1,-4,-3,-4,-3,2,-4
1513481671421144,-4,2,10,4,-4,3,1,-1
1513481671421144,-11,-8,-13,-9,-1,-3,0,-1
1513481671443176,6,2,39,19,7,-3,1,1
1513481671443176,1,-2,-15,-3,-6,-2,0,1
1513481671444161,-6,0,-9,-7,-5,-1,-1,-5
1513481671444161,7,0,-2,-2,2,2,-3,2
1513481671466170,-8,-4,-4,5,-4,-2,-3,-3
1513481671466170,2,-2,-16,-12,7,3,-3,-1
1513481671467172,11,-1,35,6,-1,-1,1,-1
1513481671467172,-19,-3,-22,-7,-2,-3,-6,-2
1513481671481181,0,-7,1,-1,-2,-3,0,-4
1513481671481181,-10,1,-2,-1,-1,1,2,-2
1513481671481181,0,-1,3,5,0,-2,-5,0
1513481671481181,0,0,9,-2,-2,-2,1,-1
1513481671503228,0,0,-9,-2,-1,0,-2,-3
1513481671503228,3,0,2,-5,-5,-2,3,-1
1513481671504197,0,-4,-17,-1,-1,-1,1,1
1513481671504197,-2,2,16,6,3,-3,-8,-3
1513481671526214,5,2,-21,-10,-2,-1,3,-1
1513481671526214,-2,-8,3,-7,-8,-4,0,1
1513481671528215,2,2,-13,1,-2,-3,-3,-2
1513481671528215,5,-7,3,6,-1,2,-6,-4
1513481671540235,0,-4,-2,-17,4,-1,11,4
1513481671540235,-2,1,3,17,-4,1,-1,-2
1513481671541224,3,8,-4,-3,0,0,-1,3
1513481671541224,0,-1,-1,-1,1,0,-4,-3
1513481671563249,5,1,8,-2,3,1,-6,1
1513481671563249,-6,-2,9,-3,-4,-3,3,-2
1513481671564240,0,-2,-13,-7,-1,-2,2,2
1513481671564240,6,0,5,-1,4,0,3,2
1513481671586273,0,3,5,2,-2,-1,-5,1
1513481671586273,-6,-5,12,-3,-8,-4,4,-5
1513481671587266,-6,-2,-1,2,-3,-3,-5,-4
1513481671587266,1,1,-7,-5,1,-1,4,3
1513481671600278,-10,-7,-7,-3,-4,-1,-1,-1
1513481671600278,-10,5,3,-2,-1,1,-1,0
1513481671601266,-9,-2,15,9,-3,1,-3,-3
1513481671601266,8,-12,-31,-10,0,1,-2,1
1513481671623294,-3,1,15,3,2,-3,-11,-3
1513481671623294,7,7,-6,3,1,4,-3,0
1513481671624284,-5,-2,-1,-8,-2,-4,2,-1
1513481671624284,-9,-2,18,0,0,1,-2,-5
1513481671646391,7,5,-2,1,3,-1,-5,9
1513481671646391,2,-2,4,-3,-4,0,7,-3
1513481671647391,-8,1,-1,5,0,-1,-7,-2
1513481671647391,7,-5,-14,4,3,-2,-1,2
1513481671660401,-2,-7,11,-3,2,-1,-2,-3
1513481671660401,-3,-3,-43,-9,-8,-2,10,0
1513481671661384,13,10,23,16,3,3,-1,3
1513481671661384,6,-7,-31,-14,-1,-6,-7,0
1513481671683399,-3,-2,14,-4,-5,-3,3,-3
1513481671683399,-11,-4,3,2,-1,0,0,0
1513481671684400,2,0,-4,-2,-3,-2,7,-3
1513481671684400,2,8,9,1,5,2,-1,-1
1513481671706430,1,1,-18,3,-1,-4,-20,-3
1513481671706430,-12,2,26,-1,-8,2,0,-5
1513481671708431,-6,-4,-31,-9,1,-6,-4,-5
1513481671708431,-6,-5,-7,-6,1,-9,0,-5
1513481671720437,-16,-6,-14,-2,1,19,33,5
1513481671720437,18,3,22,2,-2,-6,-7,8
1513481671721427,1,2,30,11,3,5,12,0
1513481671721427,-1,6,-7,3,1,-4,-4,-4
1513481671743452,15,-1,13,-5,-1,-6,-16,-1
1513481671743452,-6,1,-35,-6,4,6,12,11
1513481671744445,-10,-7,5,-1,-8,-4,-14,-6
1513481671744445,12,7,4,5,9,-1,-12,1
1513481671766457,-15,-3,59,4,-6,-1,10,-6
1513481671766457,2,-4,0,0,-12,-6,-7,-10
1513481671767458,4,-5,-40,-16,-2,-4,-4,-3
1513481671767458,-3,2,4,10,4,3,-7,11
1513481671779479,-18,-11,-20,3,-6,-6,-15,-18
1513481671779479,12,10,43,-6,-1,-1,10,0
1513481671788534,5,3,14,8,0,0,-9,3
1513481671788534,-29,-20,-10,-18,-5,-1,-8,-1
1513481671803487,5,1,-27,13,7,2,5,9
1513481671803487,-17,5,27,17,-4,-12,-20,-16
1513481671803487,-29,-15,-29,-19,-9,12,5,2
1513481671803487,32,9,4,2,4,-3,6,1
1513481671826502,-1,3,11,-14,-7,-8,-11,-14
1513481671826502,-3,-2,-19,3,-1,4,6,15
1513481671828511,-1,10,25,12,0,-6,-27,-13
1513481671828511,8,-10,-34,1,-1,-1,3,-6
1513481671839527,11,0,-7,-8,3,2,13,6
1513481671839527,-28,4,-17,0,-4,-1,5,-8
1513481671848533,22,-5,46,-2,-6,-4,1,0
1513481671848533,-11,-2,-8,-4,0,3,4,-2
1513481671863543,-5,3,36,10,-2,-4,4,-1
1513481671863543,-21,-26,-121,-38,-11,-2,-6,-13
1513481671863543,-12,0,34,2,5,-4,7,9
1513481671863543,7,-5,32,13,-2,0,-6,-6
1513481671886557,-3,6,-18,-13,2,3,-6,3
1513481671886557,25,18,115,41,3,3,2,-1
1513481671887543,-26,-9,-93,-25,-15,-10,-7,-10
1513481671887543,-2,-3,-25,-31,9,5,-1,5
1513481671899565,0,-14,57,17,3,-2,2,-5
1513481671899565,-28,-10,-47,-10,-11,2,14,-4
1513481671908573,14,13,5,-3,2,3,12,9
1513481671908573,-14,5,47,19,-2,-6,-24,-6
1513481671923582,3,-18,-92,-19,-14,0,16,20
1513481671923582,1,-2,62,-8,-5,-5,-14,-15
1513481671923582,1,0,-23,12,12,8,31,13
1513481671923582,15,8,0,-2,1,0,-3,6
1513481671946595,21,7,37,12,8,-3,-4,13
1513481671946595,-10,-13,-53,-29,-21,-5,9,-20
1513481671947595,33,20,-27,9,14,7,2,13
1513481671947595,0,2,46,32,4,0,1,10
1513481671960595,-13,-13,-61,-21,-4,-7,-14,-14
1513481671960595,-16,9,-18,10,0,1,3,1
1513481671968600,10,6,31,8,5,5,-16,4
1513481671968600,21,-12,-43,-47,-12,-8,-8,-19
1513481671983611,-25,3,64,28,13,4,-9,0
1513481671983611,0,7,-47,-9,-4,2,15,-6
1513481671983611,-30,-8,-20,-1,1,-3,1,-12
1513481671983611,27,21,92,38,13,6,1,14
1513481672006627,-23,-15,-86,-48,-16,-7,-1,-1
1513481672006627,5,3,-16,5,2,0,3,-29
1513481672007628,-3,-5,59,-5,-4,-4,-18,7
1513481672007628,-54,-19,-50,-19,-4,1,36,-6
1513481672019637,17,9,12,-2,2,-1,-18,1
1513481672019637,13,9,35,22,3,2,7,8
1513481672028655,17,4,-3,24,-8,-1,1,0
1513481672028655,-17,2,-37,-9,-1,-7,-14,-14
1513481672043676,-1,-8,-29,-5,5,2,11,3
1513481672043676,21,-1,28,-14,0,0,-2,7
1513481672043676,19,13,26,13,0,-2,0,-1
1513481672043676,23,-12,14,-22,9,3,-3,22
1513481672066686,0,14,-15,33,-6,-4,-1,-15
1513481672066686,47,-5,-6,-12,-6,2,6,21
1513481672067700,-62,-18,-91,-12,-3,-6,-2,-20
1513481672067700,69,15,13,2,0,5,-1,21
1513481672079679,6,-4,9,-21,-2,-4,8,-4
1513481672079679,5,-12,15,25,-7,-1,-5,2
1513481672088699,0,12,23,17,-2,-2,-2,2
1513481672088699,-43,-27,-78,-40,-5,-5,-4,-8
1513481672103696,58,13,78,15,-6,-2,-2,8
1513481672103696,-29,-9,-91,-27,-14,-8,-6,-1
1513481672103696,-2,-1,46,-2,1,-5,2,-4
1513481672103696,-31,3,4,24,7,-1,-4,-9
1513481672126731,54,1,0,-1,-8,0,8,2
1513481672126731,-81,1,26,20,7,3,-10,-3
1513481672126731,96,7,21,1,-1,4,5,-5
1513481672126731,-55,-5,-20,-3,-5,1,13,5
1513481672148740,-62,-37,-61,-19,-2,-3,-7,-17
1513481672148740,4,4,37,7,-4,-2,5,2
1513481672149745,3,4,-7,-7,1,1,-1,5
1513481672149745,23,12,39,14,9,-3,-13,-1
1513481672162738,-34,-13,-33,-7,-15,0,4,-10
1513481672162738,1,3,26,14,4,-4,-8,-1
1513481672163738,-61,-20,27,-13,-10,-2,2,-14
1513481672163738,35,-3,-47,-9,-1,-4,-7,-4
1513481672187770,-25,3,-4,1,8,0,-8,-1
1513481672187770,-7,-7,119,11,-10,-6,6,-9
1513481672188766,20,-34,-116,-39,-24,-14,-13,-15
1513481672188766,-47,13,24,-3,10,3,-13,-14
1513481672208779,19,2,-2,-11,-2,0,1,2
1513481672208779,-54,16,11,3,9,5,25,1
1513481672210795,90,50,20,8,6,4,6,42
1513481672210795,8,-40,18,21,-8,-4,-18,-6
1513481672222780,26,-6,-38,-1,16,6,-3,6
1513481672222780,-16,-1,16,-4,-10,-5,-3,-14
1513481672223781,24,21,-25,16,-5,1,19,5
1513481672223781,11,19,5,-10,17,6,-11,8
1513481672246807,-39,-9,55,-11,-9,-6,6,4
1513481672246807,53,-6,-16,-8,-4,3,-8,9
1513481672246807,-38,-2,-13,-14,6,-2,5,-14
1513481672246807,-72,-31,26,21,6,-2,11,8
1513481672268824,28,83,28,1,-5,4,20,15
1513481672268824,34,15,-29,5,-3,-3,-11,9
1513481672269832,-53,-37,0,1,16,9,3,6
1513481672269832,-10,5,2,12,-10,-6,-5,-36
1513481672282823,8,-17,-6,-29,-2,-4,-2,21
1513481672282823,49,22,19,21,5,6,12,-1
1513481672283836,-83,-72,-34,-20,-21,-5,-6,-23
1513481672283836,70,52,10,5,14,2,-1,13
1513481672306839,-55,-60,-11,5,-23,-6,7,-18
1513481672306839,24,24,-11,17,1,5,-5,18
1513481672306839,-33,-23,-21,-28,5,-4,-8,4
1513481672306839,-12,-10,-4,-22,-17,-12,7,-8
1513481672328855,-50,30,26,15,4,4,-2,-9
1513481672328855,38,-19,-10,1,-6,-3,-2,-12
1513481672329856,-7,-10,34,21,15,10,12,46
1513481672329856,-23,-47,-43,-20,-16,-8,-8,-41
1513481672342884,63,4,0,-7,-10,-10,-12,-4
1513481672342884,-14,8,-16,-5,14,3,5,-8
1513481672343868,19,61,65,11,9,2,-20,2
1513481672343868,75,-39,-76,-20,0,-2,-8,12
1513481672366882,-9,-12,75,11,6,0,3,-16
1513481672366882,-24,11,-43,-22,-13,-7,-7,-1
1513481672366882,39,-19,30,13,0,-8,-13,11
1513481672366882,-81,52,-8,-9,-11,-5,3,4
1513481672388907,-15,-32,-23,20,7,1,5,-6
1513481672388907,27,5,-21,-29,-16,-3,-3,-6
1513481672389908,0,12,19,9,4,-1,-4,1
1513481672389908,-19,-4,41,-19,-1,3,1,-5
1513481672412933,20,-3,-16,8,2,2,2,4
1513481672412933,-36,-19,-22,-23,-6,-2,9,5
1513481672412933,32,46,16,22,-8,-3,-2,-5
1513481672412933,26,-18,40,18,10,7,-22,-7
1513481672425942,43,33,7,1,14,3,15,39
1513481672425942,32,-5,-58,-15,-12,-4,-1,7
1513481672427946,-21,-1,4,-4,-11,-7,-14,-52
1513481672427946,77,-38,-15,-9,-3,-10,-7,15
1513481672448940,-3,12,27,6,3,2,-20,8
1513481672448940,-38,5,-24,-5,-13,-1,-5,-34
1513481672449941,-22,-64,38,11,-3,0,21,18
1513481672449941,-34,26,-10,-2,10,3,7,-18
1513481672462963,-28,-14,-63,-20,-22,-10,-30,-49
1513481672462963,0,30,94,36,8,3,-1,12
1513481672471969,4,26,-100,-28,-13,-6,4,-25
1513481672471969,67,-87,13,-15,-6,2,3,11
1513481672485967,-50,12,-4,4,5,-4,2,-6
1513481672485967,-23,7,25,14,12,7,7,65
1513481672487967,-13,-15,-8,-28,-13,-11,-16,-78
1513481672487967,21,75,25,55,21,9,8,57
1513481672508985,-1,-64,-28,-28,-17,4,28,9
1513481672508985,15,-7,7,-6,-14,-6,-14,-16
1513481672509984,-11,19,22,2,7,6,-1,18
1513481672509984,13,22,-31,-7,-4,-4,-5,-6
1513481672522004,43,28,39,9,2,-2,-12,6
1513481672522004,-75,-40,-16,1,-10,-7,7,-19
1513481672531998,-13,-4,7,-3,0,6,5,15
1513481672531998,-39,24,-2,-13,0,-11,-23,-8
1513481672547024,7,12,9,14,4,5,17,-13
1513481672547024,26,-6,-45,-17,-4,-6,-2,-21
1513481672550026,16,-20,-11,-8,-7,-9,-22,21
1513481672550026,-6,-15,-5,9,8,0,-1,-2
1513481672569069,-13,-10,-3,-8,-12,-7,-25,4
1513481672569069,-9,-18,18,5,15,5,17,35
1513481672570060,32,40,-2,1,-9,1,5,-35
1513481672570060,12,11,66,-7,16,-5,-20,25
1513481672582085,-25,4,-59,-22,-16,-2,15,-16
1513481672582085,-4,4,-7,12,3,10,-2,-29
1513481672591090,37,-11,-12,-7,0,-4,-7,44
1513481672591090,-23,3,26,-5,-7,5,3,-26
1513481672607095,-11,-10,10,-2,-5,-5,-18,-24
1513481672607095,29,6,2,14,9,4,15,10
1513481672609085,-25,45,36,20,4,1,0,-5
1513481672609085,-35,-43,-46,-17,-6,1,15,-3
1513481672629111,-20,-12,10,7,5,-3,-2,-3
1513481672629111,0,-1,9,-8,-8,-8,-6,-5
1513481672630112,-20,0,25,2,7,7,-4,22
1513481672630112,-5,17,-18,15,10,5,20,-29
1513481672642117,21,16,20,-1,-2,-7,-9,52
1513481672642117,-43,-33,2,6,-9,3,9,-69
1513481672651123,2,34,-12,-13,3,0,5,34
1513481672651123,7,-2,4,11,-1,-4,-12,-7
1513481672666124,47,14,-20,17,3,9,14,-21
1513481672666124,-42,-23,12,-22,-3,-1,-20,4
1513481672668138,-17,-52,-8,-4,-6,-9,-7,-9
1513481672668138,3,3,-25,12,10,0,9,6
1513481672689164,12,14,-4,8,9,8,19,-2
1513481672689164,34,37,23,-5,-1,-4,-8,27
1513481672690141,9,-1,-11,1,-1,-1,8,-45
1513481672690141,24,24,0,2,-4,-2,-30,6
1513481672702166,-45,-13,2,-5,3,-5,-6,1
1513481672702166,27,12,20,3,-9,-4,19,9
1513481672711174,10,-26,-24,-6,8,5,20,-19
1513481672711174,43,15,-4,1,2,-2,-22,-5
1513481672727171,-15,-26,4,-8,-4,1,14,-41
1513481672727171,-65,-4,-37,-15,-12,-4,1,-6
1513481672729169,4,-26,26,8,-2,-2,4,-14
1513481672729169,11,4,-33,-9,5,4,1,13
1513481672749202,19,13,15,-13,-6,-5,-6,4
1513481672749202,-34,29,9,17,3,6,6,6
1513481672750184,29,-53,-51,3,-3,-3,-12,68
1513481672750184,-32,-23,22,-18,-16,-6,16,-71
1513481672762211,9,-6,-22,-13,-11,-3,1,6
1513481672762211,39,27,-16,-9,3,1,-3,15
1513481672771199,-19,18,30,40,10,7,-11,59
1513481672771199,12,-13,14,-29,-5,-11,-3,-11
1513481672786221,-10,-38,-29,8,-2,-5,-13,15
1513481672786221,-12,-13,0,7,0,-5,7,-7
1513481672788223,22,10,-18,-4,-1,7,1,-34
1513481672788223,-10,6,11,-21,0,0,5,10
1513481672809263,21,75,44,16,7,2,6,-35
1513481672809263,-17,-62,12,8,-18,-8,-17,16
1513481672810235,-34,-21,-43,-23,-2,-8,-11,-19
1513481672810235,9,11,9,5,1,3,8,21
1513481672822244,-30,11,9,11,5,6,-16,-13
1513481672822244,1,11,-7,-12,-5,-3,7,-9
1513481672831249,12,13,13,21,4,-2,-2,-15
1513481672831249,-30,-26,-15,-6,-1,0,-2,6
1513481672846251,-11,-24,-10,-15,-2,2,9,8
1513481672846251,15,5,17,-10,3,-6,-17,31
1513481672848253,-36,-3,-4,-7,-17,-2,10,-43
1513481672848253,16,36,2,13,6,-5,-11,16
1513481672869279,38,-30,-9,-20,-3,0,0,18
1513481672869279,-16,-39,-25,13,-2,7,21,-39
1513481672870281,7,45,27,1,6,6,-11,15
1513481672870281,-20,1,-1,-9,7,3,-2,-26
1513481672882301,-13,23,19,4,1,-1,-4,22
1513481672882301,34,-21,-39,-25,-13,-8,-4,-29
1513481672891297,27,2,4,14,15,1,1,5
1513481672891297,35,34,11,4,2,4,21,37
1513481672906313,-14,-5,17,19,0,-5,-14,8
1513481672906313,9,-46,-21,-31,-5,-3,24,-31
1513481672910297,-20,17,33,43,20,6,-16,14
1513481672910297,-10,-25,-26,-6,-10,-6,3,9
1513481672929320,31,5,20,-4,-3,-3,5,11
1513481672929320,-14,35,-11,9,4,4,-8,12
1513481672930312,0,-10,3,-33,-3,-9,-9,9
1513481672930312,-43,-28,27,20,3,-2,1,-11
1513481672942329,-11,1,-32,-6,-9,-2,3,-7
1513481672942329,-28,2,21,4,-7,-5,-5,11
1513481672951325,-2,39,-11,-37,-6,-3,-15,-34
1513481672951325,8,-37,-2,47,6,3,5,-6
1513481672967357,-26,-80,-49,-20,-6,-8,0,46
1513481672967357,36,33,31,8,-7,1,-5,0
1513481672968338,-16,-26,-25,-15,-7,1,12,-1
1513481672968338,-24,47,25,11,9,4,-5,9
1513481672988364,13,-12,-10,-10,-6,-1,4,-25
1513481672988364,-22,25,-4,24,1,-2,0,-10
1513481672990354,2,-8,43,8,6,1,-6,-1
1513481672990354,22,-26,-55,-39,-12,-10,-7,-10
1513481673002371,-9,-38,-8,11,3,6,-4,-27
1513481673002371,-4,27,24,2,5,-5,-11,19
1513481673012396,23,19,-13,-1,2,-2,-3,0
1513481673012396,15,-1,-6,0,-1,-4,-17,9
1513481673026378,3,22,12,-4,-4,0,9,-35
1513481673026378,18,3,-2,4,0,3,-10,15
1513481673028395,15,-28,15,4,1,-4,7,10
1513481673028395,18,9,5,-11,-2,-3,-2,1
1513481673048394,12,43,-16,5,5,-2,0,15
1513481673048394,18,1,12,-9,1,3,3,0
1513481673050397,20,12,5,19,-10,-9,-15,-14
1513481673050397,-14,-29,13,-41,-7,3,13,50
1513481673062410,-42,29,-27,22,12,5,12,-28
1513481673062410,22,-8,-13,-6,0,0,-1,2
1513481673071411,-25,-12,-38,-1,-2,-5,-4,-11
1513481673071411,10,16,9,-14,-5,-3,-2,5
1513481673086431,-5,-1,47,7,-3,-6,-19,3
1513481673086431,-38,-26,-41,-7,-4,5,11,-12
1513481673088432,28,0,-19,-4,12,7,11,24
1513481673088432,-25,61,-13,8,2,-5,-6,-23
1513481673108452,4,-23,16,-4,-10,-2,2,-3
1513481673108452,-29,19,18,25,5,0,-3,34
1513481673110448,2,-14,9,-22,1,0,-1,-23
1513481673110448,26,-11,-23,-6,-10,-8,1,11
1513481673131452,-3,45,-2,-9,3,2,-5,-3
1513481673131452,14,-36,29,25,0,1,21,10
1513481673132453,-38,-22,-29,-3,-8,-3,-4,-18
1513481673132453,-4,-1,3,0,3,-5,-14,12
1513481673146464,12,-8,-1,-15,-11,-2,-8,4
1513481673146464,12,-10,34,6,-3,-5,-7,-2
1513481673147465,10,-5,-54,-9,5,-3,-5,-4
1513481673147465,-35,-43,-5,16,-7,3,-16,-11
1513481673168479,-7,13,24,-11,-3,-8,-5,15
1513481673168479,16,23,-34,14,8,8,3,-39
1513481673170480,-9,1,49,16,2,-8,-19,22
1513481673170480,24,-5,2,4,-3,2,3,-26
1513481673191497,11,-24,-8,-6,-7,-3,14,-3
1513481673191497,-1,16,-31,-14,0,-4,-2,10
1513481673192496,7,-31,6,-10,-6,-5,-4,15
1513481673192496,-6,8,18,11,0,0,-1,-20
1513481673206507,-27,-11,-17,-7,-2,4,17,7
1513481673206507,9,-8,-4,-26,-6,-6,-1,7
1513481673209510,-2,35,32,16,0,-2,-11,5
1513481673209510,-3,-60,-34,-28,-7,3,4,-7
1513481673228539,10,23,1,6,1,0,5,0
1513481673228539,-12,-10,-13,-6,-9,-1,-11,-7
1513481673230523,3,28,8,-1,6,4,6,-11
1513481673230523,-10,12,29,25,11,3,14,14
1513481673251599,-5,18,-57,-12,-10,-2,-1,-12
1513481673251599,-2,-10,-5,-5,1,1,-7,-3
1513481673252600,-9,16,2,-7,2,0,-2,5
1513481673252600,12,5,10,17,-1,-10,-6,-1
1513481673273658,-7,0,-25,-7,-3,6,5,-14
1513481673273658,-8,10,8,-8,-6,-10,-8,0
1513481673275611,3,-13,12,4,-1,0,10,1
1513481673275611,-2,4,-15,-8,2,2,-5,3
1513481673288639,-9,-41,1,4,-4,-1,-8,-9
1513481673288639,-9,6,3,-3,-1,-2,4,-6
1513481673290625,23,17,-6,-8,-6,-10,-5,14
1513481673290625,6,-4,-11,-3,3,2,-1,-9
1513481673311630,-17,-2,36,-15,-2,-3,4,-9
1513481673311630,4,-1,-17,24,3,6,0,-6
1513481673312649,21,-1,-13,-13,4,-1,-19,13
1513481673312649,21,23,-5,-8,3,-2,14,3
1513481673325643,-28,12,-1,7,-8,-1,2,9
1513481673325643,44,-9,35,4,-5,-1,-4,-8
1513481673332648,-24,-1,-39,-16,0,1,2,-5
1513481673332648,-39,-29,-21,-11,-9,-4,-15,-18
1513481673348658,20,21,10,11,6,3,12,8
1513481673348658,-12,2,26,13,0,4,-8,-21
1513481673350673,15,-6,-26,-2,-4,-5,-5,-17
1513481673350673,-11,-2,11,-3,2,4,4,-8
1513481673371673,-4,-6,8,5,-8,-4,-4,5
1513481673371673,-4,1,5,0,2,3,3,1
1513481673372674,2,3,21,3,6,0,-3,-9
1513481673372674,12,14,-8,-2,1,1,0,-7
1513481673385687,17,-7,16,5,-3,-5,0,19
1513481673385687,-22,6,-3,-13,-5,-1,3,-3
1513481673392689,11,-20,-1,-5,-1,1,0,6
1513481673392689,8,12,15,12,10,-1,-6,4
1513481673408700,1,4,-34,0,-8,1,1,-24
1513481673408700,14,14,-2,-12,5,2,9,19
1513481673412702,28,-20,14,2,-2,0,-8,11
1513481673412702,-35,-43,16,16,2,-1,0,1
1513481673431725,19,9,-37,-9,-1,4,20,8
1513481673431725,18,-14,-19,1,-5,-3,-6,-3
1513481673432716,13,13,4,-4,-1,-7,-9,-5
1513481673432716,-11,4,7,-10,-10,-7,-5,9
1513481673445737,-18,-18,22,6,0,1,-2,-12
1513481673445737,-13,-18,-15,10,2,6,16,20
1513481673452731,-5,14,17,6,9,-4,-8,-10
1513481673452731,14,3,9,-8,-3,3,0,9
1513481673468754,-23,-25,-12,-5,-7,-4,2,-23
1513481673468754,-35,14,10,-1,-2,-5,-14,-1
1513481673470755,-17,-10,-18,2,1,2,2,-14
1513481673470755,-9,-16,13,3,-3,-5,0,0
1513481673491771,6,42,-24,-23,-6,-3,-7,16
1513481673491771,7,-25,4,6,-9,-3,-1,-19
1513481673492771,-1,-18,-18,-3,0,1,9,20
1513481673492771,12,28,6,-16,5,2,-7,-12
1513481673505779,-11,-31,-10,32,-6,-3,0,2
1513481673505779,37,15,6,-17,-8,-10,-25,16
1513481673512774,-10,9,23,3,6,3,4,12
1513481673512774,8,-4,-7,-2,-7,-2,5,-18
1513481673528794,4,32,35,16,9,2,-1,22
1513481673528794,-13,17,-1,-10,0,0,-1,-7
1513481673530800,-8,6,-23,8,4,-1,0,-4
1513481673530800,6,1,18,-14,-5,-1,0,0
1513481673551801,-3,-37,9,4,0,0,0,-3
1513481673551801,1,-3,-8,-5,0,-1,6,9
1513481673552802,8,11,3,-16,-1,3,-1,-28
1513481673552802,9,2,-18,4,2,-3,-3,7
1513481673565827,-5,3,22,-4,-6,2,9,3
1513481673565827,-21,7,-6,40,5,0,-5,17
1513481673579821,-7,-26,-23,-18,0,3,11,-8
1513481673579821,-9,-8,-8,-4,-2,-2,-5,-11
1513481673588826,-58,-6,19,15,-5,-1,-3,-16
1513481673588826,11,-1,-16,-21,-7,-3,-4,4
1513481673590828,10,0,37,15,7,3,-5,-3
1513481673590828,-16,-14,3,6,3,-6,0,-9
1513481673611844,15,-23,-48,-22,-13,-7,-2,2
1513481673611844,6,28,36,2,0,-1,-1,-18
1513481673612845,-10,-34,-1,5,-1,-2,-11,5
1513481673612845,-13,-18,-18,-8,-1,1,5,-14
1513481673624852,13,30,22,0,-1,-2,2,-4
1513481673624852,-13,-11,4,1,1,2,6,4
1513481673633858,-7,-3,-1,-10,-1,-4,4,-9
1513481673633858,6,5,-19,6,-2,0,-9,27
1513481673648870,5,12,3,11,2,4,12,-12
1513481673648870,1,-29,-4,-14,-6,-6,-1,-2
1513481673650871,13,23,2,1,1,0,-6,-8
1513481673650871,-8,-25,-38,-5,-1,2,11,12
1513481673670885,3,36,12,-4,-7,-2,-2,-1
1513481673670885,11,-26,1,3,-1,-1,2,-10
1513481673672898,-20,-13,-2,1,2,-1,-5,9
1513481673672898,-15,6,-1,-8,-7,-2,2,-7
1513481673684915,-12,-16,-15,-4,-3,4,3,11
1513481673684915,0,12,-7,-4,0,1,2,-4
1513481673693903,19,-2,-15,-4,4,3,0,22
1513481673693903,5,4,21,9,-1,-4,-17,-4
1513481673708912,-8,0,-2,-16,-11,-5,1,18
1513481673708912,-7,-11,-11,-5,1,3,-5,-21
1513481673711914,19,-35,-27,-3,-3,-3,-2,14
1513481673711914,13,12,16,3,1,3,3,9
1513481673730937,-42,4,5,11,-3,-1,-7,-37
1513481673730937,-3,8,7,-5,3,3,1,40
1513481673732928,2,5,-4,-1,-5,-5,-3,-21
1513481673732928,7,-3,8,5,8,2,0,-1
1513481673744939,17,-6,7,-4,-8,-1,0,-4
1513481673744939,-17,-25,-22,4,-1,-2,0,-10
1513481673753948,-14,18,43,12,4,0,-2,-3
1513481673753948,-3,-16,-38,-35,-6,-2,4,2
1513481673768955,-1,14,16,14,4,4,6,-5
1513481673768955,8,10,0,-4,-1,-3,2,-10
1513481673769955,8,-12,-13,-5,0,-2,-11,6
1513481673769955,0,11,16,1,-5,3,8,-6
1513481673791026,-10,14,4,-6,-6,-5,-12,5
1513481673791026,12,-10,-19,-1,-8,-5,2,2
1513481673792972,3,-16,9,-6,1,-1,4,-2
1513481673792972,-1,11,-2,10,4,-2,-3,4
1513481673805010,5,-12,-8,-16,-3,1,4,-11
1513481673805010,13,6,7,8,5,1,1,38
1513481673813987,-1,31,-9,-5,-2,2,-4,-25
1513481673813987,-5,-46,10,9,-2,-1,-4,-7
1513481673829000,10,24,-19,0,-2,-6,-3,29
1513481673829000,-7,-7,19,-7,3,1,-4,-23
1513481673830001,-23,2,-23,-5,-3,-2,-6,1
1513481673830001,-9,-7,-17,-2,-5,0,2,1
1513481673851012,-1,-9,6,-3,-5,-3,-1,-3
1513481673851012,-1,29,7,13,-1,2,-2,-9
1513481673853028,10,-7,-2,-5,3,-4,-7,7
1513481673853028,15,0,-3,1,-1,-1,-7,-4
1513481673865023,-10,-3,19,-8,-3,-1,8,-1
1513481673865023,-7,-18,-36,3,-7,-3,-2,-11
1513481673874029,-2,-8,-4,5,1,-2,2,0
1513481673874029,-17,3,-4,-2,0,3,1,7
1513481673889068,23,10,23,4,2,3,-4,-25
1513481673889068,3,-34,-34,-26,-2,0,14,18
1513481673890041,-4,33,19,3,4,-2,-17,-8
1513481673890041,-13,-65,-10,-13,-8,-4,6,-2
1513481673911067,-1,6,1,21,5,5,15,29
1513481673911067,-3,19,14,-12,-4,-5,-10,-16
1513481673913057,-10,-11,-27,-5,1,-1,-12,-7
1513481673913057,-10,11,-13,5,-3,-3,0,4
1513481673925076,2,-6,28,1,0,0,3,-4
1513481673925076,-7,11,-19,4,-3,-5,0,-19
1513481673934082,-4,-19,-5,-14,3,1,10,21
1513481673934082,4,52,46,19,1,-4,-10,-24
1513481673949084,1,-44,-49,-4,-13,-1,-2,8
1513481673949084,6,26,18,4,4,0,-5,-2
1513481673950084,10,11,16,7,2,1,-2,-1
1513481673950084,18,20,-4,-8,3,0,3,4
1513481673971100,2,6,-4,1,-7,-5,-9,-10
1513481673971100,-1,20,19,6,7,3,2,3
1513481673973099,9,-3,-5,-4,6,0,-2,0
1513481673973099,4,6,3,-2,-1,-1,6,8
1513481673985107,-1,-9,19,-3,-4,-1,2,3
1513481673985107,-4,7,-17,-8,-5,-1,-2,-3
1513481673994114,-5,2,10,10,3,-4,-5,-1
1513481673994114,-4,4,-38,-15,-5,1,-2,-14
1513481674009128,7,12,2,2,-3,-1,15,1
1513481674009128,-2,-38,8,5,-5,-1,-7,10
1513481674010124,8,-7,-3,-4,3,-1,-2,-6
1513481674010124,1,-30,-4,-4,-3,-8,-8,1
1513481674031140,1,11,4,-3,-11,3,-4,-21
1513481674031140,16,0,5,4,1,3,7,6
1513481674033141,-2,12,5,-1,4,-3,-18,18
1513481674033141,-18,-28,-21,-3,-2,0,2,-19
1513481674054156,2,0,-11,1,1,-2,10,-4
1513481674054156,-8,7,11,4,-2,-2,-16,-12
1513481674055157,-21,-24,-16,-2,3,-1,2,-11
1513481674055157,8,33,20,14,-1,2,6,9
1513481674069167,-10,-1,-10,1,1,-3,-7,2
1513481674069167,-19,-17,-5,-11,-10,-1,7,6
1513481674070180,5,-9,0,12,2,-2,2,-10
1513481674070180,-9,9,2,-11,-5,-2,-8,9
1513481674091198,-5,3,-5,1,-2,0,3,-27
1513481674091198,-7,1,-10,-8,-1,-4,-2,5
1513481674093183,-2,-20,-9,1,-3,-1,-1,11
1513481674093183,6,17,13,-12,-4,0,-1,0
1513481674114198,-34,-39,-18,29,-8,-1,3,2
1513481674114198,7,2,-21,-16,5,3,2,-9
1513481674115200,-1,-14,12,-10,-2,-4,-5,-5
1513481674115200,8,19,4,8,4,3,2,-1
1513481674129210,22,7,2,-8,0,-1,5,29
1513481674129210,15,11,15,13,2,-3,-18,-10
1513481674130209,-16,-10,2,1,-5,-1,9,-13
1513481674130209,18,4,-16,-10,2,-5,-3,5
1513481674151227,-27,-11,6,-11,-5,-2,-4,3
1513481674151227,-1,-1,-6,19,4,4,13,4
1513481674153227,16,30,2,-19,2,2,5,-8
1513481674153227,-12,-21,-3,4,1,3,-5,3
1513481674174296,-9,-2,-6,-6,-3,-2,-4,-3
1513481674174296,11,1,4,-13,-2,0,8,7
1513481674175242,-24,4,6,-4,1,-1,-7,-9
1513481674175242,-2,8,5,23,-1,-1,0,-1
1513481674188272,5,-11,2,-4,-2,1,3,-11
1513481674188272,-17,9,-14,0,0,-3,-2,3
1513481674195257,22,-9,10,-7,2,-1,-9,8
1513481674195257,2,14,12,-20,-2,-2,0,-2
1513481674211282,2,-5,-40,4,-4,0,-8,-1
1513481674211282,-1,10,24,13,0,-2,-6,0
1513481674213290,-29,2,-23,-6,0,0,10,-3
1513481674213290,-3,-20,-5,-8,-8,-4,6,-15
1513481674234287,-10,14,21,12,-2,-2,-9,-3
1513481674234287,7,-6,3,-13,-2,3,-2,4
1513481674235288,-9,-14,1,16,5,0,-10,15
1513481674235288,-11,7,2,-14,2,0,7,-22
1513481674248308,-12,-8,-21,4,-11,-3,3,-7
1513481674248308,-6,-9,12,1,4,-2,-6,-1
1513481674255313,33,31,9,6,3,-3,4,-6
1513481674255313,-8,-41,-33,-5,-8,5,6,6
1513481674271311,0,7,4,-17,0,1,6,5
1513481674271311,-6,-17,9,3,1,0,-2,0
1513481674273311,4,16,2,1,-2,1,-1,-8
1513481674273311,-1,-26,-15,-4,-3,-6,-1,-3
1513481674294326,10,13,-9,-8,-4,1,8,4
1513481674294326,-17,-14,-5,13,3,-1,-4,5
1513481674295326,-8,17,21,-9,-4,1,0,-10
1513481674295326,1,18,15,-1,-2,-3,-2,4
1513481674308359,16,1,4,5,0,2,-8,-11
1513481674308359,10,-1,-33,-10,-5,0,23,3
1513481674315341,-26,-53,-36,-3,-1,-3,-5,-16
1513481674315341,6,10,36,10,5,0,-6,10
1513481674331351,-4,-3,0,-8,-4,-5,-14,-10
1513481674331351,8,16,10,-4,-6,-1,11,6
1513481674333352,2,3,-12,-2,3,0,0,-1
1513481674333352,7,-2,-16,-14,-3,-2,-12,3
1513481674353376,-3,1,19,16,0,1,14,5
1513481674353376,-5,-9,-6,2,-2,1,-10,-4
1513481674355369,13,-5,2,-12,-1,-6,3,-10
1513481674355369,-9,-18,10,-1,-4,-2,2,0
1513481674368381,-15,-4,-28,2,5,1,14,15
1513481674368381,17,24,24,4,-2,-1,-16,-10
1513481674375386,3,-6,-10,-7,-5,-2,6,7
1513481674375386,-13,16,-5,2,0,0,-3,-13
1513481674391398,5,8,40,10,0,-1,-1,6
1513481674391398,3,-22,-46,-9,-2,-6,-5,-1
1513481674393396,2,-25,3,-9,0,1,-10,8
1513481674393396,21,19,-18,8,-2,0,12,10
1513481674413423,7,-1,38,-1,-3,-1,-3,2
1513481674413423,-26,-2,-26,-16,-2,0,0,-2
1513481674415411,13,-7,-9,3,1,-1,-3,7
1513481674415411,7,-10,2,5,0,2,8,-2
1513481674428435,-16,15,-8,-11,-3,0,-1,-8
1513481674428435,-8,-5,22,-3,-3,-6,-4,-7
1513481674435447,-4,6,-3,3,9,2,3,7
1513481674435447,-13,-3,-8,15,2,1,-10,-11
1513481674451438,1,-13,-5,-5,-6,-2,0,5
1513481674451438,-31,-5,17,0,4,-3,-3,-12
1513481674452438,-1,-31,-13,-7,-5,-2,5,-5
1513481674452438,-12,5,-11,6,-6,-1,-2,5
1513481674473451,-14,-6,-16,-14,-7,-3,-1,-7
1513481674473451,23,-6,14,11,6,3,-8,-3
1513481674475453,8,26,11,9,1,-1,-17,-8
1513481674475453,-7,-12,-12,-13,-3,-1,3,-2
1513481674488484,10,2,4,-10,-5,-1,2,5
1513481674488484,-2,-10,-16,5,0,-4,-5,-8
1513481674494478,-3,23,-6,0,3,1,-2,4
1513481674494478,-14,2,16,0,2,-1,3,5
1513481674511481,-2,17,-23,-9,-3,-3,-4,-21
1513481674511481,2,-17,15,-6,-4,-4,-7,10
1513481674513482,-4,17,4,13,6,3,-3,-11
1513481674513482,8,-9,8,-2,-5,-3,-2,-11
1513481674533496,-9,-5,3,-3,-4,-2,-3,-7
1513481674533496,-10,30,-7,11,5,4,5,-1
1513481674535495,-18,-60,-27,-23,-6,-8,4,11
1513481674535495,19,-17,8,9,-4,-4,-5,-3
1513481674547505,13,1,15,-1,-2,0,-5,2
1513481674547505,-2,12,6,-5,0,0,-8,7
1513481674556510,11,-4,-18,-10,-8,-2,5,4
1513481674556510,4,15,-19,-6,3,-4,-6,12
1513481674571522,17,-16,8,9,-5,1,2,-16
1513481674571522,-12,5,-12,-7,0,-1,3,21
1513481674572523,2,-7,5,-1,6,-1,-7,2
1513481674572523,6,8,23,-2,-9,1,11,-2
1513481674593537,-24,-12,-34,9,7,6,0,-2
1513481674593537,23,2,34,-4,-2,0,-5,0
1513481674595541,-1,21,-7,9,4,3,4,-5
1513481674595541,-9,-9,-12,-17,-5,-4,-5,-4
1513481674607571,-3,-34,16,12,3,1,6,9
1513481674607571,13,3,1,4,1,-1,-6,-13
1513481674616554,8,-8,6,-9,-2,-2,5,8
1513481674616554,-19,9,15,3,1,0,-5,-9
1513481674631563,1,15,-4,-6,0,-2,5,20
1513481674631563,-16,-32,-39,15,1,2,-6,-19
1513481674634566,4,11,33,1,3,-2,1,-7
1513481674634566,-18,5,-26,-11,-3,1,-6,2
1513481674653579,-5,2,-1,2,2,2,-4,2
1513481674653579,3,3,18,-9,1,-4,7,10
1513481674655580,-4,-2,-24,21,4,-2,-4,-11
1513481674655580,-8,10,29,-2,-3,2,-1,-1
1513481674667589,-1,4,-8,-7,-8,-4,-5,-4
1513481674667589,5,-10,4,-6,-1,0,-3,-7
1513481674676596,-8,0,-13,-11,-1,-1,-2,1
1513481674676596,16,8,22,4,2,-1,-2,3
1513481674691607,1,14,-35,-1,-4,2,0,3
1513481674691607,-10,-31,-15,0,-2,-3,-5,-17
1513481674692608,11,4,12,-3,2,-2,-9,8
1513481674692608,2,-8,11,2,-4,-4,0,-4
1513481674713623,-28,-7,-16,-6,-2,0,-2,0
1513481674713623,30,6,-5,4,3,2,8,6
1513481674715624,-32,48,22,0,0,-1,-2,8
1513481674715624,1,-46,-28,-9,-7,-5,10,3
1513481674727635,3,6,7,10,0,1,-12,-16
1513481674727635,10,13,3,-9,-3,-5,-7,0
1513481674736639,6,-9,34,18,2,-1,5,4
1513481674736639,21,8,-34,-18,-6,1,0,11
1513481674751650,-6,11,6,-6,-3,-3,5,-15
1513481674751650,16,-8,4,12,3,1,-3,11
1513481674752650,3,21,-40,-19,-9,-5,-5,-9
1513481674752650,-6,14,9,14,3,3,11,-6
1513481674773664,29,-31,-2,2,3,3,0,18
1513481674773664,-1,22,31,2,0,-3,-17,-6
1513481674775681,-22,-10,-14,-10,-3,-4,-3,-5
1513481674775681,-44,5,7,-6,-1,2,1,3
1513481674787691,12,19,10,29,1,-1,-9,3
1513481674787691,-11,22,15,-21,0,-3,-2,-15
1513481674796681,9,-16,2,-6,0,1,-9,24
1513481674796681,7,11,3,6,0,-4,-7,-11
1513481674811692,-3,-17,0,-14,-10,-7,4,-7
1513481674811692,-11,9,-20,7,3,-2,-4,9
1513481674812692,-3,13,27,2,-1,0,-11,-4
1513481674812692,5,-11,-13,0,1,-3,1,1
1513481674833706,-8,-32,-7,8,-10,-1,8,-22
1513481674833706,13,-2,-4,-3,0,-1,3,20
1513481674835708,-5,-29,-14,-7,2,0,1,-11
1513481674835708,-17,8,4,9,-7,-4,-3,-6
1513481674847717,4,18,8,-14,-7,-5,0,-1
1513481674847717,-9,-20,-17,-2,1,-1,2,6
1513481674856723,2,-17,22,6,-1,-2,12,-4
1513481674856723,-12,-10,-29,0,-6,-1,-3,-2
1513481674871734,-13,10,15,-9,-2,-1,-6,-2
1513481674871734,2,-5,-17,-6,-1,-3,-1,2
1513481674872735,-8,1,-11,-10,-4,0,-8,-12
1513481674872735,-3,-19,-12,4,-7,-4,8,-3
1513481674893750,4,8,-20,-17,1,-2,0,10
1513481674893750,0,18,0,3,2,-4,-14,-5
1513481674895752,3,-29,8,1,-2,-3,3,-6
1513481674895752,10,-1,-12,-2,-2,1,-4,12
1513481674907760,-19,-1,14,10,-5,0,-3,-31
1513481674907760,4,7,-15,-21,2,1,2,-1
1513481674916766,-18,5,1,9,4,-3,-1,6
1513481674916766,12,-3,39,-3,-8,1,0,-10
1513481674931777,-37,-30,-40,-13,-2,0,7,24
1513481674931777,-9,-15,-4,8,4,-2,-11,-10
1513481674932782,8,7,-27,13,3,3,-1,-6
1513481674932782,-1,9,0,-4,-6,-2,10,0
1513481674953807,5,8,23,-2,2,-3,-11,5
1513481674953807,3,6,12,-8,2,-4,-4,-6
1513481674955808,8,13,-14,0,1,1,4,5
1513481674955808,-7,-21,18,10,-4,2,3,2
1513481674967801,8,18,20,0,2,-1,-9,-1
1513481674967801,0,14,-19,2,7,4,-1,0
1513481674976808,14,6,14,-12,0,-1,-3,3
1513481674976808,-2,-8,-18,-8,-6,-2,20,9
1513481674991819,5,8,13,12,9,1,-7,-17
1513481674991819,-1,-11,15,14,-8,-3,-9,4
1513481674992819,2,2,-22,-29,-1,-3,1,8
1513481674992819,-8,-3,-12,-2,-7,0,0,-25
1513481675013835,9,9,-2,-2,-4,-8,2,13
1513481675013835,24,6,10,7,4,1,-5,2
1513481675015836,-23,-12,3,2,-7,-1,-8,-10
1513481675015836,-4,12,-4,-10,-5,-3,-4,4
1513481675035850,8,14,-13,6,7,0,-5,-8
1513481675035850,-5,6,-2,-12,-6,-1,4,-2
1513481675037851,-7,4,13,1,-4,-3,-3,-11
1513481675037851,-14,-7,5,-1,1,1,-1,-5
1513481675050860,-23,2,-23,2,-11,-1,1,-17
1513481675050860,22,-17,4,-9,10,4,1,12
1513481675057869,10,-4,-2,-5,-2,-5,-1,5
1513481675057869,-7,18,23,5,-1,1,-5,-7
1513481675073877,13,-9,-6,14,-6,-6,0,2
1513481675073877,-5,-17,-5,5,3,3,2,5
1513481675075878,-6,17,1,-2,-3,-1,1,-5
1513481675075878,-3,-2,-9,-12,1,1,-1,3
1513481675095893,-15,-12,0,1,-3,1,-5,1
1513481675095893,5,8,-4,-5,5,-2,5,12
1513481675097894,16,-1,10,16,5,3,5,3
1513481675097894,12,14,3,9,-5,4,7,3
1513481675110905,2,-6,6,-10,6,-1,1,4
1513481675110905,-8,-31,-17,-5,0,-3,3,-15
1513481675112913,6,-3,12,-13,-3,0,-4,1
1513481675112913,0,-3,-42,-2,-3,-2,5,8
1513481675133919,15,15,49,-5,-1,-1,-1,-3
1513481675133919,-3,-7,-22,17,-4,-3,-10,-6
1513481675134921,-21,-19,-21,-25,-12,-6,-5,-2
1513481675134921,-28,-26,11,-1,-2,0,0,-11
1513481675155938,10,-4,21,12,2,1,-8,9
1513481675155938,-16,2,-16,-10,-2,-3,-5,-11
1513481675157936,5,3,-14,8,4,2,-3,1
1513481675157936,2,16,23,-3,-1,0,1,-3
1513481675170945,-3,-30,-15,-12,-7,0,-2,4
1513481675170945,-29,4,15,10,4,-1,-2,-3
1513481675176948,14,-10,-14,2,-5,-1,-4,-10
1513481675176948,2,10,6,1,3,-1,17,4
1513481675193963,6,21,16,7,2,4,2,14
1513481675193963,-1,-31,8,3,-2,-4,3,-7
1513481675194964,-3,14,-12,-23,0,0,-1,16
1513481675194964,0,-6,-24,7,-1,2,3,-18
1513481675215977,20,3,-27,-6,-2,0,4,11
1513481675215977,12,31,40,-10,5,2,-11,4
1513481675217979,-32,-11,-7,3,0,-2,6,-23
1513481675217979,18,16,16,-8,-6,-8,-11,6
1513481675230988,-7,-43,-8,11,-8,-1,0,-2
1513481675230988,-1,0,-34,-7,2,5,2,4
1513481675237998,12,4,20,4,4,-1,5,-5
1513481675237998,-6,-24,-29,8,-2,-1,-9,4
1513481675254004,-14,41,7,-2,2,0,0,-16
1513481675254004,21,12,14,10,7,1,1,9
1513481675255004,-4,-31,-18,-4,-1,0,-1,-3
1513481675255004,1,15,7,-8,-4,0,3,8
1513481675276022,8,18,3,0,0,-3,-2,6
1513481675276022,8,-9,-20,-3,6,-2,-5,-2
1513481675278020,15,11,-2,8,3,4,0,19
1513481675278020,-2,0,41,5,-2,3,0,-15
1513481675291037,-13,-9,-45,-17,-5,-7,7,2
1513481675291037,9,11,12,-3,0,-5,-13,-4
1513481675297035,-25,-18,-1,2,-4,-4,-4,-10
1513481675297035,-6,1,8,1,-3,-1,-2,-2
1513481675314047,-6,-12,10,8,-1,2,11,8
1513481675314047,-5,-38,-30,-16,-5,-8,-4,-1
1513481675315048,-6,7,17,5,3,1,2,-2
1513481675315048,-1,-2,-28,-15,-9,2,12,12
1513481675336061,4,-8,21,40,5,3,-1,-20
1513481675336061,10,10,-12,-15,-1,-1,0,-2
1513481675338063,9,6,-4,3,-8,-5,-8,3
1513481675338063,-6,-15,-16,-19,-4,0,2,-3
1513481675351072,15,18,14,-14,-2,-2,-7,-6
1513481675351072,-20,-7,-13,21,3,1,-2,-1
1513481675357080,7,-11,8,-5,4,-1,-1,1
1513481675357080,-19,14,19,8,-6,-1,-1,-19
1513481675374089,24,31,-9,-19,3,0,-3,9
1513481675374089,13,2,14,7,1,1,-4,-18
1513481675375090,-24,-44,-24,-5,-8,1,9,10
1513481675375090,8,-9,11,1,-1,-2,4,-5
1513481675396106,6,6,-7,-4,4,-1,0,2
1513481675396106,10,20,-1,-6,-2,-5,-14,-13
1513481675398108,12,-30,-10,0,-1,2,6,3
1513481675398108,-6,11,9,-1,-6,-3,1,-13
1513481675411115,-13,-33,-8,15,0,4,5,-2
1513481675411115,12,1,-12,-25,2,-5,-5,26
1513481675417121,3,25,-20,6,-2,-3,-6,-9
1513481675417121,-13,-19,11,-5,-4,-1,1,4
1513481675434132,-14,2,5,-11,-8,-6,-7,-2
1513481675434132,1,4,12,12,4,1,1,2
1513481675435133,-21,-3,14,-3,-1,1,2,-5
1513481675435133,6,10,0,-3,-6,-7,-9,4
1513481675456146,10,-1,-9,-12,5,-2,1,-6
1513481675456146,13,1,13,15,2,2,-5,-1
1513481675458148,-37,7,2,10,-2,0,3,-1
1513481675458148,-1,9,0,8,0,4,-4,-2
1513481675470157,1,2,5,-10,-4,-3,-4,4
1513481675470157,0,-19,-2,-11,0,-1,5,-8
1513481675478168,24,29,10,0,5,-4,1,5
1513481675478168,-14,16,8,4,-9,-4,-15,-5
1513481675494174,-16,-11,-17,1,-3,-1,-8,-7
1513481675494174,-21,3,10,-1,5,0,2,11
1513481675495175,17,2,-9,-1,-7,-1,0,-11
1513481675495175,15,-19,3,3,-3,-5,12,9
1513481675516190,6,10,-4,-2,-3,-2,-3,1
1513481675516190,8,3,4,-11,1,-2,-2,-13
1513481675522194,9,10,4,-5,-5,0,-3,9
1513481675522194,-3,-14,-25,4,2,0,3,-5
1513481675530200,10,-3,-2,-3,-4,-6,0,20
1513481675530200,-33,-6,6,-3,-3,-1,2,-14
1513481675540207,-6,-3,9,0,3,5,-5,10
1513481675540207,1,-7,-6,0,-9,-2,5,-5
1513481675554219,7,9,-3,-2,1,3,14,4
1513481675554219,-9,-21,4,7,3,-3,-6,18
1513481675555222,6,-10,-15,-11,-5,-2,-7,-7
1513481675555222,-23,25,8,-1,-5,0,1,3
1513481675576235,-15,-32,-26,-9,-1,4,4,-24
1513481675576235,1,2,-6,-2,1,-3,-3,-2
1513481675578235,-1,-12,1,-3,-5,-3,0,-6
1513481675578235,-11,3,-6,-4,-2,1,6,4
1513481675590256,-26,34,5,5,-1,0,-9,1
1513481675590256,11,-11,-3,-6,-1,-3,-9,3
1513481675599248,0,-18,-8,4,-4,-5,-5,-4
1513481675599248,-30,10,6,0,-7,0,-2,-8
1513481675613257,2,-7,19,3,0,-2,3,-6
1513481675613257,9,3,-32,-11,7,-1,-8,3
1513481675615258,13,0,5,5,1,0,-2,11
1513481675615258,13,16,21,-2,-6,-2,3,-14
1513481675636275,-1,-29,-17,5,-2,-1,-10,-10
1513481675636275,-25,-40,10,-12,-6,-3,3,-1
1513481675638277,11,31,-7,7,4,1,4,-7
1513481675638277,-2,-22,-10,-1,0,0,-2,4
1513481675650284,-14,16,21,-11,-3,0,2,-8
1513481675650284,13,40,5,13,2,1,-9,3
1513481675659315,-29,-23,4,-6,3,2,-4,-14
1513481675659315,-1,-3,-4,2,-1,3,4,4
1513481675673299,20,-4,-13,1,-1,-3,5,3
1513481675673299,2,17,22,11,5,0,-8,2
1513481675675302,-16,-11,11,-3,0,-2,6,-2
1513481675675302,9,-13,-45,-10,-5,-1,-1,-1
1513481675696317,-10,4,23,2,4,-4,-5,-3
1513481675696317,10,-4,-17,-5,-7,0,4,5
1513481675698318,6,24,11,-10,-4,-4,-1,15
1513481675698318,-12,-8,7,18,-9,-7,-11,-30
1513481675710330,-1,7,-22,-22,4,2,-14,11
1513481675710330,7,19,23,-3,-2,-6,-7,0
1513481675719332,31,4,-17,-5,2,3,10,-8
1513481675719332,10,14,-1,13,1,0,-1,4
1513481675741349,1,-15,-20,-1,-3,-2,-3,-6
1513481675741349,-21,-10,-5,15,3,0,5,-7
1513481675743350,-23,9,2,-15,-8,-2,3,-12
1513481675743350,7,-15,4,1,2,-2,2,21
1513481675756360,14,-1,7,17,6,3,-1,3
1513481675756360,15,-3,-13,10,6,2,3,-8
1513481675758361,-5,5,17,-10,-8,-5,0,-5
1513481675758361,8,-9,-17,-3,3,3,8,9
1513481675770369,-19,1,20,9,-4,-3,1,-8
1513481675770369,22,11,13,-9,6,1,-5,6
1513481675779376,-10,-11,-21,9,-1,-3,-3,18
1513481675779376,10,10,23,-6,-7,-1,-3,-11
1513481675794389,19,14,-4,1,3,0,-8,5
1513481675794389,-17,-10,8,-7,2,-2,15,-15
1513481675795389,6,1,-8,18,4,0,-5,14
1513481675795389,-4,-16,-9,-5,-2,-3,3,-11
1513481675816401,-1,3,29,-3,-5,-4,2,-5
1513481675816401,-41,-29,-22,4,6,1,-6,3
1513481675818402,29,4,5,-2,-1,-3,-2,0
1513481675818402,-30,0,-11,-8,-11,-5,2,-3
1513481675830413,9,-12,0,5,-2,-1,2,3
1513481675830413,-13,5,-9,-18,-4,-1,-5,-5
1513481675839420,7,8,0,-12,-4,-1,-3,-8
1513481675839420,11,-9,-9,7,-1,2,5,9
1513481675853429,-9,-10,-11,-7,-6,-3,-9,-18
1513481675853429,16,-5,8,9,4,3,-3,31
1513481675855430,-10,13,-1,-5,0,1,2,-13
1513481675855430,-1,-21,-34,-14,-10,-8,-12,2
1513481675876444,-12,-1,-2,7,3,5,7,4
1513481675876444,14,8,-4,-4,-1,-2,-5,0
1513481675878450,-4,-1,2,-8,-1,-1,-2,-3
1513481675878450,-4,-2,8,4,1,2,1,3
1513481675889454,-3,4,-5,-1,-2,-4,-2,5
1513481675889454,2,7,3,-10,-1,-3,-4,-12
1513481675898460,-8,-3,-2,3,-3,-2,-3,-3
1513481675898460,-18,-1,0,3,4,3,7,-11
1513481675913470,-13,-9,1,9,0,0,0,22
1513481675913470,12,-4,-22,-18,-7,-4,-4,-12
1513481675915472,-21,-20,29,-2,-2,-5,-3,12
1513481675915472,14,15,-11,-5,-5,0,4,-6
1513481675936486,0,-1,24,7,5,2,8,5
1513481675936486,2,-15,-21,-6,-3,-5,-7,-10
1513481675937487,-2,-1,-7,8,1,3,5,-17
1513481675937487,4,-1,14,-8,0,-1,-1,29
1513481675958513,-12,14,-17,-3,-8,-8,-1,-14
1513481675958513,-9,-15,14,-5,7,2,3,-7
1513481675960503,12,-17,-14,-5,-5,-3,-4,-14
1513481675960503,-2,22,19,3,0,-1,4,10
1513481675973523,3,-19,-2,5,-3,-2,-9,-15
1513481675973523,1,9,15,2,-2,-2,-1,4
1513481675975531,-12,-57,-22,-3,-6,-2,-3,-4
1513481675975531,2,13,-4,0,0,0,9,-11
1513481675996541,-1,-3,6,2,2,0,6,13
1513481675996541,5,-3,-10,-1,1,1,-2,-5
1513481675997542,-2,20,16,0,-2,-1,-5,1
1513481675997542,2,1,-2,2,-6,-4,-12,-7
1513481676018545,-4,-6,6,5,0,4,2,1
1513481676018545,11,-11,-22,0,2,-4,-6,1
1513481676020546,-2,14,3,-8,-1,-2,4,2
1513481676020546,-2,-5,1,-3,-5,0,-2,-3
1513481676033567,12,13,2,-4,5,1,-6,-2
1513481676033567,-1,-1,8,9,0,-1,-1,4
1513481676035556,1,3,-23,-4,-5,0,4,0
1513481676035556,-7,1,4,-1,-4,-2,2,4
1513481676056572,5,-5,-4,-5,-1,-2,-6,-16
1513481676056572,-5,-4,-8,-1,3,-1,1,5
1513481676057573,7,12,3,6,1,1,-1,2
1513481676057573,-7,-8,-8,-1,-5,-2,6,-5
1513481676078601,1,-2,5,-3,1,-1,-4,4
1513481676078601,-4,-3,-9,-7,1,-3,0,-2
1513481676080600,-2,8,0,2,-1,-5,-2,-6
1513481676080600,-6,3,-5,-1,-2,0,-2,-3
1513481676092597,5,-3,-17,-12,-5,-4,-5,-1
1513481676092597,4,0,18,6,3,-1,-1,-1
1513481676099602,5,3,-5,0,0,1,0,-7
1513481676099602,-11,-4,11,4,-6,-3,2,4
1513481676116623,7,1,2,-2,2,-2,1,6
1513481676116623,2,3,-2,-3,-2,-2,0,-2
1513481676117622,-11,-3,-10,1,-2,3,6,-3
1513481676117622,7,7,3,1,-2,-1,-4,3
1513481676138654,8,-8,-4,2,4,-1,-2,5
1513481676138654,-1,2,2,-3,0,-2,-5,-7
1513481676141632,3,-9,1,1,-1,-2,-6,1
1513481676141632,2,-3,9,1,-1,1,5,14
1513481676152640,-5,0,-8,-4,-1,-2,-9,-11
1513481676152640,-3,-3,-13,-7,-2,-2,3,-3
1513481676159645,-3,0,10,-1,-2,-1,-3,8
1513481676159645,-1,0,0,4,-1,-2,-2,-10
1513481676176669,-3,0,18,2,-3,0,2,3
1513481676176669,-5,-6,-35,-5,0,1,-2,-4
1513481676177656,-5,3,9,2,-1,-1,4,2
1513481676177656,-2,-2,-1,0,-2,0,-1,1
1513481676198674,-3,-1,12,-1,-3,-1,-1,-14
1513481676198674,-1,-4,-9,-2,-2,-1,8,17
1513481676200675,0,0,2,-1,-1,-1,-3,2
1513481676200675,-1,1,-1,5,-2,0,10,-6
1513481676213699,-3,-2,4,0,0,-1,-3,0
1513481676213699,-1,-2,-8,-2,-1,-2,-7,-4
1513481676219703,-4,2,10,0,-2,1,2,2
1513481676219703,-4,0,-6,-1,-4,0,2,-2
1513481676243720,0,-3,-21,-6,1,-3,-5,4
1513481676243720,1,-2,4,2,2,-2,-1,-11
1513481676246723,1,-1,1,-1,-2,-1,0,13
1513481676246723,-2,3,7,5,-1,2,1,-17
1513481676258752,2,1,-12,2,1,-4,-5,4
1513481676258752,-6,-5,12,2,0,1,-5,-3
1513481676260717,-3,-4,-11,-7,-6,-2,3,-5
1513481676260717,-2,3,2,-2,-2,-3,-7,-1
1513481676272723,2,-2,-15,-4,-1,2,2,1
1513481676272723,-2,-1,22,3,-2,-1,-3,-4
1513481676279738,1,1,-6,-7,-1,-1,-1,-1
1513481676279738,0,-1,-1,1,-1,-2,2,0
1513481676296741,0,3,-8,-5,0,-3,-8,-6
1513481676296741,-2,-1,-10,-1,2,0,-1,3
1513481676297742,1,-4,4,-2,-1,0,5,2
1513481676297742,-5,2,4,0,-1,-3,-7,-6
1513481676318760,2,-3,-19,-2,0,0,-1,-1
1513481676318760,-2,-1,-12,-8,-5,-2,0,-1
1513481676320761,-4,-2,4,-4,-8,-3,-1,-5
1513481676320761,0,-1,-13,3,-2,1,1,-3
1513481676332770,-5,-6,-11,-8,-4,-2,1,3
1513481676332770,0,1,20,4,2,-1,0,0
1513481676341772,-4,-1,-19,-3,0,-1,2,-7
1513481676341772,-1,1,8,3,-2,-5,-4,3
1513481676357787,1,-1,7,0,2,-2,-4,-4
1513481676357787,2,-5,-17,-5,0,-3,-3,3
1513481676359785,-5,0,24,7,-3,-1,2,-2
1513481676359785,1,-3,-47,-4,-1,2,-1,0
1513481676378813,3,-4,27,-1,1,-4,-11,0
1513481676378813,-3,2,9,-2,1,0,2,-2
1513481676380801,-4,3,11,10,1,-1,1,-1
1513481676380801,1,-1,32,0,-1,-3,0,0
1513481676392810,0,-5,-14,-5,-1,0,-3,2
1513481676392810,2,0,7,3,0,-2,-3,-1
1513481676399831,-3,-2,-23,-1,-2,-1,-2,-5
1513481676399831,-6,-1,11,-7,-2,1,-3,1
1513481676415826,2,-1,-39,1,2,-1,-2,-2
1513481676415826,-2,-4,15,-10,-1,-3,-2,-1
1513481676417827,-1,-3,-8,-6,-8,0,6,-2
1513481676417827,2,-2,-7,0,-3,-2,-3,-3
1513481676438851,6,3,11,2,6,1,-2,3
1513481676438851,-4,-2,-12,-2,0,0,-5,-2
1513481676440842,-4,-1,-5,1,-4,-2,5,-1
1513481676440842,-1,-5,1,-4,-3,-2,0,-2
1513481676451850,-1,2,19,5,-1,1,-1,-1
1513481676451850,-3,-3,-43,-5,-1,-2,-2,-1
1513481676461857,-4,1,10,2,-3,-3,3,-1
1513481676461857,-2,-1,27,-1,-3,0,-6,-2
1513481676475868,-1,-1,-3,0,2,3,-3,0
1513481676475868,2,0,-11,0,5,-2,1,0
1513481676477870,-5,3,-4,-2,-2,1,-1,-2
1513481676477870,1,-5,-4,-4,-4,-1,3,0
1513481676498884,1,-10,-20,-10,4,-2,-6,1
1513481676498884,-9,-5,8,-5,-8,2,4,-5
1513481676500885,-1,2,7,5,-2,-2,5,0
1513481676500885,0,0,-39,3,-1,0,-1,-2
1513481676512894,3,3,2,-2,4,-2,-7,3
1513481676512894,-1,0,35,3,-1,-1,-2,-1
1513481676521901,-1,-3,-23,-2,-5,-5,-3,-4
1513481676521901,-4,-1,-7,1,-1,3,-2,-2
1513481676535916,-1,-5,-23,-10,0,-6,-10,0
1513481676535916,-2,-5,0,-8,-4,-11,-2,-4
1513481676537913,-6,5,4,6,-3,14,18,0
1513481676537913,-2,-9,-23,-7,-5,-6,-1,-2
1513481676558947,1,-5,-28,-2,1,1,3,-3
1513481676558947,-4,3,-6,4,0,0,-5,0
1513481676559943,-3,0,38,5,-3,-3,-1,-1
1513481676559943,0,3,-53,-7,0,1,2,0
1513481676572937,-1,5,25,10,4,1,-2,-1
1513481676572937,-3,-8,29,-4,-9,-4,5,-3
1513481676580941,3,10,-12,2,2,-1,-6,0
1513481676580941,-1,0,44,3,-1,1,-2,2
1513481676595957,1,-20,-40,-17,-3,-5,-2,-2
1513481676595957,5,11,3,5,2,3,-2,2
1513481676597955,-10,-5,27,2,-7,-2,0,-3
1513481676597955,2,5,-17,0,4,0,-2,3
1513481676618969,2,0,15,2,1,-3,1,0
1513481676618969,0,-5,-4,-3,3,2,-3,0
1513481676619970,-2,0,-7,-5,-3,-3,-4,-3
1513481676619970,1,1,7,4,0,-4,-2,-3
1513481676631977,-1,-5,1,-5,-2,-2,3,-4
1513481676631977,-2,1,-2,1,1,1,1,-1
1513481676640985,-4,-2,-32,3,-7,-4,0,1
1513481676640985,-6,-13,-24,-21,-10,-6,3,-3
1513481676656011,5,10,31,8,4,0,-3,4
1513481676656011,-3,-4,-4,-2,0,-2,0,-3
1513481676657996,-5,0,1,2,-4,-2,-1,-6
1513481676657996,0,1,11,5,1,1,0,-1
1513481676679024,3,0,-3,5,2,-1,-3,-1
1513481676679024,-1,1,-14,-3,0,1,-1,2
1513481676680011,1,-4,3,-5,-3,-1,-2,0
1513481676680011,2,-2,-22,-2,0,-1,-1,2
1513481676692021,-1,4,16,3,0,-1,-1,-1
1513481676692021,-1,1,-3,0,-2,-1,-1,-2
1513481676701045,-4,-1,7,-4,-2,2,3,-4
1513481676701045,-1,1,5,-2,-3,-1,-2,-1
1513481676716038,-1,0,2,3,0,-1,-3,0
1513481676716038,4,-4,-7,-5,1,-1,-4,3
1513481676718048,-2,-1,-3,-4,-6,-2,4,-2
1513481676718048,0,5,19,1,-2,0,2,0
1513481676739109,6,6,-3,4,7,2,-7,2
1513481676739109,-6,-12,14,1,-3,-3,0,0
1513481676741055,-3,-7,-42,-23,-8,-4,0,-2
1513481676741055,0,0,15,8,0,-1,-6,-3
1513481676752078,1,2,11,0,1,-2,-3,-1
1513481676752078,1,-3,-26,-1,-1,-1,-2,2
1513481676761070,-3,-2,1,0,-3,0,-1,-1
1513481676761070,-2,1,4,1,-2,0,2,-1
1513481676776080,-1,-2,3,-1,-1,-2,-1,1
1513481676776080,-2,0,-1,4,-2,0,2,-2
1513481676778081,-5,-3,-1,-1,-6,-2,3,2
1513481676778081,-3,3,12,3,2,1,-2,-4
1513481676798096,2,2,32,8,2,0,-2,-2
1513481676798096,-2,-4,-64,-6,-2,-2,1,-3
1513481676799096,-4,2,15,-4,-2,0,2,0
1513481676799096,3,4,4,4,2,0,-4,3
1513481676820110,1,-2,10,-4,1,0,-6,-1
1513481676820110,0,2,1,-1,1,-1,-1,-3
1513481676821111,-4,-4,9,-2,-3,-1,0,0
1513481676821111,-1,-2,18,-5,-3,-3,2,0
1513481676835121,-2,-7,-21,-6,-2,-3,-3,-2
1513481676835121,1,2,40,0,0,-1,-2,-1
1513481676836123,-1,-2,-52,0,-2,0,3,-2
1513481676836123,1,3,13,2,2,-1,-2,0
1513481676858156,2,-8,-12,-6,-1,-1,-4,-2
1513481676858156,-1,0,6,0,2,-1,-1,-1
1513481676859138,1,-2,25,-1,-4,-2,2,-3
1513481676859138,-2,-2,-11,-1,0,0,-3,-2
1513481676880156,-2,-1,-7,-4,1,0,0,-2
1513481676880156,-3,-1,-7,-3,-3,-1,3,-3
1513481676881157,-4,1,3,-1,-4,0,1,0
1513481676881157,0,2,-1,1,-3,-1,0,0
1513481676896168,4,5,-2,6,3,1,-4,2
1513481676896168,-4,-11,24,-9,-4,-4,-1,-2
1513481676896168,-4,3,-3,2,-4,0,2,-1
1513481676896168,1,2,9,4,4,-2,-2,-3
1513481676918181,1,1,-13,0,3,-1,-4,-2
1513481676918181,-2,2,2,-2,1,0,-2,1
1513481676919181,-4,-3,-5,-2,-2,-2,1,-4
1513481676919181,1,-1,5,1,-1,-1,-2,-1
1513481676941197,-2,-4,0,-4,0,-1,-1,3
1513481676941197,0,0,-11,-3,-2,0,-2,-1
1513481676942198,-4,-1,-4,0,-2,-2,-1,-4
1513481676942198,-3,1,8,2,-3,1,0,0
1513481676955223,3,-4,-7,-4,1,-2,-3,-2
1513481676955223,-3,-4,-6,-8,-5,-2,-2,-2
1513481676956207,2,2,0,4,-1,0,2,0
1513481676956207,1,1,-26,-3,-1,0,0,0
1513481676978222,0,-1,17,-1,1,-1,-2,-2
1513481676978222,-1,2,25,6,1,-1,-2,0
1513481676979239,-6,-6,0,-10,-8,-2,3,-3
1513481676979239,1,-2,5,2,-1,0,2,-1
1513481677000250,2,-2,-9,0,2,-1,-4,1
1513481677000250,1,3,1,7,1,-3,1,-1
1513481677001238,-3,1,5,3,-1,-1,0,-1
1513481677001238,0,-3,-18,-4,1,-3,-5,1
1513481677015252,0,-1,13,-3,4,-4,-4,0
1513481677015252,0,-4,-9,-4,-1,0,-1,-2
1513481677016253,-5,-1,-9,-4,-4,-2,4,0
1513481677016253,-2,-1,6,1,-2,0,-2,-3
1513481677038277,-1,-1,-6,-1,-2,-2,-2,0
1513481677038277,-2,-2,-11,-3,-4,0,3,-2
1513481677039278,-3,2,-6,2,-4,0,3,-4
1513481677039278,-2,2,6,2,-1,0,-1,-1
1513481677060303,-3,-3,-3,-3,1,-1,-2,-1
1513481677060303,-3,-1,-12,-2,-2,0,-1,1
1513481677061281,-2,2,9,1,-4,-1,0,-1
1513481677061281,-2,-4,1,0,1,-3,-1,0
1513481677075305,3,0,-1,-2,3,-1,-2,0
1513481677075305,-2,0,14,-1,0,0,-1,-2
1513481677076311,0,0,-35,-4,-3,-1,0,2
1513481677076311,-3,-6,-5,-3,-4,-2,1,-3
1513481677098311,1,-1,-5,0,2,-2,-5,-1
1513481677098311,-3,0,1,0,-2,1,0,-1
1513481677099311,-3,0,13,4,-3,-1,1,-5
1513481677099311,1,-1,-18,-1,-2,-2,-3,-2
1513481677120327,-2,-6,-2,-6,0,-2,-2,-1
1513481677120327,0,-2,-8,-3,2,-4,-2,-2
1513481677121327,-2,-2,1,-2,-2,-2,-1,2
1513481677121327,3,0,8,0,1,-3,-3,0
1513481677135334,-1,-1,1,0,-1,0,1,0
1513481677135334,-2,-1,-10,-5,-2,1,2,0
1513481677136333,0,-2,5,1,-5,0,1,-2
1513481677136333,-1,-1,4,-1,-1,0,-2,-2
1513481677158376,-1,-2,-10,-1,4,-3,-6,-1
1513481677158376,-2,-2,-5,-2,0,-1,-2,-1
1513481677159375,-1,2,5,2,-3,-1,1,1
1513481677159375,-1,-2,3,0,0,1,-1,2
1513481677180366,1,-3,0,-5,2,-1,-4,-3
1513481677180366,-3,-3,-4,-2,-1,-1,-1,0
1513481677181367,-4,1,3,2,-4,-1,2,-3
1513481677181367,-1,-1,1,-1,0,-2,-1,-1
1513481677195379,3,-3,-2,0,0,-1,-1,-1
1513481677195379,1,-1,-1,-2,0,-2,-4,-1
1513481677196377,-3,0,-2,1,-5,0,3,0
1513481677196377,0,-3,-3,-2,-3,0,-3,-1
1513481677218392,1,-1,-1,-4,2,-1,-2,-1
1513481677218392,2,-1,-4,-1,-2,-2,-2,-3
1513481677218392,-3,0,2,0,-3,0,-1,0
1513481677218392,-2,3,1,-1,-2,1,-1,-1
1513481677240409,1,0,-1,-2,-1,-2,-4,-1
1513481677240409,0,-1,-2,-1,0,-2,-2,-1
1513481677241409,1,1,-1,-1,-2,0,1,-1
1513481677241409,-1,-1,0,2,1,-2,0,-1
1513481677255419,0,-1,-4,-2,0,-1,-5,2
1513481677255419,-4,0,-1,-1,-2,0,0,-2
1513481677256420,-3,-1,1,-1,-3,0,2,-2
1513481677256420,2,-1,-3,-1,-1,-2,-3,-1
1513481677278435,1,-3,-3,-1,2,-2,-4,1
1513481677278435,-2,-1,-3,-2,-2,0,0,-1
1513481677279444,-2,1,1,-1,-4,-1,-1,-4
1513481677279444,0,-1,0,0,0,1,-2,-3
1513481677300450,-1,-1,-3,0,2,-2,-1,-2
1513481677300450,-3,-2,-1,-1,-4,-1,-3,2
1513481677301450,-2,-1,0,-1,-3,-1,3,-2
1513481677301450,1,0,-2,1,0,-1,0,0
1513481677315461,3,-1,1,-1,2,-3,-3,1
1513481677315461,-2,-1,0,-3,-1,-1,2,-3
1513481677316462,-4,0,1,0,-4,-1,-1,-2
1513481677316462,-2,0,-2,1,-1,0,-2,-2
1513481677337493,2,-1,-2,-1,2,0,-3,-2
1513481677337493,-2,-2,-1,0,0,-3,-1,-2
1513481677338477,-3,-2,-1,0,-2,-1,3,0
1513481677338477,-1,0,0,-1,-2,-1,-3,0
1513481677360496,0,-2,-1,-4,0,0,-1,-2
1513481677360496,-2,0,-1,-1,-2,-3,0,-1
1513481677361494,-3,0,0,1,-2,-3,0,-3
1513481677361494,-1,-2,0,-3,-2,-2,0,0
1513481677375512,1,-4,-1,-2,1,-4,-4,-1
1513481677375512,-1,0,-2,-1,-1,1,-1,2
1513481677376505,0,-1,-1,0,-2,-1,0,-4
1513481677376505,-2,-1,-1,-1,-2,-1,-1,-1
1513481677398520,0,-2,-3,-3,3,1,-3,1
1513481677398520,0,0,-1,-2,-1,0,0,-3
1513481677398520,-4,-1,-1,-1,-4,-1,-1,-1
1513481677398520,1,-1,-2,-2,1,0,-1,3
1513481677420536,-1,-1,-2,-2,-1,-1,0,-1
1513481677420536,-5,-1,-1,-1,-3,0,2,-6
1513481677421541,-2,-1,-2,-1,-4,-1,1,-1
1513481677421541,-1,-1,-2,0,-2,-3,0,-1
1513481677436546,-3,-3,-1,-2,0,-2,-4,2
1513481677436546,-2,-2,-2,-4,-1,-1,0,2
1513481677437547,-2,0,1,-2,-3,0,1,0
1513481677437547,-1,0,1,-1,0,-1,1,-2
1513481677458562,2,-2,-1,-1,0,-1,-4,-1
1513481677458562,0,0,-3,0,0,0,4,0
1513481677458562,-2,-3,0,0,-4,0,1,-5
1513481677458562,-3,-2,0,-1,-1,-1,0,0
1513481677480578,0,-2,-2,-3,0,-1,-2,0
1513481677480578,0,-2,-2,0,-4,-1,-2,-3
1513481677481578,-3,1,-2,-1,-1,1,1,-1
1513481677481578,1,1,-2,0,-2,-2,-1,-2
1513481677494588,-2,-1,0,-1,1,0,2,-2
1513481677494588,-1,-1,-1,-2,2,-1,-3,-1
1513481677503594,-1,1,-1,-1,-4,0,-1,0
1513481677503594,0,0,-2,0,1,-1,-4,1
1513481677517604,-2,-3,-2,-2,2,-2,-2,0
1513481677517604,-2,-2,0,0,0,-1,-4,-2
1513481677518605,1,0,-1,1,-6,-1,2,0
1513481677518605,-3,-1,-1,-2,0,-1,-1,-1
1513481677540621,3,-3,-2,-3,1,-1,-3,-2
1513481677540621,1,-2,-2,0,-2,1,-1,1
1513481677541621,-2,-1,-2,2,-2,-2,1,0
1513481677541621,2,-1,0,-1,1,1,0,-1
1513481677554640,-1,-1,0,-3,0,-2,-2,0
1513481677554640,1,-1,-2,-3,-2,-2,0,0
1513481677563640,-2,1,0,0,-4,-2,-1,-4
1513481677563640,-1,1,-1,0,-3,1,-3,-1
1513481677577648,-1,-1,-2,-1,2,0,-1,-1
1513481677577648,-1,-1,0,-3,2,-1,-3,0
1513481677578648,-5,-1,0,0,-2,-2,4,1
1513481677578648,-1,-2,-1,-1,0,-2,-2,1
1513481677600663,-1,-3,-3,-1,2,-2,-5,-3
1513481677600663,-2,-2,-2,-1,-3,-3,1,-2
1513481677601663,-3,1,-1,-2,-2,1,1,0
1513481677601663,2,0,0,2,-1,0,-2,-2
1513481677623680,0,0,-1,-2,1,-2,-1,1
1513481677623680,-4,0,0,-3,-3,-1,-2,-1
1513481677624679,-1,0,-1,-1,-5,-2,1,-3
1513481677624679,2,-2,-2,-1,-2,-1,-1,0
1513481677637692,-1,-3,0,-1,-1,-1,-4,-2
1513481677637692,0,-3,-1,0,-2,-1,1,0
1513481677639691,-3,1,0,-2,-4,-2,2,0
1513481677639691,-3,1,-2,-2,1,-3,0,-1
1513481677660708,1,-2,-2,-2,2,-2,-1,-3
1513481677660708,-1,-1,0,-3,-1,1,-1,-2
1513481677661706,0,-1,0,0,-1,-1,-2,-1
1513481677661706,0,-2,-3,0,2,0,-2,2
1513481677683721,1,-2,-1,1,1,-3,-3,-1
1513481677683721,-6,-2,-2,1,-1,-4,1,-2
1513481677684722,-1,-2,-2,0,-5,0,-2,2
1513481677684722,0,-1,0,-2,0,0,-4,-3
1513481677697730,-2,0,0,-1,0,-2,-2,-1
1513481677697730,-3,-1,-1,-1,-2,0,1,0
1513481677698731,-3,1,-1,0,-1,-1,0,-1
1513481677698731,0,-1,-1,0,-1,0,-1,-1
1513481677720748,0,1,-1,-1,0,1,0,1
1513481677720748,-5,-1,-2,-1,-3,-3,3,-3
1513481677721748,0,-1,1,-1,-4,1,0,0
1513481677721748,-1,-3,-1,-2,0,-1,-1,0
1513481677734758,-1,0,-3,-2,0,0,-4,0
1513481677734758,-2,-1,0,-1,-3,-1,0,-1
1513481677742763,-1,0,-1,2,-4,-2,0,-2
1513481677742763,-2,1,-1,-1,1,-1,-5,2
1513481677757774,1,-1,-1,-2,1,-1,-1,-2
1513481677757774,0,-1,-1,-3,-2,-1,1,0
1513481677758774,-1,1,-1,-1,0,-1,-3,-5
1513481677758774,2,-1,-1,-1,-1,-1,0,0
1513481677780789,1,-4,-2,-2,0,-1,-2,-2
1513481677780789,-4,-1,0,-1,-4,-2,3,-3
1513481677781791,-1,-1,-1,-2,-1,-1,1,-2
1513481677781791,-3,-2,-2,0,1,-2,-1,-1
1513481677794800,-1,-3,-4,-3,0,-1,-2,0
1513481677794800,0,1,-2,-2,-1,1,-2,0
1513481677802809,-2,1,-1,1,-2,-1,-1,2
1513481677802809,-2,-1,0,-2,1,-1,0,0
1513481677817817,0,-2,-2,-2,-2,0,-2,-2
1513481677817817,-3,-2,-1,-1,-2,0,-1,4
1513481677818818,-4,1,0,1,-5,-1,1,-2
1513481677818818,0,0,-1,-1,-1,-3,-4,-3
1513481677840833,0,-2,-2,-3,2,-2,-3,2
1513481677840833,1,-2,-1,-1,-2,-1,-2,-3
1513481677840833,-1,0,-1,0,1,0,-2,2
1513481677840833,-1,0,-2,0,0,-2,2,-3
1513481677863849,-4,-2,1,-2,-1,-1,1,-2
1513481677863849,-1,-2,-1,-3,-3,-3,-2,-2
1513481677864850,-4,0,-1,1,0,-2,0,2
1513481677864850,1,-1,0,-1,-2,1,-5,-1
1513481677877859,0,-1,-4,-1,0,-2,0,-3
1513481677877859,-2,-1,1,1,-2,-2,2,0
1513481677878865,-2,-2,-1,-1,-5,-1,1,-5
1513481677878865,0,-1,-1,-1,0,-2,0,0
1513481677900874,-1,-1,-1,-3,0,1,-2,1
1513481677900874,1,-1,-1,0,-2,-1,-2,-4
1513481677900874,-3,0,-1,1,-1,-1,-1,0
1513481677900874,0,-1,-3,-2,2,0,-2,-1
1513481677923891,2,0,0,-2,-1,-2,1,1
1513481677923891,-2,-1,0,-1,0,-1,-1,1
1513481677924892,-2,-3,0,0,-2,0,1,0
1513481677924892,0,-3,-1,-1,-1,-1,-3,-3
1513481677937901,-4,0,-1,0,0,-1,-1,-1
1513481677937901,-4,-2,-3,-1,-1,-1,1,-1
1513481677938919,-1,1,-1,-2,-3,-1,1,0
1513481677938919,-1,0,0,-2,-3,-2,-4,1
1513481677960921,2,-3,0,-3,0,-1,-4,1
1513481677960921,-3,-2,-2,-1,0,0,-3,-2
1513481677960921,0,-2,-2,-1,-2,0,0,-1
1513481677960921,-1,-1,-2,-1,1,0,-2,-2
1513481677983935,2,-2,-3,-2,0,-1,-1,-1
1513481677983935,-4,-1,-2,1,-3,-1,1,-1
1513481677984949,-3,0,-1,0,-4,-1,-2,0
1513481677984949,-1,0,-1,-1,0,-1,-1,1
1513481677997945,-2,-2,-2,-2,-3,-1,0,-3
1513481677997945,-3,0,0,-3,-1,1,2,-2
1513481677998945,-2,0,0,0,-1,-1,0,-3
1513481677998945,0,-1,0,1,2,2,-3,1
1513481678020959,-3,-3,-3,1,-1,-1,-2,1
1513481678020959,0,0,-1,-1,-3,-2,1,-1
1513481678020959,-4,-2,0,0,-2,-1,0,-3
1513481678020959,3,-2,-1,-2,2,-3,-3,-1
1513481678043976,0,-4,-2,-1,1,-1,-2,0
1513481678043976,-2,-1,-1,-3,-3,-1,1,-2
1513481678044978,1,0,-1,0,0,0,-1,-1
1513481678044978,-1,0,-1,-2,1,-1,0,-1
1513481678057995,-3,-1,-2,-1,-1,-2,0,-1
1513481678057995,-2,0,-3,-2,-5,0,-1,-3
1513481678058986,0,0,-1,-3,-1,-1,-2,-3
1513481678058986,-3,0,-2,-1,1,-1,-2,-3
1513481678081011,1,0,-2,-2,1,-1,-5,2
1513481678081011,-4,-1,-1,-1,-4,-2,4,0
1513481678081011,0,0,0,1,-2,0,0,-2
1513481678081011,2,-3,-1,-1,0,-3,-2,-2
1513481678104018,-4,0,0,-1,0,0,-2,-3
1513481678104018,-1,0,-3,-1,-2,0,1,-1
1513481678104018,2,1,1,1,-4,1,-2,1
1513481678104018,2,-3,0,-1,2,-2,-1,2
1513481678118040,-2,-5,-1,-2,1,-2,1,-3
1513481678118040,-1,0,-1,-1,-2,1,-1,0
1513481678119029,0,-1,-2,-1,-1,-2,-2,-2
1513481678119029,2,-1,-2,-1,-1,0,-3,1
1513481678140056,-2,0,-1,-2,-1,0,-1,-1
1513481678140056,-5,-1,-1,-1,-4,-1,1,-1
1513481678141044,-1,0,0,0,-4,-2,-1,0
1513481678141044,1,-1,-1,-1,1,-1,-4,-1
1513481678164062,-3,-2,-1,-3,-1,0,3,0
1513481678164062,-3,-2,-1,0,-3,-1,0,1
1513481678164062,-1,-1,0,0,-2,-1,-1,1
1513481678164062,1,-3,0,-1,-1,-1,-4,-5
1513481678178071,-2,0,-1,-3,1,-3,-2,-2
1513481678178071,-1,-2,-1,-1,-2,-1,0,-2
1513481678179089,-2,-1,-1,0,-4,-2,4,-1
1513481678179089,1,-2,-2,-1,0,1,-5,-1
1513481678200086,1,-1,-2,-3,-1,-1,-1,-1
1513481678200086,-4,-1,0,-1,-2,0,2,-3
1513481678201086,-1,0,-2,0,-1,-2,-1,-2
1513481678201086,1,0,-3,0,0,-1,-2,2
1513481678224119,1,-3,-2,0,-2,-1,-1,0
1513481678224119,-3,-1,0,-2,-3,-2,1,0
1513481678224119,-3,-2,0,-1,0,2,-2,-2
1513481678224119,-1,-2,1,-1,1,-1,-1,-2
1513481678238154,-1,-1,-1,-2,-1,-2,-1,-2
1513481678238154,-4,-1,-1,-1,-6,-3,1,-2
1513481678240118,-2,-2,0,-1,-1,-2,-2,0
1513481678240118,0,-1,0,-2,4,0,-1,0
1513481678260132,-2,-3,-1,-2,-1,-2,-3,-2
1513481678260132,-1,0,-1,-1,-3,-1,1,-2
1513481678261132,1,-1,-2,0,-2,1,-1,2
1513481678261132,4,-1,-3,-3,1,0,-4,0
1513481678284145,-1,0,-2,-1,1,-3,-1,-1
1513481678284145,-3,0,-1,-1,-4,-1,1,-2
1513481678284145,-1,-1,-2,0,-4,1,-2,-2
1513481678284145,0,-3,0,-1,0,-1,-3,1
1513481678298157,-1,-2,-4,-1,-1,0,2,-2
1513481678298157,2,0,-1,-1,-2,0,-2,-5
1513481678299157,-2,-1,1,-2,0,-2,-1,-1
1513481678299157,0,1,1,-1,1,-1,-2,0
1513481678321173,1,-1,-1,-1,0,0,-2,0
1513481678321173,-2,-2,-1,-1,-5,-1,1,1
1513481678322178,2,-1,-1,2,-1,0,-1,-1
1513481678322178,1,1,-3,-1,3,-3,-5,1
1513481678343187,-1,-1,1,-2,-1,0,-1,0
1513481678343187,-5,0,0,0,-1,-1,4,-3
1513481678344189,2,0,0,0,0,-1,-2,0
1513481678344189,2,-5,-1,-1,1,-1,-1,-3
1513481678358202,-3,-1,-1,-2,-2,-1,-1,0
1513481678358202,-3,-1,1,-2,0,0,0,0
1513481678359198,0,1,-1,0,-2,1,2,-1
1513481678359198,0,-2,-1,-1,1,0,-3,2
1513481678381214,-2,-2,-3,-1,-2,0,-1,-1
1513481678381214,-2,0,-2,-1,-2,1,0,-3
1513481678382215,-2,0,-1,1,-2,-3,-2,1
1513481678382215,4,-2,-2,-2,1,1,-3,0
1513481678403229,-5,-3,1,-1,0,-2,-1,0
1513481678403229,-5,-1,0,1,-3,-1,0,-2
1513481678404230,-1,-1,0,-2,-2,-2,0,-3
1513481678404230,-1,0,-1,-1,0,0,-1,1
1513481678417240,2,-1,-1,-2,0,-2,2,0
1513481678417240,-4,-1,-2,-1,-3,0,2,-1
1513481678425249,-1,-2,-1,-2,-1,0,-4,-3
1513481678425249,2,-3,-2,0,2,-3,-3,-1
1513481678441257,0,-2,-2,-1,2,1,-3,-4
1513481678441257,-6,1,-1,0,-2,-2,3,-3
1513481678442258,1,-2,-1,0,2,-2,-1,0
1513481678442258,2,-2,-1,-2,3,0,-2,-2
1513481678463272,0,0,-1,-1,1,0,-1,1
1513481678463272,-3,1,-1,0,-8,-2,4,-1
1513481678464273,-4,-1,0,-1,-2,0,-1,-1
1513481678464273,1,-3,0,0,1,0,-3,0
1513481678477282,-2,-2,0,-2,-1,-2,-2,0
1513481678477282,-3,-3,-1,-1,-2,2,0,1
1513481678485289,3,0,-1,-1,-1,0,0,-4
1513481678485289,0,0,-2,-1,0,-4,-3,-2
1513481678501299,-1,-3,-2,-1,-5,-2,2,-2
1513481678501299,-1,1,0,0,0,1,2,0
1513481678502300,-1,-1,-2,-1,-2,0,-1,1
1513481678502300,-1,-2,-1,-2,3,0,-5,0
1513481678523315,0,-2,-2,0,-1,1,-3,-1
1513481678523315,-6,-2,-1,-1,-4,-1,2,-1
1513481678524317,-1,0,0,0,-1,-1,1,-1
1513481678524317,1,-2,-1,0,0,-1,-3,1
1513481678537328,-1,-1,0,-3,-1,-2,3,-1
1513481678537328,-4,-1,0,-1,-2,-1,-1,-2
1513481678545335,-1,1,-1,-1,1,0,-1,0
1513481678545335,3,-2,-2,-2,0,-1,-2,0
1513481678561345,-5,-2,-1,-2,-1,-1,0,-3
1513481678561345,0,1,0,1,-7,-2,3,-4
1513481678562344,-1,1,-2,-1,-3,-1,-1,-1
1513481678562344,1,-1,-1,-2,1,-2,-3,-1
1513481678583359,-1,-1,-1,-1,-1,0,0,-1
1513481678583359,-4,-1,-2,-2,-3,-1,3,-1
1513481678584357,-1,0,0,0,0,-2,-2,-2
1513481678584357,1,0,-2,-1,-1,-2,-1,1
1513481678597368,-1,1,1,-3,0,-1,-1,-1
1513481678597368,-1,-1,-2,0,-2,-1,2,-1
1513481678605389,-1,0,-1,0,-2,-2,-1,-3
1513481678605389,-3,-2,-1,-1,1,0,-3,-2
1513481678621386,1,0,-3,-1,-1,-1,-1,-3
1513481678621386,-2,0,-1,-1,-3,-1,0,-1
1513481678622385,0,1,0,-1,-2,-2,-2,1
1513481678622385,2,-4,0,-1,1,-2,-3,1
1513481678643400,1,0,-1,-2,-3,0,-2,-2
1513481678643400,-4,1,-1,0,-2,2,2,0
1513481678644401,1,-2,0,0,2,-3,-2,0
1513481678644401,1,-1,-2,-3,2,0,-5,0
1513481678657413,-2,-3,-4,0,-2,-1,-2,1
1513481678657413,-1,0,-1,-1,-3,-2,1,-1
1513481678665416,-2,0,0,0,0,1,0,0
1513481678665416,1,-2,-2,-2,3,0,-3,-1
1513481678681426,-1,-2,-2,0,-1,0,-1,0
1513481678681426,-3,0,-1,0,-4,-2,2,1
1513481678682427,-1,-1,-1,0,-3,0,0,-2
1513481678682427,0,-3,-1,-2,3,-1,-3,0
1513481678703445,-1,-1,-1,-1,-3,-2,1,-3
1513481678703445,-3,-1,0,1,-4,-2,-2,-1
1513481678704442,-3,0,0,-1,-1,1,-3,-2
1513481678704442,3,-2,-1,-2,2,0,-4,1
1513481678717452,-1,-2,0,-1,0,-1,1,-2
1513481678717452,-5,-2,0,0,-3,0,2,-3
1513481678725458,-1,-2,-2,-2,-3,-2,0,0
1513481678725458,0,-3,-2,0,1,0,-3,-1
1513481678741470,1,0,1,-2,-2,-1,-2,-1
1513481678741470,0,2,1,-2,-4,0,0,0
1513481678742470,1,-1,-2,0,1,0,-1,0
1513481678742470,3,-2,-2,-1,3,-3,-4,-1
1513481678763487,-2,-2,0,-2,-2,-2,-1,0
1513481678763487,-1,-1,-1,0,-5,-1,1,-2
1513481678764493,-2,2,0,0,-2,-1,-3,-1
1513481678764493,0,1,-2,-2,1,-1,-4,2
1513481678785516,-1,-3,-4,-2,0,0,3,0
1513481678785516,-5,-1,-1,0,-4,1,0,-4
1513481678793506,1,-2,-3,-1,0,-1,2,0
1513481678793506,0,-3,0,-1,3,-2,-2,-1
1513481678801511,-2,-1,-3,-1,-3,-2,-1,-1
1513481678801511,-3,-1,0,-1,-4,-1,2,-1
1513481678802513,-1,0,0,0,-1,0,-2,0
1513481678802513,-2,-2,-1,-2,1,-3,-6,-2
1513481678823527,-3,1,-1,-1,-1,1,-2,-1
1513481678823527,-1,0,-1,-2,-6,0,2,0
1513481678824528,-2,-1,-1,1,-2,-3,-1,-4
1513481678824528,0,-1,-1,-1,0,0,-1,-1
1513481678846556,-3,-3,-1,-2,1,-2,0,-2
1513481678846556,-1,-1,1,0,-2,-1,0,-3
1513481678846556,-3,-1,-1,-2,-2,3,-3,0
1513481678846556,-1,-1,-1,-1,-1,0,-2,-2
1513481678859567,-2,-2,-2,1,-3,-2,1,-2
1513481678859567,-2,0,0,-1,-1,-2,2,-1
1513481678868558,0,-1,-1,0,0,0,-2,2
1513481678868558,0,-2,0,-2,0,-2,-2,0
1513481678883569,-1,-2,-1,-1,-1,-1,1,0
1513481678883569,-3,1,-1,0,-5,-4,1,0
1513481678885571,0,-2,-1,-1,-5,-4,2,-1
1513481678885571,0,-1,-3,0,1,-2,-3,-2
1513481678907587,-2,2,-1,-2,-1,0,0,0
1513481678907587,-2,-1,-1,1,-4,0,4,-1
1513481678909616,0,-2,-1,-1,0,-1,-2,-3
1513481678909616,5,-1,-3,-2,1,0,-4,0
1513481678919595,-1,-2,-2,-2,-1,0,-2,0
1513481678919595,-2,-1,2,-2,-4,0,0,1
1513481678928602,0,-2,0,0,1,-1,0,0
1513481678928602,-1,-3,-2,-2,-1,-2,0,0
1513481678943613,-5,-3,-1,0,-1,-1,0,-3
1513481678943613,-4,0,-1,0,1,0,-1,-1
1513481678945615,-3,-1,0,0,-2,-1,1,-1
1513481678945615,-3,-1,0,0,1,0,-1,1
1513481678966645,2,0,-1,-2,-1,-1,-2,-2
1513481678966645,-4,0,-3,0,-5,-3,3,-2
1513481678967628,-1,0,-2,0,-1,-1,-1,2
1513481678967628,-1,-2,-1,-1,0,0,-3,-2
1513481678979652,3,-1,-1,-2,-1,-2,-2,-1
1513481678979652,-3,-1,0,1,-4,0,-3,-3
1513481678988650,1,-3,-3,-1,-1,-3,-4,0
1513481678988650,-1,-1,-2,-1,0,-2,-3,-2
1513481679003678,-4,-2,-1,0,-2,-3,1,-1
1513481679003678,-2,0,-1,1,-3,0,1,-3
1513481679006659,1,1,-1,0,1,1,-2,1
1513481679006659,4,0,-1,-3,4,0,-3,0
1513481679026683,1,-2,1,-2,-1,-2,-3,-3
1513481679026683,-2,0,0,-1,-3,0,1,-1
1513481679028673,-1,-1,1,0,-2,0,-2,0
1513481679028673,0,-4,-1,-2,1,-2,-4,0
1513481679040681,0,-1,-2,-2,1,0,1,-3
1513481679040681,-3,1,-1,-1,-4,-1,2,-3
1513481679047686,2,-1,-1,0,0,-2,-1,-1
1513481679047686,0,-1,-3,-2,3,-2,-4,0
1513481679063697,-5,-2,-1,-2,-2,-1,0,0
1513481679063697,-2,-2,-1,-2,-3,0,-2,-1
1513481679065698,-2,-2,-3,-2,1,0,-2,-2
1513481679065698,0,-1,-2,-2,1,0,-3,-2
1513481679086712,0,0,-2,0,0,0,0,1
1513481679086712,-3,-1,-1,-1,-4,-2,3,-1
1513481679087714,0,0,0,-2,1,0,-3,-2
1513481679087714,0,-4,0,-3,1,-2,-2,0
1513481679100722,1,-2,-3,-2,-1,-1,-3,-1
1513481679100722,0,2,0,1,-2,2,1,-1
1513481679107742,-1,-1,1,0,-2,-3,1,-1
1513481679107742,-2,-2,-2,-2,2,-1,-3,0
1513481679123739,-1,-3,-2,-4,-2,0,0,0
1513481679123739,-1,1,1,0,-2,-2,0,-2
1513481679125740,-1,-1,0,-1,0,-1,-2,-1
1513481679125740,1,-2,-1,-2,2,-1,-2,-1
1513481679146754,-4,-3,-2,-2,-2,-4,-3,-1
1513481679146754,-4,-1,0,2,-3,-2,2,-1
1513481679147756,-1,0,-1,-1,0,-1,-2,1
1513481679147756,0,-1,-2,0,2,-2,-1,-2
1513481679160821,-1,0,0,-2,-1,0,-2,-1
1513481679160821,-3,0,1,-1,-6,2,2,-3
1513481679167790,-1,2,-2,-1,-2,-2,-1,-1
1513481679167790,2,-1,-2,-2,1,-1,-3,0
1513481679183782,1,-3,0,-1,1,-1,-1,-2
1513481679183782,-2,-1,-1,-2,-5,-2,0,-1
1513481679185783,0,-2,-1,-1,-3,-1,-3,0
1513481679185783,2,-1,-1,-2,0,2,-3,-1
1513481679205799,-3,-2,-1,0,-1,-1,-2,0
1513481679205799,-2,1,-1,0,-4,0,3,-3
1513481679207800,2,-2,-1,0,0,-4,-1,0
1513481679207800,1,-2,-3,-1,1,-2,-3,-1
1513481679220809,-2,-1,-1,1,-2,-2,0,0
1513481679220809,-3,0,0,1,-2,0,-1,-2
1513481679226821,-2,-2,1,0,-2,1,-1,-1
1513481679226821,-2,-1,-1,-2,-2,-1,-3,-1
1513481679243824,0,-1,-2,0,-1,-1,0,-1
1513481679243824,0,-1,-1,-1,-3,1,0,2
1513481679244829,1,1,-2,-1,-1,0,0,-5
1513481679244829,1,-3,0,-2,0,-2,-1,0
1513481679265851,-5,-1,-1,-1,-3,-2,1,-3
1513481679265851,-1,0,-2,0,-3,-2,1,-1
1513481679267840,0,-1,0,-1,-1,0,-3,0
1513481679267840,1,-1,-3,-2,0,-3,-5,1
1513481679279850,0,0,1,-2,-2,-1,-1,-1
1513481679279850,-3,0,0,1,-2,-1,2,-2
1513481679288866,-1,-1,-3,0,0,-2,-3,1
1513481679288866,1,-3,1,-1,0,0,-1,-3
1513481679303876,2,-3,-2,-1,0,0,0,0
1513481679303876,-5,-3,-2,-1,-4,-1,-1,0
1513481679305867,-1,0,0,-1,-1,0,1,-2
1513481679305867,-1,-1,-1,-2,0,-1,-1,-1
1513481679325884,-2,-2,-1,-2,-2,-1,0,-2
1513481679325884,-2,-1,-2,0,-3,1,2,-1
1513481679328886,-3,-1,-1,-2,0,-2,-3,-1
1513481679328886,0,-1,-1,-2,3,-2,0,0
1513481679339914,-1,-1,0,-1,-1,0,-3,-2
1513481679339914,2,-1,0,-1,-3,0,0,0
1513481679348899,-1,-2,-1,-2,-3,-2,-1,0
1513481679348899,-1,-2,0,-1,1,-2,1,0
1513481679363909,-3,-2,-2,0,-1,-2,1,-4
1513481679363909,-6,-1,-1,-1,-1,-1,-1,-1
1513481679364910,-1,-2,0,2,-2,-1,0,0
1513481679364910,0,-3,-1,-2,-2,0,-4,-2
1513481679385924,-1,-1,-3,-1,-1,-3,-1,0
1513481679385924,0,1,1,1,-5,-2,2,-2
1513481679387925,-1,0,-1,-2,1,1,-1,-2
1513481679387925,-1,-2,-2,-2,1,-2,-1,0
1513481679399947,0,0,-1,0,-2,-2,0,0
1513481679399947,0,0,-1,-1,-2,-1,1,1
1513481679408941,1,-2,0,-1,0,-1,-2,2
1513481679408941,-1,-1,-3,-1,1,-1,-1,0
1513481679423952,-1,-1,-1,-1,-2,-1,0,-2
1513481679423952,-1,-1,0,0,-1,-1,-2,-1
1513481679424952,-3,-2,-1,-1,-2,0,-3,-1
1513481679424952,1,-4,-2,-2,1,-1,-1,-3
1513481679445967,-3,0,-2,-1,-2,-1,0,-1
1513481679445967,-4,1,0,0,-1,-1,1,-1
1513481679447986,-1,0,-1,-1,0,0,-2,-1
1513481679447986,1,-2,0,-1,0,-1,-2,1
1513481679459995,-4,-2,-2,-1,0,0,0,-2
1513481679459995,-1,-1,1,0,-3,-2,0,-1
1513481679468986,-1,0,-2,-1,1,0,-2,-2
1513481679468986,-2,3,-2,-2,3,0,-1,0
1513481679483997,0,-2,-2,-1,-1,-2,0,0
1513481679483997,-4,-1,1,-1,-4,-2,2,-1
1513481679484998,-2,-2,-1,0,-3,-2,-4,-1
1513481679484998,2,-3,-3,-2,2,-3,-3,1
1513481679507020,0,-2,-1,-1,-3,0,0,0
1513481679507020,1,1,-2,0,-2,-1,0,-2
1513481679510012,1,0,-2,-1,0,-2,-3,-2
1513481679510012,-1,-3,-3,-2,-1,0,0,-2
1513481679520019,-1,-2,-1,1,-1,-2,-1,-3
1513481679520019,-1,-3,-1,0,-4,0,-2,0
1513481679530030,-2,0,0,0,0,0,-1,0
1513481679530030,0,0,-1,-3,0,-1,-4,1
1513481679544037,-3,-1,0,-1,0,0,1,0
1513481679544037,-1,0,-1,-1,-5,-2,-1,-2
1513481679545037,1,-1,0,-1,0,-2,1,-3
1513481679545037,-1,-2,-2,-1,1,-2,-1,-1
1513481679566052,-2,0,0,-3,-2,-1,-1,-4
1513481679566052,-2,2,-1,1,0,-2,1,0
1513481679568054,-1,-1,-2,0,0,-2,-3,-1
1513481679568054,-1,-3,0,-2,0,-2,-3,0
1513481679580065,-2,-1,-2,-2,-2,1,2,0
1513481679580065,-1,-1,-1,0,0,-1,0,-3
1513481679589068,1,0,1,-1,-1,0,-1,-2
1513481679589068,-2,-2,-3,-2,1,0,-2,-2
1513481679604082,-3,0,-1,-1,-3,-1,-3,4
1513481679604082,-3,-1,0,0,1,-1,-3,-4
1513481679605079,-1,-1,-1,-1,-2,-2,2,0
1513481679605079,3,-3,-1,-1,0,-1,-4,-6
1513481679626115,-2,-1,-1,-1,-1,-2,1,-3
1513481679626115,-4,-1,-1,0,-3,-2,1,-1
1513481679628096,0,-2,0,0,2,-1,-2,2
1513481679628096,-4,0,-3,0,1,-1,-3,0
1513481679640108,-1,1,-2,-2,-5,-2,0,2
1513481679640108,-3,0,0,-1,-4,0,-1,0
1513481679649111,-1,-1,-2,-2,4,-1,-1,-1
1513481679649111,-1,-3,-1,-3,0,0,-1,-2
1513481679663122,0,-1,0,-3,-2,-1,1,-4
1513481679663122,0,0,-2,0,-1,0,-3,-2
1513481679670126,-1,-2,-1,0,-2,-1,2,-1
1513481679670126,-4,-2,-2,-2,-1,-2,-2,-2
1513481679686151,-4,0,-2,0,-3,-1,1,2
1513481679686151,-2,-1,0,-1,-2,1,1,0
1513481679688153,1,-3,-1,0,0,-1,-4,-1
1513481679688153,1,1,0,-1,-1,-1,0,-1
1513481679708195,-6,-3,-2,1,-1,-3,1,-1
1513481679708195,-2,1,-1,1,-2,-2,-1,1
1513481679710182,-2,1,-2,-2,1,0,-2,1
1513481679710182,3,-3,0,-2,1,-2,-1,0
1513481679724202,-3,-2,0,-3,-6,0,-1,-5
1513481679724202,-2,-1,0,1,-3,-1,-1,0
1513481679725203,-1,-2,-1,0,-1,-2,0,-5
1513481679725203,-1,-1,-1,-1,-1,-1,-4,0
1513481679746221,-2,-1,-1,0,-2,-1,0,-3
1513481679746221,0,-2,1,-1,-3,1,0,-1
1513481679748221,2,-3,-2,0,0,-1,-5,-2
1513481679748221,-3,-1,-1,0,-1,-1,1,-2
1513481679768232,-2,-1,-2,-2,2,-3,0,0
1513481679768232,-2,0,-2,-1,-3,-3,0,-1
1513481679770224,0,0,-2,0,-1,-1,-3,-1
1513481679770224,0,-1,-1,-3,0,-1,-2,-1
1513481679783235,-2,0,1,-2,-1,1,-1,1
1513481679783235,1,-1,-1,0,-2,-2,0,0
1513481679785235,-4,2,-2,-2,0,0,-4,-2
1513481679785235,-2,-3,-2,0,-3,-1,-1,-1
1513481679806264,-3,0,0,-3,-2,-1,1,-5
1513481679806264,-2,0,0,-1,-4,0,-2,1
1513481679809273,0,-4,-2,0,0,0,-1,1
1513481679809273,-2,-1,-2,-1,-1,-3,1,-1
1513481679828280,-1,-2,0,-1,-3,0,1,0
1513481679828280,1,0,0,-1,-1,-2,0,-2
1513481679830270,2,-1,0,-1,2,-1,-3,-1
1513481679830270,-2,-3,-3,-2,1,-1,-2,-4
1513481679843286,-3,-1,-1,1,-4,-1,1,0
1513481679843286,-1,1,-1,0,-1,3,1,-1
1513481679845277,3,0,-1,-1,-1,-2,-1,0
1513481679845277,-2,0,-2,-2,-2,-2,0,2
1513481679866302,1,-2,-2,0,-4,-2,0,-3
1513481679866302,0,-2,-1,1,-3,-3,1,-1
1513481679867293,2,-1,-2,0,1,-1,0,-2
1513481679867293,-1,-3,-1,-2,1,-1,-1,0
1513481679888322,-4,1,0,0,-1,-1,1,-3
1513481679888322,-1,-1,-2,1,-2,0,-1,-1
1513481679890319,-1,-2,-1,-1,0,1,-3,1
1513481679890319,1,-2,-3,-2,0,-2,-2,-2
1513481679903318,-3,-3,-2,-1,-5,-3,2,0
1513481679903318,1,0,1,0,0,0,0,-2
1513481679909326,2,-1,-1,-1,-1,-1,-3,-2
1513481679909326,-2,-2,-1,-2,1,-2,-3,-1
1513481679926336,-3,0,-1,-2,-5,0,2,-3
1513481679926336,-1,-1,-1,0,-2,-2,-1,0
1513481679929349,-1,0,-1,-2,-1,-2,-1,-1
1513481679929349,-1,-3,-1,-1,-2,0,-2,0
1513481679948360,-4,-1,-1,-1,-3,-3,2,-1
1513481679948360,-3,-2,0,-1,-1,0,-1,-1
1513481679950361,4,-2,-1,0,5,1,-4,0
1513481679950361,-1,0,-1,-3,-1,-1,-1,-2
1513481679963374,-4,-1,-1,-1,-2,-1,0,0
1513481679963374,-4,-2,1,-1,-4,-2,-1,-3
1513481679969371,1,0,-1,-1,1,-1,-4,0
1513481679969371,-1,-3,-2,-2,0,-3,0,-2
1513481679986391,-1,-1,-3,0,-4,0,0,-4
1513481679986391,1,0,-1,-1,-2,-2,0,1
1513481679987388,-2,-1,-2,0,0,-3,-1,0
1513481679987388,0,-1,-3,0,-1,0,-3,1
1513481680008396,-3,-1,0,0,-5,0,2,-2
1513481680008396,-2,0,-1,0,-2,0,0,-1
1513481680010404,2,-2,-2,-1,1,-1,0,-2
1513481680010404,-1,-4,-1,-2,0,1,-1,-3
1513481680023403,-6,-2,0,-2,-3,0,0,-3
1513481680023403,0,2,-1,-1,-1,0,1,-1
1513481680030413,-1,-1,0,0,2,-2,-6,-1
1513481680030413,-1,-3,-2,-1,-1,0,-1,1
1513481680046421,-3,-1,-1,-1,-2,-1,2,1
1513481680046421,-1,0,-1,-1,1,-1,0,0
1513481680047420,2,-3,-2,-3,1,0,-1,-3
1513481680047420,-2,1,-2,-2,0,-2,-1,0
1513481680068447,-4,-1,0,-1,-3,0,2,-2
1513481680068447,-3,1,-2,-1,-3,-1,-1,0
1513481680070437,2,-2,-1,-1,-1,-1,-2,1
1513481680070437,-5,-2,1,-1,0,-3,-1,-1
1513481680083446,-1,0,-1,1,-1,-1,2,-2
1513481680083446,1,-2,0,0,-3,-3,-3,-2
1513481680089488,2,-1,-2,-2,2,2,-4,0
1513481680089488,-1,-2,-1,-1,-2,0,2,0
1513481680106500,-2,0,-1,-3,-2,-2,2,-1
1513481680106500,-1,0,-1,-1,1,-1,-2,-5
1513481680109464,-1,-1,0,-2,2,-2,-4,0
1513481680109464,0,-2,-3,-3,-1,1,0,1
1513481680128478,-3,-1,0,0,-6,0,-1,-2
1513481680128478,3,-3,-2,0,-1,0,0,0
1513481680130479,0,-1,1,-3,2,-3,-2,-3
1513481680130479,0,0,-2,-1,-3,-1,-1,-3
1513481680142497,-2,1,-1,0,-2,1,1,-1
1513481680142497,-1,-1,-2,1,-1,-2,-1,-3
1513481680149501,2,-1,0,0,1,-1,-5,-1
1513481680149501,-2,-2,-2,-4,-1,-2,-2,-1
1513481680166504,-5,-1,-2,-1,-1,0,2,-1
1513481680166504,-1,-1,0,-1,0,-1,3,1
1513481680167505,1,-3,-1,-2,-2,-1,-3,1
1513481680167505,1,0,0,-1,0,-1,0,-2
1513481680188541,-1,-1,-1,-1,-3,-2,-3,-2
1513481680188541,-4,0,0,-1,-1,-1,0,-1
1513481680190531,-1,-2,-1,-1,2,-1,-2,1
1513481680190531,-3,-2,0,-2,0,-2,-1,-2
1513481680202540,0,0,-2,0,-4,-2,0,-1
1513481680202540,1,0,-2,-1,-1,0,0,1
1513481680211537,-1,-2,-2,-3,0,-1,-4,0
1513481680211537,0,-1,-1,-1,-2,0,-1,-2
1513481680226564,-1,0,-1,-2,-4,-2,1,-2
1513481680226564,-5,0,-1,0,-1,0,0,0
1513481680227549,1,-1,-3,-1,2,-1,-2,0
1513481680227549,0,-2,0,0,-1,-1,2,-1
1513481680248562,-3,-1,0,-1,-4,-1,3,-1
1513481680248562,-2,1,-1,-1,-3,-2,-1,-2
1513481680251565,2,0,-1,-1,2,0,-3,0
1513481680251565,-2,-1,-1,-1,0,-2,-1,-4
1513481680262592,-2,-3,-1,-1,-3,-1,3,-3
1513481680262592,0,0,2,-1,-2,-2,-3,0
1513481680271579,3,-4,-4,-2,1,-1,-2,-1
1513481680271579,0,0,-2,-2,-1,-3,-1,0
1513481680285588,-5,0,0,1,-3,1,2,1
1513481680285588,0,-1,0,1,-1,-1,-4,-1
1513481680287590,-1,-1,-1,-2,2,-2,-1,0
1513481680287590,1,-1,-2,-1,-1,0,1,-1
1513481680308626,-5,0,-2,-2,-3,-1,3,-3
1513481680308626,-1,-1,-1,0,0,1,0,-1
1513481680310629,0,-3,-1,-1,2,-1,-4,-1
1513481680310629,0,-4,0,-1,0,-2,-3,-1
1513481680322615,-3,1,1,-4,-4,-3,0,2
1513481680322615,0,1,0,-1,0,0,-1,-3
1513481680331638,1,-1,-1,-1,1,0,-6,0
1513481680331638,0,-1,-2,-2,-2,1,1,-3
1513481680346648,-2,-2,-1,0,-4,-1,4,-2
1513481680346648,-1,-2,-2,0,-2,-2,-1,-2
1513481680347633,-1,-1,-1,-1,1,-2,-1,1
1513481680347633,-2,-1,-1,-1,-2,-1,-1,1
1513481680368657,-1,1,1,2,-4,-2,4,-3
1513481680368657,-1,-1,-3,0,-1,-3,0,1
1513481680370663,2,-1,-2,-2,3,0,-2,-1
1513481680370663,-2,-1,-2,-3,-1,0,-3,-1
1513481680382658,-1,1,-2,-1,-1,-1,-2,-1
1513481680382658,-3,0,0,-1,-5,-1,-2,-2
1513481680391676,3,-1,0,-1,1,-2,-3,-1
1513481680391676,-3,-1,-2,-1,-3,1,-1,2
1513481680405696,-5,1,0,0,-4,1,2,0
1513481680405696,-1,0,1,1,-2,0,0,0
1513481680409699,0,0,-2,-1,-1,-2,-4,-3
1513481680409699,-3,-3,-1,-2,0,-2,2,0
1513481680428700,-6,-1,-1,-2,-5,-1,-1,-3
1513481680428700,-2,-1,-1,-1,-3,1,1,-2
1513481680430691,0,-2,-1,-1,-2,-1,-4,1
1513481680430691,-2,-1,-2,-1,-2,0,1,-2
1513481680442700,-4,-2,-2,1,-3,-2,2,-2
1513481680442700,-2,0,-2,-1,-1,-1,3,-2
1513481680451706,1,-2,-2,-2,1,0,-5,1
1513481680451706,-2,-1,0,-3,-1,-2,0,-1
1513481680466717,-1,0,0,-3,-3,-1,0,0
1513481680466717,-1,-1,-1,-2,-2,-1,0,1
1513481680467722,0,0,-1,-1,3,-4,-1,-5
1513481680467722,-2,-2,-3,0,-4,0,0,1
1513481680488733,1,2,0,-3,-4,-2,4,-1
1513481680488733,-1,-2,-2,0,-1,0,-4,-1
1513481680490741,0,-3,-3,-2,1,-1,-5,1
1513481680490741,0,-1,-2,0,-1,-3,0,-1
1513481680502756,-4,-1,-1,-1,-4,2,1,-3
1513481680502756,2,-1,1,0,1,-1,-1,0
1513481680512750,-1,-3,-1,-3,2,-2,-3,0
1513481680512750,-3,-2,-3,-1,-2,-1,-2,-3
1513481680525758,-3,-1,-2,-1,-1,-2,3,-1
1513481680525758,0,0,-1,-1,0,-2,-1,-1
1513481680527761,-2,-1,-2,-3,1,-1,0,-1
1513481680527761,2,-2,0,-2,-1,-1,-2,0
1513481680548774,-1,0,2,2,-3,-1,1,0
1513481680548774,-4,-1,-1,-1,-1,-2,-3,-2
1513481680550776,0,-3,-1,0,2,-2,2,-3
1513481680550776,-2,-3,-2,-2,-3,0,0,-3
1513481680562786,-2,-2,-1,0,-2,0,2,-1
1513481680562786,1,-2,-1,-1,-1,1,-4,-1
1513481680570800,2,0,-2,-1,1,-2,-5,1
1513481680570800,-1,-2,-1,-1,1,-2,-1,-4
1513481680585811,-4,-2,-1,1,-4,-2,1,0
1513481680585811,0,0,0,1,1,-2,0,0
1513481680587803,2,-2,-2,-2,-1,0,0,-1
1513481680587803,-2,-1,-1,-2,-1,0,-1,-1
1513481680608840,-5,0,-2,-1,-4,1,-1,1
1513481680608840,2,-1,-1,0,-3,0,-3,-1
1513481680609841,-1,-1,-1,-4,1,0,-6,0
1513481680609841,2,-2,-1,-3,-2,-3,-2,1
1513481680621836,-3,2,-1,1,-4,-1,1,-3
1513481680621836,-1,-3,-1,-1,-3,-1,0,-1
1513481680630843,2,-4,-1,0,2,0,-1,1
1513481680630843,-2,1,-1,-2,1,-1,-1,0
1513481680645860,-3,1,0,-1,-5,-1,2,-3
1513481680645860,0,-2,-1,1,0,-3,-3,-1
1513481680651857,0,-2,-1,-2,0,-2,-1,-1
1513481680651857,0,-2,-2,-1,0,-1,1,-2
1513481680668872,1,0,-2,1,-3,0,3,-1
1513481680668872,-4,1,1,0,-3,1,0,1
1513481680669877,0,-1,-2,-2,2,-1,-5,0
1513481680669877,2,-1,-1,-3,-1,0,-2,-3
1513481680690890,-5,-2,1,-1,-6,-2,0,-2
1513481680690890,-1,-3,-1,-1,-1,-1,1,0
1513481680692886,2,-1,-1,0,1,-1,-2,0
1513481680692886,-2,-1,-2,-1,-1,-1,-1,1
1513481680706887,0,-3,1,0,-1,0,1,-1
1513481680706887,0,1,-1,-3,-2,-2,-2,-4
1513481680709889,-1,-3,-1,-2,-1,0,-3,2
1513481680709889,-4,-1,-1,0,-1,-2,-1,0
1513481680727916,-7,0,0,0,-4,1,0,-3
1513481680727916,-3,1,-1,-1,1,-2,-1,2
