timestamp,emg1,emg2,emg3,emg4,emg5,emg6,emg7,emg8
1513173625359200,1,-1,-2,0,-1,-2,-1,-1
1513173625359200,1,0,-4,-2,-1,-1,-3,-1
1513173625373711,-3,-2,-1,-2,-1,-2,-2,-2
1513173625373711,-2,-5,0,-2,-1,1,0,-1
1513173625382217,0,2,-1,-3,-3,-1,-1,-1
1513173625382217,0,1,-2,-1,-1,-2,-1,0
1513173625384218,-3,0,0,-1,-1,-1,-1,-1
1513173625384218,0,-2,-2,1,-1,-1,-2,-1
1513173625405233,0,0,0,0,-2,-1,-1,-2
1513173625405233,-2,-3,0,0,-1,0,-1,-1
1513173625406735,-1,-2,0,-2,0,0,0,-3
1513173625406735,-1,-2,-2,0,0,-2,-1,-1
1513173625419242,-3,-3,0,1,1,-1,0,-1
1513173625419242,0,-1,-1,-1,-2,-3,-2,-2
1513173625427249,0,-1,-3,-2,-1,-2,-1,-1
1513173625427249,-4,-2,-1,-2,-2,-2,-1,-1
1513173625441759,1,-1,-1,-2,-1,-2,-2,-1
1513173625441759,-2,-1,2,2,0,-1,0,1
1513173625450264,-3,-1,0,1,-2,-2,-1,-1
1513173625450264,-1,-1,-2,0,-1,-1,-1,1
1513173625471801,0,-1,-2,1,-2,-1,-1,-1
1513173625471801,-1,-2,0,-2,-1,-1,-1,-1
1513173625480796,-1,-2,-3,-2,-3,0,-2,0
1513173625480796,-2,0,0,-1,-2,-2,-2,0
1513173625481796,3,2,-3,-2,0,-1,-2,0
1513173625481796,-2,-1,-1,-2,-1,0,0,-2
1513173625487802,-2,-1,-1,-1,0,-2,0,-1
1513173625487802,-1,-2,-1,0,-1,-1,1,-2
1513173625502311,0,0,-1,-4,-2,-2,-2,-1
1513173625502311,-1,0,0,-2,-2,-2,-1,-1
1513173625504302,-1,1,1,-2,1,-1,-1,-2
1513173625504302,-2,-2,-2,0,-1,-1,-3,-1
1513173625524818,-1,-2,4,2,1,0,1,2
1513173625524818,-1,-3,-2,1,-1,-3,0,-2
1513173625526318,-2,-3,0,-2,-1,-2,1,0
1513173625526318,0,0,-1,-2,0,0,-1,-1
1513173625538832,-1,-2,-3,-1,-2,-2,0,0
1513173625538832,-1,-1,-2,-2,-1,0,-2,-2
1513173625547333,0,0,-1,0,-1,-2,-2,-1
1513173625547333,-1,-1,-3,0,0,0,-2,-2
1513173625562343,-3,-2,-1,-1,0,-2,-1,-1
1513173625562343,-1,-1,-1,-1,-1,-1,0,-2
1513173625563854,0,-2,-2,-1,-2,0,1,-2
1513173625563854,-1,-3,-1,0,-2,-2,-1,0
1513173625584863,-2,-2,-1,0,-2,0,-1,-2
1513173625584863,-4,-2,3,-2,-1,-2,0,0
1513173625586361,-1,-3,-3,0,1,-1,-3,-2
1513173625586361,-2,-1,0,-1,-1,-1,-1,-1
1513173625607387,-1,-2,-1,2,-1,-2,-2,-2
1513173625607387,-1,-3,-3,-2,-1,0,-1,-2
1513173625608888,0,-1,-2,-1,-2,0,0,-2
1513173625608888,-2,-1,-1,-3,-3,0,-1,-1
1513173625622387,4,1,-4,-1,-3,-2,-2,1
1513173625622387,-2,-1,-1,-1,0,0,-2,-2
1513173625623900,-2,-1,-1,-1,-1,0,-1,-1
1513173625623900,-1,-1,-1,-1,-1,-2,0,-1
1513173625652425,1,0,-3,-4,-3,-2,1,-1
1513173625652425,-1,2,-2,-2,-3,-2,-2,-1
1513173625654422,0,-1,-1,1,-2,0,-1,-2
1513173625654422,0,-1,-1,-2,-3,-2,-2,-1
1513173625658426,-2,-1,-1,-2,-2,0,-2,-3
1513173625658426,-1,-1,-3,-2,-2,-2,-2,-1
1513173625667419,1,0,1,0,-2,0,-1,1
1513173625667419,0,-1,-3,0,-1,0,-1,-1
1513173625682450,-2,1,-1,-1,-2,-1,0,0
1513173625682450,-3,-1,-2,-1,-2,-2,-1,-3
1513173625683942,-2,-2,3,-1,-1,0,-1,-1
1513173625683942,0,0,0,-1,-1,0,0,1
1513173625704944,-1,-3,-1,-2,0,-3,-1,1
1513173625704944,0,-3,-1,-1,-1,0,-1,-1
1513173625706446,-1,-3,-2,-1,-2,-2,-2,-2
1513173625706446,-3,-5,2,0,0,1,1,-2
1513173625718464,0,-1,-1,0,0,-2,0,-1
1513173625718464,1,0,-2,-1,0,-1,-1,-1
1513173625735470,-3,-1,-1,-2,-2,0,-1,-1
1513173625735470,1,0,-3,-2,-1,-1,-2,-1
1513173625749988,-1,-1,-3,-3,-2,-3,-2,-1
1513173625749988,-3,-1,0,-1,0,-2,-1,0
1513173625752480,0,-1,-1,-2,-2,-1,-2,-1
1513173625752480,0,0,-2,-1,-1,-2,0,-2
1513173625765006,-1,-1,-3,-1,-1,-1,-1,-1
1513173625765006,1,1,0,-2,-2,0,0,-2
1513173625766490,-4,-3,3,0,1,-1,-1,-1
1513173625766490,-2,0,0,-1,-1,-1,-1,0
1513173625795021,-2,-1,0,0,0,0,-1,-1
1513173625795021,-3,-2,1,0,0,-2,-1,-1
1513173625796522,-1,-1,-1,-1,0,0,0,0
1513173625796522,0,-2,-1,-2,0,0,-2,-1
1513173625802523,1,-2,-1,-1,0,1,0,0
1513173625802523,-1,0,-2,-2,-3,-1,-1,-2
1513173625804016,0,0,-3,-3,-2,-3,0,-1
1513173625804016,-1,-1,-2,-1,-1,-2,-1,-1
1513173625825040,0,0,-2,0,-1,0,-1,-1
1513173625825040,4,-1,-1,-2,-1,-1,-3,-1
1513173625826541,1,-1,-3,-2,-2,-1,0,-1
1513173625826541,0,-1,-2,-2,-1,-1,0,-1
1513173625847558,-1,0,-2,-1,-2,-2,-1,1
1513173625847558,-1,0,1,-2,-1,-1,-1,-1
1513173625850062,-1,0,-1,1,1,0,0,-1
1513173625850062,-1,-1,-1,-2,0,-1,-1,1
1513173625862566,-1,-2,-2,-1,0,-1,0,0
1513173625862566,-2,-1,-2,0,-1,-1,-2,0
1513173625864067,-1,-1,-2,-1,-2,-1,-2,-1
1513173625864067,2,-1,-3,-1,-2,-1,-1,0
1513173625885072,1,2,-2,-2,-2,-3,-3,-1
1513173625885072,-5,-1,0,-1,-2,1,0,0
1513173625886581,-1,0,0,0,-2,-3,-2,-1
1513173625886581,-1,-4,3,0,0,-2,0,1
1513173625907599,0,0,-2,-2,0,-1,0,-1
1513173625907599,-2,-1,-4,-1,0,0,-1,-3
1513173625909101,-1,-1,-2,-3,-1,-2,-1,0
1513173625909101,1,7,-1,-2,-2,-2,0,0
1513173625929624,-5,-11,1,-1,-2,-2,-1,0
1513173625929624,-1,-2,1,1,0,0,-2,-2
1513173625931629,-3,-4,-1,-2,-2,-1,0,-3
1513173625931629,0,4,-4,-2,-1,-1,-3,-2
1513173625944627,-2,3,-1,0,-2,0,-1,-1
1513173625944627,2,1,-1,-2,-1,-3,0,0
1513173625946628,-2,0,-1,-1,0,-1,-1,-2
1513173625946628,-1,-4,-2,-2,0,1,0,-1
1513173625974135,0,-1,-1,-2,-3,0,0,-1
1513173625974135,-1,-2,-1,0,-2,-1,0,-2
1513173625984158,1,-1,1,-1,-2,-1,-1,-1
1513173625984158,-3,-2,-1,0,-1,-2,-1,-1
1513173625984657,-3,-4,-1,-2,1,-1,0,-1
1513173625984657,-1,0,0,0,-1,-1,0,-2
1513173625988655,-1,-2,1,0,-2,-3,0,-2
1513173625988655,-2,-2,-1,1,1,-1,-2,0
1513173626005169,-1,0,-1,1,0,-1,0,-1
1513173626005169,-1,-2,-1,-2,-1,-2,-3,-1
1513173626006659,0,0,-4,-1,-1,-1,-2,-1
1513173626006659,-1,-4,-1,-1,-1,0,-2,-1
1513173626027690,-2,0,-2,-2,0,0,1,0
1513173626027690,-2,-2,-1,-1,-1,-2,0,0
1513173626029675,0,0,-1,-2,-1,-1,-2,-2
1513173626029675,0,-2,-2,-1,0,-1,-2,-1
1513173626041684,-1,0,0,0,0,0,-1,-2
1513173626041684,-2,-2,-1,-2,0,-1,-2,-3
1513173626048700,0,-2,-1,-2,0,0,0,-1
1513173626048700,0,0,-1,0,-1,-2,-1,-1
1513173626071704,-2,-3,0,0,-2,-2,-1,0
1513173626071704,-2,-1,-2,-1,-2,-1,0,-1
1513173626080213,-1,0,-1,-2,-1,0,0,-2
1513173626080213,1,-2,-3,-3,-1,-2,-1,0
1513173626086715,1,0,-3,-2,-2,-2,-1,-1
1513173626086715,-4,-3,0,-1,0,-1,-2,-1
1513173626095224,-3,-2,0,1,0,-2,-1,-1
1513173626095224,0,-2,-1,-1,0,1,0,-1
1513173626101725,2,0,-1,-2,-2,0,-1,-1
1513173626101725,-1,0,-1,-2,-1,-1,-1,-1
1513173626108730,-4,-2,0,-3,-1,-2,-1,-1
1513173626108730,-1,-2,-2,0,-2,0,0,0
1513173626125245,-1,0,0,-1,0,0,-1,1
1513173626125245,-1,-1,1,-1,-3,-2,-2,-1
1513173626126743,-2,-3,-1,-1,-2,-1,-3,-2
1513173626126743,-2,-1,-1,-2,-2,-2,0,-1
1513173626147313,0,0,-5,-1,0,-1,0,0
1513173626147313,-1,3,-1,-1,-2,-1,-2,-1
1513173626149759,-2,2,-2,-3,-2,-1,0,-1
1513173626149759,-1,-1,-1,0,-3,-1,-2,0
1513173626162267,0,-2,-1,0,-1,-1,-1,-2
1513173626162267,-1,-4,3,-1,0,-1,0,-2
1513173626168791,-1,-2,1,-1,-2,-1,-3,-1
1513173626168791,-1,0,-2,-1,-1,-1,0,-1
1513173626184807,0,0,1,0,-2,0,-2,1
1513173626184807,0,-2,-2,1,-2,-2,-1,-2
1513173626186800,-3,-4,0,-1,-1,-1,-1,0
1513173626186800,1,-1,-2,0,0,-2,-1,0
1513173626207312,-2,-3,-1,-2,0,-1,-1,-2
1513173626207312,-2,-1,0,0,0,-2,-2,0
1513173626208301,0,0,-2,-2,-1,-3,-1,-1
1513173626208301,-3,0,-1,-1,0,0,0,-1
1513173626221443,-1,-2,0,0,-2,-1,-1,-1
1513173626221443,-3,-3,-1,-1,0,-1,-2,-1
1513173626229951,0,-2,-2,1,-2,-1,-1,-2
1513173626229951,1,-1,-2,-1,-2,-2,-2,0
1513173626252466,-2,0,0,-1,-2,-1,-1,-1
1513173626252466,0,-1,-3,-3,-1,0,-1,-2
1513173626253968,-2,-1,0,-1,0,-2,0,-1
1513173626253968,0,-2,-1,-3,-1,-1,-2,-2
1513173626266505,0,0,-3,-3,0,-1,0,1
1513173626266505,0,1,-1,-2,-1,-1,0,-1
1513173626274982,-1,0,-1,0,0,-1,-1,-2
1513173626274982,-1,-2,-1,0,-1,-1,0,-1
1513173626281489,0,-2,-1,1,-1,-1,-2,-2
1513173626281489,0,-2,0,-2,-3,-1,0,0
1513173626296000,1,-1,0,-1,-1,-1,-2,0
1513173626296000,-1,-2,-1,-1,0,-1,0,-2
1513173626305003,-5,-5,1,2,0,1,-1,-1
1513173626305003,0,1,-2,0,-1,-1,-2,-1
1513173626306504,-1,-1,-2,-2,-2,-1,-2,-2
1513173626306504,-1,-2,0,-2,-2,-1,-1,0
1513173626327519,1,-1,-3,-1,-1,-1,-1,0
1513173626327519,-3,0,-2,-2,-1,0,-1,-3
1513173626329035,-1,-1,-1,1,0,0,0,0
1513173626329035,0,0,-2,-2,-1,-2,-1,0
1513173626350065,0,0,0,-1,0,-1,0,-1
1513173626350065,0,-2,-1,-2,-2,0,-2,-1
1513173626352567,0,1,0,-1,0,-1,-2,0
1513173626352567,-1,-1,0,-1,-1,-1,-2,-1
1513173626364085,-1,0,-2,-2,-1,-1,-1,-2
1513173626364085,0,-2,-2,0,0,-2,1,-2
1513173626372592,-2,-3,0,1,-1,-1,1,-1
1513173626372592,0,0,-3,-1,-1,-1,-1,1
1513173626387592,-1,0,-1,-3,-2,0,-1,-1
1513173626387592,-1,-2,-1,0,-1,-1,-1,-2
1513173626389092,-1,-1,-2,-2,-2,0,-1,-2
1513173626389092,-1,-2,-2,0,0,-1,0,0
1513173626401103,-1,-4,-2,-2,-1,-2,0,-1
1513173626401103,-4,-1,-1,-1,-2,-1,0,-3
1513173626410107,0,-1,-2,-1,-2,-1,1,-2
1513173626410107,-2,-1,2,-1,1,0,-2,-2
1513173626424617,-1,1,-1,-2,-1,0,0,-1
1513173626424617,-1,-2,-1,-1,0,0,-1,-2
1513173626426631,0,0,-3,-2,-3,-1,-1,-1
1513173626426631,-2,-6,-1,0,2,1,-1,0
1513173626446649,0,1,1,0,0,-4,-2,0
1513173626446649,-1,-2,-1,-1,-1,-3,-1,0
1513173626455148,-2,0,-1,-2,0,-2,0,0
1513173626455148,0,-1,-3,-3,-1,-2,0,-1
1513173626461142,-2,-3,0,1,0,-1,-2,0
1513173626461142,-2,-1,-1,-1,-1,0,-1,-1
1513173626470150,-4,-4,1,0,1,-2,-1,-3
1513173626470150,-1,1,1,-1,-2,-1,1,0
1513173626484659,1,1,-2,-2,1,0,-2,0
1513173626484659,-3,-1,-1,-1,0,-1,-1,-3
1513173626486661,1,-3,-2,-1,0,-1,-1,0
1513173626486661,-1,0,-1,-3,-1,0,-1,-1
1513173626507687,0,-1,-2,-1,0,-2,-1,0
1513173626507687,-3,-1,-1,0,-2,-1,0,-1
1513173626509188,-1,-1,-1,-2,-2,-1,-4,-3
1513173626509188,-2,0,-3,1,0,0,-1,-1
1513173626529703,1,-2,-2,0,-1,-1,-1,0
1513173626529703,-1,0,0,0,-2,-1,-1,-1
1513173626531193,-2,-2,0,1,-1,-3,-1,-1
1513173626531193,0,-1,-2,-1,-2,-1,-2,-2
1513173626544719,-2,-1,-2,-2,0,0,-2,-2
1513173626544719,0,0,-1,-1,1,-1,-1,0
1513173626546717,-2,-1,0,-1,-2,-1,-1,0
1513173626546717,-1,-1,-1,-2,-2,-1,-2,1
1513173626574722,0,-1,-1,-1,-2,-1,0,-2
1513173626574722,0,3,-3,-2,-2,-2,0,-1
1513173626576224,0,-1,-3,-1,0,-1,-2,-1
1513173626576224,-1,-2,-1,0,-1,-1,0,-1
1513173626581226,-2,-2,-1,-2,-2,0,-1,0
1513173626581226,-2,0,-1,-2,-2,-2,-2,0
1513173626590235,1,0,-2,-3,-1,-1,-2,-3
1513173626590235,0,-1,0,0,1,-2,-1,1
1513173626605745,0,0,-1,-1,0,-1,-2,-3
1513173626605745,-1,-1,0,1,-1,-1,-3,-2
1513173626610748,-2,-2,-1,-2,-1,0,0,-1
1513173626610748,0,-2,-1,-1,-1,-2,1,-2
1513173626627760,-1,0,0,0,-3,0,-2,-3
1513173626627760,-1,-3,0,0,0,-1,-3,0
1513173626629261,-2,0,0,0,-2,1,-1,0
1513173626629261,0,0,-2,-3,-2,0,-2,0
1513173626641306,-2,0,-1,0,-2,-2,0,0
1513173626641306,-2,-3,0,-1,-1,-1,0,-2
1513173626651056,0,-1,-2,-1,-2,-2,-1,-1
1513173626651056,-3,-1,-2,-2,-2,-2,1,-1
1513173626672081,-1,-3,-3,-2,0,-1,0,-1
1513173626672081,-3,-2,-1,-2,-2,-1,-1,0
1513173626674095,-2,-2,0,-3,0,-1,-2,0
1513173626674095,1,-1,0,-1,-1,1,-2,0
1513173626687582,-1,0,-2,-1,-2,0,-1,2
1513173626687582,-2,-1,-1,0,0,-1,-2,-2
1513173626689083,0,1,-2,0,-1,-2,0,-2
1513173626689083,-1,-2,0,1,0,-2,0,-1
1513173626701148,0,1,0,1,-2,0,-1,-1
1513173626701148,1,-2,-1,-1,-2,-2,-1,-2
1513173626710110,-1,0,0,-2,-2,-1,-2,0
1513173626710110,-1,-1,0,-2,-2,-1,-1,-1
1513173626724609,1,-2,-1,0,0,-2,0,-2
1513173626724609,-2,-1,-2,-2,0,0,-1,-1
1513173626732614,-2,-2,-1,0,-2,-1,0,-1
1513173626732614,-2,-1,-1,0,-2,0,0,0
1513173626747644,-1,-3,-1,0,-2,-2,-2,0
1513173626747644,-1,0,1,-2,-2,-1,-1,-1
1513173626749145,-3,-1,-1,0,-1,-2,-1,-2
1513173626749145,0,-1,-2,-2,-1,0,-2,-1
1513173626761135,-2,-1,-2,-1,-1,-1,-2,-1
1513173626761135,-2,0,-1,-1,0,-2,-2,-2
1513173626770153,-1,0,-1,-1,0,-2,0,-2
1513173626770153,-1,1,-2,0,-2,-3,-1,0
1513173626785173,-1,-1,0,-1,-2,-2,1,-3
1513173626785173,-2,-1,0,-2,-3,-1,0,-1
1513173626787158,-2,-1,-2,-1,-2,-1,-2,-1
1513173626787158,-3,-1,-1,1,0,0,-1,-1
1513173626806666,-3,-1,-1,1,-1,1,-1,-2
1513173626806666,1,2,-1,-1,-2,-1,-1,-2
1513173626821177,-1,-3,0,0,-2,1,-3,-1
1513173626821177,2,1,-1,0,-2,-2,-2,-1
1513173626830195,-1,-1,-1,1,-1,-1,-2,-1
1513173626830195,0,-2,-1,-2,0,-1,-1,-3
1513173626831688,0,0,-2,-2,0,-1,0,-1
1513173626831688,-1,-1,-1,-2,-2,-1,-1,1
1513173626859715,-2,-1,0,-2,-1,-2,-1,-1
1513173626859715,-1,-1,0,-1,-2,-1,0,-2
1513173626861204,-1,-3,-2,-1,-1,0,0,0
1513173626861204,-1,-1,-1,-1,0,-1,-1,-1
1513173626867212,-1,-1,-2,-3,-2,-2,-1,0
1513173626867212,-2,-1,-1,-1,0,-1,-3,-2
1513173626869210,-2,-1,-1,-1,0,0,-1,-3
1513173626869210,-1,-1,-2,-2,1,-2,-1,-2
1513173626889725,-1,0,-1,0,-1,-2,0,1
1513173626889725,-1,-1,-2,0,0,-2,1,-1
1513173626891726,2,1,-2,-1,-2,0,-2,0
1513173626891726,0,-1,-2,-2,-1,-1,-1,-1
1513173626905252,0,-1,-3,-3,0,0,-1,-2
1513173626905252,-3,-4,-1,-2,-2,-1,-2,-1
1513173626906737,-1,0,-1,-1,-1,-2,0,-1
1513173626906737,2,-1,-1,-1,-3,1,1,0
1513173626927251,0,-1,-1,0,-1,0,0,0
1513173626927251,-2,-2,0,0,0,-1,-1,-3
1513173626928752,-2,-1,0,-3,-3,-4,-3,-2
1513173626928752,-2,-2,-2,-2,0,0,-2,-1
1513173626949788,-3,-1,-2,0,0,-2,0,-2
1513173626949788,-2,-1,2,-2,-3,0,-1,-1
1513173626951769,-1,0,0,0,0,-1,-1,0
1513173626951769,0,-1,-1,0,-1,-2,-2,-2
1513173626964278,0,-2,-2,-2,-2,-1,-1,-1
1513173626964278,-1,-2,-2,-2,-2,0,-1,-2
1513173626970783,-2,-1,-1,-2,0,-2,-1,-1
1513173626970783,0,0,-2,-1,-2,-2,-1,-1
1513173626994809,-3,-1,-1,-2,-1,-2,0,-2
1513173626994809,-1,-1,-2,-1,-1,-2,0,0
1513173626996310,-1,-2,-1,0,-1,-1,-1,0
1513173626996310,-3,-4,0,1,1,0,0,2
1513173627009810,-1,2,-2,-2,-3,-2,-2,-3
1513173627009810,0,1,-3,1,0,-2,0,-2
1513173627011811,-2,0,-1,-1,-1,0,0,-2
1513173627011811,1,-2,-2,-1,0,-2,-1,1
1513173627024841,-1,-2,-2,-3,0,-2,-2,2
1513173627024841,0,0,-2,0,-1,0,-2,0
1513173627038344,-1,-2,-1,0,-1,-2,0,-1
1513173627038344,0,1,0,-1,-2,0,-1,-2
1513173627047356,-2,0,1,-1,-3,0,-2,-2
1513173627047356,-1,-2,-1,-2,0,-1,-1,-2
1513173627048838,-3,-4,0,-1,-1,0,1,-1
1513173627048838,-2,1,-1,0,-1,-1,0,-2
1513173627069862,0,-2,1,-1,-1,-3,1,-1
1513173627069862,-6,-3,2,-1,-1,-2,-1,-2
1513173627071364,2,0,-3,-4,-1,-1,-1,0
1513173627071364,-1,-2,-1,0,0,1,-1,-1
1513173627084380,0,-1,-1,-1,-2,1,-2,-1
1513173627084380,0,0,-2,0,-1,-2,-2,0
1513173627090868,-4,1,-1,-2,-2,-1,-1,-1
1513173627090868,1,1,-2,-1,-1,0,-2,0
1513173627107388,1,-2,-1,-1,0,-1,0,0
1513173627107388,-1,-2,-1,-1,-2,0,1,-3
1513173627108889,0,-2,-1,-1,-1,-2,-1,0
1513173627108889,1,0,-3,-1,-2,-1,-2,0
1513173627129904,-1,0,0,0,-1,-2,-2,-1
1513173627129904,0,1,-2,-1,-2,-2,-1,0
1513173627137401,-3,-3,-1,0,-1,-1,-1,0
1513173627137401,2,-1,-1,-2,-1,-2,-1,0
1513173627144415,-3,-3,1,0,-1,2,-1,-2
1513173627144415,-3,0,0,0,-1,-1,-1,-1
1513173627150911,3,1,-1,0,-1,-1,-3,-1
1513173627150911,-3,-2,-3,-2,1,0,-1,-1
1513173627167421,-2,-1,1,-2,-3,-2,0,-1
1513173627167421,-1,-3,-2,-1,-1,-2,-1,1
1513173627168922,-1,-2,-1,-2,0,-2,-1,1
1513173627168922,-2,0,-1,-1,0,-1,-1,0
1513173627189937,1,-2,-2,-1,0,-1,0,-1
1513173627189937,-2,0,-3,-4,-1,-1,-1,-2
1513173627191438,0,0,-2,-2,0,0,-2,-1
1513173627191438,-2,-3,0,-1,-1,-1,-1,-1
1513173627204446,0,1,-3,-2,-1,-2,-1,0
1513173627204446,-1,-2,1,0,-1,-1,-1,-1
1513173627210964,-1,-1,-1,0,0,0,0,2
1513173627210964,0,-1,-1,0,-3,-1,1,0
1513173627235472,-2,-1,-1,1,1,0,-2,-1
1513173627235472,-2,-1,0,-3,-1,-3,0,-1
1513173627236974,-1,0,-1,-1,-2,-1,0,-1
1513173627236974,1,1,-2,-1,-1,0,-2,-2
1513173627257497,-2,-1,-3,-2,0,-2,1,-1
1513173627257497,-8,-7,-1,0,1,0,0,-2
1513173627259168,0,-1,0,-1,-1,0,-1,-1
1513173627259168,-1,0,0,0,-1,-3,-1,0
1513173627264171,-3,-3,0,-1,-3,-1,-2,-3
1513173627264171,0,1,0,-2,-2,-1,0,1
1513173627271176,-3,-2,-1,-1,-2,-1,-2,-2
1513173627271176,-2,-1,0,-2,0,0,-2,-1
1513173627287175,0,0,-2,-1,-2,0,-2,-2
1513173627287175,0,1,-1,-2,-2,0,-2,-3
1513173627289188,0,-1,-2,-2,-1,-2,-1,-2
1513173627289188,1,-1,-1,-2,-1,-1,-1,0
1513173627317241,-2,-1,0,-1,-1,-3,-1,-1
1513173627317241,0,0,-1,0,-2,-1,-2,0
1513173627319235,0,0,-1,-2,-2,0,1,-2
1513173627319235,-2,-4,-1,0,-1,-1,-2,1
1513173627332210,-2,-2,-1,-2,-2,-1,0,-1
1513173627332210,-1,-1,0,-1,-2,2,-1,-1
1513173627334221,2,2,-4,0,-1,-2,-1,0
1513173627334221,-1,-1,-3,1,-1,-2,0,0
1513173627347230,0,1,-2,-3,-2,-2,-2,-2
1513173627347230,-5,-5,0,2,1,-1,-1,-1
1513173627349232,0,-1,-1,0,-2,-2,-1,0
1513173627349232,0,0,-1,0,-2,0,-1,0
1513173627369734,-1,-1,-1,1,-1,0,0,0
1513173627369734,2,1,-3,-2,-2,-1,-1,-1
1513173627371240,-1,-1,-1,0,-1,-2,-1,-3
1513173627371240,-2,-2,-2,-1,0,0,0,-3
1513173627383744,-3,-1,0,-1,1,0,-3,-1
1513173627383744,0,-1,-1,-2,-2,-1,0,-1
1513173627392750,-2,-1,0,0,-1,-1,-2,-1
1513173627392750,0,0,-1,-3,0,-1,1,0
1513173627408261,0,-2,0,-3,-2,-2,0,-1
1513173627408261,-1,0,-2,0,-1,-2,-2,0
1513173627413265,-1,-1,-2,-1,-1,-1,-1,0
1513173627413265,-1,-1,-2,-1,0,-1,-1,-2
1513173627437283,0,-1,-2,-1,0,-1,-1,-2
1513173627437283,0,0,-2,-1,0,0,0,-1
1513173627439283,-1,-2,-1,-1,-2,-1,-1,-1
1513173627439283,-1,0,1,-1,-2,0,-1,0
1513173627451291,-2,-2,0,1,-2,-2,-1,0
1513173627451291,-2,-1,-1,-2,-2,-2,-2,-1
1513173627459797,-2,-1,-1,-1,0,0,-1,1
1513173627459797,-1,0,0,-3,-1,-1,0,0
1513173627467304,-2,-3,1,1,-2,0,-1,-3
1513173627467304,2,2,-3,-3,-3,-1,-1,-1
1513173627468804,-1,-2,0,1,-1,-2,0,-1
1513173627468804,1,-1,-2,-1,-1,0,-1,0
1513173627490820,-1,1,-3,-1,-3,-3,0,0
1513173627490820,0,-1,-1,1,0,-1,0,-2
1513173627492321,-1,-1,0,0,-1,-1,-2,0
1513173627492321,-3,-2,-2,-1,-2,0,-1,0
1513173627512354,-2,-2,1,-2,0,-2,0,-2
1513173627512354,0,-3,0,-2,-1,-1,-1,-1
1513173627513839,-1,-1,-2,-1,1,1,-2,-1
1513173627513839,-4,-4,-1,-1,-1,-2,-1,-2
1513173627527345,0,0,-2,-1,-2,-1,-2,-2
1513173627527345,0,0,0,-1,-2,0,0,-1
1513173627528847,1,2,-2,-1,-3,-2,0,0
1513173627528847,-1,-1,-2,-2,-1,-1,-1,1
1513173627550388,-1,0,-1,-1,1,-1,-1,-1
1513173627550388,-3,-3,-1,0,-2,-1,-2,-1
1513173627551890,1,-1,-2,-3,-1,-1,-1,-2
1513173627551890,0,-2,0,0,0,-3,-3,1
1513173627563398,-1,0,-1,-2,0,-1,-1,0
1513173627563398,-2,-1,0,0,0,-2,0,-3
1513173627572404,0,-1,-1,0,0,0,-1,-1
1513173627572404,-1,-1,-2,-1,-1,0,-1,-1
1513173627594928,-1,-2,1,-1,-1,0,-1,-1
1513173627594928,-1,-1,-2,-2,-1,-2,0,-1
1513173627596431,1,-3,-1,-2,-2,0,1,0
1513173627596431,2,-1,0,0,0,-2,-2,0
1513173627609940,-2,1,-1,-1,1,-1,0,-1
1513173627609940,-3,0,0,-1,-2,-2,0,-1
1513173627611443,-1,0,1,0,0,0,0,-1
1513173627611443,0,-2,-1,0,-1,-1,-2,-1
1513173627623449,-3,-2,-2,-2,-2,-1,-1,-1
1513173627623449,-1,-1,0,-1,-1,-2,-1,-2
1513173627632469,-1,-1,-2,-1,-1,-1,-1,0
1513173627632469,-1,0,-3,-1,0,0,-1,-2
1513173627646457,0,0,0,-1,-2,1,-1,-1
1513173627646457,-2,-2,1,0,-1,0,-2,-1
1513173627654968,-1,-1,-2,0,-1,-2,-2,0
1513173627654968,-1,-1,-2,0,0,0,0,-1
1513173627669472,0,-2,-2,-2,-2,-2,-2,-1
1513173627669472,0,-1,-1,-1,-1,-1,-2,0
1513173627683998,1,-1,0,0,1,-2,-2,-1
1513173627683998,0,-1,-2,-1,-3,-1,-1,0
1513173627685000,-2,-1,-2,0,-2,0,-2,-2
1513173627685000,-1,-2,-2,0,-2,0,0,-2
1513173627692488,-3,-2,-2,-1,0,-1,-2,0
1513173627692488,3,2,-1,-2,-1,-2,0,-2
1513173627707508,-2,0,-1,1,-1,0,-1,-3
1513173627707508,-2,0,-2,0,-1,-1,0,0
1513173627709009,-1,0,-3,-2,-2,0,0,1
1513173627709009,-2,-1,-1,0,0,-2,-2,-1
1513173627737520,-2,-3,-1,-1,-2,-2,-2,-1
1513173627737520,-3,-5,2,-1,0,1,-1,-2
1513173627739021,1,1,-1,0,-1,-2,-1,-1
1513173627739021,-2,-1,-1,-2,-1,0,0,2
1513173627752552,0,0,-1,-1,-2,-1,1,-1
1513173627752552,-2,-1,-2,-2,-2,-1,-1,-2
1513173627754033,-1,0,-2,0,-2,-2,-2,0
1513173627754033,0,0,-1,0,-1,-2,0,-2
1513173627766552,-1,-1,0,1,-1,1,1,-1
1513173627766552,2,1,-4,-3,-1,-3,-1,-1
1513173627781065,-1,-1,-1,-2,-2,-1,0,0
1513173627781065,-2,-1,-2,-1,-2,-1,-2,0
1513173627789566,-4,-4,1,-2,1,-1,-1,0
1513173627789566,0,1,-2,-2,-3,-2,-1,0
1513173627791558,-2,-3,-1,-1,-1,-1,-1,-1
1513173627791558,-1,-1,-3,-1,-1,-3,0,-1
1513173627812572,1,0,-2,0,-2,-1,-2,-1
1513173627812572,-2,-1,-1,-1,0,-1,-2,-1
1513173627814073,-2,-2,0,-1,-2,-1,1,-2
1513173627814073,0,-1,-1,-1,-1,-2,-2,0
1513173627827601,-2,0,-1,-2,-1,-2,-1,-1
1513173627827601,0,-1,-1,0,1,0,-1,0
1513173627829102,1,-1,-2,-2,-3,-1,0,1
1513173627829102,-1,-1,-2,0,-1,1,-2,0
1513173627849611,0,-2,-1,-2,-2,-2,-2,-1
1513173627849611,-2,-2,-1,0,2,-1,-2,-3
1513173627851612,-3,-1,1,-1,-1,0,-1,-1
1513173627851612,-1,-2,-1,-1,-1,1,-1,0
1513173627871627,-1,-1,-1,-1,-3,-2,-1,-1
1513173627871627,-3,-3,-1,-1,-3,-2,0,-1
1513173627880132,2,-2,-1,0,0,-2,-2,-1
1513173627880132,-1,0,0,-2,-1,-1,-1,0
1513173627886626,-1,0,-1,-1,-2,-4,-1,-1
1513173627886626,1,-2,0,-1,-2,-1,-1,-1
1513173627893642,0,0,0,0,-2,0,-1,-1
1513173627893642,-2,-2,-2,-1,-1,-2,0,-2
1513173627917157,0,-1,-1,-2,-1,2,-1,-1
1513173627917157,-2,-2,-2,-2,0,0,-3,0
1513173627919148,-1,-1,-1,-2,0,-1,-1,-1
1513173627919148,-1,-4,-1,0,-1,0,-2,-1
1513173627932661,-4,0,1,-3,-2,-2,-1,-1
1513173627932661,1,-1,0,-1,-1,-1,-2,-1
1513173627935160,0,-1,0,-2,0,0,-1,0
1513173627935160,0,-3,0,-2,-1,-1,-1,-1
1513173627946697,-1,-2,-2,-2,1,-1,-1,-2
1513173627946697,0,0,-1,-1,-1,-2,-1,-2
1513173627970684,-1,-2,-1,2,0,-1,0,-1
1513173627970684,-1,0,1,-2,-1,-1,0,-1
1513173627971192,0,0,-1,-1,-2,0,-1,-1
1513173627971192,-3,-1,0,-2,-2,0,-1,-1
1513173627972699,0,1,-1,-2,-3,-1,-2,0
1513173627972699,-2,-1,-2,0,0,0,-1,0
1513173627992200,-2,1,-1,2,-3,0,-2,-2
1513173627992200,-3,-2,0,-1,-1,0,-1,-1
1513173627993701,-1,-1,0,-1,-1,-1,-2,-1
1513173627993701,-2,-2,1,-2,-1,0,-2,-1
1513173628006723,-2,-3,-2,-2,0,-2,0,-3
1513173628006723,-1,-1,-1,-1,-1,-2,0,-1
1513173628013224,-1,0,-1,-1,1,-2,-1,0
1513173628013224,0,2,-1,-1,-2,-2,-2,0
1513173628030228,-3,-2,-1,-1,0,0,-1,-2
1513173628030228,0,-1,-2,-1,-1,0,-1,-2
1513173628032240,0,-2,-4,0,0,-2,-1,0
1513173628032240,2,0,-2,-1,0,-2,0,-1
1513173628059815,2,2,-3,0,0,-3,-1,-2
1513173628059815,-2,-1,0,1,0,0,0,-1
1513173628061307,-1,-1,-1,-1,-2,-1,-1,-1
1513173628061307,-1,0,-1,-2,-3,-1,-1,0
1513173628066915,1,0,-2,-2,-2,-2,-1,-1
1513173628066915,-1,-2,1,-2,-1,-1,-1,0
1513173628073523,0,0,-1,0,0,0,0,0
1513173628073523,-1,-1,-2,-1,1,-2,-2,-2
1513173628104058,-1,-3,1,-1,-2,-2,-1,-2
1513173628104058,-2,-2,-3,-2,-2,-3,-1,-2
1513173628114575,-2,-2,-1,-1,0,1,0,-2
1513173628114575,-1,-1,-2,1,-2,-1,-1,-1
1513173628115553,-2,-3,-1,0,-2,-1,-3,-1
1513173628115553,0,-2,-1,-1,-1,0,-1,-1
1513173628118558,0,-1,-1,-3,-2,-2,1,0
1513173628118558,-1,0,1,0,0,1,-1,-2
1513173628126576,-3,-1,1,1,0,-1,-1,-1
1513173628126576,2,3,-4,-2,-3,-2,-1,-1
1513173628133569,-1,-2,-2,-2,0,-1,-1,1
1513173628133569,0,-2,-2,-1,-1,-2,-1,-1
1513173628150578,1,-1,-2,-3,-1,-1,-2,-1
1513173628150578,0,-2,-1,-2,-1,-1,0,-2
1513173628152081,-2,0,-2,-3,-1,-2,-1,1
1513173628152081,-1,-2,-3,-1,-1,-1,0,0
1513173628172594,-1,-1,1,1,0,-2,-1,-1
1513173628172594,-2,-2,0,0,0,-1,-2,-1
1513173628174099,-1,-1,0,0,-1,-2,-2,1
1513173628174099,0,-2,-1,-1,-2,-1,0,0
1513173628186604,-2,0,0,0,-2,-2,0,-1
1513173628186604,-3,-1,-2,0,0,-1,-1,-1
1513173628195110,-1,-2,-1,-1,-1,1,-2,-2
1513173628195110,0,-1,-2,0,-1,-1,1,-1
1513173628209619,-1,0,-1,-2,-1,-1,-2,-2
1513173628209619,-2,-3,1,0,-2,-3,0,1
1513173628211620,0,1,-2,-1,-2,0,-3,-1
1513173628211620,-1,-1,-1,-1,-3,-1,-1,-1
1513173628232138,-2,-4,0,0,-2,1,-1,0
1513173628232138,0,-2,-1,0,0,0,-2,0
1513173628234637,1,0,-2,-1,-2,-1,-1,-1
1513173628234637,-3,-4,0,0,-1,1,-1,-1
1513173628246147,-6,-3,0,0,-1,-1,-1,-1
1513173628246147,-1,0,-1,-2,-1,-2,-1,-2
1513173628255170,1,0,0,-2,0,0,0,-2
1513173628255170,0,1,-1,-1,0,-2,-1,-1
1513173628269683,3,-1,-1,-1,-3,-2,1,-1
1513173628269683,0,0,-2,-2,-1,-1,-2,0
1513173628271669,0,-2,-1,-1,-1,0,-1,-2
1513173628271669,-1,1,-1,0,-2,-2,-1,-1
1513173628291677,-2,0,-1,-1,-1,0,-3,-1
1513173628291677,0,0,-3,-1,-1,-3,-1,-2
1513173628300183,-2,0,-1,0,-1,0,1,0
1513173628300183,0,-1,0,-3,-2,-2,-1,-1
1513173628306206,0,-1,0,-3,-1,-2,-1,-1
1513173628306206,-2,-1,1,0,-1,0,-1,-2
1513173628315194,1,2,-2,-2,0,-1,-1,-1
1513173628315194,-4,-4,0,-1,0,0,0,-1
1513173628329714,-2,-2,-1,-1,0,-1,-1,-3
1513173628329714,0,-2,0,-3,-1,-2,-3,1
1513173628331206,-1,0,-1,-2,0,-1,-1,0
1513173628331206,0,1,-1,-2,-1,-2,-1,-1
1513173628352230,-2,1,-2,0,-1,-1,0,-2
1513173628352230,-2,-2,0,0,-1,0,0,-1
1513173628353722,0,-2,0,-1,-2,0,-2,-1
1513173628353722,-2,-1,1,-2,0,0,-3,0
1513173628365739,-2,-1,0,-3,-2,-1,0,-1
1513173628365739,0,-1,-2,-1,0,-1,0,-1
1513173628374742,-2,-2,-2,0,0,-1,0,-1
1513173628374742,-1,0,-1,-2,-1,-3,-2,-4
1513173628389747,0,-1,-1,-1,-1,1,-1,-1
1513173628389747,-1,2,0,-2,0,-2,0,1
1513173628391248,-3,-5,-2,0,0,0,0,0
1513173628391248,-2,-1,0,-2,-1,-1,-2,-1
1513173628412273,-3,-1,-2,-1,-1,0,-2,-1
1513173628412273,-2,-2,1,0,-3,1,0,-4
1513173628413764,1,0,-2,-3,0,-2,-2,-2
1513173628413764,-2,-2,-2,0,-1,2,0,-1
1513173628425772,-3,-4,1,-1,-1,0,0,-2
1513173628425772,2,1,-3,-2,-2,0,-1,-1
1513173628435813,-2,0,-2,-2,-3,-1,-3,-1
1513173628435813,0,-2,-3,-3,-2,-1,-1,0
1513173628449821,0,-1,0,-1,-1,0,-2,-2
1513173628449821,-5,-2,-2,1,0,-1,0,-2
1513173628452321,1,2,-1,0,-1,-1,-1,0
1513173628452321,0,1,-1,-1,-1,-2,-2,-1
1513173628471835,-2,-1,-1,-1,-1,0,-2,0
1513173628471835,-1,-2,1,1,0,-1,0,1
1513173628472335,-2,-1,-1,-1,-1,-1,-2,1
1513173628472335,-2,1,-1,-1,-3,-1,0,-1
1513173628494363,-1,-1,-1,-1,-1,-1,-1,-1
1513173628494363,-1,0,-2,-1,-1,0,-2,-2
1513173628494851,-1,-3,0,-1,-1,0,-1,-1
1513173628494851,3,-2,-3,-1,0,0,-2,-2
1513173628509371,-1,0,-2,-1,0,-3,-1,-2
1513173628509371,-3,-3,-2,-2,0,0,-1,-1
1513173628509862,0,-2,0,-1,0,1,0,-1
1513173628509862,-2,0,-1,1,-3,-1,-1,-1
1513173628531901,-2,-1,-1,-1,-2,-1,-1,-1
1513173628531901,1,-2,-2,-1,-1,-1,-1,0
1513173628532387,-1,-1,-2,-1,-1,-3,-2,-1
1513173628532387,-2,1,-1,-3,1,-1,-2,0
1513173628554395,-1,-2,-1,-2,-3,-1,0,0
1513173628554395,1,0,-1,-1,0,-1,0,0
1513173628554894,-2,-1,-1,0,-2,-1,0,-1
1513173628554894,-1,-2,-2,0,1,-1,-2,-3
1513173628569414,-1,0,-2,-2,0,-2,-3,-2
1513173628569414,0,0,1,1,-1,-1,-1,-1
1513173628569904,0,-1,-1,0,0,-1,0,0
1513173628569904,-2,-1,-1,-2,-1,-1,-1,-1
1513173628591419,-1,-2,0,1,0,-1,-1,-2
1513173628591419,-1,-1,0,0,-2,-3,0,-1
1513173628592420,0,-2,-2,-1,0,-1,0,1
1513173628592420,-3,-2,0,-1,-2,-1,0,-2
1513173628614435,-1,0,-2,-1,-2,-1,-1,-2
1513173628614435,0,0,-1,-3,0,0,-2,0
1513173628615438,-1,1,-2,0,-1,0,-1,0
1513173628615438,-1,0,0,-1,1,-2,0,-1
1513173628628948,-1,-1,-1,-2,-2,-1,-2,-1
1513173628628948,0,-2,-3,-1,-2,-2,-1,1
1513173628629946,-1,0,-1,-2,1,-1,-2,-2
1513173628629946,1,0,-1,-3,-2,-2,-1,-1
1513173628651509,0,1,-1,-1,-4,-2,0,-1
1513173628651509,-2,-3,0,0,-1,0,0,0
1513173628653501,-1,-2,-1,-2,-1,0,-1,-1
1513173628653501,-1,-1,0,-2,-1,-1,-3,-1
1513173628674016,0,0,-2,0,0,-3,0,-2
1513173628674016,-2,0,-1,-4,-3,-2,-2,-1
1513173628675025,0,-1,-2,0,-2,-2,0,0
1513173628675025,-3,-2,0,1,-1,1,0,-1
1513173628689027,-3,-1,0,0,0,-1,-1,-2
1513173628689027,-1,-1,-1,-1,-1,0,1,-1
1513173628690027,-1,0,-1,-1,0,-1,-2,-3
1513173628690027,-2,0,-1,-1,-2,-1,-2,-2
1513173628711542,-1,-3,1,0,0,-2,0,-2
1513173628711542,-2,-2,0,-1,1,-2,0,-1
1513173628712543,-1,-1,-1,-3,0,-3,-2,-1
1513173628712543,-1,-1,-2,-1,-1,0,0,0
1513173628734569,-1,0,-2,-2,0,-1,-1,-1
1513173628734569,-2,0,-3,-1,-1,1,-1,-1
1513173628735583,-1,-3,0,1,0,0,0,0
1513173628735583,-2,-1,-1,1,-1,-2,0,-1
1513173628750570,-3,1,1,0,1,-1,0,-1
1513173628750570,2,1,-1,-2,-2,-2,-1,-2
1513173628751571,-1,0,0,-2,-1,0,0,1
1513173628751571,0,-2,-1,-1,0,-1,-1,0
1513173628771618,0,0,0,-2,-1,-2,-2,-2
1513173628771618,0,0,-1,0,0,-2,-1,-1
1513173628772597,0,0,-1,-1,-2,0,-1,-1
1513173628772597,-1,-1,-1,-1,-1,-1,-1,0
1513173628794103,-3,-4,-2,-1,-2,1,-1,-1
1513173628794103,-1,0,-2,-2,-1,0,-2,0
1513173628795105,-1,0,-1,0,1,-1,-1,-1
1513173628795105,-1,0,-1,-1,-2,-2,0,-1
1513173628809114,1,0,-3,-1,-1,-1,0,-2
1513173628809114,-1,-2,-2,0,0,-2,-1,0
1513173628810114,2,2,-4,-2,-2,-2,0,0
1513173628810114,-5,-3,-1,1,0,-1,-1,-3
1513173628831639,-2,-4,0,0,-1,-1,-3,-2
1513173628831639,-2,-2,0,-2,0,-1,-2,-2
1513173628832639,-1,0,-1,0,-1,-1,-2,-1
1513173628832639,0,-2,0,-2,-2,-1,0,-1
1513173628854146,0,0,-1,-2,-2,-2,-2,1
1513173628854146,0,-1,1,-1,-1,0,-1,1
1513173628855145,-1,-2,-1,-1,0,0,-1,-1
1513173628855145,0,0,-1,0,-2,-2,-1,-1
1513173628869166,-2,-3,-1,-2,0,-2,1,-2
1513173628869166,0,-1,-2,0,-2,-3,-1,0
1513173628870166,0,-1,-1,-3,-1,-1,-1,-1
1513173628870166,-1,-1,0,-2,-1,0,-2,-1
1513173628891181,1,2,-3,-3,0,-3,-1,0
1513173628891181,-3,-4,1,1,-1,-1,0,-2
1513173628899175,-3,-1,-2,0,-1,-1,0,-1
1513173628899175,-2,0,-2,-3,-1,-3,-2,-2
1513173628914185,0,-1,0,-3,-3,-1,-1,0
1513173628914185,0,0,-3,-1,0,-2,-1,-1
1513173628914699,-2,-1,3,0,-1,-1,0,1
1513173628914699,-1,0,-3,0,-2,-1,1,-1
1513173628929220,-2,0,-2,0,0,-2,-2,0
1513173628929220,-1,-2,1,-1,-1,-1,0,0
1513173628930198,-1,-3,-3,-3,-1,-2,0,-1
1513173628930198,1,0,0,0,1,0,-3,-2
1513173628951725,-3,-1,0,0,0,-1,-1,-2
1513173628951725,-2,0,-2,-2,-1,1,0,0
1513173628952212,0,0,0,0,-1,-1,-2,1
1513173628952212,2,2,-1,-3,-1,-1,-2,-1
1513173628974229,-4,-4,1,0,-1,0,1,-1
1513173628974229,-1,0,-2,-2,-2,0,-3,-1
1513173628974729,-1,-2,0,-1,-1,-3,0,-1
1513173628974729,-2,-2,0,-1,-3,-1,0,-2
1513173628989745,-1,-2,0,0,-2,1,1,-2
1513173628989745,1,0,-2,-1,-1,-2,0,0
1513173628989745,0,0,-1,-1,0,-1,-1,-1
1513173628989745,-2,-1,0,-1,-2,-1,-1,-2
1513173629011755,-1,0,-2,-2,0,-2,-1,-1
1513173629011755,0,1,-2,-1,0,-2,0,-2
1513173629012255,0,0,-5,-1,-1,-2,-1,-2
1513173629012255,0,-2,1,-1,0,0,-1,-3
1513173629034274,-1,0,-1,-2,-2,-1,-1,-1
1513173629034274,0,0,-2,-1,-1,-1,-2,-1
1513173629035775,-2,-2,-2,-1,0,-2,-1,-3
1513173629035775,-4,-2,-1,0,-1,-3,-1,-1
1513173629049280,-1,-2,-2,-1,-2,0,-1,-2
1513173629049280,1,-1,-1,0,-1,-1,-1,0
1513173629049783,0,0,-2,-2,-2,-1,0,0
1513173629049783,-3,-5,-1,-1,1,-2,0,-2
1513173629071799,-1,-2,1,-1,-2,1,0,-1
1513173629071799,1,-2,0,-1,0,-3,-2,-2
1513173629072300,-1,-1,-1,0,-3,1,-2,-1
1513173629072300,-1,0,-2,-1,-1,-1,2,0
1513173629102334,-1,0,-1,-1,0,-2,-3,0
1513173629102334,-2,-2,0,-1,1,2,-2,0
1513173629102818,-3,-2,-1,-1,-1,-1,-2,-2
1513173629102818,-2,-1,-1,-2,-1,-2,-2,-3
1513173629108832,-2,-3,0,-1,-1,0,-1,-2
1513173629108832,-2,-1,0,-1,-2,0,-1,-2
1513173629109833,1,0,1,0,-1,-2,0,1
1513173629109833,-1,0,-1,-1,-3,-1,0,-1
1513173629131342,1,-1,-3,-2,-2,0,-1,-2
1513173629131342,0,-3,0,1,0,-1,1,0
1513173629132339,1,1,-4,-2,-3,-2,-1,-1
1513173629132339,-3,0,0,-1,-1,-1,-1,-2
1513173629154355,-2,0,1,0,-2,-1,-1,-1
1513173629154355,0,0,-2,-1,-2,-1,-3,-2
1513173629155856,-2,-2,-1,0,-1,-1,-1,-1
1513173629155856,-1,-1,1,-3,0,-2,-2,-2
1513173629169365,-2,0,0,-2,-1,-2,-1,-2
1513173629169365,-1,-1,-3,-2,-1,1,1,-1
1513173629169867,0,-2,-1,-1,0,-2,-3,-2
1513173629169867,-1,0,-1,0,-1,0,-1,-1
1513173629191381,-1,-1,0,0,-1,-2,-2,-2
1513173629191381,-1,-2,-3,-3,-1,-2,-2,-1
1513173629192382,-2,-2,1,-1,0,-1,-1,-1
1513173629192382,0,0,-1,-1,-1,-1,-1,-1
1513173629214416,-1,-1,-3,-1,-3,-4,-2,0
1513173629214416,-1,-1,-2,-1,0,-1,1,2
1513173629215417,1,0,-3,0,0,0,0,-2
1513173629215417,0,-1,-1,-1,-2,-1,-2,-2
1513173629229418,0,0,-2,-3,-1,-2,-1,-2
1513173629229418,-1,-4,-1,-1,-1,-2,-1,-1
1513173629229918,-1,-4,1,1,-1,1,-1,1
1513173629229918,-1,0,-2,-1,-2,-2,-1,0
1513173629251436,-2,1,-1,0,-2,0,0,-3
1513173629251436,-1,-2,-3,-2,-3,-1,-2,1
1513173629252437,-1,0,-2,-3,-2,0,-1,2
1513173629252437,-1,-2,1,0,-1,-1,-2,-2
1513173629273940,-3,-2,0,0,-1,-1,-1,1
1513173629273940,1,1,-1,-3,-2,-1,-1,-1
1513173629274941,-1,-2,-2,-2,-1,-1,0,0
1513173629274941,0,-1,-2,-3,-2,-2,-2,-1
1513173629288451,0,-1,-1,0,1,-2,-1,-1
1513173629288451,-1,0,1,1,1,0,-3,-1
1513173629296469,0,-1,-1,1,-2,-3,-2,0
1513173629296469,-1,0,-1,-1,-2,0,1,0
1513173629311466,-1,-2,0,-2,0,-1,-2,-1
1513173629311466,-1,-1,0,1,-1,-1,1,0
1513173629312477,-5,-3,1,-1,0,-1,-1,-3
1513173629312477,-1,-1,-2,1,0,1,-1,-3
1513173629333986,-1,-2,-2,-1,0,0,-1,-1
1513173629333986,-5,-3,1,0,1,0,1,1
1513173629335996,0,0,-2,-1,-2,1,-1,-1
1513173629335996,-3,1,-2,-2,-2,-2,-1,-1
1513173629348511,-1,-3,-1,-2,-3,1,-1,0
1513173629348511,-1,0,-2,-4,0,-2,0,-2
1513173629356516,-1,-2,-1,0,1,-4,0,0
1513173629356516,-2,-2,0,0,0,0,-2,-1
1513173629371527,1,0,-1,-1,-2,0,0,-2
1513173629371527,2,1,-1,-1,-2,-1,-1,0
1513173629379014,0,0,-1,0,-1,0,0,0
1513173629379014,-1,-1,2,-1,1,1,-2,-1
1513173629395030,-3,0,-1,-2,-1,-2,-1,-1
1513173629395030,0,0,-2,1,-1,1,-1,-1
1513173629395525,-2,-1,-2,-2,-1,-2,-2,0
1513173629395525,0,-2,-4,-2,-1,1,-1,-1
1513173629408544,-2,-2,0,-1,0,-2,0,-2
1513173629408544,1,-2,-2,-2,-1,-2,-1,-1
1513173629416551,1,1,-2,-2,-1,-2,0,-1
1513173629416551,-1,0,0,1,-1,-2,0,-1
1513173629431554,-1,-1,-1,0,-2,0,0,-1
1513173629431554,-5,-3,0,0,-1,-1,0,0
1513173629432568,-3,1,1,-2,-1,1,1,-4
1513173629432568,-1,-1,-1,-1,-2,-1,0,-3
1513173629455583,-1,-1,-1,-1,-2,-2,-2,-1
1513173629455583,0,0,-1,0,0,-1,0,-1
1513173629456579,-1,0,-1,-3,-2,-1,-3,-1
1513173629456579,-3,-1,-2,-1,-1,0,-2,-2
1513173629468591,1,-1,0,0,-1,-2,-2,-1
1513173629468591,1,-1,-2,-1,-1,0,0,-2
1513173629476595,-1,-1,-3,-1,-1,-2,0,0
1513173629476595,1,0,-2,-3,-2,-1,-1,-1
1513173629491606,-1,2,-3,0,1,1,-1,-1
1513173629491606,-5,-3,-1,0,0,1,-2,-2
1513173629492597,1,1,-1,-1,-1,-2,-1,1
1513173629492597,-2,-1,-2,0,-1,0,-1,-1
1513173629514622,2,0,-3,-2,-3,-2,-2,0
1513173629514622,-2,0,1,-2,-2,-1,1,0
1513173629515611,0,1,-4,-1,-1,-1,-1,-1
1513173629515611,-2,-2,-1,-1,-3,-3,0,-1
1513173629536135,0,0,-1,-2,-2,-1,-2,-2
1513173629536135,0,1,-3,-2,-2,-3,-2,-1
1513173629544132,0,-2,-1,-2,-1,-1,1,-2
1513173629544132,0,-1,1,-1,-2,-1,-1,0
1513173629551636,-5,-5,-1,0,-1,1,-1,-4
1513173629551636,2,1,-1,-1,0,-2,-3,0
1513173629552657,0,-3,1,-1,0,0,-1,1
1513173629552657,-2,-1,-2,0,-1,0,-2,0
1513173629574652,-2,-2,-2,-3,-2,-3,-1,0
1513173629574652,0,-1,-1,-1,0,0,-2,0
1513173629575653,-3,-1,-2,-1,-1,0,-2,-3
1513173629575653,-1,-2,-1,-2,-2,-3,-1,-1
1513173629588663,0,1,-3,-1,0,-1,0,-1
1513173629588663,-2,-2,-2,0,0,-2,-1,-1
1513173629603673,-2,-1,0,0,0,-1,0,-1
1513173629603673,-1,-1,-2,-1,1,-2,-1,-3
1513173629613180,-2,-1,-5,-3,-1,-1,-1,-1
1513173629613180,3,1,-4,-3,-2,-1,-1,-1
1513173629614180,-2,-4,0,0,-1,2,0,-2
1513173629614180,-1,0,-1,-2,-1,-3,-2,-1
1513173629634695,-2,-2,1,1,-1,0,0,-3
1513173629634695,0,-2,-2,-1,-2,-1,-1,0
1513173629635695,-1,-2,-2,-3,-3,0,-3,-2
1513173629635695,-3,-1,0,-3,-2,-1,0,-1
1513173629657269,-2,0,0,0,0,0,-2,1
1513173629657269,0,-2,-3,-1,-1,-3,-1,1
1513173629658246,0,-1,-2,-2,-1,-1,0,0
1513173629658246,-2,-1,-2,-1,-1,-1,0,-1
1513173629671731,-1,-3,1,-1,0,-1,-1,-2
1513173629671731,2,2,-1,-2,-1,-2,-3,1
1513173629672222,0,0,-2,0,-1,-1,0,0
1513173629672222,0,1,-1,1,-3,0,-1,-2
1513173629694737,-2,-1,-1,-3,-2,-2,0,-2
1513173629694737,2,0,-1,-1,-1,-2,-1,0
1513173629695737,0,0,-1,-2,0,-2,-1,-1
1513173629695737,-2,0,-1,-1,1,0,-3,-1
1513173629717265,1,-1,-2,-1,1,0,-1,-1
1513173629717265,-2,0,0,-1,-2,0,-1,0
1513173629717753,-1,-1,-1,-2,0,-3,0,-1
1513173629717753,-2,-4,-1,-1,-2,-1,1,-2
1513173629731766,0,1,0,-1,-3,-2,-1,0
1513173629731766,1,-1,-1,-1,-1,-1,0,-2
1513173629732264,-1,2,-1,-2,-1,-1,-1,0
1513173629732264,0,0,-1,-3,0,-1,-2,-1
1513173629754800,-4,-3,0,1,0,0,-1,-2
1513173629754800,0,-1,-1,0,0,-1,0,1
1513173629755802,0,-2,-2,-1,-1,-3,0,-2
1513173629755802,-2,-2,-1,-2,-2,-1,-2,-1
1513173629777091,0,0,-1,-1,-1,1,0,-1
1513173629777091,-4,-2,-1,-1,0,1,0,-1
1513173629778079,-2,-2,-2,-1,-1,-1,-2,-1
1513173629778079,-1,-2,-1,-2,-1,0,-1,-1
1513173629791598,1,0,-2,-1,-3,-1,0,0
1513173629791598,-2,-4,-1,0,-1,-2,0,0
1513173629792599,-2,0,0,-1,-2,-1,-2,-1
1513173629792599,-1,-1,0,0,-2,-1,-1,-1
1513173629814615,-1,-2,0,-1,-2,-1,-1,-1
1513173629814615,-1,-1,-3,-1,-1,-1,-1,0
1513173629815620,-2,-2,-1,1,-2,0,0,-1
1513173629815620,-1,-2,-1,-1,-2,-2,-1,-1
1513173629837120,-2,-2,1,-1,-2,0,0,1
1513173629837120,3,2,-2,-2,-3,0,-2,0
1513173629838123,-1,-1,0,-1,0,-3,-1,-1
1513173629838123,-2,-2,1,-2,0,0,-1,-2
1513173629851643,-1,-2,-2,-1,-1,-1,-1,0
1513173629851643,-2,1,-3,-1,-1,0,2,1
1513173629852644,-2,-1,-2,-2,-2,0,-3,-1
1513173629852644,1,0,-2,-2,-1,-1,0,-1
1513173629874647,1,1,-3,-2,-1,0,-2,-1
1513173629874647,-2,-2,-1,-3,-1,-1,-1,-1
1513173629875648,1,-2,-3,-1,-1,0,0,-1
1513173629875648,-2,-3,-3,-2,0,-2,1,-3
1513173629897187,-2,0,-2,0,-1,-1,-1,-1
1513173629897187,0,0,0,0,0,-2,-1,-1
1513173629898165,0,-1,-2,1,-1,0,-1,0
1513173629898165,-3,0,-1,-1,0,0,-1,-2
1513173629911695,-1,0,1,0,1,-2,0,-1
1513173629911695,-2,0,-2,-1,-2,-1,-2,-1
1513173629912680,-4,-2,-1,0,0,-1,-1,-2
1513173629912680,0,-2,-1,0,-1,-1,-1,-1
1513173629934691,-1,-2,0,-2,-1,-1,-2,-2
1513173629934691,-1,-1,-1,0,-1,-1,-2,-3
1513173629935691,0,-1,1,0,0,2,0,-1
1513173629935691,-3,-1,-1,0,-1,-1,-1,0
1513173629957206,-2,-4,1,-2,0,0,-1,0
1513173629957206,-1,-2,-1,-1,-1,-2,-1,-1
1513173629958207,-1,0,-2,-2,-2,-1,-1,-1
1513173629958207,-2,0,0,-1,-1,-1,-1,-2
1513173629972216,-1,1,-2,0,-1,1,-2,-1
1513173629972216,-3,-2,-3,-1,-2,-2,-1,-1
1513173629979221,-1,-1,-2,-2,-1,-3,0,-2
1513173629979221,-4,-2,1,-1,-1,0,-2,0
1513173629994741,0,-2,-1,-2,-2,-3,0,2
1513173629994741,1,1,-1,-3,0,-1,-2,0
1513173629995743,-1,-1,-1,-1,0,-2,0,-1
1513173629995743,1,1,-3,-1,-3,-3,-2,-1
1513173630017251,0,-1,-1,1,-2,-1,-2,-2
1513173630017251,-2,-2,-1,0,-1,0,-2,-1
1513173630018249,1,-1,2,-2,-2,0,0,0
1513173630018249,-3,-3,1,-1,0,-1,-1,0
1513173630031766,-2,-1,2,-1,-1,-1,-2,2
1513173630031766,1,0,-3,-3,-1,-1,-1,-2
1513173630032259,-3,-1,-1,0,0,-2,-1,-1
1513173630032259,-1,-2,0,-1,-1,-1,-1,-1
1513173630054780,-1,-1,0,-3,-3,0,-1,-1
1513173630054780,0,-2,0,-1,-1,1,-1,1
1513173630055777,-4,-5,0,-2,0,-1,-1,0
1513173630055777,-1,0,-1,-2,-1,-1,0,-3
1513173630077291,0,0,-3,-1,-1,0,-1,-2
1513173630077291,1,0,-2,0,-2,-2,-3,0
1513173630077791,1,1,-1,0,-2,1,-3,0
1513173630077791,-1,-1,-1,-2,-1,-1,-1,-1
1513173630091810,-1,-2,-2,-1,0,-3,0,0
1513173630091810,-3,-3,-2,1,0,0,0,-2
1513173630092301,-1,-2,-4,-1,-3,-3,-1,-2
1513173630092301,1,-1,-1,-3,-1,-3,-2,0
1513173630114829,-1,-1,-3,-1,0,-1,0,0
1513173630114829,-1,-2,-1,-2,0,-1,-1,-1
1513173630115818,-2,-3,1,-2,0,-1,-1,-2
1513173630115818,-2,0,-1,0,-1,-1,0,0
1513173630137833,0,0,-3,-3,-2,-3,-1,0
1513173630137833,0,0,-1,0,-2,-1,0,-1
1513173630138834,0,-1,0,0,-4,-1,0,-1
1513173630138834,-1,0,-3,-2,-3,-1,-2,-1
1513173630151358,-3,-1,0,0,1,0,1,-1
1513173630151358,-1,-1,-1,0,-1,-1,1,1
1513173630152359,0,3,-3,-3,-1,-1,-3,-1
1513173630152359,0,1,-2,0,0,0,0,-2
1513173630174860,-1,0,-1,-1,-2,-1,-2,-3
1513173630174860,1,-2,-2,-3,-2,-1,0,1
1513173630176371,-1,-2,-2,-2,-2,-1,-1,-2
1513173630176371,-2,-1,-3,0,-1,-2,0,-1
1513173630197376,-1,0,0,-1,1,-1,0,-1
1513173630197376,-2,-2,-1,0,-3,-1,-1,-1
1513173630197876,1,1,-1,-2,-2,-2,-2,-1
1513173630197876,2,0,-2,-1,-1,-1,-1,0
1513173630211394,0,-1,-3,0,-2,-1,-2,0
1513173630211394,0,-1,-1,-1,-1,-2,0,-1
1513173630212396,-2,-2,-2,-1,-2,-1,-1,-2
1513173630212396,-2,-2,-3,0,-1,-2,0,0
1513173630233904,-1,-4,0,-3,-1,-1,-1,-1
1513173630233904,-1,1,0,1,1,2,-2,-2
1513173630241407,0,0,-4,-2,-1,-2,1,-1
1513173630241407,-4,-2,1,0,-2,-2,-1,-1
1513173630257418,0,1,-2,-2,0,-2,0,-1
1513173630257418,0,1,-1,-1,0,-2,-1,-1
1513173630257918,-3,-2,-1,-1,-1,0,-1,-5
1513173630257918,-1,0,0,1,-2,-1,-3,-1
1513173630270927,0,1,-3,0,-2,-2,0,0
1513173630270927,0,-1,-2,-2,-2,-3,-1,0
1513173630279446,-3,-3,-1,1,0,0,-1,0
1513173630279446,-1,0,0,-2,-1,-1,-2,-2
1513173630294944,-1,-1,-3,-1,-1,0,-1,-2
1513173630294944,0,0,-1,-1,-1,-1,-1,-2
1513173630295444,-1,0,1,1,0,-2,0,-1
1513173630295444,-2,-2,-1,-1,0,-1,-1,-3
1513173630317460,-2,-2,-1,-1,-1,-2,-2,-1
1513173630317460,-2,-2,-4,-2,-3,-1,-1,0
1513173630317961,-1,0,-1,-3,-2,0,-1,0
1513173630317961,-1,1,-3,-3,-2,-1,0,-3
1513173630331010,0,-1,0,-1,-1,-2,-1,0
1513173630331010,-1,-1,-1,-2,-2,0,-1,1
1513173630338977,-1,-1,-2,-2,0,-1,-1,-1
1513173630338977,0,-3,-3,-1,-2,-1,-1,1
1513173630355988,-4,-5,-1,1,0,1,-1,-2
1513173630355988,0,0,-1,0,0,0,0,0
1513173630357499,-1,-2,-1,-2,0,-1,0,-1
1513173630357499,0,-1,1,-2,-2,-2,-2,-1
1513173630377503,-2,-1,-3,-1,1,-2,2,0
1513173630377503,1,-2,-3,-3,-2,-2,0,-1
1513173630378003,-1,-1,-1,-2,-2,-1,0,-1
1513173630378003,-2,-2,-1,-1,-2,-1,-1,-1
1513173630391012,1,-1,0,-1,-1,0,0,0
1513173630391012,-2,-2,-1,-1,-1,-2,-1,-2
1513173630399033,-1,-2,-1,-2,-2,-1,-1,-1
1513173630399033,-2,-2,-1,-1,-1,-1,1,0
1513173630422547,-1,-1,-1,-1,0,-2,-1,-2
1513173630422547,-1,-1,-1,-1,0,0,-1,1
1513173630423035,-3,2,-3,-2,-2,-2,-3,-3
1513173630423035,-3,-4,1,0,0,0,-2,-3
1513173630437546,0,0,-3,-2,0,-1,-2,0
1513173630437546,1,-3,-1,-2,0,0,0,0
1513173630438045,-1,0,0,0,0,-1,-2,-2
1513173630438045,0,0,-1,-2,1,1,1,-2
1513173630451056,-2,-1,-1,1,0,-1,-1,-1
1513173630451056,1,-1,-3,0,-1,-1,-2,-1
1513173630459073,-1,-2,-2,-1,1,0,0,0
1513173630459073,-1,0,-1,0,-1,0,-2,0
1513173630475072,1,1,-2,-1,-3,0,-1,-1
1513173630475072,0,0,-2,-2,-1,-2,-1,-1
1513173630475582,-1,-2,-1,-1,-1,-1,0,0
1513173630475582,-3,0,-1,0,-1,-2,-1,-1
1513173630497100,-1,1,-2,-2,-1,-1,-3,-1
1513173630497100,-3,-2,-1,0,0,-2,0,0
1513173630498104,-2,-1,1,0,-2,0,0,0
1513173630498104,2,-2,-1,0,-1,-1,-1,-1
1513173630511097,0,0,-1,-1,-2,1,-1,1
1513173630511097,-1,-1,-2,-2,0,-2,-2,-1
1513173630519116,0,4,-6,-4,-4,-3,-3,-3
1513173630519116,-2,1,0,0,-1,-1,-1,-1
1513173630535114,-4,-3,-1,-1,-1,0,-1,-1
1513173630535114,-1,-2,-1,-1,-2,0,0,-2
1513173630536618,-1,-1,0,-2,-3,-1,0,-2
1513173630536618,-3,-1,-2,-1,-2,0,-1,1
1513173630557142,0,-2,0,0,1,-1,-1,-1
1513173630557142,0,0,-2,0,-1,-2,-2,0
1513173630558131,-3,-3,0,2,0,-1,-1,-1
1513173630558131,-1,-2,-1,-2,-3,-2,1,-1
1513173630579645,-2,-3,0,-1,-1,-1,-1,-1
1513173630579645,-2,-2,-1,-1,-2,-1,-2,2
1513173630581647,-2,-2,-1,-1,0,0,-1,0
1513173630581647,-1,-1,1,-1,-1,-1,-1,-3
1513173630593666,1,1,-2,-1,-1,-2,1,1
1513173630593666,-1,-1,-1,0,-1,-1,-1,0
1513173630602164,-4,-7,2,1,-1,-1,1,-1
1513173630602164,-1,0,-1,0,0,-2,-2,0
1513173630617174,-1,-1,-3,-2,-1,-1,-1,-3
1513173630617174,0,-2,0,-1,-1,-1,0,-1
1513173630618675,-1,-1,0,-2,0,-1,-1,0
1513173630618675,0,-3,-3,-1,-1,0,1,-2
1513173630638751,-1,-1,-1,0,0,-1,-1,-1
1513173630638751,0,1,-1,-2,-3,-1,0,-2
1513173630647256,0,1,-2,-1,1,-2,0,-1
1513173630647256,-3,0,0,-1,-2,-2,-1,-2
1513173630653761,1,2,-1,-2,0,-3,-1,1
1513173630653761,-2,0,-2,-1,-1,0,-1,0
1513173630662266,-2,0,-2,-1,-1,-2,0,-1
1513173630662266,-1,-2,-1,-1,-2,-1,-2,-2
1513173630677276,-2,-3,-2,-1,-2,1,-2,-1
1513173630677276,3,5,-3,-3,-1,-2,-3,-1
1513173630679778,-3,-2,0,1,-3,-2,-1,-3
1513173630679778,-1,-1,-1,-3,-3,-1,-1,-3
1513173630699794,0,-1,1,1,-1,-1,-1,-1
1513173630699794,-1,-1,-2,-1,1,1,-1,-1
1513173630701294,-2,-2,0,-1,-1,0,-2,-1
1513173630701294,-2,-2,-1,-1,-2,-2,-1,0
1513173630713302,0,-1,-1,-1,-1,0,0,-2
1513173630713302,-3,-1,0,1,-2,-1,1,0
1513173630722311,0,0,-1,-3,-2,0,-2,-1
1513173630722311,-3,-2,0,1,0,-1,0,-1
1513173630736318,-1,0,-1,-1,1,-2,0,-2
1513173630736318,-1,-2,-1,0,0,-1,-1,0
1513173630744824,-1,-1,0,-1,-2,-3,-2,-2
1513173630744824,0,2,0,0,-1,1,-1,-1
1513173630759844,-1,-1,-1,1,-3,-1,-1,0
1513173630759844,-4,-3,0,1,0,-2,0,-2
1513173630761350,-1,-4,0,-1,0,-1,-1,-1
1513173630761350,1,-3,-1,-1,-1,-3,-1,0
1513173630773845,-2,-3,-2,1,-1,1,-2,-1
1513173630773845,0,-2,-1,-1,-1,0,-1,-1
1513173630780866,-1,-1,-2,-1,-1,-2,-2,1
1513173630780866,-2,-1,-1,-1,0,-2,0,-2
1513173630797362,-1,-4,1,-2,0,-1,-1,0
1513173630797362,-2,2,-1,-2,-2,-1,0,-3
1513173630798864,-2,-1,-1,0,0,0,-1,-1
1513173630798864,-1,-3,-2,-2,-2,-2,-1,-1
1513173630819890,1,0,-3,-1,-1,-3,-1,0
1513173630819890,-2,0,-3,-1,-1,-1,-2,-1
1513173630821405,0,-1,0,-3,-2,-1,0,-1
1513173630821405,-2,1,0,0,-2,0,-2,-2
1513173630834398,-1,1,-2,-1,-1,-2,-2,-1
1513173630834398,0,-2,-1,-1,-1,-2,0,0
1513173630840892,-4,-3,0,2,-1,-1,0,-2
1513173630840892,0,-1,0,-2,-2,-1,1,0
1513173630857419,0,-1,-1,-1,-1,-1,0,0
1513173630857419,0,0,-2,-1,-2,0,-2,-1
1513173630858919,-1,1,-1,-3,-1,-1,-2,-3
1513173630858919,-1,-4,-1,0,-1,-1,0,-2
1513173630879943,-1,-2,-1,-1,0,0,-1,0
1513173630879943,-1,-1,0,0,-2,-1,0,0
1513173630881445,-1,0,-1,1,0,-2,0,-1
1513173630881445,-2,-2,-3,0,0,-3,-1,-1
1513173630893943,1,1,-4,-3,-1,-3,-1,0
1513173630893943,-5,-4,2,1,-2,0,1,0
1513173630900935,-1,0,-1,-2,-1,-1,-2,-3
1513173630900935,0,-1,-3,-2,-1,-1,-1,-1
1513173630917454,-4,-4,0,1,-1,0,-1,-1
1513173630917454,-1,-1,-1,-3,-1,-1,-1,0
1513173630918962,1,0,-1,1,-1,-1,0,0
1513173630918962,0,-1,0,-2,-2,-1,0,-1
1513173630939962,-2,-3,-1,1,-1,-1,0,1
1513173630939962,0,-1,0,0,-2,-2,-1,-1
1513173630941463,-3,0,-1,-1,-2,-2,-1,-2
1513173630941463,0,-1,-1,-2,-1,0,-1,-2
1513173630953972,3,0,0,-1,-2,-3,-1,0
1513173630953972,-2,-2,-1,-1,-1,-2,-1,-1
1513173630960977,-2,-1,-3,-2,-1,-2,-1,-1
1513173630960977,-1,-1,-1,-2,-1,0,-2,1
1513173630977490,0,-1,-2,-2,0,-2,-1,0
1513173630977490,-1,-2,-1,-1,-1,1,-2,-2
1513173630978991,1,-3,-2,-3,-1,-1,-1,-1
1513173630978991,-5,-6,4,1,0,-1,-1,0
1513173631000018,0,1,0,0,-2,0,-1,0
1513173631000018,1,1,-3,-1,-3,-4,-1,0
1513173631001515,-2,-1,-1,-2,-2,-2,0,-2
1513173631001515,0,2,-2,-2,1,-1,-1,-1
1513173631014528,-1,-2,0,-1,-1,0,0,-2
1513173631014528,-2,0,0,-1,0,-1,-2,-1
1513173631028527,-1,0,1,1,0,1,-1,-1
1513173631028527,0,-1,-2,0,-1,-2,-3,0
1513173631037552,0,-2,-3,-2,-2,-2,-1,-2
1513173631037552,1,-1,-3,-2,-1,0,-1,0
1513173631039034,-4,-3,0,-1,-2,0,0,-3
1513173631039034,0,1,-2,-1,-1,-1,-1,0
1513173631067553,-3,-1,-1,-1,1,1,0,-1
1513173631067553,-1,-3,-3,-1,-2,-2,-1,0
1513173631069069,0,0,-2,-2,-2,-3,-1,-2
1513173631069069,-2,0,-1,-2,-2,-2,-1,-3
1513173631073573,0,1,-1,-1,0,-1,-1,-1
1513173631073573,1,1,-4,-2,-1,-2,-1,0
1513173631082579,-1,-1,-1,-1,-1,-1,-2,0
1513173631082579,2,-1,-2,-1,-1,-1,-2,-1
1513173631098090,-1,0,-1,-2,-1,-2,0,-1
1513173631098090,-1,-1,-1,-3,0,-1,0,-2
1513173631099587,-2,-2,-1,-1,-2,-2,-2,-2
1513173631099587,1,1,-4,-4,-3,-3,-3,-1
1513173631119591,0,0,-2,-3,-2,0,0,1
1513173631119591,-2,-1,0,1,-2,0,-1,-1
1513173631121590,-3,-2,1,1,1,0,-1,-1
1513173631121590,-1,-2,0,0,0,1,-1,-2
1513173631133599,-1,-1,1,0,-1,-3,-2,-1
1513173631133599,0,-1,-2,-1,-1,-1,0,0
1513173631142611,-3,-1,-1,-2,-2,-3,0,-2
1513173631142611,-3,0,0,-2,-2,-1,0,-3
1513173631157130,1,1,0,-2,-1,-2,-1,-1
1513173631157130,-2,-2,1,-2,0,-3,-1,-2
1513173631159133,-2,-2,2,-1,0,-1,0,-1
1513173631159133,-1,-3,-1,0,-1,0,0,-1
1513173631179647,-1,-3,-2,0,0,-1,-2,-1
1513173631179647,-1,-2,-2,-1,-1,-2,-2,0
1513173631181633,0,-1,-1,-2,-2,2,0,-1
1513173631181633,-2,-1,-2,-1,-1,-2,-1,-1
1513173631193642,-1,-1,-1,0,-1,-2,0,-2
1513173631193642,1,1,-5,-2,-1,-1,-1,0
1513173631208657,-1,1,-2,0,-3,-2,-1,-2
1513173631208657,-1,-1,1,0,0,1,0,0
1513173631217162,0,1,-2,-2,-2,1,-1,0
1513173631217162,-1,-1,1,-1,1,-1,-1,-2
1513173631219163,1,-2,-3,-1,-1,-1,-1,-1
1513173631219163,-3,-2,-1,0,-1,-3,-2,-1
1513173631239687,-2,0,-1,0,-2,-1,0,-2
1513173631239687,-1,-1,0,0,-2,-1,0,-1
1513173631241683,-2,0,-3,0,-2,0,-2,-2
1513173631241683,0,1,-1,0,1,-1,0,-2
1513173631253684,0,-1,-2,-3,-2,-2,-2,0
1513173631253684,2,0,0,1,-1,-1,-1,1
1513173631262194,-2,-3,-5,-3,-1,-1,-1,-2
1513173631262194,-3,-1,0,0,-1,-1,0,-1
1513173631277211,-3,-1,6,1,1,0,1,0
1513173631277211,-1,1,-1,-2,0,0,-1,0
1513173631279712,-1,-1,3,2,0,-1,-3,-3
1513173631279712,-1,-3,-1,-1,0,0,0,0
1513173631299716,2,-1,-6,-2,-3,0,-2,0
1513173631299716,1,-2,-4,-4,-3,-1,-1,-2
1513173631301217,-3,-3,-2,-3,-2,-2,-1,-2
1513173631301217,1,1,-1,2,0,1,0,-1
1513173631313239,0,-4,-3,0,-1,-2,0,1
1513173631313239,-1,-1,0,0,0,-2,-2,-2
1513173631322734,1,3,-2,-1,-1,-1,-2,-1
1513173631322734,-1,2,0,-4,-2,-1,-1,0
1513173631337343,-7,0,-3,-1,-1,-1,0,-2
1513173631337343,-2,-8,4,3,0,1,1,8
1513173631338798,5,0,1,0,-3,1,0,-7
1513173631338798,-5,0,-3,-1,-2,-2,-3,-6
1513173631359810,-2,-5,-2,-1,0,0,-1,-1
1513173631359810,-1,2,1,-1,-1,1,0,2
1513173631361312,3,1,-1,-2,-1,-1,1,1
1513173631361312,-1,1,-1,-2,-1,0,0,1
1513173631373459,4,1,-1,-1,1,0,1,-1
1513173631373459,-4,0,-1,0,-2,-2,-1,-8
1513173631382465,-1,0,-2,-1,-1,0,-1,2
1513173631382465,0,-6,1,-1,-2,-1,-2,-1
1513173631397476,-3,3,-8,-4,-2,0,-2,1
1513173631397476,-4,-1,-2,-1,-1,-1,-2,-3
1513173631398977,-2,0,2,-3,-1,0,0,1
1513173631398977,-3,0,-1,1,-1,0,-2,-2
1513173631420018,1,-3,-1,-4,-4,-3,-1,-2
1513173631420018,-6,-2,-4,-1,-3,-1,-2,-1
1513173631421504,-6,-3,1,8,1,-1,0,-3
1513173631421504,0,-1,-4,-8,1,0,0,0
1513173631433524,-3,-3,1,-1,3,1,-1,-1
1513173631433524,-6,-3,0,1,-3,-2,-1,-1
1513173631442508,-2,0,1,3,1,-2,-1,1
1513173631442508,2,0,-2,-1,-5,-4,-1,-1
1513173631457037,-2,-7,-2,-1,-4,-3,-4,-1
1513173631457037,0,-2,1,-1,-1,-3,-3,-5
1513173631459036,-5,-2,2,0,-3,-1,-3,-2
1513173631459036,2,0,2,5,0,1,-1,0
1513173631479544,3,2,-8,-13,-3,-3,-1,0
1513173631479544,2,1,1,0,2,2,2,0
1513173631481046,-2,0,2,-1,0,-2,0,1
1513173631481046,-7,-3,-6,0,0,-1,0,-2
1513173631493545,10,-7,-3,5,1,1,1,3
1513173631493545,0,-1,-4,-4,-1,-1,-4,-2
1513173631502565,-4,-1,-1,-2,0,-2,0,-3
1513173631502565,2,-2,-4,-4,-1,-1,2,8
1513173631517571,-7,-4,0,1,-3,-4,-6,-10
1513173631517571,0,-3,-3,1,0,3,2,2
1513173631519077,14,3,-5,-7,-3,0,-1,2
1513173631519077,-10,-6,0,6,-1,-3,-3,-1
1513173631540080,2,4,2,-4,1,0,2,4
1513173631540080,-5,-2,2,2,-2,-1,-3,-6
1513173631541580,2,4,1,0,-1,0,0,1
1513173631541580,15,5,-6,-4,-2,1,0,0
1513173631562104,-13,-6,5,1,0,-1,-2,-2
1513173631562104,4,2,-12,-3,-1,-2,-1,-3
1513173631563597,-11,-6,13,3,1,-2,-1,-2
1513173631563597,2,-1,0,6,0,-2,0,-3
1513173631578104,2,4,0,-3,-4,-2,-2,-5
1513173631578104,1,-2,-5,-17,-3,0,1,4
1513173631579606,1,2,-7,0,-3,-2,-2,-1
1513173631579606,-6,-2,1,-5,-2,-1,0,-8
1513173631599632,14,7,2,8,3,4,-1,-2
1513173631599632,0,-5,1,4,-1,-2,1,3
1513173631601135,-13,-9,-7,-8,-2,-2,-2,-5
1513173631601135,5,2,2,-2,2,-1,-2,0
1513173631622147,10,0,-5,2,-3,-1,0,7
1513173631622147,-6,9,2,-1,-1,-2,-2,-8
1513173631624137,-3,-6,0,1,0,0,-1,1
1513173631624137,-10,-5,0,-2,-3,-1,-2,-3
1513173631637160,0,4,-2,-1,-1,0,3,8
1513173631637160,2,7,3,3,0,-1,0,-1
1513173631638647,-15,-20,-3,-1,-3,-3,-2,-5
1513173631638647,9,4,-1,-3,-3,-1,0,5
1513173631660166,-18,-9,-2,1,1,0,-1,-3
1513173631660166,4,-4,0,3,1,0,0,1
1513173631661667,-5,6,5,-7,0,1,1,-5
1513173631661667,3,-1,-6,-5,-2,0,0,-1
1513173631682180,-1,3,2,0,-1,-1,-2,-3
1513173631682180,-5,0,-7,0,-2,-2,-2,-1
1513173631683682,1,-4,-7,-5,0,-2,-1,-2
1513173631683682,-1,4,5,10,0,1,-2,0
1513173631696689,-5,-7,-8,-2,-3,-2,0,-1
1513173631696689,-2,-11,-1,-10,-4,-2,-3,-4
1513173631703194,8,4,-1,3,0,1,2,7
1513173631703194,-10,-1,7,-2,-3,-3,-2,-8
1513173631719705,-3,0,-3,3,1,0,-2,-6
1513173631719705,0,2,4,3,2,0,2,1
1513173631721206,7,0,-4,2,-3,0,-1,-1
1513173631721206,-4,-7,-5,-6,-2,-2,0,2
1513173631742244,-2,1,2,-10,-3,-2,1,0
1513173631742244,-7,-3,7,2,1,0,-3,-6
1513173631743745,9,5,-4,-4,-4,-2,-2,2
1513173631743745,-2,2,-4,2,1,-2,-1,-7
1513173631756754,-7,-5,-1,4,3,2,-1,-1
1513173631756754,-2,1,0,-5,-1,-2,0,1
1513173631763258,-2,4,1,3,-3,1,-2,-2
1513173631763258,-1,-7,2,-1,0,1,1,6
1513173631779783,-17,-8,2,0,-1,-2,-2,-5
1513173631779783,-2,-1,-8,0,-4,-2,-2,-4
1513173631781293,-5,-1,-6,-5,1,-2,-3,-2
1513173631781293,-7,-5,1,-6,-1,-1,-2,0
1513173631802291,1,-1,0,5,0,1,0,-1
1513173631802291,4,1,0,-5,-3,-2,-1,3
1513173631803796,-3,1,-4,-3,-1,-2,-2,-4
1513173631803796,10,2,2,-1,-1,-3,0,2
1513173631816797,1,0,2,3,-1,-1,1,8
1513173631816797,2,-5,0,3,1,2,-1,-3
1513173631830807,1,-3,-5,-8,-4,-3,-2,-3
1513173631830807,5,3,-10,-1,-1,2,3,5
1513173631846817,-2,-3,-8,-9,-4,-3,-4,-3
1513173631846817,5,8,-5,2,-1,0,0,4
1513173631854823,-4,-4,-1,0,1,1,1,-2
1513173631854823,-6,-8,0,2,-1,-1,-3,-4
1513173631862328,10,8,11,16,0,-2,-1,3
1513173631862328,-9,-6,-26,-24,-6,-5,-4,-4
1513173631864830,4,7,31,6,2,-1,-3,-2
1513173631864830,-5,2,1,2,-1,-1,-1,-2
1513173631876839,7,-6,-23,-11,-5,-2,-2,-1
1513173631876839,9,9,14,8,0,0,3,1
1513173631883343,-10,-12,-21,-6,-5,-5,-5,-6
1513173631883343,-4,-4,7,-2,-3,-1,0,1
1513173631899857,11,6,14,4,4,-1,-1,1
1513173631899857,-2,-7,7,8,0,0,-1,-3
1513173631901358,2,10,-12,-14,-5,-3,-1,-4
1513173631901358,12,12,-7,0,-1,-2,-2,-2
1513173631922371,-12,-8,-3,-6,0,0,-1,-1
1513173631922371,-5,-1,11,-2,-2,-2,-2,-5
1513173631923872,-6,-8,6,-5,0,-1,1,5
1513173631923872,3,1,11,14,4,-1,-2,-4
1513173631936425,3,1,-22,-26,-8,-2,-2,-3
1513173631936425,-6,3,15,17,4,0,0,-1
1513173631943415,-9,-8,-17,-9,-7,-4,-6,-8
1513173631943415,1,1,0,-11,-4,-2,-1,1
1513173631959928,7,10,7,8,0,-3,-1,0
1513173631959928,-13,-17,-1,-1,-1,1,0,-1
1513173631961429,3,-1,-2,-1,-1,0,-1,-2
1513173631961429,-8,-4,-17,-12,-3,-1,-2,0
1513173631982443,3,-5,-5,-8,-5,-4,-3,-3
1513173631982443,-10,6,-12,-4,-2,-4,-2,-4
1513173631983944,17,10,15,10,3,6,4,9
1513173631983944,-6,-10,-9,0,0,-2,-2,-4
1513173631996462,-2,4,20,7,2,1,-1,-4
1513173631996462,14,6,-1,-7,-1,-1,-2,0
1513173632003467,-22,-15,-7,18,3,0,-3,-4
1513173632003467,-3,7,29,-12,-4,-2,-3,-3
1513173632019969,-2,2,-30,-3,0,-2,1,3
1513173632019969,-2,-7,-3,4,0,0,1,0
1513173632021471,1,-3,-14,-14,-6,-3,-2,-1
1513173632021471,-2,1,-11,-4,-2,-1,0,2
1513173632041984,7,3,23,2,1,0,-1,-1
1513173632041984,-7,10,15,3,1,1,2,-1
1513173632050000,0,-9,-21,-3,-1,-2,-3,-3
1513173632050000,-4,-7,11,-4,-3,-1,-2,1
1513173632055995,0,-5,-28,-12,-4,-1,-3,-1
1513173632055995,7,6,4,5,-1,0,0,0
1513173632065001,-1,10,15,8,1,0,-2,-1
1513173632065001,-10,-9,-14,-7,0,3,1,-2
1513173632080011,2,-3,-13,5,0,0,-2,-2
1513173632080011,-2,4,18,0,3,0,0,-1
1513173632081515,7,16,26,0,3,1,2,6
1513173632081515,-5,-1,-4,3,1,0,1,-1
1513173632102027,1,7,19,15,3,0,0,4
1513173632102027,-13,-25,-26,-8,-3,1,8,2
1513173632103533,-1,-4,-17,-11,-3,-2,-5,-4
1513173632103533,-2,6,-7,4,-1,-4,-14,-15
1513173632116038,-1,1,32,11,3,1,2,-1
1513173632116038,-9,-9,15,-1,-1,0,-4,-5
1513173632125044,3,1,-25,0,-1,-2,1,1
1513173632125044,7,-3,-2,6,3,0,2,-5
1513173632140053,-17,-12,-44,-13,-10,-5,3,-5
1513173632140053,5,15,10,-7,-5,-9,-20,2
1513173632141568,4,-5,-41,1,2,2,-2,4
1513173632141568,-3,-4,-21,4,3,2,1,4
1513173632162069,-4,-1,2,-12,-2,-2,1,-2
1513173632162069,0,-25,-53,-21,-8,-1,18,4
1513173632164571,4,14,63,13,1,-2,-17,-25
1513173632164571,1,5,24,22,5,1,3,12
1513173632175580,-1,-7,7,-12,-4,-4,9,0
1513173632175580,1,37,16,13,3,-1,-31,0
1513173632184646,-10,-40,-60,-34,-14,-4,5,11
1513173632184646,6,14,24,11,1,0,1,1
1513173632199653,-11,-9,-7,-7,-2,2,6,9
1513173632199653,-1,-11,18,-1,-2,-3,10,-15
1513173632201157,13,18,-18,2,4,3,19,13
1513173632201157,0,3,8,-21,-13,-7,-21,-32
1513173632222177,-11,11,-5,8,-4,-4,-19,27
1513173632222177,25,1,-2,-9,0,0,26,18
1513173632223664,-19,9,18,4,-1,-1,4,-8
1513173632223664,-5,-11,39,3,3,-2,-29,-40
1513173632235698,13,22,-30,-2,3,1,-39,-6
1513173632235698,-3,-40,-10,10,4,3,-21,-10
1513173632245192,3,7,-2,20,11,7,21,-6
1513173632245192,11,22,-21,-19,-10,-4,12,23
1513173632259689,-3,-36,-15,-28,-11,-2,2,-4
1513173632259689,-5,0,9,18,3,-1,-2,3
1513173632261191,-13,33,21,9,0,-1,5,-10
1513173632261191,7,-48,2,-4,-1,4,7,15
1513173632282208,3,39,-31,1,3,3,15,-16
1513173632282208,16,13,74,17,6,3,-25,1
1513173632284710,-14,-62,-25,-32,-8,-1,7,-4
1513173632284710,0,13,46,33,7,-5,-43,21
1513173632295716,16,-17,13,0,3,5,11,-18
1513173632295716,-33,4,-16,-9,-8,-7,20,27
1513173632304723,7,23,55,25,1,-4,-6,18
1513173632304723,-13,-13,-69,-42,-3,-1,19,-15
1513173632319743,-1,-32,13,-4,-6,-3,13,8
1513173632319743,-7,49,-18,9,-3,-7,2,-17
1513173632321234,13,-7,17,14,6,5,-33,-22
1513173632321234,-27,-25,-57,-6,-6,0,28,29
1513173632342248,-6,-20,-20,-6,3,-9,-44,-26
1513173632342248,-16,-10,19,-8,-4,2,5,-25
1513173632343749,11,3,-11,20,10,1,20,56
1513173632343749,23,-24,-29,-6,0,2,8,-21
1513173632355778,27,20,-7,3,-7,-4,19,14
1513173632355778,-2,2,0,-1,-2,5,8,-23
1513173632365774,-14,-23,-14,-21,-12,-14,-43,8
1513173632365774,-2,-3,-27,10,1,-1,-5,-4
1513173632379789,-17,9,-17,-28,-14,-8,24,10
1513173632379789,31,2,-39,20,13,9,-26,-17
1513173632381276,-40,-29,22,-37,-28,-9,6,-36
1513173632381276,4,-1,-48,-9,1,-4,2,45
1513173632402307,8,-9,-31,19,12,4,-10,-33
1513173632402307,-36,-56,-12,-29,-11,-5,22,57
1513173632403817,14,50,35,10,-5,-6,10,-11
1513173632403817,-1,42,42,-9,-5,-3,-33,2
1513173632415814,-20,-44,-3,8,10,14,34,-8
1513173632415814,33,31,17,-11,-3,-11,-53,-19
1513173632424821,-13,-19,-66,-1,-3,6,19,-19
1513173632424821,18,2,-27,-14,-6,-9,-20,-9
1513173632439817,24,30,127,26,8,-1,-16,36
1513173632439817,-17,-1,-54,-30,-10,3,33,15
1513173632441318,-5,16,25,8,9,4,-7,13
1513173632441318,38,21,31,13,-1,5,14,-1
1513173632462342,-16,7,18,9,0,-2,-28,-6
1513173632462342,-7,-40,-11,6,1,-5,-2,26
1513173632464844,22,-46,-12,-9,0,1,2,-46
1513173632464844,3,7,-44,-17,-8,-1,27,-5
1513173632484867,3,-1,-23,2,4,1,0,12
1513173632484867,-30,-33,-1,-20,-13,-6,6,-7
1513173632486351,20,27,83,26,11,6,13,-10
1513173632486351,-11,0,-63,0,-2,-3,-10,34
1513173632499859,-16,-25,82,-3,-12,-9,-2,-7
1513173632499859,23,22,28,9,5,6,10,-17
1513173632501363,-2,-19,-18,15,4,-6,-20,-11
1513173632501363,14,61,127,29,16,6,17,49
1513173632522387,-39,-21,-52,-36,-18,-9,-8,-31
1513173632522387,-16,-35,-40,0,0,8,18,-53
1513173632523888,14,27,-85,-30,-16,-18,-68,1
1513173632523888,-39,-62,14,5,5,3,9,5
1513173632545901,10,44,33,47,15,3,-4,11
1513173632545901,9,11,-18,-35,-12,-5,-30,-57
1513173632547903,-7,-13,67,38,12,7,19,54
1513173632547903,-21,-27,-48,-31,-12,-3,17,-19
1513173632559919,40,18,-8,-9,-8,-8,-28,13
1513173632559919,-39,20,0,11,2,-4,9,30
1513173632561414,10,29,-23,-22,-6,-3,26,-8
1513173632561414,-16,2,-19,15,5,3,1,11
1513173632582417,-13,1,40,-7,-6,-5,-12,-65
1513173632582417,5,-19,-12,-24,-1,-1,4,16
1513173632583919,13,50,-35,-19,2,5,0,21
1513173632583919,-10,-79,1,7,-9,-6,-1,-9
1513173632604440,4,17,-23,-17,-9,-8,-15,20
1513173632604440,11,22,-9,16,1,-2,6,1
1513173632606435,-7,42,44,-10,-5,-7,-15,-30
1513173632606435,-3,-21,14,12,1,2,24,11
1513173632618958,-18,-41,10,-20,-9,-4,-45,-48
1513173632618958,3,1,-50,34,7,-7,-25,15
1513173632625961,-11,-16,-56,-35,-9,2,4,-14
1513173632625961,3,40,19,-1,5,8,6,-2
1513173632641973,-17,-4,9,37,14,12,55,30
1513173632641973,3,-53,-29,-43,-9,1,-16,-10
1513173632649967,-3,-13,9,13,-6,-8,-21,-42
1513173632649967,15,26,3,-11,4,2,19,0
1513173632664488,8,-13,-5,26,2,-1,-27,4
1513173632664488,-14,2,-17,-44,-12,0,32,4
1513173632666490,27,21,49,41,18,2,11,18
1513173632666490,11,-21,-25,-4,-1,6,-2,-10
1513173632678996,-2,30,64,-4,-4,-10,11,4
1513173632678996,28,21,45,13,0,-9,-32,-20
1513173632686003,-6,-5,44,7,5,4,9,27
1513173632686003,-34,-28,-23,8,0,-3,-10,-39
1513173632703012,2,-20,-96,-24,-4,3,24,-12
1513173632703012,7,51,49,30,12,2,-8,79
1513173632704504,-25,-64,-4,-6,-2,0,-1,-15
1513173632704504,25,39,53,12,1,-3,-9,-22
1513173632725018,-21,-8,-13,-7,1,-2,6,27
1513173632725018,3,-20,19,-10,-6,4,0,-29
1513173632726531,1,-9,-27,1,5,7,27,43
1513173632726531,-16,26,67,28,0,-7,-23,-24
1513173632739033,6,17,-21,-24,-3,3,18,21
1513173632739033,17,-3,-45,9,-5,-5,1,15
1513173632746034,-4,-7,6,10,3,0,-12,-20
1513173632746034,33,35,-64,-41,-4,2,23,-22
1513173632761554,6,9,99,26,4,-1,-29,44
1513173632761554,6,9,-4,22,2,0,8,-19
1513173632769549,-2,24,-1,-13,-3,0,2,2
1513173632769549,-13,-33,-37,-13,-5,-6,-11,-16
1513173632784563,4,-21,-44,25,9,8,26,8
1513173632784563,-19,14,58,-18,-7,-3,-2,-48
1513173632786062,11,17,0,42,10,-2,-4,71
1513173632786062,2,3,-16,-5,2,2,-21,-16
1513173632799083,9,9,-36,-16,-6,-2,0,-25
1513173632799083,-16,2,-2,5,4,3,-6,9
1513173632822109,-15,4,47,1,-4,10,63,-3
1513173632822109,-10,-11,-4,-16,-4,-11,-43,52
1513173632829592,3,-6,-6,41,19,9,13,-11
1513173632829592,1,20,-5,-16,-8,-1,-13,-29
1513173632831103,-20,-58,-28,-35,-11,-7,-19,-34
1513173632831103,-5,15,-27,17,6,2,11,29
1513173632852121,-4,7,-58,6,0,0,22,-8
1513173632852121,16,57,97,19,9,-1,-8,12
1513173632853610,29,-12,-5,-10,-15,-9,5,14
1513173632853610,-21,-28,2,-38,-18,-10,-15,-18
1513173632859123,30,42,52,3,5,7,11,-1
1513173632859123,-50,-76,-114,-24,-11,-7,29,32
1513173632866133,16,11,28,-9,1,-1,-25,-31
1513173632866133,24,9,77,57,22,14,0,19
1513173632882144,-26,-38,-87,-69,-31,-18,-19,4
1513173632882144,21,63,80,29,4,-3,-1,-1
1513173632883631,3,24,-18,18,5,-3,-15,-19
1513173632883631,-31,-47,23,-18,-9,-1,14,0
1513173632904646,-3,-63,10,-2,2,-2,-33,-22
1513173632904646,-15,-31,-46,4,3,2,3,18
1513173632906147,24,-8,15,15,2,3,11,12
1513173632906147,-8,79,-59,-20,-4,-4,-15,-38
1513173632919156,0,28,46,14,0,-2,28,30
1513173632919156,9,-17,-16,11,0,-2,-13,-16
1513173632926160,-6,-21,-48,-16,-3,-2,-9,-10
1513173632926160,13,8,13,3,-9,-4,11,9
1513173632942172,15,8,21,-27,-11,-6,3,-5
1513173632942172,-8,3,-12,-15,-8,0,48,76
1513173632943673,-30,48,57,20,6,-3,-60,-58
1513173632943673,-5,-18,-82,-20,-8,-5,-3,-11
1513173632964687,4,-15,15,-8,3,5,-7,-7
1513173632964687,15,37,88,47,19,9,13,29
1513173632966188,-13,-36,-9,-43,-14,-7,-3,-10
1513173632966188,7,-5,-8,25,10,4,25,24
1513173632978236,-9,16,14,1,1,2,-7,-6
1513173632978236,42,29,69,-2,-5,-7,-7,-30
1513173632987229,-35,-90,-120,-35,-5,0,5,16
1513173632987229,3,-9,39,16,1,-2,-12,-15
1513173633002716,4,35,-9,22,0,3,27,23
1513173633002716,-13,-56,-23,-33,-5,-4,-27,-28
1513173633008222,11,51,26,13,1,0,17,33
1513173633008222,-15,-34,3,-43,-20,-8,-5,-34
1513173633032239,24,10,-21,24,13,7,3,0
1513173633032239,-10,-31,-6,1,-4,-5,0,7
1513173633033740,-10,-8,11,-4,-1,-4,-6,-18
1513173633033740,-5,-27,-2,22,13,11,42,59
1513173633038239,-5,37,20,5,-1,-5,-41,-13
1513173633038239,-10,-28,-14,-10,-7,-5,-5,-22
1513173633048247,-11,5,-25,30,5,-2,-11,-24
1513173633048247,25,6,50,-31,-8,-1,2,27
1513173633062257,3,-4,27,-3,0,-1,7,-10
1513173633062257,-5,9,-44,-1,-1,2,-20,-1
1513173633063758,-3,-3,14,-7,-2,0,4,23
1513173633063758,-4,24,53,33,8,-3,-21,-49
1513173633084776,-15,-29,-21,22,5,4,18,4
1513173633084776,30,17,1,-27,-6,2,1,20
1513173633086274,8,34,27,7,-4,-1,7,-4
1513173633086274,-2,-11,0,4,3,-4,0,-8
1513173633098283,-21,-20,11,-7,-1,-2,-14,-4
1513173633098283,2,20,16,25,8,0,1,-22
1513173633107289,-26,-12,17,-12,-6,1,29,55
1513173633107289,11,22,-26,-25,-11,-9,-6,15
1513173633122303,-15,-16,5,0,-1,-1,-5,0
1513173633122303,-14,-18,-83,-5,2,4,-17,-49
1513173633123801,33,-2,-31,-10,-4,-8,-9,-12
1513173633123801,-2,7,45,5,-4,-3,-3,-9
1513173633152330,-24,-60,-73,-7,-8,-4,16,24
1513173633152330,-6,8,-31,-34,-15,-8,6,-11
1513173633153831,-6,2,28,9,3,-4,-8,-5
1513173633153831,0,5,-20,20,2,2,3,-2
1513173633158338,17,32,-24,-30,-5,-3,-19,-12
1513173633158338,4,-4,80,23,6,2,1,1
1513173633167344,-20,-33,-80,-34,-8,-1,-1,-7
1513173633167344,13,-9,5,25,9,1,-8,10
1513173633182359,2,50,75,-5,-6,1,49,16
1513173633182359,3,-17,-46,16,12,5,-71,-37
1513173633183843,-7,8,38,31,3,-5,-18,0
1513173633183843,15,0,31,-15,3,5,16,29
1513173633204360,-8,44,-1,3,3,0,-9,-10
1513173633204360,-22,-57,-23,-27,-11,0,42,5
1513173633212363,23,-10,62,17,4,-1,-26,-24
1513173633212363,-6,13,-27,-5,-5,-2,-6,-4
1513173633218370,10,-5,9,13,7,-1,-15,-10
1513173633218370,-24,12,17,10,2,2,12,-23
1513173633227374,25,-21,-20,-9,0,2,6,33
1513173633227374,-19,-7,-19,-15,-5,1,5,-33
1513173633241884,9,-1,13,-6,-1,-1,-6,-6
1513173633241884,-2,4,25,3,-4,-7,14,29
1513173633249890,1,1,-5,-16,1,-1,-17,-14
1513173633249890,5,-3,6,15,2,-2,0,2
1513173633264400,-13,-63,-22,-7,-4,1,3,5
1513173633264400,-5,42,-61,-8,-4,-3,-5,-5
1513173633266401,13,1,19,10,1,4,17,-2
1513173633266401,-24,-30,11,-17,-3,-5,-20,-1
1513173633278410,7,-20,-27,11,1,0,-3,4
1513173633278410,-4,-34,30,2,-1,-2,2,14
1513173633287478,-13,26,-6,29,10,5,12,-12
1513173633287478,13,-15,-11,-34,-18,-7,-24,-9
1513173633301959,6,17,26,9,3,0,6,2
1513173633301959,16,12,14,13,3,3,26,13
1513173633309965,24,26,-81,-20,-4,-2,10,41
1513173633309965,-47,-58,-92,-8,-6,-1,-16,-20
1513173633324976,4,19,45,10,-2,-1,-8,-6
1513173633324976,13,24,22,-10,1,3,13,-17
1513173633326477,-27,-20,37,10,-1,-6,2,1
1513173633326477,14,42,-38,-10,-3,2,21,11
1513173633338534,-12,5,27,3,-2,-6,-6,-8
1513173633338534,-15,-42,-107,-20,-6,-10,-39,-5
1513173633347543,-1,-13,50,-1,-2,0,4,11
1513173633347543,4,-7,-27,7,-5,-8,-19,-39
1513173633362070,2,-2,-19,-3,6,3,-1,21
1513173633362070,-11,-1,-3,-20,-9,-4,19,18
1513173633364052,-3,-32,47,4,4,3,-9,-26
1513173633364052,-13,29,-6,2,-1,-1,-9,9
1513173633384575,6,26,-19,-3,-5,-7,-3,-14
1513173633384575,4,-44,5,10,3,2,-2,1
1513173633386067,-1,63,-17,-5,-8,-3,0,5
1513173633386067,-8,-16,-43,-36,-6,-4,11,-28
1513173633407095,3,5,26,25,2,1,-8,-9
1513173633407095,9,14,1,-14,3,1,-3,17
1513173633408584,-15,-10,-16,0,-2,-1,-6,-32
1513173633408584,-2,2,71,31,8,-2,-2,11
1513173633421601,-19,-27,-46,-41,-16,-8,6,-4
1513173633421601,5,7,23,47,18,8,12,9
1513173633428097,7,6,28,-7,-5,3,8,1
1513173633428097,1,52,53,-3,-1,-2,25,35
1513173633444608,-14,-26,-26,-12,-3,0,-9,-22
1513173633444608,4,30,61,6,-1,-2,-8,-3
1513173633446122,-11,-22,-45,6,7,2,11,-19
1513173633446122,-5,6,7,-19,-10,-10,-15,20
1513173633468134,1,-15,-31,-10,2,3,1,3
1513173633468134,14,44,24,30,5,1,6,-3
1513173633469625,12,-41,-47,-45,-13,-1,19,41
1513173633469625,-11,13,13,9,3,1,-8,-26
1513173633482157,-6,-10,32,31,8,0,-9,-9
1513173633482157,13,3,-11,-15,-5,3,12,37
1513173633489642,5,-16,4,17,6,0,-7,-9
1513173633489642,14,-5,7,3,5,9,28,13
1513173633504662,-19,-6,-60,-25,-10,-8,-45,-25
1513173633504662,1,9,5,0,-3,2,27,21
1513173633506153,12,20,-18,10,1,-4,-19,-19
1513173633506153,8,-39,38,1,-10,-9,7,15
1513173633527176,-8,50,32,-11,1,3,11,16
1513173633527176,-7,-37,-34,-10,-9,-5,-3,-1
1513173633528677,-8,11,-31,-18,-6,-5,-27,-10
1513173633528677,11,22,21,37,15,11,3,-45
1513173633542177,29,-5,-15,-21,-13,-8,16,27
1513173633542177,-25,5,29,-5,-6,-5,-25,-23
1513173633543678,-7,-7,17,-1,4,2,30,41
1513173633543678,6,15,-53,21,8,5,-44,-18
1513173633564192,7,-30,10,1,0,-1,7,8
1513173633564192,2,39,7,6,1,-4,-35,-41
1513173633572701,15,20,4,3,1,9,44,61
1513173633572701,5,-5,3,-15,0,-1,-16,-22
1513173633587212,-16,-7,-2,13,2,-1,-17,-1
1513173633587212,-9,1,11,-20,-10,-6,14,-3
1513173633588711,-6,10,15,8,0,-3,-10,-14
1513173633588711,1,-8,-6,9,1,-1,-5,23
1513173633601734,34,28,26,-23,-5,-2,0,6
1513173633601734,-43,5,45,15,6,-1,3,-4
1513173633608236,-20,-32,-61,-20,-7,-3,-17,-17
1513173633608236,-1,3,-9,-5,-1,1,19,5
1513173633624247,10,3,35,2,-4,-1,27,23
1513173633624247,-9,-68,15,1,2,-4,-47,-37
1513173633632253,16,21,6,-5,-4,-3,3,-4
1513173633632253,-7,6,-3,-5,-3,0,-7,-14
1513173633647251,0,7,25,27,5,2,12,33
1513173633647251,2,3,-57,-24,-5,-1,2,-5
1513173633648754,-26,-13,30,5,2,0,11,17
1513173633648754,5,-20,-45,-6,-10,-14,-33,-12
1513173633662279,-6,-23,-24,-14,-5,-2,-23,-21
1513173633662279,12,-18,28,36,11,6,15,11
1513173633668276,-14,-22,-17,-25,-10,-10,-19,-19
1513173633668276,20,-7,-2,-6,5,5,17,18
1513173633685288,12,2,-2,4,2,6,26,1
1513173633685288,-25,2,-97,-20,-11,-10,-28,-31
1513173633686789,29,9,22,14,4,4,2,4
1513173633686789,-3,4,48,14,5,3,16,28
1513173633707306,6,17,-19,-20,-12,-8,-22,-28
1513173633707306,34,22,18,2,3,4,30,36
1513173633708797,-7,11,5,2,2,2,-9,-19
1513173633708797,11,-2,-12,-9,-4,-3,-4,9
1513173633721305,-50,-37,18,20,7,2,3,-22
1513173633721305,17,38,30,27,7,-4,-7,-2
1513173633728309,-4,15,-48,-33,-11,-4,-17,-22
1513173633728309,8,2,46,23,8,3,13,15
1513173633744431,-12,8,-49,-8,3,-1,-21,-9
1513173633744431,19,2,19,-10,-1,5,-13,-8
1513173633746445,-27,-28,-8,15,2,-2,5,9
1513173633746445,-21,-38,23,-13,-5,-5,-16,-15
1513173633766957,-3,48,18,-1,-4,-4,9,-6
1513173633766957,-7,-5,30,1,1,3,-8,3
1513173633768949,2,-3,-30,-22,-5,-3,-6,-4
1513173633768949,-38,-27,-15,-7,-3,-4,-7,-19
1513173633781461,22,46,36,21,5,2,12,11
1513173633781461,5,-41,-47,-10,-6,-7,0,7
1513173633788462,-15,-10,25,0,1,4,10,-8
1513173633788462,23,19,11,12,3,2,9,6
1513173633804485,-11,-23,-25,-28,-9,-4,-24,-3
1513173633804485,-7,29,22,17,-3,-4,1,-24
1513173633806475,15,-16,16,1,1,0,5,17
1513173633806475,-14,-23,-92,-13,-1,2,8,2
1513173633826999,10,20,-7,1,4,2,-10,-37
1513173633826999,-11,-42,10,-16,-5,6,23,31
1513173633829018,4,19,-6,13,0,-4,-15,0
1513173633829018,-1,-10,7,-3,3,4,15,5
1513173633841500,-12,32,52,3,-2,-2,12,-1
1513173633841500,11,-3,-32,-8,1,-1,-4,18
1513173633848510,-1,-16,-16,12,3,-3,-32,-25
1513173633848510,-19,60,0,-10,-5,-1,11,12
1513173633865017,-20,-36,-34,-1,2,1,-24,6
1513173633865017,47,-17,10,10,-2,-3,0,-14
1513173633866518,14,43,28,5,-2,2,5,5
1513173633866518,14,5,-33,1,0,-2,6,-6
1513173633887046,-11,-74,-41,1,-2,-3,-1,-7
1513173633887046,-28,4,37,-16,-10,-9,0,-1
1513173633889035,10,-10,-50,-12,-7,-4,1,-18
1513173633889035,6,-11,47,-1,0,-3,-14,-8
1513173633902042,17,42,19,-3,-2,4,17,23
1513173633902042,-49,-76,-106,-12,-5,-6,-17,-32
1513173633910060,1,7,-5,-33,-9,0,17,5
1513173633910060,-12,-8,-3,17,6,2,-5,12
1513173633932073,22,0,21,20,10,9,46,7
1513173633932073,6,15,-9,-34,-6,0,-39,14
1513173633934566,-30,15,-6,-9,-2,-1,-4,-9
1513173633934566,2,10,54,23,5,2,2,-17
1513173633947098,-17,-37,-112,-10,-4,-2,1,13
1513173633947098,9,31,72,20,6,1,4,-1
1513173633948600,10,-5,18,27,12,5,3,0
1513173633948600,1,-25,-26,-44,-17,-5,-1,4
1513173633960608,-28,-10,-7,1,-3,-5,-8,-8
1513173633960608,-6,4,33,-16,-7,-2,13,13
1513173633970124,6,-10,-60,-10,-11,-10,-14,10
1513173633970124,26,13,-7,4,0,-2,-5,-24
1513173633984624,-58,-21,-16,-9,-5,-8,4,-8
1513173633984624,22,18,8,10,6,6,-12,5
1513173633992130,-1,-4,59,14,1,-1,3,3
1513173633992130,-13,5,11,-3,-3,0,3,3
1513173634007142,43,15,39,-9,-2,-2,-16,6
1513173634007142,-12,-4,-30,0,1,1,13,-9
1513173634008644,-10,-4,-10,13,5,-1,-9,8
1513173634008644,9,22,47,0,-4,-9,-12,-6
1513173634020652,-7,-40,-27,-8,-3,-3,-8,-30
1513173634020652,-11,18,-21,-7,-4,-5,13,31
1513173634029659,13,10,29,10,3,6,1,-9
1513173634029659,17,-14,-15,-21,-4,-3,-7,5
1513173634044667,-19,-1,-11,-3,-4,4,37,24
1513173634044667,12,17,40,27,10,-2,-42,-19
1513173634046171,-5,-14,19,-2,-1,-4,5,-7
1513173634046171,13,-18,-45,-16,-7,2,4,20
1513173634067193,-13,30,60,11,2,-2,-6,5
1513173634067193,-20,-41,-51,-9,-8,-3,16,-10
1513173634068694,0,-16,1,5,2,-4,-11,-7
1513173634068694,-23,-13,23,17,-2,-2,11,-9
1513173634080692,21,6,30,-20,-2,-1,-12,-5
1513173634080692,5,20,-49,10,3,1,18,6
1513173634089700,-25,-17,19,-18,-6,-3,8,3
1513173634089700,14,19,17,3,-1,-4,-11,-5
1513173634104718,13,-10,-37,6,2,1,-11,6
1513173634104718,-15,29,45,-5,-3,2,13,15
1513173634106227,8,-31,-35,8,6,2,6,-53
1513173634106227,-22,36,-6,6,5,6,-5,49
1513173634127238,10,2,37,8,-10,-6,-2,15
1513173634127238,-15,-14,-34,1,3,-3,-17,-21
1513173634128737,13,9,23,-5,-4,-3,-10,5
1513173634128737,-9,-29,-96,-38,-9,1,-3,-10
1513173634140744,26,38,66,19,8,1,-6,-7
1513173634140744,1,-7,-15,9,4,8,24,9
1513173634156249,-7,20,20,1,-5,-8,-8,-1
1513173634156249,6,-71,21,20,4,-3,-25,-18
1513173634164753,0,-1,-68,-23,-6,-4,-6,-20
1513173634164753,16,4,57,1,-2,-2,12,9
1513173634167254,8,17,51,10,2,3,7,13
1513173634167254,-3,19,-2,13,7,0,4,3
1513173634187289,-19,-34,-12,-10,-5,-4,-4,-10
1513173634187289,2,-43,-7,-3,-4,-4,-15,-21
1513173634188770,21,15,-50,-3,7,8,20,44
1513173634188770,-12,35,-13,-9,-8,-7,-18,-36
1513173634200787,0,-31,46,10,3,1,1,13
1513173634200787,-1,16,-35,7,-1,-9,-21,-41
1513173634209787,-9,-24,-51,-6,-5,1,23,23
1513173634209787,10,27,39,9,1,0,14,18
1513173634224797,-3,2,-38,-9,-5,-4,12,3
1513173634224797,16,22,33,-11,-2,-7,-16,-19
1513173634225855,-19,-1,12,15,-5,-4,-16,4
1513173634225855,11,-16,1,-27,-4,2,12,-15
1513173634246979,-4,33,-2,1,-4,-5,-5,9
1513173634246979,-1,5,3,11,1,0,5,30
1513173634248981,7,-20,-73,-23,0,0,-10,-32
1513173634248981,-28,37,93,30,3,-1,11,11
1513173634260981,34,15,-4,19,-2,3,6,-3
1513173634260981,-4,25,56,-36,-3,3,3,5
1513173634269986,-13,2,-20,8,1,-5,-13,-10
1513173634269986,3,-23,19,10,3,0,15,9
1513173634284497,-28,20,-14,-17,-7,-6,-30,-14
1513173634284497,11,14,29,6,-7,-4,0,10
1513173634291001,34,2,61,3,2,1,9,3
1513173634291001,-15,-3,-63,-5,-1,-2,4,10
1513173634307014,1,22,49,16,3,-3,3,-25
1513173634307014,1,-21,-12,-3,-5,-1,3,-3
1513173634309015,0,23,18,-8,1,5,27,31
1513173634309015,4,-15,-55,-14,-2,-6,-57,-39
1513173634321039,-1,-36,18,-5,-1,0,-5,-5
1513173634321039,14,20,37,24,8,4,24,38
1513173634329582,-42,-37,-61,-12,-6,-3,-26,-25
1513173634329582,-1,17,7,12,2,3,-1,-2
1513173634344583,19,-14,-20,-10,4,7,31,-2
1513173634344583,4,-11,14,-14,-5,-4,-12,2
1513173634346084,14,43,35,16,1,1,16,10
1513173634346084,-14,-8,-94,-30,-8,-4,-5,-4
1513173634374608,-16,-6,4,7,2,0,-5,4
1513173634374608,-21,-9,-28,-1,-8,-5,10,-15
1513173634377109,8,-31,24,-15,-5,-3,0,5
1513173634377109,-6,-15,-27,-28,-7,-3,4,7
1513173634390619,38,37,7,6,1,-1,-6,-11
1513173634390619,-36,-35,-40,-15,-7,-2,5,4
1513173634392126,15,0,7,9,3,2,-3,-4
1513173634392126,12,21,88,21,-1,-1,16,5
1513173634404642,-26,-63,-73,-16,-2,-8,-38,-6
1513173634404642,-3,-3,-7,-20,-5,-2,-3,-4
1513173634406134,-2,31,-10,8,1,-2,9,13
1513173634406134,27,20,47,-7,-2,-1,5,-9
1513173634427165,-6,-15,-23,10,4,2,4,1
1513173634427165,-4,-27,-36,-6,-1,1,-9,-15
1513173634428667,-3,34,50,-3,-3,-4,-1,1
1513173634428667,10,5,-25,11,-1,-2,-11,-2
1513173634449678,-29,-5,35,20,9,4,6,0
1513173634449678,18,22,-2,-21,-8,-4,-15,-12
1513173634451159,-3,3,7,-6,1,-3,4,4
1513173634451159,-7,26,49,14,9,6,-2,8
1513173634464691,12,-41,-77,-24,-10,-4,-7,-9
1513173634464691,6,16,41,23,8,6,34,6
1513173634466173,-14,-54,-90,-4,-7,-12,-53,5
1513173634466173,19,50,40,-10,-9,-4,9,27
1513173634487194,-20,-9,20,4,-4,-6,-23,-31
1513173634487194,-5,-8,-38,-21,3,0,5,5
1513173634488696,-11,-6,16,7,0,2,11,-8
1513173634488696,3,-8,-34,-12,-1,1,-3,-11
1513173634509699,10,-12,15,-6,-3,-1,-12,-11
1513173634509699,-2,-17,-38,16,5,0,-5,12
1513173634511200,-4,1,72,1,4,3,2,-7
1513173634511200,-14,-22,-24,1,1,-1,2,-5
1513173634524210,15,23,12,3,2,6,19,17
1513173634524210,-16,-18,21,5,-3,-3,-23,-18
1513173634530718,-4,-29,-30,20,5,6,10,13
1513173634530718,0,5,8,-26,-8,-8,-25,-27
1513173634547247,4,-6,-16,-2,-2,-4,3,4
1513173634547247,-9,-28,-4,-1,-1,-2,-3,2
1513173634548728,11,3,-8,-1,-1,0,-4,-1
1513173634548728,-20,-20,-59,-23,-12,-7,4,0
1513173634569762,-18,5,-35,7,-1,1,-1,-1
1513173634569762,8,10,58,-3,-1,1,21,-12
1513173634571265,16,-5,-19,-11,-3,-8,-44,-16
1513173634571265,-6,7,0,16,9,8,12,0
1513173634583752,5,25,30,21,4,0,5,2
1513173634583752,-9,-44,-41,-35,-12,-2,3,7
1513173634590757,-13,-4,17,19,9,1,-7,-21
1513173634590757,24,-12,9,20,8,8,16,10
1513173634607284,-4,2,24,-8,-8,-5,-2,14
1513173634607284,11,36,-47,17,4,1,8,-4
1513173634608785,7,28,67,-2,0,2,1,3
1513173634608785,-12,-28,-48,7,1,-3,-7,-4
1513173634629785,-6,-29,51,-3,-3,2,6,19
1513173634629785,7,14,-54,-11,-4,-2,-11,-6
1513173634631295,-8,4,-5,-4,-8,-8,1,-6
1513173634631295,3,36,37,2,3,0,8,-6
1513173634644294,-23,-53,-8,-11,-3,0,-8,4
1513173634644294,-4,30,-12,1,-4,-5,-12,-12
1513173634650808,6,3,8,-1,-1,2,30,11
1513173634650808,-15,-49,-50,3,-3,-2,-17,-9
1513173634667310,34,31,-54,-34,-16,-15,-6,-27
1513173634667310,-2,-12,12,7,2,-3,-21,34
1513173634668812,-11,5,12,-5,-3,-1,7,-7
1513173634668812,2,-11,-18,1,-4,-1,6,-6
1513173634689845,3,37,18,-2,-1,-1,2,3
1513173634689845,14,-24,1,4,5,6,13,-1
1513173634691339,1,0,28,-11,-6,-2,-9,-9
1513173634691339,11,1,34,19,2,-1,4,39
1513173634703346,-5,7,-25,-9,4,3,8,-2
1513173634703346,-5,0,-14,9,1,-2,-1,-13
1513173634712353,-19,-26,-34,-26,-13,-7,1,0
1513173634712353,-3,-40,34,0,3,0,-19,-6
1513173634727366,-2,16,51,10,-1,-3,-14,-28
1513173634727366,-7,33,-16,12,2,1,8,5
1513173634728863,2,-7,-82,-11,-3,-4,-14,1
1513173634728863,11,-3,20,-2,-2,-3,5,1
1513173634749869,-31,-12,24,13,4,5,9,1
1513173634749869,24,36,45,-5,-3,-6,-24,10
1513173634751370,-4,-24,-49,6,6,4,3,0
1513173634751370,13,32,21,-15,-6,-2,11,10
1513173634764393,-27,-28,-26,-5,-2,-1,2,3
1513173634764393,-41,6,43,4,-3,-4,-10,-37
1513173634772397,4,1,37,3,-1,-1,5,35
1513173634772397,2,2,-93,-6,1,2,6,4
1513173634787396,17,21,-12,-2,-1,0,-4,3
1513173634787396,0,-26,16,-6,-6,-3,-3,-8
1513173634788897,-4,-14,-22,-1,2,2,12,21
1513173634788897,-32,-23,49,-8,-2,-5,-38,-42
1513173634809924,5,27,11,-4,-4,-5,8,7
1513173634809924,4,-4,13,11,4,4,16,13
1513173634811425,-4,20,7,6,5,1,-17,-15
1513173634811425,-6,-27,15,9,3,2,4,0
1513173634823935,11,-21,-45,-12,1,1,0,8
1513173634823935,-26,12,18,-6,-1,1,15,13
1513173634830929,5,17,0,9,2,-1,-19,-36
1513173634830929,-1,-7,4,-1,-1,1,4,3
1513173634846948,12,24,9,-4,-7,-4,-6,4
1513173634846948,25,15,15,14,3,3,15,6
1513173634848949,23,10,-22,-12,-3,-1,-18,-16
1513173634848949,-14,-4,34,11,1,0,13,26
1513173634869454,-5,-24,-49,6,6,2,-14,-19
1513173634869454,-3,-5,-4,-16,-9,-9,-6,-5
1513173634871474,-13,-27,-1,-3,-4,-2,11,-16
1513173634871474,15,30,-21,5,1,-2,-10,4
1513173634883489,-4,-15,88,13,-1,1,10,6
1513173634883489,3,-4,-53,-13,-2,-1,-21,-10
1513173634892472,-10,-2,38,-3,-2,-1,12,7
1513173634892472,-12,-6,-32,5,-4,-5,-9,-15
1513173634906983,13,25,30,-35,-8,2,24,14
1513173634906983,-26,-37,21,15,7,0,-19,-28
1513173634908983,-10,-10,-24,-10,-6,-1,9,11
1513173634908983,20,0,-16,1,-1,1,6,10
1513173634929520,7,42,21,18,4,0,-2,-6
1513173634929520,7,-25,-91,-32,-16,-10,-5,0
1513173634931498,8,6,18,-2,-3,1,6,11
1513173634931498,-24,12,-6,1,0,0,26,0
1513173634952024,-2,-12,-42,-8,-5,-4,-36,-25
1513173634952024,9,7,19,19,7,4,23,33
1513173634953526,-4,16,-13,-10,0,-4,-21,-24
1513173634953526,-1,24,47,-5,0,1,20,18
1513173634967033,-4,-32,-59,-11,-3,0,-7,11
1513173634967033,-24,24,46,30,9,-1,-6,-18
1513173634968525,-9,-17,-49,-9,-2,0,11,11
1513173634968525,-7,-26,4,0,-1,-1,-8,-10
1513173634989038,-3,20,26,10,5,2,13,10
1513173634989038,20,1,23,3,-4,-5,-39,-16
1513173634990039,0,-17,-4,-10,-6,-4,-3,-12
1513173634990039,-1,-25,-17,-3,-3,-2,9,5
1513173635019560,-6,3,6,7,2,-1,-31,-19
1513173635019560,-16,-36,0,1,5,7,33,12
1513173635020595,4,56,29,1,-2,-4,-20,-6
1513173635020595,0,2,-26,-6,-5,-2,0,-14
1513173635026566,-20,-74,-31,7,0,0,7,5
1513173635026566,14,-31,11,-15,-2,1,3,-27
1513173635027066,3,-4,-22,5,0,2,9,54
1513173635027066,38,30,81,-1,0,-2,-9,6
1513173635049081,-21,-9,-34,-12,-7,-6,4,-11
1513173635049081,-3,-10,-14,-4,-2,0,0,0
1513173635049581,20,-5,18,20,8,6,19,11
1513173635049581,-18,-16,-1,-6,-9,-4,-19,-25
1513173635071600,10,26,19,3,-1,-1,13,11
1513173635071600,1,31,-23,-4,-2,-2,-25,5
1513173635072098,-14,-18,-20,-15,-6,-6,14,2
1513173635072098,12,14,27,18,5,1,-27,-3
1513173635086616,-14,2,1,-10,-2,-2,0,-13
1513173635086616,-18,-21,-18,21,3,7,16,-1
1513173635087108,18,22,19,-26,-3,1,3,10
1513173635087108,-7,7,9,17,8,0,3,-4
1513173635109126,3,-31,-55,-9,2,4,4,8
1513173635109126,10,-11,-46,-16,-7,-4,0,6
1513173635109628,9,-6,23,15,-1,-3,6,-16
1513173635109628,7,-30,10,1,-3,-4,-11,-3
1513173635133141,-9,2,-8,7,2,-4,-26,-20
1513173635133141,3,21,32,11,3,0,11,15
1513173635133643,19,18,35,2,1,5,-8,-22
1513173635133643,6,-11,-88,-21,-4,-1,-5,-11
1513173635146149,-11,20,56,7,-4,-2,20,22
1513173635146149,-2,0,20,-8,3,2,-8,-9
1513173635147150,0,-2,-16,15,3,4,8,-8
1513173635147150,-14,13,-10,-5,-7,-5,-12,10
1513173635169167,-8,-16,-10,-12,-6,-2,17,-6
1513173635169167,27,-8,-5,2,3,1,3,16
1513173635169667,-19,16,55,12,4,4,-17,-3
1513173635169667,-16,-30,-52,-6,-4,-4,0,-4
1513173635191682,13,29,31,-1,-3,-4,-7,23
1513173635191682,3,-16,-51,-23,-9,-8,11,-17
1513173635192182,-40,10,-25,16,-2,-5,-25,-22
1513173635192182,-2,-37,12,-10,5,6,18,5
1513173635206695,12,-8,13,-5,-5,-7,-21,-1
1513173635206695,-11,42,2,17,8,6,1,-2
1513173635207195,-3,-53,-8,-13,-7,-3,25,20
1513173635207195,7,43,17,-1,-2,-2,-5,-4
1513173635228727,-3,-15,-41,-13,-8,-7,-9,-11
1513173635228727,-8,19,38,11,2,1,6,9
1513173635229709,8,1,-17,-14,0,-2,-12,-23
1513173635229709,5,-11,-9,2,-2,2,2,-2
1513173635251236,9,5,1,-17,-3,2,11,9
1513173635251236,10,-17,-50,-11,-8,-5,-2,5
1513173635252244,-12,7,-16,1,1,-3,-20,1
1513173635252244,-7,3,40,13,4,3,10,-3
1513173635266238,7,-4,1,10,5,4,-4,15
1513173635266238,-4,2,13,0,-5,-4,-34,-15
1513173635267238,-22,-25,11,-5,0,0,-2,-14
1513173635267238,9,39,-5,13,1,-1,10,20
1513173635288750,-1,10,-65,-10,-1,-2,-20,-30
1513173635288750,-9,-17,20,-2,-2,-2,3,1
1513173635289754,39,1,-22,-11,-7,-3,10,14
1513173635289754,-38,-39,46,10,7,4,-12,-11
1513173635311268,-8,24,-9,8,-4,-4,27,-1
1513173635311268,11,-15,24,-26,-6,-6,-13,-8
1513173635312267,6,30,12,12,4,-3,-27,-8
1513173635312267,35,5,-35,-9,-3,0,20,26
1513173635326778,-30,9,8,1,2,3,-8,-17
1513173635326778,9,19,10,13,6,2,18,11
1513173635327278,-8,3,15,-7,-5,-5,-1,-13
1513173635327278,-1,14,14,0,1,-1,-3,20
1513173635348802,28,7,38,22,10,6,14,5
1513173635348802,14,18,-27,-16,-2,-1,-22,-6
1513173635349794,-9,-13,-21,0,2,3,16,26
1513173635349794,-16,19,19,8,0,3,-1,-26
1513173635372319,-16,-31,-42,-22,-12,-9,-13,-10
1513173635372319,-16,-12,47,3,2,1,12,8
1513173635372810,3,-11,-34,-4,0,2,4,0
1513173635372810,9,-6,-13,15,8,7,11,0
1513173635386342,8,14,23,-3,-2,-1,11,38
1513173635386342,28,12,-14,1,-2,-2,-18,-20
1513173635387343,-30,-12,22,3,2,-1,2,-11
1513173635387343,-3,-7,-9,-3,-2,0,1,0
1513173635408835,4,20,21,12,6,-1,8,-13
1513173635408835,-1,0,-32,-9,-7,-4,-12,11
1513173635409836,15,-10,-1,-4,-2,-1,13,-2
1513173635409836,-13,16,-30,2,-3,-7,-29,-7
1513173635432373,11,-9,5,-10,-2,-3,4,17
1513173635432373,-33,-23,-6,-25,-11,-5,-5,-19
1513173635432852,28,17,-13,10,4,3,28,15
1513173635432852,-7,-7,15,-12,-4,-1,5,1
1513173635446363,-4,-4,25,15,-1,-3,-12,-17
1513173635446363,1,-6,-22,6,4,-1,8,6
1513173635447364,9,17,28,7,-1,-2,-12,3
1513173635447364,0,-18,-8,-17,-8,-7,-2,-25
1513173635468879,1,21,2,3,4,6,-1,6
1513173635468879,2,-9,-5,-6,-4,-1,6,7
1513173635469879,-26,-8,28,7,1,-1,-3,-5
1513173635469879,1,-12,-45,-16,-7,-7,0,-5
1513173635492394,6,22,31,16,3,2,14,24
1513173635492394,-13,7,16,-7,2,-4,-55,-52
1513173635492894,13,-39,-37,-7,-5,0,6,1
1513173635492894,2,48,-30,-17,-9,-7,-19,16
1513173635506904,-10,-3,55,-4,-4,-3,-6,-4
1513173635506904,5,3,60,23,5,2,15,22
1513173635513909,1,14,-5,-9,-3,-1,-8,-4
1513173635513909,7,3,50,13,6,2,5,-6
1513173635528931,-47,-21,-87,-4,-4,-2,6,-23
1513173635528931,5,7,25,2,3,1,9,12
1513173635529923,5,8,-13,-16,-8,-7,-19,-16
1513173635529923,-23,-3,18,-1,-4,-1,20,6
1513173635551974,19,-8,2,9,8,3,-6,-8
1513173635551974,-24,-47,-38,0,-3,0,17,-6
1513173635552966,1,42,-1,13,2,-1,-7,-7
1513173635552966,8,-17,-13,-21,-4,2,14,3
1513173635566487,2,-15,47,6,0,-3,5,-5
1513173635566487,7,3,-59,-1,1,-1,-8,1
1513173635567475,2,-1,-18,1,1,0,5,13
1513173635567475,2,31,60,22,-2,1,5,0
1513173635588991,4,-39,-75,-29,-9,-6,-24,-17
1513173635588991,-3,8,16,-14,-7,2,32,43
1513173635589993,-5,8,45,21,6,1,-13,-31
1513173635589993,7,-38,-52,-2,-3,-3,-6,-6
1513173635612021,9,-2,1,2,2,4,-3,-4
1513173635612021,-3,11,-20,-14,-7,-7,15,29
1513173635613008,-17,-23,-23,-4,-2,0,-9,-3
1513173635613008,13,5,-26,2,3,-1,-13,-10
1513173635626527,6,38,105,19,5,3,-2,1
1513173635626527,-6,-15,-48,6,2,2,11,-21
1513173635627035,0,-5,74,-12,-5,-4,-9,46
1513173635627035,-30,-51,-65,-9,-3,-5,-9,-24
1513173635649033,25,17,-3,-18,-6,-4,5,13
1513173635649033,2,-18,19,24,6,4,-7,-15
1513173635650034,3,26,38,-11,-7,-3,23,23
1513173635650034,0,9,-16,-5,-1,0,-29,-32
1513173635672053,-6,20,-15,4,3,1,0,-12
1513173635672053,-7,-35,33,-5,-5,0,0,-6
1513173635673055,-6,-4,-6,-1,0,1,40,48
1513173635673055,0,9,6,-2,-2,-6,-6,0
1513173635686572,-10,-22,-39,-6,-1,0,-32,-26
1513173635686572,0,12,-25,-4,-2,-4,-8,-15
1513173635688071,3,-20,-14,17,5,1,-3,-14
1513173635688071,-3,8,41,-13,-4,0,12,15
1513173635709076,-16,-2,-34,11,2,-4,-2,1
1513173635709076,7,19,69,14,2,-2,-6,-4
1513173635709576,1,-19,-60,-9,-3,-1,-10,-16
1513173635709576,-2,-8,49,-1,-3,-4,10,10
1513173635732109,24,30,-5,5,2,2,-5,6
1513173635732109,-21,-12,-71,-7,-3,0,6,3
1513173635733093,13,-2,4,1,1,-2,-19,-15
1513173635733093,4,15,14,9,3,1,10,-1
1513173635746602,-3,9,26,-10,-8,-4,8,1
1513173635746602,13,4,-1,-13,-5,-2,16,31
1513173635747103,-18,-31,-24,7,2,-5,-53,-58
1513173635747103,-23,-26,-52,-21,-13,-11,-8,28
1513173635777124,-12,-27,21,3,0,0,-4,-26
1513173635777124,-6,35,42,16,4,-1,-2,-3
1513173635778133,-11,-55,-88,-30,-8,0,17,5
1513173635778133,6,32,55,19,5,3,0,-18
1513173635792135,-15,11,-31,-16,-8,-6,5,13
1513173635792135,-8,-26,-1,6,-1,-2,-12,-2
1513173635793135,19,34,27,11,0,3,16,7
1513173635793135,-4,-3,6,-8,3,0,-5,-4
1513173635806645,3,-5,14,4,-2,0,14,11
1513173635806645,6,-2,-30,-10,-1,1,3,11
1513173635807145,-5,36,43,8,1,-3,-49,-31
1513173635807145,-1,-43,-2,18,2,4,11,4
1513173635829160,-5,17,58,-9,-1,-2,0,-6
1513173635829160,7,6,-42,-18,-6,-5,0,-6
1513173635829661,-2,5,30,-4,-3,-2,-9,5
1513173635829661,15,-6,-14,10,8,7,13,33
1513173635852177,-23,-32,-26,-6,-4,-5,-14,-13
1513173635852177,-2,2,19,3,-6,-6,-5,-21
1513173635852677,-36,8,-15,-7,-1,-1,17,47
1513173635852677,11,-12,-5,-9,-6,-5,-16,-26
1513173635865687,-14,-31,-30,-6,-3,-1,2,4
1513173635865687,15,3,10,1,3,1,-21,-4
1513173635874195,-5,8,30,2,-3,-3,3,-8
1513173635874195,30,6,-53,-4,1,2,-1,10
1513173635888703,11,-17,-39,-6,-4,-3,-4,6
1513173635888703,-30,10,43,28,8,3,7,-13
1513173635889705,14,-2,2,1,-3,5,29,12
1513173635889705,-2,-5,-31,-24,-4,-3,-5,-6
1513173635919724,1,-3,18,-1,-3,-4,-6,7
1513173635919724,17,-1,-13,11,7,3,0,13
1513173635920226,1,-9,16,10,0,-2,-9,-14
1513173635920226,-15,31,-20,-3,1,-1,5,-3
1513173635925729,-6,-14,34,5,2,0,14,12
1513173635925729,6,9,29,1,1,2,-15,-23
1513173635934234,-14,-21,-44,4,-3,-6,0,-5
1513173635934234,-9,2,-6,-33,-10,-3,2,-15
1513173635949245,11,17,38,17,6,0,1,7
1513173635949245,-9,10,-46,-16,-7,-5,-1,23
1513173635949746,27,16,32,10,8,1,15,-23
1513173635949746,-23,-36,-28,12,2,1,3,21
1513173635972263,4,4,-25,-12,-6,-5,-26,-35
1513173635972263,-22,4,34,7,-3,-1,-2,35
1513173635972763,-4,6,-11,0,4,6,2,-43
1513173635972763,3,-7,19,5,-1,-3,-8,19
1513173635994277,13,7,2,8,3,3,11,32
1513173635994277,18,30,10,-9,-2,1,25,-1
1513173635995279,-4,1,-36,-10,-3,-1,-20,3
1513173635995279,-12,4,62,30,6,-2,-10,-27
1513173636008788,13,-15,11,-10,-2,0,2,-7
1513173636008788,-6,-15,-52,-4,-3,1,29,4
1513173636009788,-5,7,16,-19,-8,-2,-21,25
1513173636009788,14,7,-3,8,3,1,-35,-9
1513173636032307,-25,-23,-34,-6,-5,-3,1,8
1513173636032307,-3,25,37,2,0,-4,-23,-25
1513173636032805,-11,-13,-73,-31,-10,-3,22,10
1513173636032805,4,2,15,5,-1,-1,13,-6
1513173636045828,8,-3,-2,7,5,4,-9,8
1513173636045828,1,2,13,3,0,0,6,-4
1513173636053829,3,-24,-14,1,0,-2,-3,8
1513173636053829,8,29,23,-6,-3,-2,4,5
1513173636068840,-27,-3,-28,12,-1,-1,13,-13
1513173636068840,3,-25,-8,-33,-9,-2,-14,-3
1513173636070832,18,16,13,13,1,-4,-17,4
1513173636070832,-15,-12,-8,-7,-5,-3,-1,-11
1513173636091846,10,17,3,-3,0,0,-2,5
1513173636091846,7,-6,-23,8,1,-2,-6,-17
1513173636092847,-9,-7,7,-7,-3,-2,4,12
1513173636092847,-6,-1,4,-5,-3,-1,5,6
1513173636105857,5,2,-14,-2,0,-3,-4,-8
1513173636105857,0,-3,7,2,0,-2,-4,-1
1513173636113862,3,6,18,-5,-1,-2,4,-6
1513173636113862,-6,-2,-1,0,-4,-2,5,-7
1513173636128875,1,-4,6,2,3,2,4,6
1513173636128875,-2,-10,-9,-12,-15,-6,-12,-3
1513173636129873,-9,-16,2,3,8,3,10,-3
1513173636129873,-3,0,0,5,4,2,-2,-1
1513173636152389,-1,2,-12,-14,-6,-3,-6,-9
1513173636152389,2,-1,6,1,-8,-6,-7,0
1513173636152890,1,-2,4,5,-6,4,2,-3
1513173636152890,0,4,-3,3,16,0,0,-3
1513173636165899,-1,-4,4,-6,-2,-1,-2,-3
1513173636165899,1,-5,2,4,-4,-3,0,1
1513173636173905,2,1,-2,-5,-4,-5,2,-1
1513173636173905,-3,-2,-11,-19,-13,-3,-3,-4
1513173636196921,2,1,4,0,0,1,2,-1
1513173636196921,-2,-5,0,0,5,2,-3,2
1513173636197931,-2,2,1,0,-6,-2,-1,-5
1513173636197931,-4,-1,2,0,-2,-5,-3,-4
1513173636211940,4,1,-3,0,-2,-6,-4,-2
1513173636211940,0,0,1,1,5,2,0,0
1513173636212942,0,4,-1,-2,2,-1,0,-3
1513173636212942,-2,-1,-1,-1,-2,0,0,-3
1513173636225951,1,1,1,2,-2,1,-1,-3
1513173636225951,6,3,1,-1,4,1,1,16
1513173636233947,-2,-5,-9,0,-2,-3,1,-5
1513173636233947,-3,-3,1,0,-6,-3,-1,-3
1513173636248969,-1,-1,-9,-1,0,1,0,-3
1513173636248969,-2,-2,-3,-3,1,-1,-1,-5
1513173636249958,-4,-2,14,-2,0,-1,0,-1
1513173636249958,-9,-1,-4,0,-2,-1,-3,-3
1513173636273477,0,-1,3,0,1,0,2,3
1513173636273477,-1,-1,-5,2,2,1,-8,-6
1513173636274487,1,2,4,3,-1,-1,2,1
1513173636274487,-3,-2,14,0,-1,-2,-1,-5
1513173636294489,0,-4,-16,-3,-1,0,-1,0
1513173636294489,-1,0,10,0,0,0,2,1
1513173636295490,-1,-1,7,-3,-3,-2,-1,-1
1513173636295490,0,-3,-16,-5,-4,-2,-2,-2
1513173636309000,-2,1,25,6,2,1,3,0
1513173636309000,-2,-6,-19,-1,1,1,1,-2
1513173636309501,1,-1,-7,-2,-1,0,0,-2
1513173636309501,4,5,-9,-6,-4,-5,-2,-1
1513173636332019,-2,-1,6,1,-1,-2,-3,-1
1513173636332019,-2,-2,14,0,-1,-3,-2,-4
1513173636333017,0,0,2,4,3,2,2,1
1513173636333017,0,2,-8,-4,-1,2,1,1
1513173636354549,-1,-2,-17,-1,-3,-3,-3,-1
1513173636354549,-2,-1,-2,0,2,-1,-2,0
1513173636355533,1,0,-18,-3,-1,1,1,0
1513173636355533,0,-1,5,2,-1,-1,-2,-2
1513173636377048,-1,-1,8,-6,-2,-2,-2,-2
1513173636377048,0,-2,-15,-1,-1,-1,1,3
1513173636378049,-2,-3,7,0,-1,-1,-1,-2
1513173636378049,-4,-4,0,-2,-3,-3,-2,-3
1513173636392064,0,0,-2,0,0,-1,-1,1
1513173636392064,-1,-1,9,1,-1,-4,-1,0
1513173636393060,-1,2,-5,-1,0,2,1,0
1513173636393060,0,-2,3,2,-2,0,-1,-2
1513173636414584,0,-2,2,-3,-2,-2,-1,-1
1513173636414584,-2,-1,-11,-3,-1,0,0,0
1513173636415585,0,2,18,-1,-1,-3,-2,-2
1513173636415585,-2,-5,-30,-3,-1,1,2,1
1513173636429097,0,-1,-5,2,-3,-1,-1,-1
1513173636429097,1,2,9,-1,0,2,0,-2
1513173636429585,-1,1,12,1,-1,-3,-1,-3
1513173636429585,-1,-5,-11,-5,-1,-1,-2,-3
1513173636452110,-4,-2,-1,-1,0,-1,0,-2
1513173636452110,-1,0,-11,-1,-3,0,-1,0
1513173636453106,-3,-2,7,0,-3,-1,-2,-3
1513173636453106,0,2,1,3,2,0,0,1
1513173636474617,-2,-2,-9,-3,0,-2,-1,-2
1513173636474617,-1,-2,17,3,-1,-4,-1,-2
1513173636475618,-2,0,-4,0,-3,-2,-2,-2
1513173636475618,1,1,7,0,0,-2,0,-2
1513173636489131,0,-2,-1,-2,-2,-2,-3,-2
1513173636489131,-1,-1,-7,-3,0,0,-1,0
1513173636489627,-3,0,-10,-2,-2,-1,-2,-3
1513173636489627,-3,0,5,0,-1,-2,-1,-1
1513173636512143,2,2,1,-1,1,1,0,1
1513173636512143,-1,-1,0,-2,0,-1,-2,-1
1513173636512644,-1,-2,-6,-1,1,-1,-2,0
1513173636512644,-2,-1,10,-1,-4,-3,-2,-2
1513173636534659,0,0,-2,-1,0,1,1,-1
1513173636534659,0,-1,-2,-1,-1,1,-2,0
1513173636535675,0,-2,-5,0,-3,-3,0,0
1513173636535675,-1,-1,2,0,0,-3,1,0
1513173636549170,1,-1,2,0,-1,-1,-1,0
1513173636549170,0,-1,-2,-1,-2,-1,-1,-1
1513173636549673,-1,-2,-5,-3,-1,-3,-2,1
1513173636549673,-1,0,4,0,-1,1,0,-2
1513173636572198,2,1,-5,-3,-2,-1,0,1
1513173636572198,-4,-2,0,-2,2,-2,-1,-2
1513173636572687,-1,-1,-4,-1,-1,0,0,-2
1513173636572687,0,1,3,0,-1,0,-1,0
1513173636594702,-1,1,-1,-1,-2,-4,-1,1
1513173636594702,1,-2,-4,-3,-4,-1,0,1
1513173636595202,-1,-1,-4,-2,-2,-3,-1,-2
1513173636595202,-1,-2,0,1,-1,-1,-1,-2
1513173636608725,-1,0,1,-1,0,1,0,-2
1513173636608725,-1,-1,-3,-3,-2,-2,-2,0
1513173636609712,-2,-1,-3,-3,-1,-1,-1,-1
1513173636609712,1,1,-1,0,0,0,-1,-1
1513173636632231,-1,-1,-2,-1,1,0,0,0
1513173636632231,0,-2,-2,-2,-1,1,-2,0
1513173636632733,-1,0,-3,-1,-1,-2,-1,-1
1513173636632733,-2,0,1,0,-1,-1,0,-1
1513173636654744,-2,-3,0,0,-1,1,-1,0
1513173636654744,3,1,-2,-1,-2,-1,-1,1
1513173636655245,-2,-3,-1,-2,-1,0,-2,-1
1513173636655245,-1,-1,0,-3,0,0,-2,0
1513173636668754,-3,-3,-2,-1,-2,-1,-1,-1
1513173636668754,0,-1,1,-2,0,-1,0,-1
1513173636669762,0,0,-1,-2,-2,-3,1,-3
1513173636669762,-2,0,0,-1,-1,-1,-2,0
1513173636692271,0,-3,-3,-2,-1,-2,0,1
1513173636692271,-2,0,-1,0,2,0,0,1
1513173636692781,-2,-2,0,0,0,1,1,-4
1513173636692781,-2,-1,-2,-2,0,-4,-2,-1
1513173636714787,0,-1,-1,-2,-3,-2,-1,-1
1513173636714787,-3,-3,-2,0,-1,0,0,-2
1513173636715287,-2,-1,-1,-2,0,0,-1,0
1513173636715287,0,-3,-1,-1,0,-1,0,-1
1513173636728835,0,-1,-1,0,0,0,-2,-1
1513173636728835,0,1,0,0,-2,-1,-1,0
1513173636729807,-1,0,-2,0,-2,-1,-1,0
1513173636729807,-2,-1,0,-2,-2,-1,-1,-3
1513173636752314,-2,-1,-1,0,0,1,-1,-1
1513173636752314,-1,-1,1,-2,0,-1,0,-1
1513173636752814,0,-1,0,0,-1,0,0,-1
1513173636752814,-4,-4,1,0,-1,-1,-1,-1
1513173636774840,-2,-1,-1,0,1,-1,-1,0
1513173636774840,1,0,0,0,-1,0,-2,-1
1513173636775329,-2,-5,0,-2,-1,-3,-1,-1
1513173636775329,1,-2,-1,-2,-3,-1,-2,-3
1513173636789349,-5,-1,0,-1,1,0,-1,-3
1513173636789349,-1,-3,-2,0,-3,-1,-1,-1
1513173636796345,-2,-1,-2,-2,-2,0,-1,-2
1513173636796345,-1,1,0,0,0,-1,-1,1
1513173636811855,1,-1,-2,-1,0,-2,-1,1
1513173636811855,0,0,-2,-2,-1,1,-1,-1
1513173636812856,-1,-3,-2,0,-2,-1,-1,-2
1513173636812856,1,-1,0,-1,0,1,-1,-1
1513173636834872,0,-2,-1,-1,-3,-2,0,-2
1513173636834872,-1,-3,-2,-3,0,-2,-1,-1
1513173636835873,0,-1,-1,-3,-3,-1,-1,-1
1513173636835873,-1,1,-2,-1,-2,-2,-1,-1
1513173636848882,1,-1,-1,-2,-1,1,-1,0
1513173636848882,0,-1,-2,-1,-1,-2,0,-1
1513173636856387,-1,-1,-1,-1,-2,0,0,-1
1513173636856387,-2,-1,0,-1,-2,-1,-2,-1
1513173636871400,1,-1,0,-1,0,-2,-1,-3
1513173636871400,-2,-4,-1,1,-1,0,2,0
1513173636872398,-1,1,-2,0,-2,-1,-2,-1
1513173636872398,-1,-1,0,1,0,-2,-1,-2
1513173636894914,-1,1,-3,-1,-1,-1,0,1
1513173636894914,-3,-1,-1,1,-1,-2,-1,-1
1513173636895915,-1,-1,-2,1,-1,-3,-1,0
1513173636895915,-1,-2,-1,-2,-1,0,-1,-1
1513173636908423,0,-1,-2,-2,0,-1,0,-1
1513173636908423,0,1,-2,-1,-1,-2,-1,-1
1513173636916467,-1,-1,0,-1,-1,0,0,-1
1513173636916467,0,-1,-3,0,-3,-2,-3,-2
1513173636931943,1,0,-1,-1,-2,-1,1,1
1513173636931943,3,2,-2,-2,0,-2,0,1
1513173636932940,-3,-1,0,-1,1,0,-2,0
1513173636932940,0,-3,0,-1,-1,-2,0,1
1513173636955474,-1,-2,-1,-1,-2,2,-2,0
1513173636955474,-1,-3,0,-2,-1,-1,-1,-3
1513173636956458,-2,-1,-1,-1,-1,-3,-2,-2
1513173636956458,-3,-2,0,-1,-1,0,0,-1
1513173636968466,3,1,-3,0,-2,-2,-2,0
1513173636968466,-4,-2,-1,-2,-1,1,-2,0
1513173636976472,-1,-1,0,-2,-1,-1,-1,-4
1513173636976472,-2,-1,0,-1,-2,-1,-2,-1
1513173636991983,-1,-2,-1,-1,-1,-3,-2,0
1513173636991983,-2,0,-1,0,-1,-1,0,1
1513173636992985,0,-1,-2,-1,-1,0,0,-1
1513173636992985,0,0,0,-1,-1,0,1,-1
1513173637014511,-2,0,1,-1,-2,0,-2,-1
1513173637014511,0,-1,-1,-2,-2,-1,-2,-1
1513173637015500,-4,-2,-2,0,0,-2,-2,-3
1513173637015500,-1,-1,-1,-1,-1,0,-1,-1
1513173637028509,-3,-6,1,1,-2,2,0,0
1513173637028509,-1,-2,0,0,0,1,0,0
1513173637036523,1,-1,-1,-1,0,-2,0,-1
1513173637036523,-1,0,-2,-1,-1,1,2,0
1513173637052026,-1,0,-1,0,0,-4,-2,-3
1513173637052026,-1,2,-3,0,-1,-2,-1,-1
1513173637053026,0,-3,-3,-1,0,0,-1,0
1513173637053026,-2,-3,-1,0,0,-2,0,-1
1513173637074542,2,1,-3,-2,-3,-1,-1,-1
1513173637074542,-1,-2,1,0,0,-1,-3,-3
1513173637076051,-2,0,-3,-3,-5,-4,-4,-3
1513173637076051,-4,-1,0,-1,-2,-1,-2,-2
1513173637088060,0,0,-3,0,-1,0,0,2
1513173637088060,-7,-8,2,0,-1,-1,-1,-2
1513173637097057,-2,0,0,-1,-1,0,1,1
1513173637097057,-1,1,-2,-1,0,-3,-2,-2
1513173637111576,0,-1,-1,-3,0,-1,-1,-1
1513173637111576,0,-1,-2,-1,0,-1,-2,-2
1513173637118071,-1,-4,1,-1,-2,0,-2,-1
1513173637118071,-3,-3,0,-2,-1,-2,1,-1
1513173637134599,-2,-3,0,0,1,-1,-1,0
1513173637134599,0,0,-3,-2,-1,-1,0,1
1513173637142089,-1,0,-2,0,-2,-1,1,-1
1513173637142089,2,1,-4,-3,-1,0,-2,2
1513173637148094,-2,-1,0,-1,-1,-1,-1,-2
1513173637148094,-1,0,-1,-2,-3,-3,-1,-2
1513173637157100,-1,-1,0,-1,0,0,-2,0
1513173637157100,2,0,-1,-2,-2,-2,0,-1
1513173637172121,-1,0,-1,-3,1,-1,-2,-1
1513173637172121,-1,-2,-2,-2,-1,-2,-1,0
1513173637173612,-1,0,0,1,0,-2,0,-1
1513173637173612,0,1,-3,-1,0,0,0,-1
1513173637194637,-5,-3,2,2,-1,-1,1,-1
1513173637194637,-1,0,-2,1,-1,-2,-1,-1
1513173637196130,-1,-1,0,-2,-1,-1,-3,-1
1513173637196130,-2,-1,-1,-2,-1,-2,-2,0
1513173637217142,1,-1,-1,-3,-1,-1,-2,-1
1513173637217142,1,1,-3,-2,-1,0,-1,-1
1513173637218643,-2,-1,0,-1,-1,-2,0,-2
1513173637218643,-1,-2,-2,0,-1,-1,0,-1
1513173637232154,1,-1,-1,-1,-2,0,0,0
1513173637232154,-1,-2,0,-1,-2,-2,-1,-1
1513173637233655,0,-3,-2,-2,0,-1,0,-2
1513173637233655,0,-4,-3,-2,-3,-3,-1,-2
1513173637254687,-3,-1,0,0,-2,-1,-2,-1
1513173637254687,1,0,-1,-2,0,0,-1,-1
1513173637256170,-1,-1,0,0,-1,-1,-2,-1
1513173637256170,-1,-3,-2,-1,-2,-1,-1,-1
1513173637277184,-1,-2,-3,-2,-1,-2,-1,0
1513173637277184,-3,-4,1,0,-2,-1,0,-2
1513173637278689,-1,-2,0,0,0,0,1,0
1513173637278689,-2,-1,1,-1,-1,0,-1,-1
1513173637292195,-3,-6,-2,-2,0,0,-1,-1
1513173637292195,0,1,-2,-2,-1,0,1,0
1513173637293696,0,-1,-2,-3,-2,-2,-2,-3
1513173637293696,-3,0,0,0,0,-2,-1,-2
1513173637322217,1,1,-3,-3,-4,0,-1,-1
1513173637322217,0,1,-1,1,0,-1,0,0
1513173637323721,-1,-3,-1,-1,-2,-1,0,-2
1513173637323721,-2,-1,-1,-1,-1,-2,-2,-1
1513173637337227,2,3,-2,-2,0,-3,-2,0
1513173637337227,-1,-1,-1,-2,-1,1,-2,-1
1513173637338739,-2,-1,-1,-1,-1,-1,0,-2
1513173637338739,-1,0,1,-2,-1,-2,-2,-3
1513173637351747,1,0,-2,-2,-1,-3,2,0
1513173637351747,1,1,-4,-1,-3,-3,-2,-2
1513173637359743,-3,0,-2,-2,-1,-2,-1,-1
1513173637359743,-1,-1,0,0,-1,-2,0,-2
1513173637374754,-1,-2,-2,-2,1,-1,-2,0
1513173637374754,1,0,-1,-2,-3,0,-1,-1
1513173637376255,-1,-2,0,1,-1,-2,-1,-2
1513173637376255,-2,0,-1,-1,0,1,-1,-2
1513173637396786,-1,-3,-1,1,0,0,0,-1
1513173637396786,-1,0,-1,-2,-1,0,-1,-2
1513173637398787,-2,-1,-1,-1,0,-1,-3,-3
1513173637398787,0,-3,-1,2,0,-1,-2,-1
1513173637411289,-1,-2,0,0,-3,-2,-1,-1
1513173637411289,-2,-2,0,-2,-2,-2,-3,1
1513173637418283,-2,-2,1,-3,-1,0,-1,-2
1513173637418283,-1,-1,-1,-1,0,1,-1,-2
1513173637434618,-2,0,-2,-1,-2,-2,1,0
1513173637434618,0,-4,-1,0,0,-2,0,0
1513173637436616,-2,0,0,-1,0,0,-2,-1
1513173637436616,0,0,-1,-2,-2,-1,-2,-1
1513173637457132,0,0,-3,-1,-1,-1,-3,0
1513173637457132,-2,-2,0,-1,-1,-2,-2,-1
1513173637458632,-1,0,-1,1,-1,0,2,-1
1513173637458632,-1,-1,-2,-2,-2,0,0,-1
1513173637471642,-3,0,-1,-1,-1,0,-1,-1
1513173637471642,-1,0,-1,-2,-2,0,-2,-1
1513173637478147,0,1,1,-1,-1,0,0,-2
1513173637478147,0,-2,-1,-2,-1,-2,-2,0
1513173637494658,-2,-1,-2,-1,-1,-2,0,0
1513173637494658,-3,-2,-2,0,-1,0,0,-2
1513173637496159,0,-1,-1,-1,0,-1,-1,0
1513173637496159,0,0,-1,-2,-1,0,-2,-3
1513173637517174,2,-1,-1,0,0,-1,0,7
1513173637517174,-1,0,-1,-2,-1,-1,2,0
1513173637518689,-1,-2,-1,-5,-1,-2,-13,-4
1513173637518689,-1,-1,-2,-2,0,-1,0,-4
1513173637531186,-1,-1,-1,-2,-2,-1,-3,-3
1513173637531186,0,0,0,-1,0,-2,2,3
1513173637538188,-2,-1,-1,-1,-2,-1,2,-1
1513173637538188,-3,-1,-1,0,-1,-1,-2,2
1513173637554700,1,-1,-2,-1,-2,0,-2,-13
1513173637554700,0,-1,-2,-2,-1,0,11,15
1513173637556201,-1,-2,-1,2,-1,-2,-6,-3
1513173637556201,-4,-1,1,1,-1,-1,-1,0
1513173637577215,2,1,-1,1,-2,-2,-1,1
1513173637577215,-3,-4,-1,-1,0,-2,-5,-6
1513173637578718,-1,-2,-2,-3,-1,-1,6,0
1513173637578718,-1,-3,-2,0,-1,0,1,0
1513173637591226,-1,0,-1,0,-2,-1,-12,-5
1513173637591226,-3,-1,-2,1,-1,-2,-2,-4
1513173637598230,-1,-1,2,-1,-1,-1,0,-1
1513173637598230,1,-1,-1,-1,1,-1,0,1
1513173637614742,-1,-2,-3,-2,0,1,5,2
1513173637614742,1,-1,-2,0,-2,0,-5,-5
1513173637616244,-1,-3,-3,-1,-1,0,0,-2
1513173637616244,-2,0,-1,-2,-3,-4,-2,0
1513173637637762,0,-1,0,-2,1,0,1,2
1513173637637762,-1,0,0,0,0,-1,-1,-3
1513173637639260,-2,0,1,0,-1,-1,0,-1
1513173637639260,1,0,-2,-1,-1,-1,-1,-2
1513173637651270,0,-2,-1,0,0,-1,0,1
1513173637651270,0,-1,-1,-2,0,-2,-2,-2
1513173637658273,-5,0,1,0,0,-1,0,-1
1513173637658273,1,1,-1,0,-1,-1,-1,-1
1513173637674785,-2,0,-2,0,-2,0,1,1
1513173637674785,-1,1,-1,-2,-2,-2,-3,-4
1513173637676286,-2,-3,0,0,-1,0,0,-1
1513173637676286,-2,-2,-1,-1,-2,-1,-2,-1
1513173637696812,-2,-2,-1,-1,0,0,0,0
1513173637696812,-1,-1,-2,-1,-1,-2,-1,-2
1513173637698811,-1,-2,-3,-2,-2,-2,-2,0
1513173637698811,0,-1,-1,0,-1,-1,0,1
1513173637719831,-1,0,-1,-3,-1,-1,-1,-2
1513173637719831,-1,-1,-1,0,0,0,-3,0
1513173637721333,0,0,-3,-2,-2,-1,-1,-1
1513173637721333,-5,-3,-1,-1,-2,1,1,-1
1513173637735328,-1,0,-2,-2,-2,-2,0,-1
1513173637735328,-2,-1,-1,-1,-1,2,1,-2
1513173637737329,-1,-1,-2,1,-2,-2,-1,-1
1513173637737329,3,-2,-2,-1,-2,0,-1,1
1513173637757344,-1,-3,-4,-1,-1,0,-1,2
1513173637757344,-3,-5,-1,-1,0,-2,-2,-1
1513173637758847,-1,-3,-1,1,-1,-1,-2,-1
1513173637758847,-1,0,-2,-1,0,-1,-1,-3
1513173637770892,1,0,0,-1,-1,-2,-2,0
1513173637770892,-1,-2,-1,-2,-1,0,-1,-3
1513173637779874,-7,-4,1,0,-1,-1,0,-2
1513173637779874,0,-2,-2,-1,-1,-2,-2,-2
1513173637794869,-1,0,-2,-1,0,-1,0,-1
1513173637794869,-2,-2,-1,-1,-2,-1,-3,0
1513173637796371,2,-1,0,0,0,0,-1,0
1513173637796371,0,-2,0,-1,-2,-2,0,1
1513173637817400,-2,-3,0,-2,-2,0,1,0
1513173637817400,-2,-2,-1,-1,0,-1,-2,-2
1513173637818888,1,-1,-1,-3,-2,-1,-2,-1
1513173637818888,0,-1,-1,0,0,-1,-2,-2
1513173637830898,0,0,-1,-1,-1,-1,0,0
1513173637830898,1,2,-4,-2,-3,-3,-1,-1
1513173637839903,0,-2,-3,-2,-2,-3,1,0
1513173637839903,-1,0,-1,1,-1,-1,-2,-1
1513173637854413,-2,-1,-2,-1,-1,-1,-1,-1
1513173637854413,-1,0,-1,0,-2,-2,-1,-1
1513173637856414,2,1,-2,-3,-1,-3,-2,1
1513173637856414,-3,-3,0,0,0,-1,0,3
1513173637876928,0,-2,-1,-1,-1,-1,-2,0
1513173637876928,-1,-2,0,-1,-2,0,-1,-1
1513173637878930,0,-1,-1,-3,-2,-1,-1,-1
1513173637878930,0,-3,-4,-3,-1,-1,-2,0
1513173637890938,-3,0,0,2,0,-2,-2,-3
1513173637890938,-2,-1,-2,0,-2,-1,0,-1
1513173637899956,-3,0,-1,-1,-1,-1,-1,-3
1513173637899956,0,0,-1,-2,-1,-1,-1,-2
1513173637914454,1,-3,-1,-1,1,-1,-3,-1
1513173637914454,0,0,1,-1,0,-1,0,-1
1513173637916456,-2,-1,-1,-1,-2,-2,-2,-2
1513173637916456,2,1,-2,-2,-1,-2,-2,-1
1513173637936973,1,-2,-2,-2,-1,-1,-1,0
1513173637936973,-3,-2,-2,-1,0,-1,0,-1
1513173637938971,-1,-1,-1,-1,-1,1,0,-1
1513173637938971,-2,-1,-1,0,1,-1,-1,-1
1513173637950980,1,1,-2,-1,-1,-2,-2,-1
1513173637950980,-2,-3,-1,-1,-2,-3,-2,-1
1513173637959987,0,1,-1,-1,0,-2,-2,-1
1513173637959987,-2,-1,-1,0,-1,0,-1,-2
1513173637974999,-2,-2,-3,0,-2,-1,-1,0
1513173637974999,-3,-2,-2,-1,0,-1,-3,-2
1513173637976498,-2,-4,-1,-1,-1,-1,-2,0
1513173637976498,0,-1,-1,-1,0,0,0,0
1513173637997013,-2,0,0,-2,-1,-1,1,0
1513173637997013,-1,0,-1,-2,-1,-1,-1,-2
1513173637999014,-2,0,-2,-1,-2,-2,-1,0
1513173637999014,-3,-2,0,0,-1,-3,0,-1
1513173638011023,0,0,-2,-1,-1,-1,1,0
1513173638011023,0,-2,0,-1,0,-1,-1,-1
1513173638019529,-3,0,0,-1,-2,-1,-2,0
1513173638019529,0,-1,-1,0,-2,0,0,0
1513173638034539,-1,-3,-2,-1,-1,-3,-2,-2
1513173638034539,-3,-1,0,-1,-2,-2,0,-3
1513173638037043,-1,-2,0,-2,0,0,-1,-4
1513173638037043,0,1,0,-2,0,-1,-1,0
1513173638057057,-1,1,-2,-2,0,-1,-1,0
1513173638057057,0,0,-3,-2,-2,-1,0,0
1513173638058557,-1,-1,1,-1,-2,-1,-1,-3
1513173638058557,-1,-1,-2,-3,0,-1,-1,1
1513173638071065,-2,-2,0,-2,0,0,-1,0
1513173638071065,-1,-1,-2,-1,-1,-1,0,-1
1513173638079571,0,-1,-1,-1,0,-3,-1,-2
1513173638079571,0,0,-2,-1,-3,0,-3,0
1513173638094629,-1,0,-2,0,-2,1,-1,-1
1513173638094629,-3,-2,1,0,0,-1,0,-4
1513173638096129,-2,-4,-2,1,-1,-2,-1,-1
1513173638096129,-2,-2,-1,-2,0,-1,0,-1
1513173638117169,1,0,-3,-2,-1,0,-1,-1
1513173638117169,-1,0,1,-1,-2,0,-2,2
1513173638118668,-1,1,0,-2,-2,-1,-2,0
1513173638118668,-1,-2,-1,-2,-2,-1,-2,-1
1513173638139661,-2,-2,-1,1,-1,-1,-1,0
1513173638139661,0,-2,-3,-1,-1,-2,0,-3
1513173638141171,2,0,-4,-2,-1,1,-1,-2
1513173638141171,1,-2,-2,0,-2,-1,0,1
1513173638154672,-1,0,-2,-2,-2,0,-1,-3
1513173638154672,-2,-1,-1,-1,-3,-3,-2,0
1513173638156172,-1,-1,-2,-1,-1,0,-1,0
1513173638156172,0,1,-2,0,0,-2,-2,-2
1513173638177188,-2,-1,-2,-1,1,-2,-2,1
1513173638177188,-1,-1,0,0,-1,-2,-1,-1
1513173638178688,-2,-2,-1,-1,-1,-2,-1,-2
1513173638178688,-3,-1,0,-1,-1,-2,0,0
1513173638199717,1,-1,1,0,-3,-4,0,0
1513173638199717,0,1,-1,-1,-1,0,0,-1
1513173638201216,-2,-2,-2,-1,-1,0,-2,0
1513173638201216,0,-2,0,1,0,-2,-2,1
1513173638214716,-1,-2,-2,-1,-2,-2,-1,0
1513173638214716,-3,-2,0,-3,1,2,-2,-1
1513173638216224,-2,-1,0,1,-1,0,-1,-1
1513173638216224,-2,-2,-1,-3,0,-1,-1,-2
1513173638237240,0,-2,-2,-1,0,-1,0,0
1513173638237240,-3,-2,-3,0,-1,-1,-2,-2
1513173638238731,1,1,-2,-1,0,-2,-2,-1
1513173638238731,0,1,-2,-1,2,0,-1,0
1513173638259746,-1,-1,0,-3,-1,0,-2,-1
1513173638259746,0,-3,-3,-2,-2,0,-1,-1
1513173638261756,-3,-2,0,-2,-1,-2,-1,-2
1513173638261756,1,-1,-3,-1,-1,0,1,0
1513173638274256,0,-3,-2,-3,0,1,-1,-2
1513173638274256,-1,-1,-1,0,-1,-1,-1,-1
1513173638280783,0,0,-1,-1,-1,-1,0,-1
1513173638280783,-1,-1,0,-1,0,-2,-1,-2
1513173638297277,-2,0,-2,-1,-1,-1,-1,-2
1513173638297277,0,-2,0,-1,-1,0,-1,-3
1513173638298773,-1,-1,-1,0,0,-2,0,-2
1513173638298773,0,-2,-3,-2,-1,-1,0,1
1513173638319801,-2,-1,0,0,0,-1,0,0
1513173638319801,-2,-1,-2,-2,-1,-2,0,-2
1513173638321307,-3,-4,1,1,0,-1,-2,-2
1513173638321307,-4,-3,0,-1,-1,0,-3,-1
1513173638333799,0,-1,-2,-1,-2,-2,-2,-1
1513173638333799,-2,-1,-1,0,0,0,-1,0
1513173638340815,-1,-1,0,-2,-1,0,-1,-1
1513173638340815,0,-1,-3,-1,-2,-2,0,-1
1513173638356814,0,-1,-2,0,-2,-1,1,0
1513173638356814,1,1,-2,-2,-1,-2,-1,-2
1513173638358817,1,1,-3,-2,-1,-1,-2,-1
1513173638358817,-1,-2,-1,0,-2,1,-1,-2
1513173638379345,0,-1,0,0,-1,-1,-1,0
1513173638379345,0,-4,-1,-2,-1,-2,-2,-1
1513173638381348,0,-1,-1,-2,-1,-3,-1,-1
1513173638381348,0,0,-2,-1,-2,-1,-1,-1
1513173638393879,-2,-2,0,0,-1,1,0,-2
1513173638393879,-1,1,0,-2,-1,-1,-2,-1
1513173638400874,0,-3,0,-1,-2,1,-2,0
1513173638400874,-3,0,-1,0,-1,-1,-1,0
1513173638416898,-1,-2,-1,-1,-1,-1,0,0
1513173638416898,-2,0,-1,-1,-4,-2,-1,-2
1513173638418900,-3,-2,-2,-3,-2,-1,0,-2
1513173638418900,1,0,-2,0,0,-1,0,-1
1513173638439413,2,-1,-4,-3,0,-1,-1,1
1513173638439413,-1,-2,1,-2,-1,-1,-1,-2
1513173638441403,-2,0,-1,0,-1,0,0,-1
1513173638441403,-1,-2,-2,-3,-1,-1,0,0
1513173638453422,-1,-1,0,0,-1,0,-3,0
1513173638453422,0,-1,-4,-3,-2,-1,1,-2
1513173638462418,2,-1,-1,-2,-1,-1,0,-2
1513173638462418,-3,-4,1,0,1,0,-1,0
1513173638476939,-2,-1,-1,-1,0,-1,0,1
1513173638476939,-1,1,-2,-1,-2,-2,-3,0
1513173638478429,-2,-1,-2,1,-1,-1,-1,-1
1513173638478429,2,0,-3,-2,-3,-2,-3,-1
1513173638499445,-2,-1,0,-1,0,-2,-1,-2
1513173638499445,-2,-2,1,-2,-1,0,0,0
1513173638500959,-3,-1,-2,-1,-2,-4,-2,-2
1513173638500959,1,1,-1,-1,1,1,1,-2
1513173638513954,0,-2,-2,-1,-1,-1,-1,-1
1513173638513954,-2,-2,-3,-2,-2,-2,0,0
1513173638520960,1,-2,-1,0,0,-1,-2,-1
1513173638520960,-1,0,-1,1,0,-2,-2,1
1513173638536971,-7,-4,2,1,-1,0,-1,-3
1513173638536971,-1,-1,0,0,-2,0,1,-2
1513173638538972,0,-3,0,-2,0,-1,1,0
1513173638538972,0,0,-2,-2,-1,-2,-2,1
1513173638559495,0,0,-3,-2,0,0,-1,-1
1513173638559495,-1,0,-4,-1,-3,-2,-2,-3
1513173638560988,-2,-1,-2,-1,-1,-2,-1,0
1513173638560988,-4,-2,1,1,0,-1,-1,-2
1513173638574497,1,0,-1,-1,-1,-2,0,0
1513173638574497,-4,-1,1,-1,0,0,-2,0
1513173638582003,0,0,1,-3,-2,-2,-1,-1
1513173638582003,1,-1,-2,-3,-2,0,-1,-1
1513173638597514,0,-2,-2,-2,-2,-1,-1,0
1513173638597514,-2,-4,-3,1,0,0,1,0
1513173638603027,-1,-1,-3,0,-1,-2,-2,0
1513173638603027,0,-2,-1,-1,-1,-1,-1,-1
1513173638619529,0,1,0,-3,-1,-2,-2,-2
1513173638619529,-1,-2,1,0,0,-1,-1,-2
1513173638621030,-1,-1,0,-1,-1,1,-1,-1
1513173638621030,0,0,-1,-2,-1,-1,-1,-1
1513173638633041,-1,0,-3,0,-2,-1,-1,-1
1513173638633041,-5,-2,0,0,1,-1,-2,-2
1513173638642046,-3,1,-1,-1,1,0,0,1
1513173638642046,-2,-1,0,-1,-1,-1,-1,-1
1513173638657056,0,0,-1,-4,-1,-2,-1,0
1513173638657056,0,0,-2,-2,-2,0,-1,-1
1513173638658557,-1,-1,-2,-1,-3,-1,-1,-2
1513173638658557,0,-3,-3,-2,-1,0,0,0
1513173638679571,-1,1,0,0,-1,-2,-1,-1
1513173638679571,-1,-1,0,-2,0,-1,0,-2
1513173638681073,0,0,0,-1,0,1,1,-1
1513173638681073,1,0,-3,-2,-3,-1,-1,0
1513173638693080,0,-1,-3,-1,-2,-2,-3,-2
1513173638693080,0,-1,-1,-1,-2,-2,-1,-1
1513173638702088,0,0,-2,-2,0,0,-1,-2
1513173638702088,1,2,-3,-3,-1,-3,-2,-1
1513173638717108,-1,-1,-1,0,0,2,0,-2
1513173638717108,0,-1,0,-1,0,0,-2,-2
1513173638718609,2,-1,-3,-2,-3,-5,-2,0
1513173638718609,-1,-1,0,0,-2,-1,0,1
1513173638739613,-1,-1,-2,-2,-1,1,-1,-2
1513173638739613,1,0,-2,-1,0,-2,-1,-1
1513173638741118,-1,-3,-2,-2,-1,-1,-1,0
1513173638741118,1,-1,-1,0,0,1,-1,0
1513173638753133,-2,-2,0,0,-2,-1,0,1
1513173638753133,-2,1,-2,-2,-1,0,-1,-1
1513173638762130,-1,-3,-1,-1,0,-1,-1,-1
1513173638762130,-2,-2,-1,1,0,-2,-1,-1
1513173638776640,-2,-2,-1,0,-2,1,-1,0
1513173638776640,0,-2,-2,-3,-3,-2,-2,-1
1513173638783160,-2,-2,1,0,-1,-1,1,0
1513173638783160,0,-1,-1,0,-1,-1,0,-2
1513173638799657,0,-1,-3,-2,-2,-2,-2,-3
1513173638799657,-1,-2,1,0,0,-2,-2,-1
1513173638801158,-2,-1,-2,-1,-4,-2,0,-2
1513173638801158,1,0,-1,-2,0,0,1,0
1513173638813166,-1,1,-1,-2,-2,-1,-1,0
1513173638813166,-2,0,1,-2,-1,1,-1,-3
1513173638822183,-1,-1,-1,0,-2,-2,-1,-2
1513173638822183,-3,-2,0,0,-2,1,0,-1
1513173638837186,-1,-3,-1,-2,0,-3,1,-1
1513173638837186,-2,-2,-2,-1,-1,-2,0,-2
1513173638838685,0,-1,-3,-1,0,1,-1,-1
1513173638838685,-2,-4,-1,-1,1,-1,-1,-1
1513173638859699,-1,-2,-1,0,-1,1,-2,-2
1513173638859699,-2,-1,-1,-1,-2,-2,0,0
1513173638861200,-2,2,-1,-2,2,0,0,-1
1513173638861200,1,-1,-2,1,-2,-3,-2,-1
1513173638873209,-2,-1,0,-2,1,0,0,0
1513173638873209,-2,-4,-1,0,-1,-1,-1,-1
1513173638882215,0,-1,0,0,-2,-2,-2,1
1513173638882215,-1,1,-1,-2,-1,0,-2,-1
1513173638897726,-3,0,-1,0,0,-2,-2,-2
1513173638897726,3,2,-4,-2,-2,-1,0,0
1513173638899227,-3,-2,1,-1,-1,-1,-1,-2
1513173638899227,1,0,0,-2,-2,-1,-2,0
1513173638919741,0,-3,-1,-3,-1,-1,-1,-1
1513173638919741,-2,0,0,0,-1,0,-1,-2
1513173638921243,-1,-2,-1,-1,1,-1,-1,0
1513173638921243,0,0,-3,-2,0,-2,0,2
1513173638933251,-4,-1,1,-1,-1,1,-1,-2
1513173638933251,-3,-2,0,-1,0,0,-1,0
1513173638942257,1,0,-1,0,0,-1,-1,-2
1513173638942257,0,-2,-2,0,-2,0,-1,-1
1513173638957268,-1,-2,-1,0,0,-3,-1,0
1513173638957268,-1,0,-3,-1,0,-2,-1,-2
1513173638958769,-2,-3,0,-1,-2,-2,-2,-2
1513173638958769,-1,1,-1,-2,1,0,0,-1
1513173638979784,1,-1,-1,0,-3,-1,-1,-1
1513173638979784,1,0,1,-2,-1,-2,-2,-2
1513173638981288,-5,-5,1,1,1,0,-1,0
1513173638981288,0,-1,-2,-1,-2,-3,-1,-1
1513173638993293,-2,0,0,-1,-2,0,-1,-1
1513173638993293,-1,-3,-1,-1,-2,0,-1,-3
1513173639002309,-1,1,-2,-3,-1,-1,0,-2
1513173639002309,1,-3,-1,-1,-1,1,-1,-1
1513173639016810,-1,-1,0,-2,0,-1,0,-1
1513173639016810,-1,-2,0,-2,-2,-1,0,1
1513173639018826,0,1,-2,0,-2,-1,-2,-1
1513173639018826,-2,-3,0,-2,-1,-1,0,0
1513173639039326,1,-1,-1,-1,-1,-1,-2,-1
1513173639039326,0,-1,-1,0,-1,-2,0,-2
1513173639041329,3,-1,-4,-4,-1,-1,-1,-1
1513173639041329,-2,-1,-1,2,0,-1,0,-1
1513173639053335,-2,0,-2,-2,-3,0,-2,-1
1513173639053335,-2,-2,-1,-1,-2,-3,-2,0
1513173639062341,0,0,-1,-1,-2,0,-2,0
1513173639062341,-2,-2,0,0,-1,-1,-1,0
1513173639076852,-2,-1,-1,-2,1,0,-1,-1
1513173639076852,-2,0,-1,-1,-1,-2,-1,-2
1513173639078853,-2,-1,-1,-2,-1,-2,-1,-2
1513173639078853,0,-2,-2,-3,-1,-1,0,0
1513173639099428,0,2,-3,-1,-2,-2,-1,-1
1513173639099428,1,0,-1,0,0,0,0,0
1513173639100930,-1,-3,-1,-1,-1,-1,0,0
1513173639100930,-1,-2,-1,-1,-1,0,-1,-2
1513173639121954,-2,-2,-1,0,-1,-1,0,-1
1513173639121954,-3,-3,-1,-1,-3,-3,-3,-2
1513173639123446,0,0,0,1,-1,-1,0,-2
1513173639123446,0,1,-2,-1,-2,-2,-2,0
1513173639136958,-1,-1,1,2,-2,0,0,0
1513173639136958,-3,-2,-1,0,-2,1,-1,-3
1513173639138957,-2,-1,-3,-1,-1,0,1,1
1513173639138957,2,1,-3,-4,-3,-2,-3,-1
1513173639159471,0,-2,-2,0,-1,-1,-1,-1
1513173639159471,-1,-2,-1,-1,-3,-1,0,0
1513173639160972,-2,-3,-2,0,-1,0,-1,-1
1513173639160972,-2,-1,-1,0,-1,1,-2,1
1513173639182015,-1,-1,-1,-2,1,-1,-2,-2
1513173639182015,-2,-3,0,-1,0,0,-1,0
1513173639183507,1,0,-1,-3,0,-1,-1,1
1513173639183507,-3,-2,-2,0,-2,0,-1,0
1513173639197015,-1,-2,0,0,0,0,0,0
1513173639197015,-1,1,-2,-2,-1,-3,-1,-1
1513173639199016,-1,0,-2,-1,0,-1,-1,0
1513173639199016,-1,-2,0,-1,-1,0,0,0
1513173639219524,-2,-3,-1,-2,-1,-2,-2,0
1513173639219524,-1,1,-1,-1,-2,0,-2,-1
1513173639221025,-1,-1,0,0,0,-2,-2,-1
1513173639221025,0,1,-3,-1,-1,-1,-2,-2
1513173639249544,-1,0,-3,-1,-1,1,0,-2
1513173639249544,-1,-1,-1,-3,0,1,0,-2
1513173639251036,-2,-1,-1,-1,-1,0,-1,-1
1513173639251036,-1,-1,0,-2,-1,-1,-1,0
1513173639256540,3,1,-3,-3,-3,-4,-2,0
1513173639256540,-2,-1,0,0,-2,-2,-1,-2
1513173639263054,-1,-1,0,0,-2,0,-1,-1
1513173639263054,-1,0,0,0,-1,0,-1,-1
1513173639279556,0,-1,-2,0,-1,0,-3,-1
1513173639279556,-2,0,-2,-1,0,-1,0,-1
1513173639281057,0,-3,-1,-2,-1,-1,1,-1
1513173639281057,0,-3,-3,0,-1,0,0,-1
1513173639302081,-1,-2,0,-1,1,-1,-1,-1
1513173639302081,1,2,-3,-3,-2,-2,-2,-3
1513173639303573,0,-1,0,0,-1,-2,-1,-1
1513173639303573,0,0,-1,0,0,-2,-1,0
1513173639316596,-3,0,0,0,-2,0,-2,-4
1513173639316596,-4,-2,0,0,-1,1,-1,-2
1513173639323090,-1,0,-2,-1,0,-1,-1,0
1513173639323090,-1,-2,-3,-2,-1,-2,0,-2
1513173639339600,-1,-1,-2,-2,0,-3,-2,-1
1513173639339600,-2,-2,-1,0,-1,-2,-1,-1
1513173639341103,-1,-2,-2,-1,-1,-1,0,-1
1513173639341103,-1,-2,-2,-1,-1,-1,0,0
1513173639362133,-2,-2,-1,-2,0,-2,1,-1
1513173639362133,-2,-1,0,0,0,0,0,-1
1513173639363634,3,3,-3,-3,-1,-1,-2,-1
1513173639363634,1,-2,-2,0,0,-2,-1,1
1513173639376134,0,0,-1,-1,-2,-2,-1,0
1513173639376134,0,-1,-2,-2,-2,-2,-1,-1
1513173639383139,-1,1,-2,-2,-2,-2,0,-2
1513173639383139,-1,-1,-2,-1,-1,1,-1,0
1513173639399641,-3,-1,-1,1,0,-1,0,-2
1513173639399641,-3,-4,1,-2,0,0,-1,-1
1513173639401152,0,1,-3,-2,-2,-1,-2,-1
1513173639401152,-1,-1,-1,-1,0,-1,-1,-1
1513173639422158,-1,-2,0,-3,-2,-1,0,1
1513173639422158,-1,0,-1,-1,-2,0,-4,-1
1513173639423658,-3,-3,0,-1,0,-2,0,-2
1513173639423658,-2,-2,1,-1,0,1,0,-1
1513173639444721,-2,-2,-3,-2,-2,-1,-2,0
1513173639444721,0,-1,-1,-1,-1,-2,1,-1
1513173639446218,-2,-3,-1,-1,-1,1,-1,-1
1513173639446218,0,0,-3,-2,-2,-2,1,-1
1513173639459726,-1,1,-2,-1,0,0,-2,-2
1513173639459726,1,-1,-4,-3,-1,-1,-1,-1
1513173639462242,-1,-1,-2,0,-2,-2,-1,0
1513173639462242,-1,0,-1,0,2,-1,-2,-1
1513173639489736,0,-1,-2,-3,-2,-1,0,-2
1513173639489736,-1,-1,-1,0,0,-1,-1,-1
1513173639491237,-5,-1,0,-1,-1,0,-1,-1
1513173639491237,-1,-1,-2,-2,-2,-1,-1,-1
1513173639496253,0,-1,0,0,-2,0,0,-1
1513173639496253,-4,-1,0,0,-2,-1,-2,-2
1513173639503246,0,-1,-1,0,1,-2,-1,1
1513173639503246,-1,-2,-1,-2,-1,-2,0,-2
1513173639520296,-4,-5,2,0,1,1,-2,-2
1513173639520296,-1,-1,0,0,-2,-3,-3,0
1513173639521808,0,-1,-1,-1,-1,-1,-1,1
1513173639521808,-2,0,0,0,-2,-1,0,0
1513173639542306,-1,0,-1,0,-1,-2,0,-1
1513173639542306,-3,-1,-2,0,-2,0,1,-1
1513173639543817,0,-3,0,0,-1,-3,-1,0
1513173639543817,-1,-1,-2,-2,-2,0,-2,-2
1513173639556315,1,-2,-4,0,0,0,-3,-2
1513173639556315,-2,-1,0,-2,0,-2,-1,-2
1513173639563331,-1,-2,-1,0,-2,-1,-1,-1
1513173639563331,0,-1,-1,0,-2,-1,-2,0
1513173639579331,1,0,-3,-2,-2,0,0,0
1513173639579331,-1,-2,-1,-1,0,-2,-2,-2
1513173639581332,1,-1,0,-1,1,0,-1,0
1513173639581332,1,-1,-3,-3,-1,-2,-1,-2
1513173639601859,-2,-3,0,-1,1,-2,0,0
1513173639601859,-1,-1,-1,0,-2,-1,0,-1
1513173639603848,-3,-2,-1,-1,0,0,-1,-2
1513173639603848,-2,1,-1,-1,-1,-2,-2,0
1513173639615866,0,0,-2,0,0,-1,-2,-3
1513173639615866,1,-1,0,-3,-2,-2,0,-2
1513173639624864,-1,0,-1,0,-1,0,0,0
1513173639624864,-1,-2,-1,0,0,-2,0,0
1513173639639373,-8,-3,2,1,-2,1,-1,-3
1513173639639373,0,-1,1,-1,0,-2,-1,-1
1513173639641374,2,-1,-3,-3,-1,0,0,-1
1513173639641374,-1,-2,1,-1,-1,-1,-1,-1
1513173639661901,-1,-2,1,-3,0,-2,0,0
1513173639661901,-1,-2,-3,0,0,1,0,-1
1513173639669918,-1,1,0,-1,0,-2,-1,-1
1513173639669918,-2,0,-3,0,-1,0,0,-2
1513173639675400,-2,0,-2,-1,-2,-2,-1,-1
1513173639675400,-1,0,0,-1,-1,-3,0,0
1513173639684908,-1,0,0,0,-1,-1,-1,-1
1513173639684908,-1,-2,-2,-1,-1,0,0,-1
1513173639699427,0,0,-3,-1,-2,0,-1,0
1513173639699427,-5,0,-1,-1,-1,-1,-1,-3
1513173639700918,-1,-2,0,-1,-1,-1,-3,-2
1513173639700918,0,0,0,-2,0,-3,-2,0
1513173639721935,0,0,-3,-3,-2,-4,-3,-1
1513173639721935,-1,-2,-4,-2,-1,-2,0,0
1513173639723433,-1,-1,-1,-1,-1,-3,0,-1
1513173639723433,0,2,-2,-1,-1,-1,-2,-2
1513173639735941,0,0,1,-1,-4,-1,0,-2
1513173639735941,0,1,-2,-3,-1,-1,-2,-2
1513173639744969,-1,-1,-2,-2,-2,-1,0,0
1513173639744969,-1,-2,-1,-1,-1,-3,0,0
1513173639759458,-1,-2,0,-1,-2,-1,0,-1
1513173639759458,-1,-1,-1,-1,0,0,-1,-2
1513173639761470,-1,-1,-1,0,-2,-1,0,0
1513173639761470,-1,-1,1,-1,0,0,-2,-1
1513173639781977,-2,-2,0,-1,-2,-1,-1,-1
1513173639781977,-2,-2,1,0,-2,0,-1,-2
1513173639783475,0,-1,-2,-3,0,0,-2,-2
1513173639783475,0,-1,-1,-2,-3,-2,-1,0
1513173639795483,-1,0,-4,-1,-1,-1,0,-1
1513173639795483,-1,-1,-3,0,-1,0,-1,0
1513173639804505,0,-2,-2,-1,0,0,0,-1
1513173639804505,-1,1,-3,-2,-2,-2,-1,1
1513173639819516,0,-1,-1,-1,-1,-2,-2,-2
1513173639819516,-2,-2,0,-2,-2,-3,-2,0
1513173639821020,0,0,-2,-1,0,0,-2,-1
1513173639821020,0,-2,-4,-3,1,-1,0,-1
1513173639842519,-3,-1,-1,1,1,-1,0,-2
1513173639842519,-2,-2,-1,-1,0,0,0,-1
1513173639843521,-1,0,-3,0,0,-1,-1,-2
1513173639843521,-2,-1,-1,-2,-1,0,-1,0
1513173639855543,-1,-2,0,0,-2,-1,-2,-2
1513173639855543,-2,-2,0,1,-2,-2,-2,-1
1513173639865033,0,-2,0,-2,-3,-1,-1,0
1513173639865033,-2,-1,0,0,1,-1,-1,-3
1513173639879555,-1,-4,-1,-1,-1,-3,-1,-1
1513173639879555,1,1,0,-2,-1,-2,-1,-1
1513173639881044,-2,-2,0,-1,-1,1,-1,2
1513173639881044,-1,-1,0,0,-1,0,-3,0
1513173639902077,-3,-2,0,-2,1,0,0,-1
1513173639902077,-1,-1,-1,-1,-1,-2,-2,-1
1513173639903562,-3,0,-2,-1,0,-2,-1,0
1513173639903562,0,-2,-1,1,-2,0,0,1
1513173639915586,-2,-2,1,-1,-2,1,0,-1
1513173639915586,-2,-3,0,0,-1,-1,-1,-2
1513173639924576,1,-1,0,0,-2,-1,-2,-3
1513173639924576,-1,-3,-3,-1,-1,-1,-1,-1
1513173639939585,-1,0,-4,-2,-1,-1,-2,0
1513173639939585,-1,1,-2,0,-1,0,-1,-2
1513173639941113,1,-1,-1,0,0,-1,0,-1
1513173639941113,0,-1,-1,0,-1,-2,-1,-1
1513173639961601,0,-1,1,-2,0,0,-3,0
1513173639961601,-2,-1,-1,-2,-1,0,-1,0
1513173639969607,-3,-2,-2,1,0,-1,-1,-1
1513173639969607,-2,-3,0,0,-2,-1,0,-1
1513173639975610,-1,0,-1,-1,-2,-2,-1,-1
1513173639975610,-1,-1,-1,-2,-1,-1,-1,0
1513173639984618,-2,-1,0,-1,-1,0,-1,-1
1513173639984618,0,-2,0,-3,-2,0,0,0
1513173639999637,-3,-2,1,-1,-2,0,-3,-2
1513173639999637,-3,-5,0,0,-1,1,1,-2
1513173640001129,-1,1,-1,-1,0,-1,-1,0
1513173640001129,-2,0,1,0,-1,-1,0,-2
1513173640021667,-2,-2,-1,-1,0,-1,1,-2
1513173640021667,0,0,0,-2,-2,-1,-3,-1
1513173640029649,-1,-2,-2,-2,-1,-2,-1,-1
1513173640029649,0,1,-1,0,-1,0,0,-1
1513173640044706,-1,1,-2,-1,-2,-2,-1,-1
1513173640044706,-2,0,-1,-1,-1,-1,-1,1
1513173640046205,0,1,-3,-2,-1,0,0,0
1513173640046205,1,-1,-2,0,-1,-1,-1,0
1513173640059704,0,2,0,-2,-3,-2,-1,-2
1513173640059704,-1,0,-2,-1,0,-1,-2,-3
1513173640061205,1,0,-2,-2,0,-1,0,0
1513173640061205,-2,-2,-2,-1,-1,0,-1,-1
1513173640081761,-1,-3,-2,-2,0,1,-2,0
1513173640081761,-5,-3,1,0,-2,-1,-2,-1
1513173640089725,2,-1,-2,-2,-1,-2,0,0
1513173640089725,-2,-2,-2,-1,-1,-2,-1,0
1513173640104735,1,-1,0,-2,-3,-1,-1,-1
1513173640104735,0,-1,-1,0,-1,-2,-1,-1
1513173640106237,1,-2,-1,0,-1,-1,-2,1
1513173640106237,-1,1,-2,-1,-3,-3,-2,1
1513173640119760,1,-1,-1,0,-3,0,-2,-2
1513173640119760,-1,0,0,-3,-2,-1,-3,-1
1513173640121259,-1,-1,1,1,-1,1,-1,0
1513173640121259,-1,-1,-1,-1,1,1,-1,-1
1513173640142262,-2,-1,0,0,0,0,-1,-1
1513173640142262,0,-1,-2,-2,-2,-1,-1,-2
1513173640143764,-3,-1,-2,0,-2,-3,0,-2
1513173640143764,0,-1,-1,0,0,1,-2,-1
1513173640171784,-2,-1,-1,0,-1,-2,0,-1
1513173640171784,-2,-1,0,-1,-1,-1,0,0
1513173640173784,0,-1,-1,-1,-2,-1,-1,0
1513173640173784,0,0,-1,-1,-1,-2,0,-1
1513173640178788,-4,-3,-1,1,-1,-2,-1,-1
1513173640178788,2,-1,-2,-1,-1,0,0,0
1513173640185794,-3,0,-1,-1,-3,0,-2,-2
1513173640185794,-2,-2,-2,-1,-1,-2,-2,-1
1513173640201804,-2,0,-1,-1,-1,-1,0,0
1513173640201804,0,1,-1,-2,-2,-1,-1,-2
1513173640203805,1,1,-2,-2,-2,-1,-2,0
1513173640203805,1,0,-2,-2,-1,-2,-1,-2
1513173640224821,0,2,-2,-3,0,-3,0,-2
1513173640224821,-2,-2,-1,-1,2,0,0,-1
1513173640226321,0,-1,-2,0,1,-1,-1,0
1513173640226321,-2,-2,-2,-2,-1,-1,0,1
1513173640238893,-1,-2,1,0,-1,-1,-1,-2
1513173640238893,-2,-2,-2,0,-3,-1,-1,-3
1513173640245395,-1,-4,-2,-1,-1,-3,0,0
1513173640245395,0,0,-2,0,-2,0,-1,0
1513173640261897,-1,-2,0,-1,0,-2,-1,0
1513173640261897,-3,-3,0,-2,0,-2,-2,-1
1513173640263398,-1,-2,-3,-2,-1,-1,-1,-1
1513173640263398,-1,0,-1,-2,-2,-2,-1,-2
1513173640284429,-3,-1,-1,0,-2,1,-2,0
1513173640284429,-5,-1,1,1,1,1,0,-1
1513173640291920,-1,-2,-1,-1,-1,-2,1,-1
1513173640291920,-1,-1,-1,-2,0,0,0,0
1513173640298936,-1,-1,-2,-3,-2,-1,-1,-3
1513173640298936,0,-1,-3,-1,-2,-2,-1,1
1513173640305428,-3,-3,0,-1,1,0,-1,0
1513173640305428,-1,-1,-1,1,1,-1,-1,-3
1513173640321957,-3,0,-2,-2,0,-2,-1,-1
1513173640321957,2,1,-1,-1,0,2,-2,-2
1513173640323441,1,2,-2,-2,-1,-3,-2,0
1513173640323441,0,-1,0,-1,-1,0,0,-1
1513173640344500,1,0,0,0,-1,-2,-1,-1
1513173640344500,1,-2,-3,-1,0,0,0,0
1513173640346000,1,-2,0,0,0,-1,-2,0
1513173640346000,-3,-2,0,-2,0,1,0,-1
1513173640358996,-1,1,-1,-1,-2,-2,-2,-1
1513173640358996,0,-3,-2,-1,0,-1,-1,0
1513173640365501,0,0,-1,-1,-1,-1,0,-1
