timestamp,emg1,emg2,emg3,emg4,emg5,emg6,emg7,emg8
1517188699283265,-2,-1,1,0,-1,-3,0,5
1517188699283265,0,1,-2,-1,0,0,0,0
1517188699283265,0,0,0,-1,-1,-3,-3,-5
1517188699283265,0,-2,-3,-1,-1,1,-2,0
1517188699297274,0,1,1,-2,0,0,1,0
1517188699297274,-3,-1,-1,-1,-1,0,-1,0
1517188699305278,-2,-3,-1,0,0,-4,-2,-3
1517188699305278,1,1,-3,1,-1,-1,0,2
1517188699320298,0,-1,-1,1,0,-1,0,-2
1517188699320298,-1,1,0,-3,-2,-2,-2,-3
1517188699320298,-1,-1,0,0,-1,2,-1,0
1517188699320298,-2,-2,0,-1,1,-2,0,-2
1517188699342307,-3,-3,-3,-1,-2,-2,-2,-1
1517188699342307,-2,-2,-1,0,-1,-1,-1,-1
1517188699343306,2,1,0,0,0,-1,-2,-3
1517188699343306,-1,-2,-2,-1,-2,0,-2,0
1517188699356314,-2,-2,-1,0,-1,1,-2,-2
1517188699356314,-4,-3,-1,-1,0,-3,-1,-1
1517188699365320,0,0,1,-2,-4,-2,-2,-2
1517188699365320,-1,0,0,-2,0,-2,-2,0
1517188699380346,1,-2,-3,-2,-1,-1,0,2
1517188699380346,-1,-2,-2,-2,-2,0,-1,0
1517188699380346,-2,-2,-2,-1,0,0,0,-1
1517188699380346,-4,-8,-3,-3,0,-1,0,-1
1517188699402347,1,5,0,-2,0,2,-2,-1
1517188699402347,0,-1,-1,0,-1,-3,0,-2
1517188699403353,-1,-1,-1,0,0,-1,2,-4
1517188699403353,-1,0,0,-2,-2,-2,0,-1
1517188699417358,-2,-2,0,-2,1,-2,0,0
1517188699417358,0,0,-1,-1,-1,2,-1,-1
1517188699418358,0,0,0,-1,0,0,-1,-1
1517188699418358,0,1,2,6,-1,0,1,1
1517188699440374,-2,0,-1,-4,1,-1,-1,-2
1517188699440374,1,0,0,-1,1,-2,-1,-1
1517188699440374,-1,-2,-2,0,-1,0,-2,-1
1517188699440374,1,1,0,-1,0,-2,-2,-1
1517188699462399,1,0,-1,2,-2,1,1,-1
1517188699462399,0,-3,-3,-2,-1,2,-1,0
1517188699463402,-1,0,1,2,-2,-1,-1,-2
1517188699463402,1,-1,-2,-5,1,-2,0,0
1517188699476423,0,0,-2,-4,-2,-2,-1,-1
1517188699476423,0,0,0,-1,0,-1,0,-2
1517188699485405,-2,-8,-2,0,-1,0,-2,0
1517188699485405,-2,-1,1,1,-1,0,-1,-2
1517188699500416,1,0,-1,5,-3,0,-2,-1
1517188699500416,-5,-1,-2,-8,-3,-1,0,-2
1517188699500416,2,-1,1,-2,-1,-1,-2,-2
1517188699500416,0,-1,-1,-1,-1,0,-2,-1
1517188699522458,-1,-3,-1,0,1,-1,-1,1
1517188699522458,-1,-1,0,5,-3,0,0,-2
1517188699523443,-2,2,0,-1,0,0,-2,-2
1517188699523443,0,0,-2,-2,-3,0,0,-2
1517188699536474,-1,-1,1,0,-1,0,-2,-2
1517188699536474,-2,0,-2,0,1,-1,0,-1
1517188699544474,0,1,0,-2,-1,-1,0,-2
1517188699544474,0,2,-1,-1,-2,-1,-1,0
1517188699559475,-1,-3,-2,0,0,-1,-1,0
1517188699559475,0,-2,-1,-1,-3,-1,-1,0
1517188699560459,-2,1,-1,-3,-1,1,-1,-2
1517188699560459,-2,-1,-1,0,2,-1,0,-1
1517188699582474,-1,1,-1,-1,-2,-1,-1,-1
1517188699582474,0,-1,-2,-1,-1,-1,-2,-2
1517188699583475,0,0,-2,-2,-1,-3,-1,0
1517188699583475,-3,-2,1,5,-1,-1,-2,0
1517188699597484,-3,-3,-2,-9,-1,-1,1,-1
1517188699597484,-1,1,1,0,-1,-2,-2,-1
1517188699599486,-1,-1,-1,-2,-1,-1,0,-2
1517188699599486,0,0,-3,-1,0,-1,-2,-1
1517188699620501,-3,-9,-3,2,0,-2,0,1
1517188699620501,-2,2,-2,0,1,-3,-2,-1
1517188699620501,-1,-1,0,-1,-1,-1,-1,-2
1517188699620501,0,0,-1,-2,-2,1,-2,-3
1517188699642541,0,-4,-1,0,-1,-2,-2,0
1517188699642541,-1,-3,-3,-2,0,-1,-1,0
1517188699643540,-2,0,0,2,0,0,-2,0
1517188699643540,-6,0,-1,-2,-2,-2,0,-3
1517188699656556,0,3,1,-1,-1,-1,1,-2
1517188699656556,-1,-2,1,-1,0,-1,0,0
1517188699664542,-1,0,1,0,-1,0,-1,0
1517188699664542,2,-1,0,-2,-1,-2,0,0
1517188699680545,0,3,-1,2,-1,-1,-2,-2
1517188699680545,-1,0,-1,0,-4,-1,0,-1
1517188699680545,-1,-2,0,-1,-1,-2,0,-1
1517188699680545,-1,-1,-2,-4,-2,-1,0,-1
1517188699702559,-2,2,1,2,-1,0,-1,-2
1517188699702559,1,1,0,0,0,-2,-2,-1
1517188699703559,0,-2,-2,3,-2,-2,-1,0
1517188699703559,0,-1,0,-5,0,0,-1,-1
1517188699716570,-1,2,-2,-4,-2,-2,1,0
1517188699716570,-2,-1,-2,-2,-1,1,-2,-1
1517188699724588,-1,-1,-1,-1,-2,-3,0,-2
1517188699724588,1,-3,0,2,-1,-1,-2,-1
1517188699739597,0,-2,1,0,-2,1,-1,-1
1517188699739597,-1,-2,-2,-2,-1,0,0,-1
1517188699740598,0,-1,-1,-2,-2,-2,-1,-1
1517188699740598,-2,1,-1,0,-2,-2,-1,-1
1517188699762624,-1,1,-3,-2,0,-2,-1,-2
1517188699762624,0,-1,-2,-1,-1,1,-2,-2
1517188699763604,-2,0,-1,0,0,-2,-2,0
1517188699763604,-2,-3,0,-1,0,0,-2,-1
1517188699776631,1,9,5,0,-3,-2,0,0
1517188699776631,2,-1,0,0,-2,-1,0,0
1517188699784618,-2,-3,-2,-4,-2,0,2,-3
1517188699784618,-2,0,-1,-2,0,-3,-1,-3
1517188699799647,0,-5,-3,-1,1,0,-3,-2
1517188699799647,0,-1,0,-1,-2,-3,0,0
1517188699800629,0,2,-2,0,0,0,-1,0
1517188699800629,0,-2,-1,-2,-1,-1,0,-2
1517188699822663,-1,-3,-3,-1,0,-1,-1,-1
1517188699822663,0,1,0,0,0,-1,-2,-2
1517188699823646,0,-2,-2,-2,-1,0,-2,-2
1517188699823646,-2,1,-2,0,0,-1,-1,-1
1517188699836654,-2,-2,-2,-2,-4,-2,-2,-2
1517188699836654,-1,-1,-2,0,-1,-1,0,0
1517188699844680,-1,0,2,-4,2,0,-2,0
1517188699844680,-1,-2,0,1,0,0,-1,0
1517188699859691,1,-1,-1,-1,0,-2,-1,-1
1517188699859691,-4,-2,-1,-1,-1,-2,-1,1
1517188699860673,-2,-1,0,1,-2,0,-2,-3
1517188699860673,-2,-2,-2,-1,-2,-3,0,-1
1517188699882697,-5,-3,0,0,0,-1,-2,-1
1517188699882697,-1,-1,1,-1,-2,-1,-1,0
1517188699883688,-2,-1,-1,0,-1,-1,-1,-1
1517188699883688,1,0,0,-2,-1,1,0,1
1517188699896760,0,-1,-1,-2,-4,0,1,-3
1517188699896760,-4,-1,-2,-3,-1,-2,-2,-3
1517188699904763,2,-4,-1,-1,-3,-1,-1,0
1517188699904763,1,-2,-2,2,-2,-1,0,0
1517188699919776,-1,4,-1,-3,1,-2,0,1
1517188699919776,-1,-12,-2,-6,-3,-1,-1,-1
1517188699920776,1,8,3,0,0,-1,0,-1
1517188699920776,0,-1,-3,-2,-1,0,-1,0
1517188699942805,-2,-2,-1,2,0,-1,-1,-2
1517188699942805,0,1,0,-1,-1,0,-1,-1
1517188699942805,0,0,-1,0,-2,-2,0,-1
1517188699942805,-1,-1,1,-2,-1,-1,0,-1
1517188699956815,0,-1,-2,-5,0,0,-1,1
1517188699956815,0,0,-1,1,1,-1,0,-1
1517188699972812,-3,-4,-2,-1,-1,0,-1,1
1517188699972812,-3,2,0,2,-1,-2,-1,-1
1517188699979816,-3,-5,-3,0,1,-2,-2,-1
1517188699979816,2,1,-2,-1,-1,-1,-1,0
1517188699980819,-1,-3,-2,-2,0,0,2,-2
1517188699980819,0,-2,0,-2,-2,-1,-1,0
1517188700002846,-1,-2,-2,0,-3,-1,-3,-2
1517188700002846,-2,-1,-1,-2,-1,1,-3,-1
1517188700002846,0,2,1,-1,-1,-1,-1,-1
1517188700002846,-2,-2,-2,-1,0,0,-1,-2
1517188700025860,0,0,-2,-1,-1,-1,1,-1
1517188700025860,0,2,-1,0,-1,-1,-2,-1
1517188700026859,0,-4,0,-2,-2,-1,0,0
1517188700026859,-1,-2,-2,-3,0,0,-1,0
1517188700039869,0,-2,-1,0,-2,-1,-2,-1
1517188700039869,-1,2,0,-2,-1,0,-2,-3
1517188700040860,-3,-3,-1,-3,-2,0,0,0
1517188700040860,1,0,-1,0,-2,-3,-1,-3
1517188700062875,1,2,-2,0,0,-1,-3,0
1517188700062875,-2,-1,-1,1,0,0,-1,-2
1517188700062875,-2,-1,-4,-1,-2,-2,-1,-2
1517188700062875,0,-1,-1,-1,-2,-2,0,-1
1517188700085896,0,-1,1,-3,-1,-1,-1,-2
1517188700085896,-1,-1,-2,-1,0,-2,0,1
1517188700085896,0,-1,-2,0,-1,-1,0,-1
1517188700085896,-3,-2,-1,-3,-2,0,0,-1
1517188700099912,-1,-1,-2,-1,-2,-2,-1,1
1517188700099912,-1,0,1,-1,0,-1,0,-2
1517188700100902,-1,0,-1,0,-1,-1,-2,0
1517188700100902,1,-1,-1,0,0,-1,-1,-2
1517188700121986,-1,-3,-1,-1,-2,-1,0,0
1517188700121986,0,-2,0,-1,-1,0,-2,-2
1517188700122982,-1,0,-3,-1,-1,0,-2,-1
1517188700122982,-1,-2,1,-4,-2,-2,-1,-1
1517188700145993,-1,-1,-3,-1,0,-1,0,0
1517188700145993,1,0,-2,-2,0,-2,0,0
1517188700145993,-1,-1,-2,-1,-2,-2,0,0
1517188700145993,0,0,0,-1,-1,0,-1,0
1517188700160017,-1,-2,-2,0,-2,1,0,0
1517188700160017,-2,0,-1,-2,-2,-2,-1,1
1517188700161004,-3,0,0,-2,-2,-2,-2,-1
1517188700161004,-1,-2,1,0,-2,-2,0,-1
1517188700182031,-1,-3,0,-1,-1,-2,0,0
1517188700182031,0,-3,0,-1,0,0,-1,-2
1517188700183021,-1,-1,0,0,1,0,0,-3
1517188700183021,-3,-1,-1,0,0,0,-2,-1
1517188700206048,-2,0,-2,-2,-1,-3,-1,-2
1517188700206048,-1,-1,-1,0,-4,-2,-1,-2
1517188700206048,-1,-1,0,1,-1,-1,-1,0
1517188700206048,-1,1,-2,-2,0,-1,-1,-1
1517188700220067,-1,0,0,-2,1,0,1,-1
1517188700220067,-1,0,1,0,-3,0,-1,1
1517188700221049,0,-3,-2,-1,0,1,-1,-1
1517188700221049,-1,-1,0,1,-2,-2,-3,-4
1517188700242100,0,-2,-1,-1,-1,0,-1,-1
1517188700242100,0,0,-2,-3,-1,-1,-1,-1
1517188700243063,-3,-2,-1,-1,-2,-2,-1,0
1517188700243063,0,-1,-2,0,0,-3,0,-1
1517188700266088,-1,-1,-1,-1,-2,-2,1,-1
1517188700266088,-3,-1,-1,-2,0,-2,-2,-2
1517188700266088,-1,0,-1,-1,-1,0,-1,-1
1517188700266088,-2,-2,-1,-2,-2,0,-2,-1
1517188700280089,-2,-1,-1,1,0,0,-2,-2
1517188700280089,0,-3,-3,-1,0,1,0,0
1517188700281089,-1,-1,-2,-2,-1,-2,-1,-2
1517188700281089,-3,-2,-2,-1,-2,0,-1,-1
1517188700302114,0,0,0,-1,0,1,-2,-2
1517188700302114,-1,-1,-3,1,0,-1,-1,-2
1517188700303105,-2,-1,1,0,0,0,-3,0
1517188700303105,0,0,-3,-1,-2,-1,0,-1
1517188700326132,-1,-1,-1,-3,-2,0,-2,1
1517188700326132,-2,0,-1,0,-2,-2,-2,-2
1517188700326132,-1,-2,-2,-2,-2,0,-2,1
1517188700326132,-1,0,0,0,1,-3,-1,0
1517188700348137,-1,0,-2,0,-2,-1,-1,-2
1517188700348137,-1,-2,0,-1,-2,-1,1,0
1517188700349138,-1,-1,-1,-3,-1,1,0,-2
1517188700349138,-1,-3,0,-1,-1,1,-1,-1
1517188700362171,-1,-2,-2,-1,-2,-2,0,0
1517188700362171,0,-1,0,-1,0,-1,0,-1
1517188700363148,0,0,-2,0,-1,0,-1,0
1517188700363148,0,-2,-1,0,0,0,-1,-1
1517188700386170,0,-1,-1,-1,-2,-1,1,-1
1517188700386170,-1,0,-1,-1,-2,-2,0,-2
1517188700386170,-1,0,-1,0,-1,-4,-2,-1
1517188700386170,-1,-1,-2,-2,1,-1,0,-1
1517188700400184,-1,-1,-1,-1,0,0,0,0
1517188700400184,-2,-2,-1,-1,-2,0,-1,-1
1517188700401174,-1,-1,0,-2,-3,-1,-1,-1
1517188700401174,0,1,-1,0,-2,0,2,-2
1517188700422202,-1,0,-1,-1,-1,0,-3,-1
1517188700422202,-1,-2,-2,-1,0,-1,-1,-2
1517188700423189,-1,-2,0,-1,-1,-2,0,-1
1517188700423189,-2,0,-1,0,-1,1,0,-2
1517188700446227,-2,-2,-1,-3,-1,-2,0,1
1517188700446227,0,-1,-2,-2,-2,-1,-1,1
1517188700446227,0,-2,-1,-2,-1,0,-1,-2
1517188700446227,-1,-1,0,-1,-2,-3,-3,-1
1517188700460229,0,1,0,1,-1,-2,-2,-1
1517188700460229,-2,1,-1,-1,-1,0,-2,1
1517188700461230,-1,-1,-1,-1,-1,-2,-1,-1
1517188700461230,0,-1,-2,-3,-1,-2,-2,-1
1517188700482244,-2,-2,-2,-3,-2,-2,-1,-3
1517188700482244,-1,-1,0,-1,-1,-2,-3,0
1517188700483232,0,0,-1,0,-2,-1,0,0
1517188700483232,-1,-1,-2,-1,-1,1,1,-1
1517188700505257,0,0,-1,2,-1,-2,1,0
1517188700505257,1,-1,-3,-1,-1,0,1,-2
1517188700506248,0,-3,-2,-1,0,-3,1,-1
1517188700506248,-2,1,-1,-4,-1,-2,-2,-1
1517188700520259,-1,-1,-1,-2,-1,0,-2,-3
1517188700520259,-1,-2,-1,-2,-2,-1,0,0
1517188700521260,0,-3,0,0,0,0,0,-2
1517188700521260,-1,-2,-1,0,0,-1,-2,-1
1517188700542294,-2,0,-1,-3,-1,0,-2,0
1517188700542294,-1,1,1,-1,-1,-1,-1,0
1517188700543276,-1,-1,0,-1,-1,0,-3,0
1517188700543276,-1,-3,-2,0,-1,0,0,0
1517188700565293,0,-1,-2,0,-3,-1,0,0
1517188700565293,-2,0,-1,-1,0,-1,2,0
1517188700566290,0,1,-1,-2,-1,-1,-3,-2
1517188700566290,0,-1,-1,-1,-1,-2,-1,-1
1517188700580310,-1,-1,-1,0,-2,-1,-1,-1
1517188700580310,0,-3,1,0,0,-1,-2,-2
1517188700580310,-1,-1,-4,-1,0,0,0,-1
1517188700580310,-1,-1,-1,-1,-2,-1,-1,-2
1517188700602326,-1,-3,-2,-2,0,1,-2,-2
1517188700602326,-1,0,-2,-1,-1,0,-2,0
1517188700603316,-1,-2,0,-2,-1,-2,-1,0
1517188700603316,-2,-2,-1,0,-2,-2,0,1
1517188700625342,-1,-2,-1,-2,0,-2,-1,-1
1517188700625342,-2,0,-1,0,-2,0,-3,0
1517188700626349,0,0,1,-2,-2,0,0,-1
1517188700626349,1,0,-2,0,0,0,1,-1
1517188700639345,0,1,0,1,0,-2,-2,-1
1517188700639345,0,-1,-1,-2,-2,-2,-1,-2
1517188700647349,0,-1,0,-1,-2,-3,-1,1
1517188700647349,1,-1,1,-1,0,-1,-2,-2
1517188700662381,0,-2,-1,-1,0,0,0,-1
1517188700662381,-1,-2,0,-3,-2,0,-2,-1
1517188700663367,-2,0,1,0,-2,0,0,-1
1517188700663367,-3,-1,-1,-3,0,0,-2,1
1517188700685386,0,0,-1,-1,1,-1,-1,-1
1517188700685386,0,-2,0,-2,-1,-1,0,-1
1517188700686377,-1,0,-1,-2,-1,0,-1,-2
1517188700686377,0,2,1,-2,-1,-1,-4,0
1517188700699397,-1,2,-2,-1,-2,-3,0,0
1517188700699397,-1,-1,-2,-1,1,-1,-2,-2
1517188700707402,-2,0,0,0,-1,1,1,-1
1517188700707402,-1,-1,0,-2,-1,-1,-1,0
1517188700722411,-2,0,-2,-2,-1,0,1,-1
1517188700722411,0,1,-2,-1,1,0,-3,0
1517188700723402,-1,0,-1,0,-1,-2,-1,-2
1517188700723402,-1,-1,-2,-2,-3,0,-1,-1
1517188700745418,-1,-4,-1,1,-2,-3,-1,-1
1517188700745418,0,-2,-1,-1,-2,-2,0,0
1517188700746420,-1,-1,-1,-1,2,0,-2,-1
1517188700746420,-1,-1,-1,-2,0,1,-1,0
1517188700768435,-1,-2,-1,-4,0,0,0,0
1517188700768435,-1,0,-1,-1,-1,-3,0,-1
1517188700768435,-1,-1,-2,-1,-2,-5,0,-2
1517188700768435,-2,-2,-2,1,-1,-4,0,-2
1517188700782444,-1,-1,-4,0,1,-2,-2,0
1517188700782444,-1,-2,-2,-1,-2,-1,-1,-1
1517188700783453,-2,-1,0,-2,-2,-2,-3,0
1517188700783453,-1,-1,-1,-2,-2,0,-1,-1
1517188700805485,-2,0,-1,-1,-3,-2,0,0
1517188700805485,-1,-1,-2,0,-2,0,0,-2
1517188700806466,-2,0,-1,0,-1,-2,-1,0
1517188700806466,-2,-1,-2,-1,-1,-2,-1,-1
1517188700819473,-1,-1,0,0,-3,-1,-2,-1
1517188700819473,-2,1,-1,-2,-2,-1,-1,-1
1517188700827493,-1,-1,-2,-1,-2,0,-1,0
1517188700827493,0,-1,-3,-1,-1,-2,-1,-1
1517188700842500,-1,-1,0,0,-1,-1,1,-2
1517188700842500,1,0,0,-1,-1,-1,-1,-1
1517188700843499,-1,0,-2,0,0,0,-2,-1
1517188700843499,-1,-1,0,0,-2,-2,-1,2
1517188700865502,-1,-2,0,-1,1,0,-2,0
1517188700865502,0,1,0,-1,-1,0,-1,-2
1517188700866503,0,-1,-1,-1,-1,-1,-4,-1
1517188700866503,-1,0,0,-1,-2,-2,-1,-1
1517188700879513,0,-1,-1,0,-4,-2,-1,-1
1517188700879513,-2,-2,-1,0,-1,0,-1,-1
1517188700887527,0,0,-2,-1,-1,-2,-1,-1
1517188700887527,-2,-3,-1,1,-1,-1,0,-1
1517188700902542,1,0,0,-2,-1,-1,0,-1
1517188700902542,-1,-1,-3,-1,-1,-1,0,2
1517188700903543,-2,-3,-1,-1,0,-1,1,-1
1517188700903543,0,-1,-1,-2,1,0,-2,-1
1517188700925555,-1,1,0,0,-1,-1,-4,-2
1517188700925555,0,-2,0,1,-1,0,-1,0
1517188700926555,0,-2,-1,-1,-1,0,0,-1
1517188700926555,0,1,-1,-1,-1,0,-1,-1
1517188700948561,0,-1,-2,-2,0,-1,-1,0
1517188700948561,-1,-3,-1,-1,-1,-2,0,-1
1517188700948561,-1,-1,-1,0,0,-1,-2,-1
1517188700948561,-1,0,-2,-1,-1,-1,-1,-1
1517188700962582,0,-1,-1,-1,-1,-1,0,-1
1517188700962582,0,-1,-1,-2,-2,0,0,-1
1517188700963575,0,1,0,-1,-1,1,-1,-1
1517188700963575,-1,-1,0,-1,-1,-1,-2,0
1517188700985591,-2,0,-3,-1,0,-1,-2,-2
1517188700985591,-1,0,-1,1,0,-1,1,-2
1517188700986588,-1,-1,0,0,0,-1,-2,1
1517188700986588,0,-1,-1,-3,-1,-2,-1,-2
1517188701008622,-1,-3,-2,-3,-1,-1,0,0
1517188701008622,-2,-3,-1,-2,0,0,-2,-1
1517188701008622,-2,0,0,-2,-1,0,-2,-1
1517188701008622,-3,-1,-1,0,0,-1,0,-1
1517188701022632,-1,0,0,1,0,1,-1,-1
1517188701022632,-1,-1,-2,-1,-1,-1,-2,-1
1517188701023616,1,-2,-1,-3,0,-1,0,-1
1517188701023616,-1,-2,-2,-1,-1,-3,-1,0
1517188701045640,-3,-1,-1,-3,-1,0,-1,-2
1517188701045640,-2,0,1,-1,-2,-1,-1,-2
1517188701046631,-3,-3,-2,0,-2,1,-1,-3
1517188701046631,-1,0,0,0,0,-2,0,-1
1517188701068658,-1,-2,-1,0,2,-1,-2,0
1517188701068658,-1,-1,-1,0,-2,0,-3,-1
1517188701068658,-1,-1,-3,-2,-2,-4,0,0
1517188701068658,-2,-2,-2,-1,0,1,-1,-1
1517188701082695,-1,-2,-1,-1,-2,-1,0,-1
1517188701082695,0,-1,-2,-2,-4,0,0,0
1517188701083700,-1,-2,-1,-1,0,0,0,-1
1517188701083700,1,-1,-2,-1,-1,-1,-1,0
1517188701105728,-2,1,0,1,1,-1,0,-3
1517188701105728,-1,0,0,-2,-1,-1,-2,-1
1517188701106715,0,1,0,0,-2,-1,-2,-1
1517188701106715,-2,0,-2,-2,-1,-2,0,-2
1517188701127741,-2,-1,-2,-1,-3,-2,-1,-1
1517188701127741,-2,-2,-1,1,0,-2,-2,-1
1517188701128741,-1,-3,-3,-1,-1,-2,-2,0
1517188701128741,-1,0,-1,-2,0,1,-1,-1
1517188701142761,0,-2,-2,-2,-1,-2,-2,1
1517188701142761,0,-1,-1,-2,1,-1,-2,-1
1517188701143749,-1,-1,0,-1,-3,0,-1,1
1517188701143749,0,-1,-3,-1,0,-2,-1,-1
1517188701165766,0,-1,-1,-1,-1,0,1,-1
1517188701165766,-1,0,-1,0,-2,-2,0,-1
1517188701166765,-1,-1,0,-1,-2,-1,-1,-2
1517188701166765,-1,-1,-1,-1,-1,0,-2,-2
1517188701187781,-2,-1,-2,-2,1,0,-2,-3
1517188701187781,1,0,-1,-1,-3,-3,0,0
1517188701188770,-2,1,-1,0,0,-2,0,0
1517188701188770,-1,-2,0,-2,-2,-1,0,-1
1517188701202838,0,-1,1,-2,0,0,-1,-1
1517188701202838,-1,-1,0,-1,1,-2,0,-2
1517188701202838,0,-1,-2,-1,-1,0,-2,-2
1517188701202838,0,-2,0,1,-1,-1,-1,0
1517188701225866,-2,-1,0,-1,-1,-2,-1,-2
1517188701225866,0,-1,-1,1,-2,1,-2,0
1517188701226855,-1,-1,-2,-2,-1,-3,-1,-3
1517188701226855,-1,-2,-1,-1,-1,-1,-2,-1
1517188701247869,-1,-3,-1,-1,-4,-1,-1,-1
1517188701247869,-1,0,-1,-1,1,1,-1,0
1517188701249872,-2,-2,-1,-1,-1,-2,-2,-3
1517188701249872,0,-1,0,-3,-1,-3,-2,-1
1517188701261894,-1,-2,-2,-1,-2,-2,0,1
1517188701261894,-1,-1,1,-1,-1,-4,-2,-1
1517188701270886,0,0,-1,-1,0,1,0,0
1517188701270886,-1,-1,0,0,-1,0,-2,-1
1517188701285907,0,0,-1,0,-3,1,-1,0
1517188701285907,-2,-2,-2,-1,-2,0,-2,-1
1517188701286898,-2,-2,1,-1,-1,0,0,-1
1517188701286898,-2,-2,-2,0,-1,-2,-2,-1
1517188701307926,-1,0,-2,-3,-1,-1,-1,-1
1517188701307926,1,-3,1,0,-3,-2,0,-2
1517188701309924,-2,1,-1,0,-3,-1,-1,-1
1517188701309924,0,1,-1,-1,-2,0,2,-1
1517188701321932,0,-1,0,0,0,-2,0,-1
1517188701321932,-3,-1,0,-2,-3,-1,-1,-3
1517188701330940,-1,-2,-1,-2,-3,-2,-2,-1
1517188701330940,1,0,-3,-1,-3,0,-1,-1
1517188701345939,-1,-1,-2,0,1,-2,-2,-2
1517188701345939,-2,0,-1,-1,1,0,-1,-1
1517188701346941,-2,-2,1,0,0,-3,0,-1
1517188701346941,-3,-1,-1,1,-1,0,-1,-2
1517188701367957,-1,-2,0,0,-2,0,-1,0
1517188701367957,-2,0,-2,-1,-1,-1,-1,1
1517188701369957,0,1,-3,-1,-1,-1,-2,-1
1517188701369957,-2,-2,-1,0,1,1,-1,0
1517188701381975,-1,-1,0,-1,-2,1,-1,-3
1517188701381975,-1,0,-2,0,-1,0,-3,-2
1517188701390971,1,-1,-1,-1,-1,0,0,-2
1517188701390971,0,1,-1,-1,-1,0,0,-1
1517188701405996,0,0,0,0,-1,0,-1,-2
1517188701405996,-2,1,-1,-2,-1,0,-2,1
1517188701406984,-1,0,0,-1,-2,-1,-2,0
1517188701406984,0,-3,-2,-1,0,-1,-2,-3
1517188701428007,-1,-2,-2,-1,0,-1,-2,-2
1517188701428007,-2,-2,0,0,-1,0,1,-2
1517188701430011,-2,0,-1,-1,-1,-1,1,0
1517188701430011,-2,0,-1,-1,-1,-3,-2,0
1517188701442021,-2,-2,-3,-2,-2,0,0,-1
1517188701442021,2,-1,-3,0,1,0,-1,0
1517188701451014,-1,0,-1,-1,0,0,0,0
1517188701451014,0,-1,-1,1,-1,-1,-1,-2
1517188701466034,-1,-1,-2,0,1,-1,0,0
1517188701466034,0,-3,0,-1,-1,-2,0,0
1517188701467026,-1,-2,-1,-2,-1,-1,0,-1
1517188701467026,-3,0,-2,-2,-1,-4,-2,-1
1517188701488050,-2,1,0,-3,-1,1,-3,-1
1517188701488050,-1,-1,-2,-4,-1,-2,-1,0
1517188701490058,-2,0,1,0,1,0,-3,0
1517188701490058,-1,-1,-3,-2,-2,0,0,-2
1517188701502056,1,-1,-2,0,-2,-3,0,-3
1517188701502056,-2,-1,-2,1,-1,-1,0,-2
1517188701511066,0,-2,-1,0,0,-1,0,0
1517188701511066,0,1,-1,-1,-2,0,0,1
1517188701526076,-2,-2,-2,-2,-1,1,-1,0
1517188701526076,-1,-1,-1,0,-1,1,0,-2
1517188701527068,0,0,-2,-2,-1,-1,-1,-1
1517188701527068,-2,-3,1,-2,0,0,-1,-1
1517188701548083,0,-1,2,-1,0,-3,0,1
1517188701548083,0,-1,-1,-2,0,-2,-1,-1
1517188701550093,-1,-2,-2,-2,-2,-1,-2,0
1517188701550093,-2,-1,-2,0,-2,-1,-1,-1
1517188701562102,-1,0,0,-2,-1,-1,-1,0
1517188701562102,0,0,-1,-1,-1,-1,-1,-3
1517188701578104,-1,-4,1,0,-2,0,-2,-1
1517188701578104,0,-2,-3,-4,-2,-1,0,-2
1517188701586108,1,-1,-2,-2,0,-1,-2,-2
1517188701586108,0,-1,1,-1,-3,-3,-3,-1
1517188701587110,-1,-1,-2,0,-2,-1,0,-1
1517188701587110,0,-1,0,1,0,-1,-1,1
1517188701608139,0,-1,-1,0,-2,-2,-1,-2
1517188701608139,-3,0,-1,-1,-2,-1,-1,-4
1517188701610140,-2,-2,-1,-1,-1,-2,-3,-2
1517188701610140,-2,-2,0,-1,-1,0,0,-2
1517188701622136,-2,-1,-1,1,-1,0,-1,-1
1517188701622136,-1,-1,-1,-1,0,-1,0,0
1517188701631140,0,-1,0,-1,-2,-4,-2,-1
1517188701631140,-1,0,-1,-1,-1,1,0,1
1517188701646151,-1,-1,-2,0,0,0,-1,0
1517188701646151,-2,-2,-2,-1,-2,0,-1,-1
1517188701647153,0,0,-2,-1,-1,1,-1,-1
1517188701647153,0,-2,-1,-1,0,-2,-2,-2
1517188701668177,-1,-1,-2,-1,-1,-2,-2,1
1517188701668177,0,0,0,-1,0,-1,-1,-1
1517188701670179,-1,-1,-2,1,-2,-1,1,-1
1517188701670179,-1,0,-1,-1,-1,-2,0,-2
1517188701682178,-1,-2,0,-1,-2,-2,-1,-2
1517188701682178,0,-2,-1,0,0,-1,-2,0
1517188701691183,-2,-3,-1,-1,-2,0,-1,-2
1517188701691183,0,0,-1,-3,0,-1,-1,-2
1517188701705195,0,-1,-1,-1,-1,-2,-2,-2
1517188701705195,0,0,-1,-1,1,-2,0,1
1517188701707208,-1,0,-1,0,0,-2,-2,0
1517188701707208,-1,-1,-1,-2,-1,0,-2,0
1517188701728219,-2,-1,-1,-1,1,0,0,0
1517188701728219,-3,0,-1,-2,-2,-3,-1,-3
1517188701730212,-2,0,-2,-1,-1,-2,0,-1
1517188701730212,-2,-1,-2,0,-2,-1,0,1
1517188701742228,-2,1,1,-1,-2,-1,-2,1
1517188701742228,-1,-1,0,-2,-2,-2,-1,-2
1517188701751225,-1,-1,0,-3,1,0,0,-2
1517188701751225,-1,-1,1,0,0,-3,0,-2
1517188701765236,-1,-2,-2,-2,-1,0,-1,-1
1517188701765236,0,-1,-1,0,-1,0,-2,1
1517188701767237,0,-2,-2,0,-1,0,-1,-1
1517188701767237,-1,-1,0,-2,0,-2,0,-2
1517188701789252,-2,0,-3,-2,-1,0,-2,-2
1517188701789252,0,-1,0,1,0,0,-2,-2
1517188701790254,1,0,-1,-2,0,-2,0,0
1517188701790254,-1,-1,-2,0,-2,0,0,-1
1517188701801260,0,0,-3,-2,0,-2,-1,0
1517188701801260,0,-2,-1,-2,-1,-1,-1,1
1517188701811268,0,-2,-1,-1,-1,-1,-1,-1
1517188701811268,-1,-1,-2,0,-1,-3,0,0
1517188701825277,-2,-3,0,-1,-2,-1,0,0
1517188701825277,-1,-2,0,0,-2,0,0,-2
1517188701827280,-2,-4,-1,1,-2,-1,-1,-1
1517188701827280,1,2,-1,-1,-3,0,-1,-2
1517188701848295,0,-1,-2,1,0,-1,-2,-1
1517188701848295,-1,-1,0,-1,-1,-1,-1,0
1517188701849296,-1,2,0,-3,-1,-1,-3,0
1517188701849296,-1,-2,-2,-1,-3,-2,0,-1
1517188701862304,0,-1,-3,-1,-2,-1,-2,-1
1517188701862304,-1,0,-1,0,0,-1,0,0
1517188701870313,0,-2,0,-2,0,-1,0,0
1517188701870313,-1,-1,1,-1,-1,-1,0,0
1517188701885381,-3,-1,0,-1,-1,-2,1,1
1517188701885381,-1,0,-2,-3,-3,-1,-1,-1
1517188701887379,-1,1,-2,-1,-1,-2,0,-1
1517188701887379,-1,-1,-3,-1,0,-1,-2,-2
1517188701915386,0,-2,0,-1,-2,-2,-1,-2
1517188701915386,-1,-1,0,-1,-1,-3,0,0
1517188701917388,-2,-1,-1,0,-1,-3,-1,-1
1517188701917388,-2,-2,-3,-2,-1,0,0,-1
1517188701930414,0,0,-1,-1,-2,1,-2,-1
1517188701930414,0,0,-1,0,-2,0,-1,-2
1517188701932408,-1,0,0,-2,-1,-2,-1,1
1517188701932408,-2,-2,0,-1,-1,-2,-1,0
1517188701945417,-2,0,2,1,0,-1,-1,1
1517188701945417,-1,-1,-2,-1,-1,-4,0,-1
1517188701947409,0,-1,-1,-1,0,-1,-1,-2
1517188701947409,0,-1,-1,-2,-2,0,-3,-1
1517188701968424,-1,-2,-2,-2,-3,1,0,-1
1517188701968424,-2,-3,1,-1,-3,-1,-1,-1
1517188701969426,-3,-1,0,-1,-1,1,-1,-1
1517188701969426,0,0,-2,-2,-1,-1,0,-2
1517188701990440,1,1,-1,-1,2,-4,-1,-1
1517188701990440,1,-2,1,-2,0,1,-2,-2
1517188701992441,-1,-1,-1,-2,-1,0,0,-2
1517188701992441,-1,-2,-3,-1,2,-2,0,1
1517188702005485,-2,-1,-1,0,-3,-2,0,-2
1517188702005485,-1,-1,0,0,-2,-1,0,0
1517188702007489,0,0,0,0,0,2,-3,0
1517188702007489,-2,0,0,0,1,-1,-2,-1
1517188702028476,-2,0,-2,-2,0,-2,-2,-2
1517188702028476,0,-1,-2,0,0,-1,0,-1
1517188702029467,-2,0,-1,-1,-2,1,-1,0
1517188702029467,0,-1,0,-1,-2,-2,-1,-1
1517188702050482,-1,-1,-1,-1,-1,0,-1,-1
1517188702050482,-2,0,-1,-1,-2,1,0,-3
1517188702052484,-1,0,-2,0,-1,-3,-1,-1
1517188702052484,-1,-1,0,-2,0,0,-2,0
1517188702073515,0,-3,-1,-1,-1,1,-1,1
1517188702073515,0,-1,0,1,0,-2,-3,-2
1517188702074500,1,-2,-3,-2,-3,1,0,-2
1517188702074500,-3,0,-3,-2,-2,-2,0,-3
1517188702088529,-1,-2,-1,0,0,-1,-1,-3
1517188702088529,1,-1,-1,-1,-2,-1,-1,2
1517188702089519,-1,-3,-1,-1,0,-4,-2,0
1517188702089519,-1,1,-1,-1,0,-2,-1,0
1517188702110534,0,-2,-2,0,1,-1,-1,0
1517188702110534,-2,0,-1,-2,-4,1,-1,-1
1517188702112526,-1,-1,-1,-2,0,-2,-1,0
1517188702112526,0,-2,-1,-2,-1,-2,-1,-2
1517188702124606,-2,1,1,-1,-3,1,-1,0
1517188702124606,0,0,0,-1,-1,-1,0,0
1517188702131540,-1,-2,-1,-1,-2,-1,0,0
1517188702131540,0,0,0,1,0,-1,-1,-1
1517188702147551,-2,-3,-1,-3,-2,0,0,-2
1517188702147551,-2,-1,-1,-1,2,0,-1,0
1517188702149553,-1,-2,-1,-1,-1,0,-2,-2
1517188702149553,-1,-3,-1,-1,0,-2,-1,0
1517188702170577,-1,-1,-2,-3,-2,0,0,-1
1517188702170577,-2,0,0,0,-1,0,-2,-1
1517188702172591,-1,-1,-2,0,0,0,-1,0
1517188702172591,0,0,0,0,-3,-1,-1,0
1517188702184577,0,1,-2,0,-1,-2,-2,-1
1517188702184577,1,0,-2,-3,0,-1,-1,-2
1517188702191599,-1,0,-2,1,-1,-2,1,0
1517188702191599,-2,-1,-2,0,-1,-2,0,-1
1517188702208604,0,-3,-1,0,0,-1,-2,-1
1517188702208604,-2,-1,-3,-1,2,0,-2,-1
1517188702209594,-2,0,1,-1,-1,-1,-1,-1
1517188702209594,-1,-1,-1,-3,-1,1,-1,-3
1517188702230612,-2,-2,0,0,0,-2,-1,-1
1517188702230612,-1,-3,-1,-1,0,-3,1,-1
1517188702232628,-1,-1,-2,-2,-3,-1,0,-2
1517188702232628,0,0,-1,1,-2,0,0,0
1517188702245631,0,2,-1,-5,-1,-2,0,-1
1517188702245631,0,-2,-1,-1,0,0,-2,0
1517188702251625,-1,-1,-1,-2,-1,-1,0,0
1517188702251625,0,0,-1,1,0,0,-3,0
1517188702268637,0,-1,-1,2,-1,-1,-1,-1
1517188702268637,-1,-1,1,-1,-3,-1,1,0
1517188702269637,0,1,-1,-1,1,0,-2,-1
1517188702269637,-1,-2,-1,-3,-2,1,-2,0
1517188702290705,-2,-1,-1,-3,-1,0,-1,0
1517188702290705,0,0,0,-2,1,-3,-2,0
1517188702292719,-1,-2,-1,-1,-2,0,0,-1
1517188702292719,-1,-1,-2,-2,-1,-1,-1,-1
1517188702313722,-1,-2,-2,-2,-2,-1,-1,-1
1517188702313722,-2,-1,-1,0,-2,0,0,-2
1517188702314720,0,0,-1,-2,1,-1,-1,-2
1517188702314720,-2,-1,-1,1,0,-2,0,1
1517188702327753,-2,-2,0,-1,0,-1,-1,-2
1517188702327753,-1,1,-1,-2,0,-2,-1,-2
1517188702329731,0,0,0,-3,-1,0,-1,0
1517188702329731,-2,-1,-1,-3,-3,-2,0,-2
1517188702350746,0,0,0,0,-1,-5,-1,1
1517188702350746,-2,-2,0,1,-3,1,-1,-1
1517188702351747,0,-3,-4,-1,-1,-2,0,-1
1517188702351747,0,-1,-1,-1,0,-1,0,-1
1517188702364757,-1,-1,0,-1,1,-2,-3,-1
1517188702364757,1,0,-1,-1,-3,-2,-2,-1
1517188702371776,-2,-1,-1,-1,-1,0,-2,-3
1517188702371776,-1,-2,-1,0,0,-2,0,-1
1517188702387772,-1,-2,-2,-2,-1,0,-1,0
1517188702387772,-2,0,-2,-1,-1,0,-1,-1
1517188702389773,0,-2,-1,0,-1,-1,-2,0
1517188702389773,-1,0,-2,-1,0,0,0,-1
1517188702410789,1,-2,0,-2,-1,0,-1,-2
1517188702410789,-2,-1,-1,0,-1,0,0,0
1517188702411789,1,-1,-3,-1,1,-1,-2,-1
1517188702411789,-1,-1,0,-2,0,-2,-1,-2
1517188702424798,-1,-1,1,0,-2,0,1,-1
1517188702424798,0,-1,-2,-1,-2,-2,-1,0
1517188702432804,-1,-1,0,0,-1,-1,-1,-2
1517188702432804,-1,0,-1,-2,-1,-2,-2,-3
1517188702447816,-1,0,-1,0,0,1,0,-2
1517188702447816,-1,-2,0,-1,-2,-1,-3,0
1517188702449816,-1,-1,-3,-2,0,-1,0,-1
1517188702449816,0,0,-1,-2,-1,-2,0,-2
1517188702470830,0,-1,0,-1,-4,0,-1,-2
1517188702470830,-1,2,-2,-2,-2,0,-2,-1
1517188702471832,-1,0,-1,-1,-1,0,-2,0
1517188702471832,-3,-1,-1,-1,-2,-1,-3,-1
1517188702483840,-1,-1,-2,0,-1,0,-1,0
1517188702483840,0,-1,-1,-1,1,-1,0,-1
1517188702492846,-2,-1,1,-2,-1,-2,-1,-3
1517188702492846,0,-1,-1,0,0,-1,-1,-2
1517188702507858,-1,-1,-1,0,0,0,-2,0
1517188702507858,1,-2,0,0,0,-2,-1,-1
1517188702509858,-2,0,-2,-2,-2,-2,-1,-2
1517188702509858,-1,0,-1,-1,-2,2,-3,-1
1517188702530873,0,0,-1,-2,-2,-1,-2,-1
1517188702530873,-1,0,0,0,0,0,-1,0
1517188702531873,-1,-2,1,-2,0,-2,0,-1
1517188702531873,0,-2,-1,0,-1,-1,-2,-1
1517188702543894,-1,-1,-1,-3,-1,-1,0,0
1517188702543894,-1,-3,-2,-1,-1,-2,-1,-2
1517188702553889,0,-1,0,0,-1,-1,-1,-2
1517188702553889,0,-1,-1,-2,-2,-2,1,0
1517188702567899,-3,0,-2,-1,0,0,-2,-1
1517188702567899,1,0,-1,-1,-2,-1,0,-1
1517188702569901,-1,-2,0,0,-2,1,1,-1
1517188702569901,1,-2,0,0,-1,2,1,-2
1517188702590925,1,-1,-1,0,-2,-2,-1,-1
1517188702590925,-2,-1,0,0,-1,-1,-1,0
1517188702591916,0,-2,-1,-3,-2,-3,-2,0
1517188702591916,-2,-1,-2,-1,0,-1,0,-1
1517188702603934,-2,-1,-1,-1,-1,-2,0,0
1517188702603934,-2,0,-1,-1,-3,2,-1,-1
1517188702612931,-2,0,-1,0,-1,0,0,0
1517188702612931,-2,-4,-2,-1,-1,0,-2,-1
1517188702627943,0,0,1,-1,0,-1,-1,-1
1517188702627943,0,-1,0,-3,0,-3,0,-2
1517188702629951,-2,-1,-1,-2,-3,-2,-2,-2
1517188702629951,-1,-2,-2,-3,-2,-1,0,0
1517188702650968,-1,-1,-1,-1,0,-2,0,-1
1517188702650968,-1,0,-1,-1,-1,1,-2,-1
1517188702651958,-1,-2,-1,0,-2,-1,-3,-1
1517188702651958,-1,-3,-2,-2,-3,0,0,0
1517188702663967,-1,-1,0,0,-2,-2,1,-1
1517188702663967,-1,-2,-1,-2,0,-1,-2,0
1517188702672985,-2,-1,0,0,0,-2,-1,-1
1517188702672985,0,1,0,-1,-1,0,-1,0
1517188702687984,0,-2,-1,-2,-1,0,-2,-1
1517188702687984,-2,-1,0,0,-1,1,2,0
1517188702690001,1,-1,0,-2,1,0,-1,0
1517188702690001,0,0,-2,0,0,-3,-1,-2
1517188702711025,0,-1,-2,-2,-3,-1,-4,-2
1517188702711025,-1,1,-3,0,-3,-3,0,-1
1517188702712002,-1,-1,-2,-1,-1,-1,2,0
1517188702712002,-3,-1,-1,-2,-1,0,-2,-2
1517188702724010,-1,-1,-2,-1,-1,-2,-1,-3
1517188702724010,0,-1,0,-2,0,-2,-3,-2
1517188702733026,0,0,-1,-1,-3,-1,-1,-1
1517188702733026,-1,1,-1,-2,-1,0,-1,-1
1517188702748028,0,-2,0,-1,-2,-1,0,-2
1517188702748028,0,-3,-1,-1,-2,-3,-2,-2
1517188702750042,-1,1,0,1,0,0,0,-1
1517188702750042,-2,-2,0,0,-2,-1,0,0
1517188702771043,-3,-2,-3,-3,-1,0,-3,-1
1517188702771043,2,-2,-1,-1,-2,-1,0,1
1517188702772044,0,5,-1,-1,0,-1,-1,-3
1517188702772044,1,0,-4,-1,-1,-2,-1,-2
1517188702784053,0,0,-1,2,-3,-1,1,-1
1517188702784053,0,-2,-1,-1,-1,-2,-3,-2
1517188702793060,-1,-2,-3,-1,-3,0,-1,-2
1517188702793060,-3,-1,1,-1,0,-2,-1,-2
1517188702807120,-2,-2,0,-2,0,-2,-1,1
1517188702807120,0,0,0,0,0,-1,-1,-1
1517188702814073,-2,-4,-3,-2,0,-1,-2,0
1517188702814073,0,0,-1,0,-1,0,-2,0
1517188702831085,-2,-2,0,-1,-1,-1,-1,0
1517188702831085,-2,0,-1,0,-2,-1,-1,-1
1517188702832087,-2,0,-1,-1,-1,-2,-1,-1
1517188702832087,-1,-1,-2,-1,0,-2,-1,-2
1517188702853111,-1,-1,-1,-1,-1,-1,0,0
1517188702853111,0,-2,-2,0,-2,-1,-1,0
1517188702855103,-1,-2,0,-1,0,0,-1,-1
1517188702855103,-2,-1,-2,-1,-1,-2,0,-2
1517188702868121,-1,2,0,0,-2,1,1,-1
1517188702868121,-1,-1,-2,-1,-1,-1,-2,-1
1517188702870113,0,-2,-2,1,-2,0,-1,-1
1517188702870113,-1,-2,0,-3,0,1,0,-2
1517188702891127,0,-3,0,-1,-1,-1,0,-1
1517188702891127,-2,-2,1,-1,0,0,0,1
1517188702892128,-1,-2,-2,-1,-1,-2,-2,-1
1517188702892128,1,-1,-2,-1,0,0,-1,0
1517188702913154,-1,0,-2,0,-3,-2,-2,-2
1517188702913154,-1,1,-1,-2,-1,-2,0,-1
1517188702914144,-1,-2,-1,1,0,-1,0,-1
1517188702914144,-2,-2,-1,0,0,-2,-1,0
1517188702928176,-1,1,-1,-2,0,0,-1,-1
1517188702928176,-2,-2,-1,-3,-2,-1,-1,-1
1517188702930155,-1,-1,-1,-2,-2,-3,-1,-1
1517188702930155,-2,1,0,0,-2,-2,-2,-1
1517188702951170,-2,0,2,0,-3,-1,-2,-1
1517188702951170,0,0,1,-1,0,0,-2,1
1517188702952171,1,-1,0,-2,0,-2,0,0
1517188702952171,-1,-2,-2,0,0,-1,-1,-1
1517188702973185,-1,-2,-1,-1,-1,-1,-1,-2
1517188702973185,0,-1,0,0,-1,-1,1,-2
1517188702974210,-1,-1,-1,-1,-1,0,-2,1
1517188702974210,-1,-2,-2,1,-4,0,-1,-1
1517188702987196,-1,1,-1,-1,0,-1,-2,-1
1517188702987196,-2,0,-1,0,0,0,-2,-3
1517188702994200,1,-2,0,-3,-1,0,0,-1
1517188702994200,1,2,1,-1,0,-3,-1,-2
1517188703011213,-1,-1,-2,-2,-2,-1,-3,-2
1517188703011213,-1,1,-2,0,0,-1,1,0
1517188703012214,0,-1,-1,1,-2,0,0,-1
1517188703012214,-1,-1,-2,-3,-1,-1,1,-1
1517188703033238,-1,-1,-1,-2,-1,-2,-1,0
1517188703033238,-1,-1,-1,-2,-2,-2,0,-2
1517188703035230,-2,-2,-2,-1,-1,-2,-2,-1
1517188703035230,0,-1,-1,-2,-1,0,0,-1
1517188703047241,-3,0,0,1,0,-1,-2,1
1517188703047241,-2,-2,-1,-2,-2,-1,0,-2
1517188703054254,-1,-1,-1,0,-1,0,0,-3
1517188703054254,-2,-3,0,1,-1,-1,-3,0
1517188703070254,0,-1,0,-1,-2,-2,0,-3
1517188703070254,-1,-1,-1,-3,-3,0,-3,0
1517188703072266,-1,-1,-2,1,-1,-1,0,-1
1517188703072266,-1,0,-1,0,-1,-1,-2,-2
1517188703093293,0,-2,-2,-1,1,1,-2,-1
1517188703093293,-1,-3,-1,-1,-1,-1,0,-1
1517188703094293,-1,-1,-2,-1,-2,-3,-2,0
1517188703094293,-4,0,-1,0,-2,-2,-1,-1
1517188703107302,1,0,-3,-1,-2,1,0,-1
1517188703107302,-2,-2,0,0,0,1,-2,-1
1517188703114296,-3,0,-2,-1,-2,-2,-2,-2
1517188703114296,-1,0,-1,0,0,-1,-1,-2
1517188703130297,0,-2,0,0,-1,-2,0,-1
1517188703130297,1,0,-2,-2,-1,-2,-1,-1
1517188703132300,-1,-1,1,-1,-2,1,-2,0
1517188703132300,-2,-1,1,-1,-2,-1,0,0
1517188703153323,-1,-2,-2,-2,-2,-1,0,-1
1517188703153323,0,0,0,1,-1,-1,0,-1
1517188703154314,-1,-1,0,-1,0,-2,1,-1
1517188703154314,0,-3,0,0,-1,-3,0,-1
1517188703167338,0,0,1,-1,2,0,0,0
1517188703167338,-2,-1,0,-1,0,-1,-2,-1
1517188703174338,-1,1,-2,-1,-1,1,1,-1
1517188703174338,1,2,-3,-2,-1,0,-2,0
1517188703190342,-2,-2,-1,0,-4,-1,-1,-2
1517188703190342,-1,1,-1,2,-1,-1,0,-2
1517188703192342,0,-1,-2,-2,1,-1,-2,-1
1517188703192342,1,0,0,0,-1,0,1,-3
1517188703213368,-1,1,-1,-1,2,-1,0,0
1517188703213368,-1,-2,-1,-1,-2,-2,-2,0
1517188703214359,-1,0,-2,-1,-1,-3,-1,-2
1517188703214359,-2,-1,-2,-3,-1,0,0,-1
1517188703227382,0,1,1,0,0,1,0,-1
1517188703227382,-2,-1,-1,0,-3,-2,-1,-1
1517188703234370,-2,-1,1,-3,-2,-1,-2,-1
1517188703234370,-1,-1,-2,-1,-2,-3,-3,0
1517188703250382,-2,-1,-4,-3,-2,-2,-3,-1
1517188703250382,-2,0,-2,-2,-1,0,-1,0
1517188703252398,0,-2,-2,-2,-1,-1,-1,-1
1517188703252398,-2,0,-1,-1,-1,0,0,-3
1517188703273415,-1,1,1,-1,-2,-1,-3,-1
1517188703273415,0,-1,-2,-2,0,-1,-3,-2
1517188703274400,-2,0,-1,-1,-1,0,-1,-2
1517188703274400,0,-4,-2,-1,0,0,0,1
1517188703287409,0,-2,-1,-1,-1,0,1,-1
1517188703287409,-2,-1,0,-2,-2,0,-1,-1
1517188703294460,-1,-2,-1,1,-1,0,-1,-1
1517188703294460,-3,-1,-3,0,-1,-1,-2,1
1517188703318470,-2,-2,-2,0,-1,0,-1,-1
1517188703318470,-1,-1,-2,-1,0,-1,-1,-2
1517188703319432,0,0,-1,-1,0,0,-2,-1
1517188703319432,0,-2,0,-2,-2,-1,0,0
1517188703333448,-1,-2,1,-1,0,-3,-1,-1
1517188703333448,-1,-1,-1,1,-2,-1,1,0
1517188703334442,-2,0,0,0,-2,-3,0,-1
1517188703334442,0,-1,0,-2,-1,-1,-1,0
1517188703346478,0,0,0,-3,-2,-1,1,-2
1517188703346478,0,-1,-1,-1,1,0,0,1
1517188703355457,-1,-1,-3,-1,0,-1,-2,0
1517188703355457,-1,-1,0,-2,1,-1,-1,0
1517188703370486,1,-2,-1,1,0,-1,-1,-1
1517188703370486,-1,0,1,-3,-1,-1,0,0
1517188703372469,-2,-2,-2,-3,-2,-1,1,-1
1517188703372469,-3,-3,0,-1,-3,0,-2,-1
1517188703393511,-1,-3,-2,-1,0,0,0,1
1517188703393511,0,-2,-2,0,0,-1,-1,-1
1517188703394485,0,-1,1,-1,-1,1,-2,0
1517188703394485,0,0,-1,-1,-1,0,1,-2
1517188703406492,0,-1,-3,0,-2,-3,-1,-1
1517188703406492,-2,-2,-1,0,-2,-2,-2,-2
1517188703415500,-1,-2,-3,0,0,-2,0,0
1517188703415500,-1,0,-1,0,-2,-2,-2,-1
1517188703430510,-1,-2,-2,-1,-1,-2,-4,0
1517188703430510,0,-2,-3,-2,0,1,-2,-2
1517188703432512,0,0,0,1,0,0,2,-1
1517188703432512,-1,1,-1,1,1,-1,1,-2
1517188703453526,-1,-2,-3,-1,-1,-2,0,0
1517188703453526,-1,-1,3,-2,0,-1,-2,-1
1517188703454532,0,0,0,-1,-2,-1,-1,-2
1517188703454532,0,-2,-1,-1,-2,-2,-1,0
1517188703466560,-3,0,-1,0,0,-1,0,-1
1517188703466560,0,-2,-2,0,-1,-2,-1,0
1517188703475567,-2,-4,-2,0,0,-3,-2,-2
1517188703475567,-1,-1,-3,-3,0,0,-3,-2
1517188703490552,-1,-1,3,-1,-3,0,-1,0
1517188703490552,-1,-2,0,-2,-2,1,0,-1
1517188703492570,-1,-1,0,-3,-1,-1,-1,1
1517188703492570,-1,-1,-2,-1,-2,-1,1,-2
1517188703512584,-2,-3,-1,-2,1,1,0,-3
1517188703512584,-1,0,-2,0,-2,-1,-2,-2
1517188703519589,-2,0,-1,-1,0,-2,-2,-2
1517188703519589,1,-3,-1,-2,1,0,-2,-1
1517188703526578,0,0,0,-2,-2,-1,-2,-2
1517188703526578,0,1,0,0,-1,-3,1,0
1517188703535585,-1,-1,-1,-1,-1,-3,-1,-1
1517188703535585,-2,1,-1,-2,-2,0,0,2
1517188703550595,0,-2,-1,-1,-1,-1,0,-1
1517188703550595,-1,-2,-2,-1,0,0,-1,-1
1517188703552595,0,0,-1,0,-1,-2,-1,-1
1517188703552595,-2,-2,-1,0,-1,-1,0,-1
1517188703572624,-1,-1,0,-2,-2,0,-2,1
1517188703572624,-1,-1,-2,-3,-2,1,0,-1
1517188703574612,-1,-2,-2,-2,0,2,-1,-1
1517188703574612,-1,-2,-1,-1,0,-4,-1,-1
1517188703586636,0,0,0,0,-1,-1,-1,0
1517188703586636,-3,-2,-3,0,-1,0,1,0
1517188703595626,-2,-2,0,-3,-1,-1,1,-1
1517188703595626,-2,-2,-1,2,-2,-1,-2,-1
1517188703610651,-1,1,-2,-2,-1,0,1,-1
1517188703610651,-1,0,0,1,1,0,-2,0
1517188703612649,-1,0,-1,0,-1,0,-2,-2
1517188703612649,-1,-1,-1,-2,-2,0,-1,0
1517188703632661,-2,0,-1,1,0,0,0,-1
1517188703632661,0,-1,0,-2,0,-1,-1,-2
1517188703634654,-1,-3,-2,-2,0,-1,-1,-1
1517188703634654,1,-1,0,-1,-1,-3,-1,-1
1517188703646675,0,-1,-2,0,-2,-2,1,-1
1517188703646675,0,-2,-1,-1,1,-1,-2,-1
1517188703655668,0,-1,-2,-1,-1,-1,0,-2
1517188703655668,0,-1,-2,-2,0,0,-2,-1
1517188703670680,0,-1,0,-1,-2,0,-2,-1
1517188703670680,0,-1,-1,0,-2,-3,-1,0
1517188703671690,-2,-1,-1,0,-3,-1,-1,-1
1517188703671690,0,-2,0,0,0,0,0,-1
1517188703692698,1,1,-1,-2,-1,-1,0,0
1517188703692698,-1,-2,-1,-1,0,-3,-2,-2
1517188703694709,-2,-1,-3,-2,0,-2,-3,-2
1517188703694709,-3,-2,-2,-1,-1,-1,-1,-1
1517188703706719,-2,-1,-1,-1,-1,0,-1,-1
1517188703706719,-1,-1,-2,-1,-4,-3,0,-2
1517188703715712,0,-2,-1,0,-3,-3,-2,0
1517188703715712,-1,-2,-2,-2,-2,-1,0,-2
1517188703730722,-2,-3,-1,-1,0,0,-1,-1
1517188703730722,-1,-3,-2,1,-1,2,-1,-1
1517188703736736,0,-3,-1,-1,1,0,-1,-1
1517188703736736,0,-1,0,-2,-1,1,1,0
1517188703752737,-2,1,0,0,-3,-1,-3,-1
1517188703752737,-1,1,-1,0,-2,-3,0,-1
1517188703754738,-2,1,0,0,0,1,0,0
1517188703754738,0,-1,1,-1,1,0,-2,-1
1517188703766760,0,-1,-2,0,-1,-1,-1,-2
1517188703766760,-1,1,-1,-3,0,-2,-2,-1
1517188703775754,-1,-1,-2,0,-3,-3,-1,0
1517188703775754,-3,0,-2,-3,-1,-3,0,-2
1517188703790777,-2,-1,-1,-1,-1,-1,-1,-2
1517188703790777,-2,-2,0,-1,0,0,-1,0
1517188703791775,-2,0,-1,-1,-1,-1,0,0
1517188703791775,-1,-2,-1,-1,-3,-2,-2,-2
1517188703812796,0,-2,-1,-2,-2,-2,-2,-1
1517188703812796,-1,-1,-1,-3,-2,-2,-1,-2
1517188703814781,-2,-2,0,-3,-1,-1,0,-1
1517188703814781,-1,0,-1,0,-4,-1,-1,0
1517188703835796,0,-2,-1,-1,1,-2,-1,-1
1517188703835796,-1,0,-1,0,-2,0,0,-2
1517188703836799,1,-2,-2,-1,0,-1,-1,0
1517188703836799,-1,0,-2,-1,0,0,0,-1
1517188703857821,-2,-1,0,-1,0,-1,-1,-1
1517188703857821,-2,-1,-1,0,-2,-2,-3,-1
1517188703859823,-1,-1,-1,0,-2,-2,-1,-1
1517188703859823,0,-1,-1,0,1,-2,-1,-3
1517188703872837,-1,-1,0,-2,-1,-2,-2,-2
1517188703872837,0,1,0,-1,2,0,-1,-2
1517188703874826,-1,-1,-4,-1,-3,0,-3,0
1517188703874826,0,-1,-1,0,-2,-2,-2,0
1517188703895865,-1,-1,-2,0,-1,-2,0,-1
1517188703895865,-1,-2,-1,0,-2,-2,-1,0
1517188703897858,0,-1,0,0,-1,-1,0,-2
1517188703897858,-1,-1,0,-1,0,0,1,1
1517188703910866,-2,-1,1,-4,0,0,-1,0
1517188703910866,0,-1,-2,-1,-2,-2,-2,0
1517188703911867,-2,-1,-1,-1,-2,-2,-1,-1
1517188703911867,-2,-1,-1,-1,-1,-3,-2,-1
1517188703932881,0,0,-2,0,1,0,0,-1
1517188703932881,-2,-1,0,-1,-1,-3,-2,0
1517188703934883,-1,-2,-2,-3,-1,0,-1,-1
1517188703934883,-2,-1,0,-2,-1,1,0,-1
1517188703955920,-1,-2,-1,-1,-3,0,-1,-2
1517188703955920,1,-1,-2,-1,-1,0,0,-4
1517188703956912,-1,-2,-2,-1,0,-2,-2,-1
1517188703956912,-1,0,-1,0,-1,0,-3,0
1517188703969907,-2,-2,-1,-2,1,-1,-1,-1
1517188703969907,-1,-2,-1,-1,-2,1,-1,0
1517188703976993,1,-2,-1,-2,-2,0,1,-2
1517188703976993,0,1,-2,-1,-1,-1,0,-1
1517188703993002,-1,0,-1,-2,-2,-2,0,-1
1517188703993002,-2,-2,0,-2,-1,-3,-1,1
1517188703994976,-2,0,-2,-1,0,0,1,0
1517188703994976,-1,-3,-1,-1,-1,-4,-2,-1
1517188704015991,-2,-3,0,-1,-2,0,-1,0
1517188704015991,-2,-1,-1,0,0,0,0,0
1517188704016992,-3,0,1,-1,0,-1,0,0
1517188704016992,0,-3,-1,1,-2,-1,-1,0
1517188704030011,-1,0,-2,0,-1,-1,-1,0
1517188704030011,0,-2,-2,-1,-2,-2,-2,1
1517188704037017,-2,-1,0,-2,-2,0,-3,0
1517188704037017,-2,-2,-1,-1,-1,1,-2,-1
1517188704053018,-1,-2,-1,-1,-2,-1,0,-3
1517188704053018,0,-1,0,-2,1,0,-1,-2
1517188704055019,-1,0,-2,-1,-3,-3,-1,-2
1517188704055019,-1,-2,-2,-2,-1,0,0,-1
1517188704076034,0,0,-1,1,-1,-1,-1,0
1517188704076034,-1,1,-2,-2,-2,0,1,-1
1517188704077035,0,-2,0,0,-1,0,-3,0
1517188704077035,-1,-2,-1,0,0,0,-1,-2
1517188704090047,0,1,-1,-1,-1,-2,-1,0
1517188704090047,-1,-2,-1,-1,1,0,-1,-2
1517188704097049,-1,-2,1,-1,-1,-1,0,0
1517188704097049,-1,-1,-1,-2,-1,-3,-1,-1
1517188704113074,-1,-2,0,1,0,1,-1,1
1517188704113074,-1,0,-2,0,-3,-1,0,-1
1517188704115062,-1,1,-2,-2,-1,-1,-1,-4
1517188704115062,-2,-1,-1,0,-2,-1,-1,-1
1517188704136076,-1,-1,0,-1,-1,-3,0,-1
1517188704136076,-2,-2,-2,-2,-3,-2,0,-2
1517188704137079,-1,-1,-2,1,2,-1,-1,0
1517188704137079,-1,0,-1,0,-1,0,0,0
1517188704150097,-1,0,-2,0,-1,-1,-4,-3
1517188704150097,-2,-3,-2,-1,0,-1,0,0
1517188704157091,-1,-1,0,0,-2,0,-1,-2
1517188704157091,-2,-1,-1,-1,-2,0,0,-3
1517188704173114,-2,0,-2,-2,-3,0,0,0
1517188704173114,-1,-1,0,-1,0,-3,-2,0
1517188704175104,-1,0,-1,-1,-1,0,-2,0
1517188704175104,0,2,-1,0,1,-1,-1,-2
1517188704196119,-1,-2,0,0,-1,1,-1,-3
1517188704196119,-2,-2,-1,-1,0,-1,-3,0
1517188704198121,0,-1,-1,-1,-1,-3,-1,-1
1517188704198121,0,-1,-2,-3,-2,0,-2,-3
1517188704210130,0,-1,0,-1,-2,0,-2,-2
1517188704210130,0,0,-1,-1,-2,-2,1,-1
1517188704217134,-3,-2,-3,-1,1,0,0,0
1517188704217134,-1,-1,-1,0,-3,-1,-2,-2
1517188704233145,-1,-1,-1,0,-2,-2,-2,-1
1517188704233145,-2,-1,-2,-1,0,0,0,0
1517188704234160,1,0,-2,-1,-3,1,-1,-3
1517188704234160,-1,-1,-1,-2,-1,-1,-1,-1
1517188704256161,-1,-1,-2,0,-1,0,-1,0
1517188704256161,-2,-2,0,0,-1,-2,0,-2
1517188704257162,-2,-1,-2,0,0,-3,-1,0
1517188704257162,-2,0,0,1,1,0,-1,0
1517188704270171,0,-3,0,-1,-2,-1,-1,-1
1517188704270171,-1,-3,-2,-1,-2,-2,-1,-2
1517188704276190,-1,-1,-2,-1,-1,1,0,-3
1517188704276190,-1,-1,0,0,-1,-2,1,-1
1517188704293208,0,-2,0,-3,-1,-2,-1,-1
1517188704293208,0,0,-1,1,0,1,-2,-1
1517188704295206,-1,0,0,-1,-1,1,-3,-2
1517188704295206,0,-3,-2,-2,-2,-2,1,-1
1517188704315203,-2,-1,0,-1,0,-2,0,-1
1517188704315203,-1,0,-1,-3,-2,-4,-2,-2
1517188704317205,-2,-1,-1,-1,0,1,0,0
1517188704317205,-2,-2,0,-1,-1,-1,-2,-1
1517188704329237,-1,-2,-4,-2,0,-1,0,1
1517188704329237,0,-1,1,1,0,-1,-2,-1
1517188704338219,1,0,0,-2,-1,-3,-2,0
1517188704338219,0,-1,-3,0,0,-1,-1,-3
1517188704353230,-1,-2,-1,-2,0,0,-1,-1
1517188704353230,0,0,-1,0,-2,1,-1,-2
1517188704354231,0,-3,0,-1,-2,-3,-1,-2
1517188704354231,-2,-1,-1,-2,-2,-3,-1,0
1517188704375260,-1,0,0,0,-1,0,-2,-2
1517188704375260,0,0,-1,0,-2,1,-1,1
1517188704377248,-1,-2,-1,-1,-1,-1,0,-3
1517188704377248,-2,-2,0,-2,-2,-2,-1,-2
1517188704389259,0,0,0,-1,-1,-1,0,-2
1517188704389259,-2,-2,-3,-1,-2,0,-1,-1
1517188704398293,-2,-2,-1,0,-1,-2,-2,0
1517188704398293,-1,-1,1,-2,-2,-2,-2,1
1517188704413302,-1,-1,-1,0,0,0,0,0
1517188704413302,0,-1,0,-1,0,1,0,-2
1517188704414308,-1,-2,-1,-1,-2,-1,-1,1
1517188704414308,0,-1,-1,1,-1,-1,0,-1
1517188704435319,-1,1,-1,1,-2,-3,-1,-3
1517188704435319,-1,-1,-1,0,-1,-3,0,0
1517188704437330,-1,1,-2,-2,-2,-1,-2,-1
1517188704437330,-1,1,-1,1,0,1,-3,-2
1517188704449328,-1,-1,-1,-2,-1,0,0,-1
1517188704449328,-2,-1,0,-1,-1,1,0,1
1517188704465350,-2,-1,0,-2,-1,-3,1,-1
1517188704465350,1,-2,-1,-1,-1,2,0,-1
1517188704473352,-2,-2,-2,-2,0,-1,-3,-2
1517188704473352,0,0,-2,-2,0,-1,-2,-2
1517188704474357,-2,-1,-2,0,0,0,-1,-2
1517188704474357,0,0,-1,1,0,-2,-1,0
1517188704495383,0,-2,0,-1,-3,-4,0,-1
1517188704495383,-2,-2,-3,1,-2,-1,-1,0
1517188704498376,0,-4,-1,-1,-1,-1,-2,-1
1517188704498376,-2,-2,-1,-1,-1,0,0,-1
1517188704509370,-2,-3,-2,-1,-3,0,-1,0
1517188704509370,-1,0,0,-1,-3,0,-1,-1
1517188704518378,-1,-1,-2,0,0,0,-1,-1
1517188704518378,0,-1,-3,-1,-1,-1,0,-1
1517188704533396,0,0,0,0,0,-1,0,1
1517188704533396,-1,0,-2,-3,0,1,-1,-3
1517188704534387,0,-1,0,-3,-1,1,0,0
1517188704534387,0,-2,-1,-1,-1,-1,0,-2
1517188704555402,0,1,-2,-1,-1,-1,0,-2
1517188704555402,-1,0,-1,0,-1,-1,-1,-1
1517188704557405,0,0,0,0,-3,-2,-2,-1
1517188704557405,-2,-1,-1,-1,-2,-1,-1,-1
1517188704569412,-1,-2,-1,-1,0,-1,-2,0
1517188704569412,-1,-2,-1,-1,0,0,0,-1
1517188704578498,-1,-1,-1,-2,-1,-1,0,-2
1517188704578498,-1,-1,-2,-2,-1,0,-4,-1
1517188704593519,0,0,-1,0,-1,-3,-2,-1
1517188704593519,-1,-2,0,-4,-4,-3,-1,-2
1517188704594496,-1,-1,-1,0,-1,-1,-2,0
1517188704594496,-1,0,0,-2,0,-2,-1,0
1517188704615519,0,-1,-1,-1,-1,1,-1,-2
1517188704615519,0,-1,-2,-1,-3,-2,-2,0
1517188704617526,1,0,-2,-2,-3,-1,0,0
1517188704617526,1,-2,0,0,-1,-2,-2,-1
1517188704629559,0,-1,-2,-2,-1,1,0,0
1517188704629559,-2,0,-3,0,1,-1,-2,-1
1517188704638527,-1,-1,-1,0,-2,0,0,-3
1517188704638527,-2,-2,0,-2,1,-1,0,-1
1517188704652546,-2,-1,-1,0,-2,-1,-1,-2
1517188704652546,0,-2,-1,-2,0,1,1,1
1517188704654537,-2,-2,0,-2,-2,1,-1,1
1517188704654537,-2,-1,-3,0,-2,-2,-1,0
1517188704675577,-3,-1,-1,-2,-2,-3,-2,-1
1517188704675577,-2,1,0,-1,0,-1,0,-1
1517188704677576,-2,-1,0,0,-2,0,-2,-1
1517188704677576,1,0,-1,-1,-2,0,-1,-2
1517188704689582,-1,-1,-1,-2,-1,1,0,0
1517188704689582,-3,-2,0,-1,-1,-2,-2,-1
1517188704699580,0,-1,-1,-2,-1,-3,1,1
1517188704699580,-3,-1,-1,-1,-1,-1,-1,-1
1517188704712593,0,-1,-1,0,0,-1,-1,-2
1517188704712593,1,-2,0,-2,0,-2,-3,0
1517188704714581,-1,0,-3,-1,0,1,-1,-2
1517188704714581,1,-2,-1,-2,-2,1,0,0
1517188704735597,-1,0,1,-1,-1,-1,-2,-2
1517188704735597,0,-2,0,-2,0,-2,0,0
1517188704737612,-2,0,0,0,-2,-3,-2,0
1517188704737612,-1,-1,-1,0,-1,-2,-1,-2
1517188704757612,-1,-1,-1,-1,-1,0,-1,2
1517188704757612,-1,-2,-2,-3,-1,-1,-1,0
1517188704759614,2,-2,-2,1,-1,-1,-1,-2
1517188704759614,-2,-2,-2,-2,0,0,0,-1
1517188704772650,-2,0,0,0,0,-1,0,-2
1517188704772650,0,0,0,-2,-3,-2,-2,0
1517188704774622,-1,-1,-1,0,0,-2,0,-1
1517188704774622,0,1,-2,1,-2,0,-1,-2
1517188704795647,-1,0,0,-1,-1,0,-2,-1
1517188704795647,0,-2,-2,-1,0,0,-1,-1
1517188704798639,-1,-1,1,-2,-2,0,-1,-1
1517188704798639,0,-2,0,0,-1,-2,-2,1
1517188704817666,-2,-1,-1,0,-1,0,0,-1
1517188704817666,0,-1,-2,0,-1,-2,-1,-2
1517188704819654,-1,0,-1,-2,0,0,-2,0
1517188704819654,0,0,-1,-2,-1,-1,-2,-1
1517188704832664,0,0,-2,0,0,0,-1,0
1517188704832664,-2,-1,-1,-2,-1,-3,0,-1
1517188704834665,-2,-1,-2,-1,1,-1,0,-2
1517188704834665,-1,0,1,-1,-1,-1,-3,-1
1517188704855703,-1,-2,-1,-3,-3,-1,0,-1
1517188704855703,-1,0,0,0,-3,0,0,1
1517188704861705,0,-2,0,-1,0,0,-3,-2
1517188704861705,-1,-1,-1,-1,-1,0,1,0
1517188704877711,-1,-1,-1,-1,-2,0,-3,-1
1517188704877711,-3,-2,-1,-2,-2,0,-2,0
1517188704879697,1,0,-1,-2,-1,-2,-1,-1
1517188704879697,-2,-1,0,-1,0,0,1,1
1517188704892723,0,-2,-2,0,-1,-1,0,-2
1517188704892723,-1,0,-1,1,0,1,0,-2
1517188704898711,-1,-2,-1,1,-1,-4,0,-1
1517188704898711,0,-1,0,-1,-2,-1,-2,-1
1517188704915722,1,-2,1,-3,-1,0,-2,0
1517188704915722,-1,0,2,-2,0,-2,-2,0
1517188704916723,-1,-2,-1,-2,-1,2,1,0
1517188704916723,-1,-1,-2,-1,-1,-1,-1,-3
1517188704937777,-3,-1,-1,1,-1,0,-1,-1
1517188704937777,-1,-1,-3,0,-2,-1,-1,-1
1517188704939739,0,-1,-1,1,-1,-2,0,-2
1517188704939739,-1,-3,0,-1,0,-2,-2,-1
1517188704952786,1,1,-1,0,-2,-1,-2,1
1517188704952786,-1,-1,-2,-1,-1,0,-1,-1
1517188704958825,-2,0,-1,0,-5,-1,-2,1
1517188704958825,-2,-1,-2,0,-1,-3,0,0
1517188704975817,-1,-2,-2,-1,1,-1,-1,0
1517188704975817,0,-1,-1,-2,-1,-2,0,-3
1517188704976803,0,0,-1,-2,-1,-2,-3,0
1517188704976803,0,0,0,-1,-2,-1,0,-1
1517188704997819,-4,-1,0,-1,-1,-3,-1,0
1517188704997819,2,-2,-2,0,0,-2,0,-3
1517188704999819,-1,-4,-1,-2,1,1,-1,-1
1517188704999819,0,-1,0,0,-1,0,-3,-1
1517188705012843,-3,-1,-1,-2,-1,-2,-2,-1
1517188705012843,-2,-1,0,0,0,0,-2,-1
1517188705018832,-1,0,-1,-1,-2,-1,1,-2
1517188705018832,0,1,-1,-1,-2,-1,-1,-2
1517188705035845,1,-1,-1,0,0,-1,-1,-1
1517188705035845,-4,-3,-2,0,0,-1,-1,-2
1517188705036846,-1,-3,-3,0,-2,1,-2,-1
1517188705036846,0,0,-1,-1,0,-1,-1,-1
1517188705057874,-4,-1,-2,-1,0,0,-1,-3
1517188705057874,0,1,-2,1,-2,0,-3,-2
1517188705059872,-6,-3,-2,0,0,-3,1,-2
1517188705059872,-1,-2,-2,-2,-2,2,-2,-2
1517188705072871,2,-2,-1,0,-1,-2,0,-2
1517188705072871,-2,-1,0,1,0,0,0,0
1517188705078878,-2,1,0,-1,0,-2,1,-1
1517188705078878,-1,0,-2,-1,-1,-1,-1,0
1517188705095887,0,0,0,0,-1,-1,0,0
1517188705095887,-2,-2,-4,-2,-3,-1,-1,-2
1517188705097893,1,-1,-3,0,-1,0,-2,-2
1517188705097893,-2,-1,0,-2,-2,-2,-2,-1
1517188705117903,0,-1,-1,-3,1,1,-3,-2
1517188705117903,-1,0,1,-1,-3,-3,-1,-1
1517188705119915,0,-2,-2,-1,-2,-2,-1,0
1517188705119915,-3,-2,-1,0,-1,-1,1,-1
1517188705131914,0,-2,-3,-1,-1,-1,-2,0
1517188705131914,3,0,0,-2,0,-1,-2,-1
1517188705138931,-4,-2,-2,-1,-1,0,0,0
1517188705138931,-1,-2,-1,0,-1,-1,0,-2
1517188705155941,0,0,0,-2,-2,0,-1,1
1517188705155941,-7,0,-1,-2,0,0,0,1
1517188705156931,1,-1,-1,-2,1,-2,-2,-1
1517188705156931,4,-2,-4,0,-2,-3,-1,-1
1517188705177970,0,3,0,-1,-2,-3,-1,0
1517188705177970,2,1,-2,-1,-2,-1,-1,-1
1517188705179965,2,2,0,-2,-2,-1,1,-1
1517188705179965,-7,-2,-1,-2,0,0,-3,-3
1517188705191958,6,-4,-1,-1,0,-2,1,0
1517188705191958,5,3,-2,-2,-2,-2,-2,0
1517188705198962,-5,1,-2,-4,-2,-4,-2,-2
1517188705198962,-4,-12,-3,-1,-1,1,-1,-2
1517188705215983,-4,-1,-2,-1,-4,-2,-1,-1
1517188705215983,1,-4,-2,0,-1,0,0,0
1517188705216973,6,2,-2,0,-1,-1,-1,-1
1517188705216973,9,8,3,-1,-2,-1,-1,1
1517188705245994,3,1,1,1,0,0,-1,-2
1517188705245994,-14,-8,1,-1,-3,-2,-2,0
1517188705246994,13,14,-2,1,-1,0,-2,-4
1517188705246994,-14,-8,-3,-2,-1,0,3,10
1517188705252012,11,-13,-4,-3,-4,-2,-2,-5
1517188705252012,8,18,-1,-2,0,-1,-4,-6
1517188705261006,-13,-9,1,2,1,2,0,3
1517188705261006,-3,-2,-1,-2,-1,-1,-1,2
1517188705276025,-14,-5,-2,-1,-1,-3,-2,-3
1517188705276025,-4,-10,0,5,-1,-3,1,4
1517188705277016,1,4,-3,-6,-5,-2,-2,-4
1517188705277016,6,10,-1,-2,0,1,0,0
1517188705298033,-1,2,-2,-2,-1,2,0,0
1517188705298033,5,-3,-1,-5,1,2,3,1
1517188705300042,-5,-9,-2,-1,0,0,-2,-3
1517188705300042,5,2,-1,-1,-3,-2,-1,-2
1517188705312054,-23,-1,-2,-1,-3,-2,-3,-3
1517188705312054,4,-7,-1,0,-2,-1,1,0
1517188705321082,3,4,5,2,0,-1,0,1
1517188705321082,-16,-1,-2,5,-1,-1,-2,0
1517188705335058,9,-7,-5,-12,-1,0,-2,-3
1517188705335058,-3,-2,-3,-4,0,-1,-1,-1
1517188705337059,-3,-1,1,-2,0,0,1,4
1517188705337059,18,-4,-2,2,-1,-1,-2,1
1517188705358083,-5,16,4,5,-1,0,1,-3
1517188705358083,-5,1,-6,-2,-2,-2,-2,-1
1517188705360074,-14,-23,-3,-2,-1,-1,-1,-7
1517188705360074,-4,3,0,-4,-1,-1,1,-5
1517188705372083,-6,0,0,0,2,-1,1,5
1517188705372083,4,-3,-4,-1,1,0,-1,-4
1517188705381091,-9,-6,-1,2,-1,-1,-3,-4
1517188705381091,13,-7,1,-1,-2,-1,0,1
1517188705396099,7,0,0,1,3,1,2,5
1517188705396099,-2,7,2,-5,-4,-3,-6,-2
1517188705398103,23,6,-2,-1,0,0,0,-1
1517188705398103,-21,-6,2,4,-2,1,2,13
1517188705418125,4,-3,-2,-7,0,-2,-2,2
1517188705418125,13,9,-1,3,0,0,-3,-27
1517188705420127,6,9,-3,-2,-2,-1,-2,-2
1517188705420127,-45,-6,1,-3,-1,0,0,-9
1517188705432126,36,0,1,5,-2,0,4,22
1517188705432126,5,-6,1,0,-1,0,-2,-1
1517188705440146,4,6,0,-5,-4,-1,-2,-9
1517188705440146,12,11,0,0,6,-2,-2,-7
1517188705455155,-16,3,-4,-5,-3,-3,-2,-6
1517188705455155,-9,-12,-6,-3,-1,-2,1,4
1517188705457156,-1,6,4,4,-1,-1,0,6
1517188705457156,-4,-6,-4,-5,-4,-2,-4,-6
1517188705478172,-3,0,2,5,0,-1,0,-4
1517188705478172,5,4,-1,-1,-3,0,0,3
1517188705479173,-8,5,1,1,-1,-1,-3,-1
1517188705479173,7,-15,-6,-4,1,3,3,8
1517188705500173,24,13,4,0,-3,-2,-4,1
1517188705500173,-1,-4,3,1,-2,-1,1,3
1517188705501174,-5,-21,-7,-5,0,0,-3,-10
1517188705501174,2,12,1,-5,0,-3,-4,-6
1517188705515184,-2,-5,-3,3,0,5,5,3
1517188705515184,20,10,2,1,-1,-2,-1,21
1517188705515184,-43,-9,-2,1,-1,-2,-5,-37
1517188705515184,13,3,2,-2,-1,-4,4,-1
1517188705537199,-8,4,-1,1,0,1,-2,-3
1517188705537199,-11,-6,-1,4,-1,2,3,9
1517188705538200,17,-10,-2,1,-1,-2,-7,11
1517188705538200,3,9,-1,-9,-2,-3,-1,-22
1517188705560230,-19,-15,-2,0,0,-1,5,-4
1517188705560230,3,0,0,-1,0,-1,-3,6
1517188705560230,-7,-7,-4,-2,2,-1,-3,3
1517188705560230,-5,-9,2,3,0,1,2,7
1517188705575237,10,-11,-4,-2,-3,-3,-5,-2
1517188705575237,4,8,-1,2,4,3,8,5
1517188705575237,-8,-5,0,-1,-2,2,-5,-1
1517188705575237,1,2,-3,3,-2,-2,-8,14
1517188705597242,-1,5,-2,-7,-2,-3,4,-4
1517188705597242,-43,-23,-1,-2,-2,-1,-7,-14
1517188705598246,23,7,2,3,0,-2,0,16
1517188705598246,-5,0,-7,-5,-3,-1,-7,-3
1517188705620277,-4,2,0,1,-1,0,1,-22
1517188705620277,-14,-10,-2,0,0,-1,-1,-10
1517188705620277,4,-6,0,-4,-2,-5,-16,-16
1517188705620277,10,1,2,0,-2,-6,4,-44
1517188705635268,-26,7,1,-1,-2,0,-1,10
1517188705635268,-21,-6,-8,-3,-1,0,-6,21
1517188705635268,-16,22,11,9,0,-4,19,-37
1517188705635268,15,-1,-12,-5,-1,5,6,26
1517188705657342,0,-5,-3,-9,0,-2,3,74
1517188705657342,9,6,3,0,1,0,7,15
1517188705658353,-9,-16,0,-3,-3,-3,-18,-43
1517188705658353,-13,12,-2,4,-2,-2,-12,-49
1517188705680359,12,-5,-9,4,4,3,5,0
1517188705680359,20,2,5,-3,0,1,14,32
1517188705680359,10,4,-8,1,-1,-1,-1,25
1517188705680359,23,3,5,2,1,3,8,14
1517188705694369,-31,12,5,0,-2,-2,-8,-21
1517188705694369,18,-6,-2,-1,-1,-3,-8,4
1517188705695369,-15,-1,-11,-7,-2,1,12,-19
1517188705695369,3,23,13,3,2,2,4,27
1517188705717396,-8,-21,-11,-5,-5,-7,-20,-44
1517188705717396,-5,16,1,-1,-5,-3,-8,-27
1517188705718397,-3,-21,-12,-1,0,2,5,48
1517188705718397,-8,-7,6,-4,-1,0,-2,10
1517188705739417,1,-3,6,7,3,-1,8,-2
1517188705739417,-3,11,1,-2,-2,-5,-6,-65
1517188705740403,9,-2,-3,-9,-3,-3,-4,20
1517188705740403,-4,-4,-8,4,0,-2,-7,6
1517188705754425,-2,2,14,-1,-2,0,-3,-6
1517188705754425,16,-7,-9,-3,0,0,13,6
1517188705755427,2,18,3,1,0,0,-8,1
1517188705755427,9,1,3,1,-5,-3,-5,15
1517188705777427,14,-1,-7,-2,0,2,4,1
1517188705777427,-22,-23,-4,-1,-2,0,-5,-30
1517188705778428,7,8,5,5,0,-2,0,-8
1517188705778428,-35,-27,-4,-3,-1,-1,6,12
1517188705799443,4,3,-9,-8,-6,-4,-21,-55
1517188705799443,-8,5,12,1,-1,-4,15,4
1517188705800444,23,0,-7,-2,1,0,4,-20
1517188705800444,-37,7,6,2,-1,-5,-8,21
1517188705814456,-4,-8,5,2,0,0,-5,15
1517188705814456,19,-35,-5,0,-2,0,-3,40
1517188705815455,-52,-18,-2,-7,-3,-3,-17,-44
1517188705815455,14,-7,3,1,-1,2,8,32
1517188705838472,0,-5,-15,-6,0,-2,7,15
1517188705838472,-6,8,5,4,-1,-3,-26,-10
1517188705839471,-5,9,-4,-3,-4,1,14,-24
1517188705839471,17,-14,3,4,0,0,2,1
1517188705859542,-13,13,-4,-4,-3,-6,-9,-23
1517188705859542,11,8,-6,1,2,2,8,9
1517188705860578,16,2,1,1,1,-3,-14,32
1517188705860578,-11,-6,-11,-6,-4,-4,-10,-23
1517188705874578,-1,0,1,7,-2,0,8,52
1517188705874578,-19,-5,-4,-6,-3,-5,-13,-83
1517188705875563,13,21,0,-9,-4,-2,2,42
1517188705875563,7,-8,2,8,5,2,2,-3
1517188705897569,10,26,13,-2,-1,-3,0,-23
1517188705897569,-3,-18,-22,-8,-4,-2,-5,17
1517188705898570,-16,-13,3,3,3,-1,12,17
1517188705898570,53,26,4,0,-1,0,0,-9
1517188705919583,-8,-30,-10,-12,2,3,8,12
1517188705919583,12,1,27,7,4,2,-20,-7
1517188705920583,-24,8,-19,-9,-5,-2,-10,-33
1517188705920583,-18,-38,-21,-8,-4,-1,2,24
1517188705934607,17,18,9,10,2,4,3,20
1517188705934607,-5,24,-4,-8,-2,-1,7,24
1517188705935597,23,15,12,10,3,3,14,-16
1517188705935597,-33,-10,18,2,-1,-2,-4,-13
1517188705957622,19,0,-5,-11,-5,1,-1,-10
1517188705957622,-15,-12,7,-2,-1,-3,-7,15
1517188705958610,3,-1,9,6,-1,-1,-10,-3
1517188705958610,-6,-23,-5,-3,0,-4,-6,-13
1517188705979626,0,43,-4,5,1,-2,12,14
1517188705979626,5,-49,0,3,-5,-4,-17,-10
1517188705980627,-14,3,13,-4,4,1,11,28
1517188705980627,14,10,-6,-3,-2,0,-8,-33
1517188705994662,-26,1,-6,-1,-1,-2,4,54
1517188705994662,-14,-21,-10,-3,-2,1,-2,-73
1517188705995637,13,-11,17,3,-5,-1,-7,-8
1517188705995637,13,19,-3,-2,0,1,-9,1
1517188706017653,-21,-24,20,7,4,4,7,-11
1517188706017653,13,83,-8,-2,0,0,15,23
1517188706017653,-25,-54,-5,-10,-2,-2,15,18
1517188706017653,32,25,12,-1,0,-1,3,14
1517188706039698,-14,-30,8,6,1,1,-1,-27
1517188706039698,2,-6,-13,-5,-4,-1,-2,14
1517188706040678,22,26,4,11,3,3,-8,23
1517188706040678,5,-31,-30,-23,-2,-2,3,-1
1517188706054688,3,-6,-2,0,-7,-9,-18,-24
1517188706054688,5,8,11,8,5,2,8,72
1517188706055679,10,16,0,-4,-3,-2,-2,12
1517188706055679,-14,-2,-3,8,1,2,1,-36
1517188706077708,17,4,5,-6,-4,-4,-6,-25
1517188706077708,-32,-35,-2,2,1,-3,-9,-28
1517188706077708,27,31,24,1,0,1,13,39
1517188706077708,-1,23,-8,3,-1,-2,-17,-37
1517188706099721,17,-29,0,6,0,-2,-5,5
1517188706099721,9,27,1,-16,-1,-3,-10,-47
1517188706100721,-23,-31,-26,4,1,3,2,-9
1517188706100721,-5,20,20,0,-1,0,-5,-73
1517188706114726,-18,-6,-19,-9,-8,-8,-13,-18
1517188706114726,9,1,4,9,3,2,10,28
1517188706115721,3,26,-7,7,1,-3,1,0
1517188706115721,-22,-68,2,-11,-2,-3,6,29
1517188706137747,6,26,-12,-13,0,-1,-7,12
1517188706137747,-14,-9,4,1,-3,-5,2,0
1517188706137747,23,-11,-14,-10,-5,-1,-4,15
1517188706137747,5,42,1,22,5,0,5,11
1517188706159753,-16,-5,17,2,-1,0,-10,-76
1517188706159753,6,-20,-2,-7,-4,-1,-1,31
1517188706160754,-12,-8,6,2,1,-2,-7,-58
1517188706160754,2,22,8,0,0,-1,4,33
1517188706174786,-1,-22,-22,4,2,3,1,45
1517188706174786,-8,37,-5,-5,-4,-5,3,-18
1517188706175765,23,-14,0,-4,-2,-1,-7,14
1517188706175765,-32,-22,-4,-6,-5,-5,-14,-55
1517188706197782,29,24,4,0,1,-1,-4,39
1517188706197782,-9,-3,-3,-4,-4,-3,-3,16
1517188706198785,-2,0,-8,2,1,0,3,-11
1517188706198785,9,21,3,-1,-1,-3,12,56
1517188706219795,-9,-22,-17,-16,-4,2,-16,-72
1517188706219795,-14,0,-8,6,1,2,9,-47
1517188706220796,-19,-20,6,-8,-5,-5,-10,-11
1517188706220796,9,2,1,7,2,2,-1,-14
1517188706233815,0,33,7,4,-1,-4,8,32
1517188706233815,1,-14,-8,-3,-2,3,2,0
1517188706249817,9,12,-8,-5,-2,-3,-14,2
1517188706249817,-18,-20,-12,-2,-2,-1,-2,4
1517188706256834,22,23,8,1,-2,-3,1,-2
1517188706256834,-11,-36,-1,-4,2,0,8,24
1517188706257823,-8,12,-4,0,1,3,-7,-20
1517188706257823,-4,-24,0,-2,-4,-2,-3,11
1517188706279837,8,0,-8,7,1,2,-2,6
1517188706279837,22,9,8,-15,-4,-1,6,11
1517188706280848,-32,-23,-3,-2,-5,-2,-6,-56
1517188706280848,11,3,0,-5,0,2,5,19
1517188706293909,-8,-6,1,6,3,1,6,-12
1517188706293909,5,4,2,-2,-5,-7,3,25
1517188706301887,-3,7,-8,-1,2,-1,5,-20
1517188706301887,1,13,15,-5,-4,-4,-2,5
1517188706316909,1,-7,-7,-1,-2,0,-5,-32
1517188706316909,-4,-7,-10,2,1,1,-1,6
1517188706317898,0,7,7,1,0,2,14,36
1517188706317898,-3,10,-7,0,1,-2,-2,-7
1517188706339926,-15,-22,3,5,-2,1,4,11
1517188706339926,15,7,-5,-13,0,0,-11,13
1517188706340923,-15,-5,-4,0,0,-2,2,-28
1517188706340923,12,-6,-1,5,1,-2,-10,33
1517188706353923,-16,6,1,-7,-3,-5,0,-1
1517188706353923,15,-16,-11,4,-1,-1,-13,-3
1517188706361941,-6,9,8,2,1,2,2,30
1517188706361941,17,8,6,-4,-1,-1,16,-4
1517188706376952,-51,-3,-3,-7,-3,-1,0,6
1517188706376952,8,10,21,12,2,1,0,2
1517188706377941,23,3,-27,-9,-3,-1,-3,11
1517188706377941,0,-10,8,4,2,2,4,40
1517188706399955,-8,-3,-12,-4,-2,-4,-1,-74
1517188706399955,-8,4,3,1,0,0,2,0
1517188706406959,15,-7,13,2,1,-2,-8,3
1517188706406959,-11,-3,-19,-3,-4,-3,-3,-8
1517188706413966,3,-33,2,-7,-2,2,-2,-5
1517188706413966,-11,27,-3,6,1,3,12,11
1517188706421983,6,-15,-6,-5,-4,-4,-16,-2
1517188706421983,0,0,-15,-14,-4,-3,-16,-13
1517188706436991,-3,11,3,2,1,-2,-6,-36
1517188706436991,4,-30,-4,-2,-4,-2,4,49
1517188706437996,-21,5,13,1,-4,-1,-2,-68
1517188706437996,-5,24,-10,7,3,2,6,-1
1517188706461009,36,-34,-1,-3,-5,-2,-4,41
1517188706461009,4,22,-13,-3,2,2,-3,-29
1517188706461009,-6,-10,0,5,0,-2,0,18
1517188706461009,-11,-9,-4,-4,-4,-3,0,-20
1517188706474011,-8,-16,-16,3,-2,-1,14,58
1517188706474011,-15,13,0,-14,-2,-2,-3,-3
1517188706482025,13,-11,2,-3,0,3,5,26
1517188706482025,2,-30,-12,2,2,2,-3,-9
1517188706497024,-26,-15,0,-2,0,1,-3,66
1517188706497024,10,24,6,3,-3,-5,-1,-59
1517188706498027,-2,6,9,7,5,4,8,30
1517188706498027,-8,4,4,-4,-3,-4,-21,-5
1517188706520076,32,6,-5,4,2,1,4,28
1517188706520076,-2,-16,12,2,1,3,4,-18
1517188706521042,2,20,-10,-4,-1,-4,-4,6
1517188706521042,-19,1,-7,-6,-3,-2,3,17
1517188706534050,21,13,15,5,7,3,8,31
1517188706534050,-5,7,-16,2,-1,-5,-11,-75
1517188706542055,3,-17,6,2,2,3,20,52
1517188706542055,21,-2,1,2,0,0,12,36
1517188706557078,-57,0,8,-3,-3,-2,-11,-86
1517188706557078,33,-16,-15,-3,-1,2,0,46
1517188706558066,-18,3,-9,-3,-7,-5,-10,-17
1517188706558066,19,-4,25,-1,0,1,-2,17
1517188706580106,-3,2,-29,-6,-3,-4,-4,-33
1517188706580106,-29,-30,7,0,-2,-3,-9,33
1517188706581083,8,-6,-18,-4,-2,2,-3,-16
1517188706581083,-9,10,-1,2,-1,-3,3,13
1517188706594102,13,-7,29,2,-3,-4,-3,2
1517188706594102,17,6,-5,-15,-2,0,-1,3
1517188706602099,10,5,2,5,-1,1,-1,23
1517188706602099,-3,-4,-2,-19,-2,-3,2,0
1517188706617135,17,-4,12,7,0,-1,-9,-59
1517188706617135,-60,21,1,8,2,-2,5,8
1517188706618109,10,-18,-5,-2,1,2,5,12
1517188706618109,16,44,20,2,-2,1,-19,-8
1517188706640140,-34,3,-10,-6,-6,-3,-5,-62
1517188706640140,9,12,17,9,2,1,2,30
1517188706641126,-1,1,-8,-8,-4,-3,5,-24
1517188706641126,-18,-16,-2,3,-4,-3,-2,-18
1517188706663161,24,37,8,2,4,2,1,34
1517188706663161,-19,-40,-6,1,-3,-4,-14,-6
1517188706663161,35,16,17,-4,-5,-6,5,13
1517188706663161,18,-5,-14,-8,-3,2,8,4
1517188706677227,-8,1,4,2,1,-2,-14,-2
1517188706677227,13,6,11,6,2,0,1,-44
1517188706678178,-10,-10,-10,3,-1,-1,-6,47
1517188706678178,10,-37,3,-1,1,0,15,-27
1517188706700202,-15,-5,-2,-6,-3,-3,1,25
1517188706700202,4,-7,-21,0,0,-2,-5,38
1517188706701195,-16,-2,13,-3,-3,-5,-3,-39
1517188706701195,2,6,-2,8,3,2,-1,8
1517188706723219,17,-6,-17,-11,-4,-3,14,14
1517188706723219,5,23,8,8,1,0,4,11
1517188706724210,-4,-12,-8,-4,0,2,6,-1
1517188706724210,5,7,-5,2,-3,-4,-15,-5
1517188706737219,10,11,13,6,2,2,1,13
1517188706737219,0,-7,2,-12,-5,-3,-1,-11
1517188706738222,-9,3,-9,1,1,2,0,-9
1517188706738222,-26,1,16,2,0,2,0,23
1517188706760290,17,-3,1,-8,-4,-1,8,36
1517188706760290,-30,-13,-6,-1,-5,0,0,-77
1517188706761236,34,40,3,3,3,1,-6,5
1517188706761236,-14,0,-5,-3,-1,-4,-1,-25
1517188706783260,13,8,-7,-1,-1,-2,1,26
1517188706783260,-18,-13,1,1,2,4,12,59
1517188706783260,-6,-3,4,10,1,1,6,-50
1517188706783260,5,-8,-26,-27,-5,-3,-21,-32
1517188706797267,13,-14,0,7,1,1,-5,-2
1517188706797267,-2,7,-3,-7,-4,-1,-6,-8
1517188706798262,-21,-11,-4,-6,-2,-3,-1,20
1517188706798262,12,0,8,11,2,3,3,46
1517188706820292,-2,22,-8,0,-2,-2,2,-33
1517188706820292,4,-19,-6,-8,-3,-2,-24,-29
1517188706821278,-16,-28,-11,0,-4,-2,-4,21
1517188706821278,-3,-6,13,-3,-1,-2,-1,-3
1517188706843327,-3,21,-3,-8,0,-3,9,17
1517188706843327,10,-18,-29,7,1,3,10,51
1517188706843327,-13,-2,-1,-8,-2,-1,-9,-47
1517188706843327,5,15,-4,10,1,2,12,18
1517188706857313,-31,-25,16,2,0,1,-13,-40
1517188706857313,-11,33,2,-3,-2,-5,2,-15
1517188706858305,16,-7,-2,-4,-1,1,2,38
1517188706858305,-12,-2,-5,7,0,0,-2,-34
1517188706880320,-5,8,-11,-5,-4,-4,0,35
1517188706880320,7,-5,4,1,1,-2,-5,-22
1517188706881321,-14,-13,-3,-3,-2,-4,-1,1
1517188706881321,-9,-9,-2,4,2,1,1,0
1517188706903345,-7,-1,-7,-6,-2,-1,-7,3
1517188706903345,-10,-12,-2,6,3,0,0,-4
1517188706903345,24,18,15,6,-1,-3,-2,4
1517188706903345,-10,-23,-8,-20,-5,-2,1,11
1517188706917362,-9,1,8,3,2,2,-1,-56
1517188706917362,11,6,-11,-1,-2,-2,10,18
1517188706918347,-9,13,3,1,2,4,-2,-6
1517188706918347,6,2,-3,5,-1,-4,7,-18
1517188706940386,-7,0,-8,-3,0,2,4,14
1517188706940386,40,3,11,-9,-2,-2,-9,-10
1517188706941363,-32,17,5,-1,-1,-3,-4,0
1517188706941363,0,-17,-7,5,-2,0,-1,5
1517188706963405,11,2,5,-5,-2,-6,0,57
1517188706963405,13,13,-6,3,-1,1,4,-38
1517188706963405,-6,-20,-6,-8,-2,-3,-13,-9
1517188706963405,-2,21,4,8,2,-3,-1,-22
1517188706977412,13,5,7,-2,-2,1,8,22
1517188706977412,-12,14,5,0,0,0,-4,-12
1517188706978412,19,-4,16,-1,-4,1,2,10
1517188706978412,-26,0,-3,-2,-1,1,-9,1
1517188707008460,-1,-20,-12,2,2,0,3,-43
1517188707008460,-6,16,8,3,2,2,1,-53
1517188707008460,3,-12,-10,-7,0,-2,-13,12
1517188707008460,6,24,13,9,4,3,15,-10
1517188707023499,4,-4,-2,0,-1,-4,6,33
1517188707023499,-6,-54,-11,-5,-3,1,1,17
1517188707023499,-2,-3,4,5,2,-2,7,6
1517188707023499,-16,-2,-16,-6,0,1,-6,-18
1517188707037478,-5,-21,6,-3,-3,0,-3,1
1517188707037478,-16,16,8,3,0,-2,3,13
1517188707038469,17,-7,-20,0,-5,-5,9,17
1517188707038469,-2,-9,4,-20,-3,-3,-7,-10
1517188707060507,-2,3,-17,-1,1,2,2,-14
1517188707060507,-2,-5,12,6,0,-2,-3,72
1517188707061494,-5,33,-5,-6,-2,-1,-13,-101
1517188707061494,11,-16,9,6,1,-1,-8,-4
1517188707083500,2,-16,-5,1,-2,-5,-16,1
1517188707083500,-8,-13,-1,-1,1,0,-3,-14
1517188707083500,9,6,-7,-3,1,1,3,29
1517188707083500,11,9,-13,-1,0,-2,3,11
1517188707097510,2,-6,-1,0,1,0,-8,-32
1517188707097510,12,4,-17,-5,-2,-4,-1,14
1517188707098517,-20,-17,-12,-3,0,1,8,11
1517188707098517,12,4,7,7,0,-1,-4,6
1517188707120536,0,23,12,-5,-7,-3,-7,9
1517188707120536,-14,-38,-10,-7,-6,-3,-3,-10
1517188707121537,2,5,2,-3,-2,-2,3,13
1517188707121537,12,11,12,5,-1,1,-2,2
1517188707142545,18,-1,-8,-2,0,1,18,62
1517188707142545,-11,1,2,-2,-3,-2,-10,-20
1517188707143542,-18,-7,3,-3,-1,-2,-6,-9
1517188707143542,-9,-7,-17,-3,0,-2,4,-7
1517188707157577,-4,13,5,7,1,-2,-3,4
1517188707157577,30,17,4,4,3,2,14,38
1517188707158576,-36,-23,2,-4,-5,-3,-6,-46
1517188707158576,-14,14,0,-2,-3,-2,-3,-12
1517188707180569,-1,21,-3,-1,0,1,9,16
1517188707180569,2,-19,-3,-2,-2,1,0,-6
1517188707181574,7,-5,1,6,4,1,-2,0
1517188707181574,-14,1,11,-1,-3,-3,4,-3
1517188707202595,1,-27,-14,-4,0,2,-3,-11
1517188707202595,3,25,11,-1,-3,-2,0,2
1517188707203585,4,-8,-15,6,-1,-2,6,18
1517188707203585,-7,-6,5,-10,-2,-2,-4,0
1517188707216594,2,1,4,4,1,0,0,-14
1517188707216594,19,-4,-6,-3,-4,-4,-3,-2
1517188707224601,27,40,-9,-2,-2,2,-8,15
1517188707224601,-9,-9,12,4,1,-3,-3,-9
1517188707240674,-5,-4,-5,-1,1,-1,-10,-20
1517188707240674,4,3,20,4,3,3,4,-9
1517188707241665,1,-7,-14,-7,-4,-1,0,16
1517188707241665,13,5,-6,-4,-2,-2,-8,-11
1517188707262719,-1,-17,-2,-5,-1,-4,-5,25
1517188707262719,-10,3,0,0,-1,-1,-8,5
1517188707263708,16,7,12,5,2,1,11,-10
1517188707263708,-7,22,-3,-7,-4,-3,-3,5
1517188707276731,5,-2,10,11,3,0,-2,-2
1517188707276731,-23,9,2,-2,-4,-4,-10,-36
1517188707284714,8,31,20,-2,0,-2,-5,-34
1517188707284714,-12,-39,-1,-9,-2,-3,1,1
1517188707300734,-10,19,9,0,-1,-1,-6,-14
1517188707300734,11,1,-13,-2,-2,-4,-6,21
1517188707301725,2,2,10,1,0,2,-1,-7
1517188707301725,-17,-46,-8,2,1,1,15,38
1517188707322755,-2,13,8,1,1,0,1,-36
1517188707322755,-21,-35,7,-12,-3,-4,-3,21
1517188707323743,12,4,-12,-7,-2,1,6,53
1517188707323743,-5,-6,5,3,0,-3,-4,-60
1517188707336760,-4,3,-24,0,0,-1,2,10
1517188707336760,19,-29,-18,-5,-4,-2,-1,-2
1517188707344774,7,9,17,11,1,-3,-5,10
1517188707344774,2,11,-21,-16,-4,1,-1,4
1517188707360787,-6,-14,5,-6,-6,-3,0,6
1517188707360787,-5,24,0,2,2,3,1,-18
1517188707360787,-13,-10,-4,-1,-1,-2,-2,-5
1517188707360787,10,15,-1,6,2,2,0,5
1517188707382793,-8,-20,-4,2,2,-2,7,21
1517188707382793,-6,5,-9,-10,-2,-2,-4,-30
1517188707383783,-8,-22,1,5,1,2,-1,-5
1517188707383783,14,25,-3,2,0,1,-3,-17
1517188707396844,10,-1,9,-1,-1,3,7,17
1517188707396844,0,-2,3,2,0,2,-3,27
1517188707404810,-9,2,-25,-6,-4,-6,-12,-74
1517188707404810,-3,-8,-4,4,-1,-3,4,38
1517188707420824,0,-35,-6,-7,-5,-5,-7,-53
1517188707420824,-31,20,-3,-6,2,3,4,3
1517188707420824,-19,-3,12,1,-1,-1,-18,-11
1517188707420824,-3,-12,-14,-2,-2,-3,-2,25
1517188707442828,7,6,-7,4,2,4,-1,-1
1517188707442828,-5,12,6,6,1,0,6,13
1517188707443825,0,-34,2,-3,-1,4,20,21
1517188707443825,16,3,1,2,2,2,-1,1
1517188707465841,-39,7,2,-4,-3,-1,1,1
1517188707465841,12,7,-6,-8,-7,-7,-10,-9
1517188707465841,31,5,-8,-1,0,0,5,29
1517188707465841,-6,-34,40,7,0,0,1,5
1517188707480861,7,24,-25,-12,-3,-2,-13,-48
1517188707480861,5,-31,4,5,0,0,-5,22
1517188707480861,-16,-17,0,-5,-3,-4,-5,22
1517188707480861,-4,-2,-8,5,1,0,0,-16
1517188707502875,4,2,5,2,-2,0,-1,18
1517188707502875,25,-1,1,6,2,0,3,-14
1517188707503886,6,1,2,-9,-5,-6,-17,0
1517188707503886,-1,23,8,4,0,0,-2,-20
1517188707516892,-21,-9,-2,-3,-2,-3,2,69
1517188707516892,44,39,9,8,1,0,1,-18
1517188707525910,-28,-33,-27,-9,-5,-1,9,15
1517188707525910,10,-2,17,-2,4,2,-14,-5
1517188707539908,9,5,-17,-6,-5,-2,-1,-5
1517188707539908,7,23,27,6,2,3,12,46
1517188707546898,-1,7,11,2,-4,-7,-10,-63
1517188707546898,2,-14,-9,0,0,2,11,20
1517188707562966,-5,4,14,5,2,1,-1,-36
1517188707562966,-22,-33,-20,-5,-5,-7,-16,-15
1517188707564910,-4,7,13,3,4,3,7,24
1517188707564910,32,14,-16,-5,-6,-5,-6,18
1517188707585947,5,24,1,1,1,-4,-1,-25
1517188707585947,-47,-29,-3,0,-4,-4,-7,-20
1517188707586927,26,27,-4,-2,1,1,16,47
1517188707586927,-17,-23,-16,-27,-9,-4,-12,-19
1517188707599979,31,-7,5,8,2,-1,-4,-18
1517188707599979,-8,18,2,6,5,4,18,36
1517188707606983,-15,-2,16,7,-1,1,-8,-46
1517188707606983,-8,14,0,6,-1,-4,6,-3
1517188707622996,3,-11,-18,-7,-2,-1,4,7
1517188707622996,7,-1,-12,-7,-2,1,-1,9
1517188707624996,-32,-16,5,5,-1,-1,3,7
1517188707624996,1,18,-10,-9,2,3,6,2
1517188707645011,9,-3,15,1,-2,0,14,47
1517188707645011,-29,-7,-21,3,-2,-1,-23,-94
1517188707647014,31,19,16,-7,1,3,-2,28
1517188707647014,-22,-19,-5,4,-2,-2,2,6
1517188707660021,-5,-12,14,1,3,3,10,-3
1517188707660021,23,30,3,-5,-1,1,19,38
1517188707667026,-8,-10,-34,-8,-6,-6,-6,5
1517188707667026,-7,25,21,10,1,-3,-4,-19
1517188707683050,20,1,-11,-5,-2,-2,-2,-1
1517188707683050,-1,19,9,10,-1,-2,16,16
1517188707685039,6,2,-5,-26,-5,-2,-26,-25
1517188707685039,-12,-17,-7,-2,-2,1,4,15
1517188707705053,-18,-6,-6,-8,-5,-5,-9,13
1517188707705053,3,-14,-10,0,1,0,-11,-73
1517188707707054,11,13,14,12,-1,-2,14,13
1517188707707054,7,-24,2,-9,0,0,-14,-12
1517188707720067,10,9,-6,2,0,2,8,27
1517188707720067,-29,9,4,0,0,2,0,-12
1517188707727114,8,13,10,10,4,2,7,24
1517188707727114,4,-10,-4,-8,1,-1,-6,-24
1517188707743170,-28,-25,3,3,-2,-4,1,3
1517188707743170,-1,4,19,-7,-1,-2,-7,3
1517188707745130,8,-1,-6,5,3,-1,-5,28
1517188707745130,-37,8,3,7,-2,0,-5,-45
1517188707765141,25,14,2,-7,-3,-2,-3,-6
1517188707765141,4,-11,-4,-10,-6,-6,-10,37
1517188707767130,-14,-2,12,3,1,1,8,-25
1517188707767130,28,36,12,14,2,0,9,-10
1517188707780150,-14,6,-23,-6,-4,-2,-20,-14
1517188707780150,-6,-1,11,1,-2,-3,-8,-8
1517188707787152,-14,-44,-17,-19,-4,-2,-22,-14
1517188707787152,-5,21,4,3,-2,-2,-7,-9
1517188707803164,-16,-19,20,10,5,2,4,9
1517188707803164,46,36,-4,10,2,-2,-6,-18
1517188707804165,-35,-45,-11,5,-2,1,2,-6
1517188707804165,14,20,-2,-20,-7,-4,-3,-11
1517188707825170,-6,-20,-4,5,2,3,-2,14
1517188707825170,-38,-42,-26,-18,-6,-6,11,-33
1517188707827171,25,27,-6,16,3,0,1,-3
1517188707827171,-11,-11,-21,-8,1,4,8,24
1517188707840180,-5,-17,9,-1,-2,-2,-3,-37
1517188707840180,-12,28,9,-5,-4,-7,-12,-10
1517188707846185,16,5,-9,-8,-3,0,9,30
1517188707846185,-42,-5,9,19,5,3,-1,-40
1517188707863257,8,19,1,-10,-3,-4,-6,-10
1517188707863257,3,-30,-11,-4,0,3,-3,9
1517188707864212,8,-1,-26,4,0,0,-2,-20
1517188707864212,8,-17,3,-2,-8,-6,13,0
1517188707885213,-17,22,9,-17,-2,-4,-10,-76
1517188707885213,17,-19,16,18,4,2,12,23
1517188707887225,13,14,2,-20,-2,1,2,39
1517188707887225,16,-21,-20,-9,-6,-3,2,29
1517188707899268,-3,15,-3,9,4,2,15,26
1517188707899268,29,-9,11,4,3,1,1,-8
1517188707906274,-46,-4,-11,-1,-3,-3,-10,-8
1517188707906274,6,-2,-17,-2,-1,-2,5,30
1517188707923288,-33,-20,12,17,2,-1,-16,-23
1517188707923288,35,26,-11,-12,-4,-1,1,24
1517188707924286,-19,-27,2,-14,-4,-3,8,-8
1517188707924286,31,17,-6,-4,-1,-3,-9,14
1517188707945360,11,2,8,1,-4,0,-3,-4
1517188707945360,-29,-24,-14,2,3,1,4,-6
1517188707947302,11,-7,13,7,-2,-4,-10,-34
1517188707947302,-4,-7,-11,-7,-1,0,15,68
1517188707959312,-1,-14,6,4,0,-2,-23,-84
1517188707959312,10,34,-10,-9,-4,-1,-5,10
1517188707966315,-41,10,9,0,-3,-2,-3,18
1517188707966315,24,26,14,5,-1,-1,-8,-15
1517188707983337,6,-63,-6,1,1,1,9,40
1517188707983337,-17,45,7,-8,-2,-3,-21,-42
1517188707984334,13,-11,-14,-1,-1,-3,-8,9
1517188707984334,-7,-12,-13,5,-1,-4,9,-31
1517188708005348,3,-2,-25,-8,0,4,9,39
1517188708005348,-13,6,24,5,-2,0,0,10
1517188708007354,13,-7,13,-6,-1,-1,6,29
1517188708007354,2,-2,-23,-4,0,0,-4,-11
1517188708019353,-4,-1,-6,4,-1,-1,4,43
1517188708019353,0,-13,-9,-8,-4,-3,-16,-69
1517188708026361,-5,27,10,10,2,0,15,-5
1517188708026361,28,3,-4,-3,-2,-2,-2,30
1517188708043370,-60,8,-1,-8,-3,2,-1,-7
1517188708043370,14,-17,-1,9,0,-2,-7,6
1517188708044371,-8,-25,3,0,-2,-1,-6,-19
1517188708044371,-14,-20,-2,-4,1,1,-2,-6
1517188708065389,19,25,9,1,-1,-4,1,-9
1517188708065389,-13,-19,-14,-3,-3,-1,14,22
1517188708067397,-4,18,-21,-1,-1,-2,0,-6
1517188708067397,-2,3,10,4,0,-4,-12,-27
1517188708079419,15,21,3,2,-1,-2,-1,12
1517188708079419,-21,-13,-13,-5,1,2,9,23
1517188708088402,17,-10,-3,2,-1,1,-2,-3
1517188708088402,-4,3,3,-5,-4,-1,6,28
1517188708103412,-1,11,8,-3,-6,-6,-11,-42
1517188708103412,-5,-9,8,-2,-2,-1,-5,6
1517188708104413,10,-1,2,1,0,2,-1,-7
1517188708104413,-1,-6,13,3,0,-1,0,15
1517188708125428,-39,-13,11,1,1,1,0,15
1517188708125428,6,-9,-20,3,1,-1,-1,16
1517188708127430,-4,-12,10,6,1,1,5,-18
1517188708127430,-10,-31,-22,-3,0,-4,-8,-9
1517188708139438,15,-2,-16,-8,-4,-5,-10,-10
1517188708139438,-11,-24,1,2,1,0,7,2
1517188708148448,7,31,2,-1,0,0,-3,-4
1517188708148448,13,6,13,4,0,0,0,3
1517188708163467,3,3,1,-4,-2,-2,-5,-1
1517188708163467,6,-16,0,-1,0,1,2,-20
1517188708164455,10,-3,-3,-4,0,-1,4,-1
1517188708164455,-3,17,14,2,-1,-1,-7,-11
1517188708185471,-1,18,0,-1,1,1,14,25
1517188708185471,-1,-11,-19,1,-6,-4,-11,10
1517188708187482,2,7,5,-17,-2,-2,-2,46
1517188708187482,-16,-7,-8,8,2,2,0,-59
1517188708199481,1,3,-9,-6,0,-2,-7,-13
1517188708199481,-3,-2,17,-2,-2,1,0,2
1517188708208486,-16,4,-1,3,-3,-6,1,4
1517188708208486,-26,15,13,1,-2,0,-6,14
1517188708222520,16,4,-10,-6,-3,-6,1,10
1517188708222520,1,-5,-3,1,-1,1,-3,13
1517188708224509,-3,38,19,-1,-1,1,-3,-28
1517188708224509,-8,-31,-16,-4,-2,-2,0,-2
1517188708245525,8,14,8,14,4,4,6,-2
1517188708245525,18,9,-1,-6,2,3,11,51
1517188708247529,-19,-40,-26,-3,-2,-3,-8,-30
1517188708247529,37,4,2,2,3,-1,-5,11
1517188708259523,6,7,4,-3,0,-1,-1,16
1517188708259523,-9,10,12,4,-1,-1,10,-9
1517188708268529,7,-20,-4,2,1,3,3,6
1517188708268529,-11,4,3,-4,-1,-3,-4,-3
1517188708282544,6,-16,-2,0,-4,-2,3,0
1517188708282544,0,1,-4,-4,-2,-2,-2,-1
1517188708284543,-6,-23,-17,4,1,-1,-6,-17
1517188708284543,1,8,2,-14,-2,0,0,8
1517188708305556,19,22,-9,1,-1,0,4,11
1517188708305556,-37,-5,13,3,1,0,-8,-58
1517188708307556,-7,-8,1,-2,-2,-2,-2,1
1517188708307556,14,-6,-3,9,2,0,6,20
1517188708319566,13,-17,-14,-10,-6,-3,-10,-15
1517188708319566,-32,-1,-12,-3,-1,0,2,12
1517188708328589,4,10,17,6,2,1,0,0
1517188708328589,-13,-4,7,-1,-1,-1,-2,-12
1517188708342585,-2,-5,-1,1,-1,-4,-3,6
1517188708342585,0,9,-9,-7,-3,-1,0,11
1517188708344583,-10,4,-8,-3,-1,-1,2,-4
1517188708344583,3,24,3,0,-3,0,0,-2
1517188708365602,-2,-26,-10,-2,-1,3,7,4
1517188708365602,7,9,-6,-4,-3,-4,2,-6
1517188708366623,-3,13,19,7,-1,-2,-10,-13
1517188708366623,-2,14,-5,-5,-2,-1,6,8
1517188708378623,-10,-25,-9,-1,1,0,-1,3
1517188708378623,11,3,0,-2,-2,-1,-4,-2
1517188708388616,5,7,1,0,-1,0,1,7
1517188708388616,-26,-14,-3,0,-2,-2,-6,-4
1517188708402624,-1,7,-3,1,1,1,1,3
1517188708402624,-1,-5,-4,2,-1,-4,1,-13
1517188708404626,13,3,-2,-14,-1,-3,-9,-3
1517188708404626,-2,-1,-15,-5,-3,-2,-3,-8
1517188708425662,-8,-6,-4,-4,0,2,0,16
1517188708425662,9,-18,-2,10,1,0,-7,-2
1517188708426662,0,2,-2,-4,-4,-5,8,17
1517188708426662,4,10,-8,-5,-3,-2,-2,-13
1517188708439650,0,3,15,-3,-3,-4,-9,1
1517188708439650,4,1,-12,1,3,4,11,13
1517188708453660,-6,5,8,0,-3,-1,-10,-10
1517188708453660,12,-17,7,-1,-1,-2,-1,5
1517188708462681,-11,5,-33,-4,-3,-1,0,-6
1517188708462681,-10,-12,14,-8,-2,-3,0,5
1517188708464668,-5,16,-3,2,1,0,0,-14
1517188708464668,19,-4,18,1,1,0,2,4
1517188708485683,14,-19,-13,0,-1,-1,-5,4
1517188708485683,7,12,8,-1,0,-2,-1,-5
1517188708486706,-14,-7,-5,-2,0,0,0,1
1517188708486706,-6,-18,-3,5,0,0,0,-3
1517188708507708,2,13,6,-3,0,0,1,-1
1517188708507708,-1,-9,-2,-3,-2,0,-4,3
1517188708509710,7,-17,-7,3,-1,0,0,-1
1517188708509710,-13,0,3,-1,0,-1,0,-2
1517188708522724,12,17,-2,-2,-3,-2,3,-5
1517188708522724,1,-8,2,-6,-1,-1,0,3
1517188708524711,-2,-13,8,0,-1,-2,-3,-2
1517188708524711,-21,11,-22,-1,1,0,5,2
1517188708545728,-7,6,10,3,0,0,-8,-30
1517188708545728,1,2,1,-2,-1,-2,-4,-5
1517188708546726,7,-23,-12,1,-1,-3,-1,10
1517188708546726,6,7,0,-3,-1,-1,-4,-1
1517188708567741,-6,0,6,1,1,1,-1,-1
1517188708567741,-8,8,-8,-3,-4,-2,7,-1
1517188708573769,36,12,-7,-2,0,-2,-14,-3
1517188708573769,-3,5,3,1,-4,-5,8,6
1517188708582752,-2,-8,-4,-2,0,1,1,21
1517188708582752,7,17,11,-2,0,1,-5,-3
1517188708584753,-9,-22,4,-3,-2,1,2,-21
1517188708584753,0,-1,-4,-1,-3,-3,4,8
1517188708605768,6,6,22,8,0,2,5,4
1517188708605768,-1,19,-2,-4,-3,-4,-9,-9
1517188708606768,-8,-4,6,0,1,2,7,6
1517188708606768,2,-10,-1,3,1,2,5,13
1517188708627823,-11,-15,-8,-5,-3,-5,-7,-13
1517188708627823,10,-3,5,-1,0,-2,1,11
1517188708629785,-1,17,-1,1,-2,-2,-1,-3
1517188708629785,-15,-3,-2,-7,1,0,-1,-4
1517188708641793,-4,-21,-1,-3,0,-2,4,8
1517188708641793,-9,-13,-1,0,-1,-2,-7,12
1517188708648800,6,-13,-8,0,-3,1,11,22
1517188708648800,-19,20,-7,-8,-5,-3,-9,2
1517188708665816,-3,1,-1,5,1,0,2,-11
1517188708665816,5,9,-2,9,1,2,1,-7
1517188708666811,-6,0,8,-12,-3,-3,-2,11
1517188708666811,1,-4,-3,5,2,-1,-9,-16
1517188708687830,-3,2,-6,-6,-3,0,1,-8
1517188708687830,6,1,5,7,2,1,1,4
1517188708689828,-3,14,4,0,0,-2,-6,-12
1517188708689828,-5,-16,-5,-5,-1,-2,-1,0
1517188708701866,10,6,12,1,1,-4,-2,-2
1517188708701866,-2,-14,-16,-5,0,3,2,4
1517188708708870,7,19,4,2,0,0,-2,-7
1517188708708870,-4,0,-1,0,0,-2,1,-6
1517188708725882,10,4,4,0,1,1,-3,-7
1517188708725882,-16,-18,0,-2,-3,-2,-1,-1
1517188708726883,2,1,0,-2,1,0,-1,4
1517188708726883,3,-12,-11,0,0,-1,2,7
1517188708748894,-4,11,9,1,-1,-2,-2,-1
1517188708748894,8,2,-6,-6,0,-3,0,-8
1517188708749892,-4,3,-13,1,1,0,-1,5
1517188708749892,-8,-11,3,-1,2,1,-5,-15
1517188708761925,-5,-11,-1,-3,-4,-3,7,6
1517188708761925,13,22,14,1,0,2,0,7
1517188708768912,7,2,-6,2,-1,0,1,-4
1517188708768912,-10,-3,3,-3,-3,0,-1,-4
1517188708785916,-4,17,-4,-3,-1,-2,-4,1
1517188708785916,-3,-6,-3,-3,-4,-4,-1,-8
1517188708786916,1,9,11,-2,-2,-2,2,4
1517188708786916,10,-8,7,3,-1,-2,-7,-9
1517188708806939,-3,-10,-8,-3,-2,1,-1,-5
1517188708806939,-8,-3,-1,-2,-3,-3,-2,4
1517188708815950,-22,-20,0,4,0,0,0,-11
1517188708815950,8,10,-1,-5,-2,0,1,19
1517188708821941,-6,-14,0,2,-3,-3,-2,-31
1517188708821941,-4,3,-11,-5,0,-1,-5,-5
1517188708828973,9,3,-1,0,-1,-2,-3,0
1517188708828973,2,-10,6,2,-1,0,0,2
1517188708844979,-8,13,-15,1,0,1,3,9
1517188708844979,13,6,20,3,2,1,0,1
1517188708846959,-5,-8,-23,-7,-6,-3,-2,-3
1517188708846959,-11,-17,0,6,2,0,0,-8
1517188708867983,11,6,-2,-12,-3,-5,-14,7
1517188708867983,-1,5,0,-1,-3,-1,0,-2
1517188708869982,6,-6,8,4,1,1,4,7
1517188708869982,1,13,6,1,-2,-2,-5,-9
1517188708881984,-3,-26,-7,4,0,-1,6,-4
1517188708881984,-8,-1,-5,0,0,0,1,1
1517188708888997,5,14,11,-2,0,-2,-3,-1
1517188708888997,-4,-25,-14,0,-2,-1,-2,9
1517188708905052,5,6,-17,-4,1,0,-2,5
1517188708905052,-5,-7,-6,-5,-2,2,3,2
1517188708907054,-34,-27,5,3,-1,1,-4,-38
1517188708907054,8,1,8,-4,-2,-1,-6,8
1517188708928085,1,12,-7,-1,0,1,9,7
1517188708928085,6,-14,-1,0,-1,-3,-4,0
1517188708930079,7,12,-12,-1,0,-2,-4,7
1517188708930079,-12,18,6,-4,-2,1,0,0
1517188708950075,-7,-18,7,0,-1,0,-3,-3
1517188708950075,1,2,-10,-2,-1,1,-7,-15
1517188708952085,0,6,2,-4,-1,-3,1,18
1517188708952085,8,27,6,2,2,0,4,-4
1517188708966089,-5,1,1,1,1,-2,-4,-8
1517188708966089,-13,-2,0,-2,-4,-5,5,7
1517188708967087,22,1,3,3,0,0,-11,-17
1517188708967087,-15,-10,-5,-4,-2,-2,2,-5
1517188708988116,2,-3,-13,-3,-1,-1,-5,-4
1517188708988116,0,8,4,0,-2,-2,-5,5
1517188708989103,-2,-5,5,-4,-4,-1,7,5
1517188708989103,5,21,1,1,-1,-1,2,5
1517188709002112,-3,-31,-5,-4,-3,-4,-2,2
1517188709002112,2,-2,10,1,0,-3,-2,5
1517188709010129,0,11,-20,-1,-3,-2,-3,-3
1517188709010129,-4,-24,-10,-5,0,0,-8,-17
1517188709025128,2,29,18,1,-2,0,4,4
1517188709025128,10,-11,-6,-2,-1,1,3,-6
1517188709027129,8,10,-3,-1,0,-3,-3,0
1517188709027129,-6,9,10,5,1,1,-2,-2
1517188709048174,5,2,7,0,-2,-2,1,5
1517188709048174,-6,9,-12,-2,0,-1,0,-25
1517188709049145,-21,-16,4,5,-2,-1,-3,-17
1517188709049145,29,-14,-3,-15,-1,0,-1,7
1517188709062163,-6,-11,-5,6,0,-2,-6,-14
1517188709062163,4,0,3,1,-2,1,2,11
1517188709070174,-11,-11,-13,-4,-2,0,-1,12
1517188709070174,3,2,6,2,-2,-4,-1,-1
1517188709085179,-6,9,10,1,-2,2,2,-11
1517188709085179,6,-8,-27,-8,-5,-3,-6,0
1517188709087173,-7,4,12,1,2,3,0,1
1517188709087173,7,3,-19,3,0,2,5,10
1517188709108186,-3,10,30,-2,1,-1,-8,-4
1517188709108186,-2,0,-6,-1,-3,-3,0,11
1517188709109186,-5,4,1,-3,-2,-1,-7,-22
1517188709109186,-11,-2,-9,-3,-3,-1,-6,-19
1517188709121207,0,0,-8,1,-1,-1,2,6
1517188709121207,7,-1,3,-4,-2,1,1,6
1517188709130217,-4,1,8,-1,-1,0,4,12
1517188709130217,2,-9,-5,4,-1,-2,8,24
1517188709145234,11,17,-8,-1,-3,-3,-7,-14
1517188709145234,-9,4,22,2,1,-1,-2,-11
1517188709147234,3,-4,-11,-1,1,1,2,7
1517188709147234,1,-5,-3,3,0,0,1,-8
1517188709168238,-18,-5,10,-6,-3,1,0,7
1517188709168238,-6,-3,-4,-1,0,0,2,6
1517188709169230,2,0,3,4,0,0,3,-3
1517188709169230,9,-1,-10,-5,-1,-6,-4,1
1517188709190247,-15,-8,1,2,2,0,-2,-12
1517188709190247,0,-7,-11,-2,-3,0,0,0
1517188709192245,7,-2,1,-2,-3,-3,1,9
1517188709192245,-9,11,12,3,-1,3,0,3
1517188709205270,5,-2,-5,0,0,1,1,2
1517188709205270,-4,-8,4,2,1,-1,-1,-3
1517188709207272,2,14,5,-1,-3,-2,-5,-7
1517188709207272,1,-3,-9,-4,-2,-4,-4,-5
1517188709228286,2,-10,7,2,0,2,5,21
1517188709228286,3,-6,-10,3,0,1,-1,-3
1517188709229272,10,-1,1,-2,-2,-1,-5,5
1517188709229272,-14,-3,-5,-1,-3,-4,-11,-35
1517188709241295,-2,-14,-5,0,0,-1,3,13
1517188709241295,-4,-8,3,2,0,0,1,11
1517188709250288,-7,6,-6,-5,0,-2,-1,-5
1517188709250288,11,-4,-6,-4,-3,-2,-1,-7
1517188709265298,16,-3,-6,1,1,2,3,10
1517188709265298,-8,12,9,2,-1,-2,-4,-8
1517188709267309,-7,-8,-11,-4,-1,-2,7,4
1517188709267309,-2,3,7,-1,0,2,2,5
1517188709288374,-4,-8,-8,-4,-2,-4,-12,-8
1517188709288374,23,14,-4,-4,-2,-2,-1,12
1517188709289375,-20,-24,2,1,0,-2,-8,-13
1517188709289375,10,31,24,4,2,0,10,20
1517188709301396,-2,-14,-25,-4,-5,-1,0,3
1517188709301396,-4,0,13,1,-1,-2,-1,-5
1517188709310400,-1,-5,-8,-1,-1,1,-1,-9
1517188709310400,-5,-2,-6,1,0,0,-3,17
1517188709325410,-4,-6,11,1,-2,-3,-3,-9
1517188709325410,-9,5,4,4,1,0,1,-12
1517188709327412,4,7,-3,-2,-1,-3,-2,5
1517188709327412,-13,-12,-3,-8,-2,-3,-2,-2
1517188709347440,4,0,-2,3,-1,1,2,-3
1517188709347440,-23,-15,-9,-5,-4,-2,-9,-19
1517188709349436,4,7,28,8,1,2,11,5
1517188709349436,-5,-7,-20,-1,-5,-3,-6,-9
1517188709361455,3,9,-3,-4,1,0,1,-2
1517188709361455,-1,-10,6,1,1,-2,2,-2
1517188709370433,5,8,0,-1,0,-1,-9,8
1517188709370433,-6,-2,4,-3,-1,-1,0,-14
1517188709385474,-7,-9,-7,-6,-3,-1,1,15
1517188709385474,4,-3,0,0,-1,2,2,7
1517188709387489,-8,-3,-5,-3,-2,-2,-6,-5
1517188709387489,8,-7,-10,-7,-3,-1,-4,-4
1517188709407502,-1,2,3,-1,0,-3,-3,-10
1517188709407502,-12,-13,-12,-3,1,-1,1,-1
1517188709409490,9,3,-2,1,1,-3,-3,24
1517188709409490,5,-11,4,1,-2,2,7,-47
1517188709421499,4,-8,-2,-3,-2,0,-2,-14
1517188709421499,-9,8,3,-1,0,-1,-1,4
1517188709430520,-2,-6,-11,-3,-2,0,0,-11
1517188709430520,9,4,0,2,2,0,5,23
1517188709445515,-2,11,1,-3,-3,-3,2,12
1517188709445515,1,0,4,-1,-2,-2,-6,-19
1517188709446517,3,-10,-9,-2,-2,2,4,6
1517188709446517,-5,-1,7,0,-1,1,-3,4
1517188709467539,8,19,7,-3,-1,-5,-2,-10
1517188709467539,-17,-21,-11,-5,-5,-4,-4,3
1517188709469534,5,-1,4,-3,-2,-1,3,-7
1517188709469534,-11,7,-1,3,3,2,9,26
1517188709490562,0,7,-7,-4,-2,-6,-16,-6
1517188709490562,4,1,-4,2,0,-2,2,2
1517188709491566,-1,5,-6,-9,-3,0,0,-8
1517188709491566,1,15,19,1,-1,-2,-6,-9
1517188709505569,-2,3,6,5,3,2,5,6
1517188709505569,5,3,-4,-1,0,2,5,14
1517188709506569,-7,-3,3,-1,-3,-3,-10,-36
1517188709506569,-4,12,4,1,0,-4,0,-2
1517188709527586,3,-16,-20,-6,-1,1,4,21
1517188709527586,-2,6,9,-1,0,0,-4,-17
1517188709529576,-5,-4,7,2,1,1,4,14
1517188709529576,9,-6,0,0,1,-1,-2,-5
1517188709550591,-5,0,-4,1,-1,1,2,1
1517188709550591,4,-2,-1,-3,-1,-3,-5,-23
1517188709551604,2,-7,6,0,0,0,2,9
1517188709551604,-3,6,-11,-7,-3,-4,-5,-7
1517188709565604,-8,10,5,3,2,0,-2,-2
1517188709565604,14,6,16,3,0,-1,6,16
1517188709566603,-7,-19,-26,-1,-3,-4,-6,-7
1517188709566603,6,27,20,-1,-3,-1,-3,5
1517188709587628,-6,1,9,0,-1,2,-4,-5
1517188709587628,4,8,-3,0,0,1,1,6
1517188709589628,2,0,-11,-1,1,0,6,-4
1517188709589628,-11,-28,-19,-4,-1,0,-2,2
1517188709610645,9,16,14,4,0,0,5,19
1517188709610645,-5,5,-1,-4,-1,0,-2,-6
1517188709611645,-5,-7,-6,-1,-2,-3,-4,-1
1517188709611645,-1,0,3,4,2,-1,0,2
1517188709624644,7,-13,-6,-1,1,4,3,5
1517188709624644,-21,-5,-5,-3,-3,-3,-5,-33
1517188709631658,4,0,5,-2,-3,0,5,9
1517188709631658,-8,-7,-4,-1,-1,1,-2,-9
1517188709647660,-9,-18,-7,-3,-3,-2,-3,-14
1517188709647660,16,-2,1,0,-2,2,1,28
1517188709649661,-5,-5,-7,-1,-2,-1,1,-6
1517188709649661,8,-2,2,3,-1,-1,-1,-1
1517188709670676,-8,-14,-9,-7,-4,-6,-9,-13
1517188709670676,0,-6,-9,-3,-2,1,1,1
1517188709671693,6,13,12,0,-1,-2,0,6
1517188709671693,-12,-19,-14,-1,-4,-4,-7,9
1517188709684685,1,3,8,1,-1,-1,-2,-9
1517188709684685,-1,-6,-19,-4,0,1,-1,6
1517188709691708,1,19,7,-1,-3,-2,-2,8
1517188709691708,3,-8,-1,-1,-1,1,-3,1
1517188709707711,-1,10,4,-3,-3,-3,6,0
1517188709707711,-2,-4,-2,2,1,1,-6,-7
1517188709709713,-8,-2,-6,-1,1,2,7,9
1517188709709713,15,-1,0,-3,-2,-1,-4,-5
1517188709730742,-6,-5,-4,1,-1,0,-6,-4
1517188709730742,7,8,3,0,-2,-1,2,12
1517188709731722,-3,24,2,-1,0,-2,-5,-16
1517188709731722,-6,-14,-12,-2,0,-1,2,0
1517188709743751,5,6,3,2,0,0,-1,-4
1517188709743751,-2,0,8,-1,-1,-2,0,-13
1517188709752746,-4,-17,-16,0,-1,-1,-1,2
1517188709752746,-7,7,7,2,-1,-3,1,-2
1517188709767745,-1,-2,1,-1,0,-1,1,-1
1517188709767745,-2,5,3,1,0,-2,-1,-2
1517188709769746,-3,-12,-1,-1,0,-1,-2,-2
1517188709769746,4,1,-1,-2,-1,0,-1,3
1517188709790781,1,4,-13,-1,-1,1,0,-3
1517188709790781,-2,2,5,0,-1,0,-2,1
1517188709791772,2,1,0,-1,-1,-2,-3,-2
1517188709791772,0,-4,-5,-2,-1,-3,0,-4
1517188709804770,-5,2,3,0,-1,-1,-1,-8
1517188709804770,1,-3,-5,-2,-3,-2,-2,1
1517188709811775,3,-4,0,-1,1,2,0,2
1517188709811775,-3,3,-1,0,1,0,0,-5
1517188709827802,-6,-4,-3,-3,-2,-2,0,2
1517188709827802,9,-3,-3,1,-1,-2,0,6
1517188709829803,-15,-10,1,1,3,0,-1,-3
1517188709829803,0,2,-1,-1,-3,-2,-3,-8
1517188709850822,-3,1,0,-2,-1,1,2,-1
1517188709850822,1,0,-1,-2,0,-2,-2,-1
1517188709851804,2,-3,-4,-5,-5,-5,-2,-1
1517188709851804,-6,-4,-4,1,4,-1,-2,-3
1517188709864832,2,0,-1,3,-4,-2,0,-1
1517188709864832,0,-6,0,-3,-3,-2,-4,4
1517188709871818,2,5,2,-2,-1,-2,0,3
1517188709871818,-7,-7,-2,0,1,1,-2,1
1517188709887829,1,0,-3,-4,-1,0,-1,-1
1517188709887829,-5,-3,-3,1,-1,1,-1,-4
1517188709889845,2,-4,1,0,-1,-1,-1,-1
1517188709889845,1,-3,1,-1,-1,-4,0,-1
1517188709910845,-1,2,1,3,1,-1,-3,-3
1517188709910845,-2,-4,-2,-4,0,-1,1,-1
1517188709911845,-4,-2,-4,-7,1,-1,-2,-4
1517188709911845,-1,0,-1,-1,-2,2,2,-1
1517188709924869,-1,-3,-4,-1,-1,-2,-2,2
1517188709924869,0,1,-1,0,-1,-3,-1,-3
1517188709931860,-1,-2,3,2,-1,-1,-1,-3
1517188709931860,-5,-3,-1,-3,-1,-2,-2,-2
1517188709947885,5,-2,-2,-2,1,-3,1,8
1517188709947885,5,-6,-1,-2,0,0,-3,-10
1517188709949874,0,1,0,0,-3,0,1,1
1517188709949874,3,3,-1,-3,-2,-2,-1,1
1517188709969897,5,-1,5,1,0,2,0,1
1517188709969897,-7,-1,-2,-1,1,-2,0,1
1517188709971889,3,-3,-2,-4,-5,-3,0,-1
1517188709971889,4,3,-1,-4,-1,-1,0,-1
1517188709983896,0,-3,-2,-2,-3,-4,-1,-3
1517188709983896,2,26,8,-1,0,0,-2,0
1517188709992917,3,-4,-1,2,1,0,-2,-4
1517188709992917,-1,-2,-2,-1,-2,-1,0,-1
1517188710007923,-9,0,-1,-1,0,0,-1,-4
1517188710007923,-4,-14,-4,1,-2,0,2,0
1517188710009925,-2,-1,-2,2,-2,-1,-1,-1
1517188710009925,3,4,-1,-3,-5,-1,1,0
1517188710029951,-2,-5,-6,1,9,0,-1,-2
1517188710029951,-6,-3,-1,-6,-1,0,-2,-1
1517188710031930,0,3,0,3,0,-1,-2,-2
1517188710031930,-1,-6,-5,-10,0,2,0,0
1517188710043953,-2,-3,0,1,-8,-4,-5,-3
1517188710043953,-3,-5,-2,10,1,-1,-1,0
1517188710052946,6,22,5,-8,-3,-1,-1,-2
1517188710052946,0,-2,-3,3,0,0,0,0
1517188710067966,0,0,-1,-2,0,-1,3,1
1517188710067966,3,18,7,0,-3,-2,-1,1
1517188710069968,-3,-8,-2,5,0,0,-3,0
1517188710069968,-1,-1,1,4,0,-2,0,-2
1517188710089975,-2,7,2,-5,0,2,0,-1
1517188710089975,1,-11,-3,1,-3,-3,-1,-1
1517188710091973,-2,-6,-2,-2,-2,3,1,2
1517188710091973,-3,-2,-2,-3,-1,-4,-2,-2
1517188710103982,-2,-7,1,2,1,0,0,-2
1517188710103982,-5,-5,-5,-6,-2,0,-1,-1
1517188710112989,-3,-5,-2,-5,0,1,-2,-2
1517188710112989,-1,-1,-1,1,-1,-1,-3,-2
1517188710128002,-1,2,2,1,-3,-2,-1,-2
1517188710128002,-1,-2,-3,-3,0,1,0,-2
1517188710129014,-1,0,0,-1,0,-2,-1,0
1517188710129014,5,-3,-5,-3,-3,0,0,-2
1517188710150026,-2,1,-4,-3,-1,0,-1,-1
1517188710150026,-2,4,2,0,2,1,3,0
1517188710152015,-3,-7,-5,1,-3,-6,-4,-4
1517188710152015,0,0,1,-1,0,0,-1,0
1517188710164034,0,0,2,1,-3,0,1,-1
1517188710164034,-4,-7,-8,-4,-2,-2,-4,-3
1517188710173031,0,-1,2,1,-1,1,1,1
1517188710173031,-2,0,3,0,-1,-2,0,0
1517188710188082,0,0,-3,-5,-4,0,-2,-1
1517188710188082,-2,-2,-3,0,-1,-2,-2,-1
1517188710189051,0,-2,-4,-3,0,0,0,0
1517188710189051,-2,-2,-2,-1,0,-2,-3,-2
1517188710210056,-1,-2,-2,-3,1,0,-1,-1
1517188710210056,1,-2,-1,-3,-2,-1,0,0
1517188710212068,-2,-4,0,0,-1,0,-1,0
1517188710212068,-2,-2,1,-2,0,-1,-1,0
1517188710224081,-1,-1,-2,2,-2,0,-1,-2
1517188710224081,-1,-2,-2,0,0,-4,0,-1
1517188710233074,0,0,0,-2,0,-2,0,-2
1517188710233074,-4,-2,0,1,-1,1,-1,0
1517188710248094,-1,-4,-2,-4,-1,-1,-2,-1
1517188710248094,2,-1,1,0,0,3,0,0
1517188710250090,-1,-2,-1,0,0,-1,-1,-1
1517188710250090,1,-1,-1,0,0,0,-1,-1
1517188710270113,-2,-3,-2,-2,-2,-3,-2,0
1517188710270113,-1,-2,0,0,-3,1,-1,-2
1517188710272110,-3,-1,-1,-1,-1,-2,0,-3
1517188710272110,-2,0,-3,-2,0,1,-1,-1
1517188710284168,-1,-2,-2,-2,-2,-2,-1,-1
1517188710284168,-1,-1,-1,0,-2,0,-2,-1
1517188710293174,-1,-3,-2,-1,-1,-2,-2,0
1517188710293174,0,-3,-1,1,-2,-2,1,-2
1517188710308195,-1,1,0,-2,1,0,0,0
1517188710308195,-1,-2,-2,-2,1,-1,0,-1
1517188710309185,-2,0,-2,0,-2,0,0,0
1517188710309185,-1,0,-2,-2,1,-1,-2,-1
1517188710330226,1,-2,-1,0,0,0,-2,-1
1517188710330226,-1,-2,0,-1,-2,-2,-2,0
1517188710332207,0,-2,-1,-1,-1,0,-2,-2
1517188710332207,-1,-2,1,-2,-1,-1,-2,0
1517188710344234,-1,0,1,1,-2,-1,-1,-1
1517188710344234,-1,-1,-2,0,1,-2,-1,-1
1517188710353217,0,0,-3,-1,-1,-3,0,-1
1517188710353217,-1,0,-1,1,-2,-1,0,0
1517188710368238,-2,-1,-3,-2,0,-1,-1,-1
1517188710368238,-3,0,0,-2,-1,0,-1,-1
1517188710369228,0,0,-1,0,-1,1,0,-1
1517188710369228,-2,-2,-3,-1,-2,0,1,-2
1517188710390260,0,-1,-1,-1,-2,0,0,0
1517188710390260,1,-1,-3,0,-1,-3,0,0
1517188710392245,-3,-1,-2,-2,-1,-2,-2,-1
1517188710392245,-2,-2,-1,-2,-2,-2,-3,0
1517188710413259,0,-2,1,-1,-1,1,-1,0
1517188710413259,-2,-1,-1,0,-4,0,0,-1
1517188710414260,1,-1,0,-1,0,-1,0,1
1517188710414260,-1,-1,-5,-1,-1,-1,-1,-2
1517188710428288,-2,2,-1,-2,0,0,-1,-2
1517188710428288,-1,0,-2,0,-2,0,-2,-1
1517188710429271,-1,-2,-2,1,0,1,-1,-1
1517188710429271,0,-1,1,0,-1,0,1,-2
1517188710450287,-1,-2,-2,0,-2,-2,-1,0
1517188710450287,-1,-2,-1,-1,0,0,-1,-1
1517188710452296,1,1,-1,-1,-3,1,0,1
1517188710452296,-1,-1,-1,0,-1,0,-1,-1
1517188710473309,-1,-2,-1,-2,-2,0,0,0
1517188710473309,1,-2,0,-1,-2,0,0,0
1517188710474304,-3,-2,0,-1,-1,-2,-2,-1
1517188710474304,-1,0,-2,-1,-1,-2,-2,0
1517188710488324,-2,-2,0,0,-1,2,-3,-1
1517188710488324,-3,-1,-2,-1,-1,-2,-1,-3
1517188710489314,0,-1,-1,-2,0,0,0,-2
1517188710489314,-2,-4,2,0,0,0,0,0
1517188710510331,-1,0,-3,-2,0,1,-1,-2
1517188710510331,-1,-2,-1,0,-1,0,-2,-1
1517188710512339,-1,1,-1,-3,0,-4,0,-1
1517188710512339,-2,0,-2,-2,-2,-2,-2,-1
1517188710533345,0,-2,-1,-2,0,0,1,0
1517188710533345,0,0,0,0,0,0,1,1
1517188710534346,-2,-2,-2,-1,0,-1,-1,-1
1517188710534346,1,-1,0,-1,0,-1,-1,0
1517188710547375,-2,0,0,0,-3,-5,-1,-1
1517188710547375,1,1,-2,-1,-2,-1,-1,-1
1517188710554380,-1,1,-2,-1,-2,-2,-1,-2
1517188710554380,0,-1,-1,-1,-2,-1,1,-1
1517188710570374,-1,-2,-1,3,-1,-2,-2,-1
1517188710570374,-1,1,-2,-3,0,-3,-1,-2
1517188710572385,-1,-1,0,-2,-3,0,-1,-1
1517188710572385,-2,0,-1,0,-1,0,0,0
1517188710593387,-2,-2,-1,-2,-2,-2,0,0
1517188710593387,-2,-2,-1,-2,-3,-1,-1,-2
1517188710594390,0,-1,-1,0,-2,-1,-1,-1
1517188710594390,1,1,-1,-1,0,-4,-2,-2
1517188710607413,-1,0,-2,0,-2,2,-2,-3
1517188710607413,0,-1,0,-1,-1,-2,0,-1
1517188710614417,-1,-2,-1,-1,-1,-2,1,-1
1517188710614417,-1,-2,-2,-1,-1,-1,-3,1
1517188710630423,0,-2,-2,0,-1,-1,0,0
1517188710630423,-1,-2,0,0,1,-2,-2,-2
1517188710632415,-2,-2,-2,0,0,-1,0,-2
1517188710632415,-2,-1,1,-1,-1,-2,1,-1
1517188710652431,-1,0,-2,0,-1,-2,-3,-2
1517188710652431,-1,-1,-2,-4,-2,-3,0,0
1517188710654431,-2,-1,-1,0,0,1,0,0
1517188710654431,-2,-1,0,-2,-1,-2,0,-3
1517188710667444,-3,-4,2,-1,0,-1,1,-1
1517188710667444,-1,-2,-3,0,2,-1,0,0
1517188710674447,0,0,0,-2,0,-1,-3,0
1517188710674447,-1,-3,-2,-3,-1,0,-2,0
1517188710690474,0,0,-2,-1,1,-3,-1,-2
1517188710690474,-2,-1,0,-1,-2,1,-2,-1
1517188710692460,1,-2,-1,-2,-2,-1,-2,0
1517188710692460,0,0,-2,-1,-1,0,0,0
1517188710712491,0,-1,-2,-1,-2,-3,-1,-1
1517188710712491,-2,-1,-2,-1,0,1,-1,0
1517188710714493,-2,-2,-1,-1,0,2,0,-2
1517188710714493,-1,-2,-2,0,-1,-1,-2,0
1517188710727482,0,-1,-1,-2,-1,-2,0,0
1517188710727482,0,2,-1,-1,-1,1,-1,-1
1517188710734487,-2,-2,-1,1,0,-3,-2,-1
1517188710734487,-1,-2,0,0,0,-1,-2,-2
1517188710750501,0,-1,-1,-1,-3,0,-2,-3
1517188710750501,-2,-1,-3,0,-1,0,-1,1
1517188710751513,0,0,-2,0,0,-2,-1,-2
1517188710751513,-1,1,-4,-1,-2,0,0,0
1517188710772528,-1,-1,-1,-1,-1,-2,-1,0
1517188710772528,0,-3,1,-1,1,0,-1,1
1517188710774515,-1,-4,-4,-2,-2,-2,-2,-2
1517188710774515,0,-1,-1,-2,2,0,-1,-1
1517188710787525,0,-2,-1,0,-1,1,0,-1
1517188710787525,-1,-1,-1,-2,-2,-2,-2,-2
1517188710795530,-2,0,1,-1,-3,0,-2,-1
1517188710795530,0,-1,0,-1,-2,-3,0,0
1517188710810542,-2,0,-5,-2,-1,0,-2,-2
1517188710810542,-1,1,-1,-1,-1,-3,-1,-2
1517188710811552,0,1,0,-2,-2,-1,1,0
1517188710811552,-1,-2,-1,-2,-1,-1,-1,-1
1517188710832558,0,-2,-1,0,-1,0,-1,0
1517188710832558,-7,-4,-1,-1,-1,-2,1,-1
1517188710834558,-1,-2,-2,-1,-1,-3,-2,-2
1517188710834558,-2,-2,-2,0,-2,-2,1,-3
1517188710847576,0,-1,0,-1,0,-2,0,-1
1517188710847576,1,1,0,-1,-1,-1,0,-3
1517188710853570,-1,-2,0,-1,-1,1,0,1
1517188710853570,-2,-1,-1,-2,-2,0,1,-1
1517188710870583,-1,-1,1,-1,-3,-1,-1,-1
1517188710870583,1,-2,1,-1,0,-1,-1,0
1517188710871585,0,-1,-1,0,0,-2,-2,-2
1517188710871585,-1,-2,-2,0,0,2,-2,-2
1517188710892608,-2,0,1,-1,-2,-1,0,-1
1517188710892608,0,-1,-3,-1,-2,0,-2,-3
1517188710894605,1,-1,-2,0,-1,-1,0,1
1517188710894605,-1,0,-1,-1,-2,0,-3,0
1517188710906623,-3,0,1,-1,-1,0,0,0
1517188710906623,-1,-1,-1,-2,-1,-3,-1,-2
1517188710915616,-2,0,-2,-1,0,-1,-2,-2
1517188710915616,-1,0,-2,-2,0,-1,-1,0
1517188710930634,-1,-1,-2,0,1,1,0,0
1517188710930634,0,-5,2,-1,-2,0,-1,0
1517188710931626,-1,-1,1,-1,0,-1,-2,-3
1517188710931626,-1,0,0,-1,-3,-1,-1,-1
1517188710952655,1,1,-1,0,0,-1,-1,-2
1517188710952655,-1,0,-2,-2,-1,-1,-1,-1
1517188710954657,1,-1,-1,0,-1,-2,2,0
1517188710954657,-2,-1,0,0,-1,-2,0,0
1517188710966652,-2,-3,0,-1,0,1,-1,0
1517188710966652,0,-3,-1,-1,-1,-1,1,-2
1517188710975657,-2,-2,-1,-1,-1,0,0,0
1517188710975657,1,0,-1,-1,-3,-1,0,-2
1517188710990678,0,1,-1,-1,-1,-3,-1,1
1517188710990678,-1,-1,-2,-2,2,-2,-1,-4
1517188710991679,-1,0,0,-2,-1,0,0,-1
1517188710991679,-2,-3,0,-1,-1,0,-1,-2
1517188711012698,0,-2,-1,-1,0,-3,-2,-1
1517188711012698,-2,0,0,0,-1,2,0,1
1517188711014695,-1,-1,-6,-2,-2,-4,-1,0
1517188711014695,-2,2,-2,-3,0,-2,-1,-1
1517188711026708,0,0,-2,-1,0,1,-2,-2
1517188711026708,0,0,-3,-1,-2,-2,-1,-1
1517188711035701,1,-1,-2,-2,-1,-2,1,-1
1517188711035701,0,-2,-1,0,0,-1,-1,0
1517188711050712,0,-3,0,-2,-1,-3,0,0
1517188711050712,-2,1,-1,-2,0,-1,-2,0
1517188711051711,-2,-1,0,-1,-1,-1,-1,-1
1517188711051711,-2,-1,0,-1,-2,0,-2,-1
1517188711072726,-3,-1,-1,-1,-2,-2,0,-1
1517188711072726,-1,-1,-2,0,-1,1,-2,0
1517188711074727,-2,-2,-1,0,-1,-1,0,1
1517188711074727,-1,-3,-2,0,0,-2,-2,-2
1517188711086750,-2,-2,-2,0,-1,-2,1,-2
1517188711086750,1,-2,-1,-1,-3,-1,0,0
1517188711096753,1,-3,-1,-2,0,1,0,-2
1517188711096753,0,0,-1,-2,-2,-1,-1,0
1517188711110753,-2,-1,-1,0,0,-2,0,2
1517188711110753,-3,-2,0,-1,0,-1,-2,0
1517188711111753,-1,0,-2,0,-2,1,-1,0
1517188711111753,-3,-3,0,0,0,-3,-2,-3
1517188711132770,1,0,-2,-2,-2,-2,0,0
1517188711132770,-4,0,0,-2,0,-1,1,0
1517188711134770,0,-4,-2,-1,-2,-2,-1,-2
1517188711134770,-2,-3,-2,0,-2,0,1,-1
1517188711146832,-1,0,0,-1,-2,-1,-3,-3
1517188711146832,-1,0,-1,-1,0,-1,0,-3
1517188711155784,-4,0,-1,-2,-1,-1,0,0
1517188711155784,0,-1,1,-2,-1,-3,0,1
1517188711170804,-3,-2,0,-2,-2,0,-2,-2
1517188711170804,0,-2,-2,0,-2,-1,-1,0
1517188711171796,0,-2,-1,-2,-1,-1,-1,-1
1517188711171796,-1,-2,-2,0,-1,-1,-1,-3
1517188711192841,0,0,-1,-2,-1,1,-3,-2
1517188711192841,1,-1,-1,-2,-1,-1,-1,-1
1517188711194850,-2,-1,0,0,0,0,-2,0
1517188711194850,1,-2,-2,-3,-2,1,-1,-2
1517188711206862,-2,-2,-1,-2,0,-1,-1,1
1517188711206862,-2,-2,1,-2,-1,-2,-1,-1
1517188711215853,-1,1,0,0,0,-3,-1,-2
1517188711215853,-2,0,-1,-2,-1,0,-1,-1
1517188711230871,-2,-2,-1,-1,0,-2,0,-2
1517188711230871,0,-2,-2,0,0,-1,0,0
1517188711231876,0,-2,-2,-1,0,-2,-2,-2
1517188711231876,-1,0,-1,-1,1,-1,-3,-1
1517188711252878,-1,-1,-1,0,-2,0,0,-3
1517188711252878,0,-1,-2,-2,-1,1,-1,1
1517188711254879,-1,-1,-1,-2,-1,1,-2,-1
1517188711254879,-1,-1,-2,0,-1,-1,0,-1
1517188711266888,-1,-2,-2,-2,-2,0,-1,0
1517188711266888,1,-1,-2,0,0,-2,-1,1
1517188711275931,-5,-1,-1,0,0,-1,-1,0
1517188711275931,0,0,-2,1,-2,-2,-1,-1
1517188711290010,-1,-1,-1,-1,-2,0,0,-1
1517188711290010,1,-1,-2,1,-2,1,-1,-2
1517188711291990,0,0,0,-3,-1,-2,0,0
1517188711291990,-1,-1,-1,0,0,-1,-1,-2
1517188711313004,-2,1,-2,0,-1,-3,0,-3
1517188711313004,-3,0,-1,-3,1,-1,-1,-3
1517188711314004,-1,-2,-1,-1,1,-1,-1,0
1517188711314004,-2,-2,0,-2,0,0,-1,0
1517188711335020,-1,-1,-2,-1,-2,0,-3,1
1517188711335020,-1,-1,-1,1,-1,-2,-2,-2
1517188711337022,-1,1,-1,-2,-2,-3,-1,-1
1517188711337022,1,1,0,-1,-1,0,-1,-2
1517188711351073,-1,-3,-1,-1,0,0,-1,0
1517188711351073,-1,-1,1,0,-2,-1,0,-3
1517188711352072,0,-1,-2,1,0,-2,-1,0
1517188711352072,1,-1,-2,-1,-2,0,1,1
1517188711373097,-1,0,0,-2,1,-1,0,-1
1517188711373097,-2,0,-2,-2,-1,-1,0,0
1517188711374088,-1,-1,-1,0,-1,1,-1,-1
1517188711374088,-2,-1,0,-2,-1,-1,-2,0
1517188711395141,-1,-3,-4,-2,0,-1,-2,-2
1517188711395141,-1,-1,-1,-1,-2,-1,-1,-1
1517188711398106,-3,-2,-1,-1,0,0,0,-1
1517188711398106,1,-2,-1,1,-2,-1,0,0
1517188711410123,-1,0,1,0,-1,-2,0,-1
1517188711410123,-2,-1,-1,-1,-1,0,-1,0
1517188711412130,1,-1,-1,-1,-2,-1,-1,-1
1517188711412130,0,-1,-1,1,-1,1,2,-1
1517188711433134,0,0,0,0,0,1,-1,-2
1517188711433134,-1,-1,-2,0,-2,-2,0,-2
1517188711434133,-2,-1,0,-2,-1,1,-1,0
1517188711434133,-3,-1,-1,-3,-1,1,-2,-3
1517188711455155,-2,-2,-1,-2,-2,1,-2,0
1517188711455155,-2,-1,0,-1,-2,-1,-2,-1
1517188711457148,-1,-4,-2,1,-1,-3,-1,-2
1517188711457148,-1,-1,-2,-1,0,-1,-3,-1
1517188711469166,0,-2,-2,-2,-2,-3,1,1
1517188711469166,-1,-1,-1,-2,0,-1,0,0
1517188711478161,-2,-1,-2,-1,1,0,0,-2
1517188711478161,0,1,-2,-1,-1,-2,-1,-1
1517188711493188,-1,-1,0,-2,1,0,0,-3
1517188711493188,-1,-2,-3,-2,-2,-2,-2,0
1517188711494174,0,0,-3,-1,-2,-1,-3,-2
1517188711494174,1,-2,-1,-3,0,-3,0,-1
1517188711515198,-3,-2,-2,-2,0,-1,-2,-2
1517188711515198,-1,-3,0,0,-2,-1,1,-1
1517188711517191,-1,-3,-1,0,-3,-2,-2,-2
1517188711517191,-3,0,-2,-2,0,-1,0,1
1517188711529221,0,0,-1,-3,-1,0,1,0
1517188711529221,1,0,-2,-2,1,0,-2,-1
1517188711538205,0,-1,-3,-1,-3,-2,0,1
1517188711538205,-2,-2,0,-1,-1,1,-2,-1
1517188711553224,-1,-1,0,0,-1,-1,1,-1
1517188711553224,-1,1,-2,0,0,0,-1,1
1517188711554226,-1,0,1,0,-1,-1,-1,0
1517188711554226,-1,-2,-2,-1,-1,-3,-1,-1
1517188711575251,-1,-1,-1,-2,-1,-2,-1,-1
1517188711575251,-2,0,-1,-1,-2,-1,-2,-1
1517188711577256,0,-1,-2,-3,-1,-2,-2,-2
1517188711577256,-1,-2,0,-1,0,0,0,-1
1517188711589250,-1,1,-2,1,-3,-2,-3,-1
1517188711589250,0,-3,-1,0,0,0,1,-1
1517188711597247,-4,-2,-2,-1,-1,-1,-1,0
1517188711597247,0,-2,-1,-2,-1,0,-3,-3
1517188711613257,-1,-1,-2,-2,-2,0,-4,-1
1517188711613257,1,-1,-1,-1,-2,-2,0,-1
1517188711614259,-1,1,-1,-2,-2,-1,0,-2
1517188711614259,0,-1,0,-1,0,-2,-2,-1
1517188711635272,0,0,-1,0,1,0,0,-1
1517188711635272,0,2,-1,-3,-1,0,-1,-1
1517188711637286,-2,0,-1,-1,1,0,0,-3
1517188711637286,-2,1,-2,0,-2,-2,-1,-1
1517188711650283,-3,-1,1,0,-2,-2,0,-1
1517188711650283,-2,-1,-2,0,0,0,-1,-3
1517188711656298,2,0,2,-1,1,-1,-2,1
1517188711656298,-1,-1,-2,-1,-1,-1,1,1
1517188711673300,-1,-3,-1,-2,-2,-1,-5,-4
1517188711673300,-1,-1,0,-2,-1,-1,0,-1
1517188711674301,-1,-1,-1,-2,0,-3,-2,-1
1517188711674301,-1,0,2,1,-1,0,0,-2
1517188711695325,0,-2,0,0,-1,0,1,0
1517188711695325,-3,0,-3,0,0,-3,-2,0
1517188711698327,-2,-4,-1,-1,-1,2,1,-2
1517188711698327,-2,0,-1,-2,-2,0,-1,-2
1517188711709335,-1,0,0,0,-1,1,0,2
1517188711709335,-1,-2,-1,1,0,-1,-2,0
1517188711716330,0,-1,-1,-2,0,1,-1,0
1517188711716330,-2,-1,-1,0,-1,0,0,-3
1517188711733342,0,0,-1,2,0,-1,-2,-1
1517188711733342,0,-2,-1,-4,-1,-1,0,-1
1517188711734343,0,-2,-1,-1,-1,0,0,1
1517188711734343,-1,-1,0,-2,-1,-3,-1,-1
1517188711754366,-2,-2,-1,-2,1,0,-1,-1
1517188711754366,0,-1,-1,-2,-3,0,0,1
1517188711755363,-1,-2,-4,-1,0,-2,-1,-3
1517188711755363,-1,-2,-1,-2,0,0,-1,-1
1517188711769418,0,-2,-2,-1,-1,-3,0,-2
1517188711769418,-3,-1,0,-1,1,0,-1,-1
1517188711777486,-1,-2,1,-1,-2,-1,0,0
1517188711777486,0,-1,0,0,-1,0,-1,1
1517188711792496,-1,-1,-2,0,0,-1,-1,-1
1517188711792496,-2,-1,1,-2,-1,-1,-2,-2
1517188711793490,1,0,-1,-2,-1,0,-1,-2
1517188711793490,-1,0,0,-1,1,-1,-3,0
1517188711814505,-2,-1,-2,-1,-2,0,1,-1
1517188711814505,-1,-1,-1,-1,-2,0,-2,1
1517188711815490,-4,1,-2,0,-1,0,0,-2
1517188711815490,-1,0,-1,-2,0,0,-2,-1
1517188711828502,1,0,0,-1,-1,-1,0,-1
1517188711828502,-4,-2,0,1,-2,-4,-1,-1
1517188711837513,0,-2,-2,-3,-3,-2,-2,1
1517188711837513,-1,-2,1,-1,-3,-2,-1,0
1517188711852531,-2,1,-1,0,-1,1,0,2
1517188711852531,0,-1,-2,0,-1,-1,-4,-6
1517188711852531,-2,-1,0,1,-2,-1,0,-3
1517188711852531,0,-2,-3,-2,-4,-4,-1,-1
1517188711874556,0,0,-1,-1,-2,0,-1,-1
1517188711874556,-2,0,0,0,-1,0,-1,-1
1517188711875533,-2,0,-2,-2,0,-2,-1,-1
1517188711875533,0,-1,-2,1,0,0,-1,0
1517188711888548,1,-1,0,-2,-2,-1,-2,-1
1517188711888548,-2,-2,-1,-1,-1,0,2,0
1517188711897562,0,-2,0,0,0,-2,-1,-3
1517188711897562,0,-1,-2,-2,-4,-1,1,0
1517188711912562,1,-1,0,-1,-1,-1,-3,0
1517188711912562,-3,-1,-2,-2,1,-1,0,-1
1517188711912562,3,0,0,-3,-3,-2,-3,2
1517188711912562,-2,1,-3,-2,-2,0,0,-3
1517188711935578,-1,-2,0,0,0,0,-1,-2
1517188711935578,1,-1,-1,-1,-2,-2,0,-1
1517188711935578,-1,0,-2,0,1,-2,-2,-2
1517188711935578,-1,-1,-1,-1,-1,0,-1,-1
1517188711948607,-1,-1,0,-3,-1,-1,2,0
1517188711948607,1,-2,-1,0,0,-1,-4,-4
1517188711957614,-3,0,0,-1,0,0,1,0
1517188711957614,0,-2,1,-1,0,-2,-2,-4
1517188711972616,-1,1,-2,-1,1,-1,-1,1
1517188711972616,0,-1,-1,0,-1,-1,2,1
1517188711972616,2,-1,-2,-1,-1,1,-2,-1
1517188711972616,-2,-1,-1,0,-1,1,-2,-1
1517188711994632,0,-2,-1,-1,1,-1,0,0
1517188711994632,1,0,-1,-1,0,0,0,0
1517188711995628,-2,1,-1,0,-3,-1,0,-1
1517188711995628,-1,-1,-2,-1,0,0,0,1
1517188712008637,0,-2,-2,0,0,-1,-2,0
1517188712008637,2,-1,-1,-1,-1,-1,-1,0
1517188712017634,-4,-1,-1,-2,-2,-1,-1,-2
1517188712017634,0,-1,1,-2,0,-2,-1,-2
1517188712031677,-2,0,-2,-2,-1,-1,-1,-4
1517188712031677,-1,-2,-1,-1,0,-1,-1,-2
1517188712032651,3,0,1,0,-2,1,0,0
1517188712032651,-1,-1,-1,0,-2,1,1,0
1517188712054669,-2,0,-2,-1,-2,-1,0,-1
1517188712054669,-1,0,0,0,-1,-2,-3,-2
1517188712055662,-2,-3,-1,-1,1,-2,0,0
1517188712055662,-1,-1,-2,-1,1,-1,-2,0
1517188712068671,0,-1,0,-1,-2,1,-2,-2
1517188712068671,-1,-2,-2,-2,-1,0,0,0
1517188712077710,-2,-3,-2,-1,0,-3,-1,0
1517188712077710,-2,-2,-1,-1,-1,0,-1,0
1517188712091697,-2,-2,0,-1,-2,-3,-1,0
1517188712091697,1,1,-2,-2,-1,-1,-2,-1
1517188712092699,-2,-1,-1,-3,-1,0,-1,-3
1517188712092699,-1,-1,0,-1,-1,-1,-2,-1
1517188712114703,-1,-2,0,-1,-3,-2,0,-2
1517188712114703,-2,-3,-1,-1,-1,-1,0,0
1517188712115704,-1,-1,-2,0,-2,-1,-3,0
1517188712115704,0,0,-2,-2,-1,0,-1,-1
1517188712128727,-1,-1,0,-1,0,-2,-2,-3
1517188712128727,-1,1,0,-2,0,-1,-1,0
1517188712137721,-1,-1,-2,-3,-1,1,0,-1
1517188712137721,-1,-2,-1,0,-1,1,-1,-3
1517188712152731,-1,-1,-1,-1,0,-3,-2,-2
1517188712152731,-2,-1,-2,-2,-1,1,1,-1
1517188712152731,1,-1,-2,-1,0,-1,-2,-2
1517188712152731,1,-1,-1,0,-1,-2,1,0
1517188712174764,-3,0,0,1,0,1,-1,0
1517188712174764,0,-1,-1,-1,-2,0,-2,0
1517188712175761,1,1,-1,-3,-1,0,-2,0
1517188712175761,1,-2,-3,-2,-1,-3,1,-1
1517188712188756,0,-2,-2,0,0,0,0,0
1517188712188756,-2,-3,-2,-1,-1,-3,-2,-2
1517188712197762,-1,-2,0,-1,0,-1,-1,2
1517188712197762,-1,-2,0,0,-1,0,-1,-2
1517188712211782,0,0,-2,0,-1,0,-3,-3
1517188712211782,-1,-1,-2,0,0,0,0,-3
1517188712212771,-1,-2,-1,-1,-2,-2,-1,-3
1517188712212771,0,-1,0,-2,-1,0,-1,0
1517188712234787,1,-2,-1,-1,0,-1,-1,1
1517188712234787,0,-2,-2,-1,-3,-2,-1,-1
1517188712235799,-1,0,0,-1,1,-1,-1,-2
1517188712235799,-3,0,-1,-1,-1,-2,-1,0
1517188712248807,-1,-1,-1,-3,-1,1,-2,-2
1517188712248807,-2,-1,-1,-2,0,-3,-2,-2
1517188712256813,-1,-1,-2,1,0,-2,-1,0
1517188712256813,1,-1,0,-1,-1,-2,-2,-2
1517188712271813,-5,0,0,0,-1,-1,-1,-1
1517188712271813,-1,-2,-2,-3,-1,0,-1,0
1517188712272816,-2,-3,-2,-1,-1,0,0,0
1517188712272816,-2,1,0,-1,1,1,0,-4
1517188712294829,0,-2,-2,-2,-1,-2,0,1
1517188712294829,-2,-2,0,-2,-3,1,-2,0
1517188712295830,-2,-1,-2,-1,-3,-2,-1,-2
1517188712295830,-1,-3,-1,-2,-2,-2,0,1
1517188712317846,-2,0,0,0,-1,-1,-1,-2
1517188712317846,0,-2,0,-2,0,0,0,1
1517188712318847,0,0,-1,-2,0,1,-1,0
1517188712318847,-1,-1,-2,0,-2,0,-2,1
1517188712331856,1,1,-2,-1,-2,-1,-1,-2
1517188712331856,-1,-1,-1,-1,-2,-3,-2,0
1517188712332857,0,-2,-1,-2,0,0,-1,-2
1517188712332857,0,0,-1,1,-1,-1,-2,1
1517188712354873,-1,-1,-2,-1,-1,2,-2,0
1517188712354873,0,0,-1,-1,-1,-1,-2,0
1517188712355874,0,-3,0,-3,-1,-1,-2,-1
1517188712355874,0,-1,-1,-1,-3,-3,-1,0
1517188712377888,0,-1,-1,-1,-1,-2,-1,-1
1517188712377888,1,0,-2,1,-1,-2,0,-2
1517188712378891,-4,-1,-1,-1,-4,-1,-1,-1
1517188712378891,-1,-3,0,-1,0,-2,-3,-4
1517188712391907,0,-1,0,0,-1,-2,0,2
1517188712391907,-1,-2,-1,0,-1,1,-1,-3
1517188712392902,1,0,-1,1,0,-2,1,-1
1517188712392902,-2,-2,0,0,-2,0,-5,-2
1517188712414924,-2,-1,-2,-2,-2,-1,-1,-1
1517188712414924,-1,1,-1,-1,0,1,-1,-1
1517188712415915,1,-1,-1,-2,-2,-1,1,0
1517188712415915,-1,0,-2,-2,-1,0,1,-1
1517188712437940,-1,-1,0,-2,0,0,-2,-3
1517188712437940,-2,-1,-1,-1,-1,-2,0,-1
1517188712438941,-1,0,-2,-1,-2,-1,-3,-2
1517188712438941,0,-1,-1,-1,-3,1,1,0
1517188712451987,0,-3,-1,-1,-1,-2,-2,-2
1517188712451987,0,0,-1,0,-1,-1,0,0
1517188712452981,-1,-2,-1,-1,-2,1,0,-1
1517188712452981,-1,1,-2,0,1,0,-1,0
1517188712475006,2,-1,-3,-1,-3,-1,0,0
1517188712475006,-3,-2,-1,-1,0,-3,-1,0
1517188712475006,-3,-2,0,-2,0,-1,-2,-2
1517188712475006,-1,1,-2,-2,-2,-1,-1,-3
1517188712498022,-3,0,-1,-1,-2,-1,0,0
1517188712498022,-1,-3,-2,-2,2,-1,-3,0
1517188712499021,-2,-1,-3,0,-1,0,0,0
1517188712499021,-1,1,-3,0,0,-2,-2,1
1517188712512036,-2,0,1,1,-1,0,-3,0
1517188712512036,-3,0,-2,1,-2,0,1,-2
1517188712513033,-2,0,-1,-2,-1,0,-2,-1
1517188712513033,-1,-3,0,-2,0,-2,1,0
1517188712535040,-1,1,-3,-1,-1,-1,-2,-2
1517188712535040,-1,-1,-3,-3,-2,-3,-3,0
1517188712535040,-1,-1,-2,1,-1,-1,1,0
1517188712535040,-2,0,0,-1,-1,-1,0,0
1517188712558068,0,-3,1,-1,-1,-1,0,0
1517188712558068,0,-1,1,-2,-2,-2,0,-2
1517188712559056,0,1,-2,1,-1,0,0,-2
1517188712559056,-1,-1,-2,-1,-1,-1,-2,-2
1517188712572110,-1,-1,0,-1,2,-1,1,-2
1517188712572110,0,1,0,2,-2,-2,1,-2
1517188712573107,-1,-1,1,1,-1,-1,-2,-1
1517188712573107,2,-3,-2,-1,-1,-1,-1,0
1517188712594125,-1,-2,-1,-2,1,0,0,1
1517188712594125,0,1,-2,-2,-1,-1,-1,-1
1517188712595122,-3,-1,-3,-1,-1,-1,-1,-2
1517188712595122,-2,-1,1,0,1,0,-1,-2
1517188712618139,2,0,-1,0,0,-1,0,-2
1517188712618139,0,-2,-1,-1,0,0,-2,-2
1517188712618139,0,0,-2,-3,0,-3,-2,0
1517188712618139,-2,-2,0,-2,-3,0,-1,-2
1517188712632163,-2,0,-2,-1,-3,-2,-2,-1
1517188712632163,0,0,-1,0,0,2,1,-1
1517188712633151,0,-2,1,-2,-1,0,0,0
1517188712633151,-1,-1,1,0,-1,-2,0,-2
1517188712654250,-1,0,-1,0,-3,-2,0,-1
1517188712654250,-2,-2,-1,-2,-2,1,-1,-2
1517188712655208,-2,-1,-1,-1,1,-1,-1,-1
1517188712655208,0,-1,-1,-1,0,0,-1,2
1517188712678236,-3,-1,0,-2,-1,1,0,-2
1517188712678236,-1,-4,-1,-1,-1,1,-1,1
1517188712678236,-1,-1,-1,-1,-1,-2,-3,-2
1517188712678236,-2,-1,0,-2,-2,0,0,-1
1517188712692267,0,0,0,-2,-1,-2,-3,-3
1517188712692267,-1,2,1,-2,-1,-2,-2,0
1517188712693236,1,0,0,-1,1,0,-2,-1
1517188712693236,-1,-1,-3,-2,-1,-1,-1,1
1517188712714260,-3,-3,0,0,0,0,0,0
1517188712714260,-4,-2,0,-1,-1,0,-1,-1
1517188712715261,0,0,-1,1,-3,-1,0,0
1517188712715261,-1,0,0,0,-2,-4,-3,-1
1517188712738326,0,-1,-2,0,1,-1,0,-1
1517188712738326,0,-1,-2,1,1,-1,-1,-2
1517188712738326,-2,-2,-2,-2,0,1,0,1
1517188712738326,-2,-2,-2,-1,-1,1,0,0
1517188712752345,-1,-1,-3,0,-2,-2,1,-1
1517188712752345,0,-2,-2,-3,-2,-2,-1,-2
1517188712753329,-1,1,-1,0,-1,-3,0,-3
1517188712753329,-3,0,-1,-1,0,-2,-1,-1
1517188712774344,0,-1,0,-1,2,1,-1,0
1517188712774344,-3,-2,-3,-1,-2,-1,0,-1
1517188712775345,0,-2,0,-1,-2,-1,-1,-1
1517188712775345,2,1,0,0,2,0,1,0
1517188712798369,-2,-2,-2,1,-2,-1,-1,0
1517188712798369,0,0,0,0,-1,0,-1,-1
1517188712798369,-2,-3,-1,-2,-2,-2,0,-1
1517188712798369,1,-2,0,1,-1,0,-1,-2
1517188712812373,-1,0,1,0,-2,-2,-1,-1
1517188712812373,1,1,1,-1,-1,-2,-1,-2
1517188712813376,-1,-1,0,0,-2,-1,1,-1
1517188712813376,-1,-1,0,-2,-2,-1,-1,-2
1517188712834388,0,0,-1,-3,0,-1,-1,-2
1517188712834388,0,-1,-1,0,0,-1,-1,0
1517188712835397,1,0,-3,-2,-1,-1,-2,-2
1517188712835397,-3,0,-1,-1,-1,-2,-2,-2
1517188712857404,0,-2,-2,-3,-1,-4,-1,-1
1517188712857404,-1,-1,-1,1,-2,-1,-2,-1
1517188712858403,-1,0,0,-1,-2,0,-3,0
1517188712858403,0,0,-2,-3,-2,0,-1,1
1517188712871416,-2,-2,-1,-1,-4,1,-1,0
1517188712871416,-2,-3,0,-3,0,-2,-1,-1
1517188712879419,0,0,-1,-1,-1,-1,-2,-2
1517188712879419,0,0,0,-2,-3,-1,-1,-1
1517188712894429,-2,-2,-1,1,-2,0,-1,-1
1517188712894429,-1,-1,-1,-1,1,-1,-1,1
1517188712895436,-2,-1,0,0,-1,-1,-2,-3
1517188712895436,0,-3,-1,-1,1,-1,1,3
1517188712917487,0,0,-1,-4,0,1,-1,-2
1517188712917487,-3,-2,-1,-1,0,0,1,0
1517188712918488,-1,-2,-1,-2,1,-1,-1,1
1517188712918488,-1,0,-1,0,0,-2,-1,-1
1517188712931510,0,0,-2,-1,-1,-1,1,1
1517188712931510,-1,0,0,-1,-1,1,-2,0
1517188712939506,0,-1,-2,0,-1,0,0,1
1517188712939506,-1,-1,-3,1,0,-3,-1,-3
1517188712954553,-2,0,0,-1,-1,-4,-1,1
1517188712954553,-1,0,-3,1,-1,-1,0,-1
1517188712955526,0,-2,1,-3,0,0,-3,-2
1517188712955526,0,-1,-1,-1,-2,0,0,0
1517188712977542,-1,-2,-2,-2,-2,-2,-1,-1
1517188712977542,-3,-1,-2,-1,-1,-1,-2,1
1517188712978529,-2,0,-2,-1,2,-1,2,2
1517188712978529,-3,0,0,-2,-2,-1,-5,-6
1517188712991543,-2,-1,0,-1,-1,0,-1,-3
1517188712991543,1,0,-2,-1,-1,-4,-2,1
1517188712999544,-1,-2,-1,-2,-2,-1,-1,0
1517188712999544,-2,0,0,-1,1,-1,1,0
1517188713014565,-2,0,-1,-2,-2,-2,0,-1
1517188713014565,0,-1,-2,-1,0,-2,0,-1
1517188713015556,-2,-2,-1,-1,-2,-1,-1,1
1517188713015556,-1,-2,-1,-1,0,0,-3,-1
1517188713037571,-3,-2,-1,-1,-1,0,-3,0
1517188713037571,0,-2,-2,-2,-2,0,-1,-3
1517188713038572,0,0,-3,-1,0,-3,0,-2
1517188713038572,-1,0,-1,-3,-1,-2,0,-1
1517188713051594,-2,0,-2,0,0,0,-2,-1
1517188713051594,0,-1,-1,-2,-2,-2,-1,-3
1517188713059590,0,-1,-1,0,-1,-1,-1,0
1517188713059590,-3,-1,-1,-1,-3,-3,-1,0
1517188713074597,2,0,1,-2,0,0,-2,1
1517188713074597,0,-2,-2,-1,0,-1,-1,-1
1517188713075599,-2,-1,-2,-1,-2,-3,-1,-1
1517188713075599,-1,-2,-2,-1,-2,1,-1,-2
1517188713097624,-2,-3,-1,-1,-3,-1,-2,-1
1517188713097624,-1,0,0,-1,-1,1,-1,-1
1517188713098614,0,-2,-1,-1,-1,-1,0,0
1517188713098614,0,0,2,-2,-2,-1,0,-2
1517188713111627,-4,-2,-1,-1,-1,1,1,-1
1517188713111627,0,-2,1,-2,-2,-1,0,2
1517188713119632,-3,0,-1,-1,-1,-1,-3,-3
1517188713119632,1,-1,-1,0,-2,-1,-1,2
1517188713134640,0,1,1,-1,-1,-2,0,-2
1517188713134640,-3,-4,-2,-1,-1,0,-1,1
1517188713135641,1,-1,-1,-2,0,0,-1,0
1517188713135641,0,0,0,-2,0,-2,0,-3
1517188713157656,0,-1,-3,0,0,-2,-1,0
1517188713157656,-1,-1,-1,0,0,-1,-2,-1
1517188713158657,-3,-2,-1,-1,-1,-2,-2,-1
1517188713158657,-2,0,-2,-1,-1,2,0,1
1517188713171682,0,-2,0,-1,1,-3,-1,-2
1517188713171682,-3,0,-1,-1,-2,-3,0,-1
1517188713179675,-1,-1,1,-1,-3,-1,0,-1
1517188713179675,-2,-2,0,-2,0,0,-2,0
1517188713194685,1,-1,-1,-1,-1,-1,-2,-2
1517188713194685,-1,0,-3,-1,0,1,-2,-1
1517188713195696,-1,-1,-1,-1,-1,-1,1,-2
1517188713195696,-1,-1,-2,0,0,-3,0,-2
1517188713217698,-1,-3,0,-1,0,-1,0,1
1517188713217698,1,-2,-3,0,-1,-2,-1,-1
1517188713218700,-1,-1,-1,-1,-1,0,-2,-1
1517188713218700,-2,-1,-2,-1,-2,-1,-1,-2
1517188713240718,-1,-1,0,0,-2,0,-1,-1
1517188713240718,-2,-1,0,-3,-2,-1,0,-2
1517188713240718,-2,-2,-1,0,-2,0,-2,0
1517188713240718,-3,0,-2,0,1,-2,-2,-1
1517188713254741,-2,1,0,-1,-1,-1,0,2
1517188713254741,0,0,1,0,-3,-2,-3,-4
1517188713255726,-3,-2,1,-2,0,0,2,-3
1517188713255726,1,-2,0,0,-1,1,0,-1
1517188713277741,-1,-2,-2,-1,0,-1,-1,-2
1517188713277741,-1,-2,-1,-2,-2,-2,-1,0
1517188713278742,0,-1,-1,-1,0,0,-1,-1
1517188713278742,-2,-3,-2,-1,-3,-3,0,-1
1517188713300757,-1,-2,0,-2,0,-1,-1,-3
1517188713300757,-1,-1,-2,-1,0,-1,-2,0
1517188713300757,0,-3,-1,-2,0,-3,1,-2
1517188713300757,0,0,0,0,-2,-1,-2,0
1517188713314767,0,0,-1,-1,-3,1,-1,-1
1517188713314767,-3,-1,-2,-2,-1,-1,-1,-1
1517188713315768,-2,-1,-1,1,-2,-2,-1,0
1517188713315768,0,-1,0,-1,-1,0,-2,-1
1517188713337851,-1,0,0,0,-1,-2,-4,-1
1517188713337851,-1,-1,2,0,1,-1,-1,-1
1517188713338849,1,-2,-1,-1,-2,1,0,-1
1517188713338849,-1,1,-1,-1,-3,0,-2,-1
1517188713359877,-1,-3,-1,-2,-1,-2,0,-2
1517188713359877,0,-2,-1,-2,1,0,0,0
1517188713360878,1,-2,-1,1,-3,-2,-2,-2
1517188713360878,0,-1,-1,-1,0,1,-1,-1
1517188713374877,-3,-2,-1,-1,-2,0,0,-1
1517188713374877,-1,-2,-2,-1,-1,-1,-1,-3
1517188713375890,1,-1,-1,-1,-1,-2,-1,-2
1517188713375890,-1,-1,0,1,-1,-2,-1,-1
1517188713397905,-1,-2,-2,0,-1,-4,0,-3
1517188713397905,0,1,-1,-3,0,0,0,0
1517188713398901,-1,0,-1,0,0,2,-3,-2
1517188713398901,-2,-2,0,-1,-1,-1,0,-1
1517188713419909,-1,-2,-1,0,-1,-1,0,0
1517188713419909,-2,-1,-1,0,-2,0,1,-1
1517188713420907,-1,0,0,-1,1,-1,0,-1
1517188713420907,0,-1,1,-1,-2,-1,0,-1
1517188713434932,-2,-1,-2,-1,-1,-2,-1,1
1517188713434932,-1,-2,-2,0,-1,-1,-2,-1
1517188713435938,0,0,-1,-1,-2,-2,0,0
1517188713435938,-3,-2,-1,-1,-2,-1,-1,-1
1517188713457936,0,-1,-1,-2,-1,-1,-2,-1
1517188713457936,-1,-1,-2,-1,-2,-1,-1,-1
1517188713458947,-2,0,-1,0,1,-3,-1,-1
1517188713458947,-1,-1,-2,0,-1,0,1,-1
1517188713479958,-1,-1,-2,-1,-1,-1,-1,0
1517188713479958,-2,0,2,0,-1,-1,-1,-1
1517188713480949,-1,-2,-1,0,-1,0,-2,0
1517188713480949,-1,-2,-1,-1,0,-1,0,-1
1517188713494972,0,-1,-1,-2,1,1,-1,-2
1517188713494972,2,-1,-3,-2,-3,-2,0,-1
1517188713494972,-3,0,0,0,-1,1,-1,3
1517188713494972,1,-2,-1,-2,-1,-2,-5,-6
1517188713517991,-2,1,-1,-1,-1,-2,1,1
1517188713517991,0,-2,1,-1,-2,-2,-1,-1
1517188713518982,0,-1,-2,-1,-1,-1,1,-1
1517188713518982,-1,-1,-2,-1,0,0,1,1
1517188713540043,-1,-1,-1,0,1,0,-1,-1
1517188713540043,-2,-1,-2,-1,-1,1,-3,-2
1517188713541028,-1,0,-1,-1,0,-2,0,3
1517188713541028,-2,0,-2,-1,-1,1,-2,-1
1517188713555050,0,0,0,0,-1,-2,-1,-1
1517188713555050,-1,-1,-1,-3,-1,0,1,0
1517188713555050,0,0,0,-2,-1,-2,-3,-2
1517188713555050,-2,0,-1,-1,0,0,0,1
1517188713578068,-1,-1,-2,0,-3,1,-2,0
1517188713578068,-3,0,-2,0,-2,-2,-2,-2
1517188713579062,0,-2,-2,-2,0,-2,-2,-2
1517188713579062,-1,-4,0,2,0,-2,-2,0
1517188713600085,-2,-1,0,-2,-1,-1,-2,-2
1517188713600085,-2,-1,-1,-2,0,1,0,1
1517188713602072,-1,-3,-3,-2,-3,0,1,0
1517188713602072,1,-1,-1,-3,-2,-1,-2,0
1517188713615080,-1,-1,0,-1,-2,-2,-3,0
1517188713615080,-1,-2,-2,-2,-2,-1,-1,-1
1517188713615080,-1,0,-1,-1,-2,-1,-1,-1
1517188713615080,-3,0,0,0,-1,-2,2,0
1517188713638112,-2,-2,-2,-1,-1,0,-1,0
1517188713638112,-1,1,0,0,-2,-1,-3,-3
1517188713639098,-3,-2,0,-1,-1,0,-1,2
1517188713639098,-2,-1,-1,-1,-1,0,-1,-2
1517188713660125,0,-1,-2,-2,-1,-1,-2,-2
1517188713660125,-3,-1,-1,0,0,1,0,-1
1517188713661113,-1,0,-2,-1,-2,-1,-2,-4
1517188713661113,-2,0,0,-1,-2,-3,-1,-1
1517188713674172,-3,0,-1,-1,0,-2,0,-1
1517188713674172,0,-3,-2,-1,-2,-1,1,2
1517188713675159,0,-1,-1,1,-1,-2,-1,-2
1517188713675159,-1,-2,-1,-1,-1,-3,-1,-1
1517188713698213,-1,0,-1,0,-3,-1,0,-1
1517188713698213,1,-1,-2,-2,0,-2,-1,-2
1517188713698213,-1,-1,-1,-1,-2,1,-1,-2
1517188713698213,0,-1,-1,-1,-1,2,-2,-2
1517188713720256,-2,0,0,0,0,-1,-2,1
1517188713720256,-5,-1,-2,-2,-2,-3,-1,0
1517188713721230,-2,-1,-1,-1,0,-1,1,-1
1517188713721230,-1,0,-1,1,0,-1,-2,0
1517188713734299,-1,-1,1,0,-2,-1,0,-2
1517188713734299,0,0,-1,0,0,-1,-2,0
1517188713743275,1,-2,0,0,-1,-3,-1,0
1517188713743275,-2,-1,-2,-3,-1,2,0,-1
1517188713757283,0,-1,-2,0,0,-3,0,-2
1517188713757283,-2,0,1,0,-2,-2,-1,-2
1517188713759276,-3,-1,1,-2,-1,0,-2,-5
1517188713759276,0,0,-2,-1,0,-1,-1,2
1517188713780328,0,0,-1,-2,-1,2,-1,-3
1517188713780328,1,-1,0,1,-1,0,1,-1
1517188713782330,-1,0,-1,-1,-1,0,-1,-1
1517188713782330,-2,-1,1,2,-1,-1,-2,-2
1517188713794365,0,0,-1,0,-1,-1,0,2
1517188713794365,0,-1,-2,0,-1,0,-2,-2
1517188713803377,-1,0,-1,-2,-2,-2,-1,-2
1517188713803377,-1,-1,-1,0,-1,-1,1,-2
1517188713817372,-1,-2,-2,-3,-3,-1,0,0
1517188713817372,-2,-1,-1,-2,0,0,0,-1
1517188713819372,-2,0,-1,-2,1,0,-3,-1
1517188713819372,0,-2,-1,-2,-1,0,1,-1
1517188713840402,-1,0,-1,1,-1,-1,-3,-1
1517188713840402,-2,-2,-1,0,0,0,0,0
1517188713841398,-1,-1,-1,-2,0,0,0,-2
1517188713841398,0,-2,0,0,-2,-2,-2,-1
1517188713854425,-1,-1,-2,-1,-2,1,0,0
1517188713854425,-2,1,1,-1,-1,-2,0,-2
1517188713863419,-1,-2,1,0,0,-1,-1,-1
1517188713863419,-2,-1,-2,-1,0,-2,-1,-3
1517188713877429,0,-3,-2,-1,-1,0,-3,-2
1517188713877429,-1,-3,-1,-3,0,0,-2,-1
1517188713879443,0,-1,-1,-1,-3,-1,-1,0
1517188713879443,-1,0,-1,-2,-2,-1,0,-1
1517188713900451,-2,-3,1,1,-1,-3,-1,-1
1517188713900451,-2,0,-1,-1,0,0,0,0
1517188713901447,0,0,-2,-1,0,-1,-1,-1
1517188713901447,-1,1,-1,-3,-4,0,-1,-1
1517188713913471,-1,0,-2,-1,-4,-3,-2,-2
1517188713913471,-1,-3,-2,0,0,-1,0,-1
1517188713922478,-2,-1,0,0,0,-1,-1,-1
1517188713922478,0,-1,0,-1,-1,-1,-1,0
1517188713937507,0,-2,1,-2,1,1,1,1
1517188713937507,-1,-2,0,-1,-2,-2,-1,-1
1517188713939498,-1,-1,0,0,-1,-1,1,0
1517188713939498,0,1,-1,0,-1,-1,0,0
1517188713960507,0,-1,0,-2,0,-2,-1,-1
1517188713960507,1,1,-1,-2,0,-2,-3,-1
1517188713961505,1,-2,-3,-2,-2,-2,-1,-3
1517188713961505,-4,0,0,0,-1,-2,-2,0
1517188713973513,-3,-1,-2,0,-2,1,0,-2
1517188713973513,-1,-3,-3,-1,-1,-1,-2,0
1517188713983520,-1,0,0,-1,-1,0,-1,0
1517188713983520,1,0,0,-2,-1,-2,-3,0
1517188713997539,0,0,0,-2,-2,-2,-1,-2
1517188713997539,-2,-2,-1,-1,0,-1,-2,0
1517188713999549,-2,-2,0,0,-2,0,-2,-2
1517188713999549,-1,-1,-1,-1,-2,0,-1,0
1517188714020547,0,-2,-1,-1,-1,-1,-2,-1
1517188714020547,-2,0,-1,-2,-2,-1,-1,-2
1517188714021548,-1,-2,-2,-2,-1,-1,-1,0
1517188714021548,-2,-1,0,0,2,1,-1,-1
1517188714034557,-2,-1,-1,-1,0,-2,-1,-2
1517188714034557,0,0,-1,0,-1,-1,0,0
1517188714042572,0,-1,0,-1,-1,0,-2,-1
1517188714042572,1,-1,-1,0,-1,0,-1,-1
1517188714057583,-2,-1,-1,-2,0,-1,0,1
1517188714057583,-2,0,-2,-1,-1,0,0,-1
1517188714059585,-1,0,-1,-1,0,0,-2,0
1517188714059585,-1,-1,-1,-1,-2,-3,-1,-1
1517188714080611,0,-2,-2,-1,-1,-1,-2,-2
1517188714080611,0,0,-1,-1,-2,0,0,-2
1517188714081611,-1,-1,-1,-1,-1,-2,-1,0
1517188714081611,-1,0,0,1,-1,1,0,-2
1517188714093611,-1,-1,-1,0,-1,0,-2,0
1517188714093611,-2,-4,-1,-1,-1,-1,-2,0
1517188714102616,0,0,-1,-1,-1,-2,-2,-1
1517188714102616,0,-2,0,-2,0,-1,-2,-2
1517188714117626,0,-3,-1,-3,-1,-1,0,2
1517188714117626,-2,1,0,0,-1,-2,-1,-2
1517188714119638,-2,-1,0,0,-1,0,1,2
1517188714119638,-2,-1,-2,-2,0,-3,-1,-2
1517188714140654,-1,0,-2,0,0,0,-1,-3
1517188714140654,0,0,-2,-2,-2,-4,-1,0
1517188714141645,-1,-2,-2,0,0,0,-1,-1
1517188714141645,-1,-3,1,-1,-2,-1,-1,-1
1517188714162670,-2,-1,-2,-3,1,-5,-1,-1
1517188714162670,0,-3,0,-1,-2,0,0,-2
1517188714164660,-1,-1,-1,0,0,-2,-1,-1
1517188714164660,0,0,0,-1,-1,0,0,0
1517188714177673,-4,0,-2,0,-2,0,-1,-2
1517188714177673,1,1,-2,-1,-1,-1,1,-1
1517188714179671,-2,0,-1,-3,-4,-2,-1,-2
1517188714179671,0,1,0,-2,-2,-1,-3,0
1517188714200716,-1,-1,0,-1,-2,0,-1,-2
1517188714200716,-3,-1,-2,-1,0,1,-1,-1
1517188714201687,0,-2,0,-1,-2,0,-1,1
1517188714201687,-4,-3,-3,1,-2,-1,0,-1
1517188714222741,0,0,-1,-1,0,0,1,-1
1517188714222741,-3,-3,-1,-2,0,-2,-1,-2
1517188714224756,0,-4,-2,0,-1,0,-1,-1
1517188714224756,-2,-2,-1,-3,-1,-1,-1,-2
1517188714237759,-1,1,-1,1,-1,-1,-3,1
1517188714237759,-1,0,-2,-1,-2,-1,-1,-2
1517188714239766,-2,0,1,-2,-1,-1,0,-2
1517188714239766,-2,-2,-2,-2,0,-2,-2,1
1517188714259764,-2,-4,-1,-1,1,-1,0,-1
1517188714259764,-1,1,0,-1,-1,-2,-1,-1
1517188714261766,-1,0,-3,-2,-1,0,-1,-2
1517188714261766,1,0,-2,-1,-1,-2,0,-2
1517188714282791,-2,-2,-1,-1,0,0,-1,-1
1517188714282791,-2,-1,-1,0,-2,-2,-3,0
1517188714284799,-2,-1,0,-1,-1,-2,-1,1
1517188714284799,0,0,0,0,0,1,2,0
1517188714297802,1,-1,-2,-3,-2,-2,-1,-1
1517188714297802,0,-1,-1,0,-2,0,-2,-1
1517188714299792,-1,-3,-2,0,0,-2,0,1
1517188714299792,0,0,-1,-1,-1,-2,0,0
1517188714319807,0,-1,-2,-2,-2,-5,-2,-1
1517188714319807,0,-1,0,-1,-2,0,-1,-1
1517188714321809,-4,0,0,1,0,0,-2,-2
1517188714321809,-2,-1,-1,-1,-1,1,-2,-3
1517188714342833,-1,-2,-2,0,-1,0,0,-1
1517188714342833,1,0,-1,0,-1,1,0,2
1517188714344828,0,0,-1,-2,0,-2,-1,-2
1517188714344828,-2,-1,-2,-1,-1,-1,-3,-1
1517188714356843,0,-1,-2,-1,-2,0,-1,0
1517188714356843,0,-1,-1,-2,0,-1,0,-4
1517188714363848,1,-1,-2,0,-3,1,2,-1
1517188714363848,-1,-2,-2,-1,-3,1,-1,0
1517188714379863,-1,-1,-1,1,-2,0,-3,-2
1517188714379863,-2,-2,-1,-1,1,-2,-1,-1
1517188714381851,0,-1,-1,0,0,-1,-2,0
1517188714381851,-2,0,-2,0,-1,-2,-2,-3
1517188714402876,-3,0,0,-4,0,0,1,-2
1517188714402876,-2,0,-2,0,0,-3,-1,-1
1517188714404883,0,0,-1,0,-2,-3,0,-2
1517188714404883,2,-2,-2,0,0,-2,-3,0
1517188714416917,-3,0,0,-1,-2,-1,-1,-1
1517188714416917,-3,-4,-2,-2,-2,1,-1,-1
1517188714423924,-1,0,-1,-2,0,-2,-3,-2
1517188714423924,-1,-2,1,0,-1,-1,3,-1
1517188714439936,-1,-1,0,0,-1,-2,-2,-3
1517188714439936,0,-2,0,0,-1,-2,0,0
1517188714441934,0,-1,0,0,-1,0,-1,3
1517188714441934,-1,-3,-1,-1,-3,1,-1,-3
1517188714462963,-2,-1,-1,0,-1,-1,0,1
1517188714462963,-1,-1,0,-1,-2,-2,0,0
1517188714463963,-2,-1,-2,-1,0,0,-4,-2
1517188714463963,-1,0,0,-1,-2,-3,-1,0
1517188714476969,1,-1,0,-1,0,-1,-2,1
