timestamp,emg1,emg2,emg3,emg4,emg5,emg6,emg7,emg8
1512357223096029,-1,1,-2,-1,-2,1,0,0
1512357223096029,0,-2,-4,-2,-1,-2,-4,1
1512357223097026,-1,0,-1,0,-1,-1,-3,1
1512357223097026,-3,-1,0,1,-2,-1,-3,-2
1512357223120043,0,0,-1,0,-1,0,0,0
1512357223120043,0,0,-1,0,0,-1,0,-1
1512357223120043,0,-2,0,-2,-1,-2,-1,0
1512357223120043,-1,0,0,-2,-1,-1,-1,-2
1512357223142057,0,-3,-1,-1,-2,-3,-1,-2
1512357223142057,-2,0,-1,-1,-2,0,-1,1
1512357223143058,0,-1,-2,-1,-1,0,0,-1
1512357223143058,-2,-1,0,-2,-1,-1,-1,1
1512357223156067,0,-2,-1,-2,-1,0,-2,-1
1512357223156067,0,-2,-1,-2,-2,-2,-1,-3
1512357223164131,-1,-1,-1,-1,-1,0,0,-4
1512357223164131,0,-1,-1,-2,-1,-1,0,0
1512357223179087,0,0,-1,-1,0,0,-3,-1
1512357223179087,1,-2,-1,-1,0,-2,0,1
1512357223181086,-1,0,-3,-1,-2,-2,-1,-1
1512357223181086,-3,-1,0,0,-2,0,-2,-1
1512357223202100,0,-1,-1,0,-3,-2,0,-2
1512357223202100,-1,0,0,-2,0,-1,-2,-1
1512357223203102,-4,-2,0,1,-2,-1,-3,-1
1512357223203102,-1,-2,-1,-2,-1,-2,-2,1
1512357223216123,-1,-1,-1,-1,0,-1,0,-1
1512357223216123,-1,-2,-2,-1,-3,0,2,-1
1512357223224138,0,0,-1,-1,-2,0,0,-2
1512357223224138,0,-1,-3,-1,-1,-1,-1,1
1512357223239182,-3,-2,-2,-1,-2,-2,-2,-3
1512357223239182,-1,0,-2,0,-1,-1,-1,-1
1512357223241174,-1,-2,-1,-1,-1,-1,0,-2
1512357223241174,0,-1,-1,0,-2,-1,0,0
1512357223262204,-1,-3,1,0,-2,-1,1,0
1512357223262204,-2,-1,-1,0,0,0,0,-1
1512357223263200,-2,1,-1,-1,-1,-2,0,1
1512357223263200,-1,-2,0,0,-2,-2,0,-3
1512357223275198,-3,-1,-2,-1,0,-2,-1,-2
1512357223275198,-1,-1,-1,-2,0,1,-2,-2
1512357223284210,-2,-2,-1,-1,0,1,-2,-1
1512357223284210,-1,-2,-1,0,0,0,1,-2
1512357223299238,-1,0,-1,-2,-2,-3,-1,0
1512357223299238,-2,-2,-1,-1,-1,-2,-3,-1
1512357223301226,-1,1,-2,-2,0,-3,0,-1
1512357223301226,0,-2,0,-1,-2,-1,1,-2
1512357223322235,-2,-1,-1,-1,-2,-1,-3,-1
1512357223322235,-2,-2,-2,-1,1,0,0,-2
1512357223323232,1,-2,-1,-2,-1,-2,-1,0
1512357223323232,-1,-3,0,-2,-2,0,-1,0
1512357223335240,-1,-1,-1,0,0,-2,0,-1
1512357223335240,-1,0,-1,1,-1,-1,-1,-1
1512357223344248,-2,-1,-2,-1,-1,-1,-4,-1
1512357223344248,-1,-3,-2,-2,-1,-1,2,-1
1512357223359292,-1,-2,-2,-3,-1,-2,-1,1
1512357223359292,0,-2,-1,0,-2,-2,-3,-1
1512357223361260,-3,-1,0,-1,-2,-1,1,1
1512357223361260,-2,-1,-1,-1,-1,0,0,0
1512357223389291,0,0,-4,-1,0,-1,-2,0
1512357223389291,0,1,-3,-1,-1,-1,0,-1
1512357223391284,0,-1,-1,-1,-1,-1,-2,-2
1512357223391284,0,1,-2,1,0,-1,-3,0
1512357223395305,-2,-1,-1,0,0,0,-4,-3
1512357223395305,-1,-2,-1,-2,-1,-1,-1,-1
1512357223404306,-1,-1,-1,-1,-1,0,0,-1
1512357223404306,0,0,-1,0,-2,-2,-1,-1
1512357223419312,1,-1,-3,0,0,1,0,0
1512357223419312,-2,0,0,-1,-1,-2,-1,-2
1512357223421302,0,-1,0,0,-2,0,1,1
1512357223421302,-2,-1,0,0,-1,-2,-2,-1
1512357223442400,0,-2,-1,-1,-1,-1,-1,0
1512357223442400,-2,-2,-2,-2,-3,-3,-1,-3
1512357223443387,-1,-2,0,-1,0,-2,2,-1
1512357223443387,-1,-1,-2,-1,-3,-1,0,-2
1512357223455410,-3,-1,1,-1,0,1,-2,0
1512357223455410,1,-1,-1,-1,0,-1,-1,-1
1512357223464401,0,-1,-2,-2,-1,-1,-1,-1
1512357223464401,-2,-1,1,-1,-3,-1,-1,0
1512357223478427,0,0,-2,-3,-1,-2,-1,0
1512357223478427,1,-1,-2,-1,-1,-1,-1,1
1512357223485424,0,0,-1,-1,0,-2,-1,-1
1512357223485424,-1,-2,-2,-3,0,-1,-1,-1
1512357223502427,0,-1,-1,-1,-2,2,-1,-1
1512357223502427,-1,0,-1,-1,-1,-1,0,0
1512357223503428,0,-1,-1,0,-2,0,-3,-1
1512357223503428,-2,-1,0,-2,-1,0,-1,0
1512357223532469,-2,-1,-1,1,-1,-2,-1,-1
1512357223532469,0,0,-1,-1,0,-3,0,0
1512357223534453,0,-1,-2,-2,-1,-3,0,0
1512357223534453,-2,-2,-1,-1,-2,0,-1,-1
1512357223539456,-1,-2,-1,-2,-3,0,-2,-3
1512357223539456,-3,-1,-2,-2,0,1,-1,-3
1512357223541458,-4,-3,-1,-1,-1,-1,1,-1
1512357223541458,-1,-1,-1,0,0,-3,-2,0
1512357223562469,0,0,-3,-2,0,-3,-2,1
1512357223562469,-1,-1,-1,0,-1,0,0,-2
1512357223563471,-4,-2,-1,-1,-1,0,-1,1
1512357223563471,-2,0,0,-1,-1,-1,0,-2
1512357223585497,0,-1,-2,-1,1,-1,0,-3
1512357223585497,-2,-2,0,-1,0,0,-1,1
1512357223586488,-2,0,-1,-2,-2,-1,-2,-1
1512357223586488,-2,0,-1,0,-1,-1,-2,0
1512357223599518,-1,-1,-2,-2,0,-2,0,-1
1512357223599518,-1,0,0,0,-2,0,-1,1
1512357223601519,-2,1,-3,-1,-2,-3,0,-3
1512357223601519,1,-1,0,-3,0,-1,0,-1
1512357223622512,-2,0,0,0,0,-1,-1,-2
1512357223622512,0,-2,-2,-1,-1,-2,-1,-2
1512357223623513,0,-2,1,1,-3,-1,-1,-4
1512357223623513,1,-2,-1,1,-1,-1,-1,-1
1512357223644527,1,-2,0,0,-1,-1,0,-1
1512357223644527,1,-1,1,1,0,-2,-1,-1
1512357223646579,-1,-2,-1,-1,-2,0,-2,1
1512357223646579,0,-1,-1,0,-1,0,-2,-3
1512357223658539,-2,-2,-1,-1,-2,-2,-1,-2
1512357223658539,-2,-1,-1,-1,0,-2,-1,0
1512357223665606,-1,-2,-3,0,-2,0,-1,0
1512357223665606,0,-1,-2,0,-1,-1,1,0
1512357223681629,-1,0,-2,-4,-1,-1,0,0
1512357223681629,0,-1,-2,-2,-1,-1,1,0
1512357223683610,-1,-2,0,-1,0,-2,1,0
1512357223683610,0,-1,-1,-1,-2,-1,-1,-1
1512357223704623,-1,-2,-2,0,-3,-2,-3,-1
1512357223704623,0,0,-1,-1,-2,0,0,-1
1512357223705624,-1,-1,0,0,1,-2,-1,-1
1512357223705624,-2,1,-1,-2,-2,-1,-1,1
1512357223718645,-1,-1,-1,-2,0,0,0,-1
1512357223718645,0,0,1,-1,0,-1,0,-1
1512357223725663,-1,0,-1,-1,-1,-1,-1,1
1512357223725663,-2,-1,-1,-2,0,-2,-1,-2
1512357223741669,-1,-1,-2,0,0,-1,-2,-2
1512357223741669,-1,-2,-2,-2,-2,-1,-1,-3
1512357223743650,0,0,0,-1,0,0,-1,-1
1512357223743650,0,-2,-1,-2,-2,-1,1,-1
1512357223764733,-1,-1,-2,-2,-1,0,-1,-1
1512357223764733,-2,-1,-1,0,-1,1,-1,-1
1512357223766668,-1,-1,-1,-1,-2,-2,-3,-1
1512357223766668,-1,0,-1,0,0,-1,-3,-1
1512357223778687,0,-2,0,-2,-1,0,0,0
1512357223778687,-2,-1,-2,-1,0,-1,0,0
1512357223785692,0,-3,-2,-2,-1,-1,1,-1
1512357223785692,-1,-2,-2,-1,-1,0,0,0
1512357223801692,-2,-1,-2,0,-2,0,-1,0
1512357223801692,-2,-2,-3,-2,-2,-1,-3,-1
1512357223803694,-3,0,-1,1,-1,-3,-2,0
1512357223803694,0,0,-1,-3,-2,-2,-1,0
1512357223824710,-3,-1,-1,-1,0,0,-1,-2
1512357223824710,1,0,-3,-1,1,-1,-2,-2
1512357223825710,0,-2,-2,-1,-1,0,-1,-2
1512357223825710,-1,-1,-1,0,-3,-2,-1,-2
1512357223838728,-1,-1,-2,1,-1,-2,-1,-1
1512357223838728,-1,-1,-1,-1,-2,-1,-2,0
1512357223845732,-2,-1,0,-1,-1,0,0,-2
1512357223845732,-2,-1,-1,-1,-1,0,-1,0
1512357223861748,-1,-1,-2,0,-2,-1,0,-1
1512357223861748,0,-1,-1,-1,0,-1,-2,-2
1512357223863735,-1,-1,-2,-1,-2,-1,-1,0
1512357223863735,-1,-1,0,-3,-2,-1,-2,-1
1512357223884760,-2,-1,-2,-1,1,-1,-2,-2
1512357223884760,-2,-2,-2,-2,0,-1,-3,1
1512357223885752,0,-1,-1,-2,-2,0,0,-1
1512357223885752,-2,-2,-1,-1,-2,-1,1,-1
1512357223898789,-1,-1,-2,0,-2,0,-3,-1
1512357223898789,1,-1,0,-2,-1,-2,2,-3
1512357223905775,-2,0,-1,-1,0,-1,-3,0
1512357223905775,-2,-1,-1,1,-2,-1,-1,-1
1512357223921776,-3,0,-1,-3,0,-1,1,0
1512357223921776,0,1,-2,0,-2,-2,-3,-2
1512357223923778,-2,1,1,-2,0,-1,-1,0
1512357223923778,-1,-1,-2,-1,-3,-1,-2,-2
1512357223944858,-2,-3,-1,0,-1,0,-1,0
1512357223944858,0,0,-1,0,0,-1,1,-1
1512357223945799,1,-2,-2,-1,-2,-1,1,-1
1512357223945799,-2,-3,0,0,0,-1,-2,-1
1512357223958824,0,1,-1,-2,-1,-1,-1,-2
1512357223958824,-4,-1,0,-1,0,0,0,-2
1512357223965830,-1,0,-3,-2,-1,-1,0,-1
1512357223965830,0,0,-2,-1,0,1,0,-2
1512357223981836,0,-1,-1,-1,-2,-1,-1,-2
1512357223981836,1,-3,0,-2,-2,-2,1,0
1512357223983835,0,-3,0,-1,-2,0,0,-1
1512357223983835,-2,-1,-2,-2,-1,1,-1,0
1512357224004849,-1,-1,-1,-1,1,-1,-2,-1
1512357224004849,-1,-1,-2,-1,0,2,-1,-1
1512357224005839,-1,-3,-1,-1,0,-1,-1,-1
1512357224005839,-1,-1,0,-1,0,-2,-1,1
1512357224017873,-1,-1,-1,0,0,-1,-1,0
1512357224017873,-1,-1,-1,0,-2,-1,-1,-1
1512357224026880,1,-2,0,-1,-1,-2,0,-1
1512357224026880,0,-2,-2,0,-1,-1,0,-3
1512357224041880,-1,-3,-1,0,-1,-2,-1,-3
1512357224041880,-1,-1,-1,-1,-2,2,-1,-2
1512357224043880,-2,0,-3,-1,-2,-2,-2,0
1512357224043880,-1,0,-1,-2,0,-2,0,-2
1512357224064895,0,1,-3,0,0,1,0,-2
1512357224064895,0,-2,-1,-1,0,0,0,-1
1512357224065878,-1,0,-1,0,-1,1,-1,1
1512357224065878,-2,0,-1,0,-1,-1,-2,0
1512357224077900,-1,-1,0,-2,0,0,-3,1
1512357224077900,-2,0,-2,-2,-2,-1,-3,-1
1512357224086893,-1,-1,-2,-1,-2,0,1,-2
1512357224086893,0,-1,0,0,-1,-1,-1,-2
1512357224101906,0,-2,0,-1,-1,-2,0,1
1512357224101906,-2,-3,-2,1,0,-1,-3,-2
1512357224103924,0,-2,0,-2,-1,-1,-1,-1
1512357224103924,-2,0,-1,0,0,-1,-1,-1
1512357224123919,1,-2,0,-1,-3,-3,-2,-1
1512357224123919,-1,0,1,-2,0,-1,0,-1
1512357224131007,-2,1,0,-2,-2,-1,0,-1
1512357224131007,-1,-2,-1,-2,-2,-1,-1,-2
1512357224137992,0,1,-1,-1,-2,-1,-1,-1
1512357224137992,-2,1,-2,0,-2,-1,-2,0
1512357224153004,-1,-3,-1,0,0,0,-1,-3
1512357224153004,-3,-3,-1,0,-1,0,1,-1
1512357224162013,-1,-2,-3,-1,1,0,-2,-2
1512357224162013,-1,-1,-2,-2,-2,-1,-1,0
1512357224164001,0,0,-1,0,-1,-1,-1,-2
1512357224164001,-1,-1,-1,0,-2,-2,0,0
1512357224185016,0,-1,-1,-1,-2,-1,1,-3
1512357224185016,-1,0,0,-1,-1,-1,-1,-1
1512357224186022,-1,-2,-2,-1,-2,-1,-3,-1
1512357224186022,0,-1,-2,-3,-1,-1,-3,1
1512357224198025,1,0,-1,-2,0,0,-3,1
1512357224198025,-3,-1,-3,-2,0,0,0,-1
1512357224207053,0,-1,-1,-2,-1,-2,0,-1
1512357224207053,0,-2,-2,1,0,0,-1,-3
1512357224222055,-5,-1,-1,-2,0,0,-1,0
1512357224222055,1,1,-1,-1,-1,-2,0,1
1512357224224043,-1,-2,-1,-2,-1,-1,-2,-1
1512357224224043,-2,-2,0,-2,-1,-1,-2,-3
1512357224244099,0,0,-1,0,1,-1,1,-1
1512357224244099,-3,-2,-1,-1,-1,-2,-2,-1
1512357224246060,0,-1,1,-1,-3,-2,2,0
1512357224246060,0,0,-2,-1,-2,-2,-2,0
1512357224258080,-2,1,-1,-1,-2,-2,-3,-2
1512357224258080,-2,-3,-1,-2,0,-1,-1,-1
1512357224267073,-1,0,-1,-2,-1,0,-1,1
1512357224267073,-2,-1,0,-1,-2,-1,-1,0
1512357224282088,0,-1,-1,0,-2,0,0,-2
1512357224282088,0,-1,-2,-2,-2,-1,-2,0
1512357224284086,-3,-1,0,-1,-1,-1,-1,0
1512357224284086,-2,-1,-2,-2,-1,0,0,-2
1512357224304117,-3,-1,-2,-2,0,0,-1,-1
1512357224304117,-1,-2,-1,-1,-2,-2,-1,0
1512357224306101,-2,-2,-1,0,-1,-1,-2,-1
1512357224306101,1,-1,-1,-1,-3,-2,0,0
1512357224327154,0,-3,0,0,-2,0,-1,-2
1512357224327154,2,0,-1,-1,-1,0,-4,-1
1512357224329119,-1,-1,-1,0,-1,1,-1,1
1512357224329119,-3,-2,-1,-2,-1,-2,1,-1
1512357224342137,-1,0,-1,-2,-1,-2,-2,0
1512357224342137,0,-1,-2,-1,-1,-2,-1,-1
1512357224343130,0,-1,0,-1,0,0,0,-1
1512357224343130,0,0,0,0,0,-1,-1,0
1512357224364142,0,-1,-2,-1,-1,-1,-1,0
1512357224364142,-2,-1,-1,-1,-1,-1,0,-1
1512357224366143,0,-1,-2,-2,-1,-2,-1,-1
1512357224366143,-1,-1,-2,-1,0,0,-3,-2
1512357224378151,0,-3,-2,0,-1,0,0,-1
1512357224378151,-2,0,-1,-1,-1,-1,-1,-2
1512357224387161,-1,-1,-1,-1,-2,-1,0,-2
1512357224387161,1,0,0,-3,-2,-3,-1,-1
1512357224402186,0,-1,0,-1,-2,-1,2,-3
1512357224402186,-1,0,1,-1,-1,-2,-2,0
1512357224403172,-3,-1,-2,0,-2,0,-1,1
1512357224403172,-1,-1,-1,-1,-1,1,0,2
1512357224425206,-1,0,-2,-1,-1,-1,-1,-2
1512357224425206,-1,-1,-2,-1,0,-1,1,-2
1512357224427188,-1,-2,-1,-3,-2,-2,-1,-1
1512357224427188,-1,-2,-1,0,-1,0,-2,-3
1512357224438223,-2,-2,-1,-4,-2,0,-2,0
1512357224438223,0,0,-2,0,0,-1,0,-3
1512357224447230,0,-1,-1,0,0,-2,-1,-2
1512357224447230,-1,-3,0,0,-1,1,-1,0
1512357224462232,-2,-1,-1,0,-1,-1,-3,-2
1512357224462232,-1,-2,-1,-1,-1,0,-2,-2
1512357224463213,-2,-1,-1,0,0,0,1,-2
1512357224463213,0,-1,-2,-2,-2,0,0,-1
1512357224484227,-1,-1,-2,0,-2,-1,-2,-1
1512357224484227,-1,-2,1,-1,1,-2,0,-1
1512357224486239,0,-1,0,-1,0,-1,-3,0
1512357224486239,1,-2,-1,-1,-1,-1,-1,-1
1512357224507266,-1,-1,-1,-2,-1,0,-1,-2
1512357224507266,-1,-2,-2,-2,-1,-2,-3,-2
1512357224508244,-1,-1,-1,-1,-1,-2,0,-1
1512357224508244,-1,-2,1,-1,-1,-1,1,-2
1512357224522286,-2,-1,-1,-1,1,0,-1,-2
1512357224522286,-1,-1,-1,-2,0,0,-1,0
1512357224523255,-1,-1,-1,-1,-2,-1,0,1
1512357224523255,-1,-1,-2,-1,-1,0,-2,1
1512357224544329,-2,-2,-1,0,0,0,-3,-2
1512357224544329,0,-1,-1,-2,-3,0,-1,-2
1512357224546293,-1,-1,-1,-1,0,-1,-1,0
1512357224546293,-1,-1,-2,-2,-1,-2,-2,0
1512357224567308,0,-3,-2,1,-1,0,0,2
1512357224567308,-2,0,-3,-1,-1,0,-1,-1
1512357224573305,-3,-2,0,-1,-1,-1,0,-1
1512357224573305,-3,0,-2,0,-1,-1,0,0
1512357224582300,-2,-1,-2,-2,-3,-3,-1,-2
1512357224582300,0,0,-1,-1,-2,0,-1,1
1512357224583299,-1,-1,-2,-2,-3,-1,-1,-1
1512357224583299,-1,-1,-1,0,-2,-1,-2,-2
1512357224604322,0,-1,-1,-2,0,-2,-2,-2
1512357224604322,-2,-1,0,0,-1,-1,-1,-3
1512357224606336,-2,-1,-3,0,-3,-1,-1,-3
1512357224606336,1,-1,-1,-1,-1,-1,-1,-2
1512357224627348,2,-1,-2,-1,-2,-1,-1,0
1512357224627348,-2,-2,-3,-1,-2,0,0,0
1512357224629331,-1,0,1,0,-1,-1,-1,1
1512357224629331,-1,-2,-1,-1,-1,-2,0,-1
1512357224648343,1,-2,-1,-1,-1,1,0,-2
1512357224648343,-1,-1,-1,-1,0,0,0,1
1512357224657369,0,-1,-1,-2,-2,-1,-2,-2
1512357224657369,0,-1,0,-1,-2,0,0,-3
1512357224664361,-4,0,-2,-1,-1,-2,-2,1
1512357224664361,-1,-1,-2,-2,-1,0,-2,-3
1512357224666358,1,-1,-1,-1,-2,-2,-1,1
1512357224666358,-2,0,-1,-2,0,-1,0,0
1512357224687386,-1,-1,-2,-2,-1,-2,-1,-2
1512357224687386,1,-3,-2,0,-1,-2,-2,0
1512357224688371,-1,-1,-2,-2,-1,0,0,-1
1512357224688371,-1,-2,-1,0,0,1,-1,-2
1512357224701382,0,0,-2,-1,-2,-2,-1,-1
1512357224701382,-2,0,0,-1,0,0,-1,-1
1512357224708387,-1,0,0,0,-1,-2,1,-2
1512357224708387,-1,0,-1,-2,-1,0,-2,0
1512357224724416,-1,-1,-1,0,-2,-1,-2,-2
1512357224724416,-2,-1,0,-1,-1,-2,-2,-1
1512357224726419,-1,-3,0,0,-2,-1,-3,2
1512357224726419,-1,0,-1,-1,0,-2,-2,0
1512357224747414,-3,0,-2,0,-1,0,-1,-1
1512357224747414,1,-1,0,-1,-1,-1,-2,0
1512357224748430,-2,-1,-1,-1,-1,-2,-1,-2
1512357224748430,1,-3,-2,-1,-2,-1,-2,-1
1512357224761425,-1,-1,-1,-1,1,-1,-1,2
1512357224761425,-2,0,-1,-1,-1,-3,-1,-2
1512357224768441,-1,-2,-2,-2,-1,0,0,1
1512357224768441,-2,0,0,-3,-1,0,0,-1
1512357224784439,-1,0,-1,-2,1,0,0,-3
1512357224784439,0,-2,-2,-2,-1,-1,-2,0
1512357224786440,0,-1,-2,-1,-2,-2,-1,-1
1512357224786440,-2,-2,-3,0,-1,-1,0,-2
1512357224807455,-1,-2,1,-1,0,0,-1,0
1512357224807455,-1,-3,0,0,-1,0,0,-1
1512357224808456,0,-1,-1,-2,0,-1,-2,0
1512357224808456,0,-1,-1,0,-2,-2,0,-1
1512357224821488,0,-2,-2,-1,-1,-1,0,-4
1512357224821488,-2,-1,-2,0,-2,0,-1,0
1512357224828492,-1,-1,0,-1,-3,-2,0,-1
1512357224828492,-2,-1,-1,-1,-3,-2,-2,0
1512357224844504,-1,-1,-1,-1,-2,-1,-3,-1
1512357224844504,0,-1,-2,-1,0,-1,-1,-2
1512357224846496,-1,0,-1,-1,-1,0,2,-3
1512357224846496,0,-1,0,0,0,1,-2,-1
1512357224867498,-1,-2,0,-1,0,-1,-2,0
1512357224867498,-1,-1,-2,-2,-3,0,-2,1
1512357224868502,-1,0,-1,0,-3,1,-1,0
1512357224868502,-1,-1,-1,1,0,-1,0,0
1512357224881561,-2,-1,-1,1,-1,-1,-2,-1
1512357224881561,-2,-2,-2,-1,-1,-2,-1,-2
1512357224888513,-2,0,-2,1,-1,-1,-2,0
1512357224888513,-2,-1,1,-2,-1,-1,0,-2
1512357224904525,-1,-1,0,-1,-1,-1,-1,-1
1512357224904525,2,-1,1,-1,-2,-4,1,-1
1512357224906526,-1,-2,-1,-1,-2,-2,-1,-2
1512357224906526,-1,-1,-2,-1,0,-1,-3,-1
1512357224926548,-1,-2,-3,0,0,1,2,1
1512357224926548,-1,-1,-2,-1,0,-2,-2,-1
1512357224933545,-1,-2,-1,-1,0,-2,-2,0
1512357224933545,-1,1,0,-1,0,0,0,0
1512357224940550,2,-1,-1,1,-2,-1,-2,-2
1512357224940550,-1,-1,-2,1,-1,1,-1,-2
1512357224949556,-2,-2,0,-2,-2,-1,0,-1
1512357224949556,-2,0,-1,-2,-1,-2,-2,-1
1512357224964566,-2,-2,-3,-1,-2,-3,-5,0
1512357224964566,0,-1,-1,1,0,-1,-1,-1
1512357224966567,0,-2,-1,0,0,-1,0,-1
1512357224966567,-1,-2,-1,-1,-1,-1,-1,-3
1512357224986581,-1,-2,0,0,0,0,1,-2
1512357224986581,0,0,-2,-2,-4,-2,-2,-3
1512357224988583,-1,-1,-2,-1,-1,-2,1,-2
1512357224988583,-1,-1,-1,-1,-2,-1,0,-1
1512357225000591,-2,0,-1,-2,0,-1,-1,0
1512357225000591,-1,-1,0,0,-2,-1,-2,0
1512357225009613,-1,0,-1,-1,-2,-2,-1,1
1512357225009613,0,-1,-2,-1,0,-3,-2,-1
1512357225024675,2,0,-2,-1,-1,0,-2,-1
1512357225024675,-1,-2,0,-2,-1,0,0,0
1512357225025634,-1,0,-1,-1,-1,-2,-2,-3
1512357225025634,-2,-2,0,1,-2,-1,-1,1
1512357225046680,-3,-1,0,-1,0,-1,-1,-2
1512357225046680,1,-1,-2,-1,0,-1,-1,0
1512357225048634,0,-2,-1,-2,0,-1,-1,0
1512357225048634,0,-1,-1,-1,-3,-3,-3,-1
1512357225060633,-1,-1,-1,-2,0,-1,1,-1
1512357225060633,-3,0,-1,-1,-2,-2,-1,0
1512357225069640,-3,-1,-1,0,1,0,-2,-1
1512357225069640,0,-2,-1,-1,0,0,0,0
1512357225084664,0,0,0,-2,-2,0,-1,0
1512357225084664,-3,-2,-2,-1,-1,-1,-2,-2
1512357225085660,-1,-2,0,0,-1,-2,-2,-1
1512357225085660,-2,-1,-1,-2,-1,-3,-2,0
1512357225106667,-1,-3,-1,-1,-2,-2,-1,-1
1512357225106667,1,-1,-2,-2,0,-1,1,1
1512357225108681,-1,0,-2,0,-3,0,0,-1
1512357225108681,-1,0,-3,-2,-1,-1,-1,-1
1512357225120676,0,1,-1,-1,-1,-2,0,-1
1512357225120676,-3,0,-1,0,-2,0,0,-2
1512357225129684,0,-2,-1,-2,0,-1,-1,0
1512357225129684,1,-2,0,-1,-2,-1,-1,0
1512357225144694,-1,-3,-1,-2,0,1,-2,-1
1512357225144694,-1,-1,1,0,0,-4,-1,-1
1512357225145694,0,-2,-1,-1,-2,-1,-2,-2
1512357225145694,-1,-2,-1,-1,-2,-1,-1,-3
1512357225166728,0,-1,-2,0,-1,0,0,0
1512357225166728,-2,-2,-1,-2,0,2,1,-2
1512357225168711,0,1,0,-2,-3,-2,-1,-2
1512357225168711,1,-1,-2,-2,1,-1,-1,-1
1512357225180776,0,-1,-1,0,-3,-2,-1,0
1512357225180776,-1,-1,-1,-1,0,-1,0,-1
1512357225189725,-1,-3,-1,1,-2,-3,-1,0
1512357225189725,-2,0,-1,0,0,-2,-1,-3
1512357225211767,-2,0,-3,0,0,1,-2,1
1512357225211767,0,-2,-1,-1,-1,0,0,-1
1512357225213787,-1,0,-1,-2,-1,-1,0,-2
1512357225213787,0,-2,0,0,-1,-2,-1,-2
1512357225226782,0,0,0,0,-1,-1,-2,-1
1512357225226782,-2,-1,-1,-1,-3,-3,-1,0
1512357225228782,-3,-1,-1,-1,-1,0,0,0
1512357225228782,-1,-1,0,-2,0,0,-2,-2
1512357225240762,2,-2,-2,-1,0,-1,-1,-4
1512357225240762,-2,-3,-1,0,-2,0,-1,-1
1512357225249768,0,-2,-1,-1,0,-1,0,-1
1512357225249768,-1,0,-3,-1,0,1,-1,0
1512357225264778,-2,-2,-3,-1,0,-2,0,-1
1512357225264778,0,1,2,-1,-2,-2,-3,-1
1512357225265779,-1,-2,-1,0,-1,0,-1,0
1512357225265779,0,-1,-2,1,-1,-1,-1,-1
1512357225286793,-1,-1,0,0,0,-1,0,0
1512357225286793,0,-1,-3,-2,-2,-3,-2,-1
1512357225288795,-1,0,0,-3,1,0,1,-1
1512357225288795,-1,0,-1,-1,-2,-1,0,-1
1512357225300804,1,0,-2,-2,-1,-2,1,2
1512357225300804,-1,-1,-1,-2,0,0,-2,0
1512357225309810,1,-2,-1,-1,0,-1,-1,-2
1512357225309810,-2,-1,-1,-1,-2,0,-3,-2
1512357225324822,-1,-1,-1,-2,0,-1,-1,-3
1512357225324822,0,-1,0,-1,-1,-2,-2,-1
1512357225325821,-1,-1,-1,-1,-2,-1,-1,0
1512357225325821,-2,0,-2,0,1,1,-2,-1
1512357225346855,-1,-3,-3,-1,-2,-1,-2,1
1512357225346855,1,-2,-1,-2,-1,0,1,-2
1512357225348838,0,0,-2,-1,-2,0,-2,0
1512357225348838,-1,0,0,-4,0,-3,-1,-1
1512357225360864,-1,0,0,-1,0,-1,-2,-2
1512357225360864,-2,-2,-1,0,-1,0,-1,0
1512357225369852,-1,-1,-2,-1,-1,-2,0,-1
1512357225369852,-1,-1,-2,0,0,1,-1,0
1512357225384864,-1,0,0,-2,-1,-2,-1,-3
1512357225384864,-2,-2,-1,-1,0,-2,-2,0
1512357225385864,0,-1,-1,-1,0,-1,0,-3
1512357225385864,0,-2,0,-1,-1,0,-1,-1
1512357225406879,0,-2,-2,-2,-1,-2,-2,-2
1512357225406879,-3,-2,-2,1,-2,-1,0,-1
1512357225408880,-1,-1,0,-1,-1,-1,-1,-1
1512357225408880,-2,-2,-2,-1,-1,-2,-3,-2
1512357225429955,-2,1,-2,-2,-1,-1,-1,0
1512357225429955,-1,1,-1,-2,0,0,-1,-1
1512357225431917,-1,-1,0,-2,-3,0,-2,-1
1512357225431917,0,0,-2,0,0,-1,1,0
1512357225444912,0,-1,-2,-1,-1,-1,-1,-1
1512357225444912,-1,-1,0,-1,-2,-1,0,-1
1512357225445925,0,0,-3,-1,-1,-1,-1,2
1512357225445925,0,-1,-1,-1,0,0,-1,-1
1512357225466942,-1,-1,-1,0,-1,-2,-1,-2
1512357225466942,-1,-1,-1,-3,0,-1,0,-1
1512357225468941,-1,-3,-2,-1,0,1,-2,1
1512357225468941,0,-1,-2,-1,-1,-2,0,-1
1512357225489936,-2,-1,-1,0,1,0,0,-2
1512357225489936,-1,1,0,-2,-1,0,1,0
1512357225490937,0,0,-1,-1,-3,-3,0,-1
1512357225490937,-1,-2,-1,-1,-1,-1,-1,1
1512357225504947,-2,-1,-2,-1,0,-1,-3,-1
1512357225504947,-1,-1,-1,-1,1,-2,-2,0
1512357225505948,-1,-1,-1,-1,-2,-1,-1,-1
1512357225505948,-1,-1,-2,-1,-3,0,-2,-1
1512357225527003,0,-2,0,0,0,0,-2,0
1512357225527003,-1,-1,-3,0,-1,-2,-1,-2
1512357225528964,-3,-3,1,-2,-1,-2,0,-2
1512357225528964,-1,-1,-2,-2,-2,-1,1,-4
1512357225549980,-2,-2,0,-2,-1,0,-2,0
1512357225549980,-2,-1,-4,1,-2,-1,0,0
1512357225550982,-3,1,0,0,-1,-4,-1,-1
1512357225550982,-3,0,0,0,-1,-2,0,0
1512357225563989,1,-1,0,0,0,-2,0,-3
1512357225563989,-1,-2,-2,-3,0,-1,0,2
1512357225571034,-1,-1,-1,-1,-2,-1,-1,-1
1512357225571034,0,-1,-1,-2,0,-1,-1,-1
1512357225588006,-1,-1,-2,-2,-1,1,-2,-1
1512357225588006,-2,0,0,-1,-3,-1,-3,-3
1512357225589008,-1,-1,0,1,-1,0,-1,1
1512357225589008,-1,-1,-2,-2,-2,-1,-1,-2
1512357225609056,-1,-1,0,-1,-2,-1,-1,-1
1512357225609056,0,0,0,-3,-2,-1,0,-3
1512357225611023,-1,-1,-1,0,0,0,-1,-1
1512357225611023,-3,0,-3,0,-1,0,-2,0
1512357225624050,-1,-2,-2,-1,-2,-1,0,-1
1512357225624050,-1,-2,-1,-1,0,-1,0,-1
1512357225631088,1,-2,-1,-2,-1,-1,-1,0
1512357225631088,0,-1,0,-1,0,-2,-1,-1
1512357225647052,-1,0,-1,0,-1,-1,-1,-1
1512357225647052,-1,-1,-1,-1,-2,-1,-2,-2
1512357225649049,-1,0,-1,-2,0,-1,-1,-3
1512357225649049,0,-1,-2,-1,0,0,-2,-2
1512357225669063,-1,-1,-1,-1,0,0,-3,-1
1512357225669063,-3,0,1,0,0,-1,-1,-1
1512357225671064,-2,-1,1,0,0,0,-1,-3
1512357225671064,-1,-2,-2,-1,-3,-2,-2,0
1512357225684136,-2,-1,-2,-1,-2,-1,0,-2
1512357225684136,-1,-1,0,-1,-2,0,0,1
1512357225691160,0,-1,-3,-1,-2,-1,-1,-1
1512357225691160,0,-1,0,-2,0,0,-1,-3
1512357225707170,-2,-2,-2,-1,-2,-1,-1,-1
1512357225707170,-1,-1,0,-2,-1,-3,0,-2
1512357225708153,-2,-2,-1,-1,-1,-2,0,1
1512357225708153,0,1,-1,-1,0,-1,-3,0
1512357225729177,-1,0,-2,-1,-1,-1,-3,0
1512357225729177,0,0,-2,-1,-2,1,-1,1
1512357225732181,-1,-1,-2,-1,-2,-2,-2,-1
1512357225732181,-2,-2,-1,0,-1,0,-1,0
1512357225744186,-2,1,-1,-1,0,0,-2,0
1512357225744186,0,-1,-2,-1,-1,-3,0,0
1512357225751176,-1,-3,0,-3,0,0,0,0
1512357225751176,0,-1,-1,-1,-1,-1,-2,-1
1512357225767200,-1,-3,-3,-1,-1,-3,-1,-2
1512357225767200,0,-2,-1,-2,-2,-2,1,0
1512357225768190,-2,-1,-1,-2,-2,0,-1,0
1512357225768190,-2,-1,-3,0,-3,-3,0,-2
1512357225789205,0,0,0,0,-3,-1,-2,0
1512357225789205,-1,-2,0,0,0,-1,-2,-3
1512357225791206,1,-2,-2,-1,0,-2,-1,-2
1512357225791206,-1,0,-1,-2,1,0,0,-2
1512357225804214,-1,-1,-2,0,0,0,-1,-2
1512357225804214,-1,-1,-3,-1,-1,-1,-2,-2
1512357225811219,0,0,-1,-2,-4,-2,-1,-1
1512357225811219,-1,-3,-2,-1,-1,0,-2,-1
1512357225827253,-2,0,0,-1,0,0,1,2
1512357225827253,-3,0,-1,-3,-2,0,0,0
1512357225829235,-1,-1,-1,0,-1,0,-2,-1
1512357225829235,0,-1,-2,-1,-1,0,0,-3
1512357225849258,-1,-2,-1,-2,-4,0,-1,-1
1512357225849258,0,0,-1,0,0,-2,0,1
1512357225851248,-1,0,-1,0,0,-2,0,-1
1512357225851248,-1,-2,0,-2,0,0,-2,0
1512357225864257,-1,-2,0,-3,0,0,-1,-1
1512357225864257,-2,-1,-1,-1,-1,-1,-2,-1
1512357225870261,-2,-1,0,-2,0,-1,0,-1
1512357225870261,0,-1,-1,-1,0,-1,-2,0
1512357225887288,-1,-2,-1,-2,-1,-2,-2,-2
1512357225887288,-1,-2,-1,-1,-2,2,0,-2
1512357225888288,-2,0,0,0,-2,-1,-2,-2
1512357225888288,-1,1,-2,-1,-1,0,0,1
1512357225909328,1,-1,-2,0,-1,-3,-1,-3
1512357225909328,-2,0,0,0,0,-1,2,-2
1512357225911312,-2,-3,-1,-1,-1,0,0,-2
1512357225911312,-1,-2,-1,-1,-1,-1,-3,-3
1512357225923314,-2,0,0,0,2,-3,-2,-1
1512357225923314,-1,-1,0,-2,-2,-2,0,-1
1512357225933322,-1,0,-1,-1,-2,-1,0,-1
1512357225933322,1,-1,-1,-2,-1,-1,-2,-1
1512357225947332,-1,-2,-2,-1,-1,-1,-3,0
1512357225947332,-1,-2,-1,-1,-2,-2,-2,-1
1512357225948332,-1,-2,-1,0,-1,1,-1,1
1512357225948332,-1,-2,-2,-1,-2,-2,-1,0
1512357225969362,-1,0,-2,-1,-2,-2,0,-2
1512357225969362,0,0,-1,-1,-2,-1,0,-2
1512357225971347,-1,0,0,-2,-1,-2,-1,0
1512357225971347,-2,0,-3,0,0,-1,-1,-3
1512357225983373,-2,-1,-2,0,0,-1,-2,0
1512357225983373,0,-2,0,0,-1,-1,-1,-3
1512357225992362,0,-2,-3,-1,-2,-3,-1,-1
1512357225992362,-1,-2,0,1,1,-1,0,-1
1512357226007408,-2,-1,-3,-2,-1,1,0,-1
1512357226007408,-2,-1,-1,0,-1,-1,-2,-1
1512357226008374,0,1,0,-2,-1,-1,-3,-1
1512357226008374,1,-2,-1,-2,-1,-1,-2,1
1512357226029407,1,-2,1,-1,0,-1,-1,-2
1512357226029407,-2,-3,-2,2,-1,0,-2,-2
1512357226032391,-3,-2,-2,-2,-2,0,-1,-1
1512357226032391,1,-1,-2,-1,-1,0,-3,-1
1512357226043417,-3,-1,-1,0,1,0,1,-2
1512357226043417,0,-1,-1,-1,-1,-1,0,-1
1512357226052404,0,-2,0,-1,-1,-2,0,1
1512357226052404,-4,-1,-1,1,-1,-1,0,-3
1512357226066414,-1,0,-2,-1,-1,0,-1,0
1512357226066414,-1,-2,-2,-2,-2,-1,-2,-2
1512357226074420,-5,-3,-2,1,0,-1,-3,0
1512357226074420,1,-2,0,-2,-2,0,-2,-2
1512357226089473,-1,0,-2,-3,-1,-2,-2,0
1512357226089473,-1,0,0,-2,-1,-1,-1,0
1512357226091476,-1,0,-2,-1,0,-1,-1,-2
1512357226091476,-3,0,0,0,-3,-2,-1,0
1512357226103484,-1,-2,-1,1,-1,0,1,-1
1512357226103484,0,-1,-1,-3,-1,1,0,0
1512357226112521,1,-2,-1,-3,-1,1,-2,-2
1512357226112521,-1,-1,-1,-1,0,0,0,-2
1512357226126527,-1,-1,1,-3,-1,-1,-1,-2
1512357226126527,-1,0,-1,-2,-1,-4,1,-2
1512357226128501,0,0,-1,1,-1,-1,-1,-1
1512357226128501,0,-2,-2,-1,1,-1,-2,-1
1512357226149515,-1,-1,-2,-1,-2,1,-1,-2
1512357226149515,-2,-2,-1,-1,-2,-2,-1,1
1512357226151516,0,-1,-1,-2,-1,-2,0,-4
1512357226151516,-1,0,-2,-2,-2,-1,-1,-1
1512357226163530,0,-1,0,-1,0,-2,-1,-1
1512357226163530,-1,-2,-2,-1,-1,0,-1,1
1512357226172522,-1,-2,-1,-1,-1,-3,0,-1
1512357226172522,-1,-1,0,0,0,-2,-1,0
1512357226194616,0,-2,-1,1,0,-1,1,0
1512357226194616,-2,-2,0,-1,-1,-1,-2,1
1512357226195585,-1,-1,0,0,-2,-2,-1,1
1512357226195585,-2,-2,-2,-2,-1,-2,-2,-2
1512357226209570,-4,-2,0,-1,-3,1,-1,-1
1512357226209570,1,0,-3,0,-2,-1,-1,-2
1512357226210591,-1,0,-1,-2,-2,0,-2,-2
1512357226210591,-2,-1,-2,-2,-1,-1,0,0
1512357226223580,-1,-2,-2,-1,-1,-2,-2,-1
1512357226223580,-1,0,0,0,-1,-1,0,0
1512357226232585,-1,-2,0,0,-2,-2,1,-1
1512357226232585,-1,0,-1,0,0,-2,-1,-2
1512357226246650,-1,-2,-2,-1,-1,-2,-1,0
1512357226246650,-1,-1,-1,-1,-2,-2,-2,-1
1512357226248598,-3,-3,-1,-3,-1,0,-1,-3
1512357226248598,1,-1,-2,-1,-1,-2,-3,-2
1512357226269617,-1,1,-2,-1,0,0,-1,-1
1512357226269617,-2,0,0,0,-1,-2,0,-2
1512357226270613,0,1,-2,0,-1,0,1,-2
1512357226270613,-1,0,0,-1,0,0,0,1
1512357226283630,-1,-1,-2,1,-1,-1,-3,-1
1512357226283630,-2,-3,-1,-1,0,1,1,0
1512357226291632,-2,-3,-2,-1,-2,-1,0,-1
1512357226291632,-1,-1,-1,-1,-1,-1,-2,0
1512357226306643,-2,-1,0,-2,0,-1,-2,1
1512357226306643,1,0,-1,-1,-1,-1,1,-1
1512357226308644,-1,-1,-2,-2,-1,-1,-2,-1
1512357226308644,0,-1,-3,-2,1,1,-1,-1
1512357226329669,-1,-3,-2,0,-3,-1,0,-2
1512357226329669,-1,-1,-1,-1,-2,-1,0,0
1512357226331660,-2,0,1,0,-1,0,0,-1
1512357226331660,0,-1,-1,0,-2,0,0,-1
1512357226351671,-1,-2,-2,-1,-1,0,0,-2
1512357226351671,-1,-1,-1,0,-1,0,-4,0
1512357226353695,0,-1,-1,0,-1,-1,-2,0
1512357226353695,-1,-2,-1,-2,1,0,0,-1
1512357226366681,-1,-2,-2,-3,0,-3,0,0
1512357226366681,-2,0,0,-2,-1,-1,-2,-2
1512357226368682,1,-1,0,-1,-1,-2,-1,1
1512357226368682,-1,0,-3,-1,-1,-1,-2,-1
1512357226396758,0,-1,-1,-1,-2,-1,-2,-2
1512357226396758,-1,-2,-3,-1,-1,-2,-1,0
1512357226398733,-2,-1,-2,-2,0,-2,-2,-1
1512357226398733,-2,-1,-1,0,0,-2,0,-2
1512357226411737,0,-1,-1,-1,1,0,0,-3
1512357226411737,0,-1,-2,-1,-1,0,-2,0
1512357226413715,0,-1,-1,-2,0,0,0,-1
1512357226413715,-1,-2,-1,-1,-1,-2,-1,-2
1512357226426728,-2,0,0,-2,-3,-2,-2,0
1512357226426728,0,-1,-1,-3,-1,0,1,-1
1512357226428730,-1,-3,-1,-2,-1,-1,0,0
1512357226428730,-2,0,-2,-1,-1,-3,-3,-1
1512357226449740,1,-1,-1,0,-2,0,-2,-2
1512357226449740,-1,-1,-2,-1,1,-3,1,-1
1512357226450748,-2,0,-2,-2,-1,-2,-2,-3
1512357226450748,0,0,1,-1,-3,1,-2,0
1512357226471756,-1,0,1,-1,0,-2,-2,0
1512357226471756,-2,0,-3,0,-2,-1,-1,-1
1512357226473758,-1,-1,-1,0,0,0,-1,-2
1512357226473758,0,-1,-3,-1,-1,-1,-1,-1
1512357226485779,-1,-1,-1,-2,-1,-2,-1,-2
1512357226485779,-2,-2,0,-1,-1,-1,-1,-2
1512357226492784,-1,-1,0,0,-1,-1,-2,0
1512357226492784,0,-1,0,-1,0,-2,-1,-1
1512357226509793,-1,-1,-2,-2,-2,-1,0,0
1512357226509793,-1,-1,-2,-1,-2,-1,-3,0
1512357226510784,0,0,-1,-1,-1,-1,-1,-1
1512357226510784,-1,-1,-3,-1,0,1,-2,-1
1512357226531858,-1,-1,0,-1,0,-1,-1,-2
1512357226531858,0,-2,-1,0,-1,-1,0,-1
1512357226534799,-1,-2,-2,-1,-1,-2,0,-1
1512357226534799,1,-2,0,-2,0,-1,-2,-1
1512357226554812,-1,-1,-4,-2,-2,0,-2,1
1512357226554812,-4,-2,1,0,-2,-1,0,-1
1512357226555813,-2,-1,-2,1,-2,-1,-1,-3
1512357226555813,-3,-2,-1,-1,-1,-1,2,-2
1512357226569825,-1,-2,-1,-1,0,0,0,-1
1512357226569825,-1,-2,-1,-3,-1,-1,0,-1
1512357226570826,1,0,-1,-1,-1,-1,-3,0
1512357226570826,2,-1,-2,0,-1,-1,-2,0
1512357226591844,-2,0,-1,-1,0,-1,-1,0
1512357226591844,-1,0,-1,-2,-1,-1,-2,-1
1512357226593846,-2,-2,-2,0,-2,-2,1,-1
1512357226593846,-2,-1,-2,-1,-2,-1,-2,-1
1512357226606853,0,-1,1,-1,-1,-1,-1,1
1512357226606853,0,0,0,-1,-1,-1,-3,-1
1512357226620869,-1,-3,-2,-2,-1,0,1,0
1512357226620869,0,-2,-2,0,1,1,0,-1
1512357226628918,-1,-4,-2,-1,-3,-1,-1,-2
1512357226628918,-2,-1,-1,-1,-2,-2,-2,0
1512357226631920,-1,1,0,-1,0,-1,0,0
1512357226631920,-3,0,-2,-1,-2,-2,-1,-2
1512357226652945,-3,1,-2,0,0,-2,-1,-2
1512357226652945,0,-2,0,0,1,-1,-1,-2
1512357226653945,0,-2,-1,-1,-1,-2,-2,-1
1512357226653945,-3,0,-2,-1,-1,-1,0,-1
1512357226665943,-2,-1,-2,-2,-3,-1,-2,0
1512357226665943,-1,-1,-1,-1,-2,0,-2,-1
1512357226672971,-1,-2,0,-2,0,-2,-2,1
1512357226672971,0,-2,0,-2,-1,-1,0,-2
1512357226688961,0,-3,0,-1,0,-1,0,0
1512357226688961,-1,-1,0,0,-2,1,0,-1
1512357226690963,-1,-2,-2,-1,-2,-1,1,-2
1512357226690963,0,1,0,0,-2,-2,-3,-1
1512357226711985,-1,-1,1,-1,1,0,-1,-3
1512357226711985,-2,-1,0,0,0,-3,-2,-1
1512357226713978,1,-1,0,-2,0,1,-3,0
1512357226713978,-1,-1,0,-1,0,0,-1,-1
1512357226725990,2,0,-1,1,-2,-1,-1,2
1512357226725990,-1,0,-1,-2,-1,-1,2,0
1512357226733000,-1,0,-2,0,0,0,-2,-1
1512357226733000,-3,-2,-2,-1,-1,1,-1,-2
1512357226749041,-3,0,0,-2,-2,-1,-1,0
1512357226749041,-1,0,-1,-1,-1,0,-1,0
1512357226751005,0,-1,-2,-2,-1,-3,-2,0
1512357226751005,0,0,-3,-1,2,-2,-2,1
1512357226772031,0,0,-2,1,-1,-1,0,-1
1512357226772031,1,-2,-2,-1,0,0,0,0
1512357226773031,-3,-3,0,0,-2,-1,-2,-3
1512357226773031,0,-3,1,-1,0,-1,0,-2
1512357226786040,-1,0,-2,-1,0,0,-2,1
1512357226786040,0,0,-1,-1,-3,-1,0,-2
1512357226793046,-1,0,0,-1,0,-1,-1,0
1512357226793046,-1,-3,-3,-1,-2,1,-1,1
1512357226817064,-2,-2,1,0,-1,0,-1,0
1512357226817064,-1,-2,-1,-1,-3,0,-1,-1
1512357226818053,-2,0,-2,0,-2,-1,-1,-1
1512357226818053,0,0,0,-1,1,-1,-1,-3
1512357226832081,-1,0,-3,-3,1,-1,0,-1
1512357226832081,-1,-1,-1,-1,-2,-2,-2,0
1512357226834063,0,0,0,0,-2,1,-1,-1
1512357226834063,-2,0,-3,-2,-1,-2,-2,-2
1512357226845071,0,-2,-2,-1,-1,-1,0,-2
1512357226845071,-2,-3,-2,-2,-1,0,-1,-1
1512357226855077,0,-1,0,-1,-1,-1,1,1
1512357226855077,0,-2,0,-2,0,0,0,-3
1512357226869101,-1,-2,-1,1,-3,-2,0,-1
1512357226869101,-2,-2,-1,-2,-1,-1,-2,-1
1512357226871088,-2,1,-1,-1,0,-4,1,-2
1512357226871088,-1,0,-2,-1,-2,-2,-2,0
1512357226892113,0,-2,0,0,0,-1,0,-1
1512357226892113,-1,-1,-1,-1,-2,0,1,0
1512357226893114,-1,-1,0,-2,-1,0,-2,0
1512357226893114,-1,-1,-2,0,-1,-2,-1,-2
1512357226905149,1,1,-2,-2,-2,-1,-1,-2
1512357226905149,0,-1,-1,1,-1,-1,0,-1
1512357226915125,0,-1,-1,0,-1,-1,-3,-1
1512357226915125,-2,0,0,0,-1,-2,-2,-2
1512357226929136,-2,-2,-3,-2,0,1,0,-1
1512357226929136,-1,-2,-1,-1,-1,-3,-1,-2
1512357226932137,0,-2,0,0,-1,-1,-1,0
1512357226932137,1,-2,0,-1,0,0,0,-1
1512357226952171,-2,-2,1,-1,-1,-2,-1,-3
1512357226952171,0,1,0,-1,-1,-3,-1,-1
1512357226953147,-1,-1,-2,-1,0,-2,-2,0
1512357226953147,-2,-2,-1,1,-1,0,1,1
1512357226965180,-1,-2,-2,-1,-2,-2,-1,-1
1512357226965180,-1,0,0,-1,-1,-2,-1,-2
1512357226974176,-1,-1,-1,-1,-1,-1,-1,-1
1512357226974176,0,-1,0,-1,-1,1,-1,1
1512357226989173,0,0,-1,-1,1,-2,-1,-2
1512357226989173,-4,-1,-3,-2,-1,-1,-2,-2
1512357226991184,0,-1,-2,0,-2,0,-1,0
1512357226991184,-1,0,-1,-1,-2,-1,-2,-2
1512357227012211,-3,0,-2,0,0,0,0,-2
1512357227012211,1,-2,-1,-1,-2,-2,0,-1
1512357227013199,-2,0,-2,0,0,-2,-1,-3
1512357227013199,-1,-1,-2,-1,-1,-1,1,0
1512357227025221,0,-1,-1,-2,0,-2,-1,-1
1512357227025221,0,-1,-2,-1,2,-1,-1,-2
1512357227034203,0,-2,-3,-2,-1,0,-1,-2
1512357227034203,-1,-3,-1,0,-1,-1,-4,-1
1512357227049237,-2,-1,0,-1,-2,-1,-1,2
1512357227049237,-1,-2,-1,0,-1,-1,1,0
1512357227051217,-1,-1,-1,-2,-2,0,-1,-2
1512357227051217,-1,0,-1,-2,-2,-2,-1,-1
1512357227072239,-2,-1,-1,-1,-1,-2,-2,0
1512357227072239,0,-1,0,-2,-3,0,-3,0
1512357227073234,0,0,-2,-2,-1,-1,-2,-1
1512357227073234,-1,-2,-1,-2,-1,0,0,-2
1512357227085240,0,-3,-3,-2,-2,-3,-2,-1
1512357227085240,-1,-1,-2,-2,-1,0,0,-1
1512357227094252,-2,-1,-1,0,1,0,-1,-2
1512357227094252,0,0,-3,0,-1,-2,-1,0
1512357227117263,-1,-2,-1,-2,0,0,0,1
1512357227117263,-2,-1,-1,-2,-1,-1,-1,-1
1512357227118264,-2,-3,-2,-3,-2,0,0,-1
1512357227118264,0,-2,-1,-2,-1,0,-1,-2
1512357227132274,0,-1,0,-2,-2,-1,0,-1
1512357227132274,-2,-1,-1,0,-2,-1,-1,-1
1512357227134274,1,1,0,-2,-1,-2,-1,-1
1512357227134274,-1,-1,-2,-1,-1,-2,-1,-2
1512357227145297,-1,-1,-2,-1,-1,-1,-2,0
1512357227145297,-2,-1,-1,-2,-1,-1,-1,1
1512357227154289,0,-3,-1,-2,-2,-1,-2,-1
1512357227154289,-2,1,-1,-1,-1,-2,0,-1
1512357227169311,0,-2,1,-1,-1,-2,-2,0
1512357227169311,0,-1,0,-1,-1,-3,-2,-2
1512357227171313,-1,-1,-1,-1,-1,0,-1,0
1512357227171313,-1,-2,-1,-1,0,0,0,-1
1512357227192332,-1,-2,-1,1,-1,0,-1,-2
1512357227192332,0,0,-1,-1,-2,-1,-1,1
1512357227193316,0,-1,-2,-1,0,0,-2,-1
1512357227193316,-2,0,-2,-1,0,-1,-1,0
1512357227205327,-3,0,0,0,1,-2,-1,0
1512357227205327,1,-2,-1,-1,0,-3,0,-1
1512357227214341,-1,0,-1,-2,-2,0,-1,0
1512357227214341,-2,-1,0,-2,0,-2,0,-1
1512357227229364,0,-1,-4,-1,-2,0,-1,-1
1512357227229364,-1,-1,1,-2,-1,-1,-2,-1
1512357227232344,-2,-1,-1,0,-2,-2,-1,0
1512357227232344,0,-2,-2,0,0,-2,0,1
1512357227252358,-1,-1,-1,-2,-2,-1,-1,1
1512357227252358,-1,-1,-1,0,0,0,1,0
1512357227253359,-2,-1,0,0,1,0,-1,-1
1512357227253359,1,1,-1,-1,-1,0,-4,-1
1512357227265425,0,-2,-1,-1,-1,-1,-1,-1
1512357227265425,-1,-1,0,-1,-1,0,-2,-1
1512357227274376,-1,-1,-1,-2,0,1,-2,-2
1512357227274376,0,0,-2,-2,-1,-1,-1,-1
1512357227289403,-3,0,-1,-1,-1,-1,-1,-2
1512357227289403,0,-2,-3,-1,-2,-1,-2,-1
1512357227291386,-1,-2,-3,-1,-1,-3,1,-1
1512357227291386,-1,-2,0,-1,-2,-1,-2,0
1512357227311403,-2,1,0,-1,-2,-1,0,-1
1512357227311403,0,0,-1,0,-2,-1,0,-1
1512357227313402,-1,1,-1,-1,-1,-1,-1,0
1512357227313402,1,-2,-1,-1,-3,0,-3,0
1512357227334416,-1,-2,0,-1,-1,-1,0,-2
1512357227334416,-2,0,-1,0,-1,-1,-1,1
1512357227336417,-2,-1,-2,-3,0,0,0,-1
1512357227336417,-1,-1,-2,-2,-2,-2,-1,-1
1512357227349441,-1,-2,-1,1,-2,0,-2,-1
1512357227349441,-3,-3,-1,-1,-1,0,-1,-3
1512357227351443,0,0,-1,0,-1,-3,0,-2
1512357227351443,-4,-1,1,-1,-2,-1,0,-3
1512357227371453,1,0,-2,-2,-1,-1,0,0
1512357227371453,0,-1,-1,-2,-2,-1,-1,0
1512357227373444,-2,-1,-2,0,-1,-3,-3,0
1512357227373444,-1,0,-2,-1,0,-1,-1,-3
1512357227394462,0,-3,2,-1,-1,-2,0,0
1512357227394462,-1,0,0,1,-1,-1,-1,1
1512357227396461,-1,-1,-2,0,-3,0,-1,-2
1512357227396461,0,-2,0,0,-1,-1,-1,-1
1512357227409494,-1,-1,-2,-1,-2,0,-2,0
1512357227409494,-1,0,-2,-4,0,0,-1,0
1512357227411472,-1,-1,-1,0,-1,0,-1,-3
1512357227411472,0,-1,-1,-1,0,0,0,-1
1512357227432513,-2,-1,0,-1,-2,-1,0,-1
1512357227432513,0,-1,-1,-1,-1,-2,-3,-1
1512357227434488,-2,-1,-2,-2,-1,-1,-2,-1
1512357227434488,-1,-1,0,-1,0,-2,0,1
1512357227454501,-1,-3,-1,-1,-2,-1,0,1
1512357227454501,0,0,0,0,1,-2,-3,-2
1512357227455502,-2,-1,-1,-1,0,-3,-2,-3
1512357227455502,-1,-1,-1,0,-1,0,-2,-1
1512357227468512,0,-1,-2,-3,-2,-2,0,0
1512357227468512,-2,-1,-2,-1,-2,0,1,0
1512357227475539,1,-2,-1,-1,-2,-1,0,0
1512357227475539,-2,-2,-2,0,1,-2,-1,-2
1512357227491612,-1,2,-1,0,-1,-1,-2,-1
1512357227491612,-1,-1,0,-1,-3,-3,-1,-2
1512357227493614,-1,-1,-1,-1,-1,-2,-4,0
1512357227493614,-2,-2,0,-3,-2,0,0,-1
1512357227514682,-2,1,-2,-2,-2,-2,-3,0
1512357227514682,-1,-3,-2,-1,-1,-3,0,-1
1512357227515619,1,0,-1,-2,-2,0,0,-1
1512357227515619,0,-1,-2,-2,0,-1,-3,-1
1512357227528646,-2,0,-3,-2,-2,-1,0,-3
1512357227528646,-1,-2,-2,-2,1,1,-1,-3
1512357227535652,-1,-1,-2,-1,1,-3,-2,-2
1512357227535652,-2,-2,-2,-1,-3,0,-1,-1
1512357227551663,1,-2,1,0,-1,-1,-1,0
1512357227551663,-3,-2,-1,1,-1,-2,-1,0
1512357227553665,1,-1,-1,-2,0,0,0,-1
1512357227553665,-2,-1,-2,-1,0,-1,0,-1
1512357227573667,-1,-2,0,-2,0,-3,-1,-3
1512357227573667,-1,0,0,-2,-2,0,-1,-3
1512357227574655,0,-2,0,1,-1,2,-3,-1
1512357227574655,0,1,0,-2,-1,0,2,0
1512357227587673,-1,-1,0,-2,0,-1,1,-2
1512357227587673,0,-2,-1,0,0,-3,-1,0
1512357227596684,-1,-1,-2,-1,-2,0,-2,-1
1512357227596684,0,-1,-2,-2,-1,0,-3,-2
1512357227611689,-1,-1,-1,-2,-1,0,-2,-2
1512357227611689,-1,-2,-1,-2,-1,-1,1,-1
1512357227611689,-2,2,-1,0,0,-1,-1,-1
1512357227611689,1,0,-4,1,-1,-1,-1,-1
1512357227633718,-1,-2,-1,0,0,0,-1,-1
1512357227633718,0,-1,-1,0,-3,0,-1,0
1512357227634700,-1,-2,-1,0,0,-1,0,-1
1512357227634700,-1,0,-1,-2,-1,-2,0,-1
1512357227647719,-1,0,0,0,0,-2,-1,0
1512357227647719,0,-1,-1,0,-1,0,-1,-1
1512357227656721,-2,-1,0,-2,-2,-1,-1,1
1512357227656721,-1,-1,-3,-1,-1,-2,-1,0
1512357227670786,0,-1,0,1,-2,-1,-2,0
1512357227670786,-1,-2,-1,-1,0,-1,-2,-1
1512357227671774,0,0,-1,-1,1,-1,-1,-1
1512357227671774,-2,0,0,0,-1,0,-2,0
1512357227693847,0,-3,-1,-2,0,-2,0,-1
1512357227693847,0,-1,-1,-1,-2,-1,-1,1
1512357227694794,-2,-1,-2,-2,0,-3,-2,-2
1512357227694794,-2,-2,-2,1,-2,-3,0,0
1512357227707903,0,1,0,-1,-1,-1,-2,0
1512357227707903,-1,-2,0,-2,-1,-1,-2,-3
1512357227715910,-1,-2,-3,-1,-2,-1,-1,-1
1512357227715910,-1,-1,0,-1,-1,-1,-1,-3
1512357227730921,-2,-2,-1,0,0,0,0,2
1512357227730921,-1,0,-1,0,-2,-1,0,-2
1512357227732914,-1,-1,-1,-1,-2,1,-1,-2
1512357227732914,-2,-1,-1,0,-1,-1,-2,-3
1512357227753928,1,-1,0,0,-1,-2,-1,-2
1512357227753928,-2,-1,0,-1,-1,-1,0,0
1512357227754927,-3,1,0,1,-1,-2,0,-1
1512357227754927,-1,-1,0,-1,0,-1,-1,-1
1512357227767936,-3,-1,-1,-1,-1,-1,0,-2
1512357227767936,-1,1,-2,-1,-1,1,1,0
1512357227775953,1,-1,-1,-1,-2,0,1,0
1512357227775953,0,-1,0,-2,-1,1,-1,-1
1512357227790968,0,-1,-1,-2,0,-3,-3,0
1512357227790968,-1,-1,-2,-1,-2,-2,-2,-1
1512357227791957,-2,-1,0,-3,-1,-1,-1,-1
1512357227791957,-2,-3,0,-2,0,-1,0,-3
1512357227814022,-2,-1,-2,0,-3,0,1,-2
1512357227814022,-3,-1,-1,0,-2,-1,-1,0
1512357227814960,0,-2,-2,0,-2,-2,-2,-1
1512357227814960,-1,-1,-1,-1,-1,-1,-1,1
1512357227827990,0,0,-2,-1,-2,-2,-1,-3
1512357227827990,0,0,-1,-2,0,-3,-1,0
1512357227835975,-1,-1,-2,-1,1,-1,-1,-2
1512357227835975,-2,0,-1,0,0,0,-3,-2
1512357227852001,-2,-1,1,0,-1,0,-1,0
1512357227852001,-2,-1,-1,0,-2,-1,-3,-3
1512357227852001,0,-1,-2,-1,-1,0,1,0
1512357227852001,1,-2,0,-1,-1,-2,0,0
1512357227874021,-2,-2,-1,-2,-1,0,-3,-1
1512357227874021,-1,-2,-3,-2,-1,0,-2,-2
1512357227874021,0,-2,-1,-1,-2,-1,-2,0
1512357227874021,-3,-1,-1,0,-1,-2,0,-2
1512357227888020,-1,0,0,-2,-1,-1,1,-1
1512357227888020,-1,-1,-1,0,-2,-2,-1,-1
1512357227896030,-2,-1,-3,0,-1,-1,-3,-2
1512357227896030,-2,0,-1,-1,1,-1,-2,-2
1512357227911052,-1,-2,0,-2,0,-3,-1,-2
1512357227911052,-2,-1,-1,-2,0,-1,-1,0
1512357227912031,-1,-1,-1,-1,0,-2,-1,-2
1512357227912031,-2,-1,-1,-3,-2,-2,-1,-3
1512357227934045,-2,-1,0,-1,-2,-3,-2,-1
1512357227934045,0,-2,-1,-1,-2,0,0,0
1512357227935045,-1,-1,-1,0,-1,1,0,-2
1512357227935045,0,0,-1,-1,-1,-1,0,0
1512357227948053,0,-1,-1,-1,0,2,-1,1
1512357227948053,-1,0,0,-3,-2,-2,-2,-1
1512357227956060,-1,-1,-1,-2,-1,-1,-3,-2
1512357227956060,0,-3,-1,-2,-1,1,-2,-1
1512357227971084,-1,-2,-2,-1,-2,0,-1,0
1512357227971084,-1,-1,0,1,0,-1,-2,-1
1512357227972070,-1,0,0,0,1,-1,-1,0
1512357227972070,-2,-1,-1,-2,-2,-1,0,1
1512357227994095,-2,0,1,-1,-1,-4,0,-1
1512357227994095,0,0,0,-1,0,-1,0,-2
1512357227994095,-3,-2,-1,-1,-2,-1,-2,0
1512357227994095,1,-1,-2,-1,0,-1,-3,1
1512357228008121,-1,0,-3,1,-2,1,1,0
1512357228008121,-3,0,-1,-1,-2,-1,0,-1
1512357228016162,0,0,-2,-3,1,-1,-2,-2
1512357228016162,0,-1,-1,-2,-1,-2,-1,-2
1512357228039131,-1,0,0,-1,1,-1,0,1
1512357228039131,1,-1,-1,-1,0,-1,0,-1
1512357228040118,-2,0,-2,0,-1,-1,-2,0
1512357228040118,-1,-3,-1,-1,-2,-1,-1,0
1512357228054128,-1,-1,-2,0,-2,-1,0,-3
1512357228054128,1,-1,-1,-2,-1,-2,0,-1
1512357228054128,-2,-1,0,-1,-1,-2,0,1
1512357228054128,-1,0,-3,0,-2,-1,-3,0
1512357228068162,0,-1,0,-2,-2,-2,-3,-1
1512357228068162,0,-2,-3,-1,-1,0,0,-2
1512357228076195,-2,0,-2,0,-1,-1,0,-1
1512357228076195,-3,0,-2,-1,-1,0,-1,-2
1512357228091154,0,0,-1,0,-1,1,0,-2
1512357228091154,-2,0,-1,0,0,-2,-1,-1
1512357228092155,0,0,-1,-3,-2,0,0,-2
1512357228092155,0,1,-1,0,0,1,-3,1
1512357228113193,-2,-1,0,0,-1,-2,-3,0
1512357228113193,-1,-1,0,1,-1,-2,-2,0
1512357228114175,1,0,-2,-2,-2,-1,1,-2
1512357228114175,0,-1,-1,-1,-1,-1,0,-1
1512357228128203,-3,-1,-2,-2,-1,1,1,-1
1512357228128203,1,-1,0,0,-2,-1,0,-1
1512357228136195,-1,-4,-1,-2,-1,-1,-2,-2
1512357228136195,0,-2,-1,-1,-3,-1,0,0
1512357228151228,-1,0,-1,-1,-2,-2,-1,-2
1512357228151228,-2,-1,-2,-3,-2,-1,-2,-1
1512357228152198,-1,-1,0,-1,0,-2,-2,-1
1512357228152198,0,-1,-1,0,-1,-1,-2,-2
1512357228174231,-1,-2,-1,-1,-1,-1,-2,1
1512357228174231,-2,-2,0,-2,-1,-1,-2,0
1512357228174231,0,1,-1,0,0,0,-1,-1
1512357228174231,-1,-1,-1,-2,0,0,-1,-2
1512357228197246,-1,-2,0,-3,-1,-1,-1,0
1512357228197246,-1,-1,-2,-3,-3,0,0,-2
1512357228197246,-1,-2,-1,-1,1,-1,0,-1
1512357228197246,-2,-1,0,-1,-1,-1,0,0
1512357228211256,-1,-1,-1,-1,-1,-2,-1,-2
1512357228211256,0,0,-1,-1,0,-1,-2,0
1512357228212243,-1,-2,0,-1,-1,-2,-2,-2
1512357228212243,-1,0,0,1,-1,-1,-2,-1
1512357228233326,1,-1,-2,0,-1,-3,-1,0
1512357228233326,-3,-2,0,-1,-1,0,0,-2
1512357228234336,0,0,-2,0,-3,-1,0,-1
1512357228234336,-2,-1,-1,-1,0,-2,-1,-2
1512357228257340,-3,-1,-1,-2,-2,0,-2,-1
1512357228257340,-1,-1,-3,0,0,-2,-1,-1
1512357228257340,1,-2,-2,0,-1,1,-2,0
1512357228257340,0,0,-2,-2,-1,-2,-1,0
1512357228271351,-3,1,0,0,0,-1,0,-1
1512357228271351,-2,-1,-1,-1,-3,-1,-2,0
1512357228272351,-3,-1,-2,-2,-1,-1,-1,-3
1512357228272351,1,-2,-1,-1,-1,-1,-1,0
1512357228293422,-1,-2,-2,-1,-2,0,0,0
1512357228293422,-1,-1,0,-1,0,-1,-2,-1
1512357228294422,-1,0,-3,0,-1,-1,-2,-1
1512357228294422,-2,0,-1,-2,0,-1,-1,-2
1512357228316449,-1,0,-1,0,-2,-2,0,0
1512357228316449,-1,0,0,-1,-1,0,-1,0
1512357228317438,-1,0,-2,-2,-1,-1,-1,-1
1512357228317438,-1,-1,-1,-2,0,-1,1,-1
1512357228331462,-1,-1,1,-1,-2,0,-1,-1
1512357228331462,0,-2,-2,0,-1,-1,-2,-1
1512357228332470,0,-1,0,0,0,-1,-1,-1
1512357228332470,-1,-1,-1,1,0,0,0,-3
1512357228353466,-1,-1,-1,-1,-1,0,0,1
1512357228353466,1,2,0,-1,-1,-4,-2,-1
1512357228354466,0,-2,-2,-3,-2,0,-3,-1
1512357228354466,0,0,-1,-1,0,0,-1,-1
1512357228376484,-2,-1,-1,-1,-2,-1,0,-1
1512357228376484,-2,0,0,-1,0,0,1,-2
1512357228377484,1,-1,-2,-1,0,-1,-2,1
1512357228377484,-1,-1,-2,-1,-3,0,-2,0
1512357228391497,0,-1,0,0,0,-2,-1,-2
1512357228391497,-2,-1,1,-1,0,0,-1,-2
1512357228392497,-2,-2,-1,-1,1,-2,-1,-1
1512357228392497,-2,-1,-1,0,0,-1,-1,-2
1512357228413508,1,-2,0,-2,-1,-1,0,-2
1512357228413508,0,-1,-4,-1,-2,-2,0,-1
1512357228414506,-3,-3,-1,0,-1,2,-2,0
1512357228414506,0,-1,-2,-2,-1,-2,-2,-1
1512357228436523,0,-1,0,0,-1,0,-2,-2
1512357228436523,-2,-1,-1,-1,-1,-3,-1,1
1512357228437522,0,-1,-1,-1,-1,-1,-1,-2
1512357228437522,-1,-2,-2,-1,-1,-1,-1,0
1512357228451543,-2,0,-3,-1,0,0,-1,-1
1512357228451543,0,1,0,0,-1,2,0,-1
1512357228451543,1,0,-1,-1,-3,-3,0,-1
1512357228451543,-1,0,0,-1,-3,-1,-2,1
1512357228473573,0,-3,-2,-2,-2,-1,0,0
1512357228473573,0,-1,-1,-1,0,-1,-2,-1
1512357228474553,-2,0,-1,-1,-1,0,-1,-1
1512357228474553,0,-1,-1,-1,0,0,-3,0
1512357228496659,-1,-1,0,-2,-2,-1,0,1
1512357228496659,-2,-1,-3,0,-2,-1,-1,-1
1512357228497636,-1,-1,0,-1,0,-1,0,0
1512357228497636,-1,1,-2,-1,-2,-2,-1,-2
1512357228511647,-2,-1,0,0,0,1,-1,-1
1512357228511647,-1,0,0,1,-1,-1,-2,0
1512357228511647,-2,-1,-2,0,-2,-1,-1,-1
1512357228511647,0,-2,-2,-3,0,-1,-1,-2
1512357228533671,0,-3,-1,-3,-2,-1,-1,-2
1512357228533671,0,-1,-3,-2,-2,-1,-3,-3
1512357228534665,-1,-1,0,0,-1,-1,-3,-1
1512357228534665,-3,-2,0,0,-1,-2,0,-2
1512357228564702,0,-1,-2,-2,-1,0,-1,-1
1512357228564702,-1,-2,-1,-1,-2,0,1,0
1512357228565692,0,-1,-1,-1,0,0,-2,-2
1512357228565692,-1,-1,-2,0,-2,0,0,-1
1512357228571697,-2,-2,-1,0,-3,-2,0,-1
1512357228571697,-1,-2,-1,-3,-2,-1,-1,-2
1512357228571697,-1,0,-1,-1,0,-2,-1,-2
1512357228571697,0,-2,0,-1,-1,-1,0,1
1512357228593720,-2,-1,-1,-1,-1,0,-3,-2
1512357228593720,-2,-2,0,-2,1,-2,-2,-1
1512357228594707,-3,0,0,-1,0,-1,0,0
1512357228594707,-1,-1,-1,0,-2,-1,0,-1
1512357228616736,0,0,0,1,0,0,-1,-1
1512357228616736,-1,-2,-2,-1,1,-3,-1,0
1512357228617721,-2,-1,-1,-2,-2,-1,-1,-1
1512357228617721,-2,0,0,-1,-1,-1,0,-1
1512357228631749,-2,1,1,-1,-2,-1,-3,-1
1512357228631749,1,-1,-2,0,0,1,-2,-2
1512357228632753,1,-2,-1,-1,-1,1,-2,-1
1512357228632753,-1,-1,0,-1,-1,-1,-1,-1
1512357228653755,-2,-1,-2,0,-1,-3,0,-1
1512357228653755,-1,0,0,-1,0,0,0,0
1512357228654746,0,1,-2,-1,-2,-1,0,-1
1512357228654746,0,-1,-1,-1,0,0,-1,-1
1512357228676835,-1,-1,-1,-2,-1,-1,-2,2
1512357228676835,-1,-1,-1,1,-1,-1,-1,-2
1512357228677809,-1,-1,0,-1,-1,-1,-3,-1
1512357228677809,-1,-1,-2,-3,-2,-2,-2,-3
1512357228690829,-2,-1,0,0,0,-1,-1,-1
1512357228690829,-2,-1,-2,-1,-1,-1,-3,-2
1512357228691820,-2,0,-2,-1,0,-1,1,-2
1512357228691820,-1,0,0,-1,-1,-1,-3,1
1512357228713857,-1,-2,-2,-1,-1,-1,-2,-1
1512357228713857,-1,-1,-2,-1,-2,0,0,0
1512357228714837,-1,-2,-2,-1,0,-2,-1,-1
1512357228714837,0,-1,-1,-2,0,-2,1,1
1512357228736856,0,-1,0,-2,0,-2,0,-1
1512357228736856,-1,-2,0,0,0,-1,0,-1
1512357228737854,1,-1,-1,-1,0,-2,-2,0
1512357228737854,0,-2,-2,0,-1,-1,-1,-2
1512357228750880,-2,0,-2,0,-1,-1,1,0
1512357228750880,0,1,-1,-1,-2,-1,-3,-1
1512357228751862,-2,-2,0,-1,-1,1,-1,-2
1512357228751862,-2,0,1,0,0,-1,-2,-1
1512357228773895,0,-1,0,0,-1,-1,0,-1
1512357228773895,-1,-4,0,-2,-2,0,0,-1
1512357228774893,-1,0,-2,-1,-2,-1,-1,-1
1512357228774893,-2,-2,-1,-1,-1,-2,1,-1
1512357228796943,-2,-2,0,-1,-2,-2,0,1
1512357228796943,-2,0,-1,-1,-1,-1,0,-1
1512357228797944,0,-2,-1,0,-3,-2,0,-2
1512357228797944,0,-1,-2,-2,-1,-1,-1,-1
1512357228810973,-1,0,-1,0,-1,0,-2,0
1512357228810973,0,0,0,-1,0,-3,0,-1
1512357228811953,-2,-2,-1,-2,0,-2,-1,0
1512357228811953,0,-1,-1,1,-1,-1,-2,0
1512357228833984,0,-2,0,-1,0,0,0,-2
1512357228833984,-1,-3,-1,-1,-1,-1,-4,-1
1512357228833984,0,-1,-2,0,0,-1,-2,-1
1512357228833984,-1,-1,0,0,-1,-2,0,1
1512357228857016,0,-1,-1,0,-2,-1,1,0
1512357228857016,1,0,-1,-1,1,0,0,-1
1512357228857997,0,-2,4,-1,0,0,-1,-2
1512357228857997,0,-2,-9,-3,-3,-1,-2,-2
1512357228870073,-2,-2,1,-1,0,-1,-1,-1
1512357228870073,-1,-2,5,1,-1,-2,0,-1
1512357228879062,-1,-2,-15,-3,-1,0,0,2
1512357228879062,-1,-2,1,-1,-1,-2,-1,-1
1512357228894066,-1,-2,0,0,-3,-1,-1,1
1512357228894066,-1,-2,-2,-3,0,-1,-2,-1
1512357228894066,2,-1,6,2,2,0,-1,-2
1512357228894066,-2,-3,0,0,0,0,1,-1
1512357228917083,-1,0,-3,-2,-1,-4,-2,-1
1512357228917083,-1,-1,1,0,-4,-1,-1,-1
1512357228918084,-1,-2,-2,-2,0,-1,-2,0
1512357228918084,-4,-1,-2,1,-2,0,-1,0
1512357228930159,0,2,18,8,0,-2,1,-2
1512357228930159,-1,-1,-40,-3,0,-2,-1,1
1512357228939097,-5,-10,12,-23,-7,-4,-3,-3
1512357228939097,1,-1,1,-2,0,-1,-1,0
1512357228953107,-2,-2,-4,-1,2,1,-1,-1
1512357228953107,-1,2,19,7,0,0,-1,-2
1512357228954107,1,1,-43,2,1,1,1,-1
1512357228954107,1,-1,33,10,-2,-3,-1,0
1512357228984185,-3,-8,-47,-31,-7,-4,-3,-1
1512357228984185,-3,-3,-6,-6,-1,-3,0,-2
1512357228985130,-5,1,-2,2,3,0,1,-1
1512357228985130,-1,2,10,2,-3,0,-2,-2
1512357228990133,-2,3,3,10,3,0,-2,-1
1512357228990133,1,-1,5,4,-1,1,-1,1
1512357228999152,-3,-2,7,-10,-3,-1,0,0
1512357228999152,0,-1,-12,10,-3,-2,0,1
1512357229014187,0,-2,7,-2,-4,-2,-2,-1
1512357229014187,-1,-1,-7,-6,0,1,0,-2
1512357229014187,-1,1,11,13,0,0,-1,-1
1512357229014187,1,2,-13,-16,-2,-2,-1,-1
1512357229037167,-7,-5,10,3,-1,0,0,-1
1512357229037167,7,3,3,1,3,0,-1,-1
1512357229037167,-2,2,-12,2,-1,-2,-2,-2
1512357229037167,2,6,49,7,1,-1,1,1
1512357229050178,8,-2,-7,12,3,1,0,-1
1512357229050178,-7,-15,-11,-22,-7,-6,-2,-4
1512357229059182,2,-1,19,1,1,1,-2,1
1512357229059182,-4,-2,-20,-5,0,-1,1,-1
1512357229074193,7,10,26,7,-4,-2,0,0
1512357229074193,3,7,15,23,4,3,0,1
1512357229074193,-1,1,-5,-12,0,1,-1,0
1512357229074193,-2,-8,19,2,-7,-3,-3,-1
1512357229097312,0,1,-2,-4,1,1,2,0
1512357229097312,5,3,-18,-4,-1,0,-2,0
1512357229097312,-12,1,9,3,-2,-1,0,-2
1512357229097312,-12,-7,-27,-6,-3,-3,-4,-8
1512357229110288,-4,-9,0,-4,3,-3,-1,-2
1512357229110288,-5,-6,-5,-3,-3,-2,0,0
1512357229118297,9,12,18,12,5,2,-1,1
1512357229118297,-7,-1,-7,-10,-3,-2,-1,1
1512357229133308,9,2,-5,-5,-7,-4,-3,-3
1512357229133308,-8,1,15,-4,-2,-1,-1,-3
1512357229134285,-3,-7,-31,-7,0,0,-2,-1
1512357229134285,4,-3,-13,-1,0,2,-1,-1
1512357229157300,-4,1,4,-2,1,1,-2,0
1512357229157300,5,12,37,12,2,-1,1,3
1512357229157300,11,-18,-23,-14,-6,-6,-1,-3
1512357229157300,-4,-6,-7,-3,2,0,0,-1
1512357229179338,-6,-8,-3,-7,-1,1,2,0
1512357229179338,11,5,7,6,-4,-2,-2,0
1512357229180315,-19,18,6,10,0,-2,-2,-2
1512357229180315,5,-5,-17,-6,1,-2,0,0
1512357229193337,-28,-9,-4,-2,-2,-3,-3,-3
1512357229193337,8,-11,-1,-10,-2,-3,-3,0
1512357229194326,15,-9,4,1,0,0,1,1
1512357229194326,-22,4,2,2,2,1,-1,-3
1512357229217344,10,18,-31,-6,-3,0,1,1
1512357229217344,-20,-5,-7,-7,-1,-4,-6,-9
1512357229217344,-13,-23,4,-2,-4,-3,0,-2
1512357229217344,-25,2,18,-1,-1,-2,0,0
1512357229239369,22,3,-12,2,4,3,2,3
1512357229239369,0,0,-8,0,2,-1,-2,-1
1512357229240358,4,5,-7,-13,-7,-4,-2,-1
1512357229240358,19,6,2,1,0,0,-2,1
1512357229253381,-3,-4,13,1,-1,-1,0,2
1512357229253381,-4,0,-11,-2,0,1,-1,0
1512357229254369,-13,-1,8,3,0,-2,-3,-7
1512357229254369,10,4,-7,-1,0,-1,-1,-1
1512357229277400,-6,-10,-3,-5,-7,-4,-2,-1
1512357229277400,15,-1,1,4,-1,-1,0,1
1512357229278385,-8,10,2,-1,3,-1,-1,-1
1512357229278385,7,-14,-3,-1,-1,-1,1,-1
1512357229299421,-6,3,4,-2,-3,-1,0,-2
1512357229299421,-4,2,-6,-4,-1,0,0,-4
1512357229300401,13,7,2,-2,-2,0,-2,2
1512357229300401,-11,-3,-7,13,4,1,-1,-2
1512357229313433,11,-14,8,1,3,-1,1,6
1512357229313433,-11,1,-4,-9,-4,-6,0,-7
1512357229314420,15,6,-3,4,0,2,1,-1
1512357229314420,1,-9,-2,-9,-5,-2,-3,0
1512357229344432,0,4,-1,0,-2,-4,-1,-3
1512357229344432,17,-4,19,11,4,2,-1,2
1512357229345432,-26,-23,-16,-10,-4,-3,-2,-3
1512357229345432,3,-2,-2,1,-3,-3,2,1
1512357229359470,5,9,5,1,0,1,-2,0
1512357229359470,-5,12,-10,1,-1,0,0,0
1512357229360462,-1,-15,10,3,-1,-2,0,0
1512357229360462,1,0,-3,2,2,0,-2,-1
1512357229373475,0,7,6,-6,-3,-3,0,-4
1512357229373475,-3,-8,-10,-5,-1,-2,-3,0
1512357229374458,2,1,12,5,-3,0,4,5
1512357229374458,-3,3,-13,-7,-3,-4,-4,-4
1512357229396488,21,4,9,2,0,0,-3,-1
1512357229396488,-27,-9,-4,-4,-3,-2,-4,-1
1512357229397470,6,-2,-4,-2,0,-1,1,-3
1512357229397470,6,0,4,-2,0,0,1,2
1512357229419485,-22,-5,3,-3,-3,-3,-6,-6
1512357229419485,27,-3,-4,1,0,-1,1,6
1512357229420485,4,-12,-7,-4,-4,-5,-8,-9
1512357229420485,11,9,7,0,-1,0,2,0
1512357229433495,-1,5,-10,-1,-1,0,-2,-3
1512357229433495,-26,-7,-4,-3,0,0,-1,-5
1512357229434495,7,-5,-5,1,-1,1,4,7
1512357229434495,7,5,17,-5,-1,-3,-1,-2
1512357229456526,-11,-4,9,12,-2,-5,-4,-6
1512357229456526,-6,4,-34,-17,2,0,-1,-5
1512357229457522,14,7,19,6,-1,1,3,15
1512357229457522,-21,-3,-31,-12,-3,-2,-4,-7
1512357229479550,6,4,4,-3,-4,2,6,8
1512357229479550,0,8,19,18,8,3,2,1
1512357229480542,8,5,-13,-3,-1,-4,-8,-11
1512357229480542,22,-11,-5,-5,-3,-4,0,4
1512357229493559,-16,5,4,4,0,0,-3,-5
1512357229493559,-4,-21,-2,-3,-5,-2,-4,-7
1512357229494538,-2,10,-2,-5,-1,1,11,9
1512357229494538,9,12,17,10,2,-1,-10,-2
1512357229516576,0,2,-1,-8,-3,0,-31,0
1512357229516576,-17,-6,-21,-17,-9,-5,50,18
1512357229517564,-8,-12,0,-2,-2,-4,-17,-15
1512357229517564,-2,23,9,8,2,2,8,6
1512357229539580,-9,-37,-1,1,-1,-1,-4,-6
1512357229539580,2,2,-7,-2,-1,0,-15,-6
1512357229540581,-3,4,-8,0,-1,-1,8,4
1512357229540581,2,5,1,-9,-4,0,-14,-8
1512357229553590,-6,-1,-25,-1,2,-1,6,-1
1512357229553590,21,16,15,1,1,0,-3,6
1512357229554582,13,-15,-10,0,3,1,-3,-8
1512357229554582,-17,-9,15,9,0,-1,-7,-7
1512357229584603,28,7,6,-3,-1,-2,11,3
1512357229584603,-1,-11,-8,-12,-6,-1,0,1
1512357229584603,-19,9,13,0,1,1,-13,-10
1512357229584603,2,-21,-15,-2,-2,0,-1,6
1512357229599672,5,12,8,6,2,1,11,7
1512357229599672,13,-5,8,6,2,-1,-12,-8
1512357229600614,-9,18,-9,-3,1,1,2,3
1512357229600614,-5,5,2,1,-2,1,8,4
1512357229613673,-1,2,-15,-12,-2,-3,2,-2
1512357229613673,-20,-20,15,1,-2,-4,-14,-10
1512357229614623,3,-12,1,1,2,1,1,-5
1512357229614623,-7,-8,17,2,-3,-4,3,3
1512357229636638,-6,3,-39,-9,-3,-1,-1,2
1512357229636638,0,20,6,0,-4,-1,-3,-3
1512357229637639,6,2,-15,5,-3,-1,-2,9
1512357229637639,11,2,-24,-16,4,4,-1,-9
1512357229659673,-4,4,-2,-1,-6,-6,1,4
1512357229659673,-2,-8,-6,-4,-1,-2,-3,-2
1512357229660656,-6,-5,4,-3,-3,-3,0,5
1512357229660656,10,1,9,9,-6,-5,4,9
1512357229672717,-3,6,-9,-10,4,-1,-1,-9
1512357229672717,19,-11,-8,-4,-1,-2,-1,4
1512357229681804,16,-2,2,-2,-3,-4,-5,1
1512357229681804,-14,3,-8,-3,2,8,11,5
1512357229695828,-1,-7,20,12,-3,-3,-6,-7
1512357229695828,-10,11,10,7,1,3,1,-7
1512357229704820,8,15,8,-4,3,0,-3,-2
1512357229704820,-4,-16,-12,-1,-3,-3,-1,-1
1512357229719830,5,-7,8,5,-1,1,2,2
1512357229719830,-16,9,-12,1,0,1,-4,-1
1512357229720846,-4,-12,7,2,0,1,2,-8
1512357229720846,-12,7,4,-8,-3,-4,-1,-1
1512357229732880,-6,-12,6,14,2,-1,-3,10
1512357229732880,6,-4,-9,11,-5,-3,0,-3
1512357229741847,-13,-19,-26,-39,0,-3,-9,-29
1512357229741847,-10,7,-7,-1,-4,-4,-7,-13
1512357229756883,1,4,-18,-14,0,3,4,5
1512357229756883,2,0,5,11,-5,-3,-2,10
1512357229758863,0,6,-18,2,-5,-1,4,13
1512357229758863,-8,-8,14,-4,-1,-1,-4,-9
1512357229779905,5,0,-5,-4,0,2,3,2
1512357229779905,16,5,8,12,2,2,4,42
1512357229781889,-10,0,3,-6,-2,-6,-17,-79
1512357229781889,-24,-42,7,2,2,1,-3,-1
1512357229792892,11,12,-26,-6,-8,-6,-11,-13
1512357229792892,5,-20,14,-9,1,-3,6,9
1512357229801888,0,7,0,14,3,6,8,21
1512357229801888,4,3,-10,-3,-4,-4,-10,1
1512357229816917,-1,9,46,15,4,0,3,4
1512357229816917,-15,-1,-43,-26,-9,-6,-9,-23
1512357229818900,-14,-8,-22,-7,-3,-1,1,22
1512357229818900,8,3,-10,3,-2,-3,-2,15
1512357229838924,14,6,19,1,-1,0,4,8
1512357229838924,3,9,32,6,6,2,-7,-32
1512357229840915,-11,-4,8,19,-1,-3,3,8
1512357229840915,-30,6,-8,-20,-8,-6,-6,4
1512357229852934,-6,-23,-27,0,-1,0,4,-3
1512357229852934,9,8,7,-15,2,-1,-2,10
1512357229861931,-5,23,14,-1,0,-1,0,5
1512357229861931,15,-11,8,19,0,0,5,10
1512357229877014,-31,11,7,-15,-2,-6,-11,18
1512357229877014,2,10,-25,-6,-8,-10,-13,-42
1512357229878012,-4,-51,2,5,0,2,5,8
1512357229878012,15,10,-4,0,1,-3,2,12
1512357229899019,-4,2,8,5,2,5,9,17
1512357229899019,-5,-3,0,-4,-2,-3,-3,1
1512357229901013,0,12,-7,-2,-2,0,-3,-4
1512357229901013,15,-10,-8,1,0,3,7,-2
1512357229913022,20,-16,-59,-29,-7,-5,2,-5
1512357229913022,-18,12,11,0,4,5,5,14
1512357229922025,-30,-6,16,8,-7,-6,-12,-54
1512357229922025,-21,-5,17,7,3,0,-8,-20
1512357229937034,8,-8,21,11,3,6,7,-22
1512357229937034,1,15,12,8,-1,1,-2,18
1512357229938035,0,-14,-22,-13,-3,-1,6,20
1512357229938035,15,8,-59,-27,-11,-5,6,18
1512357229959050,-67,-11,24,8,-5,-6,-9,17
1512357229959050,11,4,-8,-17,-9,-9,-10,-33
1512357229961052,26,12,25,-2,7,11,5,27
1512357229961052,1,32,15,0,1,1,7,36
1512357229973082,5,-22,-12,-18,-6,-9,-13,-25
1512357229973082,28,2,10,30,7,1,3,-3
1512357229982089,-13,9,-4,2,-6,-9,-15,8
1512357229982089,34,3,-15,-14,1,-4,-8,-32
1512357229997099,-33,-31,-3,9,-4,4,10,7
1512357229997099,-9,4,21,19,8,5,2,3
1512357230004096,15,-13,-24,-31,-3,-2,4,5
1512357230004096,6,22,30,13,5,3,3,8
1512357230019102,19,0,-19,4,-3,-2,-12,-32
1512357230019102,-19,-56,-48,-4,-6,-2,-2,0
1512357230021104,27,36,-11,-19,10,4,4,20
1512357230021104,-27,-34,32,19,-4,2,6,-18
1512357230033135,43,53,28,-2,6,-1,-3,-9
1512357230033135,-36,-63,-35,0,-4,-1,3,77
1512357230042108,25,35,42,5,7,6,-16,-75
1512357230042108,43,14,-30,-5,3,10,6,-39
1512357230057134,-11,-26,12,3,-9,-13,-7,-12
1512357230057134,-20,19,-18,2,0,-1,5,22
1512357230058136,34,-11,33,2,1,-3,-1,-31
1512357230058136,-95,-54,-16,-10,-7,-6,-3,3
1512357230079136,32,-18,4,-1,5,10,6,47
1512357230079136,-30,6,-8,-6,-12,-14,-10,-38
1512357230081135,21,33,16,3,1,7,15,15
1512357230081135,-23,7,6,-9,1,-1,0,20
1512357230093145,38,-32,-3,12,12,10,15,10
1512357230093145,-18,18,25,11,-4,-3,0,11
1512357230102153,-2,-23,-18,35,1,0,10,36
1512357230102153,24,15,4,3,-7,-11,-18,-46
1512357230117164,-14,59,15,-17,7,5,-5,15
1512357230117164,34,-23,16,26,2,3,10,12
1512357230118163,-33,-15,-29,-70,-4,-2,-3,-30
1512357230118163,-23,-32,18,42,-6,-5,-2,37
1512357230139178,-4,32,-10,20,-8,-2,29,54
1512357230139178,-22,22,-25,-67,-13,-9,-39,-106
1512357230141179,25,11,-20,33,-5,-9,-6,45
1512357230141179,-20,-42,-13,-24,2,-4,-10,-4
1512357230162193,-10,-1,-3,8,1,2,-1,-83
1512357230162193,59,47,15,12,3,7,25,105
1512357230163194,-11,-33,15,23,0,-4,-6,-74
1512357230163194,29,1,-9,-6,6,8,22,116
1512357230177221,-18,11,5,-5,-12,-13,-36,-85
1512357230177221,38,15,28,5,14,13,8,69
1512357230178222,-24,-56,1,-6,-5,-5,-6,-12
1512357230178222,51,73,18,6,-2,-3,-1,4
1512357230199219,7,39,14,-2,2,1,8,16
1512357230199219,-9,-11,-10,-17,-6,-5,-2,-13
1512357230205238,13,73,32,31,9,6,20,114
1512357230205238,2,-34,-28,-46,-6,-4,-13,-96
1512357230222248,42,47,-29,-49,4,5,33,127
1512357230222248,-75,-38,29,54,-6,-14,-36,-83
1512357230223251,-1,-10,-36,-44,0,4,6,82
1512357230223251,15,-27,23,17,-13,-9,-23,-100
1512357230237256,26,55,-2,-8,11,8,11,34
1512357230237256,20,19,-15,25,-2,-3,4,101
1512357230238247,-64,7,8,-32,-3,-4,-24,-120
1512357230238247,4,41,-3,14,6,2,11,40
1512357230259287,-24,-128,-15,-1,-1,-3,-9,47
1512357230259287,-1,-29,-2,14,-3,0,-1,-37
1512357230261264,-22,1,4,22,-8,-4,-2,69
1512357230261264,42,82,-25,-45,-9,-12,-4,79
1512357230282281,-26,-47,-2,39,-3,-8,-28,-128
1512357230282281,102,67,5,-27,14,15,24,60
1512357230283279,-30,-75,-11,-3,2,4,10,-47
1512357230283279,29,33,63,23,-9,-8,-3,87
1512357230296303,-14,-12,-16,9,1,2,0,-29
1512357230296303,-24,-44,-75,-28,-10,-5,-22,-69
1512357230303301,-22,55,30,-5,6,-4,-15,-102
1512357230303301,-45,-21,-12,11,0,-4,-4,-16
1512357230319306,24,-12,-4,-25,-3,10,14,53
1512357230319306,29,67,87,-10,6,9,2,-9
1512357230321307,33,12,-78,27,-11,-6,0,-8
1512357230321307,-12,19,-20,-17,3,-5,0,-59
1512357230342321,-16,83,44,6,-2,-6,-12,16
1512357230342321,-1,-80,0,-1,-11,0,15,16
1512357230343323,12,57,21,21,1,-4,-3,16
1512357230343323,2,-32,3,-3,5,11,2,27
1512357230356359,-18,-27,-6,5,-5,-5,6,-46
1512357230356359,15,27,-17,-29,4,2,8,83
1512357230363351,0,-67,2,13,-17,-13,-25,16
1512357230363351,-51,-31,-53,11,17,15,12,64
1512357230379347,63,78,99,15,3,9,8,35
1512357230379347,-71,-14,-71,5,23,13,-1,1
1512357230380347,-46,-81,-67,-65,-15,-19,-9,26
1512357230380347,-57,-55,37,-6,-26,-20,-21,-65
1512357230401363,26,20,-52,-37,7,4,5,31
1512357230401363,2,-41,33,20,-8,-6,-2,50
1512357230403363,67,112,-25,-6,17,17,-3,-42
1512357230403363,14,16,4,15,1,1,3,6
1512357230416373,-38,-52,-3,10,-4,-9,-10,-32
1512357230416373,-47,5,-44,-27,-4,-6,11,-27
1512357230423377,32,-12,113,23,-12,-8,-7,16
1512357230423377,12,-50,-20,19,4,9,16,-20
1512357230439389,36,87,61,34,-9,-12,-12,-58
1512357230439389,-21,-6,-57,-33,4,4,8,-19
1512357230441390,-7,-37,13,16,4,8,7,-14
1512357230441390,35,12,29,-13,4,1,-26,32
1512357230461405,-21,-14,-7,-28,-7,-16,-14,59
1512357230461405,85,56,34,25,15,15,20,60
1512357230463406,-68,-57,-53,-35,-7,-12,-9,-40
1512357230463406,9,14,34,-22,0,-3,-22,-48
1512357230476416,-22,-43,-92,4,-8,-11,-8,54
1512357230476416,15,48,47,8,-17,-14,9,54
1512357230483419,-1,-104,-11,13,30,15,11,127
1512357230483419,-22,31,-12,23,2,-1,7,-5
1512357230499432,-91,-100,-88,-45,-9,-3,13,32
1512357230499432,-37,-40,86,62,-39,-20,-31,-110
1512357230501433,46,77,38,-71,64,41,7,35
1512357230501433,-17,-36,18,17,-18,-13,9,-55
1512357230521448,26,54,39,20,14,3,14,44
1512357230521448,-26,-32,-91,-15,-1,2,-7,-55
1512357230523451,2,13,25,37,-15,-9,4,21
1512357230523451,-13,-32,53,-26,-9,-1,7,69
1512357230536458,10,5,11,10,6,8,-13,-70
1512357230536458,20,53,9,-24,1,-4,0,38
1512357230543463,-20,-56,5,15,-16,-6,-5,-102
1512357230543463,24,55,-86,1,17,14,24,46
1512357230559475,3,6,40,78,-24,-13,2,-101
1512357230559475,-42,20,16,-69,1,-22,-35,5
1512357230560476,-8,-29,3,11,-16,-12,-20,73
1512357230560476,15,7,-74,-5,5,13,47,85
1512357230581490,-26,-78,79,-13,-13,-7,-18,30
1512357230581490,52,6,-20,0,6,10,8,-29
1512357230583490,-10,24,17,8,-8,-5,7,-56
1512357230583490,19,37,20,21,5,-6,-17,-14
1512357230604507,-8,-31,-24,-26,9,15,25,5
1512357230604507,0,-49,13,22,14,7,-8,-9
1512357230605506,-10,51,-3,-18,-3,4,31,94
1512357230605506,-18,-59,-8,35,-13,-9,-18,-18
1512357230619516,-34,-1,-21,-85,12,-6,-45,-59
1512357230619516,3,-35,-7,-16,6,-4,1,38
1512357230620516,18,54,-102,52,-20,-9,10,-45
1512357230620516,11,-26,-14,-24,-8,-3,-2,5
1512357230641532,8,-15,-53,-5,1,-1,5,42
1512357230641532,-7,9,44,49,-12,-1,7,50
1512357230643533,45,44,1,-42,13,9,-1,-12
1512357230643533,-6,64,22,2,0,-9,-24,5
1512357230664547,-52,-87,-45,0,-4,-3,-6,-65
1512357230664547,24,35,35,7,-3,-5,-12,-24
1512357230665548,-25,-34,-40,11,-9,-2,21,95
1512357230665548,-12,-12,-28,-20,1,2,2,-30
1512357230679612,36,59,55,1,-1,-3,-18,59
1512357230679612,-12,-31,23,5,8,5,7,-107
1512357230680559,-17,27,43,-11,-12,-11,-14,-12
1512357230680559,17,-20,18,12,6,7,15,79
1512357230701576,-15,-39,20,48,-4,-6,-10,12
1512357230701576,-44,8,-34,-92,5,2,-4,71
1512357230703575,57,19,-55,8,-2,-7,-8,78
1512357230703575,-18,-31,45,13,0,-1,8,26
1512357230715585,40,53,26,18,1,11,13,37
1512357230715585,-1,-7,14,-8,-1,2,-3,12
1512357230724590,-5,-22,-1,-23,-4,-7,-5,-38
1512357230724590,24,27,60,15,0,7,-4,-58
1512357230739600,-36,-17,10,-39,7,0,-3,-26
1512357230739600,24,-3,11,14,-11,-14,-5,-74
1512357230740602,2,-5,50,-14,-11,-6,-4,-5
1512357230740602,-9,5,26,-4,-7,-4,3,-23
1512357230760618,-5,-43,-62,-12,-6,-4,2,-3
1512357230760618,19,-28,-30,16,-2,2,-21,-42
1512357230769622,-4,52,96,22,13,4,21,20
1512357230769622,8,-20,-24,-17,-1,-6,-27,-44
1512357230775627,-18,44,-5,12,-7,-5,4,-37
1512357230775627,-45,-74,-58,-5,3,3,-8,-71
1512357230790637,1,-11,-1,21,-7,-2,-6,-5
1512357230790637,-19,7,-23,-44,0,0,-7,-18
1512357230799643,16,27,38,17,7,4,-5,-7
1512357230799643,-4,-3,-41,-21,-15,-3,20,60
1512357230800644,-31,9,31,10,18,1,-10,-47
1512357230800644,1,-4,52,30,-9,-5,13,16
1512357230821659,-3,-22,6,-14,-8,4,-7,30
1512357230821659,-2,7,-15,-5,15,5,22,-50
1512357230823675,-18,-27,15,18,-7,-4,-1,66
1512357230823675,-2,16,-19,19,-2,-2,-10,39
1512357230835668,9,-10,-33,-18,-5,-2,4,8
1512357230835668,39,25,0,28,6,4,4,65
1512357230844674,-19,-1,10,-23,-6,-9,-22,-88
1512357230844674,-13,-6,-61,-2,3,-3,4,-6
1512357230859688,-15,-43,-30,13,4,4,10,-8
1512357230859688,-5,77,108,-30,-20,-13,-16,-26
1512357230860686,22,27,14,3,16,11,25,34
1512357230860686,-30,-64,-64,-16,0,2,1,-18
1512357230881785,61,32,-55,55,-3,-4,5,42
1512357230881785,8,1,35,9,1,-1,-14,-24
1512357230883735,-14,-1,-83,-45,2,12,6,4
1512357230883735,57,60,63,9,-1,-1,1,27
1512357230895743,-14,-5,-6,-40,9,0,-8,-12
1512357230895743,-16,-72,-19,21,-5,-1,3,48
1512357230904762,-18,35,36,16,-10,-5,-7,-46
1512357230904762,28,3,-43,-24,-1,-1,4,-6
1512357230919783,-18,39,27,8,5,0,-5,12
1512357230919783,8,26,27,6,8,7,7,57
1512357230920762,3,-31,-29,-4,-11,-9,-5,80
1512357230920762,-54,-39,-41,-27,8,0,-3,-61
1512357230941801,24,46,34,10,-5,-4,4,-21
1512357230941801,-46,-33,-33,-19,-5,-5,-18,-67
1512357230943802,-21,-7,-8,32,-7,-8,-2,4
1512357230943802,10,-3,19,-35,-6,7,5,-64
1512357230955812,-27,-26,11,15,-4,-7,-14,-14
1512357230955812,35,37,-18,-44,11,7,7,31
1512357230964801,-5,-29,-22,36,-12,-8,2,-25
1512357230964801,-1,28,-2,-9,3,3,5,33
1512357230979802,3,2,22,-11,1,2,7,-11
1512357230979802,31,5,-62,67,-3,3,13,16
1512357230980818,10,-7,34,-29,3,1,-4,21
1512357230980818,-13,-31,10,5,4,-3,-18,-21
1512357231001819,32,19,1,-6,-2,9,17,96
1512357231001819,-41,2,21,19,-1,-9,-11,-61
1512357231003821,29,8,-30,-17,-2,3,3,46
1512357231003821,3,-20,15,25,2,-2,-1,13
1512357231015869,18,42,-4,-7,1,2,6,-8
1512357231015869,-11,-55,26,-22,-3,-4,2,2
1512357231024876,47,99,7,11,-4,0,-1,16
1512357231024876,-46,-65,-6,-32,-2,-4,-5,-24
1512357231038844,3,1,-10,25,-14,-14,-3,30
1512357231038844,2,-15,-74,-27,2,8,7,28
1512357231040845,-5,-85,8,3,2,-3,-7,-47
1512357231040845,33,54,52,24,-1,0,25,77
1512357231061901,-28,-45,-54,-6,1,-3,-12,-27
1512357231061901,-11,20,36,-4,-5,-8,-21,-63
1512357231063881,20,47,-13,-4,-5,2,12,50
1512357231063881,18,-20,-38,5,-1,5,-1,11
1512357231091894,-5,-32,55,-25,5,-4,-10,-54
1512357231091894,5,40,23,20,-3,-1,-14,10
1512357231093901,-15,-2,59,-8,-10,-6,7,16
1512357231093901,1,31,-66,-14,-3,-10,-27,-104
1512357231098905,1,21,28,-26,0,5,22,37
1512357231098905,-3,-17,-4,29,-5,-4,1,14
1512357231100890,-7,-56,-41,-45,8,1,-7,17
1512357231100890,-10,51,44,10,2,3,-1,16
1512357231121920,-6,-19,-13,7,-9,-2,1,-34
1512357231121920,13,10,-33,-18,0,1,13,1
1512357231123904,-30,-28,31,11,2,-3,-6,55
1512357231123904,-7,0,15,28,-6,-4,-4,-14
1512357231143919,16,7,10,-18,2,1,1,23
1512357231143919,13,2,36,1,1,1,10,43
1512357231145920,2,7,-35,7,0,7,9,-71
1512357231145920,-1,4,6,-3,4,-2,2,-14
1512357231158944,8,-2,43,5,-9,-9,-27,25
1512357231158944,-14,-5,-27,-4,6,3,26,-1
1512357231160940,13,37,-9,-16,-11,-8,-27,-32
1512357231160940,-33,-59,28,4,-7,2,14,5
1512357231181960,-12,-8,-29,5,-4,-3,7,0
1512357231181960,-9,-3,-52,-11,-4,-3,-3,-8
1512357231182968,7,8,19,4,5,3,-5,-16
1512357231182968,0,6,-43,-3,-5,-2,-3,23
1512357231212004,11,6,-1,29,-4,-3,-6,8
1512357231212004,1,13,47,-17,7,4,-4,-2
1512357231212982,-20,-23,-24,15,-5,0,8,0
1512357231212982,23,22,6,-3,-1,-3,-1,14
1512357231219004,11,13,-32,3,6,3,6,-19
1512357231219004,-3,-6,56,9,0,-3,-10,30
1512357231220973,-31,-35,-78,-1,-7,-6,-3,23
1512357231220973,8,8,-2,-15,2,-4,-5,71
1512357231241999,-11,15,-22,-10,6,4,-5,-44
1512357231241999,9,17,18,-1,-5,-8,-8,11
1512357231242991,1,-3,18,-10,0,-1,-11,-37
1512357231242991,-15,-27,8,11,7,1,-3,4
1512357231264003,-7,8,-18,-29,2,4,4,37
1512357231264003,-8,6,-5,9,0,0,-15,-80
1512357231266007,-12,-42,-12,11,3,1,8,41
1512357231266007,-5,14,41,1,-5,-4,-9,-74
1512357231279036,6,-9,-5,32,1,2,-7,25
1512357231279036,3,3,-12,-53,5,7,24,0
1512357231285019,1,-18,-12,-4,-5,-3,1,43
1512357231285019,15,-5,-11,-2,2,-2,-13,-17
1512357231302049,-2,-7,-5,0,-9,-5,13,-3
1512357231302049,19,36,-30,-5,-3,4,0,30
1512357231303034,-21,-9,27,53,6,-5,-5,-31
1512357231303034,9,-14,11,-49,-2,5,8,23
1512357231324045,-3,-2,4,1,3,-1,3,-25
1512357231324045,-6,3,-15,4,-8,-8,-12,1
1512357231326051,31,47,47,-3,4,2,2,-22
1512357231326051,-26,-29,-7,11,-4,1,-11,-8
1512357231339066,6,-1,-1,-4,3,0,-8,25
1512357231339066,-8,-40,-3,13,-6,-8,-24,-39
1512357231345070,-47,-4,-15,-25,-6,-7,13,-78
1512357231345070,-7,-11,-48,-2,-7,-3,-12,30
1512357231361092,27,-4,28,-12,-2,1,-1,5
1512357231361092,2,-10,21,22,10,2,1,9
1512357231369128,-8,2,-6,-1,-2,3,-1,-2
1512357231369128,26,38,15,-9,-11,-3,3,-2
1512357231384140,-54,-39,-39,-4,19,3,-2,-9
1512357231384140,-13,-15,-13,7,-5,-2,8,-3
1512357231386143,28,-1,-83,-11,-6,-5,-13,12
1512357231386143,-2,-2,-26,-5,1,-2,16,27
1512357231398153,-18,-10,44,2,-2,0,-13,-4
1512357231398153,1,23,7,1,-3,-1,24,18
1512357231405158,-4,-4,34,-11,3,6,-3,38
1512357231405158,15,6,17,36,4,-2,-5,-84
1512357231422166,-4,-6,-47,-30,-6,-3,6,17
1512357231422166,7,-13,6,-6,-2,-7,-13,3
1512357231423166,2,28,19,13,-9,-7,0,-11
1512357231423166,-26,-6,-18,-3,4,2,13,32
1512357231444200,0,-19,13,2,-5,-3,-8,3
1512357231444200,15,11,-54,-7,-2,5,15,29
1512357231446185,-1,9,85,18,2,0,3,20
1512357231446185,18,22,-67,2,-6,0,7,14
1512357231458191,-9,1,-6,-39,-5,-1,-8,-29
1512357231458191,-6,-1,74,34,-5,-3,-15,8
1512357231465230,12,-17,-77,0,8,2,-6,-70
1512357231465230,3,-19,-6,-2,-5,-2,7,54
1512357231482269,0,22,-7,-15,-9,-3,0,-54
1512357231482269,2,1,46,9,-7,-1,1,60
1512357231483210,-31,-44,31,-3,1,-3,-4,-46
1512357231483210,-4,-27,36,-11,-2,-1,-2,-4
1512357231504238,8,18,-54,9,4,1,16,6
1512357231504238,1,-4,11,-9,-3,-3,-21,-20
1512357231506225,4,22,-25,-11,7,8,32,34
1512357231506225,-13,14,44,3,0,-3,-6,7
1512357231518268,-16,-23,36,20,-1,-2,-5,15
1512357231518268,5,20,-39,-12,-1,0,21,-10
1512357231525329,28,-17,2,6,-6,1,-12,32
1512357231525329,-9,13,17,-1,23,10,8,20
1512357231541381,8,18,5,-11,-5,-4,-2,0
1512357231541381,8,8,18,8,1,-4,-10,-34
1512357231543376,34,26,-18,-9,8,3,-10,-37
1512357231543376,-24,-7,48,-7,-5,-4,0,35
1512357231564443,-1,-45,25,2,2,-3,-8,-21
1512357231564443,-10,0,-51,-1,0,-3,0,-7
1512357231570391,-1,0,-55,-7,-10,-7,-3,29
1512357231570391,9,10,-32,-2,1,0,-9,-47
1512357231578443,1,7,16,27,2,2,5,0
1512357231578443,-9,-40,-25,-34,-3,-3,-7,13
1512357231593459,-40,-5,12,-18,-7,-4,-5,-17
1512357231593459,39,24,-25,7,-3,3,17,91
1512357231601464,-19,-14,-64,2,-10,-6,-1,-27
1512357231601464,-19,-27,27,6,-1,-1,3,5
1512357231603449,14,20,-6,-3,2,0,3,19
1512357231603449,-7,-2,6,0,-2,-1,-2,18
1512357231624481,-3,-3,-4,-16,-4,-3,-7,-16
1512357231624481,7,8,-1,5,2,2,-5,-7
1512357231625466,-2,-4,-2,-6,2,-2,5,-20
1512357231625466,2,-9,-11,10,-15,-8,-15,-42
1512357231638491,15,28,4,-2,14,6,2,25
1512357231638491,-9,7,-19,-4,-2,4,6,-14
1512357231646497,-34,6,49,17,-6,-5,-10,15
1512357231646497,16,22,-6,-5,1,-1,-8,-52
1512357231661501,-7,-44,-39,-18,-4,-6,-7,-11
1512357231661501,-2,13,-10,14,4,2,1,-4
1512357231663490,-17,-38,16,-9,-8,-3,-1,41
1512357231663490,-12,1,60,7,3,-4,-3,-73
1512357231684518,10,39,16,6,5,3,-7,17
1512357231684518,0,13,16,9,3,1,1,16
1512357231685506,19,-11,8,-3,-10,-2,4,-10
1512357231685506,-26,-25,-53,-14,-2,1,-7,-25
1512357231697527,3,8,-46,-3,-3,2,9,51
1512357231697527,10,9,-14,-3,-2,0,-6,3
1512357231713526,-5,5,8,0,1,1,19,-10
1512357231713526,7,-38,-31,3,-3,-1,5,14
1512357231721531,-6,23,-4,3,6,4,0,20
1512357231721531,3,-2,13,-8,-6,-5,-4,3
1512357231723558,38,-3,23,-4,-5,-6,-13,4
1512357231723558,-8,-29,-5,-3,-2,3,-1,-36
1512357231744558,8,5,-25,6,-9,-7,-5,-26
1512357231744558,-4,-16,-26,3,3,1,7,14
1512357231745560,11,22,41,-12,6,5,0,-6
1512357231745560,-13,28,-22,10,1,0,0,18
1512357231757575,25,9,45,-5,-2,0,-2,2
1512357231757575,-9,-13,-22,-2,6,1,2,-20
1512357231766623,-15,-18,-29,27,-12,-11,-19,0
1512357231766623,11,30,22,-31,-6,-4,-1,14
1512357231781645,-29,-28,1,-1,7,3,6,-15
1512357231781645,-11,17,67,5,0,-8,2,47
1512357231783589,4,-14,-100,11,-3,4,7,24
1512357231783589,5,11,12,-1,-1,-5,2,-24
1512357231804617,7,1,35,9,-6,-4,-11,-18
1512357231804617,1,-16,-36,-7,7,7,8,8
1512357231805589,-1,39,13,10,1,-2,-3,16
1512357231805589,-7,-12,-1,2,5,3,1,23
1512357231817606,17,34,43,1,2,-3,-2,14
1512357231817606,-17,-29,-22,-1,-8,-4,-1,-44
1512357231826603,24,8,-18,-20,4,-1,-4,1
1512357231826603,-4,33,-3,-8,-3,3,3,19
1512357231841626,-12,-6,49,27,-1,-4,-6,-33
1512357231841626,-14,-61,-70,-27,-5,-3,-15,-21
1512357231843628,6,33,36,-2,2,5,17,29
1512357231843628,-3,5,-24,-2,-2,-4,-5,33
1512357231864647,-13,7,48,12,2,0,1,-62
1512357231864647,7,25,22,3,-3,-5,-11,16
1512357231865631,-10,-35,22,-1,-7,-3,-2,-18
1512357231865631,-13,-27,3,-10,12,1,-3,-3
1512357231877653,18,3,-24,-29,-6,-2,4,47
1512357231877653,-2,14,90,11,-4,-1,4,14
1512357231886650,2,3,60,26,5,1,-4,-6
1512357231886650,11,7,10,4,2,0,7,20
1512357231901665,15,-46,-27,-11,-11,-6,-10,-22
1512357231901665,5,-4,28,-4,0,0,-4,4
1512357231903657,3,15,-29,-2,2,1,-6,0
1512357231903657,-5,-15,33,14,-6,-3,-10,36
1512357231924685,-5,-1,-16,-12,4,2,7,12
1512357231924685,28,-3,-25,3,-2,-1,-1,5
1512357231925676,-17,-16,47,-7,-4,-2,-3,1
1512357231925676,-3,-17,-63,-7,13,6,2,-36
1512357231938694,-2,-1,0,2,-7,-2,-2,3
1512357231938694,-11,11,-19,1,-1,-1,-7,-29
1512357231946706,7,17,-15,6,6,-1,2,16
1512357231946706,-7,-14,34,-2,-7,-2,7,22
1512357231961700,-21,-12,-41,4,3,5,-3,-16
1512357231961700,-5,-14,-3,-8,-6,-6,-2,-18
1512357231963714,12,0,-86,-2,-1,-4,-7,-27
1512357231963714,12,-8,-23,-11,-3,-2,3,63
1512357231984726,-7,4,51,55,1,0,1,-24
1512357231984726,-3,1,-29,-67,8,9,4,-25
1512357231985727,-14,-21,-5,-5,-3,-4,-3,6
1512357231985727,-2,19,19,9,5,2,0,-10
1512357231997737,10,10,28,4,-10,-1,1,9
1512357231997737,-4,41,15,23,15,1,-3,-16
1512357232006746,-9,-42,37,0,-2,-4,-1,8
1512357232006746,26,15,-6,-11,-5,6,3,-35
1512357232021792,-18,-12,-16,-2,4,-4,1,6
1512357232021792,26,25,-39,-5,5,4,8,20
1512357232023810,-9,16,41,-2,-1,1,0,-24
1512357232023810,-10,-13,58,22,-3,-8,-14,-17
1512357232043810,-12,2,-5,-11,-7,-2,12,-21
1512357232043810,-4,-29,21,12,-5,-4,2,35
1512357232045810,19,2,6,-11,-1,0,-4,-5
1512357232045810,-18,-4,-37,5,-2,0,0,-16
1512357232066826,4,6,14,-5,3,1,1,35
1512357232066826,-16,-19,-10,0,-6,-5,-8,12
1512357232068827,-24,-27,-12,-7,-3,-1,-2,-70
1512357232068827,17,27,55,19,-3,-4,-3,-1
1512357232081900,5,19,-86,-36,2,-4,-17,41
1512357232081900,-19,1,15,30,-3,-6,-2,-26
1512357232083837,-2,-17,-14,-29,13,5,-4,-31
1512357232083837,6,-2,6,16,-10,-1,7,44
1512357232103850,0,26,13,-15,3,-1,-9,-42
1512357232103850,10,32,51,0,1,0,0,11
1512357232105851,-20,-60,-24,5,-10,-6,6,11
1512357232105851,-9,-25,-2,-6,0,-2,-2,18
1512357232133873,17,9,0,-3,3,5,6,-32
1512357232133873,-41,-34,-7,10,-4,-8,-15,-44
1512357232135873,18,25,33,12,1,4,14,51
1512357232135873,-18,-10,-78,-21,0,-5,-17,-41
1512357232141877,7,-17,-3,1,-6,-1,8,68
1512357232141877,-11,12,14,4,-6,3,0,-93
1512357232143878,-6,2,-3,-4,1,-1,-6,8
1512357232143878,-15,-15,-63,-16,-2,-2,-7,-24
1512357232163894,9,-4,-1,0,0,-1,2,15
1512357232163894,7,-6,2,-3,-1,1,2,20
1512357232165894,14,38,-25,24,-3,-5,-2,10
1512357232165894,-22,12,23,-19,3,2,-4,8
1512357232186909,-28,-45,-32,8,-5,-1,-6,-84
1512357232186909,12,0,-3,-19,-3,2,7,46
1512357232187909,3,6,-22,12,0,-2,1,18
1512357232187909,34,22,85,-3,-3,-2,-3,-23
1512357232200925,-28,-55,-73,1,-1,-2,-3,57
1512357232200925,-3,-19,-24,-6,0,-5,-6,4
1512357232207946,-10,32,8,-1,-4,3,7,-10
1512357232207946,10,-29,-52,-2,-7,-5,-2,15
1512357232223961,-8,1,32,-3,3,-2,-5,-27
1512357232223961,10,6,-21,9,-4,-5,4,35
1512357232225938,9,17,14,-19,4,0,-5,-8
1512357232225938,-29,-17,-7,15,-5,-4,0,-12
1512357232246951,17,12,10,-6,2,-1,10,11
1512357232246951,0,-2,9,-14,-8,-1,-3,5
1512357232247952,-1,-2,-18,0,-6,-5,-9,-4
1512357232247952,14,8,24,-15,10,10,11,33
1512357232261003,-21,19,22,10,-5,-7,-12,-98
1512357232261003,-1,-27,-22,-5,-3,-3,-12,1
1512357232268046,11,-2,29,-16,0,6,5,16
1512357232268046,-1,-36,23,13,-4,-3,1,-26
1512357232284099,3,30,61,-6,-8,-3,1,92
1512357232284099,20,5,-20,5,6,2,5,-11
1512357232286050,-39,-18,-59,8,-3,-5,-11,-33
1512357232286050,4,-10,1,-6,5,0,2,24
1512357232307065,21,28,10,-17,0,5,0,20
1512357232307065,-20,5,29,12,-3,-4,7,-13
1512357232308065,47,-9,-57,8,-5,-4,-12,-12
1512357232308065,-47,4,0,-13,-10,-5,-2,-9
1512357232321072,-5,-11,-2,-7,3,3,0,12
1512357232321072,1,6,-3,-2,-2,0,2,52
1512357232328099,-6,12,14,-12,7,3,0,-84
1512357232328099,2,1,-30,27,-19,-14,-10,-17
1512357232344143,18,-7,10,-12,7,3,-3,6
1512357232344143,-10,-8,-3,-2,1,2,1,-15
1512357232346134,10,21,19,1,-5,-1,1,66
1512357232346134,9,15,-3,2,-3,-1,-6,-7
1512357232367154,1,-19,-22,4,-2,-1,11,6
1512357232367154,15,8,-11,-11,2,2,2,-4
1512357232368150,-6,-13,50,4,7,0,5,44
1512357232368150,-5,-5,-20,-8,1,0,-5,-37
1512357232381159,-2,-17,15,6,0,-2,-4,13
1512357232381159,3,-5,-21,4,-5,-2,-2,-29
1512357232388164,-6,-27,-2,-13,-7,-7,-12,20
1512357232388164,-3,19,39,4,2,4,10,-68
1512357232404186,16,3,-18,15,-3,2,5,25
1512357232404186,-14,-19,-13,-14,5,0,2,5
1512357232406192,-15,15,3,0,2,1,0,-12
1512357232406192,24,48,-47,-3,1,2,0,6
1512357232427201,-15,-10,3,2,-4,-5,-4,-15
1512357232427201,1,6,-2,2,-2,-2,0,-10
1512357232428194,8,14,5,12,1,1,-5,4
1512357232428194,-1,1,1,-12,0,-2,3,24
1512357232441212,-1,-9,13,-13,5,3,1,35
1512357232441212,14,32,-29,4,-8,-5,-9,-59
1512357232448217,-40,-49,15,-4,3,-4,-6,-56
1512357232448217,6,5,37,8,-2,-3,-1,22
1512357232464230,-23,-10,1,3,2,2,0,-20
1512357232464230,11,5,15,9,-3,-1,-1,40
1512357232470221,-5,2,-60,0,-3,-1,-2,-35
1512357232470221,-10,-37,15,-23,1,0,8,23
1512357232486232,8,6,-30,5,-4,-4,-8,-6
1512357232486232,-19,8,10,0,3,3,3,30
1512357232488235,-18,-41,-32,-4,-9,-3,1,-11
1512357232488235,9,2,13,3,1,-2,-8,8
1512357232501254,11,22,7,10,1,-4,1,11
1512357232501254,-2,-6,18,-18,-3,1,-4,-23
1512357232508261,3,18,-8,3,2,3,11,35
1512357232508261,-1,11,24,13,2,2,-2,-5
1512357232524274,1,1,-34,-9,2,-2,-1,-9
1512357232524274,-10,-27,20,3,0,-3,-6,28
1512357232526271,13,21,25,-7,-5,-3,3,7
1512357232526271,12,27,-1,6,-2,0,1,5
1512357232546284,-1,-3,-7,21,-3,-5,-2,-26
1512357232546284,8,22,36,-11,10,8,11,48
1512357232548277,-5,-9,35,-12,-4,-4,-5,-33
1512357232548277,4,-5,-39,-1,-4,-6,-18,-25
1512357232560299,5,1,21,8,-1,-1,3,8
1512357232560299,-15,-24,-55,6,2,-2,-5,-38
1512357232569292,9,10,0,-11,4,2,2,33
1512357232569292,5,-1,7,-3,0,-3,-2,-18
1512357232584318,-9,-28,-24,-9,-1,0,-5,-17
1512357232584318,16,-1,0,1,-6,-2,-2,15
1512357232586320,14,30,43,8,1,1,8,24
1512357232586320,-23,-8,-35,-15,-6,-5,-8,-33
1512357232606334,12,18,29,-5,0,1,-3,-4
1512357232606334,-8,-15,-13,4,-6,-3,6,52
1512357232608319,-11,-40,-5,-6,-5,-3,-6,-75
1512357232608319,-4,4,-6,11,3,3,6,34
1512357232620336,10,20,19,25,-8,-1,-3,16
1512357232620336,-12,-15,9,-37,12,3,-8,-22
1512357232629343,-4,19,33,7,-1,2,18,7
1512357232629343,-1,-13,-24,-1,-2,-1,-2,7
1512357232644353,-3,1,-16,7,3,3,2,-26
1512357232644353,-22,-61,-6,6,-16,-13,-20,-29
1512357232645355,8,8,-9,-22,8,3,-6,36
1512357232645355,-10,5,8,1,-1,-2,6,-2
1512357232666374,5,6,-50,-16,-1,-1,-5,12
1512357232666374,2,-9,-16,14,-12,-7,-3,-15
1512357232668362,-11,-8,-19,8,2,-3,-3,28
1512357232668362,8,13,54,2,-3,-1,1,-7
1512357232680378,-11,6,-33,-26,2,1,-1,15
1512357232680378,-8,11,-12,-6,0,2,1,-45
1512357232689376,-16,-22,21,10,-5,-3,-2,-22
1512357232689376,10,7,-14,8,-1,3,9,52
1512357232704396,-17,-26,34,-11,0,-2,-10,-68
1512357232704396,-1,44,8,7,-3,-1,1,35
1512357232705395,1,-11,-2,-11,-3,-4,-2,17
1512357232705395,7,-4,19,7,0,3,4,1
1512357232726425,-22,10,15,-4,-5,1,3,-9
1512357232726425,11,18,-1,2,4,-2,-3,-6
1512357232728404,-7,-36,-31,-3,-5,-5,-7,-3
1512357232728404,0,-6,-16,-9,-1,-2,5,47
1512357232740425,5,7,4,4,-2,-3,-3,-13
1512357232740425,-8,10,37,-1,8,2,-5,-10
1512357232749443,17,15,-18,3,-8,-1,-1,25
1512357232749443,-3,-17,-20,-10,6,-2,-15,-15
1512357232764443,-1,27,46,4,4,4,13,7
1512357232764443,-19,-42,-63,-1,-7,-7,-12,-72
1512357232765444,-3,13,-9,-3,0,0,-3,12
1512357232765444,17,25,8,6,0,1,1,4
1512357232786444,-4,-10,-5,-9,1,-1,-4,22
1512357232786444,10,9,34,6,3,6,13,52
1512357232788446,0,20,17,5,-5,-7,-8,-25
1512357232788446,-8,-24,-25,-1,-2,1,3,1
1512357232800477,-13,-36,-38,-16,-10,-4,-6,-12
1512357232800477,29,-14,-1,22,-7,-2,10,86
1512357232809460,-14,-1,-28,-22,4,1,-12,-65
1512357232809460,-2,10,6,-1,-1,0,1,2
1512357232824486,-8,-9,14,5,-1,0,11,12
1512357232824486,10,-23,-35,-5,-1,-2,1,18
1512357232825487,-12,-12,21,-2,0,3,9,6
1512357232825487,9,-3,2,-5,3,-2,-1,-26
1512357232846498,13,24,-21,-3,-2,-1,-9,-13
1512357232846498,8,25,56,13,3,4,10,-8
1512357232848500,-3,19,-37,-3,-6,0,-1,33
1512357232848500,20,14,-10,-6,9,4,-3,-15
1512357232860514,-9,-28,4,-7,-3,-4,-15,4
1512357232860514,-41,6,-14,-5,-3,-5,-6,-32
1512357232869502,2,-20,-22,-1,0,-2,5,12
1512357232869502,4,-15,0,-4,-14,-9,-12,14
1512357232884514,11,24,7,3,12,5,4,1
1512357232884514,7,-1,2,-14,-9,-2,-1,7
1512357232885539,-6,-11,24,0,1,-3,-3,-20
1512357232885539,-11,-18,-40,1,-3,-4,-5,-21
1512357232906552,-9,-5,-20,13,-9,-7,-3,-25
1512357232906552,12,25,4,-17,11,4,6,14
1512357232908552,-2,2,-1,2,-4,-1,-5,20
1512357232908552,5,19,-14,2,3,3,-2,5
1512357232929568,-14,-35,-11,8,-3,-1,11,14
1512357232929568,-10,29,2,0,-5,-3,-5,-5
1512357232931548,11,7,2,6,2,-3,-8,-15
1512357232931548,-12,-16,13,-15,5,2,-3,-20
1512357232944565,1,-25,-44,-4,-3,-2,-3,9
1512357232944565,14,-5,9,3,-1,3,12,27
1512357232945557,-4,-10,11,-2,-5,-3,6,-52
1512357232945557,4,-1,-14,4,1,0,0,79
1512357232966593,-2,18,2,2,-3,-4,-5,-49
1512357232966593,3,-37,-16,-14,5,3,-2,-10
1512357232968584,27,46,-3,5,0,3,10,80
1512357232968584,-31,-37,43,4,-3,-4,-8,-60
1512357232989598,19,12,1,-15,1,1,2,40
1512357232989598,-32,-44,-39,1,-9,-9,-14,-65
1512357232990588,3,-8,34,2,-4,0,3,34
1512357232990588,8,19,-14,20,-1,-4,1,-6
1512357233004608,3,14,30,-24,2,3,0,36
1512357233004608,10,28,59,8,-3,-2,-2,-11
1512357233005599,17,45,4,9,2,5,-3,-17
1512357233005599,-23,-55,-3,3,-5,-4,-2,-32
1512357233026684,-10,-8,44,5,2,3,11,-1
1512357233026684,23,40,-27,12,7,1,6,64
1512357233028688,-10,-24,56,-24,-7,-5,-7,-28
1512357233028688,1,14,28,-1,1,3,-3,-27
1512357233048683,-23,1,-27,1,-5,-7,-10,-67
1512357233048683,55,8,5,0,1,3,-2,49
1512357233050686,-50,-4,0,7,-1,-2,5,-3
1512357233050686,-2,14,-21,-8,-8,-5,-17,-61
1512357233064691,1,-9,9,-3,15,5,4,53
1512357233064691,-9,18,-6,-12,-9,-5,-4,-10
1512357233065692,14,-9,-28,3,1,2,-5,-18
1512357233065692,1,-14,6,-16,-3,-3,13,50
1512357233086707,7,-16,-27,2,-3,-2,-3,2
1512357233086707,11,26,40,-4,-2,1,-1,-26
1512357233088707,-19,-8,17,0,5,2,2,-4
1512357233088707,4,-35,0,3,3,4,9,50
1512357233108749,-5,20,13,10,-10,-4,-6,-14
1512357233108749,-18,-8,13,1,3,3,7,-5
1512357233110724,10,-9,-30,-4,-4,-6,-9,-1
1512357233110724,2,2,-10,0,-1,-2,2,-59
1512357233123732,17,14,10,4,-5,-4,-9,2
1512357233123732,-24,-5,3,-2,-3,-5,-6,-15
1512357233130737,13,-20,-30,-6,-5,0,7,50
1512357233130737,5,-6,15,-5,1,2,1,-5
1512357233146748,-9,-16,-38,-15,-2,1,9,28
1512357233146748,6,9,-22,-7,-1,2,4,-16
1512357233148750,-5,7,6,8,-3,-5,-5,-14
1512357233148750,2,-24,18,-11,-7,-4,-3,12
1512357233168780,19,26,66,-14,6,1,-2,-14
1512357233168780,-30,-10,9,18,4,0,-3,18
1512357233170765,6,12,-15,2,-2,4,9,2
1512357233170765,-14,3,-41,-9,-3,-1,-11,-85
1512357233183801,-4,-4,-14,28,4,-2,-6,13
1512357233183801,8,5,-59,-10,-6,-1,-2,6
1512357233190781,9,-8,10,-1,9,3,2,48
1512357233190781,-21,29,11,9,-6,-8,-16,-75
1512357233206792,11,-6,1,-7,-5,-1,2,9
1512357233206792,-16,-3,-4,10,0,0,2,-5
1512357233208793,-10,-17,-14,5,-4,-5,-4,2
1512357233208793,2,7,-53,-6,5,11,15,108
1512357233228808,-23,-28,-7,-11,-4,-5,-5,-40
1512357233228808,11,-11,50,2,-1,-4,-16,-88
1512357233231808,-19,9,-45,-6,-3,-1,-3,-1
1512357233231808,16,12,38,-1,1,-4,-1,1
1512357233243817,-11,2,-15,23,-1,0,1,-2
1512357233243817,18,-24,-11,-17,-12,-5,3,3
1512357233249821,-33,5,21,-2,8,3,1,-27
1512357233249821,13,42,56,12,9,4,2,10
1512357233266835,-8,-24,-8,-17,3,1,0,77
1512357233266835,3,-9,0,2,-5,-1,-3,31
1512357233268835,-6,2,-36,-5,-9,-6,-4,-55
1512357233268835,0,29,19,-3,-2,-2,-2,50
1512357233289850,-11,-13,-18,0,-8,-5,-8,-9
1512357233289850,1,-6,-43,0,11,4,9,54
1512357233291851,7,-9,27,-2,1,2,-3,-54
1512357233291851,-8,-8,-55,-2,-4,-5,-11,-5
1512357233303859,29,5,-84,-13,-2,2,23,25
1512357233303859,4,4,-23,19,0,-2,-6,56
1512357233309864,-10,-26,3,-28,-15,-7,-10,-15
1512357233309864,-3,14,-20,9,6,3,11,30
1512357233326904,2,-10,30,9,-3,0,-5,-20
1512357233326904,-16,34,32,1,-4,-3,3,68
1512357233327892,8,-6,-16,-6,3,3,5,9
1512357233327892,-5,-20,19,1,-2,2,2,-42
1512357233348901,-18,10,32,3,-3,-1,-4,-45
1512357233348901,-8,-28,17,-11,4,0,-2,-22
1512357233350893,21,15,5,7,-3,1,2,24
1512357233350893,-7,10,-21,-3,1,0,0,-42
1512357233363922,2,-11,16,-13,-6,-6,-3,30
1512357233363922,-17,-16,3,0,1,-2,-16,-117
1512357233370912,-1,7,17,6,-1,0,-3,3
1512357233370912,34,-43,-49,-9,-2,0,17,70
1512357233386918,4,25,15,5,-4,-4,-7,-8
1512357233386918,-10,-3,-4,-4,0,0,2,0
1512357233387918,26,20,3,2,4,-2,-5,5
1512357233387918,-35,-17,-7,0,0,-1,-3,37
1512357233408962,-6,5,39,9,-1,-3,-5,4
1512357233408962,-10,-21,10,-15,-3,0,-2,-45
1512357233410935,12,3,1,8,-1,-2,-2,27
1512357233410935,4,20,-2,-7,-1,0,0,11
1512357233423959,-1,-4,4,6,8,3,1,-9
1512357233423959,-6,-2,-21,-6,-4,-5,-1,3
1512357233429974,0,2,-17,11,3,2,5,15
1512357233429974,0,14,36,-5,-5,-1,-2,-1
1512357233446961,-5,-40,-81,-10,-2,2,3,6
1512357233446961,11,10,42,3,-1,-2,2,-6
1512357233447961,1,2,-25,4,0,-5,-6,2
1512357233447961,-3,0,26,-5,-1,-2,-5,-7
1512357233468986,11,13,10,2,0,-1,8,2
1512357233468986,14,11,-9,2,-2,2,15,28
1512357233470978,-6,-13,5,-1,-2,1,2,-5
1512357233470978,-4,-3,21,0,0,-1,-4,-10
1512357233483003,10,15,74,5,-1,1,-5,3
1512357233483003,-10,-20,-78,-1,0,-2,8,-4
1512357233491992,-6,-8,70,-2,-1,-2,-2,16
1512357233491992,13,4,-2,6,-2,0,3,-3
1512357233507042,2,11,7,3,2,2,-1,-4
1512357233507042,3,-4,15,1,-1,-1,0,-2
1512357233508003,-3,0,-8,-3,-2,-4,0,6
1512357233508003,-3,-1,-10,-1,-1,1,-4,-2
1512357233529041,-9,-10,-20,-8,-4,-4,-10,-18
1512357233529041,2,4,18,8,-1,-3,-12,4
1512357233535023,-1,-9,-26,-7,-1,2,3,-15
1512357233535023,1,-5,-4,0,-2,-1,6,5
1512357233552035,2,18,2,1,0,0,1,9
1512357233552035,-6,1,-6,-11,-8,-10,-18,-11
1512357233553036,3,0,-19,5,0,3,8,7
1512357233553036,2,-11,12,-4,1,0,8,-5
1512357233567108,-2,8,3,2,1,-8,-37,-34
1512357233567108,-4,-6,-33,-2,-1,6,46,55
1512357233569048,-3,4,-14,-8,-6,-5,-2,4
1512357233569048,-3,6,-18,-2,-3,-3,-7,0
1512357233590061,11,-7,-12,-2,1,3,12,7
1512357233590061,-37,2,16,-2,-1,-1,-21,-26
1512357233591062,5,-2,-2,0,1,1,-2,-1
1512357233591062,-7,1,-2,9,0,-2,3,10
1512357233603072,-2,-17,-7,-9,1,1,-2,-3
1512357233603072,12,2,22,4,-4,-4,-6,-9
1512357233612089,-1,4,-9,-7,-1,-1,0,0
1512357233612089,-6,1,12,0,-1,-4,-6,-6
1512357233627122,-5,9,-3,8,-3,-1,2,5
1512357233627122,4,-3,15,-13,-1,1,-3,-5
1512357233628088,-2,-3,6,-1,-1,0,-4,-2
1512357233628088,7,-5,-1,-1,-2,-1,-4,-3
1512357233649127,-4,0,-8,0,-3,-2,5,2
1512357233649127,5,-2,-1,0,-2,0,1,0
1512357233651114,1,0,4,1,0,-1,-8,-5
1512357233651114,-2,-5,-1,-2,1,-2,-4,0
1512357233663121,1,0,4,-2,-1,0,2,3
1512357233663121,1,0,1,2,1,0,-3,-10
1512357233672120,-4,-7,4,-2,-4,-1,-1,11
1512357233672120,-3,0,-29,-2,-1,0,-6,-10
1512357233687130,-2,-3,11,-4,-3,-5,2,3
1512357233687130,5,3,-3,-2,-1,-2,-4,-6
1512357233688130,6,1,5,1,-1,-1,-3,-4
1512357233688130,-33,-4,6,0,0,0,-3,-4
1512357233709147,4,0,-15,-4,0,-1,-2,0
1512357233709147,2,-4,-21,-4,-3,-2,-2,-6
1512357233711147,1,4,14,5,-2,-4,0,-2
1512357233711147,5,-1,4,-6,-5,-2,0,2
1512357233723231,-2,-1,-3,0,2,0,-1,-3
1512357233723231,-4,1,8,2,0,-2,-3,1
1512357233733242,-1,-3,-6,-1,-1,1,1,-3
1512357233733242,5,-3,-10,-1,0,-1,-3,0
1512357233746241,-1,2,-7,-2,-1,-1,1,1
1512357233746241,5,-2,26,0,-1,-2,0,-2
1512357233748242,-4,0,19,0,-1,-3,-1,0
1512357233748242,3,-3,0,3,-1,0,-2,3
1512357233776266,-3,0,-1,0,-1,0,1,0
1512357233776266,0,0,-7,-1,-2,-2,0,-2
1512357233778252,-4,-3,-4,-4,-2,0,-2,-6
1512357233778252,0,-2,12,2,1,0,0,1
1512357233794277,0,-3,11,1,-2,-2,4,1
1512357233794277,2,2,1,1,-1,-1,-4,1
1512357233795264,-5,-6,-22,-7,-4,-1,-2,-3
1512357233795264,6,2,-1,1,-1,-3,-1,-1
1512357233806272,-3,0,-7,-3,-2,-2,-2,-3
1512357233806272,-2,-1,2,6,0,-1,-1,-2
1512357233808274,-1,0,7,0,-1,-1,-1,-1
1512357233808274,1,-1,-13,-9,0,-3,-2,-1
1512357233829310,-3,-4,2,-4,-1,0,0,-2
1512357233829310,1,1,5,3,-1,0,-1,-1
1512357233831311,1,1,3,5,1,0,-1,-1
1512357233831311,-3,-10,-24,-17,-7,-3,-3,-2
1512357233842306,0,2,2,3,3,1,0,2
1512357233842306,-1,-4,-19,-11,-3,-2,0,1
1512357233859310,-2,0,11,10,0,-3,-3,-1
1512357233859310,3,4,25,9,0,0,2,1
1512357233866338,1,-2,-17,-3,-3,-2,-3,-1
1512357233866338,-2,-1,-14,-5,0,0,-2,-1
1512357233868315,-3,-6,-7,-15,-2,0,5,-3
1512357233868315,1,-1,13,4,1,0,-2,-1
1512357233889339,-1,-2,-1,-6,-2,3,13,1
1512357233889339,1,5,27,15,1,-7,-14,0
1512357233890340,-3,-4,-48,-12,-3,-1,-4,-4
1512357233890340,2,-1,5,0,-1,-1,-2,-1
1512357233911371,-2,0,9,5,1,2,-4,-1
1512357233911371,-2,0,-4,-2,-2,0,5,1
1512357233913347,-2,0,3,3,1,-1,-5,-3
1512357233913347,1,0,4,2,1,-1,1,4
1512357233926357,-6,-1,-8,0,-1,-4,-6,-16
1512357233926357,-2,-2,-2,-5,-3,0,2,-10
1512357233928361,1,0,13,3,0,-1,-3,8
1512357233928361,2,6,8,13,5,2,5,1
1512357233949373,-4,-10,-12,-28,-10,-5,-4,1
1512357233949373,-2,-6,-30,-1,-1,-2,0,-1
1512357233950374,-1,-6,1,-5,-4,-3,-12,-6
1512357233950374,-1,-4,14,-3,-4,-3,1,2
1512357233971388,2,4,-9,0,1,0,-3,3
1512357233971388,-1,3,14,6,0,0,2,1
1512357233973390,-2,2,6,0,1,0,3,-1
1512357233973390,-1,2,-11,0,0,-2,-1,-3
1512357233986400,0,1,7,6,-1,-2,-5,3
1512357233986400,-2,-4,-2,-6,-1,5,4,-8
1512357233988400,0,1,3,2,-1,-12,-12,-3
1512357233988400,-4,-3,5,-1,0,-1,-3,0
1512357234009416,-3,-2,-5,-4,-3,-1,3,-2
1512357234009416,-1,-2,-3,-3,-1,0,-1,5
1512357234010417,1,-1,-21,-1,1,3,5,-1
1512357234010417,1,-1,1,0,0,-1,0,0
1512357234031493,-3,-5,19,8,-3,-4,-6,-1
1512357234031493,1,-3,-34,-6,-2,-3,1,0
1512357234034435,-3,-2,23,-15,-3,-1,2,-1
1512357234034435,1,0,-11,-4,-2,-1,-6,-5
1512357234047460,3,7,44,16,3,2,3,0
1512357234047460,-3,-4,-38,-14,-3,-3,-3,-1
1512357234048446,-1,-4,-6,3,0,0,5,-1
1512357234048446,-2,-6,-16,-6,-1,-3,-1,-5
1512357234069460,0,1,4,-1,-1,-1,-4,0
1512357234069460,1,2,24,7,1,0,1,1
1512357234070458,0,2,13,4,2,1,-1,0
1512357234070458,-3,-1,-9,-2,-3,0,0,-3
1512357234091535,0,0,-4,5,1,-1,2,-1
1512357234091535,-3,-3,-15,-8,-2,-2,-3,-3
1512357234091535,0,0,19,10,-1,1,3,0
1512357234091535,-1,0,4,6,2,1,-2,-2
1512357234105542,-2,-7,-24,-17,-6,-4,-4,-2
1512357234105542,0,4,0,2,4,1,-1,-1
1512357234113571,-1,-3,-1,-8,-1,-1,-1,-1
1512357234113571,-1,-1,9,12,-1,-2,-1,-3
1512357234128562,2,0,-1,0,0,1,-1,1
1512357234128562,0,2,22,1,-2,-1,-1,1
1512357234129561,0,4,-12,6,2,0,0,0
1512357234129561,-2,-1,-5,-8,-3,-1,-2,-1
1512357234150645,-3,-3,-4,-2,-3,-2,-2,0
1512357234150645,-2,-4,8,1,-1,-2,0,-2
1512357234151627,-2,1,-8,1,-1,-2,0,-1
1512357234151627,-1,1,18,0,-1,0,-1,0
1512357234165661,-3,-4,-51,-8,-3,-2,-1,-1
1512357234165661,0,-2,26,-1,-1,-2,-2,0
1512357234173650,-1,-3,-12,-2,-3,0,-3,-2
1512357234173650,0,-2,-9,-3,-1,-1,-1,-2
1512357234188652,3,7,12,7,4,1,1,0
1512357234188652,-2,-4,25,8,-2,-3,-1,-1
1512357234189651,-2,-9,-42,-26,-5,-5,-2,-3
1512357234189651,-4,0,0,-4,-2,-2,0,-3
1512357234210722,-3,-1,-4,0,0,-2,-2,-2
1512357234210722,0,4,7,5,1,0,0,0
1512357234211680,0,-1,3,6,1,1,0,-1
1512357234211680,1,1,4,1,0,-1,-1,1
1512357234225681,-2,-5,-17,-5,-1,-3,-2,-3
1512357234225681,-1,-1,4,-3,-3,-1,-1,-1
1512357234233706,1,0,2,3,-1,1,-6,-1
1512357234233706,-1,-2,-18,-6,-3,-4,6,-3
1512357234249694,4,4,24,4,1,-1,1,2
1512357234249694,-1,-4,-9,-5,-1,-1,-1,-2
1512357234249694,0,0,-1,2,-2,0,1,0
1512357234249694,1,0,1,1,0,3,-2,-1
1512357234270708,-1,0,3,-1,-3,0,-3,0
1512357234270708,-2,-3,-7,-2,-1,-2,-2,0
1512357234271710,-2,-1,5,2,0,-2,1,-2
1512357234271710,-2,-1,1,-4,-2,-3,-4,0
1512357234285719,0,2,5,0,0,-1,1,-2
1512357234285719,-1,-3,-15,-6,-4,-1,-3,-1
1512357234293724,0,1,8,4,1,-1,0,-1
1512357234293724,-1,-1,-3,0,1,-2,-4,-3
1512357234308781,-3,-5,10,-5,-4,-3,0,-3
1512357234308781,0,3,1,2,0,1,1,0
1512357234309766,2,-1,-9,-2,-2,-4,-1,-3
1512357234309766,-2,-6,5,-4,-1,0,-2,-1
1512357234330804,0,1,11,3,1,1,-2,0
1512357234330804,-5,-8,-17,-9,-4,-5,-2,-3
1512357234332804,0,1,19,2,0,-2,-1,6
1512357234332804,-4,-3,-28,-6,-2,0,0,5
1512357234345804,4,-2,3,3,-1,0,-2,-15
1512357234345804,-2,0,5,0,-2,-1,0,17
1512357234346793,-2,0,-3,0,-1,0,2,-1
1512357234346793,-1,0,-1,0,-1,-2,-2,1
1512357234368808,-2,-2,-7,-2,0,-2,-1,-10
1512357234368808,0,2,-2,1,-1,0,-9,-6
1512357234368808,-3,-2,-2,-2,-1,1,14,8
1512357234368808,-1,0,2,-1,-2,-1,-4,-5
1512357234390823,-2,-2,-6,-2,0,0,-1,3
1512357234390823,-1,0,0,0,0,-2,0,-4
1512357234391824,-2,-1,1,0,0,-1,-5,-3
1512357234391824,-1,-2,1,-1,-1,-1,0,-2
1512357234405849,-2,-1,-7,-2,-1,0,1,7
1512357234405849,-1,0,0,1,0,1,1,-1
1512357234413933,0,0,-1,-2,0,-2,-4,-4
1512357234413933,-1,0,0,0,-1,-1,2,-2
1512357234428982,-2,-1,-3,-2,-2,-2,-3,-1
1512357234428982,-2,-1,0,1,0,1,1,-2
1512357234428982,-2,0,-2,-1,-2,-2,-2,-3
1512357234428982,1,0,1,-1,-2,-1,-4,-1
1512357234451011,-2,-1,-2,-1,-1,0,0,1
1512357234451011,-1,0,0,-1,0,-3,0,-4
1512357234451988,0,-2,-1,-1,-1,1,0,-2
1512357234451988,-2,-2,-2,-2,-1,-2,-3,-1
1512357234465999,-2,0,-4,0,-2,-2,1,1
1512357234465999,-1,-1,-1,-2,-1,-2,0,-2
1512357234466999,-1,-1,-1,-1,-2,-2,-3,-3
1512357234466999,0,-1,0,0,-1,1,1,-3
1512357234489027,-1,-1,-2,-2,-1,-1,-1,1
1512357234489027,0,-4,0,-1,-3,-1,-1,-2
1512357234489027,-1,0,-2,0,-1,0,-2,-1
1512357234489027,-2,-2,-1,-1,-1,-2,-2,-1
1512357234511053,-3,-1,-1,-1,-3,-1,0,2
1512357234511053,0,1,0,-1,-1,-4,-1,-4
1512357234512035,-1,-1,-1,-2,-2,0,-3,-1
1512357234512035,-1,-2,-2,-1,0,-1,-2,0
1512357234534107,0,-2,-2,-1,0,-2,1,-2
1512357234534107,0,-1,-2,-1,-2,0,0,-1
1512357234535106,-1,-1,-1,-2,-1,-2,-2,-2
1512357234535106,0,-1,-1,-1,-1,0,-1,0
1512357234549117,-1,-3,0,-3,-1,-3,-2,2
1512357234549117,-1,0,-1,0,-2,-2,0,-3
1512357234549117,1,-1,-2,0,-2,-1,-2,-2
1512357234549117,-1,-1,-1,-2,-2,-1,-1,-1
1512357234571132,-1,0,-1,-2,-1,0,0,-1
1512357234571132,-1,0,0,-1,-1,1,1,-1
1512357234572132,-2,0,-2,-2,0,0,-1,-3
1512357234572132,1,0,-1,-1,0,-2,-1,0
1512357234594147,1,0,-1,-1,1,-1,0,0
1512357234594147,1,-3,-1,-3,0,-1,0,-3
1512357234595148,0,-2,1,0,-1,-1,0,-1
1512357234595148,0,0,0,-1,-2,-1,1,0
1512357234608159,-3,0,-1,0,-1,-1,-1,-2
1512357234608159,-2,-1,-1,0,-2,0,-4,1
1512357234609158,-1,-1,-2,-1,1,0,-2,0
1512357234609158,-2,0,-1,0,0,-1,-2,-2
1512357234631267,0,0,-1,0,-2,-1,-1,-1
1512357234631267,-3,-2,-1,-2,0,-1,1,-1
1512357234632280,-1,-1,-2,-1,-1,-1,-2,0
1512357234632280,-3,1,-1,-1,-2,-1,0,0
1512357234645263,0,-2,-1,-1,-2,-1,-1,1
1512357234645263,0,-1,-1,-1,0,-1,-2,-3
1512357234653311,-1,-1,1,-3,0,-1,-1,-1
1512357234653311,-1,-3,-3,-1,-1,-1,-1,-2
1512357234668300,-2,-1,-2,-1,-1,-1,-1,1
1512357234668300,0,-1,0,0,-1,-2,-1,-1
1512357234669279,-1,-2,-2,0,-2,0,-1,-1
1512357234669279,0,0,0,-1,-2,-2,-2,-1
1512357234691318,-1,-3,-3,-1,-1,-1,-1,-3
1512357234691318,-2,-1,0,1,-1,0,1,-2
1512357234692300,-1,0,-1,-1,-1,-2,1,-1
1512357234692300,-3,-2,-1,0,0,-1,0,0
1512357234714310,-2,-1,-2,-3,-1,-1,-2,1
1512357234714310,-2,-1,-2,-1,-3,-1,-1,-1
1512357234715325,-3,0,-3,-1,-1,-1,0,-3
1512357234715325,-2,1,-1,-3,-1,0,-2,-1
1512357234728389,-2,0,0,0,0,0,-1,0
1512357234728389,-1,-1,-2,-2,-1,-2,-2,-1
1512357234729325,-2,-1,-2,-1,-1,2,-1,-1
1512357234729325,0,-2,-1,0,-2,-2,0,-2
1512357234751357,-1,-1,-1,0,-1,0,1,0
1512357234751357,-2,-1,-1,-1,-1,-1,-2,1
1512357234751357,1,-1,0,-1,-1,-4,0,-2
1512357234751357,-2,0,-1,0,0,1,1,-1
1512357234765387,-1,-3,-1,-1,-1,-1,0,0
1512357234765387,-1,-2,-2,-1,-2,0,0,0
1512357234773367,-1,-1,-1,-2,-2,0,-3,-1
1512357234773367,0,-3,-3,-1,-1,0,-1,-3
1512357234796383,-2,0,0,0,-1,-1,-3,-3
1512357234796383,-1,-1,-1,-2,-1,0,-1,-3
1512357234797370,-2,-1,-1,-2,-2,-1,-3,1
1512357234797370,1,-1,0,-1,0,-1,-1,-2
1512357234811405,-1,-1,-1,-3,-1,-3,0,-2
1512357234811405,0,-1,0,-2,1,-2,-1,0
1512357234811405,-1,0,-1,-1,1,-2,1,-1
1512357234811405,-1,-1,0,0,-1,-1,-2,-1
1512357234825411,0,-2,-1,0,-2,-1,-1,0
1512357234825411,-1,-2,0,-1,-1,-2,-2,1
1512357234833419,1,1,0,-1,0,0,-1,-1
1512357234833419,-1,-1,-1,-1,-1,-1,-2,1
1512357234848418,-2,-2,0,-1,-1,0,-1,0
1512357234848418,-1,-1,-1,0,-2,0,2,0
1512357234849411,-1,-2,-1,1,-1,0,0,-1
1512357234849411,-3,0,-2,-2,0,-1,0,-1
1512357234871434,-3,0,0,-1,-1,0,2,-2
1512357234871434,0,-3,-2,0,1,-2,1,0
1512357234871434,0,-3,0,-3,-1,-1,-1,-2
1512357234871434,-2,-2,-1,-2,-1,-1,-1,-2
1512357234894450,-1,-1,-1,-1,-2,-1,-2,-2
1512357234894450,-1,0,-1,1,-1,0,0,-2
1512357234894450,1,-1,-1,-1,1,-1,-2,-1
1512357234894450,-1,-2,-1,-1,-2,-3,0,-2
1512357234908463,-2,-1,-1,-2,-2,0,-3,0
1512357234908463,-3,-1,-2,-1,-2,-3,-1,-1
1512357234909448,-2,-2,-3,0,-1,-1,0,-1
1512357234909448,-1,1,-1,0,-3,-1,0,0
1512357234931516,1,-1,-1,0,-2,-2,1,0
1512357234931516,-2,-1,-1,-2,-1,1,-1,-3
1512357234932482,-1,-2,-2,0,-2,0,-1,-1
1512357234932482,-3,-2,-2,-1,1,-1,-1,-2
1512357234954480,-2,0,-1,-2,-1,-2,-1,0
1512357234954480,0,0,2,-2,-1,-1,-1,0
1512357234954480,0,-2,-3,-2,-3,-1,-1,-1
1512357234954480,0,0,0,-1,0,-1,-3,-3
1512357234968505,0,-1,0,-1,-1,-1,-2,-1
1512357234968505,0,-2,-1,-1,-1,-1,-1,-1
1512357234969495,0,0,-1,0,-1,-2,-1,-1
1512357234969495,-1,-1,-2,-1,0,-2,-3,-1
1512357234990515,0,-2,-2,0,0,-1,-2,0
1512357234990515,1,0,0,-1,-3,0,-2,-2
1512357234991506,-2,-1,0,-2,0,0,1,-2
1512357234991506,0,-1,-2,-2,-2,-1,-2,-1
1512357235014579,0,2,0,-2,-1,-1,-1,-3
1512357235014579,0,-1,-1,1,0,-1,-2,0
1512357235015551,0,-2,0,-1,1,-2,-3,-1
1512357235015551,-3,-2,0,0,0,0,0,0
1512357235028555,-1,-2,-1,-1,-1,-1,1,-1
1512357235028555,-4,-2,0,-2,0,-1,-2,-2
1512357235029557,-1,0,-2,-1,-1,-1,-3,-2
1512357235029557,0,0,0,-2,-2,0,-2,-1
1512357235050571,-1,1,0,-1,-2,-1,0,-1
1512357235050571,0,-1,0,-3,0,-1,1,0
1512357235051549,-1,0,1,-1,0,0,-1,-1
1512357235051549,1,-2,-2,-1,-1,-2,-2,-2
1512357235074588,-2,-3,-2,-1,-3,0,0,-1
1512357235074588,-1,-2,-3,1,0,-4,-2,-3
1512357235074588,-1,0,-1,0,-2,-1,0,2
1512357235074588,-2,-1,-1,0,0,-2,0,-1
1512357235088622,0,-1,0,-1,-1,-2,0,0
1512357235088622,1,-1,-1,-2,-2,-2,-1,0
1512357235089623,-2,-1,-1,0,-2,-1,-1,-2
1512357235089623,-2,-2,-1,-1,0,-1,0,-2
1512357235110639,-2,-1,-1,-1,0,-1,-1,-1
1512357235110639,1,-2,0,0,-3,0,-1,0
1512357235111640,-1,-1,-1,-2,0,-2,-2,0
1512357235111640,1,-2,-2,-1,-1,-2,0,-2
1512357235134668,0,0,-2,-2,-2,0,-1,-1
1512357235134668,-1,-1,-1,-1,-2,0,-1,-1
1512357235134668,0,0,-2,-1,0,-2,-2,-2
1512357235134668,0,0,0,0,-2,1,-1,1
1512357235148677,-3,-2,-3,0,-3,-3,-2,-1
1512357235148677,-1,-1,0,0,0,-3,0,1
1512357235149666,-1,-2,-1,0,-2,-1,0,-2
1512357235149666,0,-2,-2,-2,-2,-1,0,-2
1512357235170681,1,0,-2,-1,0,0,-1,-1
1512357235170681,-1,0,-1,0,-2,0,0,-1
1512357235171681,0,-1,-1,-1,-1,-2,0,-1
1512357235171681,-1,-1,-2,0,1,-1,-2,2
1512357235193709,1,-2,-1,-1,0,-2,-1,0
1512357235193709,-2,-2,-2,-1,1,-1,-4,-1
1512357235194699,0,-1,-3,-1,-1,0,1,-1
1512357235194699,-1,0,-2,0,-1,-1,1,-2
1512357235208717,-2,-1,0,-2,0,-2,-1,-2
1512357235208717,-2,1,-1,1,-2,0,0,-4
1512357235209724,-2,0,-2,-1,-1,0,-1,-2
1512357235209724,-1,-1,-1,0,0,1,-1,0
1512357235230732,0,-1,-1,0,0,0,-2,-1
1512357235230732,0,0,0,-1,-2,1,0,1
1512357235231725,-1,-1,-1,-1,-1,0,0,0
1512357235231725,0,0,-1,0,-2,-1,-3,0
1512357235254741,0,-2,-1,0,-1,0,1,0
1512357235254741,-2,0,-2,-1,-1,-1,0,0
1512357235254741,-1,-1,-1,-1,-2,-4,0,-1
1512357235254741,-2,-1,-2,-2,0,-1,-1,0
1512357235268769,-2,-3,-1,0,-3,-2,-2,-1
1512357235268769,-3,-3,-1,-2,0,1,-1,-2
1512357235269751,-1,-1,-1,-2,0,0,-2,-1
1512357235269751,0,0,-1,-3,-2,0,0,-2
1512357235290887,-1,-3,-1,-1,0,-1,0,-1
1512357235290887,-3,-1,-1,-1,1,0,-1,0
1512357235291871,0,-1,-1,0,0,-1,-3,-1
1512357235291871,-1,0,0,0,-1,-1,0,0
1512357235313883,-2,0,-1,-1,-3,-2,-2,-1
1512357235313883,-1,-1,-1,-2,-1,-1,-2,-1
1512357235314884,1,-2,-3,-2,0,-1,-1,-1
1512357235314884,-1,-1,-2,0,0,-2,-3,-2
1512357235328918,-2,1,-2,0,0,-1,0,-2
1512357235328918,-1,-1,-2,-2,-1,-3,-2,0
1512357235328918,-1,-2,-1,-2,-1,0,-2,-2
1512357235328918,0,-1,-1,1,-2,-1,-1,-2
1512357235350985,-1,-2,-1,-2,-1,1,-2,-2
1512357235350985,0,-1,-1,-1,-1,-2,-1,1
1512357235351960,-2,-1,-1,-1,-1,-2,0,-2
1512357235351960,-1,0,1,-1,-1,-2,-2,-1
1512357235373976,0,-1,1,-1,-1,1,0,0
1512357235373976,-1,-2,-2,-1,-2,0,-1,1
1512357235374977,0,-2,-1,-1,-1,1,-2,0
1512357235374977,1,-1,-2,-2,-1,-1,-1,-1
1512357235389039,-2,-2,-1,0,-2,0,-1,0
1512357235389039,-1,-1,-1,-1,-2,-1,0,-2
1512357235389039,-1,-3,0,-2,1,-1,0,-2
1512357235389039,0,-2,-3,0,-1,-1,-1,-2
1512357235411078,-2,0,-2,-2,0,-3,0,0
1512357235411078,0,-2,-1,0,0,-2,-1,-1
1512357235412078,-2,0,-3,-2,0,-1,-2,-3
1512357235412078,0,-2,-2,0,-1,-1,0,-2
1512357235434190,0,-1,0,-1,-1,1,1,-2
1512357235434190,-1,0,0,-1,-1,-2,-1,-3
1512357235435134,-1,-1,-1,-1,-1,-1,-1,-1
1512357235435134,-1,-1,-1,-2,-2,-2,-2,-1
1512357235448154,0,-1,-1,-1,0,-1,-1,0
1512357235448154,0,-1,0,-3,-1,-1,0,-2
1512357235456157,0,0,-2,0,0,-1,0,-2
1512357235456157,-4,-1,-1,-1,-1,-1,1,-1
1512357235471160,-2,1,-2,-1,-2,-1,-2,0
1512357235471160,-2,1,-2,0,-2,-1,1,-1
1512357235472161,-2,1,-1,-2,-2,-1,-2,-2
1512357235472161,-2,-1,0,0,1,0,-1,-1
1512357235494176,1,-3,0,-2,0,-2,-1,-1
1512357235494176,1,-1,0,-1,-1,-2,-2,-1
1512357235495177,-2,-3,-1,0,-1,-2,-1,0
1512357235495177,-1,0,0,-2,-2,-2,-1,-1
1512357235508210,-2,-1,-2,-2,-1,-2,-1,0
1512357235508210,-1,0,0,-1,0,-2,0,-1
1512357235516191,0,0,0,0,-2,-2,-1,-1
1512357235516191,-1,-2,-1,-1,-1,0,-2,1
1512357235531236,-1,-1,-2,-1,-2,-2,-1,-1
1512357235531236,-2,-2,-2,-1,-1,0,0,-2
1512357235532202,0,-1,-2,-1,-1,0,0,-1
1512357235532202,0,-1,-2,-3,0,1,-1,-1
1512357235554217,-1,-1,-2,-1,-3,-1,-2,-1
1512357235554217,-3,0,-2,-1,-2,-2,-2,-1
1512357235555218,0,-2,-1,-2,-2,-1,-2,-2
1512357235555218,0,1,-1,1,-1,-1,1,-1
1512357235568240,-2,-1,-1,0,-2,0,0,-1
1512357235568240,-1,-2,-1,1,-2,-1,-2,-2
1512357235576251,-2,0,-1,0,-2,-2,-1,-1
1512357235576251,-2,-3,-1,-3,-1,-1,0,0
1512357235591243,-1,-2,0,0,0,-1,-2,-1
1512357235591243,-1,-1,-2,-1,-1,0,1,0
1512357235592244,-1,-1,-1,0,-1,0,-1,0
1512357235592244,-2,-1,0,0,-2,-2,0,-1
1512357235614281,0,-2,-1,-2,-1,-3,-3,-1
1512357235614281,-1,0,-1,-1,0,-2,-1,-3
1512357235615284,-1,-2,0,-2,0,-1,2,0
1512357235615284,-1,-1,-2,0,0,0,0,-1
1512357235628269,-1,-3,-2,-1,-2,-1,-1,-1
1512357235628269,-1,-1,-2,-1,-2,-2,-1,-1
1512357235636276,-1,-1,-2,-2,-2,-1,0,-1
1512357235636276,0,-1,-3,-1,0,-1,-2,0
1512357235651302,-1,0,0,-2,-2,-2,1,-1
1512357235651302,1,-1,-1,-1,-1,-1,-2,-1
1512357235651302,-1,-2,-1,0,-2,0,-2,-2
1512357235651302,-1,1,-2,-1,-2,0,-1,0
1512357235674302,-1,0,-1,0,-2,-1,0,1
1512357235674302,0,-1,0,-1,-1,-1,-2,-1
1512357235675303,-2,-1,0,-1,0,-2,-1,-2
1512357235675303,-2,-1,-2,-1,-2,0,-2,-3
1512357235688312,-2,-2,-2,-2,0,-1,1,1
1512357235688312,-1,1,-1,-2,-1,-1,-1,1
1512357235696333,0,-1,-1,-2,0,-2,-1,0
1512357235696333,-1,0,0,0,0,0,-1,-2
1512357235711329,-1,-2,-1,1,-1,-1,-1,-3
1512357235711329,-2,-1,0,-1,0,-1,0,0
1512357235711329,-1,-1,-1,1,0,-2,-2,-1
1512357235711329,-2,-2,1,-2,-2,-2,-2,-1
1512357235734345,-1,0,-1,-1,-1,0,0,-1
1512357235734345,-1,-1,-1,-1,-2,-3,0,-1
1512357235735345,0,-2,-2,-2,-1,-1,0,-3
1512357235735345,-2,-1,-3,1,0,1,-3,0
1512357235747354,-1,-3,-2,-1,-1,2,0,-2
1512357235747354,-1,-2,-1,-2,-2,0,-2,-1
1512357235756361,0,-1,0,-2,-1,-2,0,-2
1512357235756361,0,-1,-1,-1,-1,-2,-1,-1
1512357235771373,-2,1,0,-1,-2,-3,-2,-2
1512357235771373,-1,-2,-1,-1,-1,1,-1,-2
1512357235771373,-1,-1,-2,0,-3,0,-3,0
1512357235771373,0,-1,-1,-1,-2,-2,0,-2
1512357235794387,-3,1,0,0,0,-3,-2,0
1512357235794387,-2,-2,-1,-1,-1,-1,0,-2
1512357235795388,0,0,-3,0,-1,-2,-1,-1
1512357235795388,0,-3,-2,-2,0,-1,0,-1
1512357235816404,-1,-1,0,-1,-1,-1,1,0
1512357235816404,-2,-3,-2,1,0,0,-1,-1
1512357235817403,-1,0,0,0,-2,0,-2,0
1512357235817403,0,-1,0,-1,-2,0,-1,-1
1512357235831428,0,1,-1,-1,0,-2,-1,-2
1512357235831428,0,1,0,-1,0,0,-2,0
1512357235832414,-3,-1,-1,0,2,0,-1,-1
1512357235832414,-1,-1,-1,-2,-1,-1,-1,0
1512357235854430,1,0,-1,-1,0,-1,-1,0
1512357235854430,-2,0,-2,-1,-3,-1,-2,-1
1512357235854430,1,-2,-1,-1,0,0,-1,0
1512357235854430,-2,-1,0,-2,-1,0,0,-2
1512357235876448,-2,-3,-2,-1,1,-1,0,-2
1512357235876448,-2,-1,0,-1,0,-1,-1,0
1512357235877445,-2,-2,-3,-1,-3,-2,-2,0
1512357235877445,-1,-1,-2,0,-1,-2,-1,-1
1512357235890468,-1,-2,1,-1,-2,0,-2,0
1512357235890468,-1,-1,-2,-2,-1,0,-1,0
1512357235891471,-2,-1,-1,-1,-2,1,-2,-2
1512357235891471,-2,0,-1,0,-1,-1,0,0
1512357235914495,-1,-4,-3,-1,-3,0,-2,1
1512357235914495,0,-1,-1,-1,-2,-2,-1,0
1512357235914495,-1,1,-2,0,0,-2,0,-2
1512357235914495,-1,1,-1,-1,0,0,-1,-2
1512357235936487,-1,-1,0,-2,-1,-1,0,0
1512357235936487,-2,0,-1,-2,-1,-2,-2,-2
1512357235937488,-1,-3,-1,-2,0,1,-2,-2
1512357235937488,-1,-1,1,-1,-2,0,-2,0
1512357235950536,-3,0,0,-1,-5,0,-2,-1
1512357235950536,0,-3,-1,-2,-1,0,1,-1
1512357235951514,-1,-1,0,0,0,-2,2,-1
1512357235951514,1,-1,-3,-1,0,-1,-1,-2
1512357235974524,-1,-1,0,0,1,0,0,-2
1512357235974524,-2,-2,-2,0,-1,-1,-1,0
1512357235974524,-1,0,-1,-1,0,-1,-1,1
1512357235974524,0,-1,-1,0,-2,-1,0,0
1512357235996544,-2,-2,0,-1,0,-1,1,0
1512357235996544,-1,-1,0,-1,-1,-1,1,-2
1512357235997532,-1,-2,0,-2,0,-1,-2,0
1512357235997532,-1,-1,-2,-2,-1,-2,-2,-2
1512357236010558,-1,-2,-2,-1,-2,-1,0,-3
1512357236010558,0,-2,-1,-1,-1,-1,-2,-2
1512357236011541,0,-1,-2,0,0,0,-2,-2
1512357236011541,-3,0,0,-3,-1,-2,0,2
1512357236034567,0,-2,-1,0,-2,-3,0,-1
1512357236034567,-1,-1,-1,-2,-3,0,0,-1
1512357236034567,-2,-1,-1,-1,-2,-1,-1,-3
1512357236034567,1,-2,0,0,-2,-2,1,1
1512357236056585,0,-1,-3,-1,-1,-2,-1,-1
1512357236056585,-2,-2,-1,-1,0,-2,0,-1
1512357236057573,-2,0,-1,-2,-1,0,0,-1
1512357236057573,-2,-1,-3,-1,-1,0,-3,0
1512357236070594,-1,-1,-1,-2,-1,-2,0,0
1512357236070594,1,-3,-2,0,-2,1,-1,0
1512357236071584,-2,-2,-1,-2,0,-1,-2,-2
1512357236071584,-1,-1,0,-1,-1,-2,-1,-1
1512357236094601,-2,0,0,-3,-1,0,-2,-1
1512357236094601,-1,0,-1,-2,-1,-1,0,-1
1512357236095601,0,-2,-1,-1,-2,-1,-2,-1
1512357236095601,-2,0,-2,-1,-1,0,1,-1
1512357236116641,-3,-1,0,-1,-1,0,-1,-2
1512357236116641,0,-2,-1,-1,-1,-2,-2,-1
1512357236117616,0,-1,-2,-1,-1,-1,0,0
1512357236117616,0,-1,-1,-1,0,0,-1,0
1512357236130626,-1,-1,-2,-1,-2,-1,-1,-2
1512357236130626,-1,-2,-1,-1,-2,0,-1,0
1512357236131626,1,-2,-2,-2,-1,-3,0,-1
1512357236131626,-2,-1,-1,-2,0,0,-2,-3
1512357236154641,-2,-2,0,-2,-3,0,0,-1
1512357236154641,-2,-1,-2,-1,-2,0,-2,-1
1512357236154641,0,-1,-2,-2,-2,-1,-2,-1
1512357236154641,-1,0,-1,-1,-1,-2,0,1
1512357236176670,0,0,-1,-1,-1,-1,-4,-2
1512357236176670,1,1,0,0,0,-2,-1,-1
1512357236177670,-2,0,-2,-2,0,1,-1,-2
1512357236177670,-1,-2,-2,0,-2,-2,-2,-2
1512357236190667,0,-1,-2,-2,-1,1,-1,0
1512357236190667,0,0,0,0,-1,-3,-1,-3
1512357236199697,-1,-2,-1,-2,-1,0,0,0
1512357236199697,-2,-2,0,-1,-2,-1,0,-2
1512357236214684,-2,-2,-3,0,0,-1,-2,0
1512357236214684,-2,-2,-2,-2,-1,-1,-1,-2
1512357236215684,1,0,0,0,-2,0,-2,-3
1512357236215684,0,0,-2,-1,-2,-1,0,-2
1512357236236735,0,-1,0,-1,-2,-1,1,0
1512357236236735,-1,0,-1,-1,-1,-3,0,1
1512357236238744,-1,-1,-1,0,0,-1,-1,0
1512357236238744,0,-2,-2,0,-1,-1,1,-1
1512357236250763,-1,0,0,0,-1,-2,0,-1
1512357236250763,-3,-1,-1,-2,0,1,-1,0
1512357236259762,-2,0,-1,-1,-2,-1,-1,-1
1512357236259762,1,-1,0,-2,-2,-2,-2,-2
1512357236273759,-1,-1,1,0,-3,0,0,2
1512357236273759,0,0,-1,-1,-1,0,0,0
1512357236275761,0,0,-3,-1,-1,-1,-2,2
1512357236275761,-3,-1,-1,-3,-2,-1,1,0
1512357236296837,0,0,-1,-2,0,-1,1,-3
1512357236296837,-1,-1,-1,-1,0,0,-3,0
1512357236297857,-1,-1,-2,-1,-1,0,-2,-1
1512357236297857,-1,0,-2,0,0,0,-1,-2
1512357236309839,-2,-1,-2,-2,-2,-2,-1,0
1512357236309839,0,0,-1,-3,-1,-2,-2,-1
1512357236318925,-1,-1,-1,-3,0,-1,2,0
1512357236318925,-2,-2,-1,-2,0,-2,1,-1
1512357236332919,-1,-2,-3,-1,0,1,-3,-1
1512357236332919,1,-1,-2,-2,-1,-1,-1,-1
1512357236341922,-1,-1,0,0,-1,-3,0,-2
1512357236341922,0,-2,1,-1,-2,0,-1,-2
1512357236356954,0,0,-1,-1,0,-1,-1,-2
1512357236356954,-1,-2,-1,0,-1,0,1,0
1512357236357933,1,0,0,0,-1,0,-3,-2
1512357236357933,-2,-2,-1,0,-2,-3,-1,0
1512357236369941,-3,-1,-1,-1,-2,-1,0,-2
1512357236369941,-1,0,-2,-1,-1,-1,-1,-1
1512357236378947,0,-1,-2,-2,-1,-1,-1,-3
1512357236378947,0,0,-3,0,0,-2,-2,2
1512357236393969,-1,-1,2,-1,-1,1,-1,0
1512357236393969,-2,-2,-1,-1,-2,-2,1,-1
1512357236395958,-2,-1,0,-2,-2,-1,0,-1
1512357236395958,1,2,-1,-1,-3,-1,-1,-1
1512357236416988,0,-3,-2,0,-1,-3,-2,-1
1512357236416988,-1,-2,0,-2,-2,-1,-2,-1
1512357236417985,2,-2,-2,-1,-1,0,-1,-1
1512357236417985,-3,-1,1,0,1,0,0,-1
1512357236429995,0,1,1,-2,-1,-2,-1,1
1512357236429995,1,-1,-2,0,-1,-1,-1,-2
1512357236438999,0,-2,-2,-1,-2,-1,-2,-2
1512357236438999,-1,-1,0,-1,-2,0,-1,-2
1512357236454012,-3,0,-2,-1,-3,-2,-3,-1
1512357236454012,-2,-1,-1,-1,-1,-1,-2,0
1512357236456001,-1,0,-2,-2,-1,-1,-2,-1
1512357236456001,-2,0,1,-2,-1,-1,-1,-2
1512357236477027,0,-2,-2,-1,0,-3,-1,-1
1512357236477027,1,0,-2,-1,-1,-1,0,0
1512357236478017,-2,0,-1,-2,-2,-3,0,-1
1512357236478017,1,-2,-2,-1,-1,-1,-3,1
1512357236490034,-2,-2,-1,-1,-1,-1,0,-3
1512357236490034,-1,0,0,-2,0,-1,1,1
1512357236515046,-2,-1,-1,-1,0,0,-1,-1
1512357236515046,0,-1,-1,2,-2,0,-1,0
1512357236516046,-1,-2,-1,-1,-2,-2,-1,-2
1512357236516046,-2,-1,-1,0,-1,-2,-1,-1
1512357236517044,-2,-1,-1,-1,-1,-1,-2,-2
1512357236517044,0,-2,-2,-2,-1,-1,-2,0
1512357236537068,-1,-2,-2,0,-1,-1,-2,0
1512357236537068,-2,-1,-1,0,0,-2,-1,-5
1512357236538059,-2,-1,-1,0,-2,-2,-1,0
1512357236538059,-1,-1,-1,-2,-1,-1,-2,-2
1512357236550082,1,0,0,-2,-3,-1,1,-2
1512357236550082,1,-2,-1,-2,-1,0,-4,0
1512357236559074,0,-1,-3,-1,-3,-2,-2,-3
1512357236559074,-1,0,-1,-1,1,0,-1,1
1512357236574086,0,0,-1,-1,-1,-1,-3,-1
1512357236574086,0,-2,-1,-2,-1,-2,0,-2
1512357236576124,0,-2,-1,-1,-1,0,-1,0
1512357236576124,-1,-2,-1,-2,-1,-2,1,-1
1512357236597166,-2,-2,0,-2,1,0,0,0
1512357236597166,-1,-1,-1,0,-1,0,-3,-2
1512357236598166,-2,-3,0,-2,0,-1,-1,0
1512357236598166,0,-1,-4,-1,-1,-2,-2,-2
1512357236610175,-3,0,-1,0,-2,-1,2,-1
1512357236610175,-1,-1,-2,-3,-3,-2,0,-2
1512357236619228,-1,0,-1,-2,0,0,-1,0
1512357236619228,-2,-2,-1,-3,0,1,0,-2
1512357236634239,-1,-2,-2,-1,0,1,-2,-2
1512357236634239,-1,-2,-1,-1,-1,-2,-3,0
1512357236636240,-1,0,-1,-1,2,-2,1,-2
1512357236636240,-1,1,-1,-1,-3,-1,-1,-1
1512357236656254,-1,-1,-1,-1,-1,-1,0,0
1512357236656254,-1,0,-1,1,-1,-1,1,-3
1512357236658257,0,0,-2,0,-3,0,-1,-2
1512357236658257,-2,-4,-1,-2,-2,-2,1,1
1512357236670277,-1,-1,-2,-2,-2,-1,-1,1
1512357236670277,-1,1,0,-2,0,-1,-2,1
1512357236679270,-1,0,-2,-2,-2,0,-1,0
1512357236679270,-2,-2,0,-1,0,0,-1,-1
1512357236694292,-2,-2,-2,0,-1,-2,-1,-2
1512357236694292,-2,0,-2,-1,-2,0,0,-2
1512357236695281,-3,-2,-4,-1,-1,-2,-1,0
1512357236695281,-1,-1,-2,0,-1,-2,-3,0
1512357236716410,-1,-2,-1,-2,0,-1,-1,-2
1512357236716410,-1,-2,-1,0,-1,-3,-3,-1
1512357236718374,0,-1,-1,1,-1,-3,-2,-2
1512357236718374,-1,0,-1,-2,-1,-2,1,-1
1512357236730368,-2,-1,-2,0,1,0,-1,0
1512357236730368,-1,0,-3,1,-1,-1,-1,-2
1512357236739373,-1,-1,0,1,-1,-1,1,0
1512357236739373,-1,0,-1,1,0,-1,-3,-3
1512357236754392,-1,-2,0,-1,-1,-1,-2,-2
1512357236754392,-1,-1,0,-3,0,0,0,0
1512357236755407,0,-2,-3,0,0,-1,0,-1
1512357236755407,-1,-1,0,0,-1,-1,0,-1
1512357236776456,-1,0,-1,-1,-2,-2,0,1
1512357236776456,-1,-3,-1,1,-1,0,-1,-1
1512357236778401,1,-1,-1,-1,-1,0,-1,-2
1512357236778401,-2,-2,-2,-2,-2,0,-1,-2
1512357236799431,0,-1,-1,-2,-2,0,-2,-1
1512357236799431,1,-1,-2,-1,1,-2,0,0
1512357236800418,-3,-2,1,-1,0,0,-1,-2
1512357236800418,0,0,-2,-2,-1,-2,0,-1
1512357236814448,-3,0,0,0,-1,-3,1,-2
1512357236814448,0,0,-1,1,0,-1,-2,-2
1512357236815436,-2,-1,0,-2,-2,0,-2,0
1512357236815436,1,-3,-2,0,-2,0,0,0
1512357236836455,2,-1,-2,-2,-1,-1,-2,-2
1512357236836455,-3,-2,0,0,-1,0,1,-2
1512357236838455,0,0,-1,-2,-2,-1,0,-1
1512357236838455,-1,-2,-2,-2,-2,-1,0,0
1512357236859472,-1,0,-1,-1,0,-1,-1,0
1512357236859472,-1,-1,-1,-3,0,-2,-1,-1
1512357236860472,1,-3,-2,-1,1,-3,-2,-2
1512357236860472,-1,-1,-1,-2,-2,-1,-1,-1
1512357236874468,-1,-2,-1,-1,-2,-2,1,-2
1512357236874468,0,-1,-1,-2,-1,-1,-3,-1
1512357236875469,-2,0,-1,-1,1,-1,-1,-1
1512357236875469,-2,-1,0,0,-2,0,-1,-1
1512357236896483,-1,-2,-1,0,0,-1,-2,-1
1512357236896483,-2,0,-2,-2,0,0,-1,-3
1512357236898484,1,-1,-2,-1,0,-1,-3,-1
1512357236898484,0,1,-1,1,-1,-2,1,0
1512357236919499,-1,1,1,-1,-1,1,-1,-2
1512357236919499,-1,-2,-2,-2,-3,-2,0,0
1512357236920500,-2,0,-2,0,-1,-2,-2,-2
1512357236920500,-2,0,-2,-1,-1,-1,0,0
1512357236933532,-2,-3,-1,0,-1,-1,-2,-2
1512357236933532,0,-3,-1,-1,-2,-1,-2,-2
1512357236940523,-2,-1,-1,-1,1,-1,1,0
1512357236940523,-2,-2,-1,-1,-1,-2,-2,-1
1512357236956526,-1,-1,-1,-1,-1,-1,1,-1
1512357236956526,-2,-1,-3,-2,-2,-1,-2,-1
1512357236958536,0,-2,-2,0,-1,0,0,-1
1512357236958536,-1,-2,0,-3,0,0,-1,-2
1512357236979562,0,-1,-1,-3,0,-1,-2,-1
1512357236979562,0,-1,-2,-1,1,-1,-2,-1
1512357236980542,-1,-2,-2,0,-3,-1,-1,0
1512357236980542,-1,-1,-1,1,0,0,-2,0
1512357236993606,-1,-2,-2,-1,-3,0,-1,0
1512357236993606,0,-1,-1,-1,-1,0,-1,-1
1512357237000617,-2,1,0,0,-1,0,-2,1
1512357237000617,-1,-1,-1,0,-2,-1,-1,-2
1512357237016670,-1,-1,-2,-1,0,-1,0,-1
1512357237016670,-1,-1,-1,0,-1,-1,0,0
1512357237018635,-1,-1,-2,-3,-2,-2,-2,-2
1512357237018635,-1,-3,0,-2,-1,-2,-1,-1
1512357237039642,-2,1,-1,-1,0,-2,1,0
1512357237039642,0,-1,-2,-1,-1,-1,-1,0
1512357237040642,-2,0,-1,-2,0,-1,0,-2
1512357237040642,-1,-1,0,1,-3,0,0,-1
1512357237053647,-1,0,0,0,-2,-2,-1,0
1512357237053647,-1,-2,-2,-1,-1,-2,-1,-1
1512357237060645,-1,-2,-1,-1,-3,0,0,-2
1512357237060645,-2,-1,-3,-2,0,-2,-1,0
1512357237076670,0,-2,-1,0,-1,0,0,0
1512357237076670,-1,-1,0,-1,0,-1,-1,-2
1512357237078670,-1,0,-2,-2,-1,0,-2,-1
1512357237078670,-2,1,0,-2,-2,-2,-2,0
1512357237099670,0,-2,-2,-1,0,1,-3,-1
1512357237099670,-3,0,0,-1,0,-1,-1,1
1512357237100672,-1,-2,-3,-2,0,1,-2,-3
1512357237100672,-1,-2,-3,-2,-1,0,0,-2
1512357237113703,-2,0,-1,-1,-3,-2,1,-2
1512357237113703,0,-2,0,-1,-1,0,-1,-2
1512357237120696,-2,-2,-1,0,-1,-1,2,-1
1512357237120696,1,-1,1,-1,-1,-2,1,1
1512357237136706,-1,-2,-1,-1,-2,-1,-1,0
1512357237136706,-2,-1,-3,0,-1,-1,0,0
1512357237138707,-1,-1,-3,-1,-1,-2,-2,-1
1512357237138707,-2,-2,-1,0,-1,-2,-2,-1
1512357237158728,0,-2,-2,-1,-1,0,-3,-2
1512357237158728,1,1,0,0,0,-1,-1,-1
1512357237160714,1,0,-1,-2,0,-1,-1,-2
1512357237160714,-1,-1,0,0,-1,-1,0,-2
1512357237173752,-1,-2,-2,-2,0,-2,-2,-1
1512357237173752,-3,-2,-1,0,-1,0,-1,-2
1512357237180755,-1,0,0,-1,0,-1,-1,0
1512357237180755,0,-1,-2,-1,-3,0,-1,-2
1512357237196767,-3,-1,0,-2,-2,-2,-1,-1
1512357237196767,-1,-1,-2,-2,0,-2,-1,-2
1512357237198769,-2,0,-1,-1,-1,-1,-3,-2
1512357237198769,-1,-1,-1,1,-1,0,-3,0
1512357237219784,1,1,-2,-3,-1,0,-2,0
1512357237219784,-1,-2,-1,-1,-2,-1,-1,-3
1512357237220799,-1,-1,-1,0,-2,-1,-2,0
1512357237220799,-2,-1,-1,-2,-1,-2,0,-3
1512357237232814,-2,-1,-2,0,-1,-1,-1,-1
1512357237232814,-1,-1,-2,0,-1,-1,-2,0
1512357237241800,-1,-1,0,-2,-2,-2,-1,1
1512357237241800,1,-1,-1,-1,0,-2,0,-1
1512357237256810,-1,-2,0,-1,0,0,0,0
1512357237256810,-2,0,-1,-1,-2,-2,-2,-2
1512357237257811,-2,-1,-2,-1,-3,-1,1,1
1512357237257811,-1,-3,-1,-2,0,0,-1,-2
1512357237278835,-1,0,1,0,-2,-1,-2,-2
1512357237278835,-1,-2,-1,-1,-1,-1,-3,0
1512357237280854,-1,-3,0,0,0,-2,-2,-2
1512357237280854,-2,0,-2,-1,-1,-1,0,0
1512357237292835,-1,-1,-1,-1,-2,1,-1,0
1512357237292835,-2,-1,0,-1,0,0,2,0
1512357237301854,-1,-1,-2,0,-2,-1,-1,-2
1512357237301854,-1,-2,-2,0,-1,0,-2,-2
1512357237316878,-1,-1,0,-2,-1,-2,0,-2
1512357237316878,-1,1,-2,0,-1,-1,-3,-1
1512357237317861,0,0,0,0,0,-3,-1,-1
1512357237317861,-1,0,-1,-1,-1,-1,0,0
1512357237338867,-2,0,-2,-1,-2,-1,-2,0
1512357237338867,1,-2,1,-2,-1,-2,0,0
1512357237340868,0,-2,-1,0,-2,1,0,1
1512357237340868,-2,0,0,0,-1,0,-2,-2
1512357237352879,0,0,0,-1,0,-1,0,0
1512357237352879,1,1,-4,0,-2,1,0,-1
1512357237361892,0,-2,-3,0,-1,0,-1,0
1512357237361892,-2,-1,-1,2,-1,-1,0,-2
1512357237376921,-1,-1,-1,0,-2,-2,0,-2
1512357237376921,-3,-1,-2,-2,1,-1,-1,-3
1512357237377894,0,-1,-3,0,0,-1,0,-2
1512357237377894,0,0,0,-3,-1,-1,-1,1
1512357237398910,-2,-2,0,-1,0,-2,-1,-2
1512357237398910,-1,-2,0,-1,-1,0,-1,-1
1512357237400912,-2,-1,-2,-1,-1,-1,-1,0
1512357237400912,-2,-2,-1,-1,-1,-1,0,-1
1512357237412938,-2,0,-3,2,0,0,-2,-1
1512357237412938,-1,-2,0,-1,-1,-1,-2,-1
1512357237421938,-2,-2,-1,-2,-2,-1,-3,-1
1512357237421938,-2,-1,-2,-2,-2,-1,0,-1
1512357237436936,-1,0,-2,-2,-1,-1,-2,0
1512357237436936,0,0,-3,-1,-1,-1,-1,-1
1512357237437937,0,1,-1,-2,1,-1,-1,-2
1512357237437937,0,-2,0,-3,-1,-4,-1,-1
1512357237458965,0,-1,-2,-2,-2,-1,-1,-2
1512357237458965,-3,-1,-2,0,-1,0,-1,0
1512357237460968,-1,-3,-2,-1,-1,-3,-2,-2
1512357237460968,-2,0,1,2,-2,0,0,-2
1512357237472971,1,-3,1,-1,-1,0,0,-2
1512357237472971,0,1,-1,-3,0,-1,0,0
1512357237481969,-1,1,-2,-2,-1,1,-2,0
1512357237481969,-3,0,-3,-2,-2,-1,-1,-1
1512357237496992,0,-1,-1,-2,-1,-1,-1,-2
1512357237496992,0,-3,-2,-2,-1,-2,-1,-2
1512357237497981,-2,-1,1,-1,-1,-1,-3,-1
1512357237497981,-1,-1,-1,-2,0,-2,0,0
1512357237519027,-2,0,-1,1,0,-1,-2,0
1512357237519027,-2,-1,-1,0,0,-1,-1,-1
1512357237520997,-1,-1,-2,0,-2,-2,-1,-2
1512357237520997,0,-2,0,-1,-3,0,0,2
1512357237533067,-1,-2,-1,0,-2,-1,-1,0
1512357237533067,-2,-2,-2,0,2,-1,0,-2
1512357237542011,-1,-1,-1,-1,-1,-1,1,-1
1512357237542011,0,-1,0,-2,-1,1,-1,0
1512357237557022,-1,-3,-2,-2,-1,0,-1,0
1512357237557022,-2,1,-1,-2,-2,-1,-3,-2
1512357237558026,-4,-2,-1,-1,-1,-2,-2,-1
1512357237558026,-2,0,-2,-2,-1,0,-2,-3
1512357237579060,-1,-3,-1,1,0,-2,-1,0
1512357237579060,0,-2,0,0,-1,-2,-2,-1
1512357237581064,-1,-1,0,0,0,0,-1,-1
1512357237581064,-1,-1,-1,1,-2,-2,-1,-1
1512357237593060,-2,0,-1,0,-1,-2,0,-1
1512357237593060,1,-1,-2,-2,-2,0,-1,-1
1512357237602067,-1,0,-1,0,-1,-1,0,0
1512357237602067,-1,-1,-2,-1,-1,-1,0,-1
1512357237617100,-1,0,-2,-1,-1,-2,0,-2
1512357237617100,-2,-2,-2,-1,-1,-2,-1,0
1512357237618065,0,-1,0,-1,-1,0,-2,-3
1512357237618065,-1,-2,-1,0,-1,-2,-1,1
1512357237639079,-1,-2,0,-1,1,0,-1,-1
1512357237639079,-2,-1,0,-2,-1,0,-1,-1
1512357237641081,0,-2,-2,0,-2,0,2,-1
1512357237641081,0,-1,-1,1,0,0,0,0
1512357237653095,0,-1,-1,-3,0,-1,-1,0
1512357237653095,0,-1,-2,-1,0,-1,-1,-3
1512357237662113,-2,-1,-1,-2,-1,0,-1,-1
1512357237662113,-1,-2,-1,-1,-2,-1,-2,-3
1512357237676106,0,-3,0,-2,-1,0,0,-2
1512357237676106,0,-1,0,-2,-1,0,-2,1
1512357237678108,0,-2,-1,-2,0,-1,-1,2
1512357237678108,-1,2,-2,-1,0,0,-1,0
1512357237699146,-3,1,1,-1,-3,-2,-2,-1
1512357237699146,-1,-3,0,0,-1,-2,-1,-1
1512357237701124,-2,-1,-1,0,-2,-1,-2,0
1512357237701124,-1,-2,-2,0,-2,-2,-2,0
1512357237721175,-2,-1,-2,1,-1,0,-1,-1
1512357237721175,-2,0,-3,0,-2,-2,-1,-2
1512357237723139,1,-2,-1,-1,-1,0,-1,0
1512357237723139,0,-1,0,-1,-1,0,-1,0
1512357237736148,-1,0,-2,-3,-1,0,-2,0
1512357237736148,-2,0,-1,0,-1,-2,0,-1
1512357237738150,0,-2,-2,0,0,-2,0,-2
1512357237738150,-1,-1,0,-2,-2,-1,0,-1
1512357237759182,0,-2,-1,-1,-3,-1,-2,-1
1512357237759182,-1,-1,-2,-1,-2,0,-1,0
1512357237761166,-2,0,-1,-1,-1,-3,-3,-1
1512357237761166,0,-3,-2,-1,-1,-1,2,-1
1512357237781241,0,-1,-2,0,-3,-1,-1,-1
1512357237781241,-1,-3,-1,0,-2,-1,-2,1
1512357237783195,-1,-1,-1,-1,-2,-2,0,0
1512357237783195,0,0,0,-2,-1,-1,-2,-2
1512357237796190,-2,-1,1,-1,-2,-2,-1,1
1512357237796190,0,0,-1,-1,-1,-1,1,-3
1512357237798199,-2,0,0,-1,-1,1,-2,-1
1512357237798199,-4,-1,1,0,0,-2,-1,-2
1512357237819267,-2,-1,-1,-2,-1,-2,0,-1
1512357237819267,0,0,-2,-2,-1,-2,-1,-2
1512357237821215,-1,-1,0,0,-1,-1,0,-1
1512357237821215,-1,-1,-2,-1,-2,-1,0,-1
1512357237841223,0,-1,-1,0,-1,-1,-1,-1
1512357237841223,-1,-3,0,-1,0,2,0,0
1512357237843224,-2,-2,-2,-1,-2,0,-1,-2
1512357237843224,0,-2,0,-3,-2,-2,-1,-1
1512357237855233,-3,-1,0,-1,-1,-1,-1,-3
1512357237855233,1,-1,0,1,-2,-1,-4,0
1512357237864238,-1,-2,-2,-2,-2,0,-1,-2
1512357237864238,-2,-1,-1,-1,-1,-1,-1,-1
1512357237879273,0,-1,-2,1,-1,0,-1,0
1512357237879273,-1,-2,-1,-2,-1,-1,1,-1
1512357237880251,0,-1,0,-1,-2,-1,-2,-1
1512357237880251,-1,-1,0,0,-1,-2,-1,2
1512357237901321,0,-2,-1,-1,1,0,0,1
1512357237901321,0,0,-2,0,1,-1,-2,-3
1512357237903267,-2,-1,1,-2,-1,0,0,0
1512357237903267,-2,-1,-2,0,0,-1,-2,-1
1512357237916326,0,-2,0,0,-1,-1,-1,0
1512357237916326,0,0,0,0,-1,1,0,0
1512357237923280,-1,-2,-3,-2,-1,0,-1,0
1512357237923280,0,-3,-2,-1,-2,-2,-1,-1
1512357237946296,0,-2,-1,0,-2,-2,1,-2
1512357237946296,-1,0,-1,-2,-2,-1,0,-1
1512357237948298,-2,-1,0,-2,-1,-1,-3,-2
1512357237948298,1,-2,-1,0,0,1,-2,2
1512357237961333,-2,-1,-1,-1,-1,-1,-2,-1
1512357237961333,-3,-1,-2,0,-2,-3,-4,0
1512357237963308,0,1,-1,-1,2,-1,0,0
1512357237963308,-1,-2,-1,-2,0,0,-2,-2
1512357237976353,0,-1,-1,-1,1,-2,0,-2
1512357237976353,-1,-1,-2,-2,-2,0,-2,0
1512357237982402,-1,-1,-2,-1,-1,0,0,-1
1512357237982402,-2,0,-1,-1,-2,0,0,-1
1512357237999414,-1,1,-3,-1,0,0,-3,0
1512357237999414,-1,-1,-1,0,-1,-2,-2,-2
1512357238000403,-1,0,0,0,-1,-3,0,-2
1512357238000403,-1,-1,0,0,-2,0,0,-1
1512357238021417,-1,0,-1,-2,-1,-1,-1,0
1512357238021417,0,-2,-1,-1,0,-2,-1,-1
1512357238027485,1,-1,-1,-2,-1,-1,-2,-1
1512357238027485,-2,0,0,-2,0,-2,0,-1
1512357238035477,0,-1,-1,-2,-1,-1,-2,-1
1512357238035477,-2,0,-1,0,-1,1,-2,1
1512357238042481,-1,-2,-2,-1,-1,-2,-2,-2
1512357238042481,-3,-2,-1,-1,-2,-1,0,-1
1512357238059497,-2,-1,-2,1,-1,-3,-2,0
1512357238059497,-1,-2,0,-3,1,0,0,-2
1512357238060488,-1,-1,0,-2,-2,-1,-1,-2
1512357238060488,1,0,-1,-2,-3,-1,-2,1
1512357238081522,-1,-1,-2,0,-2,0,-2,-1
1512357238081522,-1,-1,0,-1,-1,-2,-2,-1
1512357238083524,-1,-2,-1,0,-1,-4,0,1
1512357238083524,0,-2,-1,0,-1,-2,-2,-1
