timestamp,emg1,emg2,emg3,emg4,emg5,emg6,emg7,emg8
1514894357370420,0,-1,-1,-1,-2,0,-1,0
1514894357370420,-1,-1,-1,-1,0,0,1,0
1514894357370920,1,-3,-2,-1,-2,0,-2,-2
1514894357370920,0,-1,-2,-1,0,-1,-2,0
1514894357393437,-1,-1,-1,0,-1,-2,-1,-1
1514894357393437,-1,-2,-2,-1,-1,0,-1,-2
1514894357393936,-2,-2,-1,-1,-1,-1,-2,-1
1514894357393936,-2,-2,-1,0,1,-1,-3,0
1514894357407446,-1,0,-2,-1,-2,-2,-1,-1
1514894357407446,0,1,0,0,0,0,-2,0
1514894357408447,-2,-1,0,-1,-1,-1,1,-1
1514894357408447,-1,-1,-2,-1,-1,0,-2,-2
1514894357433467,0,0,0,-1,-1,-1,-2,-2
1514894357433467,-1,-2,-1,-3,0,-1,-1,0
1514894357434967,0,-1,0,-1,-1,-2,0,0
1514894357434967,-3,1,-2,-1,-1,-1,0,0
1514894357453479,-2,0,-1,-2,-1,-1,0,-2
1514894357453479,0,-1,-1,-1,-1,-1,-2,-1
1514894357453979,-2,-2,0,-2,-1,-1,-1,0
1514894357453979,-1,1,-1,-1,-1,0,0,0
1514894357467488,-1,-1,-2,-1,-2,-1,-2,0
1514894357467488,-1,-3,-2,-1,-2,-2,0,-1
1514894357468489,-1,-1,-3,0,0,-1,-2,-1
1514894357468489,1,1,0,-1,-3,-1,-2,-2
1514894357490012,0,1,-1,-2,-2,-1,-2,-2
1514894357490012,-1,-1,0,-2,-1,1,-1,-2
1514894357491009,-1,-4,-2,-1,-1,-1,-2,-2
1514894357491009,0,1,-1,-2,0,0,0,-1
1514894357513521,1,0,-1,-1,-1,-2,-1,1
1514894357513521,-1,-2,-1,0,0,-2,-1,0
1514894357514021,0,-1,0,-3,-1,-2,0,-1
1514894357514021,-1,0,-3,-1,1,-1,-2,-2
1514894357527532,-2,-1,-1,-1,-3,-2,1,-2
1514894357527532,-1,-2,-1,-2,0,-3,-1,0
1514894357529034,-1,-1,0,-1,-3,-1,-2,-1
1514894357529034,-1,0,-1,0,-1,-1,-1,1
1514894357550047,-1,0,-2,-2,-1,0,-2,-2
1514894357550047,-2,-2,-2,1,-1,0,-2,-3
1514894357551548,-1,0,-2,0,0,-2,-1,-1
1514894357551548,-2,1,1,-2,-1,-1,0,-2
1514894357574582,-2,-1,-1,0,0,-1,-1,-1
1514894357574582,-4,-4,-1,-1,-1,0,0,0
1514894357575064,-2,-1,-1,-2,-1,-2,-1,0
1514894357575064,-2,3,-1,0,-1,-1,-1,-1
1514894357587573,0,0,0,0,0,0,1,1
1514894357587573,-2,-3,-3,-1,-3,-3,-1,-2
1514894357588574,-1,-2,-1,-1,-2,1,-2,-2
1514894357588574,0,2,-2,-1,-3,-2,0,0
1514894357610090,1,-1,-2,-3,-3,-2,-2,-2
1514894357610090,-1,-4,-1,-1,-1,-1,-2,-2
1514894357611102,-1,-2,-1,-1,0,-1,-1,-1
1514894357611102,0,0,0,-2,-2,-2,-2,-1
1514894357633108,-2,-3,-1,0,0,0,0,-1
1514894357633108,0,-2,-1,0,-1,-1,-1,0
1514894357634106,0,0,-1,-1,-1,-1,0,-1
1514894357634106,-1,-1,-2,-1,0,0,1,-1
1514894357647616,0,2,1,-1,0,-1,1,-1
1514894357647616,-1,0,-1,0,-1,-2,-2,-1
1514894357648616,-1,-2,-1,0,0,0,-1,0
1514894357648616,0,-2,-2,-1,-1,-1,-1,0
1514894357670137,0,1,-3,0,-2,0,-1,0
1514894357670137,-2,0,-1,-2,-3,-1,0,-1
1514894357670634,-2,-2,0,0,-2,-2,-2,0
1514894357670634,-2,-3,-2,-2,-1,-1,-1,-1
1514894357693149,0,-2,-2,0,-1,-1,-1,-1
1514894357693149,0,0,-1,0,0,-1,-1,-2
1514894357694149,0,-2,-1,-1,-1,-1,1,-1
1514894357694149,-2,-3,-1,-1,-1,-2,-2,1
1514894357707659,0,0,1,-1,-2,-2,0,-1
1514894357707659,0,1,0,-1,0,0,-1,-2
1514894357708158,-1,-3,0,-2,-1,-2,0,-1
1514894357708158,-1,-1,-1,-1,0,-1,-2,-3
1514894357730675,-1,0,-2,-1,0,-1,-2,-2
1514894357730675,0,0,-1,-1,-2,-2,0,0
1514894357732678,-2,-4,-1,-2,0,0,-1,0
1514894357732678,-1,-4,-2,-2,-2,-1,0,0
1514894357753692,-2,1,-1,0,-1,0,0,0
1514894357753692,-1,-1,-1,-2,0,1,-1,-1
1514894357754192,-2,-2,-2,-1,-2,-2,-1,-1
1514894357754192,-2,0,1,-1,0,-2,-1,-1
1514894357767701,-1,2,0,0,0,-1,-2,0
1514894357767701,-1,0,-2,-1,1,-2,0,0
1514894357768202,0,-2,1,-2,-1,0,-2,-1
1514894357768202,-1,-2,-1,-1,-1,0,-2,-1
1514894357790217,-1,-2,-1,-1,-1,-2,-1,-1
1514894357790217,-1,-3,0,-1,-2,-1,-1,0
1514894357790718,-1,-2,-1,-1,-1,-3,-1,-2
1514894357790718,-1,0,0,0,-1,-1,-1,0
1514894357813245,-1,1,-1,-1,0,0,-1,-2
1514894357813245,-2,0,-3,-1,-1,-2,-1,-2
1514894357814234,-1,-3,-3,-1,-1,0,0,-3
1514894357814234,0,-2,-1,-1,-1,-1,0,-2
1514894357828256,-1,-1,0,-2,-2,-1,0,0
1514894357828256,-1,-2,0,-2,-1,-2,-1,-3
1514894357842757,-3,-2,-1,-1,-1,-1,-2,-1
1514894357842757,0,0,1,0,-1,0,-1,-2
1514894357850259,0,1,-3,-1,-2,-3,-1,-1
1514894357850259,-1,0,-1,-2,0,-2,1,0
1514894357850760,-2,-2,0,-1,-2,-2,1,-1
1514894357850760,-2,-2,-2,0,0,-1,-1,0
1514894357873286,-1,0,-1,-2,-1,-2,-2,0
1514894357873286,-1,0,-3,-1,0,1,-2,-1
1514894357873786,-1,-3,-1,-1,1,-2,-1,-1
1514894357873786,0,-2,-1,-3,-1,0,-2,-1
1514894357886793,-1,0,-1,-1,-1,-2,0,-1
1514894357886793,-2,0,0,-1,0,1,-3,-1
1514894357895300,-1,-4,-2,0,-1,0,0,0
1514894357895300,0,-1,-1,-2,-1,-2,0,-1
1514894357910311,0,0,-2,-2,-2,-1,-1,-1
1514894357910311,0,-2,-1,-1,-2,-2,-1,-2
1514894357910812,1,-3,-1,1,-3,1,-2,0
1514894357910812,-2,-1,-2,-2,-1,-2,-1,-1
1514894357933839,-3,0,-2,-3,-2,-1,0,0
1514894357933839,-1,-1,-2,-1,-2,-1,-1,0
1514894357940332,-1,-2,-1,-1,0,-2,-3,-1
1514894357940332,0,-1,-2,-2,-1,-2,-2,-1
1514894357946846,-2,1,0,0,-2,0,0,-1
1514894357946846,-2,-3,0,0,-2,-1,-1,0
1514894357955342,-2,-1,-2,-2,-1,-2,0,-2
1514894357955342,-1,0,-1,-2,-2,0,-2,-1
1514894357978862,-2,1,-1,-1,1,0,1,-1
1514894357978862,0,-1,-1,-2,-1,-1,-2,0
1514894357979359,-2,-4,0,-1,-1,-3,-1,-1
1514894357979359,0,-1,-1,0,1,0,-1,-1
1514894357993370,0,1,-1,-1,-1,-3,1,-1
1514894357993370,-1,-2,-2,-2,-1,-1,0,-1
1514894357994369,-2,-2,-1,0,-1,-1,-1,1
1514894357994369,-1,0,-2,-3,-1,-2,-1,0
1514894358006880,0,0,-2,-2,-2,0,-3,-1
1514894358006880,1,-3,-2,-2,-3,0,0,0
1514894358015394,-1,-3,0,-2,0,-1,-1,-2
1514894358015394,-1,-2,0,-2,0,2,-1,-2
1514894358030399,0,2,-1,0,-1,-2,-2,-1
1514894358030399,0,-1,1,0,-3,-2,0,-2
1514894358031396,-1,-1,0,-1,-1,0,-3,0
1514894358031396,-2,0,-1,0,-2,-1,0,0
1514894358053411,-1,1,-1,0,0,-1,-2,0
1514894358053411,0,0,-2,-3,1,-1,0,-1
1514894358053922,-1,-3,0,-1,0,1,-1,-1
1514894358053922,-1,-1,-1,0,-1,-3,-1,-3
1514894358066921,-1,0,-2,0,-1,0,-1,-1
1514894358066921,-1,-1,-1,0,-3,-2,-2,0
1514894358074927,0,-3,-2,-2,-3,1,-2,-2
1514894358074927,-2,1,0,-2,1,-1,-1,-2
1514894358089937,0,1,-1,-2,-1,0,0,-3
1514894358089937,-2,-1,0,-1,-2,0,-1,-1
1514894358090950,-2,-4,0,-2,0,-2,1,-2
1514894358090950,0,-2,-2,-1,0,0,-2,0
1514894358120960,0,1,-3,-1,0,-2,-1,1
1514894358120960,1,-2,-1,-1,-2,0,-1,-1
1514894358121460,1,-1,-1,-2,-1,-1,-3,-3
1514894358121460,-2,0,-2,-2,-2,-3,0,1
1514894358127464,0,-1,0,-4,0,-2,0,-1
1514894358127464,-1,-1,-2,-2,-2,0,-1,0
1514894358134981,-2,-2,-2,0,-2,-1,-2,-2
1514894358134981,-1,1,-1,-2,-2,1,-1,0
1514894358149992,-1,1,-1,-2,-2,-2,-1,-2
1514894358149992,-1,-1,-1,-2,1,-1,0,-2
1514894358150992,-1,-2,-1,0,0,-1,0,-1
1514894358150992,-1,-3,-1,0,-2,-1,0,-2
1514894358173997,-1,-1,-1,0,-1,-2,-2,0
1514894358173997,1,-2,-2,-1,-1,-1,-1,-1
1514894358174497,-2,-3,-2,0,-1,-1,1,0
1514894358174497,-2,0,-2,-1,0,1,-1,-1
1514894358196517,0,0,-2,0,0,0,1,-1
1514894358196517,-2,-1,-2,0,-1,-2,-1,-1
1514894358198015,1,-4,-1,0,-1,0,-1,1
1514894358198015,0,-1,-1,-1,-2,-2,0,0
1514894358210523,0,0,0,-2,-1,-2,-2,-1
1514894358210523,-1,-2,0,-2,-2,0,-1,0
1514894358212525,-3,-1,-1,-1,-1,-1,-2,-2
1514894358212525,0,-2,0,-1,0,-1,-1,-1
1514894358233038,-1,0,-2,-2,0,0,-1,-2
1514894358233038,-1,-2,-2,0,0,-1,-1,-1
1514894358240044,0,-3,0,0,-1,0,-3,0
1514894358240044,0,2,0,-1,-2,-2,0,-1
1514894358256555,-1,1,-1,-1,0,-1,-1,1
1514894358256555,-2,-1,-2,-1,0,-2,-1,-1
1514894358257055,0,-2,-1,-2,-2,-3,-1,-3
1514894358257055,-1,0,-3,-2,-1,-1,-2,-1
1514894358270066,-1,0,-2,-1,-2,-2,2,-1
1514894358270066,-1,-2,0,-1,-1,0,-1,-2
1514894358271066,-3,-4,-3,0,1,-2,0,-1
1514894358271066,1,0,-1,1,-3,-1,-1,0
1514894358294582,-1,2,-3,-1,-1,0,-1,-1
1514894358294582,-1,-3,-3,-1,-1,-1,-2,0
1514894358295582,-1,-4,2,-1,-2,-1,-1,-2
1514894358295582,-2,0,-2,-2,0,-1,0,-2
1514894358323122,-1,0,-2,0,-1,-1,-1,-1
1514894358323122,-2,0,-1,-1,-1,-1,-1,-1
1514894358324103,1,-2,-1,-2,-1,-2,-2,0
1514894358324103,-2,0,1,-1,0,-2,0,0
1514894358330117,-1,1,0,-2,-2,-3,-2,-1
1514894358330117,0,-2,0,-2,0,-1,-1,-1
1514894358331107,-3,-1,-1,0,-1,-2,-1,-2
1514894358331107,-1,-1,-1,-1,-1,1,0,-2
1514894358353153,-1,2,-1,-1,-2,-1,-1,-2
1514894358353153,-2,-2,-1,0,-2,-1,0,-1
1514894358354134,-1,-2,0,-2,-1,-1,0,0
1514894358354134,0,1,-2,0,-1,-1,-1,-1
1514894358375680,0,0,-1,-2,1,-1,-1,-1
1514894358375680,-1,-5,-3,0,0,1,-1,-2
1514894358376680,1,-3,-2,-1,0,-2,-1,0
1514894358376680,0,1,-2,-1,-2,-2,-1,0
1514894358398203,-2,0,0,0,-2,-2,-1,-2
1514894358398203,-1,1,1,-1,0,-2,-1,-1
1514894358399186,-2,-2,-2,0,-2,1,0,-1
1514894358399186,-2,0,-1,0,-2,0,0,-2
1514894358413697,-2,-2,-1,-2,-2,0,-1,-2
1514894358413697,-1,-3,-1,0,-1,-1,-1,0
1514894358414210,1,-3,-3,-2,0,1,-1,-1
1514894358414210,-2,0,-2,-2,-2,0,0,-2
1514894358435712,-2,-1,-1,-2,0,-1,0,1
1514894358435712,-2,-2,0,-2,-2,-1,1,0
1514894358436713,-2,-2,0,-1,0,0,-2,-1
1514894358436713,0,-2,-2,-1,0,-1,-3,0
1514894358450225,0,-2,-3,-1,-1,-1,-1,-1
1514894358450225,-2,-1,-1,0,-2,-1,-1,-1
1514894358450724,-2,-2,-1,-1,-1,1,-1,-1
1514894358450724,-3,-1,-2,-1,-1,-1,-1,-2
1514894358473249,-1,0,-1,-1,-1,-2,-4,-5
1514894358473249,-1,-3,-2,-3,0,0,0,1
1514894358474739,-1,-1,0,-1,-1,-2,0,1
1514894358474739,1,1,1,-2,-1,1,-2,-2
1514894358495756,-2,-1,-1,-2,-1,1,1,6
1514894358495756,-1,-1,-2,-1,-1,-1,9,-9
1514894358496776,-2,-1,0,-1,0,-1,-3,0
1514894358496776,-2,-2,-2,-2,0,-2,-1,-4
1514894358509774,0,-1,0,0,-2,0,-3,1
1514894358509774,-1,-2,-2,1,-1,-1,-2,2
1514894358510766,-1,-1,-2,-1,-2,0,0,1
1514894358510766,0,1,-2,-2,-1,-1,-1,1
1514894358534283,-1,0,-1,-1,-2,0,-1,-2
1514894358534283,-1,0,0,-1,-1,0,-4,-1
1514894358536293,-2,-2,-1,0,-2,-1,-1,-3
1514894358536293,-2,-1,-1,-1,-2,-2,-1,-1
1514894358555810,-1,-1,-2,-2,0,-1,0,-1
1514894358555810,-1,-2,-2,-1,-1,-1,-3,-2
1514894358556297,0,-3,-1,-1,-2,-1,-1,0
1514894358556297,-1,-1,-2,0,-2,0,1,0
1514894358570317,-2,1,1,0,-1,-1,0,-3
1514894358570317,-2,-1,0,0,-1,-2,-1,0
1514894358571818,-1,-2,-1,-1,-1,-1,-2,-6
1514894358571818,1,1,-1,-1,-2,-1,1,5
1514894358593333,2,1,-1,-3,-1,-2,-1,-1
1514894358593333,-2,-2,-2,-2,0,0,-3,1
1514894358593824,-2,-4,-2,-2,-1,-2,0,-4
1514894358593824,-1,1,-2,-1,-1,1,-1,-3
1514894358615850,-1,3,-3,0,-4,-1,0,0
1514894358615850,-1,-2,0,-1,-1,-2,-2,-1
1514894358616339,0,-1,-3,0,-1,-1,1,0
1514894358616339,-1,-1,-2,-1,0,-3,-2,-4
1514894358630859,-1,-2,-1,0,0,-1,-1,-2
1514894358630859,1,-2,-1,0,-2,-1,-4,-1
1514894358632352,-2,-2,1,-1,-1,0,1,-1
1514894358632352,-3,-1,-1,-3,1,-1,-1,-1
1514894358660883,-1,0,-1,0,-1,-2,-1,-3
1514894358660883,0,-3,-2,0,-2,-3,0,-1
1514894358661887,-1,-2,-2,0,0,0,0,0
1514894358661887,-1,0,-2,0,-3,-2,-1,-1
1514894358676395,-1,0,-1,-1,0,-1,-1,-1
1514894358676395,-1,-1,0,-1,0,0,-2,-1
1514894358677895,1,-1,0,-1,-1,-1,-2,-2
1514894358677895,0,-1,-1,0,0,-1,-2,0
1514894358689401,-1,-2,-3,-1,0,-1,-3,-1
1514894358689401,-1,0,-1,-2,-2,0,0,1
1514894358698399,-1,-1,0,1,-1,-1,-2,0
1514894358698399,0,-1,-1,-1,0,0,0,0
1514894358713411,-1,-1,-2,-4,-2,0,-1,-1
1514894358713411,-2,-4,-1,1,0,-1,0,0
1514894358714910,-2,-4,-2,0,-1,-2,-1,-3
1514894358714910,1,-1,-1,1,-2,1,0,0
1514894358735936,-2,1,0,-2,-2,-2,0,-2
1514894358735936,-1,-1,0,0,-1,-2,0,-1
1514894358737435,-1,-1,-1,-1,-1,2,-1,0
1514894358737435,-2,-1,-1,0,0,-1,-1,-1
1514894358749446,1,-1,-1,0,0,-2,-1,-1
1514894358749446,-1,-3,-1,-2,-1,0,-3,-2
1514894358759451,-1,-1,-1,-2,-3,-1,-2,1
1514894358759451,-2,1,-2,-2,-2,-2,-1,0
1514894358773960,0,-1,-1,1,-2,0,-1,0
1514894358773960,-1,-3,-1,-2,-1,-3,-2,-1
1514894358775462,-1,-2,0,-1,-1,-1,-1,-1
1514894358775462,-1,-1,0,-2,0,0,-3,-2
1514894358795985,-1,1,-2,-1,-1,-1,0,-1
1514894358795985,0,-1,-2,-1,-1,0,1,0
1514894358797467,-1,-1,-3,-1,0,-4,-1,0
1514894358797467,0,-2,0,0,-1,-2,-2,-3
1514894358809986,-2,0,0,-2,-2,-2,-2,0
1514894358809986,-1,1,-1,0,-2,0,0,-2
1514894358818484,-3,-2,-1,-1,-1,0,-2,-1
1514894358818484,-1,1,0,-1,-2,-1,-1,-2
1514894358833493,-2,-1,-2,0,-1,-1,0,-1
1514894358833493,-3,-3,-1,-1,0,0,-3,-2
1514894358834994,-1,0,0,-1,-1,-2,0,0
1514894358834994,-1,-1,-1,-2,0,0,0,0
1514894358856010,0,0,-1,-3,-1,-1,0,-3
1514894358856010,-1,-1,-1,-1,-1,0,-2,0
1514894358857520,-1,-2,0,-1,0,0,-2,-3
1514894358857520,-2,-2,-2,0,-1,-1,-2,0
1514894358870029,0,0,-1,0,0,-1,-2,1
1514894358870029,-2,-2,0,-2,0,-1,0,0
1514894358879526,0,-1,-1,-1,-1,-1,1,0
1514894358879526,-2,0,0,-1,1,-1,1,-1
1514894358900541,-1,-3,0,-3,-1,0,-1,-2
1514894358900541,-1,-2,1,-1,-1,0,-1,-1
1514894358902546,-1,0,0,0,0,-3,0,-1
1514894358902546,0,-1,-3,0,-1,0,0,0
1514894358915551,0,1,-1,-2,-3,-2,-3,-1
1514894358915551,-3,-2,-1,-2,0,-2,-2,-2
1514894358917553,0,-3,-2,-1,-3,1,0,-2
1514894358917553,0,0,-1,0,-1,-1,-1,-1
1514894358929562,0,-1,-1,-2,0,-3,0,-1
1514894358929562,0,-2,-1,-1,0,0,0,-1
1514894358938568,-2,-2,0,0,0,-1,-2,-1
1514894358938568,-2,0,-2,-2,-2,-1,-1,1
1514894358953588,0,1,-1,1,-1,0,-1,-1
1514894358953588,-2,-2,-2,-1,-2,0,-2,-1
1514894358955589,-2,0,-1,-1,-1,0,-1,0
1514894358955589,0,0,-2,-3,-1,-1,0,-1
1514894358975106,0,-1,-1,-2,0,-1,2,1
1514894358975106,0,-1,0,-2,-2,-1,0,-3
1514894358983617,-3,-3,-2,-1,-1,0,0,0
1514894358983617,-2,-1,0,-1,-1,-2,-1,0
1514894358989603,-1,-1,-1,-2,-1,-2,-3,-1
1514894358989603,-1,-2,-1,-1,-2,-2,-1,0
1514894358998610,-1,-2,-1,0,-2,0,-3,1
1514894358998610,-1,1,-1,-1,0,-1,-2,-1
1514894359013120,-2,-2,-2,-2,-1,0,0,-1
1514894359013120,0,0,-2,-2,-2,1,-1,-1
1514894359014635,0,-1,-2,-1,1,-2,-3,-2
1514894359014635,0,1,0,-1,-2,0,-3,-3
1514894359035637,-1,-1,-2,-1,0,-2,-1,-1
1514894359035637,-1,-2,-1,-1,-1,-1,0,-1
1514894359037138,-1,-2,0,-3,-1,-2,0,0
1514894359037138,-2,-1,0,-2,-2,-1,-1,-2
1514894359049145,0,1,-1,-3,-2,0,-1,-1
1514894359049145,-1,-2,-1,-2,-2,-2,-1,0
1514894359059152,-1,-1,-2,2,-1,0,-2,-1
1514894359059152,-2,0,-2,1,-1,2,0,-1
1514894359073162,-1,-2,-1,-2,-3,-2,-2,0
1514894359073162,-1,-2,-1,0,-1,1,0,-2
1514894359074663,0,1,0,-2,0,0,-1,-1
1514894359074663,0,1,-1,-3,0,-2,-1,-2
1514894359095702,-1,0,0,-2,-2,-1,0,-1
1514894359095702,-1,-2,-2,-2,-2,0,-2,-2
1514894359097204,-2,-1,-2,-2,-1,-2,-1,-1
1514894359097204,-2,-1,-1,-1,0,-2,-1,-2
1514894359118225,-1,-1,-1,-2,-2,0,-1,-2
1514894359118225,0,-1,-1,0,-1,-2,-2,-1
1514894359119735,-1,-2,0,-1,-2,0,0,-1
1514894359119735,0,0,-1,-2,-2,-2,0,0
1514894359132737,-2,0,-1,0,0,-2,0,0
1514894359132737,-1,-1,-2,0,-1,-1,0,1
1514894359140242,-3,-2,-1,0,-1,-1,0,0
1514894359140242,0,-1,0,-1,-2,0,-1,-2
1514894359155743,-2,-3,-2,-1,1,-1,-2,-3
1514894359155743,-3,-2,-1,-1,-1,-1,-1,-1
1514894359159267,-1,-3,-3,0,-2,0,0,-1
1514894359159267,-2,-1,-3,-1,-3,-3,-1,-1
1514894359178260,0,-2,-1,0,-1,0,-1,0
1514894359178260,-1,-2,0,-1,-1,-1,-1,-1
1514894359181763,-1,1,0,-2,-1,-1,-2,-1
1514894359181763,0,0,-1,-1,0,-1,-1,-1
1514894359194270,-1,1,-2,-2,0,-1,-1,-1
1514894359194270,-2,-3,0,-1,0,-2,0,-3
1514894359197773,-1,-3,-2,-2,-1,0,-2,-2
1514894359197773,-2,0,-1,-1,-1,0,-3,-1
1514894359216289,-2,2,-1,-1,-1,-2,0,0
1514894359216289,0,-2,-1,-2,-2,-2,-2,1
1514894359218288,0,-1,-1,-3,1,-2,1,-2
1514894359218288,-1,0,-1,-2,-1,-2,1,-1
1514894359238359,-1,0,-3,-2,-3,0,0,-3
1514894359238359,-1,-2,0,1,-1,-3,-2,-1
1514894359240804,-2,-2,0,0,0,-2,-2,-1
1514894359240804,-2,-1,-2,-2,-2,-1,-1,0
1514894359252311,-1,1,0,-2,-2,-2,-2,0
1514894359252311,-1,-1,-3,-1,-2,-1,1,-1
1514894359259325,0,-1,1,1,-2,1,0,-1
1514894359259325,0,0,-1,-2,0,-1,-2,0
1514894359275828,-1,-3,0,-2,-2,0,-1,-1
1514894359275828,0,-1,-2,-1,-1,-2,-3,-1
1514894359277329,-1,0,-2,-3,0,-1,-1,-1
1514894359277329,-2,-1,-2,0,-1,-1,0,0
1514894359298344,0,0,-3,-1,-2,-2,-1,-2
1514894359298344,0,-2,-1,-2,0,2,-1,-1
1514894359299855,-1,-1,-2,-1,-2,-1,-1,0
1514894359299855,0,1,-1,-2,-2,-1,-1,-3
1514894359312855,-1,-2,-2,-2,-1,-2,-3,-1
1514894359312855,0,-3,0,0,-1,-2,-3,-2
1514894359319369,0,-3,-1,0,-2,0,-1,-2
1514894359319369,-1,-2,0,-1,-1,-1,0,-1
1514894359335885,-1,0,-1,-2,-1,-1,-1,-1
1514894359335885,-1,-1,1,-1,-2,1,-1,-1
1514894359337386,1,0,0,-1,-1,-1,-2,1
1514894359337386,1,-1,-1,-1,-1,0,-2,-1
1514894359357886,-2,-1,-3,0,-1,-1,-1,-1
1514894359357886,-2,-2,0,-1,-2,-2,0,-2
1514894359364390,-3,-1,1,-1,-2,-2,-1,-1
1514894359364390,-1,-1,-1,-1,-2,-3,-2,-1
1514894359372910,0,0,0,-3,-2,0,-1,-1
1514894359372910,0,-2,-2,-1,-2,-1,-1,0
1514894359380903,0,-1,-1,0,-2,-2,-1,-1
1514894359380903,-1,1,0,1,-1,-1,-1,-1
1514894359403428,0,0,0,0,-1,-2,1,-1
1514894359403428,-1,-2,-2,0,-1,0,-2,-1
1514894359404929,-1,0,-1,-3,-1,0,0,-2
1514894359404929,-1,-1,-1,-2,-2,0,-2,0
1514894359418439,-1,0,0,-3,1,-2,-3,-2
1514894359418439,-3,0,0,-1,0,0,-1,0
1514894359419931,-2,-2,-1,0,0,-2,-1,-3
1514894359419931,-1,0,-2,-2,0,1,-1,-2
1514894359432439,-1,-2,-1,-1,-1,0,-2,-2
1514894359432439,-2,-1,-1,-1,0,-2,-1,-1
1514894359439444,-3,-1,-1,-1,-1,-1,-1,-1
1514894359439444,-2,1,-2,-2,-2,-1,-2,-1
1514894359455955,-2,-1,-2,-1,-3,0,-1,0
1514894359455955,-1,-2,-2,-1,0,-1,-3,0
1514894359458469,-1,-3,-1,0,-1,-2,-1,0
1514894359458469,-1,-1,-1,-1,1,-1,-1,0
1514894359478973,-1,-3,-2,-1,-3,-3,-2,-1
1514894359478973,-1,-2,-1,-1,-3,0,-2,0
1514894359481478,-2,0,-1,1,-1,-2,-1,0
1514894359481478,-1,-1,-1,-1,0,-1,-2,-2
1514894359492491,-1,0,-2,-1,0,0,0,-1
1514894359492491,-1,0,-1,-1,-1,-2,-1,-4
1514894359507495,0,-1,-2,-2,-1,0,-1,-1
1514894359507495,0,0,-2,0,-1,-1,0,-1
1514894359515998,-1,-3,0,-2,-1,-1,0,0
1514894359515998,-2,-2,-1,-2,-1,-1,0,-1
1514894359517499,-1,0,-2,-2,-1,1,-2,1
1514894359517499,1,-1,-2,-1,-3,0,-2,0
1514894359538523,-1,-2,-2,0,-1,-2,-2,-2
1514894359538523,-2,-2,-1,-3,-1,-1,-2,-1
1514894359540515,-2,-2,-1,-1,-1,-1,-1,0
1514894359540515,-1,0,0,-2,-1,0,-3,0
1514894359552537,0,-1,-1,0,2,-1,0,-1
1514894359552537,-1,-2,-2,-2,-2,-1,-1,0
1514894359559552,-2,-1,-2,-2,-1,-1,-2,-2
1514894359559552,-2,0,1,-1,-2,-1,1,0
1514894359575549,0,-1,-1,-1,-1,0,-1,0
1514894359575549,0,-1,-1,-1,-1,-3,0,0
1514894359577551,-1,-1,-1,-1,-1,-2,-2,-1
1514894359577551,-1,-1,-2,-1,1,-2,-2,-2
1514894359598065,-2,-2,-1,-2,-2,0,-3,-2
1514894359598065,0,-2,-1,-1,2,1,-1,0
1514894359600067,0,-2,-2,-1,0,0,-1,-2
1514894359600067,-1,-1,-1,-1,-1,-3,-1,-1
1514894359612069,0,0,-1,-2,-1,-3,-1,-2
1514894359612069,-1,-4,-1,-4,-2,0,-2,-1
1514894359623083,-1,-2,1,-1,-2,-1,1,0
1514894359623083,0,-1,-1,-1,-1,0,-1,-2
1514894359650603,-1,-2,-1,1,0,-1,-1,0
1514894359650603,-2,-2,-1,1,-2,0,-1,-1
1514894359652604,-1,-2,-1,-1,-1,-2,-2,-2
1514894359652604,-2,0,-1,-1,-3,-1,0,-2
1514894359658101,-1,-2,-1,-1,0,0,-1,1
1514894359658101,0,-2,-1,0,0,-1,0,-2
1514894359660100,-1,-2,-1,0,-1,-2,0,-1
1514894359660100,-1,0,0,-1,-2,-2,0,1
1514894359680627,-1,-1,1,-1,-1,-1,-2,-1
1514894359680627,-2,-1,-1,-1,-1,0,-1,1
1514894359684129,-2,0,-1,-1,-1,0,-1,-1
1514894359684129,0,-1,-2,-1,0,0,-1,0
1514894359695636,-1,-1,-1,-2,-2,-2,-1,-2
1514894359695636,-1,-2,0,0,-1,-2,0,0
1514894359697125,-1,0,-2,-2,0,-2,1,-1
1514894359697125,-3,0,-1,-2,0,-1,-1,-1
1514894359718141,-1,-3,-2,0,-2,-4,-1,-1
1514894359718141,-2,-1,-1,-1,-1,0,-1,-2
1514894359719642,-1,-2,-2,1,-1,0,-1,0
1514894359719642,-1,-1,-1,-1,-2,-1,-2,0
1514894359732150,-2,-1,-1,-1,0,0,0,-2
1514894359732150,-1,-3,-1,-1,-2,-1,1,0
1514894359741669,-1,0,-1,0,-1,-1,1,-1
1514894359741669,0,0,0,-1,-1,0,0,1
1514894359755676,-1,-1,0,-1,-2,-1,-2,-1
1514894359755676,-1,-1,-2,1,-1,-2,-1,-1
1514894359758169,-1,-1,0,-1,0,-3,-2,0
1514894359758169,-2,0,0,0,-1,-1,-1,-1
1514894359778201,-1,-1,-2,-2,0,0,-1,1
1514894359778201,-1,-2,-1,-1,-1,1,-2,-1
1514894359780203,0,-1,-2,-1,-1,0,-1,-1
1514894359780203,0,-1,-1,0,-2,-2,-1,-1
1514894359791710,-1,-2,-2,-1,-2,-1,-1,-2
1514894359791710,-1,-3,-2,-2,-2,0,-1,0
1514894359800716,0,-2,1,-3,-3,-1,-1,0
1514894359800716,-1,0,-3,-1,-2,0,-1,0
1514894359815741,0,-1,-1,0,-1,0,0,0
1514894359815741,-2,-3,1,-1,-2,-1,-1,-1
1514894359817246,-2,0,0,0,-1,1,-1,-1
1514894359817246,0,1,0,-1,0,0,0,-2
1514894359838244,-1,-1,-1,-2,-1,0,1,-1
1514894359838244,-1,-1,-1,0,-1,-2,-2,-1
1514894359839745,-1,1,0,-2,-1,-1,-1,-3
1514894359839745,-1,0,-1,-2,-1,-2,-1,-1
1514894359852253,-1,1,-1,-2,1,-1,-1,-1
1514894359852253,-2,-2,-1,-2,-1,-2,-1,-1
1514894359860759,-2,0,-2,1,-1,1,-1,0
1514894359860759,1,-2,-2,-2,0,-2,0,0
1514894359883285,-1,-2,-2,-2,-2,-2,0,-1
1514894359883285,-1,-1,0,-1,1,1,-1,-1
1514894359886787,-1,-1,-1,-2,-1,-2,-1,-1
1514894359886787,-3,-1,-1,-1,-1,0,-1,0
1514894359898298,0,-1,-1,1,-1,-2,-1,-2
1514894359898298,-1,-2,-2,-1,-1,-1,-2,-1
1514894359899786,-2,-2,-1,0,0,0,-1,-2
1514894359899786,-1,1,-2,-2,-1,-1,-2,-2
1514894359912796,-2,-2,-1,0,-1,-2,-2,-2
1514894359912796,-1,-3,-1,0,-1,0,-1,-1
1514894359920801,-2,-1,-1,-1,-2,-1,-1,-1
1514894359920801,0,-1,-1,-4,-1,-3,1,-2
1514894359935812,0,-3,-2,-2,0,-1,0,0
1514894359935812,-1,1,0,-1,1,-2,0,-2
1514894359937318,0,0,-2,-1,0,0,-1,0
1514894359937318,-2,1,0,-1,-3,-1,-1,-2
1514894359958328,-1,-1,0,-1,-2,-1,-1,-1
1514894359958328,-1,-3,-2,-2,-1,-1,-1,-1
1514894359959829,-1,-1,-2,-2,0,-1,0,-1
1514894359959829,0,-1,-2,0,0,-1,-1,0
1514894359971839,-1,-1,-1,-1,-1,0,-2,-1
1514894359971839,0,-1,-1,-1,-1,-2,0,-2
1514894359982858,-1,-1,-1,-1,-1,0,-2,-1
1514894359982858,0,-1,-1,-2,0,-1,-2,-1
1514894359995866,-2,-2,-1,-1,-2,-1,1,0
1514894359995866,-1,-2,1,-2,-1,-1,-1,-2
1514894359997366,-2,1,-3,-1,-1,-1,-1,0
1514894359997366,-1,2,-2,0,-1,0,-1,1
1514894360018370,-1,-1,0,-2,0,-1,-1,-2
1514894360018370,0,-3,-1,0,-1,-1,0,-2
1514894360019871,1,-1,-2,-3,-1,-1,-1,0
1514894360019871,1,-2,-1,-2,0,-2,-1,-1
1514894360040887,-1,-1,-4,-3,0,-1,-2,-1
1514894360040887,-2,-2,-1,-2,-1,-2,0,-1
1514894360042388,-2,0,-1,1,-1,-1,-1,-1
1514894360042388,0,1,-1,-3,-1,0,-1,-1
1514894360063402,0,-1,-1,0,-1,-1,0,-1
1514894360063402,-1,-3,-2,-2,-1,-1,-2,0
1514894360065904,-2,-2,-2,-1,-1,-2,-1,-3
1514894360065904,-2,0,-2,1,-1,-1,-1,-2
1514894360078414,0,-2,0,-1,-2,-1,-1,1
1514894360078414,-1,-2,-1,-2,-2,-1,-2,-1
1514894360081915,0,-1,0,-2,-1,-2,-1,-3
1514894360081915,-3,0,-2,-1,-3,-1,-2,-3
1514894360100945,-1,-2,-3,-1,0,-2,-1,-3
1514894360100945,-2,-1,-1,2,0,1,1,0
1514894360102430,-1,0,-1,0,-2,-3,0,0
1514894360102430,-2,-2,1,-1,-1,-2,0,-2
1514894360115939,-1,-1,-1,-2,-1,-2,-2,0
1514894360115939,0,-2,-1,-1,-2,-2,-2,-1
1514894360117940,-1,1,-1,0,-1,0,-1,0
1514894360117940,-1,-1,-2,-1,-2,-1,-1,-1
1514894360138463,-1,-2,0,0,-1,0,-1,-1
1514894360138463,-1,-1,1,-2,-1,-1,-2,-3
1514894360140967,-1,0,-1,0,-1,-2,0,1
1514894360140967,0,-2,-1,0,-1,-2,0,0
1514894360160982,1,-1,-1,-3,-2,-1,-1,-2
1514894360160982,-1,-1,-2,0,-1,-1,2,-2
1514894360162476,-2,1,-1,0,0,0,-1,-1
1514894360162476,0,0,-2,-1,0,0,-3,1
1514894360176004,0,1,-2,0,-2,-1,-2,-2
1514894360176004,-1,-2,-1,1,-1,0,-1,-1
1514894360177492,-1,0,-2,-3,-1,0,-1,-1
1514894360177492,0,0,0,0,-1,0,-1,-1
1514894360199498,-2,-1,-2,-2,-2,0,-2,0
1514894360199498,-1,-1,-2,-1,-2,0,-1,-1
1514894360200999,-1,-1,0,0,-2,-1,0,0
1514894360200999,-1,-2,-1,-1,-2,-1,-1,-1
1514894360220514,-3,-4,-2,0,0,-1,-1,0
1514894360220514,-2,-3,-2,-1,-1,-2,-3,-1
1514894360222527,-1,0,0,-3,-1,-1,0,-1
1514894360222527,-1,1,0,0,0,-1,-2,-2
1514894360235024,0,0,0,0,0,1,0,0
1514894360235024,-1,-2,0,-2,-1,-2,-1,-1
1514894360242029,-1,0,-3,0,-2,-2,-1,0
1514894360242029,-1,1,0,-2,-2,-2,-1,0
1514894360258052,0,-2,0,-2,-1,-1,1,-2
1514894360258052,-2,-2,-2,1,-1,-1,-1,0
1514894360260053,-2,1,-2,0,0,-1,-3,0
1514894360260053,-2,1,-3,-1,-1,0,-2,0
1514894360280555,0,-3,-2,-1,-2,0,-2,0
1514894360280555,0,-3,-1,0,-1,0,-2,-1
1514894360282557,0,-1,-1,-1,-1,1,0,-2
1514894360282557,-1,-1,-1,-3,-1,0,1,-1
1514894360295067,0,-1,0,-2,0,-2,-2,-2
1514894360295067,-1,-3,1,-1,0,-1,0,-1
1514894360302071,-1,-1,-1,-1,-2,-3,0,-2
1514894360302071,-1,-1,-1,1,-2,1,1,-2
1514894360318082,-1,-2,-1,-2,-1,-2,0,0
1514894360318082,-2,-2,0,-2,0,0,0,-2
1514894360319583,0,-1,0,-2,0,-1,-1,-2
1514894360319583,-2,0,0,-1,-1,-1,-1,0
1514894360341599,-1,-1,-1,-1,-1,0,-1,-1
1514894360341599,-1,-1,-2,-1,1,-1,-2,1
1514894360343100,-1,-1,1,-1,-2,-2,-3,-1
1514894360343100,-1,0,-2,-2,-2,-3,0,-2
1514894360355110,-1,-2,-2,1,-1,-1,-3,-4
1514894360355110,-1,-2,-2,-2,-2,0,-1,-1
1514894360362116,0,-1,-2,0,-2,-1,1,-1
1514894360362116,0,-1,-3,-2,-1,0,0,-1
1514894360378625,-1,-1,0,-1,0,-1,1,-1
1514894360378625,-3,-1,-1,-1,-3,0,0,-1
1514894360381627,-1,1,-1,-1,-3,-2,-1,0
1514894360381627,0,1,-1,0,-2,-1,-1,0
1514894360400640,0,-1,-2,-2,-1,-1,0,-2
1514894360400640,-1,-2,-2,-1,-1,-3,-1,-4
1514894360402642,1,-1,0,-1,0,0,0,-2
1514894360402642,-1,1,-2,-2,0,-1,0,-1
1514894360414150,-2,-3,-1,-2,0,-2,0,-1
1514894360414150,-2,-2,-1,1,0,-2,0,-1
1514894360430662,-2,-1,-2,-1,-1,0,-1,0
1514894360430662,0,1,-1,-1,0,-2,-1,-2
1514894360438167,-1,-2,0,-1,-1,-1,-2,0
1514894360438167,-1,-2,-1,0,-3,1,-1,1
1514894360439668,-2,0,0,-1,-1,-2,-2,0
1514894360439668,0,1,-1,-1,-1,-2,-1,0
1514894360460698,-2,0,-1,-1,-1,0,0,-1
1514894360460698,-1,-1,-1,-2,-2,-1,-1,-2
1514894360462686,-2,1,-3,-2,0,-1,-2,-1
1514894360462686,0,0,-1,-3,0,-2,-1,0
1514894360475704,0,-2,-2,-1,0,-2,-1,-1
1514894360475704,-1,-3,-1,-2,-1,-1,-1,-2
1514894360481708,-2,-1,-2,0,-1,-3,-1,-2
1514894360481708,-2,-2,-2,-1,-2,0,-1,-1
1514894360499211,-1,-1,-1,-2,-2,-2,0,-2
1514894360499211,-2,-1,-1,-1,0,-1,-1,-2
1514894360501226,-1,1,-2,-1,0,-1,-1,-1
1514894360501226,-2,1,1,1,-1,-2,-1,-2
1514894360520728,0,-2,1,-2,0,-1,0,0
1514894360520728,-2,-2,0,0,-2,-3,-2,1
1514894360522227,-2,-1,-1,-2,-1,-2,0,-2
1514894360522227,-2,0,-3,-2,-1,-1,-1,-1
1514894360534268,-1,-2,0,-1,-1,0,-2,-1
1514894360534268,0,-3,1,0,-1,-1,-1,0
1514894360543241,-2,-1,-2,-1,-2,0,-3,-2
1514894360543241,-1,1,-1,0,-1,-1,-2,-1
1514894360558262,0,-2,-2,-2,-3,-2,-2,-2
1514894360558262,0,-1,-2,0,-1,-1,0,1
1514894360559754,-1,1,-3,-1,-1,1,1,0
1514894360559754,0,2,-2,-2,-1,-1,-1,0
1514894360580767,-1,-1,-1,-1,-2,0,-2,1
1514894360580767,-1,-4,-2,-2,0,-2,0,-1
1514894360582268,2,0,0,-2,-2,-3,-2,-2
1514894360582268,-1,-1,-1,-1,1,-1,-1,-3
1514894360594277,-1,-1,-2,0,-1,-2,-2,0
1514894360594277,-2,-3,-1,-1,-2,-2,-1,-2
1514894360619295,-2,-1,-1,-2,-2,1,-2,1
1514894360619295,0,0,-1,-1,-1,-2,0,-2
1514894360620295,-1,-2,-2,-1,0,-2,-1,-3
1514894360620295,-2,-1,-2,-3,1,-1,0,-1
1514894360624299,-2,-1,-1,-1,0,-2,2,1
1514894360624299,1,-1,0,-2,-1,-1,-1,1
1514894360640823,-1,-2,-1,-1,0,1,1,0
1514894360640823,1,-2,-1,-1,-1,-2,-1,-1
1514894360642324,-3,-1,1,-1,0,-1,-2,-2
1514894360642324,-1,0,-1,0,-3,-1,-1,0
1514894360654329,-1,0,-1,-1,-1,-3,1,-2
1514894360654329,-2,-1,-1,-2,-1,0,-1,-2
1514894360663826,-1,0,-2,-1,-2,-1,-3,-3
1514894360663826,-1,0,-1,-1,-2,-2,-3,-2
1514894360678337,-1,0,-1,0,-1,1,-2,-3
1514894360678337,0,-2,1,-2,-1,-1,-1,-1
1514894360679838,1,-1,1,-3,-2,-3,-1,-1
1514894360679838,0,1,-3,-2,0,-2,-1,-1
1514894360701353,0,-4,-1,0,0,0,0,0
1514894360701353,-1,-1,-1,0,-2,-2,-1,0
1514894360703855,-1,0,-1,-1,-2,0,-1,0
1514894360703855,0,0,0,-1,0,0,-1,0
1514894360714362,0,-1,-2,-1,0,0,-2,-1
1514894360714362,-4,-2,0,-1,0,-1,-2,-1
1514894360725369,-1,-1,-1,-1,0,-2,0,-3
1514894360725369,0,0,-1,0,-3,-2,1,-2
1514894360738379,-2,-3,-1,-2,-2,-3,-1,-2
1514894360738379,-1,-3,-1,-2,-2,0,-1,0
1514894360739880,0,0,-2,-2,-1,-1,0,-1
1514894360739880,-2,0,-2,-1,-1,-2,-2,-3
1514894360760895,-1,-3,0,-2,-1,-3,-2,-1
1514894360760895,-1,-2,0,0,-1,1,-1,0
1514894360763397,1,0,-2,0,-1,-1,-1,-1
1514894360763397,0,0,-1,-2,-2,-2,2,-1
1514894360774405,0,-3,-1,-1,-2,-1,-1,0
1514894360774405,2,-1,-1,0,-2,-3,-1,-1
1514894360783411,-1,-1,-1,-1,-2,-1,-1,-1
1514894360783411,-3,0,-1,0,0,-2,-1,-1
1514894360798431,-2,-1,-3,-1,0,-1,-1,-2
1514894360798431,-1,-1,-1,-1,0,0,0,-1
1514894360799932,-1,-2,0,0,-1,-1,0,2
1514894360799932,-1,0,1,-2,-1,-2,-1,-1
1514894360820437,0,-1,0,0,-1,-1,0,-1
1514894360820437,-1,-3,-2,-3,0,-1,-1,-1
1514894360822438,0,0,-4,-3,-1,-2,-1,0
1514894360822438,-2,-1,-1,-2,-2,-1,0,-2
1514894360834456,-2,-2,-1,-2,-2,-1,0,0
1514894360834456,-1,-1,-1,-1,-3,-1,-2,-3
1514894360843463,-1,1,-2,0,0,-1,-1,-2
1514894360843463,0,-2,-2,-2,-1,-1,-2,-1
1514894360858464,-1,-1,0,0,-2,-1,-1,-1
1514894360858464,-1,-2,1,1,0,0,-1,-1
1514894360859965,-2,-1,-2,-2,-2,0,0,0
1514894360859965,1,-2,-1,-1,0,0,-1,0
1514894360880982,-1,-2,-2,-1,-2,0,-1,-2
1514894360880982,-1,-2,-1,-1,-1,0,-2,0
1514894360882481,-1,-1,-2,-2,1,-2,-2,-1
1514894360882481,-1,1,-2,-1,0,1,-2,-2
1514894360895014,0,-1,-1,-2,-2,1,-2,-2
1514894360895014,-2,-1,-2,-2,0,-2,1,-2
1514894360903496,1,0,-2,0,0,0,0,0
1514894360903496,-1,1,0,-2,-2,0,0,-1
1514894360918522,0,-2,1,-2,-1,-1,-2,-2
1514894360918522,-2,-4,-3,-2,-2,0,-2,0
1514894360920024,-1,1,1,0,-1,0,-1,0
1514894360920024,-1,0,-1,-2,-1,-1,0,-1
1514894360948028,0,-1,-1,0,-1,-1,-1,0
1514894360948028,0,-2,-1,-2,-1,-1,-1,0
1514894360950532,-1,0,0,-2,-2,-1,-1,-1
1514894360950532,0,1,-1,-2,0,-1,-1,1
1514894360954533,-2,0,1,-2,-3,0,-1,-1
1514894360954533,-1,-4,-1,-1,-3,0,-1,-2
1514894360963539,-1,-1,-1,-1,-2,-2,-2,-1
1514894360963539,-1,1,-2,-1,-1,-1,0,-1
1514894360978048,-2,-2,-2,-1,0,-1,-1,0
1514894360978048,0,-2,-2,0,1,-1,-1,-1
1514894360980050,0,0,0,-1,-1,0,-1,-2
1514894360980050,-1,-1,0,-1,-1,-1,-1,-1
1514894361000564,-1,-3,-3,1,0,-1,-1,-2
1514894361000564,-2,-1,-1,-2,0,0,0,0
1514894361002565,0,0,-3,-1,-2,0,0,0
1514894361002565,-1,0,-3,0,-1,-2,-2,0
1514894361024081,-2,-3,-2,-2,-1,0,-2,0
1514894361024081,-2,-2,-2,0,-1,0,-1,-1
1514894361029585,0,0,0,2,-1,-1,-1,0
1514894361029585,-2,0,0,0,-2,-1,1,0
1514894361038091,0,-1,-1,1,-2,-2,-1,-1
1514894361038091,0,-1,-3,-1,-1,-2,-1,-1
1514894361040092,-1,0,-1,-1,-2,-2,0,-4
1514894361040092,-1,1,0,-1,-1,0,-2,-1
1514894361060606,-2,-2,-1,-2,0,-2,-1,-1
1514894361060606,0,0,-1,0,0,0,-1,0
1514894361062610,-1,0,-1,-2,-2,-1,-2,-1
1514894361062610,0,-1,-3,-1,-1,-2,-2,-1
1514894361091631,1,-2,-2,-1,0,-2,0,1
1514894361091631,-1,-3,0,-2,-1,0,-1,0
1514894361095131,-1,-2,-1,-1,-1,-1,-2,-1
1514894361095131,-1,1,-1,-1,-3,-2,-1,-1
1514894361099134,-1,-1,1,-2,-2,-2,0,0
1514894361099134,0,-2,-1,0,1,-1,-1,-1
1514894361102636,-1,1,-2,-2,0,1,-2,0
1514894361102636,-1,0,-1,-1,0,-1,-1,-2
1514894361120651,-2,-3,-1,-3,-1,-2,-1,-4
1514894361120651,-2,-2,-1,-1,-1,-1,-2,-2
1514894361122150,-1,0,0,0,0,2,0,-1
1514894361122150,0,1,-1,0,0,-3,-1,1
1514894361143167,-1,-1,-2,0,0,0,-1,0
1514894361143167,-1,-2,0,-2,0,-2,0,0
1514894361144666,-2,-1,0,-2,-1,-3,-2,0
1514894361144666,-1,1,-1,-1,-1,0,0,-1
1514894361158176,-1,-1,-1,0,-2,0,-3,-1
1514894361158176,-1,-3,-1,-1,-2,-2,-1,-3
1514894361171706,-1,0,-2,-1,0,0,-2,0
1514894361171706,-1,0,-2,-1,-2,-1,-1,-2
1514894361180701,-2,-1,-1,-2,0,1,-1,0
1514894361180701,-1,-2,0,-1,-2,-1,-1,-3
1514894361182203,-2,-2,0,-2,0,-3,-1,-2
1514894361182203,0,-1,-1,-3,-2,0,-1,-2
1514894361203207,-2,-3,-1,0,-1,-1,0,0
1514894361203207,1,-2,-1,-1,-1,0,-1,-3
1514894361204709,0,-1,-2,0,-1,-2,-1,-3
1514894361204709,0,0,0,-2,-1,-2,-2,-1
1514894361217718,0,-1,-1,-2,-2,-2,-2,-1
1514894361217718,-2,-2,-1,-1,-2,-1,1,0
1514894361224222,-1,0,-2,-2,0,-2,-2,0
1514894361224222,0,-2,-2,1,1,0,1,1
1514894361240734,-1,-4,1,0,-1,-1,0,0
1514894361240734,-1,-3,-1,-1,-1,-1,-1,0
1514894361242235,-1,-1,-1,-3,-1,-1,-1,-2
1514894361242235,-2,-1,-2,-2,-2,-3,-1,0
1514894361263254,-1,-2,-1,-2,0,-2,-1,-2
1514894361263254,-1,-3,-2,-1,-1,-3,-2,-1
1514894361265752,0,-1,-1,-1,0,-3,-1,-3
1514894361265752,0,0,-2,-2,-1,-2,0,-2
1514894361277260,0,-2,-3,-2,-2,-2,0,-3
1514894361277260,-4,-2,0,0,-1,-1,-2,0
1514894361291774,-2,2,-2,0,-1,-1,-1,-1
1514894361291774,-1,1,-2,-1,-1,0,-1,-1
1514894361300276,0,-2,-2,0,-2,0,-1,2
1514894361300276,0,-1,-3,0,-1,0,-1,-1
1514894361306781,-1,-1,0,-3,-4,-3,-1,0
1514894361306781,-1,0,0,-3,-2,-1,-2,-2
1514894361324293,-2,-3,-1,0,-2,0,-1,-1
1514894361324293,-1,-2,-1,-1,0,-1,-1,-1
1514894361327796,-1,0,0,-2,0,-1,-1,-1
1514894361327796,-1,1,-2,-2,-1,-1,0,-1
1514894361337302,-1,-2,-2,-1,1,-1,-1,-1
1514894361337302,-2,-4,-1,-2,-1,-2,-1,0
1514894361344308,-3,-1,0,0,0,-1,0,0
1514894361344308,0,-1,-2,-1,1,0,-1,-1
1514894361360826,-1,-1,-2,-2,-1,-2,-2,-2
1514894361360826,1,-1,-1,0,-1,-2,-2,1
1514894361362323,-1,-1,0,0,0,0,-2,-1
1514894361362323,-2,0,0,-1,-1,-2,-2,-1
1514894361383336,-2,-2,1,-1,-2,-1,-1,1
1514894361383336,-1,-4,-1,-3,0,-1,-1,0
1514894361384837,0,0,-2,-2,-1,-1,-1,0
1514894361384837,0,1,-1,-1,-2,-2,-1,-2
1514894361398347,0,-2,-3,1,-2,0,-1,0
1514894361398347,1,-2,-1,0,-2,1,0,-2
1514894361404851,0,0,-2,0,-2,0,0,-1
1514894361404851,0,1,-1,-1,-1,-2,-2,-1
1514894361420862,-2,-1,0,-3,-1,-1,-1,1
1514894361420862,-1,-1,1,2,-1,-1,0,-1
1514894361422363,-1,-2,-2,-1,-2,-1,1,-2
1514894361422363,0,0,-3,-1,0,-1,0,-1
1514894361450884,0,-1,-1,-1,-1,-2,-1,-2
1514894361450884,-1,-1,-1,-3,-1,0,-1,0
1514894361452888,-2,1,-1,-1,-1,-2,-2,-1
1514894361452888,-1,-1,-1,-1,-2,0,-1,-1
1514894361457387,-1,-2,-2,-1,0,0,-1,-1
1514894361457387,-2,-2,-2,-1,-1,-1,-1,-2
1514894361465397,0,0,-3,0,1,-1,-1,-1
1514894361465397,-2,-1,-2,-3,-1,-1,0,-2
1514894361481406,-1,-2,0,-1,0,-3,-1,-4
1514894361481406,-2,-2,-2,0,-1,-1,-2,-1
1514894361484909,-3,-1,-2,0,-2,0,0,-1
1514894361484909,-2,-2,-1,1,-1,1,-1,1
1514894361503420,-1,-1,-1,-1,2,-1,-1,0
1514894361503420,-2,0,0,-1,-1,-1,-1,0
1514894361504924,0,2,-1,-2,-1,-2,-1,0
1514894361504924,-1,0,-1,-1,-2,1,0,0
1514894361517438,-1,-1,0,-3,-1,1,-1,0
1514894361517438,-1,-3,-1,-1,-1,-2,-2,-1
1514894361525935,-2,0,-3,0,-2,-1,0,-1
1514894361525935,-1,-1,0,0,-1,-3,0,-1
1514894361540950,-2,-3,-1,-2,-2,-2,-1,-1
1514894361540950,0,-3,-1,-1,1,-2,-1,-1
1514894361542448,0,-2,-1,-3,-1,0,-1,-1
1514894361542448,0,0,-2,-1,-1,-3,-3,-2
1514894361563464,-1,0,-1,1,-1,-1,-2,-1
1514894361563464,-2,-2,-1,0,-1,-1,-1,-1
1514894361564979,0,-2,0,-1,0,-1,-1,-2
1514894361564979,-3,0,-2,-2,-1,-1,-1,-2
1514894361576974,-1,-1,-2,-2,-1,-2,-1,0
1514894361576974,-1,-2,-1,-2,-1,1,-1,-1
1514894361586979,-1,-1,-1,0,0,-2,-2,-1
1514894361586979,0,-2,-2,-1,0,-2,-2,-1
1514894361600989,0,-2,-1,0,-2,-1,0,-3
1514894361600989,-3,-1,-3,-1,0,0,2,0
1514894361602492,-2,-1,-2,0,-2,-1,0,-2
1514894361602492,-1,-1,-2,-1,-1,-2,-1,-2
1514894361623005,-1,-3,0,0,0,-1,0,-2
1514894361623005,-1,-1,1,0,-2,-2,-2,-2
1514894361624506,-1,1,0,0,-1,-2,-2,-2
1514894361624506,-2,0,-2,0,-1,-2,-2,-2
1514894361638014,-1,-1,-1,0,-2,-1,-1,-1
1514894361638014,-2,0,-1,-2,-1,1,-2,-1
1514894361653527,0,-1,-1,-2,-2,-1,-1,0
1514894361653527,-1,-1,-1,-1,-2,-3,0,0
1514894361660531,-2,-2,-2,-1,0,-2,-2,-2
1514894361660531,-1,-2,0,-1,-1,0,-2,1
1514894361662534,1,0,-1,-2,-1,-2,0,-2
1514894361662534,-1,0,0,-1,-1,-1,1,-2
1514894361683548,0,-2,-3,-2,0,-1,-2,-1
1514894361683548,1,-1,0,-2,-1,-2,-1,-1
1514894361685052,-2,-2,0,0,-2,-1,1,0
1514894361685052,-1,0,-2,0,-2,-1,-1,-1
1514894361697058,-2,0,-2,-1,-2,1,0,0
1514894361697058,-2,0,-3,0,0,-1,-2,-2
1514894361707064,0,0,-2,-1,-1,0,0,-2
1514894361707064,0,-1,-1,0,-1,-2,0,-1
1514894361728078,-1,-1,-2,-2,-1,-1,-1,0
1514894361728078,-1,-2,0,-2,0,0,-2,-1
1514894361730082,0,0,-2,-1,-2,-1,0,1
1514894361730082,-2,-1,-1,-1,-2,0,-2,0
1514894361744096,-1,-2,-1,1,-2,-2,0,0
1514894361744096,-2,-3,-2,-1,-2,-1,0,-1
1514894361745592,-2,0,-1,-2,-1,-1,-3,-3
1514894361745592,-1,-2,-1,-2,1,0,-2,-2
1514894361757104,1,-2,0,-1,-2,0,-1,0
1514894361757104,-2,-2,-3,0,-3,-1,0,-2
1514894361772115,-2,1,-1,-1,-1,-2,-1,0
1514894361772115,-2,0,-2,-2,-1,-1,0,1
1514894361781618,0,-2,-1,-2,-1,0,0,0
1514894361781618,-1,-1,1,-2,0,0,-2,-1
1514894361783119,0,-1,-1,0,1,0,-2,-2
1514894361783119,-1,0,-2,-1,-2,0,-1,-1
1514894361803636,-2,-1,-2,0,-1,-1,0,-2
1514894361803636,-2,-1,-2,1,0,1,-2,0
1514894361805136,-2,0,-2,0,-1,0,0,-1
1514894361805136,-1,-1,-2,-2,-2,-1,0,0
1514894361817142,-1,-1,-1,-1,-1,-2,-2,1
1514894361817142,-1,-3,0,-2,0,-1,-1,-1
1514894361825647,-1,-1,-1,-2,-1,0,-2,-1
1514894361825647,1,-2,-1,-2,0,0,1,-2
1514894361841661,-1,-2,-1,-2,-2,-2,0,-1
1514894361841661,-1,-1,0,-1,-2,-2,1,0
1514894361845163,0,0,-2,-1,-1,-1,0,1
1514894361845163,-2,0,-2,0,-2,-1,0,0
1514894361863176,-4,-2,0,0,-2,2,-1,-2
1514894361863176,-1,-2,-1,-2,-2,-1,-1,-2
1514894361865676,-3,-1,-1,0,-1,-2,-1,-3
1514894361865676,-1,-3,-1,-2,1,-1,0,0
1514894361876684,-2,-2,0,-1,1,-2,-1,-2
1514894361876684,-1,0,-1,-2,-2,-1,-1,-1
1514894361885692,-2,-2,-2,-2,-2,-1,-1,0
1514894361885692,-1,-1,-1,-2,0,0,-1,-1
1514894361901200,-3,-3,-1,-1,0,0,-1,0
1514894361901200,-1,-1,-1,-1,0,-2,1,-1
1514894361903702,0,0,-1,-1,-1,-1,-2,-2
1514894361903702,0,0,0,-1,0,-3,-2,-2
1514894361923716,1,-2,-2,0,-1,-1,0,-1
1514894361923716,-2,-1,0,1,1,0,-2,-2
1514894361925217,-1,1,-1,-1,-2,-3,-1,-2
1514894361925217,-1,0,-1,-1,-1,0,-1,-2
1514894361946734,-2,-1,-3,-4,-1,-1,0,-2
1514894361946734,-1,-1,-1,0,0,-1,-1,1
1514894361948233,-3,0,-2,0,-1,0,-1,1
1514894361948233,0,-1,-2,-1,0,0,-1,-2
1514894361960242,-1,-3,-2,0,-1,-2,-1,0
1514894361960242,-1,-3,-1,-1,-2,-1,-1,-1
1514894361966747,0,-2,-1,-2,-2,-1,-2,-3
1514894361966747,0,-1,0,0,-2,-2,0,0
1514894361983258,0,-1,-1,-1,-1,-1,-1,0
1514894361983258,-2,-2,-1,0,0,-1,0,-2
1514894361984772,0,0,0,0,-1,0,-1,0
1514894361984772,-2,-1,-1,0,-2,-1,-2,-2
1514894362006284,0,-2,-1,-2,-2,-3,0,-1
1514894362006284,-1,0,-3,0,-1,0,-1,-1
1514894362007776,-1,-1,-3,-2,-1,-1,-2,0
1514894362007776,-3,0,0,-1,-1,-3,0,-2
1514894362020785,-2,-2,0,-1,-1,0,-2,-2
1514894362020785,0,-1,0,0,-1,-1,-1,0
1514894362022287,1,-1,-1,0,-1,0,-1,1
1514894362022287,-1,-1,0,0,-1,0,-3,-1
1514894362043304,-2,-1,0,0,-1,-1,-2,-2
1514894362043304,-1,0,-1,-1,-2,-2,-1,-3
1514894362044803,-2,-1,-1,-3,-1,0,-1,-1
1514894362044803,-1,-2,-2,-1,-1,0,-1,0
1514894362065817,-2,-2,-2,-3,1,-1,-1,-1
1514894362065817,-1,-1,-3,-2,-1,-1,-1,-2
1514894362068319,-1,0,-2,-1,-1,-1,-1,-2
1514894362068319,1,1,0,-2,0,0,-1,-1
1514894362080829,-1,-2,-1,1,-1,-1,-2,-3
1514894362080829,-1,-1,0,-2,-1,-1,-2,0
1514894362086832,-1,-1,-1,0,-1,-1,-1,-1
1514894362086832,-2,-1,-2,-1,-4,-1,-3,0
1514894362103344,-1,-2,0,-1,-1,-1,-1,-1
1514894362103344,1,-1,-1,1,-1,-1,0,-1
1514894362104860,-1,1,-1,-1,0,0,0,-2
1514894362104860,-2,-2,0,-1,-1,-2,-1,-2
1514894362125416,0,-3,0,-1,-3,0,0,0
1514894362125416,-1,-1,-2,-2,-2,-1,-2,1
1514894362127373,-1,0,-2,0,-1,0,-1,-2
1514894362127373,1,-1,-2,-2,-1,0,-1,0
1514894362139879,0,-2,-1,-1,-2,0,-1,1
1514894362139879,-1,-2,-1,0,0,-1,-1,-1
1514894362146893,0,0,-1,-1,-1,0,0,-1
1514894362146893,-1,-1,-3,-1,-1,0,0,-2
1514894362163387,-2,-2,-1,-2,0,-1,-3,0
1514894362163387,-1,-3,-1,-1,-1,-2,0,0
1514894362164887,0,0,-1,0,-1,-2,1,-1
1514894362164887,-1,-2,-2,0,-1,-2,0,0
1514894362185403,-2,-1,0,-1,0,-1,0,-2
1514894362185403,-2,1,-2,-1,0,-1,0,-2
1514894362187404,-1,-1,0,0,-1,0,-2,0
1514894362187404,0,0,-1,-1,-1,-1,0,-2
1514894362199914,0,0,-1,-1,-2,-3,-2,0
1514894362199914,-1,1,0,1,-1,-1,-1,-1
1514894362206918,-2,-1,-2,0,-1,-2,-1,0
1514894362206918,0,-3,-1,-2,-1,0,-1,-1
1514894362223465,-2,-2,-2,-1,-1,-1,0,-2
1514894362223465,-1,0,0,-1,-2,0,-1,1
1514894362226952,1,-1,-2,0,-3,-1,-2,-1
1514894362226952,-2,-1,-2,0,-1,-2,-2,-1
1514894362245944,0,-2,-1,0,-1,0,-2,-3
1514894362245944,-1,0,-1,0,-1,-2,0,-2
1514894362247448,-3,1,0,-2,-2,-2,-1,0
1514894362247448,0,-3,0,-2,-1,-1,-1,0
1514894362259957,-2,-1,-2,-1,0,0,0,-1
1514894362259957,0,-2,-1,0,-1,-1,0,-3
1514894362266959,0,-1,-2,-1,0,-3,-1,-1
1514894362266959,-1,-1,-1,-2,-2,0,0,-2
1514894362283472,-1,-2,-1,0,-1,1,-1,-1
1514894362283472,0,-1,-2,0,-1,1,-1,-2
1514894362289502,-2,-1,0,-2,0,-1,0,-1
1514894362289502,0,-1,0,-1,1,-2,-1,0
1514894362305518,-1,-1,0,-2,-2,-2,0,0
1514894362305518,0,0,1,-2,-1,-2,-1,-1
1514894362308531,1,0,0,0,-1,-1,0,-2
1514894362308531,-1,-2,-2,-1,-2,0,-1,-2
1514894362320026,-3,-1,-1,-1,-1,1,-1,1
1514894362320026,-2,0,-2,-1,-1,0,-3,0
1514894362326530,0,-1,-2,-1,1,0,-1,-1
1514894362326530,-1,-2,-1,-1,-1,-2,-2,-1
1514894362343070,0,-4,-2,-1,-1,-1,0,-1
1514894362343070,-2,-2,-1,-1,-3,0,-1,1
1514894362345070,-2,0,-1,0,-4,-2,-1,-1
1514894362345070,-1,-2,-2,-1,-1,0,0,0
1514894362366584,-3,-2,-3,0,-1,-1,0,0
1514894362366584,0,0,-1,0,-1,-2,-1,-2
1514894362368086,-2,0,-2,-1,-1,0,-2,0
1514894362368086,-1,-2,-3,-2,-2,-1,-1,-2
1514894362381595,0,-3,0,-2,1,-3,-3,-2
1514894362381595,-2,-2,-1,-1,-1,-1,0,0
1514894362387098,-2,2,-1,-1,-1,-1,-1,-1
1514894362387098,0,-1,-1,1,-2,-1,-1,-2
1514894362403110,0,0,0,0,0,0,-1,0
1514894362403110,-2,0,-1,0,-2,-1,0,-1
1514894362405111,-2,-3,-2,-2,1,0,-1,0
1514894362405111,-2,0,-1,-3,-1,-1,-2,-1
1514894362425648,-1,0,-1,0,-3,-2,-2,-1
1514894362425648,-1,0,-2,-1,0,0,0,-3
1514894362427628,-2,0,-2,-1,-1,-1,-2,-2
1514894362427628,-1,-2,-1,-1,0,-2,1,0
1514894362439135,-1,-3,-3,-1,0,-1,-2,0
1514894362439135,-1,-1,0,-2,-1,-2,-1,-2
1514894362448141,0,-1,1,-2,-3,-1,-1,0
1514894362448141,0,0,-2,-2,-1,0,0,-1
1514894362463155,-1,-1,-2,-1,-2,0,1,0
1514894362463155,-2,0,0,-2,0,0,-1,0
1514894362464661,-1,0,-2,0,0,0,0,-1
1514894362464661,-1,-1,0,-2,1,-1,-2,-2
1514894362486170,-2,-3,1,0,0,-1,-1,-2
1514894362486170,-1,-1,0,-1,1,-2,-1,0
1514894362487671,-1,-1,-1,-1,0,-2,0,-1
1514894362487671,-1,1,0,0,-1,-1,-1,0
1514894362499179,-1,0,-1,0,0,-1,-2,-3
1514894362499179,-1,0,-2,-1,-2,0,0,-1
1514894362508185,-1,-1,0,-1,-1,-1,-1,-1
1514894362508185,0,-2,-2,-1,-2,-2,-1,0
1514894362523194,-1,-2,-2,0,-2,0,-1,-1
1514894362523194,-1,-2,-3,1,-2,0,-1,-1
1514894362524697,0,0,-1,0,-1,0,-2,-2
1514894362524697,-1,-3,-1,-2,-2,-1,-1,-1
1514894362561267,-2,-2,1,-2,-1,-1,-1,0
1514894362561267,-3,0,-1,0,0,0,-2,-1
1514894362563258,0,1,-2,-1,-2,-2,-1,0
1514894362563258,-1,1,-1,-2,-1,-2,-2,-1
1514894362563757,-1,-1,0,-1,0,1,0,-1
1514894362563757,-2,0,1,0,0,-2,-1,-2
1514894362568256,0,-1,-1,-2,-1,1,-3,0
1514894362568256,-2,0,-1,1,-1,-2,-1,-2
1514894362583277,-1,-2,-1,-2,-1,-3,1,-1
1514894362583277,-1,-2,-1,-2,-2,-2,-1,0
1514894362584778,-1,-1,0,-2,-1,-3,0,-1
1514894362584778,-2,-2,-2,-2,-1,1,1,-1
1514894362605783,-2,-2,-1,-1,-1,-1,0,-3
1514894362605783,-2,-2,0,0,-1,-1,-1,-1
1514894362612790,-2,1,-1,-1,-1,0,0,-1
1514894362612790,-1,0,-2,-1,-1,-1,0,-2
1514894362619293,0,-3,-1,0,-1,-1,-1,-1
1514894362619293,-1,0,-1,-1,-1,0,-3,-2
1514894362628299,-1,0,-1,-2,0,-1,-1,-1
1514894362628299,-1,-2,-1,-2,-1,0,0,-2
1514894362643309,-1,-1,-3,0,-2,1,-1,-2
1514894362643309,0,0,-1,-1,-2,1,1,-2
1514894362644811,-1,1,-3,-1,-2,-2,1,-1
1514894362644811,0,-1,0,0,-1,-2,-1,-1
1514894362665825,0,-1,-1,-2,-3,-1,-1,0
1514894362665825,-2,0,-2,-1,-2,-4,0,-1
1514894362667327,0,0,-1,-1,-1,0,1,-2
1514894362667327,1,-1,1,-1,-1,-2,-1,-1
1514894362679341,-2,-2,-1,-3,1,-1,-1,-1
1514894362679341,-4,-1,-1,-1,0,-4,-4,-3
1514894362688342,2,3,0,1,0,-2,-1,0
1514894362688342,-1,-3,-3,-2,-1,-1,0,4
1514894362711861,-3,-5,-2,-1,-1,-1,-2,-1
1514894362711861,1,-1,-2,0,-2,0,1,2
1514894362715361,-5,-4,-1,0,-1,0,0,-1
1514894362715361,1,-5,-4,-2,0,-1,-3,-1
1514894362733388,-1,0,-3,-1,-2,-1,-1,-4
1514894362733388,-3,-1,-2,-2,-3,-1,-2,-6
1514894362734884,0,1,-1,0,-2,-2,-2,-1
1514894362734884,0,4,4,6,1,0,0,2
1514894362739392,-4,-5,-4,0,-2,-2,-1,1
1514894362739392,-4,-4,-4,-6,-1,0,0,-2
1514894362748384,-3,-3,0,1,-2,-2,-1,-4
1514894362748384,0,-2,-3,-3,-3,-2,-1,-3
1514894362763444,0,3,3,4,0,-1,0,0
1514894362763444,6,4,-4,-1,0,-1,1,2
1514894362765444,-3,-2,-3,-4,-2,-1,-2,-4
1514894362765444,-6,-4,-2,-2,-1,0,0,1
1514894362785460,0,-2,-4,-2,0,0,0,0
1514894362785460,-1,0,0,-1,-1,-1,-1,0
1514894362787461,5,3,-2,-2,-1,-1,-2,0
1514894362787461,1,-3,-3,-3,-1,-2,-3,-5
1514894362799479,0,-7,-1,-4,-2,0,-2,-1
1514894362799479,0,1,-1,-1,0,0,1,1
1514894362808476,2,4,-2,0,1,0,-1,0
1514894362808476,1,2,-3,-1,-2,-1,-3,-5
1514894362822995,0,-4,-2,-5,0,0,1,3
1514894362822995,-16,-8,3,5,-1,-2,-2,-4
1514894362824987,3,4,-4,-1,-2,-1,-2,0
1514894362824987,-9,-9,-4,-4,-1,-1,-1,-1
1514894362845502,5,-2,2,2,-1,-3,0,1
1514894362845502,10,18,1,-4,-2,0,-2,-2
1514894362847503,-15,-26,0,1,-2,-1,-3,-4
1514894362847503,-8,14,1,2,0,-1,0,0
1514894362859512,6,-31,-4,-2,-2,-3,-2,-4
1514894362859512,-5,6,1,7,-1,0,-2,0
1514894362868557,-1,15,-1,-1,1,0,0,1
1514894362868557,20,13,5,-10,-1,0,0,5
1514894362883067,-1,-5,-14,0,-2,0,0,-1
1514894362883067,1,-9,9,-7,-3,0,1,-3
1514894362884573,-7,-6,-4,-7,-5,-3,-2,-6
1514894362884573,2,-10,-1,3,2,2,2,6
1514894362905574,-9,11,10,10,-4,-2,-2,-3
1514894362905574,2,2,-16,-9,2,1,-1,0
1514894362907577,-14,-10,0,3,-1,-2,-2,-2
1514894362907577,3,-2,-4,1,-2,-5,-2,-5
1514894362928145,-1,-5,-3,-4,0,1,-1,0
1514894362928145,3,7,5,9,0,1,0,2
1514894362929626,8,-3,1,-4,-1,-2,1,1
1514894362929626,-2,0,-3,2,-2,-2,-2,-1
1514894362943133,-5,-8,1,2,1,0,-1,-2
1514894362943133,-8,4,0,-7,-1,-2,-1,0
1514894362945635,-7,5,1,0,0,0,1,4
1514894362945635,15,-1,-3,3,-2,0,-3,-5
1514894362964658,19,28,5,-2,1,-1,4,6
1514894362964658,-17,-8,-3,1,0,-1,-1,-5
1514894362973153,-21,-29,-4,1,-1,-1,-2,-2
1514894362973153,11,-6,-1,0,1,0,2,2
1514894362989174,-5,10,-2,-5,-1,-1,-2,-5
1514894362989174,-27,-30,-13,-6,-5,-3,-5,-8
1514894362992667,13,18,7,0,-1,-1,-1,3
1514894362992667,-8,-10,2,1,-2,0,0,-5
1514894363003175,15,21,0,-3,1,1,2,6
1514894363003175,4,-15,-9,-12,-3,-1,-1,15
1514894363004676,-19,10,-3,2,3,2,-1,-20
1514894363004676,-6,-9,9,7,2,2,2,2
1514894363026200,-12,-23,-15,-9,-1,-2,-3,-7
1514894363026200,5,0,26,20,1,-1,0,-5
1514894363029696,6,-2,-6,-10,-2,-3,1,6
1514894363029696,-3,12,2,-2,-3,-4,-4,-3
1514894363048206,-18,-3,-6,1,0,0,1,1
1514894363048206,1,-9,-7,3,-1,-4,-1,-1
1514894363050718,21,10,-2,-12,-1,-1,0,7
1514894363050718,14,16,-4,-5,1,4,5,5
1514894363062717,-45,-38,7,-3,-6,-8,-14,-25
1514894363062717,31,19,2,5,4,1,1,10
1514894363070223,4,-5,-4,5,-2,1,2,1
1514894363070223,-5,-13,-16,-20,-2,-2,-2,2
1514894363084750,-3,19,10,34,1,2,2,4
1514894363084750,-20,9,8,-38,-6,-3,-2,-14
1514894363085733,-12,-20,-8,-4,-6,-7,-8,-8
1514894363085733,4,-1,2,25,1,2,1,3
1514894363115755,11,-14,6,-29,-5,-2,-1,3
1514894363115755,8,23,0,24,2,0,0,-4
1514894363116258,-14,3,-3,-7,-3,-3,0,15
1514894363116258,-11,-15,-23,-10,-3,-4,-8,-22
1514894363121770,6,13,10,1,0,-2,-2,1
1514894363121770,-10,-8,-5,1,0,1,-1,-12
1514894363130269,-19,-15,-1,-4,0,-3,0,0
1514894363130269,-8,-4,0,16,0,-2,-1,3
1514894363144786,-3,2,14,2,-1,-3,-4,-3
1514894363144786,5,-18,-20,-32,-7,0,4,7
1514894363145778,7,4,-5,3,0,-3,-4,-12
1514894363145778,-31,-16,0,-5,0,0,1,-6
1514894363167803,15,13,-12,-6,-2,1,6,3
1514894363167803,-6,-6,14,12,3,3,8,17
1514894363168792,8,17,12,22,-1,-3,-11,-21
1514894363168792,-5,-4,-13,-28,-4,-3,-2,3
1514894363183305,21,5,3,8,2,2,-1,4
1514894363183305,-4,2,-1,-4,-1,0,-2,-3
1514894363189811,36,20,1,5,1,4,9,19
1514894363189811,-8,-2,14,-11,-2,-4,-6,-6
1514894363204826,-5,-9,-3,10,0,0,4,2
1514894363204826,-2,-5,-13,1,0,-2,6,-4
1514894363205819,20,4,-1,2,0,0,0,18
1514894363205819,-23,-33,-2,-12,-5,-7,-1,-2
1514894363227333,15,-6,-15,4,0,1,3,2
1514894363227333,-14,17,20,5,-1,-3,-15,-13
1514894363229347,-9,-8,4,-17,-2,1,-1,-5
1514894363229347,15,10,3,8,-3,-2,-2,5
1514894363241853,0,3,5,2,3,2,10,17
1514894363241853,-7,9,2,-1,-2,-3,-2,-5
1514894363249849,-4,-15,-19,-5,-5,-5,-6,-14
1514894363249849,15,0,5,0,1,4,3,11
1514894363264860,-28,-5,2,-7,-5,-4,-5,-13
1514894363264860,2,12,11,-3,-1,-3,1,14
1514894363265860,10,26,27,13,4,2,9,23
1514894363265860,2,4,1,-2,-2,1,3,-6
1514894363287385,-2,-20,-37,3,2,2,7,-3
1514894363287385,13,25,4,-1,-3,-7,-38,-61
1514894363288386,-37,-3,-1,-14,-3,-3,-7,-9
1514894363288386,6,-13,23,21,6,6,5,-4
1514894363301886,4,12,-12,-19,-5,-1,3,13
1514894363301886,-1,5,5,13,4,3,3,-2
1514894363317397,20,9,-27,-4,-1,1,3,4
1514894363317397,-44,-35,-9,-5,-4,-4,-14,-5
1514894363324906,-3,-9,3,-1,-4,-6,0,16
1514894363324906,19,-2,-12,4,0,-1,19,33
1514894363326913,-32,-28,17,1,-1,-1,-2,-38
1514894363326913,10,41,12,6,1,2,-8,7
1514894363347432,-8,-42,-28,-28,-12,-6,-16,-11
1514894363347432,-7,1,-2,4,-1,-3,15,38
1514894363348425,4,4,-20,-9,-1,-1,-12,-18
1514894363348425,16,29,-8,12,0,-2,-4,9
1514894363361929,-7,-4,30,4,2,3,13,-2
1514894363361929,15,-11,-32,-9,-2,-1,4,13
1514894363369935,7,35,37,18,1,1,13,14
1514894363369935,5,-2,2,-17,2,1,-6,-31
1514894363392963,-7,19,29,10,3,3,-6,4
1514894363392963,-11,-45,-42,-8,-4,0,4,-4
1514894363393955,25,2,52,19,3,-2,-4,14
1514894363393955,13,26,-74,-35,-5,1,6,27
1514894363407472,-40,-12,5,10,3,-7,-27,-53
1514894363407472,25,-3,-22,6,0,-2,-1,19
1514894363408462,-30,3,-2,2,-3,0,4,15
1514894363408462,7,-19,4,-37,-8,-6,-4,-3
1514894363422471,25,-4,-2,10,-3,0,13,19
1514894363422471,1,40,22,-6,-9,-4,-6,-17
1514894363429977,4,-13,-13,-29,-2,-3,-7,6
1514894363429977,3,26,-8,44,0,-6,-12,-26
1514894363444987,5,-27,31,-48,-3,1,13,2
1514894363444987,-18,-8,9,17,4,-3,-19,26
1514894363445488,11,9,-34,-24,-6,2,1,-32
1514894363445488,4,-42,29,41,3,-1,12,35
1514894363467515,3,24,-18,-15,-1,0,-15,-49
1514894363467515,-1,55,31,4,6,3,6,9
1514894363468004,-25,-61,8,0,6,0,-7,-19
1514894363468004,12,19,13,-14,-4,-4,8,10
1514894363481513,-9,25,28,79,5,-3,-14,-1
1514894363481513,-68,-93,-52,-50,-11,-5,7,25
1514894363490019,32,91,-3,1,1,-1,7,-40
1514894363490019,19,-16,-14,26,8,5,-8,3
1514894363513048,-15,-14,-5,-29,-9,-13,-28,-39
1514894363513048,18,-20,25,26,9,7,3,-8
1514894363514036,-9,0,-1,-11,-9,-5,2,24
1514894363514036,-17,0,89,10,-2,-1,6,-12
1514894363528045,38,15,-96,-22,-3,3,15,47
1514894363528045,29,28,-6,-4,5,5,7,-20
1514894363529546,-1,-43,-9,16,-3,-5,-3,-2
1514894363529546,-1,47,34,3,3,2,4,-1
1514894363550572,-23,35,-26,-12,0,0,3,46
1514894363550572,36,-18,29,16,-2,-4,-12,-61
1514894363551563,6,-7,33,-16,5,3,3,11
1514894363551563,3,57,-90,-10,0,-1,1,10
1514894363565074,-3,-96,-27,-1,-5,-1,-5,-8
1514894363565074,-43,75,23,9,-5,-4,0,9
1514894363565576,66,20,-36,25,1,7,16,63
1514894363565576,-65,-17,31,61,7,-1,0,13
1514894363587600,1,16,24,-51,-4,-2,-12,-76
1514894363587600,-18,-59,-22,-2,-2,-3,21,91
1514894363588088,-4,-3,52,6,-1,-8,-9,-87
1514894363588088,-55,-67,-95,-41,-16,-10,-4,22
1514894363601607,12,9,10,31,18,9,-18,-14
1514894363601607,43,94,13,7,-11,-10,-24,-54
1514894363610113,-51,19,41,14,2,1,-9,-21
1514894363610113,11,2,-21,-56,-14,-7,0,-6
1514894363624623,-60,-50,27,22,8,5,14,10
1514894363624623,63,-2,-24,-30,-11,-5,-14,-9
1514894363625615,-46,-32,25,29,3,-5,6,77
1514894363625615,73,40,44,-12,-2,7,7,-20
1514894363647141,-10,3,-72,-13,-13,-9,-5,21
1514894363647141,-44,-23,-3,-22,0,0,-3,-54
1514894363663153,-8,3,-56,-1,1,2,2,27
1514894363663153,-62,-46,75,30,6,-2,-12,-35
1514894363670646,74,48,67,-9,1,1,0,-8
1514894363670646,60,-15,-29,38,6,8,26,86
1514894363671146,-33,-6,-55,-56,-8,-6,-15,-38
1514894363671146,28,-30,-20,-45,-10,-9,8,37
1514894363684656,-41,39,-16,37,6,6,-2,-26
1514894363684656,-53,-20,35,-27,-1,-4,-12,-41
1514894363685657,49,36,-11,34,6,7,7,-21
1514894363685657,-14,-2,43,55,13,8,7,-4
1514894363707172,-13,29,21,-19,-3,-3,16,42
1514894363707172,-34,-74,-73,-22,-13,-13,-43,-94
1514894363708174,4,-53,-24,-23,-6,-4,10,42
1514894363708174,30,-11,23,-4,4,2,4,-22
1514894363730690,18,6,-12,41,-1,-1,-3,33
1514894363730690,-44,12,6,-21,1,3,16,-10
1514894363731190,17,22,14,14,-4,-5,-5,-2
1514894363731190,-1,15,-67,-39,-11,-7,-3,26
1514894363744708,20,-38,25,17,2,4,-7,-53
1514894363744708,32,14,-1,-1,-2,-1,-7,27
1514894363745699,-8,15,-57,-30,-11,-7,9,15
1514894363745699,17,-43,32,1,0,-3,-20,-19
1514894363767715,28,26,-1,-6,-1,-1,6,46
1514894363767715,-13,-7,35,11,4,3,42,19
1514894363768216,10,-15,26,27,12,11,2,-38
1514894363768216,2,70,18,-5,-8,1,7,-9
1514894363781725,-17,-18,-10,9,5,2,6,49
1514894363781725,-2,20,19,-21,-10,-3,-22,-52
1514894363789731,-27,23,61,12,3,-5,-8,-4
1514894363789731,10,-43,-61,10,6,9,19,6
1514894363804741,-13,-17,-19,-27,-13,-12,-19,3
1514894363804741,28,73,-5,26,11,3,5,2
1514894363805742,-33,-92,-5,-35,-17,-9,3,48
1514894363805742,10,42,2,26,7,-3,-21,-39
1514894363827266,-18,23,9,-26,0,4,2,-8
1514894363827266,-24,-69,-32,4,-3,-3,-9,-8
1514894363828258,28,27,34,0,1,-1,5,-14
1514894363828258,-8,-13,-18,-25,-7,-6,-30,-36
1514894363850786,-18,-72,-26,30,-2,-6,-2,55
1514894363850786,-22,13,5,-27,-7,-7,-12,-50
1514894363851275,69,91,61,-7,9,7,12,69
1514894363851275,-52,-39,-7,21,-7,-11,-41,-85
1514894363864784,3,-69,0,-14,5,11,23,4
1514894363864784,24,36,46,110,10,6,7,65
1514894363865785,-26,-35,-124,-107,-11,-10,-10,-13
1514894363865785,-19,15,27,-2,-2,0,1,-38
1514894363887310,15,0,-26,-32,-23,-23,-14,-49
1514894363887310,-24,-6,19,-7,0,-2,8,15
1514894363888300,13,-16,-16,57,5,-1,-17,-12
1514894363888300,0,-28,0,-18,8,8,5,31
1514894363910826,0,28,43,-4,4,3,-1,-44
1514894363910826,-23,-32,-23,-18,-2,-4,-8,-12
1514894363911316,26,77,23,-4,-14,-5,-1,20
1514894363911316,-5,-13,2,6,3,1,19,57
1514894363933338,32,36,1,56,10,7,26,28
1514894363933338,-19,-67,-43,-27,-9,-9,-47,-57
1514894363933832,-8,-2,63,24,3,-4,-4,51
1514894363933832,23,3,-50,-53,-10,-2,-13,-80
1514894363947345,-61,-11,51,6,-8,-9,7,41
1514894363947345,27,-16,50,-15,1,-2,-4,10
1514894363949356,-51,-41,-55,4,-4,-2,-17,-72
1514894363949356,-3,24,20,8,-3,-5,21,97
1514894363970859,7,-12,-6,-6,5,3,-13,-77
1514894363970859,18,58,27,-22,-1,-2,11,12
1514894363972860,23,-17,-15,-14,2,7,16,-12
1514894363972860,-8,-10,-65,-15,-8,-5,2,40
1514894363992886,11,22,40,-10,-1,3,0,-4
1514894363992886,-57,-16,-13,10,0,1,-6,-4
1514894363993875,-10,-1,45,29,9,6,7,-16
1514894363993875,-1,27,-3,-16,-4,1,-1,-1
1514894364007385,9,15,-2,14,6,2,-1,16
1514894364007385,21,28,53,-6,4,4,3,-5
1514894364008386,-5,22,-38,-9,-11,-5,7,35
1514894364008386,-12,-62,-27,-2,2,-4,11,-18
1514894364030915,0,34,48,24,0,4,-11,83
1514894364030915,8,3,-61,-16,-3,-6,3,45
1514894364031401,-8,-36,-39,-7,0,5,-39,-81
1514894364031401,-11,38,38,9,3,0,-4,-75
1514894364044911,-23,-28,30,-41,-9,-4,7,9
1514894364044911,9,-17,0,18,-2,-4,-16,-25
1514894364045913,-22,11,-10,-8,2,-2,13,23
1514894364045913,50,16,7,22,7,7,18,58
1514894364067440,-18,-37,-19,-32,-13,-8,-7,-85
1514894364067440,34,63,89,32,5,1,7,5
1514894364068439,-37,-45,-50,-2,-3,-5,-19,-28
1514894364068439,0,-54,-15,12,-1,-5,-6,3
1514894364090443,1,56,-15,-19,-5,-7,-3,-20
1514894364090443,0,-57,-5,-15,-3,4,38,77
1514894364091443,14,15,0,3,1,-6,-39,-94
1514894364091443,-11,35,6,3,-5,-2,-2,49
1514894364104953,21,-42,-11,-11,-2,0,4,-2
1514894364104953,-13,9,-45,26,3,3,-5,-31
1514894364105954,13,15,23,-47,-8,2,2,12
1514894364105954,-14,-24,44,28,5,2,-4,-42
1514894364127469,18,22,-40,-8,-2,1,15,51
1514894364127469,30,33,-11,8,-2,-5,-24,-77
1514894364128470,-36,-15,39,25,8,5,24,88
1514894364128470,23,-3,39,-34,-12,-8,-8,-78
1514894364150485,5,12,1,33,6,4,-15,5
1514894364150485,-24,-3,-82,-24,-1,-1,9,-12
1514894364151486,3,-2,31,14,-1,2,17,62
1514894364151486,5,36,43,5,7,4,-10,-11
1514894364164995,-7,9,-40,-17,-10,-9,-17,10
1514894364164995,0,-40,7,8,2,2,15,68
1514894364165496,24,17,-10,29,4,1,-25,-43
1514894364165496,18,7,-44,-14,-5,-4,7,3
1514894364187522,12,25,53,11,8,2,6,9
1514894364187522,40,-17,-83,-40,-13,2,15,-5
1514894364188013,-33,12,-6,3,1,-2,20,28
1514894364188013,15,16,42,83,9,3,-2,59
1514894364211029,-15,-34,-100,-81,-8,0,-6,-41
1514894364211029,-8,-4,17,9,1,1,-15,-40
1514894364213029,39,-10,-18,-2,-6,-11,7,-59
1514894364213029,-67,23,-16,23,-1,-2,-4,39
1514894364225550,-30,-9,22,41,15,7,-5,-26
1514894364225550,17,-30,9,-7,-7,-6,-12,-6
1514894364226040,-31,35,26,-22,-1,4,-2,-23
1514894364226040,23,-26,5,-37,0,1,19,30
1514894364247554,1,-2,56,53,1,-6,-13,-79
1514894364247554,-16,7,17,-10,-2,-3,19,120
1514894364248056,41,-43,-57,32,10,13,-2,36
1514894364248056,-52,-13,-55,-10,-9,-5,29,73
1514894364278080,26,13,38,-96,-15,-1,-18,-47
1514894364278080,-33,-36,-21,52,6,-3,-24,-48
1514894364279076,26,41,32,-26,-2,1,21,8
1514894364279076,-11,-33,-1,7,1,6,-19,-2
1514894364285080,17,10,-7,27,0,0,33,75
1514894364285080,-18,34,25,-13,-2,-3,-11,-88
1514894364285580,34,11,-10,33,4,0,-5,27
1514894364285580,12,-43,-52,-39,-3,4,30,33
1514894364307596,11,-3,29,30,6,-4,6,19
1514894364307596,-16,13,16,-30,-4,3,1,24
1514894364308097,2,10,24,13,-1,-3,-6,-43
1514894364308097,9,-15,4,-1,3,1,-9,20
1514894364330613,24,-22,-47,-2,-10,-6,-8,-11
1514894364330613,7,39,33,3,8,10,12,17
1514894364331113,-16,-21,18,-31,-17,-17,-32,-45
1514894364331113,27,11,18,-20,7,2,11,-88
1514894364344622,-39,-14,-57,16,-1,-2,7,69
1514894364344622,14,18,-38,-21,-6,-4,2,38
1514894364345623,0,-2,43,11,6,3,-19,-78
1514894364345623,13,24,-38,-14,-4,-4,1,0
1514894364368149,-20,-50,48,13,-7,-2,-5,-17
1514894364368149,-58,0,-11,12,6,1,4,8
1514894364369153,-19,-9,-14,14,-3,-6,8,32
1514894364369153,-19,-4,3,-34,-9,-8,-18,-22
1514894364391666,20,78,63,9,8,8,32,66
1514894364391666,-23,-61,-59,1,-3,-7,-15,43
1514894364392166,28,4,-40,-35,-8,1,-13,-62
1514894364392166,-28,-20,34,20,2,-2,-18,-79
1514894364404675,-4,12,-11,15,-1,-3,-8,-14
1514894364404675,17,-45,21,3,8,9,32,54
1514894364405676,0,-3,-11,27,-2,-1,-5,53
1514894364405676,-21,24,-29,-42,-7,-10,-40,-53
1514894364427685,29,-17,-21,-29,-8,-4,4,-19
1514894364427685,-13,10,-26,21,2,-1,9,8
1514894364428183,-26,-6,14,-8,-4,-5,-3,-4
1514894364428183,-1,-17,-3,1,1,1,14,47
1514894364450704,-13,1,13,12,-1,-3,-30,-70
1514894364450704,1,18,-10,0,0,1,3,3
1514894364451197,2,5,-7,-23,-6,-6,-5,-10
1514894364451197,-2,41,32,67,2,0,-25,-66
1514894364473225,6,-80,-24,-18,1,4,11,24
1514894364473225,22,33,6,-57,-13,-5,2,1
1514894364473714,-68,-24,-12,17,5,2,-11,-3
1514894364473714,2,-21,11,13,-4,-4,-14,-4
1514894364488236,8,3,-100,-12,-1,1,-6,-7
1514894364488236,17,43,112,23,7,4,2,-49
1514894364488724,15,-25,-124,1,-5,-5,18,36
1514894364488724,-28,-11,26,-6,0,2,24,53
1514894364511252,-8,15,-15,-9,0,-4,-16,-58
1514894364511252,22,6,63,46,7,4,3,46
1514894364512252,21,23,48,-63,-9,-4,-10,-69
1514894364512252,6,13,-12,40,10,11,13,9
1514894364524259,-9,-30,42,26,2,-5,-1,-6
1514894364524259,13,1,-7,-47,-10,-5,-16,-47
1514894364532755,-5,1,-2,29,8,4,4,38
1514894364532755,35,6,49,-14,-8,-7,6,44
1514894364547278,-16,-7,-27,-24,-2,5,6,-20
1514894364547278,37,-30,-16,6,3,-3,-4,10
1514894364554781,2,-5,-10,0,-7,-6,-3,-76
1514894364554781,18,-1,44,-2,-2,0,4,42
1514894364570792,7,31,-59,23,0,-6,-2,46
1514894364570792,4,8,-19,7,-1,1,-7,-42
1514894364571283,-10,40,58,26,2,2,29,81
1514894364571283,-17,-97,-104,-62,-7,-7,-26,-65
1514894364584302,11,33,39,23,2,2,0,-1
1514894364584302,-15,-29,-30,5,1,-3,1,-31
1514894364592298,-11,-33,37,3,-6,-5,-1,36
1514894364592298,-12,13,-23,3,-4,-1,14,-13
1514894364607321,-6,-22,-38,-23,-5,-1,6,21
1514894364607321,-33,-26,-24,13,-4,-4,-17,-26
1514894364608321,6,-19,-3,6,6,2,4,12
1514894364608321,-4,36,42,-16,-5,-3,-2,-1
1514894364638331,-11,-7,-66,-13,0,0,-5,3
1514894364638331,-10,-3,89,13,-5,-4,0,30
1514894364639832,37,6,-3,-4,6,7,3,-13
1514894364639832,-44,-21,-32,19,1,3,16,74
1514894364644844,-16,36,54,15,3,-6,-30,-82
1514894364644844,4,-9,-8,-27,-5,-2,-8,10
1514894364652355,-1,31,-50,-6,-6,-7,-4,-2
1514894364652355,8,-34,22,9,0,-1,-2,49
1514894364667362,-13,25,44,8,3,1,-2,-35
1514894364667362,4,-14,-20,21,6,5,-7,-26
1514894364668352,-10,7,-7,-55,-13,-4,8,47
1514894364668352,51,8,-16,3,0,-2,-15,-70
1514894364690366,0,17,0,11,-4,-7,-7,14
1514894364690366,-25,-27,-56,-43,-9,-2,22,-8
1514894364691367,-3,-7,53,26,4,1,2,21
1514894364691367,21,34,-23,7,6,6,3,-27
1514894364704386,14,2,27,-12,-7,0,11,52
1514894364704386,-28,24,6,22,0,-7,-35,-49
1514894364712883,1,-7,-11,-16,1,2,24,74
1514894364712883,-3,-25,-10,14,2,-1,-10,-21
1514894364727405,-27,4,5,-29,-7,-3,-32,-36
1514894364727405,11,47,36,44,6,5,13,7
1514894364728406,-23,-34,-26,-42,-10,-4,-7,11
1514894364728406,15,33,26,-1,1,3,-7,-40
1514894364750409,-13,-29,14,1,-1,-1,26,78
1514894364750409,5,-6,-5,-23,-6,-2,-21,-45
1514894364751410,7,10,64,49,6,5,5,-4
1514894364751410,5,0,-66,-26,-5,-8,-17,-13
1514894364764932,-8,-52,13,19,-2,1,5,0
1514894364764932,4,23,-32,-38,-5,-5,10,15
1514894364779932,31,-8,-8,-1,-2,-2,-8,-21
1514894364779932,-52,6,-18,28,2,-5,-5,-35
1514894364787936,10,1,-32,-33,-5,3,6,16
1514894364787936,-38,21,-13,-5,-1,1,29,25
1514894364789937,7,14,53,20,4,-1,-19,-55
1514894364789937,-13,-24,-64,7,-3,-2,8,37
1514894364810462,-5,1,59,17,2,-3,3,20
1514894364810462,57,3,-63,-20,2,6,15,10
1514894364811463,-29,-12,-3,-57,-14,-6,-3,42
1514894364811463,25,41,51,1,1,3,-4,-25
1514894364834469,-25,-29,-31,19,5,1,-16,5
1514894364834469,39,57,43,3,2,-1,-10,-21
1514894364835970,-15,-30,-8,-15,-5,0,8,-12
1514894364835970,15,10,18,0,3,0,10,42
1514894364847490,9,-9,-66,-4,-8,-5,-11,-20
1514894364847490,-26,-39,41,-3,-1,-6,-35,-27
1514894364848488,-14,-6,-54,-2,-4,-3,-6,-24
1514894364848488,-2,-8,57,-9,-8,-2,17,27
1514894364870495,42,45,-3,0,3,1,-22,-31
1514894364870495,-18,-37,-10,34,5,3,14,51
1514894364871495,20,27,33,-13,-4,-5,3,-13
1514894364871495,-5,-20,-36,-23,-12,-4,4,54
1514894364893022,-14,24,36,21,12,5,13,-9
1514894364893022,21,14,-49,-26,-9,0,7,34
1514894364894011,-20,-32,29,28,8,3,-14,-50
1514894364894011,21,18,-2,-9,-3,-1,19,35
1514894364923041,0,-40,15,-1,4,2,-1,-6
1514894364923041,-48,16,23,5,-14,-12,-14,-16
1514894364924041,38,5,-90,-8,3,3,-2,24
1514894364924041,-77,-14,27,7,4,1,3,-37
1514894364931038,4,-30,-4,1,-6,-5,-2,-5
1514894364931038,27,22,35,19,9,2,-6,-36
1514894364933048,15,8,16,-23,-15,-6,1,-7
1514894364933048,-48,-36,-54,0,3,-2,-17,-20
1514894364953062,14,45,25,-26,-7,-6,-2,20
1514894364953062,4,-26,-12,5,-6,-8,-5,-13
1514894364954063,-9,-36,-33,-6,0,4,21,27
1514894364954063,40,50,31,14,5,-5,-36,-45
1514894364967572,-40,-34,23,-49,-11,-3,18,-14
1514894364967572,9,-1,4,5,-2,-1,0,36
1514894364968064,-20,6,-78,6,5,-3,-16,-7
1514894364968064,31,16,63,-40,-15,-2,9,-20
1514894364991089,12,12,-55,23,11,7,17,53
1514894364991089,-11,5,31,-34,-10,-2,-6,-37
1514894364992094,-46,-13,20,46,11,1,10,8
1514894364992094,54,4,88,31,11,12,20,37
1514894365012094,-31,-40,-111,-45,-16,-13,-45,-36
1514894365012094,22,1,71,12,6,4,9,-1
1514894365020110,-12,-15,-73,-3,-8,-8,-18,-13
1514894365020110,-9,23,16,-2,2,3,-4,44
1514894365027114,23,-23,53,14,2,2,-1,-46
1514894365027114,-8,-13,-71,30,6,0,10,39
1514894365028121,20,24,81,-10,-8,0,-12,-40
1514894365028121,-3,10,-52,-8,-5,-6,-9,12
1514894365058637,-8,10,-24,-11,-6,-4,10,-16
1514894365058637,2,-14,-69,77,15,6,3,9
1514894365059128,2,12,8,-77,-14,-9,3,13
1514894365059128,-15,-12,27,16,10,6,13,-14
1514894365073147,28,21,-4,14,0,-1,-4,9
1514894365073147,-21,4,59,-37,-5,-3,-5,-4
1514894365073639,26,20,32,43,9,4,15,50
1514894365073639,0,-7,-22,-5,-3,-5,-18,-61
1514894365087147,-7,-53,-60,-5,1,3,20,-5
1514894365087147,13,10,23,-14,2,3,4,39
1514894365088147,56,-19,-50,-36,-12,-7,-2,18
1514894365088147,-1,-3,-12,-1,-9,-8,-3,40
1514894365111174,25,46,96,27,8,4,3,-9
1514894365111174,-43,16,49,-25,-16,-11,-18,-36
1514894365112175,-28,2,-33,31,7,5,20,30
1514894365112175,40,10,-19,2,4,1,-2,3
1514894365133180,-48,-9,19,33,-1,-2,-5,-4
1514894365133180,3,31,25,-23,-5,-4,0,40
1514894365134182,14,22,-9,25,2,-2,-3,-26
1514894365134182,-5,-13,-16,-13,0,2,0,-9
1514894365147690,21,24,48,8,8,7,24,99
1514894365147690,-38,-9,24,-8,3,4,-24,-59
1514894365148205,-47,-16,-68,31,2,0,5,-19
1514894365148205,42,12,-17,-28,-4,-3,-20,-32
1514894365170716,4,8,-13,4,-1,-3,3,10
1514894365170716,42,3,-26,-1,-5,-3,0,27
1514894365171206,-46,-58,29,-10,-1,1,-7,-28
1514894365171206,-16,-3,0,15,0,0,4,20
1514894365194723,-7,0,-27,-42,0,1,-5,-15
1514894365194723,-12,-13,7,-11,-1,-3,4,21
1514894365197225,18,40,36,26,9,4,-13,-87
1514894365197225,-38,-41,15,-4,-8,-6,20,56
1514894365206731,19,-35,11,-13,-5,-6,-23,-42
1514894365206731,-20,15,11,0,4,-3,6,-8
1514894365215739,-12,20,-50,-42,-14,-6,-9,2
1514894365215739,13,-10,5,6,-1,-3,8,-5
1514894365230750,-7,23,-26,-2,-1,-4,-23,-23
1514894365230750,-14,-16,-19,29,5,6,11,19
1514894365232250,32,-2,44,15,8,3,-10,4
1514894365232250,-30,-50,-36,-16,0,0,2,-40
1514894365260771,14,30,72,13,-2,0,2,-4
1514894365260771,-34,-59,-126,-35,-12,-6,1,3
1514894365262273,18,40,68,35,11,3,9,28
1514894365262273,-71,-17,19,-52,-10,-5,-10,-33
1514894365266774,-8,6,-32,28,5,0,-1,57
1514894365266774,6,-15,-40,-14,-11,-10,-16,-60
1514894365275792,-10,26,21,-14,-2,0,3,4
1514894365275792,-1,-41,3,41,6,0,7,-1
1514894365290791,5,3,-49,-63,-11,-3,2,9
1514894365290791,21,4,42,23,2,1,-3,10
1514894365292304,-27,-9,-74,-15,-7,-4,-10,-3
1514894365292304,98,31,87,29,11,7,-6,11
1514894365312319,-101,-22,-40,26,-1,-1,13,13
1514894365312319,15,3,46,-21,5,5,9,51
1514894365320822,-11,-21,-71,-21,-8,-7,-24,-63
1514894365320822,37,8,-9,5,-2,-3,4,0
1514894365326826,-28,38,50,17,6,5,8,-30
1514894365326826,-19,-67,-43,-24,-8,-7,-7,-7
1514894365337324,58,29,54,19,4,5,23,33
1514894365337324,-27,-37,-98,-22,-10,-5,-16,-6
1514894365350846,29,27,64,18,8,5,-3,11
1514894365350846,6,0,13,-10,0,0,4,-55
1514894365352344,-13,-16,7,-1,-2,-1,18,77
1514894365352344,2,19,19,0,-5,-4,-11,-68
1514894365373368,12,-10,9,18,2,-1,-4,-21
1514894365373368,-6,27,-11,-16,-2,1,6,20
1514894365374863,-27,-33,-1,-1,0,-2,-12,-18
1514894365374863,0,17,21,24,1,3,16,48
1514894365386859,-14,-23,-23,-18,-5,-7,-15,-27
1514894365386859,-9,4,10,22,5,2,7,-30
1514894365403370,-12,-5,63,13,3,-3,-8,1
1514894365403370,-16,31,-60,-49,-20,-8,-7,-1
1514894365410387,9,8,38,18,7,6,11,-7
1514894365410387,-12,-31,-93,-15,-8,-6,11,43
1514894365414399,12,20,64,26,11,8,0,-40
1514894365414399,-33,-5,-32,11,4,1,1,6
1514894365433394,34,-15,-18,-41,-15,-10,-18,-9
1514894365433394,17,39,29,10,3,2,-2,-1
1514894365434893,-4,-39,-21,3,1,-2,-4,-8
1514894365434893,-4,-6,22,19,7,4,14,66
1514894365446914,-38,-32,-40,-8,-5,-3,-10,-24
1514894365446914,15,14,-45,-29,-6,-2,-5,-13
1514894365455909,0,9,24,7,-5,-3,-8,-18
1514894365455909,28,2,53,27,7,7,9,39
1514894365470418,10,-22,-71,7,-2,1,7,-10
1514894365470418,16,-1,16,1,1,-1,-2,20
1514894365472419,-15,-10,-5,-45,-12,-7,-6,40
1514894365472419,26,25,12,-5,-2,-5,3,-23
1514894365492949,22,22,34,14,7,6,16,-3
1514894365492949,-41,-54,-81,-2,-9,-4,-24,-15
1514894365494935,32,25,-8,7,3,-2,-8,-11
1514894365494935,-5,-13,10,-7,-3,0,-3,-6
1514894365507444,-24,32,-19,-2,-1,-1,13,39
1514894365507444,13,9,49,42,6,-1,2,1
1514894365517451,-23,-6,31,-20,-2,0,12,15
1514894365517451,-2,4,0,-26,-4,-5,-12,-22
1514894365530472,10,-8,2,12,2,-4,-11,7
1514894365530472,13,28,-22,11,1,0,-13,-55
1514894365532461,-12,-12,-45,-32,-5,-1,-6,-21
1514894365532461,9,29,-18,-2,-11,-10,-7,4
1514894365560485,1,1,48,-2,0,-2,0,6
1514894365560485,-17,-29,61,-12,0,3,1,8
1514894365562483,2,35,-19,16,-3,-4,9,-37
1514894365562483,8,-53,-68,-5,2,2,-1,6
1514894365566987,-15,11,8,-5,-6,-3,15,39
1514894365566987,11,-21,-16,4,3,1,-29,-36
1514894365575493,3,23,51,15,9,7,13,17
1514894365575493,-22,-10,-12,-2,-4,0,1,-19
1514894365590503,5,6,-19,-30,-3,-3,-11,-13
1514894365590503,15,14,58,24,10,9,24,27
1514894365592013,18,-13,-19,0,-5,-2,-5,21
1514894365592013,0,42,26,18,4,1,-14,-23
1514894365612528,-15,-53,-2,-11,0,0,-4,-7
1514894365612528,13,55,40,1,-1,-4,17,60
1514894365620526,-28,-32,27,-9,-3,0,-19,-63
1514894365620526,5,-3,9,7,5,2,1,1
1514894365626538,0,-11,-60,-8,-7,-6,-1,7
1514894365626538,-15,20,-6,-7,-5,-3,-15,-2
1514894365637536,-19,-21,-14,-3,-2,-2,15,31
1514894365637536,0,17,-8,13,4,0,-4,-11
1514894365650554,14,28,12,-27,-14,-11,-21,-24
1514894365650554,-15,-7,6,13,6,7,30,54
1514894365652047,52,31,15,32,0,-9,-39,-49
1514894365652047,-31,-56,-13,-21,-6,-3,-10,-9
1514894365673571,24,-24,-57,-21,-7,-5,10,29
1514894365673571,8,21,-19,1,-1,-2,4,-65
1514894365676073,-9,9,25,16,4,2,3,14
1514894365676073,6,19,11,9,-2,2,12,53
1514894365686580,6,9,65,22,4,0,-18,-94
1514894365686580,-4,-10,-14,-4,-3,-1,8,27
1514894365695577,-9,-2,-15,-24,-5,2,6,22
1514894365695577,-31,-34,-44,-25,-5,-3,10,2
1514894365710588,28,30,18,7,1,1,-3,60
1514894365710588,26,53,9,-8,2,-3,-24,-43
1514894365712089,-13,-55,-51,0,-1,-2,4,9
1514894365712089,23,8,19,16,7,5,-7,40
1514894365733104,-8,32,14,-16,-13,-1,28,27
1514894365733104,13,24,36,-6,-3,-5,-29,-51
1514894365734605,3,-9,-44,-1,-4,1,39,79
1514894365734605,8,-15,2,-7,-3,-2,-31,-89
1514894365755632,15,22,0,24,12,4,18,21
1514894365755632,-12,-7,21,9,-2,-4,-26,-34
1514894365757134,-27,10,7,20,6,10,23,27
1514894365757134,-18,-46,-36,-66,-22,-15,-9,-19
1514894365770640,-15,9,4,18,9,5,10,47
1514894365770640,-17,-45,-29,-6,-5,0,3,-46
1514894365772132,5,-39,12,-13,-3,-5,-37,6
1514894365772132,-10,15,62,43,12,2,-2,-22
1514894365793146,9,-19,-31,-2,-2,-1,-6,-36
1514894365793146,-1,-15,-4,-32,-11,-7,8,47
1514894365794647,16,26,-27,-13,1,1,5,3
1514894365794647,-14,0,-2,-1,-4,-5,3,-66
1514894365815662,-17,-38,-6,-3,1,3,0,-14
1514894365815662,-6,0,17,7,3,0,17,4
1514894365817163,2,-5,-19,-25,-11,-10,-13,-24
1514894365817163,25,4,45,19,7,5,10,55
1514894365831174,-11,15,25,7,0,1,11,-35
1514894365831174,25,3,2,-9,-1,3,0,7
1514894365834675,14,4,0,-9,1,2,12,-11
1514894365834675,-1,14,-9,-1,0,-1,7,31
1514894365853188,4,-14,63,1,-2,-3,-14,9
1514894365853188,-13,-35,-97,-32,-4,-1,0,20
1514894365854689,12,-8,40,12,2,-2,0,-8
1514894365854689,-33,-4,15,18,5,5,6,19
1514894365875713,-13,-4,-58,-2,-5,-8,-15,-33
1514894365875713,-9,-6,-8,-16,-7,-5,2,50
1514894365877205,4,-9,-3,16,5,1,-14,-48
1514894365877205,-36,4,-27,-14,-4,-5,-11,-35
1514894365898723,-5,-7,22,-13,-1,2,3,30
1514894365898723,-7,-7,-54,11,0,-1,7,-29
1514894365900221,14,43,67,33,8,5,14,36
1514894365900221,-10,-27,-38,-10,-7,-4,-12,4
1514894365913742,21,64,27,-29,-1,4,1,-7
1514894365913742,-4,-20,-39,-15,-9,-6,27,43
1514894365915234,-2,-3,22,3,4,2,-30,-43
1514894365915234,-1,19,5,22,10,5,3,-16
1514894365935247,-4,43,42,5,-7,-8,1,-26
1514894365935247,4,11,49,20,8,5,-3,25
1514894365937252,-14,-11,-50,-25,-11,-8,4,6
1514894365937252,8,-17,40,1,-2,-1,1,-23
1514894365949774,4,-29,-7,-1,0,-1,-6,18
1514894365949774,-22,-17,0,-6,-5,-2,-11,-20
1514894365956771,10,3,-12,10,-3,-7,6,4
1514894365956771,36,4,9,3,0,1,-7,-17
1514894365973286,-15,-10,-3,-24,-4,1,12,29
1514894365973286,-41,-32,-36,13,1,-3,-27,-72
1514894365974786,-2,24,40,-13,-10,-7,-10,11
1514894365974786,34,5,38,1,0,-2,16,47
1514894365995816,-13,-18,-41,7,-1,0,-11,-4
1514894365995816,47,30,6,12,8,4,3,25
1514894365997302,-4,-16,-25,-10,-9,-1,1,-17
1514894365997302,-20,-12,-10,-9,-2,0,10,52
1514894366009799,-1,-56,-18,14,-3,-6,-29,-51
1514894366009799,32,27,55,41,11,6,-3,-38
1514894366016804,-20,-30,-20,-36,-4,3,3,3
1514894366016804,-5,44,-11,-5,-2,-2,-4,-7
1514894366033816,16,-24,-16,-16,-9,-7,5,41
1514894366033816,13,10,-11,-22,-1,0,11,11
1514894366037319,-11,-21,-7,15,1,-4,-8,-26
1514894366037319,-8,-5,-65,-30,-8,-3,4,6
1514894366055344,-17,21,24,29,6,0,-5,-47
1514894366055344,-3,-30,-63,-6,-5,-4,-14,2
1514894366056833,8,-40,23,-23,-4,0,17,27
1514894366056833,30,-8,-15,36,10,9,5,0
1514894366069852,14,40,21,-17,-1,1,4,7
1514894366069852,-5,27,4,-10,-6,-5,-7,-12
1514894366076856,-9,-13,-8,9,1,-4,-7,-54
1514894366076856,3,-39,-14,-12,-4,-2,2,15
1514894366092868,-12,-35,31,38,7,5,0,-16
1514894366092868,15,37,5,-18,-4,2,26,64
1514894366094374,11,11,-19,14,-2,-2,-29,-43
1514894366094374,7,6,-15,-43,-12,-11,-6,-31
1514894366115375,-10,11,-30,17,7,0,-2,20
1514894366115375,-19,31,84,8,3,4,16,13
1514894366117377,41,-3,6,29,12,6,11,36
1514894366117377,-72,-23,-26,-4,-8,-5,-11,-16
1514894366130895,4,0,20,-14,-1,0,23,46
1514894366130895,16,-8,-17,0,-6,-4,-3,16
1514894366137390,-4,27,-4,-1,4,1,-14,-61
1514894366137390,17,6,25,13,2,-2,-14,-22
1514894366152912,-7,-34,-25,-43,-8,-1,-3,16
1514894366152912,-19,-31,-21,17,1,-1,-4,-30
1514894366154913,-69,8,26,10,-1,-4,3,52
1514894366154913,18,27,17,-9,0,1,-9,-10
1514894366175416,18,32,14,-4,-3,-1,-18,-12
1514894366175416,-14,-30,43,31,3,-2,-6,-22
1514894366177418,-16,-4,-27,-36,-4,1,13,47
1514894366177418,34,20,-12,0,-6,-3,3,42
1514894366189940,-73,17,-17,11,1,-1,-15,-61
1514894366189940,3,31,26,-14,-2,2,16,62
1514894366196932,33,35,30,16,5,1,1,-7
1514894366196932,-8,-52,31,-8,-7,-1,2,-1
1514894366213444,23,20,41,14,2,-3,15,21
1514894366213444,5,3,-30,-19,-4,-2,-16,-17
1514894366215448,-9,43,91,38,7,7,32,68
1514894366215448,29,19,-21,-31,-6,-5,-41,-71
1514894366236470,14,-16,-35,28,7,4,6,15
1514894366236470,-6,28,6,-18,-6,-5,-13,-25
1514894366239971,-6,-55,22,-11,-6,-5,-3,-1
1514894366239971,6,12,-33,18,7,6,5,8
1514894366249468,-25,-21,-26,-17,-6,2,5,-1
1514894366249468,14,16,18,24,5,1,-8,8
1514894366257975,16,-52,-78,-22,-6,-2,5,6
1514894366257975,-30,3,34,8,3,1,-5,-23
1514894366272985,55,-10,14,-3,0,-2,2,4
1514894366272985,-10,31,13,-13,-9,-6,-10,-38
1514894366274486,-16,-47,-94,-12,-2,0,5,2
1514894366274486,-15,34,68,18,1,-3,-3,-2
1514894366295501,19,1,-31,-8,-5,-6,15,-10
1514894366295501,3,-30,1,27,-2,-5,15,47
1514894366309011,14,49,11,-34,-2,0,-11,-14
1514894366309011,-1,-22,24,1,-1,-1,4,15
1514894366318017,-51,-14,-53,6,2,1,0,-7
1514894366318017,-25,-17,-11,-12,-4,-6,6,12
1514894366319518,-9,3,13,34,6,4,-14,-46
1514894366319518,2,-18,-90,-32,-9,-5,17,39
1514894366333539,21,-1,41,-10,1,0,-9,22
1514894366333539,-4,-20,-13,9,3,3,0,-45
1514894366337031,10,10,-49,-22,-13,-7,-19,4
1514894366337031,-26,-44,59,7,6,-1,-16,-6
1514894366355544,37,12,-26,6,-2,-2,0,21
1514894366355544,-7,-9,47,-5,1,1,-8,-1
1514894366357045,0,23,-8,-2,0,-3,7,76
1514894366357045,-17,-19,-68,1,-7,-5,-29,-109
1514894366369053,2,-22,22,-4,-2,-2,-2,21
1514894366369053,11,-19,-37,-24,-8,-5,8,17
1514894366378060,-20,5,23,8,-1,-5,-13,-11
1514894366378060,-4,-22,-36,16,0,-1,-4,9
1514894366393073,1,7,62,-5,-2,4,4,33
1514894366393073,-1,18,-67,-18,-6,-5,-12,-86
1514894366394572,-21,-37,8,-8,-5,-4,5,-20
1514894366394572,26,24,15,27,7,0,12,43
1514894366416088,-11,-1,-19,-7,-4,-2,-10,-38
1514894366416088,12,5,68,0,-4,-7,-12,-8
1514894366418590,-9,8,1,8,4,4,11,2
1514894366418590,15,-11,58,-10,-9,-8,-3,11
1514894366429095,-29,26,13,25,4,-1,4,-7
1514894366429095,26,16,-26,-22,-3,-2,-8,28
1514894366444107,-43,-23,18,18,2,3,13,21
1514894366444107,-13,6,37,-12,-2,-3,-10,-44
1514894366453113,2,33,0,9,4,2,4,-18
1514894366453113,-11,-76,-23,-3,-2,-1,10,88
1514894366455116,-2,-11,-95,-12,-7,-5,-33,-98
1514894366455116,-19,22,60,1,5,9,25,33
1514894366477131,-11,16,-11,-11,-6,-3,-13,-27
1514894366477131,3,12,0,35,9,7,1,2
1514894366480132,49,-19,-2,-23,-1,1,10,33
1514894366480132,-14,21,-22,-18,-6,0,5,-29
1514894366489642,25,10,-1,-5,1,0,-14,39
1514894366489642,-8,-14,11,0,-3,-3,-4,-8
1514894366504148,25,7,1,7,-1,-5,-2,3
1514894366504148,-47,-23,-6,-2,-2,-1,10,30
1514894366513155,31,7,11,2,-1,-4,-10,-34
1514894366513155,-5,-5,38,-1,1,4,4,-4
1514894366514658,-10,-25,7,29,2,-2,-5,-10
1514894366514658,-34,-4,-9,-46,-6,-10,-31,0
1514894366535672,-1,3,-23,2,-9,-4,0,-11
1514894366535672,-16,-3,-15,-8,1,-2,-5,-15
1514894366537173,-4,22,34,7,0,3,1,-1
1514894366537173,32,49,16,11,9,10,33,49
1514894366549681,23,-52,-40,-3,-3,-2,-5,-14
1514894366549681,-8,22,59,14,4,2,0,-17
1514894366558189,-4,20,18,2,0,-1,7,-8
1514894366558189,7,12,2,9,2,3,6,22
1514894366573199,14,-46,-73,-31,-2,1,-3,-22
1514894366573199,0,33,9,-3,-3,1,14,14
1514894366579202,-15,-18,-6,0,0,2,10,5
1514894366579202,25,24,17,26,2,-1,5,15
1514894366596215,-15,18,36,-28,-1,-3,-7,6
1514894366596215,-16,-12,-16,-7,-7,-4,-7,-23
1514894366597715,25,-11,2,-12,-1,-2,-20,-33
1514894366597715,15,-28,-36,39,10,8,14,3
1514894366618230,-27,2,-28,-38,-10,-6,-1,22
1514894366618230,7,12,29,11,6,3,-7,-13
1514894366619734,-23,7,9,-21,-5,-3,7,29
1514894366619734,0,-47,-52,2,-1,-4,-27,-84
1514894366633241,12,24,32,24,3,2,20,14
1514894366633241,-6,12,2,7,3,3,9,16
1514894366634742,43,22,47,-3,2,3,-13,-49
1514894366634742,-74,-32,-27,-11,-8,-4,19,71
1514894366655757,-9,6,9,-25,0,6,10,-27
1514894366655757,2,-21,4,2,0,-4,-27,-16
1514894366657260,16,38,-5,4,0,-3,3,7
1514894366657260,-1,-16,-10,-7,-9,-4,-4,1
1514894366678273,4,18,63,25,4,-2,2,22
1514894366678273,-7,-6,-85,-32,-13,-8,1,-2
1514894366679773,-13,-9,-15,0,-2,-3,3,37
1514894366679773,23,-3,13,1,1,2,-8,-14
1514894366692782,-25,-52,0,7,-4,-3,-3,14
1514894366692782,33,28,-15,22,5,4,11,-11
1514894366694783,-8,6,31,-14,-4,-3,-6,19
1514894366694783,24,-27,-46,-4,-3,-1,-7,-31
1514894366723304,-55,-1,-58,14,3,3,-8,-1
1514894366723304,52,-3,34,-13,-2,-5,18,-6
1514894366725806,-32,-41,-97,-36,-8,-3,0,-4
1514894366725806,15,52,43,12,4,3,-8,4
1514894366738318,-1,-21,58,21,3,-3,-15,-13
1514894366738318,-25,-13,-27,4,-2,-6,2,24
1514894366739816,-5,9,0,-12,-8,-4,-16,-21
1514894366739816,12,15,-12,0,-4,-6,5,9
1514894366752824,20,15,-1,3,4,2,4,2
1514894366752824,-5,11,11,-18,-6,-2,-6,3
1514894366754827,0,-5,37,-5,1,0,8,2
1514894366754827,-27,-39,-75,-9,-7,-9,2,-14
1514894366776341,-2,22,-7,-5,0,1,2,-5
1514894366776341,2,-10,12,11,4,1,8,18
1514894366777341,3,-13,13,15,4,4,-5,-18
1514894366777341,0,28,-4,3,0,-3,-2,22
1514894366798360,3,-25,-33,-13,-4,-4,4,-31
1514894366798360,3,4,60,-25,-3,1,16,17
1514894366799861,3,2,-51,19,2,-2,-19,-11
1514894366799861,6,5,40,-1,3,2,-6,-6
1514894366820876,-10,-8,20,14,-1,0,1,3
1514894366820876,16,4,-37,2,-4,-2,-2,17
1514894366822375,-6,3,23,3,1,0,-1,-16
1514894366822375,10,6,0,-27,-2,2,8,15
1514894366835889,22,5,-27,-2,-1,-1,3,11
1514894366835889,-24,-13,28,0,1,0,-16,-22
1514894366838386,-7,20,26,5,-6,-4,7,26
1514894366838386,17,-15,36,-1,-1,-4,1,-21
1514894366858405,-11,22,7,15,-2,-2,10,37
1514894366858405,21,-6,-35,-22,-4,-3,-22,-67
1514894366859401,-26,-52,5,-8,-3,-3,5,4
1514894366859401,4,14,-34,11,3,8,5,71
1514894366872411,-8,-27,11,-27,-11,-12,-30,-70
1514894366872411,12,18,-43,-11,0,-1,-5,-11
1514894366878917,-4,-10,56,9,4,3,11,3
1514894366878917,-1,-1,-13,-11,-3,1,-3,15
1514894366895425,1,-19,-27,26,6,2,6,30
1514894366895425,-10,-8,7,-8,-6,-2,2,-30
1514894366896927,35,-5,-16,-8,0,-5,-26,11
1514894366896927,-49,40,55,60,13,9,14,-26
1514894366917941,12,-29,-49,-51,-10,-3,-5,-1
1514894366917941,-15,20,-33,-5,-5,-4,-5,15
1514894366921443,16,-2,-18,-7,0,1,14,14
1514894366921443,-13,-8,7,17,7,1,-12,-47
1514894366932453,25,25,69,11,2,0,7,20
1514894366932453,-42,3,3,2,-1,0,-4,2
1514894366939956,13,-7,-36,8,1,0,1,0
1514894366939956,0,-7,30,-20,-4,-1,-4,19
1514894366955467,2,-2,-52,4,-4,-2,-8,-59
1514894366955467,1,-43,13,3,3,1,10,61
1514894366956968,-4,26,27,10,2,5,-4,-32
1514894366956968,-3,-15,-29,-3,-4,-5,-7,-22
1514894366977994,-11,12,-40,4,-1,2,-1,4
1514894366977994,-1,-35,10,9,5,0,1,13
1514894366979493,-21,-3,17,12,3,1,3,-5
1514894366979493,9,22,-20,-31,-10,-5,7,29
1514894367000511,21,25,46,16,2,0,-3,-15
1514894367000511,-17,-14,-36,19,4,0,-17,10
1514894367002001,12,8,-20,-8,-3,-2,6,-35
1514894367002001,-5,3,-13,-21,-6,-1,-10,-10
1514894367015511,-8,-4,21,6,0,-2,1,9
1514894367015511,20,2,22,5,3,2,6,5
1514894367017023,20,5,6,-6,-3,-4,-1,12
1514894367017023,-1,-22,-40,-7,-4,-2,0,-3
1514894367038029,1,21,28,-15,-2,-4,-10,-2
1514894367038029,-4,-32,-90,3,0,-1,14,36
1514894367039537,22,15,12,-14,-4,-4,-16,-10
1514894367039537,-2,-18,22,10,1,-2,-7,-25
1514894367052536,-11,-10,34,-1,-2,-1,8,-14
1514894367052536,27,36,56,16,5,5,21,28
1514894367059041,-15,-9,-21,-6,-6,0,-6,-27
1514894367059041,-2,-13,-14,-16,-7,-9,-13,5
1514894367075562,-2,8,36,15,6,3,0,0
1514894367075562,23,11,-3,24,4,0,14,3
1514894367077063,0,-20,-58,-35,-14,-8,2,34
1514894367077063,1,2,4,7,9,10,-14,-54
1514894367098083,26,0,-57,6,-3,-1,9,36
1514894367098083,-24,-14,-7,-43,-13,-9,-14,-48
1514894367099570,-4,7,19,35,10,8,16,46
1514894367099570,6,-13,21,5,-1,2,8,-15
1514894367112593,-23,5,20,-13,-2,-2,-12,14
1514894367112593,-3,44,30,4,2,4,-18,-15
1514894367119083,1,-20,-21,-21,-9,-6,2,-8
1514894367119083,1,7,44,-7,-1,-3,0,28
1514894367136108,-4,40,30,16,4,2,3,1
1514894367136108,-13,-43,57,23,0,0,-3,-23
1514894367137609,-29,1,-23,-15,-5,-4,0,21
1514894367137609,-2,5,-12,23,3,1,10,-18
1514894367158120,17,21,37,-1,1,-2,-17,-15
1514894367158120,-45,-10,-57,-25,-9,-6,-13,-6
1514894367159621,4,-6,44,22,10,4,5,-15
1514894367159621,2,-24,-19,-14,-7,-8,-6,24
1514894367171630,-14,-9,-30,-23,-5,2,19,33
1514894367171630,50,-16,-16,18,0,-6,-3,-17
1514894367180626,-28,-20,9,-5,4,5,-18,-38
1514894367180626,6,33,-31,-1,-4,-3,6,4
1514894367195646,-1,-14,-20,-10,-6,-6,-27,-33
1514894367195646,-18,1,1,2,0,-1,3,12
1514894367197138,12,18,-27,-28,-8,-3,14,15
1514894367197138,5,-23,34,13,5,3,-1,-2
1514894367218163,10,-9,-50,-11,-7,-2,29,96
1514894367218163,-3,-1,-24,0,-4,-2,2,-62
1514894367219664,-1,10,22,23,7,1,-25,-15
1514894367219664,33,-12,15,-21,-11,-4,-2,21
1514894367232164,-68,-13,27,0,-3,-6,1,-85
1514894367232164,5,38,-9,-15,-4,-4,12,51
1514894367242670,-8,-1,11,15,2,3,16,43
1514894367242670,17,44,18,13,3,-3,-7,-44
1514894367255679,-19,-53,-81,-25,-4,2,3,-4
1514894367255679,29,36,60,-14,2,0,-8,-7
1514894367257181,-18,-21,-45,-5,-3,-3,-5,-19
1514894367257181,-9,5,18,5,1,1,11,29
1514894367278695,-7,1,17,17,1,-2,-4,-11
1514894367278695,4,26,9,-7,-2,0,8,20
1514894367280214,-11,-2,-6,-2,0,-3,-10,-5
1514894367280214,3,-2,20,19,10,7,11,20
1514894367300211,-18,-15,-6,-6,-2,1,-1,-23
1514894367300211,16,-16,15,4,5,8,-9,28
1514894367302223,13,6,15,-8,-9,-5,0,-2
1514894367302223,10,1,-33,15,4,3,4,11
1514894367315723,-22,-12,0,-10,0,-4,-27,-16
1514894367315723,-7,41,15,16,-1,-4,3,-7
1514894367317257,-20,-31,-23,-18,-4,-2,4,30
1514894367317257,2,-3,-89,-35,-7,-1,-8,-45
1514894367337737,4,-25,1,-3,-1,2,6,29
1514894367337737,-6,0,3,2,-4,-6,-16,-36
1514894367339739,18,10,23,11,1,0,3,1
1514894367339739,-21,-14,13,3,2,1,7,7
1514894367351748,37,10,10,6,-1,-2,0,-3
1514894367351748,-4,-7,-4,-8,-5,0,11,6
1514894367360754,11,1,18,20,3,-4,2,7
1514894367360754,-6,-4,47,-12,-7,-4,-7,6
1514894367375765,28,8,-64,-10,-3,2,0,-9
1514894367375765,-28,-20,15,-9,-5,-3,-11,-6
1514894367377271,14,5,-32,-4,-2,-2,-5,-7
1514894367377271,-16,-3,50,6,-1,-1,-1,-2
1514894367398282,7,21,-11,21,4,4,9,7
1514894367398282,7,-2,-10,-22,-4,-4,-10,12
1514894367399782,-8,-4,8,-1,-1,0,-3,4
1514894367399782,-8,-15,2,0,-4,-4,-18,-39
1514894367412302,2,4,24,0,0,-1,2,7
1514894367412302,0,-5,-18,3,2,2,1,-8
1514894367422297,-5,12,21,5,1,-2,2,0
1514894367422297,2,1,-14,-5,-1,-1,1,17
1514894367435306,4,-3,-4,0,-2,-4,-3,2
1514894367435306,-8,-12,-7,2,-1,0,-1,-7
1514894367437308,-2,2,-4,-6,-3,-2,-2,-20
1514894367437308,0,-4,-12,-2,-2,-1,6,12
1514894367458331,-2,4,20,2,0,1,-1,-3
1514894367458331,0,2,-5,2,0,0,-1,-4
1514894367459827,-4,-3,1,-1,-2,-1,2,-7
1514894367459827,-2,-2,-10,-5,-1,0,-1,5
1514894367471832,-3,4,20,2,-5,-3,-3,2
1514894367471832,-3,-5,-4,2,-2,-2,-3,-4
1514894367480839,1,-8,-5,-2,9,5,2,-4
1514894367480839,-7,-5,-16,-7,-4,-4,-2,3
1514894367495359,1,11,36,7,3,0,-4,-11
1514894367495359,3,-5,-26,2,-3,-1,10,31
1514894367496851,-5,-5,-14,-6,-8,-5,-17,-31
1514894367496851,-2,5,0,-3,1,1,-1,11
1514894367517877,2,-2,-3,0,-1,0,1,-5
1514894367517877,-2,-3,27,1,0,1,-3,-7
1514894367519875,-3,4,7,3,0,-1,3,3
1514894367519875,-1,0,16,-1,-1,-1,-2,-1
1514894367532876,6,5,-28,5,-1,-1,7,16
1514894367532876,-5,-12,0,-10,-2,-2,-10,-14
1514894367540881,-1,0,2,-3,-4,-1,0,-3
1514894367540881,-1,-6,2,-3,-3,-2,-2,-6
1514894367555904,0,10,14,1,-1,-1,2,8
1514894367555904,-2,-2,-6,1,-1,-2,-2,-7
1514894367557393,-1,-3,-8,-1,-3,0,1,1
1514894367557393,0,1,4,-2,-1,-1,0,4
1514894367578408,3,1,5,1,2,0,-2,1
1514894367578408,-2,-3,-14,-6,-3,-1,0,-4
1514894367580409,-3,-4,5,3,1,-4,-1,-1
1514894367580409,-1,5,-8,15,4,-1,3,2
1514894367600423,-9,-10,0,-13,1,-2,-7,-8
1514894367600423,2,-1,-7,0,1,0,-1,-5
1514894367603936,-4,-1,0,-4,-2,0,3,5
1514894367603936,1,0,-1,-10,-9,-4,-2,-1
1514894367630444,-2,-2,-6,6,3,-1,-2,-4
1514894367630444,1,2,3,4,2,0,0,1
1514894367631946,-1,-2,7,0,-1,1,0,1
1514894367631946,-3,-2,-8,-3,1,0,-2,-1
1514894367637963,-2,-1,-3,-7,-4,-2,-4,-3
1514894367637963,-2,1,3,0,-1,-2,-1,-1
1514894367639451,1,1,-4,-1,-1,-2,0,-1
1514894367639451,-1,0,-4,-2,-2,-1,0,-1
1514894367661967,-1,1,2,-1,-4,-1,2,1
1514894367661967,2,-2,-3,2,1,-1,-2,-2
1514894367663468,-1,-2,-5,0,-1,-1,1,-2
1514894367663468,0,1,2,-1,0,-2,1,1
1514894367675476,-5,-3,-11,-5,-3,-3,-3,-2
1514894367675476,-3,-2,-2,0,0,0,0,-4
1514894367676978,0,-3,1,-1,-2,0,-2,0
1514894367676978,-1,-3,-13,-4,-1,-2,-2,-2
1514894367697994,0,7,14,0,-3,-2,-2,-2
1514894367697994,-1,-3,-14,-5,1,0,-2,-3
1514894367699494,-2,-2,5,5,3,0,-1,-1
1514894367699494,-3,-3,-1,10,-5,-2,-1,-1
1514894367721518,-2,-1,-3,-14,3,0,-1,-1
1514894367721518,-2,-4,-2,-5,-4,-2,0,0
1514894367725521,0,-1,-4,-5,0,0,0,-1
1514894367725521,-1,0,4,0,0,0,-1,-2
1514894367735528,2,0,2,5,-2,-2,1,2
1514894367735528,-1,-2,1,-2,-2,-1,-1,-2
1514894367737019,0,-2,-4,0,-1,-1,-1,-1
1514894367737019,-2,1,2,-2,-4,-2,-1,-1
1514894367758034,-1,-1,-5,0,-2,-1,-2,-2
1514894367758034,-1,-1,0,1,2,0,-2,-2
1514894367759535,-2,-2,-1,-1,-3,-1,-1,-1
1514894367759535,-1,0,-2,-5,0,0,0,-2
1514894367780562,0,-2,-1,0,0,0,-1,0
1514894367780562,-2,-1,1,3,0,0,-1,-2
1514894367782054,-1,-1,-1,-3,0,-1,-2,-1
1514894367782054,-1,1,-1,-4,1,1,-1,1
1514894367795070,0,-1,-3,2,-2,-1,1,-1
1514894367795070,-1,-1,1,0,-2,-2,-1,-2
1514894367801575,0,-1,-2,-1,-2,-1,-1,-1
1514894367801575,1,-2,-1,-2,1,0,0,0
1514894367818116,-1,0,-1,1,-1,-1,-1,-2
1514894367818116,-1,-1,-1,-2,0,-1,1,-1
1514894367819612,-1,0,-2,-4,-1,-1,-1,-1
1514894367819612,0,1,-3,-1,-1,-1,-1,1
1514894367841628,-3,0,-2,2,-1,-4,-1,0
1514894367841628,-2,-3,-1,-1,-2,-3,-1,-3
1514894367844630,-1,-2,-1,-2,-2,-1,-2,-1
1514894367844630,-1,-1,0,-1,0,-1,-1,-3
1514894367854649,0,1,-1,0,-2,-1,-1,-2
1514894367854649,1,-1,-2,-2,0,-2,0,0
1514894367861654,-3,-1,-2,-2,-2,-1,-1,-2
1514894367861654,0,1,-2,-1,-1,-2,0,-3
1514894367878163,-1,3,-2,-1,-2,-2,0,-2
1514894367878163,-2,0,-2,0,-2,0,-1,1
1514894367879664,-1,-3,0,-1,-2,-2,0,-1
1514894367879664,0,-1,-1,-2,0,1,0,0
1514894367900683,-2,-1,-4,0,0,0,0,0
1514894367900683,-1,-1,0,-1,-2,-1,-2,-1
1514894367902171,-1,-2,0,-1,-2,0,-1,0
1514894367902171,-2,0,0,-2,0,-3,-2,-2
1514894367915181,-2,-1,-3,0,-1,-1,-1,-2
1514894367915181,-1,-2,-1,1,0,-1,-1,0
1514894367921685,0,-1,-3,-1,0,-2,-4,0
1514894367921685,0,-1,0,-1,-2,-1,-2,0
1514894367938196,-1,1,1,-3,-2,1,-2,-2
1514894367938196,0,0,-1,-2,0,-1,0,0
1514894367939697,0,-3,1,-2,-1,-1,-1,0
1514894367939697,1,1,-2,0,-1,-1,-1,0
1514894367967716,-2,-1,-1,-2,-2,-1,-2,0
1514894367967716,-1,-3,0,-1,-3,-2,-1,-2
1514894367969718,0,-1,0,-1,-1,-1,0,-1
1514894367969718,-2,-1,-3,-1,0,-1,0,0
1514894367974734,0,-2,-1,0,-1,1,0,-1
1514894367974734,-2,-1,-2,0,-1,-2,-1,-1
1514894367982228,-3,-2,-1,-1,-2,0,1,-3
1514894367982228,-3,1,-1,-3,-1,-3,1,-1
1514894367998241,1,-2,0,-1,0,0,-1,-1
1514894367998241,-1,-3,-1,0,-1,-1,-2,-2
1514894367999740,0,-4,-1,0,1,1,-1,-1
1514894367999740,-1,-1,-1,0,-2,-1,-1,-1
1514894368020254,-3,-1,-1,-2,-1,-3,-2,0
1514894368020254,-2,-2,-1,0,-1,0,1,-2
1514894368022255,-2,-1,-1,-1,-3,-2,-2,-2
1514894368022255,-2,0,0,-1,-1,-1,0,0
1514894368034764,-2,-1,1,0,0,-2,0,0
1514894368034764,1,-1,0,-2,-1,-1,-1,-1
1514894368041769,-2,-4,-3,-1,-2,-1,0,0
1514894368041769,-2,-1,-2,-1,-2,0,-1,-1
1514894368058280,-2,1,-1,0,-1,-2,0,0
1514894368058280,1,-2,-2,0,0,0,0,-1
1514894368059794,0,-3,-2,0,-1,0,0,-1
1514894368059794,0,-3,-1,-1,-1,-1,-2,-4
1514894368080306,0,0,-3,0,-1,-2,-2,-1
1514894368080306,-1,-1,0,-3,-2,-2,0,0
1514894368082299,-1,-3,-1,-3,0,-3,-1,-1
1514894368082299,-1,0,0,-1,0,0,-1,-1
1514894368094816,-1,1,-1,-3,-2,0,-1,-1
1514894368094816,0,-3,-1,-1,-2,-2,-2,-1
1514894368101821,0,-1,-1,1,-1,-1,0,-1
1514894368101821,0,0,-1,0,0,-2,-3,-2
1514894368117823,-2,0,-2,-2,-2,0,-1,-1
1514894368117823,-1,-1,-2,0,0,-1,-2,0
1514894368119824,-2,-2,0,-1,0,1,0,-1
1514894368119824,-1,-1,-1,-1,-1,0,-1,0
1514894368140351,-1,1,-1,-2,-1,-1,0,-3
1514894368140351,1,-2,0,-2,-1,0,0,-1
1514894368142340,-3,-3,0,-1,-1,-2,0,-1
1514894368142340,-1,1,-1,0,0,0,-1,-1
1514894368154367,-2,-1,-3,-1,0,-1,-1,-1
1514894368154367,-1,-1,-1,0,-1,0,2,2
1514894368163354,-2,-1,-3,-1,-3,-2,-2,-1
1514894368163354,-3,-2,-2,0,-1,0,0,0
1514894368178375,-1,0,-1,-1,-1,-2,-1,-2
1514894368178375,-1,-2,0,0,-1,-1,-1,-1
1514894368179876,0,-3,-1,-1,-1,-1,-2,-1
1514894368179876,0,0,-2,-3,-3,-3,-1,1
1514894368200891,-1,0,-1,1,-1,-2,-1,0
1514894368200891,-1,-1,-1,0,-1,0,-2,-1
1514894368202393,0,-1,0,-1,0,-1,-2,0
1514894368202393,-1,-1,-2,-3,0,-1,-3,-4
1514894368213892,1,1,1,-1,-1,0,0,-2
1514894368213892,-1,-2,-1,-2,-2,-2,-1,-1
1514894368223907,0,0,-2,0,-2,-1,-2,-1
1514894368223907,-1,0,0,-2,-1,-1,-2,-2
1514894368245423,-1,0,-3,-2,-2,-2,0,0
1514894368245423,-2,-2,-2,0,-1,-1,-2,-1
1514894368246915,-1,-2,-2,-1,0,0,-2,-2
1514894368246915,-2,0,0,-2,-2,-1,1,1
1514894368260423,0,0,-2,-1,-2,-1,-1,-2
1514894368260423,-2,-3,0,-2,-2,1,-1,-2
1514894368262926,-2,-3,-1,1,0,-1,-1,-1
1514894368262926,0,1,-1,1,0,1,-1,-2
1514894368273933,0,-1,-1,0,0,-1,-2,0
1514894368273933,0,0,-2,-1,-1,-2,-1,0
1514894368285442,-2,-1,0,-2,-2,-1,-2,-2
1514894368285442,1,-1,-3,-2,0,-1,0,-2
1514894368297952,-2,1,0,-2,-1,-1,-2,-1
1514894368297952,0,-3,-3,-2,0,0,-2,-1
1514894368299451,-2,-2,-1,-1,-1,0,0,-2
1514894368299451,-2,0,0,-1,-3,-1,2,-1
1514894368320466,-1,1,-1,-2,-1,-1,-2,0
1514894368320466,-1,-1,-1,-2,-1,-2,0,-1
1514894368321966,-1,-3,-1,0,-1,1,-2,-1
1514894368321966,0,-1,-1,0,-1,-1,0,-2
1514894368334477,-1,-1,-3,0,0,-1,0,1
1514894368334477,-2,-3,-1,-1,-2,0,-2,-1
1514894368342993,0,-1,0,-3,-1,0,-2,1
1514894368342993,-1,-2,0,-1,-2,-2,0,0
1514894368358004,-1,-1,0,-1,-2,-1,-2,-2
1514894368358004,-1,0,0,0,-1,-2,-1,-1
1514894368359494,-1,-3,-1,-1,-3,-3,-1,0
1514894368359494,-1,-1,-1,-1,-1,-1,-2,1
1514894368379518,1,-1,-1,-3,0,-1,0,-1
1514894368379518,-1,-2,-1,-2,0,-1,0,0
1514894368388014,-3,-2,-3,-2,1,-1,-1,0
1514894368388014,0,1,-1,-1,-2,-1,-2,-1
1514894368394028,-1,1,-2,0,-2,-1,1,-1
1514894368394028,0,-3,-3,-2,2,-1,-1,-2
1514894368403025,-1,-2,-1,-1,-1,-2,0,-2
1514894368403025,-2,-1,-1,-2,-1,0,0,0
1514894368419036,-1,0,0,0,-1,-1,-2,1
1514894368419036,-1,-1,-2,1,-1,0,0,-1
1514894368422538,-1,-2,-1,-1,-2,0,0,-2
1514894368422538,-1,0,-2,0,0,-2,-1,-2
1514894368440550,-1,2,-1,-1,0,-1,-1,-1
1514894368440550,-2,-2,-2,0,0,0,-1,0
1514894368442052,-2,-1,-1,1,0,-1,-1,0
1514894368442052,-1,-1,-1,-1,-1,0,0,0
1514894368470584,-1,-1,-1,-2,0,-1,-2,-2
1514894368470584,-1,-2,-2,-2,-2,-2,-2,0
1514894368472083,0,-3,-1,-1,-1,-2,-3,-1
1514894368472083,-2,0,-2,0,-1,-1,-1,-3
1514894368478086,0,0,-3,-2,-1,-2,0,-2
1514894368478086,-1,-1,-2,0,-1,1,-1,-1
1514894368479588,-2,-1,0,-2,-2,-2,-1,1
1514894368479588,-2,-1,-2,0,-1,0,-2,0
1514894368500603,-3,1,-2,-2,-3,-3,-1,0
1514894368500603,1,-1,-1,-1,0,-1,-1,-1
1514894368502095,-1,-3,-1,-1,-1,0,1,-1
1514894368502095,0,0,-2,-1,0,-2,1,-1
1514894368523123,0,-1,-1,-2,-1,-1,0,-1
1514894368523123,0,-4,0,-3,-1,0,-1,-2
1514894368524620,-1,-2,-3,-1,0,0,-2,1
1514894368524620,1,0,-2,-2,-2,0,0,-1
1514894368545639,1,-2,-2,1,-1,-1,-2,0
1514894368545639,-3,-3,-1,-1,-1,-3,-1,0
1514894368547126,-1,-3,0,0,1,0,-1,-3
1514894368547126,0,1,0,0,0,-1,-2,-2
1514894368560639,-2,0,-1,-2,1,-1,-1,-2
1514894368560639,0,-2,-1,-1,0,0,-2,0
1514894368562148,-2,-2,-2,-1,-1,-1,-1,-2
1514894368562148,-1,0,-3,-1,0,-2,-2,-2
1514894368583153,-1,1,0,-2,-2,-1,-1,-1
1514894368583153,-1,-3,-1,-1,-2,-1,0,1
1514894368584652,-1,-2,-2,-2,-2,0,-1,-1
1514894368584652,0,0,-1,0,-2,-1,-1,-1
1514894368599163,-2,1,-2,-2,-3,1,0,-1
1514894368599163,-2,-1,-1,-1,-2,-1,0,-2
1514894368602675,-2,-4,-1,-1,-1,-2,-2,-2
1514894368602675,0,-2,-1,-2,-2,-1,-1,-2
1514894368620678,0,2,-2,-1,0,-2,-1,-1
1514894368620678,-1,-2,-2,-1,-1,1,0,0
1514894368622191,-1,-3,0,0,-1,-1,0,-1
1514894368622191,-1,0,0,0,-1,0,0,1
1514894368643206,-1,0,0,0,-1,-2,-2,-1
1514894368643206,-2,-2,-1,-1,-1,1,-1,-2
1514894368644698,0,-1,-1,-2,0,1,0,-1
1514894368644698,0,1,-1,-2,0,-2,-1,-1
1514894368665710,0,0,-2,0,-1,-1,0,-1
1514894368665710,-1,-1,-1,-2,-2,-3,-1,-2
1514894368668212,0,-2,-1,-1,-1,-2,-1,0
1514894368668212,-2,1,-2,-2,-1,1,-2,-1
1514894368680720,0,-1,-3,0,0,-1,-1,-2
1514894368680720,0,-2,-1,-2,2,-1,1,-1
1514894368682222,-1,-3,-1,-1,-1,-1,-1,-2
1514894368682222,-2,-1,-1,-3,-2,-2,-1,-2
1514894368702736,0,1,-3,-1,-2,0,0,0
1514894368702736,0,0,-1,1,-2,-1,-1,-1
1514894368705238,-1,-3,0,0,-2,0,1,-2
1514894368705238,-3,-2,-1,-2,-1,-1,0,0
1514894368717247,0,-1,1,-5,-1,-1,-1,0
1514894368717247,-1,-2,-2,-2,0,-1,-1,-2
1514894368724263,-1,0,-1,-1,-1,0,-2,-1
1514894368724263,-1,1,-2,-2,-1,-2,-2,-2
1514894368740263,-2,-1,-1,0,-2,-2,0,0
1514894368740263,-1,-3,1,-1,-4,0,-2,0
1514894368742265,-2,-3,-1,-1,-1,0,-3,-1
1514894368742265,-1,0,-1,0,-1,-1,-1,0
1514894368762782,-2,-1,0,-1,-2,-1,1,-1
1514894368762782,-1,-2,-2,-2,0,-1,0,-3
1514894368764781,0,-2,-1,1,-1,-2,0,1
1514894368764781,-1,-1,-1,-1,0,-1,-1,-2
1514894368777289,0,1,-1,-1,-2,-3,-2,0
1514894368777289,-2,-3,-1,1,-1,-1,-2,0
1514894368784294,-3,-2,-2,-1,-1,-1,-2,0
1514894368784294,-1,-1,-2,-2,-1,1,-1,1
1514894368800815,-1,-1,-2,-2,-1,-1,-1,-1
1514894368800815,0,-1,0,-3,-2,-1,-1,-3
1514894368802816,0,-2,0,-1,-1,-1,0,-1
1514894368802816,0,0,-2,-1,-2,-2,-2,-1
1514894368822833,-2,-1,-1,-2,-3,-1,-1,-2
1514894368822833,-3,-3,-2,0,-1,0,0,-1
1514894368824323,0,-5,-1,-2,1,-2,-1,-1
1514894368824323,-2,0,0,-2,0,-1,-1,-1
1514894368837331,-1,0,-3,-1,0,-2,0,0
1514894368837331,0,0,-3,-2,-1,-2,-3,-2
1514894368843845,-1,-2,-2,-1,-2,-2,1,-1
1514894368843845,-1,0,1,0,0,-1,-2,-1
1514894368859862,-2,-3,0,-3,0,0,-3,-1
1514894368859862,-1,-2,0,-3,-2,-1,-1,0
1514894368867852,-3,-1,-2,-1,-2,-1,-1,-3
1514894368867852,-1,-1,-1,0,-2,-2,-1,0
1514894368883867,0,-1,-1,-1,-1,-1,-1,0
1514894368883867,-1,-1,-1,-1,-2,-1,-1,-1
1514894368886366,1,-3,-1,-2,0,1,-2,1
1514894368886366,-2,-2,-1,-2,-1,0,0,-1
1514894368897384,-1,-1,-2,1,-1,-2,-2,-2
1514894368897384,-2,-2,0,-2,-1,-1,-2,-2
1514894368903888,-2,1,0,-1,-2,1,-1,-1
1514894368903888,-1,0,-1,-1,-1,0,-1,1
1514894368920396,0,-1,-1,-2,-1,1,0,-1
1514894368920396,-1,-3,-2,-1,-2,0,-1,0
1514894368927895,-2,-3,-2,0,-1,-3,0,-2
1514894368927895,-1,0,-2,-2,-2,-1,0,0
1514894368950921,-2,1,-2,-1,-1,-2,-1,-3
1514894368950921,0,-1,-1,-2,0,-1,0,0
1514894368952414,-1,-3,0,-3,0,-1,-3,-1
1514894368952414,0,-3,-3,0,-1,-2,-1,1
1514894368957433,0,1,1,0,0,-2,-1,-1
1514894368957433,-1,-2,-2,0,-1,0,-2,0
1514894368964421,-1,-2,-2,0,-2,-1,1,0
1514894368964421,-1,0,-1,-1,1,0,-1,-2
1514894368980445,-1,-1,-3,-1,-1,-1,0,-1
1514894368980445,-2,-1,-1,0,0,-2,0,-2
1514894368981940,-1,-2,0,-1,-1,0,-1,0
1514894368981940,-1,0,-1,-2,-2,0,-1,-1
1514894369003449,0,-2,-2,0,-2,1,-1,-2
1514894369003449,0,-1,-2,-2,1,-2,-3,-2
1514894369005962,0,-2,-1,-1,-1,-1,-1,-2
1514894369005962,-1,0,0,0,0,-2,-1,-1
1514894369016460,-2,-1,2,-2,-2,0,-1,0
1514894369016460,-2,-3,0,0,-1,-3,-1,0
1514894369034971,-3,-3,1,0,0,-1,-2,-2
1514894369034971,-1,0,-3,-2,-1,-3,0,-2
1514894369040475,1,0,-2,-1,-1,-3,0,1
1514894369040475,0,-3,-1,-1,0,1,1,0
1514894369041976,1,-1,-3,1,0,-2,-1,-1
1514894369041976,0,-3,-1,1,0,-1,-1,-2
1514894369063491,0,1,-3,-1,-1,0,-2,-2
1514894369063491,-1,-2,-1,-2,-1,-3,-1,0
1514894369066494,-3,-1,-1,-1,-2,-1,-1,0
1514894369066494,-1,1,0,-1,-1,-2,-1,-2
1514894369077004,0,0,-2,-2,0,-1,-1,-1
1514894369077004,-1,-1,1,-1,0,0,-1,-3
1514894369085507,-1,-1,-1,-1,0,-2,0,-1
1514894369085507,-1,0,-2,-1,-2,-1,-1,-1
1514894369100527,-1,1,-1,-1,1,0,-1,-1
1514894369100527,-2,-2,-2,-1,-2,1,0,-1
1514894369102020,-1,-2,-2,-2,0,0,-2,-2
1514894369102020,-1,1,0,-1,-2,0,-1,-2
1514894369123033,-2,-1,-1,-4,-2,-2,-1,1
1514894369123033,-2,-2,-1,0,-1,1,0,0
1514894369124534,-1,-3,0,0,-1,1,0,-2
1514894369124534,-3,0,-2,-2,-2,0,-1,-2
1514894369136555,-1,1,0,0,-2,-1,-2,-1
1514894369136555,-1,-3,-1,-1,-1,-4,0,-1
1514894369146059,-3,-3,-2,-1,-2,-1,0,-2
1514894369146059,-1,0,-2,-3,0,-1,-2,-2
1514894369160569,-1,-1,-3,0,-1,-2,0,-1
1514894369160569,-1,-2,-1,-2,-1,-1,0,0
1514894369162061,-1,-1,1,0,-1,-2,0,0
1514894369162061,0,-1,-1,0,-2,-1,-2,0
1514894369191081,-1,-1,-2,-1,-2,-1,-2,-2
1514894369191081,0,-2,-1,0,-1,-1,-1,-2
1514894369193092,0,-2,-2,0,-1,-2,-2,-1
1514894369193092,-1,0,-2,-1,-1,-3,0,0
1514894369196585,-1,1,0,1,0,0,0,-2
1514894369196585,-3,-1,-2,-2,1,-1,-1,-1
1514894369205592,-2,-2,-1,-2,-2,-1,-1,-1
1514894369205592,-1,0,-2,0,0,-1,2,0
1514894369221126,0,0,-1,2,-1,-2,-1,0
1514894369221126,0,-1,-3,-5,-3,0,-1,-1
1514894369222627,0,-1,0,-2,-2,-2,-1,-2
1514894369222627,-1,-2,-1,-2,-1,-2,-1,1
1514894369243142,-1,-1,-2,-3,-1,-1,-1,-1
1514894369243142,-1,-3,1,1,-1,-1,-1,-1
1514894369245159,-3,0,-1,-1,-1,1,-2,0
1514894369245159,-2,0,0,0,-2,-1,-1,-2
1514894369256654,-2,0,-2,-2,-2,-3,0,-2
1514894369256654,-1,-2,-2,0,-3,0,-1,-2
1514894369266658,-1,-1,0,-2,1,-1,-1,-1
1514894369266658,-1,-1,-2,-1,-3,-2,-1,-1
1514894369280677,-2,0,1,-2,-1,-1,-1,0
1514894369280677,-2,-2,-1,0,0,-3,-1,0
1514894369282672,-2,-3,-2,-2,0,-1,0,-1
1514894369282672,-1,-2,-1,-1,-2,-2,-1,0
1514894369304184,0,-2,-1,-1,-1,-1,2,-1
1514894369304184,0,-1,-1,1,0,0,-2,-1
1514894369305685,-2,1,-2,0,0,1,-2,-1
1514894369305685,0,-1,-2,-1,0,-1,0,-1
1514894369316727,-1,-1,-1,-2,-2,0,-1,-2
1514894369316727,0,-2,-3,-2,-2,0,-1,-2
1514894369325734,-1,-1,0,-1,-1,-2,-2,0
1514894369325734,0,1,0,0,1,0,-2,0
1514894369340258,-2,0,-3,-1,-3,-3,0,-3
1514894369340258,-2,-3,-2,-1,-1,-1,-1,-3
1514894369343260,0,-2,0,-2,-3,-1,0,0
1514894369343260,-1,0,-1,-1,-1,-2,0,-1
1514894369363275,-1,-2,-2,-1,-2,-1,-3,1
1514894369363275,-2,-1,0,0,-2,-2,-2,-2
1514894369366262,-1,-1,-1,0,-1,0,-2,-1
1514894369366262,-1,-1,-2,-2,-1,-1,-3,-4
1514894369376787,0,-3,-2,-2,-2,-2,-1,-2
1514894369376787,1,-2,-2,-3,0,-3,-1,-1
1514894369385776,-1,-1,-1,-1,-1,0,-1,-1
1514894369385776,-1,0,-2,-3,-2,-1,-1,-1
1514894369400302,-1,-1,0,-3,0,0,-1,-2
1514894369400302,-1,-1,0,-2,1,-1,0,0
1514894369401788,0,-2,-1,0,-2,-2,-2,-2
1514894369401788,-2,0,-1,0,0,-1,0,-1
1514894369422803,-1,-2,0,-2,-1,1,0,-1
1514894369422803,-2,-2,-1,-1,-3,-1,-1,0
1514894369424803,0,-1,1,-2,-2,0,-1,-2
1514894369424803,-1,1,-1,-1,-2,-2,-1,-1
1514894369436811,0,0,-1,-3,-2,0,-2,-1
1514894369436811,-2,-1,-2,-1,0,-1,-2,0
1514894369445317,-2,-2,-1,0,-1,0,0,0
1514894369445317,-1,-1,0,-1,-2,0,-1,-2
1514894369460329,-3,-1,0,0,1,-1,-1,-2
1514894369460329,-1,-1,0,-1,0,-2,-2,-1
1514894369462331,-2,1,0,-1,-1,-3,-2,-2
1514894369462331,0,0,-2,-1,0,0,0,0
1514894369489354,-3,-2,-2,-2,-1,-2,0,0
1514894369489354,-2,-2,-1,0,-2,-1,0,-2
1514894369500356,-1,-2,-1,0,0,-1,0,-2
1514894369500356,-1,-1,-2,-1,-2,-1,-1,-2
1514894369505360,1,-1,-2,-1,-1,-2,-2,-2
1514894369505360,1,-2,-1,-2,-2,0,-4,0
1514894369506861,-2,-2,-1,-1,-1,1,-1,-1
1514894369506861,-1,-1,0,-2,-1,-1,-2,-1
1514894369520371,0,-1,-2,-1,-1,-1,1,0
1514894369520371,0,-2,0,0,-1,0,-2,-2
1514894369521880,-2,-2,-1,-1,-1,-2,0,0
1514894369521880,-1,-1,-1,-1,-2,-1,-2,-1
1514894369558398,-2,1,-1,0,-1,0,-4,0
1514894369558398,0,-3,-1,-1,-2,-2,0,-2
1514894369560399,1,2,0,-1,0,-1,-1,-1
1514894369560399,-1,-2,-3,-1,-1,0,0,-1
1514894369565404,-2,0,-1,-1,0,-1,0,0
1514894369565404,-1,-2,-2,-2,-2,0,-1,-1
1514894369567905,-2,-2,-2,0,-2,-2,-3,-2
1514894369567905,0,0,0,0,0,-2,-1,-1
1514894369580414,0,-1,-2,-2,0,-2,0,-2
1514894369580414,-1,0,-1,-1,-1,0,-1,1
1514894369581917,-1,0,-4,-1,-1,1,0,0
1514894369581917,-1,0,-1,0,-1,0,-1,0
1514894369603431,0,-2,-2,-1,-2,-1,-2,-1
1514894369603431,-1,-2,0,-2,-1,-2,-3,-1
1514894369604430,-1,-2,-1,0,-1,0,-1,0
1514894369604430,-1,0,-2,-2,-1,-1,-2,0
1514894369641958,0,-2,-2,0,-2,0,0,-2
1514894369641958,-1,-2,-1,2,-2,-3,1,-1
1514894369642958,-1,-2,-1,-2,-1,1,0,-1
1514894369642958,-2,1,-2,-2,1,-4,0,0
1514894369644459,1,-2,-2,0,-1,-4,-1,1
1514894369644459,-1,0,-1,0,0,0,-1,-1
1514894369647460,-1,-1,0,-1,1,-1,-3,-1
1514894369647460,-3,-1,-1,-2,0,-2,-2,-2
1514894369662542,-1,1,-1,-1,-1,0,-2,-1
1514894369662542,-1,-2,-2,-1,-1,-1,-1,-1
1514894369663006,-1,-1,-1,-1,0,-1,-2,0
1514894369663006,1,-1,-1,-1,-1,0,-1,-1
1514894369685040,-1,-1,0,0,0,-2,0,-1
1514894369685040,-1,0,-1,-1,-2,-2,0,0
1514894369685524,-2,-1,0,-1,-1,-4,0,-2
1514894369685524,-1,-1,-3,0,-1,-1,-1,0
1514894369700034,-2,-2,-1,-1,0,-2,-2,-2
1514894369700034,0,-3,-2,-1,-1,1,-1,0
1514894369700535,-1,0,-2,0,-1,-3,-1,-1
1514894369700535,-1,-1,-1,-1,-1,-2,-2,-1
1514894369722046,1,0,0,-2,-1,0,-2,0
1514894369722046,0,-2,-1,-2,-1,-1,-1,-3
1514894369723046,-1,-1,-2,-1,-2,-1,0,0
1514894369723046,1,-1,-2,0,-1,-2,-1,-2
1514894369744564,-1,-1,0,1,-2,-1,0,1
1514894369744564,-2,-1,0,-2,0,0,-2,0
1514894369745563,-1,-1,-1,-3,-1,0,-2,-3
1514894369745563,-1,-1,0,-2,-1,-2,-1,-2
1514894369760074,-1,-2,-2,-2,-2,-1,-2,-2
1514894369760074,0,-2,0,-1,-1,-2,-1,-2
1514894369760573,-1,-2,0,-2,-3,1,0,-1
1514894369760573,0,-1,0,0,-1,0,0,0
1514894369782602,0,1,-2,-2,-1,-2,0,-1
1514894369782602,-1,-1,-1,-1,0,-1,0,0
1514894369783091,0,-1,-1,-1,0,0,0,0
1514894369783091,-1,1,-2,-1,-1,-1,0,1
1514894369804605,-2,0,-1,-1,-3,-1,-2,2
1514894369804605,-1,-1,-4,0,0,-2,0,0
1514894369805606,-1,0,0,-1,0,-2,-2,0
1514894369805606,-3,2,1,0,-2,0,-1,-2
1514894369828122,-1,-1,-2,-3,0,0,-2,-2
1514894369828122,-1,-3,0,0,0,1,-3,-3
1514894369828622,0,-1,0,-2,-1,-1,-2,0
1514894369828622,-1,0,-2,-1,-2,-2,-1,-1
1514894369842143,-2,-2,0,-3,-1,-2,-1,-1
1514894369842143,1,-2,-1,-3,-2,-1,1,0
1514894369843144,2,0,-1,0,0,-2,0,0
1514894369843144,1,-5,-1,-1,0,-1,1,1
1514894369864649,-10,-4,-2,-1,0,-2,-2,-4
1514894369864649,0,-1,-1,-1,0,-1,-2,-2
1514894369865650,-1,-1,-1,-1,-2,-1,0,-1
1514894369865650,-1,3,-1,-1,0,-1,-2,-1
1514894369879658,4,-1,0,1,-1,0,-1,-1
1514894369879658,-1,1,-2,-1,-1,-3,-2,-1
1514894369881660,-3,-1,-2,-1,-2,-2,-2,-3
1514894369881660,2,0,-1,-2,0,0,0,-1
1514894369910679,0,0,-1,-1,0,-2,-1,-2
1514894369910679,-1,-4,-1,-1,0,-2,0,0
1514894369911180,1,-1,-2,-1,0,-2,-2,-2
1514894369911180,-3,-1,-1,-2,-2,0,-2,0
1514894369924691,2,0,-1,0,0,0,0,-1
1514894369924691,-3,-2,-1,0,-1,1,0,0
1514894369925692,-1,-2,0,1,0,-2,1,0
1514894369925692,-2,0,-1,0,-1,-1,0,-2
1514894369939702,0,0,-3,-1,-2,-1,-1,0
1514894369939702,-1,-1,-2,-1,-1,-2,-3,-1
1514894369940703,-1,-2,-1,-1,-3,0,-3,-1
1514894369940703,-1,0,0,-2,-1,0,-2,-2
1514894369962216,0,1,-2,-1,-1,-1,-1,-3
1514894369962216,-2,-1,-1,-1,-1,-1,0,0
1514894369963217,-2,0,0,-2,0,0,-1,-1
1514894369963217,0,-1,-2,0,-2,-2,-1,-1
1514894369985232,-1,1,0,-1,-1,-1,0,-1
1514894369985232,-1,-2,-1,-1,-1,0,-1,0
1514894369985734,-3,0,-1,0,-1,-3,-1,0
1514894369985734,-2,-1,-1,0,0,0,-1,-3
1514894370001243,0,-3,-3,0,0,-1,-1,0
1514894370001243,-2,-2,-1,0,-2,-1,-1,-3
1514894370002253,-1,-1,-1,0,-2,1,0,-1
1514894370002253,-1,2,0,0,-2,2,0,0
1514894370022268,-2,-2,-1,-2,-1,-2,-2,0
1514894370022268,-1,-3,-1,-3,0,0,-1,-2
1514894370023269,-1,-2,-1,-2,-1,-2,-2,-1
1514894370023269,-1,0,-2,-1,0,-2,-2,-2
1514894370052790,-1,-2,-1,-2,-2,-1,-1,0
1514894370052790,0,0,-3,0,0,-1,0,-1
1514894370053787,0,1,-1,1,-1,0,0,-2
1514894370053787,-2,0,-1,-2,-1,1,0,-1
1514894370059787,1,-2,0,-2,0,0,1,-3
1514894370059787,1,-2,0,-1,-2,0,-1,-2
1514894370060801,-1,-1,1,-1,0,0,-2,0
1514894370060801,-1,0,0,-1,1,-3,-1,-1
1514894370082303,-1,-1,-1,-3,-1,-1,-2,-1
1514894370082303,-2,-2,-1,0,-3,-2,-3,-3
1514894370089815,-2,2,-2,-2,-2,0,-2,-2
1514894370089815,4,3,1,-1,-1,-1,0,1
1514894370105327,-11,-5,-1,-2,-2,1,-1,-2
1514894370105327,-2,3,-1,2,-2,0,-1,-2
1514894370105817,-4,-3,-4,-3,-2,-2,-2,-3
1514894370105817,-10,-5,-2,-1,-3,-3,-2,-3
1514894370120329,6,-1,0,-1,0,-1,0,1
1514894370120329,1,-4,1,-1,0,0,-1,0
1514894370127333,2,1,0,0,0,0,-1,-1
1514894370127333,4,3,0,-1,0,-1,-1,0
1514894370142353,0,0,-1,1,-2,-2,-1,-1
1514894370142353,-1,-2,-2,0,-1,-2,0,1
1514894370142853,0,-1,-1,0,0,0,-1,0
1514894370142853,-1,-1,-3,-1,-1,1,0,0
1514894370164869,0,-3,0,-1,-1,-1,0,0
1514894370164869,-1,-2,0,-3,-1,-1,-1,-2
1514894370166861,-3,-1,-2,0,-1,0,-1,-1
1514894370166861,1,-1,-2,-2,0,-2,-1,-2
1514894370179369,-3,0,-1,-1,-1,-1,-2,-3
1514894370179369,0,-2,-1,0,-3,-1,-1,0
1514894370187374,-1,-2,0,-1,-2,-1,0,0
1514894370187374,-3,-1,-2,-1,-1,-3,-1,-1
1514894370202886,2,1,-1,-2,0,-1,-2,0
1514894370202886,-2,-2,-1,-2,1,2,-3,0
1514894370203387,-1,-1,-1,-1,-1,-1,1,-1
1514894370203387,-1,0,-1,1,-2,-2,-2,1
1514894370224914,0,-2,0,0,-1,-2,-2,-2
1514894370224914,0,-1,-1,-1,-1,0,0,-1
1514894370225403,-1,2,-1,0,-2,0,-1,-1
1514894370225403,1,-2,-2,-1,-1,0,-1,-2
1514894370238923,-1,-1,-2,-1,-3,-2,1,0
1514894370238923,0,-2,-1,-2,-2,-1,-2,-1
1514894370247418,-1,0,-1,-3,-1,-2,-1,-2
1514894370247418,-3,-1,0,-2,-2,-1,0,0
1514894370262428,-1,0,1,1,0,1,-1,0
1514894370262428,-2,-3,-1,0,0,-2,0,-2
1514894370262943,-2,0,-2,0,0,-2,1,-1
1514894370262943,0,0,-2,-1,-1,-1,1,-2
1514894370284953,0,-1,0,0,-1,1,-2,-4
1514894370284953,-1,-3,-2,-1,-1,-2,-2,0
1514894370285467,-1,-2,0,-1,-2,0,-1,0
1514894370285467,0,0,-2,-3,0,-1,-2,-1
1514894370300455,0,-1,-1,1,-1,0,-1,2
1514894370300455,-3,-2,-1,-2,-2,-3,-2,-3
1514894370307460,-2,-1,-1,0,-2,-2,-3,0
1514894370307460,-2,1,-1,-3,-1,1,-1,-1
1514894370330999,0,-2,-2,-1,-2,-2,-2,-1
1514894370330999,0,-1,0,-1,-1,-2,0,-1
1514894370331477,-1,0,-1,-1,-3,-1,-1,-1
1514894370331477,0,-1,0,-3,0,-1,0,-1
1514894370344496,-2,-4,-3,-2,0,0,-1,-1
1514894370344496,-2,-1,-1,-1,-1,-2,-2,-1
1514894370345497,-1,-2,-2,-1,0,-1,-1,-2
1514894370345497,-1,0,0,0,-1,-1,-1,1
1514894370358996,-1,-2,-1,-2,-2,-1,1,0
1514894370358996,-1,-3,-2,0,-1,-2,-1,0
1514894370367503,0,0,0,-2,0,1,-1,-1
1514894370367503,-2,1,-2,-1,-2,0,-2,-1
1514894370382534,-1,-1,0,-1,-1,-2,0,-1
1514894370382534,-3,-1,-1,0,-1,0,-1,-1
1514894370383015,-1,-1,0,0,0,-3,-1,-2
1514894370383015,-1,-1,-2,-1,-2,-2,-2,-1
1514894370404543,-1,-1,-1,1,-2,-2,-1,1
1514894370404543,-1,0,0,-1,1,-2,-2,-2
1514894370405539,0,1,-2,-2,-2,-1,-2,-1
1514894370405539,-1,0,-1,-1,-3,0,0,-1
1514894370428047,-3,-2,0,-2,-1,0,-1,-1
1514894370428047,-1,-2,-1,-2,-1,-1,0,-1
1514894370428545,0,2,-2,-1,-1,-1,0,0
1514894370428545,0,0,0,0,-1,0,0,-1
1514894370442565,-1,0,-1,-3,-1,-1,0,-2
1514894370442565,0,-2,-2,2,0,1,-1,0
1514894370443055,-1,-3,1,0,0,-1,0,-2
1514894370443055,-1,1,-3,0,-2,-1,-2,-2
1514894370464591,-1,-3,-2,-1,-2,0,-1,0
1514894370464591,-3,-2,-2,-3,-1,0,-1,-1
1514894370465575,2,0,-1,0,0,0,-1,1
1514894370465575,0,2,-2,0,-1,0,-2,-2
1514894370488087,-1,-4,0,-1,0,-2,-2,-2
1514894370488087,-1,-1,-1,-1,-2,0,-2,-2
1514894370488588,-1,0,-1,-1,-1,-1,0,2
1514894370488588,0,0,0,-2,0,-2,-1,-1
1514894370502607,0,-1,0,-3,0,-1,-3,0
1514894370502607,-1,-2,-1,0,-1,0,0,-2
1514894370503107,0,0,0,-1,-1,-2,-1,-1
1514894370503107,-2,-2,0,-1,0,-2,-1,-1
1514894370533131,-3,-2,-3,-1,0,-1,-2,-1
1514894370533131,-1,-3,-1,-2,-2,1,0,0
1514894370533620,-3,0,0,-2,-1,0,-1,0
1514894370533620,0,-1,1,-2,-2,-2,0,0
1514894370548139,1,-2,-2,-1,-1,-2,-2,-1
1514894370548139,0,0,-1,-3,0,-1,0,-1
1514894370548642,0,-1,-2,-3,-2,0,-1,-1
1514894370548642,-2,0,-1,0,-2,1,-1,-3
1514894370562640,-1,0,-2,0,-1,-3,0,0
1514894370562640,0,-3,0,-1,-1,-2,-2,-1
1514894370563141,0,1,-2,-1,0,-1,0,-2
1514894370563141,0,-2,-4,-2,-2,-2,-1,-1
1514894370593663,0,-2,-2,-1,-2,0,-1,-1
1514894370593663,-1,-2,-1,0,-1,0,-1,-1
1514894370594664,0,0,-1,0,-1,-2,0,-2
1514894370594664,-1,-1,-2,-1,1,0,0,0
1514894370608173,-2,-1,-1,0,-2,-1,-1,-2
1514894370608173,-1,-3,-1,1,-1,-2,-3,-1
1514894370608673,-1,1,0,-1,0,-2,-1,-2
1514894370608673,0,1,-1,0,-2,0,0,1
1514894370622181,-1,-3,0,-1,-1,-1,-3,-2
1514894370622181,0,-1,-3,-2,-2,1,0,-1
1514894370623182,-2,-2,0,-1,-2,-1,-2,-2
1514894370623182,-1,-1,-3,-2,0,-3,-1,0
1514894370644707,1,0,-2,-2,-2,-1,0,-1
1514894370644707,-2,-2,-2,0,-1,-1,0,-2
1514894370645708,-1,1,-2,0,-1,1,1,-1
1514894370645708,0,0,1,0,-2,-2,1,-1
1514894370668234,0,-2,0,-1,0,1,0,-2
1514894370668234,-2,-3,-1,-2,0,0,-1,1
1514894370668715,-2,0,-2,-2,-1,-1,-1,-1
1514894370668715,-1,0,-1,-1,1,-2,-1,0
1514894370683227,-1,-2,-1,-1,1,-2,-1,-2
1514894370683227,0,-2,-1,0,-1,-1,-1,-2
1514894370684727,-2,-2,-1,-1,-1,-1,0,0
1514894370684727,0,-1,1,-1,-1,-1,-2,-1
1514894370704741,-2,-2,-1,1,-1,-3,0,-1
1514894370704741,-2,-2,-1,-2,0,-2,-2,-1
1514894370705742,-1,-2,-2,-1,-1,-1,-2,-2
1514894370705742,-1,0,-1,-2,0,1,-1,-1
1514894370727774,-1,-2,-1,-2,-1,0,0,-1
1514894370727774,-1,-1,-1,-1,-1,-1,1,-1
1514894370728774,-3,2,-1,-2,0,-2,-1,0
1514894370728774,-1,3,-1,-2,0,0,-3,-1
1514894370750781,-1,-3,0,-1,-2,-1,-3,-1
1514894370750781,0,-2,-1,0,1,-2,1,-2
1514894370751784,-1,-2,-2,0,0,-1,0,0
1514894370751784,-1,-1,-2,-2,-2,-1,-2,-1
1514894370764784,-2,0,-1,-1,0,-1,0,-2
1514894370764784,1,-4,0,-1,-3,-1,-2,0
1514894370765283,0,-1,-1,0,-3,-2,0,-1
1514894370765283,-1,1,0,-1,-2,0,-2,-2
1514894370787811,0,-1,-1,-1,0,1,0,0
1514894370787811,-3,-1,-2,-2,0,0,-2,-1
1514894370788810,-1,-2,-2,-1,-1,-2,-2,-1
1514894370788810,-1,0,-2,1,-2,-2,-1,-1
1514894370802322,-1,-1,-2,-2,1,-1,-2,0
1514894370802322,-1,-2,-1,0,-2,-1,0,-2
1514894370803323,-2,0,-1,-2,-1,0,-1,-3
1514894370803323,-2,1,-2,0,-1,0,0,-2
1514894370824825,-2,-2,-1,-1,-1,-1,-1,-2
1514894370824825,-1,-2,0,0,0,-1,1,-1
1514894370825334,-1,0,-1,-2,-1,-2,-2,-1
1514894370825334,0,-1,0,-1,0,-2,0,-1
1514894370847847,-1,1,1,1,-3,-1,0,-1
1514894370847847,-3,-4,-1,1,-2,-1,-1,1
1514894370848844,-2,-1,-2,-3,-1,-1,-1,-1
1514894370848844,-1,0,-2,-1,-1,0,0,0
1514894370862352,0,-1,-2,-1,-1,-2,-1,1
1514894370862352,-2,-3,-1,-1,0,0,-1,0
1514894370862859,-1,0,-1,-1,0,0,-2,0
1514894370862859,0,-1,-2,-1,-1,-2,-1,-2
1514894370886369,-1,-4,-1,0,0,0,-2,-1
1514894370886369,0,-3,0,-2,0,-3,0,0
1514894370887369,0,-1,-2,-1,0,0,0,1
1514894370887369,0,0,-2,-2,-1,-1,-2,-2
1514894370907888,-1,-2,-2,-2,-2,0,-1,-3
1514894370907888,0,-3,-1,-1,0,-2,-3,-3
1514894370908887,0,0,-2,0,0,-1,-1,-1
1514894370908887,-1,-1,-1,-2,-2,-3,1,1
1514894370922394,-2,-3,-1,-2,-1,-1,-1,-1
1514894370922394,0,-2,-2,0,-2,1,-1,0
1514894370922894,-1,0,-1,-2,-2,-1,0,0
1514894370922894,-2,1,-1,-2,0,0,-1,-2
1514894370944920,-1,-1,-1,-2,0,1,0,-1
1514894370944920,-2,-2,0,-1,-1,-1,-2,-2
1514894370945420,0,1,0,-1,-1,-2,-1,-1
1514894370945420,0,0,-2,0,-2,-1,0,-1
1514894370968927,-2,-3,-3,0,-1,-2,-1,0
1514894370968927,-3,-3,-1,-2,-2,1,-2,-1
1514894370969428,-1,0,-3,0,0,-1,1,0
1514894370969428,0,-1,-2,-1,0,-1,-1,1
1514894370982442,0,-2,-1,-1,-2,-1,0,1
1514894370982442,-2,0,0,0,-1,-1,-1,-1
1514894370983437,-3,-1,0,0,-1,-3,-2,-1
1514894370983437,-1,1,0,-2,-2,-2,-1,-1
1514894371004952,-1,-4,-3,-2,-1,-3,1,0
1514894371004952,-2,-2,-2,0,-2,-1,0,0
1514894371005453,-1,-1,0,0,-1,0,-1,0
1514894371005453,0,-2,0,-1,-1,0,-2,-2
1514894371028470,0,-2,0,0,-1,0,-1,-2
1514894371028470,0,-3,-1,-3,-1,0,-2,-2
1514894371030471,-1,0,0,-3,-3,0,-1,-2
1514894371030471,-2,0,-1,-2,-2,-1,-1,-1
1514894371041495,-1,-1,-1,0,0,0,-1,-2
1514894371041495,-2,-3,-2,-1,0,0,-1,-1
1514894371049998,-1,1,-1,-2,0,0,-2,-1
1514894371049998,-2,0,-1,-2,-1,-1,2,0
1514894371064495,-1,-1,1,-1,0,0,-1,1
1514894371064495,-3,-1,0,0,0,-2,-2,0
1514894371065495,0,0,-1,0,-2,0,-1,-3
1514894371065495,-1,-1,-2,-1,-3,-1,1,-1
1514894371088012,-2,-2,-2,-2,0,-2,-1,-2
1514894371088012,1,-4,0,-2,0,-1,-1,-1
1514894371088512,0,1,-2,-1,1,-1,-1,-1
1514894371088512,0,-1,1,-2,0,-1,-1,0
1514894371101533,-2,-1,1,0,-1,-1,-1,0
1514894371101533,-2,-1,-4,-1,-1,0,0,-2
1514894371110028,-1,0,0,-1,-2,0,-1,-1
1514894371110028,0,1,-1,0,-1,-1,-1,1
1514894371124537,-1,-5,-1,0,-1,0,-2,0
1514894371124537,1,-1,-1,0,-1,-3,-2,-1
1514894371125537,-1,-1,-1,-1,-2,-2,-1,-1
1514894371125537,0,0,-1,0,-2,-3,-2,-1
1514894371148055,-1,-1,-1,-1,0,-1,0,-1
1514894371148055,-2,-3,0,-1,-1,-1,-1,-1
1514894371148555,-2,-1,-1,-1,-2,1,0,-2
1514894371148555,-2,-1,0,-2,-2,-2,-2,-1
1514894371161564,-1,-2,-2,-1,-2,-2,-1,-1
1514894371161564,-1,-1,-1,-2,-1,-1,0,-1
1514894371169568,-1,-2,-1,-1,1,-2,-1,-2
1514894371169568,-1,1,-2,-1,-1,-1,-2,0
1514894371185080,0,-2,-2,-2,-2,-2,0,-1
1514894371185080,-2,-1,0,1,0,-1,0,0
1514894371186581,-2,0,-3,0,-2,-3,-1,0
1514894371186581,-1,0,-1,0,0,0,-1,0
1514894371207595,-1,-1,-1,-1,0,-1,-1,-1
1514894371207595,0,-2,-1,0,-1,0,-2,-2
1514894371208596,-1,1,0,-1,0,-2,-2,-2
1514894371208596,1,0,-2,-1,-2,-1,-1,-2
1514894371222618,-1,-2,-1,-1,-2,-3,0,-1
1514894371222618,-1,-1,-2,-2,-3,-1,-2,-3
1514894371229621,0,0,0,-1,-2,0,-1,-1
1514894371229621,-2,0,-3,-1,0,-1,-1,-1
1514894371244631,-3,-3,1,-1,-1,0,-1,-2
1514894371244631,0,-2,-1,-1,-1,-1,-2,1
1514894371245632,-2,1,-2,0,-1,-2,-2,2
1514894371245632,-1,1,0,-2,0,-2,-1,-1
1514894371267639,-1,-2,-2,0,-3,-2,-1,0
1514894371267639,-1,-3,0,-2,1,0,-1,-2
1514894371268649,0,-1,-2,-2,-2,-1,-1,-2
1514894371268649,-2,1,0,-1,-1,-2,-1,0
1514894371281658,0,-3,-3,1,1,-1,0,-1
1514894371281658,-2,-3,-1,0,0,-2,-2,-1
1514894371298169,-1,1,-1,-1,-2,-1,0,-1
1514894371298169,-1,0,-2,-1,-2,1,0,-1
1514894371305678,-1,1,1,-1,-2,-1,-3,-2
1514894371305678,-2,-2,0,-2,-2,-1,-1,0
1514894371306686,-2,-1,-2,0,-3,-1,-1,-1
1514894371306686,-1,0,-1,-2,-1,0,-1,-2
1514894371327684,-2,-2,0,2,1,0,-1,0
1514894371327684,1,-4,-1,-1,0,-1,-2,-2
1514894371328682,-2,-2,-1,-1,-1,-1,0,-3
1514894371328682,-1,-1,-1,-1,0,0,-1,-3
1514894371341691,0,-1,-1,-1,-2,-1,-1,-1
1514894371341691,-1,-1,0,-1,-1,-1,2,-1
1514894371349697,-2,0,0,-1,-1,-1,-2,0
1514894371349697,1,-1,-1,-1,-1,-3,-2,0
1514894371364707,1,0,0,-3,-2,-2,-1,-3
1514894371364707,-2,-2,-2,-1,-3,0,-1,-3
1514894371366719,-1,0,-2,0,-3,-3,-1,-2
1514894371366719,-1,-1,-3,0,-2,0,-1,-1
1514894371388726,-1,-3,-1,0,0,0,-3,-1
1514894371388726,-1,-2,-1,-2,-2,-2,0,1
1514894371390235,-1,-3,0,-1,0,-2,-1,-2
1514894371390235,0,-2,-2,0,0,-1,-1,-1
1514894371410739,-1,-1,0,-2,-1,-1,-2,0
1514894371410739,-2,-1,-1,-2,-2,0,-2,-1
1514894371411240,-2,2,-2,-2,0,-1,-2,-1
1514894371411240,-1,0,-1,-1,-2,-1,-2,0
1514894371424757,-1,-2,-2,-3,0,-2,0,0
1514894371424757,-1,-2,-1,1,-1,-2,-3,-1
1514894371425753,-1,-1,-1,-1,0,0,0,1
1514894371425753,-2,0,0,-1,0,-2,-1,1
1514894371449266,0,-2,-1,-1,-4,-2,1,-3
1514894371449266,-2,0,1,0,-1,0,0,0
1514894371450272,-1,0,-2,-2,1,-2,0,0
1514894371450272,-2,-1,-1,-1,0,0,-1,-1
1514894371470782,0,-2,-2,0,0,1,-1,-1
1514894371470782,-2,-2,0,0,0,-2,-1,-2
1514894371471284,1,1,1,-1,-1,0,0,-1
1514894371471284,2,0,-2,-2,-1,-2,0,0
1514894371485299,-2,-2,-1,0,-1,-3,-4,-2
1514894371485299,-1,-4,0,-3,-1,1,-1,-2
1514894371485794,-3,2,0,-1,-2,-2,-1,-1
1514894371485794,-2,1,-2,0,0,-2,0,-2
1514894371515314,-2,-2,-2,-2,0,0,0,-1
1514894371515314,-1,-2,-2,0,-1,-2,-2,-1
1514894371516314,0,-1,-2,0,0,0,0,-1
1514894371516314,-3,0,-1,-2,-2,0,-2,-1
1514894371530324,0,-2,-2,-1,-2,-2,0,1
1514894371530324,-3,-4,-3,-1,-1,0,-2,0
1514894371531324,-1,0,0,-1,-2,-1,-2,0
1514894371531324,-2,0,-1,-2,-1,0,-1,-3
1514894371544835,-1,-1,1,0,0,-2,-3,-2
1514894371544835,0,-1,-1,0,0,-2,0,0
1514894371545336,1,0,-1,-1,-1,-2,-1,0
1514894371545336,-1,0,-1,-1,-1,-1,-1,-2
1514894371568354,-1,-2,-1,-2,-1,-1,-1,-2
1514894371568354,-1,0,-1,0,-1,0,-1,-1
1514894371568853,-1,-2,0,1,0,0,-1,-1
1514894371568853,0,-1,0,-1,-1,-1,-1,-1
1514894371590366,1,-2,0,0,0,0,-1,1
1514894371590366,-2,-3,-3,-2,0,-2,-1,-1
1514894371591368,-2,-1,-2,-2,-1,-1,-1,-1
1514894371591368,-1,1,-1,-1,0,-2,-2,-1
1514894371604882,-3,-3,0,1,-2,-2,-1,-1
1514894371604882,0,-1,2,-1,-1,-1,-2,-1
1514894371605883,0,0,-2,-2,-1,-1,-1,-2
1514894371605883,0,-1,-1,-1,-2,-1,1,-2
1514894371628893,-1,-2,-3,-3,-1,-1,1,-1
1514894371628893,-1,-1,0,1,0,0,0,-1
1514894371630395,-1,-1,0,-1,-1,-2,-1,-1
1514894371630395,0,1,0,-1,-3,-2,-2,-1
1514894371650409,-1,-2,-1,-2,-1,0,-1,0
1514894371650409,-2,-2,0,-2,-2,0,0,-2
1514894371651410,-2,0,-2,-1,-1,-1,-1,-2
1514894371651410,0,-1,-3,-1,-2,-2,-1,-1
1514894371664919,-3,-1,0,-1,-2,-1,-2,1
1514894371664919,-2,-1,-1,-2,0,-2,0,0
1514894371665421,-2,0,0,1,0,-2,-4,-2
1514894371665421,-1,-2,-2,-2,0,0,-2,0
1514894371687937,-2,-1,-1,-1,1,1,-1,-4
1514894371687937,-1,-2,-1,-1,-1,-1,0,1
1514894371693944,-2,0,-2,-2,-2,-1,-1,-1
1514894371693944,-1,0,-1,0,0,-3,-1,-1
1514894371710452,-1,-3,-2,0,0,0,-1,-1
1514894371710452,-1,-2,-1,0,-1,1,-3,-1
1514894371716958,0,0,-3,-4,-1,-1,0,-1
1514894371716958,-2,-2,-1,-1,0,0,0,1
1514894371723961,-1,-1,-1,0,-2,-2,-2,-1
1514894371723961,0,-1,0,-1,-1,-2,-1,-1
1514894371734973,-1,0,-1,0,-1,-2,-1,0
1514894371734973,-1,2,0,-1,-2,-2,0,-2
1514894371747978,0,0,-1,-2,0,-1,-2,-2
1514894371747978,-1,-1,0,-1,-1,-1,-2,-2
1514894371749479,0,-2,-1,-2,-3,0,0,-1
1514894371749479,-1,-2,-1,-3,0,-1,-3,-1
1514894371770501,1,-2,-2,-1,-1,-3,0,0
1514894371770501,-1,-2,-2,-1,0,-3,0,-3
1514894371771998,-2,1,-2,-1,-1,0,-1,-1
1514894371771998,-3,-1,-1,-1,-2,-1,-2,-1
1514894371784003,0,-4,-1,0,-4,-1,-2,0
1514894371784003,-1,-3,-1,-1,-2,0,-2,0
1514894371793010,1,2,-1,-1,0,-2,-1,-1
1514894371793010,-1,0,-2,-2,-1,0,-2,1
1514894371808021,-1,-1,0,1,0,0,-2,-3
1514894371808021,-1,0,-1,0,0,-1,2,-1
1514894371809522,-2,0,0,0,-1,-1,0,-2
1514894371809522,-1,0,1,0,-1,0,-1,-1
1514894371830539,-3,-1,-1,-2,-1,0,-3,-1
1514894371830539,-1,-2,-1,1,-1,-1,-2,-1
1514894371832037,-2,-2,-2,0,-1,-2,0,0
1514894371832037,2,-1,-1,-2,-1,-1,0,-2
1514894371844547,-1,-2,-1,-1,-2,-1,0,-1
1514894371844547,-2,-1,-3,0,0,0,-2,-1
1514894371853554,0,0,-1,-1,-2,-2,-1,-1
1514894371853554,-1,-2,-1,-3,0,-3,0,-1
1514894371868572,0,-2,0,-4,-2,-1,1,-1
1514894371868572,-2,-3,0,-2,-2,0,-1,0
1514894371869565,1,-1,0,-1,0,0,-2,-1
1514894371869565,0,1,-2,2,-2,-1,0,-2
1514894371890078,-2,0,-2,-1,-1,0,-2,-1
1514894371890078,-2,-3,-2,-1,0,0,-1,-1
1514894371893080,-1,-2,0,-2,0,-1,-1,0
1514894371893080,-3,0,-2,-2,0,0,1,-3
1514894371904091,-1,-2,0,-2,-1,-2,-2,-2
1514894371904091,0,-1,-1,-2,-2,0,-1,-1
1514894371913094,-1,0,-3,1,-1,-1,-3,-1
1514894371913094,-1,1,-2,-1,-2,-2,0,-1
1514894371928606,-3,-3,0,1,1,-2,-3,0
1514894371928606,-2,0,0,-2,0,-1,-1,-2
1514894371930124,0,-2,-1,-2,0,-1,-1,-1
1514894371930124,-1,-1,0,-1,-2,-1,-1,-1
1514894371950639,0,0,-1,-2,-1,-2,0,-3
1514894371950639,1,-2,0,0,-1,-2,0,0
1514894371952123,0,-1,-1,-1,-1,-1,-1,-2
1514894371952123,1,0,-1,-1,1,-1,-2,0
1514894371964143,0,-2,-1,1,0,-2,1,0
1514894371964143,-2,-1,-1,1,-1,-1,1,-1
1514894371980652,-2,0,-1,-1,-2,-1,-1,-2
1514894371980652,-1,0,-2,-1,-3,-2,-1,-1
1514894371996163,-1,-4,-1,-2,0,0,-3,-1
1514894371996163,-3,0,-1,-1,-3,-1,0,-1
1514894371997664,-1,-1,-2,-1,-1,1,1,-1
1514894371997664,-2,-2,-1,-2,-2,-1,-2,-2
1514894372010687,-1,-2,-2,-2,0,-3,0,0
1514894372010687,0,-2,-1,-1,-1,-1,-2,0
1514894372012174,-1,0,1,-4,-1,0,-3,-2
1514894372012174,-1,-1,1,-1,-2,-2,-1,-1
1514894372024173,-1,0,-1,0,-2,-2,0,1
1514894372024173,-2,-1,-2,-1,-1,-2,0,-1
1514894372033181,-2,-1,-2,-1,0,-1,-1,-1
1514894372033181,-1,0,-2,-1,-1,0,0,-1
1514894372048190,-3,-3,-1,0,-1,-1,-2,0
1514894372048190,-1,-1,0,-1,-1,0,0,0
1514894372049710,-1,-1,-3,-1,-1,-2,-1,1
1514894372049710,-1,-1,-2,0,-2,-2,-1,-2
1514894372070706,0,-2,-1,0,-3,-1,-1,-1
1514894372070706,0,-1,-1,-2,-1,0,-1,-2
1514894372072222,0,-1,-2,0,-1,0,0,-2
1514894372072222,0,-1,0,-2,0,-1,-3,-2
1514894372084220,1,0,0,-2,0,-2,-1,-3
1514894372084220,-1,-1,1,1,-2,-2,-1,-2
1514894372093223,-3,0,-1,-1,-1,-1,-1,0
1514894372093223,0,-2,-2,-2,-1,-1,0,-1
1514894372108235,-1,-2,-3,-2,-1,1,0,-1
1514894372108235,-3,-1,-3,-1,0,-1,-1,-1
1514894372109743,0,-2,-1,0,-1,-2,0,-1
1514894372109743,-1,0,-2,-1,-1,-1,-1,-2
1514894372130760,0,-1,-1,-1,-2,-1,-2,-2
1514894372130760,0,-2,-1,1,0,0,-1,-1
1514894372132754,0,-1,0,-1,-3,0,-1,-3
1514894372132754,-1,0,0,-1,0,-2,0,0
1514894372144267,-1,-3,-1,-2,-2,-1,0,0
1514894372144267,-1,-2,-2,-2,-1,-1,0,1
1514894372153282,-1,0,-1,-2,-1,-2,-1,-1
1514894372153282,-2,0,-1,-1,-1,0,-1,-1
1514894372167784,-4,-2,-3,-3,0,-2,-1,0
1514894372167784,-1,0,-1,-1,-1,0,-3,-1
1514894372169785,0,-2,-1,-1,-1,-1,-2,0
1514894372169785,-2,-1,-2,-1,-2,-3,-2,0
1514894372190790,-3,-2,-1,0,-1,-2,-1,-1
1514894372190790,0,-2,-2,-1,0,-1,-1,0
1514894372192302,-2,1,-1,-2,-1,-3,-1,-2
1514894372192302,-1,-1,-2,-2,0,-1,0,0
1514894372205306,-1,-1,-2,0,0,0,0,-1
1514894372205306,-1,-1,0,-2,0,-2,-2,-1
1514894372219828,-1,0,-2,0,-2,0,0,0
1514894372219828,-2,0,-1,-1,-1,-3,-1,-1
1514894372227818,1,-1,-1,-2,-2,-1,-1,-2
1514894372227818,0,1,0,0,-1,0,0,-1
1514894372229328,0,2,-2,-1,-1,0,-1,-1
1514894372229328,-1,-1,-2,0,-1,-1,-1,-2
1514894372250336,0,-2,-1,-3,0,-1,-1,1
1514894372250336,-1,0,-1,-2,-1,-2,-1,-1
1514894372256346,-2,-2,-1,0,0,-1,-1,-2
1514894372256346,-1,-2,-1,0,-2,0,1,-1
1514894372263864,-2,-4,1,2,-1,-1,1,-2
1514894372263864,-1,-1,-1,-1,-2,-1,-1,-1
1514894372272849,-1,-2,0,-3,-1,-1,-2,0
1514894372272849,0,-1,-1,-2,-2,0,-1,-1
1514894372287869,-1,-2,-2,-2,-2,0,-1,0
