timestamp,emg1,emg2,emg3,emg4,emg5,emg6,emg7,emg8
1513487313692018,0,-1,1,-2,-2,-2,-3,0
1513487313692018,0,-1,-1,0,0,1,-1,-2
1513487313698019,-1,0,-1,-1,-2,-1,-2,-2
1513487313698019,-2,-1,-2,-2,-1,-1,1,-1
1513487313715031,-2,-2,-2,-2,0,-1,0,-3
1513487313715031,0,-3,-1,-1,-1,0,0,-2
1513487313716033,1,1,-1,-1,0,-2,0,0
1513487313716033,0,-1,0,0,-2,-1,-2,-1
1513487313736046,-1,0,1,-1,2,0,0,-1
1513487313736046,0,1,0,-1,-2,-1,-2,0
1513487313754059,0,-2,-2,-1,-2,0,0,-3
1513487313754059,-2,-1,-2,0,1,0,0,-1
1513487313755061,-1,-2,0,0,-3,0,-1,-1
1513487313755061,1,0,-1,-2,-2,-2,0,-1
1513487313758061,-1,0,-2,-1,-3,-3,0,0
1513487313758061,-2,-1,0,-2,-1,0,0,-1
1513487313775094,0,-2,-3,-1,-1,-1,0,0
1513487313775094,-1,-1,-1,-2,-1,-2,-2,-2
1513487313776075,-2,-1,-2,-2,-1,-1,0,-2
1513487313776075,0,0,-1,0,-1,-1,-2,0
1513487313797106,-2,-2,-1,-1,-2,0,0,-2
1513487313797106,-2,-2,-2,-3,1,-1,-2,0
1513487313799121,-2,-1,0,-2,0,-1,0,-1
1513487313799121,1,0,1,-1,-1,-1,-1,0
1513487313811099,1,0,-1,-2,-1,-1,0,0
1513487313811099,-2,-1,0,0,-2,-1,-3,-4
1513487313818104,-2,-1,-1,-2,0,0,-1,1
1513487313818104,-2,1,-1,0,-2,-2,-2,0
1513487313835116,-1,-1,-1,-2,-2,-1,-1,0
1513487313835116,-2,-2,-2,-1,-2,-1,-2,-1
1513487313836120,-1,-2,-1,-1,0,-1,0,-1
1513487313836120,0,-1,0,-1,0,0,0,-1
1513487313857142,-2,-1,0,2,-1,-1,-2,-2
1513487313857142,0,0,-2,0,-2,-3,-1,0
1513487313859135,1,0,-2,-3,-1,-1,0,-1
1513487313859135,0,-1,-3,-3,0,0,2,-1
1513487313871142,-2,1,-1,0,-1,-1,-1,0
1513487313871142,-2,-2,-1,-1,0,-2,-3,-1
1513487313878149,-2,-1,-1,0,-1,-1,-1,-2
1513487313878149,-3,-2,0,0,-1,-1,1,-1
1513487313895159,0,-1,-1,0,-2,1,0,0
1513487313895159,-1,-3,-3,-1,0,-1,1,-2
1513487313897160,1,-1,0,0,-2,0,-1,1
1513487313897160,-2,-2,1,-1,-4,0,1,-1
1513487313917174,-1,-2,-1,-1,-1,-2,0,-1
1513487313917174,-2,-2,0,0,0,-1,1,-1
1513487313919178,-1,-1,-2,-2,-2,-2,-2,-1
1513487313919178,0,0,-1,0,-1,-1,-1,0
1513487313931184,-1,-1,0,-1,-1,0,-1,-2
1513487313931184,-2,-2,-2,-1,-1,-2,-2,1
1513487313940190,-1,-1,-2,-1,-2,-1,0,-1
1513487313940190,0,0,0,1,-2,-1,-1,0
1513487313954200,-1,-1,-1,-3,0,-4,-1,1
1513487313954200,-2,-3,-2,-1,-1,0,-1,0
1513487313956202,-1,-2,-1,-1,0,0,-1,0
1513487313956202,-1,-1,-1,-1,-2,-1,-3,0
1513487313977272,1,-2,-2,-1,-1,0,-1,-2
1513487313977272,-2,-1,0,-1,-1,-1,-3,0
1513487313979219,-1,-2,-2,0,-1,-4,-2,-2
1513487313979219,0,-1,-1,-1,-1,0,-1,-2
1513487313991227,0,-2,-1,-1,-1,-1,-1,0
1513487313991227,-1,0,-2,-2,0,-2,-1,-2
1513487314006237,-1,-1,-1,0,-2,-1,0,0
1513487314006237,-3,0,-1,-2,0,-2,0,-1
1513487314014243,-4,-1,-1,0,0,-2,-2,-4
1513487314014243,-2,-3,-1,-1,-2,-1,-3,-1
1513487314021247,0,-2,-1,-2,-1,-2,-1,0
1513487314021247,-2,-1,0,0,-1,-1,-2,-1
1513487314044264,0,-1,1,-1,1,0,0,-1
1513487314044264,-1,-1,-3,2,0,-2,-1,-2
1513487314046265,-1,0,-1,0,-1,-1,-2,-1
1513487314046265,0,-1,-1,-2,-1,-2,-2,-1
1513487314051269,0,0,-2,-1,-2,0,-1,-1
1513487314051269,-2,-2,0,-1,0,-2,-2,-4
1513487314060275,0,0,0,-2,0,0,-3,-1
1513487314060275,-1,-1,-1,-1,-2,0,0,1
1513487314074287,-2,1,-2,-3,-2,-1,1,-2
1513487314074287,0,-1,0,-1,0,0,0,-1
1513487314076286,-1,-1,-2,0,0,-2,0,-1
1513487314076286,0,-1,-1,0,-2,-1,-2,1
1513487314097304,-1,-3,-1,-2,-2,-3,-2,-1
1513487314097304,-1,0,-1,-2,-1,0,-1,-3
1513487314099304,-2,-2,-1,-1,-1,1,-2,-1
1513487314099304,0,-1,-1,0,-2,0,-1,-1
1513487314111312,-1,-3,-1,1,-1,1,-2,0
1513487314111312,-1,-1,-1,-1,-1,-1,1,0
1513487314120321,0,-2,-2,-1,-1,-2,-1,0
1513487314120321,0,-2,0,-1,-2,0,0,-1
1513487314135329,-1,-2,-2,-2,0,0,-2,-3
1513487314135329,-1,0,-2,-2,-1,0,-3,-1
1513487314136329,0,0,0,-2,-1,0,-1,0
1513487314136329,-2,-2,-1,0,-1,1,1,-1
1513487314157362,1,-3,0,1,-1,-1,-1,0
1513487314157362,-2,-2,-1,-1,-1,-1,-2,-1
1513487314158363,-1,-1,-1,-1,-1,0,-1,-2
1513487314158363,-1,1,-1,-2,0,-1,0,-2
1513487314170357,-3,-3,1,-2,0,-2,-3,0
1513487314170357,-1,-1,0,-1,-1,-2,-2,-1
1513487314180379,0,-3,-1,-2,-2,-2,-1,-3
1513487314180379,1,0,1,-2,-2,-1,-1,-2
1513487314194370,0,0,0,0,-1,-1,-1,-1
1513487314194370,-1,-4,0,-2,0,-2,-1,-1
1513487314196372,-4,0,-1,0,-1,0,-1,-2
1513487314196372,-2,3,-2,-3,0,-1,1,0
1513487314233415,-2,-1,-3,-1,-2,-1,-1,-2
1513487314233415,-2,-2,-3,-1,-1,-1,-2,-1
1513487314234398,-2,-1,0,-2,-1,-1,-1,0
1513487314234398,0,-2,-1,1,-2,0,-2,-1
1513487314235407,-2,-2,-1,-1,-4,0,0,-2
1513487314235407,-1,-2,-2,-1,0,-3,-2,-2
1513487314239414,1,-2,-2,-1,0,-3,2,1
1513487314239414,-1,0,-1,-2,-2,-2,-3,0
1513487314254430,1,-1,0,-2,1,-3,-3,-1
1513487314254430,0,-1,-1,-2,-1,-2,0,0
1513487314256417,0,-1,-2,0,1,0,-1,1
1513487314256417,-2,-2,0,-1,0,1,0,-2
1513487314276428,-3,-1,-2,-1,0,0,0,1
1513487314276428,-1,-1,-1,-1,-1,-1,1,-2
1513487314285435,0,0,0,-2,-2,-1,-1,-3
1513487314285435,0,0,0,-1,-1,0,2,1
1513487314290438,-2,-2,-2,-2,0,0,-2,-1
1513487314290438,-2,-4,-1,-1,0,0,-2,1
1513487314307450,-1,-1,-2,-1,-2,-2,-1,0
1513487314307450,-1,0,-3,-1,0,-1,0,0
1513487314314467,-2,0,-3,-3,-1,-3,0,-2
1513487314314467,2,-1,-2,0,0,0,0,0
1513487314316469,0,-1,0,-1,0,0,0,-2
1513487314316469,0,1,1,-1,-1,-2,-2,0
1513487314337471,0,1,-1,-1,0,-1,0,0
1513487314337471,-2,-2,-1,-2,-2,0,-2,-1
1513487314338473,-3,-1,-3,-2,-2,0,-1,0
1513487314338473,0,-2,-2,-2,-2,-3,-1,-2
1513487314350480,-2,0,0,0,-1,-1,-1,-1
1513487314350480,-3,-2,-3,-1,-2,-3,0,-2
1513487314367493,-2,-1,-1,-2,1,-2,-1,-1
1513487314367493,-1,-3,0,0,-3,0,0,-2
1513487314374499,-1,-3,-1,0,-1,0,-3,-1
1513487314374499,0,0,0,-1,1,-1,-2,0
1513487314376499,-1,-1,0,-1,-3,-1,-1,-1
1513487314376499,0,0,-1,-1,-1,-2,0,-1
1513487314397537,-3,0,0,-1,-1,0,-3,-2
1513487314397537,-1,-1,-2,-2,0,-3,0,-1
1513487314398524,3,1,-2,-2,-1,0,0,-1
1513487314398524,0,-1,0,-1,0,1,-1,-1
1513487314419530,-2,-2,-2,0,-3,0,0,0
1513487314419530,-3,-1,-2,-1,-1,0,-1,-1
1513487314421543,-2,-1,1,0,-1,-1,-3,0
1513487314421543,-1,0,0,-1,-1,-1,-1,-1
1513487314434540,0,0,-3,-2,0,0,-1,0
1513487314434540,0,0,0,-1,-2,-1,-1,-2
1513487314436542,-2,-2,-1,0,-2,0,1,0
1513487314436542,-1,1,-1,0,-1,0,-2,-1
1513487314457556,0,-2,-1,-1,0,-2,-2,-2
1513487314457556,-2,0,-3,-1,-1,-1,-1,0
1513487314458557,0,0,-2,-2,-2,0,0,0
1513487314458557,-2,1,-1,-1,-2,-1,-1,0
1513487314479571,-2,0,-2,-2,-2,-3,0,-1
1513487314479571,0,-2,0,1,-2,-1,-1,-3
1513487314481573,0,-1,-1,-1,-1,-2,-1,-1
1513487314481573,0,-2,-1,-1,1,0,-2,-1
1513487314493582,-1,-1,0,0,-1,-1,-1,-1
1513487314493582,-3,-2,-1,0,-1,-1,0,-1
1513487314502588,-1,-1,-1,0,-1,-1,-1,-1
1513487314502588,-2,-2,-1,0,-2,-1,-1,0
1513487314517613,-2,0,-2,1,-1,-1,-4,-1
1513487314517613,-1,-1,0,-2,-2,-2,-1,0
1513487314518600,0,0,-2,0,-2,-1,-1,-1
1513487314518600,1,-1,-2,0,-2,-2,0,-1
1513487314555637,-2,0,0,-2,-2,0,-3,-2
1513487314555637,0,0,-1,-2,0,-1,-1,0
1513487314557628,-2,-1,-1,-2,1,-1,-1,0
1513487314557628,-2,-1,0,-1,-1,0,-1,-1
1513487314558645,-1,-3,-1,-1,-2,-2,-1,-2
1513487314558645,-2,-1,-1,-1,0,-2,-1,-2
1513487314562648,-2,2,-1,-2,-2,0,0,0
1513487314562648,0,-1,-2,-2,0,-2,-1,-1
1513487314577717,0,-4,0,-1,-2,-1,-2,0
1513487314577717,-2,-1,-1,-1,0,0,-1,0
1513487314579703,-2,-1,0,0,-3,-1,-1,-1
1513487314579703,-2,0,-1,-1,-2,-1,1,-1
1513487314599739,-2,-2,-2,0,0,0,-2,1
1513487314599739,0,-4,-3,-1,-2,-4,-1,-1
1513487314601709,0,-1,0,-1,0,-1,0,1
1513487314601709,0,1,-1,-1,-1,-1,-1,0
1513487314613740,-1,0,-3,0,0,-1,1,-1
1513487314613740,-2,0,-2,-1,0,0,-1,-1
1513487314620746,-1,-1,0,-1,0,-2,-1,0
1513487314620746,-1,-2,-1,-2,-3,-1,-1,-1
1513487314636735,-2,-1,0,-2,0,-1,-2,-2
1513487314636735,-3,0,-1,-1,0,-1,-2,-2
1513487314638736,-1,0,-1,-2,1,1,1,0
1513487314638736,0,-1,-1,-1,-1,0,-2,-1
1513487314659764,-1,-2,0,-2,-1,-3,-1,0
1513487314659764,-1,-1,-1,0,0,-1,-4,-2
1513487314661763,0,1,-1,0,-1,0,-1,-3
1513487314661763,-2,-1,-1,-1,0,0,1,0
1513487314673771,-2,-1,-2,1,0,1,0,-3
1513487314673771,-1,-2,0,-1,-1,0,-2,-2
1513487314680779,0,-3,-1,0,-1,-1,0,-2
1513487314680779,-1,-1,-2,-1,0,-1,0,1
1513487314697787,-1,-1,-2,-1,-1,-2,-4,-2
1513487314697787,-2,-1,-1,-2,-1,0,-1,0
1513487314699782,-1,-1,-1,-1,-2,1,0,0
1513487314699782,0,0,1,0,-2,-1,1,-2
1513487314719794,-2,-1,-1,-2,0,-2,-1,-2
1513487314719794,-1,-1,0,-1,-2,-2,-2,-2
1513487314720795,-1,-1,0,-2,-1,-2,0,-1
1513487314720795,-1,-1,-1,0,-1,-1,-1,1
1513487314732812,0,0,-2,-2,0,-2,-1,0
1513487314732812,1,-1,-1,0,-1,-4,-3,-2
1513487314741818,-1,1,-1,0,-1,-3,-2,-1
1513487314741818,-2,-1,-1,-2,-2,-1,-2,-2
1513487314756839,-2,-2,-2,-1,-1,-2,-1,-4
1513487314756839,-1,1,-2,-3,0,-1,-2,-2
1513487314757820,0,-1,-1,-1,-1,0,1,-1
1513487314757820,-2,-2,-1,0,-2,-2,-1,-1
1513487314778838,0,-3,-1,0,-1,1,-2,0
1513487314778838,-1,0,-1,0,-4,-1,1,0
1513487314779836,1,-1,0,-2,-1,0,-1,0
1513487314779836,1,0,1,0,-1,-1,-3,-2
1513487314792865,-4,-2,0,-2,0,-3,-1,-1
1513487314792865,0,-2,-2,0,1,-2,0,1
1513487314801852,-1,0,-1,0,-1,-2,0,-1
1513487314801852,-2,0,-1,-1,-4,-1,0,0
1513487314816878,0,-3,0,-2,-3,-2,1,1
1513487314816878,-2,-3,-2,0,0,-1,-2,-1
1513487314816878,-2,0,-3,-1,-3,-1,-2,-2
1513487314816878,1,-1,-1,0,0,0,-2,0
1513487314846883,1,-1,-1,-1,-1,-2,-3,-2
1513487314846883,-1,-2,-2,-1,-2,-2,-1,-2
1513487314847884,0,-2,0,-2,-1,-1,-1,0
1513487314847884,-3,3,-1,-1,1,-2,-1,-3
1513487314852903,0,-1,-1,-1,0,-2,-1,-4
1513487314852903,0,-2,-1,0,-2,0,-1,0
1513487314861909,0,-2,-1,-1,0,-3,-1,-3
1513487314861909,0,-2,0,-2,-2,0,0,0
1513487314876905,-2,-3,-3,-2,-1,-1,-2,-1
1513487314876905,0,-2,-1,-1,0,-2,1,-1
1513487314876905,1,-2,-1,0,-3,-1,0,1
1513487314876905,0,1,-1,-1,0,-1,-4,-2
1513487314898944,-2,-1,0,0,-2,-2,-4,-2
1513487314898944,-1,-2,-2,-1,-1,-1,-2,-3
1513487314899930,-3,0,0,-1,-1,-1,-1,1
1513487314899930,-3,-2,-2,0,0,0,2,-2
1513487314912985,0,-3,-2,-2,-1,-1,-2,-1
1513487314912985,-2,-1,-2,-2,-1,-2,-1,0
1513487314921935,-1,0,2,0,-1,-1,0,0
1513487314921935,0,0,0,-1,-2,-2,2,-2
1513487314936947,-1,1,-1,-1,-2,0,-2,0
1513487314936947,-1,-2,-1,-1,-1,-1,-1,-1
1513487314936947,-1,-2,-2,-2,1,0,0,-2
1513487314936947,0,-1,-2,-1,-2,-2,-1,-1
1513487314958974,-1,-2,-1,1,-2,-1,1,-2
1513487314958974,0,-2,-2,-1,-1,-1,-1,-3
1513487314959975,-1,-1,0,0,-1,-1,-1,0
1513487314959975,-2,0,0,-1,-1,1,-1,2
1513487314972987,-1,0,-1,-1,1,-3,-1,-1
1513487314972987,-2,0,0,-1,1,0,-1,-3
1513487314982043,-1,0,0,-1,-2,-1,1,-2
1513487314982043,0,1,0,-2,0,-1,1,-1
1513487314997049,-2,-3,-2,0,-1,0,-3,0
1513487314997049,-2,-1,-2,0,-3,0,-1,0
1513487314997049,1,-1,0,-2,0,0,0,-5
1513487314997049,0,-2,0,-1,-1,0,-1,-1
1513487315019049,-1,-2,0,-2,-1,-1,-2,0
1513487315019049,-1,-4,-1,0,-2,-3,-1,-2
1513487315020049,-1,1,-1,0,-1,0,-1,1
1513487315020049,-3,-1,-1,-1,0,-2,0,1
1513487315033060,-1,0,0,1,0,-1,-1,-3
1513487315033060,-1,0,-2,-1,-1,0,0,1
1513487315041076,0,0,-2,-2,-2,0,-1,0
1513487315041076,-1,-1,-1,0,-1,0,0,-2
1513487315057079,-3,-1,-1,-1,0,-1,-1,0
1513487315057079,-2,0,0,0,-1,-1,-2,-2
1513487315058081,-2,1,0,-1,-1,-3,1,1
1513487315058081,-1,0,0,-2,-1,-1,0,-2
1513487315079093,-2,-2,-1,-2,-2,-1,-2,0
1513487315079093,0,-2,0,1,1,-2,-1,-2
1513487315080096,-1,0,-2,-3,1,-1,-2,-1
1513487315080096,-3,-1,-2,-1,-1,-1,-1,0
1513487315093111,-1,0,-2,-1,-1,-2,-1,-2
1513487315093111,0,0,-1,-1,-2,-1,-3,-1
1513487315101116,1,0,0,0,-2,0,0,1
1513487315101116,0,-1,0,1,-1,0,-2,0
1513487315116138,-2,-2,0,-3,0,1,-2,-3
1513487315116138,-1,-2,0,-4,1,-1,-2,-1
1513487315117129,-1,-1,-1,-2,0,1,1,-1
1513487315117129,0,-3,-2,-1,-1,-1,-2,-1
1513487315139143,-1,-3,-1,-1,-2,-1,1,0
1513487315139143,-2,-1,-1,-2,-1,-1,-3,0
1513487315140144,-2,-2,0,-1,-1,-1,-2,-2
1513487315140144,-2,0,-1,0,-1,1,1,-3
1513487315153144,-2,-2,-3,0,0,0,-2,-2
1513487315153144,-1,-2,-2,-2,-1,-2,-1,0
1513487315161159,-1,-1,-1,-3,-2,-1,0,0
1513487315161159,-2,0,-1,-1,-2,-1,-3,0
1513487315176183,0,0,0,0,-1,0,-3,-1
1513487315176183,0,-1,-2,-1,-2,-1,2,-1
1513487315177174,0,1,-2,1,-1,1,-1,-2
1513487315177174,0,-1,-1,-3,-2,-2,-1,0
1513487315199200,-3,-1,0,1,-1,-2,0,-2
1513487315199200,-1,-2,-1,-2,-2,0,-1,-1
1513487315200197,0,-1,-2,0,-1,-2,-2,-2
1513487315200197,-2,0,-2,-2,-1,-1,-1,-3
1513487315213205,0,-3,-2,0,-2,-1,-2,-2
1513487315213205,-1,-1,-1,1,-2,-1,-3,-1
1513487315221210,-1,-1,1,-1,-2,1,-1,0
1513487315221210,-1,0,-2,0,-1,-1,0,-1
1513487315236223,-3,-2,-1,-2,0,-2,-1,-3
1513487315236223,-1,-2,-2,0,0,-1,0,-2
1513487315237225,-1,0,-2,-2,-1,-1,1,1
1513487315237225,-1,-1,-2,0,0,-1,-4,-2
1513487315259240,-1,-2,-2,-2,0,-1,1,-2
1513487315259240,-2,0,-1,-2,-1,-1,0,-1
1513487315260240,-2,-1,0,-1,-2,-1,1,-1
1513487315260240,-2,-2,1,-1,0,-2,-1,0
1513487315273242,1,-1,-2,-2,-2,0,-2,-1
1513487315273242,-2,-1,-1,-3,1,-1,-2,-2
1513487315281249,-1,0,0,-2,0,-2,-1,1
1513487315281249,-2,0,-1,-1,0,1,-2,0
1513487315296245,-1,-2,-3,0,-1,0,-2,0
1513487315296245,0,-1,-3,-3,0,-1,-2,0
1513487315298250,-1,0,-1,1,-2,-1,0,-1
1513487315298250,-1,-2,-1,-2,-2,-1,0,-1
1513487315319285,0,-2,-1,-2,-1,-2,0,0
1513487315319285,-2,-3,-2,0,-1,-1,0,0
1513487315320276,1,-1,0,-1,-2,-3,-2,-3
1513487315320276,-1,-1,-1,0,-1,0,-1,-1
1513487315342298,1,-2,-1,0,-1,-3,-3,-2
1513487315342298,-1,1,1,0,1,-2,-1,-3
1513487315343281,-1,0,0,-3,-2,1,-2,2
1513487315343281,0,-1,-1,0,-2,0,0,0
1513487315356305,-3,0,-2,-1,0,0,-3,-1
1513487315356305,0,-3,-2,-2,-3,-1,-1,-1
1513487315357289,-2,2,-2,-1,-1,-1,1,-2
1513487315357289,1,-1,1,-1,-1,0,0,-3
1513487315379319,-1,-2,-1,-1,-1,-3,-2,-1
1513487315379319,1,-2,-1,-1,-1,0,2,0
1513487315379319,1,-1,-2,-1,0,1,1,-1
1513487315379319,-1,-1,-1,-1,-3,-2,1,-1
1513487315402325,-2,0,-1,-2,-1,-1,-3,-1
1513487315402325,-2,-1,-1,-1,-1,-1,-4,0
1513487315403322,1,1,0,-1,-2,-1,-1,-1
1513487315403322,-2,-1,-2,0,-1,-1,0,0
1513487315416346,-2,-1,-2,-2,-1,-1,-2,-3
1513487315416346,-1,-2,-2,0,0,-2,-1,-1
1513487315417332,0,-1,0,-2,1,2,-2,1
1513487315417332,-1,-1,-2,-1,-1,-2,0,1
1513487315439346,-4,-2,0,-1,-1,-1,0,-2
1513487315439346,-2,0,-3,-3,-4,-1,0,-3
1513487315440363,0,1,0,-1,-1,-1,0,-2
1513487315440363,2,-1,0,-3,-2,-1,1,0
1513487315462366,-1,0,-1,-1,-2,-1,-1,-1
1513487315462366,0,0,-2,1,0,-2,-2,-2
1513487315463377,0,0,-1,1,-3,-2,-1,0
1513487315463377,0,0,-1,-1,2,-1,-4,-2
1513487315476372,0,-2,-1,-3,-2,0,-1,-2
1513487315476372,-1,-2,1,-1,-2,0,0,1
1513487315477372,0,1,1,0,-2,0,1,-2
1513487315477372,-3,-1,-2,0,1,-1,0,-1
1513487315499398,-1,-1,-1,-2,-1,-3,-1,0
1513487315499398,0,-1,-2,-2,1,-1,-1,0
1513487315499398,-1,-3,-1,-2,-1,0,0,-1
1513487315499398,0,0,0,-2,-2,-2,-1,-3
1513487315522417,-1,-2,-1,-1,0,-1,0,-1
1513487315522417,-3,-1,-1,0,-2,0,-1,-1
1513487315523406,1,-2,-4,0,-1,-1,-1,-2
1513487315523406,-1,-1,0,-1,-1,-1,-2,-1
1513487315536416,-1,-3,-3,-1,-1,-2,-3,-1
1513487315536416,1,-2,-2,-1,-1,0,-2,0
1513487315537425,-2,0,-2,-2,-1,-1,0,2
1513487315537425,-1,-1,-2,-1,0,-2,-2,0
1513487315567460,-1,-1,-1,-1,1,-2,-1,-3
1513487315567460,0,-2,-1,-2,-1,1,-1,-1
1513487315568439,0,-2,-1,-1,-1,0,0,-1
1513487315568439,-2,-1,-1,-2,-1,-1,-1,-2
1513487315582457,-1,-3,-3,0,-1,-3,0,1
1513487315582457,-2,0,-2,-1,0,-2,-3,-2
1513487315583458,-1,0,-1,-2,-2,-2,-2,-1
1513487315583458,-1,1,0,-1,0,1,-1,0
1513487315596467,-1,-2,-1,0,-1,-1,-1,-2
1513487315596467,-1,-1,-1,-1,-1,-3,1,1
1513487315597468,-2,-1,-1,-1,-1,-1,0,-2
1513487315597468,-1,0,-1,1,-1,-3,-2,-1
1513487315619484,-2,-2,-2,-2,-2,0,-3,-1
1513487315619484,-1,2,0,0,-2,-1,-3,1
1513487315619484,-1,-1,0,-1,0,0,0,0
1513487315619484,-2,0,-1,-2,-2,-2,1,-2
1513487315642502,-2,0,-3,-1,-1,-1,-2,-2
1513487315642502,-2,-3,-1,-2,-1,-1,1,-1
1513487315642502,0,-2,-1,-1,-1,-1,-1,-2
1513487315642502,0,-1,-1,-2,0,0,-3,-1
1513487315656511,-3,0,-1,-2,-1,1,-2,-2
1513487315656511,0,1,1,0,-1,-1,-1,-1
1513487315657510,-1,1,-1,-1,0,0,0,1
1513487315657510,-1,-4,0,-1,-1,-1,-1,-1
1513487315678530,0,-2,-2,0,-2,-2,-2,0
1513487315678530,-2,-1,0,-1,-1,0,1,-1
1513487315679516,-1,0,-1,-2,-2,-1,-2,-2
1513487315679516,0,-3,0,0,-1,-2,-2,-1
1513487315702537,-4,-1,0,-1,-1,-2,2,0
1513487315702537,2,-1,-2,-1,0,-2,-2,-1
1513487315702537,0,-1,-3,0,-2,-2,-2,0
1513487315702537,-1,0,-1,-1,0,0,-1,-1
1513487315716556,0,0,1,0,0,-1,-2,-2
1513487315716556,0,-2,-3,-2,0,2,-1,1
1513487315724563,0,0,-1,-2,-1,-2,-1,1
1513487315724563,-3,-2,-1,-1,-2,-1,0,0
1513487315738567,1,-1,-1,-2,-1,-3,-1,1
1513487315738567,0,0,-2,-2,-2,-2,1,0
1513487315739564,1,0,-1,-2,-2,1,0,-1
1513487315739564,-1,0,-1,0,-2,-2,0,-2
1513487315762614,-1,-2,-2,-1,-1,0,-3,-1
1513487315762614,-3,-1,0,0,-1,-1,-1,0
1513487315762614,-3,-2,-1,-2,0,-2,0,-3
1513487315762614,0,-2,-2,-2,-2,-1,-1,-2
1513487315776599,-2,-3,-2,-1,-2,0,1,0
1513487315776599,0,0,-2,-1,-1,-1,-2,-1
1513487315777594,-3,-1,0,-1,-1,1,-1,0
1513487315777594,-2,-1,-1,-1,0,-1,-1,-2
1513487315798615,-1,-2,-1,-2,-2,-3,-2,1
1513487315798615,-2,-1,0,-2,-2,-2,-2,-1
1513487315799602,-1,0,-1,0,-2,0,0,1
1513487315799602,-3,-2,-1,-1,-1,-1,-3,-1
1513487315822618,0,-2,-1,-2,-1,-2,0,-2
1513487315822618,-3,0,-1,-1,0,0,3,-2
1513487315822618,0,0,0,0,-1,-1,-1,-1
1513487315822618,1,-2,-2,-1,-2,0,-4,0
1513487315836635,-3,-2,0,-1,-1,-2,-1,-1
1513487315836635,-2,-2,-1,-2,-1,-2,-2,0
1513487315837630,0,-1,-1,-2,-1,-1,-3,-1
1513487315837630,-2,-1,-3,-1,-1,0,-1,0
1513487315858662,-2,-2,-1,1,-1,-3,-2,-2
1513487315858662,1,0,0,0,-2,0,0,-3
1513487315859663,-1,-1,-1,1,-1,1,-1,0
1513487315859663,-2,-1,-2,0,-2,-2,-3,-1
1513487315889681,1,-2,-1,-3,-1,-1,0,0
1513487315889681,-1,-2,-3,0,0,-2,1,-1
1513487315890665,1,-2,0,0,0,-3,0,-2
1513487315890665,-1,-1,-2,-2,-2,-1,0,0
1513487315896672,-2,-1,-3,-1,0,-1,-2,1
1513487315896672,-1,-2,1,-2,-2,-1,-2,-3
1513487315897698,-2,1,-2,0,-1,-1,1,-1
1513487315897698,-1,-3,-2,-2,0,1,-2,0
1513487315918730,-2,-1,-1,-3,-1,-1,1,0
1513487315918730,1,-2,-1,0,-1,-1,-1,0
1513487315919732,-1,0,0,0,-2,0,-2,-1
1513487315919732,-3,0,-1,-1,1,-1,-1,-1
1513487315941735,-2,0,-2,-1,-1,-3,-1,-1
1513487315941735,1,0,-1,-3,-2,1,0,0
1513487315942735,-1,-1,0,-2,-2,-1,0,0
1513487315942735,-2,-1,-3,-3,-1,-1,-1,-1
1513487315955760,-1,-1,0,0,2,-2,-2,-3
1513487315955760,-2,0,-1,0,0,-2,-2,-1
1513487315963776,0,0,-1,-1,0,1,0,-2
1513487315963776,0,0,-2,-1,-1,-2,-1,0
1513487315978784,-2,-2,-3,0,-2,-2,-2,-2
1513487315978784,0,-1,0,-1,0,-3,-2,0
1513487315979761,-1,-1,-2,-1,-1,-1,-1,0
1513487315979761,-3,-1,-1,-1,-2,-1,-1,-3
1513487316001781,1,-2,-1,-1,0,-1,-1,-3
1513487316001781,-2,1,0,0,-2,-2,1,1
1513487316002778,2,-2,-1,-2,-1,-2,-1,-2
1513487316002778,-1,-1,-1,-1,0,-2,-1,-1
1513487316015809,0,1,-2,0,-1,-1,-2,0
1513487316015809,-1,-1,-2,-2,-1,0,-1,0
1513487316023792,-2,0,-1,-2,-2,-1,-2,1
1513487316023792,-1,-2,-2,-1,-2,-1,-1,-1
1513487316038813,-1,0,-1,-1,-3,-1,-2,-1
1513487316038813,2,-1,-1,-2,-1,0,1,0
1513487316039804,0,-1,0,-1,-2,-2,-2,0
1513487316039804,-1,-2,1,-1,-2,-2,-1,0
1513487316061843,-1,0,-2,-2,-1,0,-2,-1
1513487316061843,0,-2,-2,1,-2,0,1,-1
1513487316062820,-1,-1,-3,-3,0,0,-1,-2
1513487316062820,0,-3,-1,0,-1,0,-2,-2
1513487316075861,-1,-1,-1,0,-1,-2,0,-1
1513487316075861,0,0,-1,-3,0,1,-1,0
1513487316083860,-1,-1,-1,-2,-1,1,0,-1
1513487316083860,0,-1,1,-2,0,-2,-2,-1
1513487316098846,0,-2,-2,-2,-1,-2,1,0
1513487316098846,-1,0,0,0,-1,-1,-2,-2
1513487316099847,-3,0,-1,1,-2,0,1,0
1513487316099847,-3,-1,-1,-2,-1,0,-2,-1
1513487316121862,-1,-2,-1,-1,-1,-1,-2,-1
1513487316121862,0,0,0,-1,-2,-1,-1,0
1513487316122865,-1,-1,-2,1,-2,1,1,-2
1513487316122865,-1,0,-2,0,-1,-1,-1,-3
1513487316135873,0,-2,-1,-1,-2,-2,-2,-1
1513487316135873,-1,1,-1,0,0,0,-2,-2
1513487316143887,1,-2,-3,-3,1,0,-2,-1
1513487316143887,-2,-1,1,-1,1,0,-1,-2
1513487316174923,-1,-3,-1,-2,-1,2,0,-1
1513487316174923,-3,-2,-2,-1,-2,1,0,0
1513487316174923,0,0,0,0,-2,-1,0,-2
1513487316174923,-1,-2,-3,1,-1,-2,0,0
1513487316181914,-2,0,-2,-1,0,-1,0,-2
1513487316181914,0,0,-1,0,-2,-1,0,-1
1513487316182912,0,-1,0,-1,0,-1,-3,-2
1513487316182912,0,-2,0,-2,-2,-2,-2,-1
1513487316195925,-1,-2,-1,0,-1,-1,-1,-1
1513487316195925,-2,-1,-2,-2,-1,-2,-1,1
1513487316203919,-1,0,-2,-3,-2,-1,1,-1
1513487316203919,-1,-4,-2,-3,-2,-1,0,-3
1513487316218931,0,-2,-2,-2,-1,-2,-4,-2
1513487316218931,-1,-1,-2,-2,1,-1,0,0
1513487316219932,-1,1,0,-2,-1,-1,0,1
1513487316219932,-2,-2,-1,-1,0,-2,-2,-1
1513487316241947,-2,-1,-2,-2,-2,-1,0,-3
1513487316241947,0,-1,-1,-1,-3,0,0,-3
1513487316248987,-1,-1,0,-1,-2,-1,-1,0
1513487316248987,-1,0,-1,-2,-1,-1,-3,-2
1513487316264991,-1,0,-1,0,-3,-2,-2,0
1513487316264991,0,-1,0,-2,-1,1,-2,-2
1513487316264991,0,0,-1,-1,0,-2,-2,0
1513487316264991,-3,-1,0,0,-1,0,-2,-1
1513487316278990,-2,-1,-1,-1,0,0,0,0
1513487316278990,0,-1,-2,-1,-2,-2,0,-1
1513487316279983,0,-2,0,0,-1,-1,-1,-2
1513487316279983,-2,-2,-3,-1,1,0,-3,-1
1513487316302000,-1,-3,-2,-2,-1,-3,-1,-2
1513487316302000,0,1,-1,1,-1,-1,-1,-1
1513487316303000,-2,-2,0,-2,-1,1,1,-1
1513487316303000,-1,0,-1,0,-2,-1,-2,-1
1513487316324009,-1,-2,-1,-3,0,-1,-1,0
1513487316324009,0,-1,-3,-1,0,0,0,-1
1513487316325009,0,1,-2,-1,-1,0,-1,0
1513487316325009,1,-1,-1,-1,-1,-2,-1,-3
1513487316339034,-2,0,0,0,0,0,1,-1
1513487316339034,0,-1,0,-1,-2,-1,-1,-1
1513487316340035,-1,0,0,-1,-1,-2,1,0
1513487316340035,-2,-3,-2,0,-2,-2,0,-1
1513487316362033,0,-3,-3,0,0,0,-1,-2
1513487316362033,-1,1,0,-1,-3,-2,-1,1
1513487316363036,-2,-1,-1,1,-1,-2,-1,-1
1513487316363036,-1,-2,-1,-2,-2,-2,-1,-1
1513487316385050,0,-1,-1,0,-1,-1,1,-1
1513487316385050,-1,-1,-2,-1,0,0,2,-1
1513487316385050,-2,0,-2,-1,-1,-1,-2,-1
1513487316385050,-2,-1,-1,-2,0,-3,-1,-1
1513487316399059,-3,-2,-1,-2,-2,-1,-2,0
1513487316399059,1,0,-1,-1,-1,-1,0,0
1513487316400059,0,-1,-1,-1,-2,0,0,-1
1513487316400059,0,-2,-1,-1,0,1,-1,-1
1513487316422095,-1,0,-1,0,-3,-1,-3,-3
1513487316422095,-2,-1,0,-2,-2,0,0,0
1513487316423081,-2,-2,-2,-1,-1,1,-2,-3
1513487316423081,-3,-3,-1,0,-1,-1,-2,1
1513487316445090,0,0,0,-1,-2,-1,-1,-2
1513487316445090,0,-1,1,-2,-3,0,-2,-1
1513487316446091,-2,-1,-1,-1,-1,-1,0,-1
1513487316446091,0,-1,-2,-1,-1,0,-1,-2
1513487316459120,-3,-2,-1,0,0,0,-2,-1
1513487316459120,-1,-1,-2,0,-1,0,-1,0
1513487316460105,-1,0,0,-3,-2,-2,0,1
1513487316460105,-2,-1,-2,-2,1,-1,-1,-2
1513487316482131,-1,-1,-1,-1,-1,-1,-2,1
1513487316482131,0,0,-1,-2,0,-1,-1,0
1513487316483131,0,-1,-3,1,0,-1,-2,-3
1513487316483131,1,-3,-2,0,-2,0,-1,-2
1513487316504192,-1,-1,-1,0,-1,-1,1,-1
1513487316504192,-1,-1,-1,0,0,-1,0,-1
1513487316505192,0,0,-2,-1,0,-2,-2,-1
1513487316505192,-1,0,0,-1,-1,-1,-2,-2
1513487316519231,-1,-1,-1,0,-1,-2,-1,1
1513487316519231,1,0,-1,-1,-2,-2,-1,1
1513487316519231,-1,0,-1,-1,-2,-1,0,-2
1513487316519231,-2,0,-1,-1,-1,-3,-2,-1
1513487316542231,-1,-2,-3,-1,0,-1,-2,-1
1513487316542231,1,0,0,0,0,-1,0,-1
1513487316543237,-2,0,0,-1,0,-1,-3,0
1513487316543237,-1,-4,-2,-2,-1,-3,-2,-4
1513487316564258,1,-2,-4,-2,-1,-1,-1,1
1513487316564258,-2,-2,-2,1,-1,-1,-1,-1
1513487316565247,-1,-1,-2,-2,-2,-2,1,-3
1513487316565247,-1,0,-2,0,0,1,-2,-2
1513487316579256,-4,-1,-1,-1,0,-1,-1,0
1513487316579256,0,0,-1,-2,-2,2,0,0
1513487316580260,-1,-1,1,-1,-1,-1,-2,0
1513487316580260,-1,-1,-1,-1,1,-1,0,1
1513487316602308,-1,-2,-4,-1,-1,-2,0,-2
1513487316602308,0,-1,-1,-1,-3,-1,0,0
1513487316603292,-1,-1,-2,0,-2,0,0,0
1513487316603292,0,-3,-1,-2,-2,0,-1,-2
1513487316624307,-1,-3,-1,-1,-2,-1,-3,1
1513487316624307,-1,-1,-2,-1,-1,0,2,1
1513487316625309,-1,-2,-1,0,-2,-2,-2,-1
1513487316625309,-2,-1,-2,0,0,-1,-2,-2
1513487316639317,0,0,0,-1,-1,-1,1,-4
1513487316639317,0,1,0,-1,-1,0,0,-1
1513487316639317,-1,-1,0,0,0,0,-1,-1
1513487316639317,-3,-1,-1,-1,0,-1,-2,-1
1513487316662415,-1,-1,-1,-1,-1,-2,-2,-1
1513487316662415,-1,-1,-2,-1,-1,-3,-2,-3
1513487316663404,-1,-1,0,-3,0,0,0,1
1513487316663404,1,-2,-2,-1,-2,-2,-1,-2
1513487316684432,-2,0,-1,0,-1,-2,-1,-3
1513487316684432,-2,-1,0,-2,-1,-2,-1,0
1513487316685410,0,-1,-1,0,-1,0,0,0
1513487316685410,-1,-1,-2,0,-1,-2,-1,-1
1513487316699419,-2,-1,-1,-3,0,-1,-3,-1
1513487316699419,1,0,-1,-2,-1,0,0,-2
1513487316699419,0,1,-1,0,-3,0,0,0
1513487316699419,-4,-3,-2,-1,0,-2,-1,-2
1513487316722436,0,-3,0,-1,-3,-2,-1,-2
1513487316722436,-1,-1,-2,0,0,-1,-1,-1
1513487316723436,-1,-1,1,0,-1,-1,-1,-2
1513487316723436,0,-2,-1,-3,-1,-1,-1,-1
1513487316744451,-1,-2,-1,-2,-1,-1,-1,-1
1513487316744451,0,-1,0,-2,-1,0,-1,0
1513487316745455,0,-1,-1,-2,0,-1,-2,1
1513487316745455,-2,0,0,-1,-1,0,-2,-2
1513487316758471,-1,-1,-1,0,-2,-3,-1,-3
1513487316758471,-1,1,-1,-2,-2,0,-2,-2
1513487316759462,-1,0,-3,1,-1,-2,0,-1
1513487316759462,0,-2,-1,-2,-1,-1,0,0
1513487316789492,-1,-1,-1,0,-1,-1,-1,-1
1513487316789492,-2,0,0,0,0,-1,-2,-3
1513487316790484,-1,-1,0,-2,-1,-2,-1,-2
1513487316790484,-3,-3,-1,-2,-1,-1,-1,-1
1513487316804503,-2,-2,-2,-2,-1,-1,-2,0
1513487316804503,-1,1,0,0,-3,-2,0,0
1513487316805495,-1,-1,-1,-1,0,-2,-1,-1
1513487316805495,0,-2,-2,-1,0,-1,-2,-1
1513487316819514,0,-1,-2,0,-1,0,-2,0
1513487316819514,0,0,0,-1,0,-1,-1,0
1513487316819514,-2,-2,-1,-2,0,-1,-1,-3
1513487316819514,-1,-2,-2,0,-1,-3,-2,0
1513487316842541,0,-2,-1,-1,-1,0,-1,-1
1513487316842541,-1,-2,0,-1,-3,-1,0,1
1513487316843542,-2,0,-1,-1,-1,0,1,0
1513487316843542,0,-1,-3,1,-2,-1,1,-2
1513487316864593,0,-2,-1,0,1,0,1,-3
1513487316864593,1,-1,-1,-2,-2,-1,0,-1
1513487316866580,-2,-2,-1,-1,-1,-1,-2,-1
1513487316866580,-3,-2,1,-3,-2,-2,-4,-1
1513487316878546,-1,-1,-1,0,-1,-2,0,0
1513487316878546,1,-1,-1,-2,-1,-1,0,-2
1513487316894557,0,1,0,0,-2,-1,-3,1
1513487316894557,-3,-1,-3,-1,0,-1,0,-1
1513487316902568,-1,-2,-1,-1,-1,-1,0,1
1513487316902568,-1,-2,-3,0,-2,-1,1,-1
1513487316904567,-1,-3,-1,-1,-2,-1,0,-1
1513487316904567,2,-1,-1,0,-1,-3,-2,-1
1513487316924581,-2,0,-1,-1,-1,-2,0,-1
1513487316924581,0,0,-1,2,0,-1,0,-1
1513487316926582,-1,-1,-2,-1,0,-2,-2,-1
1513487316926582,-2,-2,-2,-1,-1,0,-3,-1
1513487316938588,-1,1,0,-1,-2,-2,1,-1
1513487316938588,-1,0,1,-1,-2,-1,0,-3
1513487316947595,0,0,-1,0,-1,-1,1,-1
1513487316947595,-1,-1,-1,-1,-1,0,-1,-2
1513487316962607,-2,-1,-2,0,0,1,0,-1
1513487316962607,0,-1,-3,-1,-1,0,1,-1
1513487316963606,-1,-3,-3,-1,-2,-2,0,-2
1513487316963606,0,0,-1,-1,-1,-1,0,-1
1513487316984643,-2,0,-1,-1,-2,0,-1,-2
1513487316984643,0,0,1,-2,-2,0,-2,1
1513487316986633,-3,-2,0,0,-2,-1,1,-1
1513487316986633,-1,-3,-3,-1,-1,-4,-2,0
1513487316998653,0,-2,-2,-1,1,-1,0,0
1513487316998653,0,0,-1,0,-1,-1,-1,2
1513487317007637,-1,-3,-2,-1,-1,0,-1,-1
1513487317007637,-3,-1,-1,-2,-3,-2,-2,-1
1513487317022665,0,0,-1,-1,-2,-3,-1,-2
1513487317022665,0,0,-2,0,-1,-2,0,-1
1513487317023651,-1,-2,-1,0,-1,-2,-2,0
1513487317023651,-3,-1,-1,0,-2,-1,-2,-2
1513487317044678,-2,-3,-2,-2,-1,0,-1,0
1513487317044678,0,-1,-2,0,-1,-1,0,0
1513487317046677,-2,0,0,-2,-1,0,-1,-4
1513487317046677,1,0,-2,-1,1,3,-2,-2
1513487317058674,-1,-3,-3,0,-1,-2,-1,-1
1513487317058674,-2,-1,0,-1,-1,0,1,-2
1513487317067756,1,-3,-1,-1,0,2,1,1
1513487317067756,-2,-4,-2,-2,-3,-2,-1,0
1513487317081702,-2,1,-2,-3,-1,-1,-1,0
1513487317081702,0,0,0,-2,1,2,-1,-2
1513487317083691,0,0,-2,-1,-1,-1,-1,-1
1513487317083691,0,-1,-2,-1,-2,-2,-3,-2
1513487317104766,0,-1,0,0,-1,-3,-2,-1
1513487317104766,-1,-1,-1,-1,-1,-2,0,-1
1513487317106756,-2,-2,-1,-2,-1,-1,-2,-1
1513487317106756,-2,-1,-2,0,1,0,0,-1
1513487317118764,0,0,-2,0,-1,-2,0,1
1513487317118764,-2,-1,-3,0,-1,-1,-1,0
1513487317127770,-1,0,-2,-2,0,-3,0,-3
1513487317127770,-3,-2,-2,-1,-2,-2,-1,-1
1513487317141781,0,-3,1,-1,-2,1,-2,0
1513487317141781,-1,-1,-1,-2,-2,-1,-2,-1
1513487317143799,1,0,-1,-1,-1,-2,0,0
1513487317143799,-1,0,-1,-2,0,-2,-2,-2
1513487317164807,-2,0,-1,-4,-1,-2,-1,-2
1513487317164807,-2,-2,0,1,-2,0,-1,1
1513487317165808,-2,-1,-1,-1,-1,-2,-1,0
1513487317165808,0,-4,-1,-1,0,0,0,-2
1513487317178807,0,-1,-1,1,0,-2,0,1
1513487317178807,-2,0,-2,-3,0,0,-3,-1
1513487317186825,0,0,-2,-2,-2,-1,-1,0
1513487317186825,-1,-1,-1,1,-2,-1,-1,-1
1513487317201833,0,-2,-1,0,-1,0,-1,-1
1513487317201833,-1,2,0,-1,-2,-1,0,-3
1513487317203825,-1,-2,-1,0,0,-1,-2,-2
1513487317203825,-1,0,-2,-2,1,-1,-1,-3
1513487317224846,-2,-3,1,-3,0,-1,-2,-2
1513487317224846,1,-2,1,-1,-3,0,1,-1
1513487317226846,-1,-1,-1,-1,1,0,-1,-1
1513487317226846,-1,0,-2,-1,0,-1,-3,0
1513487317246874,-2,-1,-2,-1,0,0,-2,-2
1513487317246874,-2,-1,-2,-1,-1,-1,-3,0
1513487317248861,-1,-1,-2,0,-1,-1,-2,-3
1513487317248861,-1,-2,-1,1,-1,-4,-2,-2
1513487317261882,-1,1,0,0,-1,0,0,-3
1513487317261882,1,0,-1,0,-2,1,0,-1
1513487317263879,-1,-2,0,-1,-2,0,0,-1
1513487317263879,-2,-2,-3,-3,0,-1,-1,-1
1513487317284887,-1,-1,-2,-1,-1,-3,0,-1
1513487317284887,-1,1,0,0,-1,0,0,-2
1513487317285883,-1,-1,-1,-1,-2,-1,-1,-2
1513487317285883,-2,-1,-1,-1,-2,0,-2,-1
1513487317306897,-2,0,0,-1,-1,-1,0,-1
1513487317306897,1,-2,-1,-1,-1,-2,1,-1
1513487317309900,1,0,-1,-2,0,-1,0,0
1513487317309900,1,0,-2,0,0,-1,-1,0
1513487317321918,-2,0,-1,-1,-2,0,-1,-1
1513487317321918,1,0,-3,-1,-1,-1,-2,0
1513487317323911,-1,-1,-1,0,-1,1,1,0
1513487317323911,-2,-1,-1,-1,-2,-2,-3,-1
1513487317352931,0,0,-2,-2,-2,-1,-1,-2
1513487317352931,-1,0,0,-1,-1,-3,0,-2
1513487317353932,-2,-2,-2,0,0,-2,-1,-3
1513487317353932,-3,-2,-2,-1,-2,-1,1,0
1513487317366961,0,-1,-2,1,-1,-1,-3,0
1513487317366961,-2,-1,0,0,0,0,0,-1
1513487317368941,0,-2,0,-1,-1,0,-3,0
1513487317368941,-1,-2,-1,-1,-1,1,-1,-3
1513487317380950,1,0,-1,1,0,-1,-1,-2
1513487317380950,-1,-1,-1,-2,-1,-1,-1,-1
1513487317387967,-1,0,0,-1,0,0,-2,0
1513487317387967,0,0,-2,-3,0,-2,-1,-1
1513487317404979,-1,0,-1,-2,-2,-2,2,-2
1513487317404979,-2,0,-2,-2,-1,-1,-2,-1
1513487317405967,-1,-1,-2,0,0,-2,-2,-1
1513487317405967,-3,-4,-2,0,-1,-1,-1,-1
1513487317426982,-2,-1,-2,-3,-2,1,-1,0
1513487317426982,1,0,0,-1,0,-1,-1,0
1513487317428997,-4,-2,-1,0,-1,0,-2,-3
1513487317428997,-1,-2,-3,-1,-2,-1,0,-3
1513487317440993,0,-2,-1,0,-1,-1,-1,-2
1513487317440993,-1,-1,-2,-2,-1,0,2,-1
1513487317448011,-2,-2,-1,-3,-1,0,-3,-1
1513487317448011,-1,-2,0,0,-2,-3,0,0
1513487317465034,-1,1,-2,-1,0,-1,-1,0
1513487317465034,-1,0,-1,-2,-3,-2,0,-1
1513487317466009,-3,1,-1,-2,-1,-3,-1,-3
1513487317466009,-2,-2,-1,1,0,-2,-1,-1
1513487317487043,-1,-1,0,-1,0,-1,-3,-2
1513487317487043,0,-1,1,0,-1,-1,-1,0
1513487317489043,0,-1,-3,1,-2,0,-2,0
1513487317489043,-1,-2,-1,-2,0,-1,-1,-2
1513487317510059,-1,1,-2,-1,-3,0,-1,0
1513487317510059,-2,-2,-1,-1,-1,0,-1,-1
1513487317511042,-1,-1,-1,0,-1,-2,-2,-2
1513487317511042,-2,-2,-1,-1,-1,-2,0,-1
1513487317525068,-3,-1,-3,-1,0,-1,-1,0
1513487317525068,-4,0,-2,0,-1,0,0,-2
1513487317526052,1,-1,-1,1,-2,-2,-1,-2
1513487317526052,-1,-2,-1,1,-1,-1,-3,0
1513487317555082,-1,-1,-2,-2,-2,0,-1,0
1513487317555082,-1,0,-2,0,-1,-2,-2,-1
1513487317556074,-1,-1,-1,-1,0,0,-2,-2
1513487317556074,-2,-1,-2,-1,-1,-2,0,-1
1513487317561087,2,0,-1,-1,-2,-1,-1,-1
1513487317561087,-1,-2,-2,-2,0,0,-2,0
1513487317568096,-2,-3,-1,-2,-2,-1,0,0
1513487317568096,-1,-2,-2,-1,1,-2,-2,-1
1513487317585103,-3,-1,0,-1,-2,0,0,0
1513487317585103,-1,-1,-1,-2,-1,-1,-1,-1
1513487317586099,-2,-1,-1,-3,0,-4,-1,0
1513487317586099,-1,-1,-3,-1,-2,0,-3,-3
1513487317607139,0,-2,0,-1,0,-1,-3,1
1513487317607139,2,0,0,0,-3,-1,0,-1
1513487317609130,-2,-3,-1,-2,-2,0,-2,-1
1513487317609130,1,-2,1,-2,1,-1,0,-2
1513487317630126,-1,1,0,0,-1,-3,0,0
1513487317630126,-1,0,-1,-3,-1,-1,-1,1
1513487317631127,0,-2,-1,-1,-1,0,-2,0
1513487317631127,0,2,-1,1,-1,-2,0,-1
1513487317645137,-1,-2,-2,-1,-1,-2,-1,-2
1513487317645137,0,0,-2,-1,-2,-1,0,-1
1513487317646150,-1,0,-1,-1,0,-2,-3,-3
1513487317646150,-2,-2,-3,-1,-2,-2,-2,0
1513487317667175,0,-2,0,0,-1,1,2,0
1513487317667175,0,-1,0,-2,0,-1,-4,-3
1513487317669154,-2,-1,-1,-1,-1,-2,1,-1
1513487317669154,0,-4,-2,-1,1,-1,-2,1
1513487317681171,2,-1,0,-2,-3,0,0,0
1513487317681171,-2,0,0,0,-2,0,1,-2
1513487317688180,-1,0,0,0,0,-2,-2,0
1513487317688180,-2,-1,0,-1,-1,0,-1,-1
1513487317705178,0,2,-2,-1,-2,-1,1,0
1513487317705178,0,-1,0,2,-1,-3,0,1
1513487317706180,-3,-2,-1,-2,-1,-2,-2,1
1513487317706180,-1,0,-1,-2,-1,-2,-3,-2
1513487317727205,-1,-2,-1,-3,-1,0,-1,-1
1513487317727205,0,-3,-2,0,-2,-2,-2,-2
1513487317729196,-2,-2,-2,0,-1,-1,0,-2
1513487317729196,-1,-3,0,-1,0,-3,-2,-2
1513487317741213,0,-2,-1,1,-2,-1,1,-1
1513487317741213,-1,0,-3,-2,-3,-1,-1,1
1513487317750229,-2,-1,-1,0,-1,-2,0,0
1513487317750229,0,-1,-3,-3,-3,1,-2,-2
1513487317764236,1,0,0,-1,0,-1,-2,0
1513487317764236,1,1,-1,2,-2,0,-1,-1
1513487317766232,-2,-2,-2,-3,-1,0,-3,-1
1513487317766232,-1,-1,0,-1,0,-1,0,-3
1513487317787260,-2,1,1,-2,0,-3,-2,-4
1513487317787260,-1,-1,0,0,0,-1,1,1
1513487317788241,-2,0,-2,0,-1,-1,-2,0
1513487317788241,-4,-1,-1,0,0,-2,0,1
1513487317801247,0,-2,-1,-1,-2,0,-1,0
1513487317801247,-2,-1,0,-3,-1,0,-1,-1
1513487317810253,-3,-3,-1,-2,-1,0,-1,-3
1513487317810253,-1,-1,-2,-2,-1,-1,-1,-1
1513487317832289,0,1,0,-1,-1,-1,-1,-1
1513487317832289,0,-2,1,-1,0,-1,-1,-2
1513487317834270,-1,-1,-2,-1,-1,-2,0,-2
1513487317834270,-4,-1,-1,-1,-2,-1,0,-2
1513487317846279,0,0,-2,-2,-1,-1,0,0
1513487317846279,0,-1,0,-2,0,-1,-1,0
1513487317855285,-1,-3,-1,-1,-3,-1,-1,-2
1513487317855285,-1,-1,1,-1,-1,-3,-1,-2
1513487317861289,-1,0,-1,0,0,-1,-1,-2
1513487317861289,-2,1,-1,-1,-2,1,1,1
1513487317870296,1,-1,-1,-1,-2,-1,-3,-1
1513487317870296,-1,-2,-1,0,-1,-1,-2,-1
1513487317884321,0,-2,-1,0,-2,-1,-1,0
1513487317884321,0,2,0,0,0,1,-2,-1
1513487317886309,-2,-1,-2,0,0,-1,-1,-1
1513487317886309,0,-2,-2,-1,-1,-1,-3,0
1513487317907321,1,-1,-2,-2,0,-1,-2,1
1513487317907321,-1,-1,-1,-1,-2,-3,1,-2
1513487317908323,-1,-2,-2,0,-1,-1,-1,-2
1513487317908323,-1,-1,-1,-1,-2,1,0,-1
1513487317920331,0,-1,-1,-2,0,-2,0,1
1513487317920331,-1,-2,-1,-2,-4,1,-1,-1
1513487317929337,-1,-2,-2,-1,0,-1,-2,0
1513487317929337,-1,-1,0,-1,-1,-3,-1,-1
1513487317944348,0,0,-1,-1,-1,1,-1,-3
1513487317944348,-2,0,0,-1,0,0,-2,-1
1513487317946350,0,-2,-1,0,1,-3,-2,-3
1513487317946350,-1,-3,-2,-1,-1,0,-2,-2
1513487317967422,1,0,-1,-1,-3,-2,-1,1
1513487317967422,0,0,0,-1,0,-2,0,-1
1513487317968374,-2,-1,-1,-1,-1,-2,-1,-1
1513487317968374,1,0,0,0,-1,-1,0,0
1513487317980383,-2,0,-1,-2,-2,-1,0,-1
1513487317980383,-2,-1,-1,-1,-4,-2,-1,-2
1513487317989379,-1,-1,-2,-1,-1,-2,-3,-1
1513487317989379,0,-1,-1,-1,-3,0,-2,-1
1513487318004411,0,0,-1,-1,0,-1,1,0
1513487318004411,0,0,0,-1,0,0,-1,-1
1513487318006411,-2,0,1,0,0,-1,-2,-2
1513487318006411,-1,-2,-1,0,-1,-2,-1,-3
1513487318027427,0,-1,2,0,-3,0,-1,1
1513487318027427,-2,-3,-1,-1,0,-1,-1,0
1513487318028408,-1,-2,1,-2,0,-1,-2,0
1513487318028408,1,1,-1,-2,0,-1,0,1
1513487318040417,-1,-2,-3,0,-2,-2,2,-2
1513487318040417,-1,-1,-1,-2,-2,-2,-1,-1
1513487318049422,-1,-1,-1,-1,-1,-1,-1,-3
1513487318049422,-4,-2,-3,-1,-1,-2,-2,0
1513487318064445,-1,0,-1,-1,0,0,1,-3
1513487318064445,-1,-1,0,0,-1,0,1,-3
1513487318066435,-3,-2,-1,-2,0,0,-1,-1
1513487318066435,0,-1,-2,-1,-1,-1,-1,-1
1513487318087464,-2,0,-1,-2,0,-1,-1,-2
1513487318087464,0,-1,0,-1,-1,-1,-3,-2
1513487318088450,-2,0,1,-1,-2,-2,-2,1
1513487318088450,1,-1,0,-1,1,-2,1,-2
1513487318108464,-2,1,0,1,0,-1,-1,-2
1513487318108464,1,-3,-1,0,0,-1,-1,-1
1513487318117485,-2,-1,-2,-1,-1,-2,-4,-2
1513487318117485,1,-2,-1,-2,-3,-1,-2,-3
1513487318124478,-1,-3,-1,-1,-2,-1,-1,1
1513487318124478,-3,-1,-1,0,-2,-1,-1,0
1513487318130480,-1,-1,-1,-1,0,-1,1,0
1513487318130480,-2,-1,-2,0,-1,-1,-2,-2
1513487318147506,1,-1,0,-2,-1,-1,-3,-1
1513487318147506,0,0,-2,-1,-2,0,-1,-1
1513487318148492,0,-2,-1,0,-1,-1,0,-3
1513487318148492,-1,0,-2,0,0,-2,-2,-2
1513487318169508,-1,1,-1,-2,-1,0,-1,-2
1513487318169508,-2,0,-2,-1,-1,-2,-2,-1
1513487318171520,-1,-3,-2,-2,0,-2,-1,-1
1513487318171520,-2,-2,-1,-2,-2,0,0,0
1513487318192547,-1,-2,0,0,-2,-1,1,-1
1513487318192547,0,-1,-1,-1,0,-2,-2,-2
1513487318194528,-1,-3,-2,1,-2,-1,-2,0
1513487318194528,-2,-4,-1,-1,-1,-2,-2,-2
1513487318207544,-1,0,-2,0,0,0,0,-1
1513487318207544,-1,0,-2,-2,-2,-1,0,-1
1513487318213561,0,-3,-2,0,0,-1,-2,-3
1513487318213561,0,-2,-1,-1,-2,-1,0,0
1513487318229602,1,2,0,0,-2,-1,-1,-2
1513487318229602,0,-1,0,-1,1,-1,1,-1
1513487318231604,-3,-3,-2,-2,-2,0,-1,-2
1513487318231604,-1,-1,-1,0,0,-1,-2,-2
1513487318243612,-2,-2,-1,0,-1,-2,2,2
1513487318243612,-2,-1,-1,-1,-1,-2,0,-1
1513487318250638,0,-1,-1,-2,-3,-1,-1,-1
1513487318250638,-2,0,-1,-2,-2,0,-1,0
1513487318266685,-1,-2,-1,-1,-2,-1,-1,1
1513487318266685,-1,-1,0,-2,-1,1,0,-1
1513487318268629,0,-2,-2,-1,-1,-3,-1,-1
1513487318268629,-1,-1,-3,-2,-2,-1,-1,-1
1513487318289654,-1,0,-2,0,0,0,0,-1
1513487318289654,1,-1,-1,0,-1,-3,-1,-1
1513487318291645,-2,0,-2,-1,0,-1,-4,0
1513487318291645,-2,-1,0,0,0,0,0,-2
1513487318303664,0,1,0,-2,-3,-1,-1,-2
1513487318303664,0,0,-2,-1,-1,0,-1,-1
1513487318310659,-1,-2,-1,-1,-2,-1,-2,0
1513487318310659,-1,-2,-1,-1,0,-1,0,0
1513487318326726,-2,1,-2,-2,-3,0,-1,0
1513487318326726,0,1,0,0,-2,0,0,-1
1513487318329672,-1,0,-2,-1,0,0,-2,-2
1513487318329672,-1,-1,-1,-1,-1,0,-2,-1
1513487318349743,-3,-1,0,-1,-1,-1,-1,-1
1513487318349743,0,-1,-1,-2,-2,-1,-1,-1
1513487318355694,-3,-1,-2,0,-1,0,0,-2
1513487318355694,-1,-1,-1,-1,-1,-2,0,-2
1513487318363716,0,1,0,0,-2,-1,1,-2
1513487318363716,-1,-2,-2,-1,-1,-2,-3,1
1513487318370701,-1,-4,1,0,0,-3,-2,0
1513487318370701,1,0,-2,-1,-2,-2,0,0
1513487318386715,0,-2,-1,-1,-2,-1,-2,-1
1513487318386715,-3,0,-3,-2,-1,-1,-1,-2
1513487318388715,-2,-2,-3,0,1,-1,0,-1
1513487318388715,1,-2,-2,0,0,-1,-3,-1
1513487318409742,-2,-1,-1,1,0,-1,-1,2
1513487318409742,-2,0,0,-1,-1,-1,0,1
1513487318410730,0,-2,-2,-1,-1,-2,-1,-2
1513487318410730,-3,-1,1,-2,-1,-1,-2,-1
1513487318423751,0,0,-3,-2,-1,1,1,-1
1513487318423751,0,-1,-1,0,-1,0,-1,0
1513487318430744,-3,0,-2,-2,0,-2,-1,-1
1513487318430744,-1,-2,-1,-1,-1,-2,0,-1
1513487318446810,0,0,0,0,-1,-1,0,-1
1513487318446810,0,-2,0,-2,0,0,0,-1
1513487318448756,-1,-1,-2,-1,-3,-2,-1,0
1513487318448756,-1,0,-1,0,-2,0,-3,-1
1513487318469772,-1,0,-1,0,-1,-1,0,-2
1513487318469772,-2,-1,-1,-2,-1,-1,-1,-2
1513487318471772,-1,-2,-2,-3,-2,-1,-3,-1
1513487318471772,-2,-1,-3,-2,1,-1,-1,-2
1513487318483782,0,0,0,-1,-2,0,-1,0
1513487318483782,-1,-2,-1,-1,0,-2,-1,-1
1513487318490797,0,-3,-1,-1,-1,-1,-2,-2
1513487318490797,-1,0,-2,0,-3,-1,1,1
1513487318506810,0,0,0,-2,-1,-1,-1,0
1513487318506810,-1,-1,1,-2,-1,0,-2,-2
1513487318508799,-1,-2,0,1,0,0,0,-2
1513487318508799,-1,-2,-3,0,1,-1,-3,-3
1513487318529814,0,0,-1,1,-3,1,-1,-1
1513487318529814,0,-1,-1,0,0,-1,0,-1
1513487318531815,-2,-3,0,-1,-1,0,0,0
1513487318531815,-1,0,-2,-3,-1,-1,0,-1
1513487318543824,0,-2,1,-3,-1,-1,1,-1
1513487318543824,-1,0,-2,-1,-2,-1,-3,-2
1513487318550831,-1,0,0,-1,0,-1,-4,-1
1513487318550831,1,-1,0,-1,-1,-2,-1,-2
1513487318566898,-1,-1,-2,0,-1,-2,-2,-1
1513487318566898,-1,-2,-1,0,-2,-1,-1,-2
1513487318568841,-1,-2,-2,-1,-1,-1,0,0
1513487318568841,-2,-1,-1,-2,-2,-1,-1,-1
1513487318589857,-2,0,-2,-2,-1,-2,-2,-2
1513487318589857,0,-1,-1,-1,-1,-1,0,-3
1513487318591857,-1,-2,-2,-3,-1,-1,0,-1
1513487318591857,0,0,-1,-1,1,-1,-1,0
1513487318603880,-1,0,-1,-1,1,0,2,-1
1513487318603880,-2,-1,-2,-2,0,0,-2,0
1513487318610882,-1,-2,-1,-1,-2,-1,-2,-2
1513487318610882,0,-3,-1,-2,-1,0,-1,-2
1513487318626885,0,1,-1,-1,0,-3,0,-1
1513487318626885,-1,0,0,0,-1,-2,-3,0
1513487318628887,-1,0,-1,0,-1,-1,-2,-1
1513487318628887,-2,-1,1,0,-2,-2,-1,0
1513487318655912,-1,0,-2,-1,-2,0,-2,-3
1513487318655912,-1,-2,-2,-1,-1,-1,1,-1
1513487318664908,-1,-2,-2,-3,0,-1,-1,-1
1513487318664908,0,-1,-1,-1,0,-1,-2,-2
1513487318665911,0,0,1,-2,-3,0,0,-2
1513487318665911,0,0,0,-1,-1,1,0,0
1513487318671915,-3,-1,0,-2,-1,0,-2,-4
1513487318671915,-1,-1,-1,1,-1,0,-3,1
1513487318686939,0,-1,-1,-3,0,1,-2,1
1513487318686939,0,-3,-1,0,-2,1,1,-2
1513487318688936,-1,-1,-3,-2,-1,0,-1,-2
1513487318688936,-1,-1,-1,-2,-2,-2,0,-3
1513487318709960,-1,-1,0,-1,-2,-1,1,2
1513487318709960,-2,-1,0,-1,-3,-4,0,-1
1513487318710960,0,-1,-1,-1,1,-3,0,-1
1513487318710960,-1,-1,-3,-2,-2,0,1,-1
1513487318722983,-1,0,1,-1,0,-2,-2,-1
1513487318722983,-1,2,-2,-2,-1,-2,-1,-1
1513487318737980,-4,-2,-1,-1,-1,-2,-3,-1
1513487318737980,0,-2,-1,-2,-1,0,0,1
1513487318747000,0,-2,-1,2,-2,0,0,-1
1513487318747000,-2,0,-1,-1,0,-1,-1,1
1513487318748988,0,0,-1,1,-2,0,-3,0
1513487318748988,-3,-2,-1,-1,-1,-3,-1,-3
1513487318770013,-3,-2,-1,0,-1,-1,-1,-1
1513487318770013,-1,-4,0,-1,0,0,-3,-1
1513487318771005,-1,-2,0,0,-2,-1,0,-1
1513487318771005,0,-1,-1,-1,-1,1,-1,-1
1513487318783022,1,1,0,-3,-2,-2,0,0
1513487318783022,-2,-1,-3,0,-1,-1,-2,0
1513487318792028,-2,0,0,0,-2,-2,0,-1
1513487318792028,2,1,-1,-1,-1,-1,-1,2
1513487318807041,0,-1,0,-1,-2,0,0,0
1513487318807041,-1,-3,-2,-2,1,-1,-3,-3
1513487318809033,-2,-1,-1,-1,-1,-3,0,-2
1513487318809033,0,0,-1,-2,-1,0,0,-1
1513487318837064,-1,-1,-1,-1,0,-2,-2,1
1513487318837064,2,0,-1,-2,-3,-1,-1,-1
1513487318839062,-2,-2,-1,0,-1,-1,-2,-2
1513487318839062,-1,0,0,-2,0,-2,-2,-1
1513487318843064,-1,-1,-2,-2,-1,0,-2,-2
1513487318843064,-2,0,0,-1,-2,-3,0,0
1513487318852062,0,-1,-2,-3,-1,-2,0,0
1513487318852062,-2,0,0,1,-2,-1,-1,1
1513487318867103,-2,-1,0,0,-1,0,1,-2
1513487318867103,0,-2,-2,-2,0,-2,1,-4
1513487318869088,1,-2,-2,-1,1,-2,-2,-1
1513487318869088,-1,0,-3,-1,0,-1,0,0
1513487318890104,-1,-1,0,0,-2,0,-1,-1
1513487318890104,-2,-1,0,0,-1,-2,-1,-1
1513487318891089,0,-1,0,-1,0,-2,-2,1
1513487318891089,1,-1,-1,-2,-1,-2,-3,-2
1513487318912104,-2,0,-2,0,0,-2,-2,-1
1513487318912104,-1,-2,-3,-1,0,0,-1,-1
1513487318914126,-2,-3,-2,-1,-1,-2,0,-2
1513487318914126,-4,-1,1,-2,-1,0,0,-1
1513487318927136,-1,0,-1,-2,-1,-2,0,0
1513487318927136,-1,-1,-1,-2,-1,-2,-1,-1
1513487318929137,-1,-2,-2,-2,0,-1,-1,0
1513487318929137,0,-3,-1,-1,-2,-3,-1,-1
1513487318949151,-1,-3,-1,-1,-1,-1,0,0
1513487318949151,-2,-1,0,-1,-1,-1,-3,-1
1513487318951153,0,-2,-3,0,-1,-1,-2,-1
1513487318951153,1,-3,-2,0,-1,-2,-2,-1
1513487318963153,-1,0,-1,-1,-1,-1,0,-1
1513487318963153,-1,-2,-2,0,-1,-2,-3,-1
1513487318972145,-1,-2,-1,-2,-1,-3,0,-1
1513487318972145,-1,1,0,-1,0,-1,1,1
1513487318987199,1,0,-1,0,1,-1,0,1
1513487318987199,-1,-1,-2,-2,-2,-1,-2,-1
1513487318989169,-1,-1,1,-2,-3,-2,0,-2
1513487318989169,0,-1,-1,-2,0,-2,-1,0
1513487319010172,-1,-2,-1,-4,0,-1,-1,-3
1513487319010172,-3,0,-1,-1,-1,0,-1,-2
1513487319011173,-3,-1,0,0,-2,-1,-1,-1
1513487319011173,-1,0,-2,0,-1,-1,-2,0
1513487319023190,-1,0,-3,-1,-2,0,-1,-1
1513487319023190,-1,-4,-2,-2,0,-3,-2,-2
1513487319032188,-3,-1,-2,0,-2,-1,-3,0
1513487319032188,0,1,0,-1,0,-1,0,-2
1513487319054203,-2,0,-1,0,-2,-2,0,0
1513487319054203,-1,-1,-2,-2,-1,1,1,-2
1513487319056205,0,-2,-2,0,0,0,-1,0
1513487319056205,-1,-1,-2,-2,-2,0,2,-3
1513487319077220,1,-1,-1,-1,-1,-1,1,-1
1513487319077220,-1,-1,0,0,-2,-1,-1,-1
1513487319079231,-1,1,0,0,0,-3,-3,-1
1513487319079231,1,-2,-1,-2,-1,-1,1,-2
1513487319083225,-1,-1,-1,-2,-3,-2,-4,-1
1513487319083225,-3,-4,-1,-1,-2,-2,-1,-1
1513487319092230,-1,-2,-1,-2,0,-1,-4,-2
1513487319092230,-1,-1,-1,-1,-2,-2,0,2
1513487319107251,-1,1,0,-1,-1,-1,-1,1
1513487319107251,-1,3,-1,-2,0,0,1,-1
1513487319108251,1,0,-3,-2,0,-1,0,-2
1513487319108251,-1,-1,-2,-1,-2,-2,-1,-2
1513487319130257,0,-1,1,-1,-1,0,0,-2
1513487319130257,1,0,-1,-1,0,-1,-1,-2
1513487319132259,-1,0,-1,-3,-1,0,0,-1
1513487319132259,-1,-1,-1,1,-1,-1,-2,0
1513487319152286,1,-2,-1,-2,-1,-2,-2,-1
1513487319152286,-1,-2,-3,0,-2,-2,-1,-1
1513487319153274,0,0,-2,-1,-2,-1,-1,1
1513487319153274,0,0,0,-2,-1,1,0,-1
1513487319167341,-3,-1,-1,-1,-1,1,-1,-1
1513487319167341,-2,-1,0,0,0,-2,-1,-1
1513487319168305,0,0,-1,0,-1,-3,-2,-1
1513487319168305,0,0,0,-1,-2,-1,1,0
1513487319189311,-2,-1,-2,0,-1,-1,0,-2
1513487319189311,-2,1,-2,-4,-2,0,-3,-3
1513487319191300,0,-3,0,-1,-1,-2,-1,-3
1513487319191300,0,1,-1,-1,-2,0,-3,-1
1513487319220320,-1,1,2,-1,-2,-2,0,0
1513487319220320,0,-4,-2,1,-1,0,-1,-2
1513487319221333,-2,-2,-3,1,-1,-1,-1,-1
1513487319221333,0,-1,-1,-1,0,0,1,-1
1513487319226325,0,-2,-1,-1,0,-1,0,-1
1513487319226325,-2,0,-2,-3,-1,-3,-1,0
1513487319233330,-1,0,-1,-2,-2,-1,0,-3
1513487319233330,-2,0,-1,-1,-2,-1,-2,-1
1513487319249362,-3,-1,-1,-3,-1,0,0,-1
1513487319249362,0,-3,-1,-1,0,-1,-2,-1
1513487319251344,-2,-3,-2,-1,-2,-2,-2,-3
1513487319251344,-1,-1,-1,0,-2,-1,0,0
1513487319272357,0,-1,-2,-3,0,-1,-1,0
1513487319272357,-2,-3,-1,-2,-1,0,-2,0
1513487319273358,1,-3,1,-3,-1,-1,0,0
1513487319273358,0,-2,-1,-1,-2,-1,0,-1
1513487319286388,-1,0,0,0,-1,0,0,0
1513487319286388,-3,-2,-1,-1,0,-1,-2,0
1513487319293373,-1,-1,-1,-2,-1,-2,0,1
1513487319293373,1,0,-1,-2,-1,-2,-1,-2
1513487319309434,-1,1,-3,0,1,-1,0,-1
1513487319309434,-2,-1,-1,0,0,-1,-2,-1
1513487319311435,-3,-2,0,-1,-1,-1,-2,-2
1513487319311435,0,1,-1,-2,-3,0,0,-2
1513487319332451,0,-1,-1,-1,-2,-1,-2,-1
1513487319332451,-4,-3,-4,2,2,0,0,-1
1513487319334452,1,0,5,11,-7,-3,-1,-1
1513487319334452,-2,1,-1,-10,5,1,-1,-1
1513487319346460,-2,0,3,19,-4,0,-1,0
1513487319346460,-4,-7,-21,-37,-3,-1,1,-1
1513487319353483,1,1,-2,1,1,-2,1,1
1513487319353483,1,0,0,1,0,-1,0,-1
1513487319370496,4,1,7,-9,-6,-1,-2,-1
1513487319370496,7,-1,7,10,1,-1,-1,-3
1513487319371480,-2,-1,-4,-5,0,0,2,-1
1513487319371480,-3,0,0,3,-4,-3,-1,1
1513487319392502,4,-1,-3,-2,2,0,-1,1
1513487319392502,1,-1,4,2,-4,-3,-4,0
1513487319394493,-1,-2,-6,-5,-2,0,-2,-3
1513487319394493,-4,-1,7,5,-2,0,1,-1
1513487319406515,2,-1,-2,-3,1,0,2,-2
1513487319406515,-6,4,9,3,-2,-2,-2,-2
1513487319413516,4,6,-21,7,4,0,-3,4
1513487319413516,-13,-19,13,-21,-8,-5,-1,-3
1513487319429581,2,-2,-16,-8,-2,0,1,1
1513487319429581,2,2,12,6,-1,-1,2,0
1513487319431571,2,-2,-11,1,2,0,-1,0
1513487319431571,-26,1,-1,5,2,0,-5,-4
1513487319451609,-1,-1,3,0,1,-1,-2,-2
1513487319451609,2,-5,-14,-8,-8,-5,-4,-2
1513487319453592,-7,2,6,-4,0,1,0,1
1513487319453592,12,-2,-11,1,-2,-2,-1,-4
1513487319466610,-6,-5,-2,-8,0,-3,-2,-3
1513487319466610,-2,1,-4,11,3,0,-1,0
1513487319473599,-5,-5,31,2,-2,-2,-1,0
1513487319473599,2,1,-16,-6,-4,-1,1,2
1513487319496638,8,6,0,3,2,1,0,2
1513487319496638,-5,-2,18,3,-1,0,0,0
1513487319498622,-1,-10,9,9,-2,-3,0,-5
1513487319498622,8,-3,-12,-10,-2,-1,-3,-1
1513487319511649,7,5,2,-3,-1,-3,0,-1
1513487319511649,-9,1,-14,-11,-1,-1,0,1
1513487319513628,1,-2,19,7,4,0,-3,-4
1513487319513628,-4,2,2,5,1,1,-1,0
1513487319526652,-2,0,-6,-1,0,-1,0,2
1513487319526652,11,4,6,-4,0,-1,-2,-1
1513487319533644,-7,-6,-8,-3,-4,-3,-3,-3
1513487319533644,13,7,-8,10,0,-1,2,3
1513487319549655,12,5,16,4,2,1,-1,-1
1513487319549655,-14,-20,-5,-11,-13,-7,-5,-6
1513487319550654,-9,-11,-79,-37,-9,-5,-1,-2
1513487319550654,24,9,21,-5,2,2,3,4
1513487319571679,-6,-4,-3,10,1,0,1,2
1513487319571679,-26,-4,12,10,2,-1,-5,-8
1513487319573671,9,0,8,8,2,-1,0,-2
1513487319573671,-12,5,-10,-6,-6,-4,0,1
1513487319586679,-7,2,-1,-4,-2,0,1,-1
1513487319586679,14,0,-11,-3,-1,-2,-3,-3
1513487319592683,-17,0,5,-3,0,0,-2,0
1513487319592683,-16,-1,6,13,2,0,-1,-1
1513487319609698,5,-15,2,0,-4,-3,-3,-2
1513487319609698,2,7,-10,-1,0,1,2,1
1513487319610696,21,3,40,10,4,1,0,1
1513487319610696,2,-10,-42,-29,-7,-3,1,-2
1513487319631711,-19,9,24,4,-2,-3,0,-1
1513487319631711,8,-8,-35,-3,-2,-4,-2,-1
1513487319633713,-12,-15,12,-5,0,1,-3,0
1513487319633713,5,2,0,10,1,-1,-1,0
1513487319654739,-3,-5,-9,-3,-1,-1,-1,-1
1513487319654739,0,9,7,5,4,-1,-2,1
1513487319655740,0,9,6,2,1,0,2,2
1513487319655740,3,-12,-9,-4,-4,0,-2,-2
1513487319669749,-20,-4,-1,0,0,0,-2,-3
1513487319669749,19,14,33,10,3,2,-1,0
1513487319670752,-27,-7,-24,0,-6,-3,-6,-5
1513487319670752,-13,-5,-9,-22,-2,-1,3,0
1513487319692767,1,-9,-11,-13,-5,-2,-3,-1
1513487319692767,-28,-7,-12,-1,-2,-2,-5,-7
1513487319694768,9,9,12,0,-2,-2,2,3
1513487319694768,-21,14,19,16,2,1,2,-1
1513487319705764,11,-5,2,4,-1,0,6,1
1513487319705764,13,-6,2,-5,0,-1,-16,-6
1513487319714770,-12,3,-29,-10,-2,-3,17,4
1513487319714770,-6,-7,9,5,-2,-2,-4,0
1513487319729790,5,3,-6,-7,-2,-3,-46,-25
1513487319729790,-13,-3,6,6,2,2,39,14
1513487319731783,53,18,35,14,6,5,-2,14
1513487319731783,22,-6,-38,3,2,0,-3,-1
1513487319751813,-49,-8,-9,-10,-7,-3,-4,-9
1513487319751813,50,-11,21,-2,-3,-2,-21,-5
1513487319753802,-53,-12,-18,-9,-4,-1,4,-7
1513487319753802,-25,-3,19,-3,2,-1,-14,-8
1513487319774824,51,14,24,14,3,6,40,26
1513487319774824,5,-4,-28,3,2,-4,-20,-26
1513487319775820,-11,-15,-43,-9,-4,-2,-19,-16
1513487319775820,3,29,35,10,-4,6,50,44
1513487319789832,25,-17,7,4,2,-3,-22,-41
1513487319789832,-41,-4,-18,-33,-9,-3,0,24
1513487319790833,10,11,15,17,8,-5,-16,-38
1513487319790833,-32,-3,68,38,7,4,31,-20
1513487319811856,-2,-14,-77,-35,-8,-3,2,59
1513487319811856,-23,33,65,-15,2,-1,-16,-34
1513487319813857,87,-8,59,28,-4,-3,3,67
1513487319813857,-41,-34,-78,-41,-22,-9,2,-6
1513487319834855,21,32,-3,13,1,-2,26,59
1513487319834855,-8,-26,-20,3,1,0,-18,-15
1513487319836857,19,21,-21,-22,-1,-1,4,-1
1513487319836857,-16,9,1,26,9,4,-11,-2
1513487319849884,38,27,54,20,10,4,-1,-11
1513487319849884,-75,-50,-72,-30,-14,-6,-7,-7
1513487319851872,3,8,32,20,-1,-1,5,9
1513487319851872,-11,-3,36,38,1,-3,-20,-16
1513487319871911,-36,-31,-57,-41,-7,-5,-11,-35
1513487319871911,-31,7,-6,-6,-1,4,23,27
1513487319873884,-3,-30,54,21,-1,-1,-7,-29
1513487319873884,-8,15,-48,-30,-4,-7,-37,-70
1513487319885910,-37,-12,33,-6,0,0,20,-3
1513487319885910,122,13,12,19,3,0,19,45
1513487319894899,-73,-28,-68,-38,-7,-3,-20,5
1513487319894899,47,27,58,53,2,0,17,-18
1513487319909926,-37,-32,-20,-50,-11,-2,-12,22
1513487319909926,57,28,-25,3,4,-4,0,16
1513487319910927,59,66,25,-2,8,4,-2,-78
1513487319910927,1,-84,-27,-37,-14,-8,-37,-73
1513487319931924,-32,32,4,14,3,0,47,67
1513487319931924,-52,-33,23,21,12,6,7,-21
1513487319933926,16,39,-21,-46,-20,-13,-16,-25
1513487319933926,-42,-85,64,50,16,11,6,34
1513487319945934,94,77,-62,-24,-15,-9,-13,-23
1513487319945934,-44,-83,-11,-7,-4,-4,-5,-29
1513487319954939,-76,16,23,12,10,3,12,26
1513487319954939,111,64,-63,-46,-9,-3,11,68
1513487319970966,-99,-22,28,16,-1,-3,-16,-46
1513487319970966,32,2,-35,-6,1,-2,-6,9
1513487319972963,-11,-27,-20,-29,-21,-11,-17,-38
1513487319972963,37,46,27,23,21,10,0,24
1513487319991976,-59,-35,-10,-8,-6,-5,13,48
1513487319991976,19,59,14,0,-6,-4,2,-5
1513487319993967,-39,-61,-10,6,2,-1,2,-27
1513487319993967,-46,17,-2,-19,-1,-2,-8,26
1513487320005987,38,3,-2,20,4,-1,-8,-22
1513487320005987,-27,-11,55,29,7,4,-10,-20
1513487320014992,74,-11,-46,-20,-8,-3,19,21
1513487320014992,2,28,12,5,7,5,-3,15
1513487320030045,-17,-62,-11,5,1,5,-7,-13
1513487320030045,-25,2,-21,-6,-1,2,3,-28
1513487320032050,35,29,22,11,5,1,3,28
1513487320032050,-11,-16,14,-11,-9,-2,18,-1
1513487320053054,40,0,-5,2,5,7,2,22
1513487320053054,-26,29,11,20,-6,-3,-13,-58
1513487320054056,-27,15,7,21,2,-1,1,21
1513487320054056,-8,-32,-48,-16,-4,-3,-3,-7
1513487320074070,81,25,44,-7,3,-4,-14,-12
1513487320074070,-9,28,27,2,2,0,17,-3
1513487320076071,22,-88,-42,-20,-5,4,-2,24
1513487320076071,-52,39,25,12,3,2,4,21
1513487320097123,80,61,-42,-21,-15,-6,-11,-19
1513487320097123,-99,-66,8,4,3,-2,1,37
1513487320099104,76,85,23,5,4,-3,-6,-22
1513487320099104,-12,-86,-22,0,-7,-4,5,4
1513487320112097,13,24,23,18,-1,4,-8,-70
1513487320112097,-41,0,-5,-29,7,-1,-2,-1
1513487320114114,-36,21,-8,4,-6,0,14,75
1513487320114114,18,42,31,24,6,1,-11,21
1513487320134128,-80,-60,-9,2,-12,-6,-14,-70
1513487320134128,-14,-33,2,-9,-11,-12,-13,-13
1513487320136115,-68,31,-6,6,13,10,6,38
1513487320136115,22,-33,-38,-50,-22,-17,-23,-43
1513487320149139,-32,-36,17,13,0,-3,4,18
1513487320149139,21,17,1,4,-2,0,3,23
1513487320151140,127,53,6,-7,3,-3,-11,-2
1513487320151140,-40,41,6,0,-3,1,11,-4
1513487320172151,-64,-3,-13,9,-1,-4,-18,-23
1513487320172151,30,-2,18,-3,-2,2,10,69
1513487320173144,-56,-1,-9,3,-1,-2,-4,-75
1513487320173144,113,41,-3,-14,-1,-2,3,9
1513487320194167,73,-56,8,13,8,2,-6,-38
1513487320194167,14,64,-8,9,-3,-1,-8,4
1513487320196157,-81,-35,1,9,-1,4,26,74
1513487320196157,-106,-17,-6,-28,0,-3,-11,-63
1513487320209213,44,61,30,-1,18,9,13,46
1513487320209213,105,-65,-15,10,-8,-7,-18,-66
1513487320215238,13,-38,-15,-10,-8,0,9,10
1513487320215238,66,3,-7,6,3,1,-4,5
1513487320232229,-6,21,33,4,-2,-7,0,14
1513487320232229,-31,59,11,-6,7,2,13,69
1513487320233230,-28,-42,-19,-26,-3,1,-10,-102
1513487320233230,-56,-54,-3,-11,-8,-3,4,12
1513487320254246,35,-69,23,35,-2,-1,4,36
1513487320254246,-58,27,-9,-16,1,4,4,9
1513487320256256,-73,-29,20,23,7,-2,-7,-37
1513487320256256,98,39,-3,-9,-12,-3,1,64
1513487320269258,-25,51,8,-20,21,14,14,19
1513487320269258,13,-58,-31,4,-10,-7,-13,-72
1513487320275261,-9,43,-14,7,-2,-4,13,46
1513487320275261,52,3,27,9,6,6,-13,19
1513487320292273,-18,-61,-34,-12,-17,-11,13,65
1513487320292273,5,-7,5,12,6,6,10,126
1513487320294283,48,23,-10,-11,0,-1,-19,-75
1513487320294283,-2,56,11,5,7,5,4,98
1513487320314287,-15,14,-10,-11,-11,-5,-12,-115
1513487320314287,37,14,-24,-1,-5,-2,5,3
1513487320316291,-43,-91,31,-15,-6,-10,-2,66
1513487320316291,-115,-104,-62,-12,3,7,9,61
1513487320329298,26,20,14,38,2,-3,-18,-85
1513487320329298,-40,5,0,-24,6,10,10,18
1513487320335302,-13,-76,-11,-11,-8,-6,-14,-22
1513487320335302,-4,63,6,1,-1,-4,3,-54
1513487320352348,-8,-14,4,1,-2,3,2,65
1513487320352348,84,46,5,12,-3,-6,4,-65
1513487320354330,44,18,8,9,8,9,-8,-17
1513487320354330,-2,36,-15,8,-20,-14,-16,51
1513487320374330,-8,-8,13,6,10,5,0,-100
1513487320374330,-69,3,-21,-35,-6,-5,-7,62
1513487320376331,-13,9,10,3,6,3,3,-1
1513487320376331,-60,-15,3,9,-9,-9,-10,-128
1513487320389340,37,63,-6,6,7,9,11,83
1513487320389340,44,-1,39,3,-5,-4,-8,88
1513487320395345,-77,1,-33,-94,22,-1,0,-75
1513487320395345,86,40,12,19,1,0,0,-29
1513487320412358,-61,-23,-1,2,-3,-6,-2,54
1513487320412358,-22,-13,-17,0,1,-3,-14,-84
1513487320413358,16,1,-5,53,-16,-8,-1,86
1513487320413358,-40,-41,2,-34,21,5,24,85
1513487320434373,-42,8,-9,-23,5,7,-3,-60
1513487320434373,19,-29,-4,13,-9,-4,-3,2
1513487320440378,-53,18,24,20,-4,-3,-6,0
1513487320440378,83,16,-1,6,5,10,5,-4
1513487320449403,-74,-60,0,-4,-13,-10,-8,77
1513487320449403,-39,-59,-16,6,10,5,6,-2
1513487320455407,68,79,-10,6,-7,-1,7,-30
1513487320455407,-99,-42,5,8,-4,-2,-11,-127
1513487320472420,81,82,3,-9,5,4,-4,-28
1513487320472420,79,20,3,-16,-5,-5,-10,-24
1513487320473403,8,46,47,-2,9,11,8,8
1513487320473403,28,-61,-52,4,2,-12,-15,-69
1513487320502459,99,-16,17,10,-13,8,8,45
1513487320502459,32,12,-13,-36,17,3,8,9
1513487320503436,15,8,13,-11,-18,-2,-3,49
1513487320503436,12,64,23,-1,-20,-11,-8,-49
1513487320509425,20,-5,0,10,10,4,33,121
1513487320509425,-57,-22,3,19,0,-2,-17,-43
1513487320515429,23,-12,-11,21,-12,-8,-7,50
1513487320515429,45,23,53,-6,11,9,18,84
1513487320532442,9,-23,-7,-3,-7,-2,3,28
1513487320532442,-26,9,-3,7,-12,-9,-7,-55
1513487320533442,4,-23,4,7,10,1,-1,-6
1513487320533442,-1,5,4,1,-1,3,8,35
1513487320554457,-45,-18,-50,-7,3,-6,-12,-75
1513487320554457,15,24,3,5,3,2,4,24
1513487320556460,19,36,-7,9,-3,7,20,86
1513487320556460,-74,-114,-49,-61,1,1,-22,-93
1513487320568468,54,100,33,36,-15,-18,-20,82
1513487320568468,-51,-39,-36,-39,-1,3,7,-95
1513487320577473,-7,34,8,15,-20,-3,4,59
1513487320577473,-11,-46,-7,-11,-1,3,15,26
1513487320599490,4,-16,-23,-9,4,-4,-15,-57
1513487320599490,67,89,34,32,-5,-10,-7,17
1513487320605493,-3,-25,-18,-22,1,5,1,-62
1513487320605493,46,-47,-21,21,4,1,19,110
1513487320614499,-81,10,13,-5,-1,2,-22,-47
1513487320614499,7,-74,23,-2,-14,-8,23,127
1513487320616531,-55,-12,-46,9,7,12,19,-66
1513487320616531,-26,55,49,14,-3,-9,-9,97
1513487320628564,-50,-11,-12,-24,-3,-1,-9,-98
1513487320628564,-30,3,-3,16,-1,-5,-5,20
1513487320637518,30,-8,4,-20,0,-4,-10,54
1513487320637518,-81,-50,32,14,1,3,5,-81
1513487320652540,-52,44,-28,-35,13,-2,7,80
1513487320652540,-17,-30,-18,-40,-3,-14,-37,-110
1513487320653528,27,-34,-9,-26,10,-2,-8,80
1513487320653528,99,127,60,6,2,7,-1,61
1513487320674545,-32,-20,-1,32,-9,2,12,40
1513487320674545,-49,-51,6,14,16,8,2,16
1513487320676564,47,46,-40,-26,-5,-10,-2,26
1513487320676564,79,-33,-31,-4,-6,-5,12,110
1513487320688553,52,23,27,24,-2,-1,-4,-53
1513487320688553,-86,-17,-25,-27,-2,8,7,84
1513487320697574,48,-6,20,22,-3,-4,1,76
1513487320697574,-72,-71,-41,1,-5,-4,-14,-98
1513487320711580,-3,66,20,-8,1,-8,-13,73
1513487320711580,127,46,-9,53,-1,11,20,-21
1513487320713571,-85,-76,-2,-56,-4,1,10,-14
1513487320713571,97,99,12,24,12,7,14,73
1513487320734585,-41,-112,-1,16,-3,-4,-2,-76
1513487320734585,86,29,-21,-11,-6,-1,-6,5
1513487320736586,-74,25,34,25,12,10,-1,4
1513487320736586,-18,4,-31,23,-26,-17,-7,7
1513487320748595,-9,9,36,-19,21,10,-3,43
1513487320748595,-105,-5,-11,0,-9,1,4,-40
1513487320757602,38,-31,-13,-16,9,-2,-4,23
1513487320757602,2,-36,-15,15,-10,-3,-12,-32
1513487320770624,-56,-44,-11,-33,5,4,10,60
1513487320770624,49,-1,29,19,12,1,-6,-63
1513487320779616,-29,12,1,-1,-17,-8,-14,-118
1513487320779616,-54,-50,-5,-8,1,1,-7,-46
1513487320794639,55,73,-9,-5,-5,-4,7,0
1513487320794639,-18,-25,12,3,0,1,5,23
1513487320795640,22,-22,-3,17,-4,-3,-2,2
1513487320795640,-10,31,1,-4,10,9,24,79
1513487320808637,32,83,19,17,0,-3,-14,-1
1513487320808637,-29,-26,-38,-12,-21,-16,-16,-73
1513487320816700,-18,4,19,29,14,3,-5,-26
1513487320816700,12,33,-12,-22,-9,-6,-12,5
1513487320831653,6,-31,-13,5,-10,-5,5,37
1513487320831653,-29,51,28,36,-2,-4,4,35
1513487320833654,11,-66,-26,-8,17,15,4,33
1513487320833654,8,5,32,-29,5,6,5,-109
1513487320854686,-12,19,-27,-4,-12,-8,1,44
1513487320854686,7,-34,6,-11,8,2,-6,-65
1513487320855683,115,112,-54,19,-15,-8,1,-10
1513487320855683,-57,-29,24,-16,-3,-5,3,54
1513487320868692,10,8,-44,-15,1,3,-10,-118
1513487320868692,67,-25,3,-2,-6,-4,5,127
1513487320882689,-37,-51,3,-13,-9,-11,-36,-118
1513487320882689,38,81,17,-9,1,1,-6,101
1513487320891696,-38,-83,1,-6,-5,-5,0,-42
1513487320891696,-34,64,19,4,1,-2,5,81
1513487320893701,43,-25,-2,6,-6,0,16,19
1513487320893701,-12,17,-6,-5,-7,-6,-17,-29
1513487320914712,10,-48,2,7,2,2,-5,-33
1513487320914712,-9,28,-8,8,-12,-3,8,11
1513487320915713,7,34,23,19,5,-3,0,39
1513487320915713,-13,-12,-15,0,14,9,0,-36
1513487320928735,-7,32,30,46,-18,-18,-13,-17
1513487320928735,-2,4,-36,-51,3,9,-1,-87
1513487320936727,-15,7,-23,19,-8,-1,4,127
1513487320936727,-6,-14,-42,-8,-3,-10,-12,-92
1513487320951751,39,-17,-4,12,2,5,-4,-12
1513487320951751,54,12,-5,-12,-6,-7,-7,46
1513487320953741,3,55,27,0,7,1,-7,-29
1513487320953741,-47,-97,-24,7,-8,-2,4,-17
1513487320974755,-94,-39,-3,-27,7,1,0,-4
1513487320974755,-6,-80,-12,8,-5,-4,-4,-36
1513487320975756,32,37,17,-24,6,0,6,29
1513487320975756,45,43,16,10,-7,-6,-6,-15
1513487320997773,29,15,-32,-14,-2,2,12,68
1513487320997773,-6,37,14,-1,-3,0,7,29
1513487320998771,-77,-56,-9,7,1,0,-7,-128
1513487320998771,50,56,-24,6,1,-6,-8,46
1513487321011780,-35,-62,20,-20,6,3,5,-33
1513487321011780,79,106,-13,13,-1,-2,-7,5
1513487321017786,-13,-45,1,5,5,-3,8,105
1513487321017786,-19,23,0,34,-6,1,-2,-32
1513487321034796,18,9,-11,-36,-1,-1,0,-26
1513487321034796,13,-6,-17,7,13,4,-6,-37
1513487321035798,-36,-5,7,-12,-13,-4,7,-21
1513487321035798,15,5,28,19,-2,0,-4,26
1513487321056813,-32,-4,-5,15,1,4,4,-31
1513487321056813,-41,-6,-2,-14,-1,-1,5,2
1513487321058814,55,25,14,6,-4,-2,-2,14
1513487321058814,-60,-60,15,-21,-3,4,6,-6
1513487321071823,32,9,7,4,6,-4,-6,-26
1513487321071823,-27,-18,24,-5,3,0,-1,24
1513487321077829,29,31,2,-1,-9,-1,10,58
1513487321077829,-76,-15,-22,-10,7,-4,-17,-66
1513487321094840,2,-35,34,-14,-10,-1,9,105
1513487321094840,-6,-35,-56,7,-1,1,7,50
1513487321095841,-16,-11,4,-7,-3,0,-5,18
1513487321095841,61,42,0,2,7,2,1,-41
1513487321117870,2,-1,-32,1,-3,-7,-8,-11
1513487321117870,-61,22,30,-6,0,0,-3,-8
1513487321119859,52,13,-2,-2,-10,1,5,-39
1513487321119859,0,-45,-12,4,-3,-1,4,44
1513487321131866,18,58,-31,-10,-9,-3,-3,3
1513487321131866,7,-53,28,-5,12,5,3,-35
1513487321137870,1,71,18,4,0,-4,-13,-55
1513487321137870,-35,-66,9,-2,-1,3,4,-38
1513487321161901,25,39,22,26,4,-3,-7,19
1513487321161901,10,-12,-47,-24,-3,1,1,29
1513487321163902,-39,-5,-1,1,-3,-11,-4,35
1513487321163902,37,12,1,-19,6,4,8,-15
1513487321176926,-17,-34,9,6,-7,-4,-18,-61
1513487321176926,6,15,41,9,-1,-4,-7,45
1513487321178911,-1,-7,-15,-3,0,2,-2,-14
1513487321178911,-2,57,27,0,1,-3,-4,20
1513487321190917,68,23,-1,-7,-2,3,14,3
1513487321190917,45,-42,-17,11,-8,-6,-15,4
1513487321197912,-8,-35,-11,-9,18,7,5,-12
1513487321197912,10,20,27,-31,-4,-3,-1,38
1513487321214970,56,56,6,5,-1,0,2,37
1513487321214970,-32,-11,6,-2,-6,0,1,-84
1513487321215940,-6,-46,10,-25,-2,-1,5,17
1513487321215940,16,31,-26,7,-3,0,-1,-29
1513487321237941,-11,-28,9,-11,5,-5,-1,31
1513487321237941,4,7,4,-1,-1,-3,1,26
1513487321238942,-44,-8,6,20,-6,-3,0,-10
1513487321238942,22,15,6,-3,1,1,1,15
1513487321250950,29,19,-21,-6,-2,-3,1,-20
1513487321250950,4,39,15,10,-1,-5,-13,31
1513487321258956,-46,-37,-28,5,-6,-1,-12,-115
1513487321258956,27,-12,-12,-1,1,2,5,77
1513487321273966,-46,-14,-8,-12,-2,2,3,-68
1513487321273966,34,40,-9,3,-1,-1,5,51
1513487321274967,23,6,-19,8,-9,-4,-14,25
1513487321274967,-17,27,-18,10,0,4,9,2
1513487321295981,-49,-114,-17,-2,-8,-11,-14,-28
1513487321295981,-33,24,12,-18,4,5,6,-20
1513487321296982,43,19,-1,1,-6,0,5,14
1513487321296982,5,-26,-12,3,-2,-5,-8,9
1513487321310992,13,21,-4,1,7,3,16,127
1513487321310992,-34,3,47,5,-4,-5,-2,-48
1513487321319000,30,3,-44,-6,3,4,2,47
1513487321319000,50,77,56,12,0,0,3,-70
1513487321334008,-67,-28,-12,-19,-2,1,0,61
1513487321334008,47,-96,-1,3,2,5,1,-4
1513487321335009,-47,-8,27,-5,-14,-3,1,-6
1513487321335009,-66,-38,8,2,20,4,-4,23
1513487321356023,41,58,-36,-5,-2,2,-3,-3
1513487321356023,61,52,16,11,7,6,9,4
1513487321357024,-70,-66,-3,-1,-12,-6,-3,-32
1513487321357024,0,-15,-16,-13,-9,-5,-4,33
1513487321371049,4,15,30,5,7,-2,-9,-5
1513487321371049,-37,25,-20,-1,0,-2,0,22
1513487321379041,42,16,-12,-2,4,3,3,-13
1513487321379041,29,-29,16,9,-12,-6,-10,5
1513487321394050,-26,-17,3,6,4,0,-8,-23
1513487321394050,19,39,-12,-5,0,-5,4,13
1513487321395051,-31,-49,9,7,3,2,0,6
1513487321395051,6,49,-10,-7,-3,1,3,-72
1513487321416068,66,37,67,33,12,3,5,-8
1513487321416068,-78,-61,-29,-28,-5,-4,-10,11
1513487321417067,0,35,11,-3,2,-1,-3,5
1513487321417067,43,13,-36,-7,0,6,13,65
1513487321440084,9,27,2,-8,-2,-2,-4,-69
1513487321440084,-22,-16,12,-3,2,0,2,13
1513487321440084,11,18,9,-6,0,-4,-7,4
1513487321440084,29,17,-2,2,-8,-4,-2,-2
1513487321462098,-21,11,-7,-21,-2,-4,1,2
1513487321462098,-28,-47,-12,9,2,-1,-3,-42
1513487321463099,-19,-9,-23,-23,-5,-4,-6,-7
1513487321463099,-12,-3,26,9,1,-1,-3,13
1513487321476180,50,25,-8,7,-5,-2,3,42
1513487321476180,-24,-20,19,9,11,9,5,-46
1513487321477153,18,22,0,4,-1,1,2,-11
1513487321477153,-94,-50,-7,-7,6,2,2,-33
1513487321491167,12,-26,-7,2,-8,2,9,66
1513487321491167,4,15,-25,0,0,-6,-10,-25
1513487321499173,-13,-4,15,-31,5,1,2,-24
1513487321499173,-2,21,-13,-2,-8,-3,0,37
1513487321514181,-28,-89,9,-9,-9,-5,-5,-2
1513487321514181,21,32,-24,2,-8,-6,-9,-68
1513487321514181,18,23,-37,21,0,4,15,49
1513487321514181,10,-22,-11,-9,9,2,-3,24
1513487321536196,-2,10,9,2,3,0,-11,-72
1513487321536196,7,-14,-3,-6,-17,-10,-1,-3
1513487321537185,9,-23,16,9,3,-2,-5,18
1513487321537185,4,21,-1,-1,-4,-3,-5,13
1513487321550207,-7,-33,-40,2,-4,1,6,-17
1513487321550207,-7,19,32,8,3,-4,-11,-5
1513487321559213,-2,61,32,13,-3,-4,-2,-43
1513487321559213,14,-48,0,-4,1,1,6,-10
1513487321574215,-30,3,-37,-7,-3,-2,-5,-7
1513487321574215,-24,-22,-15,2,-4,-5,-8,17
1513487321574215,5,-40,-28,-19,-1,-3,-4,-6
1513487321574215,-18,16,10,-11,-1,-3,1,-46
1513487321596229,-75,-59,-5,0,-1,-7,-11,-50
1513487321596229,41,38,14,7,-5,-4,14,45
1513487321597230,-9,-40,9,0,-1,3,-1,-8
1513487321597230,12,24,17,9,-3,3,7,17
1513487321610249,-14,17,9,-5,-1,-4,-5,71
1513487321610249,-5,20,1,-2,-1,-1,1,-45
1513487321619283,2,-28,-5,15,-1,-1,-3,4
1513487321619283,-17,-26,1,-13,-4,-1,-4,-1
1513487321633263,64,51,35,4,1,2,6,39
1513487321633263,-13,-37,-9,2,-2,3,-3,-17
1513487321634267,39,65,13,-11,-2,-1,0,-48
1513487321634267,-22,-60,-13,0,0,-1,-9,-20
1513487321656282,52,48,12,-4,-3,-5,-3,9
1513487321656282,-32,-27,14,-9,0,0,1,40
1513487321657285,-11,0,3,6,-4,-4,-11,-32
1513487321657285,14,-8,-31,-4,9,4,1,33
1513487321670294,-41,4,7,-5,1,2,0,-79
1513487321670294,-44,-26,-26,-3,-6,3,9,38
1513487321678323,27,23,-10,-12,4,6,7,25
1513487321678323,-38,-17,0,-1,-3,-6,-10,-21
1513487321694316,-31,-37,-19,2,-3,-4,-6,-7
1513487321694316,29,54,15,-5,1,0,-4,11
1513487321694316,21,19,11,19,2,0,1,-30
1513487321694316,-43,5,-4,-4,1,3,0,21
1513487321716335,23,-24,-28,-19,0,-1,1,-43
1513487321716335,34,13,-14,5,0,-1,-2,64
1513487321718332,-12,19,13,-6,-8,-4,6,23
1513487321718332,-4,20,22,9,-4,-3,-2,-31
1513487321739347,47,10,13,2,-5,-3,-2,30
1513487321739347,20,0,22,19,7,-2,-3,17
1513487321740334,-1,-6,-16,-9,1,1,-5,7
1513487321740334,43,56,3,-3,-10,-4,3,51
1513487321754362,-34,-65,1,4,1,1,0,-29
1513487321754362,54,23,16,-8,-5,-6,-1,5
1513487321754362,-25,-4,-10,10,2,-3,-12,-33
1513487321754362,0,-4,42,-23,-11,1,3,23
1513487321776358,3,56,13,19,-1,-1,-2,3
1513487321776358,56,-29,-37,-25,-7,0,-4,-33
1513487321777357,-18,-4,15,14,2,3,9,44
1513487321777357,8,-1,-24,-2,1,-3,-6,-55
1513487321792365,-14,7,2,-2,2,1,0,30
1513487321792365,-53,-2,15,14,-1,-4,2,5
1513487321799384,33,28,9,-5,3,6,8,25
1513487321799384,7,-31,-18,-10,-6,-10,-12,-67
1513487321813391,0,17,-26,-10,1,-1,1,15
1513487321813391,-1,-9,-20,-2,-3,1,5,20
1513487321814391,7,-16,18,6,3,1,3,38
1513487321814391,-80,-52,2,6,1,-2,-1,-43
1513487321836399,-22,-17,10,-3,-4,3,-3,-13
1513487321836399,-17,13,-6,-16,2,0,1,-14
1513487321837415,1,-37,-44,-2,-12,-7,-5,-44
1513487321837415,30,20,30,1,-1,-1,-3,53
1513487321850420,16,13,-6,3,5,-2,1,30
1513487321850420,-32,-41,7,-21,-4,1,-9,-42
1513487321859414,8,-20,2,27,4,0,2,-3
1513487321859414,19,48,-21,14,2,0,0,56
1513487321873436,-19,-40,-11,-18,-1,1,0,-27
1513487321873436,6,25,5,-6,4,-2,-6,-17
1513487321874438,-37,18,67,2,-1,-2,-6,-9
1513487321874438,-4,-3,-85,3,-6,-6,-2,-7
1513487321896451,-12,-17,-17,-11,7,6,4,38
1513487321896451,59,25,11,7,-5,-1,2,32
1513487321897452,-4,-32,7,-17,-9,-3,2,49
1513487321897452,-50,-52,5,9,5,1,-1,-37
1513487321919478,-24,-3,11,-9,-5,1,2,14
1513487321919478,24,36,-31,9,-2,-2,5,4
1513487321920457,-29,-79,-15,-10,-1,-1,-1,-25
1513487321920457,62,19,-1,-12,-3,-5,-5,10
1513487321933468,31,2,6,12,-11,-7,-7,2
1513487321933468,-4,-25,-7,4,-3,-2,-6,-19
1513487321934469,-23,22,3,-29,0,0,7,7
1513487321934469,47,0,-63,-1,-1,2,-3,6
1513487321956492,2,-26,-11,4,7,-1,-5,-13
1513487321956492,6,38,-3,-2,-1,0,0,-31
1513487321957494,-29,2,9,-1,1,0,5,39
1513487321957494,18,-4,-12,-1,-6,-1,3,19
1513487321979513,36,-15,12,6,1,4,2,10
1513487321979513,-39,11,-37,1,7,2,-2,-25
1513487321980502,9,-15,-13,-9,-7,-6,-5,8
1513487321980502,-13,15,29,1,2,-3,-1,0
1513487321994520,-5,9,-14,4,2,-1,1,-13
1513487321994520,-21,-34,28,10,-3,0,7,-80
1513487321994520,22,30,-8,-8,4,3,-2,0
1513487321994520,-9,5,12,-11,0,0,-10,28
1513487322016534,39,46,-38,16,0,-5,-4,-15
1513487322016534,-18,-22,40,-14,-6,-4,-2,-10
1513487322017535,-6,15,-6,-11,-1,-2,-12,-51
1513487322017535,10,-6,31,9,5,0,8,29
1513487322039550,-2,10,16,-25,-2,1,-1,-39
1513487322039550,-19,-40,11,1,-2,-1,0,57
1513487322040551,-51,-6,-57,6,3,-3,-6,-75
1513487322040551,17,14,-7,8,-4,-2,-3,1
1513487322053560,-19,5,30,1,3,3,3,-6
1513487322053560,17,-38,29,0,8,3,4,47
1513487322054552,30,4,10,2,-11,-4,1,17
1513487322054552,5,9,18,22,-2,-3,-3,11
1513487322076589,-59,-2,-16,-24,0,0,-8,-89
1513487322076589,27,30,20,10,-6,-3,5,1
1513487322077590,59,-8,-25,29,2,1,2,30
1513487322077590,-35,20,35,-38,3,0,-6,-26
1513487322099599,-54,-45,-4,17,-8,-7,-2,31
1513487322099599,-2,-12,17,-5,0,0,-7,-16
1513487322101598,40,38,-31,-3,-2,-3,0,14
1513487322101598,8,23,8,4,-1,-1,8,-30
1513487322113602,23,-22,-12,-6,-3,-5,-10,3
1513487322113602,-68,9,-16,-6,-3,-4,-8,19
1513487322114602,-21,-30,11,-8,-6,-2,-2,-89
1513487322114602,33,14,12,4,8,3,6,9
1513487322136610,6,-6,-5,1,-10,-2,4,63
1513487322136610,20,1,-26,6,2,3,-1,-28
1513487322137626,26,25,-6,-24,3,1,-3,-4
1513487322137626,-17,-39,-12,15,-10,-8,3,39
1513487322159635,20,37,4,-21,0,3,1,-23
1513487322159635,5,-25,-10,16,0,-1,-5,-7
1513487322160636,14,4,44,4,0,1,11,78
1513487322160636,29,31,-10,1,-2,2,2,41
1513487322173645,34,24,26,14,0,-3,-4,-14
1513487322173645,-24,-32,-4,-24,-9,2,-2,18
1513487322174643,-50,-13,-13,5,9,2,-3,18
1513487322174643,0,16,17,15,1,0,6,51
1513487322196655,-7,-32,16,8,4,4,2,17
1513487322196655,-7,22,-8,-15,-4,-5,-3,-13
1513487322196655,6,-13,7,10,-1,2,0,-4
1513487322196655,-21,-58,25,1,-3,0,-1,17
1513487322219706,-1,-1,-45,6,1,-2,0,-21
1513487322219706,29,42,25,-9,2,1,5,49
1513487322220682,-15,39,1,13,-1,1,9,42
1513487322220682,16,-40,-12,-7,-6,-5,-11,-41
1513487322233679,2,-28,-46,-1,9,0,5,81
1513487322233679,-18,8,8,0,-4,0,-1,-16
1513487322234680,43,55,36,3,0,-1,4,-45
1513487322234680,-37,-24,-30,-12,3,-2,-14,-27
1513487322256703,3,6,-3,1,-6,-8,-2,7
1513487322256703,22,-6,1,-14,-6,-1,-1,10
1513487322257701,-2,-21,-31,-2,10,8,6,19
1513487322257701,-5,15,0,-22,-5,2,0,5
1513487322279728,-20,-29,13,-9,3,1,-3,-37
1513487322279728,-53,-2,-25,19,-2,-1,-1,-7
1513487322280721,-6,-23,24,-10,-14,-8,-9,35
1513487322280721,11,28,12,-2,-2,-3,-1,-87
1513487322293729,-16,-13,10,2,-3,-2,4,86
1513487322293729,25,26,-1,3,-4,-4,-8,-62
1513487322294721,-30,-3,17,-8,-4,-8,-9,-31
1513487322294721,-18,-15,-50,-5,2,1,6,16
1513487322316746,-15,14,29,3,-7,-5,-9,-25
1513487322316746,24,16,-9,-13,1,-1,1,18
1513487322316746,-24,-17,8,-7,-1,1,0,24
1513487322316746,-9,9,-39,7,6,1,-5,-50
1513487322339762,49,3,19,-14,7,2,0,-36
1513487322339762,-7,-4,-3,15,3,0,0,58
1513487322340762,0,0,3,-15,-6,4,-3,-65
1513487322340762,-5,-21,25,-6,3,3,2,5
1513487322352787,-31,-7,0,0,-9,-3,-5,-8
1513487322352787,8,-2,34,12,1,1,4,24
1513487322361780,23,-1,-19,0,1,0,5,15
1513487322361780,23,17,38,6,0,2,-2,-13
1513487322376791,-5,22,-37,2,-4,-5,-5,-7
1513487322376791,-22,-2,26,-16,4,-2,4,-8
1513487322376791,15,-15,-32,10,1,2,-3,11
1513487322376791,1,-6,19,-3,-7,-5,-3,-43
1513487322399813,-8,-4,-22,8,0,1,5,23
1513487322399813,4,7,-25,-1,-6,-2,0,16
1513487322399813,36,8,11,10,10,4,5,-24
1513487322399813,-27,5,-17,-4,-12,-8,-5,13
1513487322413818,-11,-1,0,2,3,1,3,5
1513487322413818,14,-23,-24,-8,-6,-2,-9,-49
1513487322414810,-37,15,-13,11,-4,-2,-3,-6
1513487322414810,41,-14,-5,-6,-3,0,-1,96
1513487322435834,10,25,-21,-1,-4,-1,-2,-85
1513487322435834,-10,13,9,-14,5,2,5,15
1513487322436823,2,-34,18,3,-6,-3,3,44
1513487322436823,14,25,8,14,1,-2,-5,13
1513487322459852,1,-11,26,-6,-5,-3,2,13
1513487322459852,19,6,-12,2,1,0,0,-15
1513487322459852,22,18,30,-5,2,1,3,0
1513487322459852,-22,5,8,5,3,0,0,-33
1513487322473871,-3,-27,-15,-6,2,0,-3,20
1513487322473871,8,-5,-10,13,-11,-7,-6,-23
1513487322474852,-19,-9,-5,-22,0,1,-2,12
1513487322474852,24,34,-15,-7,-1,-3,3,68
1513487322495880,-34,-50,18,2,-2,1,-2,-55
1513487322495880,25,1,-18,2,3,-1,-7,-83
1513487322496865,-33,1,-16,3,-4,-6,-14,13
1513487322496865,3,-2,-5,10,-1,-2,-5,4
1513487322519893,13,1,5,-6,4,3,9,20
1513487322519893,-32,7,21,-11,-2,-3,3,19
1513487322519893,-3,-10,20,3,-6,-3,-2,-38
1513487322519893,-16,-1,-18,-5,1,-2,4,-35
1513487322532901,-3,-12,12,7,0,-3,-10,38
1513487322532901,18,24,5,3,6,6,11,1
1513487322540908,-27,-41,-9,-3,-15,-11,-6,-47
1513487322540908,-48,-13,18,-4,8,3,-4,-31
1513487322555907,9,32,-12,-10,-9,-6,-5,12
1513487322555907,7,-1,7,9,-7,-7,-10,-2
1513487322556917,20,11,-15,-1,5,5,6,20
1513487322556917,-26,-59,-26,-3,-5,-6,1,15
1513487322579935,-42,7,4,-4,-6,0,2,2
1513487322579935,4,-35,-49,4,1,1,0,27
1513487322579935,0,43,57,11,1,-3,1,-7
1513487322579935,20,-41,-1,19,-2,2,0,-13
1513487322592943,0,33,0,4,5,7,-1,17
1513487322592943,-56,-45,1,-29,-3,1,12,45
1513487322600976,22,-5,-38,-4,-6,-6,-13,-5
1513487322600976,-13,-21,-3,-9,-5,-7,-6,-17
1513487322615986,13,44,6,-1,-8,-2,2,9
1513487322615986,-51,-29,5,9,2,3,-1,-15
1513487322623963,24,40,20,0,3,1,-2,-3
1513487322623963,-9,19,-1,-24,4,0,-2,-18
1513487322646980,17,-54,-2,5,-4,-5,-7,8
1513487322646980,13,14,-79,-12,-3,-2,0,-24
1513487322647972,-68,-58,1,2,-2,3,6,28
1513487322647972,23,13,2,3,-3,-3,-5,8
1513487322652992,6,-34,14,2,8,0,-2,-65
1513487322652992,44,53,-8,-10,-9,-5,4,3
1513487322660981,3,11,-18,9,1,1,3,6
1513487322660981,-39,-44,13,13,3,5,-2,-28
1513487322676005,8,40,-1,-10,12,-2,-7,-5
1513487322676005,19,18,27,-7,-3,1,-2,59
1513487322677001,14,21,-43,0,5,-5,-3,-29
1513487322677001,-20,-9,0,-18,-5,1,-14,-54
1513487322700014,3,-20,-16,-1,-7,-3,19,22
1513487322700014,-6,7,23,8,2,-3,-19,-39
1513487322700014,24,20,14,-1,-1,0,3,45
1513487322700014,-7,11,-1,-2,1,-1,4,-41
1513487322713036,37,33,12,7,-4,-3,-10,20
1513487322713036,5,-19,-10,-5,-1,1,8,-19
1513487322721043,-26,-11,-16,-12,-3,-1,1,21
1513487322721043,12,7,-4,4,1,0,-6,-20
1513487322736035,8,24,13,-10,-4,-3,-6,-35
1513487322736035,-1,-19,13,2,1,1,9,8
1513487322738036,-3,-3,-18,0,1,1,-10,-11
1513487322738036,10,23,-25,-5,-6,-4,4,-5
1513487322759059,-35,-8,-4,0,0,-4,2,-4
1513487322759059,40,-18,18,-24,-3,-3,-5,39
1513487322760049,-19,-6,21,-1,-3,-4,-4,-67
1513487322760049,3,-6,31,7,6,2,-1,18
1513487322773059,-14,-11,-89,-7,-8,-4,-2,16
1513487322773059,26,23,11,6,-5,-3,-10,20
1513487322781074,0,-18,20,1,-1,2,11,-11
1513487322781074,23,-1,0,5,3,-4,3,70
1513487322796087,-3,6,3,5,1,1,-10,-18
1513487322796087,-38,-38,24,5,-2,-2,1,15
1513487322797078,-19,-7,-59,-3,8,4,-2,1
1513487322797078,-2,-2,10,4,-5,-4,2,23
1513487322835112,19,17,-13,0,3,-2,-5,16
1513487322835112,-24,-9,18,9,-4,-4,-1,-11
1513487322836113,22,13,14,-6,-2,1,3,44
1513487322836113,-20,-26,-1,16,-2,-3,-8,-77
1513487322838123,0,16,16,-26,2,0,4,28
1513487322838123,-11,-37,-13,2,1,3,9,2
1513487322841116,2,7,-11,-9,-3,1,-2,-19
1513487322841116,7,54,11,-3,-2,3,4,52
1513487322856128,-4,-50,10,8,-9,-2,-5,-75
1513487322856128,0,21,-21,7,9,1,-7,4
1513487322857123,13,19,19,-3,-5,-3,6,45
1513487322857123,-2,-22,-3,-12,-1,0,13,-23
1513487322887204,-1,3,-18,0,-3,-2,-3,45
1513487322887204,-21,0,-60,-3,-7,-5,-6,-9
1513487322888192,30,-5,11,0,4,1,-2,-32
1513487322888192,-49,23,-6,-7,-1,-5,-13,-28
1513487322902217,39,-10,-5,3,1,-3,-2,1
1513487322902217,-14,21,13,5,-1,-2,-4,-7
1513487322903216,-16,-29,0,7,-8,-7,-5,20
1513487322903216,34,28,26,-17,4,1,4,11
1513487322916268,-27,-19,19,-1,-1,0,-1,-8
1513487322916268,14,6,-7,4,-1,1,-4,-22
1513487322917221,2,2,-19,5,2,1,10,75
1513487322917221,6,12,25,-1,-2,-2,-10,-30
1513487322939228,-6,-5,-3,0,-2,-1,5,-6
1513487322939228,23,7,26,-3,-1,0,3,15
1513487322940228,-31,-13,17,4,-4,-2,-3,6
1513487322940228,1,-13,-19,-18,-6,2,-5,-63
1513487322962253,-26,27,15,8,-3,-5,1,63
1513487322962253,-21,-8,-23,-1,7,3,8,0
1513487322962253,16,-8,16,-2,-8,-4,-6,2
1513487322962253,27,-19,-13,4,-7,-7,-2,8
1513487322976262,1,36,32,-1,8,9,5,-6
1513487322976262,28,9,15,3,-2,-6,-1,-4
1513487322977253,-9,-31,-35,-16,-4,0,-4,-20
1513487322977253,6,24,10,10,-1,-1,-6,4
1513487322999292,27,-30,-6,-1,-4,-5,2,-21
1513487322999292,7,-4,12,0,-5,-1,-1,50
1513487323000269,6,26,-16,-15,6,6,0,-111
1513487323000269,-11,-21,-9,0,-2,0,0,54
1513487323022286,-12,-17,-26,-4,-3,-1,-1,-2
1513487323022286,18,13,6,6,2,3,0,-11
1513487323022286,-6,26,-29,-1,-3,-3,0,9
1513487323022286,29,-3,42,5,4,-1,2,19
1513487323036307,-19,-10,-38,-20,-10,-5,-4,-27
1513487323036307,-27,-5,-19,13,-5,-2,0,-12
1513487323037313,21,-3,27,3,1,-3,-5,-4
1513487323037313,24,-4,-30,-3,-1,2,3,13
1513487323059321,-49,5,35,14,3,-3,2,69
1513487323059321,21,-5,3,-7,1,2,1,-41
1513487323060322,21,26,3,3,-1,0,4,67
1513487323060322,-35,-13,-9,9,-1,-6,-11,-16
1513487323082338,3,-40,-26,-10,-4,-1,-1,-6
1513487323082338,2,16,2,-2,4,4,2,5
1513487323082338,-14,3,25,5,-2,-5,0,-14
1513487323082338,-5,9,-26,-6,11,3,2,30
1513487323104421,4,-2,6,3,-1,1,-5,-31
1513487323104421,-16,10,-29,-9,-1,-4,0,32
1513487323105408,-18,-62,-22,-5,-1,0,-2,15
1513487323105408,-35,16,16,3,-8,-7,-7,-6
1513487323119457,9,-17,-33,-8,4,3,3,-8
1513487323119457,0,30,40,-3,-9,0,-6,-26
1513487323120419,15,3,21,6,-3,-5,-4,-4
1513487323120419,0,-29,-68,11,-4,-6,1,3
1513487323142447,0,12,23,-3,6,2,1,2
1513487323142447,22,6,2,0,-3,-4,0,4
1513487323142447,1,15,-4,-3,4,2,3,25
1513487323142447,-2,10,-17,-3,-7,-2,-7,-83
1513487323156451,-2,8,24,5,-3,-4,-2,-11
1513487323156451,-7,-39,-14,8,-1,-3,1,-7
1513487323157445,3,-11,-9,-14,0,1,-3,2
1513487323157445,-12,-24,0,-3,8,2,1,25
1513487323179477,37,45,20,10,-1,0,-5,21
1513487323179477,-45,-7,-20,-9,4,3,12,-16
1513487323180474,-26,-16,8,9,-4,-3,3,15
1513487323180474,14,0,0,-12,-8,-2,-4,-14
1513487323201491,37,17,7,-3,2,-2,2,23
1513487323201491,-14,-15,8,8,-3,-3,-6,-5
1513487323202477,25,31,-11,-7,3,-1,2,29
1513487323202477,-14,-33,-18,-5,1,0,4,66
1513487323216499,19,23,29,8,-2,-5,-14,-100
1513487323216499,6,-5,-1,-10,1,0,-3,28
1513487323217488,-8,-7,-17,1,-5,-2,-4,-17
1513487323217488,28,18,34,-6,-4,-3,-5,34
1513487323239515,-19,-5,-13,3,-1,1,4,6
1513487323239515,3,18,-4,-7,-3,-3,-2,13
1513487323240516,-25,-25,14,-3,3,0,-5,-50
1513487323240516,5,6,-2,2,-3,-2,3,19
1513487323262520,-17,-16,-4,-7,-10,-3,2,24
1513487323262520,18,17,11,-1,14,4,-1,-35
1513487323262520,0,-20,-10,-5,-16,-5,-1,16
1513487323262520,-18,24,12,11,12,3,4,2
1513487323276540,-8,2,-17,1,6,4,-2,26
1513487323276540,-5,-19,-13,-10,-6,-1,-6,-41
1513487323277540,33,5,-10,8,3,1,-2,-15
1513487323277540,-6,11,2,-5,-4,-1,6,-4
1513487323299556,-31,-29,5,2,0,-1,-4,-32
1513487323299556,2,5,-32,-2,-3,-2,5,21
1513487323300548,-7,16,34,-3,1,-3,-2,-4
1513487323300548,-43,-28,-9,2,-4,3,1,-18
1513487323321572,40,11,12,-7,-2,-3,-2,5
1513487323321572,1,-5,-7,8,-5,-1,-3,-31
1513487323322563,9,22,0,-5,-2,-3,-3,-5
1513487323322563,35,-22,-8,-4,0,0,-3,26
1513487323336585,-45,-17,-1,1,-4,-3,3,-23
1513487323336585,-2,4,-6,-9,-3,-4,-6,-2
1513487323337614,10,5,0,-4,5,2,-3,-14
1513487323337614,8,25,17,16,4,1,2,-34
1513487323359599,2,-31,-21,-25,-10,-4,-3,26
1513487323359599,-8,5,18,19,2,0,6,-3
1513487323360599,-4,8,18,0,5,1,4,-21
1513487323360599,-15,-20,-13,-11,-3,-3,-9,-9
1513487323382614,34,23,4,8,-3,-3,5,20
1513487323382614,-35,-10,9,-6,-3,1,-2,-2
1513487323383605,4,-1,14,-2,-4,-2,-2,-2
1513487323383605,4,8,-34,1,2,-3,-6,-26
1513487323395626,-18,20,-12,-12,1,-2,-2,-5
1513487323395626,33,-19,-6,-5,-8,-1,-4,7
1513487323404621,-5,-10,3,9,0,-1,-1,-34
1513487323404621,18,11,11,0,-3,0,2,12
1513487323419653,-18,-12,15,7,-1,0,-3,6
1513487323419653,3,-1,-15,0,1,-3,-5,0
1513487323421634,-13,4,1,-3,-5,-4,2,31
1513487323421634,-7,-1,-13,-17,-4,-3,0,-23
1513487323441658,-22,-21,15,8,-5,-5,-4,-4
1513487323441658,24,1,5,0,-1,-5,-4,5
1513487323443657,6,-2,-7,-10,-4,0,3,-14
1513487323443657,-1,10,-2,-1,1,-1,-2,27
1513487323464685,8,7,8,-7,-7,-5,-1,5
1513487323464685,-7,-14,-8,1,-6,-2,1,3
1513487323465683,2,15,0,1,0,-1,-4,39
1513487323465683,4,-18,-2,-8,-6,-2,-6,-1
1513487323479684,-14,3,-14,-2,1,3,2,-15
1513487323479684,-12,-2,62,4,2,3,4,37
1513487323480684,8,8,0,4,-2,-2,-7,-10
1513487323480684,-12,-35,11,-1,2,0,-1,-49
1513487323501757,-5,1,-11,-3,5,5,3,-44
1513487323501757,-23,16,-19,-4,-4,2,4,15
1513487323503758,12,18,16,2,-4,-1,3,10
1513487323503758,16,7,-8,-12,-3,-1,-2,24
1513487323515778,-2,-17,6,12,4,-2,-5,-44
1513487323515778,-2,17,-2,7,3,0,2,-24
1513487323524773,-2,-35,-20,-11,-9,-9,-15,-32
1513487323524773,2,6,-2,8,-1,-2,3,9
1513487323539783,37,22,-21,-8,-6,-2,-1,16
1513487323539783,-4,3,-16,0,4,1,4,43
1513487323540798,-19,-23,-6,15,1,-4,-8,14
1513487323540798,6,12,29,0,0,-2,1,-5
1513487323561802,14,-7,-3,2,5,-1,-6,-7
1513487323561802,7,1,27,-8,-2,-3,-5,-28
1513487323563801,-47,8,-14,5,-1,3,4,26
1513487323563801,63,-45,-24,-9,-4,-2,-4,-12
1513487323575799,13,14,-8,0,6,5,6,33
1513487323575799,0,18,23,-2,-5,-2,0,-13
1513487323584816,-1,4,6,-2,3,2,2,18
1513487323584816,-21,-8,-9,3,-5,-5,-9,-20
1513487323599829,-60,-7,14,3,-6,-1,-1,-9
1513487323599829,22,-12,-8,3,-1,0,-2,-2
1513487323600828,22,9,-5,-22,1,-1,2,6
1513487323600828,-31,-2,25,1,2,-4,0,27
1513487323621842,15,6,-8,4,3,-1,-5,59
1513487323621842,13,-10,-7,1,1,4,8,52
1513487323623843,-7,-20,1,-6,-2,-3,-4,-86
1513487323623843,2,27,15,3,4,2,0,21
1513487323635853,1,9,11,0,-3,-3,4,15
1513487323635853,8,-10,1,-5,-1,0,1,31
1513487323644850,-13,-13,-51,-16,-7,-4,-7,-9
1513487323644850,-6,-25,-9,2,3,1,-2,-8
1513487323659877,12,13,-9,3,-5,-4,5,-21
1513487323659877,-11,-10,12,-5,2,4,4,1
1513487323661874,-4,31,32,3,2,0,0,-57
1513487323661874,0,10,-47,-3,-5,3,-3,6
1513487323682880,-9,-32,-15,-8,-1,0,3,6
1513487323682880,-7,5,-11,-8,-8,-6,-5,-6
1513487323683890,14,-1,27,14,3,-1,-5,4
1513487323683890,-11,4,-19,-20,-2,-1,1,14
1513487323695903,16,6,25,5,3,4,-2,2
1513487323695903,2,14,-10,-10,-2,-2,-4,-3
1513487323704905,0,-32,-13,7,3,0,1,67
1513487323704905,-5,-9,16,15,-4,-5,0,-34
1513487323718919,8,7,-11,-12,-3,4,6,-22
1513487323718919,-6,2,10,0,-3,-4,-4,-38
1513487323725920,-27,-16,-30,7,0,-1,-1,33
1513487323725920,-2,3,-49,-3,-4,-1,2,-1
1513487323741931,-18,-29,12,-4,4,-2,1,0
1513487323741931,28,3,11,5,0,-1,5,34
1513487323743919,-36,7,-8,7,2,2,-6,-19
1513487323743919,-7,-1,19,-7,-3,-3,0,8
1513487323755941,30,35,-4,-2,-1,0,-2,55
1513487323755941,-38,-15,4,-2,-2,0,-1,-49
1513487323764956,7,-14,-13,-5,-3,-5,-4,-12
1513487323764956,0,24,1,0,3,1,-1,-34
1513487323778943,-11,-10,2,-10,-8,-7,-7,48
1513487323778943,7,9,-26,6,8,0,-3,37
1513487323780946,-2,-7,-13,-2,-4,-1,-1,-28
1513487323780946,19,11,26,3,-4,-3,-2,16
1513487323801980,25,14,6,4,0,-1,2,-22
1513487323801980,-6,-23,-11,0,11,2,0,9
1513487323803970,4,13,24,-4,-5,-4,-5,-48
1513487323803970,13,4,-10,-4,0,-3,-2,56
1513487323824999,-23,-34,-18,12,-5,-2,0,-50
1513487323824999,2,22,-17,-13,-5,0,2,-12
1513487323825977,31,10,28,2,-2,3,-2,46
1513487323825977,-10,-5,-5,-3,2,1,7,-11
1513487323838985,-7,-6,10,-3,-2,-1,1,21
1513487323838985,-12,4,-4,4,-3,1,-8,-63
1513487323840989,-9,-1,-44,3,-4,-3,0,-25
1513487323840989,-26,-9,37,-14,0,2,9,24
1513487323862020,27,5,-13,0,0,-1,-2,12
1513487323862020,13,-19,-2,2,-2,-2,-1,-15
1513487323864022,1,22,8,-6,-3,-1,2,25
1513487323864022,-70,-28,12,16,3,-2,-4,-20
1513487323885033,-29,-20,-31,4,-4,3,8,9
1513487323885033,-3,-3,-2,-22,-7,-4,-6,2
1513487323886019,17,11,27,-5,-2,-2,-6,-14
1513487323886019,-9,-21,-40,2,0,-5,-4,20
1513487323898046,0,1,12,6,2,1,-1,-18
1513487323898046,4,22,25,8,4,1,0,9
1513487323907041,2,-15,-16,-3,-2,-4,2,-24
1513487323907041,2,11,18,7,-1,-1,-6,-4
1513487323922046,1,-7,-22,-11,-2,-1,0,-3
1513487323922046,12,-3,-13,-4,-8,-1,0,0
1513487323924045,-12,-9,14,0,3,-1,-8,-11
1513487323924045,24,28,22,-1,2,2,-1,10
1513487323944060,-1,-1,1,2,-3,-2,1,-15
1513487323944060,-25,-49,-1,-2,-4,-7,-4,-16
1513487323946073,2,-11,-24,-6,0,-2,5,36
1513487323946073,15,7,-3,1,-4,0,-4,-14
1513487323959082,-29,-5,37,0,3,-2,8,-8
1513487323959082,5,-1,-22,-3,-4,-1,-6,14
1513487323961071,-4,5,22,5,3,0,2,7
1513487323961071,10,-18,-32,-3,-6,-3,0,-23
1513487323982096,17,12,-4,-12,-4,-3,-5,11
1513487323982096,-10,6,6,14,3,1,3,3
1513487323984098,10,3,1,-5,-2,-2,-1,25
1513487323984098,7,2,0,-3,3,1,-4,-62
1513487324004114,-5,2,3,1,-3,-3,-10,-9
1513487324004114,-3,4,-8,12,-2,2,14,9
1513487324012108,0,-12,-13,-19,-3,-7,-9,0
1513487324012108,2,-3,-23,-11,-4,-2,2,22
1513487324018123,6,8,-1,-3,2,2,1,-5
1513487324018123,-6,6,21,6,1,-2,-7,-16
1513487324027128,3,10,-13,8,5,2,3,11
1513487324027128,-13,-19,27,1,-3,-2,-2,-3
1513487324042142,-3,-4,-4,2,1,0,1,-4
1513487324042142,19,6,-31,-6,-1,2,-2,2
1513487324044130,-6,-1,10,2,0,2,-4,6
1513487324044130,2,3,1,-2,0,0,0,-9
1513487324064154,-6,0,-5,5,-2,-1,2,22
1513487324064154,-8,10,12,-5,0,-1,-4,-8
1513487324066156,-8,-16,-6,2,-3,-3,-9,-3
1513487324066156,17,-2,-6,-4,-1,-2,-1,-3
1513487324079155,-46,-1,-5,1,-1,-3,-15,-11
1513487324079155,14,7,3,-5,0,0,12,13
1513487324085159,6,-7,-5,3,0,-1,-3,-10
1513487324085159,-13,-3,4,2,-1,-2,-2,-1
1513487324102224,13,3,0,-3,-3,-3,1,2
1513487324102224,-14,-1,5,0,1,1,-2,7
1513487324104173,-9,-2,-7,-4,-4,-3,3,-36
1513487324104173,-1,2,2,7,-2,-3,-1,4
1513487324124204,9,2,6,-9,1,1,1,-1
1513487324124204,9,3,-22,0,-6,-3,-7,-1
1513487324126199,-6,-5,6,0,1,-1,6,28
1513487324126199,-6,5,3,-1,-1,-1,0,-2
1513487324139198,27,0,-3,-1,-2,-1,-3,-9
1513487324139198,-11,1,7,-2,0,0,0,4
1513487324145214,0,-1,0,-1,-1,-1,2,-6
1513487324145214,-1,-2,-3,-3,-1,-3,-3,-1
1513487324162226,-2,2,1,3,-3,1,-2,2
1513487324162226,2,-5,4,-1,1,0,1,-6
1513487324163227,-2,-3,-3,-1,-1,1,1,-1
1513487324163227,-1,-1,4,-1,-1,1,-5,0
1513487324184242,1,0,-5,0,-1,-1,1,-7
1513487324184242,-3,-2,-1,-1,-2,-2,-3,-3
1513487324186249,-2,0,0,0,1,-2,-2,-6
1513487324186249,-2,-2,-3,-2,-2,0,-3,3
1513487324200242,1,0,-1,0,-1,0,0,-5
1513487324200242,-2,-2,1,-2,0,-2,1,-5
1513487324214260,-1,-1,-2,1,0,2,-2,4
1513487324214260,2,2,0,1,1,-3,0,-1
1513487324221267,-6,-7,-1,-2,-3,-1,0,-3
1513487324221267,-1,-3,1,-3,-2,-3,-2,0
1513487324230262,1,-1,-1,-1,0,-1,2,-2
1513487324230262,-5,-3,-2,-1,-1,-1,0,-1
1513487324244281,-1,4,1,1,-3,0,0,-2
1513487324244281,-2,-3,-2,-1,2,-1,-2,-1
1513487324246283,3,-3,-2,-2,-1,-1,0,0
1513487324246283,-1,-2,0,0,-1,-2,-2,-1
1513487324259282,0,0,-3,0,1,-1,-2,2
1513487324259282,0,-1,1,-1,-2,-1,-2,-2
1513487324265296,-2,0,0,0,-3,-2,-1,-1
1513487324265296,-2,1,-2,-5,-1,-1,-2,4
1513487324288317,-2,-1,-1,-2,0,-1,0,-14
1513487324288317,2,-1,-2,-1,0,-4,-3,7
1513487324297322,-5,-1,-2,-2,1,-1,-1,-3
1513487324297322,1,0,-2,-1,-1,-4,1,1
1513487324304336,2,1,-1,-1,-1,0,0,-1
1513487324304336,-3,-3,2,0,-2,-1,-3,-3
1513487324306315,-3,-1,-1,2,0,0,-1,-1
1513487324306315,1,-2,7,2,0,0,0,-4
1513487324327335,3,-2,-12,-9,-2,-4,-2,1
1513487324327335,-3,0,8,1,-2,-2,-9,-5
1513487324329333,-2,-1,-4,4,1,1,12,0
1513487324329333,-3,-8,-22,-18,-7,-5,-4,-3
1513487324342341,-4,0,0,4,0,-1,-2,2
1513487324342341,-1,3,28,7,3,2,0,0
1513487324343343,1,-3,-25,-6,-4,-2,-5,-3
1513487324343343,-3,0,25,7,-2,-1,2,-1
1513487324364356,1,1,-10,1,-1,0,0,1
1513487324364356,-1,-4,-7,-8,-4,-1,3,0
1513487324366358,-2,2,11,6,2,0,-5,0
1513487324366358,1,-2,5,-1,-1,1,-1,-2
1513487324378366,-1,0,14,5,0,1,0,0
1513487324378366,2,2,2,-1,-1,-5,-16,-3
1513487324387373,-3,-5,4,-7,-2,-1,7,-2
1513487324387373,-1,-4,-11,-1,1,-1,-2,1
1513487324402383,-1,2,12,2,-3,-2,5,-1
1513487324402383,-4,-2,-12,-1,-1,2,1,-3
1513487324403384,0,-1,5,0,-1,-2,0,-1
1513487324403384,-4,-2,-1,-5,-5,-3,-11,-3
1513487324424400,-1,0,1,2,0,-2,-2,1
1513487324424400,-1,0,2,0,2,1,5,-2
1513487324426401,-3,-6,-8,-14,-2,-2,-5,-3
1513487324426401,2,8,31,20,7,1,3,-1
1513487324438411,-2,-9,-30,-17,-6,-1,-1,0
1513487324438411,0,-5,-30,-16,-4,-1,2,0
1513487324447415,1,11,43,24,3,-1,-1,2
1513487324447415,-11,-24,-81,-53,-20,-7,-5,-6
1513487324461442,7,18,112,32,10,3,1,1
1513487324461442,-8,-25,-105,-34,-11,-3,4,-6
1513487324463427,-1,0,8,-4,3,0,-5,1
1513487324463427,4,6,14,13,7,2,2,-1
1513487324483458,0,3,4,-1,-1,-3,0,-1
1513487324483458,1,5,35,17,3,2,-2,1
1513487324492449,1,-1,-16,-3,-2,-3,-11,-3
1513487324492449,-1,1,4,5,0,1,7,1
1513487324498467,-1,-6,-28,-6,-2,1,1,-2
1513487324498467,0,2,12,1,-1,-2,-4,-2
1513487324513463,-4,-6,-12,-7,-4,-2,-1,-2
1513487324513463,5,9,32,8,7,1,1,4
1513487324522468,1,4,-4,6,-1,1,-3,2
1513487324522468,-6,-14,-45,-6,-5,-4,2,-4
1513487324523469,-2,-3,14,-9,-7,-1,1,-2
1513487324523469,0,-2,-5,-4,1,0,-1,0
1513487324544497,0,6,-4,-1,2,3,3,0
1513487324544497,2,11,36,19,5,1,-2,2
1513487324546491,-1,-4,-8,-1,-2,-2,1,-3
1513487324546491,3,1,1,6,2,0,-2,-1
1513487324566499,-15,-7,-11,-3,-4,-4,-3,-7
1513487324566499,6,1,13,-2,-1,-2,1,1
1513487324568501,-6,-3,-8,-4,-2,-3,-4,-3
1513487324568501,-3,-2,3,0,-4,-2,-1,-2
1513487324581510,5,0,-5,-5,-1,0,-1,0
1513487324581510,-1,-2,12,0,-6,-1,1,-1
1513487324583511,-4,-6,-24,-13,-2,-2,-2,-2
1513487324583511,3,0,4,4,0,-2,-1,1
1513487324604527,1,-2,13,3,-1,-1,2,0
1513487324604527,-2,4,-8,3,3,1,0,1
1513487324606528,2,-2,-10,-1,-3,-1,-2,1
1513487324606528,-5,-3,-9,-1,-2,0,-3,-2
1513487324618537,1,5,-5,2,3,0,-1,1
1513487324618537,-2,0,20,0,0,0,3,-2
1513487324627556,-5,-13,-31,-21,-8,-6,-6,-5
1513487324627556,-3,-3,-6,-2,0,-2,2,-1
1513487324640562,1,-3,1,-4,-1,-1,-1,1
1513487324640562,2,6,12,8,3,0,-1,-1
1513487324649568,1,1,-2,2,2,1,0,-1
1513487324649568,0,0,14,1,-2,1,-1,-2
1513487324664579,-1,-4,-25,-7,-2,-2,-1,-1
1513487324664579,-4,-2,-6,-5,-4,0,-1,-3
1513487324666591,0,3,10,5,3,1,-2,1
1513487324666591,-1,-1,-6,-1,-1,-1,-1,0
1513487324677594,-1,-3,-5,-5,-4,-4,0,0
1513487324677594,0,-1,2,-2,-2,-1,-1,0
1513487324687603,0,2,6,5,0,0,0,-1
1513487324687603,1,1,5,6,-1,-1,1,-2
1513487324701595,-2,-7,-32,-13,-5,-3,-1,-3
1513487324701595,-2,0,4,-8,-3,-2,-2,-2
1513487324703597,0,0,5,5,1,-1,-1,-1
1513487324703597,-2,-3,-5,-2,-3,-3,0,-3
1513487324724611,1,-2,2,-1,-3,0,-1,-1
1513487324724611,0,3,17,3,0,0,1,-1
1513487324725612,2,2,-28,2,0,0,-2,1
1513487324725612,-3,-5,-23,-8,-3,-2,-2,-1
1513487324738622,-2,-1,4,-1,-3,-1,0,-1
1513487324738622,-1,-3,-3,0,-1,1,-1,-1
1513487324746628,-1,1,19,5,2,-1,-1,0
1513487324746628,0,1,4,0,-3,0,-2,-2
1513487324776658,-2,-1,-11,-5,-2,-1,-1,-1
1513487324776658,-2,-1,3,1,0,-1,1,-1
1513487324778659,0,-2,5,-1,-1,-2,0,-2
1513487324778659,-1,-3,-2,-1,-2,-1,-2,-1
1513487324784663,0,0,3,-1,-2,-1,-2,1
1513487324784663,0,0,-4,-1,-2,-1,-1,0
1513487324785664,0,-2,3,0,1,-2,0,0
1513487324785664,-3,-1,-4,1,-1,-1,0,0
1513487324806680,-1,0,0,0,-2,-1,-1,-1
1513487324806680,-1,-1,-1,-1,0,-1,-2,-1
1513487324808678,-2,-1,-1,0,-1,-1,0,-1
1513487324808678,0,-1,3,-2,0,0,-1,0
1513487324821691,1,-1,-2,0,-2,-1,-1,0
1513487324821691,1,-2,-1,-1,-1,-2,1,-2
1513487324823696,-2,-1,6,-1,-1,0,-1,-2
1513487324823696,0,0,-2,-1,-1,-1,1,-2
1513487324844714,-1,-1,0,-3,-1,-1,-2,0
1513487324844714,-2,0,-3,-2,-1,-1,1,0
1513487324845715,1,-1,1,-2,-1,-1,-1,-2
1513487324845715,-1,0,1,-2,1,-1,0,-2
1513487324866748,0,-2,-2,-2,0,-2,0,-2
1513487324866748,-2,0,0,-1,0,-1,-2,1
1513487324868723,-1,-2,-1,-1,-1,-1,1,-1
1513487324868723,0,0,-1,0,-1,0,-1,-1
1513487324881722,-1,0,1,-3,-1,-1,-1,-3
1513487324881722,-2,-1,0,-1,-1,-1,-3,-3
1513487324883723,-1,-2,1,0,-1,0,0,-2
1513487324883723,1,1,-1,-1,-3,-1,-1,2
1513487324911753,-4,-2,0,-1,1,1,-1,-1
1513487324911753,0,-2,-2,-1,-1,-1,-2,-1
1513487324913755,0,0,-1,-2,-1,-2,-2,-1
1513487324913755,0,0,-1,0,-3,-2,-2,-1
1513487324926777,0,0,-2,-1,-2,-1,1,-1
1513487324926777,0,-1,-2,0,0,-2,-2,-1
1513487324929766,-3,-2,-1,-1,1,-1,0,-2
1513487324929766,0,-1,-1,-1,0,-1,0,1
1513487324940776,0,1,-1,-1,0,0,1,-1
1513487324940776,-2,-2,-2,-1,-2,-2,-2,0
1513487324947774,-2,-1,0,0,-1,1,-2,-2
1513487324947774,-1,-2,-2,-2,-1,-2,-1,-2
1513487324964849,-1,-1,0,1,-2,-1,1,0
1513487324964849,-1,-2,-1,-1,-1,0,-3,-3
1513487324965837,0,-1,-1,-1,0,-2,-3,-1
1513487324965837,-1,-1,-1,-2,-1,0,0,-1
1513487324986855,-1,-1,-1,-2,-2,-1,-2,-2
1513487324986855,-1,-3,-1,-2,0,-2,-2,-3
1513487324988861,-2,-3,-3,-1,-1,-1,-1,0
1513487324988861,-1,0,-2,-3,-2,-1,0,-2
1513487325000864,-2,0,0,-2,-1,-2,-1,-1
1513487325000864,-1,-3,-2,-1,-2,0,-2,-1
1513487325007886,0,-1,0,-1,-2,-1,-1,-2
1513487325007886,-1,-1,-1,0,-1,-1,-2,0
1513487325024878,-1,-1,-2,-1,-2,-3,-1,1
1513487325024878,-4,0,-1,0,-1,-1,1,-1
1513487325025879,-1,-4,0,-1,-1,-3,-2,0
1513487325025879,1,-2,0,-1,0,0,-2,-1
1513487325047897,-1,-2,-2,1,-1,-2,0,1
1513487325047897,0,0,-2,-1,0,-2,-2,-2
1513487325048898,-1,-1,-2,-1,-3,-2,0,-1
1513487325048898,0,1,0,0,-1,-1,1,1
1513487325060906,-1,0,-1,0,-1,0,-1,-1
1513487325060906,-1,-1,-1,-1,-1,-1,-2,0
1513487325067910,-1,-1,-1,-1,-3,1,-2,-1
1513487325067910,-2,-2,-2,-2,-1,-3,0,2
1513487325084934,1,-1,-1,-2,0,0,-1,-1
1513487325084934,-2,-1,0,-1,-1,0,0,-1
1513487325085926,-2,1,-1,0,0,-3,-2,-3
1513487325085926,1,0,-1,0,-1,-1,-1,-2
1513487325106940,0,-1,0,-1,-1,0,0,-2
1513487325106940,0,-2,-1,-1,-2,-2,-1,0
1513487325108942,-1,-1,-2,-3,-2,0,-2,0
1513487325108942,-2,-1,-2,0,-2,-2,0,-1
1513487325120962,-1,-2,-1,-1,-1,-1,-3,1
1513487325120962,-2,-1,-2,-1,-2,-2,-1,0
1513487325127953,-2,-2,1,0,-1,-1,-2,-1
1513487325127953,0,-1,-1,-1,0,0,0,-1
1513487325144963,0,0,0,-1,-2,0,0,-1
1513487325144963,-1,-1,0,-1,-2,-1,-1,-1
1513487325145963,-1,-1,0,-1,0,-2,0,-1
1513487325145963,-2,-1,-1,0,0,-1,-2,0
1513487325166982,-1,-3,-2,-2,0,-1,0,-2
1513487325166982,-1,-1,-2,-2,0,-1,-1,-1
1513487325168997,0,2,-2,0,-1,-2,-1,-1
1513487325168997,-2,-1,-1,0,0,2,-1,0
1513487325180989,-2,2,-1,0,-1,-1,0,-2
1513487325180989,-1,-1,0,-1,-1,0,-1,-1
1513487325187997,-1,-2,-1,-2,-1,0,0,-1
1513487325187997,-1,0,1,-1,-1,-1,-1,-2
1513487325204005,0,0,-1,-1,-2,-1,0,1
1513487325204005,-1,-3,-1,-1,0,-2,-2,-2
1513487325206007,-1,0,-1,-2,-2,-2,-2,0
1513487325206007,0,0,-1,-1,-2,-1,-1,0
1513487325227021,-1,-1,1,-2,-3,-1,-1,0
1513487325227021,-2,0,-2,0,-1,-1,0,-1
1513487325229023,0,-3,-1,-1,-1,-2,-1,-2
1513487325229023,-1,-2,-3,-2,-2,-1,1,-2
1513487325241031,-1,-1,-1,-1,-2,1,-1,-2
1513487325241031,1,-4,-1,-1,0,-1,0,-2
1513487325248051,0,-1,0,-2,-2,0,-2,-2
1513487325248051,-3,0,-1,-1,-2,-3,-1,-1
1513487325264048,-1,-2,0,0,0,0,-2,0
1513487325264048,-2,-3,-3,-1,-2,0,-1,-2
1513487325266049,-3,-1,0,0,0,-1,-3,0
1513487325266049,2,0,0,-2,-1,-2,1,0
1513487325287067,0,-1,-1,-1,0,-1,-3,0
1513487325287067,-2,-1,0,0,0,0,-2,0
1513487325289070,0,-3,-2,-2,0,-1,-1,-1
1513487325289070,0,-1,-2,-1,-1,1,0,-1
1513487325301077,-1,0,-2,-2,-1,-2,0,-1
1513487325301077,0,0,-1,0,0,0,-2,-2
1513487325310084,1,-1,-3,-1,-2,-1,1,0
1513487325310084,0,0,-1,-1,-1,-2,-1,0
1513487325324091,0,-1,-2,-2,0,-1,1,-2
1513487325324091,0,-3,-3,-3,-1,-3,0,-2
1513487325326091,-1,0,1,0,-3,-1,-2,-2
1513487325326091,-1,-2,1,-2,-1,-1,-1,-1
1513487325347106,-1,0,-1,0,-1,0,1,-1
1513487325347106,-2,-1,-3,-1,-2,-1,-2,1
1513487325348122,0,-1,-1,0,0,-1,-1,0
1513487325348122,1,0,1,-2,-1,-1,-2,-1
1513487325361117,-1,-1,-1,-1,-1,-2,1,-1
1513487325361117,-2,-2,-2,-1,-1,0,-1,0
1513487325370122,-3,-1,-2,-1,-1,-1,1,-2
1513487325370122,0,0,-1,0,-2,-1,0,-2
1513487325385149,-2,0,0,0,0,0,-3,0
1513487325385149,-1,0,0,-1,1,-2,-1,-2
1513487325390137,-1,-1,-3,-1,-2,-2,-2,-1
1513487325390137,-3,-1,-1,-1,-4,-1,0,0
1513487325407148,-1,0,-3,-1,-1,-2,-2,-1
1513487325407148,-1,-2,-2,-3,-2,0,-2,-1
1513487325408153,-2,-4,-2,-1,0,-2,-1,-2
1513487325408153,-2,-3,-1,-1,0,-1,1,2
1513487325420161,-3,-1,0,-2,-1,-1,2,0
1513487325420161,-1,0,0,1,-1,-3,0,0
1513487325429165,-2,-1,-1,-2,-1,0,-1,-2
1513487325429165,-1,0,0,1,0,-1,-1,-1
1513487325444175,-1,-3,-1,0,-1,0,-1,-2
1513487325444175,-1,-3,-1,-2,-1,-3,-1,0
1513487325446176,-1,-2,-2,-1,-2,-2,-2,-1
1513487325446176,-1,-1,-2,-2,0,-1,-2,-1
1513487325467249,2,-1,-1,-1,-2,1,0,-2
1513487325467249,1,1,0,-2,-2,-2,-1,-2
1513487325468246,-3,0,1,0,-1,-1,-1,0
1513487325468246,-2,0,0,0,0,-1,0,-2
1513487325480201,1,-1,0,-1,-1,-2,-3,1
1513487325480201,0,-2,-2,-1,-3,-3,-1,-1
1513487325495211,-1,0,-1,0,-2,-1,-2,-1
1513487325495211,-1,1,0,0,-1,0,0,-1
1513487325504217,-1,0,-1,0,-1,-1,1,0
1513487325504217,0,-3,-1,-1,-2,-1,-1,-2
1513487325506233,1,-1,0,-2,1,-2,-1,0
1513487325506233,1,2,-2,1,-1,-1,0,-1
1513487325527236,-3,1,-2,-1,-1,0,-2,-2
1513487325527236,-6,-7,-1,-2,0,-1,-1,-2
1513487325529236,-1,-1,-2,-2,-1,-3,-1,-2
1513487325529236,-1,-1,-2,-2,-1,0,0,-1
1513487325540266,1,1,0,0,-1,-1,0,-1
1513487325540266,-2,0,0,0,-1,-1,-3,-1
1513487325549260,-1,-2,-1,0,-1,-1,-1,-1
1513487325549260,0,-1,-1,0,-2,-1,-1,0
1513487325564260,0,-1,0,-1,-2,-2,-1,0
1513487325564260,-3,0,-2,1,0,0,-2,-1
1513487325566262,1,0,-2,-1,0,-1,-2,-1
1513487325566262,-1,3,-2,-2,0,1,-2,0
1513487325587315,-2,-3,-3,-1,-1,0,1,-2
1513487325587315,-3,-1,0,-1,0,-1,-1,-3
1513487325589278,-1,1,-2,-1,-2,0,-2,-1
1513487325589278,-1,0,-1,0,1,-1,1,-1
1513487325601323,-2,-1,-1,-2,-1,0,-1,0
1513487325601323,1,-3,-1,-2,1,-2,-2,-1
1513487325609291,-3,-2,-1,-1,-3,1,0,-1
1513487325609291,-1,-2,0,-2,-4,0,-1,0
1513487325624305,-1,1,0,-1,-2,-1,-1,-1
1513487325624305,-3,-1,-2,1,-1,0,-1,0
1513487325626307,-2,-2,-1,-2,-1,-4,-2,-1
1513487325626307,-1,-1,-2,-1,-1,-1,-1,-2
1513487325647322,-2,0,0,-1,0,-1,-2,0
1513487325647322,0,-1,-1,-2,-4,-2,-2,-2
1513487325648323,-2,-2,-2,-2,0,0,0,-1
1513487325648323,2,-1,-1,-1,-1,-3,0,-2
1513487325660332,0,-2,-1,0,-2,-1,0,-1
1513487325660332,0,-1,0,-4,-2,0,0,-1
1513487325675352,-1,-1,0,0,0,-1,-1,-1
1513487325675352,-1,-2,0,-1,1,-1,1,0
1513487325684346,-2,1,-3,0,-3,-1,-1,-2
1513487325684346,1,-3,-1,-2,-1,-2,-1,-1
1513487325686348,0,-1,-1,-1,-2,-1,-3,0
1513487325686348,0,0,0,-1,-1,-1,-2,-1
1513487325707375,-2,-1,0,-1,0,0,-2,2
1513487325707375,-2,-1,-1,0,0,-3,-1,0
1513487325708361,-1,-2,-2,0,-1,-2,-1,-2
1513487325708361,-2,-3,-2,-1,-3,0,-1,0
1513487325729376,-1,-1,-2,-1,-1,-2,2,-1
1513487325729376,-1,-1,-2,-3,-1,0,-3,-2
1513487325732379,-2,-1,-1,0,0,-2,0,-2
1513487325732379,-1,-2,-1,-1,0,-2,0,0
1513487325744389,-1,-2,-1,-2,-1,-2,0,-1
1513487325744389,-1,-1,-1,-1,-2,-1,-1,-1
1513487325746390,0,0,-2,-1,-1,-2,-2,-2
1513487325746390,-1,0,-1,-1,1,0,0,-1
1513487325767414,0,-1,-2,0,-1,-2,-2,-1
1513487325767414,-2,-2,-3,-1,-1,-1,-2,-2
1513487325768404,-3,-2,-2,-1,-4,0,-1,1
1513487325768404,0,-2,-1,-1,-2,0,1,-1
1513487325789431,0,-1,1,-2,-2,0,-1,-2
1513487325789431,0,-2,-1,-1,-1,-3,-2,-1
1513487325791425,-1,-2,0,-2,0,0,-1,-3
1513487325791425,-2,1,-2,-3,-2,-1,-2,0
1513487325804430,0,-2,0,-1,-1,0,0,-1
1513487325804430,-4,-1,-1,-1,0,-2,1,-2
1513487325806430,0,0,-1,-1,0,-2,0,0
1513487325806430,1,0,1,0,-2,-2,0,-1
1513487325827452,0,0,0,-2,-1,-3,-1,-1
1513487325827452,-1,0,-1,-1,-1,-1,-2,-1
1513487325828452,0,-3,-1,0,0,-1,-1,0
1513487325828452,-2,2,0,-1,0,-1,-1,-1
1513487325849468,1,-1,-2,-1,-2,-1,-2,-1
1513487325849468,-1,-2,-1,0,-1,-1,0,-1
1513487325851469,-2,0,-1,-1,-1,-3,-1,-2
1513487325851469,1,-2,-1,-2,-2,1,-1,1
1513487325864474,-4,-2,-1,-2,-1,0,0,-1
1513487325864474,-2,-1,-2,-1,-1,-2,-2,0
1513487325866489,-2,0,0,1,-1,-1,1,0
1513487325866489,-1,1,0,-1,-1,-2,-1,-1
1513487325886496,0,-2,-1,0,-1,1,-1,-1
1513487325886496,-1,-4,-4,-2,-1,-1,-2,1
1513487325889500,1,0,-2,1,-1,-4,-3,0
1513487325889500,-3,0,-1,0,-2,0,0,-3
1513487325909514,-1,3,-1,0,-2,0,1,-1
1513487325909514,0,-1,-2,-2,-1,0,-2,-3
1513487325910506,-2,-1,-1,-1,-1,-2,0,0
1513487325910506,-1,0,-1,-2,-2,-1,0,1
1513487325923518,-2,-2,-3,-1,0,-3,-1,1
1513487325923518,-2,-2,-1,-1,0,-2,-1,-1
1513487325930522,0,0,-2,0,-2,0,-1,-1
1513487325930522,0,-2,-1,-2,-2,1,-1,-2
1513487325954537,-1,-1,0,-1,1,-1,-1,0
1513487325954537,-2,-1,-3,0,-1,-2,-1,1
1513487325955536,-1,-3,-3,-1,-2,1,-2,0
1513487325955536,-1,-2,0,1,-2,-3,1,-1
1513487325969598,-1,0,-2,-2,-1,-2,-2,-2
1513487325969598,0,-1,0,0,-1,0,-1,-2
1513487325970577,-2,-2,-1,-1,0,-1,-2,-2
1513487325970577,1,1,-1,-2,-1,-1,0,1
1513487325983557,1,-2,-2,-1,-1,-2,-2,-2
1513487325983557,-2,-2,-1,-2,0,-1,0,-3
1513487325990562,-1,-1,-1,-2,-2,-1,1,-1
1513487325990562,-2,0,-1,0,-1,-2,-1,-1
1513487326006584,-2,-1,1,-1,-1,0,0,-1
1513487326006584,-1,0,0,-2,-1,-2,-1,-3
1513487326008573,-2,-1,-1,0,-2,-1,-1,-2
1513487326008573,-2,-1,0,-1,-1,-2,-1,-2
1513487326029590,0,-1,-1,0,-1,0,-2,1
1513487326029590,-2,-3,0,0,-1,-1,-3,-3
1513487326031590,-2,-2,-1,-1,0,-1,-1,0
1513487326031590,-1,1,0,0,0,0,0,-1
1513487326043617,-1,-2,-1,0,-2,-1,-1,0
1513487326043617,-1,-2,-2,-1,0,-2,-3,1
1513487326050605,1,-2,-2,-1,0,-3,-1,0
1513487326050605,1,-1,-1,-3,-2,-1,-1,0
1513487326067616,-1,0,0,-1,-2,0,0,-3
1513487326067616,-1,-1,-2,-3,-1,-1,-3,0
1513487326072633,-2,-2,-2,-3,-1,-1,0,-1
1513487326072633,0,1,0,-2,0,0,-2,-1
1513487326089644,0,-2,-1,0,-2,-2,1,-1
1513487326089644,-1,-1,-1,-1,-1,0,-2,-1
1513487326091633,-2,-2,-1,-1,-1,-2,-2,-2
1513487326091633,-1,0,1,0,-1,-1,1,-1
1513487326111665,-2,-2,-1,-2,1,-2,1,-2
1513487326111665,-1,0,-2,-2,-1,-2,-2,-2
1513487326113648,-1,-1,-1,0,-1,-1,-3,0
1513487326113648,-1,-1,-2,0,0,-1,-1,1
1513487326126676,-1,-1,-1,0,-2,-1,-1,0
1513487326126676,0,-3,-2,-2,-2,-1,-1,-1
1513487326128659,-2,1,0,-2,1,1,-1,0
1513487326128659,0,-2,-1,0,-2,-3,1,0
1513487326156682,0,0,0,-4,0,0,-3,-4
1513487326156682,-3,-3,-1,0,0,-1,-1,-1
1513487326158682,-1,-1,-3,-2,-1,0,-1,-2
1513487326158682,-2,0,-2,0,-1,1,1,0
1513487326163702,-3,-1,-2,-1,0,-1,-2,0
1513487326163702,-2,-3,-1,-2,0,-2,0,-2
1513487326170707,0,-1,1,-1,-3,-2,-1,0
1513487326170707,-1,-1,0,-2,-3,-1,0,-1
1513487326186701,-2,-2,-2,-2,-1,0,0,-1
1513487326186701,-1,-2,0,-1,0,-3,-3,0
1513487326188703,-1,-2,0,-2,-2,-3,0,0
1513487326188703,0,-1,-1,0,0,-1,-2,0
1513487326216746,-1,-1,0,0,-1,-2,-2,0
1513487326216746,-2,-2,-2,-2,-2,-1,0,-1
1513487326218738,0,-2,-3,-1,-1,0,-2,0
1513487326218738,0,2,-1,0,-1,1,1,-1
1513487326222725,-1,0,-2,1,0,-2,-2,-1
1513487326222725,0,-1,-1,0,1,-4,-1,-2
1513487326231732,0,-2,0,-1,-1,0,-1,-2
1513487326231732,-1,-2,0,-1,-2,-1,-2,-1
1513487326246767,-2,-2,0,-3,-2,-2,-3,-1
1513487326246767,0,-1,-1,1,-1,0,-2,1
1513487326248770,-1,0,-3,-1,-1,-1,0,0
1513487326248770,0,0,-1,-1,-1,-2,0,0
1513487326269813,-2,-1,0,-1,-2,0,0,0
1513487326269813,-3,-1,-2,-1,-3,-1,-2,-1
1513487326270773,-2,-2,-1,-1,-1,0,1,-1
1513487326270773,-2,0,-2,-1,-1,0,-3,1
1513487326282769,0,-1,-2,0,-1,-1,-1,0
1513487326282769,2,0,-2,-2,-2,-1,-3,-3
1513487326291777,0,0,0,0,0,0,-1,-1
1513487326291777,-2,-1,1,-2,-1,1,1,-2
1513487326306785,0,-3,-1,-1,-1,-2,-2,0
1513487326306785,-1,-2,-1,0,-1,-1,-1,0
1513487326308803,-1,1,-1,0,-1,-1,-2,-2
1513487326308803,-1,-2,-1,-1,-3,-1,-1,-2
1513487326329830,-2,-2,-1,-2,-1,0,0,0
1513487326329830,-1,-2,-1,-1,-1,-1,0,1
1513487326331802,-2,-2,0,-2,-2,1,-1,0
1513487326331802,-1,0,0,0,-1,-1,-1,-1
1513487326342811,-2,1,-2,-2,-3,-3,-3,-2
1513487326342811,-2,-3,-2,-1,-2,-1,-1,-3
1513487326351831,0,-2,-2,-3,0,-1,0,0
1513487326351831,1,-3,-1,-2,0,-1,-2,-1
1513487326366885,-1,0,0,0,-1,1,0,-2
1513487326366885,-1,0,0,-2,-1,-1,-1,-1
1513487326368835,-1,0,-1,0,-1,-2,-1,-1
1513487326368835,0,0,-1,-2,0,-1,-3,-1
1513487326389868,0,-1,-2,-2,-1,-2,-4,0
1513487326389868,-3,0,0,-1,-1,0,-1,-2
1513487326390849,0,-3,-2,-2,-2,0,1,-2
1513487326390849,0,0,-1,-1,-3,-3,1,-1
1513487326402875,1,-2,0,0,-1,0,0,-2
1513487326402875,-1,-1,-1,-1,-2,0,-2,-2
1513487326411859,2,-1,-1,-2,-1,-2,-3,0
1513487326411859,0,1,-1,0,-1,0,-2,-1
1513487326425894,-3,-2,-1,-2,0,-3,0,-1
1513487326425894,-2,-3,-2,-1,-2,-2,-1,-1
1513487326434876,-1,-1,-1,-1,-1,-2,1,0
1513487326434876,-1,-1,-1,-1,-2,-2,-1,-2
1513487326449900,0,-1,-1,-1,-3,0,0,-1
1513487326449900,-4,-4,-1,0,1,-1,-1,-2
1513487326450896,-1,-1,0,-1,-3,-2,0,-2
1513487326450896,0,0,-2,-1,0,0,0,2
1513487326462895,-2,-1,-3,-1,-1,-1,0,-4
1513487326462895,2,-2,0,0,-1,-2,-2,-2
1513487326471902,0,-3,0,0,-2,-1,-1,-1
1513487326471902,-3,0,-1,0,-2,-1,-1,-2
1513487326486967,0,-2,0,1,-2,-1,1,-1
1513487326486967,1,-2,-3,-2,-3,-1,1,-1
1513487326489915,-2,0,-2,-1,-1,0,0,1
1513487326489915,0,-1,-1,-1,0,1,-1,0
1513487326508930,-1,1,-1,-1,-1,-1,-2,-2
1513487326508930,-1,0,0,0,-1,-2,-2,-2
1513487326510936,-1,-2,0,-1,0,-2,-1,-2
1513487326510936,-2,0,-1,0,-1,-1,1,1
1513487326522938,-1,-2,-1,-1,-1,-1,-3,-1
1513487326522938,-1,0,0,-1,-1,-1,-2,-2
1513487326531951,-1,1,0,-1,-1,-1,-2,-3
1513487326531951,-1,0,-1,0,-1,0,0,-1
1513487326546982,0,-1,-2,-1,-1,-2,-1,1
1513487326546982,-1,-2,-2,-2,1,-1,-2,-1
1513487326548960,0,-1,-2,-1,-1,-1,1,-1
1513487326548960,0,-3,-1,-2,-2,-1,0,-3
1513487326569026,0,1,1,-1,-1,-1,0,0
1513487326569026,-1,0,0,0,-1,-3,-4,0
1513487326570990,0,0,-1,-2,-2,0,0,-1
1513487326570990,-1,-1,0,-2,-1,-2,-1,1
1513487326582980,-3,-2,1,-1,0,-1,0,-1
1513487326582980,-2,-2,-2,-3,-1,-2,-1,-2
1513487326592000,-1,0,-1,0,1,-2,-2,-1
1513487326592000,-1,0,-1,-2,-1,-1,-1,0
1513487326606997,-1,-1,-1,-1,-1,0,-1,-2
1513487326606997,-1,-1,-3,-1,-2,0,0,0
1513487326608008,0,1,-2,0,0,-1,0,0
1513487326608008,-1,-1,0,-1,-1,-1,0,-2
1513487326629014,0,-2,-2,-1,-1,-3,-1,-2
1513487326629014,-1,-2,-2,-2,-1,-1,-3,-1
1513487326632015,0,0,-1,-3,-1,1,1,1
1513487326632015,-1,1,-2,0,-2,-3,-1,-2
1513487326643048,-2,-3,-2,1,0,-1,-2,-3
1513487326643048,-1,0,-1,-1,-2,-1,-2,0
1513487326652030,-1,2,0,0,-2,-2,0,-2
1513487326652030,1,-2,1,-1,0,-1,-2,-1
1513487326667039,-1,-5,-1,0,0,-1,-3,-2
1513487326667039,0,-4,-2,-2,-2,-1,0,-1
1513487326668056,-2,0,-1,-1,-2,-1,-1,-2
1513487326668056,-2,1,-1,-3,-1,-1,-1,0
1513487326689067,-1,0,-1,-1,-1,-1,-3,-2
1513487326689067,-2,1,-1,-1,1,-1,-2,-1
1513487326691073,0,-2,-3,0,-2,-2,-1,-1
1513487326691073,-1,0,-3,-1,-1,0,1,-1
1513487326719079,-3,-1,-1,-2,0,-1,-1,-1
1513487326719079,-2,-4,-1,0,0,-2,0,-2
1513487326721077,-1,-3,1,-1,0,1,-1,0
1513487326721077,-2,0,-1,-2,-1,0,-1,-2
1513487326726084,-1,-1,-1,-1,-1,-1,-4,-2
1513487326726084,0,-1,-2,-3,-2,-1,-2,0
1513487326733085,0,1,-1,-1,0,-1,0,0
1513487326733085,0,-1,1,-1,0,-2,0,0
1513487326749120,-3,0,-1,-2,-1,-1,-1,-2
1513487326749120,-1,-1,-3,0,0,-1,1,-2
1513487326751101,-1,-2,-3,0,0,-1,-1,-1
1513487326751101,-1,-2,-2,-2,-2,-2,-3,0
1513487326772118,-1,-2,-1,-2,-2,-2,-1,0
1513487326772118,-1,-1,-1,-1,0,-1,-3,0
1513487326774120,-1,-2,-1,-1,-2,0,-1,-1
1513487326774120,1,0,0,1,-3,1,-1,-2
1513487326787126,0,-2,-1,0,-2,0,-2,0
1513487326787126,-1,-1,-1,1,-1,-1,-1,-3
1513487326788126,-1,-2,-2,-1,-1,-1,0,-2
1513487326788126,-2,-2,0,-2,0,-1,0,-1
1513487326809142,-3,-2,-1,-1,0,-1,-2,0
1513487326809142,-1,0,0,0,-1,0,-1,-1
1513487326811143,0,0,0,-2,-1,-1,-1,0
1513487326811143,-2,0,-1,1,0,0,0,-1
1513487326832158,-1,-1,-1,1,-2,-2,-1,0
1513487326832158,-3,-3,0,-1,-1,-1,0,-2
1513487326833159,-3,0,-2,-1,-1,-1,-1,0
1513487326833159,-1,-1,-2,-2,-2,-1,0,0
1513487326846166,-2,-1,0,-1,0,-1,-1,0
1513487326846166,-2,-3,0,0,0,0,-1,0
1513487326853197,2,1,1,-1,-1,-2,0,-1
1513487326853197,-1,-1,0,1,-1,-1,1,-2
1513487326869186,-2,-2,-1,-2,-1,-1,0,-2
1513487326869186,-1,-2,-1,-2,-2,-2,-1,-2
1513487326871184,-1,-2,-3,-1,-2,0,-1,-2
1513487326871184,-1,1,-1,-1,-2,-2,-2,-1
1513487326892198,-1,-1,-2,-3,0,0,-2,-2
1513487326892198,-2,-1,-1,-2,-1,-1,-1,-2
1513487326893198,-2,0,1,0,-1,-2,-1,1
1513487326893198,-1,-2,-2,0,-2,-2,0,0
1513487326906212,-1,-1,-1,-1,-2,-1,-2,-1
1513487326906212,-1,-2,-2,-1,-1,0,-2,-1
1513487326913214,-2,0,0,-2,-2,-2,1,-2
1513487326913214,0,1,0,-1,-1,-2,0,-1
1513487326930268,0,-1,-1,-2,-2,-1,-2,-1
1513487326930268,1,0,-2,1,0,-1,-1,0
1513487326931243,-1,-2,0,0,0,-1,0,-1
1513487326931243,-1,-3,0,0,-1,1,0,0
1513487326951295,-1,-4,-1,-1,-1,-1,-1,-1
1513487326951295,0,-1,-2,-1,-1,-2,-1,0
1513487326959246,0,1,-1,-2,-1,-2,-3,-1
1513487326959246,0,-1,-1,-3,-1,-1,-2,-2
1513487326966251,-2,0,-1,0,-1,-1,-2,-1
1513487326966251,-2,-2,-2,-2,-1,-2,-2,-2
1513487326973255,-1,-1,-1,-1,0,0,-1,-2
1513487326973255,0,-2,-2,-2,-1,-1,-2,-2
1513487326990273,-2,-1,-1,-1,-1,-1,-1,-1
1513487326990273,-2,-1,-2,-2,-1,-2,-1,0
1513487326992271,-2,-1,-1,-2,0,-1,1,-1
1513487326992271,-2,-1,-2,-2,-1,-2,0,0
1513487327012284,0,-3,-2,-1,-1,-1,0,-2
1513487327012284,-3,-1,-1,-3,-2,-1,0,-1
1513487327013285,0,1,-1,0,-2,-1,1,0
1513487327013285,-1,0,-1,-2,-3,-1,-1,-1
1513487327026323,-1,-2,-1,-1,0,-2,-2,-1
1513487327026323,-1,-1,0,-2,-1,-2,-1,-1
1513487327033310,0,-2,-1,-1,-4,0,-1,0
1513487327033310,-1,0,0,0,-1,0,-2,-1
1513487327049325,0,1,-2,0,-1,0,-1,-3
1513487327049325,-1,-1,0,-3,-1,-1,-2,-1
1513487327051325,0,0,0,-1,1,-1,0,0
1513487327051325,-1,0,-2,0,-1,-1,-1,0
1513487327072331,-1,-2,-2,0,0,-2,-1,-1
1513487327072331,0,-1,-2,-1,-2,0,0,0
1513487327073331,0,-1,-2,-2,-2,-2,-3,-1
1513487327073331,-3,-1,-2,0,0,0,-2,-1
1513487327086337,-1,-2,0,0,1,-2,-1,-1
1513487327086337,1,-2,0,-2,0,0,-1,-1
1513487327093342,0,-1,-1,0,0,0,-1,-1
1513487327093342,-1,-1,0,-2,-1,-1,-1,1
1513487327109366,-3,-2,-2,-2,0,-1,-2,-2
1513487327109366,-1,-2,-1,1,-1,0,-1,-1
1513487327111353,-1,-1,-1,-2,-1,1,1,-2
1513487327111353,-1,0,1,-3,-3,-1,1,-1
1513487327132369,-1,0,-2,0,-1,0,-1,-2
1513487327132369,-2,-1,-1,-1,1,-3,0,-1
1513487327133369,-1,-1,0,1,-3,-3,0,0
1513487327133369,1,0,-2,-1,-1,-1,-1,0
1513487327146378,-1,-2,-1,0,-2,-1,-1,-1
1513487327146378,-3,-1,-1,0,-1,-2,-3,-2
1513487327153398,1,-1,-1,-1,-2,0,-2,1
1513487327153398,-2,0,-1,0,-1,0,-2,-2
1513487327169409,-2,-4,-3,0,0,-1,-3,-2
1513487327169409,-1,-1,-2,0,-3,-1,-1,1
1513487327171395,0,-1,-1,-1,0,-2,2,-1
1513487327171395,0,-1,0,0,-2,0,0,-2
1513487327191411,-1,-1,-1,-1,-1,-3,-2,0
1513487327191411,0,0,-2,-2,-1,-1,-1,-1
1513487327193412,-1,-1,1,-2,-3,0,-3,-1
1513487327193412,-2,-1,0,-2,-1,-1,0,-3
1513487327205434,-2,-2,-1,-1,0,-2,-1,-2
1513487327205434,1,-3,-1,-2,-1,-2,-3,-2
1513487327214427,0,0,-2,0,-1,-1,-1,-2
1513487327214427,1,-1,-1,-2,0,-1,-1,-1
1513487327229535,-1,-2,-1,-2,-1,1,-1,-1
1513487327229535,-1,0,-1,-1,-1,-1,0,-2
1513487327231524,-2,0,0,-1,-1,-1,0,-1
1513487327231524,-1,-2,-2,-1,-1,-1,-1,-2
1513487327251566,0,0,-2,1,-1,-1,-2,-2
1513487327251566,-1,-1,0,-1,0,-2,-2,-1
1513487327253539,-1,0,0,0,-1,-1,0,2
1513487327253539,-1,0,-1,1,0,-2,-1,0
1513487327265570,0,-3,0,-1,-2,-3,0,-1
1513487327265570,-1,-1,-2,-1,-2,1,0,-3
1513487327274554,-1,-3,0,-1,-3,-1,0,-1
1513487327274554,-2,-1,0,-2,-1,1,-2,-1
1513487327289564,-3,-2,0,-4,-2,-2,-3,0
1513487327289564,-2,-1,-1,0,0,-1,0,-1
1513487327291566,0,-1,-1,-1,-1,-1,2,-1
1513487327291566,-1,0,-2,-1,-3,0,-2,-2
1513487327311595,-1,-3,-1,0,0,-2,-2,-1
1513487327311595,-1,-1,-1,-1,-1,-2,-1,-1
1513487327313591,-1,1,-1,0,-1,0,-1,0
1513487327313591,-1,-2,-1,1,-1,-3,-1,-1
1513487327325593,-2,0,-1,0,0,-1,-2,-2
1513487327325593,1,-1,-2,-2,-2,-1,-1,-2
1513487327340601,0,0,-1,-1,-2,-1,-1,0
1513487327340601,-2,0,0,-1,0,-1,0,-2
1513487327349633,-1,0,0,0,-1,-3,-3,0
1513487327349633,0,0,-2,-2,0,-3,-1,-2
1513487327350620,1,-2,-2,-1,-1,0,0,0
1513487327350620,2,-1,1,1,-1,-1,0,1
1513487327372638,-2,-1,0,0,2,-2,-3,2
1513487327372638,-2,0,0,-2,-2,0,-1,0
1513487327373634,-3,-1,-1,-1,0,-1,-2,-1
1513487327373634,-1,-1,-1,-2,-4,-1,-1,-3
1513487327385655,0,-2,-3,-2,-1,0,0,-2
1513487327385655,0,-1,-1,-1,-1,-1,-3,1
1513487327394638,-1,0,-1,0,-3,-1,-1,-1
1513487327394638,1,0,-1,-1,0,-2,0,-1
1513487327409660,-2,-1,-2,-1,-3,-2,0,-1
1513487327409660,-1,-1,-2,-1,-1,-1,1,-1
1513487327410655,0,-1,-1,-2,-1,-2,0,0
1513487327410655,-2,0,0,-2,-1,-2,-1,-1
1513487327430675,0,-2,-2,-1,-2,-1,1,-1
1513487327430675,-2,-2,-2,0,-2,-1,1,-1
1513487327439672,-1,-2,-2,-1,0,-1,0,0
1513487327439672,-1,-1,0,0,0,0,-1,-1
1513487327445675,-2,-3,-1,0,-1,-1,0,-3
1513487327445675,-3,0,0,-2,-2,-1,-1,0
1513487327454686,0,-2,-2,-1,-1,-2,-1,-4
1513487327454686,0,-1,-2,-1,-2,0,2,2
1513487327469747,-1,-2,-1,-2,-1,-2,-2,0
1513487327469747,-2,-1,-1,1,1,1,-1,0
1513487327470707,0,1,-1,1,-1,-1,1,1
1513487327470707,-1,-1,-1,0,0,-2,-2,0
1513487327491728,-1,-1,-1,-1,-1,-2,-3,-5
1513487327491728,-2,-2,1,-1,-3,0,-3,0
1513487327493710,1,1,1,-3,-2,-2,0,0
1513487327493710,-1,-2,-1,0,-2,1,1,0
1513487327505718,-1,-1,-1,-2,-2,0,-2,1
1513487327505718,-1,-2,-2,-3,0,-2,-2,-2
1513487327514724,0,1,0,-1,-1,0,1,-1
1513487327514724,0,-1,-1,-1,-1,-1,0,-1
1513487327529749,-1,-3,-2,-1,-1,-2,-2,-1
1513487327529749,0,-1,1,-2,0,0,-2,-2
1513487327530750,-2,-1,-2,-2,-2,0,-1,-3
1513487327530750,0,-1,-3,0,0,-2,0,1
1513487327551777,0,-1,-1,0,-1,0,-2,-1
1513487327551777,0,-2,-3,0,-1,-3,-1,-1
1513487327553775,1,-1,-1,-2,-1,0,-1,0
1513487327553775,-3,-2,1,-1,-1,-2,-1,-2
1513487327574766,-1,-1,-2,-1,0,0,-3,1
1513487327574766,-2,-2,0,-2,-2,-3,-1,-2
1513487327575767,-2,-1,-2,0,-1,0,0,0
1513487327575767,0,-1,0,-3,-2,-2,-4,-1
1513487327589794,-1,-2,0,-2,-1,-1,-1,0
1513487327589794,0,-1,-2,-1,0,-3,-2,-2
1513487327591781,-1,1,-1,0,-1,0,-1,1
1513487327591781,-2,-1,-1,-1,0,0,-1,0
1513487327611807,-3,-3,0,1,-1,-2,0,-2
1513487327611807,0,-1,-3,-1,0,0,-1,0
1513487327613809,-1,0,0,0,0,-1,-1,-1
1513487327613809,-2,-2,0,-1,-1,0,-1,-1
1513487327634824,-1,0,-2,-3,-1,0,-1,-1
1513487327634824,-1,-2,-2,-2,-1,-2,1,-2
1513487327635824,-1,0,0,1,-2,0,-1,0
1513487327635824,0,0,-1,-1,-1,0,-4,0
1513487327648834,-3,-1,-1,-2,-1,-3,-1,0
1513487327648834,0,-1,-1,-1,-2,0,0,0
1513487327655840,1,0,-1,-1,-2,-1,-1,0
1513487327655840,-1,0,-1,-1,-1,1,0,-2
1513487327671849,-1,-1,-3,-1,-3,-3,-1,-2
1513487327671849,-3,0,-2,0,-1,-1,0,1
1513487327673848,-1,-2,0,-2,-1,-2,-1,-1
1513487327673848,-1,-1,0,-2,-2,0,-1,-3
1513487327694851,-1,-2,-2,-1,1,-1,-2,-1
1513487327694851,-1,-1,-1,0,-2,0,0,-2
1513487327695852,-2,0,-2,-1,-2,-2,0,-2
1513487327695852,-2,-2,-2,-1,0,-2,-4,0
1513487327709861,-3,-1,0,1,-1,-1,0,-1
1513487327709861,-2,0,-2,0,-1,-1,-3,-1
1513487327710873,0,-1,0,0,-2,-1,1,0
1513487327710873,2,-1,0,0,-2,-1,-2,-1
1513487327731887,-1,-1,-2,-1,-2,0,-1,-2
1513487327731887,0,-1,-2,0,-1,-1,-3,-2
1513487327733889,-1,0,-1,-2,-1,0,0,-2
1513487327733889,-1,-1,-2,0,-1,0,-1,0
1513487327754906,0,-3,-1,-1,-2,-2,-1,-1
1513487327754906,0,-1,-1,0,0,-1,-1,-3
1513487327755904,-1,-2,-3,-2,-2,0,0,1
1513487327755904,-2,-3,-1,0,-1,-1,-1,-2
1513487327767939,-1,-3,-2,-3,0,-2,-2,-2
1513487327767939,-1,-1,-2,-1,-2,-2,-1,1
1513487327775909,0,-1,-1,0,-1,0,-1,-1
1513487327775909,-1,-1,-2,-2,-2,0,0,1
1513487327790930,-1,-2,-2,-3,1,-1,3,-2
1513487327790930,0,-1,-1,-2,-1,1,0,-1
1513487327791929,-2,-1,-1,-1,-2,0,-1,-2
1513487327791929,0,-1,-1,-1,-2,-3,1,-2
1513487327821999,0,-3,-1,-1,0,-1,-3,-1
1513487327821999,0,-1,-1,-1,-2,-2,-2,0
1513487327823014,1,-2,-2,-1,-1,-2,-1,0
1513487327823014,-2,0,-2,-1,-1,0,-2,0
1513487327828002,-1,-2,-2,0,-1,1,-3,0
1513487327828002,-1,-2,-1,-1,-1,1,0,1
1513487327836010,0,0,1,-1,-3,-1,-1,-2
1513487327836010,0,-2,-1,-3,0,-3,-2,0
1513487327851027,-2,-1,0,0,0,0,-1,-3
1513487327851027,0,-1,-1,0,-2,-2,-1,-3
1513487327852010,0,0,-1,-1,0,-1,-1,-1
1513487327852010,-2,-1,-2,0,-1,-2,0,-1
1513487327875027,-1,-1,-1,-2,-2,-2,-2,-1
1513487327875027,-1,0,-2,-2,-2,-1,0,0
1513487327876028,1,0,-1,0,-1,-1,-2,-2
1513487327876028,0,-1,0,-1,-1,-1,-2,-1
1513487327889050,0,-2,-1,-2,-1,-4,-1,-1
1513487327889050,-2,-2,-1,0,0,-3,-1,-1
1513487327889050,-1,-1,-1,-2,-2,2,1,-2
1513487327889050,-1,-1,-2,0,-2,0,-1,-3
1513487327911052,-2,-3,-3,-1,-1,-1,-1,-3
1513487327911052,0,-1,-1,-3,-1,0,-1,1
1513487327912053,-3,-2,-1,1,1,-1,-1,-1
1513487327912053,0,0,1,-1,-1,-2,-1,-1
1513487327934082,-1,-1,-2,-1,-2,-1,-2,-1
1513487327934082,-2,-1,-1,-1,-4,0,0,-1
1513487327934082,-1,1,-2,1,-2,-1,-2,0
1513487327934082,-2,-3,-1,-3,0,-2,-1,-4
1513487327949080,-1,0,0,-1,-1,-2,-3,-1
1513487327949080,1,-1,-1,-1,-1,-2,0,0
1513487327949080,0,0,1,-1,0,-1,0,-1
1513487327949080,0,-3,-3,-1,0,0,-2,-1
1513487327971115,-1,-1,-1,-2,-1,0,0,-2
1513487327971115,-1,0,-2,0,-1,-1,-1,-1
1513487327972096,0,0,1,-1,-3,-1,-1,0
1513487327972096,-2,-2,-1,0,0,0,0,-1
1513487327994125,-3,-1,0,2,1,0,0,-1
1513487327994125,-1,-2,0,0,0,-1,-3,-1
1513487327994125,-1,0,-2,-1,-1,-1,0,-1
1513487327994125,-2,-3,-2,0,-1,0,-2,0
1513487328008131,1,-2,-1,-1,-2,-1,-1,1
1513487328008131,-1,-2,1,-1,-1,-1,1,0
1513487328016136,-2,0,-1,-1,-2,0,-1,-1
1513487328016136,-1,0,-2,-2,-2,0,-1,-2
1513487328031195,-2,-2,-2,-1,0,-1,-1,-2
1513487328031195,1,-1,-1,0,-1,-1,-1,-2
1513487328033204,-1,0,-1,-3,-2,-3,0,-1
1513487328033204,-2,1,-2,-2,-1,-2,-1,-1
1513487328053211,0,0,-3,1,-2,-1,0,-2
1513487328053211,-4,0,-1,-2,0,0,-1,1
1513487328054211,-2,-1,-2,-1,0,-2,-2,-1
1513487328054211,-3,-1,-2,1,-1,-1,-3,0
1513487328068276,0,-2,-2,-2,-1,-1,-1,0
1513487328068276,-1,-2,-1,-1,-1,0,-2,-2
1513487328069236,3,-2,0,1,0,0,2,6
1513487328069236,-1,-1,0,-3,-3,0,0,2
1513487328091247,-3,-2,-3,0,-2,-2,-4,-11
1513487328091247,0,0,1,-2,-2,-1,1,3
1513487328092248,-2,1,-1,-2,0,0,1,-2
1513487328092248,-1,-3,1,-2,-1,-3,1,3
1513487328113260,-1,-1,-2,-5,1,-1,-1,3
1513487328113260,1,0,1,1,0,-2,1,-2
1513487328114265,-2,0,-3,-1,-2,-1,-1,0
1513487328114265,-1,-1,-2,-1,0,0,-1,0
1513487328128285,-2,0,-3,-1,0,-1,-2,-1
1513487328128285,-2,-1,4,0,-2,-3,-3,-4
1513487328136276,1,0,0,0,-1,-1,-2,-3
1513487328136276,0,0,0,1,1,-3,-2,-6
1513487328151315,0,-3,-3,0,-2,-1,2,1
1513487328151315,-1,-2,-5,-2,0,-1,-1,-1
1513487328152278,-1,0,0,-1,-1,-1,-2,-2
1513487328152278,-2,-1,-2,-2,-2,0,-4,-4
1513487328174294,-1,0,1,1,-1,-2,-1,1
1513487328174294,-1,-1,-1,1,0,-2,0,2
1513487328175295,-3,-1,-1,0,-2,-1,-2,-2
1513487328175295,-2,-3,-3,-1,-1,-1,-1,-3
1513487328188318,-1,-1,0,-3,-2,-1,-1,0
1513487328188318,-1,-1,-2,-2,-4,-2,-1,-1
1513487328196319,0,0,-1,-1,-1,0,0,-2
1513487328196319,-1,-1,0,-1,0,-2,-2,0
1513487328211321,-3,-1,-1,-1,1,1,-1,-2
1513487328211321,-2,-1,-2,-2,0,1,-1,-2
1513487328212322,-1,-1,0,-2,-1,0,-1,-1
1513487328212322,-1,-2,2,0,-1,1,-1,1
1513487328233356,0,1,-2,0,0,-2,-1,-1
1513487328233356,-1,-2,-2,-2,-1,0,-1,-2
1513487328234341,-2,0,-1,-1,-2,-2,-1,1
1513487328234341,-2,-2,-1,-1,0,-3,-1,-2
1513487328248366,0,-2,0,1,-1,-1,-2,-3
1513487328248366,1,0,-2,0,-1,-1,1,-1
1513487328256368,-1,1,0,0,0,-2,-2,-1
1513487328256368,-2,-1,0,-2,-2,0,-1,-3
1513487328271372,-1,-2,-2,-3,0,-2,-2,0
1513487328271372,-1,-1,-1,-2,0,0,0,-1
1513487328271372,-2,0,-2,0,1,0,-1,-2
1513487328271372,0,-1,-2,-1,-2,-3,-1,-1
1513487328293390,1,0,1,1,-2,-2,0,-1
1513487328293390,0,2,-1,-1,0,-1,-1,-1
1513487328294382,-4,-5,0,-1,-3,0,0,-1
1513487328294382,0,-1,-2,0,0,0,-3,-1
1513487328308398,-2,-4,-1,-2,-2,-2,-4,-1
1513487328308398,1,-1,-2,-2,0,-1,0,-1
1513487328316441,-1,-1,-1,-1,-2,0,-1,-1
1513487328316441,-3,-2,-3,-1,-1,-1,-1,0
1513487328331405,-2,-1,-1,-2,0,0,-2,-2
1513487328331405,-3,0,0,0,-1,-2,0,0
1513487328332415,1,-1,-1,-1,-1,1,0,-1
1513487328332415,-1,-1,0,-1,-1,0,1,-1
1513487328353446,0,0,-2,-1,-3,-2,-3,0
1513487328353446,-2,-1,-2,-1,-3,-1,0,-2
1513487328354421,0,-2,-1,0,0,0,-2,-1
1513487328354421,-1,-3,-2,-2,0,0,-1,-2
1513487328368434,-1,-4,-3,-1,0,-2,0,-2
1513487328368434,0,-2,-1,-3,-1,0,-1,0
1513487328376439,0,-1,-1,-2,-1,-4,0,-1
1513487328376439,0,0,-1,-1,-1,-1,-2,-2
1513487328391504,-1,-2,-1,0,0,0,-2,0
1513487328391504,-2,1,-1,-1,-2,0,-2,-1
1513487328391504,0,1,-2,-2,-1,-2,0,-3
1513487328391504,-1,0,-1,-1,0,-3,-1,-1
1513487328413518,-1,-1,-2,-1,-1,-1,-2,0
1513487328413518,0,-2,0,0,-1,-1,0,1
1513487328414509,-1,-2,-1,-2,-2,1,-2,-1
1513487328414509,-1,-1,0,-2,0,-1,-1,-1
1513487328428519,-1,-1,0,-1,-3,0,0,-4
1513487328428519,-1,2,-2,-1,-3,-2,0,1
1513487328436526,-1,-1,0,-1,-1,-2,-1,0
1513487328436526,-2,-3,-1,-1,-2,-1,-3,-1
1513487328451565,1,-2,-1,-2,-1,0,-1,-1
1513487328451565,1,-3,-2,0,-1,-1,1,-2
1513487328452536,0,-1,-2,-2,-1,-1,1,-1
1513487328452536,-1,-3,-2,1,-1,-1,0,-3
1513487328473552,-4,0,0,-1,-2,-2,-2,-1
1513487328473552,-2,-1,-2,0,-1,0,1,-1
1513487328474552,0,-1,-1,0,-2,-2,-3,-1
1513487328474552,-2,-2,-1,0,0,-1,-3,0
1513487328496567,-1,-1,-2,-2,0,-2,0,1
1513487328496567,-1,-1,-1,-2,0,-2,-2,-3
1513487328497567,-2,-2,-2,-2,-1,-1,1,0
1513487328497567,-1,-1,-1,-2,0,-1,-2,-2
1513487328511577,0,-2,-1,1,-1,0,-2,0
1513487328511577,1,0,0,-2,-1,0,-1,1
1513487328511577,-3,-1,-2,-1,-1,1,0,0
1513487328511577,-1,-3,0,-1,0,-1,-1,-1
1513487328533593,-2,2,-1,-1,1,-2,-2,-2
1513487328533593,0,-1,-1,0,0,-1,1,-1
1513487328534594,-2,-1,-1,0,-1,0,-1,-2
1513487328534594,-2,-1,-2,-1,0,-2,-2,0
1513487328564636,0,-1,-2,-1,0,-2,-1,-2
1513487328564636,-1,-1,-1,-1,-1,-1,-3,-1
1513487328565617,0,0,0,-2,-2,0,-2,-2
1513487328565617,-1,-1,-2,-2,-2,-1,-2,-1
1513487328571626,-2,-3,-1,-1,-2,-1,-1,0
1513487328571626,0,0,1,-1,-1,1,1,-1
1513487328571626,-1,-1,-1,0,-1,-2,0,-2
1513487328571626,0,-1,0,-1,0,-2,-1,-1
1513487328593650,-1,-2,-4,-2,-1,-2,-2,1
1513487328593650,1,0,-3,-1,-2,2,-3,1
1513487328594651,-2,-2,-1,-1,-1,0,-3,2
1513487328594651,-1,-2,-1,-1,-2,-1,-1,-1
1513487328616674,-1,-1,0,-2,1,-1,0,-2
1513487328616674,-2,1,-1,-2,-1,0,0,1
1513487328617654,-1,0,-1,-2,-2,-1,1,-1
1513487328617654,-1,-2,-1,-2,-1,-3,-2,-2
1513487328631663,-1,1,-1,-2,0,0,1,-2
1513487328631663,-1,0,-1,-1,-1,0,-1,-2
1513487328632663,0,2,0,-1,-1,-1,-3,-2
1513487328632663,-2,2,-2,-1,-1,0,0,3
1513487328653717,-1,-2,-1,-3,-1,0,-2,-3
1513487328653717,0,-1,0,-1,-2,-1,-1,-2
1513487328654689,-1,0,-1,-1,0,-1,-1,3
1513487328654689,-2,-1,-1,-1,-4,-3,-3,-2
1513487328676695,-1,-4,-1,0,-2,-1,-1,3
