timestamp,emg1,emg2,emg3,emg4,emg5,emg6,emg7,emg8
1514899169121988,1,0,-2,0,-2,-3,0,-3
1514899169121988,0,-7,-3,0,-2,-1,0,-3
1514899169122488,-1,-1,0,0,-2,-2,0,-1
1514899169122488,-3,-2,-1,0,-2,-1,0,-2
1514899169146007,-2,-4,-2,-2,0,0,-2,-2
1514899169146007,-2,-1,-1,-2,-2,-2,-2,0
1514899169148009,-1,1,-1,0,-2,0,-1,-1
1514899169148009,-1,-2,0,-1,-1,-1,-3,0
1514899169175025,-1,0,-1,-2,-3,0,-2,-2
1514899169175025,-5,-13,-4,-2,1,-1,-1,-3
1514899169176527,0,7,1,-1,0,-2,-1,-1
1514899169176527,0,-6,-6,-3,-2,-2,0,-1
1514899169181032,-4,1,1,0,0,0,0,0
1514899169181032,-2,0,-2,0,0,0,-1,1
1514899169190536,-2,-3,-2,-1,-2,0,0,-1
1514899169190536,-1,-2,0,-2,-1,-2,0,-2
1514899169212553,-1,-4,0,-2,1,-2,0,0
1514899169212553,-2,1,-1,-2,-1,-2,0,1
1514899169214555,-1,-3,-2,0,-3,-1,-1,-3
1514899169214555,-1,3,-2,1,-1,1,-2,-2
1514899169227564,1,-2,0,-1,-1,-1,-1,-1
1514899169227564,2,1,1,0,0,-1,-1,-1
1514899169229063,-1,1,-1,-1,-2,-1,-1,-3
1514899169229063,-2,-1,-2,-2,-2,-1,-2,-1
1514899169241091,-2,-3,-2,0,-2,-2,-1,-1
1514899169241091,0,-1,-2,-2,-1,-2,0,0
1514899169250093,-1,-2,-2,-2,-2,0,-1,-1
1514899169250093,0,-5,-1,-2,-1,-1,-1,-1
1514899169265092,2,10,2,1,1,-1,1,0
1514899169265092,1,2,0,1,0,-1,-2,-1
1514899169266591,0,-3,-2,-1,-1,-2,-1,0
1514899169266591,-2,0,-4,-1,-1,-1,-3,0
1514899169287615,-1,-5,-1,-1,-1,-1,-1,-1
1514899169287615,-4,0,1,1,-1,1,0,-1
1514899169289116,0,0,0,-1,0,-1,0,0
1514899169289116,1,2,-2,-3,-2,-2,0,-3
1514899169301124,-2,-3,-2,0,0,-2,-2,-1
1514899169301124,0,0,-1,0,-2,-1,0,-1
1514899169311131,-1,-3,-2,-2,0,0,-1,-1
1514899169311131,-2,-5,-2,-1,-1,-1,-2,-2
1514899169324640,-2,-4,-3,-3,-2,-1,-3,-1
1514899169324640,0,-3,-2,-2,-1,-2,-3,0
1514899169326642,1,0,-2,0,0,-2,-3,0
1514899169326642,-1,-4,0,-1,0,-1,-1,-1
1514899169355167,1,-1,-2,0,-1,0,-1,0
1514899169355167,-1,-13,-4,-1,-1,0,-1,-2
1514899169356654,0,1,-1,-2,-2,-1,1,0
1514899169356654,0,1,-2,1,-1,-2,-2,-1
1514899169361158,-2,-2,0,-3,-1,0,-1,0
1514899169361158,2,0,-2,-2,-4,-3,-1,-1
1514899169370164,-3,-1,-1,-1,1,0,0,-2
1514899169370164,-3,-2,-2,-2,-2,-1,1,0
1514899169392698,1,-6,-3,0,-3,0,-1,-1
1514899169392698,0,2,-1,-1,-1,-2,-1,-2
1514899169395199,-2,2,-1,-1,1,0,-2,0
1514899169395199,-6,3,1,1,-2,-2,-3,-3
1514899169407716,-1,-4,-1,-2,0,-2,-1,-1
1514899169407716,-1,0,-1,0,0,1,-1,-1
1514899169409217,-1,-3,1,-1,-1,-1,-2,-2
1514899169409217,0,-2,-2,-2,0,1,1,-1
1514899169430247,-3,-13,-6,-1,-1,-2,-2,-1
1514899169430247,-2,3,0,-1,0,-2,-1,-1
1514899169431742,-1,0,-1,0,-2,-1,0,0
1514899169431742,2,0,-1,-2,0,-2,-2,-2
1514899169445243,-3,-1,1,1,-1,-1,1,-1
1514899169445243,0,1,0,-2,0,0,-1,0
1514899169446747,-3,-2,-2,-1,-1,-1,-1,-1
1514899169446747,-1,-3,1,-1,-1,-2,-1,0
1514899169467758,0,-3,-4,-3,-2,-1,-1,-2
1514899169467758,-2,0,-3,0,-1,-2,1,-1
1514899169469259,-1,0,1,-1,-2,0,0,0
1514899169469259,-2,0,1,-2,-1,0,-1,-1
1514899169481268,-1,1,-1,0,-1,-1,0,-1
1514899169481268,-3,1,3,0,0,0,1,0
1514899169490287,1,0,-1,-2,-2,-1,-1,-1
1514899169490287,-1,0,-1,-1,-2,-1,0,-2
1514899169504796,2,1,0,-1,-2,1,-2,-1
1514899169504796,-2,-3,-1,0,-2,-1,-2,-3
1514899169508790,-2,-1,-2,1,-1,-1,-1,-1
1514899169508790,-2,1,-2,-2,-1,-1,-1,-1
1514899169535306,2,3,1,-2,1,-1,-2,-1
1514899169535306,-1,-8,-3,-3,-2,-3,-2,0
1514899169536808,2,5,-1,-2,0,-1,-2,0
1514899169536808,2,-2,-3,-1,-2,0,0,0
1514899169541828,0,6,1,0,-1,-1,-1,-1
1514899169541828,-1,-3,-2,0,-1,-1,-2,-1
1514899169550326,-2,-2,-2,0,-1,-1,0,-2
1514899169550326,0,-1,-1,-2,-1,-1,-1,-1
1514899169564827,-1,1,0,-1,-2,-1,-1,0
1514899169564827,0,2,0,0,-2,-2,0,-1
1514899169566828,1,1,0,-1,-2,-1,-2,-1
1514899169566828,-1,0,0,-1,0,-1,0,-1
1514899169595349,-1,-3,-2,-1,0,-2,-1,-2
1514899169595349,0,1,-1,1,-1,-2,-1,-2
1514899169597350,-2,-4,-2,-1,0,-4,-1,-3
1514899169597350,-2,-3,-1,-2,-2,0,-1,-3
1514899169609862,0,-4,0,-1,-1,-1,-1,-1
1514899169609862,0,1,-1,-2,1,0,-1,1
1514899169611360,-1,-1,-1,0,-2,0,-2,-2
1514899169611360,-1,1,-1,-1,0,-2,-2,-1
1514899169624869,0,14,4,1,0,0,-1,2
1514899169624869,0,0,0,-1,-3,1,-1,0
1514899169627371,-3,-2,0,-1,-1,-2,0,0
1514899169627371,1,-1,-2,-1,-1,-1,-1,0
1514899169647395,0,-6,-2,0,0,-1,0,-1
1514899169647395,-2,-2,-1,-1,0,-2,-1,-1
1514899169649387,-3,0,0,-1,-1,-1,-1,-1
1514899169649387,-2,-3,-2,1,-3,-2,-1,-2
1514899169660941,-2,-4,-3,0,-2,-1,-2,-2
1514899169660941,0,-2,-1,-3,0,-1,0,0
1514899169669947,0,-3,-2,-1,0,-1,-1,-1
1514899169669947,-2,-1,0,-1,-1,1,-2,0
1514899169684957,-5,-4,-1,0,0,-1,-1,-3
1514899169684957,-2,-6,-3,-3,0,-2,-1,-1
1514899169686458,3,15,1,-1,-1,1,-1,0
1514899169686458,-2,-5,1,-2,0,-2,-1,-1
1514899169708474,-1,-1,-1,-2,-1,-2,-1,-1
1514899169708474,0,-2,0,-2,-3,1,-1,-2
1514899169711978,-4,0,1,-1,-1,-2,0,-2
1514899169711978,1,0,-2,0,0,0,-2,-2
1514899169721984,1,-1,-2,-2,0,-2,-1,0
1514899169721984,-5,2,0,2,-1,0,0,-2
1514899169730990,-2,-7,-3,0,-2,0,-1,-2
1514899169730990,-1,3,-1,-2,-2,-2,0,1
1514899169745000,-1,-6,-2,-3,-1,-1,0,-2
1514899169745000,0,1,-2,-2,0,0,-1,-1
1514899169746510,-2,-1,-1,-1,-2,-1,-1,-1
1514899169746510,1,9,2,1,1,-1,1,0
1514899169767517,0,-2,-2,-1,-2,-3,-2,0
1514899169767517,0,1,-1,0,-1,-2,-2,0
1514899169769017,-1,-1,-1,-2,0,-2,-2,-3
1514899169769017,0,1,-2,-1,-2,-1,-2,-2
1514899169781525,1,-8,0,-1,-1,0,-2,-1
1514899169781525,-3,-1,0,0,-1,-2,0,-2
1514899169790050,0,-2,-1,-3,-1,-3,0,0
1514899169790050,-3,-3,-2,-1,-2,-1,-2,-1
1514899169813549,2,3,-1,2,-1,-1,-1,0
1514899169813549,0,-3,-1,0,-1,-1,-2,0
1514899169816050,-2,-5,-2,-3,-1,1,-1,0
1514899169816050,-3,0,-2,-1,-2,0,0,-2
1514899169827569,-2,2,-2,-2,-2,-2,2,-1
1514899169827569,1,-3,0,-2,-1,-2,-2,1
1514899169830060,0,-2,-2,-2,0,-2,-2,0
1514899169830060,-1,-5,-2,-1,-1,0,-2,-1
1514899169841068,-4,-13,-5,-2,-1,-2,-2,-4
1514899169841068,1,2,0,0,-1,-2,0,0
1514899169850075,0,-1,-3,-1,-1,-1,0,1
1514899169850075,-3,-4,-1,-3,-2,-1,-2,-1
1514899169865085,-1,-2,-1,-2,-1,-2,-2,-1
1514899169865085,-1,-2,0,-2,-2,-1,-1,1
1514899169866595,-1,-1,0,-1,0,-2,-1,-1
1514899169866595,-1,-5,-3,0,-2,-2,-1,-1
1514899169887610,0,4,1,-2,-2,-3,0,0
1514899169887610,-1,-1,-2,0,0,-2,-1,-2
1514899169889111,-4,-1,-2,0,0,-1,-1,0
1514899169889111,-2,-3,-2,-2,-2,-1,-1,-2
1514899169911117,-3,1,0,1,-1,-1,-1,1
1514899169911117,-1,-3,-1,-2,-1,0,0,-1
1514899169912619,0,-5,-2,-1,-1,-1,-2,-2
1514899169912619,-5,2,1,0,-2,-1,-2,-3
1514899169925127,-1,-1,-1,-1,-1,-2,-2,1
1514899169925127,4,13,3,0,-1,-2,-1,0
1514899169926640,-1,-2,-3,1,-1,0,-1,-3
1514899169926640,-1,0,-3,-1,-2,-2,-2,0
1514899169947644,-1,-2,-2,0,-1,0,0,-1
1514899169947644,-4,2,0,-1,-1,-2,-1,-1
1514899169949153,0,0,0,-1,-1,-3,-3,-2
1514899169949153,1,2,1,-1,-2,-1,-1,-1
1514899169970660,-1,1,0,-1,0,0,0,-1
1514899169970660,-2,-5,-3,-2,0,0,0,-2
1514899169972161,-1,0,-3,0,-1,-1,1,-1
1514899169972161,0,-1,-1,-1,-2,-1,-3,-1
1514899169984669,-2,0,0,-1,-1,1,-1,0
1514899169984669,-2,-5,-2,-2,-1,0,-1,0
1514899169986671,0,-2,-1,-2,-3,-1,-1,-3
1514899169986671,-2,-1,-2,-3,0,1,0,-1
1514899170008687,-1,-1,-3,0,-2,-1,0,0
1514899170008687,-1,-3,0,-1,-2,-1,-2,-1
1514899170010187,-1,-1,0,0,0,0,-1,-1
1514899170010187,-2,-1,-1,-1,0,-1,-1,-2
1514899170029714,0,-1,0,-2,-1,0,-2,-1
1514899170029714,-5,-4,-1,-1,-1,-1,-1,-1
1514899170031713,-1,-1,-2,-2,-3,-2,-1,-2
1514899170031713,-1,0,-1,-2,1,-2,-2,-1
1514899170044211,1,-3,0,-2,-1,-2,-3,-2
1514899170044211,0,5,0,1,1,0,0,0
1514899170051216,-2,0,-1,-1,-1,0,-1,0
1514899170051216,4,14,3,0,0,0,1,0
1514899170074733,-2,3,2,-1,0,0,-1,0
1514899170074733,0,-5,-3,-1,-1,-3,-2,0
1514899170076734,1,0,-3,-1,-1,0,-1,-1
1514899170076734,-2,-7,-3,-2,-2,-3,-1,-1
1514899170089745,0,-3,-3,0,-2,-1,-1,-3
1514899170089745,0,-1,-1,-2,0,-1,-2,-2
1514899170091747,-3,0,-1,0,-2,-1,0,-1
1514899170091747,-1,-5,-2,-1,-1,0,-2,-1
1514899170112262,-1,-2,-1,-2,-1,-1,-1,0
1514899170112262,0,-5,-1,-1,-2,0,-1,-1
1514899170115762,-1,-6,-2,-2,-1,-1,0,0
1514899170115762,-2,-1,-1,0,0,0,-1,-1
1514899170126269,-2,-1,-1,-2,-2,-3,0,-2
1514899170126269,-1,-2,-2,-1,-2,0,-3,0
1514899170135286,-2,-2,-1,-2,-2,1,-1,-1
1514899170135286,-2,-2,-1,-1,-3,1,-2,-1
1514899170149788,4,14,2,2,-1,-1,0,0
1514899170149788,1,-3,-2,-3,-1,-1,0,0
1514899170151797,-4,3,1,0,-1,2,-1,-3
1514899170151797,-1,-3,-3,-2,0,-1,0,-1
1514899170164308,-1,-5,-2,-1,-1,-2,-2,-2
1514899170164308,-2,-1,-1,-1,-1,0,0,0
1514899170171802,1,0,0,0,-1,0,-2,1
1514899170171802,-3,-3,-2,-1,-1,-1,0,0
1514899170188322,-4,-4,-1,-2,-1,-2,0,-1
1514899170188322,-2,-2,-1,-2,-2,-2,-2,-2
1514899170189831,-2,-3,0,-1,-1,0,-2,-2
1514899170189831,-1,-3,0,1,-1,-2,-2,-2
1514899170211330,0,-4,-3,-1,-2,0,-2,-1
1514899170211330,-2,-7,-4,-1,-1,-3,-2,0
1514899170213831,-2,1,0,-1,-1,0,-1,0
1514899170213831,0,0,-2,-3,0,-1,-1,0
1514899170224839,-1,-2,-2,-1,-2,0,0,-2
1514899170224839,0,-2,-1,0,-1,-1,-1,1
1514899170231355,1,1,-2,-1,0,-1,-1,-2
1514899170231355,0,-2,0,-1,-4,-2,0,-1
1514899170247356,-3,-4,-3,-1,0,-2,-1,0
1514899170247356,1,-1,-1,0,-1,-2,-1,-1
1514899170249357,-1,0,-1,-2,-2,-2,-1,-1
1514899170249357,0,0,-1,-1,-2,0,-1,0
1514899170269872,-2,-4,-2,-1,-1,-1,-2,-1
1514899170269872,2,11,4,0,-1,-1,0,0
1514899170271373,0,-1,0,-2,0,-2,0,-2
1514899170271373,-1,-5,-2,0,-3,-3,0,-3
1514899170284393,-2,-5,-1,-1,-2,-1,0,-1
1514899170284393,-3,-5,-3,-1,-1,-1,-2,-3
1514899170298891,0,2,-2,0,-2,-1,-1,-1
1514899170298891,1,2,-1,-1,0,-2,-1,-1
1514899170307406,1,-2,0,0,0,-2,-1,0
1514899170307406,-2,-2,-3,-2,0,0,0,-1
1514899170308899,-2,-1,0,-2,0,-1,-1,0
1514899170308899,-4,-3,-1,-1,-1,0,-2,-2
1514899170330415,-2,0,0,-1,0,0,-2,0
1514899170330415,-1,-1,0,-1,-3,-1,0,-1
1514899170333916,-4,-1,-1,-1,-2,0,0,-2
1514899170333916,0,-2,-1,-2,-1,-1,-1,-1
1514899170344423,0,-2,-1,-1,0,0,-1,-1
1514899170344423,-1,-2,-2,0,0,0,0,-1
1514899170350929,-1,1,-1,-2,-1,-1,0,-1
1514899170350929,-2,-3,-1,-1,-2,-1,0,-2
1514899170374947,-2,-1,-2,-3,-1,-1,-1,-1
1514899170374947,-1,-2,-1,-1,0,-1,-2,-1
1514899170377456,-2,-6,-3,0,-1,-2,0,-2
1514899170377456,2,1,-1,-1,0,-2,1,-1
1514899170389965,-1,-2,-1,-4,-1,-1,-2,-1
1514899170389965,-1,-1,-1,-1,-2,-2,-2,-1
1514899170391467,-1,-2,-2,-2,-2,0,-1,-1
1514899170391467,-2,0,-2,-1,0,-2,-1,-2
1514899170403475,-1,-2,-1,-1,-2,-2,0,-1
1514899170403475,-1,0,0,-2,-1,-1,0,-1
1514899170412473,1,0,0,-1,-2,-2,-2,-1
1514899170412473,-5,-2,0,0,0,-1,0,0
1514899170442505,-1,0,-1,-2,-1,-2,-2,0
1514899170442505,-1,1,-1,-2,-1,-2,0,-1
1514899170444006,1,1,-2,1,-2,-1,-1,-2
1514899170444006,-2,-1,1,-2,-1,-1,-2,-2
1514899170450007,-2,-6,-2,0,-1,0,-1,-2
1514899170450007,-2,0,-2,-1,1,0,-1,-2
1514899170451509,0,0,-2,-1,-1,0,-1,0
1514899170451509,0,-2,0,0,-2,-2,0,-4
1514899170464008,0,2,0,-1,0,0,0,-2
1514899170464008,-1,-2,-2,-1,-2,-1,-2,-1
1514899170472514,-3,1,1,-2,0,0,0,0
1514899170472514,0,-2,-4,0,-1,-3,-2,0
1514899170487534,-2,-3,-1,0,0,-2,1,-1
1514899170487534,-2,-3,-3,1,-1,-2,-2,-1
1514899170489026,-1,1,-1,-1,-2,-2,-2,-2
1514899170489026,0,0,1,0,-1,0,-1,0
1514899170510541,6,13,2,-2,-1,-2,0,3
1514899170510541,-2,1,2,0,0,-1,-1,-1
1514899170512043,-1,0,-2,-3,-2,-1,-1,-1
1514899170512043,-1,-2,-1,-1,-1,-1,-1,-1
1514899170523560,-1,-5,-3,1,-1,-2,-3,-3
1514899170523560,-1,-2,-1,-1,-2,-1,-1,-2
1514899170540071,0,2,-1,-1,-1,-1,0,-1
1514899170540071,-2,5,2,-1,0,1,0,-1
1514899170547572,-3,-3,-2,-1,-1,-1,-1,-1
1514899170547572,-1,0,-1,-1,0,-1,1,1
1514899170549078,-5,2,1,2,-1,-1,1,1
1514899170549078,0,-1,-3,-2,-1,-1,-2,-1
1514899170570083,0,-3,0,-1,-2,-1,-2,-2
1514899170570083,0,-1,0,0,0,-1,-2,-2
1514899170572585,0,-2,-1,-2,-2,-1,-1,-2
1514899170572585,-1,-3,-2,-1,-1,0,-2,-1
1514899170583593,-3,-5,-1,-1,1,0,-1,-1
1514899170583593,-2,13,2,-1,-1,0,0,0
1514899170592599,-1,-2,-2,-1,0,-1,-1,0
1514899170592599,-1,-6,-3,-3,-3,-1,-2,-1
1514899170607109,0,-1,-1,-3,-2,-2,-1,0
1514899170607109,0,-4,-2,-3,-2,0,-2,-2
1514899170611115,-2,-2,-3,0,0,0,-1,-3
1514899170611115,-1,1,1,-1,0,-1,-1,-1
1514899170630138,-2,-3,-2,0,-1,-2,-1,-2
1514899170630138,-2,-4,-4,-1,-2,-1,0,0
1514899170631639,-1,1,0,-1,0,-2,-2,-2
1514899170631639,-2,-3,-2,-1,-2,-2,1,0
1514899170644135,0,-2,1,-3,-1,-2,-1,0
1514899170644135,-1,-3,-1,-1,-2,-3,-2,-2
1514899170652642,-5,2,2,-1,-2,0,-2,-1
1514899170652642,0,-2,0,-1,-1,0,0,-1
1514899170667653,-3,-11,-5,-4,-2,-1,-1,-1
1514899170667653,-1,-1,-3,0,-1,-1,-1,0
1514899170670154,-1,-2,-2,-3,-2,-2,0,-2
1514899170670154,0,-2,0,0,-1,-2,-2,-2
1514899170689689,-2,-1,-1,-1,-3,-2,-2,0
1514899170689689,-1,-5,-1,-3,0,0,0,-1
1514899170691684,0,-1,-2,-1,-2,-1,-1,-1
1514899170691684,-1,-2,-2,-1,-2,0,0,-2
1514899170720189,0,0,-1,0,-2,0,-1,0
1514899170720189,-1,-1,-1,-2,-2,-2,-1,-1
1514899170721690,-4,0,0,0,-1,-2,-2,0
1514899170721690,-1,-1,-1,0,-1,-2,-1,-2
1514899170727694,-1,-7,-3,2,1,0,-2,-2
1514899170727694,-1,0,0,-1,-2,-2,-3,0
1514899170730196,-1,2,0,-1,0,-2,0,0
1514899170730196,-5,-16,-5,-3,-1,-3,-3,-2
1514899170750222,-2,1,-2,0,1,0,-1,-1
1514899170750222,0,-3,-3,-2,-2,0,0,-1
1514899170756224,1,-1,-3,-2,-1,-2,-1,-2
1514899170756224,-1,-1,-1,-1,1,-1,-1,0
1514899170763720,0,2,-1,-1,0,-3,0,-3
1514899170763720,-2,1,0,-2,-2,-2,-1,-2
1514899170772726,1,-4,-3,-1,-1,-1,0,0
1514899170772726,1,3,0,-1,-1,-1,-1,-1
1514899170787252,-2,-5,0,-3,0,-2,-2,-2
1514899170787252,-1,4,1,0,0,0,1,1
1514899170789239,1,-3,-4,0,-1,-1,-2,-1
1514899170789239,-1,1,-1,-1,-1,0,-1,1
1514899170809755,-1,-1,0,-1,-1,-1,-1,1
1514899170809755,-1,-1,-2,-1,-3,-2,-1,-2
1514899170811754,-2,0,-1,-1,-1,-2,-1,-4
1514899170811754,2,1,0,-1,0,-2,0,-2
1514899170832268,-2,-1,0,1,-1,-2,-1,-2
1514899170832268,-4,5,4,0,0,1,0,1
1514899170833769,-1,-1,-2,-2,0,-1,-3,-1
1514899170833769,0,3,-1,0,-1,0,0,-1
1514899170854784,2,3,2,-1,0,0,0,0
1514899170854784,-4,-3,-3,-1,0,0,-2,-3
1514899170856285,-1,-4,-1,-2,-1,1,1,-1
1514899170856285,0,-1,-1,-2,-2,-2,-2,0
1514899170869795,-1,-3,-2,-3,-2,-2,0,-1
1514899170869795,2,-4,-2,-1,-1,-2,-2,-2
1514899170871796,-2,0,-2,1,-2,0,-1,-1
1514899170871796,-1,-1,0,-1,-2,-1,-1,-1
1514899170893311,0,0,1,0,-2,-1,-1,0
1514899170893311,-1,-3,-1,-2,1,-1,-1,-2
1514899170898315,2,1,-1,1,0,-1,-2,-3
1514899170898315,-2,-1,-2,-2,-1,-2,-1,-2
1514899170907324,-1,-2,0,0,-1,0,-1,-2
1514899170907324,-1,-1,-1,-2,0,0,0,-1
1514899170908822,-2,-2,-1,-3,-1,0,0,0
1514899170908822,-3,-12,-3,-2,0,-1,-1,-1
1514899170929874,-1,-1,-2,-1,-1,0,-1,-3
1514899170929874,0,-1,-2,0,-1,-1,-1,0
1514899170931362,-1,0,0,-1,-2,-3,-1,0
1514899170931362,0,-1,2,1,-2,0,0,2
1514899170952377,-3,0,-2,-1,-1,0,-1,0
1514899170952377,0,1,0,-1,-1,0,0,1
1514899170953878,-2,-2,-2,-2,-1,-1,-1,-2
1514899170953878,2,-1,-2,0,-2,-2,-1,-1
1514899170966387,1,-4,-2,-1,-1,-2,0,-1
1514899170966387,-1,-1,-3,1,-1,-1,-2,-1
1514899170974895,-3,-1,0,-1,-1,0,0,-1
1514899170974895,0,3,-1,0,-2,-2,-1,-1
1514899170997419,0,-1,-1,-1,-1,-1,0,0
1514899170997419,0,-3,-1,0,-2,-3,0,-2
1514899170998910,0,-1,-1,-2,-1,-1,-2,-2
1514899170998910,-3,0,0,-1,1,-1,-1,-2
1514899171012422,-1,-3,-2,-1,-1,-2,-2,0
1514899171012422,-1,-2,-2,-1,-1,0,-1,-1
1514899171015922,-1,-4,-2,-1,-2,-1,-1,2
1514899171015922,4,10,2,-1,-1,-1,-2,1
1514899171027430,0,-1,0,-3,-1,0,-1,-1
1514899171027430,-1,-2,-1,-2,-1,-1,-1,-3
1514899171033434,-1,-1,-2,-1,-1,-2,-1,-2
1514899171033434,-2,-1,1,-2,-1,0,-1,-1
1514899171049947,0,0,0,-1,1,0,-1,-1
1514899171049947,0,1,-1,0,-1,0,0,-1
1514899171051447,0,1,-1,0,-1,-1,-1,-1
1514899171051447,-3,-4,-2,-3,-2,-2,-1,-1
1514899171072472,1,-2,0,-2,-1,0,0,-2
1514899171072472,-2,-1,-1,-3,-1,-2,0,-1
1514899171073974,0,1,-1,-1,-1,0,-1,-2
1514899171073974,-1,-3,-1,0,0,0,-1,-1
1514899171086971,-1,-1,-1,2,0,-2,-1,-2
1514899171086971,-1,-1,-2,-2,-2,-2,-2,-1
1514899171093476,-3,1,-2,-1,-1,-1,0,0
1514899171093476,0,7,1,-1,-2,0,1,1
1514899171109988,0,-1,-1,-2,-2,-1,0,1
1514899171109988,-1,0,-1,-1,-1,0,0,-2
1514899171112492,0,-1,-1,-1,0,-2,0,-3
1514899171112492,-3,-5,-1,-1,0,-1,-2,-3
1514899171132504,-1,-2,-2,-2,-2,-1,-1,0
1514899171132504,-3,-10,-4,-3,-1,-1,0,-1
1514899171134005,2,4,1,0,-1,0,-1,0
1514899171134005,-2,-4,-3,1,0,-1,-2,-1
1514899171147025,-2,-2,0,-1,-1,0,-2,-1
1514899171147025,-1,-4,-3,1,-1,0,1,-2
1514899171153520,0,-2,-2,-2,-1,0,-1,-1
1514899171153520,-3,-2,-2,-1,-2,0,-2,-2
1514899171170532,-1,2,0,0,-1,-1,-1,1
1514899171170532,0,4,0,-1,-2,-2,-1,-2
1514899171172033,-2,2,-1,-1,-1,0,-2,-1
1514899171172033,0,-1,-1,0,0,-2,0,-2
1514899171192559,0,-4,-3,-1,0,-1,-1,0
1514899171192559,-1,2,0,0,-2,-2,-2,1
1514899171195048,-4,-1,0,-2,-2,-1,0,0
1514899171195048,-1,-5,-2,-2,-1,-1,-1,-1
1514899171206559,-2,-1,-2,-2,-1,0,-2,0
1514899171206559,-1,1,-1,-2,1,-1,-1,-2
1514899171213562,0,-1,-2,-1,0,0,0,-1
1514899171213562,2,-3,-3,0,-3,-1,-1,-1
1514899171230572,-2,-1,-2,1,-1,0,1,-2
1514899171230572,0,0,0,0,-2,-1,-3,-2
1514899171232074,-2,-3,-2,-1,-3,-2,-3,-3
1514899171232074,-1,0,-1,0,1,-2,-1,-1
1514899171252088,0,-3,-1,-2,1,-2,0,0
1514899171252088,-1,-1,-1,0,-1,0,0,0
1514899171260114,-1,-2,-1,-2,0,0,0,0
1514899171260114,-1,-3,1,-1,-2,-1,-1,0
1514899171266599,-1,-1,1,1,-1,-2,-2,0
1514899171266599,-1,0,-2,-1,-1,0,-2,0
1514899171273613,-1,-1,-2,-1,0,-1,-2,-2
1514899171273613,-3,-2,-1,0,0,0,-1,-1
1514899171290115,1,4,-1,1,-2,-2,1,0
1514899171290115,-1,1,0,-1,-1,-1,0,-3
1514899171291631,-1,-1,-2,-1,-2,-1,-1,-1
1514899171291631,-1,-5,-3,-2,0,-1,-2,-1
1514899171312632,-1,-2,-2,0,0,-1,0,-2
1514899171312632,0,0,0,-1,0,-2,-1,-1
1514899171314133,0,2,-2,-3,-3,-1,-1,-1
1514899171314133,-2,0,0,-3,-2,-1,-1,-2
1514899171326140,-1,-4,0,-1,0,-1,-1,0
1514899171326140,-1,0,-1,-2,-1,0,0,0
1514899171335146,-1,-2,0,-1,-1,-2,1,-1
1514899171335146,1,-1,-2,0,-2,-2,0,0
1514899171350667,-1,-3,-1,-1,-2,-1,-1,-2
1514899171350667,-6,-2,-2,-1,0,-2,-1,-2
1514899171353160,-1,-1,-2,-1,-2,1,-1,0
1514899171353160,0,0,-1,-2,1,-2,-1,-1
1514899171372174,-1,-1,0,-1,-1,0,-1,1
1514899171372174,0,-1,-2,-1,-1,1,0,0
1514899171374175,0,-1,-2,-1,-2,0,-1,-1
1514899171374175,-2,-5,-3,-1,-2,-3,-3,-2
1514899171386206,-3,1,0,-1,1,-1,-2,1
1514899171386206,-1,-2,1,-2,-1,-1,-1,-1
1514899171395191,-1,-1,-2,0,-1,-2,-1,-3
1514899171395191,0,-5,-2,-1,-2,-2,-1,-1
1514899171410700,-3,-2,-1,0,0,0,0,-1
1514899171410700,-1,0,0,1,-2,-2,-2,-1
1514899171414203,-1,0,-1,-3,-1,0,-1,-2
1514899171414203,-1,3,1,1,0,-2,-1,-1
1514899171439721,-1,1,-2,-3,-2,-1,-2,-1
1514899171439721,0,1,-1,0,-1,1,2,-1
1514899171441223,0,-2,-1,-1,-1,-1,-1,-1
1514899171441223,-1,1,0,-1,-1,0,-1,1
1514899171446226,0,-1,0,0,-2,-1,-2,1
1514899171446226,-1,-3,-1,-2,-1,0,-1,-2
1514899171455231,-1,0,0,0,-1,0,-2,0
1514899171455231,-1,0,-1,-1,0,0,-1,-1
1514899171469743,-1,-3,0,0,1,-2,0,-1
1514899171469743,0,-1,-2,-2,-2,-2,-2,0
1514899171471244,-2,-2,-3,-1,-1,-1,-1,-4
1514899171471244,-2,1,-1,-1,-1,0,0,-1
1514899171492296,-1,-3,-1,-2,-1,-1,0,0
1514899171492296,-1,-1,-1,-1,0,0,-1,-1
1514899171494259,-1,-2,0,-1,-2,-1,-2,-1
1514899171494259,-1,-3,-2,0,-1,-1,0,-1
1514899171505770,-1,0,-2,0,-1,-1,-2,-2
1514899171505770,-1,0,-2,0,-1,-1,-1,0
1514899171516775,0,0,-2,-3,-1,-2,-2,-2
1514899171516775,0,0,-1,0,0,-1,1,-2
1514899171529784,-1,-4,-1,-1,-2,-1,-1,0
1514899171529784,-3,0,-1,-1,-1,-2,-2,-1
1514899171531286,-1,-2,-2,0,-3,-1,-1,-1
1514899171531286,-1,-1,0,-2,0,-1,0,-1
1514899171552301,-3,-2,-2,0,-3,-1,-1,-3
1514899171552301,4,2,0,-1,-1,0,-1,1
1514899171554302,4,1,-1,-1,-1,-1,-2,0
1514899171554302,0,-3,-2,-3,-1,-1,-2,1
1514899171565811,1,0,-1,-2,-1,0,0,-1
1514899171565811,-2,0,-2,-2,-2,-2,0,-2
1514899171575317,-3,0,-1,0,-3,-1,0,-2
1514899171575317,0,-1,-1,-1,-1,-2,-2,-2
1514899171589845,0,1,-1,-3,-1,-1,-2,-1
1514899171589845,-1,0,0,-1,-2,-1,-2,-1
1514899171591828,-2,-1,-2,-1,1,0,0,0
1514899171591828,-2,-3,-1,-1,-2,-1,-1,0
1514899171612354,-1,-1,0,-2,-1,-2,-2,-1
1514899171612354,-1,-2,-1,-1,-1,-2,1,-1
1514899171613851,-3,-2,0,-2,-3,-1,-1,0
1514899171613851,-1,-1,-2,-2,0,-2,0,0
1514899171626352,-1,-2,-2,2,1,0,0,-1
1514899171626352,-2,-2,-3,-1,-3,-1,-1,0
1514899171634861,-1,-2,-2,0,0,-1,0,-2
1514899171634861,1,-1,0,0,-1,-1,-1,-2
1514899171649881,-1,-1,-1,-1,-2,-2,-1,-1
1514899171649881,0,1,-1,-3,1,-2,-1,-1
1514899171651373,-3,0,0,-1,0,-2,-1,-3
1514899171651373,-2,-1,-2,-2,-2,-1,-1,0
1514899171672385,0,-1,-3,0,0,1,-2,-1
1514899171672385,0,-2,-2,-1,-2,0,0,-3
1514899171673887,-1,-1,-1,-2,-1,-1,-2,-1
1514899171673887,-1,0,-1,0,0,0,-1,-2
1514899171685912,0,-1,-2,-2,-1,-2,-1,-2
1514899171685912,-1,-5,-1,-1,-2,-1,-1,-1
1514899171695915,1,3,-2,0,-2,1,-1,0
1514899171695915,-1,-1,-1,0,-1,0,0,0
1514899171709913,-1,-3,-1,-1,-1,0,-2,-1
1514899171709913,-1,0,-1,-1,-1,-1,-1,-1
1514899171712417,0,-2,-1,-2,0,-2,-3,-2
1514899171712417,-1,-2,-2,-1,-3,-2,-1,0
1514899171732428,0,-1,0,0,0,-1,0,-2
1514899171732428,-1,-1,-1,-2,-2,-1,0,0
1514899171733929,-1,-1,-1,-3,-2,-1,-1,-1
1514899171733929,0,-2,-2,-2,-2,-2,-1,-1
1514899171745940,-1,-3,-2,-1,-1,-1,-1,-1
1514899171745940,-2,0,0,0,-1,0,-1,-2
1514899171754945,-2,-1,-2,0,-2,-1,0,-2
1514899171754945,-1,-3,0,-1,-2,1,-3,-1
1514899171769953,-1,-2,-1,-2,0,-2,0,-1
1514899171769953,-1,0,-1,0,-2,-1,-1,-2
1514899171771456,0,0,0,-2,-1,2,0,1
1514899171771456,0,-1,-2,-1,0,0,-1,-2
1514899171792470,-1,0,-1,-1,-1,-2,-1,0
1514899171792470,-1,0,-1,0,0,-1,-2,0
1514899171793971,-2,-2,-1,0,-2,-2,-2,-2
1514899171793971,-3,-1,-2,-2,-2,-1,0,-1
1514899171815987,-1,0,-1,-1,-2,1,-1,-1
1514899171815987,-1,0,0,-2,-2,0,0,-2
1514899171819489,0,-1,0,-2,0,-1,0,-1
1514899171819489,1,-1,-1,-1,0,-1,-1,0
1514899171829997,-1,-2,-1,-2,-1,-2,0,-1
1514899171829997,-2,-2,-2,0,0,0,-2,-2
1514899171831498,-1,-1,-2,-1,0,-1,-1,-1
1514899171831498,-2,-1,-1,0,-1,-1,-2,-1
1514899171860020,-1,-1,-1,-2,-1,-2,-1,-1
1514899171860020,-1,0,-1,-3,-2,0,-1,-1
1514899171861519,0,-1,-1,0,-1,-1,-2,-2
1514899171861519,-1,-2,-1,-1,-1,-1,-1,-1
1514899171875062,-1,0,-2,-1,-1,-1,0,0
1514899171875062,-1,-1,-2,-2,0,-2,0,1
1514899171876531,-2,-1,-3,-1,-3,-1,-2,-1
1514899171876531,-1,-2,-1,-1,-1,0,1,-1
1514899171890562,1,0,-1,-1,-1,-1,-2,0
1514899171890562,-1,0,-1,-1,-1,-1,-1,-1
1514899171892042,-2,-2,0,0,1,-2,-1,1
1514899171892042,0,-2,-1,-1,-2,-3,-1,-2
1514899171912555,-1,0,0,-1,-1,-1,-2,-1
1514899171912555,-1,0,-2,-1,-2,0,-1,-1
1514899171914055,-1,-2,-1,-1,-2,-3,-1,-2
1514899171914055,0,-3,-1,0,-2,0,-2,0
1514899171935070,1,-1,1,1,-1,-1,-2,0
1514899171935070,1,0,-1,-1,0,-2,-2,-2
1514899171936573,-1,0,-2,-3,-1,0,-1,0
1514899171936573,-2,-2,-2,-3,0,-1,0,-1
1514899171949082,-2,-1,-3,-1,-2,-4,2,-1
1514899171949082,-2,-1,0,0,-1,-1,0,-2
1514899171963591,-1,-2,-1,-2,-1,-2,-1,-1
1514899171963591,-2,0,0,-1,-1,-2,0,-2
1514899171972599,-1,0,0,-1,0,0,-2,0
1514899171972599,-2,1,0,-1,-1,1,-1,-1
1514899171974099,-1,-2,-3,-1,-1,0,-2,-2
1514899171974099,0,-2,-2,-2,-2,-2,-2,-1
1514899171995113,-1,0,-2,-1,0,0,0,-1
1514899171995113,-3,-2,-1,-1,-2,-1,0,0
1514899171997615,0,0,-2,0,-1,1,-1,-2
1514899171997615,0,-1,-2,-1,0,-2,-1,0
1514899172008639,-1,0,-1,-1,-2,-2,-1,-2
1514899172008639,-1,-1,-1,-2,-1,1,-1,-1
1514899172017644,-2,0,1,-2,-1,-1,-1,0
1514899172017644,-2,-2,0,-1,-1,-1,-1,-2
1514899172040145,-1,-3,-1,1,-1,-1,0,-1
1514899172040145,-1,-3,0,-1,-1,0,-1,-2
1514899172041647,-2,-2,-1,-1,-1,-3,0,-2
1514899172041647,1,-1,-2,0,0,0,1,0
1514899172054655,-3,-2,-3,-1,0,0,-3,0
1514899172054655,0,0,-1,-1,-1,-1,-2,-1
1514899172056687,-1,0,0,0,0,-2,-2,-1
1514899172056687,-2,-1,0,-2,-1,-3,-3,-1
1514899172069678,-2,-1,0,-4,-1,-1,-2,-1
1514899172069678,-1,-2,-2,-1,-2,-1,-1,-1
1514899172076180,-1,-2,-1,-1,-2,0,-2,0
1514899172076180,0,-3,-1,-1,-1,-2,0,-2
1514899172092184,-1,-1,-1,-1,-2,-1,-1,0
1514899172092184,0,2,-2,-3,-1,-3,-1,-2
1514899172094183,0,-2,-3,-1,-1,-1,-1,0
1514899172094183,-1,-1,-2,0,0,0,-1,0
1514899172114698,-2,0,0,-1,-1,-1,-2,-1
1514899172114698,1,1,1,-1,-2,-1,-1,-1
1514899172116699,-2,-2,-1,0,-1,-1,0,-1
1514899172116699,0,-2,-1,-1,0,-1,-2,0
1514899172129211,-3,-1,-1,-1,0,-2,1,-1
1514899172129211,0,-1,-3,0,0,-1,-2,0
1514899172136212,-1,-1,-1,-1,-2,0,-1,-2
1514899172136212,-1,-1,-1,0,-2,-1,-1,-1
1514899172152233,0,-1,-2,0,0,0,0,-1
1514899172152233,-3,0,-1,-1,-1,0,-2,-2
1514899172154225,-1,-2,0,-1,0,0,-2,-1
1514899172154225,-2,-3,-1,0,0,-2,-1,0
1514899172174800,-1,-1,-1,-2,-2,-2,-1,-1
1514899172174800,0,0,-1,-1,0,1,-2,-2
1514899172176292,0,-1,-2,-2,-2,-3,-1,-2
1514899172176292,-1,1,0,-1,0,-1,-1,-2
1514899172189315,0,0,1,-1,-1,-1,-2,-1
1514899172189315,-1,-1,-1,0,-2,-1,-1,-1
1514899172203311,-1,-1,-1,-2,0,-1,-2,-2
1514899172203311,-2,-1,-1,-2,-1,-1,-1,-2
1514899172212319,-2,-1,-3,1,-1,0,-1,-1
1514899172212319,-2,-1,-1,0,0,-1,0,-1
1514899172215821,-2,0,-2,-1,-3,0,0,-3
1514899172215821,-1,-2,-2,0,-2,-1,-3,0
1514899172234845,0,-1,-2,-1,-1,-2,0,-2
1514899172234845,0,0,1,-2,-2,-3,-2,0
1514899172236347,-2,-2,-1,0,0,-1,-1,0
1514899172236347,-2,0,-2,0,0,-1,0,-1
1514899172248843,-2,0,1,-1,-1,-1,-2,-1
1514899172248843,-1,-1,-1,-1,-1,1,0,0
1514899172257350,-1,-2,0,-2,0,-2,0,-1
1514899172257350,0,-2,-2,-1,-1,1,-1,-1
1514899172272369,0,0,0,-1,-2,0,0,-1
1514899172272369,-2,-1,-2,-1,-1,-1,-1,-2
1514899172273860,-1,-2,-1,-1,-1,-2,-1,0
1514899172273860,-1,-1,-1,0,-1,-1,-2,1
1514899172294876,-1,-2,-1,0,0,0,0,-1
1514899172294876,-2,0,-2,-2,-1,-1,0,-2
1514899172297376,-1,0,0,-3,-1,-1,-1,0
1514899172297376,-1,-2,-2,-2,-2,-1,1,-1
1514899172308385,-1,-1,-2,-2,-1,-1,-1,-2
1514899172308385,-2,-1,-2,-1,1,-2,-1,0
1514899172319893,-1,-2,-3,0,-1,1,-3,-2
1514899172319893,-2,-1,-2,-1,1,-1,-1,-1
1514899172332414,-1,-5,-4,-3,-2,0,-2,-1
1514899172332414,-3,0,-2,-2,-1,-1,-1,-1
1514899172333904,-1,0,-1,0,-2,-2,-1,-1
1514899172333904,0,-2,0,0,-2,-2,-2,-2
1514899172355918,-2,0,-2,0,0,-1,-1,0
1514899172355918,0,-1,-1,-2,-2,-2,-1,-3
1514899172357929,-1,-1,-3,-1,0,-1,-1,-3
1514899172357929,-1,-1,-2,-1,-2,-1,-2,-1
1514899172368427,-2,0,-1,-2,-1,-2,-1,1
1514899172368427,-2,-1,-2,-2,0,-1,1,0
1514899172377434,0,-2,0,0,-1,-1,-1,-1
1514899172377434,0,-2,-1,-1,-1,-1,-1,-2
1514899172392448,-1,0,0,-1,-2,-1,0,-2
1514899172392448,-2,0,-2,-1,0,-1,-1,-1
1514899172393947,-2,-3,-1,-3,0,-2,-2,-1
1514899172393947,-2,-2,-1,0,0,-1,-1,-1
1514899172415974,-2,-1,-2,1,-1,0,-1,0
1514899172415974,-2,-2,-1,0,-2,0,-1,-2
1514899172419476,-2,-1,-1,-1,-1,-2,-1,0
1514899172419476,1,-1,0,-2,0,-2,-2,0
1514899172428471,-1,2,0,0,2,-1,0,-2
1514899172428471,-1,0,-2,0,-1,1,-1,-2
1514899172437486,0,-1,-2,0,-2,0,0,-2
1514899172437486,-3,-1,0,-1,-1,0,0,1
1514899172452496,0,-2,-2,-2,-2,0,0,0
1514899172452496,1,-1,0,0,1,0,-1,-1
1514899172453988,-2,-2,0,-1,-1,-1,-3,-1
1514899172453988,0,-4,-1,-2,-2,0,0,-2
1514899172482008,0,0,-2,-1,-1,0,1,-1
1514899172482008,-2,0,-1,-1,-2,-1,-1,-2
1514899172489022,-2,-2,-2,-1,-1,-2,0,0
1514899172489022,-1,-2,-1,-1,-2,-3,1,-1
1514899172490015,-1,-2,-1,-3,0,-2,-2,-1
1514899172490015,-1,-1,0,0,-1,-1,0,-2
1514899172497519,0,-1,-1,-2,0,-1,-1,0
1514899172497519,-2,-2,-1,0,-1,-3,-3,-2
1514899172520535,0,0,-2,-3,-2,0,-1,-1
1514899172520535,-2,-1,-2,-2,-3,0,-1,-1
1514899172523036,-1,-2,-1,-1,-1,0,-2,-2
1514899172523036,-1,-4,0,-1,-2,0,0,0
1514899172535045,-1,1,-2,-1,1,-3,-2,0
1514899172535045,-2,-1,-1,-1,-1,0,-1,0
1514899172536546,-1,-1,-1,-1,-1,-2,-1,0
1514899172536546,-1,0,0,0,-1,0,-3,-1
1514899172548554,0,3,1,0,0,1,-2,-2
1514899172548554,1,0,0,-1,-2,-3,-2,-3
1514899172557574,-1,-1,0,0,-2,1,-1,-1
1514899172557574,-1,-1,-1,-2,1,-1,0,0
1514899172573131,-1,-4,-1,0,-2,0,-1,-1
1514899172573131,-2,-1,0,-2,-1,0,-1,-1
1514899172574634,0,0,-1,-1,-1,-1,0,-1
1514899172574634,-2,-2,-2,-2,-2,-3,-1,0
1514899172595134,-1,-2,-2,-1,0,-1,-2,0
1514899172595134,0,-2,-1,-1,-1,1,-2,1
1514899172597137,-2,-1,-1,-1,0,0,0,0
1514899172597137,0,-2,0,-1,-2,0,0,0
1514899172608646,-1,-1,-1,0,-1,-1,-1,-3
1514899172608646,-3,-1,-2,-1,0,-2,-2,-2
1514899172617650,-1,-4,-3,0,-2,-2,0,0
1514899172617650,-1,-1,-1,-2,0,-1,-1,-2
1514899172632160,-1,-2,-2,-2,-2,0,-1,-1
1514899172632160,-1,1,-2,-1,-2,-2,-1,-1
1514899172634162,1,-2,-2,-2,0,0,-2,0
1514899172634162,-1,3,1,0,-1,1,-1,-1
1514899172654693,-1,-1,-1,0,-1,-2,0,-1
1514899172654693,-1,0,-2,-2,-1,-1,-1,0
1514899172656694,-1,-2,-2,-2,-1,-1,0,-1
1514899172656694,0,-3,-2,-1,-2,-1,0,-3
1514899172668688,0,0,1,-1,-1,0,0,1
1514899172668688,-1,1,-1,0,-2,0,-1,-1
1514899172677704,-2,1,0,0,-1,-2,-2,0
1514899172677704,-1,-3,-2,-1,-2,-1,-2,1
1514899172692707,-2,-1,-2,-3,-2,-1,-2,-1
1514899172692707,-1,-1,-2,-2,0,-1,0,0
1514899172694204,-1,-2,0,-2,-1,-2,0,-2
1514899172694204,-1,-2,-2,0,1,-2,0,-1
1514899172715221,-3,-2,-1,-2,-4,-3,0,-3
1514899172715221,-2,1,0,0,-1,-1,-2,0
1514899172716725,1,0,-3,-2,0,-1,-2,-2
1514899172716725,1,3,0,0,-1,-1,0,1
1514899172737735,1,-2,1,-1,0,-1,-2,-1
1514899172737735,-1,-2,-3,-1,0,0,0,-2
1514899172739237,-2,-2,-2,-1,-1,-2,0,-3
1514899172739237,-1,-2,-3,-2,-1,-2,-3,-1
1514899172752749,0,-1,-1,-2,0,-2,-1,-2
1514899172752749,-2,-2,1,-1,-2,-2,0,-1
1514899172754249,-1,-1,-1,0,-1,0,-1,0
1514899172754249,-1,-4,-2,-1,0,-1,-2,0
1514899172775261,-1,1,0,0,-1,-1,-1,-1
1514899172775261,-1,1,-2,-1,-1,0,-2,-1
1514899172777263,-1,-2,-1,0,-2,-1,-2,0
1514899172777263,0,-3,-1,0,-2,-2,0,-3
1514899172797778,-1,-1,-1,-3,-1,-3,-1,-1
1514899172797778,-1,-1,0,0,0,-1,-2,-1
1514899172799280,0,-2,-1,0,-1,-2,-3,1
1514899172799280,-2,-6,-4,-3,-1,-1,-4,-2
1514899172812287,1,0,-3,1,-2,-1,-2,-2
1514899172812287,-1,0,-2,-1,-2,-1,0,-1
1514899172813788,-1,-1,-2,-1,-1,-1,-1,-1
1514899172813788,-1,-3,-1,0,-2,0,0,1
1514899172835305,-1,1,-1,-1,0,-1,-2,-1
1514899172835305,0,-1,-1,-1,-2,-1,-2,-2
1514899172838810,-1,-3,0,-1,0,0,-1,-3
1514899172838810,-2,-1,-1,-1,-2,-1,-1,0
1514899172858822,-1,1,-3,-2,-1,1,0,-1
1514899172858822,0,0,-1,-1,0,-1,-1,-1
1514899172859821,-2,0,-1,-1,0,-1,0,-1
1514899172859821,0,-1,1,-2,-2,-3,-1,-1
1514899172872341,0,-1,-1,0,-2,-1,0,1
1514899172872341,-3,-1,-1,-3,-1,-2,-2,-1
1514899172878836,-1,-1,-2,-2,-2,-1,-2,-2
1514899172878836,0,-4,-3,0,1,-2,0,-2
1514899172902853,0,2,0,-2,-1,1,-1,0
1514899172902853,-2,-1,-3,-2,-2,-2,1,-1
1514899172903856,0,-1,1,-1,-1,-2,-2,-2
1514899172903856,0,-1,0,-2,-1,-1,-2,0
1514899172917365,-2,-2,-2,-2,-3,-1,-1,-3
1514899172917365,-1,0,0,0,-2,0,-2,-1
1514899172919369,-1,-2,-2,-2,0,-2,-1,0
1514899172919369,-1,-1,-1,-1,-1,-1,-1,-1
1514899172931877,-3,-2,-1,0,-1,-1,1,-2
1514899172931877,-3,0,0,-1,-1,1,0,-1
1514899172938377,0,0,-1,-2,-2,1,1,-2
1514899172938377,-1,-1,-1,0,-1,0,-1,0
1514899172954888,-3,-1,-1,-2,-2,-3,-2,-2
1514899172954888,-2,-1,-2,-3,-2,-3,-1,-1
1514899172956389,-1,-1,-1,0,-1,-3,-2,-1
1514899172956389,-1,-2,-1,-1,0,1,-1,-3
1514899172977404,-2,-1,1,-2,-1,-1,-1,-1
1514899172977404,0,-1,0,-2,-2,0,-1,-1
1514899172978905,0,3,2,1,-1,-1,-1,0
1514899172978905,-2,0,-2,0,-3,-1,0,-1
1514899172991915,-1,-2,-4,-1,-2,0,0,-1
1514899172991915,0,0,-2,-2,-1,-2,1,-1
1514899172998924,-1,-3,-1,-1,-1,-2,-1,-1
1514899172998924,-1,-1,-2,-1,0,-1,-2,0
1514899173014936,0,-1,-1,1,0,0,-1,1
1514899173014936,-2,-1,-2,-1,-2,-2,-2,0
1514899173016432,-1,-1,-1,-3,-2,-1,-1,-2
1514899173016432,-1,-1,-2,-1,-1,-3,1,0
1514899173037448,-2,-7,-4,-3,-1,-2,0,-1
1514899173037448,1,0,-1,-1,-1,0,0,0
1514899173038947,-2,-3,-2,1,-3,-1,-2,-3
1514899173038947,-1,-2,-1,-1,0,0,-2,-2
1514899173051962,-2,-1,-1,-1,-2,-2,0,-1
1514899173051962,-3,1,-2,-1,-1,-1,0,-2
1514899173058965,-1,-1,-1,-2,-2,-1,0,0
1514899173058965,-1,-2,0,-1,-1,-1,1,0
1514899173074976,0,1,-1,0,-1,-2,0,1
1514899173074976,1,-2,-2,-1,0,0,-1,-2
1514899173076475,0,-3,-1,-1,-2,-1,-2,-1
1514899173076475,0,-2,-2,-1,0,-1,-2,-2
1514899173104999,-2,-1,-1,0,-1,0,-1,-1
1514899173104999,-2,-1,0,-2,0,-1,-2,-2
1514899173106496,-2,-2,-2,-3,-1,-1,0,0
1514899173106496,0,-1,0,-1,0,0,-1,-1
1514899173112000,0,-1,-1,-2,0,0,-2,-2
1514899173112000,0,-1,-2,0,-1,0,0,-1
1514899173118509,-2,-4,-2,-1,0,-2,-2,2
1514899173118509,-2,2,0,0,-1,1,1,1
1514899173136017,0,1,-1,0,-1,0,-2,0
1514899173136017,-1,0,-1,-1,-1,-1,0,-2
1514899173137018,-1,-2,-1,-1,-1,-2,-1,-1
1514899173137018,-1,-3,1,-2,-1,-2,-2,-1
1514899173157032,-1,-2,-1,-1,-2,-1,-3,-2
1514899173157032,0,0,-1,0,-3,0,-1,-1
1514899173159033,-2,-1,-2,-1,-1,0,-1,-1
1514899173159033,0,-2,-2,-2,1,-2,-1,-1
1514899173171541,-2,0,0,-1,-1,-3,-1,-2
1514899173171541,-1,-2,-2,-2,-1,-2,-1,-2
1514899173178546,1,0,-2,-2,-1,1,0,-1
1514899173178546,-1,0,-2,-1,-2,0,-1,-1
1514899173195058,-1,0,-1,0,-1,-2,-2,0
1514899173195058,-3,-1,-2,-2,-1,-1,-1,-3
1514899173197561,0,-2,-3,-1,-1,-1,-1,-1
1514899173197561,-1,-2,-2,-1,-2,0,-1,-1
1514899173218087,-2,-1,-3,-2,-1,-2,0,-1
1514899173218087,-1,5,3,-1,-2,0,0,0
1514899173221586,0,-2,-1,-1,-2,-1,0,-1
1514899173221586,-1,-3,-1,0,-2,-2,-1,-1
1514899173231093,-1,-3,-1,1,-2,-1,-1,-1
1514899173231093,-1,-1,-3,-1,-2,-2,-2,-1
1514899173240091,-2,-3,-1,-3,-1,-1,-1,-2
1514899173240091,-2,-2,-1,-1,1,-2,1,0
1514899173255103,-1,0,-2,-2,0,-2,-1,-1
1514899173255103,-1,-1,-1,-2,0,-3,-1,0
1514899173258102,-2,-1,-1,-1,-1,-2,0,-1
1514899173258102,-1,-1,-2,0,-2,0,-2,-1
1514899173277134,0,0,0,-1,-3,-1,-2,-2
1514899173277134,-1,-2,-3,-1,-1,-1,-1,-1
1514899173279136,-1,-3,-2,0,-1,-1,-1,-1
1514899173279136,1,-2,-1,-2,-1,-1,-1,0
1514899173291143,-1,-3,-1,-1,0,2,0,-1
1514899173291143,-3,-8,-6,-1,-1,-1,-1,-2
1514899173300153,-1,-1,-1,-1,0,-1,-1,-1
1514899173300153,-1,-1,0,0,0,-1,-1,-1
1514899173322165,0,0,-1,-1,-2,-2,-2,-2
1514899173322165,-2,-3,0,-3,-2,0,-2,-1
1514899173324167,-2,0,-1,-1,0,0,-2,0
1514899173324167,-1,-4,0,0,-2,-2,-1,-2
1514899173338177,-2,-1,-2,-1,-1,1,-1,-1
1514899173338177,-1,1,-1,0,-3,-1,-1,-1
1514899173339678,-1,-1,0,-1,-1,-2,-2,-2
1514899173339678,-2,0,0,-1,0,0,-2,-1
1514899173351196,0,0,-1,-1,-2,-2,0,-3
1514899173351196,0,1,-2,-1,-1,-1,-1,-1
1514899173360205,0,0,-1,-3,0,-1,-1,0
1514899173360205,0,-1,0,0,-1,-3,-1,0
1514899173374703,0,-2,-2,2,-1,-2,-1,0
1514899173374703,-1,5,3,-1,0,-1,1,2
1514899173376704,-2,-2,-1,-1,-2,1,-1,-2
1514899173376704,0,-2,-1,-2,-1,-1,-2,0
1514899173397219,-2,0,-2,-3,-1,0,0,0
1514899173397219,-1,-2,-2,0,-1,-1,-2,-2
1514899173399220,-1,-1,-1,-1,-1,-3,-2,0
1514899173399220,1,-2,-2,-1,-1,-1,-1,-2
1514899173420244,-1,0,-1,-1,-1,-1,1,-1
1514899173420244,0,-1,-2,-2,0,-1,-1,-2
1514899173421746,0,-1,-1,0,-2,-1,-1,-1
1514899173421746,0,-2,-4,-2,-2,-2,-1,-1
1514899173434754,-2,0,-3,-2,0,-1,-1,-2
1514899173434754,-3,-1,-1,-1,-1,0,0,-1
1514899173436246,2,-1,0,1,-1,0,0,1
1514899173436246,-2,0,-1,0,0,0,0,-3
1514899173457271,-1,-2,-1,-2,1,-1,0,0
1514899173457271,-2,0,-3,-1,0,-2,0,-2
1514899173458777,-1,-2,-1,-3,-1,-2,-1,-2
1514899173458777,-2,0,-1,-1,-1,0,-1,-1
1514899173479793,-1,1,0,-2,-1,0,-2,-1
1514899173479793,-1,-2,-2,-1,-1,0,-1,-1
1514899173481284,-2,-4,-2,0,-1,1,-1,-1
1514899173481284,1,-1,0,-2,-1,-2,-1,0
1514899173494802,-1,2,0,-2,-2,0,-2,0
1514899173494802,0,-1,-1,-2,-1,-1,0,-2
1514899173497291,-1,-3,0,0,0,-2,0,-1
1514899173497291,-1,2,2,0,-1,-1,0,1
1514899173518805,-1,-3,-2,1,-1,-1,0,-1
1514899173518805,0,-3,0,-2,-1,-2,-1,0
1514899173520305,-1,-2,-1,-1,-2,-1,0,-2
1514899173520305,-1,-3,-3,-1,0,-1,-1,-1
1514899173530814,-4,-1,0,-2,0,-1,0,-1
1514899173530814,-2,1,-1,-1,-1,0,-1,-1
1514899173540829,-1,-1,-1,0,-2,0,-2,-1
1514899173540829,1,-4,-2,-1,-1,-2,0,-2
1514899173554840,-1,0,0,-2,0,0,-1,-1
1514899173554840,0,-1,-2,-1,-1,-3,-2,-1
1514899173556331,-2,-2,-1,0,-1,-1,0,0
1514899173556331,-3,-1,-1,0,-2,0,0,0
1514899173577345,0,-4,-3,-2,-1,0,-2,-1
1514899173577345,0,-1,-2,-2,-3,-1,-1,-1
1514899173578847,0,-1,0,0,0,-3,-2,-3
1514899173578847,-2,1,-2,0,-1,-1,0,0
1514899173590856,-1,-1,0,-2,-1,0,-1,-1
1514899173590856,0,-1,-1,-1,-2,-2,-1,0
1514899173599861,-3,-1,0,-2,0,1,0,0
1514899173599861,-2,-2,-3,-1,0,-2,-1,0
1514899173615373,-1,0,-1,0,-2,0,-1,-2
1514899173615373,-4,-16,-6,-1,-2,-3,0,-4
1514899173616875,-1,1,-1,-2,0,-2,-1,-1
1514899173616875,-2,1,0,-1,-2,-2,0,1
1514899173636387,-1,0,0,-1,-2,-3,-1,-1
1514899173636387,-1,1,0,-2,-1,-2,0,-2
1514899173637388,-1,-1,-2,-2,-2,0,-2,-2
1514899173637388,-1,5,3,-1,-1,0,0,-1
1514899173659931,-2,-2,-2,-1,0,-1,-1,1
1514899173659931,-1,2,0,-1,-1,0,-1,0
1514899173661432,1,0,-1,-1,0,-1,-1,-1
1514899173661432,0,-1,-2,-1,-3,-1,0,-1
1514899173673925,0,0,-1,0,-3,-2,-1,-1
1514899173673925,1,1,-1,-1,-2,0,1,-1
1514899173674915,-1,-1,-1,-1,-2,-1,-3,-1
1514899173674915,-3,-4,-2,-2,0,-1,-1,-1
1514899173696942,-1,1,-1,-1,0,0,-1,-1
1514899173696942,0,0,-1,-2,-1,-1,-1,-1
1514899173697431,-1,-2,0,-1,-2,0,-1,-1
1514899173697431,0,-3,0,-1,-2,-2,-1,-2
1514899173719446,1,-1,-1,-1,-2,-1,-1,-1
1514899173719446,0,0,0,-2,0,0,-2,-2
1514899173720447,-2,-1,-2,-1,0,-2,0,0
1514899173720447,-2,-8,-3,-1,-1,-1,0,-1
1514899173733956,2,15,4,0,0,0,1,0
1514899173733956,-1,0,-1,-1,-1,-1,-2,-2
1514899173734973,0,-2,-2,0,-1,-1,-1,-2
1514899173734973,1,-1,0,-1,-1,-1,-1,-2
1514899173757473,-2,-5,-2,-2,-1,-1,-3,-1
1514899173757473,-2,0,-2,-1,0,0,-1,-2
1514899173757974,0,1,0,0,0,0,-1,0
1514899173757974,0,0,0,0,0,-1,-1,-1
1514899173779990,-2,-4,-1,0,-3,-2,0,0
1514899173779990,-1,1,-1,0,-1,-1,0,-1
1514899173787494,-1,-4,-2,-1,-1,-3,-2,0
1514899173787494,-1,-2,-1,-1,-1,-2,-2,-1
1514899173794008,-1,4,2,-1,-1,-1,0,-2
1514899173794008,0,-1,-1,0,-1,0,-1,0
1514899173801514,0,-2,-1,-3,-1,-1,0,-1
1514899173801514,-3,-10,-4,-2,-1,-2,0,-3
1514899173817515,-4,-3,1,-2,-1,0,-2,-2
1514899173817515,0,-2,-1,-1,-1,-3,-2,0
1514899173819517,1,1,1,0,-3,0,-1,0
1514899173819517,-1,2,0,-1,1,0,-1,0
1514899173839030,-2,-4,-2,-1,-1,0,0,-2
1514899173839030,-1,0,-1,-1,-1,-2,0,-2
1514899173840031,-3,-5,-1,-2,-1,1,-2,0
1514899173840031,1,1,0,-1,-3,-2,-1,0
1514899173862547,-1,-2,-3,-2,-1,0,0,-2
1514899173862547,-3,-3,0,0,-1,0,-3,1
1514899173863048,1,4,1,0,0,1,1,-1
1514899173863048,-2,0,-2,0,-2,1,-2,0
1514899173876557,1,0,-2,-1,-1,-2,-1,-1
1514899173876557,-2,-2,-2,-2,-2,-2,-1,1
1514899173877558,-1,-4,-3,-1,0,-1,-1,-2
1514899173877558,-4,1,3,0,-1,-1,-1,0
1514899173899077,2,9,2,1,-2,-1,-2,-1
1514899173899077,-1,1,-1,0,-2,-1,-2,-1
1514899173900074,-1,-2,0,-1,-3,-2,0,0
1514899173900074,1,0,-2,-4,1,0,-1,0
1514899173914084,-2,-5,-3,0,0,-1,-3,-2
1514899173914084,-2,-1,0,-2,0,0,-2,-1
1514899173915085,0,2,-2,-1,0,-2,0,-2
1514899173915085,-1,1,-2,-1,-2,-1,0,-1
1514899173936609,-1,-1,-2,-3,-2,0,0,-1
1514899173936609,0,-1,-2,-1,0,-2,0,-3
1514899173937612,-2,-4,-3,0,0,-2,-1,-1
1514899173937612,0,-1,1,-1,-1,0,-1,-1
1514899173959616,-5,-1,-2,0,0,-2,0,-2
1514899173959616,0,-2,-1,0,-2,0,0,-1
1514899173960116,-1,-3,-1,-2,-1,-2,0,-1
1514899173960116,-4,2,2,0,-2,-2,-1,1
1514899173975627,0,-3,-1,-2,-1,-2,0,0
1514899173975627,0,0,1,0,-1,-1,-2,-1
1514899173976639,-5,-12,-5,-1,-1,-2,-3,-3
1514899173976639,1,2,-2,-1,-1,0,0,-1
1514899173997147,0,-3,-2,-1,-3,-2,-1,-3
1514899173997147,-3,-1,0,-1,-1,-1,-1,-2
1514899173997644,-1,-3,-1,-1,-2,-3,-2,0
1514899173997644,-2,-3,-2,0,-1,-2,-2,-1
1514899174019158,-2,-2,-3,-2,0,0,-2,0
1514899174019158,-1,0,-1,-1,-1,-3,-1,-2
1514899174020159,0,1,1,1,-2,-2,0,0
1514899174020159,1,-2,-2,-1,0,-2,-1,-1
1514899174034186,-4,0,-2,0,-1,-1,-2,-3
1514899174034186,-2,-4,-1,-1,-2,0,1,-1
1514899174035187,0,-1,0,-1,0,-2,0,-1
1514899174035187,0,0,-1,-1,-2,1,-1,-1
1514899174057185,0,0,0,-1,-1,1,-1,-1
1514899174057185,0,0,-2,-3,0,-1,-1,-1
1514899174058187,0,2,-1,-1,-1,-1,-1,0
1514899174058187,0,-2,-1,-3,-1,-1,-1,-2
1514899174079210,-1,-1,-2,0,-1,-1,-2,-1
1514899174079210,-1,-1,0,-1,-1,0,-2,-1
1514899174080204,1,2,0,0,-2,2,-1,0
1514899174080204,-1,1,-2,-1,0,-1,0,-2
1514899174094220,-1,1,0,-1,-1,-2,-2,0
1514899174094220,-1,-6,-2,0,-1,-3,-2,-1
1514899174094711,2,13,4,1,0,-1,-1,-1
1514899174094711,-1,-2,-1,-2,-2,0,-2,-1
1514899174117228,-1,-2,0,-1,-1,-1,1,-2
1514899174117228,-3,-3,-3,-2,-1,-1,0,0
1514899174118228,-2,-5,-3,-1,0,0,-1,-1
1514899174118228,-1,-1,-1,1,0,-2,1,-1
1514899174139256,-3,4,1,0,-1,-1,1,-2
1514899174139256,-1,0,-1,-1,-2,-1,1,1
1514899174139750,-1,-4,-1,-3,-2,0,0,0
1514899174139750,-2,0,-1,-2,-1,-1,-3,-1
1514899174154266,-4,-2,0,-1,0,-2,-1,0
1514899174154266,0,1,-1,-3,-3,-1,-2,-2
1514899174154754,-2,-4,-2,-1,0,-1,-1,-1
1514899174154754,-1,-2,-1,0,-1,-1,-1,0
1514899174176770,1,-2,-1,0,-2,-1,-2,-2
1514899174176770,0,0,0,0,0,-1,-1,0
1514899174177270,-2,-1,-1,-1,0,0,0,-1
1514899174177270,-1,0,0,-1,-1,-1,0,-3
1514899174199295,-3,-8,-4,-2,-1,-1,-1,-2
1514899174199295,1,1,-3,0,0,-1,0,-2
1514899174199785,-1,-6,-1,-2,-2,-1,-2,1
1514899174199785,-1,2,-1,-1,-3,-1,-2,0
1514899174217299,-1,-1,-1,-2,-1,1,-2,-1
1514899174217299,-1,-3,-2,-1,0,0,1,-1
1514899174219300,-3,7,2,1,1,0,-1,-1
1514899174219300,-3,-3,-2,-1,-2,1,-2,-2
1514899174237312,2,0,-3,-2,-3,0,-3,1
1514899174237312,0,1,1,-1,0,-1,-1,1
1514899174238313,0,-5,-2,0,-1,-3,0,-1
1514899174238313,-3,-2,-1,-1,0,-2,-1,0
1514899174259328,0,1,-2,-2,0,-1,0,0
1514899174259328,-2,-2,-1,-2,-2,-1,0,-2
1514899174259828,0,-3,-3,-2,-1,-1,0,-1
1514899174259828,0,-2,-2,-1,-2,0,-1,0
1514899174282386,-1,-2,-1,-1,0,0,-1,-2
1514899174282386,-2,-1,-2,-3,-2,-1,-2,-1
1514899174282877,0,-6,-3,-1,-3,0,-1,0
1514899174282877,-1,4,1,0,0,-1,0,-1
1514899174296399,-1,-1,-1,-1,0,0,-1,0
1514899174296399,0,-1,1,0,-1,-2,-2,0
1514899174297392,-5,-2,-2,-1,-1,-2,-2,-4
1514899174297392,0,-2,-2,0,0,-1,0,-2
1514899174318901,-1,1,-1,-1,-1,-1,-1,-2
1514899174318901,-2,0,-1,0,0,0,-1,-1
1514899174319903,-3,1,1,0,-1,-1,0,-1
1514899174319903,1,1,-1,-1,-1,-1,-2,0
1514899174333412,-1,-1,0,-2,-3,0,0,-1
1514899174333412,3,13,3,0,-1,0,-1,1
1514899174341927,1,-2,-1,-2,0,-1,0,-1
1514899174341927,-1,-1,-2,-2,-2,-1,-1,-1
1514899174356449,1,-3,-1,0,-1,0,-2,0
1514899174356449,-1,-6,-3,-2,-1,-3,0,-2
1514899174357430,-2,-2,-2,-2,-2,-1,-1,1
1514899174357430,0,3,1,0,1,-3,-1,0
1514899174378974,-1,-4,-4,-2,-2,-1,-2,-2
1514899174378974,0,-5,-1,-2,-1,-1,-1,0
1514899174379962,-1,-2,0,0,-1,-1,-1,-3
1514899174379962,-3,-6,-3,0,-1,1,-1,-2
1514899174393454,-1,1,0,0,0,-2,-1,1
1514899174393454,-2,-4,-1,-1,-2,1,-3,-1
1514899174401961,1,-2,-1,-1,-2,-3,-1,1
1514899174401961,0,-2,1,-2,-2,1,-2,-3
1514899174417484,-2,-1,0,-1,1,0,-1,-3
1514899174417484,-1,1,-1,-2,-1,-3,0,-2
1514899174419484,-2,-1,-2,-1,0,-1,-2,-1
1514899174419484,-3,-1,-3,-2,-1,1,-2,-1
1514899174438986,0,1,-1,-1,0,-2,0,-1
1514899174438986,-1,-3,-1,0,-3,-1,-1,-1
1514899174439988,-1,-3,-2,-1,-1,0,-1,-3
1514899174439988,1,0,-1,0,0,-3,0,0
1514899174453500,-1,-1,0,-1,-1,-1,0,0
1514899174453500,-2,-2,-2,-1,-1,-2,-1,0
1514899174461505,0,-2,1,-1,-2,-3,-1,-2
1514899174461505,-1,-2,0,-2,-2,-2,-1,0
1514899174476514,-1,0,-1,-3,0,-1,-1,-1
1514899174476514,-1,-1,-1,-1,0,0,0,-2
1514899174477514,2,9,3,-1,1,1,1,0
1514899174477514,-2,-3,-1,-1,-1,1,-2,-1
1514899174499041,-2,-2,-2,0,-2,-3,0,-2
1514899174499041,-2,-5,-3,-3,-1,0,-1,-1
1514899174500030,-1,-7,-2,-2,0,-1,-1,-2
1514899174500030,2,-1,-1,-2,0,-2,-1,0
1514899174513541,-1,3,0,-1,-1,0,-2,-1
1514899174513541,-1,0,-1,-2,-2,-1,-2,-1
1514899174521544,-1,-4,-2,-1,-3,-1,-3,-1
1514899174521544,-3,-2,-2,-1,0,-3,-1,0
1514899174536555,-2,0,-1,-1,-3,-3,0,-2
1514899174536555,0,-2,-1,0,-1,-3,-2,0
1514899174537558,-1,-3,-2,-2,-1,-1,-2,0
1514899174537558,-2,-1,-2,-2,-1,0,-1,-3
1514899174559080,0,-1,-1,-1,-1,0,-1,-2
1514899174559080,-3,-1,0,-1,0,0,-1,-1
1514899174560072,0,-2,-2,0,-1,0,0,-1
1514899174560072,-1,0,0,-1,-1,1,0,0
1514899174573581,-2,-1,-1,-3,-1,-1,-1,0
1514899174573581,-1,-3,-1,-1,-1,-1,-1,0
1514899174589107,-2,-4,-2,-2,0,-2,0,0
1514899174589107,-2,-2,-1,-1,-1,-2,0,-1
1514899174605103,2,-2,0,-2,1,-2,-2,-1
1514899174605103,0,-4,-1,-1,-2,-1,0,-2
1514899174605604,-1,0,-3,-4,-2,-1,-1,-1
1514899174605604,-1,1,-1,1,-2,0,-1,-3
1514899174619113,0,1,0,0,-1,0,-1,-2
1514899174619113,-1,-1,0,1,1,-4,-1,0
1514899174620114,-2,-4,0,1,0,-2,-2,-1
1514899174620114,1,-1,-1,-1,-1,-1,0,-1
1514899174643632,-6,0,0,1,0,1,0,-1
1514899174643632,-1,-1,-2,-3,0,-2,-1,-2
1514899174644631,-2,-2,-1,-1,-2,-2,-1,-1
1514899174644631,-1,-1,-1,-1,-1,-1,-2,0
1514899174656642,0,-1,0,0,-1,-1,-2,-2
1514899174656642,0,0,0,-1,0,0,0,-1
1514899174657141,-2,0,-1,-2,-2,0,-1,0
1514899174657141,-1,-1,-2,-2,-1,-2,0,-1
1514899174679156,0,0,-2,-3,-1,-2,-1,0
1514899174679156,1,-2,0,0,-1,0,-1,-2
1514899174679657,1,-1,-1,-1,0,-1,-2,-2
1514899174679657,-1,0,-1,-1,-1,-1,-2,-1
1514899174702172,-1,-6,-4,-1,-2,-1,-2,-1
1514899174702172,0,-2,-1,-1,0,-1,0,-2
1514899174703173,-1,-2,-2,-3,-1,0,0,-1
1514899174703173,-2,0,-1,-2,-2,-2,-1,-1
1514899174717196,-2,1,0,-2,-1,0,-1,0
1514899174717196,-1,0,-1,0,-2,0,-1,-1
1514899174719185,0,-2,0,0,-2,-1,-1,0
1514899174719185,0,0,-1,-2,-2,-2,-1,-2
1514899174739698,-2,2,-2,-1,-2,-1,-1,-1
1514899174739698,0,-1,-1,-1,-1,-2,0,0
1514899174740709,-4,-1,1,0,0,0,-1,-2
1514899174740709,-1,-3,2,-1,0,-1,-2,-2
1514899174762215,0,1,-1,-1,-2,-1,-2,-1
1514899174762215,-1,-1,-1,0,0,-1,-1,0
1514899174763217,0,-1,-2,0,0,-2,0,0
1514899174763217,0,0,1,0,-2,-1,-1,-1
1514899174776725,-2,1,-1,0,-2,-2,2,-3
1514899174776725,-1,-1,-2,-4,-2,-1,-2,0
1514899174777225,1,-3,1,0,0,-1,0,0
1514899174777225,-1,-2,0,-1,-1,-2,0,-2
1514899174807747,0,0,0,-1,0,1,0,-1
1514899174807747,0,-1,-1,-1,-3,-2,-2,-1
1514899174809763,0,-1,-3,0,-1,-1,-2,-1
1514899174809763,0,0,-2,-2,-1,-1,0,1
1514899174822257,-1,-1,-2,-1,-1,-1,-2,-1
1514899174822257,-2,-3,-2,0,-1,0,-1,-1
1514899174823258,-1,-2,-1,-1,0,0,0,-1
1514899174823258,-2,1,-2,0,-1,0,-2,-2
1514899174836777,-1,0,0,-2,0,-1,-1,-1
1514899174836777,-1,-4,-2,-2,-1,0,-1,0
1514899174837267,1,-2,-1,-1,0,-1,0,-1
1514899174837267,-1,-1,-2,0,0,-1,-1,0
1514899174859295,0,0,0,0,0,0,-1,-2
1514899174859295,-2,-1,-1,-2,-2,0,-2,-3
1514899174860785,-1,-1,-1,-1,-1,-1,-1,-2
1514899174860785,1,-2,-2,-1,-2,0,0,-2
1514899174882299,-1,-1,-2,-1,-3,-1,-1,-2
1514899174882299,0,-2,-1,-1,0,-3,0,-2
1514899174883302,-1,-1,0,-2,-1,-2,-1,-1
1514899174883302,-5,1,0,-2,-2,-1,-2,-2
1514899174896813,-2,0,-2,-2,-1,-3,-2,-1
1514899174896813,0,0,-1,-2,-1,-1,-3,-1
1514899174897810,-2,-1,-2,0,-2,-1,-1,-1
1514899174897810,0,-1,-2,-1,-1,-1,-2,0
1514899174918847,0,-2,-1,-1,-1,1,-1,0
1514899174918847,-2,0,0,0,1,1,-1,0
1514899174919848,0,-2,0,-2,-1,-1,-1,0
1514899174919848,0,-1,-1,-1,0,0,0,-2
1514899174949869,-1,-2,-1,-2,1,-2,1,-1
1514899174949869,-1,-1,-1,-2,-2,-3,-2,-1
1514899174950878,-2,-1,-1,1,-1,-2,-1,-1
1514899174950878,0,-2,0,-1,-1,0,0,-1
1514899174956374,-1,1,-1,-1,-1,-2,-1,-3
1514899174956374,0,-1,1,-1,-2,-1,-1,-1
1514899174957374,-1,-1,0,-1,-1,-2,-1,-2
1514899174957374,0,1,-1,-1,-1,-1,-3,0
1514899174978890,-1,-2,0,-2,-2,-1,0,-1
1514899174978890,0,-2,-1,-2,-1,-1,0,-3
1514899174979891,0,0,-1,0,-1,-2,0,-1
1514899174979891,-1,-2,-1,0,0,-1,-1,0
1514899175002405,-2,0,-3,0,-3,1,-1,0
1514899175002405,-2,-1,-1,-1,-1,0,0,-2
1514899175002907,-1,-2,-2,-1,0,-2,-2,-2
1514899175002907,-4,-1,-1,-2,-1,1,0,-2
1514899175017417,-2,1,0,-2,-1,-1,-1,-2
1514899175017417,-1,-2,-1,-1,-1,1,0,-1
1514899175018416,0,-2,-2,-1,-1,-1,0,0
1514899175018416,0,-1,-2,-1,-2,-2,-2,1
1514899175038931,-2,-1,-1,1,-1,0,-2,-1
1514899175038931,-1,-1,-2,1,1,-2,-1,-1
1514899175039932,-1,-2,0,1,1,-2,0,-1
1514899175039932,-2,0,-3,1,-2,-2,-1,-1
1514899175062958,0,-1,1,-2,0,-2,-2,-1
1514899175062958,-1,-1,-2,-2,1,0,-1,0
1514899175063953,-1,-1,-1,1,-3,-1,-1,2
1514899175063953,-2,0,-2,-2,-1,-1,0,-2
1514899175075958,-1,-2,-3,-2,-2,0,-2,-1
1514899175075958,0,-2,-1,1,-1,-1,0,-1
1514899175083973,-1,-6,-3,-3,-2,-2,-2,-1
1514899175083973,3,-2,0,-1,-1,-1,-1,0
1514899175098986,-4,-3,-2,0,-1,-1,0,-1
1514899175098986,-3,0,0,-2,0,0,-1,0
1514899175099974,0,-2,-1,-3,1,-1,0,-4
1514899175099974,0,-1,-1,-1,-1,0,-1,-2
1514899175121991,1,-1,1,-2,0,-1,-1,-1
1514899175121991,-1,-3,-2,-2,-1,0,-3,1
1514899175122992,-1,0,-1,-2,-2,0,0,-1
1514899175122992,-2,0,-1,-2,-2,-2,-2,-1
1514899175136502,1,2,-1,-1,-1,-1,1,-2
1514899175136502,-1,-2,0,0,-1,-2,-1,-2
1514899175137502,-2,0,0,-2,0,-1,0,0
1514899175137502,-1,-2,-1,0,0,-1,-1,-1
1514899175159017,-2,-1,-2,-2,-2,0,-1,-1
1514899175159017,0,-2,1,-1,-1,-2,-3,-1
1514899175160026,-2,-1,-2,-1,-1,-1,-1,1
1514899175160026,-3,-4,-1,0,0,-1,1,0
1514899175198545,-2,1,-1,0,0,-1,0,0
1514899175198545,-2,-2,0,-1,-2,-3,1,0
1514899175199546,-1,-1,0,0,-2,-1,-3,-1
1514899175199546,2,-1,-3,-1,-1,0,-2,-3
1514899175201056,-1,-3,-1,-2,-1,-1,-1,-2
1514899175201056,-2,-3,-2,-2,-1,-1,0,-1
1514899175205049,0,-2,-2,0,0,-1,0,0
1514899175205049,1,-2,0,-1,-2,-1,0,-2
1514899175219068,0,0,-3,-1,-1,-1,0,-2
1514899175219068,-1,0,-2,-1,0,-1,-1,-1
1514899175220069,-2,-1,0,-3,-1,0,0,-1
1514899175220069,-2,2,-1,-2,-1,-2,-1,0
1514899175242078,-3,0,1,-2,0,-1,-3,-2
1514899175242078,0,-2,-1,-1,-2,-2,-1,0
1514899175243077,0,-1,0,0,0,-2,0,-1
1514899175243077,-3,-2,0,0,-1,0,-2,1
1514899175256113,-3,4,4,0,1,0,-2,-2
1514899175256113,-1,-3,-1,-2,-1,0,-1,-1
1514899175264092,-2,-1,-1,0,1,-1,-1,-1
1514899175264092,2,0,-1,-1,-2,0,-1,-1
1514899175279102,0,-2,-3,-1,-2,-2,-2,-2
1514899175279102,-1,-2,0,0,-1,-1,0,1
1514899175280103,2,0,2,2,0,0,0,0
1514899175280103,0,0,-1,-2,-2,-2,1,-1
1514899175310123,-5,-1,-2,-1,0,-2,-1,0
1514899175310123,-2,0,-2,-1,0,-2,1,-1
1514899175312125,-13,-16,-5,-1,-2,-3,-2,-4
1514899175312125,-2,2,-1,-2,-1,-2,0,-2
1514899175317128,-6,-8,-4,-2,-2,-1,0,-3
1514899175317128,6,-4,-4,-3,-5,-3,-1,2
1514899175324133,1,-7,-1,-1,-2,0,-2,-2
1514899175324133,-2,-5,-3,-1,0,-1,0,0
1514899175338644,-3,-7,-2,-1,-1,1,1,-3
1514899175338644,-1,5,1,1,-1,-1,-2,-4
1514899175346650,3,5,1,-1,0,-1,1,1
1514899175346650,5,2,-5,-4,-4,-4,-4,-4
1514899175362661,11,6,3,2,1,1,3,6
1514899175362661,-12,-9,0,-2,-2,-2,-2,-2
1514899175363661,6,0,-16,-1,0,-2,-2,-5
1514899175363661,-10,0,7,3,0,-1,-2,-2
1514899175375671,4,-2,-1,-10,-3,-2,0,0
1514899175375671,5,2,-5,0,1,-1,0,3
1514899175384176,1,-3,5,-1,-3,-1,-1,-1
1514899175384176,-2,-4,2,2,1,0,-1,-4
1514899175399186,-5,-4,-23,-4,-2,-4,-4,-6
1514899175399186,6,0,22,5,-1,2,2,0
1514899175400186,-1,-6,-6,-5,-1,-4,-2,1
1514899175400186,2,3,1,1,1,0,2,3
1514899175430209,-6,-1,-1,-1,-1,-1,-1,-2
1514899175430209,2,-8,-12,-5,-1,-2,-1,5
1514899175431209,12,6,0,1,-1,-2,-3,-3
1514899175431209,7,-2,2,3,-2,0,-3,2
1514899175436212,-15,4,-1,-6,0,-2,1,-4
1514899175436212,3,-1,-5,0,-1,-5,-4,-2
1514899175444219,8,0,2,3,0,0,0,1
1514899175444219,-7,1,2,-5,-1,0,-1,-1
1514899175459247,11,5,4,0,-3,-1,-2,1
1514899175459247,-13,15,3,2,2,2,1,-4
1514899175459730,8,-5,-3,-3,-2,-1,1,10
1514899175459730,0,0,1,3,0,-1,0,3
1514899175482244,-12,5,1,1,-1,0,-7,-15
1514899175482244,7,-7,8,2,0,0,0,-2
1514899175483246,-9,-3,-11,0,-1,0,0,0
1514899175483246,11,0,-8,-8,-4,-1,-3,0
1514899175504761,11,0,2,3,1,-1,-1,5
1514899175504761,-2,-5,-3,-8,-3,-2,-2,-4
1514899175505261,-9,8,21,-1,0,-1,-1,-8
1514899175505261,15,1,-9,-4,-2,-2,1,16
1514899175527278,9,-6,-2,8,-3,-3,-3,-5
1514899175527278,4,7,-9,-6,0,0,1,0
1514899175528277,-7,6,-9,-2,3,2,6,11
1514899175528277,-11,-7,7,2,-1,-3,-8,-16
1514899175542289,16,-3,5,-1,0,-2,1,6
1514899175542289,-22,-11,-5,4,-2,-3,-4,-4
1514899175543288,-32,-9,-4,-3,-3,-4,5,-5
1514899175543288,11,2,-12,-6,-1,0,-14,4
1514899175564802,-11,-7,-8,-9,-1,2,-2,-1
1514899175564802,-4,11,0,-2,-1,-1,-2,-1
1514899175565803,19,6,22,8,-2,-3,-8,-6
1514899175565803,-13,-6,-4,8,3,2,8,1
1514899175579313,-1,-6,24,3,-5,-3,-3,-2
1514899175579313,-1,-15,-22,-11,0,0,1,-4
1514899175579814,10,23,-4,-2,-2,-1,-1,4
1514899175579814,-16,-6,7,2,2,2,4,0
1514899175602330,-8,-3,-2,-2,-3,-3,1,-8
1514899175602330,0,-13,-10,10,2,1,5,6
1514899175603330,1,5,-2,-13,-2,-2,-24,-10
1514899175603330,7,2,-7,-3,1,2,2,7
1514899175624846,1,5,18,9,-3,-4,-7,-1
1514899175624846,4,10,6,1,-2,-1,-3,-11
1514899175625347,-16,-8,-1,7,1,2,14,12
1514899175625347,-9,-17,-40,-17,-4,-6,-7,-14
1514899175638856,0,19,9,1,1,-1,3,6
1514899175638856,-3,3,18,4,-1,-1,-1,7
1514899175639856,-1,-19,-16,-1,-3,1,-7,-6
1514899175639856,24,21,22,-14,-3,-1,7,-7
1514899175662371,-37,-27,-27,-5,1,2,10,10
1514899175662371,4,8,-3,-4,-3,-3,-1,-1
1514899175663372,32,7,4,2,2,0,8,1
1514899175663372,-35,8,16,2,-6,-7,-10,-14
1514899175684889,2,-2,-5,2,2,-3,-6,-6
1514899175684889,-8,-16,-15,-10,-8,-2,-7,-5
1514899175685388,-27,-20,-10,-1,-3,-4,3,1
1514899175685388,52,11,-17,-1,-2,0,17,28
1514899175698963,7,-17,-1,-12,-2,-3,-15,-23
1514899175698963,-23,27,8,1,-1,-3,-4,-19
1514899175699964,35,-19,4,7,1,0,-5,-8
1514899175699964,-29,0,-8,-8,0,-1,-6,-11
1514899175721982,14,25,26,9,1,1,6,15
1514899175721982,-19,-27,-38,-7,-2,-1,1,3
1514899175722982,-2,7,5,-14,-2,-1,-2,-4
1514899175722982,-17,-36,1,13,0,-2,2,8
1514899175745495,9,33,-6,-16,-3,0,9,6
1514899175745495,-21,-43,9,6,-1,-4,-25,-9
1514899175746988,-27,25,8,13,4,4,7,-7
1514899175746988,26,25,31,11,-3,-3,-9,-7
1514899175767502,-6,-37,-47,-6,-1,-3,-7,5
1514899175767502,4,33,27,2,0,1,7,7
1514899175769003,-32,-41,-20,-3,-4,-3,3,31
1514899175769003,25,14,-2,-14,-4,-5,-16,-47
1514899175782512,-21,13,27,13,2,-3,2,-10
1514899175782512,17,-6,-8,-2,2,-2,-7,-8
1514899175788517,-5,0,38,7,-1,-3,-3,-3
1514899175788517,-21,10,-35,-13,2,4,-1,-12
1514899175805029,41,-4,3,5,2,4,8,12
1514899175805029,20,12,0,1,1,1,8,9
1514899175808531,21,-5,-12,-14,-8,-6,-8,0
1514899175808531,-31,13,45,24,6,6,2,7
1514899175818538,1,13,-12,-4,-3,-1,6,-4
1514899175818538,-29,-21,-8,-20,-2,-1,-16,-3
1514899175835059,12,4,-26,5,5,5,4,-1
1514899175835059,-2,-7,-8,-2,-3,0,1,-36
1514899175850060,5,47,19,-5,-3,-4,-12,6
1514899175850060,33,14,-1,5,-4,-2,7,24
1514899175851571,-13,12,0,-6,-1,-3,-5,-37
1514899175851571,-32,-73,6,11,2,3,2,13
1514899175865071,-11,33,-10,-4,-1,-1,4,-4
1514899175865071,-8,-38,10,11,3,1,-22,-45
1514899175866572,17,15,-21,-5,-4,-3,-6,13
1514899175866572,13,4,6,2,3,2,-2,4
1514899175879080,12,-12,18,8,-4,-5,2,5
1514899175879080,-17,1,-2,0,2,4,10,25
1514899175886100,20,30,-5,-5,-5,-5,6,11
1514899175886100,6,-26,-64,-4,-8,-5,-2,13
1514899175902106,-17,-17,-12,-17,-1,-2,-12,-12
1514899175902106,14,39,4,4,0,-4,0,-1
1514899175903608,-26,-53,0,1,-1,1,11,18
1514899175903608,11,8,3,2,-3,-4,-3,-19
1514899175926126,15,41,16,-4,-2,2,5,0
1514899175926126,10,-61,-41,-21,-11,-8,-7,-34
1514899175927614,-32,43,48,20,8,6,2,-9
1514899175927614,4,39,-38,-16,-2,-3,11,23
1514899175939136,-40,-99,22,9,-2,-3,-13,-16
1514899175939136,44,33,41,23,8,3,7,10
1514899175946138,10,27,-27,-31,-8,-4,-1,16
1514899175946138,-19,-41,26,1,-1,-3,-5,-23
1514899175962140,-49,21,46,31,9,5,-2,3
1514899175962140,-5,15,-63,-12,-7,-4,15,19
1514899175964173,-14,-22,76,12,-2,-5,-17,-19
1514899175964173,15,15,-57,-12,2,4,1,6
1514899175984667,-13,-33,0,-11,-2,-1,2,-9
1514899175984667,2,33,29,5,-2,-1,6,11
1514899175986166,12,1,47,24,6,3,-1,-4
1514899175986166,-21,11,-52,-29,-12,-6,-3,13
1514899175999165,24,20,16,10,-1,-1,-7,-17
1514899175999165,-14,-54,-65,-28,-2,0,-3,-20
1514899176006170,3,22,3,12,5,2,9,18
1514899176006170,5,7,69,13,-2,0,3,11
1514899176022182,18,-21,-118,-13,0,1,2,16
1514899176022182,-14,-8,44,5,-2,-4,-6,-8
1514899176024184,-28,13,2,-5,0,-3,-3,-17
1514899176024184,7,-9,-38,-13,-7,-7,-7,3
1514899176044710,-3,-21,66,5,1,1,5,6
1514899176044710,26,-8,-30,-1,-2,1,10,16
1514899176046699,19,-9,-60,-37,-9,-4,-22,-31
1514899176046699,-57,84,66,37,12,6,6,-7
1514899176058708,-5,-46,-53,-53,-21,-12,-8,8
1514899176058708,-5,-13,74,21,7,3,0,29
1514899176067713,-12,-9,-9,7,1,0,3,8
1514899176067713,7,-21,22,-4,-4,-3,-2,-18
1514899176082224,45,52,43,36,11,7,9,5
1514899176082224,-11,71,-29,-28,-5,-3,-13,-19
1514899176083726,1,-85,38,6,-4,-5,-7,-9
1514899176083726,4,-50,-45,-21,-2,1,6,27
1514899176104749,10,39,-14,20,5,2,0,-22
1514899176104749,-2,53,28,-29,-6,-3,-1,-1
1514899176106241,8,-9,10,-10,-2,0,4,-24
1514899176106241,-21,6,58,3,0,-3,-4,6
1514899176127261,-16,17,7,-4,-3,-2,3,-4
1514899176127261,27,-26,-31,24,-2,2,4,7
1514899176128758,-28,19,-6,-1,0,-1,1,-3
1514899176128758,78,70,-13,0,2,-1,2,-1
1514899176142276,-29,-19,-59,-30,-11,-11,-5,16
1514899176142276,6,53,70,23,-6,-3,-8,-5
1514899176143767,-39,-98,-103,-26,6,3,-2,6
1514899176143767,-51,43,-29,-13,-5,-2,-16,7
1514899176164783,16,71,7,33,13,9,30,22
1514899176164783,45,-95,-24,-8,5,6,15,24
1514899176166290,1,73,70,13,-4,-2,-2,-8
1514899176166290,-23,-24,-35,-12,-13,-11,-3,-26
1514899176178304,-11,-66,28,7,5,1,-25,-28
1514899176178304,-50,-13,-66,-6,5,8,13,11
1514899176187299,61,68,61,16,5,7,20,17
1514899176187299,-20,-49,11,6,6,5,14,46
1514899176202319,8,90,-44,-33,-17,-16,1,-39
1514899176202319,-29,23,9,17,9,3,-2,-12
1514899176203819,-44,27,-36,-23,-16,-10,-7,12
1514899176203819,26,-6,35,19,7,5,3,-5
1514899176225826,-4,24,-31,-30,-12,-7,-19,-12
1514899176225826,-25,-83,102,24,4,0,28,80
1514899176229328,-20,-11,-63,-43,-12,-5,-40,-77
1514899176229328,47,-21,46,13,-5,-3,20,36
1514899176238335,30,-57,-45,-44,0,0,-12,1
1514899176238335,37,105,54,5,-1,-3,-14,2
1514899176247341,-37,-60,-6,-5,-3,-6,-21,-23
1514899176247341,13,-37,-21,25,-2,1,3,-18
1514899176269856,16,-123,22,8,3,0,-11,13
1514899176269856,-17,26,-44,-20,-2,-2,-2,-14
1514899176271357,11,1,66,47,10,5,6,14
1514899176271357,-23,124,-38,-5,6,5,-14,-5
1514899176284868,-9,8,125,16,-8,-4,30,23
1514899176284868,-30,-81,-128,-36,-13,-13,-49,-51
1514899176286369,17,-28,77,43,10,8,20,31
1514899176286369,-71,61,-10,-32,-12,-4,23,21
1514899176307393,-6,-98,-18,2,5,9,9,10
1514899176307393,20,70,40,5,-1,-3,-5,-22
1514899176308884,49,-59,13,40,4,-5,16,91
1514899176308884,-43,-7,-30,-30,-3,-4,-37,-112
1514899176322394,-2,127,-2,1,1,3,10,-1
1514899176322394,70,-82,32,24,5,0,1,21
1514899176323895,-47,3,-123,-49,-15,-4,-3,-80
1514899176323895,54,-75,86,28,4,-5,-5,66
1514899176344921,-41,-31,7,2,1,-2,-4,-19
1514899176344921,110,57,-38,-15,-4,-2,-12,-35
1514899176348413,-3,8,96,40,6,1,15,48
1514899176348413,13,-19,-61,-26,0,4,6,11
1514899176358435,-27,-25,-28,0,9,1,-16,-47
1514899176358435,29,37,20,13,1,1,-2,57
1514899176367426,17,42,31,-16,2,3,3,-41
1514899176367426,21,-62,-52,5,-4,1,-14,-9
1514899176382436,43,68,-24,16,1,-2,-24,0
1514899176382436,-41,10,-7,-6,-2,-6,12,8
1514899176383938,13,1,-10,-1,-5,-6,-6,-4
1514899176383938,25,-76,-6,-18,-7,-7,-18,-24
1514899176404952,27,-7,-54,-3,2,5,23,49
1514899176404952,-65,-68,33,-2,-6,-8,-17,-38
1514899176406454,65,101,21,1,5,7,12,19
1514899176406454,20,15,48,11,-2,-7,-7,3
1514899176418471,-25,2,65,22,2,-1,-10,4
1514899176418471,-9,-23,-47,-16,-1,4,0,-19
1514899176429470,-27,-4,-61,-27,-2,0,15,-11
1514899176429470,35,91,103,34,10,6,8,6
1514899176441991,-6,-61,-40,-19,-13,-12,-9,-51
1514899176441991,-47,-6,36,17,4,2,11,-20
1514899176443990,-7,0,-33,-1,0,-3,-18,-55
1514899176443990,-12,9,-11,-8,-5,3,10,0
1514899176465496,2,37,18,15,4,4,3,28
1514899176465496,-35,-24,30,-6,-6,1,20,-18
1514899176467998,-43,-64,-96,-14,-9,-7,-3,22
1514899176467998,-37,-26,-70,-24,-1,2,-10,-10
1514899176478519,41,46,59,7,5,5,20,39
1514899176478519,0,31,-36,-12,-5,-4,2,-31
1514899176487510,9,-13,-28,-15,-7,-3,16,35
1514899176487510,23,83,68,32,9,3,-17,-28
1514899176502030,-62,58,28,-16,-14,-9,-17,12
1514899176502030,-22,-54,-66,-14,-5,-4,-9,-3
1514899176504022,27,40,3,-9,-3,0,-5,21
1514899176504022,0,20,102,34,8,1,13,-17
1514899176525049,-12,-64,-103,-29,-11,-1,12,5
1514899176525049,9,9,-1,1,9,9,-1,68
1514899176526548,-19,-10,6,-15,-13,-12,10,-84
1514899176526548,-15,1,36,7,5,4,12,24
1514899176548554,-14,-34,37,18,4,2,-6,8
1514899176548554,-25,-72,-31,-1,-7,-5,3,-13
1514899176551056,19,0,-41,-11,-1,0,-2,39
1514899176551056,-1,40,18,-9,-6,-4,1,33
1514899176562080,45,9,37,24,4,1,12,-26
1514899176562080,-23,7,-38,-22,-8,-5,-9,-4
1514899176565066,-25,28,17,4,5,2,-33,-25
1514899176565066,10,-79,-19,5,-5,-5,-1,0
1514899176584596,-20,3,-14,-18,-3,-2,1,-6
1514899176584596,-25,36,49,5,-3,-2,3,8
1514899176586082,18,23,0,6,-4,-3,-13,49
1514899176586082,5,21,-31,-3,2,4,-14,-50
1514899176607605,-3,16,44,0,4,0,-15,9
1514899176607605,19,32,5,2,1,-3,5,-38
1514899176610598,-27,-37,-50,-3,1,0,-8,-19
1514899176610598,23,-22,-40,-6,-5,1,10,17
1514899176622106,-48,20,32,9,-4,-6,-14,38
1514899176622106,27,-77,-62,-9,-8,-8,-18,-16
1514899176623607,32,9,38,8,5,1,-1,-4
1514899176623607,-2,69,35,-3,-2,-1,7,26
1514899176644634,-16,-45,-105,-30,-7,-6,-2,-21
1514899176644634,6,33,33,14,4,4,29,33
1514899176650635,-19,-1,33,-14,-8,-8,-14,-13
1514899176650635,23,-32,-9,-2,0,2,14,3
1514899176668154,-5,52,57,-8,-4,2,4,-9
1514899176668154,-24,19,-49,-15,-6,-4,-2,-7
1514899176669654,31,36,55,35,15,11,14,-27
1514899176669654,-18,-60,-64,-16,-2,-2,1,40
1514899176681654,24,-2,16,19,4,3,-14,-29
1514899176681654,23,-56,7,9,7,5,24,11
1514899176688653,-10,-27,-23,3,0,-1,18,44
1514899176688653,-20,-5,-41,-22,-12,-12,-22,-25
1514899176704673,7,-73,-61,-1,3,7,4,7
1514899176704673,24,67,57,-15,-5,-6,39,-21
1514899176706175,13,-76,-15,0,-3,-2,-9,9
1514899176706175,6,15,24,18,2,-1,8,-8
1514899176728180,-14,11,-55,-9,-1,-4,-9,-9
1514899176728180,-13,40,90,23,5,-1,-20,47
1514899176731682,-10,3,22,3,1,0,-6,-1
1514899176731682,-19,-2,-29,-26,-7,-2,-1,-32
1514899176741690,-19,-22,-39,-6,-2,-4,1,-16
1514899176741690,9,21,56,22,11,7,-6,37
1514899176748696,15,-38,11,5,0,1,-1,31
1514899176748696,-32,-49,-15,1,-2,-1,-4,0
1514899176765208,29,-37,-28,-15,-4,-1,-6,11
1514899176765208,19,35,40,13,4,0,4,-76
1514899176766707,-37,-5,-4,4,2,6,23,44
1514899176766707,-1,-10,39,4,-2,-1,-13,-12
1514899176787222,-57,38,16,-6,0,1,6,-17
1514899176787222,-10,-58,-7,8,-1,-5,-42,-1
1514899176788723,41,-4,6,-1,1,2,19,18
1514899176788723,-51,-55,-24,-3,0,-4,-5,-40
1514899176801744,36,15,13,6,-3,-1,-2,-1
1514899176801744,-24,23,38,6,-2,-2,-7,21
1514899176808237,-6,1,-51,-6,-3,-5,-17,-33
1514899176808237,-9,-2,-5,-15,-1,1,-1,7
1514899176824748,15,-29,-31,-14,-3,-3,-1,27
1514899176824748,9,42,8,-6,-6,-2,1,32
1514899176826250,22,63,14,-17,-6,2,21,-16
1514899176826250,-36,5,-22,5,1,-1,-35,-33
1514899176855270,26,24,99,33,6,2,-1,-2
1514899176855270,-32,-40,-38,-5,-1,1,0,-6
1514899176857285,12,40,-25,-5,0,0,4,23
1514899176857285,16,31,-38,-4,1,1,11,2
1514899176861788,-8,1,-17,3,-4,-4,7,-17
1514899176861788,9,-31,51,-27,-11,-5,-20,-17
1514899176869281,33,-11,-67,8,6,2,-3,15
1514899176869281,-15,-2,60,-9,-3,-4,0,-37
1514899176892307,2,28,-31,0,-4,-1,-11,52
1514899176892307,28,-15,-50,5,5,4,24,-32
1514899176893801,-19,-7,32,9,1,0,-25,-26
1514899176893801,43,36,20,5,-1,-2,26,24
1514899176907307,-21,-13,10,6,2,-1,29,52
1514899176907307,-2,55,27,17,11,5,-34,-67
1514899176909818,-3,-53,-12,-21,-5,-1,11,74
1514899176909818,2,27,-2,3,-3,-2,-26,-69
1514899176921335,-21,-48,-42,-8,-7,-6,-2,-17
1514899176921335,1,27,-36,-9,0,4,6,4
1514899176928322,-27,-71,41,24,5,-1,3,8
1514899176928322,36,22,-3,-20,-1,3,19,56
1514899176952349,37,48,13,0,-1,-4,6,-31
1514899176952349,20,-26,4,7,-2,-3,-26,-11
1514899176953850,-27,52,15,4,-1,1,5,-20
1514899176953850,10,7,16,-8,-5,-3,2,58
1514899176967398,2,-44,-62,-20,-5,-3,-9,-45
1514899176967398,0,-80,-21,-8,1,0,13,11
1514899176968898,-7,76,29,-7,-6,-5,-1,-55
1514899176968898,24,-3,-19,8,5,2,2,18
1514899176981922,-13,39,40,7,-3,-1,1,-24
1514899176981922,12,-5,-27,-18,-3,-1,14,37
1514899176988424,-27,-14,-50,-4,-4,-5,-36,-29
1514899176988424,-51,35,22,5,1,1,-1,-16
1514899177004432,34,-20,-17,-4,4,7,5,22
1514899177004432,-2,-19,12,11,3,3,19,24
1514899177010937,-1,9,-31,-23,-9,-3,0,20
1514899177010937,-27,-28,26,6,0,-3,3,3
1514899177028940,16,85,21,12,5,-1,-11,-7
1514899177028940,8,-5,12,-1,-2,0,13,31
1514899177030944,-32,19,15,-12,-1,-3,-23,-11
1514899177030944,21,1,-17,15,5,3,-5,-9
1514899177040948,-14,-23,59,6,0,1,-4,4
1514899177040948,-20,-61,-81,-11,-4,-5,-11,-42
1514899177049961,10,-12,16,-8,-8,-5,-11,14
1514899177049961,-13,8,-18,-9,0,3,5,21
1514899177064968,20,25,16,8,4,0,12,5
1514899177064968,-19,49,19,26,6,-2,-26,0
1514899177066467,9,-18,21,-9,2,4,13,-9
1514899177066467,19,70,40,-6,-8,-4,-5,-12
1514899177087489,-15,-84,-72,-19,-6,-3,-8,10
1514899177087489,-29,18,5,2,-1,0,4,1
1514899177088984,32,76,7,2,-4,-5,-14,-13
1514899177088984,-1,-19,34,8,5,2,8,9
1514899177100993,-18,7,5,-3,-2,-5,-17,-11
1514899177100993,8,-13,-1,-2,-3,0,3,4
1514899177109999,-1,-47,25,6,1,0,29,51
1514899177109999,25,48,-32,17,5,3,-6,-3
1514899177125009,-2,-67,-8,-17,-8,-6,-2,-23
1514899177125009,1,-22,30,-7,0,2,18,53
1514899177127022,-6,-11,-41,1,-2,-3,-12,-60
1514899177127022,27,-7,-29,-3,-2,-1,2,18
1514899177147025,-22,8,-20,5,-2,-2,-2,9
1514899177147025,6,67,6,-29,-9,-7,-11,-6
1514899177149027,24,-7,42,9,0,1,15,-1
1514899177149027,-1,-33,-54,-7,-6,-5,17,25
1514899177169540,-24,-8,34,26,9,3,-20,-34
1514899177169540,20,-10,18,-27,-6,1,4,13
1514899177171541,2,15,-23,-6,-2,-5,-15,-18
1514899177171541,-17,1,30,9,-1,0,-9,-14
1514899177184551,4,-16,-2,6,0,0,1,29
1514899177184551,18,14,4,12,2,1,-4,-3
1514899177186552,13,33,1,-4,4,6,-8,-17
1514899177186552,-61,-116,-26,-5,-3,-4,-12,-61
1514899177207567,4,38,19,2,0,0,10,34
1514899177207567,9,0,20,20,5,3,5,-4
1514899177211069,-15,-19,-35,-16,-8,-4,-1,-43
1514899177211069,3,-39,10,-2,0,-2,-7,18
1514899177220576,-15,40,-3,-32,-7,-2,11,8
1514899177220576,29,75,-35,-4,-1,-2,-7,-24
1514899177237588,6,-30,5,7,-1,-2,-7,42
1514899177237588,6,8,-61,3,3,0,31,-8
1514899177244605,-29,-44,16,-4,-1,1,-5,-26
1514899177244605,-9,-6,-29,-1,0,-2,-4,-2
1514899177246094,-4,6,31,17,1,-2,-9,6
1514899177246094,2,-76,25,-16,-6,-3,-16,7
1514899177267109,21,33,4,-5,0,-2,-11,-10
1514899177267109,-45,-11,7,-1,-1,-2,6,-27
1514899177269120,21,-9,-18,3,3,2,9,-7
1514899177269120,2,-39,51,23,5,3,-3,9
1514899177281140,-6,13,-76,-25,-12,-9,-10,-11
1514899177281140,29,-17,14,1,-3,-3,-9,-5
1514899177290135,-39,-56,-36,10,3,2,11,36
1514899177290135,-7,32,-13,-18,-7,-5,-2,-7
1514899177312140,36,-24,35,15,2,0,0,15
1514899177312140,-26,11,-7,-9,-5,-5,-9,-60
1514899177315643,12,-31,-2,0,0,-2,-4,-4
1514899177315643,2,101,43,6,-1,2,-6,-14
1514899177327151,-10,-15,-25,3,1,-1,11,-3
1514899177327151,-14,-21,28,4,-4,0,8,46
1514899177328653,23,66,-1,-29,-9,-6,1,-3
1514899177328653,-24,-32,40,0,-2,-2,12,20
1514899177341162,6,-21,-22,9,2,0,-6,-13
1514899177341162,28,119,36,12,-1,-5,-9,16
1514899177349667,-43,-27,7,-25,-4,-1,-4,-22
1514899177349667,31,44,-8,1,2,1,4,10
1514899177372196,19,13,19,6,6,6,17,29
1514899177372196,-14,-24,-21,-4,-3,-4,-3,-20
1514899177374686,25,-13,76,38,6,4,-11,-11
1514899177374686,-15,-16,-85,-27,-8,-4,-9,-20
1514899177387194,-24,-33,12,-6,1,0,-1,-7
1514899177387194,-4,-68,-18,-7,-3,-4,-18,55
1514899177388696,-23,-11,-33,-12,-5,-4,-5,-24
1514899177388696,6,11,9,6,-2,-2,-11,-10
1514899177401203,28,17,29,13,2,-2,6,-37
1514899177401203,17,39,27,13,2,4,23,61
1514899177409709,-28,36,-47,-37,-11,-7,-34,-13
1514899177409709,15,-9,-34,-13,-1,-2,16,40
1514899177425220,9,10,58,3,-4,-4,-9,-14
1514899177425220,21,-29,-45,-1,-1,-1,-12,-17
1514899177429223,2,13,34,24,6,1,13,11
1514899177429223,4,17,32,2,-1,3,2,-3
1514899177447236,-22,52,-36,-17,-5,-4,-10,0
1514899177447236,-19,1,-22,-11,-2,-1,6,-11
1514899177448739,15,33,17,25,5,6,19,7
1514899177448739,-40,-28,-39,-12,0,-1,16,8
1514899177469761,5,-20,25,1,0,4,7,49
1514899177469761,-33,7,-10,-8,-4,-4,-17,-39
1514899177471273,-36,42,-12,-2,2,2,16,5
1514899177471273,21,-65,16,-6,-6,-4,-13,-27
1514899177484772,-5,9,11,14,4,-1,-9,-7
1514899177484772,-8,-33,20,12,6,1,9,6
1514899177486274,-17,-22,-5,-31,-16,-9,-11,-7
1514899177486274,24,25,-3,8,1,1,15,14
1514899177506278,-7,-33,-43,-5,-3,-6,-38,-29
1514899177506278,-5,5,11,-2,2,-2,-7,-20
1514899177516786,34,7,43,28,9,3,11,10
1514899177516786,2,14,16,-13,-3,-5,-24,-2
1514899177529795,-42,-29,-44,-19,-5,3,20,8
1514899177529795,-10,-7,0,-13,-3,1,-9,-41
1514899177531306,1,-29,19,19,5,3,-7,15
1514899177531306,54,65,16,17,3,1,4,-29
1514899177544815,8,2,71,12,2,3,4,12
1514899177544815,-24,1,-45,-16,-4,-3,-3,20
1514899177546316,7,2,20,3,0,1,12,-54
1514899177546316,-26,16,-43,2,3,5,-5,13
1514899177567822,-1,21,9,-13,-8,-7,-1,17
1514899177567822,-15,-22,24,17,5,4,8,-4
1514899177573325,34,49,-7,-3,2,2,4,11
1514899177573325,-30,-25,50,18,2,-4,-14,-14
1514899177589836,-10,2,-2,13,3,-1,-9,-17
1514899177589836,6,49,-26,-26,-2,0,34,8
1514899177591337,-26,-43,-41,-6,-6,-7,-15,-12
1514899177591337,12,-1,20,14,4,1,-2,-1
1514899177604847,25,2,-24,-2,0,-2,0,0
1514899177604847,12,49,53,11,0,-1,-2,-4
1514899177607349,-12,-91,-87,-13,-4,-1,0,16
1514899177607349,-22,3,-77,-32,-10,-7,-26,-42
1514899177627363,-3,4,72,11,0,2,-1,-25
1514899177627363,-14,-37,-59,-7,-2,-4,-5,7
1514899177628864,-6,-32,-57,-13,-2,0,2,41
1514899177628864,46,35,53,16,4,2,28,37
1514899177649378,-8,-14,-61,-18,-4,-3,4,-20
1514899177649378,21,36,67,17,3,1,-7,-7
1514899177655883,-22,-17,7,-3,-4,-4,18,-8
1514899177655883,-73,38,28,10,-1,-2,-18,11
1514899177664405,11,15,-19,-28,-5,-3,2,2
1514899177664405,6,-11,63,19,2,-1,-1,0
1514899177671394,13,51,-6,2,4,0,-2,5
1514899177671394,8,80,98,31,6,4,7,6
1514899177687920,-13,-99,-66,-27,-5,-3,-4,1
1514899177687920,-20,5,-22,-7,-4,1,-10,3
1514899177689425,10,13,31,-3,-4,-1,7,5
1514899177689425,-2,-20,43,11,-1,-3,-23,-14
1514899177709922,2,-6,-39,-8,-1,1,1,55
1514899177709922,-7,25,36,14,0,0,8,11
1514899177711424,-13,-29,-49,-10,-2,-1,-10,-67
1514899177711424,-18,-36,-61,-42,-15,-10,-5,-18
1514899177724432,-20,19,56,23,7,7,14,17
1514899177724432,-14,-26,-56,-9,-7,-12,-22,-26
1514899177730937,-12,23,65,3,0,-1,-8,3
1514899177730937,18,-19,-7,12,8,6,-2,15
1514899177747448,28,37,32,28,5,-1,19,-17
1514899177747448,-3,-8,-74,-48,-9,-4,-1,-8
1514899177749955,-15,-23,-2,-5,-7,-7,-8,-1
1514899177749955,20,19,-12,-26,-4,-1,9,11
1514899177769965,39,27,76,27,7,5,5,1
1514899177769965,-18,-69,-9,18,1,0,10,2
1514899177771465,52,74,-40,-3,-3,-3,-13,-10
1514899177771465,3,-17,-17,-18,-10,-2,22,33
1514899177792480,-5,-9,17,-10,-4,-3,-4,4
1514899177792480,6,-1,28,13,2,-2,-9,-10
1514899177793982,46,26,6,1,1,3,4,19
1514899177793982,-29,-4,1,12,0,-6,-13,-21
1514899177806992,15,-44,-29,-16,-1,1,24,36
1514899177806992,-16,17,-31,9,3,2,-9,-51
1514899177814996,-1,51,26,-15,-2,3,6,-4
1514899177814996,-6,-12,-53,-12,0,3,5,2
1514899177830007,12,35,44,18,2,-3,-2,8
1514899177830007,24,8,-20,-6,-3,-2,7,17
1514899177831508,-4,-45,-70,-1,-2,-4,-13,-17
1514899177831508,-9,-45,31,1,5,5,14,2
1514899177844018,-31,43,-18,-11,-3,-6,-32,-24
1514899177844018,35,35,56,-2,-5,-2,9,19
1514899177851025,-4,-47,11,11,2,2,-18,6
1514899177851025,14,-7,23,17,0,-1,21,15
1514899177867535,-24,10,-32,-6,-4,-4,-13,-14
1514899177867535,-13,-73,-5,-14,-2,-4,-3,-19
1514899177869036,3,-39,-24,-2,-2,-3,-12,-13
1514899177869036,-27,-34,-36,1,3,0,-5,4
1514899177889548,6,-2,84,26,6,3,0,-12
1514899177889548,-38,5,7,-12,-5,-1,-3,-10
1514899177896053,-17,-44,43,6,1,0,1,15
1514899177896053,24,-40,-35,2,-2,-4,-2,1
1514899177904059,8,38,-40,-10,0,-1,3,28
1514899177904059,29,-31,-21,-4,-2,-1,-23,-19
1514899177911064,-25,7,22,2,1,-2,0,-6
1514899177911064,-21,-37,-35,4,-1,-3,-14,-11
1514899177927075,19,-6,18,6,1,1,-1,33
1514899177927075,-16,-17,-24,-10,-5,-3,26,5
1514899177929076,10,16,44,19,0,0,10,30
1514899177929076,21,-19,-32,-22,-5,-6,-27,-31
1514899177950592,-47,4,-28,-23,-9,-2,22,-13
1514899177950592,12,-8,16,5,4,1,-13,1
1514899177953098,-2,39,16,12,2,1,6,4
1514899177953098,2,-39,8,-5,-1,2,8,-2
1514899177964605,10,31,-5,-3,-4,-5,-5,-4
1514899177964605,-25,16,42,5,-3,-3,5,0
1514899177972609,-9,-2,27,18,3,-1,-11,-13
1514899177972609,13,91,47,-18,-4,-2,-6,7
1514899177987119,-2,-27,-47,-2,-4,-3,0,-39
1514899177987119,3,-7,-26,-9,-5,1,-16,19
1514899177988618,-8,-11,16,0,1,-2,11,7
1514899177988618,-10,-14,-45,-8,-4,1,11,10
1514899178010134,6,-5,42,12,5,3,-5,-17
1514899178010134,14,-19,-57,-24,-7,-5,-5,1
1514899178013136,22,2,4,-6,-1,4,14,13
1514899178013136,12,24,32,7,4,1,-10,-27
1514899178023645,6,-11,8,-18,-4,-4,-5,-3
1514899178023645,42,9,-15,22,7,3,-1,24
1514899178032652,5,32,-37,-27,-8,-5,-7,20
1514899178032652,-20,68,114,32,7,4,14,-4
1514899178048161,-6,-65,-52,-7,-4,-3,-23,-7
1514899178048161,-2,7,28,2,5,4,8,10
1514899178051664,2,25,46,4,3,3,1,4
1514899178051664,-20,24,-59,-18,-12,-8,2,-11
1514899178085692,2,-64,29,13,3,-2,0,4
1514899178085692,-20,29,15,9,2,3,-3,-2
1514899178087188,14,-1,36,-3,-2,-4,19,7
1514899178087188,-7,-20,-66,-11,-6,-6,-37,-45
1514899178087689,10,27,8,-7,-1,0,9,4
1514899178087689,34,18,-11,12,0,-1,2,4
1514899178100202,-2,-50,-33,-16,-6,-2,-14,-21
1514899178100202,19,-7,28,22,9,4,7,9
1514899178107202,-36,3,-30,1,-2,-1,-7,-4
1514899178107202,-6,18,-4,-20,-4,-4,-3,-14
1514899178108704,-14,43,-3,10,2,1,-2,-2
1514899178108704,15,41,19,-19,-3,0,0,23
1514899178129719,-22,-63,-61,-2,2,1,2,-7
1514899178129719,4,-21,5,11,-1,-2,18,3
1514899178131220,-4,40,4,-5,-2,-1,-8,-13
1514899178131220,-8,-58,-33,-2,0,-2,-16,-6
1514899178143228,-2,20,83,26,4,2,-5,-5
1514899178143228,12,48,-25,-28,-5,-1,9,-1
1514899178153236,8,-47,-49,-6,-5,-1,-2,-1
1514899178153236,-24,15,42,24,2,3,12,6
1514899178175251,29,105,13,1,3,6,11,18
1514899178175251,-49,-105,28,7,-3,-7,-9,1
1514899178180754,7,13,-39,-27,-9,-7,-4,-17
1514899178180754,10,-16,-8,-4,-1,-2,6,12
1514899178189761,-29,4,-1,2,-2,-5,-10,-23
1514899178189761,7,-32,11,12,2,2,3,18
1514899178191262,-1,46,41,8,-4,-3,8,-2
1514899178191262,-36,-5,-1,-2,-2,-3,-17,-9
1514899178203270,21,-2,-88,-22,-8,-6,0,-17
1514899178203270,21,-36,-11,-6,-1,0,-24,15
1514899178212276,-47,-77,-24,6,3,0,-7,-7
1514899178212276,42,-4,15,1,-2,1,15,28
1514899178228303,34,35,77,7,4,1,-8,-8
1514899178228303,-25,2,-48,-12,-3,1,3,14
1514899178231791,8,21,28,8,6,4,-2,-3
1514899178231791,-15,-62,-22,-10,-3,-5,-2,-12
1514899178249815,-15,16,44,18,3,2,8,26
1514899178249815,16,18,-11,-4,-2,-1,-6,-18
1514899178251316,-5,1,51,22,6,3,6,18
1514899178251316,-14,-4,-65,-38,-14,-11,-2,-28
1514899178264324,-6,-10,-40,-20,-9,-7,1,11
1514899178264324,23,-4,41,24,9,4,5,-7
1514899178272819,-58,39,-10,-14,-5,-4,4,-9
1514899178272819,30,-3,-5,19,6,2,-20,22
1514899178287339,-9,-64,-32,-4,-4,-4,4,-6
1514899178287339,4,49,75,6,1,0,19,-5
1514899178288833,16,27,17,-1,0,1,-1,3
1514899178288833,-18,7,-20,-3,-3,2,16,-12
1514899178309845,-13,-72,-36,-2,-1,-5,16,8
1514899178309845,-2,72,43,7,3,7,18,26
1514899178311347,7,-12,-23,-23,-8,-3,-14,-17
1514899178311347,26,67,43,7,1,3,4,-9
1514899178324357,-48,6,-19,-3,-1,-3,-21,-17
1514899178324357,-46,-3,-39,-1,-3,-5,-2,15
1514899178332364,6,-65,-39,1,-2,1,2,10
1514899178332364,-8,-25,46,1,1,0,-4,-7
1514899178347389,34,17,4,-7,1,1,-9,19
1514899178347389,-19,19,-6,-4,-2,-4,-12,-10
1514899178348876,15,3,-29,-14,-6,-4,-5,0
1514899178348876,-8,-79,-17,6,2,-1,-18,-18
1514899178369900,-10,42,49,4,3,1,5,-4
1514899178369900,-19,-57,-51,-7,-5,-3,-5,-17
1514899178371399,9,40,28,1,-3,-2,-2,-12
1514899178371399,-18,-6,-9,-3,-2,-1,2,14
1514899178383397,25,76,26,8,-1,2,9,13
1514899178383397,1,-72,-22,-12,-1,1,-4,-31
1514899178392403,-18,42,-49,-18,-7,-5,0,-19
1514899178392403,26,-8,9,4,2,-1,2,9
1514899178406414,0,9,-2,2,1,-1,-8,-18
1514899178406414,2,13,21,17,2,1,13,51
1514899178414421,-18,-27,-30,-6,2,0,-7,-32
1514899178414421,-11,25,-18,-10,-2,2,12,17
1514899178429930,53,25,35,7,2,2,-11,-7
1514899178429930,-37,-28,-3,17,-5,-10,-4,-9
1514899178431432,-15,5,3,-21,1,3,9,5
1514899178431432,4,34,24,10,1,0,-8,0
1514899178452460,-33,-28,-51,-24,-3,-6,-2,1
1514899178452460,15,-5,27,1,-3,-1,5,-29
1514899178453949,23,26,92,37,9,1,-37,1
1514899178453949,-16,-53,-97,-46,-14,-10,-7,-21
1514899178467957,9,10,48,22,3,2,20,4
1514899178467957,-7,-26,-20,-16,-2,-2,-8,-7
1514899178469458,12,-13,-9,3,-2,-1,10,25
1514899178469458,10,44,82,6,5,3,18,4
1514899178489973,-27,-40,-45,-1,-5,-6,-20,-8
1514899178489973,48,46,26,3,3,5,-1,-6
1514899178491474,-3,9,66,13,3,1,-1,7
1514899178491474,-9,-28,-113,-16,-6,-1,10,13
1514899178511988,-3,-5,16,-12,-4,-3,-24,-44
1514899178511988,1,27,-10,2,-1,-2,-9,-5
1514899178513991,1,-3,-52,7,-2,-2,0,3
1514899178513991,4,19,24,-5,-1,-3,-6,-4
1514899178528000,4,-1,14,1,-1,1,8,20
1514899178528000,-8,-46,-17,-14,-2,1,12,0
1514899178530001,6,5,9,-10,-9,-8,-9,-9
1514899178530001,8,19,-36,-8,-6,-3,-7,-9
1514899178549516,-30,-60,25,12,4,0,11,4
1514899178549516,6,60,6,7,-1,-1,-5,0
1514899178551517,-21,-62,-65,-18,-6,1,24,34
1514899178551517,-22,16,24,-6,-2,-2,-6,-30
1514899178572030,43,44,-29,-17,-5,-4,-8,-23
1514899178572030,2,28,9,12,2,-1,-9,-2
1514899178580037,-19,-16,17,-6,-1,-1,2,-7
1514899178580037,-7,8,7,13,3,-2,8,24
1514899178586541,0,-6,-21,-14,-4,-2,-6,0
1514899178586541,16,36,82,21,7,4,6,5
1514899178593546,-22,-22,-79,-16,-3,1,-4,-9
1514899178593546,5,-84,-4,-1,-1,-1,2,0
1514899178609557,-13,-4,-4,6,3,1,-13,6
1514899178609557,1,-1,-21,-15,-7,-4,-7,-8
1514899178611559,-7,-24,28,17,4,-1,-1,9
1514899178611559,0,5,24,8,3,1,-19,-38
1514899178632605,13,-47,-25,2,0,-3,14,-4
1514899178632605,-2,23,-35,-14,-4,1,-6,-8
1514899178634098,23,12,5,3,1,-2,-1,11
1514899178634098,-5,-7,26,10,0,-1,0,8
1514899178646584,-23,-12,36,4,0,0,11,1
1514899178646584,-4,21,19,1,1,2,-20,-22
1514899178653603,15,-33,-30,-10,-4,0,10,-6
1514899178653603,11,-12,26,19,2,0,0,13
1514899178670600,-4,19,21,-21,-2,-2,-9,15
1514899178670600,28,-36,-37,5,6,1,11,-4
1514899178672612,3,60,48,13,4,2,-11,2
1514899178672612,7,-22,-36,-1,1,3,3,4
1514899178692115,-19,-6,8,-4,-5,-7,7,11
1514899178692115,-7,-23,-68,-29,-9,-5,-19,-17
1514899178693617,17,35,39,22,8,3,5,-7
1514899178693617,-10,28,-20,-6,-1,-3,-3,2
1514899178706625,37,-8,-6,0,-1,2,-5,-5
1514899178706625,-26,-19,7,-6,-5,-5,16,19
1514899178713631,-3,0,0,7,-2,-2,4,8
1514899178713631,-18,73,37,3,-1,0,-2,-13
1514899178729642,-4,-28,-38,-1,0,-3,0,3
1514899178729642,-21,-21,33,3,-1,-1,-3,6
1514899178732161,16,25,-12,-7,1,3,-6,2
1514899178732161,25,13,0,6,1,-3,15,19
1514899178752158,-18,30,-23,-16,-4,-4,-17,-6
1514899178752158,-17,9,11,11,2,1,2,-11
1514899178753659,44,-17,-25,-21,-11,-6,-7,0
1514899178753659,-30,-30,-10,-10,-1,0,0,-3
1514899178766668,9,-59,7,6,4,2,0,-2
1514899178766668,27,3,-14,1,-3,0,2,20
1514899178773673,-17,-20,40,10,3,2,1,-9
1514899178773673,-34,-17,-11,-29,-8,-2,-1,-3
1514899178789684,37,32,29,15,4,1,8,12
1514899178789684,-46,-48,-4,-13,-3,-1,-4,-13
1514899178791185,-24,1,14,6,-2,-3,15,5
1514899178791185,8,-12,-12,-18,-6,-2,-13,-9
1514899178813701,-26,18,-7,10,1,0,0,1
1514899178813701,28,-1,-5,-1,0,-1,4,14
1514899178817204,-32,10,5,-4,-1,2,16,7
1514899178817204,19,1,2,-3,-5,-5,-9,-11
1514899178826710,-6,14,-15,0,-2,-4,-2,-10
1514899178826710,-7,-25,11,7,-3,1,-8,0
1514899178834716,10,16,5,1,4,1,-3,10
1514899178834716,13,36,-15,-8,2,3,14,10
1514899178849727,-3,42,-22,-15,-12,-7,-15,-22
1514899178849727,-15,0,-61,-28,-7,-4,-5,-6
1514899178851228,-5,-57,21,14,6,1,-9,0
1514899178851228,-11,48,59,16,6,4,7,21
1514899178872242,7,-8,-17,-5,-1,-1,-4,-20
1514899178872242,4,26,4,-7,-5,-3,-6,1
1514899178873744,-6,-36,-16,2,-3,-3,9,-20
1514899178873744,10,10,-43,-8,1,0,4,5
1514899178886753,-19,-61,5,8,4,2,-8,-21
1514899178886753,49,27,25,7,2,0,18,50
1514899178893258,-12,-42,14,-8,-7,-5,-36,-57
1514899178893258,-6,51,19,29,7,-2,2,18
1514899178910271,-60,-21,-62,-49,-16,-6,0,-17
1514899178910271,8,28,32,24,7,1,1,-12
1514899178911771,-22,18,-2,-2,2,0,0,17
1514899178911771,19,-31,-30,-12,-7,-3,-1,-32
1514899178939790,19,12,28,11,5,2,2,13
1514899178939790,-35,-48,-16,1,1,-1,-2,-10
1514899178941291,17,41,-1,-2,-1,-1,1,9
1514899178941291,-14,30,5,3,-2,1,-7,10
1514899178954813,0,-18,3,7,-3,-7,-15,-12
1514899178954813,8,-35,19,3,3,3,-3,0
1514899178956312,7,35,3,-23,-6,-4,18,22
1514899178956312,2,-29,-11,-9,-5,-5,-12,-20
1514899178970313,-4,22,-1,7,4,3,10,24
1514899178970313,-8,5,13,7,1,-1,-3,-11
1514899178972816,-10,-26,34,18,6,6,2,-1
1514899178972816,-13,2,5,-15,-6,-3,0,6
1514899178992328,12,-1,-13,-2,-2,-2,2,14
1514899178992328,0,36,52,21,10,5,-8,-34
1514899178993829,25,28,-24,-10,-8,-5,8,13
1514899178993829,0,-86,12,-1,-1,-4,-33,-35
1514899179005840,6,-5,-2,8,4,0,-4,-11
1514899179005840,15,43,7,-9,-2,1,6,23
1514899179015347,-14,-15,-36,-20,-7,-3,-9,-16
1514899179015347,-14,-8,18,32,6,5,-1,-1
1514899179029864,53,32,30,3,-3,-5,2,7
1514899179029864,13,5,12,-14,-7,-6,-1,12
1514899179032359,-18,8,-62,-4,-5,-8,-31,-41
1514899179032359,-16,5,17,14,6,2,11,29
1514899179052370,12,18,-13,-5,-3,0,-8,-9
1514899179052370,-49,-47,-17,9,0,1,4,-1
1514899179053872,18,-27,24,2,1,-1,-1,0
1514899179053872,-18,-45,-58,-18,-5,-3,-2,-13
1514899179065880,-2,-1,-42,-8,-2,-1,5,15
1514899179065880,-2,39,32,13,2,1,2,-7
1514899179074899,10,-14,5,4,2,3,-2,1
1514899179074899,27,-30,-26,-8,-4,-4,-1,4
1514899179089906,-4,43,50,9,2,3,20,26
1514899179089906,27,-36,-43,-15,-8,-6,-4,14
1514899179091407,-38,-2,-1,14,2,3,3,-31
1514899179091407,18,44,1,-4,3,2,5,17
1514899179112412,-34,2,23,-8,0,2,-6,-1
1514899179112412,32,21,1,10,1,-2,-4,7
1514899179113913,3,17,-22,-15,-2,-1,-13,-11
1514899179113913,38,26,43,10,1,0,0,-16
1514899179134945,5,-1,24,14,3,0,-8,-2
1514899179134945,-44,-53,-64,-29,-7,-5,-12,-21
1514899179136445,38,113,19,5,-1,0,13,24
1514899179136445,-22,-65,17,-3,-4,-4,-25,-28
1514899179149940,22,1,-13,3,-2,-2,0,7
1514899179149940,5,-12,19,-8,-4,-3,5,-33
1514899179151451,18,20,-13,-6,-3,-1,3,13
1514899179151451,-17,2,8,-5,-1,-2,6,7
1514899179172474,-9,-73,-25,-6,-4,-1,3,0
1514899179172474,22,38,32,11,0,-2,-1,8
1514899179175960,-15,-37,9,0,-4,-6,-10,-17
1514899179175960,5,-9,3,-5,-1,-1,2,18
1514899179185968,15,13,8,-2,-3,-4,-4,-14
1514899179185968,-20,-29,-28,-23,-8,-5,-6,-5
1514899179194971,2,-43,-25,1,0,3,-12,30
1514899179194971,1,48,9,1,0,-2,10,-17
1514899179210481,-5,-35,15,10,3,1,-7,-18
1514899179210481,20,28,9,1,1,1,14,19
1514899179214485,-26,36,9,-2,-2,-5,-13,-25
1514899179214485,15,-31,-7,0,-1,-1,11,10
1514899179239548,-3,1,-10,-9,-1,1,22,48
1514899179239548,-42,15,-49,-10,-1,0,-10,-12
1514899179241547,38,-22,26,4,2,2,1,-5
1514899179241547,-25,-21,-6,2,-1,-1,3,0
1514899179246050,10,-31,-18,3,1,1,16,3
1514899179246050,-8,-7,36,14,4,3,11,25
1514899179255063,-10,-3,-58,-30,-8,-3,-5,-29
1514899179255063,2,29,50,14,4,0,0,19
1514899179269567,4,-31,-58,-30,-8,-2,21,-10
1514899179269567,2,-35,-6,5,-1,-1,3,11
1514899179271571,-17,3,52,27,7,2,7,15
1514899179271571,19,59,-51,-9,-7,-4,4,-4
1514899179292086,-40,-67,-39,-16,-5,-2,-21,-25
1514899179292086,-22,24,-6,-1,-1,-2,1,-14
1514899179293584,34,2,34,8,2,1,10,15
1514899179293584,1,45,15,0,-1,3,-6,5
1514899179307096,7,25,-4,-4,-7,-11,-13,-4
1514899179307096,-36,-19,-29,-2,-2,0,2,6
1514899179316600,2,16,30,12,3,3,5,-5
1514899179316600,3,11,-7,-25,-3,0,-1,5
1514899179329621,-2,-17,-14,4,2,2,-5,4
1514899179329621,0,69,52,17,5,1,-16,-17
1514899179331624,-10,-58,-48,-41,-13,-5,-5,-15
1514899179331624,-4,-30,-25,12,2,-2,-2,1
1514899179352635,-2,34,25,4,-1,3,1,1
1514899179352635,32,29,26,8,2,2,-1,6
1514899179358130,-13,-71,-39,-14,-5,-7,-5,0
1514899179358130,-15,52,13,3,1,2,-6,-15
1514899179374651,-20,-42,0,14,1,-3,13,34
1514899179374651,11,12,9,-18,-6,-4,-27,-45
1514899179376157,7,49,-19,-16,-8,-3,5,19
1514899179376157,-45,-60,-16,-5,-4,-4,-3,-17
1514899179389651,25,67,73,27,9,4,-7,9
1514899179389651,13,-34,-56,-4,-5,-5,13,9
1514899179391152,-18,-35,10,0,1,0,-4,-8
1514899179391152,0,-60,-30,-12,-6,-5,-2,6
1514899179420674,-10,37,45,18,2,0,-13,-28
1514899179420674,5,-51,-33,-27,-4,2,17,37
1514899179424176,-16,7,-18,3,2,1,-17,-45
1514899179424176,11,-57,12,9,1,1,1,1
1514899179434683,-8,-1,9,-2,0,2,9,-1
1514899179434683,21,19,-17,-6,-4,-4,-19,-18
1514899179436185,-2,11,15,10,1,2,5,24
1514899179436185,-15,-22,-8,15,3,-1,8,-14
1514899179449695,6,26,-28,-31,-7,-4,-8,-5
1514899179449695,-8,7,-11,-9,-5,-6,10,-2
1514899179457200,-40,8,10,5,0,-3,-2,-6
1514899179457200,37,39,-21,-1,3,2,5,14
1514899179472220,36,-27,25,6,3,1,-23,1
1514899179472220,-23,36,-23,-9,-7,-4,-3,-12
1514899179473720,6,-47,25,8,2,1,7,3
1514899179473720,-5,-55,34,-2,-3,1,4,5
1514899179494726,-19,42,16,2,-3,-3,5,9
1514899179494726,2,-20,-13,-3,3,4,2,3
1514899179497244,33,31,15,25,6,1,4,5
1514899179497244,-46,-14,-35,-19,-4,0,-6,-3
1514899179508752,6,-9,27,1,2,2,-5,-15
1514899179508752,-21,-19,-34,-1,-5,-5,0,-13
1514899179516766,-6,17,15,5,1,-1,12,13
1514899179516766,13,48,11,1,-3,-2,4,1
1514899179532790,-15,5,-15,1,0,-3,-7,-19
1514899179532790,2,19,26,-16,-1,0,0,8
1514899179534287,-7,-9,-16,1,-1,-1,-4,-3
1514899179534287,26,-37,15,-7,-3,-3,-4,-1
1514899179562327,-30,-7,-37,-2,-4,0,9,-8
1514899179562327,13,8,11,8,0,1,-1,22
1514899179564827,25,4,3,-6,-4,-4,-6,-6
1514899179564827,-7,5,10,-3,-4,-7,-10,-3
1514899179568828,-1,-10,-35,-12,-4,1,6,4
1514899179568828,-4,-34,6,10,3,1,-6,-3
1514899179575833,17,-10,-26,-6,-4,-4,0,3
1514899179575833,-7,21,3,4,1,-3,-2,-1
1514899179592357,12,-7,4,8,3,1,2,4
1514899179592357,17,43,24,12,-1,-4,-2,-6
1514899179593859,-2,-15,-4,-14,-2,1,2,6
1514899179593859,16,18,-19,-3,-1,-2,-5,-4
1514899179615364,-25,-5,-10,-4,-1,-3,0,-2
1514899179615364,5,-2,7,2,0,1,-2,-5
1514899179618876,-11,25,16,6,0,1,1,1
1514899179618876,2,5,-1,3,0,2,-1,4
1514899179628871,4,0,-2,-8,-4,-3,0,-2
1514899179628871,5,-3,17,6,2,2,1,-1
1514899179635881,-19,-14,-22,-13,-4,-5,-4,-4
1514899179635881,3,5,-1,10,1,0,-1,2
1514899179654401,9,8,23,-2,-1,-1,-1,1
1514899179654401,-7,-18,-14,-6,-3,-1,-1,-7
1514899179656402,-2,26,6,3,1,0,3,2
1514899179656402,3,-24,-2,5,-1,-3,-3,-3
1514899179674913,-4,24,21,-13,-2,1,0,-2
1514899179674913,-4,-3,10,5,0,-1,0,2
1514899179676405,3,-3,-12,-4,-2,-2,3,0
1514899179676405,-1,11,20,6,1,-1,-2,0
1514899179688913,0,-11,-20,-2,-2,0,0,-2
1514899179688913,-7,-8,5,-4,-1,-1,-1,-1
1514899179695927,-1,2,-10,-3,-3,-1,-3,0
1514899179695927,3,3,1,-2,-1,-2,1,2
1514899179712430,0,0,11,5,1,-2,0,-1
1514899179712430,4,2,-15,-4,-4,-3,-3,-2
1514899179713931,-7,5,16,4,0,0,0,-1
1514899179713931,-3,8,-13,-3,-1,0,-1,0
1514899179735448,1,-11,-9,-5,-3,-4,-3,-1
1514899179735448,-8,-5,0,-5,-3,-2,-1,-4
1514899179736947,-6,4,7,0,-1,-3,0,1
1514899179736947,3,-3,-17,-6,-2,-2,-2,-4
1514899179748969,5,10,18,12,2,1,-2,-1
1514899179748969,-4,-16,-6,-7,-3,-3,-3,-4
1514899179755972,-3,0,-10,-3,-2,-1,0,0
1514899179755972,2,7,20,3,1,0,-2,-1
1514899179771986,-4,-12,-4,-3,0,-1,-4,0
1514899179771986,1,9,4,5,2,1,1,0
1514899179773974,-2,-11,-14,-8,-2,-2,0,-2
1514899179773974,0,4,5,-2,-1,0,-1,-1
1514899179794500,0,0,-6,2,-2,0,-1,-2
1514899179794500,-2,4,12,3,1,0,-1,-1
1514899179796502,-2,0,-1,0,-2,-1,-2,-1
1514899179796502,-1,-3,-2,-2,0,0,-1,-2
1514899179809013,-6,-6,-7,-4,0,0,0,-3
1514899179809013,0,1,3,1,-1,0,0,-2
1514899179816504,-2,2,-1,-1,-1,0,-1,-1
1514899179816504,-3,-3,-4,-3,-2,-3,0,0
1514899179832515,-2,0,-2,-1,-1,0,0,1
1514899179832515,-2,0,0,0,0,-1,0,-2
1514899179840020,1,-1,-2,-2,0,0,-2,-1
1514899179840020,-2,-3,-1,-2,-1,-2,-2,-1
1514899179855030,-2,-1,-5,0,-1,1,0,-1
1514899179855030,0,0,1,0,-1,0,-2,-2
1514899179861535,-2,0,-4,1,0,-2,0,-1
1514899179861535,0,2,3,-2,0,-1,0,1
1514899179868540,-1,0,-1,0,-2,-2,-2,-1
1514899179868540,0,0,-2,-2,-2,-1,0,-1
1514899179877557,-2,-1,2,1,1,-1,-1,-1
1514899179877557,-3,-4,-2,-1,-1,-1,-2,-2
1514899179908068,0,-3,-4,0,0,-1,0,-1
1514899179908068,-1,-1,1,0,-2,1,0,1
1514899179910085,-2,-10,-4,-3,-1,-2,-2,-2
1514899179910085,0,2,-2,-1,-3,-3,-1,-1
1514899179915574,-1,1,-4,0,0,-3,-2,-1
1514899179915574,-5,-3,-2,0,1,0,0,-3
1514899179919076,-1,-2,-2,-1,-3,1,0,-1
1514899179919076,0,-5,-2,-2,-2,-3,0,-1
1514899179928082,-2,0,0,-1,-1,-1,1,-1
1514899179928082,1,0,0,1,-1,-1,-2,-1
1514899179938089,2,-1,1,0,-3,0,-2,0
1514899179938089,-9,0,0,-1,-1,0,-1,-2
1514899179952600,2,-1,-1,-3,-1,-1,0,-1
1514899179952600,2,0,1,1,0,0,0,0
1514899179953600,-1,1,-2,-4,-2,-4,-4,-3
1514899179953600,3,-4,-2,-2,-1,-3,-1,-1
1514899179982120,-2,-6,-2,0,-1,-2,-2,-2
1514899179982120,-2,-1,0,-2,0,1,-1,-1
1514899179983639,1,3,1,1,0,0,1,0
1514899179983639,-1,0,-1,-1,-1,1,1,1
1514899179988134,-6,-5,-5,-5,-6,-7,-8,-4
1514899179988134,0,0,-2,-2,-2,-1,-1,-1
1514899179997130,0,1,-1,0,2,-2,-1,-1
1514899179997130,1,-4,-2,1,-1,-1,0,1
1514899180012642,4,1,1,2,2,3,1,1
1514899180012642,-3,-1,-3,-2,-3,-2,-2,-3
1514899180014143,-1,-4,-1,-1,-1,-2,-1,-1
1514899180014143,-4,1,-1,-1,0,-1,-1,-1
1514899180042175,3,-1,-2,-2,1,0,1,0
1514899180042175,-1,0,-1,1,0,-2,-1,-1
1514899180043666,-2,1,-1,-1,0,1,-1,-1
1514899180043666,2,-5,-2,-2,-2,-1,-2,-2
1514899180048671,-1,4,0,-4,-1,-1,-1,0
1514899180048671,0,1,1,-1,-2,0,-1,0
1514899180057173,-1,1,-3,-2,-1,0,-1,0
1514899180057173,0,-3,0,-1,0,1,1,-1
1514899180072195,-1,0,-2,0,-1,-1,-3,-1
1514899180072195,-2,-3,-4,-2,-3,-4,-3,-1
1514899180074695,0,-2,0,-1,-1,0,1,-3
1514899180074695,0,-3,-1,-1,0,-1,-1,0
1514899180094710,-2,-2,1,-1,0,0,2,-1
1514899180094710,-3,0,-1,-2,-1,-2,-1,-1
1514899180097205,-1,0,-1,1,0,-1,-2,0
1514899180097205,-2,-1,-2,0,-3,-2,-2,-1
1514899180108213,-1,-1,-1,0,-2,1,0,0
1514899180108213,1,0,-2,0,-1,1,-2,-3
1514899180118217,0,-2,-1,-1,-1,-1,-1,0
1514899180118217,-1,-2,-1,-2,-2,-2,-1,-1
1514899180132240,-2,-2,-3,-1,-2,-1,-1,0
1514899180132240,-2,0,0,-1,0,0,-2,-1
1514899180133740,0,0,-1,1,1,-1,-1,-1
1514899180133740,-2,-3,-3,-2,-2,-4,-1,-2
1514899180154743,-1,0,-2,-3,-2,0,-1,0
1514899180154743,-3,0,-2,-1,0,-1,-1,-1
1514899180156243,-1,0,-1,-2,1,-1,1,-1
1514899180156243,1,-1,-2,-2,-1,-2,-3,-1
1514899180168252,-1,-2,-2,1,0,-1,0,-1
1514899180168252,0,-1,-1,-2,-1,0,0,2
1514899180192784,-1,-3,0,-1,-2,-2,-1,-1
1514899180192784,-1,-1,0,-1,-1,0,1,-1
1514899180194280,-3,-2,-2,-1,0,1,-3,-1
1514899180194280,-1,1,1,0,-2,-1,-2,-2
1514899180195281,-1,-3,-1,0,-4,-2,-2,-1
1514899180195281,0,-1,0,-1,-1,0,0,0
1514899180222290,-2,-1,0,-1,-2,-2,-1,-2
1514899180222290,0,0,-2,0,0,0,0,-2
1514899180222791,-1,-1,-2,-2,0,1,-1,-1
1514899180222791,1,-7,-6,-1,-3,-2,-1,-1
1514899180236313,-1,-1,-2,-1,-1,-1,-1,0
1514899180236313,0,-2,-1,-1,-2,-2,0,0
1514899180237302,-1,-1,0,0,-2,-1,0,-1
1514899180237302,-1,-3,0,-1,0,0,-2,-3
1514899180251321,-3,0,-2,0,0,0,-1,-1
1514899180251321,0,0,-2,-1,-1,-2,-1,-2
1514899180252311,-1,-2,-2,-2,-1,-4,-1,-2
1514899180252311,-2,-1,0,-2,-2,0,-2,1
1514899180273827,-1,0,1,-1,-1,-1,-3,-2
1514899180273827,-1,-1,-2,-2,0,-1,-1,-2
1514899180274837,-1,-1,-1,1,0,-1,-3,0
1514899180274837,-2,-1,-1,0,-1,0,0,0
1514899180296352,-1,0,0,-2,-1,-3,-1,-2
1514899180296352,-1,0,-1,-2,-2,-1,-1,0
1514899180297353,-2,-2,-1,-3,-2,0,0,-1
1514899180297353,-1,-1,0,-1,-2,0,-1,-1
1514899180311353,3,-1,0,0,-1,-2,-1,-2
1514899180311353,-1,-1,-1,-1,-2,-2,-2,-1
1514899180312364,0,-2,-2,-1,-1,-1,-1,-2
1514899180312364,-1,-2,0,2,1,-1,-3,0
1514899180333872,-2,0,-2,-1,-1,-1,-1,-3
1514899180333872,-1,-1,0,-1,0,0,0,-1
1514899180334870,-1,-1,0,-2,0,-1,-2,-1
1514899180334870,0,0,-2,-2,-1,-1,-3,-2
1514899180356395,0,-1,-1,-2,-3,-1,0,0
1514899180356395,-1,-1,-1,-2,-2,-3,0,-3
1514899180358395,-1,-2,-3,-1,1,-1,-1,-3
1514899180358395,-1,-1,-1,1,0,-1,-1,-2
1514899180371405,-2,1,0,0,0,0,0,-1
1514899180371405,-2,2,-1,0,-2,0,-3,-1
1514899180372406,0,-4,0,-1,-2,-3,-1,1
1514899180372406,-1,-1,-2,-1,-2,-2,-2,0
1514899180393911,-1,0,-2,-2,-2,1,-1,-1
1514899180393911,0,1,-1,-2,1,0,-1,-1
1514899180394913,-1,-3,-1,-2,0,0,-3,-2
1514899180394913,-2,-1,-1,-2,-1,-3,0,0
1514899180416928,-1,-3,-2,-1,-1,-2,-1,-1
1514899180416928,-2,-1,-1,0,-3,-3,-2,-2
1514899180424934,0,0,-1,0,-2,1,0,-1
1514899180424934,0,-1,0,-2,0,1,-2,1
1514899180431439,-1,-2,0,-2,0,-1,0,-1
1514899180431439,-1,-2,-1,-2,0,0,0,-2
1514899180432442,-2,-1,0,0,-2,-2,0,-1
1514899180432442,0,-2,-3,0,-1,0,0,-1
1514899180453958,-2,0,-2,0,-1,0,0,-1
1514899180453958,-1,0,-1,-1,-2,0,0,-1
1514899180454957,-2,-1,-1,-1,-2,-1,-2,-1
1514899180454957,-1,0,0,-3,-1,-1,-2,0
1514899180476482,-4,2,2,1,0,-1,0,-1
1514899180476482,0,0,-2,-1,0,0,-1,-1
1514899180476971,-2,0,-2,-1,-2,0,-2,-1
1514899180476971,-1,-2,-1,1,-1,-1,0,-1
1514899180491489,-1,-1,-1,-1,0,-1,-1,-2
1514899180491489,-3,-1,-2,-3,0,-1,0,0
1514899180492490,-2,-2,0,-1,-1,-2,0,0
1514899180492490,1,-2,-2,-3,0,-1,0,0
1514899180515010,0,-1,-2,-1,-1,-2,-3,-2
1514899180515010,0,0,-2,0,-2,-1,1,-1
1514899180516998,1,0,-2,-2,-2,0,-2,-2
1514899180516998,-2,-1,0,0,-1,-1,-1,-1
1514899180536521,-3,-2,-1,-2,-1,-2,0,-2
1514899180536521,0,0,-1,1,-1,-2,-1,-2
1514899180537013,0,0,-1,-1,-1,-1,0,-1
1514899180537013,0,-2,-1,-2,-2,-1,0,-2
1514899180551534,0,0,-2,-2,0,1,0,-1
1514899180551534,-1,0,-1,0,-1,-1,-1,-2
1514899180552023,-1,-1,-2,-2,-1,-1,0,-1
1514899180552023,0,-4,-3,0,0,-3,-2,-1
1514899180574051,-1,-1,-1,-3,-2,-2,-1,-1
1514899180574051,-1,0,0,0,-1,-1,-1,-2
1514899180575052,0,-1,0,-1,-1,-1,-1,-2
1514899180575052,-2,1,-2,-1,-1,-1,-2,-1
1514899180596569,0,0,-2,0,-1,-2,-1,-1
1514899180596569,-2,0,-1,0,0,1,-1,0
1514899180597565,0,-2,0,-1,-1,-1,1,1
1514899180597565,0,-1,0,-1,-1,-1,0,1
1514899180611568,-1,-2,-1,-1,-2,-3,-2,0
1514899180611568,0,-2,-1,-2,0,-1,-2,-2
1514899180612066,0,-5,-4,-2,-2,-3,-1,-3
1514899180612066,-2,0,-1,-1,0,-1,1,-1
1514899180634582,0,-1,-1,-2,0,-1,-1,0
1514899180634582,-1,-1,-1,-1,0,0,-1,-1
1514899180635084,0,-2,-1,-1,1,-1,-1,-3
1514899180635084,-1,-2,-1,-1,-3,-1,-1,-2
1514899180656598,0,-1,-2,-1,-3,0,-1,-2
1514899180656598,-1,-2,-1,-3,0,-1,-1,0
1514899180657098,-3,-2,-1,-2,-3,0,-2,0
1514899180657098,0,-3,0,-1,1,-1,-1,0
1514899180673610,0,0,0,-2,-2,-1,-2,-2
1514899180673610,-2,2,-2,-1,-2,-3,1,-1
1514899180674610,0,0,-1,0,-1,-1,0,-1
1514899180674610,-2,-1,1,-3,-1,-1,0,-1
1514899180694124,-1,0,-2,-2,0,0,1,-1
1514899180694124,-2,-2,-1,-2,-1,0,-2,-1
1514899180694624,0,-1,-2,0,0,-2,0,0
1514899180694624,-1,-2,-3,-1,-2,-2,0,0
1514899180717140,0,-1,-2,0,-1,0,-2,1
1514899180717140,0,-2,-2,-2,-1,0,-1,-1
1514899180719143,-2,-2,-1,-1,-1,-1,-2,-2
1514899180719143,1,-4,0,-1,0,1,-1,-2
1514899180731651,0,1,-1,-1,-3,-2,-2,-1
1514899180731651,-2,1,-2,-2,-1,0,-2,-3
1514899180732652,0,-1,0,1,-1,-1,-1,0
1514899180732652,-4,-2,0,-2,-3,0,-1,-2
1514899180754175,0,-2,-1,-1,0,-1,-1,-2
1514899180754175,-3,1,-2,-2,0,-2,0,-1
1514899180754666,-2,3,2,-1,0,-1,1,1
1514899180754666,-1,-1,-1,-1,0,-2,-1,-1
1514899180776704,-2,-1,0,0,-2,0,-2,-1
1514899180776704,0,0,-2,0,-3,-1,0,-1
1514899180777195,-2,-3,-2,-2,1,0,-2,-1
1514899180777195,-1,0,-2,-1,-2,-3,0,0
1514899180791714,0,0,-2,0,-1,0,-2,-1
1514899180791714,-1,-2,0,0,-2,-1,-1,0
1514899180792192,-2,-2,-1,-1,-2,-1,-1,-1
1514899180792192,-1,-1,-2,0,-1,-2,0,-1
1514899180814208,0,0,-2,-2,-2,0,-1,-2
1514899180814208,-2,-1,-1,-2,-1,-2,-1,-1
1514899180816211,0,-3,-1,-1,-1,-1,-1,-1
1514899180816211,-1,-1,1,-1,-1,-1,1,-1
1514899180836232,-3,-2,0,-1,0,1,0,0
1514899180836232,-1,0,0,-1,0,-1,-1,0
1514899180837224,-1,-1,-3,-1,0,0,-2,-2
1514899180837224,1,-1,-1,0,0,-1,-1,-1
1514899180850734,-2,0,-2,0,-1,0,0,0
1514899180850734,-2,-1,-1,-1,-1,0,-1,-3
1514899180858741,1,-1,-1,-2,-1,-1,-2,0
1514899180858741,-2,-1,-1,0,0,0,-3,0
1514899180874261,-1,0,-1,0,1,-3,0,0
1514899180874261,-2,-3,-2,-3,-2,-2,-2,1
1514899180875251,-2,-3,-1,-2,-1,-2,-2,-3
1514899180875251,0,-1,-1,0,-1,-1,-2,0
1514899180904773,0,-2,0,-1,-2,-1,-1,-1
1514899180904773,-1,-1,0,-1,0,-1,-1,0
1514899180906273,-3,-3,-2,1,-2,-1,-1,-1
1514899180906273,0,-1,-1,-1,1,-1,1,-2
1514899180911280,-1,-1,-2,-2,0,-1,-2,-2
1514899180911280,-1,0,-1,-1,-2,0,1,-2
1514899180918783,-1,0,-1,-1,-2,-2,-1,-1
1514899180918783,-1,-2,0,-1,-1,-1,-1,0
1514899180933793,-2,-3,1,-1,-1,-1,-1,-3
1514899180933793,-2,0,-3,0,-1,-2,-2,-2
1514899180934793,0,-1,-2,0,-1,0,1,0
1514899180934793,-1,-2,-2,-2,-1,-2,0,-2
1514899180956318,-1,-1,-2,-1,1,0,-1,1
1514899180956318,0,0,0,-1,-2,0,-2,0
1514899180957309,-1,-1,1,-2,-1,-1,-1,-2
1514899180957309,-2,-1,-2,-1,-1,-3,-2,-1
1514899180970819,-2,1,-2,0,-1,-3,-2,-1
1514899180970819,-1,0,-1,-1,0,0,1,-1
1514899180978837,-1,0,-1,-2,2,-1,0,-1
1514899180978837,-2,-2,-1,0,0,0,-1,-1
1514899180993839,-2,-1,0,-1,-2,-1,-1,0
1514899180993839,0,-1,-1,0,-2,-1,-1,-2
1514899180994839,1,-2,0,-1,0,0,0,-1
1514899180994839,-1,-2,0,0,-1,0,-1,-1
1514899181024857,-1,-2,-2,-1,-2,-1,-1,-1
1514899181024857,-1,-3,-1,0,-2,-1,-1,-2
1514899181025357,-2,-2,-1,-1,-1,-1,0,-1
1514899181025357,-1,-1,0,1,0,0,-3,0
1514899181030861,-2,1,-1,-1,-3,-2,-3,-1
1514899181030861,-2,1,-1,1,0,-1,-2,-1
1514899181038879,-1,-3,-1,0,-2,-1,-2,-1
1514899181038879,0,-1,1,-2,-1,-1,0,-2
1514899181053887,-1,-1,-1,-3,0,0,-2,-2
1514899181053887,0,1,-1,-2,-1,-1,-2,-2
1514899181054888,0,-2,0,0,-1,0,-1,1
1514899181054888,-1,-1,-1,-3,-3,0,-1,0
1514899181076394,-2,-1,-2,-1,-1,-1,1,-2
1514899181076394,-2,-2,-2,-2,-2,-1,1,-2
1514899181077395,-1,-1,-2,0,0,0,0,-2
1514899181077395,0,-1,-1,0,-3,-2,0,-1
1514899181090916,0,0,0,-1,-2,0,-1,-2
1514899181090916,0,-1,-2,-3,-2,-1,-1,-1
1514899181098920,-2,-1,-1,-2,-1,-2,-2,0
1514899181098920,-2,0,-2,-1,-1,-1,-2,-1
1514899181114921,-1,-1,-1,0,-2,-1,-1,-2
1514899181114921,-1,0,0,0,1,-1,-3,-1
1514899181116423,-1,-2,-1,-1,0,-1,-2,-1
1514899181116423,0,0,-1,-1,-1,-1,-1,1
1514899181136451,-2,-1,-1,-2,1,-1,-1,0
1514899181136451,0,-1,0,0,-2,-1,0,0
1514899181137437,0,0,-2,0,0,-1,1,-1
1514899181137437,-1,0,-1,0,1,-1,-1,-2
1514899181150946,-2,-1,-1,-1,-2,0,-1,-3
1514899181150946,-1,-1,-2,-1,-1,-2,-1,0
1514899181158952,-1,-2,-1,-3,0,-1,-1,1
1514899181158952,-2,-3,-1,-2,-1,0,0,-1
1514899181173991,-1,-1,-1,0,-1,-2,0,0
1514899181173991,0,-2,-1,-2,-2,-1,0,-2
1514899181174992,-1,-1,-1,0,-1,-1,0,0
1514899181174992,0,-2,-2,-2,-2,-2,-1,-3
1514899181197021,-1,-1,0,-2,-1,1,-1,-2
1514899181197021,0,0,-2,-1,-2,1,-1,-2
1514899181198009,-2,-2,-1,-1,-2,-1,-1,-4
1514899181198009,-1,-1,-2,-1,0,-1,0,0
1514899181211044,-1,-2,-2,-1,0,1,0,-1
1514899181211044,0,-1,-1,-1,-2,-2,-2,-1
1514899181219040,0,-1,-1,-2,-2,-1,0,0
1514899181219040,-1,-1,-1,-1,-1,1,0,-1
1514899181234067,-1,-1,0,-1,-3,-3,-1,-1
1514899181234067,0,-2,-2,0,0,-1,-2,-1
1514899181234551,-2,-1,-1,-1,0,-2,1,0
1514899181234551,-1,-1,-2,-1,-1,1,-2,-1
1514899181256066,0,0,-1,0,-1,0,-1,-1
1514899181256066,-1,-3,-3,-1,-3,0,-2,0
1514899181264072,-1,-1,-1,-1,-1,-1,-2,0
1514899181264072,-1,-1,-2,-1,-1,-3,0,0
1514899181279596,0,0,0,-1,-1,-1,-2,-2
1514899181279596,-1,-1,0,-1,-1,-2,0,-2
1514899181280593,1,-2,-1,0,-2,0,-1,-1
1514899181280593,0,-1,-1,-1,-1,-1,-2,-1
1514899181294103,-1,1,-2,-1,-3,-1,-3,-1
1514899181294103,-1,0,0,-2,-1,0,-1,1
1514899181295093,-1,-1,-1,-1,1,-1,0,-1
1514899181295093,-2,0,0,-1,-1,-1,-2,-1
1514899181317109,-1,-1,1,-1,0,-1,-1,0
1514899181317109,-2,0,-2,-1,1,0,-1,-3
1514899181319121,0,-2,-2,-1,-2,-1,0,-1
1514899181319121,-1,-1,1,0,0,-2,-1,0
1514899181339635,0,-1,-1,-1,0,-2,0,-1
1514899181339635,-1,0,-2,-2,-1,0,-1,0
1514899181340636,-1,-3,-1,-1,0,-2,-1,-2
1514899181340636,-1,-1,-2,-1,-1,-2,0,0
1514899181362156,-1,1,-3,-2,-1,-1,0,-2
1514899181362156,-2,-1,0,0,0,-2,-2,-1
1514899181363153,-1,-2,-1,1,0,-2,-1,-1
1514899181363153,-1,-1,0,-1,-2,1,-1,-1
1514899181376661,-1,-2,-1,0,0,0,-2,-1
1514899181376661,0,-1,-4,-1,-2,-2,-1,-1
1514899181377164,-1,0,-1,-1,0,-1,-1,1
1514899181377164,-2,0,-1,0,0,-1,-1,-2
1514899181399686,-2,0,-2,-1,0,0,0,-1
1514899181399686,-1,0,0,-2,-1,-1,0,1
1514899181400670,-2,-1,-2,-2,-3,-1,-2,-1
1514899181400670,-2,-1,0,-1,-1,-1,-1,-1
1514899181414678,0,-1,-4,-2,-1,0,0,-2
1514899181414678,-1,-2,0,0,-1,-1,-1,-2
1514899181416680,-1,-1,-2,-1,1,-1,-1,-1
1514899181416680,-1,-2,-1,-1,-1,1,-1,0
1514899181436694,-2,0,1,1,-2,-3,-1,-1
1514899181436694,-2,0,0,0,-2,0,-3,-1
1514899181437195,-2,-1,1,-2,-2,-1,-1,0
1514899181437195,0,0,-1,-1,-1,-2,0,-1
1514899181460211,-2,0,-1,-2,0,-1,0,0
1514899181460211,-3,-3,-2,0,-1,-2,0,-1
1514899181462215,-2,-3,-1,-1,-1,-2,-2,0
1514899181462215,1,-3,-1,-1,-2,-2,-2,0
1514899181473720,-1,-1,1,-2,-2,-1,0,-1
1514899181473720,0,0,-2,-1,1,1,-1,-2
1514899181474721,-1,-2,-1,-2,-2,1,0,-2
1514899181474721,-1,-1,-2,-1,-2,-1,-1,1
1514899181496773,-1,-1,-1,-1,-1,0,-2,-1
1514899181496773,-2,0,-1,-1,-2,-2,1,-2
1514899181497237,-1,-1,-3,0,-1,-2,-1,-1
1514899181497237,-1,0,-1,-3,0,-3,0,-3
1514899181519753,-1,-2,-1,-1,-2,0,0,-1
1514899181519753,-1,-2,-1,-1,-1,-1,-1,-1
1514899181520252,-1,0,-1,-1,-1,-2,-1,-1
1514899181520252,-2,-1,0,0,-2,-2,0,-2
1514899181533774,-2,0,-1,-2,0,-1,-2,1
1514899181533774,-1,-1,-1,-1,-1,0,0,0
1514899181534775,1,-2,0,-2,-2,-2,0,-2
1514899181534775,-1,-2,-1,0,1,0,-2,0
1514899181556278,0,-1,-1,-2,-1,-1,-2,-2
1514899181556278,-2,-1,0,-1,0,-2,0,0
1514899181557279,-1,-2,-3,-2,1,-1,-1,-1
1514899181557279,-1,-1,-1,-1,-2,-1,0,-1
1514899181579802,-1,-1,-1,-1,-1,-2,-1,-3
1514899181579802,0,-2,-1,-2,-2,0,-1,0
1514899181580295,-1,-2,-2,-1,-1,-2,0,0
1514899181580295,-2,-1,-1,-1,0,1,-1,-1
1514899181593814,-2,0,-2,-1,-1,-1,0,-1
1514899181593814,-1,-1,-1,-2,-1,-2,-2,-2
1514899181594815,0,-1,-2,0,-2,-1,-1,-1
1514899181594815,-2,-1,-2,0,1,-1,-1,-1
1514899181617322,-1,0,-1,-2,-1,-1,0,0
1514899181617322,0,0,0,0,-1,-2,0,-1
1514899181619323,-3,0,-1,-1,0,-2,-1,-2
1514899181619323,0,0,-1,-2,-2,-2,-1,0
1514899181639346,0,-2,0,0,-3,-1,0,0
1514899181639346,0,-1,-2,-1,0,-1,0,-1
1514899181640348,-1,-2,-2,-2,-2,0,-1,-1
1514899181640348,0,-1,-2,-2,0,0,0,-1
1514899181653857,-1,-2,-2,0,-1,-2,-1,-1
1514899181653857,0,-1,-1,0,-2,-1,-1,0
1514899181654848,0,-1,0,-2,-2,-1,-2,0
1514899181654848,-2,-1,-1,-1,-1,0,-1,-1
1514899181676373,0,-1,1,-1,-1,0,0,-1
1514899181676373,-1,-1,-3,0,-2,-1,-2,-2
1514899181677374,-2,-2,-2,0,-1,-3,-2,-1
1514899181677374,-1,-2,-1,-1,-2,-3,0,0
1514899181699879,-1,0,-2,-1,-1,0,0,-2
1514899181699879,-2,-2,0,-1,-2,0,-2,-1
1514899181700396,0,-2,0,-1,0,-1,-2,0
1514899181700396,0,0,-2,0,-2,-1,-3,-2
1514899181714891,-1,2,0,1,-2,0,-1,-2
1514899181714891,-3,-2,-2,-1,-1,-2,0,-1
1514899181716891,0,-1,-2,0,-1,-1,-1,0
1514899181716891,-1,-2,0,0,0,-1,-1,-1
1514899181736417,-2,-1,-1,-2,0,-1,-1,-1
1514899181736417,0,-2,-1,-2,-1,0,-1,-2
1514899181737416,-1,-4,-1,-1,-2,0,0,-2
1514899181737416,-1,-2,-1,-1,-1,0,-1,-3
1514899181760748,-1,1,-1,0,-1,-1,-1,0
1514899181760748,-1,0,-2,-2,-1,-2,-1,-1
1514899181761748,-2,-1,-3,0,0,-1,-1,-1
1514899181761748,0,0,-1,-1,-1,-1,-1,0
1514899181773757,-2,0,-1,-1,-3,-2,-1,-2
1514899181773757,1,-2,-2,-1,0,-2,-1,-1
1514899181774758,-1,-2,0,-1,-2,-2,0,-1
1514899181774758,-1,-1,-2,-1,-2,-1,0,0
1514899181796774,-1,0,0,-2,0,0,-1,-1
1514899181796774,1,-3,-1,1,-2,0,-2,0
1514899181797783,0,-3,0,-2,-1,-1,-1,1
1514899181797783,-2,-1,0,-1,1,1,0,0
1514899181819790,-2,-1,0,0,-1,1,-1,-1
1514899181819790,-2,-1,-1,0,-1,-2,-2,-2
1514899181820290,-2,-2,0,-1,-1,-3,-1,-2
1514899181820290,-2,-1,-1,-1,-1,-1,-1,0
1514899181833300,1,-1,-2,-1,-1,-1,-2,0
1514899181833300,-1,-2,-1,-1,-2,0,-1,-1
1514899181841818,-1,0,-1,0,0,0,-1,-1
1514899181841818,0,-2,-1,-1,-1,-2,-1,-1
1514899181864321,-2,1,-1,-2,-1,-2,0,-1
1514899181864321,-1,-2,0,-2,0,-1,0,-1
1514899181865321,-1,-3,-1,-1,0,-1,-2,-1
1514899181865321,-2,-1,-1,0,-1,-1,1,0
1514899181879832,0,-1,-1,-2,-1,-2,-3,-2
1514899181879832,-1,-2,-1,-1,-1,0,0,0
1514899181880333,-3,-1,-1,0,-2,-1,-1,-3
1514899181880333,0,-2,-1,-3,0,-2,-2,0
1514899181893341,-2,-1,-1,-2,-2,0,1,-1
1514899181893341,-2,-1,-1,-1,-1,-2,1,0
1514899181901347,-1,-2,0,-1,-1,-2,0,0
1514899181901347,-2,1,-1,-1,-2,-2,0,-2
1514899181917362,-2,-1,-2,-2,-1,-1,-1,-3
1514899181917362,0,0,-1,-2,0,-1,-2,-2
1514899181917860,0,-2,-2,0,0,0,0,0
1514899181917860,-2,0,-1,0,-2,0,-1,-2
1514899181939874,0,-2,-1,0,-2,1,-2,1
1514899181939874,-3,-1,-1,-1,-1,-1,-1,-1
1514899181941387,-1,1,-3,-1,-1,0,-2,0
1514899181941387,-1,-2,0,-1,-1,0,-1,-1
1514899181953394,-2,-3,-2,0,0,-3,0,-3
1514899181953394,0,-1,-3,-1,0,0,-1,-1
1514899181968895,-1,0,-1,-2,0,-1,-1,-1
1514899181968895,-2,-1,-2,1,0,0,0,-1
1514899181976400,-1,0,1,-2,-2,-1,-1,0
1514899181976400,-2,-2,-1,-2,-1,-1,-2,0
1514899181977401,-1,-2,0,0,-3,1,0,-1
1514899181977401,-1,-2,-1,-2,-2,-1,-1,-1
1514899181999942,-2,0,-3,-1,1,1,-2,0
1514899181999942,-1,0,-1,-2,-1,-5,-3,0
1514899182000418,2,-3,0,-2,-2,-2,-1,-1
1514899182000418,0,-2,-1,-1,-1,-1,-2,-2
1514899182021432,0,0,-3,-1,-1,-3,-1,-2
1514899182021432,-1,-2,-1,0,0,0,0,-1
1514899182028938,-2,-2,-2,-2,-1,-3,-1,-1
1514899182028938,-1,0,-1,-2,0,-1,0,0
1514899182036957,-1,0,-2,-1,-1,-2,-3,-2
1514899182036957,-1,-1,-1,-1,-1,1,0,-1
1514899182037958,0,-3,0,-1,-1,-1,1,-1
1514899182037958,-1,-1,-1,-2,-3,1,-2,0
1514899182060469,-1,-1,-2,-1,0,-1,0,-1
1514899182060469,1,-2,-1,-1,-2,1,-1,-2
1514899182061961,0,-1,-1,0,-1,1,-2,-2
1514899182061961,-2,-2,-1,-1,-1,-2,-1,-1
1514899182082478,0,0,-2,0,0,-1,-2,-1
1514899182082478,-1,-2,0,-2,-1,-2,-1,-1
1514899182082977,-1,0,-1,-2,-1,-1,-3,0
1514899182082977,-1,0,-2,0,-1,-1,-1,-2
1514899182096995,-2,1,0,0,0,-1,-2,0
1514899182096995,-1,-1,0,0,-2,0,-1,-1
1514899182097996,-1,-4,0,0,-2,-1,1,0
1514899182097996,-2,-3,-2,0,0,1,0,-1
1514899182120002,-2,-1,-1,0,0,0,2,0
1514899182120002,-2,0,-2,-1,0,-1,-2,0
1514899182121003,-2,-2,-2,-1,-1,-2,-1,-1
1514899182121003,-1,0,-1,-2,-1,-1,-3,-1
1514899182133527,-1,-1,0,0,-1,1,-2,-3
1514899182133527,0,-1,0,-2,0,0,0,-3
1514899182141571,-2,0,-1,-2,-1,0,0,0
1514899182141571,2,-1,-2,0,-1,0,-2,-1
1514899182157071,-1,-1,-1,0,-2,-1,-1,0
1514899182157071,-1,-3,0,-3,0,-2,-1,-2
1514899182158071,-1,-3,-1,-1,-1,-1,0,0
1514899182158071,-1,-1,-1,-1,0,-2,0,-2
1514899182179598,-1,0,0,0,-3,0,0,-1
1514899182179598,0,-1,-2,0,-1,0,0,0
1514899182180598,1,-3,-2,-1,-2,-2,0,0
1514899182180598,-2,-2,-1,-1,-2,0,0,-1
1514899182202102,-1,1,-1,-1,0,-1,-2,0
1514899182202102,0,-2,-2,0,-2,-3,-2,-1
1514899182203102,-1,0,-1,0,-1,0,-2,-1
1514899182203102,-2,0,-2,1,-1,0,0,-1
1514899182217612,0,0,0,-1,-1,0,-1,0
1514899182217612,-3,-2,-1,-3,-3,-2,-2,0
1514899182218613,0,-2,-1,0,0,0,-1,-1
1514899182218613,0,0,-1,-1,0,-2,-1,-2
1514899182239629,1,0,-2,-1,-1,-2,-2,-2
1514899182239629,0,0,0,0,-1,-2,-1,-2
1514899182240630,-4,-2,0,0,-1,-2,-2,-1
1514899182240630,-1,0,-2,-2,-1,0,0,0
1514899182262158,-1,-2,-3,-3,-1,-1,1,-1
1514899182262158,-1,-2,-2,0,-1,-2,-1,-3
1514899182263145,0,-2,-1,-3,-1,-2,0,-3
1514899182263145,0,-1,-2,-1,-1,1,-1,-1
1514899182284672,-1,0,-1,-1,-3,-1,-1,-2
1514899182284672,1,-1,-2,0,-1,-2,1,0
1514899182285160,0,1,-1,0,-1,1,-2,-1
1514899182285160,-1,-2,-1,0,-1,-1,-1,-2
1514899182300673,-3,-1,-1,-2,-1,-1,-1,-1
1514899182300673,-3,-2,-1,-1,-1,-2,-2,0
1514899182301173,-1,-1,-2,-1,-1,0,-1,0
1514899182301173,-1,1,0,-2,-2,-1,-3,0
1514899182322187,-1,-1,-3,-3,-2,-1,0,-3
1514899182322187,0,-1,-2,-1,-1,0,0,-1
1514899182323688,0,-2,-2,-2,0,-3,-2,-1
1514899182323688,-2,0,0,0,-1,-1,-1,-1
1514899182335709,0,-1,-2,0,0,-1,0,-2
1514899182335709,-2,-3,-1,-2,-1,0,-1,-1
1514899182344702,-1,-1,-2,-1,-2,-2,0,-3
1514899182344702,0,-3,-1,-1,-1,-1,-1,-2
1514899182360216,-3,0,1,-1,0,-2,-2,-1
1514899182360216,2,-1,-1,-1,-1,-1,0,-1
1514899182362725,-2,-2,-1,0,0,-2,-2,-1
1514899182362725,-3,-1,0,-1,-1,-2,-2,-1
1514899182382230,-1,0,0,-1,-2,-1,-2,-1
1514899182382230,-2,-2,-2,-1,1,-1,-3,-1
1514899182383732,-2,-2,0,0,1,0,0,1
1514899182383732,-1,0,-1,-3,-2,-2,-1,-1
1514899182395748,-2,-1,-1,-1,0,-2,-2,-2
1514899182395748,-1,-1,-2,-1,0,0,-2,-1
1514899182404745,0,-3,0,-1,-2,-2,0,-1
1514899182404745,-1,0,-2,-1,0,-2,-2,0
1514899182419756,-2,-2,-2,0,-2,-1,-1,-2
1514899182419756,-1,0,0,0,-1,0,0,-3
1514899182421257,-2,-1,0,-2,-1,-2,-1,0
1514899182421257,-1,-2,-2,1,-3,-1,-1,-1
1514899182442281,-1,0,-1,-1,0,-1,0,-3
1514899182442281,-1,0,-1,-1,-2,-1,-2,0
1514899182443774,-1,-1,-1,-2,-1,-2,-2,0
1514899182443774,0,0,-1,0,-3,-1,3,1
1514899182456295,-1,-1,-1,-2,-1,-1,-3,0
1514899182456295,-1,-3,-1,-2,0,0,1,0
1514899182463286,2,-2,1,-1,-1,-1,4,20
1514899182463286,-3,-2,-2,-3,-1,-1,-7,-27
1514899182479806,0,2,1,-2,-2,0,0,-4
1514899182479806,-1,-2,-1,-1,-2,0,1,-4
1514899182481300,-2,-4,-2,-1,-2,-3,-7,-3
1514899182481300,-1,0,-1,-1,0,-1,0,8
1514899182502816,-3,0,-2,-2,-1,-1,-2,-3
1514899182502816,-1,-1,-1,-1,0,-1,0,1
1514899182504825,-1,-2,-1,1,-1,1,-1,-4
1514899182504825,1,0,-2,0,-2,1,-1,2
1514899182516326,-1,-1,-2,-3,-1,-2,0,-1
1514899182516326,-1,-2,0,-1,-1,-2,0,2
1514899182524845,0,-1,-1,-1,0,-1,0,-6
1514899182524845,-2,1,1,-2,-1,-2,-2,0
1514899182540351,-1,1,-1,1,0,-2,1,5
1514899182540351,0,-1,-2,-1,-1,-1,-4,-1
1514899182541853,-2,-2,-2,-1,-2,0,-1,-5
1514899182541853,-1,0,-2,-1,1,-1,0,2
1514899182562356,-1,-1,0,-1,-3,0,-2,-4
1514899182562356,-1,-3,0,-1,-2,-2,-2,-2
1514899182564858,-1,-1,-1,0,-3,0,0,-4
1514899182564858,-1,0,0,0,0,0,1,3
1514899182584872,-2,-1,-2,-1,-1,-1,-1,-1
1514899182584872,0,-1,-1,-2,0,-1,-1,-2
1514899182586374,0,-3,-1,-1,0,-1,0,0
1514899182586374,-1,0,0,-1,-1,-1,1,1
1514899182600384,-1,-2,-2,-1,-1,0,-3,-2
1514899182600384,-1,-3,-1,-2,-3,-1,-1,0
1514899182601885,-1,-1,0,-1,0,-1,0,-2
1514899182601885,-2,1,-2,-2,-3,-2,-3,0
1514899182621898,-1,-2,-4,-1,-3,-1,-1,0
1514899182621898,-2,-1,-1,-1,0,-2,-1,1
1514899182623900,0,-1,-1,-1,0,-1,-2,-2
1514899182623900,-1,1,0,-2,-1,0,-2,-3
1514899182651920,-1,-1,-1,0,-1,-2,0,-2
1514899182651920,-2,0,-2,-1,-1,-2,-1,-2
1514899182653921,-3,0,-1,-1,-1,-1,-3,-2
1514899182653921,-1,-1,-2,-1,-1,0,-1,-1
1514899182659925,-2,-2,0,0,-1,-1,-1,-1
1514899182659925,0,-2,-2,0,-1,-2,-1,-1
1514899182662927,-3,-3,-2,0,0,0,-2,-2
1514899182662927,-1,-2,-1,-1,-1,-1,0,1
1514899182682442,1,0,-2,-2,-1,0,-3,-2
1514899182682442,0,-1,0,-2,-1,-1,-1,-2
1514899182683946,0,0,-1,-1,-1,-3,-1,1
1514899182683946,-2,-2,-3,-1,-1,-2,-1,0
1514899182695952,0,0,-2,0,-1,-1,1,-1
1514899182695952,-1,-1,-2,-1,-2,-2,-2,0
1514899182704957,0,-2,-1,-2,-3,-2,-1,0
1514899182704957,0,-2,0,-1,-1,-2,0,-2
1514899182720977,-1,-2,-1,-2,-2,1,-2,-2
1514899182720977,-2,-2,0,0,1,-1,1,-1
1514899182723484,-1,0,-1,-1,0,-1,0,-1
1514899182723484,0,-1,-1,1,1,-1,-3,-1
1514899182742486,-1,0,-2,-2,-2,0,-2,0
1514899182742486,-1,-2,-2,-1,-1,-1,-3,1
1514899182743988,-1,-2,-1,-1,-1,1,-2,-2
1514899182743988,0,1,-1,0,0,0,1,0
1514899182755995,-1,-1,0,0,-1,0,1,1
1514899182755995,0,-2,-1,-2,-1,0,1,-2
1514899182765000,-1,1,0,0,-1,-2,0,-1
1514899182765000,-1,-1,-2,-2,-2,-3,-1,-2
1514899182779510,-3,-1,-1,-2,-1,-2,0,-1
1514899182779510,0,-3,0,-1,-1,-1,-1,-1
1514899182781010,-1,-1,-2,-1,0,0,0,-1
1514899182781010,-2,-1,-1,-2,-2,0,-1,0
1514899182803531,0,0,0,0,-2,0,0,-1
1514899182803531,-1,-1,-2,0,0,1,0,1
1514899182804532,-1,-2,-1,0,0,-1,0,-1
1514899182804532,-1,-1,-1,1,0,1,0,-2
1514899182815535,-1,1,-2,-2,0,0,-2,-1
1514899182815535,-1,-2,-2,-2,0,-1,-2,-1
1514899182825045,-1,-3,0,-1,0,0,-1,-1
1514899182825045,-2,-1,-1,-1,-1,-1,-1,0
1514899182840056,-1,-1,0,-1,0,-1,-1,-1
1514899182840056,-2,-2,-1,-1,-1,-1,-2,-1
1514899182841554,-2,-1,-1,0,0,0,-1,-1
1514899182841554,1,-2,-1,-2,-2,-1,-1,-2
1514899182863070,-3,-2,-2,0,0,0,-2,-1
1514899182863070,0,-3,-1,-1,-1,-1,-1,-1
1514899182865572,0,-2,0,0,0,-1,-2,0
1514899182865572,-2,-1,0,-3,-1,0,-1,-2
1514899182876079,0,0,0,0,-2,-1,-1,-1
1514899182876079,-3,-1,-1,-1,-1,-2,0,-1
1514899182885085,-1,-1,-1,-2,-1,0,1,0
1514899182885085,0,-1,-3,0,-1,-1,-2,-2
1514899182899596,-1,-1,-2,-1,-3,-2,-1,-4
1514899182899596,-1,-1,-3,-1,-1,0,-1,-2
1514899182902097,2,-1,-2,-2,-1,-3,-1,1
1514899182902097,-1,-1,1,-2,-2,0,-3,-2
1514899182922611,-1,-1,0,-1,1,-2,0,-2
1514899182922611,0,-2,1,-1,0,0,0,-2
1514899182926114,-2,-1,-2,-2,0,0,0,-2
1514899182926114,-3,-1,-1,-2,-1,-1,0,-1
1514899182936123,-1,-2,-2,0,-2,-2,-1,-2
1514899182936123,-1,-1,0,-2,-3,-3,-1,-1
1514899182945127,-1,-1,0,-1,-2,-1,1,-1
1514899182945127,0,-2,0,-2,-1,0,-1,0
1514899182959640,0,-1,-1,0,0,-2,-1,-2
1514899182959640,-2,-1,-3,-2,-1,-2,-3,1
1514899182961141,0,-3,-1,0,-2,-2,0,-2
1514899182961141,-2,0,-1,-2,-1,-3,0,0
1514899182982654,-2,1,-3,-1,-1,0,-1,0
1514899182982654,-2,0,-1,0,-2,-1,0,-2
1514899182988659,-1,-1,-1,-4,-2,0,-2,0
1514899182988659,-1,-1,-1,-1,-2,0,0,-2
1514899182995664,-1,-1,0,-2,0,-3,-2,0
1514899182995664,-2,-1,-2,0,-1,-1,-1,-4
1514899183005170,-1,-1,1,-1,0,-2,-1,1
1514899183005170,-1,0,0,0,0,-1,-1,-1
1514899183019680,0,0,0,-3,-2,0,0,-1
1514899183019680,0,-2,-1,-1,-1,0,0,-3
1514899183021182,0,-1,-1,-1,-1,-2,-1,-1
1514899183021182,-2,-2,0,-1,-1,-1,-1,0
1514899183042696,-1,-2,-2,-2,0,0,-2,-2
1514899183042696,0,-3,-1,-1,-1,-1,-2,2
1514899183046198,-1,-3,-2,0,1,-1,-2,0
1514899183046198,-1,-1,-1,0,-4,-1,1,0
1514899183064711,-1,-1,-2,-3,-2,-1,-2,-2
1514899183064711,-1,-3,-1,0,0,0,0,-1
1514899183066212,-2,0,-1,-2,0,1,-1,0
1514899183066212,0,-1,-3,0,1,-1,-1,0
1514899183079722,-2,-2,-1,0,-3,0,-2,-2
1514899183079722,-1,-1,0,-2,-1,-1,-2,-1
1514899183081223,0,-1,-1,0,0,0,0,0
1514899183081223,0,1,-1,-1,-1,-1,-1,-1
1514899183102738,0,-1,-2,1,-2,-3,0,-1
1514899183102738,0,0,-2,-1,0,1,-3,2
1514899183104240,0,-2,-1,-3,-1,-2,-1,-2
1514899183104240,0,0,-3,-2,0,-2,-1,-2
1514899183125261,0,-2,-2,0,-1,-1,1,-1
1514899183125261,-1,-2,-1,-2,-1,-1,-2,0
1514899183126264,-2,0,-1,-1,-1,-1,0,-2
1514899183126264,-2,0,-1,-3,1,0,-1,-1
1514899183139766,-2,0,-1,-2,0,-1,-4,-2
1514899183139766,-1,-1,1,-3,0,-1,0,0
1514899183141265,-1,-1,-1,1,-2,-2,-1,-1
1514899183141265,-1,-1,1,0,-1,0,-1,-3
1514899183162280,-1,0,-1,-2,0,0,-1,-1
1514899183162280,0,-1,-2,-1,-1,-2,1,0
1514899183163781,0,-1,-1,-1,0,0,-1,0
1514899183163781,-2,1,-1,-1,-1,-1,-2,-1
1514899183184797,-1,-2,0,0,-1,0,-3,-1
1514899183184797,-1,-2,-1,-1,-1,-1,0,-2
1514899183186299,-1,-1,-2,1,-1,-2,-2,-2
1514899183186299,-1,0,-2,-1,-1,-2,-2,-1
1514899183199806,-2,0,-1,-1,0,-1,0,-2
1514899183199806,-2,-1,1,-1,-1,-1,0,0
1514899183201309,-1,-1,-1,0,-2,-2,-1,-1
1514899183201309,-1,-1,-1,-1,-1,0,-1,-2
1514899183223324,-2,-1,0,-2,-2,-2,-3,-1
1514899183223324,0,0,-1,0,-1,-2,-1,-2
1514899183225840,-1,-2,-2,-4,-1,-1,-1,-1
1514899183225840,1,-1,-2,-2,-1,-1,0,0
1514899183244355,0,-2,-1,-1,-3,-2,0,0
1514899183244355,0,-2,-1,-2,-1,-2,-1,-2
1514899183246356,0,0,1,0,0,-1,-2,0
1514899183246356,-1,-1,-1,-1,0,0,-1,-2
1514899183258858,-1,-3,-1,-2,-1,0,0,-2
1514899183258858,-1,-1,-2,-2,-2,-1,0,0
1514899183265855,-2,0,-2,-1,0,0,0,-2
1514899183265855,-1,2,-1,-1,-3,1,-2,-2
1514899183282366,-3,-2,-2,-2,0,0,0,-1
1514899183282366,-1,-1,-1,1,-2,-2,-1,-2
1514899183283867,0,-2,-2,-2,-1,-2,-1,-1
1514899183283867,-2,-1,-1,-1,-2,-2,1,0
1514899183304881,-1,-2,-2,-1,-1,-1,-1,-1
1514899183304881,-1,-2,0,-1,-1,-3,0,-1
1514899183310888,-1,-1,-1,0,-2,0,-3,-1
1514899183310888,0,0,-1,-2,-1,-2,-2,0
1514899183318891,0,-1,-2,0,-2,-2,2,-1
1514899183318891,-3,-2,-1,0,0,-2,0,-1
1514899183325896,0,1,0,-1,-1,-2,1,0
1514899183325896,-2,-2,0,0,-1,-3,-3,-4
1514899183340918,-1,0,-1,-1,-1,-1,0,0
1514899183340918,-1,-2,-1,-1,-2,-1,-1,1
1514899183349916,-2,-3,0,-1,-1,0,0,-1
1514899183349916,-1,-1,-1,-1,-1,0,-1,0
1514899183364433,-1,0,-1,-1,-1,-1,-1,-1
1514899183364433,-2,-2,-3,-1,0,-2,-1,-1
1514899183366425,0,-1,-1,-1,0,-1,0,0
1514899183366425,-2,-3,0,-1,-1,-3,0,0
1514899183378943,0,0,0,-2,-1,-1,-2,-1
1514899183378943,0,-2,0,-2,-1,-1,-1,0
1514899183402951,-2,1,0,0,-2,-2,-1,-2
1514899183402951,-1,0,-2,2,0,0,1,-3
1514899183403451,0,-1,-2,-1,-1,0,1,-1
1514899183403451,-1,-2,-2,-2,-1,0,-1,-1
1514899183404951,-2,-1,-2,-1,-1,-1,-1,0
1514899183404951,0,-1,-1,-3,-2,-1,-2,0
1514899183424489,-1,-2,-2,-1,0,-2,0,-1
1514899183424489,-1,-1,-2,0,-1,0,-1,-2
1514899183426991,-1,0,-1,-1,-2,-2,-1,-2
1514899183426991,0,1,-3,-1,0,-1,-2,-2
1514899183438999,-1,0,0,-1,-1,-2,-2,0
1514899183438999,-1,0,-2,-1,-1,-2,-2,0
1514899183453009,0,-2,-3,-1,-3,-1,-1,-1
1514899183453009,0,-1,-3,-1,-1,-1,0,-2
1514899183462019,-1,-1,-1,-1,-1,-1,-1,0
1514899183462019,0,-3,-2,-3,0,-2,-2,-2
1514899183470021,-1,-2,-1,-1,-2,-1,1,-1
1514899183470021,-1,-1,0,1,-2,-1,-1,-1
1514899183484531,-2,-2,-1,-2,-1,1,1,-3
1514899183484531,1,-1,-1,-1,-2,-2,-1,0
1514899183486053,-1,-2,-3,-1,0,1,0,-1
1514899183486053,-2,-2,-2,-2,0,-3,-3,-2
1514899183499542,0,0,0,-1,-1,-3,-1,-1
1514899183499542,-1,0,-2,-1,-1,-1,0,-3
1514899183513075,0,-2,-1,0,-2,-1,-1,0
1514899183513075,-2,-1,0,-2,-1,-1,0,-1
1514899183522082,-2,-1,0,-1,-2,-1,-2,-2
1514899183522082,-2,0,-1,-1,-1,-1,-2,-2
1514899183523583,0,0,-1,1,-2,-2,-1,-1
1514899183523583,-2,0,-1,-1,-1,1,-1,-1
1514899183544600,0,-1,-2,-2,-1,-2,-1,0
1514899183544600,0,-2,-1,0,-1,1,-1,0
1514899183546099,0,-2,-1,-1,0,-2,-2,0
1514899183546099,0,0,-1,-1,-2,0,2,0
1514899183559109,-2,-3,-2,-1,-1,0,-1,-2
1514899183559109,-2,-2,-1,-1,-1,-2,-1,0
1514899183566116,-3,-3,-1,-1,-1,1,-1,-1
1514899183566116,0,0,-2,-1,-1,-1,-1,-1
1514899183582124,0,-1,-1,-1,-2,-2,0,-1
1514899183582124,-1,-2,-2,1,0,-1,-1,1
1514899183583628,-3,1,-1,-1,-1,-1,-1,-2
1514899183583628,-1,0,-1,-1,-3,-1,-1,0
1514899183604640,-2,-1,1,-2,-2,-1,0,-3
1514899183604640,-1,-2,0,-1,-1,-2,0,-2
1514899183606141,-1,-1,-1,-2,0,-1,-1,0
1514899183606141,-2,-1,-1,-1,-1,-1,-1,-2
1514899183618661,-1,-1,-3,0,-1,0,-1,0
1514899183618661,0,-3,0,-1,-3,-1,-1,0
1514899183628157,0,-2,-1,-1,-1,-1,-1,-1
1514899183628157,-1,0,-2,-1,-2,-2,-2,-1
1514899183642166,0,-3,-2,-1,0,-1,-3,-1
1514899183642166,0,-2,0,-1,0,-2,-1,-1
1514899183643667,-1,0,0,-2,-1,0,-1,-1
1514899183643667,-1,0,-1,-1,-1,-2,0,-2
1514899183664690,0,-1,-2,0,0,-2,-1,-2
1514899183664690,0,-2,-1,0,0,-1,-1,-2
1514899183666684,0,-2,0,-1,-1,-2,-2,-1
1514899183666684,-2,-1,-2,-1,-1,0,0,0
1514899183678201,-1,-2,-1,0,-1,0,-1,1
1514899183678201,-1,0,-2,-3,-1,0,-2,-3
1514899183687198,-2,1,-2,-1,-2,0,-2,-2
1514899183687198,0,-1,0,-1,-1,0,0,-2
1514899183703209,-1,-2,-1,-1,-2,-2,0,-1
1514899183703209,1,-1,-1,0,0,-1,0,0
1514899183704721,-2,-2,0,-3,-1,-2,-2,-3
1514899183704721,-2,-1,-1,-1,-2,-1,-2,-1
1514899183724725,-1,-1,0,-1,-2,-1,-2,-1
1514899183724725,-2,-3,-1,-2,-1,-3,-1,0
1514899183726238,-1,-1,-2,0,0,-2,1,0
1514899183726238,-1,-2,-1,-1,-1,0,-3,-1
1514899183738243,-2,-1,-1,-2,0,-1,-1,0
1514899183738243,-1,-2,-1,-2,-2,-1,0,-2
1514899183748751,-1,0,-2,-1,-1,0,1,-1
1514899183748751,0,0,-2,-2,1,1,0,-1
1514899183762260,-2,0,-2,-2,0,-1,0,-2
1514899183762260,-1,-2,-2,-1,-1,-1,0,-1
1514899183764754,-1,-1,-1,-2,-1,1,-2,-1
1514899183764754,1,2,0,-1,-3,-1,-1,-2
1514899183792282,-2,-3,-1,-1,0,-3,-2,-2
1514899183792282,-2,0,-2,-1,0,-2,-1,0
1514899183793774,1,-3,-1,-1,-1,-2,1,-1
1514899183793774,-3,-2,-1,-3,0,-2,-1,-1
1514899183798276,1,-1,-2,-2,0,-1,-4,-3
1514899183798276,-1,-2,-1,1,0,0,-2,-1
1514899183808784,-2,0,-1,0,0,-1,-1,0
1514899183808784,-2,0,-2,-1,-2,-3,-3,-1
1514899183820806,1,-1,-1,-1,-2,1,-1,-2
1514899183820806,-1,0,0,-2,0,-1,-1,-1
1514899183829808,-1,-1,-2,-1,-2,0,-1,0
1514899183829808,0,-1,-2,-1,-2,0,1,0
1514899183844825,-1,-2,-1,-1,0,-1,1,0
1514899183844825,0,-3,-1,-2,-2,-1,-1,1
1514899183846311,-1,-1,-1,-1,-1,0,0,-2
1514899183846311,-2,1,-2,0,-1,1,-1,-1
1514899183858321,-3,-1,-1,1,-1,-1,-2,-1
1514899183858321,-1,-2,-2,1,-2,1,0,-1
1514899183867826,0,0,0,-1,-2,0,-2,-1
1514899183867826,0,1,-1,-1,-1,0,-1,0
1514899183881845,0,-2,-3,-1,-2,-1,0,0
1514899183881845,-1,-1,-1,0,-1,-3,-1,-1
1514899183883837,-1,-1,-1,-1,-1,-2,-2,-2
1514899183883837,-1,-1,-1,-2,-1,-1,-2,-1
1514899183904853,0,-1,-1,-3,0,0,-1,0
1514899183904853,-1,-1,-1,0,0,-2,-2,-1
1514899183906353,-3,-1,-1,-1,-3,-1,-2,-1
1514899183906353,-1,-2,1,0,-1,0,-1,-2
1514899183918401,0,-1,-1,-1,-1,-1,0,-2
1514899183918401,-2,-2,-2,-2,-2,0,0,0
1514899183927409,-1,1,-1,-1,-1,-2,-2,-2
1514899183927409,-1,-2,-1,-1,-2,0,-2,0
1514899183940957,-2,-1,-1,-1,-2,-1,-1,-2
1514899183940957,-1,-1,-1,-3,-1,0,0,-1
1514899183949957,-2,-1,-1,0,-2,-1,1,0
1514899183949957,-2,-2,0,0,0,-1,-1,-2
1514899183964474,-1,-1,-1,-1,-1,-1,0,0
1514899183964474,-1,-3,-2,-1,-2,-2,0,1
1514899183965966,1,0,-1,-1,-1,-1,0,-1
1514899183965966,-1,0,0,-2,-2,0,-1,-2
1514899183977983,0,-2,0,-1,-2,0,-1,0
1514899183977983,-1,-1,-2,-1,-1,-1,-3,-3
1514899183986995,-1,-1,-2,-1,-1,-1,-1,-1
1514899183986995,-1,0,-1,-1,-1,0,1,-1
1514899184002492,-1,0,-2,1,-2,0,-1,-2
1514899184002492,0,-3,0,-1,-2,-2,-2,0
1514899184006008,0,0,0,-1,-1,0,0,-2
1514899184006008,-2,0,-2,-1,0,0,-1,0
1514899184024507,-2,-3,0,-4,-2,-1,-1,0
1514899184024507,0,-1,-2,0,0,-2,-2,-2
1514899184026509,0,0,0,0,-2,-2,-1,-2
1514899184026509,-4,-1,-2,-2,-1,2,0,0
1514899184038017,-1,-2,-1,0,-3,-1,-3,-3
1514899184038017,-2,-2,-1,-2,-1,-2,-1,-1
1514899184048024,-1,-1,-1,-1,-1,-2,0,-1
1514899184048024,-1,0,-1,-1,-2,-1,-1,-1
1514899184069539,-2,-1,-1,-1,0,-1,-1,1
1514899184069539,-1,-1,0,0,0,1,-1,-2
1514899184071040,-2,-1,-1,0,0,-3,1,1
1514899184071040,-1,0,0,-1,-2,0,-1,-2
1514899184084550,-2,-1,-1,0,-1,-2,-2,-2
1514899184084550,2,-2,-1,0,-1,0,0,-2
