timestamp,emg1,emg2,emg3,emg4,emg5,emg6,emg7,emg8
1509429669147108,0,0,-1,-1,0,-1,-1,0
1509429669147108,1,1,-2,-2,0,-1,-3,-2
1509429669154112,-2,-2,1,0,-2,0,-1,0
1509429669154112,-2,0,0,1,-2,0,-2,-2
1509429669154112,0,0,1,-2,-1,0,-2,-4
1509429669154112,-1,-3,-3,-2,-1,-1,-1,-1
1509429669176125,0,-1,-1,-2,-1,-1,-2,-3
1509429669176125,1,-2,1,-1,1,0,1,-1
1509429669177126,-1,3,-6,-1,-2,-1,-2,0
1509429669177126,-2,-2,-3,0,1,-1,-1,-2
1509429669190148,0,-1,-2,-2,-2,0,-1,-1
1509429669190148,-2,0,-1,-1,-1,-3,-2,0
1509429669199143,0,-1,1,0,0,0,-1,0
1509429669199143,0,1,-1,-1,-2,1,0,-1
1509429669214155,-1,-1,0,1,2,0,0,-1
1509429669214155,-2,-2,-1,-1,-1,-1,-2,-1
1509429669214155,2,-1,-1,-2,-1,-2,0,1
1509429669214155,-3,-1,0,0,-1,-2,-1,-1
1509429669237168,0,0,0,-2,0,-2,-1,1
1509429669237168,-1,-3,-1,-1,-3,-1,0,-3
1509429669244189,0,0,1,-1,-2,0,-1,-1
1509429669244189,0,0,-2,-1,-1,-1,-1,0
1509429669251178,-2,0,-2,-1,2,-1,0,0
1509429669251178,-1,-1,-1,0,-3,-2,-1,0
1509429669259185,-1,-1,-2,-1,0,1,0,-2
1509429669259185,1,1,-2,-1,-2,1,0,-1
1509429669274195,0,1,2,1,-1,-1,-1,-3
1509429669274195,-1,0,-1,-1,0,0,-2,-1
1509429669274195,1,-1,-2,0,-1,-2,-1,-2
1509429669274195,-1,-2,-1,-3,-1,-1,-1,-2
1509429669296247,-2,-3,-1,-2,-1,-1,0,0
1509429669296247,-1,-2,1,-2,0,-1,-1,-2
1509429669297212,-4,-2,-1,-1,-2,-1,-2,-1
1509429669297212,0,-2,-2,-2,-1,-2,-3,-1
1509429669319228,-2,0,0,-1,-3,-1,0,-2
1509429669319228,-1,-2,-1,0,0,-1,-1,-1
1509429669319228,0,0,-1,-3,-1,0,1,-1
1509429669319228,0,0,-2,-1,-1,-1,0,-2
1509429669334238,-1,1,0,-1,-2,-2,0,-2
1509429669334238,-3,1,0,-3,-1,-3,-2,-1
1509429669334238,-1,0,-1,0,-1,-3,-1,-2
1509429669334238,0,-2,-1,0,-3,0,-2,-1
1509429669356254,0,-1,-2,-1,-1,-1,-1,-2
1509429669356254,0,-2,1,-1,-1,-1,0,0
1509429669357255,-1,-3,-2,-2,0,-2,-1,1
1509429669357255,0,1,-1,0,-1,-1,-2,0
1509429669379285,-2,-4,1,-1,-1,0,-1,1
1509429669379285,0,-2,-2,0,-1,-1,-1,2
1509429669380271,0,0,-1,-2,-2,1,1,-1
1509429669380271,-3,-1,-2,-2,0,-1,-2,-1
1509429669393279,0,0,0,-1,-2,-1,-1,-2
1509429669393279,-4,-1,0,1,-1,0,0,-1
1509429669394279,-1,-1,-1,-1,0,1,1,-1
1509429669394279,0,-1,0,-2,-2,0,0,-1
1509429669424314,-2,-2,-1,-2,-1,-3,-1,0
1509429669424314,-1,0,-3,-2,-1,-1,-3,-1
1509429669425303,0,-1,-2,0,-3,-2,-2,-1
1509429669425303,-2,0,-1,-2,0,-2,-1,-1
1509429669439315,-2,-2,-1,-1,0,-2,-1,0
1509429669439315,-1,-1,1,0,0,0,0,1
1509429669440312,-1,-2,-1,0,0,-2,1,0
1509429669440312,-1,-1,-3,-1,-2,-1,1,0
1509429669453323,-2,-2,0,0,-1,1,-1,-3
1509429669453323,0,-2,-3,1,0,-2,-1,-3
1509429669454324,0,2,-2,-1,0,-1,-2,0
1509429669454324,-1,0,0,-1,0,-2,0,-1
1509429669476339,-4,-1,-2,-2,-1,-1,2,0
1509429669476339,0,-1,-1,-3,0,1,-1,0
1509429669483342,-1,0,0,0,-1,1,0,-3
1509429669483342,0,0,-2,-2,-1,-1,-2,0
1509429669499354,-1,-1,-1,-1,-1,-1,-2,-3
1509429669499354,0,-2,0,-2,-2,0,-1,-2
1509429669500356,1,0,0,-2,-1,-1,-1,-1
1509429669500356,-2,-1,0,-1,1,0,-1,-2
1509429669522371,-1,-1,-1,-1,-2,-2,-1,0
1509429669522371,-2,-2,-1,1,-1,0,0,-1
1509429669522371,0,-2,-2,-2,-3,0,-3,-2
1509429669522371,0,-1,-2,0,-2,0,0,-2
1509429669551391,0,0,-1,-2,-1,-1,-1,-1
1509429669551391,2,-1,1,-1,-1,0,-1,-2
1509429669552393,-1,-2,-2,-1,-2,0,0,0
1509429669552393,-1,-3,-1,-1,1,-1,0,0
1509429669559406,-1,-1,-1,-1,-2,0,-2,-1
1509429669559406,-1,1,0,0,-1,-1,-2,-1
1509429669560410,-2,-2,-1,-4,0,-2,0,-2
1509429669560410,0,0,-1,-2,-2,-2,-1,1
1509429669574416,-2,-1,-2,-1,-1,-2,-1,2
1509429669574416,-1,-1,-2,-2,-2,-1,-1,-1
1509429669581413,-2,-1,-2,0,0,-1,-3,-2
1509429669581413,-2,-1,-2,-2,-2,-1,-1,0
1509429669596425,-1,-2,0,1,-1,-1,-3,-2
1509429669596425,-1,-2,-1,0,-1,-1,-1,-1
1509429669597444,0,-1,-1,1,-1,-1,-1,-1
1509429669597444,2,0,-3,1,-2,1,0,-2
1509429669619440,-2,-1,-1,-1,0,0,0,1
1509429669619440,-1,-1,0,-4,-1,0,-1,-1
1509429669620440,-1,0,0,-3,0,-1,0,-3
1509429669620440,0,1,0,-2,-1,-2,-1,-2
1509429669633450,0,-2,-1,-1,-1,-2,-1,-2
1509429669633450,-2,-2,-2,0,-1,-1,1,-2
1509429669634451,0,0,-3,-1,-1,0,-1,-1
1509429669634451,-2,0,-2,-1,-2,1,-2,0
1509429669656475,0,-1,-1,0,-2,-1,-1,-3
1509429669656475,-2,-2,-1,1,-1,-2,-1,-1
1509429669657465,-1,-1,-2,-2,-1,-2,3,-1
1509429669657465,-2,-2,-1,-1,-1,-1,1,-1
1509429669679482,0,0,0,-1,0,-1,-1,0
1509429669679482,-3,-1,1,1,0,0,-1,0
1509429669680482,0,-1,-2,-2,-1,1,-2,-1
1509429669680482,0,-1,-2,-1,0,-2,-1,-1
1509429669701498,-1,-1,-2,-2,-1,-1,-2,1
1509429669701498,0,-2,-1,0,-3,-3,-2,0
1509429669702502,-1,-1,-2,0,-1,0,-1,1
1509429669702502,-4,0,-2,-2,-1,1,-1,0
1509429669716510,-2,-1,1,-1,-3,-2,1,-2
1509429669716510,1,0,-1,-1,0,-3,-1,1
1509429669717508,-2,0,-1,-1,0,-2,-1,-2
1509429669717508,1,0,-2,-1,-1,-1,-1,-3
1509429669739524,-2,-1,0,0,0,0,-1,-1
1509429669739524,-2,-1,-2,1,-2,0,-2,0
1509429669740525,-1,-2,-2,-1,-1,-2,-1,-1
1509429669740525,-1,1,-3,-3,0,-1,-1,0
1509429669761543,2,-2,-1,-3,0,-2,-1,0
1509429669761543,-3,-2,-1,-1,-1,-2,-1,-3
1509429669762542,-1,0,-2,-1,0,-1,-1,1
1509429669762542,-1,0,0,-1,-1,-1,-1,-1
1509429669776552,-3,-2,0,-2,-1,-1,-2,-1
1509429669776552,1,-1,-1,-2,-3,-1,-2,0
1509429669777551,-1,-2,-2,2,-1,-2,0,-2
1509429669777551,0,-2,0,-1,-2,-2,-1,-2
1509429669799568,-1,-1,-1,-1,-2,-2,1,0
1509429669799568,0,-1,0,-1,-1,-1,-2,-2
1509429669800569,-2,-1,-2,-2,1,-1,-1,-2
1509429669800569,-1,-2,-1,-1,1,-1,-1,-2
1509429669821582,-2,-2,0,0,1,1,0,0
1509429669821582,-1,1,2,1,0,-1,2,-2
1509429669822582,0,0,-2,-2,-3,-1,-1,0
1509429669822582,-1,-1,-3,-1,-1,-2,-1,0
1509429669836593,0,-3,2,0,0,-1,-1,1
1509429669836593,1,-1,-1,-1,-1,-2,0,-2
1509429669836593,-1,0,-1,-1,-1,-1,-2,-2
1509429669836593,-2,-1,-1,-3,0,-1,-2,0
1509429669859610,-3,-2,-3,0,-1,-1,-1,-1
1509429669859610,-2,-1,0,0,-1,-1,0,-2
1509429669860611,-2,0,-2,0,0,-1,-1,-1
1509429669860611,-2,-2,-1,-2,-3,1,0,-2
1509429669873620,0,-3,4,0,-3,0,-1,0
1509429669873620,0,-2,0,-2,0,-1,-1,-1
1509429669874620,0,-3,-1,-1,-1,-2,0,-2
1509429669874620,-1,0,0,-2,-1,0,0,-2
1509429669895634,-3,0,-2,-1,-2,-1,0,0
1509429669895634,0,-1,0,-2,-2,0,-1,-1
1509429669896635,1,-2,-1,-3,-1,0,0,0
1509429669896635,1,-3,-1,-1,-1,-1,-1,0
1509429669919661,0,-1,-1,-2,-1,0,0,-1
1509429669919661,-3,0,0,-2,-2,-1,-1,0
1509429669920652,0,-1,-6,-1,-1,1,-1,-2
1509429669920652,-1,-2,-2,-1,-3,-1,0,-3
1509429669941723,-1,0,-1,0,-1,-2,0,-2
1509429669941723,0,0,0,-1,1,-1,-2,0
1509429669942668,-2,-1,6,0,-2,-2,-2,-1
1509429669942668,0,-2,-2,-2,-1,-3,-2,-1
1509429669956681,-2,-2,-1,1,0,0,0,-1
1509429669956681,0,-2,-3,-2,-1,-1,0,1
1509429669956681,-2,2,-5,-1,-1,-1,-3,0
1509429669956681,-2,0,1,2,-1,0,-2,0
1509429669979697,-2,0,-2,-8,-2,-1,-1,-2
1509429669979697,-1,-1,0,0,0,-2,-2,-1
1509429669980695,-2,1,0,0,0,-1,0,-3
1509429669980695,-1,0,-1,2,-4,-3,1,0
1509429669992706,-2,-3,-2,-3,4,0,0,-1
1509429669992706,0,-1,-4,-5,0,2,-2,-1
1509429670001712,-1,-3,-1,-2,0,-1,0,-2
1509429670001712,0,1,-1,0,0,-1,-1,-2
1509429670016721,1,1,2,1,-2,-1,-1,0
1509429670016721,-1,-1,-5,-1,-2,-2,1,0
1509429670016721,-1,-2,-2,1,-1,0,-3,2
1509429670016721,-2,-3,-4,-2,0,1,0,-1
1509429670039740,0,0,0,-2,-4,-1,-3,2
1509429670039740,0,0,1,3,0,-2,0,-2
1509429670040737,-2,-1,-3,-2,-1,-1,-2,1
1509429670040737,-1,-1,-1,-1,-1,-1,-1,-1
1509429670052746,-2,-2,0,2,-1,-1,-2,0
1509429670052746,-3,-2,1,1,-1,0,0,-2
1509429670061752,0,-1,-3,0,-2,-3,-1,-2
1509429670061752,0,0,-2,-3,1,1,-1,-1
1509429670075763,1,-2,1,0,-2,-1,-1,-2
1509429670075763,-1,-1,0,1,-2,0,1,0
1509429670076762,1,0,-2,-3,-2,-1,0,-1
1509429670076762,-2,1,-4,-3,-1,-1,-2,-1
1509429670099780,-2,-1,-2,-1,-1,-2,-2,-1
1509429670099780,-2,-3,-2,-2,-3,-2,-1,-1
1509429670099780,0,-1,-1,-1,0,-1,-2,-2
1509429670099780,0,1,-3,-2,-2,-1,-1,-4
1509429670112788,-1,-2,1,0,-2,-2,0,-2
1509429670112788,-1,-1,-2,-2,-2,0,-1,0
1509429670129816,0,-3,-3,-2,0,-1,0,-1
1509429670129816,0,-2,-1,-1,-2,-1,0,-2
1509429670135806,0,0,0,0,-3,-1,-1,-3
1509429670135806,-1,-1,1,1,0,-3,0,-1
1509429670136815,1,1,-1,-1,-2,-2,-1,0
1509429670136815,-2,-1,0,-2,0,-2,-2,0
1509429670159821,-3,-2,1,-1,-1,-1,-1,-1
1509429670159821,-1,-2,0,-2,-1,1,-2,0
1509429670159821,-2,-1,0,-1,-1,-1,-2,0
1509429670159821,-2,-1,0,-1,1,-1,-2,-2
1509429670172831,-3,-1,-1,-1,-1,1,0,0
1509429670172831,-2,0,1,0,-1,-1,-1,0
1509429670188843,0,-2,-1,-1,0,0,1,-2
1509429670188843,0,-1,0,-1,-1,-1,-1,0
1509429670195863,1,1,0,-1,-1,-2,0,-1
1509429670195863,-1,-2,-2,-2,-1,-3,-1,-1
1509429670196848,-2,0,-3,-1,-2,0,-1,0
1509429670196848,-1,-3,-3,0,-1,-1,-4,0
1509429670226870,-5,-1,1,0,-1,-1,0,-2
1509429670226870,-2,-1,-1,0,-1,-1,-1,-1
1509429670227870,-3,0,-3,-1,0,-1,-2,-3
1509429670227870,0,-1,-2,-1,-3,-2,-2,-2
1509429670232874,1,-1,-1,-2,-1,-1,-2,2
1509429670232874,-1,-1,1,0,0,-2,-2,-1
1509429670240880,-1,0,-2,-1,0,0,-1,-3
1509429670240880,-3,0,-2,-2,0,-1,1,0
1509429670255890,2,-2,0,0,-1,-2,-2,1
1509429670255890,-1,-2,-3,-3,-1,-3,-1,-2
1509429670256890,-1,-1,-1,-1,-1,-1,-1,1
1509429670256890,2,-1,-1,-2,-2,-1,1,0
1509429670279906,-1,-2,0,0,0,-1,1,-1
1509429670279906,0,0,0,-3,0,1,-1,0
1509429670279906,1,1,-1,-1,0,-2,-1,-1
1509429670279906,-2,0,1,1,0,-1,-2,-2
1509429670301937,0,-2,-1,0,0,-1,-2,-3
1509429670301937,0,-1,0,1,0,-1,-3,-1
1509429670302923,0,0,-2,-1,-2,-1,-3,-2
1509429670302923,-3,0,1,-2,0,0,-1,1
1509429670315933,1,0,0,-1,-1,-3,0,-2
1509429670315933,-1,-3,-1,0,-2,-3,0,-1
1509429670316934,-1,-1,-1,-2,-1,0,0,-2
1509429670316934,-1,-1,-2,0,-3,0,0,-2
1509429670339949,-1,-1,-1,-1,-1,-1,0,0
1509429670339949,-1,-2,-1,-3,-2,-1,-2,0
1509429670340951,1,0,-2,0,0,1,-1,0
1509429670340951,0,0,-1,-1,0,-1,-1,-1
1509429670361991,-3,-1,0,-3,-1,-1,2,-1
1509429670361991,0,0,-2,0,-2,-1,-1,-2
1509429670362992,-1,-3,-2,-1,-2,-2,-1,-3
1509429670362992,0,-2,-1,0,0,-2,-2,0
1509429670375974,-2,-1,-1,1,-1,-1,-1,-2
1509429670375974,-2,-2,0,-2,0,-1,-2,1
1509429670376975,-1,-3,0,-2,0,-1,-1,1
1509429670376975,-1,0,-1,-1,-1,1,0,0
1509429670407003,-1,-1,-1,1,-1,-2,-1,-1
1509429670407003,-2,0,-1,1,0,-1,-1,-3
1509429670407998,1,0,-2,-1,-1,-2,-1,-2
1509429670407998,-3,-1,-3,-1,-2,0,-1,-2
1509429670422008,0,-3,-1,-1,-1,-1,-1,1
1509429670422008,1,0,1,-1,-2,-1,0,-1
1509429670423008,-2,1,-4,-2,-1,-1,-1,-4
1509429670423008,0,-2,-2,-1,-1,-1,-2,-2
1509429670436018,-2,-1,0,-2,-2,-2,-3,1
1509429670436018,-1,-1,0,-2,-1,-1,-2,0
1509429670437019,-1,-2,-2,-2,-1,-1,0,-1
1509429670437019,-2,0,0,-3,-1,-2,0,-1
1509429670467040,-2,0,1,0,-1,-1,-1,0
1509429670467040,0,-1,-1,-1,-1,1,-1,0
1509429670468040,-2,-2,-1,0,-1,-1,-1,0
1509429670468040,-1,-2,-3,0,0,-1,-2,-2
1509429670482051,1,0,-1,-1,-2,0,0,-1
1509429670482051,0,0,-1,-1,-1,-1,-1,-2
1509429670483060,-2,-2,-1,0,-2,-1,1,-1
1509429670483060,-1,-1,-2,-1,-2,-2,-1,-1
1509429670504066,0,-2,-1,-2,0,0,-2,-1
1509429670504066,-2,0,-2,0,0,0,0,-1
1509429670505068,0,-1,0,0,-2,-3,-1,-1
1509429670505068,-1,-1,-1,-2,-2,-3,-1,-2
1509429670519079,-2,-1,-1,-1,-2,-4,-1,-2
1509429670519079,-3,-2,-1,0,0,-1,0,-1
1509429670520077,-1,-2,-2,-3,-1,0,0,1
1509429670520077,-1,-1,0,-3,-1,-2,-1,0
1509429670542092,-3,-1,2,-1,-1,0,-2,0
1509429670542092,-2,0,0,0,-1,-1,-1,-1
1509429670543092,-2,-1,-2,0,-1,-1,-2,-2
1509429670543092,-1,0,-1,-1,0,0,-2,0
1509429670564163,0,-2,0,-1,-3,-3,0,-1
1509429670564163,0,-2,-1,-1,0,-2,0,-1
1509429670565109,0,0,-2,0,1,-1,-1,-1
1509429670565109,0,-1,-1,-1,-1,-2,-1,-1
1509429670579119,-2,0,2,0,-1,-2,0,-1
1509429670579119,-1,-1,0,-1,-1,-1,0,0
1509429670580119,-2,1,-3,-1,-1,1,-1,-2
1509429670580119,-1,0,-2,-1,-1,-2,2,-1
1509429670602136,-3,1,-5,-2,-1,-2,-1,1
1509429670602136,-2,-2,-1,-1,0,0,-1,-2
1509429670602136,0,-2,-1,-2,-2,0,-1,-1
1509429670602136,-1,-2,-3,0,0,1,-1,-3
1509429670616167,-2,-2,-1,2,-1,0,-2,-1
1509429670616167,1,-1,-2,0,-2,0,-1,2
1509429670617145,-1,-3,-1,-1,-2,0,-1,1
1509429670617145,-5,0,-3,-1,0,0,-2,1
1509429670639165,-3,-2,-1,-1,1,-2,-1,1
1509429670639165,-2,-3,-1,-1,0,-1,-1,0
1509429670640165,-2,-2,1,-1,0,-3,-1,-2
1509429670640165,1,-2,1,-2,0,-2,-2,0
1509429670662178,-1,-1,0,-2,1,0,-1,0
1509429670662178,0,-2,-1,-1,0,-2,0,-1
1509429670662178,-1,2,-2,-3,-2,-2,1,-2
1509429670662178,-2,-1,-1,-1,-2,-2,2,-3
1509429670676190,-1,0,-1,-2,-1,0,-2,-2
1509429670676190,-2,0,-2,-1,-1,0,-1,-1
1509429670677190,-1,0,-2,-1,-1,-1,-2,1
1509429670677190,-1,-2,0,-1,-1,-1,-3,0
1509429670699256,0,-2,1,0,-1,0,0,-1
1509429670699256,-1,-1,-2,-1,-1,-1,0,-2
1509429670700206,-1,-1,-1,-1,-1,-1,0,-2
1509429670700206,-1,0,-1,-1,-2,-1,-2,0
1509429670722220,-1,-2,-1,-1,-2,-2,-1,0
1509429670722220,-3,0,0,-2,-2,-2,0,-1
1509429670722220,0,1,-3,-1,-1,-3,-1,-2
1509429670722220,-2,-1,0,-1,-1,-1,-1,-1
1509429670744235,0,-3,-1,-1,0,-1,-1,-2
1509429670744235,-4,-3,-1,2,0,-1,-1,1
1509429670745239,-1,-2,-2,-2,-1,-1,-1,0
1509429670745239,-1,-1,0,-1,-3,0,0,0
1509429670759246,-1,-1,1,-1,-1,-2,-1,-2
1509429670759246,1,0,-2,-3,-1,0,-2,-2
1509429670760247,-1,1,-2,-1,0,0,-1,1
1509429670760247,-2,-1,-2,0,-1,-1,-2,-1
1509429670782266,-3,-1,0,0,0,0,-2,-1
1509429670782266,1,-1,-2,0,-2,-2,1,-1
1509429670782266,-2,-2,-1,0,-1,0,-1,-1
1509429670782266,-1,-1,0,0,0,0,-1,0
1509429670795271,0,-3,5,2,-1,0,-1,0
1509429670795271,0,-2,-2,-2,0,-1,-1,-2
1509429670812284,0,0,-1,-2,-1,0,0,-3
1509429670812284,-1,-2,-3,-3,0,-2,-1,-2
1509429670819289,-1,-1,-1,-1,-2,-1,-1,-2
1509429670819289,-2,-1,-1,-1,-2,-2,-2,-1
1509429670821291,0,0,0,0,-1,-2,0,-2
1509429670821291,0,-1,-2,-3,-2,-1,-1,-2
1509429670842304,0,-1,-3,-2,-2,-2,0,-1
1509429670842304,0,0,-3,0,-1,-1,-2,-2
1509429670843306,-1,0,-3,-2,-1,-1,0,-1
1509429670843306,0,-1,1,-2,-2,-2,-1,-1
1509429670855313,-1,-1,-1,1,-1,-2,0,1
1509429670855313,-2,-1,0,0,-1,0,-2,0
1509429670872329,0,-2,5,2,-1,0,-1,-1
1509429670872329,-3,0,-1,-1,-1,-1,0,-1
1509429670879348,-3,-2,1,0,-3,0,-1,-1
1509429670879348,0,-2,-1,-2,0,-1,-1,-1
1509429670881336,0,-2,-4,-2,-1,-1,-2,-1
1509429670881336,-1,-1,-1,-1,0,0,0,0
1509429670902364,-1,-2,0,-1,-1,-2,-3,-2
1509429670902364,1,1,-3,-2,-1,-3,-2,-1
1509429670904351,-3,1,-4,-2,-1,0,-2,0
1509429670904351,-2,-1,0,0,-2,-1,-1,1
1509429670915368,0,0,-1,-3,-1,-2,-1,-2
1509429670915368,-2,-1,0,0,-1,0,0,0
1509429670924364,-2,-2,-2,-1,0,-2,-2,-2
1509429670924364,-1,-1,-1,0,0,0,1,-2
1509429670939375,0,-1,-1,-2,-2,-2,-1,-2
1509429670939375,0,-2,-1,0,-1,0,0,-2
1509429670941376,-2,-1,-2,-2,-1,0,-1,-1
1509429670941376,-1,-1,-1,-2,-1,1,-2,0
1509429670962392,0,-1,0,0,0,1,0,0
1509429670962392,1,1,0,-2,-1,0,-1,1
1509429670964391,0,0,-3,-1,-2,0,-1,0
1509429670964391,-1,-1,-1,-1,1,-2,-2,-2
1509429670975412,-1,-2,-1,-1,-3,-1,-1,-1
1509429670975412,-2,-1,0,0,-1,-2,0,-1
1509429670984408,-2,-2,-2,-1,0,-2,-1,-1
1509429670984408,2,0,-3,-2,-2,-2,0,-1
1509429670999470,-1,0,0,-1,-2,-2,-1,1
1509429670999470,-2,-3,-3,-3,-2,-1,0,0
1509429671001418,1,-1,1,-1,0,-2,0,1
1509429671001418,-1,-1,-3,-2,-2,-2,0,-1
1509429671022435,0,-2,-1,-1,0,-2,-3,-2
1509429671022435,-2,0,-3,0,-1,0,-2,-3
1509429671028486,1,-1,-3,-2,0,-1,-1,-2
1509429671028486,-3,-3,0,-1,-2,0,-1,0
1509429671035444,0,-2,1,0,1,0,0,-1
1509429671035444,-2,-2,0,0,0,-2,-1,-2
1509429671044451,-1,0,-3,-2,-3,0,0,-1
1509429671044451,-1,-1,0,-1,0,-1,-2,-2
1509429671059459,-1,-1,-2,0,-1,-2,-1,0
1509429671059459,1,0,0,0,0,-2,0,0
1509429671061459,-2,-1,-2,-4,-2,-1,0,1
1509429671061459,-1,-1,-1,0,-1,-2,0,0
1509429671080474,-1,-2,-1,-2,-2,0,-1,2
1509429671080474,-2,-1,-2,-1,-2,-1,-2,0
1509429671089483,0,0,-2,0,-1,1,-3,-2
1509429671089483,-2,0,0,-3,-1,0,-1,-2
1509429671095496,-1,-3,0,0,0,0,0,-3
1509429671095496,-5,-3,1,-2,1,0,-2,-2
1509429671104490,-2,-2,-2,-2,0,-1,-1,-3
1509429671104490,-1,-1,-1,-1,-2,-1,0,-1
1509429671119502,0,-2,1,-1,0,-3,-2,-1
1509429671119502,1,0,-2,-2,-1,-2,0,-1
1509429671120502,-2,0,-1,1,-1,1,0,-2
1509429671120502,-1,-1,1,-2,-2,0,-2,0
1509429671149522,-2,-1,-2,1,-1,0,-1,-1
1509429671149522,-2,-3,-1,-1,-1,-1,-1,-3
1509429671151539,0,-1,-2,-1,-2,-1,-2,-2
1509429671151539,1,0,3,-1,-2,0,-1,-2
1509429671155532,-1,-1,-2,0,-1,-2,-2,-2
1509429671155532,0,-1,-1,-1,-2,-1,0,-1
1509429671165533,-1,0,0,0,-1,-1,0,-1
1509429671165533,-1,-2,-2,-1,-1,-2,-2,-2
1509429671179545,0,-2,0,-2,-1,-1,-1,-2
1509429671179545,-1,0,-1,-1,-1,-1,-2,0
1509429671180544,-1,-1,-2,-1,-1,-1,-1,1
1509429671180544,-3,0,-1,-1,-1,-1,0,1
1509429671201569,-3,0,-2,-1,-1,1,1,0
1509429671201569,2,0,-2,-1,0,-2,-1,-2
1509429671203561,-2,-1,-2,-1,-1,0,-1,-1
1509429671203561,-4,-3,0,-1,1,-4,-1,-3
1509429671224576,0,0,-2,-1,-3,-2,0,0
1509429671224576,-1,0,-1,-2,-2,-2,0,0
1509429671225577,-1,1,-2,-3,-2,-1,1,0
1509429671225577,0,-3,-2,0,-2,0,0,-2
1509429671239601,-1,-1,0,0,1,-1,-1,-1
1509429671239601,1,0,-3,-1,1,-2,-3,-3
1509429671240586,1,1,-2,-1,0,0,-1,-1
1509429671240586,0,0,-2,0,0,-1,1,-2
1509429671260602,1,-3,-1,0,-1,0,1,0
1509429671260602,0,-2,0,-1,0,0,-2,-1
1509429671269619,0,-1,-1,-2,-1,-1,-1,-1
1509429671269619,0,0,-2,0,0,-1,-1,0
1509429671284627,-1,-2,0,-1,0,-2,-3,0
1509429671284627,-2,1,-7,-1,-1,-2,0,-2
1509429671285618,-1,-1,-3,-2,-2,-1,-1,-1
1509429671285618,-2,-1,-3,-2,0,-1,-2,-2
1509429671299654,-4,0,-1,-2,-3,-2,-1,-1
1509429671299654,-1,-3,-2,-2,-1,-1,-1,0
1509429671300630,-3,-3,0,-2,-1,0,0,-2
1509429671300630,0,-1,-1,-3,-1,1,0,1
1509429671321700,-1,-2,0,0,-2,0,-1,-2
1509429671321700,0,-2,0,-1,-1,-1,-2,1
1509429671323670,1,-2,0,-1,-1,-1,-2,-1
1509429671323670,0,-1,0,-1,-3,-1,-1,-1
1509429671344674,-3,-1,-1,-1,0,-1,-1,-2
1509429671344674,0,-1,-2,-1,-2,-1,1,-1
1509429671345673,0,-2,-3,-1,-2,0,-1,-2
1509429671345673,0,-1,-1,0,-2,-1,-3,0
1509429671358671,1,-1,1,-1,0,0,-1,-1
1509429671358671,1,0,-1,-1,-1,0,-1,1
1509429671365706,0,1,-3,0,-2,-1,-2,2
1509429671365706,-1,0,1,-2,1,-2,-2,-1
1509429671381707,-2,-1,0,-1,-1,-2,-1,-1
1509429671381707,-3,-2,1,-1,-3,-1,-1,-3
1509429671383687,1,-2,-2,-2,0,-2,0,-1
1509429671383687,-2,-1,1,-1,-1,-1,0,0
1509429671404702,-1,-1,2,0,0,-1,-2,0
1509429671404702,-1,0,-2,0,1,-1,-1,-1
1509429671405704,-1,-1,-1,-2,-2,0,-2,-3
1509429671405704,-1,-1,-1,0,-1,-1,-2,-1
1509429671426719,0,-1,-1,0,-1,-3,-2,-1
1509429671426719,-2,-2,0,1,-1,-2,0,-1
1509429671428720,0,-1,-1,0,0,-1,-1,-1
1509429671428720,1,-1,-2,-3,0,-1,-1,-2
1509429671441746,-2,-1,-1,1,-1,1,0,0
1509429671441746,-1,0,0,-2,-1,-2,-2,-1
1509429671443745,-1,0,1,-2,0,0,0,-3
1509429671443745,0,0,-2,0,-1,-2,-1,-2
1509429671464760,1,0,-1,-3,-2,-2,-3,-1
1509429671464760,-1,-1,1,-2,0,0,-2,-2
1509429671466747,-1,-2,-2,-1,-1,-1,-1,0
1509429671466747,-1,-1,-3,-1,-2,-1,0,-1
1509429671487762,-1,1,-1,-2,-1,0,0,1
1509429671487762,-2,-3,-3,-1,0,0,-1,1
1509429671488762,-2,-1,-1,-2,-2,-2,-3,-1
1509429671488762,0,-2,-2,1,-1,-1,0,1
1509429671501771,-4,-5,3,0,-1,0,0,-2
1509429671501771,0,-1,-2,-2,-2,0,-1,-1
1509429671503773,-1,0,-2,-2,-1,0,0,0
1509429671503773,0,-1,2,-1,-2,-1,-1,-1
1509429671524788,-1,0,-1,-2,0,-1,-2,-1
1509429671524788,0,0,-2,0,-1,-1,0,0
1509429671526790,-1,1,-1,-2,1,-1,0,-2
1509429671526790,-3,0,-2,0,-1,-1,-2,1
1509429671538809,-1,-1,-2,1,-1,-1,0,-2
1509429671538809,-1,-1,0,-1,0,-1,-2,-1
1509429671545826,-1,-1,-2,-1,-1,-1,1,-2
1509429671545826,-3,0,1,-3,-3,-1,0,-3
1509429671561837,1,-2,-2,1,-1,-1,0,-1
1509429671561837,0,-3,-1,-3,-1,-1,-2,0
1509429671563815,-2,-1,-3,-1,0,-1,-2,-1
1509429671563815,-1,-2,-1,-2,-1,-1,-2,-1
1509429671584840,-1,-2,0,0,-2,-2,0,-1
1509429671584840,-1,-2,-1,-1,-2,-1,1,-3
1509429671585830,-1,-1,-3,0,-2,0,-2,-2
1509429671585830,-1,-1,-1,-1,-2,-1,-1,-2
1509429671598864,0,-1,-1,-3,-2,0,-1,0
1509429671598864,-1,-2,0,-2,-2,-3,-1,0
1509429671612901,0,-2,-1,-3,-2,-1,0,0
1509429671612901,-1,0,-1,0,-1,1,-2,0
1509429671621857,0,-3,0,-1,0,-2,-1,0
1509429671621857,0,-1,-1,0,-1,-1,-1,-2
1509429671623858,-1,0,-2,-1,0,0,0,-2
1509429671623858,-1,0,-1,0,-2,-2,-1,0
1509429671644872,-6,-1,1,-1,0,-1,0,0
1509429671644872,-1,1,-1,0,-1,1,0,-1
1509429671645874,-1,-1,-1,-1,-2,0,-1,-3
1509429671645874,-1,-3,-2,-1,0,1,-1,0
1509429671658883,1,-2,-2,0,-2,-1,-2,0
1509429671658883,0,0,-1,0,-2,-1,0,-2
1509429671672894,-1,0,-2,-1,-1,-2,-1,-1
1509429671672894,-2,-1,2,-1,-2,-2,1,-1
1509429671681900,0,-1,-1,-2,-1,-1,-2,-1
1509429671681900,-1,-1,-3,0,0,-1,-1,-3
1509429671683901,0,-1,-3,-1,0,-2,0,-1
1509429671683901,-2,-1,0,-2,0,-2,-1,-1
1509429671704915,-1,-1,-1,-1,-2,-3,-1,-2
1509429671704915,-1,-1,-2,-3,0,-2,0,-1
1509429671705916,-2,-2,-1,-2,-1,-1,0,0
1509429671705916,-1,-2,0,0,-1,-1,0,0
1509429671717938,-1,-1,0,-2,-1,0,1,1
1509429671717938,-2,-1,-2,-1,1,-2,-2,-2
1509429671734936,0,-2,-3,-2,0,-2,-2,1
1509429671734936,-1,-1,0,-3,-1,-2,-2,-1
1509429671741941,-1,-1,1,-1,0,-1,-1,-2
1509429671741941,0,-2,-1,-2,-1,1,0,0
1509429671743950,-1,-1,-2,-1,-2,-1,-1,0
1509429671743950,-2,-1,-2,0,-2,-3,0,-2
1509429671763997,-1,-2,-1,1,-1,-3,-1,-2
1509429671763997,-1,0,-3,-3,0,-1,-1,-1
1509429671770961,-1,-1,1,-1,-1,0,-1,0
1509429671770961,0,-1,0,-2,0,-2,-1,-1
1509429671777968,0,-3,-2,0,-1,-1,-1,-1
1509429671777968,-2,-1,-2,0,-1,-1,-2,1
1509429671802992,0,0,-2,-1,-2,-1,-2,-2
1509429671802992,-1,0,-1,-1,-2,-1,-1,-2
1509429671802992,-2,-1,1,-1,-3,-1,0,-3
1509429671802992,-1,-1,1,-1,-1,-1,-2,-2
1509429671804985,0,-1,-2,-2,0,0,-3,1
1509429671804985,-2,-3,0,-1,-2,0,0,-1
1509429671824000,-2,-2,-1,0,-1,-1,-1,-1
1509429671824000,-3,-3,-4,0,-2,0,-1,-2
1509429671826001,0,-1,0,-2,-1,-2,-1,0
1509429671826001,-1,-3,0,-1,-2,-1,-1,-2
1509429671838010,0,0,1,-1,-1,-1,-2,-1
1509429671838010,0,-1,-1,-1,-1,-1,1,0
1509429671848037,0,0,0,-1,-1,-1,1,-2
1509429671848037,-2,-2,-3,0,-1,-1,-1,0
1509429671862065,-2,1,-2,-1,-2,0,-1,-1
1509429671862065,0,-1,-1,-2,-2,-1,-2,-1
1509429671864027,-3,-3,-2,-2,-1,-2,1,-1
1509429671864027,-1,-2,0,0,0,-1,1,0
1509429671892058,-1,-1,0,0,0,-1,0,0
1509429671892058,-1,-1,0,-1,-1,-2,-2,0
1509429671893048,-3,0,-1,-2,-1,0,-2,0
1509429671893048,-1,-1,-2,-1,0,-1,-2,-2
1509429671898066,-2,-2,-4,0,1,-2,0,0
1509429671898066,1,0,-2,-1,-1,-1,0,-1
1509429671907059,-2,-1,-2,-2,-2,1,0,-1
1509429671907059,-2,0,0,-2,-2,-1,0,2
1509429671929132,-1,0,-1,0,-1,0,-1,-3
1509429671929132,0,-2,-2,-1,0,-1,0,-2
1509429671931076,-1,0,-2,-2,0,-2,-2,-4
1509429671931076,-1,-1,1,-1,-2,1,-3,-3
1509429671952096,-1,-3,0,-1,-1,-1,-1,0
1509429671952096,-1,-1,-1,0,-2,0,0,0
1509429671954107,0,-2,-1,0,-2,1,-2,-1
1509429671954107,0,-1,-2,1,-1,-1,-1,-1
1509429671958095,-2,-2,-1,-2,0,-1,-1,2
1509429671958095,-1,0,-3,0,-1,-1,-1,0
1509429671967103,-2,-1,-2,-2,-2,-1,1,-2
1509429671967103,0,-2,-2,-1,-2,-1,0,-1
1509429671982112,-1,-1,0,0,-1,-2,-1,-2
1509429671982112,-2,-2,-1,-1,-2,-1,-1,-2
1509429671989117,1,-1,-2,0,0,-1,-1,-1
1509429671989117,0,-2,1,-1,-1,-1,-2,0
1509429672012189,-1,-1,-1,-2,-1,-3,-1,-1
1509429672012189,0,0,-2,0,-1,0,-1,-1
1509429672013133,-1,-1,-2,-2,-1,-3,0,-2
1509429672013133,-1,-1,0,-1,-1,0,-3,-2
1509429672018151,0,-1,-1,0,0,-1,-2,-1
1509429672018151,-3,-2,-2,-2,-2,0,-1,-1
1509429672027144,-1,-1,0,-1,-1,1,-1,0
1509429672027144,-1,0,-1,-1,-1,-2,0,-1
1509429672042167,-1,-1,0,0,-2,0,-2,-2
1509429672042167,-1,-2,-2,-1,1,-1,0,0
1509429672048181,0,-2,-3,-1,0,-1,-2,0
1509429672048181,-1,-1,-1,0,0,-1,0,0
1509429672072176,0,-2,1,-1,-1,-1,-1,0
1509429672072176,-1,-3,0,1,0,0,1,-2
1509429672079179,0,-1,-2,1,-1,-1,0,-1
1509429672079179,0,-1,0,0,-1,-1,-1,0
1509429672079179,-1,-2,-1,-1,-1,-2,0,-1
1509429672079179,2,0,-1,-1,0,1,-2,0
1509429672087186,0,0,-1,-1,-1,-2,-2,-2
1509429672087186,-2,-1,-1,-2,-1,-2,0,-1
1509429672102197,-2,-2,0,-1,-2,-1,0,-1
1509429672102197,-2,-1,-1,0,-1,-1,-1,-4
1509429672104198,-2,-2,-2,0,-2,-1,-1,-1
1509429672104198,0,0,0,-2,-1,-2,-1,-1
1509429672131232,-1,-1,0,0,-1,0,-1,-1
1509429672131232,-1,0,-2,-1,-1,-2,-1,-2
1509429672140223,-1,-1,-3,-1,-2,-2,-1,-1
1509429672140223,-1,1,0,0,-1,-1,-2,-2
1509429672141224,-1,-2,1,0,-1,-3,0,0
1509429672141224,-1,0,-3,-1,-2,-1,-1,-1
1509429672147228,-2,-1,-1,-1,-2,-1,0,-1
1509429672147228,-2,-3,1,-2,-2,0,0,1
1509429672169245,0,-2,-1,-1,-2,-1,-1,1
1509429672169245,-1,-1,-1,-1,-1,0,-1,0
1509429672171246,-2,0,-3,-3,-2,-2,1,1
1509429672171246,-2,-2,-2,-1,-1,0,0,-1
1509429672184258,0,-1,0,-1,-1,-2,0,-1
1509429672184258,-1,-1,-1,-1,0,-1,-1,-1
1509429672186268,-2,-1,-1,-1,0,-1,-1,-1
1509429672186268,-4,-1,-1,1,-1,-1,-1,0
1509429672207271,-1,-2,-1,0,1,1,-1,0
1509429672207271,0,-1,-1,-2,-2,-2,0,-1
1509429672208275,0,0,-1,-1,-3,0,-1,-1
1509429672208275,-1,-3,-1,-1,-2,-1,-2,-4
1509429672229288,1,0,-1,0,0,-1,-3,-2
1509429672229288,-1,-1,-1,-2,0,0,0,-2
1509429672231289,0,-2,-2,-2,-1,1,-2,-3
1509429672231289,-2,-1,-1,-1,-2,-1,-2,0
1509429672244308,-2,-2,1,-3,-3,-3,0,-1
1509429672244308,-2,1,-3,-1,-1,-1,-1,-1
1509429672246314,0,0,0,-2,-1,-1,-2,0
1509429672246314,-2,-1,-1,-1,-1,-3,-2,0
1509429672266312,-1,-1,-2,1,0,-1,0,1
1509429672266312,0,-2,-3,-2,0,-1,-1,0
1509429672268316,-2,-1,0,-2,-2,-2,-1,-2
1509429672268316,-1,-2,-1,-1,-2,-1,-1,-2
1509429672289328,-2,0,-1,-1,0,-1,0,-3
1509429672289328,1,0,-3,-1,-2,1,-2,-1
1509429672295355,1,-1,-1,1,0,1,-1,-1
1509429672295355,-1,-2,-1,-3,0,-2,-1,1
1509429672304340,-1,-2,-1,0,-2,-1,0,1
1509429672304340,-1,-1,-1,0,-1,-1,1,-1
1509429672306340,-1,-1,-1,-2,1,-1,0,-1
1509429672306340,-1,-1,1,-3,-3,-1,0,1
1509429672326356,0,-2,-1,0,0,-1,-2,0
1509429672326356,0,1,-2,-1,0,0,-1,-1
1509429672328356,0,0,-2,0,-1,-1,-2,0
1509429672328356,0,0,-1,0,-2,-2,-1,-3
1509429672356386,-1,0,-1,-1,0,1,-1,-2
1509429672356386,-2,-2,-2,0,-3,0,-3,0
1509429672358377,-3,-2,-2,-2,-1,0,0,-2
1509429672358377,-2,-3,-1,-1,-1,1,-1,0
1509429672364408,-1,-2,-3,1,-2,-1,-1,-1
1509429672364408,-2,-2,-1,-1,0,-2,-1,-2
1509429672366382,0,0,-4,-1,0,-2,-2,-1
1509429672366382,-1,-2,1,0,-2,-2,-2,1
1509429672386398,0,-3,0,-1,-1,-1,-2,-2
1509429672386398,2,-2,-2,-2,-1,-2,-1,0
1509429672388411,0,0,-1,-3,-2,-2,-1,-2
1509429672388411,-1,0,1,-1,-1,-2,-1,-1
1509429672409414,-1,1,0,-2,-2,-2,-3,-2
1509429672409414,0,-2,-4,0,-1,-2,1,-3
1509429672411452,-3,-2,-1,0,0,-1,0,1
1509429672411452,-2,0,0,1,-3,-1,1,-1
1509429672424424,0,-3,0,-1,0,-1,1,3
1509429672424424,-2,0,-2,-2,0,-1,-3,0
1509429672426427,0,-2,-1,-2,-1,-1,-1,-1
1509429672426427,1,-2,-2,-2,2,0,-1,-1
1509429672446456,-1,2,-1,-2,-1,-1,-1,1
1509429672446456,-1,-2,-1,-1,0,-1,-2,-2
1509429672448440,0,-1,-2,0,-1,-1,-2,-1
1509429672448440,-1,-2,-2,0,-3,0,-1,-2
1509429672461483,-1,-2,-1,-1,-2,-3,1,-1
1509429672461483,-3,-1,-2,-1,2,-1,-2,0
1509429672475461,-2,0,-1,-1,-2,1,-1,-2
1509429672475461,-2,-1,0,-1,-2,-1,-1,-1
1509429672484470,-1,-1,-2,0,0,0,-1,-2
1509429672484470,-2,0,-2,-2,-2,-2,0,-2
1509429672485471,-1,-1,-2,-2,0,-1,0,2
1509429672485471,0,-1,-1,0,-1,0,0,0
1509429672506483,-1,-1,-1,0,-1,-1,-1,-1
1509429672506483,-2,-1,-1,-1,-2,-1,1,-2
1509429672508485,0,-2,-3,-1,-1,-1,-2,-3
1509429672508485,0,-1,-1,-1,-1,-1,-2,1
1509429672521493,-3,0,1,-1,0,-1,-2,1
1509429672521493,0,-1,-1,0,0,-1,0,1
1509429672528506,-3,0,-1,0,-1,-2,-1,0
1509429672528506,-1,0,-1,-1,-1,1,1,-2
1509429672544510,-3,-2,-1,0,1,-2,-2,-1
1509429672544510,0,-2,-2,-1,-1,-2,-1,0
1509429672545511,1,0,-1,-1,-1,-1,-1,0
1509429672545511,-1,-1,-2,0,-2,-2,-1,-1
1509429672566525,-1,0,0,-2,1,-1,-1,-2
1509429672566525,-1,0,-2,-1,-2,0,0,-2
1509429672568527,-1,-1,-1,-2,-1,-2,-2,-1
1509429672568527,-2,0,0,1,-1,-1,-1,-2
1509429672581537,0,-1,0,0,-1,0,0,-1
1509429672581537,0,-2,-1,-1,-1,-2,-1,1
1509429672595562,-1,-1,-3,-1,-2,-1,-3,-1
1509429672595562,-1,-1,-1,-1,1,-1,-1,-1
1509429672604553,-2,-2,-1,-1,-1,0,-1,-1
1509429672604553,-1,1,-1,-2,-3,0,-1,-2
1509429672605553,0,0,-1,-1,0,0,0,-3
1509429672605553,-1,-1,-1,-2,0,-2,-1,-2
1509429672626575,-2,-1,-2,-2,-2,-1,-2,-2
1509429672626575,0,-1,-3,-2,0,-1,-1,-1
1509429672628574,0,-1,-2,0,-2,-1,-1,-1
1509429672628574,0,-2,-1,-1,-1,-2,-3,-1
1509429672641578,0,-4,-1,-1,-1,-1,-1,0
1509429672641578,0,-2,-1,-2,-2,-1,-2,-2
1509429672655589,-2,0,0,0,-2,-2,-1,-2
1509429672655589,-2,0,1,0,-2,0,-1,0
1509429672664610,0,-1,-1,-1,-1,-1,1,-2
1509429672664610,-1,-1,-4,-1,-1,-1,-1,-3
1509429672666595,0,-3,-2,-2,0,0,1,-3
1509429672666595,-2,-2,1,0,-1,-2,-3,-1
1509429672686610,-1,-2,1,0,-1,-2,-2,0
1509429672686610,-2,-2,0,0,-1,0,0,1
1509429672688613,0,1,0,-3,-1,1,0,0
1509429672688613,-1,-2,-1,-1,0,-2,0,-2
1509429672700623,1,0,-2,1,-1,-1,-1,-1
1509429672700623,-1,1,-2,-1,0,-2,-1,-1
1509429672709630,-1,0,-1,0,-2,-2,0,1
1509429672709630,0,-2,-1,-1,0,0,-1,0
1509429672724641,-2,-1,-1,-2,-2,-1,-3,-2
1509429672724641,0,-1,0,0,-1,-1,-2,-1
1509429672725638,-1,-1,-2,-1,-1,0,-1,0
1509429672725638,-2,-1,0,1,-2,-1,0,-1
1509429672746665,0,-2,-2,0,-1,-3,0,-1
1509429672746665,0,0,-2,0,-1,-1,0,-1
1509429672748667,-1,-2,-3,-2,0,0,1,-2
1509429672748667,-1,-1,0,0,-2,0,-1,-2
1509429672760663,0,-1,0,-1,-2,-1,1,0
1509429672760663,-1,-2,-1,-2,-2,0,-1,-1
1509429672769668,-1,-1,-1,0,1,-2,-1,1
1509429672769668,-1,-3,-1,-1,-1,-3,1,2
1509429672784681,0,-1,0,-2,-1,-2,-1,1
1509429672784681,0,1,-3,-1,-1,-1,-3,-1
1509429672785681,-1,-1,-1,-1,-2,-1,-1,-1
1509429672785681,-2,0,-1,-1,0,-1,-2,0
1509429672806697,-1,0,0,1,-1,-1,-1,0
1509429672806697,-2,-1,-2,-2,0,-1,-2,-1
1509429672808696,-2,0,0,0,-1,0,-1,-2
1509429672808696,-2,-1,-1,0,0,-1,-1,-2
1509429672820704,-2,0,-1,0,-1,-4,-1,-1
1509429672820704,0,-1,-3,1,-2,-1,-1,-1
1509429672829712,-3,-2,-1,-1,0,-3,-3,-2
1509429672829712,-2,0,0,-2,-1,-3,0,1
1509429672844721,-2,-2,-2,-2,0,1,0,-2
1509429672844721,0,-2,-3,-2,1,-1,2,-1
1509429672845723,2,0,-2,-1,-3,-2,-1,-1
1509429672845723,0,-3,-2,1,-2,0,-2,-3
1509429672866737,0,-2,-1,1,2,-1,-1,-1
1509429672866737,-2,0,-1,0,-2,0,-2,-1
1509429672868744,-1,-1,-1,-2,-2,-2,-1,-2
1509429672868744,1,-1,-1,-1,0,0,-1,-2
1509429672880748,0,-1,-1,1,-1,-1,-2,0
1509429672880748,-3,-1,0,-1,0,0,0,0
1509429672889753,-3,-1,-2,-2,-1,-1,0,0
1509429672889753,-2,-3,0,-2,-2,-1,-2,0
1509429672904764,-1,-2,-1,-1,-1,-2,-1,0
1509429672904764,1,0,-2,0,-1,-2,-1,0
1509429672910768,0,0,-1,-1,-1,0,-2,-1
1509429672910768,0,-3,2,-1,-1,-1,-1,0
1509429672926779,2,-2,-1,0,-1,0,0,-1
1509429672926779,0,-2,-2,-2,-2,1,-1,-3
1509429672928784,-3,-1,-2,-1,-2,-2,-1,0
1509429672928784,-2,0,0,0,-1,-1,-1,0
1509429672940790,-2,-1,0,-2,-1,-2,-1,0
1509429672940790,-2,-1,-1,0,-1,0,-1,-2
1509429672949796,-1,0,-3,-2,-1,-2,-1,-2
1509429672949796,-1,-1,-1,-1,0,-3,0,-3
1509429672964856,-1,0,0,0,0,0,-1,-1
1509429672964856,-1,-1,-2,-3,0,-1,0,0
1509429672966818,0,-1,-1,0,0,0,0,-1
1509429672966818,-1,-2,-1,0,-2,0,-1,-2
1509429672986821,-1,-3,0,0,-1,1,0,-2
1509429672986821,-3,-2,-2,0,0,-2,-2,-1
1509429672988824,0,0,0,0,-2,-1,-1,-1
1509429672988824,-2,-2,-1,-1,-2,1,-1,1
1509429673000836,-1,-2,0,1,0,-3,-1,-2
1509429673000836,0,0,-2,-1,-1,0,-1,-2
1509429673009839,-1,-1,-1,-1,-1,0,0,-1
1509429673009839,-2,-1,-1,-3,1,-1,-1,1
1509429673038873,-2,1,-2,-1,1,0,0,0
1509429673038873,-1,-2,-1,-2,-1,-1,-1,-1
1509429673040861,-1,-3,-1,0,-2,-1,0,-1
1509429673040861,-1,-1,-1,0,-3,-2,0,-2
1509429673046864,0,0,-3,0,-1,-2,1,0
1509429673046864,0,-1,-3,0,0,0,-1,-2
1509429673048866,0,-1,0,-2,-3,0,-3,0
1509429673048866,-1,-2,0,1,-2,-3,-2,-1
1509429673060874,-1,-1,0,-1,0,-1,-2,-1
1509429673060874,0,0,-3,-1,-1,-2,1,1
1509429673069883,0,-2,-1,-2,2,0,-1,-1
1509429673069883,-1,-1,-1,-1,0,-1,0,0
1509429673084894,-2,-2,-2,-1,-2,-1,-3,-2
1509429673084894,-2,-2,0,-2,-2,-1,-1,-2
1509429673085894,-1,-1,-1,-2,0,0,0,-1
1509429673085894,-1,1,1,-1,-2,0,0,-1
1509429673106908,-4,1,0,-1,0,-1,0,0
1509429673106908,0,0,-2,-1,0,0,-1,-2
1509429673107909,-1,-1,-3,-1,-2,0,-2,-1
1509429673107909,-1,-2,1,0,0,-2,-1,-1
1509429673128924,-1,-3,-2,-1,-1,-2,-1,-2
1509429673128924,-2,0,-3,-2,-3,-1,0,-1
1509429673130925,0,0,0,-1,-2,-1,-1,0
1509429673130925,-1,-2,-1,-2,0,-1,-1,-1
1509429673151950,-1,0,1,-1,0,0,-2,0
1509429673151950,-1,0,-1,0,-1,-1,-1,0
1509429673153940,-1,0,0,-1,-2,-1,0,-2
1509429673153940,-2,-1,0,0,-2,-1,-1,0
1509429673166949,-1,0,0,0,-1,-2,-2,-1
1509429673166949,-1,0,-2,-1,1,-1,-2,-1
1509429673167950,-2,0,-1,-1,-1,-1,-1,-1
1509429673167950,-1,-2,0,-1,0,-1,0,-1
1509429673189979,-1,-1,-2,-1,-2,0,0,-1
1509429673189979,-1,-1,-1,-2,0,0,-1,-1
1509429673190979,-1,-1,-2,-2,-2,-2,0,0
1509429673190979,0,-2,0,0,1,-2,-2,-2
1509429673202975,-1,-1,-1,-2,-1,-3,-2,-1
1509429673202975,-1,0,0,0,-1,-1,-1,0
1509429673217998,-1,0,-1,0,0,-1,-2,0
1509429673217998,-1,0,0,0,-2,-1,-1,-2
1509429673227012,-1,-1,-1,-1,0,-1,-1,-1
1509429673227012,-3,0,-1,-3,-2,-1,-2,-1
1509429673227995,1,-3,-1,-2,-1,0,0,-1
1509429673227995,-1,-1,-2,-1,0,0,0,-2
1509429673249008,-1,-1,-2,-1,-3,-2,-2,-2
1509429673249008,-2,-1,-2,0,0,0,-1,-1
1509429673252020,-1,-1,-1,0,-1,-2,-1,-1
1509429673252020,0,1,-1,-2,-3,0,0,1
1509429673264088,-1,0,-1,-1,-1,-1,0,0
1509429673264088,0,-2,-3,-2,-2,0,0,-2
1509429673278040,-2,-1,-3,0,-1,-1,0,-3
1509429673278040,0,-1,0,0,-1,-1,0,-1
1509429673287036,-2,-2,-1,0,-1,0,0,-1
1509429673287036,-1,0,-3,-1,-2,-3,0,0
1509429673288036,0,0,-2,-2,-1,-1,-1,-2
1509429673288036,-1,0,0,-3,-3,-1,-2,-2
1509429673309051,0,-3,-2,-2,-1,1,-1,-1
1509429673309051,-1,-1,-1,-1,1,-1,-1,-1
1509429673311053,-3,-1,-1,-1,-1,0,-1,0
1509429673311053,-1,-1,0,-1,-1,-2,-1,2
1509429673324062,-1,0,-1,-1,-2,-2,1,0
1509429673324062,-1,-3,-2,0,-1,2,1,0
1509429673330066,0,0,-1,-3,-1,-3,0,-3
1509429673330066,0,-2,-1,0,1,-1,-1,1
1509429673347077,1,-2,-1,0,0,-2,-2,-2
1509429673347077,0,0,-2,-1,-2,-1,-1,-2
1509429673348077,-3,-3,-2,-2,-1,-1,0,0
1509429673348077,-2,-1,-1,-1,0,0,-2,-2
1509429673369094,0,-2,-2,-3,-2,-2,-1,0
1509429673369094,-1,-2,-2,-2,0,-2,-2,-2
1509429673371095,0,-2,0,-1,-1,0,-1,0
1509429673371095,-2,-1,-2,0,-1,0,-2,0
1509429673384103,-2,-1,0,-1,1,0,-2,-2
1509429673384103,0,2,-1,-2,-2,-1,0,1
1509429673407119,-1,1,-1,-2,-2,-1,0,0
1509429673407119,0,-1,2,-1,-2,-2,0,-2
1509429673408120,-1,0,-3,-1,-1,-2,-1,-2
1509429673408120,-2,-1,-2,-1,-1,0,-1,-2
1509429673410122,-1,-3,-1,-1,-1,-1,-1,-1
1509429673410122,-1,-3,-2,0,-1,-2,0,0
1509429673430136,-2,-2,-1,-2,-1,0,-2,-2
1509429673430136,-2,0,-2,-1,-1,-1,-2,-2
1509429673432139,0,0,-1,-1,-1,-1,-1,-1
1509429673432139,-1,0,0,-1,-1,-2,-1,-2
1509429673443161,-1,-3,-2,-2,0,1,1,1
1509429673443161,-1,-1,-1,0,0,-3,0,-2
1509429673452155,-2,-1,0,1,-1,-1,-1,-1
1509429673452155,-3,-1,-2,-1,-2,-1,-1,0
1509429673467162,1,-2,-1,0,-1,-2,1,-1
1509429673467162,-1,-1,-2,-1,-1,1,-1,-2
1509429673469164,0,1,-2,-3,-2,0,-3,-1
1509429673469164,-1,0,2,-1,-1,-2,-1,0
1509429673489183,-1,-2,0,-1,-1,0,-1,0
1509429673489183,-1,-1,-1,-1,-1,-2,-2,1
1509429673491180,-1,-2,-2,0,-1,-1,-1,-1
1509429673491180,-2,-1,-2,-1,0,1,0,-2
1509429673503197,0,-1,-2,0,-2,0,-2,-1
1509429673503197,-1,0,0,0,1,-1,-2,-3
1509429673518215,-1,-2,-1,-1,-2,-1,-2,-2
1509429673518215,-1,-3,0,1,-1,-2,-1,-2
1509429673527214,-2,0,-1,0,-2,-2,-2,-1
1509429673527214,-1,-1,-3,-2,-1,0,-1,0
1509429673528205,-2,-1,0,0,-2,-1,0,-1
1509429673528205,-1,-2,0,-1,0,-1,-1,-1
1509429673549244,0,0,-3,0,0,1,-3,-1
1509429673549244,-1,0,-1,-2,-2,1,-1,-1
1509429673552223,-2,-1,0,-1,-2,0,-1,-1
1509429673552223,0,-2,-2,-3,-1,-4,-1,-1
1509429673563258,-2,-1,-2,-1,-2,-1,0,-3
1509429673563258,1,-1,-1,0,-1,-3,0,-1
1509429673570234,1,-1,0,-1,-2,0,-2,-1
1509429673570234,0,-1,-1,1,-1,-1,0,-1
1509429673594290,-1,0,-3,-1,1,-1,-1,0
1509429673594290,-1,-1,-1,-1,0,0,0,0
1509429673596276,-1,1,-1,-3,-1,-1,0,0
1509429673596276,-1,0,-1,-1,-1,-1,-2,0
1509429673616284,0,0,-1,-1,-2,-1,-1,-1
1509429673616284,-2,-1,-1,-2,0,-1,-1,0
1509429673618271,-1,0,-1,1,0,-3,-1,-1
1509429673618271,0,-2,0,-1,-2,-1,1,-1
1509429673623273,-1,-1,0,-1,-3,-3,0,-1
1509429673623273,-1,0,-2,0,0,-2,-1,-3
1509429673632280,-1,-2,-2,-2,-1,-1,-2,-2
1509429673632280,0,-1,-2,-1,-1,0,0,-2
1509429673646292,-1,-4,0,-1,-1,-1,-1,1
1509429673646292,-1,-1,0,-2,-1,-1,-2,1
1509429673648292,-2,-2,-1,1,-2,0,-1,0
1509429673648292,-3,-2,0,-2,-1,0,0,1
1509429673676310,-1,-1,-2,1,-1,0,-3,-1
1509429673676310,-1,0,-2,-1,-1,-1,0,-3
1509429673678311,1,-1,-2,-1,-1,-2,-2,-1
1509429673678311,0,0,1,-2,-1,-1,-1,0
1509429673683316,-2,-1,1,-1,-2,-1,1,0
1509429673683316,-2,-2,-2,-1,-1,-2,0,0
1509429673692321,-3,0,-1,-1,-1,-2,-2,-1
1509429673692321,-1,0,-1,-1,-1,0,-3,-1
1509429673706332,-2,-1,-2,-2,-1,-2,-1,-2
1509429673706332,0,1,-3,-1,-2,-1,-2,0
1509429673708333,-1,-1,0,-2,-2,-1,0,-1
1509429673708333,-1,-5,0,-1,0,-1,0,-1
1509429673736353,1,-1,-2,-2,1,0,-1,-3
1509429673736353,0,-2,-1,0,0,-2,1,-3
1509429673738354,-1,-2,0,-2,-2,1,-1,-1
1509429673738354,-2,-2,0,0,-1,-3,-2,-1
1509429673743358,0,0,-1,-1,0,-1,-2,0
1509429673743358,0,-1,-2,-3,-2,0,-1,0
1509429673752364,-1,-1,-2,-2,0,-2,0,0
1509429673752364,-1,-1,0,-2,-1,-1,-3,0
1509429673774380,-1,-2,-1,0,-2,-1,0,-2
1509429673774380,-1,-1,-2,-2,0,-1,-2,0
1509429673776382,-1,-1,-1,-2,-1,-1,1,-2
1509429673776382,-1,-2,0,0,-1,-3,-1,-1
1509429673789391,-2,0,-2,0,0,-2,-2,-1
1509429673789391,-1,-1,-2,-4,-2,0,0,0
1509429673790390,-2,-1,-1,0,0,0,0,1
1509429673790390,-2,-1,0,0,-2,-1,-2,-1
1509429673802400,-1,-1,0,-3,-2,-1,0,-2
1509429673802400,-1,-2,-1,-1,-2,1,-3,-2
1509429673811407,-1,0,-3,-3,0,0,-1,0
1509429673811407,-1,0,-4,-1,-3,0,0,0
1509429673834423,0,1,-1,0,-1,-1,1,-1
1509429673834423,-1,-1,0,-1,0,0,0,-3
1509429673835425,-2,-1,-1,-1,-2,-1,-1,-1
1509429673835425,-2,-2,-2,1,0,-1,0,-1
1509429673849449,-1,-3,-1,-2,1,-2,-1,0
1509429673849449,-1,0,-1,0,-2,-1,-2,0
1509429673851434,-3,0,1,-1,-1,0,-1,-1
1509429673851434,-1,-3,1,-1,-1,-3,-1,-1
1509429673862457,-1,-2,-2,0,-1,-1,-2,1
1509429673862457,0,0,-3,-1,-1,-1,-1,-1
1509429673872448,-2,-2,-1,0,-3,-2,-1,0
1509429673872448,0,-2,0,-1,-1,0,0,-1
1509429673894489,0,-1,-1,-2,0,-1,-1,-2
1509429673894489,-1,-2,-1,-2,0,-1,-3,-1
1509429673895484,-1,0,-1,-2,-2,-1,0,-1
1509429673895484,0,0,-2,-2,-1,-1,-1,-3
1509429673909476,-2,-1,-1,-1,-2,-2,1,0
1509429673909476,0,0,-1,-2,-1,-1,-1,-2
1509429673910477,-2,-1,-2,0,-2,-1,-1,-2
1509429673910477,0,-1,-1,-1,-1,-1,0,0
1509429673922487,-1,0,-2,-2,1,-2,-2,-1
1509429673922487,0,0,-2,-1,-2,0,-1,-1
1509429673931507,0,0,-1,0,-1,0,-1,-2
1509429673931507,-1,-2,0,0,-1,-2,-1,0
1509429673947518,-1,-2,-2,-1,-1,-1,-2,1
1509429673947518,-2,-1,-2,-2,-1,0,0,-1
1509429673949520,-1,-1,-1,-1,-1,-1,0,-2
1509429673949520,-4,-1,0,-1,-2,0,0,-2
1509429673969517,-2,-1,-1,-1,-2,-1,-1,-1
1509429673969517,-2,-1,-2,-1,0,-3,-2,1
1509429673970518,-1,-3,-1,-1,-1,0,-1,-1
1509429673970518,-1,-1,0,-1,0,-2,-1,2
1509429673982535,-1,-2,-2,-2,-2,-1,-1,-1
1509429673982535,-2,-1,-2,0,-2,-1,0,-1
1509429673992534,0,-1,-1,-1,-2,-1,-2,-1
1509429673992534,0,-1,0,1,-1,0,-3,-2
1509429674006547,-1,-2,-2,-1,-1,1,-1,-1
1509429674006547,-1,0,-1,-1,-1,-2,1,-1
1509429674008546,0,1,0,-2,0,-1,0,0
1509429674008546,1,-1,-1,-1,0,0,-2,0
1509429674029562,0,0,-3,-1,-1,-2,-3,0
1509429674029562,2,0,-1,-1,-2,-1,1,-1
1509429674030560,-1,-2,0,-2,-1,-2,0,0
1509429674030560,-1,-1,0,-2,-1,-1,0,-1
1509429674051584,-1,-2,-2,2,-1,-1,-1,-2
1509429674051584,-3,-2,-1,-2,0,-1,-2,-3
1509429674054578,-2,-2,0,-2,-2,0,-1,-2
1509429674054578,-2,-2,-1,0,-1,1,-1,-1
1509429674081636,-1,0,0,-1,0,0,0,0
1509429674081636,0,1,-2,-1,-1,1,-2,1
1509429674083616,-2,0,0,-1,-1,-2,0,1
1509429674083616,-1,-2,-1,-1,-1,-3,0,-1
1509429674089603,-2,1,-1,-1,-2,-1,-1,-3
1509429674089603,-1,-2,-3,-1,-1,-2,-1,-1
1509429674090603,0,-1,-1,-2,1,-1,-2,0
1509429674090603,-2,-2,0,1,-2,-1,-1,-1
1509429674111644,0,0,-1,-1,-1,0,0,0
1509429674111644,0,0,-1,-1,0,0,-2,-3
1509429674113620,-1,-2,0,0,-2,0,-2,-2
1509429674113620,-2,-1,0,-1,-1,0,0,-2
1509429674126629,-1,-3,0,0,-1,-2,0,-1
1509429674126629,-1,-1,-1,-1,-3,-1,0,0
1509429674128631,0,-2,-1,-1,0,-2,-1,-1
1509429674128631,-1,-2,-2,-1,-1,-2,-1,-2
1509429674149712,-1,0,-2,-1,-1,-3,-1,-1
1509429674149712,-2,-1,-1,-1,-1,-2,0,0
1509429674151646,-1,-2,0,0,0,-1,-2,-2
1509429674151646,-1,-3,-1,-2,0,-1,-1,0
1509429674171673,0,-3,-2,-2,0,0,0,-1
1509429674171673,-2,0,-2,-2,-1,0,0,1
1509429674173672,-2,0,-1,-1,-2,-1,-2,0
1509429674173672,-1,0,0,-1,-1,-1,-2,1
1509429674186672,-1,0,0,-1,-2,0,-1,-3
1509429674186672,-1,-1,-2,0,-1,-2,-2,-2
1509429674188673,0,-2,-2,-1,-1,0,0,-1
1509429674188673,-2,0,0,-1,-1,-2,-2,-3
1509429674209687,0,0,-3,-2,-1,0,1,-1
1509429674209687,0,-3,-2,-1,-1,0,-3,0
1509429674210689,-3,-3,0,-1,-2,0,1,-1
1509429674210689,-2,-1,1,0,-2,-1,-1,-1
1509429674231758,-1,1,-2,-2,0,-1,-1,0
1509429674231758,-1,-1,-3,-2,-2,-1,-1,-1
1509429674233727,0,1,-1,-1,-2,-1,-3,-2
1509429674233727,0,-2,0,-1,-1,-1,-1,-1
1509429674245737,0,-1,-3,-1,0,-1,0,-1
1509429674245737,0,0,0,0,-1,-1,-1,-1
1509429674260779,-2,-1,-1,-1,-1,-2,-1,0
1509429674260779,-3,-1,-1,-1,0,-1,-1,-1
1509429674268730,-1,-3,0,-2,0,-2,-2,-1
1509429674268730,0,-1,-1,-1,-1,0,0,-1
1509429674270732,-2,0,-1,-1,-3,-1,-1,-1
1509429674270732,-2,-1,-2,-1,0,-1,-1,0
1509429674299751,-3,-2,-1,0,-2,0,0,-1
1509429674299751,-1,-1,-2,-2,0,0,-1,-3
1509429674300752,-1,0,0,-1,0,-1,0,0
1509429674300752,0,-2,-1,-2,1,-2,-2,-1
1509429674305757,-1,-1,-3,0,0,-1,-1,-2
1509429674305757,0,0,-1,0,0,-1,0,-2
1509429674313777,-2,-2,-2,0,0,-2,0,-1
1509429674313777,-1,-1,0,-1,-1,-3,-1,-1
1509429674328772,-1,0,-1,-1,-2,0,-2,0
1509429674328772,-2,-1,-1,-2,-1,0,0,-1
1509429674330774,-1,-2,0,-2,-2,-1,0,1
1509429674330774,-1,1,0,-1,-1,-1,1,0
1509429674351808,0,-1,-1,-2,0,0,-3,0
1509429674351808,-1,-1,-2,-1,-2,-2,-2,-2
1509429674353790,-1,-2,-1,0,-1,-1,-3,-1
1509429674353790,-2,-3,-2,0,0,0,0,0
1509429674365813,0,-1,-2,-1,0,-1,0,-1
1509429674365813,-1,0,-1,-2,-2,-2,-1,-2
1509429674372803,-1,-1,0,-1,-2,0,-1,-2
1509429674372803,1,-2,-1,0,-2,-3,0,-1
1509429674388815,-1,-1,0,-1,-1,-1,0,0
1509429674388815,-2,-1,-4,-1,0,0,-1,-1
1509429674390825,-1,-3,-1,-2,0,-1,-1,-2
1509429674390825,-1,-2,0,-1,0,-1,-1,-1
1509429674418851,0,0,-1,-1,0,-2,-2,0
1509429674418851,-1,-1,0,-2,-1,-1,0,-2
1509429674420837,-1,-1,0,-1,0,-2,0,-2
1509429674420837,-1,-3,0,0,-1,-2,-2,-1
1509429674425855,-1,-1,-3,-1,-2,0,-2,0
1509429674425855,-1,-1,-1,-1,-3,0,-1,1
1509429674432846,0,-1,0,-2,0,0,0,-1
1509429674432846,-1,0,-2,-1,0,0,-2,-1
1509429674449880,-1,-2,-3,0,0,1,1,-1
1509429674449880,-3,-1,-2,-1,-1,-1,0,-2
1509429674451861,-2,0,-1,0,-2,-2,0,-1
1509429674451861,-1,-2,0,-1,-1,-1,-1,-1
1509429674471886,-1,-1,-3,0,-1,-1,-1,-1
1509429674471886,-2,0,0,-1,-1,0,0,-1
1509429674472874,-1,-2,0,-1,-2,-1,0,-2
1509429674472874,-3,-1,2,-1,-1,-1,0,-2
1509429674485893,-1,-2,0,-3,-1,-1,-2,-1
1509429674485893,-2,-2,-3,0,-1,0,-3,0
1509429674492889,1,-2,-1,-1,-1,0,-1,-1
1509429674492889,1,0,-2,1,0,0,0,0
1509429674508900,0,-1,-2,-3,0,0,0,-1
1509429674508900,-1,0,-2,-2,-1,-1,-1,-1
1509429674510902,-2,0,-1,-2,-2,0,-2,-2
1509429674510902,-2,-2,0,0,-1,-2,-1,0
1509429674546966,-1,-1,-1,1,-2,-2,0,-2
1509429674546966,0,-2,-2,-3,0,-1,-1,-2
1509429674548930,0,-1,-1,1,-2,-2,-2,-1
1509429674548930,-2,-2,-1,-1,0,-1,-1,0
1509429674550931,-1,-1,0,0,-3,-3,-1,-2
1509429674550931,-2,0,-1,-1,-1,-1,-1,0
1509429674553931,-3,1,0,0,0,-2,-1,-1
1509429674553931,-1,-2,0,-1,-1,-1,0,-1
1509429674576949,-1,-3,-2,-2,0,0,-2,0
1509429674576949,0,0,-2,-1,-1,-1,-1,-2
1509429674577950,0,-2,0,-2,-2,-1,-2,0
1509429674577950,0,-2,-1,-1,0,-1,-1,0
1509429674598972,0,0,-1,-2,0,0,0,-3
1509429674598972,-1,0,-1,-1,-2,0,0,-1
1509429674607970,-1,-1,0,1,2,-1,-2,-1
1509429674607970,-1,-2,-1,-1,0,-2,0,-1
1509429674607970,-1,1,-3,-2,-1,0,0,-1
1509429674607970,-1,0,-2,0,-1,-2,0,0
1509429674613989,0,-2,-1,-2,-2,-2,-1,-2
1509429674613989,0,0,-2,-1,-3,-1,-2,-1
1509429674628984,0,-1,-1,-1,0,0,-2,-4
1509429674628984,-1,-2,-1,-1,-1,-1,-1,-3
1509429674630986,-1,-1,-1,-1,-2,-1,0,-2
1509429674630986,0,0,-1,-1,-1,-1,0,-1
1509429674652002,0,-1,-2,0,0,-1,0,-1
1509429674652002,1,-1,-2,-1,-2,-2,0,-1
1509429674653002,0,-2,-1,-1,-1,0,-1,1
1509429674653002,0,-1,0,0,0,0,-1,0
1509429674666011,-3,-2,0,-2,-1,-1,0,1
1509429674666011,-1,-1,0,-1,0,1,-1,-1
1509429674674016,-2,-3,-2,-2,-2,-1,0,-2
1509429674674016,-1,0,0,0,-2,-1,-3,-2
1509429674688026,-1,-1,-2,0,-2,-1,-3,-2
1509429674688026,1,-1,-2,0,1,-1,0,-1
1509429674697033,-1,2,0,0,0,-2,-2,1
1509429674697033,-1,-1,0,-1,0,0,-1,0
1509429674712077,0,0,-2,-2,0,-2,-1,-2
1509429674712077,-2,-1,0,-1,0,-1,-1,-1
1509429674713067,-2,-2,-3,1,-1,-2,-1,0
1509429674713067,-3,-2,-1,-2,0,-2,-1,-1
1509429674725053,-1,0,-2,-2,-1,0,0,-1
1509429674725053,-1,-1,-2,-3,-2,0,-1,1
1509429674734058,-1,-2,0,1,0,-2,-1,-1
1509429674734058,-3,-2,-1,-2,-2,-2,-2,-2
1509429674750126,-3,0,-2,1,-3,-1,1,-1
1509429674750126,-1,0,-1,-2,0,-2,-1,-2
1509429674755075,-2,-2,1,-2,-1,-1,-2,0
1509429674755075,-1,-1,-2,-1,-1,-1,0,-2
1509429674772095,-1,-2,-2,-2,-1,-2,-2,1
1509429674772095,-1,-1,-1,0,-1,0,0,-2
1509429674773092,0,-1,0,-1,-1,-1,-2,-2
1509429674773092,0,-2,-1,0,0,-2,-1,-1
1509429674785107,-1,-1,-2,-2,0,-2,0,-1
1509429674785107,-1,-1,-1,-1,0,-1,0,-2
1509429674794101,-1,-1,-1,-1,-1,-3,0,-1
1509429674794101,-1,0,1,-1,-1,-2,-2,0
1509429674809113,-1,0,-3,-2,-1,1,-1,0
1509429674809113,-1,-1,-2,-4,-1,-1,-2,1
1509429674811114,-1,-2,-1,-1,0,-1,-1,0
1509429674811114,0,-2,-2,-1,-2,-1,-1,-2
1509429674832146,0,-3,-1,-2,-1,-1,-3,-2
1509429674832146,-1,0,0,-1,0,-1,0,-2
1509429674833132,-1,-2,0,-1,-2,-1,-1,1
1509429674833132,-1,-1,-1,0,-1,-1,-3,0
1509429674845156,0,0,-1,-1,-2,-1,0,-2
1509429674845156,-2,-1,-2,-1,-1,0,-1,0
1509429674855144,-1,0,0,-1,-1,-1,0,-1
1509429674855144,-2,-3,0,0,0,-1,0,0
1509429674869155,-1,-1,-4,-2,1,-1,-2,-2
1509429674869155,-2,1,-1,-2,-1,-1,-2,-2
1509429674871169,-1,-1,-1,0,-2,-1,-3,0
1509429674871169,-1,-1,-1,-1,-1,0,-1,-1
1509429674892172,0,-2,-2,0,-2,-2,1,-1
1509429674892172,-1,-3,-2,-2,-1,-1,-1,0
1509429674893171,-2,0,-1,-2,-1,-1,1,-2
1509429674893171,0,-3,-1,-1,-1,-1,0,0
1509429674905181,-2,-1,0,-1,1,-1,-1,-2
1509429674905181,-2,-2,0,0,-2,1,0,-2
1509429674914187,-2,-1,-1,-2,-1,-1,-2,0
1509429674914187,-2,0,1,-2,-1,-1,-1,0
1509429674929217,-2,-1,-3,-1,0,-2,-1,-1
1509429674929217,0,-1,-3,-1,-1,-3,-1,0
1509429674931210,-2,-2,-1,-2,-1,0,-1,-1
1509429674931210,1,-2,-1,-2,-1,-1,0,-2
1509429674952213,-1,-1,-1,1,-1,-2,-2,0
1509429674952213,-1,0,-1,0,-3,-1,0,-1
1509429674954215,0,0,0,-2,0,-2,0,-2
1509429674954215,0,0,-2,1,-2,0,-1,-2
1509429674974230,-3,0,0,-1,-1,-1,0,0
1509429674974230,0,-3,-2,0,-2,-1,-1,-2
1509429674976231,0,-2,1,1,0,-1,-3,-1
1509429674976231,-1,-3,0,-2,-1,-3,-1,-2
1509429674988240,0,-1,-3,-2,0,0,1,-1
1509429674988240,-2,0,-4,-1,0,-1,-2,-2
1509429674995244,-2,-3,0,-1,-2,-1,1,0
1509429674995244,-2,-1,0,-1,0,-1,-1,-1
1509429675012255,1,0,-1,0,-2,0,-1,-1
1509429675012255,-2,-1,1,-1,-1,-1,0,-1
1509429675013257,1,-1,1,-2,-2,-2,0,-1
1509429675013257,-1,-1,-1,-1,-1,-2,-2,-1
1509429675034286,-3,-1,-1,-1,1,-2,-1,-2
1509429675034286,0,1,-3,-2,0,-3,-1,-1
1509429675036273,-2,-1,-2,-1,-1,-2,0,-1
1509429675036273,-4,-1,0,-2,-1,0,0,0
1509429675049285,-1,-1,-2,-2,-1,2,-1,-1
1509429675049285,-2,-2,-2,-1,-3,1,-3,-1
1509429675052286,0,-2,-1,-2,-2,-1,-2,-1
1509429675052286,-1,0,-1,1,-1,-2,-2,0
1509429675071298,-1,-1,-3,-3,-3,-2,-1,0
1509429675071298,-1,1,-1,-2,-1,-1,-2,-2
1509429675073299,0,0,0,0,-2,1,-1,-2
1509429675073299,-1,0,0,0,-1,0,0,-2
1509429675094317,-1,-2,-2,-1,-1,-2,-3,-4
1509429675094317,-1,-1,0,-1,-1,-1,-2,-1
1509429675096321,-1,-1,0,-2,-2,-2,-1,0
1509429675096321,0,-2,-1,-1,0,-2,-1,1
1509429675109325,-1,1,-1,-1,-2,0,-1,0
1509429675109325,-2,-2,-1,-2,1,-1,-1,-1
1509429675111325,0,-1,-1,-1,0,-1,-1,-2
1509429675111325,-1,0,-2,-1,0,-1,-1,0
1509429675131343,0,0,-2,-2,-1,-1,0,0
1509429675131343,0,-1,-2,-2,-2,-1,1,-1
1509429675133341,-3,-1,0,-1,1,-1,0,-1
1509429675133341,-1,-1,-1,-2,-1,0,-1,-2
1509429675162363,-1,-1,-2,-2,-1,0,-1,0
1509429675162363,-2,-3,-1,-1,-1,0,-1,0
1509429675164366,-2,-1,-1,0,-1,-3,-1,-2
1509429675164366,1,-3,0,0,-1,-2,-2,-1
1509429675168366,0,-2,0,-2,-1,-2,-2,-3
1509429675168366,-1,1,-1,-2,-2,-1,0,-1
1509429675176376,-1,-1,-1,1,-3,0,-2,-2
1509429675176376,-1,-1,-2,-1,-1,-1,-2,0
1509429675191384,-1,-2,-2,-1,0,-1,-2,1
1509429675191384,0,0,-1,-2,0,-1,-1,0
1509429675191384,0,0,1,-1,-2,-1,-2,0
1509429675191384,0,-1,-1,0,-2,-1,1,-1
1509429675213400,-2,1,-1,-1,0,-1,0,-2
1509429675213400,-1,-2,-4,-2,0,-1,1,-1
1509429675214399,-2,0,0,0,0,-1,-1,0
1509429675214399,-1,0,0,-2,0,-1,-1,-2
1509429675228408,1,0,-1,0,-1,0,-1,0
1509429675228408,-1,-1,0,-1,-3,-3,-3,-1
1509429675236417,-1,-1,-1,-1,-1,-2,-3,-1
1509429675236417,-1,-1,0,0,-1,0,-3,-1
1509429675251431,-2,-1,-2,-3,0,-2,-1,-1
1509429675251431,-2,1,-1,-1,-1,-1,-1,0
1509429675252442,-2,-2,0,-2,-2,-2,-3,-1
1509429675252442,-2,-2,0,-1,-1,-3,-1,-1
1509429675273441,-1,-1,-2,-1,0,-1,0,-1
1509429675273441,-1,-2,-1,-1,-1,0,0,0
1509429675274442,-2,-1,1,1,-1,-1,0,-1
1509429675274442,1,0,-1,-1,-4,-1,-2,-1
1509429675287451,-1,1,-3,0,-2,-1,0,-3
1509429675287451,-1,0,0,-2,-1,0,-1,0
1509429675296476,-1,-1,-2,-2,-2,-1,-1,0
1509429675296476,-2,-2,-2,0,-2,-1,-1,-2
1509429675311467,1,0,-2,0,0,-2,-1,-3
1509429675311467,0,0,-1,0,-1,-1,-1,-3
1509429675311467,1,-1,-1,0,-3,-1,-2,-1
1509429675311467,-3,-2,-1,0,0,0,-1,0
1509429675333484,0,0,-2,-1,-1,-1,-1,-1
1509429675333484,-1,-1,-1,0,0,-1,-1,-2
1509429675341488,-2,-1,0,-1,0,-1,1,-2
1509429675341488,0,-1,0,-2,0,-2,-1,0
1509429675347508,-1,-2,0,1,-2,0,-1,-1
1509429675347508,-2,-2,-2,-1,-2,-3,-2,0
1509429675356509,-1,-3,0,0,-2,0,-2,0
1509429675356509,-1,-2,-2,0,0,-2,-1,-2
1509429675370510,-2,-1,0,0,0,-1,-1,-1
1509429675370510,0,0,0,-3,0,2,-1,-2
1509429675371514,-1,-2,-1,0,-2,-2,-2,-2
1509429675371514,-1,-1,-2,-1,-1,-1,0,-1
1509429675393548,-2,-1,-1,-3,-2,-3,-1,0
1509429675393548,-1,-1,-3,-1,-2,-2,-1,0
1509429675394527,-2,0,1,-2,0,-2,-1,0
1509429675394527,0,-1,0,-2,-1,-1,-1,-1
1509429675408545,-1,-1,-2,-1,-2,0,-2,-1
1509429675408545,-1,1,-2,-3,-2,-1,-1,-1
1509429675409537,-2,-1,-3,0,0,-1,-1,-1
1509429675409537,0,-1,0,0,0,-1,-2,-1
1509429675430574,-1,-2,-4,-1,-1,0,-1,-1
1509429675430574,1,-1,-1,-1,-1,-3,-1,-2
1509429675431553,-1,-2,1,-2,0,-2,1,0
1509429675431553,-1,-2,-1,-2,0,-1,1,0
1509429675453567,-1,-1,-1,-1,-1,0,-1,0
1509429675453567,-1,-1,-3,-1,-1,0,-2,-1
1509429675454570,0,0,0,0,-1,-2,1,-2
1509429675454570,-2,-1,-1,-2,-2,1,1,-3
1509429675468590,0,0,-2,-1,-1,-3,-2,-3
1509429675468590,1,0,0,-2,-2,-1,0,-1
1509429675469580,0,-1,-1,-1,-1,-1,-1,1
1509429675469580,0,-1,0,0,-2,-1,0,0
1509429675491594,-3,1,-2,-2,-1,-1,-2,-1
1509429675491594,-1,-2,1,-1,-1,-2,-1,-2
1509429675491594,-1,-1,-1,-1,1,0,-2,-1
1509429675491594,-2,-2,0,-1,-1,-1,-2,0
1509429675513667,-1,0,-1,-3,-1,0,0,-1
1509429675513667,-2,-2,-1,-2,-1,-2,-1,-1
1509429675514613,0,-1,-1,-3,-2,0,-2,0
1509429675514613,-1,-1,-1,0,-2,0,-1,-2
1509429675527620,-1,-2,-2,-2,-1,0,-1,-1
1509429675527620,0,-1,-1,-2,-2,-1,-1,0
1509429675535627,-1,-2,0,-2,-3,-1,-1,0
1509429675535627,-1,-2,0,-1,1,-1,-1,-1
1509429675550652,-1,0,0,-3,-1,-1,0,0
1509429675550652,-1,-2,-2,-2,-1,-2,-2,-2
1509429675551638,0,-2,0,-1,-2,0,0,-3
1509429675551638,0,-1,-1,-1,-1,-1,-2,-1
1509429675573654,1,-2,-4,-1,-1,-1,-1,-2
1509429675573654,-5,-3,3,1,1,1,0,-1
1509429675574654,-1,-1,-2,-1,-1,-3,-1,-1
1509429675574654,-2,-2,-1,-2,-1,-1,-1,-2
1509429675587664,-1,-1,-3,0,0,-1,0,-1
1509429675587664,-1,0,-3,-1,-2,-1,-1,-1
1509429675595672,-1,-2,0,0,-2,-2,-1,0
1509429675595672,-2,0,1,0,0,-2,-1,-1
1509429675610680,-1,0,1,-2,-1,-2,-2,1
1509429675610680,-1,1,-1,-1,0,0,-2,0
1509429675611679,-3,-1,-1,-1,-1,-1,0,-1
1509429675611679,-1,-1,-2,0,-1,-2,-1,0
1509429675633696,-1,0,-2,-2,-1,1,0,-2
1509429675633696,0,0,-1,-1,-2,1,-2,-1
1509429675634698,-1,-2,-1,-1,-1,2,0,1
1509429675634698,-1,0,-1,-1,-2,-2,0,0
1509429675647709,-2,-3,-1,-1,-2,-2,0,-3
1509429675647709,0,-1,-3,0,-1,-2,-1,-2
1509429675655712,-5,-1,0,1,1,-1,-1,-1
1509429675655712,-1,-2,-1,-1,-1,0,-2,-1
1509429675670723,1,-1,2,0,-2,-1,-3,1
1509429675670723,-1,2,-2,0,-2,-1,-2,-2
1509429675671731,0,-1,-1,-1,-2,-4,-1,0
1509429675671731,-1,0,-1,-1,-1,0,0,-1
1509429675693738,0,1,-2,-1,0,-2,-1,1
1509429675693738,-1,-2,1,-2,-1,0,-1,-1
1509429675694739,-1,-1,-1,-2,-1,-2,0,0
1509429675694739,0,-2,-1,-2,0,-1,-2,-1
1509429675707749,-2,-2,-2,-1,-1,0,1,1
1509429675707749,-2,-1,-1,0,-3,-3,0,-1
1509429675715757,-2,-2,0,0,-1,1,-2,0
1509429675715757,0,-2,-1,-3,0,0,-1,-2
1509429675730768,-3,-1,-3,-1,-1,-1,-2,-1
1509429675730768,0,0,-2,-3,-1,-1,-1,0
1509429675731764,-1,-1,2,0,0,0,-2,0
1509429675731764,0,0,-3,0,-2,-3,0,0
1509429675753781,0,-2,0,0,-2,0,0,-3
1509429675753781,0,-2,-3,-3,0,-2,-1,-1
1509429675754782,-5,-1,0,2,-2,-3,0,0
1509429675754782,-1,-1,-2,0,0,0,-2,-1
1509429675767813,-2,0,-3,-2,1,-1,-1,-4
1509429675767813,0,0,1,1,-1,-1,0,-1
1509429675775805,2,-1,0,-2,0,-1,-1,-1
1509429675775805,-4,0,0,-4,-3,-2,-2,-1
1509429675790807,1,1,-2,-1,-3,-1,0,1
1509429675790807,-1,-2,-2,-1,4,2,2,-1
1509429675791808,0,-1,-2,0,0,-2,0,0
1509429675791808,-1,0,-1,-1,-1,-2,0,1
1509429675813878,1,-2,0,1,-1,-1,-1,-1
1509429675813878,-2,0,-1,-3,-2,-1,0,-3
1509429675814866,-1,-3,0,-2,-7,0,-1,-2
1509429675814866,-1,-1,11,5,7,1,0,-2
1509429675827845,-1,-1,-11,-2,-3,0,0,-1
1509429675827845,1,-1,-5,-2,-1,-3,-3,-1
1509429675835841,-1,1,4,1,-1,-1,3,-2
1509429675835841,-1,-1,-10,-11,-2,-3,0,-1
1509429675850865,-1,-1,7,-1,-3,-2,-2,-1
1509429675850865,-1,-2,0,-2,5,2,0,-1
1509429675851851,-1,-4,-3,-3,-3,0,-3,-1
1509429675851851,3,1,2,6,1,0,-2,0
1509429675873866,0,4,13,5,2,0,-1,0
1509429675873866,-5,-7,-32,-15,-3,-2,-2,-1
1509429675873866,0,-1,-2,-4,-2,-2,-3,0
1509429675873866,-2,-1,-7,-4,-1,-2,-1,0
1509429675887876,-2,-1,5,7,-2,-1,-3,-1
1509429675887876,3,2,11,8,2,1,-1,-1
1509429675896885,-2,-2,-4,0,-1,-1,-1,-3
1509429675896885,-5,-1,-3,1,-5,-4,1,-2
1509429675910892,1,-4,-1,13,5,0,0,-1
1509429675910892,1,2,4,-15,-10,-3,-1,0
1509429675911892,3,0,-3,-5,5,-1,0,0
1509429675911892,0,0,-13,-20,-7,-3,0,0
1509429675933909,0,1,-7,-7,-5,-3,-5,-6
1509429675933909,-1,6,5,27,6,2,1,2
1509429675933909,1,1,4,-29,-5,-2,-1,4
1509429675933909,-7,-24,-2,1,-2,-2,-2,-2
1509429675956926,4,1,4,-8,0,-3,-1,-3
1509429675956926,4,4,-22,26,-1,-1,1,5
1509429675957924,-7,2,1,-19,-1,-1,-3,-4
1509429675957924,2,0,13,8,4,0,1,3
1509429675970935,0,-6,-5,4,0,1,2,10
1509429675970935,1,5,15,-18,-4,-1,-2,-7
1509429675971936,1,-7,-7,15,3,1,1,3
1509429675971936,-2,-3,-6,-3,-1,-2,-2,-4
1509429675993950,-2,-1,-9,-13,-5,-2,-1,1
1509429675993950,-1,-2,18,11,1,-1,-3,-1
1509429675993950,-4,-1,-2,17,1,1,0,-2
1509429675993950,0,6,5,6,-1,-2,1,1
1509429676016983,-1,3,-6,-1,-1,-1,0,-1
1509429676016983,-5,-7,-9,-12,-1,1,-1,-1
1509429676017968,-1,-6,-4,-17,-4,-3,-5,-5
1509429676017968,-1,4,2,4,10,5,0,-1
1509429676030977,-1,2,-10,-21,-6,-2,-1,-3
1509429676030977,-6,-9,2,-28,-11,-3,-3,-4
1509429676031978,-1,2,18,4,-4,-2,-1,1
1509429676031978,4,10,-3,17,0,-3,-4,-4
1509429676053009,-6,-5,-28,-22,9,7,3,2
1509429676053009,-3,-5,9,8,-4,-4,-3,-1
1509429676053993,-5,-9,18,9,1,-2,0,-2
1509429676053993,3,5,4,-5,-5,-3,-4,-5
1509429676077010,4,2,14,11,3,-1,1,-3
1509429676077010,-18,4,-16,4,1,-3,-1,-3
1509429676077010,8,-2,-10,-4,3,0,3,3
1509429676077010,-6,-20,6,11,-4,-1,0,8
1509429676091020,-1,1,-4,1,-1,1,-3,-12
1509429676091020,-1,-5,4,4,3,-1,0,-3
1509429676092019,-9,7,-6,9,-2,-1,1,-5
1509429676092019,5,-1,-11,-16,-10,-4,-1,0
1509429676113042,0,3,6,23,7,-1,0,2
1509429676113042,0,-5,-4,-13,-5,0,0,-1
1509429676114035,1,6,-6,0,3,1,-2,3
1509429676114035,-8,-4,4,-32,-8,-1,1,2
1509429676137052,3,-5,-15,-10,-6,-5,-3,-5
1509429676137052,8,7,2,2,1,0,2,1
1509429676137052,-1,2,-2,9,1,-3,-4,-4
1509429676137052,2,1,2,11,3,-1,0,5
1509429676151078,-9,-11,4,2,-3,-1,-1,-2
1509429676151078,-15,-12,-1,-5,-1,-1,-2,-4
1509429676152063,4,-8,1,3,0,1,1,-1
1509429676152063,-2,-9,-11,-6,-1,-2,-3,-5
1509429676173077,5,3,4,-2,-3,-2,0,1
1509429676173077,10,13,-3,0,1,2,-1,1
1509429676174078,-2,2,-3,-3,-3,-3,-2,2
1509429676174078,-3,-2,-1,6,-1,0,-2,-5
1509429676197098,-2,-2,0,-3,0,0,-1,1
1509429676197098,-2,-2,7,-1,-4,0,0,-1
1509429676197098,4,-2,-3,4,4,-2,-1,-2
1509429676197098,-1,5,-8,-6,2,0,0,-2
1509429676211105,2,0,2,5,-7,-2,-3,-2
1509429676211105,5,-6,0,-1,6,1,2,10
1509429676212106,-7,-6,-1,3,-3,1,0,-19
1509429676212106,-9,5,2,3,-1,-3,0,-3
1509429676233121,-10,-10,0,0,0,0,-1,-3
1509429676233121,6,-1,-3,-5,-3,-2,-3,-2
1509429676234121,3,-3,-1,1,-1,1,2,7
1509429676234121,-3,7,4,0,1,1,0,1
1509429676257138,-2,8,0,5,-4,-5,-2,-4
1509429676257138,13,-3,1,0,-2,-1,1,3
1509429676257138,-8,-14,-4,-2,-1,-2,0,10
1509429676257138,15,15,8,3,1,0,-3,-5
1509429676271147,-3,-9,-14,-9,-2,0,0,2
1509429676271147,-11,0,5,2,-2,-2,-3,-7
1509429676272148,-8,-11,-5,-5,-3,-2,-4,-1
1509429676272148,5,-2,0,3,0,0,1,0
1509429676293164,3,3,-7,-4,3,2,4,4
1509429676293164,7,8,4,4,0,-1,0,1
1509429676294163,4,13,-3,1,-6,-3,-2,-5
1509429676294163,-5,-12,5,2,7,0,-4,-2
1509429676317189,2,12,7,0,-2,-1,1,-1
1509429676317189,-10,-8,-15,1,-7,-4,-3,2
1509429676317189,-4,3,10,-13,4,0,-4,-18
1509429676317189,7,-15,-28,-5,-7,-2,-3,-4
1509429676331190,-13,8,16,2,3,1,1,1
1509429676331190,5,-5,-2,1,-2,-2,-4,-7
1509429676332191,1,8,-10,1,-4,0,0,6
1509429676332191,-16,-7,0,-18,-1,-2,-1,-3
1509429676353223,-2,4,-10,-1,0,-1,-3,-1
1509429676353223,-1,-12,-2,-7,-5,-2,-2,-3
1509429676354206,-7,13,-8,8,2,0,3,1
1509429676354206,7,-5,2,1,-2,-2,-4,-4
1509429676377221,-6,-6,1,-2,-3,-3,-3,-2
1509429676377221,-14,17,13,-1,3,0,4,7
1509429676377221,2,-19,-3,6,0,0,-5,0
1509429676377221,-9,18,-6,3,-4,-2,-4,-12
1509429676391232,10,-6,-1,-8,0,0,1,7
1509429676391232,-2,-5,-14,-6,-2,0,-2,-4
1509429676391232,-4,-6,8,-3,0,-1,0,4
1509429676391232,11,29,12,6,0,1,3,10
1509429676413248,-3,7,10,4,1,3,0,-1
1509429676413248,-7,-35,-11,-8,-3,-2,-5,-16
1509429676414253,11,9,-3,-6,-4,-2,-4,-4
1509429676414253,-11,15,24,10,1,1,3,-10
1509429676436265,-12,-36,-30,8,-3,-3,0,4
1509429676436265,-6,7,-12,0,9,4,0,4
1509429676437265,-2,-29,6,-38,-7,-2,-4,-7
1509429676437265,-9,16,9,-2,2,2,5,15
1509429676451275,31,18,25,2,-2,1,0,-8
1509429676451275,18,-7,-3,21,1,-2,-5,-11
1509429676452275,-16,10,-39,19,4,1,-3,4
1509429676452275,1,19,57,-5,-1,-1,1,5
1509429676473289,-37,-34,-42,-19,-9,-6,-11,-20
1509429676473289,14,21,-3,4,1,-1,2,-1
1509429676474299,-5,7,30,-1,-2,-2,-4,-9
1509429676474299,2,-31,-54,-7,-4,-1,0,6
1509429676496306,13,25,22,15,2,-1,1,6
1509429676496306,-11,-12,-29,-30,-5,-7,-2,-4
1509429676497307,4,22,-11,-5,-4,-4,-1,5
1509429676497307,7,-2,19,13,7,5,5,2
1509429676510317,-8,-25,-2,-6,0,0,-3,-1
1509429676510317,8,43,28,12,-1,1,1,4
1509429676518322,2,-45,-35,12,2,-1,2,8
1509429676518322,-8,-14,12,-18,-5,-3,-5,-15
1509429676533333,16,-12,-28,-5,-2,-4,4,21
1509429676533333,-7,21,21,2,-3,0,-1,-10
1509429676534334,-10,1,2,-6,-3,3,14,16
1509429676534334,-15,-31,-59,-8,-9,-7,-12,6
1509429676556350,-22,8,32,3,1,-2,-7,-35
1509429676556350,18,39,56,-16,-2,1,5,-2
1509429676557350,7,-41,5,6,2,6,7,26
1509429676557350,-21,21,-13,10,3,-4,-12,-8
1509429676570358,33,22,46,15,4,6,5,12
1509429676570358,-31,-50,-7,-11,1,-1,-9,-38
1509429676578363,-9,10,-70,-11,-5,-4,-7,-21
1509429676578363,-1,19,39,1,-1,2,3,17
1509429676593377,-7,-21,-19,-7,-6,-5,-4,-26
1509429676593377,21,4,21,0,-2,3,14,32
1509429676594377,6,49,73,15,-4,-7,-11,0
1509429676594377,-11,-58,-56,6,8,7,7,-1
1509429676616456,9,31,-72,-29,-8,-9,-17,-33
1509429676616456,0,-8,12,8,-4,-3,2,28
1509429676617392,14,-35,21,-11,-5,-4,3,-4
1509429676617392,-2,53,61,57,10,2,-4,0
1509429676639408,21,-57,-37,-55,-9,0,-4,-3
1509429676639408,-30,-30,-23,-2,6,4,10,25
1509429676640409,35,38,-12,16,2,-1,-9,-14
1509429676640409,-13,8,-9,-8,-6,-2,8,45
1509429676653462,1,4,10,31,6,2,4,13
1509429676653462,2,13,36,-8,-6,-8,-17,-17
1509429676654419,12,-5,-29,3,2,7,18,53
1509429676654419,6,-50,13,-10,-4,-10,-27,-76
1509429676676434,-36,9,-46,15,3,2,12,21
1509429676676434,-58,-28,-35,-3,-3,-4,-18,-43
1509429676677435,13,56,64,3,0,-3,-5,0
1509429676677435,-32,-63,-42,-22,-5,-5,1,16
1509429676690444,5,-2,69,10,3,2,4,5
1509429676690444,-2,26,47,18,5,12,13,71
1509429676698504,-39,-39,-11,-18,-9,-5,1,-75
1509429676698504,33,-58,-47,-21,14,5,4,13
1509429676713460,-12,-11,-37,3,3,0,-9,-20
1509429676713460,40,26,-40,-3,-2,2,8,-12
1509429676714462,23,-29,25,12,6,6,15,76
1509429676714462,27,50,43,-8,-9,-1,4,-5
1509429676736478,-17,18,53,-13,-1,-3,-11,-16
1509429676736478,1,12,-58,-17,-11,-7,-12,11
1509429676737480,45,24,17,-5,-1,-1,-6,-61
1509429676737480,-56,-35,-41,0,-2,1,-3,7
1509429676759493,-1,-40,-28,9,2,0,3,-15
1509429676759493,-15,10,73,40,9,0,7,12
1509429676759493,-51,-6,21,-33,-5,-3,-17,-22
1509429676759493,37,73,-13,0,-6,-3,26,68
1509429676773502,-13,42,97,15,2,2,5,-41
1509429676773502,-38,-90,-99,-30,-13,-13,-28,-79
1509429676774503,2,42,66,37,9,1,10,10
1509429676774503,20,-36,33,28,-14,-12,-4,-19
1509429676796522,-18,3,32,51,10,3,6,125
1509429676796522,-6,-58,-5,-71,-28,-7,-13,-41
1509429676797520,-32,-35,-128,-29,9,9,-13,-15
1509429676797520,-11,33,45,-16,-10,-6,-15,13
1509429676810529,53,61,38,113,11,-7,7,-66
1509429676810529,34,64,-15,81,28,5,15,79
1509429676818535,-65,-73,-7,-105,-72,-17,-16,-27
1509429676818535,-10,17,50,49,5,2,-3,-7
1509429676833545,36,30,25,-29,-17,-4,-6,29
1509429676833545,-14,-65,-23,28,15,7,6,-40
1509429676834546,71,9,-64,34,20,-12,-23,-11
1509429676834546,-29,-10,-17,-42,4,16,35,77
1509429676856561,-7,6,-6,-32,-7,4,22,51
1509429676856561,-8,-7,47,-4,-4,-4,-3,-25
1509429676857562,70,18,-54,15,5,-7,-15,-17
1509429676857562,-60,-12,12,5,2,-5,-22,-128
1509429676870573,-25,7,-89,0,6,5,10,-10
1509429676870573,-10,-44,-21,-23,7,8,16,18
1509429676878577,-67,-42,-51,19,-14,1,33,125
1509429676878577,114,-16,44,36,27,-1,-13,-1
1509429676893588,-121,23,-90,-128,-84,3,2,-66
1509429676893588,84,70,127,127,5,-15,-16,-45
1509429676894587,14,-41,-56,-26,11,16,5,50
1509429676894587,6,6,13,-35,-5,-1,3,-26
1509429676916604,110,51,35,64,48,5,-4,17
1509429676916604,-39,-60,4,-46,-24,-10,-17,-6
1509429676917605,-84,-21,52,69,11,-4,7,-65
1509429676917605,42,62,50,28,17,11,8,55
1509429676939620,78,-17,4,-69,-16,-17,-31,4
1509429676939620,-18,84,-34,35,18,6,1,-34
1509429676939620,10,-22,23,6,7,-2,4,-49
1509429676939620,-96,-31,-62,-35,-20,-10,-39,-21
1509429676953630,3,-33,42,22,0,-4,8,73
1509429676953630,10,1,3,-8,2,7,-16,-23
1509429676954631,-61,13,127,12,9,4,20,9
1509429676954631,21,53,-61,21,-12,-12,-10,56
1509429676976647,20,-15,9,-35,23,16,8,-21
1509429676976647,-26,-12,-55,-24,-7,-12,7,84
1509429676977647,72,38,6,5,7,9,11,37
1509429676977647,-1,9,-29,24,-23,-8,2,-77
1509429676999678,-53,72,99,90,21,-2,-32,-102
1509429676999678,0,-18,-12,-93,-45,-4,-8,-45
1509429676999678,0,13,-21,55,15,-13,-26,-9
1509429676999678,-18,-57,-61,-86,-26,7,23,106
1509429677013673,37,-23,-16,22,12,3,5,28
1509429677013673,62,40,-22,-2,12,10,0,12
1509429677014674,-46,11,-9,-34,-19,-10,-3,-49
1509429677014674,-32,28,-32,58,18,-5,-6,0
1509429677036692,28,-64,-24,-23,-11,-8,-13,53
1509429677036692,48,65,25,8,5,-3,0,-62
1509429677037690,-84,-5,60,16,-4,1,-38,26
1509429677037690,118,34,-24,-9,7,11,64,-37
1509429677059704,-105,6,18,1,-11,-9,-10,-16
1509429677059704,-9,-22,-48,14,-1,-3,23,104
1509429677059704,45,-41,-36,-76,-26,-2,-16,-90
1509429677059704,-4,-5,84,10,6,8,-15,3
1509429677073714,15,-3,-61,8,-13,-17,-18,-38
1509429677073714,22,-38,-17,44,21,7,12,6
1509429677074715,-20,111,81,-88,-37,-4,3,25
1509429677074715,4,-27,-49,-6,18,10,6,22
1509429677096733,8,-28,-24,12,13,3,17,34
1509429677096733,10,113,27,41,4,-5,-5,29
1509429677097732,71,-54,22,22,6,5,19,111
1509429677097732,-69,30,36,-2,-6,-13,-51,-117
1509429677118753,27,21,-2,-20,-12,4,3,4
1509429677118753,36,32,-23,-15,1,8,18,48
1509429677119748,-33,29,62,11,9,6,14,-47
1509429677119748,81,-39,4,14,-6,-7,-20,4
1509429677133758,-37,-7,-12,-35,-7,-6,2,-44
1509429677133758,-6,-102,-46,-43,-10,-2,21,-29
1509429677133758,48,23,-23,37,8,1,35,49
1509429677133758,47,-21,-16,25,2,-6,-28,-43
1509429677156774,-37,38,-2,1,2,7,-5,-87
1509429677156774,-32,-55,-13,14,-3,-13,-32,13
1509429677157773,35,13,3,0,0,-3,10,46
1509429677157773,50,26,-1,-107,-34,-13,-15,111
1509429677179790,-19,-51,29,-46,13,18,5,22
1509429677179790,-33,31,79,45,12,-11,-21,-101
1509429677180800,8,-50,-68,7,-10,-14,-30,-72
1509429677180800,-45,20,-28,31,5,5,17,18
1509429677193805,48,39,11,29,7,12,45,54
1509429677193805,-65,-66,-50,-61,-36,-21,-16,-28
1509429677193805,4,3,28,46,24,9,-15,-19
1509429677193805,-51,-16,55,-25,-11,-4,7,-55
1509429677216819,65,-40,-76,-37,-19,-22,-38,44
1509429677216819,32,56,57,35,14,12,15,32
1509429677217818,80,15,-30,-3,-7,-3,4,37
1509429677217818,-42,-17,-27,37,5,0,5,-3
1509429677238832,-28,19,-86,25,9,12,37,63
1509429677238832,-73,-58,38,-35,-16,-4,-15,-7
1509429677239833,20,48,20,-10,-2,-6,-6,-1
1509429677239833,-16,18,56,2,5,2,-6,3
1509429677252842,-1,-27,42,23,4,-5,-13,-6
1509429677252842,61,17,11,8,8,4,-3,25
1509429677261848,-41,18,-42,45,4,-2,5,39
1509429677261848,29,-109,-42,-25,-10,-8,7,-63
1509429677276859,0,8,41,28,14,-4,0,5
1509429677276859,18,-17,-31,-104,-28,7,-5,28
1509429677277860,-84,-9,-48,-24,-6,-5,-28,-114
1509429677277860,50,44,2,73,22,1,-3,-22
1509429677298890,-1,-30,-26,4,-8,-16,-10,2
1509429677298890,48,10,26,-11,2,16,29,68
1509429677300875,40,100,42,33,16,7,-18,69
1509429677300875,-33,-24,-10,-50,-29,-19,4,33
1509429677312885,-39,72,84,10,-7,-10,3,-101
1509429677312885,-31,-5,-28,31,5,1,4,34
1509429677321890,2,-67,-34,-1,15,9,7,-1
1509429677321890,-6,61,17,38,20,15,26,5
1509429677336903,-15,-108,-53,-11,-11,-13,-30,-70
1509429677336903,-20,32,30,12,1,1,1,3
1509429677338904,-22,36,38,-8,3,-3,6,-17
1509429677338904,-14,-31,-61,-42,-29,-6,-19,-42
1509429677358917,-21,-40,-115,45,31,12,22,123
1509429677358917,-2,45,16,-56,-13,11,-4,-97
1509429677360919,-14,-82,-32,-23,-11,-4,3,-1
1509429677360919,19,55,-20,71,35,7,6,40
1509429677372927,-5,-5,30,-110,-61,3,-4,-60
1509429677372927,-16,-61,-35,46,-1,-16,-4,-3
1509429677381934,4,22,51,1,-9,1,16,60
1509429677381934,24,8,88,24,6,-2,-11,-47
1509429677396944,-4,-3,-26,68,27,6,-2,32
1509429677396944,69,60,6,12,12,2,-10,53
1509429677397943,-39,-4,-28,-30,-9,2,28,-46
1509429677397943,5,-57,11,-15,-6,-7,4,-8
1509429677418959,28,56,35,-3,2,5,27,7
1509429677418959,68,28,62,8,0,-9,-21,21
1509429677420961,-92,-69,-78,3,-4,-7,-4,-5
1509429677420961,36,119,58,57,14,3,5,27
1509429677432969,3,-20,-61,-115,-32,-3,-11,59
1509429677432969,-56,-78,50,78,5,-7,16,-21
1509429677441976,51,22,12,-42,18,6,-24,-2
1509429677441976,-37,-99,-25,-10,-12,-6,-7,14
1509429677456987,14,35,20,34,13,-4,-9,26
1509429677456987,-35,-1,-62,-4,-2,6,2,-23
1509429677457987,49,36,92,27,5,6,1,3
1509429677457987,-28,-15,-45,-25,-5,3,-1,-2
1509429677479002,41,67,59,27,1,-4,-4,-2
1509429677479002,-10,-36,7,-85,-18,-6,-4,29
1509429677481003,-14,-34,7,90,30,-3,13,-6
1509429677481003,30,38,-56,-61,-1,11,5,65
1509429677493012,-44,-12,11,9,-6,-3,-7,0
1509429677493012,3,33,-23,49,14,0,5,4
1509429677502018,21,65,0,-21,-12,2,9,23
1509429677502018,-41,-44,-44,-26,-13,-14,-2,-74
1509429677517032,-39,-40,-41,27,11,4,-15,6
1509429677517032,-52,-9,-8,-29,1,1,3,-43
1509429677518030,4,11,-86,20,-1,-2,-5,-17
1509429677518030,14,-9,49,39,9,0,-13,85
1509429677539044,-56,73,21,-39,-3,7,44,-105
1509429677539044,-12,-38,58,4,-8,-14,-13,24
1509429677541046,22,-22,-15,-1,-3,-3,-3,12
1509429677541046,7,19,49,44,5,4,14,-39
1509429677553058,36,-44,-67,-89,-17,1,-6,49
1509429677553058,13,57,4,-42,-28,-6,6,34
1509429677562061,-9,-19,65,29,4,1,2,25
1509429677562061,-28,-33,-97,-12,-8,-3,-4,-6
1509429677577070,55,-5,53,94,27,8,7,-30
1509429677577070,-24,16,-5,-4,19,9,8,4
1509429677578072,13,-19,-27,-54,-29,-16,-14,-8
1509429677578072,9,1,-48,-10,4,0,-9,-10
1509429677599115,-36,69,70,10,-10,-9,1,38
1509429677599115,60,-24,-79,0,4,-1,-8,32
1509429677601114,1,9,18,13,3,8,11,-35
1509429677601114,-4,13,53,-7,0,-1,-11,9
1509429677613097,45,-27,46,-15,-4,0,9,-30
1509429677613097,-37,21,10,18,0,-2,6,47
1509429677622103,9,-25,35,4,2,-4,-2,8
1509429677622103,12,28,19,3,0,3,4,-31
1509429677636115,-3,-36,-24,38,16,-8,-10,59
1509429677636115,-27,32,15,-41,-11,5,3,-45
1509429677638115,19,63,20,2,-13,-4,-1,16
1509429677638115,-23,-87,27,-12,11,9,1,-2
1509429677659129,-19,-19,-19,-3,-21,-9,-16,-27
1509429677659129,22,6,31,90,40,12,4,-31
1509429677661130,-15,-17,17,-23,-3,-7,-9,5
1509429677661130,23,84,-40,36,1,0,1,7
1509429677673139,-14,9,-46,-9,1,-3,-6,-9
1509429677673139,18,2,-8,-21,-14,2,-6,-33
1509429677682145,23,52,22,4,8,3,-18,12
1509429677682145,-5,-64,-46,-27,-10,-13,0,20
1509429677696156,42,45,8,27,16,11,-11,55
1509429677696156,-61,-15,27,-35,-15,-7,5,-36
1509429677698169,0,53,7,27,8,6,15,20
1509429677698169,-42,-10,20,-34,-12,-3,8,-24
1509429677719174,-7,-42,-6,-14,-8,-6,-18,-34
1509429677719174,45,-4,24,24,4,-3,7,20
1509429677721174,-1,-2,30,8,-3,-7,-14,-23
1509429677721174,0,38,20,38,13,-1,-5,13
1509429677733181,6,-14,-49,-32,-7,11,6,-6
1509429677733181,-3,-33,19,-14,-15,-9,0,24
1509429677742188,-17,-28,-66,0,-2,2,8,-5
1509429677742188,30,30,64,-9,-4,-2,-9,-16
1509429677757198,-15,32,68,15,-2,-8,4,-4
1509429677757198,-27,-60,-77,24,21,9,-7,-38
1509429677758199,-16,-30,22,-10,-3,-1,-1,-7
1509429677758199,22,25,-15,4,-2,1,8,72
1509429677779225,-14,-33,-63,2,-3,-10,-19,-99
1509429677779225,22,65,43,-14,-9,-6,-4,-7
1509429677781227,-19,-44,-25,1,-2,-3,-13,-31
1509429677781227,-15,-7,24,11,-2,2,2,6
1509429677793225,-44,13,22,-31,-2,0,-5,17
1509429677793225,27,36,-52,8,-2,-3,-2,-16
1509429677802233,-38,44,-20,-4,-2,-8,-8,-4
1509429677802233,8,8,85,16,3,-1,8,-16
1509429677816239,-4,15,-31,-35,-8,-3,-8,13
1509429677816239,-28,-63,-38,15,9,-1,6,0
1509429677823244,9,-24,8,19,1,1,-3,-7
1509429677823244,6,23,-25,-84,-23,1,1,-25
1509429677839257,9,-45,28,27,4,-6,-3,31
1509429677839257,0,-9,-50,-29,-13,-5,-2,-33
1509429677840258,-10,-23,5,21,-5,-11,-26,13
1509429677840258,11,-20,-47,-3,13,4,9,28
1509429677861273,-19,12,32,-23,-14,-4,-2,-59
1509429677861273,-10,22,-23,26,15,9,13,46
1509429677863274,39,-6,40,-18,3,3,4,8
1509429677863274,-52,21,13,16,-3,-4,-13,-21
1509429677876294,20,1,-45,4,2,8,23,64
1509429677876294,19,-28,-17,24,3,-5,-17,-22
1509429677878284,-34,12,1,-36,-5,6,12,-26
1509429677878284,-17,-34,-2,1,2,-1,-7,8
1509429677899300,43,49,58,72,24,7,11,15
1509429677899300,0,13,61,-24,-11,-4,-9,35
1509429677907304,-22,-41,2,-18,-3,-4,6,-39
1509429677907304,-16,-71,-124,-19,-9,-10,-9,-32
1509429677921315,-24,-23,-57,3,-1,-1,-7,25
1509429677921315,0,40,55,15,0,-6,-3,12
1509429677923324,-4,-57,5,-19,-6,-7,-7,-32
1509429677923324,33,53,43,-13,-2,7,10,33
1509429677936341,-44,-105,-57,0,-6,-8,-7,-47
1509429677936341,12,48,51,37,12,4,-3,-7
1509429677938336,29,19,-24,-7,-2,5,14,43
1509429677938336,-10,11,0,-1,-8,-4,-8,-29
1509429677959342,41,-5,10,-15,-5,-4,-1,9
1509429677959342,7,38,-31,-7,-4,-1,-14,-2
1509429677960343,9,4,14,8,11,3,5,18
1509429677960343,-50,-36,-86,-34,-6,3,5,-30
1509429677981358,19,61,91,16,9,1,2,10
1509429677981358,-41,-64,-7,-8,-9,-2,3,-5
1509429677983359,13,12,-52,-4,0,-9,-6,17
1509429677983359,28,63,51,7,6,10,5,45
1509429677996368,17,-48,-72,-46,-17,-2,0,-25
1509429677996368,-33,-18,-9,12,4,-1,-8,-37
1509429678003372,-11,17,76,28,-2,-4,-4,4
1509429678003372,20,-18,20,9,-1,-4,-6,-9
1509429678019385,-10,50,-31,-1,2,3,3,9
1509429678019385,23,2,-20,-14,-3,-3,6,40
1509429678020385,-16,-32,5,-3,-8,-3,-4,-4
1509429678020385,11,16,5,19,-2,-3,0,-3
1509429678041400,-12,-26,47,46,31,8,2,-12
1509429678041400,1,-35,-10,-94,-38,-6,-2,6
1509429678043402,13,50,7,17,8,6,0,-19
1509429678043402,-39,-86,-53,-7,-6,-1,7,23
1509429678056411,-34,-35,-59,-27,-17,-12,-14,-40
1509429678056411,-8,10,70,38,10,0,6,11
1509429678062415,9,38,10,-20,-5,-3,-10,15
1509429678062415,28,-38,42,-10,-4,-4,-7,-26
1509429678086434,-23,3,1,17,6,6,3,22
1509429678086434,-1,-17,38,5,4,1,0,-12
1509429678088433,26,10,-30,4,-7,1,8,43
1509429678088433,0,67,16,22,7,4,0,-36
1509429678101458,12,-13,-9,-71,-24,-10,-13,15
1509429678101458,-20,7,2,24,14,4,2,-8
1509429678103444,-68,-71,-24,13,5,-1,1,-15
1509429678103444,-22,10,-5,-9,-12,-10,-13,-33
1509429678116452,10,44,56,6,-9,0,4,5
1509429678116452,-5,5,-24,30,16,6,4,7
1509429678122457,23,-26,-1,-36,0,-3,-4,-14
1509429678122457,-45,-14,21,-7,-1,5,-1,-12
1509429678139470,21,25,-45,-3,1,-1,0,6
1509429678139470,-8,-19,39,7,-8,-7,-9,-37
1509429678140470,-14,19,-40,8,3,-1,-1,0
1509429678140470,27,0,2,-11,4,-3,-2,27
1509429678161485,33,-16,29,-6,-9,0,1,9
1509429678161485,3,20,23,16,8,1,-8,-34
1509429678163487,-6,-28,-81,2,7,1,6,-23
1509429678163487,-1,39,-17,13,-2,0,0,-3
1509429678175495,-2,-18,57,12,0,3,2,6
1509429678175495,-3,-45,-44,-29,-13,-10,1,35
1509429678182499,-6,-17,11,8,-5,0,-2,-36
1509429678182499,-1,1,-49,7,10,-1,-3,-1
1509429678199515,3,18,58,9,8,7,6,6
1509429678199515,32,29,12,28,9,2,5,38
1509429678200512,24,33,12,-40,-13,2,1,15
1509429678200512,-19,-49,-36,25,6,3,6,15
1509429678221528,-12,5,-53,-10,-3,-12,-8,-2
1509429678221528,-18,-45,-36,-31,0,5,-3,-56
1509429678223529,34,14,72,39,7,2,1,22
1509429678223529,16,-3,-48,-8,8,4,0,-1
1509429678236537,22,-4,14,5,2,0,-7,-8
1509429678236537,17,12,0,16,-4,-2,11,60
1509429678242543,-48,-14,-13,-8,4,4,-4,-49
1509429678242543,21,-15,20,-4,-5,-6,-6,-5
1509429678259555,-15,34,104,6,-6,-2,2,32
1509429678259555,9,30,-15,15,9,5,9,6
1509429678260555,23,0,39,-27,-11,0,-3,29
1509429678260555,-5,8,5,10,1,-1,2,6
1509429678281570,-25,25,-31,-13,0,4,6,-9
1509429678281570,-31,23,-17,-19,-12,-10,-16,-18
1509429678283572,31,26,9,17,0,-1,5,11
1509429678283572,-20,-43,-12,1,-3,-1,-10,-27
1509429678295583,-1,0,-17,-4,1,1,-7,-32
1509429678295583,-10,-7,-25,-14,-7,0,5,19
1509429678302600,19,9,-10,35,1,-8,-8,-7
1509429678302600,-1,25,34,-15,-1,11,7,18
1509429678319596,11,-16,-9,-18,0,0,4,52
1509429678319596,-34,14,-22,1,0,-3,-7,-30
1509429678320601,8,-43,-1,-7,-13,-10,-7,8
1509429678320601,11,0,-16,5,-1,-5,-1,-4
1509429678341612,3,-25,-24,3,-4,-1,6,16
1509429678341612,10,-18,36,-7,1,2,-3,-33
1509429678343630,-17,13,-38,19,10,3,1,9
1509429678343630,1,8,-16,-11,-7,-4,4,25
1509429678355621,-10,-39,4,-8,-7,-7,-9,-36
1509429678355621,-9,33,-41,1,-8,-4,0,6
1509429678364628,-26,-25,66,-12,1,-1,1,26
1509429678364628,12,36,30,-11,-1,-2,-3,-9
1509429678378641,7,24,1,22,7,1,5,-10
1509429678378641,3,28,14,0,-2,0,1,14
1509429678380643,-13,-6,4,-24,-9,0,3,47
1509429678380643,29,11,11,5,5,0,2,-20
1509429678401655,4,16,-20,13,-4,-3,-3,1
1509429678401655,0,4,42,-1,3,2,-1,-3
1509429678403657,-21,-52,-54,10,-2,-5,-3,-11
1509429678403657,5,-9,30,-3,4,5,1,38
1509429678423671,-32,-5,33,-15,-4,-5,-8,-48
1509429678423671,21,-21,-39,-4,-7,-3,4,22
1509429678425671,-13,44,42,17,12,6,8,-19
1509429678425671,1,14,-5,8,3,3,2,13
1509429678439681,20,-13,-17,-13,-11,-4,-2,10
1509429678439681,22,2,2,-8,-3,-1,-6,7
1509429678440681,-13,-1,-30,-5,0,2,5,-14
1509429678440681,10,52,-15,4,-6,-5,-3,11
1509429678461697,-10,-12,31,-8,-5,-4,-3,-10
1509429678461697,1,-68,-90,-4,-8,-9,-4,-15
1509429678463699,17,40,11,28,9,4,0,4
1509429678463699,-1,-1,2,-71,-22,-5,-1,-17
1509429678475708,-8,26,12,38,8,0,-1,-27
1509429678475708,-7,-63,3,-27,0,2,-2,10
1509429678484714,21,44,33,4,0,-6,6,23
1509429678484714,-14,-35,-47,12,0,-1,-3,-17
1509429678498724,-2,-10,9,-5,-3,4,7,8
1509429678498724,3,19,26,11,0,-3,6,11
1509429678500725,-48,-23,10,-5,1,-1,-11,2
1509429678500725,12,13,32,-3,-4,-3,6,16
1509429678521740,2,-22,-13,3,-2,-6,-12,-50
1509429678521740,-36,-17,14,-11,1,-2,-3,6
1509429678522741,4,-49,-86,-24,-4,-1,3,22
1509429678522741,-21,-11,46,14,-2,-4,-3,-38
1509429678535750,5,23,-30,0,1,1,-1,14
1509429678535750,-17,-27,68,12,0,0,2,-4
1509429678544756,-31,17,1,-15,-8,-7,-12,-29
1509429678544756,-14,-12,40,10,4,1,-2,33
1509429678558766,9,38,-68,13,6,2,4,8
1509429678558766,16,34,6,0,0,2,2,9
1509429678560767,6,-37,-60,-24,-7,1,-1,-17
1509429678560767,50,27,66,19,7,1,10,68
1509429678581783,-29,18,36,10,1,2,-7,-33
1509429678581783,18,21,-6,-21,-10,-7,-4,-6
1509429678582784,-2,-8,-7,10,-3,-3,1,3
1509429678582784,10,-35,-44,-2,6,4,4,-15
1509429678595792,-4,-3,18,-10,-7,-6,-1,18
1509429678595792,35,33,6,1,3,0,2,5
1509429678604798,-11,-10,-16,-2,-2,6,3,-2
1509429678604798,-20,4,19,-1,0,-6,-8,-28
1509429678618809,-21,-32,-10,13,3,3,6,8
1509429678618809,-13,-33,-14,-10,-15,-11,-10,-14
1509429678620810,28,23,-15,-31,-1,0,-2,21
1509429678620810,-31,-40,-86,5,4,2,-6,-46
1509429678641825,32,43,92,9,-1,-3,0,-5
1509429678641825,-2,-19,-27,-6,-3,-7,-3,5
1509429678642826,-24,-21,0,-7,-11,-4,-1,9
1509429678642826,-13,11,-9,-8,-4,-5,-13,-36
1509429678654833,9,-10,-60,-8,1,2,4,19
1509429678654833,10,4,28,9,1,2,2,13
1509429678663840,33,44,23,16,4,-2,-2,-26
1509429678663840,-19,-81,0,-1,-3,0,1,13
1509429678678866,-14,7,1,-10,6,2,0,-1
1509429678678866,9,14,42,32,6,4,9,33
1509429678680852,3,-27,-28,-14,2,1,-8,-53
1509429678680852,27,48,-40,-7,-4,-3,0,10
1509429678701882,-17,-42,14,-17,-17,-4,-7,4
1509429678701882,-21,41,-67,1,13,5,1,-3
1509429678702869,4,-59,28,9,-2,-2,1,-2
1509429678702869,-6,11,-18,-7,0,-1,4,65
1509429678715876,-25,-17,2,5,0,1,3,-77
1509429678715876,-12,-7,-67,-20,-11,-8,-22,-10
1509429678723882,2,2,27,-5,4,2,2,8
1509429678723882,-18,51,18,19,-2,1,-2,-33
1509429678738894,12,-56,-53,-32,-4,-3,5,72
1509429678738894,-15,25,29,10,-3,2,0,-32
1509429678740895,14,3,6,-3,1,-3,0,33
1509429678740895,7,8,-14,-8,-9,-5,-5,-9
1509429678761910,26,19,5,1,3,-2,-3,15
1509429678761910,2,29,24,4,-1,-3,7,-24
1509429678762911,-10,-3,-28,-8,-5,-5,-5,23
1509429678762911,12,28,2,4,4,2,3,-2
1509429678783925,-1,-17,-3,5,2,-2,-4,-8
1509429678783925,-3,18,33,-11,9,6,6,-10
1509429678785929,-13,-6,30,20,-7,-4,-1,-1
1509429678785929,-3,-57,16,-14,-3,-2,-6,-22
1509429678798951,-21,17,2,-7,-11,-6,-2,-7
1509429678798951,14,-30,-42,-17,-8,-4,-12,-28
1509429678800937,8,45,42,17,10,4,1,-12
1509429678800937,-29,-6,6,-2,-10,-2,-4,-2
1509429678820951,29,38,4,-3,11,7,2,25
1509429678820951,6,-30,17,4,-1,-2,-7,-11
1509429678828956,-42,26,22,9,1,4,14,8
1509429678828956,61,-1,6,-3,-7,-10,-11,-12
1509429678843971,-6,-18,-17,-21,-4,-1,1,13
1509429678843971,15,-16,18,3,-5,-3,1,14
1509429678845969,1,16,-13,-1,-2,-6,-12,-60
1509429678845969,-2,38,12,15,10,6,13,38
1509429678858979,-23,-2,-8,10,8,2,3,29
1509429678858979,0,43,49,15,2,2,0,-34
1509429678860980,24,-6,-3,-7,-8,-7,-11,-14
1509429678860980,-64,4,-3,-5,0,3,6,7
1509429678881994,19,16,4,-2,1,3,-1,-3
1509429678881994,-8,-9,23,29,9,3,1,13
1509429678882998,14,27,-5,-22,-7,-3,-1,6
1509429678882998,5,-21,-63,-12,-6,-4,-6,-16
1509429678904024,-19,-13,3,7,8,-1,3,-28
1509429678904024,-21,14,35,5,-5,-1,2,35
1509429678906012,37,-24,-123,-10,0,0,-3,7
1509429678906012,-18,-39,60,-9,-8,-5,-6,11
1509429678919020,-6,-15,-1,6,-3,0,-6,-46
1509429678919020,-2,-19,-33,-4,2,-1,2,13
1509429678925028,16,51,50,2,-2,0,-4,-3
1509429678925028,4,-13,-43,2,5,1,-1,19
1509429678942038,-7,-2,18,35,-2,-3,2,-1
1509429678942038,9,4,23,-56,-4,1,5,6
1509429678943038,-18,-23,47,0,-4,-1,-2,-5
1509429678943038,19,1,-42,4,3,2,4,-9
1509429678964052,8,-4,14,5,-6,-3,-3,12
1509429678964052,-52,-25,-19,10,-1,-2,7,37
1509429678968055,52,4,-38,-10,-2,-1,-6,-48
1509429678968055,16,-10,1,9,3,-1,1,-7
1509429678978063,1,-25,-66,-22,-5,-3,-7,1
1509429678978063,15,21,-3,9,3,0,-2,-4
1509429678985067,-8,-14,-44,-14,-9,-2,-2,-9
1509429678985067,-16,-1,22,-7,4,3,3,-16
1509429679009085,27,21,-13,5,-5,-3,-1,4
1509429679009085,-16,-13,-9,-10,10,-1,-5,-13
1509429679011086,-6,-2,-17,16,4,1,7,27
1509429679011086,-6,12,-12,-8,-2,2,-4,27
1509429679024095,-14,-33,21,-39,-14,-4,-2,-16
1509429679024095,6,10,12,17,-5,-7,-7,-8
1509429679026097,13,-9,19,-11,0,-2,2,0
1509429679026097,-5,9,-28,4,-2,1,6,48
1509429679038106,-36,-26,-13,4,4,1,-3,-13
1509429679038106,44,9,-38,-23,-18,-9,-7,-12
1509429679045111,-19,-15,0,13,13,5,4,14
1509429679045111,10,3,5,12,0,-3,-6,-8
1509429679062121,9,6,37,-13,-4,-8,-9,-13
1509429679062121,-2,-16,-34,15,4,1,-1,-2
1509429679063125,7,4,-3,-4,-2,-3,1,9
1509429679063125,-10,25,115,-2,-3,-1,-1,-27
1509429679084138,1,1,-76,7,-3,-2,0,-1
1509429679084138,11,-4,29,-22,-5,-2,1,6
1509429679086138,-22,4,4,14,2,1,-7,-17
1509429679086138,-6,23,-21,-6,-1,-2,-5,-49
1509429679098148,16,-21,36,-2,1,5,8,9
1509429679098148,-1,26,7,8,-3,-6,-2,-11
1509429679105154,-22,25,24,-19,-11,-7,-4,15
1509429679105154,35,-38,-35,1,-1,-1,-9,-18
1509429679122165,-24,-46,46,-11,-1,0,1,15
1509429679122165,6,-10,-50,15,10,1,1,2
1509429679124166,-23,-9,15,27,-1,3,5,8
1509429679124166,-4,3,14,0,12,-2,1,0
1509429679144179,-10,22,7,-24,-10,-4,-5,-23
1509429679144179,-14,-26,15,20,-6,-4,-8,-10
1509429679146180,2,25,31,10,11,6,4,0
1509429679146180,5,-18,-65,-48,-23,-11,-8,0
1509429679158191,-19,7,-71,19,5,3,1,11
1509429679158191,-3,8,71,4,9,6,1,-11
1509429679165195,3,-53,-61,0,-5,-6,-8,-23
1509429679165195,-18,42,27,14,-2,0,1,19
1509429679181207,25,9,30,4,3,0,4,33
1509429679181207,-6,5,-19,-11,-16,-11,-18,-52
1509429679183208,2,20,-36,-13,0,3,5,9
1509429679183208,-11,-43,-19,-12,1,0,2,-18
1509429679204223,3,17,-3,-4,-1,-6,-20,-38
1509429679204223,-1,-16,4,9,6,2,7,18
1509429679205224,-25,-47,45,3,-7,-3,-3,5
1509429679205224,8,19,3,7,5,3,0,-28
1509429679218247,-4,4,-37,8,4,1,8,14
1509429679218247,-12,-5,-7,-19,-10,-1,1,13
1509429679225237,-14,14,8,-11,1,0,-1,-10
1509429679225237,-5,4,8,1,-4,-1,-1,14
1509429679241249,-7,0,19,17,1,-4,-2,11
1509429679241249,3,1,30,-1,5,2,3,10
1509429679243250,-11,-34,-28,-1,-14,-6,1,22
1509429679243250,-4,13,11,18,8,5,-4,-9
1509429679264266,26,45,45,-3,11,4,6,-1
1509429679264266,8,-10,-94,-26,-10,0,4,19
1509429679265266,-16,20,85,11,2,-4,-8,-7
1509429679265266,-12,-5,-49,7,-7,-2,6,8
1509429679277275,7,-25,-15,-13,-9,-4,-4,-1
1509429679277275,1,-8,14,10,3,0,-3,-5
1509429679287284,5,17,3,-12,-4,-3,1,11
1509429679287284,10,16,0,5,2,3,0,4
1509429679301307,4,-32,21,-3,-5,-2,-1,-4
1509429679301307,-6,-32,-63,-12,-3,0,2,14
1509429679303298,-21,-10,-50,-7,-1,-1,-2,-10
1509429679303298,43,-43,29,2,5,3,1,-9
1509429679324308,0,34,-2,20,2,2,3,0
1509429679324308,-8,11,28,-8,-1,-3,1,8
1509429679325309,0,-53,-73,-13,0,-2,-3,-1
1509429679325309,-17,26,4,-7,-4,-1,-1,6
1509429679337322,6,16,20,11,2,6,5,16
1509429679337322,7,-25,-20,8,-1,-1,-2,-13
1509429679346323,14,42,39,-9,2,-4,-2,-1
1509429679346323,-10,-9,9,5,2,3,3,-4
1509429679361334,-3,22,24,-2,-5,-4,-1,8
1509429679361334,14,21,-51,-6,-8,-3,0,2
1509429679363335,5,-29,12,9,9,3,2,1
1509429679363335,-8,6,15,-6,-4,-2,1,7
1509429679384351,7,-12,-47,0,-6,-5,-5,-5
1509429679384351,-18,19,16,-20,-1,0,-1,-6
1509429679385351,12,2,22,-1,-3,-3,-1,-2
1509429679385351,5,0,12,9,6,1,-1,-1
1509429679397360,-4,9,-15,-4,-3,-3,-2,-5
1509429679397360,-9,16,25,7,2,-1,-4,-4
1509429679406366,48,3,-7,-8,-5,-1,-3,0
1509429679406366,-19,-3,14,-4,-3,0,0,-1
1509429679421375,-3,-5,7,7,5,2,1,-1
1509429679421375,22,26,24,-1,-3,0,2,5
1509429679423378,-10,-56,-65,0,-1,-1,0,7
1509429679423378,-7,15,12,-11,-11,-9,-7,-31
1509429679444393,-6,4,-3,6,1,0,3,7
1509429679444393,-2,6,-1,-20,-2,-2,-2,11
1509429679445394,5,44,22,12,5,2,1,-14
1509429679445394,-14,-60,-42,-21,-7,-4,-7,6
1509429679457401,-25,-40,-7,-14,-7,-8,-10,-38
1509429679457401,20,0,18,10,4,3,7,23
1509429679472413,1,40,22,8,2,-1,-6,-14
1509429679472413,-1,-3,6,-5,-1,-3,-1,2
1509429679481419,-19,14,34,-3,-3,-2,-3,5
1509429679481419,-3,-64,-63,-3,-3,-1,-2,4
1509429679483421,0,19,18,4,-1,-3,-2,-2
1509429679483421,10,34,17,8,4,3,7,16
1509429679504436,-15,-49,-17,-21,-6,0,3,33
1509429679504436,-7,4,-28,2,-2,-5,-9,-37
1509429679505435,-9,-7,-8,17,-6,-1,-1,0
1509429679505435,-1,-1,-23,1,7,2,-2,-8
1509429679517444,-2,1,-44,-14,-2,-2,-2,-4
1509429679517444,0,7,23,9,1,2,1,3
1509429679526449,-19,-32,-31,-1,-3,0,-2,-8
1509429679526449,17,20,17,7,-3,-4,0,12
1509429679541461,3,32,6,2,-1,-1,0,-5
1509429679541461,-18,-35,-1,-9,-3,-3,-1,-6
1509429679543463,0,1,-11,-4,-3,-2,-5,14
1509429679543463,-4,29,8,11,3,1,1,-4
1509429679564478,16,4,12,-8,-2,-1,0,2
1509429679564478,-12,25,47,11,-2,-3,-7,-25
1509429679565479,-22,-15,-26,-14,-3,-1,6,21
1509429679565479,40,-7,-31,-9,-1,0,-1,-1
1509429679577487,-4,-2,24,9,3,-1,-4,-7
1509429679577487,1,5,-1,4,0,-2,0,8
1509429679586493,6,2,17,-4,1,2,0,-7
1509429679586493,5,14,23,15,2,1,4,4
1509429679601519,-25,-47,-14,-11,-8,-2,-1,12
1509429679601519,-5,6,-9,11,6,1,1,6
1509429679603507,12,42,-7,-5,2,1,4,8
1509429679603507,-17,-38,-21,-11,-3,-2,-2,-8
1509429679624521,15,13,13,3,-1,0,0,1
1509429679624521,-5,-8,11,11,5,2,1,7
1509429679625521,2,-4,8,0,1,1,-2,-5
1509429679625521,-2,23,1,-23,-5,0,0,12
1509429679637533,3,2,-19,1,-1,-1,-1,1
1509429679637533,-1,-4,0,-4,0,-1,-2,-5
1509429679646535,-2,-3,7,4,1,-1,-1,-12
1509429679646535,-17,-17,4,-2,-5,-4,-3,-8
1509429679661547,7,17,-22,-7,-4,-4,-6,-8
1509429679661547,-4,-6,31,-4,-4,-3,-2,-6
1509429679663548,6,3,2,5,3,1,2,4
1509429679663548,-18,-12,-3,-4,-3,-3,-1,-10
1509429679684562,2,3,2,2,-1,-2,-3,10
1509429679684562,16,24,8,3,0,3,0,-8
1509429679685564,-20,-23,2,-9,-2,-3,-2,-12
1509429679685564,-13,-13,-14,0,-4,0,-4,-2
1509429679697575,8,4,10,5,3,2,3,-6
1509429679697575,-1,4,2,-1,-2,-2,-2,-2
1509429679706584,5,23,8,2,0,1,1,5
1509429679706584,-18,-86,2,-7,-7,-5,-7,-6
1509429679721589,4,18,-10,5,0,0,0,-3
1509429679721589,-7,-38,1,-10,-1,0,-1,8
1509429679723591,-3,9,-9,-8,-3,-5,-3,0
1509429679723591,4,15,-33,8,3,-1,2,4
1509429679744604,-9,12,15,-2,-3,-2,-3,-6
1509429679744604,-9,-7,9,6,-3,-1,0,-1
1509429679745605,5,-5,-29,-14,0,-1,-3,-5
1509429679745605,-6,6,-3,-5,-2,-2,-1,4
1509429679766620,-1,-9,-6,0,-3,-2,-4,-8
1509429679766620,5,24,-18,3,-3,0,1,-1
1509429679768623,-1,-4,26,10,2,2,0,0
1509429679768623,-1,17,-37,-3,-2,-2,-1,1
1509429679781632,-1,6,26,-3,0,0,3,-1
1509429679781632,0,-7,-1,1,0,-1,0,11
1509429679783633,-2,-26,-2,0,-1,-1,-2,0
1509429679783633,5,7,6,0,0,-1,0,1
1509429679804647,1,3,-7,3,0,-1,0,-6
1509429679804647,3,13,-10,-1,0,0,-1,-1
1509429679805647,-4,-28,1,-4,-3,-2,-1,0
1509429679805647,-2,12,17,1,-3,-1,0,-3
1509429679826678,-4,-11,-4,2,2,0,-1,-1
1509429679826678,4,11,-6,5,-2,-5,-2,2
1509429679828680,1,6,3,-5,-2,-4,-2,-1
1509429679828680,2,-1,-3,-9,8,4,0,-3
1509429679849682,-1,-1,2,6,-5,0,0,0
1509429679849682,-4,3,2,-18,-4,0,1,-2
1509429679851682,-8,0,-4,1,-2,1,0,-3
1509429679851682,17,-3,18,5,-3,-1,-2,2
1509429679863690,1,6,2,6,4,0,0,0
1509429679863690,-2,-12,0,6,0,-3,-4,7
1509429679866691,0,11,-1,-1,-2,-2,-5,-6
1509429679866691,-4,0,24,3,-2,-1,1,-1
1509429679886706,-4,-1,-11,-7,-2,0,-1,-1
1509429679886706,6,-16,-8,0,-2,-2,-1,-5
1509429679888707,-9,8,-9,-2,3,0,1,0
1509429679888707,-4,5,-2,1,-2,-1,0,-3
1509429679900780,0,-8,9,-4,-1,-3,0,-2
1509429679900780,-6,-5,-19,2,4,-2,-1,-1
1509429679907740,6,1,0,-2,-3,-2,0,3
1509429679907740,1,12,10,4,3,-1,0,-2
1509429679923734,-13,-28,-13,-6,-3,-2,-3,-4
1509429679923734,5,14,-2,6,4,2,-1,-4
1509429679925753,0,-5,-15,-40,-13,-4,0,-1
1509429679925753,-4,-1,-7,1,-1,-2,-1,2
1509429679946749,8,11,-7,-1,-2,-1,0,0
1509429679946749,-6,-10,16,11,1,0,-1,-2
1509429679947750,-4,-5,-3,9,1,0,0,1
1509429679947750,9,-3,-4,-5,-3,1,-2,-3
1509429679960758,-5,-12,-17,2,-1,-2,-2,2
1509429679960758,1,4,10,-4,-3,-2,1,-9
1509429679968764,4,6,-2,6,1,0,0,6
1509429679968764,-3,2,2,-4,-1,-3,-4,1
1509429679983777,-1,-4,0,-3,-2,0,1,5
1509429679983777,-1,0,-2,-1,-1,-1,-4,-9
1509429679985776,-15,-26,12,0,-3,-2,-3,-2
1509429679985776,-7,0,-11,3,-1,0,1,-9
1509429680006793,2,-17,-12,1,1,-3,-1,9
1509429680006793,1,21,39,-7,-3,-1,-1,0
1509429680007792,-6,-9,0,8,4,2,0,-3
1509429680007792,3,13,-5,-4,-2,-1,-1,0
1509429680020802,-4,-17,1,-2,-2,-4,-4,-9
1509429680020802,-4,-14,-21,3,-3,-3,0,1
1509429680027806,6,7,-6,-1,7,2,-2,-4
1509429680027806,-3,2,2,-5,-4,-2,2,3
1509429680043817,2,14,-2,-4,-1,-1,-1,-4
1509429680043817,-1,-10,-6,3,0,0,0,-2
1509429680045818,4,-2,-3,6,-1,-3,-2,6
1509429680045818,-1,-2,-2,-12,-7,-1,-1,-5
1509429680066832,-2,9,8,-5,0,-2,1,-3
1509429680066832,-1,-8,-12,-12,1,0,-1,4
1509429680068840,-5,1,3,1,-1,-2,0,-6
1509429680068840,-9,-5,1,4,2,-1,-2,-4
1509429680080844,13,20,12,3,-4,-3,1,1
1509429680080844,-5,-34,-6,0,-2,-2,-2,0
1509429680087850,0,11,4,6,0,0,0,-2
1509429680087850,-2,-10,-9,3,3,1,1,2
1509429680103859,4,9,-1,-7,-7,-2,1,3
1509429680103859,-6,14,-12,-1,1,0,-2,2
1509429680105860,4,-5,9,4,-1,0,0,1
1509429680105860,-2,-1,12,5,-1,0,-1,1
1509429680126876,-4,3,7,9,5,0,-1,-4
1509429680126876,5,2,-6,0,-7,0,-1,0
1509429680128878,2,-3,-17,8,4,0,-2,-3
1509429680128878,-1,2,8,-46,-13,-3,-1,-2
1509429680141893,-10,-16,0,-3,0,-1,-1,-3
1509429680141893,4,16,7,5,-2,-1,1,2
1509429680149908,-4,-40,-20,31,7,2,-3,0
1509429680149908,1,8,2,-2,-4,-4,-2,-4
1509429680163902,1,2,-3,15,12,5,0,0
1509429680163902,0,0,-4,-36,-11,-4,-1,0
1509429680166904,1,15,6,0,-1,-2,0,-1
1509429680166904,-1,-5,-7,9,0,-1,0,-3
1509429680186919,-11,-11,10,9,0,-3,-2,-3
1509429680186919,-3,-1,3,12,2,-2,-1,-3
1509429680187918,6,8,7,-14,-4,-1,-2,1
1509429680187918,3,7,2,13,2,1,-1,-1
1509429680200952,-5,3,0,-5,-2,0,0,-2
1509429680200952,-1,-9,3,2,3,-1,0,0
1509429680214941,-10,4,-10,-10,0,-1,-1,-1
1509429680214941,5,-5,-10,-11,-5,0,-2,-2
1509429680223948,-1,2,-6,-10,-2,-3,-2,-1
1509429680223948,-7,-7,-8,-1,-1,0,0,0
1509429680225948,-2,13,18,1,-4,-3,0,-1
1509429680225948,-7,-7,-9,-1,3,1,-3,-1
1509429680246961,5,4,11,5,-2,-2,-2,-1
1509429680246961,-2,-14,-13,1,1,-3,0,-3
1509429680247963,-1,1,-8,1,-4,1,0,-1
1509429680247963,-1,-2,3,-8,-2,0,0,-1
1509429680259981,3,15,9,-14,-7,-3,-2,1
1509429680259981,-3,-7,-11,-1,4,0,-2,0
1509429680268975,4,0,-3,22,-2,-2,-1,0
1509429680268975,0,1,7,-5,1,-1,-1,0
1509429680283987,-2,0,1,5,-2,-1,-2,-2
1509429680283987,0,4,12,16,1,-1,-2,-2
1509429680285989,1,1,-10,-38,-2,1,-2,0
1509429680285989,-2,-3,-8,5,0,0,-2,-1
1509429680307004,-4,-4,-6,-6,-2,0,-1,-2
1509429680307004,-4,-3,-1,2,1,-1,0,0
1509429680308004,1,6,-1,-8,-4,-2,0,-2
1509429680308004,-3,-2,-5,6,-1,-2,-1,-2
1509429680320014,2,-8,-4,11,0,-3,-1,-1
1509429680320014,0,4,-5,-16,-4,2,0,0
1509429680329017,0,9,13,1,0,-2,0,1
1509429680329017,1,3,3,6,0,-2,-1,0
1509429680344046,-2,-7,-11,-9,1,-1,1,0
1509429680344046,1,2,3,3,0,-1,1,-1
1509429680346031,0,-6,-4,-10,-3,-1,-1,-1
1509429680346031,-1,-3,-6,3,-2,-3,0,-1
1509429680367045,0,-2,2,2,0,0,-1,1
1509429680367045,1,2,4,4,0,-2,0,2
1509429680369050,-1,-9,-12,-6,2,-1,-1,-2
1509429680369050,-1,-5,2,-2,-5,-2,-1,-2
1509429680380058,-5,-1,1,-3,0,-1,-3,-3
1509429680380058,1,1,-1,-11,-5,-2,0,0
1509429680389064,1,-2,-2,3,1,-2,-1,-2
1509429680389064,-1,-2,-3,6,1,-3,-2,0
1509429680404075,-2,-3,-2,-4,-1,-2,0,0
1509429680404075,-1,-4,2,1,2,0,-1,-2
1509429680406076,-1,0,1,-3,-2,-1,0,-2
1509429680406076,-3,-4,-7,-1,1,-1,0,-2
1509429680427088,-5,1,1,-4,-3,-1,-2,-1
1509429680427088,6,-3,0,4,0,-2,0,0
1509429680428090,0,-2,0,-2,-3,0,0,0
1509429680428090,-1,-2,-5,-4,-2,-2,-1,-2
1509429680440097,-2,-4,-2,-1,-1,-3,-1,-2
1509429680440097,-4,-1,2,-1,1,-1,-2,-1
1509429680449104,0,-1,-4,-4,-2,0,-1,-2
1509429680449104,0,1,0,-1,0,1,-1,1
1509429680464115,0,-2,0,1,-1,-1,1,0
1509429680464115,-2,9,-10,-5,-2,-1,-2,-4
1509429680466115,-4,-2,3,-1,-3,-3,0,-1
1509429680466115,-3,0,-4,2,0,0,-2,-1
1509429680486129,0,0,-5,-2,-3,-2,-1,-1
1509429680486129,-2,1,-1,-4,0,-1,1,0
1509429680488131,-1,0,-3,-1,-1,-1,0,-2
1509429680488131,-2,-1,-1,0,-1,-1,-2,-1
1509429680500176,0,-2,1,-3,-1,-1,-1,0
1509429680500176,-1,-4,1,2,-2,-2,-3,0
1509429680509146,-2,0,-2,-6,-2,-1,-1,0
1509429680509146,0,-2,-2,0,0,-1,-1,0
1509429680524157,2,-2,-2,-3,-1,0,0,-2
1509429680524157,-4,-4,3,0,0,-2,-1,0
1509429680526159,0,-1,-2,-2,-1,0,0,1
1509429680526159,-2,-1,-4,-2,-1,-2,0,-3
1509429680546181,-1,-1,0,-2,-4,0,-1,0
1509429680546181,-2,-2,1,0,0,-3,-1,-3
1509429680548184,0,-1,-3,-1,-1,-1,-2,1
1509429680548184,-1,1,0,-3,-1,0,-1,0
1509429680560194,-1,-1,1,0,0,-1,-1,0
1509429680560194,0,-4,1,0,-1,-1,0,0
1509429680569189,0,-1,-3,-1,0,-3,-1,-1
1509429680569189,-1,-2,-2,-1,0,-1,0,1
1509429680584199,0,-2,0,-2,1,-1,-1,-2
1509429680584199,-1,0,-2,-1,-1,1,-1,0
1509429680590204,0,0,-1,0,-1,0,-1,-3
1509429680590204,-3,0,-1,0,-3,-1,-1,1
1509429680606216,0,1,0,0,-1,0,0,-1
1509429680606216,0,-2,0,-1,0,-1,0,-2
1509429680608224,-2,-2,-2,1,-1,-1,-1,-2
1509429680608224,-1,-1,-1,-3,-1,-1,-2,-2
1509429680620225,-2,-1,-1,0,-3,-3,0,1
1509429680620225,-1,0,-3,-1,-2,-1,-1,-2
1509429680629232,0,-2,0,0,-1,-1,-2,-2
1509429680629232,-1,-2,-2,-2,0,-1,0,-1
1509429680643240,-1,-2,0,1,-1,-1,0,-1
1509429680643240,-2,-2,2,0,-1,0,-3,-2
1509429680652269,0,-2,-2,-2,-2,0,-1,-3
1509429680652269,-1,-1,-1,0,-1,-2,-2,0
1509429680674272,1,-1,-1,0,-2,-1,-3,-1
1509429680674272,-1,-2,-2,-1,0,-2,-2,-1
1509429680675273,0,-1,-2,-2,-1,-2,0,-1
1509429680675273,-1,-1,0,-1,-1,-1,-1,-2
1509429680689276,-2,-1,-1,0,0,0,0,1
1509429680689276,-1,-1,-1,-2,1,-1,0,1
1509429680690277,0,2,1,-1,1,2,-2,0
1509429680690277,-1,-2,0,-1,-1,-1,1,-2
1509429680704285,0,-2,0,-1,-1,-1,0,-1
1509429680704285,-1,-2,-2,1,0,-2,0,0
1509429680705284,-1,-1,0,0,0,0,-1,-3
1509429680705284,-1,0,-1,-1,-1,-1,-2,-2
1509429680726301,-1,-1,0,-1,-1,0,1,0
1509429680726301,-1,-2,-3,-2,-1,0,-1,-1
1509429680728302,-1,-1,-2,1,-2,-3,-1,-1
1509429680728302,-1,-2,-1,-1,-1,0,-1,-1
1509429680749372,-1,-2,0,-3,-2,-2,-2,-1
1509429680749372,-1,0,0,0,-2,-1,-1,-2
1509429680750316,-1,1,-3,0,1,0,-2,-1
1509429680750316,-1,-1,-2,0,-2,0,-1,-2
1509429680764338,-1,-2,0,0,1,1,-2,0
1509429680764338,-2,-1,-2,-1,-1,-1,-3,0
1509429680765344,0,-2,-1,-3,-3,-1,-1,0
1509429680765344,-2,-2,-2,-2,-1,0,0,1
1509429680786343,-2,-2,0,-1,0,-3,1,-1
1509429680786343,0,-1,-1,-1,-1,0,-2,-1
1509429680788344,-1,-1,-2,-3,-1,-1,-1,-3
1509429680788344,0,-2,1,-1,0,-2,-3,-3
1509429680809359,-2,-1,-1,-2,0,-1,-1,-2
1509429680809359,-1,0,0,0,0,-1,0,-2
1509429680810360,-1,0,-1,-1,0,-1,-1,-2
1509429680810360,-1,-1,1,-2,-3,-2,-3,-2
1509429680823369,0,-1,0,-2,-2,-3,-2,-2
1509429680823369,-1,-1,-1,0,-1,0,0,0
1509429680830373,0,-2,-3,-1,-2,-1,-1,2
1509429680830373,-2,-1,-1,-2,-1,-1,0,-3
1509429680846405,-3,-2,-3,-2,-1,-1,-2,-1
1509429680846405,-1,-3,-1,-1,0,1,0,-1
1509429680848400,-2,-2,-2,-3,0,-1,0,-1
1509429680848400,0,0,-2,-2,-2,1,0,-3
1509429680869401,0,-2,0,1,1,0,-2,-1
1509429680869401,-2,0,-2,-2,-3,-3,0,-3
1509429680870405,-2,-1,-4,3,0,0,-1,-1
1509429680870405,-1,-2,-2,-7,-2,-3,-1,-1
1509429680883411,0,-1,1,0,-2,-2,-2,-1
1509429680883411,-2,-1,1,0,0,-1,-1,-1
1509429680897442,-1,0,-2,-2,-4,-2,-1,0
1509429680897442,-3,-2,-1,0,-2,-1,1,-1
1509429680906426,-1,-1,0,1,-2,1,0,0
1509429680906426,1,-1,-2,3,0,0,-3,1
1509429680908428,0,-1,-1,-7,-2,-1,-3,-2
1509429680908428,-1,-1,1,1,3,-2,-1,-1
1509429680929446,-2,-1,-1,-1,-3,-1,-1,-4
1509429680929446,-1,-2,0,3,-1,-2,0,-1
1509429680930450,-1,0,-1,1,-2,0,-1,1
1509429680930450,-1,0,1,2,-1,-1,-1,1
1509429680943453,-2,-1,1,0,0,-2,1,-1
1509429680943453,0,0,-2,-6,1,-2,-1,-1
1509429680957464,-2,-2,-2,0,-1,-1,0,-2
1509429680957464,-1,-2,-3,-3,-1,1,-1,0
1509429680966485,-2,-1,0,2,-1,0,-1,-2
1509429680966485,0,-1,-1,-2,-1,-2,0,-1
1509429680968471,-1,-1,-1,-3,0,1,-1,0
1509429680968471,0,0,-1,3,-2,-1,-2,0
1509429680989487,0,-1,-1,-3,-2,-1,-3,-1
1509429680989487,-1,-1,-2,-1,1,0,-2,1
1509429680990495,-1,-1,-1,1,-2,-1,-1,-2
1509429680990495,-2,-1,-3,0,0,-2,-1,-1
1509429681003496,-1,0,0,-1,-1,-3,-2,-1
1509429681003496,-1,-2,0,-2,-2,-2,0,-1
1509429681010501,-1,1,-3,6,1,-1,0,0
1509429681010501,-1,-2,0,-4,-4,-1,0,-1
1509429681026513,-1,-2,-2,-2,1,-1,0,-1
1509429681026513,-1,-1,-1,0,-2,-1,-1,-2
1509429681028514,0,-2,-2,-2,-1,-1,-1,-1
1509429681028514,-1,-1,0,0,-1,2,-1,1
1509429681049544,-2,-2,0,-2,-2,0,0,0
1509429681049544,-2,-3,-2,1,-2,-2,-2,-1
1509429681051530,-3,-1,-2,-2,-1,-1,-1,-4
1509429681051530,0,-2,-3,-2,0,-1,-1,-1
1509429681063538,0,-1,-1,-2,-1,-2,-1,0
1509429681063538,-2,1,0,-3,0,-2,-1,-1
1509429681070544,0,0,0,-3,-3,-3,-1,-1
1509429681070544,-3,0,-1,0,-4,0,-1,-3
1509429681086555,-1,-2,0,-1,1,0,-2,-2
1509429681086555,0,-2,-1,-1,-2,-2,-2,-2
1509429681088556,-1,0,-4,-2,2,-1,0,0
1509429681088556,-1,0,-1,4,0,-2,-1,-1
1509429681109570,-2,0,-1,-12,-5,0,-1,-1
1509429681109570,-3,-1,-1,0,-2,0,0,-2
1509429681110572,0,-2,-3,-2,-2,-1,-1,-1
1509429681110572,-1,-2,-1,-3,1,-2,0,0
1509429681123581,-1,-1,0,7,-1,-2,-1,0
1509429681123581,0,-1,-3,1,2,0,0,-2
1509429681130586,0,0,-2,-10,-2,0,0,0
1509429681130586,-2,-1,0,0,-2,-1,-1,-2
1509429681146600,2,-2,-1,-1,-3,-2,-2,0
1509429681146600,0,-1,-1,-2,0,-1,-3,0
1509429681148613,-2,-1,-1,4,0,0,-2,0
1509429681148613,-1,-1,-2,-2,-1,-1,0,0
1509429681168612,-2,-2,0,0,1,0,0,1
1509429681168612,-1,-1,-2,0,-4,0,0,-2
1509429681170615,-2,0,1,-2,0,0,-1,-1
1509429681170615,-1,-1,-2,-1,-2,-2,-1,0
1509429681182623,-1,-2,0,-1,-2,-2,0,0
1509429681182623,-1,-1,-2,-2,-3,-3,0,-1
1509429681191628,0,-1,-2,1,2,-2,-2,-2
1509429681191628,-1,-1,-1,-2,-2,-1,-2,-3
1509429681206641,-2,-3,0,0,0,-2,-2,0
1509429681206641,-1,-2,-1,0,-1,-1,-2,0
1509429681208642,-2,0,-1,0,-3,-2,0,-1
1509429681208642,-2,-2,-1,-3,0,-1,-1,-1
1509429681228660,-1,-1,-2,0,-1,-1,-2,-3
1509429681228660,-2,-1,-2,-2,-1,-1,-1,-2
1509429681230657,-1,1,-2,-2,-1,0,-1,0
1509429681230657,-1,-2,-1,-2,-2,-2,0,2
1509429681242677,-1,-1,-1,-2,-2,-1,0,1
1509429681242677,-1,-1,0,0,0,-1,0,-1
1509429681251672,0,-1,-1,2,-2,-1,-1,-4
1509429681251672,-1,-1,0,-2,-1,0,-1,-2
1509429681266683,-1,-1,-1,1,-1,-1,-1,-2
1509429681266683,-1,0,-2,-1,0,0,0,-2
1509429681269683,-2,-2,-3,-3,0,0,0,-2
1509429681269683,-1,-1,-2,-1,-1,-2,-1,-2
1509429681288698,0,-3,0,1,-1,-2,-1,0
1509429681288698,-1,0,1,-1,-1,0,-2,-2
1509429681290698,-1,-1,-1,-2,-2,-2,-1,-1
1509429681290698,-2,-1,-1,-2,-1,-2,-1,0
1509429681302722,-1,-1,-1,1,0,0,-2,-1
1509429681302722,-1,-1,-1,-3,1,-1,-1,-1
1509429681311714,-1,-1,-2,0,-1,0,-1,0
1509429681311714,0,-1,-2,-1,-2,-1,-1,-2
1509429681326724,-3,1,0,-1,-2,-2,-1,0
1509429681326724,-2,-1,-2,-2,-2,-2,0,-1
1509429681328725,-2,-1,-2,2,-1,0,-3,-1
1509429681328725,-1,-2,0,-2,-1,-1,-2,-1
1509429681348779,-2,-3,0,-3,0,-1,-2,-1
1509429681348779,-1,-2,-2,4,-1,-2,-1,-1
1509429681351767,0,-2,-4,-16,-4,-3,-2,-1
1509429681351767,0,0,0,1,-1,-1,0,-1
1509429681362751,-1,-2,0,-2,-1,-1,-1,-1
1509429681362751,0,0,-3,-1,1,0,0,-1
1509429681371755,-1,1,0,5,-1,-1,1,0
1509429681371755,-2,0,-1,0,-2,1,-2,0
1509429681386768,-1,-1,2,-3,1,-1,0,-2
1509429681386768,0,-3,-1,-2,-1,-1,-3,-1
1509429681387771,-1,0,-1,1,0,0,0,-1
1509429681387771,-1,-1,0,-3,-3,0,0,0
1509429681408783,-2,0,-1,0,0,0,0,1
1509429681408783,-1,-1,-3,-3,-1,-2,-2,-1
1509429681410785,-1,-1,-4,-1,0,-1,-2,-2
1509429681410785,-2,-3,-2,-1,-1,-1,0,0
1509429681422793,-1,-2,-2,-2,-1,-1,-3,-1
1509429681422793,-1,-1,-2,-1,-2,-2,-3,0
1509429681431800,-1,-2,-2,-2,-1,-1,0,-1
1509429681431800,0,-1,0,1,1,-1,-2,-1
1509429681446832,0,-1,0,1,-2,0,0,1
1509429681446832,0,-1,-2,-3,-1,-1,0,-1
1509429681447819,-1,0,-1,2,1,-1,-1,0
1509429681447819,-1,-1,-1,-2,1,-1,-1,-2
1509429681468828,0,0,-2,-2,-2,-1,-3,-3
1509429681468828,-1,-2,-1,0,-1,0,-2,-2
1509429681470829,0,-1,-4,-1,-2,0,-1,-2
1509429681470829,-1,-2,-1,1,0,0,-1,0
1509429681482835,-1,-1,2,0,-1,0,-1,-2
1509429681482835,-2,-1,-2,-5,0,-2,-1,1
1509429681491842,-2,0,-1,-4,-2,0,-2,-1
1509429681491842,-1,1,1,-3,-2,-2,-1,1
1509429681506851,-1,-4,-2,1,-1,-1,0,-2
1509429681506851,-2,-2,-1,0,-1,-1,-2,-2
1509429681512857,-2,-2,-2,-1,-1,0,0,-3
1509429681512857,-1,-2,-1,-1,0,-1,-1,-2
1509429681528869,-3,-2,-2,0,-2,-1,-2,1
1509429681528869,-1,-1,-1,1,-1,-1,-1,0
1509429681530874,0,-1,-1,4,-2,-1,-1,1
1509429681530874,-2,0,-2,-9,-1,1,0,0
1509429681542877,1,-3,0,-2,0,-2,-1,0
1509429681542877,-1,0,-2,-3,-3,0,0,-1
1509429681551884,0,0,1,0,-1,-1,-2,0
1509429681551884,-1,0,0,2,-3,-1,-1,-1
1509429681566894,-1,-2,-2,-1,-1,0,-1,0
1509429681566894,0,-2,-1,-2,-1,-1,0,-2
1509429681568896,0,0,1,3,0,-1,0,-2
1509429681568896,-3,-1,-2,-12,-4,-2,-3,-2
1509429681588910,-2,-2,0,-1,1,-1,-1,-2
1509429681588910,-1,0,0,0,-1,-1,0,1
1509429681590912,-1,-3,-2,-3,1,-1,1,1
1509429681590912,-2,-1,0,4,0,-3,-1,0
1509429681611927,-2,0,0,-1,-2,0,1,0
1509429681611927,-1,-1,-3,-2,-1,0,-1,-2
1509429681612928,-2,-1,-1,-2,-1,-2,-2,-2
1509429681612928,0,-1,0,1,-2,-1,0,-2
1509429681625937,-1,-2,0,-1,-2,-3,1,-3
1509429681625937,1,-1,-1,0,-2,-1,-1,-1
1509429681626938,-1,-1,-4,-4,-1,0,-2,-1
1509429681626938,-1,-1,-2,0,-3,-1,0,-1
1509429681647955,-2,-1,-1,-2,-1,0,0,-1
1509429681647955,-3,1,1,1,-1,0,-1,-3
1509429681648952,-1,-1,-2,-3,-2,-1,-1,0
1509429681648952,0,-2,-2,0,-2,-1,-2,-1
1509429681670968,1,1,0,1,-1,-2,0,0
1509429681670968,0,0,-2,-1,0,-3,-1,0
1509429681671968,-1,0,-1,-2,-1,-1,0,-1
1509429681671968,-1,-2,1,1,-1,-1,0,-2
1509429681685979,-1,-1,0,-1,-1,-2,-2,0
1509429681685979,-1,-1,-2,0,1,0,-2,-2
1509429681686979,-1,0,-2,-1,-2,-1,-2,-2
1509429681686979,-1,-1,0,-1,1,-2,-1,-1
1509429681707995,-2,-1,0,-1,0,0,-2,-1
1509429681707995,-1,-2,-3,-2,-1,0,-2,0
1509429681708998,-2,1,0,2,0,0,-1,-2
1509429681708998,0,-1,-1,-6,-2,-2,0,-2
1509429681731026,-2,0,-1,-2,-1,0,-1,-4
1509429681731026,-1,-1,-1,-1,-1,0,-1,0
1509429681732011,-1,-2,-1,-3,-3,1,-2,-3
1509429681732011,0,-1,0,3,0,-2,-1,-1
1509429681746036,1,0,0,0,-2,-1,-2,0
1509429681746036,1,-3,-2,0,-2,-1,-1,-2
1509429681747022,0,-1,-1,-1,1,0,1,-1
1509429681747022,-2,0,0,0,-1,-1,1,-2
1509429681768037,-1,-2,-1,-1,1,-1,-2,0
1509429681768037,-1,-2,-2,0,0,-1,-2,0
1509429681769038,-1,0,-3,-3,-2,-1,-1,1
1509429681769038,-3,1,1,2,1,0,-1,0
1509429681792054,-1,-2,-1,0,-1,-2,-2,-2
1509429681792054,-1,-1,-2,-3,-2,-2,0,-1
1509429681793058,-1,-2,-3,-2,0,0,-2,-2
1509429681793058,-3,-1,1,-2,-3,0,-2,-1
1509429681806076,-1,0,0,0,1,-3,-1,-1
1509429681806076,0,0,-2,1,-1,-2,-1,1
1509429681807067,-1,-1,-3,-2,-1,-2,0,-1
1509429681807067,-1,-1,-1,0,1,-3,0,1
1509429681828081,-3,-1,-1,-6,-2,0,-1,-1
1509429681828081,-1,0,0,-3,0,-2,1,-2
1509429681829082,-1,1,0,-2,-3,-2,0,0
1509429681829082,0,-3,0,3,1,0,-1,-1
1509429681851096,-1,-2,0,1,-3,-2,-1,-1
1509429681851096,0,-1,-2,-1,0,-2,-1,0
1509429681852112,-1,-2,0,-3,-2,-1,-1,-2
1509429681852112,-1,0,0,-1,-2,-1,0,-3
1509429681866127,-1,0,0,0,0,-1,-1,-1
1509429681866127,-1,-2,-1,-1,-1,1,-1,-2
1509429681867106,0,0,-3,-1,-2,-2,-1,0
1509429681867106,-1,-1,-1,1,-1,0,-2,-1
1509429681888135,0,-3,0,-1,-1,-1,-1,-3
1509429681888135,-3,-1,-2,-2,-1,0,-1,0
1509429681889123,-1,-1,0,0,0,-2,-2,-1
1509429681889123,-1,-1,-1,-2,-1,-1,0,0
1509429681911139,-1,-1,-1,0,-1,-1,1,-1
1509429681911139,-1,0,-1,-1,0,0,1,-3
1509429681912139,0,-2,-1,0,-1,-1,-1,-1
1509429681912139,-1,-2,-1,-2,-1,-1,-1,-1
1509429681926149,-2,-3,3,2,1,-1,-1,1
1509429681926149,-2,-2,-2,0,-2,-2,-2,-2
1509429681927150,-2,-1,-1,-2,-2,-1,0,-1
1509429681927150,-1,-1,0,1,0,1,-3,-3
1509429681948180,0,-2,-1,-1,-2,-2,-1,-2
1509429681948180,-1,-1,0,0,-1,0,-2,-1
1509429681949174,-2,0,-1,-2,-1,-1,0,-1
1509429681949174,0,-1,0,3,-2,-2,-1,0
1509429681971182,0,-1,0,-1,1,0,-1,0
1509429681971182,-1,-1,-2,-4,0,-2,1,-3
1509429681971182,0,0,-1,-2,-3,0,-3,-2
1509429681971182,0,-1,0,-3,-2,-2,0,0
1509429681986192,-2,-2,-1,1,-3,-1,0,2
1509429681986192,-2,-2,0,-1,-1,0,-3,0
1509429681987191,-1,0,-3,-2,0,-1,1,0
1509429681987191,-1,-1,-1,-4,0,-3,-2,-2
1509429682008208,0,0,-2,-1,-1,1,-2,-3
1509429682008208,0,-3,-4,-2,-2,-1,-1,0
1509429682009208,0,-3,-1,0,-1,0,-2,-1
1509429682009208,-5,-3,-1,-1,-1,-3,-2,3
1509429682031239,-1,-1,0,-1,-1,-2,0,0
1509429682031239,-1,0,0,-1,1,-3,0,-1
1509429682031239,0,-2,-4,-3,-1,-1,0,-2
1509429682031239,-1,-1,0,-2,-3,-2,0,-2
1509429682046237,-1,-2,-1,-1,0,-3,-2,-1
1509429682046237,-1,1,-1,0,-2,-1,0,-1
1509429682046237,-2,1,0,0,-1,-2,-1,-1
1509429682046237,0,-1,0,-2,-2,0,-2,-2
1509429682068270,-2,-1,-2,0,-1,0,0,-2
1509429682068270,0,-1,-3,-1,-1,-1,-2,-1
1509429682069250,-1,-1,-1,-1,-1,-2,-2,0
1509429682069250,0,0,1,-1,-2,0,-1,-2
1509429682091278,-1,-1,0,0,-2,0,-1,-1
1509429682091278,-1,0,-1,-1,-1,-1,-1,-2
1509429682098283,-1,-1,-2,-3,-1,-1,-2,-1
1509429682098283,0,-2,-2,0,0,-1,-1,-1
1509429682106277,1,0,1,-1,-1,-1,1,0
1509429682106277,-1,0,-1,-1,-1,-1,-1,-1
1509429682106277,1,-1,-1,-2,1,-1,-1,-2
1509429682106277,0,-1,1,0,-2,-1,-1,-1
1509429682128304,-1,-1,0,-1,1,-3,-2,0
1509429682128304,0,0,-2,2,-2,-2,1,-1
1509429682129292,-2,0,-2,-7,-3,0,-1,-1
1509429682129292,0,-1,-2,-1,-2,0,-2,0
1509429682151359,-1,-1,0,-2,0,-2,-2,-2
1509429682151359,-2,0,-2,0,0,-2,-1,-1
1509429682152348,-2,-2,-2,1,0,-1,1,1
1509429682152348,1,-1,-1,-1,-1,1,1,0
1509429682165328,0,-1,-1,0,-2,0,-1,0
1509429682165328,0,-2,-3,-3,-1,-2,0,-1
1509429682173324,-2,0,-1,1,0,-1,-1,-1
1509429682173324,-2,-2,-1,-1,0,-1,-2,-1
1509429682188345,-1,-2,0,-1,-3,0,-3,-2
1509429682188345,0,-2,-1,-2,-2,0,0,-1
1509429682189336,-2,1,-3,0,-3,0,-3,-1
1509429682189336,-2,-3,0,-2,0,0,-2,-1
1509429682211351,0,-1,0,1,0,-2,-1,-2
1509429682211351,-1,0,-2,-2,-1,0,-2,-3
1509429682218359,-1,1,-1,-1,0,0,2,-1
1509429682218359,-3,-1,0,-1,-1,-1,-1,-2
1509429682225361,-4,-2,1,-1,-1,1,-1,-2
1509429682225361,1,-2,-1,-2,0,-1,-2,1
1509429682233365,1,0,0,0,0,-1,-3,-1
1509429682233365,0,0,-1,-1,0,-1,0,-1
1509429682248380,-1,-1,-2,-2,-2,-1,-1,-1
1509429682248380,-2,-1,-1,0,-1,0,0,-1
1509429682249378,-1,0,-2,-1,-1,-1,-3,-2
1509429682249378,-3,-1,-1,-2,-2,-2,-2,0
1509429682271393,-1,-2,-2,-1,-3,0,0,0
1509429682271393,-2,-1,-1,0,3,1,0,1
1509429682271393,0,-1,-1,-2,-1,-2,0,-1
1509429682271393,-2,-1,-1,0,0,-2,0,-1
1509429682285406,-2,-2,1,0,-1,-3,-1,1
1509429682285406,1,-1,-2,0,1,0,-2,-1
1509429682293411,0,0,-4,-3,-1,-1,-2,-1
1509429682293411,-2,-1,-2,-2,-1,-1,0,0
1509429682308420,0,-1,0,-1,-2,-1,0,0
1509429682308420,-2,-3,-1,-2,-4,-2,0,-3
1509429682309422,-1,-1,-1,0,-1,-2,0,-2
1509429682309422,-1,0,2,-1,-1,-3,-2,-1
1509429682330438,-1,-1,-1,0,-2,1,-2,0
1509429682330438,0,0,-2,-1,-1,1,0,-1
1509429682331436,-2,0,-1,0,-1,-2,0,-1
1509429682331436,-2,-1,-1,0,-2,-1,-1,-1
1509429682345449,-1,-1,0,-1,-1,-1,0,-1
1509429682345449,0,-2,-3,-1,-2,-2,-1,-1
1509429682353451,-3,0,-1,-1,-2,1,-2,-4
1509429682353451,1,0,1,0,-2,-1,0,-2
1509429682376471,-2,-2,-2,-1,0,0,-3,2
1509429682376471,0,2,-3,-3,-4,1,-1,0
1509429682377471,-2,-1,-2,0,-1,-1,1,-1
1509429682377471,0,-2,1,-2,0,-2,-2,-2
1509429682390477,-1,-2,-1,1,1,-2,0,-3
1509429682390477,-2,-1,-1,-3,-1,-1,0,-1
1509429682391480,-1,-2,0,-5,-2,-3,0,0
1509429682391480,0,-1,-3,0,-1,0,2,0
1509429682405500,-1,-2,0,-2,0,-2,-2,1
1509429682405500,-1,0,-3,1,-1,-3,-1,0
1509429682413494,-2,-1,0,0,-2,1,-4,-2
1509429682413494,-1,-1,0,-2,-1,0,-2,-2
1509429682428504,0,0,-1,-2,-1,-3,-1,-3
1509429682428504,-1,-2,-2,1,0,-2,0,-2
1509429682429505,-3,-3,0,-2,-1,-1,0,0
1509429682429505,0,-2,-1,0,-3,-1,-2,-1
1509429682451521,1,0,-1,-1,-2,-1,0,-1
1509429682451521,0,0,-1,-2,-1,-2,-3,-2
1509429682452536,0,2,-1,-1,0,0,-1,-2
1509429682452536,-1,0,0,-1,-2,-1,0,0
1509429682465546,-2,0,-1,-2,-3,1,0,1
1509429682465546,-1,-1,-2,-2,0,0,-1,-2
1509429682473537,-1,-2,-2,1,-1,0,-1,-3
1509429682473537,0,-3,1,-1,-2,-1,0,-3
1509429682488547,-3,0,-1,-1,0,-2,-2,-2
1509429682488547,-1,-1,-1,-2,-3,1,-1,-1
1509429682489548,1,0,-2,-1,0,-1,0,1
1509429682489548,-3,0,1,0,-1,-1,-2,0
1509429682510563,0,-2,0,-2,-1,0,-1,-1
1509429682510563,0,-1,-2,-8,-2,0,-1,0
1509429682511564,0,-1,-4,-1,0,-1,-1,-1
1509429682511564,-1,-3,0,-1,1,-1,0,1
1509429682534578,-3,0,0,1,-2,-3,-1,-1
1509429682534578,-2,0,-1,0,-1,-2,-3,-2
1509429682534578,0,-1,-2,0,0,0,-2,0
1509429682534578,0,-3,0,-2,-3,-3,-1,0
1509429682548592,-2,1,-1,1,-1,-2,-1,-2
1509429682548592,0,-1,0,0,-2,-1,0,1
1509429682549590,-2,0,1,-1,-4,-2,-3,0
1509429682549590,-2,-2,-1,1,-1,-1,0,0
1509429682570605,-2,-4,1,0,2,1,-2,-1
1509429682570605,-2,-2,0,-2,0,-1,0,-3
1509429682571606,0,-2,0,-1,-2,-1,-1,-2
1509429682571606,-2,-1,2,-3,-1,-1,-1,0
1509429682593625,1,-3,-1,-2,-1,-1,-1,1
1509429682593625,-1,0,-1,0,0,-2,0,-2
1509429682594623,-2,-2,-1,-1,2,-1,-1,-1
1509429682594623,-2,-1,0,-1,-1,-1,-1,-1
1509429682608632,-1,0,-2,0,-1,0,-4,0
1509429682608632,-2,-1,-1,1,0,0,-2,-1
1509429682609633,-2,-1,-3,-2,-3,-2,0,-1
1509429682609633,-1,0,-1,0,1,-2,-1,1
1509429682630648,-2,-2,0,-2,0,-1,0,0
1509429682630648,0,-1,-4,-2,-2,0,-1,0
1509429682631647,0,-1,0,-2,-3,-2,0,-1
1509429682631647,-1,0,-1,0,0,1,0,-1
1509429682654664,-1,-1,0,-2,-2,-1,0,-2
1509429682654664,-2,-2,-2,0,0,-1,-2,-3
1509429682655664,-1,0,-2,-1,-1,0,-1,-1
1509429682655664,-2,-3,-1,0,-2,-2,-1,0
1509429682668675,-1,0,-2,5,-2,-1,-2,-2
1509429682668675,-1,-1,-1,-4,1,-1,0,-2
1509429682669674,0,0,-3,-2,-1,-1,-1,-1
1509429682669674,-1,-1,0,0,1,-1,-3,-2
1509429682690690,-2,-2,-1,-2,-1,-2,-1,-1
1509429682690690,0,-2,-3,0,0,0,-2,-1
1509429682691691,-2,-1,-1,-1,-1,-1,-2,-2
1509429682691691,-1,-1,0,-3,-3,-2,0,-1
1509429682713705,0,-1,-2,0,0,-2,-1,0
1509429682713705,0,0,-3,0,1,-1,1,-2
1509429682714706,-2,-2,-1,-2,-3,-1,-2,0
1509429682714706,-2,-1,-3,-1,-2,0,-2,-2
1509429682728718,-2,-1,-1,-1,-3,-1,1,0
1509429682728718,-2,-2,-2,-2,-3,-3,-2,0
1509429682729717,0,-2,-1,-2,2,0,0,-2
1509429682729717,0,-1,-1,0,-2,-1,-2,1
1509429682750749,-1,-2,0,1,-1,-1,-1,0
1509429682750749,0,1,-1,-1,-1,-1,-1,-3
1509429682751733,0,-2,-1,0,-1,1,0,-1
1509429682751733,-1,-1,-2,-1,-2,-2,-1,-1
1509429682773766,0,-1,-1,-3,-1,1,0,0
1509429682773766,-1,0,-2,0,0,0,0,1
1509429682774749,0,-3,-2,-2,-2,-2,-1,-3
1509429682774749,-2,-1,-1,1,-1,-1,0,-2
1509429682788760,-2,-2,0,1,0,-2,-3,-4
1509429682788760,-1,-1,-2,-6,-2,-1,-1,-1
1509429682788760,-1,0,0,-1,0,-2,1,2
1509429682788760,1,-2,0,-2,-1,0,-1,2
1509429682810775,-1,-2,-1,-1,-1,-2,0,-1
1509429682810775,-1,-2,-1,1,-1,0,-3,-1
1509429682811776,-3,0,-2,-1,-1,-2,-1,-1
1509429682811776,-1,-1,-2,-2,0,-1,-1,-2
1509429682835791,-1,-2,-1,-3,-2,-1,1,0
1509429682835791,-2,-2,-1,2,-1,1,-1,0
1509429682835791,-1,0,-2,-2,-3,-1,-1,0
1509429682835791,-1,0,2,-1,-2,-1,-2,-1
1509429682848803,0,-1,-1,-2,0,-1,-1,0
1509429682848803,0,1,-2,0,-1,-1,-1,-3
1509429682848803,-2,-3,-1,0,0,-1,-1,0
1509429682848803,-2,-2,0,-3,-2,-1,-1,-1
1509429682870821,0,-1,-2,-2,-2,-2,-2,-3
1509429682870821,-1,-1,-2,0,-2,-1,0,-1
1509429682871824,-2,0,0,-1,1,-3,-1,-2
1509429682871824,-1,-2,-1,-3,0,-2,0,-2
1509429682893837,-1,-2,-1,-1,0,-1,0,-1
1509429682893837,-1,1,-2,0,0,-1,-1,-1
1509429682894838,0,-1,1,-1,-2,0,0,-2
1509429682894838,-1,-1,0,0,0,-1,-1,1
1509429682908843,-2,0,-2,0,-1,-1,-2,0
1509429682908843,0,0,-1,1,-1,-2,-3,-1
1509429682909852,-1,-1,-1,-7,-3,0,-1,-3
1509429682909852,-2,-1,0,0,-1,-1,-2,-2
1509429682930860,1,-1,0,0,0,-1,-1,0
1509429682930860,-1,-4,-2,0,1,-2,2,-1
1509429682931860,-1,-2,-2,2,0,0,1,-1
1509429682931860,-1,-2,0,0,-1,0,-2,-3
1509429682953877,-1,0,-2,-3,-1,2,0,0
1509429682953877,-2,-2,-1,-3,-1,-1,0,-2
1509429682954879,2,-1,-2,-1,-2,-1,-1,0
1509429682954879,-2,-1,-2,-1,-2,-1,0,0
1509429682967887,-1,-5,2,0,0,-1,-2,-1
1509429682967887,-1,1,-2,-3,-2,0,-3,-2
1509429682968887,-1,1,-3,0,-1,-1,-1,-1
1509429682968887,1,0,-2,-2,-1,-2,1,-2
1509429682990906,0,-1,-2,0,-2,-1,-1,-1
1509429682990906,-1,-1,-2,-1,0,-1,1,0
1509429682991906,0,1,0,-1,-1,-1,-2,0
1509429682991906,0,-3,-1,-1,-1,-3,0,1
1509429683013922,-2,0,-1,-1,0,-1,0,-2
1509429683013922,0,-1,0,-1,-2,-1,-1,-2
1509429683014919,-3,-1,-2,-1,-1,-1,-2,-3
1509429683014919,1,-1,0,2,-2,0,-1,-2
1509429683027928,0,0,0,-2,0,-2,-1,-1
1509429683027928,-1,0,-2,-2,-2,-2,0,-3
1509429683028928,-2,-1,-2,-2,-1,-1,1,-1
1509429683028928,-2,-2,-1,-2,-1,0,-1,-1
1509429683050961,-2,-1,-2,-1,-3,-1,-1,-1
1509429683050961,0,-1,-1,-2,-2,-1,-1,-1
1509429683051944,-2,-1,-1,0,-3,-3,-2,0
1509429683051944,2,-3,-1,-2,-1,0,-3,-1
1509429683073961,-1,-2,-1,-1,0,-2,-1,0
1509429683073961,-1,-4,-3,-2,-1,-1,0,0
1509429683074961,-2,-1,-2,-2,0,-1,0,-2
1509429683074961,-2,-1,1,0,-2,0,-1,1
1509429683088972,0,1,-2,-1,-1,-2,-1,-1
1509429683088972,1,1,0,0,-1,-4,-2,-1
1509429683088972,-2,-2,-2,0,2,-1,-2,0
1509429683088972,-1,-2,0,-1,-1,-2,0,-1
1509429683110988,1,-3,-1,-2,0,-1,-1,-1
1509429683110988,0,0,-2,-3,-2,0,1,1
1509429683118007,-1,-1,0,1,-2,0,-3,-1
1509429683118007,-4,-2,0,0,-2,-1,-1,0
1509429683134004,-1,-2,-1,1,-1,0,0,-1
1509429683134004,-2,0,-3,-3,-1,0,-3,0
1509429683141009,-1,-3,-1,-1,-1,-2,0,-1
1509429683141009,-2,-1,0,-1,-2,-1,-1,-1
1509429683148028,0,-1,0,-2,-1,-1,-1,-1
1509429683148028,0,-1,-2,-2,-1,1,-1,0
1509429683156020,-2,1,-2,-3,-3,-2,1,-3
1509429683156020,-2,-1,1,-1,-1,-3,0,-1
1509429683171030,-1,1,-1,-1,-1,-2,-1,0
1509429683171030,-1,-1,-3,-1,-1,-1,0,-3
1509429683172041,0,0,-1,0,-2,-1,-2,-1
1509429683172041,0,-1,0,-2,2,0,0,-1
1509429683201050,-1,0,1,-3,0,-3,-1,1
1509429683201050,-1,-1,-1,0,0,-1,-1,-1
1509429683210057,0,-1,-1,-3,-2,0,1,0
1509429683210057,-1,-2,0,1,-2,0,0,-2
1509429683211060,-1,-2,-2,0,0,-1,0,-4
1509429683211060,-2,-2,-2,-1,0,-2,-1,-2
1509429683216079,0,0,0,-1,-1,-1,-1,-2
1509429683216079,-2,-1,0,-2,1,0,0,0
1509429683231091,-1,-2,-1,0,-3,0,-1,-1
1509429683231091,0,0,-1,0,-2,0,-2,-2
1509429683232077,-1,-1,-1,-2,-2,-1,2,-2
1509429683232077,0,-1,-1,0,-2,-1,-3,-1
1509429683254089,-1,-1,-1,0,-2,0,0,-1
1509429683254089,-2,-1,-2,0,1,0,-1,-1
1509429683255090,-1,-1,-1,-2,-1,-1,-3,0
1509429683255090,-1,-1,0,-2,-1,-1,1,-3
1509429683268098,-2,1,-2,0,-1,-2,0,-2
1509429683268098,-1,-1,-3,-1,-2,-2,-3,-3
1509429683276106,-1,-3,0,-2,-2,-1,-1,-1
1509429683276106,-1,0,0,-2,-2,-1,0,-1
1509429683291133,-1,-2,-1,1,0,-1,-2,0
1509429683291133,0,0,-2,-2,-1,0,0,0
1509429683291133,-2,0,0,-2,0,0,-1,-1
1509429683291133,1,0,-2,0,-1,-2,-2,1
1509429683314135,0,-2,1,-4,1,-1,-2,-1
1509429683314135,-1,0,-2,0,-1,-1,1,-2
1509429683315135,-2,-3,-1,0,0,-1,-1,-3
1509429683315135,-1,0,-1,-1,0,0,-2,0
1509429683328142,-1,-1,-3,0,-1,0,1,0
1509429683328142,-2,-1,-1,-2,-3,0,0,0
1509429683336148,-1,1,-2,0,-1,-2,-1,-1
1509429683336148,-1,-1,0,0,-2,-1,-2,-2
1509429683351174,-2,-1,-2,1,-1,-2,-2,0
1509429683351174,-1,-2,0,-4,0,-3,1,0
1509429683352175,-1,0,-2,-1,-1,0,1,0
1509429683352175,-1,-2,0,-1,-1,-2,0,-2
1509429683374174,-2,0,-2,-3,-2,0,0,1
1509429683374174,-2,0,-1,-1,0,-1,-1,-2
1509429683375176,0,0,-1,-2,0,-2,-2,-2
1509429683375176,-1,0,1,0,0,-1,0,0
1509429683396205,1,1,-1,-2,-2,-1,0,-2
1509429683396205,0,-2,-2,-1,-2,1,-2,-2
1509429683397189,-1,-1,-2,0,0,-1,0,-1
1509429683397189,-3,-1,0,0,-2,-2,-3,1
1509429683411209,-1,-2,-2,0,-1,-1,-2,-2
1509429683411209,0,1,-3,-1,-2,-1,-2,-2
1509429683411209,1,0,-3,-1,0,-1,-2,-1
1509429683411209,0,-2,-2,0,-1,-1,0,-1
1509429683434217,-2,-3,-1,-2,-1,-2,-1,-1
1509429683434217,-2,-2,-1,0,-1,-1,-1,-2
1509429683435226,-1,-2,-1,-1,-1,0,-1,-1
1509429683435226,-1,-1,1,-2,-1,-1,-2,0
1509429683447252,-1,-2,-1,0,0,0,-2,-1
1509429683447252,0,0,-1,-1,-2,0,-2,-1
1509429683456241,0,-1,-2,-1,-1,-1,-2,0
1509429683456241,-1,-1,-1,-1,-1,-2,-1,-2
1509429683479275,0,-1,-1,-2,-1,-2,-1,-2
1509429683479275,-2,-1,-1,-3,0,-2,-1,-1
1509429683480260,0,-1,1,-1,-2,-2,-1,-1
1509429683480260,0,-2,-2,-1,2,1,0,0
1509429683494265,-3,-1,-1,-2,-2,1,1,-1
1509429683494265,0,-2,-2,0,-1,-2,0,-1
1509429683495259,0,-1,-2,-1,-1,-2,0,-1
1509429683495259,-2,0,-1,-1,-2,-1,-2,0
1509429683516295,-1,-2,-1,0,-1,0,0,-2
1509429683516295,-1,-2,-2,-1,-1,-1,0,1
1509429683517275,-4,0,-2,-3,-1,-1,0,-2
1509429683517275,-2,-3,0,-2,-1,-1,-1,-2
1509429683531284,1,-1,-3,0,-1,-1,-2,0
1509429683531284,0,0,-2,-2,-2,-2,-1,0
1509429683531284,-1,0,1,1,-3,-1,-2,0
1509429683531284,-2,1,-1,-1,-1,-1,-1,-2
1509429683554302,-2,0,0,-1,-1,-3,-3,-2
1509429683554302,-1,-2,-2,-1,-1,-1,-1,-2
1509429683555301,0,-1,-3,-2,-2,-1,0,2
1509429683555301,0,-4,1,-1,-1,-2,0,1
1509429683576317,0,-1,-1,-1,-2,0,-1,0
1509429683576317,-1,1,-3,0,0,-1,-2,-1
1509429683577318,-2,-2,0,-1,-1,0,1,-2
1509429683577318,0,-2,0,-1,-2,-1,0,-1
1509429683591326,-1,0,-2,-2,-2,-1,-1,0
1509429683591326,-1,-1,-1,-2,-1,0,-1,1
1509429683591326,-3,-1,0,-1,-1,-1,-1,0
1509429683591326,-1,0,0,1,-1,1,-1,-3
1509429683614356,-1,0,-1,-2,0,0,-3,-2
1509429683614356,0,0,0,-1,-2,-1,0,-3
1509429683614356,-2,-1,0,0,-1,-1,-1,-1
1509429683614356,-1,-1,-1,-1,-1,-3,-1,0
1509429683636380,0,-2,-1,-1,0,-2,-1,-1
1509429683636380,-1,-1,-3,-3,-1,-2,0,-1
1509429683637360,0,-1,-1,-2,0,0,-1,-2
1509429683637360,-3,0,1,0,-2,-1,0,-1
1509429683651371,0,1,-2,0,-1,-1,0,0
1509429683651371,-1,-1,-2,-2,-1,-2,-2,1
1509429683652372,-1,-1,-1,-2,-1,0,-2,-1
1509429683652372,-1,0,-1,-2,0,-2,-1,-1
1509429683674389,-1,1,-1,0,-2,-2,-2,-3
1509429683674389,-1,0,-2,-2,-1,-1,0,-2
1509429683674389,-1,-3,-2,-1,-2,-2,-2,0
1509429683674389,-2,-1,0,-2,-2,-2,-2,-1
1509429683696415,0,-2,-2,-2,1,0,-2,-2
1509429683696415,-2,0,-3,-1,-2,0,-2,-2
1509429683697403,-1,0,-2,-1,-2,-2,0,-2
1509429683697403,-1,-1,1,1,-1,-2,-1,-1
1509429683710412,-2,-1,0,-2,-2,-3,-1,1
1509429683710412,-1,1,-1,0,-1,-1,-1,0
1509429683719419,-3,-1,0,-1,-1,0,-1,-1
1509429683719419,0,-2,-2,-1,-2,-2,0,-2
1509429683734427,1,-2,-1,-1,0,-1,0,-2
1509429683734427,0,-2,-2,-2,0,1,1,-1
1509429683735430,-1,1,-1,-2,-1,-2,-1,0
1509429683735430,-1,0,0,0,0,-2,-1,1
1509429683764449,-2,-1,-1,1,-1,-2,0,-1
1509429683764449,-1,-3,-3,0,-1,0,0,-2
1509429683765451,0,-1,-1,-1,-2,-2,0,-1
1509429683765451,0,0,-1,-2,1,0,-2,0
1509429683770454,-1,-1,-2,-1,0,-1,-1,0
1509429683770454,-1,0,-2,-1,0,0,-1,-2
1509429683779460,-2,-2,-1,-1,-2,-2,1,-1
1509429683779460,-1,-2,-2,-2,-2,-1,-1,-2
1509429683794470,0,-2,-1,1,-2,-2,0,-1
1509429683794470,-1,-1,-1,-1,-1,-3,0,-1
1509429683795472,0,0,0,0,-2,0,-1,-2
1509429683795472,-2,-1,0,-2,-2,-1,-2,0
1509429683816487,-1,1,-1,-1,0,0,-2,-2
1509429683816487,-1,0,-2,-1,0,0,-2,-1
1509429683818489,-2,-2,-1,0,-2,-2,-1,-1
1509429683818489,1,-2,0,-1,0,0,-1,-2
1509429683830496,-2,-2,-1,-1,-1,-1,0,0
1509429683830496,-1,-1,-1,0,-3,0,0,-1
1509429683837502,-1,0,-1,-3,1,-1,-1,-2
1509429683837502,-3,0,0,0,-1,-2,0,-1
1509429683853529,-1,-3,-2,-1,0,-1,0,0
1509429683853529,-2,0,-2,-2,0,-1,-1,0
1509429683855521,-2,-2,-1,-1,-1,1,-2,-1
1509429683855521,-2,-1,0,0,-1,-2,-1,0
1509429683876530,-1,-1,0,-1,-1,0,0,-2
1509429683876530,0,-1,0,0,-1,0,-2,-2
1509429683878531,1,-1,-1,-1,-2,0,1,-1
1509429683878531,-2,0,1,0,1,-1,-1,0
1509429683890539,-1,-1,-2,0,-3,-2,-1,-1
1509429683890539,-2,-1,-2,-3,-1,-2,0,0
1509429683899549,-2,0,-2,-1,-1,-2,-2,-2
1509429683899549,0,-2,-1,1,-1,-1,-2,0
1509429683913556,-1,-2,-1,-2,-4,-1,0,2
1509429683913556,-3,-1,-1,-1,4,-1,-1,0
1509429683915557,-1,-1,-2,-2,-2,-3,-1,-2
1509429683915557,0,-1,-1,-1,-2,0,-2,-4
1509429683936575,0,0,1,1,0,-1,0,-3
1509429683936575,-1,0,-2,-2,-3,-3,-1,0
1509429683938572,-2,-2,-1,0,-1,-1,-2,0
1509429683938572,0,-3,-2,-2,0,-1,-3,-1
1509429683951582,0,-1,-1,-3,-1,-1,-2,-2
1509429683951582,1,-1,-2,-1,-1,1,0,-2
1509429683957587,-4,-2,-1,1,1,-2,-1,-1
1509429683957587,-1,-2,1,-1,-1,0,-1,1
1509429683973598,-3,0,0,-2,-1,-1,-2,-1
1509429683973598,-1,-2,-1,-1,-3,-2,-2,0
1509429683975608,-2,-1,-1,-1,0,-1,-1,-1
1509429683975608,1,-2,0,-2,-4,-2,-2,-1
1509429683996617,-2,-1,-3,-1,0,0,-1,1
1509429683996617,-1,1,-2,-1,-2,0,-2,0
1509429684002633,1,-2,-1,1,-1,-1,-1,0
1509429684002633,-3,-1,0,0,-1,-3,2,-1
1509429684010624,-1,1,-3,0,-1,0,-1,-1
1509429684010624,-1,0,-2,-2,-2,-1,-1,-1
1509429684019631,1,0,1,-2,-1,0,-1,0
1509429684019631,-1,-1,0,0,-1,0,0,0
1509429684033641,-2,-1,-2,-2,1,-2,-2,-1
1509429684033641,0,-1,-2,-1,-2,-1,1,-3
1509429684035642,0,0,-1,0,-1,0,0,-1
1509429684035642,-2,-1,0,1,-1,-1,0,2
1509429684056657,-1,-2,-2,0,-1,0,-1,-1
1509429684056657,-1,-1,-2,-1,0,1,-1,-2
1509429684058657,-1,-2,-1,-2,-2,-1,-1,0
1509429684058657,1,-1,-2,-1,0,-2,-3,-2
1509429684070665,1,-2,-1,-1,0,-1,-2,1
1509429684070665,0,-1,-4,-2,-3,-3,-3,-1
1509429684079672,-2,0,-2,-2,-1,-1,-1,-1
1509429684079672,-2,0,1,1,0,-1,-1,-2
1509429684093699,0,-3,-1,-1,-1,0,-1,-2
1509429684093699,-1,-1,-1,-3,-1,-1,-1,-1
1509429684095684,-1,-2,0,-1,-3,1,-1,-1
1509429684095684,-2,-2,-1,-1,-1,-1,-1,1
1509429684116702,0,2,-2,-1,-3,0,0,-1
1509429684116702,-1,-1,-1,-1,-2,-1,0,-1
1509429684117716,-1,-1,-1,0,0,-2,-1,-1
1509429684117716,0,-1,-2,-1,0,-3,-1,0
1509429684130708,-2,-4,-2,0,0,-1,0,-1
1509429684130708,-1,-1,-2,-1,0,-1,-1,-1
1509429684138715,-2,0,-1,-1,-2,-2,-1,-1
1509429684138715,-1,-2,-1,-2,-1,-2,-1,-2
1509429684153729,-1,-2,-2,-2,1,-1,-1,-2
1509429684153729,-1,-1,-1,-2,-3,-1,0,-2
