timestamp,emg1,emg2,emg3,emg4,emg5,emg6,emg7,emg8
1513226574653234,-2,0,0,-3,-1,-1,0,0
1513226574653234,0,-2,-1,-1,0,-1,-1,-1
1513226574670241,0,-1,-3,-1,-3,-1,-2,-2
1513226574670241,-1,-2,-2,-2,0,0,-1,-1
1513226574671245,-2,1,0,0,-1,-2,0,-1
1513226574671245,2,-1,2,-1,-2,0,0,0
1513226574692259,-2,0,0,1,0,0,0,-1
1513226574692259,0,-1,-1,-1,-3,-2,0,-1
1513226574694258,1,-1,-1,-1,-1,0,0,1
1513226574694258,-3,-1,-1,-1,-2,0,-2,-1
1513226574707269,-2,-2,-2,0,1,-1,0,-2
1513226574707269,-3,-3,-1,-2,0,-2,-1,-1
1513226574713271,-3,0,-1,-2,-1,-2,-1,-3
1513226574713271,1,-1,-1,1,1,-1,-1,-1
1513226574730283,-1,1,0,0,-1,1,-1,1
1513226574730283,-1,1,-2,-2,0,1,1,-2
1513226574731285,-2,-2,-2,-1,-1,-3,-2,-2
1513226574731285,0,-2,-3,0,-1,-1,1,-1
1513226574752300,-1,-2,-2,0,-3,-2,-2,-1
1513226574752300,-3,-1,0,-2,-1,1,-1,1
1513226574754301,1,-1,-3,-1,-3,-1,-1,-2
1513226574754301,-2,0,-2,-1,1,-2,0,-1
1513226574766309,-1,-4,3,-3,-1,-3,-1,-1
1513226574766309,-1,-3,-1,-1,-3,1,-2,-2
1513226574775315,-3,0,-2,-1,-1,0,-1,-2
1513226574775315,0,-2,-3,0,-2,0,0,0
1513226574790340,-4,2,-1,-1,-1,0,-2,-2
1513226574790340,2,1,-3,-3,0,-2,-3,1
1513226574791329,0,-3,-2,-2,-2,-2,-1,-1
1513226574791329,-3,-1,-1,-2,-2,-1,-1,0
1513226574812366,0,0,-3,-2,-1,0,-2,0
1513226574812366,-2,-1,-1,1,0,-3,-1,-1
1513226574814356,0,0,-1,0,-3,0,-1,-2
1513226574814356,2,-1,0,0,-2,1,-2,-1
1513226574826363,-4,-1,0,0,0,1,0,0
1513226574826363,3,-1,-2,-1,-1,-2,0,3
1513226574841380,-3,-1,-1,-2,1,1,-1,-3
1513226574841380,-2,-2,-1,-1,-2,-1,-2,-1
1513226574850382,0,1,0,0,-1,-1,-1,1
1513226574850382,-2,1,-5,-1,-1,-2,-3,-4
1513226574851370,-2,0,-2,-2,0,0,0,-3
1513226574851370,-2,-3,-1,-3,-1,-1,-2,0
1513226574872410,0,-3,-1,-1,-2,-1,-1,-1
1513226574872410,-3,-2,0,-1,-1,1,-1,-1
1513226574874386,-1,-2,-1,-3,-1,-2,0,1
1513226574874386,-5,2,0,0,1,0,-1,-3
1513226574886416,1,-1,-2,-1,0,-1,0,0
1513226574886416,-2,-2,0,-1,-2,0,-2,-1
1513226574895404,-2,-2,-1,0,0,-1,-2,-2
1513226574895404,1,-1,-3,0,0,-1,0,0
1513226574910416,-3,2,1,1,-1,-1,-2,0
1513226574910416,3,-1,0,-2,0,-1,1,3
1513226574911416,-3,0,0,0,-3,-3,-3,-2
1513226574911416,-1,1,-2,-3,-2,-1,1,-1
1513226574932441,-1,-1,-2,-1,0,0,-2,-1
1513226574932441,-1,-1,-1,-3,-2,0,-3,-2
1513226574934442,2,-2,-2,-1,-2,-2,-2,-1
1513226574934442,1,-2,-1,0,0,-1,0,0
1513226574946451,-3,-4,-4,-1,-1,-1,-2,-2
1513226574946451,-3,-1,-3,-1,-2,-3,0,-3
1513226574955498,0,0,-1,-1,0,0,1,-1
1513226574955498,-3,-2,-2,-1,0,-2,0,-2
1513226574969506,1,1,-1,2,1,1,1,-1
1513226574969506,-3,-2,-2,0,-2,-1,-2,0
1513226574970507,-2,-2,-2,-3,0,1,-2,1
1513226574970507,-4,-2,-1,0,-2,1,-2,0
1513226574991523,5,-1,-2,-1,-3,-1,-1,1
1513226574991523,-2,-1,0,1,-1,-1,-1,-1
1513226574999561,-2,-1,-1,-2,-3,-1,-2,-2
1513226574999561,1,-1,1,-2,3,-1,-2,-1
1513226575014552,-4,-4,0,-1,1,-1,-1,-2
1513226575014552,1,-1,1,-1,-1,0,0,-3
1513226575014552,1,0,0,-1,-1,-1,-1,0
1513226575014552,0,0,-2,0,-2,-1,-2,-1
1513226575029559,-2,1,-1,-2,-2,-1,-2,0
1513226575029559,-1,-1,-3,-1,-1,-1,0,-2
1513226575029559,-3,-3,-1,1,-1,-2,-1,-2
1513226575029559,-3,1,-3,-2,-3,-3,-2,-4
1513226575051567,4,-1,3,1,-2,-1,0,1
1513226575051567,-2,0,0,0,0,1,-2,-1
1513226575052564,-1,-1,0,-1,-2,-1,-1,-2
1513226575052564,-1,-1,0,-2,0,3,-3,1
1513226575074592,-1,-3,-1,0,1,-2,0,-1
1513226575074592,-1,-2,-1,1,-4,0,-2,-1
1513226575074592,1,-2,-2,0,2,-1,-1,-2
1513226575074592,1,-1,-1,-1,0,-2,1,-1
1513226575089591,-2,-1,-2,-1,-3,1,-1,-1
1513226575089591,-1,-1,1,-2,0,-3,0,0
1513226575089591,-3,0,-3,-3,0,-2,-1,1
1513226575089591,-3,-2,-2,1,0,0,-1,-1
1513226575111672,0,0,-4,-2,-2,-3,-3,-3
1513226575111672,-1,1,0,-2,-1,0,-1,-1
1513226575112650,-4,-3,-1,-1,-4,0,-1,-2
1513226575112650,0,-1,-2,-2,-1,-2,-1,1
1513226575134664,-2,0,-1,0,1,0,0,-3
1513226575134664,-1,-1,-3,-2,-2,-2,-4,-2
1513226575134664,0,-2,4,-1,1,-1,0,0
1513226575134664,1,-1,-1,-1,1,0,0,-1
1513226575149709,-2,-1,-2,0,-1,-3,-3,-1
1513226575149709,0,-1,-2,0,-2,-2,-1,-2
1513226575149709,1,1,-1,0,0,-2,-2,1
1513226575149709,-4,-3,1,0,-2,-1,0,-3
1513226575171781,6,1,-1,-1,1,0,2,4
1513226575171781,0,-1,0,-1,0,-1,2,-2
1513226575172782,-3,-3,-2,-2,2,-1,0,-4
1513226575172782,2,2,1,0,-2,0,-1,1
1513226575193818,-6,-2,-1,0,0,1,-2,-2
1513226575193818,-6,-5,-2,-3,-2,-3,-2,-2
1513226575194797,-1,0,-3,-2,0,-2,-1,-2
1513226575194797,2,-3,-1,-2,0,0,-1,-1
1513226575208809,0,0,-2,-3,0,-2,1,-1
1513226575208809,-4,1,2,-2,-1,0,-2,-1
1513226575209808,1,0,-1,0,-2,-1,-3,-2
1513226575209808,-2,0,-2,0,0,0,-1,1
1513226575231823,-1,1,-1,-3,-1,-1,1,-1
1513226575231823,-1,-3,0,1,1,0,-1,0
1513226575232823,-5,-2,-1,-2,0,0,-2,-3
1513226575232823,1,0,-1,1,0,-1,0,-4
1513226575253850,0,-2,1,-1,0,-2,-3,1
1513226575253850,-1,0,-4,-3,-1,-4,-2,1
1513226575254840,-2,-1,-2,-2,-1,-1,-3,-1
1513226575254840,-2,-2,-1,-1,-2,-2,-2,0
1513226575268850,-3,0,-2,1,-1,-1,-1,-2
1513226575268850,-2,-1,-2,-2,-3,0,0,-3
1513226575269851,-1,-1,0,-1,-1,0,1,-1
1513226575269851,2,-1,-1,-2,0,-2,1,3
1513226575291865,-3,-2,0,-2,0,-2,-1,0
1513226575291865,1,-2,-2,-1,0,-2,-1,1
1513226575292879,-3,0,-1,-1,-2,-2,-3,-1
1513226575292879,-2,-4,-2,1,0,-3,0,-2
1513226575322888,0,0,-1,-1,-3,0,-1,-2
1513226575322888,1,2,0,-2,-1,-2,1,-1
1513226575322888,2,2,-3,-1,-2,-1,1,0
1513226575322888,2,1,-2,-1,-1,0,-2,-2
1513226575328891,-1,-1,-1,0,-1,-1,-2,0
1513226575328891,-1,-3,-1,-1,-1,-4,-1,-2
1513226575329892,0,-2,-1,-2,-2,-1,0,0
1513226575329892,-2,-1,0,1,1,-1,-1,-2
1513226575351972,-2,-1,-1,0,-2,-2,0,-2
1513226575351972,-2,-2,-1,-1,-2,2,-2,-2
1513226575352910,2,-1,-1,1,0,1,-1,-2
1513226575352910,0,0,-1,0,-2,0,2,-1
1513226575373922,-2,1,-1,0,-1,0,-1,0
1513226575373922,-1,-1,-1,-1,-2,-1,1,-2
1513226575374923,-1,0,-1,-3,0,-4,-2,-2
1513226575374923,-2,-3,0,-2,1,1,-3,-2
1513226575388948,-1,0,-1,0,0,-1,-2,0
1513226575388948,-2,-2,2,-1,-2,-2,-1,0
1513226575389934,-2,-1,4,1,0,0,1,-1
1513226575389934,-2,-1,-1,-1,-4,-3,-1,0
1513226575412030,1,-1,0,-1,1,-2,-2,1
1513226575412030,-1,-1,-2,-1,0,2,-1,-1
1513226575413008,-1,-1,-3,-1,0,-1,-1,-2
1513226575413008,1,0,-1,-2,-2,-1,0,1
1513226575434023,-2,-3,-1,-1,-2,0,0,-2
1513226575434023,0,-2,-2,-3,0,0,-2,0
1513226575435023,0,-2,-2,-2,-2,0,-2,-2
1513226575435023,-1,-3,-3,0,-1,-2,0,-1
1513226575449071,-3,-2,-1,1,0,0,-2,-1
1513226575449071,4,1,-1,-1,-2,-3,0,2
1513226575450047,-1,-1,0,-1,-3,0,-1,-1
1513226575450047,-3,2,-1,0,0,2,-2,-1
1513226575473071,1,0,2,0,-1,0,0,0
1513226575473071,-3,-1,-1,-3,0,-2,-1,-3
1513226575479076,0,-1,-1,-1,-2,1,-1,0
1513226575479076,-1,-2,-1,-1,1,-2,0,0
1513226575494066,-1,-3,-2,-2,0,1,-3,0
1513226575494066,-3,0,-2,-1,-1,1,-1,0
1513226575495066,-2,-1,-3,-3,-2,-2,-1,-1
1513226575495066,0,0,-2,-2,0,-1,0,-2
1513226575509077,1,-2,-2,0,-1,-1,0,-1
1513226575509077,-1,0,-1,0,-1,-3,-3,-3
1513226575510076,-2,-2,-2,-2,-2,-2,-1,-1
1513226575510076,-2,-2,-1,0,-1,0,-2,2
1513226575540108,0,1,-1,-2,0,-2,-1,0
1513226575540108,3,-1,-1,-2,-2,1,1,2
1513226575541099,-1,-1,-1,-2,0,-1,-1,1
1513226575541099,-2,-1,0,-2,-1,0,-4,0
1513226575555119,0,1,-3,-1,-1,-2,0,-2
1513226575555119,-1,-2,-5,-2,-3,-2,-2,-3
1513226575555119,-1,-2,-1,-1,-1,0,-1,-1
1513226575555119,1,-3,-1,-1,0,-1,2,-1
1513226575569127,0,-1,-1,-2,-2,-1,-3,-3
1513226575569127,-2,-1,-1,-3,-1,1,-4,-2
1513226575570128,-2,-1,-1,-2,-1,-3,1,-2
1513226575570128,-2,-3,-1,-1,-1,-1,0,-2
1513226575592145,-4,-1,-1,-1,-1,-3,-1,0
1513226575592145,1,-2,0,0,-3,0,-1,-4
1513226575592145,-2,-2,-1,-2,0,1,-2,-1
1513226575592145,-5,-1,1,0,-1,-1,-1,-3
1513226575615160,1,-1,-1,-1,1,1,0,0
1513226575615160,-2,0,0,-1,-4,-3,-3,-3
1513226575616161,-1,-2,-2,-1,-1,-2,-2,-3
1513226575616161,2,1,-1,0,-1,-2,-1,-1
1513226575628159,-2,-2,-1,-3,-2,-1,0,0
1513226575628159,-3,-1,-4,-2,-1,-2,1,0
1513226575637175,-1,-2,-2,-2,-3,0,-1,-1
1513226575637175,-1,-2,-3,-1,2,0,-2,0
1513226575652185,0,-3,0,0,-1,-2,-2,0
1513226575652185,-3,-2,0,-1,-3,-1,1,-2
1513226575652185,-2,-1,-1,-1,-1,0,1,-2
1513226575652185,-2,0,0,0,-1,-2,-1,-1
1513226575675192,-2,-1,-2,0,1,0,-2,0
1513226575675192,1,-2,-1,-1,0,-2,-1,-1
1513226575676193,-2,-3,-1,-2,0,-2,-2,-1
1513226575676193,-1,1,0,-1,0,0,-1,-3
1513226575689212,0,-2,-2,0,-1,1,-2,-1
1513226575689212,-2,-1,-1,-2,-3,0,-1,-1
1513226575690203,0,0,-2,-2,1,-2,-1,0
1513226575690203,1,-1,-4,-2,0,-1,0,0
1513226575711241,0,0,2,1,0,1,1,-3
1513226575711241,-1,0,1,-2,-1,-1,-2,1
1513226575712229,2,-1,-1,-1,0,-1,-1,-1
1513226575712229,-1,0,1,-1,-2,0,0,1
1513226575735253,-1,-1,-2,-2,-3,-2,0,0
1513226575735253,-3,0,-2,1,1,-3,2,-1
1513226575735253,0,-1,-1,0,2,-1,-1,-1
1513226575735253,0,-3,1,0,-1,0,1,1
1513226575757271,-2,-2,-1,-2,-2,-1,0,0
1513226575757271,-2,-3,0,0,-2,1,-1,-4
1513226575758252,4,0,-1,-2,-2,-2,1,2
1513226575758252,0,-1,3,-1,0,0,-1,1
1513226575772287,-2,0,-1,-1,-1,-1,0,0
1513226575772287,-3,0,-3,-4,0,-1,0,-1
1513226575772287,-2,-1,-2,-2,-3,-1,-1,-2
1513226575772287,-1,-2,-2,1,1,-1,-1,-1
1513226575794301,0,-1,0,0,1,-2,-1,-1
1513226575794301,1,-1,0,-1,-2,-4,-3,-2
1513226575795278,-2,-1,-1,-1,-5,-2,-1,-1
1513226575795278,1,-1,-1,-2,0,-4,-3,0
1513226575808289,-2,-2,0,-2,-2,0,1,-3
1513226575808289,-2,0,0,-4,-1,1,0,0
1513226575816292,-1,-1,-2,-1,1,-1,0,-1
1513226575816292,-1,0,-1,-1,1,-3,-2,-2
1513226575831330,0,1,0,-1,-2,-1,0,-1
1513226575831330,-2,-3,-1,-2,-2,-1,0,-1
1513226575832304,2,-2,2,-2,-1,-1,1,1
1513226575832304,-3,-1,-3,-1,-2,0,-1,0
1513226575855373,-1,-1,1,0,0,-1,-1,-2
1513226575855373,-1,1,-3,-1,-1,-1,1,0
1513226575855373,-5,-3,0,-2,1,-2,-2,-1
1513226575855373,-1,0,-2,2,-1,-1,0,0
1513226575877387,0,0,-2,-2,-1,1,0,1
1513226575877387,-1,-1,-3,-2,-1,-2,0,-2
1513226575878388,-3,-2,-1,0,0,-1,-2,-3
1513226575878388,0,0,-1,-1,-3,0,-2,0
1513226575900422,-3,-2,-2,-1,0,-1,0,1
1513226575900422,0,-2,-3,-2,-1,-1,0,-1
1513226575900422,-3,-1,-2,-1,-1,1,0,-2
1513226575900422,-1,-1,-1,-1,0,-1,-1,0
1513226575914442,-3,-1,-1,0,-3,-1,0,1
1513226575914442,2,-4,-1,-2,0,-1,-3,-1
1513226575916415,-2,0,-1,-1,0,0,-1,-2
1513226575916415,1,-2,-3,-1,-1,-1,-1,-1
1513226575928445,-1,1,-1,-1,0,-2,-2,-1
1513226575928445,-3,-2,0,-1,0,-3,-2,-3
1513226575936450,0,-2,-3,-1,-2,0,-3,0
1513226575936450,-1,-2,-1,-2,1,-1,0,-1
1513226575951502,-1,-1,-1,-1,-1,-1,0,0
1513226575951502,-1,1,0,-1,-3,0,0,-1
1513226575952460,0,0,1,-1,-2,-2,-2,0
1513226575952460,-1,-2,-1,0,-2,0,-1,-1
1513226575975525,0,-1,-2,0,1,0,-1,0
1513226575975525,0,-1,1,-1,-2,-1,-1,-1
1513226575976509,-1,-2,-1,-2,0,-3,-1,-2
1513226575976509,-1,0,-1,0,0,1,0,-3
1513226575989517,-1,-1,-1,-3,-1,-1,-1,-1
1513226575989517,-3,-1,1,-1,-1,0,1,0
1513226575996545,-4,0,-2,-1,-2,-1,-1,-1
1513226575996545,1,-1,-2,0,1,-1,-1,-3
1513226576011557,1,0,-1,0,-4,0,-1,1
1513226576011557,-1,-1,-1,-1,-1,0,1,-2
1513226576012544,2,0,-1,-2,-1,-2,-1,-1
1513226576012544,-6,-1,0,0,1,0,-4,-1
1513226576034604,0,-2,1,-2,0,-2,-1,-2
1513226576034604,0,-1,-2,0,0,-5,0,0
1513226576035551,-4,2,2,-1,-3,-2,0,-2
1513226576035551,-1,1,-2,-2,0,0,-1,0
1513226576048584,0,0,-3,-1,-2,-1,-2,-1
1513226576048584,-1,0,0,-3,-3,-2,1,0
1513226576056567,0,-3,1,1,1,0,-1,-4
1513226576056567,-1,0,-1,0,-1,-3,-1,0
1513226576071598,0,-2,0,1,-3,0,0,-2
1513226576071598,0,-2,-3,-1,0,0,-1,-4
1513226576072580,1,-1,-4,-2,-2,0,-1,-1
1513226576072580,-1,0,1,-2,-2,1,0,-2
1513226576095613,-3,-1,-1,-2,-1,0,0,-1
1513226576095613,-2,1,-1,-1,-1,1,-1,-1
1513226576096594,-3,0,-2,-3,-2,2,1,-2
1513226576096594,0,-2,0,0,0,-3,0,3
1513226576108615,0,-3,0,-2,0,-3,-1,-3
1513226576108615,-2,-2,1,-2,-2,0,-2,-1
1513226576116619,0,-1,-2,-1,2,0,-2,1
1513226576116619,0,0,0,0,0,0,0,-1
1513226576131642,-1,1,0,-1,-1,0,-2,0
1513226576131642,0,-1,0,-2,0,-1,-2,-2
1513226576132624,-3,0,-1,-1,0,-2,-2,-1
1513226576132624,1,0,-1,-1,-2,-3,-1,1
1513226576155638,-2,-2,-1,0,0,-3,0,-2
1513226576155638,1,-3,-1,-2,-1,1,-2,-1
1513226576155638,-1,-1,-1,-2,0,-1,-1,0
1513226576155638,0,-2,-1,0,-2,0,-1,-3
1513226576177677,0,-2,-1,-1,-2,-1,-1,0
1513226576177677,-4,-1,-1,-3,-1,-1,-1,-2
1513226576178656,0,-2,-1,-2,-3,0,-2,-2
1513226576178656,-2,0,-1,-2,-1,0,-1,1
1513226576191686,-2,-1,0,0,-2,-2,-1,-2
1513226576191686,-1,1,-1,0,-2,-1,1,0
1513226576192662,-2,-3,1,1,-1,-2,-1,-1
1513226576192662,-1,-3,-1,2,0,1,-1,-1
1513226576214701,0,-2,-1,-1,0,-2,-1,0
1513226576214701,-2,0,-2,-3,0,-2,1,-1
1513226576216689,-1,0,-1,1,-1,-1,1,0
1513226576216689,0,0,-1,0,-2,-2,0,0
1513226576237703,-1,0,0,-1,1,1,-1,1
1513226576237703,-1,-5,-2,0,-1,-3,-1,-4
1513226576237703,1,-2,-1,-1,1,0,0,-1
1513226576237703,-3,-1,1,0,0,0,-2,0
1513226576251734,-3,0,-1,-1,0,0,-1,-3
1513226576251734,2,0,-1,-2,-1,-2,1,5
1513226576252715,-1,-2,-3,-1,-2,0,0,-2
1513226576252715,-1,-1,0,0,-2,-2,-2,-2
1513226576274720,-1,-1,-1,-1,-3,0,-3,-2
1513226576274720,-3,0,-3,-1,-1,0,0,-3
1513226576275720,0,0,-2,0,0,-1,-2,0
1513226576275720,-1,-1,-1,-2,0,0,0,-1
1513226576297756,1,-1,-1,-4,-1,-2,1,0
1513226576297756,0,0,1,0,0,0,-1,-1
1513226576297756,-1,-2,-3,-2,-3,1,-1,-1
1513226576297756,-1,-3,-1,-2,1,-3,1,-1
1513226576311769,-1,-1,-2,0,-4,-1,-2,-1
1513226576311769,-2,-3,0,-2,-2,-1,-2,-2
1513226576312762,-3,-2,0,0,-1,2,-2,-4
1513226576312762,1,0,-1,0,-1,0,-1,1
1513226576334766,0,-2,0,1,-1,0,-2,-1
1513226576334766,1,0,-2,-2,0,-2,-1,0
1513226576335767,-1,-1,1,0,-1,0,0,0
1513226576335767,-2,1,-1,-1,1,-1,-1,-2
1513226576357788,4,0,-1,-1,-1,-2,0,4
1513226576357788,-2,-2,1,0,-1,-2,-2,-3
1513226576357788,1,0,-2,-1,-2,-2,-1,-3
1513226576357788,0,-2,0,-1,-2,-2,0,-1
1513226576371798,-1,1,-2,0,0,-2,-2,-3
1513226576371798,-1,-2,-1,-1,-2,-1,-2,-2
1513226576372803,-2,1,1,0,1,-3,0,0
1513226576372803,1,0,0,1,-2,2,-2,-2
1513226576394827,0,-1,-2,0,-1,-1,-2,0
1513226576394827,-2,-1,-1,-1,-3,-2,-1,-3
1513226576395811,-2,-2,-1,-1,-1,-1,-1,1
1513226576395811,-1,-2,-1,-1,-3,-2,-1,0
1513226576417836,-1,-2,0,-3,-2,0,1,-1
1513226576417836,-3,-1,-3,0,-1,-2,-1,-2
1513226576417836,-1,-2,-1,-2,0,0,-1,0
1513226576417836,-1,-2,-1,0,-1,-1,-1,-1
1513226576431831,-2,0,-1,-2,-1,-1,-1,0
1513226576431831,-3,-2,0,-1,-3,1,-1,-1
1513226576432832,-3,0,0,-2,2,-1,-2,-3
1513226576432832,0,-3,0,-3,1,0,-2,-2
1513226576454848,0,-2,-2,0,0,-1,0,-1
1513226576454848,0,-1,1,-2,-1,-2,0,0
1513226576455848,-2,-2,-1,0,-3,0,-1,0
1513226576455848,-3,1,-1,0,-1,-3,-3,-3
1513226576477869,-3,-1,0,-1,-1,1,-1,-2
1513226576477869,1,0,-2,-2,0,-1,-1,-2
1513226576477869,0,-1,-3,-1,-1,-1,-2,0
1513226576477869,-1,-1,-2,1,-2,0,0,0
1513226576491895,-1,-2,-3,-2,-2,-3,-1,-2
1513226576491895,-1,-2,0,-1,0,2,-2,-1
1513226576492887,-1,-1,-1,-1,2,-3,-1,-2
1513226576492887,0,0,-1,0,-1,1,-1,1
1513226576514900,-2,-1,-2,-1,-1,0,-1,-1
1513226576514900,-2,0,-2,-3,0,-1,0,0
1513226576516902,0,0,1,-1,-1,-1,0,1
1513226576516902,0,-1,-2,0,0,-1,1,0
1513226576537907,-2,0,0,-1,-2,-1,-1,-2
1513226576537907,1,1,-3,-2,-1,0,-2,2
1513226576537907,-1,-1,0,-2,-1,-1,-1,-1
1513226576537907,1,0,-1,-1,-1,-1,-2,1
1513226576551938,-5,-1,0,-1,-3,0,-1,-3
1513226576551938,0,-1,-1,-1,-1,-2,-3,-2
1513226576552920,-1,-1,-1,0,-2,0,0,-1
1513226576552920,-1,0,1,-2,1,0,0,1
1513226576574958,-2,-1,-1,-2,-2,-2,0,-1
1513226576574958,-3,-1,-3,-2,-2,-4,-2,-3
1513226576575934,1,-3,-3,0,1,-2,-1,-2
1513226576575934,-2,-1,-2,1,-2,-2,0,-1
1513226576597949,0,-1,-1,-1,-2,-2,-1,-1
1513226576597949,-2,-4,-2,-1,0,1,0,-3
1513226576597949,-1,-2,-1,0,-1,1,0,-2
1513226576597949,-2,0,-1,-3,0,-1,-2,0
1513226576611959,-1,-1,0,-2,0,-1,-2,0
1513226576611959,-2,-3,-2,-1,-3,-2,0,-3
1513226576611959,0,0,-3,-3,0,-1,0,0
1513226576611959,-3,1,1,0,-1,0,0,-1
1513226576634993,-1,0,-2,0,-1,-2,-1,1
1513226576634993,-4,-2,0,-2,0,0,-1,-3
1513226576635986,-2,-2,-1,-1,-2,-1,1,-1
1513226576635986,0,-2,-3,0,-3,-1,-2,1
1513226576655989,0,-3,-1,0,-2,0,-1,-1
1513226576655989,-1,-3,-2,-1,-3,-1,-1,0
1513226576663996,-1,-3,0,-1,0,-3,0,0
1513226576663996,0,-1,0,-2,-1,-1,-1,-1
1513226576672018,-1,0,-1,0,1,0,0,-2
1513226576672018,0,-1,-1,1,-3,-1,1,-2
1513226576673002,-2,-1,-1,-1,-1,1,-1,-2
1513226576673002,0,0,-1,0,0,-3,-1,-3
1513226576694016,-2,0,1,-2,-2,0,0,0
1513226576694016,-3,-1,0,-1,0,0,-1,-1
1513226576702047,0,-2,-3,0,-2,-1,0,-1
1513226576702047,0,-1,0,-1,-1,-1,1,-1
1513226576717033,-1,-1,-1,0,0,0,0,-1
1513226576717033,0,-1,-1,0,0,-2,-1,0
1513226576718033,-1,-1,0,0,-2,0,-2,0
1513226576718033,0,-1,-2,0,-1,-1,-3,-2
1513226576731084,0,-1,-1,-3,-1,-2,-2,0
1513226576731084,-1,-1,-3,-4,-1,-1,1,-3
1513226576739052,1,-2,3,1,0,-2,1,-1
1513226576739052,0,-1,1,-1,0,0,0,1
1513226576755074,-1,-2,-3,0,-3,-3,-4,-2
1513226576755074,0,-3,3,2,1,-1,-1,0
1513226576756060,-1,2,-2,-2,-1,-1,-3,-2
1513226576756060,0,1,-2,0,0,1,-1,1
1513226576776086,-1,-2,-1,-1,-2,-1,0,1
1513226576776086,-1,-1,-2,-2,-3,-1,-1,-1
1513226576784131,-1,-1,-3,0,-1,-1,-2,-1
1513226576784131,4,-2,1,-1,0,0,-1,3
1513226576791084,-1,0,-3,-1,-2,-2,1,-2
1513226576791084,1,-2,-1,-2,-1,-3,0,0
1513226576799141,-4,0,-2,-1,-1,-2,-1,-2
1513226576799141,-2,-2,-1,-1,-2,-2,-1,-2
1513226576815131,0,-1,-1,-2,0,1,-1,-2
1513226576815131,-1,-1,-2,-1,-2,-1,-2,-1
1513226576816141,0,-2,-1,-1,-1,1,-2,-2
1513226576816141,-1,-2,-2,0,1,0,0,-2
1513226576837148,0,-1,-1,-2,-2,-1,-2,-1
1513226576837148,-3,0,-1,-2,0,0,-1,-2
1513226576838151,0,0,-1,-2,0,0,-2,0
1513226576838151,-1,-1,-3,-1,-1,-2,-1,-2
1513226576851222,-1,0,-1,-2,-2,-3,0,-2
1513226576851222,-1,-1,-2,-1,-2,-1,-1,-3
1513226576859210,5,-2,2,-2,-4,-2,1,5
1513226576859210,-1,-1,0,-1,0,0,-1,2
1513226576875174,0,0,-1,-1,0,0,0,-1
1513226576875174,-1,-2,-3,-3,0,-1,0,0
1513226576876175,-2,0,-2,-1,-1,-2,0,-4
1513226576876175,-2,-2,0,0,-2,1,-2,-1
1513226576897188,-2,0,-2,0,-2,-2,-2,-1
1513226576897188,1,0,-1,0,0,0,-1,0
1513226576898189,-2,-2,-2,1,0,0,0,-2
1513226576898189,0,-1,-5,-1,-1,-1,-2,-1
1513226576911214,-2,0,-2,-1,0,1,1,-1
1513226576911214,-2,-2,-1,-1,-1,-2,-1,-2
1513226576919204,-1,0,0,-1,-1,-1,-1,-1
1513226576919204,0,1,-2,-2,-1,-2,-1,-2
1513226576935231,-3,-3,0,-1,0,-1,-1,1
1513226576935231,-1,0,-1,-2,-3,-3,-3,-2
1513226576935231,2,-1,0,-2,1,0,-1,4
1513226576935231,-2,-3,1,0,0,-1,-2,0
1513226576957244,0,0,1,1,-1,-2,-1,-1
1513226576957244,-2,-2,0,0,0,1,-1,2
1513226576958231,-4,1,-2,0,2,-2,-1,-1
1513226576958231,1,0,-1,0,-4,0,-2,1
1513226576971274,1,0,-3,-3,-3,-1,-3,-1
1513226576971274,0,0,-1,-2,-2,-2,0,-1
1513226576987253,0,-1,-1,-3,-3,-2,-1,-4
1513226576987253,0,-2,-1,-1,0,-1,1,1
1513226576995263,-2,-3,-1,-2,-1,-2,0,-2
1513226576995263,-1,-1,-1,-2,-2,-2,-1,-1
1513226576996263,-3,-2,-2,-2,-2,0,-1,-1
1513226576996263,-1,0,-1,-1,0,-1,0,-1
1513226577017273,-1,0,0,-1,0,0,-1,-5
1513226577017273,-1,-3,-2,0,1,-3,-1,0
1513226577025286,-1,-1,-3,-1,-1,0,-2,0
1513226577025286,-3,-4,4,2,-2,-2,1,-3
1513226577031285,-2,0,1,-2,-3,-2,-1,-2
1513226577031285,-1,-1,-2,-2,-2,-1,-1,-1
1513226577040302,-2,-2,0,0,0,0,-2,-2
1513226577040302,-1,1,-4,-1,-3,0,-2,-1
1513226577055347,-1,-2,-1,-2,0,-2,-2,0
1513226577055347,-2,-2,2,-2,-1,-2,-1,-2
1513226577056347,1,-1,-2,0,0,0,-2,-1
1513226577056347,1,-1,-1,-3,1,-1,0,0
1513226577077374,0,-1,0,-2,-1,-3,-1,0
1513226577077374,-2,-1,-2,0,1,1,0,-2
1513226577079376,-1,-2,0,0,-1,-1,0,-2
1513226577079376,-3,-1,0,0,-1,-2,-1,0
1513226577099442,1,0,-1,-2,1,-1,-1,0
1513226577099442,-1,-2,-3,-2,-2,-1,1,-2
1513226577101422,-2,-1,2,1,-1,-1,-1,-1
1513226577101422,-2,1,0,0,-2,-3,0,0
1513226577115431,1,-1,-2,0,-1,-2,-1,-1
1513226577115431,0,-1,-3,-1,0,0,0,-1
1513226577117432,-5,-1,0,-1,-1,0,1,0
1513226577117432,2,-3,-2,-2,0,-3,-2,-2
1513226577137486,-3,-2,0,0,-2,0,0,-3
1513226577137486,-2,-1,0,-1,-2,-1,-3,-1
1513226577139448,-2,2,-1,-1,0,-2,-3,-3
1513226577139448,-2,1,-3,-1,-1,-2,-1,-2
1513226577159484,-2,-1,-1,-3,-2,0,0,1
1513226577159484,2,-2,-2,1,0,-2,1,0
1513226577161474,0,-2,-2,0,-1,-4,0,0
1513226577161474,-1,-1,0,0,-1,0,-1,-1
1513226577174473,0,-3,4,2,-1,-1,-2,1
1513226577174473,-1,1,-2,-3,-2,-1,-1,-3
1513226577176474,1,-2,-1,-1,-1,0,-1,0
1513226577176474,-1,-1,-1,-1,0,-2,-2,-1
1513226577205509,0,-1,-1,-3,-1,-2,0,0
1513226577205509,-1,-1,1,-2,-1,1,-2,0
1513226577206497,-1,-1,-1,0,1,-2,1,-3
1513226577206497,-4,1,-2,-1,-2,-2,-1,-1
1513226577219514,3,-2,-3,-2,-1,-4,-2,0
1513226577219514,-2,-1,-2,0,-2,-3,-2,-2
1513226577221507,1,-1,-2,-1,-1,1,-1,0
1513226577221507,-1,-2,1,0,1,1,-1,-1
1513226577234540,-3,-1,-1,-3,-1,0,-2,0
1513226577234540,0,-1,-1,-1,-1,0,-1,1
1513226577241520,-1,-2,-3,-1,-1,0,-1,-2
1513226577241520,-1,0,1,0,0,-1,-2,-1
1513226577257563,-2,1,0,0,-1,0,0,-1
1513226577257563,-3,1,0,-1,0,-1,-2,-3
1513226577259565,1,-2,-2,-2,-1,-1,-1,-1
1513226577259565,0,-2,-3,0,-1,-1,0,0
1513226577279549,-1,-2,-2,0,-1,-3,-2,-3
1513226577279549,1,1,0,-3,-1,1,-2,0
1513226577281551,-2,-1,1,1,-2,0,-2,-1
1513226577281551,1,1,-3,-1,-2,-2,-1,-1
1513226577294560,-2,-1,-4,-1,-4,0,1,-1
1513226577294560,-1,-1,-1,-1,-1,-1,-1,-3
1513226577301563,0,-2,1,0,-1,-3,-2,-1
1513226577301563,0,-3,0,0,-1,0,-2,0
1513226577317574,-3,1,-1,-1,1,0,-1,-1
1513226577317574,-1,0,0,0,-2,0,-1,-2
1513226577319579,-1,-2,-2,-1,0,-2,1,-1
1513226577319579,-1,-2,-1,-1,-1,-1,1,-2
1513226577339606,-1,0,-1,-4,-2,-2,0,0
1513226577339606,-2,0,-2,-1,-1,0,0,-1
1513226577341592,-1,0,-2,-1,0,-3,-2,1
1513226577341592,-3,-1,-1,-1,-3,-2,0,-1
1513226577354600,-1,-5,-1,0,0,-1,0,-1
1513226577354600,0,-2,-1,-3,-2,-1,0,0
1513226577360607,1,-1,-1,-1,-1,1,-3,-2
1513226577360607,0,1,0,0,0,0,-2,-2
1513226577377617,-1,-1,-1,-1,0,-1,-2,0
1513226577377617,-3,-3,0,0,-3,-2,-1,-3
1513226577378617,-1,-1,-1,0,1,1,-1,-1
1513226577378617,-1,0,-1,0,0,-3,-2,-3
1513226577399631,-2,0,-2,-4,-3,-2,-1,1
1513226577399631,0,-1,-3,-1,2,-3,-2,-3
1513226577401633,-2,2,0,-1,-1,-1,-2,2
1513226577401633,-1,-2,-1,0,-2,1,0,0
1513226577414642,-3,1,-1,0,-3,-2,-1,-3
1513226577414642,0,-1,-2,-1,-3,-4,-2,-2
1513226577422648,0,0,-1,-3,-1,-1,-1,-2
1513226577422648,-1,-3,-2,-1,-2,-2,0,1
1513226577437659,-3,-1,0,-1,1,-1,-2,-2
1513226577437659,-2,-1,-2,-2,0,-1,0,1
1513226577438659,-2,-2,-2,-1,-1,-1,-1,-1
1513226577438659,0,-1,1,-1,-2,0,-1,-1
1513226577459676,-1,-1,-1,2,0,1,-2,-2
1513226577459676,0,-1,0,-1,-1,-1,0,-1
1513226577461676,-1,0,-2,1,-1,-2,-1,-1
1513226577461676,-1,0,-3,-3,0,0,-2,1
1513226577482694,-1,-2,-2,0,0,0,-1,0
1513226577482694,1,0,-2,-1,0,-1,1,0
1513226577483692,1,0,-1,0,-3,-3,0,-1
1513226577483692,-3,1,-1,0,1,-1,-1,-3
1513226577497703,3,-4,-3,-2,-3,-1,-2,-1
1513226577497703,-3,-1,1,0,-1,2,0,-2
1513226577498702,-1,-2,-1,-1,-4,-1,0,1
1513226577498702,-1,-2,-1,0,1,-2,-1,2
1513226577519717,-2,0,-1,-2,0,-2,0,-1
1513226577519717,0,-1,-1,-1,-1,0,-2,-2
1513226577521720,-1,-2,-1,0,1,1,-1,0
1513226577521720,-1,-1,-2,-2,0,-1,-2,1
1513226577534750,-2,1,-2,-2,-2,0,-1,0
1513226577534750,0,-2,-1,-1,-1,-1,-1,-2
1513226577540732,-2,0,-1,-1,-1,-1,-2,-1
1513226577540732,2,-2,1,0,-1,-2,-1,0
1513226577556753,1,-1,0,-3,-3,0,-1,-2
1513226577556753,-2,-3,4,0,0,0,0,2
1513226577564749,-3,0,-3,0,-1,-1,-1,-2
1513226577564749,-1,0,-1,0,-1,2,0,-1
1513226577579759,-2,-2,-1,-1,-2,-3,-1,-1
1513226577579759,1,-3,-3,-1,0,-3,0,-1
1513226577581760,-2,-1,-2,-1,-1,0,1,-1
1513226577581760,-1,-1,1,-3,-2,-1,-1,0
1513226577593769,0,1,-3,-2,-1,0,1,-2
1513226577593769,0,0,0,-2,0,-1,0,-1
1513226577602777,-2,-3,1,2,0,0,0,1
1513226577602777,1,-2,-4,0,-3,-2,-1,1
1513226577617786,-2,0,-1,-3,-2,0,-1,-1
1513226577617786,-1,0,-3,-1,-2,-1,-2,-1
1513226577618787,2,0,1,0,1,-1,-1,-1
1513226577618787,0,1,0,0,0,1,0,-2
1513226577639802,0,-2,-1,0,0,1,-1,0
1513226577639802,-2,-1,-2,-2,-1,1,0,0
1513226577641803,-1,-2,0,0,0,-1,-1,0
1513226577641803,-4,-1,-1,-1,0,-2,-1,0
1513226577653834,-1,-2,0,-2,-1,-1,-1,-1
1513226577653834,-1,-1,-1,0,-1,-1,1,-2
1513226577662854,1,-1,-1,-2,-2,-1,-4,1
1513226577662854,-3,0,-2,-1,-2,1,-2,-1
1513226577677842,0,0,-2,0,-1,-1,-3,-3
1513226577677842,0,1,-2,-1,0,-1,-2,-2
1513226577678831,0,1,-2,-1,-1,0,-1,-1
1513226577678831,1,-2,-3,-1,-2,-1,-3,-1
1513226577699872,-3,-1,-2,-1,-3,-1,-2,-2
1513226577699872,0,0,-2,-1,-2,0,-2,-1
1513226577701863,-1,-3,0,-1,2,0,0,0
1513226577701863,-1,0,-1,-1,-1,-3,0,-2
1513226577713893,0,-1,-3,-1,-3,-1,-1,-2
1513226577713893,-2,-1,-1,-2,-1,-1,0,0
1513226577722860,0,0,0,-1,-2,1,1,-1
1513226577722860,-1,-1,0,0,0,0,0,0
1513226577737871,-1,1,-2,-1,-1,-1,1,1
1513226577737871,-3,-3,-2,-1,-1,-3,0,-3
1513226577738873,-3,0,-1,1,-1,2,0,-1
1513226577738873,-3,-2,1,0,1,1,0,-1
1513226577759909,0,-2,0,-1,-1,-1,-2,-1
1513226577759909,-2,0,3,0,-1,-2,-2,0
1513226577761889,0,-1,-2,-1,-2,-2,-2,-2
1513226577761889,1,0,-1,0,-2,-1,-1,0
1513226577773896,-3,-3,0,-3,-2,-3,-2,-1
1513226577773896,-1,-4,2,0,0,1,2,-2
1513226577782913,0,-2,-1,-2,-1,-2,-1,0
1513226577782913,-2,0,0,-2,-1,0,-3,0
1513226577797969,-2,1,0,1,-1,-3,0,-2
1513226577797969,1,0,-4,-3,-1,-3,-1,0
1513226577799917,-1,-1,-2,1,-2,-3,1,0
1513226577799917,1,0,-2,0,0,-3,-1,-2
1513226577819947,-1,-3,-1,-2,0,1,-2,-1
1513226577819947,-2,0,-2,-1,-3,0,-3,1
1513226577821949,0,-1,0,-1,0,0,-2,0
1513226577821949,0,-2,-2,-2,-2,-4,0,0
1513226577833942,-2,1,-3,0,-1,-1,0,-3
1513226577833942,-4,-1,-2,-1,-3,-1,-1,-3
1513226577842947,4,-1,0,1,-1,1,0,-1
1513226577842947,-5,-1,0,-1,-3,0,-2,1
1513226577856970,-1,-1,1,-4,-1,-2,-3,-1
1513226577856970,-1,-2,-2,-3,0,2,-2,-3
1513226577858958,-4,0,-1,0,-1,-1,-2,-3
1513226577858958,0,1,0,-1,0,-2,0,-2
1513226577879972,-1,-1,-2,0,-3,-1,-2,0
1513226577879972,-1,-2,-2,-1,-1,-1,0,-1
1513226577880973,-2,-3,-1,0,-1,-1,0,0
1513226577880973,0,0,-1,-1,-2,-1,0,1
1513226577894036,-1,-2,-2,-2,-1,-1,-1,-1
1513226577894036,-1,-1,-2,0,-1,0,0,-1
1513226577903012,-3,-2,-1,-2,-2,0,-1,-1
1513226577903012,-2,-3,-1,0,0,-1,-1,-1
1513226577917008,0,-1,-2,-3,0,-2,-1,-2
1513226577917008,0,-2,-1,0,-1,0,-1,-1
1513226577919009,0,-2,-1,-1,-1,0,0,0
1513226577919009,-5,-2,-2,-1,-2,0,-2,-2
1513226577940028,4,-1,-2,-3,-2,-3,2,4
1513226577940028,-1,-2,3,-1,-2,-2,-2,-2
1513226577942016,-1,-1,-2,0,0,0,-1,-1
1513226577942016,-1,-2,-3,-1,-2,-2,-1,-1
1513226577954038,-3,-1,-3,-1,-3,0,-1,-3
1513226577954038,1,0,-1,-2,2,-1,-2,0
1513226577963032,-2,-1,-2,0,-1,-1,-1,-1
1513226577963032,1,0,0,0,-1,-2,-1,-1
1513226577977047,-2,-1,0,-1,-1,-1,1,-2
1513226577977047,1,-2,-2,-3,-1,0,0,2
1513226577979048,0,-1,-1,1,-1,0,-2,-1
1513226577979048,-1,-1,-4,-1,-1,1,-2,-2
1513226578000057,-1,0,2,0,-2,-2,-1,-4
1513226578000057,-3,-1,-1,-3,-1,-2,1,-1
1513226578002058,-3,0,-1,-1,-2,1,-2,0
1513226578002058,-1,-2,2,-2,0,-1,0,-2
1513226578013069,-2,-1,-1,0,-3,1,-2,-2
1513226578013069,-2,-3,-1,-1,-3,0,2,-2
1513226578022084,0,-1,-1,-2,-1,-2,0,0
1513226578022084,-2,1,-2,-2,-2,-1,-2,0
1513226578037107,-3,0,0,-2,1,-2,-1,-1
1513226578037107,0,0,-3,1,1,-1,-2,0
1513226578039084,-1,-1,-1,0,0,-1,-2,0
1513226578039084,1,1,1,-1,-4,0,-1,0
1513226578060119,-2,-2,-1,-3,-1,0,-1,0
1513226578060119,-3,0,1,-1,0,-2,-2,-3
1513226578062101,1,-1,-1,-1,1,-3,1,0
1513226578062101,-1,-2,-2,1,-2,0,0,1
1513226578082116,-1,-1,0,-2,-1,-2,0,-3
1513226578082116,-1,-1,-2,-2,0,-2,0,-3
1513226578084116,-4,0,-3,-1,1,0,-1,-4
1513226578084116,6,1,0,-1,0,-2,1,3
1513226578097126,-2,-1,-1,-4,0,2,1,-3
1513226578097126,-2,0,-3,-1,1,-2,-2,-1
1513226578099133,0,-3,-1,1,0,-3,2,0
1513226578099133,-2,-2,0,2,0,-2,-1,1
1513226578120153,0,-2,-2,-2,-2,-1,1,0
1513226578120153,2,-2,0,-1,-1,0,-1,-1
1513226578122161,-1,-1,-1,0,-2,1,-1,0
1513226578122161,-3,-1,0,-1,2,0,-1,-1
1513226578142157,1,-1,-3,-2,-3,-1,-2,0
1513226578142157,-2,-1,-1,0,-2,-1,0,-4
1513226578144158,0,0,-2,-1,0,-2,-1,-1
1513226578144158,-2,-2,-2,-1,-3,-1,-1,0
1513226578157167,-2,1,1,2,1,1,-1,2
1513226578157167,-2,-1,-1,-1,-1,1,-2,0
1513226578159198,0,-1,1,-1,0,0,-1,0
1513226578159198,-3,-2,-2,-1,0,-2,-1,-3
1513226578180184,4,-1,0,0,-3,-1,0,3
1513226578180184,-2,-1,-1,0,-1,-2,-2,1
1513226578181186,-1,0,-1,-2,-2,-2,-1,-1
1513226578181186,-4,0,-3,-2,1,-1,-2,-2
1513226578202257,-2,-3,-1,-4,-2,-4,-1,-3
1513226578202257,1,0,-2,-1,-2,-1,1,1
1513226578204201,-2,-1,-1,1,-1,0,0,-3
1513226578204201,1,-1,-1,-1,-3,2,-2,-1
1513226578217210,-3,-2,-2,0,0,0,-3,-5
1513226578217210,-1,-1,1,0,0,0,2,-1
1513226578223214,-1,0,-2,0,-1,-1,-4,0
1513226578223214,0,1,-1,-1,-2,-1,-1,0
1513226578240226,-1,-1,0,-5,1,-1,-1,-2
1513226578240226,-2,-1,-3,0,-2,-3,-1,-2
1513226578241227,-1,-2,-1,2,-2,-2,0,-1
1513226578241227,1,2,0,-1,-2,-3,0,0
1513226578262245,-4,0,-4,-1,-1,-2,-3,-1
1513226578262245,-2,-3,0,-1,-1,-1,-2,1
1513226578264243,-2,-1,-3,0,-2,-1,-1,0
1513226578264243,1,-2,0,-1,-2,-1,-1,-1
1513226578276265,0,-2,0,-4,-4,-3,0,-3
1513226578276265,2,-1,-2,-2,-1,-2,-1,0
1513226578283296,-1,-3,-1,0,0,-2,-1,0
1513226578283296,-2,-2,0,0,0,-2,-2,0
1513226578300281,-3,-2,-1,-1,-1,1,0,-3
1513226578300281,0,-2,0,-3,1,0,-1,-1
1513226578301270,0,-1,-1,-2,-1,1,-2,-1
1513226578301270,-1,-2,-2,0,-1,-1,0,-3
1513226578330290,-1,1,0,2,-2,-1,-1,-1
1513226578330290,1,0,-3,-2,-1,-3,-2,0
1513226578331292,0,0,-1,-1,1,-1,-2,0
1513226578331292,-3,-4,0,-1,-2,-2,-2,-4
1513226578336295,-1,-2,-3,-1,0,-3,-1,-2
1513226578336295,-3,-2,0,0,0,0,1,-3
1513226578343321,-2,0,-2,0,-3,-1,-1,-1
1513226578343321,4,0,0,0,-1,-2,0,3
1513226578360327,-1,-1,-2,-2,-2,-2,0,-2
1513226578360327,-1,-1,-1,0,-1,2,1,-2
1513226578361312,-1,-1,-1,-2,2,0,-1,0
1513226578361312,-2,0,-1,0,-1,-1,-1,-2
1513226578382326,-1,-2,-2,-2,0,-1,0,-1
1513226578382326,-2,0,-2,-1,-2,0,-1,0
1513226578384327,0,1,-1,-1,-2,1,-1,0
1513226578384327,-1,-1,-2,-2,-2,-1,-3,-2
1513226578396359,0,-1,0,-3,-1,0,-2,-2
1513226578396359,-2,-1,-1,1,-2,-2,-3,-2
1513226578403359,1,2,-1,0,-1,-1,0,-3
1513226578403359,-2,-1,0,-2,-2,0,0,0
1513226578419352,-2,0,-3,-4,-1,-2,0,-1
1513226578419352,0,0,0,0,0,-1,0,1
1513226578421354,-1,1,0,1,0,0,1,-1
1513226578421354,-2,0,-1,-1,-2,-1,-1,-1
1513226578442379,0,-3,-1,-3,0,1,-4,-3
1513226578442379,0,1,-3,-3,0,1,0,-1
1513226578444378,-1,0,-1,-1,1,-3,-2,0
1513226578444378,-2,0,-3,-2,-2,-2,0,-3
1513226578456392,-2,-1,1,0,-1,0,1,-1
1513226578456392,-2,-2,0,-1,-2,0,-2,-1
1513226578463398,1,-2,-1,-1,-1,-1,-1,0
1513226578463398,-2,-2,-2,-1,0,0,-1,-2
1513226578479398,0,0,-3,-2,0,-2,-1,-3
1513226578479398,-2,0,-1,-2,1,0,-2,0
1513226578481398,0,-1,-2,0,-3,-1,0,1
1513226578481398,-2,-1,0,-3,0,-1,0,-1
1513226578502475,-3,-1,-1,1,-2,-1,-1,-1
1513226578502475,0,-2,-2,0,1,-2,0,-1
1513226578504421,-2,-2,0,0,-3,0,-2,-2
1513226578504421,-1,0,-1,-2,-1,-3,-2,-1
1513226578516423,1,0,-2,1,0,-2,-2,3
1513226578516423,0,-1,-2,-1,-3,-1,-1,1
1513226578523428,0,-1,-1,0,-1,0,0,1
1513226578523428,-1,-2,0,0,-2,2,-1,-1
1513226578539438,-3,-1,0,-1,-2,0,0,-2
1513226578539438,-4,1,-1,-2,0,0,0,-3
1513226578541439,-1,-2,-2,-1,-2,-3,-2,-1
1513226578541439,0,1,-3,0,0,-4,0,-1
1513226578562467,-3,-2,-1,-1,-2,-1,-1,-1
1513226578562467,1,-2,-1,-2,-1,-2,0,-1
1513226578564466,0,-2,1,1,0,-1,-1,0
1513226578564466,0,-1,-2,-1,0,-1,0,-1
1513226578575476,-1,-3,-2,0,-1,-1,-2,-2
1513226578575476,-4,0,2,-1,-1,-2,-2,-1
1513226578585484,1,0,-1,-2,0,0,-2,-2
1513226578585484,0,0,-1,-2,-1,-2,0,1
1513226578598497,-2,-1,0,-2,-2,-4,0,-1
1513226578598497,1,-1,-3,-1,-3,-1,-3,-2
1513226578607532,-2,-3,0,-2,-1,-5,-1,-3
1513226578607532,0,0,-1,0,-2,1,-1,-2
1513226578622543,1,-1,0,-3,-2,-2,-2,-1
1513226578622543,0,1,-1,-1,0,-2,0,-2
1513226578623543,0,0,1,-1,0,-1,0,-1
1513226578623543,-1,-2,0,-1,0,1,-1,-2
1513226578635620,-1,-1,0,-3,0,-1,0,-1
1513226578635620,0,-1,-2,-1,0,1,-4,-1
1513226578652563,-2,0,-2,-2,0,-1,1,0
1513226578652563,-2,0,1,0,-2,1,-1,-1
1513226578659603,-2,0,-2,-1,-2,-1,-1,-2
1513226578659603,-1,-3,-1,1,0,-2,0,0
1513226578661570,-1,-3,2,1,1,0,-2,3
1513226578661570,-4,-2,-1,-2,0,-2,-1,-1
1513226578682597,4,2,-1,0,-1,2,-1,1
1513226578682597,-1,-1,-3,0,-1,0,0,-1
1513226578683585,-1,-1,-2,-1,-3,-1,-1,0
1513226578683585,-2,0,-1,-1,1,-1,-1,-1
1513226578695610,-1,-3,0,0,0,0,1,-2
1513226578695610,0,-2,1,-1,-2,-1,-1,0
1513226578704599,-1,-1,-1,0,-3,-1,-1,1
1513226578704599,-2,-2,0,-1,-2,1,-2,0
1513226578727615,-2,0,-2,0,-1,-1,-1,0
1513226578727615,-1,0,-1,0,0,-2,-1,-1
1513226578728616,-2,-1,0,-1,-2,-1,0,0
1513226578728616,1,-1,-1,-3,-1,-2,-3,-1
1513226578742626,1,-2,-1,-1,-1,-1,-1,0
1513226578742626,-3,-3,-2,-1,-1,-1,0,-1
1513226578743628,-3,-1,-1,0,-1,-1,1,-1
1513226578743628,0,-1,-3,-1,-3,-1,0,0
1513226578755647,-3,-3,-2,-1,-2,-2,-1,-2
1513226578755647,0,-2,0,0,-2,-1,-1,-1
1513226578764695,0,-3,-3,-1,1,-1,-3,-2
1513226578764695,-2,-2,1,-1,-1,-1,-2,-2
1513226578779706,-2,1,0,-2,-1,0,-2,-3
1513226578779706,-2,-1,-2,-1,-1,-1,0,-1
1513226578781707,-1,-1,-3,-1,-2,-2,-2,0
1513226578781707,1,-2,0,-2,-2,-4,-2,-2
1513226578802785,-2,0,-2,0,-1,-1,-1,-2
1513226578802785,-1,-2,1,-1,1,-2,-1,-2
1513226578803734,0,0,-2,-2,-1,-1,-1,-1
1513226578803734,0,-1,-1,-2,2,-1,-1,-1
1513226578815733,-2,-3,0,0,-2,-1,0,-1
1513226578815733,0,-1,-1,-2,-2,-2,0,1
1513226578824739,0,1,-1,-2,1,-1,-2,0
1513226578824739,-3,0,-3,0,-1,0,0,0
1513226578839748,-1,0,-2,-2,-1,1,0,-3
1513226578839748,0,-1,-1,-1,-3,-1,-1,-1
1513226578841750,0,-1,-1,-1,0,0,0,-2
1513226578841750,3,-1,0,-1,-2,-1,0,3
1513226578869769,0,-1,1,-3,0,-2,0,-2
1513226578869769,-3,-1,0,-1,1,0,-3,-1
1513226578871771,-3,-1,-1,0,-2,-1,1,-1
1513226578871771,-1,-3,-2,-1,-2,-1,-1,-3
1513226578875774,-4,-1,0,-1,-1,-2,0,-2
1513226578875774,0,1,-2,-1,2,1,0,-1
1513226578884780,0,0,-1,0,0,0,-2,-1
1513226578884780,1,-1,-1,0,0,1,-2,0
1513226578899847,0,-2,-2,-2,-2,-3,-1,-3
1513226578899847,1,-1,4,-1,-1,0,1,1
1513226578901815,1,1,-2,0,-2,-1,-1,0
1513226578901815,0,0,-2,-2,-1,-3,0,-2
1513226578922807,-3,-2,-1,-3,1,0,-1,-1
1513226578922807,-3,-2,-2,-2,-2,-2,-1,-2
1513226578923816,2,0,-1,1,-2,-1,1,2
1513226578923816,-4,-2,1,-1,-1,-1,-1,0
1513226578935853,0,2,-5,-3,-2,-1,0,-2
1513226578935853,-3,-3,-3,0,-2,-2,-3,-3
1513226578944831,0,-3,-2,-1,-1,-1,0,-1
1513226578944831,1,-2,-2,-1,-3,-3,-3,-2
1513226578959853,-3,-3,0,0,-1,-1,-1,-2
1513226578959853,0,0,-1,-2,1,0,-1,2
1513226578961852,-1,1,1,0,0,0,-1,-1
1513226578961852,-2,-1,-1,-2,-2,-1,-1,-1
1513226578982864,-1,1,-1,-1,0,-2,0,-1
1513226578982864,0,0,-3,0,1,-1,-1,-1
1513226578983851,-3,0,1,0,-2,-1,0,-2
1513226578983851,0,0,-2,-2,-2,-1,-1,-2
1513226579005879,-3,0,0,-2,-2,-1,-1,-1
1513226579005879,3,0,-1,-1,-1,-1,-1,1
1513226579006866,-3,-2,0,-2,-1,-1,-3,-1
1513226579006866,0,1,0,-2,-3,0,0,1
1513226579019956,-1,-2,0,-1,0,-1,-1,0
1513226579019956,-3,0,-3,-2,0,-1,1,-1
1513226579021962,-2,-2,-3,0,0,-1,0,0
1513226579021962,-3,-1,1,-1,-1,-1,-1,-1
1513226579042965,-1,-3,-4,-1,-2,-2,-3,0
1513226579042965,-3,-1,-1,0,0,1,0,-2
1513226579043955,0,0,0,-1,-1,-2,-2,0
1513226579043955,-2,-3,-2,-3,-2,-1,0,-1
1513226579064981,-2,-1,-2,-3,-1,0,-1,-1
1513226579064981,-1,-1,-3,-1,-1,-1,-3,-1
1513226579066972,0,-2,0,-3,-3,-1,-1,-1
1513226579066972,-2,-3,0,-1,0,-2,0,-1
1513226579079991,-4,-1,0,-3,-2,-2,0,-1
1513226579079991,2,-3,-1,1,-1,-2,-1,-2
1513226579080992,-2,1,0,1,-2,0,-2,1
1513226579080992,0,0,-2,-2,-4,-1,0,-3
1513226579102070,2,-2,0,-1,1,-1,-1,-2
1513226579102070,-3,-3,0,0,-2,-3,-1,-1
1513226579104048,-1,0,0,0,0,0,-2,-1
1513226579104048,-2,1,0,-2,-1,0,-1,-1
1513226579125076,0,1,-2,0,-1,-2,-1,-2
1513226579125076,-1,0,0,-1,-1,0,-1,0
1513226579126076,-2,-2,-6,-4,-1,-1,-1,-1
1513226579126076,0,0,-3,-2,-3,-1,-3,-1
1513226579138072,1,-1,-1,0,0,0,-2,-2
1513226579138072,-4,-1,-1,-1,-2,-2,-2,0
1513226579147100,4,1,-2,2,0,-1,-2,0
1513226579147100,-3,-2,-1,-2,0,-2,-2,0
1513226579162153,0,-3,-4,-2,0,1,-2,-1
1513226579162153,0,-1,-1,-2,0,0,0,-1
1513226579164095,-3,-2,1,-1,-1,-2,-1,-1
1513226579164095,-1,-1,-1,-1,-1,-2,0,-1
1513226579185126,-1,-1,-1,-2,-1,-1,-1,-2
1513226579185126,1,-1,-2,-1,-1,0,-1,-1
1513226579186106,-1,-1,-1,1,0,0,1,-1
1513226579186106,0,-1,0,-1,-1,-3,-1,-1
1513226579199124,0,-2,-1,-1,0,-3,-1,1
1513226579199124,-2,-1,-1,-3,1,0,-2,-3
1513226579206120,0,-1,-1,-2,-1,-3,0,1
1513226579206120,-1,-1,-1,0,0,0,-1,-1
1513226579222131,0,-1,-2,-3,-2,0,-1,0
1513226579222131,-2,0,0,0,0,-2,-1,0
1513226579224132,-3,-2,-1,-2,0,-1,-2,-2
1513226579224132,3,-1,-2,-1,0,-2,0,2
1513226579245157,0,-1,1,-2,-2,1,-1,-1
1513226579245157,1,-1,-2,-2,-2,0,0,-1
1513226579246148,1,-2,0,-1,-2,0,-1,1
1513226579246148,-4,1,-3,-1,0,-4,-3,-2
1513226579259224,-2,2,-1,-1,-3,-1,0,-3
1513226579259224,-1,-1,-1,0,-1,-2,-1,1
1513226579266163,0,-2,-1,1,0,-2,0,-1
1513226579266163,0,-1,-2,-1,-5,-2,-2,1
1513226579282174,-1,-3,-2,0,-3,-2,-1,-2
1513226579282174,-1,-1,0,-1,-1,-1,-3,-1
1513226579284174,-3,-1,-2,-2,-2,-1,-2,-2
1513226579284174,-1,0,0,-1,0,-1,0,-3
1513226579305189,-3,-1,-2,-2,-1,0,0,0
1513226579305189,0,-1,-1,-1,0,-1,-1,-2
1513226579306190,4,0,-3,-1,-1,-3,-1,0
1513226579306190,-2,-2,-1,-1,2,-2,-1,-3
1513226579319199,-1,-2,1,-2,-1,-4,0,-1
1513226579319199,-4,-1,-2,0,-2,1,0,0
1513226579326204,-1,1,-1,-1,-1,2,-2,-1
1513226579326204,1,-2,-1,-2,-3,-1,0,-1
1513226579342216,-2,-1,-1,-1,-2,-1,-1,-1
1513226579342216,-2,1,0,0,-1,1,1,-1
1513226579344218,-1,0,-1,1,-2,-3,-1,-1
1513226579344218,1,0,-1,-2,-2,1,-1,-1
1513226579365231,-1,-2,-2,-1,1,-1,0,-1
1513226579365231,2,-2,-1,-1,0,-3,-2,-2
1513226579366237,-4,2,-2,-2,-1,0,-3,0
1513226579366237,0,-1,-2,-2,-1,-1,0,-4
1513226579379258,-1,-2,-1,0,-1,-1,-2,-1
1513226579379258,0,0,-1,0,-1,-1,-1,0
1513226579386270,-1,-4,-2,-1,-2,0,-1,0
1513226579386270,-3,-2,-2,-1,-2,-1,-2,-3
1513226579402319,-1,-1,-2,-2,-1,-2,-4,-2
1513226579402319,-1,-1,-3,-1,-1,-2,-1,-1
1513226579404274,-2,-1,0,-1,-1,-2,-1,-1
1513226579404274,-4,0,0,-1,-2,0,1,1
1513226579425275,-2,0,0,-1,-1,-1,-2,-1
1513226579425275,-1,0,-1,-1,0,-1,-1,0
1513226579426275,0,-4,-1,-2,0,0,0,-1
1513226579426275,0,0,0,0,0,-2,-2,-1
1513226579439299,0,-1,-1,-1,0,0,-1,1
1513226579439299,-3,0,0,0,-2,-2,-1,-1
1513226579446289,-3,-1,0,0,-2,-1,0,-2
1513226579446289,3,-1,-2,0,-1,-1,0,4
1513226579462373,-4,0,-2,-2,-1,-1,-1,-3
1513226579462373,0,0,0,0,-2,-1,-1,0
1513226579464303,-2,-2,1,0,0,-1,0,-1
1513226579464303,-3,-4,-1,-2,-1,0,-1,-3
1513226579485317,-2,-4,-2,-2,-2,0,-1,-2
1513226579485317,-1,-1,-2,-1,1,1,1,3
1513226579486318,0,0,-1,0,-1,-2,0,-2
1513226579486318,-1,0,1,-2,-1,-1,-1,-2
1513226579498347,0,0,-2,0,-1,-3,-2,0
1513226579498347,-2,-1,-1,-1,-1,-1,0,-2
1513226579507332,-1,0,-2,0,0,-2,-3,2
1513226579507332,-4,-1,-3,-3,0,-2,-1,-2
1513226579522359,0,0,-3,-1,-3,0,0,-3
1513226579522359,-2,1,-1,-1,0,0,-1,0
1513226579524358,-1,-1,-2,-3,-2,0,0,-1
1513226579524358,-2,-1,3,-1,-1,-2,-1,-3
1513226579545358,-1,-1,-2,-2,0,-2,-1,-1
1513226579545358,-2,-1,-1,2,-1,0,-1,0
1513226579546359,0,-1,0,-2,-1,-2,-1,-2
1513226579546359,-4,-2,-2,-1,-1,0,0,-2
1513226579558410,-1,1,0,-2,0,-1,0,-1
1513226579558410,-1,-3,-1,-1,-1,0,-2,-2
1513226579567376,0,-1,-1,0,0,-2,-1,0
1513226579567376,1,0,-2,-2,-1,0,-1,0
1513226579582385,0,-1,-1,1,-1,1,-1,0
1513226579582385,2,-1,-2,-1,0,-3,-2,-1
1513226579584387,0,0,-1,0,-1,0,1,-1
1513226579584387,-2,-2,-1,-2,-1,-1,-1,-2
1513226579604460,-3,0,1,-2,-1,-2,-1,-2
1513226579604460,3,-2,-3,-1,1,0,0,1
1513226579606405,-1,-2,-1,0,-2,0,-1,-1
1513226579606405,0,0,-1,0,-2,-2,-2,-4
1513226579618410,-1,1,-3,-1,-1,0,-1,-2
1513226579618410,-3,-1,-2,1,-1,-2,0,-2
1513226579627417,-2,-1,-1,0,-1,1,-2,-1
1513226579627417,-2,-1,2,0,-1,0,1,0
1513226579642428,-2,-1,-1,0,-1,-2,-1,-1
1513226579642428,-2,0,-1,0,-1,-3,-4,-1
1513226579643428,1,1,-2,-1,-1,-1,-2,-1
1513226579643428,-1,0,-1,0,-2,-1,-3,-2
1513226579664453,2,-2,-2,-2,1,2,0,1
1513226579664453,-1,0,-1,-1,-1,0,0,-2
1513226579666444,-2,0,0,-1,-1,-1,0,-1
1513226579666444,-1,-2,-2,-2,-3,-1,0,-2
1513226579678452,-1,-2,1,0,1,-2,-2,1
1513226579678452,-2,0,0,-1,-1,1,0,1
1513226579687459,-1,0,-1,1,-3,0,0,0
1513226579687459,-1,0,-2,-1,-1,-1,0,-1
1513226579702528,-1,-2,-1,-2,-1,-2,-1,-1
1513226579702528,-1,-3,0,-2,0,0,-1,-2
1513226579704473,-1,0,-1,-1,0,0,-1,-2
1513226579704473,-4,-3,-1,-1,-2,-2,-1,-2
1513226579724485,0,1,0,-1,1,-1,0,0
1513226579724485,-2,-2,-2,0,-1,-2,0,0
1513226579726489,1,-1,0,1,0,-2,0,4
1513226579726489,-1,-2,-1,-2,-2,-2,-2,-1
1513226579738496,-2,-3,0,0,-1,-1,1,-3
1513226579738496,-1,-3,-3,0,-2,-1,-2,-1
1513226579747501,0,-1,-1,-2,1,-4,-2,0
1513226579747501,-1,1,-2,-1,-1,0,-2,0
1513226579762570,-4,-3,0,0,-2,1,-2,-4
1513226579762570,1,-2,0,-1,-1,-1,-1,-1
1513226579763516,-2,-3,-4,-1,-3,-2,-2,-3
1513226579763516,2,-1,-3,-2,1,-1,1,-1
1513226579784551,1,-1,-2,-1,-2,-1,-1,-2
1513226579784551,0,-1,1,0,1,-1,-1,-1
1513226579786530,-2,-1,-2,-3,-2,-2,-2,-2
1513226579786530,0,-3,2,-2,-3,-3,1,-1
1513226579798538,0,1,-2,-2,0,-1,-1,0
1513226579798538,-2,-1,-1,-1,-3,1,1,0
1513226579807545,-5,1,0,-1,0,-1,-1,-1
1513226579807545,0,-2,-2,-2,-1,-2,-3,-1
1513226579822567,-5,-3,1,-1,-1,-2,0,-3
1513226579822567,0,2,-2,0,-1,0,-3,-1
1513226579823555,-2,0,-1,2,0,-1,1,0
1513226579823555,-3,-1,-2,-1,-2,1,-2,-1
1513226579844570,0,-1,-1,-1,-1,-3,-1,-2
1513226579844570,-1,-1,-3,-1,-1,-2,1,0
1513226579846582,-2,-2,-1,-2,-1,-1,1,-2
1513226579846582,-1,1,-2,-1,-1,-4,0,-3
1513226579858660,0,-1,-2,-3,-1,-1,0,2
1513226579858660,-2,-1,0,-1,-1,-1,-1,0
1513226579867731,1,-1,-2,0,-1,-1,-3,-1
1513226579867731,-1,-2,-2,-2,-1,-1,-2,-1
1513226579882742,-1,0,-3,-1,-3,-2,-2,0
1513226579882742,-3,-3,-1,-2,2,1,-1,1
1513226579883722,0,0,1,0,0,1,1,-1
1513226579883722,-1,0,-1,-2,-2,1,-2,0
1513226579904737,-1,0,-4,-2,-3,0,-2,-1
1513226579904737,1,0,1,-1,-2,-2,-1,0
1513226579906759,-2,-2,-1,-2,-1,-2,-2,-1
1513226579906759,0,-1,-2,-1,2,-3,-1,0
1513226579927752,0,-1,0,0,-1,-1,-2,-1
1513226579927752,-2,-1,-3,-2,0,-1,0,1
1513226579928755,0,-2,-1,-2,0,0,-1,1
1513226579928755,-2,1,-2,0,-1,-2,2,-2
1513226579942762,-2,0,0,-2,-1,-1,1,1
1513226579942762,0,-1,0,2,-1,-1,0,-2
1513226579943764,-1,-1,0,-3,0,1,0,1
1513226579943764,-2,-2,-1,-2,-2,0,-1,-1
1513226579964801,-1,2,2,0,-1,1,-1,-3
1513226579964801,0,0,1,-2,-1,-1,-1,0
1513226579966790,-1,0,-3,-2,-2,-1,-2,-2
1513226579966790,-2,-1,-2,-2,-1,-3,-2,-1
1513226579986794,-1,-1,-1,0,-3,-1,2,-1
1513226579986794,-4,1,-2,-2,0,1,-3,-1
1513226579994812,3,-1,-2,0,-2,-4,-1,0
1513226579994812,-1,-1,-1,-2,-1,1,-3,-1
1513226580002805,-3,-2,-4,-2,0,-1,-1,-1
1513226580002805,-1,-2,-1,-2,-2,-1,1,0
1513226580003806,-2,-3,1,-2,-3,0,1,-2
1513226580003806,-1,-1,-2,-2,1,-1,-1,-2
1513226580024843,0,-4,2,-2,-2,1,0,-2
1513226580024843,0,-2,-2,0,0,-1,-2,-1
1513226580026823,-2,-1,-3,-1,0,-2,-1,0
1513226580026823,-2,-1,0,-1,-3,-1,1,-1
1513226580047837,1,-1,1,-2,1,-1,-2,0
1513226580047837,1,0,-1,1,-1,-2,-2,-1
1513226580048853,0,0,1,-1,-1,-1,-3,-2
1513226580048853,-1,0,-1,-1,1,-1,-1,-2
1513226580061857,-2,-1,-2,-1,-1,-1,-1,0
1513226580061857,-1,-3,-1,0,0,-2,-1,-2
1513226580063849,-2,0,-1,-2,-1,0,0,2
1513226580063849,-3,0,-2,-1,-2,1,0,-2
1513226580084878,-3,-2,-1,-1,-1,-3,0,-2
1513226580084878,7,-1,0,-1,-2,-2,-1,2
1513226580086865,-4,-2,0,-2,-1,0,-2,-3
1513226580086865,0,-2,1,-3,-1,-2,0,-1
1513226580106888,0,0,-1,-1,-1,-2,-1,1
1513226580106888,-2,-1,-3,-2,1,1,-1,2
1513226580108880,-1,-1,-1,-1,-1,0,-1,-4
1513226580108880,-2,-2,-2,0,0,-4,-1,-1
1513226580121898,-1,-1,-2,-2,0,-2,-2,-2
1513226580121898,-4,1,-2,0,0,-2,-2,-1
1513226580128894,1,1,-1,-1,0,-3,0,0
1513226580128894,1,1,-2,-3,-3,0,0,-1
1513226580144906,-1,-1,-1,-1,0,1,0,-1
1513226580144906,-1,0,-1,0,-2,2,0,0
1513226580145906,-2,0,-1,-1,0,1,0,0
1513226580145906,-4,-1,0,-3,-2,-3,-2,-2
1513226580166930,4,0,-1,0,0,0,0,2
1513226580166930,-3,-1,-1,0,0,-2,-2,-1
1513226580168930,0,0,-2,-1,-3,-1,0,0
1513226580168930,-2,-2,-2,-2,-3,-1,0,-2
1513226580181941,-3,-2,-1,-1,-1,0,-1,-2
1513226580181941,-1,-1,0,-1,0,-1,-1,-1
1513226580196072,-3,-2,-1,-2,-2,-3,0,-1
1513226580196072,1,-1,-2,-2,-1,0,-2,-1
1513226580205056,-2,-1,-2,-1,-2,0,-3,-1
1513226580205056,0,-2,-1,-1,-1,-2,0,2
1513226580206056,-1,-2,0,0,-2,0,-2,-2
1513226580206056,0,0,-1,-2,-2,-1,0,-1
1513226580227071,-3,-2,-2,-2,-1,-2,-3,-3
1513226580227071,4,0,-1,-1,-1,0,0,1
1513226580229072,0,-2,-1,1,-1,-1,1,-1
1513226580229072,-2,-3,-2,0,-2,-2,0,-1
1513226580242080,-4,-1,1,-1,-1,2,0,-3
1513226580242080,-1,1,1,-2,1,-2,-1,-2
1513226580256106,-1,0,-4,-3,-3,-2,-3,1
1513226580256106,-2,-1,-2,-1,-1,1,0,-1
1513226580272101,-2,-1,-2,-1,1,-5,-2,-1
1513226580272101,-2,0,-1,0,0,-1,0,-3
1513226580274103,0,0,-1,-1,-2,-1,-1,-1
1513226580274103,-5,-4,0,0,0,-1,-1,-2
1513226580287112,4,-2,0,-1,-1,-1,-2,0
1513226580287112,-2,0,-2,0,-3,-1,-1,0
1513226580289115,-4,-1,1,1,-2,-1,-1,-2
1513226580289115,0,0,-1,-1,-1,1,-2,1
1513226580310143,-2,-2,-1,0,0,-1,-1,0
1513226580310143,-1,-4,-1,-2,1,0,-1,-1
1513226580311144,-1,-2,-1,-1,-3,-2,-1,-1
1513226580311144,-2,-1,0,-4,-3,-2,-2,-3
1513226580325139,-1,1,0,-1,-1,0,0,-2
1513226580325139,6,1,1,3,-3,-2,2,4
1513226580326139,-8,-6,-4,6,7,4,2,0
1513226580326139,3,-4,-1,-6,-8,-4,-2,-4
1513226580347179,0,-1,-1,-1,1,0,0,-2
1513226580347179,-3,-1,-2,-1,-2,-5,-2,-3
1513226580349157,6,4,0,-3,-4,-3,0,1
1513226580349157,-12,1,0,0,3,2,-1,-1
1513226580362247,2,-2,-1,3,3,0,1,5
1513226580362247,-6,-4,0,1,-2,-1,-3,-2
1513226580368249,2,-2,0,1,4,-1,0,0
1513226580368249,2,-2,-3,-1,-2,-1,-2,0
1513226580385261,0,0,0,-11,-6,-2,0,-2
1513226580385261,0,1,1,4,1,1,-1,-1
1513226580386238,-2,-1,0,-1,0,0,1,0
1513226580386238,-3,-1,2,2,5,0,-2,0
1513226580407266,-2,-2,-5,3,-3,-2,0,-1
1513226580407266,-2,3,8,48,-12,-6,-5,-3
1513226580409268,-7,-3,-5,-22,25,6,0,-4
1513226580409268,4,4,-5,-17,-8,-3,0,-1
1513226580421264,4,-5,-7,-9,-2,-1,-1,0
1513226580421264,-7,2,1,-14,-3,0,-2,0
1513226580430270,2,3,-3,7,-14,-7,-5,-3
1513226580430270,-6,-11,8,7,1,2,1,0
1513226580445293,-7,1,8,1,2,-1,-1,-5
1513226580445293,2,-10,-4,-3,0,-2,2,-1
1513226580446293,-6,-4,-1,0,-4,-1,-1,-1
1513226580446293,16,4,-5,-6,2,-2,1,5
1513226580467319,-7,-2,-3,3,-3,-3,-3,-3
1513226580467319,0,-4,-4,-11,5,0,0,0
1513226580469320,1,3,4,-1,-5,-3,-2,-3
1513226580469320,-8,-3,-4,2,-5,-4,-3,-7
1513226580481329,3,1,-1,4,0,1,2,5
1513226580481329,12,-6,-7,-10,0,-3,-5,-2
1513226580490329,0,1,0,-2,-4,1,-1,2
1513226580490329,-2,-3,0,4,-2,-2,-1,-4
1513226580505340,-2,-3,-4,-1,-1,0,-3,-3
1513226580505340,3,4,-8,-8,1,2,1,0
1513226580506326,0,2,-2,3,-3,-1,0,3
1513226580506326,-6,-5,-4,1,-1,-3,-2,-4
1513226580526339,-4,8,0,-3,1,1,0,1
1513226580526339,-9,-6,-12,-9,-2,-1,-1,-1
1513226580535345,2,-5,11,-1,-2,-5,-5,-5
1513226580535345,2,-1,-3,3,2,0,-1,-3
1513226580549369,0,1,5,-7,-2,0,0,0
1513226580549369,3,9,-7,4,1,4,3,5
1513226580551353,15,-6,-18,-6,-4,-3,1,1
1513226580551353,-10,4,13,5,6,1,2,2
1513226580564381,-1,-7,-9,-4,-3,-3,-3,-5
1513226580564381,-3,-5,-1,-11,0,-3,-4,-5
1513226580566374,3,0,-10,-8,0,4,7,8
1513226580566374,2,7,1,0,-3,-2,-5,0
1513226580587397,-3,-7,-1,2,-1,2,4,7
1513226580587397,-13,-7,1,-1,1,-2,-1,-8
1513226580589384,2,-1,-2,2,-3,0,-3,2
1513226580589384,-5,4,10,-1,-2,-2,0,-6
1513226580601411,1,11,5,6,-1,-3,-3,0
1513226580601411,-5,-7,-2,-8,-1,-1,-2,-2
1513226580625424,-8,-3,-5,-1,-4,-3,-2,-3
1513226580625424,10,-2,-7,-4,-2,1,0,4
1513226580626410,0,-12,-5,-5,-2,-3,-2,-5
1513226580626410,-4,8,0,5,0,0,2,2
1513226580628411,-6,-6,-1,3,-2,-3,-5,-5
1513226580628411,-8,-4,6,3,-1,-1,1,3
1513226580647486,6,6,-3,1,1,-1,-4,-6
1513226580647486,-4,-1,3,-4,0,-2,1,6
1513226580648423,-5,-5,-1,-2,3,1,-3,-13
1513226580648423,-4,-10,-17,-5,-4,-2,-3,-3
1513226580660473,-8,10,1,-1,-2,-1,-1,-8
1513226580660473,19,3,17,7,-2,0,2,12
1513226580669449,-2,1,-4,-1,-4,-4,1,-1
1513226580669449,14,-1,0,-6,-1,1,-1,-2
1513226580684499,-5,16,-6,1,2,1,1,1
1513226580684499,-4,-8,8,10,-5,-1,-3,-4
1513226580686468,-13,-17,14,-4,-1,-2,-1,0
1513226580686468,1,4,-5,-3,-3,-2,-3,-2
1513226580707463,-9,-11,-6,-8,-2,-2,-3,-6
1513226580707463,14,22,-3,-1,0,1,-2,1
1513226580708465,-14,-8,2,6,-1,0,0,-3
1513226580708465,0,-11,6,-5,-2,-2,1,0
1513226580720473,2,-3,-8,-7,-2,-2,-1,1
1513226580720473,-4,1,6,5,0,-1,1,8
1513226580729492,-2,14,-8,-3,-2,-2,-4,-4
1513226580729492,-8,0,-6,-9,-4,-1,1,-1
1513226580744511,4,-7,-4,-5,2,0,2,2
1513226580744511,-7,-3,-2,4,0,-2,-6,-13
1513226580746491,12,3,7,-5,0,2,2,4
1513226580746491,1,8,-5,3,1,0,-1,-2
1513226580767506,7,1,-6,0,0,-1,0,6
1513226580767506,-16,-11,-4,-7,1,0,-2,-6
1513226580768507,-4,-18,-9,0,-4,-3,-4,-8
1513226580768507,9,-1,-3,0,-1,-2,7,13
1513226580780527,13,-5,-4,0,0,-1,-7,-12
1513226580780527,-2,1,-1,0,-2,-2,-4,-4
1513226580789523,-6,6,-6,-2,1,0,-1,1
1513226580789523,1,-9,-6,0,1,-2,1,-1
1513226580812563,0,5,21,3,-3,-1,2,6
1513226580812563,-10,-4,-10,-13,-1,-1,8,3
1513226580813553,-12,-9,3,3,-1,-2,-6,-12
1513226580813553,-12,0,-17,-13,-6,-3,-10,2
1513226580827574,-11,1,-2,3,1,0,-8,-10
1513226580827574,20,3,2,8,2,0,-1,6
1513226580829565,-1,7,-6,-7,-3,-2,10,7
1513226580829565,0,3,2,-1,0,-2,-6,-14
1513226580849579,0,-10,5,5,2,3,6,12
1513226580849579,0,3,-9,-6,-3,-2,2,-1
1513226580851569,7,2,9,9,-2,-2,1,-1
1513226580851569,-5,6,-1,0,-1,1,9,7
1513226580864598,-4,-14,-6,-2,2,-2,3,14
1513226580864598,0,7,12,5,-1,-1,-25,-31
1513226580866589,-3,-1,-12,1,-1,0,-2,3
1513226580866589,11,-4,19,-4,-1,-1,-1,-8
1513226580887606,10,0,-3,2,-1,1,9,24
1513226580887606,-26,-9,0,-8,0,1,3,-16
1513226580888606,25,12,3,-4,-2,0,2,13
1513226580888606,-3,-19,20,17,4,-3,-32,-41
1513226580909613,2,-5,-15,-6,-2,-2,8,7
1513226580909613,-2,-6,-13,-8,-3,-4,-10,15
1513226580911613,-15,4,-2,3,1,-1,0,-28
1513226580911613,7,7,-13,-15,-2,-1,16,21
1513226580924642,-4,-9,17,15,5,-1,-27,-34
1513226580924642,12,-2,-32,-16,-6,-7,0,16
1513226580926619,1,0,10,5,-1,2,2,-9
1513226580926619,8,6,7,-1,-1,1,9,20
1513226580947658,11,4,5,-12,-8,-5,-8,-17
1513226580947658,6,-2,4,14,6,5,15,-6
1513226580948635,9,-3,-18,-12,-4,-5,-4,13
1513226580948635,-17,-4,4,1,-4,-5,7,-5
1513226580969664,12,7,-8,-3,1,0,-16,-3
1513226580969664,-1,-6,-14,-11,-7,-5,5,17
1513226580971653,4,-3,24,0,-1,-5,-13,-10
1513226580971653,-17,6,-6,5,3,4,4,0
1513226580984675,-6,-8,-6,-3,-1,-1,8,6
1513226580984675,-8,6,10,-1,-3,-1,3,-1
1513226580986676,15,3,3,17,9,6,-3,17
1513226580986676,-13,-22,-49,-15,-6,0,-2,-9
1513226581007688,4,9,16,-17,-1,-1,-6,-4
1513226581007688,10,3,-20,10,1,-1,1,7
1513226581013718,1,36,46,14,-1,-2,9,22
1513226581013718,-33,-16,6,-13,-6,-4,-2,-19
1513226581029733,-2,-24,-70,-16,-9,-4,-16,24
1513226581029733,8,14,16,-5,-1,0,-1,-44
1513226581031702,-17,-21,-27,-4,-3,-5,-9,-19
1513226581031702,12,23,7,15,7,4,8,24
1513226581043701,-12,2,46,32,10,3,-6,-23
1513226581043701,-18,-39,-19,-10,-6,-4,-2,11
1513226581050720,2,51,15,-2,-3,0,7,11
1513226581050720,29,-4,1,6,4,1,-27,-30
1513226581067727,-35,-5,-33,3,3,-1,15,-11
1513226581067727,7,30,30,11,5,4,-4,8
1513226581068720,-3,-26,-11,4,0,2,-10,-14
1513226581068720,-8,5,21,9,-1,-1,2,-7
1513226581089735,22,43,11,-11,-8,-6,4,45
1513226581089735,-14,6,-5,-5,0,2,6,-16
1513226581091736,29,-39,-27,-5,1,-5,5,2
1513226581091736,-6,28,-17,-6,-3,2,-4,-10
1513226581104779,8,-19,56,24,6,5,27,63
1513226581104779,37,-38,-40,4,-2,-2,-27,-36
1513226581110782,23,-8,-11,-8,4,5,16,20
1513226581110782,7,32,51,-7,-2,-4,-6,-9
1513226581128849,13,-5,2,3,5,3,26,-17
1513226581128849,6,13,-6,-2,-1,-2,-30,58
1513226581130855,11,-9,12,4,2,1,0,-40
1513226581130855,2,0,13,-6,-6,-2,3,11
1513226581149901,-28,-34,-77,-11,-9,-3,0,16
1513226581149901,28,-17,-21,-26,-9,-3,29,25
1513226581151871,-93,-12,-43,-5,0,1,-14,-70
1513226581151871,16,6,7,-23,-4,1,-1,54
1513226581163878,-2,-10,15,-2,-2,-3,-23,-57
1513226581163878,10,79,77,29,7,2,8,64
1513226581170860,-41,-99,-74,-39,-7,5,17,51
1513226581170860,69,36,49,6,-7,-18,-31,-51
1513226581186891,-84,-35,53,23,7,1,-45,-64
1513226581186891,17,5,-67,-5,1,1,-10,-36
1513226581188874,17,45,88,-3,-12,-11,-21,23
1513226581188874,-11,-5,-44,7,5,9,24,4
1513226581209908,10,-3,-110,-29,-15,-16,12,91
1513226581209908,-46,-44,2,0,-5,-1,-11,-70
1513226581211890,11,41,63,11,0,5,44,70
1513226581211890,-12,-32,24,16,3,-4,-5,2
1513226581224899,2,16,-50,-26,-2,4,25,3
1513226581224899,23,-6,22,-11,-4,-6,12,28
1513226581231904,-34,-70,-77,-21,-10,-7,-23,-117
1513226581231904,-9,-12,38,17,17,7,-31,-10
1513226581246983,25,48,57,29,11,6,-4,-18
1513226581246983,-29,13,-37,-19,-6,-3,23,31
1513226581247928,38,-49,-85,-10,-13,-7,-12,13
1513226581247928,-26,58,4,21,5,-6,-12,8
1513226581269930,10,-35,-18,-52,-10,3,15,-16
1513226581269930,-21,7,8,25,9,3,-18,-22
1513226581269930,38,55,81,11,6,-2,-8,25
1513226581269930,-89,-102,-107,-16,-8,0,23,-13
1513226581282939,74,18,47,1,-8,-2,-9,-59
1513226581282939,-21,36,27,-7,-6,-3,-1,10
1513226581291945,-9,65,66,8,8,10,27,69
1513226581291945,-4,-18,4,8,2,-1,-32,-59
1513226581306965,7,-25,45,23,7,5,31,52
1513226581306965,6,-28,2,-1,1,4,-35,-14
1513226581306965,-6,63,12,-10,-4,-6,-5,-14
1513226581306965,41,2,-18,-2,-3,-3,0,-29
1513226581328972,-34,-25,-15,19,-6,-5,1,28
1513226581328972,34,49,92,-19,3,1,6,-26
1513226581329972,-28,-26,-78,12,9,2,15,1
1513226581329972,52,-7,20,5,-10,-1,8,46
1513226581342981,2,44,93,16,6,-1,-22,-38
1513226581342981,14,-7,-66,-1,4,1,30,29
1513226581352034,-3,-18,-21,-51,-24,-8,-11,-14
1513226581352034,-8,4,32,29,16,4,41,56
1513226581367054,-17,-30,-34,-15,-5,-5,-35,-71
1513226581367054,-22,-39,-36,-16,-5,4,13,-7
1513226581367054,0,18,42,18,-4,-5,-13,11
1513226581367054,-9,44,35,-34,-16,-4,10,16
1513226581389065,-8,-40,-48,12,3,-2,55,33
1513226581389065,-14,-3,-2,-8,1,-3,-53,-25
1513226581390064,-9,-10,5,15,5,1,-13,25
1513226581390064,24,16,57,-11,-6,-2,3,-41
1513226581403073,6,40,-22,-2,1,-5,8,38
1513226581403073,-2,21,76,34,0,-3,2,-5
1513226581411078,11,-53,-75,-21,-3,-7,-3,-37
1513226581411078,-16,49,12,5,7,9,6,39
1513226581427085,-19,-22,-36,2,1,-2,-31,-40
1513226581427085,1,-51,10,14,-5,-4,3,27
1513226581427085,16,40,46,-14,1,4,2,2
1513226581427085,-1,-30,-31,6,3,-1,-8,32
1513226581449127,-39,4,-45,-21,-8,-3,-3,-38
1513226581449127,-22,12,27,-8,-8,-10,11,-24
1513226581450090,-21,11,-43,7,2,1,-17,-47
1513226581450090,10,2,28,-7,-13,-6,13,5
1513226581463157,11,-42,-53,-17,0,1,-16,10
1513226581463157,-6,-5,9,-10,-3,-4,0,-1
1513226581472105,10,18,56,17,1,-3,-3,3
1513226581472105,3,-18,-55,-11,-3,0,6,6
1513226581487116,5,55,73,22,4,3,10,52
1513226581487116,12,-25,-29,-4,-4,-8,-27,-54
1513226581487116,11,26,39,13,0,-2,-6,-7
1513226581487116,-6,-12,-24,-1,3,3,0,3
1513226581509131,3,-1,50,-23,-4,0,-6,16
1513226581509131,-15,24,-45,33,5,-3,-9,-21
1513226581510132,-30,-36,-37,-46,-1,3,14,26
1513226581510132,-9,-59,-16,24,-11,-3,-5,-13
1513226581523202,2,22,-2,-33,-1,-3,-7,3
1513226581523202,-16,-5,50,35,12,8,15,9
1513226581531207,-16,-70,-36,10,-2,-6,-9,-24
1513226581531207,-13,1,-38,-4,0,-1,10,2
1513226581546236,2,16,10,-7,-3,2,-5,14
1513226581546236,19,-21,22,8,6,6,5,8
1513226581547229,14,65,39,4,-2,-1,14,24
1513226581547229,-19,-50,-55,-38,-4,-1,-18,0
1513226581569234,23,12,45,44,5,-1,-6,-28
1513226581569234,-7,6,-23,-38,-9,0,11,15
1513226581570235,9,-24,-21,14,1,-2,7,13
1513226581570235,-2,36,-42,-38,-7,-6,-20,-19
1513226581583244,-2,-14,-22,8,1,0,-8,-40
1513226581583244,-4,-30,-11,16,6,5,-4,-4
1513226581592250,13,47,1,14,0,0,-12,-11
1513226581592250,-1,8,15,-7,2,-1,5,6
1513226581606273,28,-15,14,5,0,0,11,8
1513226581606273,2,37,6,7,4,5,-1,13
1513226581607260,-12,-43,-51,-2,-2,0,-9,-15
1513226581607260,1,39,13,-7,-4,-4,-2,-19
1513226581629290,-6,-17,-3,2,1,-1,-9,15
1513226581629290,-6,48,8,-19,-7,-8,8,6
1513226581630278,10,20,58,1,-2,-2,4,3
1513226581630278,-17,-6,-37,-12,1,-1,-3,-6
1513226581643311,-6,-8,14,8,2,0,-1,-5
1513226581643311,15,24,18,0,-7,-2,24,25
1513226581651369,-4,-62,-59,-4,0,-2,-28,-13
1513226581651369,12,23,10,13,-1,0,4,7
1513226581666302,-23,22,-7,-20,-6,-3,2,-10
1513226581666302,2,-34,21,14,7,5,5,9
1513226581667303,12,17,23,-13,-4,0,6,7
1513226581667303,3,5,51,22,6,1,-7,-16
1513226581689319,-11,-14,-61,-2,-5,0,8,10
1513226581689319,-15,-23,9,0,1,-3,-2,28
1513226581690321,-11,10,-39,-21,-3,0,8,-37
1513226581690321,-23,-18,-2,22,2,1,-3,9
1513226581703328,-3,20,16,-6,-3,-1,-11,1
1513226581703328,11,-28,21,-11,-1,0,14,-4
1513226581711334,-14,24,4,16,-2,-3,-3,27
1513226581711334,-10,-43,8,-38,-6,2,-9,-61
1513226581726348,25,28,36,16,2,2,20,22
1513226581726348,-16,-58,-72,-9,0,2,-16,-21
1513226581727345,30,-43,28,2,1,3,-2,6
1513226581727345,11,-1,25,20,4,-2,13,-22
1513226581749361,-5,11,54,9,2,-2,1,8
1513226581749361,-5,-43,-105,-14,-2,-1,9,0
1513226581750362,19,19,13,-12,-7,-7,-4,17
1513226581750362,8,-18,-1,4,-4,-3,-8,1
1513226581763371,15,-3,-2,-38,2,2,0,1
1513226581763371,1,5,20,18,2,0,2,9
1513226581771377,-17,-8,7,19,1,1,-2,-22
1513226581771377,6,7,-26,-29,-11,-6,4,28
1513226581786405,-15,-10,-39,8,-1,-2,-3,-17
1513226581786405,11,26,33,10,-3,1,-3,11
1513226581787389,-8,-2,-27,-8,-3,-1,1,-1
1513226581787389,13,17,55,4,2,2,-9,13
1513226581809404,3,15,-11,12,-3,-2,-1,0
1513226581809404,-1,-4,-3,-36,-9,-8,9,-2
1513226581809404,-4,32,22,12,1,1,-9,-10
1513226581809404,-14,-22,-43,3,3,-2,1,0
1513226581832421,-1,10,41,2,-1,-2,8,1
1513226581832421,-3,-14,-31,4,0,0,-2,-18
1513226581833421,-16,15,19,-16,-8,-6,1,-2
1513226581833421,16,12,12,12,8,4,0,8
1513226581846433,-7,-15,14,11,2,1,7,32
1513226581846433,13,9,36,-10,-7,-2,-18,-56
1513226581847433,-1,2,-15,-7,-3,-3,-4,2
1513226581847433,-9,2,5,-3,-1,0,1,8
1513226581869446,-4,-23,-12,18,3,-1,-18,-31
1513226581869446,23,-5,-12,-4,-2,-1,10,17
1513226581869446,14,34,9,-8,1,0,-12,-4
1513226581869446,-23,-58,-44,-9,2,2,-10,-12
1513226581892502,3,-5,6,-12,-7,-4,-1,-3
1513226581892502,-15,2,-34,14,12,-1,-4,9
1513226581892502,14,-27,-6,5,3,2,12,19
1513226581892502,-5,10,9,1,-4,-2,-14,-21
1513226581906488,0,-30,-33,-11,-7,-3,-1,-6
1513226581906488,-8,-18,14,4,-5,0,-13,9
1513226581907473,-11,4,15,12,-9,-5,15,-4
1513226581907473,6,33,5,10,22,0,8,22
1513226581929522,-6,6,-28,-24,0,3,-2,-6
1513226581929522,15,27,21,-2,-11,-3,-4,4
1513226581929522,-9,-18,18,9,6,3,1,6
1513226581929522,-20,-32,3,-3,-18,-10,12,-25
1513226581952562,0,13,-26,-4,6,1,-15,-11
1513226581952562,4,9,19,3,5,1,9,19
1513226581953543,0,37,20,6,-3,-1,-5,-10
1513226581953543,-14,-2,10,-5,-1,2,4,20
1513226581966514,-5,9,-11,-10,-6,-5,-11,-29
1513226581966514,2,-5,-6,-17,-5,1,4,13
1513226581967515,-2,1,18,-1,3,2,6,-4
1513226581967515,15,44,29,-1,-2,-3,-13,9
1513226581988588,-7,-16,-50,14,2,3,21,28
1513226581988588,-11,-15,-21,6,4,0,-48,-25
1513226581989543,9,2,15,-9,-1,1,-14,-22
1513226581989543,3,15,-4,-16,-8,-3,-4,-4
1513226582012622,-6,11,27,19,8,4,22,36
1513226582012622,-10,31,-4,-7,-10,-9,-29,-33
1513226582012622,0,-20,-53,-15,2,2,4,-7
1513226582012622,5,5,38,24,-7,0,-7,-12
1513226582026625,16,40,40,-9,5,2,4,4
1513226582026625,-21,-51,-49,18,6,0,12,-3
1513226582027627,2,8,26,18,-1,-3,2,16
1513226582027627,3,14,-55,-27,-11,-6,-8,-2
1513226582048636,2,-17,28,4,-5,-1,19,15
1513226582048636,-14,28,27,-4,4,1,11,11
1513226582049654,2,-12,5,-20,-3,1,-26,-33
1513226582049654,-12,-44,-62,-4,2,0,-5,-4
1513226582072710,6,-21,34,11,0,-1,-10,7
1513226582072710,-2,0,-33,-15,-2,-1,20,31
1513226582072710,-2,5,1,6,1,-4,-24,-46
1513226582072710,-13,-36,-18,-5,2,2,1,15
1513226582086719,0,-20,-76,-22,-7,-3,-18,-29
1513226582086719,13,3,49,10,-2,-2,5,7
1513226582087719,-24,50,-19,3,-2,-1,12,15
1513226582087719,17,12,32,-36,-4,0,8,10
1513226582108746,-17,-9,-26,-2,-5,-8,-11,-6
1513226582108746,-1,21,70,19,5,2,8,7
1513226582109734,-15,-55,-66,13,1,-1,17,18
1513226582109734,9,8,-16,2,7,1,-11,-12
1513226582132752,-4,-36,7,0,-1,0,-10,-16
1513226582132752,-1,26,36,3,1,1,5,-2
1513226582132752,16,-28,11,-8,-7,-6,11,24
1513226582132752,-10,-15,-43,26,22,7,-1,-14
1513226582146787,21,14,20,5,-4,0,-1,13
1513226582146787,4,35,-18,-28,-8,-4,-11,-13
1513226582147781,2,18,22,-1,2,3,4,8
1513226582147781,7,-54,-15,0,-9,-4,6,34
1513226582168854,-9,7,-26,11,4,1,-1,-22
1513226582168854,-21,-23,-14,-1,4,3,1,-5
1513226582169844,-6,-4,13,-2,0,0,14,4
1513226582169844,16,33,0,-12,-9,-5,-6,-19
1513226582199865,-7,13,29,13,5,0,6,8
1513226582199865,13,4,22,-11,-12,-7,-7,-4
1513226582200867,5,-6,-14,-2,1,0,10,15
1513226582200867,-19,-27,-39,15,-1,-1,7,4
1513226582214876,-6,-5,-9,-32,-7,-4,-27,-16
1513226582214876,-7,1,19,16,1,2,6,4
1513226582216877,4,0,-8,-23,-6,0,-10,-5
1513226582216877,-26,4,35,14,4,3,0,4
1513226582228885,21,66,23,17,-17,-7,2,0
1513226582228885,-8,9,-4,-12,-1,-4,-4,-26
1513226582229886,-10,-24,7,-2,10,5,-1,2
1513226582229886,3,11,-19,-1,-1,2,4,4
1513226582251905,-1,-2,36,1,-5,-3,13,25
1513226582251905,-6,-17,-8,22,-6,-7,-30,-27
1513226582252903,12,-15,5,-5,-4,-2,-6,-4
1513226582252903,1,34,3,-9,-4,-3,-7,-8
1513226582266925,20,29,-2,-12,-3,-1,5,7
1513226582266925,6,-4,3,-3,0,5,8,18
1513226582266925,2,-8,-22,-20,-3,-3,-7,-18
1513226582266925,21,-2,26,12,-1,-1,-1,2
1513226582288942,-32,-10,21,8,6,1,-6,-3
1513226582288942,8,-9,-82,-2,3,-2,5,-14
1513226582289929,-2,-9,-14,-8,-9,-5,-4,4
1513226582289929,2,-16,53,10,0,-2,7,24
1513226582311958,-14,13,-27,-12,-4,-2,-2,-39
1513226582311958,1,-38,-8,-9,3,1,2,19
1513226582312947,-2,10,3,3,-3,0,5,9
1513226582312947,-12,-4,-1,-6,-2,2,-3,-21
1513226582326955,8,3,27,5,7,2,-2,15
1513226582326955,8,3,6,4,0,0,4,4
1513226582326955,-6,-20,6,19,7,2,-11,-1
1513226582326955,16,1,-47,-23,-9,-6,-4,-6
1513226582348999,-4,-58,7,4,4,2,6,9
1513226582348999,-2,-8,38,10,-1,-4,-26,-38
1513226582349984,-2,45,33,1,1,0,0,-2
1513226582349984,6,28,-5,12,2,0,0,-8
1513226582372038,0,-25,-49,-15,3,2,9,27
1513226582372038,6,-9,16,8,6,1,-10,-40
1513226582373041,0,9,39,-2,-6,-5,-4,2
1513226582373041,-7,-19,-30,-8,0,1,11,12
1513226582387074,3,3,-5,12,2,1,-8,-8
1513226582387074,-9,-6,-33,-17,-10,-5,8,30
1513226582387074,12,-5,-26,-3,0,0,0,-14
1513226582387074,-12,-16,48,2,0,-1,0,11
1513226582409075,-3,9,-5,3,1,0,-2,-20
1513226582409075,-5,-6,-2,-14,-5,-5,-7,13
1513226582410067,-6,-6,-2,15,2,2,-1,0
1513226582410067,1,-7,45,1,1,0,-3,-2
1513226582432095,0,-25,9,-7,-6,-2,6,2
1513226582432095,6,49,29,9,-2,-1,-5,-2
1513226582433083,-15,-26,-54,-14,-4,-3,1,-2
1513226582433083,4,27,34,11,3,2,-2,0
1513226582446105,-17,6,2,13,3,-3,-15,-12
1513226582446105,2,-1,-58,-11,3,1,16,8
1513226582454119,-9,-14,3,3,2,1,-15,18
1513226582454119,-12,-6,5,-4,-3,-2,-4,-32
1513226582477112,15,38,4,14,4,2,-3,-4
1513226582477112,5,18,31,5,-5,-2,9,26
1513226582478113,3,-24,-28,-2,5,-4,7,0
1513226582478113,-7,-1,-53,-14,2,2,-1,-17
1513226582492123,30,-14,30,8,-8,-4,-10,3
1513226582492123,9,50,16,12,0,1,5,-4
1513226582493123,1,-51,-18,-21,7,1,-6,3
1513226582493123,-6,7,8,2,-4,-3,20,33
1513226582506149,-2,0,-1,-20,-1,-4,-26,-45
1513226582506149,3,0,-21,5,-5,3,10,11
1513226582514161,-4,-2,15,10,-4,0,0,-11
1513226582514161,2,-13,-8,-6,0,1,10,10
1513226582529161,20,33,-8,7,4,1,6,14
1513226582529161,8,-31,5,-25,-4,0,-4,-6
1513226582530150,-12,-14,15,10,-3,-4,0,-3
1513226582530150,5,37,13,-13,-11,-4,-9,-7
1513226582552237,-4,20,28,-19,-4,-3,2,7
1513226582552237,-4,-14,-3,5,2,-3,-8,-15
1513226582553168,1,20,4,6,-3,1,6,1
1513226582553168,6,4,-7,19,4,-3,0,15
1513226582566176,20,7,18,-9,1,2,-1,-9
1513226582566176,-22,-34,-32,-17,-7,-3,6,9
1513226582574181,19,22,22,-8,-2,0,13,8
1513226582574181,-4,20,23,19,3,-4,-38,-15
1513226582589192,-48,-24,-10,-7,-5,-1,14,9
1513226582589192,2,25,64,1,6,3,-10,-16
1513226582590193,4,8,-1,6,-4,-2,14,12
1513226582590193,3,-7,-24,-9,-1,-3,-18,-20
1513226582612208,-19,2,-2,20,3,-3,1,-1
1513226582612208,7,-11,-39,-43,-6,2,2,12
1513226582613209,-10,-2,29,-1,-5,-7,-9,-17
1513226582613209,1,-27,5,-14,-8,-4,10,11
1513226582626230,5,11,-9,12,5,1,-3,-4
1513226582626230,-23,-45,-21,23,3,0,6,1
1513226582634241,1,30,6,-8,0,0,-8,-2
1513226582634241,-3,-38,-31,-6,0,1,12,16
1513226582649246,6,-22,-11,14,0,0,-19,-37
1513226582649246,1,28,-46,-21,-7,-4,1,1
1513226582650235,10,22,-17,5,1,0,10,-2
1513226582650235,-4,-10,31,3,0,1,-1,6
1513226582672251,0,10,27,5,-1,-2,0,18
1513226582672251,4,-5,-10,-3,3,-2,-4,-20
1513226582673252,-14,-13,-4,-11,-10,-3,-2,-12
1513226582673252,-5,21,5,1,3,-1,-8,-6
1513226582686261,8,-28,-20,-6,1,-1,5,8
1513226582686261,-5,25,24,20,-1,-4,-7,5
1513226582694266,7,10,20,-7,2,2,7,13
1513226582694266,19,-8,12,3,2,2,1,5
1513226582709276,-28,-10,-11,5,-1,-1,-3,-21
1513226582709276,-10,-59,-30,-7,-2,-1,5,7
1513226582710290,0,49,-10,-4,-2,2,-3,-4
1513226582710290,6,12,24,14,2,0,-4,-7
1513226582732296,-7,-41,-46,-26,0,1,7,7
1513226582732296,2,17,-33,-19,-10,-4,3,3
1513226582733294,0,-10,38,5,1,2,-11,-13
1513226582733294,-13,-22,-23,1,4,4,1,-10
1513226582746304,-7,6,-20,7,-2,-1,7,22
1513226582746304,25,-8,56,24,3,-3,-2,-3
1513226582754310,-23,-1,-17,-27,-2,-1,15,11
1513226582754310,-3,48,-1,1,-4,-3,-19,-32
1513226582769338,29,0,31,11,-5,-5,10,14
1513226582769338,-14,-13,-10,-10,1,-1,-9,-8
1513226582770320,-5,-26,14,15,3,1,5,-1
1513226582770320,5,-3,-14,-4,-1,-1,8,-1
1513226582792347,0,17,-20,-9,-4,-1,-1,-2
1513226582792347,6,20,34,8,2,2,7,20
1513226582793351,-1,-26,-48,-1,-5,-1,-16,1
1513226582793351,-3,-20,18,-2,9,0,12,3
1513226582815352,5,15,-10,8,-3,-1,-6,-3
1513226582815352,12,39,17,-9,-5,-1,8,5
1513226582816352,13,-5,-52,-23,-9,-5,-23,-13
1513226582816352,2,12,5,28,-5,-4,3,5
1513226582828402,-4,-52,-6,1,27,6,3,9
1513226582828402,-21,8,-4,-10,-8,-1,-11,-24
1513226582836407,19,12,-33,10,0,-3,2,-5
1513226582836407,-28,-12,9,-21,-10,-1,6,-1
1513226582852418,17,18,3,9,-3,-2,-12,11
1513226582852418,3,-19,-35,0,4,1,-2,9
1513226582853379,-14,-32,0,-10,-4,-4,-1,-8
1513226582853379,6,41,15,8,-3,0,7,9
1513226582874411,-18,-34,10,3,4,2,7,12
1513226582874411,-6,20,23,3,1,0,-13,-29
1513226582875397,0,-25,-5,0,0,-3,7,26
1513226582875397,-2,20,-1,-8,-5,-6,-7,-22
1513226582889418,-4,24,17,-16,-9,-4,1,-8
1513226582889418,-21,-18,20,9,-1,1,6,3
1513226582889418,1,14,-6,7,-1,-1,-8,7
1513226582889418,-8,5,-38,3,5,0,-9,-11
1513226582912448,-36,-12,0,-15,-6,2,-1,-8
1513226582912448,17,8,-9,-7,3,0,17,39
1513226582913423,1,29,69,33,3,-5,-38,-41
1513226582913423,-12,-50,-32,-37,-4,1,5,5
1513226582934489,7,24,18,1,-9,-6,-13,-22
1513226582934489,1,32,29,13,0,1,2,6
1513226582935447,-19,2,-13,-12,-2,-1,4,2
1513226582935447,23,40,20,3,0,-2,-4,-1
1513226582949464,-3,-46,-17,-7,-10,-6,-8,-6
1513226582949464,-7,-11,-4,0,1,-3,-2,8
1513226582949464,5,30,60,-7,1,1,18,1
1513226582949464,-5,-35,-17,12,1,-6,-30,-10
1513226582972464,-23,16,13,1,2,5,9,11
1513226582972464,4,-35,-5,4,0,0,-8,-21
1513226582973465,-10,-30,-56,-24,-6,-1,8,9
1513226582973465,19,9,18,-2,3,1,9,10
1513226582994504,0,16,13,9,0,0,10,-5
1513226582994504,8,-19,-24,-1,-2,-3,-20,-16
1513226582995504,21,-3,75,21,3,0,4,-1
1513226582995504,-7,-18,-26,-22,-6,-1,1,8
1513226583009504,3,-18,-36,4,7,2,2,1
1513226583009504,0,45,9,4,-5,-3,9,-1
1513226583009504,19,22,0,-8,-3,5,4,4
1513226583009504,-16,-53,-32,-2,-2,-3,-5,1
1513226583032518,-4,19,13,-3,1,-3,-3,5
1513226583032518,-4,-28,-7,-25,-7,-3,16,46
1513226583032518,6,2,40,14,3,-1,-23,-59
1513226583032518,-3,1,-11,7,0,0,-14,-19
1513226583054577,-1,13,10,-2,-2,-1,-2,-2
1513226583054577,-27,-10,2,-16,-8,-3,5,4
1513226583055522,-11,17,15,4,0,-2,0,2
1513226583055522,7,-10,6,7,-4,0,20,13
1513226583068530,6,6,-37,-27,-7,-8,-18,-25
1513226583068530,6,6,1,-4,3,1,-12,-14
1513226583069538,-6,0,-40,3,-2,-3,5,17
1513226583069538,29,4,-5,16,6,5,9,-15
1513226583092547,6,40,82,4,2,-1,3,10
1513226583092547,7,-28,-48,20,1,-3,-3,11
1513226583092547,-17,-20,-13,-4,2,-1,-3,-23
1513226583092547,11,24,39,-14,0,2,2,12
1513226583115564,14,24,-14,11,-1,0,10,27
1513226583115564,-29,-40,8,-4,-4,-2,-1,-26
1513226583116564,-22,-11,-33,6,-7,-4,-13,2
1513226583116564,10,44,74,12,8,4,4,6
1513226583129596,-6,-46,-57,-5,1,1,9,1
1513226583129596,15,26,55,6,2,3,2,-1
1513226583130576,-4,-4,-38,6,1,1,8,15
1513226583130576,-45,-46,-45,-6,-5,-4,-9,-25
1513226583152646,19,15,45,-8,-2,1,13,8
1513226583152646,-18,-10,-12,5,-1,-3,-8,-4
1513226583152646,5,1,-8,-19,-6,-6,-7,-7
1513226583152646,9,22,5,-3,1,-2,-3,2
1513226583174605,11,-1,-27,9,2,0,-7,-2
1513226583174605,-11,-6,-1,12,2,2,9,-4
1513226583175611,15,61,24,2,0,3,20,23
1513226583175611,-4,-26,-28,-30,-8,-3,16,17
1513226583188673,-5,-37,-18,6,-1,1,-5,0
1513226583188673,22,64,29,11,3,-1,-8,-12
1513226583189617,7,-7,-35,0,3,2,6,12
1513226583189617,-19,-27,3,1,2,-4,-3,-1
1513226583212655,13,18,27,-8,-3,0,-7,-5
1513226583212655,-4,-23,-49,19,0,0,21,29
1513226583212655,-18,-39,52,-4,6,0,-42,-46
1513226583212655,12,-4,-33,7,-4,-2,-9,-6
1513226583234673,-15,-15,-62,-21,-11,-10,-13,-9
1513226583234673,1,11,12,-22,-1,3,4,9
1513226583235670,3,25,8,2,-6,-4,6,10
1513226583235670,3,24,24,-10,-2,0,-1,-5
1513226583248673,-22,-62,-4,16,4,0,-6,5
1513226583248673,3,16,-32,-1,-10,-6,5,-5
1513226583257679,-1,19,-5,-26,4,0,0,-6
1513226583257679,-9,-15,14,17,0,2,-1,-5
1513226583271674,10,34,14,20,3,-1,7,0
1513226583271674,-3,-32,9,-25,-4,-2,-12,-11
1513226583272675,4,-7,19,8,-3,-3,2,8
1513226583272675,7,-7,-23,3,3,5,18,29
1513226583294705,4,16,-1,-12,-10,-7,-25,-40
1513226583294705,-19,16,27,9,-1,-4,-5,-5
1513226583296712,-21,-73,-95,-10,-1,0,-10,-15
1513226583296712,21,32,54,3,-1,-5,-4,5
1513226583308712,-22,-30,-55,-5,-3,-3,6,0
1513226583308712,19,-12,-36,-29,-2,-5,-27,-19
1513226583323713,-8,2,29,7,2,2,6,16
1513226583323713,3,-8,8,20,4,3,1,-5
1513226583331719,15,6,6,0,2,4,17,18
1513226583331719,-19,5,18,0,-3,-6,-29,-12
1513226583333718,-6,-37,-9,4,1,-3,-7,-15
1513226583333718,-18,9,-17,7,-1,-6,-6,0
1513226583354734,6,38,21,-7,4,1,-7,8
1513226583354734,11,-11,-23,-11,-2,1,4,-6
1513226583356737,11,24,52,5,-1,3,12,0
1513226583356737,-14,-10,-14,17,9,3,-5,-4
1513226583368785,-7,-9,51,-13,-6,-1,7,10
1513226583368785,-20,9,-13,-11,-3,-4,-1,-9
1513226583377797,11,-7,-23,12,3,2,9,11
1513226583377797,-6,-14,-37,-8,1,-1,0,-8
1513226583391808,-12,34,30,-9,-8,-4,-3,2
1513226583391808,-6,-49,-29,3,4,5,1,0
1513226583393790,-10,30,36,11,-1,-1,8,12
1513226583393790,13,20,-18,-38,-8,-7,-10,10
1513226583414818,-14,-71,-40,9,3,-1,-25,-41
1513226583414818,14,12,17,5,-1,2,-1,-18
1513226583417818,2,19,-12,16,-2,-5,-5,8
1513226583417818,-9,-12,-2,-17,-6,0,2,1
1513226583428815,0,-10,-5,-7,-6,-1,5,13
1513226583428815,20,29,31,13,-4,-4,-10,-15
1513226583437843,3,12,-5,-13,1,2,28,28
1513226583437843,12,10,12,22,4,1,-18,-44
1513226583451848,-13,-3,0,-6,0,-1,0,-4
1513226583451848,24,-39,-9,7,1,1,4,12
1513226583453850,1,-12,25,-8,-3,1,14,28
1513226583453850,-2,4,16,3,-2,1,-17,-35
1513226583474869,13,7,29,33,8,5,11,19
1513226583474869,-3,0,-32,-16,1,-1,-8,-7
1513226583476862,-2,-9,0,-21,-13,-10,-8,-6
1513226583476862,-2,29,11,-9,1,7,8,7
1513226583488871,6,5,-15,16,1,-3,6,3
1513226583488871,11,9,-46,-2,1,2,16,17
1513226583497874,5,-5,-16,-15,-3,2,-8,-4
1513226583497874,-8,-14,24,19,2,-1,9,17
1513226583511874,6,26,-4,-17,-5,-1,-7,-5
1513226583511874,-18,-29,-23,-1,-3,-8,1,7
1513226583513875,4,-8,-15,-16,-11,-9,-15,-13
1513226583513875,-25,-13,19,6,1,3,19,18
1513226583534893,-10,32,-9,5,1,-1,-20,-15
1513226583534893,-4,-11,1,0,3,3,3,1
1513226583536892,0,19,12,-31,-10,-4,-7,-6
1513226583536892,11,15,-17,-5,-1,-3,1,14
1513226583548922,16,25,79,15,-1,-5,-18,-16
1513226583548922,-5,38,4,-4,-1,-1,3,1
1513226583557910,4,15,18,18,5,3,0,-10
1513226583557910,5,-31,-63,-12,-2,0,-5,8
1513226583571938,2,14,-4,-9,-3,-3,-2,-6
1513226583571938,-3,-29,9,0,-2,0,5,35
1513226583573919,3,-24,-19,-3,-2,-4,-20,-52
1513226583573919,9,55,19,15,-2,-5,6,6
1513226583594958,-8,-24,25,0,3,1,17,7
1513226583594958,15,23,15,-7,1,3,-10,15
1513226583595943,-14,-4,-2,1,0,0,-4,-3
1513226583595943,1,-28,-32,1,-2,-2,-2,-2
1513226583607957,-12,-43,-33,-3,-1,3,6,5
1513226583607957,0,8,46,-7,-5,-5,0,-18
1513226583617959,-5,-24,-17,4,1,1,-2,1
1513226583617959,-10,-27,-3,14,1,-1,-2,-8
1513226583631970,20,25,-24,-44,-7,-3,8,30
1513226583631970,-12,13,-3,5,-1,-4,-14,-54
1513226583633961,-1,18,21,24,8,4,1,10
1513226583633961,-17,-39,-38,-13,-5,-4,7,6
1513226583655014,-1,6,-27,0,-3,-2,-5,-10
1513226583655014,2,-5,2,2,-2,-2,-2,4
1513226583655988,17,3,6,8,2,0,3,3
1513226583655988,-9,-15,-2,6,-1,-5,8,-6
1513226583667984,-22,-13,3,-15,1,1,-23,-19
1513226583667984,-9,-15,20,13,5,6,9,8
1513226583676990,-18,-33,-32,-3,-3,-3,-5,-10
1513226583676990,28,72,64,-11,-6,2,9,15
1513226583692001,-1,-23,1,28,6,1,3,-3
1513226583692001,-4,4,-29,-25,-12,-10,-4,-2
1513226583694002,-6,-28,7,-16,0,3,10,20
1513226583694002,26,30,-1,5,2,-1,-25,-33
1513226583715017,3,-1,33,-3,-8,-2,11,4
1513226583715017,-6,-35,-81,3,0,1,5,-3
1513226583717018,-10,29,34,7,4,4,10,15
1513226583717018,-7,-26,-13,-10,1,-1,-5,2
1513226583737033,10,31,13,4,1,3,4,0
1513226583737033,-3,-47,32,3,0,-1,5,6
1513226583739034,-6,27,19,10,-5,-5,-2,-14
1513226583739034,4,-23,-29,-23,-3,2,-7,9
1513226583751043,1,16,-13,9,0,-3,15,-12
1513226583751043,11,34,22,0,-2,1,2,-2
1513226583759048,-11,6,-27,1,-1,-4,-14,-2
1513226583759048,-17,-27,16,1,-4,-5,-9,-28
1513226583775072,0,-10,-1,-4,0,0,10,20
1513226583775072,5,8,11,8,-3,-3,2,4
1513226583776063,-8,19,-51,-7,-1,-2,-1,-15
1513226583776063,-6,8,32,-19,-2,-1,14,23
1513226583797078,-30,-67,-72,-7,-1,0,-9,-9
1513226583797078,8,22,13,0,-4,-2,-4,-1
1513226583799092,11,14,38,16,2,3,4,13
1513226583799092,-10,16,7,-4,-7,-3,-3,-2
1513226583812086,-12,-5,-60,-26,-4,0,-10,-4
1513226583812086,0,12,20,18,4,-2,0,12
1513226583815088,3,-37,-25,-6,0,0,1,-21
1513226583815088,-10,12,-15,0,-2,-2,-4,-7
1513226583835105,4,9,-15,-9,-4,0,1,-6
1513226583835105,8,15,34,23,6,1,-4,3
1513226583836103,19,16,31,-22,-5,-4,-1,-1
1513226583836103,-32,-42,-59,14,5,-1,1,16
1513226583856130,26,-15,53,23,1,-4,-33,-21
1513226583856130,-7,12,26,-3,-1,1,4,-1
1513226583865200,13,-13,-71,-38,-6,-2,-10,-5
1513226583865200,4,-7,81,23,7,2,11,23
1513226583879209,-7,-11,-50,-6,-3,-2,-7,-12
1513226583879209,1,-3,-4,1,1,3,13,29
1513226583881211,2,0,25,18,0,-2,-12,-57
1513226583881211,-12,2,-11,-6,-2,-1,-2,13
1513226583895224,10,26,19,3,-3,-6,6,7
1513226583895224,-10,-70,-38,-18,-3,0,-6,-16
1513226583896222,-4,1,13,-3,0,1,5,9
1513226583896222,6,51,-6,19,4,0,5,5
1513226583917250,-10,-37,-14,-24,-2,0,2,2
1513226583917250,-21,-22,9,6,-2,-3,-7,-13
1513226583919251,-3,16,25,-10,0,0,7,10
1513226583919251,10,-14,-10,-4,-7,-3,-3,-10
1513226583931260,3,15,-26,13,2,-2,-6,-11
1513226583931260,-18,6,-7,-10,-3,-3,-8,-12
1513226583938276,0,-15,-67,7,-1,1,6,20
1513226583938276,9,-24,-10,-14,1,2,-2,-9
1513226583955291,9,15,9,18,5,3,12,16
1513226583955291,-9,-28,-39,-23,-6,-4,3,-4
1513226583956265,-8,7,10,19,3,0,-12,-2
1513226583956265,10,-7,18,10,2,1,1,-1
1513226583977304,-4,4,17,-4,0,0,3,4
1513226583977304,22,10,-44,-8,-3,-1,1,-13
1513226583979281,4,-8,5,-1,-1,-1,8,25
1513226583979281,-6,-23,17,16,4,1,-5,-17
1513226583991314,-3,34,43,-17,-8,-5,-12,4
1513226583991314,-10,-9,-21,16,5,2,-5,-5
1513226583998309,9,-26,14,-19,-4,-3,-13,-13
1513226583998309,4,21,-12,0,-3,-3,0,3
1513226584015308,-20,-4,14,12,3,1,11,2
1513226584015308,-3,8,23,-7,-8,-5,-14,-6
1513226584017318,0,-3,-32,-11,-1,1,-1,3
1513226584017318,-9,-17,-18,-5,-4,-4,0,14
1513226584037337,27,36,44,17,2,0,-14,-11
1513226584037337,0,-19,20,-16,-5,-1,-4,1
1513226584039335,-14,-9,-21,6,0,-3,0,-5
1513226584039335,6,11,17,3,0,-1,-2,13
1513226584051363,-27,-56,9,-12,-6,-3,16,-12
1513226584051363,-1,4,-67,1,4,-4,-20,-9
1513226584058363,11,6,31,6,1,1,2,-10
1513226584058363,1,24,34,-2,2,1,-4,-9
1513226584074374,-10,-2,-8,-1,-3,-3,9,21
1513226584074374,9,40,5,-6,-5,-2,15,24
1513226584076350,-22,-66,-35,-6,-8,-8,4,-26
1513226584076350,10,21,15,-5,1,2,-11,-33
1513226584097366,12,-21,-27,-7,-1,3,14,14
1513226584097366,-2,46,44,8,-2,-5,-25,-12
1513226584099368,4,23,65,22,-3,-3,8,18
1513226584099368,6,-38,-78,-22,-2,0,3,-6
1513226584111390,8,-20,29,6,-4,-5,-9,4
1513226584111390,-43,57,33,2,1,2,7,-11
1513226584118391,5,-16,23,-3,2,4,-5,0
1513226584118391,-6,-12,-4,5,-2,1,6,0
1513226584142395,1,37,-19,-30,-10,-6,-9,8
1513226584142395,17,-12,15,21,5,2,-8,-15
1513226584144400,-8,11,-39,-6,-1,3,12,29
1513226584144400,2,25,33,0,3,1,-11,-35
1513226584157428,8,10,-4,11,6,5,1,0
1513226584157428,1,-86,-55,-18,-4,-1,4,2
1513226584159410,-4,23,20,6,-1,-4,-8,6
1513226584159410,12,7,7,-15,-10,-6,-2,-11
1513226584171416,-8,-30,-74,-5,-1,0,-4,0
1513226584171416,9,12,49,14,2,0,12,0
1513226584178439,5,3,-30,6,1,-2,-21,-12
1513226584178439,-17,-3,-20,-17,-7,-2,4,18
1513226584194451,-2,4,36,30,3,0,-1,-6
1513226584194451,2,1,-19,-34,-6,-1,3,6
1513226584196436,8,11,31,-3,-2,-3,1,3
1513226584196436,-25,40,48,8,0,-1,2,7
1513226584217458,-13,-25,-32,24,3,-1,0,-12
1513226584217458,4,-5,-17,-20,-3,4,5,-9
1513226584218460,-5,1,-36,6,2,0,3,20
1513226584218460,-8,-28,12,-5,-4,-6,-5,1
1513226584230458,6,23,8,-5,-1,0,11,-2
1513226584230458,-26,-5,3,20,4,-2,3,6
1513226584239483,-4,-5,-4,-14,-1,0,2,-6
1513226584239483,5,-4,-8,-5,-1,-2,3,4
1513226584254537,-5,-8,-47,-19,-8,-6,-5,-2
1513226584254537,3,-14,-8,4,0,-2,3,5
1513226584256495,-2,-3,19,15,1,1,-11,2
1513226584256495,8,5,22,-4,2,1,17,3
1513226584277513,-8,9,-5,-1,-1,0,-21,-23
1513226584277513,4,-13,-2,-4,-5,-2,-14,-2
1513226584278497,-19,12,17,-6,-1,-2,9,10
1513226584278497,19,-50,-41,17,1,1,1,14
1513226584290522,-3,38,-19,-29,-4,-2,-3,0
1513226584290522,10,19,38,12,3,2,3,-1
1513226584299521,10,4,-17,-12,-3,0,-2,-5
1513226584299521,0,-14,16,7,-2,-4,-4,0
1513226584314539,4,4,4,1,2,2,2,3
1513226584314539,-2,-12,-8,-10,-3,-5,1,-2
1513226584317529,0,11,31,16,2,1,0,-9
1513226584317529,6,38,-8,-25,-7,-5,-9,1
1513226584337555,9,-9,-18,2,1,0,3,2
1513226584337555,-8,-25,6,-12,-5,-5,1,1
1513226584338545,10,6,-41,3,5,1,-8,-19
1513226584338545,-3,-10,23,8,-3,-1,-8,-5
1513226584359559,6,-6,9,-4,-1,-1,1,5
1513226584359559,4,23,3,6,3,4,3,1
1513226584361581,-3,-10,-15,-15,-6,-4,-3,10
1513226584361581,2,-4,-4,0,8,5,-4,-23
1513226584374572,-8,-8,39,1,-4,-1,0,6
1513226584374572,4,11,-40,-8,-2,-4,-5,-5
1513226584376560,6,-1,25,12,4,1,16,24
1513226584376560,-24,-13,-42,-12,-2,-4,-19,-39
1513226584397591,1,-5,45,-9,-3,-1,3,6
1513226584397591,28,59,25,32,7,2,6,7
1513226584398577,-22,-55,-40,-19,-6,-6,-18,-24
1513226584398577,-1,7,-1,5,3,1,19,44
1513226584410595,-1,-5,16,19,4,1,-7,-27
1513226584410595,-13,13,26,-7,-3,1,5,4
1513226584419605,-5,2,-9,-11,-4,-2,-3,-16
1513226584419605,10,22,-3,11,-3,0,16,37
1513226584434620,15,-31,-18,-6,-4,-1,-20,-37
1513226584434620,-10,-36,-8,-26,-6,-2,3,13
1513226584436606,-6,-3,-48,0,4,3,11,-7
1513226584436606,-5,-16,-35,13,3,-3,-24,-15
1513226584457629,7,-25,18,-5,0,0,5,21
1513226584457629,-8,28,-2,4,3,-1,-3,-16
1513226584458618,-21,-49,14,0,-1,-1,-1,-11
1513226584458618,14,21,21,9,3,7,18,17
1513226584470637,-8,-5,-22,-13,-5,-8,-24,2
1513226584470637,3,-54,-21,3,0,0,6,18
1513226584479651,11,1,-8,1,0,1,-12,-39
1513226584479651,16,11,34,14,1,-1,5,20
1513226584494647,-16,22,32,-7,-7,-3,10,-5
1513226584494647,5,2,3,1,-2,0,0,19
1513226584496672,-3,30,9,5,-2,-3,-2,-21
1513226584496672,-9,-18,-94,-42,-12,-5,-9,-6
1513226584517661,4,5,12,7,3,0,0,2
1513226584517661,0,15,23,19,4,-1,-6,-15
1513226584518662,5,24,46,-14,-2,-1,5,27
1513226584518662,-8,-8,-3,10,3,-1,-14,-23
1513226584530690,-18,2,2,-2,-4,-1,2,5
1513226584530690,-12,2,-1,8,-1,-1,5,3
1513226584539692,23,-7,-25,8,-1,-2,-15,-12
1513226584539692,-11,-28,42,5,1,1,-1,-2
1513226584554709,2,-5,-44,-12,2,2,17,29
1513226584554709,8,22,20,-10,-4,1,-6,-29
1513226584556688,-13,-22,-10,-15,-6,-6,-13,7
1513226584556688,1,15,29,2,2,-2,-1,5
1513226584577718,5,15,14,39,5,-1,-5,-9
1513226584577718,-6,-3,-32,-14,-3,-1,-2,3
1513226584578705,0,6,31,1,-2,-2,12,3
1513226584578705,14,8,-12,-6,-1,-2,-6,2
1513226584591715,-5,-10,-11,-1,0,-1,2,6
1513226584591715,18,5,17,-5,-3,-3,10,15
1513226584599718,-8,-16,-11,5,1,1,-12,-16
1513226584599718,8,-7,11,-4,-6,-4,-1,-3
1513226584614754,4,-19,-52,-8,1,0,1,1
1513226584614754,-2,-10,-10,-5,-3,-4,-11,-10
1513226584617731,-1,8,7,2,0,0,10,12
1513226584617731,21,3,17,1,-2,-2,3,2
1513226584636801,15,17,24,15,4,0,-9,-13
1513226584636801,-20,-14,-27,-18,-7,-2,7,14
1513226584638747,-8,3,-15,11,2,2,-2,-19
1513226584638747,7,7,3,16,2,-1,-15,-7
1513226584650809,-14,-11,-4,-23,-8,-3,7,0
1513226584650809,3,-1,2,-19,-2,-2,-9,-15
1513226584659761,5,-5,-11,-1,1,1,9,22
1513226584659761,-27,-7,-22,1,-2,0,12,-5
1513226584674799,24,44,10,0,-1,-1,-12,-2
1513226584674799,3,-9,42,13,0,-3,-5,6
1513226584676801,-11,-15,14,-7,0,-1,-3,-13
1513226584676801,9,-3,-69,-8,-2,-1,11,11
1513226584696837,-8,2,31,-2,-2,0,-10,-11
1513226584696837,16,-10,-44,-7,-2,2,-6,-11
1513226584698820,17,-13,9,13,2,-2,8,23
1513226584698820,-8,2,23,6,2,1,-2,-1
1513226584719833,-4,4,15,-14,-7,-4,-1,-6
1513226584719833,3,-9,-66,8,6,-1,7,2
1513226584721834,2,41,44,9,-1,0,-7,0
1513226584721834,-10,-5,-5,-14,-2,-3,2,-5
1513226584734843,-7,-1,-3,4,-1,-1,2,6
1513226584734843,-10,-4,27,8,1,1,-1,-9
1513226584736844,3,3,-4,13,2,-1,4,12
1513226584736844,-9,13,5,-25,-6,-1,-4,-3
1513226584756881,-6,-16,-62,1,2,0,1,-3
1513226584756881,0,2,26,-6,-4,-2,-7,-3
1513226584758860,3,-10,-33,-7,0,1,1,3
1513226584758860,0,4,20,4,1,1,-4,-3
1513226584779874,-16,-11,32,9,3,0,5,-1
1513226584779874,-5,-3,-9,0,0,-2,-1,-2
1513226584781875,-8,-1,-15,-9,-2,-1,-2,-1
1513226584781875,-3,-4,14,13,5,2,0,-3
1513226584794886,1,-1,1,1,-2,-1,4,6
1513226584794886,-6,-1,-7,-14,-3,-3,-6,-8
1513226584796887,2,9,15,1,3,0,-1,3
1513226584796887,-4,-5,-13,2,1,0,0,-12
1513226584816964,8,3,5,-10,-3,-2,2,9
1513226584816964,-5,-2,13,1,-1,-1,-2,-6
1513226584818965,-5,-39,-27,-20,-4,-3,3,4
1513226584818965,3,25,33,8,-1,0,-3,2
1513226584839969,-7,-32,-62,-10,-4,-2,0,-4
1513226584839969,-1,10,2,1,-1,0,0,-9
1513226584840973,-9,1,12,4,0,-1,1,7
1513226584840973,-3,-14,-3,6,2,-3,4,11
1513226584854007,6,5,22,-1,-1,-1,-4,-16
1513226584854007,2,-2,-2,10,2,-1,-9,4
1513226584868002,4,25,-17,-23,-3,0,2,-2
1513226584868002,-2,0,-3,-8,-3,-2,-6,5
1513226584877020,-5,10,16,3,-2,-3,5,-10
1513226584877020,0,-4,-4,2,-2,-2,1,4
1513226584878998,-1,4,12,9,0,0,-3,1
1513226584878998,-5,-7,-6,0,-1,-2,-1,-3
1513226584900026,0,7,-3,-3,-1,1,2,8
1513226584900026,1,15,7,-10,-4,-2,-4,-6
1513226584901015,-3,3,3,2,-1,-2,-1,-5
1513226584901015,-5,-16,3,-3,-2,-2,-6,-3
1513226584914032,-2,-2,-1,4,-3,-2,-4,3
1513226584914032,-2,-1,-4,4,1,0,-2,-7
1513226584921026,1,-2,0,-7,-2,0,0,2
1513226584921026,-2,4,-9,-2,0,-1,-3,-5
1513226584937061,-2,-3,6,-3,-1,0,-5,-4
1513226584937061,-4,-5,-5,0,0,-1,5,4
1513226584939077,-4,-1,10,-11,-2,-2,1,0
1513226584939077,-2,-3,-11,-1,-1,-1,-4,-8
1513226584960054,-5,-3,3,0,-2,1,-1,2
1513226584960054,0,-3,0,-1,2,0,1,2
1513226584961054,0,-6,-5,-1,1,0,-1,-1
1513226584961054,0,6,2,2,-1,-3,-1,-5
1513226584975087,4,0,-3,-3,-2,-2,-2,3
1513226584975087,-4,1,5,-1,-3,0,1,-1
1513226584981069,1,6,3,7,-5,-2,-1,0
1513226584981069,-1,-2,-9,-19,-5,-1,0,1
1513226584997082,-2,4,1,20,1,-2,-2,1
1513226584997082,-1,-4,1,-12,0,3,0,-1
1513226584999083,4,-5,-10,4,0,1,-2,-4
1513226584999083,-9,-1,1,3,-2,-1,-1,0
1513226585020107,2,5,3,1,1,-3,-1,0
1513226585020107,-3,-9,-6,-11,1,-2,-2,-3
1513226585021107,-2,3,-6,-5,-6,-2,-3,-3
1513226585021107,4,0,-7,-3,-1,0,0,0
1513226585034131,0,3,7,-6,-2,-2,-2,-2
1513226585034131,-1,-5,3,8,0,1,-1,0
1513226585041122,-3,3,-1,-2,3,0,0,0
1513226585041122,-1,2,4,6,1,0,-2,-2
1513226585058135,-4,-4,5,-7,-2,-1,-2,-1
1513226585058135,-1,2,-9,2,-2,-2,-1,-1
1513226585060125,-5,-5,0,4,1,0,0,1
1513226585060125,0,-6,-1,1,0,0,0,-2
1513226585080144,-3,-3,-2,-4,0,-1,1,-1
1513226585080144,-1,0,4,-1,-3,-3,-2,-1
1513226585081140,0,-3,3,1,1,-1,-2,-3
1513226585081140,0,-1,-5,0,1,-1,0,-1
1513226585094200,-2,-4,4,-6,0,1,-3,0
1513226585094200,-4,-1,0,-1,-2,0,-3,-6
1513226585101223,-1,-2,-1,-1,-1,0,-1,0
1513226585101223,3,1,1,-1,-1,0,-1,0
1513226585117277,-1,-3,-7,-4,-3,-2,-1,-2
1513226585117277,-1,0,1,0,2,-3,1,1
1513226585118277,0,0,0,1,-2,-2,-1,-6
1513226585118277,0,-1,-1,0,0,0,-1,2
1513226585139306,-1,-10,0,-2,-3,-3,1,1
1513226585139306,1,2,3,2,-1,-1,-2,0
1513226585141284,0,-1,-5,-5,0,-5,-3,0
1513226585141284,-2,0,-1,1,-2,-2,0,-2
1513226585153347,-1,1,-3,-3,-2,-2,-1,-2
1513226585153347,-3,-3,-3,-1,-1,1,-2,0
1513226585162311,-4,-1,-2,-1,2,-1,-1,-4
1513226585162311,1,0,-2,0,-3,-2,-3,-1
1513226585177323,0,0,-5,-3,0,-1,-2,0
1513226585177323,1,-2,-1,-1,-1,-2,1,-1
1513226585179314,-1,-1,-1,2,0,-1,-4,-3
1513226585179314,0,0,-1,-3,-1,-2,-1,0
1513226585199325,-3,-3,-1,-3,-1,-2,0,-2
1513226585199325,-2,-1,0,0,0,-3,0,-2
1513226585201327,5,6,0,0,-1,-1,0,0
1513226585201327,0,1,-1,1,0,1,2,5
1513226585213338,-26,-15,-5,-3,-2,-2,-5,-6
1513226585213338,8,-2,-3,-5,-3,-2,-1,-2
1513226585222342,-3,-5,2,-1,0,-2,-2,0
1513226585222342,4,7,1,1,-1,-1,0,-1
1513226585237353,0,0,-2,-3,-1,-3,-2,0
1513226585237353,0,-1,-1,-1,-1,0,0,-1
1513226585238358,1,-2,-1,-1,0,0,0,1
1513226585238358,-5,-4,-2,-1,-1,-1,-2,-5
1513226585259368,5,3,-3,-1,2,-1,-1,-2
1513226585259368,-5,-5,0,-1,-1,-2,0,-2
1513226585261385,5,0,-1,1,0,1,2,1
1513226585261385,-7,-4,-3,-2,-1,-3,-2,-4
1513226585273378,2,1,-2,-1,-2,0,1,-1
1513226585273378,-2,-1,-2,0,-2,0,0,1
1513226585282397,-5,-3,0,-2,-2,-1,-2,0
1513226585282397,-2,-4,0,-1,0,-1,-2,-1
1513226585297397,4,3,1,-2,-1,0,0,-1
1513226585297397,-1,-2,-2,-2,-1,0,0,0
1513226585298395,-2,0,-2,0,0,-2,-3,0
1513226585298395,-5,-5,2,-1,-1,-2,0,-3
1513226585319423,5,1,-1,-2,0,0,-1,1
1513226585319423,-2,0,-3,-1,-2,0,-2,-3
1513226585321424,-2,-2,-1,0,-1,-1,0,-2
1513226585321424,3,0,-3,-1,-4,-3,-2,0
1513226585333450,-1,-1,0,0,0,-1,1,-1
1513226585333450,0,-1,0,-1,-2,0,-1,0
1513226585342429,-4,-5,-2,1,-1,0,-1,-2
1513226585342429,3,5,-4,-2,-2,-2,-3,-3
1513226585357453,3,0,0,-4,-4,0,0,-1
1513226585357453,0,0,-3,-1,0,0,-1,0
1513226585358439,0,0,-2,1,1,-1,-1,-1
1513226585358439,-1,-1,-2,1,0,-2,-1,-1
1513226585379528,0,0,-2,-2,-1,-3,-1,-1
1513226585379528,-2,0,0,0,-1,-1,0,-2
1513226585381530,-2,-3,0,0,0,1,1,0
1513226585381530,-4,-3,1,-1,-2,-1,0,0
1513226585393595,-1,1,-3,0,-3,-1,0,-3
1513226585393595,-3,-1,-1,-2,0,-2,-2,-1
1513226585402606,-2,-2,0,0,0,-1,-1,0
1513226585402606,0,-2,-3,-3,-1,0,-2,0
1513226585417594,-1,-2,-1,-1,-2,1,-1,0
1513226585417594,0,-1,-2,-1,0,0,0,0
1513226585418595,0,1,1,0,-1,0,-1,0
1513226585418595,0,-1,-1,2,-1,-1,1,1
1513226585439663,-3,-3,-2,-1,0,-2,-3,0
1513226585439663,-1,0,-3,0,-1,-2,0,-1
1513226585441624,0,-2,-1,0,-1,-2,-1,0
1513226585441624,0,-1,0,-1,-2,0,-1,0
1513226585453641,-3,-3,-1,-2,0,2,-1,-1
1513226585453641,1,0,-1,-3,0,1,0,-2
1513226585462648,-3,-3,-2,0,0,-4,0,-1
1513226585462648,-2,-5,-1,0,-1,0,2,-3
1513226585477665,5,5,-1,0,-1,-1,1,-2
1513226585477665,2,-2,-1,1,-1,-1,-2,5
1513226585478643,-4,-3,-4,-2,-1,-1,-3,-6
1513226585478643,-1,-3,0,-1,-2,0,-1,-1
1513226585499662,-4,-4,-3,-2,-2,-1,1,0
1513226585499662,3,3,1,-2,1,-1,1,-1
1513226585501676,2,-1,-1,0,-3,-2,-4,0
1513226585501676,-4,0,1,0,-1,-3,1,-1
1513226585513723,2,0,-2,-1,-1,-3,-1,-2
1513226585513723,-5,-1,0,0,-1,0,-1,-3
1513226585529724,-1,-1,-3,1,0,-1,-2,0
1513226585529724,0,-2,-2,-3,0,1,-1,-1
1513226585536751,-2,-1,1,-2,-1,0,1,-2
1513226585536751,-2,-1,-3,0,-3,-4,-1,-2
1513226585538730,-5,-5,1,1,1,2,0,0
1513226585538730,1,-1,0,-2,-1,0,-2,-1
1513226585559771,-2,3,-3,-2,-3,-2,-1,-1
1513226585559771,-4,-4,0,-2,-2,-1,0,-2
1513226585561748,2,0,1,0,-1,0,2,0
1513226585561748,0,0,-1,0,-1,1,-2,-1
1513226585573780,-2,-5,-3,-1,1,-1,-1,-3
1513226585573780,-4,0,-1,-2,0,-2,-2,-3
1513226585589767,-1,-1,0,-1,0,2,-1,0
1513226585589767,-1,0,-3,-2,-1,0,-2,-1
1513226585596772,-2,-1,0,-3,-2,-2,-2,-2
1513226585596772,0,-3,-2,-2,0,0,-1,-1
1513226585598774,3,4,-1,-2,-1,0,0,0
1513226585598774,0,-1,-1,1,1,-2,0,2
1513226585619797,-2,-3,-1,1,-2,0,0,0
1513226585619797,-1,-2,-1,-2,-2,-2,0,1
1513226585621827,-1,0,0,-1,0,-3,1,0
1513226585621827,-1,-1,-1,-2,0,-2,0,-2
1513226585641823,-3,-2,1,-1,-1,0,-1,0
1513226585641823,-1,-3,-1,-2,-1,0,-1,0
1513226585643805,-2,-1,-1,0,1,-2,-2,-1
1513226585643805,0,2,-1,-2,-4,-1,-2,-2
1513226585656814,-2,1,-1,0,0,-2,0,-1
1513226585656814,-2,-3,1,-1,-1,0,-1,-2
1513226585658828,0,-1,-2,-1,-2,-1,-2,-1
1513226585658828,0,0,-2,0,-3,-2,1,-1
1513226585679843,-3,-3,-2,-3,-2,-2,-2,-1
1513226585679843,0,0,-2,-1,0,1,-4,-1
1513226585681831,-1,-2,-2,-1,-2,-2,0,1
1513226585681831,-4,-3,0,-2,-1,-1,-2,0
1513226585701886,0,-2,-1,-1,-1,0,-1,-1
1513226585701886,-1,-2,0,2,0,-2,-2,-3
1513226585703885,-2,1,-2,-1,-1,-1,-1,-2
1513226585703885,2,0,-2,0,0,-1,-1,0
1513226585716894,0,0,-1,-1,0,-1,-2,-1
1513226585716894,-5,0,-1,0,-1,-2,-2,-2
1513226585718895,3,2,1,-1,-1,1,2,1
1513226585718895,-6,-4,-3,-1,0,-1,-3,-1
1513226585739911,-3,-2,-1,-1,-3,0,-1,0
1513226585739911,2,2,-1,-1,0,-1,0,1
1513226585740913,0,8,3,2,-2,-1,0,1
1513226585740913,-5,-19,-4,-3,-4,-5,-3,-5
1513226585761949,-7,-7,-2,-1,0,-1,-2,-3
1513226585761949,-1,-2,-1,0,-2,0,-2,-2
1513226585763928,0,-2,-2,-1,-2,-1,0,0
1513226585763928,2,4,0,-1,0,0,0,1
1513226585776957,1,-2,-2,-3,-1,-3,-3,-3
1513226585776957,-2,-3,-1,-1,-2,0,2,0
1513226585782961,1,2,-3,-1,0,0,-2,1
1513226585782961,-1,4,0,-1,0,0,-1,-1
1513226585799974,-3,-2,-1,-2,-3,-2,-2,-1
1513226585799974,0,0,-1,-2,0,-1,0,-1
1513226585800970,-1,-4,0,0,-2,-1,-2,-1
1513226585800970,0,1,1,-1,-1,-2,-1,-1
1513226585822026,-1,1,-1,-1,-1,-1,0,0
1513226585822026,1,0,-2,-1,-1,-2,-1,-2
1513226585823972,-2,-5,-4,-2,-1,-2,-2,-1
1513226585823972,-2,-2,0,0,-2,-2,0,0
1513226585837008,3,1,-1,0,-3,-2,-1,-2
1513226585837008,-1,-1,-1,-1,2,-2,0,-4
1513226585843014,0,-3,-3,-2,0,-2,0,0
1513226585843014,2,4,0,0,-2,1,-1,1
1513226585859996,0,-2,-1,-1,-4,-3,-1,0
1513226585859996,-3,-3,-2,-1,0,-2,-1,0
1513226585860996,-2,-3,-1,-2,1,0,-1,-1
1513226585860996,-1,1,-2,-3,0,-1,1,-1
1513226585890017,0,1,-1,-5,-2,0,0,-1
1513226585890017,1,-2,0,-1,-3,-2,0,1
1513226585891036,-1,-2,0,-1,0,1,-2,-2
1513226585891036,-2,0,-1,-2,-3,0,-3,0
1513226585897031,0,-1,-2,-1,2,-1,-1,-2
1513226585897031,-2,-3,-2,-1,-2,0,-2,-1
1513226585903049,-2,-1,-1,0,-1,-1,0,-1
1513226585903049,0,-2,0,0,-1,-3,-2,-1
1513226585919037,1,-1,-1,-2,-1,-1,-1,-1
1513226585919037,-1,-2,-2,-3,-1,0,0,-2
1513226585927042,-1,-3,-1,0,0,0,0,-1
1513226585927042,0,1,0,0,-1,-1,0,-3
1513226585942067,-3,2,0,0,0,-3,-3,-2
1513226585942067,-3,-5,-2,-1,0,0,-3,-1
1513226585944065,0,1,-1,-1,-2,-1,-3,2
1513226585944065,-1,-2,-1,1,-1,-2,0,0
1513226585956081,0,-1,0,0,-1,0,0,0
1513226585956081,-2,0,-1,1,-1,-1,0,-1
1513226585963089,-2,-1,-2,0,-1,-1,1,-2
1513226585963089,0,-1,-2,1,-1,-1,0,-1
1513226585980097,-1,-4,-3,-1,1,-1,-2,-3
1513226585980097,1,0,1,-1,-1,0,-2,0
1513226585981083,-1,-2,2,0,1,-3,-1,1
1513226585981083,0,-1,-3,-1,-2,-1,-2,0
1513226586002116,-2,-1,1,-3,-2,0,1,-2
1513226586002116,-1,1,0,-1,-1,-1,-1,-2
1513226586004117,2,-1,-2,-1,0,-1,-1,-2
1513226586004117,0,0,-1,-1,-2,0,0,0
1513226586017107,-2,-2,-1,0,0,0,0,-1
1513226586017107,-1,0,-1,0,-1,-1,1,0
1513226586023111,-2,-2,0,-2,0,0,-1,-1
1513226586023111,0,-1,-1,-1,2,0,-2,0
1513226586040131,0,-2,-1,0,-1,-1,-2,0
1513226586040131,-1,-1,-2,-1,-1,0,-2,-1
1513226586041123,-1,-1,-1,0,-1,-1,1,0
1513226586041123,-1,-2,-2,-1,-1,0,-2,-2
1513226586062138,-2,0,0,-3,-1,-2,-3,-2
1513226586062138,0,-1,-2,1,0,0,-2,-1
1513226586064155,-2,1,0,0,-2,-2,-2,-3
1513226586064155,-3,-3,0,0,-1,-1,0,2
1513226586084169,1,-1,-3,-1,0,0,0,-2
1513226586084169,-2,-1,0,-1,-2,-1,-3,-1
1513226586086155,0,-3,-2,-1,0,1,-2,-2
1513226586086155,0,-2,0,-1,-2,-2,-1,-1
1513226586100180,-3,-2,-2,-3,0,0,0,-2
1513226586100180,-2,-2,-1,-1,-2,-3,-3,-1
1513226586102182,-1,1,-3,-1,-3,-2,-2,0
1513226586102182,3,-1,-2,-2,-3,-3,-1,0
1513226586122236,-1,1,-1,1,-1,1,-1,2
1513226586122236,1,0,-1,-2,-1,-1,1,0
1513226586124229,0,2,0,-1,-1,-1,0,-1
1513226586124229,1,-1,-1,-2,-1,-2,-2,-1
1513226586136234,-2,-1,-1,-2,-1,1,-2,-1
1513226586136234,1,-2,-2,-1,0,0,-2,-1
1513226586145230,-2,-3,-1,-1,-1,-2,-1,-1
1513226586145230,-1,0,-2,-2,0,0,0,-2
1513226586159240,-1,0,-3,-2,-3,-2,0,-2
1513226586159240,-3,-2,-2,-2,-1,1,0,-1
1513226586161241,1,1,-1,0,-1,0,0,0
1513226586161241,-4,-1,-2,0,-1,-2,-2,-2
1513226586182306,-2,-1,-1,1,-1,-1,0,-3
1513226586182306,0,0,1,0,-2,-2,1,-1
1513226586183307,-3,-2,-2,-1,-3,0,-3,-1
1513226586183307,3,2,1,-2,-1,2,1,-1
1513226586195325,1,-7,0,-3,0,0,-2,0
1513226586195325,-11,-1,-2,-2,0,-1,-3,-2
1513226586205338,-1,0,-1,-1,0,0,-1,0
1513226586205338,-2,6,3,1,1,-1,0,0
1513226586219342,1,1,-4,-3,-4,-3,-2,-4
1513226586219342,-4,-4,-2,-2,-2,-1,0,0
1513226586221334,-3,-4,-2,-1,-1,2,0,-2
1513226586221334,-1,-1,-1,-1,-1,-1,-1,1
1513226586242349,4,4,0,-2,-1,-1,-1,-1
1513226586242349,-1,0,0,1,0,0,0,-1
1513226586243350,-2,0,-2,-2,0,-1,0,2
1513226586243350,2,-2,-1,-1,-3,0,-2,-2
1513226586256382,-2,1,-2,0,-1,-2,-1,-1
1513226586256382,0,-2,-1,0,-1,-3,-1,0
1513226586264382,-1,-4,2,1,0,-1,-3,0
1513226586264382,-3,-3,-2,-1,-1,-2,-1,-1
1513226586279395,-5,-3,-1,-1,-3,0,-1,-1
1513226586279395,1,3,-1,-1,-2,1,-1,-1
1513226586281380,-2,0,-1,0,0,0,1,1
1513226586281380,-4,-2,-2,-3,-2,-1,-3,-2
1513226586302463,-4,-4,-1,-1,0,-3,-1,-3
1513226586302463,1,0,-1,0,2,1,0,0
1513226586303411,0,0,0,1,0,-3,-1,-1
1513226586303411,-2,-2,-2,0,-2,-1,-1,-4
1513226586315401,3,2,0,-1,-2,-3,1,0
1513226586315401,-6,-2,-1,-1,1,0,0,-1
1513226586324407,2,-1,0,-2,1,0,-1,-2
1513226586324407,-1,0,-1,-3,-1,-1,1,-1
1513226586339474,-5,-1,1,-1,-3,0,-2,0
1513226586339474,1,-1,-1,-2,-1,-3,-1,-2
1513226586341421,-4,-1,-1,-2,-2,-4,-3,-1
1513226586341421,0,0,-3,-1,-1,0,-1,1
1513226586362464,-1,0,1,-2,-3,0,-1,0
1513226586362464,0,-1,-1,-1,0,1,0,0
1513226586364437,1,-3,0,0,-1,1,2,1
1513226586364437,-3,0,0,-2,-1,-2,0,-2
1513226586376450,-2,-2,-2,-2,1,-1,1,0
1513226586376450,1,2,-3,-1,0,-1,-3,0
1513226586384479,0,1,-2,0,0,0,-1,1
1513226586384479,-2,-3,-3,-2,-2,-1,-1,-1
1513226586399478,-2,-1,2,-1,1,2,1,-3
1513226586399478,0,1,1,-3,-2,-2,-1,-2
1513226586401479,1,0,0,-1,0,-1,1,-1
1513226586401479,-1,-2,-2,-2,-2,-3,-1,0
1513226586422477,0,1,-3,-2,-2,-1,0,0
1513226586422477,0,-2,-1,-1,-1,-1,-1,1
1513226586423478,-1,-1,-2,0,-4,0,-3,-3
1513226586423478,0,-1,-3,0,0,-2,0,1
1513226586435486,-8,-5,-3,-1,-1,-3,-4,-2
1513226586435486,0,-1,0,-1,1,-1,0,0
1513226586444510,-1,-2,0,0,1,0,1,-1
1513226586444510,1,-2,-1,-1,-3,-2,-2,-1
1513226586459502,1,-2,-3,-3,-2,-2,0,-1
1513226586459502,-1,-4,-2,-2,-2,-2,-2,-2
1513226586461503,-1,1,-1,-1,0,-1,-1,0
1513226586461503,0,-1,0,0,-1,-3,-3,-2
1513226586482542,-1,-1,-3,0,-1,-1,-3,-1
1513226586482542,0,-2,0,-1,-2,0,-1,1
1513226586484520,0,0,-3,-2,-2,-1,-2,-1
1513226586484520,1,-3,0,-3,-1,0,-1,-2
1513226586496555,1,-1,-2,-3,-1,-1,1,0
1513226586496555,-1,-1,-1,-1,0,0,0,-3
1513226586504534,0,1,-2,-1,0,0,0,-1
1513226586504534,0,0,1,2,-2,0,1,-2
1513226586519563,0,-2,-1,-2,-1,1,-1,0
1513226586519563,-1,1,-2,1,-1,-3,-1,-2
1513226586521565,0,-3,0,-1,1,-2,-2,0
1513226586521565,-3,0,-2,0,0,-1,-1,-2
1513226586542575,0,0,-1,-1,-1,-1,1,-2
1513226586542575,-1,0,-1,-2,-1,0,-1,-2
1513226586543563,-1,-2,0,1,-1,-1,-1,2
1513226586543563,-4,-2,0,-4,-1,-1,0,-2
1513226586564577,-2,0,-1,-1,-1,-2,-1,-1
1513226586564577,-2,-1,0,-1,0,0,0,-1
1513226586566578,-2,-1,-2,1,-2,-1,-1,-1
1513226586566578,-1,0,0,-2,-1,1,-1,-1
1513226586578608,-2,-1,-1,-2,-1,-1,-1,-1
1513226586578608,-3,-2,-1,0,-1,-2,1,0
1513226586585614,1,-1,0,0,-1,-1,0,-1
1513226586585614,-2,-2,-1,0,0,-1,-2,0
1513226586602634,-2,0,5,1,-1,-1,-3,0
1513226586602634,-1,0,-1,-1,2,0,-2,-1
1513226586603604,-1,-2,1,-2,-2,-1,-1,-2
1513226586603604,-3,-1,-2,-2,-2,-1,1,2
1513226586624619,0,-1,-2,-1,-3,-2,-2,-2
1513226586624619,0,-1,-1,1,-2,-2,0,-2
1513226586626621,-1,3,-1,0,-2,-1,0,-1
1513226586626621,0,0,-1,-1,0,-1,-1,-1
1513226586639687,1,0,-2,-1,1,-3,0,-2
1513226586639687,1,-2,0,-2,-2,-1,-1,-1
1513226586641632,-1,-4,-1,0,-2,0,-2,-2
1513226586641632,2,-1,-2,-1,-1,-1,-2,0
1513226586662669,0,1,-1,-2,-2,-1,-2,-2
1513226586662669,-2,-1,-1,0,1,3,0,0
1513226586663648,-3,-2,-2,-1,1,0,0,-2
1513226586663648,-3,-2,-1,-1,-1,-1,-1,0
1513226586683661,0,-1,0,-1,-1,2,-1,-1
1513226586683661,-2,-2,-2,-1,1,-2,-1,-1
1513226586692667,-2,-1,-1,-1,-2,-1,0,0
1513226586692667,0,-1,-1,-1,-3,-4,-3,-2
1513226586698673,-1,-2,-2,-1,0,-1,-1,-3
1513226586698673,-2,-1,0,0,-2,-2,0,0
1513226586705676,0,2,-4,0,-2,0,-3,-2
1513226586705676,0,0,-2,-1,-2,0,-1,-1
1513226586721687,0,-1,-2,-2,-2,-1,-2,1
1513226586721687,0,-1,1,0,-1,-3,-1,0
1513226586723689,2,-1,-1,0,0,-3,-1,2
1513226586723689,-2,-3,-1,-1,1,-1,0,0
1513226586744704,-1,-5,-2,-2,0,0,-2,0
1513226586744704,-2,1,-3,-2,-1,-1,-2,-1
1513226586746705,-1,-2,0,-2,0,-2,-1,1
1513226586746705,0,-2,0,1,-3,-2,-1,-2
1513226586766719,-2,-3,-1,-2,-1,0,3,-1
1513226586766719,-1,-2,-2,1,-1,1,-1,1
1513226586768721,-8,1,2,-1,1,-1,-1,-3
1513226586768721,-1,0,-2,0,-1,-2,-2,-1
1513226586781730,-3,0,1,0,0,-1,-3,-2
1513226586781730,3,-1,-2,-3,-1,-1,-2,-2
1513226586783732,1,-2,-4,0,-2,-2,-3,1
1513226586783732,2,1,-1,-2,-2,0,-1,-2
1513226586804747,3,6,1,-2,-3,-1,0,2
1513226586804747,-4,1,-4,1,1,0,0,-1
1513226586806760,-4,-7,-1,-1,-2,1,-2,3
1513226586806760,7,5,-1,-1,0,-1,-1,-1
1513226586818756,-5,-11,-4,1,0,0,-2,-4
1513226586818756,2,1,1,-1,-1,-1,0,0
1513226586825774,2,1,0,1,-1,-3,-2,-1
1513226586825774,-8,-1,-2,0,-2,0,0,1
1513226586841773,-2,-5,-2,-2,-1,-1,0,-2
1513226586841773,2,0,0,0,-2,-1,-2,-1
1513226586843774,-2,0,0,-1,-1,-1,1,0
1513226586843774,0,-3,-2,-1,-1,-1,0,1
1513226586864789,0,2,-1,-1,-2,-4,-1,-2
1513226586864789,-4,-4,-1,-2,-2,-1,-2,0
1513226586866790,-4,-2,-4,-1,-1,-1,0,-2
1513226586866790,-3,-2,-2,-1,-2,-1,-3,-2
1513226586878811,-2,-2,-3,-2,-2,-1,-1,-2
1513226586878811,-1,0,-1,0,-2,-1,1,-2
1513226586885824,3,-1,-1,-3,-1,-1,0,0
1513226586885824,-7,-1,2,0,1,0,-1,-5
1513226586901892,-4,1,1,0,0,1,-1,0
1513226586901892,0,0,-3,-1,0,1,-1,0
1513226586903868,-3,0,-1,0,-1,-2,-1,-2
1513226586903868,1,-2,-3,-3,-2,-2,0,-2
1513226586931905,-4,1,-1,-1,0,-1,0,-2
1513226586931905,0,-1,-3,-1,-1,-2,-3,0
1513226586933897,1,1,-1,0,-1,-1,-1,0
1513226586933897,-1,-2,1,-3,-1,2,-1,-1
1513226586938904,-1,1,0,-2,-2,-3,0,0
1513226586938904,1,0,-1,-1,0,-2,-1,-1
1513226586945898,-3,0,0,0,0,1,-1,-1
1513226586945898,2,-3,-2,-1,-3,-2,-1,0
1513226586962944,1,0,-2,-3,-1,-1,-3,-2
1513226586962944,-3,-4,-2,0,-1,1,-2,-2
1513226586964909,2,1,-1,0,-1,0,0,2
1513226586964909,-1,0,0,-1,-1,-2,-2,1
1513226586984926,-1,-2,0,-1,0,0,-1,-1
1513226586984926,-3,-1,-1,1,-2,-2,0,0
1513226586985927,-2,0,0,1,0,-1,-1,-4
1513226586985927,0,1,-2,-2,-4,-2,1,-1
1513226586998962,-8,-1,1,2,1,0,1,-2
1513226586998962,-1,-3,0,-1,0,0,0,0
1513226587005946,-1,-6,-2,-1,-2,0,-1,-2
1513226587005946,-3,-2,-2,-1,-2,-1,-1,1
1513226587021978,2,0,-3,-2,-1,-2,-2,-1
1513226587021978,-1,-3,0,-1,1,-2,-1,-1
1513226587023952,-2,-1,0,0,0,-2,-1,0
1513226587023952,1,0,-2,0,0,-2,-1,-4
1513226587044970,1,0,-1,0,-2,-3,0,1
1513226587044970,1,0,0,-1,-1,-1,0,-1
1513226587045967,2,0,-3,-3,-3,-2,-1,-1
1513226587045967,-9,-2,0,-2,-1,-1,-2,-1
1513226587057981,0,-1,1,1,1,-1,-2,0
1513226587057981,-2,-2,-2,-1,-2,1,0,0
1513226587066989,-4,-3,1,0,0,-1,0,-2
1513226587066989,1,-1,-3,-1,0,0,-1,-1
1513226587082015,0,-2,-3,-3,-4,0,-1,-2
1513226587082015,-1,0,3,1,-1,0,-1,-1
1513226587088019,2,0,-1,0,1,-1,-1,-2
1513226587088019,0,-1,-1,-2,-3,0,-1,-2
1513226587105046,-3,-3,2,-2,0,1,-2,-2
1513226587105046,-1,0,-1,1,-2,-3,-1,0
1513226587106008,0,0,-2,-2,0,0,1,1
1513226587106008,-2,-1,1,-1,-4,-4,-1,-1
1513226587118042,0,-1,-3,1,-1,-1,-1,0
1513226587118042,-2,-3,-1,-1,1,-2,-2,-3
1513226587127038,-1,-2,-1,-3,-1,-1,-2,-2
1513226587127038,-2,-2,-1,-2,0,0,-1,-3
1513226587142059,-2,-1,-2,-2,-1,-2,0,0
1513226587142059,-1,-2,-2,0,0,-2,0,0
1513226587144035,0,1,-2,1,0,-2,-2,2
1513226587144035,2,1,0,-1,0,-1,0,1
1513226587165065,-1,-1,-1,1,0,1,-1,-2
1513226587165065,0,-1,-1,1,0,1,-1,0
1513226587166051,0,0,-2,-1,-3,-2,-2,-2
1513226587166051,-3,-1,-1,-3,-1,-2,-1,0
1513226587178074,0,-1,-3,-2,-1,-1,-3,-1
1513226587178074,2,0,-2,-2,1,-1,-2,-2
1513226587187077,0,-2,-1,-2,-2,0,-2,-1
1513226587187077,-5,-3,-1,1,-1,-1,0,-3
1513226587202077,0,-3,-1,-3,-2,0,-1,0
1513226587202077,-2,-1,-1,-2,1,-2,-1,-1
1513226587204078,-2,-1,-1,0,-1,0,-1,-3
1513226587204078,0,0,-1,0,1,-4,0,-2
1513226587225109,0,0,-2,-2,-2,-1,-3,-1
1513226587225109,-3,0,-2,0,-2,2,1,2
1513226587226095,-1,0,-1,-1,-1,-2,0,0
1513226587226095,-1,-3,-1,-2,-1,-1,0,0
1513226587238160,-4,-5,0,0,-1,-1,-1,-2
1513226587238160,2,-2,-3,-2,-2,0,-1,0
1513226587247109,-5,-2,1,1,0,0,0,-2
1513226587247109,1,-1,-2,-2,-1,-1,0,-1
1513226587262194,1,-1,-2,1,2,-2,0,-1
1513226587262194,-1,0,-1,-1,-2,-3,0,-3
1513226587264166,0,-1,-1,0,0,-1,0,0
1513226587264166,-2,-2,-1,-1,-2,-1,-3,-1
1513226587284171,-1,0,0,-4,-1,0,0,-1
1513226587284171,1,0,-2,-1,-2,-1,-1,0
1513226587286186,-1,-2,-1,0,-1,0,-1,-1
1513226587286186,-1,-2,-2,-2,-1,-1,-3,0
1513226587298198,0,0,-1,-1,-2,1,-2,-2
1513226587298198,-2,-1,-1,-1,-1,-1,-2,-2
1513226587307189,3,0,-1,-1,-3,-1,0,1
1513226587307189,-2,0,-2,-2,-1,-2,-1,-2
1513226587329212,0,-2,0,1,-1,-1,1,-1
1513226587329212,0,-2,-1,0,0,0,-3,-1
1513226587331205,0,-3,-1,-1,-1,-3,-3,-2
1513226587331205,1,-5,-2,-1,-3,-2,0,-2
1513226587344223,-2,-2,-1,-1,-1,-4,-1,-1
1513226587344223,-3,-2,0,-1,0,0,-1,0
1513226587346214,-2,-1,-1,-2,0,0,0,1
1513226587346214,-1,0,-2,0,-1,1,-2,-1
1513226587358227,-3,-2,-3,0,-3,-1,-1,1
1513226587358227,-4,0,1,0,-1,-2,-1,-2
1513226587367229,-2,-1,-1,-2,-2,-1,-1,-1
1513226587367229,1,-2,-1,0,-1,-2,-4,-1
1513226587382249,1,-1,-6,-2,-2,-1,-2,-2
1513226587382249,0,-1,0,0,0,-3,0,1
1513226587384243,-1,1,-1,-1,1,-1,-1,0
1513226587384243,-1,1,1,-1,-3,-1,-1,-2
1513226587405279,0,0,-2,-3,-4,0,-2,-1
1513226587405279,-1,1,-2,-1,-1,-3,-2,1
1513226587406258,-3,-1,-2,-1,-1,-3,-2,-1
1513226587406258,2,-1,1,-1,-3,-2,-1,0
1513226587418275,0,-2,0,-1,2,1,-2,-2
1513226587418275,-1,-1,0,-1,1,1,1,2
1513226587427273,-1,0,-2,-1,-2,0,0,-1
1513226587427273,0,0,-1,-1,-3,-2,0,-3
1513226587449290,-3,1,-1,-4,1,-3,0,-1
1513226587449290,0,-2,-4,-1,-1,0,-2,-1
1513226587451289,1,1,-2,1,-2,0,-1,0
1513226587451289,-2,-2,-3,-2,-2,1,1,2
1513226587472361,1,-3,0,-1,0,0,0,1
1513226587472361,2,1,-1,0,0,-1,-1,-1
1513226587473334,1,0,-1,0,-1,-1,-1,-2
1513226587473334,1,-3,-3,0,0,0,-1,0
1513226587478366,-4,-2,1,-1,0,-2,-1,0
1513226587478366,3,-2,-2,-1,-4,-2,1,1
1513226587487372,-4,-5,3,-1,-2,0,-1,0
1513226587487372,0,-1,-2,1,-1,-1,0,-3
1513226587502370,-1,1,-3,-2,-1,-3,-2,-1
1513226587502370,-2,-1,-4,2,0,-1,-2,-1
1513226587503354,0,-1,0,-2,0,-2,-2,0
1513226587503354,-2,-2,-1,-3,-3,-2,-2,-2
1513226587524371,0,-2,0,1,1,0,0,-1
1513226587524371,-4,-1,-1,-2,-2,-2,0,-1
1513226587533401,1,-2,-3,-1,-2,-1,1,-1
1513226587533401,-4,2,0,1,1,1,1,-3
1513226587546394,-1,0,0,-2,-2,-3,-1,-2
1513226587546394,-2,-2,-1,-1,-2,0,-2,0
1513226587547385,-1,1,-2,0,0,-1,-1,-2
1513226587547385,-2,0,-1,-1,0,0,0,-1
1513226587562396,-1,-1,1,-1,-1,2,0,-2
1513226587562396,-2,-2,1,0,0,1,-2,-3
1513226587569410,0,-1,-1,-1,-2,-2,1,-1
1513226587569410,-2,-2,-2,-1,-1,-3,-1,-2
1513226587584411,-6,1,1,1,-1,1,-2,0
1513226587584411,0,-2,-1,1,-1,-1,-3,-1
1513226587584411,-2,-3,-1,-1,-1,0,-2,-3
1513226587584411,-1,-1,-3,0,2,-3,0,-2
1513226587606446,2,0,-1,-1,-2,0,0,0
1513226587606446,2,1,-2,-1,1,-2,-2,-2
1513226587607439,0,-2,-3,1,0,0,-2,1
1513226587607439,0,-2,-2,-1,-4,0,-1,-2
1513226587621452,-1,-3,-3,-1,-3,-1,-1,-3
1513226587621452,-1,0,-1,-2,0,-1,1,0
1513226587622449,0,-3,-1,-1,-1,-1,-2,0
1513226587622449,0,1,-1,-2,-1,-1,-1,0
1513226587644456,1,-2,0,0,2,-2,-1,-1
1513226587644456,-1,0,-2,-1,-1,0,-1,0
1513226587644456,0,2,0,0,-1,0,-2,-1
1513226587644456,0,-4,0,-2,-1,1,-2,0
1513226587666533,0,-1,1,-2,-1,-2,0,-3
1513226587666533,-1,-1,0,-2,1,-1,-1,0
1513226587667523,-1,1,-2,-1,-2,-3,0,-1
1513226587667523,5,1,-6,-3,-2,-1,-1,-1
1513226587681533,1,1,1,1,0,1,1,2
1513226587681533,0,-3,0,-1,0,1,-1,-2
1513226587682535,-1,-1,0,-1,0,-2,-2,-2
1513226587682535,-2,-2,-1,-1,-2,0,-1,-1
1513226587704565,2,-3,-2,-1,-1,-3,-3,-1
1513226587704565,-9,-1,0,2,0,-1,0,-1
1513226587704565,1,1,-1,-1,-1,-2,-1,0
1513226587704565,-4,-1,0,-3,-2,-2,0,-2
1513226587726566,-1,-1,-2,-3,-1,-1,0,-3
1513226587726566,2,-3,-2,1,-2,-3,0,1
1513226587727567,-2,-2,-1,-1,-1,1,-5,-1
1513226587727567,-3,0,-1,-1,-1,-1,0,-2
1513226587741577,-2,2,-2,0,1,-2,0,-2
1513226587741577,3,1,-1,-1,-2,1,0,-2
1513226587749597,-2,-2,-1,-4,-1,-2,2,-1
1513226587749597,0,0,-1,-3,-3,-3,-3,1
1513226587763682,-2,-1,-1,1,-2,-3,-1,-2
1513226587763682,-1,-1,1,1,-1,-1,-2,-2
1513226587764682,-1,-3,2,1,0,1,-1,-2
1513226587764682,-2,-4,-1,-2,0,-2,-1,1
1513226587786701,2,-3,1,-1,-1,1,-1,0
1513226587786701,1,1,0,-2,2,-1,0,1
1513226587787699,0,3,-2,0,-2,-1,0,-2
1513226587787699,1,1,-4,-1,-1,1,-2,-1
1513226587801723,-6,-5,-2,-2,-1,0,-3,-2
1513226587801723,-1,-6,-3,-1,-2,0,-2,-1
1513226587802711,1,1,1,0,-1,1,-1,1
1513226587802711,-3,-1,0,-1,0,-2,-1,0
1513226587823746,-3,5,-2,1,-2,-2,-1,0
1513226587823746,0,0,-1,-2,0,-3,-2,0
1513226587824725,-3,-2,-5,-3,-2,-5,-1,-3
1513226587824725,-2,0,0,-1,-1,1,0,0
1513226587846741,-1,-1,-2,-1,0,2,-1,0
1513226587846741,1,-2,-1,1,-1,-2,-1,-1
1513226587847741,-7,-4,-1,-1,-1,-2,0,-1
1513226587847741,4,0,-3,-2,-2,0,-1,-2
1513226587860760,-6,-2,2,-1,2,-1,0,-5
1513226587860760,0,0,0,1,0,0,0,0
1513226587868766,-2,2,-1,-2,-1,0,-1,0
1513226587868766,-1,-2,-1,-1,-1,-3,-2,0
1513226587884783,0,-3,-3,-2,-1,-2,0,-1
1513226587884783,-2,2,-2,0,0,-2,-2,-2
1513226587884783,0,-3,-4,-1,-3,-4,0,-1
1513226587884783,-5,-2,1,-3,0,0,-5,-3
1513226587906815,2,-1,-2,-1,-2,-3,1,1
1513226587906815,0,-2,-1,-1,-2,-2,-2,-1
1513226587906815,1,0,-1,-1,-2,-1,-1,0
1513226587906815,0,-1,0,-1,0,-2,2,-1
1513226587921816,-1,-2,-2,-2,-1,-3,-3,-1
1513226587921816,-1,-2,-1,-1,1,0,-1,0
1513226587921816,-1,-1,0,1,0,0,-1,-1
1513226587921816,-1,-3,-3,-2,-2,0,-2,-1
1513226587943820,-2,3,-1,-1,-1,0,0,0
1513226587943820,-2,-2,-2,-1,-3,-2,-1,1
1513226587944813,1,2,0,1,0,-1,1,-2
1513226587944813,0,-1,1,-1,0,-4,0,-1
1513226587965895,-5,0,2,-1,-1,0,0,-3
1513226587965895,1,0,-2,-1,-3,-2,0,-1
1513226587966891,0,-2,-1,-1,-1,0,0,-1
1513226587966891,-10,-3,0,0,-3,-1,-1,-4
1513226587980904,4,-1,-3,-1,-1,0,0,1
1513226587980904,-1,-1,-2,-1,2,-1,-2,-2
1513226587981899,1,-1,0,-1,-1,0,-1,-1
1513226587981899,1,-2,-4,-1,-2,0,-2,-1
1513226588003940,2,-2,-1,-1,0,-1,-2,-2
1513226588003940,-3,0,0,-2,-3,-1,1,1
1513226588004914,3,-1,-2,0,0,-1,0,0
1513226588004914,-2,-1,0,-1,-1,-1,-2,-3
1513226588026981,-2,-2,-3,-2,1,-1,-2,0
1513226588026981,4,-1,0,-1,0,1,0,-1
1513226588027973,0,-2,0,-2,-1,-3,-2,0
1513226588027973,-1,0,1,2,0,-1,2,0
1513226588041030,-3,1,-2,-1,-1,2,1,0
1513226588041030,-2,0,-2,0,-1,0,0,-1
1513226588042032,-1,-1,1,-2,-2,-1,0,0
1513226588042032,-1,-3,-1,-3,-1,-2,-2,-1
1513226588064050,2,0,-1,-3,-1,-1,-1,-2
1513226588064050,-3,-2,0,-1,-1,0,-1,-2
1513226588065048,1,1,0,-1,-3,-1,-1,0
1513226588065048,1,-2,-3,0,-1,-1,-1,0
1513226588086071,-7,0,2,-3,1,-1,0,1
1513226588086071,2,0,-1,1,-1,-1,-2,0
1513226588087073,-1,0,-1,-2,-1,-1,0,-2
1513226588087073,-1,0,0,-1,-3,-1,-1,-1
1513226588101076,1,-4,-7,-2,-3,-1,-4,-2
1513226588101076,-1,-2,-1,-1,0,-1,-1,-2
1513226588109092,-1,-1,-1,-1,-2,0,0,0
1513226588109092,0,-1,-2,-3,0,-1,0,-1
1513226588124170,0,-1,-2,1,-1,0,-1,-1
1513226588124170,-2,-1,0,-2,1,1,-2,0
1513226588125166,-2,0,-2,0,-2,-1,0,-1
1513226588125166,-1,1,-2,-3,1,-1,0,-1
1513226588146182,-5,-2,4,1,1,0,0,-2
1513226588146182,6,0,-2,0,0,-1,-2,0
1513226588147164,0,-2,-2,-1,0,0,-1,-1
1513226588147164,0,-2,-2,1,-1,-2,0,-3
1513226588161234,1,-1,-1,-1,0,-2,0,-2
1513226588161234,-1,2,-2,-1,0,-1,-1,0
1513226588169174,-4,-4,-2,-1,0,-2,-1,-1
1513226588169174,-1,0,0,-3,-3,-1,0,0
1513226588184184,2,-2,-3,-1,-1,-1,-2,-1
1513226588184184,-3,-3,-1,0,-1,-1,-1,0
1513226588185185,-1,-1,-2,-1,-1,1,-1,0
1513226588185185,2,-1,0,-1,-1,1,-1,0
1513226588206220,-4,0,0,1,0,-1,-3,0
1513226588206220,0,0,1,-2,-3,-2,-1,-2
1513226588207199,-2,0,-1,0,0,-1,-1,1
1513226588207199,-1,-1,-1,-1,0,-2,0,0
1513226588221220,0,-1,-1,-1,-1,-1,1,0
1513226588221220,-1,-1,0,1,-1,-2,-1,-3
1513226588229215,-1,2,-3,-3,0,-2,0,-3
1513226588229215,0,-2,-3,-1,1,-2,-2,-2
1513226588244226,1,0,-2,-2,0,0,-2,1
1513226588244226,-9,0,1,-1,-3,-1,0,-1
1513226588245226,0,-1,1,-1,-2,-2,-2,-1
1513226588245226,-4,-1,2,-1,-1,0,0,0
1513226588266295,2,-2,-1,-2,-1,-3,0,-1
1513226588266295,1,1,-1,0,0,-2,3,-1
1513226588267295,-2,-2,-2,0,-1,-1,-2,-2
1513226588267295,-1,-1,-5,-3,-2,1,-1,-2
1513226588280304,-1,-1,0,0,-4,1,-1,-1
1513226588280304,-2,1,0,-1,0,0,-2,1
1513226588289330,-1,0,1,-1,0,-1,0,0
1513226588289330,-1,-1,0,-1,-2,-1,-1,-2
1513226588304379,-2,-3,-4,-2,-2,-1,-1,-3
1513226588304379,0,-3,-1,-1,-2,-1,1,1
1513226588305323,0,-2,-2,-1,-2,-1,-2,-1
1513226588305323,-4,0,0,-2,-3,0,-2,-2
1513226588326337,-1,0,0,-2,0,-1,0,-1
1513226588326337,0,-2,0,-2,-1,1,-3,-2
1513226588327338,-1,-1,0,-2,-1,-2,-2,-1
1513226588327338,1,-2,-1,-1,-2,-2,-1,-1
1513226588340355,1,-3,-2,1,-1,1,0,1
1513226588340355,-1,-2,-3,-1,1,-3,-1,-1
1513226588349363,-1,1,-1,1,-2,-1,0,-2
1513226588349363,-2,0,-1,-2,-1,-2,0,-1
1513226588364379,-2,-1,0,0,2,-1,0,-2
1513226588364379,0,-1,-1,-2,-2,-1,-1,-2
1513226588364379,-1,-2,-2,-2,-1,-2,-1,0
1513226588364379,-3,-3,-2,0,-2,-1,0,-2
1513226588386399,-2,0,1,-1,-2,0,-3,-3
1513226588386399,-1,-2,-2,1,-2,-1,0,1
1513226588387400,-2,0,1,-2,-2,0,-2,-2
1513226588387400,1,-2,-1,-2,-1,-1,-1,-1
1513226588400392,-1,0,-1,-1,0,-4,-2,-1
1513226588400392,1,0,-1,0,-1,1,0,0
1513226588408452,-2,0,-2,-2,-1,-1,-2,-2
1513226588408452,1,1,2,-1,1,-1,2,0
1513226588423462,0,2,-2,-3,-1,-1,-3,-1
1513226588423462,-1,-1,0,-3,-1,-2,-1,1
1513226588424448,0,1,-1,-2,0,2,-2,-1
1513226588424448,0,-2,0,-2,-2,1,-2,-1
1513226588446492,-4,2,2,0,0,-1,0,0
1513226588446492,1,0,-1,-1,-1,-1,-1,-1
1513226588447464,-1,1,-2,0,-1,-3,-1,-1
1513226588447464,-3,1,-1,-2,0,-3,-1,-2
1513226588469499,-2,-2,0,-2,-1,-2,-1,0
1513226588469499,0,0,-2,0,-1,0,1,0
1513226588470480,-2,-1,0,-2,-1,-1,-1,-3
1513226588470480,0,0,-2,-3,-2,0,-2,-2
1513226588483508,2,-3,0,1,-2,-1,1,0
1513226588483508,-1,-2,-2,0,-1,-2,-2,-1
1513226588484491,1,-3,0,-1,0,2,0,0
1513226588484491,-2,0,-1,-1,0,-1,2,-1
1513226588506527,0,-1,-2,0,-1,2,0,-2
1513226588506527,-4,1,-2,0,0,-3,0,0
1513226588507515,-1,-1,0,-2,-3,-2,-2,1
1513226588507515,1,-2,-4,0,0,-4,-3,-2
1513226588529536,-7,-2,-2,0,2,2,-1,-1
1513226588529536,4,-4,-1,1,-1,1,-2,0
1513226588530521,-5,-3,-1,-2,-3,-1,-1,-2
1513226588530521,0,2,0,-1,-1,-1,-1,-1
1513226588543543,2,0,-3,-2,-1,-2,-1,0
1513226588543543,-1,-1,0,-1,-1,-1,-3,0
1513226588544531,1,0,-2,-2,0,-1,-1,-2
1513226588544531,-3,-5,0,0,-2,-1,0,0
1513226588566652,2,2,-3,-1,-2,-1,-3,-1
1513226588566652,-2,0,-3,-3,-2,-1,-1,-1
1513226588567653,1,-3,0,0,0,-2,-1,-2
1513226588567653,-3,-1,-2,-1,-1,-1,-3,-1
1513226588589665,-3,-3,-1,0,-2,1,-1,-1
1513226588589665,-3,0,2,0,0,0,-1,-2
1513226588590666,0,2,-2,-3,-1,-1,0,-1
1513226588590666,2,-2,3,-1,0,-3,-1,-1
1513226588603717,1,-2,-3,-1,-1,-4,-1,-1
1513226588603717,-4,0,0,1,-2,-2,-1,1
1513226588604694,-2,-3,0,-1,0,-1,-1,1
1513226588604694,-3,-1,-2,-2,-1,-1,0,1
1513226588626706,-1,-1,-1,-1,0,-1,0,-1
1513226588626706,1,1,-3,-2,-1,-1,-1,-3
1513226588627693,0,0,-1,-2,-2,0,-1,-1
1513226588627693,-2,-2,-1,-2,2,-1,-1,-3
1513226588649731,0,-2,1,-1,-1,0,1,2
1513226588649731,1,0,-1,-1,-2,-2,-2,-2
1513226588650705,0,1,1,-1,-2,-1,-1,-2
1513226588650705,1,0,-2,-1,-2,-2,-2,0
1513226588663738,0,-4,0,-1,0,0,-2,-1
1513226588663738,-1,-1,0,-2,-3,-2,0,-2
1513226588664717,0,-1,-2,-1,-1,-2,-1,-2
1513226588664717,-6,0,-1,0,-1,0,-2,0
1513226588686750,-1,-2,-1,1,1,-2,0,-3
1513226588686750,-1,1,-1,0,-1,-2,-1,-1
1513226588687735,-2,0,-5,-1,-3,-2,-2,-2
1513226588687735,2,2,-6,-4,-1,-2,0,-2
1513226588709769,-2,0,1,-2,-2,0,0,-1
1513226588709769,-5,-1,-1,-1,1,2,1,-2
1513226588710748,1,-2,-3,-3,-3,1,0,-1
1513226588710748,-4,0,-2,-1,0,0,-1,-1
1513226588723762,0,0,-1,0,-3,-2,-3,1
1513226588723762,1,-3,-2,-1,-1,-1,-1,-1
1513226588724763,0,-1,1,1,-1,-1,-1,-1
1513226588724763,-3,-2,1,-1,0,2,-2,-2
1513226588746776,-2,-2,3,-1,0,0,-3,-2
1513226588746776,0,0,-1,-2,-1,-3,-2,0
1513226588747775,-2,-3,1,-1,-1,-1,1,0
1513226588747775,2,-3,-1,-1,-3,-1,1,-1
1513226588769791,0,0,-3,-1,1,1,0,-1
1513226588769791,1,-3,0,0,0,0,2,-1
1513226588770792,-1,-2,-1,-1,-3,-3,-3,-1
1513226588770792,0,-1,-3,-1,-2,-2,-2,-3
1513226588791806,-3,-2,0,-1,0,-1,-1,1
1513226588791806,0,0,-3,0,0,-1,-2,1
1513226588792808,-1,3,-1,-1,-1,-1,-2,-2
1513226588792808,-3,-3,0,-3,-2,2,-2,-1
1513226588806828,-1,1,-1,-2,-1,0,-1,-1
1513226588806828,0,0,-2,-1,1,-1,-1,-1
1513226588806828,0,-2,-1,0,-1,0,0,1
1513226588806828,-3,-2,0,-1,0,-1,0,-1
1513226588829844,-1,-1,0,-4,0,-2,0,-1
1513226588829844,1,-3,-1,0,-2,-1,-4,-1
1513226588830836,-2,-2,0,-1,-1,-1,-1,-1
1513226588830836,1,-1,1,0,-1,-2,0,-2
1513226588843846,0,-2,-1,-1,-2,0,-2,-1
1513226588843846,-2,-3,-1,0,-1,-1,-1,-1
1513226588844846,-3,-2,-1,-2,-1,-2,-1,-1
1513226588844846,0,-2,1,-1,1,1,-1,0
1513226588866863,-2,-1,-2,0,-1,-2,0,-3
1513226588866863,0,3,1,-2,-1,-1,1,0
1513226588866863,0,-2,-2,-1,-1,-3,-3,0
1513226588866863,-2,-1,-2,-2,-2,-5,-1,-1
1513226588889876,0,-3,4,3,3,0,0,2
1513226588889876,-2,0,-3,-1,-1,1,-1,0
1513226588889876,2,-1,-4,-3,-3,-1,-1,-1
1513226588889876,1,-1,1,-1,1,-1,-1,-1
1513226588904885,0,-1,0,-1,-1,-2,-1,-2
1513226588904885,-4,-1,0,0,-1,-2,-1,-2
1513226588911904,0,-2,0,-1,0,-1,3,1
1513226588911904,0,0,-2,-1,-1,-1,-1,-1
1513226588926902,-1,-3,-5,-3,0,-2,0,-1
1513226588926902,0,-2,-1,-1,-1,-1,-1,0
1513226588926902,-3,1,-1,-1,-1,-2,-2,-1
1513226588926902,-1,-2,-3,2,0,0,-1,-1
1513226588949943,0,-1,-2,-1,-1,-1,0,-1
1513226588949943,0,-2,0,0,-2,0,0,-2
1513226588949943,-1,-3,-1,-1,0,1,-1,0
1513226588949943,-1,-3,-3,-3,-2,-1,-1,-1
1513226588963945,-1,-2,-2,1,-2,-1,-1,1
1513226588963945,-1,-1,-2,1,-2,-2,0,0
1513226588964929,0,-1,0,-1,-3,-1,-1,-3
1513226588964929,-2,0,-1,-3,-1,-1,-1,0
1513226588985944,0,3,-2,-1,0,-2,0,-1
1513226588985944,1,-1,-1,-1,-1,1,-2,0
1513226588993950,0,-1,-2,0,0,-3,0,-1
1513226588993950,1,-3,1,-1,-1,-2,0,-3
1513226589009975,-5,-3,0,-1,-1,2,-3,-2
1513226589009975,-1,-2,0,-1,1,0,-3,-2
1513226589009975,-4,-3,1,1,-1,1,0,1
1513226589009975,-2,1,0,-2,-4,-2,-1,-1
1513226589024027,0,-2,0,1,-1,-1,0,0
1513226589024027,-2,0,-1,-1,3,0,-2,-1
1513226589024972,-2,-2,-3,-4,0,-3,-2,-3
1513226589024972,0,0,-3,-1,-2,2,0,-1
1513226589045987,0,-1,-2,0,-1,0,0,-2
1513226589045987,0,0,-2,0,-2,-1,-1,-3
1513226589046985,1,2,-1,0,-1,-1,-2,-2
1513226589046985,-1,0,2,-1,-2,-2,0,-1
1513226589070070,0,0,-3,0,-1,-1,-2,0
1513226589070070,0,-2,-2,0,-1,-2,-1,-1
1513226589071056,-3,-3,-2,-2,0,1,0,-2
1513226589071056,-1,-3,-1,0,-4,1,0,-3
1513226589083079,0,-1,-1,-3,0,0,0,-2
1513226589083079,-2,-1,1,-1,-1,-2,-2,0
1513226589091073,-1,0,-1,-2,-2,-2,-4,0
1513226589091073,3,-3,-6,-1,-3,-3,-1,0
1513226589106103,-2,-1,0,-1,1,0,0,0
1513226589106103,-2,-4,0,-3,-2,-1,1,-2
1513226589107081,-2,-3,0,-1,-3,-1,-1,-1
1513226589107081,-2,0,-6,-1,0,-1,-2,-1
1513226589129117,-1,1,-1,0,0,-1,-2,0
1513226589129117,-1,-1,-2,-1,0,-2,0,0
1513226589130118,-2,0,-1,-1,1,1,-2,-2
1513226589130118,0,1,-1,-2,-1,-1,0,-2
1513226589143236,-1,0,0,0,0,1,-1,1
1513226589143236,-2,-1,-4,-1,0,-2,-1,0
1513226589151235,-2,1,-2,-2,0,-1,0,-1
1513226589151235,-1,-2,1,-2,1,-1,-1,-3
1513226589166245,0,0,0,0,-1,-1,0,0
1513226589166245,2,0,-2,-1,-2,-2,-3,-2
1513226589167245,-2,1,-2,0,-4,-1,-1,-2
1513226589167245,-2,-4,0,-1,1,0,-1,-1
1513226589189264,1,-1,1,1,-2,-1,0,-1
1513226589189264,0,0,-1,-1,0,-2,1,1
1513226589190265,4,0,-2,0,-4,0,1,0
1513226589190265,0,2,-2,-1,-2,-2,-3,-1
1513226589203280,-2,-1,-2,-2,-1,-2,0,-1
1513226589203280,-3,0,-5,-1,0,0,-1,-4
1513226589211309,-1,1,-2,-2,1,-1,-1,-2
1513226589211309,-1,0,-2,0,-1,-1,0,-1
1513226589226320,2,-3,-3,0,-2,0,-2,-1
1513226589226320,-1,-2,1,0,-3,-1,-2,2
1513226589227320,-1,-2,-1,-3,1,-1,0,-2
1513226589227320,-2,-3,1,-2,0,0,0,-2
1513226589249339,-3,-3,-1,-1,-1,0,-3,-3
1513226589249339,-1,-2,-1,-1,-1,-2,-1,2
1513226589250337,-2,0,-1,0,-1,-2,0,-1
1513226589250337,-2,1,-1,0,3,0,-1,0
1513226589263349,-2,2,-1,-1,0,-1,0,-2
1513226589263349,-1,-1,-1,-2,-1,0,-1,-1
1513226589271374,-2,-1,-1,0,-2,0,0,-2
1513226589271374,0,-2,-1,-2,0,-2,-1,-1
1513226589286384,1,-1,-1,-1,-3,-1,-1,1
1513226589286384,-1,1,1,0,0,-1,-2,0
1513226589287364,1,-3,0,-1,0,0,1,-1
1513226589287364,-4,0,-1,0,-1,-1,-3,-1
1513226589309379,1,-1,-1,-1,2,-2,0,-1
1513226589309379,1,-2,1,0,-1,-2,-2,-1
1513226589310379,-3,-1,-1,-1,-1,-2,-3,-2
1513226589310379,0,1,-2,-1,0,0,-1,1
1513226589323388,0,-2,0,-1,-2,0,0,0
1513226589323388,-1,-1,1,0,-1,-1,1,0
1513226589331394,0,-1,2,0,-1,0,-2,0
1513226589331394,-3,-3,0,0,-1,1,2,-1
1513226589346416,-1,3,-1,1,0,-1,-1,0
1513226589346416,-1,-1,-2,1,-1,0,1,-1
1513226589347408,0,-2,-1,-2,-1,-2,-2,-1
1513226589347408,-2,-3,0,-3,-1,-3,-2,-1
1513226589369420,2,-2,-1,-3,1,-1,0,-3
1513226589369420,-1,-1,-1,-2,-1,1,0,-1
1513226589370434,0,-2,-3,-3,-3,-3,0,1
1513226589370434,1,-2,-1,0,0,1,0,-3
1513226589392438,-2,-1,-2,0,0,-1,-1,0
1513226589392438,-1,0,-1,-1,0,0,-2,-1
1513226589392438,-1,1,0,-1,-2,0,1,1
1513226589392438,-2,1,-1,-2,-2,0,-2,-2
1513226589406469,-3,-1,-3,-1,0,-2,0,-1
1513226589406469,1,-1,-1,-1,-2,-2,-4,-2
1513226589407469,2,3,-2,-1,-1,-2,-2,0
1513226589407469,-1,-2,-2,-2,-1,-1,3,0
1513226589430481,0,0,-3,0,-3,-1,-2,-2
1513226589430481,-2,-1,0,0,0,-1,-2,-1
1513226589430481,-3,-3,-1,-1,-2,0,-1,-1
1513226589430481,2,0,-1,-3,-2,-3,0,0
1513226589452497,-4,-2,-4,-3,-1,-1,-3,-2
1513226589452497,2,-2,4,1,-2,0,0,2
1513226589452497,-3,-2,-1,-2,-2,1,0,-2
1513226589452497,-2,0,-1,0,1,0,0,-1
1513226589466490,1,-4,0,0,-1,-1,0,0
1513226589466490,-2,0,-4,0,-1,-3,-2,-2
1513226589467491,-3,-4,-2,-2,-1,0,-3,-2
1513226589467491,-2,-1,-2,0,-2,-1,-1,-2
1513226589489578,-1,0,-2,-1,1,0,-1,-1
1513226589489578,-1,-1,-2,-1,-2,-2,0,1
1513226589490511,1,-3,-1,-2,-1,-2,1,-4
1513226589490511,1,0,-3,-2,-2,0,-1,-1
1513226589512523,-1,0,-2,0,0,1,0,0
1513226589512523,2,0,-4,-3,0,-3,-2,-1
1513226589512523,-3,1,-1,0,-1,-1,1,-1
1513226589512523,1,2,-3,-2,-2,-2,-3,-2
1513226589526546,-2,-2,-1,-2,-1,0,-2,-1
1513226589526546,-1,-2,-1,-1,-2,1,0,0
1513226589527543,1,-2,-2,-1,-2,0,-2,-1
1513226589527543,-8,-4,-3,-1,-3,-2,-3,-2
1513226589549549,2,-1,2,0,0,-2,-1,-1
1513226589549549,-3,0,1,-1,0,0,1,-1
1513226589550558,-2,1,-2,-3,-1,-2,0,-2
1513226589550558,-3,-2,0,-1,-1,-2,-1,-1
1513226589572565,1,-2,-1,-1,1,1,0,-1
1513226589572565,-1,-3,-2,-2,0,-1,-1,-3
1513226589573566,1,-1,0,-1,-3,-1,-3,-2
1513226589573566,2,-2,1,-2,-1,0,0,-1
1513226589585574,-1,1,-2,-1,-1,0,-2,0
1513226589585574,-1,0,-3,0,1,0,-1,0
1513226589594580,-1,-2,-3,-3,-1,-1,1,-1
1513226589594580,0,-2,-1,-2,-1,0,-1,0
1513226589609604,0,-2,1,-1,-2,-2,1,2
1513226589609604,-7,1,2,0,-2,0,0,-3
1513226589611604,0,1,-1,0,-1,-2,-2,-3
1513226589611604,0,-4,-1,0,1,1,-1,0
1513226589632609,1,-1,-1,1,-2,-2,-1,0
1513226589632609,0,-1,-3,0,-3,-2,0,1
1513226589633609,-2,0,-1,-1,-2,-1,-1,-1
1513226589633609,-6,-2,1,1,-1,1,1,-1
1513226589645617,-4,-1,3,-1,1,-1,0,-2
1513226589645617,1,-3,1,-2,-1,0,-1,0
1513226589654627,-2,-1,-1,-1,0,-1,0,0
1513226589654627,4,-1,-1,0,-1,0,0,0
1513226589669634,-3,-3,0,1,-2,-2,-1,0
1513226589669634,-1,-1,-1,-1,-2,-1,0,-1
1513226589671636,-1,-1,-5,-3,-2,0,-1,-2
1513226589671636,-1,-1,1,-2,0,-2,0,-2
1513226589692649,0,1,-2,0,-1,0,-2,0
1513226589692649,-1,0,-1,-2,-2,1,1,-2
1513226589694651,-1,-3,-2,-3,-2,-2,-1,0
1513226589694651,0,1,-1,0,1,-3,-1,-1
1513226589706659,-1,-3,-1,-2,0,1,0,-2
1513226589706659,0,-1,-3,1,-2,-1,-3,0
1513226589713665,3,-1,-2,-2,-1,-2,-4,0
1513226589713665,0,-1,-2,-2,-1,-1,0,-2
1513226589729675,2,-2,-1,1,-1,1,-1,0
1513226589729675,-4,-2,1,-2,0,0,-3,-2
1513226589731677,-3,-1,0,-3,0,-1,-2,-4
1513226589731677,-1,1,2,-1,-1,-1,-1,0
1513226589751715,0,-1,-5,-2,-1,-1,0,-1
1513226589751715,3,-1,-4,-1,-2,-1,-2,2
1513226589753692,-1,-1,-1,-1,-2,-1,1,-1
1513226589753692,-2,0,-2,-1,0,0,-1,-2
1513226589765712,-1,1,-1,0,-3,-2,-1,0
1513226589765712,-2,-1,0,-1,0,1,0,1
1513226589774707,0,-1,-1,-1,-1,0,-2,0
1513226589774707,1,-2,-2,-1,-1,0,0,-2
1513226589789724,0,-4,-1,0,0,-1,-1,-1
