timestamp,emg1,emg2,emg3,emg4,emg5,emg6,emg7,emg8
1514949564624045,-1,-1,0,-1,-2,-1,-2,-3
1514949564624045,0,-2,-2,-1,0,0,-1,-1
1514949564628044,-2,0,0,-3,-1,-2,0,-1
1514949564628044,-1,-3,-2,-1,-1,2,-1,1
1514949564638053,-1,-2,0,1,0,-1,-3,-3
1514949564638053,0,0,-1,-2,-1,-3,-3,-1
1514949564638053,-1,0,-2,0,-1,-1,0,-2
1514949564638053,0,-3,-1,-2,-2,-1,0,-2
1514949564661070,-1,-1,-1,-1,-2,0,-2,-2
1514949564661070,1,-3,0,1,-4,0,1,0
1514949564661070,-2,-4,-1,-1,0,-1,-2,-1
1514949564661070,0,0,1,-1,-1,-1,-3,-1
1514949564683083,-1,0,-2,-2,-2,-1,-1,-2
1514949564683083,-1,1,-1,-2,-1,-1,-1,-3
1514949564684084,0,-1,-4,-3,-3,-1,-1,-1
1514949564684084,-2,1,-1,-2,-1,-2,-1,-2
1514949564697093,-2,-1,0,0,0,0,-2,-2
1514949564697093,0,0,-3,-1,-1,1,-1,-1
1514949564698094,0,-2,-2,0,-1,-1,-2,-3
1514949564698094,0,0,-2,-2,0,0,-1,-1
1514949564721110,0,-2,-2,-1,0,-1,-1,-1
1514949564721110,-2,0,-1,-3,-1,-1,-1,-1
1514949564723114,-1,-1,0,-1,0,-2,0,-2
1514949564723114,1,-2,-2,-1,-1,-2,-1,0
1514949564743126,-2,1,-2,-2,-1,-3,2,0
1514949564743126,-1,-1,-1,0,-2,0,0,-1
1514949564744127,0,-1,-2,-1,1,-1,-2,0
1514949564744127,-1,-1,-1,0,-1,0,-2,-1
1514949564757138,-1,-2,0,-2,-1,-1,1,-2
1514949564757138,-2,-1,0,0,2,-2,-4,-1
1514949564758138,-3,-2,-1,-1,-2,-2,0,-2
1514949564758138,-1,-2,-2,0,0,-1,1,-1
1514949564780152,-2,1,-2,-1,-2,-2,-1,0
1514949564780152,-1,-1,-1,-2,-2,-1,0,-1
1514949564781153,-2,-1,1,-2,-2,0,2,-2
1514949564781153,-2,-1,-2,-2,-2,-1,0,-1
1514949564804172,-1,-1,-1,-2,-1,-2,-2,0
1514949564804172,-1,0,-1,-2,-1,0,-3,0
1514949564805169,-1,-2,-1,-1,-1,-1,-2,0
1514949564805169,-2,0,-1,-1,0,-2,0,-1
1514949564817178,-2,-2,-1,-2,-1,0,-3,0
1514949564817178,-2,-3,-2,-1,-1,-1,-1,-2
1514949564818183,1,-2,0,0,1,-3,-1,-1
1514949564818183,-2,-1,0,0,-3,-1,-3,0
1514949564840203,2,1,-3,-1,-2,0,-1,-1
1514949564840203,-2,1,-1,0,-2,-2,-2,0
1514949564841195,1,-3,-1,0,-1,-1,-1,-2
1514949564841195,-1,1,0,0,0,-1,-2,-1
1514949564863210,1,-4,-2,-1,-1,-2,0,-1
1514949564863210,-2,-1,-2,0,0,1,1,1
1514949564864211,-1,-2,-2,-1,-2,0,0,-2
1514949564864211,-2,-4,0,-2,0,-2,-1,-3
1514949564877246,0,2,-1,0,-1,-2,1,0
1514949564877246,0,-1,-1,-2,-2,-2,-4,-3
1514949564879222,-2,-3,-1,-2,0,-1,1,-1
1514949564879222,-1,1,-1,0,0,0,0,-1
1514949564901238,-2,1,-1,0,-1,-1,0,-3
1514949564901238,0,1,-3,-1,-2,-2,-1,-1
1514949564901238,-1,0,-1,-1,-2,-1,-4,-1
1514949564901238,-1,-1,-1,-2,-2,0,0,-2
1514949564923253,-2,-2,0,0,-1,-2,0,1
1514949564923253,0,-2,-1,-1,-1,-2,0,-2
1514949564924253,1,-2,-2,0,-2,0,-3,-1
1514949564924253,1,-2,0,-1,-1,0,-2,0
1514949564937262,-1,1,0,-2,0,-1,-1,0
1514949564937262,-1,-3,-1,-1,1,-1,-3,0
1514949564938263,-1,-1,-1,0,-3,-1,-2,1
1514949564938263,-1,-2,-2,-1,-2,-2,-1,-1
1514949564961298,-1,0,-3,0,-1,-3,-1,-2
1514949564961298,-1,-1,-1,-2,-2,-1,2,-2
1514949564962298,0,-1,0,-1,-2,-1,2,-2
1514949564962298,-2,-1,-3,-2,-1,1,-3,0
1514949564984297,-1,-1,-2,0,-2,0,-2,1
1514949564984297,0,-1,-1,0,-1,-2,-1,-1
1514949564987298,0,-2,-2,-2,0,-2,-1,1
1514949564987298,-2,0,0,-1,-1,-2,0,-2
1514949564996304,-1,-2,-1,-1,0,0,0,-1
1514949564996304,0,-1,-1,-1,-1,-1,-2,-1
1514949565005311,-1,1,0,-1,-2,0,1,0
1514949565005311,0,0,-1,-1,0,-2,0,-2
1514949565020321,-3,-1,-2,-1,-1,-1,-2,-1
1514949565020321,-2,-1,0,0,-1,-1,0,0
1514949565022335,-2,-2,0,0,1,-1,-1,-3
1514949565022335,0,-1,0,0,-2,-1,1,0
1514949565043337,-2,-1,1,-1,-2,0,1,-1
1514949565043337,2,-3,0,0,-1,-3,1,-3
1514949565044338,-2,1,-2,-1,0,0,-1,0
1514949565044338,0,-3,-2,-1,0,-1,-1,-2
1514949565056346,0,0,-3,-4,-1,-2,-2,1
1514949565056346,-2,-1,-3,-2,-1,-2,1,-1
1514949565065358,-2,-1,-2,0,-2,-2,1,-2
1514949565065358,-2,-1,-1,-1,-3,-2,-1,0
1514949565080380,-1,-2,-2,-1,0,-2,-3,-2
1514949565080380,-1,-3,0,-2,-2,-1,1,0
1514949565082383,-1,-2,0,-2,0,0,-2,-1
1514949565082383,1,-1,0,-2,-1,1,-1,-2
1514949565104380,-1,-3,-3,0,-1,0,-2,-2
1514949565104380,1,-2,-1,-1,-1,-1,1,1
1514949565108383,0,-3,-2,-1,0,-1,0,-1
1514949565108383,-2,-2,-2,-2,-2,-2,2,0
1514949565116401,-2,-1,0,-1,-1,0,-3,1
1514949565116401,-2,0,-2,0,0,1,-2,-2
1514949565125407,0,-2,0,-2,-3,-1,-1,0
1514949565125407,-1,-1,1,0,-1,-1,-3,0
1514949565140421,-1,-1,-1,-1,-1,0,-1,-2
1514949565140421,-1,-1,-1,-1,-2,-2,-2,-2
1514949565142408,0,-1,0,0,-1,0,-1,-2
1514949565142408,-2,-1,-2,0,-1,-1,-1,-2
1514949565163423,-2,1,-2,-1,-2,-1,0,-1
1514949565163423,-3,-3,-1,-1,-1,0,0,-3
1514949565165423,-1,-1,-2,0,0,-1,0,-3
1514949565165423,0,0,-1,0,-1,-1,-1,-3
1514949565176455,-2,-4,1,0,-1,-1,-1,0
1514949565176455,1,0,0,-1,0,-1,-2,1
1514949565187439,-3,-3,-1,-2,0,-2,0,1
1514949565187439,-2,1,-3,-2,1,-1,-1,0
1514949565200448,-1,0,-2,-1,-1,1,-1,-1
1514949565200448,-3,-3,-2,-1,-2,-1,-2,1
1514949565202452,0,-2,0,0,-1,-2,-2,-2
1514949565202452,0,-1,-2,-1,-2,-1,1,-2
1514949565223469,-1,-2,0,-2,-2,-1,-1,0
1514949565223469,-1,-2,-1,-2,0,0,-1,0
1514949565224467,-1,-2,1,-3,-2,0,-1,-2
1514949565224467,1,-3,0,-1,-1,0,-1,-1
1514949565236474,-1,-1,-1,-2,0,-3,1,0
1514949565236474,-1,-2,0,-2,-1,-1,-2,-1
1514949565245492,-1,-2,-1,-2,-1,-2,-2,0
1514949565245492,1,-1,-1,1,-1,-1,-2,0
1514949565260515,0,-1,1,-1,-1,-1,-1,-1
1514949565260515,1,1,0,-2,-1,-1,0,0
1514949565262492,-2,-1,-1,-2,-1,0,0,0
1514949565262492,-3,1,-1,-2,-1,1,-2,-3
1514949565283507,0,-1,-2,0,-1,0,-2,0
1514949565283507,0,0,-1,-1,-1,-1,1,-2
1514949565287510,1,1,-2,-1,1,-1,-2,-2
1514949565287510,-2,-1,0,-1,-1,-3,0,-2
1514949565296518,-1,1,-1,-1,-1,-1,-1,0
1514949565296518,-2,1,-1,-1,-1,-2,-3,-2
1514949565305524,-1,-1,-3,-1,-1,-1,-1,0
1514949565305524,0,-4,0,-1,-1,0,-2,1
1514949565320546,-2,0,1,-1,0,-1,0,-1
1514949565320546,0,-2,-1,-2,-2,-1,1,-1
1514949565322552,1,-1,-3,-2,0,-1,-1,-3
1514949565322552,0,-2,-1,-1,-2,-1,2,-1
1514949565342549,-1,-1,-2,-1,0,-1,-2,0
1514949565342549,-1,-3,0,-1,-1,-2,-1,0
1514949565344550,0,-1,1,1,-1,-1,-1,-3
1514949565344550,-2,1,-1,-1,0,-2,1,1
1514949565356558,-1,-2,-3,-2,-3,-2,0,-4
1514949565356558,-1,-1,-1,-1,-1,-1,-1,-1
1514949565366566,-1,-1,0,-3,-2,1,-3,-1
1514949565366566,0,-3,1,-1,-2,-1,-1,0
1514949565381576,-1,1,-2,0,-1,1,0,-1
1514949565381576,-3,1,-1,0,-2,0,-1,-2
1514949565385580,-1,-1,-1,0,-1,-2,0,-1
1514949565385580,0,0,-1,-2,-2,-2,-3,-2
1514949565402594,0,-1,-1,-1,0,-3,0,-1
1514949565402594,-1,-1,-3,-1,0,-2,-3,-2
1514949565404592,-2,1,-2,0,-1,-2,0,0
1514949565404592,-1,-2,1,-1,-2,0,0,1
1514949565416658,-1,-2,0,-2,0,-2,-2,-1
1514949565416658,0,-2,-1,-2,0,-1,0,-1
1514949565425608,0,-2,-2,-1,-2,-2,-2,-1
1514949565425608,-2,-3,-1,2,0,-1,1,-2
1514949565440618,-1,-2,-2,-1,0,-1,-1,0
1514949565440618,1,-2,-2,-3,-1,1,-1,-1
1514949565442621,-1,-2,0,-2,-1,-2,-1,-1
1514949565442621,-1,-1,-2,-1,-2,0,1,-2
1514949565462646,-1,0,-1,-1,-1,-2,-2,-2
1514949565462646,-2,-1,-1,-1,0,-1,0,-1
1514949565464635,-1,-2,-1,-1,-1,-1,-2,0
1514949565464635,-1,-1,-2,-2,-1,-3,-2,0
1514949565486653,-1,-1,-2,1,0,-1,-2,-1
1514949565486653,-2,0,-1,0,-1,1,0,-3
1514949565488653,-1,-3,1,-1,1,-2,0,-3
1514949565488653,0,-1,-1,-2,0,-1,-2,0
1514949565500662,0,0,-1,-1,-3,-1,-1,0
1514949565500662,0,-1,-2,0,-1,-1,-1,1
1514949565502663,0,-2,0,0,1,-1,0,-1
1514949565502663,-1,-1,0,0,0,-1,1,-1
1514949565523680,-2,1,-1,-1,-2,-4,1,-1
1514949565523680,-1,-2,0,0,-1,-1,-1,-2
1514949565524677,0,1,-2,-1,-1,-2,-1,-1
1514949565524677,-2,-2,-2,-1,-1,0,-1,-3
1514949565545704,1,-1,-1,0,1,0,-4,-1
1514949565545704,-2,-2,-3,1,0,-4,0,0
1514949565547695,-2,0,-1,-1,-1,-1,-2,1
1514949565547695,-1,-1,0,-2,0,-1,-1,-3
1514949565560712,-3,0,0,-2,0,-1,0,0
1514949565560712,0,1,-1,-3,-3,-2,-3,-2
1514949565561703,-1,0,0,-1,-1,-2,-1,-2
1514949565561703,0,1,-1,-1,0,-2,-2,-1
1514949565583719,-1,0,0,-2,-2,-1,-1,-1
1514949565583719,-1,0,-2,-2,-1,-1,-1,1
1514949565587722,-1,-3,-2,-2,-2,-1,0,-1
1514949565587722,-1,-1,-2,-1,-1,-2,-2,-1
1514949565605734,1,1,0,1,1,0,-2,0
1514949565605734,-1,-2,-2,0,-2,0,-2,-1
1514949565606735,-2,1,-2,-1,-1,0,-2,-1
1514949565606735,-3,-2,-2,-1,-1,0,-3,-2
1514949565619747,-2,-2,-2,-1,-3,2,-1,0
1514949565619747,0,0,0,-1,-1,-1,-1,0
1514949565626752,0,0,0,0,-1,-1,1,-1
1514949565626752,-1,-3,-1,-1,-2,-2,1,0
1514949565642761,-3,0,-1,0,-1,-2,-1,-1
1514949565642761,-2,-1,-2,-2,-1,-1,-1,-2
1514949565644762,-1,-3,-3,0,-2,0,0,-1
1514949565644762,0,1,0,-1,-2,-1,-2,0
1514949565665777,0,-1,-1,-1,-1,-1,-2,0
1514949565665777,0,-2,-1,0,-1,-1,-3,-1
1514949565666788,-2,0,-2,-2,-1,-1,-2,-2
1514949565666788,-1,-1,-2,0,0,1,-1,-2
1514949565680788,0,0,0,1,-2,-3,0,-4
1514949565680788,1,-1,-1,-2,-1,-2,-2,0
1514949565687794,0,-3,-2,-1,-1,0,1,0
1514949565687794,-2,-4,-1,-1,-1,-1,0,0
1514949565702805,-2,0,-2,-3,1,0,-1,0
1514949565702805,0,-1,0,0,-1,-1,-1,-2
1514949565704805,0,-1,-3,0,-1,-2,-2,-1
1514949565704805,-1,-1,-2,0,-1,-1,0,-2
1514949565725820,-1,-2,-1,-2,-1,-3,-1,-1
1514949565725820,-2,-1,-1,-2,-2,1,-1,0
1514949565727821,-2,1,1,-1,-1,-1,-4,-2
1514949565727821,1,0,0,-1,-1,-1,-1,0
1514949565739829,0,-1,-3,-1,0,-1,-1,0
1514949565739829,-1,-1,-1,0,0,-1,2,-1
1514949565746835,-2,-2,0,0,-3,1,-1,-1
1514949565746835,0,-2,-2,-2,-2,-2,-3,-1
1514949565762846,-2,-2,0,-1,-2,-1,-1,-2
1514949565762846,-1,-2,-2,-2,-1,-1,-1,-1
1514949565764848,-1,-2,-1,-1,0,-2,-1,1
1514949565764848,-2,0,-2,0,0,0,0,0
1514949565785865,-1,0,-4,-2,-1,-1,1,-1
1514949565785865,0,-4,-1,-1,-1,-1,-1,-3
1514949565789865,0,0,0,-1,-2,-2,-1,-1
1514949565789865,0,-1,-1,-2,-2,0,0,-2
1514949565799871,0,1,-1,-1,-1,-1,-2,0
1514949565799871,0,-2,-1,-1,-1,-1,-1,-2
1514949565806876,1,-1,-2,0,-2,-1,-2,-1
1514949565806876,0,-2,1,0,0,0,-2,-2
1514949565822888,0,-2,-4,-2,-1,-1,-3,-2
1514949565822888,-1,-3,1,0,-1,-2,0,-2
1514949565824890,-1,0,0,-2,-1,-1,1,-1
1514949565824890,0,-2,-1,2,-2,-2,-1,-1
1514949565845904,0,-1,-1,-1,1,0,0,-2
1514949565845904,-1,-1,-3,-2,-2,-1,-2,-2
1514949565846908,-2,-1,0,-1,-2,-2,-2,-2
1514949565846908,-1,-2,0,-1,-1,-2,1,-2
1514949565859914,0,-2,-1,-3,-3,-1,-2,-1
1514949565859914,-3,-1,-1,-1,-1,-1,-1,1
1514949565866921,-2,-3,-1,-1,1,0,0,-2
1514949565866921,-2,-3,-2,-2,-2,1,-1,-1
1514949565883932,-1,2,-2,1,-2,-1,-2,-1
1514949565883932,-3,0,-1,-1,0,-1,-1,0
1514949565886934,-3,-2,-2,-2,-1,-2,0,-1
1514949565886934,0,-1,-2,-2,-3,-1,-3,0
1514949565905948,1,-1,0,0,0,0,2,-3
1514949565905948,-1,1,-2,-2,-1,-2,-1,1
1514949565906951,-2,-1,-2,-1,0,-2,0,-1
1514949565906951,-2,-2,-1,-1,0,-1,-2,-2
1514949565919969,-1,-2,0,-1,-1,-2,-2,-1
1514949565919969,-1,-3,-2,-2,0,0,-2,-1
1514949565927963,0,0,0,0,-1,0,0,-2
1514949565927963,-2,-1,-2,-1,0,-3,-2,0
1514949565942991,-3,0,0,-2,-1,-3,-3,-1
1514949565942991,-1,-2,0,-2,-1,-1,-1,-2
1514949565944975,-2,-4,-2,-2,0,0,0,0
1514949565944975,-1,-1,-1,0,-1,-1,-2,-1
1514949565965990,-1,0,0,-1,-2,-2,0,-2
1514949565965990,-1,0,-3,-1,-3,-1,-1,0
1514949565966991,-1,-1,1,-2,-2,-1,-3,-1
1514949565966991,0,-3,-1,-2,0,-1,-2,-1
1514949565980000,0,-3,-1,-2,0,0,0,-1
1514949565980000,-1,-1,-2,0,-1,0,-1,-1
1514949565989005,0,-1,0,-1,-1,-1,-1,-1
1514949565989005,-3,0,0,-2,0,0,0,0
1514949566003015,-3,-1,-1,-2,-2,-1,-1,0
1514949566003015,0,-1,0,-1,-1,-3,-2,0
1514949566005016,-1,-2,-3,0,0,-1,0,-1
1514949566005016,-1,-1,1,0,-2,-1,-2,0
1514949566025046,-2,-2,0,-2,-1,-1,1,-2
1514949566025046,-1,-1,0,0,0,-1,-1,-2
1514949566028033,-1,-2,-1,-1,-1,-1,-3,1
1514949566028033,0,-2,-1,0,-1,-1,1,-5
1514949566039053,-1,-1,-1,-1,0,-2,0,1
1514949566039053,-1,1,-1,-2,0,-1,-2,-1
1514949566048050,1,-2,-1,1,-1,-1,-1,-4
1514949566048050,-2,1,-2,-1,0,0,-1,-2
1514949566063070,-2,-1,-2,-2,0,0,-2,0
1514949566063070,-1,-1,-2,-3,-1,1,-1,0
1514949566065060,-1,-1,0,-1,-3,-1,-2,-2
1514949566065060,1,-3,-2,0,-1,-1,-1,-2
1514949566086077,1,-3,0,-2,-1,-1,1,1
1514949566086077,-1,-1,-2,1,0,-1,0,-2
1514949566090086,0,-1,-1,-1,0,0,1,-1
1514949566090086,-1,-3,-2,-1,-1,-2,-2,-1
1514949566099093,-1,0,0,1,0,-1,-3,-2
1514949566099093,-1,-1,-2,-1,-2,-1,0,-1
1514949566108094,1,0,-2,-2,-1,-2,0,1
1514949566108094,-1,-1,0,-2,-2,0,-1,-1
1514949566123103,-1,-1,0,-1,-1,0,0,0
1514949566123103,-2,0,-1,-2,1,-2,-1,-1
1514949566125121,-2,-1,-2,-2,0,1,-1,-2
1514949566125121,-1,0,-1,-1,-1,-1,0,-3
1514949566145146,-2,-2,-2,-2,-2,-2,-2,-1
1514949566145146,-1,0,-1,0,-1,0,1,0
1514949566147117,-1,-2,-1,0,-1,-1,0,-2
1514949566147117,-1,0,0,-1,-2,-2,1,1
1514949566159141,0,0,-2,0,-2,0,-2,-3
1514949566159141,-3,0,-1,0,0,-1,-1,-1
1514949566168146,1,0,-1,-1,-1,-2,-1,-1
1514949566168146,-1,-2,-2,-1,-1,-1,-3,-3
1514949566184143,-2,-2,-4,-2,0,-1,2,0
1514949566184143,-2,-2,-2,-1,-1,-2,-2,0
1514949566187145,-1,-2,1,-1,-1,1,0,-1
1514949566187145,0,-3,-2,-1,-2,-1,1,-3
1514949566205170,0,0,-1,-2,-1,-1,-2,-1
1514949566205170,-1,0,-2,-3,-2,-2,1,-1
1514949566207161,-1,0,-1,-1,-1,-2,0,-1
1514949566207161,0,-1,1,-2,-1,-2,-3,0
1514949566219168,-1,0,-1,1,-1,-1,-2,-2
1514949566219168,-1,-3,0,0,-2,-1,-1,-2
1514949566229191,-2,-4,-1,-1,-1,-2,-1,-1
1514949566229191,1,0,-1,0,-1,-1,0,-2
1514949566243185,-1,-1,0,1,-1,-3,-3,-1
1514949566243185,1,0,-1,-2,0,0,-2,0
1514949566244186,1,-1,0,0,0,0,1,-1
1514949566244186,-1,-1,-2,-2,-1,2,1,1
1514949566265228,-1,-2,-2,-3,0,-2,0,0
1514949566265228,-2,-1,0,-2,-2,0,0,-1
1514949566267204,-2,-1,1,-2,-1,-1,-1,-1
1514949566267204,0,-1,-1,1,0,0,0,-1
1514949566280211,-2,-2,1,-1,0,0,-1,-1
1514949566280211,-1,-1,-1,-1,-1,-2,-2,-1
1514949566289217,-2,-1,-2,0,-2,-1,0,-2
1514949566289217,0,-1,-1,-2,-2,0,-2,0
1514949566303239,-1,-1,-1,-2,-2,-1,0,-2
1514949566303239,-2,-1,-3,0,-2,0,0,-2
1514949566304240,0,-1,-1,-1,-1,-1,-2,-1
1514949566304240,-1,-1,-2,-1,-3,-2,-1,-1
1514949566325243,-2,-1,-1,-2,-1,0,-1,-1
1514949566325243,-1,0,-1,-1,0,-2,1,0
1514949566328246,-3,0,-4,-2,1,-2,-1,0
1514949566328246,-2,-2,-1,-1,-1,-1,0,0
1514949566339253,0,-1,-2,0,-2,0,-1,0
1514949566339253,-1,-3,-1,-1,0,0,-3,-3
1514949566348263,-2,-1,-1,-1,-1,0,-2,0
1514949566348263,0,-2,0,-3,0,-1,-2,-1
1514949566363288,0,0,0,-1,-1,-1,0,-1
1514949566363288,-2,0,0,0,-1,1,-2,0
1514949566364274,-4,-3,-1,-2,-2,1,1,-1
1514949566364274,-1,0,0,0,0,0,2,-2
1514949566387288,-1,-2,-1,-1,0,-2,-2,-2
1514949566387288,-1,-3,0,-3,-1,0,1,0
1514949566390291,1,-1,-2,-2,-1,0,-1,-2
1514949566390291,0,-1,-2,0,0,0,-2,-1
1514949566408314,0,0,-2,-2,-1,-2,1,-1
1514949566408314,0,0,-1,0,-3,-3,0,-1
1514949566409304,-3,-3,-1,0,-1,-2,-1,-2
1514949566409304,-1,-2,1,0,-2,0,-1,0
1514949566423325,-2,0,-2,-1,-1,1,-5,0
1514949566423325,-1,-1,0,-1,0,-1,-2,-1
1514949566425325,1,-2,0,-1,0,1,2,-2
1514949566425325,-1,-2,-2,0,0,-2,1,-2
1514949566445340,-2,1,0,0,-1,1,-2,0
1514949566445340,-1,0,-2,-1,-1,-2,0,0
1514949566447342,1,-3,-1,-2,-1,-1,0,-1
1514949566447342,-1,-4,-1,-2,-2,-2,-2,-1
1514949566468376,0,-2,-3,-2,-1,-2,0,0
1514949566468376,1,-1,-3,-1,0,0,-1,-2
1514949566469352,1,0,-1,-1,-2,-1,0,-2
1514949566469352,-3,0,-2,-1,-2,-1,0,0
1514949566484356,-1,-1,-2,0,-1,0,0,0
1514949566484356,-2,-1,0,-3,-1,-2,-1,-1
1514949566487358,-2,-1,-3,0,-2,-1,-2,-1
1514949566487358,-1,0,0,-2,-1,0,0,0
1514949566505384,-1,-2,0,-2,-2,-1,0,-1
1514949566505384,1,-2,-1,-1,0,-1,-2,-2
1514949566507385,0,-2,0,-1,-2,-3,-2,-2
1514949566507385,0,-2,-2,-1,0,-1,-3,-4
1514949566528387,1,-2,-2,-2,-2,-2,-1,-1
1514949566528387,-2,-1,-2,0,-2,-1,-1,1
1514949566531389,-1,0,-1,-2,-1,-2,0,-1
1514949566531389,0,0,0,0,-1,-2,0,1
1514949566542409,0,-1,-1,-1,-1,0,1,-1
1514949566542409,0,-1,-1,-2,-1,-2,-1,0
1514949566549414,0,-1,0,0,-1,0,0,-2
1514949566549414,-2,0,-1,-2,0,0,-4,-1
1514949566565431,-3,0,-3,-2,-2,-1,-1,0
1514949566565431,-2,-2,1,1,-2,-1,-1,-2
1514949566567415,-1,-2,-1,0,-2,0,-3,-2
1514949566567415,0,-1,-1,-1,-2,-2,-2,-1
1514949566588450,-2,0,-1,0,-3,-1,-1,-1
1514949566588450,0,-1,-1,-1,-1,1,-1,1
1514949566592442,0,0,1,-2,0,-2,-1,1
1514949566592442,1,0,-1,-3,0,-2,1,-1
1514949566602453,0,-1,-1,0,0,-2,-2,-1
1514949566602453,-2,-3,-2,0,-1,-2,-1,-1
1514949566609464,0,-1,-2,-1,-1,0,-1,-1
1514949566609464,-1,0,-1,-1,0,0,-2,-1
1514949566625457,0,1,0,0,0,-1,-1,0
1514949566625457,-1,-2,0,-2,0,-1,-2,-1
1514949566627470,0,-1,-1,0,-1,0,0,-1
1514949566627470,-2,-2,-1,-2,-2,0,0,-1
1514949566648472,0,-2,-2,-1,-1,-2,0,-3
1514949566648472,1,-2,-1,-2,-1,-2,-1,-1
1514949566651476,-3,-2,-1,-1,-1,-2,0,-1
1514949566651476,-2,-1,-1,-1,-1,-1,-1,0
1514949566662520,-1,0,0,0,0,0,0,-3
1514949566662520,-1,0,-2,-1,0,0,0,-2
1514949566669502,0,-1,0,-2,-2,0,-2,-3
1514949566669502,-1,0,-1,-1,-1,-1,2,-1
1514949566686499,-2,1,0,-2,-1,0,-4,1
1514949566686499,-1,-1,-1,-1,-2,0,0,-1
1514949566688500,0,0,-2,0,-1,0,0,0
1514949566688500,-1,0,0,-1,0,0,-1,-1
1514949566707515,-2,-4,-1,-2,-2,-1,-3,-1
1514949566707515,0,0,-1,-1,-2,-1,1,-1
1514949566709526,1,-1,-1,-2,-2,0,-3,0
1514949566709526,-2,-1,0,0,-1,-2,-2,-1
1514949566722525,1,-1,-1,1,0,-1,0,0
1514949566722525,0,-2,-1,-1,-1,0,0,-3
1514949566729529,-2,-1,1,0,0,-2,-1,-1
1514949566729529,-1,-3,0,0,-1,0,-2,-2
1514949566745540,-1,-2,-2,-1,-2,-2,0,-1
1514949566745540,-2,0,-1,-1,-1,0,0,-2
1514949566747560,-3,-2,0,-2,-1,-1,1,0
1514949566747560,-1,0,-1,-2,-1,-1,-1,-1
1514949566768557,0,0,1,-3,-2,-2,-1,-1
1514949566768557,0,-1,-2,-1,-1,0,0,-1
1514949566769557,-1,-2,-2,-1,-1,-2,-1,-2
1514949566769557,0,-1,1,0,-2,0,-2,-1
1514949566783567,-2,-1,-1,-2,-1,-2,-1,-2
1514949566783567,1,0,-1,-1,-1,-2,-2,1
1514949566790572,-3,0,0,-1,-1,-2,-1,0
1514949566790572,0,0,-2,-2,-2,0,-1,-2
1514949566805582,-1,0,-2,0,0,0,0,-1
1514949566805582,-1,0,-1,-2,-2,-1,0,-2
1514949566806583,-1,-1,-2,0,-1,-1,-1,-2
1514949566806583,-1,-2,0,-1,-2,-2,0,-2
1514949566828609,-2,-3,-2,0,-1,-1,-1,-1
1514949566828609,-2,-4,1,-1,-1,-1,-1,-1
1514949566831601,-2,-1,-1,0,-1,0,-1,0
1514949566831601,-1,-1,-1,-3,0,-2,-2,-1
1514949566842610,-1,0,0,-2,0,-1,0,-1
1514949566842610,-2,-1,-1,-1,-1,-1,0,-2
1514949566849626,0,-2,-2,-1,-2,-1,-1,-1
1514949566849626,-1,-1,0,1,0,-1,-3,-2
1514949566865664,0,-2,-1,-3,-1,-1,-4,1
1514949566865664,-1,-2,-2,-1,-1,-1,-2,0
1514949566867626,-2,0,-1,-2,0,0,1,-1
1514949566867626,-2,0,-1,-2,-1,-2,1,0
1514949566887640,0,1,-2,0,-2,-1,-2,-2
1514949566887640,-2,-1,-2,-1,-2,-2,-1,0
1514949566895650,1,-1,-1,-3,-1,-1,-3,1
1514949566895650,0,-2,-1,0,0,-1,-2,0
1514949566901669,-2,-2,1,-1,0,-1,-1,0
1514949566901669,-1,-3,-1,-2,-1,0,-1,-1
1514949566910660,1,0,0,1,0,-2,0,-2
1514949566910660,1,-2,-3,-1,-2,-2,-4,0
1514949566925677,0,-1,-2,-2,-1,-2,-1,0
1514949566925677,-2,-2,-2,-1,-2,0,0,-1
1514949566927670,-1,0,0,0,-1,-1,1,-2
1514949566927670,-1,-1,-1,-1,-1,-2,2,0
1514949566947683,-2,-3,-1,-1,-2,-1,-1,0
1514949566947683,-3,-2,-2,-2,-1,-2,-1,-1
1514949566949684,0,-2,1,0,-1,-1,-1,-1
1514949566949684,-1,-2,-1,-1,-2,-1,-1,-1
1514949566961697,-2,-1,-3,1,-1,-2,-1,-1
1514949566961697,0,0,0,-1,-2,-1,-1,-1
1514949566970700,-2,-1,-3,-2,0,-2,0,-2
1514949566970700,0,-1,-2,-2,-1,-1,1,-1
1514949566986711,1,1,-2,-1,-1,0,-2,0
1514949566986711,0,-2,-1,0,0,-1,-3,-1
1514949566989712,0,-2,-1,-1,-2,1,0,-2
1514949566989712,-1,1,-2,-1,0,0,-1,-1
1514949567007728,-4,0,-1,-3,1,-1,1,-1
1514949567007728,-2,1,0,0,0,0,0,-1
1514949567009726,-1,-3,-1,-1,-1,-1,-1,-1
1514949567009726,0,-1,-1,-2,-1,-1,-1,-1
1514949567021735,0,1,-1,0,-3,0,-2,0
1514949567021735,0,0,-2,-1,-3,-2,-1,0
1514949567030741,-1,-1,-2,0,-2,-1,-2,-1
1514949567030741,0,-1,-1,0,-1,-1,-1,-2
1514949567045755,-1,-3,-2,-2,0,-2,-1,0
1514949567045755,-2,-1,-1,-2,-1,-2,0,0
1514949567046753,0,-3,-3,-3,-2,-2,-3,-1
1514949567046753,-1,-1,-2,-1,-2,-1,-1,0
1514949567067767,0,-1,-3,-3,-1,-2,0,-1
1514949567067767,-1,-3,-2,-1,-2,0,0,-4
1514949567069769,-2,-2,0,-1,0,0,0,-2
1514949567069769,-2,2,1,0,-1,-1,-1,-1
1514949567082791,0,-2,-2,-1,-2,1,-2,-1
1514949567082791,-1,-2,-2,-2,-2,-2,0,0
1514949567091785,2,-1,-2,-3,-2,-2,-3,-1
1514949567091785,-1,-2,-2,-1,-3,-2,-1,-1
1514949567104806,-1,0,-2,-1,-1,-2,-1,-1
1514949567104806,2,-2,0,-2,-1,1,1,0
1514949567111799,0,-2,-1,-1,-2,-1,-2,-3
1514949567111799,-1,-3,0,-1,-1,-3,-1,-1
1514949567128811,-1,-2,1,0,-2,-2,-1,-1
1514949567128811,-1,-3,0,1,-1,0,-2,-1
1514949567130816,-1,-1,0,-1,-1,-2,0,-1
1514949567130816,0,0,-1,-2,-2,1,-2,-1
1514949567141822,-1,-3,-2,0,-1,0,0,-2
1514949567141822,-1,0,-2,-1,-1,-2,-2,-1
1514949567150827,-3,0,-1,0,-1,1,-1,1
1514949567150827,-2,-1,-1,-1,0,-1,-2,-2
1514949567165875,1,1,-1,-1,-2,0,-1,-2
1514949567165875,0,-1,-1,-1,-1,-1,0,-1
1514949567166877,-1,-2,-2,-1,-1,-1,1,0
1514949567166877,-1,1,-2,0,-2,0,-2,0
1514949567187878,-3,-2,-2,-3,-1,-1,0,-1
1514949567187878,0,-2,0,-2,-1,-2,0,-1
1514949567189879,-2,-2,0,-1,-1,-2,1,-2
1514949567189879,0,-1,-1,-2,-1,-1,-1,-1
1514949567201904,2,-3,-1,-1,0,0,-3,-1
1514949567201904,-1,-2,-1,-2,-1,-1,-1,0
1514949567210894,1,-1,-1,0,0,-1,-2,-1
1514949567210894,0,-1,0,-1,-1,0,-1,0
1514949567226923,-3,2,-1,2,-1,-4,0,0
1514949567226923,-2,-1,-2,0,-1,-1,-2,-4
1514949567229907,-2,-2,0,-1,0,-2,0,-1
1514949567229907,-1,0,-1,0,-1,-1,1,-4
1514949567247933,0,-1,-1,-1,-1,0,-1,-2
1514949567247933,0,-1,-2,-1,0,-2,1,-1
1514949567249951,-2,1,-3,-2,-2,-2,0,0
1514949567249951,-1,-2,-2,-1,-1,-1,-3,0
1514949567261933,-1,-1,0,-1,-3,-1,0,0
1514949567261933,-1,-2,0,0,-1,0,0,-1
1514949567270950,0,-3,-3,0,-2,-2,-1,-1
1514949567270950,-1,-1,0,-1,-2,0,1,-2
1514949567286947,0,-2,0,-1,0,0,-1,2
1514949567286947,-2,-1,-1,-1,-1,-2,-1,0
1514949567288949,-1,0,0,0,-1,-1,-2,-1
1514949567288949,-1,-1,0,-2,-1,-3,-2,-1
1514949567307975,-2,-3,0,-2,-1,-5,1,-1
1514949567307975,-1,-1,0,-1,0,-1,-2,-2
1514949567309971,1,-1,0,-1,-2,-2,-1,0
1514949567309971,0,0,-3,-2,-2,0,-2,2
1514949567329978,0,-1,-1,-2,-2,0,-2,-2
1514949567329978,0,-1,0,0,-1,-1,-2,-2
1514949567331980,0,0,-1,0,0,-1,1,-3
1514949567331980,-2,-3,-2,-1,0,-4,0,-3
1514949567346009,-2,3,0,-1,-2,0,0,-1
1514949567346009,-2,-2,-3,-2,-1,-2,1,0
1514949567347008,-1,-3,0,-1,-1,-1,0,-1
1514949567347008,-2,0,-1,-1,-1,-2,-1,0
1514949567368005,-1,-2,-2,-2,-2,0,-1,-2
1514949567368005,0,-2,0,-1,-2,-1,-2,-2
1514949567370007,-1,-1,-1,-1,0,0,1,-2
1514949567370007,-2,-1,-1,-1,-1,-2,-2,0
1514949567392028,-3,0,-2,0,0,0,-3,-1
1514949567392028,-2,0,-2,-1,0,0,-2,1
1514949567393022,-3,-3,-2,-2,-1,0,-2,2
1514949567393022,1,-1,0,-1,0,-2,1,-3
1514949567405044,0,-1,-2,-1,-1,-2,-1,-1
1514949567405044,0,-1,0,0,-2,-1,-1,-1
1514949567407033,-1,-2,0,-2,-1,-2,-3,-1
1514949567407033,0,0,-2,-3,-1,1,-2,-1
1514949567429064,-1,-2,-1,-2,-2,0,0,-1
1514949567429064,-1,-3,1,-3,-2,-1,-1,-1
1514949567431050,-1,-1,0,-1,0,-1,-1,-3
1514949567431050,-2,-1,-2,-1,-1,-2,-1,0
1514949567450090,-2,-1,-1,-2,-1,-1,1,0
1514949567450090,-1,-2,-4,-1,0,0,-1,-3
1514949567452081,-3,0,0,-4,0,-2,-1,-2
1514949567452081,0,-2,0,-1,0,1,-2,0
1514949567465086,0,-3,-1,-2,-1,-2,-1,0
1514949567465086,-1,0,-1,-1,-1,-1,0,-2
1514949567467083,1,-3,-2,0,-1,-1,0,-2
1514949567467083,-2,0,-1,-2,-1,-2,-3,1
1514949567488090,-1,1,-1,1,-2,-2,0,-1
1514949567488090,1,-1,1,-1,-1,0,0,1
1514949567490092,-1,-1,-1,-2,-1,-2,1,-2
1514949567490092,-2,-2,-2,-2,-2,0,-2,-1
1514949567510120,0,-1,-1,-3,0,-1,-3,0
1514949567510120,-1,-2,-2,-1,0,-3,-1,0
1514949567512107,0,0,-3,-2,-2,0,-1,-2
1514949567512107,-2,-1,-2,1,0,-3,-1,-3
1514949567525119,-1,-2,-1,-2,0,0,0,-1
1514949567525119,-1,-1,-2,0,-1,-3,0,-3
1514949567531120,2,-2,-1,-2,0,-1,0,-1
1514949567531120,1,-4,-1,0,0,1,-1,-2
1514949567548145,0,0,-1,-2,0,-1,-2,-1
1514949567548145,-1,0,0,-2,-1,0,-2,-2
1514949567549146,0,-1,-1,-1,-1,1,-1,0
1514949567549146,-2,-2,-2,-1,-2,-2,-2,-2
1514949567579155,0,-1,-3,-1,-1,0,0,-1
1514949567579155,-2,-3,0,-2,-2,0,0,0
1514949567583157,-3,-2,0,-1,-3,-2,-1,1
1514949567583157,0,0,-1,-1,1,1,0,-1
1514949567586160,-1,0,0,-2,-1,-1,-2,-1
1514949567586160,1,1,-1,-2,-1,-1,-5,-3
1514949567592164,0,0,0,0,-2,-3,-3,-1
1514949567592164,-1,-3,-1,-1,-1,-1,-3,0
1514949567615188,-2,-1,-1,-2,-1,-1,-2,-2
1514949567615188,1,-2,-3,-1,-1,0,0,1
1514949567617181,-3,-2,0,1,-1,-1,-2,-1
1514949567617181,0,0,-1,0,-2,1,0,0
1514949567631192,-1,-3,-1,1,-1,-1,0,0
1514949567631192,-1,-1,0,-1,-1,-2,0,-3
1514949567633193,-2,0,-1,-1,0,-1,-3,-2
1514949567633193,-1,0,-1,-2,-3,-1,1,-2
1514949567645218,-1,-1,-2,-1,-2,0,-1,1
1514949567645218,-1,-1,-2,-2,-1,-2,1,1
1514949567651205,-3,-1,-1,0,-3,-2,1,1
1514949567651205,-1,-1,-2,-1,-1,0,-1,-2
1514949567668219,1,-1,-1,-3,-1,1,-1,-3
1514949567668219,-2,-4,-2,-1,-1,1,-3,-2
1514949567669220,-1,-2,-1,-2,0,1,-1,0
1514949567669220,-4,-1,0,-1,-2,-3,-4,0
1514949567691233,0,0,-1,-1,-1,-3,1,-2
1514949567691233,-2,-1,-1,0,-1,-3,-3,-1
1514949567695236,1,-2,0,-2,-2,0,-1,-2
1514949567695236,0,-1,-2,-2,0,0,0,0
1514949567705253,1,-2,0,2,-2,-2,-2,-2
1514949567705253,0,-3,1,0,-2,-1,-1,-3
1514949567711257,0,-1,-1,-3,-1,0,-2,-2
1514949567711257,-1,-1,-2,-2,0,0,-1,-3
1514949567729260,-1,-2,-3,-1,0,-1,0,1
1514949567729260,0,1,0,-3,-1,-1,-1,0
1514949567732263,0,-2,-1,0,1,0,0,-2
1514949567732263,0,1,-3,-1,-2,-1,-3,0
1514949567750314,-3,-1,-1,0,-1,0,-1,0
1514949567750314,-1,-2,0,-1,0,-1,0,-1
1514949567752292,-1,0,-1,-1,-1,0,-1,1
1514949567752292,1,1,-2,-2,0,-1,-1,0
1514949567765285,-2,0,0,-2,0,-2,-2,-2
1514949567765285,-1,0,-2,-2,-2,-2,-2,-1
1514949567771302,-2,0,0,0,-2,-1,1,-2
1514949567771302,-1,-1,-1,-1,-1,1,-3,0
1514949567788308,-2,-2,-2,-1,-1,-1,-2,-2
1514949567788308,-1,-1,-1,-1,-1,-1,-1,-3
1514949567790303,0,-1,-4,-3,0,-1,-1,-1
1514949567790303,-2,1,-1,0,-1,-2,0,0
1514949567810321,-1,-1,-2,-2,-1,-2,-2,-1
1514949567810321,-1,-1,0,0,-1,-1,0,-1
1514949567812323,-1,1,-1,0,-1,0,-3,-2
1514949567812323,-1,0,-1,0,-2,0,-1,1
1514949567825332,-1,-2,0,-2,0,-2,-3,0
1514949567825332,-1,-3,-2,-1,-1,1,-1,0
1514949567831332,-2,-3,-2,-1,1,-2,0,-2
1514949567831332,-2,-1,0,0,-1,-2,-1,0
1514949567848345,-2,1,-1,-1,0,-1,0,-1
1514949567848345,0,-2,0,1,-2,-1,-3,-2
1514949567849346,-1,-1,-2,-1,-1,-1,0,0
1514949567849346,-2,-1,-3,-3,-1,-1,-1,-3
1514949567870362,0,-2,-3,0,0,-2,0,0
1514949567870362,-1,-1,-1,0,0,0,1,0
1514949567872364,-2,-2,0,-1,0,-2,-3,-2
1514949567872364,-2,-1,0,-1,-2,-3,-1,-1
1514949567884377,-1,-1,1,0,-1,-1,0,0
1514949567884377,-1,-2,-1,-2,-2,-1,1,-1
1514949567893383,0,-1,-2,-2,0,-1,-1,-1
1514949567893383,-1,-2,-1,-2,-1,-1,-1,-1
1514949567908388,-1,-1,-1,-1,0,1,-1,-2
1514949567908388,1,0,-1,-1,0,0,-2,0
1514949567909388,0,-3,0,-1,-1,-1,-1,0
1514949567909388,-2,1,-1,-2,1,-2,0,-1
1514949567930402,1,0,-1,-2,-1,-2,1,-2
1514949567930402,-1,-2,0,0,-1,-1,-2,-2
1514949567932409,-1,-3,-2,0,-2,-2,-1,-2
1514949567932409,0,-1,-2,-2,-1,-1,-3,0
1514949567945417,-2,-1,0,-2,-1,-1,0,2
1514949567945417,-1,-1,-1,-1,-1,-1,0,-2
1514949567953426,-1,-1,0,-1,-1,0,0,-1
1514949567953426,0,1,-2,0,-2,-1,-3,1
1514949567968431,-1,-1,-1,-2,-1,-1,-1,-3
1514949567968431,-1,-1,-2,0,-2,-2,-1,-1
1514949567969431,0,0,0,0,-1,0,-1,0
1514949567969431,-2,0,0,-1,0,-1,0,0
1514949567990448,0,-2,-2,0,-1,-1,-3,-1
1514949567990448,-1,-2,-2,-1,-1,0,-1,-2
1514949567992451,-1,1,-2,-2,-1,-2,-2,-2
1514949567992451,-1,-1,-1,-2,-1,-1,-1,-2
1514949568004458,-3,1,-2,0,-2,-2,0,-1
1514949568004458,-1,0,0,-1,2,0,0,0
1514949568013462,-1,-3,0,-1,-1,-3,0,0
1514949568013462,0,-1,0,-1,-2,0,-1,-1
1514949568028480,-3,-2,-1,-1,-1,0,-1,-1
1514949568028480,-1,-2,-1,0,-1,-1,-2,0
1514949568029475,-2,-2,0,0,-2,-1,-2,-3
1514949568029475,-2,-1,-2,-2,-2,0,-1,-2
1514949568050488,0,0,-2,-2,-1,0,0,-2
1514949568050488,0,0,0,-1,-2,-2,0,-2
1514949568054494,0,-3,-1,0,-1,1,-3,-2
1514949568054494,-1,-2,0,0,-1,-1,1,-1
1514949568064498,-1,0,-1,-2,-2,-2,-2,1
1514949568064498,-2,0,-2,-1,-1,-1,1,-1
1514949568073506,-2,0,-2,-1,-3,-1,-1,-1
1514949568073506,0,-2,-2,-2,-2,0,-1,0
1514949568088537,-1,-2,-1,-1,0,0,-2,0
1514949568088537,-3,-2,-2,-3,1,0,-1,-2
1514949568089523,-2,0,-1,-2,-1,-2,0,0
1514949568089523,-1,0,-1,-1,0,-1,0,-1
1514949568110529,-2,-1,-1,-2,-2,-1,0,0
1514949568110529,1,-1,-1,-1,-1,-2,-1,-2
1514949568112533,-3,-1,-2,-1,0,-2,-1,-1
1514949568112533,-1,-1,-1,-2,0,-3,-1,-3
1514949568124542,0,-1,-2,1,-2,0,0,-1
1514949568124542,-3,-3,-1,1,-2,0,-1,-1
1514949568133547,-2,-1,-1,-1,-2,1,-2,1
1514949568133547,0,0,0,-2,-1,-2,-2,-2
1514949568148557,-2,1,-2,-2,0,-1,-2,-4
1514949568148557,-1,-1,0,0,-2,0,-1,-1
1514949568150560,-1,-2,1,1,-2,-2,0,-3
1514949568150560,0,0,-1,0,0,-2,2,-1
1514949568170576,-1,-1,0,0,-1,-1,0,0
1514949568170576,-1,-3,-2,0,0,0,-2,1
1514949568172576,-1,0,-2,-1,0,-1,-1,0
1514949568172576,-2,-2,-2,-2,0,0,-1,1
1514949568184582,-1,0,-2,-1,-1,-1,-1,0
1514949568184582,-1,-2,-1,-1,-2,-1,-3,0
1514949568193593,1,-2,-1,-1,-2,-2,1,-2
1514949568193593,-3,-2,-3,-2,-2,-2,-2,1
1514949568208603,-2,-1,-1,0,1,-1,-1,-1
1514949568208603,0,-3,-2,-3,-2,-2,-1,0
1514949568209603,-3,0,-1,0,0,0,0,-2
1514949568209603,0,-1,-1,-1,-1,-1,-1,-1
1514949568230614,0,-1,0,-1,-1,-2,0,-1
1514949568230614,-2,-2,-1,-2,-1,-1,-1,0
1514949568232618,-1,-2,1,0,-2,-1,-1,0
1514949568232618,-2,0,-2,-1,0,-1,-3,-1
1514949568244624,-1,0,-2,-1,-3,0,1,0
1514949568244624,-1,1,-1,0,-2,-1,0,-4
1514949568255636,-2,-1,-2,0,-2,-2,-2,0
1514949568255636,-2,-1,0,-1,0,0,-1,0
1514949568266640,1,-2,-1,-2,-1,-3,-2,0
1514949568266640,-1,-2,-2,-2,-1,-2,1,0
1514949568275646,0,-1,-2,-1,-2,-1,1,-1
1514949568275646,-1,-1,-2,0,-1,-2,-1,-1
1514949568298663,-3,0,0,-1,-3,-2,-2,1
1514949568298663,-1,-3,-2,-1,0,-1,-2,-3
1514949568300664,-1,-3,-1,-3,0,-1,-1,-1
1514949568300664,-1,1,-1,-1,-3,-2,1,0
1514949568312672,1,-1,0,0,-1,0,-2,-1
1514949568312672,-1,0,0,0,-2,0,-3,-1
1514949568315675,1,-1,0,-2,-2,-1,-2,-3
1514949568315675,-1,1,-1,-1,-1,0,1,0
1514949568328684,-2,-1,-1,-2,-1,-2,-2,-1
1514949568328684,-1,1,-1,0,-3,-2,0,0
1514949568331686,0,0,-1,0,-1,-2,-1,-2
1514949568331686,1,-3,0,-1,-1,-1,-2,-1
1514949568350699,-2,-2,-1,-2,-1,-2,-1,0
1514949568350699,0,-2,-2,-1,-1,0,1,0
1514949568351701,0,-1,0,-1,0,-1,-3,-1
1514949568351701,-1,-1,0,-3,-1,0,0,-1
1514949568372716,-2,-2,-1,0,0,-1,-1,-2
1514949568372716,-2,-1,0,0,0,-3,1,0
1514949568374716,0,-3,-3,-1,-1,-1,0,-2
1514949568374716,0,-2,-1,0,-3,-3,-1,-2
1514949568387727,-1,-2,0,0,-1,-2,-2,-1
1514949568387727,-1,0,-1,-2,-1,0,0,-1
1514949568389727,-2,-2,-1,0,0,1,1,0
1514949568389727,-3,-1,0,0,1,-1,-2,-1
1514949568410759,0,2,-1,-2,-2,-1,-2,-2
1514949568410759,-1,-2,0,0,-1,-2,-2,-2
1514949568411743,0,-2,1,-2,-2,0,-1,-1
1514949568411743,-1,-2,-2,0,-1,0,0,0
1514949568432772,-1,-1,-2,0,-1,-1,0,-1
1514949568432772,-1,0,-1,0,-2,-1,-2,0
1514949568436761,-2,-1,0,-2,-1,0,-2,1
1514949568436761,-1,-1,-1,-1,-2,-1,-2,-2
1514949568446779,-2,-2,-1,-1,-2,-1,0,-3
1514949568446779,-2,-2,-1,-1,-2,-1,-1,-1
1514949568453773,1,0,-2,0,-2,-2,1,-1
1514949568453773,-2,-1,-2,0,-3,-3,-1,-1
1514949568470785,-2,-1,-2,0,0,0,-2,-2
1514949568470785,0,-4,-2,-1,-1,0,0,-2
1514949568471785,-1,-2,-2,-1,-1,-1,-2,-1
1514949568471785,-2,2,-1,-1,-1,-1,-2,-1
1514949568492799,0,0,0,0,-1,-2,-2,-3
1514949568492799,-2,-1,0,-2,0,-2,-1,0
1514949568494803,-1,0,0,-1,0,-1,-3,-1
1514949568494803,-1,-1,1,-1,-1,-2,0,0
1514949568522822,0,-4,-2,-2,-2,-2,2,-1
1514949568522822,0,-3,-1,0,1,0,-2,-1
1514949568525827,-2,-2,-1,-1,-3,-1,1,0
1514949568525827,-1,-1,-1,-2,0,0,-1,0
1514949568530830,-3,1,0,-2,1,-1,-2,-3
1514949568530830,-2,-2,-1,-1,-1,0,0,-2
1514949568531827,-3,-1,0,-1,-3,-1,0,0
1514949568531827,1,-1,-1,-2,-2,-1,0,-2
1514949568552885,1,-2,-1,-2,-1,-3,2,2
1514949568552885,0,-1,-2,-1,-1,-1,1,-1
1514949568554852,-2,0,-2,-1,1,-2,-2,-2
1514949568554852,-2,-2,-3,-1,-2,0,-2,-2
1514949568566874,-2,-1,-3,-3,-1,0,-1,-1
1514949568566874,-1,-1,-1,0,-2,-2,-3,-1
1514949568573857,0,-3,-1,0,-1,0,0,-1
1514949568573857,-1,-1,-1,0,0,-2,-1,-2
1514949568590879,0,-2,-1,1,-1,-2,-1,0
1514949568590879,-2,-2,-1,-3,-2,0,0,-1
1514949568591869,-1,0,-2,0,0,-1,-3,-2
1514949568591869,-1,-2,-2,-1,-1,0,-2,0
1514949568612908,-2,-2,1,0,0,-2,0,0
1514949568612908,0,0,-1,-1,-2,-2,-2,-2
1514949568614910,-2,-2,0,-2,0,-1,-4,-1
1514949568614910,-1,0,-2,-3,-1,-2,-1,-2
1514949568627895,1,1,-1,-2,-1,0,1,0
1514949568627895,1,0,1,-1,0,-3,-3,-2
1514949568633899,-1,-1,0,-1,-2,-2,0,-1
1514949568633899,2,0,-1,-1,-2,-3,0,1
1514949568650911,-1,-2,-1,0,-2,0,-1,-1
1514949568650911,-1,1,-1,-1,-2,-1,1,-1
1514949568651912,0,0,0,-2,-1,-2,-1,-1
1514949568651912,-3,1,-1,-1,-1,0,1,-2
1514949568672927,0,-2,-3,1,-2,-1,0,-2
1514949568672927,-1,-2,-1,0,-2,0,-1,0
1514949568674929,-1,0,-1,0,-1,-2,-1,0
1514949568674929,-1,-1,-1,-2,0,0,-2,-1
1514949568687938,-2,-2,-2,-2,-1,-1,-4,1
1514949568687938,-3,0,-1,-1,-1,-2,0,-3
1514949568693942,-1,0,-3,-2,-2,-2,-1,1
1514949568693942,0,1,-2,-2,-2,-2,-1,-2
1514949568710954,1,-1,-2,-3,-1,-2,-2,-3
1514949568710954,2,-1,0,-1,0,-2,-2,-2
1514949568711955,1,-2,0,1,-1,-1,1,1
1514949568711955,-2,-3,-1,-2,-1,0,-1,0
1514949568732969,-1,-1,-1,-1,-1,1,-1,1
1514949568732969,-1,-1,-1,-2,0,2,-1,0
1514949568734971,-1,-1,-3,-1,0,0,-1,-3
1514949568734971,0,-1,-1,-1,-1,-2,-1,0
1514949568746992,-1,-1,0,-1,1,-1,1,1
1514949568746992,-1,-2,-1,-1,0,0,1,-1
1514949568753994,-1,-1,0,-2,-1,-2,0,-2
1514949568753994,-3,-1,-2,-2,-1,-2,-1,-2
1514949568769995,-3,-1,1,-1,-1,0,-2,0
1514949568769995,-1,-2,-1,-1,-1,-1,-2,-1
1514949568772007,-1,-2,-2,-1,0,-2,0,-1
1514949568772007,-1,0,-1,0,0,0,-1,-3
1514949568793013,0,0,-2,0,-2,0,-2,-1
1514949568793013,-1,-2,0,-2,-3,-3,2,-2
1514949568795013,-2,2,-2,-2,-2,-2,-1,-1
1514949568795013,0,-1,-1,-2,-1,-1,-2,0
1514949568807022,0,-3,-1,0,-2,-1,-2,-2
1514949568807022,1,0,-2,1,-1,0,0,-3
1514949568816040,0,-1,-2,0,-1,-2,-2,-1
1514949568816040,-1,-1,-2,-1,-1,-1,-1,-1
1514949568832049,-1,-4,-2,-3,-2,-2,-2,-3
1514949568832049,-2,-3,-1,0,1,0,-1,0
1514949568836045,-1,1,-1,0,-2,1,0,-3
1514949568836045,-2,-1,-1,0,-1,-1,-3,0
1514949568853055,-1,0,-1,-1,-1,-1,0,0
1514949568853055,-1,-1,-1,0,-2,0,-1,-1
1514949568854059,-1,-3,-1,0,-2,-2,-2,0
1514949568854059,0,3,0,-1,0,0,0,-2
1514949568867100,1,0,-1,-1,-1,-2,0,-1
1514949568867100,-1,-2,-1,-2,0,-3,-2,-1
1514949568876085,0,-2,-1,-1,-2,-2,-2,-1
1514949568876085,-2,-1,-1,0,-1,-1,-1,-2
1514949568890081,-4,-1,-1,0,-1,-1,-2,-2
1514949568890081,-1,-1,0,-1,-2,-1,0,-1
1514949568892082,-1,-1,-2,-2,0,-1,0,0
1514949568892082,2,-5,-1,-1,-3,-2,-1,-1
1514949568913117,2,-2,-1,-2,-1,-2,0,-3
1514949568913117,-2,0,0,0,0,-1,-2,-3
1514949568915098,-2,0,-1,-2,0,0,-1,1
1514949568915098,-2,-1,-2,0,-1,-1,0,0
1514949568927107,-1,0,-1,0,-1,-2,0,0
1514949568927107,-1,-2,-2,0,-3,-2,-2,0
1514949568935112,0,-1,-2,-1,0,-1,0,-3
1514949568935112,0,-2,0,-1,-2,-1,-2,0
1514949568950175,-1,-2,-2,1,-2,-1,-3,1
1514949568950175,-1,-1,-3,-1,-1,-2,0,-1
1514949568952149,-4,0,-1,-2,-1,-1,-1,-1
1514949568952149,1,-1,-2,-2,0,-1,-1,-1
1514949568973151,-2,-3,-1,-2,-1,-3,1,-2
1514949568973151,0,-1,0,0,-1,-2,1,1
1514949568974140,-2,-3,-1,-1,-1,0,-2,-2
1514949568974140,-2,1,-1,1,-2,-1,-1,0
1514949568987151,0,-1,-2,-2,0,0,0,-1
1514949568987151,0,1,-2,-2,-1,-2,-1,-1
1514949568995167,2,1,-1,-1,-2,-1,1,0
1514949568995167,-1,1,1,-1,1,-2,-3,-1
1514949569010165,1,-1,0,-1,-2,1,-1,-1
1514949569010165,-3,-1,0,-1,-1,0,0,-1
1514949569012184,0,-1,-2,-1,0,-1,-2,-2
1514949569012184,-1,-2,-1,0,-1,-1,0,-2
1514949569033182,-1,0,-2,-1,-2,-2,-1,-2
1514949569033182,-1,-2,1,-1,-1,0,-1,-1
1514949569034194,-1,-1,-3,0,-1,-2,0,0
1514949569034194,-2,-2,-2,-1,0,-1,0,-2
1514949569055199,-4,-2,-1,-1,-1,-4,0,0
1514949569055199,-1,-2,-2,-1,-2,-1,-3,0
1514949569057211,-1,-1,1,-1,-2,-1,-2,0
1514949569057211,0,-1,-1,-2,0,-3,-2,0
1514949569070208,-2,-1,-1,-1,-2,1,-1,0
1514949569070208,-1,-2,0,0,0,-1,0,-1
1514949569072213,-2,1,0,-1,1,0,0,-1
1514949569072213,-2,-2,-1,0,-1,-3,-2,-1
1514949569094227,1,-1,-2,0,-1,0,1,-1
1514949569094227,0,-2,-1,-2,-1,-1,-1,1
1514949569096226,0,-3,-1,0,0,-1,-1,-1
1514949569096226,0,3,-2,0,-1,-1,-1,0
1514949569106247,-1,-1,-1,0,-2,-2,0,-1
1514949569106247,-1,-1,0,-2,-2,-1,-2,-1
1514949569115256,-1,-2,-2,-2,-2,-1,-1,1
1514949569115256,-1,-2,-2,-1,-1,2,2,-3
1514949569130260,-1,-4,-1,-2,-1,1,-2,-1
1514949569130260,-2,-3,-2,-1,-1,0,0,-2
1514949569132261,-3,-1,1,-1,-2,-1,-1,-1
1514949569132261,-2,0,-1,-1,-2,-2,-2,-1
1514949569153267,0,0,0,-1,0,0,-3,-1
1514949569153267,-2,-1,-2,-1,0,-2,1,-1
1514949569154268,-3,-1,0,-2,-1,-1,-2,0
1514949569154268,-3,-3,-2,-1,0,-1,-1,0
1514949569166289,-1,0,0,-1,0,-1,1,-3
1514949569166289,1,1,-2,-1,-1,0,-1,0
1514949569175294,1,0,-1,-1,0,0,0,-1
1514949569175294,-2,-2,0,-2,-2,0,-1,0
1514949569191306,0,-1,-3,-1,-1,-2,-2,0
1514949569191306,-1,-1,1,0,-1,-2,0,-1
1514949569194297,1,-1,-2,0,-1,-1,-1,-2
1514949569194297,0,0,-2,-1,1,-1,0,-1
1514949569213322,-2,-3,0,0,-1,-1,-2,-2
1514949569213322,-2,-2,1,-3,-1,0,1,-2
1514949569214310,-2,0,-1,-2,-1,0,-2,-1
1514949569214310,0,0,-1,-1,-1,-1,-1,0
1514949569236327,-2,-1,-1,-1,-2,-2,-2,-1
1514949569236327,-1,-1,-1,-1,-1,-2,-2,0
1514949569237327,-2,-2,-2,-1,-1,-1,0,-1
1514949569237327,0,-1,-2,-1,-3,-1,-2,-2
1514949569250345,-1,-1,-2,-1,0,-1,0,-1
1514949569250345,-1,-1,0,1,-2,-2,-2,-2
1514949569252338,-2,0,1,1,-1,1,0,-1
1514949569252338,-3,0,0,-1,-1,-1,-1,0
1514949569273351,-3,-2,0,-1,1,-1,0,-3
1514949569273351,-2,-1,-2,-1,-2,-1,-2,-2
1514949569274352,0,-2,-2,-1,-2,-1,0,-1
1514949569274352,-1,-3,-1,-1,-1,-2,-2,0
1514949569295367,-1,-3,-1,-1,-2,-1,-1,1
1514949569295367,-1,-1,-2,-1,0,0,-2,-1
1514949569297381,0,-1,0,-1,-1,-2,-2,0
1514949569297381,-2,-1,1,-2,-2,0,-2,-1
1514949569310387,1,-1,-1,-1,-2,-1,-1,-2
1514949569310387,-1,-2,-1,-2,-1,0,0,-1
1514949569312388,-1,-3,-1,-2,0,0,-1,-3
1514949569312388,-1,0,-1,-1,-1,-1,-1,-1
1514949569333394,-2,-1,-1,-2,-1,0,-2,1
1514949569333394,-1,-1,-1,-1,-2,-1,-2,-1
1514949569334395,-1,1,-2,-1,-2,-1,-1,0
1514949569334395,0,-2,0,-2,0,-1,-1,-1
1514949569355419,0,-2,-1,-2,0,1,0,0
1514949569355419,0,-1,-2,-1,-1,-2,-1,-1
1514949569357421,-1,-1,-3,-2,0,-2,-2,-2
1514949569357421,0,-1,0,0,-2,-1,-1,0
1514949569370429,-1,-2,-1,1,-1,-2,0,-2
1514949569370429,0,-4,-1,-1,0,-1,-1,0
1514949569372432,-1,1,0,-1,-1,0,-1,-1
1514949569372432,-1,-1,-3,0,0,0,0,-3
1514949569393447,-2,1,-1,-1,0,-1,0,-1
1514949569393447,-1,0,-1,-1,0,-1,0,-2
1514949569394450,-3,-2,-1,-2,0,-1,-1,-1
1514949569394450,-1,-2,-1,-1,0,0,-1,-1
1514949569414451,-2,-4,1,-1,0,-1,2,1
1514949569414451,0,-2,0,-1,-1,0,-1,-1
1514949569415451,0,-2,-1,0,-1,-2,-2,-2
1514949569415451,-1,-1,-1,-1,-2,-2,-4,-1
1514949569429474,-1,-2,-2,-1,-2,-1,-2,-4
1514949569429474,-2,-2,-1,-1,0,-1,0,-1
1514949569437467,-1,-1,-2,-2,0,0,-3,1
1514949569437467,-2,-3,-1,-1,0,-1,1,1
1514949569453480,0,1,0,-1,-1,0,1,-1
1514949569453480,-1,-1,0,0,-2,-2,-1,-2
1514949569454489,-2,2,-1,-2,0,-1,-1,0
1514949569454489,1,1,-2,-1,-1,-2,0,-2
1514949569474503,-2,-2,-2,-1,1,-3,-3,-2
1514949569474503,-2,1,-1,-1,-3,1,-1,-2
1514949569475494,0,0,-2,0,-1,-1,-2,-1
1514949569475494,0,0,-1,-1,-2,0,-2,-1
1514949569497510,-1,-4,0,-1,0,0,-2,-1
1514949569497510,0,-4,1,-1,-1,-1,-1,-1
1514949569498510,-3,1,-1,0,0,-2,-3,0
1514949569498510,0,0,-1,-3,-1,-1,0,0
1514949569512530,0,-2,-1,0,-2,-1,-1,-1
1514949569512530,-1,0,0,-2,0,-1,1,-1
1514949569513531,0,0,0,-1,-2,-3,-1,-1
1514949569513531,0,-3,-2,-1,-1,-1,0,-1
1514949569535537,-1,-1,-2,0,0,0,2,-1
1514949569535537,-1,-2,-1,0,-2,0,-1,0
1514949569537537,1,-1,-2,-2,-1,-1,-2,-2
1514949569537537,-2,0,-1,-1,-1,-1,-3,0
1514949569557563,-2,-1,-2,-2,-1,-1,-1,-1
1514949569557563,0,-3,0,-1,-1,-2,-3,-1
1514949569558554,-1,-1,-1,0,1,-1,-2,-2
1514949569558554,-3,-1,-1,-2,0,0,1,-2
1514949569572572,0,-1,-1,0,-1,0,-1,-1
1514949569572572,-1,0,-1,-1,-2,-1,0,-1
1514949569572572,0,0,0,-2,-1,0,-2,-2
1514949569572572,-3,-2,-1,-2,-2,-3,-2,0
1514949569594580,-1,-2,1,-2,-1,-2,-1,0
1514949569594580,-2,-2,-4,0,-3,-2,-1,-2
1514949569595597,-2,-2,-2,0,-2,0,-2,-1
1514949569595597,-1,2,-3,0,-2,0,-1,-2
1514949569609601,0,-1,-1,-1,-2,-1,-2,-1
1514949569609601,1,-1,0,0,1,0,0,-1
1514949569610594,0,0,0,-1,-3,-1,-1,0
1514949569610594,-2,0,1,-1,-1,-1,0,1
1514949569632605,-1,0,-1,-2,-2,0,-3,0
1514949569632605,-2,0,-1,0,0,0,-3,-2
1514949569634607,1,-2,-1,0,-2,-3,0,-2
1514949569634607,-1,-1,-1,-1,1,-1,-2,-2
1514949569654621,0,-1,0,-3,-2,-3,0,-1
1514949569654621,-2,-1,1,-2,-1,-1,1,1
1514949569655622,-4,0,-1,-1,-1,-1,-1,-2
1514949569655622,0,-2,-1,-1,0,-2,1,0
1514949569669647,-1,-1,-1,-2,-2,1,-1,-3
1514949569669647,-1,0,-1,0,-2,-2,-3,-1
1514949569670645,-2,-2,-2,-1,-2,0,0,-2
1514949569670645,-1,-1,-1,-1,-1,-1,-1,-1
1514949569692648,1,-3,-1,-1,-1,-1,1,-2
1514949569692648,-1,-2,-1,-1,0,-1,-2,-1
1514949569692648,0,0,-2,-1,0,-1,-3,0
1514949569692648,-2,0,-2,0,-1,-1,-2,-3
1514949569714685,0,1,0,0,0,-1,-1,-1
1514949569714685,0,-2,-2,-2,-2,-2,-1,-2
1514949569715664,-2,-1,0,-1,0,0,0,-1
1514949569715664,-2,-3,-2,0,-2,0,-1,0
1514949569729689,-2,-2,-1,0,-1,0,-2,-2
1514949569729689,-1,-2,-1,-1,0,-1,-2,-2
1514949569737692,0,2,-1,0,-2,-2,0,-1
1514949569737692,-1,1,-1,-3,-2,0,0,0
1514949569752703,-3,-1,-2,-2,-1,-1,-3,0
1514949569752703,0,-4,-2,-1,-1,1,0,-1
1514949569752703,-2,-5,-1,-1,-2,0,-1,0
1514949569752703,0,-1,-1,0,-1,-2,-2,-3
1514949569774706,-1,-1,-1,0,-2,-1,-1,0
1514949569774706,-1,0,-2,-2,0,0,-3,0
1514949569775706,-2,-1,-3,-3,-1,-1,0,0
1514949569775706,-1,-2,-1,-2,-2,-1,0,-2
1514949569788716,-1,-2,1,-1,-1,-2,-3,-1
1514949569788716,0,0,-2,-2,-2,-1,-1,-2
1514949569796721,-3,0,-1,-1,-2,-1,1,1
1514949569796721,0,-1,-1,0,-2,1,-2,0
1514949569811732,0,1,-3,-1,1,-3,0,0
1514949569811732,-1,0,0,0,1,-1,-2,-1
1514949569812745,0,-1,-1,0,-2,0,-2,-1
1514949569812745,-2,-3,-1,-1,-2,-2,-1,-1
1514949569834760,0,-2,0,-1,-1,1,-1,-1
1514949569834760,-1,0,-2,-2,-1,0,0,0
1514949569835749,-2,-2,-2,-4,1,-1,-1,-1
1514949569835749,-1,-2,-1,-2,0,-1,-2,-2
1514949569848768,0,0,0,0,1,-1,0,0
1514949569848768,0,-2,-1,-2,-2,-1,0,-2
1514949569856764,1,-1,0,-1,0,-2,-2,-2
1514949569856764,1,0,-2,0,-1,-1,1,0
1514949569871784,1,-1,-2,0,-2,-3,-1,-2
1514949569871784,-2,-2,-1,0,-1,-1,-2,-1
1514949569872775,1,1,-1,-1,-1,-2,-2,-1
1514949569872775,-1,0,0,-4,1,-1,-2,-3
1514949569894792,0,0,-1,-1,-2,0,-1,-2
1514949569894792,-3,-3,0,-1,0,-2,0,0
1514949569895791,0,-2,-2,0,0,-1,-1,-2
1514949569895791,-1,-1,-2,-1,0,1,-4,0
1514949569908812,-1,-2,-2,-2,-1,-1,0,0
1514949569908812,-1,-1,-1,0,-2,0,-3,1
1514949569916816,0,-1,-2,0,-1,-1,-2,0
1514949569916816,-1,-1,-1,-1,0,-3,0,-2
1514949569931819,-1,-1,0,-2,0,-2,0,-1
1514949569931819,0,0,1,1,0,-1,-1,-1
1514949569932817,0,0,-1,-1,-2,-1,0,1
1514949569932817,-1,-1,-3,0,-1,-1,-2,-1
1514949569954845,-3,-1,-1,-1,-2,-1,0,-1
1514949569954845,-3,-3,-1,-3,0,-1,-1,2
1514949569955835,-1,-3,-2,-1,0,1,-4,-2
1514949569955835,1,-2,0,0,0,0,-1,-1
1514949569968852,-3,-1,-1,-1,-2,-1,0,-2
1514949569968852,1,-3,0,-1,-3,0,-1,-2
1514949569976871,-2,1,0,-2,-1,-2,-2,1
1514949569976871,-3,2,-3,-2,0,-2,0,-1
1514949569991859,-1,-1,0,-1,0,0,-1,-2
1514949569991859,-2,0,-2,-1,-2,-2,-2,-5
1514949569992862,-2,-1,-2,-3,-2,-2,1,-1
1514949569992862,-1,-3,0,-2,-3,-1,-2,0
1514949570014878,2,-2,0,1,0,-2,2,-1
1514949570014878,-1,-3,-2,-2,-1,-2,-2,-1
1514949570015876,-1,-2,-3,0,1,-1,-2,-2
1514949570015876,-1,0,-2,-2,-2,-1,-2,-1
1514949570029886,-1,-1,-3,-2,-3,-2,0,-2
1514949570029886,0,1,-1,-2,-3,-2,0,-3
1514949570036909,-1,-1,1,0,-1,-2,-3,-2
1514949570036909,-1,0,-1,-1,-1,-1,0,1
1514949570052917,-2,-2,-2,-1,0,-2,-1,0
1514949570052917,-1,1,-1,-1,0,-1,-1,0
1514949570052917,0,-2,-1,-2,0,0,1,-2
1514949570052917,-1,0,-1,-1,0,-2,0,-2
1514949570074920,-1,-3,0,0,-1,0,0,-1
1514949570074920,0,-1,0,-1,1,-3,2,-1
1514949570075919,-1,-1,-1,-3,0,-1,-1,1
1514949570075919,-1,-3,0,-2,-1,-1,-2,-2
1514949570088928,0,0,-2,-1,-1,-1,-2,-1
1514949570088928,-2,-1,-1,-2,-2,1,-1,-2
1514949570096933,0,1,-2,1,0,0,-3,-1
1514949570096933,-1,-1,-1,-1,-2,-1,1,-2
1514949570111956,-2,0,0,-1,0,0,-1,-2
1514949570111956,0,-2,-1,1,-1,-1,-1,-2
1514949570112962,0,-2,-2,-2,-1,-2,-1,-1
1514949570112962,-1,-2,-1,0,-1,-1,-2,1
1514949570134972,-1,-3,0,-2,0,0,-1,-2
1514949570134972,-2,-1,-1,-1,0,-2,0,0
1514949570135962,-1,2,-2,-1,-1,-3,-1,-1
1514949570135962,-1,1,-2,-1,-1,0,-2,-2
1514949570148970,0,-4,-1,-1,-2,-2,-1,0
1514949570148970,0,-1,-2,0,-2,-2,-1,-1
1514949570156988,-1,0,-2,-1,-2,0,-1,0
1514949570156988,-1,0,0,-1,-1,-2,-1,2
1514949570171996,0,1,-1,-2,0,-1,-1,-1
1514949570171996,0,-1,-1,-1,-3,-2,-1,0
1514949570172998,-3,-2,-1,-1,-2,-1,-1,-1
1514949570172998,-3,-2,-1,-2,-1,-1,0,-2
1514949570195014,1,0,-1,-1,-2,0,-2,-2
1514949570195014,-1,-2,0,-1,1,-2,-1,-2
1514949570195014,0,0,1,-1,-3,-1,-2,-1
1514949570195014,-1,0,-2,1,0,-2,-1,1
1514949570218034,-2,-1,0,-1,-2,-4,-1,0
1514949570218034,0,-2,-1,0,0,0,-1,-2
1514949570219020,0,-1,-1,-2,0,0,-3,-1
1514949570219020,0,-2,-1,-1,-2,-1,-1,-2
1514949570240034,2,-2,-1,-1,0,-1,-3,-3
1514949570240034,-2,3,-2,1,-2,-1,0,0
1514949570241034,-4,0,0,-2,0,-1,0,-1
1514949570241034,-1,-1,-1,-2,-1,-1,0,-1
1514949570255057,-1,-1,-2,-3,-2,-1,2,0
1514949570255057,-1,-2,-1,-2,0,-1,-1,-2
1514949570255057,0,1,-2,0,-2,-1,-1,-1
1514949570255057,-2,0,-1,-1,0,-1,-1,-1
1514949570278062,-1,-3,-1,-1,-1,0,-1,0
1514949570278062,-1,-3,-1,-2,0,0,0,0
1514949570280063,0,0,-2,-3,-3,-3,-1,0
1514949570280063,1,0,-1,-1,-1,-1,1,0
1514949570292071,-2,1,1,0,-1,0,-1,-3
1514949570292071,-2,-4,-1,-1,-1,0,-1,-1
1514949570293071,-1,-3,0,0,-1,0,0,-2
1514949570293071,-1,-1,0,-1,-2,-1,-1,-2
1514949570315102,0,-2,-4,-2,-2,-1,-1,0
1514949570315102,0,-1,-1,-2,-1,-2,-1,-1
1514949570316095,-2,-1,-1,0,-2,-4,0,0
1514949570316095,1,-3,-1,-1,-2,0,-1,-1
1514949570338115,-1,-3,-2,0,0,-1,-2,-1
1514949570338115,-2,-1,0,-2,-3,-1,0,-2
1514949570339109,0,-1,-2,-2,0,-1,-1,-1
1514949570339109,0,-2,-2,0,0,-1,0,1
1514949570352126,-1,-2,-1,-1,-3,-2,-2,-2
1514949570352126,1,-3,-2,0,-2,-1,0,-1
1514949570353117,-1,0,-1,-2,-1,-2,0,-2
1514949570353117,-1,-1,-3,-1,-2,-1,0,0
1514949570375144,-3,-1,-1,-1,-1,-1,-1,-3
1514949570375144,-2,-1,-1,0,-2,-1,0,-1
1514949570375144,-1,-2,-1,-1,-1,0,0,0
1514949570375144,1,-1,-1,-1,0,-1,-5,-1
1514949570398160,-2,-3,-2,-2,-1,-1,0,-2
1514949570398160,0,-1,0,-2,0,-2,2,-3
1514949570399159,-2,-2,-2,-2,-2,-1,-2,-1
1514949570399159,-2,0,-1,-1,0,-1,-2,-1
1514949570412156,-1,-1,1,1,-2,-2,0,-1
1514949570412156,0,-1,0,-2,-2,-1,-2,-1
1514949570413156,-1,-1,0,-3,-1,-2,-1,0
1514949570413156,0,-1,-1,0,-1,1,-1,-1
1514949570435191,-2,-1,0,-3,0,-1,2,-1
1514949570435191,-1,-1,-2,2,-1,0,-3,-1
1514949570435191,-1,-2,-1,-1,-1,-1,0,0
1514949570435191,-2,-1,2,-1,-2,-3,1,-2
1514949570458199,-1,-1,-3,-1,-1,-3,-1,-1
1514949570458199,-1,1,1,-1,-1,-1,-2,0
1514949570459189,-2,-1,-1,-2,1,-1,1,1
1514949570459189,0,-1,-1,-1,-3,-2,0,-1
1514949570472211,0,-3,-1,-1,-2,1,-1,-2
1514949570472211,-1,0,-3,-2,-2,-1,-1,-1
1514949570473212,-2,-1,-2,0,0,-2,0,-3
1514949570473212,-1,-1,-2,-2,-1,-3,-1,-2
1514949570495214,-1,-2,0,0,-1,0,-2,-1
1514949570495214,-1,0,0,-1,-1,0,-3,-1
1514949570495214,-1,-1,-2,-2,-3,-2,-1,1
1514949570495214,-1,-1,-2,-1,1,0,1,-2
1514949570518240,-1,-2,-1,-2,-1,-2,0,-1
1514949570518240,0,-1,-3,-2,0,-2,1,-1
1514949570518240,1,-1,-2,1,-1,0,-1,-1
1514949570518240,-2,-1,0,-1,-1,-1,0,-1
1514949570532254,-2,0,0,0,-1,-3,-1,0
1514949570532254,-1,-1,0,-2,-1,0,0,-1
1514949570534280,-1,0,0,-1,0,0,-2,-3
1514949570534280,-1,0,-2,-2,-1,0,-2,-2
1514949570554266,0,-2,-1,0,-1,0,-2,-2
1514949570554266,-2,-1,0,-2,-1,-2,-1,-2
1514949570555263,-2,-1,0,-1,0,0,-1,-1
1514949570555263,-3,-2,-3,-1,0,-1,-1,-2
1514949570578276,0,1,0,-1,-2,-2,-1,0
1514949570578276,0,-3,-1,-4,-1,-1,0,-1
1514949570580275,0,-1,-2,0,-1,-2,-1,0
1514949570580275,-1,0,1,-3,-1,1,0,-1
1514949570592283,-1,0,-2,-1,-2,0,-1,-1
1514949570592283,-1,-2,-1,1,-2,-2,-2,-2
1514949570593284,-1,1,-2,1,-1,-1,-2,-1
1514949570593284,0,0,-2,-1,-1,-1,0,-1
1514949570614300,-1,0,-1,-1,-1,-1,-1,-2
1514949570614300,1,0,-1,-1,1,1,1,0
1514949570615299,0,-2,1,-2,-1,-1,0,-2
1514949570615299,0,-4,-2,-1,-1,-3,-2,1
1514949570638335,-2,-1,-1,-2,-2,-1,0,-2
1514949570638335,-2,-2,-2,0,-2,-2,0,-1
1514949570638335,-1,-1,-2,-2,-1,1,-3,0
1514949570638335,-3,-1,-1,0,-3,-1,-3,-1
1514949570652344,-1,-3,-2,1,0,-2,-1,-2
1514949570652344,-1,-1,0,-1,-2,-3,-1,-1
1514949570653349,0,-1,-2,-4,-4,-1,1,0
1514949570653349,0,-2,-1,-1,-2,-1,1,-2
1514949570674351,0,-1,0,-2,0,0,0,-1
1514949570674351,-2,-1,-1,-1,-1,-1,-3,-1
1514949570675342,-1,-2,-2,-1,0,0,-1,-1
1514949570675342,1,-1,0,-1,1,-3,0,-1
1514949570698358,0,-2,-2,-1,-2,0,-1,-2
1514949570698358,-1,0,-3,-3,0,-1,1,-1
1514949570700360,0,-2,-1,-1,-3,-4,-2,-1
1514949570700360,-2,-1,0,0,-2,-2,-3,0
1514949570712380,0,-1,-1,-2,-2,0,-1,1
1514949570712380,-3,-3,1,1,0,0,-2,-2
1514949570713381,-2,0,-2,-1,-2,-2,0,0
1514949570713381,1,-1,-1,0,2,0,1,0
1514949570734384,0,-1,-1,-3,1,-1,-2,2
1514949570734384,0,-3,-1,0,-3,0,-1,1
1514949570736386,-2,-1,1,0,-1,-1,-1,-2
1514949570736386,0,-2,-2,0,-2,0,-2,-2
1514949570758401,0,0,-2,-3,0,0,0,-1
1514949570758401,-1,0,1,-1,-1,-2,1,0
1514949570758401,-1,0,-1,-3,-1,-1,0,-1
1514949570758401,-3,-3,-1,3,-2,-1,-1,0
1514949570781417,-1,-2,0,-2,1,-1,-2,0
1514949570781417,-2,-2,-1,2,-2,-1,-1,-3
1514949570783418,2,0,1,2,-2,-1,-1,-2
1514949570783418,1,1,-2,-6,0,0,1,-1
1514949570794426,-2,-3,1,5,-5,1,-2,-1
1514949570794426,0,0,0,1,1,0,-2,1
1514949570795426,-3,-2,-4,-8,-5,-2,-1,-3
1514949570795426,-1,2,-1,0,5,0,-2,-1
1514949570817443,-2,0,1,0,-1,-3,-1,-2
1514949570817443,-1,0,-2,-2,0,0,-2,2
1514949570818457,-3,-1,-3,10,-1,1,-1,-1
1514949570818457,-1,-1,-5,-29,-6,-3,0,-3
1514949570840460,-2,0,0,1,-2,-1,0,-1
1514949570840460,-1,0,0,1,0,-4,-1,-1
1514949570841460,0,-2,0,4,8,2,-1,2
1514949570841460,1,-5,-4,-5,-5,1,1,-1
1514949570854478,-1,1,-1,4,0,-3,0,-1
1514949570854478,1,1,-3,-8,-3,0,-2,0
1514949570855469,1,1,0,12,-1,-4,-2,-1
1514949570855469,-1,-4,-4,-29,-7,-3,-2,-5
1514949570878485,-1,-3,-3,-1,2,-2,1,-2
1514949570878485,-1,-4,-3,-1,-1,0,2,-3
1514949570880496,-2,2,2,5,0,-2,-2,-1
1514949570880496,-2,1,0,15,1,0,-2,0
1514949570891495,0,0,-5,-8,-4,-1,-1,-2
1514949570891495,-2,0,1,12,-3,-4,-2,-1
1514949570899512,-2,-1,-3,-12,4,-2,-1,-2
1514949570899512,-1,-4,1,-4,-7,2,0,-1
1514949570914528,-2,-1,4,14,-3,-6,-5,-2
1514949570914528,-1,-3,-6,-24,-3,4,1,-2
1514949570915512,2,-1,5,-12,-8,3,2,0
1514949570915512,-3,-1,-17,14,14,-4,-2,-2
1514949570937531,-2,-5,-5,-41,-17,7,3,2
1514949570937531,3,4,13,20,2,-4,-4,-1
1514949570938528,-3,-5,-6,-9,-4,-1,-3,-1
1514949570938528,-1,1,-8,1,-4,-2,-2,0
1514949570951539,0,7,2,10,7,-6,0,-1
1514949570951539,-5,-13,-5,3,2,1,-2,-3
1514949570959560,1,3,4,4,3,2,2,2
1514949570959560,-2,1,3,16,-4,-3,-2,-2
1514949570974570,-2,-3,-1,9,2,0,-1,-2
1514949570974570,4,9,2,-11,0,1,-1,1
1514949570975567,-1,-2,8,20,1,-2,-3,0
1514949570975567,-1,-1,2,2,-4,-2,0,1
1514949570997586,1,8,-6,-14,-5,-1,3,-4
1514949570997586,-2,-12,-2,1,-5,-4,0,-3
1514949570998570,-4,-9,-6,-20,-1,1,-2,-1
1514949570998570,4,7,3,-7,-4,1,1,0
1514949571012580,0,-8,5,4,-2,0,-1,0
1514949571012580,-5,-3,-4,-7,6,2,-2,2
1514949571019585,-2,1,-12,-3,-8,-5,-2,-3
1514949571019585,-5,-9,5,7,-5,-1,-2,0
1514949571034595,5,9,1,8,9,-2,-1,0
1514949571034595,0,4,0,2,-6,-2,1,-3
1514949571036599,-2,-6,2,13,-5,-3,-1,-2
1514949571036599,0,0,3,0,2,2,0,-2
1514949571057613,-2,-7,-2,27,0,-1,-3,-1
1514949571057613,-1,1,-3,-13,0,0,0,2
1514949571058614,1,1,-1,-12,2,0,1,0
1514949571058614,-1,4,1,1,2,-2,-1,-1
1514949571071631,-2,6,1,-6,1,-1,-1,-1
1514949571071631,-2,-3,-4,-16,-1,-2,-2,1
1514949571080628,1,-2,3,29,-4,-3,-1,-3
1514949571080628,-2,-8,-8,-10,0,0,1,-1
1514949571094639,-1,5,-2,6,-1,-4,-4,-3
1514949571094639,-6,-19,-13,-25,-7,-2,-2,-3
1514949571095639,1,12,3,16,3,-1,-2,1
1514949571095639,-1,6,0,-39,-5,1,1,-2
1514949571117654,0,-1,-1,-4,0,1,-1,-1
1514949571117654,2,3,3,15,-1,-1,-1,-3
1514949571118656,1,-2,2,-4,2,0,0,1
1514949571118656,-4,-5,6,21,0,-2,0,0
1514949571140682,-2,-7,-9,-24,-5,-2,-2,-1
1514949571140682,3,7,0,1,3,1,0,1
1514949571141695,0,-5,-1,5,-3,-1,-3,-2
1514949571141695,1,4,-4,-15,-2,-2,-2,0
1514949571154681,-6,-15,-1,-1,-1,0,1,0
1514949571154681,2,8,5,12,6,-1,0,1
1514949571155681,3,-1,-5,-21,-2,-3,-1,-3
1514949571155681,-1,13,3,11,0,0,-1,-2
1514949571178707,2,-10,2,1,-1,-1,-1,1
1514949571178707,-15,-37,-9,-2,-6,-3,-2,-4
1514949571180714,3,29,-6,3,0,0,0,-3
1514949571180714,-4,-17,-6,-18,0,-3,-3,-3
1514949571200723,5,13,4,2,1,0,1,0
1514949571200723,1,8,7,18,-2,-1,-2,-1
1514949571201727,-3,-2,0,-13,0,1,2,2
1514949571201727,-1,-2,10,36,3,-3,-3,-1
1514949571214732,-5,-5,-9,-34,-3,-1,2,-4
1514949571214732,3,7,-9,-11,-4,-4,-6,-6
1514949571215725,-1,-8,4,0,2,-1,-2,2
1514949571215725,0,0,3,20,2,-2,-1,0
1514949571237753,-3,-12,-1,3,-1,2,-2,-3
1514949571237753,1,9,3,11,-1,-1,0,-1
1514949571238740,-4,1,-2,-3,0,0,-2,-2
1514949571238740,-2,-9,-2,0,-1,-1,2,-5
1514949571260773,3,-24,-4,6,2,1,-1,-1
1514949571260773,-1,28,-3,-4,-6,-4,-3,0
1514949571260773,-2,-26,-3,-9,-1,-2,-3,-1
1514949571260773,5,12,-5,-11,-4,-3,-3,-1
1514949571274775,-4,5,3,10,0,-3,-2,2
1514949571274775,-2,-11,-4,-7,2,2,0,-1
1514949571275781,-8,-5,-5,-8,-7,-3,-2,-3
1514949571275781,2,9,-1,12,-1,2,-2,-1
1514949571298797,2,-8,-4,-25,-5,-3,-3,-3
1514949571298797,-2,13,3,6,1,0,1,2
1514949571300794,2,-13,4,4,-4,-2,2,-2
1514949571300794,-5,-13,-1,-4,3,1,0,-2
1514949571320810,1,8,-9,-5,-3,1,0,-1
1514949571320810,-2,3,-1,-21,-6,-2,0,-1
1514949571320810,-3,6,-1,-3,2,1,-1,-1
1514949571320810,1,-11,-2,-1,-4,-4,-1,2
1514949571334808,-4,0,5,10,-1,-2,-1,-3
1514949571334808,2,-4,-1,11,3,-1,0,-1
1514949571335809,-25,-8,-1,23,-2,-1,-1,3
1514949571335809,10,3,-4,-37,-6,-3,1,-3
1514949571357828,3,23,4,10,-1,-1,0,-1
1514949571357828,1,10,0,-6,2,1,0,1
1514949571358826,0,-1,-10,-7,-6,-5,-5,-5
1514949571358826,-10,-13,1,32,1,-3,-2,0
1514949571380859,13,-19,-5,-48,-4,-2,-1,-2
1514949571380859,-42,12,-7,16,-3,1,0,-4
1514949571380859,37,9,3,9,3,2,2,2
1514949571380859,-6,6,-1,-22,-7,-2,0,-6
1514949571394860,8,-6,3,7,7,2,0,0
1514949571394860,17,-2,3,10,2,-3,-3,-2
1514949571395860,-15,-20,-5,3,-4,-1,-2,-1
1514949571395860,23,-12,-14,-63,-7,-2,-2,0
1514949571417885,-41,25,1,29,-1,0,1,-4
1514949571417885,12,-30,1,-22,-1,-2,0,0
1514949571418868,39,-4,-16,-4,-3,-4,-3,-10
1514949571418868,-56,-11,11,36,5,1,0,3
1514949571439900,-17,8,-5,-24,-6,-3,-2,-2
1514949571439900,12,-3,1,10,2,3,1,3
1514949571440901,-14,11,11,21,2,0,1,-1
1514949571440901,25,-4,-1,-8,3,1,-1,6
1514949571454894,2,-2,-17,47,-17,-11,-3,-13
1514949571454894,-19,-35,-3,30,-2,-1,-4,-3
1514949571455895,2,19,-1,-49,5,3,1,0
1514949571455895,5,17,21,17,6,2,-3,2
1514949571477919,13,-6,8,27,2,3,0,7
1514949571477919,-7,8,-14,-21,-6,-5,2,-3
1514949571478920,-29,-25,0,0,0,-2,-2,-3
1514949571478920,15,-7,-7,-13,-4,0,0,2
1514949571499924,-21,19,9,18,8,4,0,2
1514949571499924,43,-20,-3,11,-6,-1,-1,1
1514949571500926,-84,-35,-12,-56,-4,0,-1,-5
1514949571500926,64,10,22,-6,8,4,4,6
1514949571514935,27,-19,4,18,-3,-2,0,-1
1514949571514935,-7,2,-15,-21,-2,-2,0,-3
1514949571514935,21,5,10,34,2,2,3,11
1514949571514935,-49,3,-24,-14,-6,-3,0,-9
1514949571537951,5,7,15,-14,5,3,0,4
1514949571537951,-18,9,1,2,-2,-3,-3,-1
1514949571541956,16,47,6,1,4,1,0,3
1514949571541956,-5,-17,3,12,3,1,-1,0
1514949571559979,45,32,-6,-7,-2,-5,-1,2
1514949571559979,-43,-7,7,0,0,-3,-3,-5
1514949571561968,16,-29,-6,12,0,-1,-1,-2
1514949571561968,0,-8,-13,18,-3,-2,0,-4
1514949571573989,-13,-1,-5,-25,1,1,-1,-6
1514949571573989,21,13,5,-9,-3,-1,-3,0
1514949571584985,-4,-6,4,30,0,-1,0,-1
1514949571584985,1,-4,-8,-17,-9,-4,1,-3
1514949571597005,-16,-19,3,6,2,0,1,-3
1514949571597005,0,7,-7,-14,1,0,-2,1
1514949571605999,21,19,2,-12,-2,-4,0,1
1514949571605999,-19,-15,-1,0,-6,0,-3,-3
1514949571620016,0,-41,4,-9,0,2,-2,2
1514949571620016,11,15,16,44,8,3,1,3
1514949571622010,-19,-7,-28,-40,-17,-10,-7,-19
1514949571622010,8,19,-3,11,-1,-3,-1,-1
1514949571634029,-4,6,16,36,7,-2,0,1
1514949571634029,7,-20,10,8,4,4,2,-4
1514949571643026,-26,-71,-15,0,-5,-4,-6,-6
1514949571643026,12,17,-2,0,6,-2,-3,-2
1514949571659036,2,37,-22,-50,-19,-7,-2,6
1514949571659036,-1,0,7,23,4,1,1,-5
1514949571661038,15,60,12,-8,2,3,2,12
1514949571661038,-33,-19,-15,0,0,-3,-7,-22
1514949571681052,19,26,-4,9,1,-2,0,0
1514949571681052,3,19,-7,-28,-8,-1,1,1
1514949571684055,20,36,16,-34,-3,-1,-4,4
1514949571684055,-17,-4,-9,48,7,-1,-4,-6
1514949571694064,3,-7,-5,-90,-18,-6,-2,2
1514949571694064,14,45,-8,-4,3,2,1,6
1514949571703071,-13,-76,10,40,6,-1,0,-5
1514949571703071,20,34,17,14,1,6,4,10
1514949571718139,-26,-47,-6,19,4,-2,-4,-10
1514949571718139,-12,-52,-11,-29,-9,-9,-7,-4
1514949571719079,10,-27,-6,-28,0,-1,-2,4
1514949571719079,-4,78,-9,3,-10,-5,-3,4
1514949571740094,0,48,4,0,0,3,-1,-14
1514949571740094,-16,-29,9,-7,-2,-4,-3,1
1514949571742105,33,51,-7,14,1,-3,-1,5
1514949571742105,-11,-38,12,-2,-1,3,4,-5
1514949571754115,-19,-95,-4,16,0,-4,-3,-1
1514949571754115,3,65,-15,-21,-7,-4,-5,-7
1514949571763120,13,86,12,16,2,0,0,5
1514949571763120,-67,22,-14,-23,-10,-5,-3,-23
1514949571778121,11,-14,-2,-1,8,2,1,8
1514949571778121,-1,-6,0,15,2,0,0,3
1514949571782124,-6,-6,18,36,6,3,-1,-11
1514949571782124,30,23,-5,-47,-5,-6,2,6
1514949571800148,-31,-53,-3,9,-4,2,-4,-14
1514949571800148,-3,29,4,6,4,-4,-1,3
1514949571802150,13,33,-16,-30,-4,3,0,-17
1514949571802150,15,-40,14,48,5,4,1,15
1514949571814158,9,28,-3,-16,2,1,3,15
1514949571814158,9,-61,3,-15,-3,0,3,-8
1514949571823155,-1,10,-17,-16,-7,-8,-10,8
1514949571823155,19,8,3,-13,4,-3,0,2
1514949571837183,-34,-12,12,27,5,4,-3,-21
1514949571837183,1,101,-10,-18,-6,-1,-1,-3
1514949571845169,6,28,7,0,3,1,5,21
1514949571845169,4,36,-1,4,-3,-4,-3,-6
1514949571860179,34,38,11,12,3,-1,-1,13
1514949571860179,-35,-61,-15,1,1,1,5,1
1514949571862192,-26,-59,6,-2,-1,1,0,-9
1514949571862192,-1,104,-41,-10,-8,-7,-6,5
1514949571874199,-9,-34,11,-6,-7,-4,-3,-8
1514949571874199,-11,-38,-4,-14,-2,-4,-5,-24
1514949571884208,34,-57,3,9,1,10,10,32
1514949571884208,-3,-38,23,33,12,4,-1,-5
1514949571899207,3,116,-20,-18,-10,-3,-4,-5
1514949571899207,18,79,13,5,-4,1,-1,-8
1514949571902209,-5,-100,2,9,8,1,3,10
1514949571902209,-25,-17,-2,-14,-3,1,3,-13
1514949571920222,3,-57,8,18,10,-2,-4,16
1514949571920222,15,-29,-21,-12,-5,3,1,-9
1514949571922224,0,127,29,8,-8,-1,3,-1
1514949571922224,39,35,-2,-22,12,5,6,26
1514949571934231,-13,12,-3,2,-6,-5,0,0
1514949571934231,22,54,14,10,-2,0,-4,16
1514949571943238,-7,-88,-11,6,6,-5,-2,-3
1514949571943238,19,-3,-7,-12,-13,1,4,-29
1514949571958261,25,8,4,-22,-1,-2,0,27
1514949571958261,-22,45,-19,7,2,-7,-6,-8
1514949571959249,-28,114,-11,-9,-18,-9,-2,-4
1514949571959249,-5,-128,-28,-15,0,1,-2,12
1514949571980264,-18,65,9,13,-9,-9,-9,-16
1514949571980264,10,56,-4,18,6,2,1,-4
1514949571982277,-4,31,-9,-9,-1,-2,-7,-7
1514949571982277,-15,-72,-1,16,3,6,3,5
1514949571995275,5,-79,5,-27,-5,-8,-6,19
1514949571995275,-13,-30,17,1,0,1,4,-25
1514949572003282,2,37,-4,7,-2,-6,-5,-20
1514949572003282,14,66,-10,-27,-27,-1,-1,5
1514949572018306,-6,-87,-18,15,22,10,5,-9
1514949572018306,-17,-65,-20,-3,-17,-8,-3,30
1514949572019291,-14,-67,5,-17,-1,-1,-7,-49
1514949572019291,23,122,15,19,1,-1,-1,-5
1514949572041307,15,-8,79,29,6,12,14,31
1514949572041307,-36,-102,-80,-31,-3,-10,-5,-2
1514949572044319,-2,59,22,-8,-1,2,0,20
1514949572044319,-15,-45,45,21,9,-2,-4,-25
1514949572063338,27,81,-6,14,-6,1,5,3
1514949572063338,-10,-11,13,-28,3,3,-3,-8
1514949572065324,17,-6,-14,12,4,5,7,11
1514949572065324,4,5,11,4,4,-1,-4,12
1514949572078333,1,30,-17,23,4,0,2,1
1514949572078333,11,-58,-3,1,-11,-5,-5,2
1514949572082336,3,-53,-3,-16,-3,2,-4,-7
1514949572082336,-4,-15,13,3,1,-5,-1,13
1514949572100361,-1,-19,-21,-4,-3,-6,-7,7
1514949572100361,7,106,-1,-5,-4,3,2,-36
1514949572102368,-11,26,18,13,3,-2,3,1
1514949572102368,-20,19,-11,-5,-9,2,-6,-9
1514949572122375,14,71,-25,-33,-20,-8,-4,-2
1514949572122375,-6,-15,2,29,21,9,3,-4
1514949572124367,9,53,-15,-13,-11,-7,-9,10
1514949572124367,12,-13,29,-5,11,-2,0,-1
1514949572138375,-42,-13,-24,-11,-5,-2,-3,-21
1514949572138375,20,29,11,2,-7,-5,-3,34
1514949572139377,-2,24,-15,-5,17,13,7,-42
1514949572139377,-22,39,40,21,0,-8,-11,-17
1514949572161401,0,22,-27,-25,-17,-5,0,-14
1514949572161401,13,18,32,40,20,11,5,13
1514949572162393,-24,-69,-13,-49,-11,-9,-3,14
1514949572162393,10,-60,12,-16,-4,3,2,3
1514949572183407,31,6,13,12,1,0,3,27
1514949572183407,-35,36,10,20,3,2,0,-40
1514949572187412,11,-64,-4,28,1,0,-6,10
1514949572187412,-13,67,-14,-22,-9,1,5,0
1514949572197429,-32,-92,-2,-1,-3,-7,-8,-20
1514949572197429,6,-123,3,6,-7,-2,3,36
1514949572199419,11,99,1,-15,17,-1,-3,2
1514949572199419,-31,-128,-15,33,0,-7,-6,-14
1514949572220474,-9,39,-26,-21,3,4,5,-19
1514949572220474,11,88,39,1,-4,0,0,8
1514949572222435,6,-32,5,-1,-3,1,2,1
1514949572222435,5,-39,-30,22,-7,-5,-4,12
1514949572242460,-4,16,-15,-2,5,3,-1,-14
1514949572242460,22,-19,20,-2,-2,-1,-3,19
1514949572244451,-30,45,-9,13,-1,0,-2,-25
1514949572244451,-9,-28,-16,-13,-2,0,2,-5
1514949572257474,-1,-2,3,-9,-3,6,1,-3
1514949572257474,10,13,4,-21,7,-3,-2,5
1514949572263464,-7,-85,-10,13,-13,-8,-5,21
1514949572263464,5,37,-7,-9,4,0,-1,-2
1514949572281478,13,33,8,2,0,-1,-1,-11
1514949572281478,14,10,-5,-7,0,1,-3,2
1514949572285480,-13,-60,-10,10,4,-3,0,3
1514949572285480,-9,-80,-5,-20,-3,-1,0,7
1514949572303494,-12,-31,-8,6,0,2,3,-26
1514949572303494,0,1,-4,3,-19,-9,-7,-1
1514949572304493,10,39,10,-9,6,9,3,5
1514949572304493,-12,51,-7,4,0,-2,-3,3
1514949572317514,-2,51,13,9,8,-5,-3,-4
1514949572317514,-11,-85,-37,-42,-5,-2,0,1
1514949572323516,1,15,20,0,-1,-4,-2,-25
1514949572323516,7,38,-25,9,-4,0,0,11
1514949572340528,23,-58,16,6,7,-1,-2,24
1514949572340528,-17,18,-8,7,13,-6,-6,-21
1514949572341529,-6,-8,-11,2,-18,-4,-2,0
1514949572341529,6,6,26,-32,-8,-3,2,10
1514949572362534,-11,-30,-18,3,-6,-2,-4,-8
1514949572362534,5,-19,-8,9,10,3,-1,4
1514949572364536,9,-9,18,-18,1,-1,0,6
1514949572364536,0,53,1,18,1,-5,-2,3
1514949572377560,-25,-18,-5,-7,-22,-9,-4,-9
1514949572377560,3,-6,-4,-5,8,8,7,17
1514949572384549,-6,19,4,8,-8,-6,-2,-13
1514949572384549,28,68,9,0,8,2,0,14
1514949572400560,-9,-50,-3,0,4,0,-1,-18
1514949572400560,-12,-25,-8,-9,-9,5,0,-7
1514949572401574,9,2,9,5,-11,-9,-2,14
1514949572401574,-4,-34,-18,10,2,-7,-5,0
1514949572422580,0,20,3,-34,-17,3,6,-24
1514949572422580,24,52,23,30,11,-3,-3,10
1514949572424578,5,-46,-11,-4,-11,-6,0,9
1514949572424578,-32,-59,-11,-3,-7,-4,-4,-15
1514949572437587,0,29,29,3,7,3,-1,3
1514949572437587,-14,-5,-22,-24,0,-2,-5,-10
1514949572443605,10,3,-11,5,7,-6,-1,14
1514949572443605,-6,33,12,21,14,5,2,-23
1514949572460613,-1,12,5,4,2,-2,0,9
1514949572460613,5,21,5,2,-8,-4,-1,7
1514949572462633,-13,-48,4,-10,-6,0,-1,-19
1514949572462633,5,-19,-21,-17,-4,0,0,-4
1514949572483632,15,68,4,-6,2,3,-1,19
1514949572483632,10,16,21,5,-7,-4,-3,0
1514949572487625,-8,45,-6,8,-3,-3,-2,-23
1514949572487625,11,-30,7,-10,8,15,3,9
1514949572497630,-1,-4,-16,4,-5,-10,-3,10
1514949572497630,-1,2,10,-6,-8,-9,-1,-6
1514949572503657,-6,-22,-14,6,13,10,5,1
1514949572503657,0,28,21,-29,-11,-5,-2,-13
1514949572520666,14,25,-1,39,14,3,-2,25
1514949572520666,-4,14,-7,3,-2,1,0,-9
1514949572521648,-13,-5,-14,-13,-2,-3,-2,-3
1514949572521648,9,-2,2,11,-4,-3,-3,6
1514949572543675,5,9,10,5,0,1,2,-3
1514949572543675,-22,-59,-21,-10,-4,-3,-4,-10
1514949572547675,-2,-24,0,9,-4,0,1,6
1514949572547675,-2,-32,-20,-19,-5,0,2,0
1514949572556684,14,25,12,12,5,-2,-4,20
1514949572556684,-30,15,4,-22,-10,-5,0,-44
1514949572565677,13,92,4,23,1,3,-2,7
1514949572565677,-8,-23,-12,-12,2,4,1,-1
1514949572580688,0,-5,6,-11,0,-4,-5,-7
1514949572580688,10,35,6,28,12,-6,0,16
1514949572581688,-10,-25,-4,-29,-22,4,4,-6
1514949572581688,7,79,7,12,3,-5,-2,-3
1514949572604706,-17,-51,-14,-18,0,0,-2,-20
1514949572604706,-3,-39,-25,14,-1,-5,-2,10
1514949572605707,-4,-24,3,-6,-1,1,-2,5
1514949572605707,10,13,-11,3,17,0,2,3
1514949572616726,-11,-26,-7,6,-7,-6,-3,-1
1514949572616726,9,5,13,-25,-8,13,7,-12
1514949572625724,1,-42,-10,3,-4,-1,1,11
1514949572625724,-9,-26,-1,-3,1,0,-4,-7
1514949572640740,3,10,-8,6,0,-1,-1,8
1514949572640740,5,41,14,14,-5,-1,-1,0
1514949572641739,-12,-32,-16,-18,14,2,-1,-17
1514949572641739,6,32,27,6,-4,-5,0,2
1514949572662758,-4,1,-6,17,-1,2,-1,7
1514949572662758,1,47,-9,-13,-9,1,-1,-24
1514949572664760,1,0,12,-27,5,-8,-5,1
1514949572664760,-4,-26,-14,-13,-14,-1,1,1
1514949572676768,-10,2,-4,-15,-2,-1,-3,-16
1514949572676768,9,-4,2,6,2,1,-1,23
1514949572686784,-6,-23,-5,31,0,-4,0,0
1514949572686784,-10,-8,3,-4,-2,0,-2,-10
1514949572701774,18,62,-27,-2,0,-3,-3,1
1514949572701774,-9,-27,10,6,17,2,-2,-6
1514949572704776,1,21,7,-9,6,0,3,2
1514949572704776,-2,-15,-9,-19,-10,-3,-4,7
1514949572722788,-2,4,7,4,0,2,4,-9
1514949572722788,-6,-52,-12,9,3,-4,-4,12
1514949572724792,0,-24,-14,-11,-16,-4,-2,6
1514949572724792,7,13,9,3,9,3,2,0
1514949572736799,-4,-25,2,-10,-13,-1,2,5
1514949572736799,12,-27,-8,5,-12,-7,-2,4
1514949572745817,-16,39,17,-13,4,10,1,-3
1514949572745817,0,-26,3,4,-8,-7,-5,-10
1514949572760815,-1,45,6,-9,-1,-1,-1,-9
1514949572760815,1,-31,4,7,-18,-9,0,20
1514949572761819,3,16,-29,-9,23,2,-2,-5
1514949572761819,-1,9,33,20,1,0,-1,-15
1514949572783831,-8,-55,-1,-11,-6,1,1,-2
1514949572783831,-7,11,-14,-22,-10,-3,-4,-5
1514949572786835,15,10,12,-3,8,0,-1,15
1514949572786835,-8,-7,-22,-7,-5,-3,-1,-5
1514949572796842,7,8,17,23,10,-1,-4,6
1514949572796842,6,38,-2,-19,4,3,-1,-3
1514949572805856,-7,-9,5,5,-8,-7,-3,-4
1514949572805856,4,-42,-21,7,5,3,1,16
1514949572820860,-6,17,12,-2,2,1,0,-15
1514949572820860,-5,-19,-1,-2,13,1,-2,3
1514949572821864,-6,-12,-15,17,-14,-8,-3,-9
1514949572821864,5,34,0,-19,3,1,0,-5
1514949572842875,3,-23,-5,2,0,-1,2,8
1514949572842875,-14,-6,5,-1,-5,-3,-2,-7
1514949572844876,15,14,6,4,2,-2,-1,9
1514949572844876,-22,-24,-5,7,-7,-7,-5,-28
1514949572856886,-13,-20,0,-5,-7,-5,-4,-3
1514949572856886,4,12,16,0,9,4,1,13
1514949572865891,-3,-26,-26,-1,-12,-3,-2,-9
1514949572865891,5,23,-4,-2,5,2,-1,6
1514949572879902,-4,25,7,-11,4,3,1,-4
1514949572879902,-4,-22,1,17,-6,-1,1,-3
1514949572881902,4,24,2,-22,1,-2,0,-9
1514949572881902,4,-31,-4,0,-2,3,3,9
1514949572902917,-3,-54,-7,0,-4,-5,-6,3
1514949572902917,-2,26,-5,-5,-5,-2,-2,2
1514949572905919,-7,29,5,-2,9,5,1,-4
1514949572905919,5,-33,-7,16,-8,-7,-1,15
1514949572916927,1,21,-11,-12,-6,-1,0,-10
1514949572916927,-3,1,-6,5,-1,-1,1,-3
1514949572925935,-4,-5,2,-11,-3,-2,-4,-4
1514949572925935,3,19,12,6,-4,-2,-1,0
1514949572940946,5,-30,-10,3,-3,-1,-3,4
1514949572940946,-15,-28,-14,-6,10,-2,-4,-13
1514949572941947,21,20,25,26,5,-2,2,21
1514949572941947,-14,-23,-2,-19,-6,-2,-2,-20
1514949572963959,-12,26,11,12,2,-4,-1,-9
1514949572963959,5,-13,-15,-16,-3,4,2,-1
1514949572966962,4,-24,5,-1,9,6,3,2
1514949572966962,-13,-16,20,2,-4,-6,-3,-1
1514949572984982,-3,23,-4,11,5,0,-2,3
1514949572984982,-6,8,-19,4,-5,-3,-2,-12
1514949572986975,-4,-9,14,13,-5,-1,-3,-3
1514949572986975,9,30,-7,-9,-6,-2,1,5
1514949572999984,-6,16,4,-8,1,2,-2,-3
1514949572999984,6,-12,7,-1,-2,0,1,5
1514949573001986,6,30,-6,11,-7,-2,-1,5
1514949573001986,-3,17,-5,1,7,-2,0,-24
1514949573023006,1,-41,-16,-18,-14,-3,-1,6
1514949573023006,-4,5,12,-2,6,0,1,-1
1514949573025006,-7,-23,-10,-2,-5,-1,-1,-7
1514949573025006,12,38,7,41,-2,-5,0,8
1514949573046018,-4,-49,-9,-51,-2,-3,0,-4
1514949573046018,7,46,2,-9,-9,0,0,3
1514949573047018,-4,-18,-9,10,-7,-6,-4,-15
1514949573047018,-17,-53,-7,0,7,1,0,5
1514949573060028,5,24,-8,-10,-4,0,4,2
1514949573060028,7,14,4,-3,-7,-3,-3,0
1514949573062030,-12,-13,19,0,-1,-1,0,-2
1514949573062030,13,31,-47,-19,-2,-1,-3,7
1514949573083045,-7,6,10,24,1,-4,-4,-5
1514949573083045,1,9,3,18,0,0,1,3
1514949573084044,-14,-24,-32,-55,-10,-5,-5,-9
1514949573084044,-4,6,0,-1,-4,2,2,1
1514949573106062,5,3,10,8,13,4,2,7
1514949573106062,-8,-28,-6,-2,2,0,-3,-1
1514949573107062,-1,14,2,19,1,-2,0,-26
1514949573107062,1,12,7,-11,-4,-1,-1,9
1514949573120069,1,-31,-10,2,5,-3,-4,-9
1514949573120069,2,4,4,-8,-6,1,1,5
1514949573122073,8,16,-1,-9,9,3,3,5
1514949573122073,-4,-5,25,0,-5,-2,-4,-2
1514949573143087,1,-3,-7,12,-4,-1,-1,1
1514949573143087,-2,0,15,-2,0,-2,-3,-2
1514949573144091,0,11,-3,2,2,-3,0,4
1514949573144091,7,-2,-4,1,-3,1,3,-2
1514949573165101,8,17,22,7,8,2,0,8
1514949573165101,-9,-25,-32,-19,-3,-1,0,-8
1514949573167103,-6,-10,5,21,-8,-6,-9,-26
1514949573167103,-2,-17,6,-8,6,-2,0,35
1514949573180114,1,5,-17,0,-10,-5,-1,-10
1514949573180114,4,23,15,2,1,-4,0,-1
1514949573186116,-1,24,0,5,-4,4,2,20
1514949573186116,-9,-39,-6,2,1,-3,-5,-32
1514949573203128,7,54,-5,-3,2,2,1,-1
1514949573203128,4,-57,1,-3,-2,-1,-1,3
1514949573206138,4,-2,5,5,-7,-3,1,-1
1514949573206138,-5,17,-1,0,6,3,-2,-14
1514949573225146,-11,-11,3,21,-2,-7,-4,7
1514949573225146,7,51,3,-35,-1,2,0,-8
1514949573231148,-3,-14,1,8,6,3,-2,5
1514949573231148,-5,1,-10,-10,2,4,2,-6
1514949573240158,-1,19,-3,-1,-1,-3,-2,0
1514949573240158,-10,1,7,25,2,-4,-4,-5
1514949573246159,-5,-2,-12,4,3,0,1,1
1514949573246159,12,-1,-11,-18,-3,-1,1,6
1514949573262179,-3,23,13,5,-14,-4,-2,-12
1514949573262179,-8,-16,-22,5,10,2,2,4
1514949573271178,3,1,-10,-31,-7,-2,-3,7
1514949573271178,5,0,8,3,-4,-5,0,-5
1514949573286186,-14,-4,2,2,9,4,0,1
1514949573286186,7,10,4,-2,-13,-4,-3,-1
1514949573288190,-4,-5,-8,19,13,-1,0,-3
1514949573288190,6,4,13,-1,0,3,-3,1
1514949573299195,-4,-19,-5,-22,0,1,1,-4
1514949573299195,0,27,6,14,-1,-1,-2,0
1514949573307202,-3,24,1,0,-5,-3,1,-7
1514949573307202,3,1,-1,-9,-3,-5,-3,5
1514949573323212,2,-40,2,-7,4,4,-1,7
1514949573323212,-4,-1,6,5,0,-3,-5,-5
1514949573324213,6,8,-5,-16,-9,-3,2,3
1514949573324213,0,-8,-4,22,3,2,1,4
1514949573345228,4,12,13,-1,-3,-2,-1,-7
1514949573345228,-8,-33,-27,-11,-3,0,2,6
1514949573347230,8,1,5,-14,-2,-6,-2,1
1514949573347230,-7,-6,15,7,-17,3,-2,-2
1514949573359238,-3,-20,-50,-16,0,-4,-4,-10
1514949573359238,10,15,20,8,4,-1,-1,6
1514949573366243,-8,19,-6,15,3,2,2,-2
1514949573366243,-7,-12,11,13,-1,-3,2,-7
1514949573383255,11,-4,4,-33,-12,-5,0,13
1514949573383255,-5,-34,2,25,2,-1,-4,-2
1514949573384256,3,5,-26,-42,-7,-2,2,8
1514949573384256,0,16,14,6,7,2,-1,-12
1514949573405289,-12,2,-7,7,-1,1,-2,-2
1514949573405289,2,-25,-18,17,-1,-4,2,0
1514949573407282,4,-3,9,4,-6,0,-2,2
1514949573407282,-19,-21,-12,-37,-1,-3,-3,-22
1514949573419281,8,22,7,14,3,3,2,4
1514949573419281,5,5,4,-14,-7,-2,1,-4
1514949573426298,-9,17,10,14,6,3,-2,-7
1514949573426298,-3,-35,-16,8,-3,-1,-1,2
1514949573443307,1,-1,6,0,-5,-4,-6,-1
1514949573443307,-2,12,3,-13,-1,2,1,3
1514949573444298,8,1,11,0,-3,0,-2,1
1514949573444298,7,12,11,-1,4,1,-1,9
1514949573465314,-14,-55,-47,2,0,0,1,-12
1514949573465314,0,26,13,-13,-6,-1,-1,2
1514949573467338,0,-20,-6,19,6,0,1,8
1514949573467338,-3,-7,-4,-38,-7,-2,-1,-11
1514949573480329,3,19,33,18,7,1,-2,-2
1514949573480329,-9,9,-14,-5,-5,-4,-1,4
1514949573489330,-4,-21,-7,7,10,2,-1,-8
1514949573489330,3,-17,-19,6,-2,-3,1,12
1514949573502351,-6,-33,15,-8,-3,-4,-1,-13
1514949573502351,4,27,8,0,3,0,-3,-6
1514949573504342,-8,-12,-7,5,-13,-5,-2,-11
1514949573504342,5,25,-12,-9,0,-2,-1,9
1514949573525356,5,16,-4,1,2,3,-1,4
1514949573525356,6,6,14,-1,6,-2,-1,-4
1514949573527368,-7,2,-5,6,-4,-4,-3,-1
1514949573527368,-2,5,12,13,-8,-3,-1,-3
1514949573539378,0,22,-9,10,2,-1,1,-3
1514949573539378,1,0,1,-30,-3,3,2,3
1514949573555376,-7,-38,1,-13,-1,-2,-1,4
1514949573555376,-4,11,0,3,5,1,-2,-5
1514949573562382,4,10,6,10,-2,-4,-4,8
1514949573562382,-15,-28,-24,15,-1,-2,-1,-12
1514949573564382,17,38,6,-24,-2,0,0,3
1514949573564382,-11,-11,-4,4,1,-1,-1,-2
1514949573586399,3,17,16,0,-4,-2,0,4
1514949573586399,1,-29,-11,-5,0,1,1,0
1514949573588401,-12,-29,-1,3,-4,-2,-3,-6
1514949573588401,6,36,8,8,-3,-5,-3,5
1514949573599420,-3,-8,-3,-8,6,-3,-2,-3
1514949573599420,4,30,5,-10,-10,3,1,3
1514949573608437,0,-4,13,13,7,4,1,-1
1514949573608437,-10,-10,-12,9,-5,-10,-6,-6
1514949573622424,5,22,-12,-32,-6,1,0,-1
1514949573622424,-3,2,-3,-12,-2,-5,-3,14
1514949573624425,-14,-8,2,-3,-2,-1,-2,-17
1514949573624425,5,-10,4,11,1,1,1,0
1514949573645440,0,-1,4,9,2,0,0,2
1514949573645440,7,-9,8,11,1,-2,0,-4
1514949573646441,-8,16,-5,20,-5,-6,-3,-3
1514949573646441,5,18,-20,-54,-6,7,2,17
1514949573658461,-5,-3,9,9,10,2,-1,-2
1514949573658461,-8,-27,-6,6,2,1,-1,-10
1514949573667468,-1,7,0,2,-1,-1,-1,-4
1514949573667468,4,18,15,20,6,3,3,5
1514949573683482,-6,-30,-22,-15,-15,-4,-2,-3
1514949573683482,-12,29,2,-6,-1,-4,-2,0
1514949573686479,12,-8,8,6,6,2,1,9
1514949573686479,0,-5,-20,-9,-8,-2,-3,5
1514949573705484,-5,-13,7,9,-2,-1,0,-12
1514949573705484,5,10,7,17,3,-2,-2,0
1514949573707486,-6,-38,-11,-38,-14,-9,-3,-5
1514949573707486,-5,-19,0,0,5,2,0,-1
1514949573718501,-1,10,12,16,-3,-2,0,-1
1514949573718501,-2,-44,-14,-18,3,-3,-2,0
1514949573728514,8,20,8,0,-10,-3,-4,0
1514949573728514,1,13,6,15,16,0,0,-6
1514949573742521,-7,-33,-9,-16,0,-1,-1,0
1514949573742521,5,27,4,17,-1,3,-2,-5
1514949573744511,4,-9,-4,-7,3,2,4,-1
1514949573744511,-2,-7,8,4,0,-3,-2,5
1514949573765528,-3,22,-1,-14,-8,2,0,-15
1514949573765528,3,0,-2,-2,0,-3,0,2
1514949573766541,1,-13,-6,2,1,4,3,6
1514949573766541,-7,-7,4,8,-6,-2,-2,-8
1514949573779535,14,26,14,10,4,-2,0,10
1514949573779535,1,-2,-8,-9,-2,1,-1,-4
1514949573789542,4,37,3,9,-4,-1,0,0
1514949573789542,-9,-11,-16,-31,9,0,-4,-10
1514949573802607,5,17,4,7,-11,-3,-3,5
1514949573802607,-11,-43,2,-2,13,1,-1,-3
1514949573804552,8,40,15,12,9,5,0,5
1514949573804552,3,20,0,10,-8,-3,0,2
1514949573825585,-6,-46,-15,-21,0,0,-1,-11
1514949573825585,0,24,5,2,-4,-1,-2,-3
1514949573827570,-4,-29,-7,-5,-2,-2,-1,4
1514949573827570,-5,-11,8,19,-4,0,-1,-8
1514949573838577,1,-3,0,-4,-1,-2,-1,3
1514949573838577,-5,15,-19,-17,-13,-6,-5,-8
1514949573847601,-1,0,1,5,4,2,-1,-3
1514949573847601,-5,-21,-4,-8,2,-2,1,3
1514949573862606,6,42,-4,4,1,-2,0,8
1514949573862606,-15,-78,12,25,-7,-4,-2,-15
1514949573864612,4,30,-4,-4,-12,-1,0,1
1514949573864612,-4,-6,8,11,5,2,-1,-6
1514949573885612,-10,-21,-34,-49,-4,-4,-2,5
1514949573885612,9,35,-9,-2,-8,-3,1,0
1514949573886614,-15,-40,7,14,5,2,1,-1
1514949573886614,6,0,8,-16,-5,-1,-2,-5
1514949573898629,2,6,3,26,-2,-3,-1,-5
1514949573898629,1,34,4,-3,3,1,-2,9
1514949573907636,-2,-12,-2,-5,-4,-3,-3,-4
1514949573907636,5,16,1,0,0,-1,0,1
1514949573922636,-5,-4,7,13,5,2,-3,2
1514949573922636,2,27,-9,-24,-8,-1,0,-6
1514949573924647,2,-35,11,-1,3,-1,1,4
1514949573924647,-12,1,-18,-3,-10,-4,-2,-29
1514949573945662,-6,-21,-5,-24,-5,-3,-5,2
1514949573945662,-2,6,5,26,-1,-2,-4,1
1514949573949665,1,18,-6,-26,-15,-1,-2,-4
1514949573949665,8,-5,7,14,13,3,2,10
1514949573967683,-1,-8,-23,-9,-8,-4,-2,3
1514949573967683,-6,14,29,9,7,3,4,-10
1514949573969679,-1,-4,-22,-23,11,5,-2,4
1514949573969679,5,11,-11,-7,-11,-7,-5,1
1514949573990684,-6,6,14,40,3,1,-1,-24
1514949573990684,21,25,-1,-62,-6,-3,0,13
1514949573991691,-5,-42,12,28,1,-1,2,-2
1514949573991691,-8,-20,-21,9,2,-2,-2,-6
1514949574005696,-4,-15,-1,-16,-3,-2,2,4
1514949574005696,-1,15,-2,3,0,-2,-1,1
1514949574006713,4,-2,-5,-14,-2,-3,2,-1
1514949574006713,-7,14,0,-1,-6,3,-1,-4
1514949574027725,-5,-35,-6,-4,-8,-5,-2,1
1514949574027725,2,0,-8,-10,11,2,0,7
1514949574031713,-9,6,2,13,2,-3,-4,-25
1514949574031713,-3,-29,7,0,10,2,1,10
1514949574042721,1,28,3,21,-1,1,-2,-1
1514949574042721,-2,-23,-1,-10,-6,-1,3,-1
1514949574044726,-3,-2,4,5,1,-3,-3,0
1514949574044726,0,1,3,15,-5,-5,-1,6
1514949574065757,2,-10,-20,-36,-1,-1,0,-1
1514949574065757,-13,-14,-12,21,11,-1,-1,-3
1514949574066754,3,-12,-4,6,-1,1,1,7
1514949574066754,-1,20,4,-8,-6,-1,-3,-5
1514949574087754,-5,-70,0,0,5,1,0,-2
1514949574087754,7,19,5,20,-10,-3,-5,3
1514949574089755,3,10,-42,-26,8,0,-3,-10
1514949574089755,1,13,16,-10,-7,-3,0,7
1514949574101801,8,9,14,20,12,1,0,4
1514949574101801,-1,3,-7,10,-5,-2,-4,-5
1514949574108768,-4,-20,-13,-60,-7,-7,-3,-2
1514949574108768,5,-1,2,18,0,3,3,6
1514949574125781,-3,4,2,-22,-3,-3,-3,-6
1514949574125781,-7,-12,-15,-8,-6,-3,-1,-3
1514949574127801,6,8,15,26,-8,-7,-1,11
1514949574127801,-4,-3,-2,-9,1,3,-2,-4
1514949574147806,-6,-11,0,0,-6,-1,-1,0
1514949574147806,-4,-20,-9,6,1,-1,1,1
1514949574149797,-3,17,-3,-7,-4,-3,-3,-4
1514949574149797,-11,-13,-8,1,-4,-3,-3,-17
1514949574161819,7,26,12,30,4,3,1,9
1514949574161819,-11,-1,-1,-38,2,-1,-3,-11
1514949574168831,1,12,2,25,1,2,-1,2
1514949574168831,6,4,-13,-21,-5,-2,0,6
1514949574185822,-10,-35,-7,3,-1,-1,0,-4
1514949574185822,10,3,24,1,5,0,1,7
1514949574186824,-5,-20,8,16,6,1,-1,-1
1514949574186824,-6,29,-8,9,4,-2,-1,10
1514949574208854,-6,-19,-15,-28,-4,-1,0,-25
1514949574208854,0,2,9,24,-2,1,0,5
1514949574212856,-3,0,7,3,1,-3,0,-2
1514949574212856,14,12,2,2,3,1,1,5
1514949574221860,2,34,21,23,1,-1,0,4
1514949574221860,-10,-49,-21,-8,1,-5,1,-4
1514949574228863,3,27,8,2,-9,-1,-2,1
1514949574228863,6,-17,-5,-35,-3,-1,0,-2
1514949574245865,3,41,4,5,-4,-2,-1,5
1514949574245865,4,17,6,16,8,1,-1,-1
1514949574246877,-8,-50,-13,-18,-2,-1,0,-2
1514949574246877,4,21,5,8,-11,-3,-2,4
1514949574267880,11,3,3,-2,-2,-1,-1,10
1514949574267880,-1,30,-7,-14,4,3,0,0
1514949574270883,2,0,-5,12,-3,2,3,0
1514949574270883,-6,-34,1,-2,-2,-4,-2,-4
1514949574282891,-6,5,-1,6,-8,0,-3,-3
1514949574282891,3,-9,-2,-12,-7,-4,-3,2
1514949574289896,4,32,5,-3,-1,3,-2,-3
1514949574289896,-6,-25,1,-4,-1,0,-3,7
1514949574304925,-1,13,-10,4,1,-1,-1,-8
1514949574304925,-8,-23,-4,-12,1,1,0,-2
1514949574306908,3,13,2,-7,5,-1,0,0
1514949574306908,10,-1,1,9,1,0,2,4
1514949574327937,-20,-10,-2,10,3,-3,-1,-12
1514949574327937,0,11,-2,-12,-12,-3,-1,-4
1514949574330925,-2,15,5,0,-3,-1,-2,-2
1514949574330925,-5,-4,-6,3,1,-4,-4,-2
1514949574341932,7,7,0,8,5,0,-1,8
1514949574341932,3,-12,-1,-23,-10,-2,0,-1
1514949574348950,-10,16,1,21,10,0,1,-1
1514949574348950,4,5,7,4,-2,1,2,-1
1514949574364959,-1,-25,-3,-17,-2,-3,-1,-12
1514949574364959,3,5,5,21,4,1,-2,1
1514949574367952,-1,-5,-6,-11,-8,-3,-3,8
1514949574367952,0,11,9,14,6,0,-1,-7
1514949574387967,2,-11,-4,-7,0,-1,-1,11
1514949574387967,3,1,0,-3,0,-1,0,-2
1514949574389966,-13,18,-19,-17,-11,-1,0,-8
1514949574389966,1,-9,-3,-14,-6,-2,0,-8
1514949574401987,-9,-15,8,20,8,1,-2,3
1514949574401987,0,-12,-8,-8,-2,0,0,5
1514949574408980,-5,10,11,19,-2,-4,-3,-27
1514949574408980,1,-17,2,-17,6,5,3,-3
1514949574424992,-8,10,-4,-5,-4,-2,-2,1
1514949574424992,-5,-14,0,17,-2,-2,-2,-9
1514949574426993,8,5,7,-7,-8,1,1,11
1514949574426993,-5,-1,-8,2,6,-6,-3,-8
1514949574448019,8,10,-16,-13,1,2,-2,-6
1514949574448019,-2,-21,11,18,7,-2,-1,15
1514949574449025,4,10,7,24,-1,-4,-3,2
1514949574449025,-5,-5,-4,-48,-15,-5,-2,-11
1514949574461029,4,9,-4,0,0,-2,-1,17
1514949574461029,-4,28,-30,-2,-4,-4,-1,-15
1514949574471048,2,-16,-3,8,1,0,1,8
1514949574471048,-11,-21,-6,10,0,2,-2,-15
1514949574485035,4,9,7,-17,1,-2,-2,5
1514949574485035,2,36,8,11,3,0,-1,-1
1514949574489036,-10,-69,-15,-25,-12,-5,-2,-4
1514949574489036,4,13,-1,15,10,0,-4,6
1514949574508050,0,8,6,14,5,3,1,0
1514949574508050,-1,-7,0,21,2,-1,0,-4
1514949574509050,6,-7,-18,-73,-12,-4,-1,7
1514949574509050,-7,-7,-5,-4,-9,-2,-3,-9
1514949574521074,4,1,11,12,3,4,4,4
1514949574521074,-1,17,7,-3,-8,-3,-5,-5
1514949574533068,-6,3,-7,17,6,1,0,9
1514949574533068,-2,-16,-2,3,-4,0,1,2
1514949574545077,5,12,2,1,-4,-1,0,-1
1514949574545077,-12,-35,-4,-14,-3,-2,-1,-2
1514949574547090,7,35,3,15,-1,-2,-5,-6
1514949574547090,0,9,5,-2,-14,0,1,4
1514949574568147,-3,-17,-5,-4,15,4,3,-5
1514949574568147,5,-4,-5,3,-4,3,1,12
1514949574569100,-11,-13,4,-7,11,-1,-3,-22
1514949574569100,-6,3,-1,12,-2,-4,-1,-5
1514949574582102,-8,-21,-5,-3,-9,-6,-3,0
1514949574582102,9,15,8,-7,-7,0,1,4
1514949574590107,-1,20,-3,14,-1,2,1,-1
1514949574590107,0,4,-8,-9,2,-1,-1,8
1514949574605120,-2,-9,2,-5,-4,-2,-3,-10
1514949574605120,0,2,-2,1,4,0,0,4
1514949574607120,6,-17,6,-12,1,1,1,10
1514949574607120,-2,20,1,-14,4,0,0,-5
1514949574628173,-4,6,9,9,-2,-2,-1,-1
1514949574628173,-1,-11,8,6,-3,-2,-2,-8
1514949574630146,-2,11,1,2,8,-1,0,7
1514949574630146,2,-21,5,4,-2,1,0,5
1514949574641144,3,15,10,6,-15,-4,-4,3
1514949574641144,-7,-24,-18,-24,-1,0,2,-10
1514949574650150,-7,-9,-12,-10,2,-2,-3,-12
1514949574650150,5,-3,7,12,4,1,2,5
1514949574665161,2,15,1,-2,-4,0,0,5
1514949574665161,-4,-12,-13,15,-1,-1,-1,-2
1514949574668186,11,12,31,14,-2,-1,-2,1
1514949574668186,2,-4,-9,-4,2,-2,-2,-3
1514949574688177,2,2,-9,-8,-5,1,0,2
1514949574688177,-1,30,10,-6,2,0,-1,0
1514949574689178,-8,-19,-17,-10,6,0,-1,-14
1514949574689178,-3,7,7,8,-8,-3,-3,0
1514949574701186,5,2,-11,7,2,-1,0,-4
1514949574701186,-5,-19,4,-24,-1,1,-2,-1
1514949574710193,8,2,-4,11,-7,-2,1,12
1514949574710193,-12,8,3,-9,-1,-2,1,-23
1514949574725215,-6,-1,-2,8,12,0,1,0
1514949574725215,5,-5,-8,-21,-7,-1,-3,24
1514949574727205,-9,-9,4,-1,-2,0,4,-16
1514949574727205,-9,-9,-3,14,3,2,-1,-1
1514949574748231,11,22,4,-20,-6,-4,-2,0
1514949574748231,-15,-20,-4,-10,1,-1,-1,-23
1514949574749222,12,-7,14,10,1,2,0,14
1514949574749222,4,17,-18,-1,-5,-5,-1,14
1514949574761242,-17,-12,5,-12,-3,-3,-2,-27
1514949574761242,5,-9,7,55,3,-1,0,8
1514949574770235,3,-1,-27,-41,-18,-3,-1,3
1514949574770235,-5,-6,0,26,4,0,-5,-13
1514949574785247,2,-6,12,-31,-11,-2,-2,9
1514949574785247,6,3,-2,16,8,-2,-1,0
1514949574788251,-12,-10,3,8,-2,-2,0,-18
1514949574788251,4,3,-3,-2,0,0,-1,18
1514949574808277,0,-9,-14,-10,-2,-3,-2,-5
1514949574808277,0,-1,7,-10,-9,-3,-1,9
1514949574809263,10,13,10,19,4,2,-2,-5
1514949574809263,-4,-29,-11,-8,-1,-2,0,-4
1514949574821282,-8,8,-4,-5,4,6,0,6
1514949574821282,28,20,-5,-10,0,-2,2,-4
1514949574830277,-13,-33,-5,-32,-6,-5,-5,-7
1514949574830277,10,12,5,2,-2,-1,1,23
1514949574845289,-18,-12,4,20,-3,-3,-3,-25
1514949574845289,-7,1,-2,10,6,0,-2,-9
1514949574848290,8,-3,-3,9,3,3,-2,15
1514949574848290,-4,-2,11,-14,-5,-4,0,-3
1514949574867304,1,-1,-6,-9,-4,-2,-2,0
1514949574867304,3,16,0,7,3,-1,-1,-2
1514949574869317,1,11,4,-8,-5,-1,2,-4
1514949574869317,2,-7,2,2,-1,-3,-4,3
1514949574890330,-17,-13,-8,18,6,-2,0,6
1514949574890330,-11,-9,-6,-30,-13,-5,-4,-27
1514949574892321,5,11,10,33,8,0,1,6
1514949574892321,2,1,-14,-47,-6,-3,-3,5
1514949574905340,7,14,-1,23,-3,0,0,-14
1514949574905340,-1,-17,3,-1,1,0,-2,15
1514949574907342,-8,11,-5,-7,-2,-5,-3,-10
1514949574907342,8,9,-5,-6,-1,-2,0,2
1514949574929357,7,2,-3,-26,-6,1,1,-10
1514949574929357,-5,15,6,42,7,-3,-1,2
1514949574933351,1,-14,-3,-38,-1,1,1,3
1514949574933351,8,0,1,20,0,-2,-2,15
1514949574950374,-11,-27,-4,3,-7,-1,-3,-14
1514949574950374,0,36,4,2,9,-1,1,-2
1514949574952383,2,-19,3,31,2,1,2,5
1514949574952383,2,12,9,12,-1,-1,0,3
1514949574965385,0,3,-13,-59,-6,-3,-1,7
1514949574965385,8,-9,5,27,-3,2,1,13
1514949574967394,-6,6,-6,-18,-4,-5,-4,-10
1514949574967394,-7,-1,-4,-20,-2,1,1,-12
1514949574988412,3,7,8,19,5,-4,0,3
1514949574988412,-5,-27,-10,-6,-3,0,-1,2
1514949574992393,4,22,3,20,0,2,-1,4
1514949574992393,-12,-36,-6,3,-2,0,1,-21
1514949575010405,12,2,-11,-8,-4,-4,-3,22
1514949575010405,2,10,0,-16,2,-3,-1,-2
1514949575012406,-5,-2,4,12,-1,3,3,3
1514949575012406,0,16,3,-6,-2,-1,-3,-19
1514949575025416,-3,-29,-25,11,4,-3,-2,8
1514949575025416,-14,-6,12,-2,0,-2,-1,-13
1514949575027426,1,-6,-2,26,1,-2,-2,0
1514949575027426,-4,8,-6,-50,-11,-7,-2,0
1514949575047443,11,4,-1,4,8,0,-5,9
1514949575047443,-32,-12,-1,-3,-22,3,1,-10
1514949575049444,1,-19,4,6,16,1,-1,-8
1514949575049444,-1,11,18,23,4,-1,-1,11
1514949575070447,-7,-5,5,29,0,-2,-3,0
1514949575070447,8,12,-21,-90,-12,-2,-1,-1
1514949575071451,-4,15,4,-4,-2,1,-1,2
1514949575071451,-2,2,-1,5,-4,0,-1,2
1514949575085458,-5,-3,10,11,2,0,-1,-11
1514949575085458,5,-6,-1,-5,4,2,-1,2
1514949575091462,-5,12,4,17,-3,-3,-2,2
1514949575091462,6,-6,-10,-35,-1,-3,0,-6
1514949575107474,-4,15,-12,-9,-6,0,1,5
1514949575107474,-1,-12,13,4,0,1,1,-6
1514949575109476,1,11,-4,-5,-5,-4,-3,-18
1514949575109476,-1,-17,-27,29,7,1,-2,-7
1514949575131500,-3,-21,4,-14,-5,-1,3,11
1514949575131500,5,-6,2,12,5,-3,-2,6
1514949575134492,-12,-4,-11,-33,-11,-4,-2,-9
1514949575134492,13,5,7,42,2,0,-2,15
1514949575144499,-18,26,-3,-61,-4,0,1,-23
1514949575144499,1,-10,3,32,-4,-3,-3,-2
1514949575151516,12,-7,-11,10,10,5,2,13
1514949575151516,-12,3,-2,-20,-5,-4,-4,-5
1514949575166527,4,-9,4,11,2,-2,-3,15
1514949575166527,-9,-2,5,17,-1,-4,-1,-19
1514949575175525,2,19,-10,-33,-9,1,1,2
1514949575175525,-3,-16,1,1,6,2,1,-7
1514949575190541,4,23,12,20,2,0,2,4
1514949575190541,10,-13,-10,-10,-5,-2,0,5
1514949575191536,-4,-1,6,20,1,-2,-2,-7
1514949575191536,-11,5,2,-16,0,-2,-4,-17
1514949575204544,9,-8,-1,2,-9,-2,-4,-1
1514949575204544,-7,1,-6,7,3,0,-4,0
1514949575211547,-10,-56,0,-16,-10,-7,-4,2
1514949575211547,4,20,-4,11,0,1,-2,-5
1514949575227559,-5,10,-5,17,0,-2,1,2
1514949575227559,-2,-7,-9,-28,7,2,2,0
1514949575229572,-1,5,8,34,8,1,0,8
1514949575229572,0,-4,-20,-57,-13,-5,-1,3
1514949575250584,12,-3,20,20,3,0,-5,11
1514949575250584,-10,8,-8,33,5,-3,-1,-4
1514949575251575,-10,-7,10,-17,-8,-3,-2,-16
1514949575251575,1,-3,3,9,-6,1,4,6
1514949575264597,7,5,8,11,12,1,-1,5
1514949575264597,8,-3,4,-13,-10,-1,0,7
1514949575271607,-1,7,4,5,7,1,0,-6
1514949575271607,0,-10,8,27,2,1,1,10
1514949575287616,0,14,-17,-17,-2,-3,-2,-13
1514949575287616,-5,-26,7,28,-1,-2,1,2
1514949575289602,-4,-23,-4,-5,-7,-1,-3,-1
1514949575289602,4,6,-12,-6,7,-2,-1,-5
1514949575310617,-6,-17,-4,-22,-9,-5,-4,8
1514949575310617,-3,20,-19,-12,1,-3,-1,-6
1514949575311617,3,-4,8,8,3,1,2,10
1514949575311617,-4,2,6,21,-1,1,0,-3
1514949575324627,-7,-17,-5,-8,-3,-1,0,-31
1514949575324627,15,-3,4,-11,-4,-1,-3,28
1514949575331632,-14,10,-10,3,6,-2,-2,-23
1514949575331632,-7,2,-10,43,8,2,0,-2
1514949575349666,0,-9,-21,-84,-23,-8,-3,-2
1514949575349666,-7,-7,7,7,-1,1,0,-5
1514949575351645,8,-2,-8,-10,-2,-3,-3,2
1514949575351645,-3,5,11,13,5,-4,-3,1
1514949575370664,-4,-5,-3,21,-1,1,-1,-1
1514949575370664,-3,-26,-11,-17,0,-2,-1,-7
1514949575371661,-1,10,1,4,-4,0,1,3
1514949575371661,-8,-9,13,-2,-15,-6,-3,-2
1514949575384669,11,-5,-24,-5,5,0,-2,16
1514949575384669,-30,3,10,-11,1,-2,-4,-47
1514949575392675,6,15,-7,-6,5,1,0,22
1514949575392675,-3,-12,-2,-16,-7,-2,-1,-15
1514949575407685,-5,11,8,23,7,4,3,5
1514949575407685,9,7,0,17,-2,-2,-3,-14
1514949575409687,-1,-11,-5,7,-1,2,1,15
1514949575409687,-8,-20,-5,-38,-6,-1,-2,-7
1514949575430711,3,-42,-8,35,4,1,3,10
1514949575430711,-9,12,-15,-28,-16,-4,-1,0
1514949575434714,5,1,4,-3,-1,0,-3,-5
1514949575434714,-4,-12,2,-39,8,4,2,2
1514949575443711,-7,29,13,27,-1,-3,-3,-2
1514949575443711,8,-7,2,17,3,-2,0,14
1514949575452717,-3,1,-18,-10,-7,-3,0,-9
1514949575452717,7,9,7,25,13,3,-1,9
1514949575467729,-4,4,4,-23,-2,-2,-2,-8
1514949575467729,10,6,8,21,4,1,-1,6
1514949575469767,0,9,-10,-8,-9,-8,-1,0
1514949575469767,-1,-8,1,10,4,4,1,2
1514949575490745,-6,-3,2,-42,-5,-2,-2,-3
1514949575490745,1,-15,6,21,2,1,-1,8
1514949575491746,-3,-17,-3,13,-9,-2,-1,-1
1514949575491746,-3,10,5,12,-2,-2,1,6
1514949575503754,-8,12,-13,-1,-3,0,1,-18
1514949575503754,6,8,3,-40,3,-1,1,9
1514949575512764,-9,-3,2,16,3,0,-1,-4
1514949575512764,2,-2,-18,-11,-9,-2,-3,-3
1514949575527785,4,8,12,7,4,1,-3,-3
1514949575527785,7,-14,-5,2,0,1,3,17
1514949575531773,-5,42,7,6,4,0,0,-15
1514949575531773,-3,-16,-11,-26,2,-5,-4,-28
1514949575550786,4,-13,22,31,-4,1,-1,19
1514949575550786,3,3,-19,-16,4,1,1,8
1514949575551787,6,4,10,16,3,1,-2,2
1514949575551787,-4,1,-6,-15,-2,-3,0,4
1514949575563795,1,11,-2,25,-9,-3,-1,3
1514949575563795,-10,-5,-6,-37,1,0,-1,-14
1514949575572802,-6,-18,0,11,0,0,-3,-10
1514949575572802,7,-1,-1,-3,2,-3,-1,7
1514949575588813,1,1,-10,-4,2,0,1,-1
1514949575588813,3,-3,7,16,-4,-1,-3,-5
1514949575592817,0,-14,5,2,0,-2,0,6
1514949575592817,0,26,2,-4,-4,-1,-5,-5
1514949575609828,-5,-26,1,20,6,0,-1,-6
1514949575609828,3,10,-22,-22,-8,-2,0,-3
1514949575611831,1,1,12,-2,1,-1,0,6
1514949575611831,1,-3,1,21,-1,-2,0,-2
1514949575623839,5,15,-4,-17,-2,1,1,2
1514949575623839,-5,2,5,7,-3,-3,-1,-1
1514949575632845,-2,-10,-13,-22,-5,-3,-1,2
1514949575632845,-3,0,0,17,-1,1,-2,4
1514949575647855,-4,-1,-8,-31,-2,-2,-5,-8
1514949575647855,0,9,9,15,2,1,6,3
1514949575651871,7,-7,-13,-26,-3,-1,-1,-3
1514949575651871,1,5,5,12,-2,-4,-1,-1
1514949575670872,-7,-13,11,24,5,-1,-6,0
1514949575670872,-2,-5,-12,-26,-7,-3,-5,-11
1514949575672874,-3,1,19,11,1,-1,1,0
1514949575672874,2,3,2,15,1,-2,-6,1
1514949575684892,0,-7,-26,-25,-9,-2,19,-1
1514949575684892,-10,-4,7,12,1,-1,-17,-6
1514949575692887,2,7,-5,-15,-2,-1,-14,-7
1514949575692887,2,-4,3,0,0,0,5,2
1514949575707908,-1,5,12,51,3,0,1,-1
1514949575707908,-2,3,-6,-46,-4,-1,8,-1
1514949575709910,2,-5,-6,3,0,0,-4,2
1514949575709910,-4,-5,-4,-27,-6,-2,-2,-1
1514949575730914,0,3,3,5,0,-2,-9,-2
1514949575730914,0,2,3,15,0,-1,8,-2
1514949575734917,2,-4,-4,-9,-5,-2,-3,-1
1514949575734917,-5,0,-5,-4,-3,0,2,-1
1514949575743924,-1,6,0,-15,-2,-2,0,-4
1514949575743924,3,1,10,34,3,-2,-5,0
1514949575752930,-7,-6,-15,-56,-6,1,10,-3
1514949575752930,0,0,1,28,1,-3,-10,1
1514949575767950,-2,0,2,-9,-1,-1,-1,-3
1514949575767950,-1,-5,4,32,1,-1,-3,1
1514949575768960,-1,6,-2,-15,0,-2,-2,-1
1514949575768960,-3,-1,0,-7,0,2,1,0
1514949575789965,2,-3,6,7,1,-2,-8,0
1514949575789965,-3,2,-6,-9,-2,0,2,-1
1514949575791967,1,2,6,33,4,0,5,5
1514949575791967,-3,-6,-15,-26,-5,-1,-5,-5
1514949575803965,-2,4,11,19,2,-1,-1,-2
1514949575803965,0,1,-9,-15,2,0,1,0
1514949575812973,-2,-8,-11,-52,-10,-5,-3,-3
1514949575812973,-1,0,1,16,1,-1,-2,1
1514949575829999,0,0,-2,-2,4,3,1,-2
1514949575829999,-1,-2,5,13,-6,-4,-4,-3
1514949575834998,1,0,6,52,9,3,1,1
1514949575834998,-2,-7,-11,-37,-14,-4,-2,-1
1514949575850008,-4,-3,-7,4,-1,-1,1,-1
1514949575850008,1,0,3,8,-1,-1,-2,-1
1514949575852000,-3,-1,2,0,2,-1,2,0
1514949575852000,2,4,6,11,5,1,2,2
1514949575873014,-2,0,-8,-7,-4,-2,-3,-1
1514949575873014,0,-3,8,10,2,-3,0,-2
1514949575875025,1,0,8,27,4,0,-3,0
1514949575875025,-2,-4,-16,-37,-11,-3,6,-3
1514949575888026,-1,1,-2,-20,-3,-1,1,-3
1514949575888026,0,-1,-1,4,1,2,-9,2
1514949575890026,-2,-2,0,-2,-3,-4,0,-2
1514949575890026,3,5,13,22,9,1,-2,1
1514949575910050,-1,-1,5,-3,1,0,0,0
1514949575910050,-2,-2,-6,-9,-4,-2,1,-3
1514949575912043,-1,-2,4,21,0,0,-3,0
1514949575912043,-4,-3,-9,-40,-8,-2,1,-3
1514949575934058,2,3,11,-18,4,1,-1,1
1514949575934058,-4,-8,-8,19,-6,-3,2,-3
1514949575935058,-1,2,-16,-24,2,2,-2,0
1514949575935058,-7,-16,-30,-40,-30,-13,-5,-7
1514949575947079,2,-3,-11,0,6,0,-1,-3
1514949575947079,4,8,18,28,15,8,0,3
1514949575948067,-1,-7,2,-19,-11,-5,-1,-4
1514949575948067,1,7,14,24,13,3,1,1
1514949575969082,-1,-3,-1,-17,-6,-2,-4,0
1514949575969082,-4,-3,-2,-9,-2,-3,-1,-2
1514949575970083,-2,-1,-4,-26,-2,0,-3,-2
1514949575970083,-2,0,1,19,4,0,0,1
1514949575993109,-1,-1,-5,4,-4,0,4,-2
1514949575993109,-2,-3,-7,-47,-5,-4,-7,-1
1514949575994110,1,-1,-5,-3,-5,-1,0,1
1514949575994110,0,2,16,45,7,2,2,1
1514949576007121,-2,-1,-5,-7,-3,-1,-5,-2
1514949576007121,-2,-5,-14,-22,-7,-2,3,-3
1514949576008111,-1,-2,-1,2,-2,-2,0,-3
1514949576008111,0,3,14,22,5,1,-1,-1
1514949576029136,-1,-2,-4,3,-2,-2,2,-2
1514949576029136,-1,0,-8,-36,-2,-1,-1,2
1514949576030125,2,-1,12,41,0,-2,-2,-3
1514949576030125,-2,-2,-19,-17,-3,-1,-1,-1
1514949576052156,0,3,10,11,4,1,-2,2
1514949576052156,0,-2,1,-7,-3,-2,-2,-2
1514949576053158,-1,-4,-10,-7,0,-3,2,-2
1514949576053158,1,2,7,14,-2,0,-3,2
1514949576067151,-1,1,7,-5,6,2,1,0
1514949576067151,-4,-5,-10,5,-6,-6,-4,-2
1514949576068153,0,-2,-2,0,0,0,2,-1
1514949576068153,1,0,3,3,3,0,-2,0
1514949576091186,1,-1,1,-1,-4,-2,-4,0
1514949576091186,-3,-3,-16,-9,-4,-2,1,-2
1514949576092179,-1,-1,-3,-3,-2,1,-1,-1
1514949576092179,1,1,2,-11,2,0,-1,0
1514949576112195,-2,-2,-3,18,-5,-3,-1,-3
1514949576112195,0,0,5,-8,1,0,-2,-3
1514949576113196,-3,-1,-5,-28,-2,-2,-2,1
1514949576113196,1,1,5,19,8,3,0,1
1514949576127203,-3,-7,-17,6,-12,-6,-1,-1
1514949576127203,1,0,7,5,4,1,1,-1
1514949576128204,0,0,3,19,1,-2,-2,-1
1514949576128204,-1,0,-1,-3,1,1,-1,-1
1514949576149222,-1,1,3,-10,1,1,0,-1
1514949576149222,0,-1,0,15,-3,-2,0,-1
1514949576150210,-2,-3,-4,0,-4,-1,0,0
1514949576150210,-2,1,3,-5,4,0,0,0
1514949576181232,0,-1,0,5,-2,-2,-2,-1
1514949576181232,-1,-1,3,9,-1,1,1,0
1514949576183234,1,1,-1,-5,0,-1,-1,-2
1514949576183234,-1,-1,-4,-3,-4,-3,0,-2
1514949576188239,-4,0,-3,-4,-2,-3,-3,-2
1514949576188239,0,2,5,1,5,1,-1,-1
1514949576189253,-1,-1,-2,-5,-2,1,2,-1
1514949576189253,0,-3,-2,-5,-5,-3,-1,-2
1514949576209261,-2,-1,-4,-8,1,1,1,0
1514949576209261,0,-1,3,1,2,1,-1,-2
1514949576210253,2,4,9,9,2,0,-2,0
1514949576210253,0,-2,-3,4,-3,-3,-2,-4
1514949576232268,-3,0,-1,-2,-1,-2,-2,0
1514949576232268,0,-1,6,20,1,-2,-1,-1
1514949576233269,-2,-5,-8,-10,-2,-2,-1,-3
1514949576233269,-2,-2,-5,-11,0,-1,-2,-1
1514949576247291,0,-4,-3,-20,-2,-2,1,-2
1514949576247291,-2,-2,3,11,-1,-3,1,-1
1514949576247291,-1,-2,1,0,0,-2,0,-3
1514949576247291,-1,-2,-2,5,-2,-2,0,-2
1514949576269306,0,2,4,14,1,-1,-2,0
1514949576269306,-1,-3,-7,-9,-3,-3,-2,-4
1514949576270295,-2,-3,-5,-6,-4,-1,-1,0
1514949576270295,0,1,0,4,2,0,0,1
1514949576292322,-2,-2,-1,-5,-1,0,-2,0
1514949576292322,1,-2,5,12,1,-1,-1,-3
1514949576293321,-3,-1,-7,-8,0,-1,-1,-2
1514949576293321,-2,2,1,-5,-1,0,-3,3
1514949576307331,0,-1,4,11,4,1,1,-1
1514949576307331,-3,-8,-11,-29,-9,-3,0,-4
1514949576308323,-1,-1,-1,6,0,-2,-1,-2
1514949576308323,-2,-2,-6,-15,-1,-1,-1,1
1514949576330338,3,-1,4,12,0,0,-1,1
1514949576330338,2,5,18,-14,3,2,0,1
1514949576332348,-5,-8,-28,-17,-9,-6,-2,-5
1514949576332348,-2,0,0,0,-1,0,-1,-1
1514949576352376,0,-2,-10,-13,-3,-2,0,0
1514949576352376,-1,1,1,10,1,1,1,2
1514949576352376,0,0,5,1,0,1,-2,0
1514949576352376,0,0,0,0,-2,-1,-2,-1
1514949576366375,0,-3,-4,-1,-4,-4,0,-1
1514949576366375,-2,-2,-7,-3,-1,-2,-1,-1
1514949576374427,0,-1,6,3,1,3,-2,1
1514949576374427,-3,0,-2,5,-1,-1,-2,-4
1514949576389428,-1,2,-1,-8,-2,-2,-2,0
1514949576389428,1,0,-4,4,-1,0,-1,1
1514949576390427,1,-1,2,0,0,1,-2,2
1514949576390427,-1,-1,3,4,0,-1,-2,-1
1514949576412454,-3,0,-3,-8,-1,-1,0,-3
1514949576412454,-1,3,6,43,6,2,0,3
1514949576412454,-3,-5,-2,-38,-7,-2,0,-3
1514949576412454,-2,0,-1,14,0,-2,0,-1
1514949576426464,-4,-1,-5,-12,0,0,0,-2
1514949576426464,-2,2,2,18,1,-1,-2,-1
1514949576434459,0,2,7,15,4,1,0,2
1514949576434459,0,-2,-2,-11,-2,0,-3,1
1514949576450481,-2,-2,1,3,-1,0,-2,-1
1514949576450481,0,-2,-6,-11,-5,-3,-3,-3
1514949576451479,0,-2,-4,2,-1,-3,-2,-3
1514949576451479,-1,-1,-5,-11,-3,-1,1,-1
1514949576472484,1,-4,-11,-2,-1,0,-1,0
1514949576472484,-2,0,4,-6,-1,-1,1,-3
1514949576472484,-2,-1,-7,-3,-1,-4,-3,-1
1514949576472484,-3,-1,2,12,1,-1,0,0
1514949576486494,-1,-1,1,-6,-3,-1,0,-1
1514949576486494,0,-3,-6,-12,-1,0,-1,0
1514949576495500,1,0,4,11,0,-1,-1,0
1514949576495500,1,-1,-3,-2,-1,1,-1,-1
1514949576509510,-2,-1,0,-5,-4,-2,-5,-1
1514949576509510,-3,-1,-6,-9,-5,-1,-1,1
1514949576510511,0,-1,2,10,0,1,0,0
1514949576510511,-2,1,-3,-4,-3,-2,-2,0
1514949576532527,1,-1,1,-3,-1,-2,2,-2
1514949576532527,0,-4,-4,1,-2,0,-2,-3
1514949576532527,-1,-1,2,5,1,0,1,0
1514949576532527,-2,-1,0,-3,0,0,-1,1
1514949576546549,-1,-2,-2,0,0,-1,-1,-2
1514949576546549,-2,-1,-4,-6,-3,-2,-2,0
1514949576554557,1,1,1,0,0,-1,0,0
1514949576554557,0,-3,1,-1,-1,-2,-2,-1
1514949576569565,-2,0,-3,0,0,-1,-1,1
1514949576569565,1,-1,-3,-5,-2,1,-1,-3
1514949576570566,-1,1,2,-3,0,0,-1,-3
1514949576570566,-2,-3,-5,3,-2,-2,-1,-3
1514949576591569,0,-1,0,-2,0,-1,0,-2
1514949576591569,-1,-3,-3,-2,-2,-2,-2,1
1514949576599573,-1,2,2,0,-1,-1,-2,-1
1514949576599573,0,1,2,-4,0,-2,2,-1
1514949576606579,-1,-2,-2,-1,0,-2,0,0
1514949576606579,0,-4,-3,-3,-1,-1,0,-2
1514949576614585,-1,0,2,2,-1,-2,0,-2
1514949576614585,-1,-1,-2,-4,-1,-1,-3,-1
1514949576629595,-1,-1,0,-1,-2,0,0,-1
1514949576629595,0,-1,-1,-2,-2,-3,1,1
1514949576630600,-2,-5,-2,1,-1,-1,-1,0
1514949576630600,-3,-1,0,-2,-2,0,-1,-2
1514949576651611,0,1,-1,-2,-1,-1,-2,0
1514949576651611,0,-2,-1,-4,-1,-2,0,-3
1514949576652633,-2,-2,0,-1,-2,-1,-2,-1
1514949576652633,0,-1,-3,0,0,-1,-2,0
1514949576674627,0,-1,-1,-2,-1,0,-1,-2
1514949576674627,-1,-1,-2,-2,-2,-1,-3,-3
1514949576681647,1,-3,-1,-1,-2,-1,-1,-2
1514949576681647,-2,1,-1,0,-2,0,0,-1
1514949576689656,-1,-2,1,0,1,0,-2,-1
1514949576689656,-3,0,-1,0,-1,-1,0,-2
1514949576690640,-2,-1,0,0,0,-1,-1,0
1514949576690640,1,1,-2,-3,0,-1,-1,0
1514949576720659,-1,-2,-2,-2,-1,-3,-2,-1
1514949576720659,0,-2,0,-1,0,-1,1,-1
1514949576720659,-2,-3,0,0,-1,1,-2,-1
1514949576720659,0,-2,-2,-2,-2,-1,0,1
1514949576726666,-2,-1,-3,-2,-1,-1,-1,-2
1514949576726666,-1,-1,-1,-2,1,0,-2,-1
1514949576734669,-1,1,-2,1,1,-2,-2,0
1514949576734669,2,-2,-1,-1,-2,1,-2,0
1514949576749680,-3,-1,-2,1,-1,-1,-3,-1
1514949576749680,0,0,1,0,-1,0,-1,1
1514949576750681,0,-2,-1,-1,-2,-1,-2,0
1514949576750681,-3,-1,-1,-2,1,-2,-2,-3
1514949576772700,-2,-1,-2,-2,-1,0,3,0
1514949576772700,0,-2,0,-2,-1,-1,1,0
1514949576772700,1,0,-2,-1,-1,0,-2,-1
1514949576772700,0,-2,0,0,0,-1,-5,0
1514949576795728,-3,0,0,-1,0,-1,-1,0
1514949576795728,-1,-1,-2,-1,-2,-3,-1,-1
1514949576796728,-1,0,-2,-2,-2,-1,0,-2
1514949576796728,-1,-2,0,0,-2,0,-2,-1
1514949576809722,-2,1,-1,-3,-2,0,-1,-2
1514949576809722,-1,0,-1,-3,-1,1,-2,-2
1514949576810723,-1,-2,-2,-1,-2,-1,3,-1
1514949576810723,0,0,-1,0,-2,0,0,-1
1514949576832788,-1,-1,0,0,-2,-2,0,1
1514949576832788,-4,-2,0,-1,-1,-2,-3,-1
1514949576839745,-1,-1,-2,-1,-1,-1,0,0
1514949576839745,-2,-1,0,0,1,-1,1,-1
1514949576854768,0,-1,-1,0,-1,-2,0,-1
1514949576854768,-1,-1,0,-1,-1,0,-1,-3
1514949576855756,0,-4,-1,-2,0,-1,-1,0
1514949576855756,-1,-1,0,-1,-1,-2,2,-1
1514949576869792,1,-1,0,0,0,-2,-2,-3
1514949576869792,-1,-1,-2,1,-2,1,0,-1
1514949576869792,-1,-2,0,-1,-3,0,-2,-2
1514949576869792,-2,0,-1,-2,-1,-2,-1,0
1514949576891782,-1,-2,-2,0,0,0,0,1
1514949576891782,0,1,-1,0,-1,-1,0,0
1514949576892781,0,-1,-1,-1,-2,1,-2,-1
1514949576892781,-2,0,-1,-2,-1,-1,-2,-1
1514949576914796,0,-2,0,-1,-1,-1,0,-3
1514949576914796,-2,-3,-2,0,1,-2,-2,-1
1514949576915797,-3,0,0,0,-1,-2,1,-1
1514949576915797,-1,-2,-3,-2,-1,1,-1,0
1514949576930808,-1,-3,0,-2,-2,-1,0,-1
1514949576930808,0,-2,-2,-3,-1,-1,0,-1
1514949576932810,-2,0,-1,-2,1,-1,-2,-1
1514949576932810,-1,0,-1,0,-3,-1,1,-1
1514949576951849,-1,-4,-2,-1,-2,0,-1,-3
1514949576951849,0,-2,-1,-1,-1,0,-1,-3
1514949576952842,-2,-1,-1,-3,0,0,-1,-2
1514949576952842,1,-1,-2,-1,1,0,0,-1
1514949576974839,0,-1,0,-2,-1,1,-1,0
1514949576974839,-2,-1,-1,-1,-2,0,-1,-4
1514949576975841,0,1,-2,0,0,0,0,0
1514949576975841,-2,0,-1,-1,0,-1,0,0
1514949576989850,-1,-2,-2,-1,-2,-2,-2,-1
1514949576989850,-2,-2,-1,-1,0,-1,-2,-1
1514949576989850,-1,0,0,-1,-2,-1,-2,0
1514949576989850,-2,-1,-1,-2,-2,0,-1,-2
1514949577011877,1,2,-2,-1,-3,-3,1,0
1514949577011877,-1,0,-2,-3,-2,-1,-2,-1
1514949577012866,1,-3,0,0,-1,0,-2,-2
1514949577012866,-1,1,-1,-2,-1,-3,-1,-2
1514949577035892,-2,-1,-1,-1,1,1,0,-2
1514949577035892,-1,-3,-1,0,0,-1,0,0
1514949577037884,0,-1,-2,-1,0,-2,-2,0
1514949577037884,0,-3,-1,-1,-2,0,-2,-1
1514949577049907,-2,-2,-1,-2,-2,0,0,-1
1514949577049907,-1,-2,1,-1,-1,-1,-1,-2
1514949577049907,-2,-2,-3,-1,1,-2,-1,-1
1514949577049907,-2,-1,-1,0,0,-3,-1,0
1514949577071913,0,-1,-2,0,-1,-3,0,-2
1514949577071913,0,0,-3,0,-3,-1,1,-1
1514949577072908,-1,-1,-1,-1,-1,0,-1,-2
1514949577072908,-2,-1,-3,-2,-2,-2,-2,-1
1514949577095925,-1,-2,0,-1,-1,-2,-2,0
1514949577095925,-1,-3,-1,-3,-1,0,0,-2
1514949577096928,-1,-2,-1,-1,-1,-2,0,1
1514949577096928,-1,-1,0,0,0,-2,-1,-2
1514949577109935,0,-2,0,-2,1,0,-3,-2
1514949577109935,-3,-3,0,0,-1,-1,-1,-1
1514949577109935,-1,-1,0,-1,-2,0,-1,0
1514949577109935,-1,-2,0,0,-1,-1,1,0
1514949577131950,-1,-1,-2,-2,-3,0,-1,-2
1514949577131950,0,0,-1,-1,-1,-2,-3,-3
1514949577132951,0,0,-1,-1,-1,0,0,-1
1514949577132951,-1,-2,0,-2,-1,-1,-4,2
1514949577154966,0,-2,-2,-1,0,0,0,0
1514949577154966,0,-1,0,-1,0,1,-2,1
1514949577155967,-1,0,-1,1,-2,-1,-1,0
1514949577155967,-1,-1,-1,0,1,-1,1,-3
1514949577169977,-1,0,0,0,0,-1,-2,-1
1514949577169977,-2,-3,-1,-1,-1,0,-1,-1
1514949577169977,-2,-2,-1,-2,-2,-2,-1,-1
1514949577169977,-1,0,-2,0,0,1,-1,-1
1514949577192993,-1,-2,-1,-2,0,0,-1,-1
1514949577192993,-2,1,-2,-2,0,-2,-1,-2
1514949577194994,-2,0,0,-1,-1,0,-3,-1
1514949577194994,-1,-1,-1,-1,-1,-2,-2,-2
1514949577215008,-1,-2,-2,0,-1,-2,0,1
1514949577215008,-1,-1,-1,0,0,-1,-4,-2
1514949577216011,2,-1,-1,-1,0,1,-2,-2
1514949577216011,0,0,-1,-2,0,-2,0,-3
1514949577230019,0,-1,-2,0,-1,0,-1,0
1514949577230019,1,-2,1,-2,-2,0,0,0
1514949577230019,-3,-1,-1,-2,-1,-1,-1,-1
1514949577230019,0,-2,-1,-1,-2,0,-1,-1
1514949577252035,-2,1,-1,-2,-2,-2,-1,-1
1514949577252035,-3,-1,-2,-2,-1,-1,-2,-1
1514949577253035,-1,0,-2,-1,-2,0,-1,-1
1514949577253035,-1,-2,-1,-2,-2,1,-1,1
1514949577275064,-1,-2,0,0,0,0,1,0
1514949577275064,-1,-1,-1,0,0,0,1,-2
1514949577276052,-1,0,-2,-1,0,1,-1,-2
1514949577276052,-2,0,-2,0,-1,-3,-3,-1
1514949577291062,-1,-2,-2,-2,-1,-1,-2,-1
1514949577291062,0,-2,-1,-1,-1,-3,-1,-1
1514949577292063,-1,-2,-1,-2,0,-2,2,-3
1514949577292063,-2,-2,-1,-1,0,-1,1,-1
1514949577312077,0,0,-1,1,0,0,-3,-1
1514949577312077,1,-3,-3,-1,-2,-1,2,-1
1514949577313078,-1,-3,1,-1,-3,-4,-1,-1
1514949577313078,-1,1,-2,-2,-1,0,-1,0
1514949577336097,0,-2,-1,-2,-2,-2,-2,-1
1514949577336097,-1,-2,0,-2,-3,-2,-2,-3
1514949577337095,0,0,-2,-3,-1,-1,-1,-1
1514949577337095,-1,0,0,0,-1,0,-2,-2
1514949577349105,-2,-1,0,-1,1,-1,-1,-2
1514949577349105,-1,0,-2,0,-1,0,-2,-1
1514949577350104,-2,-2,0,-1,0,-2,-2,-1
1514949577350104,-2,-2,1,-1,-2,-4,-2,0
1514949577372121,0,1,-1,-2,-2,-3,1,0
1514949577372121,0,-2,-1,-1,-2,-2,-2,0
1514949577373120,-1,-1,-2,-1,0,-1,0,1
1514949577373120,1,0,-2,-1,-1,-1,0,0
1514949577395136,-1,-2,-3,-2,-3,-3,1,-3
1514949577395136,-2,-1,0,-1,0,1,0,-1
1514949577396137,-2,-1,-1,-1,0,0,-1,-1
1514949577396137,0,1,0,-1,0,-1,-3,0
1514949577409159,0,-2,0,0,-1,0,0,-2
1514949577409159,-2,0,-1,0,-2,-2,1,0
1514949577417164,0,-2,-1,-2,-2,-2,-1,-3
1514949577417164,-2,-1,-3,-3,-1,-1,1,0
1514949577432174,-2,-1,0,-2,-4,-2,-1,0
1514949577432174,-1,-2,1,-1,-2,0,0,-1
1514949577433163,2,0,-1,0,0,-1,-2,-2
1514949577433163,0,-2,-2,0,-1,-1,-1,-2
1514949577455180,0,-2,-2,-3,1,-1,0,-2
1514949577455180,-2,-1,-1,0,1,-1,-1,-2
1514949577456180,-1,-1,-2,-1,-2,-1,1,-1
1514949577456180,-1,0,-3,-2,-1,-1,-5,-1
1514949577469188,-2,-1,0,-1,0,-1,0,-1
1514949577469188,-1,-2,-1,-1,-2,-1,1,1
1514949577477194,-1,-2,-1,-1,-2,-1,-1,-1
1514949577477194,-2,-1,0,-2,-2,1,1,-1
1514949577492204,-1,1,0,-1,-2,0,1,-1
1514949577492204,-1,-2,0,-1,-1,-1,-3,-1
1514949577493205,-1,-1,0,0,0,-2,-1,1
1514949577493205,-1,-2,-1,-1,0,-2,0,-1
1514949577515222,-1,-1,-1,-1,-2,1,0,1
1514949577515222,-1,-2,-2,-1,-1,0,-2,0
1514949577516221,-3,-1,-2,-1,0,-2,-3,-2
1514949577516221,-2,-1,0,-2,-1,-3,-1,-2
1514949577530231,-2,-1,-2,0,-1,-1,-1,-1
1514949577530231,1,0,0,0,0,-3,2,-2
1514949577537238,0,-1,-1,-1,-2,0,-1,1
1514949577537238,0,-2,-1,0,-1,-2,-1,-3
1514949577552249,1,-1,-1,0,0,-3,-3,-1
1514949577552249,-1,-1,0,-1,-1,-2,0,1
1514949577553256,1,-1,-1,1,-1,0,-1,-1
1514949577553256,0,1,0,1,-1,1,0,1
1514949577575279,-1,-1,-2,1,0,-1,-1,-1
1514949577575279,-1,-2,-1,-2,-2,0,-2,0
1514949577576265,-1,0,-2,-1,-1,-1,-1,1
1514949577576265,-1,-1,-1,-2,-1,0,-1,1
1514949577589275,0,-2,0,-2,-1,1,-2,-2
1514949577589275,-1,-2,-2,-1,1,-3,-1,-1
1514949577597291,0,1,-1,-2,0,-1,-2,-2
1514949577597291,-1,-1,-2,-1,-2,-2,0,-1
1514949577612319,0,0,-1,1,-1,-2,0,1
1514949577612319,-1,-3,-1,2,-2,-1,-2,-3
1514949577612319,-2,-1,-2,-1,0,-2,-2,0
1514949577612319,1,-1,-1,0,1,0,1,-1
1514949577635316,0,0,-1,-2,0,-1,-1,-2
1514949577635316,1,-1,1,-2,0,-2,0,1
1514949577636319,-1,0,0,0,-2,-1,-2,1
1514949577636319,-1,-2,-2,-1,-1,-1,-3,-3
1514949577648314,0,-2,-1,-2,-2,0,0,-3
1514949577648314,-2,1,-2,0,1,-1,-1,-2
1514949577657323,-2,0,-1,-1,-2,-2,0,-1
1514949577657323,0,0,-1,-1,1,-2,0,-3
1514949577672347,-1,-1,-1,-3,-2,-1,-1,-2
1514949577672347,0,-1,-1,-1,-4,2,-1,-2
1514949577672347,-2,-1,0,-1,-2,-2,1,-1
1514949577672347,0,0,0,-1,-1,0,-1,0
1514949577695358,-1,-2,0,1,0,-1,-2,-1
1514949577695358,-1,-1,-3,0,-1,0,-2,-2
1514949577696361,-2,-1,-2,-3,-2,1,-2,-1
1514949577696361,-2,-3,-2,-2,-1,-1,-1,-1
1514949577717383,-2,-2,-1,-1,-1,-2,0,-2
1514949577717383,-1,1,-1,-1,-1,-1,0,-1
1514949577718378,-2,-2,0,-2,0,0,-3,-2
1514949577718378,-1,0,0,0,-1,-1,-2,-2
1514949577732374,0,1,0,-1,0,-2,0,0
1514949577732374,-2,-1,-1,-1,-2,0,0,2
1514949577733375,0,0,-1,1,-1,-1,0,-1
1514949577733375,0,-3,0,-1,-1,-1,-2,0
1514949577755391,-3,0,-2,0,0,-1,2,0
1514949577755391,0,-2,0,-1,-1,-1,-1,-2
1514949577756391,1,0,-1,0,-1,-1,0,-1
1514949577756391,-2,-1,-2,0,-1,0,-1,1
1514949577777426,0,-1,-1,1,0,-1,-2,0
1514949577777426,0,-3,0,-3,-1,-1,0,-1
1514949577778409,0,1,-2,-2,-1,1,0,0
1514949577778409,2,0,-1,-1,0,-2,-1,-3
1514949577792417,-1,-2,-1,-3,0,-1,1,0
1514949577792417,0,-1,-1,-1,-2,-1,-1,-2
1514949577793418,0,0,2,1,-1,-3,0,-1
1514949577793418,-2,-4,-3,-1,-2,-2,0,-1
1514949577815444,-1,-2,-1,-1,-1,0,-1,0
1514949577815444,0,-2,-1,0,0,1,-1,1
1514949577816436,-2,0,-1,-2,-2,-2,-2,0
1514949577816436,-1,-1,-3,-2,-2,0,-1,-1
1514949577837449,-2,-3,-2,-1,0,0,0,-4
1514949577837449,0,-2,-1,1,-2,-1,1,-2
1514949577838450,-1,0,-1,-1,-1,-2,-2,0
1514949577838450,-3,2,0,0,0,-1,0,-1
1514949577852460,-1,-5,-1,-2,-2,-3,-3,-2
1514949577852460,-3,-2,-1,0,0,0,0,-1
1514949577852460,-2,-2,-2,1,-1,-2,0,1
1514949577852460,-1,0,-1,-1,-2,-2,-1,0
1514949577875480,-1,1,-1,-2,-1,-1,-3,0
1514949577875480,-1,-1,-1,-1,0,-1,-2,-2
1514949577876480,0,0,0,0,-2,0,-3,-2
1514949577876480,-2,0,0,-2,0,0,-2,0
1514949577897493,-1,-2,0,0,0,-1,1,-2
1514949577897493,0,-1,0,-1,0,-2,-3,0
1514949577898495,-1,-2,-1,-1,-2,0,-3,0
1514949577898495,1,-1,0,-2,-2,0,-1,-1
1514949577912503,-2,-3,-1,-1,0,-1,-1,-1
1514949577912503,1,0,-1,-1,-1,-1,-1,0
1514949577914509,-2,-1,-2,-2,-1,-3,1,-1
1514949577914509,0,-3,0,-1,1,-1,-1,-1
1514949577935520,0,-1,1,0,0,-1,-2,-1
1514949577935520,-2,0,-1,-2,-2,-2,0,-1
1514949577936520,-2,-1,-1,-2,-1,0,-2,-1
1514949577936520,-1,0,-1,-2,-1,-1,-2,-2
1514949577958544,0,2,-1,0,-1,-1,-1,-1
1514949577958544,-1,1,-1,1,-1,-1,0,0
1514949577958544,-1,-1,-1,0,-1,-1,-2,-1
1514949577958544,-1,-3,-2,0,-1,-2,-1,-1
1514949577972550,0,-3,-2,0,-3,-1,-3,-1
1514949577972550,-3,-2,0,-2,0,-2,-1,-1
1514949577972550,-4,0,-1,-2,-3,-1,0,-3
1514949577972550,-2,-1,-3,-1,-1,-2,0,-1
1514949577995567,-1,-1,-1,0,-1,-2,-2,-3
1514949577995567,0,-1,-1,-2,-2,0,-2,-1
1514949577996564,-2,-2,0,-1,0,0,-1,-2
1514949577996564,-1,1,0,-1,1,0,-2,0
1514949578017576,-1,-1,-3,-2,-1,0,1,-1
1514949578017576,0,-1,1,1,-2,-3,-1,-2
1514949578018579,0,-1,-1,-2,0,-3,0,-1
1514949578018579,-2,-2,-2,-4,0,0,-2,-2
1514949578032589,-1,-2,-1,-1,-2,-2,0,1
1514949578032589,0,-1,0,1,-2,-1,-2,-1
1514949578032589,2,1,0,-1,-1,-1,-1,-1
1514949578032589,-1,-3,-3,0,0,-2,-2,0
1514949578056606,-1,-1,-1,-1,-1,0,0,-3
1514949578056606,-3,-1,-2,0,0,0,-1,-2
1514949578058612,-1,-1,0,0,-1,0,-2,-1
1514949578058612,0,-1,0,-1,-1,0,-2,1
1514949578078621,-1,-2,-2,-1,-3,-1,0,-1
1514949578078621,0,-3,-2,-2,-1,-1,0,-1
1514949578079621,-2,0,-1,-1,-2,-1,-1,0
1514949578079621,-1,-1,-1,0,-1,-1,-1,-1
1514949578091634,-1,-2,-2,0,0,-2,-1,0
1514949578091634,0,-2,-1,-1,1,-3,0,-3
1514949578100637,-1,-2,-1,1,-1,-1,0,-2
1514949578100637,0,-1,1,-2,-1,-3,0,-2
1514949578115648,-1,0,-1,0,-1,1,-1,-1
1514949578115648,-1,-3,-2,-2,-1,0,-2,-1
1514949578117647,0,-2,0,-2,1,0,-2,0
1514949578117647,-2,-4,-1,-2,-1,0,-1,-1
1514949578137664,0,-4,-1,-1,0,-2,-1,-1
1514949578137664,-1,-1,-1,-2,-1,-1,1,0
1514949578141668,-1,-1,-2,-2,-1,-1,-3,1
1514949578141668,-1,0,-1,-2,-2,-1,-1,-2
1514949578151676,0,-2,-1,-2,-3,-2,0,-3
1514949578151676,1,-2,-2,-1,0,2,-1,-1
1514949578161684,-1,0,-2,-1,-1,-2,-2,-2
1514949578161684,0,-1,-1,1,0,-1,-1,-1
1514949578175691,0,-2,1,-1,0,-2,-2,-1
1514949578175691,-2,-2,1,-1,-1,-1,-3,-1
1514949578177691,-1,1,-2,-2,-2,-1,-1,-2
1514949578177691,-1,-1,-1,-1,-2,-1,1,0
1514949578197705,-2,-1,-2,-3,-3,-1,-3,-2
1514949578197705,-1,-2,0,0,-1,-2,-1,0
1514949578199708,0,0,-2,-1,0,-2,1,-1
1514949578199708,0,-2,-2,1,-1,-1,1,-1
1514949578211716,-1,-3,1,0,-1,-2,1,-2
1514949578211716,-1,-2,-1,0,0,-3,-2,0
1514949578220721,-2,-1,-3,-2,-1,-1,0,-2
1514949578220721,-2,-1,-1,-2,-2,-1,-1,-1
1514949578234730,0,1,0,-1,-2,1,0,-2
1514949578234730,-3,-1,1,-2,-2,-1,-1,-2
1514949578236731,0,-2,-2,-2,-1,-2,1,0
1514949578236731,0,-1,-2,-2,0,-1,-1,-1
1514949578258749,0,-1,0,-1,-1,-2,-1,-1
1514949578258749,0,-1,-1,-1,-1,0,1,0
1514949578262751,-3,-1,-3,0,-3,0,-3,0
1514949578262751,-1,2,-1,0,0,-1,-2,-1
1514949578271778,0,-2,-1,0,-2,-1,0,0
1514949578271778,-1,0,0,0,-2,-1,-1,-2
1514949578281780,-1,0,1,-2,-1,-1,-4,-2
1514949578281780,-2,-2,0,0,-1,-1,-1,-1
1514949578294788,-1,1,0,0,-2,-3,-3,0
1514949578294788,0,-2,-2,-2,-1,1,-1,-1
1514949578296788,-2,-1,0,-1,0,1,0,-2
1514949578296788,-2,-2,-3,-2,-2,0,-1,-1
1514949578317806,0,-2,-2,-2,0,-2,0,0
1514949578317806,0,-3,-1,-1,-2,0,-1,-2
1514949578318788,-2,-1,-1,-1,-2,-2,-4,0
1514949578318788,-1,0,-1,0,1,-1,-1,-2
1514949578331816,-3,0,-2,-4,-2,0,-1,-2
1514949578331816,-1,1,-2,2,-1,-2,-1,-1
1514949578341805,-2,-2,0,-1,0,-1,-1,-1
1514949578341805,1,0,-2,-3,-2,-3,-2,0
1514949578355820,-2,-2,-2,0,-1,-2,0,1
1514949578355820,0,1,0,-2,-1,-2,0,-1
1514949578356815,-1,-1,0,3,-1,-2,-1,0
1514949578356815,-2,-3,-1,0,0,-1,1,1
1514949578377835,-2,0,-1,-3,-1,-1,-3,-1
1514949578377835,-1,-2,0,-1,-1,1,2,-3
1514949578379844,0,0,-3,-2,-1,-3,-1,2
1514949578379844,-2,-2,-1,-1,-2,-2,-3,0
1514949578390841,-2,-3,-2,0,-1,-1,-1,-2
1514949578390841,-2,0,-1,-2,0,-2,0,-1
1514949578399847,2,0,-3,-2,-1,-2,0,0
1514949578399847,-1,0,-2,-3,-2,-1,0,0
1514949578414869,-1,-1,0,2,-1,0,-2,-2
1514949578414869,-2,-2,-1,-1,-1,-1,-2,0
1514949578416870,1,-3,-2,-1,-1,-1,-1,-2
1514949578416870,-2,-1,-2,1,-1,-3,0,-2
1514949578437885,1,-3,-1,-4,-1,-2,0,0
1514949578437885,-1,-1,0,-1,0,-3,-2,-2
1514949578438891,-2,-1,-1,-1,-1,-2,-1,0
1514949578438891,0,-2,0,-2,-1,-1,-1,-2
1514949578450882,-1,0,0,0,0,-1,0,-1
1514949578450882,-1,-2,-1,-2,-1,-2,0,-2
1514949578459889,-2,-1,0,-1,0,-1,0,-1
1514949578459889,-1,-2,1,-1,-2,-1,-2,-1
1514949578474909,-1,-3,-3,-2,-1,-1,-1,-2
1514949578474909,-2,-2,-1,0,-3,-2,0,1
1514949578476910,-2,-1,-1,-2,-1,0,-1,-2
1514949578476910,0,-1,-1,0,0,-1,0,-1
1514949578497915,-2,0,-2,-2,-1,0,1,0
1514949578497915,-2,-1,-1,-2,-1,-1,-1,0
1514949578498916,0,1,-3,-2,-2,0,0,-1
1514949578498916,0,-1,-1,-1,-2,-1,0,0
1514949578510924,-1,0,1,1,-2,-1,-1,-1
1514949578510924,0,-2,-1,-1,-1,-2,-2,-3
1514949578519957,-2,-1,-1,-1,-1,-2,-2,0
1514949578519957,-2,-1,-1,-1,0,2,1,-1
1514949578534951,-2,-1,-2,-1,-1,0,0,-2
1514949578534951,-1,-3,-3,-2,-2,-1,-2,-1
1514949578536952,0,-1,0,-1,-3,0,-1,-3
1514949578536952,-1,-3,-1,-1,-1,-1,-1,-2
1514949578557970,-1,-2,-1,-1,-1,-1,-1,0
1514949578557970,-3,-3,-2,-1,-1,0,0,-2
1514949578559959,-2,-1,-2,-2,-1,-2,2,0
1514949578559959,-2,1,-2,-2,-1,-1,-1,0
1514949578570995,1,-1,-1,-2,1,-3,-3,0
1514949578570995,-1,-2,-1,-1,-1,-1,-2,2
1514949578581985,-1,0,-2,-1,0,-1,0,1
1514949578581985,-2,-1,1,0,-1,-1,0,-2
1514949578594987,-3,-1,0,-1,-1,1,1,-1
1514949578594987,-1,-1,0,-2,-2,-1,0,-3
1514949578596998,-3,-2,1,-3,-2,0,-3,-1
1514949578596998,-2,-1,-1,-1,-2,-2,-3,-1
1514949578618016,0,-2,-2,-1,-1,-4,-2,-2
1514949578618016,-3,0,0,-1,-2,-1,0,-1
1514949578619013,-1,-1,-1,0,-1,-2,-1,1
1514949578619013,0,-2,-1,-2,-2,0,-2,-2
1514949578632012,0,0,0,1,-1,-1,-2,0
1514949578632012,-1,1,-2,-1,-2,-1,-2,-1
1514949578640016,-1,0,-2,-1,-1,-2,0,-1
1514949578640016,-1,0,-3,-1,1,0,-1,-2
1514949578655027,-1,0,-1,-2,-1,-1,0,-2
1514949578655027,-1,0,-2,-2,-2,0,-1,-1
1514949578657028,0,-1,-2,-2,1,-1,0,1
1514949578657028,0,-1,-1,-2,0,-1,-2,-1
1514949578678055,0,-3,-1,-2,-2,0,-1,1
1514949578678055,0,1,-1,1,0,-3,-1,-1
1514949578679058,-1,0,-1,-2,-1,-3,0,-2
1514949578679058,-2,0,-2,-1,-2,-1,0,-2
1514949578700058,0,0,-1,0,0,0,1,-1
1514949578700058,0,-2,0,-1,-1,-2,-2,1
1514949578710066,-1,-3,0,-2,-2,-1,-2,-1
1514949578710066,-1,-2,-1,0,0,-1,0,0
1514949578715069,-1,-3,-1,-1,-1,0,-1,-3
1514949578715069,-1,0,-2,-1,1,0,-3,0
1514949578717085,0,-1,-2,-1,1,1,-1,0
1514949578717085,-1,-1,0,-2,-3,-1,-1,0
1514949578738102,-1,-1,0,-3,1,-1,0,-1
1514949578738102,0,-2,-1,1,-1,-1,1,0
1514949578739087,-1,0,-2,-1,0,0,-2,-2
1514949578739087,-2,-2,-3,0,0,-2,-1,-1
1514949578760118,-2,1,-3,-1,-1,-1,0,-1
1514949578760118,-2,-2,-2,-2,-1,-2,1,-2
1514949578762102,-1,-2,-1,-1,-1,-2,0,-1
1514949578762102,-1,-1,0,-1,-1,-1,0,-2
1514949578774128,-1,-4,-1,1,-3,-1,-1,-4
1514949578774128,-1,1,-1,-1,-1,-2,-2,-1
1514949578783117,-1,-1,-3,-1,-2,-2,-3,-1
1514949578783117,0,-2,-1,-1,1,-1,-2,0
1514949578798128,0,1,0,-2,-1,0,-1,-1
1514949578798128,0,-1,-1,0,-1,-2,-2,-2
1514949578800129,-1,0,2,-1,-1,-1,0,0
1514949578800129,0,1,-2,-1,-3,-2,0,0
1514949578820156,1,-1,-1,-1,-1,-3,-2,-2
1514949578820156,0,-5,-2,-2,-2,-1,-1,-2
1514949578822149,-1,1,-2,0,0,0,0,-1
1514949578822149,-1,-1,0,-1,-1,-1,0,-2
1514949578843159,-1,0,-2,-1,-2,-1,0,0
1514949578843159,0,-1,0,-2,-1,0,1,0
1514949578844161,-1,-3,-1,0,-1,-3,-1,0
1514949578844161,-1,-2,-1,-2,-2,0,-2,-1
1514949578858172,-1,-1,-1,0,0,-2,0,-2
1514949578858172,-1,-1,-2,0,-2,0,-1,0
1514949578860172,-1,0,-1,-3,-1,-1,-1,-1
1514949578860172,-1,-1,-1,-1,0,-2,-2,-1
1514949578880201,-2,-2,0,-1,1,0,-2,-1
1514949578880201,-1,-2,-1,-1,-1,-1,-1,-1
1514949578884198,-1,-2,-1,-1,-1,-1,-2,-1
1514949578884198,-1,-2,0,-1,-1,-1,0,-1
1514949578894198,0,-4,-1,0,-2,-1,-4,-3
1514949578894198,-1,0,0,-1,1,-1,0,-2
1514949578901200,-1,-2,-2,-1,-1,0,-1,-2
1514949578901200,-2,0,-2,-1,0,-3,-1,-1
1514949578917237,-2,-2,-2,0,-2,-4,0,1
1514949578917237,-1,-2,0,0,-3,-1,-2,-2
1514949578919213,0,0,-1,-1,-2,-1,-2,0
1514949578919213,0,0,0,-1,0,-1,-2,-3
1514949578940228,-2,0,-3,0,1,0,-1,1
1514949578940228,0,-1,-1,-1,-2,-1,1,-2
1514949578942239,-2,0,-2,-2,-2,-1,0,-2
1514949578942239,-1,-3,-1,0,-3,0,0,1
1514949578954259,-1,-2,-2,0,0,-1,-2,-3
1514949578954259,0,1,1,0,-2,-1,1,0
1514949578961244,-1,-2,-1,-1,0,-1,0,-3
1514949578961244,-2,-2,-1,0,-2,-2,1,1
1514949578977257,-3,0,-1,-1,0,-2,-2,-1
1514949578977257,0,-4,-4,-2,0,-1,-3,0
1514949578980256,-1,1,-1,-1,-2,-1,-1,2
1514949578980256,1,-1,-2,-2,-2,1,-2,-2
1514949579000271,1,-2,0,0,-1,-1,-1,1
1514949579000271,-2,-1,-1,-1,-1,-2,-2,0
1514949579002289,1,-1,-4,-2,-2,-2,-2,-2
1514949579002289,-1,0,-3,-1,-2,-2,-2,-2
1514949579014293,-1,-1,0,-2,-1,0,0,1
1514949579014293,-2,-2,-1,-1,0,-1,0,-1
1514949579021298,-1,-2,-1,-1,0,-1,-1,-1
1514949579021298,-2,-2,0,-1,0,1,-1,0
1514949579037310,0,-2,-1,-3,0,0,-1,-1
1514949579037310,-3,1,-1,1,-2,-2,-1,0
1514949579039298,0,-1,-2,0,0,-2,-1,-1
1514949579039298,1,-3,-2,0,1,-1,-1,-3
1514949579060312,-1,-2,-1,-2,-3,-2,0,-1
1514949579060312,-1,0,-2,-2,-1,0,-2,2
1514949579061314,-1,0,0,-2,-2,0,-2,-1
1514949579061314,-1,-1,-2,-1,-2,-1,-2,0
1514949579074322,-1,-1,-1,0,-2,0,0,-2
1514949579074322,1,-2,1,-1,-1,-1,0,-2
1514949579085330,0,-2,-1,0,0,0,-1,-1
1514949579085330,-1,0,-2,-3,0,-1,-1,-1
1514949579097351,-2,0,-1,-1,-2,-1,-1,-1
1514949579097351,-2,-1,-2,-1,0,1,1,-2
1514949579099351,-4,0,-2,-1,-1,-1,-1,0
1514949579099351,0,0,1,0,-1,-2,-2,0
1514949579120370,0,-1,-1,-1,-1,-1,-2,-1
1514949579120370,0,-2,-1,-1,-1,1,-4,-1
1514949579122367,0,-2,0,-2,-1,-2,-1,-1
1514949579122367,-2,-3,-2,-1,-1,0,0,-1
1514949579134365,-3,1,-3,0,0,-1,0,-2
1514949579134365,0,-1,-1,-3,-1,-1,-2,-1
1514949579141372,-1,-2,0,-2,-3,-1,0,0
1514949579141372,-2,-3,-1,0,-1,0,-1,-2
1514949579165399,1,-1,-1,0,-2,0,-1,-1
1514949579165399,-1,-2,-1,-2,-1,0,0,-2
1514949579166389,-1,-2,-1,1,-1,-3,0,0
1514949579166389,-1,-1,1,-2,0,-1,-1,-1
1514949579180398,0,-2,0,-3,-1,-1,-1,1
1514949579180398,-2,0,-2,0,-1,0,0,0
1514949579184400,0,1,-2,-1,-2,0,-2,1
1514949579184400,-2,0,0,-1,0,-2,-1,-1
1514949579193407,-2,-2,-1,-1,-1,-1,-1,-1
1514949579193407,-2,1,0,-1,0,-1,-2,-1
1514949579202413,-2,-1,-2,-1,0,1,0,-2
1514949579202413,-1,-2,-1,0,-2,0,0,-1
1514949579217423,-2,-3,-1,0,-1,-1,-2,-1
1514949579217423,-2,-2,-1,0,0,-1,0,0
1514949579219453,0,-1,-2,-1,-2,-1,-2,-1
1514949579219453,0,0,-1,-2,-1,-2,0,-2
1514949579240439,-1,-2,-1,0,0,1,0,-1
1514949579240439,-2,-3,0,0,-3,-3,-2,-1
1514949579241441,-3,-3,-2,1,1,-1,-1,0
1514949579241441,-1,-1,-1,-2,-3,-1,0,-2
1514949579253486,-1,0,1,-1,-1,1,1,-1
1514949579253486,-2,-2,-2,0,1,0,-1,0
1514949579262468,-2,-1,-1,-2,-3,-1,-1,-3
1514949579262468,0,-2,-1,1,-2,-1,0,-2
1514949579277483,1,-2,-2,0,0,-2,0,-1
1514949579277483,0,-1,-1,0,0,-2,-2,-2
1514949579280484,-1,-1,-1,-1,-1,-1,0,-2
1514949579280484,-1,0,0,-2,-1,-1,0,2
1514949579300509,-1,-2,1,-2,-2,-2,-2,-2
1514949579300509,0,-1,-1,0,0,-2,0,-2
1514949579301502,1,-1,-2,-1,-1,-2,-3,-2
1514949579301502,-1,-1,-1,0,-2,-1,-2,-1
1514949579313492,-2,-3,-1,0,-1,-2,-1,0
1514949579313492,-1,-2,0,-1,-2,-2,-1,-1
1514949579322521,-2,-2,0,-1,-1,-2,-3,-2
1514949579322521,-1,1,0,-2,-2,-2,1,0
1514949579337511,0,-2,-1,1,-1,0,0,-3
1514949579337511,-2,-1,-3,-2,-2,0,-2,-2
1514949579339510,-2,0,0,0,-1,-1,-1,0
1514949579339510,0,-1,-3,-2,-2,-1,-2,-2
1514949579360528,0,-1,0,-2,-1,0,-1,-1
1514949579360528,0,1,0,0,-1,-1,0,-1
1514949579361526,-2,-1,0,-1,-2,-1,1,0
1514949579361526,-2,-3,-1,0,1,0,-1,-2
1514949579373533,0,-4,0,0,-1,-2,-1,-1
1514949579373533,-1,1,-1,0,-1,0,0,0
1514949579384542,-2,-1,-1,0,-1,0,-1,-2
1514949579384542,-1,-1,0,-1,-1,-2,-1,0
1514949579397551,-2,-2,-1,-1,-1,-1,-1,-3
1514949579397551,0,-1,0,-3,-2,0,0,0
1514949579399552,0,-2,-1,-1,-1,-2,0,0
1514949579399552,-1,1,-1,-2,0,-1,1,0
1514949579420570,-1,-2,-2,0,0,-1,0,-1
1514949579420570,0,-3,0,0,0,0,-1,-3
1514949579421567,-2,-2,-2,-1,0,-3,-1,0
1514949579421567,0,-1,0,0,0,-2,-1,-1
1514949579433578,-1,-1,0,-1,-1,-1,0,-1
1514949579433578,-3,0,-4,-2,-3,-3,-1,-2
1514949579442592,1,-1,-1,-2,-1,-1,-1,-1
1514949579442592,-1,-1,-2,-2,0,0,-2,-2
1514949579458606,-2,-2,0,-1,-2,-1,0,-1
1514949579458606,-2,-2,-2,-2,-1,-1,-2,1
1514949579459596,-2,-1,-1,0,-1,-1,-1,-1
1514949579459596,0,-2,-1,-2,-1,-1,-1,-2
1514949579480622,-1,0,0,-2,0,-1,0,-2
1514949579480622,-3,-1,-1,0,-2,0,0,-1
1514949579483624,-1,-1,-1,-2,0,-1,-1,0
1514949579483624,0,-2,-1,1,-1,-2,1,-1
1514949579493619,0,-2,-4,-2,-1,0,-3,-1
1514949579493619,0,0,-1,0,0,-1,-1,-1
1514949579502626,1,1,-2,-1,-1,0,1,-3
1514949579502626,-3,-2,0,-1,0,-2,0,-2
1514949579517635,-1,-2,0,-2,0,-3,-3,-1
1514949579517635,-1,-3,-1,0,0,-2,-1,-2
1514949579519677,-2,0,-2,-1,-3,0,0,-1
1514949579519677,-2,-2,-2,0,-3,1,0,-1
1514949579540652,0,2,-1,0,-3,-1,0,1
1514949579540652,-1,-2,-1,-1,0,-1,-1,0
1514949579541652,1,-1,0,0,-2,-2,-1,-1
1514949579541652,-1,-3,0,0,-2,-2,-2,0
1514949579553703,-3,0,-2,-2,-1,-2,-1,-2
1514949579553703,-1,0,-1,-2,-1,-2,0,-1
1514949579563678,-1,-1,-2,-2,-2,-1,-1,-1
1514949579563678,-2,-2,-2,-1,-1,0,-3,-1
1514949579577678,-2,-1,0,-2,-2,1,-1,0
1514949579577678,0,-1,0,-2,0,0,-2,-2
1514949579580689,-3,1,-1,-1,0,-2,-1,-2
1514949579580689,0,-2,-1,-1,1,-1,-2,-2
1514949579600694,-1,-2,-2,1,-1,0,1,-1
1514949579600694,-1,-1,0,-2,0,-1,-2,-2
1514949579602738,1,-2,-1,0,0,-1,-2,1
1514949579602738,0,-2,-2,-2,-1,-1,-2,0
1514949579622723,-1,-1,0,-2,-2,-1,-1,-3
1514949579622723,0,1,0,-2,-1,-1,-2,-2
1514949579624721,-1,-1,0,0,0,-1,-1,-1
1514949579624721,-1,-2,-1,0,-2,-1,1,2
1514949579637733,-1,-1,0,0,-1,-1,-2,0
1514949579637733,1,-3,-2,-3,-2,-1,0,-1
1514949579639727,-4,-3,-2,-2,0,-2,-1,-2
1514949579639727,-2,2,-3,0,-1,-2,-2,0
1514949579659736,-2,-3,-1,-1,-2,0,-4,-1
1514949579659736,0,1,0,-1,-1,1,1,0
1514949579661739,0,0,0,-2,-2,-1,-1,-1
1514949579661739,-1,-3,-1,-2,-3,-1,-1,-3
1514949579683753,-1,0,-2,0,0,-1,1,-2
1514949579683753,-1,0,-2,0,1,-3,-1,0
1514949579687771,0,-1,-2,0,-2,-1,-2,1
1514949579687771,-3,-4,0,-1,1,0,-1,0
1514949579697776,-2,-2,1,1,-1,-2,2,-2
1514949579697776,-1,-2,0,-1,-1,-1,-1,0
1514949579699764,-1,-1,-2,-1,0,-1,-1,-1
1514949579699764,0,1,0,-1,-1,-1,-3,-1
1514949579719802,1,-3,-1,0,-1,-1,-2,0
1514949579719802,-1,-1,-2,0,-1,-2,0,-1
1514949579721779,-2,-3,0,-1,-2,1,0,-1
1514949579721779,0,-2,-2,-1,-1,-2,0,-2
