timestamp,emg1,emg2,emg3,emg4,emg5,emg6,emg7,emg8
1513482772144145,0,0,-1,-1,0,0,1,-2
1513482772144145,-3,-1,-1,0,-2,0,1,-3
1513482772145146,-2,-2,-1,-2,-3,-3,0,-2
1513482772145146,-1,-3,-1,-2,-2,-2,-5,-1
1513482772167176,0,-1,-1,-1,-1,-1,-3,-3
1513482772167176,-2,0,-1,-2,-1,-1,0,-1
1513482772168168,-1,1,-3,-1,-2,0,-3,-1
1513482772168168,-1,-1,-2,-1,0,-2,-3,1
1513482772182171,0,-2,0,-2,0,0,1,0
1513482772182171,-1,-2,0,-2,0,0,-1,-2
1513482772182171,-1,-2,-1,0,0,0,0,0
1513482772182171,0,0,-2,0,0,-2,-1,-2
1513482772204188,-1,-1,-2,-2,0,-1,-2,1
1513482772204188,0,-1,-2,-1,-3,-2,-1,-1
1513482772205187,0,-1,-1,0,-2,-2,0,-2
1513482772205187,-1,0,-1,0,-2,-1,-1,-2
1513482772227203,-1,-1,-1,0,-1,-4,0,-2
1513482772227203,0,1,0,0,-1,0,-1,-2
1513482772228204,-2,-2,-1,-1,-2,-3,-1,-1
1513482772228204,-3,0,-2,-1,1,-1,-1,-2
1513482772242214,0,0,1,1,-2,-2,-1,1
1513482772242214,0,-2,-1,-3,-2,-3,0,-2
1513482772242214,0,-2,0,1,-1,-2,-3,-2
1513482772242214,-1,-2,-2,-1,0,0,1,0
1513482772264239,-4,-2,-2,-3,-3,-1,0,-1
1513482772264239,-2,0,-2,-1,-2,-2,0,0
1513482772265239,0,1,-1,0,1,-2,-1,-1
1513482772265239,1,-1,-1,-2,2,-2,-2,-1
1513482772287246,-1,-1,-2,-1,0,0,0,-2
1513482772287246,-2,-2,-2,1,-3,-2,0,-1
1513482772288246,0,0,-1,-2,-1,-1,0,0
1513482772288246,-2,-1,-1,-1,-1,0,-1,1
1513482772302270,0,-2,-2,-2,-2,-1,-2,-1
1513482772302270,-3,-1,-1,0,-1,2,1,-1
1513482772303257,-2,0,1,0,-2,-1,0,1
1513482772303257,1,0,-1,-2,0,0,-1,-1
1513482772324281,1,0,-1,-3,-1,-1,-2,-2
1513482772324281,-2,-1,-1,-3,-2,-1,-3,-3
1513482772325275,0,-4,-1,-2,1,-1,0,-2
1513482772325275,0,-2,-2,-1,0,-1,-1,-1
1513482772347288,0,-3,-1,-4,-2,-2,-1,-2
1513482772347288,-2,-1,-3,0,-3,-3,-2,-1
1513482772348289,-2,-1,-2,-1,0,-1,-2,-1
1513482772348289,-1,-2,-1,-1,-1,-2,-3,1
1513482772361310,-1,-1,-2,0,0,-2,0,0
1513482772361310,0,-2,-1,0,-2,-1,2,0
1513482772369303,-1,-1,-2,-2,-1,-3,-2,0
1513482772369303,1,-2,-2,-1,-2,-2,0,-2
1513482772392388,-3,-1,1,-1,-2,-1,0,0
1513482772392388,-1,1,-1,-2,-2,0,-1,0
1513482772393340,0,-3,-2,1,0,0,-3,-1
1513482772393340,1,0,-1,-2,0,-2,-3,-2
1513482772407341,0,-1,-2,0,0,0,-2,-2
1513482772407341,-1,-1,1,-1,-1,0,1,-2
1513482772408333,-2,-2,0,-2,0,1,0,0
1513482772408333,0,-2,0,-2,-1,-1,-1,0
1513482772421352,-2,0,0,-2,-2,0,-1,-2
1513482772421352,-1,-2,-1,0,-2,0,2,-2
1513482772429357,0,0,-2,-2,-1,-1,-1,-1
1513482772429357,-1,-3,-3,0,-2,-3,-2,-1
1513482772444374,-2,-1,-3,-2,0,-1,-2,-2
1513482772444374,-3,-1,-1,-1,0,-3,-1,0
1513482772445374,-3,-2,1,0,-2,-1,0,-3
1513482772445374,-1,-2,-1,-1,1,-2,-2,-2
1513482772467385,0,0,-2,-1,-1,-1,-1,0
1513482772467385,-3,0,0,-2,-2,-1,-1,-3
1513482772468374,-1,-1,-4,-1,-2,0,-3,0
1513482772468374,-1,-2,0,-1,-1,-2,-2,-2
1513482772481393,0,-1,-1,0,-1,-2,-1,1
1513482772481393,-1,-2,-1,-1,-1,0,1,-1
1513482772489390,0,0,0,-2,0,-1,3,-1
1513482772489390,0,-2,-3,-2,0,0,-1,-1
1513482772504411,-2,-1,-1,-2,-2,1,1,0
1513482772504411,-1,-2,0,0,-1,-2,-2,-2
1513482772505420,-3,-1,-2,0,-3,-2,-3,-2
1513482772505420,-1,-1,-2,0,-1,-2,0,-2
1513482772527427,1,-1,-3,0,-1,-1,-1,-2
1513482772527427,-1,-1,-1,0,-2,0,-2,-1
1513482772528428,-1,0,-2,-2,-1,-1,-3,0
1513482772528428,1,-1,0,-3,-1,0,-4,0
1513482772541425,-2,-2,-2,-1,-3,-1,3,-1
1513482772541425,0,1,-1,0,-2,0,-1,-1
1513482772549443,-1,0,1,-1,0,-1,-1,-1
1513482772549443,-2,0,-2,0,1,1,1,0
1513482772564441,-1,-1,-2,-1,0,-1,1,-1
1513482772564441,-1,-2,-1,-2,-1,-1,-1,-3
1513482772564441,0,-1,-1,-1,-1,-1,0,0
1513482772564441,-2,0,-2,-1,1,-1,-3,-1
1513482772587457,-2,-2,0,-1,-2,-3,1,-2
1513482772587457,-4,-1,-1,0,-1,0,-3,-2
1513482772588458,0,-1,-2,-1,0,-1,-2,-3
1513482772588458,-2,-3,-1,0,-2,-1,-2,-2
1513482772600467,0,-1,1,0,-2,-1,0,-2
1513482772600467,-2,0,0,-2,-2,-1,-1,1
1513482772609473,0,0,-2,-2,0,-2,-2,0
1513482772609473,-1,0,-3,-3,0,-1,-1,0
1513482772624483,-2,-1,-1,-1,0,-1,0,-2
1513482772624483,-1,-2,0,-2,-5,-1,0,2
1513482772624483,1,-2,0,0,0,-1,1,-2
1513482772624483,0,-1,-3,-2,0,-3,-1,-1
1513482772647500,-2,-2,-2,-2,0,0,-1,-1
1513482772647500,-1,1,-1,0,-3,0,2,-2
1513482772648501,0,-1,-2,1,-1,-2,-1,-2
1513482772648501,0,0,1,-2,-1,0,-2,-2
1513482772669525,-2,0,-3,-1,-2,-1,0,-2
1513482772669525,-1,0,-3,1,-1,-3,-1,-1
1513482772670516,-1,-1,-2,-1,-2,-1,1,-1
1513482772670516,0,-2,-1,0,1,-2,-2,-1
1513482772684536,0,-1,0,0,-1,-2,-2,0
1513482772684536,-3,0,-1,-1,0,-1,0,-1
1513482772684536,-3,0,-2,-1,-1,2,-1,-1
1513482772684536,-2,-2,-2,-1,1,-2,-1,0
1513482772707567,-2,-2,0,-2,-2,0,-2,-2
1513482772707567,-1,0,-1,-2,-3,-1,1,-2
1513482772707567,1,-1,-2,-1,0,-1,-2,0
1513482772707567,0,-1,-2,-2,-2,-1,-2,0
1513482772729563,-3,-1,-3,-3,-2,-2,-1,0
1513482772729563,1,-1,-3,-3,-1,-2,-2,-2
1513482772730560,-3,0,-1,-1,0,0,0,0
1513482772730560,1,-1,0,0,-2,0,-2,-1
1513482772744573,-2,-1,-2,-1,-1,1,0,-2
1513482772744573,1,-1,1,-3,-3,0,1,-1
1513482772744573,0,0,0,-1,0,-1,-1,1
1513482772744573,-1,0,-2,-1,-2,-1,-1,-2
1513482772767598,-2,-2,0,-1,-2,-2,-3,-1
1513482772767598,-3,0,0,0,-2,0,-1,-1
1513482772768598,0,-1,0,-1,0,-2,-1,-1
1513482772768598,-2,-1,0,-1,1,0,-1,-1
1513482772789601,0,1,0,-1,-2,-2,0,-1
1513482772789601,-1,-2,-1,-1,-1,-1,-1,0
1513482772790607,0,-2,0,-2,-3,-2,-2,0
1513482772790607,0,-2,-1,-2,-1,1,-1,0
1513482772812618,-2,0,-1,1,-2,0,0,-5
1513482772812618,0,0,-2,-1,-1,-3,-2,1
1513482772813618,0,-2,0,0,-1,-2,-2,-1
1513482772813618,0,-1,-3,0,0,-1,-1,0
1513482772827627,-2,-1,0,-2,-2,-1,-2,1
1513482772827627,-1,0,-2,0,-1,0,0,-2
1513482772828628,-1,-2,-2,-1,-1,1,-1,-3
1513482772828628,-1,-1,0,-1,-1,-1,0,-1
1513482772849644,0,0,-1,0,-2,-3,1,0
1513482772849644,-2,-1,-2,1,-3,-2,-1,-2
1513482772850645,0,-1,-2,-2,1,-1,-1,-1
1513482772850645,-1,-2,-1,-2,1,-2,0,-2
1513482772863679,-1,-1,-1,-2,-1,-2,-1,-2
1513482772863679,-2,-2,0,-1,-2,0,0,-2
1513482772864666,-2,-2,-2,0,-2,1,-2,0
1513482772864666,-1,-2,-1,0,-2,-3,-1,-1
1513482772887670,-1,-1,-1,-1,0,0,1,-1
1513482772887670,0,0,-1,0,0,-2,-1,0
1513482772887670,0,-2,-2,0,-1,0,-1,0
1513482772887670,-1,-2,-2,-3,-1,-1,-1,-1
1513482772909685,-2,0,0,-1,-2,1,0,-1
1513482772909685,-3,1,-1,-2,-1,1,-2,-1
1513482772910703,-2,0,-2,-1,0,-1,-2,1
1513482772910703,-2,-1,-1,-1,-2,-2,0,-1
1513482772923694,-2,0,-2,-1,-3,-1,1,-2
1513482772923694,-2,-2,-3,-2,-2,-1,-1,-2
1513482772924697,1,0,0,-1,-1,-3,-2,-2
1513482772924697,0,-3,-1,-1,-2,-2,-1,-1
1513482772947794,-2,-1,0,-1,-1,0,0,-1
1513482772947794,-3,-2,1,0,0,0,-1,-1
1513482772947794,-1,-1,0,-2,0,-2,0,-2
1513482772947794,0,1,-2,-1,0,-2,-3,1
1513482772969797,0,-2,-1,-1,-2,-1,-1,-2
1513482772969797,-1,-1,-2,-1,-1,-3,0,2
1513482772970778,0,0,-2,-1,-1,1,-2,0
1513482772970778,-2,-1,-1,-2,0,0,-2,-4
1513482772983794,0,-3,0,-1,-1,0,0,-1
1513482772983794,0,0,-1,-1,-3,0,-2,-1
1513482772984792,-1,-2,-2,-1,0,-2,-2,1
1513482772984792,0,-3,-2,-2,-1,-1,0,0
1513482773007805,-1,0,0,0,0,-2,-1,-2
1513482773007805,-3,0,-1,-1,-1,-1,1,-2
1513482773007805,1,0,-1,-2,-1,-1,-2,-1
1513482773007805,-1,1,-1,-1,-1,-2,0,1
1513482773029822,-1,0,-1,-2,-1,0,0,-1
1513482773029822,1,0,0,0,-1,-1,0,0
1513482773030821,1,-1,-3,0,1,-1,-1,0
1513482773030821,0,-2,1,-2,0,0,-1,-2
1513482773043842,-2,-1,0,-1,-2,-1,-1,-2
1513482773043842,-3,-1,-1,-2,-2,-1,-2,-2
1513482773045831,-1,-1,0,-2,0,-3,-3,-1
1513482773045831,-1,1,-3,0,-1,0,-2,0
1513482773066847,-1,0,-1,-1,-3,-2,0,0
1513482773066847,-1,-2,-1,0,-1,0,-1,-1
1513482773067846,-2,0,0,0,0,-2,0,-2
1513482773067846,-2,-1,-2,-2,-1,-2,-1,-2
1513482773089862,-2,-1,0,-2,-3,-1,0,0
1513482773089862,-1,-1,-1,-2,-1,-1,0,-3
1513482773090864,0,0,-2,-1,0,0,-3,-1
1513482773090864,-3,0,0,0,-1,0,-1,-3
1513482773103929,-3,-1,-2,-2,-1,-2,1,-1
1513482773103929,1,-2,-1,-2,-1,-1,-1,0
1513482773104874,-2,-1,-1,-1,0,-2,0,-1
1513482773104874,-1,-1,0,0,0,-1,-1,-1
1513482773127895,-1,-1,-2,0,-3,0,0,-1
1513482773127895,-3,-2,-1,1,-1,0,0,0
1513482773127895,0,-1,-3,-1,0,-1,-2,-2
1513482773127895,-1,-1,-2,-1,-1,-1,-2,-2
1513482773150915,-1,0,0,-1,-3,-2,1,-1
1513482773150915,1,0,-2,-1,-1,-2,-1,1
1513482773151907,0,-1,-2,-2,0,-2,0,1
1513482773151907,-1,-2,-1,-1,-2,0,-2,-1
1513482773163916,0,0,-2,-1,-1,-1,-1,-2
1513482773163916,-3,-2,-1,-1,-1,-1,-3,-3
1513482773164917,1,-1,-2,-1,-1,1,-4,-1
1513482773164917,0,0,-2,-3,1,0,-2,-1
1513482773186945,-2,-2,-2,0,-2,0,-1,-2
1513482773186945,-1,0,1,0,-2,-1,-2,-1
1513482773187931,0,-1,-1,-2,0,-2,-2,-1
1513482773187931,2,-1,-2,-1,-1,-2,0,1
1513482773210006,1,-1,-1,-1,-2,0,-1,-1
1513482773210006,-2,-1,-1,-2,0,-1,0,-1
1513482773211008,0,-2,-1,-2,0,-1,-1,1
1513482773211008,-1,-1,-1,0,-2,-1,-1,-2
1513482773224006,-3,0,-3,-1,-2,-1,0,-1
1513482773224006,2,-1,-1,-1,-2,-1,-1,-3
1513482773225017,0,0,-1,-1,0,0,-2,-1
1513482773225017,-2,-2,0,0,-1,-2,-1,1
1513482773247025,0,-1,-1,1,-2,-1,-2,-1
1513482773247025,0,-1,-1,-1,0,-1,0,-2
1513482773248023,0,-1,-2,-2,1,-1,-2,0
1513482773248023,-1,-1,0,-2,-1,-2,2,-1
1513482773270042,-2,-3,-1,-1,-1,-2,-1,1
1513482773270042,-2,-1,-1,-2,-1,-1,-1,0
1513482773270042,1,-2,0,-1,-3,-2,-3,-3
1513482773270042,-1,0,-1,-1,-1,-1,-2,1
1513482773283060,-4,-2,1,-1,-1,-2,1,-2
1513482773283060,0,1,-2,-1,-1,-1,0,-1
1513482773292093,0,-1,-1,0,0,-2,0,0
1513482773292093,-2,-2,-2,-2,-1,1,-1,0
1513482773307131,-1,-1,-1,-1,-3,1,0,-2
1513482773307131,-1,-1,1,-1,-1,-2,-2,-1
1513482773308065,0,-2,-1,-2,-3,-1,-2,0
1513482773308065,-1,-1,0,-1,-2,-1,-2,-1
1513482773330113,-2,1,1,-2,-3,-1,-2,0
1513482773330113,-1,-1,-1,-1,-4,0,0,-1
1513482773330113,-1,-1,-1,-2,0,-1,-1,-1
1513482773330113,1,0,-3,-1,0,0,-1,0
1513482773343102,-3,-2,-3,0,-2,-2,-1,-1
1513482773343102,-1,-1,0,-1,-1,-1,-1,-1
1513482773352117,0,-1,-2,0,-2,-3,-2,0
1513482773352117,0,0,-1,0,0,-1,-1,-3
1513482773367116,-2,0,-1,-1,-3,0,1,0
1513482773367116,-3,-1,-1,-1,-1,-1,-2,-1
1513482773368108,-1,-2,-1,0,-1,-1,0,-1
1513482773368108,-1,-1,-2,-2,-2,-1,-1,0
1513482773390165,-1,0,-1,0,0,-2,0,-1
1513482773390165,-1,0,0,0,0,-1,0,0
1513482773390165,-2,-1,-2,-1,-1,1,-2,-1
1513482773390165,-1,-3,-3,0,-1,-2,-2,-1
1513482773403155,-2,-1,-1,-3,-2,-2,-1,-3
1513482773403155,-3,-1,-2,-1,-3,0,-2,-1
1513482773412142,-1,-1,0,-1,0,-2,-1,-1
1513482773412142,-1,1,0,0,-2,-1,0,0
1513482773427169,1,-1,0,-2,-3,1,-1,0
1513482773427169,-2,0,-2,1,0,-1,-1,-2
1513482773428154,-1,0,-2,-3,1,0,-1,-2
1513482773428154,-1,-2,-2,-1,-2,-2,-2,-1
1513482773450169,-1,-2,-1,-1,-1,-3,-1,-1
1513482773450169,0,-1,1,0,-3,-1,-1,0
1513482773451168,0,-1,-2,-1,-1,1,-3,-2
1513482773451168,-2,-2,-1,-2,-1,-1,-2,-2
1513482773463189,-2,0,-2,-2,-2,0,3,-1
1513482773463189,0,-1,-2,-2,-2,-2,-2,1
1513482773472204,0,-2,-2,0,-1,-2,-1,1
1513482773472204,0,-1,-1,-2,-1,0,-1,-2
1513482773487215,-1,-2,0,-2,-1,-2,-2,-1
1513482773487215,-1,0,-2,-2,-2,-1,1,0
1513482773488198,0,-1,-1,-1,-1,-1,-3,-2
1513482773488198,0,-1,-3,-1,1,-3,-1,-1
1513482773510222,-3,1,-1,0,-2,1,0,-1
1513482773510222,0,-1,-2,-2,-2,0,-1,-2
1513482773510222,1,-2,-1,-2,-1,-1,-1,-1
1513482773510222,-2,-1,0,-2,-1,1,0,-1
1513482773523231,-1,-2,-3,-1,-3,-1,0,-2
1513482773523231,0,-1,-1,-1,-2,0,-1,0
1513482773531233,-2,-1,0,0,1,-1,-2,-1
1513482773531233,0,-2,0,-1,-1,-2,-2,-1
1513482773547256,-4,1,-1,-1,0,-2,1,-2
1513482773547256,-1,0,0,-1,1,-2,0,-3
1513482773548241,-1,-1,-1,-2,1,-1,-2,0
1513482773548241,0,-1,-1,-1,-1,0,-2,-3
1513482773570253,1,-1,0,0,-2,0,-3,0
1513482773570253,0,-1,-1,-1,-3,-1,-1,-1
1513482773571254,-2,-1,-2,-4,-1,0,-2,2
1513482773571254,-2,-2,-2,0,1,-2,-2,-2
1513482773583275,-2,0,0,0,0,1,-1,0
1513482773583275,-2,-1,-2,0,-2,0,-1,-2
1513482773592272,0,-1,-1,0,0,-1,-3,0
1513482773592272,-1,0,0,-1,-1,2,0,0
1513482773607301,-3,-1,-1,-2,-1,-3,1,-3
1513482773607301,-2,-1,0,-2,-3,-1,-1,-1
1513482773613303,0,0,-1,-1,0,0,-2,-1
1513482773613303,-1,-2,-2,-2,-1,-2,1,-1
1513482773630316,-1,-1,0,-2,-2,-2,1,-2
1513482773630316,-1,0,-1,0,-1,-1,3,0
1513482773631295,-1,-2,-1,-1,1,-3,-2,-2
1513482773631295,-1,0,-2,-2,-1,0,-3,1
1513482773652311,-1,-1,-2,-1,-3,-1,-1,-2
1513482773652311,-1,-2,-2,-1,0,-2,0,0
1513482773654312,1,-3,0,-1,0,-1,-2,-1
1513482773654312,-1,-1,-2,-1,0,-1,0,-1
1513482773666333,-1,-1,-1,1,-3,-2,-1,-3
1513482773666333,0,0,-1,-2,-1,0,0,-1
1513482773673325,-2,1,-1,0,-1,-1,-1,0
1513482773673325,1,-2,1,-1,0,-2,-3,-1
1513482773689349,-2,0,-2,-2,-3,-2,1,0
1513482773689349,-1,-1,-1,-1,-1,-2,-1,-1
1513482773691339,0,-2,-1,-2,-1,0,0,-2
1513482773691339,-2,-1,0,-1,-2,-1,-2,-3
1513482773712373,-2,-1,0,1,-2,2,-1,1
1513482773712373,-1,-1,0,1,1,-2,-3,-1
1513482773714353,1,-1,-2,-1,0,-2,-1,-1
1513482773714353,-1,-2,-2,-1,-1,0,-1,-4
1513482773726383,-2,-1,1,-1,-2,-1,-2,-2
1513482773726383,1,0,0,-1,-1,0,-2,-1
1513482773733366,1,0,-2,-1,-2,0,-3,0
1513482773733366,-2,-1,-1,-2,0,-2,-1,1
1513482773749399,-2,0,0,0,-2,-2,-1,-2
1513482773749399,-2,-2,0,-1,-2,0,-1,-2
1513482773751380,0,-1,-1,-1,1,-2,-3,-3
1513482773751380,-2,-1,-1,-1,-2,0,1,-2
1513482773772415,-1,0,-1,-1,-4,-1,1,-2
1513482773772415,-2,-1,-1,-2,-1,1,-3,0
1513482773774396,-1,-1,-2,0,0,0,-2,0
1513482773774396,-1,1,-2,-2,-1,-2,0,-1
1513482773786404,-1,-1,-1,-1,-2,0,1,-1
1513482773786404,0,-1,-2,-2,-1,-2,-1,-1
1513482773793409,0,-3,-2,-2,0,-1,-1,1
1513482773793409,0,-2,0,-1,0,-1,-1,0
1513482773809433,-1,-1,-1,-1,-2,-1,0,-1
1513482773809433,-1,1,-1,-1,-2,-2,0,0
1513482773811422,-1,0,-2,-2,1,-2,-3,-1
1513482773811422,0,-3,-1,-2,-1,1,0,-2
1513482773832459,-2,-2,-1,-2,-1,0,1,-1
1513482773832459,0,-2,-1,-1,-2,-1,-1,-2
1513482773833447,1,-2,-2,-2,-1,-1,-1,0
1513482773833447,-2,-1,-1,-2,0,-2,0,-1
1513482773846468,-4,-2,0,0,-1,-1,0,-4
1513482773846468,-1,-1,-1,-1,-1,-1,-2,0
1513482773853452,-1,-2,-1,-2,0,-1,-2,-2
1513482773853452,-3,-1,-1,0,-2,-2,-1,1
1513482773870465,-1,0,0,-1,-2,0,-1,1
1513482773870465,-3,0,-1,-2,-2,-2,-1,1
1513482773871464,0,0,-3,-2,-1,-1,1,0
1513482773871464,-2,-2,-2,-2,-2,0,-1,-2
1513482773892496,-1,-1,-2,-2,-1,-2,0,-2
1513482773892496,-1,-1,-1,-1,-3,-1,0,0
1513482773893479,0,-1,-2,-1,2,-2,-2,-3
1513482773893479,-2,-2,-2,0,-2,-2,-2,-1
1513482773906507,-4,-1,-1,1,-1,0,-1,-2
1513482773906507,0,0,-1,-1,-1,1,1,-3
1513482773913511,0,-2,-1,-1,-1,-2,-2,0
1513482773913511,1,-1,1,-1,-2,-3,-1,-2
1513482773929515,-1,1,-1,-1,-2,-3,1,-1
1513482773929515,1,0,0,-2,-1,-1,-1,0
1513482773931506,-1,-2,0,0,-1,-1,-2,1
1513482773931506,-2,-1,-1,-2,-1,-1,0,0
1513482773952531,1,-2,-2,0,-2,0,-1,1
1513482773952531,-2,-1,-1,-2,-3,0,-1,-2
1513482773953522,-1,-2,-1,-1,-2,-1,-1,-1
1513482773953522,-1,-1,-1,0,0,-1,-2,-1
1513482773966545,-2,-1,1,-1,-1,-2,0,-2
1513482773966545,-1,-1,0,-2,-2,-1,-3,-2
1513482773973550,-1,-1,-3,-1,0,0,-2,0
1513482773973550,-1,0,-1,-3,-1,-1,-1,2
1513482773990569,-2,0,0,-3,-2,-1,0,-2
1513482773990569,0,-1,-1,0,0,0,-2,-1
1513482773992571,-1,-2,-2,-1,-1,-1,-2,-2
1513482773992571,1,-2,-2,-1,0,-3,-1,-2
1513482774012573,-1,-2,-2,-1,-1,0,-1,-1
1513482774012573,-1,-1,-1,0,0,-1,-1,2
1513482774013574,-1,-2,-1,-1,-1,-3,-3,0
1513482774013574,-1,-2,-2,-1,-2,-1,-2,-2
1513482774026585,-2,-1,0,0,-2,0,0,-2
1513482774026585,-1,0,-3,-2,-2,-1,-1,-1
1513482774033595,1,0,-1,-2,-2,0,0,1
1513482774033595,-1,-1,-1,-1,-2,3,-2,-1
1513482774057615,-3,1,0,-1,-3,-2,-2,-2
1513482774057615,0,-1,0,-1,-2,-3,-2,-1
1513482774058597,0,-2,0,-2,0,-1,1,-2
1513482774058597,-1,0,-2,-2,-2,-2,0,0
1513482774072609,-3,-1,-1,0,-2,-1,-1,0
1513482774072609,-1,-2,0,1,-1,-1,-2,-1
1513482774073610,0,-2,-1,-1,-1,-1,-2,-1
1513482774073610,0,-1,0,-1,0,-1,-1,-1
1513482774086635,-1,0,-2,1,-2,0,-1,-1
1513482774086635,-2,-2,0,-1,0,-2,-1,-2
1513482774093639,-1,-1,-2,-1,1,0,-1,1
1513482774093639,-1,-1,-2,0,0,0,0,1
1513482774109645,-3,-1,-1,-2,-2,-3,1,-2
1513482774109645,-2,1,-1,-1,-2,-1,-1,0
1513482774111645,-2,-1,-1,-1,0,-1,0,-1
1513482774111645,-1,0,0,-1,-1,0,0,-1
1513482774132672,0,0,-1,-1,-3,1,-1,-1
1513482774132672,-1,-2,-2,0,-1,-1,-1,-1
1513482774134652,0,-1,-1,-2,0,-2,-2,-2
1513482774134652,-1,-1,-1,-1,-2,-1,-1,-1
1513482774145661,0,-3,0,-1,0,0,0,1
1513482774145661,-1,-1,-1,-2,-1,-1,1,0
1513482774154665,0,-2,-2,0,0,-1,-3,0
1513482774154665,-3,-1,-1,-1,-1,-1,-2,-3
1513482774169691,1,-2,-2,0,-4,-1,-2,0
1513482774169691,0,-1,-1,0,-2,0,-2,0
1513482774171692,-2,-2,-2,-1,-1,0,-1,1
1513482774171692,-1,-3,-1,-2,-2,-2,-2,-2
1513482774192703,-4,-1,-1,-1,-2,-1,0,-2
1513482774192703,-2,-2,-2,-1,-2,-1,-1,-2
1513482774193701,0,-1,-2,0,0,0,-2,0
1513482774193701,0,-1,-2,-2,-2,-1,0,-1
1513482774205702,0,0,-2,0,-2,-2,-1,0
1513482774205702,0,-2,-1,-1,0,-1,-1,0
1513482774215716,-2,0,0,-1,-2,0,-3,-3
1513482774215716,-2,0,-2,0,-1,-1,0,0
1513482774229737,1,0,1,-2,-2,0,0,-2
1513482774229737,-1,-2,-2,-1,-1,-1,0,-1
1513482774231738,0,-3,-1,-3,0,-1,-3,0
1513482774231738,-3,-1,-2,0,-1,0,-1,1
1513482774252745,-1,-2,-2,-1,-2,-1,1,0
1513482774252745,0,-1,0,-2,1,-1,-1,-1
1513482774253735,-1,-1,-2,0,-2,-2,-3,1
1513482774253735,-1,-2,0,0,-1,0,0,-2
1513482774265751,-2,0,0,-1,-1,-2,0,-1
1513482774265751,0,-3,-2,-2,1,-2,-2,-3
1513482774274750,-2,-1,-2,-1,0,-1,0,-2
1513482774274750,0,0,-2,-1,0,-1,-1,-1
1513482774289760,1,-1,-1,0,-2,0,-2,-1
1513482774289760,-1,-1,0,-1,-1,0,0,-1
1513482774291761,-1,-2,0,-1,1,-3,0,0
1513482774291761,0,-1,-2,-2,-3,0,-1,0
1513482774312787,0,-1,0,-1,-1,0,-1,-1
1513482774312787,0,-1,-2,0,-1,-2,-2,0
1513482774313779,1,-2,-1,-3,0,0,-4,-1
1513482774313779,-1,-1,-2,0,1,-1,-2,-2
1513482774334804,-2,-1,-1,-1,-2,-1,0,-1
1513482774334804,0,-2,0,-1,-1,-2,-3,0
1513482774336796,2,-1,-1,-3,0,0,2,0
1513482774336796,-2,-2,0,0,-3,-2,0,-1
1513482774349810,-2,0,-1,0,-3,-1,-1,-1
1513482774349810,-2,0,-1,-1,-2,0,0,-1
1513482774351804,-3,-1,1,-1,0,-2,-2,-2
1513482774351804,-1,-2,-1,0,-1,-1,-1,-1
1513482774371818,-2,-1,0,-1,-1,-3,-1,0
1513482774371818,-1,-1,-1,-1,-2,0,-1,0
1513482774373818,1,0,-3,-1,-1,-2,-2,-4
1513482774373818,-1,-1,-1,-1,-3,-2,-1,-1
1513482774385839,-1,1,-1,-3,-3,0,1,-1
1513482774385839,-2,0,-2,-1,1,-1,0,0
1513482774394833,0,-1,-1,-1,-1,-1,0,-1
1513482774394833,-3,-1,-2,-1,-2,-1,-1,-3
1513482774409856,0,-1,0,-1,-1,-3,0,-1
1513482774409856,0,-2,0,0,-1,-1,-1,1
1513482774411857,-1,-3,-3,-1,0,-1,-1,-1
1513482774411857,0,-1,0,0,-2,-1,-2,-1
1513482774432870,-3,-1,-2,0,-1,1,-1,-3
1513482774432870,0,0,-2,-1,-2,-2,-1,-2
1513482774434897,0,0,-1,-1,0,-1,-2,-1
1513482774434897,0,0,-2,-2,-1,0,1,-1
1513482774445894,0,-1,-2,0,-2,-1,0,-1
1513482774445894,1,1,-1,-1,0,-1,-1,-2
1513482774454877,-2,-3,-1,-2,0,-2,0,0
1513482774454877,-1,-1,0,-3,0,0,0,0
1513482774469931,-3,-3,-2,-2,-1,-1,-1,0
1513482774469931,-3,0,-2,0,-2,-1,-2,0
1513482774475936,1,-1,0,-2,-1,-2,-1,1
1513482774475936,-3,-1,-1,0,-1,-1,1,-2
1513482774491990,-1,-1,0,-1,-2,0,0,-1
1513482774491990,1,-1,0,0,-1,-1,-3,-1
1513482774493949,-2,-2,-4,-2,0,-3,-3,0
1513482774493949,0,-1,-1,-1,1,-2,1,1
1513482774505986,-3,0,-1,0,-1,0,-1,0
1513482774505986,-1,0,-1,-2,0,-1,-3,-2
1513482774514963,-1,-2,0,-1,-3,1,0,-3
1513482774514963,-2,-1,-1,0,-2,-2,0,-2
1513482774529995,-2,0,1,-2,-1,0,-3,-2
1513482774529995,-1,-2,-1,-1,-1,-1,-1,-1
1513482774531990,-2,-1,0,-1,0,-3,-2,1
1513482774531990,-2,0,0,-2,-1,0,0,-2
1513482774560005,-2,-1,1,1,-1,-3,-1,1
1513482774560005,1,-1,0,0,1,-2,-1,-2
1513482774561006,1,-2,0,-2,-1,1,0,-1
1513482774561006,-2,-1,-1,-1,-3,-1,1,-2
1513482774575070,-2,-1,-1,0,-1,-1,0,-2
1513482774575070,-1,-1,-2,-2,1,0,-3,1
1513482774576063,-2,-1,-3,0,1,-1,0,0
1513482774576063,-1,-1,0,-1,-1,0,-1,-1
1513482774590080,-1,1,0,-1,-3,-1,-1,-3
1513482774590080,1,-3,-2,-1,-2,-1,-1,0
1513482774591073,0,-1,-1,-2,-1,-2,-3,-2
1513482774591073,-2,-3,-1,1,-1,0,0,0
1513482774612155,-1,-2,-3,0,-1,0,1,-2
1513482774612155,-2,-1,-1,0,-1,0,0,-2
1513482774614167,-2,0,-2,-2,-2,-1,0,0
1513482774614167,-2,-2,2,1,0,-2,-1,-1
1513482774635168,-1,-2,-1,-1,-2,-1,0,0
1513482774635168,-1,-2,0,-1,-1,0,-2,2
1513482774636169,-2,-1,-1,0,-1,0,0,-3
1513482774636169,-2,-2,-1,-2,-2,-1,0,0
1513482774650179,-1,0,0,0,-3,-2,-2,-2
1513482774650179,0,-1,-2,-2,0,0,0,-2
1513482774651180,-3,-1,-1,-1,-1,-2,-1,1
1513482774651180,-2,0,-2,-2,-1,-1,-2,-1
1513482774672194,-3,0,1,0,1,-1,0,-2
1513482774672194,0,-1,-3,-1,-2,-2,-1,-1
1513482774674195,-1,-1,-1,0,0,0,-2,-1
1513482774674195,-1,-1,-1,-3,-3,1,2,0
1513482774695230,-1,-2,-1,0,-1,-1,-1,0
1513482774695230,1,-1,0,-1,0,-2,-1,1
1513482774696210,0,-1,1,-1,1,-1,-3,-1
1513482774696210,-2,-1,-1,0,-1,0,-1,0
1513482774710227,-1,-1,-1,-2,-2,0,-1,-1
1513482774710227,-2,-1,-3,-2,-1,0,-2,0
1513482774711235,1,0,-3,-2,-1,-2,-1,1
1513482774711235,-4,-1,-3,-1,-1,0,-1,-1
1513482774732237,-2,-1,-2,-1,0,-2,1,0
1513482774732237,-1,0,0,-1,-2,-1,-1,-3
1513482774734238,1,-3,-2,0,1,-1,0,1
1513482774734238,-1,-2,-1,0,-2,0,-2,-1
1513482774755267,-1,-1,-1,-1,-3,-2,0,-2
1513482774755267,-1,-3,1,0,-1,-2,-1,0
1513482774756253,0,0,-2,-1,-1,-1,-3,-3
1513482774756253,-1,2,-1,-1,-1,-2,0,-1
1513482774769265,-1,-2,0,-2,-2,0,-3,2
1513482774769265,0,0,-1,-1,-1,-2,0,0
1513482774776288,-2,-2,0,-1,-1,-2,-1,-1
1513482774776288,-3,-2,0,0,-1,-1,0,-2
1513482774792293,1,1,-2,-1,-2,-2,0,-1
1513482774792293,1,-1,-1,-1,2,0,-2,-4
1513482774794295,-1,-2,-3,-2,-1,1,-2,-2
1513482774794295,-4,-2,0,-2,-3,-2,-2,-3
1513482774814310,-2,-1,0,-1,-1,0,-2,-1
1513482774814310,-1,-2,-1,-2,1,-2,-4,3
1513482774818297,1,-2,0,-1,-1,-1,-1,-3
1513482774818297,1,0,-2,-1,-1,-3,-1,-1
1513482774829330,0,0,-1,0,-1,-2,1,-1
1513482774829330,-2,1,-1,-1,-1,0,0,0
1513482774836320,-2,-1,-2,-1,0,1,-2,-1
1513482774836320,-3,-1,-1,-1,-2,-1,0,-1
1513482774852322,0,-2,-1,-1,-2,-1,1,-2
1513482774852322,0,-1,-2,-1,-2,0,-3,0
1513482774854361,-2,-2,2,-2,-1,-2,1,0
1513482774854361,0,-1,-1,-1,-4,0,-1,-2
1513482774874354,-3,1,0,-2,-1,1,-3,0
1513482774874354,-1,-3,0,-1,-2,-1,-1,-1
1513482774876347,-2,0,-1,-2,-1,0,-1,-1
1513482774876347,-3,-1,-1,0,-1,-2,1,1
1513482774888361,-3,-1,-1,0,-2,-1,1,-1
1513482774888361,1,0,-2,-1,-1,0,-3,0
1513482774897354,-1,-1,-1,1,-2,0,-2,-2
1513482774897354,-1,-2,0,0,-2,-2,2,-1
1513482774912374,0,-1,-2,0,-2,-1,-3,1
1513482774912374,-1,0,-1,1,1,-1,-1,-3
1513482774914375,-1,-2,-2,-3,-1,0,1,-2
1513482774914375,-2,0,-1,-2,-1,-1,0,-1
1513482774934380,-2,-3,0,-2,-1,-2,0,-3
1513482774934380,1,-1,-2,-1,-2,-2,-2,0
1513482774936380,-1,-1,-2,-1,-2,-1,0,-1
1513482774936380,1,0,0,-2,-2,0,0,0
1513482774949400,-1,0,-2,-2,-1,-1,0,-1
1513482774949400,-2,-1,0,-1,0,-2,0,-1
1513482774956405,-1,0,-1,0,-2,-1,1,1
1513482774956405,-2,0,-2,-1,-2,-2,-3,-2
1513482774972406,-1,-1,-1,-1,-2,-1,0,0
1513482774972406,0,-2,0,-1,1,-1,-2,-1
1513482774974409,0,0,-1,-2,0,-2,-4,0
1513482774974409,-1,-2,-1,-1,0,-1,0,-2
1513482774994449,-1,0,-1,-3,-2,0,-2,0
1513482774994449,-1,-2,-3,-2,-1,-1,-1,-1
1513482774996425,1,-2,-2,-1,0,0,-2,0
1513482774996425,-1,0,-1,0,-3,-2,1,-1
1513482775009445,-1,0,-2,0,0,-1,1,-3
1513482775009445,-1,0,0,-2,-1,-1,-2,0
1513482775016438,-1,-1,-1,-2,-1,-1,-2,-2
1513482775016438,-3,-1,-1,-1,-3,0,0,1
1513482775032464,-3,-1,0,1,-1,0,-2,0
1513482775032464,0,-2,0,1,0,-2,-2,-2
1513482775034467,-1,-1,1,-1,-1,-1,-2,-3
1513482775034467,-3,-2,0,0,-2,-1,0,-2
1513482775054465,-1,-2,0,0,-2,-2,-1,-2
1513482775054465,0,-1,-3,-1,1,-1,-1,-2
1513482775056476,0,-2,-1,-1,0,0,0,0
1513482775056476,-2,0,0,-1,-2,0,0,0
1513482775068499,-1,1,-1,-1,-2,0,-3,1
1513482775068499,-1,0,-1,-2,-1,-1,-2,-2
1513482775077506,0,-1,-1,-2,0,-3,-1,-1
1513482775077506,1,0,-1,0,-1,-1,0,-1
1513482775092492,-1,-2,-1,-1,-2,-1,1,-1
1513482775092492,0,-2,-3,-1,-1,0,-1,-1
1513482775093492,-1,-1,-1,-1,-1,-1,-1,-1
1513482775093492,0,-1,1,-2,-2,2,-2,-1
1513482775114522,-3,-1,-2,0,-2,0,-2,-2
1513482775114522,0,-3,-2,-1,0,-1,-2,1
1513482775116511,-2,-2,-1,-1,0,-1,-2,1
1513482775116511,0,0,-1,-1,-2,-1,0,0
1513482775128517,2,0,1,0,-2,-2,-2,-1
1513482775128517,-2,0,-1,-1,1,-1,-3,0
1513482775137523,-1,0,-1,-1,-1,-1,-1,-2
1513482775137523,-2,-1,-1,-1,-1,-2,0,-1
1513482775152533,-1,-3,-1,-2,-2,-1,0,0
1513482775152533,-3,-1,0,0,-1,-2,1,0
1513482775153534,-1,-2,-3,-1,0,-1,-2,0
1513482775153534,-3,-2,-1,-1,-1,0,-2,-3
1513482775174564,-2,-1,-1,0,0,-2,-2,0
1513482775174564,0,-2,-1,-1,0,0,-3,-3
1513482775176568,-4,-1,-2,0,-2,-2,1,-1
1513482775176568,0,-1,-2,-2,-1,-3,-1,-1
1513482775188573,0,-1,-2,-3,-2,-1,-1,-1
1513482775188573,0,-2,-2,-1,0,0,-1,1
1513482775197566,-1,0,-2,-1,1,0,-1,-1
1513482775197566,-2,-1,-2,0,-2,0,2,-3
1513482775212590,-1,-1,-2,-2,-1,-1,-1,0
1513482775212590,1,-1,-2,-1,-1,0,0,1
1513482775213578,1,-2,0,-1,-3,-1,-1,-1
1513482775213578,-1,-1,0,-1,-3,-1,0,-2
1513482775234599,-3,-1,0,1,-2,0,0,-1
1513482775234599,0,-1,0,-2,0,-2,-2,-1
1513482775237611,-1,-1,-1,-1,-3,-2,-1,-1
1513482775237611,-3,-1,-2,-1,-3,-2,-1,-2
1513482775248636,-4,-1,-1,0,-1,-2,-2,-4
1513482775248636,-2,-1,-3,-3,0,-1,-3,1
1513482775257623,1,-1,1,-2,0,-1,0,0
1513482775257623,-3,0,-1,-2,-3,-2,0,1
1513482775272633,0,-1,-2,-1,-1,-1,-1,-1
1513482775272633,1,-1,0,-1,-1,-3,-1,-1
1513482775273635,-1,-1,-2,-2,-2,0,-1,-1
1513482775273635,-3,-3,-1,-1,0,1,-1,0
1513482775294650,1,-4,0,-1,0,-1,-1,0
1513482775294650,-1,-1,0,-1,-1,-2,-2,-1
1513482775296677,-2,0,1,0,0,-1,-1,0
1513482775296677,0,1,1,-2,-3,-1,0,-2
1513482775308653,0,2,-1,0,-1,1,0,-1
1513482775308653,1,-1,-1,-3,0,0,0,-2
1513482775317660,-1,-2,-2,-1,-1,-1,-1,-2
1513482775317660,-3,-1,-1,0,-1,-3,-1,-2
1513482775332678,-1,0,0,-2,-2,-2,0,-2
1513482775332678,0,-1,-3,-1,0,-1,-1,-1
1513482775334673,0,-1,-1,-2,0,-1,0,-1
1513482775334673,-2,1,-1,1,-2,1,0,-1
1513482775354686,-2,0,-1,1,0,0,0,-1
1513482775354686,-1,0,0,-2,-1,-1,-2,-1
1513482775356699,-2,-2,-2,-2,-2,-1,-1,-1
1513482775356699,-2,-2,0,0,0,1,-2,0
1513482775368696,-2,-1,0,-3,-1,0,-3,0
1513482775368696,1,-3,-3,-2,0,-1,-2,-3
1513482775377702,-1,-2,-1,-2,-2,-2,1,-3
1513482775377702,-2,-2,-1,-3,-3,-2,1,-2
1513482775392704,-1,0,0,-3,-3,0,0,1
1513482775392704,0,-2,-2,-1,-1,-1,-3,0
1513482775393704,-1,-2,-3,0,0,1,-2,-1
1513482775393704,-3,0,-1,0,-1,0,-1,-1
1513482775414718,1,0,-1,-1,-1,-1,2,0
1513482775414718,-2,-1,-2,1,0,-2,-3,-1
1513482775417732,1,-1,-1,-1,-1,-1,1,-1
1513482775417732,0,0,-2,-2,-1,-1,0,0
1513482775428751,0,-2,-1,1,-1,-1,-3,-1
1513482775428751,-1,-2,-1,-1,-2,0,-2,-3
1513482775437736,-1,0,-3,0,-2,0,-3,-1
1513482775437736,-1,0,-1,0,-1,1,-1,-2
1513482775452757,-1,-1,0,0,-1,0,1,0
1513482775452757,0,-2,-3,0,-1,-2,-2,2
1513482775455748,-3,0,0,-2,-1,0,-2,1
1513482775455748,0,0,0,-1,-1,-2,-1,-1
1513482775474762,-1,1,-2,-1,-2,-2,-3,-1
1513482775474762,0,-2,-1,-2,1,-2,-1,-1
1513482775476776,-2,-1,-2,-2,1,-1,-1,-1
1513482775476776,-4,-1,1,-1,-3,-1,-1,-2
1513482775488771,-2,-2,-2,-1,1,-2,-1,-2
1513482775488771,1,-2,0,-2,-2,-1,-3,1
1513482775497793,0,-2,0,-1,-1,-1,-1,-2
1513482775497793,0,-1,-3,0,-2,-2,0,-1
1513482775512788,-4,-1,1,-2,-2,0,1,-2
1513482775512788,-1,-2,-1,-2,1,0,-1,0
1513482775514789,1,-2,-1,-1,-1,-1,-2,0
1513482775514789,-1,-2,-1,-1,-3,-2,-1,-1
1513482775534815,-1,0,-1,-1,0,0,-1,-2
1513482775534815,-1,0,-2,-1,0,0,-1,-1
1513482775536815,1,-1,0,1,-4,0,-1,-2
1513482775536815,-1,0,-2,-1,-2,0,-1,-1
1513482775556855,-1,-1,-2,-2,-1,-3,0,-1
1513482775556855,1,-2,0,0,0,0,-1,1
1513482775558821,0,-1,-2,-1,-1,-2,-1,1
1513482775558821,0,-2,-2,0,-3,1,-1,-1
1513482775571830,-1,-3,1,0,-1,-1,0,-2
1513482775571830,-1,-1,-1,0,-1,-1,-1,-2
1513482775573832,-1,-2,-1,-2,-2,0,-1,-1
1513482775573832,-3,1,0,-1,0,0,0,-1
1513482775594864,-2,0,-3,-2,0,0,-3,0
1513482775594864,-1,1,-1,-3,-1,0,-3,-1
1513482775596851,-2,-1,-3,-2,0,-3,0,-1
1513482775596851,0,-2,-1,0,-3,0,-2,0
1513482775616881,1,0,-1,-1,-1,1,0,-1
1513482775616881,1,-2,0,-1,1,-2,-3,-2
1513482775618868,-1,0,-1,-2,-2,-1,-2,-2
1513482775618868,-2,-3,1,-1,-2,-2,0,-1
1513482775631872,-3,-2,-1,1,-1,-2,0,2
1513482775631872,-2,-2,-1,-1,0,-1,-1,-1
1513482775633874,1,-4,-1,-1,0,-1,-2,-3
1513482775633874,-1,-3,-1,-2,-2,0,-2,0
1513482775654911,2,0,0,1,-1,-1,-2,0
1513482775654911,-2,-2,-2,-1,0,-2,0,1
1513482775655900,-3,1,-2,-2,-2,-2,-2,-3
1513482775655900,0,-2,0,0,-2,-2,-1,-2
1513482775676905,-2,-2,-2,-2,-2,1,-3,-1
1513482775676905,0,-1,-1,-2,-1,0,-2,-4
1513482775678906,1,-2,-2,-3,0,-1,-1,0
1513482775678906,0,-1,0,-1,-2,-2,1,0
1513482775691929,1,-1,0,1,-2,0,-1,0
1513482775691929,-2,-1,-1,0,-1,-1,1,1
1513482775698937,-2,0,0,-1,-3,-1,1,-1
1513482775698937,-3,-1,0,-2,-4,0,2,-3
1513482775714946,-2,-1,0,-2,1,-1,-3,-1
1513482775714946,0,0,-1,-1,-1,0,0,0
1513482775717935,-2,0,-2,0,-3,-1,-2,0
1513482775717935,-3,-2,-3,-2,-1,-1,-1,-2
1513482775736972,-1,-4,-1,-1,-2,-3,-1,-2
1513482775736972,-1,-1,-3,-3,0,-2,-2,0
1513482775738949,-4,-2,-2,0,-1,-1,0,0
1513482775738949,-1,0,-2,2,0,0,-2,-2
1513482775751975,-3,-1,-1,-1,-2,0,-3,-1
1513482775751975,0,-1,-2,-1,-2,0,-2,0
1513482775757962,-2,-1,-2,-2,0,-1,-1,0
1513482775757962,-1,-2,0,-1,-2,-1,0,0
1513482775774990,-2,1,-1,-2,-1,-2,-2,-1
1513482775774990,-1,-1,0,0,-1,-2,-1,-1
1513482775775975,0,-1,0,-1,0,0,-1,0
1513482775775975,-3,1,0,-1,-2,-1,0,-1
1513482775796988,0,0,-3,-1,-1,-1,1,0
1513482775796988,0,-1,-2,-2,-1,0,-3,-2
1513482775798991,-2,-1,-2,0,-1,1,1,0
1513482775798991,1,-1,-2,-1,-2,-1,0,-1
1513482775812000,-1,-2,1,-1,-3,-2,-1,-1
1513482775812000,1,-1,-1,-1,0,-3,-1,-3
1513482775818014,0,-2,-1,-1,-1,-1,-1,-3
1513482775818014,-2,1,-1,-2,-3,0,-1,-2
1513482775835030,-1,0,-2,-2,-2,-2,0,-2
1513482775835030,0,-1,-1,-2,0,-1,-3,-1
1513482775836016,-2,-1,0,-2,-1,-2,0,-1
1513482775836016,-1,0,-1,-1,-3,-1,2,0
1513482775857054,-1,-1,-1,-1,0,-2,-2,-3
1513482775857054,0,-2,-1,0,0,-1,-1,-1
1513482775859043,0,-1,-2,-1,-1,0,0,-3
1513482775859043,-2,-3,-1,-2,0,-2,-2,-1
1513482775872042,-1,-1,0,-1,-2,-1,-1,1
1513482775872042,-1,-3,-1,-2,0,-2,-4,-1
1513482775878057,2,-1,-1,-1,1,-2,-1,-1
1513482775878057,-3,-1,-1,0,-1,-2,1,-2
1513482775895075,1,-1,-2,-2,0,0,0,-1
1513482775895075,-3,0,0,-1,-2,-2,-1,-1
1513482775896076,-2,-1,1,-1,-2,0,-2,0
1513482775896076,-2,-2,-1,-1,-1,0,-1,-3
1513482775917104,0,-2,-2,-1,-2,-2,-2,1
1513482775917104,-1,-1,-2,-1,1,0,1,-2
1513482775919076,-2,0,-2,-3,-2,-2,0,-1
1513482775919076,-1,1,0,1,-2,-1,0,-1
1513482775931097,-1,0,0,-1,-2,0,-1,-2
1513482775931097,0,-1,-2,-1,-1,-1,-3,0
1513482775938102,-1,-2,-1,-1,-2,-1,0,-1
1513482775938102,1,0,-1,-1,-3,-1,-1,-1
1513482775955173,-1,-1,-1,0,0,-3,-1,-1
1513482775955173,0,-2,1,-1,0,-1,-1,0
1513482775956150,-1,-3,-1,0,-2,-3,0,-2
1513482775956150,-2,0,0,-3,0,-2,0,-1
1513482775977168,2,-2,-1,0,-3,1,-3,-1
1513482775977168,0,-1,-2,-2,-2,-2,-1,-1
1513482775979181,-2,-1,-2,-2,-1,-1,-1,-1
1513482775979181,-2,-2,0,0,-2,0,0,-1
1513482775991197,-2,-1,0,-2,-1,-3,0,0
1513482775991197,0,-2,-2,0,-1,0,-2,-1
1513482775998254,-1,-1,-1,-1,-2,-1,-2,0
1513482775998254,-1,-1,-1,0,-1,-1,-2,-2
1513482776015267,0,0,0,0,-1,1,-2,0
1513482776015267,-1,-1,0,-1,-2,-1,-1,0
1513482776017259,-2,-1,0,-2,0,-1,-1,-2
1513482776017259,-3,-1,-3,-2,-1,0,0,0
1513482776037271,1,-1,-2,0,-1,-2,-3,-2
1513482776037271,0,-2,-1,-2,1,-2,0,0
1513482776039273,-1,-2,-1,0,-1,0,-1,-2
1513482776039273,-2,0,0,-1,-2,-1,-1,-2
1513482776051271,-4,-1,-1,-2,-1,-1,-2,-2
1513482776051271,-1,0,-3,-1,-1,-1,0,1
1513482776060347,-1,-1,-2,0,-1,-2,-1,0
1513482776060347,0,-2,-2,-1,-1,0,-1,0
1513482776075364,1,0,-1,0,0,0,-1,1
1513482776075364,0,-1,-1,-1,1,-2,0,-4
1513482776076349,-1,1,-2,1,-2,-2,-2,-1
1513482776076349,-1,-1,0,1,-3,-1,0,0
1513482776097377,0,-2,-2,0,1,0,2,-2
1513482776097377,0,-1,-2,-1,-1,-2,0,-1
1513482776099365,1,-1,-1,-1,-1,-2,-1,0
1513482776099365,-1,-1,-1,-1,-3,-2,-3,-2
1513482776111374,-1,-1,-1,-1,-3,1,-1,-1
1513482776111374,1,-2,-2,-2,0,-1,-1,0
1513482776120381,-3,-1,-2,0,0,0,-1,1
1513482776120381,-3,-3,1,0,-1,-3,-2,-1
1513482776135391,0,-2,-1,-3,-2,-3,0,-1
1513482776135391,0,-2,-2,0,-1,0,-3,0
1513482776136397,-3,-1,0,-2,-2,2,0,0
1513482776136397,-1,1,0,-2,-1,-1,2,-4
1513482776157408,-1,1,-2,0,-1,-2,-3,-3
1513482776157408,0,-1,0,-1,-1,-2,-1,-1
1513482776158406,-2,-2,-1,-2,-1,-1,-1,-2
1513482776158406,-1,-2,1,-1,-1,0,-2,1
1513482776171415,-3,-2,-1,-1,-2,-4,0,0
1513482776171415,-1,-1,-1,-1,-2,-1,-1,-1
1513482776179421,0,-1,-2,0,0,0,1,-2
1513482776179421,-1,-1,-1,0,0,0,0,1
1513482776194434,1,-1,-1,-2,-1,-1,-3,0
1513482776194434,-2,-2,-2,-2,0,-2,-3,0
1513482776196433,-3,0,0,-2,-2,-2,0,-3
1513482776196433,1,1,1,-1,-2,-1,-2,-2
1513482776217480,0,-1,-2,-1,0,-2,-1,-2
1513482776217480,-1,-1,0,-1,-3,0,-1,-1
1513482776218458,-1,-3,-2,0,0,-1,-1,-2
1513482776218458,-2,-2,-3,-1,-2,-1,0,-1
1513482776230477,-1,0,0,-1,0,1,-3,0
1513482776230477,-2,0,-1,0,2,-1,-2,-2
1513482776239464,-1,0,-1,-1,-3,-2,-2,-3
1513482776239464,-1,-1,-1,1,-4,0,-1,-2
1513482776254592,-2,0,-2,-1,0,-1,-2,-1
1513482776254592,-2,-2,0,-1,-2,-1,-2,0
1513482776256528,0,-1,-1,0,-2,-1,-1,-1
1513482776256528,-3,-1,0,0,-1,0,0,-1
1513482776277542,0,-2,-2,-1,0,-1,0,0
1513482776277542,-3,-1,-3,0,-1,0,0,-3
1513482776279543,0,1,-1,1,-3,-2,1,-2
1513482776279543,-2,0,-1,-2,-3,-1,0,-1
1513482776290561,-1,-2,-2,-1,0,-1,-2,-1
1513482776290561,0,-2,-2,-3,0,-2,0,1
1513482776299567,-2,-1,-1,-2,-1,-1,0,-1
1513482776299567,-1,-1,-1,-1,-1,-1,0,-1
1513482776315569,-1,0,-1,1,-2,0,-1,-1
1513482776315569,1,0,-1,-1,2,0,-2,-1
1513482776317571,-1,-1,-2,0,0,0,-1,-4
1513482776317571,-2,-1,1,0,-1,-1,0,1
1513482776337604,0,-2,0,-2,1,-2,-1,-1
1513482776337604,-2,0,-1,-2,-2,-3,-1,0
1513482776338589,-2,0,0,0,-2,-1,1,0
1513482776338589,0,-3,-2,-2,0,-2,-1,-2
1513482776350606,0,-1,-2,-1,-2,0,-2,0
1513482776350606,0,-4,-1,-1,-1,0,0,-2
1513482776359613,-3,-3,-1,-2,0,-1,-1,1
1513482776359613,0,0,0,-1,-1,1,-1,-2
1513482776374611,-1,1,0,-1,0,0,-1,-1
1513482776374611,0,0,0,-1,-1,-2,-1,0
1513482776376613,-2,-2,-2,0,-1,0,-1,-2
1513482776376613,-1,1,0,0,-3,0,0,-1
1513482776397637,1,-1,0,-2,0,0,-3,0
1513482776397637,-1,-1,-1,-2,-1,-1,-1,0
1513482776398628,-1,-1,-1,-1,-3,-2,2,0
1513482776398628,-3,-1,-1,0,-1,-1,0,-2
1513482776410646,0,-2,0,0,0,-2,0,0
1513482776410646,-2,-1,-1,-1,1,0,-3,1
1513482776420644,-2,-2,-1,-2,-3,-2,-3,-3
1513482776420644,2,-2,-2,-1,-2,-1,-2,-1
1513482776434656,0,-2,-1,-1,0,-1,-2,0
1513482776434656,1,-2,-2,0,-1,-2,-1,-2
1513482776436677,-2,-1,-1,-2,-2,-1,1,-2
1513482776436677,-3,1,-2,0,0,-1,-2,-1
1513482776457681,-1,0,-2,0,-1,-1,0,-1
1513482776457681,-1,-1,-1,0,-2,-1,0,-2
1513482776458681,-2,-3,0,-1,-1,-1,-1,2
1513482776458681,0,-2,-1,-1,-1,-1,-1,-3
1513482776479697,-3,-2,-1,-3,-1,-2,0,-1
1513482776479697,-1,-2,-2,-2,-2,-1,-2,-1
1513482776481698,-3,0,-1,-2,-4,1,-1,-1
1513482776481698,-2,-1,-1,-1,-2,0,-1,-2
1513482776494698,0,-1,-2,1,1,-1,-4,-2
1513482776494698,-1,-1,-2,0,-1,-2,-2,-4
1513482776496702,-2,-3,-2,-1,-2,-1,1,0
1513482776496702,-1,0,0,-1,-2,-1,0,1
1513482776516730,1,-3,-2,-1,-1,0,-1,-1
1513482776516730,-2,-2,-1,-1,0,0,0,-1
1513482776518712,-3,-3,-1,1,0,-1,0,-1
1513482776518712,-2,0,-2,-1,-3,-1,-1,0
1513482776539737,2,-1,0,-2,-2,-1,-1,0
1513482776539737,-1,0,-1,-1,1,-1,-4,3
1513482776541729,-1,-1,1,-1,-3,0,0,3
1513482776541729,-1,-2,-2,0,-1,0,0,-1
1513482776554812,-1,0,-2,0,0,-1,-3,0
1513482776554812,-2,-2,-1,-3,-2,0,1,-2
1513482776556811,0,0,-2,-2,-1,-1,-1,-3
1513482776556811,-1,-2,0,-1,-1,-1,-2,-1
1513482776576827,-1,0,0,-1,0,-1,-1,-2
1513482776576827,1,-2,-3,-1,-3,-1,-2,-1
1513482776578806,-2,0,0,-2,-1,0,-3,-1
1513482776578806,-1,-2,0,-1,-2,-1,0,-2
1513482776599851,-1,-1,-2,-2,1,-1,0,1
1513482776599851,-1,0,0,0,-2,-3,0,-1
1513482776601833,0,0,-1,-2,-2,-1,-1,-3
1513482776601833,1,-2,-1,0,-2,0,-3,0
1513482776614888,-1,-2,-1,-3,0,-1,-1,-2
1513482776614888,0,-2,-2,0,0,0,-1,1
1513482776620890,-2,-1,-2,-1,-1,-1,1,-1
1513482776620890,-1,0,-1,1,-2,-2,-1,0
1513482776636912,-2,-2,-1,-2,0,0,-2,-3
1513482776636912,-1,-1,0,-2,0,-1,-1,-2
1513482776638913,-1,-1,-2,0,-3,-2,0,-1
1513482776638913,0,-2,-1,-1,0,-2,1,-1
1513482776659918,-1,0,0,-1,-1,-2,-2,0
1513482776659918,-2,-1,-2,-1,-1,-1,-2,-1
1513482776660919,0,0,-1,-1,-2,-1,1,0
1513482776660919,-2,-1,-2,-1,0,1,-1,-3
1513482776673929,-1,0,0,-1,0,-1,-1,0
1513482776673929,0,-2,-1,-2,-1,-1,-1,-1
1513482776680960,-2,0,-1,0,-3,-1,-1,-1
1513482776680960,-2,-2,-1,0,-1,-1,-2,-3
1513482776696978,2,-1,-2,-2,-1,-2,-2,-1
1513482776696978,-2,-1,-3,-2,-1,0,0,-1
1513482776698945,-1,0,1,0,-2,-2,2,-2
1513482776698945,-2,0,2,-2,-1,-2,-2,2
1513482776719972,-2,-2,-2,-1,0,-2,-2,-2
1513482776719972,-1,-1,-2,-1,0,0,0,0
1513482776720965,-1,-1,-2,-1,-1,-2,-2,-1
1513482776720965,2,-1,-1,-1,-1,-1,-1,0
1513482776733990,1,-2,-3,-2,-1,-2,-1,-2
1513482776733990,-2,0,-1,-1,-1,-1,0,-2
1513482776740988,-2,-1,0,0,-1,0,1,0
1513482776740988,-3,0,0,-1,-2,-1,-2,-4
1513482776756988,1,-2,-1,0,0,-2,-1,-1
1513482776756988,-2,-2,0,-3,1,-2,-3,0
1513482776758988,-6,-1,-1,-2,-2,-1,-1,-4
1513482776758988,2,0,-2,-1,0,-1,-1,-2
1513482776780013,-1,-3,-1,0,-2,-1,0,-2
1513482776780013,-1,-2,0,0,-1,-1,1,-2
1513482776781004,0,-1,0,0,-1,-3,0,-1
1513482776781004,-1,0,-1,0,-3,-3,-2,-3
1513482776794026,-1,-1,-1,-1,0,0,-2,0
1513482776794026,0,-3,-3,-2,1,-2,-2,0
1513482776801057,-1,0,0,-3,-2,0,0,0
1513482776801057,-2,-1,-1,-1,-3,1,1,-1
1513482776817088,-1,-1,0,-1,-1,-3,-2,0
1513482776817088,1,0,-1,-1,-1,-1,-1,-1
1513482776819100,-3,-1,-1,-2,-2,-1,0,-1
1513482776819100,-1,-1,-1,0,0,-2,-1,-1
1513482776840105,0,-1,-1,-1,-2,-1,-1,-1
1513482776840105,-1,-2,-1,-2,-2,-2,-2,-2
1513482776841106,-1,-2,-1,-3,-4,-2,0,0
1513482776841106,-2,-1,0,-2,0,1,0,2
1513482776854186,-1,-3,-1,-3,-1,0,-1,-1
1513482776854186,0,0,0,0,-2,-1,-2,-1
1513482776861177,-2,0,-1,-1,-2,-2,-2,-3
1513482776861177,-2,-1,1,-1,-1,-1,-1,0
1513482776877188,0,-1,-1,0,0,0,-3,2
1513482776877188,-2,-2,-1,-1,-1,-3,1,-1
1513482776879190,-1,-4,1,1,-3,-1,0,-1
1513482776879190,-1,-2,-2,-2,0,-2,-1,-1
1513482776899269,1,-1,1,-1,0,-1,-2,0
1513482776899269,0,-2,-1,-1,-1,-3,-3,1
1513482776901249,-1,0,-2,-1,-2,-1,1,-1
1513482776901249,-1,0,-2,-2,-2,-1,1,-2
1513482776915274,0,0,-2,0,0,-2,-2,1
1513482776915274,1,-1,-1,-1,-1,-1,-3,0
1513482776921269,-2,-1,0,-1,-1,-1,-3,-2
1513482776921269,-2,-4,-1,-2,-1,0,-2,-2
1513482776937273,-1,0,-1,-2,-1,-2,-1,0
1513482776937273,1,-1,2,-4,-2,1,-1,-2
1513482776938274,-1,-1,-1,-3,-1,0,-1,0
1513482776938274,-1,0,-2,-1,-2,-1,-2,-1
1513482776959395,-3,-2,-1,0,0,-1,0,-3
1513482776959395,-1,-2,-3,0,1,0,1,-1
1513482776961378,-1,-1,-1,0,-2,-3,-1,-2
1513482776961378,-1,0,1,-1,0,-1,-2,-1
1513482776973405,1,-1,-2,-1,0,-2,-1,1
1513482776973405,-2,-1,0,0,-2,-3,0,-3
1513482776982394,-2,-1,0,-1,-1,0,0,-1
1513482776982394,0,-1,-2,0,-1,-2,1,-1
1513482776997407,-1,-1,-3,-2,-2,-1,-2,-2
1513482776997407,-1,-1,-2,-1,0,-1,-3,-1
1513482776998405,-2,-3,-2,-1,-3,1,0,-3
1513482776998405,-1,0,-1,0,-2,-1,0,-1
1513482777019442,-1,-2,-2,-2,1,0,-2,0
1513482777019442,1,-1,0,-2,-1,0,0,0
1513482777021421,0,0,0,0,-2,-2,2,-2
1513482777021421,0,0,0,-1,0,-1,-1,-1
1513482777033452,0,-1,-1,-1,-1,-1,-1,-3
1513482777033452,-3,-1,-2,-2,-2,-1,-1,-2
1513482777042453,-2,0,0,0,-1,-1,-2,-2
1513482777042453,2,-1,1,0,-4,0,0,-1
1513482777057493,1,-2,-1,0,0,-1,-2,0
1513482777057493,-4,-1,-1,0,0,1,1,-1
1513482777058464,-1,0,-1,-1,-3,-1,-2,1
1513482777058464,-2,-2,-2,-1,-1,-1,-2,0
1513482777079474,-2,-1,0,0,1,0,-1,0
1513482777079474,-1,-1,-1,-1,-2,1,-2,-1
1513482777081475,-3,0,-1,0,-2,-2,1,-1
1513482777081475,-2,-1,-1,-2,-1,-2,0,0
1513482777093472,0,-2,-2,-2,-2,-1,-2,-2
1513482777093472,-2,-1,-1,0,-2,-1,0,-2
1513482777102478,-1,-1,-1,0,-2,-1,0,-3
1513482777102478,1,-2,-1,-2,0,-2,-3,-1
1513482777118489,0,-1,-2,-2,1,-1,-1,-1
1513482777118489,-3,-1,-1,-1,-4,-3,-4,0
1513482777120491,-1,-2,-2,-1,-3,0,0,0
1513482777120491,-4,-1,-1,-1,-3,-1,-1,-1
1513482777139520,1,-1,-2,-2,0,-1,-3,-1
1513482777139520,-2,-1,-1,-1,-1,-1,0,-1
1513482777141522,-4,0,-1,-1,-1,-2,1,-1
1513482777141522,-2,0,0,-1,-3,-1,0,-3
1513482777153538,-2,0,0,0,-2,-2,-3,0
1513482777153538,0,-1,0,-1,-1,-1,0,0
1513482777162521,-1,-1,0,1,-2,0,-2,-2
1513482777162521,0,0,-1,-1,-1,-1,-1,1
1513482777177534,0,-1,-1,-1,-1,-2,-1,0
1513482777177534,1,-2,-2,-1,0,0,0,-2
1513482777178532,-3,-1,-1,-1,-1,-1,1,-1
1513482777178532,-4,1,-1,0,0,0,1,-4
1513482777199616,-2,-2,-2,-1,-2,-1,-3,-2
1513482777199616,-1,-1,0,-2,-3,-1,-1,-1
1513482777201560,-1,1,1,-1,-1,1,-1,-1
1513482777201560,-2,-2,-1,0,-1,-1,-2,-1
1513482777213571,0,0,0,-2,0,0,-1,-1
1513482777213571,0,-1,-1,-2,-1,0,-3,0
1513482777222563,-1,-1,-2,0,-2,1,0,-1
1513482777222563,-1,0,0,-1,0,-1,0,-2
1513482777237585,-1,0,-2,-1,-1,-2,-1,-3
1513482777237585,0,0,-2,-1,1,-1,-2,-1
1513482777238577,-1,-1,0,-2,-1,-2,-2,-2
1513482777238577,-1,-2,-2,1,-2,-1,-3,-1
1513482777259598,-1,-1,-1,-3,1,-1,1,-1
1513482777259598,-3,-1,-1,-1,-1,-3,0,-3
1513482777261600,-2,-1,-1,-2,-3,1,0,0
1513482777261600,1,-2,-1,0,1,-2,-1,-1
1513482777273686,0,-2,-1,2,-2,0,-2,0
1513482777273686,-2,-1,-1,-2,0,-1,0,0
1513482777282667,-1,0,-2,-1,-1,-2,-1,-2
1513482777282667,1,0,-1,-2,-3,0,-3,0
1513482777297657,-1,-1,0,0,-1,1,-1,0
1513482777297657,0,-3,-1,-2,0,-2,-2,-2
1513482777298658,-2,-1,-1,0,-2,-2,2,-2
1513482777298658,0,-1,-2,-2,-2,1,0,0
1513482777319698,-1,-1,-4,0,0,-1,-1,-1
1513482777319698,-1,-1,0,-2,-2,0,0,0
1513482777321679,-2,1,-1,-2,-2,-2,-1,0
1513482777321679,-2,-1,0,0,-2,-3,-2,0
1513482777333707,0,-2,-2,-1,1,-3,-1,0
1513482777333707,-1,-2,-2,0,-1,-1,0,-1
1513482777342706,-1,-2,0,-2,-2,-3,-1,0
1513482777342706,-1,-2,-2,0,0,0,1,-3
1513482777357700,-1,-1,-1,-1,-1,-2,-3,-2
1513482777357700,-2,0,-3,-1,-1,-1,-1,-1
1513482777360704,-1,-1,1,0,-3,0,0,-1
1513482777360704,-2,-1,0,-2,-1,2,-1,-1
1513482777379727,-1,-1,0,-4,0,-1,0,-3
1513482777379727,-2,-1,-2,-3,-1,-2,-2,1
1513482777381727,-3,0,0,0,-2,-1,-1,-2
1513482777381727,-1,-1,0,0,-1,-2,-1,1
1513482777393738,-2,-2,-2,0,0,0,-3,1
1513482777393738,0,0,-1,-1,0,-1,-3,-2
1513482777402739,0,0,-2,-1,0,0,-2,-1
1513482777402739,1,0,0,0,-2,0,-2,-1
1513482777416756,-1,1,-1,-2,0,-2,-3,-1
1513482777416756,0,-1,-1,-2,-1,0,-1,0
1513482777418742,-3,-1,-1,1,-4,-3,-2,-1
1513482777418742,-1,0,-2,-3,-1,-1,0,0
1513482777439757,0,-1,-1,0,-1,1,1,-2
1513482777439757,-1,0,-1,0,-1,0,0,0
1513482777441758,0,0,-1,-1,0,0,0,0
1513482777441758,-1,-2,-1,-1,-3,-3,-2,-1
1513482777461793,-2,-3,-2,-2,0,0,-3,-1
1513482777461793,0,-1,0,-1,-1,-1,-2,-2
1513482777463775,0,-2,-1,-1,0,-1,0,-2
1513482777463775,-1,-1,0,0,-2,-1,-2,0
1513482777476803,0,-1,-2,-1,0,-1,0,-2
1513482777476803,-2,-2,-1,-1,-1,-2,0,2
1513482777478786,-2,1,0,-1,-2,-1,0,0
1513482777478786,1,-2,0,-1,-2,-2,1,-1
1513482777499803,1,0,-1,-3,0,-3,-1,-2
1513482777499803,0,-1,-2,0,-4,0,-2,-2
1513482777500801,-1,1,-1,-1,-1,0,0,-1
1513482777500801,-2,-2,-2,-1,-1,0,0,3
1513482777529831,-1,-2,0,-2,0,-1,-2,-2
1513482777529831,-1,-1,-1,-2,1,-1,-1,-3
1513482777531837,-2,-1,-1,-2,-3,-1,0,-3
1513482777531837,-1,0,-1,0,0,1,0,-2
1513482777536826,-1,-1,-1,-2,0,0,-2,0
1513482777536826,-1,0,-2,1,-2,-1,-1,-1
1513482777538827,-1,-1,0,1,-4,0,-2,-2
1513482777538827,-1,0,-1,0,0,-1,0,-3
1513482777559855,-1,-1,1,1,0,0,0,0
1513482777559855,-2,0,-2,-3,-2,-1,-1,0
1513482777560856,-3,-1,-3,-2,-1,-1,-1,-2
1513482777560856,-1,-3,-2,-1,-1,0,-1,0
1513482777581867,0,-2,-1,0,0,0,-1,1
1513482777581867,-2,0,-1,-1,-2,-1,2,0
1513482777583869,-1,-1,-1,-1,-1,-1,0,0
1513482777583869,-1,-2,1,-2,-2,0,-1,-1
1513482777596917,-3,-2,-2,-1,0,-2,-1,-2
1513482777596917,0,-2,-1,0,0,-2,-1,-2
1513482777602873,0,0,-2,-3,-2,0,0,-1
1513482777602873,1,1,-1,1,1,0,0,1
1513482777619885,-1,-1,-2,-3,0,-1,-1,-1
1513482777619885,-1,-2,0,0,-1,-2,0,-1
1513482777620898,-4,-2,4,1,-1,-1,1,-3
1513482777620898,-3,-3,-7,-4,-3,-3,-2,0
1513482777641901,1,-3,-2,-3,-2,0,-3,0
1513482777641901,-1,-1,-4,4,-1,0,-1,-3
1513482777643906,-1,-2,3,2,-1,0,1,-1
1513482777643906,-1,1,2,2,1,-1,-2,-2
1513482777656973,-1,1,-10,-3,0,-3,-3,-1
1513482777656973,-4,-1,18,2,-1,-1,0,-1
1513482777662935,-3,-4,-26,-6,-5,-1,-2,-3
1513482777662935,0,-1,5,-7,-1,0,-1,0
1513482777679947,1,2,8,-9,-3,-2,-3,2
1513482777679947,4,5,15,8,6,2,-2,1
1513482777681929,-4,-9,-9,-5,-8,-2,1,-3
1513482777681929,-1,6,-1,8,-1,0,0,0
1513482777701945,1,-4,10,-6,-2,1,0,0
1513482777701945,-1,3,28,-4,-1,-2,-2,-2
1513482777703946,-2,-1,-44,-5,-1,2,1,-1
1513482777703946,3,-2,-6,-3,-1,-2,-1,-1
1513482777717016,-4,0,6,4,0,-2,-1,-3
1513482777717016,-1,-3,-9,-3,0,-2,-2,-1
1513482777722974,0,2,13,5,2,-1,0,1
1513482777722974,-2,-2,-5,-4,-5,-2,-2,-1
1513482777739984,3,-3,-12,1,0,-2,-1,0
1513482777739984,1,-2,-8,-1,-2,0,0,-1
1513482777740970,0,-1,7,0,-1,-2,-2,1
1513482777740970,-2,-1,2,-2,-1,-1,-1,-1
1513482777762010,-1,-1,8,-13,-5,-2,-1,0
1513482777762010,-6,-4,-20,7,-2,-1,1,-2
1513482777763988,-3,-2,12,0,-1,-1,-3,-2
1513482777763988,1,-1,3,2,2,2,1,-2
1513482777776996,4,-1,-29,0,2,0,-1,-2
1513482777776996,-1,-1,20,-14,-7,-2,-3,-2
1513482777783024,-3,-2,7,4,-4,-4,-1,-1
1513482777783024,-3,-1,-20,-6,-1,-1,-3,-1
1513482777800027,-4,-11,-57,-2,-2,-1,-2,-1
1513482777800027,0,-1,-3,-7,-2,-2,-1,-1
1513482777801012,-1,3,21,6,1,-1,-1,0
1513482777801012,0,1,13,-2,-4,-1,-1,-3
1513482777822027,3,2,-9,2,1,-1,-2,1
1513482777822027,-5,-2,-8,-1,-1,-1,-1,0
1513482777825029,6,-1,-9,-4,1,1,-1,-2
1513482777825029,-7,-6,-5,1,3,-3,-1,0
1513482777836047,-2,1,17,0,-1,0,-1,-2
1513482777836047,0,-3,-10,2,-1,0,1,-1
1513482777843063,0,2,5,1,1,1,1,-1
1513482777843063,-5,0,7,-1,-2,-2,-3,-1
1513482777860055,-1,-8,-24,-5,-2,-2,-3,-2
1513482777860055,6,-1,3,-6,-6,-2,0,-3
1513482777861055,-5,0,-23,3,1,-1,-1,1
1513482777861055,-3,1,29,7,-3,-3,-1,-2
1513482777882069,-2,0,32,6,-1,-2,1,-2
1513482777882069,-1,1,-26,-5,-1,3,-3,0
1513482777884074,1,-1,-7,-1,0,-1,0,-1
1513482777884074,7,4,-7,3,2,1,-2,0
1513482777896119,4,-1,8,-3,-4,-2,-2,0
1513482777896119,1,-7,-52,-8,-1,0,-2,-1
1513482777905123,-9,-4,18,-4,0,-1,0,-4
1513482777905123,-5,-5,1,2,-1,-1,-1,-3
1513482777920098,1,-1,17,2,-2,-1,-3,-2
1513482777920098,8,6,-19,-1,-2,-1,0,-2
1513482777921098,1,-2,3,1,-8,-2,1,0
1513482777921098,1,1,-11,-4,0,0,1,3
1513482777943113,-2,4,10,9,2,1,-2,-1
1513482777943113,-4,1,-3,-7,-1,1,1,1
1513482777944114,-5,-6,-24,-14,-5,-2,-3,-2
1513482777944114,-1,-5,-18,-5,-1,-2,-2,-2
1513482777965148,-4,1,4,6,1,-2,1,1
1513482777965148,-3,-2,20,5,0,-1,0,-2
1513482777966133,-6,6,14,0,-2,-1,0,-2
1513482777966133,4,-6,-2,0,-1,0,-1,-1
1513482777979139,-12,-5,-25,-10,0,-2,-2,-4
1513482777979139,1,0,24,6,-2,-3,0,0
1513482777980139,7,1,7,2,1,0,0,0
1513482777980139,1,5,9,6,0,1,-1,-1
1513482778002155,-1,-4,-22,-23,-4,-3,-2,-2
1513482778002155,-1,1,24,13,0,-3,0,-1
1513482778002155,-17,-1,-36,1,-3,-2,-9,-4
1513482778002155,-6,-2,2,-6,-1,-1,3,-1
1513482778025170,2,-7,16,-1,0,-2,0,0
1513482778025170,-3,-3,-10,-9,-3,0,0,2
1513482778025170,19,4,-22,0,0,1,-3,3
1513482778025170,-23,-8,25,-2,-6,-4,-3,-7
1513482778039190,1,1,3,3,3,2,0,-1
1513482778039190,3,2,2,-1,-2,-3,-3,0
1513482778040191,-1,-4,-17,0,-1,0,4,-1
1513482778040191,6,3,-10,-6,0,-3,-8,-2
1513482778061205,4,4,18,10,4,-1,-1,-1
1513482778061205,-10,-5,-14,-12,-4,-1,-2,-3
1513482778062197,1,2,19,3,-1,-2,1,1
1513482778062197,6,-1,-11,-2,0,-1,0,1
1513482778085215,-3,-2,13,1,-3,-2,0,0
1513482778085215,1,2,-2,3,0,0,-1,-4
1513482778085215,-1,1,25,-2,0,0,1,-2
1513482778085215,-2,-4,3,1,-1,1,0,1
1513482778099281,-5,0,8,-8,-5,-2,0,-1
1513482778099281,11,-11,-23,-2,0,-2,1,2
1513482778100224,3,1,19,2,-2,-2,2,0
1513482778100224,9,-2,-4,-2,2,-1,-5,-2
1513482778122239,5,2,-12,2,0,-3,-4,-2
1513482778122239,-1,4,15,-4,0,2,2,-1
1513482778129245,-2,3,9,1,-3,-3,-2,-2
1513482778129245,0,0,-32,-1,1,-1,-2,2
1513482778144311,-2,0,-11,-4,0,0,-1,-1
1513482778144311,-18,-2,6,-1,-3,-2,1,-4
1513482778145257,14,-5,-2,1,1,2,0,-1
1513482778145257,-7,2,-1,0,-4,-2,-3,-1
1513482778159266,9,2,8,5,-1,0,2,-4
1513482778159266,-7,1,16,5,-3,-1,-5,-2
1513482778159266,2,-8,-14,-2,-2,0,-2,0
1513482778159266,-9,-2,-4,-5,-1,-1,1,1
1513482778181338,1,0,-5,0,1,-1,-3,1
1513482778181338,-7,2,13,7,1,0,1,2
1513482778182285,2,-4,11,-4,0,0,0,-6
1513482778182285,-16,-7,44,2,-2,0,2,5
1513482778204311,-3,0,-23,-15,-2,-1,-2,-2
1513482778204311,-1,2,1,5,0,-1,2,1
1513482778205300,-4,5,-1,-2,-3,-2,-2,1
1513482778205300,7,0,13,6,4,1,-3,-1
1513482778219320,-14,-6,-26,-3,0,-1,-3,-2
1513482778219320,13,8,22,8,1,1,4,-1
1513482778219320,-1,-1,20,-4,-4,0,-7,3
1513482778219320,4,-9,-99,-15,-4,-6,-10,-16
1513482778241324,-6,-6,10,2,3,-2,14,7
1513482778241324,1,-1,-12,-7,-3,-3,0,-4
1513482778242325,-17,10,0,7,2,1,-1,-3
1513482778242325,20,8,12,8,1,-1,-3,-1
1513482778264351,10,2,-1,2,1,1,-6,1
1513482778264351,-18,-18,-17,-10,-4,0,4,-2
1513482778265352,2,-12,-4,-3,-3,-3,0,-5
1513482778265352,-12,5,19,1,2,0,-1,1
1513482778279362,14,-8,-11,-1,-4,-1,-1,-1
1513482778279362,-24,15,-6,8,3,2,-2,-2
1513482778279362,-11,-3,41,-4,-3,-2,-4,-5
1513482778279362,33,-7,-22,-14,-3,-2,0,5
1513482778301384,-12,11,30,18,6,2,2,3
1513482778301384,-1,-9,-13,-10,-5,-4,-3,-5
1513482778302367,-19,-6,-4,-1,2,-2,-2,-4
1513482778302367,0,1,1,-3,-2,-1,8,5
1513482778324382,11,12,52,12,-1,-4,-6,-1
1513482778324382,-2,-6,-11,-4,-2,-2,-1,2
1513482778325383,23,-3,-44,-13,-5,0,0,0
1513482778325383,-24,8,44,3,2,2,0,4
1513482778338393,-7,-12,-47,-6,-2,-2,-4,-14
1513482778338393,-25,-8,2,-4,-1,0,-4,-1
1513482778339393,4,-1,1,7,0,0,15,1
1513482778339393,10,-7,-33,1,-2,1,1,-3
1513482778361421,-5,12,-3,5,0,-2,-9,-2
1513482778361421,2,-8,-5,-26,-16,-5,0,6
1513482778362409,-14,-2,31,11,3,-2,-4,-3
1513482778362409,6,-8,-18,-16,-4,-3,-1,-5
1513482778384427,-13,7,-19,3,3,3,2,2
1513482778384427,26,3,-6,7,7,5,0,-1
1513482778385426,9,8,21,5,-4,-1,-1,7
1513482778385426,-22,-12,6,-6,-6,-7,-7,-7
1513482778399436,-20,-7,21,0,1,0,-2,-11
1513482778399436,39,11,-11,2,0,-3,-1,16
1513482778399436,-24,8,28,6,-3,-2,-11,-15
1513482778399436,-3,2,-47,-1,4,2,15,-3
1513482778421451,5,-12,27,-10,-5,-2,-16,-7
1513482778421451,5,-13,-35,-10,-5,-7,-13,-11
1513482778422451,-4,-4,4,-6,0,4,22,-2
1513482778422451,10,12,35,15,4,3,3,14
1513482778444482,31,-3,-16,-2,-1,-2,-7,-8
1513482778444482,-43,0,4,2,-6,-2,6,-11
1513482778445468,-3,-10,-7,4,-2,-4,-7,8
1513482778445468,-7,5,-16,-2,4,-1,-5,-1
1513482778458487,1,-6,-22,-12,-1,0,8,-3
1513482778458487,-7,-15,20,0,-9,-6,-14,-5
1513482778459487,13,3,-4,-4,3,1,3,-11
1513482778459487,-32,-14,17,8,1,2,-2,0
1513482778481514,13,1,-13,-9,-4,-3,-2,12
1513482778481514,18,30,106,35,10,3,2,-5
1513482778482496,-18,-19,-115,-37,-12,-3,-11,-1
1513482778482496,20,0,45,12,2,-2,-2,18
1513482778504526,-51,-14,-35,-18,-11,-5,-6,-56
1513482778504526,24,11,20,8,4,-1,-3,43
1513482778505519,18,18,50,0,-3,4,20,25
1513482778505519,32,4,-23,2,5,3,-11,-6
1513482778518533,-15,-5,-11,-3,-7,-9,-27,-26
1513482778518533,-24,-32,-15,14,12,9,43,14
1513482778519521,-31,6,54,-8,-8,0,-4,22
1513482778519521,45,33,-9,-5,-4,3,16,25
1513482778541548,34,12,50,35,8,1,-10,8
1513482778541548,54,2,-48,-21,-12,-6,-13,-31
1513482778542537,-8,-9,-36,6,9,-2,-13,10
1513482778542537,-31,-14,-45,5,0,0,14,-21
1513482778565568,-15,-20,22,1,-7,-2,10,22
1513482778565568,2,7,-22,-19,-1,-1,-9,-21
1513482778566569,31,-21,5,5,4,3,5,-1
1513482778566569,15,21,27,-1,-7,-8,-17,-11
1513482778578578,-44,-3,3,15,12,5,4,6
1513482778578578,-74,-11,59,4,-10,-3,-1,19
1513482778579564,48,-5,-66,-2,-6,-6,-9,-37
1513482778579564,-31,2,49,-6,-1,3,1,-38
1513482778602592,-8,10,-2,-6,1,2,8,43
1513482778602592,-25,-57,-34,-11,-6,-5,-13,-8
1513482778603580,5,59,50,13,6,7,18,26
1513482778603580,-29,-35,-52,-13,-3,-7,-19,-18
1513482778624594,64,34,11,11,4,5,19,10
1513482778624594,-1,5,11,-1,-1,-1,-8,-17
1513482778625595,-28,7,-12,9,-1,-3,-9,-18
1513482778625595,15,-6,-1,-25,-5,-4,0,1
1513482778638605,-34,-13,-14,-2,-6,-3,7,3
1513482778638605,-10,-4,-39,5,4,3,5,24
1513482778639605,26,-4,34,15,-2,-1,1,-2
1513482778639605,-28,16,5,-11,0,0,-12,-5
1513482778661621,69,12,-25,-12,-2,-1,7,6
1513482778661621,9,14,30,14,-3,0,1,-14
1513482778662621,-19,-11,-27,-5,-1,-5,0,5
1513482778662621,-73,-13,63,-3,-1,3,2,9
1513482778684649,43,-18,-15,-8,-4,-5,-9,-4
1513482778684649,15,12,-3,-4,-1,-3,1,6
1513482778685638,-13,10,5,-9,-6,-2,-4,-2
1513482778685638,95,47,39,30,19,9,3,30
1513482778698686,-42,-27,-21,-27,-2,-3,9,1
1513482778698686,-10,-4,-17,19,7,0,-7,-29
1513482778699648,47,-21,1,-4,-6,-2,6,-5
1513482778699648,-54,2,-23,2,-9,-8,-13,-41
1513482778721680,-47,-3,6,-10,-5,-4,-1,7
1513482778721680,58,32,-9,-17,-6,-1,-7,-2
1513482778722665,-84,-42,-18,5,1,0,-2,-1
1513482778722665,12,33,64,12,6,5,5,22
1513482778744704,0,-10,-70,-33,-17,-12,-12,-14
1513482778744704,-31,-6,7,-2,-3,0,1,26
1513482778745686,-18,-35,-15,2,2,3,0,-32
1513482778745686,20,-8,-4,-4,-2,-6,-1,26
1513482778758706,62,16,44,23,6,6,-9,-17
1513482778758706,-40,-19,8,-3,4,2,10,4
1513482778759691,69,24,-32,-11,-18,-7,-2,13
1513482778759691,17,1,-44,-14,3,0,-6,-8
1513482778781721,-31,-43,44,10,6,11,20,-12
1513482778781721,59,42,-16,8,0,-3,-15,10
1513482778782706,-55,-43,-5,-3,-4,-4,-8,3
1513482778782706,64,-3,-39,-21,-6,-3,-1,-73
1513482778804738,60,1,10,8,-1,1,0,31
1513482778804738,-56,0,47,10,4,-2,-5,6
1513482778805723,-3,13,-19,-8,-1,-3,-15,-24
1513482778805723,2,-9,-67,-6,-5,4,19,43
1513482778819733,47,34,18,1,4,-6,-12,-10
1513482778819733,-34,25,36,5,-4,-2,1,-34
1513482778819733,-47,-35,-79,-37,-7,-10,-1,39
1513482778819733,-31,4,89,25,4,-1,11,22
1513482778841748,25,-22,-100,0,17,7,-14,-20
1513482778841748,42,-7,10,-21,-21,-9,-1,5
1513482778841748,-28,22,28,6,3,4,-3,-24
1513482778841748,39,-33,-30,-21,-16,-14,-23,-33
1513482778864778,-80,18,82,8,3,2,15,32
1513482778864778,53,32,-82,8,10,3,-1,16
1513482778865774,40,-63,-36,-13,-2,-3,-7,23
1513482778865774,8,-21,64,24,2,2,-7,-36
1513482778878775,45,-14,-62,-9,-10,-10,-12,-21
1513482778878775,14,31,38,13,2,7,14,-2
1513482778879776,-57,-7,19,-11,-8,-7,7,15
1513482778879776,44,-53,9,5,12,4,-10,-26
1513482778901806,-26,21,-16,-3,4,1,8,17
1513482778901806,6,2,40,15,3,3,5,-18
1513482778902791,0,54,68,22,4,8,5,-2
1513482778902791,-31,-9,-51,-26,-10,-5,10,52
1513482778924821,8,44,37,6,10,4,-1,-17
1513482778924821,-89,-84,-87,-25,-23,-7,-5,-19
1513482778925809,7,31,3,32,27,8,7,7
1513482778925809,30,25,-13,-21,-7,-1,-5,6
1513482778937825,-103,4,51,6,-7,0,-2,27
1513482778937825,-1,-49,-29,-13,4,1,11,-24
1513482778946832,40,4,13,-1,-14,-5,2,-13
1513482778946832,-19,-6,-24,5,-7,-4,-1,-12
1513482778961833,-82,-23,-10,-2,-4,-2,-4,33
1513482778961833,29,44,57,8,-7,-9,-15,-2
1513482778961833,77,28,18,-9,3,2,0,-45
1513482778961833,-74,54,-46,6,1,-1,0,30
1513482778984857,28,13,6,-8,-8,-4,-7,-9
1513482778984857,30,-68,-31,-12,-4,-4,-3,4
1513482778985850,4,76,60,9,1,-2,-29,-42
1513482778985850,47,-33,-37,-17,0,-2,11,57
1513482778997881,27,-13,4,9,5,-1,1,-66
1513482778997881,-36,8,43,9,4,11,16,26
1513482779006880,-61,-59,-62,-15,3,-2,-11,4
1513482779006880,41,6,50,34,4,-2,1,9
1513482779021875,17,0,-38,-28,-16,-5,2,-6
1513482779021875,-46,51,-52,-24,1,5,11,-20
1513482779021875,42,41,102,38,-4,-6,-4,17
1513482779021875,-105,-88,-75,-40,-11,0,3,-7
1513482779044911,38,65,104,36,13,3,-6,-27
1513482779044911,-16,-57,-98,-23,-10,-4,-3,16
1513482779045893,27,17,-8,-17,-3,3,10,-1
1513482779045893,23,2,11,7,4,3,6,-32
1513482779057900,-19,18,-21,-10,-3,-5,-7,9
1513482779057900,-30,-24,55,18,-3,-2,-7,-23
1513482779066908,-22,-51,-3,-15,-4,-1,9,16
1513482779066908,89,-56,49,12,-2,-6,-4,-21
1513482779081919,-28,-7,-29,-24,-12,-10,-7,34
1513482779081919,78,66,7,12,1,8,17,8
1513482779081919,24,10,53,22,13,6,4,7
1513482779081919,6,30,7,3,4,0,5,-8
1513482779104935,-38,-65,12,15,4,0,-7,32
1513482779104935,-10,-25,66,-3,4,0,-1,-40
1513482779104935,21,6,-128,-25,-10,-1,6,-3
1513482779104935,-35,18,46,8,1,-4,-33,-12
1513482779118946,4,16,-42,-17,-6,4,17,12
1513482779118946,33,1,-64,0,2,-9,-11,11
1513482779126969,-57,-93,33,13,5,-1,-14,-14
1513482779126969,34,79,27,-1,3,1,3,18
1513482779140979,-1,-70,41,-4,-5,-8,-8,-18
1513482779140979,42,13,19,15,0,-1,-6,-1
1513482779141963,-9,55,-85,-16,-8,-6,1,-27
1513482779141963,12,-105,-36,-4,1,-1,-17,26
1513482779164977,-16,27,-24,-13,-7,5,16,10
1513482779164977,5,96,39,4,1,-4,-17,-12
1513482779164977,-23,-91,-72,9,0,-3,-8,17
1513482779164977,-8,117,106,21,2,-6,-24,-48
1513482779178000,40,-87,-27,-16,8,7,33,2
1513482779178000,-32,-30,-5,-7,-7,-2,-7,-14
1513482779186992,15,56,39,6,-3,-7,-3,7
1513482779186992,-11,-21,-56,-25,-7,-2,8,28
1513482779202003,-16,20,40,17,-1,-9,-26,-37
1513482779202003,25,-5,-11,0,3,16,52,43
1513482779202003,-47,-13,71,-2,-9,-2,-7,-9
1513482779202003,36,-73,26,7,-4,-8,4,15
1513482779225020,28,14,-30,8,5,4,-6,-11
1513482779225020,-108,-90,-18,-2,-9,-4,-5,22
1513482779225020,108,99,2,-21,3,11,26,-10
1513482779225020,-79,-78,8,-5,1,0,-8,-22
1513482779238030,-47,2,60,34,1,-9,-62,-11
1513482779238030,17,73,69,-21,-7,1,45,5
1513482779246043,10,-13,-77,-3,0,2,5,41
1513482779246043,-2,-27,-46,-15,-4,-1,6,-30
1513482779261055,1,-5,13,19,7,-1,-34,18
1513482779261055,72,22,18,1,6,4,11,-2
1513482779262046,-19,37,11,-3,-10,-15,-19,-15
1513482779262046,16,56,-31,-3,2,5,11,25
1513482779285073,10,14,-65,-12,-2,3,26,6
1513482779285073,-5,-31,-55,-17,-5,-10,-44,-9
1513482779285073,-19,-44,13,-11,-13,-5,3,4
1513482779285073,-10,16,48,17,5,1,-14,6
1513482779307091,52,-4,-23,-16,-17,-6,13,5
1513482779307091,-18,72,-14,-38,5,-1,-15,16
1513482779308077,20,11,22,23,14,11,4,-5
1513482779308077,-28,13,34,9,1,0,-1,0
1513482779330094,89,26,-27,-8,-12,-8,7,26
1513482779330094,-25,38,13,2,-6,-9,-11,-50
1513482779330094,-13,-74,-70,-17,-5,-2,-1,41
1513482779330094,-3,66,9,13,11,7,19,-32
1513482779345104,25,-8,-48,-20,-11,-3,4,-14
1513482779345104,-33,-16,14,22,4,-3,-10,22
1513482779345104,-8,9,38,2,3,-1,7,-43
1513482779345104,-20,5,-15,14,-1,-3,-18,-7
1513482779367134,-28,-13,-36,-18,-6,-2,-4,-33
1513482779367134,-12,-76,-7,-6,-7,-4,3,1
1513482779368121,75,37,23,15,5,-2,-9,24
1513482779368121,12,25,6,-2,-5,-3,-6,-10
1513482779381139,0,-49,19,-1,10,6,14,16
1513482779381139,-37,-13,7,15,6,-2,-4,-29
1513482779382129,-12,79,1,-19,-20,-7,7,-2
1513482779382129,36,-19,-40,-1,11,-1,-13,6
1513482779405146,-2,57,44,-8,-7,-4,13,40
1513482779405146,27,-9,-21,31,3,-6,-31,-34
1513482779405146,-63,-12,-16,-37,-10,5,6,1
1513482779405146,-36,38,12,12,10,5,14,25
1513482779427174,-37,-3,-25,7,-1,1,4,-20
1513482779427174,34,15,32,3,-4,-2,-7,18
1513482779428162,6,27,30,18,11,1,-12,-5
1513482779428162,43,16,-58,-25,-12,-1,5,12
1513482779441181,-69,-45,-7,-8,-7,-4,-7,-16
1513482779441181,-5,41,17,1,-2,-1,17,-16
1513482779442173,9,-63,23,36,3,-5,-31,-55
1513482779442173,4,-30,-8,-36,-6,-1,-1,33
1513482779465189,34,-9,-5,1,6,0,9,-24
1513482779465189,-30,0,-70,-14,-11,-3,12,31
1513482779465189,-28,-39,-12,5,-1,-4,-16,-25
1513482779465189,56,16,-17,-6,-1,-1,-6,5
1513482779487205,-10,28,23,3,4,0,15,0
1513482779487205,68,32,26,-4,7,3,-7,7
1513482779488207,36,15,-28,7,0,-2,2,-1
1513482779488207,-20,-76,-1,8,-7,-7,-8,-17
1513482779501223,10,29,6,8,5,-2,-12,5
1513482779501223,16,-6,23,20,11,5,5,1
1513482779502217,7,-22,22,-19,0,6,18,3
1513482779502217,-37,8,-8,-19,-9,-10,3,-14
1513482779524251,14,44,96,6,8,6,2,39
1513482779524251,5,45,29,8,-9,-3,-15,-48
1513482779525234,-5,10,33,-2,-4,4,31,75
1513482779525234,38,74,-64,-8,-1,-6,-19,-36
1513482779547257,-85,-79,-13,6,-5,-2,0,-24
1513482779547257,64,-41,-3,12,10,11,8,32
1513482779548247,-39,7,-55,-20,-12,-7,-13,-16
1513482779548247,-15,-15,25,2,2,4,12,22
1513482779561271,9,85,5,-3,2,-2,-16,-32
1513482779561271,-30,-40,-35,3,0,3,21,21
1513482779562271,5,1,19,20,-1,-3,-10,10
1513482779562271,4,-20,20,-9,-8,-7,-17,12
1513482779585276,-25,-20,-32,-8,-3,0,4,-33
1513482779585276,-53,-24,-14,-13,-10,-6,-1,-6
1513482779585276,50,-12,1,-18,1,0,8,42
1513482779585276,-29,12,27,8,0,1,7,-8
1513482779607357,18,30,9,20,9,2,-13,0
1513482779607357,-35,-12,-14,-13,-8,-1,0,14
1513482779608297,-1,19,-47,0,-4,-5,-16,-21
1513482779608297,-2,-2,31,7,11,1,0,-1
1513482779621299,-17,-71,-41,-1,2,4,16,-2
1513482779621299,17,13,-15,-17,-7,-7,-24,7
1513482779622315,9,-9,19,-8,-4,-5,-10,-41
1513482779622315,-24,20,40,9,6,5,3,23
1513482779645316,15,-27,-13,2,-7,-11,-18,-21
1513482779645316,-12,24,-27,-10,3,4,5,25
1513482779646326,20,-71,34,-3,-2,-4,-5,-9
1513482779646326,-16,-11,-54,-4,-5,0,3,-8
1513482779667370,12,14,23,-7,-6,-3,20,10
1513482779667370,11,12,7,8,3,1,-4,-10
1513482779668340,-12,-7,-31,-7,0,-5,-11,-8
1513482779668340,-22,24,-16,11,4,3,-5,-2
1513482779681341,25,34,41,11,7,4,1,38
1513482779681341,5,-65,-54,-31,-19,-8,1,-20
1513482779682342,-3,13,5,14,2,2,1,-16
1513482779682342,11,70,-6,-7,11,6,12,15
1513482779704357,6,67,33,16,2,1,7,6
1513482779704357,11,24,33,8,3,1,0,20
1513482779705360,-15,-4,25,6,0,1,11,-8
1513482779705360,11,-14,-26,-14,-15,-9,-9,-14
1513482779727374,15,-28,-4,0,1,-4,-19,-39
1513482779727374,-91,-48,-9,-20,-15,-2,1,-1
1513482779727374,15,36,45,-5,6,1,-4,-4
1513482779727374,-25,-72,-15,22,5,-3,-1,0
1513482779741384,40,-26,-66,-20,-9,-3,-6,-6
1513482779741384,-55,-18,-15,-10,-7,0,11,19
1513482779742384,-2,2,23,7,5,-3,-9,16
1513482779742384,-14,-39,-21,4,-2,1,-23,-31
1513482779764412,37,-44,-42,-23,-6,-9,-1,14
1513482779764412,-51,-36,-31,3,-6,-1,3,-31
1513482779765401,29,33,11,0,3,0,-4,17
1513482779765401,61,77,31,-1,7,3,6,6
1513482779787427,-38,-78,46,3,-12,-5,-8,-8
1513482779787427,34,17,4,4,4,7,10,7
1513482779787427,-23,-28,-8,-13,-6,-5,0,-36
1513482779787427,-15,-29,-12,-5,-3,-5,7,13
1513482779801426,11,54,-16,-10,-3,0,-10,-2
1513482779801426,58,-20,16,-7,-3,-2,5,13
1513482779802428,-38,15,-2,5,-2,-1,-4,-11
1513482779802428,17,-2,-8,-12,-5,-1,4,-3
1513482779824455,-27,-54,26,3,4,1,11,21
1513482779824455,38,45,19,29,6,3,-5,-19
1513482779825443,-6,-1,9,-1,3,4,15,7
1513482779825443,34,-21,5,-14,-10,-7,-2,7
1513482779847472,-43,47,2,4,7,8,9,-5
1513482779847472,38,4,-7,4,-5,-10,-3,9
1513482779847472,-13,22,9,10,6,2,2,8
1513482779847472,-44,-5,-7,-10,1,5,0,-23
1513482779860471,-38,-46,24,-11,-14,-10,-19,-25
1513482779860471,26,22,10,1,1,0,-2,-4
1513482779868474,-5,34,60,25,5,3,7,9
1513482779868474,-44,18,-29,-5,-8,-15,-17,23
1513482779884494,-1,-7,-30,0,0,3,-4,16
1513482779884494,-30,-47,0,-23,-13,-7,-22,-46
1513482779885486,8,-53,-4,8,2,2,2,-2
1513482779885486,14,13,8,20,8,6,6,-15
1513482779907522,-19,16,-101,-40,-17,-7,5,25
1513482779907522,-14,-20,25,12,10,6,18,42
1513482779907522,72,85,2,-5,-10,-6,-4,-12
1513482779907522,-48,-40,-28,0,3,2,-8,-15
1513482779920510,0,26,13,9,7,0,-6,-25
1513482779920510,29,28,-2,9,-1,-5,0,6
1513482779928528,-32,-40,3,1,4,6,4,18
1513482779928528,25,20,-50,-18,-3,-4,2,7
1513482779944527,20,-35,-6,17,8,5,11,13
1513482779944527,5,37,-48,-16,-7,-2,-7,-26
1513482779945534,7,20,40,3,2,0,-1,15
1513482779945534,15,-29,16,7,0,-3,-8,12
1513482779967582,-8,-1,10,-9,-4,-3,-4,-19
1513482779967582,9,-5,2,14,-1,0,0,1
1513482779967582,13,-16,14,-4,4,2,8,27
1513482779967582,8,3,27,4,-9,-11,-7,-11
1513482779980565,12,10,42,36,13,5,0,-10
1513482779980565,-2,17,14,-25,-4,-1,-8,-6
1513482779988571,-15,-33,-83,-12,-1,-3,7,26
1513482779988571,-6,17,31,-16,-6,-3,-14,-16
1513482780004572,3,-40,-21,10,7,3,30,55
1513482780004572,2,21,56,25,-2,-5,-12,-58
1513482780005589,-16,-52,-74,-27,-6,-4,-7,17
1513482780005589,-14,2,-58,2,-9,-5,-9,-56
1513482780027588,18,37,3,-18,-5,3,2,79
1513482780027588,-4,-16,45,4,9,7,6,-27
1513482780028588,-41,-16,-10,-7,-6,-8,-5,-53
1513482780028588,9,-11,33,8,7,8,8,56
1513482780040605,-39,12,-6,-8,-10,-1,-2,-30
1513482780040605,49,1,1,5,-4,-7,-7,38
1513482780049624,-9,56,70,0,-7,-3,2,-14
1513482780049624,-12,-26,-41,-8,5,4,25,29
1513482780064624,21,23,31,-17,-7,-5,-22,-39
1513482780064624,-18,-87,-32,-5,2,1,3,4
1513482780066641,18,-3,-28,6,-1,-4,-8,-1
1513482780066641,-6,46,58,20,6,2,0,1
1513482780087629,14,-24,-47,-30,-16,-8,3,2
1513482780087629,-9,-38,-12,7,2,2,5,3
1513482780088630,18,25,-4,11,4,3,1,-9
1513482780088630,13,-22,3,4,0,3,-5,-13
1513482780100644,18,13,-46,-2,6,2,-9,-17
1513482780100644,-17,26,24,-8,-4,1,3,24
1513482780109644,-40,-20,-34,-2,-9,-8,-6,-23
1513482780109644,-4,-57,50,9,8,3,-2,-13
1513482780124654,-5,47,9,4,-6,-2,-10,44
1513482780124654,-31,-15,-98,-15,-8,-3,15,-77
1513482780126656,-20,-59,1,4,8,12,1,49
1513482780126656,-3,3,13,2,-5,-13,-14,-67
1513482780147671,7,7,3,12,-1,-6,-13,17
1513482780147671,-9,29,19,5,1,5,9,11
1513482780148673,-5,-10,-10,-24,-2,-1,0,-29
1513482780148673,12,30,38,19,11,4,4,8
1513482780160699,-29,-16,-70,-22,-9,2,11,-7
1513482780160699,-4,-16,32,5,0,-8,-20,14
1513482780169691,10,33,-16,11,1,-4,-10,-26
1513482780169691,17,11,-31,-13,-17,-9,-8,25
1513482780191703,-44,-1,79,9,13,5,5,-34
1513482780191703,35,12,-9,8,-4,-5,-19,0
1513482780193704,-7,-12,22,-13,-1,9,51,40
1513482780193704,31,1,-7,-2,-3,-3,-10,21
1513482780206730,9,18,67,26,3,-7,-2,27
1513482780206730,16,24,-59,-18,-10,-3,-14,-12
1513482780208714,-25,-32,-37,-4,9,4,-4,-34
1513482780208714,19,-4,39,8,-2,1,8,46
1513482780220722,10,33,42,8,-4,-6,-1,-71
1513482780220722,-5,-22,-30,-22,0,2,12,51
1513482780229745,22,6,2,-4,-5,-3,-13,-13
1513482780229745,-3,-26,-24,-16,-7,-5,-3,-17
1513482780244757,-4,8,24,10,5,-2,-9,0
1513482780244757,-9,1,31,20,-3,1,15,3
1513482780246741,14,26,-52,-17,-13,-10,-18,-27
1513482780246741,-36,-27,29,-11,3,4,18,8
1513482780266765,30,-4,-13,-11,-8,-2,0,15
1513482780266765,2,11,7,14,5,4,11,-9
1513482780268757,28,51,15,6,-5,-7,-20,9
1513482780268757,-1,-62,-15,-3,4,6,10,29
1513482780289772,14,6,-13,-7,-4,-1,8,-7
1513482780289772,-16,-50,37,8,6,2,2,-5
1513482780290774,24,23,-39,-3,-1,-4,-28,1
1513482780290774,-17,-17,-13,9,-2,-2,2,-21
1513482780304805,16,-31,-30,-6,-2,5,6,10
1513482780304805,2,22,1,-21,-4,-6,-12,-2
1513482780305792,-13,-29,20,-1,0,-2,-6,-17
1513482780305792,0,-21,-8,17,1,-2,-15,9
1513482780326807,6,24,-8,5,-2,3,0,-15
1513482780326807,-7,-18,31,11,-4,-10,-16,-24
1513482780328809,12,7,-20,-6,0,4,18,67
1513482780328809,3,30,-21,-13,-2,-3,-1,-25
1513482780349852,-1,-4,-12,2,-6,-3,1,46
1513482780349852,3,20,6,-7,1,-1,-13,-19
1513482780351815,-10,-20,11,-4,3,4,8,4
1513482780351815,3,8,-18,1,6,3,4,-17
1513482780363845,-24,-26,12,-3,2,3,-1,5
1513482780363845,20,4,-11,-4,-8,0,18,27
1513482780370838,-19,-15,38,14,2,-3,-8,-10
1513482780370838,-20,3,-36,-6,-5,1,-12,-11
1513482780386840,19,-34,-41,-14,-4,0,28,0
1513482780386840,-35,8,21,4,-3,-4,-1,21
1513482780388841,2,7,23,9,4,2,-13,-36
1513482780388841,-12,36,32,-3,3,-2,-5,4
1513482780409868,-17,-37,-14,-8,-10,-3,-16,-25
1513482780409868,14,5,-12,-12,1,-2,-13,-24
1513482780410857,17,14,-6,2,0,0,5,51
1513482780410857,-24,13,-29,4,7,8,20,-19
1513482780423878,18,12,24,28,6,1,-7,-3
1513482780423878,-5,30,-41,-28,-12,-5,-5,-24
1513482780430871,-22,-20,59,13,6,0,8,16
1513482780430871,-4,-40,-68,-33,-23,-9,-18,-14
1513482780446892,-5,35,6,33,13,7,12,-15
1513482780446892,-8,-28,-13,-18,-9,-2,-4,10
1513482780448894,14,4,-4,-1,6,3,20,17
1513482780448894,8,29,35,5,-3,-2,3,7
1513482780469921,-35,32,9,-8,-3,-6,-13,-15
1513482780469921,19,-9,-5,23,4,2,10,-2
1513482780470900,-17,-20,-51,-22,-8,-3,-7,-18
1513482780470900,24,15,43,4,6,-2,-12,27
1513482780483918,-19,10,-2,-1,-9,-5,3,-23
1513482780483918,2,9,31,9,5,3,1,12
1513482780497943,-14,-21,-18,-25,-12,-3,-10,-19
1513482780497943,11,42,19,3,4,-2,3,0
1513482780506963,-6,-22,10,-7,-1,0,5,-11
1513482780506963,0,-25,38,17,1,-3,-1,18
1513482780508940,21,2,-56,-4,-1,2,0,-5
1513482780508940,-10,-6,-13,-2,-4,-3,-2,14
1513482780529961,2,5,29,-8,-3,0,-4,-28
1513482780529961,-15,-19,-16,-10,2,-2,-8,-23
1513482780530945,13,-3,12,8,1,-1,-13,18
1513482780530945,-33,-4,10,8,-2,-5,-14,-14
1513482780543971,-31,-47,-72,-17,-1,0,4,39
1513482780543971,-25,0,36,-2,-7,-5,6,-23
1513482780550976,24,46,22,6,7,0,0,-3
1513482780550976,-21,-7,35,7,-3,0,0,-9
1513482780566967,19,1,-8,2,-5,-2,-13,1
1513482780566967,-15,-21,-51,-21,1,3,-7,29
1513482780568990,-16,4,13,10,3,0,7,-57
1513482780568990,13,22,-23,-8,2,-4,3,0
1513482780589983,-4,-23,3,0,-9,-10,-6,-14
1513482780589983,3,-1,-2,-3,3,4,6,38
1513482780590984,3,25,14,11,-3,-3,-3,-9
1513482780590984,13,25,-28,-6,-5,-2,-6,-8
1513482780604004,-8,24,34,11,7,3,-8,-21
1513482780604004,-7,28,-25,2,-3,0,11,13
1513482780611008,-18,-1,-27,-11,4,-5,-11,16
1513482780611008,8,16,27,-7,1,2,3,-30
1513482780627026,0,-12,-41,-7,-8,2,9,26
1513482780627026,16,27,8,-3,3,4,-1,-26
1513482780629024,3,9,29,-1,1,0,20,69
1513482780629024,-1,-12,-26,7,-2,-4,-21,-20
1513482780650026,0,-5,24,-9,-1,-1,-9,-38
1513482780650026,-6,-62,-21,7,-8,-9,-14,-17
1513482780651027,-3,-16,47,-3,-6,-5,-10,-13
1513482780651027,41,34,-12,-11,4,-1,-7,15
1513482780664036,19,18,4,10,2,4,20,49
1513482780664036,15,50,42,-1,-5,-1,-11,-19
1513482780671053,-1,11,-6,10,5,-2,-5,-13
1513482780671053,17,-30,39,9,-3,1,10,18
1513482780687071,-39,2,-19,-30,-8,-1,-2,-7
1513482780687071,4,11,17,18,7,3,2,-12
1513482780689072,0,-41,-64,-22,-10,-3,15,18
1513482780689072,-5,6,4,13,7,3,5,6
1513482780709077,-13,-11,5,-1,-3,-3,1,-1
1513482780709077,-16,15,10,12,3,6,7,0
1513482780711070,1,-85,-12,-3,-5,-4,-17,-32
1513482780711070,-4,16,-1,3,2,0,0,-4
1513482780724092,34,-13,17,-15,-2,-1,1,15
1513482780724092,-4,46,19,8,-2,-7,-15,-33
1513482780731093,9,-5,-51,3,1,-1,-7,11
1513482780731093,2,-8,29,-13,-1,0,7,-11
1513482780747109,3,-3,7,34,3,-3,-8,10
1513482780747109,24,10,-19,-11,4,0,-7,-13
1513482780750097,19,22,23,14,-1,1,0,-3
1513482780750097,-15,-75,-33,-9,-2,4,1,-9
1513482780770112,-18,15,-7,-15,-6,-4,-19,-12
1513482780770112,8,-50,-3,0,7,5,18,52
1513482780771113,-4,8,-20,-2,1,-1,-12,-18
1513482780771113,-14,1,14,3,-4,-3,4,6
1513482780783140,9,28,-34,-1,3,2,-8,-30
1513482780783140,11,7,33,2,-2,0,18,30
1513482780792136,-12,-4,11,-10,-4,-3,-19,13
1513482780792136,14,-6,-35,-9,-2,0,14,-8
1513482780807154,18,-1,-2,-12,-8,-5,0,-14
1513482780807154,-15,-2,-38,-7,-1,3,11,17
1513482780809149,7,14,31,9,5,1,-1,31
1513482780809149,-36,-28,-10,-6,-10,-2,-3,-53
1513482780830153,20,61,13,14,5,6,19,17
1513482780830153,2,-24,-72,-16,-10,-5,-5,10
1513482780831155,17,23,-2,-17,-3,-2,2,-26
1513482780831155,17,25,25,5,8,-1,-10,52
1513482780843172,-17,-36,67,2,-6,1,29,19
1513482780843172,-3,32,2,0,-1,-4,-16,-28
1513482780852172,-3,7,-19,-17,-4,-3,14,20
1513482780852172,0,33,32,4,-3,-8,-14,-3
1513482780867210,6,-16,27,-12,-1,3,7,-29
1513482780867210,41,9,-21,11,-2,-1,2,64
1513482780869192,-63,-30,25,-2,-3,-2,-2,-52
1513482780869192,20,11,9,8,1,0,0,9
1513482780889205,-71,3,-34,0,-1,-1,-8,2
1513482780889205,-19,-37,-41,-3,0,-4,10,0
1513482780891197,11,43,16,7,2,0,-7,8
1513482780891197,2,-20,-13,-1,-1,4,20,-18
1513482780903216,-22,-26,-21,1,-1,-2,-26,-17
1513482780903216,-7,34,27,-3,0,-2,-5,-32
1513482780912213,-10,-9,-21,10,3,1,-10,-4
1513482780912213,-12,-19,-18,-12,-3,-2,12,35
1513482780927232,27,-17,-8,11,3,2,6,-8
1513482780927232,-6,-3,25,-10,-8,-7,-11,-6
1513482780929223,10,8,38,12,1,2,0,0
1513482780929223,-16,-50,-63,-10,-5,0,-6,-10
1513482780950238,13,39,46,2,2,-2,2,11
1513482780950238,-10,-59,-13,-6,-4,-5,-3,-24
1513482780952241,-14,-16,12,10,-1,-3,-5,-16
1513482780952241,-2,19,0,-8,6,4,0,10
1513482780963257,-23,-11,-38,-1,-6,-7,7,31
1513482780963257,-1,28,0,-13,-4,-3,-9,-14
1513482780972254,-25,-6,22,2,1,-1,0,-25
1513482780972254,7,-1,13,13,2,3,17,76
1513482780987274,5,-10,-9,-8,-7,-4,-11,-15
1513482780987274,-29,15,9,-2,-3,1,-3,-5
1513482780988265,-11,26,38,-9,-2,-3,2,-23
1513482780988265,33,-23,-17,-6,-5,-5,-9,-5
1513482781009289,27,-10,-15,-1,-1,1,7,-13
1513482781009289,-6,-50,21,-3,-5,1,8,0
1513482781011281,17,-7,-62,-3,2,-4,-12,18
1513482781011281,-28,-20,44,2,3,-3,-12,-31
1513482781023300,-9,-19,-30,-10,-10,-5,8,-4
1513482781023300,-3,23,26,9,-1,-2,2,12
1513482781032297,28,-12,-15,5,12,5,0,9
1513482781032297,-29,-2,-12,-1,-4,2,6,-27
1513482781047335,0,1,-10,0,4,-2,-6,13
1513482781047335,-3,10,-15,1,0,0,3,-28
1513482781049325,11,-33,4,-2,2,-1,-9,5
1513482781049325,-12,49,40,3,0,-3,-11,7
1513482781069346,6,-6,-22,10,0,6,2,-18
1513482781069346,-33,18,12,-4,3,4,-1,-9
1513482781071325,6,25,12,6,-1,1,17,23
1513482781071325,1,-10,-2,-9,-1,-1,-15,-44
1513482781083354,-1,-10,2,5,-6,-5,0,-1
1513482781083354,15,4,2,4,2,2,-7,0
1513482781092339,0,9,-14,-4,1,2,4,1
1513482781092339,5,-3,-14,-3,-5,-4,0,8
1513482781107360,3,-8,19,2,-3,-7,-10,0
1513482781107360,5,-7,-39,-1,-1,3,6,13
1513482781108350,-3,26,38,-5,-10,-9,-13,-1
1513482781108350,11,-33,-75,-1,0,0,1,-4
1513482781129375,14,-2,-2,-9,1,2,14,2
1513482781129375,2,13,27,10,-5,-1,4,20
1513482781131376,7,34,8,2,0,-7,-21,2
1513482781131376,-2,-7,8,5,3,0,2,-19
1513482781143390,1,19,-1,5,5,6,0,4
1513482781143390,26,8,-8,-1,-1,-1,-1,-18
1513482781152394,-1,12,-13,-20,-11,-1,14,23
1513482781152394,-16,-27,-7,-10,-2,0,3,6
1513482781167404,11,9,11,14,-1,-5,4,4
1513482781167404,9,13,32,-12,4,5,-7,23
1513482781168393,-20,-1,-32,0,-1,0,-1,-23
1513482781168393,4,-21,10,0,-5,-4,1,21
1513482781189417,7,7,27,5,2,-1,-10,-8
1513482781189417,-37,-32,-1,1,-6,-6,-9,-1
1513482781191409,-3,-40,-3,1,-2,-4,-7,-25
1513482781191409,1,34,7,-5,-2,-3,5,15
1513482781212433,-5,10,15,7,0,-2,0,-37
1513482781212433,14,-6,-9,-13,-1,-1,-9,52
1513482781213451,-8,-14,-18,10,7,5,0,-41
1513482781213451,-12,5,17,17,-2,-3,-19,-30
1513482781227444,28,19,30,-4,0,0,-1,5
1513482781227444,9,-18,-60,-19,-8,-3,-4,-16
1513482781228444,-12,-19,-6,-2,-1,2,10,15
1513482781228444,6,-1,-2,-5,-2,-4,-10,4
1513482781249465,-5,4,3,-10,-2,-3,-1,11
1513482781249465,-23,-16,22,15,2,-1,1,-33
1513482781251463,21,9,-21,-3,5,5,0,25
1513482781251463,15,-2,23,5,0,2,12,-9
1513482781272481,-12,-42,-24,-8,-4,-1,-2,20
1513482781272481,2,16,9,2,2,-2,3,-27
1513482781273467,18,-8,7,3,-1,-1,-1,0
1513482781273467,5,39,8,-11,-3,-2,9,13
1513482781287502,-11,-2,2,1,-4,-4,-11,-5
1513482781287502,-4,23,-14,7,-1,0,3,3
1513482781288478,-29,-32,10,-5,-7,-7,-1,-1
1513482781288478,-3,14,4,7,2,0,6,5
1513482781309501,-3,-4,-43,-14,-2,3,10,20
1513482781309501,-18,-27,23,2,2,1,1,-19
1513482781311504,-5,6,-12,2,2,1,0,9
1513482781311504,-12,-5,-22,2,-2,-3,-18,-3
1513482781332521,-8,0,-4,-8,-5,2,24,6
1513482781332521,32,41,20,6,-2,0,1,11
1513482781334510,7,-27,-19,2,2,3,0,-10
1513482781334510,0,-4,-7,-14,-5,-1,-10,-2
1513482781346523,-26,-23,11,-5,0,1,1,-11
1513482781346523,-7,11,-35,4,2,-2,0,17
1513482781353555,1,20,25,-9,-3,-1,6,16
1513482781353555,10,-3,-41,-1,-1,-1,7,-3
1513482781369566,4,-4,-12,3,0,1,-11,-29
1513482781369566,8,-4,3,3,0,-5,-6,14
1513482781371567,4,15,38,11,2,0,-1,1
1513482781371567,-18,-15,-24,-12,1,4,10,-7
1513482781392618,19,13,17,2,-4,-1,0,-12
1513482781392618,2,-1,24,5,-2,0,-11,-3
1513482781393584,4,-10,-34,-2,4,3,1,5
1513482781393584,21,17,38,9,2,-2,-6,-6
1513482781406614,-24,-8,-38,-5,0,1,16,24
1513482781406614,5,-5,-11,-19,-6,-4,1,-15
1513482781413598,-28,-7,4,2,-3,-5,-3,-16
1513482781413598,-4,-15,-1,-14,1,1,2,14
1513482781429609,9,20,24,10,-1,-5,-18,-19
1513482781429609,-4,-12,10,7,-4,0,2,5
1513482781432626,3,-21,-38,-15,0,0,5,25
1513482781432626,23,33,13,3,-1,-2,0,-21
1513482781451648,1,16,37,15,1,-3,-12,19
1513482781451648,-15,-7,-45,-25,-11,-6,-5,-28
1513482781453626,-3,-4,-9,-4,1,-3,-2,0
1513482781453626,18,-14,10,-15,-3,-5,-3,12
1513482781466647,-8,12,-3,2,-1,-1,-5,-10
1513482781466647,25,-3,47,24,7,6,-7,-6
1513482781473652,10,1,-27,-3,-2,-6,-6,-10
1513482781473652,-15,-19,-46,-15,-3,0,-1,-1
1513482781489651,-15,4,43,0,-5,1,5,-16
1513482781489651,10,-8,-38,-16,-2,-2,2,20
1513482781491653,21,14,14,16,3,2,6,1
1513482781491653,-31,-5,42,5,-3,-4,-9,-11
1513482781511679,4,-41,-31,-18,-6,-4,-4,2
1513482781511679,-24,8,4,17,7,0,3,3
1513482781513684,8,3,44,2,-6,0,1,-21
1513482781513684,-10,-16,-55,-26,-9,-5,-3,3
1513482781526688,8,17,-20,-1,-2,-1,-2,2
1513482781526688,-11,0,9,-4,-3,-2,-4,7
1513482781533693,6,29,-29,-4,-1,-3,-7,-3
1513482781533693,-32,-34,0,7,-6,2,24,9
1513482781549711,1,-6,-5,4,-1,-4,-18,-6
1513482781549711,23,13,-21,-6,3,3,9,21
1513482781551708,0,-7,9,9,-2,0,1,3
1513482781551708,-16,14,-18,-7,1,0,0,0
1513482781571721,54,-2,-29,7,4,0,-6,-4
1513482781571721,-31,2,-7,1,-7,-5,8,28
1513482781573720,-56,-32,-23,-12,6,3,-1,-18
1513482781573720,13,6,28,12,2,0,-2,2
1513482781586726,-24,-7,-5,2,0,-1,2,5
1513482781586726,18,4,21,9,8,2,-7,-17
1513482781593730,10,20,-23,-15,-5,-4,-1,1
1513482781593730,-15,-4,16,9,-3,-2,-4,-17
1513482781609746,-19,3,31,-3,1,4,6,17
1513482781609746,-12,-12,-6,-4,-9,-6,-8,-26
1513482781611748,-15,4,-21,-5,6,1,-6,16
1513482781611748,24,6,8,0,-3,0,8,14
1513482781632752,-8,-1,15,-14,-7,-2,-4,0
1513482781632752,7,-14,-4,17,3,0,1,-29
1513482781634773,23,19,28,-2,1,-1,-6,-13
1513482781634773,-11,5,22,18,3,0,1,8
1513482781646762,-36,-14,14,-11,-8,-4,-3,7
1513482781646762,-7,25,-12,-23,-3,2,1,-9
1513482781652768,4,-5,26,10,4,0,-4,-3
1513482781652768,24,18,-4,15,2,-2,-10,-21
1513482781669797,9,36,-14,-5,-3,-1,24,22
1513482781669797,-11,-16,19,11,-4,-2,-8,-3
1513482781670779,-9,-3,-7,-27,-2,-2,-4,-3
1513482781670779,13,14,14,4,-1,-2,-10,5
1513482781691794,7,-3,-14,8,0,-1,-1,-20
1513482781691794,23,-7,20,6,2,7,11,14
1513482781693796,-16,7,-60,-17,-9,-6,-8,-1
1513482781693796,-22,-29,49,7,5,1,6,-11
1513482781705805,-13,-30,-48,-3,-6,-4,-3,-21
1513482781705805,19,-7,-81,-16,-1,-4,1,14
1513482781714814,1,-4,42,16,-1,-3,-1,22
1513482781714814,-22,0,-25,-9,-8,-2,-3,-41
1513482781729822,17,-5,15,3,6,2,-2,12
1513482781729822,-18,-11,7,2,-3,-6,-13,-7
1513482781730822,8,-7,-15,8,7,2,0,1
1513482781730822,-8,-24,-57,-10,-9,-6,4,28
1513482781751838,4,12,60,7,3,2,-1,-19
1513482781751838,-20,15,4,-10,0,0,-3,-1
1513482781753839,19,16,27,8,-1,-2,-4,-15
1513482781753839,23,17,-49,-13,1,4,0,11
1513482781765856,-11,-36,-14,4,-2,0,1,10
1513482781765856,-10,-1,9,1,5,1,-2,2
1513482781774863,5,-9,39,3,-3,1,8,-4
1513482781774863,-14,-14,3,2,-1,0,-1,14
1513482781789871,20,10,-14,-12,-7,-3,4,0
1513482781789871,0,-3,6,2,-3,-2,-12,-12
1513482781790863,-22,8,47,7,1,2,-3,-12
1513482781790863,12,38,5,-12,-3,-5,2,-8
1513482781811888,-1,-7,-11,10,5,-2,-5,10
1513482781811888,2,-5,5,-5,-4,-1,14,-6
1513482781813893,-9,-10,8,10,-2,-1,-8,-20
1513482781813893,27,22,15,-1,3,2,11,16
1513482781825898,9,-21,23,-5,-10,-2,-13,-2
1513482781825898,-6,-4,-34,-6,-1,-3,-6,2
1513482781834905,-8,-20,8,-2,4,-3,7,10
1513482781834905,-14,-2,-1,10,-1,-2,-8,1
1513482781849921,-9,16,-40,-12,-3,-3,-4,-8
1513482781849921,7,5,5,5,-1,2,7,18
1513482781850921,14,-33,-24,4,-2,-2,0,17
1513482781850921,-10,-2,7,-17,-8,-3,-9,-13
1513482781871931,4,-13,0,1,5,4,9,12
1513482781871931,8,7,1,-1,-2,-7,-22,-7
1513482781873928,19,19,-30,-8,-4,-1,5,25
1513482781873928,-9,-7,20,10,0,-4,-11,-19
1513482781885947,-2,-2,-1,-1,-3,0,10,33
1513482781885947,-19,-35,-4,2,-1,4,8,-32
1513482781894956,8,3,-32,-17,3,1,-1,19
1513482781894956,-26,-12,4,6,1,2,-1,-5
1513482781909963,3,16,3,0,-1,5,4,-1
1513482781909963,-19,11,16,3,4,-6,-8,-3
1513482781910965,12,11,25,4,-6,-2,-6,-6
1513482781910965,6,-22,-24,-4,4,2,-1,-2
1513482781931976,16,17,-25,-5,-6,-1,1,-5
1513482781931976,-10,-14,16,10,5,3,-1,1
1513482781933978,27,26,-27,-9,-12,-6,-6,5
1513482781933978,17,-1,-13,-13,2,4,4,11
1513482781945996,8,26,33,5,4,-1,-2,-36
1513482781945996,23,-21,-14,-6,-3,-1,7,38
1513482781955002,-13,-28,14,6,2,-2,-4,-17
1513482781955002,2,-12,-41,2,-3,-2,-3,2
1513482781969990,-24,-6,-10,-6,-5,-5,-9,-8
1513482781969990,-39,30,4,-4,-6,-2,-2,-18
1513482781970991,-3,-21,15,7,1,1,1,3
1513482781970991,9,-4,8,5,4,0,4,4
1513482781992026,-48,3,6,1,-4,-4,-5,-11
1513482781992026,49,4,-18,8,0,-1,0,18
1513482781994008,-21,-6,-12,-21,-6,0,1,-12
1513482781994008,22,14,30,5,-2,-3,-3,-23
1513482782006041,12,-2,-14,0,0,-2,-2,20
1513482782006041,-25,12,18,-3,-1,-1,-4,-9
1513482782015023,-1,-29,-10,-3,-2,-1,-4,-14
1513482782015023,6,-8,9,-14,-6,1,-1,-2
1513482782030033,-27,-19,18,-1,2,4,9,38
1513482782030033,28,40,-21,7,2,-1,-3,-5
1513482782031035,-21,-3,-12,3,0,-1,0,11
1513482782031035,-9,21,45,10,-2,0,7,-4
1513482782053065,4,-13,-61,-6,-1,1,0,-5
1513482782053065,6,-3,-3,-9,-1,3,-4,2
1513482782054063,-13,-4,-18,-6,4,-4,15,7
1513482782054063,1,-8,-5,5,4,-1,0,16
1513482782066071,-20,10,0,1,-8,-3,-2,-29
1513482782066071,14,4,15,-2,-1,2,6,4
1513482782075078,1,-8,3,4,2,0,-11,-10
1513482782075078,1,16,-2,-5,-1,0,29,20
1513482782089075,17,-4,28,9,2,0,-10,-3
1513482782089075,-26,-34,-17,-5,-4,-4,-1,-20
1513482782091076,23,16,21,6,1,4,7,-20
1513482782091076,1,-13,-37,-4,-5,-5,-9,3
1513482782112106,-9,5,-5,-15,-8,-9,-18,-8
1513482782112106,23,-24,-5,7,3,-2,-4,19
1513482782114107,9,20,-8,-11,-5,-4,1,-26
1513482782114107,0,16,-4,-6,-5,-6,-17,0
1513482782134129,-14,9,19,13,8,7,10,-1
1513482782134129,70,1,-17,5,-3,-2,-2,6
1513482782136109,-73,-4,7,-16,4,-1,-1,5
1513482782136109,48,-10,28,7,-4,0,7,-5
1513482782149139,8,15,11,-5,-2,-5,-7,-12
1513482782149139,-39,16,-14,-3,5,6,6,-3
1513482782151119,-27,-37,-12,0,-3,-2,-4,6
1513482782151119,-20,-29,1,-9,-12,-8,-8,-29
1513482782172136,-37,4,-24,-2,2,2,5,17
1513482782172136,-4,16,16,0,-1,-1,1,6
1513482782174136,8,17,11,5,-4,-2,5,-10
1513482782174136,-5,-5,8,12,7,3,1,0
1513482782194163,-3,1,-37,0,-4,-4,-5,-9
1513482782194163,-24,-13,3,-9,-5,-3,-8,-15
1513482782196150,6,-7,-18,-6,0,2,0,18
1513482782196150,-2,2,17,5,-1,-4,-5,-3
1513482782209172,10,2,17,2,1,1,-1,9
1513482782209172,-8,3,36,-3,1,-3,6,-25
1513482782211179,-22,21,-10,-8,-1,2,2,-12
1513482782211179,14,11,24,-3,-6,-3,5,-8
1513482782232179,15,-39,5,-3,-6,-1,-3,-21
1513482782232179,-15,-21,-25,-20,-5,-4,6,52
1513482782234178,1,-5,18,21,4,0,-12,-9
1513482782234178,-41,44,-15,-13,-4,-4,-5,-8
1513482782254191,-6,-8,-8,-2,0,5,11,20
1513482782254191,0,-22,39,3,-2,-5,-8,-11
1513482782256194,-14,-21,-67,-3,-5,-2,0,0
1513482782256194,12,12,-17,-3,2,0,-9,8
1513482782269214,-5,4,-7,-1,0,-2,-5,-18
1513482782269214,29,13,1,2,1,1,-2,0
1513482782276219,16,-7,6,-9,0,-1,4,8
1513482782276219,-4,1,-30,6,-4,-1,0,9
1513482782292237,8,10,4,-13,-1,0,3,-1
1513482782292237,-6,34,1,9,3,2,4,-4
1513482782294238,-7,-3,15,-1,-6,-3,-6,-8
1513482782294238,18,-6,6,-3,3,4,4,14
1513482782314247,39,-1,16,2,-5,-3,1,-18
1513482782314247,-83,-5,-8,2,0,3,5,-11
1513482782316236,53,-13,17,-1,3,0,-2,26
1513482782316236,-2,-6,-22,9,1,-3,-7,-16
1513482782328244,-27,12,15,3,1,-2,-5,-15
1513482782328244,45,29,37,-12,-7,-1,20,3
1513482782337250,-41,-35,-16,-3,-9,-8,-11,0
1513482782337250,-10,-42,-35,-4,1,1,-5,-8
1513482782352271,13,9,7,8,4,1,4,6
1513482782352271,9,6,10,11,2,0,-8,11
1513482782353272,19,-4,-3,9,6,1,4,-1
1513482782353272,44,39,25,-7,-5,-2,-3,-5
1513482782374291,-16,-19,9,10,-2,-2,-1,8
1513482782374291,-31,-71,-51,-15,-8,-4,-7,7
1513482782376278,42,33,12,-8,0,0,6,-7
1513482782376278,-4,1,14,7,1,-2,-8,6
1513482782389287,-21,17,8,0,-4,-7,-7,-10
1513482782389287,27,-15,-11,-2,8,3,3,-5
1513482782396306,-1,4,15,12,-2,-2,-5,-15
1513482782396306,-15,-17,-45,-10,-5,-5,-9,1
1513482782412318,30,11,10,-16,-5,0,3,19
1513482782412318,-30,-9,-3,9,3,-2,-9,5
1513482782413318,-28,-2,-10,0,0,0,4,-10
1513482782413318,-15,0,42,10,-1,2,-7,0
1513482782434329,30,-4,-37,6,-1,-4,-7,-7
1513482782434329,-49,-17,-18,-13,-2,-7,-4,-19
1513482782437321,39,3,39,0,1,3,4,26
1513482782437321,-36,13,-21,-12,-7,-1,2,-12
1513482782449345,7,-35,-1,-6,-3,-3,-3,-8
1513482782449345,2,5,21,-1,-2,-5,-1,-7
1513482782455351,-23,10,19,7,-6,-4,-3,-6
1513482782455351,1,3,-14,-11,3,2,5,1
1513482782472345,27,16,5,9,0,1,2,9
1513482782472345,-39,3,21,0,1,-2,-10,6
1513482782473346,22,-12,-16,-4,-6,-4,-6,-24
1513482782473346,-47,-8,-15,-7,-4,-1,0,10
1513482782494387,25,-11,25,1,0,-2,0,24
1513482782494387,-40,-8,-32,-10,-3,-1,-1,-42
1513482782496385,45,57,4,-1,3,0,-1,13
1513482782496385,-20,-15,30,6,2,4,11,15
1513482782509374,-19,17,43,-2,-4,-4,-6,6
1513482782509374,37,-8,0,20,6,2,-5,2
1513482782516400,-1,11,-58,-24,-3,-2,8,11
1513482782516400,-27,-23,9,2,1,2,2,-19
1513482782532410,-50,20,9,16,0,-2,2,6
1513482782532410,38,3,-8,-15,-6,-5,-12,5
1513482782534390,-18,7,1,1,3,5,8,1
1513482782534390,-26,5,-2,4,5,2,2,-23
1513482782554426,34,-11,-8,-1,0,-1,11,31
1513482782554426,52,27,5,6,0,4,10,-8
1513482782556426,-24,-30,0,-1,0,-5,-14,-12
1513482782556426,-7,0,-2,-11,-11,-3,15,-13
1513482782569438,3,-11,-23,-5,0,-1,-15,-11
1513482782569438,13,23,20,11,7,3,1,21
1513482782575418,-11,-22,6,-11,-8,-5,0,2
1513482782575418,35,17,-31,-1,0,0,3,0
1513482782592471,-28,-22,20,-2,1,2,12,9
1513482782592471,30,19,-3,9,-6,-3,-13,-3
1513482782593431,9,10,29,-8,2,0,14,-10
1513482782593431,-1,-12,-16,11,0,-4,-16,19
1513482782614447,-51,17,5,-10,-1,3,6,-34
1513482782614447,20,-12,14,-8,0,0,9,9
1513482782618470,10,10,-20,8,4,-1,-3,25
1513482782618470,-8,-4,33,7,-5,-2,4,-6
1513482782628456,7,-7,-19,-11,0,0,1,-2
1513482782628456,2,-15,-31,-10,-2,-2,-3,-11
1513482782637482,-9,-15,13,0,0,0,-10,0
1513482782637482,10,1,4,6,0,-1,-3,6
1513482782652487,12,-3,-3,12,2,3,2,-12
1513482782652487,20,32,7,-8,-4,-3,-6,0
1513482782653475,-3,-26,-58,-6,-4,-2,2,0
1513482782653475,33,6,-3,2,2,1,14,17
1513482782674502,7,-7,-7,-16,-3,1,1,-16
1513482782674502,-23,6,-13,3,1,-2,-4,7
1513482782676492,-4,-16,5,4,-2,-1,-2,7
1513482782676492,3,-6,-23,-8,-9,-4,3,12
1513482782688498,-6,3,-1,6,2,0,-6,-10
1513482782688498,3,-7,-30,-11,-4,-3,3,1
1513482782697505,-12,24,31,1,-2,-2,-10,-1
1513482782697505,-14,-8,29,7,0,-1,-2,-6
1513482782712515,4,10,-34,-9,-8,-7,-6,-4
1513482782712515,-15,-8,11,-1,1,0,-3,7
1513482782713525,4,-4,-13,7,2,0,-6,-18
1513482782713525,23,1,2,-11,-4,-5,1,-1
1513482782734555,-19,-5,-6,7,-3,-4,-11,-10
1513482782734555,27,-6,3,-9,4,2,-5,4
1513482782736533,-32,2,-9,3,-1,2,0,-1
1513482782736533,-1,19,0,-5,0,-1,1,3
1513482782748541,24,-19,-1,2,-1,-3,-5,-2
1513482782748541,-41,-16,-13,5,2,-3,-5,-16
1513482782757547,17,-13,-3,-2,-2,-3,1,2
1513482782757547,-10,-3,23,-4,-6,-1,-4,2
1513482782771566,6,12,-20,1,0,2,3,2
1513482782771566,-20,-10,-1,0,-1,0,2,-5
1513482782773559,9,2,14,3,2,1,-1,6
1513482782773559,-8,-20,-17,-3,-5,0,-3,-12
1513482782794594,-17,2,10,-18,-4,-4,2,1
1513482782794594,3,-10,-24,-3,-3,-3,2,8
1513482782796575,2,11,7,-9,-1,-5,-11,-19
1513482782796575,2,-1,3,18,0,1,-3,-4
1513482782808596,-27,-23,-5,-13,-8,-3,-1,-10
1513482782808596,-3,-1,14,6,4,-4,-16,-4
1513482782818601,-1,21,-2,-10,-1,1,1,8
1513482782818601,3,-20,-11,-5,-2,0,3,-8
1513482782831613,-3,7,-2,4,0,-2,-4,2
1513482782831613,4,-4,7,-4,-2,-2,-6,-7
1513482782833601,-34,-5,-6,2,0,-3,3,-9
1513482782833601,5,11,1,-1,3,1,2,4
1513482782854626,10,-11,-10,0,-3,0,0,5
1513482782854626,1,2,10,1,1,1,4,-1
1513482782856630,6,-7,8,2,0,-1,-3,-1
1513482782856630,-8,-1,-19,-6,-4,-2,2,-1
1513482782868666,1,-2,5,1,1,-1,0,-2
1513482782868666,1,-1,2,3,-1,-1,0,-3
1513482782877651,10,1,-1,-1,-1,-1,1,4
1513482782877651,-5,-3,2,-6,-2,0,-6,-7
1513482782891660,6,7,1,4,1,0,3,4
1513482782891660,-3,-4,4,1,-1,-1,1,-1
1513482782893657,-1,-4,-7,3,-2,-2,-1,1
1513482782893657,-1,-2,-2,-4,-1,0,0,-1
1513482782914672,1,2,-7,-6,-1,-1,-2,-1
1513482782914672,-17,-3,3,-1,-1,0,3,-4
1513482782915673,25,-1,0,-1,0,-2,-1,1
1513482782915673,-11,3,-1,-3,-3,-2,-4,-2
1513482782936675,3,2,4,4,1,0,0,1
1513482782936675,-2,-3,0,-2,0,-2,-6,-5
1513482782938677,-5,0,-2,-1,-2,0,-1,7
1513482782938677,6,2,-2,-1,-2,1,1,0
1513482782951706,-2,-1,1,1,0,-2,-3,1
1513482782951706,3,2,0,-1,0,-2,0,1
1513482782953687,-1,1,0,2,-1,-1,-2,-2
1513482782953687,-1,-1,0,-1,-1,-1,1,0
1513482782974723,-5,-2,0,0,0,0,-2,-2
1513482782974723,8,0,1,-2,-1,0,0,1
1513482782976703,-1,-1,2,-1,-2,-2,0,-2
1513482782976703,-3,-3,-7,-3,-1,0,-4,-3
1513482782998731,1,1,-3,0,0,1,0,0
1513482782998731,2,-3,-2,-3,-2,-1,-1,-2
1513482782999733,-1,-2,-3,-1,0,-2,-1,0
1513482782999733,-4,-1,4,1,-1,-3,0,-3
1513482783011727,-1,-1,-1,0,-2,0,2,1
1513482783011727,-2,-2,-1,1,1,-1,0,0
1513482783013728,-2,-4,-3,-3,-2,-3,-2,-2
1513482783013728,2,3,1,-1,-1,-1,2,0
1513482783034758,-1,0,-3,0,0,0,-2,-1
1513482783034758,0,-4,-1,-1,-1,-1,-1,-1
1513482783036745,1,-2,-3,-3,0,0,-1,-1
1513482783036745,-1,0,0,-1,-3,-2,-1,-3
1513482783047779,1,-1,-2,-2,-1,-2,0,-1
1513482783047779,-2,-3,-3,-1,1,0,-1,-2
1513482783056769,0,-1,-4,-1,-1,-1,-1,-1
1513482783056769,-2,-1,-1,-1,-3,-1,0,-2
1513482783071783,0,-1,1,-1,1,-2,-3,-1
1513482783071783,0,1,-2,-3,1,-3,-1,-2
1513482783073772,-1,1,-1,2,1,0,-1,-1
1513482783073772,-1,0,6,0,0,0,-1,-2
1513482783094824,-2,-1,9,1,-1,-1,0,0
1513482783094824,-1,-3,-23,-6,-2,-3,-1,-1
1513482783095800,-1,2,13,5,0,-2,-1,-1
1513482783095800,-4,-7,-13,-10,-4,-1,0,1
1513482783116816,-1,0,8,-1,-1,-3,-1,-1
1513482783116816,1,-3,-7,-1,2,-2,0,0
1513482783118812,-2,1,-3,0,-1,-1,-2,-1
1513482783118812,1,2,5,5,2,1,-2,-1
1513482783131832,-5,-5,-6,-4,-5,-3,-2,-2
1513482783131832,-2,-3,-5,-4,-2,-2,-1,-2
1513482783134834,1,-2,-2,1,0,-1,0,-2
1513482783134834,-2,-1,7,0,-2,-2,0,-2
1513482783161854,-2,-2,-3,0,-1,2,-2,-1
1513482783161854,-2,0,11,1,-1,-1,-1,-1
1513482783163837,-3,-6,-5,-6,-3,-2,-2,-3
1513482783163837,-1,4,10,7,0,-5,0,1
1513482783176864,-2,-9,-42,-17,-5,-2,-3,-1
1513482783176864,0,-2,-2,-1,-2,-3,-5,0
1513482783178865,0,-1,4,-2,1,-1,1,1
1513482783178865,-3,-2,9,1,-1,6,2,-1
1513482783191869,2,4,11,8,4,-1,-3,1
1513482783191869,0,1,-7,-3,-2,0,-1,1
1513482783193869,-4,-8,3,-3,-3,0,0,-1
1513482783193869,0,-1,-12,-3,-3,-4,-2,-1
1513482783214883,3,0,-2,2,0,0,1,-1
1513482783214883,2,6,28,9,3,2,-1,0
1513482783217872,0,-2,5,0,0,-1,-2,1
1513482783217872,-4,-6,5,-3,-10,-4,1,-6
1513482783236928,0,-1,-3,-5,-1,-1,0,0
1513482783236928,1,1,12,3,-1,-1,0,2
1513482783238887,2,5,-8,2,3,3,1,-2
1513482783238887,0,3,34,9,3,0,-3,-2
1513482783250934,-2,-4,-25,-6,-9,-1,2,-4
1513482783250934,-1,-6,18,-4,-2,-2,-3,-3
1513482783257911,-3,-4,-5,-7,-5,-5,-1,-1
1513482783257911,2,-6,-27,-8,0,0,-2,0
1513482783274913,-1,5,21,8,2,-3,2,2
1513482783274913,-1,-3,9,4,1,2,2,0
1513482783275913,-4,-4,-24,-12,-5,0,-1,-3
1513482783275913,-1,-2,5,0,-2,-4,-1,-1
1513482783296929,-2,-1,-5,0,0,2,-3,0
1513482783296929,0,3,3,6,2,-1,-1,1
1513482783298953,0,1,-10,0,-2,-4,-3,-2
1513482783298953,-3,-13,-82,-26,-8,-2,-1,1
1513482783310998,1,3,29,4,3,0,0,-1
1513482783310998,-3,-6,-9,-5,-3,-2,-1,-2
1513482783318017,0,4,14,5,1,0,-1,0
1513482783318017,-4,5,17,4,1,1,-2,0
1513482783334026,-1,-6,-14,-5,-2,-3,-1,-3
1513482783334026,0,-2,-9,-1,-1,-1,-2,0
1513482783336006,-2,-1,-11,-6,0,0,1,2
1513482783336006,0,3,14,8,0,-3,-1,0
1513482783357034,-4,-4,19,2,-4,0,-1,-2
1513482783357034,2,-2,-9,0,0,-1,1,-1
1513482783359027,-1,-2,-4,-3,-1,-1,-2,0
1513482783359027,-1,2,-6,-1,2,1,1,1
1513482783371035,-2,-1,-4,1,-1,0,-4,-3
1513482783371035,-1,-2,-8,-3,1,-3,-2,-3
1513482783378038,1,-2,-2,-2,-2,-2,-1,-1
1513482783378038,1,1,12,1,-1,-3,-1,-1
1513482783394065,0,2,1,3,0,-1,-1,0
1513482783394065,-3,-4,-18,-7,-2,0,-2,0
1513482783396051,0,-4,7,1,-2,-2,1,-3
1513482783396051,2,7,35,15,1,0,-1,-2
1513482783417079,-5,-16,-62,-28,-10,-4,-2,-4
1513482783417079,-1,-1,-1,-4,1,-2,-2,0
1513482783419065,-2,0,-2,2,-2,0,-1,-2
1513482783419065,-2,2,28,7,-2,-1,0,0
1513482783431075,3,7,20,10,2,1,0,2
1513482783431075,-1,-2,-7,-4,-1,0,-3,0
1513482783438079,-2,-3,-8,-1,0,-1,0,-3
1513482783438079,-2,-1,-4,-2,-3,1,1,-1
1513482783455157,1,0,-10,-2,1,0,-1,1
1513482783455157,2,4,13,8,4,-1,0,0
1513482783456146,-6,-10,-1,-15,-9,-4,1,-4
1513482783456146,-2,-1,-8,-2,-2,-1,-1,-2
1513482783477176,1,2,8,3,2,0,0,0
1513482783477176,0,3,12,7,0,-1,-3,0
1513482783479178,2,5,1,5,3,1,-2,-1
1513482783479178,-2,-7,-35,-5,-1,-1,-1,-3
1513482783492179,-3,-5,28,-2,-2,-2,0,-2
1513482783492179,2,1,-11,-5,1,-2,0,0
1513482783498200,0,2,11,4,-1,-1,-2,0
1513482783498200,0,-1,-10,-5,-1,1,-1,-2
1513482783514185,2,6,32,12,1,-2,-2,-1
1513482783514185,-4,-10,-41,-16,-7,-3,-1,-1
1513482783518188,-1,-1,-3,2,-1,-2,0,0
1513482783518188,-1,0,9,-2,-1,-1,-1,0
1513482783537209,1,7,1,9,1,0,0,1
1513482783537209,-2,-5,-19,-5,-3,0,-1,-3
1513482783538206,-2,-7,-8,-5,-3,-1,-1,-1
1513482783538206,-1,0,7,2,0,-2,0,1
1513482783551231,1,5,17,3,1,1,0,1
1513482783551231,4,16,23,19,5,2,0,1
1513482783558226,-5,-17,-67,-19,-5,0,-2,-1
1513482783558226,-5,-13,-18,-11,-5,-4,1,-3
1513482783574237,-1,-4,-1,-2,2,0,-4,-1
1513482783574237,0,0,10,-1,1,-1,-1,1
1513482783576229,3,10,36,11,2,1,0,-1
1513482783576229,-2,2,-1,1,-2,1,-1,0
1513482783597267,-1,-4,-1,-9,-3,-1,-3,-3
1513482783597267,-1,-3,4,3,-1,-1,-1,-1
1513482783598265,-3,0,14,2,-2,-1,3,0
1513482783598265,-1,-2,-13,-5,-3,-1,-2,-3
1513482783610304,1,2,10,7,0,-2,-1,0
1513482783610304,-1,-3,-17,0,-2,1,1,-1
1513482783619309,-3,-5,17,-8,-2,-3,-2,-3
1513482783619309,-1,0,-13,-3,-2,-2,-2,-1
1513482783634377,-2,-3,-3,-4,-2,-2,-2,-2
1513482783634377,-2,2,23,0,1,0,0,-1
1513482783636322,5,14,62,24,5,3,0,3
1513482783636322,-11,-18,-6,-29,-13,-6,-2,-5
1513482783657360,-1,-4,-24,-4,1,-1,-2,-1
1513482783657360,-2,-6,2,-5,-2,-1,0,-2
1513482783658338,0,6,5,6,1,-2,-2,-2
1513482783658338,1,6,14,9,1,2,0,0
1513482783670346,0,-1,-14,-2,0,0,-1,2
1513482783670346,-2,-7,-7,-7,-3,-3,-5,-2
1513482783679353,-2,-2,-12,-4,-2,-1,-2,0
1513482783679353,0,6,-2,8,1,0,0,-3
1513482783694393,-3,-8,-21,-9,-4,-1,-1,-2
1513482783694393,0,-2,-3,0,-1,-1,-3,-1
1513482783696366,-1,-1,-16,-5,-4,-1,0,-1
1513482783696366,2,11,30,8,4,0,0,-1
1513482783717432,-4,-16,-45,-8,-3,-2,0,-2
1513482783717432,0,-7,-5,-6,-1,-2,-3,-1
1513482783718378,-1,-1,-13,-2,-1,-1,0,0
1513482783718378,-1,-6,-10,-3,-2,0,-2,-1
1513482783730397,-1,9,18,4,2,1,-1,-1
1513482783730397,-1,-4,-2,-4,-3,-2,0,-1
1513482783739393,-3,-4,-22,-6,-3,-2,-1,-2
1513482783739393,3,6,9,6,1,0,-1,1
1513482783754405,0,0,2,0,-2,-2,-1,-3
1513482783754405,-1,-4,-8,-5,-2,-2,0,-1
1513482783756416,-1,1,5,1,-1,0,0,-3
1513482783756416,-4,-1,-3,-2,-1,1,0,-1
1513482783777433,0,-1,1,0,-1,0,0,2
1513482783777433,3,9,50,14,3,0,1,1
1513482783778422,-8,-17,-63,-26,-8,-3,-2,-3
1513482783778422,2,3,15,2,0,-1,-1,-1
1513482783790434,2,8,29,2,3,1,1,0
1513482783790434,-2,-11,-21,-10,-3,-2,-6,-2
1513482783799440,0,4,20,9,0,1,0,0
1513482783799440,-1,-3,-10,1,-2,-1,0,0
1513482783814451,1,4,6,-3,0,-2,-2,-1
1513482783814451,0,5,8,0,0,-3,0,0
1513482783816452,0,0,14,2,-1,-2,-1,-1
1513482783816452,-2,-3,-18,-5,0,-2,-1,-1
1513482783837463,2,-1,-2,1,1,0,-1,-1
1513482783837463,-2,-4,-18,-4,-3,-2,-1,-2
1513482783839478,-1,-2,5,0,-2,-1,-2,-2
1513482783839478,-1,-1,0,1,0,0,1,0
1513482783850495,-2,-5,-9,-1,-2,-1,-2,0
1513482783850495,-3,-3,-6,-4,0,-1,0,-1
1513482783859479,-2,4,3,3,1,-2,1,1
1513482783859479,0,-3,4,0,-2,1,-2,-1
1513482783874499,0,-4,-7,-5,-2,-1,-4,-1
1513482783874499,-1,-1,-3,-1,2,-2,-2,1
1513482783876490,-1,0,4,1,0,-1,1,-1
1513482783876490,-1,1,-1,1,-2,0,2,0
1513482783897511,1,1,19,4,0,-3,-2,-3
1513482783897511,-4,-10,-35,-18,-4,-2,-1,-3
1513482783898511,1,0,2,0,-1,2,-1,-1
1513482783898511,-1,0,-2,2,0,-2,-1,0
1513482783910521,-2,1,19,-4,-3,0,0,0
1513482783910521,-1,2,6,5,0,3,-1,-2
1513482783920526,-1,-5,-19,-3,-3,-2,-1,-1
1513482783920526,-1,-1,-1,-3,-3,-3,1,-2
1513482783934545,0,-2,-6,3,1,-2,-4,-2
1513482783934545,-2,0,0,1,-2,-2,-2,0
1513482783936534,-4,-3,-3,-3,-1,1,0,-2
1513482783936534,-2,-1,2,1,-1,-2,-1,-2
1513482783956557,-1,-4,-16,-6,0,-1,0,1
1513482783956557,0,1,2,-2,0,0,-1,1
1513482783958550,-1,3,7,1,0,-3,-1,-2
1513482783958550,1,-2,15,1,-1,-1,-1,-3
1513482783979586,-3,-2,-24,-2,-2,-1,-1,-2
1513482783979586,-1,0,-13,2,1,-1,-2,1
1513482783981570,-6,-8,-25,-12,-6,-2,1,-3
1513482783981570,-2,-8,-34,-8,-3,-2,-2,-1
1513482783994596,2,0,18,3,2,0,-2,-1
1513482783994596,-1,-3,-10,-4,-2,-1,-2,-2
1513482783996577,-1,4,18,5,1,-1,-1,0
1513482783996577,-2,-2,-3,-1,-1,-1,-1,0
1513482784016591,-3,-1,4,0,-2,-1,0,-1
1513482784016591,-1,3,13,6,2,-1,-1,0
1513482784019594,0,-2,-2,-1,-2,0,0,-2
1513482784019594,-2,1,7,-3,-3,1,0,-2
1513482784039608,3,-1,-5,0,1,-1,-1,2
1513482784039608,0,-1,5,-1,-2,0,0,-2
1513482784041609,-4,-2,3,-1,-2,-1,-1,-1
1513482784041609,-1,0,-5,0,-2,-3,-1,-1
1513482784054629,-3,-1,-9,-2,0,-1,-3,-1
1513482784054629,-4,-3,3,-3,-1,-1,-1,-2
1513482784055618,0,0,11,-1,-2,-2,0,-1
1513482784055618,1,4,-2,7,0,0,0,1
1513482784076637,-2,-8,-36,-7,-2,-4,-3,-3
1513482784076637,-2,-7,-14,-13,-2,0,1,-3
1513482784078638,-2,2,12,4,-1,-1,1,0
1513482784078638,-3,0,5,-2,-1,-1,-1,-1
1513482784099651,0,0,6,2,-1,-1,-1,0
1513482784099651,1,7,0,6,3,-1,-3,-1
1513482784100651,-1,-3,7,-2,-2,-3,-1,0
1513482784100651,-2,0,-1,-1,-2,-2,-2,0
1513482784114661,1,-1,6,-2,-1,-2,1,2
1513482784114661,0,0,8,3,-1,-1,-2,-1
1513482784115662,1,1,1,2,-1,-1,0,-3
1513482784115662,-1,-2,1,-2,-1,0,0,0
1513482784136690,-1,-1,3,0,1,1,-2,-2
1513482784136690,-4,-2,2,-4,1,-1,0,0
1513482784138677,-1,-1,-12,1,-2,0,0,-2
1513482784138677,-1,-1,-6,0,-2,-1,-1,-1
1513482784159692,0,-2,-2,-2,-2,0,-1,0
1513482784159692,1,-2,-2,0,-2,-1,0,-2
1513482784160693,0,1,-4,2,-2,0,0,-1
1513482784160693,-2,-1,1,-1,-1,0,0,-1
1513482784173702,-2,0,3,-2,-1,-2,-3,0
1513482784173702,2,1,0,-1,1,0,-1,1
1513482784180707,-2,-1,-1,-1,-3,-1,-2,-1
1513482784180707,-1,0,-1,-2,-3,-1,-3,-1
1513482784196744,-1,-1,-5,0,-1,-1,0,-1
1513482784196744,-1,-1,-1,-1,-2,-2,-1,-3
1513482784198718,-2,-1,-4,-1,-2,0,-1,-2
1513482784198718,0,-2,-2,-1,-3,-1,-1,-1
1513482784219733,1,-3,1,-1,1,0,-3,-1
1513482784219733,-1,-1,0,-1,-1,-3,-2,-1
1513482784220739,-2,-1,-1,0,-3,-2,0,-2
1513482784220739,-2,-2,2,0,-3,-1,0,-3
1513482784233772,-1,0,0,-3,-2,-3,-5,-1
1513482784233772,0,-2,1,1,0,-2,-2,0
1513482784240760,0,-1,-3,-2,-2,-1,3,-1
1513482784240760,0,-1,-1,-1,-3,-1,-1,0
1513482784256773,-3,-1,-2,-2,0,-1,-1,-1
1513482784256773,-2,-2,0,0,-1,-1,-1,-1
1513482784258764,-2,-2,-2,0,-2,-1,-1,-2
1513482784258764,0,-1,0,0,-3,1,0,-1
1513482784279776,0,-1,-2,-1,0,0,-2,-2
1513482784279776,-2,-2,-1,-1,0,-3,-1,1
1513482784280777,-1,0,-2,-2,0,-2,-1,0
1513482784280777,2,-1,-2,-2,1,-2,2,0
1513482784293804,-3,-1,-1,-1,-2,-2,-1,0
1513482784293804,-3,-1,-1,-2,-2,-1,0,-2
1513482784300794,-2,-1,0,-1,-2,-1,-1,-4
1513482784300794,-1,0,-2,-1,-3,-3,-2,-1
1513482784316828,0,-1,-1,0,2,-3,-1,0
1513482784316828,1,0,-3,-2,-1,0,0,0
1513482784318823,-2,-1,-1,-1,-2,-1,0,-1
1513482784318823,-1,-2,0,-1,-1,0,-1,-1
1513482784339830,1,-1,0,-1,-1,0,-2,-2
1513482784339830,-1,-3,0,-2,-2,-2,0,0
1513482784340832,-2,-2,-2,-1,-1,-2,0,-1
1513482784340832,-4,-1,-2,-2,0,-1,-1,0
1513482784353842,-2,0,-2,-3,-1,-1,-2,-2
1513482784353842,-2,-2,-1,-1,0,-2,0,-2
1513482784360837,-2,-1,-1,0,-1,-1,-2,-1
1513482784360837,0,-1,-1,-1,-2,-1,-3,-3
1513482784376846,3,-1,-1,0,0,-2,-1,0
1513482784376846,-1,-1,0,-2,0,-1,-2,-3
1513482784378846,-3,-1,-1,-1,-1,-2,1,0
1513482784378846,-1,-2,1,0,0,-2,-2,-2
1513482784399881,-1,-1,-2,-1,-1,0,-2,-1
1513482784399881,1,-1,-1,-1,-3,0,-1,0
1513482784400871,0,0,-1,-2,-1,1,0,0
1513482784400871,-3,0,-1,-2,0,1,1,-2
1513482784414871,0,-1,-2,-1,0,-1,-1,-2
1513482784414871,0,-1,-2,-3,-1,-3,-2,-1
1513482784420885,-2,-1,-1,1,-2,-2,-1,-1
1513482784420885,-1,0,-1,0,0,-1,-3,-3
1513482784436901,-2,-1,-1,-4,-1,-1,-2,0
1513482784436901,-3,-1,-2,-1,-1,0,-2,-2
1513482784438901,-2,-3,-1,-3,-3,-1,2,-2
1513482784438901,-1,0,-2,-1,0,-2,0,0
1513482784458903,0,-2,-1,0,2,-2,-1,0
1513482784458903,0,-1,-1,-2,1,-1,-2,-1
1513482784459904,-2,-1,-1,1,1,-1,-3,1
1513482784459904,-2,-1,-1,-2,-2,0,0,0
1513482784474915,-2,-2,-1,-1,-2,0,-1,0
1513482784474915,0,-1,-1,-1,-1,-1,-1,-1
1513482784480930,0,-1,-3,-1,-1,-1,1,0
1513482784480930,1,-1,1,-1,-1,-1,-2,-3
1513482784495951,0,-2,-1,-3,-1,0,-2,0
1513482784495951,0,-3,1,1,1,-3,-3,-1
1513482784496939,-2,1,0,-3,-1,-2,-1,-3
1513482784496939,-1,-1,-3,0,-3,-2,-1,-1
1513482784518983,0,-2,-1,0,0,0,-2,-1
1513482784518983,-1,-1,0,-1,-2,0,-1,-1
1513482784520950,-2,-2,0,0,-2,-1,0,-1
1513482784520950,-2,-1,-1,-1,1,0,0,1
1513482784532957,0,-1,1,-2,-1,-2,1,-1
1513482784532957,-1,-2,-3,-3,-2,0,-1,1
1513482784540966,-2,1,-2,-1,-2,-1,0,-1
1513482784540966,-2,-3,0,-2,-1,-1,-1,0
1513482784555987,-1,-3,-1,0,-1,-1,-3,0
1513482784555987,-2,-2,-2,-1,0,1,-2,0
1513482784556975,-2,-1,-2,0,-2,0,-1,1
1513482784556975,0,0,-2,0,0,-2,-2,-2
1513482784578997,0,0,-1,-1,0,-2,-2,-2
1513482784578997,-1,-2,-1,-2,-1,-1,1,-2
1513482784580000,-1,-3,0,-1,-1,0,1,-1
1513482784580000,0,1,-1,-1,-2,1,-2,-2
1513482784592997,-1,-1,-1,0,0,-1,-2,-1
1513482784592997,-1,-1,-2,-2,1,-1,-2,1
1513482784601006,-1,-1,0,-1,-2,0,-2,-2
1513482784601006,1,0,-1,-1,-1,0,1,-1
1513482784616017,1,-1,-2,-2,0,-2,-1,-1
1513482784616017,-2,-1,0,-1,-2,-2,-1,-2
1513482784617018,-2,-1,0,-1,-2,0,1,-2
1513482784617018,-2,-3,-1,-2,-1,-3,0,-1
1513482784639031,2,0,-2,0,1,-2,-3,-2
1513482784639031,-3,-1,0,0,-1,-4,-1,-1
1513482784640032,0,0,0,1,-1,-1,-1,-1
1513482784640032,-3,-2,-1,0,-3,-1,-1,-1
1513482784653040,-2,-2,-3,0,-1,-2,0,-1
1513482784653040,0,0,-3,-2,-1,0,-2,-3
1513482784661047,-4,-1,-2,-1,0,-1,-1,-3
1513482784661047,-2,0,1,-1,-2,-2,-1,1
1513482784676056,0,-3,-1,-3,-1,-1,-2,-1
1513482784676056,0,0,-1,-1,0,-1,0,-1
1513482784677058,-3,1,-2,-2,-3,-2,-2,-2
1513482784677058,0,-1,-1,-2,0,-2,-2,0
1513482784699075,-1,-1,-1,0,-1,0,-3,-2
1513482784699075,-1,-2,-2,-2,-2,-1,1,-1
1513482784700091,-2,-2,0,-2,-3,-2,-1,0
1513482784700091,0,-2,-1,-1,0,0,-1,-2
1513482784713084,-3,-1,-1,0,-1,-1,0,1
1513482784713084,-2,-3,-2,-1,0,0,-1,-2
1513482784721103,-3,-1,-2,-1,-1,-1,-1,0
1513482784721103,-1,-1,0,0,-1,-1,-1,-1
1513482784736100,1,-1,-2,-3,0,0,-1,-2
1513482784736100,-2,0,-2,-1,-1,1,-2,-2
1513482784737116,0,-1,0,0,-1,-2,0,-2
1513482784737116,0,1,-2,-1,-1,-2,-1,-1
1513482784759119,-1,-1,-1,-1,-1,-1,-2,-1
1513482784759119,-3,-3,0,-1,-2,-2,-1,-1
1513482784760120,-1,0,0,-2,-3,0,-1,1
1513482784760120,-1,0,1,-2,-1,0,-1,-2
1513482784773129,-1,-1,-2,-1,1,-1,-2,-1
1513482784773129,-2,-1,-3,-1,0,0,0,-1
1513482784781134,-1,-2,-2,1,-1,-1,-1,1
1513482784781134,-1,-2,0,1,-2,0,-1,-1
1513482784796143,-1,-1,-1,-1,1,-2,-1,-1
1513482784796143,2,-1,-1,0,0,-1,1,-1
1513482784797143,-2,-1,0,-1,-2,0,1,-2
1513482784797143,-2,0,-2,-1,-3,-1,-1,0
1513482784819174,-1,0,-1,-1,0,-1,-3,-1
1513482784819174,-1,-1,-1,-2,-1,-1,-1,0
1513482784819174,-1,-1,-1,-1,-3,-1,-1,-2
1513482784819174,-2,-1,-2,-2,-1,-2,-1,-1
1513482784833181,0,-3,-2,-1,-2,-2,-3,1
1513482784833181,-3,0,-3,-1,-1,-1,-1,-1
1513482784841186,-1,0,0,-1,-2,-1,1,-2
1513482784841186,0,-1,-1,-2,0,-2,-2,-2
1513482784856186,-1,-3,0,-1,0,-3,1,-1
1513482784856186,0,-2,-2,-1,-1,-1,-2,1
1513482784857184,-2,0,-2,1,-2,0,-2,-1
1513482784857184,0,0,-1,-1,-1,0,0,-2
1513482784879221,2,-1,-1,0,-1,-3,-2,-2
1513482784879221,0,0,0,-2,-2,-1,-1,0
1513482784879221,-1,-2,0,-1,-4,-1,0,-2
1513482784879221,-1,-2,0,-1,-3,0,-1,-1
1513482784893231,0,-2,-1,-2,0,0,-1,1
1513482784893231,-1,-3,-1,-2,0,-3,-1,0
1513482784901237,0,-1,0,-1,0,0,0,-3
1513482784901237,0,0,-1,0,0,-1,-1,-1
1513482784916231,-2,0,-1,-1,0,-1,-1,-1
1513482784916231,0,-3,0,-1,0,0,-1,-1
1513482784917227,-4,1,0,-2,-3,-2,-1,0
1513482784917227,-2,-2,-1,-1,-1,-2,0,0
1513482784939247,0,-1,-2,-1,2,-1,-2,-1
1513482784939247,-1,-1,-1,-2,-2,-1,-2,-2
1513482784939247,-1,-1,-2,-1,-1,-1,0,-1
1513482784939247,-2,-1,0,-1,-1,-1,0,-1
1513482784962280,-2,-2,-2,-2,-1,0,-1,2
1513482784962280,-2,1,0,-1,-2,0,-2,-2
1513482784963281,-1,-2,0,-2,-1,0,0,-3
1513482784963281,-2,0,-2,0,0,0,-2,-3
1513482784976279,2,-1,-1,-1,-2,0,-2,-1
1513482784976279,1,0,0,0,0,-2,0,0
1513482784977269,-2,0,-2,0,-2,-1,1,2
1513482784977269,-1,-1,-1,-1,0,0,-1,0
1513482784999287,1,-3,-2,-2,-1,-1,-4,-2
1513482784999287,-1,-1,-1,-2,0,-1,-1,-1
1513482784999287,-2,-1,0,0,-3,-1,-1,-1
1513482784999287,-1,1,-1,0,-2,-1,-2,-1
1513482785022302,-1,-1,0,-1,1,1,-1,-1
1513482785022302,0,-2,-1,-1,-1,-3,0,-3
1513482785022302,-3,-1,-1,0,0,-2,1,0
1513482785022302,0,-2,-2,-1,-2,-1,-1,-1
1513482785036310,0,-1,-1,-1,-2,0,-2,-1
1513482785036310,-2,-1,-1,0,-2,-2,-1,-2
1513482785037314,-1,0,1,0,0,-1,-1,-3
1513482785037314,-1,0,-1,-1,-1,-2,0,-4
1513482785059328,2,-2,-2,-2,0,-3,0,1
1513482785059328,-1,-1,-1,0,0,-1,-1,0
1513482785059328,-2,-1,-1,-2,-4,0,0,-1
1513482785059328,0,-1,-2,1,-1,-1,0,-1
1513482785082344,0,0,-1,-1,1,0,0,0
1513482785082344,-1,1,-1,0,-2,0,0,0
1513482785082344,-2,-2,0,-1,-3,-2,-2,-2
1513482785082344,-2,-3,0,0,0,0,-2,-1
1513482785096369,-1,-2,-2,0,0,-3,-1,0
1513482785096369,0,0,-2,-1,-2,0,0,-1
1513482785097377,0,2,-2,-1,-2,-1,0,-1
1513482785097377,0,-1,-1,-1,-2,-1,1,0
1513482785118391,-2,0,-1,-1,1,-2,0,-1
1513482785118391,-2,-1,0,0,0,-1,-1,0
1513482785119380,0,-1,0,-1,-3,-1,-3,-1
1513482785119380,-1,-1,1,-1,-2,-1,-2,0
1513482785142387,-2,-1,-2,-1,0,0,-1,-1
1513482785142387,-2,-2,-2,-2,-4,-2,0,-1
1513482785143387,-3,0,-1,-1,-1,-1,0,0
1513482785143387,-1,0,-2,-1,0,-2,-2,-1
1513482785156398,-1,-2,-2,-2,0,0,-2,-2
1513482785156398,-2,-2,-3,-2,0,-1,-1,0
1513482785157396,-1,-1,-1,1,-4,0,-1,-1
1513482785157396,-1,1,-2,-2,0,-3,0,-1
1513482785178429,0,-2,0,-3,0,-1,-2,0
1513482785178429,0,-2,-1,-1,0,0,-1,-3
1513482785179429,-5,0,-1,-2,-2,-1,0,0
1513482785179429,0,-1,0,-2,-1,-1,-1,0
1513482785202450,0,-1,-1,-1,-2,1,-1,-1
1513482785202450,0,0,0,0,-1,-2,0,-2
1513482785202450,-2,-3,-2,-1,-1,1,1,-1
1513482785202450,-3,-1,-1,0,-2,-1,-3,0
1513482785216460,-1,0,-3,-1,0,0,-4,-1
1513482785216460,-2,0,1,-1,-2,-1,0,-1
1513482785217443,-2,0,-1,-2,-1,-1,-2,-3
1513482785217443,-1,-2,-1,-1,1,-1,0,0
1513482785238456,-1,-1,-2,-1,-3,-1,-2,1
1513482785238456,-1,-4,-1,-1,0,-1,-1,-1
1513482785239457,0,0,-1,-1,0,-1,1,0
1513482785239457,-1,-1,-2,-1,-1,0,-2,-1
1513482785262472,-2,-3,-2,-1,0,-3,-1,0
1513482785262472,0,0,-2,0,-1,-1,0,0
1513482785262472,0,-1,-1,1,-1,-1,0,-3
1513482785262472,0,0,-1,-1,-3,1,-2,1
1513482785276482,0,-2,-1,-1,0,-2,-1,0
1513482785276482,-1,-2,-1,-2,-3,-2,0,-1
1513482785277482,0,-2,-1,-2,-2,-2,-2,-2
1513482785277482,-1,-2,-1,-2,-1,-2,0,-1
1513482785298519,0,-1,-1,1,-1,-2,-2,0
1513482785298519,0,0,-1,-1,-1,0,-1,-2
1513482785299509,-1,-2,-1,-1,-2,1,-2,-1
1513482785299509,-1,-1,0,-1,-1,-2,0,0
1513482785321609,0,-3,-2,-1,-1,0,-2,-2
1513482785321609,-2,0,-3,-3,-1,-1,-2,0
1513482785322610,-2,-1,-2,1,-2,0,-1,0
1513482785322610,-1,-2,0,0,-1,-1,-1,1
1513482785336661,-1,-2,1,0,1,-2,-1,0
1513482785336661,-2,-1,0,0,-1,0,-1,-1
1513482785337621,1,-1,0,-2,-1,-1,-1,-2
1513482785337621,2,-1,-1,-1,0,0,-1,-1
1513482785358646,0,-2,0,-1,-1,-1,0,0
1513482785358646,-2,-2,-1,-1,-1,-3,-1,-1
1513482785359635,-2,0,-1,-2,-1,-1,1,-1
1513482785359635,-2,0,-2,-2,-2,-1,-2,-2
1513482785381740,0,0,-2,-2,-1,1,-1,-2
1513482785381740,-1,1,-1,-1,-3,0,0,-2
1513482785382724,-2,-1,0,2,-1,-1,0,0
1513482785382724,1,-1,0,0,-1,-1,-1,-1
1513482785396750,-3,0,-1,-2,0,-4,-3,1
1513482785396750,-2,-2,-1,-1,0,0,0,-1
1513482785396750,-1,1,-2,-1,-2,-1,-2,-1
1513482785396750,-1,-2,-1,0,0,-2,-3,-2
1513482785418775,1,-2,-1,-2,0,-1,0,-1
1513482785418775,-2,-1,0,-2,-1,-2,-2,0
1513482785419761,-2,0,0,-1,-1,-1,0,-1
1513482785419761,-2,-1,0,-2,0,0,0,-1
1513482785441775,0,-3,-2,-1,-1,-1,-1,-2
1513482785441775,-2,-2,-3,0,-2,1,-1,-1
1513482785442767,-1,0,-1,-2,-2,-2,1,-2
1513482785442767,-2,-1,-1,-3,-1,-2,-2,-1
1513482785456776,-2,2,-2,-1,-2,-3,-1,-1
1513482785456776,-1,-2,-1,-1,-1,-1,-3,0
1513482785456776,-4,-1,-2,0,-1,0,2,0
1513482785456776,0,0,-1,-2,-1,-2,-1,-1
1513482785478792,1,0,-1,0,1,-2,-1,0
1513482785478792,-1,0,1,-1,-3,-1,1,-1
1513482785479793,-1,-1,-1,-1,-2,-2,1,-1
1513482785479793,-2,-1,-2,1,0,1,-1,1
1513482785501827,-2,-1,0,-2,-1,-1,-1,0
1513482785501827,0,-1,-1,-1,-2,-2,-2,-1
1513482785502809,-1,-3,-1,-1,0,-3,-2,-2
1513482785502809,-2,0,-2,-1,-1,-1,1,-3
1513482785515838,-1,-1,-1,-1,-2,-1,-2,0
1513482785515838,-1,0,0,-1,0,0,2,-3
1513482785516838,-2,-1,0,0,-3,0,0,-2
1513482785516838,0,1,-1,-1,-1,0,-2,0
1513482785538835,0,-2,-1,-2,0,-1,-1,-1
1513482785538835,0,-1,-1,-1,-1,-3,-1,2
1513482785539838,-1,-2,-1,-1,-3,-1,0,-1
1513482785539838,-1,-2,-1,-1,-2,-2,-3,0
1513482785561864,-2,-1,-2,-1,0,1,-2,-1
1513482785561864,1,0,-2,-1,-1,-1,0,-2
1513482785562853,0,0,-3,-1,0,0,-1,-1
1513482785562853,-1,-2,1,0,-1,-2,-1,-1
1513482785575861,-3,-1,0,-1,1,0,-2,0
1513482785575861,-3,-2,-1,0,-1,-1,0,0
1513482785583905,0,0,-1,-1,-3,-1,-2,-2
1513482785583905,0,-1,-3,0,1,-2,0,-2
1513482785598917,-1,-2,-2,-2,0,-1,-1,0
1513482785598917,-1,-3,-2,-2,1,1,-2,-1
1513482785599880,-2,-1,0,-1,-3,-1,0,-1
1513482785599880,0,0,-1,-1,-1,-1,-1,-1
1513482785621895,-1,-1,-2,-2,-1,-3,-1,-2
1513482785621895,-3,-1,-1,0,-2,0,0,-1
1513482785622894,0,-2,-2,-1,0,0,0,-2
1513482785622894,0,-1,-1,-2,-1,0,-1,-2
1513482785635928,1,0,-1,0,0,0,-1,-2
1513482785635928,-1,0,-3,-2,-4,-4,-1,-2
1513482785643934,0,-1,-1,-1,-1,-2,-2,0
1513482785643934,-2,0,-2,-1,1,-1,0,0
1513482785658937,-3,-3,0,-2,-2,-2,0,-2
1513482785658937,-3,0,-1,-1,-2,0,0,0
1513482785659920,0,0,-1,0,-2,0,-1,1
1513482785659920,0,-2,-1,-1,-1,0,-1,-1
1513482785681945,-2,-2,-3,-2,-2,-1,-2,-1
1513482785681945,-2,-2,0,-1,0,-3,1,-1
1513482785682946,-2,1,-2,-2,-2,0,2,0
1513482785682946,1,0,0,-1,-1,-2,-1,1
1513482785695955,0,-1,-2,-1,1,0,-1,-3
1513482785695955,-1,-2,-1,0,-2,-2,-1,0
1513482785703953,-2,0,0,-1,-2,-3,0,-2
1513482785703953,0,-1,-2,-2,0,-2,-3,-2
1513482785718965,1,-2,-2,-2,-1,-2,-1,-1
1513482785718965,-2,-2,-1,-2,0,0,1,-3
1513482785719972,-2,0,0,0,-3,-2,0,-2
1513482785719972,-2,-2,-1,-2,-1,-3,-1,1
1513482785741999,-1,-1,0,0,-1,0,0,-1
1513482785741999,-3,-1,-2,-1,-3,0,-1,-2
1513482785742979,-3,-2,0,1,0,0,-2,-1
1513482785742979,0,-1,-1,0,1,-1,-2,-3
1513482785755992,0,0,-1,-2,1,-1,-2,0
1513482785755992,-1,0,-1,-1,-2,0,0,-1
1513482785764014,0,1,-2,0,-1,-2,-1,-1
1513482785764014,0,-1,-1,-1,-1,-1,-2,1
1513482785779019,-1,-1,-1,-1,0,-2,0,-1
1513482785779019,-3,0,0,-2,-2,-2,0,-2
1513482785780019,-2,-2,-1,1,-2,-1,-1,-2
1513482785780019,-2,-2,0,-2,-1,0,-2,-2
1513482785802085,-1,-2,-1,-1,-1,-3,-2,1
1513482785802085,-3,-2,-1,-1,-2,-1,0,-4
1513482785803068,-1,0,-1,-1,0,-1,0,-3
1513482785803068,-1,-2,-2,-1,0,-2,-2,0
1513482785816087,0,-1,-2,-2,0,-2,-2,-1
1513482785816087,-1,-1,-2,-2,-1,0,-2,-1
1513482785824037,2,-1,0,-2,0,0,0,-3
1513482785824037,-2,-1,0,-2,-1,-1,-2,-1
1513482785839057,0,-1,0,1,-2,-3,0,1
1513482785839057,-2,0,-1,1,-1,1,-1,2
1513482785840048,-2,-2,0,-2,-1,-2,-1,0
1513482785840048,2,-1,-1,-2,1,-2,0,-1
1513482785862083,-2,-1,-2,-1,-1,1,-2,-2
1513482785862083,-1,-2,-1,0,-2,-1,0,-2
1513482785863067,-1,0,-1,-1,-1,-2,-3,1
1513482785863067,0,-1,-2,0,-1,-1,-4,-1
1513482785876093,-1,0,-1,-2,-1,0,0,-3
1513482785876093,-3,-1,1,-3,-3,-2,0,-3
1513482785884099,-1,0,-2,-2,-2,-2,-4,-2
1513482785884099,-3,-1,-2,2,-1,-2,0,-2
1513482785899109,1,0,-1,-1,-1,0,-1,-1
1513482785899109,-1,-1,-2,-1,-1,-1,-3,-1
1513482785900090,-2,-2,-2,-1,-4,-1,-2,0
1513482785900090,1,-1,0,-1,1,-2,1,-1
1513482785922105,-2,-2,0,-2,-1,0,0,-1
1513482785922105,-1,-2,-1,-2,-1,0,-1,-1
1513482785923106,-3,-2,-1,-2,-1,-2,-1,-1
1513482785923106,0,0,-3,-2,0,0,-2,-2
1513482785945121,0,0,-1,-1,-1,0,0,-1
1513482785945121,0,0,-2,-1,-1,-1,0,-4
1513482785946133,1,-1,-1,-1,-2,1,0,-2
1513482785946133,0,-1,-2,0,-1,-2,-2,0
1513482785959132,0,-2,-1,-1,1,-3,-1,1
1513482785959132,-3,-1,1,-2,-1,-2,-1,-2
1513482785960133,-2,-1,-2,0,-3,0,1,-1
1513482785960133,-1,-1,-1,-1,-1,1,-1,0
1513482785982161,-2,-3,-2,0,0,-1,-1,1
1513482785982161,1,-2,-1,1,-2,-1,-1,0
1513482785983162,0,-1,-1,0,0,-1,0,0
1513482785983162,-1,-2,-2,0,-2,-2,-1,0
1513482786005167,-2,-2,-2,-2,-1,-2,0,-2
1513482786005167,-2,-1,-3,-1,-1,-1,0,-1
1513482786005167,0,0,0,0,0,0,0,-2
1513482786005167,0,-2,-2,-2,0,-2,-4,2
1513482786019231,-1,-2,0,-2,0,-1,-2,-1
1513482786019231,-1,-1,1,0,-3,-3,0,-3
1513482786019231,0,-1,-1,-1,-1,-1,1,0
1513482786019231,-2,-1,-2,-1,-1,1,1,-2
1513482786042205,0,-2,-3,0,-1,-2,-2,0
1513482786042205,-2,-2,-2,-1,-1,-1,-2,1
1513482786043194,-2,-2,0,-1,-2,-2,-2,-2
1513482786043194,0,-1,-1,-2,-1,-2,0,-2
1513482786064222,-2,-1,-1,-3,0,3,1,-2
1513482786064222,0,-1,-2,0,-1,0,0,-2
1513482786065208,-2,-2,-1,0,-2,-1,-2,0
1513482786065208,-1,2,-2,-1,0,-1,-2,-1
1513482786079230,-2,0,-2,0,-2,-2,-2,-3
1513482786079230,-2,1,-1,-3,-1,-2,2,-1
1513482786079230,-1,-1,-1,-1,-2,-1,-1,0
1513482786079230,-1,-2,0,0,-1,-1,-2,-1
1513482786102251,0,-1,-2,0,0,0,-2,-1
1513482786102251,-5,-1,1,0,-1,0,-1,-2
1513482786103235,-2,0,-1,-1,-2,-1,-2,-1
1513482786103235,2,0,-2,-2,0,-2,-4,-1
1513482786132254,-2,-2,-2,-1,2,-2,-2,0
1513482786132254,-2,-1,-3,0,-3,0,1,-1
1513482786133255,-3,0,1,-2,0,0,1,0
1513482786133255,-2,-1,-1,-1,0,-1,-1,1
1513482786139260,1,-1,-2,-1,-2,-1,-3,-1
1513482786139260,-1,0,-2,-1,1,-1,0,1
1513482786139260,-3,-1,1,1,-2,-3,1,1
1513482786139260,-2,-2,-2,0,-1,-2,-3,-1
1513482786162293,-1,-1,-1,-3,-1,-4,-3,1
1513482786162293,-3,-1,0,-2,-4,0,-1,0
1513482786162293,-1,-1,-1,-1,0,-1,-2,-5
1513482786162293,2,-2,-2,-2,-1,-1,-1,-1
1513482786184309,0,1,0,-1,-1,-1,0,-1
1513482786184309,-1,-1,-1,-1,-2,0,-1,-2
1513482786185297,-1,-1,-1,-1,0,0,0,-1
1513482786185297,-2,-1,-1,-1,1,0,-2,-1
1513482786198314,-2,-3,-1,-2,-2,-1,-4,-2
1513482786198314,2,0,-1,-1,-1,0,0,0
1513482786199301,-1,0,-2,-1,-2,-3,-1,-1
1513482786199301,-1,-2,1,-1,0,-2,-1,-1
1513482786222318,-2,-1,-1,-1,-2,-1,-2,-1
1513482786222318,-2,-3,0,1,-2,-1,-1,-2
1513482786222318,-1,-2,-1,-1,-2,-2,-2,1
1513482786222318,0,-1,-1,-1,-2,1,-2,0
1513482786244345,-1,0,-1,0,-1,-1,2,-1
1513482786244345,-4,-1,0,-1,-1,0,1,-1
1513482786245334,-2,-1,0,-1,-2,1,-1,-2
1513482786245334,1,0,0,-3,2,0,0,-1
1513482786258353,-1,-1,-1,-1,-5,-2,0,0
1513482786258353,-1,-1,-2,0,-4,-2,-2,-3
1513482786259344,-3,0,-3,-1,-1,0,-2,-2
1513482786259344,-1,-2,-1,-3,1,1,-1,0
1513482786282370,0,-1,0,-1,0,-3,-1,-1
1513482786282370,-2,0,-1,-2,0,0,2,0
1513482786282370,-2,-1,0,0,-2,1,0,-1
1513482786282370,0,-2,-2,1,-1,-2,-1,-2
1513482786304386,-1,-1,-1,-3,0,-1,0,-1
1513482786304386,-1,-2,0,0,-4,-2,-2,-1
1513482786305377,0,-1,0,0,0,0,0,-1
1513482786305377,-2,-1,-2,0,1,-1,-1,-2
1513482786318408,-1,-1,-1,-2,0,-1,-1,-2
1513482786318408,-3,-2,-1,-1,0,-1,-2,-2
1513482786319396,-1,-1,-2,0,-3,1,0,0
1513482786319396,-1,-2,0,0,-1,-1,-2,0
1513482786342412,-1,-2,-1,-1,-1,1,0,0
1513482786342412,-1,-2,-2,0,-1,-2,0,-2
1513482786342412,0,-2,0,-1,-2,-1,0,0
1513482786342412,1,-1,-3,-1,0,-1,0,-1
1513482786364442,-2,-1,0,-1,1,-2,-2,-1
1513482786364442,-2,1,-1,1,-2,-1,-2,-1
1513482786365418,0,-2,1,-2,-1,0,-2,-1
1513482786365418,0,-1,-1,-3,-1,-1,-1,1
1513482786378429,0,-2,-2,-3,-1,-2,0,-1
1513482786378429,-1,0,-1,-1,-2,-1,1,0
1513482786379429,-2,1,-2,0,-2,-2,-1,-2
1513482786379429,-2,-1,-1,-1,-3,-2,-1,0
1513482786402460,1,-1,-1,-1,0,0,-3,-1
1513482786402460,-2,-2,-1,0,-2,-3,0,-4
1513482786402460,-2,-2,-1,-1,0,0,0,0
1513482786402460,-1,0,-1,-1,1,-1,-2,0
1513482786424490,-1,-1,-2,-2,-2,-1,-1,2
1513482786424490,-1,-2,0,-2,-3,-2,0,-1
1513482786426475,0,-2,0,0,0,-2,0,-1
1513482786426475,0,0,-1,-1,1,-1,-3,-3
1513482786438492,-1,-2,-2,-1,-1,-3,-2,-1
1513482786438492,-3,0,0,-1,-2,-1,-1,-2
1513482786447497,-2,0,1,0,-2,-3,1,-1
1513482786447497,-2,-2,0,-1,-2,-1,-2,1
1513482786461486,-1,-1,-1,-1,0,-1,-1,-2
1513482786461486,1,-1,-1,-2,-3,-2,0,-2
1513482786462488,0,1,0,-2,-1,-1,-1,-2
1513482786462488,0,-1,-2,-2,-2,0,-2,-3
1513482786484525,-3,-1,0,0,-1,-2,0,-1
1513482786484525,-3,0,-1,-1,-4,-1,0,0
1513482786485505,0,0,-2,0,-1,-1,-2,-2
1513482786485505,-1,-2,-2,0,-2,-1,-1,0
1513482786498528,-1,-2,0,0,0,0,0,-1
1513482786498528,-1,0,0,0,-1,1,2,-2
1513482786506534,1,0,-2,0,-1,-2,-2,0
1513482786506534,-1,1,-1,-1,0,-1,-2,1
1513482786521533,-1,-1,-2,-2,-3,0,0,0
1513482786521533,-2,-1,0,-1,0,-1,-1,-1
1513482786522531,-2,-1,0,0,0,-1,0,0
1513482786522531,0,-1,-1,-2,-1,-3,-1,-2
1513482786544545,-2,-1,0,-1,0,0,-3,0
1513482786544545,0,0,-2,-1,-2,1,0,-1
1513482786546562,-2,-1,-1,-1,0,0,-2,0
1513482786546562,-2,-2,-3,0,1,-1,-1,-1
1513482786558573,0,0,-3,-1,-1,-2,-2,-1
1513482786558573,-1,-1,1,0,0,-1,-2,-1
1513482786567574,-2,-1,-2,-2,-1,-1,-3,-2
1513482786567574,0,-1,-1,-1,1,-1,0,-1
1513482786581575,-1,-2,-1,-1,-2,0,2,-1
1513482786581575,-3,0,-1,-3,-2,-1,2,1
1513482786583586,-2,-2,0,-1,-4,0,-1,0
1513482786583586,-1,-2,1,-1,1,-1,-2,0
1513482786604589,-1,-2,0,-1,-1,0,0,-1
1513482786604589,-1,-1,-1,0,-4,-1,-1,-2
1513482786606589,0,-2,-1,-1,-1,-1,-1,-1
1513482786606589,1,-2,-2,-3,-1,-1,-1,-2
1513482786618630,-1,0,-1,0,-3,-2,-2,-3
1513482786618630,-1,-3,-1,0,0,0,1,0
1513482786627609,-2,0,0,-1,-2,-2,-1,-2
1513482786627609,2,0,0,-1,-2,0,-2,-2
1513482786641636,0,-2,0,-1,1,-1,-2,-1
1513482786641636,-4,1,0,-2,-2,0,0,-2
1513482786643629,1,-3,-1,-1,-2,0,0,-2
1513482786643629,1,-3,-3,-1,0,-1,0,0
1513482786664631,0,-2,-1,-1,-1,0,-2,-1
1513482786664631,-3,-1,-2,-1,-3,-1,-1,-1
1513482786665631,0,-1,-1,-1,-1,-1,-1,-1
1513482786665631,0,0,0,-2,-1,-2,-3,0
1513482786677653,-3,-2,-1,1,-1,0,-1,0
1513482786677653,-2,-1,0,0,1,1,0,-1
1513482786687666,0,0,0,-1,0,0,-2,0
1513482786687666,-1,-1,-1,-1,0,-1,-3,0
1513482786701711,-3,-1,-1,-1,-1,-2,-1,-2
1513482786701711,0,0,0,0,-2,-2,-1,-2
1513482786703658,-3,1,0,0,1,-3,1,-2
1513482786703658,-1,-2,-1,0,-2,-1,-2,-1
1513482786724683,-1,-2,-2,-2,0,0,-1,-3
1513482786724683,-3,-1,-2,-1,-5,0,-1,0
1513482786725674,-2,-2,-1,-1,1,-1,-1,-1
1513482786725674,-1,-3,-2,0,0,-1,0,0
1513482786738685,1,-1,-1,-1,-2,-1,-2,1
1513482786738685,-1,-1,-2,-1,-1,0,0,-2
1513482786747716,-1,2,-1,-2,-2,0,-2,0
1513482786747716,1,-2,0,-3,1,-3,-1,-1
1513482786761712,0,-1,-2,-2,-1,0,-3,-4
1513482786761712,-2,0,0,-1,-4,0,-1,-1
1513482786763712,-1,-1,0,1,-1,1,-2,-2
1513482786763712,-2,-2,-4,-1,0,0,-3,-1
1513482786784738,-1,0,-1,-2,-3,-3,-1,1
1513482786784738,-2,0,1,-3,-2,-2,0,-2
1513482786785726,0,-2,-1,-1,-3,-2,0,-1
1513482786785726,-2,-1,-2,-1,0,-2,0,0
1513482786797749,0,0,1,-1,0,0,-1,-2
1513482786797749,-1,0,-1,0,-2,-2,0,0
1513482786807738,-1,-1,-1,0,-1,-2,0,0
1513482786807738,-1,-1,-2,-1,1,-1,-1,-1
1513482786821743,-2,-1,-2,-3,0,-1,-1,-1
1513482786821743,-2,0,0,-1,-1,-2,0,-1
1513482786825745,-3,0,0,0,-3,-2,-1,-1
1513482786825745,-1,-2,-2,1,0,-1,-3,1
1513482786844778,0,-2,-2,0,-1,-3,-1,-2
1513482786844778,-2,-2,-2,-2,-3,-1,-1,0
1513482786845759,1,0,-3,-3,-1,0,-1,0
1513482786845759,0,0,-1,0,0,-1,-1,0
1513482786866802,0,-1,-2,0,0,0,0,0
1513482786866802,-2,0,-1,-1,0,-1,-1,-1
1513482786868813,-1,-1,-1,-2,-3,-1,-1,-2
1513482786868813,-3,-1,-1,-2,-1,0,-4,-2
1513482786881794,-1,-2,-1,1,-2,-2,-1,1
1513482786881794,-2,-3,-1,-1,-3,-1,-1,-1
1513482786883795,-3,-3,-1,-2,-1,-1,1,-1
1513482786883795,1,1,-1,0,-2,-2,-4,-2
1513482786904801,-1,-1,-1,0,-2,-2,-1,-1
1513482786904801,-1,0,-1,-2,-2,0,0,-2
1513482786905803,-1,-1,-1,0,0,-1,-2,0
1513482786905803,0,-2,-3,-3,-1,-1,0,-1
1513482786926815,-1,1,-2,-2,-2,-3,2,-1
1513482786926815,-2,-1,-1,0,-1,-2,1,-1
1513482786928827,-1,-1,-1,-2,-1,1,-2,-1
1513482786928827,1,0,-2,-2,1,-1,-4,1
1513482786940839,0,0,-3,-1,0,0,-1,-3
1513482786940839,-2,0,0,-1,-1,0,-1,-2
1513482786947840,-2,-1,-1,-1,-3,-1,2,-1
1513482786947840,-2,-1,-2,1,-1,-2,0,-1
1513482786964895,-2,-2,-1,-2,-1,1,0,-2
1513482786964895,0,1,-1,0,-1,-1,0,-1
1513482786965894,0,-2,-2,0,0,-3,-2,0
1513482786965894,-1,-1,-1,-2,-1,-2,0,1
1513482786986898,-2,-2,-2,0,-1,-2,0,-2
1513482786986898,-1,-2,-2,1,-3,0,-1,-2
1513482786988898,-1,-1,0,-1,-3,-1,-1,0
1513482786988898,-2,-1,0,-2,0,-2,0,-1
1513482787000958,-1,-1,-1,0,-2,-2,-1,-1
1513482787000958,-2,0,0,-1,-2,0,-2,1
1513482787007912,-3,-1,-1,-2,-1,-1,0,-2
1513482787007912,-1,-3,-1,-1,1,-1,-2,-2
1513482787024933,-3,-1,-3,-2,-1,0,-1,0
1513482787024933,-2,-2,-2,-1,-3,-2,-1,-2
1513482787025926,-1,-2,-2,0,-2,0,-2,-2
1513482787025926,-1,-1,-2,-1,-2,-1,-3,-1
1513482787046943,-3,0,-1,-2,1,0,-2,-1
1513482787046943,-2,0,-2,0,0,0,1,0
1513482787048943,-2,-1,0,0,1,-2,-2,-2
1513482787048943,-2,-2,-2,-1,-1,-2,0,-1
1513482787060967,-1,-2,0,-2,-3,-1,-3,0
1513482787060967,-2,0,1,0,-2,-1,1,-1
1513482787067973,0,-1,-1,-1,-2,0,-1,0
1513482787067973,1,0,-1,0,0,0,0,-1
1513482787084971,0,-1,-2,-1,-1,-1,0,-1
1513482787084971,-2,-4,-1,-1,-2,-2,0,-2
1513482787085976,-1,0,-2,-1,-1,0,-1,1
1513482787085976,0,-1,0,-2,0,0,-2,-2
1513482787106993,-1,-1,2,-1,0,0,-2,0
1513482787106993,-2,0,-2,-2,-1,0,-1,-1
1513482787108984,0,-1,-2,-1,1,-1,-1,-2
1513482787108984,0,-1,-1,-2,-2,-1,-2,-1
1513482787122020,0,-2,-2,0,-2,-2,1,-2
1513482787122020,0,-1,-1,-1,-2,0,0,-2
