timestamp,emg1,emg2,emg3,emg4,emg5,emg6,emg7,emg8
1517207390832296,0,0,-1,0,1,0,-2,0
1517207390832296,-1,-2,0,-3,-1,-1,2,-1
1517207390832796,0,0,-1,-1,-2,-1,-1,0
1517207390832796,-1,-1,0,-2,-2,0,0,-1
1517207390861816,1,-2,0,-2,0,1,-1,-1
1517207390861816,-2,-1,-1,-1,-2,-3,-2,-1
1517207390862817,1,-2,0,0,-1,2,0,-2
1517207390862817,-1,-1,-2,-2,-1,0,-1,-1
1517207390868823,-2,-1,-1,-2,-1,-1,0,1
1517207390868823,0,-1,-2,-2,-1,0,-1,1
1517207390869823,-1,0,0,-1,-1,-1,-2,0
1517207390869823,-1,-2,-2,0,0,-2,0,-3
1517207390891838,-1,0,0,0,0,0,3,-2
1517207390891838,-2,-1,-1,-2,-2,-1,-1,-3
1517207390892838,-1,-2,-1,-1,-2,-2,-1,0
1517207390892838,0,-1,0,-3,0,-1,-1,0
1517207390914855,-1,-1,-2,-1,-2,-2,-2,-1
1517207390914855,0,2,0,0,-2,-1,-1,-1
1517207390915354,0,-1,-2,0,-1,-2,0,-1
1517207390915354,1,-3,0,-1,-1,-1,0,-2
1517207390928863,-2,-2,-1,-1,0,-1,-1,-1
1517207390928863,-1,-2,-1,-1,0,-1,1,0
1517207390929364,-1,-3,-1,-2,0,0,0,-2
1517207390929364,-1,0,-1,-1,-2,-1,0,-1
1517207390951885,-1,-1,0,-3,-2,-2,-1,-2
1517207390951885,0,-1,-3,-1,-1,-2,-2,0
1517207390952881,-2,-2,0,-2,0,2,-2,-1
1517207390952881,-1,-1,-1,-1,0,-1,0,0
1517207390974397,-1,0,-1,-1,-3,-1,-1,0
1517207390974397,-2,-1,-1,-3,0,-1,-2,-1
1517207390975397,-2,0,-2,-2,2,-3,1,-3
1517207390975397,0,-1,0,-3,0,1,-1,-3
1517207390988923,-1,-1,-1,-2,-1,1,-1,-1
1517207390988923,-1,-1,-2,-2,0,-2,-2,-1
1517207390989406,-2,0,-2,-1,-1,-3,-2,1
1517207390989406,-2,-1,-2,0,-1,-2,-3,-2
1517207391011935,2,1,0,-1,0,-1,0,-1
1517207391011935,-1,-2,0,0,-2,-1,-2,-2
1517207391012933,-2,-2,-3,-1,-1,-1,-1,0
1517207391012933,-1,-1,-2,-1,-1,-2,-2,1
1517207391034950,0,-1,-3,-1,-1,-2,-1,-1
1517207391034950,-1,-1,-1,1,0,0,-2,-1
1517207391035441,-1,-2,0,-1,-1,-1,0,0
1517207391035441,-2,-2,-1,0,-2,-3,-2,-2
1517207391056958,-2,0,-2,-1,-1,1,0,0
1517207391056958,-1,-1,0,-2,-1,0,-1,-2
1517207391057955,-1,1,0,0,-1,-1,-1,-1
1517207391057955,0,-1,-1,-1,-2,0,0,1
1517207391071978,-2,-1,-2,-1,-1,-2,0,-1
1517207391071978,0,0,-3,0,-1,-1,1,0
1517207391072976,0,0,-2,-1,0,0,-1,-1
1517207391072976,-1,-2,-2,-2,-1,-2,-3,-1
1517207391094507,-2,-1,1,-1,0,0,-1,-1
1517207391094507,-1,-1,-1,-1,0,-1,1,-1
1517207391095495,0,-1,-1,-2,0,-1,-1,-2
1517207391095495,-3,0,1,-1,0,1,0,-2
1517207391108994,-1,0,-1,0,-2,-1,-1,0
1517207391108994,1,-1,-1,0,-2,0,-1,-1
1517207391109492,-2,-2,-1,-1,-3,-2,-2,0
1517207391109492,-1,-1,-1,-1,-1,0,-1,-1
1517207391132009,0,-2,-3,-2,-2,-2,-1,0
1517207391132009,-1,-1,-2,-2,0,-2,0,-1
1517207391132509,-1,-3,-3,0,-2,0,-1,-1
1517207391132509,0,0,-1,-2,0,0,-1,-1
1517207391154525,-1,-2,-1,1,-2,0,-1,-2
1517207391154525,0,-1,0,-1,-2,-1,0,-1
1517207391156025,0,-1,-2,-1,-1,-1,-2,-1
1517207391156025,-1,-1,-1,-1,-1,-3,-1,-2
1517207391168540,-1,-2,-2,-1,0,-1,-1,0
1517207391168540,-1,1,1,-1,-1,0,-3,0
1517207391177040,-1,0,1,-1,-1,-1,0,-1
1517207391177040,-4,-2,-1,0,-2,0,-1,0
1517207391192065,0,-1,-1,0,-3,-1,-1,-1
1517207391192065,-3,-1,0,0,-1,-2,-2,0
1517207391193551,-1,1,-2,-2,-2,-2,1,-3
1517207391193551,0,-1,-2,1,0,-3,-2,0
1517207391214568,-4,-2,1,-1,0,-1,1,-2
1517207391214568,0,0,-1,-1,0,1,-1,0
1517207391216067,-1,-1,-2,-1,-1,-1,0,-1
1517207391216067,-1,0,-1,-2,-1,1,-1,-1
1517207391228092,0,-1,-2,-1,0,-2,1,-1
1517207391228092,-2,-3,-3,-1,-3,-3,-1,-1
1517207391237082,-2,-3,-1,0,-2,-2,-1,0
1517207391237082,-2,-3,-1,-1,-2,-2,-1,-2
1517207391252121,-3,-1,0,-1,-2,-1,-2,0
1517207391252121,2,-1,-1,-3,-1,-2,-1,-3
1517207391253616,-1,0,1,2,0,-1,0,-2
1517207391253616,-1,-1,-1,-2,-1,-1,0,0
1517207391274609,-2,-1,0,-2,0,-1,-2,-1
1517207391274609,-1,0,0,-1,-2,-1,-1,-1
1517207391276111,0,-2,0,-3,0,0,-3,-1
1517207391276111,-1,-1,-1,-1,-3,0,1,0
1517207391288132,0,1,-1,0,1,-1,-3,-1
1517207391288132,-2,1,-1,-1,0,-1,-1,-1
1517207391297138,0,-1,-1,-1,-1,-1,0,-1
1517207391297138,-1,-1,-1,-1,1,-2,-2,-2
1517207391312164,1,0,-3,1,-1,-1,1,1
1517207391312164,-2,-2,-1,-1,0,1,0,1
1517207391313666,0,4,2,1,-1,-1,-1,-2
1517207391313666,-2,-15,-4,-2,-1,0,0,-3
1517207391334697,0,0,1,1,0,-1,-2,-1
1517207391334697,-1,-2,-3,-1,-1,-2,-1,-1
1517207391336181,-2,1,0,-1,-1,-1,0,0
1517207391336181,1,3,2,-1,-2,2,-2,0
1517207391348194,0,-3,-2,-1,0,-2,0,0
1517207391348194,0,-2,-1,-2,-1,-1,-1,-1
1517207391357219,-1,-1,-4,-1,-1,-2,-1,-1
1517207391357219,-1,0,-1,-1,0,-2,-1,0
1517207391372230,-5,-3,-2,-1,-2,1,-1,-1
1517207391372230,0,0,0,-1,-2,-2,0,1
1517207391373718,1,-4,-2,-2,-2,1,0,-1
1517207391373718,0,0,-1,0,1,0,-3,-1
1517207391394735,-2,-5,-1,-2,0,-2,-1,-1
1517207391394735,0,-5,-2,-2,1,-1,0,-1
1517207391396251,-1,4,2,0,-1,-1,-1,-1
1517207391396251,0,9,0,0,-2,-2,-1,-1
1517207391417242,-4,-20,-2,-4,-4,-2,-2,-2
1517207391417242,-2,1,0,0,-2,0,-3,-1
1517207391418741,-2,-1,-1,-3,-2,-1,-1,2
1517207391418741,-1,3,-2,-1,-1,-3,-1,-2
1517207391432249,0,5,-1,-1,-2,-1,-1,-1
1517207391432249,-2,-1,0,-1,-2,-1,-1,-1
1517207391433752,0,-6,-2,-2,-1,-1,0,-2
1517207391433752,-1,-1,0,0,-1,0,0,-1
1517207391454778,1,3,-1,0,-1,-1,-1,-1
1517207391454778,-1,-4,-1,-1,-2,-1,0,-2
1517207391456276,0,1,-1,-2,-1,-3,-2,1
1517207391456276,0,-4,0,-1,-1,-3,0,-1
1517207391476794,0,3,0,0,-1,0,-1,-2
1517207391476794,-1,2,-2,0,0,-2,-1,0
1517207391478783,-1,-3,-1,-1,-2,-2,-1,-2
1517207391478783,-1,-3,-2,0,-2,-1,0,0
1517207391492302,-1,-3,0,-1,0,-1,-1,0
1517207391492302,-1,-1,-1,1,-1,-1,0,0
1517207391493809,-1,-2,-2,-1,0,0,-2,-1
1517207391493809,-2,-3,-3,-1,-2,1,-2,-2
1517207391514810,-1,3,-1,-2,-1,-1,-1,-1
1517207391514810,0,-1,0,-1,0,0,-1,-2
1517207391516309,-2,-2,-1,-1,0,-2,-1,-2
1517207391516309,-1,-2,-1,-2,-1,-3,-1,0
1517207391536846,0,1,0,-1,1,-2,-2,-2
1517207391536846,-1,-1,-1,-2,0,-1,-1,-1
1517207391538842,-1,-1,-1,-1,-2,-1,-2,1
1517207391538842,-2,0,0,-1,-2,0,-2,-1
1517207391551834,-1,2,-2,-1,0,-1,-2,1
1517207391551834,-2,-3,-2,-1,-2,0,-2,0
1517207391553858,-2,0,-2,-1,0,0,-1,0
1517207391553858,-1,-2,-1,-4,0,-1,-1,0
1517207391574364,-1,0,-1,-3,-2,-3,0,0
1517207391574364,-3,0,-1,-2,-3,0,-1,-3
1517207391576351,-1,-1,-2,-2,0,-1,0,-2
1517207391576351,0,0,-1,-1,0,-1,0,2
1517207391596889,0,0,-1,0,-1,-2,2,-1
1517207391596889,-1,-2,-2,-1,-1,-4,1,-1
1517207391598867,-1,-1,-2,-1,-2,-2,-2,-1
1517207391598867,-1,-2,-1,0,0,-2,0,-1
1517207391611888,-2,-1,-1,-3,-2,2,-3,-1
1517207391611888,-2,-1,-2,-3,-1,-1,-1,0
1517207391613888,-2,-2,-1,1,0,-1,-1,-1
1517207391613888,-1,0,-1,-1,-1,-2,-1,-3
1517207391634893,-2,-2,-2,0,-1,-1,0,-3
1517207391634893,-2,0,-2,0,-1,-2,0,-1
1517207391636394,0,-2,0,-2,-2,-3,-2,-3
1517207391636394,-2,1,-2,-1,-3,-2,-2,-1
1517207391656931,0,-3,-1,-3,-1,-1,0,-2
1517207391656931,0,-2,-2,-1,-2,-2,-2,-1
1517207391658409,-2,-2,0,-1,-2,-1,-1,0
1517207391658409,0,1,-2,-1,-1,-1,-1,-1
1517207391671418,-1,-2,0,0,-1,1,-1,-3
1517207391671418,1,0,-2,0,-1,0,0,-2
1517207391677932,-2,-2,-2,-1,-1,0,-2,-1
1517207391677932,-1,0,-1,-1,0,-1,-1,-1
1517207391694438,-1,-1,-1,-1,1,-2,-1,0
1517207391694438,0,-2,-1,-1,-1,0,-1,0
1517207391695936,1,-1,-1,0,-2,-1,-1,0
1517207391695936,0,-1,-2,-1,-1,0,-1,-3
1517207391717452,-1,0,-2,0,-2,-2,-2,-1
1517207391717452,-2,1,1,-1,-1,-2,0,-1
1517207391718453,0,-1,-1,1,-2,0,0,-2
1517207391718453,-1,-3,-1,1,0,0,-1,-1
1517207391732465,-1,-1,-1,-1,-2,-2,-1,-2
1517207391732465,1,0,-2,-1,0,0,-1,-2
1517207391737994,0,-2,-2,-2,-1,-2,-1,-1
1517207391737994,1,-1,0,-2,-2,-2,0,-1
1517207391754505,1,-1,-2,0,-1,1,-1,-1
1517207391754505,-2,0,-1,-2,-1,-2,-1,-1
1517207391755979,-2,0,-1,-3,-1,-1,-1,-1
1517207391755979,-1,-1,-3,-1,-2,0,-1,-1
1517207391777017,0,-1,0,1,-1,-2,-2,-1
1517207391777017,-1,-1,-1,-1,0,-1,-1,0
1517207391778494,0,-2,-1,-1,1,1,1,0
1517207391778494,-2,-1,-1,-1,-1,0,-1,-1
1517207391791519,-3,-1,-2,0,-1,-2,0,-3
1517207391791519,-2,-3,-1,-1,-1,-1,-1,-1
1517207391798009,-1,0,-1,-1,-1,-2,-2,-2
1517207391798009,-1,0,-1,0,1,0,-1,1
1517207391815021,0,-1,-2,-3,0,-2,0,-2
1517207391815021,-1,-4,0,0,-2,-2,-1,-2
1517207391816021,-2,-1,-1,-1,0,2,0,0
1517207391816021,-2,-2,0,0,0,-2,-3,-1
1517207391837035,-1,-1,-1,0,-1,-1,-1,-1
1517207391837035,-1,0,-1,0,-1,-1,-1,-1
1517207391838546,-1,-1,-2,-1,-1,-2,0,-1
1517207391838546,0,-2,-1,-3,-2,0,-1,0
1517207391851559,-1,0,-1,-2,-2,-2,-1,-1
1517207391851559,-1,0,-1,-2,0,1,0,-2
1517207391858090,-1,1,-2,0,-1,0,-2,0
1517207391858090,-1,-3,-2,0,-2,-1,-1,-2
1517207391874562,-1,-2,-2,-3,-1,1,-2,1
1517207391874562,0,-1,0,0,-1,-2,-1,-1
1517207391876064,-3,-1,-1,-3,-1,0,0,-3
1517207391876064,-1,-2,-1,-1,-1,-2,-2,-1
1517207391897078,-1,-1,0,-1,0,-1,1,0
1517207391897078,-2,0,-2,0,-2,0,0,-2
1517207391898580,-1,-2,0,-1,-2,-2,-1,-3
1517207391898580,-1,-1,0,-1,-1,0,0,-3
1517207391911591,-2,-1,-1,-2,-3,0,0,-3
1517207391911591,0,-1,-2,0,-1,-2,0,-1
1517207391918594,-3,-2,-1,-1,-2,-2,-3,1
1517207391918594,-1,0,-2,-2,-2,0,-1,-2
1517207391934607,-1,-2,-1,-1,0,-3,-2,-1
1517207391934607,-1,0,0,-1,-1,0,-1,-1
1517207391936113,0,-2,-1,-1,-3,-1,-2,-1
1517207391936113,-2,-2,0,0,-1,-1,-1,-1
1517207391957135,0,-1,-1,-1,-1,0,-2,1
1517207391957135,0,-2,-1,-1,1,0,-1,-2
1517207391958622,-1,0,-2,-1,0,-1,1,-1
1517207391958622,1,-1,-2,0,0,-3,-2,0
1517207391972149,-2,-1,-1,-1,-1,-2,1,0
1517207391972149,-1,-2,-2,-1,-2,-1,-3,-2
1517207391978135,-2,-1,0,-2,-1,-1,-2,-2
1517207391978135,-1,0,0,-1,-2,0,0,0
1517207392002152,-1,-2,0,-2,-2,-1,0,-1
1517207392002152,-2,-2,-1,-2,-1,-1,0,0
1517207392003654,0,-1,0,-1,-1,-1,0,-3
1517207392003654,-2,-1,-1,-2,0,-1,-1,-1
1517207392017164,0,0,0,-1,-1,-1,-3,-1
1517207392017164,-1,0,-1,-2,-2,-1,-2,0
1517207392018676,1,-1,-3,-1,-1,0,-1,0
1517207392018676,-1,1,-2,-2,-1,-2,0,-1
1517207392030673,-2,-2,-1,-1,0,-2,-2,-3
1517207392030673,0,0,-1,-1,-2,-2,0,-1
1517207392039686,-2,1,1,-1,-1,-1,-1,-2
1517207392039686,-1,-1,0,-1,-1,-3,0,-1
1517207392054690,-1,-1,-3,-1,-1,-1,-1,1
1517207392054690,-1,-2,-1,-1,-1,0,-2,0
1517207392056191,-1,0,-3,-1,0,-1,0,-1
1517207392056191,-2,-1,-1,-1,0,-1,0,-1
1517207392077221,-1,-1,-1,-1,-1,0,-1,-1
1517207392077221,0,-1,-1,-1,-1,0,-1,1
1517207392078710,-1,0,-1,-1,-2,-1,-2,0
1517207392078710,0,-2,-1,-2,-2,-1,0,0
1517207392090715,-1,-1,-1,-3,0,-1,-1,-2
1517207392090715,-1,-2,-2,-1,0,-2,-1,-2
1517207392099723,-3,-2,-1,0,-1,0,-1,0
1517207392099723,-2,0,0,0,-1,1,-1,-1
1517207392114743,1,-1,-2,1,-2,-2,0,-1
1517207392114743,-2,0,-1,-1,-3,-1,0,1
1517207392116234,-2,-2,0,-3,-2,-2,0,-1
1517207392116234,0,-1,-2,-1,-1,1,-2,-1
1517207392137248,-2,0,-1,-1,-2,0,-1,-2
1517207392137248,-2,-1,0,-3,-1,-1,-1,0
1517207392138759,-1,-3,-1,-2,-1,-1,1,-2
1517207392138759,-2,-1,1,-2,-3,-1,-1,-1
1517207392150757,-1,-2,0,-3,-1,-2,-1,-1
1517207392150757,-1,-1,-2,0,-3,-2,1,-1
1517207392159822,-1,-2,0,-3,-1,1,-1,0
1517207392159822,-1,-1,-2,-2,0,0,-1,-2
1517207392174818,-1,-2,-2,0,-1,-1,-1,-2
1517207392174818,-2,-2,0,-2,0,-1,-1,0
1517207392176319,-1,-1,-1,-1,0,-1,-1,0
1517207392176319,0,-3,-3,0,-2,-3,-1,-2
1517207392196849,-2,-2,1,-1,-2,-2,0,0
1517207392196849,0,-2,-1,-1,-1,1,0,0
1517207392198838,-2,0,-2,-1,-2,-1,-2,-1
1517207392198838,-2,1,-1,-2,-1,-2,-1,-1
1517207392210844,-1,-1,-2,-1,0,0,-1,-2
1517207392210844,0,-1,-1,-1,-1,-1,-2,-2
1517207392219853,-2,-2,0,-1,-1,-2,-2,0
1517207392219853,-1,1,-3,-1,-1,-2,-1,0
1517207392234860,0,0,0,0,-1,-1,0,0
1517207392234860,-2,-3,-2,1,-1,-2,-2,-1
1517207392236369,-1,-1,-1,0,-3,0,-2,-2
1517207392236369,-1,-2,-1,-1,-1,-2,-1,-1
1517207392256892,-1,1,-2,-2,-1,-1,0,1
1517207392256892,-1,0,-1,-1,0,0,-1,0
1517207392258877,0,0,-2,-1,-1,1,-1,-1
1517207392258877,1,-1,-1,-1,0,1,-2,-3
1517207392270886,-1,-1,0,0,0,2,-2,-1
1517207392270886,-2,-3,-2,0,0,-1,-1,-3
1517207392279392,-3,-1,-2,-1,-1,-2,-1,-1
1517207392279392,-1,-2,-1,-1,1,0,2,1
1517207392294418,0,-3,-2,0,-1,-1,-2,-2
1517207392294418,-1,2,-1,-2,-1,-3,-1,-1
1517207392295904,-1,0,-2,-1,-2,-2,1,-1
1517207392295904,-3,-1,-2,-1,-4,1,-2,-3
1517207392317441,-1,-2,-1,1,-1,1,-2,0
1517207392317441,-1,-1,-1,-1,-1,-1,-1,1
1517207392318420,1,-2,0,-1,-1,-2,-1,0
1517207392318420,-2,-2,-1,-1,-2,-3,-1,-1
1517207392330442,0,0,-1,-1,-2,-1,-1,-2
1517207392330442,-1,-2,-2,-1,0,-1,-1,-2
1517207392339935,-1,-2,-1,0,0,-1,0,-2
1517207392339935,0,-2,-1,-1,0,-2,1,-1
1517207392353946,-1,-1,0,0,-2,-2,0,-1
1517207392353946,-1,-1,-2,-2,-2,-1,0,-2
1517207392360462,-1,0,-2,-1,0,0,-1,-1
1517207392360462,0,0,-2,-1,-1,-1,-2,0
1517207392376974,-2,-2,-1,-1,0,-1,-1,0
1517207392376974,-1,-1,0,-1,0,1,0,-1
1517207392378463,0,-2,-2,-1,-1,-2,0,0
1517207392378463,0,-1,-2,0,-1,-1,-2,-1
1517207392390470,0,1,-1,-3,-3,0,-1,-2
1517207392390470,-1,-1,-1,-1,-2,-1,-2,0
1517207392399978,-1,-2,0,-1,-1,-3,-1,-2
1517207392399978,-1,1,0,-1,-3,0,-1,-1
1517207392414503,1,-1,-1,-2,0,-1,-1,-1
1517207392414503,-2,0,-2,-1,0,0,0,1
1517207392415990,0,0,0,-2,-2,0,0,0
1517207392415990,-1,-1,-1,0,0,-1,-1,-2
1517207392437016,-2,-1,-2,1,-1,-1,-1,-2
1517207392437016,-1,0,0,-1,-2,-1,0,-1
1517207392438504,-1,-1,-2,-2,0,0,-2,1
1517207392438504,-3,-1,0,-1,0,-3,-2,-2
1517207392459520,-2,-1,-3,-1,0,-1,0,-1
1517207392459520,-1,-2,0,-1,-2,1,0,0
1517207392461020,-1,1,-1,-1,-2,-2,-1,0
1517207392461020,-2,-1,0,0,-1,1,0,-1
1517207392474530,-1,1,-1,0,0,-1,0,0
1517207392474530,-2,-2,-3,-1,-1,0,-1,-2
1517207392476031,-1,0,-1,-1,0,0,-1,0
1517207392476031,0,-1,-1,-3,0,0,0,-2
1517207392497045,-1,-1,-1,-1,0,0,-1,-1
1517207392497045,-1,-1,-2,-1,-2,-1,-4,-2
1517207392498548,0,0,-2,0,0,-1,-1,-1
1517207392498548,-1,-2,0,-1,0,-3,-1,0
1517207392527070,-2,-1,-1,-1,-2,-2,0,0
1517207392527070,-1,-1,-1,1,-1,-1,-2,-2
1517207392528568,-3,-2,-3,-1,-1,-1,0,-1
1517207392528568,-1,0,-1,-2,-1,1,-1,1
1517207392534578,-1,-2,-2,-2,-1,-3,-1,-1
1517207392534578,-1,-1,1,-1,-2,0,-1,0
1517207392536073,-1,0,-2,-1,-3,1,-1,-1
1517207392536073,-1,1,-2,-1,-1,-1,1,0
1517207392557091,-1,0,0,-2,-1,1,0,-1
1517207392557091,-1,-1,-2,-1,0,-1,0,-1
1517207392558589,-1,-2,-1,-1,0,-1,0,-2
1517207392558589,0,-1,0,-1,-1,0,0,0
1517207392579619,0,-1,-2,1,-1,0,0,-2
1517207392579619,1,-2,-1,-1,0,-1,1,-1
1517207392581117,0,-3,0,-1,-1,0,-2,-1
1517207392581117,0,-2,-2,-2,-1,-1,-2,0
1517207392593117,-1,-1,-1,-2,0,-3,0,-1
1517207392593117,-1,1,1,-2,0,-2,0,-2
1517207392608140,-2,-2,0,-1,-1,-1,-1,0
1517207392608140,-2,-1,-1,0,-2,-1,-2,0
1517207392617131,-2,0,0,-2,-2,0,-2,-2
1517207392617131,-1,-1,-1,-2,-2,0,-2,-1
1517207392618632,-1,-1,-2,-1,-1,-3,-1,-1
1517207392618632,-1,-2,-1,-2,-3,-1,-1,0
1517207392639669,-1,-2,-2,-1,0,-1,-3,1
1517207392639669,-1,-2,0,-2,-1,-1,-1,-2
1517207392641148,1,-1,-2,0,-2,0,0,-2
1517207392641148,0,-2,-2,-1,-1,0,-1,-1
1517207392653657,-1,-1,0,-1,-2,-3,0,-1
1517207392653657,-2,1,-2,0,1,-1,-3,-1
1517207392660664,1,0,0,0,-2,-2,-1,-2
1517207392660664,-1,0,-2,0,-2,-2,-1,-2
1517207392677188,0,-2,0,-3,-2,-1,-3,-2
1517207392677188,-2,-3,-1,-2,-1,-2,-2,-1
1517207392678676,-1,-2,-1,-2,-2,-1,1,0
1517207392678676,-2,-2,-1,0,-2,-1,0,-2
1517207392699690,-1,-2,-1,-1,-2,-1,0,-1
1517207392699690,1,-1,0,-1,-1,0,-2,-2
1517207392701190,-1,1,-2,-1,1,-1,-1,-2
1517207392701190,0,-2,0,-2,-1,-1,1,0
1517207392713711,-2,1,-1,-1,-1,-2,0,-1
1517207392713711,-2,-3,-3,0,-1,-2,1,0
1517207392720713,-2,2,-1,-1,0,0,-1,1
1517207392720713,-1,-2,-1,0,1,-2,-1,-1
1517207392737215,-2,0,-2,-2,-1,0,-2,-1
1517207392737215,0,0,-2,-2,-1,-2,0,0
1517207392738717,0,-1,1,0,1,-2,0,0
1517207392738717,-2,-1,-2,0,-2,0,-1,0
1517207392759741,0,-2,-1,0,0,-2,-1,-1
1517207392759741,0,-2,-1,-1,-2,-1,-2,-2
1517207392761232,-1,-4,-1,-2,-1,-2,-1,0
1517207392761232,-2,1,0,-2,1,1,-1,-2
1517207392773745,0,-1,-3,1,-1,0,0,-1
1517207392773745,-1,-1,0,0,0,-3,-1,-1
1517207392780750,-1,0,-1,0,-1,0,-2,-1
1517207392780750,-1,1,0,0,-1,-2,-1,-1
1517207392797278,0,-3,1,-2,-1,0,0,-1
1517207392797278,-1,-1,-1,-1,-2,-2,-1,-1
1517207392798781,-1,0,-1,-2,-1,-1,-1,-2
1517207392798781,-1,-3,-2,-1,0,-2,-1,0
1517207392819801,0,1,-3,0,-1,-1,-2,-3
1517207392819801,-1,-1,-1,0,-1,-2,0,0
1517207392821308,-1,-3,-1,-1,-1,-1,-1,-1
1517207392821308,-2,-1,-1,0,-2,-1,-1,0
1517207392833976,-2,-3,-1,-1,1,-1,1,-1
1517207392833976,-1,-2,0,-2,-2,0,-2,-1
1517207392840467,-2,0,0,1,-3,0,-1,-1
1517207392840467,-2,-2,0,0,0,-2,-1,-1
1517207392857010,-1,-1,-1,-1,-2,-2,-1,0
1517207392857010,0,-1,-1,-2,0,-1,-1,-2
1517207392858495,0,-2,-2,-1,0,-2,-1,0
1517207392858495,0,0,-1,-1,-2,-2,-2,-1
1517207392878509,-2,0,0,0,-1,-1,1,0
1517207392878509,0,2,-1,0,0,-1,1,1
1517207392887015,0,-2,-2,-2,0,0,-2,-2
1517207392887015,0,-1,-3,-3,-2,-1,0,-1
1517207392894030,-2,-2,-1,-4,-1,-1,-2,-1
1517207392894030,-1,-2,-1,-1,0,0,0,-1
1517207392901025,-2,-1,0,-2,0,-1,-1,-1
1517207392901025,0,-3,-1,-1,-1,-1,-2,-1
1517207392917037,-1,0,-1,-1,-1,-2,0,-2
1517207392917037,-2,0,-1,0,-1,-1,-1,0
1517207392918538,-1,0,-1,1,0,-1,-1,-1
1517207392918538,-1,-1,-1,-1,-1,0,0,-1
1517207392939552,1,-3,0,-1,0,0,-1,0
1517207392939552,-4,-2,0,0,0,0,-1,-1
1517207392941054,0,0,-2,-1,-3,-1,-3,-1
1517207392941054,-1,-1,0,-1,-1,-2,-1,-1
1517207392953079,0,0,1,0,-1,0,0,-2
1517207392953079,0,0,-1,0,-2,-1,0,-2
1517207392962068,-2,-2,0,-1,-1,-1,-1,-1
1517207392962068,-1,-1,-2,-1,-1,-3,-1,-3
1517207392977082,-2,-2,0,-2,-2,-2,-3,0
1517207392977082,0,-2,-1,0,-2,-2,-1,-1
1517207392978590,-1,-1,-1,-1,-2,-1,0,-2
1517207392978590,-2,-1,0,-1,-1,0,-2,-1
1517207392999596,-2,-2,-1,1,0,-1,-2,1
1517207392999596,-1,-1,-2,-2,1,0,-1,-1
1517207393001096,-1,-1,0,-1,-1,0,1,0
1517207393001096,0,0,-2,-1,-2,-1,0,-1
1517207393013104,-2,0,-2,-1,-1,-1,-1,-1
1517207393013104,0,-2,0,-3,-3,-1,-1,-2
1517207393022129,0,0,0,-2,-2,-1,0,-2
1517207393022129,-1,-2,-1,-1,-2,0,0,-1
1517207393037121,-1,-1,-2,-1,-1,-1,-1,0
1517207393037121,0,-1,-1,-1,-2,-1,-2,-2
1517207393038623,-2,-2,-3,1,0,-1,-3,-2
1517207393038623,-1,-1,-1,-1,-1,-1,-3,1
1517207393059657,0,-3,-3,-2,-2,-1,0,-1
1517207393059657,-2,-1,-1,-1,0,-1,0,0
1517207393061139,-2,-2,-2,-2,-1,-1,-2,-2
1517207393061139,-1,-2,-2,-2,0,-1,0,-3
1517207393073156,-2,1,-2,-1,-1,-2,-1,-2
1517207393073156,-2,0,-2,-1,-1,-2,0,0
1517207393082155,-2,-1,-2,-1,0,-2,-1,-2
1517207393082155,-2,-1,-1,-1,0,1,-1,-1
1517207393097187,-1,0,-1,-2,-1,-2,-2,1
1517207393097187,-1,-1,-1,-1,-1,-1,-1,0
1517207393098667,-2,-1,-1,-2,-1,-1,-1,-2
1517207393098667,0,-1,-2,-1,-2,-1,-2,-1
1517207393119680,-1,-2,0,0,1,-2,0,-1
1517207393119680,0,-1,-1,-1,-2,-2,-2,0
1517207393121190,1,-2,0,1,0,-1,1,1
1517207393121190,-1,-1,0,-2,1,-1,0,-3
1517207393133192,-1,-1,-2,-2,-2,-2,-1,-1
1517207393133192,0,-1,-1,0,-1,-2,-2,-1
1517207393142196,-2,-2,-1,1,-1,-3,-1,-1
1517207393142196,1,-1,-1,-1,-2,0,0,-1
1517207393157254,-2,-2,-1,-2,-1,-2,-2,-1
1517207393157254,-1,-2,-1,-1,1,-1,0,-1
1517207393158766,0,-2,-1,0,-2,-1,-2,-1
1517207393158766,0,-1,0,-2,0,-3,-1,0
1517207393180261,-1,-1,-1,-1,-1,-1,-2,-2
1517207393180261,0,1,-1,-1,0,1,0,0
1517207393181768,-2,0,-1,-2,0,-3,-1,0
1517207393181768,-2,-2,-2,1,-2,-2,-2,0
1517207393193290,-2,-2,-1,-1,-1,1,0,-2
1517207393193290,-1,-1,-2,-1,-3,-1,-1,-2
1517207393202777,0,-1,-2,-1,-1,0,-1,-1
1517207393202777,-1,-1,-2,1,0,1,0,0
1517207393217289,-1,-1,-1,-1,-1,-1,-2,-2
1517207393217289,-1,-3,-1,-1,-2,0,-1,-2
1517207393218789,-2,-1,-1,-1,-2,-3,0,-1
1517207393218789,-3,-2,-2,-2,0,-3,-1,-1
1517207393239341,-1,0,0,-2,-2,0,-1,-2
1517207393239341,-2,-2,-1,-3,-3,-2,0,-1
1517207393241307,1,-2,-1,-1,-1,-2,-1,-1
1517207393241307,0,0,-1,0,-2,-1,-1,-2
1517207393253370,-1,-1,-1,-1,-2,0,-1,1
1517207393253370,-1,-1,0,-2,-1,-2,-1,0
1517207393261851,-1,0,-1,-1,-2,-1,1,-1
1517207393261851,-1,-2,0,0,-2,-2,-1,-1
1517207393276862,-1,0,-2,0,0,-1,0,0
1517207393276862,-1,-2,-2,1,-2,-2,-1,-1
1517207393278873,-2,-1,-3,-2,-1,1,-1,-1
1517207393278873,0,0,-1,-2,-2,0,-2,1
1517207393299879,0,-1,0,-1,-2,0,-1,-2
1517207393299879,-2,0,-1,-1,-1,-2,-1,-1
1517207393301380,-1,-4,-1,-1,0,-1,1,-1
1517207393301380,-1,-1,-3,-3,-2,-1,0,-1
1517207393312887,-1,-1,-2,-1,0,-1,-1,0
1517207393312887,-1,-1,0,-1,-2,-1,-2,0
1517207393321894,1,0,0,-2,-2,0,-2,0
1517207393321894,-1,-1,-1,0,0,0,0,-1
1517207393336904,0,-3,-2,-2,-1,-2,-1,-1
1517207393336904,0,-1,-2,-2,-2,0,-2,-2
1517207393338411,0,-1,-3,-2,0,-1,0,-2
1517207393338411,-2,-1,-2,-1,0,-1,-1,-2
1517207393360012,0,-1,0,0,-1,-2,-1,-2
1517207393360012,-2,-1,-3,-2,-1,-2,-1,0
1517207393361505,-2,0,0,-2,0,-1,-3,-1
1517207393361505,0,0,0,-3,0,-1,-1,-3
1517207393382019,-1,-1,0,-2,0,-1,0,0
1517207393382019,1,-2,0,-1,0,-2,-1,-1
1517207393383511,-2,0,-2,0,-1,-1,-1,-1
1517207393383511,-1,-2,-1,-2,-2,0,0,-2
1517207393397046,0,-2,-1,-1,-1,-1,-1,0
1517207393397046,-1,-1,0,-1,0,0,-1,-1
1517207393398523,-1,-1,0,-1,0,0,-1,-1
1517207393398523,-1,-1,0,0,1,-1,-1,0
1517207393419561,-1,-2,-2,-1,0,0,0,-2
1517207393419561,0,-1,-2,-1,1,-1,-3,-2
1517207393421039,0,-1,0,-1,-1,-3,-1,-1
1517207393421039,-1,-2,-1,-2,-1,-1,-2,0
1517207393442087,-2,-2,0,0,-2,-1,-1,-2
1517207393442087,-1,-1,0,-2,-1,-1,-1,-1
1517207393443584,-2,-2,-1,0,0,0,0,-2
1517207393443584,-1,0,-1,-2,-1,0,-1,-1
1517207393457085,1,1,-1,-2,-2,-1,-1,-1
1517207393457085,-1,-1,-2,0,-2,-1,-1,-1
1517207393458565,-1,-3,0,-1,-3,1,-1,-2
1517207393458565,-1,-2,-1,1,-1,-3,-1,-2
1517207393479588,-2,-1,-1,2,0,0,0,0
1517207393479588,-1,-2,0,-2,-1,-2,0,1
1517207393481081,0,-1,-1,0,-2,-1,-1,1
1517207393481081,0,-1,0,-1,-1,-1,-1,-1
1517207393502097,-1,0,0,-2,-3,1,-3,-2
1517207393502097,-1,-1,-2,-1,0,-1,-2,-1
1517207393503623,-3,-2,-2,0,-1,-2,-1,-2
1517207393503623,0,-2,-2,-1,-1,-1,1,0
1517207393517106,-1,-2,-1,-3,-2,-2,-1,0
1517207393517106,0,-1,-2,-1,-2,1,-1,-2
1517207393518607,1,-1,-2,0,-3,-2,-1,-2
1517207393518607,-1,-1,-2,0,-1,0,-1,-2
1517207393539668,0,0,-1,-1,0,0,2,-1
1517207393539668,-2,-3,-1,0,0,-3,-1,1
1517207393541167,-2,-3,0,-3,-1,-1,0,0
1517207393541167,-1,-2,-1,-1,-1,-1,-1,0
1517207393562205,-1,-1,-3,-2,-2,-1,0,-2
1517207393562205,0,1,0,0,-2,-1,1,-2
1517207393563692,-3,-2,-2,-2,0,0,0,0
1517207393563692,-3,-1,-2,-2,0,-2,-1,0
1517207393576201,-1,-1,0,-2,-1,-1,-2,-3
1517207393576201,0,0,0,-1,-1,-1,-1,-2
1517207393583207,-1,0,-1,-1,-1,0,-3,-3
1517207393583207,0,0,-1,0,-2,0,-1,-1
1517207393599707,0,-1,0,1,-2,-2,-2,-1
1517207393599707,-1,0,-3,0,-2,-1,0,0
1517207393601208,-2,-2,0,-1,0,-2,0,1
1517207393601208,-1,-1,-1,-1,-1,-2,0,0
1517207393622221,-2,-1,-1,-2,-2,-2,-2,-3
1517207393622221,-2,-1,-1,-1,0,-1,0,-1
1517207393623737,1,0,-2,-1,-1,-1,-1,-2
1517207393623737,-2,-2,-1,0,0,-1,-1,-1
1517207393636732,-1,-2,1,-2,1,0,-1,-1
1517207393636732,0,-1,-1,-2,-1,-1,-1,-1
1517207393643294,-2,0,-2,-1,1,0,-1,-1
1517207393643294,0,-1,-2,1,-2,-1,0,-1
1517207393659251,-2,1,-2,-1,-1,-1,-2,0
1517207393659251,-1,-1,-1,0,-3,0,-2,0
1517207393661249,-2,-1,-1,0,-2,0,-1,-1
1517207393661249,0,-2,-1,-1,0,-2,-1,0
1517207393682264,-1,-1,-1,-1,-1,-1,-1,-1
1517207393682264,-1,0,0,-3,0,-1,-2,-1
1517207393683766,-1,0,-2,0,0,-1,0,-1
1517207393683766,-1,-2,-2,-1,-2,0,-2,-1
1517207393696294,-1,-2,-2,-1,-2,0,0,0
1517207393696294,-1,-1,-2,-1,0,0,0,-1
1517207393703301,1,0,-1,-2,0,-1,-1,-1
1517207393703301,-3,-1,-2,-2,-2,-4,-2,-2
1517207393719290,0,-1,-1,-1,-2,-2,-1,0
1517207393719290,-2,-2,-1,0,-2,1,-3,-1
1517207393721302,-1,-3,-1,-1,-2,-1,1,0
1517207393721302,2,-2,-2,-1,-1,-1,0,-1
1517207393741839,-1,-1,-2,-1,1,-1,1,0
1517207393741839,-2,-1,-1,0,1,-1,0,-1
1517207393743843,-2,-4,0,-1,1,-1,0,-2
1517207393743843,-2,-2,0,-2,-1,-1,-1,-1
1517207393756349,-1,-1,0,-2,-2,0,0,-1
1517207393756349,-3,-2,-1,-2,-2,-3,-1,-2
1517207393763354,1,1,-1,-1,0,-1,1,-1
1517207393763354,-1,-2,-2,-1,-1,-1,0,-1
1517207393779375,-2,-2,-3,-1,-1,-1,-3,-2
1517207393779375,-2,0,1,-1,-2,-3,-3,0
1517207393781367,-3,-1,-2,-2,-3,-1,-1,-2
1517207393781367,-1,-1,0,-3,-1,0,0,0
1517207393801883,0,-2,-1,-1,-2,-1,-1,-2
1517207393801883,1,-2,-2,-1,-1,-1,0,-2
1517207393803892,0,-3,0,0,-2,0,-2,-1
1517207393803892,-1,-1,0,-1,-1,1,0,-2
1517207393816392,-1,1,-1,-1,-1,-2,1,-2
1517207393816392,-1,0,0,0,0,-1,1,0
1517207393823413,-1,-2,-1,-1,0,-2,-1,-1
1517207393823413,-1,0,-1,0,-1,-1,0,-1
1517207393839407,-2,-1,-2,1,-1,-1,-2,0
1517207393839407,-1,-2,-1,-3,-1,0,-1,0
1517207393840909,0,-1,-1,-2,-2,-2,-2,-3
1517207393840909,-2,-2,-1,-1,-3,-1,-1,-1
1517207393862001,-1,0,-2,-2,0,-1,0,0
1517207393862001,-1,0,-3,-2,-1,-2,-2,-2
1517207393863488,-1,0,0,-1,-1,-1,0,-2
1517207393863488,-1,-2,-1,0,-1,-1,-1,0
1517207393875496,0,1,0,0,-2,-1,-1,-2
1517207393875496,-1,-3,-2,0,-1,-1,0,-1
1517207393884494,-1,0,-1,-1,-4,-1,0,-1
1517207393884494,-1,-3,-1,0,0,-3,-1,-3
1517207393900022,0,-1,0,0,-1,-1,-1,0
1517207393900022,0,-2,1,-1,-1,1,-1,0
1517207393901006,0,-1,-2,-1,0,0,-1,0
1517207393901006,-2,-1,0,0,0,0,-1,-1
1517207393922020,-2,-1,0,-4,0,-1,-1,-2
1517207393922020,0,0,-1,0,-2,-1,-1,0
1517207393923522,-3,-1,-1,-2,-1,0,0,0
1517207393923522,-1,-1,-1,-1,-1,-1,-1,0
1517207393935530,-2,-3,-1,0,-1,-1,-2,-1
1517207393935530,0,-1,-1,-1,-1,0,-1,-3
1517207393944535,-1,-2,-2,1,0,0,-1,1
1517207393944535,0,-1,0,-1,-1,0,0,-1
1517207393959546,0,-2,-2,-1,-2,-3,0,-1
1517207393959546,-1,-1,0,-1,-2,-2,-1,-1
1517207393961048,-2,1,-1,-1,-1,-2,-3,-2
1517207393961048,-1,-1,0,-2,-4,-2,-1,-2
1517207393982068,0,0,0,-2,-2,-1,0,0
1517207393982068,-1,-2,-1,1,-1,0,-1,-2
1517207393983566,2,0,-1,-1,-3,-1,-2,1
1517207393983566,-1,-1,-3,0,1,0,0,0
1517207393995581,-1,0,-1,0,-2,-2,-2,-1
1517207393995581,-3,-1,-1,-3,-1,-4,0,0
1517207394004578,0,0,-1,0,-1,-1,-2,-3
1517207394004578,-2,-1,-2,-1,-1,-3,-2,-1
1517207394019592,1,-1,-1,-1,0,-1,0,0
1517207394019592,-1,0,-1,-2,0,0,0,-1
1517207394021091,0,-3,-1,-2,-1,-1,-1,1
1517207394021091,-1,-1,0,-1,-1,-3,0,-2
1517207394042108,-1,-2,-2,0,1,1,0,1
1517207394042108,0,1,-3,0,-1,-1,0,-1
1517207394043621,0,0,-1,-1,-2,0,-2,-1
1517207394043621,1,-2,-2,-1,-3,0,-2,-1
1517207394055630,0,0,-2,0,-1,0,-2,-1
1517207394055630,0,0,-1,0,-1,0,0,-1
1517207394064621,-1,0,0,0,0,1,-2,-1
1517207394064621,-2,-2,0,0,1,0,0,1
1517207394079647,-2,-2,-1,0,-1,-2,-2,0
1517207394079647,-1,-1,-1,-2,-2,-2,-3,0
1517207394081148,-1,-2,0,-2,-2,0,0,0
1517207394081148,-1,0,-1,-1,-2,-1,-1,-1
1517207394102148,1,-1,0,-2,0,-1,-2,-2
1517207394102148,-2,-1,0,0,0,-1,-1,-2
1517207394103656,-1,-1,-1,1,-1,-4,0,0
1517207394103656,-1,-1,0,-1,-2,-1,-1,-1
1517207394115657,-2,0,-2,0,-2,-1,-1,-1
1517207394115657,-1,0,-2,-2,-1,0,-1,-1
1517207394124708,-2,-1,0,-2,-2,-1,-2,-2
1517207394124708,0,-1,-2,-2,-1,0,-1,1
1517207394139181,0,-1,-1,-1,-3,-2,-1,1
1517207394139181,1,-2,-1,-1,-2,-2,-1,0
1517207394141203,-2,-2,-1,-3,0,0,-1,0
1517207394141203,0,-1,-1,-1,-1,-1,-1,-1
1517207394162266,-2,-1,-1,-1,0,0,-1,0
1517207394162266,-1,-2,-1,0,-1,1,-3,0
1517207394163756,-1,-1,-1,0,-1,-1,1,-2
1517207394163756,-1,-1,-1,-1,-2,-3,-1,-2
1517207394175764,-3,-1,-2,-1,-1,-1,-2,-1
1517207394175764,-1,0,0,-3,0,-2,0,-1
1517207394184770,0,0,-2,-1,0,-1,0,-1
1517207394184770,-2,0,-2,1,0,-1,-2,-2
1517207394199784,0,1,-1,0,-2,-1,-1,0
1517207394199784,-1,-3,-2,-1,-2,-2,-1,-1
1517207394201283,-1,-2,-1,1,-2,-1,-1,-1
1517207394201283,0,0,0,-3,-2,0,-2,0
1517207394221808,0,-3,-1,-1,-1,-2,-1,-1
1517207394221808,0,1,0,-1,-1,-1,-1,0
1517207394223797,-2,1,-2,0,-1,-2,0,-1
1517207394223797,-2,0,-1,0,-1,-1,-2,0
1517207394235806,-3,-1,-1,-1,-2,0,0,0
1517207394235806,-1,0,-2,-1,-1,0,-1,-1
1517207394244832,0,-1,-1,0,-2,-1,-1,-2
1517207394244832,-1,-3,0,-1,0,-3,1,-1
1517207394259337,0,0,-2,-1,-1,-3,-3,-1
1517207394259337,-2,-2,-1,-1,-1,-1,0,-2
1517207394261327,0,-1,-1,-2,-2,-1,-2,0
1517207394261327,1,-1,-2,-1,-2,-1,0,-2
1517207394282454,-1,-2,0,-1,0,-1,0,-1
1517207394282454,-2,-2,-2,-1,0,-2,-3,0
1517207394283459,0,-1,0,0,-2,0,-2,-2
1517207394283459,0,-1,-1,-2,-1,-1,-1,0
1517207394295481,-2,-1,0,-2,-1,0,-1,-1
1517207394295481,-1,1,-1,-1,-1,-2,-1,-2
1517207394304471,0,-3,-1,-1,-2,-2,-3,0
1517207394304471,0,-3,-2,1,-1,0,-1,-3
1517207394319496,-2,-1,-1,-1,-3,-2,-1,-1
1517207394319496,-2,-2,0,0,-2,-2,-1,0
1517207394320983,-1,0,-2,1,-1,-2,-1,-1
1517207394320983,-1,-1,-3,-2,-1,-1,-2,0
1517207394342018,-2,-1,-1,0,-1,1,-1,-2
1517207394342018,-2,-1,-1,0,-2,-1,0,0
1517207394343499,0,0,-1,-1,-1,-1,1,-2
1517207394343499,-1,-1,-2,-1,-2,0,1,0
1517207394364513,1,-1,-2,-3,-1,-1,0,-2
1517207394364513,-1,0,-2,-2,-2,-1,0,-1
1517207394366013,-2,-2,-1,0,0,-1,-2,0
1517207394366013,-1,1,-1,0,-2,-1,-2,2
1517207394379523,0,0,0,-2,0,-2,1,1
1517207394379523,0,0,-1,-1,0,-1,-1,-2
1517207394381026,-1,0,-2,-1,-2,-1,-1,-1
1517207394381026,-1,-3,-2,-1,-1,-1,-2,-1
1517207394401938,-1,-1,-2,0,-1,-2,0,0
1517207394401938,-1,-2,-1,0,-2,-1,0,1
1517207394403422,-1,0,0,-3,0,-1,0,-2
1517207394403422,-2,-1,-1,-1,-2,1,-3,-1
1517207394424474,1,-1,0,-1,-1,-1,0,0
1517207394424474,0,-2,-1,0,-1,-1,-2,-3
1517207394425946,-1,-1,0,-2,0,-2,0,0
1517207394425946,-1,-1,-1,-2,-1,-2,-2,-1
1517207394439502,0,-1,-2,-1,-1,-2,-1,-1
1517207394439502,-2,-1,0,-2,-2,-1,-1,0
1517207394441015,-2,0,-1,0,0,0,-1,0
1517207394441015,-1,-1,-1,0,1,-1,-1,-1
1517207394462074,1,-1,-3,2,-1,-1,-1,-1
1517207394462074,-1,0,-1,-1,-2,-2,-1,-2
1517207394463575,-1,0,-1,-1,-1,0,-2,-1
1517207394463575,0,1,0,-2,-2,-1,-1,0
1517207394484592,0,-1,0,-2,0,-1,-1,-2
1517207394484592,-2,-2,-3,0,0,-2,0,1
1517207394486095,-3,0,-1,-2,-2,-2,0,0
1517207394486095,-1,-2,0,0,-3,-2,-1,0
1517207394499102,-2,-3,-4,-2,0,-2,-1,-1
1517207394499102,-1,-1,-1,-1,-1,-1,-2,0
1517207394505627,-1,-1,-1,-1,0,-1,-3,-2
1517207394505627,-2,0,-3,-1,-1,-3,0,-1
1517207394522117,-2,0,1,-2,-2,0,-2,-2
1517207394522117,0,-1,-2,-2,0,-1,-2,-1
1517207394523634,-1,-2,-1,-1,-1,0,0,-1
1517207394523634,-1,-2,-2,0,-2,1,-1,0
1517207394544658,-1,-1,0,0,-2,-1,-1,0
1517207394544658,0,-2,-2,-1,-1,-1,-1,-1
1517207394550637,-1,-1,0,-3,-2,-3,-2,0
1517207394550637,0,1,0,-1,-2,-1,0,-3
1517207394558645,-1,0,-1,-1,-2,-3,-2,0
1517207394558645,0,0,-1,-1,-1,0,0,-1
1517207394565651,0,-2,-2,0,-1,-3,-1,0
1517207394565651,-2,-1,-1,-2,-1,0,-1,0
1517207394582208,-1,-2,-1,0,0,-1,-1,1
1517207394582208,-1,0,0,-2,-1,0,-1,-2
1517207394583717,-3,-1,-2,-1,-1,-1,2,-2
1517207394583717,-1,-2,-2,-1,0,-1,-1,-2
1517207394604241,-3,-1,1,-2,1,1,0,-3
1517207394604241,0,-1,-1,-3,0,-1,-1,-2
1517207394606229,1,-2,-1,1,-2,-1,-2,-1
1517207394606229,-1,-1,-1,0,0,-1,0,-1
1517207394618731,-2,-1,-2,-1,-1,-1,1,-1
1517207394618731,-2,1,-1,0,0,-2,-1,0
1517207394625743,-1,-1,-1,0,0,-1,-2,0
1517207394625743,-3,0,0,-1,0,-1,-1,-1
1517207394642272,0,-2,-3,0,-2,-1,-2,-2
1517207394642272,-2,-4,-2,-1,0,-1,-2,1
1517207394643785,-1,1,-2,0,1,0,-1,-1
1517207394643785,-1,0,-2,-1,-2,-3,-1,0
1517207394664319,0,-1,-1,-2,-1,0,-1,-2
1517207394664319,-1,-1,0,0,-3,-1,-1,-1
1517207394666320,-1,-2,0,-1,-1,-1,0,-2
1517207394666320,0,-2,-2,-1,-2,-1,-1,0
1517207394678843,0,1,-2,0,0,-1,-2,-1
1517207394678843,-1,-1,-3,0,-1,-3,-1,0
1517207394685855,0,-2,-1,-1,-2,0,-1,0
1517207394685855,-1,-1,0,-1,-1,-1,-1,-1
1517207394701848,-1,-2,-2,-1,-2,-1,-1,-3
1517207394701848,-3,-1,-1,-1,-1,0,-1,-2
1517207394703346,-3,0,-1,1,-2,-1,-2,-1
1517207394703346,-1,-3,-2,-4,-1,-1,-1,-3
1517207394724383,0,-1,1,-1,-2,-1,-1,1
1517207394724383,0,-1,-1,0,-1,-3,2,0
1517207394726362,-1,-1,-3,-1,0,-3,0,1
1517207394726362,1,-1,-1,1,0,-1,-1,0
1517207394738871,-1,0,-1,1,-2,-1,-1,-1
1517207394738871,-1,-2,-1,-2,-1,0,-1,-1
1517207394745376,0,-2,0,-1,-2,-1,0,-1
1517207394745376,-1,0,-1,-1,0,-1,-2,0
1517207394761902,0,-1,-1,-3,0,-2,0,-2
1517207394761902,-1,0,-2,0,-1,-2,-2,0
1517207394763389,-1,-1,-2,-2,-2,-2,-1,-2
1517207394763389,-2,-1,-1,-2,-1,-2,-1,0
1517207394784414,-1,-1,-1,-2,0,2,-3,0
1517207394784414,-2,0,-1,0,-1,-1,-1,-2
1517207394785906,-2,-2,-1,-2,-1,0,-1,-2
1517207394785906,-1,-3,-1,0,-1,-1,-2,-2
1517207394798915,-2,-1,-1,-1,-1,-1,-2,0
1517207394798915,0,-3,0,-1,-1,-1,-1,-2
1517207394805446,0,-2,-1,1,0,-1,-1,-3
1517207394805446,-3,-2,-2,0,0,-1,-1,-2
1517207394821939,-2,-2,-1,-2,0,-1,-1,-1
1517207394821939,0,-1,0,0,-1,3,-1,0
1517207394823433,-1,-1,-2,-1,-1,-2,0,1
1517207394823433,0,0,0,-1,-1,0,-2,-1
1517207394844464,-3,0,-3,-1,-1,0,-2,-1
1517207394844464,-1,-2,-1,-1,0,-2,-2,-1
1517207394846947,-1,-3,-2,-1,-1,1,-2,1
1517207394846947,0,0,-1,-1,-3,-1,0,-1
1517207394858465,-1,-1,-1,-1,-1,-2,-1,-1
1517207394858465,0,-3,-2,-3,-1,-1,0,-1
1517207394868010,-1,0,-1,-2,-1,0,-2,-2
1517207394868010,-1,-2,0,-2,0,0,-1,0
1517207394882030,-1,-1,-1,0,-1,-1,-1,-1
1517207394882030,-2,-1,-2,0,-1,-2,0,0
1517207394883521,0,-3,-1,0,0,-1,-1,-1
1517207394883521,0,-1,-3,-2,-1,-2,-1,0
1517207394904577,2,-2,-1,1,-2,-2,-1,-3
1517207394904577,0,-1,-1,-1,-1,0,0,-1
1517207394906038,-2,1,-3,-1,-3,-1,-1,-1
1517207394906038,-3,-1,-1,0,0,-2,-1,-1
1517207394918547,-1,-1,-1,-1,0,-1,-1,-1
1517207394918547,-1,-2,-1,0,-1,-1,0,-3
1517207394927074,-2,0,0,-3,0,-1,0,-2
1517207394927074,-2,0,-1,-2,-1,0,-2,-1
1517207394942087,1,1,-1,-2,-1,-2,0,-2
1517207394942087,-1,0,1,-3,-2,-1,-1,1
1517207394943589,1,-1,-1,0,-2,-2,0,-1
1517207394943589,1,-2,-1,0,-2,-1,-2,-1
1517207394963610,-3,-1,-1,-2,-1,-1,-2,1
1517207394963610,-1,-2,-2,0,1,1,-1,-1
1517207394972106,0,-1,0,-1,-2,0,-2,-1
1517207394972106,-1,-1,-1,0,-3,-2,0,-2
1517207394978166,0,-2,1,0,-1,1,-1,-1
1517207394978166,-2,-1,-1,-1,-1,-2,-2,-2
1517207394987164,-1,-2,-1,-2,0,-1,0,1
1517207394987164,-1,-3,-3,-2,-2,-1,1,-2
1517207395002176,-2,-1,-2,2,-1,0,0,-1
1517207395002176,-1,-1,0,-1,1,-1,0,0
1517207395003674,-1,-2,-1,1,0,-3,-1,-1
1517207395003674,0,0,-1,-2,-1,-2,-1,1
1517207395024189,0,-1,-2,-2,0,-1,1,-2
1517207395024189,-1,0,-2,1,-3,-2,0,-1
1517207395026190,-1,0,-2,0,0,-1,0,0
1517207395026190,-3,0,0,-1,1,-1,0,-2
1517207395038197,-1,-1,0,0,-2,-2,-1,1
1517207395038197,-1,-1,-1,-2,-3,0,-2,-1
1517207395048207,-2,-2,-3,-1,-2,-1,-2,-2
1517207395048207,-1,1,0,-1,-2,-1,-2,-1
1517207395061714,-1,-1,0,-1,-1,-2,0,-1
1517207395061714,0,-2,-2,-1,-1,2,-1,-1
1517207395063724,0,-1,-1,0,-1,-2,0,-1
1517207395063724,-1,-1,-3,-1,0,1,-2,-1
1517207395084739,-2,-4,0,0,-1,-1,-1,-1
1517207395084739,-1,-1,0,-2,-3,-2,0,0
1517207395086241,-1,-1,-1,-2,-1,-1,-2,-2
1517207395086241,0,0,0,1,-2,-1,-1,-1
1517207395098258,0,-1,-2,-1,0,-1,-2,0
1517207395098258,-2,0,-2,0,-1,-2,-3,0
1517207395107246,-1,-1,-1,-2,0,-1,-1,0
1517207395107246,-1,-1,0,0,0,-3,0,-1
1517207395121756,0,-1,-2,-2,-2,-1,-1,-2
1517207395121756,2,-2,0,0,0,-1,0,-1
1517207395123759,0,-1,0,-2,0,-1,-1,-1
1517207395123759,-2,0,-1,0,0,-1,0,-2
1517207395144341,-2,-2,-1,0,-3,-2,-2,-2
1517207395144341,-1,-1,-1,-1,-1,1,-3,-3
1517207395146808,0,-1,0,1,-1,-2,0,-1
1517207395146808,-1,-1,-2,-2,-1,-1,0,-2
1517207395167325,-1,0,-1,-1,0,-2,-1,-1
1517207395167325,-2,1,-1,0,-1,-1,-1,1
1517207395168834,-1,-2,-2,-1,-1,-1,0,-1
1517207395168834,0,-1,0,-1,-1,-2,-2,-2
1517207395181841,1,-1,-1,-1,-2,1,0,1
1517207395181841,-1,1,-2,-2,-1,0,-1,-1
1517207395183835,-1,0,-2,0,1,0,-1,-1
1517207395183835,-2,-2,0,-1,0,-2,0,-2
1517207395204350,-1,0,0,-1,-1,-1,-1,-1
1517207395204350,-1,-1,-1,-1,-1,-1,1,-2
1517207395206348,-2,1,-1,-3,-2,-3,-2,-1
1517207395206348,-1,-1,-1,-2,-3,1,-2,-1
1517207395218360,-1,-2,-2,-3,-1,0,0,0
1517207395218360,-2,-1,-1,-1,1,-2,-1,-2
1517207395227364,-3,0,-3,-1,-3,-1,-2,0
1517207395227364,0,-1,-1,0,0,-1,-1,1
1517207395241901,-1,0,-1,-1,-1,-1,0,-2
1517207395241901,0,-2,-2,-1,1,-1,-1,-2
1517207395243398,-1,-1,-2,-2,-1,-1,-2,-1
1517207395243398,-1,-1,-2,0,0,-1,-2,0
1517207395264390,-1,-1,-1,-3,-3,0,-2,-1
1517207395264390,-1,-3,0,0,-1,-2,0,0
1517207395265893,-1,-1,1,-1,-1,-2,-1,-1
1517207395265893,-2,-2,-1,-1,0,1,-1,-2
1517207395286906,-2,0,-1,-1,1,0,-3,0
1517207395286906,-1,-2,-2,-1,-1,-2,-2,-2
1517207395288406,-1,-1,-2,-1,-1,-1,-1,-1
1517207395288406,1,-1,0,-1,-1,-2,0,-1
1517207395301918,-2,0,-1,-1,0,0,0,-3
1517207395301918,-2,-1,-1,-1,-1,-1,-1,-1
1517207395303419,0,-2,-2,-1,0,0,0,-1
1517207395303419,-1,-3,-3,-2,-3,-1,0,-1
1517207395324435,-2,-1,-1,-1,0,-2,-1,-2
1517207395324435,0,0,-2,-1,-1,-3,-2,0
1517207395325933,1,0,-1,-2,0,-2,-1,-1
1517207395325933,-1,-1,0,0,-2,-1,0,-2
1517207395346966,0,-3,-1,0,-1,-3,0,0
1517207395346966,-1,-2,-1,0,-3,0,0,0
1517207395349451,-3,-1,-2,0,0,-1,-1,0
1517207395349451,-1,0,-1,-2,-1,-1,0,0
1517207395361985,-2,-1,-2,0,0,-1,-2,0
1517207395361985,-1,0,-2,-2,-3,-1,-1,-1
1517207395363472,0,-1,-1,-1,-1,-1,-1,-2
1517207395363472,-1,-3,-1,-3,-1,-3,-2,0
1517207395384485,-2,-2,-1,1,-1,-1,0,1
1517207395384485,1,-1,-2,0,-1,-1,-1,-1
1517207395385976,-1,-2,-1,-1,-3,0,0,-1
1517207395385976,-1,0,-1,-1,1,0,0,-1
1517207395407012,-1,-1,-1,-1,-2,-2,-2,-1
1517207395407012,0,0,-2,-1,-2,1,-1,-2
1517207395408491,-2,1,-1,-1,-1,-2,-1,-1
1517207395408491,0,0,-2,0,0,-1,0,-1
1517207395421504,0,-1,0,-1,-1,1,0,0
1517207395421504,-3,-1,-2,-2,0,-1,0,-2
1517207395428045,-2,-2,-3,0,-2,-2,-1,0
1517207395428045,-1,-1,-1,-1,-2,-1,-3,0
1517207395444571,-1,0,-1,-2,1,-1,-1,-2
1517207395444571,0,-1,-1,-1,-1,0,0,-1
1517207395446091,0,-4,-1,0,-1,-1,-1,-1
1517207395446091,-1,0,0,-2,-1,-1,-2,0
1517207395467103,-2,-1,-2,-1,-2,0,-1,-2
1517207395467103,1,-1,1,-1,1,-1,-1,1
1517207395468592,-3,-1,0,0,-2,0,0,0
1517207395468592,-1,-2,0,0,-1,-3,0,-3
1517207395481108,1,-2,-1,-1,0,0,1,-2
1517207395481108,-1,-1,-1,-2,-1,-1,-1,-1
1517207395488104,1,-2,1,-2,-1,0,-1,-3
1517207395488104,-1,-1,-2,-2,0,0,-2,-1
1517207395504626,-2,0,0,-1,0,-2,-2,-2
1517207395504626,-1,-1,0,-2,-2,-1,-1,-1
1517207395506126,-1,2,-2,0,-2,0,-1,0
1517207395506126,-1,-1,0,0,-2,0,-1,-1
1517207395527144,-1,-2,-1,3,-1,0,-1,-1
1517207395527144,0,-1,-3,-1,-1,-2,-1,-1
1517207395528659,-1,-1,0,-2,-1,0,-1,-1
1517207395528659,0,-1,0,-3,-2,-4,-1,1
1517207395540655,-1,-2,-2,-3,-1,-1,-1,-1
1517207395540655,0,0,1,-1,0,0,0,-1
1517207395548647,0,-1,-2,-2,0,-1,-2,-2
1517207395548647,-4,0,-2,-1,-2,2,0,0
1517207395563657,0,-1,-1,0,0,-1,0,0
1517207395563657,0,-2,-1,0,-3,-2,-1,-1
1517207395564658,-1,-1,-2,-1,0,-1,-1,-1
1517207395564658,-2,-1,-1,-1,0,1,-1,-1
1517207395586174,-1,0,-1,-1,-1,0,-1,-3
1517207395586174,-1,-1,-2,-3,-2,0,-2,-1
1517207395587174,0,-1,-1,-1,-2,-2,-2,-1
1517207395587174,-1,-2,-1,-2,0,-1,-1,-1
1517207395600683,0,-2,-3,-1,-3,-2,0,0
1517207395600683,0,-1,-1,0,-1,-2,-3,-1
1517207395608703,-3,0,0,0,-2,-1,-1,-2
1517207395608703,1,-1,-1,-2,-2,-1,-2,-2
1517207395623703,-1,-1,-1,0,-2,-1,-1,-1
1517207395623703,-1,-2,-2,-2,-2,-1,-1,0
1517207395624700,0,-2,-1,0,0,-1,-1,-1
1517207395624700,-1,-1,-1,-1,0,0,-2,-1
1517207395646237,-2,2,1,0,-1,0,0,0
1517207395646237,-1,-1,-2,0,1,0,0,-1
1517207395647233,-1,0,-1,-1,-2,-2,0,0
1517207395647233,0,-2,-1,0,-2,-2,0,0
1517207395660726,0,-1,-1,-1,-3,0,-3,-2
1517207395660726,-3,-1,-1,-1,-1,-1,-1,-1
1517207395668732,-2,-1,0,-2,-1,0,-2,-1
1517207395668732,-2,0,-1,1,-1,-2,-2,-1
1517207395683744,-1,-2,-2,-2,0,-2,-1,0
1517207395683744,-2,-1,0,0,-2,0,0,-1
1517207395684745,-1,-1,-2,-1,-2,-1,0,0
1517207395684745,-1,-2,-1,-2,-3,1,0,-1
1517207395706294,-1,0,0,-2,0,0,-2,-2
1517207395706294,-1,0,-1,-1,0,1,-1,-1
1517207395706790,1,0,-1,-1,-1,-2,-3,-1
1517207395706790,-2,0,-1,1,0,-1,-1,2
1517207395720790,-2,-1,-1,-1,-2,-3,-1,0
1517207395720790,-1,0,-2,-1,-1,-1,-1,-2
1517207395728823,-1,0,-2,-1,0,0,-1,-2
1517207395728823,0,-1,-1,-1,-1,0,-2,-2
1517207395743821,-2,-2,-3,0,-1,-1,-1,-1
1517207395743821,-1,-1,-1,2,0,-1,-1,0
1517207395744306,-1,0,-1,0,-1,1,1,0
1517207395744306,-1,0,1,0,-3,-2,-1,-1
1517207395766324,0,-1,-1,1,-1,0,-1,-1
1517207395766324,-1,1,1,-3,-1,-1,-1,-1
1517207395767325,-1,-2,-1,-2,-2,-2,-1,-1
1517207395767325,0,0,-2,0,-1,-1,0,-3
1517207395780349,0,0,1,0,-2,-2,0,-1
1517207395780349,-1,-1,0,-1,-1,0,1,0
1517207395788838,-1,-1,0,-2,-3,-1,-1,0
1517207395788838,1,0,-2,-2,0,0,0,-1
1517207395803849,-2,-1,0,-2,-1,0,0,-2
1517207395803849,-1,-2,0,0,-1,-1,0,-2
1517207395804350,0,0,-1,-2,-1,-1,-2,-1
1517207395804350,-2,-1,-2,-1,-1,0,-1,0
1517207395826372,0,0,-2,-1,-2,0,-1,0
1517207395826372,-1,1,-3,-2,0,-3,-2,-1
1517207395827375,-2,-4,0,-1,0,-1,-1,-1
1517207395827375,-2,-1,-2,-1,1,-1,0,-1
1517207395840885,-2,-1,-1,0,-1,-1,0,-1
1517207395840885,-1,0,0,-1,-2,-1,0,-1
1517207395848882,0,1,0,-1,-2,-1,-2,-3
1517207395848882,0,-2,-1,0,-1,-2,-1,-1
1517207395863391,1,-1,-1,-2,0,1,0,-1
1517207395863391,-1,0,-2,-1,-1,-1,-1,0
1517207395864392,-1,-1,0,-1,-2,0,-1,-1
1517207395864392,-1,0,-2,-3,-1,-2,-2,-1
1517207395886407,0,-3,-1,-2,0,-2,-1,-2
1517207395886407,-1,-1,-1,1,-1,-1,-2,-1
1517207395886908,-1,1,-1,-2,1,-1,0,-1
1517207395886908,0,-1,-1,-1,-1,0,-2,-1
1517207395900417,0,-2,-2,-2,0,-1,-2,0
1517207395900417,-1,-1,0,-1,-1,-1,0,-1
1517207395908945,-2,-2,-2,-3,0,-3,-1,0
1517207395908945,-2,-1,0,-1,0,-1,0,0
1517207395923965,0,1,-1,0,-1,-1,-2,0
1517207395923965,-2,-3,-1,-1,-2,-1,-1,-1
1517207395924434,0,0,-1,0,-1,0,0,0
1517207395924434,0,-3,-2,-3,0,-1,-1,-1
1517207395946459,-2,-1,0,0,-2,-2,-2,-1
1517207395946459,0,-1,-1,-2,-1,-1,-1,0
1517207395947970,-1,-1,-2,-1,-2,-2,-1,-1
1517207395947970,-1,-2,-1,0,-1,-1,0,-1
1517207395960482,0,0,0,0,-1,-1,-2,-1
1517207395960482,1,-1,-2,0,-1,-2,-2,1
1517207395968984,-1,-3,0,-2,1,0,-1,-1
1517207395968984,-2,-1,-2,-1,-1,0,-3,-1
1517207395983996,-2,-1,-1,-3,-1,-1,0,-3
1517207395983996,-1,0,-1,0,-2,-2,0,0
1517207395984497,0,-1,-1,-1,0,-1,-1,-1
1517207395984497,-2,0,-1,-1,-1,-1,-1,-1
1517207396006002,-1,-2,0,-1,0,-1,0,0
1517207396006002,-1,-2,0,-1,1,-1,-2,-2
1517207396006993,-1,0,-1,0,-1,-1,-2,0
1517207396006993,0,-1,-1,-1,-1,-1,0,-2
1517207396020538,-2,0,0,-2,-1,0,-1,0
1517207396020538,-1,-1,-1,-3,-1,0,-1,-2
1517207396029041,1,-2,-1,-1,0,0,-1,-1
1517207396029041,-1,-2,0,0,-2,-1,-2,-1
1517207396043554,0,-2,-3,-2,-1,0,0,-1
1517207396043554,-2,-1,-2,-1,-3,0,-1,-1
1517207396044552,-2,-2,-2,-1,-1,-2,0,-2
1517207396044552,-1,-1,-2,0,1,0,0,-1
1517207396066569,-1,-1,-1,-1,-4,-2,-1,-2
1517207396066569,-1,-1,-2,-2,-1,-3,0,-1
1517207396067074,-2,-1,0,-1,-2,-2,-1,0
1517207396067074,0,-1,-1,0,0,0,-1,-2
1517207396080616,-1,-2,-2,-1,0,-2,-1,0
1517207396080616,-1,-2,0,-1,-1,-1,-1,-1
1517207396088584,-1,-2,-1,1,-2,0,-2,-3
1517207396088584,-1,-1,-1,-1,-1,-1,-1,-1
1517207396103604,-2,-2,-1,-2,-2,1,-1,0
1517207396103604,-1,-1,-3,-2,0,0,0,0
1517207396104604,-3,-2,-1,-1,-1,0,1,-2
1517207396104604,0,-1,-1,0,-1,-2,-2,-1
1517207396126110,1,2,-2,0,-1,-2,-1,-1
1517207396126110,1,-1,0,0,-1,-2,-1,-1
1517207396127110,0,-1,-1,-2,-2,-1,-1,0
1517207396127110,0,-1,-3,-1,-1,-2,0,-1
1517207396140623,0,0,1,-2,0,-1,-1,-2
1517207396140623,-2,-2,-1,-2,-3,-2,0,-2
1517207396148625,1,-1,-2,-1,0,0,-1,-3
1517207396148625,-1,0,0,-1,-2,-1,-1,0
1517207396163649,-2,-2,-2,-1,0,-1,-1,1
1517207396163649,0,-1,-1,0,-1,0,-1,-2
1517207396164649,-2,-2,-1,0,-1,-1,0,-2
1517207396164649,-2,-3,-1,-3,-2,1,-1,-1
1517207396186153,-1,-1,0,-1,0,-1,-2,-1
1517207396186153,-1,-2,-1,1,0,-1,-1,-1
1517207396187154,-2,-2,-2,0,-1,-2,0,-1
1517207396187154,-1,-1,1,-1,1,-4,-2,-1
1517207396208684,-1,-1,-1,-1,-2,0,-2,-1
1517207396208684,-1,-1,-2,-3,-1,-1,-2,-3
1517207396216211,0,0,-1,0,0,-1,-1,0
1517207396216211,0,0,0,-1,0,-1,0,-1
1517207396223726,-1,-2,-2,0,-1,-2,0,-2
1517207396223726,-1,-1,-1,-2,2,-1,0,-1
1517207396224715,-2,-2,0,0,-1,-1,0,0
1517207396224715,0,-2,-1,0,-1,-2,-1,-2
1517207396246251,-2,1,-1,-3,-2,1,0,0
1517207396246251,-1,-1,-1,0,-1,-2,-2,-1
1517207396247731,-1,-2,-2,-1,-3,-2,-1,-2
1517207396247731,1,-2,0,-2,-2,-1,-2,-1
1517207396269750,1,-3,-2,0,0,-3,-1,0
1517207396269750,-2,-1,-1,-1,-2,-2,0,1
1517207396270264,2,1,1,-1,0,0,-2,-1
1517207396270264,-1,-2,-2,-2,-1,-2,-1,-1
1517207396283756,-1,-1,0,0,0,-1,0,0
1517207396283756,-1,0,-1,-2,1,0,-2,-1
1517207396284759,-2,-1,-2,-1,-1,-2,-2,1
1517207396284759,-3,0,-1,-1,-2,0,0,-1
1517207396306281,1,-1,-1,0,-1,-2,-2,-2
1517207396306281,-2,-1,-1,-1,-1,-3,-2,0
1517207396306773,0,-2,0,-3,-2,-1,-1,-1
1517207396306773,-2,-1,-2,0,0,-2,-1,-2
1517207396329303,-1,-1,-1,0,-2,0,0,0
1517207396329303,-1,-1,-1,0,-1,0,0,0
1517207396330298,0,-1,-2,0,-1,1,-2,-2
1517207396330298,1,0,-2,0,-3,0,0,0
1517207396343814,-2,0,-1,-2,-1,-1,-2,-4
1517207396343814,-2,0,-1,0,0,0,-1,-2
1517207396344309,-1,-1,0,-1,0,-1,-2,-1
1517207396344309,-2,0,-3,-2,1,-2,0,0
1517207396366319,-1,0,-3,1,-2,-2,2,-1
1517207396366319,0,-2,-1,-2,-2,-2,-1,-2
1517207396366815,0,1,-1,-3,-2,-1,0,-1
1517207396366815,-1,-2,-2,0,0,0,-1,-2
1517207396389339,0,-2,-1,-1,-1,-1,-1,0
1517207396389339,-1,-1,-1,-2,-3,1,-1,-2
1517207396390333,-1,-1,1,1,-1,-1,-1,-2
1517207396390333,-1,0,0,-1,0,0,-1,0
1517207396403842,-3,-1,-1,-1,0,0,-2,-1
1517207396403842,-2,-1,0,-1,-1,0,0,-1
1517207396404341,-2,-1,-3,0,0,-2,1,-1
1517207396404341,-1,1,-1,-2,-2,-1,-2,-2
1517207396426357,-1,-1,-1,-3,-2,-1,-2,-1
1517207396426357,0,0,-1,-1,1,-2,-2,-1
1517207396426858,-3,1,0,1,-1,-1,-1,1
1517207396426858,-2,-1,-2,-1,-2,-3,0,-1
1517207396449375,1,-2,-2,-3,0,0,0,-2
1517207396449375,-1,-1,2,0,-3,-1,1,-1
1517207396450377,-2,-2,-2,-4,-1,-1,0,1
1517207396450377,-1,-3,-1,4,1,-1,-1,-1
1517207396463894,-2,-3,-2,-3,-2,-4,-3,-2
1517207396463894,0,0,3,6,-5,-3,-1,-1
1517207396464399,-1,-4,-5,-2,4,1,-2,-1
1517207396464399,-1,-1,-2,-3,-5,-1,-1,0
1517207396486402,-1,-3,0,0,1,-1,0,1
1517207396486402,0,-3,-2,-1,0,-1,-1,-1
1517207396486905,0,-1,1,2,-3,-2,-1,-1
1517207396486905,-1,0,-3,-1,-2,0,0,-1
1517207396509431,-2,-2,0,-1,0,-2,0,0
1517207396509431,-5,-2,-1,0,1,-2,-2,-2
1517207396510431,0,-2,-2,-2,-1,0,0,0
1517207396510431,-1,0,2,2,-1,-1,-1,0
1517207396523426,0,1,-2,0,0,-1,-1,-1
1517207396523426,-1,-2,-3,-4,-1,-1,0,0
1517207396524427,-1,-1,-1,0,-2,-1,-1,-2
1517207396524427,-1,-4,0,-5,-2,-2,-2,-2
1517207396545963,0,1,0,-2,-2,-1,-2,1
1517207396545963,0,0,-2,-2,3,0,-1,-1
1517207396547959,1,-2,-1,-2,-2,-3,-1,0
1517207396547959,-12,-2,-1,-1,-1,-2,-3,-3
1517207396569461,-1,-1,-2,1,-1,-1,1,0
1517207396569461,1,-1,-7,-5,1,1,0,0
1517207396570461,-2,0,13,7,-3,-2,-1,-4
1517207396570461,4,-2,-6,-7,-2,-1,-2,0
1517207396583970,-2,0,-2,0,0,-1,1,-1
1517207396583970,-2,1,-1,-3,-6,-3,-1,0
1517207396584471,-1,-5,-6,2,9,2,0,-2
1517207396584471,1,2,3,3,-1,-1,0,0
1517207396605984,-3,-3,-3,-4,-4,0,-3,-3
1517207396605984,0,2,0,4,0,-1,-1,-1
1517207396606985,0,-1,-2,-2,-4,-2,-1,-1
1517207396606985,0,0,0,1,0,0,0,0
1517207396629504,1,1,-2,-5,-1,0,0,0
1517207396629504,-2,-2,2,0,-1,0,-1,-1
1517207396630001,-6,-1,-3,-3,-5,-3,-4,-3
1517207396630001,2,-1,-2,-1,0,2,1,1
1517207396644011,1,0,1,0,0,1,-1,1
1517207396644011,-1,-3,1,-2,1,0,-1,-2
1517207396644511,3,2,-3,0,-2,-3,-1,-1
1517207396644511,-2,-1,-2,-1,0,-1,-1,-2
1517207396666027,-5,2,-2,1,-3,-2,-2,0
1517207396666027,-8,-4,1,0,1,0,0,0
1517207396667027,7,-6,-4,-3,-1,-1,-3,-2
1517207396667027,6,1,0,2,-2,0,-1,0
1517207396689543,-1,-2,0,-9,6,1,-1,0
1517207396689543,-1,2,-5,-6,0,-3,0,0
1517207396690043,1,1,-1,-1,-4,-1,0,0
1517207396690043,1,1,0,2,-1,-1,-1,-4
1517207396703055,1,-3,-1,4,-3,-3,-1,1
1517207396703055,-1,-4,-1,-2,-2,-2,-2,0
1517207396711124,-4,-1,-3,-8,-3,-2,0,0
1517207396711124,0,0,5,7,2,-1,-1,-1
1517207396726135,3,1,-3,2,-3,-2,-1,0
1517207396726135,-7,-2,2,1,1,0,0,-1
1517207396727126,-2,-6,-5,-1,-4,-1,-2,-1
1517207396727126,-9,-5,2,-4,0,-3,-2,-2
1517207396749643,8,3,-1,2,-2,0,-1,-1
1517207396749643,-1,-5,-5,0,-4,-3,-1,0
1517207396750144,-1,5,-3,-5,-1,1,1,9
1517207396750144,-4,-1,-2,-3,-1,0,-3,-13
1517207396763661,4,0,2,4,1,1,1,1
1517207396763661,11,-2,-4,-9,-4,0,2,7
1517207396771158,-18,1,-4,0,1,-2,-3,-7
1517207396771158,-3,-11,-6,-8,-4,-4,0,5
1517207396786177,-6,-3,0,6,1,0,-1,-3
1517207396786177,-6,1,0,-1,2,0,1,1
1517207396787169,-1,1,3,1,-2,0,-1,-2
1517207396787169,9,6,-3,-4,-3,-2,-1,3
1517207396809187,-5,-3,-5,-3,-3,-1,-3,-6
1517207396809187,0,-2,6,3,-1,-2,-2,-4
1517207396810184,-9,0,-1,-3,0,0,-1,-1
1517207396810184,5,-4,-5,-1,0,0,-3,-3
1517207396823210,-2,-1,2,-3,-2,-2,-2,-1
1517207396823210,3,4,-4,-3,0,-1,-1,-2
1517207396831199,12,1,1,1,-1,0,1,9
1517207396831199,6,3,5,2,1,1,-1,-6
1517207396846232,-1,-9,-2,-3,-3,-2,-1,-3
1517207396846232,-1,1,-3,0,-2,-2,-4,-5
1517207396847711,5,0,1,-2,0,-1,-1,-1
1517207396847711,-2,1,-3,-4,-1,-1,0,5
1517207396869750,-2,4,-1,-2,-3,-2,-2,1
1517207396869750,-1,-2,1,0,-2,-3,-3,-5
1517207396870227,3,-2,1,-6,-2,-1,0,-1
1517207396870227,-12,7,-2,11,2,-1,-1,1
1517207396883238,-10,-7,-6,5,1,-2,-1,-3
1517207396883238,3,-6,0,-15,-3,-1,-1,12
1517207396891262,-3,-6,-8,-5,-1,-2,-5,-20
1517207396891262,3,5,0,-3,-3,0,-4,-1
1517207396906252,9,-1,-5,-4,-3,-2,-1,3
1517207396906252,-11,4,4,10,-1,-2,-1,0
1517207396906752,8,0,-4,-4,-3,-1,6,6
1517207396906752,-14,-9,5,-5,-4,0,-1,0
1517207396929268,-2,3,-2,3,0,-2,0,-4
1517207396929268,12,7,-3,-1,-1,-1,-1,-2
1517207396930269,-2,-1,-2,-1,1,-1,-1,1
1517207396930269,-5,-18,-4,0,-1,-3,-2,-5
1517207396942778,-1,9,1,-2,-1,1,0,2
1517207396942778,-3,-8,1,0,0,0,0,-2
1517207396951285,-5,6,4,1,1,-2,-2,-3
1517207396951285,13,8,-7,-5,-2,2,-1,-3
1517207396966310,-3,-4,2,-4,0,-1,-2,-1
1517207396966310,7,-4,-9,-3,-2,0,1,1
1517207396966797,-11,-15,-2,2,-2,0,-1,2
1517207396966797,3,-2,1,-1,-1,-1,-2,-4
1517207396989372,-1,12,7,1,-1,0,0,-5
1517207396989372,-2,-8,1,-3,-3,-1,-1,10
1517207396990365,-2,-2,1,9,1,0,-3,-15
1517207396990365,-8,2,-6,-7,-3,-1,5,8
1517207397003419,0,-3,8,0,-1,-2,-2,-3
1517207397003419,-6,-5,-6,-1,-3,-2,-2,-3
1517207397011422,-4,-7,-1,-7,-3,-1,-4,-2
1517207397011422,4,4,-3,0,-1,-1,-1,1
1517207397025932,-7,-2,-5,-2,1,-1,-2,-2
1517207397025932,-4,-3,-3,-3,-3,-5,-2,-6
1517207397026949,-5,-3,6,6,0,0,1,3
1517207397026949,2,2,-7,-7,-4,-3,-2,-3
1517207397049951,-10,0,-6,-6,-3,-3,-4,-7
1517207397049951,-21,-1,11,18,4,0,-5,-13
1517207397050452,17,0,-9,-14,-2,-1,3,10
1517207397050452,10,-3,-10,-1,-2,-1,2,11
1517207397062957,-7,-13,1,-8,-2,-1,-2,0
1517207397062957,4,3,-3,1,-2,-1,-1,-3
1517207397071464,4,4,6,18,4,2,0,4
1517207397071464,-13,8,-8,-18,-3,-3,-1,-4
1517207397086474,12,-1,14,-1,1,0,1,4
1517207397086474,8,-2,-9,-3,-2,-1,1,-6
1517207397086974,-11,-3,9,4,1,0,-2,-1
1517207397086974,14,-13,-3,1,-2,-2,-2,-6
1517207397109493,-9,6,-12,2,1,0,3,2
1517207397109493,-3,-11,1,-9,0,2,3,5
1517207397110491,-2,10,1,-1,-4,-2,-2,-2
1517207397110491,-5,5,-10,1,0,1,11,5
1517207397123002,-2,-32,-2,1,-3,0,-5,7
1517207397123002,9,5,3,0,1,-3,-12,-21
1517207397131506,-3,-8,-4,-4,0,-1,0,-9
1517207397131506,-1,5,10,14,2,0,2,2
1517207397146019,0,8,-11,-10,-2,0,5,11
1517207397146019,15,-5,0,-5,-4,-1,0,5
1517207397148021,-6,-6,-7,-7,-2,-2,1,0
1517207397148021,-4,-2,9,5,2,0,1,-1
1517207397169544,-6,3,7,0,-1,1,-4,-4
1517207397169544,4,6,-8,-3,-1,1,-1,1
1517207397170536,-4,3,6,2,-2,-6,-5,7
1517207397170536,2,-7,11,3,0,2,8,5
1517207397192049,11,11,-15,-2,-1,-2,-4,-6
1517207397192049,-7,11,-3,-4,-1,0,-3,-5
1517207397192550,-9,-30,-1,1,-1,-1,-2,-3
1517207397192550,-8,-3,-6,-9,-4,-3,-2,-2
1517207397206625,-1,-19,-3,2,0,-2,-3,-3
1517207397206625,11,24,21,9,2,1,8,15
1517207397207626,11,9,-20,0,2,1,-1,-3
1517207397207626,-25,-23,-15,-9,-4,-6,-11,3
1517207397229602,17,0,7,8,-1,2,3,-16
1517207397229602,-7,6,3,-8,0,0,0,7
1517207397230103,6,-6,-6,-3,-1,-1,-2,-10
1517207397230103,-3,5,0,3,2,2,2,3
1517207397252119,-4,-2,-6,1,-1,-1,-3,-6
1517207397252119,-6,-7,9,3,-1,-2,1,6
1517207397252619,7,22,-20,-11,-5,-3,1,2
1517207397252619,3,-3,14,13,4,1,12,22
1517207397266632,-8,-8,-6,-7,-3,-3,-14,-33
1517207397266632,-7,-10,3,-6,-3,-3,-10,0
1517207397267129,2,-2,-14,-3,-1,0,-1,4
1517207397267129,-2,13,11,11,2,0,-6,-14
1517207397289651,2,1,1,-21,-7,-4,5,5
1517207397289651,11,6,-9,4,3,2,10,1
1517207397290147,-12,-22,-14,-2,-2,-4,-25,-12
1517207397290147,18,28,22,-1,0,0,9,0
1517207397311693,-16,5,16,14,3,0,-6,13
1517207397311693,-1,-4,-33,-12,-5,-3,-6,-21
1517207397312671,-2,-13,10,-3,0,1,13,18
1517207397312671,12,-17,-3,5,4,0,-9,-10
1517207397326174,-11,24,-2,-3,-2,-1,-3,1
1517207397326174,6,-6,14,4,1,-4,-13,-8
1517207397327188,-8,12,37,8,-1,-2,1,-4
1517207397327188,-7,13,-4,-8,2,2,-12,-12
1517207397349187,5,-34,-61,-8,-2,1,9,-12
1517207397349187,-5,-6,-3,3,-1,-1,2,22
1517207397350188,1,-2,-13,-7,-2,2,0,-5
1517207397350188,-12,-15,9,0,-4,-3,17,13
1517207397371730,9,2,27,6,0,-2,-6,-13
1517207397371730,-7,14,-21,-4,-1,-2,-7,-7
1517207397372731,-10,-79,-67,-18,-6,0,-1,-8
1517207397372731,2,22,-3,3,0,1,7,15
1517207397386240,-14,5,-10,-3,0,-5,2,-4
1517207397386240,-14,-44,-17,6,0,-2,2,-8
1517207397386740,10,74,55,-20,-8,-8,-3,-2
1517207397386740,-6,-35,-56,-10,-3,-2,-5,10
1517207397409260,15,21,47,12,0,-3,-14,-29
1517207397409260,-7,14,-12,-3,0,0,7,9
1517207397410257,3,39,38,23,8,3,5,-13
1517207397410257,-20,-48,-68,-17,-7,-5,-10,-8
1517207397431776,19,18,-6,-3,-1,4,13,24
1517207397431776,-22,-51,6,1,-3,-3,9,1
1517207397432774,7,-1,-26,3,2,-1,-28,3
1517207397432774,31,48,55,0,0,2,3,3
1517207397446320,-31,-41,-71,-3,-1,-6,-22,-36
1517207397446320,-9,20,68,6,-4,-1,2,-8
1517207397447818,17,21,17,-25,-6,-3,2,5
1517207397447818,-1,27,-36,-5,-1,0,-8,12
1517207397469799,-4,4,43,25,5,3,10,17
1517207397469799,40,-38,-12,-26,-10,-7,1,17
1517207397470301,-18,-27,-57,7,4,0,-17,-26
1517207397470301,3,10,58,-9,-8,-6,-13,-24
1517207397491818,14,23,63,7,3,4,16,25
1517207397491818,-9,21,-14,-3,2,1,1,-2
1517207397492822,18,26,12,0,-6,-3,0,22
1517207397492822,-33,-51,-60,-4,-3,-9,-25,-57
1517207397506366,-4,-24,-14,-10,-3,-1,-5,5
1517207397506366,1,3,47,28,6,6,10,2
1517207397506866,-18,7,-24,-9,-2,-3,12,23
1517207397506866,-10,28,55,1,1,3,0,2
1517207397529442,-9,0,-10,-11,-7,-6,19,38
1517207397529442,-11,23,16,5,2,-2,-38,-58
1517207397530446,6,9,-10,-1,-2,3,14,13
1517207397530446,26,-6,16,7,2,0,-2,10
1517207397551923,-2,11,33,6,5,4,3,14
1517207397551923,-7,-41,-96,-19,-4,-3,8,6
1517207397552421,29,-7,65,7,-1,-1,12,-14
1517207397552421,-43,-8,24,13,-1,-3,-25,-14
1517207397566432,4,-16,-106,-25,1,2,-1,17
1517207397566432,13,4,31,14,2,1,9,4
1517207397566934,2,38,23,-4,-7,-3,-20,-22
1517207397566934,12,-63,-43,-2,-4,-7,11,26
1517207397589461,16,9,-19,-5,0,-1,-20,-36
1517207397589461,-14,87,48,9,3,4,-1,13
1517207397589949,-33,-97,-57,10,-2,-6,4,24
1517207397589949,30,39,2,-33,-3,1,9,-4
1517207397613464,-2,-5,21,17,-2,-3,2,-2
1517207397613464,-1,-16,-19,-15,0,1,-4,8
1517207397614965,0,-1,-37,15,3,2,7,9
1517207397614965,-18,-50,49,8,-1,-2,-3,7
1517207397625473,-32,30,26,-13,-7,-6,-14,-48
1517207397625473,17,38,-25,10,-2,-2,1,2
1517207397634481,2,-26,13,-21,-2,-1,18,-6
1517207397634481,5,32,21,15,5,4,5,24
1517207397649492,-12,-37,-5,-7,-8,-7,-12,-9
1517207397649492,-5,-56,-62,-25,-8,-6,-5,1
1517207397650992,2,22,79,31,9,3,-6,10
1517207397650992,1,29,-17,-17,-7,-4,-6,-78
1517207397672074,15,64,86,27,7,3,1,27
1517207397672074,-16,-49,-16,-34,-9,-3,-7,-44
1517207397673576,14,4,-3,-8,-4,-2,-2,-2
1517207397673576,-37,-12,18,17,8,3,1,-20
1517207397685594,-7,41,-51,-12,-4,1,17,24
1517207397685594,22,-18,-23,-2,-5,-2,1,-12
1517207397694613,-34,80,93,27,14,9,1,-11
1517207397694613,22,-6,-67,-5,-6,-3,-2,22
1517207397709601,10,-20,-36,-7,-3,-2,4,-2
1517207397709601,-7,11,21,1,-1,-2,4,24
1517207397711124,-31,-5,4,0,-2,-1,0,-7
1517207397711124,21,35,-1,7,3,1,12,28
1517207397732632,13,-36,52,-5,-3,-4,-19,-36
1517207397732632,5,4,5,5,1,4,19,46
1517207397734128,-8,-7,-25,-5,-4,-3,-20,-41
1517207397734128,-2,14,-4,7,-2,-2,-3,-1
1517207397745627,-6,-16,40,-21,-3,0,3,-7
1517207397745627,0,26,33,8,1,0,-2,0
1517207397754633,14,21,-19,6,4,1,1,11
1517207397754633,-14,4,-17,0,-1,-1,9,-8
1517207397769697,8,14,-16,-9,-2,0,9,12
1517207397769697,1,19,41,4,-2,-3,-20,2
1517207397771175,16,5,-13,-12,-5,-2,5,-3
1517207397771175,11,-24,-29,3,0,0,-3,28
1517207397791690,10,-17,-32,11,0,-1,-10,-26
1517207397791690,-12,-66,-90,-26,-5,-5,-7,-8
1517207397798197,0,8,21,4,2,0,3,12
1517207397798197,2,-22,55,-8,-5,-3,0,7
1517207397805699,-14,-24,-23,3,3,3,5,8
1517207397805699,-8,-8,23,25,9,5,5,-5
1517207397814705,-6,-24,-5,-11,-7,-4,-3,-6
1517207397814705,30,-4,-14,-4,-1,-2,2,-12
1517207397829219,-2,-10,-9,3,1,0,6,25
1517207397829219,-10,-11,-15,-14,-6,-4,-7,-18
1517207397831218,10,-25,19,14,8,4,7,9
1517207397831218,-15,-9,-1,-11,-2,-1,-3,-47
1517207397852236,27,38,59,31,5,4,17,35
1517207397852236,5,12,-31,-14,0,3,-7,-23
1517207397853735,0,-26,-15,-3,-2,1,6,9
1517207397853735,-6,-2,-10,5,5,3,5,9
1517207397865251,-7,-20,-26,-6,-3,-5,-14,-1
1517207397865251,-11,-23,-29,-7,-4,-2,0,-3
1517207397874256,7,17,-5,-6,-8,-3,5,5
1517207397874256,-32,18,-10,-2,6,4,-11,5
1517207397889259,11,19,36,-6,0,0,6,5
1517207397889259,8,19,-6,-11,-8,1,14,-1
1517207397891261,0,-12,-46,-17,-8,-7,-7,-7
1517207397891261,-11,-13,-22,7,3,1,1,0
1517207397912284,-3,-48,-58,7,3,1,-7,-1
1517207397912284,-17,28,50,4,1,0,5,22
1517207397913785,-5,-31,-13,16,8,3,-2,-7
1517207397913785,-7,8,29,-12,-5,-5,-13,-9
1517207397925316,22,16,-22,-8,-5,-2,12,12
1517207397925316,-10,11,63,41,11,4,3,0
1517207397934315,16,13,-9,-22,-3,0,-3,-1
1517207397934315,-4,-5,43,9,-3,-4,2,9
1517207397949824,-2,35,46,-4,-5,-4,-10,-2
1517207397949824,-2,-31,-9,-4,0,-2,-8,-36
1517207397951825,20,-21,-28,-5,-7,-8,-15,25
1517207397951825,22,9,-71,-9,-2,1,13,23
1517207397971838,-7,24,0,8,2,4,-2,-25
1517207397971838,-21,8,9,-31,-12,-12,-35,-27
1517207397973341,14,-15,-33,11,3,0,0,4
1517207397973341,-6,-32,-8,3,2,3,-6,-16
1517207397985356,-7,15,48,-9,-4,-2,5,15
1517207397985356,24,43,-18,35,6,1,10,32
1517207397994365,-22,1,-18,-34,-8,-4,-2,-11
1517207397994365,6,-24,-12,9,0,-1,-5,15
1517207398009368,-26,-17,-31,-19,-4,-2,-13,-40
1517207398009368,2,3,6,-1,-3,1,6,7
1517207398010867,-20,35,44,4,1,1,4,-4
1517207398010867,19,48,48,8,-1,-4,1,-1
1517207398031881,-5,-47,-5,9,1,-2,-6,5
1517207398031881,-19,9,18,-27,-8,-6,-3,-19
1517207398033386,45,18,3,13,5,4,2,13
1517207398033386,14,25,40,-5,-1,0,9,17
1517207398045414,-17,-21,-16,7,0,-1,-9,-11
1517207398045414,3,-21,-36,-11,-2,-2,3,9
1517207398054397,-8,0,46,10,4,0,0,-9
1517207398054397,-11,-64,-13,-2,-4,-5,-13,-18
1517207398068914,35,56,-13,-16,-7,-1,19,37
1517207398068914,-29,-30,-2,6,4,0,-25,-33
1517207398076915,-21,-47,-36,-9,-6,-3,2,-40
1517207398076915,12,30,2,8,-3,-3,-7,-44
1517207398091924,-10,-4,-29,-6,-1,-1,-6,4
1517207398091924,4,33,19,25,7,2,19,57
1517207398093425,17,10,-19,-4,-1,3,-3,-20
1517207398093425,-20,17,-43,-21,-7,-4,1,6
1517207398114441,8,-9,67,11,1,0,4,-8
1517207398114441,20,-32,-61,-14,1,-1,-1,-2
1517207398115942,-22,-2,26,11,-1,-3,-11,0
1517207398115942,16,2,43,-6,-1,3,8,25
1517207398129450,-15,-87,-55,-2,2,1,-2,-5
1517207398129450,-1,19,45,-8,-11,-3,7,31
1517207398130951,-2,32,-4,3,1,-6,-20,-28
1517207398130951,-17,9,-8,-11,-3,-1,-1,-6
1517207398151966,0,1,28,4,2,3,3,1
1517207398151966,10,-49,-15,12,0,-3,2,5
1517207398157995,1,49,14,-13,-3,1,12,24
1517207398157995,6,23,-10,13,8,0,-18,-13
1517207398174492,3,29,3,-4,-5,-4,-8,5
1517207398174492,24,52,39,15,4,0,1,-9
1517207398175996,-19,-4,48,11,0,-1,1,-3
1517207398175996,-5,5,-62,-19,-4,-2,-2,-4
1517207398190001,-3,8,5,4,4,0,0,8
1517207398190001,3,-33,-33,-7,-7,-3,2,-49
1517207398191494,2,10,21,7,2,1,4,0
1517207398191494,-7,32,55,12,3,2,5,11
1517207398212518,-10,-27,-49,-17,-9,-4,-6,-6
1517207398212518,15,12,29,25,8,3,-2,-8
1517207398218022,-4,-29,35,-5,-2,-3,-22,6
1517207398218022,-11,-37,-86,-4,-4,-6,4,27
1517207398234525,26,53,7,-12,1,0,-6,-48
1517207398234525,-19,-41,13,10,1,-1,-1,-13
1517207398236026,9,2,3,1,1,-1,-5,12
1517207398236026,-23,1,-8,0,-3,-2,-3,4
1517207398248537,40,-16,-15,3,-2,-7,-8,6
1517207398248537,7,-15,-25,4,3,3,15,17
1517207398255552,1,-14,-1,-11,-6,-5,-16,-22
1517207398255552,-4,-7,-3,-6,-6,-5,0,9
1517207398272069,-28,-12,-8,19,1,-1,4,42
1517207398272069,17,13,42,-16,5,6,8,6
1517207398273572,-16,16,-1,-19,-15,-9,-5,6
1517207398273572,20,-22,-29,4,5,2,-4,-14
1517207398294613,-28,2,28,3,-4,-2,9,26
1517207398294613,24,51,17,12,6,4,2,14
1517207398296114,-22,-66,-45,-14,-5,-1,4,0
1517207398296114,5,-6,29,6,3,1,3,-5
1517207398308648,-8,9,-50,-1,-5,-6,-11,-26
1517207398308648,-29,-2,-3,-39,-14,-9,-10,6
1517207398315638,10,-25,-57,5,1,-2,6,-3
1517207398315638,-9,15,-12,5,-1,0,-5,-23
1517207398332140,-2,-56,29,12,7,7,8,27
1517207398332140,7,16,11,-9,-4,-2,-17,-40
1517207398333642,-32,1,-35,9,2,2,3,12
1517207398333642,8,-55,31,-10,-3,-1,-1,-15
1517207398354155,5,8,4,4,5,3,0,2
1517207398354155,10,7,-24,6,-1,-3,-4,7
1517207398356173,-3,9,64,4,2,2,12,13
1517207398356173,10,18,-39,-19,-9,-4,-1,-2
1517207398368669,-1,-34,22,-4,-2,-2,7,1
1517207398368669,-9,-20,-17,-1,-5,-5,-11,-22
1517207398375670,2,-28,-53,-5,-5,-4,-17,4
1517207398375670,-12,18,5,9,6,4,4,3
1517207398391681,4,12,11,-5,-4,-5,-5,31
1517207398391681,-18,44,-7,-7,-4,-3,-2,-37
1517207398393686,17,31,56,-1,-6,-6,4,6
1517207398393686,6,20,59,-1,-1,-1,-3,0
1517207398414210,9,-21,-64,-16,-5,0,5,22
1517207398414210,8,41,35,8,-2,0,4,10
1517207398416200,-40,-24,-37,-10,-3,-2,-8,-12
1517207398416200,17,-15,3,-6,-5,-3,-4,1
1517207398428711,8,11,-18,-8,-2,-2,-5,-14
1517207398428711,-5,25,33,5,0,0,2,27
1517207398435714,-5,-16,-61,5,5,7,5,-8
1517207398435714,14,0,71,-16,-6,-5,-4,6
1517207398452262,-1,12,-23,-4,1,2,1,-13
1517207398452262,5,39,-1,6,-3,-2,-3,9
1517207398453761,-1,-5,15,-3,-1,-4,9,1
1517207398453761,-8,3,-27,-4,-1,-2,2,-9
1517207398474280,0,14,-20,-10,-2,0,-20,-39
1517207398474280,11,-51,18,-1,-4,-5,-4,7
1517207398475776,-29,3,10,14,3,1,4,3
1517207398475776,-26,-34,-35,-11,-3,-1,3,18
1517207398488786,15,25,47,6,0,0,4,0
1517207398488786,-4,-23,-38,-3,2,2,1,8
1517207398495293,15,19,-11,-14,-7,-5,-3,-8
1517207398495293,-8,-9,9,8,0,-2,-5,27
1517207398511804,-39,-13,-3,2,1,0,0,-32
1517207398511804,-11,-35,-56,-11,-8,-7,-1,2
1517207398513303,-1,-5,7,-12,-2,-4,-6,-23
1517207398513303,2,64,55,13,8,8,14,48
1517207398534823,-1,-10,-52,-3,-8,-5,-19,-55
1517207398534823,7,21,-12,-3,0,-1,-1,-16
1517207398535818,17,-6,4,-16,-5,-2,4,19
1517207398535818,5,-14,24,23,5,-1,-11,-25
1517207398548843,-27,5,-27,-8,-1,-1,3,10
1517207398548843,-4,-10,42,-3,-1,-2,-6,6
1517207398555332,9,7,-27,16,8,5,4,0
1517207398555332,22,4,-12,8,2,2,1,-2
1517207398571845,25,-3,4,-7,-1,-1,7,13
1517207398571845,-24,-3,0,11,0,-2,-9,-11
1517207398573346,6,-4,-10,-13,-1,1,6,21
1517207398573346,-19,31,28,17,2,4,7,-39
1517207398594386,37,0,19,-9,-6,-6,-5,10
1517207398594386,-41,-41,-41,-22,-4,-1,4,1
1517207398595861,12,23,45,17,3,-3,-6,-5
1517207398595861,6,-1,-11,-4,-1,-1,11,21
1517207398607872,-33,1,4,-10,-1,-4,-15,-29
1517207398607872,4,-39,-8,17,6,5,2,1
1517207398616882,10,20,-23,-6,-1,2,4,-5
1517207398616882,-32,-47,-1,-9,-7,-7,-6,-3
1517207398632387,-8,1,13,7,4,1,8,24
1517207398632387,9,-7,-32,-3,-2,1,-4,-19
1517207398633889,-10,8,65,1,-4,-4,-4,2
1517207398633889,22,-5,-69,-5,1,0,-9,-5
1517207398654415,-4,-24,28,9,0,0,7,6
1517207398654415,8,4,-19,8,1,0,-1,3
1517207398655904,-6,-25,-31,-29,-2,2,-1,1
1517207398655904,-20,-14,-21,-16,-6,-4,0,8
1517207398667927,5,-3,0,8,3,2,-7,-21
1517207398667927,9,36,33,15,5,0,-2,14
1517207398676945,-24,-47,-29,-10,-12,-6,-6,-58
1517207398676945,-7,-10,-3,-5,0,1,-4,-12
1517207398691956,-1,-6,24,0,-5,-4,-2,3
1517207398691956,-10,-41,27,8,3,1,1,-7
1517207398693457,-14,-9,-76,-14,-4,1,5,23
1517207398693457,7,8,8,5,-2,-4,-13,-12
1517207398714501,-16,23,43,1,0,-1,3,-6
1517207398714501,16,37,50,-4,-1,-3,-6,-4
1517207398716003,-25,-58,-6,7,-2,-4,-4,-2
1517207398716003,2,10,-10,-7,-5,-4,0,-1
1517207398728034,19,10,19,5,4,3,5,-1
1517207398728034,-3,-37,-16,2,-5,-4,2,13
1517207398737016,-9,88,24,-1,-2,1,-2,-9
1517207398737016,-4,-18,-14,3,1,1,4,-7
1517207398752027,-12,10,-12,-8,-5,-5,-5,11
1517207398752027,16,4,-33,-6,0,0,0,-2
1517207398753528,19,40,33,12,0,-2,2,23
1517207398753528,3,-7,30,1,-2,1,-3,-6
1517207398774553,-6,-3,-44,7,1,2,8,7
1517207398774553,-28,-25,0,-15,-3,0,2,4
1517207398776045,15,-26,26,23,3,-2,-3,-1
1517207398776045,2,-34,-38,-35,-6,-5,-4,-5
1517207398788054,18,8,14,1,-1,-3,3,9
1517207398788054,10,-34,-41,-10,-3,-2,0,-2
1517207398797075,-24,-8,2,18,8,4,6,11
1517207398797075,6,-13,21,4,-3,-3,-1,-2
1517207398812070,-8,-7,-6,2,0,0,-2,-2
1517207398812070,20,-10,-23,-14,-6,-4,-2,1
1517207398813571,26,-11,-42,9,5,0,-5,-12
1517207398813571,-10,-30,-28,-16,-5,-5,-1,6
1517207398834586,-12,-4,11,24,6,5,3,7
1517207398834586,-2,16,8,-35,-6,2,6,9
1517207398836086,1,6,15,16,7,3,-7,-5
1517207398836086,3,31,-28,-9,-4,0,-2,-18
1517207398848112,7,-32,-12,3,-2,-3,1,9
1517207398848112,8,90,75,6,-1,0,-1,-5
1517207398857126,17,-1,-30,-9,-5,-2,0,10
1517207398857126,28,32,36,25,9,6,2,9
1517207398871612,-31,36,-26,-32,-8,-2,-9,-27
1517207398871612,9,14,6,8,2,2,1,5
1517207398873614,3,-17,14,6,4,4,12,45
1517207398873614,6,57,49,9,1,2,-11,-45
1517207398894629,1,-2,-14,3,2,-1,-4,-12
1517207398894629,-20,-41,-22,4,-2,-2,-5,-5
1517207398896143,-7,22,-24,4,0,2,3,-1
1517207398896143,1,-71,-19,-9,-4,-2,10,19
1517207398908159,-41,6,-59,-18,-4,-5,-21,-19
1517207398908159,2,-2,-4,-2,-1,1,7,15
1517207398917144,7,-1,33,7,1,-1,-11,-21
1517207398917144,-25,5,27,5,-1,-2,-1,0
1517207398931654,-18,-63,35,-4,-1,-1,5,-4
1517207398931654,-3,18,-7,11,4,2,0,6
1517207398933156,-1,-10,-23,-10,-7,-6,2,14
1517207398933156,-3,16,-4,-2,2,1,-6,-29
1517207398954170,22,4,8,12,-2,-1,1,11
1517207398954170,-18,-1,10,2,-2,-3,8,11
1517207398956194,-6,2,18,-23,-10,-8,-18,-25
1517207398956194,-11,7,-5,-3,-1,-2,2,-3
1517207398968220,-3,-59,-29,-7,-2,-1,-7,4
1517207398968220,42,51,20,11,-1,-2,-8,-18
1517207398976727,-2,-26,21,-3,-3,0,3,10
1517207398976727,-9,-10,-12,11,2,0,-1,4
1517207398991737,27,69,8,-3,-6,-4,0,-4
1517207398991737,-16,-11,-5,-16,0,-1,-2,-11
1517207398993239,14,-16,0,-8,-2,-2,-3,4
1517207398993239,1,2,6,-3,-6,-6,2,20
1517207399014253,27,10,72,5,2,0,1,-8
1517207399014253,-10,-5,-56,1,1,0,-4,-5
1517207399015754,4,-25,1,4,-2,0,4,-7
1517207399015754,11,-16,31,-4,-2,-2,-3,6
1517207399036769,3,44,-4,0,-1,-2,9,16
1517207399036769,11,-37,2,2,-4,-4,-14,14
1517207399038271,5,25,-17,-12,-3,-5,-13,-61
1517207399038271,21,-14,4,8,3,4,11,21
1517207399051783,-17,-4,2,-13,-7,-3,-9,-1
1517207399051783,9,47,50,18,6,4,5,-1
1517207399053284,1,-3,-12,-10,-8,-6,-1,5
1517207399053284,-21,-29,-13,-22,-10,-6,-11,-9
1517207399074296,28,9,-13,7,1,1,10,13
1517207399074296,-1,-8,-2,0,-1,-4,-4,-1
1517207399075797,-11,12,37,5,4,1,9,19
1517207399075797,-6,-10,-47,-3,-1,2,0,-11
1517207399096828,-17,-2,56,4,1,-2,-8,0
1517207399096828,-10,-9,-3,5,0,0,-1,-13
1517207399098313,-1,13,23,6,4,3,8,17
1517207399098313,14,50,-17,-5,-7,-8,-13,-10
1517207399111843,-26,-12,-35,-3,2,1,3,-4
1517207399111843,-11,-54,-4,0,1,1,-1,0
1517207399113344,-14,7,-40,-6,-3,0,3,2
1517207399113344,-9,14,24,-2,0,0,1,-4
1517207399134360,29,-34,-55,3,1,0,-2,-12
1517207399134360,-12,3,-10,-9,-6,-3,0,-3
1517207399135862,11,-2,1,-7,-1,1,4,23
1517207399135862,-16,18,4,8,0,-3,-10,-28
1517207399156896,-2,-47,-17,0,-2,-2,2,10
1517207399156896,-14,7,-27,-3,-1,0,-3,-21
1517207399158376,6,10,-20,-5,-4,-2,-2,-4
1517207399158376,8,19,26,0,4,3,7,29
1517207399171886,18,-9,28,3,-1,1,-1,2
1517207399171886,-25,11,-32,-16,-3,-1,-1,-16
1517207399173387,5,-2,-5,-3,-2,0,1,-4
1517207399173387,-5,-14,-13,5,4,3,8,8
1517207399194405,2,3,34,-4,-4,-1,-5,-7
1517207399194405,-12,-33,-14,-5,-2,-3,0,15
1517207399195903,19,10,-13,14,3,0,-4,-25
1517207399195903,-8,15,30,12,2,1,-3,-1
1517207399216918,-1,-8,-70,-15,-6,-2,14,47
1517207399216918,31,-13,13,-10,1,-4,-21,-51
1517207399218420,-9,9,1,2,-3,-3,-1,-2
1517207399218420,0,-11,6,-10,-5,-4,-2,0
1517207399230945,-1,24,23,17,6,1,-5,-7
1517207399230945,-9,41,14,8,-4,0,5,15
1517207399237932,-20,-46,-14,-29,-2,-5,-8,-12
1517207399237932,34,-8,1,8,-1,-3,0,4
1517207399254572,-16,20,3,-11,-2,2,0,-4
1517207399254572,4,-33,-43,-7,-7,-5,-2,8
1517207399256092,1,-3,16,11,2,1,-2,-19
1517207399256092,-4,7,33,5,1,0,4,19
1517207399277089,-5,17,-52,-24,-10,-4,-2,-16
1517207399277089,11,-8,30,20,7,2,2,8
1517207399278619,-12,12,-30,6,0,-2,-2,5
1517207399278619,-5,-47,-8,-24,-2,-1,-4,-11
1517207399291110,8,30,10,7,1,1,4,-3
1517207399291110,-27,-9,33,-5,-2,-1,-1,0
1517207399298105,14,4,-22,7,-1,-1,0,2
1517207399298105,-24,-17,-47,-5,-6,-4,-4,4
1517207399314616,9,16,42,9,5,2,2,-8
1517207399314616,-16,11,-19,-14,-6,-4,0,12
1517207399316117,1,-5,31,17,4,3,0,-2
1517207399316117,-1,2,-16,-5,-4,-5,0,2
1517207399337133,6,32,38,-3,-3,-2,-14,-17
1517207399337133,-13,-8,-34,-2,-2,2,3,14
1517207399338633,6,51,40,20,3,1,-4,-9
1517207399338633,0,13,24,-16,-2,-2,7,7
1517207399351205,-13,-26,-7,3,-1,-5,-8,1
1517207399351205,17,-24,-27,2,0,-3,-2,-5
1517207399358216,0,-12,-1,-16,-4,-5,-2,1
1517207399358216,-3,13,32,17,6,3,1,-4
1517207399374267,-10,-10,-12,14,4,1,9,24
1517207399374267,26,36,-4,-14,-1,1,-11,-27
1517207399375758,-29,-40,7,-1,0,1,6,20
1517207399375758,8,-1,-6,3,0,1,-4,-14
1517207399396811,-6,-10,-9,-2,-2,-2,-5,-12
1517207399396811,-16,6,-19,9,1,0,2,10
1517207399398274,18,27,49,-10,-2,2,0,9
1517207399398274,-7,-8,-11,-17,-1,0,-9,-19
1517207399411286,-3,10,41,1,-2,-4,3,3
1517207399411286,15,23,11,-6,-2,0,-7,-3
1517207399418289,-12,3,8,2,-1,-4,-7,-5
1517207399418289,-9,-24,-44,15,4,0,1,3
1517207399434305,0,-13,2,-20,-4,-2,0,-5
1517207399434305,6,-13,-7,13,-7,-5,0,9
1517207399435804,-10,14,6,-36,-3,1,-2,-5
1517207399435804,-11,-13,-10,5,1,3,2,-1
1517207399464374,-42,17,0,25,1,-3,-1,3
1517207399464374,7,-36,-44,-26,-2,2,7,12
1517207399465873,-23,10,22,8,2,-3,-3,-13
1517207399465873,16,-35,-34,23,-3,0,10,10
1517207399470880,35,23,24,-23,-1,0,-12,-5
1517207399470880,-20,-7,18,9,1,-2,-1,-9
1517207399477880,9,8,-17,4,-1,1,3,9
1517207399477880,4,30,-12,-17,-4,-6,-4,10
1517207399494385,-24,-72,-35,16,0,0,9,20
1517207399494385,3,8,38,-8,5,2,-3,-19
1517207399495884,8,-7,-16,-3,-8,-7,-6,8
1517207399495884,26,23,5,-5,-2,-1,-2,-7
1517207399516911,-6,-42,-13,12,-1,-2,-5,-5
1517207399516911,-1,6,-39,-24,-6,-5,2,18
1517207399518399,8,-39,-16,11,4,-1,-3,-16
1517207399518399,-12,4,12,2,1,-2,-4,-2
1517207399530911,-1,8,21,-15,-4,-2,-3,-14
1517207399530911,32,8,13,0,4,5,18,44
1517207399537932,-19,-25,-70,-22,-8,-8,-15,-45
1517207399537932,0,9,10,9,2,-1,-12,-1
1517207399554425,-15,-6,-4,-5,3,2,5,-10
1517207399554425,-21,12,-21,18,-4,-3,-3,-13
1517207399555926,7,29,-2,-6,3,4,10,31
1517207399555926,-8,-31,61,15,2,-3,2,10
1517207399576944,3,4,-48,-43,-3,3,2,4
1517207399576944,-6,2,45,22,1,-2,-1,-15
1517207399578443,-4,-19,26,6,0,-1,-5,-7
1517207399578443,-10,13,-6,7,2,-1,3,3
1517207399590460,21,-20,7,1,2,0,-1,-3
1517207399590460,4,4,17,-4,-2,1,2,-3
1517207399599457,13,-8,1,-5,-1,-1,1,5
1517207399599457,-8,4,24,10,0,-1,-1,1
1517207399614467,-3,33,24,1,-6,0,6,5
1517207399614467,-13,-41,-44,-18,1,0,-12,-5
1517207399615970,-1,27,31,13,0,0,7,9
1517207399615970,1,-3,-8,-1,2,2,-3,-6
1517207399636984,17,22,16,10,0,-4,-3,-2
1517207399636984,-2,6,31,-14,-4,-1,1,-12
1517207399638485,-2,29,17,10,6,3,7,9
1517207399638485,-13,-32,-98,-19,-7,-3,-1,-6
1517207399650556,2,23,18,-2,-2,-2,-4,-10
1517207399650556,13,19,40,12,-1,-3,2,9
1517207399659572,17,-55,-35,-8,-4,-2,-5,1
1517207399659572,17,23,11,-3,1,1,4,-5
1517207399674568,-21,-7,-1,0,-1,-1,-3,-1
1517207399674568,21,-11,-33,-4,-1,-1,-1,-4
1517207399676068,12,3,9,-10,-3,-2,-4,2
1517207399676068,8,60,39,0,0,-2,-2,-3
1517207399697082,-15,-48,-32,5,-3,-4,-9,5
1517207399697082,-8,2,23,-9,-3,-2,-5,-7
1517207399698598,5,7,11,12,-1,-2,1,5
1517207399698598,-3,-5,4,-22,-7,-5,-5,-8
1517207399710595,-17,10,25,1,1,-1,3,-7
1517207399710595,2,-9,5,30,8,2,-1,2
1517207399719598,-2,-5,-10,0,-6,-3,-7,-5
1517207399719598,-3,30,16,-12,-5,-2,0,-9
1517207399734110,4,21,-3,13,3,3,6,8
1517207399734110,-4,-32,17,-8,-2,-4,-3,0
1517207399740614,-40,-25,-26,13,0,-1,-5,-8
1517207399740614,0,-5,-16,0,3,4,3,3
1517207399757125,21,8,7,-8,-3,-1,0,-6
1517207399757125,-23,9,5,19,6,1,1,1
1517207399758641,1,4,-26,-9,-3,2,2,3
1517207399758641,13,3,14,-16,0,2,4,15
1517207399770636,-9,-21,-10,26,8,2,1,-1
1517207399770636,-11,15,-4,-45,-11,-7,-7,-14
1517207399779641,-9,24,39,-1,-2,-6,-4,-5
1517207399779641,-5,-55,-60,29,2,-2,-1,-14
1517207399794184,9,12,49,-23,-5,-2,-6,-7
1517207399794184,-3,47,-12,-3,-4,0,7,17
1517207399796184,54,-7,-16,2,4,0,-5,-1
1517207399796184,-52,-12,10,9,-4,-3,-1,6
1517207399824247,-1,0,-37,-3,1,-1,-7,-29
1517207399824247,9,2,25,13,0,0,2,-3
1517207399826222,-26,-3,-10,-14,-1,1,8,9
1517207399826222,9,7,6,26,5,-1,-18,-16
1517207399830718,29,30,16,-22,-6,-1,4,13
1517207399830718,2,8,-1,4,-1,-4,-1,8
1517207399839716,-3,-33,-13,-8,-1,-1,-2,-11
1517207399839716,-22,-27,-7,6,-2,-3,2,3
1517207399854242,-3,32,12,-6,-3,-2,0,-5
1517207399854242,19,1,-27,-2,2,3,-4,-9
1517207399856227,5,19,25,22,3,2,4,12
1517207399856227,2,-26,-12,-32,-7,-1,-6,-31
1517207399875742,12,-11,-30,3,-2,-1,2,11
1517207399875742,-8,-7,16,7,2,-1,8,22
1517207399884749,0,19,-9,2,2,-1,-9,-40
1517207399884749,-5,-2,-27,-32,-9,-4,0,4
1517207399890761,-2,-18,-9,21,5,-1,-5,7
1517207399890761,-18,-15,-13,7,0,0,-3,-11
1517207399899757,-11,-14,-21,-16,-1,0,1,13
1517207399899757,15,-34,14,1,-3,-3,-1,-3
1517207399914281,-1,24,14,8,0,-1,-3,-10
1517207399914281,2,-30,-34,-10,-5,-3,-1,5
1517207399915781,-2,28,31,0,3,0,-6,-9
1517207399915781,17,-36,-23,4,-3,0,1,4
1517207399936785,4,-29,-39,-30,-4,-2,2,11
1517207399936785,-31,28,58,4,-2,-3,-7,-10
1517207399938286,-10,-20,-27,-10,-7,-3,-4,-11
1517207399938286,-1,44,24,18,8,3,1,4
1517207399950296,-26,-27,-11,0,-3,-1,3,4
1517207399950296,33,14,36,1,3,0,-2,-8
1517207399959300,-7,-42,-26,-1,-4,-4,-3,-10
1517207399959300,-4,21,0,10,3,1,2,9
1517207399974321,-12,-11,-15,12,1,-4,-3,-8
1517207399974321,-16,21,-11,-25,-11,-3,5,5
1517207399975817,-18,-19,11,4,1,1,4,13
1517207399975817,23,40,17,1,0,2,2,1
1517207399996841,2,0,-24,14,7,5,2,7
1517207399996841,-7,-11,-27,-9,-2,-3,-6,-9
1517207399998327,-2,0,-20,-15,-7,-4,-2,1
1517207399998327,3,25,36,4,4,-1,0,7
1517207400019356,60,7,15,-3,-4,-3,-8,-14
1517207400019356,-12,-50,-37,14,-2,-5,-2,-4
1517207400020845,15,8,-20,-14,-1,0,-7,2
1517207400020845,-3,33,34,-8,-4,-3,2,-17
1517207400033854,-4,-11,14,4,-4,-2,-4,3
1517207400033854,5,-3,-27,14,4,2,-3,1
1517207400040364,3,4,32,-15,-4,-2,1,-4
1517207400040364,-2,-64,5,-5,-1,1,3,8
1517207400056869,-8,10,-5,-3,-1,-3,-5,-7
1517207400056869,5,-1,15,14,3,0,0,-2
1517207400058384,16,17,19,3,0,-1,3,8
1517207400058384,7,4,-26,7,1,1,-2,-1
1517207400079407,-24,3,12,-12,-3,-1,2,9
1517207400079407,17,6,-15,-11,-2,-1,-2,-12
1517207400080909,0,33,23,13,2,-2,-1,3
1517207400080909,-28,-62,-32,-6,-3,-3,-6,-6
1517207400094899,5,-15,-11,1,0,1,1,-4
1517207400094899,20,53,41,-4,0,0,6,9
1517207400100403,9,5,5,21,2,-2,5,36
1517207400100403,16,3,-39,-31,-8,-5,-13,-64
1517207400116924,-14,0,10,4,0,1,4,12
1517207400116924,-19,-15,22,20,5,2,-3,1
1517207400118415,7,-32,-70,-33,-16,-6,-3,-11
1517207400118415,14,44,21,10,4,1,2,13
1517207400139428,5,-2,-9,13,2,-1,-4,3
1517207400139428,1,5,-3,-26,-2,3,4,0
1517207400140929,14,32,67,28,5,2,-1,2
1517207400140929,-16,-17,-36,-25,-6,-1,8,12
1517207400153938,-7,19,17,10,4,-1,-12,-6
1517207400153938,-1,-2,-36,-14,-15,-8,-8,1
1517207400160445,-10,-36,-43,-14,-2,0,3,1
1517207400160445,2,2,8,0,-1,-2,-4,5
1517207400176963,-16,3,-8,5,-2,-3,-2,-20
1517207400176963,17,13,21,11,5,1,1,21
1517207400178464,-83,-29,2,-9,-2,0,1,-19
1517207400178464,-4,-13,-29,4,0,0,-10,-28
1517207400199479,-5,23,-13,-16,-6,-3,0,5
1517207400199479,1,-23,-6,25,8,2,1,-3
1517207400200971,-2,-56,-25,6,-1,-1,-2,-8
1517207400200971,-1,15,61,-29,-6,-3,4,20
1517207400213489,-6,-17,-57,8,1,2,8,5
1517207400213489,-52,-18,-15,-4,-1,-4,-11,-23
1517207400220535,4,28,-4,-32,-3,3,0,1
1517207400220535,3,17,14,26,5,0,1,19
1517207400237006,24,-2,6,-10,-5,-3,0,6
1517207400237006,17,-2,21,-5,2,5,5,-2
1517207400238497,-29,8,-18,22,-1,-4,-5,-7
1517207400238497,3,-4,-6,0,2,3,6,15
1517207400259512,2,11,6,-10,-2,-1,1,-5
1517207400259512,-23,-18,-16,0,-5,-5,-4,7
1517207400261028,14,17,12,14,4,1,-2,-32
1517207400261028,19,-17,-22,4,-1,-1,3,1
1517207400273523,-48,21,37,-1,-1,-3,-14,-1
1517207400273523,35,11,8,-11,-2,-2,0,-14
1517207400280526,11,-32,12,1,0,-2,2,28
1517207400280526,-20,23,1,-11,-3,-3,-6,-13
1517207400297119,12,-21,16,29,6,3,4,-3
1517207400297119,3,24,29,-22,-10,-3,-3,3
1517207400299112,29,-2,-22,3,2,1,-5,2
1517207400299112,-10,12,17,-4,-1,0,1,9
1517207400319613,13,2,0,4,0,1,-2,-2
1517207400319613,-2,-25,-35,11,2,-1,0,-3
1517207400320613,8,5,1,5,-2,-1,4,4
1517207400320613,-18,-21,-67,-18,-7,-6,-5,13
1517207400333633,3,-20,-10,-2,-1,0,-10,-27
1517207400333633,-8,20,-14,13,1,1,6,-1
1517207400340627,37,-22,17,-14,-2,0,6,10
1517207400340627,10,20,32,24,4,1,1,7
1517207400356639,4,13,-37,-24,-2,-1,5,7
1517207400356639,-1,-5,-5,9,1,-3,-3,-11
1517207400358140,7,55,66,33,6,4,1,-1
1517207400358140,4,-45,-57,-34,-10,-7,-8,-6
1517207400379664,-8,13,23,-24,-1,3,6,7
1517207400379664,-18,-29,-18,5,2,-1,3,10
1517207400381180,-19,5,3,-2,-5,-5,-9,-23
1517207400381180,6,0,9,-12,-6,-4,-1,-1
1517207400393680,-37,10,19,1,1,-2,-3,-10
1517207400393680,-19,-7,22,0,0,0,2,-4
1517207400400671,-22,-15,-19,1,2,-1,-12,0
1517207400400671,2,12,9,12,-1,1,8,12
1517207400416682,21,-55,-71,-1,0,-1,-6,-5
1517207400416682,-4,8,22,-1,-2,-3,-2,2
1517207400418692,18,-7,12,7,3,1,3,4
1517207400418692,-13,-16,1,-20,-4,-2,-4,-1
1517207400439196,31,14,29,21,2,1,5,3
1517207400439196,-5,-25,-9,-14,-3,-4,-8,11
1517207400440698,-6,-1,24,4,2,3,-2,-3
1517207400440698,-9,11,14,4,-3,-1,-4,-10
1517207400453232,-39,-18,-50,-11,-8,-7,-5,-7
1517207400453232,29,6,25,15,5,2,1,8
1517207400461737,-26,19,-11,-18,-9,-3,4,-7
1517207400461737,21,11,39,29,11,4,2,0
1517207400476749,16,5,11,0,1,-1,0,-2
1517207400476749,-3,-1,17,-1,-2,2,2,9
1517207400478271,-13,2,-50,-3,0,-1,6,7
1517207400478271,2,3,2,6,0,0,2,0
1517207400499267,-5,-7,14,-2,-2,-1,-7,1
1517207400499267,6,9,1,-3,0,0,-2,-6
1517207400500765,15,-25,-14,-16,-7,-5,-7,-21
1517207400500765,3,-1,9,13,8,2,0,1
1517207400512783,-27,-13,-21,-5,-3,-4,-1,10
1517207400512783,14,11,-31,-1,-2,0,-3,-21
1517207400521780,5,11,-15,-1,6,2,0,9
1517207400521780,-12,-36,2,-3,-8,-4,-6,-8
1517207400536790,8,22,4,-9,4,4,10,14
1517207400536790,-14,6,-2,-18,-10,-5,-16,-11
1517207400538292,35,-19,-9,7,2,-2,-4,5
1517207400538292,9,-3,-9,13,0,-5,-3,-7
1517207400559354,14,-19,9,-25,-5,0,5,5
1517207400559354,-13,-41,-75,-8,-4,-2,-4,22
1517207400560852,0,6,16,-4,-3,-3,-2,-14
1517207400560852,-24,12,10,17,5,0,10,39
1517207400572860,-3,-39,-71,-26,-11,-7,-18,-41
1517207400572860,6,-2,17,2,0,-1,2,1
1517207400581890,-9,24,48,12,0,1,-3,-9
1517207400581890,-6,-9,-57,-17,-6,0,-1,2
1517207400604392,15,31,58,39,5,-1,5,14
1517207400604392,-6,-53,-33,-11,-3,-5,-2,-14
1517207400605886,-12,-13,3,-29,-8,-3,-3,0
1517207400605886,12,-19,-30,18,5,-1,3,-6
1517207400619403,-28,-14,-4,-14,-4,0,2,2
1517207400619403,15,25,32,-5,-4,-5,-3,-10
1517207400620925,-1,-7,-52,-2,-6,-3,6,35
1517207400620925,-12,35,5,-5,0,-2,-17,-56
1517207400632918,-11,30,20,12,0,-4,-2,3
1517207400632918,-24,-1,13,12,7,4,7,6
1517207400641910,3,14,51,8,3,1,0,2
1517207400641910,1,-15,-38,-17,-4,-1,-1,10
1517207400656920,8,-2,10,-17,-1,-2,1,7
1517207400656920,-10,-8,-2,13,2,2,0,-23
1517207400658421,11,19,45,15,0,-2,2,17
1517207400658421,-1,-7,-7,0,0,4,1,5
1517207400679439,10,11,16,5,0,-1,0,-6
1517207400679439,17,16,-20,-1,-1,1,6,22
1517207400680937,-17,-3,-9,8,1,-1,-2,-23
1517207400680937,8,4,35,-21,-6,-2,-3,-4
1517207400692945,-56,2,-5,-3,-3,-2,-3,-4
1517207400692945,-12,23,12,-4,1,-2,-3,2
1517207400701955,-4,1,-1,17,6,5,5,2
1517207400701955,2,15,-3,-19,-7,-3,-11,-4
1517207400716966,23,12,27,4,-1,1,-1,6
1517207400716966,-3,11,2,9,0,2,3,5
1517207400718466,-9,6,25,-2,-1,-1,-7,-35
1517207400718466,8,12,-6,-18,-6,-2,6,21
1517207400739032,0,-5,-14,3,1,2,0,-9
1517207400739032,2,10,0,-10,-6,-5,-4,1
1517207400741021,3,-14,-19,10,-3,-3,-3,-8
1517207400741021,-3,12,-1,-3,0,-1,-1,4
1517207400753090,-1,-10,5,8,-1,-3,-4,-5
1517207400753090,30,-7,36,-2,-1,-2,1,3
1517207400762106,10,22,-34,-16,-3,-2,-2,7
1517207400762106,-4,-29,20,10,4,3,0,-8
1517207400776616,10,16,-1,-2,-2,0,4,16
1517207400776616,-27,-32,-47,-2,-1,-4,-7,-17
1517207400778118,8,11,5,-7,0,1,7,15
1517207400778118,-4,5,25,4,-2,-2,-8,8
1517207400799147,23,6,9,13,5,1,2,-6
1517207400799147,-2,-3,-7,-7,-3,-3,-3,-1
1517207400801124,-18,-11,-19,-8,-4,-5,-10,-7
1517207400801124,-8,13,17,5,0,0,7,8
1517207400812632,-3,9,-11,-11,-4,-4,-3,-6
1517207400812632,-4,-22,-21,4,0,0,-1,-1
1517207400822141,-20,-8,4,-12,-1,-1,0,0
1517207400822141,20,-13,-8,2,-3,-4,-4,-6
1517207400836659,-12,-24,11,16,2,0,-2,0
1517207400836659,26,21,3,-15,-1,0,10,27
1517207400838152,-20,-25,-47,-1,-6,-5,-21,-49
1517207400838152,-11,11,2,2,3,0,2,-8
1517207400859168,0,-10,-6,-3,1,3,3,-5
1517207400859168,5,-8,29,-12,-4,-1,4,8
1517207400860666,17,-5,-42,1,0,-1,6,10
1517207400860666,-14,-30,5,23,3,-1,1,-2
1517207400873181,1,9,-18,-30,-3,-5,-5,-4
1517207400873181,-12,-1,31,8,-1,2,1,-4
1517207400882233,8,20,11,-2,1,2,16,14
1517207400882233,-3,13,22,14,4,5,-2,17
1517207400896714,11,-3,-2,-13,-4,-8,6,-15
1517207400896714,1,20,6,6,0,-1,-20,-26
1517207400898193,1,-19,5,-13,-4,-2,-8,13
1517207400898193,9,7,9,1,-1,-2,-6,-23
1517207400919207,-22,-16,-23,3,2,1,9,34
1517207400919207,-2,-8,3,-10,-3,0,3,-7
1517207400920711,27,-28,20,11,2,-1,7,9
1517207400920711,-9,14,-4,0,1,0,5,-3
1517207400941727,3,-29,-6,1,-6,-4,11,53
1517207400941727,-4,12,-43,-10,-3,-2,-26,-63
1517207400943225,-29,-12,0,-1,1,-2,-12,-5
1517207400943225,-11,-26,-45,-8,-5,-3,2,-1
1517207400956734,16,17,32,9,4,0,-2,2
1517207400956734,-14,15,27,14,4,2,6,6
1517207400958235,-4,-23,2,-1,-2,-1,-1,2
1517207400958235,-4,-22,-77,-34,-14,-9,-5,-9
1517207400979262,2,4,-9,19,5,2,-8,-15
1517207400979262,1,8,41,0,-1,-2,4,10
1517207400981250,-7,-7,-23,-5,0,0,-6,-11
1517207400981250,-1,2,7,6,1,1,4,6
1517207401001767,13,-48,-4,-7,-5,-2,-6,-9
1517207401001767,0,-1,-36,7,1,0,2,4
1517207401003268,8,22,-3,-1,-2,-2,1,8
1517207401003268,1,1,4,-21,-6,-2,-4,3
1517207401016780,17,10,13,9,-1,-1,-4,-25
1517207401016780,11,29,-9,0,0,-2,2,18
1517207401018277,-21,-29,-1,-5,-5,-2,0,-4
1517207401018277,-2,-8,9,8,4,-1,3,-4
1517207401039293,-1,20,-5,0,0,1,-17,-10
1517207401039293,-12,3,-9,6,0,2,9,10
1517207401040793,6,10,14,-18,-2,0,-4,1
1517207401040793,3,-5,10,0,-5,-4,-7,-9
1517207401061808,-32,0,11,0,0,1,2,2
1517207401061808,8,-4,2,0,-1,-2,2,-4
1517207401063309,-1,18,4,2,-1,-1,-1,-1
1517207401063309,-4,-30,0,2,1,-1,0,-2
1517207401077320,0,21,15,15,0,-1,-3,-7
1517207401077320,-4,-20,-33,-21,-1,0,-2,-9
1517207401078852,3,1,4,-8,1,0,2,2
1517207401078852,3,10,-2,5,1,0,-2,1
1517207401099349,-8,-20,8,-5,-3,-2,2,-4
1517207401099349,0,-3,4,8,-1,0,-1,4
1517207401100837,2,15,-9,0,-4,0,-1,-2
1517207401100837,3,11,0,2,1,0,-1,-2
1517207401129380,2,-1,-2,-7,-1,2,2,5
1517207401129380,0,5,14,3,0,0,-2,0
1517207401131357,-2,-2,-4,0,-1,-3,-1,-2
1517207401131357,-4,2,-4,2,-1,-2,4,4
1517207401136361,-3,-3,-10,-8,-2,-4,-6,4
1517207401136361,-4,-6,6,-2,-2,-1,-6,-5
1517207401142885,-4,3,-4,1,1,1,24,8
1517207401142885,6,2,0,0,1,-2,-60,-55
1517207401159380,-1,14,-1,-10,-4,-3,1,-5
1517207401159380,-1,-5,-3,-2,-3,-5,-13,-8
1517207401160889,-3,0,22,13,-1,1,-3,16
1517207401160889,-4,2,2,-6,-2,-1,11,4
1517207401181934,1,-7,-5,21,1,1,9,5
1517207401181934,-1,0,-19,-28,-5,-3,-3,4
1517207401183401,-3,-6,-21,-2,-2,-1,1,-6
1517207401183401,0,2,13,9,2,-1,13,10
1517207401196403,1,3,-8,-7,-4,-2,-6,-6
1517207401196403,-3,-10,2,8,-1,-1,11,7
1517207401204408,2,4,5,4,1,1,-10,-8
1517207401204408,0,5,17,-7,-2,1,6,5
1517207401219420,1,-8,-21,-2,1,1,-4,-1
1517207401219420,-4,0,-1,5,0,0,-4,-3
1517207401220921,-2,0,-7,-12,-2,-2,-5,-6
1517207401220921,0,0,6,9,1,0,4,8
1517207401242435,-2,-5,0,-8,-2,0,1,-2
1517207401242435,2,2,7,0,-1,-2,3,6
1517207401243964,1,3,-4,-2,-3,-3,-5,-4
1517207401243964,0,0,-2,10,1,-2,7,8
1517207401255945,1,4,-15,-21,-3,-2,-2,-1
1517207401255945,-4,-9,-1,10,1,0,-1,-5
1517207401262950,3,-1,4,-25,-5,-1,-2,3
1517207401262950,-3,0,-7,0,-3,-1,0,0
1517207401279461,-3,-5,2,-1,0,-1,-2,-5
1517207401279461,1,-1,-3,2,-1,-1,-1,0
1517207401280985,-1,-1,-3,7,-1,-4,-2,-1
1517207401280985,-2,-5,-3,-7,0,-1,2,0
1517207401301977,2,1,-2,-1,-1,-1,-3,0
1517207401301977,-2,-2,-9,0,-2,-3,1,0
1517207401303479,-2,-1,10,6,1,-3,-1,-3
1517207401303479,-1,0,-8,-10,-5,-2,0,7
1517207401315987,-4,-2,-14,2,1,0,0,1
1517207401315987,0,0,24,5,-3,-2,-2,-1
1517207401322992,0,-2,-7,-1,1,-1,-2,-4
1517207401322992,-3,-7,-6,0,-2,-1,0,-1
1517207401339504,-1,5,7,5,-1,-3,1,-2
1517207401339504,0,-2,-11,-16,-1,2,2,2
1517207401341005,-1,0,-2,0,-2,-1,0,-2
1517207401341005,-1,-1,6,4,0,-1,0,0
1517207401361520,0,0,-2,3,-1,1,0,0
1517207401361520,-2,-6,-17,-11,-5,-3,-4,-4
1517207401363521,0,0,3,3,2,0,-1,0
1517207401363521,0,0,2,-2,-1,-1,-2,-1
1517207401376030,0,-3,-1,-2,0,-2,-1,-3
1517207401376030,0,0,0,2,0,1,0,1
1517207401383091,-3,-2,-8,-5,-1,-2,0,0
1517207401383091,1,3,11,12,-2,-2,0,-2
1517207401406567,-3,-1,-20,-10,-1,0,-1,-1
1517207401406567,2,1,-2,-1,1,-1,2,3
1517207401408558,-2,-1,-13,-8,-4,0,-1,-1
1517207401408558,-2,1,5,6,0,0,0,-3
1517207401422064,-4,-2,25,7,-3,-2,-1,2
1517207401422064,-1,-1,-6,-3,0,-1,-2,-1
1517207401423564,-3,-1,0,1,-1,-1,-2,-3
1517207401423564,1,-1,5,-4,-2,1,0,-1
1517207401435572,2,-3,-2,-2,-2,-3,-2,-4
1517207401435572,-1,0,1,2,1,1,1,-1
1517207401444594,1,1,-3,3,-1,-3,-2,0
1517207401444594,-1,-4,-5,-9,-1,-1,-1,0
1517207401459140,-2,-1,-2,-5,-3,-2,-1,-2
1517207401459140,0,-1,15,7,1,1,0,0
1517207401460629,-1,-2,-4,-1,-2,-2,-1,-1
1517207401460629,0,-1,-4,-4,0,0,1,0
1517207401481683,-2,-3,-2,-3,0,-1,-1,-2
1517207401481683,0,0,-3,-1,1,-2,-1,-3
1517207401483154,-1,-1,9,5,-1,-1,-2,-1
1517207401483154,-1,0,-6,-3,0,-2,-2,0
1517207401495653,-1,-2,-1,0,0,-1,0,-1
1517207401495653,-4,-5,0,-2,-2,-2,-3,-2
1517207401504160,0,1,1,1,-1,2,1,1
1517207401504160,0,2,-6,-3,-3,0,-1,1
1517207401519171,-2,-1,0,0,-2,-3,-3,-3
1517207401519171,0,-2,1,-1,-1,-1,-1,-1
1517207401520674,1,-2,-3,0,1,-1,-2,-2
1517207401520674,-3,1,-6,-1,-2,-1,-1,0
1517207401541696,0,-1,4,-1,-1,-1,-1,1
1517207401541696,-2,-1,0,0,-1,0,-2,-2
1517207401543195,-2,-4,-6,-5,-1,-1,-3,-2
1517207401543195,-2,-1,0,-1,0,1,-1,-1
1517207401555697,0,-3,-1,-2,-3,-3,-2,-1
1517207401555697,-2,-3,-3,0,-2,-3,0,-1
1517207401564702,-2,-1,1,-1,-2,-2,-1,1
1517207401564702,0,-2,-3,-2,-1,0,0,-1
1517207401579212,-1,0,0,0,-1,0,-1,0
1517207401579212,0,0,-1,0,-2,-1,0,-1
1517207401580714,-3,-1,-1,-1,-3,-2,0,-1
1517207401580714,-1,-3,-2,-3,-2,-1,-1,-2
1517207401601728,-1,1,1,0,-1,0,0,-1
1517207401601728,0,-2,-2,-3,-2,-2,-2,-1
1517207401603230,-1,-1,0,1,1,2,-1,0
1517207401603230,-1,-2,-3,-2,-3,-1,0,-2
1517207401615238,-1,-1,-3,0,-1,-1,0,-1
1517207401615238,-2,-1,-2,-1,0,-3,-2,0
1517207401624246,-1,0,0,0,0,1,-1,0
1517207401624246,-2,-1,-1,-2,0,-2,0,-2
1517207401639268,0,-1,0,0,-1,-1,-3,-2
1517207401639268,0,-1,-2,-2,-1,-2,0,0
1517207401640758,-2,-2,0,-2,0,1,-1,-2
1517207401640758,-2,-1,-2,0,-2,0,0,2
1517207401661771,-2,-1,-1,1,0,-2,-1,0
1517207401661771,-1,0,-2,0,-2,-2,-1,-2
1517207401663272,1,0,0,0,-1,-1,0,-2
1517207401663272,0,-4,-2,-2,0,0,0,-1
1517207401675282,-2,-2,0,-1,-1,0,-2,0
1517207401675282,-2,-1,-2,-2,-2,-2,-2,-1
1517207401684292,-1,1,0,0,-2,-1,-1,-1
1517207401684292,-1,1,-1,1,0,-1,-3,0
1517207401699315,-1,-1,-2,-2,-1,-1,0,-2
1517207401699315,-2,-1,-2,-3,-1,0,-2,-1
1517207401700799,-2,-2,-1,0,-1,-2,-2,0
1517207401700799,-3,-1,-1,-2,-1,-3,-2,2
1517207401721815,0,-3,0,-2,-1,1,-1,0
1517207401721815,-2,-1,0,0,0,-1,-1,-1
1517207401723345,0,0,-2,-2,-1,-4,-1,-1
1517207401723345,0,1,-3,0,-1,-1,-1,-2
1517207401735326,-2,-1,0,-2,1,-1,0,-3
1517207401735326,-1,-1,0,-1,-2,-1,0,-2
1517207401744330,-1,0,1,0,1,-1,-2,0
1517207401744330,0,-2,-3,-2,-1,-2,-1,-1
1517207401766845,0,-1,-1,0,-1,-1,0,0
1517207401766845,0,-1,-2,0,0,-1,0,2
1517207401768348,-1,-1,-2,-1,0,-1,-1,0
1517207401768348,-2,-1,-1,0,-2,0,-2,-3
1517207401781906,-1,-1,-1,-1,-1,0,-1,0
1517207401781906,-2,0,1,-1,-2,-1,-2,-1
1517207401783373,0,-1,-1,0,-1,0,-2,-1
1517207401783373,-1,-2,-1,-2,0,-3,0,-2
1517207401795365,-2,-1,-1,0,-2,1,-3,-2
1517207401795365,-1,-1,-2,-2,-1,-2,-2,-2
1517207401804375,-2,0,2,-1,0,-2,1,1
1517207401804375,-2,0,-1,-2,0,-1,0,-1
1517207401819394,-1,-1,-1,0,-1,-2,-1,-1
1517207401819394,-2,-1,-1,-1,-2,-2,-1,0
1517207401820885,-1,-2,-2,0,0,-2,-1,-1
1517207401820885,-1,-1,0,-1,-1,-1,-2,-1
1517207401841913,-1,-1,-3,-1,-2,-3,-2,0
1517207401841913,0,1,-1,-1,0,2,-2,-3
1517207401843400,-1,-1,-3,-2,0,-2,2,-1
1517207401843400,-1,-1,-1,0,-2,0,-2,-1
1517207401864414,-2,-2,-2,-1,-1,0,-2,-1
1517207401864414,-2,-3,-1,-1,-1,-3,-2,0
1517207401865915,0,-1,-2,0,-1,2,-1,-1
1517207401865915,-1,0,-1,-1,-2,-1,0,-1
1517207401879431,-1,0,0,-1,-1,-1,0,-1
1517207401879431,0,0,-1,-1,-2,-1,0,0
1517207401880941,0,-1,-1,-2,-1,-2,-1,0
1517207401880941,0,0,0,0,0,-1,-1,0
1517207401901940,0,1,-2,-2,1,-1,-1,-2
1517207401901940,-1,0,-1,-2,-1,-1,0,0
1517207401903443,0,-1,-3,-1,-2,-2,-1,-2
1517207401903443,0,-1,-2,-1,-1,-1,-1,0
1517207401924470,-1,0,-1,1,-1,-1,0,-1
1517207401924470,-1,-2,0,0,0,0,-1,-1
1517207401925961,-1,-1,-1,-2,-1,0,-2,-3
1517207401925961,0,-1,-1,-2,0,0,0,-1
1517207401939522,-1,-1,0,0,-2,-1,-1,0
1517207401939522,0,-1,-1,-1,-1,0,0,-2
1517207401941034,-1,-1,-1,-1,-1,0,-1,-1
1517207401941034,1,0,-2,-1,-1,-2,-2,-3
1517207401962040,1,-1,-1,-3,-2,-1,0,-2
1517207401962040,0,0,-2,-1,-1,-2,0,-1
1517207401964039,-3,0,-1,-1,0,-2,-2,-1
1517207401964039,-1,-2,-2,-1,-2,0,-1,-1
1517207401984554,-1,0,0,-1,-1,-2,-1,0
1517207401984554,0,-2,0,-2,-1,0,-1,-1
1517207401985648,-2,-2,0,-2,-2,-1,-1,-2
1517207401985648,-2,-3,0,-1,0,-1,-1,-1
1517207401999156,-1,-3,-3,0,1,1,-2,-3
1517207401999156,-1,0,-1,-1,0,0,0,-1
1517207402000656,0,-1,-1,0,-2,0,-1,-1
1517207402000656,-1,-2,-1,-1,-2,0,-1,1
1517207402021183,-1,-1,0,0,-1,-2,-3,1
1517207402021183,-2,-1,-1,-2,0,1,-2,0
1517207402021673,0,1,-2,-1,0,-1,0,-4
1517207402021673,-1,1,-1,0,0,-2,-1,0
1517207402043707,-2,0,-1,-1,0,0,-1,-1
1517207402043707,-1,-2,-2,-1,-2,1,-1,1
1517207402044194,0,-1,0,-1,0,-1,-2,0
1517207402044194,-1,-2,-1,0,-1,-1,-1,-1
1517207402057700,0,0,-1,-1,0,-1,0,0
1517207402057700,0,-2,-1,0,-2,-2,-2,-3
1517207402066202,-2,-1,-1,0,-3,-1,0,-1
1517207402066202,0,0,-2,-2,-1,-2,-1,-2
1517207402081232,-1,-2,-1,0,-2,-2,-2,-1
1517207402081232,-3,2,-2,0,-2,-2,-1,-1
1517207402081711,-1,-1,-2,-1,-2,-1,0,1
1517207402081711,-1,-1,-2,-1,-1,-1,-2,-1
1517207402103729,-1,0,0,-1,-2,-2,0,0
1517207402103729,-2,-1,-1,-1,-1,-2,-2,0
1517207402104228,-2,-2,0,-1,0,-1,0,-2
1517207402104228,-1,-2,-1,-2,-2,0,-2,-2
1517207402118738,0,-2,-2,-2,-1,-1,-1,-1
1517207402118738,1,-1,-1,-1,-1,-1,-1,1
1517207402119257,-1,-1,-3,-1,-1,-1,-1,1
1517207402119257,-1,-1,0,-3,-1,-1,-1,-2
1517207402141315,0,-2,-3,-2,-1,0,-1,-1
1517207402141315,0,-2,-1,-1,-2,-2,-1,-1
1517207402141804,-2,-2,-2,0,0,-1,-1,-1
1517207402141804,-1,0,-3,0,0,-2,0,-2
1517207402163809,-3,-1,-1,-2,-3,0,-1,0
1517207402163809,-3,-2,1,-2,0,-1,0,-2
1517207402164309,-2,0,0,-3,0,-1,0,1
1517207402164309,0,-1,0,0,-1,-1,-1,0
1517207402178834,-1,-2,-1,0,0,-1,0,0
1517207402178834,0,0,-1,-1,0,-1,-2,-1
1517207402179320,0,0,-1,-1,-3,-1,-2,0
1517207402179320,-2,-2,-2,-1,-1,-1,0,0
1517207402201341,-1,-1,-1,-1,-1,2,-2,-2
1517207402201341,-3,-3,-3,-1,0,-1,-1,-1
1517207402201838,0,0,0,1,0,-3,-1,-3
1517207402201838,-2,-1,0,-2,-2,-2,-2,-1
1517207402223351,-1,-1,0,-1,0,-1,-1,-3
1517207402223351,0,-2,-2,1,-1,-1,-1,-2
1517207402224360,-1,-1,-2,-2,0,0,-2,-2
1517207402224360,-1,-2,-2,-3,-1,-2,-1,1
1517207402238862,0,0,0,0,-2,-2,1,0
1517207402238862,0,-1,-2,-2,-1,-1,0,-2
1517207402239363,0,-1,-1,-1,-3,-3,-1,-1
1517207402239363,-1,-1,-1,-1,0,-2,0,-3
1517207402260892,-1,-1,-3,0,-1,-1,-3,-1
1517207402260892,-1,-1,-1,-2,-2,-1,-3,-2
1517207402261878,0,-1,-2,0,-2,-2,-2,-1
1517207402261878,-1,-1,0,0,-1,1,-2,0
1517207402283895,-1,-1,-2,0,0,-2,-3,-2
1517207402283895,0,0,-2,-1,-1,-1,0,0
1517207402284396,-2,-2,0,-1,-1,-1,-1,-1
1517207402284396,-1,0,-2,-1,-1,0,-2,-1
1517207402298407,-1,-2,-1,-2,-1,0,1,-1
1517207402298407,-1,-1,0,0,0,-2,0,-1
1517207402299405,-1,-1,-1,-1,-1,-1,-1,-1
1517207402299405,-2,-1,-1,0,-2,-2,1,-2
1517207402320920,-2,-1,-1,-1,-1,-2,0,-3
1517207402320920,-2,-2,-2,-3,-1,0,-1,-1
1517207402321931,-1,-1,-2,-1,0,-1,0,0
1517207402321931,-3,-2,-3,0,-2,-2,0,-1
1517207402343455,-1,-1,0,0,-1,-1,-3,0
1517207402343455,-3,0,-2,-2,-2,-1,-2,-2
1517207402344460,0,0,-2,0,0,0,-1,-2
1517207402344460,0,-3,-1,-2,-1,-1,-1,-1
1517207402358492,-1,-1,-1,-4,0,0,0,-1
1517207402358492,-1,0,0,0,-1,-2,-3,-3
1517207402359483,-1,0,-1,-1,-1,1,-1,-1
1517207402359483,1,0,-2,-1,1,-1,-2,-1
1517207402381009,0,0,0,0,-2,0,-2,0
1517207402381009,0,-2,-1,-1,-2,-1,1,-1
1517207402382007,0,-1,-1,-1,-1,-2,-1,-3
1517207402382007,-1,-2,0,-2,-1,-2,-1,0
1517207402404003,-1,-2,-3,0,-2,-2,-2,-2
1517207402404003,-1,-1,1,-1,0,-1,-1,0
1517207402404517,1,-1,0,-1,-2,-1,0,-1
1517207402404517,-1,-1,0,0,0,1,-2,-1
1517207402418513,-1,-2,-1,0,-1,2,-3,-2
1517207402418513,-1,-1,0,0,0,-1,0,0
1517207402419514,-1,-2,-1,-3,-1,1,-1,0
1517207402419514,-2,-1,-1,-2,-1,-3,-1,-2
1517207402441030,-1,-1,0,-2,-1,-1,0,0
1517207402441030,0,1,-1,0,-2,-2,-1,-2
1517207402442042,-1,0,0,-2,-1,-2,-3,-1
1517207402442042,-1,0,-2,-2,-2,0,1,-1
1517207402463544,-2,-1,-1,0,-1,-2,-1,0
1517207402463544,-3,-1,-2,0,0,-2,-1,0
1517207402464545,0,-3,-2,-1,-1,-1,0,-1
1517207402464545,0,-1,1,0,-2,1,-3,-3
1517207402478069,0,0,0,-1,-2,-3,0,0
1517207402478069,0,-1,-4,-3,-2,-2,-2,0
1517207402486061,-2,-2,0,-2,-1,-3,-3,0
1517207402486061,-2,0,-2,-1,-1,-1,0,-2
1517207402501072,0,-1,0,-1,-1,-1,0,-1
1517207402501072,-1,0,0,-1,-1,-1,-2,-1
1517207402501572,0,-1,-1,-1,0,-1,-2,0
1517207402501572,-2,0,-1,-1,0,-1,-1,-2
1517207402523597,-1,-3,-1,-3,1,-1,-1,-2
1517207402523597,-1,-1,-1,-2,-1,-2,-1,0
1517207402524087,-1,-2,-1,-1,-1,-1,0,-1
1517207402524087,0,-2,-2,-2,-1,-1,-1,-1
1517207402538099,0,1,-3,1,0,0,0,-1
1517207402538099,-1,-1,0,0,-1,0,-1,-1
1517207402546104,-1,0,-1,-2,-2,0,-1,0
1517207402546104,-1,-2,0,0,-1,-2,-1,0
1517207402561117,0,1,0,-3,-3,-2,-3,0
1517207402561117,-2,-1,-1,-1,-1,-1,-2,0
1517207402561613,-1,-1,-2,-1,0,0,0,-2
1517207402561613,-1,-2,-1,-3,0,1,-2,0
1517207402583642,0,1,0,-2,-2,-2,0,-1
1517207402583642,-1,-2,0,0,-1,0,-1,-1
1517207402584130,-3,-3,-1,0,-1,0,0,-1
1517207402584130,-1,-1,-1,-2,-2,-2,-2,1
1517207402598140,0,-3,-1,-4,-1,0,-2,0
1517207402598140,0,-1,-2,-1,-1,-1,0,-1
1517207402606145,0,-1,0,0,-2,-1,0,-1
1517207402606145,-1,-2,1,-1,-1,-1,-1,-3
1517207402621660,-3,-2,-1,0,0,0,-2,-1
1517207402621660,1,-1,0,0,-1,-1,-2,-2
1517207402621660,0,1,-3,-1,-2,0,-3,-2
1517207402621660,-2,0,-1,0,-1,-1,0,-2
1517207402643687,-1,0,-2,-1,-1,-2,-1,0
1517207402643687,-2,-1,-2,-2,-1,0,1,0
1517207402644172,0,-3,-2,-1,-1,-2,-2,0
1517207402644172,-2,-2,-1,-1,-1,-1,-1,0
1517207402657709,-1,-1,0,0,0,-1,-1,-2
1517207402657709,-2,-1,0,-2,-1,-1,0,-3
1517207402666188,-2,0,1,-1,-2,-1,0,-3
1517207402666188,1,-1,0,-2,-1,-1,0,-2
1517207402681213,-1,-1,-1,-2,-1,0,-2,-2
1517207402681213,1,0,-2,-2,-1,-2,-1,-3
1517207402681699,-2,-2,-1,-2,0,-1,-2,0
1517207402681699,-1,0,-1,1,-2,-1,-1,-2
1517207402703717,-2,0,0,-1,-1,0,0,1
1517207402703717,-2,0,0,-3,-2,0,-1,0
1517207402704240,-1,-1,0,-1,-1,-2,1,0
1517207402704240,0,-2,-2,0,-1,0,-1,0
1517207402717734,-1,-2,-2,-2,0,-1,-1,-1
1517207402717734,0,-2,-2,0,-2,1,-1,-1
1517207402726245,-1,-1,-1,-1,-1,-1,0,-2
1517207402726245,-2,-1,0,-1,-2,-1,-1,0
1517207402741241,0,-1,0,0,-1,-2,-1,-3
1517207402741241,-2,0,0,0,-2,-2,-1,0
1517207402741754,-1,0,-2,-1,0,0,-1,-1
1517207402741754,-1,-2,-2,-1,-2,-1,0,1
1517207402763256,-1,0,-2,-2,-2,-1,-1,0
1517207402763256,-2,0,0,-1,-1,-3,-2,0
1517207402764257,0,-2,-3,-2,-1,0,0,-1
1517207402764257,-1,-1,-2,-2,-1,-1,-2,-1
1517207402777768,-1,-2,-1,1,-1,-2,-2,-1
1517207402777768,-2,-1,-1,-1,-1,-1,-1,-1
1517207402786274,-2,-2,0,0,0,-2,0,-2
1517207402786274,3,0,0,-2,-1,-2,-2,-3
1517207402801284,1,1,-1,-2,-1,-1,0,0
1517207402801284,-1,-1,-1,-1,0,-1,0,-2
1517207402801785,-1,0,-2,-1,-1,-2,-2,-2
1517207402801785,-2,-1,0,1,-2,-2,0,-1
1517207402823335,-1,-3,1,-2,-3,1,0,-1
1517207402823335,-2,-2,-1,-2,0,-3,-1,0
1517207402824335,-1,0,-1,-1,-3,-1,-1,-1
1517207402824335,-2,0,-1,-1,0,-2,-1,-1
1517207402845875,-1,-2,-3,0,0,0,-1,-1
1517207402845875,-1,-1,0,0,-2,-1,-1,-2
1517207402853879,-1,1,2,-2,-1,-1,0,-1
1517207402853879,-1,0,-1,0,-1,0,-1,-1
1517207402860864,-1,-1,-2,0,0,-1,-2,-2
1517207402860864,0,-3,-2,1,-1,0,0,-1
1517207402861862,0,-1,-3,0,0,-1,-1,-1
1517207402861862,0,1,-3,-1,-1,-2,0,-1
1517207402883400,-1,-3,-1,-1,-1,-1,0,-2
1517207402883400,1,0,-1,-2,0,-1,0,-1
1517207402884388,0,0,-1,-1,-2,-1,-2,0
1517207402884388,-2,-1,-1,-4,0,-1,-1,-1
1517207402906927,-1,1,-1,-1,0,0,-1,-1
1517207402906927,0,-1,-1,0,-1,-1,-2,0
1517207402907394,-2,-2,0,-1,-1,-2,-1,-1
1517207402907394,0,-2,-1,-1,-1,-1,0,-2
1517207402921404,0,1,-1,-1,-1,-2,-1,0
1517207402921404,-2,-1,-1,-1,-1,-1,-1,-2
1517207402921904,-1,-2,-1,0,-1,-2,-2,-2
1517207402921904,-1,0,-2,-1,-1,0,-2,0
1517207402943419,-1,-2,0,0,-1,1,-2,0
1517207402943419,1,-2,-4,-2,-3,-1,-1,-1
1517207402944420,-2,-3,-1,-1,-1,-1,0,-1
1517207402944420,0,-1,0,-3,0,-1,0,-2
1517207402966951,0,-1,-1,-3,0,-2,2,0
1517207402966951,0,-2,0,-2,-1,0,-1,-1
1517207402967437,-1,0,0,-2,-2,1,-1,0
1517207402967437,-1,-3,1,-2,-1,-2,0,-1
1517207402980960,-3,-2,0,-1,-2,-3,-1,-1
1517207402980960,-1,1,1,0,-1,0,-1,-2
1517207402981446,-1,1,-2,-2,0,-1,-2,-1
1517207402981446,0,-1,-2,-3,-2,0,-2,1
1517207403003474,-1,1,-1,0,-3,0,-2,1
1517207403003474,-1,-1,-2,-2,1,1,-1,-1
1517207403004475,0,-1,0,0,0,-1,0,-1
1517207403004475,0,-1,-1,0,-2,-1,-2,-1
1517207403026988,-1,-2,-1,0,-1,-2,-1,-2
1517207403026988,1,-1,-2,0,-2,-2,-2,0
1517207403027488,-2,0,-1,-1,-1,-1,-1,0
1517207403027488,-2,-3,-1,-1,-2,-2,0,-2
1517207403041029,-2,-1,-2,0,-3,0,-1,-1
1517207403041029,-1,-1,-1,-2,1,-2,-1,-2
1517207403042002,-2,-2,0,-1,-2,-1,0,-1
1517207403042002,-3,-2,1,0,1,-1,-2,-2
1517207403063513,0,0,-1,-1,-1,-2,0,-1
1517207403063513,0,-2,-1,0,-2,-1,-2,-1
1517207403064515,1,-1,-2,-2,-1,-2,-1,0
1517207403064515,0,1,-1,-2,-3,0,0,0
1517207403087022,-2,-3,0,-2,-1,-1,-1,-1
1517207403087022,0,-1,-1,0,-2,0,-1,0
1517207403087521,0,-2,-3,-1,0,-2,-1,-1
1517207403087521,-1,-1,0,0,-1,-1,-2,1
1517207403101531,-1,-1,-1,-1,-1,-1,0,-1
1517207403101531,-3,-1,0,-2,-1,-1,-1,-2
1517207403102031,0,-1,-1,0,-2,-1,0,-3
1517207403102031,0,-2,-2,-1,0,0,-3,-1
1517207403123547,0,-1,-3,0,0,-3,-1,-2
1517207403123547,0,-1,-1,-1,0,-2,0,0
1517207403124548,-1,-2,-1,0,0,-1,-2,-1
1517207403124548,-1,1,-2,-1,-1,0,0,-2
1517207403146602,-1,-1,0,-2,0,0,-2,0
1517207403146602,0,-1,-1,-1,-2,0,-1,-1
1517207403147585,0,-1,-2,-2,-3,0,0,1
1517207403147585,-2,-1,0,-1,0,-2,0,-1
1517207403161073,-2,-1,-2,-1,-3,-2,-1,-1
1517207403161073,0,-1,0,-4,0,-1,-1,0
1517207403162075,-1,-1,0,0,-2,0,-1,0
1517207403162075,0,-1,-2,0,-2,-1,-2,-3
1517207403183645,-2,0,0,-2,0,-1,0,0
1517207403183645,-1,0,-1,0,-1,-2,0,-1
1517207403184597,-1,-1,-1,-1,-1,-2,0,-2
1517207403184597,0,-1,0,0,-1,-1,-2,0
1517207403206620,-1,0,-3,-1,-1,0,-1,-1
1517207403206620,-2,-1,0,-1,-1,-2,0,-1
1517207403207621,-1,-3,-1,-1,-1,-1,-1,-1
1517207403207621,-2,-1,-1,0,0,-3,-1,-1
1517207403221126,-1,-1,0,-1,-1,-2,0,-2
1517207403221126,-1,0,-1,-1,-1,-2,-3,0
1517207403221618,0,0,-2,-3,-2,-1,-2,-1
1517207403221618,-1,-2,0,-1,-2,0,-1,0
1517207403243635,0,-2,0,0,-1,-1,-3,0
1517207403243635,-1,-1,1,-1,-2,-2,0,-4
1517207403244131,-2,-1,-1,1,0,-2,0,-1
1517207403244131,-1,-1,0,-1,0,-2,1,0
1517207403266688,-1,-2,-1,1,1,-2,-1,-1
1517207403266688,-1,-1,-2,-2,-1,-1,-1,0
1517207403267681,-1,-1,-1,-1,-1,-1,-1,-1
1517207403267681,-2,-1,-2,-1,-2,0,-1,0
1517207403281191,0,-1,0,-1,-1,-1,1,-1
1517207403281191,-2,-1,0,-1,-1,1,-2,-2
1517207403281691,-1,-1,1,-2,-1,-2,-1,-1
1517207403281691,-1,1,-2,-2,-1,-1,-2,0
1517207403311705,-1,-1,-2,-2,-2,0,0,0
1517207403311705,-1,-1,-1,-1,0,-1,-1,0
1517207403312703,-1,0,-1,-1,0,-1,0,0
1517207403312703,1,-2,1,-2,0,-1,-1,-1
1517207403326736,-1,-1,0,-1,0,-1,-1,0
1517207403326736,-2,-2,-2,-1,0,0,0,1
1517207403327724,-1,-1,-1,-1,1,-1,0,0
1517207403327724,-2,-1,-3,-1,-2,0,-1,-2
1517207403341225,-2,0,-1,-2,0,-1,-1,-1
1517207403341225,-3,-2,-1,1,-1,0,-2,-1
1517207403341723,-3,0,-3,0,-1,-2,-3,-1
1517207403341723,-1,-3,-1,-1,-2,-1,1,0
1517207403363239,0,-1,-1,-2,-1,-1,-1,-1
1517207403363239,-1,-1,-2,0,0,0,-1,0
1517207403364240,-1,-1,0,-1,0,0,0,-1
1517207403364240,-2,0,-1,-3,-1,-3,-1,-1
1517207403386757,-2,-2,0,1,-2,0,0,-1
1517207403386757,-2,-1,-2,-2,-2,-2,-1,-3
1517207403387263,-1,-2,-1,-2,-1,0,0,1
1517207403387263,-1,-1,0,2,2,1,-1,-2
1517207403400280,-1,-2,-1,-3,-3,-2,-1,-1
1517207403400280,-1,-1,-3,-3,-2,-3,-2,-1
1517207403408772,0,-2,0,-1,-1,-1,-2,-1
1517207403408772,-2,-2,0,-2,0,0,-1,-1
1517207403423281,-1,1,-1,-1,0,-1,0,0
1517207403423281,-1,-2,0,0,1,0,0,-2
1517207403424282,-2,1,-2,-2,0,-1,-1,-1
1517207403424282,0,-2,-1,-1,-2,0,-1,0
1517207403446798,-1,-2,-2,-1,-1,0,0,-2
1517207403446798,0,-1,0,-1,-1,-2,-2,1
1517207403448299,-2,-1,0,-1,0,1,0,-1
1517207403448299,-1,0,-1,0,-2,-1,-1,-2
1517207403460307,0,0,-2,-1,-1,0,-1,1
1517207403460307,0,-1,-2,-2,-1,-2,-1,0
1517207403468814,-1,-1,-1,0,-1,-1,-2,-1
1517207403468814,0,-1,-3,0,-2,-2,0,-1
1517207403483347,-1,-2,0,-1,-1,-1,-2,-2
1517207403483347,1,-1,1,-1,-1,-3,0,-2
1517207403484335,-1,-1,0,0,-2,-2,-1,2
1517207403484335,-2,-3,-1,-2,-2,-1,-1,-1
1517207403506911,-2,-4,-2,0,-1,0,0,-1
1517207403506911,2,0,0,0,0,0,0,-1
1517207403507409,-1,-1,-1,-3,0,-1,0,-2
1517207403507409,1,-1,-2,-1,-2,-2,-1,-1
1517207403520425,-1,-2,0,-2,1,0,-2,-1
1517207403520425,-2,-2,-3,0,0,0,-1,-2
1517207403528443,0,0,-1,0,0,-3,-1,-3
1517207403528443,-2,-2,-2,-1,0,-1,-1,0
1517207403543460,-1,-1,-1,0,-3,0,-1,0
1517207403543460,-1,0,0,-1,-2,1,-2,0
1517207403544452,-1,-1,-1,-3,-2,-2,0,-2
1517207403544452,-2,1,0,-1,-1,-3,0,0
1517207403574457,-2,-2,0,-1,-2,-2,-1,-2
1517207403574457,-1,-3,-2,0,0,0,0,-2
1517207403574958,-1,-1,-1,-2,-2,0,-2,-2
1517207403574958,0,-1,-1,1,0,-1,-1,0
1517207403580515,0,-1,-1,-2,-1,-2,-1,-1
1517207403580515,-3,-1,-1,-2,-1,0,-2,-2
1517207403588474,0,-2,-2,1,-3,-1,-1,-2
1517207403588474,1,-1,-1,0,0,-2,1,-1
1517207403603482,-1,0,-2,1,1,-1,-2,-3
1517207403603482,-2,-2,0,-2,-3,-2,1,1
1517207403604480,-3,-1,-1,-1,0,-1,1,-1
1517207403604480,-3,0,0,-1,-1,-3,-2,-2
1517207403627003,-1,1,-2,-1,0,0,-1,0
1517207403627003,-1,0,-2,0,-1,-2,-1,-1
1517207403627494,-1,-2,-1,0,-2,0,0,0
1517207403627494,-1,-2,-1,-2,0,0,0,-1
1517207403640503,0,-1,-1,-2,-2,-1,-1,0
1517207403640503,0,-1,0,-3,0,0,0,-1
1517207403648546,-1,-1,0,0,-2,-1,-2,0
1517207403648546,-2,-2,-2,0,-1,-1,-1,-1
1517207403663519,0,-1,0,0,-2,-1,-2,-1
1517207403663519,-3,1,-1,-1,-1,0,-1,1
1517207403664520,0,-1,-1,1,-1,-2,-1,-1
1517207403664520,0,-1,-1,-2,0,0,1,0
1517207403687036,-2,-2,-2,-1,-1,0,-1,-3
1517207403687036,0,-1,0,-1,-1,-2,-2,-2
1517207403687536,-2,-2,-3,-2,-1,-1,1,-1
1517207403687536,0,-1,-2,-1,-1,-1,-1,0
1517207403700548,-1,-2,-1,-1,-1,-1,0,-2
1517207403700548,-1,0,-1,-1,-2,-2,0,0
1517207403708574,-1,1,-1,-2,-2,-1,-1,-2
1517207403708574,1,0,-1,-1,-1,-1,-2,-1
1517207403723562,0,1,-1,-1,-1,-1,-1,-2
1517207403723562,-2,-2,-2,-1,-1,-2,-1,-1
1517207403724562,-1,-2,0,-1,0,0,-1,0
1517207403724562,-2,0,-2,-2,-2,-1,-1,0
1517207403746600,-1,-1,0,0,-3,-1,0,1
1517207403746600,-1,-2,-2,-2,-1,1,-1,0
1517207403747601,0,-1,-2,-1,0,-1,-2,0
1517207403747601,2,-2,-3,-1,-1,0,-4,-1
1517207403769617,-1,-2,0,-1,0,-3,-1,1
1517207403769617,-2,-1,0,-1,-1,-1,-1,-1
1517207403770103,0,-1,0,1,-2,-1,-1,-1
1517207403770103,0,-3,1,-2,-1,-1,0,0
1517207403783661,0,-1,-1,-2,-2,-1,-1,-2
1517207403783661,0,0,-1,-1,-1,-1,0,-1
1517207403784604,-1,-2,-1,0,0,-2,-2,-1
1517207403784604,0,0,0,-1,-1,-1,-1,-2
1517207403806630,-1,-2,-3,-2,1,-2,0,0
1517207403806630,-1,0,-1,0,0,-1,-2,0
1517207403807622,0,-1,-1,-3,0,-1,0,0
1517207403807622,-3,-1,0,0,-2,-1,-1,-3
1517207403829204,-1,0,-3,0,0,0,-1,-2
1517207403829204,-2,-2,-1,-1,-2,-2,-1,-2
1517207403830191,-1,-3,-1,0,-2,-2,-1,-1
1517207403830191,-2,-1,0,0,0,0,-1,1
1517207403843702,0,1,0,-2,-3,-1,-2,-1
1517207403843702,0,1,0,-2,-1,-1,-1,0
1517207403844203,-1,1,-2,0,-2,0,-2,-1
1517207403844203,1,-1,0,-1,-2,-3,-1,-2
1517207403866718,-4,-2,-1,0,-1,-1,-1,0
1517207403866718,0,0,-2,0,-2,0,0,0
1517207403867727,-2,-1,0,-3,-1,0,-1,0
1517207403867727,-2,0,-2,0,-1,0,1,-1
1517207403889233,-1,1,-2,-1,-2,-1,-1,-1
1517207403889233,0,-1,0,-2,-1,-1,-1,-1
1517207403890235,-1,0,-1,-2,0,-1,-2,-1
1517207403890235,-2,-1,-1,-2,-1,1,-3,0
1517207403903745,0,-4,-2,0,0,-2,-1,-1
1517207403903745,0,-2,-1,0,-2,-2,-1,0
1517207403904244,-1,0,-2,-1,-2,-1,-3,-1
1517207403904244,-2,-1,0,-1,0,-2,-1,0
1517207403926795,-1,0,-1,-2,0,-1,-1,0
1517207403926795,-1,-2,-1,-1,0,0,0,-3
1517207403927261,-2,0,-3,0,-2,0,1,-1
1517207403927261,-1,-1,-1,-1,-1,-1,1,-2
1517207403949299,-1,0,0,-1,-2,1,0,0
1517207403949299,0,-1,-2,-1,-1,-1,-1,-2
1517207403949776,-1,0,-1,-2,-1,-2,-1,0
1517207403949776,-1,0,-2,-1,-2,-3,0,-1
1517207403963286,-1,-3,-2,-1,-1,-2,0,-1
1517207403963286,-2,-2,0,-1,0,-2,-2,-2
1517207403964288,1,-2,-1,-1,-1,1,0,-2
1517207403964288,0,0,0,-1,-1,0,-3,-1
1517207403986805,-3,0,-1,-1,-2,0,-1,0
1517207403986805,-3,0,-1,-1,-2,-2,-3,-2
1517207403987305,-2,-1,-2,-2,0,-1,0,-1
1517207403987305,-1,0,-2,0,-1,-2,1,-2
1517207404009333,0,0,0,-1,1,-3,0,0
1517207404009333,-2,-1,-2,1,-1,0,-1,-1
1517207404010320,0,-1,-1,0,-2,-1,-1,-2
1517207404010320,0,-2,0,-2,-2,-1,-1,0
1517207404023329,0,-1,-1,0,-2,-1,-3,-1
1517207404023329,-2,-1,-1,-1,-2,-1,-2,-1
1517207404024342,-1,-2,-2,-2,-1,-1,0,-1
1517207404024342,-2,0,-2,0,0,1,0,-1
1517207404046845,-2,-2,-1,-2,-1,0,-1,-2
1517207404046845,0,-1,-2,-2,-1,-2,-2,0
1517207404048361,-1,-1,2,0,-1,0,-1,-2
1517207404048361,-1,0,-2,-1,-1,-1,0,-1
1517207404069375,-1,0,-3,0,-2,-2,0,0
1517207404069375,0,-1,0,-1,-1,1,0,0
1517207404069873,-2,-1,0,-1,1,-3,0,-1
1517207404069873,-1,-1,-1,-1,-2,0,-2,0
1517207404082938,-1,-1,1,-1,0,-1,-3,-2
1517207404082938,-2,-1,-1,-2,-1,-1,0,-3
1517207404091876,-1,-2,-1,-2,0,0,-1,-1
1517207404091876,0,-1,-1,-2,-1,-1,-2,-1
1517207404106887,-1,0,-1,-1,-2,-1,0,0
1517207404106887,-2,0,-2,-1,-1,-1,-1,0
1517207404108388,0,0,-1,0,-2,-1,-1,0
1517207404108388,-1,-1,-3,-1,-1,-1,0,-1
1517207404129426,-1,-1,-1,-3,-2,-2,-2,-1
1517207404129426,-1,-1,-1,-1,-1,-1,-2,0
1517207404130923,1,1,-1,-1,-1,-1,-1,-2
1517207404130923,-1,-2,-1,-1,1,-1,-1,1
1517207404142951,0,0,0,-1,0,-1,0,-1
1517207404142951,-1,-1,0,-1,-1,-3,0,-2
1517207404151988,-2,0,-2,-2,0,-3,-1,-1
1517207404151988,-1,-1,0,-1,-2,-1,-1,0
1517207404167009,-1,-1,-3,-3,-2,1,0,-2
1517207404167009,-2,-2,-3,0,-1,0,-1,-1
1517207404168500,-1,0,1,0,-1,0,0,0
1517207404168500,-2,-2,-2,-1,-1,-2,-2,0
1517207404189026,0,-1,-2,-2,0,-1,-3,0
1517207404189026,-1,-1,0,-2,0,-2,-1,-1
1517207404191015,-2,-1,-2,-2,-1,-2,0,-1
1517207404191015,1,-1,-1,-1,0,0,-1,-3
1517207404203025,-1,-1,0,1,-2,0,0,-1
1517207404203025,0,0,-1,0,1,-1,0,-1
1517207404212043,-1,-2,0,-1,-1,-1,-1,0
1517207404212043,-1,-2,2,-1,-2,-1,-1,-2
1517207404226580,0,-1,0,-2,-1,-3,-1,-1
1517207404226580,-1,0,-1,-3,-2,-1,-1,-1
1517207404228556,-1,-3,-1,0,-2,-2,0,-1
1517207404228556,-3,-2,0,0,0,-1,-1,-2
1517207404255583,-1,-1,-1,-2,1,-1,0,-1
1517207404255583,1,-1,-1,-2,-1,-1,-1,0
1517207404265100,-1,-2,-2,-2,0,-2,-1,-1
1517207404265100,-1,-1,-2,-3,-1,-2,-1,-3
1517207404265599,-2,-1,-2,-1,-1,1,-2,-1
1517207404265599,-2,0,0,0,0,0,-2,1
1517207404271594,0,-1,0,-3,1,0,-1,-2
1517207404271594,0,0,0,1,-1,0,0,-2
1517207404286608,-3,-1,0,-1,-1,-2,-1,-1
1517207404286608,-1,-2,-2,-2,-2,-1,0,-1
1517207404288120,-1,-1,-1,0,0,1,-3,0
1517207404288120,-2,0,-1,-3,-2,-2,-2,1
1517207404309365,-1,-1,-1,0,-1,-1,-1,0
1517207404309365,-2,-1,0,-2,-2,0,-2,0
1517207404310847,-3,-1,0,-2,-3,-2,-2,-1
1517207404310847,-1,0,-1,-2,-2,-1,-2,-1
1517207404322854,-1,-1,-2,-1,-1,-1,-1,-1
1517207404322854,-1,0,-1,-1,-2,-1,-1,-1
1517207404331870,-1,-2,-2,-1,-1,-1,0,0
1517207404331870,0,-2,-2,0,-1,-2,1,-1
1517207404347372,-2,-2,-1,-1,-1,-1,-1,-1
1517207404347372,-1,0,-1,-1,0,-2,0,-1
1517207404349387,1,0,-1,-3,-1,-3,-2,-2
1517207404349387,0,-2,-2,0,-1,-1,-2,0
1517207404369390,1,1,-1,-1,0,-2,-1,-1
1517207404369390,-1,-1,-1,-1,-3,-1,-1,-2
1517207404370889,0,-1,-1,0,0,-1,-2,0
1517207404370889,-2,-2,0,0,0,-1,-1,0
1517207404382906,-3,-2,-2,-1,0,-1,-1,-1
1517207404382906,0,-2,-2,-2,-2,-1,0,-3
1517207404391903,-1,-1,1,-1,-1,1,-1,-1
1517207404391903,-1,0,1,-2,1,0,1,-1
1517207404406578,0,-1,-3,0,-1,1,-2,0
1517207404406578,-1,-2,0,-3,-1,0,0,-1
1517207404408590,0,-1,-1,-1,-2,2,-2,-1
1517207404408590,-1,0,-1,0,-2,-1,-2,0
1517207404429122,0,-2,0,-2,-2,-1,-1,-1
1517207404429122,-2,-1,-2,0,0,1,-1,-1
1517207404430596,-1,-1,-1,-1,-2,-1,0,-2
1517207404430596,-1,0,1,-3,-2,-1,-1,-2
1517207404443105,-2,-1,-2,-2,-1,-3,-1,-1
1517207404443105,0,-1,-2,0,0,-1,-1,-1
1517207404451611,-1,-1,-1,0,-2,-1,-3,-1
1517207404451611,-1,-2,-2,0,-1,-2,-1,-1
1517207404466635,0,-2,1,0,0,1,-2,-2
1517207404466635,-3,-2,-1,-2,-2,-2,-2,-1
1517207404468123,-2,-3,-1,0,-1,-2,-2,0
1517207404468123,0,-1,-3,0,-1,-1,0,-2
1517207404489138,-2,-1,-1,-1,0,0,0,-1
1517207404489138,1,0,-1,0,-1,-1,-2,-2
1517207404490638,-2,-1,-1,-2,-1,0,0,-1
1517207404490638,-1,-1,0,0,-1,0,-2,-1
1517207404503147,0,-1,-1,1,0,0,0,0
1517207404503147,-1,-4,-1,-1,-1,-1,-1,-2
1517207404511654,-1,-1,-1,0,0,1,-2,-1
1517207404511654,-1,0,0,-1,0,-1,0,0
1517207404526665,-1,0,0,0,-1,0,0,-2
1517207404526665,0,0,1,-1,-2,-1,-1,-2
1517207404528178,0,-1,-1,-2,0,-2,-1,-1
1517207404528178,-1,-1,-3,-3,0,-1,-1,-2
1517207404549194,-1,-1,-1,-1,-2,-3,-1,-1
1517207404549194,-1,-2,-2,-1,0,0,-1,-1
1517207404550681,-2,-3,-1,-1,-2,-1,0,-2
1517207404550681,0,-1,-1,0,0,1,0,-2
1517207404562689,0,-1,-2,-2,0,-1,-1,0
1517207404562689,-3,0,-1,0,-2,-2,0,0
1517207404571696,-1,0,-1,-2,0,-2,-1,0
1517207404571696,-1,-2,0,1,0,-1,-2,-1
1517207404586709,-2,0,-2,-2,-2,-1,0,-2
1517207404586709,0,-1,-1,1,-2,-1,-1,-2
1517207404588217,-1,0,-2,-1,-1,0,-1,-1
1517207404588217,1,-1,-2,-1,0,-2,-2,-2
1517207404609232,-2,-1,-2,-2,0,-2,-2,-1
1517207404609232,0,-1,0,-2,0,-2,-2,0
1517207404610723,0,-2,-2,0,-2,0,0,-1
1517207404610723,1,-2,0,-2,-2,0,-2,-1
1517207404622731,-2,-2,-1,1,-1,1,-1,-1
1517207404622731,-1,1,-1,-1,-2,-2,-2,0
1517207404631739,-1,-1,-1,0,-1,-1,-1,-1
1517207404631739,0,-1,0,-2,-1,-2,-1,0
1517207404646749,-2,0,-2,-1,-1,-1,-1,-1
1517207404646749,-2,-1,-2,-1,-1,0,-1,-1
1517207404649251,0,-1,-2,-1,0,-2,0,-2
1517207404649251,1,0,-2,0,0,0,0,0
1517207404669267,-1,-1,0,-1,-2,-1,-1,1
1517207404669267,-1,0,-1,-3,-1,-1,-1,0
1517207404670766,1,-1,-1,-1,-1,-1,-1,-1
1517207404670766,-1,0,1,-1,-2,-1,-1,-1
1517207404682775,-1,-2,0,-1,-1,0,-1,-1
1517207404682775,-1,-2,-2,0,-1,0,-1,0
1517207404691781,-3,0,1,-1,-2,0,0,-1
1517207404691781,-3,-2,-2,-1,-1,0,-1,-1
1517207404706791,-1,-2,-2,-1,-1,0,0,-1
1517207404706791,0,-1,-1,-1,0,-2,0,-2
1517207404708292,-1,0,0,-1,-2,-2,0,-2
1517207404708292,-2,-2,0,-1,-2,0,-2,-1
1517207404736813,-1,0,0,-1,-2,-1,-1,-1
1517207404736813,0,-3,-1,-1,-2,-1,-2,0
1517207404738315,0,-1,-1,0,-2,-2,-1,-1
1517207404738315,0,0,-1,-2,-1,-1,0,-1
1517207404751824,-1,0,-1,-2,-1,-2,-1,0
1517207404751824,-3,-1,-2,-3,0,0,0,0
1517207404753325,-1,-1,-1,-1,-2,-3,-2,0
1517207404753325,-3,1,-1,-2,0,-1,-1,-1
1517207404766834,0,0,-2,-1,-1,0,0,1
1517207404766834,-1,0,-1,0,0,-1,0,-2
1517207404768346,-2,-2,-3,0,-2,-2,-1,-1
1517207404768346,-2,0,-2,-2,0,-2,-1,-2
1517207404789351,0,0,-2,-2,-1,0,-1,-2
1517207404789351,-2,0,0,-2,-1,-1,-2,-1
1517207404790851,0,-1,-2,0,1,1,-1,-2
1517207404790851,-3,-1,-1,-1,-2,0,-1,-2
1517207404811880,0,-2,-1,-2,-2,-1,-1,1
1517207404811880,0,-1,-1,-1,0,-1,0,-3
1517207404813368,-2,-1,-2,-1,0,-1,-2,1
1517207404813368,-1,0,0,1,0,-1,0,0
1517207404826392,0,-2,-1,-1,-1,-1,-1,0
1517207404826392,0,-1,0,-1,-1,-1,-2,-1
1517207404828394,-1,-1,0,-1,-1,-3,-2,-1
1517207404828394,-1,-1,-1,-1,-1,-1,0,0
1517207404848916,-1,-1,-2,-2,-1,-2,-1,-1
1517207404848916,0,-1,-1,1,-1,-1,0,0
1517207404850917,0,-2,-2,-1,-2,0,-3,-1
1517207404850917,-1,0,-2,0,-2,0,0,-1
1517207404871926,-3,0,0,-2,-1,-2,-1,-1
1517207404871926,0,0,-2,0,-1,-1,0,-2
1517207404873426,-1,-1,0,-3,0,0,1,-1
1517207404873426,0,-2,0,-1,-1,-1,-1,1
1517207404885919,0,0,2,-1,-1,-2,0,-1
1517207404885919,-3,0,-2,-3,-1,-1,-1,-1
1517207404892950,-1,-1,-3,-3,-2,0,1,-2
1517207404892950,0,0,-1,-1,-1,-2,-1,-1
1517207404908972,-1,-1,-1,0,-1,-1,-1,-2
1517207404908972,0,-1,1,0,-2,-3,-2,1
1517207404910955,0,-1,-1,-3,-2,0,-1,0
1517207404910955,-1,-3,-3,-3,0,0,0,-2
1517207404931951,-1,-3,-2,-1,-4,-2,-1,1
1517207404931951,-3,-2,0,-2,-1,-1,0,-1
1517207404933452,-1,-2,-1,0,0,-1,0,-1
1517207404933452,-1,-3,-1,-1,0,-3,-2,-1
1517207404945960,0,0,-1,-1,0,0,-4,-3
1517207404945960,0,0,-3,-1,0,-2,0,-1
1517207404952967,-1,0,1,-1,0,-1,-1,-1
1517207404952967,-1,2,-2,-3,-3,-1,0,-2
1517207404968977,-1,-1,-1,-1,0,0,0,-2
1517207404968977,-2,-1,-2,-2,-1,0,-2,-1
1517207404970478,-1,-2,-1,-2,-1,-2,1,-1
1517207404970478,-1,-4,-1,-1,-1,-1,-2,0
1517207404991993,-1,-2,-1,-1,-1,-1,-1,1
1517207404991993,-1,0,-1,-1,-2,-1,-2,-1
1517207404993504,-2,0,0,-2,-1,-3,-1,1
1517207404993504,-2,-3,-2,-1,-2,-1,-1,0
1517207405006003,-2,-3,-1,-2,0,-1,0,-2
1517207405006003,0,-1,0,0,-1,-1,0,-1
1517207405013017,-1,-2,-1,-2,-1,0,0,-1
1517207405013017,-2,-1,-2,0,-2,-1,-1,-2
1517207405029034,-1,0,-2,-1,-1,-2,-2,-1
1517207405029034,-2,-1,-2,-1,-1,-1,0,-1
1517207405031041,-2,1,-1,-1,-1,0,-3,0
1517207405031041,-1,-1,-1,-1,-2,0,-1,-1
1517207405051535,-1,-1,0,-1,-1,0,-2,1
1517207405051535,-1,-2,-2,-1,-2,0,-3,-1
1517207405053541,0,-1,-2,-1,-2,0,-1,-3
1517207405053541,-2,1,-2,0,-1,-2,-1,0
1517207405066057,0,-2,-1,-1,-2,-1,0,0
1517207405066057,1,-2,-1,-2,-1,-1,-1,-2
1517207405073063,-2,-1,0,-1,-1,-1,-3,-1
1517207405073063,0,-1,-3,0,-2,-2,-2,-1
1517207405096589,-2,0,-2,-1,-1,-1,0,-1
1517207405096589,0,0,-1,-2,-1,-3,0,0
1517207405098578,0,-1,-1,-2,-2,-1,0,-1
1517207405098578,-1,-1,-1,0,-1,-1,-2,0
1517207405111592,0,1,-1,-1,-1,0,-3,-1
1517207405111592,0,0,-1,0,-2,0,0,-3
1517207405113079,-2,-3,-2,-1,-2,-1,0,-1
1517207405113079,-4,0,-1,0,1,-1,1,0
1517207405126608,-1,-2,-1,-1,0,-1,-1,-1
1517207405126608,-1,-1,0,-2,0,0,-1,1
1517207405133093,0,1,-1,-2,-1,-1,-1,-1
1517207405133093,0,-1,-2,-1,0,0,0,-2
1517207405149128,-1,-2,-2,0,0,-1,-1,-1
1517207405149128,-2,0,-2,0,1,-3,-1,0
1517207405150605,1,0,0,0,-1,-2,0,-1
1517207405150605,0,0,1,-3,-1,-2,-3,-1
1517207405171621,0,0,-1,-2,-1,-1,0,-1
1517207405171621,0,-1,-2,-2,-2,-1,-2,-1
1517207405173121,0,-1,-2,-1,-1,-1,-1,-2
1517207405173121,-1,-1,-1,-2,0,-1,0,-2
1517207405186131,0,-2,0,0,-2,-2,1,0
1517207405186131,-2,-1,0,0,-1,1,0,-1
1517207405192636,-1,0,-2,0,-1,-2,-2,0
1517207405192636,0,1,1,0,0,-2,-1,-1
1517207405209157,-1,1,0,-1,1,0,-1,-2
1517207405209157,-2,-1,-1,-2,-1,-1,0,-2
1517207405210648,-3,-1,-1,-1,0,-1,-4,-1
1517207405210648,0,-1,-1,-1,-1,-1,0,-1
1517207405231704,-2,-2,-3,-1,-1,1,-1,0
1517207405231704,0,-1,-2,0,0,0,-1,-1
1517207405233204,1,-1,-1,0,-1,0,-1,-2
1517207405233204,1,-2,-2,-2,-2,0,0,-2
1517207405245238,-3,0,-1,-1,-1,-1,-2,-2
1517207405245238,-1,-2,-2,-1,-1,-3,0,-1
1517207405254238,-1,-1,-2,-1,-1,0,-1,0
1517207405254238,0,-2,-1,1,1,0,-2,-1
1517207405269240,-1,1,-1,-1,-1,-1,0,-2
1517207405269240,-2,-1,-1,-1,-2,1,0,1
1517207405270732,-2,-1,-1,-2,-1,-1,-2,-1
1517207405270732,0,-1,-1,0,-2,-1,-1,1
1517207405292246,0,-2,-1,0,-1,-1,-2,-1
1517207405292246,0,0,-2,-2,-3,-3,-1,-1
1517207405293752,1,-1,-3,-3,-3,-2,1,-2
1517207405293752,-2,-1,-3,-2,-1,0,0,-1
1517207405305257,-1,-2,-1,-1,-1,-1,-1,-2
1517207405305257,-2,-1,-1,0,-1,-3,0,-2
1517207405314271,-1,-1,0,0,0,-2,0,-2
1517207405314271,-1,-1,-1,-2,-2,-2,-1,-1
1517207405329291,-1,1,0,-1,-1,-2,-1,-1
1517207405329291,-1,0,0,-1,-1,-1,-1,-1
1517207405330791,-3,-1,-1,0,-1,-1,-2,-2
1517207405330791,-1,-2,-1,-1,-1,-1,-1,0
1517207405351789,-1,-2,-1,-2,-1,-2,0,0
1517207405351789,-1,1,0,0,-1,-1,-1,0
1517207405353290,-1,-1,-1,0,-1,-1,0,-1
1517207405353290,-1,0,0,0,-1,-1,-1,-2
1517207405365297,0,-3,-1,-2,-2,1,-1,-1
1517207405365297,0,-1,-1,-4,1,-1,-2,-2
1517207405374322,0,-1,-1,-1,-2,0,-2,0
1517207405374322,-2,0,0,-2,1,-1,-1,-1
1517207405389318,-1,-1,-2,0,-2,-1,0,-1
1517207405389318,-2,-1,-2,0,-1,-1,-1,-1
1517207405390817,1,0,-1,1,-2,-2,1,0
1517207405390817,0,0,-2,-1,-2,0,-2,-1
1517207405411851,0,0,-1,-3,-1,0,-1,0
1517207405411851,-1,-1,0,-1,0,1,-2,0
1517207405413342,0,-1,0,0,0,-2,-1,-2
1517207405413342,-1,-1,-2,-1,-1,-1,-1,-2
1517207405425348,0,-1,-2,-2,-2,-1,-2,-1
1517207405425348,0,-1,-2,-2,-1,-1,-1,-2
1517207405434369,-1,0,-2,-2,-1,-1,1,-1
1517207405434369,-1,-2,-1,0,0,0,-2,-1
1517207405449360,0,0,-1,-1,0,0,-3,0
1517207405449360,-1,-2,-2,-2,-3,-2,-1,1
1517207405450867,-1,-1,-2,-1,-1,0,-2,-2
1517207405450867,-3,0,-2,-2,-1,-3,-2,-1
1517207405471896,-3,-2,-2,1,0,-3,0,-2
1517207405471896,-1,-1,-2,-1,-2,-1,-1,1
1517207405473386,0,-2,-1,0,-1,0,-2,-1
1517207405473386,-2,-2,-2,-2,-1,-1,0,0
1517207405485384,-1,-1,-2,1,-2,-2,0,-2
1517207405485384,-1,-2,-1,-1,-3,-2,-1,-4
1517207405494418,-1,-1,-3,-1,0,-2,0,0
1517207405494418,0,-1,-1,-2,-2,-1,-1,0
1517207405508916,0,-1,0,-2,-2,1,-2,-1
1517207405508916,-2,0,-2,-1,1,-1,-1,1
1517207405510922,-1,-1,-1,-3,1,0,-2,1
1517207405510922,-1,-1,-2,-2,-1,-1,-1,0
1517207405531432,-1,0,0,-2,-1,0,-2,-1
1517207405531432,-1,-1,-1,-1,0,-1,0,-2
1517207405533431,-2,-1,-1,-2,-2,0,-1,-1
1517207405533431,0,-1,-1,-1,-2,-1,-2,-2
1517207405545439,-1,-2,-1,-2,-1,-2,0,-1
1517207405545439,-2,0,-2,-1,-1,-1,0,-1
1517207405554431,-2,-1,0,-2,-1,-1,0,0
1517207405554431,-1,-1,1,-1,-2,0,1,0
1517207405569443,-2,0,0,0,-1,-1,-2,-1
1517207405569443,-2,-1,1,0,0,-1,-3,-2
1517207405570962,-3,0,-2,-2,-1,-1,-1,-2
1517207405570962,-2,1,-1,0,-1,-1,0,0
1517207405591959,0,-3,-3,-1,1,-2,1,-1
1517207405591959,0,-2,-1,0,-1,1,0,-1
1517207405592960,-2,-2,-1,-1,-1,-1,-1,0
1517207405592960,-1,-1,0,-1,-1,-2,-1,0
1517207405605468,0,0,-2,-1,0,-2,-1,-1
1517207405605468,0,-1,-2,-1,-2,-3,0,-1
1517207405614486,-1,0,0,-1,-1,0,-1,-1
1517207405614486,0,-2,0,1,0,0,-1,-2
1517207405628994,-3,-1,-1,-1,-2,0,0,0
1517207405628994,-2,0,-3,-2,-2,0,-1,-1
1517207405631008,-2,-1,-2,0,-1,-1,1,0
1517207405631008,-1,-2,-2,-2,-1,-2,-1,-1
1517207405651523,-1,-1,-1,0,0,-2,0,-1
1517207405651523,0,-2,-2,-1,-1,-1,-1,-1
1517207405653502,-2,-2,-1,-1,0,-2,-1,0
1517207405653502,-1,0,-2,0,1,-1,-2,-1
1517207405674033,0,-1,-2,0,-3,0,-2,0
1517207405674033,0,0,-2,0,-1,-1,1,-1
1517207405675518,1,-2,-1,-1,-1,-1,-2,-1
1517207405675518,-1,-1,-1,-2,0,-2,-1,-2
1517207405688526,0,0,-1,-2,-1,-1,-2,-1
1517207405688526,-2,-1,-2,-1,0,-2,0,-1
1517207405695545,-2,0,-1,2,-2,-1,-2,-1
1517207405695545,-1,0,-2,-1,-1,-2,-3,-1
1517207405711543,-2,0,0,-1,0,-2,-1,0
1517207405711543,0,-1,0,-1,-2,-2,-1,0
1517207405713044,0,-1,-2,-1,-1,0,0,0
1517207405713044,-2,-2,-3,-2,-1,0,0,-1
1517207405734082,-2,0,0,-1,0,-1,-2,-2
1517207405734082,-1,0,-2,-1,-2,-1,-1,0
1517207405735561,0,-1,-1,0,-1,-1,0,-1
1517207405735561,0,0,-1,0,-1,0,-1,-1
1517207405749083,0,0,-1,-2,-2,0,1,-1
1517207405749083,-2,0,-1,-1,-1,-1,-2,-1
1517207405751071,-1,-1,0,-2,0,-2,-2,-1
1517207405751071,0,-1,-2,-1,-1,0,0,0
1517207405771585,0,-2,-1,0,1,-2,0,-2
1517207405771585,-1,-1,1,0,-2,-1,-1,-1
1517207405773086,-2,0,-1,-2,-2,-3,1,-2
1517207405773086,-1,-1,1,0,-1,-1,-1,-2
1517207405794101,-1,0,-2,0,-1,0,-2,-1
1517207405794101,-1,0,-1,0,0,0,-1,0
1517207405795602,0,-2,-2,-2,-1,-1,-2,-3
1517207405795602,-2,0,0,0,-1,-2,0,-1
1517207405808626,-1,-3,-1,1,-2,-4,-1,-1
1517207405808626,0,-1,-1,0,-2,0,1,1
1517207405815126,-1,0,-1,-1,-2,0,1,-2
1517207405815126,-1,0,1,-4,0,0,-2,0
1517207405831663,-3,-2,-2,-2,1,-1,-2,-1
1517207405831663,0,-2,0,-2,-1,0,-1,-2
1517207405833163,0,-1,-2,0,-2,-2,-1,1
1517207405833163,0,-2,-2,-1,-3,-1,-1,-2
1517207405854149,-3,0,-2,-1,1,-1,1,0
1517207405854149,-1,0,-1,-2,-2,-1,-3,-2
1517207405855651,-1,-1,-3,0,1,-2,-2,0
1517207405855651,-1,-3,-3,-1,-1,-2,0,-1
1517207405868654,0,-1,-2,-2,-1,0,-1,-1
1517207405868654,-2,-3,0,-1,-1,-2,-1,-1
1517207405875661,-1,-3,-1,-1,0,-1,0,-2
1517207405875661,-2,-2,-1,-1,-2,-2,-1,-2
