timestamp,emg1,emg2,emg3,emg4,emg5,emg6,emg7,emg8
1517204137404965,-1,0,-1,0,-2,-2,-2,-1
1517204137404965,-2,-2,-3,-1,-1,-1,0,-2
1517204137406466,0,-1,-3,-2,-2,-1,-2,-1
1517204137406466,1,-2,-2,-2,-1,0,0,0
1517204137427482,-2,-1,-1,-2,-1,-2,-2,-2
1517204137427482,0,0,-1,-2,-2,-1,-1,-2
1517204137428983,-3,-1,0,0,-1,-1,-1,0
1517204137428983,0,-1,0,-1,-1,-1,-1,-1
1517204137440990,0,-1,-2,1,-1,-1,-2,0
1517204137440990,1,-1,-3,-2,-2,0,-2,1
1517204137449999,-1,-1,-1,-1,0,0,-1,0
1517204137449999,0,-1,0,-1,-1,0,-1,-1
1517204137465008,-1,-1,-1,-1,0,1,0,0
1517204137465008,-2,-2,0,-2,0,-1,-1,1
1517204137466509,0,-1,-1,-2,-2,-1,-2,-1
1517204137466509,-1,-3,-2,-2,0,-2,-1,0
1517204137487023,0,0,-2,-1,-1,-1,-1,-1
1517204137487023,0,-2,-1,2,-1,-3,-1,-1
1517204137489025,-1,-3,-1,0,-2,1,1,0
1517204137489025,-2,-1,0,0,0,-2,-2,0
1517204137501032,1,0,-1,1,-2,-3,-1,-1
1517204137501032,-2,1,-1,-1,-2,0,-1,-2
1517204137510040,0,-2,-1,0,0,-1,-1,0
1517204137510040,-1,0,-1,0,-1,-1,-1,-3
1517204137524549,1,-1,-1,-1,-3,-2,-2,-1
1517204137524549,-1,-1,-1,-1,-1,-1,0,-2
1517204137526553,-1,0,-1,-2,0,-2,-2,-1
1517204137526553,0,-2,-3,-1,-2,0,-3,-1
1517204137547568,-2,-1,-1,-4,-1,0,-2,0
1517204137547568,-1,0,-1,-1,-2,-2,-1,-1
1517204137549067,-2,-3,-1,-1,0,-1,0,-1
1517204137549067,0,-1,-2,-1,0,-2,-1,-1
1517204137561077,-1,-3,-2,-1,-1,0,-2,0
1517204137561077,1,0,0,-2,0,-1,-1,0
1517204137570081,-2,0,-2,-2,-1,-2,0,0
1517204137570081,0,-1,-1,0,-2,1,1,-1
1517204137584602,-2,-1,0,1,-1,0,-1,-2
1517204137584602,-2,-2,-3,0,-1,0,0,-1
1517204137586594,0,1,-1,0,-3,-1,-2,-1
1517204137586594,-1,0,-2,-2,-1,1,-1,1
1517204137607148,0,-2,-1,-2,0,-1,-2,-2
1517204137607148,-3,-1,-1,-1,-2,0,-1,0
1517204137609110,-2,-2,-1,-1,-3,0,0,-3
1517204137609110,-2,-1,1,-1,0,-1,-2,-1
1517204137629625,-1,0,-2,-1,0,0,-3,0
1517204137629625,0,-1,0,0,0,-1,-2,0
1517204137631626,0,-1,-2,-1,-1,0,-1,-1
1517204137631626,-2,-1,0,0,1,-2,1,-1
1517204137645136,-3,-2,-3,-1,-1,-2,1,-1
1517204137645136,-1,-2,-2,0,-1,-1,-2,-1
1517204137646136,0,0,-1,0,-1,0,-1,-1
1517204137646136,0,-2,-2,-1,-2,-1,-2,-1
1517204137667163,0,0,-1,-2,0,0,-1,-1
1517204137667163,-1,0,-2,-1,-2,-2,-2,1
1517204137668652,-1,-1,0,-1,0,0,-3,-1
1517204137668652,-1,-3,0,-1,-1,-2,-1,-2
1517204137689705,-2,-2,-2,-2,0,-2,2,-1
1517204137689705,-3,-2,-1,-1,0,-1,-2,-1
1517204137691180,-1,0,-1,-1,-1,-2,0,-1
1517204137691180,-1,1,-3,-2,-3,-3,-1,0
1517204137704687,-3,-1,0,0,-1,-1,0,0
1517204137704687,0,-2,-1,-2,-1,-2,0,-1
1517204137706193,-1,-1,-3,-1,-1,-1,-1,-2
1517204137706193,-1,0,0,0,-1,0,0,0
1517204137727774,0,0,0,-1,-1,1,-1,-1
1517204137727774,0,0,-2,-2,-2,0,-2,-2
1517204137728774,-2,-1,-1,0,-3,-2,-2,2
1517204137728774,1,-1,0,0,-2,-2,-1,-2
1517204137748789,-1,1,-1,-3,-1,-1,0,0
1517204137748789,-1,-2,0,1,-1,0,-1,-1
1517204137757307,-2,-2,-3,-3,0,-2,-1,-1
1517204137757307,-2,0,-2,-2,-1,-2,-1,-1
1517204137764799,-1,0,-2,0,-1,-2,-3,-1
1517204137764799,-1,0,-3,-1,-1,0,0,-3
1517204137766301,0,-1,-1,0,-1,-2,0,-2
1517204137766301,-2,-2,-2,0,-1,-1,1,-2
1517204137787325,0,-2,-1,0,-2,-2,0,-3
1517204137787325,-2,-2,-2,-1,-1,0,0,0
1517204137788826,-2,-1,0,0,0,-1,0,-2
1517204137788826,1,-1,-1,-1,-1,-1,-3,-1
1517204137809832,-1,-1,-2,0,-3,0,-1,-1
1517204137809832,0,-1,-1,-1,-1,-2,0,-1
1517204137811333,-2,-1,-1,-2,-2,-1,0,0
1517204137811333,0,0,0,-2,-1,-1,-1,-3
1517204137823850,-2,-1,0,-1,0,0,0,-1
1517204137823850,-1,0,-1,-1,-2,-1,-1,0
1517204137832347,-1,-1,-2,-3,1,-1,-2,0
1517204137832347,-3,-1,-1,-1,-2,-1,-1,-1
1517204137847359,0,0,-2,-1,-3,0,-2,0
1517204137847359,-2,0,-1,-1,-2,0,-1,-2
1517204137848859,-2,-1,-1,-2,-1,-1,-1,-1
1517204137848859,-1,-1,-3,0,1,1,-1,-2
1517204137869876,0,-1,-1,-2,1,-2,0,-1
1517204137869876,-1,-1,-1,-1,-1,-2,-2,-2
1517204137871398,-1,-2,1,-1,-2,-1,-1,-1
1517204137871398,0,0,-1,-1,0,0,-1,0
1517204137883883,-1,-1,-1,0,-2,0,-2,-1
1517204137883883,-2,0,0,-1,-1,-1,0,-2
1517204137890889,-1,-1,-2,-1,1,-2,-1,-1
1517204137890889,-1,0,-2,0,-3,-1,-1,-1
1517204137907424,-2,-4,0,-2,0,-2,-1,-3
1517204137907424,-1,-2,-1,-1,-1,-2,0,-1
1517204137908925,0,1,-2,-1,0,-2,-1,-1
1517204137908925,-1,-2,0,-1,-1,-1,0,-2
1517204137929943,-2,-1,0,-1,-2,0,-1,0
1517204137929943,-1,-1,0,-2,-1,-1,-1,-1
1517204137931443,0,-3,0,0,-1,-3,-1,0
1517204137931443,0,-2,-1,-2,-1,-1,-2,-1
1517204137944456,-3,0,-1,-2,0,-1,-1,-2
1517204137944456,-2,0,0,0,-2,-1,-1,-2
1517204137950956,0,-1,1,-1,-1,-1,0,-2
1517204137950956,-2,0,-2,-1,-2,0,-2,-1
1517204137966966,-2,-1,-2,-2,-1,0,0,0
1517204137966966,-1,0,-2,-1,0,0,-3,0
1517204137968967,-2,-2,-2,-2,-2,-1,0,-2
1517204137968967,-2,-1,-1,-1,-1,0,-1,-1
1517204137989601,-3,-1,-1,0,0,-2,0,0
1517204137989601,0,-2,-1,-2,-2,-1,0,-1
1517204137991564,1,0,-2,-2,-2,0,-1,1
1517204137991564,0,-2,-2,-2,0,-1,-1,-1
1517204138004073,1,0,-1,0,0,-2,-1,-1
1517204138004073,-1,-1,-3,0,-1,-1,0,-2
1517204138011079,-1,-2,-1,0,0,-2,-2,-2
1517204138011079,-1,-4,0,-1,0,-2,-1,-1
1517204138027589,-2,-2,0,0,-2,-1,-3,-1
1517204138027589,1,-2,0,-1,-1,-1,-2,1
1517204138029094,-1,-1,0,-1,-1,0,1,-1
1517204138029094,-3,0,-2,0,-1,-1,-2,-1
1517204138049604,0,-2,0,-1,0,-1,0,-2
1517204138049604,0,0,-1,0,-1,0,-1,-2
1517204138051110,0,-1,-1,-2,-1,-1,-1,-1
1517204138051110,-1,-1,-1,0,-2,-2,1,-1
1517204138064115,0,-1,-3,-2,0,-1,-1,-1
1517204138064115,-1,-1,-1,-3,-1,0,-1,-1
1517204138071120,-3,-1,-2,-1,-1,-1,-1,-1
1517204138071120,-1,-1,1,-2,-1,-1,-1,-1
1517204138087141,-1,0,-3,-2,-2,0,-1,0
1517204138087141,-1,-2,-2,-1,0,-3,0,0
1517204138088633,0,-1,-2,-2,0,-1,-1,-1
1517204138088633,-2,-1,-2,-1,-1,-2,-1,-2
1517204138109648,-1,-2,1,-1,-1,-2,-1,-1
1517204138109648,-2,-1,0,-1,0,-2,-2,1
1517204138111151,-1,0,1,0,-2,1,0,-1
1517204138111151,1,0,-2,0,-1,-1,-1,0
1517204138123172,0,-2,-2,0,-1,-2,-2,0
1517204138123172,0,-1,-2,-1,-1,0,0,-2
1517204138132164,-3,-1,-1,0,-1,-2,-2,-1
1517204138132164,0,-1,-1,-2,0,0,-2,-1
1517204138147185,-1,-1,0,-3,-2,-1,0,0
1517204138147185,-3,-1,-2,-2,-1,-2,-1,0
1517204138148676,-1,0,-1,-1,-4,0,-2,0
1517204138148676,-1,-3,-2,-1,0,1,0,-1
1517204138169691,-3,-2,-2,-2,-1,-1,-2,-1
1517204138169691,-1,-1,0,-1,-1,-2,0,-1
1517204138171192,0,-1,-4,-2,-1,-2,0,-1
1517204138171192,-2,0,0,-1,-2,0,-2,1
1517204138183214,-2,-1,-2,1,-2,0,-1,-2
1517204138183214,0,-2,-1,0,-1,-1,-1,0
1517204138192205,-1,0,0,1,-2,0,0,0
1517204138192205,-2,-3,-1,0,0,-2,-1,1
1517204138207225,0,-2,-1,-2,-1,-1,-1,-3
1517204138207225,-1,0,-2,1,-2,0,-1,-2
1517204138208727,-1,1,0,0,-2,-2,-3,0
1517204138208727,-1,-1,-1,0,-1,-2,1,-2
1517204138229734,1,-1,0,0,-1,-2,-1,0
1517204138229734,-3,-1,0,-2,-1,0,-2,-1
1517204138231234,1,-3,-1,-2,0,-2,-1,-2
1517204138231234,0,0,0,-1,-1,-1,-1,0
1517204138243793,-2,-1,-1,-2,-2,-3,0,-1
1517204138243793,-1,-2,-2,0,-1,-2,-1,0
1517204138252796,-1,0,-2,0,-1,-1,0,0
1517204138252796,0,-1,0,-2,-1,-3,-1,-1
1517204138267308,0,-1,-1,-2,-2,-1,0,-1
1517204138267308,-1,-1,-2,-2,-1,-1,-1,-1
1517204138268808,-2,-2,1,0,-1,-1,-1,-1
1517204138268808,0,-1,-1,0,-1,0,0,-2
1517204138289832,-2,-1,0,-1,-2,1,0,0
1517204138289832,0,-1,-1,-1,-2,-1,0,0
1517204138291325,-1,-2,-1,1,-1,0,-1,-2
1517204138291325,-1,1,-2,-1,0,0,0,-1
1517204138303334,-1,0,-2,-1,-1,0,0,-2
1517204138303334,0,-2,-2,-1,-1,-1,0,-1
1517204138312341,-3,-2,-2,-1,-1,-1,0,-1
1517204138312341,-1,-1,-2,0,-2,-2,-2,-2
1517204138326348,0,-2,-2,-1,1,2,-2,-1
1517204138326348,0,-2,0,-1,0,-1,-2,-2
1517204138334854,-1,-1,-1,-2,-1,0,-1,-1
1517204138334854,-2,-1,-2,-2,-1,0,0,-2
1517204138349867,-1,1,0,-1,-3,-1,0,1
1517204138349867,-1,-1,0,-1,-1,0,-1,-1
1517204138351378,0,-1,-1,-1,-1,-2,-1,-1
1517204138351378,-1,-2,-2,-1,-1,-2,-2,1
1517204138363377,-2,0,0,1,0,-1,0,-1
1517204138363377,-2,-3,-3,-3,-1,0,-1,-1
1517204138372382,0,-1,-1,-2,-1,0,-1,-1
1517204138372382,-1,-2,-1,-4,-1,0,-2,-2
1517204138386891,-1,-1,-1,-3,-1,-1,-3,1
1517204138386891,1,1,0,1,-3,-2,0,0
1517204138388892,-1,-3,-3,0,0,-1,0,-2
1517204138388892,-1,0,-2,1,-3,0,-1,0
1517204138409910,0,-2,-1,-3,1,-2,-1,0
1517204138409910,-1,-1,-1,-2,-1,-1,0,-1
1517204138411410,0,-1,-2,-2,-2,-1,0,0
1517204138411410,-1,-1,-1,-3,-2,-1,-2,0
1517204138423427,-1,-1,-1,0,1,-1,-2,-1
1517204138423427,-2,-1,-1,-2,1,-2,-1,-1
1517204138432431,-2,0,0,-1,-1,0,-1,0
1517204138432431,-2,-1,-1,0,-2,-1,0,-1
1517204138447436,-2,-1,-3,-1,-2,0,-1,1
1517204138447436,0,-1,-1,-1,-1,-1,-1,-1
1517204138448937,0,-1,-2,-1,-1,-2,0,-2
1517204138448937,0,1,-2,0,0,-1,-2,-2
1517204138469952,-1,-1,-2,1,-1,-2,0,-3
1517204138469952,-3,0,-1,0,-1,-2,-2,-2
1517204138471451,-2,-2,-2,-1,-1,-2,-3,-2
1517204138471451,-2,-3,0,0,0,-1,0,-1
1517204138483461,-1,-1,-1,-2,-2,2,0,0
1517204138483461,-3,0,-1,-2,0,0,-2,-1
1517204138498471,-3,0,-2,-2,-1,-2,-2,1
1517204138498471,-1,-2,0,-2,-1,-1,-1,0
1517204138507476,0,0,-1,0,-1,-3,-1,-1
1517204138507476,0,-2,0,-1,-1,0,0,-1
1517204138508977,0,-1,0,0,-1,-2,0,-1
1517204138508977,0,-1,0,0,-2,-1,-1,-1
1517204138529993,-1,-2,0,-1,-2,-2,-1,-1
1517204138529993,-1,0,1,-2,0,-1,-1,0
1517204138531494,-2,-1,-1,-1,-1,0,-2,-1
1517204138531494,-1,-1,-1,1,-2,-2,-1,-2
1517204138543512,-2,0,-2,0,-1,-1,1,-1
1517204138543512,-4,-2,-2,1,-2,-1,-3,-2
1517204138552521,-1,-2,-1,-3,-1,-2,-2,-2
1517204138552521,-1,-1,-2,-2,-2,-2,-2,0
1517204138567026,1,-3,-2,-1,-1,-1,-2,-1
1517204138567026,0,-2,-2,-1,-2,0,-1,-1
1517204138569029,0,0,2,-2,-2,0,-1,-1
1517204138569029,-1,-1,-1,-2,-1,0,0,-1
1517204138589547,-1,-1,-1,-1,-2,-2,-2,-1
1517204138589547,-1,0,-4,-1,0,-1,-1,0
1517204138591548,-1,0,-1,-1,-2,-1,-1,0
1517204138591548,-1,0,-1,-1,1,0,0,0
1517204138612561,-3,0,-1,-3,0,-1,-2,-2
1517204138612561,0,0,-2,0,-1,1,0,-2
1517204138614053,-1,-2,-1,1,-2,0,0,-2
1517204138614053,-1,0,-3,-1,0,-1,-1,0
1517204138627563,-1,-1,-1,-1,-1,-1,-1,-2
1517204138627563,1,-1,-2,-4,0,-2,-1,0
1517204138629064,0,-1,-1,-2,2,-1,0,0
1517204138629064,-1,-1,-2,-2,0,-3,-1,-2
1517204138649577,-1,-2,-1,-2,0,-1,-1,-1
1517204138649577,-2,-1,-2,-1,-1,-2,0,1
1517204138651080,-2,-2,-1,-2,-1,-1,0,-1
1517204138651080,0,-1,0,-1,0,-1,0,-1
1517204138672174,-1,-2,-2,-2,-2,-1,-1,1
1517204138672174,1,-1,-1,-1,-2,-1,0,-2
1517204138673689,-2,-1,-3,0,0,0,-2,1
1517204138673689,-1,-2,-2,-1,-1,-1,0,-1
1517204138687203,-1,-1,-1,-1,-1,-2,-1,-1
1517204138687203,-2,-1,-1,1,-1,-1,-2,0
1517204138688683,-3,0,-1,-2,-2,-1,0,-3
1517204138688683,0,-1,0,-2,-2,-2,-2,0
1517204138709698,-1,-1,-2,1,1,0,-2,1
1517204138709698,-2,1,0,-2,-1,0,-1,-1
1517204138711198,0,0,-2,0,0,-3,-1,-1
1517204138711198,-2,-1,-3,-2,-1,-2,0,-1
1517204138732215,-1,0,-1,0,-1,-2,0,-2
1517204138732215,-1,-3,-2,-2,0,-1,-1,-1
1517204138733713,0,-3,-1,-2,-2,0,-1,0
1517204138733713,-1,-1,-1,0,-1,-2,-2,-1
1517204138746723,0,0,-1,-1,-1,-1,0,-1
1517204138746723,-1,-1,-2,1,-3,0,0,-1
1517204138753227,-1,0,-2,-1,-2,-1,-1,-2
1517204138753227,0,-1,1,-2,-1,0,-1,-1
1517204138769738,-1,-1,1,-2,-1,0,0,-1
1517204138769738,-1,-1,0,0,0,-2,-2,-2
1517204138771243,-2,-1,-1,-3,-3,-2,-1,-1
1517204138771243,-2,-3,-1,0,0,0,-3,-2
1517204138792258,-1,-2,-2,-2,-2,0,0,-1
1517204138792258,1,-1,1,-2,-2,-2,0,-1
1517204138793756,0,0,-3,-1,-1,-1,0,-1
1517204138793756,0,-2,0,-1,0,-1,-1,0
1517204138806266,0,-1,-2,-1,0,-2,-2,-2
1517204138806266,-1,-2,-2,-1,-2,0,-1,-1
1517204138813272,1,-1,-1,1,0,-1,-2,-1
1517204138813272,-1,0,-1,-2,-2,-1,0,-1
1517204138829782,-1,-3,-1,0,-1,-2,-1,0
1517204138829782,-2,-1,0,-1,-1,-1,-2,-2
1517204138831284,-1,-2,-1,-1,0,-1,1,0
1517204138831284,0,-2,-2,-1,-2,0,-3,-2
1517204138852298,-2,-1,-1,-2,-1,-1,0,-1
1517204138852298,-2,-2,-1,-1,-1,0,-1,-1
1517204138853800,-1,0,0,-1,0,-1,-1,-2
1517204138853800,-1,0,-1,-1,-2,0,-1,0
1517204138866307,0,-2,-1,-1,-1,-1,-1,-2
1517204138866307,-2,-1,-2,-1,0,-1,-2,-2
1517204138873311,-1,0,-3,-1,-1,-1,-1,-1
1517204138873311,0,-1,-2,0,-1,0,0,0
1517204138889827,-1,0,-1,-1,-1,-2,-2,-1
1517204138889827,-1,-2,-1,-1,-1,-2,0,1
1517204138891363,0,-2,1,-1,0,-2,-1,0
1517204138891363,-3,-1,-2,-2,-2,-1,0,-1
1517204138912343,-2,-2,-2,-1,-2,0,-1,-2
1517204138912343,-2,-1,-1,0,-1,-1,0,-1
1517204138913841,0,-2,-1,0,-1,0,0,-1
1517204138913841,0,-1,1,0,0,-1,0,0
1517204138926852,-2,0,-2,-2,0,0,0,0
1517204138926852,1,-1,-1,-2,-3,-2,0,-1
1517204138933367,1,-1,0,-1,-1,1,0,-4
1517204138933367,-1,-1,-2,-2,0,-3,-2,-1
1517204138950367,-1,-2,0,0,-3,-1,0,-2
1517204138950367,0,-2,-1,-1,0,0,-1,-1
1517204138951867,-1,-1,-2,0,-2,-1,-1,0
1517204138951867,0,-2,-1,-1,-2,-1,-1,-2
1517204138972391,0,-2,0,1,-1,0,-2,-1
1517204138972391,0,-1,-1,-2,0,-1,0,-1
1517204138974897,-1,-1,-2,-2,0,-1,-1,-1
1517204138974897,-1,-1,-1,-1,-2,-2,1,1
1517204138986392,-1,-1,-2,-1,-1,0,0,-1
1517204138986392,-1,0,-1,0,-1,0,-2,-1
1517204138993398,0,-2,0,-1,-1,0,-1,-1
1517204138993398,-1,-1,-3,-2,-1,-1,0,0
1517204139009909,0,1,-1,-2,-1,-2,1,-1
1517204139009909,0,0,-1,-1,-1,-2,0,-1
1517204139011410,-2,-1,-1,-3,-2,-2,-2,-2
1517204139011410,-1,-1,-1,0,1,0,-1,-1
1517204139031926,-1,-1,-1,0,-1,-2,-2,0
1517204139031926,-1,-1,-2,0,-1,-1,-1,-1
1517204139033927,-1,-1,0,-1,-3,0,-1,0
1517204139033927,-1,0,-1,-2,-1,0,-2,-1
1517204139046434,-3,-1,-2,-2,1,-2,0,1
1517204139046434,1,-1,-1,-3,0,-1,-1,-2
1517204139053440,-2,-3,-2,-1,0,-2,-2,-1
1517204139053440,-1,-2,-1,-1,-1,0,0,-1
1517204139069950,-1,-1,0,-1,-1,-1,-1,-1
1517204139069950,-3,0,0,-3,-2,-2,-2,0
1517204139071451,-1,-1,-1,0,-3,-1,-1,0
1517204139071451,1,-1,-1,0,0,-3,-1,-1
1517204139091970,1,-1,-2,0,-2,-1,0,-1
1517204139091970,0,-1,-2,0,-3,-2,0,-1
1517204139093471,0,-1,-2,-1,-2,0,-1,-1
1517204139093471,0,-1,0,-2,-2,-2,-1,-1
1517204139106015,-1,-1,-1,-1,-1,-1,-2,-1
1517204139106015,-3,-1,-2,-1,0,0,0,-1
1517204139114987,-2,0,-2,0,1,-1,-2,0
1517204139114987,-1,-1,-1,-1,-2,1,-2,0
1517204139129996,1,-1,-1,-1,-2,-1,-2,-1
1517204139129996,-1,-2,-1,-1,-2,-1,0,-2
1517204139130996,-3,-1,-1,-1,0,-3,0,0
1517204139130996,-1,-1,-1,-2,-1,-1,-2,0
1517204139152009,-2,-1,-1,-3,-1,-1,1,-1
1517204139152009,-1,-1,0,0,0,0,-1,-1
1517204139154511,0,-2,0,-2,-3,0,1,-1
1517204139154511,-2,-1,0,-2,1,-2,-1,-2
1517204139166020,0,-1,0,-2,-2,0,-1,0
1517204139166020,-1,-1,-3,-2,-1,0,0,-1
1517204139175060,-1,-1,-1,-1,-1,-2,0,1
1517204139175060,-3,-2,-3,-1,-2,-1,-1,0
1517204139189574,-3,-2,-2,-2,0,-1,-1,-2
1517204139189574,-1,-1,-1,-2,-3,-2,-1,-1
1517204139191037,-1,0,-1,-2,-2,-1,-1,-1
1517204139191037,-1,-2,-2,-1,-2,-1,-1,-2
1517204139212553,-2,-2,-2,-2,-1,-1,-2,1
1517204139212553,-1,-2,-1,-2,-1,-1,-1,0
1517204139214056,-1,0,-2,-1,-1,-1,-1,-1
1517204139214056,-2,-2,-3,-1,0,-2,-1,0
1517204139225575,-1,-1,-1,1,-1,-1,0,0
1517204139225575,-1,0,-3,0,0,-1,-1,-1
1517204139235079,0,-1,-3,-3,0,0,-1,-2
1517204139235079,0,0,-1,-3,0,0,0,-1
1517204139249585,-3,-2,-1,-2,-1,0,-1,0
1517204139249585,-1,-2,-2,-1,-1,0,-2,0
1517204139251079,-1,0,1,0,-1,0,-3,-2
1517204139251079,1,0,-3,0,0,-1,-2,0
1517204139272103,-1,-1,-1,-1,-1,-2,0,0
1517204139272103,0,0,0,-1,-1,0,-2,0
1517204139274595,-2,-1,-1,-2,-2,0,-1,0
1517204139274595,0,0,0,1,-2,-1,0,-2
1517204139285615,0,-1,-1,0,0,-1,-1,0
1517204139285615,-2,-1,-2,-2,-1,-2,0,-1
1517204139295111,-1,-2,-2,-2,-1,-1,-1,-1
1517204139295111,-2,-3,-1,0,-1,0,0,0
1517204139310125,0,0,-1,1,-1,-1,-1,0
1517204139310125,-1,0,-1,-1,-2,-1,-1,-1
1517204139311123,0,0,-1,-1,-2,0,0,-1
1517204139311123,1,-1,-3,0,-2,-1,-1,-1
1517204139332638,-2,0,0,-1,-2,0,-2,0
1517204139332638,-2,-2,-1,-1,0,-2,0,0
1517204139333637,-1,-2,-1,1,-2,-2,-1,-1
1517204139333637,-2,-2,-1,0,-2,-1,-1,-1
1517204139345658,0,-1,-1,-1,-1,-1,-1,-1
1517204139345658,0,-2,-1,0,-1,-1,-1,-1
1517204139355668,-3,0,-2,-2,0,-2,-1,0
1517204139355668,-1,0,-2,-1,-1,0,-1,0
1517204139370164,0,-1,-2,-1,-1,-1,0,-3
1517204139370164,-1,-1,-2,1,-1,0,-1,-2
1517204139371176,-1,-3,-1,-1,0,-1,-2,-1
1517204139371176,0,-2,-1,-2,0,-2,-3,-2
1517204139392191,-2,0,-2,-1,-1,-1,-1,-1
1517204139392191,-1,-1,0,-2,0,1,-1,-1
1517204139393679,0,0,-3,0,-2,-1,-1,0
1517204139393679,0,-1,0,-1,-1,-1,-2,-1
1517204139405728,0,1,-1,-1,0,0,0,-1
1517204139405728,-2,-2,0,-1,0,-2,0,-1
1517204139414696,0,-1,-3,-1,0,1,-1,-2
1517204139414696,-2,0,-3,-1,-2,-1,-2,0
1517204139429707,-1,-1,-2,-1,-1,-3,0,0
1517204139429707,-1,-1,-1,-1,0,-1,-1,-2
1517204139431207,-1,0,0,0,-1,-2,-2,-1
1517204139431207,-2,0,0,0,0,-3,-1,-3
1517204139452233,-1,-1,1,-2,-2,1,-1,-1
1517204139452233,0,1,-1,1,0,-2,-1,0
1517204139454735,-3,-2,0,-1,-2,-2,-2,-1
1517204139454735,-2,-1,-2,-1,-1,0,-1,-2
1517204139465730,0,-2,-3,-1,0,-1,-2,-3
1517204139465730,-2,-1,-2,-2,-2,-1,0,-1
1517204139474737,0,0,-2,0,0,0,0,-2
1517204139474737,-1,0,-1,0,-1,0,-2,1
1517204139497277,-1,-1,-2,-1,-1,-1,0,0
1517204139497277,-2,0,-2,1,-1,-2,-1,1
1517204139498777,0,-1,-1,-1,0,-2,-2,-1
1517204139498777,-1,-2,0,-2,-1,-1,-1,-1
1517204139512272,0,0,-1,-2,-2,0,-3,-2
1517204139512272,0,-1,-1,-3,-1,1,-2,-3
1517204139513763,0,0,1,-1,-2,-2,0,0
1517204139513763,-1,0,-2,-1,0,-2,-1,-1
1517204139534790,0,-2,-1,-1,-2,-1,1,0
1517204139534790,-2,-1,-3,-1,-1,-3,0,-1
1517204139536291,-2,-1,-2,0,1,0,0,-3
1517204139536291,0,-2,0,-1,0,1,-1,0
1517204139549800,-1,-2,-1,0,-1,-1,-1,-1
1517204139549800,1,-2,0,-2,-1,-1,-3,0
1517204139551290,-1,-3,-2,0,-2,-1,0,-1
1517204139551290,-3,-1,-2,-1,-1,-2,0,-1
1517204139572334,-1,-2,-1,0,0,-1,-2,-1
1517204139572334,-1,-1,0,-2,-1,-2,-1,-1
1517204139574837,0,-2,-1,-1,-1,-1,-1,0
1517204139574837,-1,-2,1,-1,-1,-2,0,-1
1517204139594853,0,0,-1,0,-2,-2,-3,-1
1517204139594853,-1,0,0,-2,0,-1,1,-2
1517204139596356,-1,0,0,-2,0,-1,0,-1
1517204139596356,0,0,-1,0,-1,-1,0,-1
1517204139609864,-2,-3,-1,-1,-2,-4,0,0
1517204139609864,0,-1,-1,1,-1,0,-1,0
1517204139611366,0,-1,-2,0,0,-2,-1,-3
1517204139611366,0,0,0,-2,-3,1,-1,-2
1517204139632387,-2,0,-1,-1,-1,-2,-1,0
1517204139632387,-3,0,-2,-1,-1,-1,1,0
1517204139633885,-3,-3,-1,-2,-1,-1,0,-2
1517204139633885,0,-2,-2,-2,0,-3,-2,-1
1517204139654908,-1,-1,0,-1,0,0,-2,-2
1517204139654908,-3,-1,-2,1,-1,-1,-1,-1
1517204139657398,-1,-1,-3,-1,0,-1,-2,-1
1517204139657398,-1,-2,-2,-1,-2,-1,-1,-1
1517204139669406,-2,-1,-1,-2,-1,1,-2,-1
1517204139669406,0,-1,-1,-2,-2,-1,-1,-1
1517204139671407,-2,1,0,-1,-1,1,-1,-2
1517204139671407,-1,-2,-1,-1,-1,0,0,-1
1517204139692436,-2,0,-1,-2,-1,0,-1,0
1517204139692436,-1,-2,-1,1,-2,-1,-2,0
1517204139693922,-1,-1,-2,-3,-1,-2,-1,-1
1517204139693922,-2,-2,0,0,-1,-1,-1,-1
1517204139714938,0,-2,-1,-1,-1,-2,0,0
1517204139714938,1,-1,-2,-2,-1,-2,-3,-2
1517204139716438,-2,-1,-2,-2,-1,-3,-2,0
1517204139716438,-2,-1,-3,-2,0,-1,-3,-1
1517204139729447,-1,-2,-1,0,-1,0,-1,-1
1517204139729447,-2,-1,-1,-2,-1,0,1,-1
1517204139735951,0,-1,-1,-1,-2,0,-2,-2
1517204139735951,-1,-1,-1,-2,-3,-2,-2,-1
1517204139752463,-3,0,-1,0,0,-2,0,-3
1517204139752463,0,1,-1,-1,-1,-1,0,0
1517204139754965,0,-1,-3,-2,0,-1,0,-1
1517204139754965,0,-1,-2,0,-1,-2,0,-1
1517204139774506,-2,-2,-1,-1,0,-2,0,0
1517204139774506,0,-3,0,-1,-1,-3,0,-2
1517204139775980,0,-2,0,1,-1,-2,-1,0
1517204139775980,-1,-1,-1,-1,-2,-2,-1,1
1517204139788989,1,-1,-1,-3,-3,-1,-2,0
1517204139788989,-2,-3,-2,-1,-1,-1,-1,-1
1517204139795996,-2,-1,-2,-2,-1,1,-1,0
1517204139795996,-2,-2,-3,-1,0,-3,1,-1
1517204139812507,-1,0,0,-1,-1,-4,-1,-1
1517204139812507,1,0,-1,-2,1,-1,-1,-1
1517204139813511,-2,0,-1,0,-1,-1,-1,0
1517204139813511,0,1,0,-2,0,0,1,-1
1517204139834521,-2,0,0,-2,-3,-1,-1,-1
1517204139834521,0,-2,-2,-1,-2,-1,-1,-1
1517204139836022,-1,0,-2,-1,-1,-1,-1,-1
1517204139836022,0,-1,-1,-2,0,-1,-2,-1
1517204139849034,-2,0,-2,1,0,-1,-2,-1
1517204139849034,-2,-1,-1,-1,-2,0,-2,-1
1517204139856055,0,-1,-1,-2,-1,-1,-1,1
1517204139856055,0,-1,-2,-2,-1,0,0,-1
1517204139872054,0,-2,-2,-2,-1,-1,-1,-2
1517204139872054,0,-2,-1,0,1,-2,1,-1
1517204139874550,-3,-1,-2,0,0,0,-2,-3
1517204139874550,0,1,-1,-1,-1,-1,-2,-1
1517204139895065,-1,-1,-2,-3,-1,-2,1,-1
1517204139895065,-2,0,0,-2,-1,-1,-1,-1
1517204139896565,0,-1,-1,-1,-1,-1,0,-1
1517204139896565,-1,-1,-1,0,0,0,-1,-1
1517204139909086,-1,0,-2,0,0,0,-2,0
1517204139909086,-1,0,-1,0,-2,-1,-1,-1
1517204139916093,-1,-1,1,-2,-2,-2,-1,-1
1517204139916093,0,-1,-1,-1,-2,-2,-1,-2
1517204139932111,-1,-2,0,-1,-1,-1,1,0
1517204139932111,-1,-1,-1,0,-2,-1,0,0
1517204139933592,-1,0,-1,0,-1,0,-3,-1
1517204139933592,-2,-1,-1,0,0,-2,-1,-2
1517204139954631,0,-1,-2,0,0,-1,-1,-1
1517204139954631,-2,1,-2,0,1,-1,-1,0
1517204139956117,-1,-1,-1,-1,-2,-2,0,-2
1517204139956117,0,0,-1,-1,-1,1,-2,0
1517204139969126,-1,-2,-1,-1,-1,-1,0,-2
1517204139969126,-1,-2,-2,-2,0,-2,-2,-1
1517204139976121,0,-1,-2,-1,-1,-1,0,0
1517204139976121,-2,-2,-1,-1,1,-2,-1,-2
1517204139992149,-1,0,-1,-2,-1,0,-2,-2
1517204139992149,-1,-2,-1,-1,-2,-1,-1,-1
1517204139993635,2,-2,0,0,1,0,0,0
1517204139993635,-1,-2,1,0,0,-1,-1,0
1517204140014651,0,-2,0,0,0,0,0,-2
1517204140014651,-2,-2,-2,-2,0,-1,-1,-1
1517204140016150,-2,0,-2,-1,-3,-2,-1,-1
1517204140016150,-2,-2,0,-1,-3,-1,0,0
1517204140029159,-1,-2,-1,0,-1,-3,-1,0
1517204140029159,-1,-2,0,0,-1,-1,-2,-1
1517204140035668,-2,-1,-1,-2,-4,-1,-2,0
1517204140035668,-1,0,-2,-2,0,-1,0,-1
1517204140052676,0,0,-1,-3,-2,-1,-1,-1
1517204140052676,0,-1,-1,-2,-1,0,0,-2
1517204140055177,-1,-2,-2,-1,1,-2,-1,-1
1517204140055177,-2,-2,-1,0,-3,-1,0,-1
1517204140074706,-1,0,-2,-1,-1,-2,-1,-1
1517204140074706,0,-1,-2,0,-1,-1,-1,-1
1517204140076192,-1,-2,-2,-1,-2,-1,0,0
1517204140076192,-1,-1,0,-1,-1,0,-2,0
1517204140088213,-1,-1,1,-1,0,-1,-1,0
1517204140088213,-1,0,-1,-1,-1,-1,0,-1
1517204140097208,-2,0,-2,0,0,1,0,0
1517204140097208,-1,-1,-3,-1,-1,-2,-1,-2
1517204140112218,-2,-3,-2,0,-2,-2,-1,0
1517204140112218,-1,0,-1,-2,-1,-1,-1,-1
1517204140113720,-2,0,1,-2,-1,0,-1,-2
1517204140113720,-1,-1,-2,-1,-1,0,-1,1
1517204140134749,-1,-3,-2,-2,1,-1,-2,1
1517204140134749,-1,-1,-1,-1,-2,-1,0,-3
1517204140136247,-1,-2,-1,-1,-2,-1,-1,0
1517204140136247,0,0,0,-3,-2,-1,0,-2
1517204140148247,0,1,-2,0,-1,-2,-1,-1
1517204140148247,0,-2,-2,-1,-1,-2,-1,-2
1517204140157250,0,-2,-2,-1,-1,-1,-1,-2
1517204140157250,-2,-2,-2,-3,-2,-1,-1,0
1517204140172270,-1,-1,-1,-2,0,-1,1,-2
1517204140172270,-2,-2,-1,-2,-1,0,0,-1
1517204140174777,-1,0,-2,0,0,-1,-1,-1
1517204140174777,-1,-2,-1,-1,-1,-2,-2,-1
1517204140194776,-1,-2,-2,-2,-3,0,-2,-1
1517204140194776,-1,-1,-1,-1,0,-1,-2,-1
1517204140196278,-1,-1,-1,-1,-1,-2,-1,-2
1517204140196278,0,-1,-2,0,0,1,-1,-2
1517204140208286,-2,0,-2,-1,-1,-1,-1,-1
1517204140208286,0,0,-2,0,-1,-2,-1,-1
1517204140217292,-3,-1,-1,-1,0,-2,-1,-3
1517204140217292,-1,-1,0,-1,-3,0,1,-2
1517204140232303,-1,-1,-1,0,0,1,-1,-1
1517204140232303,-1,-1,-1,-2,-1,0,-1,-2
1517204140233804,0,-2,-1,-1,0,-1,-1,-2
1517204140233804,0,-1,0,-1,0,-2,-1,0
1517204140254829,-1,0,0,-3,-1,0,0,0
1517204140254829,-2,-1,-1,-1,-2,-1,-2,2
1517204140256331,-1,-2,-3,-1,0,-1,-1,-1
1517204140256331,0,-1,-1,0,-2,-3,-3,-1
1517204140268328,-1,-1,-2,0,-2,0,0,-2
1517204140268328,0,0,-2,-1,-1,-2,-3,-2
1517204140277335,-1,-2,0,-1,0,-1,0,-1
1517204140277335,-3,-2,-1,-2,0,-1,-1,-1
1517204140292364,-2,0,-2,-1,1,0,-2,-1
1517204140292364,-1,-1,-2,0,-2,-1,0,-1
1517204140293848,0,0,-2,-1,-1,-2,-1,1
1517204140293848,0,-1,-3,-1,0,-2,-1,-2
1517204140314871,-1,-3,-1,0,-1,0,-1,0
1517204140314871,-1,-1,-1,-1,-1,0,-2,-1
1517204140316379,-1,-1,0,-1,-1,0,-2,0
1517204140316379,-1,-1,-1,-1,1,-1,1,-2
1517204140328371,0,-2,-3,-1,-2,0,0,0
1517204140328371,0,-1,-1,-3,-1,-2,0,0
1517204140337377,-1,-1,-2,-1,-2,0,-1,-3
1517204140337377,-3,-2,0,0,-1,-1,-3,0
1517204140352403,-2,0,-1,-1,-1,-2,0,-1
1517204140352403,-2,-1,0,0,-2,-3,-1,-1
1517204140354905,0,0,-1,-4,-1,-1,-2,-1
1517204140354905,-1,-2,-1,-1,-2,-1,-1,0
1517204140374420,1,0,0,-1,0,-4,0,0
1517204140374420,-1,-1,0,0,-1,0,0,0
1517204140376405,1,0,0,1,-1,-3,0,-1
1517204140376405,-1,1,-2,-1,-2,1,-2,0
1517204140388423,-1,0,0,-1,-3,-2,-2,-1
1517204140388423,-1,-1,0,-3,-1,-3,0,1
1517204140397420,-1,-1,-3,0,-1,-1,-1,-2
1517204140397420,0,-2,-1,-2,0,0,1,-1
1517204140412430,-1,-2,0,-1,0,-2,-2,-2
1517204140412430,-1,0,-1,-1,-1,0,0,-3
1517204140413932,-2,0,0,-1,-2,0,1,1
1517204140413932,0,-2,-2,-1,-1,-2,0,-1
1517204140434954,-2,-2,-2,-1,0,-1,0,-1
1517204140434954,0,0,-2,1,-2,-2,-2,-1
1517204140436449,-1,-2,-1,-2,-1,-3,-2,0
1517204140436449,0,-1,0,0,0,-1,-2,-2
1517204140448471,-2,0,-1,-1,-1,-1,-1,-1
1517204140448471,-2,-1,-3,-2,-1,1,-2,1
1517204140457462,0,-2,-1,0,-1,0,-2,0
1517204140457462,-1,0,-1,-1,-1,-1,0,0
1517204140472987,-1,-1,-1,-1,-1,-1,-2,-2
1517204140472987,-2,-2,-2,-2,-1,0,-2,-1
1517204140474483,-2,-1,-2,-1,1,0,-1,0
1517204140474483,0,-1,-1,-1,-1,-1,-1,-1
1517204140494990,1,0,-1,-2,-1,-2,-1,0
1517204140494990,-1,1,-2,-1,-1,-2,0,-2
1517204140495989,-1,-1,-2,-1,0,-1,0,-3
1517204140495989,-2,-1,-1,-1,-1,-2,-1,-1
1517204140517004,-1,-1,0,0,-1,-1,1,0
1517204140517004,-1,-2,-1,0,-1,-1,-1,-1
1517204140518505,-3,-2,-1,-2,-2,1,-1,1
1517204140518505,0,0,-1,-2,0,-1,0,0
1517204140532016,-3,0,0,-2,-1,1,-1,-1
1517204140532016,-1,-1,-1,-1,-1,0,-1,-1
1517204140534016,0,-1,-1,1,-2,-1,-1,-1
1517204140534016,-2,0,-1,-1,-1,-1,-2,-1
1517204140554530,-1,-2,-2,-3,-2,0,-1,-3
1517204140554530,0,-1,-1,0,0,-1,0,-2
1517204140556032,-1,0,-2,-1,-2,-1,-2,-2
1517204140556032,0,-2,-1,-1,-1,-2,-2,-2
1517204140577047,1,-2,-2,0,0,-3,-1,0
1517204140577047,-2,-2,0,-1,-1,-2,0,0
1517204140578550,-1,-2,0,-1,-1,1,0,-2
1517204140578550,-1,-1,-2,-1,-1,0,0,0
1517204140592088,0,-2,-2,-1,-1,0,-1,-3
1517204140592088,0,-1,-2,-3,0,-1,-2,-1
1517204140594061,0,0,-3,-1,-2,-1,-2,0
1517204140594061,0,0,-1,0,-1,-1,0,0
1517204140615074,0,-1,-2,1,0,-1,-1,-2
1517204140615074,0,-2,-2,-1,-1,-3,-2,0
1517204140616075,-1,-2,-2,-1,0,-1,-1,-2
1517204140616075,-1,-1,-2,-2,-1,0,-3,-1
1517204140637101,-1,-1,-2,-4,-1,-1,-2,0
1517204140637101,-1,-1,-3,0,-1,-1,-1,-2
1517204140638600,0,0,-2,0,-1,-2,-1,-2
1517204140638600,0,1,-1,-1,-2,-2,0,-2
1517204140651609,-1,0,-1,-2,-1,-1,0,0
1517204140651609,-1,-1,-2,-2,-2,0,-3,-1
1517204140658105,-2,-3,0,-1,0,-3,-1,-1
1517204140658105,-1,-1,0,-1,-1,0,-1,-1
1517204140674619,-1,-2,-1,0,-1,0,-1,-2
1517204140674619,0,0,-1,-2,-2,0,1,-1
1517204140676126,-2,0,0,0,-1,-1,-1,-1
1517204140676126,1,-4,-1,-3,-1,-1,-1,0
1517204140697635,-1,-2,-2,-1,0,-2,-2,-1
1517204140697635,-1,0,-1,-1,-1,-1,0,-1
1517204140698644,-1,0,0,-1,-1,-2,0,0
1517204140698644,-2,0,-2,0,0,0,-2,-1
1517204140711642,0,0,-3,0,-2,-2,-1,0
1517204140711642,-1,-2,0,-2,-1,-2,-3,-2
1517204140718217,0,0,0,-1,-1,0,-1,1
1517204140718217,-1,-1,-1,-1,-1,0,0,0
1517204140734719,-2,-1,-1,0,-1,-1,-1,0
1517204140734719,1,-2,-2,-2,0,0,0,-1
1517204140736220,-1,-1,-2,-2,-3,-2,-1,-1
1517204140736220,0,-3,-2,-1,0,0,0,-2
1517204140757244,-1,-2,1,-1,-2,0,-1,1
1517204140757244,-2,-1,-1,0,-1,-1,-1,0
1517204140758745,0,-1,-2,-3,0,-1,-1,1
1517204140758745,-2,-2,-1,-2,-2,0,0,0
1517204140771745,-1,-2,0,-2,-2,0,-2,-3
1517204140771745,-1,-1,-2,0,0,-2,-1,-1
1517204140778251,-1,-1,0,-1,-2,-1,2,-3
1517204140778251,-1,0,-1,-1,-2,-2,-1,-1
1517204140794762,-2,-1,-2,-2,-1,-2,-2,-1
1517204140794762,-1,-3,0,0,-3,1,-2,-3
1517204140796264,-1,-1,-2,0,-1,-1,-2,-1
1517204140796264,-2,-1,-4,0,-2,-2,-1,0
1517204140817290,-1,0,0,-1,0,-2,-1,-2
1517204140817290,-1,0,-1,0,0,-1,-1,0
1517204140818791,-3,0,-1,0,0,-1,-1,-1
1517204140818791,0,-2,1,-1,-1,-1,-2,-2
1517204140831788,-1,-1,0,-1,1,-1,-1,0
1517204140831788,0,1,-1,-1,-1,2,0,0
1517204140838293,-1,-2,-2,0,0,-1,-1,0
1517204140838293,-2,-1,0,-2,0,-2,0,-2
1517204140854804,-2,-1,-2,-1,-1,-2,0,-2
1517204140854804,-2,-2,-1,0,-1,0,0,-2
1517204140857306,0,-1,-1,-2,-1,-1,1,-1
1517204140857306,-1,0,-2,-1,0,0,-2,-2
1517204140876342,0,1,-1,1,-1,-2,-2,0
1517204140876342,0,-1,-2,-1,-3,-4,0,0
1517204140884840,-1,-1,-2,-2,0,-1,0,-1
1517204140884840,-1,-2,-1,0,-1,-1,-2,-1
1517204140891366,0,-2,0,-3,0,0,-1,-1
1517204140891366,-1,-1,-1,-3,-2,1,0,0
1517204140898348,-2,-2,0,0,-2,-1,-3,0
1517204140898348,0,-2,-1,-1,-2,0,0,1
1517204140914861,-1,-1,-1,-1,-2,-1,1,-2
1517204140914861,-1,-2,-1,1,0,-3,-1,-1
1517204140916362,-1,-1,-1,0,-1,-2,0,0
1517204140916362,-1,0,0,-2,-1,-1,-1,-2
1517204140936885,0,-1,-1,-1,-1,-1,-1,-2
1517204140936885,-1,-1,-1,-3,0,-2,-1,-3
1517204140938888,-1,-2,-2,0,-1,0,-1,-2
1517204140938888,-1,0,0,-1,0,0,-2,-1
1517204140951387,-2,0,-1,-2,-2,-1,-2,-1
1517204140951387,-1,-1,2,-2,-2,-2,-2,0
1517204140958391,-1,-1,0,-1,-2,-2,-1,-1
1517204140958391,0,-2,-3,-3,0,0,-1,-1
1517204140974402,-2,-3,-4,-1,-2,-1,0,-2
1517204140974402,0,-1,-2,0,-1,-1,-2,-2
1517204140976410,-1,1,-2,0,-2,-1,-1,-2
1517204140976410,-1,-1,1,0,-1,-1,-1,-2
1517204140997920,-1,-1,-2,-1,0,-2,0,-2
1517204140997920,0,-1,0,-1,-2,-1,-1,1
1517204140999424,1,-3,-2,-2,0,-1,-2,-2
1517204140999424,0,-1,0,-1,0,-2,0,-1
1517204141010928,-2,-2,-2,0,0,0,-2,-1
1517204141010928,-1,0,0,0,-1,-1,0,0
1517204141019935,0,-1,-2,-2,-1,-1,-3,-1
1517204141019935,-3,0,-1,1,-1,-2,-2,-2
1517204141034446,0,-2,0,-2,-1,-2,-1,-1
1517204141034446,-1,-1,-1,-2,1,-1,0,-1
1517204141035945,-2,-1,-1,-1,1,0,0,-1
1517204141035945,-1,-1,-2,-1,-1,-1,1,0
1517204141057009,-2,-1,-1,0,-1,0,0,-1
1517204141057009,-3,-2,-4,0,-1,-2,0,-3
1517204141058506,-1,-2,0,-1,-1,-1,0,0
1517204141058506,-1,-2,0,-1,-2,0,0,0
1517204141071016,-2,-1,-1,-1,0,-1,0,0
1517204141071016,-2,-1,0,0,-1,-1,-2,1
1517204141079523,-1,-1,0,-2,-1,-1,0,-2
1517204141079523,-1,-1,-2,-1,-1,-1,-1,-2
1517204141094531,1,-2,-2,-2,-2,0,-2,0
1517204141094531,-2,0,-2,-2,-1,-1,1,0
1517204141096033,-1,-1,0,-1,-1,0,-2,0
1517204141096033,-3,-1,-1,-1,0,-2,0,-2
1517204141117047,-1,0,0,-1,-1,-1,1,1
1517204141117047,-1,0,-2,-1,0,0,0,-2
1517204141118549,0,0,-3,0,0,-1,-2,0
1517204141118549,0,-1,0,-1,-2,-1,-2,-2
1517204141131068,-2,-2,-1,1,-1,0,-1,-2
1517204141131068,-1,-1,0,0,-1,-1,-2,-2
1517204141139573,-1,0,0,0,-2,-2,-2,1
1517204141139573,-1,-1,-4,-2,-1,-1,-2,0
1517204141154583,-2,-2,0,1,0,-1,0,0
1517204141154583,-2,-2,-1,-1,-1,-1,-1,-1
1517204141157077,-2,-2,0,-2,-1,-1,0,-2
1517204141157077,2,-1,-1,-1,-2,-2,-2,0
1517204141177132,0,0,0,0,0,0,-2,-2
1517204141177132,-1,-1,-1,-1,0,-1,1,0
1517204141178634,-1,-2,-1,-3,-1,-1,0,0
1517204141178634,-2,-1,0,0,-1,-1,0,-1
1517204141190671,-1,-2,-2,-3,-3,-1,-1,0
1517204141190671,-1,-2,1,0,-2,-1,-2,0
1517204141199654,-1,-1,-1,0,0,-1,-2,-2
1517204141199654,-1,0,0,-2,-2,-1,-1,1
1517204141222178,-4,-1,-2,-1,-1,1,-1,-2
1517204141222178,0,0,0,-2,-1,1,-1,1
1517204141223675,-1,-1,-2,-1,-1,-1,0,0
1517204141223675,-1,-1,-1,-2,-2,-2,0,-3
1517204141237184,-1,-2,-2,1,0,-1,-1,-1
1517204141237184,-1,-1,-2,0,-1,-2,-1,-1
1517204141238685,-1,-1,0,-1,0,-1,0,-2
1517204141238685,-1,-2,-1,-1,0,0,0,-1
1517204141250693,-1,-1,-1,-2,-1,-1,0,-1
1517204141250693,1,0,-2,-2,-2,-2,-4,-2
1517204141259690,-1,0,-1,0,-2,-1,-1,-1
1517204141259690,0,1,-3,-1,-2,-1,-1,-1
1517204141275211,-3,-1,-2,-1,-3,-2,0,-2
1517204141275211,-2,-1,-2,-1,0,0,0,-2
1517204141277203,-2,-2,-1,0,-2,-2,-2,-1
1517204141277203,-1,-1,-2,-1,-1,-2,-1,1
1517204141297231,-1,-1,-1,-3,0,-2,-2,-2
1517204141297231,-2,0,-1,-1,-1,-1,-1,-1
1517204141298720,0,-2,-1,-1,-2,-1,0,-1
1517204141298720,-1,0,0,-1,0,-1,0,0
1517204141310727,-1,0,-1,-1,-1,0,-3,-2
1517204141310727,-2,-1,0,-2,0,-2,-1,-2
1517204141319732,-2,-2,-1,-2,-2,0,-2,-1
1517204141319732,-2,-1,-1,0,-1,-1,-2,0
1517204141334757,-1,-2,0,-1,-1,-1,-2,1
1517204141334757,0,-2,-1,-2,-1,-1,-1,1
1517204141336256,-2,0,0,-1,-1,-1,-1,-2
1517204141336256,-2,-3,-2,0,0,-2,-1,-1
1517204141357269,-1,0,-1,-1,0,-1,1,0
1517204141357269,-1,-3,-2,-3,-1,-2,0,-2
1517204141358770,0,0,-1,-1,-1,0,-1,0
1517204141358770,-2,-1,0,0,-1,0,-2,-1
1517204141370783,1,0,0,-1,-1,0,0,0
1517204141370783,-3,-1,-2,0,-3,-1,1,0
1517204141379776,1,-2,-2,0,1,-1,0,-1
1517204141379776,-1,-2,0,-2,-2,-1,-1,-3
1517204141394785,-1,0,-3,0,-3,-3,-1,-1
1517204141394785,-1,1,0,0,0,0,-1,-1
1517204141396288,-1,-1,-1,-2,-2,-2,0,-2
1517204141396288,-1,-1,0,-1,-1,-1,0,0
1517204141417301,0,-2,-1,-1,-2,-1,0,0
1517204141417301,-2,1,-1,-1,-1,-1,0,0
1517204141418820,0,-2,-2,0,-1,0,-2,-1
1517204141418820,0,0,-2,-2,0,-1,-1,-1
1517204141439819,-1,0,-1,-2,-1,0,-2,0
1517204141439819,0,0,-1,-1,-1,0,-1,-1
1517204141441333,-1,-1,-1,-1,-1,-1,-2,0
1517204141441333,0,-1,-1,-3,-1,0,0,-3
1517204141454831,-1,-2,0,-1,-1,-1,-1,0
1517204141454831,-1,-2,-2,-1,-1,-2,-2,-1
1517204141456329,-1,1,1,-2,-1,-2,-2,0
1517204141456329,0,-1,-2,1,-2,-1,-2,-1
1517204141477356,0,-2,-1,0,1,-1,-2,-1
1517204141477356,0,-2,0,-2,-2,-1,-1,-2
1517204141478846,-2,-2,-1,-2,-2,-3,2,-1
1517204141478846,-2,0,-1,-1,-1,0,-1,-1
1517204141499860,-1,-2,1,0,0,-1,0,0
1517204141499860,-1,-1,-2,0,-1,0,-3,-1
1517204141501361,-1,0,-1,-2,1,0,-2,0
1517204141501361,-1,-1,0,-3,-2,-1,-2,-1
1517204141514873,-1,1,1,-1,0,0,-1,-1
1517204141514873,0,-2,-1,-2,-1,0,-1,-1
1517204141516374,-2,-2,-3,0,-3,-2,1,0
1517204141516374,0,-2,-1,-1,-1,0,0,-2
1517204141536898,-1,-3,-2,-1,-1,0,-1,-1
1517204141536898,1,-2,-1,-2,0,-1,-2,0
1517204141538899,-1,0,-3,-2,0,-1,-2,-1
1517204141538899,-1,-2,-2,-2,0,-1,0,-1
1517204141559402,-2,-1,-2,0,-1,-2,0,-1
1517204141559402,-1,-2,-1,1,-2,-3,0,0
1517204141561407,-2,-2,0,0,-2,-2,-2,-1
1517204141561407,-2,-1,-1,-3,1,-1,-1,-1
1517204141575414,0,0,-2,-2,-3,-1,0,-2
1517204141575414,-1,0,0,-1,0,0,-1,-1
1517204141576915,0,-2,-2,0,-1,0,0,-1
1517204141576915,-2,0,-1,-2,-2,0,0,-2
1517204141597430,-1,-1,-1,-2,-2,-1,0,-1
1517204141597430,-2,0,-2,-1,-1,-1,-2,0
1517204141598941,-1,-1,-2,-1,-1,0,-1,-2
1517204141598941,0,-1,-2,0,0,-2,0,-1
1517204141619444,-1,-1,0,-1,0,-2,0,0
1517204141619444,-2,-2,-1,-1,0,-2,-1,-1
1517204141621446,-2,0,0,-2,0,-1,0,-1
1517204141621446,-1,-1,-1,0,-1,-2,-2,-1
1517204141633957,-1,-1,-1,-2,-3,-2,-3,0
1517204141633957,-2,0,-2,-1,-1,-2,2,1
1517204141640978,-2,-1,-2,-2,1,0,-1,0
1517204141640978,-1,-1,-2,0,0,0,-1,0
1517204141656980,-2,-1,-1,0,-2,-1,-1,-2
1517204141656980,-1,-1,-1,0,-2,-1,1,-3
1517204141658482,0,-1,0,-2,-2,0,-1,-2
1517204141658482,-2,-1,-1,-2,-1,-2,-1,-1
1517204141679988,-1,0,-1,-1,1,-2,-2,-1
1517204141679988,-1,-1,-1,-3,-1,-3,-1,0
1517204141681006,0,-1,-1,0,-1,-3,0,-2
1517204141681006,-1,-3,-1,0,-3,-3,-1,-2
1517204141693999,-1,-1,-1,1,-1,0,-1,-2
1517204141693999,-2,-1,-2,0,-1,-1,0,-2
1517204141700501,0,1,0,0,0,0,-3,-2
1517204141700501,-1,0,-2,-2,-1,1,-1,0
1517204141717023,-2,-3,-1,-1,-1,-3,-1,0
1517204141717023,0,-1,-1,-2,-1,0,-1,-2
1517204141718514,0,-1,-1,-1,-1,-2,-1,0
1517204141718514,0,0,0,-2,-1,-2,0,-2
1517204141739539,2,-2,-1,-1,0,-1,-2,-1
1517204141739539,-1,-1,-1,-2,-2,-2,-2,-1
1517204141741031,-2,-2,-1,0,-1,-1,1,-1
1517204141741031,0,0,0,-1,0,-1,-1,-1
1517204141753039,0,0,-1,-1,-1,1,-2,-2
1517204141753039,1,-2,-3,-1,-1,-1,-2,0
1517204141761546,-2,-2,0,-2,-1,-4,-1,-2
1517204141761546,-3,-1,1,-2,-2,-1,-3,-1
1517204141776565,-1,0,-2,-2,-1,-2,0,-2
1517204141776565,-2,2,-2,-1,-1,0,1,0
1517204141777056,-2,0,-2,-1,-1,2,0,-2
1517204141777056,0,-2,-1,-1,-2,0,-1,-1
1517204141799073,-1,-1,-2,-2,0,0,-1,0
1517204141799073,0,-1,-1,-1,-1,-2,-1,-1
1517204141799575,0,-2,-2,-2,-2,-1,-1,-2
1517204141799575,-2,-1,-1,-1,-1,-1,-1,0
1517204141813581,0,0,-1,-1,-1,-2,-1,-1
1517204141813581,0,-3,-1,-2,-2,0,-1,-1
1517204141821587,0,0,-2,0,0,-2,-2,1
1517204141821587,1,-2,-2,-2,-2,0,0,-1
1517204141836618,-1,0,-1,-1,-1,0,-1,1
1517204141836618,-2,0,0,-1,0,-1,-2,0
1517204141837098,-1,0,-1,1,1,-1,-2,-1
1517204141837098,-1,1,0,-1,-1,-1,0,-2
1517204141858624,-2,0,-2,-2,0,-2,0,-2
1517204141858624,-1,-2,-1,-2,1,0,-1,-1
1517204141859624,1,-1,-2,-1,-1,-1,-2,-1
1517204141859624,-1,-1,-1,-1,-1,-1,-2,1
1517204141873124,-2,-1,-1,1,-1,1,-2,-3
1517204141873124,-1,-1,-2,0,-1,-1,-1,-3
1517204141881642,-1,-1,-2,-2,-2,-2,-1,-1
1517204141881642,-1,0,-2,0,0,0,1,-2
1517204141896668,-2,-2,0,-1,-2,-2,0,-1
1517204141896668,-1,-1,0,-1,-1,-2,-1,0
1517204141897158,-1,-2,-1,0,-1,-1,-1,0
1517204141897158,1,-2,-1,-3,0,-2,-2,-2
1517204141919161,0,-3,-2,-1,-1,0,-2,0
1517204141919161,-1,-2,-1,0,-2,-2,0,-2
1517204141919660,-1,-1,0,-1,0,-1,0,-1
1517204141919660,-2,-1,-2,-2,0,-2,1,0
1517204141933166,-2,-2,-2,0,-1,0,-1,0
1517204141933166,-1,-1,0,-1,0,0,0,1
1517204141941682,-1,-1,-2,-3,-2,0,-2,-2
1517204141941682,-3,-1,-1,0,-1,-1,-1,-1
1517204141956693,-1,-1,-1,-3,-1,-2,0,-2
1517204141956693,0,0,-1,-1,-1,-1,0,-1
1517204141957184,-3,0,0,-1,0,-1,-1,-1
1517204141957184,-1,-1,-1,1,-2,0,-1,-1
1517204141979705,0,0,0,0,0,-2,-1,-1
1517204141979705,-1,-2,-2,0,-2,0,-1,-1
1517204141980201,0,-2,1,0,0,-2,0,-1
1517204141980201,-2,-1,-2,-2,-1,-1,0,-1
1517204141994711,-1,0,-1,0,0,-2,-1,0
1517204141994711,-1,0,-1,0,1,-1,-1,-2
1517204142001716,-1,-2,-1,0,-1,0,-1,-2
1517204142001716,2,-2,-1,-1,-2,-3,-2,-1
1517204142016728,0,-1,-1,0,-1,-2,0,-1
1517204142016728,0,-1,-3,-1,-2,1,-2,0
1517204142017225,-2,0,-2,-1,-1,-1,-2,-1
1517204142017225,0,-1,-1,-1,0,0,-2,-2
1517204142038740,0,-1,-1,-2,-1,0,-1,-2
1517204142038740,-1,-1,-1,-1,-1,-2,-2,0
1517204142039741,0,1,-1,-2,-1,0,0,-1
1517204142039741,-1,-1,-2,-2,-1,1,0,0
1517204142053265,-2,-2,-2,0,-1,-1,0,-1
1517204142053265,-1,-4,-1,-2,-2,-3,-2,-1
1517204142061757,-1,-2,-1,-1,-1,-1,-2,-1
1517204142061757,0,1,0,-1,0,0,1,-2
1517204142076269,0,0,-1,-2,-1,-1,-1,-1
1517204142076269,1,-1,-1,-1,0,-2,0,0
1517204142077269,0,-2,-2,-1,-1,-2,-3,0
1517204142077269,-2,-2,0,0,0,-2,-4,-2
1517204142098783,-2,0,0,0,1,-3,-1,-1
1517204142098783,-2,-1,-1,-2,-3,1,-1,-2
1517204142099784,-1,0,-3,-1,1,0,1,-2
1517204142099784,-2,0,1,-1,-2,-2,1,1
1517204142113295,-1,-1,0,-1,-1,-1,-1,-2
1517204142113295,-2,0,0,-1,0,-1,-1,-1
1517204142121299,-1,-2,0,0,-2,0,-1,0
1517204142121299,-2,-2,0,1,-1,-1,-3,1
1517204142136320,-1,-1,-2,-2,-1,0,-2,-1
1517204142136320,0,0,-1,0,-1,-2,-1,-1
1517204142137320,-1,0,-1,-2,1,-1,0,-2
1517204142137320,-1,-1,-1,-1,-1,-1,-1,-1
1517204142158838,-1,-1,-2,-1,-1,-1,-3,-2
1517204142158838,0,-1,0,1,0,1,-2,-3
1517204142159838,0,-1,-2,-1,-2,-1,-1,1
1517204142159838,-1,-1,-3,-2,-1,-1,-2,0
1517204142173348,-2,0,-1,-1,-1,0,0,0
1517204142173348,-2,-2,-1,-2,0,0,1,-2
1517204142181363,0,0,-1,-1,-2,-3,0,-2
1517204142181363,1,-1,-2,-2,-1,1,-1,0
1517204142196856,-1,0,0,-2,1,-2,-1,1
1517204142196856,-2,1,0,-2,-2,-3,-1,1
1517204142197353,-1,0,-1,-2,-2,0,-2,-1
1517204142197353,0,-2,0,0,-1,-2,0,-1
1517204142218870,0,-2,-1,-1,-1,-2,0,0
1517204142218870,-2,-2,0,0,1,-3,0,-2
1517204142219871,-1,-1,-1,-2,0,0,-1,-1
1517204142219871,-1,-1,0,1,-1,-1,-2,-1
1517204142233400,0,-1,-1,-2,-2,0,1,-1
1517204142233400,-1,-1,-3,0,0,-1,0,-1
1517204142241397,-1,-1,-2,-1,-1,-3,-1,-1
1517204142241397,0,0,0,-2,1,0,-2,-1
1517204142256407,-1,0,0,0,-2,-1,-1,-1
1517204142256407,-1,-1,0,-2,-2,0,0,0
1517204142256896,0,0,-1,-1,-1,0,-1,1
1517204142256896,0,-1,-1,-2,2,-1,0,-2
1517204142278911,-1,-1,-2,-2,-1,-1,-3,-1
1517204142278911,-1,-1,-1,-1,1,-1,-2,0
1517204142279414,1,-1,-1,-3,-1,-1,0,-1
1517204142279414,-1,-2,-2,-2,0,-1,-1,-1
1517204142293421,0,-2,-2,-2,1,-1,0,-1
1517204142293421,1,0,-1,-2,-1,-3,-2,0
1517204142301427,-1,-2,-1,-2,-1,-2,-1,-1
1517204142301427,-2,-1,-1,-1,0,0,-1,-1
1517204142316511,-1,1,0,0,-1,0,0,0
1517204142316511,0,-1,0,-1,-2,0,-2,-1
1517204142317010,-2,-1,-1,0,-1,-3,-1,-1
1517204142317010,-2,-2,-1,-1,-1,-1,-2,-2
1517204142339038,-2,0,-2,-1,-1,-2,-1,-2
1517204142339038,0,-2,-2,-1,0,0,-1,-2
1517204142339527,-1,0,-3,-1,0,0,-2,0
1517204142339527,-2,-2,1,-1,-1,-1,-1,-1
1517204142362545,0,-1,0,1,-1,0,-2,-1
1517204142362545,-1,-1,0,-2,-2,1,-1,-1
1517204142363043,-1,-1,0,0,-1,-2,-2,-2
1517204142363043,0,0,-1,0,-4,0,-1,-1
1517204142376570,0,0,-1,-1,-1,-2,-2,1
1517204142376570,-1,0,-1,0,-1,-2,1,1
1517204142377056,-1,-2,-2,-2,-1,0,-1,0
1517204142377056,0,-1,-1,-2,-1,-1,0,-1
1517204142399071,-1,-2,1,-3,-1,-3,0,-2
1517204142399071,-1,-1,-1,0,-3,-1,-2,-1
1517204142399572,-2,-1,0,0,-1,-1,0,-2
1517204142399572,-2,-1,-2,-1,-2,0,-1,0
1517204142422084,0,-1,-3,-3,1,0,-2,-1
1517204142422084,-2,0,-2,0,-2,-1,-2,0
1517204142423085,0,-2,0,-1,-1,-1,-1,-2
1517204142423085,0,-3,-2,0,-1,0,-1,-2
1517204142436604,-1,-2,-1,0,-2,-2,-1,-1
1517204142436604,-2,-1,-1,-1,-1,-1,0,-1
1517204142437096,-1,-1,-1,-1,-2,0,-2,-1
1517204142437096,-1,0,-1,0,-2,-2,-1,-1
1517204142458620,-1,-2,-1,-3,0,1,0,-1
1517204142458620,-1,0,-1,1,-1,-1,0,-4
1517204142459611,-2,0,-1,-1,-2,-1,-2,1
1517204142459611,0,0,-1,-1,0,-1,0,-1
1517204142482127,-2,-1,-1,-1,-4,-1,-1,0
1517204142482127,0,0,0,-3,-1,-1,-1,-1
1517204142483128,0,-1,-1,-2,1,-2,-1,-2
1517204142483128,-1,-1,-1,0,0,0,0,0
1517204142496639,-1,-1,-1,0,0,-1,0,0
1517204142496639,-2,-2,-2,0,0,-2,0,0
1517204142497142,-1,-1,-1,-1,-1,-2,0,0
1517204142497142,-1,0,-3,0,-1,-2,-2,-2
1517204142518656,-2,-3,-2,-2,0,0,-1,-1
1517204142518656,0,-2,-1,-1,-1,1,-2,1
1517204142519662,-2,0,-2,0,-2,1,-1,-1
1517204142519662,-1,-1,0,-1,-1,-2,-2,-1
1517204142542189,-1,1,1,-2,-1,0,-2,-2
1517204142542189,-2,-2,-1,-1,0,0,-1,-1
1517204142542671,0,0,1,0,0,0,0,-2
1517204142542671,-1,-1,-1,-2,-2,-1,0,-1
1517204142556228,-2,-2,-3,0,-3,0,-1,0
1517204142556228,1,-1,-1,-2,-1,-2,-2,-1
1517204142557215,-1,-2,-1,-3,-2,-1,-2,-2
1517204142557215,0,-2,-1,-2,-1,-1,0,0
1517204142579231,-1,1,-1,0,-1,-2,0,-2
1517204142579231,-2,-2,-1,0,-1,0,-1,-1
1517204142579732,-1,-2,-2,0,-1,0,-1,-1
1517204142579732,-1,1,0,0,-2,-1,1,-2
1517204142609767,-1,-1,-1,-1,0,2,1,-1
1517204142609767,-2,-2,-1,-2,-1,-1,-1,-1
1517204142610253,-1,-2,-1,1,0,0,-1,0
1517204142610253,-2,0,-3,0,-1,-2,-2,-2
1517204142616762,0,-2,-1,0,0,-2,-1,-1
1517204142616762,-1,-1,0,-1,-2,0,-1,-1
1517204142617258,-1,-3,-1,-2,-1,-1,0,-1
1517204142617258,-2,-2,1,0,0,0,0,0
1517204142638775,-1,-2,1,1,-2,-3,0,-2
1517204142638775,1,-1,-2,-1,-1,-1,-1,-4
1517204142639773,-2,-1,-3,0,-2,-1,0,0
1517204142639773,-1,0,-3,-2,0,-2,0,0
1517204142662288,-2,0,0,-3,0,-2,0,-1
1517204142662288,-1,0,-2,-1,-1,-1,-1,-1
1517204142662790,-1,0,-1,-1,-1,-3,-1,-2
1517204142662790,-1,-3,-1,-1,-1,-1,-2,0
1517204142676321,-3,-1,-3,-1,-1,-2,-3,-1
1517204142676321,-2,0,0,-1,0,-2,-1,-1
1517204142677299,-1,-1,-4,-2,-2,-1,-1,0
1517204142677299,-1,-2,-2,-3,-2,-2,-1,-2
1517204142699335,1,0,-1,-1,-2,-2,-1,0
1517204142699335,-1,1,-1,-1,-2,-1,0,-1
1517204142699816,-2,0,0,-1,-1,-1,-1,-2
1517204142699816,-1,-1,0,1,-1,-2,0,0
1517204142722341,-1,-1,-2,-2,-1,-1,0,0
1517204142722341,-1,0,-3,-1,-1,0,-1,-3
1517204142722841,-1,-1,-1,0,-1,-1,0,0
1517204142722841,0,0,-1,-1,0,0,-1,-2
1517204142736354,-2,-1,-1,-1,0,2,-1,1
1517204142736354,-1,-1,-2,0,-1,0,-1,1
1517204142737355,0,-1,-1,-1,-2,0,-2,-3
1517204142737355,-1,0,0,-3,-2,-1,-2,-2
1517204142758857,0,-1,-1,0,-2,-1,0,-3
1517204142758857,-1,0,0,-1,-1,-1,-2,-1
1517204142759358,-2,-2,0,0,1,0,-1,-4
1517204142759358,-2,-1,-4,0,0,-2,-1,0
1517204142782410,-2,1,-1,-2,-2,1,-1,-1
1517204142782410,-2,-3,-1,-1,0,-2,0,-2
1517204142782912,-1,0,-1,0,-2,-1,0,1
1517204142782912,-3,-1,-2,-2,0,-1,0,-1
1517204142796424,-1,-1,-1,1,-1,-1,-1,1
1517204142796424,0,0,0,-1,-2,-1,-2,0
1517204142797424,0,0,-1,-2,0,0,0,2
1517204142797424,0,-1,0,-2,-1,-1,-1,-2
1517204142826944,1,-1,-2,-2,-1,-2,0,-2
1517204142826944,-3,-4,-1,0,-1,0,-1,-1
1517204142827945,-1,-2,-1,0,-1,-2,-2,-4
1517204142827945,0,-1,0,0,-2,-1,-2,0
1517204142841957,1,2,-2,0,-1,-2,-1,-1
1517204142841957,0,0,-2,-2,-1,-1,-1,0
1517204142842955,-2,-1,-1,-1,0,-1,-1,-1
1517204142842955,-1,0,0,-1,1,-1,2,6
1517204142856464,1,0,-1,-2,-2,-1,-3,-9
1517204142856464,-1,-3,-3,-1,-1,-1,-2,-2
1517204142856966,-2,0,-1,-1,-2,0,-1,-4
1517204142856966,-1,0,-1,-1,-2,0,0,-3
1517204142878980,1,-3,-2,0,-1,0,1,3
1517204142878980,-3,0,-1,-1,-1,-1,1,0
1517204142879482,1,0,-1,-2,-2,-3,-2,-2
1517204142879482,-1,-2,0,0,-2,0,0,-2
1517204142902010,-2,-3,-1,-3,-2,-1,-2,2
1517204142902010,0,-1,0,0,1,2,-1,-2
1517204142902998,7,4,-2,-3,-1,-1,0,3
1517204142902998,5,5,0,0,0,1,-1,-1
1517204142917009,-6,-2,-4,0,-1,-1,-3,-6
1517204142917009,-14,-14,-2,-2,-2,-3,-3,-2
1517204142924027,-1,-2,0,0,-1,2,5,10
1517204142924027,2,0,-3,-3,-2,-2,-3,-8
1517204142939023,-3,3,0,0,0,0,-1,2
1517204142939023,-2,5,-2,0,-3,-2,-3,-4
1517204142939523,-1,-1,0,-2,0,-2,0,-1
1517204142939523,-7,-4,-2,-1,-2,-4,-1,0
1517204142962040,1,-4,0,0,0,-1,0,1
1517204142962040,0,4,0,0,-2,-4,0,0
1517204142963041,-1,-5,-4,-3,-1,-2,-2,-4
1517204142963041,2,1,0,0,-2,0,-2,0
1517204142975589,-2,2,1,-1,1,1,-2,0
1517204142975589,1,-7,0,-2,-1,1,1,1
1517204142984096,-5,-1,-1,0,-4,0,-2,-3
1517204142984096,-4,-8,-2,-3,-2,-2,-3,-2
1517204142999108,7,3,-1,0,-1,-1,1,1
1517204142999108,3,-1,-2,-1,-1,-1,-1,-1
1517204142999609,-4,-3,-1,0,0,0,-2,-2
1517204142999609,-15,-3,-4,-3,0,0,-4,-3
1517204143022123,3,-2,-1,-1,-2,-1,-1,-1
1517204143022123,5,5,0,-2,0,-2,-2,-2
1517204143022623,-4,-5,1,-2,-1,-1,1,0
1517204143022623,4,4,1,1,0,-1,0,2
1517204143035645,2,-3,-4,-3,-1,-3,2,1
1517204143035645,-1,-4,-3,-1,-2,0,-7,-9
1517204143044139,1,5,-2,-1,0,-1,-2,-1
1517204143044139,2,-1,0,0,1,1,1,1
1517204143058650,-24,-11,-3,-2,-2,-2,-2,-4
1517204143058650,6,4,0,-1,0,1,3,3
1517204143059667,3,1,-2,-2,0,-2,-2,-5
1517204143059667,1,-5,-1,-2,0,-2,-1,0
1517204143082166,-1,-2,-1,0,-1,-2,-1,-3
1517204143082166,1,2,1,1,0,0,1,4
1517204143082667,4,1,0,-1,-1,-1,-4,-1
1517204143082667,-5,-4,1,-2,-2,0,0,-2
1517204143096176,7,2,-1,1,1,0,-1,-1
1517204143096176,-10,-2,-1,-3,-2,-2,-2,-3
1517204143103681,-13,-7,0,-1,-2,-2,2,6
1517204143103681,10,-2,-3,0,-1,0,-2,-7
1517204143118693,1,-1,1,-2,-2,1,-3,1
1517204143118693,-4,4,-1,-2,-1,-2,1,-2
1517204143119693,2,-2,-3,-1,0,-1,1,1
1517204143119693,-2,2,2,2,-1,0,2,4
1517204143142284,-9,-5,1,-1,-1,-2,0,-2
1517204143142284,5,2,-2,-3,-3,-1,-1,2
1517204143142759,-6,-6,0,-2,-1,-1,-2,-3
1517204143142759,-2,2,-1,-1,-1,-2,-1,0
1517204143155790,-3,-9,-3,-1,-1,0,0,-2
1517204143155790,-9,-7,-1,1,0,0,-2,0
1517204143163793,8,7,1,0,-2,0,-1,-3
1517204143163793,-4,-10,-4,-3,-2,-1,-3,3
1517204143178784,1,7,-2,-1,-4,-3,-3,-7
1517204143178784,4,-3,0,0,-1,-1,-4,0
1517204143179787,-8,-7,-5,-2,-2,-2,-2,-3
1517204143179787,2,2,0,0,0,-1,-3,-4
1517204143201800,-12,5,4,-2,-1,-2,1,3
1517204143201800,19,11,2,-2,0,0,0,1
1517204143202813,-24,-20,-3,-1,-1,-2,-4,-7
1517204143202813,-1,1,-4,-3,-1,-2,0,2
1517204143215813,-2,-6,-3,-1,0,0,-2,0
1517204143215813,1,1,-1,-1,-2,-1,-3,-3
1517204143223838,16,13,2,0,1,2,1,2
1517204143223838,-16,-8,-4,-3,0,0,-1,-4
1517204143238850,17,-4,-1,-2,-1,-1,-2,-5
1517204143238850,9,2,1,3,-1,0,5,12
1517204143239836,-5,3,-2,-2,-1,-1,-1,-8
1517204143239836,3,4,-5,-2,-1,-1,-2,0
1517204143262192,7,8,3,3,0,-2,0,2
1517204143262192,-5,-10,-2,-3,0,-1,1,3
1517204143262692,-2,1,3,0,-1,-1,1,2
1517204143262692,-5,-2,-1,1,0,-2,-3,-5
1517204143275742,3,3,-2,-3,-2,2,1,2
1517204143275742,21,-6,-6,-2,-2,-1,-2,-5
1517204143284207,-6,2,-2,-2,-3,-3,-4,-4
1517204143284207,-6,-9,-3,-4,-2,1,3,3
1517204143299224,3,-1,-1,5,-1,-2,-2,-4
1517204143299224,-22,-6,-2,1,-3,-3,-4,-9
1517204143299717,15,3,-1,-1,0,3,0,7
1517204143299717,-8,4,2,-2,-1,0,0,0
1517204143321772,0,2,0,-2,0,-1,2,4
1517204143321772,-11,2,0,-2,-1,-1,-1,-3
1517204143322746,4,-12,-2,0,0,0,-1,-2
1517204143322746,-1,5,1,-1,-1,-1,-1,3
1517204143344249,-8,-12,-3,-2,-2,0,-2,-2
1517204143344249,-4,6,-4,-3,-2,-3,-1,-3
1517204143345751,1,3,5,3,-1,-1,-1,-2
1517204143345751,4,0,-1,-2,-2,-2,1,6
1517204143358769,1,-2,-6,-2,-1,-2,-4,-10
1517204143358769,-3,-7,0,-3,-2,-3,-2,-1
1517204143359770,15,4,-5,-2,-1,-1,1,1
1517204143359770,-6,-4,2,2,-2,0,0,-1
1517204143382278,3,9,4,7,2,0,1,6
1517204143382278,-11,-3,-9,-19,-2,-2,-1,-4
1517204143382991,-7,2,1,2,1,-1,-2,-2
1517204143382991,-8,-3,-2,-3,-1,-3,-3,-7
1517204143404536,-6,-3,-2,-4,1,1,2,4
1517204143404536,3,11,7,13,2,2,1,3
1517204143405538,-12,-5,-2,-2,0,1,1,-5
1517204143405538,23,5,-1,0,-1,0,-16,6
1517204143419015,-9,-17,-6,-6,-4,-4,2,-20
1517204143419015,0,-2,-6,1,-1,-1,-2,-2
1517204143419515,-2,2,1,-1,-1,-1,2,-1
1517204143419515,-5,1,2,3,-1,0,2,-4
1517204143442047,19,-5,-2,-1,-1,1,-4,3
1517204143442047,5,2,0,0,-2,2,22,2
1517204143443031,-6,-5,-8,-3,-1,-4,-41,0
1517204143443031,0,6,-4,-4,-2,0,-3,-8
1517204143464566,-9,1,10,14,5,0,-6,-1
1517204143464566,-1,-6,-2,-2,-1,3,5,7
1517204143465549,-5,-3,-4,-7,-2,-1,15,-2
1517204143465549,-1,3,11,3,0,1,6,-1
1517204143479056,8,2,-1,-1,-1,-2,-2,1
1517204143479056,-17,-4,-4,3,-1,-2,8,-2
1517204143479557,-10,-10,-3,-1,-2,-1,-22,-7
1517204143479557,3,-2,-3,-7,-1,0,4,-11
1517204143502072,-8,1,3,1,-1,-2,9,6
1517204143502072,2,0,5,8,3,2,-3,16
1517204143503076,21,3,-10,-3,-4,1,6,-10
1517204143503076,-12,-4,1,-8,-2,-8,-15,-10
1517204143524612,10,9,-2,-2,0,2,-3,-1
1517204143524612,-9,-6,2,0,-2,-4,-6,-13
1517204143525105,-14,-2,-1,-3,-3,0,2,14
1517204143525105,14,-1,0,7,3,7,8,9
1517204143539098,-4,-6,-11,-8,-4,0,48,14
1517204143539098,-8,-5,0,-1,-1,-1,-23,7
1517204143539608,0,2,-1,1,-1,-3,-1,-18
1517204143539608,10,6,2,5,-1,-2,3,-2
1517204143562117,-17,5,9,-2,1,1,-1,4
1517204143562117,2,-5,-10,-5,-1,-1,3,7
1517204143563116,-14,-3,3,9,0,0,12,-5
1517204143563116,11,1,-4,-9,-1,-1,20,17
1517204143584632,-5,11,-10,-1,-2,0,-47,-18
1517204143584632,-7,-19,11,-3,-3,0,5,-4
1517204143585131,6,-1,0,1,2,0,-2,6
1517204143585131,2,-2,-4,4,0,1,-7,-1
1517204143599157,-10,-6,-2,-2,-3,-4,10,-3
1517204143599157,12,20,1,-3,3,-3,-39,-8
1517204143599642,7,16,10,-2,-5,-2,20,12
1517204143599642,-8,-17,-16,0,2,-1,4,5
1517204143622175,-15,-11,-11,-4,-2,-2,-19,-4
1517204143622175,21,19,12,1,-1,-3,-1,-3
1517204143622657,-3,-15,-9,7,1,1,-4,-4
1517204143622657,3,13,5,-10,-2,0,1,-5
1517204143644675,15,28,18,0,0,-1,-6,4
1517204143644675,-10,-12,-30,3,-2,1,33,1
1517204143645176,11,-10,17,-5,-2,-4,-25,-22
1517204143645176,-16,-8,2,3,-2,-4,0,-1
1517204143659183,11,-2,5,11,4,4,-6,0
1517204143659183,-20,-5,0,-7,-2,-1,6,6
1517204143660184,0,14,-3,-15,-1,2,26,31
1517204143660184,-9,-7,-8,-2,-4,-3,-8,-28
1517204143682221,-7,5,12,2,2,-4,-14,-2
1517204143682221,-1,4,5,3,0,0,6,-2
1517204143682701,-10,-4,6,-3,-4,-3,13,10
1517204143682701,4,-14,-1,1,-1,-1,-32,-18
1517204143704754,-9,-14,-1,4,-1,0,0,-9
1517204143704754,-3,9,2,-4,-5,-3,1,-5
1517204143705215,-6,-16,-15,-6,-3,-4,-13,16
1517204143705215,11,3,-3,1,2,1,7,-22
1517204143718726,5,-4,2,1,-3,0,29,12
1517204143718726,-8,2,-14,-10,0,-3,-29,-7
1517204143719726,-5,2,-1,-5,-1,1,-5,0
1517204143719726,-7,-15,1,5,-1,-2,18,3
1517204143741765,-10,-3,-27,-11,-2,3,2,3
1517204143741765,17,-8,10,4,-1,-3,2,-13
1517204143742743,18,12,-11,11,3,1,13,16
1517204143742743,-8,16,6,-10,-2,-1,-21,-12
1517204143764759,-40,-26,-21,-6,-3,-2,-2,-15
1517204143764759,12,-5,20,13,-1,-5,-25,-28
1517204143765259,22,17,5,-15,-4,-1,9,15
1517204143765259,-12,-8,-15,-4,2,4,19,37
1517204143778801,28,33,27,0,-4,-6,-26,16
1517204143778801,7,4,-3,3,0,3,-28,-13
1517204143779803,-13,-58,-39,11,2,-2,-13,-34
1517204143779803,6,24,10,7,-1,-1,14,28
1517204143801315,-19,-8,5,-20,-1,-3,-26,-31
1517204143801315,1,-2,8,-4,-2,2,30,18
1517204143809837,8,22,25,10,2,0,-12,0
1517204143809837,27,-18,-22,3,-1,-1,-11,-14
1517204143825837,-1,-39,-19,0,-2,1,12,-5
1517204143825837,-3,34,11,-4,-5,-5,27,21
1517204143827334,-14,-17,-2,3,1,-1,-11,-21
1517204143827334,4,-3,-4,0,0,5,3,12
1517204143838351,12,8,33,9,2,-7,-4,7
1517204143838351,-14,-31,1,-5,0,2,-4,5
1517204143847350,10,18,-4,12,1,2,44,12
1517204143847350,-3,14,25,6,-3,-7,-45,-20
1517204143862378,-1,-49,-46,6,5,8,19,7
1517204143862378,-53,0,-42,-12,0,3,-21,-43
1517204143863360,18,-27,56,-14,-6,-4,6,31
1517204143863360,-20,4,12,7,5,1,-7,-29
1517204143884375,10,19,-35,-21,-9,-5,-8,-22
1517204143884375,26,-18,40,16,2,4,13,39
1517204143885877,-32,14,-11,15,2,-4,-6,9
1517204143885877,-17,-21,-61,-35,-11,-5,34,-20
1517204143898887,19,53,61,2,-5,-7,-69,-20
1517204143898887,5,15,-59,-7,0,-2,-17,-34
1517204143907392,-6,-2,8,3,-3,-2,-18,10
1517204143907392,24,26,53,14,8,6,23,-8
1517204143922401,0,-24,-53,-3,-6,-11,12,29
1517204143922401,0,-11,58,14,3,-1,25,24
1517204143923904,-7,44,-8,-13,-8,0,-27,-24
1517204143923904,-21,-36,-66,-5,-2,-2,4,-7
1517204143944417,3,33,40,-7,-5,-3,-9,2
1517204143944417,2,-18,-22,3,2,-4,-3,-28
1517204143946430,4,4,34,2,-2,2,53,46
1517204143946430,7,18,38,-2,2,-3,-76,-36
1517204143957936,-37,-59,-11,-13,-1,2,24,6
1517204143957936,0,9,21,20,1,0,9,34
1517204143967433,-5,11,-31,-5,7,11,28,-12
1517204143967433,14,5,-35,-16,-4,-2,49,22
1517204143981951,23,57,39,30,10,9,0,-5
1517204143981951,16,-16,70,-2,-7,-10,-11,33
1517204143983945,-13,-18,-97,-8,-2,-3,-27,-42
1517204143983945,-3,-14,60,-12,2,5,-3,73
1517204144004461,-22,-5,-41,1,2,-1,15,-47
1517204144004461,40,-3,-50,-31,-11,-2,19,26
1517204144005961,36,8,-37,-1,-3,-7,-12,-18
1517204144005961,-6,-11,19,10,-2,-5,38,20
1517204144018470,0,14,60,20,5,4,27,2
1517204144018470,-13,24,-86,-12,-1,-2,-22,-2
1517204144026975,-3,-75,27,-3,-2,-3,-5,39
1517204144026975,-12,23,-8,28,0,-5,-30,-87
1517204144042014,-36,-28,-18,-49,-17,-1,55,58
1517204144042014,5,-41,-30,19,3,-4,7,-52
1517204144043487,9,-27,80,1,1,-8,-44,-25
1517204144043487,-30,47,-39,-7,-1,0,13,4
1517204144064512,-8,18,-13,17,4,0,-19,-5
1517204144064512,5,10,-12,2,0,3,8,5
1517204144066004,-17,12,-6,-44,-19,-17,-27,-74
1517204144066004,3,-44,62,24,-1,-2,6,33
1517204144078513,-13,-25,-46,2,3,3,9,7
1517204144078513,18,10,-15,-35,-9,-3,13,9
1517204144087027,7,72,104,50,5,-4,-34,-42
1517204144087027,-9,-69,-103,-45,-12,1,5,30
1517204144102038,1,11,54,5,-2,-5,3,2
1517204144102038,12,-31,-16,7,6,5,-1,19
1517204144103537,-41,18,-9,-1,3,11,55,-24
1517204144103537,0,-46,1,18,-2,-8,-18,-19
1517204144124566,8,-12,-18,-32,-7,-9,-37,12
1517204144124566,-15,-4,51,36,8,7,16,10
1517204144126055,1,-30,-89,-25,-3,-3,-14,35
1517204144126055,3,79,28,9,2,-1,-12,21
1517204144138055,20,-72,-44,-9,-5,0,-7,-56
1517204144138055,-3,15,-53,24,8,4,36,5
1517204144147098,5,-26,22,-13,-3,0,-3,-3
1517204144147098,28,20,11,-12,-5,-4,-8,26
1517204144162072,-17,-48,-41,10,0,-3,2,-8
1517204144162072,4,35,18,-22,-7,-1,-15,-10
1517204144163574,-21,-5,-65,-4,0,4,22,47
1517204144163574,24,-6,56,10,2,-8,-54,-98
1517204144185088,3,66,2,12,2,3,21,-9
1517204144185088,-45,-53,20,-20,-1,-9,-35,-8
1517204144186100,31,50,72,23,7,8,25,17
1517204144186100,-16,-45,-27,-9,-2,6,18,4
1517204144198119,-3,-49,-9,-9,-3,-4,-7,19
1517204144198119,-20,7,54,7,-4,1,3,0
1517204144207115,-2,7,-9,-11,1,-1,-27,-12
1517204144207115,-13,17,-4,18,1,1,25,19
1517204144222124,20,20,7,5,4,7,-20,-35
1517204144222124,15,17,-19,0,0,-4,-44,17
1517204144223624,-2,-44,-3,-12,-4,0,-7,-44
1517204144223624,-21,13,-71,-12,-1,-5,-27,2
1517204144244630,-12,-13,95,36,4,-3,14,18
1517204144244630,-10,8,-93,-38,-13,-4,-10,-16
1517204144246130,-18,15,73,23,5,2,18,18
1517204144246130,-1,-45,-48,-30,-8,-7,16,-14
1517204144258151,27,52,77,7,3,2,-5,20
1517204144258151,21,30,-39,-2,-1,0,-19,-15
1517204144274650,-12,24,3,5,-6,-5,17,38
1517204144274650,-2,-12,7,-18,-4,2,13,-32
1517204144282157,32,52,27,11,5,-2,0,14
1517204144282157,-48,-42,32,5,-3,-4,-6,-22
1517204144283657,2,18,-76,-10,-2,2,3,2
1517204144283657,23,5,14,-4,5,0,-15,35
1517204144304673,-9,-44,-68,-25,-12,-10,-3,-6
1517204144304673,32,38,101,21,5,1,14,3
1517204144306186,-9,29,-8,-24,-13,-4,27,5
1517204144306186,-14,-23,47,15,-1,-4,-38,-15
1517204144327197,-25,-21,-67,-29,-3,5,38,24
1517204144327197,-18,-31,54,-1,-2,-4,2,11
1517204144328688,-11,-15,48,25,10,9,16,30
1517204144328688,41,20,-21,6,1,3,-7,-8
1517204144342210,4,-29,-63,-27,-11,-8,-21,-1
1517204144342210,-3,49,-12,-29,-13,-4,25,31
1517204144343713,-4,-4,54,31,10,1,-31,-39
1517204144343713,-12,2,-8,0,-5,-4,2,-17
1517204144364750,-18,-2,51,18,9,10,-17,-2
1517204144364750,24,13,15,5,1,-6,16,1
1517204144366240,6,-9,-35,-31,-12,-8,-32,-16
1517204144366240,-19,24,60,33,10,6,25,35
1517204144386767,-5,17,36,15,2,0,35,21
1517204144386767,8,-19,-28,-12,1,5,-56,-2
1517204144388766,-8,9,-31,-15,-9,-13,-44,-33
1517204144388766,8,66,86,36,13,9,6,0
1517204144401778,-12,5,-95,-53,-22,-14,-1,-13
1517204144401778,-10,-15,-20,15,4,1,23,30
1517204144403768,6,-16,56,3,4,0,9,28
1517204144403768,0,44,-20,-4,-1,0,-25,-34
1517204144424290,3,-40,-6,11,3,1,-10,35
1517204144424290,-11,38,34,-8,0,-5,-8,-53
1517204144426295,-3,-79,-101,-5,0,-1,3,-13
1517204144426295,-3,-7,32,6,-2,5,61,26
1517204144447298,-2,56,83,11,2,4,4,8
1517204144447298,-11,-39,-7,-2,-1,-3,-13,-51
1517204144448798,17,48,-11,-20,-10,-8,-25,-7
1517204144448798,-6,29,-47,7,5,5,35,44
1517204144461308,-7,-1,48,13,2,-1,2,-41
1517204144461308,19,-16,-21,-4,0,-2,-9,5
1517204144468314,12,34,49,25,12,5,20,16
1517204144468314,-17,-85,-89,-48,-17,-6,-11,-8
1517204144484325,30,80,32,18,8,0,-13,-11
1517204144484325,-39,-59,38,28,9,8,36,3
1517204144485826,-26,48,38,6,0,-1,-12,-24
1517204144485826,-16,-70,-60,-18,-4,-5,-33,-13
1517204144506841,1,15,-39,-4,3,3,-2,-9
1517204144506841,6,-7,8,-8,-4,1,-2,7
1517204144508341,-10,-59,-35,13,3,1,16,34
1517204144508341,24,20,70,15,2,-3,-26,-45
1517204144521351,-1,-27,-14,-24,-6,0,21,48
1517204144521351,30,80,6,-7,-7,-4,-37,-33
1517204144527855,-12,-16,7,4,-2,-3,2,-3
1517204144527855,-11,-13,-16,-29,-12,-9,5,22
1517204144544377,4,-24,-29,24,3,0,14,5
1517204144544377,10,0,4,-13,1,2,4,-20
1517204144545867,30,25,19,0,1,4,-17,-37
1517204144545867,16,16,21,17,3,1,2,58
1517204144566895,-50,-14,3,-8,-8,-9,-20,-70
1517204144566895,0,10,19,19,1,2,1,42
1517204144568384,-10,-28,-59,-17,-5,-2,6,-5
1517204144568384,8,19,20,-9,3,4,-1,-14
1517204144581408,9,-55,-19,11,3,-4,-8,22
1517204144581408,-31,-47,-20,0,-2,-1,-9,-37
1517204144587897,-16,55,18,-2,4,1,20,-3
1517204144587897,-12,44,50,-3,-5,-6,5,-3
1517204144604422,9,24,26,-21,-5,0,-2,12
1517204144604422,6,23,-40,-8,-6,-2,-4,-6
1517204144605937,16,-19,10,28,7,4,13,19
1517204144605937,-32,-19,-24,-33,-7,6,45,58
1517204144626964,51,73,53,17,5,-7,-52,-46
1517204144626964,-6,-7,-34,-3,-4,-4,-4,17
1517204144628927,5,23,12,-18,1,5,2,12
1517204144628927,20,11,-14,12,1,-2,-16,-31
1517204144641445,-14,-48,-47,-3,-3,-2,2,-16
1517204144641445,-19,8,35,-5,-1,1,23,24
1517204144647951,6,-61,-43,-8,-8,-11,-67,-27
1517204144647951,-4,3,-6,-7,-1,-6,-11,-37
1517204144664471,-9,-66,-48,-3,-6,-4,30,49
1517204144664471,12,-3,-9,11,5,0,-54,-65
1517204144665955,-12,-17,-94,-29,-10,-1,6,-11
1517204144665955,-20,11,54,-15,-5,-8,-14,-6
1517204144686969,25,11,-33,9,6,7,-32,-65
1517204144686969,11,15,93,15,4,1,47,33
1517204144688480,10,-21,-36,-21,-6,-6,-17,13
1517204144688480,-13,18,-3,26,10,10,7,0
1517204144701477,13,45,7,-11,-4,-2,25,46
1517204144701477,-25,14,10,18,5,1,-8,-33
1517204144707995,9,42,3,-19,-12,0,1,-1
1517204144707995,3,-42,-61,-15,2,-2,3,-8
1517204144724532,14,28,33,5,1,-1,32,26
1517204144724532,23,-54,-57,-29,-10,-7,-5,38
1517204144726004,-14,-27,7,13,4,3,-15,-26
1517204144726004,11,74,74,5,-4,-2,-2,16
1517204144754552,-6,3,5,23,5,1,-6,14
1517204144754552,0,21,-45,-39,-16,-11,-15,-44
1517204144756048,-7,-25,61,22,7,1,17,11
1517204144756048,18,8,38,26,4,6,20,13
1517204144761544,-1,22,12,-42,-9,-2,-31,-4
1517204144761544,-14,-9,29,12,2,-1,24,11
1517204144768048,26,32,35,7,0,-3,18,-6
1517204144768048,-44,-82,-25,6,0,-2,14,-7
1517204144784563,-4,-8,-51,3,-6,-3,-7,-30
1517204144784563,-27,-59,-29,-32,-7,-5,1,19
1517204144786059,8,1,23,14,3,7,17,8
1517204144786059,-5,-27,14,-11,-2,-5,12,36
1517204144807110,3,59,29,14,6,-6,-67,-20
1517204144807110,12,-25,17,10,-3,0,-3,9
1517204144808605,-2,-28,-27,-2,1,-1,17,38
1517204144808605,34,33,-19,-17,-8,-5,-2,23
1517204144820610,-14,-65,-28,-8,-2,-2,-2,-35
1517204144820610,-1,45,33,12,0,1,-11,8
1517204144829618,-9,3,-5,-2,2,-4,2,-1
1517204144829618,14,-2,-8,4,-2,0,-14,-18
1517204144844630,13,39,26,8,7,5,25,29
1517204144844630,-11,-69,52,11,7,4,8,8
1517204144846131,-1,49,-71,-20,-10,-5,15,-11
1517204144846131,-10,-7,23,4,-1,-3,-15,-4
1517204144867160,-5,19,35,14,2,2,0,17
1517204144867160,0,7,-39,-23,-8,-5,-3,-18
1517204144868659,4,4,80,18,6,-4,-13,-20
1517204144868659,1,17,-3,4,-2,-1,-10,10
1517204144889669,-40,-61,-2,-15,-6,-3,-7,-21
1517204144889669,18,99,15,21,5,4,20,10
1517204144891170,6,-43,-1,3,-1,3,4,8
1517204144891170,-14,3,-59,-18,4,2,4,-11
1517204144904679,-7,-25,-38,-13,-7,-1,5,-6
1517204144904679,5,16,-18,18,6,0,14,20
1517204144906180,26,16,9,-1,1,3,-12,-18
1517204144906180,6,4,-20,10,2,0,-4,-23
1517204144927195,-21,2,11,3,-4,2,19,17
1517204144927195,19,-26,-80,-19,-2,-5,-24,-36
1517204144928688,-22,29,6,4,0,-4,18,37
1517204144928688,14,4,45,17,6,3,-13,-28
1517204144940707,-1,-39,-33,-7,3,3,13,-5
1517204144940707,2,10,-25,0,-4,0,-3,17
1517204144949712,-11,-3,26,-6,-4,-4,5,9
1517204144949712,1,-16,-47,-10,-4,-6,-18,-22
1517204144964715,4,30,0,13,7,1,22,28
1517204144964715,-4,-5,20,4,0,1,-5,2
1517204144966213,2,-25,15,-10,1,1,-25,-1
1517204144966213,5,22,13,-5,-1,-2,7,5
1517204144986729,-3,-12,16,-2,-4,-2,-5,4
1517204144986729,-23,-17,1,-2,0,2,9,-6
1517204144988742,-6,-30,-25,-3,-5,-3,18,15
1517204144988742,-32,-20,3,12,4,3,7,8
1517204145000739,18,36,-4,-7,-7,-4,-12,-15
1517204145000739,15,7,-15,5,4,0,4,-14
1517204145009744,-27,-51,-24,-5,-3,1,1,8
1517204145009744,29,36,60,-1,3,0,29,35
1517204145024266,-8,-26,-46,-21,-8,-8,-35,-47
1517204145024266,-22,-16,-72,-5,-4,-6,-24,0
1517204145026258,21,28,1,1,2,1,5,-7
1517204145026258,21,2,-58,-9,-10,-8,0,12
1517204145047291,-15,-50,-1,-4,1,1,10,14
1517204145047291,16,41,21,-1,-2,1,-2,3
1517204145048792,-9,39,-1,12,1,0,7,15
1517204145048792,-3,-40,9,-10,-4,2,-12,-18
1517204145060799,0,8,-1,0,0,0,7,-1
1517204145060799,24,20,54,20,9,7,11,4
1517204145069806,0,-15,-53,-21,-9,-4,14,12
1517204145069806,-12,4,40,6,-2,-3,-27,-28
1517204145084316,11,11,-4,-1,-3,-2,-16,-1
1517204145084316,-8,-2,-6,-19,-2,1,35,2
1517204145085829,31,15,3,3,0,-1,-42,-28
1517204145085829,-33,-31,15,20,6,3,7,23
1517204145107345,18,16,57,9,3,0,7,1
1517204145107345,-7,17,-61,-6,-7,-4,-4,18
1517204145108833,-16,8,4,-17,-3,-5,-4,-20
1517204145108833,-5,-18,-8,-12,-7,-6,-7,-14
1517204145120851,-4,27,35,20,7,7,8,20
1517204145120851,-1,-13,-53,-21,-9,-6,-18,-21
1517204145129850,-10,19,14,22,5,0,11,-12
1517204145129850,23,-6,-14,-9,0,6,22,26
1517204145144358,-11,15,62,-2,-4,-5,-22,-29
1517204145144358,3,-24,4,6,0,-3,0,13
1517204145145860,6,7,-22,-19,-2,0,-4,-4
1517204145145860,28,6,36,6,1,-6,-6,-10
1517204145166884,-17,-42,-67,-19,-8,-3,35,46
1517204145166884,-31,-36,34,3,0,2,-17,8
1517204145168376,7,-14,52,22,9,2,-40,9
1517204145168376,-15,-12,-47,-6,-6,-8,-34,-23
1517204145180886,-16,-17,-12,-20,-6,-2,-1,-13
1517204145180886,-5,14,-30,-27,-5,-5,0,-8
1517204145189390,1,-40,29,23,1,4,47,39
1517204145189390,-38,24,-28,-22,-6,-3,-9,-13
1517204145204413,15,-50,-63,-11,-4,-6,-14,-20
1517204145204413,-6,-18,-18,-1,-6,-2,-5,-6
1517204145205902,4,22,73,5,1,0,-12,-18
1517204145205902,12,5,-52,-5,-2,-2,21,5
1517204145226918,-28,-4,13,-4,-4,-5,-3,-8
1517204145226918,7,-7,46,5,0,0,20,11
1517204145228418,21,48,52,23,6,0,-6,1
1517204145228418,-7,-18,-68,-11,-2,1,-5,14
1517204145249447,4,16,-42,-15,-4,-4,-11,-17
1517204145249447,-14,37,53,-3,-3,-2,16,20
1517204145250937,6,7,-9,4,-4,-3,-51,-75
1517204145250937,-9,-32,6,-3,7,5,-6,3
1517204145264947,-2,40,16,17,4,2,10,10
1517204145264947,-2,-25,-15,2,0,-3,-14,-10
1517204145265948,-25,-29,-28,-28,-11,-5,16,9
1517204145265948,3,24,3,18,3,-1,-18,-17
1517204145286965,14,-20,-26,-16,-3,-3,-1,-2
1517204145286965,3,-15,36,11,5,2,-4,-10
1517204145288473,-11,-17,-53,-3,-6,-1,5,3
1517204145288473,-3,0,27,-21,-10,-7,-12,6
1517204145309487,25,-6,46,16,4,3,21,-1
1517204145309487,-35,7,27,9,2,0,-2,-3
1517204145310977,-16,14,-43,-19,-6,-7,9,-15
1517204145310977,24,-5,28,14,2,2,4,-4
1517204145324499,-13,-37,-86,-2,-1,0,4,-4
1517204145324499,15,37,49,6,5,4,16,9
1517204145326000,-4,-10,-70,-12,-1,-2,-19,-17
1517204145326000,3,38,43,-7,-4,-1,18,46
1517204145347002,-21,32,54,18,2,-2,-24,-66
1517204145347002,6,-30,-7,1,-2,-4,-18,5
1517204145348506,7,-2,24,-4,0,-1,8,24
1517204145348506,-9,-89,-86,-11,-3,-1,4,-7
1517204145369530,40,40,18,3,1,1,-14,31
1517204145369530,-7,24,35,-7,-4,-3,-11,3
1517204145371028,-13,-4,-8,-4,-5,-3,-3,-13
1517204145371028,10,10,39,8,3,2,3,-9
1517204145384028,0,-3,-23,12,3,2,16,23
1517204145384028,-4,30,34,2,1,1,7,18
1517204145390543,-1,-21,26,13,-1,0,-20,-33
1517204145390543,-11,-4,-61,-9,-2,-2,-1,8
1517204145407055,18,0,8,-2,1,2,19,3
1517204145407055,-1,36,41,-7,-1,-2,1,-9
1517204145408555,17,-25,7,-4,-3,-5,-4,2
1517204145408555,3,-3,-46,-6,-1,0,10,8
1517204145437078,-10,-31,16,1,-2,0,-10,-8
1517204145437078,21,16,-1,15,4,1,-9,-6
1517204145438579,-8,-39,-56,-16,-3,-7,-14,24
1517204145438579,-10,28,36,13,4,5,1,21
1517204145444070,-41,-37,0,-17,-7,-2,-20,-49
1517204145444070,44,27,-6,11,0,-1,4,-9
1517204145450579,-20,-9,-32,16,2,2,15,14
1517204145450579,12,47,81,-2,0,-1,-9,-19
1517204145467088,-12,-2,4,0,-1,-4,2,32
1517204145467088,-6,-24,-23,-8,-2,1,27,45
1517204145469601,-12,-3,11,0,4,0,-36,-37
1517204145469601,-8,0,17,11,1,2,5,-18
1517204145489602,33,28,24,-2,1,0,-12,10
1517204145489602,-15,-30,-5,9,-4,-9,7,-38
1517204145491118,-5,23,4,-15,1,1,28,32
1517204145491118,2,-31,-60,8,-1,0,1,-42
1517204145503613,-5,23,23,-18,-6,-5,-10,-10
1517204145503613,0,4,-17,7,2,4,9,2
1517204145510630,9,-12,-20,-16,-6,-1,-10,-10
1517204145510630,5,40,63,7,-1,-8,-6,-12
1517204145527138,-3,-8,-35,0,-2,-3,-1,3
1517204145527138,6,-17,-43,19,2,-1,-14,-17
1517204145528633,-27,10,8,-29,-3,1,15,7
1517204145528633,16,-9,-29,-6,-9,-3,17,-11
1517204145549663,-1,17,0,-13,-1,-1,-48,-9
1517204145549663,-6,-28,-9,-5,3,2,-8,-6
1517204145551147,-7,-3,12,14,2,2,0,9
1517204145551147,-14,7,23,4,3,3,36,72
1517204145564158,37,-17,29,0,1,-1,-19,-8
1517204145564158,-18,-22,-11,4,0,1,-12,-21
1517204145570660,21,28,21,-13,-6,1,6,10
1517204145570660,-37,-63,-68,-9,-6,-8,28,12
1517204145587188,-7,16,19,-1,-3,4,20,-7
1517204145587188,-48,-4,-21,-21,-3,-1,-7,19
1517204145588685,-6,-5,-28,16,0,-2,-3,-20
1517204145588685,-4,15,2,-8,-6,0,-3,35
1517204145609689,-6,-48,-23,13,5,0,-9,9
1517204145609689,-16,-8,-33,-8,-7,-5,-14,-20
1517204145611188,19,57,63,-14,-6,-4,8,17
1517204145611188,-6,-30,-44,6,1,-3,-35,-42
1517204145623710,-12,11,33,-8,-8,-7,5,16
1517204145623710,17,-1,-12,-5,-1,0,1,5
1517204145630705,11,-3,16,15,4,-2,-10,-11
1517204145630705,-13,-12,18,-8,-3,-2,-8,-7
1517204145647214,26,-10,-28,-5,-4,-1,36,12
1517204145647214,1,8,30,7,1,-6,-32,-19
1517204145648715,10,6,-19,-3,4,1,14,11
1517204145648715,-21,37,67,7,2,-2,0,8
1517204145669229,-7,-25,-24,16,-3,-3,-9,10
1517204145669229,-1,6,-71,-55,-10,-2,-2,-2
1517204145671240,11,-46,-63,3,-2,-2,35,-1
1517204145671240,35,36,63,15,5,6,-27,2
1517204145683742,0,36,54,8,7,6,20,-15
1517204145683742,-4,-57,-6,3,-3,0,1,-2
1517204145690762,4,0,2,13,1,-1,4,1
1517204145690762,3,11,-78,-21,-3,1,-10,-21
1517204145706769,-14,11,37,3,-2,-4,23,6
1517204145706769,3,-28,-19,-5,-4,-2,19,25
1517204145708767,11,7,1,8,5,4,-39,-23
1517204145708767,1,-34,-14,-3,-4,-5,-1,-15
1517204145729774,25,17,-26,1,6,4,1,17
1517204145729774,31,30,90,3,4,4,8,13
1517204145731274,-23,-13,-28,-4,-5,-4,-12,-11
1517204145731274,13,21,6,7,4,1,10,-9
1517204145743294,0,33,-1,8,2,1,-2,4
1517204145743294,-18,-34,-17,-2,-4,-2,22,11
1517204145752298,-6,49,90,4,6,5,-7,-18
1517204145752298,-7,-32,-57,-14,-8,-6,-20,-22
1517204145767300,0,-33,-14,-7,-3,-3,8,9
1517204145767300,-16,28,25,4,1,-1,-3,-11
1517204145768801,15,-2,17,9,-1,0,-5,-14
1517204145768801,-19,0,-29,-4,1,1,11,17
1517204145789324,-20,-29,-20,-1,-1,1,-1,-3
1517204145789324,9,14,3,-7,-1,0,-12,-26
1517204145790815,1,51,47,29,8,2,4,16
1517204145790815,-8,-51,-19,-25,-5,-3,-4,-16
1517204145803329,-7,-35,-16,5,0,3,12,18
1517204145803329,0,-22,-1,-7,-3,-4,-6,-20
1517204145811847,-13,40,20,4,0,-1,0,15
1517204145811847,-2,14,23,4,0,-1,-12,-1
1517204145826850,-18,-3,-43,-1,3,0,7,1
1517204145826850,-18,-7,8,4,-2,-2,-5,7
1517204145828342,-38,-29,-49,-7,-1,-2,0,-40
1517204145828342,17,-35,24,2,-4,-5,-9,3
1517204145849873,2,3,0,-18,-8,-5,-2,2
1517204145849873,9,11,32,11,6,-1,-12,0
1517204145850859,-19,7,-39,-25,-9,-6,10,18
1517204145850859,10,33,-7,5,2,4,22,5
1517204145863370,-11,18,18,-11,-6,-5,-35,-19
1517204145863370,47,47,48,8,3,-1,-5,28
1517204145871874,-26,-90,-16,-2,-1,-2,6,-1
1517204145871874,5,3,-10,-3,1,-1,-4,-8
1517204145886885,8,27,-2,0,-1,2,27,49
1517204145886885,21,12,23,3,1,-5,-73,-67
1517204145888389,15,-11,-35,10,-2,1,8,21
1517204145888389,22,13,39,-9,0,-2,-7,9
1517204145917408,-4,-12,-9,-7,-1,-1,-12,-7
1517204145917408,5,24,-26,-2,-1,2,21,20
1517204145918406,14,23,43,8,2,2,38,45
1517204145918406,-11,-70,-73,1,-3,-7,-63,-47
1517204145922931,-7,21,49,7,0,0,8,-10
1517204145922931,-12,1,-26,-7,-3,-2,7,-5
1517204145932416,15,-50,-49,-35,-13,-7,-4,16
1517204145932416,-8,31,48,13,3,4,26,23
1517204145947427,-1,-18,-22,7,1,-6,-22,-9
1517204145947427,-28,-11,-18,0,-2,0,3,2
1517204145948428,-9,15,-13,-9,-1,2,8,-29
1517204145948428,-5,-34,8,-2,-3,-2,4,5
1517204145969452,-1,14,4,0,-1,-4,-11,-24
1517204145969452,-7,-7,14,18,0,0,15,16
1517204145970946,14,-4,6,-24,-8,-4,-8,4
1517204145970946,1,8,-10,-4,2,2,22,10
1517204145983459,6,30,83,17,0,-3,-18,-27
1517204145983459,-23,-40,-122,-30,-9,-5,19,5
1517204145991958,9,20,75,15,5,4,-3,9
1517204145991958,9,10,0,5,-4,-4,-10,-25
1517204146006981,15,11,-25,-9,-1,5,6,11
1517204146006981,1,-12,20,-4,0,-2,9,29
1517204146008479,-39,-2,4,-3,-2,-4,-35,-78
1517204146008479,19,38,-7,23,8,4,20,40
1517204146029487,-20,-42,-9,-12,-3,-6,-25,-31
1517204146029487,8,5,-15,-5,-5,3,14,-6
1517204146030989,-7,-49,0,8,4,0,-22,14
1517204146030989,-11,-40,-25,-1,-5,-6,-8,-1
1517204146042995,4,33,7,-5,-1,1,12,-22
1517204146042995,15,-1,25,2,-3,-3,7,24
1517204146052001,-6,-4,-10,-6,-4,-3,13,45
1517204146052001,31,22,31,8,3,2,-17,-46
1517204146067012,1,-31,-72,-13,-5,-4,-16,-4
1517204146067012,-23,-9,35,0,-1,-2,-9,-16
1517204146069514,50,-23,11,22,5,1,6,6
1517204146069514,4,-34,4,-36,-11,-6,-6,-5
1517204146089527,-27,12,-48,-11,0,0,-11,10
1517204146089527,19,37,31,13,1,-2,-11,-31
1517204146091028,-8,4,5,12,3,0,10,-4
1517204146091028,-20,2,-37,-29,-10,-5,6,12
1517204146103036,20,9,35,9,4,3,2,0
1517204146103036,-25,3,21,10,1,-4,-4,9
1517204146112045,10,-10,0,4,-2,-3,2,1
1517204146112045,-8,6,-12,-8,0,2,6,-34
1517204146127053,-15,-10,4,-2,2,4,16,24
1517204146127053,-3,-34,-42,-6,-3,-2,-7,-15
1517204146128556,-2,39,27,0,2,-1,-19,-4
1517204146128556,-30,11,-15,7,0,0,6,-4
1517204146149570,5,-13,-2,-5,1,0,-9,9
1517204146149570,19,0,38,4,2,0,-6,-6
1517204146151073,-32,-30,-1,-11,-7,-3,-2,-14
1517204146151073,25,28,-34,-8,1,5,3,22
1517204146172137,-20,5,12,9,-2,-7,2,4
1517204146172137,-7,-12,30,2,1,4,34,18
1517204146173631,18,37,-20,5,-2,-5,-14,-13
1517204146173631,-26,17,40,-15,-2,-1,-14,5
1517204146187149,15,6,1,-12,-9,-5,-2,-3
1517204146187149,20,-1,-33,3,3,2,11,30
1517204146188649,-28,-11,5,-6,-1,-1,-4,-27
1517204146188649,9,-1,33,13,3,2,-2,15
1517204146209656,10,14,55,12,0,-7,13,-3
1517204146209656,-17,-6,-45,-9,-4,0,11,10
1517204146211170,-9,-38,3,0,-2,-1,-14,0
1517204146211170,9,22,38,13,2,0,-2,7
1517204146232193,16,-11,-60,1,4,3,5,7
1517204146232193,-26,-26,-14,5,1,-1,26,-6
1517204146233671,5,-1,-15,-6,0,-1,-32,3
1517204146233671,4,-37,10,30,2,-1,-7,-2
1517204146247183,28,44,20,-26,-7,-3,6,-8
1517204146247183,-2,17,-1,-4,-5,-2,-9,-16
1517204146253186,14,-71,-106,-33,-9,-5,6,11
1517204146253186,-15,22,62,17,3,-1,-2,16
1517204146269700,0,11,51,15,5,4,4,-11
1517204146269700,5,23,-28,-2,0,1,-23,-18
1517204146271198,14,29,40,14,3,3,18,13
1517204146271198,-19,-31,-62,-41,-11,-5,-8,-5
1517204146291725,-23,-35,-21,13,5,4,14,7
1517204146291725,13,48,29,-10,-6,-10,-69,-34
1517204146293715,-17,18,28,3,-1,0,12,-4
1517204146293715,-4,-13,-16,-3,-4,-4,4,-6
1517204146306736,-5,-15,-10,6,1,1,9,3
1517204146306736,-9,-31,-37,-9,0,-2,-5,-9
1517204146308737,14,16,-17,-4,2,2,18,9
1517204146308737,3,26,28,21,2,-2,-5,-12
1517204146329741,-2,7,14,-37,-7,-1,5,16
1517204146329741,-1,-1,2,2,0,-2,8,1
1517204146331241,10,28,6,11,3,-2,4,-2
1517204146331241,10,-29,-18,-7,-1,0,22,25
1517204146351767,1,-23,-28,35,6,1,-17,-20
1517204146351767,-10,2,9,-32,-10,-3,-1,-10
1517204146353759,-37,-11,-20,1,-1,-3,-22,7
1517204146353759,6,24,4,0,1,-1,12,3
1517204146366708,-4,-5,2,15,-1,-4,-33,-7
1517204146366708,-18,-33,-3,-3,3,4,22,17
1517204146373214,-1,-18,0,-4,2,6,8,-5
1517204146373214,13,40,64,11,-1,-2,-2,20
1517204146389236,-26,-61,-98,-29,-10,-9,1,-13
1517204146389236,17,8,0,10,2,1,7,6
1517204146391238,-30,1,1,-12,-9,-3,15,18
1517204146391238,13,5,-5,-9,3,0,-27,-4
1517204146411750,17,52,37,5,2,4,10,3
1517204146411750,-23,-19,-19,13,5,1,-12,-14
1517204146413743,9,-28,-8,9,1,-1,10,10
1517204146413743,-9,-13,-24,-27,-7,-2,-5,1
1517204146426290,8,50,58,4,-2,-3,-13,-7
1517204146426290,7,-17,-1,4,-1,2,-2,7
1517204146433257,8,16,22,9,-3,-5,-7,3
1517204146433257,-29,-47,-74,-5,3,0,16,-3
1517204146449769,4,-2,-21,-5,-2,-2,14,22
1517204146449769,-11,21,16,-10,-3,-5,-69,-63
1517204146451268,34,8,31,15,3,3,28,25
1517204146451268,13,-17,-23,8,-4,-3,-34,-22
1517204146472783,-10,-6,18,-31,-9,-5,-7,5
1517204146472783,-11,11,-5,0,-4,-4,21,5
1517204146474284,2,15,-49,-14,-1,-1,-14,-23
1517204146474284,18,29,62,29,9,6,4,12
1517204146486344,2,1,-27,-10,-7,-1,2,-2
1517204146486344,13,9,27,17,4,2,12,6
1517204146492848,-14,-10,-26,-12,-2,-1,-6,-20
1517204146492848,-18,11,22,-4,-5,-3,8,0
1517204146509369,-17,-17,12,19,5,-1,-4,-30
1517204146509369,23,0,4,-28,-3,4,19,15
1517204146510860,15,33,18,13,3,2,1,15
1517204146510860,-2,-23,-2,1,0,-4,-37,-19
1517204146532381,-17,-18,16,1,1,-2,-4,-12
1517204146532381,32,20,-36,7,0,0,21,20
1517204146533377,-15,-22,29,1,-1,-2,-16,-18
1517204146533377,6,10,-5,-16,-9,-3,46,24
1517204146546926,-2,-12,20,7,6,4,-40,-4
1517204146546926,1,19,28,1,-1,-7,-17,0
1517204146552935,-25,-12,12,-10,-6,-1,8,4
1517204146552935,-16,30,-2,0,2,-2,6,-64
1517204146569439,19,6,15,13,5,4,5,25
1517204146569439,-23,-46,-44,-19,-9,-3,21,10
1517204146570951,10,-12,-3,8,-3,-4,-8,-7
1517204146570951,15,22,65,5,6,6,5,6
1517204146591966,5,8,-58,-12,-6,-3,6,-7
1517204146591966,6,-6,4,11,0,-1,-11,-2
1517204146593467,7,19,15,-5,-1,-4,8,-5
1517204146593467,-2,-11,-19,4,2,1,-11,1
1517204146605970,4,9,7,-6,-9,-3,28,9
1517204146605970,8,-1,-21,0,1,-4,-15,6
1517204146613470,-5,-14,1,-7,-1,0,-8,-16
1517204146613470,14,-14,5,-3,-3,-2,31,52
1517204146629483,-1,3,-35,8,0,-3,-43,-62
1517204146629483,-20,1,31,-5,-1,1,9,4
1517204146630983,15,5,-19,-6,0,0,6,5
1517204146630983,-8,-7,31,18,2,0,-2,16
1517204146652010,-7,15,-71,-20,-8,-3,-8,-10
1517204146652010,16,-7,-2,0,3,4,9,5
1517204146653498,22,17,2,-8,-4,-4,-17,-3
1517204146653498,-30,-4,-18,6,3,0,4,3
1517204146665507,17,-16,-16,4,0,-1,1,14
1517204146665507,-8,7,35,-3,-1,0,22,-9
1517204146675523,-2,0,-17,17,5,1,-14,5
1517204146675523,-1,23,-49,-13,-6,-2,-10,1
1517204146689532,4,-68,-18,-14,-2,-3,-4,-7
1517204146689532,13,18,7,6,0,-1,-4,22
1517204146691033,-41,11,43,5,-1,2,-3,-3
1517204146691033,9,-19,-14,1,-1,-4,-12,-20
1517204146712039,-1,11,24,7,0,-1,19,42
1517204146712039,-8,-7,-30,-2,-5,-4,-21,-24
1517204146713542,5,4,-11,-6,0,-1,10,0
1517204146713542,-15,-19,24,-8,-1,-2,-14,-19
1517204146725562,3,48,47,-11,-5,-1,12,21
1517204146725562,5,-22,-13,9,5,1,-16,-8
1517204146734555,-3,23,0,-2,0,0,14,16
1517204146734555,13,-13,-30,-5,-4,-3,-38,-61
1517204146749611,12,6,23,11,4,2,16,17
1517204146749611,-9,6,-1,1,0,-1,-1,2
1517204146751111,4,2,11,-14,-5,-1,0,-7
1517204146751111,-13,22,-40,-9,-2,-2,1,5
1517204146772134,-36,-26,10,6,4,3,14,13
1517204146772134,35,-15,-29,0,-1,-2,-11,-15
1517204146774629,5,38,-12,5,-1,-4,15,6
1517204146774629,-1,-22,30,-12,-5,-2,8,9
1517204146786159,-11,2,-49,-8,-5,-3,-20,-23
1517204146786159,-12,6,24,1,-1,-5,13,16
1517204146794652,-1,-40,-33,-4,-6,-2,-13,-12
1517204146794652,-26,-3,29,-6,-3,-1,13,-2
1517204146809664,21,25,42,11,2,-1,-1,8
1517204146809664,-19,-51,-42,-12,-6,-6,-7,-11
1517204146811165,35,25,12,-1,5,4,11,18
1517204146811165,-12,-15,-13,2,-3,-6,-21,-21
1517204146832167,1,-41,-18,-14,-4,-1,19,14
1517204146832167,-3,31,50,18,3,0,-34,-14
1517204146833681,11,20,8,16,7,6,11,5
1517204146833681,-4,7,-19,-28,-10,-12,2,6
1517204146845680,3,9,44,16,5,2,-23,-15
1517204146845680,-9,14,2,1,0,4,20,18
1517204146854686,-19,-18,-38,-21,-12,-9,-33,-20
1517204146854686,21,15,23,13,5,4,8,24
1517204146870207,9,-4,9,3,1,0,0,-40
1517204146870207,-7,-3,29,6,-2,0,9,13
1517204146871696,-16,-19,-2,-3,-1,-2,-8,-14
1517204146871696,13,-1,8,16,5,6,7,13
1517204146891719,-24,-18,-34,-11,-7,-8,-10,8
1517204146891719,-2,-5,26,9,3,2,2,-5
1517204146893721,-7,-26,-31,-12,-1,-1,-20,-5
1517204146893721,17,-2,-4,18,2,1,1,8
1517204146905719,-19,-7,-8,-36,-6,-1,39,11
1517204146905719,11,5,4,2,2,0,-32,-11
1517204146914729,-5,-33,15,1,-3,-3,-4,-28
1517204146914729,-34,-18,-8,-5,-1,-2,18,-1
1517204146930237,-3,-1,-14,1,-3,0,3,8
1517204146930237,-7,1,-1,-9,-6,-3,-4,-10
1517204146930739,1,1,25,1,3,0,2,5
1517204146930739,14,9,9,6,2,3,-2,-10
1517204146952253,11,-21,-1,8,1,0,15,19
1517204146952253,20,2,-27,2,3,-1,-8,-23
1517204146953755,-2,-14,9,6,-2,-3,6,2
1517204146953755,-6,0,-17,-3,-3,-2,-27,3
1517204146965763,-13,28,23,6,2,-1,-10,-19
1517204146965763,-9,-23,-12,-1,-2,1,14,16
1517204146974777,1,-2,9,1,1,0,1,1
1517204146974777,-2,-8,-47,-7,-2,0,3,4
1517204146989778,0,8,48,20,1,-3,-5,-15
1517204146989778,2,12,-65,-24,-7,-4,11,12
1517204146991780,-7,7,29,-1,-2,-2,-5,-6
1517204146991780,-7,-3,-3,8,1,1,4,5
1517204147012297,21,-8,-15,-9,-4,-3,12,22
1517204147012297,-4,-24,-8,9,2,2,9,-31
1517204147013803,8,42,-25,0,-2,2,-5,11
1517204147013803,-4,-27,-17,-17,-6,-4,0,-8
1517204147025814,2,-11,-9,13,7,0,-11,10
1517204147025814,-25,24,32,-4,-1,1,13,14
1517204147034310,3,-17,-15,5,4,2,0,-7
1517204147034310,9,68,24,-4,-5,1,12,33
1517204147049322,-2,18,20,-1,-1,-4,-58,-32
1517204147049322,-3,-14,-6,5,0,-2,2,9
1517204147051322,-1,20,42,-10,-6,-3,18,-1
1517204147051322,-32,-12,-53,-6,-4,-5,-16,-27
1517204147071849,16,-27,-2,-9,-2,1,5,-7
1517204147071849,-1,28,27,10,-1,1,13,36
1517204147073338,-9,-29,-1,-8,-1,-1,-19,-23
1517204147073338,-28,11,-3,2,0,-4,3,-18
1517204147085776,-8,6,-26,-13,-2,1,3,7
1517204147085776,11,5,0,-8,-3,-2,-6,-8
1517204147094802,-24,-25,12,12,1,-5,-6,16
1517204147094802,18,-13,-8,-19,-5,2,2,11
1517204147109290,-2,-12,-3,11,3,-3,-6,-17
1517204147109290,5,8,12,-5,-4,-3,-8,-11
1517204147111301,26,-2,-32,-5,-3,1,16,51
1517204147111301,9,-18,23,6,1,0,-25,-51
1517204147132307,-30,-3,-4,4,-7,-5,-8,-1
1517204147132307,19,9,-26,-18,1,3,22,5
1517204147133809,11,6,-7,4,2,-2,-2,-5
1517204147133809,-2,-1,39,4,2,0,-2,4
1517204147155378,8,10,-16,-1,-2,-1,4,1
1517204147155378,-52,24,-3,-6,-6,-6,4,1
1517204147160366,-3,-15,-21,-9,-5,-1,18,-1
1517204147160366,9,-6,-13,7,3,-1,-16,-5
1517204147169375,5,5,8,5,2,4,1,14
1517204147169375,-15,-19,-3,6,-3,-4,-22,-27
1517204147170873,-4,-5,-1,1,1,1,4,20
1517204147170873,14,57,28,5,0,-2,5,-2
1517204147191898,10,-4,13,-13,-4,2,-1,31
1517204147191898,4,-14,6,7,2,-1,-4,-25
1517204147193389,13,19,44,7,1,2,-18,-25
1517204147193389,-7,-6,-8,18,1,1,1,9
1517204147214905,6,-3,-9,-14,0,0,2,-8
1517204147214905,3,-24,-18,-8,-3,-2,15,18
1517204147215907,15,43,66,10,2,1,-3,-3
1517204147215907,12,-12,32,13,0,4,15,28
1517204147229465,-28,-10,-21,-28,-12,-9,-31,-38
1517204147229465,5,3,30,9,6,3,-12,13
1517204147230964,3,-21,-42,-14,-3,0,0,-16
1517204147230964,29,9,43,7,-1,1,25,62
1517204147252001,-5,-19,-41,9,2,-5,-64,-52
1517204147252001,-19,-11,8,1,2,3,-6,-6
1517204147253484,-14,10,-6,-3,-6,-4,-8,3
1517204147253484,8,-9,-32,-20,-1,1,7,-16
1517204147274495,5,14,21,7,1,-2,14,16
1517204147274495,4,18,13,5,-2,-3,-9,-3
1517204147275996,-6,-4,-81,-19,-9,-6,-10,-10
1517204147275996,-8,-5,-1,6,2,3,18,0
1517204147289014,4,-17,-9,-13,1,4,11,3
1517204147289014,2,-2,12,0,-4,-6,-11,-9
1517204147295528,-10,3,-5,-3,-2,-4,-6,-1
1517204147295528,1,8,23,0,-1,-4,-3,-13
1517204147312023,-3,14,38,19,4,2,12,19
1517204147312023,16,-21,-41,-3,0,2,-1,-15
1517204147313524,-2,25,8,-8,-2,-2,8,9
1517204147313524,-10,-24,-23,-5,1,0,-10,-21
1517204147334740,6,-7,-14,9,2,2,18,11
1517204147334740,-3,5,8,-9,-6,-3,0,-2
1517204147336239,-2,16,19,14,5,0,-8,-4
1517204147336239,-1,-18,-7,-6,-5,-1,13,8
1517204147349252,-38,-7,-35,-9,-2,0,-22,-22
1517204147349252,-17,-5,27,0,1,1,9,8
1517204147355759,0,-26,-76,5,-1,-2,-3,5
1517204147355759,-8,-33,-28,-5,-1,-4,-9,-35
1517204147371764,-5,-50,15,-1,-3,-3,17,-3
1517204147371764,29,38,16,-16,-3,3,7,15
1517204147374265,-7,12,37,3,0,0,7,2
1517204147374265,-7,-1,-37,-5,0,-2,-16,-30
1517204147394289,9,34,1,6,-2,-1,12,12
1517204147394289,8,-7,-6,-5,-2,-3,-12,-4
1517204147396283,-9,-34,-19,4,3,2,16,17
1517204147396283,5,18,-2,-10,-6,-3,-12,-2
1517204147408803,-5,20,31,2,-1,-3,-16,-12
1517204147408803,10,18,-7,6,-3,-6,-4,16
1517204147415795,-5,-64,-14,-8,-4,-1,-5,-13
1517204147415795,2,53,67,15,2,-1,6,3
1517204147432324,-41,-51,-84,-15,-5,-6,13,-4
1517204147432324,11,3,3,7,1,0,-8,6
1517204147433807,-12,20,27,2,3,-1,-1,-15
1517204147433807,10,-25,5,-12,-3,2,5,10
1517204147454334,-2,57,35,13,2,0,12,15
1517204147454334,-24,-89,-2,-8,-2,-2,10,-16
1517204147455823,9,4,-32,-1,1,-2,-6,-20
1517204147455823,-3,18,5,3,3,2,0,13
1517204147468845,12,14,-2,-5,-4,0,4,5
1517204147468845,13,-13,-32,-1,-2,-4,10,3
1517204147475838,-10,7,36,1,-5,-3,8,2
1517204147475838,4,-6,-16,1,-1,-4,-29,-8
1517204147491903,8,-23,11,-5,-6,-2,-6,16
1517204147491903,-4,17,-14,4,4,2,1,-7
1517204147493404,4,-23,7,0,-1,-3,-16,3
1517204147493404,-4,1,-13,-15,-4,-2,-3,-2
1517204147514419,0,3,-18,2,2,3,5,-8
1517204147514419,10,12,71,8,-2,-1,-8,8
1517204147515920,-9,-10,-64,-8,-3,0,5,-2
1517204147515920,-6,19,18,-9,-2,-3,-3,2
1517204147528930,7,7,8,7,0,1,-2,-5
1517204147528930,-9,21,33,-3,0,0,-1,4
1517204147535433,9,13,16,5,2,-1,0,-2
1517204147535433,-4,-37,-45,-8,-5,-2,5,10
1517204147551946,-3,8,-20,-12,-3,0,5,-5
1517204147551946,-6,-8,-29,1,0,-4,-6,-5
1517204147553448,1,35,44,-4,-2,0,0,-1
1517204147553448,-5,-8,-11,3,0,1,-3,-4
1517204147574461,11,2,23,2,2,-2,4,5
1517204147574461,-8,-6,-25,3,1,1,-4,-3
1517204147575962,0,-3,-4,-11,-2,-2,-4,-1
1517204147575962,-1,5,12,0,-2,-3,1,-3
1517204147588984,5,-9,1,3,1,-3,2,4
1517204147588984,-3,3,-12,-3,-3,-3,-5,-11
1517204147595478,4,0,0,-3,-1,-2,1,4
1517204147595478,-5,-8,-6,2,-2,-4,-3,-1
1517204147611989,5,7,9,-1,1,3,4,2
1517204147611989,-1,-4,-15,-5,-2,-2,-6,0
1517204147613504,-3,-2,7,0,0,1,1,-2
1517204147613504,-3,-4,-2,1,-1,0,-1,0
1517204147634505,-2,-2,1,-1,-3,-4,-6,-2
1517204147634505,1,3,-4,1,-1,-2,0,-3
1517204147636005,-3,-9,-7,-12,-1,0,-2,1
1517204147636005,-2,1,4,-1,-1,-1,-1,-4
1517204147648016,4,3,3,0,1,-1,1,2
1517204147648016,-1,-1,-6,-9,-6,-3,-1,0
1517204147657021,-3,1,4,12,1,1,0,-1
1517204147657021,-1,-1,-2,4,-4,-5,-3,-2
1517204147672045,1,2,1,-9,-2,0,2,-1
1517204147672045,-3,-5,-8,4,3,-1,-5,-6
1517204147673532,-2,-4,-6,-8,-5,-4,-3,-1
1517204147673532,-1,0,7,2,3,1,1,2
1517204147696058,-2,-6,1,-2,-5,-1,-1,-2
1517204147696058,-3,-2,-2,3,2,-3,-3,-2
1517204147697548,3,0,-1,2,-2,-2,-2,0
1517204147697548,2,-1,-4,-2,2,0,0,0
1517204147708065,0,2,0,3,-1,-1,0,2
1517204147708065,-2,-4,-6,-11,-6,-1,-2,-2
1517204147717063,-4,-1,8,8,2,-1,-2,-4
1517204147717063,0,-2,-3,-7,-3,-1,-1,0
1517204147732142,0,1,3,-2,1,0,-1,-2
1517204147732142,-1,0,-13,-8,0,1,1,0
1517204147733541,-1,-7,-7,5,-2,0,-2,-1
1517204147733541,-1,-2,6,0,-3,-1,0,-2
1517204147754556,0,1,4,2,1,-1,-1,1
1517204147754556,2,3,4,0,-3,-1,-2,0
1517204147757054,-3,-2,-7,-11,-1,-2,-1,-3
1517204147757054,0,-1,-2,5,0,-1,1,2
1517204147768063,-2,-3,-2,-1,0,-1,-1,-1
1517204147768063,-1,-3,0,0,0,1,0,1
1517204147777083,-1,1,-1,-2,-1,0,0,0
1517204147777083,-3,-5,-9,-5,-1,-3,-1,-4
1517204147792090,1,0,0,2,0,2,1,-1
1517204147792090,-4,-3,-2,1,0,-3,-3,-2
1517204147793588,0,1,-1,-4,-1,0,0,-2
1517204147793588,-2,1,2,1,-1,1,-2,0
1517204147814597,0,-3,0,1,0,0,-1,-2
1517204147814597,0,-3,-5,-4,1,3,0,0
1517204147816096,-1,0,7,-1,-3,-2,-2,0
1517204147816096,-1,-2,-9,0,1,-3,-4,-2
1517204147828119,1,0,8,7,-1,-3,-2,-1
1517204147828119,-2,-2,-3,-8,-3,-2,-1,-2
1517204147837109,-2,-1,-4,3,0,-2,1,0
1517204147837109,-1,-1,0,-2,-1,0,1,-1
1517204147852120,-2,-2,-8,-3,0,-2,-1,-3
1517204147852120,1,2,2,3,2,2,0,-1
1517204147853623,-2,-3,-7,-6,-4,-5,-2,-3
1517204147853623,-2,1,1,-1,0,0,-1,-1
1517204147874637,0,1,-1,1,-1,-1,0,0
1517204147874637,-2,-2,1,-1,-1,0,-2,-1
1517204147876138,1,0,1,1,1,1,2,1
1517204147876138,0,-1,1,0,-1,-2,-2,-2
1517204147888148,-2,-2,0,-4,-2,-2,-3,-2
1517204147888148,-1,-2,1,0,-1,-1,0,0
1517204147897159,0,1,2,2,1,0,1,0
1517204147897159,-3,-2,-3,-2,-3,-4,-2,-2
1517204147911663,-2,-1,-1,-5,-3,-1,-1,-2
1517204147911663,1,-2,-3,-1,-1,-2,0,0
1517204147913723,0,-1,1,2,1,-2,-2,-1
1517204147913723,-1,-1,-1,-1,-2,0,0,0
1517204147934738,-1,-1,-2,-2,-1,-2,-2,-1
1517204147934738,-3,-2,-3,0,-2,-2,-2,-1
1517204147936247,-2,-2,1,-3,-1,-2,-1,0
1517204147936247,1,-1,1,-1,-2,-1,0,-1
1517204147948254,-1,0,-1,1,-1,-3,-1,-1
1517204147948254,0,0,1,-1,-1,-1,-1,-1
1517204147957251,-1,0,-2,0,-1,0,-2,-2
1517204147957251,-1,0,-1,0,1,0,0,-2
1517204147971761,-2,-2,-2,-1,-1,-1,-1,-2
1517204147971761,0,0,-1,-1,-1,0,0,-2
1517204147974263,-4,-1,-1,-2,-5,-3,-1,-1
1517204147974263,1,0,-2,1,0,0,0,-1
1517204147994331,0,0,-2,-2,-2,-1,0,0
1517204147994331,-1,-2,-1,1,0,-2,0,-2
1517204147996330,-1,-1,-3,-4,-2,-2,-1,-1
1517204147996330,-2,-2,-2,-1,-1,0,-2,0
1517204148007849,-2,-3,-2,1,0,-2,-1,-1
1517204148007849,-1,-2,-3,0,-2,-2,-1,-1
1517204148017350,0,-1,-1,-1,0,-1,-1,-2
1517204148017350,1,0,1,0,-1,-2,-2,0
1517204148031922,-1,-2,-3,-1,-1,0,-2,0
1517204148031922,0,1,1,-1,0,0,-2,-2
1517204148033417,0,0,-1,-1,0,-1,1,0
1517204148033417,-2,-1,-3,-2,-2,-2,-1,0
1517204148054437,-1,0,-1,1,-1,-1,0,-1
1517204148054437,-2,0,-2,-1,-1,-1,-1,-2
1517204148055934,-2,-3,-2,0,-1,-1,1,-2
1517204148055934,-2,-2,-1,-1,1,1,-1,-1
1517204148076974,-3,-2,-1,-3,-2,-1,0,-1
1517204148076974,-2,-1,-2,0,-1,-1,-1,-1
1517204148078449,1,-1,-1,-1,0,0,-2,-1
1517204148078449,0,0,0,-1,-1,0,0,-2
1517204148090970,-1,-1,-2,-1,-1,-2,0,-1
1517204148090970,0,-1,1,0,-1,-3,0,-1
1517204148099466,0,-1,-1,0,-1,1,-2,0
1517204148099466,-2,-2,-1,0,-2,0,-1,-1
1517204148114981,0,-2,0,-2,-4,-2,-3,-1
1517204148114981,-2,0,-1,-1,-1,-1,-3,-1
1517204148116477,0,0,-1,-1,-2,-2,-2,0
1517204148116477,-2,-2,-1,-2,0,-1,-2,-1
1517204148137012,-1,-2,-1,-2,-2,-2,-2,-1
1517204148137012,-1,1,0,-2,-1,1,1,1
1517204148138514,-3,-1,-2,0,-2,0,-1,-1
1517204148138514,0,-1,0,-3,0,-1,-2,-3
1517204148151022,-1,-2,-2,-2,-1,-3,-2,-1
1517204148151022,-1,-1,-2,-1,-1,0,-2,0
1517204148158527,-1,1,-1,0,-1,-2,-2,-1
1517204148158527,-2,0,0,-1,-1,-1,1,0
1517204148174569,0,-1,1,0,-1,0,-1,0
1517204148174569,-1,-2,-1,0,-1,-1,-1,-1
1517204148177091,-2,-3,0,-2,-1,0,-1,-1
1517204148177091,-1,-2,-2,0,-1,-1,0,-1
1517204148197096,1,0,0,-2,0,0,-2,-1
1517204148197096,0,-2,-1,-2,-2,0,0,-1
1517204148198586,1,0,-1,1,-1,1,-1,-1
1517204148198586,-1,-2,-2,-2,-2,-4,0,0
1517204148219612,-1,0,-2,-2,0,-2,1,-1
1517204148219612,-1,-1,-1,-1,-1,-3,0,0
1517204148220100,0,-1,-2,-1,1,0,-1,-1
1517204148220100,-1,-3,-3,-2,-2,-2,-1,-1
1517204148234112,-1,-2,-2,1,-3,-1,-1,1
1517204148234112,-2,-2,-3,0,-1,0,-1,-3
1517204148234612,-1,-2,-3,1,0,-2,-2,0
1517204148234612,-1,1,0,-2,-1,0,-1,-2
1517204148256127,0,0,1,0,-1,-2,-2,-2
1517204148256127,-1,-1,-1,-1,-2,1,-1,0
1517204148257127,-1,-1,0,-2,-1,0,-1,-1
1517204148257127,-2,-1,-2,0,-1,-1,0,-2
1517204148270635,-1,-1,-1,0,0,2,0,-3
1517204148270635,0,-2,-2,-2,0,0,-3,0
1517204148278642,-1,-2,-1,-1,0,-1,-1,-4
1517204148278642,-1,0,-2,-1,-3,-1,-3,0
1517204148293661,-2,-1,-1,0,-2,-3,-1,-2
1517204148293661,-1,-1,-2,-2,2,-2,0,-2
1517204148294672,0,-1,0,-1,-2,-1,-1,1
1517204148294672,0,-2,0,-1,-1,-1,-1,0
1517204148316669,-1,-2,-2,-1,-3,0,-1,-1
1517204148316669,-2,-1,-1,-1,-2,-2,-1,-1
1517204148317171,-1,-2,-1,-1,-1,1,0,-1
1517204148317171,-1,0,-1,0,-1,-2,-2,0
1517204148330681,0,0,-1,-2,2,0,-2,-1
1517204148330681,0,-2,-1,-2,-2,-4,0,-1
1517204148338699,-2,-1,-2,-2,-1,-1,0,-3
1517204148338699,-1,0,-2,0,0,2,1,-1
1517204148353694,-1,0,0,-1,-4,-2,0,0
1517204148353694,0,0,-1,-1,0,1,0,-1
1517204148354194,-1,-1,-2,0,-2,-2,-2,-2
1517204148354194,-1,-2,-1,1,1,-1,-1,-3
1517204148376225,-1,-1,0,-1,1,-1,-1,1
1517204148376225,-1,0,1,-1,-2,-1,-1,1
1517204148377226,0,-1,-2,0,-2,-1,1,-1
1517204148377226,-1,-1,-2,-2,0,-1,0,-2
1517204148391230,-1,-1,-1,-2,-1,0,0,0
1517204148391230,0,-2,-1,0,-2,-1,-1,-1
1517204148392231,-2,0,-1,-2,-1,1,0,-1
1517204148392231,-1,-1,-1,0,-2,-1,-2,-1
1517204148413741,-1,-1,-1,0,-2,-1,0,-2
1517204148413741,-1,-1,-1,-2,-2,0,-1,0
1517204148414740,-3,-1,-2,-1,-1,-3,-1,-2
1517204148414740,0,-2,0,-1,-1,0,0,0
1517204148436253,-1,-3,-1,-1,-1,0,-3,-1
1517204148436253,-2,-1,-2,0,-1,0,0,-1
1517204148437253,0,0,0,-2,1,-2,-2,-1
1517204148437253,-2,-2,-1,-2,-2,-2,-1,0
1517204148451277,-1,-1,-2,-2,-1,-3,-1,-1
1517204148451277,-2,-1,-3,-2,-1,-1,-2,0
1517204148452268,-1,-3,1,-1,1,0,0,1
1517204148452268,-1,0,-1,-1,0,-1,1,-2
1517204148473780,-1,1,-2,0,0,1,0,-1
1517204148473780,-1,0,-1,-2,-1,-1,-2,0
1517204148474279,-2,0,-2,-1,-1,0,-1,-1
1517204148474279,-2,-2,-1,-1,-4,-1,-1,0
1517204148496296,-1,-1,-1,0,0,-1,-2,-2
1517204148496296,-1,1,-1,-1,1,-3,0,-1
1517204148497296,-1,-2,-1,-2,-1,-2,-1,-1
1517204148497296,-2,-2,-2,-2,0,1,-1,-1
1517204148519565,-1,0,-2,-1,0,0,-1,-1
1517204148519565,0,-1,-2,0,-1,-1,1,-3
1517204148520059,-2,-2,-2,-1,0,-3,-3,-3
1517204148520059,0,0,-1,-1,-1,-2,-2,-2
1517204148534079,-1,-1,0,-1,-2,-1,-1,-3
1517204148534079,-2,-2,-2,-3,-1,0,-2,-2
1517204148535080,-1,-1,-1,-2,0,-1,0,1
1517204148535080,-2,0,-1,-1,0,-1,-2,-2
1517204148556085,-1,-1,-2,-1,-3,-3,-1,0
1517204148556085,-2,-2,0,-1,-1,-2,0,-2
1517204148557085,-1,0,0,-1,-1,0,-1,-1
1517204148557085,0,-1,-1,-2,-1,-2,-1,-2
1517204148571107,-1,-1,1,-2,-1,0,0,-2
1517204148571107,0,-2,0,-1,0,-1,0,0
1517204148572107,-2,-1,-1,-3,-2,-2,-2,0
1517204148572107,-1,-3,-1,-1,-1,-1,-1,1
1517204148593623,-1,-3,1,-1,-1,1,0,0
1517204148593623,-2,0,0,0,-5,-2,-2,-1
1517204148594621,0,0,-2,-2,-1,0,0,0
1517204148594621,0,0,-1,-2,-1,-2,0,0
1517204148616129,-1,-1,-1,-2,-1,-1,-1,-1
1517204148616129,0,-2,-1,-2,0,0,-2,-1
1517204148617130,-1,-1,-1,-1,-2,-1,-2,-1
1517204148617130,-1,-2,0,0,-2,0,-1,-2
1517204148630655,-1,-1,-1,-1,0,-2,-1,1
1517204148630655,-1,-2,0,-1,-2,-1,-1,0
1517204148638652,-1,0,1,-1,-1,-1,-2,0
1517204148638652,-1,-1,-2,-2,-1,-2,-1,1
1517204148653671,-1,-2,-1,-2,-1,-1,-2,-1
1517204148653671,-2,0,-2,-1,-1,0,0,-2
1517204148654654,1,-1,-1,-1,-1,-2,0,-2
1517204148654654,0,0,-1,0,-1,-1,-2,-2
1517204148676170,0,-3,0,-1,-2,-1,-1,1
1517204148676170,-1,-3,-1,1,-2,0,0,-1
1517204148677170,-2,-3,0,0,-1,-1,-1,0
1517204148677170,-1,-1,1,-1,-1,-3,0,-2
1517204148690691,-2,0,-1,0,1,-1,0,-2
1517204148690691,-1,-1,0,-1,-2,-3,-1,-1
1517204148698735,-2,0,-1,-1,0,0,-2,-1
1517204148698735,-1,-2,-2,0,-2,0,-1,-1
1517204148714249,-2,-2,-1,0,-1,-1,-2,-2
1517204148714249,0,0,-1,0,-1,-1,-1,0
1517204148714748,-1,-2,-1,-2,-2,-2,1,0
1517204148714748,-3,0,-1,-3,-1,-2,-1,-1
1517204148736272,-1,-1,-2,1,-1,-1,1,-1
1517204148736272,0,-1,0,-1,-2,0,-3,-1
1517204148737282,0,-1,-2,0,-2,-2,0,0
1517204148737282,0,1,-1,-1,-1,-1,0,0
1517204148750772,-1,-2,-1,-2,-4,-3,0,0
1517204148750772,-1,1,-3,-2,1,-2,0,-1
1517204148766298,-1,0,-1,0,-2,-1,-2,-1
1517204148766298,-1,-3,-2,-2,0,-1,-1,-1
1517204148774299,-2,-1,-1,-1,-2,1,-2,0
1517204148774299,0,-1,-2,1,-1,0,-1,-2
1517204148775289,0,0,-2,-1,-1,-2,0,-1
1517204148775289,-1,-2,-2,0,-1,-2,0,1
1517204148796305,-1,-1,0,-2,1,-1,-1,-2
1517204148796305,0,-2,-2,-3,0,-1,-2,0
1517204148796804,-1,-1,-2,1,0,1,-1,-2
1517204148796804,-2,-1,-1,0,0,-2,-1,0
1517204148810814,1,1,0,-1,0,0,0,-3
1517204148810814,-3,-1,1,-1,-2,0,0,-1
1517204148818820,-2,0,-1,-2,0,0,0,-2
1517204148818820,-1,0,-1,0,-2,1,0,-2
1517204148833832,-2,0,-1,0,-2,-1,-1,0
1517204148833832,-1,-1,-2,-2,-1,-1,-1,-2
1517204148834332,-1,-1,-1,-1,-1,-1,0,-2
1517204148834332,0,-1,0,-2,-3,0,-1,-3
1517204148856348,0,-3,-2,-2,-2,-2,-1,-1
1517204148856348,-2,0,-1,-1,-2,-1,-1,-1
1517204148856847,-3,-2,-1,0,-1,0,0,0
1517204148856847,-1,0,-2,-1,-1,-2,0,-1
1517204148870857,1,0,-1,0,-1,-1,-2,0
1517204148870857,0,-2,0,-2,-2,-1,0,0
1517204148878865,-2,-2,0,-3,-1,-2,-1,-2
1517204148878865,-2,-2,0,0,-1,0,-1,1
1517204148893894,-1,-2,-1,0,0,0,-1,-2
1517204148893894,-1,0,-1,-2,0,0,-1,-3
1517204148894374,0,-1,-2,-1,-3,1,-2,-1
1517204148894374,0,-2,0,0,-1,-2,0,-1
1517204148916406,1,-1,0,-2,-2,-1,-1,0
1517204148916406,-2,-1,-1,2,-1,-2,0,1
1517204148916891,0,0,-3,-1,-1,-3,0,0
1517204148916891,-2,0,-1,-2,0,0,-3,-1
1517204148939462,-2,-2,-1,-2,-1,-1,-2,0
1517204148939462,-1,-2,-1,-1,-1,-2,-1,-1
1517204148939958,0,-1,1,-1,-1,0,-1,0
1517204148939958,0,-1,-1,-1,0,-1,0,-1
1517204148953960,0,1,0,-2,-3,-2,-1,0
1517204148953960,-1,-3,-2,-1,-1,-1,0,-3
1517204148954475,0,-1,-2,-2,-1,-2,-3,-1
1517204148954475,-1,-2,-2,-2,-1,-1,-2,0
1517204148975988,-2,-2,-1,0,1,0,0,-2
1517204148975988,1,-1,-2,0,0,-2,-1,-1
1517204148976989,-1,-2,-2,0,-2,-1,-2,-2
1517204148976989,-2,-1,-1,0,-1,-1,-2,-1
1517204148999605,-1,-1,-2,-2,0,0,0,0
1517204148999605,-1,-2,0,-1,-1,-2,-1,0
1517204149000106,-1,-1,-2,-1,-1,-2,-1,-1
1517204149000106,0,1,-3,-2,-1,-1,0,-1
1517204149014113,-1,0,0,0,-1,-2,-1,-2
1517204149014113,-3,0,0,-2,-1,-2,-3,0
1517204149014614,-2,-1,0,0,0,-2,0,0
1517204149014614,-1,-1,-1,0,-1,-1,0,-1
1517204149036127,-2,-1,0,-1,-2,0,0,-1
1517204149036127,0,-1,-1,-1,0,0,1,-1
1517204149037130,-1,0,-1,-1,0,-1,-2,-2
1517204149037130,-1,-1,0,-3,1,-2,-3,-1
1517204149059674,-1,-2,-3,-1,0,-2,-2,-1
1517204149059674,0,-1,-1,0,-1,2,0,-2
1517204149060145,-1,-1,0,-1,-2,-2,-1,-1
1517204149060145,0,-1,-2,0,-1,-1,1,-1
1517204149073656,1,0,-1,-2,0,-1,0,0
1517204149073656,-3,-2,-2,-1,1,-1,-3,1
1517204149074667,1,-1,-1,-2,-2,0,1,-1
1517204149074667,-1,-3,0,0,-2,-3,-1,0
1517204149096171,-3,-2,-1,0,-2,-2,-1,-2
1517204149096171,0,1,0,-2,1,1,0,-1
1517204149097174,0,-1,-1,-1,-1,-2,0,0
1517204149097174,-2,0,-1,-2,-1,-2,-2,-1
1517204149119686,-2,-2,-3,-2,-2,-3,-2,1
1517204149119686,-2,-1,-1,-1,-1,0,-1,-3
1517204149120188,0,-2,0,-1,1,-1,0,0
1517204149120188,1,-1,0,-2,-2,-1,0,-1
1517204149133698,0,-1,-1,-1,0,1,-1,-2
1517204149133698,-2,-2,-1,-3,-2,-3,-2,-1
1517204149134202,-1,0,-2,-1,1,-2,-1,-3
1517204149134202,-2,-2,-2,0,-1,0,-2,-1
1517204149156213,1,-1,-1,-1,-1,-1,-1,-2
1517204149156213,0,-1,-2,0,0,-1,-1,0
1517204149158213,-3,-1,-1,0,-2,0,0,1
1517204149158213,0,-2,-1,-1,-2,-1,0,-2
1517204149179251,-2,0,-2,-2,-1,0,1,1
1517204149179251,-2,-2,0,0,-3,-3,0,-2
1517204149180253,-2,-1,-2,-1,-2,0,-1,-3
1517204149180253,-2,-1,0,-1,0,1,0,0
1517204149193761,-1,0,-1,-2,-1,-1,-1,-2
1517204149193761,0,0,-2,-1,-2,0,-1,-2
1517204149194762,-2,-1,0,-1,-1,-1,-1,1
1517204149194762,1,-3,-1,-1,0,0,-1,-1
1517204149216294,1,1,-2,-2,-3,-1,0,0
1517204149216294,-1,-1,-1,0,0,-1,0,-2
1517204149216781,0,-2,-2,-1,-2,-2,0,-1
1517204149216781,0,1,-1,-1,-2,-2,-2,-1
1517204149239306,-1,-3,-2,-2,-2,-2,-1,0
1517204149239306,-1,-1,-1,-1,1,-3,-1,0
1517204149240304,-1,-1,-2,-2,-2,-1,-2,0
1517204149240304,-1,-1,-1,-1,0,0,-1,-1
1517204149253803,-1,-1,-1,0,-1,0,-2,-1
1517204149253803,-1,0,-2,-2,-3,0,0,-1
1517204149254305,-1,0,-1,-1,0,0,-1,0
1517204149254305,0,-1,-1,-1,-3,-1,0,-1
1517204149276340,-1,-1,-2,0,-2,-2,-2,-3
1517204149276340,-2,-2,-2,-2,-1,0,-3,-1
1517204149276819,-2,0,-1,-1,0,-2,-1,1
1517204149276819,-1,0,-1,0,-1,0,-1,1
1517204149299351,0,-2,0,0,1,1,0,0
1517204149299351,0,-2,2,0,-1,0,-1,-1
1517204149300338,-1,-1,-2,-3,-1,0,-1,-1
1517204149300338,-4,-1,-2,-2,-2,-3,-2,-1
1517204149313862,-1,0,-3,-1,-2,-1,-2,-3
1517204149313862,-1,-1,0,-2,-2,-1,-2,0
1517204149314357,0,-1,-1,-1,-2,1,-2,-4
1517204149314357,-2,-1,0,-1,-2,1,0,-2
1517204149336371,-1,-1,-2,0,0,-3,0,0
1517204149336371,-1,0,-2,0,-2,-2,0,-1
1517204149336872,-1,-2,-1,-1,-1,-1,0,-3
1517204149336872,0,-1,-2,-2,1,-2,-2,0
1517204149359388,0,-1,0,0,1,-2,-3,-2
1517204149359388,1,0,-2,-2,0,-1,1,-1
1517204149359879,0,-1,0,-1,-1,-2,-2,0
1517204149359879,0,-2,-1,-1,-1,-1,0,-1
1517204149374399,-1,0,0,-1,-1,-2,-1,0
1517204149374399,-1,-1,-3,-1,-1,-3,-1,-1
1517204149375416,-1,-2,-3,-1,0,-2,0,-1
1517204149375416,-1,-1,-1,1,1,0,-1,-2
1517204149396404,0,0,-2,-4,1,0,-1,-1
1517204149396404,-2,0,-1,-1,-3,-1,-1,-2
1517204149396905,-2,-1,-2,0,-2,0,0,0
1517204149396905,-2,-1,-2,-2,-1,-3,0,0
1517204149419433,-2,-1,0,0,0,-1,0,-2
1517204149419433,-1,-2,-2,0,0,-2,-1,0
1517204149420421,-1,-1,0,-2,-1,1,0,-3
1517204149420421,-1,-1,0,-1,-2,-1,-2,0
1517204149433432,-1,0,-1,0,-2,1,-1,0
1517204149433432,-1,0,0,0,0,1,-2,0
1517204149441449,-1,-3,-1,-1,0,-2,0,-1
1517204149441449,0,-1,-3,-1,-1,0,-1,-2
1517204149455956,-3,0,-1,0,-1,-2,-2,-1
1517204149455956,-1,-2,0,0,0,0,-1,-1
1517204149456947,-1,-1,-1,0,-2,0,-1,-3
1517204149456947,-1,-1,-2,0,0,0,-1,-2
1517204149479464,1,-1,0,-2,0,0,-1,0
1517204149479464,1,0,-1,0,0,0,0,-1
1517204149480463,-3,0,-3,0,0,-1,0,0
1517204149480463,-1,-2,-3,-1,-1,0,-1,-2
1517204149493485,-1,-1,-2,-1,-1,-3,-1,-1
1517204149493485,-1,-3,0,-3,-3,-2,-1,-2
1517204149494487,-1,-1,0,1,-2,-2,-3,1
1517204149494487,-1,1,-1,-1,-2,-2,0,-1
1517204149516492,-1,-2,-1,-1,-1,-2,-1,-2
1517204149516492,-1,-1,-2,-1,-1,-1,-1,-1
1517204149516993,0,1,-2,-1,0,-1,-1,-1
1517204149516993,0,-1,-2,-1,0,-2,0,-1
1517204149539515,-1,-3,-1,-3,-2,-1,0,-1
1517204149539515,-2,-1,-3,-2,-1,0,-1,-1
1517204149540005,-2,0,0,-1,0,0,0,-2
1517204149540005,-1,-1,0,-1,1,-1,2,0
1517204149553517,-1,-1,-1,-1,1,1,0,0
1517204149553517,0,-4,-2,-1,-1,0,0,0
1517204149554516,-1,-1,-2,-2,0,-1,-2,-2
1517204149554516,-1,-1,-3,-2,-1,-2,-1,-1
1517204149576031,-2,0,0,0,-2,0,0,0
1517204149576031,-1,2,-1,-2,0,0,0,-1
1517204149577032,0,-2,0,-1,-1,0,-1,1
1517204149577032,-1,-2,0,0,-1,-1,-1,-1
1517204149599548,-1,0,-1,-1,-3,-2,-1,-1
1517204149599548,-1,1,-1,-2,0,-3,-1,-1
1517204149600049,-1,0,-2,-1,-3,0,0,-1
1517204149600049,-2,-1,-1,-1,-1,0,-3,-1
1517204149613558,-1,-2,-2,-1,-1,1,-2,-1
1517204149613558,-2,-2,-2,-2,-1,-1,0,-1
1517204149621064,-1,-2,0,0,-1,-2,1,-1
1517204149621064,-1,-1,-3,0,0,0,-3,0
1517204149636094,-2,-2,-2,0,-1,-1,-1,-1
1517204149636094,-1,-2,-3,0,-1,-1,-1,0
1517204149637075,-2,1,0,-2,-1,-1,-1,-1
1517204149637075,-2,-2,0,-1,-2,-1,-2,1
1517204149659100,-1,-1,1,-2,0,-1,0,0
1517204149659100,0,0,-2,0,0,0,-1,0
1517204149660100,0,-2,-2,-1,-2,-2,-2,0
1517204149660100,-1,0,-1,-1,-3,-1,0,0
1517204149673101,-2,0,-1,-1,-2,-1,1,-1
1517204149673101,0,-2,-2,0,0,0,-1,0
1517204149681607,0,-2,0,-1,1,0,-1,0
1517204149681607,0,-1,-1,-1,0,-2,0,-2
1517204149696129,0,-2,-2,0,-2,-1,-1,0
1517204149696129,-2,0,1,0,0,-1,-1,-1
1517204149697120,-1,0,0,-1,-1,0,-2,-3
1517204149697120,-1,-1,-1,-2,-1,0,-2,-1
1517204149719144,1,1,0,-1,-1,0,-1,-2
1517204149719144,-1,-1,-1,-2,-1,-2,0,-1
1517204149720134,-2,0,-3,0,-2,-2,-1,-2
1517204149720134,-2,0,1,0,-2,0,0,-1
1517204149733144,1,-3,-2,0,-1,-1,-1,0
1517204149733144,-4,-2,-2,-2,0,-1,-2,-2
1517204149741159,-1,-1,-2,-1,-1,-1,1,0
1517204149741159,-2,-2,-3,0,-1,-2,-1,-2
1517204149764668,-1,-1,0,0,-2,-2,-2,-1
1517204149764668,0,-2,-1,-1,-2,0,-1,-1
1517204149765168,0,-2,-1,0,-1,-1,-1,-1
1517204149765168,1,0,-1,-1,-2,0,-1,-3
1517204149779186,-1,-1,-1,-1,0,-1,-1,-1
1517204149779186,-2,-2,-2,-1,-2,-2,-2,-1
1517204149780176,-1,-1,0,-1,-1,-1,-1,0
1517204149780176,0,-1,-1,-2,-1,-2,-1,0
1517204149793195,-2,0,-2,-1,-1,-1,0,0
1517204149793195,0,-1,-2,0,-1,1,1,-1
1517204149801216,-1,-3,-1,-1,-1,-2,0,-1
1517204149801216,-1,0,0,-1,-1,0,0,-1
1517204149816203,-1,-1,0,-3,-1,-2,-2,-1
1517204149816203,-1,-1,0,-1,-2,1,-2,0
1517204149817205,-2,-3,0,-2,-2,1,-2,0
1517204149817205,-1,-1,0,-1,1,0,0,0
1517204149839718,-2,0,-1,-2,-1,-2,-2,0
1517204149839718,0,-1,-1,0,-2,0,-1,-3
1517204149840236,-2,1,-1,0,-1,-1,-2,-1
1517204149840236,-2,-3,-2,-1,-2,-2,-2,-1
1517204149861762,0,-3,-1,-2,1,1,2,-1
1517204149861762,-2,-1,-2,-1,-2,-2,-1,-1
1517204149862734,0,0,-1,-3,-1,-1,0,0
1517204149862734,-1,1,-1,0,-2,0,-1,-1
1517204149876264,0,-1,-1,0,-2,-2,-1,-1
1517204149876264,1,-1,1,-1,0,-1,-1,-2
1517204149876745,0,-1,0,-1,-2,-1,0,-3
1517204149876745,0,-1,-1,-1,-1,-1,0,0
1517204149899260,-2,0,0,-1,0,1,-1,0
1517204149899260,0,-1,-2,0,-1,-1,-1,0
1517204149900261,-2,-1,-3,-1,-1,-2,-1,-2
1517204149900261,-1,-2,-1,-2,0,-1,-2,-2
1517204149921776,0,-2,0,-2,0,0,0,-2
1517204149921776,0,-2,0,-2,-1,-2,-2,0
1517204149922777,0,0,0,-2,0,0,-1,0
1517204149922777,-1,-1,-1,-1,-2,-1,-1,-1
1517204149936287,-2,0,-2,-2,-1,1,-2,0
1517204149936287,-3,0,-2,-1,0,-1,-1,0
1517204149936786,0,-1,-1,-2,-1,0,0,0
1517204149936786,-1,0,-1,1,-2,-2,0,0
1517204149959302,-1,-2,0,-1,-2,-2,-1,-2
1517204149959302,-1,-2,-1,-2,-1,-1,-2,-3
1517204149959803,-2,-3,-2,-1,0,0,-2,-2
1517204149959803,-1,-1,-1,-1,-1,-1,0,-1
1517204149981818,0,-1,0,1,-1,-2,-1,-1
1517204149981818,-2,-1,1,-1,-2,-2,1,1
1517204149982820,-2,-1,-2,-2,0,0,0,-1
1517204149982820,0,-1,-1,-2,0,-2,-2,-1
1517204149996329,0,-1,-1,-2,-2,0,-1,-2
1517204149996329,0,-1,0,-1,-1,-1,-3,0
1517204149996829,0,-1,1,-1,-2,-1,0,0
1517204149996829,-3,-2,-3,0,0,-2,0,0
1517204150019849,-1,0,-2,0,-1,-2,-2,0
1517204150019849,0,-2,-1,-1,-1,0,0,-2
1517204150019849,-1,0,-2,-1,-2,0,-1,-1
1517204150019849,-1,1,-1,0,-2,-1,0,-2
1517204150041872,-2,-2,0,-1,-3,-3,0,-1
1517204150041872,-1,0,-2,-1,-1,-2,1,0
1517204150042388,-2,-1,-2,1,-2,-2,-1,-1
1517204150042388,-2,-3,-1,-1,-2,1,-1,-1
1517204150056410,0,-1,-1,-3,0,-2,-1,-1
1517204150056410,0,-1,-1,0,-1,1,0,-1
1517204150057912,0,0,0,-2,-2,-2,-2,-2
1517204150057912,-1,-1,0,0,0,-1,0,-1
1517204150079916,-2,-3,-1,-2,-1,1,-1,2
1517204150079916,0,-1,-1,-1,-1,-1,-1,-2
1517204150080419,0,-3,0,-1,-1,0,-1,1
1517204150080419,-1,-1,-2,-1,-1,1,0,-2
1517204150101941,-1,-1,-2,-1,-1,0,-1,0
1517204150101941,0,-1,-2,-3,0,1,1,1
1517204150102433,-2,-1,-2,-1,-2,-1,0,-1
1517204150102433,-2,-1,1,0,-1,-1,-1,-1
1517204150116446,-1,-3,1,-1,0,-1,-2,-2
1517204150116446,-2,-1,-3,-1,0,0,-1,0
1517204150116946,-1,-2,-2,0,0,-2,-3,-2
1517204150116946,-1,-1,-1,-1,-1,-2,-2,0
1517204150139470,-1,1,-2,0,-1,0,-1,-1
1517204150139470,0,-2,-1,-1,-2,-1,-2,-2
1517204150139959,1,0,0,-1,-2,-2,0,-1
1517204150139959,1,-2,-1,-1,0,0,1,0
1517204150161977,-1,-1,0,-1,1,1,1,0
1517204150161977,-2,-1,-1,0,-2,-2,-1,0
1517204150162977,-1,0,-1,-2,0,1,-1,1
1517204150162977,-1,-1,-2,-1,0,0,-1,-1
1517204150175987,-1,0,-2,-2,0,-2,-2,-1
1517204150175987,0,-1,-1,-2,0,-1,1,-1
1517204150176985,-2,0,-1,-3,-1,0,-1,0
1517204150176985,0,-1,-1,-3,-1,-1,-2,1
1517204150199511,1,-1,-1,0,0,0,-1,-1
1517204150199511,-1,0,0,0,-1,-2,-4,-1
1517204150200002,0,0,0,1,-1,0,-1,-2
1517204150200002,-1,-2,-1,-2,-2,-3,-2,-1
1517204150222017,-1,-2,-1,-1,-1,-1,0,-2
1517204150222017,-1,0,-2,-1,0,-1,-1,0
1517204150223517,-1,0,-1,0,-1,0,0,0
1517204150223517,-1,0,0,-1,-2,0,0,-1
1517204150236031,-1,-1,0,0,0,-1,-1,-1
1517204150236031,0,-1,0,-1,-1,0,0,-1
1517204150237027,-2,-1,-1,-1,-1,-3,-1,-1
1517204150237027,-2,0,-1,0,-1,-1,1,-1
1517204150259564,-1,0,-2,-1,-1,0,-2,-1
1517204150259564,-1,-1,0,-1,-1,-1,0,-2
1517204150260049,-2,-2,-1,0,-2,-1,-1,-1
1517204150260049,1,0,-1,0,-1,-1,-1,-2
1517204150282074,0,-2,-2,0,-1,-2,0,-2
1517204150282074,-1,-3,-2,-2,-2,1,-1,-1
1517204150282562,-1,-2,-2,-1,0,-1,-2,0
1517204150282562,-1,-2,-2,-2,-1,-2,-3,1
1517204150295593,0,-1,0,0,0,1,1,1
1517204150295593,1,-2,-1,-1,-3,-3,-1,-1
1517204150304585,-1,-2,-1,-2,-1,-1,0,-2
1517204150304585,-1,-1,-2,-2,0,-2,0,0
1517204150319595,1,0,-3,-1,1,-1,-1,-1
1517204150319595,0,-1,0,-1,-2,-1,0,0
1517204150321087,0,-2,0,-1,-1,-1,-1,-2
1517204150321087,-1,0,-1,0,-2,-1,0,-3
1517204150341637,-3,-1,-1,-1,-2,-1,-1,-1
1517204150341637,-1,1,-1,-1,-1,0,0,0
1517204150343602,-2,-1,-1,-3,-3,-1,-1,0
1517204150343602,-1,-2,-1,-1,-1,-2,-1,-1
1517204150355614,-4,-2,-2,-1,-1,-1,-2,-3
1517204150355614,-1,-1,-2,-1,1,0,0,-1
1517204150364617,-1,-1,-1,-1,-1,0,-1,0
1517204150364617,-2,-1,-1,-2,-1,-1,0,0
1517204150379628,1,0,-1,-2,-2,-2,1,0
1517204150379628,-1,-1,0,1,-1,-1,-1,-2
1517204150381145,1,-1,-1,1,-1,-1,1,-1
1517204150381145,0,-2,0,0,0,-1,-2,-1
1517204150402146,-1,0,-1,-1,-2,0,-2,-2
1517204150402146,-1,0,-1,-1,0,-3,-1,-1
1517204150403645,-1,-1,-1,-1,1,-3,-2,-1
1517204150403645,-1,-2,-2,0,-2,-1,0,-1
1517204150415664,0,-2,-2,-1,-1,-4,-1,-2
1517204150415664,-1,-1,-1,-1,-1,-1,0,-1
1517204150424660,-2,-1,-1,-2,0,-1,-1,-1
1517204150424660,0,-1,0,0,-1,1,-2,-1
1517204150439671,-2,-2,0,-1,-2,-2,0,1
1517204150439671,-2,0,-2,-1,0,-1,-1,-2
1517204150440671,-1,0,0,0,1,-1,-2,0
1517204150440671,-1,-1,-1,-2,-2,-1,-3,-3
1517204150461685,0,-2,-1,-3,-1,-1,-1,-2
1517204150461685,-1,0,-1,-2,-2,-1,-1,-2
1517204150463187,0,-3,-2,-1,-2,-2,0,-1
1517204150463187,0,0,-1,0,-1,-1,0,-2
1517204150475705,-1,-1,-1,1,-2,1,-1,0
1517204150475705,-3,-3,-3,0,-1,0,0,1
1517204150484709,-1,0,-1,-2,-2,-1,-2,-2
1517204150484709,-3,-1,-1,-2,0,-2,0,0
1517204150499727,0,-1,-1,-2,-1,-2,0,0
1517204150499727,0,-1,0,-1,0,-1,-1,-1
1517204150501214,-1,-2,0,-1,-2,-1,-1,-1
1517204150501214,-1,0,0,-1,-1,0,-2,0
1517204150521730,1,-1,0,-1,-1,0,-2,-1
1517204150521730,0,-2,-3,-1,-2,0,0,0
1517204150523230,0,0,-2,-1,-1,-1,-1,-1
1517204150523230,0,-1,0,-2,-1,-2,0,-2
1517204150535762,-1,0,-1,-1,0,-2,-2,0
1517204150535762,0,-1,-2,-1,-1,0,-1,-2
1517204150544245,-1,0,-1,-1,-1,-2,0,-1
1517204150544245,-1,-1,-1,-1,0,0,1,-2
1517204150559255,-1,0,-1,-2,-3,-2,-1,0
1517204150559255,0,0,-2,-2,0,-3,-1,-2
1517204150560756,0,0,-1,-1,-1,0,-2,-1
1517204150560756,-1,0,-1,0,-1,0,-1,0
1517204150581772,-1,0,-1,-3,-1,-2,-1,-1
1517204150581772,-2,-1,0,-1,-1,-1,-2,0
1517204150583274,-1,0,-3,-1,-1,-1,0,-1
1517204150583274,0,-3,-1,-2,-2,-1,-1,0
1517204150595839,-1,-2,-1,0,-2,0,0,0
1517204150595839,-1,-2,1,-1,0,-1,1,-3
1517204150604286,0,-1,-2,-1,-1,0,2,-1
1517204150604286,-1,-1,-1,0,0,-1,-1,-2
1517204150619306,-2,-1,-2,-1,-1,-1,-1,-2
1517204150619306,0,0,-1,0,-1,-1,-1,0
1517204150620800,-3,-2,-1,-2,0,-2,-1,0
1517204150620800,0,0,-1,0,0,-2,-1,-2
1517204150641813,-3,-1,0,-1,-1,1,-3,-1
1517204150641813,-1,0,-1,-1,-2,-1,0,-3
1517204150643315,-2,-1,-2,-1,-2,-1,0,0
1517204150643315,-1,-1,-2,-2,0,-1,-2,1
1517204150655338,-1,-2,-2,-2,0,-3,0,-2
1517204150655338,-1,-2,-1,-1,0,0,-2,-1
1517204150664331,-1,0,1,-2,-2,0,-3,0
1517204150664331,-2,0,-1,0,-4,-2,-2,-1
1517204150679390,-2,-1,-3,0,0,-2,-1,-1
1517204150679390,-1,0,-1,0,-1,-3,-1,0
1517204150680892,0,0,-2,-1,-3,-2,-2,0
1517204150680892,-2,0,-2,-1,-2,0,-2,0
1517204150701908,-1,0,-3,-1,0,-1,1,-2
1517204150701908,0,-1,-1,-2,-2,-1,-2,-1
1517204150703407,-3,-1,-3,-1,0,0,-2,-1
1517204150703407,-1,0,-1,-2,-1,-2,-1,-1
1517204150715435,-1,-2,-2,-1,-1,-1,-1,-1
1517204150715435,-1,-2,-2,0,-2,1,-1,0
1517204150724433,1,0,-1,-1,0,0,-3,0
1517204150724433,0,-2,-2,-1,0,-1,-1,-1
1517204150739433,0,0,-1,-1,-1,0,-2,-1
1517204150739433,-1,1,-3,0,-1,-1,0,0
1517204150740934,1,-2,-1,-1,0,-2,-1,-1
1517204150740934,-2,-1,-1,1,-1,-2,1,-1
1517204150760957,-1,-2,0,-1,-1,0,-2,-2
1517204150760957,0,-3,-2,-1,-2,-2,-1,-2
1517204150769456,-1,-2,0,-3,-3,-1,-2,-1
1517204150769456,-1,-2,-1,-3,1,-1,-2,-1
1517204150775498,-1,-1,-1,-1,-1,-2,-2,-1
1517204150775498,-2,-2,0,0,-1,-2,-2,0
1517204150784469,-2,-1,-1,-1,2,0,-2,-2
1517204150784469,-2,-2,-2,-1,-2,0,-2,-1
1517204150799476,-3,-1,-1,-1,1,-1,0,-1
1517204150799476,1,-1,-1,-2,-1,-1,0,0
1517204150800977,-2,0,0,-1,-1,-2,0,-3
1517204150800977,0,0,-1,0,-1,-2,-2,0
1517204150821993,0,-2,0,-1,-2,0,-2,0
1517204150821993,-2,-1,-3,0,-1,-1,-1,-1
1517204150823511,-1,-1,-1,-1,-1,-2,-2,-1
1517204150823511,-2,-1,1,-1,0,0,-1,0
1517204150835503,-2,-2,-1,0,-1,-2,1,-1
1517204150835503,-1,-2,-1,-3,-2,-4,0,0
1517204150844509,0,0,-1,-1,-1,-3,0,0
1517204150844509,-1,1,-1,0,-2,1,-1,-2
1517204150859531,1,0,-1,-1,0,-2,-1,0
1517204150859531,-1,-1,0,-2,-1,-1,-1,-1
1517204150861032,-1,0,-2,1,0,0,1,-2
1517204150861032,-1,-2,-1,-3,-1,-1,-2,-1
1517204150882036,0,0,-2,0,-1,-1,0,-1
1517204150882036,0,1,-2,0,1,1,-2,-1
1517204150883537,-1,-1,-1,-1,-1,-2,0,0
1517204150883537,-1,0,0,-1,-1,0,0,0
1517204150904550,-1,-1,-3,-2,-3,-1,-1,-1
1517204150904550,-3,-1,1,-2,1,-1,-1,-1
1517204150906052,-1,-1,-1,-1,-2,-1,0,-1
1517204150906052,0,-1,-2,0,-2,-3,-1,-1
1517204150919563,-1,-2,1,-2,-1,-1,0,-1
1517204150919563,-1,0,0,-2,-3,-1,0,-1
1517204150921083,-2,-1,0,-1,-1,-1,-1,0
1517204150921083,-1,-1,-2,-3,-1,-4,0,-1
1517204150942077,-1,0,0,-1,-2,-1,-2,-1
1517204150942077,-1,-1,-2,-1,-1,0,-1,-1
1517204150943597,0,-2,-2,-1,-2,0,-1,-1
1517204150943597,-3,-2,-2,-2,-1,1,-1,0
1517204150964609,0,-1,0,-3,-1,-2,-1,-2
1517204150964609,-2,-2,0,-1,-2,0,-2,-1
1517204150966094,-2,-2,-3,-1,-1,1,-2,-1
1517204150966094,0,-2,-1,0,-2,-3,0,-1
1517204150978605,-1,-2,-1,-1,-2,-2,1,-1
1517204150978605,-1,0,-1,-1,-1,-1,-2,-1
1517204150993135,0,-1,0,-1,-1,0,0,-2
1517204150993135,0,0,-1,0,-1,0,-2,-1
1517204151002119,-1,0,-1,-1,-1,-1,0,0
1517204151002119,-1,-2,-1,1,-2,-2,1,-2
1517204151003620,0,0,-2,-2,-1,-1,0,0
1517204151003620,-1,0,-1,-2,-2,-1,-1,-2
1517204151024636,-3,-1,-2,0,-1,0,-2,-2
1517204151024636,-3,0,-2,-1,1,0,-2,-1
1517204151026155,-3,-1,-1,0,-1,-2,-2,-2
1517204151026155,-1,-1,-1,0,-4,-2,-1,-2
1517204151038646,0,0,-3,-1,-1,1,0,-1
1517204151038646,-2,-1,-2,-1,-3,0,-1,0
1517204151045651,-1,-1,0,-1,0,-1,-2,-2
1517204151045651,0,-1,0,-1,0,-1,-2,-1
1517204151061689,-1,-1,-1,-1,-1,-1,-1,-1
1517204151061689,0,-3,-1,-2,-2,-1,0,-1
1517204151063664,-1,0,-1,0,-1,-2,0,0
1517204151063664,-1,-1,-2,-1,1,0,0,0
1517204151084179,-1,-2,-1,0,-1,0,-3,0
1517204151084179,0,-1,-1,-1,-2,0,-2,-1
1517204151086178,-1,-1,-1,-1,-1,0,-2,-1
1517204151086178,-2,-2,1,-2,-2,-2,0,-1
1517204151098700,-1,-1,-3,-1,-1,-3,-2,-2
1517204151098700,0,0,-2,0,-2,-1,-1,-2
1517204151105693,0,-2,-1,-2,-1,-1,-1,0
1517204151105693,0,-2,-1,0,0,0,-1,0
1517204151121713,-1,-1,-1,-2,-2,-2,-2,-2
1517204151121713,-1,-2,-2,0,1,-1,-3,-1
1517204151123206,0,-3,-1,0,-3,-2,-2,-1
1517204151123206,-1,-1,-2,-3,-2,0,0,-2
1517204151143220,-2,-1,0,0,-2,0,-1,0
1517204151143220,-1,-2,0,-2,0,-1,-2,0
1517204151151726,-1,0,-1,0,0,0,-2,0
1517204151151726,0,-2,0,0,-1,-1,-2,-2
1517204151158739,-1,0,-2,-1,-2,-1,-1,-1
1517204151158739,-2,0,-1,-2,-1,-1,-1,1
1517204151165736,-1,-3,-1,-2,0,-1,-2,-1
1517204151165736,-1,-2,-1,-2,0,-3,-1,-1
1517204151181748,1,-2,-1,-2,0,-1,-2,-2
1517204151181748,-1,-1,0,1,-1,-1,0,-1
1517204151183248,-2,0,-1,-3,-3,-2,-1,-1
1517204151183248,-2,-2,-2,-1,-2,-1,-1,0
1517204151204271,-1,0,0,0,-2,-1,-2,-1
1517204151204271,0,-1,-2,0,0,-2,-1,-2
1517204151205763,-1,0,0,0,-3,-2,-1,0
1517204151205763,-1,-1,-1,0,0,-3,0,-4
1517204151218782,-1,-1,-2,-1,-1,0,-1,1
1517204151218782,-1,0,-1,-2,0,0,0,0
1517204151225291,0,-1,-3,-1,1,-1,0,-2
1517204151225291,-1,0,0,0,-2,1,-1,0
1517204151241792,-1,-1,-2,-2,-1,-1,0,-1
1517204151241792,-1,-1,-2,-1,-2,-1,1,-1
1517204151243290,-1,1,-1,0,-2,-2,0,-1
1517204151243290,1,-1,-1,-1,-1,2,-2,-1
1517204151264314,-2,-2,-1,0,-2,0,-1,0
1517204151264314,-2,-1,-5,-1,-1,0,-2,0
1517204151265805,-2,-1,-1,0,-3,-2,-1,-1
1517204151265805,-1,-1,0,-2,-1,-2,-2,-2
1517204151278835,-1,-1,0,0,0,-2,-1,-1
1517204151278835,0,-3,-1,-2,0,-1,0,-1
1517204151285321,1,-1,-1,-2,0,1,-2,1
1517204151285321,-3,-2,-1,-1,-2,-1,-2,0
1517204151301833,-1,0,0,-2,-1,-2,-1,0
1517204151301833,0,-1,0,1,-3,-2,-1,-1
1517204151303333,0,-1,-3,-2,0,0,1,-2
1517204151303333,0,1,0,-1,1,-1,0,1
1517204151324385,-1,-1,-1,1,-1,-3,0,-1
1517204151324385,-2,-1,0,-1,-1,-1,-2,0
1517204151325886,-2,0,-3,-2,0,-1,-2,-1
1517204151325886,-1,1,-2,-1,0,-3,-1,-3
1517204151338868,-2,0,-3,0,0,-1,0,0
1517204151338868,0,-1,1,0,0,-2,-2,-2
1517204151345362,-3,-3,-2,-1,-2,0,-2,-2
1517204151345362,-1,-2,-2,-1,-2,0,-2,-1
1517204151361890,-1,0,-2,0,0,-1,-1,-2
1517204151361890,0,-3,0,-1,-1,-1,0,-3
1517204151363378,-1,-2,0,0,-1,0,-1,-2
1517204151363378,0,-3,-1,-1,-2,-2,-2,0
1517204151384390,0,0,-1,-3,-1,-1,-1,-1
1517204151384390,-1,-1,-1,-1,-2,-1,0,0
1517204151385891,0,-2,0,-2,0,-1,0,-1
1517204151385891,-2,0,0,0,0,0,-1,0
1517204151398403,0,-1,-1,0,-1,1,-2,-1
1517204151398403,-1,-1,-2,-2,0,0,0,0
1517204151412922,0,0,0,0,-1,-2,1,-2
1517204151412922,-1,-1,-2,-2,0,-2,0,-1
1517204151421916,-2,-2,-3,1,-2,1,-1,0
1517204151421916,-1,-1,-2,-2,-1,-4,-1,-2
1517204151423417,0,-1,-1,-1,-1,-2,-1,-2
1517204151423417,-2,0,-1,-1,0,-1,0,0
1517204151444489,-1,-2,-1,-1,-1,-1,-2,-1
1517204151444489,-3,0,0,-2,-2,0,-1,0
1517204151445954,-1,-2,1,-1,-1,-1,-2,-1
1517204151445954,-1,-1,-2,0,-1,0,-1,-2
1517204151457951,-2,-2,-2,-2,0,-1,-2,0
1517204151457951,-1,0,-2,-2,-2,-1,-1,0
1517204151466949,0,-1,-3,-2,-3,-1,-1,-1
1517204151466949,0,-1,0,1,-1,-1,-1,-1
1517204151481979,-1,-1,0,-1,-2,-1,-2,-1
1517204151481979,1,-2,-2,-1,0,0,-2,-2
1517204151483462,-4,-1,-1,0,-3,-1,-1,-1
1517204151483462,0,0,-2,-1,-2,0,0,-2
1517204151504484,-2,0,1,-1,-1,-2,1,-1
1517204151504484,-1,-1,-1,0,-1,-1,-2,-1
1517204151505977,0,0,-2,0,-1,0,-1,0
1517204151505977,-1,-3,-2,1,-2,1,-1,-1
1517204151517985,-1,0,-2,-1,0,-2,-1,-2
1517204151517985,0,-1,0,1,0,-2,-1,-2
1517204151527000,-1,-1,0,-2,0,-2,0,-2
1517204151527000,-1,-1,0,0,-1,-2,-1,0
1517204151542013,-2,-1,-1,0,-2,0,-1,0
1517204151542013,-2,-1,-1,0,-1,-1,0,-2
1517204151543515,-1,-3,0,-1,-1,0,-1,-1
1517204151543515,-1,-2,0,-2,-1,-2,0,1
1517204151564520,-1,-2,-1,-2,-1,-1,-1,-1
1517204151564520,-1,0,-1,-2,-1,-2,0,0
1517204151566018,-1,-1,0,1,1,-1,-1,-1
1517204151566018,-1,-1,-2,-2,0,-1,0,-1
1517204151578041,0,-1,-1,0,0,-3,-1,-3
1517204151578041,-2,-2,-1,-2,0,-1,-2,0
1517204151587034,-1,-2,-3,-1,-3,-1,-2,1
1517204151587034,-1,-3,0,-1,0,-2,-2,-1
1517204151602056,-2,-1,-2,-2,-2,-2,-1,-1
1517204151602056,-1,-1,-3,-2,-1,-1,-1,1
1517204151603546,-2,1,0,-2,0,-2,0,-1
1517204151603546,0,-2,-2,-1,-1,-1,-1,0
1517204151624071,-1,-1,0,-1,-2,-1,-1,-1
1517204151624071,-1,-1,-1,-1,-2,-2,-1,-1
1517204151626100,-1,-1,0,-2,0,-1,0,-2
1517204151626100,0,0,-1,-1,-1,-1,-1,-1
1517204151638070,-1,0,0,-2,0,0,-2,1
1517204151638070,-1,0,-1,-1,-1,0,-3,-1
1517204151647080,0,-2,-1,1,0,-1,-2,-1
1517204151647080,-1,-2,-2,0,-2,0,-1,-1
1517204151661586,0,-3,0,-2,-1,0,-1,-2
1517204151661586,0,0,-1,-1,-1,-1,1,0
1517204151663589,-2,0,0,0,-2,-1,0,0
1517204151663589,-1,1,-3,-1,-1,-1,0,-2
1517204151684601,-2,0,-2,-2,-2,-3,0,0
1517204151684601,1,-1,0,-1,-2,-2,-1,0
1517204151686104,0,-1,-1,-2,1,-1,-2,-2
1517204151686104,-1,1,0,0,-3,-1,0,0
1517204151698123,0,-1,-1,1,-1,0,0,-2
1517204151698123,-2,0,-1,-1,-1,-2,-2,-2
1517204151707120,-2,1,-1,-2,-1,-2,-1,-1
1517204151707120,-2,0,-1,-1,1,0,-1,-2
1517204151722129,0,-2,0,0,-1,0,-2,-1
1517204151722129,0,-1,-1,0,1,-2,0,-1
1517204151723660,-1,-1,-1,-2,-1,0,0,0
1517204151723660,-2,-2,-4,-3,0,0,-1,-1
1517204151744161,-2,-1,-1,-1,2,-1,-1,-1
1517204151744161,-1,-2,-1,-1,-2,0,0,-1
1517204151746161,0,-2,1,-2,-2,-1,1,-2
1517204151746161,-2,-2,-1,-2,-3,-2,-3,-2
1517204151758154,-2,0,-1,-1,-3,-1,0,-2
1517204151758154,0,-2,-1,-1,-1,0,0,-2
1517204151767164,-1,-2,-2,-2,0,-1,-2,-1
1517204151767164,-1,-1,0,-1,-2,-1,-1,0
1517204151782191,-1,0,-1,-3,-1,-1,-1,-2
1517204151782191,-1,-1,-1,-2,-1,-1,-1,-1
1517204151783673,0,0,-3,0,-1,1,-1,-1
1517204151783673,0,-1,-1,-2,0,0,-1,1
1517204151804187,-2,0,-1,-3,-2,0,-2,0
1517204151804187,0,-1,-1,-2,-2,0,0,0
1517204151805698,-1,-2,0,-1,0,-2,-1,0
1517204151805698,-1,-2,0,0,0,-3,-1,-2
1517204151826724,0,0,-1,0,-1,-1,-1,0
1517204151826724,-1,0,-1,-1,-2,-2,-1,-1
1517204151828222,-1,0,-1,1,-1,0,-1,-2
1517204151828222,-1,-1,-1,-1,-3,-2,-1,-2
1517204151841737,-1,-3,-1,-1,-1,-1,0,0
1517204151841737,-2,-3,-2,-1,-1,0,-1,-2
1517204151843213,-2,0,-3,-1,-1,-2,-1,-2
1517204151843213,1,-1,-1,-1,-1,0,-2,-1
1517204151864230,0,-2,-2,1,0,0,-3,-1
1517204151864230,-3,-1,-2,-1,0,-2,-1,-2
1517204151865733,0,-3,0,-2,-1,-1,-3,-1
1517204151865733,-2,0,-1,1,-1,-1,-1,-1
1517204151886746,0,-2,-3,-1,-1,-2,-1,-1
1517204151886746,-1,1,-1,-1,0,0,0,-1
1517204151888246,0,-1,-2,-1,-1,-1,-1,-3
1517204151888246,-1,-1,-2,-1,-1,-1,0,-1
1517204151902265,-1,-1,-1,-1,-1,0,-1,-2
1517204151902265,-2,-2,-1,0,-1,-1,-3,0
1517204151903757,-2,-1,-2,-1,-2,-1,-2,0
1517204151903757,-2,0,-1,0,0,-1,-2,-1
1517204151923272,-1,-1,0,-1,-2,-3,-2,0
1517204151923272,-1,-1,-1,-1,-1,-1,-1,-2
1517204151932277,-2,-2,0,-2,-1,-2,1,0
1517204151932277,0,-3,-1,-2,-2,-2,-1,0
1517204151946789,-2,0,-1,-2,-1,-1,0,0
1517204151946789,0,0,-1,0,0,-1,-2,-1
1517204151948293,-1,-1,0,0,-1,0,-1,0
1517204151948293,-1,-1,-1,-2,-1,-1,-1,-1
1517204151961808,-2,-1,-1,-2,0,-1,0,-1
1517204151961808,0,-1,-1,-1,-2,-1,0,-1
1517204151963301,-1,-1,-2,1,-1,-1,0,0
1517204151963301,-1,-1,0,-1,-1,0,1,0
1517204151984315,-1,-3,-2,1,-1,-1,0,-2
1517204151984315,-1,-3,0,-1,1,0,-1,0
1517204151985817,-2,-2,-1,-1,-2,-2,-2,1
1517204151985817,-1,-1,-3,-1,0,-2,-2,-1
1517204152006831,-2,0,-3,0,-1,-3,-3,-2
1517204152006831,1,0,0,-1,1,-1,-1,-2
1517204152008331,1,-1,0,-2,-1,-1,0,-1
1517204152008331,-1,0,-1,-1,-2,1,-2,-1
1517204152020841,-3,-2,-3,-2,-2,1,-2,-2
1517204152020841,-2,0,-1,-1,-1,0,-3,1
1517204152027859,-1,2,-1,-2,-1,-2,-2,-2
1517204152027859,-1,0,-1,-1,0,-2,0,-1
1517204152044371,0,-4,0,0,0,-1,0,0
1517204152044371,-1,0,-1,-2,-2,-2,-1,-1
1517204152045870,-2,-1,-2,-2,-1,0,-1,-1
1517204152045870,-2,-3,0,0,-1,-1,-1,-1
1517204152066883,-1,0,-2,-1,-2,0,1,-1
1517204152066883,0,-1,-2,-1,-2,-1,-1,-2
1517204152068383,-1,-2,-1,0,-1,-2,0,0
1517204152068383,-1,-1,0,-1,-1,-1,-1,-1
1517204152080882,-1,0,-1,0,-3,0,-1,0
1517204152080882,0,-1,-2,0,-1,-1,-1,0
1517204152087901,-1,1,-2,-1,-1,-2,-1,-1
1517204152087901,-2,-2,-1,-1,-2,-1,0,0
1517204152104399,-1,-2,0,-1,0,0,0,-1
1517204152104399,-1,-2,-2,-3,-3,1,-1,0
1517204152105909,0,-2,-1,-1,-1,-1,-1,0
1517204152105909,-1,1,-2,-1,-1,-1,0,-2
1517204152126923,-1,-1,0,-1,0,-2,-1,-1
1517204152126923,-1,-1,-1,0,-3,-1,-2,-1
1517204152128427,-2,-1,-1,-2,-1,-2,-1,0
1517204152128427,-1,-1,0,-2,-1,0,1,-1
1517204152140925,-1,-1,0,-1,-2,-1,-1,-2
1517204152140925,0,-1,-1,-1,-2,-1,0,-3
1517204152147931,-1,-2,-2,-1,-1,-1,-2,-1
1517204152147931,-2,-1,-1,0,0,-2,-2,-1
1517204152164441,-2,-1,-1,-2,0,-1,-3,0
1517204152164441,-2,-1,-2,-2,1,-2,-1,0
1517204152165942,-1,-1,0,-2,-1,-1,-1,-1
1517204152165942,0,0,-2,-2,-2,-1,-1,0
1517204152186958,1,0,-2,0,-1,0,0,-1
1517204152186958,-3,-1,-1,0,-1,-2,-2,-2
1517204152188476,-3,-1,-2,-1,1,-1,-2,-1
1517204152188476,-1,-3,-1,-1,1,-2,-2,0
1517204152200982,0,-1,-1,-2,-1,-3,-3,-2
1517204152200982,-1,-1,-2,-2,-1,-1,1,0
1517204152207971,-1,-2,-1,-2,-1,1,1,-1
1517204152207971,-1,-1,-1,-1,-1,0,-1,-1
1517204152224485,-1,-1,-2,-2,-1,-2,-1,0
1517204152224485,-1,0,-1,0,0,0,-2,-1
1517204152226009,-1,0,1,0,-1,-1,-3,-3
1517204152226009,0,0,-1,-2,-2,-2,-1,0
1517204152246999,0,1,-2,0,-2,1,-1,-1
1517204152246999,-1,0,-1,-3,0,-2,-1,0
1517204152248501,-1,-1,-1,-2,-2,-1,-2,-1
1517204152248501,-2,-2,-2,1,-1,-2,-1,-1
1517204152261025,-2,-1,-1,0,-2,-1,0,-3
1517204152261025,-3,-1,-1,0,-3,-1,1,0
1517204152268014,-1,-1,-2,1,-1,-2,-1,-2
1517204152268014,0,1,0,-1,-2,-1,0,-1
1517204152284528,-2,-2,0,-3,-1,0,-1,-2
1517204152284528,-1,-1,0,-1,0,-2,-1,0
1517204152286028,-1,0,-1,-1,0,-1,1,-1
1517204152286028,0,-1,-1,-1,-1,-1,-2,-3
1517204152307042,-1,1,-1,0,0,-2,0,-1
1517204152307042,1,-2,-1,-2,0,-2,-1,-2
1517204152308543,0,-2,-3,0,-1,0,-2,1
1517204152308543,-2,-1,0,-1,-1,-1,-1,-1
1517204152320579,0,-1,0,0,-3,-2,2,0
1517204152320579,-2,-2,0,-2,-2,-2,-1,-3
1517204152329558,-3,-1,-1,0,0,-1,-1,-2
1517204152329558,1,0,-1,-1,-2,-1,-1,-2
1517204152344578,-2,-1,0,0,-1,-1,-2,0
1517204152344578,-3,-1,-1,-1,0,1,0,-1
1517204152346089,-1,-1,0,0,-2,-1,-2,-2
1517204152346089,-3,-1,-2,-1,-1,-1,0,-2
1517204152367114,-1,-1,-2,-1,-1,-1,-2,0
1517204152367114,0,-2,-2,0,-2,0,-2,0
1517204152368616,-2,-2,-1,-1,-1,1,-1,0
1517204152368616,-2,-1,0,0,-1,-2,-2,-1
1517204152380624,-2,0,-2,-1,-1,0,-2,0
1517204152380624,-1,0,-2,1,-1,-2,0,-1
1517204152389639,-1,0,-1,0,-1,0,0,-1
