timestamp,emg1,emg2,emg3,emg4,emg5,emg6,emg7,emg8
1512364155511586,0,-2,0,-1,-2,-1,-3,0
1512364155511586,-3,0,0,0,-1,-3,-3,-1
1512364155512586,-1,0,1,0,-1,-3,-2,-1
1512364155512586,-3,-3,-2,0,-2,-1,-3,-1
1512364155534101,-2,-3,1,-2,-1,-1,0,-1
1512364155534101,0,-1,0,-1,0,-1,1,-2
1512364155535104,-1,-2,-2,-1,-2,-1,1,-1
1512364155535104,1,0,-2,-3,-1,-2,1,0
1512364155550116,-1,0,-1,-4,-1,-1,-2,-2
1512364155550116,-1,0,0,-2,-1,-1,-1,0
1512364155556618,-1,0,1,0,-1,-1,-1,-1
1512364155556618,1,-1,-1,-1,0,0,-1,0
1512364155571628,0,-2,0,-1,0,-2,-1,0
1512364155571628,-2,-1,0,-1,0,-2,-3,-2
1512364155572629,-1,-2,0,-1,0,-1,-3,-1
1512364155572629,-1,0,-1,0,-2,-2,-2,-1
1512364155594144,-4,2,1,1,0,-3,-2,-2
1512364155594144,-1,-2,-2,0,0,0,-1,0
1512364155595145,-1,-4,-5,-1,0,1,-1,-1
1512364155595145,-3,-2,-1,0,0,0,-3,2
1512364155617660,0,-2,-2,0,-2,-1,-1,1
1512364155617660,-1,-2,-1,-1,-2,-2,-1,-1
1512364155618163,-3,0,-1,-1,-1,-1,2,-1
1512364155618163,-1,0,-3,-2,-1,-1,3,-1
1512364155632171,0,-3,-3,-1,-1,0,0,-1
1512364155632171,-1,-1,-1,-2,-1,-1,-2,-1
1512364155632672,-1,-3,-2,-2,-2,0,-2,0
1512364155632672,-1,-3,1,-2,-1,-2,-2,-2
1512364155654199,-1,-2,-4,0,-1,-1,-3,-3
1512364155654199,-1,0,-1,0,0,-1,0,-1
1512364155654686,-1,-2,0,1,-1,-1,-3,0
1512364155654686,1,-1,-2,-1,0,0,-1,-2
1512364155677218,1,-1,0,-2,-1,-3,0,1
1512364155677218,-1,0,1,-1,0,-2,-1,-1
1512364155678204,0,1,-2,-1,0,-3,-1,-3
1512364155678204,-1,0,-1,-2,-2,1,-1,-1
1512364155691712,0,-1,1,-2,0,0,-2,0
1512364155691712,-1,-4,-3,-2,-2,1,-2,1
1512364155692214,-1,1,0,-1,-1,-1,0,0
1512364155692214,-1,-3,-2,-1,0,0,-2,-2
1512364155714238,-1,-2,-3,-1,-1,-1,-1,-2
1512364155714238,4,0,-1,-2,-1,-2,-1,-1
1512364155715736,-1,-2,0,-2,-2,-1,0,-3
1512364155715736,0,-2,1,0,-1,-1,-1,-1
1512364155737245,-1,0,-1,0,-2,0,1,-2
1512364155737245,-2,0,-2,0,-1,0,1,0
1512364155738246,1,-2,-2,-2,-2,-1,1,0
1512364155738246,-1,-1,0,0,-1,-3,0,-3
1512364155751765,-1,0,-1,-1,-1,0,-1,0
1512364155751765,-1,1,0,-1,-2,-1,-1,-3
1512364155752255,-2,-1,-2,0,-2,-1,-2,0
1512364155752255,-2,1,-1,-2,-2,-2,1,-2
1512364155774270,0,-1,-2,-2,-1,1,-3,-2
1512364155774270,-1,-1,1,-1,-1,-2,-1,-1
1512364155774772,0,-2,-1,-2,0,-1,-2,-1
1512364155774772,0,-2,0,0,-1,-1,-2,1
1512364155797291,-1,0,0,0,0,-2,0,0
1512364155797291,0,-1,-1,-2,-2,-2,-2,0
1512364155798291,-1,1,-2,-1,0,-3,-1,-2
1512364155798291,1,-1,-3,1,0,0,0,0
1512364155811809,-3,-2,-3,-1,0,-1,-3,-2
1512364155811809,-2,1,-3,0,0,-1,-1,0
1512364155812298,-1,0,0,-1,-1,0,1,1
1512364155812298,-4,-3,-1,-2,-2,-1,0,-2
1512364155834313,-1,-2,0,-2,0,-1,1,-1
1512364155834313,-2,-2,-1,-2,-1,-1,-1,-3
1512364155834818,-1,-3,-2,-2,-1,-2,-3,-3
1512364155834818,0,0,1,0,0,-2,-1,-1
1512364155857329,0,-1,0,-1,-1,-2,-2,-1
1512364155857329,-1,-2,1,1,1,-1,0,-1
1512364155857829,-1,-2,0,-1,-1,1,4,-1
1512364155857829,-1,0,-3,-2,-1,0,-1,-2
1512364155871857,-1,1,-3,-2,-2,-1,-4,-2
1512364155871857,0,-2,-2,0,-1,-1,-3,-2
1512364155872339,-2,1,0,0,-1,1,-2,-1
1512364155872339,-1,0,0,-1,-1,-1,-1,0
1512364155894876,0,-1,1,-2,-2,-3,0,-1
1512364155894876,-1,0,-3,0,-2,0,-2,-1
1512364155895879,-1,-2,-4,1,-2,0,-4,-1
1512364155895879,-1,-3,-3,-2,0,0,-1,0
1512364155917883,-1,-1,0,-1,-1,-1,0,0
1512364155917883,-3,-1,0,-2,-4,-1,2,-1
1512364155918873,0,2,3,0,0,1,-1,1
1512364155918873,2,1,-2,1,-2,0,-2,-1
1512364155931884,2,-1,-2,-1,-2,-2,0,0
1512364155931884,-1,0,-1,-1,1,-2,1,-1
1512364155932382,-2,-3,-2,-2,-2,-3,0,-1
1512364155932382,-2,-2,1,-2,-1,-1,-1,-1
1512364155953912,0,-1,-1,0,-2,1,-1,-2
1512364155953912,0,-1,-3,-1,-2,0,0,-1
1512364155954898,0,-1,-1,-1,0,-3,0,-1
1512364155954898,-1,-2,0,-1,-1,-2,0,0
1512364155977415,-3,-2,-2,0,0,-1,2,-1
1512364155977415,-1,0,-1,-3,-2,-1,1,-2
1512364155977914,-2,0,-2,-1,-2,-1,0,-1
1512364155977914,0,1,-1,-1,-1,-1,-3,0
1512364155991924,-1,-2,1,0,-2,-2,-1,0
1512364155991924,-3,-1,-1,-1,1,-2,-4,0
1512364155992437,-1,-4,-2,-1,-1,0,-2,0
1512364155992437,-1,-1,-1,-3,-1,1,0,-1
1512364156013950,-1,-1,-2,-1,-1,-2,-2,0
1512364156013950,0,0,0,0,-2,-1,-2,0
1512364156014963,2,1,0,-2,-1,-1,-1,1
1512364156014963,-2,-1,0,1,-1,-2,-2,-1
1512364156037466,-1,-2,-1,1,1,0,-1,-1
1512364156037466,-1,1,0,-2,-2,0,-1,-2
1512364156037956,0,-1,-2,0,1,0,0,-3
1512364156037956,-1,-2,0,-1,-2,-1,0,-1
1512364156051476,0,0,-3,-1,-2,-1,1,-2
1512364156051476,0,-2,0,-2,-2,-3,-1,-1
1512364156052477,-2,-2,-2,-2,-2,0,-1,0
1512364156052477,-1,-2,0,-2,1,0,1,0
1512364156073982,-2,2,0,-2,-2,-2,-2,-2
1512364156073982,-1,-1,0,-2,0,0,0,-3
1512364156075009,-3,-2,1,0,-3,-3,0,-2
1512364156075009,-1,-3,0,1,-2,-1,0,-3
1512364156097508,-1,-1,-1,-1,-1,-1,0,-2
1512364156097508,0,-3,-4,-1,-1,-2,0,-2
1512364156097999,0,-1,-1,0,-1,-1,1,-1
1512364156097999,-3,-1,-3,0,-1,-2,0,0
1512364156111520,-1,0,0,-2,-1,-2,1,-1
1512364156111520,-2,0,0,1,-3,-2,0,2
1512364156112521,-1,-3,1,-2,-2,-2,0,-2
1512364156112521,-1,0,-1,-2,-1,-2,-1,0
1512364156134024,2,-2,-2,-2,-2,-1,-1,0
1512364156134024,-2,-1,-2,-2,0,-1,-3,-1
1512364156135025,-1,-2,0,0,-1,0,-3,1
1512364156135025,-2,-5,-4,-2,-3,-1,-2,-1
1512364156157050,-2,-1,-2,0,-2,-2,-2,0
1512364156157050,0,-1,-2,-3,-1,-1,-2,-2
1512364156158041,1,0,-1,-1,0,0,0,-1
1512364156158041,1,0,0,-2,-2,-1,2,-1
1512364156171561,0,-2,1,-1,-1,1,1,-1
1512364156171561,-2,2,-1,0,-1,0,-1,-3
1512364156172561,-2,-2,-3,-1,-1,-1,-1,-3
1512364156172561,-1,5,-1,1,1,0,1,-1
1512364156194077,-2,-2,-1,-1,1,-1,0,-1
1512364156194077,-1,-4,-5,0,0,-2,-2,2
1512364156195078,0,0,7,-1,-3,-1,-4,2
1512364156195078,1,-3,-1,-1,-1,-2,-3,0
1512364156217084,-1,-2,-4,-1,-1,-2,-1,-1
1512364156217084,1,-1,3,0,0,-1,0,-1
1512364156218083,1,-1,-4,-3,0,-2,-1,-2
1512364156218083,-1,-1,-1,-1,-1,0,0,1
1512364156231594,-1,0,-1,-1,-1,-1,-3,-2
1512364156231594,0,-2,-4,0,-3,-3,-1,-3
1512364156233114,-3,-1,1,0,-1,-1,-1,-2
1512364156233114,-4,0,3,-1,-1,-2,-3,-2
1512364156254119,-3,-1,1,1,0,-1,-1,0
1512364156254119,-2,0,0,-2,-1,1,-3,0
1512364156255110,-1,1,0,0,-1,-2,-2,1
1512364156255110,0,-3,-6,-2,0,-1,-2,-1
1512364156277137,0,0,1,-2,0,-1,0,1
1512364156277137,-1,-2,-1,-2,-1,-1,1,-2
1512364156278138,-3,-1,-3,-2,-1,-1,0,0
1512364156278138,-1,-1,-2,-1,0,0,-1,-1
1512364156291145,0,-1,-2,-2,0,0,-2,-1
1512364156291145,-1,-1,0,0,-1,0,-1,0
1512364156299151,0,-1,-2,-2,0,1,0,-2
1512364156299151,0,1,-1,0,-1,-1,-1,-1
1512364156314161,-3,-2,-2,-1,0,1,1,-1
1512364156314161,0,-1,0,-1,-1,-1,2,0
1512364156315175,0,-1,-4,-1,-3,-1,-1,-2
1512364156315175,-4,-1,1,-2,-2,-2,-2,-1
1512364156336182,-1,-2,-1,-2,-1,-1,-2,-2
1512364156336182,0,-3,-1,-2,-1,-1,-1,-2
1512364156344182,-1,-2,-2,0,-1,-1,-5,0
1512364156344182,-2,-3,-2,1,0,-4,-3,-1
1512364156350678,-1,2,-1,0,-1,-1,-1,0
1512364156350678,-2,0,-1,-1,0,2,-1,-1
1512364156359193,0,0,-2,-3,-2,-1,0,-1
1512364156359193,-1,-2,-1,0,-2,0,1,-1
1512364156374204,2,-3,-1,1,-1,0,0,0
1512364156374204,-1,0,1,0,-1,-2,3,-1
1512364156374695,-2,0,-1,0,-1,0,-1,0
1512364156374695,-1,0,-1,-1,-1,-1,-3,-1
1512364156397270,-3,-1,-1,0,-2,0,-2,0
1512364156397270,-2,-2,-1,-1,-1,-1,-4,1
1512364156398257,-1,-3,-2,-1,-1,-1,-1,-2
1512364156398257,0,-3,-1,0,1,-3,1,1
1512364156410766,-2,-2,0,-1,0,-2,-1,1
1512364156410766,-2,-1,-2,-2,-1,-1,-1,-1
1512364156426790,-2,0,-2,0,-1,0,-2,-2
1512364156426790,-2,-1,-1,-1,-1,0,1,-1
1512364156434295,-1,2,-1,-1,-1,0,-3,0
1512364156434295,0,-1,-2,-1,0,0,0,-1
1512364156434783,-1,-2,-1,-1,-1,-1,2,0
1512364156434783,0,0,1,-1,-1,-1,-1,-3
1512364156457311,0,-3,-2,-1,-2,-2,-1,-2
1512364156457311,1,-4,-1,0,-3,-1,-3,-2
1512364156457809,-2,-1,-2,-2,-2,1,0,-2
1512364156457809,-1,0,-1,-2,-2,-1,-3,-2
1512364156470821,-2,-5,-2,-4,-1,-3,-1,-2
1512364156470821,-1,-1,3,0,0,-2,0,-1
1512364156479315,-1,-1,0,-1,0,-1,-2,-1
1512364156479315,2,0,-2,-1,-1,1,-1,0
1512364156494325,-1,0,-2,-1,0,0,-1,-3
1512364156494325,0,-3,-2,-1,-1,-1,-2,2
1512364156495826,-2,0,-1,0,0,0,1,0
1512364156495826,1,-1,0,-3,-1,-1,2,0
1512364156517352,0,-2,1,1,0,-1,-2,-1
1512364156517352,0,-1,-1,-3,-3,0,0,-3
1512364156517842,-1,0,1,0,0,0,-2,0
1512364156517842,-1,0,-2,1,-1,0,-1,0
1512364156530864,-2,0,0,1,-2,-1,0,2
1512364156530864,-4,-1,-1,-1,0,-1,-1,-1
1512364156539358,1,1,-2,-2,-2,-2,0,-2
1512364156539358,-3,-1,0,-2,-1,-1,-1,-2
1512364156553867,0,0,0,-1,-1,-2,-2,0
1512364156553867,-1,-1,-2,0,0,0,0,-1
1512364156554868,-2,0,0,0,-1,-2,-2,-2
1512364156554868,0,0,-1,0,-1,0,-2,-1
1512364156577396,0,-1,1,1,0,-2,-2,0
1512364156577396,1,-2,-2,-1,-2,-3,-2,-2
1512364156577884,0,0,2,0,0,-2,-1,0
1512364156577884,0,-1,-1,-1,-2,-1,-2,-1
1512364156590895,2,-1,-1,-2,-2,-1,-1,-2
1512364156590895,0,1,-1,-1,0,0,-2,-2
1512364156599400,-1,0,-4,-1,0,-1,3,-1
1512364156599400,-2,-1,-2,-2,-1,-1,-2,-2
1512364156613919,-1,-1,2,-1,-3,-2,1,-3
1512364156613919,-3,1,-1,-2,-1,0,0,1
1512364156621425,-1,-1,-3,0,-2,0,-3,-2
1512364156621425,-1,-1,-1,0,-1,0,-2,-2
1512364156637427,-1,-2,-3,0,-1,1,0,-2
1512364156637427,0,-1,-2,-1,0,-1,-2,-1
1512364156637927,-1,-4,0,-1,-1,-2,-3,1
1512364156637927,0,-2,0,-2,-2,-1,1,0
1512364156659942,-1,-2,1,0,0,-1,2,0
1512364156659942,-2,-1,0,0,-1,-2,1,1
1512364156660443,-1,1,-1,-3,-1,-1,1,0
1512364156660443,0,1,-2,-2,-1,-2,-4,-2
1512364156673964,1,-2,-2,-3,0,1,0,-2
1512364156673964,-2,2,-2,-1,-2,-1,-2,-2
1512364156674965,1,-2,-3,-1,-1,1,1,-2
1512364156674965,-1,-2,1,-1,-1,-1,0,-1
1512364156697472,-2,1,-2,-1,-1,0,-1,1
1512364156697472,1,-2,-1,-1,-2,-1,-1,-3
1512364156697970,-1,-2,-2,-1,-1,-2,-3,-2
1512364156697970,-1,0,-1,-2,-1,-1,-2,0
1512364156735998,-1,-2,-1,1,0,-1,0,0
1512364156735998,-2,-3,-1,0,-1,-1,-2,0
1512364156736997,-2,-1,-1,1,-2,0,-3,-1
1512364156736997,0,-2,0,-2,-1,-1,0,-1
1512364156738498,-2,1,-5,-1,-2,-3,-2,-3
1512364156738498,-1,1,0,0,0,-1,1,1
1512364156741501,-1,-1,-1,-1,-2,-3,-2,-1
1512364156741501,0,-3,-2,-1,0,0,-3,-1
1512364156756510,-3,-1,-1,-1,0,-1,-2,-3
1512364156756510,1,2,1,0,-1,0,1,-2
1512364156764016,-1,-2,-4,-1,-1,0,-2,-1
1512364156764016,-1,-1,-2,0,-1,0,1,0
1512364156780027,-2,0,2,-1,2,1,-1,-1
1512364156780027,-1,-2,-1,-1,0,0,-2,-1
1512364156780527,-1,-2,0,-1,0,-2,1,-3
1512364156780527,-1,0,-3,0,-1,-2,-1,0
1512364156794037,-1,-2,-1,-2,-2,0,-2,-1
1512364156794037,-2,-3,1,-2,-2,0,-2,-1
1512364156795038,-1,0,2,-2,-2,0,1,-1
1512364156795038,-2,-1,-1,0,0,-1,-1,-2
1512364156818055,-2,0,-1,-1,0,-2,-4,-3
1512364156818055,-2,-3,-3,-1,-1,0,-2,0
1512364156819055,-1,-2,-2,-1,-2,-1,-3,1
1512364156819055,-1,-2,2,-1,-2,-1,2,-1
1512364156839569,-2,-3,0,-2,-2,-3,-1,1
1512364156839569,-1,-2,-3,-1,1,-2,0,-1
1512364156840570,-1,-1,0,-1,-2,-1,1,1
1512364156840570,-2,2,-3,1,-1,-1,0,-2
1512364156854580,-1,-1,-4,-1,-3,-1,-2,-1
1512364156854580,0,-2,-1,-1,-1,-1,-2,-1
1512364156855080,0,-1,0,0,1,0,-2,0
1512364156855080,-1,0,0,-3,0,0,-3,0
1512364156877095,0,1,-1,-2,0,0,0,-2
1512364156877095,0,0,-2,-1,-2,-1,0,-2
1512364156878096,-3,-1,-2,0,0,-1,0,-2
1512364156878096,-2,0,-2,-1,-2,0,0,-1
1512364156900113,-1,0,0,-1,-1,1,0,2
1512364156900113,-1,-1,-2,-1,-2,-1,-1,-2
1512364156900613,0,-2,-2,-1,-2,-1,-1,-1
1512364156900613,-3,-2,-2,-1,-2,0,-2,0
1512364156914622,-1,-1,0,0,-4,-2,-2,0
1512364156914622,-1,-1,-2,-2,-1,-1,-2,-1
1512364156915623,1,-1,-1,0,-2,-2,-1,-2
1512364156915623,0,-1,0,-1,0,-1,-1,-3
1512364156937138,-1,-5,-2,-2,-1,-3,0,-3
1512364156937138,-1,-3,-1,-1,0,-1,1,0
1512364156938139,-1,1,-2,-1,-1,-1,0,0
1512364156938139,-2,-2,-2,-2,-1,-2,-2,1
1512364156967160,0,-1,-1,0,-1,0,0,-1
1512364156967160,0,-2,-2,-1,-3,-1,-1,1
1512364156968181,-2,-2,-1,-2,-1,0,0,-1
1512364156968181,-1,-3,-3,-2,-1,0,-1,-2
1512364156974165,-1,-2,-2,-1,-1,-1,0,-1
1512364156974165,-1,-1,-1,1,-2,-1,0,-3
1512364156974664,-1,-1,1,-1,0,-1,-2,-3
1512364156974664,-1,0,-1,0,-2,-1,1,-1
1512364156997184,0,1,-1,-1,-3,0,2,0
1512364156997184,-2,1,0,-1,-1,-1,-1,2
1512364156998181,-1,-3,0,-1,-1,-2,0,-1
1512364156998181,0,-3,1,0,0,-3,-1,-4
1512364157027202,1,-1,-2,0,-1,1,0,-2
1512364157027202,0,-1,-3,-2,0,-1,-2,-1
1512364157028202,-1,-1,-1,-2,-2,-1,-3,-2
1512364157028202,0,0,1,-1,-2,-2,0,1
1512364157034207,0,2,-1,-3,-1,-2,0,0
1512364157034207,-2,0,-3,0,-1,0,0,0
1512364157034707,-3,0,-1,-1,-2,0,-1,1
1512364157034707,1,-3,-4,-1,-1,-3,-4,0
1512364157057235,-1,0,-2,-2,-1,-1,-4,0
1512364157057235,-2,-3,0,-1,0,-1,-1,-2
1512364157058234,0,0,-1,1,1,0,-1,-1
1512364157058234,-5,-2,-1,-1,-2,-2,-1,-1
1512364157079762,-2,-1,0,-2,0,-2,-1,-1
1512364157079762,0,-1,-3,-1,-2,-1,-3,-2
1512364157080752,-2,0,-2,-2,0,-1,0,-3
1512364157080752,-2,0,-1,1,0,0,2,-1
1512364157093251,-1,-1,-2,-2,0,-1,1,-2
1512364157093251,0,-1,2,-1,-1,-3,-1,-2
1512364157101768,-4,-2,-1,-2,1,-1,-2,-2
1512364157101768,1,-1,-1,-1,-1,0,-4,-1
1512364157117267,-2,-2,1,-1,-1,-1,0,-2
1512364157117267,-2,0,-1,-3,-2,0,0,-1
1512364157117766,1,-2,-4,-1,-1,0,-2,-2
1512364157117766,0,0,-3,-1,-1,0,-2,-2
1512364157139792,-1,-2,-2,2,-1,-2,-2,-1
1512364157139792,-1,-2,-1,-3,-1,0,-1,-1
1512364157140804,-3,-2,-2,-1,-2,-1,-2,-1
1512364157140804,-3,1,-1,-2,0,-1,1,0
1512364157153791,0,1,0,0,-2,-1,0,0
1512364157153791,-1,-1,1,-1,-1,-1,1,-1
1512364157154792,-1,-6,-3,-1,-2,-2,1,2
1512364157154792,-1,-1,-1,-2,-1,-1,-3,0
1512364157177309,-1,0,-3,-2,-1,-1,-1,0
1512364157177309,-1,-1,-1,-1,-1,-2,-2,-1
1512364157177808,-1,1,1,-1,-2,0,2,-3
1512364157177808,-2,-2,-2,-1,0,-2,1,-1
1512364157199824,-2,-4,-3,-1,0,1,0,-2
1512364157199824,-1,-3,-3,-1,0,-3,0,-2
1512364157200325,0,0,-3,-1,-1,-1,-3,-1
1512364157200325,0,-2,0,0,-2,-1,1,-2
1512364157213353,-1,1,-1,0,1,0,-1,-2
1512364157213353,-5,1,0,-1,-1,1,-1,0
1512364157221839,-1,1,0,-1,-2,-1,-1,1
1512364157221839,-2,0,-2,-2,-1,-2,-1,1
1512364157237350,-2,-2,-2,-2,-1,-1,-4,0
1512364157237350,0,0,-1,-1,-1,1,-2,-2
1512364157237850,0,0,-2,-1,0,-1,-2,-1
1512364157237850,-1,-1,0,-2,0,1,0,-3
1512364157259866,0,-1,1,-3,-2,-2,-2,-1
1512364157259866,2,-1,0,-2,0,0,0,-1
1512364157260866,-1,2,1,-2,-1,0,-1,0
1512364157260866,-1,0,0,1,-1,-2,1,-3
1512364157273375,-2,-1,-3,-1,-1,-1,-1,0
1512364157273375,0,-1,-2,0,-1,-2,0,-2
1512364157288887,0,-3,-1,-1,-1,-3,-1,-2
1512364157288887,0,0,0,0,-2,-1,0,-1
1512364157297392,0,-3,0,-1,0,2,-1,-2
1512364157297392,0,1,0,0,-1,-3,1,-2
1512364157297893,-1,-1,-3,-2,-1,0,-1,-1
1512364157297893,-4,0,-2,-2,0,-2,-2,-1
1512364157319908,-3,-2,-2,-2,-1,-2,-1,0
1512364157319908,-1,-4,-3,-2,-1,-2,-1,1
1512364157320909,0,-2,-1,0,-1,0,1,-1
1512364157320909,0,-3,-3,-2,0,1,-2,-1
1512364157333418,-4,2,2,0,-2,0,-5,-3
1512364157333418,-2,-2,-1,-3,0,-1,-1,-1
1512364157342424,0,-1,-1,-3,-2,-2,-1,-1
1512364157342424,0,-2,0,-1,-1,1,0,-3
1512364157357435,1,-1,0,-1,-2,0,0,-1
1512364157357435,-1,1,-1,0,-2,1,-2,-1
1512364157358936,-1,-1,-1,0,-1,-3,0,-1
1512364157358936,-2,-1,-3,0,0,-3,0,0
1512364157380953,0,-1,-2,-2,-1,-1,-1,2
1512364157380953,-1,0,-2,-1,0,-1,-1,1
1512364157382953,0,-1,-1,-1,-2,1,-2,-2
1512364157382953,1,-2,-1,1,-2,-2,-4,0
1512364157393462,-1,-1,-2,0,0,-3,0,-2
1512364157393462,0,-3,-3,-2,-3,-1,0,-2
1512364157403468,-2,-1,-1,1,0,-4,-1,-1
1512364157403468,-1,0,0,-1,-2,-1,0,-2
1512364157417477,-1,-2,-1,1,0,-1,-2,1
1512364157417477,-1,0,0,-1,-1,-1,-1,0
1512364157418978,-3,0,-1,-2,-1,-1,-1,-3
1512364157418978,0,-1,-2,0,-1,-1,-3,-2
1512364157439994,-4,-1,-2,-2,0,0,1,-1
1512364157439994,0,-1,-2,-2,-2,0,-2,-2
1512364157441494,0,-2,-3,0,-1,0,0,0
1512364157441494,0,-3,-2,-2,-1,-1,-1,0
1512364157453504,0,2,-1,0,-2,0,2,0
1512364157453504,-2,2,0,-1,0,-1,0,-2
1512364157462509,-1,1,0,1,-1,0,-1,0
1512364157462509,1,-3,-3,0,-2,0,-1,-1
1512364157477519,0,-1,1,-1,-3,-2,-1,-3
1512364157477519,-2,-1,2,-1,0,-1,-2,-2
1512364157479021,0,-1,1,-3,-1,-1,-3,1
1512364157479021,-1,-2,0,-3,-1,1,-2,-1
1512364157500036,-1,-1,-4,-1,-1,0,-4,-2
1512364157500036,0,1,-4,0,-1,-1,0,-2
1512364157501536,-1,-2,-3,-1,-1,-1,-2,-2
1512364157501536,-5,0,-1,0,-1,-1,0,-2
1512364157513544,0,-8,-5,-3,-2,-1,-1,-3
1512364157513544,0,-1,1,-1,-3,-1,-1,1
1512364157522551,0,-3,-1,-1,-2,0,-2,0
1512364157522551,-1,1,-2,-2,-1,-1,-1,-1
1512364157537062,-1,-1,-1,-1,-1,-1,-1,-2
1512364157537062,-1,-1,-2,0,0,0,1,-1
1512364157539063,-1,0,-2,1,-2,-1,1,-2
1512364157539063,1,1,-1,-2,-1,0,0,-1
1512364157559577,0,1,0,1,0,-2,-3,-2
1512364157559577,-2,-3,-1,-1,0,-2,-2,-1
1512364157561079,-1,-2,1,-3,-1,-1,-1,-1
1512364157561079,0,0,0,1,1,-2,0,1
1512364157582094,0,-1,0,-3,0,0,-3,-2
1512364157582094,-2,1,-3,0,-1,-2,-2,-1
1512364157584095,-3,-1,-5,-2,0,1,-2,-2
1512364157584095,-2,-2,-1,-1,-2,1,-2,0
1512364157596603,-1,-1,0,-3,-2,-1,0,1
1512364157596603,-1,-3,-1,-1,0,-3,0,1
1512364157603609,0,-1,-1,1,-2,-1,0,-1
1512364157603609,0,1,-2,-1,-1,-1,-1,-1
1512364157619620,0,-1,0,0,0,0,1,-1
1512364157619620,-1,-1,-1,-3,-1,2,-2,-1
1512364157622121,0,-1,1,-2,0,-1,-1,-1
1512364157622121,-2,-2,-1,-3,-1,-2,1,-1
1512364157642137,-1,-1,-2,0,-2,-1,-1,0
1512364157642137,1,-1,-1,0,-3,-1,-1,0
1512364157644137,-3,-2,0,2,-1,-1,-2,-1
1512364157644137,-1,-1,-1,0,0,-2,-1,-1
1512364157657146,0,-2,0,-2,-1,-1,-1,1
1512364157657146,2,-1,-1,0,-2,-1,-1,-1
1512364157658647,0,0,-3,-2,-2,-1,-2,-2
1512364157658647,-1,-3,-4,-1,-2,-1,0,-2
1512364157679701,0,-1,-3,0,-1,0,-1,-2
1512364157679701,-3,-1,-2,-1,0,-1,-1,-1
1512364157681173,0,-1,1,-2,-1,-1,0,-1
1512364157681173,-1,-1,0,0,-1,1,-1,0
1512364157702192,1,0,0,-2,0,-2,-2,1
1512364157702192,0,1,1,-2,-1,1,-2,-2
1512364157704690,-2,2,1,-2,-1,-1,0,0
1512364157704690,-1,1,-1,-1,-2,-2,0,-2
1512364157716700,-2,-1,-5,1,-2,-2,-3,-2
1512364157716700,-1,-2,-3,-2,-1,0,0,0
1512364157723261,0,0,-3,-1,-1,-1,-1,0
1512364157723261,-1,0,-2,-2,-1,-1,0,1
1512364157739775,-1,0,1,-1,-1,0,1,-2
1512364157739775,-1,-2,0,0,-2,-1,1,-1
1512364157741273,-1,-2,-2,-1,-1,-2,-1,-1
1512364157741273,0,-2,-4,-2,1,-2,-1,0
1512364157762327,-1,-2,-2,-1,-2,-1,-3,-1
1512364157762327,-5,0,1,-1,1,-1,-2,-1
1512364157763802,2,-3,1,-1,-2,-1,0,-2
1512364157763802,1,-2,-1,0,-1,-1,-2,-2
1512364157776298,-1,-2,-4,-1,0,-1,-2,0
1512364157776298,-2,-2,-1,-1,-1,0,-1,0
1512364157783304,-2,-3,-2,-2,-1,-3,-1,-1
1512364157783304,-4,3,0,0,-1,0,-2,0
1512364157799815,0,0,1,0,0,-2,-1,-3
1512364157799815,1,-2,1,0,-2,-2,-1,-1
1512364157802316,0,-3,-1,-2,-1,-1,0,1
1512364157802316,0,-3,-1,-1,-1,0,-2,-1
1512364157822332,-2,1,-2,-3,-3,1,0,-1
1512364157822332,0,-2,-2,-2,-2,-2,-1,0
1512364157823833,0,1,-3,-1,-1,-1,0,0
1512364157823833,-1,-1,0,-3,-1,-2,-3,-3
1512364157836854,1,-3,-1,0,-2,-2,-1,-2
1512364157836854,1,-2,-2,-1,-1,-2,-2,-1
1512364157843347,-3,-1,-1,-1,0,-1,0,-2
1512364157843347,-1,-1,-1,1,-1,-1,-1,2
1512364157859857,-1,1,0,-1,-1,1,-1,-1
1512364157859857,0,1,0,-2,-1,0,-1,-3
1512364157861359,0,-3,-4,-1,-1,-2,-1,-4
1512364157861359,-1,1,1,-1,-2,-3,-1,-1
1512364157882384,-2,0,-1,-1,0,-2,-1,-1
1512364157882384,-3,-2,-2,-1,-1,-1,-2,1
1512364157883875,-1,-2,-1,-2,0,1,-3,0
1512364157883875,0,-3,1,-3,0,0,-1,0
1512364157896893,0,-1,-2,0,0,-1,0,-2
1512364157896893,-1,-2,-2,-2,-2,-3,0,-2
1512364157903388,-3,-1,1,-1,-2,-2,-1,0
1512364157903388,-1,-2,1,0,-1,-1,-2,-2
1512364157919411,-3,0,-2,-1,-2,-1,0,1
1512364157919411,0,0,-4,-1,0,0,1,-3
1512364157921410,0,1,-1,0,-2,-2,-1,-1
1512364157921410,0,-1,-4,-2,-3,-2,0,-2
1512364157942434,0,-4,-3,-1,0,0,0,-1
1512364157942434,-2,-2,-3,-2,0,0,-2,0
1512364157943943,-1,-1,-2,-1,-2,-1,-3,-1
1512364157943943,-2,-2,-1,-2,-3,-2,-2,0
1512364157956926,-1,-1,1,-1,-2,-2,-1,0
1512364157956926,0,1,2,0,-1,-2,-3,-1
1512364157963430,-2,1,-1,0,0,0,-1,-1
1512364157963430,0,-2,-2,1,-3,-2,1,-3
1512364157979951,-2,-1,-3,-3,-2,0,-1,-2
1512364157979951,-2,0,1,-1,-2,-1,0,-1
1512364157981453,-2,0,0,-3,-2,-2,-2,0
1512364157981453,-2,-3,-1,-2,0,1,-4,0
1512364158009982,-2,-3,-2,1,0,-1,-1,-2
1512364158009982,-1,-3,-3,-1,0,-1,-2,-1
1512364158011490,2,-1,-3,0,-2,0,1,0
1512364158011490,-2,-1,-4,-1,-1,-1,1,-2
1512364158016468,-2,-1,-1,-3,-1,-1,0,-1
1512364158016468,-1,1,-1,-2,-1,-1,-1,-1
1512364158023472,0,0,2,0,0,0,-2,-1
1512364158023472,-1,-1,0,-1,-2,-3,-1,-1
1512364158039985,1,0,0,-1,-2,-2,0,-2
1512364158039985,-1,-1,-2,-1,-1,-3,-1,0
1512364158041495,-2,0,-2,-1,0,-1,0,0
1512364158041495,-4,1,-1,0,-1,-1,-1,-2
1512364158062529,0,-2,-3,0,-1,-2,-4,-1
1512364158062529,0,-4,-1,-1,-2,-1,0,0
1512364158064023,-1,-1,0,1,-1,-1,0,-3
1512364158064023,0,0,-2,-3,-2,1,1,-1
1512364158076022,-2,0,-2,-3,-1,0,0,-2
1512364158076022,-1,0,-1,1,0,-1,-3,-1
1512364158085062,-1,-1,-3,0,-1,-1,-3,0
1512364158085062,0,0,-1,-1,1,-2,-2,-1
1512364158100027,-2,-1,-2,-3,-1,-2,-2,1
1512364158100027,0,1,-1,0,1,0,-2,-1
1512364158101528,-1,-1,-2,-1,0,0,-1,0
1512364158101528,1,-1,1,-2,-1,0,-2,-2
1512364158122042,-1,-1,1,-1,-2,0,-2,-1
1512364158122042,0,1,-1,-3,0,-2,-1,-1
1512364158124044,0,-2,1,-1,-1,-1,-2,-2
1512364158124044,0,-2,0,0,-2,-1,-2,0
1512364158136071,1,-1,0,0,-1,-1,0,-1
1512364158136071,-1,-2,0,-1,-3,1,1,-1
1512364158145071,-2,1,-3,-2,-2,-1,2,-2
1512364158145071,-1,0,-2,-1,-1,0,-2,-1
1512364158159629,0,-2,-1,0,-1,-1,-2,0
1512364158159629,0,0,-2,-2,-1,-1,-2,1
1512364158161130,-2,0,1,-3,-1,-3,-1,0
1512364158161130,-1,0,0,-1,-1,0,0,-1
1512364158182197,0,-2,-3,-1,1,0,-1,-2
1512364158182197,-1,0,-3,-1,-2,0,1,-1
1512364158183699,-2,-3,-1,0,0,-1,1,-1
1512364158183699,-2,-2,-2,-2,-1,-1,-1,0
1512364158195706,-2,0,-1,-3,0,-2,0,0
1512364158195706,-1,-2,0,0,-2,-1,-1,0
1512364158204747,1,-2,-1,-1,-2,0,-4,0
1512364158204747,-1,1,1,-1,-2,1,0,1
1512364158219768,-1,-1,0,-2,-1,0,1,-1
1512364158219768,-1,-2,-1,1,0,-1,0,-2
1512364158221267,-2,0,-1,-1,-1,-2,-1,-3
1512364158221267,0,-3,-4,-2,-2,-2,-1,-1
1512364158242273,-1,0,-2,-1,-1,-2,-1,0
1512364158242273,-1,-1,0,-1,-1,-1,-3,-1
1512364158243799,0,0,-2,-1,-2,0,0,1
1512364158243799,-2,-1,-1,0,-1,-1,-1,-1
1512364158255781,-2,2,-1,1,-2,-1,-1,-1
1512364158255781,-1,-2,-1,-2,0,-1,1,-2
1512364158264787,-1,-2,0,-1,-1,-1,0,0
1512364158264787,-1,-3,-3,-3,-1,-2,-2,-1
1512364158279799,-2,1,-1,-2,-1,-1,-1,2
1512364158279799,-1,-1,-2,-1,-1,-1,-3,0
1512364158281299,-1,0,-1,-2,0,1,-1,0
1512364158281299,-2,2,1,-1,0,-2,0,-3
1512364158302314,-3,-2,0,-2,-1,-1,-1,-2
1512364158302314,-2,0,-1,-1,-4,-2,-2,-1
1512364158303815,-1,0,-2,-1,-1,1,-1,-1
1512364158303815,-1,-3,-3,-1,-2,0,0,1
1512364158315825,1,-4,0,-1,0,-2,-1,-1
1512364158315825,-2,1,-1,-2,0,-2,0,1
1512364158324831,-3,0,-2,-2,-2,-1,1,0
1512364158324831,0,-1,-1,0,0,-2,-1,0
1512364158339841,-3,-1,0,-1,-2,-1,-2,-2
1512364158339841,-1,0,-2,0,-3,-2,-1,-2
1512364158341842,-1,-1,-2,-1,0,-2,-4,-2
1512364158341842,-1,-1,-1,-2,-2,0,1,-1
1512364158362368,0,-2,-1,-1,-1,-1,0,0
1512364158362368,0,-3,0,1,0,-1,0,1
1512364158363858,-1,-2,-2,0,0,-3,-1,-1
1512364158363858,0,-1,-1,0,-1,-1,1,-2
1512364158384872,1,0,-4,1,-1,-1,0,0
1512364158384872,0,-2,-1,-2,-1,-1,-2,0
1512364158386373,-2,-1,0,0,-1,0,-2,0
1512364158386373,-1,-3,0,1,-1,-2,-3,-1
1512364158399890,0,-1,0,-2,-1,-2,-4,-2
1512364158399890,0,-1,-3,-1,-2,0,1,-1
1512364158401392,1,-1,0,-1,0,0,0,0
1512364158401392,0,-1,0,1,0,-1,0,-2
1512364158421898,-1,0,-1,-2,-2,-1,0,-1
1512364158421898,-2,-1,0,-2,-1,-1,-1,-2
1512364158423905,-1,-1,-3,-2,-2,-1,1,-4
1512364158423905,-2,-1,-3,-2,1,0,-2,1
1512364158435909,-3,-2,-2,1,-1,-1,-1,0
1512364158435909,-3,-1,0,0,-2,0,-2,-2
1512364158444917,-1,0,-1,1,-3,0,-2,-1
1512364158444917,0,0,-1,0,-2,-3,0,0
1512364158459425,-1,0,-3,-2,-1,-3,-2,-1
1512364158459425,-2,0,-2,-1,-1,-1,-1,-1
1512364158461429,-1,-2,0,-1,-2,-2,0,-1
1512364158461429,-1,-1,1,-1,-2,-1,-2,0
1512364158481941,-2,-1,-1,-1,-1,0,-1,-1
1512364158481941,0,-2,0,-2,-1,-3,-1,-1
1512364158483942,-1,-1,-1,0,1,0,-2,0
1512364158483942,-3,-2,0,-3,-1,-2,-2,-2
1512364158495992,-2,-3,0,-2,-1,-2,-1,0
1512364158495992,0,-2,-2,-1,-1,0,0,-1
1512364158504998,0,0,-4,-2,0,-1,-2,-1
1512364158504998,-1,0,-2,-1,0,1,-1,-2
1512364158519508,-1,-1,-1,2,0,1,-3,1
1512364158519508,-4,-1,-1,-2,1,-2,-1,-1
1512364158521515,-3,0,-2,-1,0,-3,-2,-1
1512364158521515,-1,-1,-2,-1,-1,-3,1,-1
1512364158542014,-1,-2,-1,-1,-1,0,1,-1
1512364158542014,-1,0,-2,-2,-2,-1,0,-1
1512364158543516,-1,0,-2,-2,-2,-1,-1,-2
1512364158543516,-2,-1,-2,-2,-1,0,0,0
1512364158565039,-2,0,-2,0,-1,-1,1,-2
1512364158565039,-1,-1,-1,1,0,-1,0,1
1512364158566534,0,-1,0,1,-1,0,1,-1
1512364158566534,-1,-1,0,0,1,0,-1,-3
1512364158580044,-3,-3,2,-1,0,0,-1,-2
1512364158580044,-2,4,2,-2,-1,0,-1,-1
1512364158581545,-1,-2,0,-1,-2,-2,-1,-1
1512364158581545,0,0,-1,-1,-1,0,-1,-1
1512364158602068,0,-2,-3,-1,-1,-2,-4,-1
1512364158602068,-1,-2,-2,-2,-1,-1,-2,-1
1512364158603558,0,-1,0,-2,1,0,-2,0
1512364158603558,0,-1,0,-2,-2,0,0,0
1512364158624584,0,2,1,-1,0,0,0,0
1512364158624584,-1,-1,-3,-3,-1,-1,-1,0
1512364158626586,0,-1,0,0,-1,0,0,-1
1512364158626586,-2,-4,-2,-2,-2,-2,-1,-1
1512364158639593,0,0,0,-4,-2,0,-1,-1
1512364158639593,0,-2,-1,1,0,-1,-1,-2
1512364158641085,-2,-2,0,-1,-2,-1,0,-3
1512364158641085,-1,0,1,0,0,-1,-1,-1
1512364158662139,-2,-1,-1,-2,-1,-1,-3,-1
1512364158662139,0,0,-1,0,-1,-1,-3,-1
1512364158664117,-1,-1,-4,-3,-1,-1,-5,-2
1512364158664117,0,0,-2,-2,-1,0,-3,-2
1512364158684625,1,-3,0,-1,-1,-2,-2,-1
1512364158684625,0,-3,-1,-2,-1,1,0,0
1512364158686128,0,0,1,-1,-2,0,1,0
1512364158686128,-2,-1,0,-1,-1,-2,1,0
1512364158699126,0,-1,-1,1,0,0,1,1
1512364158699126,-1,-1,-1,0,-1,-2,1,-2
1512364158706131,0,-1,0,-1,-2,-2,-1,1
1512364158706131,-1,0,0,-1,-1,0,-1,-1
1512364158722158,0,-2,-1,-1,-1,-1,-1,-2
1512364158722158,0,-3,-2,-1,-1,-1,0,0
1512364158723642,-2,-1,-1,-1,-1,-2,0,0
1512364158723642,-2,0,-5,-1,-1,-2,-2,0
1512364158744672,-2,-1,-2,-2,0,-1,-1,0
1512364158744672,0,1,-2,0,0,0,-2,-1
1512364158746168,0,-1,1,-3,-2,-2,-3,-3
1512364158746168,-4,-1,3,-3,-1,0,-2,-5
1512364158759167,0,-1,-1,-1,-1,-2,-1,-3
1512364158759167,0,-1,0,-1,-1,-2,-1,-1
1512364158765685,-1,-1,-3,-1,-1,-1,-1,-1
1512364158765685,0,-2,0,1,-1,-1,-1,-1
1512364158782184,-2,-2,-2,-2,-3,-2,0,0
1512364158782184,-1,-3,0,-1,-1,-2,-1,-1
1512364158783686,2,-1,-2,-1,1,0,0,0
1512364158783686,-1,1,-3,-2,-2,-2,1,-1
1512364158804712,-2,1,-2,1,-1,-1,-1,-2
1512364158804712,0,0,-1,-3,0,0,-4,-1
1512364158806201,-1,-1,-2,-1,0,1,-2,-1
1512364158806201,0,-2,-4,-1,0,-1,-1,0
1512364158819211,0,-1,-3,-1,1,-1,0,-2
1512364158819211,-2,-1,0,-1,-1,-1,2,-3
1512364158825715,-1,-1,-1,0,0,0,-1,-2
1512364158825715,1,-1,0,-2,0,-2,0,-1
1512364158842226,-1,-2,0,-2,-1,-1,0,-1
1512364158842226,-2,0,-1,-2,-1,1,-1,-1
1512364158843727,-2,-1,-1,0,-1,-3,-1,-1
1512364158843727,-1,-1,-1,0,-2,-2,-2,-1
1512364158864755,0,1,0,-2,-1,0,-2,1
1512364158864755,-1,-1,1,-1,-1,-1,-1,0
1512364158866265,-1,-2,-1,-1,1,-1,-1,0
1512364158866265,1,-2,-2,-1,-2,-1,-3,-1
1512364158879273,-2,-2,0,0,-1,-1,0,1
1512364158879273,-2,-1,-4,-1,-2,-1,-1,1
1512364158885774,0,-1,-2,-2,-1,-1,1,-1
1512364158885774,0,-1,-1,0,-1,1,0,-1
1512364158902279,-2,-1,-2,-1,-1,2,-1,-1
1512364158902279,-2,0,-1,0,-1,-1,-3,-1
1512364158904771,-3,-1,0,-2,-2,-2,-2,0
1512364158904771,-3,-2,0,-1,-1,-2,1,-1
1512364158924785,1,-2,-1,-2,-2,-1,1,-1
1512364158924785,-1,-3,-1,-1,-1,-2,-1,-1
1512364158926285,-1,1,-2,-1,-1,0,-1,0
1512364158926285,1,1,-2,-1,0,-1,-1,0
1512364158939295,-1,0,-1,2,-1,0,-3,-2
1512364158939295,0,-2,1,-1,-2,-2,0,-1
1512364158945811,-1,-1,1,0,-1,0,-2,-2
1512364158945811,-1,-1,-2,-4,-1,0,-1,-3
1512364158962337,-1,-2,-2,0,-1,-3,0,-2
1512364158962337,2,1,0,-1,0,-2,-2,-1
1512364158963836,-2,0,-2,-2,-2,-1,-1,-1
1512364158963836,-3,0,-2,1,0,-2,-2,-1
1512364158984844,-1,-2,-1,-2,-2,0,-3,0
1512364158984844,0,0,0,-1,-1,0,0,0
1512364158986339,-1,-1,-1,-2,0,0,1,0
1512364158986339,-2,-1,-2,-2,-1,0,1,-1
1512364158998413,-1,-3,-1,-1,0,-1,-1,-3
1512364158998413,-3,-2,-3,-2,-2,0,-1,-2
1512364159007428,-3,-4,0,0,-1,-1,-1,-2
1512364159007428,0,0,-1,1,-2,-2,-2,-3
1512364159021938,-1,0,0,0,-1,-3,-2,-3
1512364159021938,1,-1,0,0,0,0,-1,-2
1512364159023954,0,0,-2,-1,1,-1,0,-1
1512364159023954,0,-2,-1,-2,-1,-1,2,1
1512364159044456,0,-1,-2,-1,-1,-1,-3,1
1512364159044456,0,-2,-3,0,-1,1,0,-1
1512364159046455,-1,1,2,-1,-1,-1,-1,0
1512364159046455,-2,-3,2,-1,-1,-2,-1,1
1512364159058464,-2,-1,0,-2,-1,-1,-1,-1
1512364159058464,-3,-2,-1,-1,-1,-1,1,0
1512364159067471,-2,-2,-3,0,-1,-2,-1,0
1512364159067471,-2,0,-1,0,-3,0,-3,-3
1512364159081980,-1,0,-1,0,-1,-2,-2,-3
1512364159081980,-1,0,-2,-1,0,-2,-4,-4
1512364159083993,1,0,-2,-1,-2,-1,-1,-2
1512364159083993,-1,-2,-1,-2,-1,-2,0,1
1512364159104528,-1,-1,-2,-2,-1,-2,1,1
1512364159104528,-2,-2,-2,-1,-1,-3,-2,1
1512364159106029,-1,-2,-2,-2,-1,-2,-2,-1
1512364159106029,2,-2,1,0,0,0,-3,0
1512364159118538,1,1,-1,0,-1,1,0,0
1512364159118538,-2,0,-1,-1,-1,-1,-1,-2
1512364159127544,-2,-1,0,0,-2,-1,-1,-1
1512364159127544,-2,0,0,0,0,-2,1,-1
1512364159142054,-1,-1,0,-2,-1,-1,1,-1
1512364159142054,1,0,0,-2,1,1,-1,0
1512364159143555,-1,-1,-3,-1,-1,-1,-1,0
1512364159143555,-1,-1,-2,0,-1,-1,-2,-2
1512364159164571,0,1,-1,-1,0,0,0,-1
1512364159164571,-2,-2,0,-1,-2,-2,-2,-1
1512364159166572,-1,-2,-1,0,-2,-1,-2,-1
1512364159166572,-1,-1,-1,0,-1,0,-4,-2
1512364159178079,-2,-4,0,-2,-2,-2,-3,-1
1512364159178079,-2,-3,-2,-1,0,-1,-2,-4
1512364159187586,-1,0,-1,-1,-2,-2,0,-2
1512364159187586,-2,0,0,-2,-2,-2,1,-1
1512364159202096,-1,1,-3,-1,1,-2,1,0
1512364159202096,-1,-1,-2,-1,-1,-1,0,1
1512364159203597,0,-5,-2,-1,0,0,-1,-1
1512364159203597,0,-3,-2,-1,-3,-1,0,0
1512364159224622,-1,-1,-2,-4,-3,0,-2,-1
1512364159224622,-2,0,0,0,0,-2,-1,-2
1512364159226114,0,1,-1,-2,-2,0,-3,0
1512364159226114,0,0,-2,-1,0,-2,-4,-2
1512364159238131,-2,-3,0,1,-1,-2,-4,-2
1512364159238131,-2,-1,-1,-2,0,-1,-1,0
1512364159247629,-3,1,1,-1,0,-1,0,-1
1512364159247629,2,1,-2,-1,-1,0,-1,2
1512364159262140,-1,-2,-1,-1,-2,-1,0,0
1512364159262140,-2,-2,0,-2,-3,-2,1,-1
1512364159263640,0,0,2,1,-1,-1,0,1
1512364159263640,-3,-2,-2,-1,-1,-1,0,-1
1512364159284655,-1,0,-3,0,1,-2,-1,-1
1512364159284655,0,0,-3,-1,-1,0,-1,0
1512364159286156,0,-1,-2,-2,0,-4,2,-1
1512364159286156,-1,1,-4,-2,-1,-2,-2,0
1512364159298164,0,-2,-2,-1,-2,-2,-3,2
1512364159298164,-1,-2,-2,-1,-1,-1,-4,1
1512364159307177,-1,-2,0,-2,-1,0,-1,0
1512364159307177,0,-2,-2,-1,1,0,1,-1
1512364159322193,-2,0,1,-1,0,0,2,-2
1512364159322193,-1,0,1,-2,-1,-1,0,-2
1512364159323684,-1,0,-2,-1,1,1,-1,-2
1512364159323684,-2,-2,-3,-2,-3,-2,-2,-2
1512364159344715,-1,-2,0,-2,-1,-1,-1,-1
1512364159344715,-1,-1,-1,-2,-2,-1,-1,1
1512364159346202,-1,-2,-3,0,0,-1,-1,0
1512364159346202,0,-3,1,0,-2,-2,-2,-1
1512364159358207,-2,-3,1,-2,-2,1,0,-1
1512364159358207,1,0,0,1,0,0,1,-3
1512364159367228,-1,1,0,0,-1,0,0,0
1512364159367228,0,-1,0,-2,-1,0,1,-1
1512364159382233,0,-2,-2,0,-2,0,0,-2
1512364159382233,-3,-1,-2,0,-1,-2,-2,-1
1512364159383725,-1,-2,0,-2,0,-1,-2,-1
1512364159383725,-1,0,-1,-1,-1,-1,-1,1
1512364159404740,-1,-1,0,-1,-1,-3,-2,0
1512364159404740,0,-1,-4,-2,0,-2,-1,-1
1512364159406241,0,-2,-3,-2,-2,-1,-3,-1
1512364159406241,-1,-2,-2,0,-2,0,-1,0
1512364159418262,-3,1,1,0,0,0,-2,-1
1512364159418262,-2,-2,-1,-2,-1,-2,1,0
1512364159427256,-2,-1,-3,-1,-2,-2,-1,-1
1512364159427256,-1,0,0,-2,-2,-1,0,-1
1512364159442276,-1,-1,-4,-1,-2,-1,-2,0
1512364159442276,0,0,1,0,0,-1,0,-1
1512364159443767,-2,-2,1,0,0,0,1,-2
1512364159443767,-2,0,0,1,0,-3,1,-1
1512364159464798,-1,0,-3,-2,-1,-1,-1,0
1512364159464798,-3,0,-1,-1,-3,-1,-4,0
1512364159466285,0,-2,-1,-2,0,-1,-1,-2
1512364159466285,-2,-2,-2,-1,0,-2,1,-2
1512364159487298,-1,-2,-2,-1,-2,-3,-2,-1
1512364159487298,-1,-1,-2,-1,0,-1,-1,0
1512364159488799,-2,-1,0,-1,-3,-1,-1,1
1512364159488799,-1,0,-2,-3,0,-1,-2,-1
1512364159502321,0,1,0,-1,-2,-2,0,0
1512364159502321,-1,-3,-1,0,-2,-1,-1,-2
1512364159503810,1,-2,-1,0,-2,1,-1,-3
1512364159503810,-1,0,1,-1,-1,0,-2,-2
1512364159524825,-1,0,-2,-1,-1,-1,0,0
1512364159524825,-1,0,-1,0,-1,-1,-1,0
1512364159526326,-1,0,0,-1,-1,-2,0,0
1512364159526326,-1,-1,2,0,-1,0,-1,0
1512364159547340,-1,-1,1,-2,-2,-1,0,-1
1512364159547340,0,-2,-3,0,-1,0,-1,-2
1512364159548841,-2,-1,-3,-2,0,0,0,-1
1512364159548841,-2,-2,-2,-1,0,-1,0,-1
1512364159562366,-1,-2,-1,-1,-1,0,-2,-1
1512364159562366,-2,0,-1,-1,0,-3,1,0
1512364159563862,0,-1,-4,-1,-1,-4,-2,0
1512364159563862,1,-1,-1,-1,-2,-1,-2,0
1512364159584867,2,-1,-2,0,-1,-1,0,-1
1512364159584867,-2,0,0,-3,0,-1,0,-2
1512364159586369,0,0,1,0,-1,-2,-1,0
1512364159586369,0,-2,-1,0,-2,-1,0,0
1512364159606882,0,-1,-1,-2,-1,0,-3,-2
1512364159606882,2,-1,0,-1,-3,0,0,0
1512364159608884,-2,-1,-2,0,-2,0,-1,-2
1512364159608884,-2,0,-3,-1,-1,0,-4,-1
1512364159621393,-3,-2,-2,-1,-2,-2,-2,-2
1512364159621393,-1,-1,-3,-1,0,-1,-1,-2
1512364159628409,0,-1,0,0,-1,-4,-2,0
1512364159628409,0,-1,0,-2,-2,-2,0,-2
1512364159644930,-1,0,-2,1,-1,-1,1,-3
1512364159644930,-2,1,-1,0,-1,-1,-1,0
1512364159647414,0,-2,-1,-2,-1,-1,-1,-1
1512364159647414,-2,0,-2,0,-1,0,-2,-1
1512364159667427,-2,0,1,-1,-1,-1,-2,-1
1512364159667427,-2,-1,-2,-3,-2,-1,0,-2
1512364159668927,0,0,-2,-1,-2,-1,0,-1
1512364159668927,1,-1,-1,0,-1,0,-1,0
1512364159681461,0,-3,-2,-3,-2,-2,-1,1
1512364159681461,0,-4,-1,-1,-1,-1,-2,2
1512364159688443,-2,0,-1,0,-3,-1,-2,-2
1512364159688443,-2,-3,0,-1,0,-2,-2,0
1512364159704519,-1,-1,-1,1,-1,-2,0,-2
1512364159704519,-1,-2,-2,-1,-2,0,0,0
1512364159706026,-2,0,-2,-3,-2,0,0,0
1512364159706026,-1,0,-2,-3,-1,0,-1,1
1512364159727025,-1,-1,-1,-1,0,0,-2,0
1512364159727025,-2,-1,-1,-2,-1,-1,-1,-2
1512364159728526,-2,2,-3,-2,0,-2,1,-1
1512364159728526,0,0,-1,-1,0,-2,-2,-3
1512364159741536,-1,-2,0,-2,1,-3,-3,0
1512364159741536,0,-3,0,-2,0,-1,-3,1
1512364159748063,1,-2,1,-1,-3,-1,-3,0
1512364159748063,0,-1,0,0,-2,0,0,-1
1512364159764592,-1,-1,1,-1,-1,0,2,-1
1512364159764592,0,-1,-1,0,0,-1,1,0
1512364159766053,-1,-2,0,-1,-1,-2,0,0
1512364159766053,-1,-2,-2,-3,-1,-1,-1,-2
1512364159787077,-3,-2,-4,-1,1,-1,-1,-2
1512364159787077,-1,0,-2,-1,-3,-2,0,-2
1512364159788569,0,-3,-1,-2,-2,1,0,-3
1512364159788569,1,-1,-3,-2,-1,-1,0,-4
1512364159801578,0,0,0,0,-2,-1,0,0
1512364159801578,0,0,0,-1,0,0,-2,-2
1512364159808083,-1,0,-2,-1,-1,-1,-4,0
1512364159808083,0,-1,0,-2,-1,-4,-2,1
1512364159824604,-2,-3,-3,-3,-2,0,-3,-1
1512364159824604,-3,-1,-3,-2,0,1,-3,0
1512364159826096,-1,-2,0,-2,1,1,-2,-1
1512364159826096,-2,-2,0,0,-1,-1,1,-1
1512364159847110,-1,-1,1,-1,-1,-2,-1,-2
1512364159847110,-1,-1,0,-2,-3,-3,1,-3
1512364159848612,-1,0,0,-2,1,0,0,-1
1512364159848612,-2,0,0,-1,-1,-1,0,-1
1512364159861622,-1,-1,-2,-2,0,0,-2,-2
1512364159861622,0,-2,-1,0,-3,-1,-3,-1
1512364159868125,-1,-1,-2,0,-1,-3,-1,0
1512364159868125,-1,-1,-1,-3,-2,-1,-2,-3
1512364159884638,-1,-1,0,0,-1,-1,1,0
1512364159884638,-2,-1,-1,-1,-1,0,0,-1
1512364159886138,-1,-1,0,-2,-2,0,-1,-1
1512364159886138,-1,-2,-1,-2,-3,1,-1,2
1512364159906152,1,-2,-2,-2,-1,-1,-1,-1
1512364159906152,-1,-3,-2,-1,-2,-1,0,-2
1512364159914658,-1,-2,-1,-1,-1,1,-3,-2
1512364159914658,-2,2,-2,0,-1,-3,-1,-2
1512364159921663,-2,0,-2,-1,-2,-1,-1,-2
1512364159921663,-1,-2,-2,-1,0,-2,0,-1
1512364159928168,-1,-3,-3,0,-1,-2,0,-2
1512364159928168,-2,-2,1,-1,-1,-2,-1,-1
1512364159952185,-3,0,1,-1,-2,-3,-2,0
1512364159952185,0,0,2,0,-1,0,-3,0
1512364159953685,-2,-3,1,0,0,0,-2,0
1512364159953685,0,1,-2,0,-2,-1,-1,-2
1512364159967195,-1,1,-1,0,-2,-1,-1,0
1512364159967195,-2,-2,-1,-3,-1,-2,-3,0
1512364159968696,-1,-3,-2,1,-2,-1,-2,1
1512364159968696,1,-3,-2,0,0,0,0,-2
1512364159980704,0,-2,-2,-2,0,-1,-1,-4
1512364159980704,0,1,-1,-1,-1,-1,0,-2
1512364159990713,0,0,-3,-2,-1,-2,0,-2
1512364159990713,-2,0,-2,0,-1,-2,0,0
1512364160005259,-1,-2,0,1,-3,-1,0,0
1512364160005259,-1,-2,-4,-2,-1,1,0,-1
1512364160010763,0,-1,0,-1,-3,-2,-1,-3
1512364160010763,-2,-3,0,-3,-1,0,-1,-1
1512364160027277,0,-1,-1,-1,-1,1,-3,-2
1512364160027277,-1,1,0,-1,1,1,0,-1
1512364160028777,-3,0,1,-1,0,1,-1,-1
1512364160028777,0,-2,-1,-2,-2,-1,-2,-1
1512364160040799,-1,-2,-1,-2,0,-1,-3,1
1512364160040799,-1,0,-3,-1,-1,-2,-2,-1
1512364160057296,-2,0,-4,-1,0,0,-1,0
1512364160057296,0,-1,-2,-2,0,0,-1,-2
1512364160064801,0,-1,-2,-1,-3,0,0,0
1512364160064801,0,-4,0,0,-2,-2,0,1
1512364160066310,-1,-3,0,-2,-1,-1,0,0
1512364160066310,-3,-1,0,-1,-2,-2,1,-2
1512364160087328,-2,-1,-1,-1,-2,-2,-2,-1
1512364160087328,-2,2,0,-1,-1,-2,-1,-1
1512364160088819,-1,1,2,-1,-1,-2,-1,0
1512364160088819,-2,0,0,-1,-1,-1,0,-1
1512364160101827,0,0,-2,-1,-1,-2,-3,-1
1512364160101827,-1,-2,-1,0,-1,-1,0,-1
1512364160109834,0,-1,0,0,-3,-2,-1,-1
1512364160109834,0,-1,1,1,0,-2,-2,-2
1512364160124845,-1,-1,-2,0,0,-1,1,0
1512364160124845,-1,-2,-2,1,-1,0,-1,0
1512364160126357,0,-1,-2,0,-1,-1,-1,-1
1512364160126357,-1,-1,-1,-1,-1,0,-2,-1
1512364160147369,-1,-2,1,0,-1,-1,-1,2
1512364160147369,-2,-1,-1,-2,-2,-1,-3,-1
1512364160148871,-3,-3,1,-3,-2,-1,-1,-2
1512364160148871,-1,-1,-1,-1,-1,-1,0,0
1512364160161394,-1,-1,0,0,-1,-3,0,-1
1512364160161394,-2,-1,-2,-3,-2,-1,-1,-2
1512364160169875,-1,0,-2,0,-4,0,-1,-1
1512364160169875,-2,-1,0,-2,-1,0,0,-1
1512364160184886,0,1,-3,0,0,-1,-1,-1
1512364160184886,0,-2,-2,-1,-1,-3,-2,-1
1512364160186387,0,1,-4,0,1,-3,1,-2
1512364160186387,0,0,0,-1,-1,-2,-1,1
1512364160207402,-1,-2,-2,1,-2,1,-2,-1
1512364160207402,-1,-1,-3,-2,1,-1,-2,0
1512364160209904,-2,-3,-1,0,-1,0,-2,-1
1512364160209904,-2,-2,-1,-1,-3,-2,-1,2
1512364160220911,-2,-2,0,-1,1,-2,0,-2
1512364160220911,-2,-1,0,-1,-1,-2,2,-2
1512364160229917,-1,-1,0,-2,-2,1,-3,-2
1512364160229917,-1,-1,-2,1,0,-1,-3,-2
1512364160244428,0,-1,-1,0,-3,0,-1,-1
1512364160244428,2,-2,1,1,0,1,-1,-2
1512364160246432,0,0,-1,-1,0,-1,1,-1
1512364160246432,-1,0,-4,-2,-1,-1,-4,-3
1512364160267445,-2,0,-2,-4,-2,0,-2,0
1512364160267445,-3,-1,-2,0,-1,-1,-4,0
1512364160268947,-1,-2,-3,1,0,-2,-1,-3
1512364160268947,1,0,-3,-2,0,0,-2,-3
1512364160280953,0,-1,-2,-1,1,-1,-1,-1
1512364160280953,-2,-1,1,-1,-1,0,0,-1
1512364160289960,-1,0,-1,-3,-1,-1,-2,1
1512364160289960,-1,0,1,-1,-1,0,0,-1
1512364160305471,-1,-2,1,-1,-2,0,-1,-2
1512364160305471,2,-1,0,1,-1,1,-1,-1
1512364160306972,-1,-1,1,1,1,0,-2,0
1512364160306972,-1,-3,0,-1,-1,-1,0,-1
1512364160326987,-1,-2,-1,0,-2,0,-2,0
1512364160326987,-1,0,-3,0,-3,-1,-2,-1
1512364160329010,-2,0,-3,-1,0,-1,-1,-2
1512364160329010,0,1,-2,-1,-1,-1,0,-1
1512364160341012,-1,-1,-1,-2,0,0,0,-2
1512364160341012,0,-1,-1,-1,-2,0,-2,0
1512364160350003,0,0,0,-1,-2,0,-2,-2
1512364160350003,0,-2,1,-1,-1,0,-2,0
1512364160364540,0,1,0,-2,-1,-2,1,-1
1512364160364540,-1,-1,0,-2,-1,-3,1,-2
1512364160366544,0,-1,0,-1,-1,-2,0,-2
1512364160366544,0,-3,-1,0,0,-4,-2,-1
1512364160387044,-2,0,-3,-2,-2,0,-4,-2
1512364160387044,-2,0,-2,-2,-1,0,-2,0
1512364160388536,-2,1,-3,-2,0,-2,-1,0
1512364160388536,-2,-2,-3,-1,-1,1,-1,-2
1512364160409545,-1,-2,-1,1,0,-2,2,-1
1512364160409545,-1,-1,-1,-1,1,1,1,-3
1512364160411052,-2,-2,0,-2,-2,-1,0,1
1512364160411052,-2,2,1,0,-2,0,-1,-1
1512364160424065,-2,0,-3,-1,-1,-1,-3,-1
1512364160424065,-1,-2,-4,-2,-2,-1,-1,0
1512364160430559,0,-1,-2,-3,0,0,-2,0
1512364160430559,-1,-1,0,-1,-2,-1,-1,0
1512364160447072,-1,0,3,-1,0,-3,-1,-1
1512364160447072,-2,0,1,-1,0,-3,0,-1
1512364160448572,-1,-3,-1,-2,0,0,0,-2
1512364160448572,0,-3,-2,-2,-1,-2,1,-1
1512364160469587,-1,-4,-1,-2,-1,-1,0,-2
1512364160469587,1,-2,-2,0,0,-1,-1,-2
1512364160471088,2,-4,-2,0,-2,-2,0,-1
1512364160471088,0,-2,-2,1,0,-3,-3,1
1512364160484598,1,1,-2,0,0,-1,-2,0
1512364160484598,-3,0,-1,-3,-3,-1,1,2
1512364160486098,-3,-1,-2,-1,0,0,-1,0
1512364160486098,-1,0,1,-1,0,1,0,0
1512364160507113,-2,0,1,0,-1,-2,-4,-1
1512364160507113,-1,-1,2,0,-1,-1,-2,-1
1512364160508621,-1,1,0,0,-1,-4,-1,0
1512364160508621,-1,0,-4,0,-1,-1,0,-1
1512364160529629,-1,-1,-2,-2,-1,0,0,1
1512364160529629,-1,-1,-1,0,-1,-2,-1,0
1512364160531130,0,-2,1,1,-1,-1,0,-3
1512364160531130,-1,-2,2,-1,-1,-1,-1,-1
1512364160544640,0,0,-1,-1,-1,-1,-3,-3
1512364160544640,-1,-3,-4,-1,-1,0,-2,-2
1512364160546141,-1,-1,-1,0,-1,0,0,-1
1512364160546141,-1,-1,-2,-3,-2,-1,-1,-3
1512364160567156,-3,-2,-3,-1,-1,-2,3,-2
1512364160567156,-2,0,0,-2,-1,0,-3,-1
1512364160568656,-1,0,-2,-2,-1,0,-3,0
1512364160568656,-3,-1,-1,-1,0,1,-1,0
1512364160589673,-1,-4,0,-3,-1,-2,-2,0
1512364160589673,1,-1,1,0,-3,-1,-2,0
1512364160592176,0,-2,-3,-2,-3,-1,-1,-1
1512364160592176,1,-2,-2,-1,-1,-2,-2,-2
1512364160604182,-2,0,-3,-1,0,0,0,-3
1512364160604182,-1,0,-1,-2,0,-1,0,-1
1512364160610687,-3,0,0,1,-3,0,-1,-1
1512364160610687,-1,-1,-3,-2,-2,-3,-2,0
1512364160627700,0,0,-2,1,-1,-2,-1,0
1512364160627700,-1,-1,1,-3,0,-2,-2,-2
1512364160629199,0,-2,1,-2,0,-2,-2,0
1512364160629199,-4,-2,0,-2,-1,-1,-2,0
1512364160649714,0,-2,-1,-1,0,0,0,0
1512364160649714,0,-2,-3,0,-2,-2,0,-1
1512364160651215,-1,0,-3,-1,-1,0,1,-3
1512364160651215,0,0,-1,0,0,0,2,-3
1512364160664231,1,-3,-2,-2,-2,-1,-1,-1
1512364160664231,-1,-1,-1,-1,0,-1,-1,-2
1512364160670729,0,-2,0,-2,-2,-4,-2,-1
1512364160670729,-2,-1,-1,0,-2,-1,0,-1
1512364160687241,-3,1,0,0,-2,1,-2,0
1512364160687241,0,-1,-3,0,-1,-1,2,-2
1512364160688742,-3,0,0,-1,-1,0,-2,0
1512364160688742,1,0,0,0,-2,-2,-3,-1
1512364160709803,-1,0,0,-1,-1,-1,-2,0
1512364160709803,0,-1,-1,-2,-1,-1,-1,-1
1512364160711304,-1,-2,-3,0,0,-1,0,-3
1512364160711304,0,-1,-2,-1,0,-1,-2,0
1512364160723814,-2,-2,2,-1,1,-2,-4,2
1512364160723814,-2,-2,-1,-1,0,-2,-3,-1
1512364160730819,0,-2,-1,2,-1,-2,-2,1
1512364160730819,-3,-2,-1,0,0,-1,-1,-1
1512364160747323,-1,-1,0,-1,-1,0,-1,-4
1512364160747323,-1,-2,1,-1,0,-1,1,0
1512364160748835,0,-2,-1,0,-2,-2,-1,0
1512364160748835,-2,1,0,1,0,0,1,-2
1512364160769842,-1,1,-2,0,1,-2,0,-3
1512364160769842,-1,-1,-2,-2,0,-2,0,-1
1512364160771336,0,0,-3,-2,-1,-1,-2,1
1512364160771336,1,-1,-2,-2,-1,-2,0,1
1512364160784350,0,-1,0,-2,-1,-2,1,-4
1512364160784350,-1,-2,-2,-1,-1,-1,-2,-2
1512364160790853,-1,-1,-2,-1,0,-1,0,0
1512364160790853,-1,0,0,-2,0,0,0,0
1512364160807372,-2,-2,-1,-1,-2,-1,2,-1
1512364160807372,-1,-1,-3,-1,-2,-2,0,1
1512364160808875,-1,0,-2,-1,-2,0,-1,-2
1512364160808875,0,1,-4,1,-1,-1,1,-1
1512364160829880,0,-2,-2,-2,-2,1,0,-1
1512364160829880,1,-1,0,-1,-2,-1,0,-2
1512364160831379,-2,-2,-1,-1,-3,-1,-2,-2
1512364160831379,1,-1,-2,-2,-1,-1,-4,0
1512364160843891,-2,0,-2,1,-2,-1,-1,0
1512364160843891,-3,-2,-1,0,0,-2,0,-1
1512364160850894,-1,0,-1,-1,1,-2,0,-2
1512364160850894,-2,-2,-1,-2,0,0,0,-2
1512364160866904,0,-1,-3,0,0,0,-3,2
1512364160866904,-1,-1,-1,-2,-1,1,-1,2
1512364160868905,-3,-1,-2,0,-2,0,-1,0
1512364160868905,-3,-2,-2,-1,-3,-2,-3,0
1512364160889939,0,-3,1,0,-1,0,1,-1
1512364160889939,-2,-2,0,-2,-1,-1,-2,-1
1512364160891422,0,0,0,-1,-1,-1,1,-3
1512364160891422,-1,-1,1,-1,-1,0,-1,-1
1512364160903442,-1,0,0,-2,-1,-2,-1,-1
1512364160903442,0,-1,-3,-1,-1,-1,-1,-2
1512364160912436,-1,1,-2,-2,-1,-1,-3,1
1512364160912436,1,-1,2,-1,-1,0,-1,-2
1512364160934453,-2,0,-1,0,-1,0,-3,-2
1512364160934453,0,0,0,0,0,0,-2,-2
1512364160936455,1,-1,-2,-2,-1,0,2,-3
1512364160936455,0,-2,-1,-1,0,-2,0,1
1512364160956981,-1,0,-2,1,-1,-3,-1,0
1512364160956981,0,0,-2,-1,-1,1,0,0
1512364160958982,-2,-3,-2,0,0,-1,-3,-1
1512364160958982,0,-4,0,0,-1,0,-2,-1
1512364160971988,0,-3,-1,-1,0,-1,-1,-2
1512364160971988,-2,-1,-1,-3,-1,-2,-2,-1
1512364160974008,-2,-2,-2,-1,-2,1,-2,0
1512364160974008,-2,-1,-2,-1,-2,0,-2,-1
1512364160986998,0,-2,-2,0,-1,-2,-1,-1
1512364160986998,-1,-2,-2,0,0,-2,1,-2
1512364160988490,-2,-3,-2,0,1,-1,1,0
1512364160988490,0,1,-1,-2,1,-3,-1,-2
1512364161009506,-1,0,0,-1,-1,-1,-2,-2
1512364161009506,0,0,-1,-3,-1,-2,-2,-2
1512364161011007,0,-3,-2,-2,0,-3,-3,-1
1512364161011007,-2,-2,-3,-1,-3,0,-1,-2
1512364161023026,-2,1,-1,-2,-1,-1,0,-1
1512364161023026,0,1,0,1,-1,1,-1,1
1512364161033541,0,1,2,-2,-2,-1,0,-1
1512364161033541,-1,0,1,-1,-2,-1,-2,1
1512364161047049,0,-2,-1,-3,-2,0,1,0
1512364161047049,-2,-3,-1,1,-2,-1,0,-1
1512364161048533,-1,-2,1,-2,0,1,0,0
1512364161048533,-1,-3,-2,-1,1,-1,1,-2
1512364161069557,-2,-1,-3,0,-1,-1,-2,-2
1512364161069557,-1,0,-1,-1,-3,0,-3,0
1512364161071048,0,-1,-2,-2,0,-2,-2,-1
1512364161071048,-2,-1,-2,-2,-1,-1,0,-1
1512364161083557,-1,-1,-2,0,-2,-1,-3,-1
1512364161083557,-1,-1,0,-2,0,-2,-1,-1
1512364161093079,-1,1,0,0,-1,1,-3,-2
1512364161093079,-1,-1,1,0,-2,0,-3,0
1512364161107073,0,-2,-1,0,-1,0,-3,-1
1512364161107073,-1,-3,-2,-2,-2,-1,-2,-1
1512364161108575,-1,-1,-1,-2,-2,-2,2,-2
1512364161108575,-3,0,-3,-1,-1,-3,0,-1
1512364161129596,-1,-2,-2,-1,-2,-3,2,-1
1512364161129596,0,-2,-2,-2,0,-2,2,-1
1512364161131091,-2,-3,-1,-1,-1,0,1,-1
1512364161131091,0,-3,0,0,0,1,1,-2
1512364161143111,-1,0,-1,-1,-1,-1,-2,1
1512364161143111,-1,-1,0,0,-1,-2,0,-3
1512364161152106,-3,-1,-3,0,0,-2,-1,0
1512364161152106,-1,-2,-1,0,-1,-1,-2,-1
1512364161167627,-2,-2,-1,-2,1,-2,-1,1
1512364161167627,-1,-2,-1,-2,-2,-1,-1,-2
1512364161168627,-1,-2,-2,2,-2,-3,-1,-1
1512364161168627,-1,0,-1,-1,-1,-2,-4,-2
1512364161189631,0,-2,0,-2,0,-1,-1,-4
1512364161189631,-1,0,0,0,0,-1,-1,0
1512364161192133,-2,1,1,-2,-2,-2,-1,-2
1512364161192133,-2,-2,-1,0,-2,0,0,-1
1512364161203153,0,-2,1,-2,-1,-1,0,-1
1512364161203153,-1,0,-3,0,-2,-2,-2,0
1512364161212147,1,-1,-3,-2,-2,-3,0,-2
1512364161212147,0,-1,-2,-1,-1,-1,-1,0
1512364161227158,-2,0,-2,-1,0,-3,-4,-2
1512364161227158,-1,-2,-2,-1,-1,0,-2,0
1512364161228659,-1,0,-1,-1,-2,-1,-1,-1
1512364161228659,-1,3,-1,-1,-2,-1,-3,-2
1512364161249674,-2,-1,-4,-1,0,1,2,0
1512364161249674,-1,-1,0,-2,-1,0,0,0
1512364161251175,1,-1,-1,-2,-1,-2,0,0
1512364161251175,-1,-2,-1,-2,0,-1,2,0
1512364161263183,0,0,0,-2,-3,0,0,-1
1512364161263183,-2,-2,-1,-1,-1,-2,0,0
1512364161272190,0,-1,0,-2,-1,-1,-3,-1
1512364161272190,-1,-3,1,-1,-1,-2,0,-1
1512364161287213,0,-2,-1,0,-1,-3,-2,-1
1512364161287213,-1,0,-3,-1,-1,-1,-1,-1
1512364161288714,-1,-1,-2,0,0,-1,-2,-1
1512364161288714,0,-2,-2,-2,-1,-2,-1,-1
1512364161309716,-2,0,1,0,-3,-1,-1,-1
1512364161309716,1,0,0,0,-1,0,1,-2
1512364161311217,0,0,-1,-1,-3,-2,-1,-2
1512364161311217,-1,0,-4,-2,0,-1,-1,-1
1512364161323289,-2,-1,-1,0,1,-2,-1,0
1512364161323289,-1,-3,1,0,1,-1,-5,0
1512364161333301,-2,-1,-1,1,0,0,0,-1
1512364161333301,0,0,1,-2,-2,-2,1,-1
1512364161347309,-2,-3,-1,-2,-1,0,0,-3
1512364161347309,-2,-2,-3,-2,-1,-1,-1,0
1512364161348826,0,1,1,-1,-2,1,-1,-1
1512364161348826,-1,-3,-3,-1,-2,0,-3,2
1512364161369822,-1,0,-3,0,-1,-1,-2,0
1512364161369822,-2,-2,0,0,-2,-3,0,-2
1512364161371322,-2,-1,-3,-1,-1,-2,-1,0
1512364161371322,-1,-2,-1,0,-1,-2,-2,0
1512364161392329,0,-1,-1,0,-1,-1,-3,0
1512364161392329,0,-4,0,-1,-3,-1,0,-2
1512364161393835,-2,-1,0,-1,0,0,0,-4
1512364161393835,-3,0,1,0,0,-1,-1,-1
1512364161407337,-2,0,1,1,-2,0,0,0
1512364161407337,-3,0,1,0,0,-1,1,-2
1512364161408838,-3,-1,-1,0,0,-1,0,-1
1512364161408838,-3,1,-1,-1,0,0,-1,-1
1512364161429864,0,-2,-3,-1,-1,-1,-3,-2
1512364161429864,1,0,-2,-2,-2,0,-3,0
1512364161431373,-1,1,0,-1,-1,-2,-1,1
1512364161431373,-1,-2,-1,2,-2,0,-1,-2
1512364161452368,0,-1,1,-4,-1,-1,0,0
1512364161452368,-1,-3,0,0,-2,-1,0,-2
1512364161453870,0,-3,0,-1,-1,1,0,-3
1512364161453870,-2,-1,-2,-2,-1,-2,1,-5
1512364161467379,0,1,-3,-1,-1,-1,-1,-3
1512364161467379,-2,0,-4,-2,-1,-1,-1,0
1512364161468890,-1,-3,-3,-3,0,-1,-3,0
1512364161468890,-1,-2,-2,-1,0,-1,-1,0
1512364161489395,-1,-3,-2,-1,-1,-1,-3,-1
1512364161489395,-2,1,1,-1,1,0,0,-1
1512364161492415,-1,0,0,1,-3,-1,1,1
1512364161492415,0,-1,-1,-1,-2,-2,-3,0
1512364161511923,-1,1,-2,-1,0,-1,-1,-1
1512364161511923,-1,-1,-1,-1,-1,-1,0,0
1512364161513924,-1,0,-1,-2,0,-2,-1,-1
1512364161513924,1,-1,-1,-1,0,-1,3,-1
1512364161526430,-1,0,0,-1,0,-1,-1,1
1512364161526430,-1,-1,-2,-1,-2,1,-1,-1
1512364161533440,-1,-3,-3,-1,-1,0,-2,-1
1512364161533440,0,-2,-2,-2,0,-1,-2,1
1512364161549437,-1,-3,0,0,-2,-1,1,0
1512364161549437,0,-3,-3,1,-1,-3,-1,-2
1512364161551442,0,1,-1,-2,-2,-2,-1,-3
1512364161551442,-1,1,-2,0,-2,-1,-3,-3
1512364161579461,0,-3,-2,0,0,-1,-1,-3
1512364161579461,-1,-2,-1,-1,0,-2,-3,-1
1512364161581463,-2,-2,-1,-2,0,-2,1,0
1512364161581463,-1,-2,0,-1,-1,-3,-1,1
1512364161586463,-3,-1,1,-4,-1,0,2,1
1512364161586463,2,-1,0,-3,-2,-2,1,0
1512364161593493,-1,-2,1,-2,1,1,1,-1
1512364161593493,-1,-1,-1,-2,-2,-2,-2,-1
1512364161609505,-2,1,1,-1,0,-1,-3,-1
1512364161609505,1,-2,-1,0,-2,0,-1,0
1512364161611505,0,0,-2,-1,-1,-2,-4,-3
1512364161611505,0,-1,-2,0,0,-1,0,-1
1512364161631897,-1,-1,-2,1,-2,-1,-3,-3
1512364161631897,-3,1,-2,-1,0,-1,-4,-1
1512364161633888,-3,-4,0,0,-1,-2,1,0
1512364161633888,-2,0,0,-1,0,-2,0,0
1512364161646405,-1,-1,-1,0,0,-2,1,0
1512364161646405,0,-1,-1,-1,0,-2,-1,-2
1512364161653402,0,-1,-1,0,-1,0,-1,0
1512364161653402,0,-2,0,-1,0,0,-2,-1
1512364161669422,1,-2,-2,0,0,0,-1,-1
1512364161669422,0,0,-2,0,0,0,0,-1
1512364161671423,-2,0,-1,0,-2,-2,1,-1
1512364161671423,-2,0,-1,-2,-2,0,1,-3
1512364161692929,-1,-1,-1,-3,0,-3,-1,-2
1512364161692929,-2,-2,-1,-2,0,-3,-4,-1
1512364161694445,-1,0,-1,-1,-1,-2,-2,0
1512364161694445,-3,-1,-1,-1,-1,-1,1,-1
1512364161706438,-3,-1,-3,-1,1,-3,2,-4
1512364161706438,-2,0,-1,-2,-1,0,-1,-2
1512364161713443,-1,-2,-2,-2,-2,0,-2,-1
1512364161713443,0,0,1,0,-3,-1,-1,1
1512364161729454,0,-1,-2,-2,0,0,-1,1
1512364161729454,1,-1,-1,-1,-1,0,2,0
1512364161731957,1,0,-1,0,-1,0,0,0
1512364161731957,-4,0,0,-1,1,-1,-1,-1
1512364161751471,-1,1,1,0,-3,0,-1,-2
1512364161751471,-2,-1,-2,0,-1,-1,0,-1
1512364161752471,-1,-1,-1,-2,-1,-2,-1,-2
1512364161752471,-1,-3,-3,0,-3,-1,-3,-1
1512364161765980,1,-1,-1,-1,0,-1,-3,0
1512364161765980,-1,-2,-1,-1,0,-1,-4,-1
1512364161773986,0,-3,0,0,-1,-1,-4,0
1512364161773986,-2,-2,-2,-1,-2,-1,-2,-1
1512364161789009,0,0,-2,-1,-2,0,1,-1
1512364161789009,-1,1,-3,-1,0,0,1,-1
1512364161789497,1,-1,-2,-3,-1,-1,1,-2
1512364161789497,-2,-1,-3,-1,2,-1,-1,-2
1512364161811512,1,-3,-4,-1,-2,0,-1,-2
1512364161811512,-1,-1,-2,-1,-1,-2,1,0
1512364161812013,-2,-1,-2,-2,-1,-1,1,0
1512364161812013,0,-1,2,-2,-1,-1,2,0
1512364161825522,-3,-3,0,0,-2,-1,-2,0
1512364161825522,-2,0,0,0,-2,-1,-1,-1
1512364161834028,-3,-2,-1,0,-1,-2,-2,-2
1512364161834028,-1,-1,-1,-3,-1,0,-2,1
1512364161849039,0,-1,1,-3,-1,-1,-2,0
1512364161849039,0,-2,1,-1,-1,-1,-1,-1
1512364161849540,-2,-1,-1,0,-2,0,-3,0
1512364161849540,-1,0,-3,0,-1,-2,-1,-1
1512364161871555,-1,-2,-2,-1,1,-2,0,-2
1512364161871555,1,-4,-3,0,-1,-1,-2,0
1512364161872056,-3,-1,1,-2,-2,1,1,-3
1512364161872056,0,-1,-3,-2,-1,0,-2,0
1512364161886066,-2,0,0,-2,-1,-1,-1,-1
1512364161886066,-1,2,-1,-3,-1,0,1,-1
1512364161894070,-1,1,-1,-2,0,-1,-1,0
1512364161894070,-2,0,1,-1,0,0,-1,-1
1512364161909082,-1,-3,-1,-2,-3,-2,0,0
1512364161909082,-1,-3,-1,-1,-2,-1,-1,0
1512364161909582,2,3,1,2,0,-1,-1,1
1512364161909582,0,0,-3,-2,-1,0,-1,-2
1512364161939605,-1,-1,-3,-1,-3,0,-2,1
1512364161939605,-2,-1,-3,1,0,0,-4,-3
1512364161940604,1,-1,-3,0,-1,0,1,-1
1512364161940604,-5,-1,0,1,-1,-3,-2,-3
1512364161945622,-2,-1,0,-2,0,-1,-1,-1
1512364161945622,0,-4,0,-2,-1,-1,0,1
1512364161954113,-4,-3,-1,-3,0,-1,-1,-2
1512364161954113,1,-2,-2,0,0,-1,-1,-2
1512364161969124,-1,4,0,2,-2,0,-1,-1
1512364161969124,1,3,7,-1,1,0,0,3
1512364161969624,1,-2,-1,-3,0,-2,-1,1
1512364161969624,1,7,2,0,-1,-1,3,1
1512364161991640,-1,-2,-2,-2,1,-1,0,-2
1512364161991640,-9,0,2,-1,-2,-2,-1,-6
1512364161992141,-1,1,-3,-2,-1,-1,-2,-3
1512364161992141,4,-3,-4,-4,-2,-1,1,-1
1512364162005650,0,-5,4,1,0,1,-2,-1
1512364162005650,1,0,-13,-9,-1,-1,-4,-1
1512364162014668,1,-5,-7,-4,-4,-1,-1,-2
1512364162014668,2,1,2,2,-2,-1,-4,1
1512364162028686,-1,-3,1,1,0,-2,0,-1
1512364162028686,-8,-2,4,0,-2,-3,-3,-2
1512364162029678,-5,-3,6,2,1,1,-1,3
1512364162029678,2,0,-12,0,-2,-1,-2,0
1512364162051692,1,4,19,1,-2,-1,-1,-1
1512364162051692,3,-6,-1,-1,1,-1,-3,-1
1512364162052196,-4,4,2,-1,-2,-1,-3,-5
1512364162052196,1,10,-9,-1,0,0,-1,-5
1512364162065712,-5,6,-1,0,-1,-1,1,5
1512364162065712,4,-7,1,-1,-2,-1,2,1
1512364162073717,1,6,-4,-2,-1,-3,-2,1
1512364162073717,6,-19,-1,-2,-1,-3,-4,-4
1512364162088728,-4,-2,-11,-1,-1,0,3,2
1512364162088728,15,2,-4,-1,-3,-1,-3,-5
1512364162089720,-5,9,5,1,-1,-2,-3,-5
1512364162089720,-5,-24,4,1,0,1,-1,3
1512364162111247,3,0,-18,-10,-1,-2,-3,-3
1512364162111247,-5,-3,8,0,-3,-2,0,1
1512364162112248,2,3,-9,0,-1,-1,-1,-1
1512364162112248,-2,3,11,-2,-3,-1,2,-5
1512364162125760,4,-7,-1,2,0,1,3,7
1512364162125760,-7,1,-1,1,-2,2,-1,-3
1512364162133752,4,17,4,0,-3,0,2,0
1512364162133752,-11,-4,-5,-6,1,-2,1,-1
1512364162148762,0,-2,-1,-1,-1,-3,-4,-4
1512364162148762,5,8,-9,2,-1,-2,-2,-1
1512364162149763,-3,-16,-2,-7,-3,0,-3,-1
1512364162149763,-10,-8,-1,2,1,1,-3,-1
1512364162171286,-1,-3,-2,-1,-1,0,-2,-1
1512364162171286,-6,-5,6,-1,-3,-1,-4,-2
1512364162172288,6,5,-6,1,-1,-2,-1,-1
1512364162172288,-9,3,-2,-4,-2,0,-2,5
1512364162185790,-9,-5,-3,-4,-3,-2,-2,-5
1512364162185790,-4,2,-2,4,4,3,4,3
1512364162193796,6,-1,-5,-4,-4,0,-2,-1
1512364162193796,-3,2,9,2,1,-1,-1,-1
1512364162209847,-5,-6,-5,-1,-2,-3,-5,-5
1512364162209847,1,8,-1,-2,-2,-2,-1,1
1512364162210337,-22,-31,-4,1,4,1,-1,-8
1512364162210337,22,17,0,0,1,0,3,7
1512364162231355,4,-2,-3,-2,0,-2,1,-3
1512364162231355,-10,7,-2,-1,-4,-2,0,-5
1512364162232365,6,-3,-4,-1,-1,-3,-1,0
1512364162232365,-5,-1,1,1,0,1,1,-3
1512364162245875,1,-3,1,1,-2,-3,-1,1
1512364162245875,-1,-6,-7,-5,-2,-1,-2,-1
1512364162253868,0,0,-3,1,-1,1,-2,2
1512364162253868,1,14,6,1,-2,-2,-3,-3
1512364162268882,2,-7,11,1,4,3,1,3
1512364162268882,-6,-49,-28,-9,-3,-3,-5,-7
1512364162269879,6,26,4,0,-1,0,1,9
1512364162269879,5,-10,-5,-2,-2,-1,-7,-12
1512364162291406,17,20,0,-4,-2,-1,-2,-3
1512364162291406,-8,5,5,1,1,0,1,-1
1512364162291896,0,-20,-3,-2,1,0,0,0
1512364162291896,-4,17,-1,-3,-2,0,1,1
1512364162314968,20,25,1,3,-1,0,0,3
1512364162314968,2,-8,4,0,-2,-1,0,2
1512364162315412,-9,-3,1,-2,-3,-4,-3,-8
1512364162315412,0,2,-1,-1,-1,-3,2,4
1512364162328921,-9,0,-4,-2,0,-3,-2,-5
1512364162328921,-1,-19,2,0,2,1,0,1
1512364162329423,-1,16,6,3,0,-1,4,4
1512364162329423,-5,-25,-6,-2,-2,-2,-7,-13
1512364162351942,1,12,2,1,1,3,7,9
1512364162351942,9,-3,-6,0,-2,-3,-3,-5
1512364162351942,-8,-16,-8,-3,1,0,-4,-6
1512364162351942,14,12,-3,-4,-4,-4,-4,3
1512364162374453,-16,-29,-1,0,-1,0,-1,1
1512364162374453,5,24,-2,-4,-2,0,-3,-1
1512364162375454,-2,-19,3,1,-4,-3,10,2
1512364162375454,-4,27,-2,-3,-1,-2,-3,0
1512364162388963,-9,-25,-8,-6,-3,-3,-4,-7
1512364162388963,5,15,7,3,2,-1,-4,2
1512364162389964,-1,-3,-2,1,0,1,-4,-3
1512364162389964,-6,-19,-4,-1,-1,-1,-3,-4
1512364162411479,0,13,11,3,-1,0,1,-1
1512364162411479,-24,-6,-5,-4,-1,2,2,1
1512364162412480,4,-7,-5,-2,-3,-2,-6,-6
1512364162412480,-14,-10,2,1,2,0,2,4
1512364162434997,0,9,1,0,-3,0,-1,-2
1512364162434997,7,22,3,-2,-2,-2,-1,-1
1512364162435501,1,-23,2,0,1,0,0,2
1512364162435501,3,9,-2,0,-1,1,0,2
1512364162449007,1,-9,-8,-2,-1,-2,0,-3
1512364162449007,5,13,3,0,0,-2,1,-3
1512364162449506,-2,-6,-6,-2,1,1,0,1
1512364162449506,2,5,2,1,0,-1,3,2
1512364162471522,-5,-9,-6,-2,-1,-5,-5,-4
1512364162471522,0,18,13,4,0,1,-1,-2
1512364162472022,15,11,-8,-6,-3,-2,-7,3
1512364162472022,-12,-18,8,7,4,2,-3,-2
1512364162495539,-1,0,-17,-11,-7,-3,-2,2
1512364162495539,-6,-12,-5,2,1,2,1,2
1512364162496039,-9,1,9,-3,-4,-3,-4,-3
1512364162496039,5,-8,-3,-3,-2,0,-3,-1
1512364162509048,-16,-7,6,3,0,-1,5,-5
1512364162509048,-5,7,0,3,-1,-2,-9,-1
1512364162509549,1,-2,-3,-2,-1,-2,-3,-3
1512364162509549,-2,0,-1,-2,-2,-2,0,2
1512364162531564,-1,13,5,-3,0,1,-3,13
1512364162531564,8,-36,-13,-8,-4,-5,3,-25
1512364162532064,-4,7,0,5,0,0,-3,-1
1512364162532064,-5,-1,-8,-4,-2,-3,-1,-7
1512364162554590,3,11,-5,0,-2,0,1,3
1512364162554590,9,-14,-3,-2,-1,0,3,7
1512364162555581,-3,40,10,1,0,-1,-2,2
1512364162555581,-7,-6,-2,-2,0,0,-10,-28
1512364162569092,0,-6,-2,1,-1,-3,9,9
1512364162569092,2,7,0,-2,-2,-1,10,14
1512364162569592,-5,-33,-5,0,0,1,-16,8
1512364162569592,1,-3,-1,4,-3,-3,14,-8
1512364162591622,-5,17,1,-2,1,0,-15,-6
1512364162591622,-6,-29,8,-8,-2,0,-5,8
1512364162592108,0,0,-3,0,-1,0,7,-18
1512364162592108,5,3,-4,-5,0,2,2,12
1512364162614637,3,2,3,4,0,-4,-7,-14
1512364162614637,-2,-3,0,-1,-2,-1,18,21
1512364162615133,3,-8,0,-2,-1,3,-16,28
1512364162615133,3,33,11,2,2,0,35,-41
1512364162628636,-2,-6,-2,-2,0,-5,-44,-6
1512364162628636,-11,13,4,2,-1,0,-19,-8
1512364162629633,2,-6,-4,0,0,-3,6,2
1512364162629633,0,-8,-8,-6,-2,2,0,18
1512364162651653,-4,-25,-6,-3,-4,-2,8,-3
1512364162651653,8,13,1,1,1,0,7,0
1512364162652153,1,3,2,5,-3,-1,-15,-11
1512364162652153,0,-16,-6,-1,5,-1,-11,14
1512364162674665,2,-14,-2,-1,0,-2,10,6
1512364162674665,0,-6,-8,-2,1,3,-6,-5
1512364162675165,0,5,6,1,-1,-1,15,0
1512364162675165,-3,5,0,-4,-3,-3,-18,7
1512364162688687,6,14,4,-1,-1,2,-1,5
1512364162688687,-14,-7,16,2,0,-1,2,-2
1512364162689693,-3,5,-12,-6,-2,-2,4,-8
1512364162689693,-2,-5,-1,2,-1,-2,-2,8
1512364162711191,2,-4,-3,1,1,3,7,-7
1512364162711191,2,11,-8,-3,-4,-2,-3,-1
1512364162712201,-1,8,7,3,1,-1,10,-2
1512364162712201,3,-22,5,3,-1,0,3,24
1512364162734719,-3,-17,-28,-11,-3,-3,-1,-8
1512364162734719,-7,46,17,2,-2,-4,-12,-44
1512364162735209,3,14,-4,-5,1,3,1,-1
1512364162735209,-6,-49,-11,-1,-3,-1,15,-3
1512364162748730,2,10,15,2,-1,1,3,-1
1512364162748730,2,10,13,9,6,0,2,15
1512364162749719,-13,-44,-21,-7,-3,-3,-12,-17
1512364162749719,2,-2,-29,-7,-2,5,0,25
1512364162771233,-9,-4,-2,-5,-5,-5,19,-2
1512364162771233,1,-15,12,4,-1,-2,-15,-27
1512364162772234,-6,18,10,6,1,0,30,16
1512364162772234,7,28,31,7,-1,-2,-33,-27
1512364162794751,-21,-39,-45,-9,-1,-3,27,29
1512364162794751,29,-10,-32,-6,0,0,-29,-12
1512364162795251,-31,1,15,1,-2,-4,8,-13
1512364162795251,9,14,-8,-10,-7,-6,-6,5
1512364162808759,7,26,38,12,5,6,14,10
1512364162808759,-5,8,7,3,3,4,4,27
1512364162809760,1,-44,10,-6,-5,-6,7,-6
1512364162809760,2,59,4,2,3,0,7,-11
1512364162831276,-29,1,-8,-6,-5,-7,-21,-14
1512364162831276,-6,-43,-16,-9,-3,0,0,8
1512364162832276,19,30,14,11,4,4,-17,6
1512364162832276,27,21,28,-1,-4,-3,19,8
1512364162854804,5,-12,-28,1,3,5,13,24
1512364162854804,3,4,-13,-2,0,2,16,23
1512364162855794,6,7,-15,-8,-7,-6,12,-50
1512364162855794,-39,-44,11,2,-1,-3,-16,-8
1512364162868803,2,37,12,-4,-1,0,6,5
1512364162868803,-2,-3,-27,-6,-5,-9,-54,-17
1512364162869803,-5,-10,-7,-7,-4,-2,-7,6
1512364162869803,12,18,8,2,-1,0,-7,-7
1512364162891318,-10,-2,2,0,-3,-1,-8,-7
1512364162891318,1,11,-16,-9,-2,-2,23,18
1512364162892319,-6,13,24,4,-1,-2,-12,0
1512364162892319,-10,-40,-55,-11,-2,-1,25,50
1512364162914835,10,28,52,3,1,-4,-20,-34
1512364162914835,-2,-11,-49,-5,-5,-4,-24,-77
1512364162915835,-21,-3,-6,-8,1,-1,-14,11
1512364162915835,15,16,-1,3,4,9,16,20
1512364162928344,7,-15,33,15,6,10,14,3
1512364162928344,-19,-9,-24,-9,-3,-2,1,-12
1512364162936350,19,12,2,5,0,0,-18,25
1512364162936350,-24,-52,-17,-4,-3,-5,3,-14
1512364162951361,15,70,10,5,0,-3,-22,-54
1512364162951361,-8,-23,-8,-6,-5,-5,-14,-16
1512364162952362,8,-11,7,2,1,2,49,27
1512364162952362,2,-10,8,-2,-4,-4,-35,-21
1512364162981883,2,-42,-19,0,-1,-5,-10,-5
1512364162981883,-9,30,-6,0,1,2,6,23
1512364162982883,4,3,-5,-5,-3,-1,4,-1
1512364162982883,-12,5,-23,3,-1,-2,9,-23
1512364162998941,-8,-39,3,-2,-6,-5,-2,16
1512364162998941,-3,-11,20,0,-1,-2,-1,-13
1512364162999937,-17,-33,-14,-12,-7,-8,-17,26
1512364162999937,49,29,22,1,0,0,3,6
1512364163011475,1,-26,-11,4,1,-2,-8,14
1512364163011475,6,4,35,1,1,-1,12,3
1512364163012448,-8,51,45,12,3,0,-4,17
1512364163012448,-6,-52,-55,-16,-3,-3,-16,-33
1512364163034452,2,-14,-62,-23,-12,-6,0,-8
1512364163034452,9,28,51,19,6,3,20,40
1512364163035453,19,-15,-59,-6,-1,-2,-28,-33
1512364163035453,-20,15,32,-1,1,1,3,26
1512364163048461,-8,-8,32,11,-1,-3,-12,-43
1512364163048461,-15,-20,10,-2,1,3,10,35
1512364163056467,21,13,-11,13,3,-1,6,-66
1512364163056467,11,25,45,7,2,3,22,49
1512364163071478,12,-17,-45,-14,-2,1,-12,8
1512364163071478,-13,34,13,10,-1,1,16,-27
1512364163071978,0,-56,-22,-7,-1,2,-28,1
1512364163071978,-22,-28,-19,-1,-4,-4,-17,-15
1512364163094505,15,30,43,6,0,0,8,-13
1512364163094505,33,-15,-14,0,-3,3,25,44
1512364163095494,-19,11,-1,-6,2,4,-4,11
1512364163095494,-10,14,-8,-1,1,-4,-16,-27
1512364163108522,20,4,24,0,-5,-4,14,82
1512364163108522,-10,35,-4,-4,-2,-2,5,-22
1512364163116519,4,-34,-26,-4,-4,-1,7,-48
1512364163116519,-14,-13,10,-3,-3,1,2,13
1512364163131530,-1,16,-5,4,6,6,17,22
1512364163131530,12,7,27,5,3,3,7,18
1512364163132021,-12,28,-11,-8,-4,-1,30,22
1512364163132021,-8,19,-7,9,5,-1,-17,-33
1512364163154537,-14,-49,-13,-2,-1,0,-7,-10
1512364163154537,6,22,37,4,8,5,-10,13
1512364163155537,-38,-37,-16,-9,-6,-3,2,-19
1512364163155537,-2,2,21,5,5,0,8,1
1512364163168063,-9,27,7,-1,-1,-2,-19,-10
1512364163168063,-6,-24,-56,-18,-9,-5,2,-13
1512364163176562,-3,-8,27,13,3,2,17,53
1512364163176562,3,5,-13,-8,-5,-7,-3,-73
1512364163191574,-6,27,1,5,4,7,3,19
1512364163191574,-10,-24,6,3,-3,-3,10,-9
1512364163192064,11,13,15,-8,-6,-6,-8,-29
1512364163192064,-18,25,14,5,-2,-2,-27,-51
1512364163214579,40,-2,-30,-8,-4,-3,22,9
1512364163214579,-1,29,31,1,0,-1,-25,-32
1512364163215579,23,35,-42,-5,-1,-3,-11,25
1512364163215579,-46,-59,4,-2,-7,-6,15,19
1512364163228097,-23,17,43,8,2,0,-3,-19
1512364163228097,1,-41,-53,-11,-6,-4,3,38
1512364163236612,-21,-7,40,11,2,1,-1,-17
1512364163236612,10,18,-10,-4,-1,1,0,15
1512364163251616,-10,-10,3,-4,-4,-5,1,-39
1512364163251616,4,3,-42,-11,-2,0,-2,10
1512364163252105,-40,-33,28,4,2,-1,15,14
1512364163252105,16,-17,-28,-15,-9,-7,-11,-11
1512364163274631,-16,-6,-29,15,1,2,17,47
1512364163274631,10,-10,13,-6,-1,-8,-52,-93
1512364163275153,3,29,30,3,2,1,-14,-11
1512364163275153,23,9,-20,4,-1,1,25,42
1512364163297147,-2,25,-29,-9,-6,-4,-30,-30
1512364163297147,-1,-54,-9,-7,-8,-5,-2,-16
1512364163297638,9,17,-25,-7,-1,3,10,42
1512364163297638,17,1,23,-4,-2,-5,-24,40
1512364163311156,-14,-88,-23,-1,1,-1,-15,-67
1512364163311156,-3,22,14,13,6,4,27,46
1512364163312163,15,38,0,-6,-4,3,-23,-68
1512364163312163,-20,-20,-21,-15,-5,-1,5,42
1512364163334663,9,6,-12,-8,-5,-2,18,29
1512364163334663,-12,4,9,7,0,-2,-14,0
1512364163335164,7,-35,-5,-4,-4,-2,28,22
1512364163335164,-1,14,4,12,6,2,-6,-25
1512364163357680,5,21,6,-7,-5,-6,-19,12
1512364163357680,-10,-7,-36,-10,-9,-6,6,11
1512364163358188,-21,-20,-4,7,0,0,14,-5
1512364163358188,9,-23,-2,-2,-4,0,6,16
1512364163371190,-19,22,-9,-9,-1,-3,-18,-32
1512364163371190,-5,-21,-1,-4,-3,-2,3,-14
1512364163372191,32,29,22,-2,3,1,-15,28
1512364163372191,10,29,12,6,1,2,7,-21
1512364163395221,-13,-39,-10,-10,-3,-2,-24,-31
1512364163395221,17,47,17,12,4,3,10,25
1512364163395707,-10,-43,3,-7,-4,-4,-9,-12
1512364163395707,-24,-17,3,4,-1,0,-15,-23
1512364163417221,-1,20,21,-1,2,2,39,30
1512364163417221,-11,-25,-14,-8,-5,-6,5,-28
1512364163417723,20,5,33,21,10,4,-12,20
1512364163417723,21,8,3,1,4,5,45,28
1512364163431242,-4,14,30,-6,-1,-3,-24,-33
1512364163431242,-9,2,-27,0,1,2,10,39
1512364163432242,1,-6,3,1,-1,-1,9,32
1512364163432242,-7,-9,-7,-10,-3,-1,-14,-74
1512364163454758,13,-2,6,7,3,0,4,9
1512364163454758,21,-5,-3,4,2,4,9,25
1512364163455249,-15,17,-10,-5,-4,-3,-21,-2
1512364163455249,8,19,21,4,0,-4,-37,-1
1512364163476773,21,-2,-32,-23,-10,-4,43,52
1512364163476773,-34,-60,21,12,4,-3,-69,-58
1512364163477774,1,39,1,-3,-3,-1,3,-5
1512364163477774,0,13,9,-12,-5,-2,8,5
1512364163491284,-11,-28,3,17,8,4,-6,10
1512364163491284,26,7,33,2,-1,1,30,17
1512364163492284,-11,7,0,6,3,2,19,16
1512364163492284,-18,-52,-79,-25,-9,-7,-9,-20
1512364163514817,-5,24,25,9,0,-5,-34,-4
1512364163514817,9,49,-19,-2,-4,-5,3,-6
1512364163516291,-15,-2,37,7,-1,-5,-16,0
1512364163516291,-1,-26,-28,-7,0,1,1,19
1512364163537860,8,-13,-11,1,1,2,18,54
1512364163537860,11,68,28,1,0,-4,-45,-84
1512364163538349,-7,-32,-52,-11,-7,-4,4,11
1512364163538349,6,15,19,9,2,0,13,15
1512364163551860,-13,-27,6,0,-2,-4,-16,-26
1512364163551860,2,4,17,1,-3,1,-10,73
1512364163552360,21,3,-29,-17,-6,2,2,-18
1512364163552360,-11,2,8,-1,-1,-4,4,-28
1512364163573890,0,-5,-1,2,0,-1,15,-3
1512364163573890,1,6,28,4,1,0,11,34
1512364163581380,-18,-23,-6,-2,-3,-1,15,-15
1512364163581380,12,-39,-31,-1,-1,1,-1,12
1512364163596891,16,4,-31,-9,-4,-4,0,27
1512364163596891,-36,-31,4,0,-3,-7,-4,-56
1512364163597891,46,33,-8,-5,-4,-4,-19,-1
1512364163597891,2,31,29,24,9,2,26,66
1512364163611401,-5,4,22,-4,-2,3,14,2
1512364163611401,3,-27,0,-9,-1,-3,-20,-58
1512364163611901,12,24,29,24,6,-2,-17,-28
1512364163611901,-13,-21,-44,-26,-5,-3,-18,13
1512364163634918,-5,13,-16,-7,-3,0,1,-27
1512364163634918,-7,16,23,-1,1,2,43,39
1512364163635419,-11,-24,1,-7,-5,-4,-2,-8
1512364163635419,13,9,-13,11,1,2,-5,0
1512364163656933,-10,12,6,-12,-3,-2,-13,-7
1512364163656933,21,-2,5,-3,-3,-1,17,29
1512364163657935,-14,21,-51,-10,-2,-3,-9,2
1512364163657935,-5,-12,7,-7,-6,-4,8,-25
1512364163671444,-3,-6,33,12,4,2,8,-9
1512364163671444,2,-11,-32,5,0,-1,5,28
1512364163671944,-4,-1,10,-9,-5,-5,-16,-25
1512364163671944,17,-18,-8,6,-1,0,26,41
1512364163694468,-7,25,-34,-11,-6,-6,-27,-37
1512364163694468,-18,-5,21,-11,-3,-2,1,14
1512364163695461,-6,7,-3,11,4,3,3,-43
1512364163695461,-10,-4,41,1,0,1,-15,-32
1512364163716986,-10,-16,-14,4,-1,1,11,7
1512364163716986,-9,-14,-40,-8,-6,-4,5,-4
1512364163717979,16,14,18,1,3,2,3,7
1512364163717979,-5,61,13,-2,-4,-5,3,-13
1512364163731496,-4,-44,4,7,0,2,-2,10
1512364163731496,4,12,19,7,1,1,7,60
1512364163731988,-6,-26,-23,-10,0,-1,-12,-15
1512364163731988,7,5,26,5,-1,-1,7,7
1512364163754514,-23,7,-24,2,-2,-5,-11,9
1512364163754514,6,1,-10,-13,-1,-2,-11,-28
1512364163755503,2,14,49,9,1,3,29,70
1512364163755503,4,0,-35,2,6,4,-21,-54
1512364163777028,13,-16,-47,-10,-5,-3,-2,-19
1512364163777028,-33,-59,-21,2,0,-2,-20,-23
1512364163778028,-13,-2,9,6,0,-1,-2,5
1512364163778028,9,-4,3,-22,-7,-4,-15,-6
1512364163791538,-4,33,44,14,5,-1,7,-4
1512364163791538,22,29,10,10,1,1,27,21
1512364163792028,1,-35,-9,-15,-5,-2,-1,-9
1512364163792028,0,22,8,1,-4,-2,5,45
1512364163815546,-15,-10,23,6,-1,-1,-30,-42
1512364163815546,-2,-9,-22,-13,-3,1,1,2
1512364163816046,-1,2,6,-1,-2,-3,-13,-19
1512364163816046,-10,-5,18,20,2,0,7,15
1512364163837070,3,19,-18,-24,-2,-2,11,15
1512364163837070,-13,-45,-29,-1,-3,-3,-16,3
1512364163838072,0,-13,22,11,4,2,20,8
1512364163838072,-13,12,0,-4,2,1,-15,-32
1512364163850570,5,29,31,14,2,1,19,-8
1512364163850570,-3,2,-3,-6,-1,1,16,25
1512364163859577,14,23,-12,-3,-2,-1,-2,-12
1512364163859577,11,-71,-17,-4,-2,-1,-24,11
1512364163874587,-6,3,35,6,0,0,-24,-6
1512364163874587,-3,22,-15,3,2,0,-6,-31
1512364163876088,29,-37,-35,-5,-2,1,17,49
1512364163876088,-17,-4,-24,-5,-3,-4,3,-29
1512364163897604,22,14,18,4,-1,2,28,21
1512364163897604,-10,-10,-8,-5,1,-2,3,9
1512364163899614,-15,29,30,9,1,-4,1,-5
1512364163899614,5,13,-2,5,3,2,-3,13
1512364163910622,-11,-54,-59,-24,-10,-5,-3,-40
1512364163910622,6,45,65,13,2,2,12,34
1512364163919626,16,-18,-42,-14,-6,-4,-1,-33
1512364163919626,-2,30,24,10,3,0,0,5
1512364163942645,-6,-38,17,9,2,2,5,67
1512364163942645,18,19,6,-10,-4,1,-7,-74
1512364163944636,-17,-20,-23,2,3,2,-13,-8
1512364163944636,1,29,29,-4,-5,-3,-1,7
1512364163957155,2,-11,1,3,1,1,-3,24
1512364163957155,-11,21,-21,-10,-8,-6,-29,-35
1512364163958647,10,-32,-2,5,-3,-4,14,4
1512364163958647,-1,-10,16,6,5,4,-11,-3
1512364163970666,-1,18,-9,-24,-7,-4,-4,14
1512364163970666,2,-76,-13,4,-3,-4,19,23
1512364163979668,-15,1,-30,-14,-5,-5,-27,-37
1512364163979668,27,-12,3,1,-1,2,-1,-5
1512364163994682,-7,34,24,11,3,1,-4,-6
1512364163994682,10,10,15,1,0,1,-4,-4
1512364163997174,1,15,-29,-21,-8,-6,-27,-16
1512364163997174,8,-17,25,7,2,3,17,29
1512364164017189,1,15,-35,-17,-3,-2,1,-14
1512364164017189,14,-11,-26,-6,-3,-2,18,32
1512364164018709,-6,17,35,4,-1,3,-12,-5
1512364164018709,-23,-12,-17,-5,-1,-1,-10,-10
1512364164030699,-4,-6,18,12,5,2,5,-24
1512364164030699,-14,-11,-5,2,-3,0,-7,-23
1512364164047268,-17,-17,-40,-16,-5,-4,6,2
1512364164047268,-11,-11,26,6,2,2,9,49
1512364164054763,12,25,0,5,0,4,-19,-55
1512364164054763,-16,-16,-32,1,0,-4,-1,-5
1512364164056265,1,-36,13,9,4,3,6,14
1512364164056265,-12,-4,-37,-10,-7,-3,6,42
1512364164077279,12,11,26,4,-1,-5,-24,-52
1512364164077279,3,-37,-30,-6,-3,0,-1,22
1512364164078779,4,19,6,-1,1,2,12,-2
1512364164078779,-3,-1,-6,-7,-3,-1,12,-22
1512364164090800,22,8,-1,-5,-6,-3,20,34
1512364164090800,9,9,-4,-13,0,-1,-12,12
1512364164099803,-4,6,1,4,3,-1,-11,-13
1512364164099803,3,15,8,4,3,5,29,9
1512364164114805,-16,-47,-26,4,-5,-8,-16,-16
1512364164114805,1,42,46,-2,-1,-3,-38,-27
1512364164116306,0,9,15,-4,-5,-3,0,-15
1512364164116306,-5,-45,-13,-4,-4,-4,-10,-36
1512364164136820,-14,38,42,14,6,6,26,23
1512364164136820,2,9,-18,-3,-2,5,-4,-6
1512364164138822,3,-3,-12,10,2,1,41,33
1512364164138822,0,-2,9,-6,1,1,3,13
1512364164150831,-2,-30,-31,-8,-5,-9,-23,-21
1512364164150831,-7,-18,26,8,3,0,10,2
1512364164159837,8,11,13,2,1,1,4,8
1512364164159837,5,5,1,-1,-2,-5,-15,-16
1512364164174849,7,-2,-1,2,2,6,33,36
1512364164174849,-10,-4,-5,-2,-1,0,4,15
1512364164176349,-10,1,-13,-5,-6,-5,-21,4
1512364164176349,3,31,10,-1,1,-4,-8,-13
1512364164196863,-4,16,11,6,2,1,-8,-9
1512364164196863,-10,-34,11,1,2,-2,3,28
1512364164199375,-26,-5,-20,-11,-4,-6,-42,-29
1512364164199375,-2,-4,-12,1,-1,-1,-29,-33
1512364164219380,-13,26,7,0,0,-3,6,9
1512364164219380,3,7,0,-3,-5,-3,-2,-17
1512364164221382,11,19,32,9,1,-1,14,26
1512364164221382,1,-6,-19,-1,0,-2,-30,-14
1512364164235391,7,-7,-39,-16,-6,-3,-34,-44
1512364164235391,-4,13,26,9,3,1,4,-10
1512364164236391,-2,5,-1,-15,-10,-7,-7,-8
1512364164236391,4,8,4,5,-2,2,19,4
1512364164257421,8,-39,27,1,0,1,-16,-7
1512364164257421,1,8,-63,-19,-7,-5,-10,-19
1512364164258908,-7,-36,-15,3,2,-1,24,0
1512364164258908,-7,3,-9,2,0,0,10,17
1512364164279431,24,-5,-15,-3,0,0,3,26
1512364164279431,-12,33,11,1,-2,-4,-3,30
1512364164280932,28,-33,8,-7,0,-3,-17,-29
1512364164280932,-21,26,12,-5,-5,-5,3,-11
1512364164294432,26,-16,-34,-4,-1,5,18,12
1512364164294432,9,8,7,1,0,-1,9,16
1512364164295933,-3,1,21,16,9,7,-29,-8
1512364164295933,-8,-10,3,9,1,-1,15,28
1512364164316958,-9,-25,-25,-26,-5,-3,-26,-35
1512364164316958,-5,2,-1,2,-1,-2,2,-11
1512364164318461,8,5,33,6,2,1,17,5
1512364164318461,-2,-13,-3,-7,-6,0,31,7
1512364164339479,-44,-6,-9,13,4,1,-13,2
1512364164339479,29,19,-2,-9,-5,-4,21,38
1512364164340982,-21,-20,-6,-1,-1,-2,-12,-42
1512364164340982,19,42,31,9,3,4,-3,7
1512364164353986,-5,16,-18,-7,-6,-9,21,0
1512364164353986,-5,-34,32,9,4,5,0,-22
1512364164360481,-15,3,-48,-8,-4,-1,9,26
1512364164360481,15,-12,-9,-3,-3,-2,-3,-18
1512364164377002,15,32,18,0,-2,0,20,32
1512364164377002,9,-5,16,8,3,1,-28,-16
1512364164378492,-28,6,-17,-3,-2,-3,-2,10
1512364164378492,-29,-23,-22,-11,-3,-4,2,1
1512364164399507,8,-5,23,5,0,-1,4,2
1512364164399507,-2,43,17,9,-1,-4,9,-8
1512364164401007,18,14,23,5,6,11,4,0
1512364164401007,-26,-47,-21,-14,-7,-9,-33,-32
1512364164414026,3,-11,21,3,0,-1,-15,16
1512364164414026,-25,-11,-9,1,2,2,4,0
1512364164420521,-5,27,-1,-3,-6,-10,-24,-21
1512364164420521,1,-8,-16,-5,-3,-7,-5,4
1512364164437534,4,-3,-5,0,0,-1,0,-5
1512364164437534,5,16,26,1,-1,2,8,12
1512364164438546,-1,-59,-35,-4,-2,-3,6,4
1512364164438546,-17,26,-12,4,2,2,-2,0
1512364164459558,33,15,4,-9,-6,-5,5,12
1512364164459558,-13,6,-5,-2,-4,-3,-3,-4
1512364164461050,29,35,-17,-19,-5,-3,6,11
1512364164461050,0,28,8,5,0,0,7,1
1512364164474072,-2,-13,-16,-2,3,4,-10,-16
1512364164474072,-13,-24,6,-4,-1,-2,2,24
1512364164480574,-3,16,19,10,4,4,-12,-51
1512364164480574,15,-6,2,-1,0,1,0,5
1512364164497085,-13,-60,-39,-9,-4,-3,9,-3
1512364164497085,16,15,-27,5,-1,-2,-10,26
1512364164498586,-13,-19,23,1,0,1,-8,-16
1512364164498586,5,27,-6,-8,-5,-5,-21,-21
1512364164519591,-16,-29,22,9,1,3,-13,-3
1512364164519591,-9,-7,-1,-5,-2,-3,16,-5
1512364164521102,0,4,6,4,-2,-3,14,32
1512364164521102,-5,15,19,0,2,3,-41,-23
1512364164534111,-44,-13,-27,-9,-3,0,2,14
1512364164534111,18,22,-12,-7,-5,-5,-21,-42
1512364164540617,-19,-22,-33,2,4,5,20,43
1512364164540617,16,-30,61,14,4,4,16,-7
1512364164557118,6,38,-12,-1,0,2,0,20
1512364164557118,10,-37,34,2,2,3,-8,-23
1512364164558619,-3,34,-74,-16,-5,-2,24,34
1512364164558619,-2,-1,-3,4,0,-6,-37,-19
1512364164579644,-6,5,1,4,2,-2,6,-1
1512364164579644,13,18,10,8,2,2,11,19
1512364164581135,6,0,32,5,1,1,-26,1
1512364164581135,-7,-6,-46,-13,-5,-5,21,5
1512364164593653,9,3,40,3,0,-1,2,-3
1512364164593653,-8,-13,-26,-5,0,0,-4,4
1512364164600658,0,32,5,-4,-6,-6,5,33
1512364164600658,3,-31,-11,-1,-5,-1,-12,-31
1512364164617160,-7,41,-12,-6,-1,-3,-4,-3
1512364164617160,2,-55,-13,9,1,1,16,-9
1512364164618666,10,-3,14,-2,-1,0,3,11
1512364164618666,-4,39,27,-2,-1,1,9,10
1512364164647185,-11,-24,-11,-6,-5,-3,2,11
1512364164647185,8,15,10,5,1,0,1,-37
1512364164648699,-11,4,-9,-6,0,1,0,-13
1512364164648699,1,-9,-23,-12,-4,-1,14,33
1512364164653686,6,12,35,7,1,-3,-23,-19
1512364164653686,-13,10,-56,-13,-5,-5,-23,-25
1512364164668206,-3,-19,24,6,-1,-1,21,30
1512364164668206,6,45,15,1,2,2,-29,-13
1512364164677217,-22,-40,-1,-2,-6,-1,8,-3
1512364164677217,3,18,-16,-4,-3,-1,-4,-11
1512364164678713,17,1,11,-3,-1,0,11,5
1512364164678713,14,-9,4,5,2,-1,14,17
1512364164699718,-27,13,-8,-5,-4,-4,1,2
1512364164699718,13,-2,6,1,0,2,19,23
1512364164702721,-37,-54,-23,-16,-8,-5,-28,-76
1512364164702721,32,-25,19,7,3,1,9,11
1512364164713228,5,-10,-53,-3,-1,-2,4,-6
1512364164713228,-17,4,63,6,1,0,7,11
1512364164722235,15,47,-38,-7,-4,-6,-9,-13
1512364164722235,5,10,-8,-6,-4,-1,13,48
1512364164737245,9,10,1,5,2,-1,-2,-28
1512364164737245,-15,-58,-29,-6,0,-2,-15,-8
1512364164738746,7,-13,-2,-5,-4,-1,-3,6
1512364164738746,-10,28,35,9,0,-2,5,-13
1512364164759272,11,-48,-22,1,4,4,49,66
1512364164759272,-1,37,2,3,0,-5,-74,-68
1512364164761272,-10,-40,-10,1,0,-1,11,-12
1512364164761272,7,17,0,-8,-3,-4,4,-3
1512364164773270,2,23,2,0,-2,-3,-3,9
1512364164773270,-5,15,27,2,0,0,7,0
1512364164782289,13,4,27,-2,1,0,0,26
1512364164782289,-14,-26,-29,-9,-5,-2,16,-18
1512364164796796,5,-17,3,0,1,-2,-7,-5
1512364164796796,-31,-24,8,-3,-3,-2,3,19
1512364164798798,5,45,-23,2,0,-1,-20,-36
1512364164798798,-18,-45,-33,-13,-3,0,26,52
1512364164819815,38,61,27,0,-3,-4,-43,-76
1512364164819815,14,5,-10,-6,-6,-1,15,2
1512364164821314,-31,-6,22,13,5,4,-2,18
1512364164821314,4,-15,-13,5,0,4,-2,-13
1512364164833324,-11,-7,-9,-19,-6,-9,11,13
1512364164833324,-5,-26,-26,-4,-4,-4,-3,1
1512364164843330,15,30,39,8,1,1,6,7
1512364164843330,23,0,-10,2,2,2,0,-18
1512364164856829,-4,-2,13,0,-4,0,12,28
1512364164856829,5,23,-10,-3,-2,0,13,23
1512364164858837,-26,-51,16,-3,-4,-8,-25,-56
1512364164858837,0,9,-50,-10,-3,0,-12,-14
1512364164879355,7,0,44,12,2,2,-2,0
1512364164879355,2,14,-29,-8,-2,-2,7,9
1512364164880862,19,-7,-3,7,3,1,3,-1
1512364164880862,-14,2,2,-7,-5,-4,-16,-7
1512364164893366,-3,-2,-3,7,1,-3,-2,-21
1512364164893366,-6,-6,6,-9,0,-1,-2,-6
1512364164902361,19,28,20,1,0,4,8,31
1512364164902361,-19,11,2,0,-2,-4,-3,-13
1512364164917381,-3,-38,-25,0,-2,-1,15,25
1512364164917381,-8,4,3,10,0,-1,1,-24
1512364164922886,-14,15,7,-10,0,1,12,10
1512364164922886,9,16,23,1,-1,1,3,21
1512364164939397,0,15,8,-1,1,0,-20,-32
1512364164939397,8,-32,-19,4,-1,-2,0,15
1512364164940904,15,9,21,2,1,-1,1,-17
1512364164940904,4,-32,-10,13,6,3,-23,-13
1512364164953398,-3,-2,-21,-20,-10,-4,-5,4
1512364164953398,2,7,2,-1,2,4,9,5
1512364164962413,3,-14,-6,-1,-1,-1,-1,9
1512364164962413,-10,6,34,5,-1,-2,21,20
1512364164976923,14,33,-9,3,1,1,-12,-10
1512364164976923,-13,-44,-37,-19,-9,-5,1,-3
1512364164978916,-31,-41,-34,-12,-9,-6,1,-4
1512364164978916,9,32,17,2,-3,-4,-22,-10
1512364164999444,-7,0,9,5,0,1,4,23
1512364164999444,2,21,16,-9,-5,0,9,-8
1512364165001934,3,-17,-18,4,-1,-5,-2,4
1512364165001934,0,23,-14,-3,-3,-2,16,13
1512364165012952,9,6,20,6,2,3,11,31
1512364165012952,-12,10,-10,0,-1,1,-4,2
1512364165029967,4,25,36,7,4,4,-30,-22
1512364165029967,-6,-91,-53,-8,-7,-6,-5,-18
1512364165036966,-18,34,20,6,4,3,-15,-12
1512364165036966,11,-19,1,-2,-1,-4,-24,-7
1512364165038474,-6,1,-15,5,1,2,1,-4
1512364165038474,3,24,20,-6,-6,-4,-4,38
1512364165059482,-3,6,10,2,2,1,12,-51
1512364165059482,-3,-26,-14,-3,0,4,11,35
1512364165060974,9,10,21,4,-3,-9,-49,-28
1512364165060974,-18,-2,-22,-4,1,2,13,-1
1512364165072992,2,-22,-3,-1,0,-3,-10,-9
1512364165072992,7,17,0,-2,-7,-7,-10,4
1512364165081998,18,-7,-22,-3,1,2,19,19
1512364165081998,5,8,18,1,4,2,10,2
1512364165096999,-14,-3,3,3,0,-2,-9,6
1512364165096999,-32,38,25,7,6,3,23,28
1512364165098510,10,29,1,2,0,4,-12,-35
1512364165098510,-22,-20,2,-4,-4,-6,-7,-3
1512364165119525,4,-33,-16,0,-2,-2,4,6
1512364165119525,-6,6,14,-9,-2,1,-25,-23
1512364165121025,6,33,36,10,3,2,42,42
1512364165121025,-8,-43,-55,-7,-4,-5,-6,-37
1512364165142041,-7,17,6,3,1,1,-16,-2
1512364165142041,-3,-7,15,6,1,0,-2,-2
1512364165143532,30,-2,-19,-10,-3,-5,-13,8
1512364165143532,-5,36,27,5,4,2,7,23
1512364165157053,-3,-67,-30,-4,-3,-3,4,-26
1512364165157053,0,30,-22,-18,-3,-3,-14,-34
1512364165158552,-12,-2,21,2,1,1,27,21
1512364165158552,-1,-11,12,0,3,2,-2,-5
1512364165179557,1,20,8,-6,-7,-3,-4,2
1512364165179557,6,2,24,18,4,1,6,9
1512364165181069,-10,8,33,-10,-3,-2,11,4
1512364165181069,2,13,-51,-10,2,0,6,-2
1512364165202574,-8,11,3,-5,-3,-3,-3,4
1512364165202574,15,44,-5,4,-1,-2,18,12
1512364165204574,-2,-57,-9,-9,-7,-7,-45,-23
1512364165204574,10,29,41,17,4,2,-15,-23
1512364165217097,2,-5,-29,-21,-6,-2,9,40
1512364165217097,-7,-20,-19,-1,-3,-2,-5,-68
1512364165218584,9,5,-15,1,-2,-1,5,0
1512364165218584,-10,5,12,-3,-3,-5,-15,-3
1512364165239599,0,-6,-7,2,-2,-4,-13,-21
1512364165239599,-8,22,45,18,6,3,7,10
1512364165241100,-11,-41,-60,-13,-5,-4,-6,-2
1512364165241100,5,-28,-4,-3,-1,1,3,-18
1512364165262115,-2,7,12,12,3,-1,30,17
1512364165262115,3,-19,-7,-12,-2,-4,-10,30
1512364165263616,-14,33,-5,2,-1,-2,0,-9
1512364165263616,-2,-16,9,3,1,-1,-5,3
1512364165276125,17,12,-2,-11,-6,-4,4,12
1512364165276125,0,-33,-10,9,3,0,-4,-25
1512364165283130,-16,2,-2,-6,1,3,5,11
1512364165283130,-7,48,24,-1,-5,-2,21,18
1512364165299649,1,-12,11,1,1,8,-3,-6
1512364165299649,-2,-4,-14,3,1,-3,-22,-23
1512364165301143,-5,28,-21,-9,-5,-2,11,17
1512364165301143,4,-16,22,2,2,4,-22,-4
1512364165322167,-28,10,-7,-4,-2,-10,-2,-37
1512364165322167,21,-3,-9,-8,-5,-5,3,20
1512364165323669,2,-13,16,11,4,3,12,19
1512364165323669,3,14,-15,-9,-5,-3,-11,-20
1512364165336669,9,-30,-6,12,1,0,35,29
1512364165336669,-4,-11,7,-17,-4,4,9,10
1512364165343173,-18,-42,-29,-11,-3,-3,-1,-2
1512364165343173,11,7,20,4,0,1,9,-5
1512364165359695,25,23,-15,-6,-1,1,-10,15
1512364165359695,-48,-34,-5,2,-3,-6,5,-8
1512364165361186,11,-2,18,7,1,0,4,2
1512364165361186,0,18,7,-1,0,1,5,19
1512364165382215,5,1,-4,0,-2,0,-16,-13
1512364165382215,12,3,4,1,1,5,12,-20
1512364165383711,2,8,2,0,-2,-2,-33,-15
1512364165383711,-4,-47,-20,-5,-2,-1,-2,5
1512364165396220,-23,-27,2,5,-1,1,8,7
1512364165396220,9,38,6,-8,-2,-4,-13,-10
1512364165403216,-15,-45,-31,-5,-1,1,4,-12
1512364165403216,17,25,4,0,-1,0,5,3
1512364165419728,-9,-15,8,-2,-2,-1,-15,-29
1512364165419728,-23,-10,-2,1,-4,-5,-8,8
1512364165421238,2,3,-27,-1,-6,-4,6,1
1512364165421238,-3,6,2,-3,1,0,-3,13
1512364165442257,2,10,11,-1,0,4,26,35
1512364165442257,-11,-13,-28,-11,-6,-9,-50,-61
1512364165443754,3,50,28,-1,0,-3,-14,-10
1512364165443754,-7,-40,-23,0,-3,-4,-14,-17
1512364165456262,-6,27,10,-1,0,-2,20,32
1512364165456262,17,-4,1,0,-1,-1,-4,-12
1512364165463267,16,21,28,6,0,2,14,14
1512364165463267,-11,-33,-28,-13,-5,-1,-17,-14
1512364165479768,18,24,10,3,4,-2,-8,-1
1512364165479768,2,-31,0,0,-3,-3,-4,-22
1512364165481280,-5,16,4,1,0,0,7,-5
1512364165481280,9,44,19,9,4,2,5,9
1512364165502286,-14,-45,-15,-10,-4,-4,3,-8
1512364165502286,21,30,15,2,2,3,9,36
1512364165503796,-2,-1,-14,-6,-4,-2,-3,2
1512364165503796,2,14,47,11,4,6,15,-4
1512364165516805,-11,-62,-77,-12,-3,-5,-9,17
1512364165516805,-4,1,29,18,4,2,-7,0
1512364165523300,7,-26,-32,-6,-5,-2,6,18
1512364165523300,-2,28,9,-1,0,0,4,-26
1512364165539312,8,22,10,-3,2,5,-18,-7
1512364165539312,-5,-18,-9,-2,-1,0,13,18
1512364165541313,-12,-6,9,5,1,0,7,-9
1512364165541313,7,4,-17,-11,-6,-7,2,6
1512364165561837,-7,-22,-19,1,-1,-2,-3,-9
1512364165561837,8,19,2,-10,-4,-5,2,11
1512364165563849,-10,-28,-7,-5,-3,-2,-3,-12
1512364165563849,2,-8,-18,-5,2,0,32,58
1512364165576347,2,24,30,6,0,1,-31,-38
1512364165576347,10,6,-8,6,4,5,6,32
1512364165583360,-18,3,-19,-13,-7,-8,-18,-22
1512364165583360,24,-14,-19,-1,-2,-2,-13,0
1512364165599377,3,8,19,2,1,-1,5,-7
1512364165599377,6,1,-30,-3,0,0,-9,-8
1512364165601856,-7,5,15,1,1,-3,1,10
1512364165601856,3,27,22,7,2,-2,3,29
1512364165629374,-4,-3,-29,-5,-4,-3,-15,-64
1512364165629374,1,-15,10,5,1,3,6,9
1512364165631385,-5,-14,12,-1,3,1,5,2
1512364165631385,-9,-18,-30,-12,-8,-6,-14,-24
1512364165635880,11,45,36,10,3,1,-2,-2
1512364165635880,14,-19,-46,-14,-6,-5,11,-3
1512364165644385,-22,-20,10,3,0,-1,16,-2
1512364165644385,-15,-12,4,3,-2,-5,-18,-26
1512364165659396,-3,14,5,4,4,3,-3,21
1512364165659396,-10,-16,10,-1,-1,-1,1,-15
1512364165660897,17,10,-17,-6,-2,1,14,24
1512364165660897,11,-3,-3,-8,-6,-7,-29,-21
1512364165681924,-6,0,18,9,2,0,2,11
1512364165681924,-2,36,-14,-11,-5,-2,-2,-2
1512364165683416,13,-1,6,-4,2,5,47,36
1512364165683416,-19,-2,1,0,-1,1,-17,-13
1512364165695421,13,-4,6,8,1,2,8,8
1512364165695421,-2,7,-6,-7,-3,-3,0,6
1512364165704427,-2,-10,20,9,2,-2,-19,-10
1512364165704427,-6,-15,-1,4,4,3,17,-6
1512364165719450,13,8,-14,-13,-5,-2,21,15
1512364165719450,-20,-38,4,2,1,-1,9,8
1512364165720940,-26,16,-2,3,2,1,-6,-12
1512364165720940,15,-10,7,10,4,3,-1,-6
1512364165741966,10,-2,-12,-10,-6,0,18,39
1512364165741966,-3,16,11,-2,-3,-4,-29,-20
1512364165743467,6,-20,-16,-1,-2,0,-5,8
1512364165743467,1,-11,24,7,1,-1,3,-2
1512364165755967,-8,33,-28,-14,-5,-3,-10,-7
1512364165755967,8,-13,0,-1,1,4,13,19
1512364165764470,-2,-28,19,7,0,-1,-8,-8
1512364165764470,-7,4,3,-5,-6,1,0,-4
1512364165779495,-1,12,2,4,3,1,2,-4
1512364165779495,-7,-13,-15,-8,-3,0,-1,5
1512364165780981,7,23,-1,2,0,-1,-11,-9
1512364165780981,6,-1,-4,3,0,0,13,7
1512364165801997,-17,-5,11,-9,-1,-1,1,18
1512364165801997,-1,-3,-14,5,1,-3,-7,-17
1512364165803516,14,23,10,-8,-6,-5,-13,-7
1512364165803516,-10,-12,-23,-2,1,-1,21,-3
1512364165815506,-14,15,-3,-5,-5,-5,-33,-16
1512364165815506,11,-14,21,4,1,-1,26,11
1512364165824512,0,12,-30,-9,-3,-2,0,-1
1512364165824512,-12,1,4,-7,-4,-4,-11,-5
1512364165839523,-3,-39,15,4,1,-1,-11,-5
1512364165839523,0,11,2,10,2,-1,2,3
1512364165841024,7,3,21,-1,0,0,-12,-14
1512364165841024,-6,6,-13,-6,-5,-2,7,5
1512364165862039,15,-10,-10,-1,-1,0,-1,2
1512364165862039,-27,-4,2,-2,-3,-3,-12,-40
1512364165863540,-4,-7,-6,1,-2,-2,-5,8
1512364165863540,-1,14,9,-1,-1,-3,-10,-4
1512364165875548,-6,-17,-2,2,1,-4,-5,-8
1512364165875548,7,6,-8,-2,-1,-2,2,13
1512364165884555,-2,15,4,1,0,-3,-3,-12
1512364165884555,-15,-7,-37,-10,-3,-1,-1,-6
1512364165899580,-1,-26,13,4,2,3,16,11
1512364165899580,-2,-15,-11,-5,-3,-1,-8,-9
1512364165902086,4,6,14,5,2,4,8,9
1512364165902086,2,27,-1,-11,-2,0,-7,-2
1512364165922090,-15,-49,-4,-1,-2,-4,6,-2
1512364165922090,3,21,17,1,2,1,0,9
1512364165923592,5,-9,-14,-2,-4,-2,-2,-5
1512364165923592,2,-3,14,9,1,3,6,15
1512364165936123,-5,10,1,-2,-1,0,-13,-19
1512364165936123,3,13,-7,0,-2,-3,0,2
1512364165944629,9,-11,-8,-12,0,-2,-1,-6
1512364165944629,-3,-37,-14,-4,-3,-1,7,2
1512364165959638,0,14,8,-2,-2,1,23,16
1512364165959638,5,-18,-10,5,0,0,-8,-16
1512364165961141,4,23,-1,-5,-4,-2,0,9
1512364165961141,-3,-5,8,2,1,0,-7,-8
1512364165981166,1,9,-11,-4,-2,-1,16,25
1512364165981166,1,-8,6,1,-1,-5,-13,-15
1512364165989660,-8,-13,-7,7,3,0,-1,-3
1512364165989660,1,-2,-1,-6,0,-2,-13,-13
1512364165995664,-8,1,-8,1,-1,-3,-7,2
1512364165995664,-4,8,-8,-5,-2,0,9,17
1512364166004670,-2,-21,27,7,3,4,1,-4
1512364166004670,5,10,-31,-5,-3,-1,-8,-2
1512364166019683,-6,-8,-1,7,1,-1,-17,-20
1512364166019683,3,1,5,-13,0,1,6,18
1512364166021183,3,-7,19,9,3,0,-1,-3
1512364166021183,-4,4,-24,-3,-2,-3,2,-4
1512364166042196,3,-3,3,-8,-6,-3,0,-2
1512364166042196,-2,5,-3,4,1,0,-8,-8
1512364166043698,8,4,2,0,-1,-2,10,24
1512364166043698,-5,12,22,2,0,2,5,-4
1512364166055721,7,10,-13,-4,-2,-5,4,6
1512364166055721,-3,-7,5,-1,-1,-1,-30,-32
1512364166064723,4,13,-7,1,0,1,5,11
1512364166064723,-1,-33,26,9,-3,-4,3,-12
1512364166078732,-8,-15,-60,-16,-5,-1,-7,-10
1512364166078732,0,1,7,2,0,2,19,23
1512364166093242,-5,-6,-15,-5,-1,-3,-20,-18
1512364166093242,6,17,15,4,1,1,5,5
1512364166102241,-6,4,2,1,-4,0,5,3
1512364166102241,-3,-3,2,-3,-4,-8,-40,-26
1512364166104241,-3,1,-15,-2,-1,0,0,-6
1512364166104241,5,3,7,-4,-2,-3,4,3
1512364166124266,1,2,8,-3,0,2,-8,-1
1512364166124266,4,5,-2,0,1,1,19,20
1512364166126269,-6,2,-1,-1,-4,-3,-2,-7
1512364166126269,-5,-14,-8,-3,0,0,-9,-2
1512364166139276,10,3,13,4,2,-1,0,-9
1512364166139276,-2,5,-6,0,-1,2,18,8
1512364166141325,-2,-5,2,-4,-2,-3,-2,-10
1512364166141325,2,2,-5,-3,-1,0,2,6
1512364166162352,-3,8,15,4,0,0,-11,-14
1512364166162352,-3,-6,-17,-3,-3,0,11,9
1512364166163853,-2,-3,-5,0,-1,0,0,0
1512364166163853,-3,-1,-9,-4,-2,-1,-2,-1
1512364166184858,0,4,14,1,1,-2,-6,-7
1512364166184858,-1,-1,7,1,-1,0,3,1
1512364166186359,-2,-13,-10,-4,-3,-2,0,-3
1512364166186359,1,4,-3,-4,-2,-1,-1,2
1512364166198384,-2,-7,11,2,1,-1,-4,-6
1512364166198384,-3,-3,1,-3,-1,-2,5,4
1512364166206890,-4,3,-9,-3,-2,-2,-5,-3
1512364166206890,2,2,0,1,-1,-2,-4,-1
1512364166221900,0,1,-2,-1,0,0,1,11
1512364166221900,0,1,-2,-2,-2,-2,-1,-7
1512364166223402,-1,2,5,3,2,0,-1,0
1512364166223402,-6,-5,-5,-4,0,-1,-1,-2
1512364166244426,2,4,1,-3,-4,-2,-3,-1
1512364166244426,-2,-3,0,-3,-2,0,6,2
1512364166245918,-2,-4,-8,-2,-3,-4,0,-3
1512364166245918,-4,-3,1,4,-2,-2,2,0
1512364166258937,-1,0,-4,-2,-2,-2,-3,-7
1512364166258937,0,3,6,-1,-2,-1,3,3
1512364166265431,0,-1,0,1,-2,-1,0,-2
1512364166265431,-1,-3,-1,-3,0,0,-2,1
1512364166281956,-3,1,-1,-2,-3,0,-5,-7
1512364166281956,3,0,7,0,-2,1,-1,3
1512364166283444,-7,-7,-12,-2,0,1,-2,-1
1512364166283444,-3,0,-2,1,0,-3,-2,-2
1512364166304460,1,-2,0,-2,-2,-2,-3,-5
1512364166304460,4,7,2,1,2,1,2,3
1512364166306962,0,5,2,-5,-1,-1,-1,-3
1512364166306962,0,0,8,-1,0,-2,-1,-2
1512364166319971,-1,-3,-8,3,0,-1,-1,-3
1512364166319971,-6,-5,-4,-5,-3,-3,0,0
1512364166325974,-1,-1,4,0,0,0,1,0
1512364166325974,2,2,-8,-2,-2,-2,-1,-3
1512364166342495,-1,4,7,4,1,0,1,0
1512364166342495,-4,-7,-4,-2,-1,-3,-1,-3
1512364166344489,0,8,4,-2,-2,-2,-2,-2
1512364166344489,-11,-6,7,3,1,1,2,4
1512364166364511,13,-11,-20,-7,-3,-1,-4,-5
1512364166364511,-1,5,6,1,1,-1,0,-1
1512364166366013,-20,-11,0,1,-2,-2,-2,-8
1512364166366013,5,2,-4,-2,-4,1,-1,0
1512364166379011,-8,2,4,0,1,-1,1,1
1512364166379011,3,-3,-3,-2,-1,-2,1,1
1512364166386018,9,4,1,-1,-1,-1,2,3
1512364166386018,-3,-5,-3,-1,-2,-2,-2,0
1512364166402043,-3,2,-3,-2,-2,0,-3,-2
1512364166402043,-4,-4,-3,0,0,-2,0,-1
1512364166403546,1,1,2,0,-1,0,0,-1
1512364166403546,0,-5,-6,-5,-3,0,-2,-2
1512364166424554,-4,-1,2,0,0,-1,-1,-1
1512364166424554,0,1,3,0,0,-2,0,2
1512364166426054,3,-3,-3,2,-1,-3,-1,1
1512364166426054,-1,-3,-3,-2,0,-1,-1,-5
1512364166439054,1,2,1,-2,-1,-1,-1,-2
1512364166439054,-3,-1,0,0,0,0,-3,-2
1512364166445559,1,0,-6,-2,1,-1,0,-1
1512364166445559,0,-1,-2,-1,-1,-3,0,1
1512364166462070,-1,0,1,-1,-1,-1,-1,-1
1512364166462070,1,-5,-2,0,-1,-1,0,0
1512364166463571,2,0,-2,-2,-2,-1,0,-1
1512364166463571,-2,-1,2,-1,0,-1,-2,-2
1512364166484587,-1,-4,0,0,-1,-1,0,0
1512364166484587,-1,0,-1,-1,-1,-1,0,1
1512364166486087,0,0,-2,-3,0,0,0,0
1512364166486087,-2,1,1,1,-1,-2,0,-3
1512364166498596,-1,-2,-2,-2,-3,-3,-1,0
1512364166498596,-1,-3,-3,-2,0,-1,-1,-1
1512364166505601,1,1,-3,-1,0,-1,-1,-1
1512364166505601,1,1,-2,0,-1,-2,0,0
1512364166522113,-1,1,-2,-2,0,-1,0,-1
1512364166522113,-2,-1,-2,1,-2,-2,0,-1
1512364166523614,1,-4,-3,-1,0,-2,-2,0
1512364166523614,-2,-2,0,0,-1,-2,-2,-1
1512364166544655,-2,-3,3,-1,-1,-1,-2,0
1512364166544655,-2,-3,-1,-4,0,-2,-1,0
1512364166546153,-2,-3,-2,-2,-2,0,0,-1
1512364166546153,1,-3,-1,-2,-2,-1,-3,-1
1512364166558173,-2,-2,1,0,-1,-1,-1,0
1512364166558173,1,-1,-1,0,0,0,-2,0
1512364166567167,0,-1,0,-2,-1,0,-4,-4
1512364166567167,0,-1,-3,-1,-2,1,-3,0
1512364166582196,-3,1,1,-1,-2,-1,0,-2
1512364166582196,-2,-1,-2,-2,-2,-1,2,-2
1512364166583679,-2,-3,-3,-1,-2,-1,3,1
1512364166583679,-3,-2,0,0,-1,-1,0,0
1512364166612211,-1,0,-1,-1,-1,-2,-1,-1
1512364166612211,1,0,1,0,-1,-2,0,0
1512364166613712,-4,-3,-3,-1,-2,-2,-2,0
1512364166613712,-2,-6,-5,-2,1,-2,-1,0
1512364166618205,0,-4,-3,0,-1,-2,-2,1
1512364166618205,-1,-1,-1,-1,-1,0,-3,1
1512364166627220,-1,-3,-2,0,-1,-1,-2,-2
1512364166627220,0,1,0,-1,-1,-3,0,0
1512364166641730,0,0,-1,0,1,-1,-4,-3
1512364166641730,0,0,-1,0,-2,-1,-2,-3
1512364166643731,-2,-1,-1,0,-1,-1,0,0
1512364166643731,-2,-2,0,-2,-1,-2,0,-1
1512364166664752,1,-1,0,0,-2,-1,2,-1
1512364166664752,-1,0,0,-1,-1,-3,0,-1
1512364166666237,-1,0,0,-1,0,-1,1,-2
1512364166666237,-1,-2,1,-1,0,2,-2,-2
1512364166678255,-2,-1,-2,-3,0,0,-2,0
1512364166678255,0,-1,1,-1,-1,1,-2,0
1512364166687271,1,1,1,-1,-2,-2,-1,0
1512364166687271,-1,2,-1,-2,-2,-1,-1,-2
1512364166702263,-3,0,-3,-1,-1,-3,-1,-1
1512364166702263,-1,-2,-6,-1,-3,-2,-2,-3
1512364166703763,-1,-2,0,-1,1,-1,-4,-2
1512364166703763,-1,0,-1,-1,-1,0,-2,-2
1512364166724278,0,-2,1,-2,-1,1,-1,0
1512364166724278,-1,-1,-2,-1,-1,-1,-1,-1
1512364166726279,1,0,-3,0,-2,-2,1,0
1512364166726279,0,-2,-2,0,-2,-2,-3,0
1512364166738303,-2,-2,-3,-2,0,-1,-1,-2
1512364166738303,-1,-3,1,-1,1,0,0,0
1512364166747296,-2,0,2,-2,-1,0,1,0
1512364166747296,-1,-1,-1,0,0,-1,-1,-3
1512364166761804,-3,-2,-2,-2,-1,-2,0,0
1512364166761804,-1,0,-4,-2,1,0,-2,0
1512364166763806,0,0,-3,-1,-2,-1,-1,-1
1512364166763806,-1,2,0,-1,-2,-1,-1,-2
1512364166784824,1,-2,0,-1,-1,-1,-2,-1
1512364166784824,-2,-2,1,0,-2,0,-1,-1
1512364166786323,-3,-1,-1,-2,-2,-3,-2,-1
1512364166786323,-1,-1,-2,-2,0,-2,-2,0
1512364166798340,1,0,-1,2,0,-1,1,-1
1512364166798340,-1,-1,-1,1,-2,-4,1,-1
1512364166807336,1,-2,2,-2,0,-1,0,-1
1512364166807336,-1,-4,1,-1,0,-1,-2,0
1512364166821848,-3,-1,1,-2,-1,-2,-1,-1
1512364166821848,-1,-2,-2,-2,-1,-1,-1,0
1512364166823849,-2,-1,-2,0,-1,-1,0,-1
1512364166823849,-1,-1,-1,0,-2,0,1,-1
1512364166844363,0,0,1,-2,0,0,-3,-1
1512364166844363,0,-1,-2,-2,-1,-2,-1,0
1512364166845863,-2,-1,0,-1,-1,-1,-2,-1
1512364166845863,-1,-2,-1,-1,-1,0,-2,0
1512364166857872,1,-1,-4,-1,-2,0,-1,0
1512364166857872,-1,-2,-3,0,-2,-2,-2,-1
1512364166867392,-2,-3,-3,-1,-1,-1,0,0
1512364166867392,0,-1,-2,0,0,-1,2,0
1512364166881889,0,-2,0,0,-1,0,-1,-2
1512364166881889,-1,0,0,0,0,-2,-3,-1
1512364166883390,-1,0,-2,-1,0,-1,-2,-2
1512364166883390,0,-1,-1,-1,-2,-1,0,-1
1512364166904406,-1,-3,-1,0,-3,0,-2,0
1512364166904406,-2,-2,0,-2,0,1,2,-2
1512364166906408,0,0,-2,0,-2,1,1,1
1512364166906408,-1,-1,-2,-1,0,-1,0,-1
1512364166917915,-4,0,-2,1,-1,-2,0,-2
1512364166917915,-3,-1,1,0,-1,-1,-1,0
1512364166926921,0,0,-1,-1,0,-1,0,0
1512364166926921,-1,-1,0,-2,-1,0,0,0
1512364166941932,0,-1,-1,-2,0,-2,-1,-1
1512364166941932,-2,-2,0,0,0,0,-2,-2
1512364166943433,-5,-2,1,-1,1,-2,-2,0
1512364166943433,1,-1,-2,-2,-2,-1,-2,-1
1512364166964447,0,1,-1,-3,-3,-1,0,-1
1512364166964447,0,-1,1,-1,1,-1,-1,-2
1512364166965948,0,-1,0,-1,-5,0,-2,-1
1512364166965948,-3,-1,-1,0,1,0,-1,0
1512364166977958,-1,-3,-2,1,-3,-2,-1,0
1512364166977958,0,-2,-2,-2,-2,-2,1,-1
1512364166992967,1,-2,-5,-1,0,-2,1,-1
1512364166992967,-5,0,-3,-1,-2,0,-2,-1
1512364167001976,-1,-2,-2,-2,-1,0,0,3
1512364167001976,-1,-2,-2,0,-1,2,-4,1
1512364167003476,-1,-3,-1,-1,-2,-1,0,-2
1512364167003476,1,-2,0,-2,-2,1,0,-1
1512364167024490,-3,-1,-2,0,1,-1,0,-2
1512364167024490,-2,0,-1,0,0,0,-3,0
1512364167025991,1,0,2,-1,-2,-2,-1,0
1512364167025991,0,-2,1,-1,-1,-3,0,-1
1512364167047032,-1,-2,1,-1,-1,-2,0,-2
1512364167047032,2,-2,-3,-1,-3,-1,2,-3
1512364167048520,-2,0,-2,1,0,-1,0,0
1512364167048520,-1,-1,-3,0,-2,0,0,1
1512364167062016,1,-2,-3,-1,-1,-1,0,-2
1512364167062016,-2,2,0,-1,-2,-1,2,-1
1512364167063517,0,-2,2,-3,0,-3,-3,-1
1512364167063517,0,-1,1,-2,0,-1,-1,-2
1512364167084532,4,0,0,-2,-3,-1,-3,-1
1512364167084532,-1,-1,-2,-1,-1,1,-2,-1
1512364167086035,-1,1,-1,0,-2,-1,-3,0
1512364167086035,1,-1,0,-2,-1,-1,-2,-1
1512364167107048,-2,-2,-1,-1,-2,1,0,0
1512364167107048,0,-2,2,4,2,-2,-1,-2
1512364167108549,-1,-1,-1,-3,-2,-2,-3,-1
1512364167108549,-1,-4,-3,6,9,1,0,0
1512364167122059,-3,-1,-2,-2,-3,-2,2,8
1512364167122059,-2,2,0,-5,-4,-2,-6,-16
1512364167123560,-2,-2,-2,-2,0,-1,0,-3
1512364167123560,1,0,-2,-2,-3,-1,-3,-2
1512364167144575,-5,0,1,2,0,1,-1,-3
1512364167144575,2,-4,-4,-3,-2,-3,-1,4
1512364167146076,0,-2,-1,-2,-1,0,0,0
1512364167146076,-2,-1,0,-3,-4,-1,-1,-1
1512364167167104,2,1,-1,1,2,-1,0,-1
1512364167167104,3,-5,-2,-2,-3,-1,-1,3
1512364167168608,-5,0,0,-1,0,0,-3,-6
1512364167168608,0,-1,-1,-1,0,-2,0,5
1512364167181601,0,-1,2,-1,-3,-2,-2,-3
1512364167181601,0,-3,-2,-2,-1,-1,1,0
1512364167188118,0,-3,-4,1,-1,-1,-3,-3
1512364167188118,-3,0,-3,0,0,0,-3,-4
1512364167204629,0,-3,-3,-2,0,-1,1,8
1512364167204629,-6,-7,-3,-1,-1,-2,-6,-16
1512364167207128,-1,-1,-1,-1,1,0,6,6
1512364167207128,-2,1,1,-2,-4,-4,1,-5
1512364167227133,-2,-1,0,-2,-2,-3,-3,-2
1512364167227133,-3,-3,-1,-3,1,1,0,4
1512364167228647,0,-1,0,0,-3,-2,-3,-2
1512364167228647,0,-4,-1,-1,-2,-2,3,-1
1512364167241152,-4,-2,-2,-2,-1,-2,0,-5
1512364167241152,-5,6,5,-3,-2,0,3,4
1512364167248149,1,-1,-2,-1,-3,-2,1,-1
1512364167248149,1,1,-1,2,0,-1,-3,3
1512364167264680,-1,1,1,0,0,0,-2,-3
1512364167264680,0,-7,-4,0,-2,0,-1,0
1512364167266173,-2,5,0,-5,1,-1,-2,-1
1512364167266173,-2,4,1,-2,-1,1,-1,-2
1512364167287175,0,-3,-3,1,1,-1,-3,-3
1512364167287175,-1,-2,0,-2,-1,0,-1,0
1512364167288676,0,-1,0,0,0,0,-1,-1
1512364167288676,-4,-3,-2,-2,-3,-1,-3,-2
1512364167301195,-4,0,-1,-2,-1,0,0,-3
1512364167301195,0,5,1,1,0,0,3,2
1512364167308191,0,-2,-2,0,-1,-1,0,-3
1512364167308191,-2,-2,1,-1,-2,1,1,-2
1512364167324719,-1,1,-1,-2,-1,0,-4,-1
1512364167324719,-1,-2,-3,-3,-1,-2,-1,-1
1512364167326220,0,-4,-2,-2,-1,-1,-3,-1
1512364167326220,1,6,1,-1,-2,-2,-2,-1
1512364167347218,-1,0,1,-4,0,-1,0,-1
1512364167347218,-1,8,0,1,-1,0,-1,-2
1512364167348719,-5,-15,-5,1,-3,0,-3,-1
1512364167348719,-1,-3,-4,-2,0,-1,0,-1
1512364167360791,-2,-1,0,1,-2,-1,-2,-2
1512364167360791,-2,2,1,-3,1,-1,0,0
1512364167369799,2,1,2,0,1,0,0,-1
1512364167369799,0,-4,-2,-2,-2,0,0,-2
1512364167384317,0,-2,0,1,-2,-1,1,-2
1512364167384317,0,-3,-2,-1,-1,-2,2,0
1512364167386308,2,-4,-5,-1,-1,-1,-2,0
1512364167386308,-1,-3,-1,-4,-1,-2,-5,-1
1512364167406824,-3,-2,-3,-3,-1,-1,-1,-1
1512364167406824,0,-1,-3,0,-1,-1,-2,2
1512364167408324,-1,2,-4,-3,-1,0,-2,-2
1512364167408324,1,-1,-1,-2,0,1,-3,-1
1512364167421333,0,-2,-4,3,-1,0,-1,-2
1512364167421333,-5,-3,1,-2,0,0,-2,-1
1512364167428339,-1,1,2,-1,0,-2,-1,1
1512364167428339,2,0,1,1,0,0,1,-1
1512364167444361,0,6,2,-1,-1,-2,-2,1
1512364167444361,1,0,1,2,-3,0,-1,0
1512364167445851,0,0,-1,-2,-1,1,-1,-1
1512364167445851,-5,-2,0,0,-1,-2,0,-2
1512364167466880,-1,-3,-4,-1,1,-2,-2,-2
1512364167466880,0,-1,-3,-1,-1,-2,-1,-1
1512364167468870,1,-3,-2,-3,-3,0,0,-1
1512364167468870,2,13,3,1,0,0,3,1
1512364167480877,1,-1,-3,-1,-1,-1,2,-1
1512364167480877,1,-2,-4,-2,-2,-1,0,-1
1512364167489390,-5,3,-2,1,-3,-1,1,0
1512364167489390,-2,-5,-2,-1,-1,-2,-4,0
1512364167504392,-1,0,0,-2,-2,-3,-2,-1
1512364167504392,1,-2,-4,-3,-1,-2,-1,-2
1512364167505895,-1,1,-1,-2,0,-1,-3,-2
1512364167505895,0,-4,-3,-1,-1,-1,-1,-1
1512364167526917,-2,1,-1,-3,-1,0,-2,-1
1512364167526917,0,-6,-1,-1,-1,-1,-1,1
1512364167528419,-3,2,1,1,0,-1,0,-1
1512364167528419,-4,-3,-3,-1,-1,-1,-1,-2
1512364167540418,1,-2,-1,-3,-2,-2,0,-1
1512364167540418,0,6,0,-3,0,-1,-2,-1
1512364167549424,-3,3,1,-1,1,-1,0,-1
1512364167549424,-1,-2,-4,-1,-1,1,-2,-2
1512364167564438,-2,-3,1,0,-1,-1,0,-3
1512364167564438,-3,-4,0,1,-2,-1,-2,-1
1512364167565936,-1,0,-1,-1,-1,-1,-2,0
1512364167565936,-1,-3,-3,1,0,-2,0,-1
1512364167586950,0,1,-1,-3,0,1,-1,0
1512364167586950,0,-2,-5,-2,-3,-2,-1,-1
1512364167588452,-3,-1,-1,-1,-2,0,-1,-1
1512364167588452,0,-2,-3,-1,-2,-3,0,-1
1512364167600969,-3,-4,0,1,-2,-1,0,0
1512364167600969,-4,-2,0,-2,-1,0,0,0
1512364167609466,-1,-3,-1,0,-1,0,-3,0
1512364167609466,-1,-1,-1,-3,-2,-1,-2,-2
1512364167624486,0,-3,-4,-3,0,-1,-2,1
1512364167624486,-4,2,1,0,-1,2,-1,-1
1512364167625988,-1,-1,-3,4,-2,-3,0,-1
1512364167625988,-2,-7,-4,-2,1,-1,-1,0
1512364167646993,1,7,2,0,-2,-1,-1,0
1512364167646993,1,-3,-3,-2,-2,-3,-2,-2
1512364167648494,0,0,1,-4,-1,0,-2,-1
1512364167648494,-2,-1,3,0,1,-1,0,-1
1512364167660502,-13,-2,2,1,0,1,2,-5
1512364167660502,-2,-7,-2,-1,-1,1,3,-3
1512364167677023,-1,1,0,-2,-1,-1,2,-1
1512364167677023,-3,-3,-2,0,-1,-1,-1,-1
1512364167684524,0,-4,-2,-1,-1,1,-4,-3
1512364167684524,5,1,-1,0,-1,-1,-4,1
1512364167686022,0,-4,-3,-1,-1,-2,-1,-2
1512364167686022,0,1,-1,0,-2,-1,-2,0
1512364167707045,3,-1,-1,-1,-1,-2,-1,1
1512364167707045,-2,-3,-1,-2,0,-2,1,-1
1512364167708536,0,-3,-1,-2,-1,-1,-1,-1
1512364167708536,-1,0,-3,-2,0,-1,0,-1
1512364167720545,3,9,0,-1,-1,0,-3,2
1512364167720545,-2,1,0,0,0,-1,-2,-1
1512364167729552,-1,3,-3,-2,-1,-1,-1,0
1512364167729552,-6,-1,2,1,0,-1,2,-1
1512364167744561,-2,-5,-2,-2,0,-1,-1,-2
1512364167744561,0,1,-1,-1,1,-1,0,-1
1512364167746063,-1,-2,-1,-1,1,0,-2,-1
1512364167746063,-1,0,0,0,-3,-1,-2,-2
1512364167767088,-1,-3,-3,-1,-2,-3,-1,0
1512364167767088,-1,3,1,-1,-3,-1,-1,-1
1512364167768579,-1,-3,-2,-2,-2,-1,-1,-2
1512364167768579,0,-2,-2,-1,-1,0,-2,-2
1512364167780596,-1,-4,-3,-1,-2,-1,-1,-3
1512364167780596,0,1,-3,-1,0,-1,-1,-1
1512364167789623,-8,0,3,0,0,-1,0,-1
1512364167789623,0,-1,0,-1,0,0,-1,0
1512364167804605,0,0,-3,-1,-2,-2,1,2
1512364167804605,-3,-1,-2,-1,-2,-2,0,0
1512364167806105,2,-2,-4,-1,-2,-1,-3,1
1512364167806105,1,0,-2,-3,-2,0,-1,0
1512364167827120,2,-1,0,-1,-2,-1,-2,-2
1512364167827120,-2,1,-1,-2,-1,0,-1,0
1512364167828633,-1,-2,2,1,-1,-1,1,-2
1512364167828633,-1,-2,-1,-1,-1,-1,-1,-2
1512364167840639,-1,-3,-4,-1,0,-1,-1,-2
1512364167840639,-2,-1,-1,-2,-1,-3,-1,-1
1512364167849636,0,-1,-1,1,2,-1,0,-2
1512364167849636,-1,0,0,-1,0,-3,-1,0
1512364167864146,-2,-1,0,0,-2,0,0,-1
1512364167864146,-2,-3,0,-1,-1,0,1,-2
1512364167866147,0,-3,-2,-2,0,-1,-1,-3
1512364167866147,1,-2,-2,-1,-1,-1,-1,0
1512364167887164,0,-2,-2,0,-1,-1,-3,-3
1512364167887164,-1,0,-2,0,-1,1,-1,-1
1512364167888663,1,-1,-3,-3,-3,-2,-3,-1
1512364167888663,-1,0,-3,-1,0,0,-1,0
1512364167900692,-1,0,-1,-1,-2,-1,-2,0
1512364167900692,-1,0,0,1,-1,-1,0,-2
1512364167909687,-1,0,-2,-3,-2,-1,2,0
1512364167909687,0,0,0,-2,-1,0,0,-2
1512364167924698,-8,-4,-1,1,1,-2,-1,-2
1512364167924698,1,2,0,-1,-2,-3,-1,-1
1512364167926200,-1,-2,-2,-3,-1,-2,-3,-1
1512364167926200,-5,-9,-2,-2,-2,-1,-3,-2
1512364167947214,-3,4,3,-3,-1,-3,2,-2
1512364167947214,-1,-1,0,-1,-1,0,-1,-1
1512364167948716,-2,0,-1,0,-2,1,0,0
1512364167948716,-1,-3,-2,-2,0,0,-1,-1
1512364167969733,-1,-3,-2,-3,-1,-1,0,0
1512364167969733,-2,-2,-3,-3,-1,-2,-1,-3
1512364167971222,1,1,-1,-2,-1,-1,1,-1
1512364167971222,1,1,-2,0,-2,-1,-2,0
1512364167984731,1,0,1,-1,-1,0,-2,0
1512364167984731,0,0,1,-1,-1,0,-1,-1
1512364167986234,-5,-1,0,0,-1,-1,-2,-1
1512364167986234,-1,1,1,1,-1,1,0,1
1512364168006747,-1,-4,-3,0,0,-2,1,2
1512364168006747,-2,-3,-3,0,-1,0,0,0
1512364168008748,1,-6,0,-1,0,0,-1,-1
1512364168008748,3,-9,-3,-1,-3,-1,-2,-2
1512364168028261,-8,2,1,1,1,0,-1,-3
1512364168028261,-1,-5,-3,-1,-1,-1,-1,-1
1512364168037269,2,-2,-2,-1,-1,-1,0,0
1512364168037269,-5,8,1,0,-1,-1,-1,0
1512364168044282,4,-2,-2,-1,-2,-1,-1,1
1512364168044282,-3,-8,-4,-1,0,-2,1,-2
1512364168046276,1,7,3,-1,-1,-3,-1,0
1512364168046276,0,-2,-1,0,-1,-1,0,-1
1512364168066805,0,-5,-4,0,-2,-1,-1,-1
1512364168066805,0,1,-1,-1,0,-3,-1,1
1512364168068793,-5,-2,-1,-1,-1,-1,-1,0
1512364168068793,-3,-2,-4,-1,-1,-1,-2,-2
1512364168089317,-1,3,0,-2,-2,-1,-1,-1
1512364168089317,-1,-1,0,-1,-2,0,-3,-1
1512364168091316,-1,-1,-1,0,-1,-1,0,-3
1512364168091316,1,3,0,-1,0,-2,-1,-2
1512364168104316,-1,-2,-2,-1,-1,0,-3,0
1512364168104316,2,1,-2,1,-1,0,0,1
1512364168106319,1,-4,-2,0,-2,-1,0,-1
1512364168106319,-3,0,1,1,-2,0,-2,-3
1512364168126844,2,-1,-2,-1,-1,-3,-2,-1
1512364168126844,2,6,2,1,0,-1,-2,-1
1512364168128832,0,-2,-2,-3,-2,0,-3,0
1512364168128832,1,1,0,-4,1,0,0,-1
1512364168149370,3,-6,-2,-1,-1,-2,1,-1
1512364168149370,-2,15,6,1,-1,-2,1,-1
1512364168151359,-3,2,-3,-3,-1,-3,-1,-1
1512364168151359,0,-1,-3,0,-1,-2,-1,-1
1512364168163867,0,1,-1,0,-2,-3,-1,-2
1512364168163867,1,-5,-2,-3,-3,0,-2,-2
1512364168170868,3,-2,-3,-1,-2,-2,-2,-1
1512364168170868,-1,-1,-3,-1,-1,-1,0,0
1512364168187379,-3,-1,0,0,0,1,1,-2
1512364168187379,-1,-5,-3,-1,-2,-1,0,-1
1512364168188877,-1,-1,1,-2,-1,-2,-1,0
1512364168188877,-2,-3,-1,-2,-1,-1,0,0
1512364168209399,-1,-2,-4,-3,-1,-1,1,1
1512364168209399,-1,-4,-3,-1,-1,-3,-2,-1
1512364168210900,0,1,-2,0,0,-1,-2,-1
1512364168210900,0,-1,-1,-1,-1,-1,0,0
1512364168223909,-1,-1,1,0,-3,-1,-1,0
1512364168223909,-2,-2,0,-2,0,-2,0,-2
1512364168231405,0,-1,-1,-1,0,-1,-1,-2
1512364168231405,-1,0,-2,0,-1,-4,-1,-2
1512364168246438,0,1,1,-2,-1,-1,-3,-2
1512364168246438,-2,-4,-3,-1,-1,0,-3,-1
1512364168246916,-2,-2,-1,0,-1,-2,-2,0
1512364168246916,0,-4,-4,-2,-1,1,-1,-2
1512364168268935,-1,1,-1,1,-1,-1,1,-4
1512364168268935,3,4,2,0,-1,0,2,1
1512364168269432,1,-2,-2,1,0,0,1,1
1512364168269432,-1,0,1,0,-2,1,0,1
1512364168282953,-4,2,1,-1,0,-1,-3,0
1512364168282953,-1,-1,1,-4,0,-2,-3,0
1512364168291448,0,-2,-1,-3,-1,0,0,-2
1512364168291448,-1,-2,1,-2,0,-2,-3,-1
1512364168306459,0,3,1,-1,-1,-1,-1,-1
1512364168306459,-4,-10,-5,0,-1,-2,-2,-1
1512364168306960,-2,3,1,0,0,-2,0,-1
1512364168306960,0,-4,-3,0,-1,-3,0,-3
1512364168328984,-2,-1,-2,-2,0,-2,1,-3
1512364168328984,0,-1,-3,-2,-1,0,-2,-1
1512364168329474,-2,-2,-1,0,0,-2,-3,1
1512364168329474,0,-4,-1,0,-2,0,-2,0
1512364168342994,-1,-3,-4,-1,-1,0,-2,-1
1512364168342994,-1,-1,-1,1,-1,-1,-2,-2
1512364168350993,-1,-2,-2,-2,-1,-1,0,-1
1512364168350993,-2,3,1,-2,-1,0,-1,-1
1512364168366500,-1,-1,-3,-2,-1,-1,-2,1
1512364168366500,-1,-3,0,-2,1,0,0,-1
1512364168367010,2,12,4,0,0,0,-1,0
1512364168367010,2,0,0,-2,-2,-1,-3,0
1512364168388527,-1,-6,-3,-2,-1,0,-2,-1
1512364168388527,-1,-3,0,0,-2,0,-3,-2
1512364168389517,-4,-2,-2,-2,-3,-3,-2,-2
1512364168389517,-1,0,1,1,-2,-1,-1,0
1512364168403027,-7,3,2,1,1,1,1,-2
1512364168403027,0,-2,-2,0,0,-2,0,-2
1512364168411041,0,-5,-2,0,-1,-1,0,-1
1512364168411041,-2,-5,-2,-1,0,1,0,-3
1512364168426042,2,-3,-2,-1,-2,-4,-2,2
1512364168426042,-2,1,-1,-2,0,-1,-2,1
1512364168427044,-2,-2,-1,-1,-1,-1,-1,0
1512364168427044,-2,0,-1,-2,0,-2,-1,-2
1512364168448558,1,-11,-3,0,-2,0,1,1
1512364168448558,-4,8,2,-1,-1,-1,-1,-3
1512364168449559,-1,-6,-2,-2,0,-1,-2,-2
1512364168449559,-1,11,4,-2,-2,0,-3,-1
1512364168463081,1,-2,-4,-2,-1,0,-1,0
1512364168463081,-1,-2,-3,-1,-1,-1,4,-1
1512364168471075,0,-2,-4,-1,-2,-1,0,-2
1512364168471075,-2,-4,-5,0,-2,-2,-1,-1
1512364168486602,0,2,-1,-2,-1,-4,-5,-2
1512364168486602,-3,4,2,0,-2,-2,-2,2
1512364168487087,-1,1,-1,0,-1,0,-3,-1
1512364168487087,-1,-3,-3,-1,-1,0,-1,1
1512364168508601,4,-4,-1,1,0,-2,0,-1
1512364168508601,-7,-4,-2,1,1,-1,2,-3
1512364168509602,-2,-4,0,-2,-3,-2,0,-3
1512364168509602,-1,-3,0,-3,-2,-1,0,-2
1512364168523123,-1,1,1,0,1,0,-3,-1
1512364168523123,4,-6,-3,-1,-3,-1,-5,-1
1512364168531126,-4,-1,1,0,0,-1,-4,0
1512364168531126,-2,-2,-1,-3,-1,-1,-3,-2
1512364168554634,-1,2,-1,-2,-1,-2,-1,-1
1512364168554634,0,-11,-4,-3,-1,-2,-3,1
1512364168555133,1,3,1,0,-2,-2,-3,0
1512364168555133,1,-3,-4,-3,-1,-1,0,0
1512364168569143,-1,-1,0,-1,-1,-2,0,-2
1512364168569143,-1,-2,-1,-3,-2,-2,-1,-2
1512364168569645,-1,-7,-5,-2,0,0,1,-3
1512364168569645,-2,3,-1,0,0,-1,2,0
1512364168583163,-1,1,-2,-3,-1,-1,1,-3
1512364168583163,0,1,-2,-2,-1,0,-5,-2
1512364168591169,1,0,-1,0,-1,0,-3,-1
1512364168591169,1,4,-1,0,-1,0,0,0
1512364168606172,-3,-1,-1,-2,-2,-2,0,-4
1512364168606172,1,1,0,-1,-2,-1,-1,-2
1512364168607171,0,-1,0,-2,-1,-1,-1,0
1512364168607171,-1,-6,-1,-1,0,-2,-1,-2
1512364168628686,1,-1,-1,-2,-3,-1,-2,1
1512364168628686,0,1,-1,-1,-2,-2,0,-1
1512364168629687,-1,-1,0,-1,-2,-1,1,0
1512364168629687,0,5,-1,0,1,-1,0,0
1512364168643205,-1,-1,-1,-2,-1,-1,-2,-2
1512364168643205,-2,-2,-1,-1,0,-2,0,0
1512364168658719,1,5,0,0,0,0,-1,2
1512364168658719,0,-1,-2,-2,-1,-1,-2,0
1512364168666222,3,-3,-2,0,0,0,-1,0
1512364168666222,-9,-3,-2,0,-1,-3,-1,-3
1512364168667222,-2,-5,-5,-2,-2,-2,-3,-3
1512364168667222,-1,0,0,-1,-4,0,-3,-1
1512364168688728,-3,2,1,-2,-1,-1,0,-2
1512364168688728,13,0,-1,-2,-2,-2,0,-1
1512364168689738,0,-3,2,-1,0,-1,2,-2
1512364168689738,-1,-2,0,0,0,-2,-2,-2
1512364168703239,-3,-4,-1,-1,-1,0,-1,0
1512364168703239,-2,-2,-1,-1,0,-1,-3,-1
1512364168711244,-1,-6,-5,-2,-2,-2,-4,-2
1512364168711244,-1,0,-3,-4,-2,-2,0,0
1512364168726265,-1,1,1,0,-2,-1,2,1
1512364168726265,-2,0,2,0,-2,1,3,0
1512364168727267,1,1,0,0,-2,-2,1,-2
1512364168727267,-4,-2,1,0,-3,-1,-3,-2
1512364168748770,5,-3,-4,-2,-2,0,-3,0
1512364168748770,-3,1,-1,-2,-1,-2,-2,-1
1512364168749771,-2,1,-1,-2,0,-2,-2,-2
1512364168749771,1,9,3,1,2,1,2,-2
1512364168764798,0,10,0,-2,-1,0,0,0
1512364168764798,5,-3,-3,0,-1,-1,-2,-2
1512364168771286,-5,3,2,0,-1,-1,0,0
1512364168771286,-1,-8,-3,0,-1,-1,1,-2
1512364168786308,-3,-5,0,2,0,-3,1,0
1512364168786308,-2,7,2,-1,-1,-1,1,0
1512364168787303,1,-1,-3,-1,0,-1,-1,1
1512364168787303,1,-6,-2,-2,0,0,-2,-1
1512364168808813,-2,-5,-1,-2,-1,-1,0,-1
1512364168808813,-2,-1,-2,0,-2,-1,-1,1
1512364168809813,-1,-1,0,-2,-2,-1,-1,-1
1512364168809813,-2,-1,0,0,0,-2,0,0
1512364168823334,-1,0,0,-3,0,1,-3,-2
1512364168823334,-3,-3,-2,-1,1,-3,-1,-2
1512364168831329,1,-1,-2,-2,-2,0,-1,2
1512364168831329,1,13,5,-1,-1,-1,-2,-2
1512364168846357,-6,1,-2,0,0,-2,1,-2
1512364168846357,1,-4,-2,-2,-1,1,-1,1
1512364168846839,-3,-3,-2,-2,-2,-2,1,-1
1512364168846839,-1,-11,-3,-2,-1,-3,0,-1
1512364168868857,1,1,-1,-1,0,-2,-1,0
1512364168868857,-2,4,0,-2,-1,1,-1,-1
1512364168869857,-1,-1,-2,0,0,1,-1,-1
1512364168869857,-3,-7,-3,-3,-1,-2,-3,0
1512364168891889,-1,0,-1,-1,-1,-1,-2,-4
1512364168891889,-3,-4,-4,2,0,0,-1,-1
1512364168892875,-2,2,0,-2,0,0,0,-4
1512364168892875,-2,-11,-5,-1,-2,0,2,-2
1512364168906386,5,8,4,2,0,-1,2,0
1512364168906386,-1,1,-1,-1,-2,-1,0,-1
1512364168906891,-1,-5,-1,0,-1,-1,-2,-2
1512364168906891,-2,3,-2,-1,-1,-2,-3,0
1512364168928898,-1,-7,-3,-1,-2,-2,-4,-1
1512364168928898,3,5,1,-2,-3,-2,-4,0
1512364168929400,-1,1,1,0,-2,-1,-3,1
1512364168929400,-1,-1,-4,-1,-1,-1,0,-1
1512364168951915,1,-2,-2,-1,0,-2,-1,-1
1512364168951915,-7,-6,-1,-1,0,-1,1,-5
1512364168952915,-7,-3,-3,-2,-2,-2,2,-5
1512364168952915,9,3,0,1,-2,0,-2,1
1512364168966440,0,-13,-7,-2,-2,-1,-2,-4
1512364168966440,-1,-6,-2,0,1,-1,1,-3
1512364168966926,-7,12,6,0,1,1,0,0
1512364168966926,-7,-6,1,-3,0,-1,0,-2
1512364168988949,0,-2,-3,-2,-3,-2,-3,-3
1512364168988949,5,-5,0,1,-1,-1,-1,0
1512364168989450,-1,0,-3,-1,1,-2,1,2
1512364168989450,-1,0,-1,0,-1,0,0,-3
1512364169011968,-1,-1,-2,-1,-1,-1,0,0
1512364169011968,-2,0,-3,-2,-2,0,-1,-1
1512364169012457,3,-5,-3,-1,-2,-3,-5,-2
1512364169012457,-2,2,0,-1,-1,-1,-2,0
1512364169026482,0,-1,-3,0,0,0,-2,2
1512364169026482,-7,2,2,0,-1,-2,-1,0
1512364169026980,0,-1,-1,1,-3,0,-1,-1
1512364169026980,-2,0,-3,0,-1,-2,-2,-1
1512364169048999,-3,4,2,-2,-2,-1,-1,1
1512364169048999,3,1,1,-1,0,-1,-1,-2
1512364169049484,1,-16,-10,-4,-3,-3,-3,-2
1512364169049484,-3,5,0,0,0,-1,3,0
1512364169072020,-4,-2,-1,0,-1,-1,0,0
1512364169072020,-1,-5,-3,-1,-2,-2,0,0
1512364169072520,1,2,1,-1,-1,-2,0,-1
1512364169072520,-2,-3,-2,-2,0,-1,-2,-4
1512364169087033,-3,-4,1,-2,0,0,0,-3
1512364169087033,0,-3,-1,-1,1,-1,-1,0
1512364169087531,-4,1,2,-1,0,0,-1,0
1512364169087531,-2,-3,1,0,-1,-3,-1,0
1512364169108545,-3,3,1,-1,-1,-1,0,-1
1512364169108545,0,1,-2,-2,-1,-1,0,4
1512364169109546,1,1,-3,0,0,0,-1,0
1512364169109546,1,-3,-3,-1,-2,-1,0,-2
1512364169132062,-1,-3,-2,-2,-1,1,-3,-1
1512364169132062,-2,-2,-2,-1,-2,-1,-1,-3
1512364169132563,0,-1,0,0,0,-1,2,-1
1512364169132563,0,-1,0,-3,0,-1,0,0
1512364169146085,-1,11,5,-1,0,-1,1,-1
1512364169146085,-4,0,1,0,-1,-1,-2,1
1512364169147085,1,-1,-1,-1,-1,-1,-2,0
1512364169147085,-1,-1,-1,-1,-1,-1,-2,1
1512364169168598,0,-7,-3,0,-2,-1,1,1
1512364169168598,-5,3,0,-2,-1,-1,-3,0
1512364169169602,-1,-1,1,-1,0,-1,0,0
1512364169169602,-2,-1,-1,0,-1,-2,-3,-1
1512364169192115,-1,-1,-3,1,0,-1,-1,-2
1512364169192115,-1,-1,-1,1,-1,-2,2,1
1512364169192615,5,-5,-5,-2,-2,-2,-1,-1
1512364169192615,-6,0,0,-2,-1,2,-1,-3
1512364169206114,-3,5,3,0,0,-2,-2,1
1512364169206114,1,1,0,-2,-2,-3,-3,-4
1512364169207115,-3,0,-3,-1,-2,-2,0,-1
1512364169207115,4,-2,-4,-2,-2,0,0,0
1512364169228631,-1,-3,-5,-2,0,-2,-2,-3
1512364169228631,-2,0,0,-1,-2,-1,-1,-2
1512364169229632,-2,2,1,-2,0,-1,-1,-2
1512364169229632,-2,0,0,-1,-2,-1,-1,-2
1512364169251647,-3,-6,-3,-3,-1,0,-1,-3
1512364169251647,0,-1,-1,-1,0,-2,-2,-2
1512364169252648,-2,-2,-1,0,-1,-1,-2,-3
1512364169252648,-1,-3,-2,-1,0,0,1,-1
1512364169266157,-1,-3,-1,-1,-2,-2,-1,-1
1512364169266157,-1,0,0,-1,-2,0,-2,-1
1512364169267158,2,1,1,-1,-1,0,-1,-1
1512364169267158,-1,-1,-1,-2,-1,0,-5,0
1512364169288673,-3,3,0,-2,0,-1,-4,-2
1512364169288673,-1,-2,-3,-2,0,0,0,1
1512364169289673,-1,-3,1,0,0,-1,-1,-4
1512364169289673,-1,1,0,0,-1,-3,0,-4
1512364169311689,6,-6,-3,1,1,-1,1,1
1512364169311689,-3,1,0,1,-1,0,-1,-1
1512364169312690,3,0,-2,0,-3,-1,0,0
1512364169312690,-1,-9,-5,-4,-2,-1,0,-4
1512364169326199,2,5,0,0,-2,-1,-3,-3
1512364169326199,-1,0,1,0,-2,-1,-2,1
1512364169326700,0,-1,-2,-2,0,-2,-3,1
1512364169326700,-2,1,2,0,0,-1,-1,0
1512364169348715,-5,-6,-5,-3,-2,-3,-1,0
1512364169348715,-1,-3,-4,-3,0,-2,0,-2
1512364169349716,-4,-1,-1,0,-1,2,1,-1
1512364169349716,0,-1,-3,0,0,-1,0,-1
1512364169371732,-2,-2,1,0,-1,-1,1,-1
1512364169371732,-5,3,2,1,0,-1,-2,1
1512364169372733,-4,-3,-2,-1,-2,-1,2,2
1512364169372733,-1,-1,0,0,-1,-1,0,0
1512364169386744,-2,-5,-4,-1,-1,-2,-1,-1
1512364169386744,1,-3,-5,-1,-1,0,-1,-2
1512364169387243,-2,0,-1,-1,0,-1,-1,-2
1512364169387243,0,2,-1,-2,-2,0,1,-1
1512364169408768,0,0,-1,-2,-2,0,-1,-2
1512364169408768,1,1,0,-2,1,0,-1,-1
1512364169409258,-2,1,0,-1,0,0,1,2
1512364169409258,-1,-1,-1,0,-1,0,-2,1
1512364169432289,-4,-3,1,-2,-1,-2,-3,-3
1512364169432289,-6,1,2,0,-1,-2,-2,0
1512364169433275,-1,-5,-1,0,0,1,-2,1
1512364169433275,-1,0,-1,-1,-1,-2,0,0
1512364169446302,-2,2,-1,0,-1,-1,1,-1
1512364169446302,0,-3,-4,-1,-1,-2,-2,0
1512364169446785,2,6,1,0,-1,0,-2,-2
1512364169446785,2,-2,-2,-1,0,1,-3,-2
1512364169468852,0,-4,-1,0,-2,-2,-2,-1
1512364169468852,1,-2,-1,-1,-1,-1,-2,-3
1512364169469343,-5,-2,0,0,0,-2,-1,0
1512364169469343,-2,-2,-5,-2,-3,-2,1,-1
1512364169491870,-1,1,1,-1,0,0,0,1
1512364169491870,-1,0,-1,-1,0,-1,0,-2
1512364169492859,-2,-2,-3,-2,-2,-2,-2,-3
1512364169492859,-3,0,0,0,0,-1,1,0
1512364169505869,0,-1,-2,-1,0,-2,-1,1
1512364169505869,-3,-1,1,1,0,0,-4,0
1512364169513887,1,-2,-1,-1,-3,-1,-2,-1
1512364169513887,-1,-6,0,0,-1,-2,-4,-1
1512364169528895,-2,-2,1,-2,-1,0,-1,-1
1512364169528895,2,-1,0,0,-2,-2,0,0
1512364169529395,-1,0,-2,-2,-1,-2,1,1
1512364169529395,-3,0,-1,-3,-2,-1,1,0
1512364169552402,-2,-1,-3,-1,-2,-2,-2,-2
1512364169552402,6,-3,-5,0,-1,0,-1,-2
1512364169553407,-2,-2,-2,1,-1,-2,-1,-3
1512364169553407,1,0,-1,0,-1,0,1,0
1512364169565410,1,-1,-1,0,-2,0,-3,-4
1512364169565410,1,1,2,0,-2,0,3,5
1512364169573916,2,2,-1,-2,-1,0,1,0
1512364169573916,0,1,-2,-2,0,0,-1,-1
1512364169588927,-2,0,-2,0,-2,-1,1,2
1512364169588927,-1,-4,-3,-2,-1,-1,-3,-1
1512364169589427,-4,-1,1,-1,0,0,-1,-1
1512364169589427,-2,-2,-1,-3,-1,-1,0,-1
1512364169611943,2,1,-1,-3,-3,-1,0,-2
1512364169611943,0,2,0,0,-2,-2,-2,-2
1512364169612944,-1,-6,-4,0,-1,0,-1,-1
1512364169612944,-2,-2,-2,-2,-3,0,-2,-4
1512364169625453,1,-3,1,0,1,-2,-3,1
1512364169625453,-12,-8,-2,-2,-1,-2,-3,-2
1512364169633959,1,4,2,0,0,-1,1,0
1512364169633959,-8,-1,2,1,1,0,1,-1
1512364169648969,-1,-2,-1,-3,-1,-1,1,-1
1512364169648969,-1,-2,-3,-1,-1,-2,-1,0
1512364169649469,-1,-5,-4,-2,-1,-1,-3,-4
1512364169649469,2,-1,-3,-3,-2,-1,0,-2
1512364169672487,-1,3,-1,-3,1,1,-2,0
1512364169672487,-2,2,1,-1,1,0,-1,0
1512364169672986,-2,1,-3,0,-1,-2,-1,-1
1512364169672986,1,0,-2,0,-1,-1,-2,-1
1512364169685495,0,-1,0,0,-1,-2,1,2
1512364169685495,2,-3,-2,-2,-2,-1,0,0
1512364169693501,1,-2,-2,-2,-2,-1,-1,1
1512364169693501,-1,-1,-4,-2,0,-1,-1,-2
1512364169708511,-3,-1,-2,0,-1,-1,-4,-1
1512364169708511,-1,1,3,2,-1,-2,-1,-3
1512364169709512,2,-1,0,-2,-3,-2,-1,0
1512364169709512,-5,-3,-1,-2,-1,-2,-2,-2
1512364169732028,-4,1,-1,-2,-1,-2,1,-3
1512364169732028,2,1,-1,-1,0,0,-2,-2
1512364169732529,-4,-3,-1,-2,0,3,1,-2
1512364169732529,-1,-13,-5,-2,-2,-2,-1,-2
1512364169745537,0,0,-1,-1,-2,-1,-4,-1
1512364169745537,-3,0,-2,1,-3,-1,0,1
1512364169754062,-1,0,-2,1,1,-1,-2,0
1512364169754062,8,3,0,-2,1,-1,0,0
1512364169768566,-3,-2,1,1,-1,0,3,0
1512364169768566,0,1,0,-4,0,-2,1,-1
1512364169769554,-3,-3,-1,-2,-1,-3,0,-2
1512364169769554,1,-1,-1,0,-2,-1,0,1
1512364169792071,-1,-1,-1,-1,-1,-1,-2,0
1512364169792071,-1,2,1,-1,-1,0,0,-2
1512364169792574,0,-2,0,0,-2,-2,0,-1
1512364169792574,-2,0,3,1,0,0,-3,-2
1512364169805580,-1,-2,-1,1,0,-1,2,-1
1512364169805580,2,-5,-5,-1,-1,-1,-1,-2
1512364169813598,-1,3,-2,-2,-2,-1,0,-2
1512364169813598,-2,0,-4,0,-2,-4,-1,-1
1512364169828607,1,-2,-1,0,-1,-2,-3,0
1512364169828607,3,-2,-2,0,-2,1,-2,-2
1512364169829597,-3,-1,-1,0,-2,-1,-1,1
1512364169829597,0,4,0,-2,-2,-1,-3,0
1512364169851624,1,-1,-4,-4,-1,-2,0,-2
1512364169851624,-1,4,-2,1,0,-2,-4,1
1512364169852613,-2,0,-2,-1,0,-1,-1,-1
1512364169852613,-5,-3,-2,-1,-1,-2,-1,-3
1512364169874632,-1,2,0,1,-1,0,-3,-2
1512364169874632,-3,-2,0,-2,-2,-1,-1,1
1512364169875133,-2,-1,-1,-1,0,-1,-1,-1
1512364169875133,2,-1,-1,-2,-2,-1,1,-2
1512364169888641,5,-5,-1,-1,-1,-2,0,-2
1512364169888641,-7,-2,3,0,0,-1,-1,-1
1512364169889642,-1,1,1,1,0,0,-2,0
1512364169889642,1,-3,-2,0,-1,-2,3,3
1512364169911667,0,3,-3,-1,-1,-2,2,1
1512364169911667,1,-4,-4,-1,-1,0,2,-2
1512364169912656,-6,-1,-1,-1,-1,-1,1,-1
1512364169912656,0,1,0,-1,-1,1,-2,-2
1512364169934188,-3,-1,0,-1,0,0,-3,-2
1512364169934188,-2,-1,-2,-1,0,-3,-2,-1
1512364169935172,1,-1,0,0,-3,-1,-2,0
1512364169935172,-1,-1,0,-2,-2,-2,1,-1
1512364169948691,-4,0,1,0,0,0,-2,0
1512364169948691,0,1,-2,-1,-1,-3,-2,-3
1512364169949681,1,-3,-2,0,0,-1,0,0
1512364169949681,-1,-1,0,-1,-1,-1,-2,-2
1512364169971698,-1,-2,1,-1,0,-1,-1,-2
1512364169971698,-3,-3,-2,-2,-1,-1,-2,0
1512364169972699,-1,-5,-3,-2,-1,-1,0,-2
1512364169972699,-3,11,6,2,1,1,2,1
1512364169994214,-4,-2,-2,-1,0,-2,1,-2
1512364169994214,1,6,0,-3,-2,-1,-1,1
1512364169995215,-2,2,0,0,-1,-2,-1,-1
1512364169995215,0,-3,-4,0,-2,-3,0,0
1512364170008723,-5,-4,-1,-1,0,-1,-1,-3
1512364170008723,-5,1,2,1,-1,0,2,1
1512364170009223,2,-3,-2,-3,-2,-1,-2,0
1512364170009223,1,-4,-5,-3,-1,1,-4,-1
1512364170031739,-1,1,0,-1,-3,-1,-3,2
1512364170031739,1,-5,-8,-2,-3,0,-1,-1
1512364170032752,-7,0,2,-1,0,-1,-2,-2
1512364170032752,-3,-2,-1,-2,-1,-3,-3,-4
1512364170054256,-3,-1,0,-2,-2,0,-4,-2
1512364170054256,-2,-4,-1,-2,-2,-2,3,-1
1512364170055257,1,-1,-2,-3,-2,-2,1,-2
1512364170055257,-1,0,-1,0,0,-1,-2,-1
1512364170068775,3,-1,-3,-2,-2,-3,-3,1
1512364170068775,2,-1,-1,-1,0,-1,-2,-2
1512364170069766,0,1,-1,-2,-2,-1,-1,-2
1512364170069766,-3,1,1,0,-1,-2,0,0
1512364170091792,-1,2,-1,-1,0,0,-1,-2
1512364170091792,-2,-3,0,-3,0,1,-1,-1
1512364170092784,-2,-4,-2,-1,-1,-1,-2,-2
1512364170092784,-1,1,-1,-2,-4,-1,-2,-1
1512364170114298,3,-2,-5,-2,-2,1,-1,1
1512364170114298,-3,1,2,-1,-3,-3,0,-3
1512364170115299,0,0,-1,-1,0,-2,2,3
1512364170115299,0,-1,-1,1,0,-1,-4,-1
1512364170128818,1,0,-2,0,-2,-3,1,-1
1512364170128818,0,-2,1,-2,-2,-2,-2,-2
1512364170129319,3,-4,-4,-3,-2,0,-2,-2
1512364170129319,-5,-4,0,-1,0,-1,-2,0
1512364170151848,1,2,1,1,0,1,-1,-3
1512364170151848,-7,1,-1,0,0,-1,3,3
1512364170152836,-2,2,0,0,-2,-1,-3,-1
1512364170152836,1,-5,-2,-1,-2,-2,0,2
1512364170174350,-3,-4,0,0,0,-2,-2,1
1512364170174350,3,0,-2,0,-1,-1,-5,-3
1512364170175341,-3,1,-1,-2,-3,-1,-1,-2
1512364170175341,-1,-4,-3,-2,-1,-2,1,-2
1512364170196856,-4,-3,-4,0,0,-2,1,0
1512364170196856,0,-9,-4,-1,0,-2,-3,-3
1512364170197857,1,2,0,0,0,1,-2,-1
1512364170197857,2,0,-1,-3,-1,1,-2,-2
1512364170211898,-3,-4,0,-1,-2,0,0,-2
1512364170211898,0,0,-1,0,-1,-2,-1,-1
1512364170212868,-1,-3,0,-1,0,-1,-1,-3
1512364170212868,0,0,1,-1,0,-3,1,-1
1512364170234437,-2,2,-1,-4,-1,-4,0,-1
1512364170234437,-1,-1,-1,-1,0,1,0,-1
1512364170235434,-3,-1,0,0,-1,-3,0,-2
1512364170235434,1,-1,0,1,-2,0,-1,-1
1512364170248943,-2,-2,-2,-2,-1,-2,0,-1
1512364170248943,0,-1,-3,-2,-1,-1,-2,1
1512364170249435,1,-3,-5,0,0,0,1,4
1512364170249435,-5,-2,-3,0,1,-1,-3,-2
1512364170271951,3,3,0,-1,0,0,-2,-2
1512364170271951,-2,1,0,0,-1,1,-2,0
1512364170272450,1,-3,-1,-1,-1,1,-3,-1
1512364170272450,-1,2,-1,-2,-3,-2,-2,-1
1512364170301985,-1,0,0,0,-1,0,0,0
1512364170301985,0,-1,-4,-1,0,-1,-1,-1
1512364170302473,5,-1,-3,-2,0,-1,-1,-3
1512364170302473,0,9,2,1,-1,0,0,0
1512364170308478,-2,-2,-1,-1,-1,0,-3,-2
1512364170308478,0,0,-1,-1,-1,0,-1,-1
1512364170310487,1,0,-2,-1,-1,-2,1,-1
1512364170310487,-5,-5,0,-1,0,-1,-1,-4
1512364170331992,1,-3,-2,0,-1,-1,0,1
1512364170331992,-4,-2,2,2,-1,-1,1,-1
1512364170333493,-3,-5,1,-3,-2,-2,1,-2
1512364170333493,0,-3,0,-3,-1,-2,-2,0
1512364170354517,-3,5,2,0,-1,0,-5,0
1512364170354517,3,-2,-5,-1,-1,-2,-4,-1
1512364170356020,-2,-1,-2,0,-1,-1,-3,-6
1512364170356020,3,-2,0,-2,-1,-2,-1,1
1512364170368028,0,-1,1,1,-4,-2,-3,-1
1512364170368028,1,3,-2,-1,-2,-2,-2,-2
1512364170377034,-3,2,-1,-1,1,0,4,0
1512364170377034,-4,-14,-9,-1,0,0,0,-1
1512364170392044,-2,-1,-2,-1,1,-1,-2,-4
1512364170392044,5,-4,-3,-1,-1,-1,1,5
1512364170393545,-9,-2,-1,-2,-1,-2,-2,-2
1512364170393545,-1,-1,1,-1,-1,-1,0,-3
1512364170414576,-1,-4,0,-2,-1,-2,-2,0
1512364170414576,0,-1,0,-3,-1,-1,-2,-1
1512364170417052,0,0,0,-1,-2,-1,0,0
1512364170417052,-1,4,-3,-1,-1,-2,-2,-1
1512364170428072,-1,-2,-2,-1,0,0,2,-1
1512364170428072,-3,-1,-1,0,0,-2,1,-3
1512364170437088,-1,-2,-1,-2,-2,-1,-3,0
1512364170437088,-1,3,1,2,-2,0,-2,0
1512364170452086,0,-1,-2,-1,-1,1,-1,-2
1512364170452086,-3,-3,-3,-1,-1,-1,2,-1
1512364170453578,0,3,2,-3,-1,-1,-2,-2
1512364170453578,3,1,0,0,-3,0,-1,-1
1512364170474607,-4,0,-1,-1,-2,-1,0,-2
1512364170474607,0,0,-1,-1,-3,1,-3,-2
1512364170476103,-1,-3,-3,-1,0,-2,-2,-1
1512364170476103,-3,0,0,-2,0,-2,-4,2
1512364170496633,-4,-3,-1,-1,0,-1,-1,0
1512364170496633,-1,8,4,0,0,-1,1,-2
1512364170498622,-3,-1,1,-1,-1,-2,0,-1
1512364170498622,-1,-3,-3,-2,-1,-1,-1,-1
1512364170512163,2,1,-2,-1,-2,-2,-1,0
1512364170512163,-1,-2,-1,-1,-2,-1,-3,-4
1512364170518166,0,-1,-3,-1,-2,-1,2,5
1512364170518166,0,1,-1,-1,0,-2,1,2
1512364170534176,-2,-3,-1,-2,-1,0,1,3
1512364170534176,1,0,-1,-2,0,-1,-1,-3
1512364170537170,1,-2,-1,-2,-2,0,-2,-1
1512364170537170,0,-1,-1,-1,-1,0,-1,-3
1512364170548177,0,0,1,0,-2,0,0,1
1512364170548177,-2,-1,-1,0,1,0,-2,2
1512364170557184,-1,-1,-3,-1,-2,0,-1,-1
1512364170557184,-2,-1,1,-3,-1,-2,-3,0
1512364170571693,0,-1,-2,1,-1,-2,-4,-2
1512364170571693,-2,-4,0,-1,-1,-1,-1,0
1512364170573695,-3,2,1,-1,0,-1,1,-1
1512364170573695,-7,0,-1,-2,-2,-1,2,-3
1512364170601732,1,0,-1,-2,-2,-1,1,0
1512364170601732,1,-5,-3,-1,-1,-1,0,2
1512364170603736,0,-1,-3,-1,0,-1,-1,-3
1512364170603736,1,8,4,1,-1,0,-1,-2
1512364170608220,-2,0,1,-1,-2,-3,-3,1
1512364170608220,-2,2,-1,-2,-2,-1,-1,-1
1512364170617726,-2,-4,-3,-2,-2,-1,-1,-4
1512364170617726,0,-3,-3,-2,0,-2,0,-1
1512364170631745,-1,0,-2,0,0,-1,-1,-2
1512364170631745,-1,1,3,1,-1,-1,0,1
1512364170633246,0,-2,-2,-3,-2,-2,2,-1
1512364170633246,0,-6,-1,-3,-1,-2,-4,-4
1512364170654252,-8,2,0,1,0,-1,1,3
